# OpenSignals Text File Format. Version 1
# {"98:D3:91:FD:69:48": {"position": 0, "device": "bitalino_rev", "device name": "98:D3:91:FD:69:48", "device connection": "BTH98:D3:91:FD:69:48", "sampling rate": 1000, "resolution": [4, 1, 1, 1, 1, 10, 10], "firmware version": 1281, "comments": "", "keywords": "", "mode": 0, "sync interval": 2, "date": "2021-9-9", "time": "10:22:55.185", "channels": [2, 5], "sensor": ["RAW", "RAW"], "label": ["A2", "A5"], "column": ["nSeq", "I1", "I2", "O1", "O2", "A2", "A5"], "special": [{}, {}], "digital IO": [0, 0, 1, 1], "convertedValues": 0}}
# EndOfHeader
0	0	0	0	0	512	409	
1	0	0	0	0	515	409	
2	0	0	0	0	517	409	
3	0	0	0	0	519	409	
4	0	0	0	0	520	409	
5	0	0	0	0	521	409	
6	0	0	0	0	521	409	
7	0	0	0	0	520	409	
8	0	0	0	0	520	409	
9	0	0	0	0	519	409	
10	0	0	0	0	518	409	
11	0	0	0	0	515	409	
12	0	0	0	0	513	409	
13	0	0	0	0	511	409	
14	0	0	0	0	508	409	
15	0	0	0	0	507	410	
0	0	0	0	0	505	409	
1	0	0	0	0	505	409	
2	0	0	0	0	504	409	
3	0	0	0	0	505	409	
4	0	0	0	0	506	409	
5	0	0	0	0	508	408	
6	0	0	0	0	510	408	
7	0	0	0	0	513	409	
8	0	0	0	0	515	408	
9	0	0	0	0	515	409	
10	0	0	0	0	516	409	
11	0	0	0	0	515	410	
12	0	0	0	0	515	408	
13	0	0	0	0	514	409	
14	0	0	0	0	513	408	
15	0	0	0	0	511	409	
0	0	0	0	0	509	409	
1	0	0	0	0	507	408	
2	0	0	0	0	505	408	
3	0	0	0	0	505	409	
4	0	0	0	0	504	408	
5	0	0	0	0	506	408	
6	0	0	0	0	507	408	
7	0	0	0	0	508	408	
8	0	0	0	0	510	408	
9	0	0	0	0	512	408	
10	0	0	0	0	515	408	
11	0	0	0	0	518	408	
12	0	0	0	0	519	407	
13	0	0	0	0	520	407	
14	0	0	0	0	521	407	
15	0	0	0	0	520	407	
0	0	0	0	0	520	406	
1	0	0	0	0	519	407	
2	0	0	0	0	518	407	
3	0	0	0	0	515	407	
4	0	0	0	0	513	407	
5	0	0	0	0	511	407	
6	0	0	0	0	509	407	
7	0	0	0	0	509	407	
8	0	0	0	0	508	407	
9	0	0	0	0	508	407	
10	0	0	0	0	507	408	
11	0	0	0	0	508	408	
12	0	0	0	0	509	407	
13	0	0	0	0	511	408	
14	0	0	0	0	514	407	
15	0	0	0	0	516	407	
0	0	0	0	0	518	407	
1	0	0	0	0	519	407	
2	0	0	0	0	519	407	
3	0	0	0	0	519	407	
4	0	0	0	0	518	407	
5	0	0	0	0	518	406	
6	0	0	0	0	517	407	
7	0	0	0	0	515	408	
8	0	0	0	0	512	407	
9	0	0	0	0	510	407	
10	0	0	0	0	507	408	
11	0	0	0	0	504	408	
12	0	0	0	0	504	408	
13	0	0	0	0	504	407	
14	0	0	0	0	505	407	
15	0	0	0	0	506	408	
0	0	0	0	0	508	408	
1	0	0	0	0	510	408	
2	0	0	0	0	514	407	
3	0	0	0	0	517	408	
4	0	0	0	0	519	407	
5	0	0	0	0	520	408	
6	0	0	0	0	520	407	
7	0	0	0	0	519	408	
8	0	0	0	0	518	408	
9	0	0	0	0	517	408	
10	0	0	0	0	515	408	
11	0	0	0	0	512	409	
12	0	0	0	0	507	408	
13	0	0	0	0	502	408	
14	0	0	0	0	497	408	
15	0	0	0	0	493	408	
0	0	0	0	0	488	408	
1	0	0	0	0	484	408	
2	0	0	0	0	480	407	
3	0	0	0	0	476	408	
4	0	0	0	0	476	407	
5	0	0	0	0	478	407	
6	0	0	0	0	482	407	
7	0	0	0	0	487	407	
8	0	0	0	0	491	408	
9	0	0	0	0	495	408	
10	0	0	0	0	499	407	
11	0	0	0	0	502	408	
12	0	0	0	0	505	408	
13	0	0	0	0	507	408	
14	0	0	0	0	508	408	
15	0	0	0	0	511	408	
0	0	0	0	0	515	408	
1	0	0	0	0	520	408	
2	0	0	0	0	524	408	
3	0	0	0	0	529	409	
4	0	0	0	0	532	408	
5	0	0	0	0	535	408	
6	0	0	0	0	536	408	
7	0	0	0	0	540	408	
8	0	0	0	0	547	409	
9	0	0	0	0	556	408	
10	0	0	0	0	567	408	
11	0	0	0	0	577	408	
12	0	0	0	0	587	408	
13	0	0	0	0	597	408	
14	0	0	0	0	606	408	
15	0	0	0	0	613	408	
0	0	0	0	0	619	408	
1	0	0	0	0	622	408	
2	0	0	0	0	630	408	
3	0	0	0	0	641	408	
4	0	0	0	0	655	408	
5	0	0	0	0	666	408	
6	0	0	0	0	671	407	
7	0	0	0	0	673	408	
8	0	0	0	0	669	408	
9	0	0	0	0	662	408	
10	0	0	0	0	650	408	
11	0	0	0	0	638	409	
12	0	0	0	0	627	408	
13	0	0	0	0	616	408	
14	0	0	0	0	606	408	
15	0	0	0	0	595	408	
0	0	0	0	0	585	408	
1	0	0	0	0	576	408	
2	0	0	0	0	567	408	
3	0	0	0	0	557	409	
4	0	0	0	0	548	408	
5	0	0	0	0	539	408	
6	0	0	0	0	530	408	
7	0	0	0	0	519	409	
8	0	0	0	0	511	408	
9	0	0	0	0	503	408	
10	0	0	0	0	496	408	
11	0	0	0	0	490	410	
12	0	0	0	0	486	409	
13	0	0	0	0	482	409	
14	0	0	0	0	480	408	
15	0	0	0	0	479	408	
0	0	0	0	0	478	408	
1	0	0	0	0	480	408	
2	0	0	0	0	481	408	
3	0	0	0	0	483	408	
4	0	0	0	0	483	407	
5	0	0	0	0	485	407	
6	0	0	0	0	485	407	
7	0	0	0	0	484	408	
8	0	0	0	0	483	408	
9	0	0	0	0	482	408	
10	0	0	0	0	480	408	
11	0	0	0	0	478	408	
12	0	0	0	0	476	408	
13	0	0	0	0	474	408	
14	0	0	0	0	472	407	
15	0	0	0	0	471	408	
0	0	0	0	0	471	408	
1	0	0	0	0	471	408	
2	0	0	0	0	473	408	
3	0	0	0	0	474	408	
4	0	0	0	0	476	408	
5	0	0	0	0	480	408	
6	0	0	0	0	482	408	
7	0	0	0	0	484	408	
8	0	0	0	0	486	408	
9	0	0	0	0	487	408	
10	0	0	0	0	488	408	
11	0	0	0	0	488	409	
12	0	0	0	0	488	408	
13	0	0	0	0	488	408	
14	0	0	0	0	487	408	
15	0	0	0	0	486	408	
0	0	0	0	0	483	408	
1	0	0	0	0	481	408	
2	0	0	0	0	479	408	
3	0	0	0	0	478	408	
4	0	0	0	0	478	407	
5	0	0	0	0	478	408	
6	0	0	0	0	479	408	
7	0	0	0	0	480	408	
8	0	0	0	0	481	408	
9	0	0	0	0	484	408	
10	0	0	0	0	487	407	
11	0	0	0	0	489	408	
12	0	0	0	0	492	407	
13	0	0	0	0	493	408	
14	0	0	0	0	494	408	
15	0	0	0	0	493	408	
0	0	0	0	0	493	408	
1	0	0	0	0	492	408	
2	0	0	0	0	491	408	
3	0	0	0	0	489	408	
4	0	0	0	0	487	407	
5	0	0	0	0	485	408	
6	0	0	0	0	483	408	
7	0	0	0	0	483	408	
8	0	0	0	0	482	407	
9	0	0	0	0	483	407	
10	0	0	0	0	483	408	
11	0	0	0	0	484	408	
12	0	0	0	0	485	408	
13	0	0	0	0	488	408	
14	0	0	0	0	491	407	
15	0	0	0	0	493	407	
0	0	0	0	0	494	407	
1	0	0	0	0	496	407	
2	0	0	0	0	496	407	
3	0	0	0	0	496	408	
4	0	0	0	0	495	408	
5	0	0	0	0	495	408	
6	0	0	0	0	495	408	
7	0	0	0	0	492	408	
8	0	0	0	0	490	407	
9	0	0	0	0	489	408	
10	0	0	0	0	488	408	
11	0	0	0	0	487	408	
12	0	0	0	0	487	408	
13	0	0	0	0	487	408	
14	0	0	0	0	488	409	
15	0	0	0	0	489	409	
0	0	0	0	0	491	408	
1	0	0	0	0	493	408	
2	0	0	0	0	496	408	
3	0	0	0	0	499	409	
4	0	0	0	0	500	408	
5	0	0	0	0	500	409	
6	0	0	0	0	500	409	
7	0	0	0	0	500	409	
8	0	0	0	0	499	409	
9	0	0	0	0	499	408	
10	0	0	0	0	498	409	
11	0	0	0	0	496	409	
12	0	0	0	0	493	409	
13	0	0	0	0	491	409	
14	0	0	0	0	489	408	
15	0	0	0	0	488	409	
0	0	0	0	0	488	409	
1	0	0	0	0	488	409	
2	0	0	0	0	489	408	
3	0	0	0	0	490	409	
4	0	0	0	0	492	409	
5	0	0	0	0	495	408	
6	0	0	0	0	498	408	
7	0	0	0	0	500	409	
8	0	0	0	0	502	408	
9	0	0	0	0	503	408	
10	0	0	0	0	502	408	
11	0	0	0	0	502	409	
12	0	0	0	0	502	408	
13	0	0	0	0	500	408	
14	0	0	0	0	498	408	
15	0	0	0	0	495	409	
0	0	0	0	0	492	408	
1	0	0	0	0	490	409	
2	0	0	0	0	488	408	
3	0	0	0	0	487	409	
4	0	0	0	0	487	408	
5	0	0	0	0	487	408	
6	0	0	0	0	488	408	
7	0	0	0	0	490	408	
8	0	0	0	0	492	408	
9	0	0	0	0	494	408	
10	0	0	0	0	497	408	
11	0	0	0	0	499	408	
12	0	0	0	0	500	407	
13	0	0	0	0	501	408	
14	0	0	0	0	502	408	
15	0	0	0	0	502	408	
0	0	0	0	0	502	409	
1	0	0	0	0	501	408	
2	0	0	0	0	500	409	
3	0	0	0	0	497	410	
4	0	0	0	0	495	409	
5	0	0	0	0	493	408	
6	0	0	0	0	492	409	
7	0	0	0	0	491	409	
8	0	0	0	0	491	408	
9	0	0	0	0	491	409	
10	0	0	0	0	492	408	
11	0	0	0	0	492	409	
12	0	0	0	0	494	408	
13	0	0	0	0	496	409	
14	0	0	0	0	499	408	
15	0	0	0	0	502	408	
0	0	0	0	0	504	408	
1	0	0	0	0	507	408	
2	0	0	0	0	508	408	
3	0	0	0	0	508	408	
4	0	0	0	0	509	407	
5	0	0	0	0	509	408	
6	0	0	0	0	509	407	
7	0	0	0	0	507	407	
8	0	0	0	0	505	407	
9	0	0	0	0	503	406	
10	0	0	0	0	502	407	
11	0	0	0	0	502	407	
12	0	0	0	0	501	407	
13	0	0	0	0	501	406	
14	0	0	0	0	502	406	
15	0	0	0	0	502	406	
0	0	0	0	0	504	407	
1	0	0	0	0	506	406	
2	0	0	0	0	509	407	
3	0	0	0	0	511	407	
4	0	0	0	0	513	406	
5	0	0	0	0	514	406	
6	0	0	0	0	514	406	
7	0	0	0	0	515	407	
8	0	0	0	0	514	407	
9	0	0	0	0	513	407	
10	0	0	0	0	512	407	
11	0	0	0	0	510	407	
12	0	0	0	0	507	406	
13	0	0	0	0	505	406	
14	0	0	0	0	504	405	
15	0	0	0	0	504	406	
0	0	0	0	0	504	406	
1	0	0	0	0	504	407	
2	0	0	0	0	505	406	
3	0	0	0	0	506	407	
4	0	0	0	0	508	407	
5	0	0	0	0	512	407	
6	0	0	0	0	515	407	
7	0	0	0	0	518	407	
8	0	0	0	0	520	407	
9	0	0	0	0	522	407	
10	0	0	0	0	523	407	
11	0	0	0	0	523	407	
12	0	0	0	0	523	407	
13	0	0	0	0	522	407	
14	0	0	0	0	521	407	
15	0	0	0	0	519	407	
0	0	0	0	0	516	406	
1	0	0	0	0	514	406	
2	0	0	0	0	512	406	
3	0	0	0	0	512	408	
4	0	0	0	0	512	407	
5	0	0	0	0	513	407	
6	0	0	0	0	513	407	
7	0	0	0	0	515	407	
8	0	0	0	0	516	407	
9	0	0	0	0	519	407	
10	0	0	0	0	520	407	
11	0	0	0	0	522	408	
12	0	0	0	0	523	407	
13	0	0	0	0	523	407	
14	0	0	0	0	523	407	
15	0	0	0	0	522	408	
0	0	0	0	0	521	408	
1	0	0	0	0	520	407	
2	0	0	0	0	518	407	
3	0	0	0	0	516	408	
4	0	0	0	0	513	408	
5	0	0	0	0	510	408	
6	0	0	0	0	508	408	
7	0	0	0	0	507	408	
8	0	0	0	0	506	408	
9	0	0	0	0	505	409	
10	0	0	0	0	505	409	
11	0	0	0	0	506	409	
12	0	0	0	0	507	408	
13	0	0	0	0	509	408	
14	0	0	0	0	511	409	
15	0	0	0	0	512	409	
0	0	0	0	0	513	409	
1	0	0	0	0	514	409	
2	0	0	0	0	514	409	
3	0	0	0	0	513	409	
4	0	0	0	0	513	409	
5	0	0	0	0	511	409	
6	0	0	0	0	510	409	
7	0	0	0	0	507	409	
8	0	0	0	0	505	409	
9	0	0	0	0	503	409	
10	0	0	0	0	502	409	
11	0	0	0	0	500	409	
12	0	0	0	0	499	409	
13	0	0	0	0	499	409	
14	0	0	0	0	498	409	
15	0	0	0	0	499	409	
0	0	0	0	0	499	409	
1	0	0	0	0	502	409	
2	0	0	0	0	504	409	
3	0	0	0	0	506	409	
4	0	0	0	0	508	408	
5	0	0	0	0	508	409	
6	0	0	0	0	508	409	
7	0	0	0	0	508	409	
8	0	0	0	0	507	409	
9	0	0	0	0	506	409	
10	0	0	0	0	504	409	
11	0	0	0	0	502	409	
12	0	0	0	0	499	409	
13	0	0	0	0	498	409	
14	0	0	0	0	495	409	
15	0	0	0	0	494	409	
0	0	0	0	0	494	409	
1	0	0	0	0	495	409	
2	0	0	0	0	496	408	
3	0	0	0	0	497	409	
4	0	0	0	0	499	408	
5	0	0	0	0	503	409	
6	0	0	0	0	505	409	
7	0	0	0	0	508	408	
8	0	0	0	0	509	409	
9	0	0	0	0	511	409	
10	0	0	0	0	511	409	
11	0	0	0	0	511	410	
12	0	0	0	0	510	408	
13	0	0	0	0	509	409	
14	0	0	0	0	507	409	
15	0	0	0	0	505	409	
0	0	0	0	0	502	409	
1	0	0	0	0	500	409	
2	0	0	0	0	498	409	
3	0	0	0	0	496	410	
4	0	0	0	0	496	409	
5	0	0	0	0	497	409	
6	0	0	0	0	497	409	
7	0	0	0	0	499	409	
8	0	0	0	0	500	409	
9	0	0	0	0	503	409	
10	0	0	0	0	505	409	
11	0	0	0	0	507	409	
12	0	0	0	0	508	408	
13	0	0	0	0	509	408	
14	0	0	0	0	510	408	
15	0	0	0	0	509	409	
0	0	0	0	0	508	408	
1	0	0	0	0	508	408	
2	0	0	0	0	506	408	
3	0	0	0	0	504	409	
4	0	0	0	0	502	408	
5	0	0	0	0	500	408	
6	0	0	0	0	499	408	
7	0	0	0	0	498	409	
8	0	0	0	0	498	409	
9	0	0	0	0	499	408	
10	0	0	0	0	499	408	
11	0	0	0	0	501	409	
12	0	0	0	0	502	408	
13	0	0	0	0	505	408	
14	0	0	0	0	508	408	
15	0	0	0	0	509	408	
0	0	0	0	0	510	408	
1	0	0	0	0	511	408	
2	0	0	0	0	511	408	
3	0	0	0	0	511	408	
4	0	0	0	0	510	407	
5	0	0	0	0	509	407	
6	0	0	0	0	508	407	
7	0	0	0	0	506	408	
8	0	0	0	0	504	407	
9	0	0	0	0	503	407	
10	0	0	0	0	501	406	
11	0	0	0	0	501	408	
12	0	0	0	0	499	407	
13	0	0	0	0	500	407	
14	0	0	0	0	500	407	
15	0	0	0	0	501	408	
0	0	0	0	0	503	407	
1	0	0	0	0	505	407	
2	0	0	0	0	508	407	
3	0	0	0	0	509	407	
4	0	0	0	0	510	407	
5	0	0	0	0	511	407	
6	0	0	0	0	511	407	
7	0	0	0	0	511	407	
8	0	0	0	0	510	407	
9	0	0	0	0	509	407	
10	0	0	0	0	507	406	
11	0	0	0	0	504	407	
12	0	0	0	0	502	406	
13	0	0	0	0	500	406	
14	0	0	0	0	498	406	
15	0	0	0	0	498	406	
0	0	0	0	0	498	406	
1	0	0	0	0	498	406	
2	0	0	0	0	499	406	
3	0	0	0	0	501	407	
4	0	0	0	0	503	406	
5	0	0	0	0	505	405	
6	0	0	0	0	508	406	
7	0	0	0	0	510	406	
8	0	0	0	0	511	406	
9	0	0	0	0	512	406	
10	0	0	0	0	512	406	
11	0	0	0	0	511	407	
12	0	0	0	0	511	406	
13	0	0	0	0	509	407	
14	0	0	0	0	508	407	
15	0	0	0	0	505	407	
0	0	0	0	0	502	407	
1	0	0	0	0	500	407	
2	0	0	0	0	498	406	
3	0	0	0	0	497	407	
4	0	0	0	0	496	406	
5	0	0	0	0	497	407	
6	0	0	0	0	497	407	
7	0	0	0	0	497	407	
8	0	0	0	0	499	407	
9	0	0	0	0	502	408	
10	0	0	0	0	504	408	
11	0	0	0	0	507	408	
12	0	0	0	0	508	408	
13	0	0	0	0	510	408	
14	0	0	0	0	510	408	
15	0	0	0	0	509	408	
0	0	0	0	0	508	408	
1	0	0	0	0	507	408	
2	0	0	0	0	505	409	
3	0	0	0	0	503	409	
4	0	0	0	0	501	409	
5	0	0	0	0	498	408	
6	0	0	0	0	496	408	
7	0	0	0	0	495	409	
8	0	0	0	0	495	409	
9	0	0	0	0	496	408	
10	0	0	0	0	496	409	
11	0	0	0	0	497	409	
12	0	0	0	0	499	409	
13	0	0	0	0	502	408	
14	0	0	0	0	505	408	
15	0	0	0	0	507	409	
0	0	0	0	0	508	408	
1	0	0	0	0	509	409	
2	0	0	0	0	509	408	
3	0	0	0	0	508	409	
4	0	0	0	0	507	408	
5	0	0	0	0	505	409	
6	0	0	0	0	504	409	
7	0	0	0	0	503	409	
8	0	0	0	0	500	409	
9	0	0	0	0	499	409	
10	0	0	0	0	498	408	
11	0	0	0	0	498	410	
12	0	0	0	0	499	408	
13	0	0	0	0	500	408	
14	0	0	0	0	501	408	
15	0	0	0	0	504	409	
0	0	0	0	0	506	409	
1	0	0	0	0	508	409	
2	0	0	0	0	511	408	
3	0	0	0	0	512	409	
4	0	0	0	0	513	408	
5	0	0	0	0	514	409	
6	0	0	0	0	514	409	
7	0	0	0	0	513	409	
8	0	0	0	0	512	408	
9	0	0	0	0	512	409	
10	0	0	0	0	511	409	
11	0	0	0	0	509	409	
12	0	0	0	0	507	409	
13	0	0	0	0	505	409	
14	0	0	0	0	504	409	
15	0	0	0	0	502	408	
0	0	0	0	0	502	408	
1	0	0	0	0	502	409	
2	0	0	0	0	503	408	
3	0	0	0	0	504	409	
4	0	0	0	0	505	408	
5	0	0	0	0	507	408	
6	0	0	0	0	510	409	
7	0	0	0	0	512	408	
8	0	0	0	0	513	408	
9	0	0	0	0	514	409	
10	0	0	0	0	514	408	
11	0	0	0	0	514	409	
12	0	0	0	0	513	408	
13	0	0	0	0	512	408	
14	0	0	0	0	511	408	
15	0	0	0	0	508	408	
0	0	0	0	0	506	408	
1	0	0	0	0	504	408	
2	0	0	0	0	503	408	
3	0	0	0	0	503	409	
4	0	0	0	0	502	408	
5	0	0	0	0	502	408	
6	0	0	0	0	503	407	
7	0	0	0	0	504	408	
8	0	0	0	0	506	408	
9	0	0	0	0	508	408	
10	0	0	0	0	512	407	
11	0	0	0	0	514	408	
12	0	0	0	0	515	407	
13	0	0	0	0	516	407	
14	0	0	0	0	517	407	
15	0	0	0	0	518	408	
0	0	0	0	0	517	407	
1	0	0	0	0	516	407	
2	0	0	0	0	515	406	
3	0	0	0	0	512	408	
4	0	0	0	0	510	407	
5	0	0	0	0	508	407	
6	0	0	0	0	506	407	
7	0	0	0	0	505	408	
8	0	0	0	0	504	408	
9	0	0	0	0	504	407	
10	0	0	0	0	505	407	
11	0	0	0	0	506	407	
12	0	0	0	0	508	407	
13	0	0	0	0	510	407	
14	0	0	0	0	513	407	
15	0	0	0	0	515	407	
0	0	0	0	0	517	407	
1	0	0	0	0	519	407	
2	0	0	0	0	519	407	
3	0	0	0	0	519	408	
4	0	0	0	0	518	407	
5	0	0	0	0	517	407	
6	0	0	0	0	515	407	
7	0	0	0	0	512	407	
8	0	0	0	0	509	407	
9	0	0	0	0	506	407	
10	0	0	0	0	504	407	
11	0	0	0	0	504	408	
12	0	0	0	0	504	407	
13	0	0	0	0	504	408	
14	0	0	0	0	505	407	
15	0	0	0	0	507	408	
0	0	0	0	0	509	408	
1	0	0	0	0	512	408	
2	0	0	0	0	515	408	
3	0	0	0	0	518	408	
4	0	0	0	0	519	408	
5	0	0	0	0	520	408	
6	0	0	0	0	520	408	
7	0	0	0	0	520	408	
8	0	0	0	0	520	408	
9	0	0	0	0	519	408	
10	0	0	0	0	518	408	
11	0	0	0	0	515	408	
12	0	0	0	0	512	408	
13	0	0	0	0	511	408	
14	0	0	0	0	508	408	
15	0	0	0	0	508	408	
0	0	0	0	0	508	408	
1	0	0	0	0	509	408	
2	0	0	0	0	511	407	
3	0	0	0	0	512	408	
4	0	0	0	0	514	407	
5	0	0	0	0	517	407	
6	0	0	0	0	519	407	
7	0	0	0	0	522	407	
8	0	0	0	0	523	407	
9	0	0	0	0	525	407	
10	0	0	0	0	525	407	
11	0	0	0	0	525	408	
12	0	0	0	0	526	407	
13	0	0	0	0	525	407	
14	0	0	0	0	524	408	
15	0	0	0	0	522	407	
0	0	0	0	0	519	407	
1	0	0	0	0	518	407	
2	0	0	0	0	516	407	
3	0	0	0	0	515	409	
4	0	0	0	0	513	408	
5	0	0	0	0	513	408	
6	0	0	0	0	514	408	
7	0	0	0	0	515	408	
8	0	0	0	0	517	408	
9	0	0	0	0	519	408	
10	0	0	0	0	522	408	
11	0	0	0	0	524	409	
12	0	0	0	0	526	408	
13	0	0	0	0	527	408	
14	0	0	0	0	527	408	
15	0	0	0	0	527	408	
0	0	0	0	0	526	408	
1	0	0	0	0	524	408	
2	0	0	0	0	522	408	
3	0	0	0	0	520	408	
4	0	0	0	0	517	408	
5	0	0	0	0	515	408	
6	0	0	0	0	515	408	
7	0	0	0	0	514	408	
8	0	0	0	0	515	409	
9	0	0	0	0	516	408	
10	0	0	0	0	518	408	
11	0	0	0	0	519	409	
12	0	0	0	0	521	408	
13	0	0	0	0	524	408	
14	0	0	0	0	527	408	
15	0	0	0	0	528	409	
0	0	0	0	0	529	408	
1	0	0	0	0	530	408	
2	0	0	0	0	529	408	
3	0	0	0	0	529	409	
4	0	0	0	0	527	408	
5	0	0	0	0	526	408	
6	0	0	0	0	524	408	
7	0	0	0	0	520	408	
8	0	0	0	0	517	408	
9	0	0	0	0	515	408	
10	0	0	0	0	513	408	
11	0	0	0	0	512	408	
12	0	0	0	0	512	407	
13	0	0	0	0	512	407	
14	0	0	0	0	512	407	
15	0	0	0	0	513	408	
0	0	0	0	0	513	408	
1	0	0	0	0	515	408	
2	0	0	0	0	519	407	
3	0	0	0	0	520	409	
4	0	0	0	0	521	407	
5	0	0	0	0	522	408	
6	0	0	0	0	522	408	
7	0	0	0	0	522	408	
8	0	0	0	0	520	408	
9	0	0	0	0	519	407	
10	0	0	0	0	517	408	
11	0	0	0	0	515	408	
12	0	0	0	0	513	408	
13	0	0	0	0	511	408	
14	0	0	0	0	511	408	
15	0	0	0	0	510	409	
0	0	0	0	0	510	408	
1	0	0	0	0	511	408	
2	0	0	0	0	511	408	
3	0	0	0	0	512	409	
4	0	0	0	0	513	408	
5	0	0	0	0	516	408	
6	0	0	0	0	518	408	
7	0	0	0	0	519	409	
8	0	0	0	0	520	408	
9	0	0	0	0	520	409	
10	0	0	0	0	520	408	
11	0	0	0	0	519	409	
12	0	0	0	0	518	408	
13	0	0	0	0	517	408	
14	0	0	0	0	516	408	
15	0	0	0	0	513	408	
0	0	0	0	0	511	408	
1	0	0	0	0	508	407	
2	0	0	0	0	506	408	
3	0	0	0	0	505	408	
4	0	0	0	0	505	408	
5	0	0	0	0	506	407	
6	0	0	0	0	507	408	
7	0	0	0	0	508	408	
8	0	0	0	0	510	408	
9	0	0	0	0	512	407	
10	0	0	0	0	514	408	
11	0	0	0	0	517	408	
12	0	0	0	0	518	408	
13	0	0	0	0	519	408	
14	0	0	0	0	519	408	
15	0	0	0	0	519	408	
0	0	0	0	0	518	408	
1	0	0	0	0	518	408	
2	0	0	0	0	517	408	
3	0	0	0	0	515	409	
4	0	0	0	0	513	408	
5	0	0	0	0	511	408	
6	0	0	0	0	508	408	
7	0	0	0	0	508	409	
8	0	0	0	0	507	408	
9	0	0	0	0	508	409	
10	0	0	0	0	508	408	
11	0	0	0	0	508	409	
12	0	0	0	0	509	408	
13	0	0	0	0	510	408	
14	0	0	0	0	512	408	
15	0	0	0	0	513	408	
0	0	0	0	0	514	408	
1	0	0	0	0	515	408	
2	0	0	0	0	513	408	
3	0	0	0	0	511	408	
4	0	0	0	0	508	408	
5	0	0	0	0	504	408	
6	0	0	0	0	499	408	
7	0	0	0	0	493	408	
8	0	0	0	0	487	408	
9	0	0	0	0	480	408	
10	0	0	0	0	473	408	
11	0	0	0	0	468	408	
12	0	0	0	0	465	408	
13	0	0	0	0	464	408	
14	0	0	0	0	466	407	
15	0	0	0	0	468	408	
0	0	0	0	0	472	407	
1	0	0	0	0	477	408	
2	0	0	0	0	483	407	
3	0	0	0	0	488	408	
4	0	0	0	0	493	407	
5	0	0	0	0	497	407	
6	0	0	0	0	501	407	
7	0	0	0	0	504	408	
8	0	0	0	0	509	407	
9	0	0	0	0	514	407	
10	0	0	0	0	520	407	
11	0	0	0	0	525	408	
12	0	0	0	0	528	408	
13	0	0	0	0	531	408	
14	0	0	0	0	532	407	
15	0	0	0	0	533	408	
0	0	0	0	0	537	407	
1	0	0	0	0	543	407	
2	0	0	0	0	551	408	
3	0	0	0	0	560	408	
4	0	0	0	0	570	408	
5	0	0	0	0	581	408	
6	0	0	0	0	592	408	
7	0	0	0	0	602	408	
8	0	0	0	0	611	408	
9	0	0	0	0	618	408	
10	0	0	0	0	623	408	
11	0	0	0	0	631	409	
12	0	0	0	0	641	408	
13	0	0	0	0	655	408	
14	0	0	0	0	664	408	
15	0	0	0	0	668	407	
0	0	0	0	0	668	408	
1	0	0	0	0	662	408	
2	0	0	0	0	650	407	
3	0	0	0	0	637	408	
4	0	0	0	0	624	407	
5	0	0	0	0	612	408	
6	0	0	0	0	600	407	
7	0	0	0	0	589	408	
8	0	0	0	0	579	407	
9	0	0	0	0	571	407	
10	0	0	0	0	564	408	
11	0	0	0	0	557	407	
12	0	0	0	0	550	407	
13	0	0	0	0	542	408	
14	0	0	0	0	535	408	
15	0	0	0	0	527	407	
0	0	0	0	0	520	407	
1	0	0	0	0	513	407	
2	0	0	0	0	507	407	
3	0	0	0	0	499	407	
4	0	0	0	0	492	407	
5	0	0	0	0	487	406	
6	0	0	0	0	483	406	
7	0	0	0	0	480	408	
8	0	0	0	0	479	407	
9	0	0	0	0	478	407	
10	0	0	0	0	477	406	
11	0	0	0	0	477	407	
12	0	0	0	0	478	406	
13	0	0	0	0	480	407	
14	0	0	0	0	483	408	
15	0	0	0	0	484	408	
0	0	0	0	0	484	408	
1	0	0	0	0	485	408	
2	0	0	0	0	484	408	
3	0	0	0	0	483	408	
4	0	0	0	0	481	407	
5	0	0	0	0	479	408	
6	0	0	0	0	478	408	
7	0	0	0	0	475	408	
8	0	0	0	0	472	408	
9	0	0	0	0	470	408	
10	0	0	0	0	468	408	
11	0	0	0	0	468	409	
12	0	0	0	0	468	408	
13	0	0	0	0	469	409	
14	0	0	0	0	470	409	
15	0	0	0	0	472	409	
0	0	0	0	0	474	409	
1	0	0	0	0	476	408	
2	0	0	0	0	479	409	
3	0	0	0	0	481	410	
4	0	0	0	0	482	409	
5	0	0	0	0	483	409	
6	0	0	0	0	484	409	
7	0	0	0	0	484	409	
8	0	0	0	0	484	409	
9	0	0	0	0	483	408	
10	0	0	0	0	482	408	
11	0	0	0	0	479	409	
12	0	0	0	0	476	408	
13	0	0	0	0	474	407	
14	0	0	0	0	473	408	
15	0	0	0	0	473	409	
0	0	0	0	0	473	408	
1	0	0	0	0	474	408	
2	0	0	0	0	476	408	
3	0	0	0	0	477	409	
4	0	0	0	0	480	408	
5	0	0	0	0	482	408	
6	0	0	0	0	486	408	
7	0	0	0	0	488	409	
8	0	0	0	0	491	409	
9	0	0	0	0	491	408	
10	0	0	0	0	492	408	
11	0	0	0	0	491	409	
12	0	0	0	0	491	408	
13	0	0	0	0	490	408	
14	0	0	0	0	489	408	
15	0	0	0	0	487	408	
0	0	0	0	0	485	408	
1	0	0	0	0	483	408	
2	0	0	0	0	483	407	
3	0	0	0	0	483	409	
4	0	0	0	0	483	408	
5	0	0	0	0	484	408	
6	0	0	0	0	486	409	
7	0	0	0	0	487	408	
8	0	0	0	0	490	408	
9	0	0	0	0	493	408	
10	0	0	0	0	496	408	
11	0	0	0	0	499	409	
12	0	0	0	0	500	408	
13	0	0	0	0	501	408	
14	0	0	0	0	501	408	
15	0	0	0	0	500	408	
0	0	0	0	0	499	408	
1	0	0	0	0	497	408	
2	0	0	0	0	495	407	
3	0	0	0	0	492	408	
4	0	0	0	0	489	408	
5	0	0	0	0	487	408	
6	0	0	0	0	486	408	
7	0	0	0	0	485	408	
8	0	0	0	0	485	408	
9	0	0	0	0	486	407	
10	0	0	0	0	488	408	
11	0	0	0	0	489	408	
12	0	0	0	0	492	408	
13	0	0	0	0	494	407	
14	0	0	0	0	497	408	
15	0	0	0	0	499	408	
0	0	0	0	0	500	408	
1	0	0	0	0	502	408	
2	0	0	0	0	502	408	
3	0	0	0	0	501	408	
4	0	0	0	0	500	408	
5	0	0	0	0	499	407	
6	0	0	0	0	498	407	
7	0	0	0	0	496	408	
8	0	0	0	0	494	408	
9	0	0	0	0	492	408	
10	0	0	0	0	492	407	
11	0	0	0	0	492	408	
12	0	0	0	0	492	407	
13	0	0	0	0	494	407	
14	0	0	0	0	495	408	
15	0	0	0	0	496	407	
0	0	0	0	0	499	408	
1	0	0	0	0	502	408	
2	0	0	0	0	504	408	
3	0	0	0	0	507	408	
4	0	0	0	0	508	408	
5	0	0	0	0	510	408	
6	0	0	0	0	510	408	
7	0	0	0	0	510	408	
8	0	0	0	0	510	408	
9	0	0	0	0	509	407	
10	0	0	0	0	508	408	
11	0	0	0	0	505	408	
12	0	0	0	0	503	408	
13	0	0	0	0	502	408	
14	0	0	0	0	500	408	
15	0	0	0	0	500	408	
0	0	0	0	0	499	408	
1	0	0	0	0	500	409	
2	0	0	0	0	500	408	
3	0	0	0	0	501	409	
4	0	0	0	0	503	408	
5	0	0	0	0	505	408	
6	0	0	0	0	508	409	
7	0	0	0	0	510	408	
8	0	0	0	0	511	408	
9	0	0	0	0	512	409	
10	0	0	0	0	512	408	
11	0	0	0	0	511	408	
12	0	0	0	0	511	408	
13	0	0	0	0	509	408	
14	0	0	0	0	508	408	
15	0	0	0	0	505	409	
0	0	0	0	0	503	408	
1	0	0	0	0	501	408	
2	0	0	0	0	499	407	
3	0	0	0	0	499	408	
4	0	0	0	0	498	408	
5	0	0	0	0	498	408	
6	0	0	0	0	499	408	
7	0	0	0	0	500	407	
8	0	0	0	0	502	407	
9	0	0	0	0	504	407	
10	0	0	0	0	507	407	
11	0	0	0	0	510	407	
12	0	0	0	0	512	407	
13	0	0	0	0	514	407	
14	0	0	0	0	515	407	
15	0	0	0	0	515	407	
0	0	0	0	0	515	407	
1	0	0	0	0	514	406	
2	0	0	0	0	513	407	
3	0	0	0	0	511	407	
4	0	0	0	0	509	406	
5	0	0	0	0	508	406	
6	0	0	0	0	507	407	
7	0	0	0	0	506	407	
8	0	0	0	0	507	406	
9	0	0	0	0	508	406	
10	0	0	0	0	509	405	
11	0	0	0	0	510	406	
12	0	0	0	0	512	406	
13	0	0	0	0	515	406	
14	0	0	0	0	516	406	
15	0	0	0	0	518	406	
0	0	0	0	0	519	406	
1	0	0	0	0	520	406	
2	0	0	0	0	520	406	
3	0	0	0	0	519	408	
4	0	0	0	0	519	407	
5	0	0	0	0	518	407	
6	0	0	0	0	517	407	
7	0	0	0	0	515	408	
8	0	0	0	0	512	407	
9	0	0	0	0	511	407	
10	0	0	0	0	510	406	
11	0	0	0	0	510	408	
12	0	0	0	0	510	407	
13	0	0	0	0	511	407	
14	0	0	0	0	512	407	
15	0	0	0	0	512	407	
0	0	0	0	0	514	406	
1	0	0	0	0	516	407	
2	0	0	0	0	519	407	
3	0	0	0	0	521	408	
4	0	0	0	0	523	406	
5	0	0	0	0	524	407	
6	0	0	0	0	525	407	
7	0	0	0	0	526	408	
8	0	0	0	0	524	407	
9	0	0	0	0	524	407	
10	0	0	0	0	522	407	
11	0	0	0	0	520	408	
12	0	0	0	0	518	407	
13	0	0	0	0	516	408	
14	0	0	0	0	514	407	
15	0	0	0	0	513	408	
0	0	0	0	0	513	408	
1	0	0	0	0	513	408	
2	0	0	0	0	515	407	
3	0	0	0	0	516	408	
4	0	0	0	0	519	408	
5	0	0	0	0	520	409	
6	0	0	0	0	523	409	
7	0	0	0	0	525	409	
8	0	0	0	0	527	408	
9	0	0	0	0	527	409	
10	0	0	0	0	527	408	
11	0	0	0	0	526	409	
12	0	0	0	0	524	408	
13	0	0	0	0	523	409	
14	0	0	0	0	521	409	
15	0	0	0	0	518	409	
0	0	0	0	0	515	409	
1	0	0	0	0	512	409	
2	0	0	0	0	511	408	
3	0	0	0	0	510	409	
4	0	0	0	0	509	408	
5	0	0	0	0	510	409	
6	0	0	0	0	511	408	
7	0	0	0	0	511	409	
8	0	0	0	0	513	409	
9	0	0	0	0	515	409	
10	0	0	0	0	517	409	
11	0	0	0	0	519	409	
12	0	0	0	0	519	409	
13	0	0	0	0	520	409	
14	0	0	0	0	519	409	
15	0	0	0	0	518	410	
0	0	0	0	0	516	409	
1	0	0	0	0	514	409	
2	0	0	0	0	512	409	
3	0	0	0	0	509	410	
4	0	0	0	0	505	410	
5	0	0	0	0	503	410	
6	0	0	0	0	501	410	
7	0	0	0	0	499	410	
8	0	0	0	0	499	410	
9	0	0	0	0	499	410	
10	0	0	0	0	499	410	
11	0	0	0	0	500	410	
12	0	0	0	0	502	410	
13	0	0	0	0	504	410	
14	0	0	0	0	507	411	
15	0	0	0	0	509	410	
0	0	0	0	0	510	410	
1	0	0	0	0	511	410	
2	0	0	0	0	510	409	
3	0	0	0	0	510	410	
4	0	0	0	0	509	409	
5	0	0	0	0	507	409	
6	0	0	0	0	505	409	
7	0	0	0	0	503	409	
8	0	0	0	0	501	410	
9	0	0	0	0	500	409	
10	0	0	0	0	499	409	
11	0	0	0	0	499	410	
12	0	0	0	0	499	409	
13	0	0	0	0	499	409	
14	0	0	0	0	499	410	
15	0	0	0	0	500	410	
0	0	0	0	0	503	410	
1	0	0	0	0	505	409	
2	0	0	0	0	509	409	
3	0	0	0	0	512	410	
4	0	0	0	0	512	409	
5	0	0	0	0	513	410	
6	0	0	0	0	512	409	
7	0	0	0	0	512	410	
8	0	0	0	0	511	408	
9	0	0	0	0	509	410	
10	0	0	0	0	508	410	
11	0	0	0	0	504	410	
12	0	0	0	0	502	410	
13	0	0	0	0	499	409	
14	0	0	0	0	497	409	
15	0	0	0	0	497	409	
0	0	0	0	0	497	409	
1	0	0	0	0	497	409	
2	0	0	0	0	499	409	
3	0	0	0	0	499	409	
4	0	0	0	0	502	408	
5	0	0	0	0	504	408	
6	0	0	0	0	507	408	
7	0	0	0	0	509	408	
8	0	0	0	0	511	408	
9	0	0	0	0	511	408	
10	0	0	0	0	510	407	
11	0	0	0	0	509	408	
12	0	0	0	0	508	407	
13	0	0	0	0	506	407	
14	0	0	0	0	504	407	
15	0	0	0	0	502	407	
0	0	0	0	0	499	407	
1	0	0	0	0	497	408	
2	0	0	0	0	496	407	
3	0	0	0	0	495	408	
4	0	0	0	0	495	407	
5	0	0	0	0	495	407	
6	0	0	0	0	496	407	
7	0	0	0	0	497	407	
8	0	0	0	0	499	407	
9	0	0	0	0	501	407	
10	0	0	0	0	503	406	
11	0	0	0	0	504	407	
12	0	0	0	0	505	407	
13	0	0	0	0	506	407	
14	0	0	0	0	506	406	
15	0	0	0	0	505	407	
0	0	0	0	0	504	406	
1	0	0	0	0	503	407	
2	0	0	0	0	502	407	
3	0	0	0	0	499	407	
4	0	0	0	0	497	406	
5	0	0	0	0	495	406	
6	0	0	0	0	494	406	
7	0	0	0	0	494	407	
8	0	0	0	0	494	406	
9	0	0	0	0	495	406	
10	0	0	0	0	496	406	
11	0	0	0	0	497	406	
12	0	0	0	0	499	406	
13	0	0	0	0	501	406	
14	0	0	0	0	504	405	
15	0	0	0	0	505	406	
0	0	0	0	0	506	405	
1	0	0	0	0	507	405	
2	0	0	0	0	507	406	
3	0	0	0	0	505	407	
4	0	0	0	0	504	406	
5	0	0	0	0	503	405	
6	0	0	0	0	501	406	
7	0	0	0	0	498	406	
8	0	0	0	0	495	405	
9	0	0	0	0	492	406	
10	0	0	0	0	491	405	
11	0	0	0	0	490	407	
12	0	0	0	0	490	406	
13	0	0	0	0	489	406	
14	0	0	0	0	490	406	
15	0	0	0	0	492	407	
0	0	0	0	0	493	406	
1	0	0	0	0	495	407	
2	0	0	0	0	497	407	
3	0	0	0	0	500	408	
4	0	0	0	0	501	406	
5	0	0	0	0	503	407	
6	0	0	0	0	503	407	
7	0	0	0	0	502	408	
8	0	0	0	0	501	407	
9	0	0	0	0	500	408	
10	0	0	0	0	497	407	
11	0	0	0	0	495	409	
12	0	0	0	0	492	408	
13	0	0	0	0	491	408	
14	0	0	0	0	489	407	
15	0	0	0	0	489	408	
0	0	0	0	0	488	408	
1	0	0	0	0	488	407	
2	0	0	0	0	489	408	
3	0	0	0	0	489	409	
4	0	0	0	0	491	408	
5	0	0	0	0	493	409	
6	0	0	0	0	496	408	
7	0	0	0	0	497	409	
8	0	0	0	0	499	408	
9	0	0	0	0	499	409	
10	0	0	0	0	499	408	
11	0	0	0	0	498	409	
12	0	0	0	0	497	409	
13	0	0	0	0	497	409	
14	0	0	0	0	496	409	
15	0	0	0	0	495	409	
0	0	0	0	0	493	409	
1	0	0	0	0	491	409	
2	0	0	0	0	489	409	
3	0	0	0	0	488	410	
4	0	0	0	0	488	409	
5	0	0	0	0	488	409	
6	0	0	0	0	489	409	
7	0	0	0	0	490	409	
8	0	0	0	0	492	409	
9	0	0	0	0	495	409	
10	0	0	0	0	497	409	
11	0	0	0	0	500	410	
12	0	0	0	0	502	409	
13	0	0	0	0	504	409	
14	0	0	0	0	504	409	
15	0	0	0	0	504	410	
0	0	0	0	0	504	409	
1	0	0	0	0	504	409	
2	0	0	0	0	502	409	
3	0	0	0	0	500	411	
4	0	0	0	0	498	410	
5	0	0	0	0	497	410	
6	0	0	0	0	496	410	
7	0	0	0	0	496	410	
8	0	0	0	0	496	410	
9	0	0	0	0	497	410	
10	0	0	0	0	499	409	
11	0	0	0	0	501	409	
12	0	0	0	0	504	409	
13	0	0	0	0	507	409	
14	0	0	0	0	510	409	
15	0	0	0	0	512	409	
0	0	0	0	0	513	409	
1	0	0	0	0	514	410	
2	0	0	0	0	513	409	
3	0	0	0	0	512	409	
4	0	0	0	0	511	409	
5	0	0	0	0	510	408	
6	0	0	0	0	508	408	
7	0	0	0	0	506	409	
8	0	0	0	0	505	408	
9	0	0	0	0	504	409	
10	0	0	0	0	504	408	
11	0	0	0	0	504	408	
12	0	0	0	0	504	408	
13	0	0	0	0	506	409	
14	0	0	0	0	507	408	
15	0	0	0	0	508	409	
0	0	0	0	0	511	409	
1	0	0	0	0	513	408	
2	0	0	0	0	516	408	
3	0	0	0	0	519	408	
4	0	0	0	0	520	408	
5	0	0	0	0	520	408	
6	0	0	0	0	520	408	
7	0	0	0	0	519	408	
8	0	0	0	0	518	407	
9	0	0	0	0	516	407	
10	0	0	0	0	515	407	
11	0	0	0	0	513	408	
12	0	0	0	0	511	407	
13	0	0	0	0	509	407	
14	0	0	0	0	507	408	
15	0	0	0	0	506	408	
0	0	0	0	0	506	408	
1	0	0	0	0	507	408	
2	0	0	0	0	508	407	
3	0	0	0	0	509	408	
4	0	0	0	0	510	407	
5	0	0	0	0	513	407	
6	0	0	0	0	516	407	
7	0	0	0	0	518	408	
8	0	0	0	0	519	407	
9	0	0	0	0	519	407	
10	0	0	0	0	519	406	
11	0	0	0	0	519	406	
12	0	0	0	0	518	407	
13	0	0	0	0	516	406	
14	0	0	0	0	515	407	
15	0	0	0	0	513	407	
0	0	0	0	0	511	407	
1	0	0	0	0	508	406	
2	0	0	0	0	506	406	
3	0	0	0	0	505	406	
4	0	0	0	0	504	406	
5	0	0	0	0	505	406	
6	0	0	0	0	505	406	
7	0	0	0	0	506	406	
8	0	0	0	0	508	404	
9	0	0	0	0	510	405	
10	0	0	0	0	512	405	
11	0	0	0	0	515	405	
12	0	0	0	0	516	404	
13	0	0	0	0	517	405	
14	0	0	0	0	517	405	
15	0	0	0	0	517	406	
0	0	0	0	0	516	405	
1	0	0	0	0	515	404	
2	0	0	0	0	513	404	
3	0	0	0	0	511	406	
4	0	0	0	0	508	405	
5	0	0	0	0	508	404	
6	0	0	0	0	506	405	
7	0	0	0	0	505	406	
8	0	0	0	0	505	405	
9	0	0	0	0	505	405	
10	0	0	0	0	505	406	
11	0	0	0	0	505	407	
12	0	0	0	0	507	406	
13	0	0	0	0	510	407	
14	0	0	0	0	512	407	
15	0	0	0	0	514	407	
0	0	0	0	0	515	407	
1	0	0	0	0	515	407	
2	0	0	0	0	515	408	
3	0	0	0	0	515	408	
4	0	0	0	0	514	408	
5	0	0	0	0	513	408	
6	0	0	0	0	512	409	
7	0	0	0	0	509	409	
8	0	0	0	0	505	409	
9	0	0	0	0	503	408	
10	0	0	0	0	500	409	
11	0	0	0	0	499	409	
12	0	0	0	0	499	409	
13	0	0	0	0	499	408	
14	0	0	0	0	500	408	
15	0	0	0	0	500	409	
0	0	0	0	0	502	409	
1	0	0	0	0	504	409	
2	0	0	0	0	507	408	
3	0	0	0	0	508	409	
4	0	0	0	0	509	408	
5	0	0	0	0	510	409	
6	0	0	0	0	511	409	
7	0	0	0	0	511	409	
8	0	0	0	0	511	409	
9	0	0	0	0	510	408	
10	0	0	0	0	510	408	
11	0	0	0	0	508	409	
12	0	0	0	0	506	408	
13	0	0	0	0	505	408	
14	0	0	0	0	504	409	
15	0	0	0	0	504	409	
0	0	0	0	0	505	409	
1	0	0	0	0	507	409	
2	0	0	0	0	509	409	
3	0	0	0	0	511	409	
4	0	0	0	0	514	409	
5	0	0	0	0	517	409	
6	0	0	0	0	521	408	
7	0	0	0	0	524	409	
8	0	0	0	0	524	409	
9	0	0	0	0	525	409	
10	0	0	0	0	524	409	
11	0	0	0	0	523	410	
12	0	0	0	0	522	409	
13	0	0	0	0	521	409	
14	0	0	0	0	520	410	
15	0	0	0	0	517	410	
0	0	0	0	0	515	410	
1	0	0	0	0	513	410	
2	0	0	0	0	512	410	
3	0	0	0	0	511	411	
4	0	0	0	0	511	410	
5	0	0	0	0	511	410	
6	0	0	0	0	512	409	
7	0	0	0	0	515	409	
8	0	0	0	0	518	409	
9	0	0	0	0	521	410	
10	0	0	0	0	524	410	
11	0	0	0	0	527	410	
12	0	0	0	0	528	410	
13	0	0	0	0	529	410	
14	0	0	0	0	528	409	
15	0	0	0	0	527	409	
0	0	0	0	0	525	409	
1	0	0	0	0	523	409	
2	0	0	0	0	521	409	
3	0	0	0	0	518	409	
4	0	0	0	0	515	408	
5	0	0	0	0	514	409	
6	0	0	0	0	512	409	
7	0	0	0	0	512	409	
8	0	0	0	0	512	409	
9	0	0	0	0	512	409	
10	0	0	0	0	513	408	
11	0	0	0	0	513	409	
12	0	0	0	0	516	409	
13	0	0	0	0	519	408	
14	0	0	0	0	521	408	
15	0	0	0	0	524	409	
0	0	0	0	0	524	408	
1	0	0	0	0	525	408	
2	0	0	0	0	525	408	
3	0	0	0	0	524	409	
4	0	0	0	0	523	408	
5	0	0	0	0	521	407	
6	0	0	0	0	519	408	
7	0	0	0	0	516	408	
8	0	0	0	0	514	407	
9	0	0	0	0	512	408	
10	0	0	0	0	510	408	
11	0	0	0	0	509	409	
12	0	0	0	0	508	408	
13	0	0	0	0	510	408	
14	0	0	0	0	511	407	
15	0	0	0	0	512	408	
0	0	0	0	0	514	407	
1	0	0	0	0	516	407	
2	0	0	0	0	518	407	
3	0	0	0	0	520	408	
4	0	0	0	0	522	408	
5	0	0	0	0	523	408	
6	0	0	0	0	523	407	
7	0	0	0	0	521	408	
8	0	0	0	0	520	407	
9	0	0	0	0	518	406	
10	0	0	0	0	516	407	
11	0	0	0	0	514	407	
12	0	0	0	0	512	407	
13	0	0	0	0	511	407	
14	0	0	0	0	509	407	
15	0	0	0	0	509	407	
0	0	0	0	0	508	407	
1	0	0	0	0	508	407	
2	0	0	0	0	510	407	
3	0	0	0	0	511	407	
4	0	0	0	0	514	407	
5	0	0	0	0	516	407	
6	0	0	0	0	518	406	
7	0	0	0	0	519	407	
8	0	0	0	0	521	407	
9	0	0	0	0	522	407	
10	0	0	0	0	521	406	
11	0	0	0	0	521	408	
12	0	0	0	0	520	406	
13	0	0	0	0	519	407	
14	0	0	0	0	518	406	
15	0	0	0	0	516	407	
0	0	0	0	0	515	407	
1	0	0	0	0	513	406	
2	0	0	0	0	512	407	
3	0	0	0	0	512	408	
4	0	0	0	0	512	407	
5	0	0	0	0	513	407	
6	0	0	0	0	514	407	
7	0	0	0	0	515	407	
8	0	0	0	0	517	406	
9	0	0	0	0	519	406	
10	0	0	0	0	521	407	
11	0	0	0	0	523	408	
12	0	0	0	0	523	407	
13	0	0	0	0	523	408	
14	0	0	0	0	522	407	
15	0	0	0	0	521	408	
0	0	0	0	0	519	407	
1	0	0	0	0	517	407	
2	0	0	0	0	515	407	
3	0	0	0	0	512	408	
4	0	0	0	0	509	408	
5	0	0	0	0	508	407	
6	0	0	0	0	506	407	
7	0	0	0	0	504	408	
8	0	0	0	0	503	408	
9	0	0	0	0	502	407	
10	0	0	0	0	502	407	
11	0	0	0	0	500	408	
12	0	0	0	0	500	408	
13	0	0	0	0	499	408	
14	0	0	0	0	497	408	
15	0	0	0	0	494	408	
0	0	0	0	0	490	407	
1	0	0	0	0	486	408	
2	0	0	0	0	481	408	
3	0	0	0	0	477	408	
4	0	0	0	0	476	408	
5	0	0	0	0	475	408	
6	0	0	0	0	474	408	
7	0	0	0	0	474	409	
8	0	0	0	0	474	408	
9	0	0	0	0	476	408	
10	0	0	0	0	479	408	
11	0	0	0	0	482	409	
12	0	0	0	0	486	408	
13	0	0	0	0	491	408	
14	0	0	0	0	499	408	
15	0	0	0	0	509	409	
0	0	0	0	0	519	408	
1	0	0	0	0	528	408	
2	0	0	0	0	537	408	
3	0	0	0	0	544	410	
4	0	0	0	0	549	409	
5	0	0	0	0	554	409	
6	0	0	0	0	558	409	
7	0	0	0	0	564	409	
8	0	0	0	0	570	409	
9	0	0	0	0	577	409	
10	0	0	0	0	582	408	
11	0	0	0	0	586	409	
12	0	0	0	0	590	409	
13	0	0	0	0	595	408	
14	0	0	0	0	599	408	
15	0	0	0	0	600	409	
0	0	0	0	0	603	409	
1	0	0	0	0	608	409	
2	0	0	0	0	615	408	
3	0	0	0	0	626	409	
4	0	0	0	0	635	409	
5	0	0	0	0	641	408	
6	0	0	0	0	642	408	
7	0	0	0	0	640	408	
8	0	0	0	0	632	408	
9	0	0	0	0	623	408	
10	0	0	0	0	613	408	
11	0	0	0	0	603	409	
12	0	0	0	0	591	408	
13	0	0	0	0	582	407	
14	0	0	0	0	571	408	
15	0	0	0	0	561	408	
0	0	0	0	0	551	407	
1	0	0	0	0	543	407	
2	0	0	0	0	535	408	
3	0	0	0	0	529	408	
4	0	0	0	0	523	407	
5	0	0	0	0	518	408	
6	0	0	0	0	512	408	
7	0	0	0	0	507	408	
8	0	0	0	0	504	407	
9	0	0	0	0	502	407	
10	0	0	0	0	500	407	
11	0	0	0	0	498	408	
12	0	0	0	0	496	407	
13	0	0	0	0	495	408	
14	0	0	0	0	492	407	
15	0	0	0	0	490	408	
0	0	0	0	0	488	407	
1	0	0	0	0	487	407	
2	0	0	0	0	486	408	
3	0	0	0	0	483	408	
4	0	0	0	0	481	408	
5	0	0	0	0	480	408	
6	0	0	0	0	479	407	
7	0	0	0	0	479	408	
8	0	0	0	0	479	408	
9	0	0	0	0	480	408	
10	0	0	0	0	480	408	
11	0	0	0	0	481	408	
12	0	0	0	0	483	408	
13	0	0	0	0	487	408	
14	0	0	0	0	490	408	
15	0	0	0	0	492	407	
0	0	0	0	0	493	407	
1	0	0	0	0	495	407	
2	0	0	0	0	495	407	
3	0	0	0	0	494	408	
4	0	0	0	0	492	407	
5	0	0	0	0	490	407	
6	0	0	0	0	488	408	
7	0	0	0	0	485	408	
8	0	0	0	0	482	407	
9	0	0	0	0	480	407	
10	0	0	0	0	478	407	
11	0	0	0	0	478	407	
12	0	0	0	0	478	407	
13	0	0	0	0	479	407	
14	0	0	0	0	480	407	
15	0	0	0	0	481	408	
0	0	0	0	0	483	407	
1	0	0	0	0	486	407	
2	0	0	0	0	488	408	
3	0	0	0	0	491	408	
4	0	0	0	0	492	407	
5	0	0	0	0	493	407	
6	0	0	0	0	494	408	
7	0	0	0	0	494	408	
8	0	0	0	0	495	408	
9	0	0	0	0	493	408	
10	0	0	0	0	492	408	
11	0	0	0	0	489	409	
12	0	0	0	0	487	409	
13	0	0	0	0	486	408	
14	0	0	0	0	483	408	
15	0	0	0	0	483	409	
0	0	0	0	0	482	408	
1	0	0	0	0	483	408	
2	0	0	0	0	484	408	
3	0	0	0	0	485	408	
4	0	0	0	0	488	408	
5	0	0	0	0	491	408	
6	0	0	0	0	494	409	
7	0	0	0	0	496	409	
8	0	0	0	0	497	409	
9	0	0	0	0	497	408	
10	0	0	0	0	497	408	
11	0	0	0	0	497	409	
12	0	0	0	0	498	408	
13	0	0	0	0	497	408	
14	0	0	0	0	496	408	
15	0	0	0	0	494	408	
0	0	0	0	0	491	408	
1	0	0	0	0	490	408	
2	0	0	0	0	489	408	
3	0	0	0	0	489	408	
4	0	0	0	0	490	408	
5	0	0	0	0	491	408	
6	0	0	0	0	492	408	
7	0	0	0	0	494	409	
8	0	0	0	0	496	408	
9	0	0	0	0	499	408	
10	0	0	0	0	501	408	
11	0	0	0	0	503	409	
12	0	0	0	0	504	408	
13	0	0	0	0	505	409	
14	0	0	0	0	506	409	
15	0	0	0	0	506	409	
0	0	0	0	0	506	409	
1	0	0	0	0	505	408	
2	0	0	0	0	503	408	
3	0	0	0	0	501	409	
4	0	0	0	0	499	408	
5	0	0	0	0	498	408	
6	0	0	0	0	497	408	
7	0	0	0	0	496	408	
8	0	0	0	0	497	407	
9	0	0	0	0	498	408	
10	0	0	0	0	499	408	
11	0	0	0	0	500	408	
12	0	0	0	0	502	407	
13	0	0	0	0	504	408	
14	0	0	0	0	505	407	
15	0	0	0	0	507	408	
0	0	0	0	0	508	408	
1	0	0	0	0	510	407	
2	0	0	0	0	510	408	
3	0	0	0	0	510	408	
4	0	0	0	0	509	407	
5	0	0	0	0	507	408	
6	0	0	0	0	505	408	
7	0	0	0	0	502	408	
8	0	0	0	0	499	408	
9	0	0	0	0	497	407	
10	0	0	0	0	496	407	
11	0	0	0	0	495	408	
12	0	0	0	0	496	407	
13	0	0	0	0	497	408	
14	0	0	0	0	499	408	
15	0	0	0	0	500	408	
0	0	0	0	0	503	408	
1	0	0	0	0	506	408	
2	0	0	0	0	510	408	
3	0	0	0	0	511	409	
4	0	0	0	0	513	408	
5	0	0	0	0	513	409	
6	0	0	0	0	513	409	
7	0	0	0	0	512	409	
8	0	0	0	0	511	409	
9	0	0	0	0	510	408	
10	0	0	0	0	508	408	
11	0	0	0	0	505	409	
12	0	0	0	0	502	408	
13	0	0	0	0	500	408	
14	0	0	0	0	499	408	
15	0	0	0	0	498	408	
0	0	0	0	0	498	408	
1	0	0	0	0	499	408	
2	0	0	0	0	501	407	
3	0	0	0	0	503	408	
4	0	0	0	0	505	408	
5	0	0	0	0	509	408	
6	0	0	0	0	511	408	
7	0	0	0	0	513	408	
8	0	0	0	0	515	407	
9	0	0	0	0	515	408	
10	0	0	0	0	515	408	
11	0	0	0	0	515	408	
12	0	0	0	0	515	407	
13	0	0	0	0	514	408	
14	0	0	0	0	512	408	
15	0	0	0	0	509	408	
0	0	0	0	0	507	408	
1	0	0	0	0	504	408	
2	0	0	0	0	503	408	
3	0	0	0	0	502	408	
4	0	0	0	0	503	408	
5	0	0	0	0	503	408	
6	0	0	0	0	504	407	
7	0	0	0	0	506	407	
8	0	0	0	0	509	407	
9	0	0	0	0	512	406	
10	0	0	0	0	515	406	
11	0	0	0	0	518	407	
12	0	0	0	0	519	406	
13	0	0	0	0	519	406	
14	0	0	0	0	519	407	
15	0	0	0	0	519	407	
0	0	0	0	0	519	406	
1	0	0	0	0	518	406	
2	0	0	0	0	516	406	
3	0	0	0	0	513	407	
4	0	0	0	0	510	406	
5	0	0	0	0	508	406	
6	0	0	0	0	507	406	
7	0	0	0	0	506	407	
8	0	0	0	0	506	406	
9	0	0	0	0	507	407	
10	0	0	0	0	508	406	
11	0	0	0	0	509	407	
12	0	0	0	0	512	406	
13	0	0	0	0	515	407	
14	0	0	0	0	518	407	
15	0	0	0	0	520	408	
0	0	0	0	0	522	407	
1	0	0	0	0	523	407	
2	0	0	0	0	523	406	
3	0	0	0	0	523	407	
4	0	0	0	0	523	407	
5	0	0	0	0	523	406	
6	0	0	0	0	521	407	
7	0	0	0	0	519	407	
8	0	0	0	0	516	407	
9	0	0	0	0	514	407	
10	0	0	0	0	512	407	
11	0	0	0	0	512	408	
12	0	0	0	0	512	407	
13	0	0	0	0	513	407	
14	0	0	0	0	514	407	
15	0	0	0	0	515	407	
0	0	0	0	0	516	407	
1	0	0	0	0	519	407	
2	0	0	0	0	521	407	
3	0	0	0	0	524	408	
4	0	0	0	0	525	407	
5	0	0	0	0	525	407	
6	0	0	0	0	524	407	
7	0	0	0	0	523	408	
8	0	0	0	0	521	408	
9	0	0	0	0	520	407	
10	0	0	0	0	518	408	
11	0	0	0	0	516	409	
12	0	0	0	0	514	408	
13	0	0	0	0	512	408	
14	0	0	0	0	512	408	
15	0	0	0	0	512	409	
0	0	0	0	0	513	408	
1	0	0	0	0	514	408	
2	0	0	0	0	515	408	
3	0	0	0	0	516	409	
4	0	0	0	0	519	408	
5	0	0	0	0	522	408	
6	0	0	0	0	524	408	
7	0	0	0	0	524	408	
8	0	0	0	0	524	408	
9	0	0	0	0	524	408	
10	0	0	0	0	523	408	
11	0	0	0	0	523	409	
12	0	0	0	0	521	408	
13	0	0	0	0	519	408	
14	0	0	0	0	516	408	
15	0	0	0	0	513	408	
0	0	0	0	0	511	408	
1	0	0	0	0	508	408	
2	0	0	0	0	507	408	
3	0	0	0	0	507	409	
4	0	0	0	0	507	409	
5	0	0	0	0	507	409	
6	0	0	0	0	508	409	
7	0	0	0	0	508	409	
8	0	0	0	0	510	409	
9	0	0	0	0	512	410	
10	0	0	0	0	515	409	
11	0	0	0	0	517	410	
12	0	0	0	0	518	409	
13	0	0	0	0	519	410	
14	0	0	0	0	518	409	
15	0	0	0	0	517	410	
0	0	0	0	0	515	410	
1	0	0	0	0	513	410	
2	0	0	0	0	511	410	
3	0	0	0	0	508	411	
4	0	0	0	0	505	410	
5	0	0	0	0	503	410	
6	0	0	0	0	501	410	
7	0	0	0	0	501	411	
8	0	0	0	0	502	410	
9	0	0	0	0	502	410	
10	0	0	0	0	503	410	
11	0	0	0	0	504	410	
12	0	0	0	0	506	410	
13	0	0	0	0	509	410	
14	0	0	0	0	511	410	
15	0	0	0	0	512	410	
0	0	0	0	0	514	409	
1	0	0	0	0	515	410	
2	0	0	0	0	514	410	
3	0	0	0	0	514	410	
4	0	0	0	0	513	409	
5	0	0	0	0	512	409	
6	0	0	0	0	512	409	
7	0	0	0	0	509	409	
8	0	0	0	0	507	409	
9	0	0	0	0	505	408	
10	0	0	0	0	504	409	
11	0	0	0	0	504	410	
12	0	0	0	0	504	409	
13	0	0	0	0	504	409	
14	0	0	0	0	505	408	
15	0	0	0	0	506	409	
0	0	0	0	0	508	409	
1	0	0	0	0	510	409	
2	0	0	0	0	512	409	
3	0	0	0	0	513	410	
4	0	0	0	0	513	409	
5	0	0	0	0	513	408	
6	0	0	0	0	513	409	
7	0	0	0	0	512	409	
8	0	0	0	0	511	409	
9	0	0	0	0	510	408	
10	0	0	0	0	508	408	
11	0	0	0	0	505	409	
12	0	0	0	0	504	408	
13	0	0	0	0	503	408	
14	0	0	0	0	503	408	
15	0	0	0	0	503	408	
0	0	0	0	0	504	408	
1	0	0	0	0	504	408	
2	0	0	0	0	505	407	
3	0	0	0	0	506	408	
4	0	0	0	0	508	407	
5	0	0	0	0	510	407	
6	0	0	0	0	512	407	
7	0	0	0	0	513	408	
8	0	0	0	0	514	408	
9	0	0	0	0	514	408	
10	0	0	0	0	514	407	
11	0	0	0	0	514	408	
12	0	0	0	0	513	407	
13	0	0	0	0	512	407	
14	0	0	0	0	511	407	
15	0	0	0	0	508	407	
0	0	0	0	0	506	407	
1	0	0	0	0	505	407	
2	0	0	0	0	504	407	
3	0	0	0	0	505	408	
4	0	0	0	0	504	407	
5	0	0	0	0	505	407	
6	0	0	0	0	505	408	
7	0	0	0	0	506	407	
8	0	0	0	0	508	408	
9	0	0	0	0	510	407	
10	0	0	0	0	513	406	
11	0	0	0	0	516	407	
12	0	0	0	0	519	407	
13	0	0	0	0	519	407	
14	0	0	0	0	519	406	
15	0	0	0	0	519	408	
0	0	0	0	0	518	406	
1	0	0	0	0	516	406	
2	0	0	0	0	513	406	
3	0	0	0	0	511	407	
4	0	0	0	0	508	406	
5	0	0	0	0	507	406	
6	0	0	0	0	506	406	
7	0	0	0	0	506	406	
8	0	0	0	0	505	406	
9	0	0	0	0	506	406	
10	0	0	0	0	507	406	
11	0	0	0	0	509	407	
12	0	0	0	0	511	406	
13	0	0	0	0	515	406	
14	0	0	0	0	519	407	
15	0	0	0	0	521	407	
0	0	0	0	0	522	406	
1	0	0	0	0	523	407	
2	0	0	0	0	523	406	
3	0	0	0	0	523	407	
4	0	0	0	0	522	406	
5	0	0	0	0	520	406	
6	0	0	0	0	518	406	
7	0	0	0	0	514	406	
8	0	0	0	0	512	405	
9	0	0	0	0	511	406	
10	0	0	0	0	509	405	
11	0	0	0	0	508	407	
12	0	0	0	0	508	406	
13	0	0	0	0	509	406	
14	0	0	0	0	510	406	
15	0	0	0	0	512	407	
0	0	0	0	0	514	406	
1	0	0	0	0	518	406	
2	0	0	0	0	521	406	
3	0	0	0	0	523	407	
4	0	0	0	0	524	407	
5	0	0	0	0	525	408	
6	0	0	0	0	524	407	
7	0	0	0	0	523	407	
8	0	0	0	0	521	407	
9	0	0	0	0	520	407	
10	0	0	0	0	518	407	
11	0	0	0	0	516	408	
12	0	0	0	0	513	408	
13	0	0	0	0	512	408	
14	0	0	0	0	510	409	
15	0	0	0	0	509	409	
0	0	0	0	0	509	409	
1	0	0	0	0	510	409	
2	0	0	0	0	511	409	
3	0	0	0	0	512	409	
4	0	0	0	0	513	408	
5	0	0	0	0	514	408	
6	0	0	0	0	517	408	
7	0	0	0	0	518	409	
8	0	0	0	0	519	409	
9	0	0	0	0	519	409	
10	0	0	0	0	518	409	
11	0	0	0	0	516	410	
12	0	0	0	0	515	409	
13	0	0	0	0	514	408	
14	0	0	0	0	512	409	
15	0	0	0	0	511	409	
0	0	0	0	0	510	408	
1	0	0	0	0	509	408	
2	0	0	0	0	508	408	
3	0	0	0	0	508	409	
4	0	0	0	0	509	408	
5	0	0	0	0	510	409	
6	0	0	0	0	511	408	
7	0	0	0	0	512	408	
8	0	0	0	0	515	408	
9	0	0	0	0	518	408	
10	0	0	0	0	520	408	
11	0	0	0	0	521	408	
12	0	0	0	0	521	409	
13	0	0	0	0	521	409	
14	0	0	0	0	520	409	
15	0	0	0	0	519	409	
0	0	0	0	0	519	409	
1	0	0	0	0	517	409	
2	0	0	0	0	515	409	
3	0	0	0	0	512	409	
4	0	0	0	0	509	408	
5	0	0	0	0	507	409	
6	0	0	0	0	506	409	
7	0	0	0	0	506	410	
8	0	0	0	0	507	409	
9	0	0	0	0	508	409	
10	0	0	0	0	509	408	
11	0	0	0	0	511	409	
12	0	0	0	0	513	408	
13	0	0	0	0	516	408	
14	0	0	0	0	519	409	
15	0	0	0	0	521	408	
0	0	0	0	0	522	408	
1	0	0	0	0	522	408	
2	0	0	0	0	522	408	
3	0	0	0	0	522	409	
4	0	0	0	0	521	408	
5	0	0	0	0	519	408	
6	0	0	0	0	517	408	
7	0	0	0	0	513	408	
8	0	0	0	0	510	408	
9	0	0	0	0	508	408	
10	0	0	0	0	506	408	
11	0	0	0	0	505	408	
12	0	0	0	0	504	408	
13	0	0	0	0	505	407	
14	0	0	0	0	507	408	
15	0	0	0	0	508	407	
0	0	0	0	0	510	407	
1	0	0	0	0	512	406	
2	0	0	0	0	513	407	
3	0	0	0	0	514	408	
4	0	0	0	0	514	407	
5	0	0	0	0	514	407	
6	0	0	0	0	513	407	
7	0	0	0	0	512	407	
8	0	0	0	0	511	407	
9	0	0	0	0	510	407	
10	0	0	0	0	509	407	
11	0	0	0	0	506	408	
12	0	0	0	0	504	407	
13	0	0	0	0	501	407	
14	0	0	0	0	500	407	
15	0	0	0	0	500	408	
0	0	0	0	0	501	408	
1	0	0	0	0	502	407	
2	0	0	0	0	502	408	
3	0	0	0	0	502	408	
4	0	0	0	0	504	408	
5	0	0	0	0	507	407	
6	0	0	0	0	509	408	
7	0	0	0	0	512	407	
8	0	0	0	0	514	407	
9	0	0	0	0	516	408	
10	0	0	0	0	516	408	
11	0	0	0	0	516	408	
12	0	0	0	0	515	408	
13	0	0	0	0	514	407	
14	0	0	0	0	513	408	
15	0	0	0	0	510	408	
0	0	0	0	0	508	407	
1	0	0	0	0	505	407	
2	0	0	0	0	504	407	
3	0	0	0	0	504	408	
4	0	0	0	0	504	407	
5	0	0	0	0	505	408	
6	0	0	0	0	507	407	
7	0	0	0	0	508	408	
8	0	0	0	0	510	408	
9	0	0	0	0	512	408	
10	0	0	0	0	514	407	
11	0	0	0	0	515	408	
12	0	0	0	0	515	407	
13	0	0	0	0	515	408	
14	0	0	0	0	514	407	
15	0	0	0	0	512	408	
0	0	0	0	0	511	407	
1	0	0	0	0	510	408	
2	0	0	0	0	507	408	
3	0	0	0	0	504	408	
4	0	0	0	0	502	408	
5	0	0	0	0	500	407	
6	0	0	0	0	498	408	
7	0	0	0	0	497	408	
8	0	0	0	0	497	408	
9	0	0	0	0	498	408	
10	0	0	0	0	499	407	
11	0	0	0	0	500	408	
12	0	0	0	0	503	408	
13	0	0	0	0	505	408	
14	0	0	0	0	508	408	
15	0	0	0	0	509	408	
0	0	0	0	0	510	408	
1	0	0	0	0	510	408	
2	0	0	0	0	510	408	
3	0	0	0	0	509	409	
4	0	0	0	0	508	408	
5	0	0	0	0	506	408	
6	0	0	0	0	504	408	
7	0	0	0	0	502	409	
8	0	0	0	0	499	408	
9	0	0	0	0	498	408	
10	0	0	0	0	496	408	
11	0	0	0	0	495	409	
12	0	0	0	0	495	408	
13	0	0	0	0	496	409	
14	0	0	0	0	496	409	
15	0	0	0	0	497	410	
0	0	0	0	0	500	409	
1	0	0	0	0	503	409	
2	0	0	0	0	505	408	
3	0	0	0	0	506	410	
4	0	0	0	0	507	409	
5	0	0	0	0	508	408	
6	0	0	0	0	508	409	
7	0	0	0	0	508	409	
8	0	0	0	0	507	408	
9	0	0	0	0	505	408	
10	0	0	0	0	503	409	
11	0	0	0	0	500	409	
12	0	0	0	0	498	408	
13	0	0	0	0	496	408	
14	0	0	0	0	495	408	
15	0	0	0	0	495	408	
0	0	0	0	0	495	408	
1	0	0	0	0	496	408	
2	0	0	0	0	496	408	
3	0	0	0	0	498	409	
4	0	0	0	0	500	408	
5	0	0	0	0	504	408	
6	0	0	0	0	507	408	
7	0	0	0	0	508	409	
8	0	0	0	0	511	408	
9	0	0	0	0	512	408	
10	0	0	0	0	512	408	
11	0	0	0	0	512	409	
12	0	0	0	0	512	408	
13	0	0	0	0	510	408	
14	0	0	0	0	508	409	
15	0	0	0	0	505	409	
0	0	0	0	0	503	408	
1	0	0	0	0	501	408	
2	0	0	0	0	500	408	
3	0	0	0	0	500	408	
4	0	0	0	0	500	408	
5	0	0	0	0	502	408	
6	0	0	0	0	503	408	
7	0	0	0	0	504	408	
8	0	0	0	0	506	408	
9	0	0	0	0	509	408	
10	0	0	0	0	511	407	
11	0	0	0	0	513	408	
12	0	0	0	0	514	407	
13	0	0	0	0	515	408	
14	0	0	0	0	514	408	
15	0	0	0	0	513	408	
0	0	0	0	0	512	408	
1	0	0	0	0	511	408	
2	0	0	0	0	508	408	
3	0	0	0	0	504	408	
4	0	0	0	0	502	407	
5	0	0	0	0	502	408	
6	0	0	0	0	501	408	
7	0	0	0	0	501	407	
8	0	0	0	0	503	408	
9	0	0	0	0	504	408	
10	0	0	0	0	507	408	
11	0	0	0	0	509	408	
12	0	0	0	0	512	408	
13	0	0	0	0	515	408	
14	0	0	0	0	518	407	
15	0	0	0	0	520	408	
0	0	0	0	0	521	407	
1	0	0	0	0	522	408	
2	0	0	0	0	523	407	
3	0	0	0	0	523	408	
4	0	0	0	0	522	407	
5	0	0	0	0	520	408	
6	0	0	0	0	518	408	
7	0	0	0	0	515	407	
8	0	0	0	0	513	407	
9	0	0	0	0	512	408	
10	0	0	0	0	511	407	
11	0	0	0	0	510	409	
12	0	0	0	0	510	407	
13	0	0	0	0	510	408	
14	0	0	0	0	511	408	
15	0	0	0	0	512	407	
0	0	0	0	0	514	408	
1	0	0	0	0	517	408	
2	0	0	0	0	519	407	
3	0	0	0	0	521	408	
4	0	0	0	0	521	408	
5	0	0	0	0	521	407	
6	0	0	0	0	520	407	
7	0	0	0	0	519	408	
8	0	0	0	0	518	407	
9	0	0	0	0	516	408	
10	0	0	0	0	513	408	
11	0	0	0	0	511	407	
12	0	0	0	0	508	407	
13	0	0	0	0	507	407	
14	0	0	0	0	506	407	
15	0	0	0	0	505	407	
0	0	0	0	0	504	407	
1	0	0	0	0	504	407	
2	0	0	0	0	506	407	
3	0	0	0	0	507	408	
4	0	0	0	0	509	408	
5	0	0	0	0	511	407	
6	0	0	0	0	512	408	
7	0	0	0	0	514	408	
8	0	0	0	0	515	408	
9	0	0	0	0	515	408	
10	0	0	0	0	514	408	
11	0	0	0	0	513	408	
12	0	0	0	0	512	408	
13	0	0	0	0	511	408	
14	0	0	0	0	508	408	
15	0	0	0	0	505	408	
0	0	0	0	0	503	408	
1	0	0	0	0	502	408	
2	0	0	0	0	501	408	
3	0	0	0	0	500	409	
4	0	0	0	0	500	408	
5	0	0	0	0	500	408	
6	0	0	0	0	500	408	
7	0	0	0	0	501	408	
8	0	0	0	0	504	408	
9	0	0	0	0	507	407	
10	0	0	0	0	510	407	
11	0	0	0	0	511	408	
12	0	0	0	0	512	407	
13	0	0	0	0	513	407	
14	0	0	0	0	513	408	
15	0	0	0	0	513	408	
0	0	0	0	0	513	408	
1	0	0	0	0	512	408	
2	0	0	0	0	511	408	
3	0	0	0	0	508	409	
4	0	0	0	0	504	408	
5	0	0	0	0	503	408	
6	0	0	0	0	501	408	
7	0	0	0	0	500	408	
8	0	0	0	0	498	408	
9	0	0	0	0	497	408	
10	0	0	0	0	495	408	
11	0	0	0	0	492	408	
12	0	0	0	0	491	408	
13	0	0	0	0	489	408	
14	0	0	0	0	487	408	
15	0	0	0	0	483	407	
0	0	0	0	0	480	408	
1	0	0	0	0	476	408	
2	0	0	0	0	473	408	
3	0	0	0	0	473	408	
4	0	0	0	0	473	408	
5	0	0	0	0	473	408	
6	0	0	0	0	473	408	
7	0	0	0	0	473	408	
8	0	0	0	0	475	408	
9	0	0	0	0	478	408	
10	0	0	0	0	481	408	
11	0	0	0	0	484	409	
12	0	0	0	0	488	409	
13	0	0	0	0	494	409	
14	0	0	0	0	503	408	
15	0	0	0	0	512	408	
0	0	0	0	0	522	408	
1	0	0	0	0	532	408	
2	0	0	0	0	542	408	
3	0	0	0	0	547	408	
4	0	0	0	0	553	408	
5	0	0	0	0	559	408	
6	0	0	0	0	565	408	
7	0	0	0	0	573	409	
8	0	0	0	0	581	409	
9	0	0	0	0	588	408	
10	0	0	0	0	592	408	
11	0	0	0	0	595	409	
12	0	0	0	0	598	408	
13	0	0	0	0	600	408	
14	0	0	0	0	598	408	
15	0	0	0	0	597	409	
0	0	0	0	0	599	409	
1	0	0	0	0	603	409	
2	0	0	0	0	609	408	
3	0	0	0	0	615	409	
4	0	0	0	0	620	409	
5	0	0	0	0	622	409	
6	0	0	0	0	621	409	
7	0	0	0	0	616	409	
8	0	0	0	0	609	409	
9	0	0	0	0	601	410	
10	0	0	0	0	593	409	
11	0	0	0	0	583	409	
12	0	0	0	0	574	409	
13	0	0	0	0	566	409	
14	0	0	0	0	557	409	
15	0	0	0	0	547	409	
0	0	0	0	0	538	409	
1	0	0	0	0	529	409	
2	0	0	0	0	522	409	
3	0	0	0	0	516	409	
4	0	0	0	0	510	408	
5	0	0	0	0	505	407	
6	0	0	0	0	501	408	
7	0	0	0	0	497	408	
8	0	0	0	0	496	408	
9	0	0	0	0	494	408	
10	0	0	0	0	492	407	
11	0	0	0	0	492	408	
12	0	0	0	0	490	407	
13	0	0	0	0	489	407	
14	0	0	0	0	488	407	
15	0	0	0	0	487	406	
0	0	0	0	0	485	406	
1	0	0	0	0	483	407	
2	0	0	0	0	480	407	
3	0	0	0	0	476	407	
4	0	0	0	0	472	407	
5	0	0	0	0	470	407	
6	0	0	0	0	468	407	
7	0	0	0	0	467	407	
8	0	0	0	0	467	407	
9	0	0	0	0	468	407	
10	0	0	0	0	468	407	
11	0	0	0	0	470	408	
12	0	0	0	0	472	407	
13	0	0	0	0	475	407	
14	0	0	0	0	476	408	
15	0	0	0	0	478	408	
0	0	0	0	0	479	407	
1	0	0	0	0	479	407	
2	0	0	0	0	479	407	
3	0	0	0	0	480	408	
4	0	0	0	0	479	408	
5	0	0	0	0	478	408	
6	0	0	0	0	476	408	
7	0	0	0	0	475	408	
8	0	0	0	0	472	408	
9	0	0	0	0	471	408	
10	0	0	0	0	470	408	
11	0	0	0	0	470	408	
12	0	0	0	0	471	407	
13	0	0	0	0	472	408	
14	0	0	0	0	474	408	
15	0	0	0	0	475	407	
0	0	0	0	0	479	408	
1	0	0	0	0	482	408	
2	0	0	0	0	484	408	
3	0	0	0	0	486	408	
4	0	0	0	0	487	407	
5	0	0	0	0	487	408	
6	0	0	0	0	488	407	
7	0	0	0	0	488	408	
8	0	0	0	0	487	408	
9	0	0	0	0	486	408	
10	0	0	0	0	484	408	
11	0	0	0	0	481	408	
12	0	0	0	0	479	408	
13	0	0	0	0	477	408	
14	0	0	0	0	477	408	
15	0	0	0	0	478	408	
0	0	0	0	0	478	408	
1	0	0	0	0	480	408	
2	0	0	0	0	482	407	
3	0	0	0	0	484	408	
4	0	0	0	0	487	408	
5	0	0	0	0	490	408	
6	0	0	0	0	492	408	
7	0	0	0	0	495	408	
8	0	0	0	0	496	407	
9	0	0	0	0	497	408	
10	0	0	0	0	497	408	
11	0	0	0	0	496	408	
12	0	0	0	0	495	408	
13	0	0	0	0	493	408	
14	0	0	0	0	491	409	
15	0	0	0	0	488	408	
0	0	0	0	0	486	408	
1	0	0	0	0	484	408	
2	0	0	0	0	483	408	
3	0	0	0	0	483	409	
4	0	0	0	0	483	408	
5	0	0	0	0	485	408	
6	0	0	0	0	487	409	
7	0	0	0	0	489	408	
8	0	0	0	0	492	408	
9	0	0	0	0	496	409	
10	0	0	0	0	500	408	
11	0	0	0	0	502	409	
12	0	0	0	0	503	408	
13	0	0	0	0	503	408	
14	0	0	0	0	503	408	
15	0	0	0	0	502	408	
0	0	0	0	0	501	408	
1	0	0	0	0	499	408	
2	0	0	0	0	497	408	
3	0	0	0	0	495	409	
4	0	0	0	0	492	408	
5	0	0	0	0	490	409	
6	0	0	0	0	489	409	
7	0	0	0	0	489	409	
8	0	0	0	0	488	408	
9	0	0	0	0	489	409	
10	0	0	0	0	491	410	
11	0	0	0	0	492	410	
12	0	0	0	0	494	409	
13	0	0	0	0	496	409	
14	0	0	0	0	498	409	
15	0	0	0	0	499	409	
0	0	0	0	0	501	408	
1	0	0	0	0	500	408	
2	0	0	0	0	499	409	
3	0	0	0	0	499	409	
4	0	0	0	0	497	408	
5	0	0	0	0	496	408	
6	0	0	0	0	493	408	
7	0	0	0	0	490	409	
8	0	0	0	0	488	408	
9	0	0	0	0	486	409	
10	0	0	0	0	485	408	
11	0	0	0	0	486	409	
12	0	0	0	0	486	409	
13	0	0	0	0	488	409	
14	0	0	0	0	489	409	
15	0	0	0	0	491	409	
0	0	0	0	0	494	408	
1	0	0	0	0	497	409	
2	0	0	0	0	499	408	
3	0	0	0	0	501	409	
4	0	0	0	0	502	409	
5	0	0	0	0	503	409	
6	0	0	0	0	503	408	
7	0	0	0	0	502	409	
8	0	0	0	0	500	408	
9	0	0	0	0	498	408	
10	0	0	0	0	496	408	
11	0	0	0	0	492	408	
12	0	0	0	0	490	408	
13	0	0	0	0	489	408	
14	0	0	0	0	487	408	
15	0	0	0	0	487	409	
0	0	0	0	0	488	408	
1	0	0	0	0	489	408	
2	0	0	0	0	491	408	
3	0	0	0	0	494	408	
4	0	0	0	0	496	408	
5	0	0	0	0	499	407	
6	0	0	0	0	502	407	
7	0	0	0	0	504	408	
8	0	0	0	0	507	407	
9	0	0	0	0	508	408	
10	0	0	0	0	508	407	
11	0	0	0	0	507	407	
12	0	0	0	0	506	407	
13	0	0	0	0	505	407	
14	0	0	0	0	504	407	
15	0	0	0	0	502	407	
0	0	0	0	0	500	407	
1	0	0	0	0	499	406	
2	0	0	0	0	499	406	
3	0	0	0	0	500	407	
4	0	0	0	0	501	406	
5	0	0	0	0	502	406	
6	0	0	0	0	504	407	
7	0	0	0	0	506	407	
8	0	0	0	0	510	406	
9	0	0	0	0	513	406	
10	0	0	0	0	516	407	
11	0	0	0	0	518	407	
12	0	0	0	0	519	407	
13	0	0	0	0	520	407	
14	0	0	0	0	519	406	
15	0	0	0	0	519	406	
0	0	0	0	0	518	406	
1	0	0	0	0	517	406	
2	0	0	0	0	515	407	
3	0	0	0	0	512	407	
4	0	0	0	0	511	407	
5	0	0	0	0	510	407	
6	0	0	0	0	509	407	
7	0	0	0	0	509	407	
8	0	0	0	0	511	406	
9	0	0	0	0	512	406	
10	0	0	0	0	513	406	
11	0	0	0	0	515	407	
12	0	0	0	0	517	406	
13	0	0	0	0	520	406	
14	0	0	0	0	523	407	
15	0	0	0	0	524	406	
0	0	0	0	0	526	406	
1	0	0	0	0	526	406	
2	0	0	0	0	526	406	
3	0	0	0	0	524	407	
4	0	0	0	0	522	406	
5	0	0	0	0	520	406	
6	0	0	0	0	517	407	
7	0	0	0	0	515	407	
8	0	0	0	0	513	406	
9	0	0	0	0	512	407	
10	0	0	0	0	511	406	
11	0	0	0	0	510	408	
12	0	0	0	0	510	407	
13	0	0	0	0	511	407	
14	0	0	0	0	512	407	
15	0	0	0	0	514	407	
0	0	0	0	0	516	407	
1	0	0	0	0	519	407	
2	0	0	0	0	522	407	
3	0	0	0	0	524	407	
4	0	0	0	0	524	407	
5	0	0	0	0	526	407	
6	0	0	0	0	525	407	
7	0	0	0	0	525	407	
8	0	0	0	0	524	407	
9	0	0	0	0	521	407	
10	0	0	0	0	519	407	
11	0	0	0	0	515	408	
12	0	0	0	0	512	407	
13	0	0	0	0	511	407	
14	0	0	0	0	510	408	
15	0	0	0	0	510	408	
0	0	0	0	0	510	408	
1	0	0	0	0	511	408	
2	0	0	0	0	512	408	
3	0	0	0	0	513	409	
4	0	0	0	0	516	409	
5	0	0	0	0	519	409	
6	0	0	0	0	522	409	
7	0	0	0	0	523	409	
8	0	0	0	0	524	409	
9	0	0	0	0	524	409	
10	0	0	0	0	522	409	
11	0	0	0	0	520	409	
12	0	0	0	0	519	409	
13	0	0	0	0	516	409	
14	0	0	0	0	513	410	
15	0	0	0	0	510	409	
0	0	0	0	0	507	409	
1	0	0	0	0	504	409	
2	0	0	0	0	502	410	
3	0	0	0	0	501	411	
4	0	0	0	0	500	410	
5	0	0	0	0	501	409	
6	0	0	0	0	502	410	
7	0	0	0	0	504	410	
8	0	0	0	0	505	410	
9	0	0	0	0	508	409	
10	0	0	0	0	511	410	
11	0	0	0	0	513	411	
12	0	0	0	0	514	410	
13	0	0	0	0	515	410	
14	0	0	0	0	514	410	
15	0	0	0	0	513	411	
0	0	0	0	0	512	410	
1	0	0	0	0	510	410	
2	0	0	0	0	507	410	
3	0	0	0	0	504	411	
4	0	0	0	0	501	410	
5	0	0	0	0	500	409	
6	0	0	0	0	498	411	
7	0	0	0	0	498	410	
8	0	0	0	0	498	409	
9	0	0	0	0	498	409	
10	0	0	0	0	499	409	
11	0	0	0	0	500	410	
12	0	0	0	0	502	409	
13	0	0	0	0	504	410	
14	0	0	0	0	507	410	
15	0	0	0	0	508	411	
0	0	0	0	0	509	409	
1	0	0	0	0	510	409	
2	0	0	0	0	509	409	
3	0	0	0	0	508	410	
4	0	0	0	0	507	410	
5	0	0	0	0	505	410	
6	0	0	0	0	503	410	
7	0	0	0	0	500	409	
8	0	0	0	0	498	410	
9	0	0	0	0	496	410	
10	0	0	0	0	494	410	
11	0	0	0	0	493	410	
12	0	0	0	0	493	409	
13	0	0	0	0	494	409	
14	0	0	0	0	494	408	
15	0	0	0	0	496	408	
0	0	0	0	0	500	409	
1	0	0	0	0	503	409	
2	0	0	0	0	505	409	
3	0	0	0	0	507	409	
4	0	0	0	0	508	408	
5	0	0	0	0	509	408	
6	0	0	0	0	509	408	
7	0	0	0	0	509	408	
8	0	0	0	0	508	407	
9	0	0	0	0	507	408	
10	0	0	0	0	504	407	
11	0	0	0	0	502	408	
12	0	0	0	0	499	408	
13	0	0	0	0	498	407	
14	0	0	0	0	496	407	
15	0	0	0	0	496	408	
0	0	0	0	0	496	407	
1	0	0	0	0	497	407	
2	0	0	0	0	498	407	
3	0	0	0	0	500	408	
4	0	0	0	0	503	407	
5	0	0	0	0	506	407	
6	0	0	0	0	508	408	
7	0	0	0	0	510	407	
8	0	0	0	0	510	407	
9	0	0	0	0	511	408	
10	0	0	0	0	510	407	
11	0	0	0	0	509	408	
12	0	0	0	0	508	406	
13	0	0	0	0	507	407	
14	0	0	0	0	504	407	
15	0	0	0	0	501	407	
0	0	0	0	0	499	407	
1	0	0	0	0	497	406	
2	0	0	0	0	496	406	
3	0	0	0	0	496	407	
4	0	0	0	0	497	406	
5	0	0	0	0	498	406	
6	0	0	0	0	499	407	
7	0	0	0	0	501	407	
8	0	0	0	0	504	407	
9	0	0	0	0	507	406	
10	0	0	0	0	509	406	
11	0	0	0	0	511	406	
12	0	0	0	0	512	406	
13	0	0	0	0	512	405	
14	0	0	0	0	512	406	
15	0	0	0	0	512	406	
0	0	0	0	0	512	405	
1	0	0	0	0	509	406	
2	0	0	0	0	507	406	
3	0	0	0	0	504	407	
4	0	0	0	0	500	406	
5	0	0	0	0	499	406	
6	0	0	0	0	498	407	
7	0	0	0	0	498	407	
8	0	0	0	0	498	405	
9	0	0	0	0	499	406	
10	0	0	0	0	500	405	
11	0	0	0	0	501	406	
12	0	0	0	0	504	406	
13	0	0	0	0	507	406	
14	0	0	0	0	508	406	
15	0	0	0	0	509	407	
0	0	0	0	0	510	406	
1	0	0	0	0	510	406	
2	0	0	0	0	509	406	
3	0	0	0	0	508	406	
4	0	0	0	0	508	406	
5	0	0	0	0	505	406	
6	0	0	0	0	503	406	
7	0	0	0	0	500	407	
8	0	0	0	0	497	406	
9	0	0	0	0	495	407	
10	0	0	0	0	494	407	
11	0	0	0	0	493	407	
12	0	0	0	0	492	407	
13	0	0	0	0	492	408	
14	0	0	0	0	494	407	
15	0	0	0	0	496	408	
0	0	0	0	0	499	408	
1	0	0	0	0	502	408	
2	0	0	0	0	505	408	
3	0	0	0	0	508	408	
4	0	0	0	0	510	408	
5	0	0	0	0	511	408	
6	0	0	0	0	510	408	
7	0	0	0	0	510	409	
8	0	0	0	0	508	408	
9	0	0	0	0	507	409	
10	0	0	0	0	505	409	
11	0	0	0	0	502	409	
12	0	0	0	0	500	408	
13	0	0	0	0	499	409	
14	0	0	0	0	498	408	
15	0	0	0	0	498	408	
0	0	0	0	0	498	408	
1	0	0	0	0	499	408	
2	0	0	0	0	499	408	
3	0	0	0	0	500	408	
4	0	0	0	0	503	408	
5	0	0	0	0	505	409	
6	0	0	0	0	506	408	
7	0	0	0	0	508	408	
8	0	0	0	0	508	408	
9	0	0	0	0	508	408	
10	0	0	0	0	508	408	
11	0	0	0	0	507	409	
12	0	0	0	0	507	408	
13	0	0	0	0	505	408	
14	0	0	0	0	504	409	
15	0	0	0	0	501	409	
0	0	0	0	0	499	409	
1	0	0	0	0	498	409	
2	0	0	0	0	497	409	
3	0	0	0	0	496	410	
4	0	0	0	0	497	410	
5	0	0	0	0	497	410	
6	0	0	0	0	498	410	
7	0	0	0	0	499	410	
8	0	0	0	0	502	410	
9	0	0	0	0	505	410	
10	0	0	0	0	508	410	
11	0	0	0	0	510	411	
12	0	0	0	0	511	409	
13	0	0	0	0	512	410	
14	0	0	0	0	512	410	
15	0	0	0	0	512	410	
0	0	0	0	0	510	410	
1	0	0	0	0	509	410	
2	0	0	0	0	507	410	
3	0	0	0	0	504	410	
4	0	0	0	0	502	409	
5	0	0	0	0	500	408	
6	0	0	0	0	499	409	
7	0	0	0	0	499	409	
8	0	0	0	0	499	409	
9	0	0	0	0	500	409	
10	0	0	0	0	501	409	
11	0	0	0	0	502	409	
12	0	0	0	0	504	408	
13	0	0	0	0	508	409	
14	0	0	0	0	510	409	
15	0	0	0	0	512	408	
0	0	0	0	0	513	409	
1	0	0	0	0	513	408	
2	0	0	0	0	513	408	
3	0	0	0	0	512	408	
4	0	0	0	0	511	408	
5	0	0	0	0	510	408	
6	0	0	0	0	508	408	
7	0	0	0	0	504	408	
8	0	0	0	0	502	408	
9	0	0	0	0	499	407	
10	0	0	0	0	498	407	
11	0	0	0	0	498	408	
12	0	0	0	0	498	408	
13	0	0	0	0	499	407	
14	0	0	0	0	499	407	
15	0	0	0	0	502	407	
0	0	0	0	0	504	407	
1	0	0	0	0	507	407	
2	0	0	0	0	510	407	
3	0	0	0	0	512	408	
4	0	0	0	0	513	407	
5	0	0	0	0	514	406	
6	0	0	0	0	514	407	
7	0	0	0	0	513	407	
8	0	0	0	0	512	407	
9	0	0	0	0	511	407	
10	0	0	0	0	508	407	
11	0	0	0	0	505	407	
12	0	0	0	0	503	407	
13	0	0	0	0	501	406	
14	0	0	0	0	499	406	
15	0	0	0	0	499	407	
0	0	0	0	0	499	406	
1	0	0	0	0	500	406	
2	0	0	0	0	501	406	
3	0	0	0	0	503	407	
4	0	0	0	0	506	406	
5	0	0	0	0	509	406	
6	0	0	0	0	512	406	
7	0	0	0	0	514	406	
8	0	0	0	0	515	406	
9	0	0	0	0	516	406	
10	0	0	0	0	516	406	
11	0	0	0	0	516	407	
12	0	0	0	0	515	406	
13	0	0	0	0	514	406	
14	0	0	0	0	512	407	
15	0	0	0	0	508	407	
0	0	0	0	0	506	407	
1	0	0	0	0	504	407	
2	0	0	0	0	503	407	
3	0	0	0	0	502	407	
4	0	0	0	0	503	407	
5	0	0	0	0	503	407	
6	0	0	0	0	504	407	
7	0	0	0	0	505	408	
8	0	0	0	0	507	407	
9	0	0	0	0	510	408	
10	0	0	0	0	512	407	
11	0	0	0	0	513	408	
12	0	0	0	0	513	407	
13	0	0	0	0	513	407	
14	0	0	0	0	513	407	
15	0	0	0	0	513	408	
0	0	0	0	0	512	408	
1	0	0	0	0	511	408	
2	0	0	0	0	508	409	
3	0	0	0	0	505	409	
4	0	0	0	0	503	408	
5	0	0	0	0	501	408	
6	0	0	0	0	500	408	
7	0	0	0	0	500	408	
8	0	0	0	0	501	408	
9	0	0	0	0	502	408	
10	0	0	0	0	503	408	
11	0	0	0	0	504	409	
12	0	0	0	0	507	408	
13	0	0	0	0	509	408	
14	0	0	0	0	511	408	
15	0	0	0	0	512	408	
0	0	0	0	0	513	407	
1	0	0	0	0	514	408	
2	0	0	0	0	514	408	
3	0	0	0	0	512	408	
4	0	0	0	0	512	407	
5	0	0	0	0	511	407	
6	0	0	0	0	509	407	
7	0	0	0	0	507	408	
8	0	0	0	0	505	408	
9	0	0	0	0	504	408	
10	0	0	0	0	503	408	
11	0	0	0	0	503	409	
12	0	0	0	0	503	408	
13	0	0	0	0	503	409	
14	0	0	0	0	504	409	
15	0	0	0	0	506	409	
0	0	0	0	0	509	410	
1	0	0	0	0	512	409	
2	0	0	0	0	513	409	
3	0	0	0	0	515	410	
4	0	0	0	0	515	409	
5	0	0	0	0	515	409	
6	0	0	0	0	514	410	
7	0	0	0	0	513	410	
8	0	0	0	0	512	409	
9	0	0	0	0	510	409	
10	0	0	0	0	507	409	
11	0	0	0	0	504	410	
12	0	0	0	0	501	409	
13	0	0	0	0	499	409	
14	0	0	0	0	499	409	
15	0	0	0	0	499	410	
0	0	0	0	0	500	409	
1	0	0	0	0	501	409	
2	0	0	0	0	502	409	
3	0	0	0	0	503	410	
4	0	0	0	0	505	409	
5	0	0	0	0	507	409	
6	0	0	0	0	508	409	
7	0	0	0	0	510	409	
8	0	0	0	0	511	408	
9	0	0	0	0	512	409	
10	0	0	0	0	512	408	
11	0	0	0	0	512	409	
12	0	0	0	0	512	408	
13	0	0	0	0	511	408	
14	0	0	0	0	510	409	
15	0	0	0	0	509	409	
0	0	0	0	0	508	408	
1	0	0	0	0	507	408	
2	0	0	0	0	506	408	
3	0	0	0	0	507	408	
4	0	0	0	0	507	407	
5	0	0	0	0	508	407	
6	0	0	0	0	509	408	
7	0	0	0	0	511	408	
8	0	0	0	0	515	408	
9	0	0	0	0	518	408	
10	0	0	0	0	520	408	
11	0	0	0	0	522	408	
12	0	0	0	0	524	407	
13	0	0	0	0	525	407	
14	0	0	0	0	525	408	
15	0	0	0	0	524	408	
0	0	0	0	0	523	408	
1	0	0	0	0	522	408	
2	0	0	0	0	520	408	
3	0	0	0	0	517	408	
4	0	0	0	0	515	408	
5	0	0	0	0	513	408	
6	0	0	0	0	512	408	
7	0	0	0	0	512	408	
8	0	0	0	0	512	408	
9	0	0	0	0	512	408	
10	0	0	0	0	513	408	
11	0	0	0	0	515	408	
12	0	0	0	0	518	408	
13	0	0	0	0	521	408	
14	0	0	0	0	524	407	
15	0	0	0	0	527	408	
0	0	0	0	0	527	408	
1	0	0	0	0	528	407	
2	0	0	0	0	529	407	
3	0	0	0	0	529	408	
4	0	0	0	0	528	408	
5	0	0	0	0	527	408	
6	0	0	0	0	525	408	
7	0	0	0	0	523	408	
8	0	0	0	0	521	408	
9	0	0	0	0	520	407	
10	0	0	0	0	519	407	
11	0	0	0	0	519	408	
12	0	0	0	0	519	407	
13	0	0	0	0	519	407	
14	0	0	0	0	520	407	
15	0	0	0	0	521	407	
0	0	0	0	0	524	407	
1	0	0	0	0	526	407	
2	0	0	0	0	528	406	
3	0	0	0	0	530	407	
4	0	0	0	0	531	407	
5	0	0	0	0	530	407	
6	0	0	0	0	530	407	
7	0	0	0	0	529	407	
8	0	0	0	0	528	407	
9	0	0	0	0	527	407	
10	0	0	0	0	525	408	
11	0	0	0	0	521	408	
12	0	0	0	0	519	408	
13	0	0	0	0	517	407	
14	0	0	0	0	516	407	
15	0	0	0	0	515	407	
0	0	0	0	0	516	406	
1	0	0	0	0	517	407	
2	0	0	0	0	518	406	
3	0	0	0	0	519	407	
4	0	0	0	0	521	407	
5	0	0	0	0	523	407	
6	0	0	0	0	525	407	
7	0	0	0	0	526	407	
8	0	0	0	0	527	406	
9	0	0	0	0	527	407	
10	0	0	0	0	525	407	
11	0	0	0	0	524	408	
12	0	0	0	0	522	407	
13	0	0	0	0	519	407	
14	0	0	0	0	516	407	
15	0	0	0	0	513	408	
0	0	0	0	0	509	407	
1	0	0	0	0	507	408	
2	0	0	0	0	505	407	
3	0	0	0	0	505	408	
4	0	0	0	0	505	408	
5	0	0	0	0	505	407	
6	0	0	0	0	506	407	
7	0	0	0	0	507	407	
8	0	0	0	0	509	408	
9	0	0	0	0	512	408	
10	0	0	0	0	514	408	
11	0	0	0	0	516	409	
12	0	0	0	0	517	408	
13	0	0	0	0	518	408	
14	0	0	0	0	518	408	
15	0	0	0	0	517	408	
0	0	0	0	0	516	409	
1	0	0	0	0	514	408	
2	0	0	0	0	511	408	
3	0	0	0	0	509	409	
4	0	0	0	0	507	408	
5	0	0	0	0	506	408	
6	0	0	0	0	505	408	
7	0	0	0	0	505	409	
8	0	0	0	0	506	409	
9	0	0	0	0	507	408	
10	0	0	0	0	508	408	
11	0	0	0	0	510	409	
12	0	0	0	0	513	409	
13	0	0	0	0	516	409	
14	0	0	0	0	518	408	
15	0	0	0	0	519	409	
0	0	0	0	0	520	408	
1	0	0	0	0	520	408	
2	0	0	0	0	520	408	
3	0	0	0	0	519	409	
4	0	0	0	0	518	408	
5	0	0	0	0	515	408	
6	0	0	0	0	513	408	
7	0	0	0	0	510	408	
8	0	0	0	0	507	408	
9	0	0	0	0	504	408	
10	0	0	0	0	500	408	
11	0	0	0	0	496	409	
12	0	0	0	0	494	408	
13	0	0	0	0	491	408	
14	0	0	0	0	488	408	
15	0	0	0	0	485	408	
0	0	0	0	0	483	409	
1	0	0	0	0	482	409	
2	0	0	0	0	483	408	
3	0	0	0	0	485	409	
4	0	0	0	0	487	409	
5	0	0	0	0	490	409	
6	0	0	0	0	492	409	
7	0	0	0	0	495	409	
8	0	0	0	0	497	408	
9	0	0	0	0	500	408	
10	0	0	0	0	501	408	
11	0	0	0	0	501	409	
12	0	0	0	0	502	409	
13	0	0	0	0	505	408	
14	0	0	0	0	511	408	
15	0	0	0	0	518	408	
0	0	0	0	0	526	408	
1	0	0	0	0	532	408	
2	0	0	0	0	538	408	
3	0	0	0	0	543	409	
4	0	0	0	0	548	408	
5	0	0	0	0	554	408	
6	0	0	0	0	562	408	
7	0	0	0	0	571	409	
8	0	0	0	0	580	408	
9	0	0	0	0	589	409	
10	0	0	0	0	597	409	
11	0	0	0	0	606	409	
12	0	0	0	0	614	408	
13	0	0	0	0	620	408	
14	0	0	0	0	625	409	
15	0	0	0	0	627	409	
0	0	0	0	0	631	409	
1	0	0	0	0	639	408	
2	0	0	0	0	651	408	
3	0	0	0	0	662	409	
4	0	0	0	0	669	408	
5	0	0	0	0	671	408	
6	0	0	0	0	670	408	
7	0	0	0	0	663	408	
8	0	0	0	0	654	407	
9	0	0	0	0	643	407	
10	0	0	0	0	632	407	
11	0	0	0	0	621	408	
12	0	0	0	0	609	407	
13	0	0	0	0	598	407	
14	0	0	0	0	587	406	
15	0	0	0	0	578	406	
0	0	0	0	0	568	407	
1	0	0	0	0	559	406	
2	0	0	0	0	549	406	
3	0	0	0	0	539	407	
4	0	0	0	0	530	407	
5	0	0	0	0	522	407	
6	0	0	0	0	515	407	
7	0	0	0	0	509	407	
8	0	0	0	0	504	406	
9	0	0	0	0	500	407	
10	0	0	0	0	497	407	
11	0	0	0	0	495	407	
12	0	0	0	0	494	407	
13	0	0	0	0	494	407	
14	0	0	0	0	495	407	
15	0	0	0	0	495	407	
0	0	0	0	0	495	408	
1	0	0	0	0	495	408	
2	0	0	0	0	494	408	
3	0	0	0	0	492	408	
4	0	0	0	0	491	407	
5	0	0	0	0	488	407	
6	0	0	0	0	485	408	
7	0	0	0	0	482	408	
8	0	0	0	0	479	407	
9	0	0	0	0	476	407	
10	0	0	0	0	474	407	
11	0	0	0	0	474	408	
12	0	0	0	0	474	407	
13	0	0	0	0	474	407	
14	0	0	0	0	475	407	
15	0	0	0	0	477	408	
0	0	0	0	0	480	407	
1	0	0	0	0	482	408	
2	0	0	0	0	484	408	
3	0	0	0	0	486	408	
4	0	0	0	0	486	407	
5	0	0	0	0	487	408	
6	0	0	0	0	487	408	
7	0	0	0	0	486	408	
8	0	0	0	0	484	407	
9	0	0	0	0	482	408	
10	0	0	0	0	479	408	
11	0	0	0	0	476	408	
12	0	0	0	0	473	408	
13	0	0	0	0	472	408	
14	0	0	0	0	471	408	
15	0	0	0	0	471	409	
0	0	0	0	0	472	408	
1	0	0	0	0	473	408	
2	0	0	0	0	475	408	
3	0	0	0	0	477	408	
4	0	0	0	0	480	408	
5	0	0	0	0	485	408	
6	0	0	0	0	487	408	
7	0	0	0	0	489	408	
8	0	0	0	0	491	408	
9	0	0	0	0	492	408	
10	0	0	0	0	492	408	
11	0	0	0	0	492	409	
12	0	0	0	0	492	409	
13	0	0	0	0	490	408	
14	0	0	0	0	487	408	
15	0	0	0	0	484	408	
0	0	0	0	0	482	408	
1	0	0	0	0	480	409	
2	0	0	0	0	480	409	
3	0	0	0	0	480	409	
4	0	0	0	0	480	408	
5	0	0	0	0	481	408	
6	0	0	0	0	483	408	
7	0	0	0	0	485	408	
8	0	0	0	0	487	409	
9	0	0	0	0	491	407	
10	0	0	0	0	494	408	
11	0	0	0	0	495	409	
12	0	0	0	0	496	408	
13	0	0	0	0	497	408	
14	0	0	0	0	498	409	
15	0	0	0	0	498	408	
0	0	0	0	0	497	408	
1	0	0	0	0	496	408	
2	0	0	0	0	495	408	
3	0	0	0	0	492	409	
4	0	0	0	0	489	408	
5	0	0	0	0	487	408	
6	0	0	0	0	487	409	
7	0	0	0	0	487	409	
8	0	0	0	0	487	408	
9	0	0	0	0	489	408	
10	0	0	0	0	491	408	
11	0	0	0	0	493	408	
12	0	0	0	0	496	408	
13	0	0	0	0	500	408	
14	0	0	0	0	502	408	
15	0	0	0	0	504	408	
0	0	0	0	0	505	408	
1	0	0	0	0	505	408	
2	0	0	0	0	505	407	
3	0	0	0	0	504	408	
4	0	0	0	0	502	407	
5	0	0	0	0	500	407	
6	0	0	0	0	499	407	
7	0	0	0	0	496	407	
8	0	0	0	0	494	407	
9	0	0	0	0	492	407	
10	0	0	0	0	491	407	
11	0	0	0	0	492	408	
12	0	0	0	0	492	407	
13	0	0	0	0	493	406	
14	0	0	0	0	494	407	
15	0	0	0	0	496	407	
0	0	0	0	0	498	407	
1	0	0	0	0	501	407	
2	0	0	0	0	503	407	
3	0	0	0	0	505	408	
4	0	0	0	0	506	407	
5	0	0	0	0	506	407	
6	0	0	0	0	506	407	
7	0	0	0	0	505	407	
8	0	0	0	0	504	407	
9	0	0	0	0	502	407	
10	0	0	0	0	500	407	
11	0	0	0	0	498	408	
12	0	0	0	0	496	407	
13	0	0	0	0	495	407	
14	0	0	0	0	494	407	
15	0	0	0	0	493	408	
0	0	0	0	0	494	408	
1	0	0	0	0	494	408	
2	0	0	0	0	495	408	
3	0	0	0	0	496	408	
4	0	0	0	0	498	407	
5	0	0	0	0	501	408	
6	0	0	0	0	504	408	
7	0	0	0	0	505	408	
8	0	0	0	0	506	408	
9	0	0	0	0	507	408	
10	0	0	0	0	507	408	
11	0	0	0	0	506	409	
12	0	0	0	0	506	408	
13	0	0	0	0	504	408	
14	0	0	0	0	502	408	
15	0	0	0	0	499	409	
0	0	0	0	0	497	408	
1	0	0	0	0	496	409	
2	0	0	0	0	494	408	
3	0	0	0	0	494	409	
4	0	0	0	0	493	408	
5	0	0	0	0	494	408	
6	0	0	0	0	495	409	
7	0	0	0	0	497	409	
8	0	0	0	0	500	409	
9	0	0	0	0	504	408	
10	0	0	0	0	506	409	
11	0	0	0	0	508	409	
12	0	0	0	0	509	408	
13	0	0	0	0	510	409	
14	0	0	0	0	510	408	
15	0	0	0	0	509	409	
0	0	0	0	0	508	409	
1	0	0	0	0	506	408	
2	0	0	0	0	503	408	
3	0	0	0	0	500	409	
4	0	0	0	0	497	408	
5	0	0	0	0	496	408	
6	0	0	0	0	495	408	
7	0	0	0	0	495	409	
8	0	0	0	0	495	408	
9	0	0	0	0	496	408	
10	0	0	0	0	497	408	
11	0	0	0	0	499	408	
12	0	0	0	0	502	408	
13	0	0	0	0	505	408	
14	0	0	0	0	507	408	
15	0	0	0	0	508	408	
0	0	0	0	0	508	408	
1	0	0	0	0	508	408	
2	0	0	0	0	508	408	
3	0	0	0	0	508	408	
4	0	0	0	0	508	408	
5	0	0	0	0	506	408	
6	0	0	0	0	505	408	
7	0	0	0	0	502	408	
8	0	0	0	0	501	407	
9	0	0	0	0	500	407	
10	0	0	0	0	500	407	
11	0	0	0	0	502	408	
12	0	0	0	0	503	407	
13	0	0	0	0	504	407	
14	0	0	0	0	506	407	
15	0	0	0	0	508	407	
0	0	0	0	0	511	407	
1	0	0	0	0	513	407	
2	0	0	0	0	515	407	
3	0	0	0	0	516	407	
4	0	0	0	0	517	406	
5	0	0	0	0	518	407	
6	0	0	0	0	517	407	
7	0	0	0	0	517	408	
8	0	0	0	0	517	407	
9	0	0	0	0	515	407	
10	0	0	0	0	512	408	
11	0	0	0	0	510	408	
12	0	0	0	0	508	407	
13	0	0	0	0	507	407	
14	0	0	0	0	506	407	
15	0	0	0	0	507	408	
0	0	0	0	0	507	407	
1	0	0	0	0	508	408	
2	0	0	0	0	510	408	
3	0	0	0	0	512	408	
4	0	0	0	0	515	408	
5	0	0	0	0	518	407	
6	0	0	0	0	520	408	
7	0	0	0	0	522	408	
8	0	0	0	0	523	408	
9	0	0	0	0	523	408	
10	0	0	0	0	521	407	
11	0	0	0	0	521	408	
12	0	0	0	0	520	407	
13	0	0	0	0	518	408	
14	0	0	0	0	516	408	
15	0	0	0	0	513	408	
0	0	0	0	0	511	408	
1	0	0	0	0	510	408	
2	0	0	0	0	508	408	
3	0	0	0	0	509	409	
4	0	0	0	0	509	408	
5	0	0	0	0	510	408	
6	0	0	0	0	511	409	
7	0	0	0	0	512	408	
8	0	0	0	0	514	408	
9	0	0	0	0	516	408	
10	0	0	0	0	518	408	
11	0	0	0	0	519	408	
12	0	0	0	0	520	408	
13	0	0	0	0	520	408	
14	0	0	0	0	520	408	
15	0	0	0	0	519	409	
0	0	0	0	0	517	409	
1	0	0	0	0	514	408	
2	0	0	0	0	512	409	
3	0	0	0	0	508	409	
4	0	0	0	0	507	410	
5	0	0	0	0	506	409	
6	0	0	0	0	505	409	
7	0	0	0	0	505	409	
8	0	0	0	0	505	409	
9	0	0	0	0	506	409	
10	0	0	0	0	506	409	
11	0	0	0	0	507	409	
12	0	0	0	0	509	409	
13	0	0	0	0	511	409	
14	0	0	0	0	513	409	
15	0	0	0	0	514	409	
0	0	0	0	0	515	408	
1	0	0	0	0	515	409	
2	0	0	0	0	514	409	
3	0	0	0	0	514	409	
4	0	0	0	0	513	409	
5	0	0	0	0	512	408	
6	0	0	0	0	509	409	
7	0	0	0	0	507	409	
8	0	0	0	0	505	408	
9	0	0	0	0	504	409	
10	0	0	0	0	504	409	
11	0	0	0	0	504	410	
12	0	0	0	0	504	408	
13	0	0	0	0	505	409	
14	0	0	0	0	506	409	
15	0	0	0	0	507	409	
0	0	0	0	0	509	409	
1	0	0	0	0	511	408	
2	0	0	0	0	512	409	
3	0	0	0	0	513	409	
4	0	0	0	0	512	408	
5	0	0	0	0	512	408	
6	0	0	0	0	512	408	
7	0	0	0	0	510	409	
8	0	0	0	0	507	409	
9	0	0	0	0	506	408	
10	0	0	0	0	504	409	
11	0	0	0	0	501	409	
12	0	0	0	0	499	408	
13	0	0	0	0	498	409	
14	0	0	0	0	497	408	
15	0	0	0	0	497	408	
0	0	0	0	0	498	409	
1	0	0	0	0	499	409	
2	0	0	0	0	500	408	
3	0	0	0	0	502	409	
4	0	0	0	0	504	408	
5	0	0	0	0	508	408	
6	0	0	0	0	510	408	
7	0	0	0	0	512	408	
8	0	0	0	0	512	407	
9	0	0	0	0	512	408	
10	0	0	0	0	512	408	
11	0	0	0	0	511	408	
12	0	0	0	0	510	408	
13	0	0	0	0	509	407	
14	0	0	0	0	507	408	
15	0	0	0	0	505	408	
0	0	0	0	0	504	407	
1	0	0	0	0	503	408	
2	0	0	0	0	503	408	
3	0	0	0	0	504	409	
4	0	0	0	0	504	408	
5	0	0	0	0	505	408	
6	0	0	0	0	506	408	
7	0	0	0	0	507	408	
8	0	0	0	0	510	408	
9	0	0	0	0	512	408	
10	0	0	0	0	515	408	
11	0	0	0	0	516	408	
12	0	0	0	0	516	407	
13	0	0	0	0	516	407	
14	0	0	0	0	515	408	
15	0	0	0	0	514	408	
0	0	0	0	0	513	408	
1	0	0	0	0	510	408	
2	0	0	0	0	508	408	
3	0	0	0	0	505	408	
4	0	0	0	0	502	408	
5	0	0	0	0	502	408	
6	0	0	0	0	501	407	
7	0	0	0	0	503	408	
8	0	0	0	0	504	408	
9	0	0	0	0	506	408	
10	0	0	0	0	508	408	
11	0	0	0	0	510	409	
12	0	0	0	0	513	408	
13	0	0	0	0	516	407	
14	0	0	0	0	518	408	
15	0	0	0	0	519	408	
0	0	0	0	0	519	408	
1	0	0	0	0	518	407	
2	0	0	0	0	518	407	
3	0	0	0	0	517	408	
4	0	0	0	0	515	407	
5	0	0	0	0	514	407	
6	0	0	0	0	512	406	
7	0	0	0	0	509	407	
8	0	0	0	0	506	406	
9	0	0	0	0	505	406	
10	0	0	0	0	504	406	
11	0	0	0	0	504	407	
12	0	0	0	0	504	406	
13	0	0	0	0	505	407	
14	0	0	0	0	507	407	
15	0	0	0	0	508	407	
0	0	0	0	0	511	407	
1	0	0	0	0	514	407	
2	0	0	0	0	517	407	
3	0	0	0	0	519	407	
4	0	0	0	0	519	407	
5	0	0	0	0	519	407	
6	0	0	0	0	519	407	
7	0	0	0	0	518	407	
8	0	0	0	0	517	407	
9	0	0	0	0	515	407	
10	0	0	0	0	512	407	
11	0	0	0	0	510	408	
12	0	0	0	0	507	407	
13	0	0	0	0	505	407	
14	0	0	0	0	504	408	
15	0	0	0	0	504	408	
0	0	0	0	0	505	408	
1	0	0	0	0	505	408	
2	0	0	0	0	505	408	
3	0	0	0	0	507	409	
4	0	0	0	0	510	409	
5	0	0	0	0	513	408	
6	0	0	0	0	515	408	
7	0	0	0	0	517	408	
8	0	0	0	0	518	408	
9	0	0	0	0	518	408	
10	0	0	0	0	517	409	
11	0	0	0	0	517	408	
12	0	0	0	0	516	408	
13	0	0	0	0	514	407	
14	0	0	0	0	512	408	
15	0	0	0	0	509	408	
0	0	0	0	0	507	407	
1	0	0	0	0	504	408	
2	0	0	0	0	503	407	
3	0	0	0	0	503	408	
4	0	0	0	0	503	408	
5	0	0	0	0	504	408	
6	0	0	0	0	506	408	
7	0	0	0	0	508	409	
8	0	0	0	0	510	408	
9	0	0	0	0	512	409	
10	0	0	0	0	513	408	
11	0	0	0	0	514	409	
12	0	0	0	0	514	409	
13	0	0	0	0	514	409	
14	0	0	0	0	513	409	
15	0	0	0	0	512	409	
0	0	0	0	0	511	409	
1	0	0	0	0	509	408	
2	0	0	0	0	508	409	
3	0	0	0	0	506	410	
4	0	0	0	0	505	409	
5	0	0	0	0	504	409	
6	0	0	0	0	504	409	
7	0	0	0	0	505	409	
8	0	0	0	0	506	408	
9	0	0	0	0	508	408	
10	0	0	0	0	509	408	
11	0	0	0	0	511	409	
12	0	0	0	0	514	408	
13	0	0	0	0	516	409	
14	0	0	0	0	518	408	
15	0	0	0	0	519	408	
0	0	0	0	0	520	408	
1	0	0	0	0	520	408	
2	0	0	0	0	519	408	
3	0	0	0	0	518	409	
4	0	0	0	0	517	407	
5	0	0	0	0	515	407	
6	0	0	0	0	513	408	
7	0	0	0	0	511	409	
8	0	0	0	0	509	408	
9	0	0	0	0	508	408	
10	0	0	0	0	507	408	
11	0	0	0	0	507	409	
12	0	0	0	0	507	408	
13	0	0	0	0	508	407	
14	0	0	0	0	509	408	
15	0	0	0	0	510	408	
0	0	0	0	0	513	408	
1	0	0	0	0	515	408	
2	0	0	0	0	517	408	
3	0	0	0	0	518	408	
4	0	0	0	0	519	408	
5	0	0	0	0	520	408	
6	0	0	0	0	519	407	
7	0	0	0	0	519	407	
8	0	0	0	0	518	407	
9	0	0	0	0	516	407	
10	0	0	0	0	513	407	
11	0	0	0	0	510	408	
12	0	0	0	0	508	407	
13	0	0	0	0	506	407	
14	0	0	0	0	504	407	
15	0	0	0	0	504	408	
0	0	0	0	0	504	407	
1	0	0	0	0	505	407	
2	0	0	0	0	506	408	
3	0	0	0	0	509	408	
4	0	0	0	0	512	408	
5	0	0	0	0	514	408	
6	0	0	0	0	517	408	
7	0	0	0	0	519	408	
8	0	0	0	0	520	408	
9	0	0	0	0	520	408	
10	0	0	0	0	520	407	
11	0	0	0	0	520	408	
12	0	0	0	0	520	407	
13	0	0	0	0	519	407	
14	0	0	0	0	517	407	
15	0	0	0	0	514	407	
0	0	0	0	0	512	406	
1	0	0	0	0	511	407	
2	0	0	0	0	510	406	
3	0	0	0	0	510	408	
4	0	0	0	0	510	407	
5	0	0	0	0	511	408	
6	0	0	0	0	512	407	
7	0	0	0	0	513	408	
8	0	0	0	0	516	408	
9	0	0	0	0	518	408	
10	0	0	0	0	520	408	
11	0	0	0	0	521	409	
12	0	0	0	0	522	408	
13	0	0	0	0	522	408	
14	0	0	0	0	521	408	
15	0	0	0	0	521	408	
0	0	0	0	0	519	408	
1	0	0	0	0	518	408	
2	0	0	0	0	515	408	
3	0	0	0	0	512	408	
4	0	0	0	0	511	408	
5	0	0	0	0	510	408	
6	0	0	0	0	508	408	
7	0	0	0	0	509	408	
8	0	0	0	0	509	408	
9	0	0	0	0	509	408	
10	0	0	0	0	510	408	
11	0	0	0	0	511	408	
12	0	0	0	0	513	408	
13	0	0	0	0	515	408	
14	0	0	0	0	517	408	
15	0	0	0	0	518	408	
0	0	0	0	0	519	408	
1	0	0	0	0	518	408	
2	0	0	0	0	517	408	
3	0	0	0	0	516	409	
4	0	0	0	0	515	408	
5	0	0	0	0	513	408	
6	0	0	0	0	510	407	
7	0	0	0	0	507	408	
8	0	0	0	0	504	408	
9	0	0	0	0	502	408	
10	0	0	0	0	500	408	
11	0	0	0	0	500	409	
12	0	0	0	0	500	408	
13	0	0	0	0	500	408	
14	0	0	0	0	501	408	
15	0	0	0	0	503	408	
0	0	0	0	0	505	408	
1	0	0	0	0	507	408	
2	0	0	0	0	509	408	
3	0	0	0	0	510	409	
4	0	0	0	0	511	408	
5	0	0	0	0	511	408	
6	0	0	0	0	510	408	
7	0	0	0	0	509	408	
8	0	0	0	0	508	408	
9	0	0	0	0	507	408	
10	0	0	0	0	504	408	
11	0	0	0	0	501	408	
12	0	0	0	0	499	408	
13	0	0	0	0	498	408	
14	0	0	0	0	498	408	
15	0	0	0	0	498	409	
0	0	0	0	0	498	408	
1	0	0	0	0	499	408	
2	0	0	0	0	502	408	
3	0	0	0	0	503	409	
4	0	0	0	0	507	408	
5	0	0	0	0	510	409	
6	0	0	0	0	512	408	
7	0	0	0	0	513	409	
8	0	0	0	0	513	409	
9	0	0	0	0	513	408	
10	0	0	0	0	512	408	
11	0	0	0	0	511	408	
12	0	0	0	0	510	408	
13	0	0	0	0	508	408	
14	0	0	0	0	506	408	
15	0	0	0	0	503	409	
0	0	0	0	0	500	408	
1	0	0	0	0	498	408	
2	0	0	0	0	497	408	
3	0	0	0	0	496	408	
4	0	0	0	0	496	408	
5	0	0	0	0	496	408	
6	0	0	0	0	498	408	
7	0	0	0	0	500	407	
8	0	0	0	0	503	408	
9	0	0	0	0	505	407	
10	0	0	0	0	508	408	
11	0	0	0	0	510	408	
12	0	0	0	0	512	408	
13	0	0	0	0	513	408	
14	0	0	0	0	513	408	
15	0	0	0	0	513	408	
0	0	0	0	0	513	408	
1	0	0	0	0	512	408	
2	0	0	0	0	511	408	
3	0	0	0	0	509	409	
4	0	0	0	0	508	408	
5	0	0	0	0	507	408	
6	0	0	0	0	506	408	
7	0	0	0	0	506	408	
8	0	0	0	0	507	408	
9	0	0	0	0	507	408	
10	0	0	0	0	508	408	
11	0	0	0	0	510	408	
12	0	0	0	0	513	407	
13	0	0	0	0	516	408	
14	0	0	0	0	518	408	
15	0	0	0	0	520	408	
0	0	0	0	0	521	408	
1	0	0	0	0	522	408	
2	0	0	0	0	521	408	
3	0	0	0	0	520	408	
4	0	0	0	0	519	408	
5	0	0	0	0	517	407	
6	0	0	0	0	515	408	
7	0	0	0	0	512	408	
8	0	0	0	0	510	408	
9	0	0	0	0	508	407	
10	0	0	0	0	507	408	
11	0	0	0	0	508	409	
12	0	0	0	0	508	408	
13	0	0	0	0	509	407	
14	0	0	0	0	510	407	
15	0	0	0	0	512	408	
0	0	0	0	0	515	407	
1	0	0	0	0	517	407	
2	0	0	0	0	519	407	
3	0	0	0	0	519	408	
4	0	0	0	0	519	407	
5	0	0	0	0	519	407	
6	0	0	0	0	518	407	
7	0	0	0	0	517	407	
8	0	0	0	0	516	407	
9	0	0	0	0	513	407	
10	0	0	0	0	512	408	
11	0	0	0	0	510	408	
12	0	0	0	0	507	407	
13	0	0	0	0	504	407	
14	0	0	0	0	502	407	
15	0	0	0	0	501	407	
0	0	0	0	0	501	407	
1	0	0	0	0	503	407	
2	0	0	0	0	504	407	
3	0	0	0	0	506	408	
4	0	0	0	0	510	407	
5	0	0	0	0	512	408	
6	0	0	0	0	515	408	
7	0	0	0	0	516	407	
8	0	0	0	0	518	407	
9	0	0	0	0	519	408	
10	0	0	0	0	518	407	
11	0	0	0	0	517	408	
12	0	0	0	0	515	407	
13	0	0	0	0	513	406	
14	0	0	0	0	510	407	
15	0	0	0	0	507	407	
0	0	0	0	0	504	407	
1	0	0	0	0	503	408	
2	0	0	0	0	501	408	
3	0	0	0	0	501	408	
4	0	0	0	0	502	407	
5	0	0	0	0	503	408	
6	0	0	0	0	504	407	
7	0	0	0	0	506	407	
8	0	0	0	0	509	407	
9	0	0	0	0	511	407	
10	0	0	0	0	513	407	
11	0	0	0	0	515	407	
12	0	0	0	0	515	407	
13	0	0	0	0	516	408	
14	0	0	0	0	515	407	
15	0	0	0	0	514	407	
0	0	0	0	0	513	407	
1	0	0	0	0	511	407	
2	0	0	0	0	508	408	
3	0	0	0	0	505	408	
4	0	0	0	0	503	407	
5	0	0	0	0	502	408	
6	0	0	0	0	500	407	
7	0	0	0	0	500	408	
8	0	0	0	0	501	408	
9	0	0	0	0	502	408	
10	0	0	0	0	503	408	
11	0	0	0	0	505	408	
12	0	0	0	0	508	408	
13	0	0	0	0	510	409	
14	0	0	0	0	512	408	
15	0	0	0	0	514	409	
0	0	0	0	0	515	408	
1	0	0	0	0	515	408	
2	0	0	0	0	514	409	
3	0	0	0	0	513	409	
4	0	0	0	0	512	409	
5	0	0	0	0	511	408	
6	0	0	0	0	509	409	
7	0	0	0	0	506	409	
8	0	0	0	0	505	408	
9	0	0	0	0	504	409	
10	0	0	0	0	503	409	
11	0	0	0	0	502	409	
12	0	0	0	0	502	409	
13	0	0	0	0	503	409	
14	0	0	0	0	504	409	
15	0	0	0	0	505	409	
0	0	0	0	0	507	409	
1	0	0	0	0	510	410	
2	0	0	0	0	512	409	
3	0	0	0	0	513	410	
4	0	0	0	0	514	409	
5	0	0	0	0	515	409	
6	0	0	0	0	514	409	
7	0	0	0	0	513	409	
8	0	0	0	0	512	409	
9	0	0	0	0	510	409	
10	0	0	0	0	505	409	
11	0	0	0	0	499	409	
12	0	0	0	0	495	409	
13	0	0	0	0	490	409	
14	0	0	0	0	484	408	
15	0	0	0	0	480	409	
0	0	0	0	0	477	408	
1	0	0	0	0	476	409	
2	0	0	0	0	476	408	
3	0	0	0	0	479	409	
4	0	0	0	0	484	409	
5	0	0	0	0	489	409	
6	0	0	0	0	494	408	
7	0	0	0	0	499	408	
8	0	0	0	0	504	408	
9	0	0	0	0	507	408	
10	0	0	0	0	510	408	
11	0	0	0	0	512	409	
12	0	0	0	0	516	408	
13	0	0	0	0	520	408	
14	0	0	0	0	525	409	
15	0	0	0	0	529	409	
0	0	0	0	0	533	409	
1	0	0	0	0	536	409	
2	0	0	0	0	539	408	
3	0	0	0	0	542	410	
4	0	0	0	0	546	409	
5	0	0	0	0	553	408	
6	0	0	0	0	561	408	
7	0	0	0	0	571	409	
8	0	0	0	0	582	408	
9	0	0	0	0	593	408	
10	0	0	0	0	604	408	
11	0	0	0	0	614	408	
12	0	0	0	0	623	408	
13	0	0	0	0	630	408	
14	0	0	0	0	633	407	
15	0	0	0	0	639	407	
0	0	0	0	0	647	407	
1	0	0	0	0	657	407	
2	0	0	0	0	666	407	
3	0	0	0	0	671	407	
4	0	0	0	0	671	407	
5	0	0	0	0	667	407	
6	0	0	0	0	658	407	
7	0	0	0	0	647	408	
8	0	0	0	0	636	407	
9	0	0	0	0	624	407	
10	0	0	0	0	614	407	
11	0	0	0	0	603	408	
12	0	0	0	0	595	407	
13	0	0	0	0	587	407	
14	0	0	0	0	580	408	
15	0	0	0	0	572	407	
0	0	0	0	0	564	407	
1	0	0	0	0	557	407	
2	0	0	0	0	549	406	
3	0	0	0	0	541	407	
4	0	0	0	0	533	407	
5	0	0	0	0	524	407	
6	0	0	0	0	516	407	
7	0	0	0	0	508	408	
8	0	0	0	0	501	408	
9	0	0	0	0	496	407	
10	0	0	0	0	491	407	
11	0	0	0	0	487	408	
12	0	0	0	0	485	408	
13	0	0	0	0	484	407	
14	0	0	0	0	484	407	
15	0	0	0	0	484	408	
0	0	0	0	0	486	408	
1	0	0	0	0	488	407	
2	0	0	0	0	489	407	
3	0	0	0	0	489	408	
4	0	0	0	0	489	407	
5	0	0	0	0	489	407	
6	0	0	0	0	487	407	
7	0	0	0	0	486	407	
8	0	0	0	0	484	407	
9	0	0	0	0	481	407	
10	0	0	0	0	478	406	
11	0	0	0	0	475	407	
12	0	0	0	0	473	407	
13	0	0	0	0	472	407	
14	0	0	0	0	471	406	
15	0	0	0	0	471	407	
0	0	0	0	0	472	407	
1	0	0	0	0	473	407	
2	0	0	0	0	475	407	
3	0	0	0	0	477	407	
4	0	0	0	0	480	407	
5	0	0	0	0	483	407	
6	0	0	0	0	485	407	
7	0	0	0	0	487	408	
8	0	0	0	0	487	407	
9	0	0	0	0	488	407	
10	0	0	0	0	487	407	
11	0	0	0	0	487	408	
12	0	0	0	0	487	408	
13	0	0	0	0	485	408	
14	0	0	0	0	484	408	
15	0	0	0	0	481	408	
0	0	0	0	0	480	408	
1	0	0	0	0	479	408	
2	0	0	0	0	478	407	
3	0	0	0	0	478	408	
4	0	0	0	0	479	407	
5	0	0	0	0	480	408	
6	0	0	0	0	482	407	
7	0	0	0	0	484	408	
8	0	0	0	0	487	408	
9	0	0	0	0	490	408	
10	0	0	0	0	492	407	
11	0	0	0	0	494	408	
12	0	0	0	0	495	407	
13	0	0	0	0	496	407	
14	0	0	0	0	495	407	
15	0	0	0	0	495	408	
0	0	0	0	0	493	408	
1	0	0	0	0	492	407	
2	0	0	0	0	489	408	
3	0	0	0	0	487	408	
4	0	0	0	0	485	408	
5	0	0	0	0	484	408	
6	0	0	0	0	483	408	
7	0	0	0	0	483	408	
8	0	0	0	0	483	408	
9	0	0	0	0	484	408	
10	0	0	0	0	486	409	
11	0	0	0	0	487	409	
12	0	0	0	0	490	408	
13	0	0	0	0	492	409	
14	0	0	0	0	495	409	
15	0	0	0	0	496	409	
0	0	0	0	0	497	409	
1	0	0	0	0	498	409	
2	0	0	0	0	498	409	
3	0	0	0	0	497	409	
4	0	0	0	0	496	409	
5	0	0	0	0	494	409	
6	0	0	0	0	491	409	
7	0	0	0	0	488	409	
8	0	0	0	0	486	409	
9	0	0	0	0	485	409	
10	0	0	0	0	484	409	
11	0	0	0	0	485	410	
12	0	0	0	0	486	409	
13	0	0	0	0	487	409	
14	0	0	0	0	488	408	
15	0	0	0	0	490	408	
0	0	0	0	0	493	408	
1	0	0	0	0	496	408	
2	0	0	0	0	499	408	
3	0	0	0	0	501	409	
4	0	0	0	0	502	408	
5	0	0	0	0	503	409	
6	0	0	0	0	504	408	
7	0	0	0	0	504	408	
8	0	0	0	0	503	408	
9	0	0	0	0	501	409	
10	0	0	0	0	499	408	
11	0	0	0	0	496	409	
12	0	0	0	0	495	408	
13	0	0	0	0	493	408	
14	0	0	0	0	494	408	
15	0	0	0	0	494	408	
0	0	0	0	0	495	408	
1	0	0	0	0	496	408	
2	0	0	0	0	496	407	
3	0	0	0	0	498	408	
4	0	0	0	0	500	408	
5	0	0	0	0	504	408	
6	0	0	0	0	505	408	
7	0	0	0	0	506	408	
8	0	0	0	0	507	408	
9	0	0	0	0	506	408	
10	0	0	0	0	505	408	
11	0	0	0	0	504	409	
12	0	0	0	0	503	408	
13	0	0	0	0	501	408	
14	0	0	0	0	499	409	
15	0	0	0	0	497	409	
0	0	0	0	0	496	408	
1	0	0	0	0	494	408	
2	0	0	0	0	494	408	
3	0	0	0	0	494	409	
4	0	0	0	0	495	408	
5	0	0	0	0	496	408	
6	0	0	0	0	496	408	
7	0	0	0	0	498	409	
8	0	0	0	0	501	409	
9	0	0	0	0	504	408	
10	0	0	0	0	506	408	
11	0	0	0	0	507	409	
12	0	0	0	0	508	408	
13	0	0	0	0	508	409	
14	0	0	0	0	508	409	
15	0	0	0	0	507	409	
0	0	0	0	0	506	409	
1	0	0	0	0	504	408	
2	0	0	0	0	502	408	
3	0	0	0	0	498	409	
4	0	0	0	0	496	408	
5	0	0	0	0	494	409	
6	0	0	0	0	493	408	
7	0	0	0	0	493	408	
8	0	0	0	0	493	407	
9	0	0	0	0	494	408	
10	0	0	0	0	495	408	
11	0	0	0	0	497	408	
12	0	0	0	0	499	408	
13	0	0	0	0	502	408	
14	0	0	0	0	504	408	
15	0	0	0	0	505	408	
0	0	0	0	0	505	407	
1	0	0	0	0	505	407	
2	0	0	0	0	505	407	
3	0	0	0	0	504	408	
4	0	0	0	0	504	407	
5	0	0	0	0	502	407	
6	0	0	0	0	500	407	
7	0	0	0	0	497	408	
8	0	0	0	0	496	407	
9	0	0	0	0	495	407	
10	0	0	0	0	495	407	
11	0	0	0	0	496	408	
12	0	0	0	0	497	407	
13	0	0	0	0	499	407	
14	0	0	0	0	501	407	
15	0	0	0	0	504	408	
0	0	0	0	0	506	407	
1	0	0	0	0	508	406	
2	0	0	0	0	511	407	
3	0	0	0	0	512	408	
4	0	0	0	0	513	407	
5	0	0	0	0	514	407	
6	0	0	0	0	515	406	
7	0	0	0	0	514	407	
8	0	0	0	0	514	406	
9	0	0	0	0	513	406	
10	0	0	0	0	511	406	
11	0	0	0	0	509	406	
12	0	0	0	0	507	406	
13	0	0	0	0	506	406	
14	0	0	0	0	506	406	
15	0	0	0	0	507	406	
0	0	0	0	0	508	406	
1	0	0	0	0	509	406	
2	0	0	0	0	511	407	
3	0	0	0	0	513	407	
4	0	0	0	0	518	406	
5	0	0	0	0	521	407	
6	0	0	0	0	523	406	
7	0	0	0	0	524	406	
8	0	0	0	0	524	406	
9	0	0	0	0	524	407	
10	0	0	0	0	523	405	
11	0	0	0	0	521	407	
12	0	0	0	0	520	406	
13	0	0	0	0	517	407	
14	0	0	0	0	515	407	
15	0	0	0	0	513	408	
0	0	0	0	0	511	407	
1	0	0	0	0	510	407	
2	0	0	0	0	509	407	
3	0	0	0	0	510	408	
4	0	0	0	0	511	407	
5	0	0	0	0	512	407	
6	0	0	0	0	515	408	
7	0	0	0	0	517	407	
8	0	0	0	0	519	407	
9	0	0	0	0	522	407	
10	0	0	0	0	523	407	
11	0	0	0	0	524	408	
12	0	0	0	0	524	407	
13	0	0	0	0	524	408	
14	0	0	0	0	523	408	
15	0	0	0	0	521	408	
0	0	0	0	0	519	408	
1	0	0	0	0	517	407	
2	0	0	0	0	514	408	
3	0	0	0	0	512	409	
4	0	0	0	0	509	407	
5	0	0	0	0	508	408	
6	0	0	0	0	507	409	
7	0	0	0	0	507	409	
8	0	0	0	0	506	409	
9	0	0	0	0	507	409	
10	0	0	0	0	509	409	
11	0	0	0	0	510	409	
12	0	0	0	0	513	409	
13	0	0	0	0	515	409	
14	0	0	0	0	516	409	
15	0	0	0	0	518	409	
0	0	0	0	0	518	409	
1	0	0	0	0	517	409	
2	0	0	0	0	515	409	
3	0	0	0	0	514	410	
4	0	0	0	0	512	409	
5	0	0	0	0	509	409	
6	0	0	0	0	507	410	
7	0	0	0	0	504	410	
8	0	0	0	0	501	410	
9	0	0	0	0	499	410	
10	0	0	0	0	498	410	
11	0	0	0	0	497	411	
12	0	0	0	0	497	409	
13	0	0	0	0	498	409	
14	0	0	0	0	499	410	
15	0	0	0	0	500	410	
0	0	0	0	0	503	410	
1	0	0	0	0	505	411	
2	0	0	0	0	507	410	
3	0	0	0	0	508	411	
4	0	0	0	0	509	410	
5	0	0	0	0	510	410	
6	0	0	0	0	509	410	
7	0	0	0	0	508	410	
8	0	0	0	0	507	410	
9	0	0	0	0	506	410	
10	0	0	0	0	503	410	
11	0	0	0	0	500	410	
12	0	0	0	0	499	410	
13	0	0	0	0	498	409	
14	0	0	0	0	497	409	
15	0	0	0	0	497	410	
0	0	0	0	0	497	410	
1	0	0	0	0	498	410	
2	0	0	0	0	499	409	
3	0	0	0	0	501	410	
4	0	0	0	0	504	409	
5	0	0	0	0	505	409	
6	0	0	0	0	507	409	
7	0	0	0	0	507	409	
8	0	0	0	0	507	409	
9	0	0	0	0	506	409	
10	0	0	0	0	505	409	
11	0	0	0	0	504	409	
12	0	0	0	0	503	409	
13	0	0	0	0	501	408	
14	0	0	0	0	499	409	
15	0	0	0	0	496	409	
0	0	0	0	0	495	409	
1	0	0	0	0	494	408	
2	0	0	0	0	494	408	
3	0	0	0	0	495	409	
4	0	0	0	0	496	408	
5	0	0	0	0	498	408	
6	0	0	0	0	500	408	
7	0	0	0	0	503	408	
8	0	0	0	0	505	408	
9	0	0	0	0	508	408	
10	0	0	0	0	511	408	
11	0	0	0	0	513	409	
12	0	0	0	0	514	408	
13	0	0	0	0	515	408	
14	0	0	0	0	515	408	
15	0	0	0	0	515	408	
0	0	0	0	0	514	408	
1	0	0	0	0	512	407	
2	0	0	0	0	510	408	
3	0	0	0	0	508	408	
4	0	0	0	0	506	408	
5	0	0	0	0	505	408	
6	0	0	0	0	505	408	
7	0	0	0	0	506	409	
8	0	0	0	0	507	408	
9	0	0	0	0	507	408	
10	0	0	0	0	508	408	
11	0	0	0	0	510	408	
12	0	0	0	0	512	408	
13	0	0	0	0	514	407	
14	0	0	0	0	516	407	
15	0	0	0	0	517	407	
0	0	0	0	0	517	407	
1	0	0	0	0	518	407	
2	0	0	0	0	517	407	
3	0	0	0	0	517	408	
4	0	0	0	0	515	407	
5	0	0	0	0	513	407	
6	0	0	0	0	511	408	
7	0	0	0	0	509	407	
8	0	0	0	0	507	407	
9	0	0	0	0	506	407	
10	0	0	0	0	505	407	
11	0	0	0	0	506	408	
12	0	0	0	0	506	407	
13	0	0	0	0	506	407	
14	0	0	0	0	507	407	
15	0	0	0	0	508	407	
0	0	0	0	0	511	407	
1	0	0	0	0	513	407	
2	0	0	0	0	515	406	
3	0	0	0	0	518	407	
4	0	0	0	0	519	407	
5	0	0	0	0	520	406	
6	0	0	0	0	520	407	
7	0	0	0	0	520	406	
8	0	0	0	0	519	407	
9	0	0	0	0	517	406	
10	0	0	0	0	515	406	
11	0	0	0	0	512	407	
12	0	0	0	0	510	406	
13	0	0	0	0	509	406	
14	0	0	0	0	509	406	
15	0	0	0	0	509	407	
0	0	0	0	0	508	406	
1	0	0	0	0	509	406	
2	0	0	0	0	510	406	
3	0	0	0	0	511	407	
4	0	0	0	0	514	406	
5	0	0	0	0	516	406	
6	0	0	0	0	518	407	
7	0	0	0	0	519	406	
8	0	0	0	0	520	407	
9	0	0	0	0	520	407	
10	0	0	0	0	519	406	
11	0	0	0	0	518	408	
12	0	0	0	0	516	407	
13	0	0	0	0	514	407	
14	0	0	0	0	512	407	
15	0	0	0	0	509	407	
0	0	0	0	0	507	407	
1	0	0	0	0	506	408	
2	0	0	0	0	505	407	
3	0	0	0	0	506	408	
4	0	0	0	0	507	408	
5	0	0	0	0	508	408	
6	0	0	0	0	508	408	
7	0	0	0	0	510	408	
8	0	0	0	0	512	408	
9	0	0	0	0	514	408	
10	0	0	0	0	516	407	
11	0	0	0	0	518	408	
12	0	0	0	0	519	408	
13	0	0	0	0	519	408	
14	0	0	0	0	518	408	
15	0	0	0	0	518	409	
0	0	0	0	0	517	408	
1	0	0	0	0	516	409	
2	0	0	0	0	513	409	
3	0	0	0	0	511	410	
4	0	0	0	0	509	409	
5	0	0	0	0	508	409	
6	0	0	0	0	507	409	
7	0	0	0	0	506	410	
8	0	0	0	0	506	409	
9	0	0	0	0	507	410	
10	0	0	0	0	509	409	
11	0	0	0	0	511	410	
12	0	0	0	0	513	410	
13	0	0	0	0	516	409	
14	0	0	0	0	519	409	
15	0	0	0	0	521	409	
0	0	0	0	0	522	409	
1	0	0	0	0	522	410	
2	0	0	0	0	521	409	
3	0	0	0	0	520	410	
4	0	0	0	0	518	409	
5	0	0	0	0	516	408	
6	0	0	0	0	513	409	
7	0	0	0	0	511	409	
8	0	0	0	0	510	409	
9	0	0	0	0	509	409	
10	0	0	0	0	508	408	
11	0	0	0	0	509	409	
12	0	0	0	0	509	409	
13	0	0	0	0	510	409	
14	0	0	0	0	512	409	
15	0	0	0	0	513	409	
0	0	0	0	0	518	409	
1	0	0	0	0	520	408	
2	0	0	0	0	522	408	
3	0	0	0	0	523	408	
4	0	0	0	0	523	408	
5	0	0	0	0	524	409	
6	0	0	0	0	524	409	
7	0	0	0	0	524	409	
8	0	0	0	0	523	408	
9	0	0	0	0	521	409	
10	0	0	0	0	519	409	
11	0	0	0	0	518	408	
12	0	0	0	0	516	408	
13	0	0	0	0	515	408	
14	0	0	0	0	513	408	
15	0	0	0	0	514	408	
0	0	0	0	0	514	408	
1	0	0	0	0	515	408	
2	0	0	0	0	515	407	
3	0	0	0	0	518	408	
4	0	0	0	0	521	408	
5	0	0	0	0	524	408	
6	0	0	0	0	527	408	
7	0	0	0	0	528	408	
8	0	0	0	0	530	408	
9	0	0	0	0	530	408	
10	0	0	0	0	529	408	
11	0	0	0	0	528	408	
12	0	0	0	0	527	408	
13	0	0	0	0	525	408	
14	0	0	0	0	523	408	
15	0	0	0	0	520	408	
0	0	0	0	0	519	408	
1	0	0	0	0	517	408	
2	0	0	0	0	516	408	
3	0	0	0	0	516	408	
4	0	0	0	0	515	407	
5	0	0	0	0	516	407	
6	0	0	0	0	517	406	
7	0	0	0	0	519	407	
8	0	0	0	0	523	407	
9	0	0	0	0	526	406	
10	0	0	0	0	528	406	
11	0	0	0	0	530	407	
12	0	0	0	0	531	407	
13	0	0	0	0	531	406	
14	0	0	0	0	531	405	
15	0	0	0	0	531	406	
0	0	0	0	0	531	406	
1	0	0	0	0	529	406	
2	0	0	0	0	527	406	
3	0	0	0	0	525	407	
4	0	0	0	0	523	406	
5	0	0	0	0	523	406	
6	0	0	0	0	522	406	
7	0	0	0	0	523	407	
8	0	0	0	0	524	406	
9	0	0	0	0	525	406	
10	0	0	0	0	526	406	
11	0	0	0	0	528	407	
12	0	0	0	0	531	407	
13	0	0	0	0	533	407	
14	0	0	0	0	535	407	
15	0	0	0	0	535	407	
0	0	0	0	0	535	407	
1	0	0	0	0	534	407	
2	0	0	0	0	533	407	
3	0	0	0	0	531	408	
4	0	0	0	0	528	407	
5	0	0	0	0	526	407	
6	0	0	0	0	523	407	
7	0	0	0	0	520	408	
8	0	0	0	0	519	408	
9	0	0	0	0	517	408	
10	0	0	0	0	516	408	
11	0	0	0	0	517	409	
12	0	0	0	0	517	408	
13	0	0	0	0	519	408	
14	0	0	0	0	520	408	
15	0	0	0	0	523	408	
0	0	0	0	0	527	408	
1	0	0	0	0	531	408	
2	0	0	0	0	533	408	
3	0	0	0	0	535	408	
4	0	0	0	0	535	408	
5	0	0	0	0	535	408	
6	0	0	0	0	534	407	
7	0	0	0	0	532	408	
8	0	0	0	0	530	408	
9	0	0	0	0	528	408	
10	0	0	0	0	525	408	
11	0	0	0	0	522	409	
12	0	0	0	0	519	407	
13	0	0	0	0	518	408	
14	0	0	0	0	517	408	
15	0	0	0	0	517	408	
0	0	0	0	0	516	408	
1	0	0	0	0	517	408	
2	0	0	0	0	518	408	
3	0	0	0	0	519	408	
4	0	0	0	0	522	408	
5	0	0	0	0	525	408	
6	0	0	0	0	527	408	
7	0	0	0	0	527	409	
8	0	0	0	0	527	408	
9	0	0	0	0	527	408	
10	0	0	0	0	527	408	
11	0	0	0	0	525	409	
12	0	0	0	0	523	408	
13	0	0	0	0	521	408	
14	0	0	0	0	518	408	
15	0	0	0	0	515	409	
0	0	0	0	0	513	408	
1	0	0	0	0	512	408	
2	0	0	0	0	511	408	
3	0	0	0	0	511	409	
4	0	0	0	0	512	408	
5	0	0	0	0	513	408	
6	0	0	0	0	514	408	
7	0	0	0	0	515	408	
8	0	0	0	0	518	409	
9	0	0	0	0	520	408	
10	0	0	0	0	522	409	
11	0	0	0	0	523	409	
12	0	0	0	0	523	408	
13	0	0	0	0	523	409	
14	0	0	0	0	522	409	
15	0	0	0	0	522	409	
0	0	0	0	0	521	409	
1	0	0	0	0	519	409	
2	0	0	0	0	517	409	
3	0	0	0	0	514	410	
4	0	0	0	0	512	409	
5	0	0	0	0	511	409	
6	0	0	0	0	510	409	
7	0	0	0	0	510	409	
8	0	0	0	0	509	408	
9	0	0	0	0	509	408	
10	0	0	0	0	511	408	
11	0	0	0	0	512	409	
12	0	0	0	0	516	409	
13	0	0	0	0	519	409	
14	0	0	0	0	522	408	
15	0	0	0	0	524	408	
0	0	0	0	0	525	408	
1	0	0	0	0	524	408	
2	0	0	0	0	522	408	
3	0	0	0	0	520	408	
4	0	0	0	0	518	408	
5	0	0	0	0	516	408	
6	0	0	0	0	514	408	
7	0	0	0	0	511	408	
8	0	0	0	0	510	408	
9	0	0	0	0	509	408	
10	0	0	0	0	509	408	
11	0	0	0	0	510	409	
12	0	0	0	0	510	408	
13	0	0	0	0	511	408	
14	0	0	0	0	513	408	
15	0	0	0	0	515	408	
0	0	0	0	0	517	408	
1	0	0	0	0	519	407	
2	0	0	0	0	520	407	
3	0	0	0	0	521	408	
4	0	0	0	0	523	407	
5	0	0	0	0	523	408	
6	0	0	0	0	522	407	
7	0	0	0	0	519	408	
8	0	0	0	0	518	408	
9	0	0	0	0	515	407	
10	0	0	0	0	512	408	
11	0	0	0	0	509	409	
12	0	0	0	0	508	408	
13	0	0	0	0	507	408	
14	0	0	0	0	507	407	
15	0	0	0	0	508	408	
0	0	0	0	0	509	407	
1	0	0	0	0	511	408	
2	0	0	0	0	512	407	
3	0	0	0	0	513	408	
4	0	0	0	0	516	408	
5	0	0	0	0	518	407	
6	0	0	0	0	520	408	
7	0	0	0	0	521	407	
8	0	0	0	0	520	407	
9	0	0	0	0	519	408	
10	0	0	0	0	518	408	
11	0	0	0	0	517	408	
12	0	0	0	0	515	407	
13	0	0	0	0	513	408	
14	0	0	0	0	511	408	
15	0	0	0	0	508	408	
0	0	0	0	0	507	408	
1	0	0	0	0	507	408	
2	0	0	0	0	506	407	
3	0	0	0	0	507	408	
4	0	0	0	0	507	408	
5	0	0	0	0	507	408	
6	0	0	0	0	508	408	
7	0	0	0	0	510	408	
8	0	0	0	0	513	408	
9	0	0	0	0	516	408	
10	0	0	0	0	518	408	
11	0	0	0	0	520	408	
12	0	0	0	0	521	408	
13	0	0	0	0	522	407	
14	0	0	0	0	522	408	
15	0	0	0	0	521	408	
0	0	0	0	0	520	407	
1	0	0	0	0	518	408	
2	0	0	0	0	515	408	
3	0	0	0	0	511	408	
4	0	0	0	0	510	407	
5	0	0	0	0	508	407	
6	0	0	0	0	508	408	
7	0	0	0	0	508	407	
8	0	0	0	0	507	407	
9	0	0	0	0	508	407	
10	0	0	0	0	509	407	
11	0	0	0	0	511	408	
12	0	0	0	0	513	408	
13	0	0	0	0	516	407	
14	0	0	0	0	519	408	
15	0	0	0	0	520	408	
0	0	0	0	0	521	407	
1	0	0	0	0	521	408	
2	0	0	0	0	520	408	
3	0	0	0	0	518	408	
4	0	0	0	0	517	407	
5	0	0	0	0	515	407	
6	0	0	0	0	513	407	
7	0	0	0	0	510	407	
8	0	0	0	0	508	407	
9	0	0	0	0	507	407	
10	0	0	0	0	506	408	
11	0	0	0	0	506	408	
12	0	0	0	0	506	407	
13	0	0	0	0	506	407	
14	0	0	0	0	507	408	
15	0	0	0	0	508	408	
0	0	0	0	0	511	407	
1	0	0	0	0	513	407	
2	0	0	0	0	514	407	
3	0	0	0	0	515	408	
4	0	0	0	0	516	407	
5	0	0	0	0	515	408	
6	0	0	0	0	515	408	
7	0	0	0	0	515	409	
8	0	0	0	0	513	408	
9	0	0	0	0	511	408	
10	0	0	0	0	508	408	
11	0	0	0	0	504	409	
12	0	0	0	0	502	408	
13	0	0	0	0	498	408	
14	0	0	0	0	496	408	
15	0	0	0	0	496	408	
0	0	0	0	0	496	407	
1	0	0	0	0	496	407	
2	0	0	0	0	497	408	
3	0	0	0	0	501	408	
4	0	0	0	0	504	408	
5	0	0	0	0	508	408	
6	0	0	0	0	510	408	
7	0	0	0	0	510	408	
8	0	0	0	0	509	408	
9	0	0	0	0	507	408	
10	0	0	0	0	504	408	
11	0	0	0	0	500	409	
12	0	0	0	0	495	408	
13	0	0	0	0	487	408	
14	0	0	0	0	480	408	
15	0	0	0	0	472	409	
0	0	0	0	0	465	408	
1	0	0	0	0	461	408	
2	0	0	0	0	459	409	
3	0	0	0	0	459	409	
4	0	0	0	0	462	408	
5	0	0	0	0	465	408	
6	0	0	0	0	470	408	
7	0	0	0	0	476	408	
8	0	0	0	0	484	408	
9	0	0	0	0	492	409	
10	0	0	0	0	499	408	
11	0	0	0	0	505	409	
12	0	0	0	0	512	409	
13	0	0	0	0	521	409	
14	0	0	0	0	529	408	
15	0	0	0	0	537	408	
0	0	0	0	0	543	408	
1	0	0	0	0	548	408	
2	0	0	0	0	551	408	
3	0	0	0	0	552	408	
4	0	0	0	0	556	408	
5	0	0	0	0	560	408	
6	0	0	0	0	568	408	
7	0	0	0	0	576	408	
8	0	0	0	0	585	409	
9	0	0	0	0	592	408	
10	0	0	0	0	599	408	
11	0	0	0	0	605	409	
12	0	0	0	0	611	408	
13	0	0	0	0	613	408	
14	0	0	0	0	615	407	
15	0	0	0	0	618	408	
0	0	0	0	0	620	407	
1	0	0	0	0	623	408	
2	0	0	0	0	625	408	
3	0	0	0	0	625	408	
4	0	0	0	0	622	408	
5	0	0	0	0	615	408	
6	0	0	0	0	606	408	
7	0	0	0	0	595	408	
8	0	0	0	0	585	408	
9	0	0	0	0	576	408	
10	0	0	0	0	567	408	
11	0	0	0	0	561	408	
12	0	0	0	0	554	408	
13	0	0	0	0	548	408	
14	0	0	0	0	544	408	
15	0	0	0	0	541	408	
0	0	0	0	0	539	409	
1	0	0	0	0	536	408	
2	0	0	0	0	534	408	
3	0	0	0	0	530	409	
4	0	0	0	0	525	408	
5	0	0	0	0	521	408	
6	0	0	0	0	515	408	
7	0	0	0	0	510	408	
8	0	0	0	0	505	408	
9	0	0	0	0	500	407	
10	0	0	0	0	495	407	
11	0	0	0	0	489	408	
12	0	0	0	0	485	407	
13	0	0	0	0	481	407	
14	0	0	0	0	479	407	
15	0	0	0	0	477	408	
0	0	0	0	0	476	407	
1	0	0	0	0	476	407	
2	0	0	0	0	477	408	
3	0	0	0	0	479	407	
4	0	0	0	0	481	407	
5	0	0	0	0	483	408	
6	0	0	0	0	484	407	
7	0	0	0	0	485	407	
8	0	0	0	0	485	407	
9	0	0	0	0	485	407	
10	0	0	0	0	484	408	
11	0	0	0	0	484	408	
12	0	0	0	0	482	407	
13	0	0	0	0	480	407	
14	0	0	0	0	478	408	
15	0	0	0	0	475	408	
0	0	0	0	0	473	407	
1	0	0	0	0	472	408	
2	0	0	0	0	472	408	
3	0	0	0	0	473	408	
4	0	0	0	0	473	408	
5	0	0	0	0	475	408	
6	0	0	0	0	476	408	
7	0	0	0	0	478	408	
8	0	0	0	0	481	408	
9	0	0	0	0	484	408	
10	0	0	0	0	487	408	
11	0	0	0	0	488	408	
12	0	0	0	0	489	408	
13	0	0	0	0	490	408	
14	0	0	0	0	490	408	
15	0	0	0	0	489	409	
0	0	0	0	0	487	408	
1	0	0	0	0	485	408	
2	0	0	0	0	483	408	
3	0	0	0	0	481	409	
4	0	0	0	0	479	408	
5	0	0	0	0	479	408	
6	0	0	0	0	479	408	
7	0	0	0	0	480	408	
8	0	0	0	0	480	408	
9	0	0	0	0	481	408	
10	0	0	0	0	483	408	
11	0	0	0	0	485	409	
12	0	0	0	0	488	408	
13	0	0	0	0	491	408	
14	0	0	0	0	492	409	
15	0	0	0	0	494	408	
0	0	0	0	0	495	408	
1	0	0	0	0	495	408	
2	0	0	0	0	494	408	
3	0	0	0	0	493	409	
4	0	0	0	0	493	409	
5	0	0	0	0	490	408	
6	0	0	0	0	488	408	
7	0	0	0	0	486	408	
8	0	0	0	0	486	408	
9	0	0	0	0	485	408	
10	0	0	0	0	484	408	
11	0	0	0	0	485	409	
12	0	0	0	0	486	408	
13	0	0	0	0	487	408	
14	0	0	0	0	488	408	
15	0	0	0	0	490	409	
0	0	0	0	0	494	408	
1	0	0	0	0	496	408	
2	0	0	0	0	498	408	
3	0	0	0	0	499	409	
4	0	0	0	0	499	408	
5	0	0	0	0	499	408	
6	0	0	0	0	499	408	
7	0	0	0	0	497	408	
8	0	0	0	0	496	408	
9	0	0	0	0	494	408	
10	0	0	0	0	490	408	
11	0	0	0	0	487	409	
12	0	0	0	0	485	408	
13	0	0	0	0	483	408	
14	0	0	0	0	483	408	
15	0	0	0	0	483	409	
0	0	0	0	0	484	408	
1	0	0	0	0	485	408	
2	0	0	0	0	487	408	
3	0	0	0	0	488	409	
4	0	0	0	0	492	408	
5	0	0	0	0	496	408	
6	0	0	0	0	498	408	
7	0	0	0	0	500	408	
8	0	0	0	0	500	408	
9	0	0	0	0	501	408	
10	0	0	0	0	502	408	
11	0	0	0	0	500	409	
12	0	0	0	0	499	408	
13	0	0	0	0	497	408	
14	0	0	0	0	495	408	
15	0	0	0	0	492	409	
0	0	0	0	0	490	409	
1	0	0	0	0	489	408	
2	0	0	0	0	488	408	
3	0	0	0	0	489	409	
4	0	0	0	0	489	409	
5	0	0	0	0	491	409	
6	0	0	0	0	491	409	
7	0	0	0	0	494	408	
8	0	0	0	0	497	408	
9	0	0	0	0	500	408	
10	0	0	0	0	502	408	
11	0	0	0	0	502	408	
12	0	0	0	0	502	407	
13	0	0	0	0	502	408	
14	0	0	0	0	502	407	
15	0	0	0	0	501	408	
0	0	0	0	0	499	407	
1	0	0	0	0	496	407	
2	0	0	0	0	493	408	
3	0	0	0	0	489	408	
4	0	0	0	0	487	407	
5	0	0	0	0	486	407	
6	0	0	0	0	487	408	
7	0	0	0	0	488	407	
8	0	0	0	0	490	407	
9	0	0	0	0	492	408	
10	0	0	0	0	494	407	
11	0	0	0	0	497	408	
12	0	0	0	0	500	408	
13	0	0	0	0	504	408	
14	0	0	0	0	507	408	
15	0	0	0	0	509	408	
0	0	0	0	0	510	407	
1	0	0	0	0	510	408	
2	0	0	0	0	510	408	
3	0	0	0	0	509	409	
4	0	0	0	0	508	408	
5	0	0	0	0	506	407	
6	0	0	0	0	504	408	
7	0	0	0	0	502	407	
8	0	0	0	0	501	407	
9	0	0	0	0	500	408	
10	0	0	0	0	500	407	
11	0	0	0	0	500	408	
12	0	0	0	0	502	407	
13	0	0	0	0	502	408	
14	0	0	0	0	504	407	
15	0	0	0	0	506	408	
0	0	0	0	0	509	408	
1	0	0	0	0	512	407	
2	0	0	0	0	514	407	
3	0	0	0	0	516	408	
4	0	0	0	0	518	407	
5	0	0	0	0	518	407	
6	0	0	0	0	518	407	
7	0	0	0	0	516	408	
8	0	0	0	0	514	407	
9	0	0	0	0	511	407	
10	0	0	0	0	509	407	
11	0	0	0	0	507	408	
12	0	0	0	0	505	408	
13	0	0	0	0	504	407	
14	0	0	0	0	504	407	
15	0	0	0	0	505	407	
0	0	0	0	0	507	407	
1	0	0	0	0	510	407	
2	0	0	0	0	512	407	
3	0	0	0	0	515	408	
4	0	0	0	0	519	407	
5	0	0	0	0	523	407	
6	0	0	0	0	525	406	
7	0	0	0	0	527	407	
8	0	0	0	0	527	407	
9	0	0	0	0	527	407	
10	0	0	0	0	526	407	
11	0	0	0	0	524	407	
12	0	0	0	0	523	407	
13	0	0	0	0	520	407	
14	0	0	0	0	517	406	
15	0	0	0	0	515	406	
0	0	0	0	0	513	406	
1	0	0	0	0	512	406	
2	0	0	0	0	511	406	
3	0	0	0	0	512	407	
4	0	0	0	0	513	407	
5	0	0	0	0	514	406	
6	0	0	0	0	516	406	
7	0	0	0	0	519	406	
8	0	0	0	0	522	407	
9	0	0	0	0	525	406	
10	0	0	0	0	527	407	
11	0	0	0	0	528	407	
12	0	0	0	0	528	406	
13	0	0	0	0	527	407	
14	0	0	0	0	526	407	
15	0	0	0	0	525	407	
0	0	0	0	0	523	407	
1	0	0	0	0	521	407	
2	0	0	0	0	519	408	
3	0	0	0	0	516	408	
4	0	0	0	0	515	408	
5	0	0	0	0	514	408	
6	0	0	0	0	513	408	
7	0	0	0	0	513	409	
8	0	0	0	0	513	409	
9	0	0	0	0	513	408	
10	0	0	0	0	514	409	
11	0	0	0	0	516	409	
12	0	0	0	0	519	409	
13	0	0	0	0	521	409	
14	0	0	0	0	522	408	
15	0	0	0	0	523	409	
0	0	0	0	0	523	409	
1	0	0	0	0	522	409	
2	0	0	0	0	521	409	
3	0	0	0	0	520	409	
4	0	0	0	0	519	408	
5	0	0	0	0	516	408	
6	0	0	0	0	512	408	
7	0	0	0	0	510	408	
8	0	0	0	0	508	409	
9	0	0	0	0	507	409	
10	0	0	0	0	505	408	
11	0	0	0	0	506	409	
12	0	0	0	0	506	409	
13	0	0	0	0	506	408	
14	0	0	0	0	507	408	
15	0	0	0	0	509	408	
0	0	0	0	0	511	408	
1	0	0	0	0	514	408	
2	0	0	0	0	515	408	
3	0	0	0	0	515	409	
4	0	0	0	0	515	409	
5	0	0	0	0	513	408	
6	0	0	0	0	512	408	
7	0	0	0	0	511	409	
8	0	0	0	0	508	409	
9	0	0	0	0	505	409	
10	0	0	0	0	502	409	
11	0	0	0	0	498	410	
12	0	0	0	0	495	410	
13	0	0	0	0	494	410	
14	0	0	0	0	492	409	
15	0	0	0	0	492	410	
0	0	0	0	0	492	409	
1	0	0	0	0	492	410	
2	0	0	0	0	494	409	
3	0	0	0	0	496	410	
4	0	0	0	0	499	410	
5	0	0	0	0	500	409	
6	0	0	0	0	501	409	
7	0	0	0	0	502	410	
8	0	0	0	0	502	410	
9	0	0	0	0	502	410	
10	0	0	0	0	502	410	
11	0	0	0	0	502	411	
12	0	0	0	0	501	410	
13	0	0	0	0	499	410	
14	0	0	0	0	498	409	
15	0	0	0	0	496	411	
0	0	0	0	0	494	410	
1	0	0	0	0	493	410	
2	0	0	0	0	492	409	
3	0	0	0	0	492	410	
4	0	0	0	0	492	410	
5	0	0	0	0	492	409	
6	0	0	0	0	492	409	
7	0	0	0	0	494	409	
8	0	0	0	0	497	409	
9	0	0	0	0	501	408	
10	0	0	0	0	504	408	
11	0	0	0	0	505	408	
12	0	0	0	0	506	408	
13	0	0	0	0	507	408	
14	0	0	0	0	506	408	
15	0	0	0	0	504	408	
0	0	0	0	0	503	408	
1	0	0	0	0	500	408	
2	0	0	0	0	498	407	
3	0	0	0	0	494	408	
4	0	0	0	0	493	407	
5	0	0	0	0	491	408	
6	0	0	0	0	490	407	
7	0	0	0	0	490	408	
8	0	0	0	0	490	408	
9	0	0	0	0	491	408	
10	0	0	0	0	492	408	
11	0	0	0	0	495	408	
12	0	0	0	0	498	408	
13	0	0	0	0	502	408	
14	0	0	0	0	504	408	
15	0	0	0	0	506	408	
0	0	0	0	0	507	407	
1	0	0	0	0	507	407	
2	0	0	0	0	506	407	
3	0	0	0	0	506	408	
4	0	0	0	0	504	407	
5	0	0	0	0	502	407	
6	0	0	0	0	500	407	
7	0	0	0	0	497	407	
8	0	0	0	0	495	407	
9	0	0	0	0	492	407	
10	0	0	0	0	491	407	
11	0	0	0	0	492	408	
12	0	0	0	0	493	406	
13	0	0	0	0	494	407	
14	0	0	0	0	496	408	
15	0	0	0	0	497	407	
0	0	0	0	0	500	407	
1	0	0	0	0	502	406	
2	0	0	0	0	504	406	
3	0	0	0	0	506	407	
4	0	0	0	0	507	406	
5	0	0	0	0	507	406	
6	0	0	0	0	505	406	
7	0	0	0	0	505	406	
8	0	0	0	0	504	406	
9	0	0	0	0	502	406	
10	0	0	0	0	498	406	
11	0	0	0	0	495	407	
12	0	0	0	0	494	406	
13	0	0	0	0	493	406	
14	0	0	0	0	492	406	
15	0	0	0	0	492	406	
0	0	0	0	0	492	407	
1	0	0	0	0	493	406	
2	0	0	0	0	494	407	
3	0	0	0	0	496	406	
4	0	0	0	0	499	407	
5	0	0	0	0	502	406	
6	0	0	0	0	504	406	
7	0	0	0	0	505	406	
8	0	0	0	0	506	406	
9	0	0	0	0	507	406	
10	0	0	0	0	507	406	
11	0	0	0	0	506	407	
12	0	0	0	0	505	406	
13	0	0	0	0	502	407	
14	0	0	0	0	500	407	
15	0	0	0	0	498	407	
0	0	0	0	0	496	406	
1	0	0	0	0	494	407	
2	0	0	0	0	493	406	
3	0	0	0	0	492	407	
4	0	0	0	0	494	406	
5	0	0	0	0	495	407	
6	0	0	0	0	498	407	
7	0	0	0	0	501	407	
8	0	0	0	0	504	407	
9	0	0	0	0	508	407	
10	0	0	0	0	511	407	
11	0	0	0	0	512	408	
12	0	0	0	0	513	407	
13	0	0	0	0	514	408	
14	0	0	0	0	512	408	
15	0	0	0	0	511	408	
0	0	0	0	0	509	408	
1	0	0	0	0	506	408	
2	0	0	0	0	503	408	
3	0	0	0	0	501	410	
4	0	0	0	0	500	409	
5	0	0	0	0	499	409	
6	0	0	0	0	499	408	
7	0	0	0	0	500	409	
8	0	0	0	0	502	409	
9	0	0	0	0	504	409	
10	0	0	0	0	505	408	
11	0	0	0	0	508	410	
12	0	0	0	0	512	409	
13	0	0	0	0	515	409	
14	0	0	0	0	516	409	
15	0	0	0	0	518	409	
0	0	0	0	0	518	409	
1	0	0	0	0	518	409	
2	0	0	0	0	517	408	
3	0	0	0	0	517	409	
4	0	0	0	0	516	409	
5	0	0	0	0	515	408	
6	0	0	0	0	512	409	
7	0	0	0	0	510	409	
8	0	0	0	0	506	409	
9	0	0	0	0	504	409	
10	0	0	0	0	502	409	
11	0	0	0	0	502	410	
12	0	0	0	0	502	409	
13	0	0	0	0	503	410	
14	0	0	0	0	505	410	
15	0	0	0	0	508	410	
0	0	0	0	0	511	411	
1	0	0	0	0	514	409	
2	0	0	0	0	516	409	
3	0	0	0	0	517	410	
4	0	0	0	0	518	409	
5	0	0	0	0	518	409	
6	0	0	0	0	517	410	
7	0	0	0	0	515	411	
8	0	0	0	0	514	410	
9	0	0	0	0	511	409	
10	0	0	0	0	508	409	
11	0	0	0	0	505	410	
12	0	0	0	0	504	409	
13	0	0	0	0	502	409	
14	0	0	0	0	502	409	
15	0	0	0	0	502	409	
0	0	0	0	0	503	409	
1	0	0	0	0	504	409	
2	0	0	0	0	507	409	
3	0	0	0	0	509	409	
4	0	0	0	0	513	408	
5	0	0	0	0	516	408	
6	0	0	0	0	518	408	
7	0	0	0	0	519	409	
8	0	0	0	0	519	408	
9	0	0	0	0	519	408	
10	0	0	0	0	518	407	
11	0	0	0	0	518	408	
12	0	0	0	0	517	408	
13	0	0	0	0	515	407	
14	0	0	0	0	513	408	
15	0	0	0	0	510	408	
0	0	0	0	0	507	407	
1	0	0	0	0	506	407	
2	0	0	0	0	505	407	
3	0	0	0	0	505	408	
4	0	0	0	0	506	407	
5	0	0	0	0	507	407	
6	0	0	0	0	509	407	
7	0	0	0	0	511	407	
8	0	0	0	0	513	407	
9	0	0	0	0	515	406	
10	0	0	0	0	517	406	
11	0	0	0	0	518	407	
12	0	0	0	0	518	406	
13	0	0	0	0	517	407	
14	0	0	0	0	516	407	
15	0	0	0	0	514	407	
0	0	0	0	0	512	407	
1	0	0	0	0	511	407	
2	0	0	0	0	508	407	
3	0	0	0	0	507	407	
4	0	0	0	0	505	407	
5	0	0	0	0	505	407	
6	0	0	0	0	504	407	
7	0	0	0	0	504	407	
8	0	0	0	0	505	407	
9	0	0	0	0	507	408	
10	0	0	0	0	509	407	
11	0	0	0	0	512	408	
12	0	0	0	0	515	407	
13	0	0	0	0	517	407	
14	0	0	0	0	519	407	
15	0	0	0	0	520	407	
0	0	0	0	0	520	407	
1	0	0	0	0	519	407	
2	0	0	0	0	518	407	
3	0	0	0	0	516	407	
4	0	0	0	0	515	407	
5	0	0	0	0	511	408	
6	0	0	0	0	508	407	
7	0	0	0	0	505	407	
8	0	0	0	0	504	407	
9	0	0	0	0	503	407	
10	0	0	0	0	503	407	
11	0	0	0	0	503	408	
12	0	0	0	0	503	408	
13	0	0	0	0	504	408	
14	0	0	0	0	506	407	
15	0	0	0	0	509	407	
0	0	0	0	0	513	407	
1	0	0	0	0	515	406	
2	0	0	0	0	518	407	
3	0	0	0	0	519	408	
4	0	0	0	0	519	407	
5	0	0	0	0	519	407	
6	0	0	0	0	518	407	
7	0	0	0	0	517	407	
8	0	0	0	0	516	406	
9	0	0	0	0	513	406	
10	0	0	0	0	511	407	
11	0	0	0	0	509	407	
12	0	0	0	0	508	407	
13	0	0	0	0	506	407	
14	0	0	0	0	505	407	
15	0	0	0	0	505	408	
0	0	0	0	0	504	408	
1	0	0	0	0	505	407	
2	0	0	0	0	506	407	
3	0	0	0	0	507	408	
4	0	0	0	0	510	408	
5	0	0	0	0	511	408	
6	0	0	0	0	512	408	
7	0	0	0	0	512	408	
8	0	0	0	0	512	408	
9	0	0	0	0	513	408	
10	0	0	0	0	512	408	
11	0	0	0	0	511	409	
12	0	0	0	0	510	408	
13	0	0	0	0	507	408	
14	0	0	0	0	504	408	
15	0	0	0	0	502	408	
0	0	0	0	0	499	408	
1	0	0	0	0	497	408	
2	0	0	0	0	497	408	
3	0	0	0	0	496	409	
4	0	0	0	0	496	409	
5	0	0	0	0	497	409	
6	0	0	0	0	499	408	
7	0	0	0	0	500	408	
8	0	0	0	0	503	409	
9	0	0	0	0	505	409	
10	0	0	0	0	507	408	
11	0	0	0	0	507	410	
12	0	0	0	0	508	409	
13	0	0	0	0	508	409	
14	0	0	0	0	507	409	
15	0	0	0	0	507	410	
0	0	0	0	0	506	409	
1	0	0	0	0	503	409	
2	0	0	0	0	501	409	
3	0	0	0	0	499	409	
4	0	0	0	0	497	409	
5	0	0	0	0	496	409	
6	0	0	0	0	497	409	
7	0	0	0	0	498	409	
8	0	0	0	0	498	409	
9	0	0	0	0	499	409	
10	0	0	0	0	500	409	
11	0	0	0	0	502	409	
12	0	0	0	0	504	409	
13	0	0	0	0	507	409	
14	0	0	0	0	510	409	
15	0	0	0	0	511	409	
0	0	0	0	0	512	409	
1	0	0	0	0	511	409	
2	0	0	0	0	511	409	
3	0	0	0	0	509	409	
4	0	0	0	0	507	409	
5	0	0	0	0	504	409	
6	0	0	0	0	502	409	
7	0	0	0	0	500	410	
8	0	0	0	0	499	410	
9	0	0	0	0	498	410	
10	0	0	0	0	498	409	
11	0	0	0	0	499	410	
12	0	0	0	0	501	409	
13	0	0	0	0	503	409	
14	0	0	0	0	505	409	
15	0	0	0	0	508	409	
0	0	0	0	0	511	409	
1	0	0	0	0	514	409	
2	0	0	0	0	516	409	
3	0	0	0	0	518	410	
4	0	0	0	0	519	409	
5	0	0	0	0	520	409	
6	0	0	0	0	519	409	
7	0	0	0	0	519	409	
8	0	0	0	0	519	408	
9	0	0	0	0	518	408	
10	0	0	0	0	515	408	
11	0	0	0	0	513	409	
12	0	0	0	0	512	408	
13	0	0	0	0	511	408	
14	0	0	0	0	509	407	
15	0	0	0	0	510	408	
0	0	0	0	0	510	408	
1	0	0	0	0	511	408	
2	0	0	0	0	512	408	
3	0	0	0	0	515	409	
4	0	0	0	0	519	408	
5	0	0	0	0	521	408	
6	0	0	0	0	523	408	
7	0	0	0	0	525	409	
8	0	0	0	0	524	408	
9	0	0	0	0	523	408	
10	0	0	0	0	522	409	
11	0	0	0	0	521	409	
12	0	0	0	0	519	408	
13	0	0	0	0	515	409	
14	0	0	0	0	513	409	
15	0	0	0	0	511	408	
0	0	0	0	0	509	408	
1	0	0	0	0	507	408	
2	0	0	0	0	506	407	
3	0	0	0	0	505	408	
4	0	0	0	0	504	407	
5	0	0	0	0	504	407	
6	0	0	0	0	504	407	
7	0	0	0	0	507	407	
8	0	0	0	0	509	406	
9	0	0	0	0	512	406	
10	0	0	0	0	515	407	
11	0	0	0	0	516	408	
12	0	0	0	0	516	407	
13	0	0	0	0	518	407	
14	0	0	0	0	517	407	
15	0	0	0	0	516	407	
0	0	0	0	0	515	407	
1	0	0	0	0	512	407	
2	0	0	0	0	509	407	
3	0	0	0	0	506	407	
4	0	0	0	0	503	406	
5	0	0	0	0	501	407	
6	0	0	0	0	500	407	
7	0	0	0	0	500	408	
8	0	0	0	0	501	407	
9	0	0	0	0	502	407	
10	0	0	0	0	503	406	
11	0	0	0	0	505	407	
12	0	0	0	0	508	407	
13	0	0	0	0	510	407	
14	0	0	0	0	511	406	
15	0	0	0	0	513	406	
0	0	0	0	0	513	406	
1	0	0	0	0	512	406	
2	0	0	0	0	512	407	
3	0	0	0	0	511	407	
4	0	0	0	0	508	407	
5	0	0	0	0	506	407	
6	0	0	0	0	503	407	
7	0	0	0	0	500	407	
8	0	0	0	0	498	407	
9	0	0	0	0	497	407	
10	0	0	0	0	497	407	
11	0	0	0	0	497	409	
12	0	0	0	0	498	408	
13	0	0	0	0	499	407	
14	0	0	0	0	501	407	
15	0	0	0	0	503	407	
0	0	0	0	0	506	407	
1	0	0	0	0	509	408	
2	0	0	0	0	511	408	
3	0	0	0	0	512	408	
4	0	0	0	0	512	407	
5	0	0	0	0	511	407	
6	0	0	0	0	510	408	
7	0	0	0	0	509	408	
8	0	0	0	0	508	408	
9	0	0	0	0	506	408	
10	0	0	0	0	503	408	
11	0	0	0	0	501	408	
12	0	0	0	0	500	408	
13	0	0	0	0	499	408	
14	0	0	0	0	499	408	
15	0	0	0	0	499	409	
0	0	0	0	0	500	408	
1	0	0	0	0	502	409	
2	0	0	0	0	503	408	
3	0	0	0	0	506	409	
4	0	0	0	0	509	408	
5	0	0	0	0	512	408	
6	0	0	0	0	513	409	
7	0	0	0	0	515	409	
8	0	0	0	0	515	409	
9	0	0	0	0	516	408	
10	0	0	0	0	515	408	
11	0	0	0	0	515	409	
12	0	0	0	0	514	408	
13	0	0	0	0	512	409	
14	0	0	0	0	510	409	
15	0	0	0	0	507	409	
0	0	0	0	0	504	409	
1	0	0	0	0	502	409	
2	0	0	0	0	501	409	
3	0	0	0	0	499	409	
4	0	0	0	0	498	409	
5	0	0	0	0	496	409	
6	0	0	0	0	494	408	
7	0	0	0	0	492	409	
8	0	0	0	0	491	409	
9	0	0	0	0	487	409	
10	0	0	0	0	485	408	
11	0	0	0	0	482	410	
12	0	0	0	0	480	409	
13	0	0	0	0	480	409	
14	0	0	0	0	480	409	
15	0	0	0	0	481	409	
0	0	0	0	0	482	409	
1	0	0	0	0	482	409	
2	0	0	0	0	483	409	
3	0	0	0	0	486	409	
4	0	0	0	0	488	408	
5	0	0	0	0	491	409	
6	0	0	0	0	495	409	
7	0	0	0	0	501	409	
8	0	0	0	0	509	408	
9	0	0	0	0	518	409	
10	0	0	0	0	527	409	
11	0	0	0	0	536	409	
12	0	0	0	0	545	409	
13	0	0	0	0	552	408	
14	0	0	0	0	558	408	
15	0	0	0	0	564	409	
0	0	0	0	0	570	409	
1	0	0	0	0	578	408	
2	0	0	0	0	585	409	
3	0	0	0	0	592	409	
4	0	0	0	0	597	409	
5	0	0	0	0	601	409	
6	0	0	0	0	604	408	
7	0	0	0	0	606	409	
8	0	0	0	0	605	408	
9	0	0	0	0	603	409	
10	0	0	0	0	604	408	
11	0	0	0	0	607	409	
12	0	0	0	0	611	408	
13	0	0	0	0	617	409	
14	0	0	0	0	623	408	
15	0	0	0	0	627	409	
0	0	0	0	0	627	408	
1	0	0	0	0	623	408	
2	0	0	0	0	616	408	
3	0	0	0	0	610	408	
4	0	0	0	0	601	407	
5	0	0	0	0	591	408	
6	0	0	0	0	582	408	
7	0	0	0	0	572	408	
8	0	0	0	0	563	408	
9	0	0	0	0	553	408	
10	0	0	0	0	543	408	
11	0	0	0	0	533	408	
12	0	0	0	0	526	408	
13	0	0	0	0	519	408	
14	0	0	0	0	512	408	
15	0	0	0	0	507	408	
0	0	0	0	0	503	408	
1	0	0	0	0	498	408	
2	0	0	0	0	495	408	
3	0	0	0	0	493	408	
4	0	0	0	0	492	408	
5	0	0	0	0	491	408	
6	0	0	0	0	490	408	
7	0	0	0	0	489	408	
8	0	0	0	0	487	408	
9	0	0	0	0	486	408	
10	0	0	0	0	483	408	
11	0	0	0	0	482	408	
12	0	0	0	0	480	408	
13	0	0	0	0	478	408	
14	0	0	0	0	475	408	
15	0	0	0	0	472	408	
0	0	0	0	0	470	408	
1	0	0	0	0	468	407	
2	0	0	0	0	467	407	
3	0	0	0	0	468	407	
4	0	0	0	0	469	407	
5	0	0	0	0	471	407	
6	0	0	0	0	472	407	
7	0	0	0	0	476	407	
8	0	0	0	0	479	407	
9	0	0	0	0	482	407	
10	0	0	0	0	484	407	
11	0	0	0	0	486	408	
12	0	0	0	0	487	407	
13	0	0	0	0	487	408	
14	0	0	0	0	487	407	
15	0	0	0	0	487	407	
0	0	0	0	0	486	408	
1	0	0	0	0	484	407	
2	0	0	0	0	481	408	
3	0	0	0	0	478	408	
4	0	0	0	0	476	408	
5	0	0	0	0	475	408	
6	0	0	0	0	474	407	
7	0	0	0	0	475	407	
8	0	0	0	0	477	407	
9	0	0	0	0	478	407	
10	0	0	0	0	480	407	
11	0	0	0	0	483	408	
12	0	0	0	0	486	408	
13	0	0	0	0	488	408	
14	0	0	0	0	491	408	
15	0	0	0	0	492	408	
0	0	0	0	0	492	407	
1	0	0	0	0	492	407	
2	0	0	0	0	490	407	
3	0	0	0	0	489	408	
4	0	0	0	0	487	407	
5	0	0	0	0	485	406	
6	0	0	0	0	482	408	
7	0	0	0	0	479	408	
8	0	0	0	0	477	407	
9	0	0	0	0	476	407	
10	0	0	0	0	475	407	
11	0	0	0	0	476	408	
12	0	0	0	0	476	407	
13	0	0	0	0	477	408	
14	0	0	0	0	479	407	
15	0	0	0	0	481	408	
0	0	0	0	0	484	408	
1	0	0	0	0	487	408	
2	0	0	0	0	489	408	
3	0	0	0	0	490	408	
4	0	0	0	0	490	408	
5	0	0	0	0	491	409	
6	0	0	0	0	490	408	
7	0	0	0	0	489	409	
8	0	0	0	0	488	408	
9	0	0	0	0	487	408	
10	0	0	0	0	484	409	
11	0	0	0	0	483	409	
12	0	0	0	0	481	409	
13	0	0	0	0	480	408	
14	0	0	0	0	480	408	
15	0	0	0	0	481	408	
0	0	0	0	0	482	408	
1	0	0	0	0	483	408	
2	0	0	0	0	485	408	
3	0	0	0	0	487	408	
4	0	0	0	0	491	408	
5	0	0	0	0	493	408	
6	0	0	0	0	495	408	
7	0	0	0	0	496	408	
8	0	0	0	0	497	408	
9	0	0	0	0	497	408	
10	0	0	0	0	497	407	
11	0	0	0	0	496	408	
12	0	0	0	0	495	408	
13	0	0	0	0	493	407	
14	0	0	0	0	490	407	
15	0	0	0	0	488	408	
0	0	0	0	0	486	408	
1	0	0	0	0	485	407	
2	0	0	0	0	484	408	
3	0	0	0	0	485	408	
4	0	0	0	0	485	408	
5	0	0	0	0	486	408	
6	0	0	0	0	487	408	
7	0	0	0	0	490	408	
8	0	0	0	0	493	408	
9	0	0	0	0	496	408	
10	0	0	0	0	498	408	
11	0	0	0	0	499	408	
12	0	0	0	0	500	408	
13	0	0	0	0	500	408	
14	0	0	0	0	499	408	
15	0	0	0	0	497	408	
0	0	0	0	0	495	408	
1	0	0	0	0	492	407	
2	0	0	0	0	489	408	
3	0	0	0	0	487	409	
4	0	0	0	0	484	408	
5	0	0	0	0	483	408	
6	0	0	0	0	483	408	
7	0	0	0	0	483	409	
8	0	0	0	0	484	409	
9	0	0	0	0	485	409	
10	0	0	0	0	487	409	
11	0	0	0	0	489	409	
12	0	0	0	0	492	409	
13	0	0	0	0	495	409	
14	0	0	0	0	497	409	
15	0	0	0	0	499	408	
0	0	0	0	0	499	408	
1	0	0	0	0	499	408	
2	0	0	0	0	498	408	
3	0	0	0	0	497	408	
4	0	0	0	0	495	408	
5	0	0	0	0	492	408	
6	0	0	0	0	489	408	
7	0	0	0	0	487	408	
8	0	0	0	0	485	408	
9	0	0	0	0	484	409	
10	0	0	0	0	484	408	
11	0	0	0	0	484	408	
12	0	0	0	0	485	407	
13	0	0	0	0	487	407	
14	0	0	0	0	488	407	
15	0	0	0	0	491	407	
0	0	0	0	0	494	406	
1	0	0	0	0	496	406	
2	0	0	0	0	499	405	
3	0	0	0	0	500	407	
4	0	0	0	0	501	406	
5	0	0	0	0	502	406	
6	0	0	0	0	502	406	
7	0	0	0	0	502	407	
8	0	0	0	0	500	407	
9	0	0	0	0	497	408	
10	0	0	0	0	495	408	
11	0	0	0	0	492	409	
12	0	0	0	0	491	408	
13	0	0	0	0	490	408	
14	0	0	0	0	490	409	
15	0	0	0	0	491	410	
0	0	0	0	0	492	409	
1	0	0	0	0	494	409	
2	0	0	0	0	496	409	
3	0	0	0	0	499	410	
4	0	0	0	0	503	409	
5	0	0	0	0	505	409	
6	0	0	0	0	507	409	
7	0	0	0	0	510	409	
8	0	0	0	0	510	408	
9	0	0	0	0	510	408	
10	0	0	0	0	510	407	
11	0	0	0	0	510	407	
12	0	0	0	0	509	407	
13	0	0	0	0	507	407	
14	0	0	0	0	504	407	
15	0	0	0	0	503	406	
0	0	0	0	0	501	407	
1	0	0	0	0	500	406	
2	0	0	0	0	500	406	
3	0	0	0	0	501	407	
4	0	0	0	0	502	407	
5	0	0	0	0	503	406	
6	0	0	0	0	505	406	
7	0	0	0	0	508	407	
8	0	0	0	0	511	406	
9	0	0	0	0	514	407	
10	0	0	0	0	516	407	
11	0	0	0	0	517	407	
12	0	0	0	0	518	406	
13	0	0	0	0	519	406	
14	0	0	0	0	518	406	
15	0	0	0	0	516	406	
0	0	0	0	0	515	406	
1	0	0	0	0	513	406	
2	0	0	0	0	511	406	
3	0	0	0	0	509	407	
4	0	0	0	0	507	406	
5	0	0	0	0	506	406	
6	0	0	0	0	505	405	
7	0	0	0	0	507	406	
8	0	0	0	0	507	406	
9	0	0	0	0	509	406	
10	0	0	0	0	511	406	
11	0	0	0	0	513	406	
12	0	0	0	0	517	406	
13	0	0	0	0	519	406	
14	0	0	0	0	521	407	
15	0	0	0	0	524	407	
0	0	0	0	0	524	406	
1	0	0	0	0	524	407	
2	0	0	0	0	524	407	
3	0	0	0	0	523	408	
4	0	0	0	0	522	408	
5	0	0	0	0	519	407	
6	0	0	0	0	516	409	
7	0	0	0	0	513	408	
8	0	0	0	0	511	408	
9	0	0	0	0	510	408	
10	0	0	0	0	508	408	
11	0	0	0	0	507	409	
12	0	0	0	0	507	409	
13	0	0	0	0	508	408	
14	0	0	0	0	509	408	
15	0	0	0	0	510	409	
0	0	0	0	0	512	408	
1	0	0	0	0	513	408	
2	0	0	0	0	514	408	
3	0	0	0	0	515	409	
4	0	0	0	0	515	408	
5	0	0	0	0	515	409	
6	0	0	0	0	514	409	
7	0	0	0	0	513	409	
8	0	0	0	0	512	409	
9	0	0	0	0	509	409	
10	0	0	0	0	506	409	
11	0	0	0	0	504	409	
12	0	0	0	0	501	409	
13	0	0	0	0	500	409	
14	0	0	0	0	499	409	
15	0	0	0	0	498	410	
0	0	0	0	0	498	409	
1	0	0	0	0	498	409	
2	0	0	0	0	499	409	
3	0	0	0	0	502	410	
4	0	0	0	0	504	410	
5	0	0	0	0	506	410	
6	0	0	0	0	507	409	
7	0	0	0	0	508	409	
8	0	0	0	0	508	409	
9	0	0	0	0	509	410	
10	0	0	0	0	509	409	
11	0	0	0	0	508	411	
12	0	0	0	0	506	410	
13	0	0	0	0	503	409	
14	0	0	0	0	500	410	
15	0	0	0	0	497	410	
0	0	0	0	0	495	409	
1	0	0	0	0	494	410	
2	0	0	0	0	493	410	
3	0	0	0	0	493	410	
4	0	0	0	0	494	410	
5	0	0	0	0	495	410	
6	0	0	0	0	496	409	
7	0	0	0	0	499	409	
8	0	0	0	0	502	409	
9	0	0	0	0	504	409	
10	0	0	0	0	505	409	
11	0	0	0	0	507	410	
12	0	0	0	0	508	409	
13	0	0	0	0	508	409	
14	0	0	0	0	508	409	
15	0	0	0	0	508	410	
0	0	0	0	0	507	409	
1	0	0	0	0	505	409	
2	0	0	0	0	503	409	
3	0	0	0	0	502	409	
4	0	0	0	0	500	408	
5	0	0	0	0	500	409	
6	0	0	0	0	500	409	
7	0	0	0	0	501	409	
8	0	0	0	0	502	409	
9	0	0	0	0	504	408	
10	0	0	0	0	505	408	
11	0	0	0	0	508	408	
12	0	0	0	0	512	407	
13	0	0	0	0	515	407	
14	0	0	0	0	516	407	
15	0	0	0	0	517	408	
0	0	0	0	0	516	407	
1	0	0	0	0	516	408	
2	0	0	0	0	516	408	
3	0	0	0	0	515	408	
4	0	0	0	0	513	408	
5	0	0	0	0	511	408	
6	0	0	0	0	509	408	
7	0	0	0	0	507	408	
8	0	0	0	0	506	408	
9	0	0	0	0	506	408	
10	0	0	0	0	506	407	
11	0	0	0	0	506	408	
12	0	0	0	0	507	408	
13	0	0	0	0	508	408	
14	0	0	0	0	510	407	
15	0	0	0	0	512	408	
0	0	0	0	0	515	407	
1	0	0	0	0	518	407	
2	0	0	0	0	519	408	
3	0	0	0	0	519	408	
4	0	0	0	0	519	407	
5	0	0	0	0	518	408	
6	0	0	0	0	517	408	
7	0	0	0	0	516	407	
8	0	0	0	0	514	407	
9	0	0	0	0	512	406	
10	0	0	0	0	509	407	
11	0	0	0	0	507	407	
12	0	0	0	0	505	406	
13	0	0	0	0	504	406	
14	0	0	0	0	504	407	
15	0	0	0	0	504	407	
0	0	0	0	0	504	407	
1	0	0	0	0	505	407	
2	0	0	0	0	507	407	
3	0	0	0	0	510	407	
4	0	0	0	0	513	407	
5	0	0	0	0	515	406	
6	0	0	0	0	516	406	
7	0	0	0	0	518	407	
8	0	0	0	0	518	406	
9	0	0	0	0	518	407	
10	0	0	0	0	516	406	
11	0	0	0	0	515	407	
12	0	0	0	0	514	406	
13	0	0	0	0	511	406	
14	0	0	0	0	508	406	
15	0	0	0	0	505	407	
0	0	0	0	0	504	406	
1	0	0	0	0	503	406	
2	0	0	0	0	502	407	
3	0	0	0	0	502	408	
4	0	0	0	0	503	406	
5	0	0	0	0	503	407	
6	0	0	0	0	504	406	
7	0	0	0	0	506	407	
8	0	0	0	0	509	407	
9	0	0	0	0	511	407	
10	0	0	0	0	512	407	
11	0	0	0	0	513	408	
12	0	0	0	0	513	407	
13	0	0	0	0	514	408	
14	0	0	0	0	513	407	
15	0	0	0	0	512	408	
0	0	0	0	0	512	407	
1	0	0	0	0	511	408	
2	0	0	0	0	508	407	
3	0	0	0	0	506	408	
4	0	0	0	0	504	407	
5	0	0	0	0	504	407	
6	0	0	0	0	503	408	
7	0	0	0	0	504	408	
8	0	0	0	0	504	407	
9	0	0	0	0	504	407	
10	0	0	0	0	505	407	
11	0	0	0	0	508	408	
12	0	0	0	0	510	408	
13	0	0	0	0	513	408	
14	0	0	0	0	515	408	
15	0	0	0	0	517	408	
0	0	0	0	0	517	408	
1	0	0	0	0	517	408	
2	0	0	0	0	516	408	
3	0	0	0	0	513	408	
4	0	0	0	0	511	408	
5	0	0	0	0	508	408	
6	0	0	0	0	505	409	
7	0	0	0	0	502	409	
8	0	0	0	0	500	409	
9	0	0	0	0	498	409	
10	0	0	0	0	497	409	
11	0	0	0	0	497	409	
12	0	0	0	0	498	409	
13	0	0	0	0	499	409	
14	0	0	0	0	501	409	
15	0	0	0	0	503	408	
0	0	0	0	0	507	409	
1	0	0	0	0	509	408	
2	0	0	0	0	510	409	
3	0	0	0	0	511	410	
4	0	0	0	0	511	409	
5	0	0	0	0	511	408	
6	0	0	0	0	510	409	
7	0	0	0	0	509	409	
8	0	0	0	0	508	409	
9	0	0	0	0	505	409	
10	0	0	0	0	503	409	
11	0	0	0	0	501	409	
12	0	0	0	0	500	409	
13	0	0	0	0	499	409	
14	0	0	0	0	499	409	
15	0	0	0	0	499	409	
0	0	0	0	0	500	410	
1	0	0	0	0	501	409	
2	0	0	0	0	502	410	
3	0	0	0	0	504	411	
4	0	0	0	0	507	410	
5	0	0	0	0	509	409	
6	0	0	0	0	510	410	
7	0	0	0	0	511	411	
8	0	0	0	0	511	410	
9	0	0	0	0	512	409	
10	0	0	0	0	511	410	
11	0	0	0	0	510	410	
12	0	0	0	0	509	409	
13	0	0	0	0	507	409	
14	0	0	0	0	505	409	
15	0	0	0	0	503	409	
0	0	0	0	0	501	409	
1	0	0	0	0	499	409	
2	0	0	0	0	499	409	
3	0	0	0	0	500	409	
4	0	0	0	0	501	408	
5	0	0	0	0	503	408	
6	0	0	0	0	505	408	
7	0	0	0	0	507	408	
8	0	0	0	0	510	408	
9	0	0	0	0	512	408	
10	0	0	0	0	514	408	
11	0	0	0	0	515	408	
12	0	0	0	0	515	408	
13	0	0	0	0	515	408	
14	0	0	0	0	515	408	
15	0	0	0	0	513	408	
0	0	0	0	0	512	408	
1	0	0	0	0	510	408	
2	0	0	0	0	507	407	
3	0	0	0	0	505	408	
4	0	0	0	0	503	407	
5	0	0	0	0	502	407	
6	0	0	0	0	501	407	
7	0	0	0	0	502	407	
8	0	0	0	0	503	407	
9	0	0	0	0	504	407	
10	0	0	0	0	505	406	
11	0	0	0	0	508	407	
12	0	0	0	0	510	407	
13	0	0	0	0	512	406	
14	0	0	0	0	513	407	
15	0	0	0	0	514	407	
0	0	0	0	0	514	406	
1	0	0	0	0	514	407	
2	0	0	0	0	514	406	
3	0	0	0	0	514	408	
4	0	0	0	0	513	407	
5	0	0	0	0	511	406	
6	0	0	0	0	510	407	
7	0	0	0	0	508	408	
8	0	0	0	0	507	406	
9	0	0	0	0	506	407	
10	0	0	0	0	507	407	
11	0	0	0	0	508	408	
12	0	0	0	0	509	407	
13	0	0	0	0	510	407	
14	0	0	0	0	512	407	
15	0	0	0	0	515	408	
0	0	0	0	0	518	406	
1	0	0	0	0	519	406	
2	0	0	0	0	521	407	
3	0	0	0	0	522	407	
4	0	0	0	0	522	406	
5	0	0	0	0	521	407	
6	0	0	0	0	521	407	
7	0	0	0	0	519	407	
8	0	0	0	0	518	407	
9	0	0	0	0	515	407	
10	0	0	0	0	512	407	
11	0	0	0	0	510	408	
12	0	0	0	0	508	407	
13	0	0	0	0	508	407	
14	0	0	0	0	507	407	
15	0	0	0	0	508	407	
0	0	0	0	0	509	407	
1	0	0	0	0	511	406	
2	0	0	0	0	513	407	
3	0	0	0	0	515	407	
4	0	0	0	0	519	407	
5	0	0	0	0	521	407	
6	0	0	0	0	523	407	
7	0	0	0	0	524	407	
8	0	0	0	0	524	407	
9	0	0	0	0	523	407	
10	0	0	0	0	521	407	
11	0	0	0	0	520	407	
12	0	0	0	0	518	407	
13	0	0	0	0	514	407	
14	0	0	0	0	511	407	
15	0	0	0	0	508	408	
0	0	0	0	0	505	407	
1	0	0	0	0	504	407	
2	0	0	0	0	503	407	
3	0	0	0	0	503	408	
4	0	0	0	0	503	407	
5	0	0	0	0	504	407	
6	0	0	0	0	505	408	
7	0	0	0	0	508	408	
8	0	0	0	0	511	408	
9	0	0	0	0	513	408	
10	0	0	0	0	515	408	
11	0	0	0	0	516	409	
12	0	0	0	0	516	408	
13	0	0	0	0	517	408	
14	0	0	0	0	517	408	
15	0	0	0	0	516	409	
0	0	0	0	0	515	409	
1	0	0	0	0	512	410	
2	0	0	0	0	510	409	
3	0	0	0	0	508	410	
4	0	0	0	0	506	409	
5	0	0	0	0	505	409	
6	0	0	0	0	505	409	
7	0	0	0	0	505	410	
8	0	0	0	0	507	409	
9	0	0	0	0	508	409	
10	0	0	0	0	510	409	
11	0	0	0	0	512	410	
12	0	0	0	0	515	409	
13	0	0	0	0	517	409	
14	0	0	0	0	518	409	
15	0	0	0	0	519	409	
0	0	0	0	0	519	409	
1	0	0	0	0	518	409	
2	0	0	0	0	518	409	
3	0	0	0	0	516	410	
4	0	0	0	0	515	409	
5	0	0	0	0	511	409	
6	0	0	0	0	508	409	
7	0	0	0	0	504	409	
8	0	0	0	0	502	409	
9	0	0	0	0	499	409	
10	0	0	0	0	498	409	
11	0	0	0	0	497	409	
12	0	0	0	0	497	409	
13	0	0	0	0	499	409	
14	0	0	0	0	500	409	
15	0	0	0	0	503	409	
0	0	0	0	0	505	410	
1	0	0	0	0	508	409	
2	0	0	0	0	510	409	
3	0	0	0	0	511	409	
4	0	0	0	0	511	409	
5	0	0	0	0	511	409	
6	0	0	0	0	510	408	
7	0	0	0	0	508	409	
8	0	0	0	0	506	409	
9	0	0	0	0	504	409	
10	0	0	0	0	500	409	
11	0	0	0	0	497	410	
12	0	0	0	0	495	409	
13	0	0	0	0	494	409	
14	0	0	0	0	493	408	
15	0	0	0	0	493	409	
0	0	0	0	0	494	409	
1	0	0	0	0	496	409	
2	0	0	0	0	498	409	
3	0	0	0	0	500	409	
4	0	0	0	0	504	409	
5	0	0	0	0	508	408	
6	0	0	0	0	510	409	
7	0	0	0	0	512	408	
8	0	0	0	0	513	408	
9	0	0	0	0	513	408	
10	0	0	0	0	513	408	
11	0	0	0	0	513	409	
12	0	0	0	0	512	408	
13	0	0	0	0	510	408	
14	0	0	0	0	508	408	
15	0	0	0	0	505	408	
0	0	0	0	0	504	407	
1	0	0	0	0	504	408	
2	0	0	0	0	504	407	
3	0	0	0	0	504	408	
4	0	0	0	0	505	407	
5	0	0	0	0	506	407	
6	0	0	0	0	508	408	
7	0	0	0	0	511	407	
8	0	0	0	0	514	407	
9	0	0	0	0	516	407	
10	0	0	0	0	518	407	
11	0	0	0	0	519	407	
12	0	0	0	0	519	407	
13	0	0	0	0	519	407	
14	0	0	0	0	518	407	
15	0	0	0	0	516	406	
0	0	0	0	0	515	407	
1	0	0	0	0	511	407	
2	0	0	0	0	508	408	
3	0	0	0	0	505	408	
4	0	0	0	0	504	407	
5	0	0	0	0	503	407	
6	0	0	0	0	503	408	
7	0	0	0	0	503	408	
8	0	0	0	0	503	408	
9	0	0	0	0	504	407	
10	0	0	0	0	505	408	
11	0	0	0	0	508	408	
12	0	0	0	0	511	408	
13	0	0	0	0	513	407	
14	0	0	0	0	514	407	
15	0	0	0	0	516	407	
0	0	0	0	0	516	406	
1	0	0	0	0	516	407	
2	0	0	0	0	515	407	
3	0	0	0	0	514	408	
4	0	0	0	0	512	406	
5	0	0	0	0	509	407	
6	0	0	0	0	507	407	
7	0	0	0	0	504	407	
8	0	0	0	0	504	407	
9	0	0	0	0	503	407	
10	0	0	0	0	503	407	
11	0	0	0	0	504	408	
12	0	0	0	0	505	408	
13	0	0	0	0	506	408	
14	0	0	0	0	508	407	
15	0	0	0	0	510	408	
0	0	0	0	0	512	408	
1	0	0	0	0	515	408	
2	0	0	0	0	516	407	
3	0	0	0	0	516	408	
4	0	0	0	0	516	407	
5	0	0	0	0	516	408	
6	0	0	0	0	515	408	
7	0	0	0	0	514	408	
8	0	0	0	0	512	408	
9	0	0	0	0	510	408	
10	0	0	0	0	507	407	
11	0	0	0	0	504	408	
12	0	0	0	0	503	408	
13	0	0	0	0	502	408	
14	0	0	0	0	502	407	
15	0	0	0	0	502	408	
0	0	0	0	0	503	407	
1	0	0	0	0	504	407	
2	0	0	0	0	505	408	
3	0	0	0	0	508	408	
