# OpenSignals Text File Format. Version 1
# {"98:D3:91:FD:69:48": {"position": 0, "device": "bitalino_rev", "device name": "98:D3:91:FD:69:48", "device connection": "BTH98:D3:91:FD:69:48", "sampling rate": 1000, "resolution": [4, 1, 1, 1, 1, 10, 10], "firmware version": 1281, "comments": "", "keywords": "", "mode": 0, "sync interval": 2, "date": "2021-9-3", "time": "23:51:6.395", "channels": [2, 5], "sensor": ["RAW", "RAW"], "label": ["A2", "A5"], "column": ["nSeq", "I1", "I2", "O1", "O2", "A2", "A5"], "special": [{}, {}], "digital IO": [0, 0, 1, 1], "convertedValues": 0}}
# EndOfHeader
0	0	0	0	0	503	611	
1	0	0	0	0	516	611	
2	0	0	0	0	530	611	
3	0	0	0	0	545	611	
4	0	0	0	0	560	611	
5	0	0	0	0	572	611	
6	0	0	0	0	583	611	
7	0	0	0	0	595	611	
8	0	0	0	0	608	610	
9	0	0	0	0	623	610	
10	0	0	0	0	640	610	
11	0	0	0	0	662	611	
12	0	0	0	0	685	610	
13	0	0	0	0	712	610	
14	0	0	0	0	740	610	
15	0	0	0	0	766	611	
0	0	0	0	0	787	610	
1	0	0	0	0	804	610	
2	0	0	0	0	814	609	
3	0	0	0	0	816	610	
4	0	0	0	0	812	609	
5	0	0	0	0	802	610	
6	0	0	0	0	788	610	
7	0	0	0	0	771	610	
8	0	0	0	0	752	610	
9	0	0	0	0	732	610	
10	0	0	0	0	713	610	
11	0	0	0	0	692	610	
12	0	0	0	0	674	610	
13	0	0	0	0	656	610	
14	0	0	0	0	638	610	
15	0	0	0	0	620	611	
0	0	0	0	0	604	610	
1	0	0	0	0	588	610	
2	0	0	0	0	574	610	
3	0	0	0	0	560	610	
4	0	0	0	0	547	610	
5	0	0	0	0	533	610	
6	0	0	0	0	520	609	
7	0	0	0	0	507	610	
8	0	0	0	0	495	609	
9	0	0	0	0	486	609	
10	0	0	0	0	477	610	
11	0	0	0	0	469	610	
12	0	0	0	0	462	610	
13	0	0	0	0	455	610	
14	0	0	0	0	449	610	
15	0	0	0	0	445	611	
0	0	0	0	0	441	611	
1	0	0	0	0	437	610	
2	0	0	0	0	434	611	
3	0	0	0	0	431	611	
4	0	0	0	0	429	611	
5	0	0	0	0	427	611	
6	0	0	0	0	427	611	
7	0	0	0	0	427	612	
8	0	0	0	0	426	611	
9	0	0	0	0	426	612	
10	0	0	0	0	426	611	
11	0	0	0	0	426	612	
12	0	0	0	0	425	612	
13	0	0	0	0	425	612	
14	0	0	0	0	425	611	
15	0	0	0	0	427	612	
0	0	0	0	0	428	611	
1	0	0	0	0	428	611	
2	0	0	0	0	428	611	
3	0	0	0	0	428	612	
4	0	0	0	0	428	612	
5	0	0	0	0	428	611	
6	0	0	0	0	427	611	
7	0	0	0	0	426	612	
8	0	0	0	0	426	611	
9	0	0	0	0	426	611	
10	0	0	0	0	425	611	
11	0	0	0	0	425	611	
12	0	0	0	0	424	612	
13	0	0	0	0	424	611	
14	0	0	0	0	423	612	
15	0	0	0	0	423	612	
0	0	0	0	0	422	612	
1	0	0	0	0	420	612	
2	0	0	0	0	421	612	
3	0	0	0	0	420	612	
4	0	0	0	0	421	612	
5	0	0	0	0	421	611	
6	0	0	0	0	422	611	
7	0	0	0	0	423	612	
8	0	0	0	0	423	611	
9	0	0	0	0	424	611	
10	0	0	0	0	425	611	
11	0	0	0	0	425	611	
12	0	0	0	0	425	611	
13	0	0	0	0	426	611	
14	0	0	0	0	428	611	
15	0	0	0	0	429	611	
0	0	0	0	0	430	611	
1	0	0	0	0	432	611	
2	0	0	0	0	433	611	
3	0	0	0	0	434	611	
4	0	0	0	0	435	611	
5	0	0	0	0	435	611	
6	0	0	0	0	436	611	
7	0	0	0	0	436	611	
8	0	0	0	0	438	611	
9	0	0	0	0	440	610	
10	0	0	0	0	441	610	
11	0	0	0	0	442	610	
12	0	0	0	0	444	609	
13	0	0	0	0	446	609	
14	0	0	0	0	448	608	
15	0	0	0	0	450	609	
0	0	0	0	0	452	608	
1	0	0	0	0	453	608	
2	0	0	0	0	454	608	
3	0	0	0	0	455	608	
4	0	0	0	0	456	608	
5	0	0	0	0	457	608	
6	0	0	0	0	458	608	
7	0	0	0	0	459	609	
8	0	0	0	0	460	608	
9	0	0	0	0	461	609	
10	0	0	0	0	461	608	
11	0	0	0	0	460	609	
12	0	0	0	0	461	609	
13	0	0	0	0	460	608	
14	0	0	0	0	461	609	
15	0	0	0	0	461	609	
0	0	0	0	0	462	608	
1	0	0	0	0	463	609	
2	0	0	0	0	463	609	
3	0	0	0	0	464	608	
4	0	0	0	0	464	608	
5	0	0	0	0	465	608	
6	0	0	0	0	467	608	
7	0	0	0	0	469	608	
8	0	0	0	0	471	608	
9	0	0	0	0	473	609	
10	0	0	0	0	475	608	
11	0	0	0	0	476	608	
12	0	0	0	0	477	608	
13	0	0	0	0	477	608	
14	0	0	0	0	477	608	
15	0	0	0	0	477	609	
0	0	0	0	0	477	609	
1	0	0	0	0	478	609	
2	0	0	0	0	480	609	
3	0	0	0	0	480	609	
4	0	0	0	0	481	609	
5	0	0	0	0	481	610	
6	0	0	0	0	482	609	
7	0	0	0	0	482	610	
8	0	0	0	0	483	611	
9	0	0	0	0	483	610	
10	0	0	0	0	483	610	
11	0	0	0	0	484	610	
12	0	0	0	0	485	610	
13	0	0	0	0	485	610	
14	0	0	0	0	485	610	
15	0	0	0	0	485	610	
0	0	0	0	0	484	609	
1	0	0	0	0	484	610	
2	0	0	0	0	483	610	
3	0	0	0	0	482	610	
4	0	0	0	0	482	611	
5	0	0	0	0	481	611	
6	0	0	0	0	480	611	
7	0	0	0	0	480	611	
8	0	0	0	0	480	611	
9	0	0	0	0	480	611	
10	0	0	0	0	479	611	
11	0	0	0	0	479	611	
12	0	0	0	0	480	611	
13	0	0	0	0	480	611	
14	0	0	0	0	480	611	
15	0	0	0	0	480	612	
0	0	0	0	0	481	611	
1	0	0	0	0	482	612	
2	0	0	0	0	482	611	
3	0	0	0	0	483	612	
4	0	0	0	0	483	612	
5	0	0	0	0	483	611	
6	0	0	0	0	483	611	
7	0	0	0	0	482	611	
8	0	0	0	0	483	611	
9	0	0	0	0	483	612	
10	0	0	0	0	483	611	
11	0	0	0	0	484	612	
12	0	0	0	0	484	611	
13	0	0	0	0	485	612	
14	0	0	0	0	486	612	
15	0	0	0	0	487	612	
0	0	0	0	0	488	611	
1	0	0	0	0	488	611	
2	0	0	0	0	489	611	
3	0	0	0	0	489	611	
4	0	0	0	0	489	612	
5	0	0	0	0	489	611	
6	0	0	0	0	488	611	
7	0	0	0	0	489	611	
8	0	0	0	0	489	611	
9	0	0	0	0	489	611	
10	0	0	0	0	489	612	
11	0	0	0	0	489	611	
12	0	0	0	0	489	611	
13	0	0	0	0	490	612	
14	0	0	0	0	490	612	
15	0	0	0	0	490	612	
0	0	0	0	0	490	611	
1	0	0	0	0	491	611	
2	0	0	0	0	490	611	
3	0	0	0	0	490	611	
4	0	0	0	0	491	611	
5	0	0	0	0	492	611	
6	0	0	0	0	493	611	
7	0	0	0	0	495	612	
8	0	0	0	0	496	611	
9	0	0	0	0	496	611	
10	0	0	0	0	497	611	
11	0	0	0	0	497	611	
12	0	0	0	0	497	611	
13	0	0	0	0	497	611	
14	0	0	0	0	498	610	
15	0	0	0	0	498	611	
0	0	0	0	0	498	611	
1	0	0	0	0	497	610	
2	0	0	0	0	497	611	
3	0	0	0	0	497	611	
4	0	0	0	0	496	611	
5	0	0	0	0	496	610	
6	0	0	0	0	495	611	
7	0	0	0	0	494	611	
8	0	0	0	0	494	611	
9	0	0	0	0	494	611	
10	0	0	0	0	494	611	
11	0	0	0	0	493	611	
12	0	0	0	0	492	611	
13	0	0	0	0	493	611	
14	0	0	0	0	492	611	
15	0	0	0	0	492	612	
0	0	0	0	0	492	612	
1	0	0	0	0	493	612	
2	0	0	0	0	494	611	
3	0	0	0	0	493	612	
4	0	0	0	0	494	611	
5	0	0	0	0	495	612	
6	0	0	0	0	495	613	
7	0	0	0	0	496	613	
8	0	0	0	0	496	612	
9	0	0	0	0	497	612	
10	0	0	0	0	498	612	
11	0	0	0	0	500	612	
12	0	0	0	0	501	612	
13	0	0	0	0	501	613	
14	0	0	0	0	503	613	
15	0	0	0	0	504	613	
0	0	0	0	0	505	614	
1	0	0	0	0	505	612	
2	0	0	0	0	506	612	
3	0	0	0	0	506	613	
4	0	0	0	0	507	612	
5	0	0	0	0	508	612	
6	0	0	0	0	508	612	
7	0	0	0	0	508	612	
8	0	0	0	0	508	611	
9	0	0	0	0	508	611	
10	0	0	0	0	508	611	
11	0	0	0	0	509	611	
12	0	0	0	0	509	611	
13	0	0	0	0	511	611	
14	0	0	0	0	512	610	
15	0	0	0	0	513	611	
0	0	0	0	0	515	611	
1	0	0	0	0	516	611	
2	0	0	0	0	517	610	
3	0	0	0	0	519	611	
4	0	0	0	0	520	611	
5	0	0	0	0	521	611	
6	0	0	0	0	522	610	
7	0	0	0	0	523	611	
8	0	0	0	0	524	610	
9	0	0	0	0	525	610	
10	0	0	0	0	526	610	
11	0	0	0	0	527	610	
12	0	0	0	0	528	610	
13	0	0	0	0	529	611	
14	0	0	0	0	529	611	
15	0	0	0	0	530	611	
0	0	0	0	0	531	610	
1	0	0	0	0	532	611	
2	0	0	0	0	532	610	
3	0	0	0	0	532	611	
4	0	0	0	0	534	611	
5	0	0	0	0	534	610	
6	0	0	0	0	535	610	
7	0	0	0	0	536	611	
8	0	0	0	0	538	611	
9	0	0	0	0	539	611	
10	0	0	0	0	540	610	
11	0	0	0	0	541	611	
12	0	0	0	0	542	610	
13	0	0	0	0	542	611	
14	0	0	0	0	544	610	
15	0	0	0	0	545	611	
0	0	0	0	0	546	611	
1	0	0	0	0	546	611	
2	0	0	0	0	545	611	
3	0	0	0	0	545	610	
4	0	0	0	0	544	611	
5	0	0	0	0	543	611	
6	0	0	0	0	542	611	
7	0	0	0	0	540	611	
8	0	0	0	0	539	610	
9	0	0	0	0	537	611	
10	0	0	0	0	537	611	
11	0	0	0	0	536	611	
12	0	0	0	0	535	611	
13	0	0	0	0	535	611	
14	0	0	0	0	533	611	
15	0	0	0	0	533	611	
0	0	0	0	0	531	610	
1	0	0	0	0	531	611	
2	0	0	0	0	529	611	
3	0	0	0	0	528	611	
4	0	0	0	0	527	610	
5	0	0	0	0	526	611	
6	0	0	0	0	525	611	
7	0	0	0	0	524	611	
8	0	0	0	0	523	610	
9	0	0	0	0	520	611	
10	0	0	0	0	519	611	
11	0	0	0	0	518	611	
12	0	0	0	0	515	611	
13	0	0	0	0	514	611	
14	0	0	0	0	513	611	
15	0	0	0	0	513	611	
0	0	0	0	0	512	611	
1	0	0	0	0	512	611	
2	0	0	0	0	512	610	
3	0	0	0	0	511	611	
4	0	0	0	0	510	610	
5	0	0	0	0	508	609	
6	0	0	0	0	506	610	
7	0	0	0	0	504	611	
8	0	0	0	0	502	610	
9	0	0	0	0	500	610	
10	0	0	0	0	499	609	
11	0	0	0	0	497	610	
12	0	0	0	0	493	609	
13	0	0	0	0	491	609	
14	0	0	0	0	490	609	
15	0	0	0	0	488	610	
0	0	0	0	0	486	609	
1	0	0	0	0	484	609	
2	0	0	0	0	483	609	
3	0	0	0	0	481	610	
4	0	0	0	0	480	609	
5	0	0	0	0	479	609	
6	0	0	0	0	478	609	
7	0	0	0	0	477	610	
8	0	0	0	0	477	609	
9	0	0	0	0	476	609	
10	0	0	0	0	476	609	
11	0	0	0	0	475	609	
12	0	0	0	0	474	609	
13	0	0	0	0	474	609	
14	0	0	0	0	475	609	
15	0	0	0	0	474	610	
0	0	0	0	0	473	609	
1	0	0	0	0	473	609	
2	0	0	0	0	472	609	
3	0	0	0	0	471	609	
4	0	0	0	0	470	609	
5	0	0	0	0	469	609	
6	0	0	0	0	468	609	
7	0	0	0	0	467	610	
8	0	0	0	0	467	609	
9	0	0	0	0	467	609	
10	0	0	0	0	466	609	
11	0	0	0	0	465	611	
12	0	0	0	0	464	610	
13	0	0	0	0	462	610	
14	0	0	0	0	460	608	
15	0	0	0	0	458	610	
0	0	0	0	0	457	610	
1	0	0	0	0	455	610	
2	0	0	0	0	455	610	
3	0	0	0	0	454	610	
4	0	0	0	0	455	609	
5	0	0	0	0	456	609	
6	0	0	0	0	457	610	
7	0	0	0	0	459	610	
8	0	0	0	0	460	609	
9	0	0	0	0	462	609	
10	0	0	0	0	463	609	
11	0	0	0	0	464	610	
12	0	0	0	0	465	610	
13	0	0	0	0	467	610	
14	0	0	0	0	467	610	
15	0	0	0	0	468	611	
0	0	0	0	0	468	610	
1	0	0	0	0	469	611	
2	0	0	0	0	470	611	
3	0	0	0	0	470	611	
4	0	0	0	0	471	611	
5	0	0	0	0	471	611	
6	0	0	0	0	471	611	
7	0	0	0	0	470	612	
8	0	0	0	0	469	611	
9	0	0	0	0	469	611	
10	0	0	0	0	468	611	
11	0	0	0	0	468	611	
12	0	0	0	0	467	611	
13	0	0	0	0	467	611	
14	0	0	0	0	467	611	
15	0	0	0	0	467	611	
0	0	0	0	0	468	611	
1	0	0	0	0	467	611	
2	0	0	0	0	467	611	
3	0	0	0	0	467	611	
4	0	0	0	0	467	610	
5	0	0	0	0	467	611	
6	0	0	0	0	467	611	
7	0	0	0	0	467	612	
8	0	0	0	0	467	612	
9	0	0	0	0	467	611	
10	0	0	0	0	467	611	
11	0	0	0	0	467	612	
12	0	0	0	0	467	611	
13	0	0	0	0	466	612	
14	0	0	0	0	465	612	
15	0	0	0	0	464	612	
0	0	0	0	0	464	611	
1	0	0	0	0	465	612	
2	0	0	0	0	467	612	
3	0	0	0	0	468	611	
4	0	0	0	0	469	611	
5	0	0	0	0	470	611	
6	0	0	0	0	472	611	
7	0	0	0	0	473	611	
8	0	0	0	0	474	611	
9	0	0	0	0	474	611	
10	0	0	0	0	474	610	
11	0	0	0	0	474	611	
12	0	0	0	0	475	611	
13	0	0	0	0	477	610	
14	0	0	0	0	478	610	
15	0	0	0	0	480	611	
0	0	0	0	0	481	611	
1	0	0	0	0	482	611	
2	0	0	0	0	482	611	
3	0	0	0	0	482	611	
4	0	0	0	0	484	610	
5	0	0	0	0	485	611	
6	0	0	0	0	486	610	
7	0	0	0	0	487	612	
8	0	0	0	0	487	611	
9	0	0	0	0	488	611	
10	0	0	0	0	488	610	
11	0	0	0	0	489	611	
12	0	0	0	0	490	610	
13	0	0	0	0	490	610	
14	0	0	0	0	491	610	
15	0	0	0	0	491	611	
0	0	0	0	0	491	610	
1	0	0	0	0	491	609	
2	0	0	0	0	491	609	
3	0	0	0	0	491	610	
4	0	0	0	0	491	609	
5	0	0	0	0	492	609	
6	0	0	0	0	492	610	
7	0	0	0	0	494	609	
8	0	0	0	0	495	610	
9	0	0	0	0	497	609	
10	0	0	0	0	499	609	
11	0	0	0	0	500	610	
12	0	0	0	0	502	610	
13	0	0	0	0	502	610	
14	0	0	0	0	503	610	
15	0	0	0	0	504	611	
0	0	0	0	0	505	611	
1	0	0	0	0	506	611	
2	0	0	0	0	508	611	
3	0	0	0	0	509	611	
4	0	0	0	0	510	611	
5	0	0	0	0	512	611	
6	0	0	0	0	512	611	
7	0	0	0	0	513	611	
8	0	0	0	0	514	611	
9	0	0	0	0	515	611	
10	0	0	0	0	515	611	
11	0	0	0	0	515	611	
12	0	0	0	0	517	611	
13	0	0	0	0	518	611	
14	0	0	0	0	518	611	
15	0	0	0	0	518	611	
0	0	0	0	0	519	611	
1	0	0	0	0	519	611	
2	0	0	0	0	520	611	
3	0	0	0	0	520	611	
4	0	0	0	0	521	611	
5	0	0	0	0	522	611	
6	0	0	0	0	524	611	
7	0	0	0	0	525	612	
8	0	0	0	0	526	611	
9	0	0	0	0	527	611	
10	0	0	0	0	528	611	
11	0	0	0	0	528	611	
12	0	0	0	0	529	611	
13	0	0	0	0	530	611	
14	0	0	0	0	532	611	
15	0	0	0	0	533	612	
0	0	0	0	0	535	612	
1	0	0	0	0	536	611	
2	0	0	0	0	538	611	
3	0	0	0	0	540	611	
4	0	0	0	0	541	611	
5	0	0	0	0	543	611	
6	0	0	0	0	545	611	
7	0	0	0	0	547	612	
8	0	0	0	0	548	612	
9	0	0	0	0	550	611	
10	0	0	0	0	550	611	
11	0	0	0	0	551	611	
12	0	0	0	0	552	611	
13	0	0	0	0	553	611	
14	0	0	0	0	554	611	
15	0	0	0	0	554	612	
0	0	0	0	0	554	611	
1	0	0	0	0	555	611	
2	0	0	0	0	555	611	
3	0	0	0	0	555	611	
4	0	0	0	0	556	611	
5	0	0	0	0	556	611	
6	0	0	0	0	557	611	
7	0	0	0	0	557	611	
8	0	0	0	0	557	611	
9	0	0	0	0	558	611	
10	0	0	0	0	559	611	
11	0	0	0	0	559	611	
12	0	0	0	0	559	611	
13	0	0	0	0	560	611	
14	0	0	0	0	560	611	
15	0	0	0	0	561	612	
0	0	0	0	0	561	611	
1	0	0	0	0	561	612	
2	0	0	0	0	562	611	
3	0	0	0	0	563	612	
4	0	0	0	0	563	612	
5	0	0	0	0	564	612	
6	0	0	0	0	566	612	
7	0	0	0	0	567	611	
8	0	0	0	0	568	611	
9	0	0	0	0	568	611	
10	0	0	0	0	568	611	
11	0	0	0	0	568	612	
12	0	0	0	0	569	612	
13	0	0	0	0	570	611	
14	0	0	0	0	572	611	
15	0	0	0	0	574	611	
0	0	0	0	0	575	610	
1	0	0	0	0	577	611	
2	0	0	0	0	578	611	
3	0	0	0	0	579	611	
4	0	0	0	0	580	610	
5	0	0	0	0	582	610	
6	0	0	0	0	582	609	
7	0	0	0	0	582	610	
8	0	0	0	0	583	610	
9	0	0	0	0	585	610	
10	0	0	0	0	585	610	
11	0	0	0	0	585	610	
12	0	0	0	0	586	609	
13	0	0	0	0	585	609	
14	0	0	0	0	585	609	
15	0	0	0	0	585	610	
0	0	0	0	0	586	609	
1	0	0	0	0	586	608	
2	0	0	0	0	586	609	
3	0	0	0	0	585	609	
4	0	0	0	0	585	608	
5	0	0	0	0	585	609	
6	0	0	0	0	586	609	
7	0	0	0	0	586	609	
8	0	0	0	0	587	609	
9	0	0	0	0	588	610	
10	0	0	0	0	589	610	
11	0	0	0	0	589	610	
12	0	0	0	0	590	610	
13	0	0	0	0	592	611	
14	0	0	0	0	593	610	
15	0	0	0	0	595	611	
0	0	0	0	0	596	611	
1	0	0	0	0	598	611	
2	0	0	0	0	599	611	
3	0	0	0	0	600	612	
4	0	0	0	0	601	612	
5	0	0	0	0	603	611	
6	0	0	0	0	604	611	
7	0	0	0	0	606	612	
8	0	0	0	0	607	611	
9	0	0	0	0	608	611	
10	0	0	0	0	609	611	
11	0	0	0	0	611	612	
12	0	0	0	0	612	611	
13	0	0	0	0	612	611	
14	0	0	0	0	613	611	
15	0	0	0	0	613	611	
0	0	0	0	0	612	611	
1	0	0	0	0	612	611	
2	0	0	0	0	611	611	
3	0	0	0	0	611	610	
4	0	0	0	0	610	611	
5	0	0	0	0	609	610	
6	0	0	0	0	609	611	
7	0	0	0	0	609	611	
8	0	0	0	0	609	611	
9	0	0	0	0	609	611	
10	0	0	0	0	608	611	
11	0	0	0	0	607	612	
12	0	0	0	0	606	611	
13	0	0	0	0	605	611	
14	0	0	0	0	604	611	
15	0	0	0	0	603	611	
0	0	0	0	0	603	611	
1	0	0	0	0	602	611	
2	0	0	0	0	601	611	
3	0	0	0	0	602	611	
4	0	0	0	0	602	611	
5	0	0	0	0	603	611	
6	0	0	0	0	604	610	
7	0	0	0	0	604	611	
8	0	0	0	0	604	610	
9	0	0	0	0	605	610	
10	0	0	0	0	604	609	
11	0	0	0	0	604	610	
12	0	0	0	0	603	609	
13	0	0	0	0	602	609	
14	0	0	0	0	601	609	
15	0	0	0	0	600	610	
0	0	0	0	0	599	609	
1	0	0	0	0	597	609	
2	0	0	0	0	595	609	
3	0	0	0	0	594	609	
4	0	0	0	0	593	610	
5	0	0	0	0	591	609	
6	0	0	0	0	590	609	
7	0	0	0	0	589	610	
8	0	0	0	0	587	609	
9	0	0	0	0	586	610	
10	0	0	0	0	583	609	
11	0	0	0	0	582	610	
12	0	0	0	0	581	609	
13	0	0	0	0	579	610	
14	0	0	0	0	578	609	
15	0	0	0	0	577	609	
0	0	0	0	0	575	609	
1	0	0	0	0	575	609	
2	0	0	0	0	574	609	
3	0	0	0	0	574	609	
4	0	0	0	0	573	609	
5	0	0	0	0	573	609	
6	0	0	0	0	572	609	
7	0	0	0	0	572	610	
8	0	0	0	0	572	609	
9	0	0	0	0	572	609	
10	0	0	0	0	572	609	
11	0	0	0	0	573	609	
12	0	0	0	0	574	609	
13	0	0	0	0	576	609	
14	0	0	0	0	577	609	
15	0	0	0	0	578	610	
0	0	0	0	0	578	609	
1	0	0	0	0	578	609	
2	0	0	0	0	578	609	
3	0	0	0	0	578	609	
4	0	0	0	0	579	609	
5	0	0	0	0	578	609	
6	0	0	0	0	578	609	
7	0	0	0	0	577	610	
8	0	0	0	0	576	609	
9	0	0	0	0	574	609	
10	0	0	0	0	572	609	
11	0	0	0	0	571	609	
12	0	0	0	0	570	610	
13	0	0	0	0	568	609	
14	0	0	0	0	567	610	
15	0	0	0	0	566	611	
0	0	0	0	0	564	610	
1	0	0	0	0	563	609	
2	0	0	0	0	562	609	
3	0	0	0	0	561	610	
4	0	0	0	0	561	609	
5	0	0	0	0	561	610	
6	0	0	0	0	561	610	
7	0	0	0	0	560	610	
8	0	0	0	0	559	610	
9	0	0	0	0	559	611	
10	0	0	0	0	558	610	
11	0	0	0	0	556	610	
12	0	0	0	0	555	610	
13	0	0	0	0	553	611	
14	0	0	0	0	553	610	
15	0	0	0	0	553	611	
0	0	0	0	0	553	610	
1	0	0	0	0	553	611	
2	0	0	0	0	555	609	
3	0	0	0	0	556	611	
4	0	0	0	0	556	610	
5	0	0	0	0	558	610	
6	0	0	0	0	559	611	
7	0	0	0	0	559	611	
8	0	0	0	0	559	611	
9	0	0	0	0	559	611	
10	0	0	0	0	559	611	
11	0	0	0	0	559	610	
12	0	0	0	0	558	610	
13	0	0	0	0	559	610	
14	0	0	0	0	558	610	
15	0	0	0	0	557	611	
0	0	0	0	0	557	611	
1	0	0	0	0	556	611	
2	0	0	0	0	556	610	
3	0	0	0	0	556	611	
4	0	0	0	0	556	610	
5	0	0	0	0	556	610	
6	0	0	0	0	555	611	
7	0	0	0	0	554	611	
8	0	0	0	0	552	610	
9	0	0	0	0	550	611	
10	0	0	0	0	548	611	
11	0	0	0	0	546	612	
12	0	0	0	0	544	611	
13	0	0	0	0	541	612	
14	0	0	0	0	539	613	
15	0	0	0	0	535	613	
0	0	0	0	0	531	613	
1	0	0	0	0	528	613	
2	0	0	0	0	526	613	
3	0	0	0	0	525	614	
4	0	0	0	0	524	613	
5	0	0	0	0	523	613	
6	0	0	0	0	522	612	
7	0	0	0	0	521	614	
8	0	0	0	0	522	613	
9	0	0	0	0	524	613	
10	0	0	0	0	524	613	
11	0	0	0	0	524	614	
12	0	0	0	0	524	614	
13	0	0	0	0	523	613	
14	0	0	0	0	523	613	
15	0	0	0	0	522	613	
0	0	0	0	0	520	613	
1	0	0	0	0	520	612	
2	0	0	0	0	524	612	
3	0	0	0	0	532	613	
4	0	0	0	0	542	612	
5	0	0	0	0	554	613	
6	0	0	0	0	568	612	
7	0	0	0	0	582	613	
8	0	0	0	0	596	612	
9	0	0	0	0	611	612	
10	0	0	0	0	624	612	
11	0	0	0	0	635	613	
12	0	0	0	0	644	612	
13	0	0	0	0	654	612	
14	0	0	0	0	664	612	
15	0	0	0	0	676	613	
0	0	0	0	0	691	612	
1	0	0	0	0	711	612	
2	0	0	0	0	734	611	
3	0	0	0	0	760	612	
4	0	0	0	0	787	611	
5	0	0	0	0	812	611	
6	0	0	0	0	832	612	
7	0	0	0	0	849	612	
8	0	0	0	0	858	611	
9	0	0	0	0	861	611	
10	0	0	0	0	856	611	
11	0	0	0	0	847	612	
12	0	0	0	0	832	611	
13	0	0	0	0	815	611	
14	0	0	0	0	796	611	
15	0	0	0	0	775	611	
0	0	0	0	0	753	611	
1	0	0	0	0	733	611	
2	0	0	0	0	713	611	
3	0	0	0	0	694	611	
4	0	0	0	0	675	611	
5	0	0	0	0	656	609	
6	0	0	0	0	639	610	
7	0	0	0	0	622	611	
8	0	0	0	0	606	611	
9	0	0	0	0	590	611	
10	0	0	0	0	575	610	
11	0	0	0	0	561	611	
12	0	0	0	0	547	610	
13	0	0	0	0	534	610	
14	0	0	0	0	523	610	
15	0	0	0	0	513	610	
0	0	0	0	0	504	610	
1	0	0	0	0	496	609	
2	0	0	0	0	491	609	
3	0	0	0	0	485	609	
4	0	0	0	0	481	609	
5	0	0	0	0	477	609	
6	0	0	0	0	474	608	
7	0	0	0	0	472	609	
8	0	0	0	0	469	609	
9	0	0	0	0	467	609	
10	0	0	0	0	467	608	
11	0	0	0	0	466	609	
12	0	0	0	0	467	608	
13	0	0	0	0	467	609	
14	0	0	0	0	468	609	
15	0	0	0	0	468	609	
0	0	0	0	0	468	609	
1	0	0	0	0	468	609	
2	0	0	0	0	469	609	
3	0	0	0	0	469	609	
4	0	0	0	0	469	609	
5	0	0	0	0	469	609	
6	0	0	0	0	469	609	
7	0	0	0	0	469	610	
8	0	0	0	0	469	609	
9	0	0	0	0	469	610	
10	0	0	0	0	469	609	
11	0	0	0	0	469	610	
12	0	0	0	0	470	609	
13	0	0	0	0	471	610	
14	0	0	0	0	472	611	
15	0	0	0	0	473	612	
0	0	0	0	0	473	612	
1	0	0	0	0	475	611	
2	0	0	0	0	476	612	
3	0	0	0	0	477	611	
4	0	0	0	0	478	610	
5	0	0	0	0	479	611	
6	0	0	0	0	480	610	
7	0	0	0	0	480	611	
8	0	0	0	0	481	611	
9	0	0	0	0	482	611	
10	0	0	0	0	482	611	
11	0	0	0	0	482	611	
12	0	0	0	0	482	611	
13	0	0	0	0	482	611	
14	0	0	0	0	481	611	
15	0	0	0	0	481	611	
0	0	0	0	0	480	611	
1	0	0	0	0	480	611	
2	0	0	0	0	480	611	
3	0	0	0	0	480	611	
4	0	0	0	0	480	612	
5	0	0	0	0	479	611	
6	0	0	0	0	479	611	
7	0	0	0	0	479	611	
8	0	0	0	0	478	611	
9	0	0	0	0	478	611	
10	0	0	0	0	477	611	
11	0	0	0	0	477	611	
12	0	0	0	0	476	610	
13	0	0	0	0	476	610	
14	0	0	0	0	475	610	
15	0	0	0	0	475	611	
0	0	0	0	0	475	611	
1	0	0	0	0	474	611	
2	0	0	0	0	473	611	
3	0	0	0	0	474	611	
4	0	0	0	0	474	611	
5	0	0	0	0	474	611	
6	0	0	0	0	474	611	
7	0	0	0	0	474	612	
8	0	0	0	0	475	611	
9	0	0	0	0	474	611	
10	0	0	0	0	474	611	
11	0	0	0	0	475	611	
12	0	0	0	0	475	611	
13	0	0	0	0	475	611	
14	0	0	0	0	474	611	
15	0	0	0	0	473	611	
0	0	0	0	0	472	610	
1	0	0	0	0	471	611	
2	0	0	0	0	471	610	
3	0	0	0	0	471	610	
4	0	0	0	0	471	610	
5	0	0	0	0	470	609	
6	0	0	0	0	470	610	
7	0	0	0	0	469	611	
8	0	0	0	0	469	609	
9	0	0	0	0	469	610	
10	0	0	0	0	469	610	
11	0	0	0	0	468	611	
12	0	0	0	0	467	610	
13	0	0	0	0	467	610	
14	0	0	0	0	466	610	
15	0	0	0	0	466	611	
0	0	0	0	0	465	609	
1	0	0	0	0	464	610	
2	0	0	0	0	463	610	
3	0	0	0	0	463	610	
4	0	0	0	0	463	610	
5	0	0	0	0	463	609	
6	0	0	0	0	463	610	
7	0	0	0	0	462	611	
8	0	0	0	0	463	610	
9	0	0	0	0	462	609	
10	0	0	0	0	462	610	
11	0	0	0	0	463	609	
12	0	0	0	0	464	610	
13	0	0	0	0	465	609	
14	0	0	0	0	466	610	
15	0	0	0	0	467	610	
0	0	0	0	0	468	609	
1	0	0	0	0	469	609	
2	0	0	0	0	470	609	
3	0	0	0	0	471	609	
4	0	0	0	0	471	609	
5	0	0	0	0	472	609	
6	0	0	0	0	471	609	
7	0	0	0	0	472	610	
8	0	0	0	0	471	609	
9	0	0	0	0	471	609	
10	0	0	0	0	471	608	
11	0	0	0	0	471	609	
12	0	0	0	0	472	608	
13	0	0	0	0	472	608	
14	0	0	0	0	473	608	
15	0	0	0	0	473	609	
0	0	0	0	0	474	608	
1	0	0	0	0	475	609	
2	0	0	0	0	475	609	
3	0	0	0	0	476	609	
4	0	0	0	0	476	609	
5	0	0	0	0	477	609	
6	0	0	0	0	478	608	
7	0	0	0	0	478	609	
8	0	0	0	0	479	608	
9	0	0	0	0	480	608	
10	0	0	0	0	481	608	
11	0	0	0	0	482	609	
12	0	0	0	0	482	609	
13	0	0	0	0	483	609	
14	0	0	0	0	484	610	
15	0	0	0	0	484	610	
0	0	0	0	0	485	609	
1	0	0	0	0	485	609	
2	0	0	0	0	485	610	
3	0	0	0	0	484	610	
4	0	0	0	0	485	611	
5	0	0	0	0	484	610	
6	0	0	0	0	484	610	
7	0	0	0	0	485	611	
8	0	0	0	0	485	611	
9	0	0	0	0	485	611	
10	0	0	0	0	486	611	
11	0	0	0	0	486	612	
12	0	0	0	0	486	611	
13	0	0	0	0	485	612	
14	0	0	0	0	485	611	
15	0	0	0	0	486	612	
0	0	0	0	0	486	612	
1	0	0	0	0	486	612	
2	0	0	0	0	486	612	
3	0	0	0	0	486	612	
4	0	0	0	0	486	612	
5	0	0	0	0	486	612	
6	0	0	0	0	486	612	
7	0	0	0	0	487	613	
8	0	0	0	0	487	612	
9	0	0	0	0	488	613	
10	0	0	0	0	489	612	
11	0	0	0	0	490	613	
12	0	0	0	0	490	613	
13	0	0	0	0	491	613	
14	0	0	0	0	492	613	
15	0	0	0	0	493	613	
0	0	0	0	0	494	612	
1	0	0	0	0	495	612	
2	0	0	0	0	495	612	
3	0	0	0	0	494	612	
4	0	0	0	0	494	611	
5	0	0	0	0	494	611	
6	0	0	0	0	494	612	
7	0	0	0	0	494	612	
8	0	0	0	0	493	612	
9	0	0	0	0	493	612	
10	0	0	0	0	492	611	
11	0	0	0	0	491	612	
12	0	0	0	0	491	611	
13	0	0	0	0	492	611	
14	0	0	0	0	491	611	
15	0	0	0	0	492	611	
0	0	0	0	0	493	611	
1	0	0	0	0	493	611	
2	0	0	0	0	493	611	
3	0	0	0	0	494	612	
4	0	0	0	0	494	611	
5	0	0	0	0	495	611	
6	0	0	0	0	495	611	
7	0	0	0	0	495	611	
8	0	0	0	0	495	611	
9	0	0	0	0	495	611	
10	0	0	0	0	495	612	
11	0	0	0	0	494	611	
12	0	0	0	0	494	611	
13	0	0	0	0	495	611	
14	0	0	0	0	495	611	
15	0	0	0	0	494	611	
0	0	0	0	0	493	611	
1	0	0	0	0	493	612	
2	0	0	0	0	492	611	
3	0	0	0	0	492	611	
4	0	0	0	0	492	611	
5	0	0	0	0	492	611	
6	0	0	0	0	492	611	
7	0	0	0	0	491	612	
8	0	0	0	0	490	612	
9	0	0	0	0	490	611	
10	0	0	0	0	489	611	
11	0	0	0	0	488	612	
12	0	0	0	0	488	612	
13	0	0	0	0	488	612	
14	0	0	0	0	490	612	
15	0	0	0	0	492	612	
0	0	0	0	0	493	612	
1	0	0	0	0	495	612	
2	0	0	0	0	496	613	
3	0	0	0	0	497	612	
4	0	0	0	0	499	612	
5	0	0	0	0	501	613	
6	0	0	0	0	502	612	
7	0	0	0	0	504	613	
8	0	0	0	0	505	612	
9	0	0	0	0	506	612	
10	0	0	0	0	507	612	
11	0	0	0	0	507	612	
12	0	0	0	0	508	611	
13	0	0	0	0	509	612	
14	0	0	0	0	509	611	
15	0	0	0	0	508	612	
0	0	0	0	0	508	611	
1	0	0	0	0	508	611	
2	0	0	0	0	508	610	
3	0	0	0	0	508	610	
4	0	0	0	0	508	610	
5	0	0	0	0	509	610	
6	0	0	0	0	511	610	
7	0	0	0	0	511	611	
8	0	0	0	0	511	610	
9	0	0	0	0	511	610	
10	0	0	0	0	511	610	
11	0	0	0	0	512	610	
12	0	0	0	0	513	610	
13	0	0	0	0	515	611	
14	0	0	0	0	516	611	
15	0	0	0	0	516	612	
0	0	0	0	0	518	611	
1	0	0	0	0	520	610	
2	0	0	0	0	520	611	
3	0	0	0	0	521	611	
4	0	0	0	0	522	611	
5	0	0	0	0	521	611	
6	0	0	0	0	519	611	
7	0	0	0	0	518	612	
8	0	0	0	0	517	612	
9	0	0	0	0	517	612	
10	0	0	0	0	517	611	
11	0	0	0	0	518	612	
12	0	0	0	0	519	611	
13	0	0	0	0	520	611	
14	0	0	0	0	521	611	
15	0	0	0	0	522	612	
0	0	0	0	0	524	611	
1	0	0	0	0	524	611	
2	0	0	0	0	525	611	
3	0	0	0	0	526	611	
4	0	0	0	0	526	611	
5	0	0	0	0	526	611	
6	0	0	0	0	527	611	
7	0	0	0	0	527	611	
8	0	0	0	0	528	610	
9	0	0	0	0	529	611	
10	0	0	0	0	529	610	
11	0	0	0	0	529	610	
12	0	0	0	0	530	610	
13	0	0	0	0	531	610	
14	0	0	0	0	531	609	
15	0	0	0	0	531	610	
0	0	0	0	0	531	609	
1	0	0	0	0	531	609	
2	0	0	0	0	531	610	
3	0	0	0	0	531	609	
4	0	0	0	0	531	609	
5	0	0	0	0	531	610	
6	0	0	0	0	531	609	
7	0	0	0	0	531	609	
8	0	0	0	0	530	609	
9	0	0	0	0	529	609	
10	0	0	0	0	527	609	
11	0	0	0	0	526	609	
12	0	0	0	0	525	609	
13	0	0	0	0	524	608	
14	0	0	0	0	524	608	
15	0	0	0	0	523	608	
0	0	0	0	0	520	609	
1	0	0	0	0	518	609	
2	0	0	0	0	517	609	
3	0	0	0	0	516	609	
4	0	0	0	0	515	609	
5	0	0	0	0	515	609	
6	0	0	0	0	515	609	
7	0	0	0	0	515	609	
8	0	0	0	0	514	609	
9	0	0	0	0	515	608	
10	0	0	0	0	516	608	
11	0	0	0	0	518	609	
12	0	0	0	0	520	609	
13	0	0	0	0	521	609	
14	0	0	0	0	523	609	
15	0	0	0	0	524	610	
0	0	0	0	0	525	610	
1	0	0	0	0	524	610	
2	0	0	0	0	525	609	
3	0	0	0	0	526	610	
4	0	0	0	0	526	610	
5	0	0	0	0	526	610	
6	0	0	0	0	525	609	
7	0	0	0	0	525	610	
8	0	0	0	0	525	609	
9	0	0	0	0	525	610	
10	0	0	0	0	524	610	
11	0	0	0	0	523	610	
12	0	0	0	0	523	610	
13	0	0	0	0	523	610	
14	0	0	0	0	523	610	
15	0	0	0	0	523	611	
0	0	0	0	0	524	611	
1	0	0	0	0	524	610	
2	0	0	0	0	525	611	
3	0	0	0	0	525	611	
4	0	0	0	0	525	610	
5	0	0	0	0	525	611	
6	0	0	0	0	525	611	
7	0	0	0	0	525	612	
8	0	0	0	0	526	611	
9	0	0	0	0	527	611	
10	0	0	0	0	527	611	
11	0	0	0	0	527	611	
12	0	0	0	0	527	611	
13	0	0	0	0	528	611	
14	0	0	0	0	527	611	
15	0	0	0	0	527	612	
0	0	0	0	0	526	611	
1	0	0	0	0	524	611	
2	0	0	0	0	523	611	
3	0	0	0	0	522	612	
4	0	0	0	0	521	612	
5	0	0	0	0	521	611	
6	0	0	0	0	521	611	
7	0	0	0	0	521	612	
8	0	0	0	0	521	612	
9	0	0	0	0	521	612	
10	0	0	0	0	521	612	
11	0	0	0	0	523	612	
12	0	0	0	0	524	612	
13	0	0	0	0	525	612	
14	0	0	0	0	526	612	
15	0	0	0	0	526	613	
0	0	0	0	0	525	612	
1	0	0	0	0	525	612	
2	0	0	0	0	525	612	
3	0	0	0	0	526	612	
4	0	0	0	0	526	613	
5	0	0	0	0	527	613	
6	0	0	0	0	528	612	
7	0	0	0	0	528	612	
8	0	0	0	0	529	611	
9	0	0	0	0	528	612	
10	0	0	0	0	528	612	
11	0	0	0	0	528	612	
12	0	0	0	0	526	612	
13	0	0	0	0	526	612	
14	0	0	0	0	526	612	
15	0	0	0	0	526	612	
0	0	0	0	0	527	611	
1	0	0	0	0	526	612	
2	0	0	0	0	526	612	
3	0	0	0	0	526	612	
4	0	0	0	0	526	612	
5	0	0	0	0	526	612	
6	0	0	0	0	527	612	
7	0	0	0	0	528	612	
8	0	0	0	0	528	612	
9	0	0	0	0	528	611	
10	0	0	0	0	529	611	
11	0	0	0	0	529	611	
12	0	0	0	0	528	610	
13	0	0	0	0	527	610	
14	0	0	0	0	526	610	
15	0	0	0	0	526	611	
0	0	0	0	0	525	611	
1	0	0	0	0	524	611	
2	0	0	0	0	524	610	
3	0	0	0	0	524	611	
4	0	0	0	0	523	611	
5	0	0	0	0	523	611	
6	0	0	0	0	522	610	
7	0	0	0	0	521	611	
8	0	0	0	0	521	611	
9	0	0	0	0	520	611	
10	0	0	0	0	520	610	
11	0	0	0	0	520	610	
12	0	0	0	0	521	611	
13	0	0	0	0	522	610	
14	0	0	0	0	524	610	
15	0	0	0	0	525	611	
0	0	0	0	0	526	610	
1	0	0	0	0	528	610	
2	0	0	0	0	528	611	
3	0	0	0	0	529	611	
4	0	0	0	0	530	610	
5	0	0	0	0	530	610	
6	0	0	0	0	530	609	
7	0	0	0	0	530	610	
8	0	0	0	0	530	610	
9	0	0	0	0	530	609	
10	0	0	0	0	530	610	
11	0	0	0	0	531	610	
12	0	0	0	0	530	609	
13	0	0	0	0	530	610	
14	0	0	0	0	531	610	
15	0	0	0	0	530	610	
0	0	0	0	0	530	610	
1	0	0	0	0	529	610	
2	0	0	0	0	528	610	
3	0	0	0	0	527	610	
4	0	0	0	0	526	610	
5	0	0	0	0	526	609	
6	0	0	0	0	526	609	
7	0	0	0	0	527	610	
8	0	0	0	0	527	609	
9	0	0	0	0	527	609	
10	0	0	0	0	526	609	
11	0	0	0	0	525	610	
12	0	0	0	0	526	610	
13	0	0	0	0	526	610	
14	0	0	0	0	526	610	
15	0	0	0	0	526	611	
0	0	0	0	0	527	609	
1	0	0	0	0	527	609	
2	0	0	0	0	527	610	
3	0	0	0	0	527	610	
4	0	0	0	0	528	609	
5	0	0	0	0	528	609	
6	0	0	0	0	529	610	
7	0	0	0	0	530	610	
8	0	0	0	0	530	609	
9	0	0	0	0	531	609	
10	0	0	0	0	532	609	
11	0	0	0	0	533	610	
12	0	0	0	0	533	609	
13	0	0	0	0	534	609	
14	0	0	0	0	534	609	
15	0	0	0	0	533	609	
0	0	0	0	0	534	609	
1	0	0	0	0	535	609	
2	0	0	0	0	536	609	
3	0	0	0	0	537	610	
4	0	0	0	0	538	609	
5	0	0	0	0	539	610	
6	0	0	0	0	539	610	
7	0	0	0	0	540	611	
8	0	0	0	0	541	610	
9	0	0	0	0	541	610	
10	0	0	0	0	541	610	
11	0	0	0	0	541	610	
12	0	0	0	0	540	610	
13	0	0	0	0	540	610	
14	0	0	0	0	539	610	
15	0	0	0	0	539	611	
0	0	0	0	0	539	610	
1	0	0	0	0	539	611	
2	0	0	0	0	539	611	
3	0	0	0	0	539	611	
4	0	0	0	0	539	610	
5	0	0	0	0	539	611	
6	0	0	0	0	539	611	
7	0	0	0	0	540	611	
8	0	0	0	0	540	611	
9	0	0	0	0	540	610	
10	0	0	0	0	539	611	
11	0	0	0	0	540	611	
12	0	0	0	0	540	611	
13	0	0	0	0	539	612	
14	0	0	0	0	539	611	
15	0	0	0	0	538	612	
0	0	0	0	0	537	611	
1	0	0	0	0	536	611	
2	0	0	0	0	534	612	
3	0	0	0	0	533	612	
4	0	0	0	0	532	612	
5	0	0	0	0	531	611	
6	0	0	0	0	530	612	
7	0	0	0	0	529	612	
8	0	0	0	0	529	612	
9	0	0	0	0	528	612	
10	0	0	0	0	529	612	
11	0	0	0	0	530	613	
12	0	0	0	0	532	612	
13	0	0	0	0	534	612	
14	0	0	0	0	535	612	
15	0	0	0	0	537	612	
0	0	0	0	0	539	612	
1	0	0	0	0	540	611	
2	0	0	0	0	541	612	
3	0	0	0	0	542	611	
4	0	0	0	0	542	612	
5	0	0	0	0	543	612	
6	0	0	0	0	542	611	
7	0	0	0	0	542	612	
8	0	0	0	0	541	611	
9	0	0	0	0	540	611	
10	0	0	0	0	540	611	
11	0	0	0	0	539	611	
12	0	0	0	0	539	611	
13	0	0	0	0	538	611	
14	0	0	0	0	538	611	
15	0	0	0	0	539	611	
0	0	0	0	0	538	611	
1	0	0	0	0	539	611	
2	0	0	0	0	539	611	
3	0	0	0	0	540	611	
4	0	0	0	0	540	610	
5	0	0	0	0	540	610	
6	0	0	0	0	540	610	
7	0	0	0	0	540	611	
8	0	0	0	0	541	610	
9	0	0	0	0	540	610	
10	0	0	0	0	540	610	
11	0	0	0	0	540	611	
12	0	0	0	0	540	610	
13	0	0	0	0	540	609	
14	0	0	0	0	540	609	
15	0	0	0	0	539	609	
0	0	0	0	0	540	609	
1	0	0	0	0	540	609	
2	0	0	0	0	540	609	
3	0	0	0	0	541	609	
4	0	0	0	0	541	609	
5	0	0	0	0	540	609	
6	0	0	0	0	537	609	
7	0	0	0	0	536	610	
8	0	0	0	0	534	610	
9	0	0	0	0	532	610	
10	0	0	0	0	531	610	
11	0	0	0	0	529	610	
12	0	0	0	0	529	609	
13	0	0	0	0	528	609	
14	0	0	0	0	528	609	
15	0	0	0	0	529	610	
0	0	0	0	0	529	609	
1	0	0	0	0	530	610	
2	0	0	0	0	531	609	
3	0	0	0	0	532	609	
4	0	0	0	0	532	609	
5	0	0	0	0	534	609	
6	0	0	0	0	534	609	
7	0	0	0	0	534	610	
8	0	0	0	0	534	609	
9	0	0	0	0	536	610	
10	0	0	0	0	536	610	
11	0	0	0	0	537	610	
12	0	0	0	0	538	610	
13	0	0	0	0	539	610	
14	0	0	0	0	539	611	
15	0	0	0	0	539	610	
0	0	0	0	0	539	610	
1	0	0	0	0	539	610	
2	0	0	0	0	537	610	
3	0	0	0	0	538	610	
4	0	0	0	0	538	610	
5	0	0	0	0	537	609	
6	0	0	0	0	537	610	
7	0	0	0	0	537	610	
8	0	0	0	0	537	610	
9	0	0	0	0	537	610	
10	0	0	0	0	537	609	
11	0	0	0	0	537	610	
12	0	0	0	0	537	610	
13	0	0	0	0	536	610	
14	0	0	0	0	536	610	
15	0	0	0	0	537	610	
0	0	0	0	0	537	610	
1	0	0	0	0	538	610	
2	0	0	0	0	538	610	
3	0	0	0	0	538	611	
4	0	0	0	0	538	611	
5	0	0	0	0	539	610	
6	0	0	0	0	539	611	
7	0	0	0	0	539	611	
8	0	0	0	0	539	611	
9	0	0	0	0	540	611	
10	0	0	0	0	541	612	
11	0	0	0	0	542	612	
12	0	0	0	0	542	612	
13	0	0	0	0	542	612	
14	0	0	0	0	543	613	
15	0	0	0	0	543	613	
0	0	0	0	0	544	613	
1	0	0	0	0	545	613	
2	0	0	0	0	545	614	
3	0	0	0	0	545	614	
4	0	0	0	0	545	614	
5	0	0	0	0	545	614	
6	0	0	0	0	545	614	
7	0	0	0	0	545	614	
8	0	0	0	0	544	613	
9	0	0	0	0	543	614	
10	0	0	0	0	542	614	
11	0	0	0	0	541	614	
12	0	0	0	0	540	614	
13	0	0	0	0	538	613	
14	0	0	0	0	538	614	
15	0	0	0	0	537	615	
0	0	0	0	0	536	613	
1	0	0	0	0	536	614	
2	0	0	0	0	535	614	
3	0	0	0	0	535	614	
4	0	0	0	0	535	613	
5	0	0	0	0	535	613	
6	0	0	0	0	535	613	
7	0	0	0	0	535	614	
8	0	0	0	0	535	613	
9	0	0	0	0	535	613	
10	0	0	0	0	535	612	
11	0	0	0	0	535	612	
12	0	0	0	0	535	612	
13	0	0	0	0	535	612	
14	0	0	0	0	536	611	
15	0	0	0	0	537	611	
0	0	0	0	0	537	611	
1	0	0	0	0	537	611	
2	0	0	0	0	537	611	
3	0	0	0	0	537	611	
4	0	0	0	0	538	611	
5	0	0	0	0	538	611	
6	0	0	0	0	538	610	
7	0	0	0	0	538	610	
8	0	0	0	0	537	609	
9	0	0	0	0	538	609	
10	0	0	0	0	537	609	
11	0	0	0	0	536	610	
12	0	0	0	0	536	609	
13	0	0	0	0	535	609	
14	0	0	0	0	534	609	
15	0	0	0	0	533	610	
0	0	0	0	0	532	609	
1	0	0	0	0	531	609	
2	0	0	0	0	530	609	
3	0	0	0	0	529	609	
4	0	0	0	0	527	609	
5	0	0	0	0	526	609	
6	0	0	0	0	525	609	
7	0	0	0	0	524	609	
8	0	0	0	0	524	609	
9	0	0	0	0	524	610	
10	0	0	0	0	524	609	
11	0	0	0	0	523	609	
12	0	0	0	0	521	609	
13	0	0	0	0	520	610	
14	0	0	0	0	519	610	
15	0	0	0	0	518	611	
0	0	0	0	0	516	610	
1	0	0	0	0	517	610	
2	0	0	0	0	517	610	
3	0	0	0	0	517	610	
4	0	0	0	0	516	610	
5	0	0	0	0	517	610	
6	0	0	0	0	518	609	
7	0	0	0	0	519	610	
8	0	0	0	0	519	609	
9	0	0	0	0	519	610	
10	0	0	0	0	519	609	
11	0	0	0	0	519	609	
12	0	0	0	0	520	609	
13	0	0	0	0	520	609	
14	0	0	0	0	520	610	
15	0	0	0	0	519	610	
0	0	0	0	0	520	610	
1	0	0	0	0	521	610	
2	0	0	0	0	521	609	
3	0	0	0	0	521	609	
4	0	0	0	0	520	609	
5	0	0	0	0	518	610	
6	0	0	0	0	515	610	
7	0	0	0	0	512	610	
8	0	0	0	0	509	610	
9	0	0	0	0	506	610	
10	0	0	0	0	503	610	
11	0	0	0	0	499	611	
12	0	0	0	0	496	610	
13	0	0	0	0	494	610	
14	0	0	0	0	493	610	
15	0	0	0	0	492	610	
0	0	0	0	0	492	610	
1	0	0	0	0	491	610	
2	0	0	0	0	488	609	
3	0	0	0	0	487	609	
4	0	0	0	0	487	609	
5	0	0	0	0	487	609	
6	0	0	0	0	485	609	
7	0	0	0	0	483	610	
8	0	0	0	0	481	609	
9	0	0	0	0	479	609	
10	0	0	0	0	477	609	
11	0	0	0	0	474	609	
12	0	0	0	0	472	609	
13	0	0	0	0	472	609	
14	0	0	0	0	476	609	
15	0	0	0	0	483	610	
0	0	0	0	0	493	610	
1	0	0	0	0	508	611	
2	0	0	0	0	522	611	
3	0	0	0	0	537	611	
4	0	0	0	0	553	611	
5	0	0	0	0	567	611	
6	0	0	0	0	579	611	
7	0	0	0	0	590	612	
8	0	0	0	0	601	611	
9	0	0	0	0	613	611	
10	0	0	0	0	626	611	
11	0	0	0	0	642	611	
12	0	0	0	0	662	611	
13	0	0	0	0	685	611	
14	0	0	0	0	711	611	
15	0	0	0	0	738	611	
0	0	0	0	0	765	611	
1	0	0	0	0	788	611	
2	0	0	0	0	807	611	
3	0	0	0	0	821	611	
4	0	0	0	0	828	611	
5	0	0	0	0	828	611	
6	0	0	0	0	822	612	
7	0	0	0	0	810	612	
8	0	0	0	0	796	612	
9	0	0	0	0	778	611	
10	0	0	0	0	758	612	
11	0	0	0	0	737	612	
12	0	0	0	0	716	612	
13	0	0	0	0	697	612	
14	0	0	0	0	677	611	
15	0	0	0	0	659	612	
0	0	0	0	0	640	611	
1	0	0	0	0	624	611	
2	0	0	0	0	609	611	
3	0	0	0	0	594	611	
4	0	0	0	0	579	611	
5	0	0	0	0	566	611	
6	0	0	0	0	553	611	
7	0	0	0	0	540	611	
8	0	0	0	0	526	610	
9	0	0	0	0	513	610	
10	0	0	0	0	502	610	
11	0	0	0	0	491	610	
12	0	0	0	0	483	610	
13	0	0	0	0	476	610	
14	0	0	0	0	469	610	
15	0	0	0	0	464	611	
0	0	0	0	0	459	610	
1	0	0	0	0	455	610	
2	0	0	0	0	451	610	
3	0	0	0	0	448	610	
4	0	0	0	0	446	610	
5	0	0	0	0	444	610	
6	0	0	0	0	443	610	
7	0	0	0	0	442	611	
8	0	0	0	0	441	610	
9	0	0	0	0	441	610	
10	0	0	0	0	440	610	
11	0	0	0	0	440	610	
12	0	0	0	0	439	610	
13	0	0	0	0	438	610	
14	0	0	0	0	438	610	
15	0	0	0	0	438	610	
0	0	0	0	0	438	609	
1	0	0	0	0	438	609	
2	0	0	0	0	437	610	
3	0	0	0	0	437	610	
4	0	0	0	0	437	611	
5	0	0	0	0	437	611	
6	0	0	0	0	436	611	
7	0	0	0	0	435	611	
8	0	0	0	0	435	611	
9	0	0	0	0	436	611	
10	0	0	0	0	438	611	
11	0	0	0	0	440	611	
12	0	0	0	0	441	611	
13	0	0	0	0	443	611	
14	0	0	0	0	445	611	
15	0	0	0	0	446	611	
0	0	0	0	0	447	611	
1	0	0	0	0	448	611	
2	0	0	0	0	450	611	
3	0	0	0	0	451	611	
4	0	0	0	0	451	611	
5	0	0	0	0	452	610	
6	0	0	0	0	453	611	
7	0	0	0	0	453	611	
8	0	0	0	0	452	611	
9	0	0	0	0	453	611	
10	0	0	0	0	452	610	
11	0	0	0	0	453	611	
12	0	0	0	0	453	611	
13	0	0	0	0	454	610	
14	0	0	0	0	456	610	
15	0	0	0	0	457	611	
0	0	0	0	0	459	611	
1	0	0	0	0	460	611	
2	0	0	0	0	462	611	
3	0	0	0	0	463	611	
4	0	0	0	0	462	611	
5	0	0	0	0	462	610	
6	0	0	0	0	463	611	
7	0	0	0	0	463	611	
8	0	0	0	0	464	610	
9	0	0	0	0	463	611	
10	0	0	0	0	462	610	
11	0	0	0	0	462	611	
12	0	0	0	0	460	611	
13	0	0	0	0	460	610	
14	0	0	0	0	460	610	
15	0	0	0	0	460	610	
0	0	0	0	0	461	609	
1	0	0	0	0	462	609	
2	0	0	0	0	462	609	
3	0	0	0	0	463	609	
4	0	0	0	0	463	609	
5	0	0	0	0	463	608	
6	0	0	0	0	464	609	
7	0	0	0	0	464	609	
8	0	0	0	0	465	608	
9	0	0	0	0	466	609	
10	0	0	0	0	466	609	
11	0	0	0	0	467	610	
12	0	0	0	0	468	609	
13	0	0	0	0	470	609	
14	0	0	0	0	471	609	
15	0	0	0	0	472	610	
0	0	0	0	0	472	610	
1	0	0	0	0	472	609	
2	0	0	0	0	473	609	
3	0	0	0	0	474	610	
4	0	0	0	0	474	610	
5	0	0	0	0	475	610	
6	0	0	0	0	475	611	
7	0	0	0	0	476	611	
8	0	0	0	0	476	610	
9	0	0	0	0	476	611	
10	0	0	0	0	476	611	
11	0	0	0	0	475	611	
12	0	0	0	0	473	611	
13	0	0	0	0	472	611	
14	0	0	0	0	472	611	
15	0	0	0	0	471	611	
0	0	0	0	0	470	611	
1	0	0	0	0	471	611	
2	0	0	0	0	472	611	
3	0	0	0	0	473	611	
4	0	0	0	0	475	611	
5	0	0	0	0	477	611	
6	0	0	0	0	480	611	
7	0	0	0	0	481	612	
8	0	0	0	0	483	612	
9	0	0	0	0	485	612	
10	0	0	0	0	487	612	
11	0	0	0	0	487	612	
12	0	0	0	0	488	612	
13	0	0	0	0	490	612	
14	0	0	0	0	491	612	
15	0	0	0	0	492	613	
0	0	0	0	0	493	612	
1	0	0	0	0	493	611	
2	0	0	0	0	492	612	
3	0	0	0	0	492	611	
4	0	0	0	0	493	611	
5	0	0	0	0	493	611	
6	0	0	0	0	493	611	
7	0	0	0	0	495	611	
8	0	0	0	0	495	610	
9	0	0	0	0	496	610	
10	0	0	0	0	497	610	
11	0	0	0	0	496	610	
12	0	0	0	0	497	610	
13	0	0	0	0	498	610	
14	0	0	0	0	499	609	
15	0	0	0	0	499	610	
0	0	0	0	0	499	609	
1	0	0	0	0	498	609	
2	0	0	0	0	498	610	
3	0	0	0	0	497	610	
4	0	0	0	0	496	609	
5	0	0	0	0	496	609	
6	0	0	0	0	495	609	
7	0	0	0	0	493	611	
8	0	0	0	0	491	609	
9	0	0	0	0	490	610	
10	0	0	0	0	489	609	
11	0	0	0	0	487	610	
12	0	0	0	0	487	610	
13	0	0	0	0	487	610	
14	0	0	0	0	488	610	
15	0	0	0	0	489	611	
0	0	0	0	0	491	610	
1	0	0	0	0	492	610	
2	0	0	0	0	494	610	
3	0	0	0	0	495	611	
4	0	0	0	0	496	610	
5	0	0	0	0	497	610	
6	0	0	0	0	497	610	
7	0	0	0	0	498	611	
8	0	0	0	0	499	610	
9	0	0	0	0	501	611	
10	0	0	0	0	502	611	
11	0	0	0	0	502	611	
12	0	0	0	0	504	611	
13	0	0	0	0	505	611	
14	0	0	0	0	506	611	
15	0	0	0	0	507	612	
0	0	0	0	0	507	611	
1	0	0	0	0	507	612	
2	0	0	0	0	507	612	
3	0	0	0	0	506	612	
4	0	0	0	0	505	611	
5	0	0	0	0	504	611	
6	0	0	0	0	504	612	
7	0	0	0	0	503	612	
8	0	0	0	0	501	612	
9	0	0	0	0	500	612	
10	0	0	0	0	499	612	
11	0	0	0	0	499	612	
12	0	0	0	0	499	611	
13	0	0	0	0	498	611	
14	0	0	0	0	499	611	
15	0	0	0	0	500	611	
0	0	0	0	0	501	611	
1	0	0	0	0	502	611	
2	0	0	0	0	503	611	
3	0	0	0	0	504	611	
4	0	0	0	0	505	611	
5	0	0	0	0	506	611	
6	0	0	0	0	506	610	
7	0	0	0	0	506	611	
8	0	0	0	0	507	611	
9	0	0	0	0	507	611	
10	0	0	0	0	507	610	
11	0	0	0	0	508	611	
12	0	0	0	0	508	611	
13	0	0	0	0	509	611	
14	0	0	0	0	510	610	
15	0	0	0	0	511	611	
0	0	0	0	0	510	610	
1	0	0	0	0	510	610	
2	0	0	0	0	511	611	
3	0	0	0	0	511	611	
4	0	0	0	0	511	610	
5	0	0	0	0	511	610	
6	0	0	0	0	511	611	
7	0	0	0	0	511	611	
8	0	0	0	0	511	610	
9	0	0	0	0	511	610	
10	0	0	0	0	511	610	
11	0	0	0	0	512	611	
12	0	0	0	0	512	611	
13	0	0	0	0	512	611	
14	0	0	0	0	512	611	
15	0	0	0	0	512	611	
0	0	0	0	0	512	611	
1	0	0	0	0	512	611	
2	0	0	0	0	512	611	
3	0	0	0	0	511	610	
4	0	0	0	0	511	610	
5	0	0	0	0	511	611	
6	0	0	0	0	511	611	
7	0	0	0	0	511	611	
8	0	0	0	0	512	611	
9	0	0	0	0	514	611	
10	0	0	0	0	517	611	
11	0	0	0	0	519	611	
12	0	0	0	0	521	611	
13	0	0	0	0	524	611	
14	0	0	0	0	525	611	
15	0	0	0	0	527	611	
0	0	0	0	0	528	610	
1	0	0	0	0	530	610	
2	0	0	0	0	531	610	
3	0	0	0	0	531	611	
4	0	0	0	0	531	611	
5	0	0	0	0	531	611	
6	0	0	0	0	531	611	
7	0	0	0	0	531	611	
8	0	0	0	0	531	611	
9	0	0	0	0	532	610	
10	0	0	0	0	534	611	
11	0	0	0	0	535	611	
12	0	0	0	0	536	611	
13	0	0	0	0	537	611	
14	0	0	0	0	539	611	
15	0	0	0	0	541	612	
0	0	0	0	0	542	611	
1	0	0	0	0	543	612	
2	0	0	0	0	543	612	
3	0	0	0	0	543	612	
4	0	0	0	0	544	612	
5	0	0	0	0	545	612	
6	0	0	0	0	546	612	
7	0	0	0	0	547	613	
8	0	0	0	0	548	612	
9	0	0	0	0	549	612	
10	0	0	0	0	549	611	
11	0	0	0	0	550	612	
12	0	0	0	0	549	612	
13	0	0	0	0	548	611	
14	0	0	0	0	548	611	
15	0	0	0	0	547	611	
0	0	0	0	0	547	611	
1	0	0	0	0	546	611	
2	0	0	0	0	545	610	
3	0	0	0	0	544	611	
4	0	0	0	0	544	611	
5	0	0	0	0	544	610	
6	0	0	0	0	543	610	
7	0	0	0	0	542	610	
8	0	0	0	0	542	609	
9	0	0	0	0	542	609	
10	0	0	0	0	541	609	
11	0	0	0	0	541	609	
12	0	0	0	0	540	609	
13	0	0	0	0	539	609	
14	0	0	0	0	538	610	
15	0	0	0	0	538	610	
0	0	0	0	0	536	609	
1	0	0	0	0	536	609	
2	0	0	0	0	536	609	
3	0	0	0	0	536	609	
4	0	0	0	0	536	608	
5	0	0	0	0	535	608	
6	0	0	0	0	534	608	
7	0	0	0	0	532	608	
8	0	0	0	0	530	608	
9	0	0	0	0	529	608	
10	0	0	0	0	528	608	
11	0	0	0	0	526	608	
12	0	0	0	0	526	608	
13	0	0	0	0	525	608	
14	0	0	0	0	525	608	
15	0	0	0	0	525	609	
0	0	0	0	0	526	609	
1	0	0	0	0	526	609	
2	0	0	0	0	525	609	
3	0	0	0	0	525	609	
4	0	0	0	0	526	610	
5	0	0	0	0	527	610	
6	0	0	0	0	527	610	
7	0	0	0	0	527	611	
8	0	0	0	0	528	611	
9	0	0	0	0	527	611	
10	0	0	0	0	527	611	
11	0	0	0	0	526	612	
12	0	0	0	0	525	612	
13	0	0	0	0	525	612	
14	0	0	0	0	524	612	
15	0	0	0	0	524	613	
0	0	0	0	0	524	612	
1	0	0	0	0	523	613	
2	0	0	0	0	524	612	
3	0	0	0	0	523	612	
4	0	0	0	0	523	612	
5	0	0	0	0	522	613	
6	0	0	0	0	521	612	
7	0	0	0	0	521	614	
8	0	0	0	0	519	612	
9	0	0	0	0	519	612	
10	0	0	0	0	517	611	
11	0	0	0	0	516	612	
12	0	0	0	0	515	612	
13	0	0	0	0	515	611	
14	0	0	0	0	514	611	
15	0	0	0	0	514	612	
0	0	0	0	0	513	611	
1	0	0	0	0	512	611	
2	0	0	0	0	511	611	
3	0	0	0	0	510	611	
4	0	0	0	0	509	611	
5	0	0	0	0	507	610	
6	0	0	0	0	504	611	
7	0	0	0	0	502	611	
8	0	0	0	0	500	610	
9	0	0	0	0	498	610	
10	0	0	0	0	497	610	
11	0	0	0	0	496	610	
12	0	0	0	0	495	609	
13	0	0	0	0	494	609	
14	0	0	0	0	494	609	
15	0	0	0	0	495	610	
0	0	0	0	0	496	609	
1	0	0	0	0	498	609	
2	0	0	0	0	499	609	
3	0	0	0	0	500	609	
4	0	0	0	0	502	608	
5	0	0	0	0	503	609	
6	0	0	0	0	504	609	
7	0	0	0	0	505	609	
8	0	0	0	0	506	609	
9	0	0	0	0	507	608	
10	0	0	0	0	507	609	
11	0	0	0	0	507	610	
12	0	0	0	0	507	609	
13	0	0	0	0	506	610	
14	0	0	0	0	506	609	
15	0	0	0	0	506	611	
0	0	0	0	0	506	610	
1	0	0	0	0	505	610	
2	0	0	0	0	504	611	
3	0	0	0	0	504	611	
4	0	0	0	0	504	612	
5	0	0	0	0	503	613	
6	0	0	0	0	503	612	
7	0	0	0	0	503	613	
8	0	0	0	0	502	612	
9	0	0	0	0	502	613	
10	0	0	0	0	502	613	
11	0	0	0	0	503	613	
12	0	0	0	0	504	613	
13	0	0	0	0	504	613	
14	0	0	0	0	504	613	
15	0	0	0	0	503	614	
0	0	0	0	0	503	614	
1	0	0	0	0	503	613	
2	0	0	0	0	503	613	
3	0	0	0	0	502	614	
4	0	0	0	0	500	613	
5	0	0	0	0	500	613	
6	0	0	0	0	499	612	
7	0	0	0	0	499	614	
8	0	0	0	0	500	613	
9	0	0	0	0	501	612	
10	0	0	0	0	502	612	
11	0	0	0	0	503	612	
12	0	0	0	0	505	612	
13	0	0	0	0	506	613	
14	0	0	0	0	507	612	
15	0	0	0	0	507	612	
0	0	0	0	0	508	612	
1	0	0	0	0	509	612	
2	0	0	0	0	510	612	
3	0	0	0	0	511	612	
4	0	0	0	0	511	611	
5	0	0	0	0	513	611	
6	0	0	0	0	513	611	
7	0	0	0	0	513	611	
8	0	0	0	0	513	611	
9	0	0	0	0	513	610	
10	0	0	0	0	512	610	
11	0	0	0	0	511	610	
12	0	0	0	0	511	610	
13	0	0	0	0	511	610	
14	0	0	0	0	511	609	
15	0	0	0	0	511	611	
0	0	0	0	0	511	609	
1	0	0	0	0	511	609	
2	0	0	0	0	510	609	
3	0	0	0	0	510	609	
4	0	0	0	0	510	609	
5	0	0	0	0	509	608	
6	0	0	0	0	510	608	
7	0	0	0	0	510	608	
8	0	0	0	0	510	608	
9	0	0	0	0	510	609	
10	0	0	0	0	509	609	
11	0	0	0	0	509	609	
12	0	0	0	0	509	609	
13	0	0	0	0	509	609	
14	0	0	0	0	509	609	
15	0	0	0	0	509	610	
0	0	0	0	0	510	609	
1	0	0	0	0	510	609	
2	0	0	0	0	510	609	
3	0	0	0	0	510	609	
4	0	0	0	0	511	609	
5	0	0	0	0	511	609	
6	0	0	0	0	511	609	
7	0	0	0	0	511	610	
8	0	0	0	0	512	610	
9	0	0	0	0	512	609	
10	0	0	0	0	513	610	
11	0	0	0	0	514	611	
12	0	0	0	0	515	611	
13	0	0	0	0	516	610	
14	0	0	0	0	518	611	
15	0	0	0	0	519	611	
0	0	0	0	0	521	611	
1	0	0	0	0	524	611	
2	0	0	0	0	525	612	
3	0	0	0	0	528	611	
4	0	0	0	0	530	612	
5	0	0	0	0	532	612	
6	0	0	0	0	534	612	
7	0	0	0	0	537	613	
8	0	0	0	0	539	612	
9	0	0	0	0	542	613	
10	0	0	0	0	543	612	
11	0	0	0	0	543	613	
12	0	0	0	0	543	612	
13	0	0	0	0	543	612	
14	0	0	0	0	543	612	
15	0	0	0	0	542	612	
0	0	0	0	0	542	612	
1	0	0	0	0	542	611	
2	0	0	0	0	542	611	
3	0	0	0	0	542	612	
4	0	0	0	0	541	611	
5	0	0	0	0	540	611	
6	0	0	0	0	540	610	
7	0	0	0	0	539	611	
8	0	0	0	0	537	611	
9	0	0	0	0	536	610	
10	0	0	0	0	534	610	
11	0	0	0	0	532	610	
12	0	0	0	0	531	609	
13	0	0	0	0	531	610	
14	0	0	0	0	530	610	
15	0	0	0	0	529	611	
0	0	0	0	0	527	610	
1	0	0	0	0	527	610	
2	0	0	0	0	526	610	
3	0	0	0	0	525	610	
4	0	0	0	0	523	610	
5	0	0	0	0	521	610	
6	0	0	0	0	519	611	
7	0	0	0	0	519	612	
8	0	0	0	0	517	611	
9	0	0	0	0	516	610	
10	0	0	0	0	515	611	
11	0	0	0	0	513	611	
12	0	0	0	0	513	611	
13	0	0	0	0	512	611	
14	0	0	0	0	511	611	
15	0	0	0	0	510	611	
0	0	0	0	0	510	611	
1	0	0	0	0	511	611	
2	0	0	0	0	511	611	
3	0	0	0	0	511	611	
4	0	0	0	0	512	612	
5	0	0	0	0	512	611	
6	0	0	0	0	512	611	
7	0	0	0	0	513	611	
8	0	0	0	0	514	610	
9	0	0	0	0	514	610	
10	0	0	0	0	515	611	
11	0	0	0	0	516	611	
12	0	0	0	0	517	610	
13	0	0	0	0	518	611	
14	0	0	0	0	519	611	
15	0	0	0	0	519	611	
0	0	0	0	0	519	611	
1	0	0	0	0	518	611	
2	0	0	0	0	518	611	
3	0	0	0	0	518	611	
4	0	0	0	0	518	611	
5	0	0	0	0	518	611	
6	0	0	0	0	518	611	
7	0	0	0	0	519	611	
8	0	0	0	0	518	610	
9	0	0	0	0	518	611	
10	0	0	0	0	519	610	
11	0	0	0	0	518	611	
12	0	0	0	0	519	611	
13	0	0	0	0	519	610	
14	0	0	0	0	519	611	
15	0	0	0	0	519	612	
0	0	0	0	0	518	611	
1	0	0	0	0	517	610	
2	0	0	0	0	517	611	
3	0	0	0	0	517	611	
4	0	0	0	0	517	611	
5	0	0	0	0	517	611	
6	0	0	0	0	518	611	
7	0	0	0	0	519	611	
8	0	0	0	0	519	611	
9	0	0	0	0	520	611	
10	0	0	0	0	520	611	
11	0	0	0	0	521	611	
12	0	0	0	0	523	611	
13	0	0	0	0	524	611	
14	0	0	0	0	525	611	
15	0	0	0	0	526	611	
0	0	0	0	0	527	610	
1	0	0	0	0	526	611	
2	0	0	0	0	527	611	
3	0	0	0	0	527	611	
4	0	0	0	0	528	611	
5	0	0	0	0	528	611	
6	0	0	0	0	529	610	
7	0	0	0	0	529	611	
8	0	0	0	0	529	610	
9	0	0	0	0	530	610	
10	0	0	0	0	531	610	
11	0	0	0	0	531	611	
12	0	0	0	0	532	612	
13	0	0	0	0	532	612	
14	0	0	0	0	532	612	
15	0	0	0	0	532	612	
0	0	0	0	0	531	613	
1	0	0	0	0	531	612	
2	0	0	0	0	531	613	
3	0	0	0	0	530	613	
4	0	0	0	0	530	613	
5	0	0	0	0	529	613	
6	0	0	0	0	527	613	
7	0	0	0	0	527	614	
8	0	0	0	0	526	612	
9	0	0	0	0	524	612	
10	0	0	0	0	524	612	
11	0	0	0	0	524	612	
12	0	0	0	0	524	613	
13	0	0	0	0	524	612	
14	0	0	0	0	524	611	
15	0	0	0	0	524	611	
0	0	0	0	0	524	611	
1	0	0	0	0	525	611	
2	0	0	0	0	526	611	
3	0	0	0	0	526	610	
4	0	0	0	0	526	610	
5	0	0	0	0	527	610	
6	0	0	0	0	527	610	
7	0	0	0	0	528	610	
8	0	0	0	0	528	609	
9	0	0	0	0	529	610	
10	0	0	0	0	529	610	
11	0	0	0	0	530	610	
12	0	0	0	0	531	609	
13	0	0	0	0	532	609	
14	0	0	0	0	532	610	
15	0	0	0	0	531	610	
0	0	0	0	0	531	610	
1	0	0	0	0	532	609	
2	0	0	0	0	531	609	
3	0	0	0	0	532	609	
4	0	0	0	0	532	609	
5	0	0	0	0	534	609	
6	0	0	0	0	534	608	
7	0	0	0	0	535	610	
8	0	0	0	0	534	610	
9	0	0	0	0	534	610	
10	0	0	0	0	533	609	
11	0	0	0	0	531	610	
12	0	0	0	0	530	609	
13	0	0	0	0	528	610	
14	0	0	0	0	527	610	
15	0	0	0	0	526	610	
0	0	0	0	0	524	610	
1	0	0	0	0	523	609	
2	0	0	0	0	523	609	
3	0	0	0	0	522	610	
4	0	0	0	0	522	609	
5	0	0	0	0	522	609	
6	0	0	0	0	521	609	
7	0	0	0	0	520	609	
8	0	0	0	0	520	609	
9	0	0	0	0	519	608	
10	0	0	0	0	519	609	
11	0	0	0	0	519	609	
12	0	0	0	0	519	609	
13	0	0	0	0	519	608	
14	0	0	0	0	519	609	
15	0	0	0	0	518	610	
0	0	0	0	0	518	609	
1	0	0	0	0	518	609	
2	0	0	0	0	518	609	
3	0	0	0	0	518	609	
4	0	0	0	0	518	609	
5	0	0	0	0	517	609	
6	0	0	0	0	516	609	
7	0	0	0	0	515	610	
8	0	0	0	0	514	610	
9	0	0	0	0	513	610	
10	0	0	0	0	512	610	
11	0	0	0	0	512	610	
12	0	0	0	0	512	610	
13	0	0	0	0	512	610	
14	0	0	0	0	511	610	
15	0	0	0	0	512	610	
0	0	0	0	0	512	610	
1	0	0	0	0	511	610	
2	0	0	0	0	510	610	
3	0	0	0	0	509	611	
4	0	0	0	0	508	610	
5	0	0	0	0	508	611	
6	0	0	0	0	507	611	
7	0	0	0	0	508	610	
8	0	0	0	0	508	610	
9	0	0	0	0	508	611	
10	0	0	0	0	508	610	
11	0	0	0	0	507	610	
12	0	0	0	0	507	610	
13	0	0	0	0	506	610	
14	0	0	0	0	507	610	
15	0	0	0	0	506	610	
0	0	0	0	0	505	610	
1	0	0	0	0	505	610	
2	0	0	0	0	505	609	
3	0	0	0	0	504	610	
4	0	0	0	0	504	609	
5	0	0	0	0	504	610	
6	0	0	0	0	504	610	
7	0	0	0	0	503	611	
8	0	0	0	0	503	611	
9	0	0	0	0	503	610	
10	0	0	0	0	504	610	
11	0	0	0	0	504	611	
12	0	0	0	0	504	610	
13	0	0	0	0	505	611	
14	0	0	0	0	507	611	
15	0	0	0	0	508	611	
0	0	0	0	0	510	610	
1	0	0	0	0	512	611	
2	0	0	0	0	512	611	
3	0	0	0	0	513	611	
4	0	0	0	0	513	611	
5	0	0	0	0	513	611	
6	0	0	0	0	513	611	
7	0	0	0	0	513	612	
8	0	0	0	0	515	611	
9	0	0	0	0	515	611	
10	0	0	0	0	515	612	
11	0	0	0	0	514	611	
12	0	0	0	0	513	611	
13	0	0	0	0	513	612	
14	0	0	0	0	513	611	
15	0	0	0	0	513	612	
0	0	0	0	0	512	611	
1	0	0	0	0	512	611	
2	0	0	0	0	510	611	
3	0	0	0	0	509	612	
4	0	0	0	0	509	611	
5	0	0	0	0	508	612	
6	0	0	0	0	508	612	
7	0	0	0	0	507	612	
8	0	0	0	0	506	611	
9	0	0	0	0	505	612	
10	0	0	0	0	505	611	
11	0	0	0	0	504	611	
12	0	0	0	0	503	611	
13	0	0	0	0	501	611	
14	0	0	0	0	499	612	
15	0	0	0	0	498	612	
0	0	0	0	0	498	611	
1	0	0	0	0	497	611	
2	0	0	0	0	496	611	
3	0	0	0	0	494	611	
4	0	0	0	0	492	611	
5	0	0	0	0	490	611	
6	0	0	0	0	487	611	
7	0	0	0	0	484	611	
8	0	0	0	0	481	611	
9	0	0	0	0	479	611	
10	0	0	0	0	476	612	
11	0	0	0	0	475	611	
12	0	0	0	0	473	611	
13	0	0	0	0	473	611	
14	0	0	0	0	473	611	
15	0	0	0	0	474	611	
0	0	0	0	0	474	611	
1	0	0	0	0	473	611	
2	0	0	0	0	473	611	
3	0	0	0	0	474	611	
4	0	0	0	0	475	611	
5	0	0	0	0	475	611	
6	0	0	0	0	475	610	
7	0	0	0	0	474	611	
8	0	0	0	0	473	610	
9	0	0	0	0	473	610	
10	0	0	0	0	471	610	
11	0	0	0	0	470	610	
12	0	0	0	0	472	610	
13	0	0	0	0	478	610	
14	0	0	0	0	485	610	
15	0	0	0	0	495	610	
0	0	0	0	0	508	610	
1	0	0	0	0	523	609	
2	0	0	0	0	537	609	
3	0	0	0	0	553	609	
4	0	0	0	0	568	610	
5	0	0	0	0	580	609	
6	0	0	0	0	592	609	
7	0	0	0	0	604	610	
8	0	0	0	0	617	609	
9	0	0	0	0	630	609	
10	0	0	0	0	645	609	
11	0	0	0	0	664	610	
12	0	0	0	0	688	609	
13	0	0	0	0	715	609	
14	0	0	0	0	742	609	
15	0	0	0	0	768	610	
0	0	0	0	0	792	610	
1	0	0	0	0	811	610	
2	0	0	0	0	824	610	
3	0	0	0	0	830	609	
4	0	0	0	0	830	610	
5	0	0	0	0	825	610	
6	0	0	0	0	815	611	
7	0	0	0	0	800	611	
8	0	0	0	0	784	611	
9	0	0	0	0	764	611	
10	0	0	0	0	744	612	
11	0	0	0	0	724	612	
12	0	0	0	0	705	612	
13	0	0	0	0	684	612	
14	0	0	0	0	665	612	
15	0	0	0	0	647	612	
0	0	0	0	0	631	612	
1	0	0	0	0	615	612	
2	0	0	0	0	601	612	
3	0	0	0	0	587	612	
4	0	0	0	0	573	612	
5	0	0	0	0	559	612	
6	0	0	0	0	546	612	
7	0	0	0	0	532	612	
8	0	0	0	0	520	612	
9	0	0	0	0	509	612	
10	0	0	0	0	499	611	
11	0	0	0	0	491	612	
12	0	0	0	0	484	612	
13	0	0	0	0	480	612	
14	0	0	0	0	476	612	
15	0	0	0	0	473	613	
0	0	0	0	0	471	611	
1	0	0	0	0	468	612	
2	0	0	0	0	465	612	
3	0	0	0	0	462	613	
4	0	0	0	0	460	611	
5	0	0	0	0	458	612	
6	0	0	0	0	455	611	
7	0	0	0	0	454	612	
8	0	0	0	0	452	611	
9	0	0	0	0	451	611	
10	0	0	0	0	449	611	
11	0	0	0	0	448	611	
12	0	0	0	0	447	611	
13	0	0	0	0	446	611	
14	0	0	0	0	445	611	
15	0	0	0	0	446	611	
0	0	0	0	0	445	610	
1	0	0	0	0	444	610	
2	0	0	0	0	444	610	
3	0	0	0	0	445	609	
4	0	0	0	0	445	609	
5	0	0	0	0	445	609	
6	0	0	0	0	446	609	
7	0	0	0	0	445	610	
8	0	0	0	0	444	610	
9	0	0	0	0	444	610	
10	0	0	0	0	443	609	
11	0	0	0	0	442	610	
12	0	0	0	0	441	609	
13	0	0	0	0	440	609	
14	0	0	0	0	439	609	
15	0	0	0	0	438	610	
0	0	0	0	0	437	610	
1	0	0	0	0	438	611	
2	0	0	0	0	438	611	
3	0	0	0	0	438	611	
4	0	0	0	0	439	611	
5	0	0	0	0	440	611	
6	0	0	0	0	440	611	
7	0	0	0	0	441	612	
8	0	0	0	0	441	611	
9	0	0	0	0	441	611	
10	0	0	0	0	441	611	
11	0	0	0	0	442	611	
12	0	0	0	0	442	611	
13	0	0	0	0	443	611	
14	0	0	0	0	443	611	
15	0	0	0	0	444	611	
0	0	0	0	0	444	611	
1	0	0	0	0	445	611	
2	0	0	0	0	446	611	
3	0	0	0	0	447	610	
4	0	0	0	0	448	610	
5	0	0	0	0	448	611	
6	0	0	0	0	449	611	
7	0	0	0	0	451	611	
8	0	0	0	0	451	611	
9	0	0	0	0	452	610	
10	0	0	0	0	454	610	
11	0	0	0	0	454	611	
12	0	0	0	0	455	611	
13	0	0	0	0	455	611	
14	0	0	0	0	455	611	
15	0	0	0	0	454	612	
0	0	0	0	0	453	611	
1	0	0	0	0	453	611	
2	0	0	0	0	453	611	
3	0	0	0	0	453	611	
4	0	0	0	0	452	610	
5	0	0	0	0	453	610	
6	0	0	0	0	453	610	
7	0	0	0	0	454	611	
8	0	0	0	0	454	610	
9	0	0	0	0	454	610	
10	0	0	0	0	454	610	
11	0	0	0	0	454	610	
12	0	0	0	0	453	610	
13	0	0	0	0	451	609	
14	0	0	0	0	451	609	
15	0	0	0	0	450	610	
0	0	0	0	0	451	608	
1	0	0	0	0	450	609	
2	0	0	0	0	450	608	
3	0	0	0	0	451	609	
4	0	0	0	0	452	609	
5	0	0	0	0	454	608	
6	0	0	0	0	455	608	
7	0	0	0	0	456	609	
8	0	0	0	0	457	608	
9	0	0	0	0	458	608	
10	0	0	0	0	460	608	
11	0	0	0	0	462	609	
12	0	0	0	0	464	609	
13	0	0	0	0	466	608	
14	0	0	0	0	467	609	
15	0	0	0	0	468	610	
0	0	0	0	0	469	609	
1	0	0	0	0	470	609	
2	0	0	0	0	470	609	
3	0	0	0	0	470	609	
4	0	0	0	0	471	609	
5	0	0	0	0	471	609	
6	0	0	0	0	472	609	
7	0	0	0	0	473	609	
8	0	0	0	0	474	609	
9	0	0	0	0	475	609	
10	0	0	0	0	476	609	
11	0	0	0	0	478	610	
12	0	0	0	0	479	610	
13	0	0	0	0	480	609	
14	0	0	0	0	481	610	
15	0	0	0	0	482	611	
0	0	0	0	0	483	610	
1	0	0	0	0	485	610	
2	0	0	0	0	486	610	
3	0	0	0	0	487	611	
4	0	0	0	0	487	610	
5	0	0	0	0	487	610	
6	0	0	0	0	488	610	
7	0	0	0	0	489	611	
8	0	0	0	0	489	610	
9	0	0	0	0	489	610	
10	0	0	0	0	489	611	
11	0	0	0	0	490	611	
12	0	0	0	0	490	611	
13	0	0	0	0	490	611	
14	0	0	0	0	490	611	
15	0	0	0	0	490	612	
0	0	0	0	0	489	611	
1	0	0	0	0	489	612	
2	0	0	0	0	489	611	
3	0	0	0	0	489	612	
4	0	0	0	0	488	612	
5	0	0	0	0	488	612	
6	0	0	0	0	487	612	
7	0	0	0	0	487	613	
8	0	0	0	0	487	612	
9	0	0	0	0	486	612	
10	0	0	0	0	486	612	
11	0	0	0	0	485	612	
12	0	0	0	0	485	612	
13	0	0	0	0	484	612	
14	0	0	0	0	484	612	
15	0	0	0	0	482	613	
0	0	0	0	0	480	613	
1	0	0	0	0	480	612	
2	0	0	0	0	479	612	
3	0	0	0	0	478	613	
4	0	0	0	0	479	613	
5	0	0	0	0	479	612	
6	0	0	0	0	479	613	
7	0	0	0	0	480	613	
8	0	0	0	0	481	612	
9	0	0	0	0	481	612	
10	0	0	0	0	480	612	
11	0	0	0	0	480	612	
12	0	0	0	0	481	612	
13	0	0	0	0	482	612	
14	0	0	0	0	482	611	
15	0	0	0	0	483	612	
0	0	0	0	0	484	611	
1	0	0	0	0	486	611	
2	0	0	0	0	486	611	
3	0	0	0	0	487	611	
4	0	0	0	0	487	611	
5	0	0	0	0	488	611	
6	0	0	0	0	488	611	
7	0	0	0	0	488	611	
8	0	0	0	0	489	610	
9	0	0	0	0	489	610	
10	0	0	0	0	490	611	
11	0	0	0	0	491	611	
12	0	0	0	0	491	611	
13	0	0	0	0	492	611	
14	0	0	0	0	492	610	
15	0	0	0	0	491	611	
0	0	0	0	0	491	610	
1	0	0	0	0	491	610	
2	0	0	0	0	491	611	
3	0	0	0	0	490	611	
4	0	0	0	0	490	611	
5	0	0	0	0	491	611	
6	0	0	0	0	491	611	
7	0	0	0	0	491	611	
8	0	0	0	0	491	611	
9	0	0	0	0	491	611	
10	0	0	0	0	491	611	
11	0	0	0	0	491	611	
12	0	0	0	0	491	611	
13	0	0	0	0	492	611	
14	0	0	0	0	493	611	
15	0	0	0	0	493	612	
0	0	0	0	0	492	611	
1	0	0	0	0	493	611	
2	0	0	0	0	494	611	
3	0	0	0	0	494	611	
4	0	0	0	0	495	611	
5	0	0	0	0	496	611	
6	0	0	0	0	496	611	
7	0	0	0	0	497	612	
8	0	0	0	0	498	611	
9	0	0	0	0	499	611	
10	0	0	0	0	500	611	
11	0	0	0	0	501	612	
12	0	0	0	0	502	611	
13	0	0	0	0	503	612	
14	0	0	0	0	504	611	
15	0	0	0	0	506	612	
0	0	0	0	0	508	612	
1	0	0	0	0	509	611	
2	0	0	0	0	510	611	
3	0	0	0	0	511	612	
4	0	0	0	0	512	612	
5	0	0	0	0	513	612	
6	0	0	0	0	514	612	
7	0	0	0	0	514	613	
8	0	0	0	0	515	612	
9	0	0	0	0	515	612	
10	0	0	0	0	514	612	
11	0	0	0	0	513	613	
12	0	0	0	0	512	613	
13	0	0	0	0	512	612	
14	0	0	0	0	512	612	
15	0	0	0	0	513	612	
0	0	0	0	0	514	612	
1	0	0	0	0	515	612	
2	0	0	0	0	515	612	
3	0	0	0	0	516	612	
4	0	0	0	0	517	612	
5	0	0	0	0	518	612	
6	0	0	0	0	519	612	
7	0	0	0	0	519	612	
8	0	0	0	0	519	611	
9	0	0	0	0	520	612	
10	0	0	0	0	521	612	
11	0	0	0	0	521	611	
12	0	0	0	0	522	611	
13	0	0	0	0	523	611	
14	0	0	0	0	523	611	
15	0	0	0	0	523	611	
0	0	0	0	0	523	611	
1	0	0	0	0	523	611	
2	0	0	0	0	522	611	
3	0	0	0	0	521	612	
4	0	0	0	0	520	612	
5	0	0	0	0	519	611	
6	0	0	0	0	519	611	
7	0	0	0	0	518	612	
8	0	0	0	0	518	612	
9	0	0	0	0	517	612	
10	0	0	0	0	518	611	
11	0	0	0	0	518	611	
12	0	0	0	0	518	611	
13	0	0	0	0	518	611	
14	0	0	0	0	518	611	
15	0	0	0	0	519	611	
0	0	0	0	0	519	611	
1	0	0	0	0	520	611	
2	0	0	0	0	521	611	
3	0	0	0	0	520	611	
4	0	0	0	0	522	611	
5	0	0	0	0	523	611	
6	0	0	0	0	524	611	
7	0	0	0	0	524	611	
8	0	0	0	0	523	611	
9	0	0	0	0	522	611	
10	0	0	0	0	521	611	
11	0	0	0	0	519	611	
12	0	0	0	0	517	611	
13	0	0	0	0	515	611	
14	0	0	0	0	515	610	
15	0	0	0	0	515	611	
0	0	0	0	0	514	611	
1	0	0	0	0	514	611	
2	0	0	0	0	514	610	
3	0	0	0	0	515	610	
4	0	0	0	0	516	610	
5	0	0	0	0	517	611	
6	0	0	0	0	518	611	
7	0	0	0	0	518	612	
8	0	0	0	0	519	611	
9	0	0	0	0	520	611	
10	0	0	0	0	520	610	
11	0	0	0	0	521	611	
12	0	0	0	0	521	610	
13	0	0	0	0	521	610	
14	0	0	0	0	520	610	
15	0	0	0	0	519	611	
0	0	0	0	0	519	610	
1	0	0	0	0	519	609	
2	0	0	0	0	519	610	
3	0	0	0	0	519	610	
4	0	0	0	0	518	609	
5	0	0	0	0	519	610	
6	0	0	0	0	518	609	
7	0	0	0	0	517	611	
8	0	0	0	0	516	610	
9	0	0	0	0	515	610	
10	0	0	0	0	515	610	
11	0	0	0	0	514	610	
12	0	0	0	0	513	610	
13	0	0	0	0	512	609	
14	0	0	0	0	512	609	
15	0	0	0	0	511	610	
0	0	0	0	0	511	610	
1	0	0	0	0	511	609	
2	0	0	0	0	510	609	
3	0	0	0	0	510	609	
4	0	0	0	0	509	609	
5	0	0	0	0	508	610	
6	0	0	0	0	507	609	
7	0	0	0	0	506	610	
8	0	0	0	0	505	609	
9	0	0	0	0	504	609	
10	0	0	0	0	503	610	
11	0	0	0	0	500	610	
12	0	0	0	0	499	609	
13	0	0	0	0	499	609	
14	0	0	0	0	498	610	
15	0	0	0	0	497	611	
0	0	0	0	0	496	610	
1	0	0	0	0	496	610	
2	0	0	0	0	495	609	
3	0	0	0	0	494	610	
4	0	0	0	0	493	609	
5	0	0	0	0	493	610	
6	0	0	0	0	492	610	
7	0	0	0	0	492	610	
8	0	0	0	0	491	610	
9	0	0	0	0	490	611	
10	0	0	0	0	489	610	
11	0	0	0	0	489	610	
12	0	0	0	0	487	611	
13	0	0	0	0	487	611	
14	0	0	0	0	485	610	
15	0	0	0	0	486	611	
0	0	0	0	0	485	611	
1	0	0	0	0	485	611	
2	0	0	0	0	485	611	
3	0	0	0	0	485	611	
4	0	0	0	0	485	611	
5	0	0	0	0	485	611	
6	0	0	0	0	486	611	
7	0	0	0	0	486	612	
8	0	0	0	0	487	611	
9	0	0	0	0	486	611	
10	0	0	0	0	485	611	
11	0	0	0	0	485	611	
12	0	0	0	0	485	611	
13	0	0	0	0	484	611	
14	0	0	0	0	484	611	
15	0	0	0	0	484	611	
0	0	0	0	0	484	611	
1	0	0	0	0	485	611	
2	0	0	0	0	486	610	
3	0	0	0	0	487	611	
4	0	0	0	0	488	611	
5	0	0	0	0	489	610	
6	0	0	0	0	490	610	
7	0	0	0	0	491	611	
8	0	0	0	0	491	610	
9	0	0	0	0	492	610	
10	0	0	0	0	492	610	
11	0	0	0	0	493	611	
12	0	0	0	0	493	611	
13	0	0	0	0	494	611	
14	0	0	0	0	495	610	
15	0	0	0	0	494	611	
0	0	0	0	0	494	610	
1	0	0	0	0	493	610	
2	0	0	0	0	492	610	
3	0	0	0	0	492	611	
4	0	0	0	0	491	610	
5	0	0	0	0	491	610	
6	0	0	0	0	490	610	
7	0	0	0	0	491	610	
8	0	0	0	0	491	610	
9	0	0	0	0	492	610	
10	0	0	0	0	493	611	
11	0	0	0	0	494	610	
12	0	0	0	0	494	611	
13	0	0	0	0	495	611	
14	0	0	0	0	495	610	
15	0	0	0	0	496	610	
0	0	0	0	0	496	610	
1	0	0	0	0	495	610	
2	0	0	0	0	496	609	
3	0	0	0	0	496	609	
4	0	0	0	0	497	609	
5	0	0	0	0	498	610	
6	0	0	0	0	497	609	
7	0	0	0	0	497	610	
8	0	0	0	0	497	609	
9	0	0	0	0	499	611	
10	0	0	0	0	500	610	
11	0	0	0	0	500	611	
12	0	0	0	0	500	610	
13	0	0	0	0	501	610	
14	0	0	0	0	501	611	
15	0	0	0	0	501	611	
0	0	0	0	0	502	610	
1	0	0	0	0	502	610	
2	0	0	0	0	502	610	
3	0	0	0	0	502	611	
4	0	0	0	0	502	610	
5	0	0	0	0	503	610	
6	0	0	0	0	504	609	
7	0	0	0	0	504	611	
8	0	0	0	0	506	611	
9	0	0	0	0	508	611	
10	0	0	0	0	510	611	
11	0	0	0	0	511	611	
12	0	0	0	0	513	611	
13	0	0	0	0	513	610	
14	0	0	0	0	514	611	
15	0	0	0	0	515	612	
0	0	0	0	0	516	611	
1	0	0	0	0	516	611	
2	0	0	0	0	516	611	
3	0	0	0	0	517	611	
4	0	0	0	0	517	610	
5	0	0	0	0	517	611	
6	0	0	0	0	517	610	
7	0	0	0	0	517	611	
8	0	0	0	0	517	611	
9	0	0	0	0	518	611	
10	0	0	0	0	519	611	
11	0	0	0	0	520	610	
12	0	0	0	0	522	611	
13	0	0	0	0	523	611	
14	0	0	0	0	525	611	
15	0	0	0	0	526	611	
0	0	0	0	0	527	610	
1	0	0	0	0	528	611	
2	0	0	0	0	529	611	
3	0	0	0	0	530	611	
4	0	0	0	0	530	611	
5	0	0	0	0	529	611	
6	0	0	0	0	529	611	
7	0	0	0	0	529	612	
8	0	0	0	0	529	612	
9	0	0	0	0	529	612	
10	0	0	0	0	529	611	
11	0	0	0	0	530	612	
12	0	0	0	0	530	612	
13	0	0	0	0	530	611	
14	0	0	0	0	529	612	
15	0	0	0	0	529	612	
0	0	0	0	0	529	611	
1	0	0	0	0	529	611	
2	0	0	0	0	529	611	
3	0	0	0	0	529	612	
4	0	0	0	0	529	611	
5	0	0	0	0	529	611	
6	0	0	0	0	529	611	
7	0	0	0	0	529	612	
8	0	0	0	0	529	610	
9	0	0	0	0	528	611	
10	0	0	0	0	529	611	
11	0	0	0	0	529	611	
12	0	0	0	0	530	611	
13	0	0	0	0	530	611	
14	0	0	0	0	530	611	
15	0	0	0	0	531	611	
0	0	0	0	0	531	611	
1	0	0	0	0	530	611	
2	0	0	0	0	531	611	
3	0	0	0	0	532	611	
4	0	0	0	0	532	611	
5	0	0	0	0	532	611	
6	0	0	0	0	534	611	
7	0	0	0	0	534	612	
8	0	0	0	0	534	610	
9	0	0	0	0	534	611	
10	0	0	0	0	533	611	
11	0	0	0	0	532	611	
12	0	0	0	0	531	611	
13	0	0	0	0	531	610	
14	0	0	0	0	530	610	
15	0	0	0	0	530	612	
0	0	0	0	0	531	611	
1	0	0	0	0	531	611	
2	0	0	0	0	531	611	
3	0	0	0	0	532	611	
4	0	0	0	0	532	611	
5	0	0	0	0	532	612	
6	0	0	0	0	532	612	
7	0	0	0	0	531	612	
8	0	0	0	0	531	612	
9	0	0	0	0	531	612	
10	0	0	0	0	529	611	
11	0	0	0	0	528	611	
12	0	0	0	0	527	612	
13	0	0	0	0	525	612	
14	0	0	0	0	524	612	
15	0	0	0	0	522	612	
0	0	0	0	0	522	611	
1	0	0	0	0	521	611	
2	0	0	0	0	520	611	
3	0	0	0	0	519	612	
4	0	0	0	0	520	612	
5	0	0	0	0	520	612	
6	0	0	0	0	520	612	
7	0	0	0	0	520	613	
8	0	0	0	0	520	612	
9	0	0	0	0	520	611	
10	0	0	0	0	521	612	
11	0	0	0	0	519	612	
12	0	0	0	0	519	612	
13	0	0	0	0	519	612	
14	0	0	0	0	519	612	
15	0	0	0	0	519	612	
0	0	0	0	0	519	611	
1	0	0	0	0	519	611	
2	0	0	0	0	520	611	
3	0	0	0	0	521	611	
4	0	0	0	0	523	611	
5	0	0	0	0	525	611	
6	0	0	0	0	525	611	
7	0	0	0	0	526	611	
8	0	0	0	0	527	611	
9	0	0	0	0	528	611	
10	0	0	0	0	528	611	
11	0	0	0	0	529	611	
12	0	0	0	0	529	610	
13	0	0	0	0	528	610	
14	0	0	0	0	528	610	
15	0	0	0	0	527	611	
0	0	0	0	0	527	611	
1	0	0	0	0	527	610	
2	0	0	0	0	526	610	
3	0	0	0	0	525	610	
4	0	0	0	0	524	609	
5	0	0	0	0	523	610	
6	0	0	0	0	523	609	
7	0	0	0	0	522	610	
8	0	0	0	0	521	610	
9	0	0	0	0	521	610	
10	0	0	0	0	520	610	
11	0	0	0	0	519	610	
12	0	0	0	0	519	610	
13	0	0	0	0	519	610	
14	0	0	0	0	519	610	
15	0	0	0	0	520	610	
0	0	0	0	0	520	610	
1	0	0	0	0	519	609	
2	0	0	0	0	519	609	
3	0	0	0	0	518	610	
4	0	0	0	0	518	610	
5	0	0	0	0	518	610	
6	0	0	0	0	519	610	
7	0	0	0	0	520	611	
8	0	0	0	0	521	610	
9	0	0	0	0	523	610	
10	0	0	0	0	524	610	
11	0	0	0	0	526	610	
12	0	0	0	0	527	610	
13	0	0	0	0	528	611	
14	0	0	0	0	529	611	
15	0	0	0	0	531	612	
0	0	0	0	0	530	611	
1	0	0	0	0	530	611	
2	0	0	0	0	531	611	
3	0	0	0	0	532	612	
4	0	0	0	0	532	611	
5	0	0	0	0	532	611	
6	0	0	0	0	532	612	
7	0	0	0	0	532	612	
8	0	0	0	0	533	611	
9	0	0	0	0	533	611	
10	0	0	0	0	535	611	
11	0	0	0	0	535	611	
12	0	0	0	0	535	611	
13	0	0	0	0	535	612	
14	0	0	0	0	534	611	
15	0	0	0	0	534	612	
0	0	0	0	0	533	611	
1	0	0	0	0	532	611	
2	0	0	0	0	532	611	
3	0	0	0	0	533	611	
4	0	0	0	0	533	611	
5	0	0	0	0	533	611	
6	0	0	0	0	534	611	
7	0	0	0	0	534	612	
8	0	0	0	0	533	611	
9	0	0	0	0	532	611	
10	0	0	0	0	532	611	
11	0	0	0	0	531	612	
12	0	0	0	0	530	612	
13	0	0	0	0	529	611	
14	0	0	0	0	529	611	
15	0	0	0	0	528	611	
0	0	0	0	0	527	611	
1	0	0	0	0	528	611	
2	0	0	0	0	528	611	
3	0	0	0	0	527	611	
4	0	0	0	0	527	611	
5	0	0	0	0	526	611	
6	0	0	0	0	527	611	
7	0	0	0	0	527	611	
8	0	0	0	0	527	610	
9	0	0	0	0	526	610	
10	0	0	0	0	525	611	
11	0	0	0	0	525	611	
12	0	0	0	0	524	611	
13	0	0	0	0	523	610	
14	0	0	0	0	523	610	
15	0	0	0	0	522	611	
0	0	0	0	0	522	610	
1	0	0	0	0	522	610	
2	0	0	0	0	522	610	
3	0	0	0	0	522	610	
4	0	0	0	0	521	610	
5	0	0	0	0	522	609	
6	0	0	0	0	521	609	
7	0	0	0	0	521	611	
8	0	0	0	0	520	609	
9	0	0	0	0	519	610	
10	0	0	0	0	519	610	
11	0	0	0	0	519	610	
12	0	0	0	0	519	610	
13	0	0	0	0	519	610	
14	0	0	0	0	519	609	
15	0	0	0	0	519	611	
0	0	0	0	0	519	609	
1	0	0	0	0	519	609	
2	0	0	0	0	519	610	
3	0	0	0	0	519	610	
4	0	0	0	0	518	610	
5	0	0	0	0	518	609	
6	0	0	0	0	518	610	
7	0	0	0	0	517	611	
8	0	0	0	0	516	610	
9	0	0	0	0	516	610	
10	0	0	0	0	516	610	
11	0	0	0	0	516	610	
12	0	0	0	0	516	610	
13	0	0	0	0	516	610	
14	0	0	0	0	516	610	
15	0	0	0	0	516	610	
0	0	0	0	0	515	609	
1	0	0	0	0	515	610	
2	0	0	0	0	514	609	
3	0	0	0	0	513	610	
4	0	0	0	0	513	609	
5	0	0	0	0	513	609	
6	0	0	0	0	513	609	
7	0	0	0	0	513	610	
8	0	0	0	0	514	610	
9	0	0	0	0	515	609	
10	0	0	0	0	515	610	
11	0	0	0	0	515	609	
12	0	0	0	0	514	610	
13	0	0	0	0	514	610	
14	0	0	0	0	513	609	
15	0	0	0	0	512	611	
0	0	0	0	0	512	610	
1	0	0	0	0	511	609	
2	0	0	0	0	511	610	
3	0	0	0	0	510	610	
4	0	0	0	0	509	609	
5	0	0	0	0	508	609	
6	0	0	0	0	508	609	
7	0	0	0	0	509	610	
8	0	0	0	0	509	609	
9	0	0	0	0	510	610	
10	0	0	0	0	511	609	
11	0	0	0	0	512	610	
12	0	0	0	0	513	609	
13	0	0	0	0	513	609	
14	0	0	0	0	513	609	
15	0	0	0	0	513	609	
0	0	0	0	0	513	609	
1	0	0	0	0	513	610	
2	0	0	0	0	513	610	
3	0	0	0	0	512	610	
4	0	0	0	0	511	610	
5	0	0	0	0	510	610	
6	0	0	0	0	508	609	
7	0	0	0	0	505	610	
8	0	0	0	0	502	611	
9	0	0	0	0	499	610	
10	0	0	0	0	496	610	
11	0	0	0	0	492	610	
12	0	0	0	0	488	610	
13	0	0	0	0	484	610	
14	0	0	0	0	480	611	
15	0	0	0	0	477	611	
0	0	0	0	0	474	611	
1	0	0	0	0	472	610	
2	0	0	0	0	471	611	
3	0	0	0	0	472	611	
4	0	0	0	0	472	610	
5	0	0	0	0	474	610	
6	0	0	0	0	475	611	
7	0	0	0	0	477	611	
8	0	0	0	0	481	611	
9	0	0	0	0	485	610	
10	0	0	0	0	489	611	
11	0	0	0	0	493	611	
12	0	0	0	0	495	610	
13	0	0	0	0	496	610	
14	0	0	0	0	496	611	
15	0	0	0	0	497	611	
0	0	0	0	0	498	611	
1	0	0	0	0	499	611	
2	0	0	0	0	502	611	
3	0	0	0	0	507	611	
4	0	0	0	0	514	611	
5	0	0	0	0	527	611	
6	0	0	0	0	542	611	
7	0	0	0	0	559	611	
8	0	0	0	0	579	611	
9	0	0	0	0	596	611	
10	0	0	0	0	608	611	
11	0	0	0	0	615	611	
12	0	0	0	0	620	611	
13	0	0	0	0	624	611	
14	0	0	0	0	628	612	
15	0	0	0	0	631	611	
0	0	0	0	0	635	611	
1	0	0	0	0	645	611	
2	0	0	0	0	660	611	
3	0	0	0	0	680	612	
4	0	0	0	0	701	611	
5	0	0	0	0	720	611	
6	0	0	0	0	737	612	
7	0	0	0	0	748	613	
8	0	0	0	0	754	612	
9	0	0	0	0	755	612	
10	0	0	0	0	752	613	
11	0	0	0	0	745	612	
12	0	0	0	0	735	612	
13	0	0	0	0	723	612	
14	0	0	0	0	706	612	
15	0	0	0	0	689	612	
0	0	0	0	0	672	612	
1	0	0	0	0	655	612	
2	0	0	0	0	638	612	
3	0	0	0	0	620	613	
4	0	0	0	0	605	612	
5	0	0	0	0	590	612	
6	0	0	0	0	576	612	
7	0	0	0	0	564	612	
8	0	0	0	0	553	611	
9	0	0	0	0	542	611	
10	0	0	0	0	531	611	
11	0	0	0	0	520	611	
12	0	0	0	0	511	612	
13	0	0	0	0	501	611	
14	0	0	0	0	491	611	
15	0	0	0	0	483	612	
0	0	0	0	0	474	611	
1	0	0	0	0	465	612	
2	0	0	0	0	457	612	
3	0	0	0	0	450	612	
4	0	0	0	0	444	611	
5	0	0	0	0	440	611	
6	0	0	0	0	436	612	
7	0	0	0	0	433	611	
8	0	0	0	0	431	611	
9	0	0	0	0	429	610	
10	0	0	0	0	426	611	
11	0	0	0	0	423	611	
12	0	0	0	0	421	611	
13	0	0	0	0	420	610	
14	0	0	0	0	418	610	
15	0	0	0	0	417	611	
0	0	0	0	0	415	610	
1	0	0	0	0	415	611	
2	0	0	0	0	415	611	
3	0	0	0	0	415	611	
4	0	0	0	0	415	611	
5	0	0	0	0	416	611	
6	0	0	0	0	416	611	
7	0	0	0	0	418	611	
8	0	0	0	0	419	611	
9	0	0	0	0	419	611	
10	0	0	0	0	420	611	
11	0	0	0	0	420	611	
12	0	0	0	0	422	611	
13	0	0	0	0	422	611	
14	0	0	0	0	424	611	
15	0	0	0	0	425	611	
0	0	0	0	0	426	611	
1	0	0	0	0	428	611	
2	0	0	0	0	428	611	
3	0	0	0	0	430	611	
4	0	0	0	0	432	611	
5	0	0	0	0	433	610	
6	0	0	0	0	435	610	
7	0	0	0	0	436	611	
8	0	0	0	0	437	611	
9	0	0	0	0	438	611	
10	0	0	0	0	439	610	
11	0	0	0	0	439	611	
12	0	0	0	0	441	611	
13	0	0	0	0	441	611	
14	0	0	0	0	442	611	
15	0	0	0	0	442	611	
0	0	0	0	0	442	611	
1	0	0	0	0	441	611	
2	0	0	0	0	442	611	
3	0	0	0	0	442	611	
4	0	0	0	0	442	611	
5	0	0	0	0	442	611	
6	0	0	0	0	442	611	
7	0	0	0	0	442	611	
8	0	0	0	0	443	611	
9	0	0	0	0	443	611	
10	0	0	0	0	443	611	
11	0	0	0	0	444	611	
12	0	0	0	0	444	611	
13	0	0	0	0	445	611	
14	0	0	0	0	447	610	
15	0	0	0	0	448	611	
0	0	0	0	0	450	610	
1	0	0	0	0	452	610	
2	0	0	0	0	454	610	
3	0	0	0	0	455	610	
4	0	0	0	0	457	610	
5	0	0	0	0	459	610	
6	0	0	0	0	460	609	
7	0	0	0	0	461	611	
8	0	0	0	0	462	610	
9	0	0	0	0	463	610	
10	0	0	0	0	462	610	
11	0	0	0	0	462	610	
12	0	0	0	0	462	611	
13	0	0	0	0	462	610	
14	0	0	0	0	463	611	
15	0	0	0	0	464	611	
0	0	0	0	0	465	610	
1	0	0	0	0	467	611	
2	0	0	0	0	467	611	
3	0	0	0	0	468	611	
4	0	0	0	0	468	610	
5	0	0	0	0	470	610	
6	0	0	0	0	470	610	
7	0	0	0	0	472	611	
8	0	0	0	0	473	610	
9	0	0	0	0	473	610	
10	0	0	0	0	474	610	
11	0	0	0	0	473	609	
12	0	0	0	0	473	610	
13	0	0	0	0	473	609	
14	0	0	0	0	474	609	
15	0	0	0	0	475	609	
0	0	0	0	0	475	609	
1	0	0	0	0	475	609	
2	0	0	0	0	474	609	
3	0	0	0	0	475	609	
4	0	0	0	0	474	608	
5	0	0	0	0	475	608	
6	0	0	0	0	475	609	
7	0	0	0	0	476	609	
8	0	0	0	0	476	608	
9	0	0	0	0	476	609	
10	0	0	0	0	477	609	
11	0	0	0	0	476	609	
12	0	0	0	0	476	610	
13	0	0	0	0	477	608	
14	0	0	0	0	477	609	
15	0	0	0	0	478	609	
0	0	0	0	0	478	609	
1	0	0	0	0	479	608	
2	0	0	0	0	479	609	
3	0	0	0	0	480	609	
4	0	0	0	0	480	609	
5	0	0	0	0	480	608	
6	0	0	0	0	479	608	
7	0	0	0	0	478	609	
8	0	0	0	0	478	610	
9	0	0	0	0	477	609	
10	0	0	0	0	477	609	
11	0	0	0	0	477	609	
12	0	0	0	0	477	610	
13	0	0	0	0	478	609	
14	0	0	0	0	479	609	
15	0	0	0	0	480	609	
0	0	0	0	0	480	609	
1	0	0	0	0	481	608	
2	0	0	0	0	481	609	
3	0	0	0	0	481	610	
4	0	0	0	0	481	610	
5	0	0	0	0	481	610	
6	0	0	0	0	482	609	
7	0	0	0	0	482	611	
8	0	0	0	0	484	611	
9	0	0	0	0	485	611	
10	0	0	0	0	486	611	
11	0	0	0	0	487	611	
12	0	0	0	0	487	611	
13	0	0	0	0	489	611	
14	0	0	0	0	490	611	
15	0	0	0	0	492	612	
0	0	0	0	0	492	611	
1	0	0	0	0	492	611	
2	0	0	0	0	492	611	
3	0	0	0	0	492	611	
4	0	0	0	0	492	611	
5	0	0	0	0	492	612	
6	0	0	0	0	492	611	
7	0	0	0	0	493	612	
8	0	0	0	0	493	611	
9	0	0	0	0	493	611	
10	0	0	0	0	494	612	
11	0	0	0	0	495	612	
12	0	0	0	0	495	612	
13	0	0	0	0	495	612	
14	0	0	0	0	495	612	
15	0	0	0	0	494	612	
0	0	0	0	0	494	612	
1	0	0	0	0	494	613	
2	0	0	0	0	494	612	
3	0	0	0	0	494	612	
4	0	0	0	0	494	612	
5	0	0	0	0	495	612	
6	0	0	0	0	494	611	
7	0	0	0	0	494	612	
8	0	0	0	0	494	612	
9	0	0	0	0	494	611	
10	0	0	0	0	495	612	
11	0	0	0	0	494	612	
12	0	0	0	0	494	611	
13	0	0	0	0	493	611	
14	0	0	0	0	493	611	
15	0	0	0	0	493	611	
0	0	0	0	0	493	611	
1	0	0	0	0	493	611	
2	0	0	0	0	491	611	
3	0	0	0	0	490	611	
4	0	0	0	0	490	611	
5	0	0	0	0	489	612	
6	0	0	0	0	489	611	
7	0	0	0	0	489	611	
8	0	0	0	0	489	611	
9	0	0	0	0	490	610	
10	0	0	0	0	491	611	
11	0	0	0	0	493	611	
12	0	0	0	0	495	611	
13	0	0	0	0	496	611	
14	0	0	0	0	496	611	
15	0	0	0	0	496	611	
0	0	0	0	0	497	611	
1	0	0	0	0	498	611	
2	0	0	0	0	499	611	
3	0	0	0	0	499	611	
4	0	0	0	0	500	610	
5	0	0	0	0	502	610	
6	0	0	0	0	503	611	
7	0	0	0	0	504	611	
8	0	0	0	0	505	611	
9	0	0	0	0	506	611	
10	0	0	0	0	506	611	
11	0	0	0	0	506	611	
12	0	0	0	0	505	610	
13	0	0	0	0	505	611	
14	0	0	0	0	505	611	
15	0	0	0	0	505	612	
0	0	0	0	0	506	611	
1	0	0	0	0	507	611	
2	0	0	0	0	508	611	
3	0	0	0	0	509	612	
4	0	0	0	0	510	612	
5	0	0	0	0	510	612	
6	0	0	0	0	511	612	
7	0	0	0	0	512	612	
8	0	0	0	0	513	612	
9	0	0	0	0	514	613	
10	0	0	0	0	515	612	
11	0	0	0	0	516	613	
12	0	0	0	0	517	612	
13	0	0	0	0	518	612	
14	0	0	0	0	519	612	
15	0	0	0	0	520	613	
0	0	0	0	0	521	612	
1	0	0	0	0	521	612	
2	0	0	0	0	522	612	
3	0	0	0	0	522	612	
4	0	0	0	0	523	611	
5	0	0	0	0	524	612	
6	0	0	0	0	525	612	
7	0	0	0	0	527	612	
8	0	0	0	0	527	611	
9	0	0	0	0	527	611	
10	0	0	0	0	529	611	
11	0	0	0	0	530	612	
12	0	0	0	0	531	612	
13	0	0	0	0	532	612	
14	0	0	0	0	532	612	
15	0	0	0	0	531	612	
0	0	0	0	0	532	611	
1	0	0	0	0	533	611	
2	0	0	0	0	533	611	
3	0	0	0	0	532	611	
4	0	0	0	0	532	611	
5	0	0	0	0	532	611	
6	0	0	0	0	531	610	
7	0	0	0	0	530	611	
8	0	0	0	0	530	611	
9	0	0	0	0	530	610	
10	0	0	0	0	529	611	
11	0	0	0	0	529	611	
12	0	0	0	0	529	610	
13	0	0	0	0	528	611	
14	0	0	0	0	527	611	
15	0	0	0	0	528	611	
0	0	0	0	0	528	611	
1	0	0	0	0	528	610	
2	0	0	0	0	528	610	
3	0	0	0	0	528	610	
4	0	0	0	0	528	611	
5	0	0	0	0	527	611	
6	0	0	0	0	528	610	
7	0	0	0	0	529	611	
8	0	0	0	0	529	610	
9	0	0	0	0	529	610	
10	0	0	0	0	529	610	
11	0	0	0	0	528	611	
12	0	0	0	0	528	610	
13	0	0	0	0	527	610	
14	0	0	0	0	526	610	
15	0	0	0	0	526	610	
0	0	0	0	0	524	609	
1	0	0	0	0	524	609	
2	0	0	0	0	523	609	
3	0	0	0	0	521	610	
4	0	0	0	0	520	610	
5	0	0	0	0	519	609	
6	0	0	0	0	519	609	
7	0	0	0	0	517	610	
8	0	0	0	0	516	609	
9	0	0	0	0	516	610	
10	0	0	0	0	515	610	
11	0	0	0	0	513	610	
12	0	0	0	0	512	609	
13	0	0	0	0	512	610	
14	0	0	0	0	511	609	
15	0	0	0	0	511	610	
0	0	0	0	0	512	610	
1	0	0	0	0	512	610	
2	0	0	0	0	512	609	
3	0	0	0	0	512	611	
4	0	0	0	0	512	610	
5	0	0	0	0	512	611	
6	0	0	0	0	513	611	
7	0	0	0	0	512	611	
8	0	0	0	0	512	611	
9	0	0	0	0	513	611	
10	0	0	0	0	512	610	
11	0	0	0	0	513	610	
12	0	0	0	0	514	611	
13	0	0	0	0	515	610	
14	0	0	0	0	515	610	
15	0	0	0	0	515	611	
0	0	0	0	0	515	610	
1	0	0	0	0	516	611	
2	0	0	0	0	516	610	
3	0	0	0	0	515	610	
4	0	0	0	0	516	610	
5	0	0	0	0	515	610	
6	0	0	0	0	514	610	
7	0	0	0	0	513	611	
8	0	0	0	0	512	610	
9	0	0	0	0	510	611	
10	0	0	0	0	508	610	
11	0	0	0	0	507	611	
12	0	0	0	0	507	611	
13	0	0	0	0	507	611	
14	0	0	0	0	508	611	
15	0	0	0	0	508	611	
0	0	0	0	0	509	611	
1	0	0	0	0	510	611	
2	0	0	0	0	510	611	
3	0	0	0	0	510	611	
4	0	0	0	0	510	611	
5	0	0	0	0	510	611	
6	0	0	0	0	509	610	
7	0	0	0	0	509	610	
8	0	0	0	0	509	610	
9	0	0	0	0	508	609	
10	0	0	0	0	508	610	
11	0	0	0	0	508	610	
12	0	0	0	0	508	610	
13	0	0	0	0	507	609	
14	0	0	0	0	506	609	
15	0	0	0	0	505	610	
0	0	0	0	0	506	610	
1	0	0	0	0	506	609	
2	0	0	0	0	507	609	
3	0	0	0	0	506	609	
4	0	0	0	0	505	609	
5	0	0	0	0	504	609	
6	0	0	0	0	503	609	
7	0	0	0	0	502	610	
8	0	0	0	0	501	609	
9	0	0	0	0	501	610	
10	0	0	0	0	501	610	
11	0	0	0	0	501	609	
12	0	0	0	0	502	610	
13	0	0	0	0	502	610	
14	0	0	0	0	502	610	
15	0	0	0	0	502	610	
0	0	0	0	0	502	610	
1	0	0	0	0	503	610	
2	0	0	0	0	504	610	
3	0	0	0	0	505	610	
4	0	0	0	0	506	611	
5	0	0	0	0	507	610	
6	0	0	0	0	508	611	
7	0	0	0	0	508	611	
8	0	0	0	0	508	611	
9	0	0	0	0	509	611	
10	0	0	0	0	508	611	
11	0	0	0	0	508	611	
12	0	0	0	0	509	611	
13	0	0	0	0	510	610	
14	0	0	0	0	511	611	
15	0	0	0	0	511	612	
0	0	0	0	0	512	612	
1	0	0	0	0	512	611	
2	0	0	0	0	512	611	
3	0	0	0	0	512	611	
4	0	0	0	0	511	611	
5	0	0	0	0	510	612	
6	0	0	0	0	509	611	
7	0	0	0	0	509	611	
8	0	0	0	0	509	611	
9	0	0	0	0	509	611	
10	0	0	0	0	508	611	
11	0	0	0	0	508	611	
12	0	0	0	0	509	611	
13	0	0	0	0	509	611	
14	0	0	0	0	509	611	
15	0	0	0	0	509	611	
0	0	0	0	0	510	611	
1	0	0	0	0	510	611	
2	0	0	0	0	510	611	
3	0	0	0	0	510	611	
4	0	0	0	0	511	611	
5	0	0	0	0	511	611	
6	0	0	0	0	512	611	
7	0	0	0	0	514	611	
8	0	0	0	0	515	611	
9	0	0	0	0	518	611	
10	0	0	0	0	520	611	
11	0	0	0	0	522	611	
12	0	0	0	0	524	611	
13	0	0	0	0	526	611	
14	0	0	0	0	527	611	
15	0	0	0	0	529	611	
0	0	0	0	0	529	610	
1	0	0	0	0	531	610	
2	0	0	0	0	531	611	
3	0	0	0	0	532	611	
4	0	0	0	0	532	610	
5	0	0	0	0	533	610	
6	0	0	0	0	534	611	
7	0	0	0	0	534	611	
8	0	0	0	0	534	610	
9	0	0	0	0	535	610	
10	0	0	0	0	535	609	
11	0	0	0	0	535	610	
12	0	0	0	0	534	609	
13	0	0	0	0	535	609	
14	0	0	0	0	536	609	
15	0	0	0	0	536	610	
0	0	0	0	0	536	610	
1	0	0	0	0	536	609	
2	0	0	0	0	536	609	
3	0	0	0	0	536	609	
4	0	0	0	0	537	609	
5	0	0	0	0	538	609	
6	0	0	0	0	539	609	
7	0	0	0	0	539	610	
8	0	0	0	0	539	609	
9	0	0	0	0	539	609	
10	0	0	0	0	539	610	
11	0	0	0	0	539	610	
12	0	0	0	0	539	610	
13	0	0	0	0	540	610	
14	0	0	0	0	540	610	
15	0	0	0	0	540	611	
0	0	0	0	0	540	610	
1	0	0	0	0	540	610	
2	0	0	0	0	542	610	
3	0	0	0	0	542	610	
4	0	0	0	0	544	611	
5	0	0	0	0	545	610	
6	0	0	0	0	546	610	
7	0	0	0	0	547	611	
8	0	0	0	0	548	610	
9	0	0	0	0	548	610	
10	0	0	0	0	550	610	
11	0	0	0	0	550	610	
12	0	0	0	0	550	610	
13	0	0	0	0	550	611	
14	0	0	0	0	549	611	
15	0	0	0	0	550	611	
0	0	0	0	0	550	610	
1	0	0	0	0	552	610	
2	0	0	0	0	553	610	
3	0	0	0	0	554	611	
4	0	0	0	0	555	610	
5	0	0	0	0	556	611	
6	0	0	0	0	556	610	
7	0	0	0	0	556	610	
8	0	0	0	0	557	610	
9	0	0	0	0	556	610	
10	0	0	0	0	557	610	
11	0	0	0	0	557	610	
12	0	0	0	0	556	610	
13	0	0	0	0	556	611	
14	0	0	0	0	555	611	
15	0	0	0	0	555	610	
0	0	0	0	0	555	610	
1	0	0	0	0	554	610	
2	0	0	0	0	554	610	
3	0	0	0	0	553	610	
4	0	0	0	0	552	611	
5	0	0	0	0	550	610	
6	0	0	0	0	549	609	
7	0	0	0	0	548	611	
8	0	0	0	0	547	610	
9	0	0	0	0	546	610	
10	0	0	0	0	545	610	
11	0	0	0	0	544	611	
12	0	0	0	0	544	610	
13	0	0	0	0	543	610	
14	0	0	0	0	542	609	
15	0	0	0	0	541	611	
0	0	0	0	0	541	611	
1	0	0	0	0	540	611	
2	0	0	0	0	540	611	
3	0	0	0	0	540	611	
4	0	0	0	0	541	611	
5	0	0	0	0	541	611	
6	0	0	0	0	541	611	
7	0	0	0	0	541	612	
8	0	0	0	0	541	611	
9	0	0	0	0	541	611	
10	0	0	0	0	541	612	
11	0	0	0	0	541	612	
12	0	0	0	0	542	612	
13	0	0	0	0	543	612	
14	0	0	0	0	542	612	
15	0	0	0	0	542	612	
0	0	0	0	0	543	612	
1	0	0	0	0	542	612	
2	0	0	0	0	542	612	
3	0	0	0	0	541	612	
4	0	0	0	0	540	612	
5	0	0	0	0	540	612	
6	0	0	0	0	539	612	
7	0	0	0	0	538	612	
8	0	0	0	0	538	611	
9	0	0	0	0	538	612	
10	0	0	0	0	539	613	
11	0	0	0	0	538	612	
12	0	0	0	0	538	612	
13	0	0	0	0	538	612	
14	0	0	0	0	539	612	
15	0	0	0	0	539	612	
0	0	0	0	0	540	611	
1	0	0	0	0	540	611	
2	0	0	0	0	539	611	
3	0	0	0	0	539	611	
4	0	0	0	0	540	612	
5	0	0	0	0	539	612	
6	0	0	0	0	538	612	
7	0	0	0	0	536	612	
8	0	0	0	0	536	611	
9	0	0	0	0	537	611	
10	0	0	0	0	536	611	
11	0	0	0	0	537	612	
12	0	0	0	0	536	612	
13	0	0	0	0	536	611	
14	0	0	0	0	535	611	
15	0	0	0	0	534	612	
0	0	0	0	0	533	611	
1	0	0	0	0	532	612	
2	0	0	0	0	532	611	
3	0	0	0	0	532	611	
4	0	0	0	0	530	611	
5	0	0	0	0	528	611	
6	0	0	0	0	527	611	
7	0	0	0	0	527	612	
8	0	0	0	0	527	610	
9	0	0	0	0	527	611	
10	0	0	0	0	528	611	
11	0	0	0	0	527	611	
12	0	0	0	0	528	611	
13	0	0	0	0	528	611	
14	0	0	0	0	529	611	
15	0	0	0	0	530	611	
0	0	0	0	0	531	610	
1	0	0	0	0	532	611	
2	0	0	0	0	535	611	
3	0	0	0	0	536	611	
4	0	0	0	0	537	611	
5	0	0	0	0	538	611	
6	0	0	0	0	538	610	
7	0	0	0	0	539	611	
8	0	0	0	0	540	610	
9	0	0	0	0	541	610	
10	0	0	0	0	542	610	
11	0	0	0	0	541	610	
12	0	0	0	0	542	609	
13	0	0	0	0	542	610	
14	0	0	0	0	542	610	
15	0	0	0	0	542	611	
0	0	0	0	0	542	610	
1	0	0	0	0	543	610	
2	0	0	0	0	543	610	
3	0	0	0	0	544	611	
4	0	0	0	0	545	610	
5	0	0	0	0	545	610	
6	0	0	0	0	546	610	
7	0	0	0	0	547	611	
8	0	0	0	0	548	610	
9	0	0	0	0	549	610	
10	0	0	0	0	549	610	
11	0	0	0	0	548	610	
12	0	0	0	0	547	609	
13	0	0	0	0	546	610	
14	0	0	0	0	545	609	
15	0	0	0	0	545	610	
0	0	0	0	0	545	609	
1	0	0	0	0	545	610	
2	0	0	0	0	545	609	
3	0	0	0	0	545	609	
4	0	0	0	0	545	610	
5	0	0	0	0	545	610	
6	0	0	0	0	545	609	
7	0	0	0	0	545	611	
8	0	0	0	0	543	610	
9	0	0	0	0	543	609	
10	0	0	0	0	543	610	
11	0	0	0	0	543	610	
12	0	0	0	0	543	610	
13	0	0	0	0	543	610	
14	0	0	0	0	543	610	
15	0	0	0	0	542	611	
0	0	0	0	0	541	610	
1	0	0	0	0	541	610	
2	0	0	0	0	541	610	
3	0	0	0	0	540	610	
4	0	0	0	0	539	611	
5	0	0	0	0	539	611	
6	0	0	0	0	539	611	
7	0	0	0	0	538	610	
8	0	0	0	0	539	610	
9	0	0	0	0	540	610	
10	0	0	0	0	540	611	
11	0	0	0	0	540	610	
12	0	0	0	0	541	610	
13	0	0	0	0	542	610	
14	0	0	0	0	543	610	
15	0	0	0	0	543	611	
0	0	0	0	0	543	611	
1	0	0	0	0	543	610	
2	0	0	0	0	543	610	
3	0	0	0	0	543	610	
4	0	0	0	0	543	610	
5	0	0	0	0	543	610	
6	0	0	0	0	544	610	
7	0	0	0	0	544	611	
8	0	0	0	0	544	610	
9	0	0	0	0	544	611	
10	0	0	0	0	544	610	
11	0	0	0	0	544	611	
12	0	0	0	0	543	610	
13	0	0	0	0	544	610	
14	0	0	0	0	544	610	
15	0	0	0	0	544	611	
0	0	0	0	0	545	609	
1	0	0	0	0	545	610	
2	0	0	0	0	546	610	
3	0	0	0	0	546	610	
4	0	0	0	0	545	611	
5	0	0	0	0	546	611	
6	0	0	0	0	547	610	
7	0	0	0	0	547	611	
8	0	0	0	0	548	610	
9	0	0	0	0	548	611	
10	0	0	0	0	547	611	
11	0	0	0	0	546	611	
12	0	0	0	0	545	610	
13	0	0	0	0	543	611	
14	0	0	0	0	543	609	
15	0	0	0	0	543	610	
0	0	0	0	0	543	610	
1	0	0	0	0	543	611	
2	0	0	0	0	542	610	
3	0	0	0	0	542	610	
4	0	0	0	0	543	609	
5	0	0	0	0	543	609	
6	0	0	0	0	543	610	
7	0	0	0	0	542	610	
8	0	0	0	0	542	610	
9	0	0	0	0	542	609	
10	0	0	0	0	540	610	
11	0	0	0	0	539	611	
12	0	0	0	0	538	611	
13	0	0	0	0	537	610	
14	0	0	0	0	536	610	
15	0	0	0	0	536	611	
0	0	0	0	0	536	610	
1	0	0	0	0	535	610	
2	0	0	0	0	535	610	
3	0	0	0	0	534	610	
4	0	0	0	0	534	610	
5	0	0	0	0	533	610	
6	0	0	0	0	532	610	
7	0	0	0	0	532	611	
8	0	0	0	0	532	610	
9	0	0	0	0	531	610	
10	0	0	0	0	530	610	
11	0	0	0	0	526	611	
12	0	0	0	0	523	611	
13	0	0	0	0	519	610	
14	0	0	0	0	515	610	
15	0	0	0	0	512	611	
0	0	0	0	0	508	611	
1	0	0	0	0	504	611	
2	0	0	0	0	501	611	
3	0	0	0	0	499	611	
4	0	0	0	0	497	611	
5	0	0	0	0	497	610	
6	0	0	0	0	497	610	
7	0	0	0	0	498	611	
8	0	0	0	0	499	610	
9	0	0	0	0	500	610	
10	0	0	0	0	502	609	
11	0	0	0	0	505	610	
12	0	0	0	0	509	610	
13	0	0	0	0	511	610	
14	0	0	0	0	513	610	
15	0	0	0	0	513	611	
0	0	0	0	0	515	611	
1	0	0	0	0	517	609	
2	0	0	0	0	518	610	
3	0	0	0	0	519	611	
4	0	0	0	0	523	611	
5	0	0	0	0	529	611	
6	0	0	0	0	536	610	
7	0	0	0	0	547	611	
8	0	0	0	0	562	611	
9	0	0	0	0	577	611	
10	0	0	0	0	595	611	
11	0	0	0	0	615	611	
12	0	0	0	0	632	611	
13	0	0	0	0	644	610	
14	0	0	0	0	652	611	
15	0	0	0	0	660	611	
0	0	0	0	0	670	611	
1	0	0	0	0	678	611	
2	0	0	0	0	687	611	
3	0	0	0	0	698	611	
4	0	0	0	0	714	611	
5	0	0	0	0	735	611	
6	0	0	0	0	756	611	
7	0	0	0	0	775	612	
8	0	0	0	0	793	611	
9	0	0	0	0	806	611	
10	0	0	0	0	812	611	
11	0	0	0	0	814	611	
12	0	0	0	0	811	611	
13	0	0	0	0	803	611	
14	0	0	0	0	791	611	
15	0	0	0	0	778	612	
0	0	0	0	0	760	611	
1	0	0	0	0	742	611	
2	0	0	0	0	725	611	
3	0	0	0	0	707	612	
4	0	0	0	0	689	611	
5	0	0	0	0	671	611	
6	0	0	0	0	653	611	
7	0	0	0	0	637	612	
8	0	0	0	0	623	611	
9	0	0	0	0	611	611	
10	0	0	0	0	598	612	
11	0	0	0	0	587	611	
12	0	0	0	0	575	611	
13	0	0	0	0	566	611	
14	0	0	0	0	555	611	
15	0	0	0	0	545	612	
0	0	0	0	0	536	611	
1	0	0	0	0	527	611	
2	0	0	0	0	519	611	
3	0	0	0	0	511	611	
4	0	0	0	0	503	611	
5	0	0	0	0	496	611	
6	0	0	0	0	490	610	
7	0	0	0	0	486	611	
8	0	0	0	0	481	611	
9	0	0	0	0	477	611	
10	0	0	0	0	472	611	
11	0	0	0	0	467	610	
12	0	0	0	0	463	610	
13	0	0	0	0	461	610	
14	0	0	0	0	458	610	
15	0	0	0	0	456	611	
0	0	0	0	0	455	611	
1	0	0	0	0	454	611	
2	0	0	0	0	453	610	
3	0	0	0	0	453	610	
4	0	0	0	0	453	610	
5	0	0	0	0	454	610	
6	0	0	0	0	454	610	
7	0	0	0	0	455	611	
8	0	0	0	0	456	611	
9	0	0	0	0	457	611	
10	0	0	0	0	457	611	
11	0	0	0	0	457	611	
12	0	0	0	0	457	611	
13	0	0	0	0	458	611	
14	0	0	0	0	459	611	
15	0	0	0	0	460	612	
0	0	0	0	0	460	611	
1	0	0	0	0	459	611	
2	0	0	0	0	459	611	
3	0	0	0	0	459	612	
4	0	0	0	0	460	612	
5	0	0	0	0	461	611	
6	0	0	0	0	462	611	
7	0	0	0	0	462	612	
8	0	0	0	0	463	612	
9	0	0	0	0	463	611	
10	0	0	0	0	464	611	
11	0	0	0	0	465	611	
12	0	0	0	0	467	611	
13	0	0	0	0	468	612	
14	0	0	0	0	471	611	
15	0	0	0	0	472	611	
0	0	0	0	0	473	611	
1	0	0	0	0	475	611	
2	0	0	0	0	475	611	
3	0	0	0	0	475	611	
4	0	0	0	0	476	611	
5	0	0	0	0	476	611	
6	0	0	0	0	477	611	
7	0	0	0	0	478	611	
8	0	0	0	0	478	610	
9	0	0	0	0	478	611	
10	0	0	0	0	477	610	
11	0	0	0	0	477	611	
12	0	0	0	0	476	611	
13	0	0	0	0	477	611	
14	0	0	0	0	477	610	
15	0	0	0	0	477	611	
0	0	0	0	0	477	610	
1	0	0	0	0	477	610	
2	0	0	0	0	477	611	
3	0	0	0	0	477	610	
4	0	0	0	0	478	610	
5	0	0	0	0	478	610	
6	0	0	0	0	477	610	
7	0	0	0	0	477	611	
8	0	0	0	0	476	610	
9	0	0	0	0	476	611	
10	0	0	0	0	476	610	
11	0	0	0	0	477	610	
12	0	0	0	0	478	610	
13	0	0	0	0	478	610	
14	0	0	0	0	479	610	
15	0	0	0	0	480	610	
0	0	0	0	0	481	609	
1	0	0	0	0	482	610	
2	0	0	0	0	483	609	
3	0	0	0	0	484	609	
4	0	0	0	0	485	610	
5	0	0	0	0	487	610	
6	0	0	0	0	488	609	
7	0	0	0	0	489	609	
8	0	0	0	0	491	609	
9	0	0	0	0	493	609	
10	0	0	0	0	496	610	
11	0	0	0	0	497	610	
12	0	0	0	0	498	610	
13	0	0	0	0	499	610	
14	0	0	0	0	499	609	
15	0	0	0	0	499	611	
0	0	0	0	0	499	610	
1	0	0	0	0	499	611	
2	0	0	0	0	499	611	
3	0	0	0	0	499	611	
4	0	0	0	0	499	610	
5	0	0	0	0	500	611	
6	0	0	0	0	501	611	
7	0	0	0	0	503	611	
8	0	0	0	0	504	611	
9	0	0	0	0	506	611	
10	0	0	0	0	506	610	
11	0	0	0	0	507	611	
12	0	0	0	0	507	611	
13	0	0	0	0	506	611	
14	0	0	0	0	506	611	
15	0	0	0	0	504	611	
0	0	0	0	0	503	610	
1	0	0	0	0	502	610	
2	0	0	0	0	500	611	
3	0	0	0	0	499	611	
4	0	0	0	0	497	611	
5	0	0	0	0	496	611	
6	0	0	0	0	494	610	
7	0	0	0	0	493	611	
8	0	0	0	0	493	610	
9	0	0	0	0	493	610	
10	0	0	0	0	493	611	
11	0	0	0	0	494	611	
12	0	0	0	0	494	611	
13	0	0	0	0	496	611	
14	0	0	0	0	497	610	
15	0	0	0	0	498	611	
0	0	0	0	0	499	611	
1	0	0	0	0	501	609	
2	0	0	0	0	502	610	
3	0	0	0	0	504	610	
4	0	0	0	0	504	610	
5	0	0	0	0	504	610	
6	0	0	0	0	504	611	
7	0	0	0	0	504	611	
8	0	0	0	0	504	610	
9	0	0	0	0	503	610	
10	0	0	0	0	502	610	
11	0	0	0	0	501	610	
12	0	0	0	0	500	610	
13	0	0	0	0	499	610	
14	0	0	0	0	498	610	
15	0	0	0	0	497	611	
0	0	0	0	0	496	610	
1	0	0	0	0	496	611	
2	0	0	0	0	496	610	
3	0	0	0	0	495	610	
4	0	0	0	0	493	610	
5	0	0	0	0	492	611	
6	0	0	0	0	491	610	
7	0	0	0	0	490	611	
8	0	0	0	0	489	611	
9	0	0	0	0	488	611	
10	0	0	0	0	487	611	
11	0	0	0	0	487	611	
12	0	0	0	0	487	611	
13	0	0	0	0	487	611	
14	0	0	0	0	486	610	
15	0	0	0	0	486	611	
0	0	0	0	0	486	611	
1	0	0	0	0	485	610	
2	0	0	0	0	483	611	
3	0	0	0	0	483	611	
4	0	0	0	0	483	611	
5	0	0	0	0	483	611	
6	0	0	0	0	485	611	
7	0	0	0	0	486	611	
8	0	0	0	0	487	611	
9	0	0	0	0	488	611	
10	0	0	0	0	490	611	
11	0	0	0	0	490	611	
12	0	0	0	0	491	611	
13	0	0	0	0	492	611	
14	0	0	0	0	493	611	
15	0	0	0	0	493	611	
0	0	0	0	0	493	611	
1	0	0	0	0	493	611	
2	0	0	0	0	493	611	
3	0	0	0	0	493	611	
4	0	0	0	0	493	611	
5	0	0	0	0	493	611	
6	0	0	0	0	493	611	
7	0	0	0	0	494	612	
8	0	0	0	0	493	611	
9	0	0	0	0	492	611	
10	0	0	0	0	491	611	
11	0	0	0	0	490	611	
12	0	0	0	0	489	611	
13	0	0	0	0	488	611	
14	0	0	0	0	487	611	
15	0	0	0	0	486	612	
0	0	0	0	0	485	611	
1	0	0	0	0	484	611	
2	0	0	0	0	483	611	
3	0	0	0	0	482	612	
4	0	0	0	0	482	611	
5	0	0	0	0	482	611	
6	0	0	0	0	481	611	
7	0	0	0	0	481	612	
8	0	0	0	0	481	611	
9	0	0	0	0	480	611	
10	0	0	0	0	480	612	
11	0	0	0	0	480	612	
12	0	0	0	0	480	611	
13	0	0	0	0	482	611	
14	0	0	0	0	483	611	
15	0	0	0	0	485	611	
0	0	0	0	0	486	610	
1	0	0	0	0	487	611	
2	0	0	0	0	488	611	
3	0	0	0	0	489	612	
4	0	0	0	0	491	612	
5	0	0	0	0	492	612	
6	0	0	0	0	493	611	
7	0	0	0	0	494	612	
8	0	0	0	0	495	611	
9	0	0	0	0	494	612	
10	0	0	0	0	495	612	
11	0	0	0	0	495	612	
12	0	0	0	0	496	612	
13	0	0	0	0	496	612	
14	0	0	0	0	496	612	
15	0	0	0	0	497	612	
0	0	0	0	0	498	612	
1	0	0	0	0	499	612	
2	0	0	0	0	500	612	
3	0	0	0	0	501	612	
4	0	0	0	0	502	612	
5	0	0	0	0	501	612	
6	0	0	0	0	501	612	
7	0	0	0	0	500	613	
8	0	0	0	0	500	612	
9	0	0	0	0	500	612	
10	0	0	0	0	500	612	
11	0	0	0	0	500	612	
12	0	0	0	0	499	612	
13	0	0	0	0	500	611	
14	0	0	0	0	500	611	
15	0	0	0	0	500	612	
0	0	0	0	0	500	612	
1	0	0	0	0	499	612	
2	0	0	0	0	498	612	
3	0	0	0	0	497	612	
4	0	0	0	0	495	612	
5	0	0	0	0	494	612	
6	0	0	0	0	493	612	
7	0	0	0	0	492	613	
8	0	0	0	0	492	612	
9	0	0	0	0	491	613	
10	0	0	0	0	492	612	
11	0	0	0	0	493	612	
12	0	0	0	0	494	612	
13	0	0	0	0	495	612	
14	0	0	0	0	496	611	
15	0	0	0	0	496	612	
0	0	0	0	0	496	611	
1	0	0	0	0	497	611	
2	0	0	0	0	497	611	
3	0	0	0	0	498	611	
4	0	0	0	0	499	610	
5	0	0	0	0	498	611	
6	0	0	0	0	498	611	
7	0	0	0	0	499	611	
8	0	0	0	0	499	611	
9	0	0	0	0	500	611	
10	0	0	0	0	500	611	
11	0	0	0	0	499	611	
12	0	0	0	0	499	611	
13	0	0	0	0	499	610	
14	0	0	0	0	499	610	
15	0	0	0	0	498	611	
0	0	0	0	0	499	610	
1	0	0	0	0	498	610	
2	0	0	0	0	497	610	
3	0	0	0	0	497	610	
4	0	0	0	0	498	610	
5	0	0	0	0	498	609	
6	0	0	0	0	498	609	
7	0	0	0	0	498	610	
8	0	0	0	0	498	609	
9	0	0	0	0	497	609	
10	0	0	0	0	497	609	
11	0	0	0	0	497	609	
12	0	0	0	0	497	609	
13	0	0	0	0	496	610	
14	0	0	0	0	496	610	
15	0	0	0	0	496	611	
0	0	0	0	0	496	610	
1	0	0	0	0	495	610	
2	0	0	0	0	494	610	
3	0	0	0	0	493	610	
4	0	0	0	0	491	610	
5	0	0	0	0	489	610	
6	0	0	0	0	487	610	
7	0	0	0	0	486	611	
8	0	0	0	0	484	611	
9	0	0	0	0	483	611	
10	0	0	0	0	482	610	
11	0	0	0	0	481	611	
12	0	0	0	0	481	611	
13	0	0	0	0	482	611	
14	0	0	0	0	481	610	
15	0	0	0	0	481	611	
0	0	0	0	0	481	611	
1	0	0	0	0	480	611	
2	0	0	0	0	480	611	
3	0	0	0	0	481	611	
4	0	0	0	0	482	610	
5	0	0	0	0	483	610	
6	0	0	0	0	486	610	
7	0	0	0	0	487	611	
8	0	0	0	0	489	610	
9	0	0	0	0	491	610	
10	0	0	0	0	491	610	
11	0	0	0	0	492	610	
12	0	0	0	0	493	610	
13	0	0	0	0	494	611	
14	0	0	0	0	495	611	
15	0	0	0	0	497	611	
0	0	0	0	0	498	611	
1	0	0	0	0	498	611	
2	0	0	0	0	498	611	
3	0	0	0	0	498	611	
4	0	0	0	0	498	611	
5	0	0	0	0	497	611	
6	0	0	0	0	496	612	
7	0	0	0	0	496	612	
8	0	0	0	0	496	612	
9	0	0	0	0	495	612	
10	0	0	0	0	495	612	
11	0	0	0	0	495	612	
12	0	0	0	0	494	612	
13	0	0	0	0	493	612	
14	0	0	0	0	492	612	
15	0	0	0	0	491	613	
0	0	0	0	0	489	612	
1	0	0	0	0	488	612	
2	0	0	0	0	486	612	
3	0	0	0	0	485	612	
4	0	0	0	0	483	612	
5	0	0	0	0	482	612	
6	0	0	0	0	480	612	
7	0	0	0	0	479	612	
8	0	0	0	0	478	611	
9	0	0	0	0	477	612	
10	0	0	0	0	476	611	
11	0	0	0	0	476	612	
12	0	0	0	0	476	611	
13	0	0	0	0	476	611	
14	0	0	0	0	475	611	
15	0	0	0	0	474	611	
0	0	0	0	0	474	610	
1	0	0	0	0	473	610	
2	0	0	0	0	472	609	
3	0	0	0	0	471	609	
4	0	0	0	0	469	609	
5	0	0	0	0	468	609	
6	0	0	0	0	466	608	
7	0	0	0	0	464	609	
8	0	0	0	0	463	608	
9	0	0	0	0	463	608	
10	0	0	0	0	463	608	
11	0	0	0	0	462	608	
12	0	0	0	0	463	608	
13	0	0	0	0	463	608	
14	0	0	0	0	463	608	
15	0	0	0	0	464	608	
0	0	0	0	0	465	607	
1	0	0	0	0	466	608	
2	0	0	0	0	467	608	
3	0	0	0	0	468	608	
4	0	0	0	0	469	607	
5	0	0	0	0	469	608	
6	0	0	0	0	469	608	
7	0	0	0	0	469	609	
8	0	0	0	0	469	609	
9	0	0	0	0	470	609	
10	0	0	0	0	470	609	
11	0	0	0	0	470	610	
12	0	0	0	0	471	610	
13	0	0	0	0	471	609	
14	0	0	0	0	470	610	
15	0	0	0	0	471	611	
0	0	0	0	0	471	611	
1	0	0	0	0	472	611	
2	0	0	0	0	472	611	
3	0	0	0	0	472	611	
4	0	0	0	0	472	611	
5	0	0	0	0	473	610	
6	0	0	0	0	473	611	
7	0	0	0	0	474	611	
8	0	0	0	0	475	610	
9	0	0	0	0	475	610	
10	0	0	0	0	475	610	
11	0	0	0	0	476	611	
12	0	0	0	0	476	611	
13	0	0	0	0	476	610	
14	0	0	0	0	476	610	
15	0	0	0	0	477	611	
0	0	0	0	0	477	611	
1	0	0	0	0	477	611	
2	0	0	0	0	477	610	
3	0	0	0	0	478	611	
4	0	0	0	0	479	611	
5	0	0	0	0	480	611	
6	0	0	0	0	482	611	
7	0	0	0	0	484	611	
8	0	0	0	0	485	611	
9	0	0	0	0	486	610	
10	0	0	0	0	487	610	
11	0	0	0	0	487	610	
12	0	0	0	0	489	611	
13	0	0	0	0	490	610	
14	0	0	0	0	491	611	
15	0	0	0	0	492	611	
0	0	0	0	0	494	611	
1	0	0	0	0	495	610	
2	0	0	0	0	496	610	
3	0	0	0	0	497	610	
4	0	0	0	0	499	611	
5	0	0	0	0	501	610	
6	0	0	0	0	504	611	
7	0	0	0	0	506	611	
8	0	0	0	0	509	610	
9	0	0	0	0	512	611	
10	0	0	0	0	513	611	
11	0	0	0	0	515	611	
12	0	0	0	0	516	611	
13	0	0	0	0	518	611	
14	0	0	0	0	519	610	
15	0	0	0	0	519	611	
0	0	0	0	0	519	611	
1	0	0	0	0	519	611	
2	0	0	0	0	520	610	
3	0	0	0	0	519	611	
4	0	0	0	0	520	611	
5	0	0	0	0	520	610	
6	0	0	0	0	520	611	
7	0	0	0	0	520	611	
8	0	0	0	0	520	611	
9	0	0	0	0	519	611	
10	0	0	0	0	519	611	
11	0	0	0	0	517	611	
12	0	0	0	0	516	611	
13	0	0	0	0	516	611	
14	0	0	0	0	516	611	
15	0	0	0	0	517	611	
0	0	0	0	0	517	611	
1	0	0	0	0	517	611	
2	0	0	0	0	517	611	
3	0	0	0	0	517	611	
4	0	0	0	0	517	611	
5	0	0	0	0	517	610	
6	0	0	0	0	518	611	
7	0	0	0	0	518	612	
8	0	0	0	0	519	611	
9	0	0	0	0	519	612	
10	0	0	0	0	520	611	
11	0	0	0	0	521	612	
12	0	0	0	0	523	612	
13	0	0	0	0	524	612	
14	0	0	0	0	525	612	
15	0	0	0	0	525	612	
0	0	0	0	0	526	611	
1	0	0	0	0	527	612	
2	0	0	0	0	528	611	
3	0	0	0	0	529	611	
4	0	0	0	0	529	611	
5	0	0	0	0	529	612	
6	0	0	0	0	528	612	
7	0	0	0	0	528	612	
8	0	0	0	0	528	612	
9	0	0	0	0	527	611	
10	0	0	0	0	527	612	
11	0	0	0	0	527	612	
12	0	0	0	0	527	612	
13	0	0	0	0	527	612	
14	0	0	0	0	527	614	
15	0	0	0	0	527	615	
0	0	0	0	0	527	614	
1	0	0	0	0	526	614	
2	0	0	0	0	526	615	
3	0	0	0	0	525	616	
4	0	0	0	0	526	615	
5	0	0	0	0	526	615	
6	0	0	0	0	526	615	
7	0	0	0	0	525	615	
8	0	0	0	0	525	614	
9	0	0	0	0	525	614	
10	0	0	0	0	525	614	
11	0	0	0	0	524	614	
12	0	0	0	0	524	612	
13	0	0	0	0	523	611	
14	0	0	0	0	522	611	
15	0	0	0	0	522	611	
0	0	0	0	0	521	610	
1	0	0	0	0	520	609	
2	0	0	0	0	519	609	
3	0	0	0	0	518	609	
4	0	0	0	0	516	609	
5	0	0	0	0	515	608	
6	0	0	0	0	513	609	
7	0	0	0	0	512	609	
8	0	0	0	0	511	608	
9	0	0	0	0	512	609	
10	0	0	0	0	512	608	
11	0	0	0	0	512	609	
12	0	0	0	0	513	608	
13	0	0	0	0	514	609	
14	0	0	0	0	515	609	
15	0	0	0	0	517	609	
0	0	0	0	0	519	608	
1	0	0	0	0	521	608	
2	0	0	0	0	523	609	
3	0	0	0	0	525	610	
4	0	0	0	0	526	609	
5	0	0	0	0	526	610	
6	0	0	0	0	526	610	
7	0	0	0	0	527	611	
8	0	0	0	0	528	610	
9	0	0	0	0	529	611	
10	0	0	0	0	529	611	
11	0	0	0	0	530	611	
12	0	0	0	0	530	611	
13	0	0	0	0	531	611	
14	0	0	0	0	531	611	
15	0	0	0	0	531	612	
0	0	0	0	0	530	611	
1	0	0	0	0	530	611	
2	0	0	0	0	530	612	
3	0	0	0	0	529	612	
4	0	0	0	0	529	611	
5	0	0	0	0	529	611	
6	0	0	0	0	529	611	
7	0	0	0	0	528	612	
8	0	0	0	0	528	611	
9	0	0	0	0	528	611	
10	0	0	0	0	528	611	
11	0	0	0	0	528	611	
12	0	0	0	0	529	611	
13	0	0	0	0	529	611	
14	0	0	0	0	528	611	
15	0	0	0	0	528	611	
0	0	0	0	0	527	611	
1	0	0	0	0	527	611	
2	0	0	0	0	527	611	
3	0	0	0	0	527	611	
4	0	0	0	0	527	611	
5	0	0	0	0	528	610	
6	0	0	0	0	529	610	
7	0	0	0	0	529	611	
8	0	0	0	0	529	610	
9	0	0	0	0	529	610	
10	0	0	0	0	530	611	
11	0	0	0	0	531	610	
12	0	0	0	0	531	610	
13	0	0	0	0	531	611	
14	0	0	0	0	532	611	
15	0	0	0	0	531	611	
0	0	0	0	0	531	611	
1	0	0	0	0	531	610	
2	0	0	0	0	531	611	
3	0	0	0	0	531	611	
4	0	0	0	0	532	611	
5	0	0	0	0	532	611	
6	0	0	0	0	532	611	
7	0	0	0	0	532	611	
8	0	0	0	0	532	610	
9	0	0	0	0	533	611	
10	0	0	0	0	533	611	
11	0	0	0	0	533	610	
12	0	0	0	0	533	611	
13	0	0	0	0	532	611	
14	0	0	0	0	532	611	
15	0	0	0	0	531	611	
0	0	0	0	0	531	610	
1	0	0	0	0	531	610	
2	0	0	0	0	531	611	
3	0	0	0	0	530	611	
4	0	0	0	0	530	611	
5	0	0	0	0	529	610	
6	0	0	0	0	528	611	
7	0	0	0	0	526	611	
8	0	0	0	0	525	610	
9	0	0	0	0	524	610	
10	0	0	0	0	523	611	
11	0	0	0	0	523	611	
12	0	0	0	0	523	610	
13	0	0	0	0	523	610	
14	0	0	0	0	524	611	
15	0	0	0	0	524	611	
0	0	0	0	0	524	611	
1	0	0	0	0	524	610	
2	0	0	0	0	523	610	
3	0	0	0	0	524	611	
4	0	0	0	0	524	610	
5	0	0	0	0	524	610	
6	0	0	0	0	524	610	
7	0	0	0	0	523	611	
8	0	0	0	0	523	610	
9	0	0	0	0	523	610	
10	0	0	0	0	524	610	
11	0	0	0	0	525	610	
12	0	0	0	0	526	609	
13	0	0	0	0	526	610	
14	0	0	0	0	527	609	
15	0	0	0	0	527	609	
0	0	0	0	0	527	609	
1	0	0	0	0	526	609	
2	0	0	0	0	524	608	
3	0	0	0	0	523	609	
4	0	0	0	0	522	609	
5	0	0	0	0	520	609	
6	0	0	0	0	519	609	
7	0	0	0	0	519	610	
8	0	0	0	0	517	609	
9	0	0	0	0	516	609	
10	0	0	0	0	514	609	
11	0	0	0	0	513	609	
12	0	0	0	0	512	609	
13	0	0	0	0	512	609	
14	0	0	0	0	512	609	
15	0	0	0	0	511	609	
0	0	0	0	0	510	609	
1	0	0	0	0	510	609	
2	0	0	0	0	509	608	
3	0	0	0	0	508	609	
4	0	0	0	0	507	609	
5	0	0	0	0	506	609	
6	0	0	0	0	505	609	
7	0	0	0	0	504	611	
8	0	0	0	0	502	610	
9	0	0	0	0	499	609	
10	0	0	0	0	497	609	
11	0	0	0	0	495	610	
12	0	0	0	0	493	609	
13	0	0	0	0	492	609	
14	0	0	0	0	492	610	
15	0	0	0	0	491	610	
0	0	0	0	0	491	610	
1	0	0	0	0	491	610	
2	0	0	0	0	491	609	
3	0	0	0	0	492	610	
4	0	0	0	0	492	610	
5	0	0	0	0	492	610	
6	0	0	0	0	492	610	
7	0	0	0	0	493	611	
8	0	0	0	0	495	611	
9	0	0	0	0	496	610	
10	0	0	0	0	497	610	
11	0	0	0	0	497	611	
12	0	0	0	0	499	611	
13	0	0	0	0	499	611	
14	0	0	0	0	500	611	
15	0	0	0	0	502	612	
0	0	0	0	0	502	611	
1	0	0	0	0	501	611	
2	0	0	0	0	501	611	
3	0	0	0	0	500	611	
4	0	0	0	0	500	611	
5	0	0	0	0	499	611	
6	0	0	0	0	499	611	
7	0	0	0	0	499	612	
8	0	0	0	0	499	611	
9	0	0	0	0	498	610	
10	0	0	0	0	499	611	
11	0	0	0	0	499	611	
12	0	0	0	0	499	611	
13	0	0	0	0	498	611	
14	0	0	0	0	497	610	
15	0	0	0	0	495	611	
0	0	0	0	0	492	611	
1	0	0	0	0	488	610	
2	0	0	0	0	484	610	
3	0	0	0	0	480	611	
4	0	0	0	0	475	611	
5	0	0	0	0	472	610	
6	0	0	0	0	470	610	
7	0	0	0	0	469	610	
8	0	0	0	0	469	610	
9	0	0	0	0	468	610	
10	0	0	0	0	468	610	
11	0	0	0	0	470	611	
12	0	0	0	0	470	611	
13	0	0	0	0	470	610	
14	0	0	0	0	471	611	
15	0	0	0	0	470	612	
0	0	0	0	0	469	611	
1	0	0	0	0	467	611	
2	0	0	0	0	465	611	
3	0	0	0	0	463	612	
4	0	0	0	0	463	612	
5	0	0	0	0	466	612	
6	0	0	0	0	473	612	
7	0	0	0	0	483	612	
8	0	0	0	0	495	611	
9	0	0	0	0	510	611	
10	0	0	0	0	524	611	
11	0	0	0	0	536	612	
12	0	0	0	0	551	611	
13	0	0	0	0	564	611	
14	0	0	0	0	576	611	
15	0	0	0	0	588	612	
0	0	0	0	0	598	611	
1	0	0	0	0	610	612	
2	0	0	0	0	622	611	
3	0	0	0	0	639	611	
4	0	0	0	0	658	611	
5	0	0	0	0	680	611	
6	0	0	0	0	705	611	
7	0	0	0	0	730	612	
8	0	0	0	0	753	611	
9	0	0	0	0	772	612	
10	0	0	0	0	788	611	
11	0	0	0	0	798	612	
12	0	0	0	0	798	611	
13	0	0	0	0	793	611	
14	0	0	0	0	783	610	
15	0	0	0	0	768	612	
0	0	0	0	0	750	611	
1	0	0	0	0	731	610	
2	0	0	0	0	711	611	
3	0	0	0	0	690	610	
4	0	0	0	0	670	610	
5	0	0	0	0	651	610	
6	0	0	0	0	632	610	
7	0	0	0	0	615	611	
8	0	0	0	0	597	610	
9	0	0	0	0	580	610	
10	0	0	0	0	565	609	
11	0	0	0	0	550	609	
12	0	0	0	0	536	609	
13	0	0	0	0	522	609	
14	0	0	0	0	507	609	
15	0	0	0	0	493	610	
0	0	0	0	0	480	609	
1	0	0	0	0	467	609	
2	0	0	0	0	455	609	
3	0	0	0	0	446	609	
4	0	0	0	0	438	610	
5	0	0	0	0	430	610	
6	0	0	0	0	423	609	
7	0	0	0	0	418	610	
8	0	0	0	0	413	610	
9	0	0	0	0	409	610	
10	0	0	0	0	405	610	
11	0	0	0	0	403	610	
12	0	0	0	0	400	610	
13	0	0	0	0	398	611	
14	0	0	0	0	397	611	
15	0	0	0	0	395	611	
0	0	0	0	0	395	611	
1	0	0	0	0	394	611	
2	0	0	0	0	393	611	
3	0	0	0	0	393	611	
4	0	0	0	0	392	611	
5	0	0	0	0	391	612	
6	0	0	0	0	391	611	
7	0	0	0	0	392	612	
8	0	0	0	0	393	611	
9	0	0	0	0	393	611	
10	0	0	0	0	395	611	
11	0	0	0	0	396	612	
12	0	0	0	0	398	611	
13	0	0	0	0	400	612	
14	0	0	0	0	402	611	
15	0	0	0	0	405	612	
0	0	0	0	0	407	612	
1	0	0	0	0	408	612	
2	0	0	0	0	410	612	
3	0	0	0	0	412	612	
4	0	0	0	0	413	612	
5	0	0	0	0	414	611	
6	0	0	0	0	416	611	
7	0	0	0	0	418	612	
8	0	0	0	0	419	611	
9	0	0	0	0	420	611	
10	0	0	0	0	421	611	
11	0	0	0	0	421	611	
12	0	0	0	0	422	610	
13	0	0	0	0	423	610	
14	0	0	0	0	423	610	
15	0	0	0	0	424	611	
0	0	0	0	0	425	610	
1	0	0	0	0	425	610	
2	0	0	0	0	427	610	
3	0	0	0	0	427	610	
4	0	0	0	0	428	609	
5	0	0	0	0	429	609	
6	0	0	0	0	429	610	
7	0	0	0	0	430	609	
8	0	0	0	0	430	609	
9	0	0	0	0	432	609	
10	0	0	0	0	433	609	
11	0	0	0	0	434	609	
12	0	0	0	0	436	609	
13	0	0	0	0	437	609	
14	0	0	0	0	439	609	
15	0	0	0	0	440	610	
0	0	0	0	0	440	609	
1	0	0	0	0	440	609	
2	0	0	0	0	440	610	
3	0	0	0	0	440	609	
4	0	0	0	0	440	609	
5	0	0	0	0	439	609	
6	0	0	0	0	438	609	
7	0	0	0	0	438	610	
8	0	0	0	0	439	609	
9	0	0	0	0	440	609	
10	0	0	0	0	441	610	
11	0	0	0	0	443	610	
12	0	0	0	0	444	610	
13	0	0	0	0	446	610	
14	0	0	0	0	448	610	
15	0	0	0	0	450	611	
0	0	0	0	0	452	611	
1	0	0	0	0	455	611	
2	0	0	0	0	456	611	
3	0	0	0	0	458	611	
4	0	0	0	0	459	611	
5	0	0	0	0	460	611	
6	0	0	0	0	461	611	
7	0	0	0	0	462	612	
8	0	0	0	0	463	611	
9	0	0	0	0	464	611	
10	0	0	0	0	464	611	
11	0	0	0	0	464	611	
12	0	0	0	0	465	611	
13	0	0	0	0	465	610	
14	0	0	0	0	466	611	
15	0	0	0	0	467	611	
0	0	0	0	0	467	611	
1	0	0	0	0	467	611	
2	0	0	0	0	468	611	
3	0	0	0	0	468	611	
4	0	0	0	0	468	611	
5	0	0	0	0	469	611	
6	0	0	0	0	470	611	
7	0	0	0	0	471	612	
8	0	0	0	0	471	611	
9	0	0	0	0	472	610	
10	0	0	0	0	473	611	
11	0	0	0	0	473	611	
12	0	0	0	0	473	611	
13	0	0	0	0	474	611	
14	0	0	0	0	474	611	
15	0	0	0	0	474	612	
0	0	0	0	0	473	611	
1	0	0	0	0	472	611	
2	0	0	0	0	472	612	
3	0	0	0	0	471	611	
4	0	0	0	0	471	611	
5	0	0	0	0	470	611	
6	0	0	0	0	470	611	
7	0	0	0	0	471	611	
8	0	0	0	0	472	610	
9	0	0	0	0	473	610	
10	0	0	0	0	475	610	
11	0	0	0	0	476	611	
12	0	0	0	0	477	610	
13	0	0	0	0	478	609	
14	0	0	0	0	479	609	
15	0	0	0	0	480	609	
0	0	0	0	0	481	609	
1	0	0	0	0	482	610	
2	0	0	0	0	483	609	
3	0	0	0	0	485	610	
4	0	0	0	0	485	609	
5	0	0	0	0	486	608	
6	0	0	0	0	487	608	
7	0	0	0	0	487	609	
8	0	0	0	0	488	608	
9	0	0	0	0	489	608	
10	0	0	0	0	490	609	
11	0	0	0	0	491	610	
12	0	0	0	0	492	608	
13	0	0	0	0	492	609	
14	0	0	0	0	491	609	
15	0	0	0	0	491	609	
0	0	0	0	0	491	609	
1	0	0	0	0	491	609	
2	0	0	0	0	492	609	
3	0	0	0	0	492	609	
4	0	0	0	0	493	609	
5	0	0	0	0	495	609	
6	0	0	0	0	495	608	
7	0	0	0	0	496	609	
8	0	0	0	0	497	609	
9	0	0	0	0	498	609	
10	0	0	0	0	498	609	
11	0	0	0	0	498	610	
12	0	0	0	0	499	610	
13	0	0	0	0	499	610	
14	0	0	0	0	497	609	
15	0	0	0	0	496	610	
0	0	0	0	0	496	610	
1	0	0	0	0	495	609	
2	0	0	0	0	494	610	
3	0	0	0	0	495	610	
4	0	0	0	0	495	611	
5	0	0	0	0	495	611	
6	0	0	0	0	495	611	
7	0	0	0	0	495	612	
8	0	0	0	0	494	611	
9	0	0	0	0	494	611	
10	0	0	0	0	494	611	
11	0	0	0	0	494	611	
12	0	0	0	0	494	611	
13	0	0	0	0	494	611	
14	0	0	0	0	494	611	
15	0	0	0	0	493	611	
0	0	0	0	0	493	611	
1	0	0	0	0	492	611	
2	0	0	0	0	491	611	
3	0	0	0	0	491	612	
4	0	0	0	0	490	611	
5	0	0	0	0	489	612	
6	0	0	0	0	489	611	
7	0	0	0	0	489	612	
8	0	0	0	0	490	612	
9	0	0	0	0	489	612	
10	0	0	0	0	490	612	
11	0	0	0	0	490	612	
12	0	0	0	0	491	611	
13	0	0	0	0	491	612	
14	0	0	0	0	492	611	
15	0	0	0	0	492	612	
0	0	0	0	0	493	611	
1	0	0	0	0	493	611	
2	0	0	0	0	494	612	
3	0	0	0	0	494	611	
4	0	0	0	0	495	611	
5	0	0	0	0	495	611	
6	0	0	0	0	495	611	
7	0	0	0	0	495	612	
8	0	0	0	0	494	611	
9	0	0	0	0	495	611	
10	0	0	0	0	496	611	
11	0	0	0	0	496	611	
12	0	0	0	0	497	611	
13	0	0	0	0	498	611	
14	0	0	0	0	498	611	
15	0	0	0	0	499	611	
0	0	0	0	0	499	611	
1	0	0	0	0	500	612	
2	0	0	0	0	502	612	
3	0	0	0	0	502	612	
4	0	0	0	0	503	611	
5	0	0	0	0	504	611	
6	0	0	0	0	505	612	
7	0	0	0	0	505	612	
8	0	0	0	0	505	612	
9	0	0	0	0	506	611	
10	0	0	0	0	506	611	
11	0	0	0	0	505	613	
12	0	0	0	0	506	612	
13	0	0	0	0	506	612	
14	0	0	0	0	506	612	
15	0	0	0	0	506	612	
0	0	0	0	0	507	613	
1	0	0	0	0	507	612	
2	0	0	0	0	507	612	
3	0	0	0	0	507	613	
4	0	0	0	0	509	612	
5	0	0	0	0	511	612	
6	0	0	0	0	512	612	
7	0	0	0	0	512	614	
8	0	0	0	0	514	614	
9	0	0	0	0	514	614	
10	0	0	0	0	515	614	
11	0	0	0	0	515	614	
12	0	0	0	0	516	614	
13	0	0	0	0	518	613	
14	0	0	0	0	519	613	
15	0	0	0	0	519	613	
0	0	0	0	0	519	613	
1	0	0	0	0	519	613	
2	0	0	0	0	519	612	
3	0	0	0	0	520	612	
4	0	0	0	0	521	612	
5	0	0	0	0	521	612	
6	0	0	0	0	523	612	
7	0	0	0	0	523	612	
8	0	0	0	0	524	611	
9	0	0	0	0	524	611	
10	0	0	0	0	525	612	
11	0	0	0	0	526	611	
12	0	0	0	0	526	610	
13	0	0	0	0	527	610	
14	0	0	0	0	527	611	
15	0	0	0	0	528	611	
0	0	0	0	0	529	611	
1	0	0	0	0	529	611	
2	0	0	0	0	528	610	
3	0	0	0	0	527	610	
4	0	0	0	0	526	611	
5	0	0	0	0	524	610	
6	0	0	0	0	524	610	
7	0	0	0	0	522	611	
8	0	0	0	0	522	611	
9	0	0	0	0	521	610	
10	0	0	0	0	521	611	
11	0	0	0	0	521	611	
12	0	0	0	0	521	610	
13	0	0	0	0	522	611	
14	0	0	0	0	523	611	
15	0	0	0	0	523	611	
0	0	0	0	0	522	611	
1	0	0	0	0	522	611	
2	0	0	0	0	522	611	
3	0	0	0	0	521	612	
4	0	0	0	0	520	611	
5	0	0	0	0	519	611	
6	0	0	0	0	518	611	
7	0	0	0	0	516	611	
8	0	0	0	0	514	611	
9	0	0	0	0	513	611	
10	0	0	0	0	512	611	
11	0	0	0	0	512	610	
12	0	0	0	0	512	611	
13	0	0	0	0	512	611	
14	0	0	0	0	511	611	
15	0	0	0	0	511	611	
0	0	0	0	0	511	610	
1	0	0	0	0	510	611	
2	0	0	0	0	510	611	
3	0	0	0	0	510	610	
4	0	0	0	0	511	610	
5	0	0	0	0	511	609	
6	0	0	0	0	512	610	
7	0	0	0	0	513	611	
8	0	0	0	0	512	609	
9	0	0	0	0	512	609	
10	0	0	0	0	512	609	
11	0	0	0	0	512	609	
12	0	0	0	0	512	609	
13	0	0	0	0	511	610	
14	0	0	0	0	512	609	
15	0	0	0	0	512	610	
0	0	0	0	0	512	609	
1	0	0	0	0	513	609	
2	0	0	0	0	513	608	
3	0	0	0	0	514	608	
4	0	0	0	0	514	608	
5	0	0	0	0	514	609	
6	0	0	0	0	513	608	
7	0	0	0	0	513	609	
8	0	0	0	0	513	609	
9	0	0	0	0	514	608	
10	0	0	0	0	513	609	
11	0	0	0	0	513	609	
12	0	0	0	0	512	608	
13	0	0	0	0	512	608	
14	0	0	0	0	512	609	
15	0	0	0	0	512	609	
0	0	0	0	0	513	608	
1	0	0	0	0	512	608	
2	0	0	0	0	512	608	
3	0	0	0	0	512	609	
4	0	0	0	0	512	609	
5	0	0	0	0	512	609	
6	0	0	0	0	512	609	
7	0	0	0	0	512	610	
8	0	0	0	0	513	609	
9	0	0	0	0	513	610	
10	0	0	0	0	513	609	
11	0	0	0	0	513	610	
12	0	0	0	0	513	611	
13	0	0	0	0	514	610	
14	0	0	0	0	514	610	
15	0	0	0	0	515	611	
0	0	0	0	0	515	610	
1	0	0	0	0	516	610	
2	0	0	0	0	515	610	
3	0	0	0	0	516	611	
4	0	0	0	0	515	610	
5	0	0	0	0	515	611	
6	0	0	0	0	514	610	
7	0	0	0	0	514	611	
8	0	0	0	0	513	609	
9	0	0	0	0	514	610	
10	0	0	0	0	513	611	
11	0	0	0	0	513	611	
12	0	0	0	0	513	610	
13	0	0	0	0	513	610	
14	0	0	0	0	513	611	
15	0	0	0	0	513	611	
0	0	0	0	0	513	611	
1	0	0	0	0	514	611	
2	0	0	0	0	515	610	
3	0	0	0	0	515	611	
4	0	0	0	0	515	611	
5	0	0	0	0	514	610	
6	0	0	0	0	513	611	
7	0	0	0	0	513	611	
8	0	0	0	0	512	611	
9	0	0	0	0	512	610	
10	0	0	0	0	512	610	
11	0	0	0	0	512	610	
12	0	0	0	0	512	610	
13	0	0	0	0	512	611	
14	0	0	0	0	512	610	
15	0	0	0	0	513	611	
0	0	0	0	0	513	610	
1	0	0	0	0	514	611	
2	0	0	0	0	514	610	
3	0	0	0	0	515	611	
4	0	0	0	0	516	611	
5	0	0	0	0	516	610	
6	0	0	0	0	517	611	
7	0	0	0	0	519	611	
8	0	0	0	0	520	611	
9	0	0	0	0	521	611	
10	0	0	0	0	523	611	
11	0	0	0	0	523	611	
12	0	0	0	0	523	611	
13	0	0	0	0	524	611	
14	0	0	0	0	524	611	
15	0	0	0	0	524	612	
0	0	0	0	0	524	611	
1	0	0	0	0	524	611	
2	0	0	0	0	523	611	
3	0	0	0	0	522	611	
4	0	0	0	0	522	611	
5	0	0	0	0	521	611	
6	0	0	0	0	521	611	
7	0	0	0	0	521	611	
8	0	0	0	0	520	610	
9	0	0	0	0	520	610	
10	0	0	0	0	519	611	
11	0	0	0	0	518	611	
12	0	0	0	0	517	611	
13	0	0	0	0	516	611	
14	0	0	0	0	514	610	
15	0	0	0	0	513	611	
0	0	0	0	0	511	610	
1	0	0	0	0	511	611	
2	0	0	0	0	511	611	
3	0	0	0	0	510	610	
4	0	0	0	0	510	611	
5	0	0	0	0	510	609	
6	0	0	0	0	510	610	
7	0	0	0	0	511	610	
8	0	0	0	0	510	609	
9	0	0	0	0	510	610	
10	0	0	0	0	510	610	
11	0	0	0	0	509	609	
12	0	0	0	0	508	610	
13	0	0	0	0	508	609	
14	0	0	0	0	508	610	
15	0	0	0	0	507	609	
0	0	0	0	0	507	609	
1	0	0	0	0	506	610	
2	0	0	0	0	505	609	
3	0	0	0	0	504	609	
4	0	0	0	0	504	609	
5	0	0	0	0	502	610	
6	0	0	0	0	501	609	
7	0	0	0	0	500	611	
8	0	0	0	0	500	609	
9	0	0	0	0	499	610	
10	0	0	0	0	499	610	
11	0	0	0	0	499	610	
12	0	0	0	0	499	609	
13	0	0	0	0	499	609	
14	0	0	0	0	499	610	
15	0	0	0	0	499	610	
0	0	0	0	0	497	609	
1	0	0	0	0	497	609	
2	0	0	0	0	497	610	
3	0	0	0	0	497	609	
4	0	0	0	0	498	610	
5	0	0	0	0	499	609	
6	0	0	0	0	499	610	
7	0	0	0	0	499	611	
8	0	0	0	0	499	610	
9	0	0	0	0	499	610	
10	0	0	0	0	500	609	
11	0	0	0	0	501	610	
12	0	0	0	0	501	610	
13	0	0	0	0	501	609	
14	0	0	0	0	501	609	
15	0	0	0	0	501	610	
0	0	0	0	0	501	609	
1	0	0	0	0	501	610	
2	0	0	0	0	499	610	
3	0	0	0	0	499	610	
4	0	0	0	0	499	610	
5	0	0	0	0	498	610	
6	0	0	0	0	498	610	
7	0	0	0	0	498	611	
8	0	0	0	0	498	611	
9	0	0	0	0	497	611	
10	0	0	0	0	497	610	
11	0	0	0	0	496	612	
12	0	0	0	0	496	612	
13	0	0	0	0	495	612	
14	0	0	0	0	494	612	
15	0	0	0	0	494	613	
0	0	0	0	0	496	613	
1	0	0	0	0	496	613	
2	0	0	0	0	496	613	
3	0	0	0	0	497	612	
4	0	0	0	0	497	612	
5	0	0	0	0	497	613	
6	0	0	0	0	497	613	
7	0	0	0	0	498	613	
8	0	0	0	0	499	613	
9	0	0	0	0	499	613	
10	0	0	0	0	499	613	
11	0	0	0	0	499	613	
12	0	0	0	0	500	612	
13	0	0	0	0	500	612	
14	0	0	0	0	501	612	
15	0	0	0	0	502	613	
0	0	0	0	0	504	612	
1	0	0	0	0	505	613	
2	0	0	0	0	506	613	
3	0	0	0	0	507	613	
4	0	0	0	0	510	613	
5	0	0	0	0	512	612	
6	0	0	0	0	514	612	
7	0	0	0	0	515	613	
8	0	0	0	0	517	612	
9	0	0	0	0	519	613	
10	0	0	0	0	520	612	
11	0	0	0	0	521	612	
12	0	0	0	0	522	611	
13	0	0	0	0	522	612	
14	0	0	0	0	523	612	
15	0	0	0	0	523	612	
0	0	0	0	0	524	611	
1	0	0	0	0	524	611	
2	0	0	0	0	524	611	
3	0	0	0	0	525	611	
4	0	0	0	0	525	611	
5	0	0	0	0	525	611	
6	0	0	0	0	526	611	
7	0	0	0	0	526	611	
8	0	0	0	0	526	611	
9	0	0	0	0	525	611	
10	0	0	0	0	524	611	
11	0	0	0	0	524	611	
12	0	0	0	0	522	611	
13	0	0	0	0	521	611	
14	0	0	0	0	519	611	
15	0	0	0	0	517	612	
0	0	0	0	0	516	611	
1	0	0	0	0	515	611	
2	0	0	0	0	515	611	
3	0	0	0	0	515	611	
4	0	0	0	0	515	611	
5	0	0	0	0	516	611	
6	0	0	0	0	517	611	
7	0	0	0	0	518	612	
8	0	0	0	0	520	611	
9	0	0	0	0	522	611	
10	0	0	0	0	524	611	
11	0	0	0	0	526	612	
12	0	0	0	0	527	611	
13	0	0	0	0	528	611	
14	0	0	0	0	531	611	
15	0	0	0	0	533	611	
0	0	0	0	0	535	611	
1	0	0	0	0	536	611	
2	0	0	0	0	537	611	
3	0	0	0	0	538	611	
4	0	0	0	0	538	611	
5	0	0	0	0	539	611	
6	0	0	0	0	539	611	
7	0	0	0	0	539	611	
8	0	0	0	0	540	611	
9	0	0	0	0	539	610	
10	0	0	0	0	539	609	
11	0	0	0	0	539	611	
12	0	0	0	0	537	610	
13	0	0	0	0	536	610	
14	0	0	0	0	536	610	
15	0	0	0	0	536	610	
0	0	0	0	0	536	610	
1	0	0	0	0	536	610	
2	0	0	0	0	537	611	
3	0	0	0	0	539	610	
4	0	0	0	0	540	610	
5	0	0	0	0	541	610	
6	0	0	0	0	542	610	
7	0	0	0	0	542	611	
8	0	0	0	0	542	609	
9	0	0	0	0	540	610	
10	0	0	0	0	539	610	
11	0	0	0	0	539	610	
12	0	0	0	0	537	609	
13	0	0	0	0	536	609	
14	0	0	0	0	535	608	
15	0	0	0	0	536	609	
0	0	0	0	0	535	608	
1	0	0	0	0	534	608	
2	0	0	0	0	534	608	
3	0	0	0	0	535	609	
4	0	0	0	0	535	608	
5	0	0	0	0	535	608	
6	0	0	0	0	534	608	
7	0	0	0	0	533	608	
8	0	0	0	0	532	608	
9	0	0	0	0	532	607	
10	0	0	0	0	532	608	
11	0	0	0	0	532	608	
12	0	0	0	0	532	608	
13	0	0	0	0	532	608	
14	0	0	0	0	532	608	
15	0	0	0	0	532	609	
0	0	0	0	0	532	608	
1	0	0	0	0	532	608	
2	0	0	0	0	532	608	
3	0	0	0	0	532	609	
4	0	0	0	0	532	609	
5	0	0	0	0	533	609	
6	0	0	0	0	533	609	
7	0	0	0	0	534	609	
8	0	0	0	0	534	609	
9	0	0	0	0	534	610	
10	0	0	0	0	533	610	
11	0	0	0	0	534	610	
12	0	0	0	0	534	610	
13	0	0	0	0	535	611	
14	0	0	0	0	534	611	
15	0	0	0	0	535	611	
0	0	0	0	0	536	610	
1	0	0	0	0	536	611	
2	0	0	0	0	536	611	
3	0	0	0	0	536	611	
4	0	0	0	0	536	611	
5	0	0	0	0	535	610	
6	0	0	0	0	533	611	
7	0	0	0	0	532	612	
8	0	0	0	0	531	611	
9	0	0	0	0	530	611	
10	0	0	0	0	530	611	
11	0	0	0	0	529	611	
12	0	0	0	0	530	612	
13	0	0	0	0	529	611	
14	0	0	0	0	529	611	
15	0	0	0	0	529	611	
0	0	0	0	0	529	611	
1	0	0	0	0	529	611	
2	0	0	0	0	530	611	
3	0	0	0	0	531	611	
4	0	0	0	0	532	611	
5	0	0	0	0	534	611	
6	0	0	0	0	535	611	
7	0	0	0	0	536	611	
8	0	0	0	0	537	610	
9	0	0	0	0	537	610	
10	0	0	0	0	539	610	
11	0	0	0	0	540	611	
12	0	0	0	0	539	609	
13	0	0	0	0	539	609	
14	0	0	0	0	539	609	
15	0	0	0	0	539	611	
0	0	0	0	0	538	611	
1	0	0	0	0	537	610	
2	0	0	0	0	538	611	
3	0	0	0	0	537	611	
4	0	0	0	0	537	610	
5	0	0	0	0	537	611	
6	0	0	0	0	537	610	
7	0	0	0	0	536	612	
8	0	0	0	0	536	611	
9	0	0	0	0	535	612	
10	0	0	0	0	534	611	
11	0	0	0	0	534	611	
12	0	0	0	0	534	612	
13	0	0	0	0	534	611	
14	0	0	0	0	534	611	
15	0	0	0	0	535	611	
0	0	0	0	0	535	611	
1	0	0	0	0	535	612	
2	0	0	0	0	535	611	
3	0	0	0	0	535	611	
4	0	0	0	0	535	612	
5	0	0	0	0	536	612	
6	0	0	0	0	536	611	
7	0	0	0	0	536	612	
8	0	0	0	0	536	611	
9	0	0	0	0	537	612	
10	0	0	0	0	537	611	
11	0	0	0	0	537	612	
12	0	0	0	0	538	611	
13	0	0	0	0	538	611	
14	0	0	0	0	539	611	
15	0	0	0	0	539	612	
0	0	0	0	0	539	611	
1	0	0	0	0	540	611	
2	0	0	0	0	540	611	
3	0	0	0	0	541	611	
4	0	0	0	0	542	611	
5	0	0	0	0	543	611	
6	0	0	0	0	543	611	
7	0	0	0	0	544	611	
8	0	0	0	0	544	611	
9	0	0	0	0	545	611	
10	0	0	0	0	545	611	
11	0	0	0	0	544	611	
12	0	0	0	0	544	611	
13	0	0	0	0	544	611	
14	0	0	0	0	543	610	
15	0	0	0	0	540	611	
0	0	0	0	0	538	610	
1	0	0	0	0	535	610	
2	0	0	0	0	532	610	
3	0	0	0	0	529	611	
4	0	0	0	0	525	610	
5	0	0	0	0	521	610	
6	0	0	0	0	517	610	
7	0	0	0	0	513	611	
8	0	0	0	0	511	609	
9	0	0	0	0	510	609	
10	0	0	0	0	509	609	
11	0	0	0	0	509	609	
12	0	0	0	0	509	609	
13	0	0	0	0	508	609	
14	0	0	0	0	507	609	
15	0	0	0	0	509	610	
0	0	0	0	0	508	609	
1	0	0	0	0	507	610	
2	0	0	0	0	505	609	
3	0	0	0	0	503	610	
4	0	0	0	0	501	609	
5	0	0	0	0	499	609	
6	0	0	0	0	497	609	
7	0	0	0	0	497	610	
8	0	0	0	0	501	609	
9	0	0	0	0	508	609	
10	0	0	0	0	515	608	
11	0	0	0	0	526	610	
12	0	0	0	0	539	610	
13	0	0	0	0	552	611	
14	0	0	0	0	566	610	
15	0	0	0	0	580	611	
0	0	0	0	0	593	610	
1	0	0	0	0	606	610	
2	0	0	0	0	617	611	
3	0	0	0	0	628	611	
4	0	0	0	0	641	611	
5	0	0	0	0	657	611	
6	0	0	0	0	674	611	
7	0	0	0	0	696	611	
8	0	0	0	0	720	611	
9	0	0	0	0	747	611	
10	0	0	0	0	775	611	
11	0	0	0	0	800	611	
12	0	0	0	0	822	611	
13	0	0	0	0	839	611	
14	0	0	0	0	848	611	
15	0	0	0	0	851	611	
0	0	0	0	0	847	611	
1	0	0	0	0	838	611	
2	0	0	0	0	825	611	
3	0	0	0	0	809	611	
4	0	0	0	0	791	611	
5	0	0	0	0	769	611	
6	0	0	0	0	748	611	
7	0	0	0	0	729	612	
8	0	0	0	0	709	612	
9	0	0	0	0	691	611	
10	0	0	0	0	672	611	
11	0	0	0	0	654	612	
12	0	0	0	0	638	611	
13	0	0	0	0	622	611	
14	0	0	0	0	607	611	
15	0	0	0	0	591	611	
0	0	0	0	0	577	611	
1	0	0	0	0	563	611	
2	0	0	0	0	549	611	
3	0	0	0	0	536	611	
4	0	0	0	0	523	611	
5	0	0	0	0	512	610	
6	0	0	0	0	501	610	
7	0	0	0	0	492	611	
8	0	0	0	0	485	610	
9	0	0	0	0	478	611	
10	0	0	0	0	472	611	
11	0	0	0	0	467	611	
12	0	0	0	0	463	610	
13	0	0	0	0	459	611	
14	0	0	0	0	455	611	
15	0	0	0	0	453	611	
0	0	0	0	0	451	611	
1	0	0	0	0	449	611	
2	0	0	0	0	447	611	
3	0	0	0	0	445	612	
4	0	0	0	0	444	612	
5	0	0	0	0	442	611	
6	0	0	0	0	441	611	
7	0	0	0	0	440	612	
8	0	0	0	0	439	611	
9	0	0	0	0	438	611	
10	0	0	0	0	438	611	
11	0	0	0	0	438	611	
12	0	0	0	0	437	611	
13	0	0	0	0	438	611	
14	0	0	0	0	437	611	
15	0	0	0	0	437	612	
0	0	0	0	0	436	611	
1	0	0	0	0	435	611	
2	0	0	0	0	433	611	
3	0	0	0	0	433	611	
4	0	0	0	0	432	610	
5	0	0	0	0	431	611	
6	0	0	0	0	430	611	
7	0	0	0	0	430	611	
8	0	0	0	0	430	611	
9	0	0	0	0	431	611	
10	0	0	0	0	430	610	
11	0	0	0	0	432	611	
12	0	0	0	0	433	611	
13	0	0	0	0	434	611	
14	0	0	0	0	435	610	
15	0	0	0	0	437	611	
0	0	0	0	0	438	609	
1	0	0	0	0	439	610	
2	0	0	0	0	440	611	
3	0	0	0	0	443	610	
4	0	0	0	0	445	610	
5	0	0	0	0	448	610	
6	0	0	0	0	450	609	
7	0	0	0	0	452	610	
8	0	0	0	0	453	609	
9	0	0	0	0	454	609	
10	0	0	0	0	455	609	
11	0	0	0	0	456	610	
12	0	0	0	0	456	609	
13	0	0	0	0	457	609	
14	0	0	0	0	457	609	
15	0	0	0	0	457	610	
0	0	0	0	0	456	610	
1	0	0	0	0	456	610	
2	0	0	0	0	455	610	
3	0	0	0	0	455	611	
4	0	0	0	0	454	611	
5	0	0	0	0	453	610	
6	0	0	0	0	451	611	
7	0	0	0	0	449	612	
8	0	0	0	0	448	611	
9	0	0	0	0	448	610	
10	0	0	0	0	447	611	
11	0	0	0	0	446	611	
12	0	0	0	0	444	611	
13	0	0	0	0	443	611	
14	0	0	0	0	442	611	
15	0	0	0	0	440	611	
0	0	0	0	0	440	610	
1	0	0	0	0	438	611	
2	0	0	0	0	437	611	
3	0	0	0	0	438	612	
4	0	0	0	0	438	611	
5	0	0	0	0	438	611	
6	0	0	0	0	439	611	
7	0	0	0	0	439	612	
8	0	0	0	0	439	612	
9	0	0	0	0	439	612	
10	0	0	0	0	440	612	
11	0	0	0	0	442	612	
12	0	0	0	0	444	612	
13	0	0	0	0	445	612	
14	0	0	0	0	446	611	
15	0	0	0	0	449	612	
0	0	0	0	0	451	611	
1	0	0	0	0	452	611	
2	0	0	0	0	454	611	
3	0	0	0	0	454	611	
4	0	0	0	0	455	611	
5	0	0	0	0	457	611	
6	0	0	0	0	458	611	
7	0	0	0	0	459	612	
8	0	0	0	0	459	611	
9	0	0	0	0	460	611	
10	0	0	0	0	461	611	
11	0	0	0	0	461	611	
12	0	0	0	0	461	611	
13	0	0	0	0	462	611	
14	0	0	0	0	463	611	
15	0	0	0	0	463	611	
0	0	0	0	0	463	610	
1	0	0	0	0	464	611	
2	0	0	0	0	464	610	
3	0	0	0	0	464	611	
4	0	0	0	0	465	611	
5	0	0	0	0	466	610	
6	0	0	0	0	465	611	
7	0	0	0	0	466	611	
8	0	0	0	0	465	610	
9	0	0	0	0	466	610	
10	0	0	0	0	466	610	
11	0	0	0	0	466	610	
12	0	0	0	0	466	610	
13	0	0	0	0	467	609	
14	0	0	0	0	467	610	
15	0	0	0	0	466	610	
0	0	0	0	0	466	611	
1	0	0	0	0	466	609	
2	0	0	0	0	466	609	
3	0	0	0	0	466	610	
4	0	0	0	0	466	609	
5	0	0	0	0	467	610	
6	0	0	0	0	467	610	
7	0	0	0	0	467	611	
8	0	0	0	0	468	610	
9	0	0	0	0	469	609	
10	0	0	0	0	470	610	
11	0	0	0	0	469	609	
12	0	0	0	0	470	609	
13	0	0	0	0	469	609	
14	0	0	0	0	470	609	
15	0	0	0	0	470	610	
0	0	0	0	0	471	610	
1	0	0	0	0	471	610	
2	0	0	0	0	471	610	
3	0	0	0	0	470	610	
4	0	0	0	0	470	610	
5	0	0	0	0	470	610	
6	0	0	0	0	471	610	
7	0	0	0	0	470	610	
8	0	0	0	0	471	610	
9	0	0	0	0	471	610	
10	0	0	0	0	471	610	
11	0	0	0	0	471	611	
12	0	0	0	0	472	610	
13	0	0	0	0	472	610	
14	0	0	0	0	471	610	
15	0	0	0	0	470	611	
0	0	0	0	0	470	610	
1	0	0	0	0	470	611	
2	0	0	0	0	468	610	
3	0	0	0	0	467	611	
4	0	0	0	0	466	611	
5	0	0	0	0	466	611	
6	0	0	0	0	465	610	
7	0	0	0	0	464	611	
8	0	0	0	0	463	611	
9	0	0	0	0	462	611	
10	0	0	0	0	460	611	
11	0	0	0	0	459	611	
12	0	0	0	0	458	610	
13	0	0	0	0	458	612	
14	0	0	0	0	458	610	
15	0	0	0	0	457	611	
0	0	0	0	0	456	610	
1	0	0	0	0	456	610	
2	0	0	0	0	456	611	
3	0	0	0	0	456	611	
4	0	0	0	0	457	611	
5	0	0	0	0	457	611	
6	0	0	0	0	459	611	
7	0	0	0	0	460	612	
8	0	0	0	0	461	611	
9	0	0	0	0	462	611	
10	0	0	0	0	462	611	
11	0	0	0	0	463	611	
12	0	0	0	0	464	611	
13	0	0	0	0	465	610	
14	0	0	0	0	467	611	
15	0	0	0	0	467	611	
0	0	0	0	0	469	611	
1	0	0	0	0	470	611	
2	0	0	0	0	471	611	
3	0	0	0	0	471	611	
4	0	0	0	0	472	611	
5	0	0	0	0	472	612	
6	0	0	0	0	472	611	
7	0	0	0	0	472	612	
8	0	0	0	0	472	611	
9	0	0	0	0	471	611	
10	0	0	0	0	470	612	
11	0	0	0	0	468	612	
12	0	0	0	0	468	611	
13	0	0	0	0	466	612	
14	0	0	0	0	466	611	
15	0	0	0	0	466	612	
0	0	0	0	0	467	612	
1	0	0	0	0	468	611	
2	0	0	0	0	470	612	
3	0	0	0	0	472	612	
4	0	0	0	0	474	611	
5	0	0	0	0	475	612	
6	0	0	0	0	476	611	
7	0	0	0	0	477	612	
8	0	0	0	0	477	611	
9	0	0	0	0	476	612	
10	0	0	0	0	476	612	
11	0	0	0	0	477	612	
12	0	0	0	0	478	611	
13	0	0	0	0	479	611	
14	0	0	0	0	480	612	
15	0	0	0	0	482	612	
0	0	0	0	0	483	611	
1	0	0	0	0	483	611	
2	0	0	0	0	485	611	
3	0	0	0	0	487	611	
4	0	0	0	0	488	611	
5	0	0	0	0	491	611	
6	0	0	0	0	492	611	
7	0	0	0	0	494	611	
8	0	0	0	0	495	610	
9	0	0	0	0	496	611	
10	0	0	0	0	497	611	
11	0	0	0	0	499	611	
12	0	0	0	0	500	610	
13	0	0	0	0	502	610	
14	0	0	0	0	503	610	
15	0	0	0	0	504	610	
0	0	0	0	0	505	610	
1	0	0	0	0	506	609	
2	0	0	0	0	508	610	
3	0	0	0	0	508	610	
4	0	0	0	0	509	610	
5	0	0	0	0	509	610	
6	0	0	0	0	508	610	
7	0	0	0	0	508	611	
8	0	0	0	0	508	610	
9	0	0	0	0	509	610	
10	0	0	0	0	509	610	
11	0	0	0	0	510	610	
12	0	0	0	0	510	609	
13	0	0	0	0	512	610	
14	0	0	0	0	512	611	
15	0	0	0	0	513	611	
0	0	0	0	0	515	610	
1	0	0	0	0	515	610	
2	0	0	0	0	516	611	
3	0	0	0	0	517	611	
4	0	0	0	0	517	611	
5	0	0	0	0	518	611	
6	0	0	0	0	519	611	
7	0	0	0	0	520	612	
8	0	0	0	0	522	611	
9	0	0	0	0	523	611	
10	0	0	0	0	524	611	
11	0	0	0	0	525	611	
12	0	0	0	0	526	612	
13	0	0	0	0	526	612	
14	0	0	0	0	527	612	
15	0	0	0	0	528	613	
0	0	0	0	0	530	612	
1	0	0	0	0	531	612	
2	0	0	0	0	532	612	
3	0	0	0	0	533	613	
4	0	0	0	0	534	612	
5	0	0	0	0	534	612	
6	0	0	0	0	535	612	
7	0	0	0	0	535	613	
8	0	0	0	0	535	612	
9	0	0	0	0	535	612	
10	0	0	0	0	535	612	
11	0	0	0	0	536	612	
12	0	0	0	0	536	612	
13	0	0	0	0	537	612	
14	0	0	0	0	538	612	
15	0	0	0	0	539	612	
0	0	0	0	0	540	611	
1	0	0	0	0	541	611	
2	0	0	0	0	542	611	
3	0	0	0	0	543	611	
4	0	0	0	0	543	611	
5	0	0	0	0	543	611	
6	0	0	0	0	543	611	
7	0	0	0	0	544	611	
8	0	0	0	0	544	610	
9	0	0	0	0	544	611	
10	0	0	0	0	544	611	
11	0	0	0	0	543	611	
12	0	0	0	0	543	609	
13	0	0	0	0	543	610	
14	0	0	0	0	544	609	
15	0	0	0	0	544	610	
0	0	0	0	0	545	610	
1	0	0	0	0	545	609	
2	0	0	0	0	547	610	
3	0	0	0	0	548	610	
4	0	0	0	0	549	609	
5	0	0	0	0	549	609	
6	0	0	0	0	549	609	
7	0	0	0	0	550	609	
8	0	0	0	0	549	608	
9	0	0	0	0	549	609	
10	0	0	0	0	547	609	
11	0	0	0	0	546	609	
12	0	0	0	0	545	608	
13	0	0	0	0	545	608	
14	0	0	0	0	543	608	
15	0	0	0	0	542	609	
0	0	0	0	0	540	608	
1	0	0	0	0	540	608	
2	0	0	0	0	540	608	
3	0	0	0	0	540	609	
4	0	0	0	0	540	609	
5	0	0	0	0	540	608	
6	0	0	0	0	539	608	
7	0	0	0	0	539	608	
8	0	0	0	0	539	608	
9	0	0	0	0	539	609	
10	0	0	0	0	539	609	
11	0	0	0	0	539	609	
12	0	0	0	0	540	609	
13	0	0	0	0	540	609	
14	0	0	0	0	540	610	
15	0	0	0	0	540	611	
0	0	0	0	0	541	610	
1	0	0	0	0	542	610	
2	0	0	0	0	543	611	
3	0	0	0	0	543	611	
4	0	0	0	0	543	611	
5	0	0	0	0	544	611	
6	0	0	0	0	544	610	
7	0	0	0	0	544	611	
8	0	0	0	0	545	611	
9	0	0	0	0	545	611	
10	0	0	0	0	544	611	
11	0	0	0	0	544	610	
12	0	0	0	0	543	611	
13	0	0	0	0	543	611	
14	0	0	0	0	543	611	
15	0	0	0	0	543	611	
0	0	0	0	0	542	610	
1	0	0	0	0	542	610	
2	0	0	0	0	542	610	
3	0	0	0	0	542	611	
4	0	0	0	0	541	610	
5	0	0	0	0	540	610	
6	0	0	0	0	541	610	
7	0	0	0	0	541	611	
8	0	0	0	0	541	610	
9	0	0	0	0	540	610	
10	0	0	0	0	540	609	
11	0	0	0	0	539	610	
12	0	0	0	0	538	610	
13	0	0	0	0	537	611	
14	0	0	0	0	536	610	
15	0	0	0	0	535	610	
0	0	0	0	0	533	611	
1	0	0	0	0	532	611	
2	0	0	0	0	530	610	
3	0	0	0	0	529	610	
4	0	0	0	0	528	610	
5	0	0	0	0	528	610	
6	0	0	0	0	528	610	
7	0	0	0	0	527	611	
8	0	0	0	0	527	610	
9	0	0	0	0	526	610	
10	0	0	0	0	526	610	
11	0	0	0	0	526	610	
12	0	0	0	0	526	610	
13	0	0	0	0	526	610	
14	0	0	0	0	525	610	
15	0	0	0	0	524	610	
0	0	0	0	0	523	610	
1	0	0	0	0	522	611	
2	0	0	0	0	522	611	
3	0	0	0	0	520	610	
4	0	0	0	0	519	611	
5	0	0	0	0	518	611	
6	0	0	0	0	517	611	
7	0	0	0	0	516	611	
8	0	0	0	0	516	611	
9	0	0	0	0	516	611	
10	0	0	0	0	516	611	
11	0	0	0	0	515	611	
12	0	0	0	0	515	611	
13	0	0	0	0	514	611	
14	0	0	0	0	513	611	
15	0	0	0	0	512	612	
0	0	0	0	0	511	611	
1	0	0	0	0	509	611	
2	0	0	0	0	508	611	
3	0	0	0	0	507	612	
4	0	0	0	0	504	611	
5	0	0	0	0	502	611	
6	0	0	0	0	500	611	
7	0	0	0	0	497	611	
8	0	0	0	0	495	612	
9	0	0	0	0	493	611	
10	0	0	0	0	492	611	
11	0	0	0	0	490	612	
12	0	0	0	0	490	612	
13	0	0	0	0	490	611	
14	0	0	0	0	490	611	
15	0	0	0	0	489	611	
0	0	0	0	0	488	610	
1	0	0	0	0	487	611	
2	0	0	0	0	486	611	
3	0	0	0	0	485	611	
4	0	0	0	0	484	610	
5	0	0	0	0	483	611	
6	0	0	0	0	482	610	
7	0	0	0	0	482	612	
8	0	0	0	0	481	610	
9	0	0	0	0	481	611	
10	0	0	0	0	480	610	
11	0	0	0	0	479	610	
12	0	0	0	0	478	610	
13	0	0	0	0	476	610	
14	0	0	0	0	476	610	
15	0	0	0	0	475	611	
0	0	0	0	0	473	610	
1	0	0	0	0	473	609	
2	0	0	0	0	472	610	
3	0	0	0	0	472	611	
4	0	0	0	0	471	609	
5	0	0	0	0	470	610	
6	0	0	0	0	469	610	
7	0	0	0	0	468	610	
8	0	0	0	0	468	609	
9	0	0	0	0	467	610	
10	0	0	0	0	467	609	
11	0	0	0	0	465	610	
12	0	0	0	0	465	610	
13	0	0	0	0	464	610	
14	0	0	0	0	464	610	
15	0	0	0	0	463	611	
0	0	0	0	0	464	610	
1	0	0	0	0	464	610	
2	0	0	0	0	464	610	
3	0	0	0	0	463	611	
4	0	0	0	0	463	611	
5	0	0	0	0	463	611	
6	0	0	0	0	462	610	
7	0	0	0	0	461	612	
8	0	0	0	0	460	610	
9	0	0	0	0	460	610	
10	0	0	0	0	459	611	
11	0	0	0	0	458	611	
12	0	0	0	0	458	611	
13	0	0	0	0	459	611	
14	0	0	0	0	459	611	
15	0	0	0	0	460	612	
0	0	0	0	0	461	611	
1	0	0	0	0	461	611	
2	0	0	0	0	462	611	
3	0	0	0	0	463	611	
4	0	0	0	0	464	612	
5	0	0	0	0	465	611	
6	0	0	0	0	465	611	
7	0	0	0	0	465	611	
8	0	0	0	0	465	611	
9	0	0	0	0	465	611	
10	0	0	0	0	466	611	
11	0	0	0	0	467	612	
12	0	0	0	0	467	611	
13	0	0	0	0	468	611	
14	0	0	0	0	469	611	
15	0	0	0	0	469	611	
0	0	0	0	0	471	611	
1	0	0	0	0	472	611	
2	0	0	0	0	474	611	
3	0	0	0	0	476	611	
4	0	0	0	0	478	611	
5	0	0	0	0	479	611	
6	0	0	0	0	480	611	
7	0	0	0	0	482	612	
8	0	0	0	0	484	611	
9	0	0	0	0	487	611	
10	0	0	0	0	489	611	
11	0	0	0	0	491	611	
12	0	0	0	0	492	611	
13	0	0	0	0	494	611	
14	0	0	0	0	496	611	
15	0	0	0	0	497	611	
0	0	0	0	0	498	611	
1	0	0	0	0	498	611	
2	0	0	0	0	499	611	
3	0	0	0	0	500	611	
4	0	0	0	0	502	611	
5	0	0	0	0	503	610	
6	0	0	0	0	504	610	
7	0	0	0	0	505	611	
8	0	0	0	0	505	610	
9	0	0	0	0	505	610	
10	0	0	0	0	505	611	
11	0	0	0	0	505	611	
12	0	0	0	0	505	612	
13	0	0	0	0	504	612	
14	0	0	0	0	504	611	
15	0	0	0	0	504	612	
0	0	0	0	0	505	611	
1	0	0	0	0	506	611	
2	0	0	0	0	506	611	
3	0	0	0	0	507	611	
4	0	0	0	0	507	611	
5	0	0	0	0	508	611	
6	0	0	0	0	508	610	
7	0	0	0	0	508	611	
8	0	0	0	0	508	611	
9	0	0	0	0	507	610	
10	0	0	0	0	508	610	
11	0	0	0	0	508	611	
12	0	0	0	0	508	611	
13	0	0	0	0	509	610	
14	0	0	0	0	510	610	
15	0	0	0	0	511	611	
0	0	0	0	0	511	610	
1	0	0	0	0	512	610	
2	0	0	0	0	512	610	
3	0	0	0	0	512	611	
4	0	0	0	0	512	611	
5	0	0	0	0	512	611	
6	0	0	0	0	512	611	
7	0	0	0	0	513	611	
8	0	0	0	0	514	611	
9	0	0	0	0	514	610	
10	0	0	0	0	515	611	
11	0	0	0	0	516	611	
12	0	0	0	0	517	610	
13	0	0	0	0	518	610	
14	0	0	0	0	519	610	
15	0	0	0	0	519	610	
0	0	0	0	0	519	609	
1	0	0	0	0	521	611	
2	0	0	0	0	522	609	
3	0	0	0	0	523	610	
4	0	0	0	0	523	610	
5	0	0	0	0	524	609	
6	0	0	0	0	524	610	
7	0	0	0	0	523	611	
8	0	0	0	0	523	610	
9	0	0	0	0	522	609	
10	0	0	0	0	521	609	
11	0	0	0	0	522	609	
12	0	0	0	0	521	609	
13	0	0	0	0	521	609	
14	0	0	0	0	520	610	
15	0	0	0	0	520	610	
0	0	0	0	0	521	609	
1	0	0	0	0	521	609	
2	0	0	0	0	521	609	
3	0	0	0	0	521	609	
