# OpenSignals Text File Format. Version 1
# {"98:D3:91:FD:69:48": {"position": 0, "device": "bitalino_rev", "device name": "98:D3:91:FD:69:48", "device connection": "BTH98:D3:91:FD:69:48", "sampling rate": 1000, "resolution": [4, 1, 1, 1, 1, 10, 10], "firmware version": 1281, "comments": "", "keywords": "", "mode": 0, "sync interval": 2, "date": "2021-9-18", "time": "20:25:44.995", "channels": [2, 5], "sensor": ["RAW", "RAW"], "label": ["A2", "A5"], "column": ["nSeq", "I1", "I2", "O1", "O2", "A2", "A5"], "special": [{}, {}], "digital IO": [0, 0, 1, 1], "convertedValues": 0}}
# EndOfHeader
0	0	0	0	0	515	415	
1	0	0	0	0	515	414	
2	0	0	0	0	515	414	
3	0	0	0	0	515	415	
4	0	0	0	0	513	414	
5	0	0	0	0	511	414	
6	0	0	0	0	508	413	
7	0	0	0	0	507	412	
8	0	0	0	0	508	412	
9	0	0	0	0	509	412	
10	0	0	0	0	509	413	
11	0	0	0	0	510	413	
12	0	0	0	0	511	412	
13	0	0	0	0	511	412	
14	0	0	0	0	512	412	
15	0	0	0	0	514	411	
0	0	0	0	0	514	412	
1	0	0	0	0	514	412	
2	0	0	0	0	513	412	
3	0	0	0	0	512	412	
4	0	0	0	0	511	411	
5	0	0	0	0	510	412	
6	0	0	0	0	509	412	
7	0	0	0	0	508	412	
8	0	0	0	0	507	413	
9	0	0	0	0	506	413	
10	0	0	0	0	505	412	
11	0	0	0	0	503	413	
12	0	0	0	0	500	412	
13	0	0	0	0	496	412	
14	0	0	0	0	492	412	
15	0	0	0	0	484	411	
0	0	0	0	0	475	412	
1	0	0	0	0	465	411	
2	0	0	0	0	455	412	
3	0	0	0	0	445	412	
4	0	0	0	0	438	411	
5	0	0	0	0	433	411	
6	0	0	0	0	430	412	
7	0	0	0	0	431	411	
8	0	0	0	0	434	411	
9	0	0	0	0	439	412	
10	0	0	0	0	444	411	
11	0	0	0	0	448	412	
12	0	0	0	0	451	411	
13	0	0	0	0	451	411	
14	0	0	0	0	454	412	
15	0	0	0	0	458	411	
0	0	0	0	0	467	411	
1	0	0	0	0	477	411	
2	0	0	0	0	489	412	
3	0	0	0	0	506	413	
4	0	0	0	0	525	412	
5	0	0	0	0	546	412	
6	0	0	0	0	568	412	
7	0	0	0	0	591	413	
8	0	0	0	0	616	412	
9	0	0	0	0	646	412	
10	0	0	0	0	679	413	
11	0	0	0	0	713	413	
12	0	0	0	0	748	413	
13	0	0	0	0	784	412	
14	0	0	0	0	821	412	
15	0	0	0	0	856	412	
0	0	0	0	0	884	412	
1	0	0	0	0	905	412	
2	0	0	0	0	921	412	
3	0	0	0	0	931	412	
4	0	0	0	0	938	412	
5	0	0	0	0	941	411	
6	0	0	0	0	942	411	
7	0	0	0	0	938	411	
8	0	0	0	0	928	411	
9	0	0	0	0	914	411	
10	0	0	0	0	896	410	
11	0	0	0	0	874	411	
12	0	0	0	0	848	411	
13	0	0	0	0	824	411	
14	0	0	0	0	801	411	
15	0	0	0	0	779	411	
0	0	0	0	0	755	412	
1	0	0	0	0	730	412	
2	0	0	0	0	704	412	
3	0	0	0	0	679	412	
4	0	0	0	0	655	411	
5	0	0	0	0	633	411	
6	0	0	0	0	611	411	
7	0	0	0	0	589	411	
8	0	0	0	0	570	411	
9	0	0	0	0	553	412	
10	0	0	0	0	536	412	
11	0	0	0	0	519	413	
12	0	0	0	0	502	412	
13	0	0	0	0	486	412	
14	0	0	0	0	473	412	
15	0	0	0	0	462	412	
0	0	0	0	0	452	412	
1	0	0	0	0	444	412	
2	0	0	0	0	437	412	
3	0	0	0	0	431	412	
4	0	0	0	0	425	412	
5	0	0	0	0	420	411	
6	0	0	0	0	416	411	
7	0	0	0	0	413	410	
8	0	0	0	0	409	411	
9	0	0	0	0	405	411	
10	0	0	0	0	400	411	
11	0	0	0	0	397	411	
12	0	0	0	0	394	411	
13	0	0	0	0	392	409	
14	0	0	0	0	391	409	
15	0	0	0	0	390	409	
0	0	0	0	0	388	410	
1	0	0	0	0	386	409	
2	0	0	0	0	385	409	
3	0	0	0	0	384	409	
4	0	0	0	0	383	408	
5	0	0	0	0	384	408	
6	0	0	0	0	385	408	
7	0	0	0	0	385	408	
8	0	0	0	0	385	408	
9	0	0	0	0	385	408	
10	0	0	0	0	385	409	
11	0	0	0	0	386	409	
12	0	0	0	0	387	409	
13	0	0	0	0	388	410	
14	0	0	0	0	390	410	
15	0	0	0	0	390	410	
0	0	0	0	0	390	411	
1	0	0	0	0	389	411	
2	0	0	0	0	391	411	
3	0	0	0	0	395	412	
4	0	0	0	0	398	411	
5	0	0	0	0	400	412	
6	0	0	0	0	402	413	
7	0	0	0	0	405	412	
8	0	0	0	0	406	414	
9	0	0	0	0	407	414	
10	0	0	0	0	407	415	
11	0	0	0	0	408	415	
12	0	0	0	0	409	414	
13	0	0	0	0	409	415	
14	0	0	0	0	408	415	
15	0	0	0	0	408	414	
0	0	0	0	0	408	415	
1	0	0	0	0	409	415	
2	0	0	0	0	411	415	
3	0	0	0	0	412	416	
4	0	0	0	0	412	415	
5	0	0	0	0	412	414	
6	0	0	0	0	414	415	
7	0	0	0	0	416	413	
8	0	0	0	0	417	414	
9	0	0	0	0	418	413	
10	0	0	0	0	418	413	
11	0	0	0	0	419	413	
12	0	0	0	0	421	413	
13	0	0	0	0	423	413	
14	0	0	0	0	424	412	
15	0	0	0	0	424	411	
0	0	0	0	0	425	412	
1	0	0	0	0	427	412	
2	0	0	0	0	428	411	
3	0	0	0	0	430	412	
4	0	0	0	0	429	410	
5	0	0	0	0	430	411	
6	0	0	0	0	431	410	
7	0	0	0	0	430	410	
8	0	0	0	0	430	411	
9	0	0	0	0	431	410	
10	0	0	0	0	431	411	
11	0	0	0	0	430	411	
12	0	0	0	0	429	411	
13	0	0	0	0	429	411	
14	0	0	0	0	429	411	
15	0	0	0	0	430	411	
0	0	0	0	0	431	412	
1	0	0	0	0	432	412	
2	0	0	0	0	434	412	
3	0	0	0	0	436	413	
4	0	0	0	0	439	413	
5	0	0	0	0	440	413	
6	0	0	0	0	442	412	
7	0	0	0	0	443	412	
8	0	0	0	0	443	413	
9	0	0	0	0	444	413	
10	0	0	0	0	444	412	
11	0	0	0	0	444	414	
12	0	0	0	0	444	413	
13	0	0	0	0	444	413	
14	0	0	0	0	443	414	
15	0	0	0	0	443	413	
0	0	0	0	0	443	414	
1	0	0	0	0	444	414	
2	0	0	0	0	445	414	
3	0	0	0	0	445	414	
4	0	0	0	0	446	413	
5	0	0	0	0	446	414	
6	0	0	0	0	447	414	
7	0	0	0	0	447	413	
8	0	0	0	0	446	413	
9	0	0	0	0	446	413	
10	0	0	0	0	446	412	
11	0	0	0	0	446	413	
12	0	0	0	0	445	413	
13	0	0	0	0	443	412	
14	0	0	0	0	443	413	
15	0	0	0	0	442	412	
0	0	0	0	0	444	412	
1	0	0	0	0	449	413	
2	0	0	0	0	454	411	
3	0	0	0	0	458	412	
4	0	0	0	0	460	410	
5	0	0	0	0	462	409	
6	0	0	0	0	464	410	
7	0	0	0	0	465	409	
8	0	0	0	0	465	409	
9	0	0	0	0	464	409	
10	0	0	0	0	462	408	
11	0	0	0	0	460	409	
12	0	0	0	0	461	408	
13	0	0	0	0	460	409	
14	0	0	0	0	460	409	
15	0	0	0	0	461	408	
0	0	0	0	0	461	409	
1	0	0	0	0	462	409	
2	0	0	0	0	463	409	
3	0	0	0	0	463	410	
4	0	0	0	0	464	409	
5	0	0	0	0	463	409	
6	0	0	0	0	463	409	
7	0	0	0	0	462	409	
8	0	0	0	0	463	410	
9	0	0	0	0	465	409	
10	0	0	0	0	467	409	
11	0	0	0	0	468	411	
12	0	0	0	0	469	411	
13	0	0	0	0	469	411	
14	0	0	0	0	469	411	
15	0	0	0	0	470	411	
0	0	0	0	0	471	411	
1	0	0	0	0	471	412	
2	0	0	0	0	471	411	
3	0	0	0	0	471	411	
4	0	0	0	0	470	411	
5	0	0	0	0	468	412	
6	0	0	0	0	467	411	
7	0	0	0	0	467	411	
8	0	0	0	0	470	411	
9	0	0	0	0	471	412	
10	0	0	0	0	470	412	
11	0	0	0	0	467	412	
12	0	0	0	0	465	411	
13	0	0	0	0	465	411	
14	0	0	0	0	466	411	
15	0	0	0	0	466	411	
0	0	0	0	0	468	412	
1	0	0	0	0	472	411	
2	0	0	0	0	474	411	
3	0	0	0	0	477	412	
4	0	0	0	0	479	411	
5	0	0	0	0	481	411	
6	0	0	0	0	482	411	
7	0	0	0	0	483	411	
8	0	0	0	0	485	412	
9	0	0	0	0	486	412	
10	0	0	0	0	487	413	
11	0	0	0	0	488	413	
12	0	0	0	0	490	413	
13	0	0	0	0	492	412	
14	0	0	0	0	493	413	
15	0	0	0	0	494	412	
0	0	0	0	0	494	413	
1	0	0	0	0	495	413	
2	0	0	0	0	495	414	
3	0	0	0	0	494	414	
4	0	0	0	0	494	414	
5	0	0	0	0	493	414	
6	0	0	0	0	492	414	
7	0	0	0	0	491	414	
8	0	0	0	0	491	415	
9	0	0	0	0	492	415	
10	0	0	0	0	495	415	
11	0	0	0	0	497	416	
12	0	0	0	0	499	415	
13	0	0	0	0	502	416	
14	0	0	0	0	506	416	
15	0	0	0	0	510	415	
0	0	0	0	0	512	415	
1	0	0	0	0	513	415	
2	0	0	0	0	512	413	
3	0	0	0	0	513	414	
4	0	0	0	0	516	412	
5	0	0	0	0	518	413	
6	0	0	0	0	517	413	
7	0	0	0	0	515	412	
8	0	0	0	0	516	412	
9	0	0	0	0	518	412	
10	0	0	0	0	519	411	
11	0	0	0	0	521	412	
12	0	0	0	0	522	410	
13	0	0	0	0	523	411	
14	0	0	0	0	524	411	
15	0	0	0	0	525	409	
0	0	0	0	0	527	411	
1	0	0	0	0	528	411	
2	0	0	0	0	529	411	
3	0	0	0	0	528	412	
4	0	0	0	0	528	412	
5	0	0	0	0	529	412	
6	0	0	0	0	531	412	
7	0	0	0	0	531	412	
8	0	0	0	0	531	412	
9	0	0	0	0	532	413	
10	0	0	0	0	534	412	
11	0	0	0	0	535	414	
12	0	0	0	0	535	414	
13	0	0	0	0	534	414	
14	0	0	0	0	533	414	
15	0	0	0	0	533	414	
0	0	0	0	0	534	415	
1	0	0	0	0	536	416	
2	0	0	0	0	537	415	
3	0	0	0	0	537	416	
4	0	0	0	0	536	415	
5	0	0	0	0	536	415	
6	0	0	0	0	536	416	
7	0	0	0	0	536	416	
8	0	0	0	0	536	416	
9	0	0	0	0	537	417	
10	0	0	0	0	537	419	
11	0	0	0	0	537	419	
12	0	0	0	0	537	418	
13	0	0	0	0	539	417	
14	0	0	0	0	540	416	
15	0	0	0	0	541	415	
0	0	0	0	0	541	414	
1	0	0	0	0	540	413	
2	0	0	0	0	540	414	
3	0	0	0	0	540	414	
4	0	0	0	0	540	414	
5	0	0	0	0	540	413	
6	0	0	0	0	539	414	
7	0	0	0	0	539	413	
8	0	0	0	0	539	412	
9	0	0	0	0	538	411	
10	0	0	0	0	539	410	
11	0	0	0	0	538	410	
12	0	0	0	0	537	408	
13	0	0	0	0	537	408	
14	0	0	0	0	537	408	
15	0	0	0	0	538	407	
0	0	0	0	0	537	407	
1	0	0	0	0	535	407	
2	0	0	0	0	532	407	
3	0	0	0	0	531	408	
4	0	0	0	0	530	407	
5	0	0	0	0	528	407	
6	0	0	0	0	527	408	
7	0	0	0	0	527	407	
8	0	0	0	0	526	408	
9	0	0	0	0	526	407	
10	0	0	0	0	525	408	
11	0	0	0	0	524	408	
12	0	0	0	0	524	408	
13	0	0	0	0	525	408	
14	0	0	0	0	526	408	
15	0	0	0	0	526	408	
0	0	0	0	0	526	408	
1	0	0	0	0	527	408	
2	0	0	0	0	531	409	
3	0	0	0	0	533	409	
4	0	0	0	0	534	409	
5	0	0	0	0	535	409	
6	0	0	0	0	536	410	
7	0	0	0	0	536	410	
8	0	0	0	0	536	411	
9	0	0	0	0	536	410	
10	0	0	0	0	535	411	
11	0	0	0	0	535	412	
12	0	0	0	0	532	411	
13	0	0	0	0	530	411	
14	0	0	0	0	527	412	
15	0	0	0	0	526	411	
0	0	0	0	0	525	412	
1	0	0	0	0	525	412	
2	0	0	0	0	526	412	
3	0	0	0	0	528	412	
4	0	0	0	0	528	411	
5	0	0	0	0	530	411	
6	0	0	0	0	528	411	
7	0	0	0	0	527	411	
8	0	0	0	0	526	411	
9	0	0	0	0	526	411	
10	0	0	0	0	527	412	
11	0	0	0	0	526	411	
12	0	0	0	0	526	411	
13	0	0	0	0	524	411	
14	0	0	0	0	523	410	
15	0	0	0	0	524	410	
0	0	0	0	0	525	410	
1	0	0	0	0	526	411	
2	0	0	0	0	527	410	
3	0	0	0	0	528	412	
4	0	0	0	0	528	411	
5	0	0	0	0	528	411	
6	0	0	0	0	529	411	
7	0	0	0	0	530	411	
8	0	0	0	0	529	412	
9	0	0	0	0	528	412	
10	0	0	0	0	527	412	
11	0	0	0	0	526	413	
12	0	0	0	0	525	412	
13	0	0	0	0	525	412	
14	0	0	0	0	525	412	
15	0	0	0	0	525	413	
0	0	0	0	0	525	414	
1	0	0	0	0	525	415	
2	0	0	0	0	524	416	
3	0	0	0	0	525	417	
4	0	0	0	0	524	417	
5	0	0	0	0	524	416	
6	0	0	0	0	522	416	
7	0	0	0	0	520	417	
8	0	0	0	0	519	417	
9	0	0	0	0	519	417	
10	0	0	0	0	519	416	
11	0	0	0	0	519	416	
12	0	0	0	0	519	415	
13	0	0	0	0	519	414	
14	0	0	0	0	520	412	
15	0	0	0	0	521	412	
0	0	0	0	0	520	411	
1	0	0	0	0	520	411	
2	0	0	0	0	519	411	
3	0	0	0	0	519	410	
4	0	0	0	0	518	408	
5	0	0	0	0	517	408	
6	0	0	0	0	516	408	
7	0	0	0	0	516	409	
8	0	0	0	0	516	409	
9	0	0	0	0	515	409	
10	0	0	0	0	512	410	
11	0	0	0	0	507	411	
12	0	0	0	0	504	410	
13	0	0	0	0	503	410	
14	0	0	0	0	505	410	
15	0	0	0	0	507	410	
0	0	0	0	0	507	410	
1	0	0	0	0	504	410	
2	0	0	0	0	504	410	
3	0	0	0	0	508	410	
4	0	0	0	0	511	408	
5	0	0	0	0	514	409	
6	0	0	0	0	517	408	
7	0	0	0	0	519	408	
8	0	0	0	0	518	408	
9	0	0	0	0	518	408	
10	0	0	0	0	519	409	
11	0	0	0	0	518	410	
12	0	0	0	0	516	409	
13	0	0	0	0	515	411	
14	0	0	0	0	516	411	
15	0	0	0	0	517	411	
0	0	0	0	0	521	411	
1	0	0	0	0	525	412	
2	0	0	0	0	530	413	
3	0	0	0	0	532	413	
4	0	0	0	0	534	413	
5	0	0	0	0	533	414	
6	0	0	0	0	532	415	
7	0	0	0	0	530	414	
8	0	0	0	0	528	415	
9	0	0	0	0	527	415	
10	0	0	0	0	527	416	
11	0	0	0	0	527	417	
12	0	0	0	0	527	416	
13	0	0	0	0	526	417	
14	0	0	0	0	527	417	
15	0	0	0	0	527	417	
0	0	0	0	0	527	417	
1	0	0	0	0	527	416	
2	0	0	0	0	526	417	
3	0	0	0	0	525	417	
4	0	0	0	0	525	416	
5	0	0	0	0	524	416	
6	0	0	0	0	524	415	
7	0	0	0	0	524	415	
8	0	0	0	0	524	415	
9	0	0	0	0	524	415	
10	0	0	0	0	524	414	
11	0	0	0	0	524	414	
12	0	0	0	0	524	414	
13	0	0	0	0	524	413	
14	0	0	0	0	524	412	
15	0	0	0	0	524	412	
0	0	0	0	0	523	410	
1	0	0	0	0	523	411	
2	0	0	0	0	523	411	
3	0	0	0	0	524	412	
4	0	0	0	0	524	412	
5	0	0	0	0	523	411	
6	0	0	0	0	522	410	
7	0	0	0	0	519	410	
8	0	0	0	0	518	411	
9	0	0	0	0	519	410	
10	0	0	0	0	520	411	
11	0	0	0	0	520	412	
12	0	0	0	0	520	411	
13	0	0	0	0	520	411	
14	0	0	0	0	522	411	
15	0	0	0	0	523	411	
0	0	0	0	0	523	411	
1	0	0	0	0	522	411	
2	0	0	0	0	521	411	
3	0	0	0	0	519	413	
4	0	0	0	0	516	413	
5	0	0	0	0	515	413	
6	0	0	0	0	514	413	
7	0	0	0	0	515	413	
8	0	0	0	0	515	414	
9	0	0	0	0	518	414	
10	0	0	0	0	520	413	
11	0	0	0	0	522	415	
12	0	0	0	0	523	414	
13	0	0	0	0	524	413	
14	0	0	0	0	525	414	
15	0	0	0	0	526	413	
0	0	0	0	0	527	413	
1	0	0	0	0	526	413	
2	0	0	0	0	524	413	
3	0	0	0	0	524	413	
4	0	0	0	0	525	412	
5	0	0	0	0	526	411	
6	0	0	0	0	525	411	
7	0	0	0	0	522	410	
8	0	0	0	0	519	411	
9	0	0	0	0	517	411	
10	0	0	0	0	515	411	
11	0	0	0	0	517	411	
12	0	0	0	0	517	411	
13	0	0	0	0	517	410	
14	0	0	0	0	516	410	
15	0	0	0	0	518	410	
0	0	0	0	0	519	410	
1	0	0	0	0	521	410	
2	0	0	0	0	522	409	
3	0	0	0	0	520	411	
4	0	0	0	0	519	410	
5	0	0	0	0	518	410	
6	0	0	0	0	515	411	
7	0	0	0	0	514	411	
8	0	0	0	0	512	411	
9	0	0	0	0	512	411	
10	0	0	0	0	511	410	
11	0	0	0	0	511	411	
12	0	0	0	0	512	411	
13	0	0	0	0	513	411	
14	0	0	0	0	513	411	
15	0	0	0	0	514	411	
0	0	0	0	0	515	411	
1	0	0	0	0	517	411	
2	0	0	0	0	518	410	
3	0	0	0	0	518	412	
4	0	0	0	0	519	411	
5	0	0	0	0	519	411	
6	0	0	0	0	519	412	
7	0	0	0	0	520	411	
8	0	0	0	0	520	411	
9	0	0	0	0	520	412	
10	0	0	0	0	520	412	
11	0	0	0	0	518	411	
12	0	0	0	0	516	411	
13	0	0	0	0	513	412	
14	0	0	0	0	511	412	
15	0	0	0	0	511	412	
0	0	0	0	0	511	412	
1	0	0	0	0	510	412	
2	0	0	0	0	509	412	
3	0	0	0	0	508	413	
4	0	0	0	0	508	412	
5	0	0	0	0	509	412	
6	0	0	0	0	510	412	
7	0	0	0	0	510	411	
8	0	0	0	0	509	412	
9	0	0	0	0	509	412	
10	0	0	0	0	509	412	
11	0	0	0	0	510	413	
12	0	0	0	0	511	412	
13	0	0	0	0	512	412	
14	0	0	0	0	513	413	
15	0	0	0	0	514	412	
0	0	0	0	0	515	412	
1	0	0	0	0	515	413	
2	0	0	0	0	515	413	
3	0	0	0	0	514	414	
4	0	0	0	0	515	413	
5	0	0	0	0	516	413	
6	0	0	0	0	516	412	
7	0	0	0	0	516	411	
8	0	0	0	0	515	412	
9	0	0	0	0	514	411	
10	0	0	0	0	514	412	
11	0	0	0	0	513	412	
12	0	0	0	0	513	412	
13	0	0	0	0	511	412	
14	0	0	0	0	509	412	
15	0	0	0	0	509	412	
0	0	0	0	0	512	413	
1	0	0	0	0	516	413	
2	0	0	0	0	518	413	
3	0	0	0	0	519	414	
4	0	0	0	0	521	414	
5	0	0	0	0	523	413	
6	0	0	0	0	525	414	
7	0	0	0	0	525	412	
8	0	0	0	0	525	413	
9	0	0	0	0	524	411	
10	0	0	0	0	523	410	
11	0	0	0	0	521	412	
12	0	0	0	0	521	410	
13	0	0	0	0	522	410	
14	0	0	0	0	524	410	
15	0	0	0	0	524	410	
0	0	0	0	0	525	410	
1	0	0	0	0	525	411	
2	0	0	0	0	526	412	
3	0	0	0	0	527	412	
4	0	0	0	0	528	411	
5	0	0	0	0	528	411	
6	0	0	0	0	528	411	
7	0	0	0	0	526	409	
8	0	0	0	0	524	410	
9	0	0	0	0	524	411	
10	0	0	0	0	526	411	
11	0	0	0	0	528	412	
12	0	0	0	0	527	411	
13	0	0	0	0	524	411	
14	0	0	0	0	520	411	
15	0	0	0	0	519	412	
0	0	0	0	0	518	411	
1	0	0	0	0	518	411	
2	0	0	0	0	519	411	
3	0	0	0	0	519	412	
4	0	0	0	0	519	411	
5	0	0	0	0	517	411	
6	0	0	0	0	515	412	
7	0	0	0	0	513	411	
8	0	0	0	0	512	412	
9	0	0	0	0	512	412	
10	0	0	0	0	512	411	
11	0	0	0	0	512	412	
12	0	0	0	0	513	412	
13	0	0	0	0	513	411	
14	0	0	0	0	514	412	
15	0	0	0	0	514	411	
0	0	0	0	0	514	412	
1	0	0	0	0	514	412	
2	0	0	0	0	514	412	
3	0	0	0	0	516	412	
4	0	0	0	0	518	412	
5	0	0	0	0	519	412	
6	0	0	0	0	519	412	
7	0	0	0	0	519	412	
8	0	0	0	0	520	412	
9	0	0	0	0	520	412	
10	0	0	0	0	520	412	
11	0	0	0	0	519	413	
12	0	0	0	0	517	412	
13	0	0	0	0	516	411	
14	0	0	0	0	515	411	
15	0	0	0	0	515	411	
0	0	0	0	0	515	410	
1	0	0	0	0	516	411	
2	0	0	0	0	518	411	
3	0	0	0	0	519	411	
4	0	0	0	0	519	411	
5	0	0	0	0	518	411	
6	0	0	0	0	517	410	
7	0	0	0	0	516	409	
8	0	0	0	0	516	410	
9	0	0	0	0	517	410	
10	0	0	0	0	517	410	
11	0	0	0	0	517	410	
12	0	0	0	0	517	410	
13	0	0	0	0	518	410	
14	0	0	0	0	518	410	
15	0	0	0	0	518	410	
0	0	0	0	0	517	411	
1	0	0	0	0	515	411	
2	0	0	0	0	513	411	
3	0	0	0	0	511	412	
4	0	0	0	0	510	412	
5	0	0	0	0	509	412	
6	0	0	0	0	508	413	
7	0	0	0	0	507	412	
8	0	0	0	0	507	413	
9	0	0	0	0	508	414	
10	0	0	0	0	510	413	
11	0	0	0	0	511	414	
12	0	0	0	0	511	413	
13	0	0	0	0	512	414	
14	0	0	0	0	512	413	
15	0	0	0	0	513	413	
0	0	0	0	0	511	413	
1	0	0	0	0	509	413	
2	0	0	0	0	508	413	
3	0	0	0	0	508	414	
4	0	0	0	0	509	413	
5	0	0	0	0	510	413	
6	0	0	0	0	510	413	
7	0	0	0	0	510	412	
8	0	0	0	0	510	413	
9	0	0	0	0	509	413	
10	0	0	0	0	510	413	
11	0	0	0	0	509	413	
12	0	0	0	0	507	414	
13	0	0	0	0	503	415	
14	0	0	0	0	496	415	
15	0	0	0	0	487	414	
0	0	0	0	0	476	413	
1	0	0	0	0	465	413	
2	0	0	0	0	453	412	
3	0	0	0	0	443	413	
4	0	0	0	0	436	413	
5	0	0	0	0	430	412	
6	0	0	0	0	427	412	
7	0	0	0	0	426	412	
8	0	0	0	0	428	412	
9	0	0	0	0	431	411	
10	0	0	0	0	433	410	
11	0	0	0	0	435	410	
12	0	0	0	0	437	408	
13	0	0	0	0	441	411	
14	0	0	0	0	446	410	
15	0	0	0	0	453	409	
0	0	0	0	0	458	410	
1	0	0	0	0	464	409	
2	0	0	0	0	477	410	
3	0	0	0	0	499	411	
4	0	0	0	0	523	410	
5	0	0	0	0	548	411	
6	0	0	0	0	575	410	
7	0	0	0	0	606	409	
8	0	0	0	0	641	409	
9	0	0	0	0	678	409	
10	0	0	0	0	717	409	
11	0	0	0	0	756	410	
12	0	0	0	0	798	410	
13	0	0	0	0	840	410	
14	0	0	0	0	880	409	
15	0	0	0	0	918	408	
0	0	0	0	0	954	408	
1	0	0	0	0	983	409	
2	0	0	0	0	1003	409	
3	0	0	0	0	1018	409	
4	0	0	0	0	1022	410	
5	0	0	0	0	1022	410	
6	0	0	0	0	1022	410	
7	0	0	0	0	1022	411	
8	0	0	0	0	1022	412	
9	0	0	0	0	1006	412	
10	0	0	0	0	983	412	
11	0	0	0	0	956	414	
12	0	0	0	0	928	414	
13	0	0	0	0	899	414	
14	0	0	0	0	869	414	
15	0	0	0	0	840	414	
0	0	0	0	0	810	415	
1	0	0	0	0	780	414	
2	0	0	0	0	752	415	
3	0	0	0	0	726	416	
4	0	0	0	0	699	416	
5	0	0	0	0	674	415	
6	0	0	0	0	648	416	
7	0	0	0	0	623	416	
8	0	0	0	0	598	416	
9	0	0	0	0	575	416	
10	0	0	0	0	555	416	
11	0	0	0	0	536	417	
12	0	0	0	0	516	416	
13	0	0	0	0	496	415	
14	0	0	0	0	478	415	
15	0	0	0	0	464	414	
0	0	0	0	0	455	414	
1	0	0	0	0	448	414	
2	0	0	0	0	442	413	
3	0	0	0	0	436	413	
4	0	0	0	0	431	413	
5	0	0	0	0	428	412	
6	0	0	0	0	423	412	
7	0	0	0	0	419	412	
8	0	0	0	0	413	413	
9	0	0	0	0	408	413	
10	0	0	0	0	405	413	
11	0	0	0	0	402	413	
12	0	0	0	0	400	414	
13	0	0	0	0	398	412	
14	0	0	0	0	396	412	
15	0	0	0	0	395	412	
0	0	0	0	0	393	411	
1	0	0	0	0	391	412	
2	0	0	0	0	390	411	
3	0	0	0	0	389	411	
4	0	0	0	0	388	409	
5	0	0	0	0	387	410	
6	0	0	0	0	385	409	
7	0	0	0	0	383	408	
8	0	0	0	0	382	409	
9	0	0	0	0	382	409	
10	0	0	0	0	382	409	
11	0	0	0	0	383	410	
12	0	0	0	0	385	410	
13	0	0	0	0	386	409	
14	0	0	0	0	388	410	
15	0	0	0	0	389	408	
0	0	0	0	0	391	409	
1	0	0	0	0	393	410	
2	0	0	0	0	396	410	
3	0	0	0	0	398	411	
4	0	0	0	0	398	410	
5	0	0	0	0	399	411	
6	0	0	0	0	399	411	
7	0	0	0	0	400	411	
8	0	0	0	0	400	411	
9	0	0	0	0	400	411	
10	0	0	0	0	400	411	
11	0	0	0	0	399	412	
12	0	0	0	0	401	412	
13	0	0	0	0	403	412	
14	0	0	0	0	404	412	
15	0	0	0	0	405	412	
0	0	0	0	0	406	412	
1	0	0	0	0	408	413	
2	0	0	0	0	410	413	
3	0	0	0	0	411	413	
4	0	0	0	0	412	412	
5	0	0	0	0	411	412	
6	0	0	0	0	410	412	
7	0	0	0	0	409	412	
8	0	0	0	0	409	412	
9	0	0	0	0	410	412	
10	0	0	0	0	412	412	
11	0	0	0	0	414	413	
12	0	0	0	0	415	412	
13	0	0	0	0	416	412	
14	0	0	0	0	416	412	
15	0	0	0	0	416	411	
0	0	0	0	0	417	412	
1	0	0	0	0	416	412	
2	0	0	0	0	416	411	
3	0	0	0	0	417	412	
4	0	0	0	0	418	412	
5	0	0	0	0	419	411	
6	0	0	0	0	420	412	
7	0	0	0	0	422	412	
8	0	0	0	0	423	411	
9	0	0	0	0	422	410	
10	0	0	0	0	420	410	
11	0	0	0	0	419	410	
12	0	0	0	0	420	410	
13	0	0	0	0	422	410	
14	0	0	0	0	423	410	
15	0	0	0	0	424	410	
0	0	0	0	0	425	412	
1	0	0	0	0	428	411	
2	0	0	0	0	431	409	
3	0	0	0	0	434	411	
4	0	0	0	0	435	409	
5	0	0	0	0	435	408	
6	0	0	0	0	435	410	
7	0	0	0	0	435	410	
8	0	0	0	0	435	411	
9	0	0	0	0	433	411	
10	0	0	0	0	431	412	
11	0	0	0	0	429	413	
12	0	0	0	0	432	412	
13	0	0	0	0	436	414	
14	0	0	0	0	438	414	
15	0	0	0	0	440	414	
0	0	0	0	0	442	414	
1	0	0	0	0	444	412	
2	0	0	0	0	446	412	
3	0	0	0	0	447	414	
4	0	0	0	0	448	412	
5	0	0	0	0	448	413	
6	0	0	0	0	447	413	
7	0	0	0	0	447	413	
8	0	0	0	0	446	413	
9	0	0	0	0	443	414	
10	0	0	0	0	442	414	
11	0	0	0	0	442	414	
12	0	0	0	0	442	415	
13	0	0	0	0	444	414	
14	0	0	0	0	445	415	
15	0	0	0	0	445	414	
0	0	0	0	0	445	415	
1	0	0	0	0	447	415	
2	0	0	0	0	447	414	
3	0	0	0	0	447	415	
4	0	0	0	0	446	414	
5	0	0	0	0	444	415	
6	0	0	0	0	443	414	
7	0	0	0	0	443	413	
8	0	0	0	0	443	414	
9	0	0	0	0	444	413	
10	0	0	0	0	445	413	
11	0	0	0	0	447	414	
12	0	0	0	0	449	414	
13	0	0	0	0	451	414	
14	0	0	0	0	451	414	
15	0	0	0	0	451	413	
0	0	0	0	0	450	414	
1	0	0	0	0	449	413	
2	0	0	0	0	449	414	
3	0	0	0	0	449	414	
4	0	0	0	0	449	413	
5	0	0	0	0	450	413	
6	0	0	0	0	449	413	
7	0	0	0	0	449	413	
8	0	0	0	0	449	413	
9	0	0	0	0	448	412	
10	0	0	0	0	446	412	
11	0	0	0	0	442	413	
12	0	0	0	0	439	412	
13	0	0	0	0	438	411	
14	0	0	0	0	441	412	
15	0	0	0	0	444	412	
0	0	0	0	0	446	412	
1	0	0	0	0	448	412	
2	0	0	0	0	449	411	
3	0	0	0	0	453	411	
4	0	0	0	0	455	411	
5	0	0	0	0	455	411	
6	0	0	0	0	455	411	
7	0	0	0	0	455	409	
8	0	0	0	0	454	409	
9	0	0	0	0	454	411	
10	0	0	0	0	453	409	
11	0	0	0	0	453	410	
12	0	0	0	0	453	410	
13	0	0	0	0	454	409	
14	0	0	0	0	457	409	
15	0	0	0	0	459	409	
0	0	0	0	0	462	409	
1	0	0	0	0	463	409	
2	0	0	0	0	464	410	
3	0	0	0	0	465	411	
4	0	0	0	0	466	410	
5	0	0	0	0	466	411	
6	0	0	0	0	467	411	
7	0	0	0	0	467	410	
8	0	0	0	0	469	411	
9	0	0	0	0	470	411	
10	0	0	0	0	472	412	
11	0	0	0	0	473	412	
12	0	0	0	0	475	411	
13	0	0	0	0	476	411	
14	0	0	0	0	477	411	
15	0	0	0	0	478	412	
0	0	0	0	0	478	412	
1	0	0	0	0	479	412	
2	0	0	0	0	480	412	
3	0	0	0	0	481	412	
4	0	0	0	0	483	412	
5	0	0	0	0	483	412	
6	0	0	0	0	482	412	
7	0	0	0	0	480	412	
8	0	0	0	0	479	413	
9	0	0	0	0	480	412	
10	0	0	0	0	482	411	
11	0	0	0	0	482	411	
12	0	0	0	0	480	411	
13	0	0	0	0	480	411	
14	0	0	0	0	481	411	
15	0	0	0	0	483	411	
0	0	0	0	0	487	411	
1	0	0	0	0	489	411	
2	0	0	0	0	492	411	
3	0	0	0	0	495	412	
4	0	0	0	0	499	412	
5	0	0	0	0	504	411	
6	0	0	0	0	508	412	
7	0	0	0	0	512	411	
8	0	0	0	0	516	412	
9	0	0	0	0	519	412	
10	0	0	0	0	521	412	
11	0	0	0	0	522	413	
12	0	0	0	0	521	412	
13	0	0	0	0	520	412	
14	0	0	0	0	520	412	
15	0	0	0	0	520	411	
0	0	0	0	0	522	412	
1	0	0	0	0	524	411	
2	0	0	0	0	527	411	
3	0	0	0	0	529	412	
4	0	0	0	0	531	412	
5	0	0	0	0	533	412	
6	0	0	0	0	533	413	
7	0	0	0	0	535	412	
8	0	0	0	0	536	411	
9	0	0	0	0	536	412	
10	0	0	0	0	536	413	
11	0	0	0	0	536	413	
12	0	0	0	0	538	412	
13	0	0	0	0	539	412	
14	0	0	0	0	540	411	
15	0	0	0	0	540	411	
0	0	0	0	0	539	412	
1	0	0	0	0	538	411	
2	0	0	0	0	538	411	
3	0	0	0	0	538	412	
4	0	0	0	0	537	411	
5	0	0	0	0	536	411	
6	0	0	0	0	534	411	
7	0	0	0	0	535	411	
8	0	0	0	0	536	412	
9	0	0	0	0	538	412	
10	0	0	0	0	540	412	
11	0	0	0	0	542	414	
12	0	0	0	0	543	415	
13	0	0	0	0	544	414	
14	0	0	0	0	545	413	
15	0	0	0	0	546	412	
0	0	0	0	0	547	413	
1	0	0	0	0	546	413	
2	0	0	0	0	545	413	
3	0	0	0	0	544	412	
4	0	0	0	0	544	412	
5	0	0	0	0	545	412	
6	0	0	0	0	545	412	
7	0	0	0	0	545	412	
8	0	0	0	0	545	411	
9	0	0	0	0	544	412	
10	0	0	0	0	545	412	
11	0	0	0	0	545	413	
12	0	0	0	0	545	412	
13	0	0	0	0	545	413	
14	0	0	0	0	544	412	
15	0	0	0	0	543	413	
0	0	0	0	0	542	414	
1	0	0	0	0	541	414	
2	0	0	0	0	539	414	
3	0	0	0	0	539	415	
4	0	0	0	0	539	415	
5	0	0	0	0	539	414	
6	0	0	0	0	538	414	
7	0	0	0	0	538	413	
8	0	0	0	0	537	413	
9	0	0	0	0	537	413	
10	0	0	0	0	539	413	
11	0	0	0	0	539	413	
12	0	0	0	0	538	412	
13	0	0	0	0	536	413	
14	0	0	0	0	535	413	
15	0	0	0	0	534	412	
0	0	0	0	0	533	413	
1	0	0	0	0	532	412	
2	0	0	0	0	531	412	
3	0	0	0	0	531	412	
4	0	0	0	0	531	412	
5	0	0	0	0	532	412	
6	0	0	0	0	532	412	
7	0	0	0	0	533	412	
8	0	0	0	0	534	413	
9	0	0	0	0	535	413	
10	0	0	0	0	535	413	
11	0	0	0	0	535	412	
12	0	0	0	0	535	411	
13	0	0	0	0	535	412	
14	0	0	0	0	535	411	
15	0	0	0	0	534	411	
0	0	0	0	0	534	411	
1	0	0	0	0	533	411	
2	0	0	0	0	533	412	
3	0	0	0	0	532	412	
4	0	0	0	0	533	412	
5	0	0	0	0	533	411	
6	0	0	0	0	533	412	
7	0	0	0	0	532	412	
8	0	0	0	0	530	412	
9	0	0	0	0	528	412	
10	0	0	0	0	526	412	
11	0	0	0	0	525	412	
12	0	0	0	0	524	412	
13	0	0	0	0	524	413	
14	0	0	0	0	524	413	
15	0	0	0	0	524	412	
0	0	0	0	0	525	412	
1	0	0	0	0	524	412	
2	0	0	0	0	524	412	
3	0	0	0	0	524	414	
4	0	0	0	0	525	412	
5	0	0	0	0	527	413	
6	0	0	0	0	529	412	
7	0	0	0	0	529	412	
8	0	0	0	0	528	413	
9	0	0	0	0	526	413	
10	0	0	0	0	525	414	
11	0	0	0	0	523	414	
12	0	0	0	0	521	413	
13	0	0	0	0	523	413	
14	0	0	0	0	524	413	
15	0	0	0	0	526	412	
0	0	0	0	0	527	413	
1	0	0	0	0	528	412	
2	0	0	0	0	530	413	
3	0	0	0	0	530	413	
4	0	0	0	0	528	414	
5	0	0	0	0	527	413	
6	0	0	0	0	525	414	
7	0	0	0	0	524	414	
8	0	0	0	0	523	414	
9	0	0	0	0	520	413	
10	0	0	0	0	521	414	
11	0	0	0	0	523	414	
12	0	0	0	0	524	414	
13	0	0	0	0	524	414	
14	0	0	0	0	524	412	
15	0	0	0	0	524	412	
0	0	0	0	0	525	412	
1	0	0	0	0	526	412	
2	0	0	0	0	528	413	
3	0	0	0	0	529	414	
4	0	0	0	0	528	412	
5	0	0	0	0	526	413	
6	0	0	0	0	523	411	
7	0	0	0	0	521	411	
8	0	0	0	0	522	412	
9	0	0	0	0	524	412	
10	0	0	0	0	524	410	
11	0	0	0	0	524	410	
12	0	0	0	0	524	411	
13	0	0	0	0	525	411	
14	0	0	0	0	526	411	
15	0	0	0	0	525	414	
0	0	0	0	0	523	412	
1	0	0	0	0	519	412	
2	0	0	0	0	516	413	
3	0	0	0	0	514	411	
4	0	0	0	0	511	409	
5	0	0	0	0	510	412	
6	0	0	0	0	509	411	
7	0	0	0	0	510	408	
8	0	0	0	0	512	410	
9	0	0	0	0	515	411	
10	0	0	0	0	519	409	
11	0	0	0	0	523	411	
12	0	0	0	0	526	412	
13	0	0	0	0	527	411	
14	0	0	0	0	526	412	
15	0	0	0	0	526	414	
0	0	0	0	0	525	412	
1	0	0	0	0	525	409	
2	0	0	0	0	524	410	
3	0	0	0	0	523	409	
4	0	0	0	0	522	407	
5	0	0	0	0	522	409	
6	0	0	0	0	522	410	
7	0	0	0	0	523	409	
8	0	0	0	0	523	410	
9	0	0	0	0	523	410	
10	0	0	0	0	523	410	
11	0	0	0	0	522	411	
12	0	0	0	0	521	413	
13	0	0	0	0	520	411	
14	0	0	0	0	520	411	
15	0	0	0	0	519	412	
0	0	0	0	0	519	413	
1	0	0	0	0	518	413	
2	0	0	0	0	516	414	
3	0	0	0	0	515	415	
4	0	0	0	0	514	411	
5	0	0	0	0	513	410	
6	0	0	0	0	514	411	
7	0	0	0	0	515	410	
8	0	0	0	0	516	411	
9	0	0	0	0	516	410	
10	0	0	0	0	515	411	
11	0	0	0	0	516	412	
12	0	0	0	0	518	410	
13	0	0	0	0	519	412	
14	0	0	0	0	519	412	
15	0	0	0	0	518	411	
0	0	0	0	0	518	412	
1	0	0	0	0	518	412	
2	0	0	0	0	518	412	
3	0	0	0	0	518	414	
4	0	0	0	0	517	414	
5	0	0	0	0	516	414	
6	0	0	0	0	516	413	
7	0	0	0	0	514	413	
8	0	0	0	0	513	414	
9	0	0	0	0	513	415	
10	0	0	0	0	513	414	
11	0	0	0	0	513	415	
12	0	0	0	0	515	415	
13	0	0	0	0	516	415	
14	0	0	0	0	517	415	
15	0	0	0	0	518	416	
0	0	0	0	0	519	416	
1	0	0	0	0	521	416	
2	0	0	0	0	520	417	
3	0	0	0	0	520	416	
4	0	0	0	0	520	415	
5	0	0	0	0	519	413	
6	0	0	0	0	518	415	
7	0	0	0	0	516	414	
8	0	0	0	0	515	415	
9	0	0	0	0	515	415	
10	0	0	0	0	515	413	
11	0	0	0	0	515	415	
12	0	0	0	0	515	414	
13	0	0	0	0	515	413	
14	0	0	0	0	516	414	
15	0	0	0	0	518	414	
0	0	0	0	0	520	415	
1	0	0	0	0	521	414	
2	0	0	0	0	519	415	
3	0	0	0	0	519	416	
4	0	0	0	0	520	414	
5	0	0	0	0	520	414	
6	0	0	0	0	521	414	
7	0	0	0	0	522	412	
8	0	0	0	0	521	413	
9	0	0	0	0	521	414	
10	0	0	0	0	521	414	
11	0	0	0	0	521	414	
12	0	0	0	0	522	413	
13	0	0	0	0	522	413	
14	0	0	0	0	521	413	
15	0	0	0	0	519	413	
0	0	0	0	0	517	413	
1	0	0	0	0	515	413	
2	0	0	0	0	512	412	
3	0	0	0	0	510	413	
4	0	0	0	0	509	412	
5	0	0	0	0	509	413	
6	0	0	0	0	510	413	
7	0	0	0	0	512	412	
8	0	0	0	0	513	412	
9	0	0	0	0	515	412	
10	0	0	0	0	516	412	
11	0	0	0	0	517	412	
12	0	0	0	0	518	411	
13	0	0	0	0	519	411	
14	0	0	0	0	519	411	
15	0	0	0	0	519	411	
0	0	0	0	0	519	412	
1	0	0	0	0	518	412	
2	0	0	0	0	518	412	
3	0	0	0	0	518	412	
4	0	0	0	0	517	411	
5	0	0	0	0	516	411	
6	0	0	0	0	515	411	
7	0	0	0	0	513	412	
8	0	0	0	0	513	412	
9	0	0	0	0	512	411	
10	0	0	0	0	511	411	
11	0	0	0	0	511	412	
12	0	0	0	0	511	412	
13	0	0	0	0	512	412	
14	0	0	0	0	511	411	
15	0	0	0	0	511	411	
0	0	0	0	0	511	411	
1	0	0	0	0	509	411	
2	0	0	0	0	507	411	
3	0	0	0	0	506	412	
4	0	0	0	0	507	410	
5	0	0	0	0	507	411	
6	0	0	0	0	504	411	
7	0	0	0	0	502	411	
8	0	0	0	0	501	411	
9	0	0	0	0	502	411	
10	0	0	0	0	505	411	
11	0	0	0	0	505	412	
12	0	0	0	0	505	411	
13	0	0	0	0	504	411	
14	0	0	0	0	504	411	
15	0	0	0	0	507	411	
0	0	0	0	0	508	411	
1	0	0	0	0	509	411	
2	0	0	0	0	510	411	
3	0	0	0	0	512	412	
4	0	0	0	0	512	411	
5	0	0	0	0	513	411	
6	0	0	0	0	515	411	
7	0	0	0	0	515	411	
8	0	0	0	0	516	411	
9	0	0	0	0	517	411	
10	0	0	0	0	517	411	
11	0	0	0	0	516	412	
12	0	0	0	0	516	411	
13	0	0	0	0	514	411	
14	0	0	0	0	513	411	
15	0	0	0	0	513	411	
0	0	0	0	0	514	411	
1	0	0	0	0	514	413	
2	0	0	0	0	513	412	
3	0	0	0	0	513	412	
4	0	0	0	0	512	412	
5	0	0	0	0	513	412	
6	0	0	0	0	513	412	
7	0	0	0	0	514	412	
8	0	0	0	0	515	413	
9	0	0	0	0	515	412	
10	0	0	0	0	515	412	
11	0	0	0	0	514	413	
12	0	0	0	0	514	413	
13	0	0	0	0	513	413	
14	0	0	0	0	512	413	
15	0	0	0	0	512	412	
0	0	0	0	0	512	413	
1	0	0	0	0	515	413	
2	0	0	0	0	518	413	
3	0	0	0	0	521	413	
4	0	0	0	0	523	412	
5	0	0	0	0	526	413	
6	0	0	0	0	527	412	
7	0	0	0	0	528	412	
8	0	0	0	0	527	412	
9	0	0	0	0	526	412	
10	0	0	0	0	526	412	
11	0	0	0	0	526	413	
12	0	0	0	0	526	412	
13	0	0	0	0	526	412	
14	0	0	0	0	526	412	
15	0	0	0	0	524	412	
0	0	0	0	0	522	412	
1	0	0	0	0	520	414	
2	0	0	0	0	518	413	
3	0	0	0	0	515	415	
4	0	0	0	0	514	413	
5	0	0	0	0	512	414	
6	0	0	0	0	512	414	
7	0	0	0	0	513	413	
8	0	0	0	0	513	412	
9	0	0	0	0	515	412	
10	0	0	0	0	518	412	
11	0	0	0	0	520	413	
12	0	0	0	0	521	412	
13	0	0	0	0	520	413	
14	0	0	0	0	519	413	
15	0	0	0	0	519	412	
0	0	0	0	0	518	412	
1	0	0	0	0	516	412	
2	0	0	0	0	515	412	
3	0	0	0	0	513	413	
4	0	0	0	0	511	412	
5	0	0	0	0	511	413	
6	0	0	0	0	511	412	
7	0	0	0	0	510	411	
8	0	0	0	0	511	412	
9	0	0	0	0	512	412	
10	0	0	0	0	511	412	
11	0	0	0	0	508	413	
12	0	0	0	0	507	412	
13	0	0	0	0	507	412	
14	0	0	0	0	508	413	
15	0	0	0	0	508	412	
0	0	0	0	0	510	412	
1	0	0	0	0	512	412	
2	0	0	0	0	514	413	
3	0	0	0	0	515	414	
4	0	0	0	0	516	413	
5	0	0	0	0	518	413	
6	0	0	0	0	518	413	
7	0	0	0	0	518	413	
8	0	0	0	0	517	413	
9	0	0	0	0	516	413	
10	0	0	0	0	515	414	
11	0	0	0	0	515	414	
12	0	0	0	0	514	413	
13	0	0	0	0	514	413	
14	0	0	0	0	514	413	
15	0	0	0	0	514	412	
0	0	0	0	0	513	412	
1	0	0	0	0	512	413	
2	0	0	0	0	512	414	
3	0	0	0	0	512	414	
4	0	0	0	0	512	414	
5	0	0	0	0	512	414	
6	0	0	0	0	511	413	
7	0	0	0	0	511	413	
8	0	0	0	0	510	414	
9	0	0	0	0	510	414	
10	0	0	0	0	508	414	
11	0	0	0	0	505	414	
12	0	0	0	0	501	413	
13	0	0	0	0	499	414	
14	0	0	0	0	497	414	
15	0	0	0	0	498	414	
0	0	0	0	0	500	414	
1	0	0	0	0	503	414	
2	0	0	0	0	505	414	
3	0	0	0	0	509	415	
4	0	0	0	0	512	414	
5	0	0	0	0	514	413	
6	0	0	0	0	515	414	
7	0	0	0	0	516	414	
8	0	0	0	0	515	413	
9	0	0	0	0	515	417	
10	0	0	0	0	514	419	
11	0	0	0	0	513	420	
12	0	0	0	0	512	421	
13	0	0	0	0	512	421	
14	0	0	0	0	511	420	
15	0	0	0	0	506	416	
0	0	0	0	0	501	417	
1	0	0	0	0	495	415	
2	0	0	0	0	487	413	
3	0	0	0	0	478	412	
4	0	0	0	0	467	411	
5	0	0	0	0	455	409	
6	0	0	0	0	446	409	
7	0	0	0	0	440	409	
8	0	0	0	0	435	409	
9	0	0	0	0	431	408	
10	0	0	0	0	427	409	
11	0	0	0	0	427	409	
12	0	0	0	0	428	408	
13	0	0	0	0	429	409	
14	0	0	0	0	430	409	
15	0	0	0	0	432	408	
0	0	0	0	0	435	410	
1	0	0	0	0	440	410	
2	0	0	0	0	447	411	
3	0	0	0	0	454	411	
4	0	0	0	0	463	410	
5	0	0	0	0	477	410	
6	0	0	0	0	496	411	
7	0	0	0	0	519	411	
8	0	0	0	0	545	411	
9	0	0	0	0	575	411	
10	0	0	0	0	607	411	
11	0	0	0	0	641	412	
12	0	0	0	0	675	412	
13	0	0	0	0	712	412	
14	0	0	0	0	752	412	
15	0	0	0	0	797	412	
0	0	0	0	0	842	412	
1	0	0	0	0	885	412	
2	0	0	0	0	924	411	
3	0	0	0	0	961	412	
4	0	0	0	0	993	412	
5	0	0	0	0	1018	412	
6	0	0	0	0	1022	411	
7	0	0	0	0	1022	411	
8	0	0	0	0	1022	411	
9	0	0	0	0	1022	412	
10	0	0	0	0	1022	411	
11	0	0	0	0	1022	413	
12	0	0	0	0	1022	412	
13	0	0	0	0	1000	411	
14	0	0	0	0	973	412	
15	0	0	0	0	943	412	
0	0	0	0	0	912	412	
1	0	0	0	0	881	412	
2	0	0	0	0	850	412	
3	0	0	0	0	819	412	
4	0	0	0	0	789	411	
5	0	0	0	0	760	412	
6	0	0	0	0	732	411	
7	0	0	0	0	704	411	
8	0	0	0	0	674	412	
9	0	0	0	0	644	411	
10	0	0	0	0	616	412	
11	0	0	0	0	588	413	
12	0	0	0	0	563	412	
13	0	0	0	0	540	413	
14	0	0	0	0	518	414	
15	0	0	0	0	498	413	
0	0	0	0	0	479	413	
1	0	0	0	0	463	414	
2	0	0	0	0	449	413	
3	0	0	0	0	435	415	
4	0	0	0	0	424	414	
5	0	0	0	0	415	413	
6	0	0	0	0	407	414	
7	0	0	0	0	400	414	
8	0	0	0	0	394	414	
9	0	0	0	0	388	414	
10	0	0	0	0	384	414	
11	0	0	0	0	380	414	
12	0	0	0	0	377	414	
13	0	0	0	0	376	414	
14	0	0	0	0	374	414	
15	0	0	0	0	373	413	
0	0	0	0	0	369	414	
1	0	0	0	0	363	414	
2	0	0	0	0	355	414	
3	0	0	0	0	350	414	
4	0	0	0	0	347	413	
5	0	0	0	0	349	413	
6	0	0	0	0	354	414	
7	0	0	0	0	360	414	
8	0	0	0	0	365	414	
9	0	0	0	0	368	414	
10	0	0	0	0	372	413	
11	0	0	0	0	375	415	
12	0	0	0	0	376	413	
13	0	0	0	0	376	413	
14	0	0	0	0	376	414	
15	0	0	0	0	377	414	
0	0	0	0	0	378	414	
1	0	0	0	0	378	414	
2	0	0	0	0	378	414	
3	0	0	0	0	378	414	
4	0	0	0	0	378	414	
5	0	0	0	0	377	414	
6	0	0	0	0	377	414	
7	0	0	0	0	379	414	
8	0	0	0	0	380	415	
9	0	0	0	0	382	414	
10	0	0	0	0	385	414	
11	0	0	0	0	388	415	
12	0	0	0	0	390	414	
13	0	0	0	0	393	413	
14	0	0	0	0	393	414	
15	0	0	0	0	392	414	
0	0	0	0	0	391	414	
1	0	0	0	0	389	414	
2	0	0	0	0	391	414	
3	0	0	0	0	393	414	
4	0	0	0	0	395	413	
5	0	0	0	0	397	413	
6	0	0	0	0	400	413	
7	0	0	0	0	403	413	
8	0	0	0	0	406	413	
9	0	0	0	0	407	412	
10	0	0	0	0	408	412	
11	0	0	0	0	407	413	
12	0	0	0	0	408	412	
13	0	0	0	0	409	412	
14	0	0	0	0	409	412	
15	0	0	0	0	408	412	
0	0	0	0	0	408	412	
1	0	0	0	0	408	412	
2	0	0	0	0	409	412	
3	0	0	0	0	410	413	
4	0	0	0	0	411	412	
5	0	0	0	0	413	412	
6	0	0	0	0	413	412	
7	0	0	0	0	414	411	
8	0	0	0	0	415	412	
9	0	0	0	0	418	412	
10	0	0	0	0	419	411	
11	0	0	0	0	417	412	
12	0	0	0	0	416	412	
13	0	0	0	0	416	412	
14	0	0	0	0	417	411	
15	0	0	0	0	419	411	
0	0	0	0	0	419	410	
1	0	0	0	0	419	411	
2	0	0	0	0	419	411	
3	0	0	0	0	421	410	
4	0	0	0	0	423	408	
5	0	0	0	0	424	408	
6	0	0	0	0	424	406	
7	0	0	0	0	424	408	
8	0	0	0	0	425	411	
9	0	0	0	0	428	412	
10	0	0	0	0	429	415	
11	0	0	0	0	430	417	
12	0	0	0	0	430	416	
13	0	0	0	0	431	417	
14	0	0	0	0	431	419	
15	0	0	0	0	432	417	
0	0	0	0	0	432	416	
1	0	0	0	0	432	416	
2	0	0	0	0	432	416	
3	0	0	0	0	433	416	
4	0	0	0	0	433	415	
5	0	0	0	0	432	415	
6	0	0	0	0	432	414	
7	0	0	0	0	433	413	
8	0	0	0	0	434	413	
9	0	0	0	0	434	412	
10	0	0	0	0	435	411	
11	0	0	0	0	435	412	
12	0	0	0	0	435	411	
13	0	0	0	0	435	410	
14	0	0	0	0	435	409	
15	0	0	0	0	436	410	
0	0	0	0	0	437	411	
1	0	0	0	0	438	411	
2	0	0	0	0	438	412	
3	0	0	0	0	439	414	
4	0	0	0	0	441	414	
5	0	0	0	0	442	414	
6	0	0	0	0	441	415	
7	0	0	0	0	440	414	
8	0	0	0	0	438	414	
9	0	0	0	0	439	415	
10	0	0	0	0	440	415	
11	0	0	0	0	441	415	
12	0	0	0	0	442	415	
13	0	0	0	0	444	414	
14	0	0	0	0	445	414	
15	0	0	0	0	446	414	
0	0	0	0	0	447	414	
1	0	0	0	0	446	413	
2	0	0	0	0	444	413	
3	0	0	0	0	443	414	
4	0	0	0	0	443	412	
5	0	0	0	0	443	412	
6	0	0	0	0	443	412	
7	0	0	0	0	443	412	
8	0	0	0	0	444	412	
9	0	0	0	0	444	412	
10	0	0	0	0	443	412	
11	0	0	0	0	443	412	
12	0	0	0	0	444	412	
13	0	0	0	0	445	412	
14	0	0	0	0	445	413	
15	0	0	0	0	446	412	
0	0	0	0	0	447	413	
1	0	0	0	0	447	412	
2	0	0	0	0	449	412	
3	0	0	0	0	450	414	
4	0	0	0	0	450	413	
5	0	0	0	0	450	413	
6	0	0	0	0	449	413	
7	0	0	0	0	448	413	
8	0	0	0	0	445	413	
9	0	0	0	0	444	413	
10	0	0	0	0	446	414	
11	0	0	0	0	449	414	
12	0	0	0	0	453	414	
13	0	0	0	0	455	413	
14	0	0	0	0	455	412	
15	0	0	0	0	458	412	
0	0	0	0	0	461	412	
1	0	0	0	0	463	412	
2	0	0	0	0	463	412	
3	0	0	0	0	464	413	
4	0	0	0	0	464	412	
5	0	0	0	0	465	412	
6	0	0	0	0	465	412	
7	0	0	0	0	466	411	
8	0	0	0	0	466	410	
9	0	0	0	0	467	410	
10	0	0	0	0	468	410	
11	0	0	0	0	470	410	
12	0	0	0	0	471	410	
13	0	0	0	0	472	409	
14	0	0	0	0	473	411	
15	0	0	0	0	474	410	
0	0	0	0	0	475	411	
1	0	0	0	0	476	411	
2	0	0	0	0	477	412	
3	0	0	0	0	476	415	
4	0	0	0	0	476	414	
5	0	0	0	0	475	414	
6	0	0	0	0	475	416	
7	0	0	0	0	475	416	
8	0	0	0	0	478	416	
9	0	0	0	0	482	415	
10	0	0	0	0	485	416	
11	0	0	0	0	488	415	
12	0	0	0	0	490	414	
13	0	0	0	0	492	415	
14	0	0	0	0	494	414	
15	0	0	0	0	495	412	
0	0	0	0	0	496	414	
1	0	0	0	0	496	413	
2	0	0	0	0	496	413	
3	0	0	0	0	496	413	
4	0	0	0	0	498	412	
5	0	0	0	0	500	412	
6	0	0	0	0	502	411	
7	0	0	0	0	504	412	
8	0	0	0	0	507	412	
9	0	0	0	0	509	412	
10	0	0	0	0	510	412	
11	0	0	0	0	512	412	
12	0	0	0	0	513	412	
13	0	0	0	0	513	412	
14	0	0	0	0	515	412	
15	0	0	0	0	517	412	
0	0	0	0	0	518	413	
1	0	0	0	0	519	413	
2	0	0	0	0	520	413	
3	0	0	0	0	522	414	
4	0	0	0	0	524	414	
5	0	0	0	0	524	413	
6	0	0	0	0	524	413	
7	0	0	0	0	523	412	
8	0	0	0	0	523	413	
9	0	0	0	0	524	413	
10	0	0	0	0	525	413	
11	0	0	0	0	526	413	
12	0	0	0	0	527	413	
13	0	0	0	0	528	413	
14	0	0	0	0	530	412	
15	0	0	0	0	532	413	
0	0	0	0	0	533	413	
1	0	0	0	0	534	412	
2	0	0	0	0	534	411	
3	0	0	0	0	535	412	
4	0	0	0	0	536	411	
5	0	0	0	0	537	411	
6	0	0	0	0	541	412	
7	0	0	0	0	545	411	
8	0	0	0	0	547	411	
9	0	0	0	0	548	411	
10	0	0	0	0	550	412	
11	0	0	0	0	551	413	
12	0	0	0	0	551	412	
13	0	0	0	0	551	412	
14	0	0	0	0	551	413	
15	0	0	0	0	551	412	
0	0	0	0	0	549	413	
1	0	0	0	0	547	413	
2	0	0	0	0	544	413	
3	0	0	0	0	543	413	
4	0	0	0	0	545	413	
5	0	0	0	0	546	414	
6	0	0	0	0	546	412	
7	0	0	0	0	545	413	
8	0	0	0	0	546	414	
9	0	0	0	0	549	414	
10	0	0	0	0	550	414	
11	0	0	0	0	550	415	
12	0	0	0	0	550	414	
13	0	0	0	0	549	414	
14	0	0	0	0	549	414	
15	0	0	0	0	549	414	
0	0	0	0	0	548	414	
1	0	0	0	0	548	414	
2	0	0	0	0	547	415	
3	0	0	0	0	546	416	
4	0	0	0	0	544	415	
5	0	0	0	0	543	415	
6	0	0	0	0	542	415	
7	0	0	0	0	541	415	
8	0	0	0	0	540	415	
9	0	0	0	0	539	415	
10	0	0	0	0	539	415	
11	0	0	0	0	538	415	
12	0	0	0	0	538	414	
13	0	0	0	0	538	414	
14	0	0	0	0	540	414	
15	0	0	0	0	540	414	
0	0	0	0	0	541	414	
1	0	0	0	0	541	413	
2	0	0	0	0	540	413	
3	0	0	0	0	540	414	
4	0	0	0	0	540	414	
5	0	0	0	0	540	414	
6	0	0	0	0	540	414	
7	0	0	0	0	539	413	
8	0	0	0	0	539	414	
9	0	0	0	0	537	414	
10	0	0	0	0	536	414	
11	0	0	0	0	534	413	
12	0	0	0	0	531	413	
13	0	0	0	0	530	413	
14	0	0	0	0	530	413	
15	0	0	0	0	530	412	
0	0	0	0	0	530	413	
1	0	0	0	0	532	413	
2	0	0	0	0	535	413	
3	0	0	0	0	536	413	
4	0	0	0	0	536	413	
5	0	0	0	0	536	413	
6	0	0	0	0	536	412	
7	0	0	0	0	535	412	
8	0	0	0	0	534	413	
9	0	0	0	0	533	414	
10	0	0	0	0	532	413	
11	0	0	0	0	533	414	
12	0	0	0	0	534	413	
13	0	0	0	0	534	413	
14	0	0	0	0	535	414	
15	0	0	0	0	534	412	
0	0	0	0	0	532	412	
1	0	0	0	0	531	412	
2	0	0	0	0	530	412	
3	0	0	0	0	531	413	
4	0	0	0	0	531	412	
5	0	0	0	0	531	411	
6	0	0	0	0	529	411	
7	0	0	0	0	528	411	
8	0	0	0	0	529	411	
9	0	0	0	0	529	412	
10	0	0	0	0	530	412	
11	0	0	0	0	531	413	
12	0	0	0	0	533	412	
13	0	0	0	0	533	412	
14	0	0	0	0	534	413	
15	0	0	0	0	535	413	
0	0	0	0	0	533	412	
1	0	0	0	0	531	413	
2	0	0	0	0	530	413	
3	0	0	0	0	529	413	
4	0	0	0	0	531	413	
5	0	0	0	0	531	413	
6	0	0	0	0	530	412	
7	0	0	0	0	529	412	
8	0	0	0	0	528	413	
9	0	0	0	0	527	412	
10	0	0	0	0	527	412	
11	0	0	0	0	527	412	
12	0	0	0	0	526	412	
13	0	0	0	0	526	413	
14	0	0	0	0	527	412	
15	0	0	0	0	528	413	
0	0	0	0	0	527	412	
1	0	0	0	0	527	413	
2	0	0	0	0	527	412	
3	0	0	0	0	527	412	
4	0	0	0	0	527	412	
5	0	0	0	0	527	414	
6	0	0	0	0	526	412	
7	0	0	0	0	525	413	
8	0	0	0	0	524	413	
9	0	0	0	0	521	414	
10	0	0	0	0	520	413	
11	0	0	0	0	519	414	
12	0	0	0	0	519	414	
13	0	0	0	0	518	413	
14	0	0	0	0	517	414	
15	0	0	0	0	516	414	
0	0	0	0	0	515	413	
1	0	0	0	0	515	413	
2	0	0	0	0	516	413	
3	0	0	0	0	517	413	
4	0	0	0	0	518	412	
5	0	0	0	0	519	413	
6	0	0	0	0	521	412	
7	0	0	0	0	520	411	
8	0	0	0	0	518	410	
9	0	0	0	0	516	410	
10	0	0	0	0	517	411	
11	0	0	0	0	520	411	
12	0	0	0	0	523	411	
13	0	0	0	0	524	411	
14	0	0	0	0	526	412	
15	0	0	0	0	527	412	
0	0	0	0	0	528	413	
1	0	0	0	0	528	414	
2	0	0	0	0	527	416	
3	0	0	0	0	526	417	
4	0	0	0	0	526	417	
5	0	0	0	0	526	417	
6	0	0	0	0	525	417	
7	0	0	0	0	524	417	
8	0	0	0	0	523	417	
9	0	0	0	0	521	416	
10	0	0	0	0	520	416	
11	0	0	0	0	520	416	
12	0	0	0	0	519	414	
13	0	0	0	0	518	414	
14	0	0	0	0	519	414	
15	0	0	0	0	519	413	
0	0	0	0	0	519	413	
1	0	0	0	0	520	413	
2	0	0	0	0	521	412	
3	0	0	0	0	523	414	
4	0	0	0	0	522	412	
5	0	0	0	0	522	413	
6	0	0	0	0	521	413	
7	0	0	0	0	521	413	
8	0	0	0	0	520	414	
9	0	0	0	0	520	414	
10	0	0	0	0	520	414	
11	0	0	0	0	521	414	
12	0	0	0	0	521	413	
13	0	0	0	0	521	414	
14	0	0	0	0	521	414	
15	0	0	0	0	520	414	
0	0	0	0	0	521	413	
1	0	0	0	0	521	414	
2	0	0	0	0	521	413	
3	0	0	0	0	521	414	
4	0	0	0	0	521	413	
5	0	0	0	0	520	414	
6	0	0	0	0	520	413	
7	0	0	0	0	519	413	
8	0	0	0	0	519	414	
9	0	0	0	0	519	413	
10	0	0	0	0	519	414	
11	0	0	0	0	518	414	
12	0	0	0	0	519	414	
13	0	0	0	0	519	414	
14	0	0	0	0	519	414	
15	0	0	0	0	520	413	
0	0	0	0	0	520	414	
1	0	0	0	0	519	415	
2	0	0	0	0	519	414	
3	0	0	0	0	519	415	
4	0	0	0	0	519	414	
5	0	0	0	0	519	414	
6	0	0	0	0	520	414	
7	0	0	0	0	520	414	
8	0	0	0	0	520	414	
9	0	0	0	0	520	414	
10	0	0	0	0	519	414	
11	0	0	0	0	519	414	
12	0	0	0	0	519	413	
13	0	0	0	0	519	413	
14	0	0	0	0	519	413	
15	0	0	0	0	519	412	
0	0	0	0	0	519	412	
1	0	0	0	0	517	413	
2	0	0	0	0	517	412	
3	0	0	0	0	518	413	
4	0	0	0	0	519	412	
5	0	0	0	0	519	413	
6	0	0	0	0	520	412	
7	0	0	0	0	521	412	
8	0	0	0	0	524	412	
9	0	0	0	0	523	413	
10	0	0	0	0	522	412	
11	0	0	0	0	521	413	
12	0	0	0	0	520	412	
13	0	0	0	0	521	412	
14	0	0	0	0	521	412	
15	0	0	0	0	522	411	
0	0	0	0	0	523	412	
1	0	0	0	0	524	412	
2	0	0	0	0	527	412	
3	0	0	0	0	527	413	
4	0	0	0	0	526	413	
5	0	0	0	0	526	412	
6	0	0	0	0	525	412	
7	0	0	0	0	524	413	
8	0	0	0	0	524	414	
9	0	0	0	0	524	413	
10	0	0	0	0	523	413	
11	0	0	0	0	523	413	
12	0	0	0	0	522	412	
13	0	0	0	0	520	412	
14	0	0	0	0	521	412	
15	0	0	0	0	521	412	
0	0	0	0	0	521	412	
1	0	0	0	0	520	412	
2	0	0	0	0	519	411	
3	0	0	0	0	519	412	
4	0	0	0	0	519	411	
5	0	0	0	0	517	412	
6	0	0	0	0	516	411	
7	0	0	0	0	518	411	
8	0	0	0	0	519	411	
9	0	0	0	0	519	412	
10	0	0	0	0	519	412	
11	0	0	0	0	519	412	
12	0	0	0	0	520	412	
13	0	0	0	0	520	411	
14	0	0	0	0	519	412	
15	0	0	0	0	519	411	
0	0	0	0	0	518	412	
1	0	0	0	0	518	412	
2	0	0	0	0	518	413	
3	0	0	0	0	517	413	
4	0	0	0	0	517	412	
5	0	0	0	0	516	412	
6	0	0	0	0	515	412	
7	0	0	0	0	515	412	
8	0	0	0	0	514	412	
9	0	0	0	0	514	412	
10	0	0	0	0	514	412	
11	0	0	0	0	514	414	
12	0	0	0	0	513	412	
13	0	0	0	0	512	412	
14	0	0	0	0	511	412	
15	0	0	0	0	509	412	
0	0	0	0	0	506	412	
1	0	0	0	0	504	412	
2	0	0	0	0	504	412	
3	0	0	0	0	502	413	
4	0	0	0	0	498	412	
5	0	0	0	0	495	413	
6	0	0	0	0	496	413	
7	0	0	0	0	499	414	
8	0	0	0	0	504	415	
9	0	0	0	0	508	415	
10	0	0	0	0	510	416	
11	0	0	0	0	512	416	
12	0	0	0	0	515	416	
13	0	0	0	0	518	415	
14	0	0	0	0	518	416	
15	0	0	0	0	517	415	
0	0	0	0	0	516	415	
1	0	0	0	0	515	415	
2	0	0	0	0	514	415	
3	0	0	0	0	513	415	
4	0	0	0	0	513	415	
5	0	0	0	0	513	414	
6	0	0	0	0	513	414	
7	0	0	0	0	513	414	
8	0	0	0	0	512	414	
9	0	0	0	0	512	414	
10	0	0	0	0	512	413	
11	0	0	0	0	513	415	
12	0	0	0	0	514	414	
13	0	0	0	0	515	414	
14	0	0	0	0	516	414	
15	0	0	0	0	517	414	
0	0	0	0	0	517	414	
1	0	0	0	0	517	414	
2	0	0	0	0	518	415	
3	0	0	0	0	518	415	
4	0	0	0	0	518	415	
5	0	0	0	0	519	415	
6	0	0	0	0	519	415	
7	0	0	0	0	519	414	
8	0	0	0	0	519	414	
9	0	0	0	0	520	414	
10	0	0	0	0	519	412	
11	0	0	0	0	519	413	
12	0	0	0	0	518	412	
13	0	0	0	0	515	413	
14	0	0	0	0	514	412	
15	0	0	0	0	513	412	
0	0	0	0	0	513	413	
1	0	0	0	0	514	413	
2	0	0	0	0	516	413	
3	0	0	0	0	518	414	
4	0	0	0	0	519	413	
5	0	0	0	0	521	413	
6	0	0	0	0	523	413	
7	0	0	0	0	523	412	
8	0	0	0	0	524	414	
9	0	0	0	0	524	413	
10	0	0	0	0	524	413	
11	0	0	0	0	525	414	
12	0	0	0	0	525	413	
13	0	0	0	0	525	413	
14	0	0	0	0	524	414	
15	0	0	0	0	523	414	
0	0	0	0	0	524	415	
1	0	0	0	0	525	415	
2	0	0	0	0	524	414	
3	0	0	0	0	523	414	
4	0	0	0	0	523	413	
5	0	0	0	0	522	414	
6	0	0	0	0	521	414	
7	0	0	0	0	519	413	
8	0	0	0	0	517	412	
9	0	0	0	0	515	411	
10	0	0	0	0	513	411	
11	0	0	0	0	513	412	
12	0	0	0	0	513	411	
13	0	0	0	0	513	412	
14	0	0	0	0	513	412	
15	0	0	0	0	513	411	
0	0	0	0	0	513	412	
1	0	0	0	0	513	411	
2	0	0	0	0	513	412	
3	0	0	0	0	513	412	
4	0	0	0	0	512	413	
5	0	0	0	0	511	413	
6	0	0	0	0	512	413	
7	0	0	0	0	512	411	
8	0	0	0	0	511	412	
9	0	0	0	0	510	412	
10	0	0	0	0	507	412	
11	0	0	0	0	508	413	
12	0	0	0	0	507	412	
13	0	0	0	0	507	412	
14	0	0	0	0	508	412	
15	0	0	0	0	509	413	
0	0	0	0	0	510	414	
1	0	0	0	0	510	414	
2	0	0	0	0	511	414	
3	0	0	0	0	514	416	
4	0	0	0	0	516	415	
5	0	0	0	0	516	416	
6	0	0	0	0	515	416	
7	0	0	0	0	515	415	
8	0	0	0	0	516	416	
9	0	0	0	0	517	416	
10	0	0	0	0	516	416	
11	0	0	0	0	514	416	
12	0	0	0	0	513	416	
13	0	0	0	0	512	415	
14	0	0	0	0	513	415	
15	0	0	0	0	513	415	
0	0	0	0	0	512	415	
1	0	0	0	0	511	414	
2	0	0	0	0	512	414	
3	0	0	0	0	512	415	
4	0	0	0	0	512	414	
5	0	0	0	0	512	414	
6	0	0	0	0	512	413	
7	0	0	0	0	512	412	
8	0	0	0	0	512	413	
9	0	0	0	0	513	412	
10	0	0	0	0	513	412	
11	0	0	0	0	513	413	
12	0	0	0	0	512	412	
13	0	0	0	0	512	412	
14	0	0	0	0	512	412	
15	0	0	0	0	511	412	
0	0	0	0	0	511	412	
1	0	0	0	0	511	412	
2	0	0	0	0	511	412	
3	0	0	0	0	511	412	
4	0	0	0	0	511	412	
5	0	0	0	0	510	412	
6	0	0	0	0	509	412	
7	0	0	0	0	508	412	
8	0	0	0	0	508	412	
9	0	0	0	0	508	412	
10	0	0	0	0	508	412	
11	0	0	0	0	508	413	
12	0	0	0	0	508	412	
13	0	0	0	0	509	412	
14	0	0	0	0	508	413	
15	0	0	0	0	506	412	
0	0	0	0	0	504	412	
1	0	0	0	0	503	412	
2	0	0	0	0	502	413	
3	0	0	0	0	501	413	
4	0	0	0	0	501	412	
5	0	0	0	0	502	412	
6	0	0	0	0	502	412	
7	0	0	0	0	501	413	
8	0	0	0	0	499	413	
9	0	0	0	0	494	414	
10	0	0	0	0	486	414	
11	0	0	0	0	476	414	
12	0	0	0	0	465	413	
13	0	0	0	0	455	415	
14	0	0	0	0	446	414	
15	0	0	0	0	440	414	
0	0	0	0	0	435	415	
1	0	0	0	0	434	415	
2	0	0	0	0	433	415	
3	0	0	0	0	435	416	
4	0	0	0	0	435	416	
5	0	0	0	0	435	415	
6	0	0	0	0	437	416	
7	0	0	0	0	439	416	
8	0	0	0	0	444	416	
9	0	0	0	0	450	416	
10	0	0	0	0	457	415	
11	0	0	0	0	466	417	
12	0	0	0	0	478	416	
13	0	0	0	0	494	416	
14	0	0	0	0	516	416	
15	0	0	0	0	539	416	
0	0	0	0	0	565	417	
1	0	0	0	0	594	416	
2	0	0	0	0	625	415	
3	0	0	0	0	659	415	
4	0	0	0	0	697	415	
5	0	0	0	0	740	414	
6	0	0	0	0	784	414	
7	0	0	0	0	829	413	
8	0	0	0	0	872	413	
9	0	0	0	0	912	413	
10	0	0	0	0	949	414	
11	0	0	0	0	980	414	
12	0	0	0	0	1003	413	
13	0	0	0	0	1020	413	
14	0	0	0	0	1022	413	
15	0	0	0	0	1022	413	
0	0	0	0	0	1022	412	
1	0	0	0	0	1022	411	
2	0	0	0	0	1022	411	
3	0	0	0	0	1005	412	
4	0	0	0	0	982	411	
5	0	0	0	0	957	411	
6	0	0	0	0	930	410	
7	0	0	0	0	900	410	
8	0	0	0	0	871	411	
9	0	0	0	0	842	410	
10	0	0	0	0	811	410	
11	0	0	0	0	781	411	
12	0	0	0	0	751	411	
13	0	0	0	0	722	411	
14	0	0	0	0	694	412	
15	0	0	0	0	667	412	
0	0	0	0	0	640	412	
1	0	0	0	0	612	413	
2	0	0	0	0	585	413	
3	0	0	0	0	561	414	
4	0	0	0	0	539	414	
5	0	0	0	0	517	415	
6	0	0	0	0	497	414	
7	0	0	0	0	478	413	
8	0	0	0	0	461	413	
9	0	0	0	0	447	413	
10	0	0	0	0	435	413	
11	0	0	0	0	424	413	
12	0	0	0	0	416	413	
13	0	0	0	0	409	412	
14	0	0	0	0	404	412	
15	0	0	0	0	399	412	
0	0	0	0	0	395	414	
1	0	0	0	0	391	413	
2	0	0	0	0	389	414	
3	0	0	0	0	386	414	
4	0	0	0	0	383	414	
5	0	0	0	0	380	414	
6	0	0	0	0	376	414	
7	0	0	0	0	374	414	
8	0	0	0	0	372	415	
9	0	0	0	0	371	415	
10	0	0	0	0	371	415	
11	0	0	0	0	371	416	
12	0	0	0	0	371	416	
13	0	0	0	0	371	416	
14	0	0	0	0	371	416	
15	0	0	0	0	370	415	
0	0	0	0	0	368	416	
1	0	0	0	0	368	416	
2	0	0	0	0	370	416	
3	0	0	0	0	373	417	
4	0	0	0	0	374	416	
5	0	0	0	0	376	417	
6	0	0	0	0	377	416	
7	0	0	0	0	380	414	
8	0	0	0	0	381	416	
9	0	0	0	0	382	417	
10	0	0	0	0	382	418	
11	0	0	0	0	382	417	
12	0	0	0	0	383	417	
13	0	0	0	0	384	417	
14	0	0	0	0	385	415	
15	0	0	0	0	385	414	
0	0	0	0	0	385	414	
1	0	0	0	0	387	414	
2	0	0	0	0	389	413	
3	0	0	0	0	391	412	
4	0	0	0	0	391	411	
5	0	0	0	0	392	411	
6	0	0	0	0	393	412	
7	0	0	0	0	394	412	
8	0	0	0	0	395	410	
9	0	0	0	0	396	410	
10	0	0	0	0	397	411	
11	0	0	0	0	398	412	
12	0	0	0	0	399	412	
13	0	0	0	0	400	412	
14	0	0	0	0	402	412	
15	0	0	0	0	403	412	
0	0	0	0	0	404	413	
1	0	0	0	0	405	413	
2	0	0	0	0	406	413	
3	0	0	0	0	406	414	
4	0	0	0	0	406	414	
5	0	0	0	0	407	414	
6	0	0	0	0	408	414	
7	0	0	0	0	410	414	
8	0	0	0	0	411	414	
9	0	0	0	0	412	414	
10	0	0	0	0	412	415	
11	0	0	0	0	413	416	
12	0	0	0	0	413	415	
13	0	0	0	0	412	415	
14	0	0	0	0	412	414	
15	0	0	0	0	414	414	
0	0	0	0	0	414	414	
1	0	0	0	0	412	413	
2	0	0	0	0	409	413	
3	0	0	0	0	408	414	
4	0	0	0	0	408	413	
5	0	0	0	0	410	412	
6	0	0	0	0	412	413	
7	0	0	0	0	415	412	
8	0	0	0	0	419	413	
9	0	0	0	0	423	413	
10	0	0	0	0	427	413	
11	0	0	0	0	430	414	
12	0	0	0	0	432	414	
13	0	0	0	0	433	414	
14	0	0	0	0	434	414	
15	0	0	0	0	434	413	
0	0	0	0	0	433	415	
1	0	0	0	0	433	415	
2	0	0	0	0	433	415	
3	0	0	0	0	433	415	
4	0	0	0	0	433	415	
5	0	0	0	0	432	415	
6	0	0	0	0	431	415	
7	0	0	0	0	431	415	
8	0	0	0	0	432	415	
9	0	0	0	0	432	415	
10	0	0	0	0	433	415	
11	0	0	0	0	433	415	
12	0	0	0	0	433	414	
13	0	0	0	0	435	414	
14	0	0	0	0	439	414	
15	0	0	0	0	442	414	
0	0	0	0	0	443	414	
1	0	0	0	0	444	414	
2	0	0	0	0	444	414	
3	0	0	0	0	443	415	
4	0	0	0	0	443	414	
5	0	0	0	0	443	415	
6	0	0	0	0	445	414	
7	0	0	0	0	445	414	
8	0	0	0	0	445	414	
9	0	0	0	0	444	414	
10	0	0	0	0	443	414	
11	0	0	0	0	444	415	
12	0	0	0	0	445	414	
13	0	0	0	0	446	415	
14	0	0	0	0	447	414	
15	0	0	0	0	448	414	
0	0	0	0	0	448	415	
1	0	0	0	0	448	415	
2	0	0	0	0	448	415	
3	0	0	0	0	449	416	
4	0	0	0	0	449	415	
5	0	0	0	0	449	415	
6	0	0	0	0	450	416	
7	0	0	0	0	451	415	
8	0	0	0	0	453	415	
9	0	0	0	0	454	415	
10	0	0	0	0	454	415	
11	0	0	0	0	454	415	
12	0	0	0	0	454	415	
13	0	0	0	0	453	414	
14	0	0	0	0	452	414	
15	0	0	0	0	451	414	
0	0	0	0	0	451	415	
1	0	0	0	0	453	414	
2	0	0	0	0	453	415	
3	0	0	0	0	453	416	
4	0	0	0	0	454	415	
5	0	0	0	0	454	415	
6	0	0	0	0	454	415	
7	0	0	0	0	453	415	
8	0	0	0	0	452	415	
9	0	0	0	0	454	415	
10	0	0	0	0	455	415	
11	0	0	0	0	453	415	
12	0	0	0	0	451	414	
13	0	0	0	0	448	414	
14	0	0	0	0	447	414	
15	0	0	0	0	446	412	
0	0	0	0	0	448	413	
1	0	0	0	0	448	412	
2	0	0	0	0	450	412	
3	0	0	0	0	455	413	
4	0	0	0	0	462	412	
5	0	0	0	0	466	411	
6	0	0	0	0	468	411	
7	0	0	0	0	469	411	
8	0	0	0	0	471	411	
9	0	0	0	0	472	411	
10	0	0	0	0	472	411	
11	0	0	0	0	472	411	
12	0	0	0	0	472	410	
13	0	0	0	0	472	411	
14	0	0	0	0	473	411	
15	0	0	0	0	475	410	
0	0	0	0	0	475	411	
1	0	0	0	0	476	411	
2	0	0	0	0	475	411	
3	0	0	0	0	473	412	
4	0	0	0	0	471	412	
5	0	0	0	0	471	412	
6	0	0	0	0	474	411	
7	0	0	0	0	476	412	
8	0	0	0	0	479	412	
9	0	0	0	0	481	412	
10	0	0	0	0	484	412	
11	0	0	0	0	487	413	
12	0	0	0	0	490	412	
13	0	0	0	0	491	412	
14	0	0	0	0	492	412	
15	0	0	0	0	493	412	
0	0	0	0	0	494	412	
1	0	0	0	0	495	412	
2	0	0	0	0	496	412	
3	0	0	0	0	497	413	
4	0	0	0	0	498	412	
5	0	0	0	0	499	412	
6	0	0	0	0	500	412	
7	0	0	0	0	501	412	
8	0	0	0	0	502	412	
9	0	0	0	0	503	412	
10	0	0	0	0	504	412	
11	0	0	0	0	506	414	
12	0	0	0	0	507	413	
13	0	0	0	0	508	413	
14	0	0	0	0	509	413	
15	0	0	0	0	510	412	
0	0	0	0	0	511	414	
1	0	0	0	0	509	414	
2	0	0	0	0	508	413	
3	0	0	0	0	509	414	
4	0	0	0	0	512	413	
5	0	0	0	0	515	413	
6	0	0	0	0	516	413	
7	0	0	0	0	516	413	
8	0	0	0	0	518	413	
9	0	0	0	0	520	413	
10	0	0	0	0	523	414	
11	0	0	0	0	524	414	
12	0	0	0	0	524	414	
13	0	0	0	0	523	415	
14	0	0	0	0	523	415	
15	0	0	0	0	525	414	
0	0	0	0	0	527	414	
1	0	0	0	0	529	414	
2	0	0	0	0	531	415	
3	0	0	0	0	533	416	
4	0	0	0	0	535	415	
5	0	0	0	0	535	414	
6	0	0	0	0	536	415	
7	0	0	0	0	537	415	
8	0	0	0	0	537	415	
9	0	0	0	0	537	414	
10	0	0	0	0	539	414	
11	0	0	0	0	540	415	
12	0	0	0	0	541	414	
13	0	0	0	0	542	414	
14	0	0	0	0	543	413	
15	0	0	0	0	543	413	
0	0	0	0	0	543	414	
1	0	0	0	0	543	414	
2	0	0	0	0	543	413	
3	0	0	0	0	545	414	
4	0	0	0	0	545	414	
5	0	0	0	0	544	413	
6	0	0	0	0	542	412	
7	0	0	0	0	542	412	
8	0	0	0	0	542	413	
9	0	0	0	0	542	413	
10	0	0	0	0	542	413	
11	0	0	0	0	541	414	
12	0	0	0	0	541	413	
13	0	0	0	0	540	414	
14	0	0	0	0	540	414	
15	0	0	0	0	539	413	
0	0	0	0	0	538	414	
1	0	0	0	0	538	414	
2	0	0	0	0	537	414	
3	0	0	0	0	535	414	
4	0	0	0	0	534	414	
5	0	0	0	0	534	414	
6	0	0	0	0	534	415	
7	0	0	0	0	533	415	
8	0	0	0	0	533	415	
9	0	0	0	0	533	415	
10	0	0	0	0	533	415	
11	0	0	0	0	533	415	
12	0	0	0	0	532	415	
13	0	0	0	0	532	415	
14	0	0	0	0	532	415	
15	0	0	0	0	531	415	
0	0	0	0	0	530	415	
1	0	0	0	0	530	415	
2	0	0	0	0	530	415	
3	0	0	0	0	532	416	
4	0	0	0	0	533	415	
5	0	0	0	0	533	415	
6	0	0	0	0	534	416	
7	0	0	0	0	532	415	
8	0	0	0	0	531	416	
9	0	0	0	0	530	415	
10	0	0	0	0	528	415	
11	0	0	0	0	528	415	
12	0	0	0	0	528	414	
13	0	0	0	0	529	415	
14	0	0	0	0	530	415	
15	0	0	0	0	529	415	
0	0	0	0	0	530	415	
1	0	0	0	0	531	415	
2	0	0	0	0	531	415	
3	0	0	0	0	530	416	
4	0	0	0	0	530	414	
5	0	0	0	0	531	414	
6	0	0	0	0	529	413	
7	0	0	0	0	529	413	
8	0	0	0	0	527	413	
9	0	0	0	0	526	413	
10	0	0	0	0	526	413	
11	0	0	0	0	524	413	
12	0	0	0	0	521	412	
13	0	0	0	0	518	411	
14	0	0	0	0	516	411	
15	0	0	0	0	518	412	
0	0	0	0	0	519	412	
1	0	0	0	0	520	411	
2	0	0	0	0	521	411	
3	0	0	0	0	523	412	
4	0	0	0	0	525	412	
5	0	0	0	0	527	411	
6	0	0	0	0	530	411	
7	0	0	0	0	533	410	
8	0	0	0	0	536	410	
9	0	0	0	0	536	411	
10	0	0	0	0	536	410	
11	0	0	0	0	537	411	
12	0	0	0	0	536	411	
13	0	0	0	0	536	411	
14	0	0	0	0	534	410	
15	0	0	0	0	533	410	
0	0	0	0	0	533	411	
1	0	0	0	0	533	411	
2	0	0	0	0	532	411	
3	0	0	0	0	531	412	
4	0	0	0	0	529	412	
5	0	0	0	0	528	412	
6	0	0	0	0	527	411	
7	0	0	0	0	528	412	
8	0	0	0	0	528	413	
9	0	0	0	0	528	413	
10	0	0	0	0	527	413	
11	0	0	0	0	527	414	
12	0	0	0	0	527	414	
13	0	0	0	0	526	413	
14	0	0	0	0	525	413	
15	0	0	0	0	525	414	
0	0	0	0	0	524	414	
1	0	0	0	0	524	413	
2	0	0	0	0	524	413	
3	0	0	0	0	524	414	
4	0	0	0	0	523	414	
5	0	0	0	0	521	415	
6	0	0	0	0	521	414	
7	0	0	0	0	522	413	
8	0	0	0	0	522	414	
9	0	0	0	0	521	415	
10	0	0	0	0	521	415	
11	0	0	0	0	521	416	
12	0	0	0	0	521	415	
13	0	0	0	0	521	415	
14	0	0	0	0	522	415	
15	0	0	0	0	521	413	
0	0	0	0	0	519	413	
1	0	0	0	0	518	414	
2	0	0	0	0	518	414	
3	0	0	0	0	518	414	
4	0	0	0	0	518	415	
5	0	0	0	0	518	415	
6	0	0	0	0	519	415	
7	0	0	0	0	520	414	
8	0	0	0	0	520	415	
9	0	0	0	0	520	415	
10	0	0	0	0	520	414	
11	0	0	0	0	521	415	
12	0	0	0	0	519	413	
13	0	0	0	0	517	414	
14	0	0	0	0	515	415	
15	0	0	0	0	513	414	
0	0	0	0	0	514	414	
1	0	0	0	0	514	415	
2	0	0	0	0	513	415	
3	0	0	0	0	514	413	
4	0	0	0	0	514	411	
5	0	0	0	0	513	407	
6	0	0	0	0	513	405	
7	0	0	0	0	513	404	
8	0	0	0	0	513	404	
9	0	0	0	0	514	405	
10	0	0	0	0	517	402	
11	0	0	0	0	518	404	
12	0	0	0	0	518	408	
13	0	0	0	0	518	410	
14	0	0	0	0	518	410	
15	0	0	0	0	518	413	
0	0	0	0	0	517	417	
1	0	0	0	0	519	419	
2	0	0	0	0	519	420	
3	0	0	0	0	520	421	
4	0	0	0	0	519	423	
5	0	0	0	0	519	423	
6	0	0	0	0	517	421	
7	0	0	0	0	515	419	
8	0	0	0	0	513	418	
9	0	0	0	0	513	416	
10	0	0	0	0	512	415	
11	0	0	0	0	513	414	
12	0	0	0	0	514	412	
13	0	0	0	0	515	412	
14	0	0	0	0	516	412	
15	0	0	0	0	518	412	
0	0	0	0	0	519	412	
1	0	0	0	0	518	412	
2	0	0	0	0	519	413	
3	0	0	0	0	518	413	
4	0	0	0	0	517	412	
5	0	0	0	0	516	412	
6	0	0	0	0	515	412	
7	0	0	0	0	515	412	
8	0	0	0	0	515	413	
9	0	0	0	0	514	413	
10	0	0	0	0	515	414	
11	0	0	0	0	516	415	
12	0	0	0	0	517	414	
13	0	0	0	0	518	414	
14	0	0	0	0	519	415	
15	0	0	0	0	521	415	
0	0	0	0	0	522	415	
1	0	0	0	0	522	415	
2	0	0	0	0	521	415	
3	0	0	0	0	521	416	
4	0	0	0	0	522	415	
5	0	0	0	0	522	415	
6	0	0	0	0	522	415	
7	0	0	0	0	522	415	
8	0	0	0	0	522	415	
9	0	0	0	0	522	416	
10	0	0	0	0	523	415	
11	0	0	0	0	523	416	
12	0	0	0	0	523	415	
13	0	0	0	0	523	415	
14	0	0	0	0	522	414	
15	0	0	0	0	520	414	
0	0	0	0	0	519	414	
1	0	0	0	0	519	413	
2	0	0	0	0	519	413	
3	0	0	0	0	520	414	
4	0	0	0	0	521	413	
5	0	0	0	0	521	412	
6	0	0	0	0	522	412	
7	0	0	0	0	523	412	
8	0	0	0	0	523	413	
9	0	0	0	0	523	411	
10	0	0	0	0	522	411	
11	0	0	0	0	521	412	
12	0	0	0	0	521	411	
13	0	0	0	0	519	411	
14	0	0	0	0	517	412	
15	0	0	0	0	516	410	
0	0	0	0	0	517	410	
1	0	0	0	0	518	409	
2	0	0	0	0	519	409	
3	0	0	0	0	521	409	
4	0	0	0	0	521	408	
5	0	0	0	0	522	408	
6	0	0	0	0	524	408	
7	0	0	0	0	524	408	
8	0	0	0	0	526	408	
9	0	0	0	0	527	408	
10	0	0	0	0	527	408	
11	0	0	0	0	527	408	
12	0	0	0	0	526	407	
13	0	0	0	0	525	407	
14	0	0	0	0	524	408	
15	0	0	0	0	521	408	
0	0	0	0	0	518	408	
1	0	0	0	0	515	408	
2	0	0	0	0	514	409	
3	0	0	0	0	513	409	
4	0	0	0	0	514	409	
5	0	0	0	0	516	409	
6	0	0	0	0	519	410	
7	0	0	0	0	521	409	
8	0	0	0	0	522	410	
9	0	0	0	0	524	409	
10	0	0	0	0	524	410	
11	0	0	0	0	523	411	
12	0	0	0	0	522	412	
13	0	0	0	0	522	411	
14	0	0	0	0	523	412	
15	0	0	0	0	523	413	
0	0	0	0	0	523	415	
1	0	0	0	0	523	416	
2	0	0	0	0	523	418	
3	0	0	0	0	523	421	
4	0	0	0	0	524	421	
5	0	0	0	0	523	421	
6	0	0	0	0	523	419	
7	0	0	0	0	522	417	
8	0	0	0	0	521	417	
9	0	0	0	0	520	416	
10	0	0	0	0	519	416	
11	0	0	0	0	519	417	
12	0	0	0	0	519	415	
13	0	0	0	0	519	417	
14	0	0	0	0	519	418	
15	0	0	0	0	518	418	
0	0	0	0	0	517	418	
1	0	0	0	0	516	423	
2	0	0	0	0	517	424	
3	0	0	0	0	518	422	
4	0	0	0	0	518	417	
5	0	0	0	0	516	420	
6	0	0	0	0	515	417	
7	0	0	0	0	515	414	
8	0	0	0	0	518	416	
9	0	0	0	0	520	417	
10	0	0	0	0	520	416	
11	0	0	0	0	519	420	
12	0	0	0	0	518	420	
13	0	0	0	0	517	430	
14	0	0	0	0	515	436	
15	0	0	0	0	515	425	
0	0	0	0	0	514	417	
1	0	0	0	0	513	428	
2	0	0	0	0	514	426	
3	0	0	0	0	516	428	
4	0	0	0	0	517	436	
5	0	0	0	0	518	420	
6	0	0	0	0	518	415	
7	0	0	0	0	519	427	
8	0	0	0	0	520	421	
9	0	0	0	0	520	422	
10	0	0	0	0	519	431	
11	0	0	0	0	518	418	
12	0	0	0	0	515	409	
13	0	0	0	0	513	420	
14	0	0	0	0	513	426	
15	0	0	0	0	513	411	
0	0	0	0	0	515	417	
1	0	0	0	0	515	417	
2	0	0	0	0	515	412	
3	0	0	0	0	514	405	
4	0	0	0	0	514	410	
5	0	0	0	0	513	409	
6	0	0	0	0	512	416	
7	0	0	0	0	512	423	
8	0	0	0	0	512	415	
9	0	0	0	0	512	407	
10	0	0	0	0	512	416	
11	0	0	0	0	512	411	
12	0	0	0	0	511	406	
13	0	0	0	0	511	407	
14	0	0	0	0	511	407	
15	0	0	0	0	510	404	
0	0	0	0	0	510	406	
1	0	0	0	0	510	408	
2	0	0	0	0	512	404	
3	0	0	0	0	512	410	
4	0	0	0	0	512	406	
5	0	0	0	0	511	403	
6	0	0	0	0	510	404	
7	0	0	0	0	507	405	
8	0	0	0	0	504	403	
9	0	0	0	0	502	403	
10	0	0	0	0	501	405	
11	0	0	0	0	504	407	
12	0	0	0	0	504	406	
13	0	0	0	0	504	405	
14	0	0	0	0	505	403	
15	0	0	0	0	507	403	
0	0	0	0	0	510	403	
1	0	0	0	0	513	401	
2	0	0	0	0	515	403	
3	0	0	0	0	516	405	
4	0	0	0	0	516	404	
5	0	0	0	0	518	406	
6	0	0	0	0	517	406	
7	0	0	0	0	515	405	
8	0	0	0	0	516	407	
9	0	0	0	0	515	406	
10	0	0	0	0	515	405	
11	0	0	0	0	515	407	
12	0	0	0	0	515	407	
13	0	0	0	0	515	407	
14	0	0	0	0	516	407	
15	0	0	0	0	518	407	
0	0	0	0	0	518	408	
1	0	0	0	0	519	407	
2	0	0	0	0	519	408	
3	0	0	0	0	519	409	
4	0	0	0	0	520	409	
5	0	0	0	0	521	409	
6	0	0	0	0	522	410	
7	0	0	0	0	523	409	
8	0	0	0	0	523	410	
9	0	0	0	0	523	410	
10	0	0	0	0	524	409	
11	0	0	0	0	524	411	
12	0	0	0	0	524	411	
13	0	0	0	0	525	412	
14	0	0	0	0	526	412	
15	0	0	0	0	526	412	
0	0	0	0	0	525	413	
1	0	0	0	0	526	414	
2	0	0	0	0	525	415	
3	0	0	0	0	524	415	
4	0	0	0	0	523	414	
5	0	0	0	0	522	415	
6	0	0	0	0	521	415	
7	0	0	0	0	521	414	
8	0	0	0	0	521	414	
9	0	0	0	0	519	415	
10	0	0	0	0	518	415	
11	0	0	0	0	517	415	
12	0	0	0	0	517	414	
13	0	0	0	0	517	415	
14	0	0	0	0	517	415	
15	0	0	0	0	518	416	
0	0	0	0	0	517	416	
1	0	0	0	0	517	416	
2	0	0	0	0	517	417	
3	0	0	0	0	517	417	
4	0	0	0	0	516	415	
5	0	0	0	0	516	416	
6	0	0	0	0	515	417	
7	0	0	0	0	516	414	
8	0	0	0	0	516	414	
9	0	0	0	0	515	415	
10	0	0	0	0	514	414	
11	0	0	0	0	513	414	
12	0	0	0	0	512	414	
13	0	0	0	0	510	413	
14	0	0	0	0	507	413	
15	0	0	0	0	506	414	
0	0	0	0	0	506	413	
1	0	0	0	0	508	412	
2	0	0	0	0	508	414	
3	0	0	0	0	508	415	
4	0	0	0	0	509	414	
5	0	0	0	0	511	416	
6	0	0	0	0	513	416	
7	0	0	0	0	514	415	
8	0	0	0	0	514	415	
9	0	0	0	0	515	415	
10	0	0	0	0	515	415	
11	0	0	0	0	515	417	
12	0	0	0	0	514	415	
13	0	0	0	0	513	415	
14	0	0	0	0	512	415	
15	0	0	0	0	511	415	
0	0	0	0	0	509	414	
1	0	0	0	0	508	413	
2	0	0	0	0	508	414	
3	0	0	0	0	508	416	
4	0	0	0	0	507	413	
5	0	0	0	0	506	410	
6	0	0	0	0	507	413	
7	0	0	0	0	508	412	
8	0	0	0	0	510	410	
9	0	0	0	0	511	412	
10	0	0	0	0	511	413	
11	0	0	0	0	511	412	
12	0	0	0	0	512	412	
13	0	0	0	0	513	411	
14	0	0	0	0	513	408	
15	0	0	0	0	512	408	
0	0	0	0	0	511	411	
1	0	0	0	0	511	409	
2	0	0	0	0	510	408	
3	0	0	0	0	510	409	
4	0	0	0	0	510	407	
5	0	0	0	0	511	406	
6	0	0	0	0	511	406	
7	0	0	0	0	512	405	
8	0	0	0	0	515	408	
9	0	0	0	0	516	407	
10	0	0	0	0	515	407	
11	0	0	0	0	514	409	
12	0	0	0	0	514	406	
13	0	0	0	0	514	409	
14	0	0	0	0	513	413	
15	0	0	0	0	513	405	
0	0	0	0	0	513	405	
1	0	0	0	0	512	411	
2	0	0	0	0	511	410	
3	0	0	0	0	509	405	
4	0	0	0	0	508	408	
5	0	0	0	0	507	411	
6	0	0	0	0	507	410	
7	0	0	0	0	507	411	
8	0	0	0	0	506	410	
9	0	0	0	0	504	409	
10	0	0	0	0	502	413	
11	0	0	0	0	498	413	
12	0	0	0	0	492	409	
13	0	0	0	0	484	412	
14	0	0	0	0	476	414	
15	0	0	0	0	466	412	
0	0	0	0	0	456	412	
1	0	0	0	0	448	415	
2	0	0	0	0	443	412	
3	0	0	0	0	439	413	
4	0	0	0	0	436	415	
5	0	0	0	0	436	412	
6	0	0	0	0	437	412	
7	0	0	0	0	439	416	
8	0	0	0	0	441	415	
9	0	0	0	0	441	412	
10	0	0	0	0	443	412	
11	0	0	0	0	444	415	
12	0	0	0	0	448	413	
13	0	0	0	0	454	412	
14	0	0	0	0	461	411	
15	0	0	0	0	467	412	
0	0	0	0	0	477	412	
1	0	0	0	0	492	412	
2	0	0	0	0	511	413	
3	0	0	0	0	532	413	
4	0	0	0	0	558	411	
5	0	0	0	0	585	411	
6	0	0	0	0	617	412	
7	0	0	0	0	651	410	
8	0	0	0	0	687	410	
9	0	0	0	0	727	411	
10	0	0	0	0	767	412	
11	0	0	0	0	809	412	
12	0	0	0	0	848	409	
13	0	0	0	0	884	411	
14	0	0	0	0	918	412	
15	0	0	0	0	947	410	
0	0	0	0	0	970	409	
1	0	0	0	0	990	411	
2	0	0	0	0	1004	412	
3	0	0	0	0	1012	413	
4	0	0	0	0	1015	411	
5	0	0	0	0	1014	412	
6	0	0	0	0	1005	412	
7	0	0	0	0	988	410	
8	0	0	0	0	966	410	
9	0	0	0	0	941	412	
10	0	0	0	0	913	413	
11	0	0	0	0	884	412	
12	0	0	0	0	854	412	
13	0	0	0	0	825	414	
14	0	0	0	0	797	413	
15	0	0	0	0	767	410	
0	0	0	0	0	739	411	
1	0	0	0	0	712	412	
2	0	0	0	0	685	412	
3	0	0	0	0	655	415	
4	0	0	0	0	624	415	
5	0	0	0	0	593	415	
6	0	0	0	0	566	415	
7	0	0	0	0	546	414	
8	0	0	0	0	527	413	
9	0	0	0	0	510	414	
10	0	0	0	0	492	414	
11	0	0	0	0	478	413	
12	0	0	0	0	466	414	
13	0	0	0	0	455	414	
14	0	0	0	0	445	414	
15	0	0	0	0	436	415	
0	0	0	0	0	428	416	
1	0	0	0	0	420	414	
2	0	0	0	0	413	414	
3	0	0	0	0	407	415	
4	0	0	0	0	401	415	
5	0	0	0	0	398	414	
6	0	0	0	0	394	415	
7	0	0	0	0	390	414	
8	0	0	0	0	385	413	
9	0	0	0	0	384	414	
10	0	0	0	0	383	414	
11	0	0	0	0	382	414	
12	0	0	0	0	381	413	
13	0	0	0	0	380	414	
14	0	0	0	0	379	412	
15	0	0	0	0	378	412	
0	0	0	0	0	377	412	
1	0	0	0	0	376	411	
2	0	0	0	0	375	411	
3	0	0	0	0	375	411	
4	0	0	0	0	373	410	
5	0	0	0	0	372	409	
6	0	0	0	0	371	410	
7	0	0	0	0	373	409	
8	0	0	0	0	374	409	
9	0	0	0	0	376	408	
10	0	0	0	0	380	408	
11	0	0	0	0	382	409	
12	0	0	0	0	383	407	
13	0	0	0	0	385	408	
14	0	0	0	0	387	407	
15	0	0	0	0	389	407	
0	0	0	0	0	390	407	
1	0	0	0	0	391	407	
2	0	0	0	0	392	407	
3	0	0	0	0	392	407	
4	0	0	0	0	393	407	
5	0	0	0	0	394	408	
6	0	0	0	0	395	408	
7	0	0	0	0	396	409	
8	0	0	0	0	397	409	
9	0	0	0	0	398	410	
10	0	0	0	0	398	410	
11	0	0	0	0	398	411	
12	0	0	0	0	399	414	
13	0	0	0	0	399	412	
14	0	0	0	0	400	408	
15	0	0	0	0	401	410	
0	0	0	0	0	402	410	
1	0	0	0	0	403	410	
2	0	0	0	0	403	411	
3	0	0	0	0	404	413	
4	0	0	0	0	404	412	
5	0	0	0	0	406	412	
6	0	0	0	0	407	412	
7	0	0	0	0	408	411	
8	0	0	0	0	411	411	
9	0	0	0	0	413	411	
10	0	0	0	0	414	412	
11	0	0	0	0	415	414	
12	0	0	0	0	415	414	
13	0	0	0	0	416	413	
14	0	0	0	0	416	412	
15	0	0	0	0	418	411	
0	0	0	0	0	419	412	
1	0	0	0	0	419	413	
2	0	0	0	0	419	415	
3	0	0	0	0	418	416	
4	0	0	0	0	416	416	
5	0	0	0	0	413	415	
6	0	0	0	0	411	415	
7	0	0	0	0	411	414	
8	0	0	0	0	414	415	
9	0	0	0	0	416	415	
10	0	0	0	0	418	415	
11	0	0	0	0	420	416	
12	0	0	0	0	425	416	
13	0	0	0	0	430	416	
14	0	0	0	0	432	416	
15	0	0	0	0	433	415	
0	0	0	0	0	433	415	
1	0	0	0	0	434	414	
2	0	0	0	0	434	414	
3	0	0	0	0	435	414	
4	0	0	0	0	435	413	
5	0	0	0	0	434	413	
6	0	0	0	0	433	413	
7	0	0	0	0	433	413	
8	0	0	0	0	433	413	
9	0	0	0	0	433	413	
10	0	0	0	0	435	412	
11	0	0	0	0	437	412	
12	0	0	0	0	438	410	
13	0	0	0	0	438	410	
14	0	0	0	0	439	410	
15	0	0	0	0	440	409	
0	0	0	0	0	440	410	
1	0	0	0	0	440	411	
2	0	0	0	0	441	411	
3	0	0	0	0	441	412	
4	0	0	0	0	441	411	
5	0	0	0	0	442	411	
6	0	0	0	0	441	410	
7	0	0	0	0	441	410	
8	0	0	0	0	441	410	
9	0	0	0	0	442	411	
10	0	0	0	0	443	411	
11	0	0	0	0	443	412	
12	0	0	0	0	443	411	
13	0	0	0	0	443	411	
14	0	0	0	0	443	411	
15	0	0	0	0	445	411	
0	0	0	0	0	446	411	
1	0	0	0	0	446	411	
2	0	0	0	0	447	412	
3	0	0	0	0	447	412	
4	0	0	0	0	448	411	
5	0	0	0	0	449	411	
6	0	0	0	0	449	411	
7	0	0	0	0	450	411	
8	0	0	0	0	450	411	
9	0	0	0	0	451	411	
10	0	0	0	0	451	412	
11	0	0	0	0	451	412	
12	0	0	0	0	451	412	
13	0	0	0	0	450	412	
14	0	0	0	0	448	412	
15	0	0	0	0	446	412	
0	0	0	0	0	446	412	
1	0	0	0	0	447	412	
2	0	0	0	0	448	412	
3	0	0	0	0	450	412	
4	0	0	0	0	452	412	
5	0	0	0	0	453	412	
6	0	0	0	0	455	413	
7	0	0	0	0	457	413	
8	0	0	0	0	459	414	
9	0	0	0	0	460	414	
10	0	0	0	0	460	414	
11	0	0	0	0	460	415	
12	0	0	0	0	460	414	
13	0	0	0	0	461	414	
14	0	0	0	0	461	414	
15	0	0	0	0	462	413	
0	0	0	0	0	462	414	
1	0	0	0	0	462	415	
2	0	0	0	0	462	414	
3	0	0	0	0	462	414	
4	0	0	0	0	463	414	
5	0	0	0	0	463	413	
6	0	0	0	0	462	414	
7	0	0	0	0	463	414	
8	0	0	0	0	463	414	
9	0	0	0	0	463	414	
10	0	0	0	0	464	414	
11	0	0	0	0	464	414	
12	0	0	0	0	464	414	
13	0	0	0	0	463	413	
14	0	0	0	0	462	414	
15	0	0	0	0	462	413	
0	0	0	0	0	463	413	
1	0	0	0	0	465	412	
2	0	0	0	0	466	412	
3	0	0	0	0	467	414	
4	0	0	0	0	470	412	
5	0	0	0	0	472	412	
6	0	0	0	0	473	413	
7	0	0	0	0	473	412	
8	0	0	0	0	475	413	
9	0	0	0	0	476	412	
10	0	0	0	0	480	412	
11	0	0	0	0	482	412	
12	0	0	0	0	484	412	
13	0	0	0	0	486	411	
14	0	0	0	0	488	412	
15	0	0	0	0	490	411	
0	0	0	0	0	490	412	
1	0	0	0	0	490	411	
2	0	0	0	0	491	412	
3	0	0	0	0	492	413	
4	0	0	0	0	493	412	
5	0	0	0	0	493	412	
6	0	0	0	0	494	412	
7	0	0	0	0	496	411	
8	0	0	0	0	497	412	
9	0	0	0	0	497	412	
10	0	0	0	0	498	412	
11	0	0	0	0	498	412	
12	0	0	0	0	499	411	
13	0	0	0	0	501	412	
14	0	0	0	0	503	412	
15	0	0	0	0	505	411	
0	0	0	0	0	507	412	
1	0	0	0	0	508	412	
2	0	0	0	0	511	412	
3	0	0	0	0	512	413	
4	0	0	0	0	513	412	
5	0	0	0	0	514	412	
6	0	0	0	0	515	412	
7	0	0	0	0	515	412	
8	0	0	0	0	515	412	
9	0	0	0	0	517	412	
10	0	0	0	0	517	412	
11	0	0	0	0	519	412	
12	0	0	0	0	519	412	
13	0	0	0	0	520	412	
14	0	0	0	0	521	412	
15	0	0	0	0	522	412	
0	0	0	0	0	523	412	
1	0	0	0	0	524	412	
2	0	0	0	0	524	411	
3	0	0	0	0	526	412	
4	0	0	0	0	527	411	
5	0	0	0	0	527	411	
6	0	0	0	0	528	411	
7	0	0	0	0	528	411	
8	0	0	0	0	529	412	
9	0	0	0	0	530	411	
10	0	0	0	0	531	412	
11	0	0	0	0	531	412	
12	0	0	0	0	532	411	
13	0	0	0	0	533	411	
14	0	0	0	0	533	411	
15	0	0	0	0	534	410	
0	0	0	0	0	534	410	
1	0	0	0	0	534	411	
2	0	0	0	0	534	411	
3	0	0	0	0	533	411	
4	0	0	0	0	533	411	
5	0	0	0	0	531	409	
6	0	0	0	0	531	410	
7	0	0	0	0	530	410	
8	0	0	0	0	528	411	
9	0	0	0	0	527	411	
10	0	0	0	0	526	411	
11	0	0	0	0	527	412	
12	0	0	0	0	530	411	
13	0	0	0	0	531	411	
14	0	0	0	0	533	411	
15	0	0	0	0	535	411	
0	0	0	0	0	537	411	
1	0	0	0	0	540	411	
2	0	0	0	0	540	412	
3	0	0	0	0	539	412	
4	0	0	0	0	538	412	
5	0	0	0	0	536	412	
6	0	0	0	0	536	412	
7	0	0	0	0	535	412	
8	0	0	0	0	535	412	
9	0	0	0	0	536	412	
10	0	0	0	0	535	412	
11	0	0	0	0	534	413	
12	0	0	0	0	531	412	
13	0	0	0	0	531	412	
14	0	0	0	0	529	412	
15	0	0	0	0	529	412	
0	0	0	0	0	529	413	
1	0	0	0	0	528	413	
2	0	0	0	0	527	412	
3	0	0	0	0	524	414	
4	0	0	0	0	522	412	
5	0	0	0	0	523	413	
6	0	0	0	0	521	413	
7	0	0	0	0	520	413	
8	0	0	0	0	518	413	
9	0	0	0	0	517	413	
10	0	0	0	0	519	414	
11	0	0	0	0	522	414	
12	0	0	0	0	525	413	
13	0	0	0	0	527	413	
14	0	0	0	0	528	413	
15	0	0	0	0	530	412	
0	0	0	0	0	531	413	
1	0	0	0	0	532	412	
2	0	0	0	0	531	413	
3	0	0	0	0	530	413	
4	0	0	0	0	530	413	
5	0	0	0	0	528	412	
6	0	0	0	0	527	412	
7	0	0	0	0	526	412	
8	0	0	0	0	524	412	
9	0	0	0	0	524	412	
10	0	0	0	0	524	412	
11	0	0	0	0	524	413	
12	0	0	0	0	524	412	
13	0	0	0	0	524	412	
14	0	0	0	0	524	412	
15	0	0	0	0	525	411	
0	0	0	0	0	526	412	
1	0	0	0	0	526	412	
2	0	0	0	0	526	412	
3	0	0	0	0	526	413	
4	0	0	0	0	526	411	
5	0	0	0	0	525	412	
6	0	0	0	0	526	412	
7	0	0	0	0	526	412	
8	0	0	0	0	525	412	
9	0	0	0	0	524	412	
10	0	0	0	0	523	412	
11	0	0	0	0	522	412	
12	0	0	0	0	522	412	
13	0	0	0	0	524	412	
14	0	0	0	0	526	412	
15	0	0	0	0	526	412	
0	0	0	0	0	526	412	
1	0	0	0	0	527	411	
2	0	0	0	0	527	412	
3	0	0	0	0	526	412	
4	0	0	0	0	524	412	
5	0	0	0	0	521	412	
6	0	0	0	0	518	412	
7	0	0	0	0	517	412	
8	0	0	0	0	516	412	
9	0	0	0	0	516	412	
10	0	0	0	0	516	412	
11	0	0	0	0	515	412	
12	0	0	0	0	516	412	
13	0	0	0	0	518	411	
14	0	0	0	0	520	411	
15	0	0	0	0	521	410	
0	0	0	0	0	522	411	
1	0	0	0	0	523	411	
2	0	0	0	0	525	410	
3	0	0	0	0	526	412	
4	0	0	0	0	526	411	
5	0	0	0	0	525	411	
6	0	0	0	0	525	411	
7	0	0	0	0	523	411	
8	0	0	0	0	523	411	
9	0	0	0	0	524	412	
10	0	0	0	0	524	412	
11	0	0	0	0	524	414	
12	0	0	0	0	523	414	
13	0	0	0	0	522	412	
14	0	0	0	0	520	412	
15	0	0	0	0	520	413	
0	0	0	0	0	520	413	
1	0	0	0	0	521	412	
2	0	0	0	0	520	413	
3	0	0	0	0	520	413	
4	0	0	0	0	521	411	
5	0	0	0	0	522	412	
6	0	0	0	0	522	411	
7	0	0	0	0	522	410	
8	0	0	0	0	523	410	
9	0	0	0	0	524	411	
10	0	0	0	0	525	410	
11	0	0	0	0	525	411	
12	0	0	0	0	525	410	
13	0	0	0	0	525	410	
14	0	0	0	0	525	409	
15	0	0	0	0	526	410	
0	0	0	0	0	527	410	
1	0	0	0	0	527	411	
2	0	0	0	0	527	411	
3	0	0	0	0	528	412	
4	0	0	0	0	529	412	
5	0	0	0	0	530	412	
6	0	0	0	0	530	412	
7	0	0	0	0	530	412	
8	0	0	0	0	529	412	
9	0	0	0	0	529	412	
10	0	0	0	0	528	412	
11	0	0	0	0	527	413	
12	0	0	0	0	528	412	
13	0	0	0	0	528	412	
14	0	0	0	0	527	413	
15	0	0	0	0	527	412	
0	0	0	0	0	526	412	
1	0	0	0	0	527	412	
2	0	0	0	0	528	412	
3	0	0	0	0	528	412	
4	0	0	0	0	528	412	
5	0	0	0	0	528	412	
6	0	0	0	0	529	412	
7	0	0	0	0	530	411	
8	0	0	0	0	530	412	
9	0	0	0	0	529	412	
10	0	0	0	0	529	411	
11	0	0	0	0	528	412	
12	0	0	0	0	528	412	
13	0	0	0	0	528	412	
14	0	0	0	0	527	412	
15	0	0	0	0	527	411	
0	0	0	0	0	527	411	
1	0	0	0	0	527	412	
2	0	0	0	0	526	411	
3	0	0	0	0	526	413	
4	0	0	0	0	525	412	
5	0	0	0	0	525	412	
6	0	0	0	0	526	412	
7	0	0	0	0	527	412	
8	0	0	0	0	528	413	
9	0	0	0	0	529	413	
10	0	0	0	0	529	413	
11	0	0	0	0	528	414	
12	0	0	0	0	529	413	
13	0	0	0	0	528	413	
14	0	0	0	0	528	413	
15	0	0	0	0	528	412	
0	0	0	0	0	527	412	
1	0	0	0	0	528	413	
2	0	0	0	0	527	413	
3	0	0	0	0	526	415	
4	0	0	0	0	524	413	
5	0	0	0	0	523	413	
6	0	0	0	0	522	414	
7	0	0	0	0	522	413	
8	0	0	0	0	524	413	
9	0	0	0	0	526	413	
10	0	0	0	0	525	413	
11	0	0	0	0	525	414	
12	0	0	0	0	527	413	
13	0	0	0	0	529	414	
14	0	0	0	0	529	413	
15	0	0	0	0	529	413	
0	0	0	0	0	530	414	
1	0	0	0	0	531	413	
2	0	0	0	0	531	413	
3	0	0	0	0	532	414	
4	0	0	0	0	534	414	
5	0	0	0	0	535	414	
6	0	0	0	0	535	413	
7	0	0	0	0	534	413	
8	0	0	0	0	532	413	
9	0	0	0	0	530	413	
10	0	0	0	0	530	413	
11	0	0	0	0	530	413	
12	0	0	0	0	531	413	
13	0	0	0	0	531	412	
14	0	0	0	0	531	412	
15	0	0	0	0	530	412	
0	0	0	0	0	529	412	
1	0	0	0	0	529	412	
2	0	0	0	0	528	412	
3	0	0	0	0	527	412	
4	0	0	0	0	528	412	
5	0	0	0	0	529	412	
6	0	0	0	0	529	411	
7	0	0	0	0	528	411	
8	0	0	0	0	528	411	
9	0	0	0	0	529	411	
10	0	0	0	0	530	411	
11	0	0	0	0	530	412	
12	0	0	0	0	530	411	
13	0	0	0	0	530	411	
14	0	0	0	0	530	411	
15	0	0	0	0	529	411	
0	0	0	0	0	528	411	
1	0	0	0	0	527	412	
2	0	0	0	0	527	411	
3	0	0	0	0	528	412	
4	0	0	0	0	528	411	
5	0	0	0	0	527	411	
6	0	0	0	0	526	411	
7	0	0	0	0	525	410	
8	0	0	0	0	526	411	
9	0	0	0	0	526	410	
10	0	0	0	0	526	411	
11	0	0	0	0	526	412	
12	0	0	0	0	527	412	
13	0	0	0	0	527	412	
14	0	0	0	0	526	412	
15	0	0	0	0	525	411	
0	0	0	0	0	523	411	
1	0	0	0	0	522	411	
2	0	0	0	0	522	411	
3	0	0	0	0	522	412	
4	0	0	0	0	522	411	
5	0	0	0	0	522	411	
6	0	0	0	0	523	412	
7	0	0	0	0	524	411	
8	0	0	0	0	526	411	
9	0	0	0	0	527	411	
10	0	0	0	0	526	411	
11	0	0	0	0	524	412	
12	0	0	0	0	522	411	
13	0	0	0	0	519	411	
14	0	0	0	0	516	412	
15	0	0	0	0	515	411	
0	0	0	0	0	515	412	
1	0	0	0	0	516	412	
2	0	0	0	0	517	412	
3	0	0	0	0	518	413	
4	0	0	0	0	519	412	
5	0	0	0	0	520	412	
6	0	0	0	0	521	412	
7	0	0	0	0	522	412	
8	0	0	0	0	522	412	
9	0	0	0	0	521	412	
10	0	0	0	0	521	412	
11	0	0	0	0	523	412	
12	0	0	0	0	523	411	
13	0	0	0	0	523	412	
14	0	0	0	0	524	412	
15	0	0	0	0	524	412	
0	0	0	0	0	525	412	
1	0	0	0	0	524	411	
2	0	0	0	0	522	412	
3	0	0	0	0	521	413	
4	0	0	0	0	521	412	
5	0	0	0	0	523	411	
6	0	0	0	0	524	411	
7	0	0	0	0	525	411	
8	0	0	0	0	525	412	
9	0	0	0	0	525	412	
10	0	0	0	0	526	412	
11	0	0	0	0	526	413	
12	0	0	0	0	526	412	
13	0	0	0	0	526	412	
14	0	0	0	0	525	412	
15	0	0	0	0	525	412	
0	0	0	0	0	524	412	
1	0	0	0	0	524	412	
2	0	0	0	0	523	412	
3	0	0	0	0	523	413	
4	0	0	0	0	523	413	
5	0	0	0	0	523	413	
6	0	0	0	0	521	413	
7	0	0	0	0	521	412	
8	0	0	0	0	520	413	
9	0	0	0	0	519	413	
10	0	0	0	0	518	412	
11	0	0	0	0	518	413	
12	0	0	0	0	517	412	
13	0	0	0	0	516	413	
14	0	0	0	0	516	413	
15	0	0	0	0	516	412	
0	0	0	0	0	516	413	
1	0	0	0	0	516	413	
2	0	0	0	0	515	413	
3	0	0	0	0	515	412	
4	0	0	0	0	515	412	
5	0	0	0	0	515	412	
6	0	0	0	0	515	412	
7	0	0	0	0	515	413	
8	0	0	0	0	515	412	
9	0	0	0	0	514	412	
10	0	0	0	0	514	412	
11	0	0	0	0	513	412	
12	0	0	0	0	512	411	
13	0	0	0	0	512	411	
14	0	0	0	0	512	411	
15	0	0	0	0	511	411	
0	0	0	0	0	511	411	
1	0	0	0	0	510	410	
2	0	0	0	0	509	410	
3	0	0	0	0	508	411	
4	0	0	0	0	509	411	
5	0	0	0	0	510	411	
6	0	0	0	0	511	411	
7	0	0	0	0	511	410	
8	0	0	0	0	511	411	
9	0	0	0	0	512	411	
10	0	0	0	0	512	411	
11	0	0	0	0	510	411	
12	0	0	0	0	506	411	
13	0	0	0	0	502	411	
14	0	0	0	0	500	411	
15	0	0	0	0	499	410	
0	0	0	0	0	497	410	
1	0	0	0	0	496	411	
2	0	0	0	0	496	411	
3	0	0	0	0	498	412	
4	0	0	0	0	502	411	
5	0	0	0	0	505	410	
6	0	0	0	0	510	411	
7	0	0	0	0	512	411	
8	0	0	0	0	511	411	
9	0	0	0	0	510	412	
10	0	0	0	0	508	411	
11	0	0	0	0	507	412	
12	0	0	0	0	505	411	
13	0	0	0	0	505	412	
14	0	0	0	0	505	411	
15	0	0	0	0	506	411	
0	0	0	0	0	508	412	
1	0	0	0	0	510	411	
2	0	0	0	0	512	411	
3	0	0	0	0	513	412	
4	0	0	0	0	515	411	
5	0	0	0	0	517	411	
6	0	0	0	0	518	411	
7	0	0	0	0	519	411	
8	0	0	0	0	520	412	
9	0	0	0	0	521	412	
10	0	0	0	0	521	412	
11	0	0	0	0	522	413	
12	0	0	0	0	521	412	
13	0	0	0	0	520	412	
14	0	0	0	0	520	412	
15	0	0	0	0	521	412	
0	0	0	0	0	521	412	
1	0	0	0	0	521	413	
2	0	0	0	0	520	412	
3	0	0	0	0	519	413	
4	0	0	0	0	519	412	
5	0	0	0	0	519	413	
6	0	0	0	0	518	413	
7	0	0	0	0	517	413	
8	0	0	0	0	516	412	
9	0	0	0	0	517	413	
10	0	0	0	0	518	413	
11	0	0	0	0	519	414	
12	0	0	0	0	519	413	
13	0	0	0	0	517	412	
14	0	0	0	0	515	413	
15	0	0	0	0	516	412	
0	0	0	0	0	519	412	
1	0	0	0	0	521	412	
2	0	0	0	0	521	412	
3	0	0	0	0	519	413	
4	0	0	0	0	519	412	
5	0	0	0	0	519	412	
6	0	0	0	0	520	411	
7	0	0	0	0	522	412	
8	0	0	0	0	523	411	
9	0	0	0	0	523	411	
10	0	0	0	0	524	411	
11	0	0	0	0	524	412	
12	0	0	0	0	524	412	
13	0	0	0	0	524	413	
14	0	0	0	0	523	413	
15	0	0	0	0	522	414	
0	0	0	0	0	521	413	
1	0	0	0	0	520	413	
2	0	0	0	0	520	413	
3	0	0	0	0	518	414	
4	0	0	0	0	517	414	
5	0	0	0	0	518	413	
6	0	0	0	0	519	413	
7	0	0	0	0	519	413	
8	0	0	0	0	518	413	
9	0	0	0	0	517	413	
10	0	0	0	0	515	412	
11	0	0	0	0	513	413	
12	0	0	0	0	512	412	
13	0	0	0	0	512	411	
14	0	0	0	0	512	411	
15	0	0	0	0	511	410	
0	0	0	0	0	510	411	
1	0	0	0	0	509	411	
2	0	0	0	0	509	411	
3	0	0	0	0	511	412	
4	0	0	0	0	513	411	
5	0	0	0	0	514	411	
6	0	0	0	0	514	410	
7	0	0	0	0	514	410	
8	0	0	0	0	514	409	
9	0	0	0	0	514	410	
10	0	0	0	0	514	410	
11	0	0	0	0	514	411	
12	0	0	0	0	512	410	
13	0	0	0	0	512	410	
14	0	0	0	0	511	410	
15	0	0	0	0	510	409	
0	0	0	0	0	510	410	
1	0	0	0	0	510	411	
2	0	0	0	0	511	410	
3	0	0	0	0	511	411	
4	0	0	0	0	511	410	
5	0	0	0	0	511	411	
6	0	0	0	0	511	411	
7	0	0	0	0	512	410	
8	0	0	0	0	511	410	
9	0	0	0	0	511	411	
10	0	0	0	0	511	411	
11	0	0	0	0	510	412	
12	0	0	0	0	511	411	
13	0	0	0	0	510	411	
14	0	0	0	0	510	411	
15	0	0	0	0	510	411	
0	0	0	0	0	510	412	
1	0	0	0	0	510	412	
2	0	0	0	0	511	412	
3	0	0	0	0	512	412	
4	0	0	0	0	512	412	
5	0	0	0	0	512	412	
6	0	0	0	0	512	412	
7	0	0	0	0	512	412	
8	0	0	0	0	510	412	
9	0	0	0	0	509	413	
10	0	0	0	0	508	412	
11	0	0	0	0	508	413	
12	0	0	0	0	507	413	
13	0	0	0	0	506	412	
14	0	0	0	0	506	412	
15	0	0	0	0	505	412	
0	0	0	0	0	505	412	
1	0	0	0	0	505	412	
2	0	0	0	0	507	412	
3	0	0	0	0	508	413	
4	0	0	0	0	508	413	
5	0	0	0	0	509	412	
6	0	0	0	0	509	412	
7	0	0	0	0	508	411	
8	0	0	0	0	508	411	
9	0	0	0	0	508	411	
10	0	0	0	0	507	411	
11	0	0	0	0	506	412	
12	0	0	0	0	503	411	
13	0	0	0	0	500	412	
14	0	0	0	0	495	412	
15	0	0	0	0	489	411	
0	0	0	0	0	481	412	
1	0	0	0	0	473	412	
2	0	0	0	0	464	412	
3	0	0	0	0	455	413	
4	0	0	0	0	449	412	
5	0	0	0	0	444	412	
6	0	0	0	0	442	412	
7	0	0	0	0	444	412	
8	0	0	0	0	446	412	
9	0	0	0	0	450	412	
10	0	0	0	0	454	412	
11	0	0	0	0	459	413	
12	0	0	0	0	464	412	
13	0	0	0	0	469	413	
14	0	0	0	0	473	413	
15	0	0	0	0	479	412	
0	0	0	0	0	485	412	
1	0	0	0	0	492	413	
2	0	0	0	0	503	412	
3	0	0	0	0	517	412	
4	0	0	0	0	534	411	
5	0	0	0	0	550	412	
6	0	0	0	0	568	412	
7	0	0	0	0	590	412	
8	0	0	0	0	614	412	
9	0	0	0	0	641	412	
10	0	0	0	0	670	412	
11	0	0	0	0	701	413	
12	0	0	0	0	735	411	
13	0	0	0	0	770	411	
14	0	0	0	0	806	411	
15	0	0	0	0	839	411	
0	0	0	0	0	869	411	
1	0	0	0	0	892	411	
2	0	0	0	0	910	411	
3	0	0	0	0	925	413	
4	0	0	0	0	934	411	
5	0	0	0	0	939	412	
6	0	0	0	0	942	411	
7	0	0	0	0	941	411	
8	0	0	0	0	935	411	
9	0	0	0	0	922	411	
10	0	0	0	0	905	411	
11	0	0	0	0	884	412	
12	0	0	0	0	860	411	
13	0	0	0	0	836	412	
14	0	0	0	0	812	412	
15	0	0	0	0	788	411	
0	0	0	0	0	765	412	
1	0	0	0	0	741	411	
2	0	0	0	0	716	411	
3	0	0	0	0	690	412	
4	0	0	0	0	664	412	
5	0	0	0	0	638	412	
6	0	0	0	0	615	412	
7	0	0	0	0	593	411	
8	0	0	0	0	572	412	
9	0	0	0	0	554	412	
10	0	0	0	0	537	412	
11	0	0	0	0	521	412	
12	0	0	0	0	507	412	
13	0	0	0	0	494	411	
14	0	0	0	0	481	412	
15	0	0	0	0	470	411	
0	0	0	0	0	460	412	
1	0	0	0	0	451	411	
2	0	0	0	0	443	412	
3	0	0	0	0	436	413	
4	0	0	0	0	430	412	
5	0	0	0	0	423	412	
6	0	0	0	0	419	412	
7	0	0	0	0	415	412	
8	0	0	0	0	412	412	
9	0	0	0	0	410	413	
10	0	0	0	0	407	412	
11	0	0	0	0	405	413	
12	0	0	0	0	402	412	
13	0	0	0	0	401	413	
14	0	0	0	0	399	412	
15	0	0	0	0	399	413	
0	0	0	0	0	397	413	
1	0	0	0	0	396	413	
2	0	0	0	0	395	412	
3	0	0	0	0	393	413	
4	0	0	0	0	392	412	
5	0	0	0	0	392	413	
6	0	0	0	0	392	413	
7	0	0	0	0	392	412	
8	0	0	0	0	392	413	
9	0	0	0	0	391	412	
10	0	0	0	0	392	412	
11	0	0	0	0	393	413	
12	0	0	0	0	395	412	
13	0	0	0	0	398	413	
14	0	0	0	0	399	413	
15	0	0	0	0	400	412	
0	0	0	0	0	400	412	
1	0	0	0	0	402	412	
2	0	0	0	0	402	412	
3	0	0	0	0	402	412	
4	0	0	0	0	403	412	
5	0	0	0	0	404	412	
6	0	0	0	0	407	413	
7	0	0	0	0	409	412	
8	0	0	0	0	411	412	
9	0	0	0	0	412	412	
10	0	0	0	0	412	412	
11	0	0	0	0	414	413	
12	0	0	0	0	415	411	
13	0	0	0	0	416	412	
14	0	0	0	0	417	412	
15	0	0	0	0	418	411	
0	0	0	0	0	419	411	
1	0	0	0	0	419	411	
2	0	0	0	0	420	411	
3	0	0	0	0	420	411	
4	0	0	0	0	422	411	
5	0	0	0	0	421	410	
6	0	0	0	0	421	410	
7	0	0	0	0	422	410	
8	0	0	0	0	424	410	
9	0	0	0	0	425	411	
10	0	0	0	0	425	410	
11	0	0	0	0	425	411	
12	0	0	0	0	425	411	
13	0	0	0	0	427	411	
14	0	0	0	0	428	411	
15	0	0	0	0	428	411	
0	0	0	0	0	428	411	
1	0	0	0	0	428	411	
2	0	0	0	0	428	410	
3	0	0	0	0	428	411	
4	0	0	0	0	430	411	
5	0	0	0	0	431	411	
6	0	0	0	0	432	411	
7	0	0	0	0	434	411	
8	0	0	0	0	435	411	
9	0	0	0	0	435	411	
10	0	0	0	0	436	412	
11	0	0	0	0	438	412	
12	0	0	0	0	440	411	
13	0	0	0	0	441	411	
14	0	0	0	0	443	411	
15	0	0	0	0	442	411	
0	0	0	0	0	443	411	
1	0	0	0	0	442	411	
2	0	0	0	0	443	411	
3	0	0	0	0	443	412	
4	0	0	0	0	443	411	
5	0	0	0	0	443	412	
6	0	0	0	0	443	412	
7	0	0	0	0	442	411	
8	0	0	0	0	442	412	
9	0	0	0	0	443	412	
10	0	0	0	0	443	411	
11	0	0	0	0	444	413	
12	0	0	0	0	446	412	
13	0	0	0	0	449	412	
14	0	0	0	0	450	412	
15	0	0	0	0	450	412	
0	0	0	0	0	450	412	
1	0	0	0	0	450	412	
2	0	0	0	0	451	412	
3	0	0	0	0	452	413	
4	0	0	0	0	451	412	
5	0	0	0	0	449	411	
6	0	0	0	0	449	412	
7	0	0	0	0	451	412	
8	0	0	0	0	452	412	
9	0	0	0	0	453	411	
10	0	0	0	0	455	412	
11	0	0	0	0	455	412	
12	0	0	0	0	457	412	
13	0	0	0	0	458	412	
14	0	0	0	0	460	412	
15	0	0	0	0	461	412	
0	0	0	0	0	460	411	
1	0	0	0	0	460	412	
2	0	0	0	0	459	412	
3	0	0	0	0	460	412	
4	0	0	0	0	460	411	
5	0	0	0	0	461	411	
6	0	0	0	0	464	411	
7	0	0	0	0	465	411	
8	0	0	0	0	466	411	
9	0	0	0	0	466	412	
10	0	0	0	0	467	411	
11	0	0	0	0	467	412	
12	0	0	0	0	467	411	
13	0	0	0	0	468	412	
14	0	0	0	0	469	412	
15	0	0	0	0	470	411	
0	0	0	0	0	470	412	
1	0	0	0	0	470	412	
2	0	0	0	0	470	411	
3	0	0	0	0	471	412	
4	0	0	0	0	470	412	
5	0	0	0	0	469	412	
6	0	0	0	0	468	411	
7	0	0	0	0	467	411	
8	0	0	0	0	467	412	
9	0	0	0	0	468	412	
10	0	0	0	0	468	412	
11	0	0	0	0	468	413	
12	0	0	0	0	468	412	
13	0	0	0	0	469	411	
14	0	0	0	0	471	412	
15	0	0	0	0	472	411	
0	0	0	0	0	472	412	
1	0	0	0	0	473	413	
2	0	0	0	0	474	412	
3	0	0	0	0	475	412	
4	0	0	0	0	475	412	
5	0	0	0	0	475	411	
6	0	0	0	0	476	412	
7	0	0	0	0	477	412	
8	0	0	0	0	478	412	
9	0	0	0	0	479	412	
10	0	0	0	0	479	412	
11	0	0	0	0	480	412	
12	0	0	0	0	480	411	
13	0	0	0	0	480	412	
14	0	0	0	0	479	411	
15	0	0	0	0	479	412	
0	0	0	0	0	480	412	
1	0	0	0	0	480	411	
2	0	0	0	0	481	411	
3	0	0	0	0	482	412	
4	0	0	0	0	483	412	
5	0	0	0	0	483	412	
6	0	0	0	0	482	412	
7	0	0	0	0	483	411	
8	0	0	0	0	484	412	
9	0	0	0	0	487	411	
10	0	0	0	0	491	412	
11	0	0	0	0	492	412	
12	0	0	0	0	494	411	
13	0	0	0	0	496	412	
14	0	0	0	0	494	412	
15	0	0	0	0	492	412	
0	0	0	0	0	491	412	
1	0	0	0	0	492	411	
2	0	0	0	0	494	412	
3	0	0	0	0	496	412	
4	0	0	0	0	497	411	
5	0	0	0	0	498	412	
6	0	0	0	0	499	412	
7	0	0	0	0	502	411	
8	0	0	0	0	504	411	
9	0	0	0	0	508	412	
10	0	0	0	0	510	412	
11	0	0	0	0	513	413	
12	0	0	0	0	515	412	
13	0	0	0	0	516	412	
14	0	0	0	0	517	412	
15	0	0	0	0	519	412	
0	0	0	0	0	521	412	
1	0	0	0	0	522	412	
2	0	0	0	0	522	412	
3	0	0	0	0	522	413	
4	0	0	0	0	521	411	
5	0	0	0	0	521	412	
6	0	0	0	0	523	412	
7	0	0	0	0	523	411	
8	0	0	0	0	524	412	
9	0	0	0	0	524	412	
10	0	0	0	0	524	412	
11	0	0	0	0	523	412	
12	0	0	0	0	524	412	
13	0	0	0	0	524	411	
14	0	0	0	0	524	412	
15	0	0	0	0	524	411	
0	0	0	0	0	524	412	
1	0	0	0	0	525	412	
2	0	0	0	0	525	411	
3	0	0	0	0	525	412	
4	0	0	0	0	524	412	
5	0	0	0	0	523	412	
6	0	0	0	0	522	411	
7	0	0	0	0	523	411	
8	0	0	0	0	524	412	
9	0	0	0	0	526	411	
10	0	0	0	0	527	412	
11	0	0	0	0	528	412	
12	0	0	0	0	527	411	
13	0	0	0	0	526	411	
14	0	0	0	0	525	411	
15	0	0	0	0	524	411	
0	0	0	0	0	523	412	
1	0	0	0	0	523	412	
2	0	0	0	0	522	412	
3	0	0	0	0	522	412	
4	0	0	0	0	524	412	
5	0	0	0	0	528	412	
6	0	0	0	0	531	412	
7	0	0	0	0	532	412	
8	0	0	0	0	532	412	
9	0	0	0	0	532	413	
10	0	0	0	0	532	412	
11	0	0	0	0	531	413	
12	0	0	0	0	530	412	
13	0	0	0	0	529	412	
14	0	0	0	0	528	412	
15	0	0	0	0	526	412	
0	0	0	0	0	524	413	
1	0	0	0	0	521	413	
2	0	0	0	0	521	413	
3	0	0	0	0	520	413	
4	0	0	0	0	520	412	
5	0	0	0	0	520	413	
6	0	0	0	0	520	412	
7	0	0	0	0	519	412	
8	0	0	0	0	519	413	
9	0	0	0	0	519	412	
10	0	0	0	0	519	412	
11	0	0	0	0	519	413	
12	0	0	0	0	519	412	
13	0	0	0	0	519	412	
14	0	0	0	0	517	412	
15	0	0	0	0	516	412	
0	0	0	0	0	517	412	
1	0	0	0	0	518	411	
2	0	0	0	0	519	411	
3	0	0	0	0	517	412	
4	0	0	0	0	512	411	
5	0	0	0	0	509	411	
6	0	0	0	0	508	411	
7	0	0	0	0	508	410	
8	0	0	0	0	507	411	
9	0	0	0	0	507	411	
10	0	0	0	0	509	411	
11	0	0	0	0	511	412	
12	0	0	0	0	513	412	
13	0	0	0	0	515	411	
14	0	0	0	0	518	411	
15	0	0	0	0	520	410	
0	0	0	0	0	523	411	
1	0	0	0	0	523	411	
2	0	0	0	0	522	411	
3	0	0	0	0	521	412	
4	0	0	0	0	520	411	
5	0	0	0	0	519	411	
6	0	0	0	0	519	411	
7	0	0	0	0	519	411	
8	0	0	0	0	518	411	
9	0	0	0	0	517	411	
10	0	0	0	0	516	412	
11	0	0	0	0	516	412	
12	0	0	0	0	515	411	
13	0	0	0	0	515	412	
14	0	0	0	0	515	411	
15	0	0	0	0	513	411	
0	0	0	0	0	513	412	
1	0	0	0	0	513	412	
2	0	0	0	0	513	412	
3	0	0	0	0	513	412	
4	0	0	0	0	512	412	
5	0	0	0	0	512	412	
6	0	0	0	0	512	412	
7	0	0	0	0	512	411	
8	0	0	0	0	512	412	
9	0	0	0	0	512	412	
10	0	0	0	0	512	411	
11	0	0	0	0	512	412	
12	0	0	0	0	512	412	
13	0	0	0	0	511	412	
14	0	0	0	0	511	412	
15	0	0	0	0	508	412	
0	0	0	0	0	507	412	
1	0	0	0	0	504	412	
2	0	0	0	0	502	412	
3	0	0	0	0	502	412	
4	0	0	0	0	503	412	
5	0	0	0	0	504	412	
6	0	0	0	0	505	412	
7	0	0	0	0	506	412	
8	0	0	0	0	507	412	
9	0	0	0	0	509	412	
10	0	0	0	0	511	412	
11	0	0	0	0	510	412	
12	0	0	0	0	509	412	
13	0	0	0	0	508	412	
14	0	0	0	0	508	412	
15	0	0	0	0	507	412	
0	0	0	0	0	506	413	
1	0	0	0	0	505	412	
2	0	0	0	0	506	412	
3	0	0	0	0	507	413	
4	0	0	0	0	508	412	
5	0	0	0	0	508	412	
6	0	0	0	0	510	413	
7	0	0	0	0	511	412	
8	0	0	0	0	512	412	
9	0	0	0	0	511	412	
10	0	0	0	0	510	412	
11	0	0	0	0	510	413	
12	0	0	0	0	508	413	
13	0	0	0	0	507	413	
14	0	0	0	0	507	413	
15	0	0	0	0	507	411	
0	0	0	0	0	508	412	
1	0	0	0	0	510	412	
2	0	0	0	0	511	412	
3	0	0	0	0	511	412	
4	0	0	0	0	512	412	
5	0	0	0	0	512	411	
6	0	0	0	0	512	412	
7	0	0	0	0	512	411	
8	0	0	0	0	512	412	
9	0	0	0	0	514	412	
10	0	0	0	0	514	411	
11	0	0	0	0	514	412	
12	0	0	0	0	513	411	
13	0	0	0	0	512	411	
14	0	0	0	0	511	410	
15	0	0	0	0	510	410	
0	0	0	0	0	510	410	
1	0	0	0	0	510	410	
2	0	0	0	0	509	409	
3	0	0	0	0	508	411	
4	0	0	0	0	508	411	
5	0	0	0	0	508	410	
6	0	0	0	0	508	411	
7	0	0	0	0	508	410	
8	0	0	0	0	509	411	
9	0	0	0	0	511	411	
10	0	0	0	0	512	411	
11	0	0	0	0	513	411	
12	0	0	0	0	514	410	
13	0	0	0	0	515	411	
14	0	0	0	0	516	411	
15	0	0	0	0	516	410	
0	0	0	0	0	516	411	
1	0	0	0	0	516	411	
2	0	0	0	0	516	412	
3	0	0	0	0	515	412	
4	0	0	0	0	512	412	
5	0	0	0	0	510	413	
6	0	0	0	0	508	413	
7	0	0	0	0	507	412	
8	0	0	0	0	508	412	
9	0	0	0	0	508	412	
10	0	0	0	0	509	412	
11	0	0	0	0	511	414	
12	0	0	0	0	513	413	
13	0	0	0	0	517	413	
14	0	0	0	0	520	413	
15	0	0	0	0	521	413	
0	0	0	0	0	521	413	
1	0	0	0	0	521	414	
2	0	0	0	0	522	413	
3	0	0	0	0	521	414	
4	0	0	0	0	521	413	
5	0	0	0	0	520	413	
6	0	0	0	0	519	413	
7	0	0	0	0	519	413	
8	0	0	0	0	518	413	
9	0	0	0	0	518	413	
10	0	0	0	0	518	412	
11	0	0	0	0	518	413	
12	0	0	0	0	517	412	
13	0	0	0	0	515	412	
14	0	0	0	0	513	412	
15	0	0	0	0	509	412	
0	0	0	0	0	507	412	
1	0	0	0	0	505	412	
2	0	0	0	0	505	411	
3	0	0	0	0	508	412	
4	0	0	0	0	510	411	
5	0	0	0	0	512	411	
6	0	0	0	0	514	411	
7	0	0	0	0	515	411	
8	0	0	0	0	517	411	
9	0	0	0	0	519	411	
10	0	0	0	0	519	412	
11	0	0	0	0	518	412	
12	0	0	0	0	518	411	
13	0	0	0	0	516	411	
14	0	0	0	0	515	411	
15	0	0	0	0	515	410	
0	0	0	0	0	516	411	
1	0	0	0	0	518	410	
2	0	0	0	0	519	411	
3	0	0	0	0	518	411	
4	0	0	0	0	518	411	
5	0	0	0	0	517	410	
6	0	0	0	0	518	411	
7	0	0	0	0	519	411	
8	0	0	0	0	519	411	
9	0	0	0	0	519	410	
10	0	0	0	0	519	411	
11	0	0	0	0	518	412	
12	0	0	0	0	517	411	
13	0	0	0	0	516	411	
14	0	0	0	0	517	411	
15	0	0	0	0	517	411	
0	0	0	0	0	517	412	
1	0	0	0	0	517	412	
2	0	0	0	0	518	412	
3	0	0	0	0	519	412	
4	0	0	0	0	520	412	
5	0	0	0	0	520	411	
6	0	0	0	0	521	411	
7	0	0	0	0	522	411	
8	0	0	0	0	521	412	
9	0	0	0	0	521	412	
10	0	0	0	0	521	412	
11	0	0	0	0	520	412	
12	0	0	0	0	520	412	
13	0	0	0	0	520	412	
14	0	0	0	0	519	412	
15	0	0	0	0	519	412	
0	0	0	0	0	519	412	
1	0	0	0	0	519	412	
2	0	0	0	0	517	412	
3	0	0	0	0	515	413	
4	0	0	0	0	514	412	
5	0	0	0	0	513	412	
6	0	0	0	0	513	412	
7	0	0	0	0	514	412	
8	0	0	0	0	514	413	
9	0	0	0	0	515	413	
10	0	0	0	0	516	413	
11	0	0	0	0	517	414	
12	0	0	0	0	518	414	
13	0	0	0	0	518	413	
14	0	0	0	0	517	412	
15	0	0	0	0	515	413	
0	0	0	0	0	513	412	
1	0	0	0	0	513	412	
2	0	0	0	0	512	412	
3	0	0	0	0	512	413	
4	0	0	0	0	511	412	
5	0	0	0	0	510	412	
6	0	0	0	0	511	412	
7	0	0	0	0	511	411	
8	0	0	0	0	510	412	
9	0	0	0	0	512	412	
10	0	0	0	0	512	412	
11	0	0	0	0	514	412	
12	0	0	0	0	514	411	
13	0	0	0	0	514	411	
14	0	0	0	0	515	411	
15	0	0	0	0	515	411	
0	0	0	0	0	516	411	
1	0	0	0	0	516	409	
2	0	0	0	0	516	410	
3	0	0	0	0	515	411	
4	0	0	0	0	515	410	
5	0	0	0	0	514	409	
6	0	0	0	0	513	410	
7	0	0	0	0	512	409	
8	0	0	0	0	512	410	
9	0	0	0	0	512	409	
10	0	0	0	0	512	409	
11	0	0	0	0	512	410	
12	0	0	0	0	511	410	
13	0	0	0	0	512	410	
14	0	0	0	0	512	410	
15	0	0	0	0	512	410	
0	0	0	0	0	512	410	
1	0	0	0	0	511	410	
2	0	0	0	0	510	411	
3	0	0	0	0	509	412	
4	0	0	0	0	509	410	
5	0	0	0	0	510	410	
6	0	0	0	0	511	411	
7	0	0	0	0	512	411	
8	0	0	0	0	512	412	
9	0	0	0	0	512	412	
10	0	0	0	0	512	412	
11	0	0	0	0	512	413	
12	0	0	0	0	513	412	
13	0	0	0	0	514	412	
14	0	0	0	0	515	412	
15	0	0	0	0	515	412	
0	0	0	0	0	514	413	
1	0	0	0	0	512	413	
2	0	0	0	0	513	413	
3	0	0	0	0	513	414	
4	0	0	0	0	513	413	
5	0	0	0	0	513	413	
6	0	0	0	0	513	412	
7	0	0	0	0	512	412	
8	0	0	0	0	510	413	
9	0	0	0	0	508	413	
10	0	0	0	0	505	413	
11	0	0	0	0	505	414	
12	0	0	0	0	505	413	
13	0	0	0	0	506	413	
14	0	0	0	0	507	413	
15	0	0	0	0	507	413	
0	0	0	0	0	508	413	
1	0	0	0	0	508	413	
2	0	0	0	0	508	413	
3	0	0	0	0	508	414	
4	0	0	0	0	507	412	
5	0	0	0	0	508	412	
6	0	0	0	0	509	413	
7	0	0	0	0	512	413	
8	0	0	0	0	513	412	
9	0	0	0	0	514	412	
10	0	0	0	0	515	412	
11	0	0	0	0	514	413	
12	0	0	0	0	513	412	
13	0	0	0	0	513	413	
14	0	0	0	0	511	412	
15	0	0	0	0	510	412	
0	0	0	0	0	508	412	
1	0	0	0	0	508	412	
2	0	0	0	0	507	412	
3	0	0	0	0	507	413	
4	0	0	0	0	506	413	
5	0	0	0	0	505	412	
6	0	0	0	0	504	412	
7	0	0	0	0	504	412	
8	0	0	0	0	504	413	
9	0	0	0	0	505	413	
10	0	0	0	0	504	413	
11	0	0	0	0	504	413	
12	0	0	0	0	504	412	
13	0	0	0	0	504	413	
14	0	0	0	0	504	412	
15	0	0	0	0	504	412	
0	0	0	0	0	503	413	
1	0	0	0	0	502	413	
2	0	0	0	0	501	413	
3	0	0	0	0	501	414	
4	0	0	0	0	501	413	
5	0	0	0	0	502	412	
6	0	0	0	0	503	413	
7	0	0	0	0	503	412	
8	0	0	0	0	503	412	
9	0	0	0	0	503	412	
10	0	0	0	0	503	412	
11	0	0	0	0	504	413	
12	0	0	0	0	504	413	
13	0	0	0	0	504	413	
14	0	0	0	0	504	412	
15	0	0	0	0	504	412	
0	0	0	0	0	504	412	
1	0	0	0	0	504	412	
2	0	0	0	0	504	412	
3	0	0	0	0	505	412	
4	0	0	0	0	506	412	
5	0	0	0	0	507	412	
6	0	0	0	0	508	412	
7	0	0	0	0	508	412	
8	0	0	0	0	508	412	
9	0	0	0	0	508	412	
10	0	0	0	0	508	412	
11	0	0	0	0	508	413	
12	0	0	0	0	508	412	
13	0	0	0	0	508	412	
14	0	0	0	0	509	412	
15	0	0	0	0	509	411	
0	0	0	0	0	509	412	
1	0	0	0	0	510	412	
2	0	0	0	0	509	412	
3	0	0	0	0	509	412	
4	0	0	0	0	509	411	
5	0	0	0	0	510	411	
6	0	0	0	0	510	412	
7	0	0	0	0	510	411	
8	0	0	0	0	510	411	
9	0	0	0	0	510	412	
10	0	0	0	0	510	411	
11	0	0	0	0	512	413	
12	0	0	0	0	513	412	
13	0	0	0	0	514	412	
14	0	0	0	0	515	411	
15	0	0	0	0	516	411	
0	0	0	0	0	518	411	
1	0	0	0	0	518	411	
2	0	0	0	0	518	411	
3	0	0	0	0	519	412	
4	0	0	0	0	519	411	
5	0	0	0	0	518	411	
6	0	0	0	0	517	411	
7	0	0	0	0	515	411	
8	0	0	0	0	515	411	
9	0	0	0	0	516	411	
10	0	0	0	0	517	411	
11	0	0	0	0	517	412	
12	0	0	0	0	516	411	
13	0	0	0	0	516	411	
14	0	0	0	0	515	411	
15	0	0	0	0	515	411	
0	0	0	0	0	515	412	
1	0	0	0	0	514	411	
2	0	0	0	0	513	412	
3	0	0	0	0	511	412	
4	0	0	0	0	511	412	
5	0	0	0	0	511	411	
6	0	0	0	0	512	412	
7	0	0	0	0	512	411	
8	0	0	0	0	513	411	
9	0	0	0	0	512	412	
10	0	0	0	0	512	412	
11	0	0	0	0	512	413	
12	0	0	0	0	512	411	
13	0	0	0	0	510	412	
14	0	0	0	0	509	412	
15	0	0	0	0	509	412	
0	0	0	0	0	511	412	
1	0	0	0	0	512	412	
2	0	0	0	0	513	412	
3	0	0	0	0	512	413	
4	0	0	0	0	513	412	
5	0	0	0	0	513	412	
6	0	0	0	0	514	411	
7	0	0	0	0	513	412	
8	0	0	0	0	513	412	
9	0	0	0	0	512	412	
10	0	0	0	0	509	411	
11	0	0	0	0	507	413	
12	0	0	0	0	505	411	
13	0	0	0	0	504	411	
14	0	0	0	0	504	412	
15	0	0	0	0	505	411	
0	0	0	0	0	506	411	
1	0	0	0	0	507	411	
2	0	0	0	0	508	411	
3	0	0	0	0	509	412	
4	0	0	0	0	510	412	
5	0	0	0	0	512	411	
6	0	0	0	0	512	411	
7	0	0	0	0	512	411	
8	0	0	0	0	511	411	
9	0	0	0	0	511	411	
10	0	0	0	0	511	411	
11	0	0	0	0	511	412	
12	0	0	0	0	511	412	
13	0	0	0	0	510	412	
14	0	0	0	0	509	412	
15	0	0	0	0	508	411	
0	0	0	0	0	509	411	
1	0	0	0	0	509	411	
2	0	0	0	0	507	410	
3	0	0	0	0	504	412	
4	0	0	0	0	501	411	
5	0	0	0	0	500	411	
6	0	0	0	0	501	412	
7	0	0	0	0	502	411	
8	0	0	0	0	503	412	
9	0	0	0	0	504	412	
10	0	0	0	0	504	412	
11	0	0	0	0	504	412	
12	0	0	0	0	504	412	
13	0	0	0	0	505	412	
14	0	0	0	0	507	412	
15	0	0	0	0	509	412	
0	0	0	0	0	510	412	
1	0	0	0	0	511	412	
2	0	0	0	0	512	412	
3	0	0	0	0	513	414	
4	0	0	0	0	513	413	
5	0	0	0	0	514	413	
6	0	0	0	0	514	412	
7	0	0	0	0	512	412	
8	0	0	0	0	511	413	
9	0	0	0	0	510	412	
10	0	0	0	0	509	412	
11	0	0	0	0	510	413	
12	0	0	0	0	510	413	
13	0	0	0	0	509	412	
14	0	0	0	0	506	412	
15	0	0	0	0	503	412	
0	0	0	0	0	497	413	
1	0	0	0	0	489	412	
2	0	0	0	0	480	413	
3	0	0	0	0	470	413	
4	0	0	0	0	458	413	
5	0	0	0	0	449	413	
6	0	0	0	0	443	413	
7	0	0	0	0	438	413	
8	0	0	0	0	436	413	
9	0	0	0	0	437	413	
10	0	0	0	0	439	412	
11	0	0	0	0	441	413	
12	0	0	0	0	444	412	
13	0	0	0	0	446	413	
14	0	0	0	0	449	413	
15	0	0	0	0	454	412	
0	0	0	0	0	461	413	
1	0	0	0	0	468	412	
2	0	0	0	0	475	411	
3	0	0	0	0	484	412	
4	0	0	0	0	498	411	
5	0	0	0	0	515	411	
6	0	0	0	0	535	411	
7	0	0	0	0	555	410	
8	0	0	0	0	577	410	
9	0	0	0	0	605	410	
10	0	0	0	0	633	410	
11	0	0	0	0	665	411	
12	0	0	0	0	699	409	
13	0	0	0	0	735	410	
14	0	0	0	0	773	410	
15	0	0	0	0	811	409	
0	0	0	0	0	847	409	
1	0	0	0	0	880	409	
2	0	0	0	0	908	410	
3	0	0	0	0	929	411	
4	0	0	0	0	945	410	
5	0	0	0	0	956	410	
6	0	0	0	0	963	411	
7	0	0	0	0	967	411	
8	0	0	0	0	968	411	
9	0	0	0	0	961	411	
10	0	0	0	0	948	411	
11	0	0	0	0	931	412	
12	0	0	0	0	910	412	
13	0	0	0	0	885	412	
14	0	0	0	0	858	412	
15	0	0	0	0	831	412	
0	0	0	0	0	806	412	
1	0	0	0	0	781	412	
2	0	0	0	0	757	412	
3	0	0	0	0	732	413	
4	0	0	0	0	706	412	
5	0	0	0	0	680	412	
6	0	0	0	0	655	412	
7	0	0	0	0	631	412	
8	0	0	0	0	606	412	
9	0	0	0	0	583	412	
10	0	0	0	0	561	413	
11	0	0	0	0	543	414	
12	0	0	0	0	524	413	
13	0	0	0	0	507	413	
14	0	0	0	0	492	412	
15	0	0	0	0	478	412	
0	0	0	0	0	467	413	
1	0	0	0	0	458	412	
2	0	0	0	0	450	413	
3	0	0	0	0	443	414	
4	0	0	0	0	437	413	
5	0	0	0	0	431	413	
6	0	0	0	0	424	413	
7	0	0	0	0	419	412	
8	0	0	0	0	414	412	
9	0	0	0	0	409	413	
10	0	0	0	0	406	413	
11	0	0	0	0	403	414	
12	0	0	0	0	400	413	
13	0	0	0	0	397	412	
14	0	0	0	0	394	412	
15	0	0	0	0	392	411	
0	0	0	0	0	390	412	
1	0	0	0	0	388	412	
2	0	0	0	0	387	412	
3	0	0	0	0	385	412	
4	0	0	0	0	385	412	
5	0	0	0	0	386	412	
6	0	0	0	0	387	412	
7	0	0	0	0	388	411	
8	0	0	0	0	390	412	
9	0	0	0	0	391	412	
10	0	0	0	0	392	412	
11	0	0	0	0	393	412	
12	0	0	0	0	393	412	
13	0	0	0	0	393	412	
14	0	0	0	0	393	412	
15	0	0	0	0	393	412	
0	0	0	0	0	393	412	
1	0	0	0	0	394	412	
2	0	0	0	0	394	412	
3	0	0	0	0	394	413	
4	0	0	0	0	395	412	
5	0	0	0	0	396	411	
6	0	0	0	0	397	412	
7	0	0	0	0	398	411	
8	0	0	0	0	399	412	
9	0	0	0	0	399	412	
10	0	0	0	0	400	412	
11	0	0	0	0	401	413	
12	0	0	0	0	401	412	
13	0	0	0	0	402	412	
14	0	0	0	0	404	413	
15	0	0	0	0	405	411	
0	0	0	0	0	407	412	
1	0	0	0	0	408	412	
2	0	0	0	0	409	412	
3	0	0	0	0	409	412	
4	0	0	0	0	411	412	
5	0	0	0	0	412	412	
6	0	0	0	0	412	411	
7	0	0	0	0	413	412	
8	0	0	0	0	414	412	
9	0	0	0	0	414	412	
10	0	0	0	0	415	412	
11	0	0	0	0	415	412	
12	0	0	0	0	416	412	
13	0	0	0	0	417	412	
14	0	0	0	0	417	412	
15	0	0	0	0	416	412	
0	0	0	0	0	415	412	
1	0	0	0	0	414	412	
2	0	0	0	0	413	412	
3	0	0	0	0	413	412	
4	0	0	0	0	414	412	
5	0	0	0	0	417	411	
6	0	0	0	0	419	412	
7	0	0	0	0	420	411	
8	0	0	0	0	423	412	
9	0	0	0	0	424	411	
10	0	0	0	0	427	412	
11	0	0	0	0	428	413	
12	0	0	0	0	426	412	
13	0	0	0	0	425	412	
14	0	0	0	0	426	412	
15	0	0	0	0	428	411	
0	0	0	0	0	429	412	
1	0	0	0	0	430	412	
2	0	0	0	0	431	411	
3	0	0	0	0	433	412	
4	0	0	0	0	435	411	
5	0	0	0	0	437	411	
6	0	0	0	0	437	412	
7	0	0	0	0	437	412	
8	0	0	0	0	438	411	
9	0	0	0	0	439	411	
10	0	0	0	0	441	411	
11	0	0	0	0	443	411	
12	0	0	0	0	445	411	
13	0	0	0	0	447	411	
14	0	0	0	0	449	410	
15	0	0	0	0	451	410	
0	0	0	0	0	451	411	
1	0	0	0	0	450	411	
2	0	0	0	0	449	411	
3	0	0	0	0	448	412	
4	0	0	0	0	449	411	
5	0	0	0	0	449	410	
6	0	0	0	0	451	410	
7	0	0	0	0	451	410	
8	0	0	0	0	451	411	
9	0	0	0	0	451	410	
10	0	0	0	0	450	410	
11	0	0	0	0	449	411	
12	0	0	0	0	449	411	
13	0	0	0	0	449	410	
14	0	0	0	0	449	411	
15	0	0	0	0	448	411	
0	0	0	0	0	447	410	
1	0	0	0	0	447	411	
2	0	0	0	0	448	411	
3	0	0	0	0	450	412	
4	0	0	0	0	451	411	
5	0	0	0	0	452	412	
6	0	0	0	0	453	412	
7	0	0	0	0	453	411	
8	0	0	0	0	455	412	
9	0	0	0	0	456	412	
10	0	0	0	0	457	412	
11	0	0	0	0	457	412	
12	0	0	0	0	457	413	
13	0	0	0	0	457	413	
14	0	0	0	0	456	413	
15	0	0	0	0	456	412	
0	0	0	0	0	456	413	
1	0	0	0	0	456	412	
2	0	0	0	0	457	412	
3	0	0	0	0	458	412	
4	0	0	0	0	457	412	
5	0	0	0	0	456	412	
6	0	0	0	0	455	412	
7	0	0	0	0	455	412	
8	0	0	0	0	455	413	
9	0	0	0	0	455	412	
10	0	0	0	0	456	412	
11	0	0	0	0	457	413	
12	0	0	0	0	458	412	
13	0	0	0	0	459	412	
14	0	0	0	0	459	413	
15	0	0	0	0	460	412	
0	0	0	0	0	461	413	
1	0	0	0	0	462	412	
2	0	0	0	0	463	412	
3	0	0	0	0	462	414	
4	0	0	0	0	462	412	
5	0	0	0	0	461	412	
6	0	0	0	0	460	412	
7	0	0	0	0	457	412	
8	0	0	0	0	455	413	
9	0	0	0	0	455	412	
10	0	0	0	0	457	412	
11	0	0	0	0	459	413	
12	0	0	0	0	462	413	
13	0	0	0	0	464	413	
14	0	0	0	0	465	413	
15	0	0	0	0	467	412	
0	0	0	0	0	469	413	
1	0	0	0	0	471	413	
2	0	0	0	0	471	412	
3	0	0	0	0	472	413	
4	0	0	0	0	472	412	
5	0	0	0	0	472	413	
6	0	0	0	0	472	413	
7	0	0	0	0	472	412	
8	0	0	0	0	473	412	
9	0	0	0	0	473	412	
10	0	0	0	0	474	412	
11	0	0	0	0	476	413	
12	0	0	0	0	477	413	
13	0	0	0	0	478	412	
14	0	0	0	0	479	412	
15	0	0	0	0	480	412	
0	0	0	0	0	481	412	
1	0	0	0	0	483	412	
2	0	0	0	0	484	412	
3	0	0	0	0	485	412	
4	0	0	0	0	487	412	
5	0	0	0	0	487	412	
6	0	0	0	0	486	412	
7	0	0	0	0	485	412	
8	0	0	0	0	484	412	
9	0	0	0	0	485	412	
10	0	0	0	0	487	412	
11	0	0	0	0	488	413	
12	0	0	0	0	491	412	
13	0	0	0	0	493	412	
14	0	0	0	0	496	411	
15	0	0	0	0	498	411	
0	0	0	0	0	499	411	
1	0	0	0	0	500	411	
2	0	0	0	0	501	411	
3	0	0	0	0	502	411	
4	0	0	0	0	503	411	
5	0	0	0	0	504	411	
6	0	0	0	0	504	411	
7	0	0	0	0	504	410	
8	0	0	0	0	505	411	
9	0	0	0	0	505	411	
10	0	0	0	0	505	411	
11	0	0	0	0	506	412	
12	0	0	0	0	506	411	
13	0	0	0	0	506	411	
14	0	0	0	0	505	412	
15	0	0	0	0	505	410	
0	0	0	0	0	506	411	
1	0	0	0	0	509	411	
2	0	0	0	0	511	411	
3	0	0	0	0	513	412	
4	0	0	0	0	514	411	
5	0	0	0	0	515	411	
6	0	0	0	0	514	412	
7	0	0	0	0	514	411	
8	0	0	0	0	514	411	
9	0	0	0	0	515	411	
10	0	0	0	0	517	411	
11	0	0	0	0	519	411	
12	0	0	0	0	520	411	
13	0	0	0	0	522	411	
14	0	0	0	0	524	411	
15	0	0	0	0	526	412	
0	0	0	0	0	527	412	
1	0	0	0	0	529	412	
2	0	0	0	0	530	412	
3	0	0	0	0	530	413	
4	0	0	0	0	531	412	
5	0	0	0	0	531	412	
6	0	0	0	0	532	412	
7	0	0	0	0	532	412	
8	0	0	0	0	531	412	
9	0	0	0	0	531	412	
10	0	0	0	0	531	412	
11	0	0	0	0	531	412	
12	0	0	0	0	530	412	
13	0	0	0	0	530	411	
14	0	0	0	0	529	411	
15	0	0	0	0	529	411	
0	0	0	0	0	528	411	
1	0	0	0	0	528	411	
2	0	0	0	0	528	412	
3	0	0	0	0	528	413	
4	0	0	0	0	528	412	
5	0	0	0	0	527	412	
6	0	0	0	0	527	411	
7	0	0	0	0	527	412	
8	0	0	0	0	527	412	
9	0	0	0	0	527	412	
10	0	0	0	0	526	412	
11	0	0	0	0	526	413	
12	0	0	0	0	525	412	
13	0	0	0	0	525	412	
14	0	0	0	0	525	412	
15	0	0	0	0	525	412	
0	0	0	0	0	525	412	
1	0	0	0	0	524	413	
2	0	0	0	0	525	413	
3	0	0	0	0	525	414	
4	0	0	0	0	526	413	
5	0	0	0	0	526	413	
6	0	0	0	0	525	413	
7	0	0	0	0	526	413	
8	0	0	0	0	526	413	
9	0	0	0	0	525	413	
10	0	0	0	0	523	412	
11	0	0	0	0	522	414	
12	0	0	0	0	521	412	
13	0	0	0	0	521	412	
14	0	0	0	0	521	412	
15	0	0	0	0	519	412	
0	0	0	0	0	517	412	
1	0	0	0	0	517	412	
2	0	0	0	0	518	412	
3	0	0	0	0	519	412	
4	0	0	0	0	520	412	
5	0	0	0	0	521	412	
6	0	0	0	0	522	412	
7	0	0	0	0	524	412	
8	0	0	0	0	526	412	
9	0	0	0	0	527	412	
10	0	0	0	0	529	412	
11	0	0	0	0	530	413	
12	0	0	0	0	530	411	
13	0	0	0	0	527	412	
14	0	0	0	0	525	412	
15	0	0	0	0	522	412	
0	0	0	0	0	520	411	
1	0	0	0	0	520	412	
2	0	0	0	0	522	411	
3	0	0	0	0	524	412	
4	0	0	0	0	524	412	
5	0	0	0	0	526	411	
6	0	0	0	0	527	411	
7	0	0	0	0	528	411	
8	0	0	0	0	528	411	
9	0	0	0	0	527	412	
10	0	0	0	0	528	411	
11	0	0	0	0	529	412	
12	0	0	0	0	529	411	
13	0	0	0	0	529	411	
14	0	0	0	0	528	411	
15	0	0	0	0	528	411	
0	0	0	0	0	528	411	
1	0	0	0	0	529	411	
2	0	0	0	0	530	411	
3	0	0	0	0	529	412	
4	0	0	0	0	529	411	
5	0	0	0	0	529	412	
6	0	0	0	0	529	412	
7	0	0	0	0	528	411	
8	0	0	0	0	527	412	
9	0	0	0	0	527	411	
10	0	0	0	0	526	411	
11	0	0	0	0	527	413	
12	0	0	0	0	526	412	
13	0	0	0	0	525	412	
14	0	0	0	0	524	412	
15	0	0	0	0	522	412	
0	0	0	0	0	520	412	
1	0	0	0	0	519	412	
2	0	0	0	0	519	413	
3	0	0	0	0	519	413	
4	0	0	0	0	520	412	
5	0	0	0	0	521	412	
6	0	0	0	0	522	412	
7	0	0	0	0	522	412	
8	0	0	0	0	523	412	
9	0	0	0	0	524	412	
10	0	0	0	0	524	412	
11	0	0	0	0	524	412	
12	0	0	0	0	523	412	
13	0	0	0	0	523	412	
14	0	0	0	0	523	411	
15	0	0	0	0	522	411	
0	0	0	0	0	521	411	
1	0	0	0	0	521	412	
2	0	0	0	0	520	412	
3	0	0	0	0	520	412	
4	0	0	0	0	519	412	
5	0	0	0	0	519	411	
6	0	0	0	0	519	411	
7	0	0	0	0	519	411	
8	0	0	0	0	519	411	
9	0	0	0	0	519	411	
10	0	0	0	0	519	411	
11	0	0	0	0	517	412	
12	0	0	0	0	517	411	
13	0	0	0	0	516	411	
14	0	0	0	0	518	411	
15	0	0	0	0	518	411	
0	0	0	0	0	515	411	
1	0	0	0	0	514	411	
2	0	0	0	0	515	411	
3	0	0	0	0	518	413	
4	0	0	0	0	520	412	
5	0	0	0	0	522	412	
6	0	0	0	0	523	412	
7	0	0	0	0	525	412	
8	0	0	0	0	528	412	
9	0	0	0	0	529	412	
10	0	0	0	0	529	412	
11	0	0	0	0	528	413	
12	0	0	0	0	527	412	
13	0	0	0	0	527	413	
14	0	0	0	0	527	412	
15	0	0	0	0	526	412	
0	0	0	0	0	524	413	
1	0	0	0	0	523	412	
2	0	0	0	0	522	412	
3	0	0	0	0	521	412	
4	0	0	0	0	522	412	
5	0	0	0	0	523	412	
6	0	0	0	0	523	412	
7	0	0	0	0	523	412	
8	0	0	0	0	524	412	
9	0	0	0	0	524	412	
10	0	0	0	0	524	412	
11	0	0	0	0	524	413	
12	0	0	0	0	524	412	
13	0	0	0	0	524	413	
14	0	0	0	0	524	411	
15	0	0	0	0	524	411	
0	0	0	0	0	525	412	
1	0	0	0	0	526	412	
2	0	0	0	0	527	412	
3	0	0	0	0	526	412	
4	0	0	0	0	527	412	
5	0	0	0	0	527	411	
6	0	0	0	0	527	411	
7	0	0	0	0	526	412	
8	0	0	0	0	525	412	
9	0	0	0	0	524	411	
10	0	0	0	0	524	412	
11	0	0	0	0	525	413	
12	0	0	0	0	525	412	
13	0	0	0	0	525	412	
14	0	0	0	0	526	412	
15	0	0	0	0	527	412	
0	0	0	0	0	528	412	
1	0	0	0	0	528	412	
2	0	0	0	0	528	412	
3	0	0	0	0	528	414	
4	0	0	0	0	527	413	
5	0	0	0	0	528	413	
6	0	0	0	0	528	413	
7	0	0	0	0	528	413	
8	0	0	0	0	528	412	
9	0	0	0	0	527	412	
10	0	0	0	0	524	412	
11	0	0	0	0	524	413	
12	0	0	0	0	524	413	
13	0	0	0	0	525	412	
14	0	0	0	0	526	412	
15	0	0	0	0	527	412	
0	0	0	0	0	526	412	
1	0	0	0	0	526	412	
2	0	0	0	0	525	412	
3	0	0	0	0	525	413	
4	0	0	0	0	527	413	
5	0	0	0	0	528	412	
6	0	0	0	0	529	413	
7	0	0	0	0	529	412	
8	0	0	0	0	530	412	
9	0	0	0	0	530	412	
10	0	0	0	0	531	412	
11	0	0	0	0	531	412	
12	0	0	0	0	531	412	
13	0	0	0	0	531	412	
14	0	0	0	0	530	412	
15	0	0	0	0	530	411	
0	0	0	0	0	529	411	
1	0	0	0	0	529	412	
2	0	0	0	0	527	411	
3	0	0	0	0	528	412	
4	0	0	0	0	529	411	
5	0	0	0	0	530	411	
6	0	0	0	0	530	411	
7	0	0	0	0	530	410	
8	0	0	0	0	529	410	
9	0	0	0	0	530	411	
10	0	0	0	0	530	411	
11	0	0	0	0	530	412	
12	0	0	0	0	528	411	
13	0	0	0	0	529	411	
14	0	0	0	0	529	411	
15	0	0	0	0	529	410	
0	0	0	0	0	529	410	
1	0	0	0	0	528	410	
2	0	0	0	0	527	410	
3	0	0	0	0	524	411	
4	0	0	0	0	523	411	
5	0	0	0	0	522	411	
6	0	0	0	0	523	410	
7	0	0	0	0	524	410	
8	0	0	0	0	524	411	
9	0	0	0	0	525	410	
10	0	0	0	0	526	410	
11	0	0	0	0	527	411	
12	0	0	0	0	526	410	
13	0	0	0	0	524	411	
14	0	0	0	0	523	411	
15	0	0	0	0	521	410	
0	0	0	0	0	521	411	
1	0	0	0	0	520	411	
2	0	0	0	0	520	411	
3	0	0	0	0	520	411	
4	0	0	0	0	521	411	
5	0	0	0	0	522	411	
6	0	0	0	0	523	410	
7	0	0	0	0	523	411	
8	0	0	0	0	523	411	
9	0	0	0	0	523	412	
10	0	0	0	0	524	411	
11	0	0	0	0	525	412	
12	0	0	0	0	524	412	
13	0	0	0	0	524	412	
14	0	0	0	0	524	412	
15	0	0	0	0	524	411	
0	0	0	0	0	524	412	
1	0	0	0	0	524	412	
2	0	0	0	0	524	411	
3	0	0	0	0	525	412	
4	0	0	0	0	524	412	
5	0	0	0	0	522	412	
6	0	0	0	0	521	412	
7	0	0	0	0	521	412	
8	0	0	0	0	522	412	
9	0	0	0	0	524	412	
10	0	0	0	0	525	412	
11	0	0	0	0	524	413	
12	0	0	0	0	524	413	
13	0	0	0	0	523	413	
14	0	0	0	0	521	413	
15	0	0	0	0	521	414	
0	0	0	0	0	523	413	
1	0	0	0	0	524	412	
2	0	0	0	0	524	413	
3	0	0	0	0	523	413	
4	0	0	0	0	522	413	
5	0	0	0	0	521	413	
6	0	0	0	0	521	413	
7	0	0	0	0	521	412	
8	0	0	0	0	520	413	
9	0	0	0	0	520	413	
10	0	0	0	0	521	413	
11	0	0	0	0	520	414	
12	0	0	0	0	519	412	
13	0	0	0	0	520	413	
14	0	0	0	0	521	413	
15	0	0	0	0	522	413	
0	0	0	0	0	522	413	
1	0	0	0	0	521	412	
2	0	0	0	0	520	412	
3	0	0	0	0	520	412	
4	0	0	0	0	520	413	
5	0	0	0	0	519	412	
6	0	0	0	0	519	412	
7	0	0	0	0	518	411	
8	0	0	0	0	519	412	
9	0	0	0	0	518	411	
10	0	0	0	0	519	412	
11	0	0	0	0	519	412	
12	0	0	0	0	519	412	
13	0	0	0	0	518	412	
14	0	0	0	0	518	412	
15	0	0	0	0	516	411	
0	0	0	0	0	517	412	
1	0	0	0	0	517	411	
2	0	0	0	0	518	412	
3	0	0	0	0	518	412	
4	0	0	0	0	517	411	
5	0	0	0	0	517	411	
6	0	0	0	0	516	412	
7	0	0	0	0	516	411	
8	0	0	0	0	515	411	
9	0	0	0	0	515	411	
10	0	0	0	0	515	411	
11	0	0	0	0	515	412	
12	0	0	0	0	515	411	
13	0	0	0	0	514	411	
14	0	0	0	0	513	412	
15	0	0	0	0	512	410	
0	0	0	0	0	510	411	
1	0	0	0	0	509	411	
2	0	0	0	0	508	412	
3	0	0	0	0	509	413	
4	0	0	0	0	511	412	
5	0	0	0	0	515	412	
6	0	0	0	0	518	412	
7	0	0	0	0	519	412	
8	0	0	0	0	521	412	
9	0	0	0	0	522	412	
10	0	0	0	0	522	412	
11	0	0	0	0	523	412	
12	0	0	0	0	524	412	
13	0	0	0	0	523	412	
14	0	0	0	0	521	412	
15	0	0	0	0	518	412	
0	0	0	0	0	516	412	
1	0	0	0	0	515	412	
2	0	0	0	0	515	412	
3	0	0	0	0	515	413	
4	0	0	0	0	515	413	
5	0	0	0	0	516	412	
6	0	0	0	0	515	412	
7	0	0	0	0	514	412	
8	0	0	0	0	516	412	
9	0	0	0	0	519	412	
10	0	0	0	0	521	412	
11	0	0	0	0	520	413	
12	0	0	0	0	519	412	
13	0	0	0	0	518	412	
14	0	0	0	0	518	412	
15	0	0	0	0	519	412	
0	0	0	0	0	518	412	
1	0	0	0	0	518	412	
2	0	0	0	0	517	412	
3	0	0	0	0	516	413	
4	0	0	0	0	516	412	
5	0	0	0	0	516	412	
6	0	0	0	0	516	411	
7	0	0	0	0	516	410	
8	0	0	0	0	515	411	
9	0	0	0	0	515	411	
10	0	0	0	0	514	411	
11	0	0	0	0	513	411	
12	0	0	0	0	512	411	
13	0	0	0	0	512	410	
14	0	0	0	0	511	410	
15	0	0	0	0	510	410	
0	0	0	0	0	508	410	
1	0	0	0	0	508	411	
2	0	0	0	0	508	411	
3	0	0	0	0	510	412	
4	0	0	0	0	511	411	
5	0	0	0	0	511	412	
6	0	0	0	0	510	411	
7	0	0	0	0	510	411	
8	0	0	0	0	509	412	
9	0	0	0	0	509	412	
10	0	0	0	0	508	411	
11	0	0	0	0	508	412	
12	0	0	0	0	508	412	
13	0	0	0	0	507	412	
14	0	0	0	0	505	412	
15	0	0	0	0	504	412	
0	0	0	0	0	503	412	
1	0	0	0	0	504	412	
2	0	0	0	0	504	414	
3	0	0	0	0	504	414	
4	0	0	0	0	504	413	
5	0	0	0	0	503	413	
6	0	0	0	0	503	412	
7	0	0	0	0	503	412	
8	0	0	0	0	504	413	
9	0	0	0	0	505	413	
10	0	0	0	0	506	412	
11	0	0	0	0	505	413	
12	0	0	0	0	506	412	
13	0	0	0	0	508	412	
14	0	0	0	0	509	413	
15	0	0	0	0	509	412	
0	0	0	0	0	509	411	
1	0	0	0	0	510	412	
2	0	0	0	0	509	412	
3	0	0	0	0	510	413	
4	0	0	0	0	512	411	
5	0	0	0	0	512	412	
6	0	0	0	0	514	412	
7	0	0	0	0	515	411	
8	0	0	0	0	516	412	
9	0	0	0	0	516	412	
10	0	0	0	0	515	412	
11	0	0	0	0	515	412	
12	0	0	0	0	513	411	
13	0	0	0	0	515	412	
14	0	0	0	0	515	412	
15	0	0	0	0	514	412	
0	0	0	0	0	513	412	
1	0	0	0	0	511	412	
2	0	0	0	0	510	412	
3	0	0	0	0	511	413	
4	0	0	0	0	514	412	
5	0	0	0	0	516	412	
6	0	0	0	0	519	412	
7	0	0	0	0	520	412	
8	0	0	0	0	522	412	
9	0	0	0	0	523	412	
10	0	0	0	0	523	412	
11	0	0	0	0	523	413	
12	0	0	0	0	523	411	
13	0	0	0	0	523	411	
14	0	0	0	0	523	411	
15	0	0	0	0	524	412	
0	0	0	0	0	524	412	
1	0	0	0	0	525	412	
2	0	0	0	0	525	411	
3	0	0	0	0	526	412	
4	0	0	0	0	526	412	
5	0	0	0	0	525	412	
6	0	0	0	0	524	412	
7	0	0	0	0	525	412	
8	0	0	0	0	525	413	
9	0	0	0	0	523	413	
10	0	0	0	0	521	413	
11	0	0	0	0	520	414	
12	0	0	0	0	519	413	
13	0	0	0	0	517	413	
14	0	0	0	0	514	412	
15	0	0	0	0	511	412	
0	0	0	0	0	509	412	
1	0	0	0	0	509	412	
2	0	0	0	0	508	412	
3	0	0	0	0	510	414	
4	0	0	0	0	512	412	
5	0	0	0	0	513	413	
6	0	0	0	0	514	412	
7	0	0	0	0	514	412	
8	0	0	0	0	516	413	
9	0	0	0	0	518	412	
10	0	0	0	0	518	412	
11	0	0	0	0	519	413	
12	0	0	0	0	519	412	
13	0	0	0	0	518	412	
14	0	0	0	0	517	412	
15	0	0	0	0	517	411	
0	0	0	0	0	518	412	
1	0	0	0	0	518	412	
2	0	0	0	0	519	412	
3	0	0	0	0	519	412	
4	0	0	0	0	519	412	
5	0	0	0	0	520	411	
6	0	0	0	0	520	412	
7	0	0	0	0	520	411	
8	0	0	0	0	519	411	
9	0	0	0	0	519	412	
10	0	0	0	0	518	411	
11	0	0	0	0	516	412	
12	0	0	0	0	516	411	
13	0	0	0	0	516	411	
14	0	0	0	0	515	411	
15	0	0	0	0	516	411	
0	0	0	0	0	516	411	
1	0	0	0	0	516	412	
2	0	0	0	0	515	412	
3	0	0	0	0	515	412	
4	0	0	0	0	515	412	
5	0	0	0	0	515	412	
6	0	0	0	0	515	412	
7	0	0	0	0	514	411	
8	0	0	0	0	513	411	
9	0	0	0	0	512	412	
10	0	0	0	0	512	411	
11	0	0	0	0	512	412	
12	0	0	0	0	512	411	
13	0	0	0	0	512	412	
14	0	0	0	0	513	411	
15	0	0	0	0	513	411	
0	0	0	0	0	513	411	
1	0	0	0	0	512	411	
2	0	0	0	0	512	410	
3	0	0	0	0	513	411	
4	0	0	0	0	513	410	
5	0	0	0	0	513	410	
6	0	0	0	0	512	410	
7	0	0	0	0	512	410	
8	0	0	0	0	513	410	
9	0	0	0	0	512	411	
10	0	0	0	0	513	411	
11	0	0	0	0	512	412	
12	0	0	0	0	512	411	
13	0	0	0	0	513	411	
14	0	0	0	0	513	411	
15	0	0	0	0	514	412	
0	0	0	0	0	515	412	
1	0	0	0	0	515	412	
2	0	0	0	0	515	412	
3	0	0	0	0	515	413	
4	0	0	0	0	515	412	
5	0	0	0	0	515	413	
6	0	0	0	0	515	412	
7	0	0	0	0	514	413	
8	0	0	0	0	512	412	
9	0	0	0	0	511	412	
10	0	0	0	0	507	413	
11	0	0	0	0	501	413	
12	0	0	0	0	492	413	
13	0	0	0	0	481	413	
14	0	0	0	0	470	412	
15	0	0	0	0	459	412	
0	0	0	0	0	450	413	
1	0	0	0	0	444	413	
2	0	0	0	0	440	413	
3	0	0	0	0	437	414	
4	0	0	0	0	435	413	
5	0	0	0	0	438	414	
6	0	0	0	0	440	412	
7	0	0	0	0	441	412	
8	0	0	0	0	443	412	
9	0	0	0	0	447	412	
10	0	0	0	0	451	413	
11	0	0	0	0	458	412	
12	0	0	0	0	465	412	
13	0	0	0	0	473	412	
14	0	0	0	0	483	412	
15	0	0	0	0	497	411	
0	0	0	0	0	515	412	
1	0	0	0	0	535	412	
2	0	0	0	0	559	412	
3	0	0	0	0	587	412	
4	0	0	0	0	616	412	
5	0	0	0	0	648	411	
6	0	0	0	0	680	411	
7	0	0	0	0	718	411	
8	0	0	0	0	757	411	
9	0	0	0	0	798	410	
10	0	0	0	0	839	411	
11	0	0	0	0	878	411	
12	0	0	0	0	914	410	
13	0	0	0	0	946	411	
14	0	0	0	0	971	411	
15	0	0	0	0	990	410	
0	0	0	0	0	1003	410	
1	0	0	0	0	1014	410	
2	0	0	0	0	1020	410	
3	0	0	0	0	1021	411	
4	0	0	0	0	1019	411	
5	0	0	0	0	1007	411	
6	0	0	0	0	988	411	
7	0	0	0	0	965	411	
8	0	0	0	0	940	412	
9	0	0	0	0	912	411	
10	0	0	0	0	882	412	
11	0	0	0	0	852	412	
12	0	0	0	0	821	412	
13	0	0	0	0	793	412	
14	0	0	0	0	765	412	
15	0	0	0	0	736	411	
0	0	0	0	0	708	412	
1	0	0	0	0	681	411	
2	0	0	0	0	655	412	
3	0	0	0	0	628	413	
4	0	0	0	0	600	411	
5	0	0	0	0	573	412	
6	0	0	0	0	549	412	
7	0	0	0	0	527	411	
8	0	0	0	0	509	412	
9	0	0	0	0	491	412	
10	0	0	0	0	475	412	
11	0	0	0	0	460	412	
12	0	0	0	0	448	412	
13	0	0	0	0	439	412	
14	0	0	0	0	431	412	
15	0	0	0	0	423	412	
0	0	0	0	0	417	412	
1	0	0	0	0	411	412	
2	0	0	0	0	406	412	
3	0	0	0	0	400	412	
4	0	0	0	0	396	412	
5	0	0	0	0	392	412	
6	0	0	0	0	390	412	
7	0	0	0	0	389	411	
8	0	0	0	0	388	412	
9	0	0	0	0	386	412	
10	0	0	0	0	384	411	
11	0	0	0	0	382	413	
12	0	0	0	0	380	412	
13	0	0	0	0	379	412	
14	0	0	0	0	379	412	
15	0	0	0	0	380	412	
0	0	0	0	0	380	412	
1	0	0	0	0	380	413	
2	0	0	0	0	381	412	
3	0	0	0	0	382	414	
4	0	0	0	0	382	412	
5	0	0	0	0	381	412	
6	0	0	0	0	381	412	
7	0	0	0	0	381	412	
8	0	0	0	0	381	412	
9	0	0	0	0	381	411	
10	0	0	0	0	382	412	
11	0	0	0	0	383	413	
12	0	0	0	0	383	412	
13	0	0	0	0	384	412	
14	0	0	0	0	385	412	
15	0	0	0	0	386	412	
0	0	0	0	0	387	411	
1	0	0	0	0	387	412	
2	0	0	0	0	386	412	
3	0	0	0	0	386	412	
4	0	0	0	0	388	412	
5	0	0	0	0	392	411	
6	0	0	0	0	395	411	
7	0	0	0	0	398	412	
8	0	0	0	0	399	412	
9	0	0	0	0	401	412	
10	0	0	0	0	403	411	
11	0	0	0	0	404	412	
12	0	0	0	0	405	412	
13	0	0	0	0	406	411	
14	0	0	0	0	405	412	
15	0	0	0	0	404	411	
0	0	0	0	0	403	412	
1	0	0	0	0	406	411	
2	0	0	0	0	408	411	
3	0	0	0	0	408	412	
4	0	0	0	0	409	411	
5	0	0	0	0	411	411	
6	0	0	0	0	414	411	
7	0	0	0	0	415	411	
8	0	0	0	0	416	412	
9	0	0	0	0	417	411	
10	0	0	0	0	418	411	
11	0	0	0	0	419	412	
12	0	0	0	0	420	411	
13	0	0	0	0	421	411	
14	0	0	0	0	421	412	
15	0	0	0	0	421	412	
0	0	0	0	0	421	412	
1	0	0	0	0	421	412	
2	0	0	0	0	422	411	
3	0	0	0	0	423	412	
4	0	0	0	0	423	411	
5	0	0	0	0	423	411	
6	0	0	0	0	423	411	
7	0	0	0	0	423	412	
8	0	0	0	0	423	411	
9	0	0	0	0	423	411	
10	0	0	0	0	424	412	
11	0	0	0	0	427	412	
12	0	0	0	0	428	412	
13	0	0	0	0	430	412	
14	0	0	0	0	431	412	
15	0	0	0	0	431	412	
0	0	0	0	0	432	412	
1	0	0	0	0	433	412	
2	0	0	0	0	434	413	
3	0	0	0	0	435	413	
4	0	0	0	0	435	413	
5	0	0	0	0	436	413	
6	0	0	0	0	437	413	
7	0	0	0	0	438	413	
8	0	0	0	0	438	413	
9	0	0	0	0	438	413	
10	0	0	0	0	439	413	
11	0	0	0	0	438	414	
12	0	0	0	0	438	412	
13	0	0	0	0	438	412	
14	0	0	0	0	439	413	
15	0	0	0	0	440	412	
0	0	0	0	0	441	412	
1	0	0	0	0	442	413	
2	0	0	0	0	444	413	
3	0	0	0	0	446	413	
4	0	0	0	0	447	412	
5	0	0	0	0	448	413	
6	0	0	0	0	448	412	
7	0	0	0	0	449	411	
8	0	0	0	0	449	412	
9	0	0	0	0	448	412	
10	0	0	0	0	449	412	
11	0	0	0	0	449	413	
12	0	0	0	0	449	412	
13	0	0	0	0	449	412	
14	0	0	0	0	450	412	
15	0	0	0	0	450	412	
0	0	0	0	0	450	412	
1	0	0	0	0	450	412	
2	0	0	0	0	449	411	
3	0	0	0	0	449	412	
4	0	0	0	0	449	411	
5	0	0	0	0	450	411	
6	0	0	0	0	451	411	
7	0	0	0	0	451	411	
8	0	0	0	0	451	411	
9	0	0	0	0	451	412	
10	0	0	0	0	450	412	
11	0	0	0	0	450	411	
12	0	0	0	0	450	411	
13	0	0	0	0	449	411	
14	0	0	0	0	448	411	
15	0	0	0	0	447	410	
0	0	0	0	0	447	412	
1	0	0	0	0	449	412	
2	0	0	0	0	451	411	
3	0	0	0	0	453	412	
4	0	0	0	0	455	411	
5	0	0	0	0	456	411	
6	0	0	0	0	458	412	
7	0	0	0	0	460	412	
8	0	0	0	0	459	412	
9	0	0	0	0	460	412	
10	0	0	0	0	460	412	
11	0	0	0	0	462	412	
12	0	0	0	0	461	411	
13	0	0	0	0	459	411	
14	0	0	0	0	458	412	
15	0	0	0	0	457	411	
0	0	0	0	0	459	412	
1	0	0	0	0	461	412	
2	0	0	0	0	463	412	
3	0	0	0	0	464	413	
4	0	0	0	0	465	412	
5	0	0	0	0	466	412	
6	0	0	0	0	467	412	
7	0	0	0	0	466	411	
8	0	0	0	0	465	411	
9	0	0	0	0	465	411	
10	0	0	0	0	464	412	
11	0	0	0	0	466	412	
12	0	0	0	0	467	412	
13	0	0	0	0	469	412	
14	0	0	0	0	471	412	
15	0	0	0	0	472	412	
0	0	0	0	0	473	412	
1	0	0	0	0	474	412	
2	0	0	0	0	475	412	
3	0	0	0	0	476	412	
4	0	0	0	0	478	412	
5	0	0	0	0	479	412	
6	0	0	0	0	479	412	
7	0	0	0	0	479	412	
8	0	0	0	0	479	412	
9	0	0	0	0	480	412	
10	0	0	0	0	481	412	
11	0	0	0	0	483	412	
12	0	0	0	0	484	412	
13	0	0	0	0	486	412	
14	0	0	0	0	487	412	
15	0	0	0	0	488	412	
0	0	0	0	0	489	412	
1	0	0	0	0	490	412	
2	0	0	0	0	491	412	
3	0	0	0	0	492	412	
4	0	0	0	0	493	411	
5	0	0	0	0	495	412	
6	0	0	0	0	496	412	
7	0	0	0	0	496	412	
8	0	0	0	0	498	412	
9	0	0	0	0	499	411	
10	0	0	0	0	501	412	
11	0	0	0	0	503	413	
12	0	0	0	0	503	412	
13	0	0	0	0	504	412	
14	0	0	0	0	504	412	
15	0	0	0	0	505	411	
0	0	0	0	0	506	412	
1	0	0	0	0	508	412	
2	0	0	0	0	510	412	
3	0	0	0	0	511	413	
4	0	0	0	0	512	411	
5	0	0	0	0	514	412	
6	0	0	0	0	516	412	
7	0	0	0	0	517	412	
8	0	0	0	0	518	412	
9	0	0	0	0	519	412	
10	0	0	0	0	520	412	
11	0	0	0	0	521	413	
12	0	0	0	0	523	413	
13	0	0	0	0	524	412	
14	0	0	0	0	525	413	
15	0	0	0	0	526	412	
0	0	0	0	0	526	413	
1	0	0	0	0	527	412	
2	0	0	0	0	528	412	
3	0	0	0	0	529	413	
4	0	0	0	0	530	412	
5	0	0	0	0	531	412	
6	0	0	0	0	533	412	
7	0	0	0	0	534	411	
8	0	0	0	0	535	412	
9	0	0	0	0	536	412	
10	0	0	0	0	535	412	
11	0	0	0	0	536	412	
12	0	0	0	0	536	412	
13	0	0	0	0	537	412	
14	0	0	0	0	537	411	
15	0	0	0	0	538	411	
0	0	0	0	0	540	412	
1	0	0	0	0	541	412	
2	0	0	0	0	542	411	
3	0	0	0	0	543	412	
4	0	0	0	0	543	411	
5	0	0	0	0	544	411	
6	0	0	0	0	545	411	
7	0	0	0	0	545	412	
8	0	0	0	0	545	412	
9	0	0	0	0	544	411	
10	0	0	0	0	543	412	
11	0	0	0	0	541	412	
12	0	0	0	0	540	411	
13	0	0	0	0	540	411	
14	0	0	0	0	538	411	
15	0	0	0	0	536	410	
0	0	0	0	0	536	410	
1	0	0	0	0	536	411	
2	0	0	0	0	539	411	
3	0	0	0	0	541	411	
4	0	0	0	0	542	411	
5	0	0	0	0	543	411	
6	0	0	0	0	543	411	
7	0	0	0	0	543	411	
8	0	0	0	0	543	411	
9	0	0	0	0	542	411	
10	0	0	0	0	541	411	
11	0	0	0	0	540	412	
12	0	0	0	0	541	412	
13	0	0	0	0	542	411	
14	0	0	0	0	543	411	
15	0	0	0	0	545	411	
0	0	0	0	0	544	412	
1	0	0	0	0	544	412	
2	0	0	0	0	544	412	
3	0	0	0	0	544	412	
4	0	0	0	0	544	412	
5	0	0	0	0	544	412	
6	0	0	0	0	544	412	
7	0	0	0	0	544	412	
8	0	0	0	0	544	413	
9	0	0	0	0	543	413	
10	0	0	0	0	543	412	
11	0	0	0	0	542	413	
12	0	0	0	0	541	412	
13	0	0	0	0	540	412	
14	0	0	0	0	540	412	
15	0	0	0	0	539	412	
0	0	0	0	0	539	413	
1	0	0	0	0	539	412	
2	0	0	0	0	538	412	
3	0	0	0	0	536	414	
4	0	0	0	0	536	413	
5	0	0	0	0	536	413	
6	0	0	0	0	535	412	
7	0	0	0	0	535	413	
8	0	0	0	0	533	413	
9	0	0	0	0	532	413	
10	0	0	0	0	531	412	
11	0	0	0	0	531	413	
12	0	0	0	0	530	413	
13	0	0	0	0	529	412	
14	0	0	0	0	529	413	
15	0	0	0	0	530	412	
0	0	0	0	0	531	412	
1	0	0	0	0	531	413	
2	0	0	0	0	531	413	
3	0	0	0	0	531	413	
4	0	0	0	0	530	412	
5	0	0	0	0	530	413	
6	0	0	0	0	529	413	
7	0	0	0	0	528	412	
8	0	0	0	0	528	413	
9	0	0	0	0	528	412	
10	0	0	0	0	527	412	
11	0	0	0	0	527	413	
12	0	0	0	0	528	412	
13	0	0	0	0	527	412	
14	0	0	0	0	527	412	
15	0	0	0	0	527	412	
0	0	0	0	0	527	412	
1	0	0	0	0	526	412	
2	0	0	0	0	524	412	
3	0	0	0	0	524	413	
4	0	0	0	0	524	411	
5	0	0	0	0	524	412	
6	0	0	0	0	524	412	
7	0	0	0	0	524	411	
8	0	0	0	0	524	412	
9	0	0	0	0	524	411	
10	0	0	0	0	523	412	
11	0	0	0	0	522	412	
12	0	0	0	0	520	411	
13	0	0	0	0	519	411	
14	0	0	0	0	520	412	
15	0	0	0	0	521	411	
0	0	0	0	0	523	411	
1	0	0	0	0	524	411	
2	0	0	0	0	524	411	
3	0	0	0	0	524	412	
4	0	0	0	0	526	411	
5	0	0	0	0	526	411	
6	0	0	0	0	526	411	
7	0	0	0	0	526	411	
8	0	0	0	0	525	411	
9	0	0	0	0	524	412	
10	0	0	0	0	523	411	
11	0	0	0	0	521	411	
12	0	0	0	0	519	411	
13	0	0	0	0	518	412	
14	0	0	0	0	519	412	
15	0	0	0	0	520	412	
0	0	0	0	0	519	412	
1	0	0	0	0	519	412	
2	0	0	0	0	519	412	
3	0	0	0	0	520	413	
4	0	0	0	0	521	412	
5	0	0	0	0	521	412	
6	0	0	0	0	521	412	
7	0	0	0	0	521	411	
8	0	0	0	0	521	412	
9	0	0	0	0	521	412	
10	0	0	0	0	521	412	
11	0	0	0	0	520	413	
12	0	0	0	0	519	412	
13	0	0	0	0	516	411	
14	0	0	0	0	513	412	
15	0	0	0	0	511	412	
0	0	0	0	0	511	412	
1	0	0	0	0	511	411	
2	0	0	0	0	513	412	
3	0	0	0	0	514	412	
4	0	0	0	0	515	412	
5	0	0	0	0	516	411	
6	0	0	0	0	518	412	
7	0	0	0	0	519	411	
8	0	0	0	0	519	411	
9	0	0	0	0	519	411	
10	0	0	0	0	519	412	
11	0	0	0	0	519	412	
12	0	0	0	0	517	412	
13	0	0	0	0	516	412	
14	0	0	0	0	516	412	
15	0	0	0	0	516	412	
0	0	0	0	0	516	412	
1	0	0	0	0	516	412	
2	0	0	0	0	515	413	
3	0	0	0	0	517	413	
4	0	0	0	0	517	412	
5	0	0	0	0	516	412	
6	0	0	0	0	516	412	
7	0	0	0	0	517	412	
8	0	0	0	0	517	412	
9	0	0	0	0	518	412	
10	0	0	0	0	518	412	
11	0	0	0	0	518	412	
12	0	0	0	0	517	412	
13	0	0	0	0	517	412	
14	0	0	0	0	518	412	
15	0	0	0	0	518	412	
0	0	0	0	0	518	412	
1	0	0	0	0	517	412	
2	0	0	0	0	515	412	
3	0	0	0	0	514	413	
4	0	0	0	0	514	412	
5	0	0	0	0	514	412	
6	0	0	0	0	514	413	
7	0	0	0	0	515	412	
8	0	0	0	0	515	413	
9	0	0	0	0	516	413	
10	0	0	0	0	518	413	
11	0	0	0	0	518	414	
12	0	0	0	0	518	413	
13	0	0	0	0	519	412	
14	0	0	0	0	520	412	
15	0	0	0	0	519	412	
0	0	0	0	0	519	412	
1	0	0	0	0	519	412	
2	0	0	0	0	520	412	
3	0	0	0	0	521	412	
4	0	0	0	0	522	412	
5	0	0	0	0	521	412	
6	0	0	0	0	520	412	
7	0	0	0	0	519	411	
8	0	0	0	0	519	412	
9	0	0	0	0	519	412	
10	0	0	0	0	521	412	
11	0	0	0	0	521	412	
12	0	0	0	0	520	411	
13	0	0	0	0	520	411	
14	0	0	0	0	519	412	
15	0	0	0	0	519	411	
0	0	0	0	0	518	411	
1	0	0	0	0	518	412	
2	0	0	0	0	518	412	
3	0	0	0	0	518	412	
4	0	0	0	0	518	412	
5	0	0	0	0	518	412	
6	0	0	0	0	518	412	
7	0	0	0	0	517	412	
8	0	0	0	0	518	412	
9	0	0	0	0	518	412	
10	0	0	0	0	518	412	
11	0	0	0	0	519	413	
12	0	0	0	0	519	412	
13	0	0	0	0	519	412	
14	0	0	0	0	519	411	
15	0	0	0	0	519	412	
0	0	0	0	0	520	412	
1	0	0	0	0	519	412	
2	0	0	0	0	519	412	
3	0	0	0	0	518	412	
4	0	0	0	0	517	412	
5	0	0	0	0	516	412	
6	0	0	0	0	516	412	
7	0	0	0	0	517	412	
8	0	0	0	0	517	412	
9	0	0	0	0	516	412	
10	0	0	0	0	514	412	
11	0	0	0	0	515	412	
12	0	0	0	0	517	412	
13	0	0	0	0	518	412	
14	0	0	0	0	519	411	
15	0	0	0	0	518	411	
0	0	0	0	0	518	411	
1	0	0	0	0	517	411	
2	0	0	0	0	516	411	
3	0	0	0	0	515	411	
4	0	0	0	0	514	411	
5	0	0	0	0	513	411	
6	0	0	0	0	512	411	
7	0	0	0	0	511	411	
8	0	0	0	0	509	411	
9	0	0	0	0	507	411	
10	0	0	0	0	507	411	
11	0	0	0	0	508	412	
12	0	0	0	0	509	411	
13	0	0	0	0	511	411	
14	0	0	0	0	513	412	
15	0	0	0	0	514	411	
0	0	0	0	0	515	411	
1	0	0	0	0	517	411	
2	0	0	0	0	518	411	
3	0	0	0	0	518	412	
4	0	0	0	0	518	412	
5	0	0	0	0	516	412	
6	0	0	0	0	515	412	
7	0	0	0	0	514	411	
8	0	0	0	0	514	411	
9	0	0	0	0	514	411	
10	0	0	0	0	514	412	
11	0	0	0	0	512	412	
12	0	0	0	0	512	411	
13	0	0	0	0	512	411	
14	0	0	0	0	511	412	
15	0	0	0	0	511	412	
0	0	0	0	0	510	412	
1	0	0	0	0	509	412	
2	0	0	0	0	509	412	
3	0	0	0	0	509	413	
4	0	0	0	0	509	412	
5	0	0	0	0	508	412	
6	0	0	0	0	508	412	
7	0	0	0	0	506	412	
8	0	0	0	0	504	412	
9	0	0	0	0	502	412	
10	0	0	0	0	502	412	
11	0	0	0	0	504	413	
12	0	0	0	0	506	412	
13	0	0	0	0	507	412	
14	0	0	0	0	507	412	
15	0	0	0	0	507	412	
0	0	0	0	0	507	412	
1	0	0	0	0	507	412	
2	0	0	0	0	507	412	
3	0	0	0	0	506	413	
4	0	0	0	0	505	412	
5	0	0	0	0	504	412	
6	0	0	0	0	503	412	
7	0	0	0	0	501	412	
8	0	0	0	0	500	413	
9	0	0	0	0	499	413	
10	0	0	0	0	499	412	
11	0	0	0	0	500	412	
12	0	0	0	0	502	412	
13	0	0	0	0	503	412	
14	0	0	0	0	503	412	
15	0	0	0	0	503	411	
0	0	0	0	0	503	412	
1	0	0	0	0	502	411	
2	0	0	0	0	501	412	
3	0	0	0	0	500	412	
4	0	0	0	0	501	412	
5	0	0	0	0	502	411	
6	0	0	0	0	502	412	
7	0	0	0	0	503	412	
8	0	0	0	0	504	412	
9	0	0	0	0	504	412	
10	0	0	0	0	504	412	
11	0	0	0	0	504	413	
12	0	0	0	0	503	412	
13	0	0	0	0	502	413	
14	0	0	0	0	502	413	
15	0	0	0	0	501	413	
0	0	0	0	0	502	413	
1	0	0	0	0	502	413	
2	0	0	0	0	502	413	
3	0	0	0	0	501	414	
4	0	0	0	0	502	412	
5	0	0	0	0	502	412	
6	0	0	0	0	502	412	
7	0	0	0	0	500	412	
8	0	0	0	0	500	413	
9	0	0	0	0	499	413	
10	0	0	0	0	499	412	
11	0	0	0	0	499	413	
12	0	0	0	0	499	412	
13	0	0	0	0	499	412	
14	0	0	0	0	499	412	
15	0	0	0	0	499	411	
0	0	0	0	0	500	412	
1	0	0	0	0	500	412	
2	0	0	0	0	500	412	
3	0	0	0	0	500	412	
4	0	0	0	0	500	412	
5	0	0	0	0	499	412	
6	0	0	0	0	497	412	
7	0	0	0	0	497	412	
8	0	0	0	0	497	412	
9	0	0	0	0	497	412	
10	0	0	0	0	497	412	
11	0	0	0	0	497	412	
12	0	0	0	0	499	412	
13	0	0	0	0	500	411	
14	0	0	0	0	501	411	
15	0	0	0	0	502	412	
0	0	0	0	0	503	411	
1	0	0	0	0	503	412	
2	0	0	0	0	502	411	
3	0	0	0	0	501	412	
4	0	0	0	0	501	411	
5	0	0	0	0	500	411	
6	0	0	0	0	500	411	
7	0	0	0	0	500	411	
8	0	0	0	0	499	411	
9	0	0	0	0	498	411	
10	0	0	0	0	498	411	
11	0	0	0	0	497	412	
12	0	0	0	0	499	411	
13	0	0	0	0	498	411	
14	0	0	0	0	498	411	
15	0	0	0	0	498	412	
0	0	0	0	0	498	412	
1	0	0	0	0	498	411	
