# OpenSignals Text File Format
# {"98:D3:C1:FD:2F:E5":{"sensor":["RAW","RAW"],"device name":"98:D3:C1:FD:2F:E5","column":["nSeq","I1","I2","O1","O2","A2","A5"],"sync interval":2,"time":"16:47:37","comments":"","device connection":"BTH98:D3:C1:FD:2F:E5","channels":[2,5],"date":"2021-09-26","mode":0,"digital IO":[0,0,1,1],"firmware version":0,"device":"bitalino_rev","position":0,"sampling rate":1000,"label":["A2","A5"],"resolution":[10,10],"special":[{},{}]}}
# EndOfHeader
0	0	0	0	0	511	616
1	0	0	0	0	513	614
2	0	0	0	0	515	616
3	0	0	0	0	518	616
4	0	0	0	0	519	616
5	0	0	0	0	521	619
6	0	0	0	0	522	616
7	0	0	0	0	521	615
8	0	0	0	0	520	615
9	0	0	0	0	519	614
10	0	0	0	0	517	616
11	0	0	0	0	515	616
12	0	0	0	0	512	615
13	0	0	0	0	510	618
14	0	0	0	0	508	616
15	0	0	0	0	506	616
0	0	0	0	0	504	616
1	0	0	0	0	504	615
2	0	0	0	0	505	615
3	0	0	0	0	507	616
4	0	0	0	0	508	616
5	0	0	0	0	511	618
6	0	0	0	0	513	615
7	0	0	0	0	516	616
8	0	0	0	0	519	616
9	0	0	0	0	520	614
10	0	0	0	0	521	615
11	0	0	0	0	521	615
12	0	0	0	0	520	616
13	0	0	0	0	519	618
14	0	0	0	0	516	615
15	0	0	0	0	514	615
0	0	0	0	0	511	616
1	0	0	0	0	509	614
2	0	0	0	0	507	616
3	0	0	0	0	505	615
4	0	0	0	0	504	615
5	0	0	0	0	504	617
6	0	0	0	0	505	615
7	0	0	0	0	506	615
8	0	0	0	0	507	615
9	0	0	0	0	510	615
10	0	0	0	0	513	615
11	0	0	0	0	515	615
12	0	0	0	0	518	616
13	0	0	0	0	520	618
14	0	0	0	0	520	616
15	0	0	0	0	519	616
0	0	0	0	0	519	616
1	0	0	0	0	517	615
2	0	0	0	0	514	616
3	0	0	0	0	512	616
4	0	0	0	0	510	616
5	0	0	0	0	508	618
6	0	0	0	0	506	616
7	0	0	0	0	504	615
8	0	0	0	0	503	615
9	0	0	0	0	503	614
10	0	0	0	0	503	616
11	0	0	0	0	505	617
12	0	0	0	0	506	615
13	0	0	0	0	508	618
14	0	0	0	0	510	615
15	0	0	0	0	512	615
0	0	0	0	0	515	615
1	0	0	0	0	516	614
2	0	0	0	0	517	615
3	0	0	0	0	516	615
4	0	0	0	0	515	616
5	0	0	0	0	514	619
6	0	0	0	0	511	616
7	0	0	0	0	509	616
8	0	0	0	0	507	616
9	0	0	0	0	505	615
10	0	0	0	0	502	616
11	0	0	0	0	501	616
12	0	0	0	0	500	616
13	0	0	0	0	500	619
14	0	0	0	0	500	616
15	0	0	0	0	502	616
0	0	0	0	0	503	616
1	0	0	0	0	505	615
2	0	0	0	0	507	616
3	0	0	0	0	508	616
4	0	0	0	0	510	616
5	0	0	0	0	511	619
6	0	0	0	0	512	616
7	0	0	0	0	512	616
8	0	0	0	0	512	616
9	0	0	0	0	510	615
10	0	0	0	0	508	615
11	0	0	0	0	505	616
12	0	0	0	0	503	616
13	0	0	0	0	500	618
14	0	0	0	0	498	616
15	0	0	0	0	496	616
0	0	0	0	0	495	616
1	0	0	0	0	496	615
2	0	0	0	0	496	616
3	0	0	0	0	498	616
4	0	0	0	0	501	616
5	0	0	0	0	504	618
6	0	0	0	0	507	616
7	0	0	0	0	509	615
8	0	0	0	0	512	616
9	0	0	0	0	514	615
10	0	0	0	0	515	616
11	0	0	0	0	516	616
12	0	0	0	0	516	616
13	0	0	0	0	516	618
14	0	0	0	0	515	616
15	0	0	0	0	513	616
0	0	0	0	0	512	615
1	0	0	0	0	511	615
2	0	0	0	0	510	616
3	0	0	0	0	509	616
4	0	0	0	0	508	616
5	0	0	0	0	509	619
6	0	0	0	0	509	616
7	0	0	0	0	510	617
8	0	0	0	0	511	616
9	0	0	0	0	513	615
10	0	0	0	0	515	616
11	0	0	0	0	517	615
12	0	0	0	0	519	616
13	0	0	0	0	521	619
14	0	0	0	0	522	616
15	0	0	0	0	522	616
0	0	0	0	0	522	616
1	0	0	0	0	520	615
2	0	0	0	0	518	616
3	0	0	0	0	515	616
4	0	0	0	0	513	616
5	0	0	0	0	511	618
6	0	0	0	0	510	617
7	0	0	0	0	509	616
8	0	0	0	0	508	615
9	0	0	0	0	509	614
10	0	0	0	0	509	615
11	0	0	0	0	510	616
12	0	0	0	0	511	615
13	0	0	0	0	513	618
14	0	0	0	0	515	616
15	0	0	0	0	517	615
0	0	0	0	0	519	616
1	0	0	0	0	519	615
2	0	0	0	0	520	616
3	0	0	0	0	520	616
4	0	0	0	0	519	616
5	0	0	0	0	517	618
6	0	0	0	0	515	616
7	0	0	0	0	513	615
8	0	0	0	0	510	615
9	0	0	0	0	508	614
10	0	0	0	0	506	616
11	0	0	0	0	504	616
12	0	0	0	0	504	615
13	0	0	0	0	505	618
14	0	0	0	0	505	616
15	0	0	0	0	506	616
0	0	0	0	0	508	616
1	0	0	0	0	510	615
2	0	0	0	0	512	616
3	0	0	0	0	514	616
4	0	0	0	0	517	616
5	0	0	0	0	518	619
6	0	0	0	0	519	616
7	0	0	0	0	519	616
8	0	0	0	0	518	616
9	0	0	0	0	516	614
10	0	0	0	0	513	616
11	0	0	0	0	511	616
12	0	0	0	0	508	616
13	0	0	0	0	505	618
14	0	0	0	0	504	616
15	0	0	0	0	504	616
0	0	0	0	0	503	616
1	0	0	0	0	504	615
2	0	0	0	0	505	615
3	0	0	0	0	507	616
4	0	0	0	0	509	616
5	0	0	0	0	511	618
6	0	0	0	0	514	616
7	0	0	0	0	516	616
8	0	0	0	0	519	616
9	0	0	0	0	520	614
10	0	0	0	0	520	616
11	0	0	0	0	520	616
12	0	0	0	0	519	616
13	0	0	0	0	518	619
14	0	0	0	0	515	616
15	0	0	0	0	512	616
0	0	0	0	0	510	616
1	0	0	0	0	507	615
2	0	0	0	0	505	616
3	0	0	0	0	504	616
4	0	0	0	0	504	616
5	0	0	0	0	503	618
6	0	0	0	0	503	616
7	0	0	0	0	503	616
8	0	0	0	0	503	616
9	0	0	0	0	504	615
10	0	0	0	0	505	616
11	0	0	0	0	504	615
12	0	0	0	0	504	616
13	0	0	0	0	500	617
14	0	0	0	0	495	615
15	0	0	0	0	487	616
0	0	0	0	0	477	615
1	0	0	0	0	466	614
2	0	0	0	0	452	616
3	0	0	0	0	438	617
4	0	0	0	0	425	616
5	0	0	0	0	414	618
6	0	0	0	0	403	617
7	0	0	0	0	394	616
8	0	0	0	0	388	616
9	0	0	0	0	386	615
10	0	0	0	0	386	616
11	0	0	0	0	388	616
12	0	0	0	0	392	616
13	0	0	0	0	398	619
14	0	0	0	0	406	616
15	0	0	0	0	416	616
0	0	0	0	0	427	615
1	0	0	0	0	436	615
2	0	0	0	0	443	616
3	0	0	0	0	450	616
4	0	0	0	0	456	615
5	0	0	0	0	464	618
6	0	0	0	0	478	616
7	0	0	0	0	497	616
8	0	0	0	0	520	616
9	0	0	0	0	547	615
10	0	0	0	0	581	615
11	0	0	0	0	624	616
12	0	0	0	0	670	616
13	0	0	0	0	720	618
14	0	0	0	0	774	616
15	0	0	0	0	827	616
0	0	0	0	0	875	616
1	0	0	0	0	919	615
2	0	0	0	0	955	616
3	0	0	0	0	985	616
4	0	0	0	0	1007	616
5	0	0	0	0	1020	619
6	0	0	0	0	1022	616
7	0	0	0	0	1022	616
8	0	0	0	0	1022	617
9	0	0	0	0	1020	615
10	0	0	0	0	1003	616
11	0	0	0	0	984	615
12	0	0	0	0	960	616
13	0	0	0	0	932	618
14	0	0	0	0	902	616
15	0	0	0	0	868	616
0	0	0	0	0	833	616
1	0	0	0	0	799	614
2	0	0	0	0	768	616
3	0	0	0	0	742	615
4	0	0	0	0	717	615
5	0	0	0	0	694	618
6	0	0	0	0	675	615
7	0	0	0	0	657	615
8	0	0	0	0	641	616
9	0	0	0	0	627	615
10	0	0	0	0	613	616
11	0	0	0	0	600	616
12	0	0	0	0	585	616
13	0	0	0	0	571	618
14	0	0	0	0	557	616
15	0	0	0	0	541	615
0	0	0	0	0	525	615
1	0	0	0	0	509	614
2	0	0	0	0	494	615
3	0	0	0	0	480	615
4	0	0	0	0	468	615
5	0	0	0	0	459	618
6	0	0	0	0	451	615
7	0	0	0	0	444	615
8	0	0	0	0	438	615
9	0	0	0	0	432	614
10	0	0	0	0	428	615
11	0	0	0	0	424	615
12	0	0	0	0	422	616
13	0	0	0	0	419	617
14	0	0	0	0	415	615
15	0	0	0	0	412	615
0	0	0	0	0	408	615
1	0	0	0	0	403	615
2	0	0	0	0	399	615
3	0	0	0	0	395	616
4	0	0	0	0	390	615
5	0	0	0	0	386	617
6	0	0	0	0	383	616
7	0	0	0	0	380	616
8	0	0	0	0	379	615
9	0	0	0	0	379	614
10	0	0	0	0	380	615
11	0	0	0	0	381	616
12	0	0	0	0	382	616
13	0	0	0	0	385	618
14	0	0	0	0	387	616
15	0	0	0	0	389	616
0	0	0	0	0	392	616
1	0	0	0	0	394	614
2	0	0	0	0	396	615
3	0	0	0	0	397	616
4	0	0	0	0	398	615
5	0	0	0	0	397	619
6	0	0	0	0	396	615
7	0	0	0	0	394	615
8	0	0	0	0	393	616
9	0	0	0	0	391	614
10	0	0	0	0	390	615
11	0	0	0	0	390	615
12	0	0	0	0	390	615
13	0	0	0	0	391	617
14	0	0	0	0	391	615
15	0	0	0	0	393	615
0	0	0	0	0	395	615
1	0	0	0	0	398	614
2	0	0	0	0	401	615
3	0	0	0	0	405	615
4	0	0	0	0	408	615
5	0	0	0	0	411	618
6	0	0	0	0	414	616
7	0	0	0	0	415	615
8	0	0	0	0	415	616
9	0	0	0	0	414	615
10	0	0	0	0	412	615
11	0	0	0	0	411	617
12	0	0	0	0	409	616
13	0	0	0	0	407	619
14	0	0	0	0	406	616
15	0	0	0	0	406	615
0	0	0	0	0	406	615
1	0	0	0	0	407	614
2	0	0	0	0	408	615
3	0	0	0	0	410	616
4	0	0	0	0	412	616
5	0	0	0	0	415	619
6	0	0	0	0	419	616
7	0	0	0	0	423	615
8	0	0	0	0	427	615
9	0	0	0	0	430	615
10	0	0	0	0	431	616
11	0	0	0	0	432	616
12	0	0	0	0	432	615
13	0	0	0	0	432	618
14	0	0	0	0	432	615
15	0	0	0	0	430	615
0	0	0	0	0	427	615
1	0	0	0	0	425	615
2	0	0	0	0	424	616
3	0	0	0	0	423	615
4	0	0	0	0	423	615
5	0	0	0	0	423	618
6	0	0	0	0	424	616
7	0	0	0	0	426	617
8	0	0	0	0	428	616
9	0	0	0	0	431	614
10	0	0	0	0	434	616
11	0	0	0	0	437	616
12	0	0	0	0	440	615
13	0	0	0	0	441	618
14	0	0	0	0	443	616
15	0	0	0	0	444	616
0	0	0	0	0	443	616
1	0	0	0	0	442	614
2	0	0	0	0	440	615
3	0	0	0	0	438	616
4	0	0	0	0	436	616
5	0	0	0	0	435	618
6	0	0	0	0	434	616
7	0	0	0	0	433	616
8	0	0	0	0	434	615
9	0	0	0	0	435	615
10	0	0	0	0	435	616
11	0	0	0	0	438	616
12	0	0	0	0	439	615
13	0	0	0	0	441	618
14	0	0	0	0	444	616
15	0	0	0	0	446	615
0	0	0	0	0	449	616
1	0	0	0	0	451	615
2	0	0	0	0	453	616
3	0	0	0	0	454	616
4	0	0	0	0	453	616
5	0	0	0	0	452	619
6	0	0	0	0	451	616
7	0	0	0	0	448	616
8	0	0	0	0	447	616
9	0	0	0	0	445	615
10	0	0	0	0	443	616
11	0	0	0	0	442	616
12	0	0	0	0	442	616
13	0	0	0	0	442	619
14	0	0	0	0	443	616
15	0	0	0	0	445	616
0	0	0	0	0	447	616
1	0	0	0	0	449	615
2	0	0	0	0	452	616
3	0	0	0	0	455	616
4	0	0	0	0	457	616
5	0	0	0	0	459	618
6	0	0	0	0	460	616
7	0	0	0	0	460	615
8	0	0	0	0	459	616
9	0	0	0	0	457	614
10	0	0	0	0	455	616
11	0	0	0	0	454	616
12	0	0	0	0	452	616
13	0	0	0	0	449	617
14	0	0	0	0	448	616
15	0	0	0	0	446	616
0	0	0	0	0	446	616
1	0	0	0	0	446	615
2	0	0	0	0	447	616
3	0	0	0	0	449	616
4	0	0	0	0	451	616
5	0	0	0	0	454	619
6	0	0	0	0	457	616
7	0	0	0	0	460	616
8	0	0	0	0	462	616
9	0	0	0	0	465	614
10	0	0	0	0	466	616
11	0	0	0	0	467	616
12	0	0	0	0	467	615
13	0	0	0	0	467	619
14	0	0	0	0	465	616
15	0	0	0	0	463	616
0	0	0	0	0	461	615
1	0	0	0	0	459	614
2	0	0	0	0	458	616
3	0	0	0	0	457	615
4	0	0	0	0	457	615
5	0	0	0	0	458	617
6	0	0	0	0	460	615
7	0	0	0	0	462	615
8	0	0	0	0	465	615
9	0	0	0	0	468	614
10	0	0	0	0	472	616
11	0	0	0	0	475	615
12	0	0	0	0	478	615
13	0	0	0	0	481	618
14	0	0	0	0	483	616
15	0	0	0	0	483	616
0	0	0	0	0	484	615
1	0	0	0	0	483	614
2	0	0	0	0	482	616
3	0	0	0	0	480	615
4	0	0	0	0	479	616
5	0	0	0	0	477	618
6	0	0	0	0	476	616
7	0	0	0	0	476	616
8	0	0	0	0	477	616
9	0	0	0	0	479	614
10	0	0	0	0	481	615
11	0	0	0	0	483	615
12	0	0	0	0	487	615
13	0	0	0	0	490	618
14	0	0	0	0	494	615
15	0	0	0	0	497	615
0	0	0	0	0	502	616
1	0	0	0	0	505	614
2	0	0	0	0	508	615
3	0	0	0	0	509	615
4	0	0	0	0	508	615
5	0	0	0	0	508	618
6	0	0	0	0	507	616
7	0	0	0	0	504	617
8	0	0	0	0	502	616
9	0	0	0	0	500	614
10	0	0	0	0	499	616
11	0	0	0	0	499	615
12	0	0	0	0	500	616
13	0	0	0	0	502	619
14	0	0	0	0	504	616
15	0	0	0	0	507	616
0	0	0	0	0	510	616
1	0	0	0	0	513	615
2	0	0	0	0	518	616
3	0	0	0	0	521	616
4	0	0	0	0	525	616
5	0	0	0	0	528	618
6	0	0	0	0	530	616
7	0	0	0	0	531	615
8	0	0	0	0	531	615
9	0	0	0	0	530	615
10	0	0	0	0	527	615
11	0	0	0	0	526	616
12	0	0	0	0	523	615
13	0	0	0	0	521	617
14	0	0	0	0	519	615
15	0	0	0	0	518	615
0	0	0	0	0	518	615
1	0	0	0	0	519	614
2	0	0	0	0	519	615
3	0	0	0	0	521	615
4	0	0	0	0	524	616
5	0	0	0	0	527	618
6	0	0	0	0	529	616
7	0	0	0	0	532	616
8	0	0	0	0	535	617
9	0	0	0	0	537	615
10	0	0	0	0	538	616
11	0	0	0	0	537	616
12	0	0	0	0	537	616
13	0	0	0	0	536	619
14	0	0	0	0	533	617
15	0	0	0	0	531	617
0	0	0	0	0	529	616
1	0	0	0	0	527	615
2	0	0	0	0	526	616
3	0	0	0	0	524	616
4	0	0	0	0	524	616
5	0	0	0	0	524	618
6	0	0	0	0	525	616
7	0	0	0	0	527	616
8	0	0	0	0	530	616
9	0	0	0	0	532	614
10	0	0	0	0	534	615
11	0	0	0	0	537	615
12	0	0	0	0	539	616
13	0	0	0	0	542	619
14	0	0	0	0	543	616
15	0	0	0	0	543	616
0	0	0	0	0	542	616
1	0	0	0	0	540	615
2	0	0	0	0	537	616
3	0	0	0	0	535	616
4	0	0	0	0	532	616
5	0	0	0	0	529	618
6	0	0	0	0	527	616
7	0	0	0	0	525	615
8	0	0	0	0	524	616
9	0	0	0	0	524	614
10	0	0	0	0	524	616
11	0	0	0	0	524	616
12	0	0	0	0	527	616
13	0	0	0	0	530	619
14	0	0	0	0	532	616
15	0	0	0	0	535	616
0	0	0	0	0	538	616
1	0	0	0	0	540	615
2	0	0	0	0	540	616
3	0	0	0	0	541	616
4	0	0	0	0	540	615
5	0	0	0	0	540	618
6	0	0	0	0	536	616
7	0	0	0	0	534	616
8	0	0	0	0	531	616
9	0	0	0	0	528	614
10	0	0	0	0	526	615
11	0	0	0	0	525	616
12	0	0	0	0	525	615
13	0	0	0	0	525	618
14	0	0	0	0	526	615
15	0	0	0	0	527	616
0	0	0	0	0	529	615
1	0	0	0	0	531	614
2	0	0	0	0	533	615
3	0	0	0	0	535	616
4	0	0	0	0	537	615
5	0	0	0	0	539	618
6	0	0	0	0	541	616
7	0	0	0	0	540	616
8	0	0	0	0	540	615
9	0	0	0	0	537	615
10	0	0	0	0	535	616
11	0	0	0	0	532	616
12	0	0	0	0	529	616
13	0	0	0	0	526	618
14	0	0	0	0	524	616
15	0	0	0	0	523	616
0	0	0	0	0	522	616
1	0	0	0	0	523	615
2	0	0	0	0	523	616
3	0	0	0	0	524	616
4	0	0	0	0	526	615
5	0	0	0	0	527	619
6	0	0	0	0	529	616
7	0	0	0	0	532	616
8	0	0	0	0	535	616
9	0	0	0	0	536	614
10	0	0	0	0	536	616
11	0	0	0	0	535	616
12	0	0	0	0	535	616
13	0	0	0	0	533	618
14	0	0	0	0	530	617
15	0	0	0	0	527	615
0	0	0	0	0	524	616
1	0	0	0	0	521	614
2	0	0	0	0	519	616
3	0	0	0	0	517	616
4	0	0	0	0	516	616
5	0	0	0	0	516	619
6	0	0	0	0	516	616
7	0	0	0	0	517	616
8	0	0	0	0	519	616
9	0	0	0	0	520	615
10	0	0	0	0	523	616
11	0	0	0	0	525	616
12	0	0	0	0	527	616
13	0	0	0	0	529	618
14	0	0	0	0	530	616
15	0	0	0	0	529	615
0	0	0	0	0	528	615
1	0	0	0	0	527	614
2	0	0	0	0	524	615
3	0	0	0	0	521	615
4	0	0	0	0	518	615
5	0	0	0	0	514	617
6	0	0	0	0	512	615
7	0	0	0	0	512	615
8	0	0	0	0	511	616
9	0	0	0	0	512	615
10	0	0	0	0	512	616
11	0	0	0	0	513	616
12	0	0	0	0	515	615
13	0	0	0	0	517	619
14	0	0	0	0	520	616
15	0	0	0	0	523	615
0	0	0	0	0	525	616
1	0	0	0	0	526	614
2	0	0	0	0	526	615
3	0	0	0	0	527	615
4	0	0	0	0	526	615
5	0	0	0	0	524	618
6	0	0	0	0	521	616
7	0	0	0	0	518	616
8	0	0	0	0	515	616
9	0	0	0	0	513	614
10	0	0	0	0	510	616
11	0	0	0	0	509	616
12	0	0	0	0	508	616
13	0	0	0	0	508	618
14	0	0	0	0	509	615
15	0	0	0	0	511	615
0	0	0	0	0	512	615
1	0	0	0	0	515	614
2	0	0	0	0	517	616
3	0	0	0	0	520	616
4	0	0	0	0	523	616
5	0	0	0	0	525	617
6	0	0	0	0	526	616
7	0	0	0	0	526	615
8	0	0	0	0	525	615
9	0	0	0	0	524	614
10	0	0	0	0	522	616
11	0	0	0	0	519	616
12	0	0	0	0	517	616
13	0	0	0	0	514	618
14	0	0	0	0	512	616
15	0	0	0	0	511	616
0	0	0	0	0	511	616
1	0	0	0	0	512	614
2	0	0	0	0	513	615
3	0	0	0	0	514	616
4	0	0	0	0	515	616
5	0	0	0	0	517	618
6	0	0	0	0	519	616
7	0	0	0	0	521	616
8	0	0	0	0	523	615
9	0	0	0	0	525	614
10	0	0	0	0	526	616
11	0	0	0	0	527	615
12	0	0	0	0	526	615
13	0	0	0	0	524	618
14	0	0	0	0	523	615
15	0	0	0	0	520	615
0	0	0	0	0	517	615
1	0	0	0	0	515	614
2	0	0	0	0	512	616
3	0	0	0	0	510	616
4	0	0	0	0	509	616
5	0	0	0	0	509	617
6	0	0	0	0	509	616
7	0	0	0	0	511	615
8	0	0	0	0	512	615
9	0	0	0	0	515	614
10	0	0	0	0	518	615
11	0	0	0	0	521	615
12	0	0	0	0	524	615
13	0	0	0	0	526	618
14	0	0	0	0	527	615
15	0	0	0	0	527	616
0	0	0	0	0	527	615
1	0	0	0	0	527	614
2	0	0	0	0	524	615
3	0	0	0	0	521	615
4	0	0	0	0	519	615
5	0	0	0	0	516	617
6	0	0	0	0	514	615
7	0	0	0	0	513	616
8	0	0	0	0	513	615
9	0	0	0	0	513	614
10	0	0	0	0	513	615
11	0	0	0	0	515	616
12	0	0	0	0	515	615
13	0	0	0	0	517	618
14	0	0	0	0	520	615
15	0	0	0	0	522	615
0	0	0	0	0	524	615
1	0	0	0	0	526	614
2	0	0	0	0	527	616
3	0	0	0	0	528	616
4	0	0	0	0	527	615
5	0	0	0	0	526	618
6	0	0	0	0	524	615
7	0	0	0	0	520	615
8	0	0	0	0	517	616
9	0	0	0	0	514	614
10	0	0	0	0	511	616
11	0	0	0	0	509	616
12	0	0	0	0	508	616
13	0	0	0	0	508	619
14	0	0	0	0	509	616
15	0	0	0	0	511	615
0	0	0	0	0	513	616
1	0	0	0	0	515	615
2	0	0	0	0	518	615
3	0	0	0	0	520	616
4	0	0	0	0	523	616
5	0	0	0	0	525	618
6	0	0	0	0	526	616
7	0	0	0	0	526	615
8	0	0	0	0	526	616
9	0	0	0	0	524	615
10	0	0	0	0	521	616
11	0	0	0	0	519	616
12	0	0	0	0	516	615
13	0	0	0	0	514	618
14	0	0	0	0	512	616
15	0	0	0	0	512	616
0	0	0	0	0	511	616
1	0	0	0	0	511	614
2	0	0	0	0	512	615
3	0	0	0	0	513	615
4	0	0	0	0	515	616
5	0	0	0	0	517	618
6	0	0	0	0	519	615
7	0	0	0	0	522	616
8	0	0	0	0	524	616
9	0	0	0	0	527	615
10	0	0	0	0	527	615
11	0	0	0	0	527	616
12	0	0	0	0	526	616
13	0	0	0	0	525	618
14	0	0	0	0	522	616
15	0	0	0	0	519	616
0	0	0	0	0	515	616
1	0	0	0	0	513	615
2	0	0	0	0	511	616
3	0	0	0	0	509	616
4	0	0	0	0	509	615
5	0	0	0	0	510	618
6	0	0	0	0	510	616
7	0	0	0	0	512	616
8	0	0	0	0	513	616
9	0	0	0	0	515	615
10	0	0	0	0	517	616
11	0	0	0	0	520	616
12	0	0	0	0	523	616
13	0	0	0	0	524	619
14	0	0	0	0	525	616
15	0	0	0	0	524	616
0	0	0	0	0	523	616
1	0	0	0	0	522	614
2	0	0	0	0	519	616
3	0	0	0	0	517	616
4	0	0	0	0	515	615
5	0	0	0	0	512	618
6	0	0	0	0	511	616
7	0	0	0	0	509	616
8	0	0	0	0	509	616
9	0	0	0	0	510	615
10	0	0	0	0	510	616
11	0	0	0	0	511	616
12	0	0	0	0	512	615
13	0	0	0	0	513	618
14	0	0	0	0	514	616
15	0	0	0	0	515	615
0	0	0	0	0	518	615
1	0	0	0	0	520	614
2	0	0	0	0	521	615
3	0	0	0	0	521	615
4	0	0	0	0	520	615
5	0	0	0	0	519	618
6	0	0	0	0	516	616
7	0	0	0	0	514	616
8	0	0	0	0	512	616
9	0	0	0	0	509	614
10	0	0	0	0	508	616
11	0	0	0	0	506	616
12	0	0	0	0	505	616
13	0	0	0	0	505	618
14	0	0	0	0	506	616
15	0	0	0	0	507	616
0	0	0	0	0	509	616
1	0	0	0	0	511	614
2	0	0	0	0	513	615
3	0	0	0	0	515	615
4	0	0	0	0	518	615
5	0	0	0	0	519	617
6	0	0	0	0	519	615
7	0	0	0	0	519	616
8	0	0	0	0	519	616
9	0	0	0	0	518	615
10	0	0	0	0	516	615
11	0	0	0	0	514	616
12	0	0	0	0	511	615
13	0	0	0	0	508	617
14	0	0	0	0	506	616
15	0	0	0	0	504	616
0	0	0	0	0	504	615
1	0	0	0	0	503	615
2	0	0	0	0	503	615
3	0	0	0	0	504	616
4	0	0	0	0	507	616
5	0	0	0	0	509	618
6	0	0	0	0	512	616
7	0	0	0	0	514	615
8	0	0	0	0	517	616
9	0	0	0	0	519	615
10	0	0	0	0	520	616
11	0	0	0	0	519	616
12	0	0	0	0	519	615
13	0	0	0	0	518	618
14	0	0	0	0	516	616
15	0	0	0	0	513	616
0	0	0	0	0	510	616
1	0	0	0	0	507	614
2	0	0	0	0	505	616
3	0	0	0	0	504	616
4	0	0	0	0	502	616
5	0	0	0	0	502	618
6	0	0	0	0	503	615
7	0	0	0	0	504	615
8	0	0	0	0	507	615
9	0	0	0	0	509	615
10	0	0	0	0	511	616
11	0	0	0	0	513	616
12	0	0	0	0	515	616
13	0	0	0	0	517	618
14	0	0	0	0	518	615
15	0	0	0	0	518	615
0	0	0	0	0	518	616
1	0	0	0	0	516	615
2	0	0	0	0	515	616
3	0	0	0	0	511	616
4	0	0	0	0	508	616
5	0	0	0	0	505	617
6	0	0	0	0	503	616
7	0	0	0	0	501	615
8	0	0	0	0	500	616
9	0	0	0	0	500	614
10	0	0	0	0	500	616
11	0	0	0	0	502	616
12	0	0	0	0	504	615
13	0	0	0	0	506	619
14	0	0	0	0	509	616
15	0	0	0	0	511	615
0	0	0	0	0	514	616
1	0	0	0	0	516	615
2	0	0	0	0	517	616
3	0	0	0	0	517	616
4	0	0	0	0	517	616
5	0	0	0	0	515	618
6	0	0	0	0	513	616
7	0	0	0	0	510	616
8	0	0	0	0	507	615
9	0	0	0	0	504	614
10	0	0	0	0	503	616
11	0	0	0	0	500	615
12	0	0	0	0	499	615
13	0	0	0	0	499	618
14	0	0	0	0	500	615
15	0	0	0	0	501	616
0	0	0	0	0	504	616
1	0	0	0	0	505	614
2	0	0	0	0	509	615
3	0	0	0	0	511	615
4	0	0	0	0	514	616
5	0	0	0	0	516	618
6	0	0	0	0	517	615
7	0	0	0	0	518	616
8	0	0	0	0	517	615
9	0	0	0	0	516	614
10	0	0	0	0	513	616
11	0	0	0	0	510	616
12	0	0	0	0	507	616
13	0	0	0	0	505	618
14	0	0	0	0	503	616
15	0	0	0	0	501	616
0	0	0	0	0	500	615
1	0	0	0	0	500	614
2	0	0	0	0	500	616
3	0	0	0	0	502	616
4	0	0	0	0	504	615
5	0	0	0	0	506	618
6	0	0	0	0	508	616
7	0	0	0	0	510	615
8	0	0	0	0	512	616
9	0	0	0	0	513	614
10	0	0	0	0	514	615
11	0	0	0	0	514	616
12	0	0	0	0	513	615
13	0	0	0	0	512	618
14	0	0	0	0	509	615
15	0	0	0	0	506	616
0	0	0	0	0	503	615
1	0	0	0	0	499	614
2	0	0	0	0	497	616
3	0	0	0	0	496	616
4	0	0	0	0	495	616
5	0	0	0	0	495	618
6	0	0	0	0	496	615
7	0	0	0	0	498	616
8	0	0	0	0	500	615
9	0	0	0	0	503	614
10	0	0	0	0	505	615
11	0	0	0	0	507	615
12	0	0	0	0	510	615
13	0	0	0	0	512	618
14	0	0	0	0	513	616
15	0	0	0	0	513	615
0	0	0	0	0	512	616
1	0	0	0	0	511	615
2	0	0	0	0	508	616
3	0	0	0	0	506	616
4	0	0	0	0	503	616
5	0	0	0	0	500	618
6	0	0	0	0	499	616
7	0	0	0	0	497	615
8	0	0	0	0	497	616
9	0	0	0	0	498	614
10	0	0	0	0	500	616
11	0	0	0	0	503	616
12	0	0	0	0	505	616
13	0	0	0	0	509	618
14	0	0	0	0	512	616
15	0	0	0	0	515	615
0	0	0	0	0	518	617
1	0	0	0	0	520	615
2	0	0	0	0	520	616
3	0	0	0	0	521	615
4	0	0	0	0	520	616
5	0	0	0	0	520	618
6	0	0	0	0	518	615
7	0	0	0	0	515	615
8	0	0	0	0	512	616
9	0	0	0	0	510	614
10	0	0	0	0	508	616
11	0	0	0	0	507	616
12	0	0	0	0	505	616
13	0	0	0	0	505	618
14	0	0	0	0	506	616
15	0	0	0	0	507	616
0	0	0	0	0	509	616
1	0	0	0	0	511	615
2	0	0	0	0	513	616
3	0	0	0	0	516	616
4	0	0	0	0	518	616
5	0	0	0	0	519	618
6	0	0	0	0	521	616
7	0	0	0	0	520	615
8	0	0	0	0	520	615
9	0	0	0	0	519	615
10	0	0	0	0	516	616
11	0	0	0	0	513	616
12	0	0	0	0	510	616
13	0	0	0	0	507	617
14	0	0	0	0	505	616
15	0	0	0	0	503	616
0	0	0	0	0	502	616
1	0	0	0	0	503	615
2	0	0	0	0	503	615
3	0	0	0	0	505	616
4	0	0	0	0	507	616
5	0	0	0	0	509	619
6	0	0	0	0	512	617
7	0	0	0	0	515	616
8	0	0	0	0	518	616
9	0	0	0	0	520	615
10	0	0	0	0	521	616
11	0	0	0	0	520	615
12	0	0	0	0	519	615
13	0	0	0	0	518	618
14	0	0	0	0	515	616
15	0	0	0	0	513	616
0	0	0	0	0	511	615
1	0	0	0	0	508	614
2	0	0	0	0	506	616
3	0	0	0	0	504	616
4	0	0	0	0	503	616
5	0	0	0	0	504	618
6	0	0	0	0	503	616
7	0	0	0	0	505	616
8	0	0	0	0	506	616
9	0	0	0	0	509	615
10	0	0	0	0	512	616
11	0	0	0	0	514	616
12	0	0	0	0	518	615
13	0	0	0	0	519	617
14	0	0	0	0	520	615
15	0	0	0	0	519	615
0	0	0	0	0	519	616
1	0	0	0	0	517	615
2	0	0	0	0	514	616
3	0	0	0	0	512	615
4	0	0	0	0	510	616
5	0	0	0	0	507	618
6	0	0	0	0	505	616
7	0	0	0	0	503	615
8	0	0	0	0	503	615
9	0	0	0	0	504	614
10	0	0	0	0	504	615
11	0	0	0	0	505	616
12	0	0	0	0	507	615
13	0	0	0	0	509	618
14	0	0	0	0	511	615
15	0	0	0	0	514	615
0	0	0	0	0	516	616
1	0	0	0	0	518	615
2	0	0	0	0	518	616
3	0	0	0	0	518	616
4	0	0	0	0	518	615
5	0	0	0	0	516	619
6	0	0	0	0	513	616
7	0	0	0	0	509	616
8	0	0	0	0	504	616
9	0	0	0	0	499	615
10	0	0	0	0	493	616
11	0	0	0	0	488	616
12	0	0	0	0	482	616
13	0	0	0	0	474	618
14	0	0	0	0	465	615
15	0	0	0	0	457	616
0	0	0	0	0	449	616
1	0	0	0	0	440	615
2	0	0	0	0	432	615
3	0	0	0	0	425	615
4	0	0	0	0	419	615
5	0	0	0	0	413	618
6	0	0	0	0	408	616
7	0	0	0	0	405	615
8	0	0	0	0	403	615
9	0	0	0	0	402	614
10	0	0	0	0	402	615
11	0	0	0	0	402	616
12	0	0	0	0	404	615
13	0	0	0	0	408	618
14	0	0	0	0	414	616
15	0	0	0	0	421	615
0	0	0	0	0	428	615
1	0	0	0	0	434	615
2	0	0	0	0	442	616
3	0	0	0	0	454	616
4	0	0	0	0	471	616
5	0	0	0	0	494	618
6	0	0	0	0	520	616
7	0	0	0	0	550	615
8	0	0	0	0	587	615
9	0	0	0	0	631	614
10	0	0	0	0	679	616
11	0	0	0	0	728	616
12	0	0	0	0	780	615
13	0	0	0	0	830	618
14	0	0	0	0	876	616
15	0	0	0	0	916	616
0	0	0	0	0	948	615
1	0	0	0	0	973	614
2	0	0	0	0	992	616
3	0	0	0	0	1005	616
4	0	0	0	0	1013	616
5	0	0	0	0	1017	618
6	0	0	0	0	1016	615
7	0	0	0	0	1012	615
8	0	0	0	0	1003	616
9	0	0	0	0	990	614
10	0	0	0	0	973	616
11	0	0	0	0	952	616
12	0	0	0	0	928	617
13	0	0	0	0	899	619
14	0	0	0	0	866	616
15	0	0	0	0	830	616
0	0	0	0	0	797	616
1	0	0	0	0	767	615
2	0	0	0	0	738	616
3	0	0	0	0	711	616
4	0	0	0	0	684	616
5	0	0	0	0	660	618
6	0	0	0	0	639	615
7	0	0	0	0	620	616
8	0	0	0	0	604	616
9	0	0	0	0	590	614
10	0	0	0	0	576	615
11	0	0	0	0	563	616
12	0	0	0	0	551	616
13	0	0	0	0	540	619
14	0	0	0	0	528	616
15	0	0	0	0	516	616
0	0	0	0	0	505	616
1	0	0	0	0	494	614
2	0	0	0	0	484	615
3	0	0	0	0	474	615
4	0	0	0	0	463	615
5	0	0	0	0	453	618
6	0	0	0	0	443	615
7	0	0	0	0	433	615
8	0	0	0	0	423	616
9	0	0	0	0	414	614
10	0	0	0	0	407	616
11	0	0	0	0	401	616
12	0	0	0	0	397	615
13	0	0	0	0	394	618
14	0	0	0	0	392	615
15	0	0	0	0	390	615
0	0	0	0	0	390	616
1	0	0	0	0	390	615
2	0	0	0	0	391	616
3	0	0	0	0	392	616
4	0	0	0	0	393	615
5	0	0	0	0	396	618
6	0	0	0	0	396	616
7	0	0	0	0	396	615
8	0	0	0	0	395	615
9	0	0	0	0	393	614
10	0	0	0	0	391	616
11	0	0	0	0	388	615
12	0	0	0	0	385	616
13	0	0	0	0	383	619
14	0	0	0	0	382	616
15	0	0	0	0	380	616
0	0	0	0	0	380	616
1	0	0	0	0	380	614
2	0	0	0	0	382	615
3	0	0	0	0	384	616
4	0	0	0	0	386	615
5	0	0	0	0	389	618
6	0	0	0	0	392	615
7	0	0	0	0	395	615
8	0	0	0	0	398	615
9	0	0	0	0	401	614
10	0	0	0	0	403	615
11	0	0	0	0	404	615
12	0	0	0	0	404	616
13	0	0	0	0	404	618
14	0	0	0	0	403	616
15	0	0	0	0	402	615
0	0	0	0	0	399	616
1	0	0	0	0	398	615
2	0	0	0	0	396	616
3	0	0	0	0	396	615
4	0	0	0	0	396	616
5	0	0	0	0	396	618
6	0	0	0	0	398	616
7	0	0	0	0	400	615
8	0	0	0	0	402	616
9	0	0	0	0	406	614
10	0	0	0	0	409	616
11	0	0	0	0	412	615
12	0	0	0	0	415	616
13	0	0	0	0	418	617
14	0	0	0	0	419	615
15	0	0	0	0	420	615
0	0	0	0	0	419	615
1	0	0	0	0	419	615
2	0	0	0	0	417	615
3	0	0	0	0	415	615
4	0	0	0	0	413	615
5	0	0	0	0	412	618
6	0	0	0	0	411	616
7	0	0	0	0	410	615
8	0	0	0	0	412	616
9	0	0	0	0	413	615
10	0	0	0	0	415	616
11	0	0	0	0	417	616
12	0	0	0	0	419	616
13	0	0	0	0	423	618
14	0	0	0	0	426	615
15	0	0	0	0	429	615
0	0	0	0	0	432	616
1	0	0	0	0	435	614
2	0	0	0	0	436	616
3	0	0	0	0	436	615
4	0	0	0	0	435	615
5	0	0	0	0	435	617
6	0	0	0	0	433	616
7	0	0	0	0	432	616
8	0	0	0	0	430	616
9	0	0	0	0	428	615
10	0	0	0	0	427	616
11	0	0	0	0	426	616
12	0	0	0	0	425	616
13	0	0	0	0	425	619
14	0	0	0	0	427	616
15	0	0	0	0	428	616
0	0	0	0	0	431	615
1	0	0	0	0	433	615
2	0	0	0	0	436	616
3	0	0	0	0	440	616
4	0	0	0	0	443	616
5	0	0	0	0	445	619
6	0	0	0	0	446	616
7	0	0	0	0	446	616
8	0	0	0	0	446	616
9	0	0	0	0	445	614
10	0	0	0	0	444	615
11	0	0	0	0	441	616
12	0	0	0	0	438	615
13	0	0	0	0	436	618
14	0	0	0	0	435	616
15	0	0	0	0	433	615
0	0	0	0	0	433	615
1	0	0	0	0	434	614
2	0	0	0	0	435	615
3	0	0	0	0	436	615
4	0	0	0	0	438	616
5	0	0	0	0	441	618
6	0	0	0	0	444	616
7	0	0	0	0	447	616
8	0	0	0	0	450	616
9	0	0	0	0	452	614
10	0	0	0	0	453	616
11	0	0	0	0	453	615
12	0	0	0	0	452	615
13	0	0	0	0	451	619
14	0	0	0	0	448	616
15	0	0	0	0	447	616
0	0	0	0	0	444	616
1	0	0	0	0	441	614
2	0	0	0	0	440	616
3	0	0	0	0	439	616
4	0	0	0	0	439	616
5	0	0	0	0	439	619
6	0	0	0	0	440	615
7	0	0	0	0	441	616
8	0	0	0	0	443	615
9	0	0	0	0	446	615
10	0	0	0	0	449	616
11	0	0	0	0	451	615
12	0	0	0	0	454	616
13	0	0	0	0	455	618
14	0	0	0	0	456	615
15	0	0	0	0	458	615
0	0	0	0	0	457	616
1	0	0	0	0	456	615
2	0	0	0	0	454	616
3	0	0	0	0	452	616
4	0	0	0	0	450	615
5	0	0	0	0	448	618
6	0	0	0	0	447	616
7	0	0	0	0	446	616
8	0	0	0	0	446	616
9	0	0	0	0	446	615
10	0	0	0	0	447	616
11	0	0	0	0	449	616
12	0	0	0	0	451	616
13	0	0	0	0	454	619
14	0	0	0	0	456	616
15	0	0	0	0	460	616
0	0	0	0	0	463	616
1	0	0	0	0	464	615
2	0	0	0	0	465	616
3	0	0	0	0	466	615
4	0	0	0	0	467	615
5	0	0	0	0	467	618
6	0	0	0	0	465	616
7	0	0	0	0	463	616
8	0	0	0	0	462	615
9	0	0	0	0	461	614
10	0	0	0	0	460	616
11	0	0	0	0	460	615
12	0	0	0	0	461	616
13	0	0	0	0	462	619
14	0	0	0	0	464	616
15	0	0	0	0	467	616
0	0	0	0	0	470	616
1	0	0	0	0	473	615
2	0	0	0	0	477	616
3	0	0	0	0	480	616
4	0	0	0	0	484	616
5	0	0	0	0	488	618
6	0	0	0	0	490	616
7	0	0	0	0	491	615
8	0	0	0	0	491	616
9	0	0	0	0	491	614
10	0	0	0	0	490	616
11	0	0	0	0	489	616
12	0	0	0	0	487	616
13	0	0	0	0	486	618
14	0	0	0	0	485	616
15	0	0	0	0	484	616
0	0	0	0	0	485	615
1	0	0	0	0	486	614
2	0	0	0	0	487	616
3	0	0	0	0	490	616
4	0	0	0	0	493	616
5	0	0	0	0	496	618
6	0	0	0	0	500	616
7	0	0	0	0	504	616
8	0	0	0	0	508	615
9	0	0	0	0	511	615
10	0	0	0	0	512	616
11	0	0	0	0	514	616
12	0	0	0	0	514	616
13	0	0	0	0	515	618
14	0	0	0	0	514	615
15	0	0	0	0	513	616
0	0	0	0	0	512	615
1	0	0	0	0	511	614
2	0	0	0	0	509	615
3	0	0	0	0	509	616
4	0	0	0	0	509	616
5	0	0	0	0	510	618
6	0	0	0	0	511	616
7	0	0	0	0	513	616
8	0	0	0	0	516	616
9	0	0	0	0	519	614
10	0	0	0	0	522	615
11	0	0	0	0	525	615
12	0	0	0	0	528	615
13	0	0	0	0	531	618
14	0	0	0	0	533	616
15	0	0	0	0	534	616
0	0	0	0	0	534	615
1	0	0	0	0	534	615
2	0	0	0	0	532	616
3	0	0	0	0	530	616
4	0	0	0	0	528	617
5	0	0	0	0	526	619
6	0	0	0	0	525	616
7	0	0	0	0	524	616
8	0	0	0	0	524	616
9	0	0	0	0	524	614
10	0	0	0	0	525	616
11	0	0	0	0	526	616
12	0	0	0	0	527	616
13	0	0	0	0	531	618
14	0	0	0	0	534	616
15	0	0	0	0	536	616
0	0	0	0	0	539	616
1	0	0	0	0	541	614
2	0	0	0	0	543	616
3	0	0	0	0	543	616
4	0	0	0	0	544	616
5	0	0	0	0	543	618
6	0	0	0	0	541	616
7	0	0	0	0	539	616
8	0	0	0	0	536	615
9	0	0	0	0	533	615
10	0	0	0	0	531	616
11	0	0	0	0	530	615
12	0	0	0	0	528	615
13	0	0	0	0	529	618
14	0	0	0	0	530	616
15	0	0	0	0	531	615
0	0	0	0	0	533	616
1	0	0	0	0	536	615
2	0	0	0	0	538	616
3	0	0	0	0	540	615
4	0	0	0	0	543	616
5	0	0	0	0	544	618
6	0	0	0	0	545	616
7	0	0	0	0	544	615
8	0	0	0	0	543	615
9	0	0	0	0	542	615
10	0	0	0	0	539	615
11	0	0	0	0	537	616
12	0	0	0	0	534	616
13	0	0	0	0	531	618
14	0	0	0	0	529	616
15	0	0	0	0	528	616
0	0	0	0	0	528	615
1	0	0	0	0	528	615
2	0	0	0	0	528	615
3	0	0	0	0	529	616
4	0	0	0	0	530	616
5	0	0	0	0	532	619
6	0	0	0	0	535	616
7	0	0	0	0	536	616
8	0	0	0	0	539	616
9	0	0	0	0	541	615
10	0	0	0	0	542	616
11	0	0	0	0	542	616
12	0	0	0	0	540	616
13	0	0	0	0	539	619
14	0	0	0	0	536	616
15	0	0	0	0	534	616
0	0	0	0	0	531	615
1	0	0	0	0	528	614
2	0	0	0	0	527	616
3	0	0	0	0	526	615
4	0	0	0	0	525	615
5	0	0	0	0	526	617
6	0	0	0	0	526	616
7	0	0	0	0	527	615
8	0	0	0	0	529	615
9	0	0	0	0	531	614
10	0	0	0	0	533	616
11	0	0	0	0	535	616
12	0	0	0	0	537	616
13	0	0	0	0	539	618
14	0	0	0	0	539	616
15	0	0	0	0	540	616
0	0	0	0	0	538	615
1	0	0	0	0	536	615
2	0	0	0	0	532	616
3	0	0	0	0	529	615
4	0	0	0	0	527	615
5	0	0	0	0	524	618
6	0	0	0	0	523	616
7	0	0	0	0	521	616
8	0	0	0	0	520	615
9	0	0	0	0	520	614
10	0	0	0	0	519	615
11	0	0	0	0	520	615
12	0	0	0	0	522	616
13	0	0	0	0	524	618
14	0	0	0	0	526	615
15	0	0	0	0	528	615
0	0	0	0	0	531	616
1	0	0	0	0	533	615
2	0	0	0	0	534	616
3	0	0	0	0	534	616
4	0	0	0	0	533	615
5	0	0	0	0	532	619
6	0	0	0	0	529	616
7	0	0	0	0	526	616
8	0	0	0	0	523	616
9	0	0	0	0	520	614
10	0	0	0	0	518	616
11	0	0	0	0	516	615
12	0	0	0	0	515	615
13	0	0	0	0	515	619
14	0	0	0	0	515	616
15	0	0	0	0	515	616
0	0	0	0	0	517	616
1	0	0	0	0	519	615
2	0	0	0	0	521	616
3	0	0	0	0	523	616
4	0	0	0	0	525	616
5	0	0	0	0	527	618
6	0	0	0	0	527	616
7	0	0	0	0	527	616
8	0	0	0	0	526	616
9	0	0	0	0	525	615
10	0	0	0	0	523	616
11	0	0	0	0	521	617
12	0	0	0	0	518	616
13	0	0	0	0	516	618
14	0	0	0	0	514	616
15	0	0	0	0	512	616
0	0	0	0	0	512	616
1	0	0	0	0	512	614
2	0	0	0	0	512	616
3	0	0	0	0	513	616
4	0	0	0	0	515	615
5	0	0	0	0	517	618
6	0	0	0	0	519	616
7	0	0	0	0	521	615
8	0	0	0	0	524	616
9	0	0	0	0	525	614
10	0	0	0	0	526	615
11	0	0	0	0	526	616
12	0	0	0	0	525	615
13	0	0	0	0	524	618
14	0	0	0	0	522	615
15	0	0	0	0	519	615
0	0	0	0	0	516	615
1	0	0	0	0	514	614
2	0	0	0	0	512	616
3	0	0	0	0	511	616
4	0	0	0	0	511	616
5	0	0	0	0	511	618
6	0	0	0	0	512	616
7	0	0	0	0	513	616
8	0	0	0	0	513	616
9	0	0	0	0	515	614
10	0	0	0	0	518	616
11	0	0	0	0	519	615
12	0	0	0	0	522	615
13	0	0	0	0	523	617
14	0	0	0	0	525	615
15	0	0	0	0	526	616
0	0	0	0	0	525	616
1	0	0	0	0	524	615
2	0	0	0	0	522	616
3	0	0	0	0	520	616
4	0	0	0	0	518	616
5	0	0	0	0	515	619
6	0	0	0	0	513	616
7	0	0	0	0	511	615
8	0	0	0	0	511	616
9	0	0	0	0	512	614
10	0	0	0	0	512	615
11	0	0	0	0	513	616
12	0	0	0	0	514	616
13	0	0	0	0	516	619
14	0	0	0	0	519	616
15	0	0	0	0	521	616
0	0	0	0	0	524	616
1	0	0	0	0	527	614
2	0	0	0	0	528	615
3	0	0	0	0	528	615
4	0	0	0	0	528	615
5	0	0	0	0	527	618
6	0	0	0	0	525	616
7	0	0	0	0	523	616
8	0	0	0	0	520	615
9	0	0	0	0	518	615
10	0	0	0	0	516	617
11	0	0	0	0	514	616
12	0	0	0	0	513	616
13	0	0	0	0	513	618
14	0	0	0	0	513	615
15	0	0	0	0	515	616
0	0	0	0	0	517	616
1	0	0	0	0	519	614
2	0	0	0	0	521	615
3	0	0	0	0	522	615
4	0	0	0	0	524	615
5	0	0	0	0	526	618
6	0	0	0	0	527	616
7	0	0	0	0	527	616
8	0	0	0	0	527	615
9	0	0	0	0	527	615
10	0	0	0	0	524	616
11	0	0	0	0	522	616
12	0	0	0	0	519	616
13	0	0	0	0	516	619
14	0	0	0	0	515	616
15	0	0	0	0	514	615
0	0	0	0	0	513	616
1	0	0	0	0	514	614
2	0	0	0	0	514	615
3	0	0	0	0	516	616
4	0	0	0	0	517	616
5	0	0	0	0	519	618
6	0	0	0	0	522	616
7	0	0	0	0	524	615
8	0	0	0	0	526	615
9	0	0	0	0	527	614
10	0	0	0	0	528	616
11	0	0	0	0	528	616
12	0	0	0	0	528	616
13	0	0	0	0	527	618
14	0	0	0	0	525	615
15	0	0	0	0	523	615
0	0	0	0	0	520	616
1	0	0	0	0	517	614
2	0	0	0	0	515	616
3	0	0	0	0	513	616
4	0	0	0	0	512	616
5	0	0	0	0	512	618
6	0	0	0	0	512	616
7	0	0	0	0	513	615
8	0	0	0	0	515	616
9	0	0	0	0	517	614
10	0	0	0	0	519	615
11	0	0	0	0	522	615
12	0	0	0	0	524	616
13	0	0	0	0	525	618
14	0	0	0	0	526	616
15	0	0	0	0	526	616
0	0	0	0	0	525	616
1	0	0	0	0	524	615
2	0	0	0	0	521	616
3	0	0	0	0	519	615
4	0	0	0	0	516	616
5	0	0	0	0	514	617
6	0	0	0	0	513	615
7	0	0	0	0	512	615
8	0	0	0	0	512	616
9	0	0	0	0	511	615
10	0	0	0	0	511	616
11	0	0	0	0	512	616
12	0	0	0	0	514	616
13	0	0	0	0	515	619
14	0	0	0	0	518	616
15	0	0	0	0	519	616
0	0	0	0	0	521	616
1	0	0	0	0	524	615
2	0	0	0	0	525	616
3	0	0	0	0	525	615
4	0	0	0	0	524	615
5	0	0	0	0	523	618
6	0	0	0	0	520	615
7	0	0	0	0	518	615
8	0	0	0	0	515	615
9	0	0	0	0	513	615
10	0	0	0	0	512	616
11	0	0	0	0	510	616
12	0	0	0	0	509	616
13	0	0	0	0	508	618
14	0	0	0	0	508	616
15	0	0	0	0	510	616
0	0	0	0	0	512	615
1	0	0	0	0	513	615
2	0	0	0	0	515	616
3	0	0	0	0	517	615
4	0	0	0	0	519	616
5	0	0	0	0	522	618
6	0	0	0	0	523	616
7	0	0	0	0	522	616
8	0	0	0	0	521	615
9	0	0	0	0	520	614
10	0	0	0	0	518	615
11	0	0	0	0	516	616
12	0	0	0	0	513	616
13	0	0	0	0	512	618
14	0	0	0	0	510	616
15	0	0	0	0	508	616
0	0	0	0	0	508	616
1	0	0	0	0	508	615
2	0	0	0	0	508	616
3	0	0	0	0	509	616
4	0	0	0	0	511	616
5	0	0	0	0	512	618
6	0	0	0	0	515	616
7	0	0	0	0	517	616
8	0	0	0	0	519	616
9	0	0	0	0	521	615
10	0	0	0	0	522	616
11	0	0	0	0	523	616
12	0	0	0	0	522	616
13	0	0	0	0	521	618
14	0	0	0	0	518	616
15	0	0	0	0	515	616
0	0	0	0	0	513	617
1	0	0	0	0	511	615
2	0	0	0	0	508	616
3	0	0	0	0	507	616
4	0	0	0	0	507	616
5	0	0	0	0	507	619
6	0	0	0	0	506	616
7	0	0	0	0	508	616
8	0	0	0	0	510	616
9	0	0	0	0	511	614
10	0	0	0	0	513	616
11	0	0	0	0	516	616
12	0	0	0	0	518	616
13	0	0	0	0	520	618
14	0	0	0	0	521	616
15	0	0	0	0	521	616
0	0	0	0	0	520	616
1	0	0	0	0	519	615
2	0	0	0	0	516	616
3	0	0	0	0	513	616
4	0	0	0	0	511	616
5	0	0	0	0	509	619
6	0	0	0	0	508	617
7	0	0	0	0	505	616
8	0	0	0	0	505	616
9	0	0	0	0	505	615
10	0	0	0	0	506	617
11	0	0	0	0	507	616
12	0	0	0	0	509	616
13	0	0	0	0	511	618
14	0	0	0	0	513	616
15	0	0	0	0	515	616
0	0	0	0	0	517	615
1	0	0	0	0	518	614
2	0	0	0	0	519	616
3	0	0	0	0	519	615
4	0	0	0	0	519	615
5	0	0	0	0	518	618
6	0	0	0	0	515	615
7	0	0	0	0	512	615
8	0	0	0	0	510	616
9	0	0	0	0	507	614
10	0	0	0	0	506	616
11	0	0	0	0	505	616
12	0	0	0	0	504	616
13	0	0	0	0	504	619
14	0	0	0	0	505	616
15	0	0	0	0	506	617
0	0	0	0	0	509	616
1	0	0	0	0	511	615
2	0	0	0	0	513	616
3	0	0	0	0	515	616
4	0	0	0	0	517	616
5	0	0	0	0	519	619
6	0	0	0	0	520	616
7	0	0	0	0	520	616
8	0	0	0	0	519	616
9	0	0	0	0	518	615
10	0	0	0	0	515	616
11	0	0	0	0	513	616
12	0	0	0	0	510	616
13	0	0	0	0	508	619
14	0	0	0	0	505	616
15	0	0	0	0	504	616
0	0	0	0	0	504	615
1	0	0	0	0	503	614
2	0	0	0	0	504	615
3	0	0	0	0	504	616
4	0	0	0	0	506	616
5	0	0	0	0	508	618
6	0	0	0	0	511	616
7	0	0	0	0	512	616
8	0	0	0	0	514	616
9	0	0	0	0	517	615
10	0	0	0	0	518	616
11	0	0	0	0	519	616
12	0	0	0	0	519	616
13	0	0	0	0	518	619
14	0	0	0	0	515	615
15	0	0	0	0	513	616
0	0	0	0	0	511	615
1	0	0	0	0	508	614
2	0	0	0	0	506	615
3	0	0	0	0	504	615
4	0	0	0	0	504	615
5	0	0	0	0	503	617
6	0	0	0	0	504	616
7	0	0	0	0	504	616
8	0	0	0	0	506	616
9	0	0	0	0	508	615
10	0	0	0	0	511	616
11	0	0	0	0	513	616
12	0	0	0	0	516	617
13	0	0	0	0	518	619
14	0	0	0	0	519	615
15	0	0	0	0	519	616
0	0	0	0	0	519	615
1	0	0	0	0	517	614
2	0	0	0	0	515	616
3	0	0	0	0	512	616
4	0	0	0	0	509	616
5	0	0	0	0	506	618
6	0	0	0	0	504	616
7	0	0	0	0	502	616
8	0	0	0	0	501	616
9	0	0	0	0	502	615
10	0	0	0	0	502	616
11	0	0	0	0	504	616
12	0	0	0	0	505	616
13	0	0	0	0	508	618
14	0	0	0	0	509	615
15	0	0	0	0	512	615
0	0	0	0	0	514	615
1	0	0	0	0	516	614
2	0	0	0	0	518	616
3	0	0	0	0	517	616
4	0	0	0	0	517	615
5	0	0	0	0	516	619
6	0	0	0	0	513	616
7	0	0	0	0	511	616
8	0	0	0	0	508	616
9	0	0	0	0	506	615
10	0	0	0	0	504	616
11	0	0	0	0	503	616
12	0	0	0	0	502	616
13	0	0	0	0	501	618
14	0	0	0	0	501	615
15	0	0	0	0	502	616
0	0	0	0	0	504	616
1	0	0	0	0	505	614
2	0	0	0	0	508	616
3	0	0	0	0	510	615
4	0	0	0	0	512	615
5	0	0	0	0	513	618
6	0	0	0	0	514	615
7	0	0	0	0	515	616
8	0	0	0	0	514	616
9	0	0	0	0	512	614
10	0	0	0	0	509	616
11	0	0	0	0	506	615
12	0	0	0	0	503	615
13	0	0	0	0	500	618
14	0	0	0	0	498	616
15	0	0	0	0	497	616
0	0	0	0	0	496	617
1	0	0	0	0	496	615
2	0	0	0	0	496	616
3	0	0	0	0	497	616
4	0	0	0	0	499	616
5	0	0	0	0	502	618
6	0	0	0	0	504	615
7	0	0	0	0	506	615
8	0	0	0	0	508	616
9	0	0	0	0	510	614
10	0	0	0	0	510	616
11	0	0	0	0	510	616
12	0	0	0	0	509	616
13	0	0	0	0	508	618
14	0	0	0	0	505	615
15	0	0	0	0	504	616
0	0	0	0	0	500	615
1	0	0	0	0	498	614
2	0	0	0	0	497	616
3	0	0	0	0	496	616
4	0	0	0	0	495	615
5	0	0	0	0	496	618
6	0	0	0	0	496	616
7	0	0	0	0	497	616
8	0	0	0	0	499	616
9	0	0	0	0	501	615
10	0	0	0	0	504	616
11	0	0	0	0	505	616
12	0	0	0	0	508	616
13	0	0	0	0	511	618
14	0	0	0	0	512	616
15	0	0	0	0	512	615
0	0	0	0	0	512	616
1	0	0	0	0	512	614
2	0	0	0	0	511	615
3	0	0	0	0	509	616
4	0	0	0	0	507	616
5	0	0	0	0	505	618
6	0	0	0	0	504	616
7	0	0	0	0	503	615
8	0	0	0	0	503	616
9	0	0	0	0	504	615
10	0	0	0	0	504	616
11	0	0	0	0	506	616
12	0	0	0	0	508	617
13	0	0	0	0	509	619
14	0	0	0	0	511	616
15	0	0	0	0	513	616
0	0	0	0	0	515	616
1	0	0	0	0	516	614
2	0	0	0	0	517	616
3	0	0	0	0	516	615
4	0	0	0	0	515	616
5	0	0	0	0	515	618
6	0	0	0	0	513	616
7	0	0	0	0	511	615
8	0	0	0	0	508	616
9	0	0	0	0	506	615
10	0	0	0	0	504	615
11	0	0	0	0	504	615
12	0	0	0	0	503	615
13	0	0	0	0	504	617
14	0	0	0	0	504	615
15	0	0	0	0	506	616
0	0	0	0	0	508	615
1	0	0	0	0	510	615
2	0	0	0	0	512	615
3	0	0	0	0	513	615
4	0	0	0	0	516	616
5	0	0	0	0	517	618
6	0	0	0	0	517	616
7	0	0	0	0	516	616
8	0	0	0	0	515	615
9	0	0	0	0	515	615
10	0	0	0	0	513	615
11	0	0	0	0	512	616
12	0	0	0	0	509	615
13	0	0	0	0	506	618
14	0	0	0	0	504	616
15	0	0	0	0	503	616
0	0	0	0	0	503	615
1	0	0	0	0	503	614
2	0	0	0	0	503	615
3	0	0	0	0	505	616
4	0	0	0	0	506	616
5	0	0	0	0	508	618
6	0	0	0	0	510	615
7	0	0	0	0	513	615
8	0	0	0	0	516	616
9	0	0	0	0	518	615
10	0	0	0	0	519	616
11	0	0	0	0	519	616
12	0	0	0	0	518	616
13	0	0	0	0	517	618
14	0	0	0	0	514	616
15	0	0	0	0	511	616
0	0	0	0	0	510	616
1	0	0	0	0	508	614
2	0	0	0	0	507	616
3	0	0	0	0	504	616
4	0	0	0	0	503	616
5	0	0	0	0	503	618
6	0	0	0	0	504	615
7	0	0	0	0	504	617
8	0	0	0	0	505	615
9	0	0	0	0	508	614
10	0	0	0	0	509	615
11	0	0	0	0	511	615
12	0	0	0	0	513	615
13	0	0	0	0	516	618
14	0	0	0	0	517	616
15	0	0	0	0	517	616
0	0	0	0	0	516	616
1	0	0	0	0	515	615
2	0	0	0	0	513	616
3	0	0	0	0	511	616
4	0	0	0	0	508	616
5	0	0	0	0	505	618
6	0	0	0	0	504	616
7	0	0	0	0	502	615
8	0	0	0	0	501	616
9	0	0	0	0	501	614
10	0	0	0	0	501	615
11	0	0	0	0	502	615
12	0	0	0	0	503	616
13	0	0	0	0	504	618
14	0	0	0	0	505	615
15	0	0	0	0	505	616
0	0	0	0	0	504	616
1	0	0	0	0	501	614
2	0	0	0	0	495	616
3	0	0	0	0	487	616
4	0	0	0	0	477	616
5	0	0	0	0	465	618
6	0	0	0	0	453	616
7	0	0	0	0	440	616
8	0	0	0	0	428	616
9	0	0	0	0	417	614
10	0	0	0	0	407	617
11	0	0	0	0	398	616
12	0	0	0	0	391	616
13	0	0	0	0	389	618
14	0	0	0	0	389	615
15	0	0	0	0	391	616
0	0	0	0	0	395	616
1	0	0	0	0	401	615
2	0	0	0	0	411	616
3	0	0	0	0	421	616
4	0	0	0	0	432	616
5	0	0	0	0	443	618
6	0	0	0	0	451	616
7	0	0	0	0	459	615
8	0	0	0	0	466	615
9	0	0	0	0	475	615
10	0	0	0	0	488	616
11	0	0	0	0	507	616
12	0	0	0	0	527	616
13	0	0	0	0	553	618
14	0	0	0	0	587	616
15	0	0	0	0	628	616
0	0	0	0	0	673	615
1	0	0	0	0	722	614
2	0	0	0	0	775	616
3	0	0	0	0	827	616
4	0	0	0	0	875	615
5	0	0	0	0	917	617
6	0	0	0	0	953	616
7	0	0	0	0	982	616
8	0	0	0	0	1004	615
9	0	0	0	0	1017	614
10	0	0	0	0	1022	615
11	0	0	0	0	1022	615
12	0	0	0	0	1022	615
13	0	0	0	0	1017	618
14	0	0	0	0	1002	615
15	0	0	0	0	984	616
0	0	0	0	0	962	615
1	0	0	0	0	935	614
2	0	0	0	0	907	615
3	0	0	0	0	874	615
4	0	0	0	0	839	616
5	0	0	0	0	804	618
6	0	0	0	0	773	615
7	0	0	0	0	745	616
8	0	0	0	0	720	617
9	0	0	0	0	698	615
10	0	0	0	0	677	617
11	0	0	0	0	659	616
12	0	0	0	0	643	616
13	0	0	0	0	629	619
14	0	0	0	0	615	616
15	0	0	0	0	602	615
0	0	0	0	0	588	615
1	0	0	0	0	573	615
2	0	0	0	0	557	615
3	0	0	0	0	542	616
4	0	0	0	0	525	616
5	0	0	0	0	510	618
6	0	0	0	0	495	615
7	0	0	0	0	481	616
8	0	0	0	0	469	617
9	0	0	0	0	458	614
10	0	0	0	0	448	616
11	0	0	0	0	440	616
12	0	0	0	0	433	616
13	0	0	0	0	428	618
14	0	0	0	0	424	616
15	0	0	0	0	421	615
0	0	0	0	0	418	616
1	0	0	0	0	416	614
2	0	0	0	0	413	615
3	0	0	0	0	410	615
4	0	0	0	0	406	615
5	0	0	0	0	403	618
6	0	0	0	0	399	615
7	0	0	0	0	394	616
8	0	0	0	0	390	615
9	0	0	0	0	386	615
10	0	0	0	0	383	616
11	0	0	0	0	380	616
12	0	0	0	0	379	615
13	0	0	0	0	379	618
14	0	0	0	0	380	615
15	0	0	0	0	381	616
0	0	0	0	0	383	615
1	0	0	0	0	385	614
2	0	0	0	0	387	616
3	0	0	0	0	390	616
4	0	0	0	0	392	617
5	0	0	0	0	394	618
6	0	0	0	0	396	616
7	0	0	0	0	396	616
8	0	0	0	0	397	615
9	0	0	0	0	397	614
10	0	0	0	0	396	616
11	0	0	0	0	395	615
12	0	0	0	0	393	615
13	0	0	0	0	391	618
14	0	0	0	0	390	616
15	0	0	0	0	389	616
0	0	0	0	0	389	616
1	0	0	0	0	389	615
2	0	0	0	0	391	616
3	0	0	0	0	393	616
4	0	0	0	0	396	615
5	0	0	0	0	399	618
6	0	0	0	0	402	615
7	0	0	0	0	404	615
8	0	0	0	0	408	615
9	0	0	0	0	411	615
10	0	0	0	0	412	616
11	0	0	0	0	414	615
12	0	0	0	0	414	615
13	0	0	0	0	414	618
14	0	0	0	0	412	616
15	0	0	0	0	410	616
0	0	0	0	0	409	615
1	0	0	0	0	407	614
2	0	0	0	0	406	616
3	0	0	0	0	405	616
4	0	0	0	0	405	615
5	0	0	0	0	407	618
6	0	0	0	0	408	615
7	0	0	0	0	410	615
8	0	0	0	0	412	616
9	0	0	0	0	415	615
10	0	0	0	0	419	616
11	0	0	0	0	422	616
12	0	0	0	0	425	616
13	0	0	0	0	428	618
14	0	0	0	0	430	616
15	0	0	0	0	431	616
0	0	0	0	0	432	615
1	0	0	0	0	432	615
2	0	0	0	0	430	616
3	0	0	0	0	428	616
4	0	0	0	0	426	616
5	0	0	0	0	424	618
6	0	0	0	0	423	616
7	0	0	0	0	422	616
8	0	0	0	0	422	616
9	0	0	0	0	423	615
10	0	0	0	0	424	616
11	0	0	0	0	425	616
12	0	0	0	0	427	616
13	0	0	0	0	430	618
14	0	0	0	0	433	616
15	0	0	0	0	436	616
0	0	0	0	0	440	616
1	0	0	0	0	443	615
2	0	0	0	0	444	615
3	0	0	0	0	446	616
4	0	0	0	0	445	615
5	0	0	0	0	444	618
6	0	0	0	0	442	615
7	0	0	0	0	440	615
8	0	0	0	0	438	615
9	0	0	0	0	436	614
10	0	0	0	0	435	615
11	0	0	0	0	434	615
12	0	0	0	0	433	616
13	0	0	0	0	433	618
14	0	0	0	0	434	616
15	0	0	0	0	436	616
0	0	0	0	0	438	615
1	0	0	0	0	440	614
2	0	0	0	0	442	615
3	0	0	0	0	445	615
4	0	0	0	0	447	616
5	0	0	0	0	449	618
6	0	0	0	0	451	616
7	0	0	0	0	452	615
8	0	0	0	0	452	615
9	0	0	0	0	451	615
10	0	0	0	0	449	616
11	0	0	0	0	447	617
12	0	0	0	0	444	616
13	0	0	0	0	443	618
14	0	0	0	0	441	616
15	0	0	0	0	440	616
0	0	0	0	0	440	616
1	0	0	0	0	439	614
2	0	0	0	0	440	616
3	0	0	0	0	442	616
4	0	0	0	0	444	615
5	0	0	0	0	447	618
6	0	0	0	0	449	616
7	0	0	0	0	452	616
8	0	0	0	0	456	616
9	0	0	0	0	459	615
10	0	0	0	0	460	616
11	0	0	0	0	461	615
12	0	0	0	0	461	615
13	0	0	0	0	460	618
14	0	0	0	0	459	616
15	0	0	0	0	457	616
0	0	0	0	0	455	615
1	0	0	0	0	452	614
2	0	0	0	0	450	616
3	0	0	0	0	449	616
4	0	0	0	0	449	615
5	0	0	0	0	449	618
6	0	0	0	0	450	615
7	0	0	0	0	451	616
8	0	0	0	0	453	616
9	0	0	0	0	455	614
10	0	0	0	0	457	616
11	0	0	0	0	460	616
12	0	0	0	0	463	616
13	0	0	0	0	465	618
14	0	0	0	0	467	616
15	0	0	0	0	467	616
0	0	0	0	0	467	616
1	0	0	0	0	466	615
2	0	0	0	0	464	616
3	0	0	0	0	463	616
4	0	0	0	0	461	616
5	0	0	0	0	459	618
6	0	0	0	0	458	616
7	0	0	0	0	456	616
8	0	0	0	0	457	616
9	0	0	0	0	457	614
10	0	0	0	0	458	616
11	0	0	0	0	460	616
12	0	0	0	0	462	616
13	0	0	0	0	465	619
14	0	0	0	0	468	616
15	0	0	0	0	472	615
0	0	0	0	0	474	616
1	0	0	0	0	477	614
2	0	0	0	0	479	616
3	0	0	0	0	480	616
4	0	0	0	0	481	615
5	0	0	0	0	480	619
6	0	0	0	0	479	616
7	0	0	0	0	478	616
8	0	0	0	0	478	616
9	0	0	0	0	476	615
10	0	0	0	0	476	616
11	0	0	0	0	476	616
12	0	0	0	0	476	616
13	0	0	0	0	478	619
14	0	0	0	0	480	616
15	0	0	0	0	482	616
0	0	0	0	0	484	615
1	0	0	0	0	487	615
2	0	0	0	0	491	616
3	0	0	0	0	495	616
4	0	0	0	0	498	615
5	0	0	0	0	502	618
6	0	0	0	0	504	616
7	0	0	0	0	505	616
8	0	0	0	0	506	616
9	0	0	0	0	506	615
10	0	0	0	0	505	616
11	0	0	0	0	503	616
12	0	0	0	0	502	615
13	0	0	0	0	500	618
14	0	0	0	0	501	616
15	0	0	0	0	500	616
0	0	0	0	0	501	616
1	0	0	0	0	502	615
2	0	0	0	0	503	616
3	0	0	0	0	505	616
4	0	0	0	0	508	616
5	0	0	0	0	510	618
6	0	0	0	0	513	615
7	0	0	0	0	516	616
8	0	0	0	0	520	616
9	0	0	0	0	523	615
10	0	0	0	0	525	616
11	0	0	0	0	526	616
12	0	0	0	0	526	615
13	0	0	0	0	526	618
14	0	0	0	0	524	616
15	0	0	0	0	522	616
0	0	0	0	0	520	616
1	0	0	0	0	519	615
2	0	0	0	0	517	616
3	0	0	0	0	516	615
4	0	0	0	0	516	615
5	0	0	0	0	516	618
6	0	0	0	0	518	615
7	0	0	0	0	520	616
8	0	0	0	0	522	615
9	0	0	0	0	525	614
10	0	0	0	0	528	616
11	0	0	0	0	531	616
12	0	0	0	0	534	616
13	0	0	0	0	537	618
14	0	0	0	0	538	616
15	0	0	0	0	540	616
0	0	0	0	0	540	615
1	0	0	0	0	539	614
2	0	0	0	0	536	615
3	0	0	0	0	535	616
4	0	0	0	0	532	615
5	0	0	0	0	530	618
6	0	0	0	0	528	616
7	0	0	0	0	526	616
8	0	0	0	0	526	615
9	0	0	0	0	526	614
10	0	0	0	0	526	616
11	0	0	0	0	527	616
12	0	0	0	0	528	616
13	0	0	0	0	531	618
14	0	0	0	0	533	615
15	0	0	0	0	536	615
0	0	0	0	0	537	615
1	0	0	0	0	540	613
2	0	0	0	0	540	615
3	0	0	0	0	540	616
4	0	0	0	0	540	616
5	0	0	0	0	540	618
6	0	0	0	0	537	616
7	0	0	0	0	535	615
8	0	0	0	0	532	615
9	0	0	0	0	530	614
10	0	0	0	0	528	616
11	0	0	0	0	527	615
12	0	0	0	0	526	616
13	0	0	0	0	526	618
14	0	0	0	0	526	615
15	0	0	0	0	527	616
0	0	0	0	0	529	616
1	0	0	0	0	531	614
2	0	0	0	0	534	616
3	0	0	0	0	535	616
4	0	0	0	0	538	616
5	0	0	0	0	539	619
6	0	0	0	0	540	616
7	0	0	0	0	540	616
8	0	0	0	0	539	616
9	0	0	0	0	538	615
10	0	0	0	0	536	616
11	0	0	0	0	534	616
12	0	0	0	0	531	616
13	0	0	0	0	529	618
14	0	0	0	0	528	617
15	0	0	0	0	526	616
0	0	0	0	0	525	616
1	0	0	0	0	525	615
2	0	0	0	0	525	615
3	0	0	0	0	526	615
4	0	0	0	0	527	616
5	0	0	0	0	529	618
6	0	0	0	0	531	616
7	0	0	0	0	533	615
8	0	0	0	0	536	616
9	0	0	0	0	536	614
10	0	0	0	0	537	615
11	0	0	0	0	537	615
12	0	0	0	0	536	615
13	0	0	0	0	535	618
14	0	0	0	0	533	615
15	0	0	0	0	530	616
0	0	0	0	0	527	615
1	0	0	0	0	525	614
2	0	0	0	0	523	615
3	0	0	0	0	521	615
4	0	0	0	0	521	615
5	0	0	0	0	521	618
6	0	0	0	0	521	616
7	0	0	0	0	522	616
8	0	0	0	0	523	616
9	0	0	0	0	525	615
10	0	0	0	0	527	616
11	0	0	0	0	530	615
12	0	0	0	0	532	615
13	0	0	0	0	534	618
14	0	0	0	0	535	616
15	0	0	0	0	535	616
0	0	0	0	0	535	616
1	0	0	0	0	534	615
2	0	0	0	0	531	616
3	0	0	0	0	528	616
4	0	0	0	0	525	616
5	0	0	0	0	522	618
6	0	0	0	0	520	616
7	0	0	0	0	518	615
8	0	0	0	0	517	615
9	0	0	0	0	516	614
10	0	0	0	0	516	615
11	0	0	0	0	517	616
12	0	0	0	0	519	615
13	0	0	0	0	521	617
14	0	0	0	0	524	615
15	0	0	0	0	527	615
0	0	0	0	0	529	616
1	0	0	0	0	531	615
2	0	0	0	0	532	616
3	0	0	0	0	531	616
4	0	0	0	0	531	616
5	0	0	0	0	528	619
6	0	0	0	0	526	616
7	0	0	0	0	523	615
8	0	0	0	0	520	615
9	0	0	0	0	518	615
10	0	0	0	0	516	616
11	0	0	0	0	515	615
12	0	0	0	0	515	615
13	0	0	0	0	515	619
14	0	0	0	0	515	616
15	0	0	0	0	515	617
0	0	0	0	0	516	615
1	0	0	0	0	519	615
2	0	0	0	0	521	616
3	0	0	0	0	523	616
4	0	0	0	0	526	615
5	0	0	0	0	527	617
6	0	0	0	0	528	615
7	0	0	0	0	528	615
8	0	0	0	0	528	615
9	0	0	0	0	527	614
10	0	0	0	0	525	616
11	0	0	0	0	523	616
12	0	0	0	0	519	616
13	0	0	0	0	517	618
14	0	0	0	0	515	616
15	0	0	0	0	513	616
0	0	0	0	0	512	616
1	0	0	0	0	512	615
2	0	0	0	0	511	616
3	0	0	0	0	513	615
4	0	0	0	0	515	615
5	0	0	0	0	518	618
6	0	0	0	0	519	616
7	0	0	0	0	521	616
8	0	0	0	0	524	617
9	0	0	0	0	526	614
10	0	0	0	0	527	616
11	0	0	0	0	526	615
12	0	0	0	0	526	616
13	0	0	0	0	524	619
14	0	0	0	0	522	616
15	0	0	0	0	519	616
0	0	0	0	0	517	615
1	0	0	0	0	514	614
2	0	0	0	0	512	616
3	0	0	0	0	510	616
4	0	0	0	0	510	616
5	0	0	0	0	510	619
6	0	0	0	0	510	616
7	0	0	0	0	511	616
8	0	0	0	0	512	616
9	0	0	0	0	515	615
10	0	0	0	0	518	615
11	0	0	0	0	521	615
12	0	0	0	0	524	616
13	0	0	0	0	526	618
14	0	0	0	0	527	616
15	0	0	0	0	528	615
0	0	0	0	0	528	616
1	0	0	0	0	527	615
2	0	0	0	0	524	616
3	0	0	0	0	521	616
4	0	0	0	0	519	616
5	0	0	0	0	515	618
6	0	0	0	0	513	616
7	0	0	0	0	512	616
8	0	0	0	0	511	615
9	0	0	0	0	512	615
10	0	0	0	0	512	616
11	0	0	0	0	514	616
12	0	0	0	0	516	615
13	0	0	0	0	519	617
14	0	0	0	0	522	615
15	0	0	0	0	523	615
0	0	0	0	0	526	615
1	0	0	0	0	528	614
2	0	0	0	0	529	615
3	0	0	0	0	529	615
4	0	0	0	0	529	616
5	0	0	0	0	528	619
6	0	0	0	0	526	616
7	0	0	0	0	523	616
8	0	0	0	0	519	615
9	0	0	0	0	516	615
10	0	0	0	0	513	615
11	0	0	0	0	512	616
12	0	0	0	0	511	616
13	0	0	0	0	511	618
14	0	0	0	0	512	616
15	0	0	0	0	513	616
0	0	0	0	0	515	616
1	0	0	0	0	518	615
2	0	0	0	0	520	616
3	0	0	0	0	523	615
4	0	0	0	0	525	616
5	0	0	0	0	527	618
6	0	0	0	0	528	616
7	0	0	0	0	528	615
8	0	0	0	0	527	616
9	0	0	0	0	527	615
10	0	0	0	0	524	615
11	0	0	0	0	521	616
12	0	0	0	0	519	616
13	0	0	0	0	516	618
14	0	0	0	0	514	616
15	0	0	0	0	512	616
0	0	0	0	0	512	615
1	0	0	0	0	512	615
2	0	0	0	0	512	615
3	0	0	0	0	513	615
4	0	0	0	0	515	615
5	0	0	0	0	518	618
6	0	0	0	0	520	615
7	0	0	0	0	522	615
8	0	0	0	0	524	615
9	0	0	0	0	526	615
10	0	0	0	0	527	616
11	0	0	0	0	528	616
12	0	0	0	0	527	616
13	0	0	0	0	526	619
14	0	0	0	0	524	617
15	0	0	0	0	521	616
0	0	0	0	0	518	616
1	0	0	0	0	515	615
2	0	0	0	0	514	616
3	0	0	0	0	513	615
4	0	0	0	0	512	615
5	0	0	0	0	512	618
6	0	0	0	0	513	616
7	0	0	0	0	515	616
8	0	0	0	0	516	617
9	0	0	0	0	518	615
10	0	0	0	0	520	617
11	0	0	0	0	522	615
12	0	0	0	0	525	616
13	0	0	0	0	527	618
14	0	0	0	0	527	616
15	0	0	0	0	528	615
0	0	0	0	0	527	615
1	0	0	0	0	525	614
2	0	0	0	0	523	615
3	0	0	0	0	520	615
4	0	0	0	0	517	615
5	0	0	0	0	515	618
6	0	0	0	0	512	616
7	0	0	0	0	511	615
8	0	0	0	0	509	615
9	0	0	0	0	510	615
10	0	0	0	0	510	616
11	0	0	0	0	511	616
12	0	0	0	0	513	616
13	0	0	0	0	515	618
14	0	0	0	0	518	615
15	0	0	0	0	520	615
0	0	0	0	0	522	615
1	0	0	0	0	524	613
2	0	0	0	0	525	615
3	0	0	0	0	525	615
4	0	0	0	0	524	615
5	0	0	0	0	523	618
6	0	0	0	0	520	616
7	0	0	0	0	517	617
8	0	0	0	0	515	616
9	0	0	0	0	512	615
10	0	0	0	0	510	617
11	0	0	0	0	508	616
12	0	0	0	0	507	616
13	0	0	0	0	507	618
14	0	0	0	0	508	615
15	0	0	0	0	509	615
0	0	0	0	0	511	615
1	0	0	0	0	512	614
2	0	0	0	0	514	615
3	0	0	0	0	517	615
4	0	0	0	0	519	616
5	0	0	0	0	521	618
6	0	0	0	0	523	616
7	0	0	0	0	523	616
8	0	0	0	0	522	616
9	0	0	0	0	521	615
10	0	0	0	0	519	615
11	0	0	0	0	516	615
12	0	0	0	0	513	615
13	0	0	0	0	511	617
14	0	0	0	0	508	615
15	0	0	0	0	506	615
0	0	0	0	0	505	616
1	0	0	0	0	505	615
2	0	0	0	0	505	617
3	0	0	0	0	507	616
4	0	0	0	0	508	616
5	0	0	0	0	510	619
6	0	0	0	0	513	616
7	0	0	0	0	515	616
8	0	0	0	0	517	616
9	0	0	0	0	519	614
10	0	0	0	0	521	615
11	0	0	0	0	521	615
12	0	0	0	0	521	615
13	0	0	0	0	519	617
14	0	0	0	0	516	616
15	0	0	0	0	514	616
0	0	0	0	0	511	616
1	0	0	0	0	509	615
2	0	0	0	0	506	616
3	0	0	0	0	504	616
4	0	0	0	0	504	616
5	0	0	0	0	504	618
6	0	0	0	0	504	615
7	0	0	0	0	505	615
8	0	0	0	0	508	616
9	0	0	0	0	510	614
10	0	0	0	0	512	615
11	0	0	0	0	515	615
12	0	0	0	0	518	615
13	0	0	0	0	519	618
14	0	0	0	0	520	616
15	0	0	0	0	520	616
0	0	0	0	0	520	615
1	0	0	0	0	520	614
2	0	0	0	0	518	616
3	0	0	0	0	515	615
4	0	0	0	0	512	615
5	0	0	0	0	509	617
6	0	0	0	0	508	615
7	0	0	0	0	505	615
8	0	0	0	0	505	615
9	0	0	0	0	505	614
10	0	0	0	0	506	615
11	0	0	0	0	508	615
12	0	0	0	0	510	615
13	0	0	0	0	512	618
14	0	0	0	0	514	616
15	0	0	0	0	515	616
0	0	0	0	0	518	616
1	0	0	0	0	520	615
2	0	0	0	0	520	616
3	0	0	0	0	520	616
4	0	0	0	0	519	616
5	0	0	0	0	518	618
6	0	0	0	0	514	615
7	0	0	0	0	512	616
8	0	0	0	0	510	616
9	0	0	0	0	507	614
10	0	0	0	0	505	616
11	0	0	0	0	503	616
12	0	0	0	0	502	616
13	0	0	0	0	502	618
14	0	0	0	0	503	616
15	0	0	0	0	504	616
0	0	0	0	0	506	616
1	0	0	0	0	508	614
2	0	0	0	0	510	615
3	0	0	0	0	512	615
4	0	0	0	0	515	615
5	0	0	0	0	518	618
6	0	0	0	0	519	616
7	0	0	0	0	519	615
8	0	0	0	0	519	615
9	0	0	0	0	517	614
10	0	0	0	0	515	616
11	0	0	0	0	513	615
12	0	0	0	0	510	615
13	0	0	0	0	507	619
14	0	0	0	0	505	616
15	0	0	0	0	503	616
0	0	0	0	0	502	616
1	0	0	0	0	502	614
2	0	0	0	0	502	616
3	0	0	0	0	503	616
4	0	0	0	0	505	615
5	0	0	0	0	508	618
6	0	0	0	0	510	616
7	0	0	0	0	512	615
8	0	0	0	0	515	616
9	0	0	0	0	517	615
10	0	0	0	0	519	616
11	0	0	0	0	519	615
12	0	0	0	0	518	615
13	0	0	0	0	516	619
14	0	0	0	0	514	616
15	0	0	0	0	511	616
0	0	0	0	0	508	616
1	0	0	0	0	505	615
2	0	0	0	0	503	616
3	0	0	0	0	501	616
4	0	0	0	0	500	616
5	0	0	0	0	501	619
6	0	0	0	0	500	616
7	0	0	0	0	502	616
8	0	0	0	0	504	616
9	0	0	0	0	506	614
10	0	0	0	0	508	616
11	0	0	0	0	510	616
12	0	0	0	0	513	616
13	0	0	0	0	515	618
14	0	0	0	0	516	616
15	0	0	0	0	516	616
0	0	0	0	0	516	615
1	0	0	0	0	515	615
2	0	0	0	0	513	616
3	0	0	0	0	511	616
4	0	0	0	0	509	615
5	0	0	0	0	505	618
6	0	0	0	0	504	615
7	0	0	0	0	502	616
8	0	0	0	0	500	615
9	0	0	0	0	500	615
10	0	0	0	0	502	616
11	0	0	0	0	503	616
12	0	0	0	0	505	616
13	0	0	0	0	507	618
14	0	0	0	0	510	616
15	0	0	0	0	511	615
0	0	0	0	0	514	616
1	0	0	0	0	515	614
2	0	0	0	0	517	615
3	0	0	0	0	517	616
4	0	0	0	0	517	616
5	0	0	0	0	516	617
6	0	0	0	0	513	615
7	0	0	0	0	511	615
8	0	0	0	0	509	616
9	0	0	0	0	506	614
10	0	0	0	0	504	616
11	0	0	0	0	503	616
12	0	0	0	0	502	616
13	0	0	0	0	502	618
14	0	0	0	0	502	616
15	0	0	0	0	503	616
0	0	0	0	0	504	616
1	0	0	0	0	506	615
2	0	0	0	0	508	616
3	0	0	0	0	510	615
4	0	0	0	0	513	616
5	0	0	0	0	516	618
6	0	0	0	0	517	615
7	0	0	0	0	517	615
8	0	0	0	0	517	615
9	0	0	0	0	516	614
10	0	0	0	0	513	615
11	0	0	0	0	510	616
12	0	0	0	0	507	617
13	0	0	0	0	504	619
14	0	0	0	0	502	616
15	0	0	0	0	501	616
0	0	0	0	0	501	616
1	0	0	0	0	501	615
2	0	0	0	0	502	616
3	0	0	0	0	504	616
4	0	0	0	0	505	616
5	0	0	0	0	508	618
6	0	0	0	0	510	615
7	0	0	0	0	513	616
8	0	0	0	0	515	615
9	0	0	0	0	516	614
10	0	0	0	0	517	615
11	0	0	0	0	517	615
12	0	0	0	0	517	615
13	0	0	0	0	516	618
14	0	0	0	0	514	616
15	0	0	0	0	512	615
0	0	0	0	0	510	615
1	0	0	0	0	507	614
2	0	0	0	0	505	615
3	0	0	0	0	503	616
4	0	0	0	0	502	615
5	0	0	0	0	502	618
6	0	0	0	0	503	615
7	0	0	0	0	503	615
8	0	0	0	0	504	615
9	0	0	0	0	507	614
10	0	0	0	0	509	615
11	0	0	0	0	511	615
12	0	0	0	0	512	616
13	0	0	0	0	513	618
14	0	0	0	0	514	615
15	0	0	0	0	513	615
0	0	0	0	0	512	615
1	0	0	0	0	511	614
2	0	0	0	0	508	616
3	0	0	0	0	505	615
4	0	0	0	0	502	615
5	0	0	0	0	499	617
6	0	0	0	0	497	616
7	0	0	0	0	496	616
8	0	0	0	0	495	616
9	0	0	0	0	495	614
10	0	0	0	0	495	615
11	0	0	0	0	497	615
12	0	0	0	0	498	616
13	0	0	0	0	501	619
14	0	0	0	0	504	615
15	0	0	0	0	507	616
0	0	0	0	0	509	616
1	0	0	0	0	511	615
2	0	0	0	0	512	616
3	0	0	0	0	512	616
4	0	0	0	0	511	616
5	0	0	0	0	511	619
6	0	0	0	0	509	616
7	0	0	0	0	507	616
8	0	0	0	0	504	616
9	0	0	0	0	503	615
10	0	0	0	0	501	616
11	0	0	0	0	500	615
12	0	0	0	0	500	615
13	0	0	0	0	501	618
14	0	0	0	0	502	615
15	0	0	0	0	504	616
0	0	0	0	0	507	615
1	0	0	0	0	510	614
2	0	0	0	0	513	616
3	0	0	0	0	516	616
4	0	0	0	0	518	615
5	0	0	0	0	520	618
6	0	0	0	0	521	616
7	0	0	0	0	522	616
8	0	0	0	0	522	616
9	0	0	0	0	521	614
10	0	0	0	0	518	616
11	0	0	0	0	515	616
12	0	0	0	0	512	616
13	0	0	0	0	508	619
14	0	0	0	0	505	616
15	0	0	0	0	503	615
0	0	0	0	0	502	615
1	0	0	0	0	503	614
2	0	0	0	0	503	615
3	0	0	0	0	504	616
4	0	0	0	0	506	615
5	0	0	0	0	509	618
6	0	0	0	0	511	616
7	0	0	0	0	513	616
8	0	0	0	0	515	616
9	0	0	0	0	518	614
10	0	0	0	0	519	616
11	0	0	0	0	519	615
12	0	0	0	0	518	615
13	0	0	0	0	517	619
14	0	0	0	0	515	616
15	0	0	0	0	512	615
0	0	0	0	0	509	616
1	0	0	0	0	506	615
2	0	0	0	0	504	616
3	0	0	0	0	502	616
4	0	0	0	0	501	616
5	0	0	0	0	500	618
6	0	0	0	0	501	616
7	0	0	0	0	503	616
8	0	0	0	0	504	616
9	0	0	0	0	506	615
10	0	0	0	0	508	616
11	0	0	0	0	511	615
12	0	0	0	0	514	615
13	0	0	0	0	516	618
14	0	0	0	0	517	616
15	0	0	0	0	517	616
0	0	0	0	0	516	616
1	0	0	0	0	515	615
2	0	0	0	0	513	617
3	0	0	0	0	511	616
4	0	0	0	0	508	615
5	0	0	0	0	506	618
6	0	0	0	0	504	616
7	0	0	0	0	502	615
8	0	0	0	0	501	615
9	0	0	0	0	501	614
10	0	0	0	0	502	616
11	0	0	0	0	503	616
12	0	0	0	0	505	615
13	0	0	0	0	507	618
14	0	0	0	0	509	616
15	0	0	0	0	511	616
0	0	0	0	0	514	616
1	0	0	0	0	515	615
2	0	0	0	0	516	615
3	0	0	0	0	516	616
4	0	0	0	0	515	616
5	0	0	0	0	514	619
6	0	0	0	0	512	616
7	0	0	0	0	509	616
8	0	0	0	0	507	616
9	0	0	0	0	504	615
10	0	0	0	0	503	616
11	0	0	0	0	501	616
12	0	0	0	0	501	616
13	0	0	0	0	501	618
14	0	0	0	0	500	616
15	0	0	0	0	502	616
0	0	0	0	0	504	616
1	0	0	0	0	506	615
2	0	0	0	0	509	616
3	0	0	0	0	511	616
4	0	0	0	0	512	616
5	0	0	0	0	515	618
6	0	0	0	0	515	616
7	0	0	0	0	515	616
8	0	0	0	0	513	615
9	0	0	0	0	510	615
10	0	0	0	0	506	616
11	0	0	0	0	500	615
12	0	0	0	0	493	616
13	0	0	0	0	485	618
14	0	0	0	0	475	616
15	0	0	0	0	465	615
0	0	0	0	0	455	615
1	0	0	0	0	444	614
2	0	0	0	0	433	615
3	0	0	0	0	425	616
4	0	0	0	0	417	615
5	0	0	0	0	411	618
6	0	0	0	0	406	615
7	0	0	0	0	403	616
8	0	0	0	0	401	616
9	0	0	0	0	401	614
10	0	0	0	0	403	616
11	0	0	0	0	406	616
12	0	0	0	0	410	616
13	0	0	0	0	414	618
14	0	0	0	0	420	616
15	0	0	0	0	426	615
0	0	0	0	0	431	616
1	0	0	0	0	436	614
2	0	0	0	0	441	616
3	0	0	0	0	446	616
4	0	0	0	0	454	615
5	0	0	0	0	467	619
6	0	0	0	0	487	616
7	0	0	0	0	512	616
8	0	0	0	0	540	616
9	0	0	0	0	575	615
10	0	0	0	0	619	616
11	0	0	0	0	667	616
12	0	0	0	0	718	616
13	0	0	0	0	772	619
14	0	0	0	0	824	616
15	0	0	0	0	871	616
0	0	0	0	0	911	616
1	0	0	0	0	946	615
2	0	0	0	0	972	616
3	0	0	0	0	991	616
4	0	0	0	0	1003	615
5	0	0	0	0	1008	618
6	0	0	0	0	1009	616
7	0	0	0	0	1005	615
8	0	0	0	0	998	616
9	0	0	0	0	985	615
10	0	0	0	0	969	616
11	0	0	0	0	950	616
12	0	0	0	0	927	617
13	0	0	0	0	902	618
14	0	0	0	0	873	616
15	0	0	0	0	840	616
0	0	0	0	0	807	615
1	0	0	0	0	776	615
2	0	0	0	0	748	617
3	0	0	0	0	722	616
4	0	0	0	0	698	616
5	0	0	0	0	675	618
6	0	0	0	0	652	616
7	0	0	0	0	632	616
8	0	0	0	0	614	616
9	0	0	0	0	598	614
10	0	0	0	0	584	616
11	0	0	0	0	569	615
12	0	0	0	0	555	615
13	0	0	0	0	543	617
14	0	0	0	0	531	615
15	0	0	0	0	520	616
0	0	0	0	0	510	615
1	0	0	0	0	500	614
2	0	0	0	0	490	616
3	0	0	0	0	481	615
4	0	0	0	0	473	616
5	0	0	0	0	467	618
6	0	0	0	0	459	616
7	0	0	0	0	451	615
8	0	0	0	0	443	615
9	0	0	0	0	435	615
10	0	0	0	0	427	615
11	0	0	0	0	419	616
12	0	0	0	0	412	615
13	0	0	0	0	406	618
14	0	0	0	0	400	616
15	0	0	0	0	397	616
0	0	0	0	0	394	616
1	0	0	0	0	392	614
2	0	0	0	0	390	616
3	0	0	0	0	390	615
4	0	0	0	0	390	615
5	0	0	0	0	391	618
6	0	0	0	0	393	615
7	0	0	0	0	395	615
8	0	0	0	0	397	615
9	0	0	0	0	398	614
10	0	0	0	0	399	616
11	0	0	0	0	399	616
12	0	0	0	0	399	615
13	0	0	0	0	399	618
14	0	0	0	0	396	615
15	0	0	0	0	394	616
0	0	0	0	0	391	615
1	0	0	0	0	390	614
2	0	0	0	0	387	615
3	0	0	0	0	386	616
4	0	0	0	0	385	616
5	0	0	0	0	386	618
6	0	0	0	0	387	615
7	0	0	0	0	388	615
8	0	0	0	0	391	615
9	0	0	0	0	393	614
10	0	0	0	0	396	616
11	0	0	0	0	400	616
12	0	0	0	0	404	617
13	0	0	0	0	407	619
14	0	0	0	0	409	616
15	0	0	0	0	410	616
0	0	0	0	0	410	616
1	0	0	0	0	410	615
2	0	0	0	0	408	615
3	0	0	0	0	406	617
4	0	0	0	0	404	616
5	0	0	0	0	402	619
6	0	0	0	0	400	617
7	0	0	0	0	399	616
8	0	0	0	0	399	615
9	0	0	0	0	400	614
10	0	0	0	0	401	616
11	0	0	0	0	403	616
12	0	0	0	0	405	616
13	0	0	0	0	408	619
14	0	0	0	0	411	615
15	0	0	0	0	415	615
0	0	0	0	0	417	615
1	0	0	0	0	421	615
2	0	0	0	0	424	616
3	0	0	0	0	425	615
4	0	0	0	0	425	616
5	0	0	0	0	425	619
6	0	0	0	0	423	616
7	0	0	0	0	422	616
8	0	0	0	0	420	616
9	0	0	0	0	418	614
10	0	0	0	0	416	616
11	0	0	0	0	415	617
12	0	0	0	0	415	617
13	0	0	0	0	416	619
14	0	0	0	0	418	616
15	0	0	0	0	420	616
0	0	0	0	0	422	616
1	0	0	0	0	425	614
2	0	0	0	0	428	615
3	0	0	0	0	431	615
4	0	0	0	0	434	615
5	0	0	0	0	437	617
6	0	0	0	0	439	615
7	0	0	0	0	439	615
8	0	0	0	0	439	615
9	0	0	0	0	438	615
10	0	0	0	0	437	616
11	0	0	0	0	435	617
12	0	0	0	0	433	617
13	0	0	0	0	431	619
14	0	0	0	0	430	616
15	0	0	0	0	429	615
0	0	0	0	0	429	615
1	0	0	0	0	430	613
2	0	0	0	0	431	615
3	0	0	0	0	433	615
4	0	0	0	0	435	615
5	0	0	0	0	437	618
6	0	0	0	0	439	616
7	0	0	0	0	442	616
8	0	0	0	0	445	617
9	0	0	0	0	447	615
10	0	0	0	0	449	617
11	0	0	0	0	449	616
12	0	0	0	0	449	616
13	0	0	0	0	449	618
14	0	0	0	0	448	615
15	0	0	0	0	445	615
0	0	0	0	0	442	614
1	0	0	0	0	440	613
2	0	0	0	0	438	615
3	0	0	0	0	436	616
4	0	0	0	0	436	616
5	0	0	0	0	436	619
6	0	0	0	0	437	616
7	0	0	0	0	440	616
8	0	0	0	0	442	616
9	0	0	0	0	445	615
10	0	0	0	0	447	616
11	0	0	0	0	449	615
12	0	0	0	0	451	615
13	0	0	0	0	454	618
14	0	0	0	0	455	615
15	0	0	0	0	456	616
0	0	0	0	0	456	616
1	0	0	0	0	455	615
2	0	0	0	0	453	616
3	0	0	0	0	451	616
4	0	0	0	0	449	616
5	0	0	0	0	447	619
6	0	0	0	0	445	616
7	0	0	0	0	444	616
8	0	0	0	0	444	616
9	0	0	0	0	444	615
10	0	0	0	0	444	615
11	0	0	0	0	446	616
12	0	0	0	0	448	616
13	0	0	0	0	450	618
14	0	0	0	0	452	616
15	0	0	0	0	456	616
0	0	0	0	0	459	616
1	0	0	0	0	461	615
2	0	0	0	0	463	617
3	0	0	0	0	464	616
4	0	0	0	0	464	616
5	0	0	0	0	464	618
6	0	0	0	0	462	615
7	0	0	0	0	459	615
8	0	0	0	0	457	616
9	0	0	0	0	455	614
10	0	0	0	0	453	616
11	0	0	0	0	451	616
12	0	0	0	0	451	616
13	0	0	0	0	451	618
14	0	0	0	0	452	616
15	0	0	0	0	453	617
0	0	0	0	0	455	616
1	0	0	0	0	459	615
2	0	0	0	0	462	616
3	0	0	0	0	465	616
4	0	0	0	0	469	616
5	0	0	0	0	472	618
6	0	0	0	0	473	616
7	0	0	0	0	474	615
8	0	0	0	0	475	616
9	0	0	0	0	476	615
10	0	0	0	0	474	616
11	0	0	0	0	473	616
12	0	0	0	0	472	616
13	0	0	0	0	471	618
14	0	0	0	0	470	616
15	0	0	0	0	470	616
0	0	0	0	0	470	616
1	0	0	0	0	471	614
2	0	0	0	0	471	616
3	0	0	0	0	473	616
4	0	0	0	0	477	615
5	0	0	0	0	480	619
6	0	0	0	0	483	616
7	0	0	0	0	487	615
8	0	0	0	0	491	616
9	0	0	0	0	494	614
10	0	0	0	0	496	616
11	0	0	0	0	497	616
12	0	0	0	0	497	616
13	0	0	0	0	497	619
14	0	0	0	0	496	616
15	0	0	0	0	496	615
0	0	0	0	0	494	615
1	0	0	0	0	493	614
2	0	0	0	0	492	615
3	0	0	0	0	492	615
4	0	0	0	0	492	615
5	0	0	0	0	493	618
6	0	0	0	0	494	616
7	0	0	0	0	496	616
8	0	0	0	0	499	615
9	0	0	0	0	502	614
10	0	0	0	0	506	616
11	0	0	0	0	510	615
12	0	0	0	0	513	616
13	0	0	0	0	516	618
14	0	0	0	0	518	616
15	0	0	0	0	519	616
0	0	0	0	0	519	616
1	0	0	0	0	519	615
2	0	0	0	0	518	615
3	0	0	0	0	516	616
4	0	0	0	0	513	616
5	0	0	0	0	512	618
6	0	0	0	0	510	616
7	0	0	0	0	509	616
8	0	0	0	0	509	616
9	0	0	0	0	510	615
10	0	0	0	0	511	616
11	0	0	0	0	513	616
12	0	0	0	0	515	615
13	0	0	0	0	519	619
14	0	0	0	0	523	616
15	0	0	0	0	526	615
0	0	0	0	0	529	615
1	0	0	0	0	531	614
2	0	0	0	0	533	616
3	0	0	0	0	534	616
4	0	0	0	0	534	615
5	0	0	0	0	533	618
6	0	0	0	0	531	616
7	0	0	0	0	528	615
8	0	0	0	0	526	616
9	0	0	0	0	524	614
10	0	0	0	0	523	615
11	0	0	0	0	521	615
12	0	0	0	0	521	615
13	0	0	0	0	521	618
14	0	0	0	0	522	615
15	0	0	0	0	524	615
0	0	0	0	0	526	615
1	0	0	0	0	527	614
2	0	0	0	0	530	615
3	0	0	0	0	533	616
4	0	0	0	0	535	616
5	0	0	0	0	537	618
6	0	0	0	0	539	616
7	0	0	0	0	539	616
8	0	0	0	0	539	616
9	0	0	0	0	538	615
10	0	0	0	0	536	616
11	0	0	0	0	533	615
12	0	0	0	0	530	615
13	0	0	0	0	528	618
14	0	0	0	0	527	616
15	0	0	0	0	526	616
0	0	0	0	0	524	616
1	0	0	0	0	524	614
2	0	0	0	0	524	616
3	0	0	0	0	525	616
4	0	0	0	0	526	615
5	0	0	0	0	528	618
6	0	0	0	0	531	615
7	0	0	0	0	534	616
8	0	0	0	0	537	616
9	0	0	0	0	539	614
10	0	0	0	0	541	615
11	0	0	0	0	542	615
12	0	0	0	0	541	615
13	0	0	0	0	540	619
14	0	0	0	0	538	616
15	0	0	0	0	535	616
0	0	0	0	0	532	616
1	0	0	0	0	529	615
2	0	0	0	0	527	617
3	0	0	0	0	526	616
4	0	0	0	0	525	616
5	0	0	0	0	524	619
6	0	0	0	0	525	616
7	0	0	0	0	525	616
8	0	0	0	0	527	616
9	0	0	0	0	528	615
10	0	0	0	0	531	616
11	0	0	0	0	532	616
12	0	0	0	0	535	616
13	0	0	0	0	536	619
14	0	0	0	0	537	615
15	0	0	0	0	538	615
0	0	0	0	0	537	616
1	0	0	0	0	536	615
2	0	0	0	0	534	616
3	0	0	0	0	531	615
4	0	0	0	0	528	615
5	0	0	0	0	526	617
6	0	0	0	0	524	615
7	0	0	0	0	522	615
8	0	0	0	0	521	616
9	0	0	0	0	521	614
10	0	0	0	0	521	616
11	0	0	0	0	522	616
12	0	0	0	0	523	616
13	0	0	0	0	524	618
14	0	0	0	0	527	616
15	0	0	0	0	528	616
0	0	0	0	0	531	616
1	0	0	0	0	533	615
2	0	0	0	0	534	616
3	0	0	0	0	534	616
4	0	0	0	0	533	616
5	0	0	0	0	532	619
6	0	0	0	0	530	616
7	0	0	0	0	527	616
8	0	0	0	0	525	616
9	0	0	0	0	522	614
10	0	0	0	0	520	616
11	0	0	0	0	519	616
12	0	0	0	0	518	617
13	0	0	0	0	518	618
14	0	0	0	0	518	616
15	0	0	0	0	518	616
0	0	0	0	0	519	616
1	0	0	0	0	523	615
2	0	0	0	0	524	616
3	0	0	0	0	527	616
4	0	0	0	0	529	616
5	0	0	0	0	531	618
6	0	0	0	0	533	616
7	0	0	0	0	533	616
8	0	0	0	0	533	616
9	0	0	0	0	531	615
10	0	0	0	0	529	616
11	0	0	0	0	526	616
12	0	0	0	0	523	616
13	0	0	0	0	520	618
14	0	0	0	0	518	616
15	0	0	0	0	517	616
0	0	0	0	0	515	615
1	0	0	0	0	515	614
2	0	0	0	0	516	615
3	0	0	0	0	517	615
4	0	0	0	0	519	615
5	0	0	0	0	521	618
6	0	0	0	0	524	616
7	0	0	0	0	526	615
8	0	0	0	0	528	616
9	0	0	0	0	530	614
10	0	0	0	0	530	616
11	0	0	0	0	530	615
12	0	0	0	0	530	616
13	0	0	0	0	529	618
14	0	0	0	0	526	616
15	0	0	0	0	524	616
0	0	0	0	0	521	615
1	0	0	0	0	519	615
2	0	0	0	0	517	616
3	0	0	0	0	516	615
4	0	0	0	0	515	615
5	0	0	0	0	515	618
6	0	0	0	0	515	616
7	0	0	0	0	517	616
8	0	0	0	0	519	616
9	0	0	0	0	521	614
10	0	0	0	0	523	616
11	0	0	0	0	526	616
12	0	0	0	0	527	616
13	0	0	0	0	529	619
14	0	0	0	0	530	616
15	0	0	0	0	530	616
0	0	0	0	0	529	616
1	0	0	0	0	528	615
2	0	0	0	0	526	616
3	0	0	0	0	524	616
4	0	0	0	0	521	616
5	0	0	0	0	518	618
6	0	0	0	0	516	616
7	0	0	0	0	514	616
8	0	0	0	0	513	616
9	0	0	0	0	513	615
10	0	0	0	0	513	615
11	0	0	0	0	515	616
12	0	0	0	0	516	615
13	0	0	0	0	519	618
14	0	0	0	0	521	615
15	0	0	0	0	523	615
0	0	0	0	0	526	616
1	0	0	0	0	527	615
2	0	0	0	0	529	616
3	0	0	0	0	529	616
4	0	0	0	0	528	616
5	0	0	0	0	527	619
6	0	0	0	0	525	616
7	0	0	0	0	523	616
8	0	0	0	0	520	616
9	0	0	0	0	518	614
10	0	0	0	0	517	616
11	0	0	0	0	515	615
12	0	0	0	0	515	615
13	0	0	0	0	515	618
14	0	0	0	0	516	616
15	0	0	0	0	517	616
0	0	0	0	0	519	616
1	0	0	0	0	521	615
2	0	0	0	0	524	616
3	0	0	0	0	526	616
4	0	0	0	0	528	616
5	0	0	0	0	530	618
6	0	0	0	0	530	616
7	0	0	0	0	530	616
8	0	0	0	0	529	616
9	0	0	0	0	528	615
10	0	0	0	0	525	616
11	0	0	0	0	522	616
12	0	0	0	0	519	616
13	0	0	0	0	517	618
14	0	0	0	0	514	616
15	0	0	0	0	513	616
0	0	0	0	0	512	616
1	0	0	0	0	511	615
2	0	0	0	0	512	616
3	0	0	0	0	513	616
4	0	0	0	0	515	616
5	0	0	0	0	518	619
6	0	0	0	0	520	615
7	0	0	0	0	523	615
8	0	0	0	0	526	615
9	0	0	0	0	528	614
10	0	0	0	0	530	616
11	0	0	0	0	531	615
12	0	0	0	0	529	615
13	0	0	0	0	528	617
14	0	0	0	0	526	615
15	0	0	0	0	524	616
0	0	0	0	0	521	615
1	0	0	0	0	518	615
2	0	0	0	0	516	616
3	0	0	0	0	515	615
4	0	0	0	0	514	616
5	0	0	0	0	515	619
6	0	0	0	0	515	616
7	0	0	0	0	517	616
8	0	0	0	0	518	616
9	0	0	0	0	520	615
10	0	0	0	0	522	616
11	0	0	0	0	524	616
12	0	0	0	0	526	616
13	0	0	0	0	528	619
14	0	0	0	0	529	616
15	0	0	0	0	530	616
0	0	0	0	0	529	616
1	0	0	0	0	528	615
2	0	0	0	0	525	616
3	0	0	0	0	523	616
4	0	0	0	0	519	615
5	0	0	0	0	515	618
6	0	0	0	0	513	616
7	0	0	0	0	511	616
8	0	0	0	0	510	615
9	0	0	0	0	511	615
10	0	0	0	0	511	615
11	0	0	0	0	512	616
12	0	0	0	0	513	615
13	0	0	0	0	515	617
14	0	0	0	0	518	615
15	0	0	0	0	520	615
0	0	0	0	0	523	616
1	0	0	0	0	526	615
2	0	0	0	0	527	616
3	0	0	0	0	527	615
4	0	0	0	0	526	616
5	0	0	0	0	526	618
6	0	0	0	0	523	616
7	0	0	0	0	520	615
8	0	0	0	0	517	615
9	0	0	0	0	514	615
10	0	0	0	0	512	617
11	0	0	0	0	511	616
12	0	0	0	0	510	615
13	0	0	0	0	511	619
14	0	0	0	0	511	616
15	0	0	0	0	512	615
0	0	0	0	0	514	615
1	0	0	0	0	516	614
2	0	0	0	0	518	615
3	0	0	0	0	519	615
4	0	0	0	0	522	615
5	0	0	0	0	524	617
6	0	0	0	0	525	615
7	0	0	0	0	525	615
8	0	0	0	0	524	615
9	0	0	0	0	523	614
10	0	0	0	0	521	615
11	0	0	0	0	519	616
12	0	0	0	0	516	616
13	0	0	0	0	513	619
14	0	0	0	0	512	616
15	0	0	0	0	510	616
0	0	0	0	0	508	616
1	0	0	0	0	508	615
2	0	0	0	0	508	616
3	0	0	0	0	509	617
4	0	0	0	0	511	616
5	0	0	0	0	512	618
6	0	0	0	0	515	616
7	0	0	0	0	517	616
8	0	0	0	0	519	616
9	0	0	0	0	521	615
10	0	0	0	0	522	616
11	0	0	0	0	523	616
12	0	0	0	0	522	615
13	0	0	0	0	521	619
14	0	0	0	0	519	616
15	0	0	0	0	517	616
0	0	0	0	0	515	616
1	0	0	0	0	512	614
2	0	0	0	0	510	616
3	0	0	0	0	509	616
4	0	0	0	0	508	616
5	0	0	0	0	508	617
6	0	0	0	0	509	616
7	0	0	0	0	510	616
8	0	0	0	0	512	616
9	0	0	0	0	514	614
10	0	0	0	0	516	616
11	0	0	0	0	519	615
12	0	0	0	0	521	616
13	0	0	0	0	523	618
14	0	0	0	0	523	616
15	0	0	0	0	523	616
0	0	0	0	0	522	616
1	0	0	0	0	521	615
2	0	0	0	0	519	616
3	0	0	0	0	516	616
4	0	0	0	0	512	616
5	0	0	0	0	510	618
6	0	0	0	0	507	616
7	0	0	0	0	505	615
8	0	0	0	0	505	616
9	0	0	0	0	505	615
10	0	0	0	0	505	616
11	0	0	0	0	507	617
12	0	0	0	0	509	616
13	0	0	0	0	511	618
14	0	0	0	0	513	616
15	0	0	0	0	515	616
0	0	0	0	0	517	615
1	0	0	0	0	519	614
2	0	0	0	0	519	616
3	0	0	0	0	519	616
4	0	0	0	0	519	616
5	0	0	0	0	518	619
6	0	0	0	0	515	616
7	0	0	0	0	513	615
8	0	0	0	0	511	616
9	0	0	0	0	508	614
10	0	0	0	0	507	616
11	0	0	0	0	505	616
12	0	0	0	0	504	616
13	0	0	0	0	504	619
14	0	0	0	0	504	616
15	0	0	0	0	505	616
0	0	0	0	0	507	616
1	0	0	0	0	509	615
2	0	0	0	0	511	616
3	0	0	0	0	513	616
4	0	0	0	0	515	616
5	0	0	0	0	517	617
6	0	0	0	0	518	616
7	0	0	0	0	519	616
8	0	0	0	0	518	616
9	0	0	0	0	518	615
10	0	0	0	0	515	616
11	0	0	0	0	513	616
12	0	0	0	0	511	616
13	0	0	0	0	508	618
14	0	0	0	0	507	616
15	0	0	0	0	505	616
0	0	0	0	0	504	616
1	0	0	0	0	503	614
2	0	0	0	0	504	615
3	0	0	0	0	505	616
4	0	0	0	0	507	615
5	0	0	0	0	510	618
6	0	0	0	0	512	615
7	0	0	0	0	515	616
8	0	0	0	0	518	616
9	0	0	0	0	519	614
10	0	0	0	0	520	616
11	0	0	0	0	521	616
12	0	0	0	0	520	615
13	0	0	0	0	519	618
14	0	0	0	0	516	616
15	0	0	0	0	513	615
0	0	0	0	0	510	616
1	0	0	0	0	507	614
2	0	0	0	0	504	615
3	0	0	0	0	502	616
4	0	0	0	0	502	616
5	0	0	0	0	501	618
6	0	0	0	0	502	616
7	0	0	0	0	503	615
8	0	0	0	0	504	615
9	0	0	0	0	507	615
10	0	0	0	0	509	615
11	0	0	0	0	511	615
12	0	0	0	0	513	615
13	0	0	0	0	516	618
14	0	0	0	0	517	615
15	0	0	0	0	517	615
0	0	0	0	0	516	615
1	0	0	0	0	515	614
2	0	0	0	0	513	616
3	0	0	0	0	510	615
4	0	0	0	0	507	616
5	0	0	0	0	504	618
6	0	0	0	0	502	616
7	0	0	0	0	500	616
8	0	0	0	0	500	616
9	0	0	0	0	500	614
10	0	0	0	0	500	616
11	0	0	0	0	502	616
12	0	0	0	0	504	616
13	0	0	0	0	506	617
14	0	0	0	0	510	616
15	0	0	0	0	513	616
0	0	0	0	0	515	615
1	0	0	0	0	518	614
2	0	0	0	0	518	616
3	0	0	0	0	518	615
4	0	0	0	0	518	615
5	0	0	0	0	516	618
6	0	0	0	0	513	616
7	0	0	0	0	511	615
8	0	0	0	0	508	615
9	0	0	0	0	506	614
10	0	0	0	0	504	615
11	0	0	0	0	502	615
12	0	0	0	0	501	615
13	0	0	0	0	501	618
14	0	0	0	0	502	616
15	0	0	0	0	503	615
0	0	0	0	0	505	616
1	0	0	0	0	507	614
2	0	0	0	0	509	616
3	0	0	0	0	511	615
4	0	0	0	0	513	616
5	0	0	0	0	515	618
6	0	0	0	0	516	616
7	0	0	0	0	517	616
8	0	0	0	0	516	616
9	0	0	0	0	515	614
10	0	0	0	0	512	616
11	0	0	0	0	510	616
12	0	0	0	0	507	616
13	0	0	0	0	505	618
14	0	0	0	0	503	616
15	0	0	0	0	502	616
0	0	0	0	0	501	615
1	0	0	0	0	501	615
2	0	0	0	0	501	616
3	0	0	0	0	502	616
4	0	0	0	0	504	615
5	0	0	0	0	507	617
6	0	0	0	0	509	616
7	0	0	0	0	511	616
8	0	0	0	0	513	616
9	0	0	0	0	515	615
10	0	0	0	0	515	616
11	0	0	0	0	514	615
12	0	0	0	0	513	615
13	0	0	0	0	512	619
14	0	0	0	0	510	616
15	0	0	0	0	508	616
0	0	0	0	0	506	616
1	0	0	0	0	504	614
2	0	0	0	0	502	616
3	0	0	0	0	500	616
4	0	0	0	0	500	615
5	0	0	0	0	500	619
6	0	0	0	0	500	615
7	0	0	0	0	502	616
8	0	0	0	0	503	615
9	0	0	0	0	505	615
10	0	0	0	0	507	616
11	0	0	0	0	509	615
12	0	0	0	0	511	616
13	0	0	0	0	513	618
14	0	0	0	0	514	617
15	0	0	0	0	515	616
0	0	0	0	0	514	616
1	0	0	0	0	513	615
2	0	0	0	0	510	616
3	0	0	0	0	507	617
4	0	0	0	0	504	616
5	0	0	0	0	501	619
6	0	0	0	0	499	616
7	0	0	0	0	497	616
8	0	0	0	0	496	616
9	0	0	0	0	497	615
10	0	0	0	0	497	615
11	0	0	0	0	498	616
12	0	0	0	0	499	616
13	0	0	0	0	501	618
14	0	0	0	0	503	616
15	0	0	0	0	504	615
0	0	0	0	0	506	616
1	0	0	0	0	508	614
2	0	0	0	0	509	616
3	0	0	0	0	510	616
4	0	0	0	0	509	615
5	0	0	0	0	508	618
6	0	0	0	0	506	616
7	0	0	0	0	504	616
8	0	0	0	0	501	615
9	0	0	0	0	499	614
10	0	0	0	0	496	615
11	0	0	0	0	495	616
12	0	0	0	0	495	616
13	0	0	0	0	495	618
14	0	0	0	0	495	616
15	0	0	0	0	496	616
0	0	0	0	0	498	615
1	0	0	0	0	501	615
2	0	0	0	0	504	615
3	0	0	0	0	508	616
4	0	0	0	0	511	616
5	0	0	0	0	513	619
6	0	0	0	0	515	616
7	0	0	0	0	516	616
8	0	0	0	0	516	616
9	0	0	0	0	516	615
10	0	0	0	0	515	615
11	0	0	0	0	514	616
12	0	0	0	0	512	616
13	0	0	0	0	509	618
14	0	0	0	0	507	616
15	0	0	0	0	505	616
0	0	0	0	0	504	616
1	0	0	0	0	504	614
2	0	0	0	0	504	616
3	0	0	0	0	505	616
4	0	0	0	0	507	616
5	0	0	0	0	510	619
6	0	0	0	0	512	615
7	0	0	0	0	513	616
8	0	0	0	0	516	616
9	0	0	0	0	518	614
10	0	0	0	0	520	616
11	0	0	0	0	520	616
12	0	0	0	0	520	616
13	0	0	0	0	519	618
14	0	0	0	0	517	616
15	0	0	0	0	515	616
0	0	0	0	0	512	616
1	0	0	0	0	510	614
2	0	0	0	0	507	616
3	0	0	0	0	505	616
4	0	0	0	0	504	616
5	0	0	0	0	504	619
6	0	0	0	0	504	616
7	0	0	0	0	505	617
8	0	0	0	0	507	616
9	0	0	0	0	510	614
10	0	0	0	0	511	616
11	0	0	0	0	513	615
12	0	0	0	0	516	616
13	0	0	0	0	518	619
14	0	0	0	0	518	616
15	0	0	0	0	519	616
0	0	0	0	0	518	616
1	0	0	0	0	517	615
2	0	0	0	0	515	616
3	0	0	0	0	514	616
4	0	0	0	0	512	616
5	0	0	0	0	508	618
6	0	0	0	0	506	616
7	0	0	0	0	504	616
8	0	0	0	0	503	616
9	0	0	0	0	503	614
10	0	0	0	0	504	616
11	0	0	0	0	505	616
12	0	0	0	0	507	616
13	0	0	0	0	508	618
14	0	0	0	0	511	616
15	0	0	0	0	513	616
0	0	0	0	0	515	616
1	0	0	0	0	517	615
2	0	0	0	0	518	616
3	0	0	0	0	519	616
4	0	0	0	0	519	615
5	0	0	0	0	518	618
6	0	0	0	0	516	616
7	0	0	0	0	513	616
8	0	0	0	0	511	616
9	0	0	0	0	508	615
10	0	0	0	0	506	616
11	0	0	0	0	504	616
12	0	0	0	0	503	616
13	0	0	0	0	503	618
14	0	0	0	0	503	615
15	0	0	0	0	504	616
0	0	0	0	0	505	616
1	0	0	0	0	508	615
2	0	0	0	0	510	616
3	0	0	0	0	512	616
4	0	0	0	0	514	615
5	0	0	0	0	516	618
6	0	0	0	0	517	616
7	0	0	0	0	518	615
8	0	0	0	0	517	616
9	0	0	0	0	516	615
10	0	0	0	0	514	615
11	0	0	0	0	512	615
12	0	0	0	0	509	616
13	0	0	0	0	506	618
14	0	0	0	0	504	616
15	0	0	0	0	503	616
0	0	0	0	0	502	615
1	0	0	0	0	502	614
2	0	0	0	0	500	616
3	0	0	0	0	500	616
4	0	0	0	0	499	615
5	0	0	0	0	496	618
6	0	0	0	0	493	616
7	0	0	0	0	488	615
8	0	0	0	0	481	616
9	0	0	0	0	472	614
10	0	0	0	0	463	615
11	0	0	0	0	451	615
12	0	0	0	0	441	616
13	0	0	0	0	430	619
14	0	0	0	0	418	615
15	0	0	0	0	407	615
0	0	0	0	0	398	616
1	0	0	0	0	391	615
2	0	0	0	0	387	616
3	0	0	0	0	385	616
4	0	0	0	0	386	616
5	0	0	0	0	390	619
6	0	0	0	0	395	616
7	0	0	0	0	404	616
8	0	0	0	0	415	616
9	0	0	0	0	425	614
10	0	0	0	0	435	615
11	0	0	0	0	445	615
12	0	0	0	0	453	616
13	0	0	0	0	462	618
14	0	0	0	0	475	616
15	0	0	0	0	495	615
0	0	0	0	0	518	616
1	0	0	0	0	543	615
2	0	0	0	0	573	616
3	0	0	0	0	610	616
4	0	0	0	0	654	616
5	0	0	0	0	700	619
6	0	0	0	0	752	617
7	0	0	0	0	803	616
8	0	0	0	0	851	616
9	0	0	0	0	895	615
10	0	0	0	0	932	615
11	0	0	0	0	964	616
12	0	0	0	0	989	616
13	0	0	0	0	1007	618
14	0	0	0	0	1017	616
15	0	0	0	0	1021	615
0	0	0	0	0	1021	616
1	0	0	0	0	1018	615
2	0	0	0	0	1006	616
3	0	0	0	0	989	616
4	0	0	0	0	967	616
5	0	0	0	0	941	619
6	0	0	0	0	910	616
7	0	0	0	0	876	616
8	0	0	0	0	839	616
9	0	0	0	0	803	614
10	0	0	0	0	769	617
11	0	0	0	0	737	616
12	0	0	0	0	709	616
13	0	0	0	0	685	618
14	0	0	0	0	664	616
15	0	0	0	0	646	616
0	0	0	0	0	630	616
1	0	0	0	0	617	615
2	0	0	0	0	606	616
3	0	0	0	0	596	616
4	0	0	0	0	586	615
5	0	0	0	0	575	618
6	0	0	0	0	563	616
7	0	0	0	0	551	616
8	0	0	0	0	538	616
9	0	0	0	0	525	615
10	0	0	0	0	511	616
11	0	0	0	0	497	616
12	0	0	0	0	483	616
13	0	0	0	0	470	618
14	0	0	0	0	458	616
15	0	0	0	0	448	616
0	0	0	0	0	440	616
1	0	0	0	0	432	614
2	0	0	0	0	426	616
3	0	0	0	0	420	616
4	0	0	0	0	417	616
5	0	0	0	0	415	618
6	0	0	0	0	414	616
7	0	0	0	0	413	616
8	0	0	0	0	413	617
9	0	0	0	0	412	615
10	0	0	0	0	410	616
11	0	0	0	0	408	616
12	0	0	0	0	405	615
13	0	0	0	0	402	617
14	0	0	0	0	399	616
15	0	0	0	0	395	616
0	0	0	0	0	392	616
1	0	0	0	0	389	615
2	0	0	0	0	387	616
3	0	0	0	0	384	615
4	0	0	0	0	383	616
5	0	0	0	0	383	619
6	0	0	0	0	383	615
7	0	0	0	0	385	616
8	0	0	0	0	387	615
9	0	0	0	0	390	614
10	0	0	0	0	393	616
11	0	0	0	0	396	615
12	0	0	0	0	398	616
13	0	0	0	0	400	619
14	0	0	0	0	401	616
15	0	0	0	0	402	616
0	0	0	0	0	402	616
1	0	0	0	0	402	615
2	0	0	0	0	401	616
3	0	0	0	0	399	616
4	0	0	0	0	398	615
5	0	0	0	0	396	617
6	0	0	0	0	394	615
7	0	0	0	0	393	615
8	0	0	0	0	393	615
9	0	0	0	0	394	614
10	0	0	0	0	396	616
11	0	0	0	0	398	616
12	0	0	0	0	400	616
13	0	0	0	0	403	619
14	0	0	0	0	406	616
15	0	0	0	0	409	615
0	0	0	0	0	412	615
1	0	0	0	0	415	615
2	0	0	0	0	417	616
3	0	0	0	0	418	616
4	0	0	0	0	418	616
5	0	0	0	0	419	619
6	0	0	0	0	417	616
7	0	0	0	0	415	615
8	0	0	0	0	413	616
9	0	0	0	0	412	615
10	0	0	0	0	411	616
11	0	0	0	0	409	616
12	0	0	0	0	409	616
13	0	0	0	0	411	618
14	0	0	0	0	412	616
15	0	0	0	0	414	616
0	0	0	0	0	416	615
1	0	0	0	0	419	615
2	0	0	0	0	421	616
3	0	0	0	0	424	616
4	0	0	0	0	428	616
5	0	0	0	0	431	618
6	0	0	0	0	433	616
7	0	0	0	0	434	616
8	0	0	0	0	434	615
9	0	0	0	0	434	614
10	0	0	0	0	432	616
11	0	0	0	0	430	615
12	0	0	0	0	428	615
13	0	0	0	0	426	617
14	0	0	0	0	425	615
15	0	0	0	0	424	616
0	0	0	0	0	425	615
1	0	0	0	0	424	614
2	0	0	0	0	425	615
3	0	0	0	0	428	615
4	0	0	0	0	430	616
5	0	0	0	0	433	618
6	0	0	0	0	435	615
7	0	0	0	0	439	615
8	0	0	0	0	442	616
9	0	0	0	0	444	614
10	0	0	0	0	447	616
11	0	0	0	0	448	616
12	0	0	0	0	448	615
13	0	0	0	0	448	619
14	0	0	0	0	446	616
15	0	0	0	0	444	616
0	0	0	0	0	442	616
1	0	0	0	0	440	615
2	0	0	0	0	438	616
3	0	0	0	0	437	616
4	0	0	0	0	436	615
5	0	0	0	0	436	618
6	0	0	0	0	437	615
7	0	0	0	0	440	615
8	0	0	0	0	441	616
9	0	0	0	0	444	615
10	0	0	0	0	446	615
11	0	0	0	0	449	616
12	0	0	0	0	451	616
13	0	0	0	0	454	618
14	0	0	0	0	455	616
15	0	0	0	0	455	616
0	0	0	0	0	455	616
1	0	0	0	0	454	615
2	0	0	0	0	452	616
3	0	0	0	0	451	616
4	0	0	0	0	448	616
5	0	0	0	0	446	619
6	0	0	0	0	445	616
7	0	0	0	0	444	616
8	0	0	0	0	443	616
9	0	0	0	0	442	615
10	0	0	0	0	443	615
11	0	0	0	0	444	615
12	0	0	0	0	446	615
13	0	0	0	0	448	618
14	0	0	0	0	451	616
15	0	0	0	0	453	615
0	0	0	0	0	455	617
1	0	0	0	0	458	614
2	0	0	0	0	460	616
3	0	0	0	0	461	616
4	0	0	0	0	462	616
5	0	0	0	0	462	618
6	0	0	0	0	460	615
7	0	0	0	0	459	616
8	0	0	0	0	457	616
9	0	0	0	0	454	614
10	0	0	0	0	453	616
11	0	0	0	0	452	615
12	0	0	0	0	451	615
13	0	0	0	0	451	618
14	0	0	0	0	451	615
15	0	0	0	0	453	616
0	0	0	0	0	455	616
1	0	0	0	0	458	615
2	0	0	0	0	460	615
3	0	0	0	0	463	615
4	0	0	0	0	466	615
5	0	0	0	0	468	618
6	0	0	0	0	470	616
7	0	0	0	0	471	616
8	0	0	0	0	472	615
9	0	0	0	0	472	615
10	0	0	0	0	470	615
11	0	0	0	0	467	616
12	0	0	0	0	465	616
13	0	0	0	0	463	618
14	0	0	0	0	462	615
15	0	0	0	0	461	615
0	0	0	0	0	461	616
1	0	0	0	0	462	615
2	0	0	0	0	462	616
3	0	0	0	0	464	616
4	0	0	0	0	467	616
5	0	0	0	0	470	618
6	0	0	0	0	473	616
7	0	0	0	0	477	616
8	0	0	0	0	480	616
9	0	0	0	0	482	614
10	0	0	0	0	484	616
11	0	0	0	0	486	617
12	0	0	0	0	487	615
13	0	0	0	0	487	618
14	0	0	0	0	487	616
15	0	0	0	0	485	616
0	0	0	0	0	484	615
1	0	0	0	0	483	614
2	0	0	0	0	482	615
3	0	0	0	0	481	615
4	0	0	0	0	481	616
5	0	0	0	0	483	618
6	0	0	0	0	484	616
7	0	0	0	0	487	616
8	0	0	0	0	490	616
9	0	0	0	0	494	615
10	0	0	0	0	497	615
11	0	0	0	0	500	615
12	0	0	0	0	504	616
13	0	0	0	0	508	619
14	0	0	0	0	511	616
15	0	0	0	0	512	616
0	0	0	0	0	513	615
1	0	0	0	0	514	614
2	0	0	0	0	513	616
3	0	0	0	0	512	615
4	0	0	0	0	510	616
5	0	0	0	0	508	617
6	0	0	0	0	507	616
7	0	0	0	0	507	615
8	0	0	0	0	507	615
9	0	0	0	0	508	614
10	0	0	0	0	509	615
11	0	0	0	0	511	616
12	0	0	0	0	513	616
13	0	0	0	0	516	618
14	0	0	0	0	519	615
15	0	0	0	0	523	615
0	0	0	0	0	525	615
1	0	0	0	0	528	614
2	0	0	0	0	531	616
3	0	0	0	0	532	616
4	0	0	0	0	532	616
5	0	0	0	0	532	619
6	0	0	0	0	531	616
7	0	0	0	0	529	616
8	0	0	0	0	527	616
9	0	0	0	0	526	614
10	0	0	0	0	525	616
11	0	0	0	0	524	615
12	0	0	0	0	523	616
13	0	0	0	0	523	618
14	0	0	0	0	524	616
15	0	0	0	0	525	615
0	0	0	0	0	527	615
1	0	0	0	0	529	615
2	0	0	0	0	531	616
3	0	0	0	0	534	615
4	0	0	0	0	536	615
5	0	0	0	0	538	618
6	0	0	0	0	540	616
7	0	0	0	0	540	616
8	0	0	0	0	540	615
9	0	0	0	0	539	614
10	0	0	0	0	537	616
11	0	0	0	0	536	616
12	0	0	0	0	533	616
13	0	0	0	0	531	619
14	0	0	0	0	529	616
15	0	0	0	0	527	616
0	0	0	0	0	526	616
1	0	0	0	0	526	615
2	0	0	0	0	526	616
3	0	0	0	0	527	616
4	0	0	0	0	529	615
5	0	0	0	0	531	619
6	0	0	0	0	533	616
7	0	0	0	0	535	616
8	0	0	0	0	537	616
9	0	0	0	0	540	614
10	0	0	0	0	540	616
11	0	0	0	0	541	616
12	0	0	0	0	540	616
13	0	0	0	0	540	619
14	0	0	0	0	538	616
15	0	0	0	0	535	616
0	0	0	0	0	533	616
1	0	0	0	0	530	615
2	0	0	0	0	527	615
3	0	0	0	0	525	615
4	0	0	0	0	525	615
5	0	0	0	0	525	617
6	0	0	0	0	526	615
7	0	0	0	0	527	616
8	0	0	0	0	529	615
9	0	0	0	0	531	614
10	0	0	0	0	534	615
11	0	0	0	0	536	615
12	0	0	0	0	538	616
13	0	0	0	0	540	619
14	0	0	0	0	541	616
15	0	0	0	0	541	616
0	0	0	0	0	540	616
1	0	0	0	0	539	615
2	0	0	0	0	536	616
3	0	0	0	0	534	616
4	0	0	0	0	531	616
5	0	0	0	0	528	619
6	0	0	0	0	526	616
7	0	0	0	0	524	617
8	0	0	0	0	523	617
9	0	0	0	0	521	615
10	0	0	0	0	521	617
11	0	0	0	0	522	616
12	0	0	0	0	523	616
13	0	0	0	0	525	618
14	0	0	0	0	527	616
15	0	0	0	0	530	616
0	0	0	0	0	532	616
1	0	0	0	0	535	615
2	0	0	0	0	536	615
3	0	0	0	0	536	616
4	0	0	0	0	536	616
5	0	0	0	0	534	619
6	0	0	0	0	531	616
7	0	0	0	0	528	616
8	0	0	0	0	526	616
9	0	0	0	0	523	614
10	0	0	0	0	520	616
11	0	0	0	0	518	615
12	0	0	0	0	517	616
13	0	0	0	0	517	618
14	0	0	0	0	518	615
15	0	0	0	0	518	616
0	0	0	0	0	519	616
1	0	0	0	0	521	614
2	0	0	0	0	523	616
3	0	0	0	0	525	616
4	0	0	0	0	527	616
5	0	0	0	0	529	618
6	0	0	0	0	530	616
7	0	0	0	0	531	616
8	0	0	0	0	530	615
9	0	0	0	0	528	614
10	0	0	0	0	526	616
11	0	0	0	0	524	616
12	0	0	0	0	522	616
13	0	0	0	0	519	618
14	0	0	0	0	516	616
15	0	0	0	0	515	616
0	0	0	0	0	515	616
1	0	0	0	0	515	615
2	0	0	0	0	515	615
3	0	0	0	0	516	615
4	0	0	0	0	518	615
5	0	0	0	0	519	617
6	0	0	0	0	521	615
7	0	0	0	0	523	615
8	0	0	0	0	525	615
9	0	0	0	0	527	614
10	0	0	0	0	527	615
11	0	0	0	0	528	615
12	0	0	0	0	527	615
13	0	0	0	0	527	619
14	0	0	0	0	524	615
15	0	0	0	0	522	616
0	0	0	0	0	519	616
1	0	0	0	0	517	614
2	0	0	0	0	515	616
3	0	0	0	0	513	616
4	0	0	0	0	512	616
5	0	0	0	0	513	618
6	0	0	0	0	513	615
7	0	0	0	0	513	616
8	0	0	0	0	514	616
9	0	0	0	0	515	615
10	0	0	0	0	517	616
11	0	0	0	0	519	616
12	0	0	0	0	521	616
13	0	0	0	0	524	619
14	0	0	0	0	525	617
15	0	0	0	0	525	616
0	0	0	0	0	525	616
1	0	0	0	0	525	615
2	0	0	0	0	522	616
3	0	0	0	0	520	616
4	0	0	0	0	517	615
5	0	0	0	0	515	618
6	0	0	0	0	513	615
7	0	0	0	0	512	616
8	0	0	0	0	511	616
9	0	0	0	0	511	615
10	0	0	0	0	511	616
11	0	0	0	0	512	616
12	0	0	0	0	513	615
13	0	0	0	0	515	618
14	0	0	0	0	518	615
15	0	0	0	0	519	615
0	0	0	0	0	521	616
1	0	0	0	0	523	615
2	0	0	0	0	525	616
3	0	0	0	0	525	616
4	0	0	0	0	525	616
5	0	0	0	0	524	618
6	0	0	0	0	521	616
7	0	0	0	0	519	615
8	0	0	0	0	517	616
9	0	0	0	0	515	614
10	0	0	0	0	513	616
11	0	0	0	0	512	615
12	0	0	0	0	510	615
13	0	0	0	0	511	618
14	0	0	0	0	512	616
15	0	0	0	0	513	616
0	0	0	0	0	515	616
1	0	0	0	0	516	615
2	0	0	0	0	519	616
3	0	0	0	0	521	616
4	0	0	0	0	524	616
5	0	0	0	0	526	618
6	0	0	0	0	526	616
7	0	0	0	0	526	616
8	0	0	0	0	526	616
9	0	0	0	0	525	614
10	0	0	0	0	524	616
11	0	0	0	0	522	616
12	0	0	0	0	520	616
13	0	0	0	0	518	619
14	0	0	0	0	516	617
15	0	0	0	0	515	616
0	0	0	0	0	514	616
1	0	0	0	0	514	615
2	0	0	0	0	513	615
3	0	0	0	0	515	616
4	0	0	0	0	516	616
5	0	0	0	0	519	618
6	0	0	0	0	520	616
7	0	0	0	0	522	616
8	0	0	0	0	524	616
9	0	0	0	0	526	614
10	0	0	0	0	527	616
11	0	0	0	0	527	615
12	0	0	0	0	527	615
13	0	0	0	0	526	618
14	0	0	0	0	524	616
15	0	0	0	0	522	615
0	0	0	0	0	520	615
1	0	0	0	0	517	615
2	0	0	0	0	515	616
3	0	0	0	0	513	616
4	0	0	0	0	512	616
5	0	0	0	0	512	618
6	0	0	0	0	513	616
7	0	0	0	0	515	616
8	0	0	0	0	517	616
9	0	0	0	0	519	615
10	0	0	0	0	521	616
11	0	0	0	0	523	615
12	0	0	0	0	525	616
13	0	0	0	0	527	618
14	0	0	0	0	528	616
15	0	0	0	0	528	615
0	0	0	0	0	528	615
1	0	0	0	0	527	615
2	0	0	0	0	524	616
3	0	0	0	0	522	616
4	0	0	0	0	519	615
5	0	0	0	0	517	617
6	0	0	0	0	515	616
7	0	0	0	0	514	616
8	0	0	0	0	514	616
9	0	0	0	0	514	615
10	0	0	0	0	514	616
11	0	0	0	0	514	616
12	0	0	0	0	515	616
13	0	0	0	0	517	619
14	0	0	0	0	519	615
15	0	0	0	0	522	615
0	0	0	0	0	524	615
1	0	0	0	0	525	614
2	0	0	0	0	526	615
3	0	0	0	0	527	615
4	0	0	0	0	526	615
5	0	0	0	0	525	618
6	0	0	0	0	523	615
7	0	0	0	0	521	616
8	0	0	0	0	518	615
9	0	0	0	0	515	614
10	0	0	0	0	513	616
11	0	0	0	0	511	615
12	0	0	0	0	510	615
13	0	0	0	0	511	618
14	0	0	0	0	511	615
15	0	0	0	0	512	616
0	0	0	0	0	513	616
1	0	0	0	0	515	615
2	0	0	0	0	518	615
3	0	0	0	0	521	615
4	0	0	0	0	522	615
5	0	0	0	0	525	618
6	0	0	0	0	527	615
7	0	0	0	0	526	616
8	0	0	0	0	526	615
9	0	0	0	0	526	615
10	0	0	0	0	524	615
11	0	0	0	0	521	616
12	0	0	0	0	519	615
13	0	0	0	0	516	618
14	0	0	0	0	513	616
15	0	0	0	0	512	616
0	0	0	0	0	511	616
1	0	0	0	0	511	615
2	0	0	0	0	511	616
3	0	0	0	0	512	616
4	0	0	0	0	513	616
5	0	0	0	0	514	618
6	0	0	0	0	515	616
7	0	0	0	0	517	615
8	0	0	0	0	519	616
9	0	0	0	0	521	614
10	0	0	0	0	523	615
11	0	0	0	0	524	615
12	0	0	0	0	523	616
13	0	0	0	0	523	619
14	0	0	0	0	520	616
15	0	0	0	0	518	616
0	0	0	0	0	515	616
1	0	0	0	0	513	615
2	0	0	0	0	511	616
3	0	0	0	0	510	616
4	0	0	0	0	509	616
5	0	0	0	0	510	618
6	0	0	0	0	510	616
7	0	0	0	0	511	616
8	0	0	0	0	512	616
9	0	0	0	0	512	615
10	0	0	0	0	514	616
11	0	0	0	0	516	616
12	0	0	0	0	519	616
13	0	0	0	0	520	618
14	0	0	0	0	521	616
15	0	0	0	0	521	615
0	0	0	0	0	521	616
1	0	0	0	0	520	614
2	0	0	0	0	519	616
3	0	0	0	0	516	616
4	0	0	0	0	513	616
5	0	0	0	0	511	618
6	0	0	0	0	509	616
7	0	0	0	0	507	616
8	0	0	0	0	507	616
9	0	0	0	0	507	615
10	0	0	0	0	507	616
11	0	0	0	0	509	616
12	0	0	0	0	510	616
13	0	0	0	0	511	619
14	0	0	0	0	512	616
15	0	0	0	0	514	615
0	0	0	0	0	517	616
1	0	0	0	0	519	615
2	0	0	0	0	521	616
3	0	0	0	0	521	616
4	0	0	0	0	521	616
5	0	0	0	0	519	619
6	0	0	0	0	518	616
7	0	0	0	0	515	616
8	0	0	0	0	513	616
9	0	0	0	0	511	615
10	0	0	0	0	509	616
11	0	0	0	0	507	616
12	0	0	0	0	505	616
13	0	0	0	0	504	618
14	0	0	0	0	504	615
15	0	0	0	0	505	615
0	0	0	0	0	507	616
1	0	0	0	0	508	614
2	0	0	0	0	511	616
3	0	0	0	0	513	616
4	0	0	0	0	516	616
5	0	0	0	0	518	619
6	0	0	0	0	519	616
7	0	0	0	0	519	616
8	0	0	0	0	519	616
9	0	0	0	0	519	615
10	0	0	0	0	517	616
11	0	0	0	0	514	616
12	0	0	0	0	512	616
13	0	0	0	0	510	618
14	0	0	0	0	508	616
15	0	0	0	0	506	616
0	0	0	0	0	504	616
1	0	0	0	0	504	615
2	0	0	0	0	505	616
3	0	0	0	0	506	616
4	0	0	0	0	507	616
5	0	0	0	0	509	618
6	0	0	0	0	512	616
7	0	0	0	0	513	616
8	0	0	0	0	515	616
9	0	0	0	0	518	615
10	0	0	0	0	519	616
11	0	0	0	0	520	615
12	0	0	0	0	519	616
13	0	0	0	0	519	618
14	0	0	0	0	516	616
15	0	0	0	0	513	616
0	0	0	0	0	511	616
1	0	0	0	0	508	615
2	0	0	0	0	506	616
3	0	0	0	0	505	615
4	0	0	0	0	504	616
5	0	0	0	0	505	619
6	0	0	0	0	505	615
7	0	0	0	0	505	616
8	0	0	0	0	507	616
9	0	0	0	0	510	615
10	0	0	0	0	512	616
11	0	0	0	0	513	616
12	0	0	0	0	515	616
13	0	0	0	0	516	618
14	0	0	0	0	518	616
15	0	0	0	0	518	616
0	0	0	0	0	518	615
1	0	0	0	0	517	614
2	0	0	0	0	515	616
3	0	0	0	0	513	616
4	0	0	0	0	511	616
5	0	0	0	0	508	618
6	0	0	0	0	507	616
7	0	0	0	0	505	616
8	0	0	0	0	504	616
9	0	0	0	0	504	614
10	0	0	0	0	503	615
11	0	0	0	0	504	616
12	0	0	0	0	505	615
13	0	0	0	0	506	619
14	0	0	0	0	508	616
15	0	0	0	0	511	616
0	0	0	0	0	513	616
1	0	0	0	0	515	615
2	0	0	0	0	516	616
3	0	0	0	0	516	616
4	0	0	0	0	516	616
5	0	0	0	0	516	619
6	0	0	0	0	513	616
7	0	0	0	0	511	616
8	0	0	0	0	508	616
9	0	0	0	0	506	615
10	0	0	0	0	504	616
11	0	0	0	0	503	615
12	0	0	0	0	502	616
13	0	0	0	0	502	618
14	0	0	0	0	503	616
15	0	0	0	0	504	616
0	0	0	0	0	505	616
1	0	0	0	0	508	615
2	0	0	0	0	510	616
3	0	0	0	0	511	615
4	0	0	0	0	513	616
5	0	0	0	0	515	618
6	0	0	0	0	516	616
7	0	0	0	0	516	617
8	0	0	0	0	516	616
9	0	0	0	0	515	614
10	0	0	0	0	513	615
11	0	0	0	0	511	616
12	0	0	0	0	509	616
13	0	0	0	0	506	618
14	0	0	0	0	504	616
15	0	0	0	0	503	616
0	0	0	0	0	502	616
1	0	0	0	0	502	615
2	0	0	0	0	503	616
3	0	0	0	0	504	616
4	0	0	0	0	505	616
5	0	0	0	0	508	619
6	0	0	0	0	510	616
7	0	0	0	0	512	616
8	0	0	0	0	514	616
9	0	0	0	0	516	614
10	0	0	0	0	518	616
11	0	0	0	0	518	615
12	0	0	0	0	517	616
13	0	0	0	0	516	618
14	0	0	0	0	514	616
15	0	0	0	0	512	615
0	0	0	0	0	509	615
1	0	0	0	0	507	614
2	0	0	0	0	505	616
3	0	0	0	0	503	616
4	0	0	0	0	502	615
5	0	0	0	0	502	618
6	0	0	0	0	503	616
7	0	0	0	0	504	616
8	0	0	0	0	504	616
9	0	0	0	0	506	615
10	0	0	0	0	508	615
11	0	0	0	0	511	616
12	0	0	0	0	513	616
13	0	0	0	0	515	619
14	0	0	0	0	515	616
15	0	0	0	0	515	616
0	0	0	0	0	515	616
1	0	0	0	0	513	614
2	0	0	0	0	512	615
3	0	0	0	0	510	616
4	0	0	0	0	508	617
5	0	0	0	0	505	619
6	0	0	0	0	504	616
7	0	0	0	0	503	616
8	0	0	0	0	501	616
9	0	0	0	0	501	615
10	0	0	0	0	501	616
11	0	0	0	0	502	616
12	0	0	0	0	503	617
13	0	0	0	0	504	619
14	0	0	0	0	507	616
15	0	0	0	0	508	616
0	0	0	0	0	511	616
1	0	0	0	0	513	614
2	0	0	0	0	515	616
3	0	0	0	0	515	616
4	0	0	0	0	515	616
5	0	0	0	0	514	618
6	0	0	0	0	512	615
7	0	0	0	0	509	615
8	0	0	0	0	507	615
9	0	0	0	0	504	614
10	0	0	0	0	502	616
11	0	0	0	0	500	616
12	0	0	0	0	500	615
13	0	0	0	0	500	618
14	0	0	0	0	500	615
15	0	0	0	0	500	616
0	0	0	0	0	502	615
1	0	0	0	0	504	614
2	0	0	0	0	506	616
3	0	0	0	0	508	616
4	0	0	0	0	510	617
5	0	0	0	0	512	619
6	0	0	0	0	513	616
7	0	0	0	0	514	616
8	0	0	0	0	514	616
9	0	0	0	0	513	614
10	0	0	0	0	511	616
11	0	0	0	0	509	616
12	0	0	0	0	506	616
13	0	0	0	0	504	618
14	0	0	0	0	502	616
15	0	0	0	0	500	616
0	0	0	0	0	499	616
1	0	0	0	0	499	615
2	0	0	0	0	499	615
3	0	0	0	0	500	616
4	0	0	0	0	500	616
5	0	0	0	0	502	618
6	0	0	0	0	504	616
7	0	0	0	0	505	616
8	0	0	0	0	508	616
9	0	0	0	0	510	615
10	0	0	0	0	512	616
11	0	0	0	0	512	616
12	0	0	0	0	512	616
13	0	0	0	0	512	618
14	0	0	0	0	510	616
15	0	0	0	0	508	616
0	0	0	0	0	504	616
1	0	0	0	0	502	615
2	0	0	0	0	499	617
3	0	0	0	0	497	616
4	0	0	0	0	496	616
5	0	0	0	0	496	618
6	0	0	0	0	496	615
7	0	0	0	0	498	616
8	0	0	0	0	499	615
9	0	0	0	0	502	615
10	0	0	0	0	504	616
11	0	0	0	0	506	616
12	0	0	0	0	508	616
13	0	0	0	0	511	619
14	0	0	0	0	513	616
15	0	0	0	0	514	616
0	0	0	0	0	514	616
1	0	0	0	0	514	615
2	0	0	0	0	512	617
3	0	0	0	0	511	616
4	0	0	0	0	509	616
5	0	0	0	0	507	619
6	0	0	0	0	506	616
7	0	0	0	0	505	616
8	0	0	0	0	504	616
9	0	0	0	0	504	615
10	0	0	0	0	504	615
11	0	0	0	0	505	616
12	0	0	0	0	506	616
13	0	0	0	0	508	619
14	0	0	0	0	510	616
15	0	0	0	0	512	616
0	0	0	0	0	514	616
1	0	0	0	0	516	615
2	0	0	0	0	518	616
3	0	0	0	0	518	616
4	0	0	0	0	518	615
5	0	0	0	0	518	618
6	0	0	0	0	516	616
7	0	0	0	0	514	616
8	0	0	0	0	512	616
9	0	0	0	0	510	615
10	0	0	0	0	508	616
11	0	0	0	0	507	616
12	0	0	0	0	506	616
13	0	0	0	0	505	618
14	0	0	0	0	505	616
15	0	0	0	0	506	616
0	0	0	0	0	506	615
1	0	0	0	0	508	614
2	0	0	0	0	511	616
3	0	0	0	0	513	615
4	0	0	0	0	515	616
5	0	0	0	0	517	617
6	0	0	0	0	519	615
7	0	0	0	0	519	615
8	0	0	0	0	519	615
9	0	0	0	0	518	614
10	0	0	0	0	515	616
11	0	0	0	0	513	615
12	0	0	0	0	511	616
13	0	0	0	0	509	619
14	0	0	0	0	507	616
15	0	0	0	0	505	616
0	0	0	0	0	504	616
1	0	0	0	0	505	615
2	0	0	0	0	505	615
3	0	0	0	0	506	616
4	0	0	0	0	508	615
5	0	0	0	0	509	617
6	0	0	0	0	511	615
7	0	0	0	0	513	616
8	0	0	0	0	515	616
9	0	0	0	0	517	614
10	0	0	0	0	519	616
11	0	0	0	0	519	616
12	0	0	0	0	518	616
13	0	0	0	0	518	618
14	0	0	0	0	515	616
15	0	0	0	0	513	615
0	0	0	0	0	511	616
1	0	0	0	0	508	614
2	0	0	0	0	506	616
3	0	0	0	0	504	616
4	0	0	0	0	503	616
5	0	0	0	0	503	618
6	0	0	0	0	503	616
7	0	0	0	0	504	617
8	0	0	0	0	506	616
9	0	0	0	0	507	615
10	0	0	0	0	509	616
11	0	0	0	0	512	616
12	0	0	0	0	514	616
13	0	0	0	0	515	618
14	0	0	0	0	517	616
15	0	0	0	0	518	615
0	0	0	0	0	517	615
1	0	0	0	0	517	614
2	0	0	0	0	515	615
3	0	0	0	0	512	616
4	0	0	0	0	509	616
5	0	0	0	0	506	619
6	0	0	0	0	504	616
7	0	0	0	0	503	616
8	0	0	0	0	501	616
9	0	0	0	0	500	614
10	0	0	0	0	500	615
11	0	0	0	0	500	616
12	0	0	0	0	501	616
13	0	0	0	0	502	618
14	0	0	0	0	503	615
15	0	0	0	0	502	615
0	0	0	0	0	500	617
1	0	0	0	0	497	615
2	0	0	0	0	491	616
3	0	0	0	0	483	616
4	0	0	0	0	472	615
5	0	0	0	0	462	618
6	0	0	0	0	449	616
7	0	0	0	0	436	616
8	0	0	0	0	424	615
9	0	0	0	0	413	614
10	0	0	0	0	404	617
11	0	0	0	0	397	616
12	0	0	0	0	392	616
13	0	0	0	0	390	618
14	0	0	0	0	389	616
15	0	0	0	0	392	616
0	0	0	0	0	397	616
1	0	0	0	0	404	615
2	0	0	0	0	413	616
3	0	0	0	0	422	616
4	0	0	0	0	433	616
5	0	0	0	0	441	619
6	0	0	0	0	449	616
7	0	0	0	0	457	616
8	0	0	0	0	466	616
9	0	0	0	0	480	614
10	0	0	0	0	497	616
11	0	0	0	0	519	616
12	0	0	0	0	544	616
13	0	0	0	0	577	619
14	0	0	0	0	617	615
15	0	0	0	0	663	616
0	0	0	0	0	711	616
1	0	0	0	0	764	614
2	0	0	0	0	817	615
3	0	0	0	0	868	616
4	0	0	0	0	911	616
5	0	0	0	0	949	618
6	0	0	0	0	980	616
7	0	0	0	0	1005	615
8	0	0	0	0	1020	616
9	0	0	0	0	1022	615
10	0	0	0	0	1022	616
11	0	0	0	0	1022	616
12	0	0	0	0	1022	616
13	0	0	0	0	1021	619
14	0	0	0	0	1005	616
15	0	0	0	0	982	615
0	0	0	0	0	957	616
1	0	0	0	0	927	614
2	0	0	0	0	895	616
3	0	0	0	0	860	615
4	0	0	0	0	823	615
5	0	0	0	0	789	618
6	0	0	0	0	759	616
7	0	0	0	0	732	616
8	0	0	0	0	708	615
9	0	0	0	0	686	615
10	0	0	0	0	667	616
11	0	0	0	0	648	615
12	0	0	0	0	633	615
13	0	0	0	0	620	617
14	0	0	0	0	607	615
15	0	0	0	0	593	616
0	0	0	0	0	577	615
1	0	0	0	0	562	615
2	0	0	0	0	546	616
3	0	0	0	0	529	616
4	0	0	0	0	513	616
5	0	0	0	0	497	618
6	0	0	0	0	481	616
7	0	0	0	0	467	616
8	0	0	0	0	455	616
9	0	0	0	0	445	615
10	0	0	0	0	436	616
11	0	0	0	0	428	616
12	0	0	0	0	422	616
13	0	0	0	0	417	618
14	0	0	0	0	414	616
15	0	0	0	0	412	616
0	0	0	0	0	409	616
1	0	0	0	0	407	614
2	0	0	0	0	405	616
3	0	0	0	0	402	615
4	0	0	0	0	399	615
5	0	0	0	0	396	618
6	0	0	0	0	392	616
7	0	0	0	0	388	616
8	0	0	0	0	384	616
9	0	0	0	0	381	615
10	0	0	0	0	378	616
11	0	0	0	0	376	616
12	0	0	0	0	374	616
13	0	0	0	0	374	618
14	0	0	0	0	374	616
15	0	0	0	0	375	616
0	0	0	0	0	376	616
1	0	0	0	0	379	615
2	0	0	0	0	381	616
3	0	0	0	0	384	616
4	0	0	0	0	387	615
5	0	0	0	0	389	618
6	0	0	0	0	391	616
7	0	0	0	0	392	616
8	0	0	0	0	392	616
9	0	0	0	0	391	615
10	0	0	0	0	390	616
11	0	0	0	0	389	616
12	0	0	0	0	387	616
13	0	0	0	0	385	618
14	0	0	0	0	384	616
15	0	0	0	0	383	616
0	0	0	0	0	384	616
1	0	0	0	0	385	615
2	0	0	0	0	386	616
3	0	0	0	0	388	616
4	0	0	0	0	391	616
5	0	0	0	0	393	618
6	0	0	0	0	397	616
7	0	0	0	0	401	616
8	0	0	0	0	405	615
9	0	0	0	0	408	615
10	0	0	0	0	411	617
11	0	0	0	0	412	616
12	0	0	0	0	414	616
13	0	0	0	0	414	619
14	0	0	0	0	412	615
15	0	0	0	0	411	616
0	0	0	0	0	409	616
1	0	0	0	0	408	614
2	0	0	0	0	406	616
3	0	0	0	0	405	616
4	0	0	0	0	404	616
5	0	0	0	0	404	618
6	0	0	0	0	406	616
7	0	0	0	0	408	616
8	0	0	0	0	411	616
9	0	0	0	0	414	615
10	0	0	0	0	417	615
11	0	0	0	0	421	616
12	0	0	0	0	424	617
13	0	0	0	0	427	618
14	0	0	0	0	429	616
15	0	0	0	0	429	616
0	0	0	0	0	429	615
1	0	0	0	0	428	615
2	0	0	0	0	427	616
3	0	0	0	0	424	616
4	0	0	0	0	422	615
5	0	0	0	0	420	618
6	0	0	0	0	419	615
7	0	0	0	0	417	616
8	0	0	0	0	417	616
9	0	0	0	0	417	615
10	0	0	0	0	419	616
11	0	0	0	0	420	616
12	0	0	0	0	423	616
13	0	0	0	0	425	618
14	0	0	0	0	428	616
15	0	0	0	0	432	615
0	0	0	0	0	435	616
1	0	0	0	0	438	614
2	0	0	0	0	440	616
3	0	0	0	0	440	615
4	0	0	0	0	440	615
5	0	0	0	0	440	619
6	0	0	0	0	439	616
7	0	0	0	0	436	615
8	0	0	0	0	433	615
9	0	0	0	0	432	615
10	0	0	0	0	430	616
11	0	0	0	0	428	615
12	0	0	0	0	428	615
13	0	0	0	0	428	618
14	0	0	0	0	430	615
15	0	0	0	0	430	615
0	0	0	0	0	432	615
1	0	0	0	0	435	614
2	0	0	0	0	437	616
3	0	0	0	0	440	616
4	0	0	0	0	444	616
5	0	0	0	0	447	618
6	0	0	0	0	448	615
7	0	0	0	0	450	616
8	0	0	0	0	450	616
9	0	0	0	0	450	615
10	0	0	0	0	448	615
11	0	0	0	0	446	616
12	0	0	0	0	442	616
13	0	0	0	0	440	619
14	0	0	0	0	437	616
15	0	0	0	0	435	616
0	0	0	0	0	435	615
1	0	0	0	0	435	614
2	0	0	0	0	435	616
3	0	0	0	0	436	617
4	0	0	0	0	439	616
5	0	0	0	0	441	619
6	0	0	0	0	444	616
7	0	0	0	0	447	615
8	0	0	0	0	450	616
9	0	0	0	0	452	614
10	0	0	0	0	454	615
11	0	0	0	0	455	616
12	0	0	0	0	455	615
13	0	0	0	0	454	618
14	0	0	0	0	452	616
15	0	0	0	0	449	616
0	0	0	0	0	447	616
1	0	0	0	0	443	614
2	0	0	0	0	441	616
3	0	0	0	0	440	616
4	0	0	0	0	439	615
5	0	0	0	0	440	618
6	0	0	0	0	440	615
7	0	0	0	0	442	615
8	0	0	0	0	444	615
9	0	0	0	0	447	614
10	0	0	0	0	450	616
11	0	0	0	0	454	615
12	0	0	0	0	456	616
13	0	0	0	0	459	618
14	0	0	0	0	461	616
15	0	0	0	0	463	615
0	0	0	0	0	463	616
1	0	0	0	0	462	614
2	0	0	0	0	460	616
3	0	0	0	0	458	615
4	0	0	0	0	455	615
5	0	0	0	0	453	618
6	0	0	0	0	451	615
7	0	0	0	0	451	616
8	0	0	0	0	451	615
9	0	0	0	0	452	614
10	0	0	0	0	453	615
11	0	0	0	0	455	615
12	0	0	0	0	457	615
13	0	0	0	0	461	619
14	0	0	0	0	464	616
15	0	0	0	0	468	616
0	0	0	0	0	472	616
1	0	0	0	0	475	615
2	0	0	0	0	477	616
3	0	0	0	0	479	616
4	0	0	0	0	479	616
5	0	0	0	0	478	619
6	0	0	0	0	477	615
7	0	0	0	0	475	616
8	0	0	0	0	474	616
9	0	0	0	0	472	614
10	0	0	0	0	472	616
11	0	0	0	0	471	616
12	0	0	0	0	471	616
13	0	0	0	0	472	618
14	0	0	0	0	472	616
15	0	0	0	0	476	616
0	0	0	0	0	479	615
1	0	0	0	0	483	614
2	0	0	0	0	486	615
3	0	0	0	0	489	616
4	0	0	0	0	493	616
5	0	0	0	0	496	618
6	0	0	0	0	499	616
7	0	0	0	0	501	616
8	0	0	0	0	502	616
9	0	0	0	0	503	614
10	0	0	0	0	502	616
11	0	0	0	0	500	615
12	0	0	0	0	499	616
13	0	0	0	0	497	618
14	0	0	0	0	496	616
15	0	0	0	0	496	616
0	0	0	0	0	496	615
1	0	0	0	0	497	615
2	0	0	0	0	498	615
3	0	0	0	0	501	616
4	0	0	0	0	503	615
5	0	0	0	0	507	619
6	0	0	0	0	510	616
7	0	0	0	0	514	615
8	0	0	0	0	517	615
9	0	0	0	0	521	614
10	0	0	0	0	523	616
11	0	0	0	0	525	616
12	0	0	0	0	527	615
13	0	0	0	0	527	618
14	0	0	0	0	525	616
15	0	0	0	0	524	616
0	0	0	0	0	521	616
1	0	0	0	0	519	614
2	0	0	0	0	517	616
3	0	0	0	0	515	616
4	0	0	0	0	515	616
5	0	0	0	0	515	618
6	0	0	0	0	517	616
7	0	0	0	0	519	616
8	0	0	0	0	522	616
9	0	0	0	0	525	615
10	0	0	0	0	528	616
11	0	0	0	0	531	615
12	0	0	0	0	535	615
13	0	0	0	0	538	618
14	0	0	0	0	540	616
15	0	0	0	0	541	616
0	0	0	0	0	542	616
1	0	0	0	0	541	614
2	0	0	0	0	539	616
3	0	0	0	0	537	616
4	0	0	0	0	536	615
5	0	0	0	0	533	617
6	0	0	0	0	531	615
7	0	0	0	0	529	615
8	0	0	0	0	529	616
9	0	0	0	0	529	614
10	0	0	0	0	530	615
11	0	0	0	0	531	615
12	0	0	0	0	533	615
13	0	0	0	0	535	617
14	0	0	0	0	536	615
15	0	0	0	0	539	615
0	0	0	0	0	542	616
1	0	0	0	0	544	615
2	0	0	0	0	546	616
3	0	0	0	0	547	616
4	0	0	0	0	547	615
5	0	0	0	0	546	619
6	0	0	0	0	544	616
7	0	0	0	0	542	616
8	0	0	0	0	539	615
9	0	0	0	0	537	614
10	0	0	0	0	535	616
11	0	0	0	0	533	616
12	0	0	0	0	531	616
13	0	0	0	0	532	618
14	0	0	0	0	532	616
15	0	0	0	0	533	616
0	0	0	0	0	534	616
1	0	0	0	0	536	614
2	0	0	0	0	538	616
3	0	0	0	0	541	616
4	0	0	0	0	543	616
5	0	0	0	0	545	618
6	0	0	0	0	545	616
7	0	0	0	0	546	616
8	0	0	0	0	545	615
9	0	0	0	0	544	614
10	0	0	0	0	542	615
11	0	0	0	0	539	616
12	0	0	0	0	536	616
13	0	0	0	0	534	618
14	0	0	0	0	531	616
15	0	0	0	0	530	616
0	0	0	0	0	529	615
1	0	0	0	0	528	614
2	0	0	0	0	528	615
3	0	0	0	0	530	615
4	0	0	0	0	531	615
5	0	0	0	0	534	619
6	0	0	0	0	536	615
7	0	0	0	0	538	616
8	0	0	0	0	540	616
9	0	0	0	0	543	614
10	0	0	0	0	544	616
11	0	0	0	0	544	615
12	0	0	0	0	544	616
13	0	0	0	0	543	619
14	0	0	0	0	540	616
15	0	0	0	0	538	616
0	0	0	0	0	535	616
1	0	0	0	0	532	614
2	0	0	0	0	529	616
3	0	0	0	0	528	616
4	0	0	0	0	527	615
5	0	0	0	0	526	618
6	0	0	0	0	526	615
7	0	0	0	0	527	616
8	0	0	0	0	527	615
9	0	0	0	0	529	615
10	0	0	0	0	531	616
11	0	0	0	0	532	615
12	0	0	0	0	535	616
13	0	0	0	0	536	618
14	0	0	0	0	537	616
15	0	0	0	0	538	615
0	0	0	0	0	537	615
1	0	0	0	0	537	614
2	0	0	0	0	535	615
3	0	0	0	0	532	615
4	0	0	0	0	530	615
5	0	0	0	0	527	618
6	0	0	0	0	524	616
7	0	0	0	0	521	616
8	0	0	0	0	519	616
9	0	0	0	0	519	615
10	0	0	0	0	519	616
11	0	0	0	0	519	616
12	0	0	0	0	521	616
13	0	0	0	0	523	617
14	0	0	0	0	525	615
15	0	0	0	0	527	615
0	0	0	0	0	530	616
1	0	0	0	0	532	614
2	0	0	0	0	533	616
3	0	0	0	0	533	616
4	0	0	0	0	533	615
5	0	0	0	0	533	618
6	0	0	0	0	531	616
7	0	0	0	0	527	615
8	0	0	0	0	525	615
9	0	0	0	0	522	614
10	0	0	0	0	520	616
11	0	0	0	0	519	615
12	0	0	0	0	517	615
13	0	0	0	0	516	619
14	0	0	0	0	516	616
15	0	0	0	0	516	616
0	0	0	0	0	518	616
1	0	0	0	0	519	614
2	0	0	0	0	523	616
3	0	0	0	0	525	616
4	0	0	0	0	527	616
5	0	0	0	0	530	619
6	0	0	0	0	531	616
7	0	0	0	0	531	616
8	0	0	0	0	531	616
9	0	0	0	0	529	615
10	0	0	0	0	527	616
11	0	0	0	0	524	616
12	0	0	0	0	521	616
13	0	0	0	0	519	618
14	0	0	0	0	517	616
15	0	0	0	0	515	616
0	0	0	0	0	515	616
1	0	0	0	0	515	615
2	0	0	0	0	515	616
3	0	0	0	0	516	615
4	0	0	0	0	518	615
5	0	0	0	0	520	618
6	0	0	0	0	522	615
7	0	0	0	0	524	615
8	0	0	0	0	527	616
9	0	0	0	0	528	614
10	0	0	0	0	529	617
11	0	0	0	0	530	616
12	0	0	0	0	529	616
13	0	0	0	0	529	619
14	0	0	0	0	527	616
15	0	0	0	0	525	616
0	0	0	0	0	523	616
1	0	0	0	0	521	614
2	0	0	0	0	519	616
3	0	0	0	0	517	616
4	0	0	0	0	516	615
5	0	0	0	0	516	618
6	0	0	0	0	515	616
7	0	0	0	0	516	616
8	0	0	0	0	518	616
9	0	0	0	0	519	615
10	0	0	0	0	522	616
11	0	0	0	0	524	615
12	0	0	0	0	527	615
13	0	0	0	0	528	618
14	0	0	0	0	530	616
15	0	0	0	0	530	616
0	0	0	0	0	530	616
1	0	0	0	0	529	614
2	0	0	0	0	527	615
3	0	0	0	0	524	615
4	0	0	0	0	521	616
5	0	0	0	0	519	618
6	0	0	0	0	516	616
7	0	0	0	0	514	616
8	0	0	0	0	512	616
9	0	0	0	0	512	614
10	0	0	0	0	512	615
11	0	0	0	0	513	615
12	0	0	0	0	514	615
13	0	0	0	0	516	618
14	0	0	0	0	519	616
15	0	0	0	0	521	616
0	0	0	0	0	524	616
1	0	0	0	0	527	614
2	0	0	0	0	528	615
3	0	0	0	0	529	615
4	0	0	0	0	529	615
5	0	0	0	0	528	617
6	0	0	0	0	526	616
7	0	0	0	0	523	616
8	0	0	0	0	520	615
9	0	0	0	0	518	614
10	0	0	0	0	516	615
11	0	0	0	0	515	615
12	0	0	0	0	513	615
13	0	0	0	0	514	618
14	0	0	0	0	514	616
15	0	0	0	0	515	616
0	0	0	0	0	517	615
1	0	0	0	0	519	614
2	0	0	0	0	521	616
3	0	0	0	0	523	615
4	0	0	0	0	525	616
5	0	0	0	0	527	618
6	0	0	0	0	529	615
7	0	0	0	0	530	616
8	0	0	0	0	529	616
9	0	0	0	0	529	614
10	0	0	0	0	527	616
11	0	0	0	0	524	616
12	0	0	0	0	521	616
13	0	0	0	0	518	618
14	0	0	0	0	515	616
15	0	0	0	0	513	616
0	0	0	0	0	512	615
1	0	0	0	0	512	614
2	0	0	0	0	513	615
3	0	0	0	0	514	616
4	0	0	0	0	515	616
5	0	0	0	0	516	617
6	0	0	0	0	519	615
7	0	0	0	0	520	615
8	0	0	0	0	523	616
9	0	0	0	0	525	614
10	0	0	0	0	527	615
11	0	0	0	0	527	616
12	0	0	0	0	527	616
13	0	0	0	0	526	618
14	0	0	0	0	524	615
15	0	0	0	0	521	616
0	0	0	0	0	518	615
1	0	0	0	0	516	615
2	0	0	0	0	514	615
3	0	0	0	0	513	616
4	0	0	0	0	512	616
5	0	0	0	0	512	618
6	0	0	0	0	512	615
7	0	0	0	0	512	616
8	0	0	0	0	514	615
9	0	0	0	0	517	614
10	0	0	0	0	519	615
11	0	0	0	0	521	615
12	0	0	0	0	523	615
13	0	0	0	0	525	617
14	0	0	0	0	527	615
15	0	0	0	0	527	615
0	0	0	0	0	527	615
1	0	0	0	0	526	615
2	0	0	0	0	524	615
3	0	0	0	0	522	616
4	0	0	0	0	519	616
5	0	0	0	0	517	618
6	0	0	0	0	515	616
7	0	0	0	0	513	616
8	0	0	0	0	512	616
9	0	0	0	0	512	615
10	0	0	0	0	512	615
11	0	0	0	0	513	616
12	0	0	0	0	514	616
13	0	0	0	0	516	618
14	0	0	0	0	519	616
15	0	0	0	0	520	615
0	0	0	0	0	522	616
1	0	0	0	0	524	614
2	0	0	0	0	525	616
3	0	0	0	0	526	616
4	0	0	0	0	525	616
5	0	0	0	0	525	618
6	0	0	0	0	522	615
7	0	0	0	0	520	616
8	0	0	0	0	517	615
9	0	0	0	0	514	614
10	0	0	0	0	512	616
11	0	0	0	0	511	615
12	0	0	0	0	510	616
13	0	0	0	0	509	618
14	0	0	0	0	509	615
15	0	0	0	0	510	616
0	0	0	0	0	511	616
1	0	0	0	0	513	615
2	0	0	0	0	515	616
3	0	0	0	0	518	616
4	0	0	0	0	519	617
5	0	0	0	0	521	618
6	0	0	0	0	523	616
7	0	0	0	0	523	616
8	0	0	0	0	523	615
9	0	0	0	0	522	615
10	0	0	0	0	519	616
11	0	0	0	0	517	616
12	0	0	0	0	515	616
13	0	0	0	0	512	618
14	0	0	0	0	510	616
15	0	0	0	0	508	616
0	0	0	0	0	507	615
1	0	0	0	0	507	615
2	0	0	0	0	507	615
3	0	0	0	0	508	616
4	0	0	0	0	510	616
5	0	0	0	0	511	618
6	0	0	0	0	513	616
7	0	0	0	0	515	615
8	0	0	0	0	518	615
9	0	0	0	0	519	614
10	0	0	0	0	521	615
11	0	0	0	0	521	615
12	0	0	0	0	521	615
13	0	0	0	0	520	618
14	0	0	0	0	518	615
15	0	0	0	0	515	615
0	0	0	0	0	513	615
1	0	0	0	0	511	614
2	0	0	0	0	508	616
3	0	0	0	0	507	616
4	0	0	0	0	507	615
5	0	0	0	0	507	618
6	0	0	0	0	507	615
7	0	0	0	0	508	616
8	0	0	0	0	509	616
9	0	0	0	0	511	614
10	0	0	0	0	513	615
11	0	0	0	0	515	616
12	0	0	0	0	519	616
13	0	0	0	0	520	618
14	0	0	0	0	522	616
15	0	0	0	0	523	616
0	0	0	0	0	521	615
1	0	0	0	0	521	615
2	0	0	0	0	518	615
3	0	0	0	0	516	616
4	0	0	0	0	514	615
5	0	0	0	0	511	618
6	0	0	0	0	509	616
7	0	0	0	0	508	616
8	0	0	0	0	506	616
9	0	0	0	0	506	614
10	0	0	0	0	506	616
11	0	0	0	0	507	616
12	0	0	0	0	507	616
13	0	0	0	0	509	618
14	0	0	0	0	512	616
15	0	0	0	0	513	616
0	0	0	0	0	515	616
1	0	0	0	0	517	615
2	0	0	0	0	518	616
3	0	0	0	0	519	616
4	0	0	0	0	518	616
5	0	0	0	0	518	618
6	0	0	0	0	516	616
7	0	0	0	0	513	616
8	0	0	0	0	510	616
9	0	0	0	0	508	615
10	0	0	0	0	505	615
11	0	0	0	0	504	616
12	0	0	0	0	502	616
13	0	0	0	0	502	618
14	0	0	0	0	502	616
15	0	0	0	0	503	616
0	0	0	0	0	504	615
1	0	0	0	0	507	615
2	0	0	0	0	509	616
3	0	0	0	0	511	615
4	0	0	0	0	513	615
5	0	0	0	0	515	618
6	0	0	0	0	516	615
7	0	0	0	0	518	615
8	0	0	0	0	517	616
9	0	0	0	0	516	615
10	0	0	0	0	514	615
11	0	0	0	0	512	616
12	0	0	0	0	509	616
13	0	0	0	0	506	618
14	0	0	0	0	504	616
15	0	0	0	0	502	615
0	0	0	0	0	500	615
1	0	0	0	0	500	615
2	0	0	0	0	500	615
3	0	0	0	0	501	616
4	0	0	0	0	502	615
5	0	0	0	0	504	618
6	0	0	0	0	508	616
7	0	0	0	0	510	616
8	0	0	0	0	513	615
9	0	0	0	0	515	614
10	0	0	0	0	516	615
11	0	0	0	0	516	615
12	0	0	0	0	516	615
13	0	0	0	0	515	617
14	0	0	0	0	513	615
15	0	0	0	0	511	615
0	0	0	0	0	508	615
1	0	0	0	0	506	614
2	0	0	0	0	504	615
3	0	0	0	0	502	615
4	0	0	0	0	501	615
5	0	0	0	0	502	618
6	0	0	0	0	502	616
7	0	0	0	0	503	616
8	0	0	0	0	504	616
9	0	0	0	0	505	614
10	0	0	0	0	508	616
11	0	0	0	0	510	616
12	0	0	0	0	512	616
13	0	0	0	0	514	619
14	0	0	0	0	516	616
15	0	0	0	0	516	616
0	0	0	0	0	516	616
1	0	0	0	0	515	615
2	0	0	0	0	513	616
3	0	0	0	0	511	616
4	0	0	0	0	508	616
5	0	0	0	0	505	618
6	0	0	0	0	503	616
7	0	0	0	0	501	616
8	0	0	0	0	500	616
9	0	0	0	0	500	614
10	0	0	0	0	501	616
11	0	0	0	0	502	616
12	0	0	0	0	503	616
13	0	0	0	0	505	618
14	0	0	0	0	507	615
15	0	0	0	0	509	615
0	0	0	0	0	511	616
1	0	0	0	0	512	615
2	0	0	0	0	513	617
3	0	0	0	0	513	616
4	0	0	0	0	512	616
5	0	0	0	0	512	619
6	0	0	0	0	510	616
7	0	0	0	0	508	616
8	0	0	0	0	505	616
9	0	0	0	0	503	614
10	0	0	0	0	501	615
11	0	0	0	0	499	615
12	0	0	0	0	499	615
13	0	0	0	0	499	618
14	0	0	0	0	499	615
15	0	0	0	0	500	616
0	0	0	0	0	503	615
1	0	0	0	0	505	615
2	0	0	0	0	508	616
3	0	0	0	0	510	615
4	0	0	0	0	512	615
5	0	0	0	0	514	618
6	0	0	0	0	515	615
7	0	0	0	0	515	616
8	0	0	0	0	516	616
9	0	0	0	0	516	615
10	0	0	0	0	514	616
11	0	0	0	0	512	616
12	0	0	0	0	510	616
13	0	0	0	0	507	618
14	0	0	0	0	504	616
15	0	0	0	0	502	615
0	0	0	0	0	500	616
1	0	0	0	0	500	614
2	0	0	0	0	500	615
3	0	0	0	0	501	615
4	0	0	0	0	502	615
5	0	0	0	0	504	618
6	0	0	0	0	507	616
7	0	0	0	0	509	615
8	0	0	0	0	512	615
9	0	0	0	0	513	614
10	0	0	0	0	515	616
11	0	0	0	0	515	616
12	0	0	0	0	516	616
13	0	0	0	0	515	619
14	0	0	0	0	513	616
15	0	0	0	0	511	617
0	0	0	0	0	509	617
1	0	0	0	0	507	615
2	0	0	0	0	504	616
3	0	0	0	0	502	616
4	0	0	0	0	502	616
5	0	0	0	0	502	618
6	0	0	0	0	502	616
7	0	0	0	0	503	617
8	0	0	0	0	504	616
9	0	0	0	0	506	615
10	0	0	0	0	508	616
11	0	0	0	0	510	615
12	0	0	0	0	512	616
13	0	0	0	0	514	618
14	0	0	0	0	515	616
15	0	0	0	0	515	616
0	0	0	0	0	515	616
1	0	0	0	0	515	615
2	0	0	0	0	514	616
3	0	0	0	0	512	616
4	0	0	0	0	510	616
5	0	0	0	0	506	618
6	0	0	0	0	504	616
7	0	0	0	0	501	615
8	0	0	0	0	500	616
9	0	0	0	0	500	614
10	0	0	0	0	500	616
11	0	0	0	0	502	616
12	0	0	0	0	504	615
13	0	0	0	0	506	618
14	0	0	0	0	508	615
15	0	0	0	0	511	615
0	0	0	0	0	513	616
1	0	0	0	0	514	614
2	0	0	0	0	515	615
3	0	0	0	0	515	616
4	0	0	0	0	515	616
5	0	0	0	0	513	618
6	0	0	0	0	512	616
7	0	0	0	0	510	615
8	0	0	0	0	507	615
9	0	0	0	0	505	615
10	0	0	0	0	504	616
11	0	0	0	0	501	615
12	0	0	0	0	500	615
13	0	0	0	0	499	618
14	0	0	0	0	500	616
15	0	0	0	0	501	616
0	0	0	0	0	503	616
1	0	0	0	0	505	614
2	0	0	0	0	507	616
3	0	0	0	0	509	616
4	0	0	0	0	511	616
5	0	0	0	0	512	619
6	0	0	0	0	513	616
7	0	0	0	0	514	616
8	0	0	0	0	514	615
9	0	0	0	0	513	615
10	0	0	0	0	511	615
11	0	0	0	0	509	616
12	0	0	0	0	506	616
13	0	0	0	0	504	618
14	0	0	0	0	501	616
15	0	0	0	0	499	615
0	0	0	0	0	497	616
1	0	0	0	0	496	614
2	0	0	0	0	496	616
3	0	0	0	0	497	616
4	0	0	0	0	498	616
5	0	0	0	0	499	619
6	0	0	0	0	502	616
7	0	0	0	0	504	616
8	0	0	0	0	506	616
9	0	0	0	0	508	614
10	0	0	0	0	510	616
11	0	0	0	0	509	615
12	0	0	0	0	508	615
13	0	0	0	0	508	619
14	0	0	0	0	505	615
15	0	0	0	0	503	616
0	0	0	0	0	499	615
1	0	0	0	0	496	614
2	0	0	0	0	495	616
3	0	0	0	0	493	616
4	0	0	0	0	492	615
5	0	0	0	0	493	618
6	0	0	0	0	493	616
7	0	0	0	0	494	615
8	0	0	0	0	496	615
9	0	0	0	0	497	614
10	0	0	0	0	499	616
11	0	0	0	0	502	616
12	0	0	0	0	504	616
13	0	0	0	0	507	618
14	0	0	0	0	509	617
15	0	0	0	0	510	616
0	0	0	0	0	510	615
1	0	0	0	0	511	615
2	0	0	0	0	510	615
3	0	0	0	0	509	615
4	0	0	0	0	507	615
5	0	0	0	0	505	617
6	0	0	0	0	504	616
7	0	0	0	0	503	615
8	0	0	0	0	503	616
9	0	0	0	0	503	615
10	0	0	0	0	504	617
11	0	0	0	0	505	617
12	0	0	0	0	506	617
13	0	0	0	0	509	619
14	0	0	0	0	511	616
15	0	0	0	0	512	615
0	0	0	0	0	514	616
1	0	0	0	0	516	615
2	0	0	0	0	517	616
3	0	0	0	0	518	616
4	0	0	0	0	518	615
5	0	0	0	0	517	618
6	0	0	0	0	515	616
7	0	0	0	0	513	616
8	0	0	0	0	511	616
9	0	0	0	0	509	614
10	0	0	0	0	507	616
11	0	0	0	0	505	616
12	0	0	0	0	505	616
13	0	0	0	0	504	618
14	0	0	0	0	504	616
15	0	0	0	0	504	616
0	0	0	0	0	505	616
1	0	0	0	0	507	615
2	0	0	0	0	508	616
3	0	0	0	0	511	616
4	0	0	0	0	513	615
5	0	0	0	0	515	617
6	0	0	0	0	516	615
7	0	0	0	0	517	615
8	0	0	0	0	516	616
9	0	0	0	0	515	615
10	0	0	0	0	514	616
11	0	0	0	0	512	616
12	0	0	0	0	509	616
13	0	0	0	0	507	619
14	0	0	0	0	505	616
15	0	0	0	0	503	616
0	0	0	0	0	502	616
1	0	0	0	0	503	614
2	0	0	0	0	503	615
3	0	0	0	0	504	616
4	0	0	0	0	506	616
5	0	0	0	0	508	618
6	0	0	0	0	510	615
7	0	0	0	0	512	616
8	0	0	0	0	514	616
9	0	0	0	0	516	615
10	0	0	0	0	517	616
11	0	0	0	0	517	616
12	0	0	0	0	517	615
13	0	0	0	0	516	619
14	0	0	0	0	514	616
15	0	0	0	0	512	616
0	0	0	0	0	510	617
1	0	0	0	0	506	615
2	0	0	0	0	504	617
3	0	0	0	0	503	616
4	0	0	0	0	502	616
5	0	0	0	0	502	618
6	0	0	0	0	502	615
7	0	0	0	0	504	615
8	0	0	0	0	505	615
9	0	0	0	0	507	614
10	0	0	0	0	509	615
11	0	0	0	0	511	615
12	0	0	0	0	513	616
13	0	0	0	0	515	619
14	0	0	0	0	517	616
15	0	0	0	0	518	615
0	0	0	0	0	518	616
1	0	0	0	0	516	614
2	0	0	0	0	514	616
3	0	0	0	0	512	615
4	0	0	0	0	509	615
5	0	0	0	0	506	617
6	0	0	0	0	504	615
7	0	0	0	0	502	615
8	0	0	0	0	501	616
9	0	0	0	0	502	614
10	0	0	0	0	502	615
11	0	0	0	0	502	616
12	0	0	0	0	503	615
13	0	0	0	0	504	618
14	0	0	0	0	505	616
15	0	0	0	0	506	616
0	0	0	0	0	505	616
1	0	0	0	0	504	615
2	0	0	0	0	501	616
3	0	0	0	0	495	616
4	0	0	0	0	486	615
5	0	0	0	0	476	618
6	0	0	0	0	463	615
7	0	0	0	0	449	616
8	0	0	0	0	437	616
9	0	0	0	0	424	615
10	0	0	0	0	413	616
11	0	0	0	0	402	616
12	0	0	0	0	393	616
13	0	0	0	0	388	619
14	0	0	0	0	386	616
15	0	0	0	0	386	616
0	0	0	0	0	389	615
1	0	0	0	0	394	615
2	0	0	0	0	400	616
3	0	0	0	0	409	616
4	0	0	0	0	420	616
5	0	0	0	0	431	619
6	0	0	0	0	440	616
7	0	0	0	0	448	616
8	0	0	0	0	455	617
9	0	0	0	0	463	615
10	0	0	0	0	473	616
11	0	0	0	0	488	616
12	0	0	0	0	508	616
13	0	0	0	0	530	618
14	0	0	0	0	560	616
15	0	0	0	0	598	616
0	0	0	0	0	642	616
1	0	0	0	0	690	615
2	0	0	0	0	742	616
3	0	0	0	0	796	616
4	0	0	0	0	847	616
5	0	0	0	0	894	619
6	0	0	0	0	935	616
7	0	0	0	0	969	615
8	0	0	0	0	996	615
9	0	0	0	0	1016	614
10	0	0	0	0	1022	616
11	0	0	0	0	1022	616
12	0	0	0	0	1022	615
13	0	0	0	0	1022	618
14	0	0	0	0	1021	615
15	0	0	0	0	1004	616
0	0	0	0	0	983	616
1	0	0	0	0	958	614
2	0	0	0	0	931	616
3	0	0	0	0	899	616
4	0	0	0	0	865	615
5	0	0	0	0	830	618
6	0	0	0	0	795	615
7	0	0	0	0	765	615
8	0	0	0	0	737	615
9	0	0	0	0	713	614
10	0	0	0	0	691	616
11	0	0	0	0	671	615
12	0	0	0	0	653	615
13	0	0	0	0	636	619
14	0	0	0	0	622	616
15	0	0	0	0	608	617
0	0	0	0	0	595	616
1	0	0	0	0	580	615
2	0	0	0	0	564	616
3	0	0	0	0	548	616
4	0	0	0	0	532	616
5	0	0	0	0	515	618
6	0	0	0	0	500	616
7	0	0	0	0	484	616
8	0	0	0	0	471	617
9	0	0	0	0	459	614
10	0	0	0	0	449	615
11	0	0	0	0	441	616
12	0	0	0	0	434	616
13	0	0	0	0	428	618
14	0	0	0	0	423	617
15	0	0	0	0	419	617
0	0	0	0	0	416	617
1	0	0	0	0	414	615
2	0	0	0	0	411	616
3	0	0	0	0	408	617
4	0	0	0	0	404	616
5	0	0	0	0	401	619
6	0	0	0	0	396	615
7	0	0	0	0	391	616
8	0	0	0	0	387	616
9	0	0	0	0	383	615
10	0	0	0	0	380	616
11	0	0	0	0	377	615
12	0	0	0	0	376	616
13	0	0	0	0	376	619
14	0	0	0	0	376	616
15	0	0	0	0	376	616
0	0	0	0	0	378	616
1	0	0	0	0	380	615
2	0	0	0	0	382	617
3	0	0	0	0	385	616
4	0	0	0	0	388	616
5	0	0	0	0	391	618
6	0	0	0	0	392	616
7	0	0	0	0	394	616
8	0	0	0	0	393	615
9	0	0	0	0	393	614
10	0	0	0	0	391	615
11	0	0	0	0	389	615
12	0	0	0	0	388	616
13	0	0	0	0	386	618
14	0	0	0	0	385	616
15	0	0	0	0	384	615
0	0	0	0	0	384	615
1	0	0	0	0	385	615
2	0	0	0	0	386	615
3	0	0	0	0	388	616
4	0	0	0	0	391	616
5	0	0	0	0	394	618
6	0	0	0	0	397	615
7	0	0	0	0	400	616
8	0	0	0	0	403	616
9	0	0	0	0	407	615
10	0	0	0	0	409	616
11	0	0	0	0	411	616
12	0	0	0	0	412	616
13	0	0	0	0	413	618
14	0	0	0	0	411	615
15	0	0	0	0	409	616
0	0	0	0	0	407	616
1	0	0	0	0	405	614
2	0	0	0	0	404	616
3	0	0	0	0	404	616
4	0	0	0	0	404	615
5	0	0	0	0	406	618
6	0	0	0	0	407	616
7	0	0	0	0	409	616
8	0	0	0	0	412	616
9	0	0	0	0	415	615
10	0	0	0	0	418	616
11	0	0	0	0	422	616
12	0	0	0	0	424	617
13	0	0	0	0	428	619
14	0	0	0	0	430	616
15	0	0	0	0	431	616
0	0	0	0	0	431	616
1	0	0	0	0	431	615
2	0	0	0	0	429	616
3	0	0	0	0	427	615
4	0	0	0	0	425	615
5	0	0	0	0	423	617
6	0	0	0	0	422	616
7	0	0	0	0	420	615
8	0	0	0	0	419	616
9	0	0	0	0	419	615
10	0	0	0	0	420	616
11	0	0	0	0	422	616
12	0	0	0	0	424	616
13	0	0	0	0	427	618
14	0	0	0	0	430	616
15	0	0	0	0	432	615
0	0	0	0	0	436	615
1	0	0	0	0	439	615
2	0	0	0	0	441	616
3	0	0	0	0	441	616
4	0	0	0	0	442	616
5	0	0	0	0	442	619
6	0	0	0	0	440	615
7	0	0	0	0	438	616
8	0	0	0	0	435	617
9	0	0	0	0	432	615
10	0	0	0	0	431	616
11	0	0	0	0	429	616
12	0	0	0	0	428	616
13	0	0	0	0	429	618
14	0	0	0	0	430	616
15	0	0	0	0	431	616
0	0	0	0	0	433	616
1	0	0	0	0	437	615
2	0	0	0	0	440	616
3	0	0	0	0	443	616
4	0	0	0	0	446	616
5	0	0	0	0	449	618
6	0	0	0	0	452	616
7	0	0	0	0	452	616
8	0	0	0	0	452	616
9	0	0	0	0	452	615
10	0	0	0	0	450	616
11	0	0	0	0	448	615
12	0	0	0	0	445	615
13	0	0	0	0	442	618
14	0	0	0	0	441	616
15	0	0	0	0	439	616
0	0	0	0	0	439	616
1	0	0	0	0	439	615
2	0	0	0	0	439	616
3	0	0	0	0	441	616
4	0	0	0	0	443	616
5	0	0	0	0	444	618
6	0	0	0	0	446	616
7	0	0	0	0	448	616
8	0	0	0	0	451	616
9	0	0	0	0	454	615
10	0	0	0	0	455	615
11	0	0	0	0	457	616
12	0	0	0	0	457	615
13	0	0	0	0	456	619
14	0	0	0	0	455	616
15	0	0	0	0	452	616
0	0	0	0	0	449	616
1	0	0	0	0	447	615
2	0	0	0	0	446	616
3	0	0	0	0	444	615
4	0	0	0	0	444	615
5	0	0	0	0	444	618
6	0	0	0	0	445	615
7	0	0	0	0	447	616
8	0	0	0	0	448	616
9	0	0	0	0	450	614
10	0	0	0	0	453	616
11	0	0	0	0	456	615
12	0	0	0	0	459	615
13	0	0	0	0	462	618
14	0	0	0	0	463	616
15	0	0	0	0	464	617
0	0	0	0	0	464	616
1	0	0	0	0	464	615
2	0	0	0	0	463	616
3	0	0	0	0	460	616
4	0	0	0	0	459	616
5	0	0	0	0	456	619
6	0	0	0	0	455	617
7	0	0	0	0	453	616
8	0	0	0	0	452	616
9	0	0	0	0	453	615
10	0	0	0	0	454	616
11	0	0	0	0	455	616
12	0	0	0	0	459	616
13	0	0	0	0	461	619
14	0	0	0	0	464	616
15	0	0	0	0	467	615
0	0	0	0	0	471	616
1	0	0	0	0	474	615
2	0	0	0	0	476	615
3	0	0	0	0	478	615
4	0	0	0	0	479	616
5	0	0	0	0	480	618
6	0	0	0	0	479	615
7	0	0	0	0	478	616
8	0	0	0	0	476	616
9	0	0	0	0	475	614
10	0	0	0	0	474	616
11	0	0	0	0	474	615
12	0	0	0	0	475	616
13	0	0	0	0	475	618
14	0	0	0	0	477	615
15	0	0	0	0	479	616
0	0	0	0	0	481	615
1	0	0	0	0	484	614
2	0	0	0	0	487	616
3	0	0	0	0	491	615
4	0	0	0	0	494	615
5	0	0	0	0	498	617
6	0	0	0	0	501	615
7	0	0	0	0	504	615
8	0	0	0	0	504	616
9	0	0	0	0	504	615
10	0	0	0	0	504	616
11	0	0	0	0	502	616
12	0	0	0	0	500	616
13	0	0	0	0	498	617
14	0	0	0	0	498	616
15	0	0	0	0	497	616
0	0	0	0	0	497	616
1	0	0	0	0	498	615
2	0	0	0	0	500	616
3	0	0	0	0	502	616
4	0	0	0	0	505	616
5	0	0	0	0	508	619
6	0	0	0	0	512	616
7	0	0	0	0	515	616
8	0	0	0	0	519	616
9	0	0	0	0	522	615
10	0	0	0	0	524	616
11	0	0	0	0	525	616
12	0	0	0	0	526	615
13	0	0	0	0	526	618
14	0	0	0	0	525	616
15	0	0	0	0	524	616
0	0	0	0	0	522	616
1	0	0	0	0	521	615
2	0	0	0	0	519	616
3	0	0	0	0	518	616
4	0	0	0	0	518	616
5	0	0	0	0	517	619
6	0	0	0	0	518	616
7	0	0	0	0	520	616
8	0	0	0	0	523	616
9	0	0	0	0	525	614
10	0	0	0	0	528	616
11	0	0	0	0	530	616
12	0	0	0	0	534	616
13	0	0	0	0	537	619
14	0	0	0	0	539	617
15	0	0	0	0	540	616
0	0	0	0	0	541	616
1	0	0	0	0	541	615
2	0	0	0	0	539	616
3	0	0	0	0	537	616
4	0	0	0	0	535	616
5	0	0	0	0	532	618
6	0	0	0	0	529	616
7	0	0	0	0	527	615
8	0	0	0	0	526	615
9	0	0	0	0	526	614
10	0	0	0	0	526	615
11	0	0	0	0	527	615
12	0	0	0	0	529	615
13	0	0	0	0	531	618
14	0	0	0	0	534	616
15	0	0	0	0	537	615
0	0	0	0	0	540	616
1	0	0	0	0	542	614
2	0	0	0	0	543	616
3	0	0	0	0	544	615
4	0	0	0	0	545	615
5	0	0	0	0	543	618
6	0	0	0	0	542	616
7	0	0	0	0	540	615
8	0	0	0	0	536	616
9	0	0	0	0	533	614
10	0	0	0	0	531	616
11	0	0	0	0	529	616
12	0	0	0	0	529	616
13	0	0	0	0	529	619
14	0	0	0	0	530	616
15	0	0	0	0	531	616
0	0	0	0	0	532	616
1	0	0	0	0	534	615
2	0	0	0	0	537	616
3	0	0	0	0	540	615
4	0	0	0	0	543	616
5	0	0	0	0	544	618
6	0	0	0	0	545	615
7	0	0	0	0	545	616
8	0	0	0	0	545	615
9	0	0	0	0	544	614
10	0	0	0	0	543	615
11	0	0	0	0	541	615
12	0	0	0	0	538	616
13	0	0	0	0	536	619
14	0	0	0	0	533	616
15	0	0	0	0	531	616
0	0	0	0	0	530	616
1	0	0	0	0	529	615
2	0	0	0	0	529	615
3	0	0	0	0	530	616
4	0	0	0	0	531	616
5	0	0	0	0	533	618
6	0	0	0	0	535	616
7	0	0	0	0	537	615
8	0	0	0	0	539	616
9	0	0	0	0	542	614
10	0	0	0	0	543	616
11	0	0	0	0	543	616
12	0	0	0	0	543	616
13	0	0	0	0	542	619
14	0	0	0	0	540	617
15	0	0	0	0	536	616
0	0	0	0	0	534	616
1	0	0	0	0	532	615
2	0	0	0	0	530	616
3	0	0	0	0	528	616
4	0	0	0	0	527	616
5	0	0	0	0	526	618
6	0	0	0	0	525	615
7	0	0	0	0	527	616
8	0	0	0	0	528	616
9	0	0	0	0	529	615
10	0	0	0	0	531	616
11	0	0	0	0	533	616
12	0	0	0	0	535	615
13	0	0	0	0	536	618
14	0	0	0	0	537	616
15	0	0	0	0	538	616
0	0	0	0	0	537	616
1	0	0	0	0	536	614
2	0	0	0	0	534	616
3	0	0	0	0	531	616
4	0	0	0	0	527	616
5	0	0	0	0	525	618
6	0	0	0	0	523	616
7	0	0	0	0	520	616
8	0	0	0	0	519	617
9	0	0	0	0	520	615
10	0	0	0	0	520	616
11	0	0	0	0	521	616
12	0	0	0	0	522	616
13	0	0	0	0	524	619
14	0	0	0	0	526	617
15	0	0	0	0	527	617
0	0	0	0	0	530	617
1	0	0	0	0	532	615
2	0	0	0	0	533	617
3	0	0	0	0	533	616
4	0	0	0	0	533	616
5	0	0	0	0	532	619
6	0	0	0	0	529	616
7	0	0	0	0	527	615
8	0	0	0	0	524	615
9	0	0	0	0	521	614
10	0	0	0	0	519	615
11	0	0	0	0	517	615
12	0	0	0	0	516	615
13	0	0	0	0	516	617
14	0	0	0	0	516	615
15	0	0	0	0	517	616
0	0	0	0	0	519	615
1	0	0	0	0	520	614
2	0	0	0	0	522	615
3	0	0	0	0	525	615
4	0	0	0	0	527	616
5	0	0	0	0	529	619
6	0	0	0	0	531	616
7	0	0	0	0	532	616
8	0	0	0	0	531	615
9	0	0	0	0	530	615
10	0	0	0	0	527	615
11	0	0	0	0	526	615
12	0	0	0	0	524	615
13	0	0	0	0	522	618
14	0	0	0	0	520	615
15	0	0	0	0	517	616
0	0	0	0	0	516	615
1	0	0	0	0	516	615
2	0	0	0	0	516	615
3	0	0	0	0	517	616
4	0	0	0	0	518	615
5	0	0	0	0	520	618
6	0	0	0	0	521	616
7	0	0	0	0	523	616
8	0	0	0	0	525	616
9	0	0	0	0	527	615
10	0	0	0	0	528	616
11	0	0	0	0	529	616
12	0	0	0	0	528	615
13	0	0	0	0	528	619
14	0	0	0	0	526	616
15	0	0	0	0	524	616
0	0	0	0	0	523	616
1	0	0	0	0	519	614
2	0	0	0	0	517	616
3	0	0	0	0	516	617
4	0	0	0	0	515	616
5	0	0	0	0	514	618
6	0	0	0	0	514	615
7	0	0	0	0	515	616
8	0	0	0	0	516	616
9	0	0	0	0	519	614
10	0	0	0	0	520	616
11	0	0	0	0	523	615
12	0	0	0	0	526	616
13	0	0	0	0	528	618
14	0	0	0	0	530	616
15	0	0	0	0	531	616
0	0	0	0	0	530	616
1	0	0	0	0	529	615
2	0	0	0	0	527	616
3	0	0	0	0	526	616
4	0	0	0	0	523	616
5	0	0	0	0	520	618
6	0	0	0	0	518	616
7	0	0	0	0	515	615
8	0	0	0	0	514	615
9	0	0	0	0	513	614
10	0	0	0	0	514	615
11	0	0	0	0	515	615
12	0	0	0	0	515	615
13	0	0	0	0	517	618
14	0	0	0	0	519	615
15	0	0	0	0	521	615
0	0	0	0	0	523	616
1	0	0	0	0	526	614
2	0	0	0	0	527	615
3	0	0	0	0	528	615
4	0	0	0	0	528	616
5	0	0	0	0	527	618
6	0	0	0	0	525	615
7	0	0	0	0	522	616
8	0	0	0	0	519	616
9	0	0	0	0	517	615
10	0	0	0	0	515	616
11	0	0	0	0	514	615
12	0	0	0	0	513	616
13	0	0	0	0	512	618
14	0	0	0	0	512	616
15	0	0	0	0	513	616
0	0	0	0	0	515	615
1	0	0	0	0	517	615
2	0	0	0	0	519	615
3	0	0	0	0	522	615
4	0	0	0	0	524	615
5	0	0	0	0	526	618
6	0	0	0	0	527	616
7	0	0	0	0	527	616
8	0	0	0	0	527	616
9	0	0	0	0	526	614
10	0	0	0	0	524	616
11	0	0	0	0	522	616
12	0	0	0	0	519	616
13	0	0	0	0	516	618
14	0	0	0	0	514	616
15	0	0	0	0	513	615
0	0	0	0	0	512	616
1	0	0	0	0	512	615
2	0	0	0	0	512	616
3	0	0	0	0	513	616
4	0	0	0	0	515	615
5	0	0	0	0	518	618
6	0	0	0	0	519	616
7	0	0	0	0	522	616
8	0	0	0	0	525	616
9	0	0	0	0	527	614
10	0	0	0	0	528	616
11	0	0	0	0	528	616
12	0	0	0	0	528	615
13	0	0	0	0	527	619
14	0	0	0	0	524	616
15	0	0	0	0	521	616
0	0	0	0	0	519	616
1	0	0	0	0	517	615
2	0	0	0	0	515	616
3	0	0	0	0	513	616
4	0	0	0	0	512	616
5	0	0	0	0	512	619
6	0	0	0	0	512	616
7	0	0	0	0	512	616
8	0	0	0	0	513	615
9	0	0	0	0	515	615
10	0	0	0	0	519	616
11	0	0	0	0	521	616
12	0	0	0	0	523	616
13	0	0	0	0	524	618
14	0	0	0	0	526	616
15	0	0	0	0	527	615
0	0	0	0	0	526	615
1	0	0	0	0	525	614
2	0	0	0	0	523	616
3	0	0	0	0	520	615
4	0	0	0	0	518	616
5	0	0	0	0	515	618
6	0	0	0	0	513	616
7	0	0	0	0	512	616
8	0	0	0	0	511	616
9	0	0	0	0	511	614
10	0	0	0	0	511	616
11	0	0	0	0	512	617
12	0	0	0	0	513	617
13	0	0	0	0	515	619
14	0	0	0	0	518	616
15	0	0	0	0	520	615
0	0	0	0	0	523	615
1	0	0	0	0	524	615
2	0	0	0	0	525	615
3	0	0	0	0	525	615
4	0	0	0	0	524	615
5	0	0	0	0	523	617
6	0	0	0	0	520	615
7	0	0	0	0	518	615
8	0	0	0	0	515	616
9	0	0	0	0	512	614
10	0	0	0	0	510	617
11	0	0	0	0	508	616
12	0	0	0	0	507	617
13	0	0	0	0	507	619
14	0	0	0	0	507	615
15	0	0	0	0	508	615
0	0	0	0	0	510	615
1	0	0	0	0	513	613
2	0	0	0	0	516	615
3	0	0	0	0	519	615
4	0	0	0	0	521	615
5	0	0	0	0	523	618
6	0	0	0	0	524	616
7	0	0	0	0	524	617
8	0	0	0	0	524	617
9	0	0	0	0	523	615
10	0	0	0	0	520	617
11	0	0	0	0	518	616
12	0	0	0	0	515	615
13	0	0	0	0	512	617
14	0	0	0	0	510	615
15	0	0	0	0	508	615
0	0	0	0	0	508	615
1	0	0	0	0	508	614
2	0	0	0	0	508	615
3	0	0	0	0	509	615
4	0	0	0	0	510	615
5	0	0	0	0	512	619
6	0	0	0	0	514	616
7	0	0	0	0	516	616
8	0	0	0	0	518	616
9	0	0	0	0	520	614
10	0	0	0	0	521	615
11	0	0	0	0	522	616
12	0	0	0	0	521	615
13	0	0	0	0	520	618
14	0	0	0	0	518	615
15	0	0	0	0	515	615
0	0	0	0	0	513	616
1	0	0	0	0	511	615
2	0	0	0	0	508	616
3	0	0	0	0	507	616
4	0	0	0	0	505	617
5	0	0	0	0	505	619
6	0	0	0	0	506	615
7	0	0	0	0	507	616
8	0	0	0	0	509	616
9	0	0	0	0	511	614
10	0	0	0	0	512	615
11	0	0	0	0	515	616
12	0	0	0	0	517	617
13	0	0	0	0	519	618
14	0	0	0	0	520	616
15	0	0	0	0	521	616
0	0	0	0	0	521	616
1	0	0	0	0	520	615
2	0	0	0	0	519	616
3	0	0	0	0	516	616
4	0	0	0	0	514	616
5	0	0	0	0	511	618
6	0	0	0	0	510	616
7	0	0	0	0	508	615
8	0	0	0	0	507	615
9	0	0	0	0	505	614
10	0	0	0	0	505	615
11	0	0	0	0	506	615
12	0	0	0	0	508	615
13	0	0	0	0	510	617
14	0	0	0	0	512	615
15	0	0	0	0	514	615
0	0	0	0	0	516	616
1	0	0	0	0	519	615
2	0	0	0	0	519	616
3	0	0	0	0	520	616
4	0	0	0	0	519	616
5	0	0	0	0	519	618
6	0	0	0	0	516	615
7	0	0	0	0	513	616
8	0	0	0	0	511	616
9	0	0	0	0	508	614
10	0	0	0	0	505	615
11	0	0	0	0	502	615
12	0	0	0	0	501	616
13	0	0	0	0	501	619
14	0	0	0	0	502	616
15	0	0	0	0	503	616
0	0	0	0	0	505	616
1	0	0	0	0	508	615
2	0	0	0	0	510	616
3	0	0	0	0	512	615
4	0	0	0	0	515	615
5	0	0	0	0	517	618
6	0	0	0	0	519	616
7	0	0	0	0	519	615
8	0	0	0	0	519	616
9	0	0	0	0	518	615
10	0	0	0	0	516	616
11	0	0	0	0	514	616
12	0	0	0	0	512	616
13	0	0	0	0	509	618
14	0	0	0	0	507	616
15	0	0	0	0	504	615
0	0	0	0	0	503	616
1	0	0	0	0	503	614
2	0	0	0	0	503	616
3	0	0	0	0	504	616
4	0	0	0	0	505	615
5	0	0	0	0	507	618
6	0	0	0	0	509	616
7	0	0	0	0	511	615
8	0	0	0	0	513	616
9	0	0	0	0	515	614
10	0	0	0	0	517	616
11	0	0	0	0	518	616
12	0	0	0	0	518	615
13	0	0	0	0	518	618
14	0	0	0	0	515	616
15	0	0	0	0	513	615
0	0	0	0	0	510	616
1	0	0	0	0	507	614
2	0	0	0	0	504	616
3	0	0	0	0	503	615
4	0	0	0	0	502	616
5	0	0	0	0	501	618
6	0	0	0	0	502	615
7	0	0	0	0	502	615
8	0	0	0	0	503	615
9	0	0	0	0	506	614
10	0	0	0	0	509	616
11	0	0	0	0	512	616
12	0	0	0	0	514	615
13	0	0	0	0	517	618
14	0	0	0	0	519	616
15	0	0	0	0	519	615
0	0	0	0	0	519	615
1	0	0	0	0	519	614
2	0	0	0	0	517	616
3	0	0	0	0	514	616
4	0	0	0	0	511	616
5	0	0	0	0	508	618
6	0	0	0	0	506	616
7	0	0	0	0	504	615
8	0	0	0	0	504	617
9	0	0	0	0	504	615
10	0	0	0	0	504	616
11	0	0	0	0	505	617
12	0	0	0	0	506	616
13	0	0	0	0	508	619
14	0	0	0	0	511	616
15	0	0	0	0	512	616
0	0	0	0	0	515	615
1	0	0	0	0	517	614
2	0	0	0	0	518	616
3	0	0	0	0	519	615
4	0	0	0	0	518	616
5	0	0	0	0	517	619
6	0	0	0	0	515	616
7	0	0	0	0	512	616
8	0	0	0	0	510	615
9	0	0	0	0	507	614
10	0	0	0	0	505	616
11	0	0	0	0	504	616
12	0	0	0	0	502	615
13	0	0	0	0	502	617
14	0	0	0	0	503	615
15	0	0	0	0	504	615
0	0	0	0	0	504	615
1	0	0	0	0	507	615
2	0	0	0	0	508	616
3	0	0	0	0	510	616
4	0	0	0	0	512	615
5	0	0	0	0	514	618
6	0	0	0	0	516	616
7	0	0	0	0	516	616
8	0	0	0	0	516	616
9	0	0	0	0	516	615
10	0	0	0	0	514	616
11	0	0	0	0	512	616
12	0	0	0	0	510	615
13	0	0	0	0	508	618
14	0	0	0	0	505	616
15	0	0	0	0	503	616
0	0	0	0	0	502	616
1	0	0	0	0	503	615
2	0	0	0	0	503	615
3	0	0	0	0	504	616
4	0	0	0	0	506	616
5	0	0	0	0	508	618
6	0	0	0	0	510	616
7	0	0	0	0	512	616
8	0	0	0	0	515	616
9	0	0	0	0	517	614
10	0	0	0	0	519	615
11	0	0	0	0	519	615
12	0	0	0	0	519	615
13	0	0	0	0	518	618
14	0	0	0	0	516	616
15	0	0	0	0	513	616
0	0	0	0	0	510	616
1	0	0	0	0	507	614
2	0	0	0	0	506	616
3	0	0	0	0	504	616
4	0	0	0	0	503	616
5	0	0	0	0	503	619
6	0	0	0	0	503	616
7	0	0	0	0	504	616
8	0	0	0	0	504	615
9	0	0	0	0	507	615
10	0	0	0	0	509	616
11	0	0	0	0	511	615
12	0	0	0	0	513	615
13	0	0	0	0	516	617
14	0	0	0	0	518	616
15	0	0	0	0	518	615
0	0	0	0	0	518	615
1	0	0	0	0	516	614
2	0	0	0	0	514	615
3	0	0	0	0	512	615
4	0	0	0	0	510	615
5	0	0	0	0	507	617
6	0	0	0	0	504	615
7	0	0	0	0	502	615
8	0	0	0	0	501	616
9	0	0	0	0	501	615
10	0	0	0	0	501	616
11	0	0	0	0	502	616
12	0	0	0	0	503	615
13	0	0	0	0	504	618
14	0	0	0	0	507	615
15	0	0	0	0	509	615
0	0	0	0	0	512	615
1	0	0	0	0	514	614
2	0	0	0	0	515	615
3	0	0	0	0	516	615
4	0	0	0	0	516	615
5	0	0	0	0	516	618
6	0	0	0	0	514	616
7	0	0	0	0	512	616
8	0	0	0	0	509	616
9	0	0	0	0	506	614
10	0	0	0	0	504	616
11	0	0	0	0	501	615
12	0	0	0	0	499	615
13	0	0	0	0	499	618
14	0	0	0	0	499	616
15	0	0	0	0	501	616
0	0	0	0	0	502	616
1	0	0	0	0	504	614
2	0	0	0	0	507	615
3	0	0	0	0	510	615
4	0	0	0	0	511	616
5	0	0	0	0	513	618
6	0	0	0	0	514	616
7	0	0	0	0	515	616
8	0	0	0	0	515	616
9	0	0	0	0	515	615
10	0	0	0	0	513	616
11	0	0	0	0	511	616
12	0	0	0	0	507	615
13	0	0	0	0	504	618
14	0	0	0	0	502	616
15	0	0	0	0	500	616
0	0	0	0	0	499	616
1	0	0	0	0	498	614
2	0	0	0	0	498	615
3	0	0	0	0	498	616
4	0	0	0	0	499	616
5	0	0	0	0	501	618
6	0	0	0	0	504	616
7	0	0	0	0	505	615
8	0	0	0	0	508	615
9	0	0	0	0	510	614
10	0	0	0	0	511	615
11	0	0	0	0	512	616
12	0	0	0	0	512	615
13	0	0	0	0	510	618
14	0	0	0	0	508	616
15	0	0	0	0	505	616
0	0	0	0	0	502	616
1	0	0	0	0	499	614
2	0	0	0	0	496	616
3	0	0	0	0	495	616
4	0	0	0	0	494	616
5	0	0	0	0	494	618
6	0	0	0	0	494	616
7	0	0	0	0	495	616
8	0	0	0	0	496	616
9	0	0	0	0	499	615
10	0	0	0	0	502	616
11	0	0	0	0	504	616
12	0	0	0	0	507	615
13	0	0	0	0	508	618
14	0	0	0	0	510	616
15	0	0	0	0	511	616
0	0	0	0	0	510	616
1	0	0	0	0	510	615
2	0	0	0	0	508	616
3	0	0	0	0	506	617
4	0	0	0	0	504	616
5	0	0	0	0	502	619
6	0	0	0	0	501	616
7	0	0	0	0	500	616
8	0	0	0	0	500	616
9	0	0	0	0	501	614
10	0	0	0	0	502	615
11	0	0	0	0	503	615
12	0	0	0	0	506	615
13	0	0	0	0	508	618
14	0	0	0	0	511	615
15	0	0	0	0	513	615
0	0	0	0	0	515	616
1	0	0	0	0	518	614
2	0	0	0	0	519	615
3	0	0	0	0	520	616
4	0	0	0	0	519	615
5	0	0	0	0	519	619
6	0	0	0	0	516	615
7	0	0	0	0	514	616
8	0	0	0	0	511	616
9	0	0	0	0	508	614
10	0	0	0	0	506	615
11	0	0	0	0	504	616
12	0	0	0	0	504	616
13	0	0	0	0	504	618
14	0	0	0	0	504	616
15	0	0	0	0	505	616
0	0	0	0	0	507	616
1	0	0	0	0	509	614
2	0	0	0	0	511	616
3	0	0	0	0	514	615
4	0	0	0	0	516	616
5	0	0	0	0	518	617
6	0	0	0	0	519	615
7	0	0	0	0	519	615
8	0	0	0	0	519	616
9	0	0	0	0	518	614
10	0	0	0	0	517	616
11	0	0	0	0	514	615
12	0	0	0	0	511	615
13	0	0	0	0	508	619
14	0	0	0	0	506	616
15	0	0	0	0	504	616
0	0	0	0	0	502	616
1	0	0	0	0	502	614
2	0	0	0	0	502	615
3	0	0	0	0	503	616
4	0	0	0	0	505	616
5	0	0	0	0	507	619
