# OpenSignals Text File Format. Version 1
# {"98:D3:91:FD:59:64": {"position": 0, "device": "bitalino_rev", "device name": "98:D3:91:FD:59:64", "device connection": "BTH98:D3:91:FD:59:64", "sampling rate": 1000, "resolution": [4, 1, 1, 1, 1, 10, 10], "firmware version": 1281, "comments": "", "keywords": "", "mode": 0, "sync interval": 2, "date": "2021-9-5", "time": "16:56:33.740", "channels": [2, 5], "sensor": ["RAW", "RAW"], "label": ["A2", "A5"], "column": ["nSeq", "I1", "I2", "O1", "O2", "A2", "A5"], "special": [{}, {}], "digital IO": [0, 0, 1, 1], "convertedValues": 0}}
# EndOfHeader
0	0	0	0	0	977	628	
1	0	0	0	0	946	628	
2	0	0	0	0	915	627	
3	0	0	0	0	885	628	
4	0	0	0	0	856	627	
5	0	0	0	0	825	627	
6	0	0	0	0	796	628	
7	0	0	0	0	767	627	
8	0	0	0	0	738	627	
9	0	0	0	0	712	627	
10	0	0	0	0	687	628	
11	0	0	0	0	661	628	
12	0	0	0	0	637	627	
13	0	0	0	0	615	626	
14	0	0	0	0	592	627	
15	0	0	0	0	571	627	
0	0	0	0	0	551	626	
1	0	0	0	0	532	625	
2	0	0	0	0	515	626	
3	0	0	0	0	500	626	
4	0	0	0	0	486	626	
5	0	0	0	0	472	627	
6	0	0	0	0	459	626	
7	0	0	0	0	448	627	
8	0	0	0	0	436	627	
9	0	0	0	0	426	626	
10	0	0	0	0	417	625	
11	0	0	0	0	408	626	
12	0	0	0	0	401	626	
13	0	0	0	0	394	626	
14	0	0	0	0	388	626	
15	0	0	0	0	383	626	
0	0	0	0	0	379	626	
1	0	0	0	0	376	625	
2	0	0	0	0	373	626	
3	0	0	0	0	371	626	
4	0	0	0	0	369	625	
5	0	0	0	0	367	625	
6	0	0	0	0	366	626	
7	0	0	0	0	365	626	
8	0	0	0	0	364	625	
9	0	0	0	0	364	625	
10	0	0	0	0	363	625	
11	0	0	0	0	363	625	
12	0	0	0	0	362	625	
13	0	0	0	0	362	624	
14	0	0	0	0	362	624	
15	0	0	0	0	362	625	
0	0	0	0	0	362	624	
1	0	0	0	0	362	624	
2	0	0	0	0	363	625	
3	0	0	0	0	363	624	
4	0	0	0	0	364	624	
5	0	0	0	0	364	624	
6	0	0	0	0	365	624	
7	0	0	0	0	366	624	
8	0	0	0	0	366	624	
9	0	0	0	0	366	623	
10	0	0	0	0	368	624	
11	0	0	0	0	369	624	
12	0	0	0	0	369	623	
13	0	0	0	0	370	623	
14	0	0	0	0	371	623	
15	0	0	0	0	371	623	
0	0	0	0	0	373	623	
1	0	0	0	0	374	623	
2	0	0	0	0	374	623	
3	0	0	0	0	376	624	
4	0	0	0	0	377	623	
5	0	0	0	0	378	623	
6	0	0	0	0	379	623	
7	0	0	0	0	380	623	
8	0	0	0	0	381	623	
9	0	0	0	0	383	623	
10	0	0	0	0	384	623	
11	0	0	0	0	385	623	
12	0	0	0	0	387	623	
13	0	0	0	0	387	622	
14	0	0	0	0	388	622	
15	0	0	0	0	390	622	
0	0	0	0	0	391	622	
1	0	0	0	0	392	621	
2	0	0	0	0	394	621	
3	0	0	0	0	395	621	
4	0	0	0	0	397	621	
5	0	0	0	0	398	620	
6	0	0	0	0	398	620	
7	0	0	0	0	399	620	
8	0	0	0	0	400	620	
9	0	0	0	0	401	619	
10	0	0	0	0	402	620	
11	0	0	0	0	403	620	
12	0	0	0	0	404	619	
13	0	0	0	0	404	620	
14	0	0	0	0	405	619	
15	0	0	0	0	406	620	
0	0	0	0	0	407	619	
1	0	0	0	0	408	619	
2	0	0	0	0	409	619	
3	0	0	0	0	410	619	
4	0	0	0	0	411	620	
5	0	0	0	0	413	619	
6	0	0	0	0	414	619	
7	0	0	0	0	415	620	
8	0	0	0	0	415	620	
9	0	0	0	0	416	620	
10	0	0	0	0	417	620	
11	0	0	0	0	418	620	
12	0	0	0	0	419	620	
13	0	0	0	0	420	620	
14	0	0	0	0	420	620	
15	0	0	0	0	421	620	
0	0	0	0	0	422	620	
1	0	0	0	0	423	620	
2	0	0	0	0	424	620	
3	0	0	0	0	425	620	
4	0	0	0	0	426	620	
5	0	0	0	0	427	620	
6	0	0	0	0	428	620	
7	0	0	0	0	429	621	
8	0	0	0	0	429	621	
9	0	0	0	0	430	622	
10	0	0	0	0	430	622	
11	0	0	0	0	430	623	
12	0	0	0	0	431	623	
13	0	0	0	0	431	623	
14	0	0	0	0	432	623	
15	0	0	0	0	432	623	
0	0	0	0	0	432	623	
1	0	0	0	0	434	622	
2	0	0	0	0	434	622	
3	0	0	0	0	435	623	
4	0	0	0	0	436	622	
5	0	0	0	0	436	621	
6	0	0	0	0	437	621	
7	0	0	0	0	438	621	
8	0	0	0	0	439	620	
9	0	0	0	0	440	620	
10	0	0	0	0	440	620	
11	0	0	0	0	440	620	
12	0	0	0	0	441	620	
13	0	0	0	0	442	620	
14	0	0	0	0	442	619	
15	0	0	0	0	443	620	
0	0	0	0	0	443	620	
1	0	0	0	0	443	620	
2	0	0	0	0	444	620	
3	0	0	0	0	444	620	
4	0	0	0	0	445	620	
5	0	0	0	0	445	620	
6	0	0	0	0	446	621	
7	0	0	0	0	446	621	
8	0	0	0	0	447	622	
9	0	0	0	0	448	621	
10	0	0	0	0	448	622	
11	0	0	0	0	448	623	
12	0	0	0	0	450	622	
13	0	0	0	0	451	622	
14	0	0	0	0	451	622	
15	0	0	0	0	452	622	
0	0	0	0	0	454	622	
1	0	0	0	0	455	622	
2	0	0	0	0	455	621	
3	0	0	0	0	456	622	
4	0	0	0	0	457	622	
5	0	0	0	0	458	621	
6	0	0	0	0	459	621	
7	0	0	0	0	460	621	
8	0	0	0	0	460	621	
9	0	0	0	0	461	622	
10	0	0	0	0	463	622	
11	0	0	0	0	463	622	
12	0	0	0	0	464	622	
13	0	0	0	0	465	622	
14	0	0	0	0	466	622	
15	0	0	0	0	467	622	
0	0	0	0	0	469	622	
1	0	0	0	0	470	622	
2	0	0	0	0	472	622	
3	0	0	0	0	473	623	
4	0	0	0	0	474	622	
5	0	0	0	0	476	623	
6	0	0	0	0	477	623	
7	0	0	0	0	479	624	
8	0	0	0	0	480	624	
9	0	0	0	0	481	624	
10	0	0	0	0	483	624	
11	0	0	0	0	484	624	
12	0	0	0	0	486	624	
13	0	0	0	0	487	624	
14	0	0	0	0	489	624	
15	0	0	0	0	490	624	
0	0	0	0	0	491	624	
1	0	0	0	0	492	624	
2	0	0	0	0	494	625	
3	0	0	0	0	496	624	
4	0	0	0	0	497	624	
5	0	0	0	0	498	624	
6	0	0	0	0	499	624	
7	0	0	0	0	500	624	
8	0	0	0	0	501	624	
9	0	0	0	0	503	623	
10	0	0	0	0	505	624	
11	0	0	0	0	506	624	
12	0	0	0	0	508	624	
13	0	0	0	0	509	624	
14	0	0	0	0	511	623	
15	0	0	0	0	512	623	
0	0	0	0	0	513	623	
1	0	0	0	0	514	623	
2	0	0	0	0	516	624	
3	0	0	0	0	518	623	
4	0	0	0	0	519	623	
5	0	0	0	0	519	623	
6	0	0	0	0	521	623	
7	0	0	0	0	522	623	
8	0	0	0	0	524	623	
9	0	0	0	0	524	623	
10	0	0	0	0	525	622	
11	0	0	0	0	526	623	
12	0	0	0	0	526	623	
13	0	0	0	0	527	623	
14	0	0	0	0	527	622	
15	0	0	0	0	527	623	
0	0	0	0	0	528	622	
1	0	0	0	0	528	623	
2	0	0	0	0	528	623	
3	0	0	0	0	529	623	
4	0	0	0	0	529	623	
5	0	0	0	0	530	623	
6	0	0	0	0	530	622	
7	0	0	0	0	530	623	
8	0	0	0	0	529	623	
9	0	0	0	0	528	622	
10	0	0	0	0	527	622	
11	0	0	0	0	527	623	
12	0	0	0	0	526	622	
13	0	0	0	0	525	623	
14	0	0	0	0	524	623	
15	0	0	0	0	524	623	
0	0	0	0	0	522	623	
1	0	0	0	0	521	623	
2	0	0	0	0	519	623	
3	0	0	0	0	518	623	
4	0	0	0	0	517	623	
5	0	0	0	0	515	623	
6	0	0	0	0	514	623	
7	0	0	0	0	513	624	
8	0	0	0	0	511	623	
9	0	0	0	0	510	624	
10	0	0	0	0	509	624	
11	0	0	0	0	508	624	
12	0	0	0	0	508	624	
13	0	0	0	0	507	624	
14	0	0	0	0	506	624	
15	0	0	0	0	504	624	
0	0	0	0	0	504	624	
1	0	0	0	0	503	624	
2	0	0	0	0	503	624	
3	0	0	0	0	502	624	
4	0	0	0	0	501	624	
5	0	0	0	0	500	624	
6	0	0	0	0	500	624	
7	0	0	0	0	499	624	
8	0	0	0	0	499	625	
9	0	0	0	0	498	625	
10	0	0	0	0	497	625	
11	0	0	0	0	495	626	
12	0	0	0	0	495	626	
13	0	0	0	0	494	626	
14	0	0	0	0	493	626	
15	0	0	0	0	493	627	
0	0	0	0	0	492	626	
1	0	0	0	0	491	626	
2	0	0	0	0	490	626	
3	0	0	0	0	490	627	
4	0	0	0	0	489	626	
5	0	0	0	0	488	626	
6	0	0	0	0	488	627	
7	0	0	0	0	488	627	
8	0	0	0	0	488	627	
9	0	0	0	0	488	626	
10	0	0	0	0	488	627	
11	0	0	0	0	488	627	
12	0	0	0	0	487	627	
13	0	0	0	0	488	627	
14	0	0	0	0	488	627	
15	0	0	0	0	488	627	
0	0	0	0	0	488	627	
1	0	0	0	0	489	627	
2	0	0	0	0	489	627	
3	0	0	0	0	489	628	
4	0	0	0	0	489	627	
5	0	0	0	0	489	627	
6	0	0	0	0	489	627	
7	0	0	0	0	489	628	
8	0	0	0	0	489	627	
9	0	0	0	0	489	628	
10	0	0	0	0	489	628	
11	0	0	0	0	490	628	
12	0	0	0	0	491	628	
13	0	0	0	0	492	628	
14	0	0	0	0	492	628	
15	0	0	0	0	492	628	
0	0	0	0	0	492	628	
1	0	0	0	0	492	627	
2	0	0	0	0	492	628	
3	0	0	0	0	492	628	
4	0	0	0	0	492	628	
5	0	0	0	0	492	628	
6	0	0	0	0	492	628	
7	0	0	0	0	492	628	
8	0	0	0	0	493	627	
9	0	0	0	0	493	627	
10	0	0	0	0	493	627	
11	0	0	0	0	493	628	
12	0	0	0	0	493	627	
13	0	0	0	0	493	627	
14	0	0	0	0	493	627	
15	0	0	0	0	493	627	
0	0	0	0	0	492	628	
1	0	0	0	0	492	627	
2	0	0	0	0	492	628	
3	0	0	0	0	493	627	
4	0	0	0	0	493	627	
5	0	0	0	0	493	627	
6	0	0	0	0	494	627	
7	0	0	0	0	494	627	
8	0	0	0	0	494	626	
9	0	0	0	0	494	627	
10	0	0	0	0	495	626	
11	0	0	0	0	495	626	
12	0	0	0	0	495	625	
13	0	0	0	0	496	625	
14	0	0	0	0	496	625	
15	0	0	0	0	496	625	
0	0	0	0	0	496	625	
1	0	0	0	0	496	625	
2	0	0	0	0	495	625	
3	0	0	0	0	496	626	
4	0	0	0	0	495	625	
5	0	0	0	0	495	626	
6	0	0	0	0	495	625	
7	0	0	0	0	496	626	
8	0	0	0	0	497	626	
9	0	0	0	0	496	626	
10	0	0	0	0	496	626	
11	0	0	0	0	496	626	
12	0	0	0	0	496	626	
13	0	0	0	0	496	625	
14	0	0	0	0	497	626	
15	0	0	0	0	496	625	
0	0	0	0	0	496	625	
1	0	0	0	0	495	625	
2	0	0	0	0	496	625	
3	0	0	0	0	495	626	
4	0	0	0	0	495	625	
5	0	0	0	0	496	625	
6	0	0	0	0	496	625	
7	0	0	0	0	495	625	
8	0	0	0	0	495	624	
9	0	0	0	0	496	625	
10	0	0	0	0	496	624	
11	0	0	0	0	495	624	
12	0	0	0	0	495	624	
13	0	0	0	0	496	624	
14	0	0	0	0	496	624	
15	0	0	0	0	496	624	
0	0	0	0	0	496	624	
1	0	0	0	0	497	624	
2	0	0	0	0	497	623	
3	0	0	0	0	497	623	
4	0	0	0	0	497	623	
5	0	0	0	0	497	623	
6	0	0	0	0	497	623	
7	0	0	0	0	497	623	
8	0	0	0	0	497	623	
9	0	0	0	0	498	623	
10	0	0	0	0	498	622	
11	0	0	0	0	498	623	
12	0	0	0	0	498	622	
13	0	0	0	0	498	622	
14	0	0	0	0	499	622	
15	0	0	0	0	500	623	
0	0	0	0	0	500	623	
1	0	0	0	0	500	623	
2	0	0	0	0	500	622	
3	0	0	0	0	500	623	
4	0	0	0	0	500	622	
5	0	0	0	0	500	623	
6	0	0	0	0	500	622	
7	0	0	0	0	499	622	
8	0	0	0	0	499	622	
9	0	0	0	0	500	622	
10	0	0	0	0	500	621	
11	0	0	0	0	500	622	
12	0	0	0	0	501	622	
13	0	0	0	0	501	622	
14	0	0	0	0	501	622	
15	0	0	0	0	502	622	
0	0	0	0	0	502	622	
1	0	0	0	0	503	622	
2	0	0	0	0	503	622	
3	0	0	0	0	503	622	
4	0	0	0	0	504	621	
5	0	0	0	0	504	622	
6	0	0	0	0	504	621	
7	0	0	0	0	505	622	
8	0	0	0	0	505	622	
9	0	0	0	0	507	622	
10	0	0	0	0	507	622	
11	0	0	0	0	507	623	
12	0	0	0	0	508	622	
13	0	0	0	0	507	622	
14	0	0	0	0	508	622	
15	0	0	0	0	508	623	
0	0	0	0	0	508	622	
1	0	0	0	0	508	622	
2	0	0	0	0	508	622	
3	0	0	0	0	508	623	
4	0	0	0	0	509	623	
5	0	0	0	0	510	623	
6	0	0	0	0	510	624	
7	0	0	0	0	510	624	
8	0	0	0	0	510	624	
9	0	0	0	0	510	624	
10	0	0	0	0	510	624	
11	0	0	0	0	509	624	
12	0	0	0	0	509	624	
13	0	0	0	0	509	624	
14	0	0	0	0	509	624	
15	0	0	0	0	509	624	
0	0	0	0	0	509	624	
1	0	0	0	0	510	624	
2	0	0	0	0	510	624	
3	0	0	0	0	511	624	
4	0	0	0	0	511	624	
5	0	0	0	0	511	624	
6	0	0	0	0	511	624	
7	0	0	0	0	511	623	
8	0	0	0	0	511	624	
9	0	0	0	0	511	623	
10	0	0	0	0	510	623	
11	0	0	0	0	511	624	
12	0	0	0	0	511	624	
13	0	0	0	0	511	623	
14	0	0	0	0	511	624	
15	0	0	0	0	510	624	
0	0	0	0	0	511	624	
1	0	0	0	0	511	624	
2	0	0	0	0	511	624	
3	0	0	0	0	511	624	
4	0	0	0	0	511	624	
5	0	0	0	0	512	624	
6	0	0	0	0	512	624	
7	0	0	0	0	512	625	
8	0	0	0	0	511	625	
9	0	0	0	0	511	625	
10	0	0	0	0	511	625	
11	0	0	0	0	511	626	
12	0	0	0	0	511	626	
13	0	0	0	0	511	625	
14	0	0	0	0	511	625	
15	0	0	0	0	511	626	
0	0	0	0	0	510	626	
1	0	0	0	0	510	626	
2	0	0	0	0	511	626	
3	0	0	0	0	511	627	
4	0	0	0	0	511	626	
5	0	0	0	0	512	627	
6	0	0	0	0	512	627	
7	0	0	0	0	512	627	
8	0	0	0	0	512	627	
9	0	0	0	0	512	626	
10	0	0	0	0	512	626	
11	0	0	0	0	512	627	
12	0	0	0	0	511	627	
13	0	0	0	0	512	627	
14	0	0	0	0	511	627	
15	0	0	0	0	511	627	
0	0	0	0	0	511	627	
1	0	0	0	0	511	628	
2	0	0	0	0	511	627	
3	0	0	0	0	511	628	
4	0	0	0	0	511	627	
5	0	0	0	0	511	627	
6	0	0	0	0	512	627	
7	0	0	0	0	512	627	
8	0	0	0	0	512	627	
9	0	0	0	0	512	628	
10	0	0	0	0	512	627	
11	0	0	0	0	512	627	
12	0	0	0	0	511	627	
13	0	0	0	0	512	626	
14	0	0	0	0	512	627	
15	0	0	0	0	511	626	
0	0	0	0	0	511	626	
1	0	0	0	0	511	626	
2	0	0	0	0	510	626	
3	0	0	0	0	510	625	
4	0	0	0	0	509	625	
5	0	0	0	0	510	625	
6	0	0	0	0	509	625	
7	0	0	0	0	510	625	
8	0	0	0	0	510	625	
9	0	0	0	0	509	625	
10	0	0	0	0	508	624	
11	0	0	0	0	509	625	
12	0	0	0	0	509	625	
13	0	0	0	0	510	624	
14	0	0	0	0	510	624	
15	0	0	0	0	511	624	
0	0	0	0	0	511	624	
1	0	0	0	0	511	624	
2	0	0	0	0	510	624	
3	0	0	0	0	511	625	
4	0	0	0	0	512	624	
5	0	0	0	0	512	624	
6	0	0	0	0	512	624	
7	0	0	0	0	512	623	
8	0	0	0	0	512	624	
9	0	0	0	0	511	624	
10	0	0	0	0	512	624	
11	0	0	0	0	511	624	
12	0	0	0	0	511	623	
13	0	0	0	0	512	624	
14	0	0	0	0	512	624	
15	0	0	0	0	512	623	
0	0	0	0	0	512	623	
1	0	0	0	0	512	623	
2	0	0	0	0	512	623	
3	0	0	0	0	512	624	
4	0	0	0	0	512	623	
5	0	0	0	0	513	622	
6	0	0	0	0	512	622	
7	0	0	0	0	512	622	
8	0	0	0	0	512	623	
9	0	0	0	0	512	622	
10	0	0	0	0	513	622	
11	0	0	0	0	513	622	
12	0	0	0	0	513	622	
13	0	0	0	0	513	622	
14	0	0	0	0	513	622	
15	0	0	0	0	513	622	
0	0	0	0	0	513	622	
1	0	0	0	0	513	621	
2	0	0	0	0	513	622	
3	0	0	0	0	514	622	
4	0	0	0	0	514	621	
5	0	0	0	0	514	621	
6	0	0	0	0	513	621	
7	0	0	0	0	513	621	
8	0	0	0	0	513	620	
9	0	0	0	0	513	620	
10	0	0	0	0	513	621	
11	0	0	0	0	513	622	
12	0	0	0	0	513	621	
13	0	0	0	0	513	621	
14	0	0	0	0	513	622	
15	0	0	0	0	513	622	
0	0	0	0	0	512	622	
1	0	0	0	0	512	622	
2	0	0	0	0	513	622	
3	0	0	0	0	513	623	
4	0	0	0	0	514	623	
5	0	0	0	0	514	622	
6	0	0	0	0	513	622	
7	0	0	0	0	513	622	
8	0	0	0	0	513	622	
9	0	0	0	0	513	622	
10	0	0	0	0	513	622	
11	0	0	0	0	513	622	
12	0	0	0	0	512	622	
13	0	0	0	0	512	622	
14	0	0	0	0	512	622	
15	0	0	0	0	512	623	
0	0	0	0	0	512	623	
1	0	0	0	0	512	622	
2	0	0	0	0	512	622	
3	0	0	0	0	512	622	
4	0	0	0	0	513	622	
5	0	0	0	0	513	622	
6	0	0	0	0	513	622	
7	0	0	0	0	513	622	
8	0	0	0	0	513	622	
9	0	0	0	0	513	622	
10	0	0	0	0	513	622	
11	0	0	0	0	513	623	
12	0	0	0	0	513	622	
13	0	0	0	0	512	623	
14	0	0	0	0	512	623	
15	0	0	0	0	512	624	
0	0	0	0	0	512	624	
1	0	0	0	0	512	623	
2	0	0	0	0	512	623	
3	0	0	0	0	512	625	
4	0	0	0	0	512	624	
5	0	0	0	0	512	624	
6	0	0	0	0	511	625	
7	0	0	0	0	511	625	
8	0	0	0	0	511	625	
9	0	0	0	0	511	625	
10	0	0	0	0	511	626	
11	0	0	0	0	510	626	
12	0	0	0	0	510	625	
13	0	0	0	0	510	625	
14	0	0	0	0	510	626	
15	0	0	0	0	511	625	
0	0	0	0	0	510	625	
1	0	0	0	0	510	625	
2	0	0	0	0	510	625	
3	0	0	0	0	510	625	
4	0	0	0	0	510	626	
5	0	0	0	0	510	625	
6	0	0	0	0	510	625	
7	0	0	0	0	509	625	
8	0	0	0	0	509	625	
9	0	0	0	0	509	625	
10	0	0	0	0	509	624	
11	0	0	0	0	509	625	
12	0	0	0	0	510	625	
13	0	0	0	0	510	625	
14	0	0	0	0	510	624	
15	0	0	0	0	510	625	
0	0	0	0	0	510	625	
1	0	0	0	0	510	624	
2	0	0	0	0	510	624	
3	0	0	0	0	511	625	
4	0	0	0	0	511	625	
5	0	0	0	0	511	624	
6	0	0	0	0	510	624	
7	0	0	0	0	511	624	
8	0	0	0	0	511	624	
9	0	0	0	0	511	624	
10	0	0	0	0	510	624	
11	0	0	0	0	510	624	
12	0	0	0	0	511	624	
13	0	0	0	0	511	624	
14	0	0	0	0	510	624	
15	0	0	0	0	510	624	
0	0	0	0	0	510	624	
1	0	0	0	0	510	624	
2	0	0	0	0	509	624	
3	0	0	0	0	509	625	
4	0	0	0	0	509	624	
5	0	0	0	0	509	624	
6	0	0	0	0	510	624	
7	0	0	0	0	510	625	
8	0	0	0	0	509	624	
9	0	0	0	0	508	624	
10	0	0	0	0	508	624	
11	0	0	0	0	509	625	
12	0	0	0	0	508	625	
13	0	0	0	0	508	625	
14	0	0	0	0	509	626	
15	0	0	0	0	510	626	
0	0	0	0	0	510	625	
1	0	0	0	0	510	625	
2	0	0	0	0	510	626	
3	0	0	0	0	510	627	
4	0	0	0	0	510	627	
5	0	0	0	0	510	626	
6	0	0	0	0	511	627	
7	0	0	0	0	511	627	
8	0	0	0	0	511	627	
9	0	0	0	0	511	626	
10	0	0	0	0	511	627	
11	0	0	0	0	511	627	
12	0	0	0	0	511	627	
13	0	0	0	0	512	627	
14	0	0	0	0	512	627	
15	0	0	0	0	511	627	
0	0	0	0	0	512	627	
1	0	0	0	0	512	626	
2	0	0	0	0	512	626	
3	0	0	0	0	511	626	
4	0	0	0	0	511	625	
5	0	0	0	0	512	625	
6	0	0	0	0	511	624	
7	0	0	0	0	511	624	
8	0	0	0	0	511	624	
9	0	0	0	0	511	623	
10	0	0	0	0	512	623	
11	0	0	0	0	512	623	
12	0	0	0	0	511	622	
13	0	0	0	0	511	621	
14	0	0	0	0	511	620	
15	0	0	0	0	511	621	
0	0	0	0	0	511	620	
1	0	0	0	0	511	620	
2	0	0	0	0	512	620	
3	0	0	0	0	512	620	
4	0	0	0	0	512	619	
5	0	0	0	0	512	620	
6	0	0	0	0	512	620	
7	0	0	0	0	512	620	
8	0	0	0	0	512	621	
9	0	0	0	0	512	621	
10	0	0	0	0	512	621	
11	0	0	0	0	512	622	
12	0	0	0	0	513	623	
13	0	0	0	0	512	623	
14	0	0	0	0	512	622	
15	0	0	0	0	512	623	
0	0	0	0	0	512	622	
1	0	0	0	0	513	622	
2	0	0	0	0	513	622	
3	0	0	0	0	512	623	
4	0	0	0	0	512	622	
5	0	0	0	0	512	622	
6	0	0	0	0	511	621	
7	0	0	0	0	511	622	
8	0	0	0	0	511	622	
9	0	0	0	0	510	621	
10	0	0	0	0	510	622	
11	0	0	0	0	510	622	
12	0	0	0	0	510	621	
13	0	0	0	0	510	621	
14	0	0	0	0	510	621	
15	0	0	0	0	510	622	
0	0	0	0	0	509	622	
1	0	0	0	0	509	621	
2	0	0	0	0	509	622	
3	0	0	0	0	509	622	
4	0	0	0	0	509	622	
5	0	0	0	0	509	622	
6	0	0	0	0	509	622	
7	0	0	0	0	508	622	
8	0	0	0	0	508	622	
9	0	0	0	0	508	622	
10	0	0	0	0	508	622	
11	0	0	0	0	508	622	
12	0	0	0	0	507	622	
13	0	0	0	0	507	621	
14	0	0	0	0	508	622	
15	0	0	0	0	508	621	
0	0	0	0	0	507	622	
1	0	0	0	0	507	621	
2	0	0	0	0	506	621	
3	0	0	0	0	505	622	
4	0	0	0	0	505	621	
5	0	0	0	0	505	621	
6	0	0	0	0	504	621	
7	0	0	0	0	504	621	
8	0	0	0	0	504	622	
9	0	0	0	0	505	622	
10	0	0	0	0	505	622	
11	0	0	0	0	505	622	
12	0	0	0	0	504	622	
13	0	0	0	0	504	623	
14	0	0	0	0	504	622	
15	0	0	0	0	504	623	
0	0	0	0	0	504	624	
1	0	0	0	0	503	624	
2	0	0	0	0	503	624	
3	0	0	0	0	503	624	
4	0	0	0	0	502	624	
5	0	0	0	0	503	624	
6	0	0	0	0	503	624	
7	0	0	0	0	503	625	
8	0	0	0	0	503	625	
9	0	0	0	0	503	625	
10	0	0	0	0	503	625	
11	0	0	0	0	503	627	
12	0	0	0	0	503	626	
13	0	0	0	0	503	626	
14	0	0	0	0	502	627	
15	0	0	0	0	502	626	
0	0	0	0	0	503	626	
1	0	0	0	0	503	627	
2	0	0	0	0	504	626	
3	0	0	0	0	504	627	
4	0	0	0	0	504	627	
5	0	0	0	0	504	626	
6	0	0	0	0	505	627	
7	0	0	0	0	506	626	
8	0	0	0	0	507	626	
9	0	0	0	0	507	626	
10	0	0	0	0	508	626	
11	0	0	0	0	507	626	
12	0	0	0	0	508	626	
13	0	0	0	0	508	626	
14	0	0	0	0	508	625	
15	0	0	0	0	508	626	
0	0	0	0	0	508	625	
1	0	0	0	0	507	625	
2	0	0	0	0	507	625	
3	0	0	0	0	507	625	
4	0	0	0	0	507	624	
5	0	0	0	0	508	624	
6	0	0	0	0	509	624	
7	0	0	0	0	509	624	
8	0	0	0	0	511	624	
9	0	0	0	0	511	624	
10	0	0	0	0	512	624	
11	0	0	0	0	512	625	
12	0	0	0	0	513	624	
13	0	0	0	0	513	624	
14	0	0	0	0	514	624	
15	0	0	0	0	514	624	
0	0	0	0	0	514	624	
1	0	0	0	0	515	624	
2	0	0	0	0	516	624	
3	0	0	0	0	517	624	
4	0	0	0	0	518	624	
5	0	0	0	0	518	624	
6	0	0	0	0	519	624	
7	0	0	0	0	519	625	
8	0	0	0	0	519	625	
9	0	0	0	0	519	626	
10	0	0	0	0	518	626	
11	0	0	0	0	518	626	
12	0	0	0	0	518	626	
13	0	0	0	0	517	625	
14	0	0	0	0	516	626	
15	0	0	0	0	516	627	
0	0	0	0	0	516	627	
1	0	0	0	0	515	626	
2	0	0	0	0	514	626	
3	0	0	0	0	515	627	
4	0	0	0	0	515	627	
5	0	0	0	0	515	627	
6	0	0	0	0	514	627	
7	0	0	0	0	514	628	
8	0	0	0	0	514	628	
9	0	0	0	0	513	628	
10	0	0	0	0	513	628	
11	0	0	0	0	511	629	
12	0	0	0	0	511	629	
13	0	0	0	0	510	629	
14	0	0	0	0	509	630	
15	0	0	0	0	509	630	
0	0	0	0	0	508	629	
1	0	0	0	0	508	629	
2	0	0	0	0	508	629	
3	0	0	0	0	508	629	
4	0	0	0	0	508	629	
5	0	0	0	0	508	629	
6	0	0	0	0	508	628	
7	0	0	0	0	508	628	
8	0	0	0	0	508	628	
9	0	0	0	0	507	628	
10	0	0	0	0	507	628	
11	0	0	0	0	506	627	
12	0	0	0	0	506	627	
13	0	0	0	0	506	627	
14	0	0	0	0	506	627	
15	0	0	0	0	506	626	
0	0	0	0	0	506	626	
1	0	0	0	0	506	626	
2	0	0	0	0	506	625	
3	0	0	0	0	507	626	
4	0	0	0	0	506	625	
5	0	0	0	0	506	625	
6	0	0	0	0	506	624	
7	0	0	0	0	506	624	
8	0	0	0	0	506	625	
9	0	0	0	0	506	624	
10	0	0	0	0	506	624	
11	0	0	0	0	506	624	
12	0	0	0	0	506	624	
13	0	0	0	0	506	624	
14	0	0	0	0	506	624	
15	0	0	0	0	506	623	
0	0	0	0	0	507	624	
1	0	0	0	0	507	624	
2	0	0	0	0	507	623	
3	0	0	0	0	506	623	
4	0	0	0	0	506	623	
5	0	0	0	0	506	623	
6	0	0	0	0	506	623	
7	0	0	0	0	507	623	
8	0	0	0	0	506	623	
9	0	0	0	0	505	622	
10	0	0	0	0	505	622	
11	0	0	0	0	504	622	
12	0	0	0	0	503	621	
13	0	0	0	0	503	622	
14	0	0	0	0	503	622	
15	0	0	0	0	503	622	
0	0	0	0	0	503	620	
1	0	0	0	0	503	620	
2	0	0	0	0	503	620	
3	0	0	0	0	503	620	
4	0	0	0	0	504	620	
5	0	0	0	0	503	620	
6	0	0	0	0	504	620	
7	0	0	0	0	503	620	
8	0	0	0	0	503	620	
9	0	0	0	0	502	620	
10	0	0	0	0	500	620	
11	0	0	0	0	499	620	
12	0	0	0	0	496	620	
13	0	0	0	0	492	619	
14	0	0	0	0	488	620	
15	0	0	0	0	483	620	
0	0	0	0	0	476	620	
1	0	0	0	0	467	620	
2	0	0	0	0	457	619	
3	0	0	0	0	448	619	
4	0	0	0	0	436	619	
5	0	0	0	0	423	619	
6	0	0	0	0	410	619	
7	0	0	0	0	397	620	
8	0	0	0	0	384	619	
9	0	0	0	0	372	619	
10	0	0	0	0	360	619	
11	0	0	0	0	350	619	
12	0	0	0	0	342	619	
13	0	0	0	0	337	619	
14	0	0	0	0	336	619	
15	0	0	0	0	341	619	
0	0	0	0	0	351	619	
1	0	0	0	0	366	620	
2	0	0	0	0	385	620	
3	0	0	0	0	410	621	
4	0	0	0	0	438	621	
5	0	0	0	0	469	621	
6	0	0	0	0	504	621	
7	0	0	0	0	543	622	
8	0	0	0	0	587	622	
9	0	0	0	0	636	622	
10	0	0	0	0	689	623	
11	0	0	0	0	743	622	
12	0	0	0	0	797	623	
13	0	0	0	0	849	623	
14	0	0	0	0	902	623	
15	0	0	0	0	953	623	
0	0	0	0	0	996	623	
1	0	0	0	0	1022	622	
2	0	0	0	0	1022	622	
3	0	0	0	0	1022	622	
4	0	0	0	0	1022	620	
5	0	0	0	0	1022	621	
6	0	0	0	0	1022	620	
7	0	0	0	0	1022	620	
8	0	0	0	0	1022	619	
9	0	0	0	0	1022	619	
10	0	0	0	0	1022	620	
11	0	0	0	0	1022	620	
12	0	0	0	0	1005	620	
13	0	0	0	0	979	620	
14	0	0	0	0	955	622	
15	0	0	0	0	931	622	
0	0	0	0	0	908	623	
1	0	0	0	0	883	624	
2	0	0	0	0	859	624	
3	0	0	0	0	833	625	
4	0	0	0	0	807	624	
5	0	0	0	0	780	624	
6	0	0	0	0	755	625	
7	0	0	0	0	729	626	
8	0	0	0	0	705	626	
9	0	0	0	0	681	626	
10	0	0	0	0	656	626	
11	0	0	0	0	634	627	
12	0	0	0	0	612	627	
13	0	0	0	0	591	627	
14	0	0	0	0	570	627	
15	0	0	0	0	551	627	
0	0	0	0	0	533	627	
1	0	0	0	0	516	627	
2	0	0	0	0	501	627	
3	0	0	0	0	487	627	
4	0	0	0	0	474	628	
5	0	0	0	0	462	627	
6	0	0	0	0	451	627	
7	0	0	0	0	441	627	
8	0	0	0	0	432	627	
9	0	0	0	0	423	628	
10	0	0	0	0	415	627	
11	0	0	0	0	408	628	
12	0	0	0	0	401	628	
13	0	0	0	0	396	628	
14	0	0	0	0	391	628	
15	0	0	0	0	387	628	
0	0	0	0	0	384	628	
1	0	0	0	0	382	629	
2	0	0	0	0	380	628	
3	0	0	0	0	378	628	
4	0	0	0	0	376	628	
5	0	0	0	0	375	629	
6	0	0	0	0	374	628	
7	0	0	0	0	373	629	
8	0	0	0	0	373	628	
9	0	0	0	0	373	628	
10	0	0	0	0	373	629	
11	0	0	0	0	373	629	
12	0	0	0	0	373	627	
13	0	0	0	0	374	627	
14	0	0	0	0	374	627	
15	0	0	0	0	374	627	
0	0	0	0	0	374	626	
1	0	0	0	0	374	626	
2	0	0	0	0	375	627	
3	0	0	0	0	376	627	
4	0	0	0	0	375	626	
5	0	0	0	0	376	626	
6	0	0	0	0	377	626	
7	0	0	0	0	378	626	
8	0	0	0	0	379	625	
9	0	0	0	0	379	625	
10	0	0	0	0	380	625	
11	0	0	0	0	381	626	
12	0	0	0	0	382	625	
13	0	0	0	0	383	624	
14	0	0	0	0	384	625	
15	0	0	0	0	385	625	
0	0	0	0	0	385	624	
1	0	0	0	0	386	624	
2	0	0	0	0	387	624	
3	0	0	0	0	388	624	
4	0	0	0	0	389	623	
5	0	0	0	0	390	623	
6	0	0	0	0	391	623	
7	0	0	0	0	391	623	
8	0	0	0	0	392	624	
9	0	0	0	0	393	623	
10	0	0	0	0	394	623	
11	0	0	0	0	395	624	
12	0	0	0	0	396	623	
13	0	0	0	0	397	624	
14	0	0	0	0	399	624	
15	0	0	0	0	400	623	
0	0	0	0	0	401	624	
1	0	0	0	0	402	623	
2	0	0	0	0	402	623	
3	0	0	0	0	403	624	
4	0	0	0	0	404	623	
5	0	0	0	0	405	623	
6	0	0	0	0	406	623	
7	0	0	0	0	408	623	
8	0	0	0	0	409	622	
9	0	0	0	0	410	622	
10	0	0	0	0	410	622	
11	0	0	0	0	412	623	
12	0	0	0	0	412	623	
13	0	0	0	0	412	622	
14	0	0	0	0	413	623	
15	0	0	0	0	414	622	
0	0	0	0	0	415	622	
1	0	0	0	0	416	622	
2	0	0	0	0	416	623	
3	0	0	0	0	417	623	
4	0	0	0	0	418	623	
5	0	0	0	0	419	622	
6	0	0	0	0	421	623	
7	0	0	0	0	422	623	
8	0	0	0	0	423	622	
9	0	0	0	0	423	622	
10	0	0	0	0	424	622	
11	0	0	0	0	424	622	
12	0	0	0	0	425	622	
13	0	0	0	0	425	622	
14	0	0	0	0	426	622	
15	0	0	0	0	427	623	
0	0	0	0	0	429	623	
1	0	0	0	0	430	623	
2	0	0	0	0	431	624	
3	0	0	0	0	432	624	
4	0	0	0	0	433	623	
5	0	0	0	0	434	624	
6	0	0	0	0	434	624	
7	0	0	0	0	435	625	
8	0	0	0	0	436	624	
9	0	0	0	0	437	625	
10	0	0	0	0	437	624	
11	0	0	0	0	438	625	
12	0	0	0	0	439	625	
13	0	0	0	0	439	626	
14	0	0	0	0	440	626	
15	0	0	0	0	441	626	
0	0	0	0	0	441	626	
1	0	0	0	0	442	626	
2	0	0	0	0	442	625	
3	0	0	0	0	443	626	
4	0	0	0	0	443	626	
5	0	0	0	0	443	625	
6	0	0	0	0	444	626	
7	0	0	0	0	444	626	
8	0	0	0	0	444	625	
9	0	0	0	0	444	625	
10	0	0	0	0	444	625	
11	0	0	0	0	445	626	
12	0	0	0	0	445	625	
13	0	0	0	0	446	626	
14	0	0	0	0	447	625	
15	0	0	0	0	447	624	
0	0	0	0	0	448	625	
1	0	0	0	0	449	624	
2	0	0	0	0	449	624	
3	0	0	0	0	450	625	
4	0	0	0	0	451	625	
5	0	0	0	0	451	625	
6	0	0	0	0	452	625	
7	0	0	0	0	452	625	
8	0	0	0	0	453	625	
9	0	0	0	0	453	625	
10	0	0	0	0	453	625	
11	0	0	0	0	454	625	
12	0	0	0	0	455	625	
13	0	0	0	0	456	625	
14	0	0	0	0	456	626	
15	0	0	0	0	456	626	
0	0	0	0	0	458	626	
1	0	0	0	0	458	626	
2	0	0	0	0	459	626	
3	0	0	0	0	460	627	
4	0	0	0	0	460	626	
5	0	0	0	0	461	625	
6	0	0	0	0	462	626	
7	0	0	0	0	463	626	
8	0	0	0	0	463	626	
9	0	0	0	0	465	626	
10	0	0	0	0	466	625	
11	0	0	0	0	467	626	
12	0	0	0	0	467	625	
13	0	0	0	0	468	625	
14	0	0	0	0	469	625	
15	0	0	0	0	470	626	
0	0	0	0	0	471	625	
1	0	0	0	0	472	626	
2	0	0	0	0	472	626	
3	0	0	0	0	474	626	
4	0	0	0	0	474	625	
5	0	0	0	0	476	625	
6	0	0	0	0	477	625	
7	0	0	0	0	479	625	
8	0	0	0	0	481	625	
9	0	0	0	0	482	625	
10	0	0	0	0	484	624	
11	0	0	0	0	485	626	
12	0	0	0	0	486	625	
13	0	0	0	0	487	625	
14	0	0	0	0	489	625	
15	0	0	0	0	492	624	
0	0	0	0	0	493	624	
1	0	0	0	0	494	625	
2	0	0	0	0	495	625	
3	0	0	0	0	497	624	
4	0	0	0	0	498	624	
5	0	0	0	0	499	624	
6	0	0	0	0	500	624	
7	0	0	0	0	500	624	
8	0	0	0	0	502	623	
9	0	0	0	0	503	623	
10	0	0	0	0	504	623	
11	0	0	0	0	506	623	
12	0	0	0	0	507	623	
13	0	0	0	0	508	622	
14	0	0	0	0	509	623	
15	0	0	0	0	510	622	
0	0	0	0	0	511	623	
1	0	0	0	0	511	622	
2	0	0	0	0	513	622	
3	0	0	0	0	514	622	
4	0	0	0	0	515	622	
5	0	0	0	0	516	622	
6	0	0	0	0	517	623	
7	0	0	0	0	518	623	
8	0	0	0	0	519	623	
9	0	0	0	0	520	623	
10	0	0	0	0	522	623	
11	0	0	0	0	523	623	
12	0	0	0	0	524	623	
13	0	0	0	0	526	623	
14	0	0	0	0	526	623	
15	0	0	0	0	527	623	
0	0	0	0	0	528	623	
1	0	0	0	0	529	624	
2	0	0	0	0	529	624	
3	0	0	0	0	530	624	
4	0	0	0	0	529	624	
5	0	0	0	0	530	624	
6	0	0	0	0	530	624	
7	0	0	0	0	530	624	
8	0	0	0	0	530	624	
9	0	0	0	0	529	624	
10	0	0	0	0	529	624	
11	0	0	0	0	528	624	
12	0	0	0	0	527	624	
13	0	0	0	0	526	624	
14	0	0	0	0	525	624	
15	0	0	0	0	525	624	
0	0	0	0	0	525	624	
1	0	0	0	0	524	624	
2	0	0	0	0	523	624	
3	0	0	0	0	522	624	
4	0	0	0	0	521	624	
5	0	0	0	0	521	624	
6	0	0	0	0	520	624	
7	0	0	0	0	519	624	
8	0	0	0	0	518	624	
9	0	0	0	0	517	624	
10	0	0	0	0	517	624	
11	0	0	0	0	516	624	
12	0	0	0	0	515	624	
13	0	0	0	0	515	624	
14	0	0	0	0	514	624	
15	0	0	0	0	513	624	
0	0	0	0	0	512	624	
1	0	0	0	0	512	624	
2	0	0	0	0	512	624	
3	0	0	0	0	511	624	
4	0	0	0	0	510	624	
5	0	0	0	0	510	625	
6	0	0	0	0	508	624	
7	0	0	0	0	508	624	
8	0	0	0	0	508	624	
9	0	0	0	0	507	624	
10	0	0	0	0	507	624	
11	0	0	0	0	506	625	
12	0	0	0	0	505	624	
13	0	0	0	0	504	624	
14	0	0	0	0	504	625	
15	0	0	0	0	503	624	
0	0	0	0	0	503	624	
1	0	0	0	0	502	624	
2	0	0	0	0	502	624	
3	0	0	0	0	500	625	
4	0	0	0	0	500	624	
5	0	0	0	0	500	624	
6	0	0	0	0	500	624	
7	0	0	0	0	500	625	
8	0	0	0	0	500	625	
9	0	0	0	0	500	624	
10	0	0	0	0	500	624	
11	0	0	0	0	499	625	
12	0	0	0	0	499	625	
13	0	0	0	0	499	624	
14	0	0	0	0	498	624	
15	0	0	0	0	498	624	
0	0	0	0	0	497	624	
1	0	0	0	0	497	624	
2	0	0	0	0	498	624	
3	0	0	0	0	497	625	
4	0	0	0	0	497	624	
5	0	0	0	0	497	624	
6	0	0	0	0	497	624	
7	0	0	0	0	497	625	
8	0	0	0	0	496	624	
9	0	0	0	0	497	624	
10	0	0	0	0	497	624	
11	0	0	0	0	497	625	
12	0	0	0	0	496	624	
13	0	0	0	0	496	625	
14	0	0	0	0	496	624	
15	0	0	0	0	497	625	
0	0	0	0	0	497	625	
1	0	0	0	0	498	625	
2	0	0	0	0	497	626	
3	0	0	0	0	497	625	
4	0	0	0	0	497	625	
5	0	0	0	0	497	625	
6	0	0	0	0	498	625	
7	0	0	0	0	498	626	
8	0	0	0	0	498	625	
9	0	0	0	0	498	625	
10	0	0	0	0	498	625	
11	0	0	0	0	499	625	
12	0	0	0	0	499	625	
13	0	0	0	0	499	625	
14	0	0	0	0	500	625	
15	0	0	0	0	499	624	
0	0	0	0	0	500	625	
1	0	0	0	0	501	625	
2	0	0	0	0	502	625	
3	0	0	0	0	502	625	
4	0	0	0	0	501	625	
5	0	0	0	0	502	624	
6	0	0	0	0	501	624	
7	0	0	0	0	501	624	
8	0	0	0	0	501	624	
9	0	0	0	0	501	624	
10	0	0	0	0	501	625	
11	0	0	0	0	501	625	
12	0	0	0	0	501	624	
13	0	0	0	0	501	624	
14	0	0	0	0	500	624	
15	0	0	0	0	501	624	
0	0	0	0	0	501	624	
1	0	0	0	0	500	624	
2	0	0	0	0	500	624	
3	0	0	0	0	499	625	
4	0	0	0	0	499	624	
5	0	0	0	0	499	624	
6	0	0	0	0	499	624	
7	0	0	0	0	499	624	
8	0	0	0	0	499	624	
9	0	0	0	0	499	624	
10	0	0	0	0	499	625	
11	0	0	0	0	500	625	
12	0	0	0	0	500	624	
13	0	0	0	0	499	624	
14	0	0	0	0	499	624	
15	0	0	0	0	499	624	
0	0	0	0	0	499	624	
1	0	0	0	0	500	624	
2	0	0	0	0	500	624	
3	0	0	0	0	500	624	
4	0	0	0	0	500	624	
5	0	0	0	0	500	624	
6	0	0	0	0	500	624	
7	0	0	0	0	500	624	
8	0	0	0	0	501	624	
9	0	0	0	0	501	624	
10	0	0	0	0	500	624	
11	0	0	0	0	500	624	
12	0	0	0	0	500	624	
13	0	0	0	0	500	625	
14	0	0	0	0	500	624	
15	0	0	0	0	500	624	
0	0	0	0	0	500	625	
1	0	0	0	0	499	624	
2	0	0	0	0	499	624	
3	0	0	0	0	498	625	
4	0	0	0	0	498	624	
5	0	0	0	0	498	624	
6	0	0	0	0	498	624	
7	0	0	0	0	499	624	
8	0	0	0	0	498	623	
9	0	0	0	0	499	624	
10	0	0	0	0	499	623	
11	0	0	0	0	499	624	
12	0	0	0	0	499	623	
13	0	0	0	0	499	623	
14	0	0	0	0	499	623	
15	0	0	0	0	499	624	
0	0	0	0	0	499	623	
1	0	0	0	0	499	623	
2	0	0	0	0	499	623	
3	0	0	0	0	500	624	
4	0	0	0	0	500	624	
5	0	0	0	0	500	623	
6	0	0	0	0	501	623	
7	0	0	0	0	501	624	
8	0	0	0	0	501	624	
9	0	0	0	0	501	624	
10	0	0	0	0	501	624	
11	0	0	0	0	501	624	
12	0	0	0	0	501	624	
13	0	0	0	0	501	624	
14	0	0	0	0	501	625	
15	0	0	0	0	501	624	
0	0	0	0	0	502	624	
1	0	0	0	0	502	624	
2	0	0	0	0	502	624	
3	0	0	0	0	502	624	
4	0	0	0	0	502	624	
5	0	0	0	0	502	624	
6	0	0	0	0	503	623	
7	0	0	0	0	503	624	
8	0	0	0	0	503	624	
9	0	0	0	0	503	624	
10	0	0	0	0	504	624	
11	0	0	0	0	504	624	
12	0	0	0	0	504	624	
13	0	0	0	0	504	624	
14	0	0	0	0	504	624	
15	0	0	0	0	504	624	
0	0	0	0	0	504	623	
1	0	0	0	0	503	623	
2	0	0	0	0	504	623	
3	0	0	0	0	504	624	
4	0	0	0	0	504	623	
5	0	0	0	0	504	623	
6	0	0	0	0	504	623	
7	0	0	0	0	505	624	
8	0	0	0	0	505	623	
9	0	0	0	0	505	623	
10	0	0	0	0	505	623	
11	0	0	0	0	505	624	
12	0	0	0	0	504	624	
13	0	0	0	0	504	624	
14	0	0	0	0	504	623	
15	0	0	0	0	504	624	
0	0	0	0	0	504	624	
1	0	0	0	0	505	624	
2	0	0	0	0	504	623	
3	0	0	0	0	505	624	
4	0	0	0	0	506	624	
5	0	0	0	0	506	624	
6	0	0	0	0	507	624	
7	0	0	0	0	507	625	
8	0	0	0	0	508	624	
9	0	0	0	0	508	625	
10	0	0	0	0	508	625	
11	0	0	0	0	508	625	
12	0	0	0	0	508	624	
13	0	0	0	0	508	625	
14	0	0	0	0	508	625	
15	0	0	0	0	508	625	
0	0	0	0	0	508	624	
1	0	0	0	0	508	624	
2	0	0	0	0	508	624	
3	0	0	0	0	508	625	
4	0	0	0	0	508	624	
5	0	0	0	0	508	624	
6	0	0	0	0	508	624	
7	0	0	0	0	508	625	
8	0	0	0	0	508	624	
9	0	0	0	0	508	624	
10	0	0	0	0	508	624	
11	0	0	0	0	508	624	
12	0	0	0	0	509	624	
13	0	0	0	0	508	624	
14	0	0	0	0	508	624	
15	0	0	0	0	508	624	
0	0	0	0	0	507	624	
1	0	0	0	0	508	623	
2	0	0	0	0	508	624	
3	0	0	0	0	508	625	
4	0	0	0	0	508	624	
5	0	0	0	0	508	624	
6	0	0	0	0	508	624	
7	0	0	0	0	507	623	
8	0	0	0	0	507	623	
9	0	0	0	0	507	623	
10	0	0	0	0	507	623	
11	0	0	0	0	506	623	
12	0	0	0	0	506	623	
13	0	0	0	0	507	623	
14	0	0	0	0	507	623	
15	0	0	0	0	508	623	
0	0	0	0	0	508	623	
1	0	0	0	0	508	623	
2	0	0	0	0	508	622	
3	0	0	0	0	508	623	
4	0	0	0	0	508	622	
5	0	0	0	0	508	622	
6	0	0	0	0	508	622	
7	0	0	0	0	508	623	
8	0	0	0	0	508	622	
9	0	0	0	0	508	623	
10	0	0	0	0	508	623	
11	0	0	0	0	508	623	
12	0	0	0	0	508	622	
13	0	0	0	0	508	623	
14	0	0	0	0	508	623	
15	0	0	0	0	509	623	
0	0	0	0	0	509	622	
1	0	0	0	0	509	622	
2	0	0	0	0	509	622	
3	0	0	0	0	509	624	
4	0	0	0	0	508	623	
5	0	0	0	0	508	623	
6	0	0	0	0	509	622	
7	0	0	0	0	508	623	
8	0	0	0	0	509	622	
9	0	0	0	0	508	623	
10	0	0	0	0	508	624	
11	0	0	0	0	509	624	
12	0	0	0	0	508	623	
13	0	0	0	0	508	624	
14	0	0	0	0	509	624	
15	0	0	0	0	509	624	
0	0	0	0	0	509	624	
1	0	0	0	0	508	624	
2	0	0	0	0	508	624	
3	0	0	0	0	508	625	
4	0	0	0	0	508	624	
5	0	0	0	0	508	624	
6	0	0	0	0	509	624	
7	0	0	0	0	510	624	
8	0	0	0	0	510	624	
9	0	0	0	0	510	624	
10	0	0	0	0	511	624	
11	0	0	0	0	510	625	
12	0	0	0	0	511	625	
13	0	0	0	0	511	625	
14	0	0	0	0	512	625	
15	0	0	0	0	512	625	
0	0	0	0	0	512	624	
1	0	0	0	0	512	625	
2	0	0	0	0	511	625	
3	0	0	0	0	511	625	
4	0	0	0	0	510	625	
5	0	0	0	0	510	625	
6	0	0	0	0	509	625	
7	0	0	0	0	508	625	
8	0	0	0	0	508	625	
9	0	0	0	0	508	625	
10	0	0	0	0	508	625	
11	0	0	0	0	508	626	
12	0	0	0	0	510	625	
13	0	0	0	0	510	625	
14	0	0	0	0	510	626	
15	0	0	0	0	510	626	
0	0	0	0	0	510	625	
1	0	0	0	0	510	626	
2	0	0	0	0	510	625	
3	0	0	0	0	510	626	
4	0	0	0	0	510	625	
5	0	0	0	0	509	625	
6	0	0	0	0	510	626	
7	0	0	0	0	510	626	
8	0	0	0	0	510	626	
9	0	0	0	0	510	626	
10	0	0	0	0	510	626	
11	0	0	0	0	510	627	
12	0	0	0	0	509	626	
13	0	0	0	0	509	627	
14	0	0	0	0	509	627	
15	0	0	0	0	510	627	
0	0	0	0	0	510	627	
1	0	0	0	0	510	626	
2	0	0	0	0	510	625	
3	0	0	0	0	510	626	
4	0	0	0	0	510	626	
5	0	0	0	0	510	625	
6	0	0	0	0	510	625	
7	0	0	0	0	511	626	
8	0	0	0	0	511	626	
9	0	0	0	0	511	625	
10	0	0	0	0	511	626	
11	0	0	0	0	511	626	
12	0	0	0	0	512	625	
13	0	0	0	0	512	625	
14	0	0	0	0	511	625	
15	0	0	0	0	511	626	
0	0	0	0	0	511	625	
1	0	0	0	0	511	625	
2	0	0	0	0	512	624	
3	0	0	0	0	511	625	
4	0	0	0	0	511	624	
5	0	0	0	0	511	625	
6	0	0	0	0	512	624	
7	0	0	0	0	512	624	
8	0	0	0	0	512	624	
9	0	0	0	0	512	624	
10	0	0	0	0	512	624	
11	0	0	0	0	513	624	
12	0	0	0	0	513	624	
13	0	0	0	0	512	623	
14	0	0	0	0	513	623	
15	0	0	0	0	513	624	
0	0	0	0	0	513	623	
1	0	0	0	0	513	623	
2	0	0	0	0	513	623	
3	0	0	0	0	513	623	
4	0	0	0	0	513	624	
5	0	0	0	0	513	623	
6	0	0	0	0	512	623	
7	0	0	0	0	512	623	
8	0	0	0	0	513	623	
9	0	0	0	0	513	623	
10	0	0	0	0	512	622	
11	0	0	0	0	512	623	
12	0	0	0	0	511	622	
13	0	0	0	0	511	623	
14	0	0	0	0	511	623	
15	0	0	0	0	511	623	
0	0	0	0	0	511	623	
1	0	0	0	0	510	623	
2	0	0	0	0	512	623	
3	0	0	0	0	512	623	
4	0	0	0	0	512	623	
5	0	0	0	0	512	623	
6	0	0	0	0	512	623	
7	0	0	0	0	513	624	
8	0	0	0	0	513	623	
9	0	0	0	0	513	623	
10	0	0	0	0	512	623	
11	0	0	0	0	512	624	
12	0	0	0	0	512	624	
13	0	0	0	0	511	624	
14	0	0	0	0	512	624	
15	0	0	0	0	512	624	
0	0	0	0	0	512	624	
1	0	0	0	0	512	624	
2	0	0	0	0	512	624	
3	0	0	0	0	512	625	
4	0	0	0	0	511	624	
5	0	0	0	0	511	625	
6	0	0	0	0	512	625	
7	0	0	0	0	512	625	
8	0	0	0	0	512	625	
9	0	0	0	0	512	625	
10	0	0	0	0	512	625	
11	0	0	0	0	512	626	
12	0	0	0	0	512	625	
13	0	0	0	0	511	626	
14	0	0	0	0	511	625	
15	0	0	0	0	511	625	
0	0	0	0	0	511	625	
1	0	0	0	0	511	625	
2	0	0	0	0	511	625	
3	0	0	0	0	511	625	
4	0	0	0	0	512	625	
5	0	0	0	0	512	625	
6	0	0	0	0	512	625	
7	0	0	0	0	512	625	
8	0	0	0	0	512	624	
9	0	0	0	0	511	624	
10	0	0	0	0	511	625	
11	0	0	0	0	511	625	
12	0	0	0	0	511	625	
13	0	0	0	0	511	625	
14	0	0	0	0	511	625	
15	0	0	0	0	511	625	
0	0	0	0	0	511	625	
1	0	0	0	0	511	625	
2	0	0	0	0	511	625	
3	0	0	0	0	510	625	
4	0	0	0	0	510	625	
5	0	0	0	0	510	625	
6	0	0	0	0	510	625	
7	0	0	0	0	510	626	
8	0	0	0	0	511	625	
9	0	0	0	0	511	625	
10	0	0	0	0	511	625	
11	0	0	0	0	510	625	
12	0	0	0	0	511	625	
13	0	0	0	0	510	625	
14	0	0	0	0	511	625	
15	0	0	0	0	511	624	
0	0	0	0	0	511	624	
1	0	0	0	0	510	624	
2	0	0	0	0	509	624	
3	0	0	0	0	510	624	
4	0	0	0	0	510	624	
5	0	0	0	0	510	624	
6	0	0	0	0	510	624	
7	0	0	0	0	511	624	
8	0	0	0	0	511	624	
9	0	0	0	0	511	624	
10	0	0	0	0	511	624	
11	0	0	0	0	511	624	
12	0	0	0	0	511	624	
13	0	0	0	0	511	624	
14	0	0	0	0	511	624	
15	0	0	0	0	512	624	
0	0	0	0	0	511	623	
1	0	0	0	0	511	624	
2	0	0	0	0	511	623	
3	0	0	0	0	511	624	
4	0	0	0	0	511	623	
5	0	0	0	0	510	623	
6	0	0	0	0	511	623	
7	0	0	0	0	511	624	
8	0	0	0	0	511	623	
9	0	0	0	0	511	623	
10	0	0	0	0	510	623	
11	0	0	0	0	510	623	
12	0	0	0	0	510	623	
13	0	0	0	0	510	623	
14	0	0	0	0	510	623	
15	0	0	0	0	510	623	
0	0	0	0	0	510	622	
1	0	0	0	0	510	622	
2	0	0	0	0	510	623	
3	0	0	0	0	511	623	
4	0	0	0	0	510	622	
5	0	0	0	0	511	623	
6	0	0	0	0	510	623	
7	0	0	0	0	510	623	
8	0	0	0	0	511	623	
9	0	0	0	0	511	623	
10	0	0	0	0	511	623	
11	0	0	0	0	511	623	
12	0	0	0	0	511	623	
13	0	0	0	0	511	623	
14	0	0	0	0	511	623	
15	0	0	0	0	511	623	
0	0	0	0	0	512	623	
1	0	0	0	0	511	623	
2	0	0	0	0	511	623	
3	0	0	0	0	510	624	
4	0	0	0	0	510	624	
5	0	0	0	0	511	624	
6	0	0	0	0	511	623	
7	0	0	0	0	511	624	
8	0	0	0	0	511	623	
9	0	0	0	0	511	624	
10	0	0	0	0	511	624	
11	0	0	0	0	512	624	
12	0	0	0	0	512	624	
13	0	0	0	0	512	624	
14	0	0	0	0	512	623	
15	0	0	0	0	512	623	
0	0	0	0	0	511	623	
1	0	0	0	0	512	624	
2	0	0	0	0	511	624	
3	0	0	0	0	511	624	
4	0	0	0	0	511	623	
5	0	0	0	0	511	624	
6	0	0	0	0	512	624	
7	0	0	0	0	512	624	
8	0	0	0	0	512	623	
9	0	0	0	0	512	624	
10	0	0	0	0	511	624	
11	0	0	0	0	512	624	
12	0	0	0	0	512	624	
13	0	0	0	0	511	624	
14	0	0	0	0	511	623	
15	0	0	0	0	510	624	
0	0	0	0	0	510	623	
1	0	0	0	0	510	624	
2	0	0	0	0	510	624	
3	0	0	0	0	510	624	
4	0	0	0	0	510	624	
5	0	0	0	0	509	624	
6	0	0	0	0	510	623	
7	0	0	0	0	510	624	
8	0	0	0	0	510	624	
9	0	0	0	0	510	624	
10	0	0	0	0	510	623	
11	0	0	0	0	508	623	
12	0	0	0	0	508	623	
13	0	0	0	0	508	624	
14	0	0	0	0	508	624	
15	0	0	0	0	507	624	
0	0	0	0	0	507	624	
1	0	0	0	0	507	624	
2	0	0	0	0	508	623	
3	0	0	0	0	508	624	
4	0	0	0	0	508	624	
5	0	0	0	0	508	624	
6	0	0	0	0	507	623	
7	0	0	0	0	507	624	
8	0	0	0	0	506	624	
9	0	0	0	0	506	624	
10	0	0	0	0	506	624	
11	0	0	0	0	505	624	
12	0	0	0	0	504	624	
13	0	0	0	0	504	624	
14	0	0	0	0	504	624	
15	0	0	0	0	504	624	
0	0	0	0	0	504	624	
1	0	0	0	0	505	624	
2	0	0	0	0	505	624	
3	0	0	0	0	505	625	
4	0	0	0	0	505	624	
5	0	0	0	0	505	624	
6	0	0	0	0	505	624	
7	0	0	0	0	505	624	
8	0	0	0	0	505	624	
9	0	0	0	0	505	624	
10	0	0	0	0	505	624	
11	0	0	0	0	505	625	
12	0	0	0	0	504	623	
13	0	0	0	0	505	624	
14	0	0	0	0	505	623	
15	0	0	0	0	506	624	
0	0	0	0	0	508	624	
1	0	0	0	0	509	624	
2	0	0	0	0	510	623	
3	0	0	0	0	511	624	
4	0	0	0	0	511	623	
5	0	0	0	0	512	623	
6	0	0	0	0	512	623	
7	0	0	0	0	513	624	
8	0	0	0	0	513	623	
9	0	0	0	0	513	623	
10	0	0	0	0	513	623	
11	0	0	0	0	513	624	
12	0	0	0	0	513	623	
13	0	0	0	0	513	624	
14	0	0	0	0	514	623	
15	0	0	0	0	515	624	
0	0	0	0	0	515	624	
1	0	0	0	0	515	624	
2	0	0	0	0	516	623	
3	0	0	0	0	515	624	
4	0	0	0	0	516	624	
5	0	0	0	0	517	624	
6	0	0	0	0	517	625	
7	0	0	0	0	517	625	
8	0	0	0	0	517	625	
9	0	0	0	0	518	625	
10	0	0	0	0	518	625	
11	0	0	0	0	518	625	
12	0	0	0	0	518	625	
13	0	0	0	0	519	624	
14	0	0	0	0	519	624	
15	0	0	0	0	519	625	
0	0	0	0	0	520	624	
1	0	0	0	0	520	624	
2	0	0	0	0	519	624	
3	0	0	0	0	519	625	
4	0	0	0	0	519	625	
5	0	0	0	0	519	624	
6	0	0	0	0	518	625	
7	0	0	0	0	518	624	
8	0	0	0	0	517	624	
9	0	0	0	0	517	624	
10	0	0	0	0	516	624	
11	0	0	0	0	515	625	
12	0	0	0	0	515	625	
13	0	0	0	0	515	625	
14	0	0	0	0	514	625	
15	0	0	0	0	513	625	
0	0	0	0	0	513	625	
1	0	0	0	0	512	625	
2	0	0	0	0	512	626	
3	0	0	0	0	512	626	
4	0	0	0	0	512	625	
5	0	0	0	0	512	625	
6	0	0	0	0	512	626	
7	0	0	0	0	512	626	
8	0	0	0	0	511	626	
9	0	0	0	0	511	626	
10	0	0	0	0	511	625	
11	0	0	0	0	512	626	
12	0	0	0	0	512	626	
13	0	0	0	0	512	626	
14	0	0	0	0	512	626	
15	0	0	0	0	512	626	
0	0	0	0	0	512	625	
1	0	0	0	0	512	625	
2	0	0	0	0	511	624	
3	0	0	0	0	511	625	
4	0	0	0	0	510	625	
5	0	0	0	0	510	624	
6	0	0	0	0	510	624	
7	0	0	0	0	510	624	
8	0	0	0	0	510	624	
9	0	0	0	0	509	624	
10	0	0	0	0	509	624	
11	0	0	0	0	509	624	
12	0	0	0	0	508	623	
13	0	0	0	0	509	623	
14	0	0	0	0	508	623	
15	0	0	0	0	508	623	
0	0	0	0	0	508	623	
1	0	0	0	0	508	623	
2	0	0	0	0	508	623	
3	0	0	0	0	508	622	
4	0	0	0	0	508	623	
5	0	0	0	0	508	623	
6	0	0	0	0	508	623	
7	0	0	0	0	508	623	
8	0	0	0	0	507	623	
9	0	0	0	0	507	623	
10	0	0	0	0	506	623	
11	0	0	0	0	507	623	
12	0	0	0	0	506	623	
13	0	0	0	0	507	623	
14	0	0	0	0	507	623	
15	0	0	0	0	507	623	
0	0	0	0	0	507	623	
1	0	0	0	0	507	623	
2	0	0	0	0	508	623	
3	0	0	0	0	508	623	
4	0	0	0	0	509	624	
5	0	0	0	0	509	624	
6	0	0	0	0	509	623	
7	0	0	0	0	509	624	
8	0	0	0	0	509	623	
9	0	0	0	0	508	623	
10	0	0	0	0	508	623	
11	0	0	0	0	508	624	
12	0	0	0	0	508	623	
13	0	0	0	0	508	623	
14	0	0	0	0	508	623	
15	0	0	0	0	507	623	
0	0	0	0	0	507	623	
1	0	0	0	0	507	622	
2	0	0	0	0	506	623	
3	0	0	0	0	505	623	
4	0	0	0	0	503	622	
5	0	0	0	0	500	622	
6	0	0	0	0	496	622	
7	0	0	0	0	492	622	
8	0	0	0	0	487	622	
9	0	0	0	0	479	622	
10	0	0	0	0	471	622	
11	0	0	0	0	462	622	
12	0	0	0	0	452	621	
13	0	0	0	0	441	622	
14	0	0	0	0	429	621	
15	0	0	0	0	417	621	
0	0	0	0	0	405	621	
1	0	0	0	0	392	621	
2	0	0	0	0	380	622	
3	0	0	0	0	369	622	
4	0	0	0	0	360	621	
5	0	0	0	0	353	622	
6	0	0	0	0	349	622	
7	0	0	0	0	348	621	
8	0	0	0	0	352	622	
9	0	0	0	0	362	621	
10	0	0	0	0	377	622	
11	0	0	0	0	395	622	
12	0	0	0	0	419	622	
13	0	0	0	0	447	623	
14	0	0	0	0	476	622	
15	0	0	0	0	510	623	
0	0	0	0	0	548	622	
1	0	0	0	0	591	623	
2	0	0	0	0	638	623	
3	0	0	0	0	689	624	
4	0	0	0	0	741	623	
5	0	0	0	0	792	623	
6	0	0	0	0	843	624	
7	0	0	0	0	894	624	
8	0	0	0	0	942	624	
9	0	0	0	0	983	624	
10	0	0	0	0	1016	624	
11	0	0	0	0	1022	625	
12	0	0	0	0	1022	624	
13	0	0	0	0	1022	624	
14	0	0	0	0	1022	624	
15	0	0	0	0	1022	624	
0	0	0	0	0	1022	625	
1	0	0	0	0	1022	625	
2	0	0	0	0	1022	625	
3	0	0	0	0	1022	626	
4	0	0	0	0	1008	624	
5	0	0	0	0	985	625	
6	0	0	0	0	961	625	
7	0	0	0	0	938	625	
8	0	0	0	0	915	625	
9	0	0	0	0	892	625	
10	0	0	0	0	870	625	
11	0	0	0	0	848	626	
12	0	0	0	0	823	625	
13	0	0	0	0	799	625	
14	0	0	0	0	774	626	
15	0	0	0	0	749	626	
0	0	0	0	0	724	625	
1	0	0	0	0	701	625	
2	0	0	0	0	677	625	
3	0	0	0	0	654	626	
4	0	0	0	0	632	625	
5	0	0	0	0	613	625	
6	0	0	0	0	592	625	
7	0	0	0	0	572	625	
8	0	0	0	0	553	625	
9	0	0	0	0	536	625	
10	0	0	0	0	520	625	
11	0	0	0	0	505	625	
12	0	0	0	0	493	625	
13	0	0	0	0	481	626	
14	0	0	0	0	469	625	
15	0	0	0	0	457	625	
0	0	0	0	0	447	625	
1	0	0	0	0	437	625	
2	0	0	0	0	429	625	
3	0	0	0	0	421	625	
4	0	0	0	0	415	624	
5	0	0	0	0	409	625	
6	0	0	0	0	404	625	
7	0	0	0	0	399	625	
8	0	0	0	0	396	625	
9	0	0	0	0	393	626	
10	0	0	0	0	391	626	
11	0	0	0	0	389	625	
12	0	0	0	0	387	625	
13	0	0	0	0	386	625	
14	0	0	0	0	385	625	
15	0	0	0	0	384	625	
0	0	0	0	0	384	625	
1	0	0	0	0	383	624	
2	0	0	0	0	382	625	
3	0	0	0	0	382	625	
4	0	0	0	0	381	625	
5	0	0	0	0	381	624	
6	0	0	0	0	380	624	
7	0	0	0	0	380	624	
8	0	0	0	0	380	623	
9	0	0	0	0	380	624	
10	0	0	0	0	380	623	
11	0	0	0	0	380	624	
12	0	0	0	0	380	624	
13	0	0	0	0	381	623	
14	0	0	0	0	381	624	
15	0	0	0	0	382	623	
0	0	0	0	0	382	623	
1	0	0	0	0	383	623	
2	0	0	0	0	384	623	
3	0	0	0	0	385	624	
4	0	0	0	0	386	623	
5	0	0	0	0	387	622	
6	0	0	0	0	388	622	
7	0	0	0	0	389	623	
8	0	0	0	0	390	623	
9	0	0	0	0	391	623	
10	0	0	0	0	392	623	
11	0	0	0	0	393	623	
12	0	0	0	0	394	623	
13	0	0	0	0	394	623	
14	0	0	0	0	395	623	
15	0	0	0	0	396	623	
0	0	0	0	0	397	624	
1	0	0	0	0	398	623	
2	0	0	0	0	398	624	
3	0	0	0	0	399	624	
4	0	0	0	0	399	623	
5	0	0	0	0	400	623	
6	0	0	0	0	401	624	
7	0	0	0	0	401	624	
8	0	0	0	0	402	624	
9	0	0	0	0	403	624	
10	0	0	0	0	404	624	
11	0	0	0	0	405	624	
12	0	0	0	0	407	623	
13	0	0	0	0	408	624	
14	0	0	0	0	409	624	
15	0	0	0	0	410	624	
0	0	0	0	0	412	623	
1	0	0	0	0	412	623	
2	0	0	0	0	414	624	
3	0	0	0	0	415	623	
4	0	0	0	0	416	623	
5	0	0	0	0	417	623	
6	0	0	0	0	418	623	
7	0	0	0	0	419	623	
8	0	0	0	0	419	623	
9	0	0	0	0	420	624	
10	0	0	0	0	421	623	
11	0	0	0	0	423	623	
12	0	0	0	0	423	623	
13	0	0	0	0	425	623	
14	0	0	0	0	426	623	
15	0	0	0	0	428	624	
0	0	0	0	0	428	624	
1	0	0	0	0	429	623	
2	0	0	0	0	429	623	
3	0	0	0	0	429	624	
4	0	0	0	0	430	624	
5	0	0	0	0	431	623	
6	0	0	0	0	432	624	
7	0	0	0	0	432	624	
8	0	0	0	0	433	624	
9	0	0	0	0	433	624	
10	0	0	0	0	434	623	
11	0	0	0	0	435	624	
12	0	0	0	0	435	623	
13	0	0	0	0	436	624	
14	0	0	0	0	438	624	
15	0	0	0	0	437	624	
0	0	0	0	0	438	624	
1	0	0	0	0	438	624	
2	0	0	0	0	438	623	
3	0	0	0	0	439	624	
4	0	0	0	0	440	623	
5	0	0	0	0	440	623	
6	0	0	0	0	441	623	
7	0	0	0	0	441	624	
8	0	0	0	0	442	624	
9	0	0	0	0	442	623	
10	0	0	0	0	443	623	
11	0	0	0	0	443	624	
12	0	0	0	0	444	624	
13	0	0	0	0	446	623	
14	0	0	0	0	446	624	
15	0	0	0	0	447	624	
0	0	0	0	0	447	623	
1	0	0	0	0	448	623	
2	0	0	0	0	449	623	
3	0	0	0	0	449	623	
4	0	0	0	0	449	623	
5	0	0	0	0	449	623	
6	0	0	0	0	450	623	
7	0	0	0	0	450	624	
8	0	0	0	0	450	624	
9	0	0	0	0	451	623	
10	0	0	0	0	451	624	
11	0	0	0	0	452	624	
12	0	0	0	0	452	624	
13	0	0	0	0	453	624	
14	0	0	0	0	453	624	
15	0	0	0	0	454	624	
0	0	0	0	0	454	623	
1	0	0	0	0	455	624	
2	0	0	0	0	456	623	
3	0	0	0	0	456	624	
4	0	0	0	0	457	624	
5	0	0	0	0	459	624	
6	0	0	0	0	460	624	
7	0	0	0	0	460	624	
8	0	0	0	0	461	624	
9	0	0	0	0	462	624	
10	0	0	0	0	463	624	
11	0	0	0	0	463	625	
12	0	0	0	0	464	624	
13	0	0	0	0	465	624	
14	0	0	0	0	465	625	
15	0	0	0	0	467	625	
0	0	0	0	0	467	624	
1	0	0	0	0	468	623	
2	0	0	0	0	469	624	
3	0	0	0	0	469	624	
4	0	0	0	0	469	623	
5	0	0	0	0	470	624	
6	0	0	0	0	470	624	
7	0	0	0	0	471	624	
8	0	0	0	0	472	624	
9	0	0	0	0	473	624	
10	0	0	0	0	473	624	
11	0	0	0	0	475	624	
12	0	0	0	0	476	624	
13	0	0	0	0	477	624	
14	0	0	0	0	479	624	
15	0	0	0	0	480	624	
0	0	0	0	0	481	624	
1	0	0	0	0	482	625	
2	0	0	0	0	483	625	
3	0	0	0	0	484	625	
4	0	0	0	0	485	625	
5	0	0	0	0	487	625	
6	0	0	0	0	487	625	
7	0	0	0	0	489	625	
8	0	0	0	0	490	624	
9	0	0	0	0	491	624	
10	0	0	0	0	492	624	
11	0	0	0	0	494	624	
12	0	0	0	0	495	624	
13	0	0	0	0	497	624	
14	0	0	0	0	499	624	
15	0	0	0	0	501	624	
0	0	0	0	0	503	624	
1	0	0	0	0	504	624	
2	0	0	0	0	506	624	
3	0	0	0	0	507	624	
4	0	0	0	0	508	624	
5	0	0	0	0	510	623	
6	0	0	0	0	511	624	
7	0	0	0	0	512	624	
8	0	0	0	0	513	624	
9	0	0	0	0	514	624	
10	0	0	0	0	515	624	
11	0	0	0	0	515	624	
12	0	0	0	0	517	623	
13	0	0	0	0	518	623	
14	0	0	0	0	519	623	
15	0	0	0	0	519	623	
0	0	0	0	0	519	623	
1	0	0	0	0	520	623	
2	0	0	0	0	521	623	
3	0	0	0	0	521	624	
4	0	0	0	0	521	623	
5	0	0	0	0	522	623	
6	0	0	0	0	522	623	
7	0	0	0	0	523	623	
8	0	0	0	0	524	623	
9	0	0	0	0	524	622	
10	0	0	0	0	524	622	
11	0	0	0	0	525	623	
12	0	0	0	0	525	623	
13	0	0	0	0	526	622	
14	0	0	0	0	527	622	
15	0	0	0	0	526	622	
0	0	0	0	0	525	622	
1	0	0	0	0	524	621	
2	0	0	0	0	524	622	
3	0	0	0	0	524	622	
4	0	0	0	0	523	622	
5	0	0	0	0	523	623	
6	0	0	0	0	523	622	
7	0	0	0	0	523	622	
8	0	0	0	0	523	623	
9	0	0	0	0	523	622	
10	0	0	0	0	522	622	
11	0	0	0	0	521	623	
12	0	0	0	0	520	623	
13	0	0	0	0	519	622	
14	0	0	0	0	519	623	
15	0	0	0	0	516	623	
0	0	0	0	0	515	623	
1	0	0	0	0	514	623	
2	0	0	0	0	513	623	
3	0	0	0	0	512	624	
4	0	0	0	0	511	624	
5	0	0	0	0	511	624	
6	0	0	0	0	510	623	
7	0	0	0	0	509	624	
8	0	0	0	0	508	623	
9	0	0	0	0	507	623	
10	0	0	0	0	506	624	
11	0	0	0	0	505	625	
12	0	0	0	0	505	624	
13	0	0	0	0	504	624	
14	0	0	0	0	504	624	
15	0	0	0	0	504	624	
0	0	0	0	0	503	624	
1	0	0	0	0	502	625	
2	0	0	0	0	501	624	
3	0	0	0	0	500	625	
4	0	0	0	0	500	625	
5	0	0	0	0	499	625	
6	0	0	0	0	499	625	
7	0	0	0	0	499	625	
8	0	0	0	0	498	625	
9	0	0	0	0	498	625	
10	0	0	0	0	497	625	
11	0	0	0	0	497	625	
12	0	0	0	0	496	624	
13	0	0	0	0	496	625	
14	0	0	0	0	496	625	
15	0	0	0	0	495	625	
0	0	0	0	0	494	624	
1	0	0	0	0	494	625	
2	0	0	0	0	494	625	
3	0	0	0	0	494	625	
4	0	0	0	0	493	624	
5	0	0	0	0	493	625	
6	0	0	0	0	493	625	
7	0	0	0	0	493	625	
8	0	0	0	0	493	625	
9	0	0	0	0	493	625	
10	0	0	0	0	493	625	
11	0	0	0	0	493	626	
12	0	0	0	0	492	625	
13	0	0	0	0	492	624	
14	0	0	0	0	492	624	
15	0	0	0	0	492	625	
0	0	0	0	0	492	625	
1	0	0	0	0	492	625	
2	0	0	0	0	492	625	
3	0	0	0	0	493	625	
4	0	0	0	0	494	625	
5	0	0	0	0	494	624	
6	0	0	0	0	494	625	
7	0	0	0	0	495	625	
8	0	0	0	0	495	625	
9	0	0	0	0	495	624	
10	0	0	0	0	495	625	
11	0	0	0	0	496	625	
12	0	0	0	0	495	624	
13	0	0	0	0	496	625	
14	0	0	0	0	496	624	
15	0	0	0	0	496	624	
0	0	0	0	0	496	624	
1	0	0	0	0	496	625	
2	0	0	0	0	496	624	
3	0	0	0	0	496	625	
4	0	0	0	0	495	623	
5	0	0	0	0	495	624	
6	0	0	0	0	495	624	
7	0	0	0	0	495	624	
8	0	0	0	0	495	624	
9	0	0	0	0	496	624	
10	0	0	0	0	496	624	
11	0	0	0	0	496	624	
12	0	0	0	0	497	624	
13	0	0	0	0	497	624	
14	0	0	0	0	496	624	
15	0	0	0	0	496	624	
0	0	0	0	0	497	624	
1	0	0	0	0	498	625	
2	0	0	0	0	498	624	
3	0	0	0	0	497	624	
4	0	0	0	0	499	624	
5	0	0	0	0	499	624	
6	0	0	0	0	499	624	
7	0	0	0	0	499	625	
8	0	0	0	0	499	625	
9	0	0	0	0	498	624	
10	0	0	0	0	498	624	
11	0	0	0	0	499	625	
12	0	0	0	0	498	625	
13	0	0	0	0	499	624	
14	0	0	0	0	499	625	
15	0	0	0	0	498	625	
0	0	0	0	0	498	625	
1	0	0	0	0	498	624	
2	0	0	0	0	498	625	
3	0	0	0	0	498	625	
4	0	0	0	0	497	624	
5	0	0	0	0	497	625	
6	0	0	0	0	497	624	
7	0	0	0	0	497	624	
8	0	0	0	0	498	624	
9	0	0	0	0	498	625	
10	0	0	0	0	499	625	
11	0	0	0	0	499	625	
12	0	0	0	0	499	625	
13	0	0	0	0	500	625	
14	0	0	0	0	500	625	
15	0	0	0	0	499	625	
0	0	0	0	0	499	625	
1	0	0	0	0	499	625	
2	0	0	0	0	498	624	
3	0	0	0	0	498	625	
4	0	0	0	0	497	625	
5	0	0	0	0	497	625	
6	0	0	0	0	497	625	
7	0	0	0	0	497	625	
8	0	0	0	0	497	625	
9	0	0	0	0	497	625	
10	0	0	0	0	498	624	
11	0	0	0	0	498	625	
12	0	0	0	0	498	624	
13	0	0	0	0	498	624	
14	0	0	0	0	498	624	
15	0	0	0	0	497	624	
0	0	0	0	0	498	624	
1	0	0	0	0	498	624	
2	0	0	0	0	498	624	
3	0	0	0	0	499	624	
4	0	0	0	0	499	623	
5	0	0	0	0	499	623	
6	0	0	0	0	499	624	
7	0	0	0	0	499	623	
8	0	0	0	0	499	623	
9	0	0	0	0	499	623	
10	0	0	0	0	499	623	
11	0	0	0	0	499	623	
12	0	0	0	0	500	624	
13	0	0	0	0	501	623	
14	0	0	0	0	502	623	
15	0	0	0	0	502	623	
0	0	0	0	0	502	623	
1	0	0	0	0	503	623	
2	0	0	0	0	503	623	
3	0	0	0	0	503	624	
4	0	0	0	0	504	623	
5	0	0	0	0	504	624	
6	0	0	0	0	503	623	
7	0	0	0	0	504	623	
8	0	0	0	0	504	623	
9	0	0	0	0	503	624	
10	0	0	0	0	503	624	
11	0	0	0	0	504	624	
12	0	0	0	0	504	624	
13	0	0	0	0	504	624	
14	0	0	0	0	504	624	
15	0	0	0	0	504	624	
0	0	0	0	0	505	624	
1	0	0	0	0	505	624	
2	0	0	0	0	505	623	
3	0	0	0	0	506	624	
4	0	0	0	0	506	624	
5	0	0	0	0	506	624	
6	0	0	0	0	507	624	
7	0	0	0	0	507	624	
8	0	0	0	0	507	624	
9	0	0	0	0	507	624	
10	0	0	0	0	507	624	
11	0	0	0	0	508	624	
12	0	0	0	0	507	623	
13	0	0	0	0	508	623	
14	0	0	0	0	508	623	
15	0	0	0	0	508	623	
0	0	0	0	0	508	623	
1	0	0	0	0	508	623	
2	0	0	0	0	507	622	
3	0	0	0	0	508	623	
4	0	0	0	0	507	623	
5	0	0	0	0	507	623	
6	0	0	0	0	507	623	
7	0	0	0	0	507	623	
8	0	0	0	0	507	623	
9	0	0	0	0	508	622	
10	0	0	0	0	508	623	
11	0	0	0	0	507	623	
12	0	0	0	0	508	623	
13	0	0	0	0	508	623	
14	0	0	0	0	507	623	
15	0	0	0	0	507	624	
0	0	0	0	0	507	623	
1	0	0	0	0	508	623	
2	0	0	0	0	508	623	
3	0	0	0	0	508	624	
4	0	0	0	0	508	624	
5	0	0	0	0	508	624	
6	0	0	0	0	508	624	
7	0	0	0	0	508	623	
8	0	0	0	0	508	623	
9	0	0	0	0	509	623	
10	0	0	0	0	508	623	
11	0	0	0	0	509	623	
12	0	0	0	0	509	623	
13	0	0	0	0	509	623	
14	0	0	0	0	509	623	
15	0	0	0	0	508	623	
0	0	0	0	0	508	623	
1	0	0	0	0	507	624	
2	0	0	0	0	507	624	
3	0	0	0	0	507	624	
4	0	0	0	0	507	624	
5	0	0	0	0	507	624	
6	0	0	0	0	507	624	
7	0	0	0	0	507	624	
8	0	0	0	0	507	624	
9	0	0	0	0	507	625	
10	0	0	0	0	508	624	
11	0	0	0	0	508	624	
12	0	0	0	0	508	624	
13	0	0	0	0	509	624	
14	0	0	0	0	508	624	
15	0	0	0	0	508	624	
0	0	0	0	0	508	624	
1	0	0	0	0	508	624	
2	0	0	0	0	509	624	
3	0	0	0	0	508	625	
4	0	0	0	0	508	624	
5	0	0	0	0	509	624	
6	0	0	0	0	509	624	
7	0	0	0	0	509	624	
8	0	0	0	0	509	624	
9	0	0	0	0	510	624	
10	0	0	0	0	510	625	
11	0	0	0	0	511	625	
12	0	0	0	0	511	624	
13	0	0	0	0	511	624	
14	0	0	0	0	511	624	
15	0	0	0	0	511	625	
0	0	0	0	0	511	624	
1	0	0	0	0	510	625	
2	0	0	0	0	511	624	
3	0	0	0	0	511	624	
4	0	0	0	0	511	624	
5	0	0	0	0	511	624	
6	0	0	0	0	511	624	
7	0	0	0	0	512	624	
8	0	0	0	0	512	624	
9	0	0	0	0	512	624	
10	0	0	0	0	512	624	
11	0	0	0	0	512	625	
12	0	0	0	0	512	624	
13	0	0	0	0	512	624	
14	0	0	0	0	512	624	
15	0	0	0	0	511	624	
0	0	0	0	0	511	624	
1	0	0	0	0	510	624	
2	0	0	0	0	510	624	
3	0	0	0	0	509	624	
4	0	0	0	0	509	624	
5	0	0	0	0	508	623	
6	0	0	0	0	507	623	
7	0	0	0	0	507	623	
8	0	0	0	0	507	623	
9	0	0	0	0	508	623	
10	0	0	0	0	508	623	
11	0	0	0	0	508	623	
12	0	0	0	0	508	623	
13	0	0	0	0	509	623	
14	0	0	0	0	509	623	
15	0	0	0	0	508	623	
0	0	0	0	0	508	623	
1	0	0	0	0	508	623	
2	0	0	0	0	508	623	
3	0	0	0	0	508	623	
4	0	0	0	0	508	623	
5	0	0	0	0	509	624	
6	0	0	0	0	508	623	
7	0	0	0	0	509	624	
8	0	0	0	0	508	624	
9	0	0	0	0	508	624	
10	0	0	0	0	508	624	
11	0	0	0	0	508	625	
12	0	0	0	0	509	625	
13	0	0	0	0	508	624	
14	0	0	0	0	509	625	
15	0	0	0	0	509	625	
0	0	0	0	0	509	625	
1	0	0	0	0	509	624	
2	0	0	0	0	508	624	
3	0	0	0	0	508	625	
4	0	0	0	0	508	625	
5	0	0	0	0	507	624	
6	0	0	0	0	508	624	
7	0	0	0	0	508	624	
8	0	0	0	0	508	624	
9	0	0	0	0	508	624	
10	0	0	0	0	508	624	
11	0	0	0	0	508	624	
12	0	0	0	0	508	624	
13	0	0	0	0	508	624	
14	0	0	0	0	509	624	
15	0	0	0	0	510	624	
0	0	0	0	0	510	624	
1	0	0	0	0	509	624	
2	0	0	0	0	510	625	
3	0	0	0	0	509	624	
4	0	0	0	0	509	624	
5	0	0	0	0	509	624	
6	0	0	0	0	509	624	
7	0	0	0	0	509	625	
8	0	0	0	0	510	624	
9	0	0	0	0	510	624	
10	0	0	0	0	510	624	
11	0	0	0	0	509	624	
12	0	0	0	0	509	624	
13	0	0	0	0	510	624	
14	0	0	0	0	509	624	
15	0	0	0	0	510	625	
0	0	0	0	0	510	624	
1	0	0	0	0	510	624	
2	0	0	0	0	510	624	
3	0	0	0	0	509	624	
4	0	0	0	0	509	623	
5	0	0	0	0	508	623	
6	0	0	0	0	508	624	
7	0	0	0	0	508	624	
8	0	0	0	0	508	624	
9	0	0	0	0	508	624	
10	0	0	0	0	507	624	
11	0	0	0	0	507	625	
12	0	0	0	0	507	624	
13	0	0	0	0	507	625	
14	0	0	0	0	507	625	
15	0	0	0	0	507	625	
0	0	0	0	0	507	625	
1	0	0	0	0	508	624	
2	0	0	0	0	508	625	
3	0	0	0	0	508	625	
4	0	0	0	0	509	625	
5	0	0	0	0	509	625	
6	0	0	0	0	509	625	
7	0	0	0	0	509	625	
8	0	0	0	0	509	625	
9	0	0	0	0	508	624	
10	0	0	0	0	509	624	
11	0	0	0	0	508	625	
12	0	0	0	0	508	624	
13	0	0	0	0	508	625	
14	0	0	0	0	508	624	
15	0	0	0	0	508	624	
0	0	0	0	0	509	624	
1	0	0	0	0	509	624	
2	0	0	0	0	510	624	
3	0	0	0	0	510	624	
4	0	0	0	0	510	624	
5	0	0	0	0	510	624	
6	0	0	0	0	510	624	
7	0	0	0	0	510	624	
8	0	0	0	0	509	624	
9	0	0	0	0	510	625	
10	0	0	0	0	509	624	
11	0	0	0	0	510	625	
12	0	0	0	0	510	624	
13	0	0	0	0	510	624	
14	0	0	0	0	510	623	
15	0	0	0	0	511	624	
0	0	0	0	0	510	623	
1	0	0	0	0	510	623	
2	0	0	0	0	510	624	
3	0	0	0	0	510	624	
4	0	0	0	0	509	623	
5	0	0	0	0	510	624	
6	0	0	0	0	510	624	
7	0	0	0	0	510	623	
8	0	0	0	0	510	623	
9	0	0	0	0	509	623	
10	0	0	0	0	510	623	
11	0	0	0	0	510	624	
12	0	0	0	0	510	623	
13	0	0	0	0	510	623	
14	0	0	0	0	510	622	
15	0	0	0	0	510	623	
0	0	0	0	0	510	623	
1	0	0	0	0	510	623	
2	0	0	0	0	510	624	
3	0	0	0	0	511	623	
4	0	0	0	0	511	623	
5	0	0	0	0	512	623	
6	0	0	0	0	511	623	
7	0	0	0	0	511	623	
8	0	0	0	0	511	623	
9	0	0	0	0	511	623	
10	0	0	0	0	511	623	
11	0	0	0	0	511	623	
12	0	0	0	0	511	623	
13	0	0	0	0	511	622	
14	0	0	0	0	511	622	
15	0	0	0	0	511	623	
0	0	0	0	0	511	623	
1	0	0	0	0	511	623	
2	0	0	0	0	511	623	
3	0	0	0	0	511	623	
4	0	0	0	0	511	623	
5	0	0	0	0	511	623	
6	0	0	0	0	511	623	
7	0	0	0	0	511	624	
8	0	0	0	0	511	624	
9	0	0	0	0	511	623	
10	0	0	0	0	511	623	
11	0	0	0	0	511	624	
12	0	0	0	0	511	624	
13	0	0	0	0	510	624	
14	0	0	0	0	511	624	
15	0	0	0	0	511	624	
0	0	0	0	0	510	624	
1	0	0	0	0	509	624	
2	0	0	0	0	509	624	
3	0	0	0	0	510	624	
4	0	0	0	0	510	624	
5	0	0	0	0	510	624	
6	0	0	0	0	509	624	
7	0	0	0	0	509	624	
8	0	0	0	0	508	624	
9	0	0	0	0	507	623	
10	0	0	0	0	508	623	
11	0	0	0	0	507	623	
12	0	0	0	0	507	623	
13	0	0	0	0	508	623	
14	0	0	0	0	507	623	
15	0	0	0	0	507	623	
0	0	0	0	0	507	623	
1	0	0	0	0	507	622	
2	0	0	0	0	507	623	
3	0	0	0	0	508	623	
4	0	0	0	0	508	623	
5	0	0	0	0	509	623	
6	0	0	0	0	508	623	
7	0	0	0	0	508	623	
8	0	0	0	0	508	624	
9	0	0	0	0	508	623	
10	0	0	0	0	508	623	
11	0	0	0	0	507	624	
12	0	0	0	0	507	624	
13	0	0	0	0	507	624	
14	0	0	0	0	507	623	
15	0	0	0	0	508	624	
0	0	0	0	0	508	623	
1	0	0	0	0	509	623	
2	0	0	0	0	509	623	
3	0	0	0	0	509	624	
4	0	0	0	0	509	624	
5	0	0	0	0	510	624	
6	0	0	0	0	509	624	
7	0	0	0	0	509	624	
8	0	0	0	0	509	624	
9	0	0	0	0	510	624	
10	0	0	0	0	510	624	
11	0	0	0	0	510	625	
12	0	0	0	0	510	624	
13	0	0	0	0	510	624	
14	0	0	0	0	509	624	
15	0	0	0	0	508	624	
0	0	0	0	0	508	625	
1	0	0	0	0	508	624	
2	0	0	0	0	507	624	
3	0	0	0	0	507	625	
4	0	0	0	0	507	625	
5	0	0	0	0	507	625	
6	0	0	0	0	507	625	
7	0	0	0	0	507	625	
8	0	0	0	0	506	625	
9	0	0	0	0	507	624	
10	0	0	0	0	507	625	
11	0	0	0	0	507	626	
12	0	0	0	0	507	625	
13	0	0	0	0	507	625	
14	0	0	0	0	507	625	
15	0	0	0	0	507	626	
0	0	0	0	0	507	625	
1	0	0	0	0	507	625	
2	0	0	0	0	507	625	
3	0	0	0	0	507	625	
4	0	0	0	0	507	625	
5	0	0	0	0	508	625	
6	0	0	0	0	508	625	
7	0	0	0	0	507	624	
8	0	0	0	0	508	624	
9	0	0	0	0	508	625	
10	0	0	0	0	508	625	
11	0	0	0	0	508	625	
12	0	0	0	0	508	624	
13	0	0	0	0	508	625	
14	0	0	0	0	508	625	
15	0	0	0	0	508	625	
0	0	0	0	0	508	624	
1	0	0	0	0	508	624	
2	0	0	0	0	508	624	
3	0	0	0	0	509	625	
4	0	0	0	0	508	624	
5	0	0	0	0	508	624	
6	0	0	0	0	508	624	
7	0	0	0	0	508	624	
8	0	0	0	0	508	624	
9	0	0	0	0	508	624	
10	0	0	0	0	508	624	
11	0	0	0	0	508	624	
12	0	0	0	0	508	624	
13	0	0	0	0	508	624	
14	0	0	0	0	508	624	
15	0	0	0	0	508	624	
0	0	0	0	0	508	623	
1	0	0	0	0	508	624	
2	0	0	0	0	508	624	
3	0	0	0	0	509	624	
4	0	0	0	0	509	624	
5	0	0	0	0	509	624	
6	0	0	0	0	509	624	
7	0	0	0	0	509	624	
8	0	0	0	0	508	624	
9	0	0	0	0	508	624	
10	0	0	0	0	509	625	
11	0	0	0	0	509	625	
12	0	0	0	0	510	625	
13	0	0	0	0	509	624	
14	0	0	0	0	509	625	
15	0	0	0	0	509	625	
0	0	0	0	0	508	624	
1	0	0	0	0	508	624	
2	0	0	0	0	508	624	
3	0	0	0	0	508	624	
4	0	0	0	0	508	624	
5	0	0	0	0	508	624	
6	0	0	0	0	508	624	
7	0	0	0	0	508	623	
8	0	0	0	0	508	624	
9	0	0	0	0	508	624	
10	0	0	0	0	507	624	
11	0	0	0	0	507	624	
12	0	0	0	0	507	624	
13	0	0	0	0	507	623	
14	0	0	0	0	506	624	
15	0	0	0	0	506	624	
0	0	0	0	0	505	624	
1	0	0	0	0	506	624	
2	0	0	0	0	505	624	
3	0	0	0	0	504	624	
4	0	0	0	0	504	624	
5	0	0	0	0	504	625	
6	0	0	0	0	504	624	
7	0	0	0	0	503	625	
8	0	0	0	0	503	624	
9	0	0	0	0	503	625	
10	0	0	0	0	502	625	
11	0	0	0	0	502	624	
12	0	0	0	0	500	625	
13	0	0	0	0	500	624	
14	0	0	0	0	500	624	
15	0	0	0	0	501	625	
0	0	0	0	0	501	624	
1	0	0	0	0	502	624	
2	0	0	0	0	502	623	
3	0	0	0	0	502	623	
4	0	0	0	0	502	623	
5	0	0	0	0	502	623	
6	0	0	0	0	502	623	
7	0	0	0	0	502	623	
8	0	0	0	0	502	623	
9	0	0	0	0	502	623	
10	0	0	0	0	502	623	
11	0	0	0	0	502	623	
12	0	0	0	0	503	623	
13	0	0	0	0	503	622	
14	0	0	0	0	503	623	
15	0	0	0	0	503	623	
0	0	0	0	0	503	623	
1	0	0	0	0	504	623	
2	0	0	0	0	505	623	
3	0	0	0	0	506	624	
4	0	0	0	0	507	624	
5	0	0	0	0	508	623	
6	0	0	0	0	508	624	
7	0	0	0	0	508	624	
8	0	0	0	0	509	624	
9	0	0	0	0	508	624	
10	0	0	0	0	508	623	
11	0	0	0	0	508	624	
12	0	0	0	0	508	624	
13	0	0	0	0	508	624	
14	0	0	0	0	509	624	
15	0	0	0	0	509	624	
0	0	0	0	0	509	624	
1	0	0	0	0	509	623	
2	0	0	0	0	510	624	
3	0	0	0	0	510	624	
4	0	0	0	0	509	623	
5	0	0	0	0	510	623	
6	0	0	0	0	510	623	
7	0	0	0	0	511	623	
8	0	0	0	0	512	623	
9	0	0	0	0	513	623	
10	0	0	0	0	513	623	
11	0	0	0	0	513	623	
12	0	0	0	0	514	623	
13	0	0	0	0	513	623	
14	0	0	0	0	514	623	
15	0	0	0	0	515	623	
0	0	0	0	0	514	623	
1	0	0	0	0	514	623	
2	0	0	0	0	513	623	
3	0	0	0	0	514	624	
4	0	0	0	0	514	623	
5	0	0	0	0	514	623	
6	0	0	0	0	514	623	
7	0	0	0	0	514	623	
8	0	0	0	0	514	624	
9	0	0	0	0	513	624	
10	0	0	0	0	513	624	
11	0	0	0	0	513	624	
12	0	0	0	0	512	624	
13	0	0	0	0	512	624	
14	0	0	0	0	512	624	
15	0	0	0	0	512	624	
0	0	0	0	0	511	624	
1	0	0	0	0	511	624	
2	0	0	0	0	510	624	
3	0	0	0	0	509	624	
4	0	0	0	0	508	624	
5	0	0	0	0	508	624	
6	0	0	0	0	508	624	
7	0	0	0	0	508	624	
8	0	0	0	0	508	623	
9	0	0	0	0	508	623	
10	0	0	0	0	507	623	
11	0	0	0	0	506	624	
12	0	0	0	0	507	623	
13	0	0	0	0	507	624	
14	0	0	0	0	506	623	
15	0	0	0	0	506	623	
0	0	0	0	0	505	624	
1	0	0	0	0	505	624	
2	0	0	0	0	504	624	
3	0	0	0	0	504	624	
4	0	0	0	0	504	624	
5	0	0	0	0	504	624	
6	0	0	0	0	504	624	
7	0	0	0	0	504	624	
8	0	0	0	0	504	624	
9	0	0	0	0	504	624	
10	0	0	0	0	505	624	
11	0	0	0	0	505	624	
12	0	0	0	0	504	624	
13	0	0	0	0	504	624	
14	0	0	0	0	504	624	
15	0	0	0	0	503	624	
0	0	0	0	0	504	624	
1	0	0	0	0	504	624	
2	0	0	0	0	504	623	
3	0	0	0	0	504	624	
4	0	0	0	0	504	624	
5	0	0	0	0	504	624	
6	0	0	0	0	504	623	
7	0	0	0	0	504	624	
8	0	0	0	0	504	624	
9	0	0	0	0	504	623	
10	0	0	0	0	504	623	
11	0	0	0	0	504	624	
12	0	0	0	0	504	624	
13	0	0	0	0	504	624	
14	0	0	0	0	504	623	
15	0	0	0	0	504	623	
0	0	0	0	0	504	623	
1	0	0	0	0	504	623	
2	0	0	0	0	504	623	
3	0	0	0	0	504	624	
4	0	0	0	0	504	624	
5	0	0	0	0	504	623	
6	0	0	0	0	504	623	
7	0	0	0	0	504	623	
8	0	0	0	0	505	623	
9	0	0	0	0	505	624	
10	0	0	0	0	505	624	
11	0	0	0	0	505	624	
12	0	0	0	0	506	624	
13	0	0	0	0	507	624	
14	0	0	0	0	507	624	
15	0	0	0	0	507	624	
0	0	0	0	0	507	624	
1	0	0	0	0	506	624	
2	0	0	0	0	505	624	
3	0	0	0	0	503	624	
4	0	0	0	0	501	624	
5	0	0	0	0	498	624	
6	0	0	0	0	495	625	
7	0	0	0	0	491	624	
8	0	0	0	0	486	625	
9	0	0	0	0	480	625	
10	0	0	0	0	472	625	
11	0	0	0	0	463	625	
12	0	0	0	0	455	625	
13	0	0	0	0	445	624	
14	0	0	0	0	434	625	
15	0	0	0	0	422	625	
0	0	0	0	0	410	625	
1	0	0	0	0	398	625	
2	0	0	0	0	386	625	
3	0	0	0	0	374	624	
4	0	0	0	0	364	624	
5	0	0	0	0	356	624	
6	0	0	0	0	351	624	
7	0	0	0	0	349	624	
8	0	0	0	0	351	624	
9	0	0	0	0	356	624	
10	0	0	0	0	368	624	
11	0	0	0	0	384	625	
12	0	0	0	0	406	624	
13	0	0	0	0	431	624	
14	0	0	0	0	458	623	
15	0	0	0	0	489	624	
0	0	0	0	0	523	624	
1	0	0	0	0	561	624	
2	0	0	0	0	606	624	
3	0	0	0	0	655	624	
4	0	0	0	0	707	624	
5	0	0	0	0	760	624	
6	0	0	0	0	810	624	
7	0	0	0	0	861	624	
8	0	0	0	0	912	624	
9	0	0	0	0	958	624	
10	0	0	0	0	996	624	
11	0	0	0	0	1021	624	
12	0	0	0	0	1022	625	
13	0	0	0	0	1022	624	
14	0	0	0	0	1022	625	
15	0	0	0	0	1022	625	
0	0	0	0	0	1022	625	
1	0	0	0	0	1022	624	
2	0	0	0	0	1022	624	
3	0	0	0	0	1021	625	
4	0	0	0	0	1001	624	
5	0	0	0	0	978	624	
6	0	0	0	0	955	625	
7	0	0	0	0	930	625	
8	0	0	0	0	907	624	
9	0	0	0	0	884	625	
10	0	0	0	0	861	624	
11	0	0	0	0	840	624	
12	0	0	0	0	817	624	
13	0	0	0	0	793	624	
14	0	0	0	0	770	624	
15	0	0	0	0	745	624	
0	0	0	0	0	721	624	
1	0	0	0	0	697	623	
2	0	0	0	0	675	623	
3	0	0	0	0	652	624	
4	0	0	0	0	632	623	
5	0	0	0	0	612	623	
6	0	0	0	0	594	623	
7	0	0	0	0	575	623	
8	0	0	0	0	558	623	
9	0	0	0	0	541	623	
10	0	0	0	0	526	623	
11	0	0	0	0	511	624	
12	0	0	0	0	498	623	
13	0	0	0	0	487	623	
14	0	0	0	0	475	622	
15	0	0	0	0	464	623	
0	0	0	0	0	454	623	
1	0	0	0	0	444	623	
2	0	0	0	0	435	624	
3	0	0	0	0	426	624	
4	0	0	0	0	419	623	
5	0	0	0	0	413	623	
6	0	0	0	0	408	623	
7	0	0	0	0	403	624	
8	0	0	0	0	399	624	
9	0	0	0	0	397	623	
10	0	0	0	0	395	623	
11	0	0	0	0	393	624	
12	0	0	0	0	391	623	
13	0	0	0	0	390	623	
14	0	0	0	0	390	623	
15	0	0	0	0	389	624	
0	0	0	0	0	387	623	
1	0	0	0	0	387	623	
2	0	0	0	0	386	623	
3	0	0	0	0	386	623	
4	0	0	0	0	386	622	
5	0	0	0	0	385	622	
6	0	0	0	0	386	622	
7	0	0	0	0	387	622	
8	0	0	0	0	386	622	
9	0	0	0	0	386	622	
10	0	0	0	0	387	622	
11	0	0	0	0	387	623	
12	0	0	0	0	387	623	
13	0	0	0	0	388	622	
14	0	0	0	0	389	622	
15	0	0	0	0	389	622	
0	0	0	0	0	389	623	
1	0	0	0	0	390	622	
2	0	0	0	0	391	622	
3	0	0	0	0	392	622	
4	0	0	0	0	392	623	
5	0	0	0	0	393	622	
6	0	0	0	0	394	623	
7	0	0	0	0	395	622	
8	0	0	0	0	396	622	
9	0	0	0	0	397	623	
10	0	0	0	0	398	622	
11	0	0	0	0	399	624	
12	0	0	0	0	399	623	
13	0	0	0	0	399	623	
14	0	0	0	0	400	623	
15	0	0	0	0	401	624	
0	0	0	0	0	402	623	
1	0	0	0	0	403	623	
2	0	0	0	0	403	623	
3	0	0	0	0	406	624	
4	0	0	0	0	406	624	
5	0	0	0	0	408	623	
6	0	0	0	0	408	623	
7	0	0	0	0	409	623	
8	0	0	0	0	410	623	
9	0	0	0	0	411	623	
10	0	0	0	0	412	623	
11	0	0	0	0	413	623	
12	0	0	0	0	414	623	
13	0	0	0	0	415	624	
14	0	0	0	0	416	624	
15	0	0	0	0	417	624	
0	0	0	0	0	418	623	
1	0	0	0	0	419	623	
2	0	0	0	0	420	624	
3	0	0	0	0	421	624	
4	0	0	0	0	423	624	
5	0	0	0	0	423	624	
6	0	0	0	0	424	624	
7	0	0	0	0	426	624	
8	0	0	0	0	427	624	
9	0	0	0	0	428	624	
10	0	0	0	0	429	623	
11	0	0	0	0	429	624	
12	0	0	0	0	431	624	
13	0	0	0	0	432	624	
14	0	0	0	0	434	624	
15	0	0	0	0	434	624	
0	0	0	0	0	434	624	
1	0	0	0	0	435	624	
2	0	0	0	0	436	624	
3	0	0	0	0	436	625	
4	0	0	0	0	437	624	
5	0	0	0	0	438	624	
6	0	0	0	0	438	625	
7	0	0	0	0	439	624	
8	0	0	0	0	439	625	
9	0	0	0	0	440	624	
10	0	0	0	0	440	625	
11	0	0	0	0	442	625	
12	0	0	0	0	442	625	
13	0	0	0	0	444	625	
14	0	0	0	0	444	625	
15	0	0	0	0	444	625	
0	0	0	0	0	445	624	
1	0	0	0	0	446	625	
2	0	0	0	0	447	625	
3	0	0	0	0	447	625	
4	0	0	0	0	447	625	
5	0	0	0	0	447	625	
6	0	0	0	0	447	625	
7	0	0	0	0	448	626	
8	0	0	0	0	449	625	
9	0	0	0	0	448	625	
10	0	0	0	0	450	625	
11	0	0	0	0	451	626	
12	0	0	0	0	451	624	
13	0	0	0	0	452	624	
14	0	0	0	0	452	624	
15	0	0	0	0	453	624	
0	0	0	0	0	453	625	
1	0	0	0	0	454	625	
2	0	0	0	0	455	625	
3	0	0	0	0	456	625	
4	0	0	0	0	457	625	
5	0	0	0	0	457	624	
6	0	0	0	0	458	625	
7	0	0	0	0	458	624	
8	0	0	0	0	460	624	
9	0	0	0	0	460	624	
10	0	0	0	0	461	624	
11	0	0	0	0	462	624	
12	0	0	0	0	462	624	
13	0	0	0	0	463	624	
14	0	0	0	0	464	624	
15	0	0	0	0	464	624	
0	0	0	0	0	464	624	
1	0	0	0	0	465	624	
2	0	0	0	0	465	624	
3	0	0	0	0	466	624	
4	0	0	0	0	467	623	
5	0	0	0	0	467	623	
6	0	0	0	0	467	623	
7	0	0	0	0	468	623	
8	0	0	0	0	470	623	
9	0	0	0	0	470	624	
10	0	0	0	0	470	623	
11	0	0	0	0	472	624	
12	0	0	0	0	473	624	
13	0	0	0	0	474	624	
14	0	0	0	0	474	624	
15	0	0	0	0	474	624	
0	0	0	0	0	474	624	
1	0	0	0	0	475	623	
2	0	0	0	0	475	623	
3	0	0	0	0	475	624	
4	0	0	0	0	476	623	
5	0	0	0	0	476	624	
6	0	0	0	0	477	623	
7	0	0	0	0	478	624	
8	0	0	0	0	479	624	
9	0	0	0	0	480	624	
10	0	0	0	0	481	624	
11	0	0	0	0	482	624	
12	0	0	0	0	483	624	
13	0	0	0	0	484	624	
14	0	0	0	0	486	624	
15	0	0	0	0	487	624	
0	0	0	0	0	488	624	
1	0	0	0	0	490	624	
2	0	0	0	0	491	624	
3	0	0	0	0	492	624	
4	0	0	0	0	493	624	
5	0	0	0	0	494	624	
6	0	0	0	0	496	624	
7	0	0	0	0	498	624	
8	0	0	0	0	499	624	
9	0	0	0	0	500	624	
10	0	0	0	0	501	624	
11	0	0	0	0	503	624	
12	0	0	0	0	505	624	
13	0	0	0	0	507	623	
14	0	0	0	0	509	623	
15	0	0	0	0	510	624	
0	0	0	0	0	512	624	
1	0	0	0	0	512	624	
2	0	0	0	0	513	624	
3	0	0	0	0	514	624	
4	0	0	0	0	514	623	
5	0	0	0	0	515	624	
6	0	0	0	0	516	623	
7	0	0	0	0	516	624	
8	0	0	0	0	517	623	
9	0	0	0	0	517	623	
10	0	0	0	0	518	623	
11	0	0	0	0	518	624	
12	0	0	0	0	519	624	
13	0	0	0	0	521	624	
14	0	0	0	0	521	624	
15	0	0	0	0	523	624	
0	0	0	0	0	523	624	
1	0	0	0	0	524	625	
2	0	0	0	0	524	624	
3	0	0	0	0	524	624	
4	0	0	0	0	525	624	
5	0	0	0	0	526	624	
6	0	0	0	0	526	624	
7	0	0	0	0	527	624	
8	0	0	0	0	527	625	
9	0	0	0	0	527	624	
10	0	0	0	0	528	624	
11	0	0	0	0	527	625	
12	0	0	0	0	527	624	
13	0	0	0	0	527	624	
14	0	0	0	0	528	624	
15	0	0	0	0	528	624	
0	0	0	0	0	527	624	
1	0	0	0	0	527	624	
2	0	0	0	0	527	624	
3	0	0	0	0	527	624	
4	0	0	0	0	526	624	
5	0	0	0	0	526	624	
6	0	0	0	0	525	624	
7	0	0	0	0	524	624	
8	0	0	0	0	523	625	
9	0	0	0	0	523	624	
10	0	0	0	0	522	625	
11	0	0	0	0	521	625	
12	0	0	0	0	520	624	
13	0	0	0	0	520	625	
14	0	0	0	0	519	625	
15	0	0	0	0	519	625	
0	0	0	0	0	519	625	
1	0	0	0	0	518	625	
2	0	0	0	0	517	625	
3	0	0	0	0	515	625	
4	0	0	0	0	514	625	
5	0	0	0	0	513	625	
6	0	0	0	0	512	625	
7	0	0	0	0	511	625	
8	0	0	0	0	511	625	
9	0	0	0	0	510	624	
10	0	0	0	0	508	624	
11	0	0	0	0	508	625	
12	0	0	0	0	507	624	
13	0	0	0	0	506	624	
14	0	0	0	0	506	624	
15	0	0	0	0	505	624	
0	0	0	0	0	504	624	
1	0	0	0	0	503	625	
2	0	0	0	0	503	625	
3	0	0	0	0	502	625	
4	0	0	0	0	502	624	
5	0	0	0	0	501	624	
6	0	0	0	0	501	624	
7	0	0	0	0	500	624	
8	0	0	0	0	499	624	
9	0	0	0	0	499	624	
10	0	0	0	0	499	624	
11	0	0	0	0	499	624	
12	0	0	0	0	499	624	
13	0	0	0	0	499	624	
14	0	0	0	0	498	624	
15	0	0	0	0	498	624	
0	0	0	0	0	497	624	
1	0	0	0	0	496	624	
2	0	0	0	0	495	624	
3	0	0	0	0	494	624	
4	0	0	0	0	494	624	
5	0	0	0	0	494	625	
6	0	0	0	0	494	624	
7	0	0	0	0	494	625	
8	0	0	0	0	494	624	
9	0	0	0	0	493	624	
10	0	0	0	0	493	624	
11	0	0	0	0	493	625	
12	0	0	0	0	493	625	
13	0	0	0	0	493	625	
14	0	0	0	0	492	625	
15	0	0	0	0	493	625	
0	0	0	0	0	493	624	
1	0	0	0	0	493	624	
2	0	0	0	0	493	625	
3	0	0	0	0	493	625	
4	0	0	0	0	494	624	
5	0	0	0	0	495	624	
6	0	0	0	0	495	624	
7	0	0	0	0	496	625	
8	0	0	0	0	496	624	
9	0	0	0	0	496	625	
10	0	0	0	0	496	624	
11	0	0	0	0	497	625	
12	0	0	0	0	497	624	
13	0	0	0	0	498	624	
14	0	0	0	0	499	624	
15	0	0	0	0	499	625	
0	0	0	0	0	499	624	
1	0	0	0	0	500	624	
2	0	0	0	0	501	624	
3	0	0	0	0	502	625	
4	0	0	0	0	502	624	
5	0	0	0	0	502	624	
6	0	0	0	0	502	623	
7	0	0	0	0	502	624	
8	0	0	0	0	502	623	
9	0	0	0	0	502	623	
10	0	0	0	0	502	624	
11	0	0	0	0	501	624	
12	0	0	0	0	501	623	
13	0	0	0	0	501	623	
14	0	0	0	0	500	623	
15	0	0	0	0	499	623	
0	0	0	0	0	499	623	
1	0	0	0	0	498	623	
2	0	0	0	0	498	623	
3	0	0	0	0	497	624	
4	0	0	0	0	499	624	
5	0	0	0	0	499	624	
6	0	0	0	0	500	624	
7	0	0	0	0	501	624	
8	0	0	0	0	502	624	
9	0	0	0	0	502	624	
10	0	0	0	0	502	623	
11	0	0	0	0	503	624	
12	0	0	0	0	503	623	
13	0	0	0	0	503	624	
14	0	0	0	0	504	623	
15	0	0	0	0	504	623	
0	0	0	0	0	503	623	
1	0	0	0	0	503	624	
2	0	0	0	0	503	624	
3	0	0	0	0	502	624	
4	0	0	0	0	502	624	
5	0	0	0	0	502	624	
6	0	0	0	0	503	623	
7	0	0	0	0	502	624	
8	0	0	0	0	501	624	
9	0	0	0	0	501	624	
10	0	0	0	0	501	624	
11	0	0	0	0	501	624	
12	0	0	0	0	501	624	
13	0	0	0	0	500	624	
14	0	0	0	0	501	624	
15	0	0	0	0	502	624	
0	0	0	0	0	503	624	
1	0	0	0	0	504	624	
2	0	0	0	0	504	624	
3	0	0	0	0	504	624	
4	0	0	0	0	504	623	
5	0	0	0	0	505	623	
6	0	0	0	0	504	624	
7	0	0	0	0	504	624	
8	0	0	0	0	505	624	
9	0	0	0	0	505	624	
10	0	0	0	0	505	624	
11	0	0	0	0	505	624	
12	0	0	0	0	506	624	
13	0	0	0	0	506	624	
14	0	0	0	0	506	624	
15	0	0	0	0	507	623	
0	0	0	0	0	508	624	
1	0	0	0	0	508	624	
2	0	0	0	0	508	624	
3	0	0	0	0	509	624	
4	0	0	0	0	509	624	
5	0	0	0	0	510	624	
6	0	0	0	0	510	624	
7	0	0	0	0	510	624	
8	0	0	0	0	510	624	
9	0	0	0	0	510	624	
10	0	0	0	0	511	624	
11	0	0	0	0	509	625	
12	0	0	0	0	509	624	
13	0	0	0	0	509	624	
14	0	0	0	0	509	624	
15	0	0	0	0	508	625	
0	0	0	0	0	508	625	
1	0	0	0	0	508	624	
2	0	0	0	0	507	624	
3	0	0	0	0	506	625	
4	0	0	0	0	506	624	
5	0	0	0	0	507	624	
6	0	0	0	0	507	624	
7	0	0	0	0	508	624	
8	0	0	0	0	509	624	
9	0	0	0	0	509	624	
10	0	0	0	0	510	623	
11	0	0	0	0	510	624	
12	0	0	0	0	509	624	
13	0	0	0	0	510	624	
14	0	0	0	0	509	624	
15	0	0	0	0	509	624	
0	0	0	0	0	509	624	
1	0	0	0	0	508	624	
2	0	0	0	0	509	625	
3	0	0	0	0	509	625	
4	0	0	0	0	509	625	
5	0	0	0	0	509	624	
6	0	0	0	0	510	624	
7	0	0	0	0	511	625	
8	0	0	0	0	511	625	
9	0	0	0	0	511	625	
10	0	0	0	0	512	625	
11	0	0	0	0	512	626	
12	0	0	0	0	512	626	
13	0	0	0	0	512	625	
14	0	0	0	0	512	626	
15	0	0	0	0	513	626	
0	0	0	0	0	512	626	
1	0	0	0	0	512	626	
2	0	0	0	0	513	625	
3	0	0	0	0	512	626	
4	0	0	0	0	512	625	
5	0	0	0	0	512	625	
6	0	0	0	0	512	625	
7	0	0	0	0	512	626	
8	0	0	0	0	512	626	
9	0	0	0	0	512	625	
10	0	0	0	0	512	625	
11	0	0	0	0	511	626	
12	0	0	0	0	511	625	
13	0	0	0	0	511	625	
14	0	0	0	0	510	625	
15	0	0	0	0	511	625	
0	0	0	0	0	511	626	
1	0	0	0	0	511	625	
2	0	0	0	0	512	625	
3	0	0	0	0	511	625	
4	0	0	0	0	510	625	
5	0	0	0	0	510	625	
6	0	0	0	0	510	625	
7	0	0	0	0	510	625	
8	0	0	0	0	509	625	
9	0	0	0	0	509	625	
10	0	0	0	0	509	625	
11	0	0	0	0	509	625	
12	0	0	0	0	509	625	
13	0	0	0	0	510	625	
14	0	0	0	0	509	624	
15	0	0	0	0	510	624	
0	0	0	0	0	510	624	
1	0	0	0	0	510	624	
2	0	0	0	0	511	623	
3	0	0	0	0	512	624	
4	0	0	0	0	512	624	
5	0	0	0	0	512	624	
6	0	0	0	0	511	625	
7	0	0	0	0	511	625	
8	0	0	0	0	511	624	
9	0	0	0	0	512	624	
10	0	0	0	0	512	625	
11	0	0	0	0	513	625	
12	0	0	0	0	512	625	
13	0	0	0	0	513	624	
14	0	0	0	0	513	625	
15	0	0	0	0	514	624	
0	0	0	0	0	513	624	
1	0	0	0	0	514	624	
2	0	0	0	0	513	624	
3	0	0	0	0	514	624	
4	0	0	0	0	513	624	
5	0	0	0	0	513	624	
6	0	0	0	0	513	624	
7	0	0	0	0	512	623	
8	0	0	0	0	512	624	
9	0	0	0	0	512	623	
10	0	0	0	0	513	624	
11	0	0	0	0	513	624	
12	0	0	0	0	513	623	
13	0	0	0	0	513	623	
14	0	0	0	0	513	623	
15	0	0	0	0	513	624	
0	0	0	0	0	513	623	
1	0	0	0	0	513	623	
2	0	0	0	0	512	623	
3	0	0	0	0	512	624	
4	0	0	0	0	512	623	
5	0	0	0	0	511	623	
6	0	0	0	0	511	623	
7	0	0	0	0	511	623	
8	0	0	0	0	511	623	
9	0	0	0	0	512	623	
10	0	0	0	0	512	623	
11	0	0	0	0	512	623	
12	0	0	0	0	512	623	
13	0	0	0	0	512	622	
14	0	0	0	0	512	622	
15	0	0	0	0	512	623	
0	0	0	0	0	512	622	
1	0	0	0	0	512	622	
2	0	0	0	0	512	623	
3	0	0	0	0	512	623	
4	0	0	0	0	511	622	
5	0	0	0	0	511	622	
6	0	0	0	0	511	622	
7	0	0	0	0	510	623	
8	0	0	0	0	510	622	
9	0	0	0	0	510	622	
10	0	0	0	0	510	622	
11	0	0	0	0	511	623	
12	0	0	0	0	510	622	
13	0	0	0	0	510	622	
14	0	0	0	0	511	622	
15	0	0	0	0	511	622	
0	0	0	0	0	512	623	
1	0	0	0	0	512	622	
2	0	0	0	0	512	622	
3	0	0	0	0	512	623	
4	0	0	0	0	512	622	
5	0	0	0	0	511	622	
6	0	0	0	0	511	623	
7	0	0	0	0	510	623	
8	0	0	0	0	510	623	
9	0	0	0	0	510	622	
10	0	0	0	0	510	623	
11	0	0	0	0	510	623	
12	0	0	0	0	510	623	
13	0	0	0	0	511	623	
14	0	0	0	0	511	623	
15	0	0	0	0	512	623	
0	0	0	0	0	512	623	
1	0	0	0	0	513	624	
2	0	0	0	0	513	623	
3	0	0	0	0	513	624	
4	0	0	0	0	512	624	
5	0	0	0	0	512	624	
6	0	0	0	0	512	623	
7	0	0	0	0	512	624	
8	0	0	0	0	512	624	
9	0	0	0	0	511	624	
10	0	0	0	0	511	624	
11	0	0	0	0	510	624	
12	0	0	0	0	510	624	
13	0	0	0	0	510	624	
14	0	0	0	0	509	624	
15	0	0	0	0	509	625	
0	0	0	0	0	509	625	
1	0	0	0	0	509	624	
2	0	0	0	0	509	624	
3	0	0	0	0	510	625	
4	0	0	0	0	510	624	
5	0	0	0	0	510	625	
6	0	0	0	0	509	625	
7	0	0	0	0	508	625	
8	0	0	0	0	508	625	
9	0	0	0	0	509	625	
10	0	0	0	0	510	625	
11	0	0	0	0	510	625	
12	0	0	0	0	510	624	
13	0	0	0	0	510	625	
14	0	0	0	0	511	625	
15	0	0	0	0	511	624	
0	0	0	0	0	511	625	
1	0	0	0	0	510	625	
2	0	0	0	0	510	624	
3	0	0	0	0	510	625	
4	0	0	0	0	510	625	
5	0	0	0	0	509	625	
6	0	0	0	0	510	625	
7	0	0	0	0	510	624	
8	0	0	0	0	510	624	
9	0	0	0	0	511	624	
10	0	0	0	0	510	625	
11	0	0	0	0	511	625	
12	0	0	0	0	511	624	
13	0	0	0	0	511	625	
14	0	0	0	0	512	624	
15	0	0	0	0	512	624	
0	0	0	0	0	512	623	
1	0	0	0	0	512	624	
2	0	0	0	0	512	624	
3	0	0	0	0	512	624	
4	0	0	0	0	512	623	
5	0	0	0	0	512	624	
6	0	0	0	0	512	624	
7	0	0	0	0	511	624	
8	0	0	0	0	511	624	
9	0	0	0	0	511	624	
10	0	0	0	0	511	624	
11	0	0	0	0	511	624	
12	0	0	0	0	511	624	
13	0	0	0	0	511	624	
14	0	0	0	0	511	624	
15	0	0	0	0	511	624	
0	0	0	0	0	511	624	
1	0	0	0	0	511	625	
2	0	0	0	0	511	624	
3	0	0	0	0	511	625	
4	0	0	0	0	510	625	
5	0	0	0	0	510	625	
6	0	0	0	0	509	625	
7	0	0	0	0	508	626	
8	0	0	0	0	508	626	
9	0	0	0	0	508	625	
10	0	0	0	0	509	625	
11	0	0	0	0	509	626	
12	0	0	0	0	510	625	
13	0	0	0	0	510	625	
14	0	0	0	0	510	625	
15	0	0	0	0	510	625	
0	0	0	0	0	510	625	
1	0	0	0	0	510	625	
2	0	0	0	0	509	625	
3	0	0	0	0	509	625	
4	0	0	0	0	509	625	
5	0	0	0	0	510	625	
6	0	0	0	0	510	625	
7	0	0	0	0	510	625	
8	0	0	0	0	510	624	
9	0	0	0	0	510	625	
10	0	0	0	0	510	624	
11	0	0	0	0	511	624	
12	0	0	0	0	511	624	
13	0	0	0	0	511	624	
14	0	0	0	0	512	624	
15	0	0	0	0	512	624	
0	0	0	0	0	512	624	
1	0	0	0	0	512	624	
2	0	0	0	0	511	623	
3	0	0	0	0	512	624	
4	0	0	0	0	512	624	
5	0	0	0	0	512	624	
6	0	0	0	0	512	623	
7	0	0	0	0	511	623	
8	0	0	0	0	511	623	
9	0	0	0	0	510	623	
10	0	0	0	0	510	623	
11	0	0	0	0	510	623	
12	0	0	0	0	511	623	
13	0	0	0	0	511	623	
14	0	0	0	0	511	623	
15	0	0	0	0	511	624	
0	0	0	0	0	512	623	
1	0	0	0	0	512	623	
2	0	0	0	0	512	623	
3	0	0	0	0	512	624	
4	0	0	0	0	512	624	
5	0	0	0	0	513	624	
6	0	0	0	0	513	624	
7	0	0	0	0	514	624	
8	0	0	0	0	514	623	
9	0	0	0	0	514	624	
10	0	0	0	0	513	624	
11	0	0	0	0	512	624	
12	0	0	0	0	511	624	
13	0	0	0	0	509	623	
14	0	0	0	0	508	624	
15	0	0	0	0	508	624	
0	0	0	0	0	508	623	
1	0	0	0	0	509	623	
2	0	0	0	0	509	623	
3	0	0	0	0	510	624	
4	0	0	0	0	511	623	
5	0	0	0	0	512	623	
6	0	0	0	0	513	623	
7	0	0	0	0	515	623	
8	0	0	0	0	516	623	
9	0	0	0	0	516	623	
10	0	0	0	0	517	623	
11	0	0	0	0	517	624	
12	0	0	0	0	517	623	
13	0	0	0	0	517	622	
14	0	0	0	0	516	623	
15	0	0	0	0	515	623	
0	0	0	0	0	516	623	
1	0	0	0	0	516	623	
2	0	0	0	0	516	623	
3	0	0	0	0	515	623	
4	0	0	0	0	515	622	
5	0	0	0	0	515	623	
6	0	0	0	0	515	623	
7	0	0	0	0	515	623	
8	0	0	0	0	515	623	
9	0	0	0	0	515	624	
10	0	0	0	0	515	624	
11	0	0	0	0	514	625	
12	0	0	0	0	514	624	
13	0	0	0	0	515	624	
14	0	0	0	0	515	624	
15	0	0	0	0	515	625	
0	0	0	0	0	514	624	
1	0	0	0	0	515	624	
2	0	0	0	0	515	624	
3	0	0	0	0	515	624	
4	0	0	0	0	516	624	
5	0	0	0	0	516	623	
6	0	0	0	0	516	624	
7	0	0	0	0	516	624	
8	0	0	0	0	516	623	
9	0	0	0	0	516	624	
10	0	0	0	0	516	623	
11	0	0	0	0	516	624	
12	0	0	0	0	515	624	
13	0	0	0	0	514	623	
14	0	0	0	0	513	624	
15	0	0	0	0	512	625	
0	0	0	0	0	511	624	
1	0	0	0	0	511	624	
2	0	0	0	0	510	624	
3	0	0	0	0	509	624	
4	0	0	0	0	508	625	
5	0	0	0	0	507	624	
6	0	0	0	0	507	625	
7	0	0	0	0	506	625	
8	0	0	0	0	506	625	
9	0	0	0	0	505	624	
10	0	0	0	0	506	624	
11	0	0	0	0	506	624	
12	0	0	0	0	506	624	
13	0	0	0	0	506	625	
14	0	0	0	0	507	625	
15	0	0	0	0	508	625	
0	0	0	0	0	509	625	
1	0	0	0	0	510	625	
2	0	0	0	0	511	625	
3	0	0	0	0	512	626	
4	0	0	0	0	512	625	
5	0	0	0	0	513	625	
6	0	0	0	0	513	625	
7	0	0	0	0	513	625	
8	0	0	0	0	513	625	
9	0	0	0	0	514	624	
10	0	0	0	0	514	625	
11	0	0	0	0	514	625	
12	0	0	0	0	515	624	
13	0	0	0	0	515	624	
14	0	0	0	0	515	624	
15	0	0	0	0	515	624	
0	0	0	0	0	515	624	
1	0	0	0	0	516	624	
2	0	0	0	0	516	624	
3	0	0	0	0	516	624	
4	0	0	0	0	516	624	
5	0	0	0	0	518	624	
6	0	0	0	0	519	623	
7	0	0	0	0	519	624	
8	0	0	0	0	520	624	
9	0	0	0	0	520	624	
10	0	0	0	0	521	624	
11	0	0	0	0	522	624	
12	0	0	0	0	522	624	
13	0	0	0	0	523	624	
14	0	0	0	0	523	624	
15	0	0	0	0	523	624	
0	0	0	0	0	524	624	
1	0	0	0	0	524	624	
2	0	0	0	0	524	624	
3	0	0	0	0	524	624	
4	0	0	0	0	524	624	
5	0	0	0	0	524	624	
6	0	0	0	0	523	624	
7	0	0	0	0	523	624	
8	0	0	0	0	523	624	
9	0	0	0	0	523	624	
10	0	0	0	0	523	624	
11	0	0	0	0	521	624	
12	0	0	0	0	521	624	
13	0	0	0	0	520	624	
14	0	0	0	0	521	623	
15	0	0	0	0	521	624	
0	0	0	0	0	520	624	
1	0	0	0	0	520	624	
2	0	0	0	0	519	624	
3	0	0	0	0	518	624	
4	0	0	0	0	518	624	
5	0	0	0	0	517	624	
6	0	0	0	0	516	624	
7	0	0	0	0	516	624	
8	0	0	0	0	516	624	
9	0	0	0	0	516	624	
10	0	0	0	0	515	625	
11	0	0	0	0	515	624	
12	0	0	0	0	515	624	
13	0	0	0	0	514	625	
14	0	0	0	0	514	625	
15	0	0	0	0	514	624	
0	0	0	0	0	513	624	
1	0	0	0	0	513	624	
2	0	0	0	0	513	624	
3	0	0	0	0	513	624	
4	0	0	0	0	512	624	
5	0	0	0	0	512	624	
6	0	0	0	0	512	624	
7	0	0	0	0	512	624	
8	0	0	0	0	512	624	
9	0	0	0	0	512	624	
10	0	0	0	0	512	624	
11	0	0	0	0	513	624	
12	0	0	0	0	513	624	
13	0	0	0	0	513	624	
14	0	0	0	0	514	624	
15	0	0	0	0	513	624	
0	0	0	0	0	512	624	
1	0	0	0	0	512	624	
2	0	0	0	0	511	624	
3	0	0	0	0	511	624	
4	0	0	0	0	511	623	
5	0	0	0	0	510	624	
6	0	0	0	0	510	623	
7	0	0	0	0	510	623	
8	0	0	0	0	510	624	
9	0	0	0	0	510	623	
10	0	0	0	0	510	624	
11	0	0	0	0	510	623	
12	0	0	0	0	510	623	
13	0	0	0	0	510	623	
14	0	0	0	0	509	624	
15	0	0	0	0	508	624	
0	0	0	0	0	508	624	
1	0	0	0	0	507	624	
2	0	0	0	0	507	624	
3	0	0	0	0	507	624	
4	0	0	0	0	507	624	
5	0	0	0	0	507	623	
6	0	0	0	0	508	624	
7	0	0	0	0	508	624	
8	0	0	0	0	507	623	
9	0	0	0	0	506	623	
10	0	0	0	0	505	623	
11	0	0	0	0	504	623	
12	0	0	0	0	504	623	
13	0	0	0	0	504	624	
14	0	0	0	0	503	623	
15	0	0	0	0	503	624	
0	0	0	0	0	503	623	
1	0	0	0	0	503	623	
2	0	0	0	0	504	623	
3	0	0	0	0	504	623	
4	0	0	0	0	505	623	
5	0	0	0	0	505	623	
6	0	0	0	0	505	623	
7	0	0	0	0	506	623	
8	0	0	0	0	505	623	
9	0	0	0	0	504	623	
10	0	0	0	0	501	623	
11	0	0	0	0	497	624	
12	0	0	0	0	492	623	
13	0	0	0	0	486	622	
14	0	0	0	0	479	623	
15	0	0	0	0	470	623	
0	0	0	0	0	461	623	
1	0	0	0	0	451	623	
2	0	0	0	0	439	623	
3	0	0	0	0	427	623	
4	0	0	0	0	414	623	
5	0	0	0	0	401	622	
6	0	0	0	0	388	622	
7	0	0	0	0	376	622	
8	0	0	0	0	364	622	
9	0	0	0	0	355	622	
10	0	0	0	0	351	622	
11	0	0	0	0	348	623	
12	0	0	0	0	350	622	
13	0	0	0	0	354	622	
14	0	0	0	0	364	622	
15	0	0	0	0	380	623	
0	0	0	0	0	400	623	
1	0	0	0	0	425	623	
2	0	0	0	0	452	623	
3	0	0	0	0	483	624	
4	0	0	0	0	516	623	
5	0	0	0	0	553	623	
6	0	0	0	0	595	623	
7	0	0	0	0	641	624	
8	0	0	0	0	692	624	
9	0	0	0	0	745	625	
10	0	0	0	0	799	624	
11	0	0	0	0	852	624	
12	0	0	0	0	910	624	
13	0	0	0	0	963	624	
14	0	0	0	0	1007	624	
15	0	0	0	0	1022	624	
0	0	0	0	0	1022	624	
1	0	0	0	0	1022	624	
2	0	0	0	0	1022	624	
3	0	0	0	0	1022	624	
4	0	0	0	0	1022	623	
5	0	0	0	0	1022	624	
6	0	0	0	0	1021	623	
7	0	0	0	0	999	624	
8	0	0	0	0	967	624	
9	0	0	0	0	935	624	
10	0	0	0	0	903	623	
11	0	0	0	0	873	623	
12	0	0	0	0	844	623	
13	0	0	0	0	813	623	
14	0	0	0	0	785	623	
15	0	0	0	0	760	623	
0	0	0	0	0	737	623	
1	0	0	0	0	717	623	
2	0	0	0	0	698	624	
3	0	0	0	0	679	623	
4	0	0	0	0	662	623	
5	0	0	0	0	645	624	
6	0	0	0	0	628	624	
7	0	0	0	0	612	624	
8	0	0	0	0	598	624	
9	0	0	0	0	585	624	
10	0	0	0	0	571	623	
11	0	0	0	0	559	624	
12	0	0	0	0	546	624	
13	0	0	0	0	536	624	
14	0	0	0	0	525	623	
15	0	0	0	0	515	623	
0	0	0	0	0	504	624	
1	0	0	0	0	495	623	
2	0	0	0	0	484	623	
3	0	0	0	0	475	623	
4	0	0	0	0	466	623	
5	0	0	0	0	458	623	
6	0	0	0	0	450	624	
7	0	0	0	0	443	623	
8	0	0	0	0	436	623	
9	0	0	0	0	431	624	
10	0	0	0	0	425	624	
11	0	0	0	0	420	624	
12	0	0	0	0	416	624	
13	0	0	0	0	412	623	
14	0	0	0	0	409	624	
15	0	0	0	0	407	624	
0	0	0	0	0	404	624	
1	0	0	0	0	403	624	
2	0	0	0	0	401	624	
3	0	0	0	0	400	625	
4	0	0	0	0	399	624	
5	0	0	0	0	398	624	
6	0	0	0	0	398	624	
7	0	0	0	0	398	624	
8	0	0	0	0	397	624	
9	0	0	0	0	396	624	
10	0	0	0	0	396	624	
11	0	0	0	0	396	624	
12	0	0	0	0	396	624	
13	0	0	0	0	396	624	
14	0	0	0	0	396	624	
15	0	0	0	0	396	624	
0	0	0	0	0	397	624	
1	0	0	0	0	398	624	
2	0	0	0	0	399	623	
3	0	0	0	0	399	624	
4	0	0	0	0	399	623	
5	0	0	0	0	400	623	
6	0	0	0	0	401	624	
7	0	0	0	0	401	623	
8	0	0	0	0	402	624	
9	0	0	0	0	403	623	
10	0	0	0	0	403	623	
11	0	0	0	0	404	624	
12	0	0	0	0	405	623	
13	0	0	0	0	406	624	
14	0	0	0	0	406	624	
15	0	0	0	0	406	623	
0	0	0	0	0	406	624	
1	0	0	0	0	407	624	
2	0	0	0	0	408	624	
3	0	0	0	0	408	625	
4	0	0	0	0	409	624	
5	0	0	0	0	410	624	
6	0	0	0	0	410	624	
7	0	0	0	0	411	624	
8	0	0	0	0	413	624	
9	0	0	0	0	414	624	
10	0	0	0	0	414	624	
11	0	0	0	0	415	625	
12	0	0	0	0	416	625	
13	0	0	0	0	417	625	
14	0	0	0	0	417	625	
15	0	0	0	0	418	625	
0	0	0	0	0	419	625	
1	0	0	0	0	420	625	
2	0	0	0	0	422	625	
3	0	0	0	0	423	625	
4	0	0	0	0	423	624	
5	0	0	0	0	425	624	
6	0	0	0	0	426	624	
7	0	0	0	0	427	624	
8	0	0	0	0	428	624	
9	0	0	0	0	429	624	
10	0	0	0	0	430	623	
11	0	0	0	0	430	623	
12	0	0	0	0	431	624	
13	0	0	0	0	431	623	
14	0	0	0	0	432	623	
15	0	0	0	0	432	623	
0	0	0	0	0	433	623	
1	0	0	0	0	434	623	
2	0	0	0	0	435	623	
3	0	0	0	0	435	624	
4	0	0	0	0	435	623	
5	0	0	0	0	436	623	
6	0	0	0	0	438	623	
7	0	0	0	0	439	623	
8	0	0	0	0	440	623	
9	0	0	0	0	440	623	
10	0	0	0	0	442	623	
11	0	0	0	0	443	624	
12	0	0	0	0	445	624	
13	0	0	0	0	445	623	
14	0	0	0	0	447	623	
15	0	0	0	0	447	623	
0	0	0	0	0	447	623	
1	0	0	0	0	449	623	
2	0	0	0	0	449	622	
3	0	0	0	0	449	623	
4	0	0	0	0	450	622	
5	0	0	0	0	451	622	
6	0	0	0	0	452	623	
7	0	0	0	0	452	622	
8	0	0	0	0	452	622	
9	0	0	0	0	453	623	
10	0	0	0	0	453	622	
11	0	0	0	0	454	623	
12	0	0	0	0	455	622	
13	0	0	0	0	455	622	
14	0	0	0	0	455	622	
15	0	0	0	0	456	623	
0	0	0	0	0	456	622	
1	0	0	0	0	456	623	
2	0	0	0	0	456	623	
3	0	0	0	0	457	623	
4	0	0	0	0	458	624	
5	0	0	0	0	459	624	
6	0	0	0	0	460	624	
7	0	0	0	0	461	623	
8	0	0	0	0	462	624	
9	0	0	0	0	462	624	
10	0	0	0	0	463	624	
11	0	0	0	0	464	624	
12	0	0	0	0	465	624	
13	0	0	0	0	467	624	
14	0	0	0	0	467	624	
15	0	0	0	0	468	625	
0	0	0	0	0	469	624	
1	0	0	0	0	470	624	
2	0	0	0	0	472	624	
3	0	0	0	0	472	625	
4	0	0	0	0	473	624	
5	0	0	0	0	474	624	
6	0	0	0	0	474	624	
7	0	0	0	0	475	624	
8	0	0	0	0	476	624	
9	0	0	0	0	476	624	
10	0	0	0	0	477	623	
11	0	0	0	0	478	624	
12	0	0	0	0	479	624	
13	0	0	0	0	479	624	
14	0	0	0	0	480	623	
15	0	0	0	0	481	624	
0	0	0	0	0	481	624	
1	0	0	0	0	482	623	
2	0	0	0	0	483	623	
3	0	0	0	0	483	624	
4	0	0	0	0	484	623	
5	0	0	0	0	484	623	
6	0	0	0	0	486	624	
7	0	0	0	0	487	624	
8	0	0	0	0	488	623	
9	0	0	0	0	489	624	
10	0	0	0	0	491	624	
11	0	0	0	0	492	624	
12	0	0	0	0	492	624	
13	0	0	0	0	493	623	
14	0	0	0	0	495	623	
15	0	0	0	0	496	623	
0	0	0	0	0	497	623	
1	0	0	0	0	498	624	
2	0	0	0	0	499	623	
3	0	0	0	0	501	624	
4	0	0	0	0	502	624	
5	0	0	0	0	504	624	
6	0	0	0	0	504	623	
7	0	0	0	0	505	624	
8	0	0	0	0	506	623	
9	0	0	0	0	507	624	
10	0	0	0	0	508	624	
11	0	0	0	0	509	625	
12	0	0	0	0	511	624	
13	0	0	0	0	511	624	
14	0	0	0	0	512	624	
15	0	0	0	0	514	624	
0	0	0	0	0	515	624	
1	0	0	0	0	516	624	
2	0	0	0	0	517	624	
3	0	0	0	0	519	624	
4	0	0	0	0	520	624	
5	0	0	0	0	521	624	
6	0	0	0	0	522	624	
7	0	0	0	0	523	624	
8	0	0	0	0	524	624	
9	0	0	0	0	525	624	
10	0	0	0	0	526	624	
11	0	0	0	0	527	624	
12	0	0	0	0	527	624	
13	0	0	0	0	529	624	
14	0	0	0	0	530	624	
15	0	0	0	0	530	624	
0	0	0	0	0	530	624	
1	0	0	0	0	531	624	
2	0	0	0	0	531	624	
3	0	0	0	0	533	624	
4	0	0	0	0	533	623	
5	0	0	0	0	534	624	
6	0	0	0	0	534	624	
7	0	0	0	0	534	623	
8	0	0	0	0	534	624	
9	0	0	0	0	533	624	
10	0	0	0	0	533	623	
11	0	0	0	0	532	623	
12	0	0	0	0	532	623	
13	0	0	0	0	532	624	
14	0	0	0	0	531	623	
15	0	0	0	0	530	624	
0	0	0	0	0	530	623	
1	0	0	0	0	528	624	
2	0	0	0	0	527	623	
3	0	0	0	0	526	624	
4	0	0	0	0	526	623	
5	0	0	0	0	524	623	
6	0	0	0	0	523	623	
7	0	0	0	0	522	624	
8	0	0	0	0	521	623	
9	0	0	0	0	519	623	
10	0	0	0	0	518	623	
11	0	0	0	0	517	624	
12	0	0	0	0	515	623	
13	0	0	0	0	513	623	
14	0	0	0	0	512	623	
15	0	0	0	0	510	624	
0	0	0	0	0	508	623	
1	0	0	0	0	506	623	
2	0	0	0	0	504	623	
3	0	0	0	0	502	623	
4	0	0	0	0	501	623	
5	0	0	0	0	499	623	
6	0	0	0	0	498	623	
7	0	0	0	0	496	623	
8	0	0	0	0	494	622	
9	0	0	0	0	492	623	
10	0	0	0	0	492	623	
11	0	0	0	0	490	624	
12	0	0	0	0	489	623	
13	0	0	0	0	487	623	
14	0	0	0	0	485	623	
15	0	0	0	0	483	623	
0	0	0	0	0	482	623	
1	0	0	0	0	480	623	
2	0	0	0	0	479	622	
3	0	0	0	0	478	623	
4	0	0	0	0	478	622	
5	0	0	0	0	476	623	
6	0	0	0	0	475	623	
7	0	0	0	0	474	623	
8	0	0	0	0	473	623	
9	0	0	0	0	472	623	
10	0	0	0	0	472	623	
11	0	0	0	0	470	624	
12	0	0	0	0	470	623	
13	0	0	0	0	469	623	
14	0	0	0	0	468	623	
15	0	0	0	0	468	625	
0	0	0	0	0	467	624	
1	0	0	0	0	466	624	
2	0	0	0	0	466	624	
3	0	0	0	0	465	624	
4	0	0	0	0	465	624	
5	0	0	0	0	465	624	
6	0	0	0	0	465	624	
7	0	0	0	0	465	624	
8	0	0	0	0	465	624	
9	0	0	0	0	465	624	
10	0	0	0	0	466	624	
11	0	0	0	0	467	624	
12	0	0	0	0	466	624	
13	0	0	0	0	466	624	
14	0	0	0	0	466	624	
15	0	0	0	0	467	624	
0	0	0	0	0	467	624	
1	0	0	0	0	467	624	
2	0	0	0	0	468	624	
3	0	0	0	0	468	625	
4	0	0	0	0	468	624	
5	0	0	0	0	469	625	
6	0	0	0	0	469	625	
7	0	0	0	0	469	625	
8	0	0	0	0	470	625	
9	0	0	0	0	470	625	
10	0	0	0	0	470	625	
11	0	0	0	0	470	625	
12	0	0	0	0	470	624	
13	0	0	0	0	470	625	
14	0	0	0	0	471	624	
15	0	0	0	0	471	625	
0	0	0	0	0	472	625	
1	0	0	0	0	472	624	
2	0	0	0	0	472	624	
3	0	0	0	0	472	624	
4	0	0	0	0	472	624	
5	0	0	0	0	471	624	
6	0	0	0	0	471	624	
7	0	0	0	0	472	625	
8	0	0	0	0	472	624	
9	0	0	0	0	472	625	
10	0	0	0	0	472	624	
11	0	0	0	0	472	624	
12	0	0	0	0	472	625	
13	0	0	0	0	472	624	
14	0	0	0	0	473	624	
15	0	0	0	0	474	624	
0	0	0	0	0	474	624	
1	0	0	0	0	474	624	
2	0	0	0	0	474	624	
3	0	0	0	0	475	624	
4	0	0	0	0	475	624	
5	0	0	0	0	476	624	
6	0	0	0	0	477	624	
7	0	0	0	0	476	624	
8	0	0	0	0	477	624	
9	0	0	0	0	477	624	
10	0	0	0	0	477	624	
11	0	0	0	0	478	624	
12	0	0	0	0	478	624	
13	0	0	0	0	478	624	
14	0	0	0	0	479	624	
15	0	0	0	0	478	624	
0	0	0	0	0	479	624	
1	0	0	0	0	479	624	
2	0	0	0	0	479	624	
3	0	0	0	0	480	623	
4	0	0	0	0	480	623	
5	0	0	0	0	481	623	
6	0	0	0	0	482	623	
7	0	0	0	0	483	624	
8	0	0	0	0	484	623	
9	0	0	0	0	484	624	
10	0	0	0	0	485	623	
11	0	0	0	0	486	624	
12	0	0	0	0	486	624	
13	0	0	0	0	485	624	
14	0	0	0	0	485	623	
15	0	0	0	0	486	624	
0	0	0	0	0	486	624	
1	0	0	0	0	487	623	
2	0	0	0	0	487	623	
3	0	0	0	0	487	623	
4	0	0	0	0	487	624	
5	0	0	0	0	488	624	
6	0	0	0	0	488	623	
7	0	0	0	0	489	624	
8	0	0	0	0	488	624	
9	0	0	0	0	488	623	
10	0	0	0	0	488	623	
11	0	0	0	0	488	624	
12	0	0	0	0	488	624	
13	0	0	0	0	488	623	
14	0	0	0	0	489	624	
15	0	0	0	0	489	623	
0	0	0	0	0	490	624	
1	0	0	0	0	490	624	
2	0	0	0	0	490	624	
3	0	0	0	0	489	625	
4	0	0	0	0	489	624	
5	0	0	0	0	490	624	
6	0	0	0	0	490	624	
7	0	0	0	0	490	625	
8	0	0	0	0	491	625	
9	0	0	0	0	490	624	
10	0	0	0	0	491	624	
11	0	0	0	0	492	625	
12	0	0	0	0	492	624	
13	0	0	0	0	493	624	
14	0	0	0	0	493	624	
15	0	0	0	0	494	624	
0	0	0	0	0	495	624	
1	0	0	0	0	495	624	
2	0	0	0	0	496	624	
3	0	0	0	0	496	625	
4	0	0	0	0	496	624	
5	0	0	0	0	496	624	
6	0	0	0	0	497	624	
7	0	0	0	0	497	624	
8	0	0	0	0	497	624	
9	0	0	0	0	498	624	
10	0	0	0	0	498	625	
11	0	0	0	0	499	624	
12	0	0	0	0	499	624	
13	0	0	0	0	499	624	
14	0	0	0	0	500	624	
15	0	0	0	0	499	624	
0	0	0	0	0	500	624	
1	0	0	0	0	500	624	
2	0	0	0	0	500	625	
3	0	0	0	0	500	625	
4	0	0	0	0	499	625	
5	0	0	0	0	500	624	
6	0	0	0	0	500	625	
7	0	0	0	0	499	625	
8	0	0	0	0	499	626	
9	0	0	0	0	499	625	
10	0	0	0	0	499	624	
11	0	0	0	0	499	626	
12	0	0	0	0	499	625	
13	0	0	0	0	500	625	
14	0	0	0	0	500	625	
15	0	0	0	0	500	625	
0	0	0	0	0	500	625	
1	0	0	0	0	499	625	
2	0	0	0	0	499	625	
3	0	0	0	0	500	625	
4	0	0	0	0	501	625	
5	0	0	0	0	502	625	
6	0	0	0	0	502	626	
7	0	0	0	0	502	625	
8	0	0	0	0	503	625	
9	0	0	0	0	503	625	
10	0	0	0	0	503	625	
11	0	0	0	0	503	625	
12	0	0	0	0	503	624	
13	0	0	0	0	503	625	
14	0	0	0	0	503	624	
15	0	0	0	0	503	624	
0	0	0	0	0	503	624	
1	0	0	0	0	503	624	
2	0	0	0	0	504	624	
3	0	0	0	0	503	624	
4	0	0	0	0	503	624	
5	0	0	0	0	504	623	
6	0	0	0	0	504	623	
7	0	0	0	0	503	623	
8	0	0	0	0	503	622	
9	0	0	0	0	502	622	
10	0	0	0	0	502	622	
11	0	0	0	0	502	623	
12	0	0	0	0	502	623	
13	0	0	0	0	502	622	
14	0	0	0	0	502	624	
15	0	0	0	0	502	624	
0	0	0	0	0	502	624	
1	0	0	0	0	503	624	
2	0	0	0	0	502	624	
3	0	0	0	0	503	625	
4	0	0	0	0	504	625	
5	0	0	0	0	504	625	
6	0	0	0	0	504	625	
7	0	0	0	0	505	626	
8	0	0	0	0	505	625	
9	0	0	0	0	505	625	
10	0	0	0	0	505	625	
11	0	0	0	0	505	625	
12	0	0	0	0	505	624	
13	0	0	0	0	505	626	
14	0	0	0	0	505	625	
15	0	0	0	0	506	625	
0	0	0	0	0	506	625	
1	0	0	0	0	506	625	
2	0	0	0	0	506	625	
3	0	0	0	0	506	624	
4	0	0	0	0	506	624	
5	0	0	0	0	506	624	
6	0	0	0	0	506	624	
7	0	0	0	0	507	624	
8	0	0	0	0	507	624	
9	0	0	0	0	507	624	
10	0	0	0	0	506	624	
11	0	0	0	0	507	625	
12	0	0	0	0	507	624	
13	0	0	0	0	507	624	
14	0	0	0	0	507	623	
15	0	0	0	0	508	623	
0	0	0	0	0	507	623	
1	0	0	0	0	507	623	
2	0	0	0	0	507	623	
3	0	0	0	0	507	624	
4	0	0	0	0	507	623	
5	0	0	0	0	507	623	
6	0	0	0	0	507	623	
7	0	0	0	0	507	624	
8	0	0	0	0	507	623	
9	0	0	0	0	507	623	
10	0	0	0	0	507	623	
11	0	0	0	0	507	623	
12	0	0	0	0	507	623	
13	0	0	0	0	507	623	
14	0	0	0	0	506	623	
15	0	0	0	0	505	623	
0	0	0	0	0	505	624	
1	0	0	0	0	505	624	
2	0	0	0	0	506	624	
3	0	0	0	0	506	624	
4	0	0	0	0	506	624	
5	0	0	0	0	507	625	
6	0	0	0	0	507	624	
7	0	0	0	0	507	624	
8	0	0	0	0	507	624	
9	0	0	0	0	508	624	
10	0	0	0	0	507	624	
11	0	0	0	0	507	624	
12	0	0	0	0	507	624	
13	0	0	0	0	507	624	
14	0	0	0	0	507	624	
15	0	0	0	0	508	625	
0	0	0	0	0	508	624	
1	0	0	0	0	508	624	
2	0	0	0	0	508	624	
3	0	0	0	0	508	624	
4	0	0	0	0	508	624	
5	0	0	0	0	509	624	
6	0	0	0	0	509	624	
7	0	0	0	0	510	624	
8	0	0	0	0	510	625	
9	0	0	0	0	509	625	
10	0	0	0	0	509	624	
11	0	0	0	0	509	625	
12	0	0	0	0	510	625	
13	0	0	0	0	510	625	
14	0	0	0	0	511	624	
15	0	0	0	0	510	624	
0	0	0	0	0	510	624	
1	0	0	0	0	510	624	
2	0	0	0	0	510	624	
3	0	0	0	0	510	625	
4	0	0	0	0	510	624	
5	0	0	0	0	510	625	
6	0	0	0	0	510	625	
7	0	0	0	0	510	625	
8	0	0	0	0	510	625	
9	0	0	0	0	511	625	
10	0	0	0	0	511	625	
11	0	0	0	0	512	626	
12	0	0	0	0	511	626	
13	0	0	0	0	512	625	
14	0	0	0	0	511	626	
15	0	0	0	0	511	625	
0	0	0	0	0	511	625	
1	0	0	0	0	511	625	
2	0	0	0	0	511	625	
3	0	0	0	0	512	625	
4	0	0	0	0	512	626	
5	0	0	0	0	511	626	
6	0	0	0	0	512	625	
7	0	0	0	0	512	626	
8	0	0	0	0	512	625	
9	0	0	0	0	512	624	
10	0	0	0	0	511	624	
11	0	0	0	0	512	625	
12	0	0	0	0	511	625	
13	0	0	0	0	511	624	
14	0	0	0	0	511	624	
15	0	0	0	0	511	624	
0	0	0	0	0	511	624	
1	0	0	0	0	511	625	
2	0	0	0	0	512	624	
3	0	0	0	0	512	624	
4	0	0	0	0	512	624	
5	0	0	0	0	512	624	
6	0	0	0	0	512	624	
7	0	0	0	0	513	624	
8	0	0	0	0	512	624	
9	0	0	0	0	513	624	
10	0	0	0	0	513	624	
11	0	0	0	0	513	625	
12	0	0	0	0	513	623	
13	0	0	0	0	513	623	
14	0	0	0	0	513	623	
15	0	0	0	0	513	624	
0	0	0	0	0	514	624	
1	0	0	0	0	514	623	
2	0	0	0	0	514	624	
3	0	0	0	0	514	624	
4	0	0	0	0	513	623	
5	0	0	0	0	514	623	
6	0	0	0	0	514	623	
7	0	0	0	0	513	623	
8	0	0	0	0	513	623	
9	0	0	0	0	514	623	
10	0	0	0	0	514	623	
11	0	0	0	0	514	623	
12	0	0	0	0	514	623	
13	0	0	0	0	514	622	
14	0	0	0	0	514	623	
15	0	0	0	0	515	623	
0	0	0	0	0	514	624	
1	0	0	0	0	515	623	
2	0	0	0	0	514	623	
3	0	0	0	0	514	624	
4	0	0	0	0	515	624	
5	0	0	0	0	515	624	
6	0	0	0	0	515	624	
7	0	0	0	0	515	624	
8	0	0	0	0	515	624	
9	0	0	0	0	516	624	
10	0	0	0	0	515	625	
11	0	0	0	0	514	625	
12	0	0	0	0	514	625	
13	0	0	0	0	515	624	
14	0	0	0	0	515	625	
15	0	0	0	0	514	625	
0	0	0	0	0	514	625	
1	0	0	0	0	513	625	
2	0	0	0	0	514	625	
3	0	0	0	0	513	625	
4	0	0	0	0	513	624	
5	0	0	0	0	513	624	
6	0	0	0	0	513	624	
7	0	0	0	0	512	624	
8	0	0	0	0	512	625	
9	0	0	0	0	512	624	
10	0	0	0	0	512	624	
11	0	0	0	0	512	624	
12	0	0	0	0	511	623	
13	0	0	0	0	511	624	
14	0	0	0	0	510	623	
15	0	0	0	0	509	623	
0	0	0	0	0	508	623	
1	0	0	0	0	508	624	
2	0	0	0	0	508	623	
3	0	0	0	0	507	624	
4	0	0	0	0	506	624	
5	0	0	0	0	506	623	
6	0	0	0	0	505	623	
7	0	0	0	0	506	623	
8	0	0	0	0	506	623	
9	0	0	0	0	506	623	
10	0	0	0	0	506	623	
11	0	0	0	0	506	623	
12	0	0	0	0	507	624	
13	0	0	0	0	506	623	
14	0	0	0	0	506	623	
15	0	0	0	0	506	623	
0	0	0	0	0	506	623	
1	0	0	0	0	507	623	
2	0	0	0	0	507	622	
3	0	0	0	0	507	623	
4	0	0	0	0	507	623	
5	0	0	0	0	508	623	
6	0	0	0	0	508	623	
7	0	0	0	0	509	623	
8	0	0	0	0	510	623	
9	0	0	0	0	511	622	
10	0	0	0	0	512	623	
11	0	0	0	0	512	624	
12	0	0	0	0	513	623	
13	0	0	0	0	513	623	
14	0	0	0	0	514	623	
15	0	0	0	0	514	623	
0	0	0	0	0	514	623	
1	0	0	0	0	514	623	
2	0	0	0	0	514	623	
3	0	0	0	0	514	624	
4	0	0	0	0	514	623	
5	0	0	0	0	515	623	
6	0	0	0	0	514	624	
7	0	0	0	0	515	624	
8	0	0	0	0	515	623	
9	0	0	0	0	515	624	
10	0	0	0	0	516	624	
11	0	0	0	0	516	624	
12	0	0	0	0	516	624	
13	0	0	0	0	517	623	
14	0	0	0	0	517	624	
15	0	0	0	0	517	624	
0	0	0	0	0	518	624	
1	0	0	0	0	519	624	
2	0	0	0	0	519	624	
3	0	0	0	0	520	624	
4	0	0	0	0	520	624	
5	0	0	0	0	521	624	
6	0	0	0	0	521	624	
7	0	0	0	0	521	625	
8	0	0	0	0	520	624	
9	0	0	0	0	521	624	
10	0	0	0	0	521	624	
11	0	0	0	0	521	624	
12	0	0	0	0	520	624	
13	0	0	0	0	519	624	
14	0	0	0	0	519	624	
15	0	0	0	0	519	623	
0	0	0	0	0	519	623	
1	0	0	0	0	518	623	
2	0	0	0	0	518	623	
3	0	0	0	0	517	624	
4	0	0	0	0	516	624	
5	0	0	0	0	516	623	
6	0	0	0	0	516	623	
7	0	0	0	0	516	623	
8	0	0	0	0	516	623	
9	0	0	0	0	515	623	
10	0	0	0	0	515	624	
11	0	0	0	0	515	624	
12	0	0	0	0	514	624	
13	0	0	0	0	513	624	
14	0	0	0	0	512	624	
15	0	0	0	0	512	624	
0	0	0	0	0	511	624	
1	0	0	0	0	511	624	
2	0	0	0	0	511	624	
3	0	0	0	0	511	624	
4	0	0	0	0	511	624	
5	0	0	0	0	511	624	
6	0	0	0	0	511	623	
7	0	0	0	0	511	624	
8	0	0	0	0	511	623	
9	0	0	0	0	511	623	
10	0	0	0	0	511	624	
11	0	0	0	0	511	623	
12	0	0	0	0	511	624	
13	0	0	0	0	511	624	
14	0	0	0	0	511	624	
15	0	0	0	0	511	624	
0	0	0	0	0	510	624	
1	0	0	0	0	511	624	
2	0	0	0	0	511	624	
3	0	0	0	0	510	624	
4	0	0	0	0	509	624	
5	0	0	0	0	508	624	
6	0	0	0	0	508	624	
7	0	0	0	0	508	623	
8	0	0	0	0	508	624	
9	0	0	0	0	508	623	
10	0	0	0	0	508	623	
11	0	0	0	0	508	624	
12	0	0	0	0	507	624	
13	0	0	0	0	507	624	
14	0	0	0	0	507	623	
15	0	0	0	0	507	623	
0	0	0	0	0	507	623	
1	0	0	0	0	506	623	
2	0	0	0	0	507	623	
3	0	0	0	0	507	623	
4	0	0	0	0	506	623	
5	0	0	0	0	506	623	
6	0	0	0	0	506	622	
7	0	0	0	0	506	623	
8	0	0	0	0	505	623	
9	0	0	0	0	506	623	
10	0	0	0	0	506	623	
11	0	0	0	0	505	623	
12	0	0	0	0	505	623	
13	0	0	0	0	505	623	
14	0	0	0	0	505	623	
15	0	0	0	0	504	624	
0	0	0	0	0	504	624	
1	0	0	0	0	504	624	
2	0	0	0	0	505	623	
3	0	0	0	0	504	623	
4	0	0	0	0	504	623	
5	0	0	0	0	504	623	
6	0	0	0	0	504	623	
7	0	0	0	0	505	623	
8	0	0	0	0	505	623	
9	0	0	0	0	506	623	
10	0	0	0	0	506	623	
11	0	0	0	0	505	623	
12	0	0	0	0	506	623	
13	0	0	0	0	505	623	
14	0	0	0	0	505	623	
15	0	0	0	0	504	623	
0	0	0	0	0	504	623	
1	0	0	0	0	503	623	
2	0	0	0	0	502	623	
3	0	0	0	0	500	623	
4	0	0	0	0	497	623	
5	0	0	0	0	492	623	
6	0	0	0	0	488	623	
7	0	0	0	0	483	623	
8	0	0	0	0	476	624	
9	0	0	0	0	467	623	
10	0	0	0	0	457	623	
11	0	0	0	0	446	623	
12	0	0	0	0	434	623	
13	0	0	0	0	422	623	
14	0	0	0	0	409	622	
15	0	0	0	0	396	622	
0	0	0	0	0	383	622	
1	0	0	0	0	370	622	
2	0	0	0	0	358	622	
3	0	0	0	0	348	623	
4	0	0	0	0	340	623	
5	0	0	0	0	336	623	
6	0	0	0	0	335	624	
7	0	0	0	0	340	623	
8	0	0	0	0	351	624	
9	0	0	0	0	368	623	
10	0	0	0	0	388	624	
11	0	0	0	0	414	624	
12	0	0	0	0	444	623	
13	0	0	0	0	476	624	
14	0	0	0	0	512	624	
15	0	0	0	0	552	624	
0	0	0	0	0	597	624	
1	0	0	0	0	647	625	
2	0	0	0	0	702	625	
3	0	0	0	0	758	625	
4	0	0	0	0	812	625	
5	0	0	0	0	865	626	
6	0	0	0	0	921	626	
7	0	0	0	0	972	627	
8	0	0	0	0	1014	627	
9	0	0	0	0	1022	627	
10	0	0	0	0	1022	627	
11	0	0	0	0	1022	628	
12	0	0	0	0	1022	627	
13	0	0	0	0	1022	627	
14	0	0	0	0	1022	627	
15	0	0	0	0	1022	628	
0	0	0	0	0	1022	627	
1	0	0	0	0	1022	627	
2	0	0	0	0	1022	627	
3	0	0	0	0	1021	627	
4	0	0	0	0	1003	627	
5	0	0	0	0	977	626	
6	0	0	0	0	951	626	
7	0	0	0	0	926	626	
8	0	0	0	0	901	625	
9	0	0	0	0	878	625	
10	0	0	0	0	854	625	
11	0	0	0	0	827	625	
12	0	0	0	0	801	625	
13	0	0	0	0	774	625	
14	0	0	0	0	747	625	
15	0	0	0	0	722	625	
0	0	0	0	0	697	624	
1	0	0	0	0	674	624	
2	0	0	0	0	651	624	
3	0	0	0	0	628	625	
4	0	0	0	0	608	624	
5	0	0	0	0	586	624	
6	0	0	0	0	566	624	
7	0	0	0	0	546	624	
8	0	0	0	0	529	624	
9	0	0	0	0	512	624	
10	0	0	0	0	498	624	
11	0	0	0	0	484	625	
12	0	0	0	0	471	624	
13	0	0	0	0	459	624	
14	0	0	0	0	448	623	
15	0	0	0	0	437	623	
0	0	0	0	0	427	623	
1	0	0	0	0	418	623	
2	0	0	0	0	409	624	
3	0	0	0	0	402	624	
4	0	0	0	0	395	624	
5	0	0	0	0	390	624	
6	0	0	0	0	385	624	
7	0	0	0	0	382	624	
8	0	0	0	0	379	624	
9	0	0	0	0	376	624	
10	0	0	0	0	374	624	
11	0	0	0	0	372	624	
12	0	0	0	0	371	624	
13	0	0	0	0	370	624	
14	0	0	0	0	369	624	
15	0	0	0	0	368	624	
0	0	0	0	0	368	624	
1	0	0	0	0	368	624	
2	0	0	0	0	368	624	
3	0	0	0	0	368	624	
4	0	0	0	0	368	624	
5	0	0	0	0	368	624	
6	0	0	0	0	368	623	
7	0	0	0	0	368	624	
8	0	0	0	0	368	623	
9	0	0	0	0	368	623	
10	0	0	0	0	368	623	
11	0	0	0	0	368	623	
12	0	0	0	0	368	623	
13	0	0	0	0	368	623	
14	0	0	0	0	369	623	
15	0	0	0	0	369	623	
0	0	0	0	0	369	623	
1	0	0	0	0	369	623	
2	0	0	0	0	370	623	
3	0	0	0	0	371	623	
4	0	0	0	0	372	622	
5	0	0	0	0	373	623	
6	0	0	0	0	374	623	
7	0	0	0	0	375	623	
8	0	0	0	0	376	623	
9	0	0	0	0	377	623	
10	0	0	0	0	377	623	
11	0	0	0	0	379	623	
12	0	0	0	0	379	624	
13	0	0	0	0	380	624	
14	0	0	0	0	382	624	
15	0	0	0	0	382	624	
0	0	0	0	0	384	624	
1	0	0	0	0	385	624	
2	0	0	0	0	386	624	
3	0	0	0	0	387	624	
4	0	0	0	0	387	624	
5	0	0	0	0	388	625	
6	0	0	0	0	389	625	
7	0	0	0	0	391	624	
8	0	0	0	0	392	624	
9	0	0	0	0	393	625	
10	0	0	0	0	394	625	
11	0	0	0	0	395	625	
12	0	0	0	0	396	625	
13	0	0	0	0	397	625	
14	0	0	0	0	398	625	
15	0	0	0	0	399	625	
0	0	0	0	0	399	624	
1	0	0	0	0	400	624	
2	0	0	0	0	401	624	
3	0	0	0	0	402	625	
4	0	0	0	0	403	624	
5	0	0	0	0	404	625	
6	0	0	0	0	405	625	
7	0	0	0	0	406	624	
8	0	0	0	0	407	624	
9	0	0	0	0	408	624	
10	0	0	0	0	410	624	
11	0	0	0	0	411	624	
12	0	0	0	0	411	623	
13	0	0	0	0	412	624	
14	0	0	0	0	412	623	
15	0	0	0	0	413	623	
0	0	0	0	0	414	624	
1	0	0	0	0	415	623	
2	0	0	0	0	416	623	
3	0	0	0	0	417	623	
4	0	0	0	0	418	623	
5	0	0	0	0	419	624	
6	0	0	0	0	419	623	
7	0	0	0	0	420	623	
8	0	0	0	0	421	623	
9	0	0	0	0	421	623	
10	0	0	0	0	422	623	
11	0	0	0	0	423	623	
12	0	0	0	0	423	623	
13	0	0	0	0	425	623	
14	0	0	0	0	426	623	
15	0	0	0	0	427	624	
0	0	0	0	0	427	623	
1	0	0	0	0	428	624	
2	0	0	0	0	428	623	
3	0	0	0	0	428	624	
4	0	0	0	0	429	624	
5	0	0	0	0	430	624	
6	0	0	0	0	430	624	
7	0	0	0	0	431	624	
8	0	0	0	0	432	624	
9	0	0	0	0	433	624	
10	0	0	0	0	434	623	
11	0	0	0	0	435	623	
12	0	0	0	0	436	624	
13	0	0	0	0	438	624	
14	0	0	0	0	437	624	
15	0	0	0	0	438	624	
0	0	0	0	0	438	624	
1	0	0	0	0	439	624	
2	0	0	0	0	439	624	
3	0	0	0	0	440	624	
4	0	0	0	0	441	624	
5	0	0	0	0	442	624	
6	0	0	0	0	442	624	
7	0	0	0	0	443	624	
8	0	0	0	0	443	624	
9	0	0	0	0	444	624	
10	0	0	0	0	444	624	
11	0	0	0	0	444	624	
12	0	0	0	0	446	624	
13	0	0	0	0	446	624	
14	0	0	0	0	448	624	
15	0	0	0	0	448	624	
0	0	0	0	0	449	624	
1	0	0	0	0	450	624	
2	0	0	0	0	451	624	
3	0	0	0	0	451	625	
4	0	0	0	0	452	624	
5	0	0	0	0	452	624	
6	0	0	0	0	452	624	
7	0	0	0	0	454	625	
8	0	0	0	0	455	625	
9	0	0	0	0	455	624	
10	0	0	0	0	456	624	
11	0	0	0	0	456	624	
12	0	0	0	0	457	624	
13	0	0	0	0	459	624	
14	0	0	0	0	460	624	
15	0	0	0	0	461	625	
0	0	0	0	0	462	624	
1	0	0	0	0	463	624	
2	0	0	0	0	464	624	
3	0	0	0	0	465	624	
4	0	0	0	0	466	624	
5	0	0	0	0	467	624	
6	0	0	0	0	468	624	
7	0	0	0	0	470	624	
8	0	0	0	0	471	625	
9	0	0	0	0	472	624	
10	0	0	0	0	473	624	
11	0	0	0	0	475	624	
12	0	0	0	0	476	624	
13	0	0	0	0	478	624	
14	0	0	0	0	479	624	
15	0	0	0	0	480	624	
0	0	0	0	0	482	624	
1	0	0	0	0	484	624	
2	0	0	0	0	485	624	
3	0	0	0	0	487	624	
4	0	0	0	0	488	624	
5	0	0	0	0	489	623	
6	0	0	0	0	491	624	
7	0	0	0	0	492	623	
8	0	0	0	0	494	624	
9	0	0	0	0	496	623	
10	0	0	0	0	497	623	
11	0	0	0	0	498	624	
12	0	0	0	0	499	623	
13	0	0	0	0	501	623	
14	0	0	0	0	502	623	
15	0	0	0	0	504	623	
0	0	0	0	0	505	623	
1	0	0	0	0	507	623	
2	0	0	0	0	509	624	
3	0	0	0	0	510	624	
4	0	0	0	0	512	623	
5	0	0	0	0	513	623	
6	0	0	0	0	515	623	
7	0	0	0	0	515	623	
8	0	0	0	0	517	623	
9	0	0	0	0	518	623	
10	0	0	0	0	519	624	
11	0	0	0	0	520	624	
12	0	0	0	0	521	624	
13	0	0	0	0	522	624	
14	0	0	0	0	522	623	
15	0	0	0	0	524	624	
0	0	0	0	0	525	623	
1	0	0	0	0	526	623	
2	0	0	0	0	526	623	
3	0	0	0	0	526	623	
4	0	0	0	0	527	623	
5	0	0	0	0	527	623	
6	0	0	0	0	528	624	
7	0	0	0	0	528	623	
8	0	0	0	0	529	623	
9	0	0	0	0	529	623	
10	0	0	0	0	529	622	
11	0	0	0	0	530	623	
12	0	0	0	0	530	623	
13	0	0	0	0	530	623	
14	0	0	0	0	530	623	
15	0	0	0	0	530	622	
0	0	0	0	0	531	622	
1	0	0	0	0	531	622	
2	0	0	0	0	531	622	
3	0	0	0	0	530	623	
4	0	0	0	0	530	622	
5	0	0	0	0	529	623	
6	0	0	0	0	528	622	
7	0	0	0	0	527	622	
8	0	0	0	0	526	622	
9	0	0	0	0	525	622	
10	0	0	0	0	524	623	
11	0	0	0	0	523	623	
12	0	0	0	0	522	622	
13	0	0	0	0	521	623	
14	0	0	0	0	519	623	
15	0	0	0	0	519	623	
0	0	0	0	0	519	623	
1	0	0	0	0	518	623	
2	0	0	0	0	516	623	
3	0	0	0	0	515	623	
4	0	0	0	0	514	623	
5	0	0	0	0	513	622	
6	0	0	0	0	512	623	
7	0	0	0	0	511	623	
8	0	0	0	0	510	623	
9	0	0	0	0	510	624	
10	0	0	0	0	509	623	
11	0	0	0	0	508	624	
12	0	0	0	0	508	624	
13	0	0	0	0	507	624	
14	0	0	0	0	506	624	
15	0	0	0	0	504	624	
0	0	0	0	0	504	624	
1	0	0	0	0	504	624	
2	0	0	0	0	504	624	
3	0	0	0	0	503	624	
4	0	0	0	0	502	624	
5	0	0	0	0	502	624	
6	0	0	0	0	501	625	
7	0	0	0	0	501	625	
8	0	0	0	0	501	625	
9	0	0	0	0	501	625	
10	0	0	0	0	501	624	
11	0	0	0	0	501	626	
12	0	0	0	0	500	625	
13	0	0	0	0	500	624	
14	0	0	0	0	500	625	
15	0	0	0	0	499	625	
0	0	0	0	0	499	624	
1	0	0	0	0	498	624	
2	0	0	0	0	499	625	
3	0	0	0	0	498	624	
4	0	0	0	0	499	624	
5	0	0	0	0	499	624	
6	0	0	0	0	498	624	
7	0	0	0	0	498	625	
8	0	0	0	0	498	625	
9	0	0	0	0	497	625	
10	0	0	0	0	497	625	
11	0	0	0	0	497	625	
12	0	0	0	0	497	625	
13	0	0	0	0	497	625	
14	0	0	0	0	497	625	
15	0	0	0	0	498	625	
0	0	0	0	0	498	625	
1	0	0	0	0	498	625	
2	0	0	0	0	499	625	
3	0	0	0	0	499	625	
4	0	0	0	0	499	625	
5	0	0	0	0	499	625	
6	0	0	0	0	499	626	
7	0	0	0	0	499	626	
8	0	0	0	0	499	625	
9	0	0	0	0	499	625	
10	0	0	0	0	499	625	
11	0	0	0	0	499	626	
12	0	0	0	0	499	625	
13	0	0	0	0	500	625	
14	0	0	0	0	500	626	
15	0	0	0	0	501	626	
0	0	0	0	0	502	625	
1	0	0	0	0	502	625	
2	0	0	0	0	502	625	
3	0	0	0	0	501	625	
4	0	0	0	0	502	625	
5	0	0	0	0	502	624	
6	0	0	0	0	502	625	
7	0	0	0	0	503	625	
8	0	0	0	0	503	625	
9	0	0	0	0	503	625	
10	0	0	0	0	503	625	
11	0	0	0	0	503	625	
12	0	0	0	0	503	624	
13	0	0	0	0	503	624	
14	0	0	0	0	502	624	
15	0	0	0	0	503	625	
0	0	0	0	0	503	625	
1	0	0	0	0	503	624	
2	0	0	0	0	504	624	
3	0	0	0	0	502	625	
4	0	0	0	0	503	624	
5	0	0	0	0	502	625	
6	0	0	0	0	502	624	
7	0	0	0	0	502	624	
8	0	0	0	0	502	624	
9	0	0	0	0	503	624	
10	0	0	0	0	503	624	
11	0	0	0	0	502	624	
12	0	0	0	0	502	624	
13	0	0	0	0	502	624	
14	0	0	0	0	502	624	
15	0	0	0	0	502	624	
0	0	0	0	0	503	624	
1	0	0	0	0	503	624	
2	0	0	0	0	504	623	
3	0	0	0	0	504	624	
4	0	0	0	0	504	624	
5	0	0	0	0	504	624	
6	0	0	0	0	504	623	
7	0	0	0	0	504	624	
8	0	0	0	0	504	623	
9	0	0	0	0	504	623	
10	0	0	0	0	505	623	
11	0	0	0	0	504	623	
12	0	0	0	0	504	623	
13	0	0	0	0	504	623	
14	0	0	0	0	504	624	
15	0	0	0	0	504	624	
0	0	0	0	0	503	623	
1	0	0	0	0	503	624	
2	0	0	0	0	503	624	
3	0	0	0	0	503	624	
4	0	0	0	0	503	624	
5	0	0	0	0	503	624	
6	0	0	0	0	503	624	
7	0	0	0	0	503	624	
8	0	0	0	0	502	624	
9	0	0	0	0	502	624	
10	0	0	0	0	502	623	
11	0	0	0	0	502	624	
12	0	0	0	0	502	624	
13	0	0	0	0	501	623	
14	0	0	0	0	502	623	
15	0	0	0	0	502	623	
0	0	0	0	0	502	623	
1	0	0	0	0	502	623	
2	0	0	0	0	503	623	
3	0	0	0	0	503	623	
4	0	0	0	0	503	622	
5	0	0	0	0	503	623	
6	0	0	0	0	504	623	
7	0	0	0	0	503	623	
8	0	0	0	0	503	623	
9	0	0	0	0	503	623	
10	0	0	0	0	503	623	
11	0	0	0	0	503	624	
12	0	0	0	0	502	623	
13	0	0	0	0	502	624	
14	0	0	0	0	502	623	
15	0	0	0	0	502	623	
0	0	0	0	0	502	623	
1	0	0	0	0	501	623	
2	0	0	0	0	502	623	
3	0	0	0	0	502	623	
4	0	0	0	0	501	623	
5	0	0	0	0	501	623	
6	0	0	0	0	502	623	
7	0	0	0	0	502	623	
8	0	0	0	0	503	623	
9	0	0	0	0	503	623	
10	0	0	0	0	504	623	
11	0	0	0	0	504	623	
12	0	0	0	0	504	623	
13	0	0	0	0	504	623	
14	0	0	0	0	504	623	
15	0	0	0	0	504	623	
0	0	0	0	0	504	623	
1	0	0	0	0	504	623	
2	0	0	0	0	504	623	
3	0	0	0	0	504	623	
4	0	0	0	0	504	623	
5	0	0	0	0	504	623	
6	0	0	0	0	505	623	
7	0	0	0	0	505	624	
8	0	0	0	0	505	624	
9	0	0	0	0	505	623	
10	0	0	0	0	506	623	
11	0	0	0	0	506	624	
12	0	0	0	0	506	624	
13	0	0	0	0	506	623	
14	0	0	0	0	507	624	
15	0	0	0	0	507	624	
0	0	0	0	0	507	624	
1	0	0	0	0	508	624	
2	0	0	0	0	507	624	
3	0	0	0	0	507	624	
4	0	0	0	0	508	624	
5	0	0	0	0	508	624	
6	0	0	0	0	508	624	
7	0	0	0	0	507	624	
8	0	0	0	0	508	624	
9	0	0	0	0	507	625	
10	0	0	0	0	508	624	
11	0	0	0	0	508	625	
12	0	0	0	0	508	624	
13	0	0	0	0	508	625	
14	0	0	0	0	508	624	
15	0	0	0	0	508	624	
0	0	0	0	0	508	624	
1	0	0	0	0	508	624	
2	0	0	0	0	508	625	
3	0	0	0	0	508	625	
4	0	0	0	0	507	624	
5	0	0	0	0	507	624	
6	0	0	0	0	508	624	
7	0	0	0	0	508	624	
8	0	0	0	0	508	623	
9	0	0	0	0	508	623	
10	0	0	0	0	508	623	
11	0	0	0	0	508	624	
12	0	0	0	0	507	624	
13	0	0	0	0	508	624	
14	0	0	0	0	508	624	
15	0	0	0	0	508	624	
0	0	0	0	0	508	624	
1	0	0	0	0	509	624	
2	0	0	0	0	509	624	
3	0	0	0	0	510	624	
4	0	0	0	0	511	623	
5	0	0	0	0	510	624	
6	0	0	0	0	510	624	
7	0	0	0	0	509	624	
8	0	0	0	0	509	624	
9	0	0	0	0	509	623	
10	0	0	0	0	509	623	
11	0	0	0	0	510	624	
12	0	0	0	0	510	623	
13	0	0	0	0	509	623	
14	0	0	0	0	509	623	
15	0	0	0	0	510	624	
0	0	0	0	0	510	623	
1	0	0	0	0	510	623	
2	0	0	0	0	510	623	
3	0	0	0	0	509	624	
4	0	0	0	0	509	624	
5	0	0	0	0	509	624	
6	0	0	0	0	509	624	
7	0	0	0	0	509	624	
8	0	0	0	0	508	624	
9	0	0	0	0	508	624	
10	0	0	0	0	507	624	
11	0	0	0	0	507	625	
12	0	0	0	0	508	625	
13	0	0	0	0	508	625	
14	0	0	0	0	508	625	
15	0	0	0	0	508	625	
0	0	0	0	0	508	625	
1	0	0	0	0	508	625	
2	0	0	0	0	508	625	
3	0	0	0	0	509	625	
4	0	0	0	0	509	625	
5	0	0	0	0	509	625	
6	0	0	0	0	509	625	
7	0	0	0	0	509	625	
8	0	0	0	0	508	625	
9	0	0	0	0	508	625	
10	0	0	0	0	508	625	
11	0	0	0	0	507	625	
12	0	0	0	0	508	624	
13	0	0	0	0	507	624	
14	0	0	0	0	507	624	
15	0	0	0	0	507	625	
0	0	0	0	0	508	624	
1	0	0	0	0	508	624	
2	0	0	0	0	508	624	
3	0	0	0	0	507	624	
4	0	0	0	0	507	624	
5	0	0	0	0	507	623	
6	0	0	0	0	507	623	
7	0	0	0	0	507	623	
8	0	0	0	0	506	623	
9	0	0	0	0	505	623	
10	0	0	0	0	505	623	
11	0	0	0	0	505	623	
12	0	0	0	0	505	623	
13	0	0	0	0	506	623	
14	0	0	0	0	506	623	
15	0	0	0	0	506	623	
0	0	0	0	0	506	623	
1	0	0	0	0	506	623	
2	0	0	0	0	506	623	
3	0	0	0	0	506	624	
4	0	0	0	0	507	624	
5	0	0	0	0	507	624	
6	0	0	0	0	507	623	
7	0	0	0	0	508	624	
8	0	0	0	0	508	623	
9	0	0	0	0	507	624	
10	0	0	0	0	507	624	
11	0	0	0	0	507	624	
12	0	0	0	0	507	623	
13	0	0	0	0	507	624	
14	0	0	0	0	507	624	
15	0	0	0	0	507	624	
0	0	0	0	0	507	624	
1	0	0	0	0	506	623	
2	0	0	0	0	507	624	
3	0	0	0	0	508	624	
4	0	0	0	0	508	623	
5	0	0	0	0	508	623	
6	0	0	0	0	508	623	
7	0	0	0	0	508	624	
8	0	0	0	0	508	623	
9	0	0	0	0	508	623	
10	0	0	0	0	509	623	
11	0	0	0	0	510	624	
12	0	0	0	0	509	623	
13	0	0	0	0	509	622	
14	0	0	0	0	510	623	
15	0	0	0	0	509	623	
0	0	0	0	0	510	623	
1	0	0	0	0	510	623	
2	0	0	0	0	510	623	
3	0	0	0	0	510	624	
4	0	0	0	0	510	623	
5	0	0	0	0	510	623	
6	0	0	0	0	510	623	
7	0	0	0	0	510	623	
8	0	0	0	0	510	623	
9	0	0	0	0	509	623	
10	0	0	0	0	509	624	
11	0	0	0	0	509	624	
12	0	0	0	0	510	624	
13	0	0	0	0	510	624	
14	0	0	0	0	510	624	
15	0	0	0	0	510	624	
0	0	0	0	0	510	624	
1	0	0	0	0	510	624	
2	0	0	0	0	510	624	
3	0	0	0	0	510	624	
4	0	0	0	0	510	624	
5	0	0	0	0	511	624	
6	0	0	0	0	511	624	
7	0	0	0	0	511	624	
8	0	0	0	0	511	624	
9	0	0	0	0	511	624	
10	0	0	0	0	511	624	
11	0	0	0	0	511	625	
12	0	0	0	0	510	625	
13	0	0	0	0	510	624	
14	0	0	0	0	510	625	
15	0	0	0	0	511	625	
0	0	0	0	0	511	625	
1	0	0	0	0	510	625	
2	0	0	0	0	510	625	
3	0	0	0	0	510	626	
4	0	0	0	0	510	624	
5	0	0	0	0	511	625	
6	0	0	0	0	510	625	
7	0	0	0	0	510	625	
8	0	0	0	0	509	624	
9	0	0	0	0	510	624	
10	0	0	0	0	510	624	
11	0	0	0	0	510	625	
12	0	0	0	0	510	624	
13	0	0	0	0	510	624	
14	0	0	0	0	510	624	
15	0	0	0	0	510	624	
0	0	0	0	0	510	624	
1	0	0	0	0	510	623	
2	0	0	0	0	511	623	
3	0	0	0	0	511	624	
4	0	0	0	0	511	623	
5	0	0	0	0	511	623	
6	0	0	0	0	511	623	
7	0	0	0	0	511	623	
8	0	0	0	0	512	623	
9	0	0	0	0	512	623	
10	0	0	0	0	512	623	
11	0	0	0	0	512	623	
12	0	0	0	0	512	623	
13	0	0	0	0	513	623	
14	0	0	0	0	513	623	
15	0	0	0	0	513	623	
0	0	0	0	0	513	624	
1	0	0	0	0	513	623	
2	0	0	0	0	513	623	
3	0	0	0	0	513	624	
4	0	0	0	0	512	623	
5	0	0	0	0	512	623	
6	0	0	0	0	512	623	
7	0	0	0	0	512	624	
8	0	0	0	0	512	624	
9	0	0	0	0	512	623	
10	0	0	0	0	513	624	
11	0	0	0	0	513	624	
12	0	0	0	0	512	623	
13	0	0	0	0	512	624	
14	0	0	0	0	512	623	
15	0	0	0	0	512	624	
0	0	0	0	0	513	624	
1	0	0	0	0	513	624	
2	0	0	0	0	512	624	
3	0	0	0	0	512	624	
4	0	0	0	0	512	623	
5	0	0	0	0	513	623	
6	0	0	0	0	513	623	
7	0	0	0	0	512	624	
8	0	0	0	0	512	623	
9	0	0	0	0	512	623	
10	0	0	0	0	512	624	
11	0	0	0	0	512	624	
12	0	0	0	0	512	624	
13	0	0	0	0	513	624	
14	0	0	0	0	513	624	
15	0	0	0	0	513	624	
0	0	0	0	0	513	624	
1	0	0	0	0	513	623	
2	0	0	0	0	513	623	
3	0	0	0	0	512	623	
4	0	0	0	0	512	623	
5	0	0	0	0	512	624	
6	0	0	0	0	512	624	
7	0	0	0	0	512	624	
8	0	0	0	0	512	624	
9	0	0	0	0	512	624	
10	0	0	0	0	511	624	
11	0	0	0	0	512	625	
12	0	0	0	0	512	624	
13	0	0	0	0	512	625	
14	0	0	0	0	512	624	
15	0	0	0	0	512	624	
0	0	0	0	0	512	624	
1	0	0	0	0	513	624	
2	0	0	0	0	512	624	
3	0	0	0	0	513	624	
4	0	0	0	0	513	624	
5	0	0	0	0	512	624	
6	0	0	0	0	512	624	
7	0	0	0	0	513	625	
8	0	0	0	0	513	625	
9	0	0	0	0	512	624	
10	0	0	0	0	512	625	
11	0	0	0	0	512	625	
12	0	0	0	0	512	624	
13	0	0	0	0	511	624	
14	0	0	0	0	511	625	
15	0	0	0	0	510	625	
0	0	0	0	0	509	624	
1	0	0	0	0	508	624	
2	0	0	0	0	508	625	
3	0	0	0	0	508	625	
4	0	0	0	0	508	625	
5	0	0	0	0	508	624	
6	0	0	0	0	507	625	
7	0	0	0	0	507	625	
8	0	0	0	0	507	625	
9	0	0	0	0	508	626	
10	0	0	0	0	508	625	
11	0	0	0	0	508	625	
12	0	0	0	0	507	625	
13	0	0	0	0	507	625	
14	0	0	0	0	507	625	
15	0	0	0	0	508	625	
0	0	0	0	0	508	625	
1	0	0	0	0	509	625	
2	0	0	0	0	509	625	
3	0	0	0	0	509	625	
4	0	0	0	0	509	624	
5	0	0	0	0	509	624	
6	0	0	0	0	509	625	
7	0	0	0	0	509	625	
8	0	0	0	0	509	624	
9	0	0	0	0	509	624	
10	0	0	0	0	509	623	
11	0	0	0	0	510	624	
12	0	0	0	0	510	624	
13	0	0	0	0	510	624	
14	0	0	0	0	511	623	
15	0	0	0	0	512	623	
0	0	0	0	0	512	624	
1	0	0	0	0	512	623	
2	0	0	0	0	513	623	
3	0	0	0	0	514	623	
4	0	0	0	0	514	622	
5	0	0	0	0	515	623	
6	0	0	0	0	515	623	
7	0	0	0	0	515	624	
8	0	0	0	0	515	624	
9	0	0	0	0	515	624	
10	0	0	0	0	515	624	
11	0	0	0	0	516	624	
12	0	0	0	0	515	624	
13	0	0	0	0	515	624	
14	0	0	0	0	515	624	
15	0	0	0	0	515	624	
0	0	0	0	0	515	624	
1	0	0	0	0	515	623	
2	0	0	0	0	515	624	
3	0	0	0	0	516	624	
4	0	0	0	0	517	623	
5	0	0	0	0	517	624	
6	0	0	0	0	518	624	
7	0	0	0	0	519	624	
8	0	0	0	0	520	623	
9	0	0	0	0	520	624	
10	0	0	0	0	520	624	
11	0	0	0	0	520	624	
12	0	0	0	0	521	623	
13	0	0	0	0	521	623	
14	0	0	0	0	523	623	
15	0	0	0	0	523	623	
0	0	0	0	0	523	623	
1	0	0	0	0	523	622	
2	0	0	0	0	523	622	
3	0	0	0	0	523	622	
4	0	0	0	0	523	622	
5	0	0	0	0	523	622	
6	0	0	0	0	522	622	
7	0	0	0	0	522	622	
8	0	0	0	0	523	622	
9	0	0	0	0	522	623	
10	0	0	0	0	521	622	
11	0	0	0	0	521	623	
12	0	0	0	0	520	622	
13	0	0	0	0	520	622	
14	0	0	0	0	520	622	
15	0	0	0	0	520	622	
0	0	0	0	0	519	622	
1	0	0	0	0	519	622	
2	0	0	0	0	519	622	
3	0	0	0	0	518	623	
4	0	0	0	0	517	622	
5	0	0	0	0	516	622	
6	0	0	0	0	516	622	
7	0	0	0	0	515	623	
8	0	0	0	0	515	622	
9	0	0	0	0	515	621	
10	0	0	0	0	514	622	
11	0	0	0	0	513	622	
12	0	0	0	0	513	622	
13	0	0	0	0	513	622	
14	0	0	0	0	512	621	
15	0	0	0	0	512	621	
0	0	0	0	0	512	622	
1	0	0	0	0	512	622	
2	0	0	0	0	512	621	
3	0	0	0	0	512	622	
4	0	0	0	0	512	622	
5	0	0	0	0	512	623	
6	0	0	0	0	512	623	
7	0	0	0	0	512	623	
8	0	0	0	0	512	623	
9	0	0	0	0	512	622	
10	0	0	0	0	512	622	
11	0	0	0	0	512	623	
12	0	0	0	0	512	622	
13	0	0	0	0	512	623	
14	0	0	0	0	511	623	
15	0	0	0	0	510	623	
0	0	0	0	0	510	624	
1	0	0	0	0	510	624	
2	0	0	0	0	509	624	
3	0	0	0	0	508	624	
4	0	0	0	0	508	625	
5	0	0	0	0	507	624	
6	0	0	0	0	507	624	
7	0	0	0	0	507	625	
8	0	0	0	0	507	626	
9	0	0	0	0	507	626	
10	0	0	0	0	507	626	
11	0	0	0	0	507	626	
12	0	0	0	0	507	626	
13	0	0	0	0	506	625	
14	0	0	0	0	505	626	
15	0	0	0	0	506	627	
0	0	0	0	0	505	625	
1	0	0	0	0	505	626	
2	0	0	0	0	504	625	
3	0	0	0	0	505	626	
4	0	0	0	0	505	626	
5	0	0	0	0	505	625	
6	0	0	0	0	505	625	
7	0	0	0	0	504	625	
8	0	0	0	0	504	625	
9	0	0	0	0	504	624	
10	0	0	0	0	504	624	
11	0	0	0	0	505	624	
12	0	0	0	0	504	624	
13	0	0	0	0	504	623	
14	0	0	0	0	504	623	
15	0	0	0	0	504	623	
0	0	0	0	0	505	623	
1	0	0	0	0	505	622	
2	0	0	0	0	506	623	
3	0	0	0	0	506	623	
4	0	0	0	0	505	622	
5	0	0	0	0	505	622	
6	0	0	0	0	505	619	
7	0	0	0	0	504	619	
8	0	0	0	0	503	619	
9	0	0	0	0	501	618	
10	0	0	0	0	498	619	
11	0	0	0	0	494	620	
12	0	0	0	0	488	620	
13	0	0	0	0	483	622	
14	0	0	0	0	476	622	
15	0	0	0	0	467	624	
0	0	0	0	0	459	625	
1	0	0	0	0	449	625	
2	0	0	0	0	439	626	
3	0	0	0	0	426	626	
4	0	0	0	0	414	627	
5	0	0	0	0	401	627	
6	0	0	0	0	389	627	
7	0	0	0	0	377	627	
8	0	0	0	0	367	627	
9	0	0	0	0	358	626	
10	0	0	0	0	351	625	
11	0	0	0	0	347	625	
12	0	0	0	0	347	625	
13	0	0	0	0	353	624	
14	0	0	0	0	364	624	
15	0	0	0	0	378	624	
0	0	0	0	0	398	623	
1	0	0	0	0	424	624	
2	0	0	0	0	452	624	
3	0	0	0	0	483	625	
4	0	0	0	0	518	625	
5	0	0	0	0	557	626	
6	0	0	0	0	602	627	
7	0	0	0	0	650	628	
8	0	0	0	0	701	629	
9	0	0	0	0	753	629	
10	0	0	0	0	805	629	
11	0	0	0	0	856	630	
12	0	0	0	0	908	629	
13	0	0	0	0	956	630	
14	0	0	0	0	996	629	
15	0	0	0	0	1021	630	
0	0	0	0	0	1022	629	
1	0	0	0	0	1022	628	
2	0	0	0	0	1022	628	
3	0	0	0	0	1022	629	
4	0	0	0	0	1022	627	
5	0	0	0	0	1022	627	
6	0	0	0	0	1022	626	
7	0	0	0	0	1022	626	
8	0	0	0	0	1022	625	
9	0	0	0	0	1009	625	
10	0	0	0	0	987	625	
11	0	0	0	0	961	625	
12	0	0	0	0	939	624	
13	0	0	0	0	916	624	
14	0	0	0	0	894	624	
15	0	0	0	0	871	624	
0	0	0	0	0	847	624	
1	0	0	0	0	823	624	
2	0	0	0	0	798	624	
3	0	0	0	0	772	624	
4	0	0	0	0	747	623	
5	0	0	0	0	721	624	
6	0	0	0	0	698	624	
7	0	0	0	0	675	624	
8	0	0	0	0	652	623	
9	0	0	0	0	630	623	
10	0	0	0	0	609	623	
11	0	0	0	0	588	623	
12	0	0	0	0	569	623	
13	0	0	0	0	550	623	
14	0	0	0	0	533	622	
15	0	0	0	0	517	622	
0	0	0	0	0	502	622	
1	0	0	0	0	489	622	
2	0	0	0	0	476	621	
3	0	0	0	0	465	622	
4	0	0	0	0	454	622	
5	0	0	0	0	444	622	
6	0	0	0	0	435	623	
7	0	0	0	0	425	623	
8	0	0	0	0	417	623	
9	0	0	0	0	410	623	
10	0	0	0	0	404	623	
11	0	0	0	0	398	624	
12	0	0	0	0	394	624	
13	0	0	0	0	390	624	
14	0	0	0	0	387	624	
15	0	0	0	0	385	624	
0	0	0	0	0	383	624	
1	0	0	0	0	381	624	
2	0	0	0	0	381	624	
3	0	0	0	0	379	624	
4	0	0	0	0	379	623	
5	0	0	0	0	378	624	
6	0	0	0	0	377	624	
7	0	0	0	0	377	624	
8	0	0	0	0	376	623	
9	0	0	0	0	376	623	
10	0	0	0	0	376	622	
11	0	0	0	0	376	623	
12	0	0	0	0	376	622	
13	0	0	0	0	377	623	
14	0	0	0	0	377	623	
15	0	0	0	0	378	623	
0	0	0	0	0	378	623	
1	0	0	0	0	379	623	
2	0	0	0	0	379	623	
3	0	0	0	0	380	624	
4	0	0	0	0	380	624	
5	0	0	0	0	381	624	
6	0	0	0	0	383	624	
7	0	0	0	0	383	625	
8	0	0	0	0	384	625	
9	0	0	0	0	385	624	
10	0	0	0	0	385	624	
11	0	0	0	0	385	625	
12	0	0	0	0	386	624	
13	0	0	0	0	387	624	
14	0	0	0	0	388	623	
15	0	0	0	0	389	624	
0	0	0	0	0	390	624	
1	0	0	0	0	391	623	
2	0	0	0	0	391	623	
3	0	0	0	0	393	623	
4	0	0	0	0	394	623	
5	0	0	0	0	395	623	
6	0	0	0	0	396	623	
7	0	0	0	0	397	624	
8	0	0	0	0	399	623	
9	0	0	0	0	399	623	
10	0	0	0	0	401	623	
11	0	0	0	0	402	624	
12	0	0	0	0	403	623	
13	0	0	0	0	403	623	
14	0	0	0	0	404	623	
15	0	0	0	0	405	623	
0	0	0	0	0	406	623	
1	0	0	0	0	407	623	
2	0	0	0	0	408	623	
3	0	0	0	0	410	624	
4	0	0	0	0	411	623	
5	0	0	0	0	412	623	
6	0	0	0	0	413	623	
7	0	0	0	0	413	623	
8	0	0	0	0	414	623	
9	0	0	0	0	415	624	
10	0	0	0	0	415	623	
11	0	0	0	0	416	623	
12	0	0	0	0	417	623	
13	0	0	0	0	418	623	
14	0	0	0	0	419	623	
15	0	0	0	0	420	623	
0	0	0	0	0	422	623	
1	0	0	0	0	423	623	
2	0	0	0	0	424	623	
3	0	0	0	0	424	623	
4	0	0	0	0	425	623	
5	0	0	0	0	426	623	
6	0	0	0	0	427	624	
7	0	0	0	0	428	624	
8	0	0	0	0	429	624	
9	0	0	0	0	431	624	
10	0	0	0	0	431	624	
11	0	0	0	0	432	624	
12	0	0	0	0	432	624	
13	0	0	0	0	432	624	
14	0	0	0	0	433	624	
15	0	0	0	0	434	625	
0	0	0	0	0	435	624	
1	0	0	0	0	435	624	
2	0	0	0	0	436	624	
3	0	0	0	0	436	625	
4	0	0	0	0	437	624	
5	0	0	0	0	438	624	
6	0	0	0	0	438	624	
7	0	0	0	0	439	625	
8	0	0	0	0	439	625	
9	0	0	0	0	440	625	
10	0	0	0	0	440	624	
11	0	0	0	0	441	625	
12	0	0	0	0	441	625	
13	0	0	0	0	441	624	
14	0	0	0	0	442	624	
15	0	0	0	0	443	625	
0	0	0	0	0	443	624	
1	0	0	0	0	444	625	
2	0	0	0	0	444	624	
3	0	0	0	0	444	625	
4	0	0	0	0	445	624	
5	0	0	0	0	445	624	
6	0	0	0	0	446	624	
7	0	0	0	0	447	625	
8	0	0	0	0	447	624	
9	0	0	0	0	448	624	
10	0	0	0	0	449	625	
11	0	0	0	0	450	626	
12	0	0	0	0	451	625	
13	0	0	0	0	451	625	
14	0	0	0	0	452	625	
15	0	0	0	0	452	624	
0	0	0	0	0	453	624	
1	0	0	0	0	454	625	
2	0	0	0	0	454	624	
3	0	0	0	0	455	624	
4	0	0	0	0	455	624	
5	0	0	0	0	455	624	
6	0	0	0	0	457	624	
7	0	0	0	0	457	624	
8	0	0	0	0	458	625	
9	0	0	0	0	459	624	
10	0	0	0	0	459	624	
11	0	0	0	0	460	625	
12	0	0	0	0	462	624	
13	0	0	0	0	462	624	
14	0	0	0	0	463	624	
15	0	0	0	0	464	624	
0	0	0	0	0	464	624	
1	0	0	0	0	465	624	
2	0	0	0	0	466	624	
3	0	0	0	0	466	624	
4	0	0	0	0	467	624	
5	0	0	0	0	468	624	
6	0	0	0	0	469	624	
7	0	0	0	0	470	624	
8	0	0	0	0	471	624	
9	0	0	0	0	472	624	
10	0	0	0	0	472	624	
11	0	0	0	0	473	624	
12	0	0	0	0	475	624	
13	0	0	0	0	476	624	
14	0	0	0	0	478	624	
15	0	0	0	0	479	624	
0	0	0	0	0	480	624	
1	0	0	0	0	482	624	
2	0	0	0	0	483	624	
3	0	0	0	0	484	624	
4	0	0	0	0	485	624	
5	0	0	0	0	486	624	
6	0	0	0	0	487	623	
7	0	0	0	0	487	624	
8	0	0	0	0	488	623	
9	0	0	0	0	489	624	
10	0	0	0	0	489	623	
11	0	0	0	0	491	623	
12	0	0	0	0	492	623	
13	0	0	0	0	493	623	
14	0	0	0	0	495	623	
15	0	0	0	0	496	624	
0	0	0	0	0	498	623	
1	0	0	0	0	499	623	
2	0	0	0	0	500	623	
3	0	0	0	0	501	623	
4	0	0	0	0	503	623	
5	0	0	0	0	504	623	
6	0	0	0	0	505	623	
7	0	0	0	0	506	624	
8	0	0	0	0	506	623	
9	0	0	0	0	508	623	
10	0	0	0	0	509	623	
11	0	0	0	0	510	623	
12	0	0	0	0	511	623	
13	0	0	0	0	511	623	
14	0	0	0	0	512	623	
15	0	0	0	0	513	623	
0	0	0	0	0	513	622	
1	0	0	0	0	515	623	
2	0	0	0	0	516	623	
3	0	0	0	0	518	624	
4	0	0	0	0	519	624	
5	0	0	0	0	520	624	
6	0	0	0	0	521	624	
7	0	0	0	0	521	624	
8	0	0	0	0	523	624	
9	0	0	0	0	523	624	
10	0	0	0	0	524	624	
11	0	0	0	0	524	625	
12	0	0	0	0	524	624	
13	0	0	0	0	525	624	
14	0	0	0	0	525	624	
15	0	0	0	0	525	624	
0	0	0	0	0	526	624	
1	0	0	0	0	526	623	
2	0	0	0	0	526	624	
3	0	0	0	0	526	624	
4	0	0	0	0	526	624	
5	0	0	0	0	526	624	
6	0	0	0	0	525	623	
7	0	0	0	0	525	624	
8	0	0	0	0	524	623	
9	0	0	0	0	524	623	
10	0	0	0	0	523	623	
11	0	0	0	0	522	623	
12	0	0	0	0	521	623	
13	0	0	0	0	521	623	
14	0	0	0	0	520	622	
15	0	0	0	0	521	623	
0	0	0	0	0	520	624	
1	0	0	0	0	518	623	
2	0	0	0	0	517	623	
3	0	0	0	0	516	623	
4	0	0	0	0	516	623	
5	0	0	0	0	514	623	
6	0	0	0	0	514	623	
7	0	0	0	0	513	624	
8	0	0	0	0	512	624	
9	0	0	0	0	511	624	
10	0	0	0	0	510	624	
11	0	0	0	0	509	624	
12	0	0	0	0	508	624	
13	0	0	0	0	508	623	
14	0	0	0	0	507	624	
15	0	0	0	0	506	624	
0	0	0	0	0	505	624	
1	0	0	0	0	503	624	
2	0	0	0	0	503	624	
3	0	0	0	0	501	625	
4	0	0	0	0	500	624	
5	0	0	0	0	499	625	
6	0	0	0	0	497	624	
7	0	0	0	0	496	625	
8	0	0	0	0	496	625	
9	0	0	0	0	495	625	
10	0	0	0	0	495	624	
11	0	0	0	0	495	625	
12	0	0	0	0	494	624	
13	0	0	0	0	493	625	
14	0	0	0	0	492	624	
15	0	0	0	0	492	624	
0	0	0	0	0	492	624	
1	0	0	0	0	492	624	
2	0	0	0	0	492	624	
3	0	0	0	0	491	624	
4	0	0	0	0	491	624	
5	0	0	0	0	490	624	
6	0	0	0	0	490	624	
7	0	0	0	0	490	624	
8	0	0	0	0	490	624	
9	0	0	0	0	490	624	
10	0	0	0	0	490	624	
11	0	0	0	0	490	624	
12	0	0	0	0	491	624	
13	0	0	0	0	491	624	
14	0	0	0	0	491	624	
15	0	0	0	0	491	623	
0	0	0	0	0	491	624	
1	0	0	0	0	491	623	
2	0	0	0	0	492	623	
3	0	0	0	0	492	624	
4	0	0	0	0	492	624	
5	0	0	0	0	492	623	
6	0	0	0	0	492	624	
7	0	0	0	0	492	624	
8	0	0	0	0	492	623	
9	0	0	0	0	492	624	
10	0	0	0	0	492	624	
11	0	0	0	0	493	624	
12	0	0	0	0	493	624	
13	0	0	0	0	493	624	
14	0	0	0	0	493	623	
15	0	0	0	0	492	624	
0	0	0	0	0	492	623	
1	0	0	0	0	492	624	
2	0	0	0	0	491	624	
3	0	0	0	0	492	624	
4	0	0	0	0	492	624	
5	0	0	0	0	493	624	
6	0	0	0	0	492	624	
7	0	0	0	0	492	624	
8	0	0	0	0	493	624	
9	0	0	0	0	493	624	
10	0	0	0	0	493	624	
11	0	0	0	0	493	624	
12	0	0	0	0	493	624	
13	0	0	0	0	494	624	
14	0	0	0	0	494	624	
15	0	0	0	0	495	625	
0	0	0	0	0	496	624	
1	0	0	0	0	496	624	
2	0	0	0	0	497	624	
3	0	0	0	0	497	624	
4	0	0	0	0	498	624	
5	0	0	0	0	498	625	
6	0	0	0	0	498	625	
7	0	0	0	0	498	624	
8	0	0	0	0	498	624	
9	0	0	0	0	498	625	
10	0	0	0	0	497	624	
11	0	0	0	0	498	625	
12	0	0	0	0	498	625	
13	0	0	0	0	497	624	
14	0	0	0	0	498	624	
15	0	0	0	0	498	625	
0	0	0	0	0	498	625	
