# OpenSignals Text File Format. Version 1
# {"98:D3:91:FD:69:48": {"position": 0, "device": "bitalino_rev", "device name": "98:D3:91:FD:69:48", "device connection": "BTH98:D3:91:FD:69:48", "sampling rate": 1000, "resolution": [4, 1, 1, 1, 1, 10, 10], "firmware version": 1281, "comments": "", "keywords": "", "mode": 0, "sync interval": 2, "date": "2021-9-10", "time": "20:27:38.649", "channels": [2, 5], "sensor": ["RAW", "RAW"], "label": ["A2", "A5"], "column": ["nSeq", "I1", "I2", "O1", "O2", "A2", "A5"], "special": [{}, {}], "digital IO": [0, 0, 1, 1], "convertedValues": 0}}
# EndOfHeader
0	0	0	0	0	504	609	
1	0	0	0	0	499	608	
2	0	0	0	0	494	608	
3	0	0	0	0	487	609	
4	0	0	0	0	481	609	
5	0	0	0	0	476	609	
6	0	0	0	0	469	609	
7	0	0	0	0	464	609	
8	0	0	0	0	460	609	
9	0	0	0	0	457	609	
10	0	0	0	0	455	609	
11	0	0	0	0	456	609	
12	0	0	0	0	461	609	
13	0	0	0	0	469	610	
14	0	0	0	0	481	609	
15	0	0	0	0	493	609	
0	0	0	0	0	509	609	
1	0	0	0	0	527	609	
2	0	0	0	0	547	609	
3	0	0	0	0	567	611	
4	0	0	0	0	587	609	
5	0	0	0	0	605	609	
6	0	0	0	0	621	609	
7	0	0	0	0	633	609	
8	0	0	0	0	643	609	
9	0	0	0	0	648	609	
10	0	0	0	0	652	610	
11	0	0	0	0	655	610	
12	0	0	0	0	659	609	
13	0	0	0	0	663	610	
14	0	0	0	0	668	610	
15	0	0	0	0	673	609	
0	0	0	0	0	681	609	
1	0	0	0	0	690	609	
2	0	0	0	0	698	609	
3	0	0	0	0	703	610	
4	0	0	0	0	711	609	
5	0	0	0	0	727	610	
6	0	0	0	0	744	609	
7	0	0	0	0	757	609	
8	0	0	0	0	762	610	
9	0	0	0	0	757	610	
10	0	0	0	0	745	609	
11	0	0	0	0	728	609	
12	0	0	0	0	706	609	
13	0	0	0	0	683	610	
14	0	0	0	0	656	609	
15	0	0	0	0	631	609	
0	0	0	0	0	607	610	
1	0	0	0	0	584	610	
2	0	0	0	0	564	609	
3	0	0	0	0	547	609	
4	0	0	0	0	534	609	
5	0	0	0	0	521	609	
6	0	0	0	0	511	608	
7	0	0	0	0	503	609	
8	0	0	0	0	495	609	
9	0	0	0	0	487	610	
10	0	0	0	0	481	609	
11	0	0	0	0	475	610	
12	0	0	0	0	468	610	
13	0	0	0	0	463	611	
14	0	0	0	0	458	610	
15	0	0	0	0	454	609	
0	0	0	0	0	451	610	
1	0	0	0	0	447	609	
2	0	0	0	0	445	610	
3	0	0	0	0	444	609	
4	0	0	0	0	444	610	
5	0	0	0	0	445	610	
6	0	0	0	0	446	610	
7	0	0	0	0	447	610	
8	0	0	0	0	448	609	
9	0	0	0	0	450	610	
10	0	0	0	0	452	610	
11	0	0	0	0	454	610	
12	0	0	0	0	455	610	
13	0	0	0	0	457	609	
14	0	0	0	0	457	610	
15	0	0	0	0	455	609	
0	0	0	0	0	454	609	
1	0	0	0	0	452	609	
2	0	0	0	0	451	609	
3	0	0	0	0	450	609	
4	0	0	0	0	450	609	
5	0	0	0	0	449	610	
6	0	0	0	0	448	610	
7	0	0	0	0	448	610	
8	0	0	0	0	448	609	
9	0	0	0	0	449	610	
10	0	0	0	0	451	610	
11	0	0	0	0	451	609	
12	0	0	0	0	452	609	
13	0	0	0	0	454	609	
14	0	0	0	0	456	609	
15	0	0	0	0	458	609	
0	0	0	0	0	459	609	
1	0	0	0	0	461	610	
2	0	0	0	0	462	610	
3	0	0	0	0	462	610	
4	0	0	0	0	462	610	
5	0	0	0	0	461	610	
6	0	0	0	0	460	610	
7	0	0	0	0	460	610	
8	0	0	0	0	459	611	
9	0	0	0	0	459	610	
10	0	0	0	0	459	610	
11	0	0	0	0	460	611	
12	0	0	0	0	462	610	
13	0	0	0	0	463	611	
14	0	0	0	0	465	611	
15	0	0	0	0	465	610	
0	0	0	0	0	467	610	
1	0	0	0	0	467	611	
2	0	0	0	0	468	611	
3	0	0	0	0	468	611	
4	0	0	0	0	468	611	
5	0	0	0	0	467	611	
6	0	0	0	0	465	610	
7	0	0	0	0	464	611	
8	0	0	0	0	463	611	
9	0	0	0	0	462	610	
10	0	0	0	0	460	611	
11	0	0	0	0	458	611	
12	0	0	0	0	457	611	
13	0	0	0	0	456	611	
14	0	0	0	0	457	610	
15	0	0	0	0	457	611	
0	0	0	0	0	458	610	
1	0	0	0	0	459	611	
2	0	0	0	0	460	611	
3	0	0	0	0	462	611	
4	0	0	0	0	463	610	
5	0	0	0	0	465	611	
6	0	0	0	0	467	611	
7	0	0	0	0	469	611	
8	0	0	0	0	470	611	
9	0	0	0	0	471	611	
10	0	0	0	0	471	611	
11	0	0	0	0	469	611	
12	0	0	0	0	467	611	
13	0	0	0	0	464	611	
14	0	0	0	0	462	611	
15	0	0	0	0	460	610	
0	0	0	0	0	459	610	
1	0	0	0	0	457	610	
2	0	0	0	0	458	609	
3	0	0	0	0	460	610	
4	0	0	0	0	461	609	
5	0	0	0	0	464	610	
6	0	0	0	0	466	609	
7	0	0	0	0	468	609	
8	0	0	0	0	471	609	
9	0	0	0	0	474	609	
10	0	0	0	0	477	609	
11	0	0	0	0	480	609	
12	0	0	0	0	482	608	
13	0	0	0	0	483	608	
14	0	0	0	0	482	608	
15	0	0	0	0	481	609	
0	0	0	0	0	479	608	
1	0	0	0	0	477	608	
2	0	0	0	0	476	609	
3	0	0	0	0	474	608	
4	0	0	0	0	473	608	
5	0	0	0	0	472	608	
6	0	0	0	0	471	608	
7	0	0	0	0	471	608	
8	0	0	0	0	471	608	
9	0	0	0	0	472	608	
10	0	0	0	0	472	608	
11	0	0	0	0	474	608	
12	0	0	0	0	475	608	
13	0	0	0	0	477	608	
14	0	0	0	0	479	608	
15	0	0	0	0	481	608	
0	0	0	0	0	483	608	
1	0	0	0	0	484	608	
2	0	0	0	0	484	608	
3	0	0	0	0	483	608	
4	0	0	0	0	481	609	
5	0	0	0	0	479	608	
6	0	0	0	0	477	609	
7	0	0	0	0	476	608	
8	0	0	0	0	475	609	
9	0	0	0	0	474	609	
10	0	0	0	0	475	609	
11	0	0	0	0	476	609	
12	0	0	0	0	477	609	
13	0	0	0	0	478	609	
14	0	0	0	0	479	609	
15	0	0	0	0	480	609	
0	0	0	0	0	483	610	
1	0	0	0	0	485	609	
2	0	0	0	0	487	610	
3	0	0	0	0	488	609	
4	0	0	0	0	488	609	
5	0	0	0	0	489	610	
6	0	0	0	0	487	609	
7	0	0	0	0	486	610	
8	0	0	0	0	483	609	
9	0	0	0	0	482	610	
10	0	0	0	0	481	610	
11	0	0	0	0	480	610	
12	0	0	0	0	479	610	
13	0	0	0	0	478	610	
14	0	0	0	0	478	611	
15	0	0	0	0	477	610	
0	0	0	0	0	477	610	
1	0	0	0	0	477	610	
2	0	0	0	0	478	611	
3	0	0	0	0	478	611	
4	0	0	0	0	478	610	
5	0	0	0	0	478	611	
6	0	0	0	0	478	611	
7	0	0	0	0	477	611	
8	0	0	0	0	477	610	
9	0	0	0	0	476	610	
10	0	0	0	0	476	611	
11	0	0	0	0	475	611	
12	0	0	0	0	473	611	
13	0	0	0	0	472	612	
14	0	0	0	0	471	611	
15	0	0	0	0	471	612	
0	0	0	0	0	470	611	
1	0	0	0	0	470	611	
2	0	0	0	0	470	611	
3	0	0	0	0	470	611	
4	0	0	0	0	471	611	
5	0	0	0	0	471	612	
6	0	0	0	0	472	611	
7	0	0	0	0	473	611	
8	0	0	0	0	474	612	
9	0	0	0	0	475	611	
10	0	0	0	0	476	611	
11	0	0	0	0	476	611	
12	0	0	0	0	477	611	
13	0	0	0	0	476	611	
14	0	0	0	0	476	611	
15	0	0	0	0	476	611	
0	0	0	0	0	475	611	
1	0	0	0	0	474	611	
2	0	0	0	0	473	611	
3	0	0	0	0	472	611	
4	0	0	0	0	471	611	
5	0	0	0	0	471	611	
6	0	0	0	0	472	611	
7	0	0	0	0	473	610	
8	0	0	0	0	474	610	
9	0	0	0	0	476	610	
10	0	0	0	0	478	610	
11	0	0	0	0	480	610	
12	0	0	0	0	483	609	
13	0	0	0	0	485	610	
14	0	0	0	0	487	609	
15	0	0	0	0	489	609	
0	0	0	0	0	491	609	
1	0	0	0	0	491	609	
2	0	0	0	0	491	609	
3	0	0	0	0	492	609	
4	0	0	0	0	490	609	
5	0	0	0	0	490	609	
6	0	0	0	0	489	609	
7	0	0	0	0	489	609	
8	0	0	0	0	490	609	
9	0	0	0	0	489	608	
10	0	0	0	0	490	608	
11	0	0	0	0	492	608	
12	0	0	0	0	494	609	
13	0	0	0	0	495	609	
14	0	0	0	0	497	608	
15	0	0	0	0	498	609	
0	0	0	0	0	499	609	
1	0	0	0	0	502	608	
2	0	0	0	0	504	609	
3	0	0	0	0	506	609	
4	0	0	0	0	507	608	
5	0	0	0	0	508	608	
6	0	0	0	0	508	608	
7	0	0	0	0	508	608	
8	0	0	0	0	507	609	
9	0	0	0	0	506	609	
10	0	0	0	0	505	608	
11	0	0	0	0	504	609	
12	0	0	0	0	505	608	
13	0	0	0	0	505	609	
14	0	0	0	0	505	608	
15	0	0	0	0	506	608	
0	0	0	0	0	506	608	
1	0	0	0	0	507	609	
2	0	0	0	0	508	609	
3	0	0	0	0	510	609	
4	0	0	0	0	511	609	
5	0	0	0	0	513	609	
6	0	0	0	0	515	610	
7	0	0	0	0	515	610	
8	0	0	0	0	515	610	
9	0	0	0	0	516	609	
10	0	0	0	0	515	609	
11	0	0	0	0	515	611	
12	0	0	0	0	513	610	
13	0	0	0	0	511	610	
14	0	0	0	0	509	610	
15	0	0	0	0	507	610	
0	0	0	0	0	506	610	
1	0	0	0	0	505	610	
2	0	0	0	0	505	610	
3	0	0	0	0	504	610	
4	0	0	0	0	505	610	
5	0	0	0	0	506	610	
6	0	0	0	0	507	610	
7	0	0	0	0	509	610	
8	0	0	0	0	511	611	
9	0	0	0	0	511	610	
10	0	0	0	0	512	611	
11	0	0	0	0	512	611	
12	0	0	0	0	512	610	
13	0	0	0	0	511	611	
14	0	0	0	0	510	611	
15	0	0	0	0	509	610	
0	0	0	0	0	508	611	
1	0	0	0	0	506	611	
2	0	0	0	0	504	611	
3	0	0	0	0	504	610	
4	0	0	0	0	504	611	
5	0	0	0	0	504	610	
6	0	0	0	0	504	611	
7	0	0	0	0	505	611	
8	0	0	0	0	505	611	
9	0	0	0	0	506	611	
10	0	0	0	0	507	610	
11	0	0	0	0	508	611	
12	0	0	0	0	509	610	
13	0	0	0	0	510	611	
14	0	0	0	0	511	611	
15	0	0	0	0	511	609	
0	0	0	0	0	511	610	
1	0	0	0	0	511	609	
2	0	0	0	0	509	609	
3	0	0	0	0	509	610	
4	0	0	0	0	507	610	
5	0	0	0	0	505	610	
6	0	0	0	0	503	609	
7	0	0	0	0	501	609	
8	0	0	0	0	500	610	
9	0	0	0	0	500	609	
10	0	0	0	0	501	609	
11	0	0	0	0	501	609	
12	0	0	0	0	502	609	
13	0	0	0	0	503	610	
14	0	0	0	0	504	609	
15	0	0	0	0	505	609	
0	0	0	0	0	506	609	
1	0	0	0	0	507	609	
2	0	0	0	0	510	609	
3	0	0	0	0	510	609	
4	0	0	0	0	510	609	
5	0	0	0	0	509	609	
6	0	0	0	0	508	609	
7	0	0	0	0	507	609	
8	0	0	0	0	505	609	
9	0	0	0	0	503	609	
10	0	0	0	0	501	610	
11	0	0	0	0	499	610	
12	0	0	0	0	498	609	
13	0	0	0	0	496	609	
14	0	0	0	0	494	609	
15	0	0	0	0	493	610	
0	0	0	0	0	493	609	
1	0	0	0	0	493	610	
2	0	0	0	0	494	609	
3	0	0	0	0	495	610	
4	0	0	0	0	495	609	
5	0	0	0	0	497	610	
6	0	0	0	0	499	611	
7	0	0	0	0	499	610	
8	0	0	0	0	500	611	
9	0	0	0	0	501	611	
10	0	0	0	0	501	610	
11	0	0	0	0	500	611	
12	0	0	0	0	498	611	
13	0	0	0	0	496	611	
14	0	0	0	0	495	611	
15	0	0	0	0	494	610	
0	0	0	0	0	493	611	
1	0	0	0	0	493	611	
2	0	0	0	0	494	611	
3	0	0	0	0	495	611	
4	0	0	0	0	496	611	
5	0	0	0	0	497	611	
6	0	0	0	0	499	611	
7	0	0	0	0	501	611	
8	0	0	0	0	503	611	
9	0	0	0	0	505	611	
10	0	0	0	0	507	611	
11	0	0	0	0	508	611	
12	0	0	0	0	509	611	
13	0	0	0	0	508	611	
14	0	0	0	0	508	611	
15	0	0	0	0	506	611	
0	0	0	0	0	504	611	
1	0	0	0	0	502	611	
2	0	0	0	0	500	611	
3	0	0	0	0	498	610	
4	0	0	0	0	497	611	
5	0	0	0	0	496	611	
6	0	0	0	0	495	610	
7	0	0	0	0	495	610	
8	0	0	0	0	494	610	
9	0	0	0	0	494	610	
10	0	0	0	0	494	610	
11	0	0	0	0	495	610	
12	0	0	0	0	496	610	
13	0	0	0	0	497	609	
14	0	0	0	0	499	609	
15	0	0	0	0	500	609	
0	0	0	0	0	501	609	
1	0	0	0	0	502	610	
2	0	0	0	0	502	609	
3	0	0	0	0	502	609	
4	0	0	0	0	500	610	
5	0	0	0	0	498	610	
6	0	0	0	0	497	609	
7	0	0	0	0	497	610	
8	0	0	0	0	496	609	
9	0	0	0	0	496	609	
10	0	0	0	0	496	609	
11	0	0	0	0	497	609	
12	0	0	0	0	498	608	
13	0	0	0	0	499	609	
14	0	0	0	0	500	609	
15	0	0	0	0	500	609	
0	0	0	0	0	501	609	
1	0	0	0	0	502	608	
2	0	0	0	0	503	608	
3	0	0	0	0	503	609	
4	0	0	0	0	503	609	
5	0	0	0	0	503	608	
6	0	0	0	0	502	608	
7	0	0	0	0	500	609	
8	0	0	0	0	499	609	
9	0	0	0	0	497	609	
10	0	0	0	0	496	609	
11	0	0	0	0	495	609	
12	0	0	0	0	494	609	
13	0	0	0	0	493	609	
14	0	0	0	0	492	609	
15	0	0	0	0	492	609	
0	0	0	0	0	491	608	
1	0	0	0	0	491	608	
2	0	0	0	0	491	609	
3	0	0	0	0	492	609	
4	0	0	0	0	493	610	
5	0	0	0	0	495	610	
6	0	0	0	0	497	609	
7	0	0	0	0	497	609	
8	0	0	0	0	498	609	
9	0	0	0	0	499	610	
10	0	0	0	0	499	610	
11	0	0	0	0	499	610	
12	0	0	0	0	497	610	
13	0	0	0	0	496	610	
14	0	0	0	0	496	609	
15	0	0	0	0	495	610	
0	0	0	0	0	495	610	
1	0	0	0	0	495	610	
2	0	0	0	0	494	610	
3	0	0	0	0	494	610	
4	0	0	0	0	494	609	
5	0	0	0	0	496	611	
6	0	0	0	0	497	610	
7	0	0	0	0	499	610	
8	0	0	0	0	501	610	
9	0	0	0	0	504	610	
10	0	0	0	0	505	610	
11	0	0	0	0	507	610	
12	0	0	0	0	507	610	
13	0	0	0	0	508	610	
14	0	0	0	0	507	609	
15	0	0	0	0	506	611	
0	0	0	0	0	504	610	
1	0	0	0	0	503	610	
2	0	0	0	0	501	610	
3	0	0	0	0	500	610	
4	0	0	0	0	500	611	
5	0	0	0	0	500	611	
6	0	0	0	0	500	610	
7	0	0	0	0	501	610	
8	0	0	0	0	502	610	
9	0	0	0	0	503	610	
10	0	0	0	0	503	610	
11	0	0	0	0	504	610	
12	0	0	0	0	507	609	
13	0	0	0	0	509	610	
14	0	0	0	0	511	610	
15	0	0	0	0	512	609	
0	0	0	0	0	513	610	
1	0	0	0	0	513	609	
2	0	0	0	0	512	609	
3	0	0	0	0	512	610	
4	0	0	0	0	510	609	
5	0	0	0	0	508	611	
6	0	0	0	0	506	610	
7	0	0	0	0	504	609	
8	0	0	0	0	504	610	
9	0	0	0	0	503	610	
10	0	0	0	0	502	610	
11	0	0	0	0	502	610	
12	0	0	0	0	502	610	
13	0	0	0	0	503	610	
14	0	0	0	0	504	610	
15	0	0	0	0	505	609	
0	0	0	0	0	507	610	
1	0	0	0	0	509	610	
2	0	0	0	0	512	610	
3	0	0	0	0	512	610	
4	0	0	0	0	513	610	
5	0	0	0	0	513	609	
6	0	0	0	0	512	610	
7	0	0	0	0	511	609	
8	0	0	0	0	509	610	
9	0	0	0	0	506	610	
10	0	0	0	0	504	609	
11	0	0	0	0	501	610	
12	0	0	0	0	499	610	
13	0	0	0	0	497	610	
14	0	0	0	0	495	610	
15	0	0	0	0	495	610	
0	0	0	0	0	495	609	
1	0	0	0	0	495	611	
2	0	0	0	0	496	610	
3	0	0	0	0	497	610	
4	0	0	0	0	497	610	
5	0	0	0	0	499	609	
6	0	0	0	0	500	609	
7	0	0	0	0	501	609	
8	0	0	0	0	502	610	
9	0	0	0	0	503	610	
10	0	0	0	0	502	610	
11	0	0	0	0	502	610	
12	0	0	0	0	501	610	
13	0	0	0	0	499	610	
14	0	0	0	0	499	610	
15	0	0	0	0	498	610	
0	0	0	0	0	498	610	
1	0	0	0	0	498	610	
2	0	0	0	0	498	611	
3	0	0	0	0	498	609	
4	0	0	0	0	499	610	
5	0	0	0	0	500	610	
6	0	0	0	0	500	611	
7	0	0	0	0	501	610	
8	0	0	0	0	502	610	
9	0	0	0	0	503	610	
10	0	0	0	0	504	610	
11	0	0	0	0	505	610	
12	0	0	0	0	505	610	
13	0	0	0	0	505	611	
14	0	0	0	0	504	610	
15	0	0	0	0	503	610	
0	0	0	0	0	502	610	
1	0	0	0	0	500	610	
2	0	0	0	0	499	610	
3	0	0	0	0	497	609	
4	0	0	0	0	497	610	
5	0	0	0	0	497	610	
6	0	0	0	0	497	610	
7	0	0	0	0	498	610	
8	0	0	0	0	499	610	
9	0	0	0	0	501	610	
10	0	0	0	0	502	610	
11	0	0	0	0	503	609	
12	0	0	0	0	504	610	
13	0	0	0	0	505	609	
14	0	0	0	0	507	610	
15	0	0	0	0	509	609	
0	0	0	0	0	510	609	
1	0	0	0	0	511	609	
2	0	0	0	0	511	610	
3	0	0	0	0	512	610	
4	0	0	0	0	511	610	
5	0	0	0	0	509	611	
6	0	0	0	0	508	610	
7	0	0	0	0	507	610	
8	0	0	0	0	507	609	
9	0	0	0	0	507	610	
10	0	0	0	0	507	609	
11	0	0	0	0	508	610	
12	0	0	0	0	509	610	
13	0	0	0	0	510	610	
14	0	0	0	0	511	609	
15	0	0	0	0	512	610	
0	0	0	0	0	513	610	
1	0	0	0	0	515	609	
2	0	0	0	0	515	610	
3	0	0	0	0	516	609	
4	0	0	0	0	516	610	
5	0	0	0	0	515	609	
6	0	0	0	0	515	609	
7	0	0	0	0	514	609	
8	0	0	0	0	512	609	
9	0	0	0	0	511	609	
10	0	0	0	0	510	610	
11	0	0	0	0	508	610	
12	0	0	0	0	507	610	
13	0	0	0	0	506	609	
14	0	0	0	0	506	609	
15	0	0	0	0	506	609	
0	0	0	0	0	508	609	
1	0	0	0	0	509	609	
2	0	0	0	0	510	609	
3	0	0	0	0	511	609	
4	0	0	0	0	512	609	
5	0	0	0	0	514	610	
6	0	0	0	0	517	610	
7	0	0	0	0	518	610	
8	0	0	0	0	519	610	
9	0	0	0	0	518	610	
10	0	0	0	0	518	610	
11	0	0	0	0	517	610	
12	0	0	0	0	515	610	
13	0	0	0	0	513	609	
14	0	0	0	0	512	609	
15	0	0	0	0	511	609	
0	0	0	0	0	510	609	
1	0	0	0	0	510	609	
2	0	0	0	0	510	610	
3	0	0	0	0	511	610	
4	0	0	0	0	511	610	
5	0	0	0	0	512	610	
6	0	0	0	0	513	609	
7	0	0	0	0	515	610	
8	0	0	0	0	517	609	
9	0	0	0	0	518	610	
10	0	0	0	0	520	610	
11	0	0	0	0	520	609	
12	0	0	0	0	521	610	
13	0	0	0	0	520	610	
14	0	0	0	0	519	609	
15	0	0	0	0	518	609	
0	0	0	0	0	517	610	
1	0	0	0	0	515	610	
2	0	0	0	0	514	610	
3	0	0	0	0	512	610	
4	0	0	0	0	511	610	
5	0	0	0	0	509	611	
6	0	0	0	0	508	610	
7	0	0	0	0	507	610	
8	0	0	0	0	507	609	
9	0	0	0	0	508	610	
10	0	0	0	0	508	610	
11	0	0	0	0	510	610	
12	0	0	0	0	511	610	
13	0	0	0	0	512	611	
14	0	0	0	0	513	610	
15	0	0	0	0	514	611	
0	0	0	0	0	514	610	
1	0	0	0	0	513	610	
2	0	0	0	0	513	610	
3	0	0	0	0	512	610	
4	0	0	0	0	511	610	
5	0	0	0	0	510	611	
6	0	0	0	0	509	610	
7	0	0	0	0	508	609	
8	0	0	0	0	508	610	
9	0	0	0	0	506	609	
10	0	0	0	0	506	610	
11	0	0	0	0	506	609	
12	0	0	0	0	506	609	
13	0	0	0	0	507	610	
14	0	0	0	0	507	609	
15	0	0	0	0	507	610	
0	0	0	0	0	507	609	
1	0	0	0	0	508	609	
2	0	0	0	0	509	609	
3	0	0	0	0	510	610	
4	0	0	0	0	510	609	
5	0	0	0	0	510	609	
6	0	0	0	0	508	610	
7	0	0	0	0	505	610	
8	0	0	0	0	501	609	
9	0	0	0	0	498	610	
10	0	0	0	0	495	610	
11	0	0	0	0	491	609	
12	0	0	0	0	487	610	
13	0	0	0	0	482	610	
14	0	0	0	0	477	610	
15	0	0	0	0	471	610	
0	0	0	0	0	466	610	
1	0	0	0	0	461	610	
2	0	0	0	0	457	610	
3	0	0	0	0	455	610	
4	0	0	0	0	452	609	
5	0	0	0	0	453	610	
6	0	0	0	0	457	610	
7	0	0	0	0	464	609	
8	0	0	0	0	474	610	
9	0	0	0	0	486	610	
10	0	0	0	0	499	610	
11	0	0	0	0	516	610	
12	0	0	0	0	534	609	
13	0	0	0	0	553	610	
14	0	0	0	0	574	610	
15	0	0	0	0	594	609	
0	0	0	0	0	611	609	
1	0	0	0	0	627	610	
2	0	0	0	0	641	609	
3	0	0	0	0	651	610	
4	0	0	0	0	658	609	
5	0	0	0	0	664	611	
6	0	0	0	0	669	610	
7	0	0	0	0	674	610	
8	0	0	0	0	680	610	
9	0	0	0	0	684	609	
10	0	0	0	0	692	610	
11	0	0	0	0	699	610	
12	0	0	0	0	704	610	
13	0	0	0	0	707	609	
14	0	0	0	0	708	609	
15	0	0	0	0	715	609	
0	0	0	0	0	729	609	
1	0	0	0	0	746	610	
2	0	0	0	0	758	610	
3	0	0	0	0	758	609	
4	0	0	0	0	752	609	
5	0	0	0	0	740	610	
6	0	0	0	0	723	609	
7	0	0	0	0	701	610	
8	0	0	0	0	676	609	
9	0	0	0	0	651	610	
10	0	0	0	0	626	610	
11	0	0	0	0	603	610	
12	0	0	0	0	581	610	
13	0	0	0	0	561	610	
14	0	0	0	0	544	609	
15	0	0	0	0	530	609	
0	0	0	0	0	518	609	
1	0	0	0	0	507	609	
2	0	0	0	0	496	610	
3	0	0	0	0	487	610	
4	0	0	0	0	478	610	
5	0	0	0	0	471	610	
6	0	0	0	0	465	609	
7	0	0	0	0	460	610	
8	0	0	0	0	456	610	
9	0	0	0	0	453	610	
10	0	0	0	0	450	610	
11	0	0	0	0	448	611	
12	0	0	0	0	448	609	
13	0	0	0	0	447	610	
14	0	0	0	0	447	609	
15	0	0	0	0	448	610	
0	0	0	0	0	450	610	
1	0	0	0	0	451	611	
2	0	0	0	0	452	610	
3	0	0	0	0	454	610	
4	0	0	0	0	454	610	
5	0	0	0	0	454	611	
6	0	0	0	0	453	610	
7	0	0	0	0	452	610	
8	0	0	0	0	450	610	
9	0	0	0	0	448	609	
10	0	0	0	0	446	610	
11	0	0	0	0	444	610	
12	0	0	0	0	442	609	
13	0	0	0	0	441	610	
14	0	0	0	0	440	610	
15	0	0	0	0	442	609	
0	0	0	0	0	443	610	
1	0	0	0	0	444	609	
2	0	0	0	0	445	609	
3	0	0	0	0	447	610	
4	0	0	0	0	448	609	
5	0	0	0	0	450	609	
6	0	0	0	0	452	609	
7	0	0	0	0	453	609	
8	0	0	0	0	454	609	
9	0	0	0	0	454	609	
10	0	0	0	0	454	610	
11	0	0	0	0	453	610	
12	0	0	0	0	452	609	
13	0	0	0	0	451	610	
14	0	0	0	0	452	610	
15	0	0	0	0	451	609	
0	0	0	0	0	451	609	
1	0	0	0	0	451	609	
2	0	0	0	0	451	610	
3	0	0	0	0	451	609	
4	0	0	0	0	453	610	
5	0	0	0	0	454	610	
6	0	0	0	0	455	609	
7	0	0	0	0	456	609	
8	0	0	0	0	457	609	
9	0	0	0	0	459	609	
10	0	0	0	0	460	609	
11	0	0	0	0	461	610	
12	0	0	0	0	462	610	
13	0	0	0	0	462	610	
14	0	0	0	0	461	610	
15	0	0	0	0	459	611	
0	0	0	0	0	457	610	
1	0	0	0	0	456	610	
2	0	0	0	0	454	610	
3	0	0	0	0	452	610	
4	0	0	0	0	449	610	
5	0	0	0	0	449	611	
6	0	0	0	0	449	610	
7	0	0	0	0	450	611	
8	0	0	0	0	451	610	
9	0	0	0	0	452	610	
10	0	0	0	0	453	611	
11	0	0	0	0	453	611	
12	0	0	0	0	454	610	
13	0	0	0	0	455	610	
14	0	0	0	0	456	611	
15	0	0	0	0	457	611	
0	0	0	0	0	458	611	
1	0	0	0	0	459	611	
2	0	0	0	0	458	611	
3	0	0	0	0	457	610	
4	0	0	0	0	456	610	
5	0	0	0	0	455	611	
6	0	0	0	0	453	611	
7	0	0	0	0	452	611	
8	0	0	0	0	452	611	
9	0	0	0	0	454	611	
10	0	0	0	0	455	610	
11	0	0	0	0	454	610	
12	0	0	0	0	455	610	
13	0	0	0	0	455	611	
14	0	0	0	0	456	611	
15	0	0	0	0	457	610	
0	0	0	0	0	459	610	
1	0	0	0	0	460	610	
2	0	0	0	0	461	610	
3	0	0	0	0	463	610	
4	0	0	0	0	464	610	
5	0	0	0	0	465	611	
6	0	0	0	0	464	610	
7	0	0	0	0	464	610	
8	0	0	0	0	463	610	
9	0	0	0	0	461	610	
10	0	0	0	0	460	610	
11	0	0	0	0	460	610	
12	0	0	0	0	459	610	
13	0	0	0	0	458	611	
14	0	0	0	0	457	610	
15	0	0	0	0	458	609	
0	0	0	0	0	458	609	
1	0	0	0	0	459	609	
2	0	0	0	0	459	609	
3	0	0	0	0	460	610	
4	0	0	0	0	461	610	
5	0	0	0	0	463	610	
6	0	0	0	0	463	610	
7	0	0	0	0	464	610	
8	0	0	0	0	463	610	
9	0	0	0	0	463	610	
10	0	0	0	0	462	609	
11	0	0	0	0	462	610	
12	0	0	0	0	460	609	
13	0	0	0	0	459	611	
14	0	0	0	0	458	610	
15	0	0	0	0	457	610	
0	0	0	0	0	456	609	
1	0	0	0	0	457	609	
2	0	0	0	0	458	609	
3	0	0	0	0	460	609	
4	0	0	0	0	461	609	
5	0	0	0	0	462	610	
6	0	0	0	0	463	609	
7	0	0	0	0	464	609	
8	0	0	0	0	466	609	
9	0	0	0	0	468	610	
10	0	0	0	0	470	610	
11	0	0	0	0	471	609	
12	0	0	0	0	471	609	
13	0	0	0	0	472	610	
14	0	0	0	0	472	610	
15	0	0	0	0	471	610	
0	0	0	0	0	470	610	
1	0	0	0	0	470	609	
2	0	0	0	0	470	610	
3	0	0	0	0	470	610	
4	0	0	0	0	469	611	
5	0	0	0	0	468	611	
6	0	0	0	0	468	610	
7	0	0	0	0	469	610	
8	0	0	0	0	471	610	
9	0	0	0	0	473	610	
10	0	0	0	0	475	611	
11	0	0	0	0	476	611	
12	0	0	0	0	477	610	
13	0	0	0	0	479	611	
14	0	0	0	0	480	611	
15	0	0	0	0	479	610	
0	0	0	0	0	479	610	
1	0	0	0	0	477	610	
2	0	0	0	0	476	610	
3	0	0	0	0	474	611	
4	0	0	0	0	472	610	
5	0	0	0	0	470	611	
6	0	0	0	0	469	611	
7	0	0	0	0	467	611	
8	0	0	0	0	466	611	
9	0	0	0	0	465	611	
10	0	0	0	0	464	610	
11	0	0	0	0	464	611	
12	0	0	0	0	465	611	
13	0	0	0	0	466	611	
14	0	0	0	0	467	610	
15	0	0	0	0	468	610	
0	0	0	0	0	470	611	
1	0	0	0	0	472	610	
2	0	0	0	0	474	611	
3	0	0	0	0	473	610	
4	0	0	0	0	474	610	
5	0	0	0	0	474	611	
6	0	0	0	0	474	610	
7	0	0	0	0	473	611	
8	0	0	0	0	472	610	
9	0	0	0	0	470	610	
10	0	0	0	0	468	609	
11	0	0	0	0	466	609	
12	0	0	0	0	464	610	
13	0	0	0	0	463	610	
14	0	0	0	0	463	610	
15	0	0	0	0	463	610	
0	0	0	0	0	463	609	
1	0	0	0	0	463	609	
2	0	0	0	0	465	609	
3	0	0	0	0	466	609	
4	0	0	0	0	468	609	
5	0	0	0	0	469	610	
6	0	0	0	0	471	609	
7	0	0	0	0	472	609	
8	0	0	0	0	473	609	
9	0	0	0	0	473	609	
10	0	0	0	0	472	609	
11	0	0	0	0	471	610	
12	0	0	0	0	469	609	
13	0	0	0	0	468	609	
14	0	0	0	0	468	609	
15	0	0	0	0	468	609	
0	0	0	0	0	468	609	
1	0	0	0	0	469	609	
2	0	0	0	0	471	609	
3	0	0	0	0	472	608	
4	0	0	0	0	474	609	
5	0	0	0	0	476	609	
6	0	0	0	0	477	609	
7	0	0	0	0	480	609	
8	0	0	0	0	482	609	
9	0	0	0	0	484	609	
10	0	0	0	0	486	609	
11	0	0	0	0	488	609	
12	0	0	0	0	488	609	
13	0	0	0	0	488	610	
14	0	0	0	0	488	609	
15	0	0	0	0	487	610	
0	0	0	0	0	486	610	
1	0	0	0	0	486	609	
2	0	0	0	0	484	610	
3	0	0	0	0	484	609	
4	0	0	0	0	484	609	
5	0	0	0	0	485	610	
6	0	0	0	0	485	610	
7	0	0	0	0	487	610	
8	0	0	0	0	488	609	
9	0	0	0	0	491	609	
10	0	0	0	0	493	609	
11	0	0	0	0	496	610	
12	0	0	0	0	499	609	
13	0	0	0	0	501	610	
14	0	0	0	0	503	610	
15	0	0	0	0	505	610	
0	0	0	0	0	505	610	
1	0	0	0	0	506	610	
2	0	0	0	0	506	610	
3	0	0	0	0	506	610	
4	0	0	0	0	506	611	
5	0	0	0	0	505	611	
6	0	0	0	0	504	609	
7	0	0	0	0	502	611	
8	0	0	0	0	500	610	
9	0	0	0	0	499	611	
10	0	0	0	0	499	611	
11	0	0	0	0	500	611	
12	0	0	0	0	500	611	
13	0	0	0	0	502	611	
14	0	0	0	0	504	611	
15	0	0	0	0	506	611	
0	0	0	0	0	508	611	
1	0	0	0	0	509	611	
2	0	0	0	0	511	611	
3	0	0	0	0	512	611	
4	0	0	0	0	513	611	
5	0	0	0	0	514	611	
6	0	0	0	0	514	610	
7	0	0	0	0	513	611	
8	0	0	0	0	512	611	
9	0	0	0	0	511	611	
10	0	0	0	0	510	611	
11	0	0	0	0	508	611	
12	0	0	0	0	508	611	
13	0	0	0	0	508	611	
14	0	0	0	0	508	611	
15	0	0	0	0	508	610	
0	0	0	0	0	508	610	
1	0	0	0	0	510	610	
2	0	0	0	0	510	610	
3	0	0	0	0	511	610	
4	0	0	0	0	512	610	
5	0	0	0	0	513	610	
6	0	0	0	0	515	611	
7	0	0	0	0	518	610	
8	0	0	0	0	519	610	
9	0	0	0	0	519	610	
10	0	0	0	0	518	610	
11	0	0	0	0	517	611	
12	0	0	0	0	516	611	
13	0	0	0	0	515	611	
14	0	0	0	0	514	611	
15	0	0	0	0	512	610	
0	0	0	0	0	511	609	
1	0	0	0	0	510	610	
2	0	0	0	0	510	610	
3	0	0	0	0	510	610	
4	0	0	0	0	511	609	
5	0	0	0	0	513	611	
6	0	0	0	0	513	610	
7	0	0	0	0	515	609	
8	0	0	0	0	516	610	
9	0	0	0	0	518	609	
10	0	0	0	0	519	610	
11	0	0	0	0	521	609	
12	0	0	0	0	521	610	
13	0	0	0	0	522	610	
14	0	0	0	0	522	610	
15	0	0	0	0	521	609	
0	0	0	0	0	519	609	
1	0	0	0	0	518	609	
2	0	0	0	0	515	609	
3	0	0	0	0	515	609	
4	0	0	0	0	515	610	
5	0	0	0	0	515	610	
6	0	0	0	0	515	609	
7	0	0	0	0	515	609	
8	0	0	0	0	517	609	
9	0	0	0	0	518	609	
10	0	0	0	0	518	609	
11	0	0	0	0	519	609	
12	0	0	0	0	520	609	
13	0	0	0	0	521	610	
14	0	0	0	0	523	609	
15	0	0	0	0	524	609	
0	0	0	0	0	524	609	
1	0	0	0	0	524	610	
2	0	0	0	0	521	609	
3	0	0	0	0	520	610	
4	0	0	0	0	518	609	
5	0	0	0	0	516	610	
6	0	0	0	0	514	609	
7	0	0	0	0	513	609	
8	0	0	0	0	512	610	
9	0	0	0	0	511	609	
10	0	0	0	0	510	610	
11	0	0	0	0	510	610	
12	0	0	0	0	511	610	
13	0	0	0	0	512	611	
14	0	0	0	0	513	610	
15	0	0	0	0	515	609	
0	0	0	0	0	515	609	
1	0	0	0	0	517	609	
2	0	0	0	0	519	609	
3	0	0	0	0	521	610	
4	0	0	0	0	522	610	
5	0	0	0	0	523	611	
6	0	0	0	0	523	609	
7	0	0	0	0	521	610	
8	0	0	0	0	519	610	
9	0	0	0	0	517	610	
10	0	0	0	0	516	610	
11	0	0	0	0	514	610	
12	0	0	0	0	513	610	
13	0	0	0	0	512	611	
14	0	0	0	0	512	610	
15	0	0	0	0	512	610	
0	0	0	0	0	513	610	
1	0	0	0	0	514	610	
2	0	0	0	0	515	609	
3	0	0	0	0	517	610	
4	0	0	0	0	518	609	
5	0	0	0	0	519	610	
6	0	0	0	0	521	610	
7	0	0	0	0	522	610	
8	0	0	0	0	522	610	
9	0	0	0	0	521	610	
10	0	0	0	0	520	610	
11	0	0	0	0	518	610	
12	0	0	0	0	517	610	
13	0	0	0	0	515	610	
14	0	0	0	0	515	610	
15	0	0	0	0	513	610	
0	0	0	0	0	513	610	
1	0	0	0	0	513	610	
2	0	0	0	0	513	609	
3	0	0	0	0	513	609	
4	0	0	0	0	513	610	
5	0	0	0	0	513	611	
6	0	0	0	0	513	610	
7	0	0	0	0	513	610	
8	0	0	0	0	514	609	
9	0	0	0	0	516	609	
10	0	0	0	0	516	610	
11	0	0	0	0	518	610	
12	0	0	0	0	518	610	
13	0	0	0	0	519	611	
14	0	0	0	0	519	609	
15	0	0	0	0	518	610	
0	0	0	0	0	517	610	
1	0	0	0	0	516	610	
2	0	0	0	0	515	610	
3	0	0	0	0	515	609	
4	0	0	0	0	514	610	
5	0	0	0	0	513	611	
6	0	0	0	0	514	610	
7	0	0	0	0	514	610	
8	0	0	0	0	516	610	
9	0	0	0	0	517	610	
10	0	0	0	0	519	610	
11	0	0	0	0	520	611	
12	0	0	0	0	521	610	
13	0	0	0	0	524	610	
14	0	0	0	0	526	609	
15	0	0	0	0	528	609	
0	0	0	0	0	529	610	
1	0	0	0	0	530	610	
2	0	0	0	0	529	610	
3	0	0	0	0	530	610	
4	0	0	0	0	529	610	
5	0	0	0	0	527	611	
6	0	0	0	0	526	610	
7	0	0	0	0	525	609	
8	0	0	0	0	524	610	
9	0	0	0	0	523	610	
10	0	0	0	0	523	610	
11	0	0	0	0	523	610	
12	0	0	0	0	524	609	
13	0	0	0	0	525	610	
14	0	0	0	0	526	609	
15	0	0	0	0	526	610	
0	0	0	0	0	527	610	
1	0	0	0	0	528	610	
2	0	0	0	0	531	609	
3	0	0	0	0	532	610	
4	0	0	0	0	533	610	
5	0	0	0	0	534	610	
6	0	0	0	0	532	609	
7	0	0	0	0	531	610	
8	0	0	0	0	529	610	
9	0	0	0	0	527	609	
10	0	0	0	0	526	610	
11	0	0	0	0	525	610	
12	0	0	0	0	523	609	
13	0	0	0	0	522	611	
14	0	0	0	0	522	610	
15	0	0	0	0	523	610	
0	0	0	0	0	522	610	
1	0	0	0	0	523	610	
2	0	0	0	0	523	610	
3	0	0	0	0	524	610	
4	0	0	0	0	525	610	
5	0	0	0	0	526	610	
6	0	0	0	0	528	610	
7	0	0	0	0	528	609	
8	0	0	0	0	528	609	
9	0	0	0	0	527	609	
10	0	0	0	0	526	609	
11	0	0	0	0	524	610	
12	0	0	0	0	522	610	
13	0	0	0	0	519	610	
14	0	0	0	0	518	609	
15	0	0	0	0	518	609	
0	0	0	0	0	518	610	
1	0	0	0	0	516	609	
2	0	0	0	0	514	610	
3	0	0	0	0	514	610	
4	0	0	0	0	514	610	
5	0	0	0	0	515	611	
6	0	0	0	0	515	610	
7	0	0	0	0	517	610	
8	0	0	0	0	519	609	
9	0	0	0	0	520	610	
10	0	0	0	0	522	610	
11	0	0	0	0	522	610	
12	0	0	0	0	522	610	
13	0	0	0	0	522	610	
14	0	0	0	0	521	610	
15	0	0	0	0	521	610	
0	0	0	0	0	519	611	
1	0	0	0	0	517	610	
2	0	0	0	0	515	611	
3	0	0	0	0	513	610	
4	0	0	0	0	512	611	
5	0	0	0	0	511	611	
6	0	0	0	0	510	610	
7	0	0	0	0	510	610	
8	0	0	0	0	510	610	
9	0	0	0	0	511	611	
10	0	0	0	0	512	611	
11	0	0	0	0	514	611	
12	0	0	0	0	516	611	
13	0	0	0	0	518	611	
14	0	0	0	0	519	610	
15	0	0	0	0	520	611	
0	0	0	0	0	522	611	
1	0	0	0	0	521	611	
2	0	0	0	0	519	611	
3	0	0	0	0	518	611	
4	0	0	0	0	516	611	
5	0	0	0	0	514	611	
6	0	0	0	0	512	611	
7	0	0	0	0	511	611	
8	0	0	0	0	509	610	
9	0	0	0	0	508	611	
10	0	0	0	0	507	610	
11	0	0	0	0	507	611	
12	0	0	0	0	506	611	
13	0	0	0	0	506	611	
14	0	0	0	0	507	611	
15	0	0	0	0	508	611	
0	0	0	0	0	508	611	
1	0	0	0	0	509	610	
2	0	0	0	0	510	611	
3	0	0	0	0	510	610	
4	0	0	0	0	510	611	
5	0	0	0	0	508	611	
6	0	0	0	0	507	611	
7	0	0	0	0	505	611	
8	0	0	0	0	503	610	
9	0	0	0	0	500	610	
10	0	0	0	0	498	610	
11	0	0	0	0	496	610	
12	0	0	0	0	494	611	
13	0	0	0	0	494	610	
14	0	0	0	0	494	611	
15	0	0	0	0	494	609	
0	0	0	0	0	494	610	
1	0	0	0	0	495	611	
2	0	0	0	0	496	610	
3	0	0	0	0	497	610	
4	0	0	0	0	499	610	
5	0	0	0	0	500	610	
6	0	0	0	0	501	610	
7	0	0	0	0	502	609	
8	0	0	0	0	502	609	
9	0	0	0	0	502	609	
10	0	0	0	0	502	609	
11	0	0	0	0	502	610	
12	0	0	0	0	502	610	
13	0	0	0	0	503	610	
14	0	0	0	0	503	609	
15	0	0	0	0	503	610	
0	0	0	0	0	502	609	
1	0	0	0	0	502	609	
2	0	0	0	0	501	609	
3	0	0	0	0	502	610	
4	0	0	0	0	503	609	
5	0	0	0	0	504	610	
6	0	0	0	0	504	609	
7	0	0	0	0	505	609	
8	0	0	0	0	505	609	
9	0	0	0	0	506	609	
10	0	0	0	0	507	610	
11	0	0	0	0	507	609	
12	0	0	0	0	506	610	
13	0	0	0	0	505	610	
14	0	0	0	0	505	609	
15	0	0	0	0	504	609	
0	0	0	0	0	503	610	
1	0	0	0	0	503	609	
2	0	0	0	0	502	610	
3	0	0	0	0	502	609	
4	0	0	0	0	501	610	
5	0	0	0	0	501	611	
6	0	0	0	0	499	610	
7	0	0	0	0	498	610	
8	0	0	0	0	498	609	
9	0	0	0	0	498	610	
10	0	0	0	0	498	610	
11	0	0	0	0	498	610	
12	0	0	0	0	499	610	
13	0	0	0	0	500	610	
14	0	0	0	0	501	609	
15	0	0	0	0	501	610	
0	0	0	0	0	502	610	
1	0	0	0	0	502	609	
2	0	0	0	0	502	610	
3	0	0	0	0	501	610	
4	0	0	0	0	499	610	
5	0	0	0	0	499	611	
6	0	0	0	0	498	610	
7	0	0	0	0	497	610	
8	0	0	0	0	495	610	
9	0	0	0	0	495	610	
10	0	0	0	0	495	610	
11	0	0	0	0	495	609	
12	0	0	0	0	496	610	
13	0	0	0	0	497	610	
14	0	0	0	0	498	610	
15	0	0	0	0	499	610	
0	0	0	0	0	501	611	
1	0	0	0	0	503	610	
2	0	0	0	0	504	611	
3	0	0	0	0	505	610	
4	0	0	0	0	505	610	
5	0	0	0	0	505	611	
6	0	0	0	0	504	610	
7	0	0	0	0	503	610	
8	0	0	0	0	501	610	
9	0	0	0	0	499	610	
10	0	0	0	0	498	611	
11	0	0	0	0	497	610	
12	0	0	0	0	496	610	
13	0	0	0	0	495	611	
14	0	0	0	0	495	610	
15	0	0	0	0	495	609	
0	0	0	0	0	496	610	
1	0	0	0	0	496	610	
2	0	0	0	0	496	610	
3	0	0	0	0	497	610	
4	0	0	0	0	498	611	
5	0	0	0	0	499	610	
6	0	0	0	0	500	611	
7	0	0	0	0	500	611	
8	0	0	0	0	500	610	
9	0	0	0	0	500	610	
10	0	0	0	0	500	610	
11	0	0	0	0	499	611	
12	0	0	0	0	496	611	
13	0	0	0	0	495	610	
14	0	0	0	0	494	610	
15	0	0	0	0	492	610	
0	0	0	0	0	492	610	
1	0	0	0	0	492	609	
2	0	0	0	0	492	609	
3	0	0	0	0	492	609	
4	0	0	0	0	494	609	
5	0	0	0	0	496	610	
6	0	0	0	0	499	608	
7	0	0	0	0	502	609	
8	0	0	0	0	504	609	
9	0	0	0	0	507	609	
10	0	0	0	0	508	610	
11	0	0	0	0	510	609	
12	0	0	0	0	511	610	
13	0	0	0	0	511	611	
14	0	0	0	0	512	609	
15	0	0	0	0	511	610	
0	0	0	0	0	510	610	
1	0	0	0	0	508	609	
2	0	0	0	0	507	609	
3	0	0	0	0	504	609	
4	0	0	0	0	502	609	
5	0	0	0	0	501	609	
6	0	0	0	0	500	610	
7	0	0	0	0	500	609	
8	0	0	0	0	499	609	
9	0	0	0	0	500	609	
10	0	0	0	0	500	608	
11	0	0	0	0	502	610	
12	0	0	0	0	503	609	
13	0	0	0	0	504	610	
14	0	0	0	0	505	609	
15	0	0	0	0	505	609	
0	0	0	0	0	504	609	
1	0	0	0	0	502	609	
2	0	0	0	0	499	609	
3	0	0	0	0	494	610	
4	0	0	0	0	488	610	
5	0	0	0	0	481	610	
6	0	0	0	0	475	609	
7	0	0	0	0	467	610	
8	0	0	0	0	460	610	
9	0	0	0	0	455	610	
10	0	0	0	0	451	610	
11	0	0	0	0	448	610	
12	0	0	0	0	448	609	
13	0	0	0	0	451	611	
14	0	0	0	0	458	610	
15	0	0	0	0	467	610	
0	0	0	0	0	480	610	
1	0	0	0	0	497	610	
2	0	0	0	0	516	610	
3	0	0	0	0	535	611	
4	0	0	0	0	556	610	
5	0	0	0	0	577	611	
6	0	0	0	0	596	611	
7	0	0	0	0	613	610	
8	0	0	0	0	627	610	
9	0	0	0	0	638	610	
10	0	0	0	0	648	610	
11	0	0	0	0	655	610	
12	0	0	0	0	657	610	
13	0	0	0	0	662	611	
14	0	0	0	0	666	611	
15	0	0	0	0	670	611	
0	0	0	0	0	675	611	
1	0	0	0	0	681	611	
2	0	0	0	0	688	611	
3	0	0	0	0	695	611	
4	0	0	0	0	702	611	
5	0	0	0	0	706	611	
6	0	0	0	0	713	610	
7	0	0	0	0	729	610	
8	0	0	0	0	748	610	
9	0	0	0	0	761	610	
10	0	0	0	0	765	610	
11	0	0	0	0	760	610	
12	0	0	0	0	748	611	
13	0	0	0	0	729	611	
14	0	0	0	0	704	611	
15	0	0	0	0	678	611	
0	0	0	0	0	648	611	
1	0	0	0	0	620	610	
2	0	0	0	0	593	611	
3	0	0	0	0	568	611	
4	0	0	0	0	545	610	
5	0	0	0	0	526	611	
6	0	0	0	0	509	611	
7	0	0	0	0	495	610	
8	0	0	0	0	484	610	
9	0	0	0	0	475	610	
10	0	0	0	0	468	611	
11	0	0	0	0	463	610	
12	0	0	0	0	457	610	
13	0	0	0	0	453	611	
14	0	0	0	0	449	610	
15	0	0	0	0	444	611	
0	0	0	0	0	441	610	
1	0	0	0	0	438	610	
2	0	0	0	0	434	610	
3	0	0	0	0	432	609	
4	0	0	0	0	431	609	
5	0	0	0	0	430	610	
6	0	0	0	0	430	609	
7	0	0	0	0	429	609	
8	0	0	0	0	428	609	
9	0	0	0	0	428	609	
10	0	0	0	0	427	609	
11	0	0	0	0	427	608	
12	0	0	0	0	428	609	
13	0	0	0	0	430	610	
14	0	0	0	0	432	609	
15	0	0	0	0	432	609	
0	0	0	0	0	432	608	
1	0	0	0	0	432	608	
2	0	0	0	0	431	609	
3	0	0	0	0	430	609	
4	0	0	0	0	429	609	
5	0	0	0	0	428	610	
6	0	0	0	0	428	608	
7	0	0	0	0	427	609	
8	0	0	0	0	427	609	
9	0	0	0	0	427	609	
10	0	0	0	0	427	609	
11	0	0	0	0	428	609	
12	0	0	0	0	430	608	
13	0	0	0	0	432	609	
14	0	0	0	0	434	609	
15	0	0	0	0	435	609	
0	0	0	0	0	438	609	
1	0	0	0	0	441	608	
2	0	0	0	0	444	609	
3	0	0	0	0	445	610	
4	0	0	0	0	446	609	
5	0	0	0	0	447	611	
6	0	0	0	0	447	610	
7	0	0	0	0	447	610	
8	0	0	0	0	446	610	
9	0	0	0	0	446	610	
10	0	0	0	0	446	610	
11	0	0	0	0	445	610	
12	0	0	0	0	445	610	
13	0	0	0	0	445	611	
14	0	0	0	0	445	609	
15	0	0	0	0	446	610	
0	0	0	0	0	446	610	
1	0	0	0	0	447	610	
2	0	0	0	0	448	609	
3	0	0	0	0	449	610	
4	0	0	0	0	451	610	
5	0	0	0	0	452	610	
6	0	0	0	0	454	611	
7	0	0	0	0	455	610	
8	0	0	0	0	455	611	
9	0	0	0	0	455	610	
10	0	0	0	0	454	610	
11	0	0	0	0	453	610	
12	0	0	0	0	452	611	
13	0	0	0	0	451	611	
14	0	0	0	0	451	611	
15	0	0	0	0	450	610	
0	0	0	0	0	450	610	
1	0	0	0	0	451	610	
2	0	0	0	0	451	610	
3	0	0	0	0	452	610	
4	0	0	0	0	452	611	
5	0	0	0	0	453	611	
6	0	0	0	0	454	611	
7	0	0	0	0	456	611	
8	0	0	0	0	458	611	
9	0	0	0	0	460	610	
10	0	0	0	0	461	610	
11	0	0	0	0	461	610	
12	0	0	0	0	461	610	
13	0	0	0	0	460	611	
14	0	0	0	0	459	610	
15	0	0	0	0	459	610	
0	0	0	0	0	458	610	
1	0	0	0	0	457	610	
2	0	0	0	0	456	611	
3	0	0	0	0	456	609	
4	0	0	0	0	456	610	
5	0	0	0	0	455	611	
6	0	0	0	0	455	610	
7	0	0	0	0	455	610	
8	0	0	0	0	455	610	
9	0	0	0	0	457	610	
10	0	0	0	0	459	610	
11	0	0	0	0	460	610	
12	0	0	0	0	461	610	
13	0	0	0	0	462	610	
14	0	0	0	0	464	610	
15	0	0	0	0	465	610	
0	0	0	0	0	466	610	
1	0	0	0	0	466	611	
2	0	0	0	0	466	611	
3	0	0	0	0	464	611	
4	0	0	0	0	463	611	
5	0	0	0	0	462	610	
6	0	0	0	0	463	610	
7	0	0	0	0	463	610	
8	0	0	0	0	463	610	
9	0	0	0	0	464	610	
10	0	0	0	0	464	610	
11	0	0	0	0	464	611	
12	0	0	0	0	463	610	
13	0	0	0	0	463	610	
14	0	0	0	0	464	610	
15	0	0	0	0	464	610	
0	0	0	0	0	465	610	
1	0	0	0	0	467	610	
2	0	0	0	0	469	610	
3	0	0	0	0	471	610	
4	0	0	0	0	472	610	
5	0	0	0	0	472	610	
6	0	0	0	0	472	609	
7	0	0	0	0	471	610	
8	0	0	0	0	468	609	
9	0	0	0	0	467	609	
10	0	0	0	0	466	610	
11	0	0	0	0	465	609	
12	0	0	0	0	464	609	
13	0	0	0	0	464	610	
14	0	0	0	0	464	609	
15	0	0	0	0	466	609	
0	0	0	0	0	468	609	
1	0	0	0	0	470	609	
2	0	0	0	0	472	609	
3	0	0	0	0	473	609	
4	0	0	0	0	475	610	
5	0	0	0	0	477	610	
6	0	0	0	0	478	610	
7	0	0	0	0	479	610	
8	0	0	0	0	479	610	
9	0	0	0	0	479	610	
10	0	0	0	0	479	610	
11	0	0	0	0	478	610	
12	0	0	0	0	477	611	
13	0	0	0	0	475	611	
14	0	0	0	0	473	611	
15	0	0	0	0	472	611	
0	0	0	0	0	470	611	
1	0	0	0	0	468	611	
2	0	0	0	0	466	611	
3	0	0	0	0	465	611	
4	0	0	0	0	465	610	
5	0	0	0	0	464	611	
6	0	0	0	0	464	611	
7	0	0	0	0	465	611	
8	0	0	0	0	465	611	
9	0	0	0	0	466	610	
10	0	0	0	0	467	610	
11	0	0	0	0	467	611	
12	0	0	0	0	467	611	
13	0	0	0	0	467	611	
14	0	0	0	0	466	610	
15	0	0	0	0	465	611	
0	0	0	0	0	463	611	
1	0	0	0	0	460	611	
2	0	0	0	0	458	611	
3	0	0	0	0	456	611	
4	0	0	0	0	455	611	
5	0	0	0	0	456	612	
6	0	0	0	0	457	611	
7	0	0	0	0	457	611	
8	0	0	0	0	457	611	
9	0	0	0	0	458	611	
10	0	0	0	0	459	611	
11	0	0	0	0	459	610	
12	0	0	0	0	461	610	
13	0	0	0	0	462	610	
14	0	0	0	0	463	610	
15	0	0	0	0	463	610	
0	0	0	0	0	463	609	
1	0	0	0	0	463	609	
2	0	0	0	0	462	609	
3	0	0	0	0	460	610	
4	0	0	0	0	458	609	
5	0	0	0	0	457	610	
6	0	0	0	0	456	609	
7	0	0	0	0	454	609	
8	0	0	0	0	453	608	
9	0	0	0	0	454	609	
10	0	0	0	0	453	609	
11	0	0	0	0	454	609	
12	0	0	0	0	455	609	
13	0	0	0	0	456	610	
14	0	0	0	0	457	609	
15	0	0	0	0	458	609	
0	0	0	0	0	460	609	
1	0	0	0	0	461	609	
2	0	0	0	0	462	609	
3	0	0	0	0	463	609	
4	0	0	0	0	464	609	
5	0	0	0	0	464	609	
6	0	0	0	0	464	609	
7	0	0	0	0	463	609	
8	0	0	0	0	463	609	
9	0	0	0	0	461	608	
10	0	0	0	0	461	609	
11	0	0	0	0	460	609	
12	0	0	0	0	460	609	
13	0	0	0	0	461	609	
14	0	0	0	0	461	608	
15	0	0	0	0	462	609	
0	0	0	0	0	464	609	
1	0	0	0	0	465	609	
2	0	0	0	0	467	609	
3	0	0	0	0	470	610	
4	0	0	0	0	472	610	
5	0	0	0	0	473	610	
6	0	0	0	0	476	609	
7	0	0	0	0	476	609	
8	0	0	0	0	476	609	
9	0	0	0	0	476	610	
10	0	0	0	0	476	609	
11	0	0	0	0	476	609	
12	0	0	0	0	475	609	
13	0	0	0	0	475	609	
14	0	0	0	0	475	610	
15	0	0	0	0	475	609	
0	0	0	0	0	475	609	
1	0	0	0	0	475	610	
2	0	0	0	0	476	611	
3	0	0	0	0	477	611	
4	0	0	0	0	478	610	
5	0	0	0	0	479	611	
6	0	0	0	0	481	610	
7	0	0	0	0	482	610	
8	0	0	0	0	485	610	
9	0	0	0	0	487	610	
10	0	0	0	0	489	611	
11	0	0	0	0	490	610	
12	0	0	0	0	489	610	
13	0	0	0	0	489	611	
14	0	0	0	0	488	610	
15	0	0	0	0	487	611	
0	0	0	0	0	486	611	
1	0	0	0	0	486	611	
2	0	0	0	0	485	611	
3	0	0	0	0	485	611	
4	0	0	0	0	485	611	
5	0	0	0	0	484	612	
6	0	0	0	0	484	611	
7	0	0	0	0	485	611	
8	0	0	0	0	487	611	
9	0	0	0	0	488	611	
10	0	0	0	0	490	611	
11	0	0	0	0	492	611	
12	0	0	0	0	493	611	
13	0	0	0	0	494	612	
14	0	0	0	0	496	611	
15	0	0	0	0	496	611	
0	0	0	0	0	496	611	
1	0	0	0	0	496	611	
2	0	0	0	0	496	611	
3	0	0	0	0	495	611	
4	0	0	0	0	493	610	
5	0	0	0	0	492	611	
6	0	0	0	0	489	611	
7	0	0	0	0	488	610	
8	0	0	0	0	488	611	
9	0	0	0	0	489	611	
10	0	0	0	0	490	610	
11	0	0	0	0	492	611	
12	0	0	0	0	493	611	
13	0	0	0	0	495	611	
14	0	0	0	0	497	611	
15	0	0	0	0	499	611	
0	0	0	0	0	502	611	
1	0	0	0	0	504	610	
2	0	0	0	0	506	611	
3	0	0	0	0	507	610	
4	0	0	0	0	508	611	
5	0	0	0	0	508	611	
6	0	0	0	0	508	610	
7	0	0	0	0	507	610	
8	0	0	0	0	505	610	
9	0	0	0	0	505	609	
10	0	0	0	0	504	609	
11	0	0	0	0	503	610	
12	0	0	0	0	502	610	
13	0	0	0	0	501	609	
14	0	0	0	0	500	609	
15	0	0	0	0	500	610	
0	0	0	0	0	499	609	
1	0	0	0	0	500	609	
2	0	0	0	0	501	609	
3	0	0	0	0	503	609	
4	0	0	0	0	505	609	
5	0	0	0	0	507	610	
6	0	0	0	0	508	610	
7	0	0	0	0	509	609	
8	0	0	0	0	511	609	
9	0	0	0	0	511	608	
10	0	0	0	0	512	608	
11	0	0	0	0	511	609	
12	0	0	0	0	509	608	
13	0	0	0	0	508	609	
14	0	0	0	0	507	608	
15	0	0	0	0	506	609	
0	0	0	0	0	506	609	
1	0	0	0	0	506	609	
2	0	0	0	0	506	610	
3	0	0	0	0	507	609	
4	0	0	0	0	508	609	
5	0	0	0	0	509	610	
6	0	0	0	0	509	609	
7	0	0	0	0	510	609	
8	0	0	0	0	511	609	
9	0	0	0	0	511	609	
10	0	0	0	0	511	610	
11	0	0	0	0	511	610	
12	0	0	0	0	510	610	
13	0	0	0	0	508	610	
14	0	0	0	0	508	611	
15	0	0	0	0	508	610	
0	0	0	0	0	507	611	
1	0	0	0	0	506	610	
2	0	0	0	0	505	611	
3	0	0	0	0	504	611	
4	0	0	0	0	504	611	
5	0	0	0	0	504	612	
6	0	0	0	0	505	611	
7	0	0	0	0	506	611	
8	0	0	0	0	508	611	
9	0	0	0	0	509	611	
10	0	0	0	0	509	611	
11	0	0	0	0	510	611	
12	0	0	0	0	510	611	
13	0	0	0	0	510	611	
14	0	0	0	0	511	611	
15	0	0	0	0	511	611	
0	0	0	0	0	511	611	
1	0	0	0	0	510	611	
2	0	0	0	0	507	611	
3	0	0	0	0	504	611	
4	0	0	0	0	503	611	
5	0	0	0	0	501	611	
6	0	0	0	0	499	612	
7	0	0	0	0	498	611	
8	0	0	0	0	498	611	
9	0	0	0	0	498	611	
10	0	0	0	0	498	611	
11	0	0	0	0	499	611	
12	0	0	0	0	499	610	
13	0	0	0	0	500	611	
14	0	0	0	0	501	611	
15	0	0	0	0	503	611	
0	0	0	0	0	504	611	
1	0	0	0	0	505	610	
2	0	0	0	0	507	611	
3	0	0	0	0	507	611	
4	0	0	0	0	507	611	
5	0	0	0	0	506	611	
6	0	0	0	0	504	609	
7	0	0	0	0	504	609	
8	0	0	0	0	502	610	
9	0	0	0	0	500	609	
10	0	0	0	0	498	609	
11	0	0	0	0	497	609	
12	0	0	0	0	495	610	
13	0	0	0	0	494	610	
14	0	0	0	0	493	610	
15	0	0	0	0	493	611	
0	0	0	0	0	492	610	
1	0	0	0	0	492	610	
2	0	0	0	0	493	610	
3	0	0	0	0	493	609	
4	0	0	0	0	494	609	
5	0	0	0	0	496	610	
6	0	0	0	0	497	610	
7	0	0	0	0	499	610	
8	0	0	0	0	500	610	
9	0	0	0	0	501	609	
10	0	0	0	0	501	609	
11	0	0	0	0	501	610	
12	0	0	0	0	500	610	
13	0	0	0	0	499	610	
14	0	0	0	0	498	609	
15	0	0	0	0	497	610	
0	0	0	0	0	496	611	
1	0	0	0	0	496	610	
2	0	0	0	0	496	610	
3	0	0	0	0	496	610	
4	0	0	0	0	497	609	
5	0	0	0	0	499	611	
6	0	0	0	0	500	610	
7	0	0	0	0	501	610	
8	0	0	0	0	503	610	
9	0	0	0	0	505	610	
10	0	0	0	0	507	610	
11	0	0	0	0	508	609	
12	0	0	0	0	508	610	
13	0	0	0	0	508	610	
14	0	0	0	0	507	610	
15	0	0	0	0	505	610	
0	0	0	0	0	502	610	
1	0	0	0	0	500	609	
2	0	0	0	0	498	610	
3	0	0	0	0	496	610	
4	0	0	0	0	496	610	
5	0	0	0	0	495	611	
6	0	0	0	0	495	610	
7	0	0	0	0	495	610	
8	0	0	0	0	497	610	
9	0	0	0	0	498	610	
10	0	0	0	0	499	610	
11	0	0	0	0	500	610	
12	0	0	0	0	502	610	
13	0	0	0	0	505	610	
14	0	0	0	0	508	609	
15	0	0	0	0	510	610	
0	0	0	0	0	511	610	
1	0	0	0	0	511	610	
2	0	0	0	0	510	610	
3	0	0	0	0	509	610	
4	0	0	0	0	508	610	
5	0	0	0	0	506	611	
6	0	0	0	0	505	610	
7	0	0	0	0	504	609	
8	0	0	0	0	504	610	
9	0	0	0	0	502	609	
10	0	0	0	0	502	610	
11	0	0	0	0	502	610	
12	0	0	0	0	504	610	
13	0	0	0	0	504	611	
14	0	0	0	0	506	610	
15	0	0	0	0	506	610	
0	0	0	0	0	506	610	
1	0	0	0	0	506	610	
2	0	0	0	0	507	610	
3	0	0	0	0	507	610	
4	0	0	0	0	506	610	
5	0	0	0	0	504	611	
6	0	0	0	0	503	610	
7	0	0	0	0	502	610	
8	0	0	0	0	501	610	
9	0	0	0	0	500	610	
10	0	0	0	0	499	610	
11	0	0	0	0	497	609	
12	0	0	0	0	496	610	
13	0	0	0	0	496	610	
14	0	0	0	0	496	610	
15	0	0	0	0	496	610	
0	0	0	0	0	496	609	
1	0	0	0	0	497	610	
2	0	0	0	0	497	610	
3	0	0	0	0	497	610	
4	0	0	0	0	497	611	
5	0	0	0	0	498	611	
6	0	0	0	0	499	610	
7	0	0	0	0	499	610	
8	0	0	0	0	500	610	
9	0	0	0	0	500	610	
10	0	0	0	0	499	610	
11	0	0	0	0	499	610	
12	0	0	0	0	498	610	
13	0	0	0	0	497	610	
14	0	0	0	0	496	610	
15	0	0	0	0	496	609	
0	0	0	0	0	496	609	
1	0	0	0	0	496	610	
2	0	0	0	0	497	610	
3	0	0	0	0	497	611	
4	0	0	0	0	497	610	
5	0	0	0	0	498	611	
6	0	0	0	0	500	610	
7	0	0	0	0	502	610	
8	0	0	0	0	504	610	
9	0	0	0	0	506	610	
10	0	0	0	0	508	611	
11	0	0	0	0	509	610	
12	0	0	0	0	509	610	
13	0	0	0	0	509	611	
14	0	0	0	0	509	610	
15	0	0	0	0	507	611	
0	0	0	0	0	506	611	
1	0	0	0	0	505	611	
2	0	0	0	0	506	611	
3	0	0	0	0	506	610	
4	0	0	0	0	507	611	
5	0	0	0	0	508	611	
6	0	0	0	0	508	610	
7	0	0	0	0	508	610	
8	0	0	0	0	508	611	
9	0	0	0	0	509	610	
10	0	0	0	0	511	610	
11	0	0	0	0	512	610	
12	0	0	0	0	512	610	
13	0	0	0	0	513	610	
14	0	0	0	0	515	610	
15	0	0	0	0	516	610	
0	0	0	0	0	516	610	
1	0	0	0	0	516	610	
2	0	0	0	0	515	610	
3	0	0	0	0	515	610	
4	0	0	0	0	513	611	
5	0	0	0	0	512	610	
6	0	0	0	0	511	610	
7	0	0	0	0	510	611	
8	0	0	0	0	510	610	
9	0	0	0	0	510	610	
10	0	0	0	0	510	611	
11	0	0	0	0	509	610	
12	0	0	0	0	510	610	
13	0	0	0	0	512	611	
14	0	0	0	0	512	610	
15	0	0	0	0	513	611	
0	0	0	0	0	515	610	
1	0	0	0	0	516	610	
2	0	0	0	0	519	611	
3	0	0	0	0	519	611	
4	0	0	0	0	520	611	
5	0	0	0	0	519	611	
6	0	0	0	0	519	610	
7	0	0	0	0	518	611	
8	0	0	0	0	518	610	
9	0	0	0	0	517	610	
10	0	0	0	0	515	609	
11	0	0	0	0	514	609	
12	0	0	0	0	513	610	
13	0	0	0	0	512	610	
14	0	0	0	0	513	609	
15	0	0	0	0	515	610	
0	0	0	0	0	516	610	
1	0	0	0	0	517	610	
2	0	0	0	0	519	610	
3	0	0	0	0	521	610	
4	0	0	0	0	522	610	
5	0	0	0	0	523	611	
6	0	0	0	0	523	611	
7	0	0	0	0	523	610	
8	0	0	0	0	523	610	
9	0	0	0	0	521	609	
10	0	0	0	0	521	609	
11	0	0	0	0	520	610	
12	0	0	0	0	518	610	
13	0	0	0	0	517	611	
14	0	0	0	0	517	610	
15	0	0	0	0	517	610	
0	0	0	0	0	517	611	
1	0	0	0	0	516	610	
2	0	0	0	0	516	611	
3	0	0	0	0	517	610	
4	0	0	0	0	518	610	
5	0	0	0	0	519	611	
6	0	0	0	0	520	611	
7	0	0	0	0	521	610	
8	0	0	0	0	524	610	
9	0	0	0	0	525	610	
10	0	0	0	0	527	611	
11	0	0	0	0	527	610	
12	0	0	0	0	528	610	
13	0	0	0	0	528	611	
14	0	0	0	0	528	611	
15	0	0	0	0	527	610	
0	0	0	0	0	527	610	
1	0	0	0	0	526	611	
2	0	0	0	0	525	611	
3	0	0	0	0	525	610	
4	0	0	0	0	524	611	
5	0	0	0	0	524	611	
6	0	0	0	0	525	611	
7	0	0	0	0	526	610	
8	0	0	0	0	527	611	
9	0	0	0	0	528	610	
10	0	0	0	0	528	610	
11	0	0	0	0	528	611	
12	0	0	0	0	529	610	
13	0	0	0	0	529	611	
14	0	0	0	0	529	611	
15	0	0	0	0	528	610	
0	0	0	0	0	528	611	
1	0	0	0	0	527	610	
2	0	0	0	0	526	611	
3	0	0	0	0	524	610	
4	0	0	0	0	522	611	
5	0	0	0	0	521	611	
6	0	0	0	0	519	610	
7	0	0	0	0	517	610	
8	0	0	0	0	516	610	
9	0	0	0	0	515	610	
10	0	0	0	0	513	610	
11	0	0	0	0	513	609	
12	0	0	0	0	513	610	
13	0	0	0	0	513	611	
14	0	0	0	0	515	610	
15	0	0	0	0	516	610	
0	0	0	0	0	517	610	
1	0	0	0	0	518	609	
2	0	0	0	0	519	609	
3	0	0	0	0	519	609	
4	0	0	0	0	518	610	
5	0	0	0	0	518	610	
6	0	0	0	0	517	610	
7	0	0	0	0	516	610	
8	0	0	0	0	513	610	
9	0	0	0	0	511	609	
10	0	0	0	0	509	609	
11	0	0	0	0	507	609	
12	0	0	0	0	506	609	
13	0	0	0	0	504	610	
14	0	0	0	0	504	609	
15	0	0	0	0	504	609	
0	0	0	0	0	504	609	
1	0	0	0	0	506	609	
2	0	0	0	0	507	609	
3	0	0	0	0	507	609	
4	0	0	0	0	508	609	
5	0	0	0	0	509	610	
6	0	0	0	0	511	609	
7	0	0	0	0	512	609	
8	0	0	0	0	512	609	
9	0	0	0	0	512	610	
10	0	0	0	0	512	609	
11	0	0	0	0	511	609	
12	0	0	0	0	508	610	
13	0	0	0	0	506	610	
14	0	0	0	0	504	609	
15	0	0	0	0	502	609	
0	0	0	0	0	500	609	
1	0	0	0	0	499	609	
2	0	0	0	0	498	609	
3	0	0	0	0	497	609	
4	0	0	0	0	497	609	
5	0	0	0	0	497	610	
6	0	0	0	0	498	610	
7	0	0	0	0	499	610	
8	0	0	0	0	500	611	
9	0	0	0	0	500	610	
10	0	0	0	0	500	611	
11	0	0	0	0	499	610	
12	0	0	0	0	498	611	
13	0	0	0	0	496	611	
14	0	0	0	0	494	610	
15	0	0	0	0	490	611	
0	0	0	0	0	484	610	
1	0	0	0	0	477	610	
2	0	0	0	0	469	611	
3	0	0	0	0	461	611	
4	0	0	0	0	454	610	
5	0	0	0	0	449	610	
6	0	0	0	0	444	610	
7	0	0	0	0	441	609	
8	0	0	0	0	440	609	
9	0	0	0	0	443	609	
10	0	0	0	0	449	610	
11	0	0	0	0	460	609	
12	0	0	0	0	472	609	
13	0	0	0	0	488	610	
14	0	0	0	0	506	609	
15	0	0	0	0	527	610	
0	0	0	0	0	547	610	
1	0	0	0	0	569	610	
2	0	0	0	0	590	610	
3	0	0	0	0	608	610	
4	0	0	0	0	623	609	
5	0	0	0	0	635	610	
6	0	0	0	0	645	609	
7	0	0	0	0	652	610	
8	0	0	0	0	656	609	
9	0	0	0	0	660	609	
10	0	0	0	0	664	610	
11	0	0	0	0	668	610	
12	0	0	0	0	671	611	
13	0	0	0	0	676	611	
14	0	0	0	0	683	611	
15	0	0	0	0	688	611	
0	0	0	0	0	692	610	
1	0	0	0	0	695	610	
2	0	0	0	0	702	611	
3	0	0	0	0	717	611	
4	0	0	0	0	734	611	
5	0	0	0	0	745	611	
6	0	0	0	0	745	610	
7	0	0	0	0	739	611	
8	0	0	0	0	725	611	
9	0	0	0	0	707	611	
10	0	0	0	0	685	611	
11	0	0	0	0	660	611	
12	0	0	0	0	635	611	
13	0	0	0	0	610	612	
14	0	0	0	0	586	611	
15	0	0	0	0	563	612	
0	0	0	0	0	542	611	
1	0	0	0	0	525	611	
2	0	0	0	0	510	611	
3	0	0	0	0	499	611	
4	0	0	0	0	490	611	
5	0	0	0	0	482	612	
6	0	0	0	0	476	611	
7	0	0	0	0	470	611	
8	0	0	0	0	466	611	
9	0	0	0	0	462	610	
10	0	0	0	0	458	610	
11	0	0	0	0	454	611	
12	0	0	0	0	450	610	
13	0	0	0	0	446	611	
14	0	0	0	0	444	610	
15	0	0	0	0	441	610	
0	0	0	0	0	440	610	
1	0	0	0	0	440	610	
2	0	0	0	0	440	611	
3	0	0	0	0	441	610	
4	0	0	0	0	441	609	
5	0	0	0	0	442	610	
6	0	0	0	0	443	609	
7	0	0	0	0	444	610	
8	0	0	0	0	446	609	
9	0	0	0	0	447	609	
10	0	0	0	0	449	609	
11	0	0	0	0	450	609	
12	0	0	0	0	451	609	
13	0	0	0	0	453	610	
14	0	0	0	0	453	609	
15	0	0	0	0	451	610	
0	0	0	0	0	449	609	
1	0	0	0	0	448	609	
2	0	0	0	0	447	609	
3	0	0	0	0	447	609	
4	0	0	0	0	446	610	
5	0	0	0	0	446	610	
6	0	0	0	0	446	609	
7	0	0	0	0	448	609	
8	0	0	0	0	451	609	
9	0	0	0	0	454	610	
10	0	0	0	0	456	609	
11	0	0	0	0	457	610	
12	0	0	0	0	460	610	
13	0	0	0	0	461	610	
14	0	0	0	0	463	610	
15	0	0	0	0	464	609	
0	0	0	0	0	464	610	
1	0	0	0	0	464	610	
2	0	0	0	0	464	610	
3	0	0	0	0	463	611	
4	0	0	0	0	463	610	
5	0	0	0	0	463	611	
6	0	0	0	0	463	610	
7	0	0	0	0	464	610	
8	0	0	0	0	465	610	
9	0	0	0	0	466	610	
10	0	0	0	0	466	610	
11	0	0	0	0	466	610	
12	0	0	0	0	466	610	
13	0	0	0	0	465	611	
14	0	0	0	0	466	610	
15	0	0	0	0	467	610	
0	0	0	0	0	467	610	
1	0	0	0	0	467	610	
2	0	0	0	0	469	611	
3	0	0	0	0	470	611	
4	0	0	0	0	472	611	
5	0	0	0	0	472	611	
6	0	0	0	0	472	611	
7	0	0	0	0	472	610	
8	0	0	0	0	471	611	
9	0	0	0	0	472	610	
10	0	0	0	0	472	611	
11	0	0	0	0	472	610	
12	0	0	0	0	472	610	
13	0	0	0	0	472	611	
14	0	0	0	0	470	609	
15	0	0	0	0	469	610	
0	0	0	0	0	468	610	
1	0	0	0	0	467	610	
2	0	0	0	0	467	610	
3	0	0	0	0	467	610	
4	0	0	0	0	469	610	
5	0	0	0	0	470	611	
6	0	0	0	0	471	611	
7	0	0	0	0	470	610	
8	0	0	0	0	470	610	
9	0	0	0	0	470	610	
10	0	0	0	0	468	609	
11	0	0	0	0	467	611	
12	0	0	0	0	466	610	
13	0	0	0	0	465	610	
14	0	0	0	0	464	610	
15	0	0	0	0	463	609	
0	0	0	0	0	462	610	
1	0	0	0	0	460	610	
2	0	0	0	0	460	610	
3	0	0	0	0	460	610	
4	0	0	0	0	461	611	
5	0	0	0	0	462	611	
6	0	0	0	0	463	610	
7	0	0	0	0	465	611	
8	0	0	0	0	466	610	
9	0	0	0	0	468	610	
10	0	0	0	0	469	610	
11	0	0	0	0	470	609	
12	0	0	0	0	471	610	
13	0	0	0	0	472	610	
14	0	0	0	0	472	609	
15	0	0	0	0	472	610	
0	0	0	0	0	471	609	
1	0	0	0	0	471	609	
2	0	0	0	0	470	609	
3	0	0	0	0	468	609	
4	0	0	0	0	467	610	
5	0	0	0	0	467	610	
6	0	0	0	0	466	609	
7	0	0	0	0	466	609	
8	0	0	0	0	466	609	
9	0	0	0	0	466	609	
10	0	0	0	0	467	610	
11	0	0	0	0	468	610	
12	0	0	0	0	470	610	
13	0	0	0	0	472	610	
14	0	0	0	0	473	610	
15	0	0	0	0	473	610	
0	0	0	0	0	473	609	
1	0	0	0	0	472	610	
2	0	0	0	0	471	610	
3	0	0	0	0	470	610	
4	0	0	0	0	470	610	
5	0	0	0	0	470	611	
6	0	0	0	0	469	610	
7	0	0	0	0	468	610	
8	0	0	0	0	468	610	
9	0	0	0	0	469	610	
10	0	0	0	0	469	611	
11	0	0	0	0	470	611	
12	0	0	0	0	470	610	
13	0	0	0	0	470	611	
14	0	0	0	0	471	611	
15	0	0	0	0	472	611	
0	0	0	0	0	474	611	
1	0	0	0	0	476	611	
2	0	0	0	0	477	611	
3	0	0	0	0	478	611	
4	0	0	0	0	479	611	
5	0	0	0	0	478	612	
6	0	0	0	0	477	611	
7	0	0	0	0	475	612	
8	0	0	0	0	473	611	
9	0	0	0	0	471	611	
10	0	0	0	0	469	611	
11	0	0	0	0	468	612	
12	0	0	0	0	466	612	
13	0	0	0	0	464	612	
14	0	0	0	0	463	611	
15	0	0	0	0	463	611	
0	0	0	0	0	463	611	
1	0	0	0	0	463	611	
2	0	0	0	0	464	611	
3	0	0	0	0	465	611	
4	0	0	0	0	466	612	
5	0	0	0	0	467	612	
6	0	0	0	0	467	611	
7	0	0	0	0	468	611	
8	0	0	0	0	469	612	
9	0	0	0	0	470	612	
10	0	0	0	0	470	611	
11	0	0	0	0	470	612	
12	0	0	0	0	469	612	
13	0	0	0	0	468	612	
14	0	0	0	0	468	612	
15	0	0	0	0	468	612	
0	0	0	0	0	468	612	
1	0	0	0	0	468	612	
2	0	0	0	0	467	612	
3	0	0	0	0	467	612	
4	0	0	0	0	467	612	
5	0	0	0	0	469	612	
6	0	0	0	0	470	611	
7	0	0	0	0	472	612	
8	0	0	0	0	473	611	
9	0	0	0	0	474	611	
10	0	0	0	0	475	611	
11	0	0	0	0	475	611	
12	0	0	0	0	475	611	
13	0	0	0	0	475	612	
14	0	0	0	0	474	611	
15	0	0	0	0	473	611	
0	0	0	0	0	472	610	
1	0	0	0	0	471	611	
2	0	0	0	0	470	611	
3	0	0	0	0	470	610	
4	0	0	0	0	469	609	
5	0	0	0	0	469	611	
6	0	0	0	0	470	609	
7	0	0	0	0	471	609	
8	0	0	0	0	474	609	
9	0	0	0	0	477	609	
10	0	0	0	0	480	609	
11	0	0	0	0	483	609	
12	0	0	0	0	486	608	
13	0	0	0	0	487	609	
14	0	0	0	0	488	609	
15	0	0	0	0	488	609	
0	0	0	0	0	488	609	
1	0	0	0	0	487	609	
2	0	0	0	0	487	609	
3	0	0	0	0	487	609	
4	0	0	0	0	486	609	
5	0	0	0	0	485	609	
6	0	0	0	0	485	609	
7	0	0	0	0	484	609	
8	0	0	0	0	485	609	
9	0	0	0	0	485	609	
10	0	0	0	0	487	608	
11	0	0	0	0	488	609	
12	0	0	0	0	490	609	
13	0	0	0	0	492	610	
14	0	0	0	0	494	609	
15	0	0	0	0	496	609	
0	0	0	0	0	499	609	
1	0	0	0	0	500	609	
2	0	0	0	0	502	609	
3	0	0	0	0	504	609	
4	0	0	0	0	504	610	
5	0	0	0	0	503	610	
6	0	0	0	0	502	609	
7	0	0	0	0	502	611	
8	0	0	0	0	500	610	
9	0	0	0	0	499	610	
10	0	0	0	0	498	610	
11	0	0	0	0	498	610	
12	0	0	0	0	497	611	
13	0	0	0	0	497	611	
14	0	0	0	0	497	611	
15	0	0	0	0	498	611	
0	0	0	0	0	500	610	
1	0	0	0	0	502	611	
2	0	0	0	0	504	611	
3	0	0	0	0	506	611	
4	0	0	0	0	507	611	
5	0	0	0	0	510	611	
6	0	0	0	0	511	611	
7	0	0	0	0	512	611	
8	0	0	0	0	512	611	
9	0	0	0	0	512	611	
10	0	0	0	0	511	611	
11	0	0	0	0	511	611	
12	0	0	0	0	510	611	
13	0	0	0	0	509	612	
14	0	0	0	0	509	612	
15	0	0	0	0	508	611	
0	0	0	0	0	508	611	
1	0	0	0	0	507	611	
2	0	0	0	0	506	611	
3	0	0	0	0	507	611	
4	0	0	0	0	508	611	
5	0	0	0	0	509	612	
6	0	0	0	0	510	611	
7	0	0	0	0	512	611	
8	0	0	0	0	513	611	
9	0	0	0	0	515	611	
10	0	0	0	0	516	611	
11	0	0	0	0	516	611	
12	0	0	0	0	515	611	
13	0	0	0	0	514	611	
14	0	0	0	0	513	610	
15	0	0	0	0	511	611	
0	0	0	0	0	509	611	
1	0	0	0	0	508	611	
2	0	0	0	0	506	611	
3	0	0	0	0	504	610	
4	0	0	0	0	503	610	
5	0	0	0	0	503	611	
6	0	0	0	0	503	611	
7	0	0	0	0	503	611	
8	0	0	0	0	504	611	
9	0	0	0	0	505	610	
10	0	0	0	0	506	610	
11	0	0	0	0	508	610	
12	0	0	0	0	509	610	
13	0	0	0	0	511	610	
14	0	0	0	0	512	611	
15	0	0	0	0	512	610	
0	0	0	0	0	511	610	
1	0	0	0	0	511	610	
2	0	0	0	0	510	610	
3	0	0	0	0	510	610	
4	0	0	0	0	509	609	
5	0	0	0	0	508	610	
6	0	0	0	0	507	609	
7	0	0	0	0	506	609	
8	0	0	0	0	507	610	
9	0	0	0	0	505	610	
10	0	0	0	0	505	610	
11	0	0	0	0	504	610	
12	0	0	0	0	505	609	
13	0	0	0	0	507	610	
14	0	0	0	0	508	609	
15	0	0	0	0	509	610	
0	0	0	0	0	511	610	
1	0	0	0	0	514	609	
2	0	0	0	0	516	609	
3	0	0	0	0	517	610	
4	0	0	0	0	519	610	
5	0	0	0	0	519	610	
6	0	0	0	0	520	610	
7	0	0	0	0	521	610	
8	0	0	0	0	521	610	
9	0	0	0	0	521	610	
10	0	0	0	0	521	610	
11	0	0	0	0	521	610	
12	0	0	0	0	520	610	
13	0	0	0	0	520	610	
14	0	0	0	0	520	610	
15	0	0	0	0	521	610	
0	0	0	0	0	522	609	
1	0	0	0	0	524	611	
2	0	0	0	0	525	611	
3	0	0	0	0	527	611	
4	0	0	0	0	527	610	
5	0	0	0	0	529	610	
6	0	0	0	0	530	611	
7	0	0	0	0	531	610	
8	0	0	0	0	530	610	
9	0	0	0	0	530	610	
10	0	0	0	0	529	611	
11	0	0	0	0	528	611	
12	0	0	0	0	526	611	
13	0	0	0	0	524	611	
14	0	0	0	0	522	611	
15	0	0	0	0	520	611	
0	0	0	0	0	519	612	
1	0	0	0	0	518	611	
2	0	0	0	0	518	611	
3	0	0	0	0	519	611	
4	0	0	0	0	521	611	
5	0	0	0	0	523	612	
6	0	0	0	0	524	611	
7	0	0	0	0	526	611	
8	0	0	0	0	528	611	
9	0	0	0	0	530	611	
10	0	0	0	0	532	611	
11	0	0	0	0	534	611	
12	0	0	0	0	535	611	
13	0	0	0	0	535	611	
14	0	0	0	0	533	611	
15	0	0	0	0	531	611	
0	0	0	0	0	529	611	
1	0	0	0	0	527	611	
2	0	0	0	0	526	611	
3	0	0	0	0	524	611	
4	0	0	0	0	523	611	
5	0	0	0	0	523	611	
6	0	0	0	0	523	611	
7	0	0	0	0	524	610	
8	0	0	0	0	525	610	
9	0	0	0	0	526	611	
10	0	0	0	0	526	611	
11	0	0	0	0	527	610	
12	0	0	0	0	529	610	
13	0	0	0	0	531	611	
14	0	0	0	0	532	610	
15	0	0	0	0	532	611	
0	0	0	0	0	532	611	
1	0	0	0	0	532	610	
2	0	0	0	0	529	610	
3	0	0	0	0	528	610	
4	0	0	0	0	526	609	
5	0	0	0	0	524	610	
6	0	0	0	0	523	610	
7	0	0	0	0	520	610	
8	0	0	0	0	519	610	
9	0	0	0	0	517	610	
10	0	0	0	0	516	610	
11	0	0	0	0	516	610	
12	0	0	0	0	516	611	
13	0	0	0	0	516	611	
14	0	0	0	0	517	610	
15	0	0	0	0	519	610	
0	0	0	0	0	521	610	
1	0	0	0	0	523	609	
2	0	0	0	0	524	610	
3	0	0	0	0	526	610	
4	0	0	0	0	526	610	
5	0	0	0	0	526	611	
6	0	0	0	0	526	609	
7	0	0	0	0	525	610	
8	0	0	0	0	523	610	
9	0	0	0	0	521	610	
10	0	0	0	0	519	611	
11	0	0	0	0	517	611	
12	0	0	0	0	515	611	
13	0	0	0	0	514	610	
14	0	0	0	0	513	610	
15	0	0	0	0	513	611	
0	0	0	0	0	514	610	
1	0	0	0	0	514	611	
2	0	0	0	0	515	611	
3	0	0	0	0	516	611	
4	0	0	0	0	519	611	
5	0	0	0	0	520	611	
6	0	0	0	0	522	611	
7	0	0	0	0	523	610	
8	0	0	0	0	523	610	
9	0	0	0	0	523	611	
10	0	0	0	0	521	610	
11	0	0	0	0	519	610	
12	0	0	0	0	517	611	
13	0	0	0	0	514	611	
14	0	0	0	0	512	611	
15	0	0	0	0	510	611	
0	0	0	0	0	510	611	
1	0	0	0	0	510	610	
2	0	0	0	0	511	611	
3	0	0	0	0	511	611	
4	0	0	0	0	512	611	
5	0	0	0	0	513	610	
6	0	0	0	0	515	610	
7	0	0	0	0	518	610	
8	0	0	0	0	521	611	
9	0	0	0	0	524	610	
10	0	0	0	0	527	611	
11	0	0	0	0	529	611	
12	0	0	0	0	530	611	
13	0	0	0	0	531	611	
14	0	0	0	0	531	610	
15	0	0	0	0	530	610	
0	0	0	0	0	529	611	
1	0	0	0	0	528	611	
2	0	0	0	0	527	611	
3	0	0	0	0	524	611	
4	0	0	0	0	522	611	
5	0	0	0	0	521	611	
6	0	0	0	0	521	611	
7	0	0	0	0	521	611	
8	0	0	0	0	522	611	
9	0	0	0	0	523	611	
10	0	0	0	0	523	610	
11	0	0	0	0	524	611	
12	0	0	0	0	526	610	
13	0	0	0	0	528	611	
14	0	0	0	0	529	611	
15	0	0	0	0	529	610	
0	0	0	0	0	530	610	
1	0	0	0	0	530	610	
2	0	0	0	0	528	610	
3	0	0	0	0	527	610	
4	0	0	0	0	526	610	
5	0	0	0	0	524	611	
6	0	0	0	0	523	610	
7	0	0	0	0	522	610	
8	0	0	0	0	521	610	
9	0	0	0	0	520	611	
10	0	0	0	0	520	611	
11	0	0	0	0	520	611	
12	0	0	0	0	520	610	
13	0	0	0	0	521	612	
14	0	0	0	0	522	611	
15	0	0	0	0	523	611	
0	0	0	0	0	524	611	
1	0	0	0	0	525	610	
2	0	0	0	0	526	611	
3	0	0	0	0	527	611	
4	0	0	0	0	527	611	
5	0	0	0	0	526	611	
6	0	0	0	0	525	611	
7	0	0	0	0	523	611	
8	0	0	0	0	521	611	
9	0	0	0	0	519	610	
10	0	0	0	0	518	611	
11	0	0	0	0	516	611	
12	0	0	0	0	515	610	
13	0	0	0	0	515	611	
14	0	0	0	0	514	610	
15	0	0	0	0	515	610	
0	0	0	0	0	515	609	
1	0	0	0	0	515	609	
2	0	0	0	0	515	610	
3	0	0	0	0	517	611	
4	0	0	0	0	518	610	
5	0	0	0	0	519	611	
6	0	0	0	0	521	610	
7	0	0	0	0	523	610	
8	0	0	0	0	523	610	
9	0	0	0	0	524	610	
10	0	0	0	0	523	610	
11	0	0	0	0	522	610	
12	0	0	0	0	520	611	
13	0	0	0	0	519	611	
14	0	0	0	0	519	611	
15	0	0	0	0	518	610	
0	0	0	0	0	517	611	
1	0	0	0	0	517	611	
2	0	0	0	0	516	610	
3	0	0	0	0	516	611	
4	0	0	0	0	517	610	
5	0	0	0	0	519	611	
6	0	0	0	0	520	610	
7	0	0	0	0	522	610	
8	0	0	0	0	524	611	
9	0	0	0	0	526	610	
10	0	0	0	0	528	611	
11	0	0	0	0	529	610	
12	0	0	0	0	530	610	
13	0	0	0	0	529	611	
14	0	0	0	0	528	610	
15	0	0	0	0	526	611	
0	0	0	0	0	523	611	
1	0	0	0	0	522	611	
2	0	0	0	0	520	610	
3	0	0	0	0	519	610	
4	0	0	0	0	519	611	
5	0	0	0	0	519	611	
6	0	0	0	0	518	611	
7	0	0	0	0	519	611	
8	0	0	0	0	520	610	
9	0	0	0	0	521	610	
10	0	0	0	0	524	610	
11	0	0	0	0	526	611	
12	0	0	0	0	528	611	
13	0	0	0	0	530	611	
14	0	0	0	0	531	611	
15	0	0	0	0	531	611	
0	0	0	0	0	531	610	
1	0	0	0	0	529	611	
2	0	0	0	0	528	611	
3	0	0	0	0	527	611	
4	0	0	0	0	525	611	
5	0	0	0	0	524	611	
6	0	0	0	0	524	611	
7	0	0	0	0	524	610	
8	0	0	0	0	524	610	
9	0	0	0	0	523	610	
10	0	0	0	0	523	610	
11	0	0	0	0	523	611	
12	0	0	0	0	523	610	
13	0	0	0	0	524	610	
14	0	0	0	0	524	610	
15	0	0	0	0	524	609	
0	0	0	0	0	525	610	
1	0	0	0	0	526	609	
2	0	0	0	0	525	610	
3	0	0	0	0	524	610	
4	0	0	0	0	524	610	
5	0	0	0	0	523	610	
6	0	0	0	0	522	610	
7	0	0	0	0	520	611	
8	0	0	0	0	519	609	
9	0	0	0	0	519	610	
10	0	0	0	0	519	610	
11	0	0	0	0	519	610	
12	0	0	0	0	519	610	
13	0	0	0	0	519	611	
14	0	0	0	0	519	611	
15	0	0	0	0	519	611	
0	0	0	0	0	520	611	
1	0	0	0	0	520	611	
2	0	0	0	0	521	610	
3	0	0	0	0	521	611	
4	0	0	0	0	523	610	
5	0	0	0	0	524	611	
6	0	0	0	0	525	610	
7	0	0	0	0	525	610	
8	0	0	0	0	526	610	
9	0	0	0	0	525	610	
10	0	0	0	0	524	610	
11	0	0	0	0	524	610	
12	0	0	0	0	523	611	
13	0	0	0	0	522	611	
14	0	0	0	0	521	610	
15	0	0	0	0	520	610	
0	0	0	0	0	519	611	
1	0	0	0	0	519	611	
2	0	0	0	0	518	610	
3	0	0	0	0	517	610	
4	0	0	0	0	517	611	
5	0	0	0	0	518	611	
6	0	0	0	0	518	611	
7	0	0	0	0	519	611	
8	0	0	0	0	520	611	
9	0	0	0	0	521	610	
10	0	0	0	0	523	611	
11	0	0	0	0	523	610	
12	0	0	0	0	524	610	
13	0	0	0	0	524	611	
14	0	0	0	0	524	610	
15	0	0	0	0	523	611	
0	0	0	0	0	523	611	
1	0	0	0	0	521	611	
2	0	0	0	0	519	611	
3	0	0	0	0	517	611	
4	0	0	0	0	515	611	
5	0	0	0	0	515	611	
6	0	0	0	0	514	611	
7	0	0	0	0	514	611	
8	0	0	0	0	514	610	
9	0	0	0	0	514	610	
10	0	0	0	0	512	610	
11	0	0	0	0	512	611	
12	0	0	0	0	513	611	
13	0	0	0	0	513	611	
14	0	0	0	0	512	611	
15	0	0	0	0	511	611	
0	0	0	0	0	510	610	
1	0	0	0	0	509	610	
2	0	0	0	0	507	611	
3	0	0	0	0	504	611	
4	0	0	0	0	501	611	
5	0	0	0	0	499	611	
6	0	0	0	0	497	611	
7	0	0	0	0	496	611	
8	0	0	0	0	495	611	
9	0	0	0	0	494	611	
10	0	0	0	0	494	611	
11	0	0	0	0	494	610	
12	0	0	0	0	495	610	
13	0	0	0	0	496	611	
14	0	0	0	0	496	610	
15	0	0	0	0	497	610	
0	0	0	0	0	498	610	
1	0	0	0	0	499	610	
2	0	0	0	0	499	611	
3	0	0	0	0	498	610	
4	0	0	0	0	496	610	
5	0	0	0	0	494	611	
6	0	0	0	0	492	610	
7	0	0	0	0	488	610	
8	0	0	0	0	483	610	
9	0	0	0	0	478	610	
10	0	0	0	0	472	609	
11	0	0	0	0	466	610	
12	0	0	0	0	459	610	
13	0	0	0	0	452	610	
14	0	0	0	0	448	610	
15	0	0	0	0	443	610	
0	0	0	0	0	440	610	
1	0	0	0	0	438	611	
2	0	0	0	0	438	610	
3	0	0	0	0	441	610	
4	0	0	0	0	449	610	
5	0	0	0	0	460	609	
6	0	0	0	0	472	610	
7	0	0	0	0	486	610	
8	0	0	0	0	503	610	
9	0	0	0	0	521	609	
10	0	0	0	0	539	610	
11	0	0	0	0	558	610	
12	0	0	0	0	576	610	
13	0	0	0	0	592	611	
14	0	0	0	0	605	611	
15	0	0	0	0	615	610	
0	0	0	0	0	622	610	
1	0	0	0	0	626	610	
2	0	0	0	0	628	611	
3	0	0	0	0	632	611	
4	0	0	0	0	637	611	
5	0	0	0	0	641	611	
6	0	0	0	0	646	611	
7	0	0	0	0	653	610	
8	0	0	0	0	661	611	
9	0	0	0	0	668	610	
10	0	0	0	0	673	611	
11	0	0	0	0	679	610	
12	0	0	0	0	690	611	
13	0	0	0	0	707	611	
14	0	0	0	0	723	610	
15	0	0	0	0	732	611	
0	0	0	0	0	731	611	
1	0	0	0	0	721	611	
2	0	0	0	0	705	611	
3	0	0	0	0	685	610	
4	0	0	0	0	662	611	
5	0	0	0	0	637	611	
6	0	0	0	0	612	611	
7	0	0	0	0	585	611	
8	0	0	0	0	561	611	
9	0	0	0	0	540	610	
10	0	0	0	0	519	611	
11	0	0	0	0	503	611	
12	0	0	0	0	488	610	
13	0	0	0	0	476	611	
14	0	0	0	0	464	611	
15	0	0	0	0	455	610	
0	0	0	0	0	446	610	
1	0	0	0	0	439	611	
2	0	0	0	0	432	610	
3	0	0	0	0	426	611	
4	0	0	0	0	420	611	
5	0	0	0	0	415	611	
6	0	0	0	0	411	611	
7	0	0	0	0	409	610	
8	0	0	0	0	408	610	
9	0	0	0	0	404	610	
10	0	0	0	0	401	610	
11	0	0	0	0	399	610	
12	0	0	0	0	398	610	
13	0	0	0	0	399	611	
14	0	0	0	0	398	610	
15	0	0	0	0	396	611	
0	0	0	0	0	397	610	
1	0	0	0	0	398	610	
2	0	0	0	0	399	610	
3	0	0	0	0	403	610	
4	0	0	0	0	406	610	
5	0	0	0	0	405	610	
6	0	0	0	0	399	610	
7	0	0	0	0	399	610	
8	0	0	0	0	399	610	
9	0	0	0	0	397	610	
10	0	0	0	0	394	611	
11	0	0	0	0	392	611	
12	0	0	0	0	392	610	
13	0	0	0	0	394	611	
14	0	0	0	0	396	610	
15	0	0	0	0	397	611	
0	0	0	0	0	397	610	
1	0	0	0	0	398	610	
2	0	0	0	0	397	610	
3	0	0	0	0	399	610	
4	0	0	0	0	401	610	
5	0	0	0	0	405	610	
6	0	0	0	0	410	610	
7	0	0	0	0	411	610	
8	0	0	0	0	412	611	
9	0	0	0	0	414	610	
10	0	0	0	0	413	610	
11	0	0	0	0	410	610	
12	0	0	0	0	410	610	
13	0	0	0	0	410	611	
14	0	0	0	0	409	611	
15	0	0	0	0	411	610	
0	0	0	0	0	411	610	
1	0	0	0	0	414	610	
2	0	0	0	0	416	611	
3	0	0	0	0	417	610	
4	0	0	0	0	419	610	
5	0	0	0	0	418	611	
6	0	0	0	0	416	610	
7	0	0	0	0	416	610	
8	0	0	0	0	419	611	
9	0	0	0	0	423	611	
10	0	0	0	0	426	611	
11	0	0	0	0	431	611	
12	0	0	0	0	434	611	
13	0	0	0	0	434	611	
14	0	0	0	0	436	611	
15	0	0	0	0	435	611	
0	0	0	0	0	436	611	
1	0	0	0	0	436	610	
2	0	0	0	0	435	610	
3	0	0	0	0	437	611	
4	0	0	0	0	438	610	
5	0	0	0	0	438	611	
6	0	0	0	0	440	611	
7	0	0	0	0	441	610	
8	0	0	0	0	446	611	
9	0	0	0	0	449	611	
10	0	0	0	0	451	610	
11	0	0	0	0	453	611	
12	0	0	0	0	455	611	
13	0	0	0	0	458	611	
14	0	0	0	0	460	611	
15	0	0	0	0	462	611	
0	0	0	0	0	463	611	
1	0	0	0	0	463	611	
2	0	0	0	0	464	611	
3	0	0	0	0	464	612	
4	0	0	0	0	463	611	
5	0	0	0	0	464	611	
6	0	0	0	0	464	611	
7	0	0	0	0	464	611	
8	0	0	0	0	465	611	
9	0	0	0	0	467	610	
10	0	0	0	0	469	610	
11	0	0	0	0	471	610	
12	0	0	0	0	473	611	
13	0	0	0	0	475	611	
14	0	0	0	0	478	610	
15	0	0	0	0	480	610	
0	0	0	0	0	483	610	
1	0	0	0	0	485	610	
2	0	0	0	0	487	611	
3	0	0	0	0	488	610	
4	0	0	0	0	489	610	
5	0	0	0	0	490	611	
6	0	0	0	0	490	610	
7	0	0	0	0	489	609	
8	0	0	0	0	489	609	
9	0	0	0	0	489	610	
10	0	0	0	0	489	610	
11	0	0	0	0	491	610	
12	0	0	0	0	492	610	
13	0	0	0	0	492	610	
14	0	0	0	0	493	610	
15	0	0	0	0	495	610	
0	0	0	0	0	498	609	
1	0	0	0	0	500	610	
2	0	0	0	0	502	610	
3	0	0	0	0	505	610	
4	0	0	0	0	507	610	
5	0	0	0	0	510	611	
6	0	0	0	0	513	610	
7	0	0	0	0	515	611	
8	0	0	0	0	516	611	
9	0	0	0	0	516	610	
10	0	0	0	0	517	610	
11	0	0	0	0	516	610	
12	0	0	0	0	516	609	
13	0	0	0	0	515	610	
14	0	0	0	0	514	609	
15	0	0	0	0	514	609	
0	0	0	0	0	514	610	
1	0	0	0	0	514	609	
2	0	0	0	0	514	609	
3	0	0	0	0	515	610	
4	0	0	0	0	516	609	
5	0	0	0	0	518	610	
6	0	0	0	0	518	609	
7	0	0	0	0	519	609	
8	0	0	0	0	520	609	
9	0	0	0	0	522	609	
10	0	0	0	0	524	610	
11	0	0	0	0	524	610	
12	0	0	0	0	524	610	
13	0	0	0	0	523	611	
14	0	0	0	0	521	610	
15	0	0	0	0	519	611	
0	0	0	0	0	517	610	
1	0	0	0	0	515	610	
2	0	0	0	0	514	611	
3	0	0	0	0	512	611	
4	0	0	0	0	511	611	
5	0	0	0	0	509	612	
6	0	0	0	0	506	611	
7	0	0	0	0	504	611	
8	0	0	0	0	504	611	
9	0	0	0	0	504	612	
10	0	0	0	0	503	612	
11	0	0	0	0	502	612	
12	0	0	0	0	502	612	
13	0	0	0	0	502	612	
14	0	0	0	0	502	613	
15	0	0	0	0	501	613	
0	0	0	0	0	500	612	
1	0	0	0	0	498	613	
2	0	0	0	0	496	613	
3	0	0	0	0	495	613	
4	0	0	0	0	492	613	
5	0	0	0	0	491	613	
6	0	0	0	0	489	612	
7	0	0	0	0	487	612	
8	0	0	0	0	486	612	
9	0	0	0	0	484	613	
10	0	0	0	0	482	613	
11	0	0	0	0	482	613	
12	0	0	0	0	481	612	
13	0	0	0	0	481	614	
14	0	0	0	0	481	613	
15	0	0	0	0	482	613	
0	0	0	0	0	482	613	
1	0	0	0	0	482	613	
2	0	0	0	0	483	613	
3	0	0	0	0	483	613	
4	0	0	0	0	482	612	
5	0	0	0	0	481	612	
6	0	0	0	0	481	612	
7	0	0	0	0	480	612	
8	0	0	0	0	480	612	
9	0	0	0	0	479	612	
10	0	0	0	0	478	612	
11	0	0	0	0	477	612	
12	0	0	0	0	475	612	
13	0	0	0	0	473	612	
14	0	0	0	0	473	612	
15	0	0	0	0	472	612	
0	0	0	0	0	472	611	
1	0	0	0	0	472	612	
2	0	0	0	0	473	612	
3	0	0	0	0	474	612	
4	0	0	0	0	476	611	
5	0	0	0	0	477	612	
6	0	0	0	0	479	611	
7	0	0	0	0	479	611	
8	0	0	0	0	479	611	
9	0	0	0	0	476	611	
10	0	0	0	0	476	611	
11	0	0	0	0	475	611	
12	0	0	0	0	473	611	
13	0	0	0	0	472	611	
14	0	0	0	0	471	611	
15	0	0	0	0	470	610	
0	0	0	0	0	469	611	
1	0	0	0	0	468	611	
2	0	0	0	0	469	610	
3	0	0	0	0	469	610	
4	0	0	0	0	469	610	
5	0	0	0	0	470	610	
6	0	0	0	0	472	609	
7	0	0	0	0	474	609	
8	0	0	0	0	477	609	
9	0	0	0	0	479	609	
10	0	0	0	0	480	609	
11	0	0	0	0	480	609	
12	0	0	0	0	481	609	
13	0	0	0	0	481	609	
14	0	0	0	0	480	608	
15	0	0	0	0	478	609	
0	0	0	0	0	475	609	
1	0	0	0	0	473	609	
2	0	0	0	0	472	609	
3	0	0	0	0	471	609	
4	0	0	0	0	469	609	
5	0	0	0	0	468	609	
6	0	0	0	0	470	609	
7	0	0	0	0	472	608	
8	0	0	0	0	473	608	
9	0	0	0	0	474	609	
10	0	0	0	0	476	608	
11	0	0	0	0	478	608	
12	0	0	0	0	480	609	
13	0	0	0	0	482	609	
14	0	0	0	0	485	608	
15	0	0	0	0	487	609	
0	0	0	0	0	487	608	
1	0	0	0	0	487	608	
2	0	0	0	0	487	608	
3	0	0	0	0	485	609	
4	0	0	0	0	484	608	
5	0	0	0	0	483	608	
6	0	0	0	0	481	608	
7	0	0	0	0	480	608	
8	0	0	0	0	480	608	
9	0	0	0	0	479	608	
10	0	0	0	0	479	608	
11	0	0	0	0	480	609	
12	0	0	0	0	479	609	
13	0	0	0	0	480	609	
14	0	0	0	0	482	608	
15	0	0	0	0	484	608	
0	0	0	0	0	485	608	
1	0	0	0	0	488	608	
2	0	0	0	0	487	609	
3	0	0	0	0	487	609	
4	0	0	0	0	487	608	
5	0	0	0	0	485	609	
6	0	0	0	0	484	609	
7	0	0	0	0	483	609	
8	0	0	0	0	483	609	
9	0	0	0	0	482	608	
10	0	0	0	0	481	609	
11	0	0	0	0	480	608	
12	0	0	0	0	479	609	
13	0	0	0	0	480	609	
14	0	0	0	0	480	608	
15	0	0	0	0	481	609	
0	0	0	0	0	483	609	
1	0	0	0	0	486	609	
2	0	0	0	0	487	609	
3	0	0	0	0	489	609	
4	0	0	0	0	491	608	
5	0	0	0	0	493	609	
6	0	0	0	0	494	609	
7	0	0	0	0	495	609	
8	0	0	0	0	496	610	
9	0	0	0	0	496	609	
10	0	0	0	0	496	609	
11	0	0	0	0	497	609	
12	0	0	0	0	496	610	
13	0	0	0	0	494	609	
14	0	0	0	0	493	609	
15	0	0	0	0	492	609	
0	0	0	0	0	491	610	
1	0	0	0	0	489	610	
2	0	0	0	0	488	610	
3	0	0	0	0	487	610	
4	0	0	0	0	486	610	
5	0	0	0	0	486	610	
6	0	0	0	0	487	610	
7	0	0	0	0	488	610	
8	0	0	0	0	490	610	
9	0	0	0	0	491	610	
10	0	0	0	0	491	610	
11	0	0	0	0	491	610	
12	0	0	0	0	489	611	
13	0	0	0	0	488	611	
14	0	0	0	0	486	610	
15	0	0	0	0	485	610	
0	0	0	0	0	483	610	
1	0	0	0	0	480	609	
2	0	0	0	0	478	609	
3	0	0	0	0	477	609	
4	0	0	0	0	476	609	
5	0	0	0	0	475	610	
6	0	0	0	0	475	610	
7	0	0	0	0	476	610	
8	0	0	0	0	477	610	
9	0	0	0	0	477	611	
10	0	0	0	0	478	610	
11	0	0	0	0	479	610	
12	0	0	0	0	480	610	
13	0	0	0	0	482	610	
14	0	0	0	0	483	610	
15	0	0	0	0	483	611	
0	0	0	0	0	482	610	
1	0	0	0	0	480	610	
2	0	0	0	0	479	610	
3	0	0	0	0	478	611	
4	0	0	0	0	476	611	
5	0	0	0	0	473	611	
6	0	0	0	0	472	611	
7	0	0	0	0	470	610	
8	0	0	0	0	469	610	
9	0	0	0	0	467	610	
10	0	0	0	0	465	610	
11	0	0	0	0	465	611	
12	0	0	0	0	465	610	
13	0	0	0	0	465	611	
14	0	0	0	0	466	611	
15	0	0	0	0	467	611	
0	0	0	0	0	468	611	
1	0	0	0	0	468	611	
2	0	0	0	0	468	611	
3	0	0	0	0	468	611	
4	0	0	0	0	468	611	
5	0	0	0	0	467	612	
6	0	0	0	0	466	611	
7	0	0	0	0	464	611	
8	0	0	0	0	462	611	
9	0	0	0	0	460	611	
10	0	0	0	0	459	611	
11	0	0	0	0	458	611	
12	0	0	0	0	457	611	
13	0	0	0	0	456	611	
14	0	0	0	0	456	611	
15	0	0	0	0	455	611	
0	0	0	0	0	455	611	
1	0	0	0	0	455	611	
2	0	0	0	0	455	611	
3	0	0	0	0	456	611	
4	0	0	0	0	457	612	
5	0	0	0	0	459	611	
6	0	0	0	0	459	611	
7	0	0	0	0	459	611	
8	0	0	0	0	459	611	
9	0	0	0	0	457	611	
10	0	0	0	0	455	611	
11	0	0	0	0	455	611	
12	0	0	0	0	453	611	
13	0	0	0	0	451	611	
14	0	0	0	0	449	611	
15	0	0	0	0	447	611	
0	0	0	0	0	447	612	
1	0	0	0	0	447	612	
2	0	0	0	0	447	611	
3	0	0	0	0	448	611	
4	0	0	0	0	448	611	
5	0	0	0	0	450	612	
6	0	0	0	0	452	611	
7	0	0	0	0	454	611	
8	0	0	0	0	456	611	
9	0	0	0	0	458	611	
10	0	0	0	0	459	612	
11	0	0	0	0	460	611	
12	0	0	0	0	461	611	
13	0	0	0	0	461	612	
14	0	0	0	0	460	611	
15	0	0	0	0	460	612	
0	0	0	0	0	457	612	
1	0	0	0	0	456	611	
2	0	0	0	0	455	611	
3	0	0	0	0	455	611	
4	0	0	0	0	454	612	
5	0	0	0	0	453	612	
6	0	0	0	0	452	612	
7	0	0	0	0	452	611	
8	0	0	0	0	453	611	
9	0	0	0	0	453	611	
10	0	0	0	0	454	611	
11	0	0	0	0	456	612	
12	0	0	0	0	458	611	
13	0	0	0	0	460	612	
14	0	0	0	0	461	612	
15	0	0	0	0	462	611	
0	0	0	0	0	462	611	
1	0	0	0	0	461	611	
2	0	0	0	0	461	611	
3	0	0	0	0	459	611	
4	0	0	0	0	457	611	
5	0	0	0	0	455	611	
6	0	0	0	0	454	611	
7	0	0	0	0	452	611	
8	0	0	0	0	452	611	
9	0	0	0	0	451	611	
10	0	0	0	0	451	612	
11	0	0	0	0	451	611	
12	0	0	0	0	451	612	
13	0	0	0	0	452	612	
14	0	0	0	0	454	611	
15	0	0	0	0	456	611	
0	0	0	0	0	456	612	
1	0	0	0	0	456	611	
2	0	0	0	0	457	611	
3	0	0	0	0	456	611	
4	0	0	0	0	456	611	
5	0	0	0	0	457	611	
6	0	0	0	0	456	612	
7	0	0	0	0	454	612	
8	0	0	0	0	452	611	
9	0	0	0	0	451	611	
10	0	0	0	0	450	612	
11	0	0	0	0	449	612	
12	0	0	0	0	448	612	
13	0	0	0	0	448	613	
14	0	0	0	0	448	612	
15	0	0	0	0	448	612	
0	0	0	0	0	449	611	
1	0	0	0	0	450	612	
2	0	0	0	0	452	611	
3	0	0	0	0	454	611	
4	0	0	0	0	455	611	
5	0	0	0	0	457	611	
6	0	0	0	0	458	611	
7	0	0	0	0	457	611	
8	0	0	0	0	457	611	
9	0	0	0	0	456	610	
10	0	0	0	0	455	610	
11	0	0	0	0	455	611	
12	0	0	0	0	453	611	
13	0	0	0	0	451	611	
14	0	0	0	0	450	611	
15	0	0	0	0	449	611	
0	0	0	0	0	448	611	
1	0	0	0	0	447	610	
2	0	0	0	0	446	611	
3	0	0	0	0	446	610	
4	0	0	0	0	448	611	
5	0	0	0	0	448	611	
6	0	0	0	0	449	610	
7	0	0	0	0	450	611	
8	0	0	0	0	452	610	
9	0	0	0	0	453	611	
10	0	0	0	0	455	611	
11	0	0	0	0	456	611	
12	0	0	0	0	455	611	
13	0	0	0	0	455	611	
14	0	0	0	0	452	610	
15	0	0	0	0	450	611	
0	0	0	0	0	448	611	
1	0	0	0	0	446	610	
2	0	0	0	0	444	611	
3	0	0	0	0	442	611	
4	0	0	0	0	440	611	
5	0	0	0	0	440	612	
6	0	0	0	0	441	611	
7	0	0	0	0	442	611	
8	0	0	0	0	442	611	
9	0	0	0	0	443	611	
10	0	0	0	0	445	611	
11	0	0	0	0	446	611	
12	0	0	0	0	448	610	
13	0	0	0	0	448	611	
14	0	0	0	0	449	610	
15	0	0	0	0	449	610	
0	0	0	0	0	449	611	
1	0	0	0	0	450	610	
2	0	0	0	0	449	611	
3	0	0	0	0	449	611	
4	0	0	0	0	447	611	
5	0	0	0	0	444	611	
6	0	0	0	0	443	610	
7	0	0	0	0	441	610	
8	0	0	0	0	441	611	
9	0	0	0	0	442	611	
10	0	0	0	0	442	610	
11	0	0	0	0	444	611	
12	0	0	0	0	445	610	
13	0	0	0	0	444	612	
14	0	0	0	0	445	611	
15	0	0	0	0	448	611	
0	0	0	0	0	448	611	
1	0	0	0	0	449	611	
2	0	0	0	0	450	611	
3	0	0	0	0	451	611	
4	0	0	0	0	452	611	
5	0	0	0	0	451	611	
6	0	0	0	0	449	611	
7	0	0	0	0	448	611	
8	0	0	0	0	446	611	
9	0	0	0	0	444	611	
10	0	0	0	0	444	610	
11	0	0	0	0	443	610	
12	0	0	0	0	443	609	
13	0	0	0	0	443	611	
14	0	0	0	0	443	610	
15	0	0	0	0	444	610	
0	0	0	0	0	446	610	
1	0	0	0	0	447	610	
2	0	0	0	0	448	610	
3	0	0	0	0	449	610	
4	0	0	0	0	451	610	
5	0	0	0	0	455	610	
6	0	0	0	0	457	609	
7	0	0	0	0	458	610	
8	0	0	0	0	458	610	
9	0	0	0	0	457	610	
10	0	0	0	0	457	609	
11	0	0	0	0	456	610	
12	0	0	0	0	455	610	
13	0	0	0	0	454	611	
14	0	0	0	0	454	610	
15	0	0	0	0	452	610	
0	0	0	0	0	452	609	
1	0	0	0	0	455	610	
2	0	0	0	0	456	610	
3	0	0	0	0	457	610	
4	0	0	0	0	459	610	
5	0	0	0	0	460	611	
6	0	0	0	0	461	610	
7	0	0	0	0	462	609	
8	0	0	0	0	464	609	
9	0	0	0	0	466	610	
10	0	0	0	0	468	610	
11	0	0	0	0	468	610	
12	0	0	0	0	469	610	
13	0	0	0	0	470	610	
14	0	0	0	0	468	609	
15	0	0	0	0	468	610	
0	0	0	0	0	468	610	
1	0	0	0	0	467	610	
2	0	0	0	0	468	610	
3	0	0	0	0	469	610	
4	0	0	0	0	470	610	
5	0	0	0	0	473	611	
6	0	0	0	0	474	610	
7	0	0	0	0	476	610	
8	0	0	0	0	478	610	
9	0	0	0	0	479	610	
10	0	0	0	0	480	610	
11	0	0	0	0	481	609	
12	0	0	0	0	482	610	
13	0	0	0	0	483	610	
14	0	0	0	0	485	609	
15	0	0	0	0	485	610	
0	0	0	0	0	485	609	
1	0	0	0	0	484	609	
2	0	0	0	0	483	610	
3	0	0	0	0	483	609	
4	0	0	0	0	482	610	
5	0	0	0	0	481	610	
6	0	0	0	0	480	609	
7	0	0	0	0	480	609	
8	0	0	0	0	480	609	
9	0	0	0	0	480	609	
10	0	0	0	0	481	609	
11	0	0	0	0	482	609	
12	0	0	0	0	482	609	
13	0	0	0	0	483	610	
14	0	0	0	0	485	609	
15	0	0	0	0	487	609	
0	0	0	0	0	489	610	
1	0	0	0	0	491	609	
2	0	0	0	0	493	609	
3	0	0	0	0	493	609	
4	0	0	0	0	494	609	
5	0	0	0	0	494	610	
6	0	0	0	0	494	610	
7	0	0	0	0	493	609	
8	0	0	0	0	491	610	
9	0	0	0	0	491	609	
10	0	0	0	0	491	609	
11	0	0	0	0	490	609	
12	0	0	0	0	488	609	
13	0	0	0	0	487	610	
14	0	0	0	0	486	609	
15	0	0	0	0	487	609	
0	0	0	0	0	487	609	
1	0	0	0	0	488	609	
2	0	0	0	0	490	609	
3	0	0	0	0	492	610	
4	0	0	0	0	493	610	
5	0	0	0	0	495	610	
6	0	0	0	0	496	610	
7	0	0	0	0	496	609	
8	0	0	0	0	497	610	
9	0	0	0	0	496	610	
10	0	0	0	0	495	610	
11	0	0	0	0	494	610	
12	0	0	0	0	493	610	
13	0	0	0	0	492	610	
14	0	0	0	0	493	610	
15	0	0	0	0	493	610	
0	0	0	0	0	493	611	
1	0	0	0	0	495	611	
2	0	0	0	0	496	610	
3	0	0	0	0	499	610	
4	0	0	0	0	501	610	
5	0	0	0	0	503	611	
6	0	0	0	0	505	611	
7	0	0	0	0	507	611	
8	0	0	0	0	509	610	
9	0	0	0	0	510	610	
10	0	0	0	0	510	611	
11	0	0	0	0	509	611	
12	0	0	0	0	508	611	
13	0	0	0	0	507	611	
14	0	0	0	0	506	611	
15	0	0	0	0	505	611	
0	0	0	0	0	504	611	
1	0	0	0	0	503	611	
2	0	0	0	0	503	611	
3	0	0	0	0	503	611	
4	0	0	0	0	504	612	
5	0	0	0	0	503	611	
6	0	0	0	0	504	611	
7	0	0	0	0	504	611	
8	0	0	0	0	505	610	
9	0	0	0	0	507	611	
10	0	0	0	0	508	611	
11	0	0	0	0	510	611	
12	0	0	0	0	513	611	
13	0	0	0	0	515	611	
14	0	0	0	0	516	612	
15	0	0	0	0	516	611	
0	0	0	0	0	518	611	
1	0	0	0	0	516	611	
2	0	0	0	0	514	611	
3	0	0	0	0	512	612	
4	0	0	0	0	510	611	
5	0	0	0	0	508	611	
6	0	0	0	0	504	611	
7	0	0	0	0	499	611	
8	0	0	0	0	494	611	
9	0	0	0	0	488	610	
10	0	0	0	0	482	611	
11	0	0	0	0	478	611	
12	0	0	0	0	475	611	
13	0	0	0	0	473	612	
14	0	0	0	0	470	611	
15	0	0	0	0	472	610	
0	0	0	0	0	477	610	
1	0	0	0	0	485	610	
2	0	0	0	0	495	610	
3	0	0	0	0	508	611	
4	0	0	0	0	526	611	
5	0	0	0	0	543	611	
6	0	0	0	0	561	611	
7	0	0	0	0	581	611	
8	0	0	0	0	601	610	
9	0	0	0	0	619	610	
10	0	0	0	0	636	610	
11	0	0	0	0	651	610	
12	0	0	0	0	664	610	
13	0	0	0	0	675	610	
14	0	0	0	0	681	609	
15	0	0	0	0	688	610	
0	0	0	0	0	696	609	
1	0	0	0	0	701	610	
2	0	0	0	0	706	610	
3	0	0	0	0	711	610	
4	0	0	0	0	718	610	
5	0	0	0	0	724	609	
6	0	0	0	0	731	609	
7	0	0	0	0	736	610	
8	0	0	0	0	741	610	
9	0	0	0	0	750	610	
10	0	0	0	0	766	610	
11	0	0	0	0	783	609	
12	0	0	0	0	794	610	
13	0	0	0	0	796	609	
14	0	0	0	0	790	610	
15	0	0	0	0	776	610	
0	0	0	0	0	756	610	
1	0	0	0	0	733	610	
2	0	0	0	0	708	610	
3	0	0	0	0	682	610	
4	0	0	0	0	655	610	
5	0	0	0	0	631	611	
6	0	0	0	0	608	611	
7	0	0	0	0	586	610	
8	0	0	0	0	568	610	
9	0	0	0	0	554	609	
10	0	0	0	0	541	610	
11	0	0	0	0	530	609	
12	0	0	0	0	519	610	
13	0	0	0	0	511	611	
14	0	0	0	0	504	610	
15	0	0	0	0	499	611	
0	0	0	0	0	494	611	
1	0	0	0	0	489	610	
2	0	0	0	0	486	611	
3	0	0	0	0	484	611	
4	0	0	0	0	482	611	
5	0	0	0	0	481	611	
6	0	0	0	0	480	611	
7	0	0	0	0	480	612	
8	0	0	0	0	479	611	
9	0	0	0	0	480	611	
10	0	0	0	0	482	611	
11	0	0	0	0	484	611	
12	0	0	0	0	486	611	
13	0	0	0	0	487	612	
14	0	0	0	0	490	611	
15	0	0	0	0	490	612	
0	0	0	0	0	489	612	
1	0	0	0	0	488	612	
2	0	0	0	0	487	612	
3	0	0	0	0	486	612	
4	0	0	0	0	483	612	
5	0	0	0	0	481	613	
6	0	0	0	0	480	612	
7	0	0	0	0	479	612	
8	0	0	0	0	479	612	
9	0	0	0	0	479	612	
10	0	0	0	0	480	613	
11	0	0	0	0	482	612	
12	0	0	0	0	483	612	
13	0	0	0	0	484	614	
14	0	0	0	0	486	612	
15	0	0	0	0	487	612	
0	0	0	0	0	489	612	
1	0	0	0	0	491	612	
2	0	0	0	0	493	612	
3	0	0	0	0	494	612	
4	0	0	0	0	494	612	
5	0	0	0	0	492	613	
6	0	0	0	0	491	612	
7	0	0	0	0	490	612	
8	0	0	0	0	489	611	
9	0	0	0	0	488	611	
10	0	0	0	0	488	611	
11	0	0	0	0	487	611	
12	0	0	0	0	486	611	
13	0	0	0	0	485	612	
14	0	0	0	0	486	611	
15	0	0	0	0	487	610	
0	0	0	0	0	489	611	
1	0	0	0	0	490	611	
2	0	0	0	0	492	611	
3	0	0	0	0	495	611	
4	0	0	0	0	497	610	
5	0	0	0	0	499	610	
6	0	0	0	0	502	611	
7	0	0	0	0	503	610	
8	0	0	0	0	503	610	
9	0	0	0	0	503	611	
10	0	0	0	0	502	611	
11	0	0	0	0	502	611	
12	0	0	0	0	501	610	
13	0	0	0	0	499	610	
14	0	0	0	0	498	611	
15	0	0	0	0	497	610	
0	0	0	0	0	497	611	
1	0	0	0	0	497	611	
2	0	0	0	0	497	611	
3	0	0	0	0	497	611	
4	0	0	0	0	499	611	
5	0	0	0	0	500	611	
6	0	0	0	0	503	611	
7	0	0	0	0	506	611	
8	0	0	0	0	507	611	
9	0	0	0	0	508	611	
10	0	0	0	0	509	611	
11	0	0	0	0	511	611	
12	0	0	0	0	512	611	
13	0	0	0	0	511	611	
14	0	0	0	0	510	611	
15	0	0	0	0	509	611	
0	0	0	0	0	507	611	
1	0	0	0	0	507	611	
2	0	0	0	0	506	611	
3	0	0	0	0	504	611	
4	0	0	0	0	502	611	
5	0	0	0	0	501	611	
6	0	0	0	0	500	611	
7	0	0	0	0	500	611	
8	0	0	0	0	500	611	
9	0	0	0	0	500	611	
10	0	0	0	0	502	611	
11	0	0	0	0	503	611	
12	0	0	0	0	504	611	
13	0	0	0	0	506	611	
14	0	0	0	0	507	611	
15	0	0	0	0	506	611	
0	0	0	0	0	506	610	
1	0	0	0	0	505	610	
2	0	0	0	0	504	610	
3	0	0	0	0	504	610	
4	0	0	0	0	503	611	
5	0	0	0	0	502	611	
6	0	0	0	0	502	610	
7	0	0	0	0	502	610	
8	0	0	0	0	503	611	
9	0	0	0	0	503	610	
10	0	0	0	0	503	610	
11	0	0	0	0	503	610	
12	0	0	0	0	504	610	
13	0	0	0	0	504	611	
14	0	0	0	0	504	609	
15	0	0	0	0	504	609	
0	0	0	0	0	504	609	
1	0	0	0	0	506	609	
2	0	0	0	0	507	609	
3	0	0	0	0	508	609	
4	0	0	0	0	508	610	
5	0	0	0	0	507	610	
6	0	0	0	0	504	609	
7	0	0	0	0	502	609	
8	0	0	0	0	499	609	
9	0	0	0	0	497	609	
10	0	0	0	0	496	609	
11	0	0	0	0	495	609	
12	0	0	0	0	495	610	
13	0	0	0	0	495	610	
14	0	0	0	0	494	609	
15	0	0	0	0	495	609	
0	0	0	0	0	495	609	
1	0	0	0	0	496	609	
2	0	0	0	0	498	609	
3	0	0	0	0	499	609	
4	0	0	0	0	501	609	
5	0	0	0	0	503	609	
6	0	0	0	0	504	609	
7	0	0	0	0	504	609	
8	0	0	0	0	505	609	
9	0	0	0	0	504	609	
10	0	0	0	0	503	609	
11	0	0	0	0	502	609	
12	0	0	0	0	499	609	
13	0	0	0	0	498	609	
14	0	0	0	0	497	609	
15	0	0	0	0	496	609	
0	0	0	0	0	496	609	
1	0	0	0	0	496	610	
2	0	0	0	0	496	610	
3	0	0	0	0	497	611	
4	0	0	0	0	499	611	
5	0	0	0	0	501	611	
6	0	0	0	0	503	611	
7	0	0	0	0	506	611	
8	0	0	0	0	509	611	
9	0	0	0	0	511	610	
10	0	0	0	0	511	610	
11	0	0	0	0	511	611	
12	0	0	0	0	511	611	
13	0	0	0	0	510	611	
14	0	0	0	0	509	610	
15	0	0	0	0	508	611	
0	0	0	0	0	507	611	
1	0	0	0	0	507	610	
2	0	0	0	0	507	611	
3	0	0	0	0	505	611	
4	0	0	0	0	505	611	
5	0	0	0	0	504	612	
6	0	0	0	0	504	611	
7	0	0	0	0	505	611	
8	0	0	0	0	505	611	
9	0	0	0	0	506	611	
10	0	0	0	0	507	611	
11	0	0	0	0	509	612	
12	0	0	0	0	511	611	
13	0	0	0	0	513	611	
14	0	0	0	0	514	610	
15	0	0	0	0	515	611	
0	0	0	0	0	516	610	
1	0	0	0	0	517	611	
2	0	0	0	0	517	611	
3	0	0	0	0	517	611	
4	0	0	0	0	516	611	
5	0	0	0	0	516	611	
6	0	0	0	0	515	610	
7	0	0	0	0	515	611	
8	0	0	0	0	515	611	
9	0	0	0	0	515	610	
10	0	0	0	0	515	610	
11	0	0	0	0	516	611	
12	0	0	0	0	517	610	
13	0	0	0	0	519	611	
14	0	0	0	0	520	610	
15	0	0	0	0	523	609	
0	0	0	0	0	526	609	
1	0	0	0	0	528	609	
2	0	0	0	0	530	610	
3	0	0	0	0	531	610	
4	0	0	0	0	532	609	
5	0	0	0	0	532	610	
6	0	0	0	0	532	609	
7	0	0	0	0	531	609	
8	0	0	0	0	531	609	
9	0	0	0	0	531	609	
10	0	0	0	0	531	609	
11	0	0	0	0	532	608	
12	0	0	0	0	534	608	
13	0	0	0	0	535	608	
14	0	0	0	0	536	608	
15	0	0	0	0	538	608	
0	0	0	0	0	539	608	
1	0	0	0	0	542	608	
2	0	0	0	0	545	608	
3	0	0	0	0	548	608	
4	0	0	0	0	551	608	
5	0	0	0	0	552	609	
6	0	0	0	0	554	608	
7	0	0	0	0	555	609	
8	0	0	0	0	555	609	
9	0	0	0	0	555	608	
10	0	0	0	0	553	608	
11	0	0	0	0	552	608	
12	0	0	0	0	551	608	
13	0	0	0	0	551	609	
14	0	0	0	0	551	609	
15	0	0	0	0	550	608	
0	0	0	0	0	551	609	
1	0	0	0	0	551	609	
2	0	0	0	0	551	609	
3	0	0	0	0	553	608	
4	0	0	0	0	555	609	
5	0	0	0	0	555	609	
6	0	0	0	0	556	608	
7	0	0	0	0	557	608	
8	0	0	0	0	559	609	
9	0	0	0	0	559	609	
10	0	0	0	0	560	609	
11	0	0	0	0	560	609	
12	0	0	0	0	559	609	
13	0	0	0	0	558	610	
14	0	0	0	0	557	609	
15	0	0	0	0	556	610	
0	0	0	0	0	556	610	
1	0	0	0	0	555	610	
2	0	0	0	0	555	610	
3	0	0	0	0	554	609	
4	0	0	0	0	554	611	
5	0	0	0	0	553	611	
6	0	0	0	0	553	610	
7	0	0	0	0	552	611	
8	0	0	0	0	552	611	
9	0	0	0	0	552	611	
10	0	0	0	0	552	611	
11	0	0	0	0	552	611	
12	0	0	0	0	553	611	
13	0	0	0	0	554	612	
14	0	0	0	0	554	611	
15	0	0	0	0	554	610	
0	0	0	0	0	554	611	
1	0	0	0	0	553	611	
2	0	0	0	0	551	611	
3	0	0	0	0	550	611	
4	0	0	0	0	548	611	
5	0	0	0	0	546	612	
6	0	0	0	0	544	611	
7	0	0	0	0	543	612	
8	0	0	0	0	542	611	
9	0	0	0	0	541	612	
10	0	0	0	0	542	612	
11	0	0	0	0	543	612	
12	0	0	0	0	544	612	
13	0	0	0	0	545	612	
14	0	0	0	0	546	611	
15	0	0	0	0	547	611	
0	0	0	0	0	549	611	
1	0	0	0	0	550	611	
2	0	0	0	0	551	611	
3	0	0	0	0	551	611	
4	0	0	0	0	551	611	
5	0	0	0	0	551	612	
6	0	0	0	0	550	612	
7	0	0	0	0	547	612	
8	0	0	0	0	545	612	
9	0	0	0	0	544	611	
10	0	0	0	0	543	612	
11	0	0	0	0	542	611	
12	0	0	0	0	541	611	
13	0	0	0	0	540	611	
14	0	0	0	0	539	611	
15	0	0	0	0	539	611	
0	0	0	0	0	539	611	
1	0	0	0	0	539	611	
2	0	0	0	0	540	612	
3	0	0	0	0	541	612	
4	0	0	0	0	543	612	
5	0	0	0	0	544	612	
6	0	0	0	0	545	612	
7	0	0	0	0	545	611	
8	0	0	0	0	545	612	
9	0	0	0	0	545	611	
10	0	0	0	0	544	611	
11	0	0	0	0	543	611	
12	0	0	0	0	541	612	
13	0	0	0	0	540	612	
14	0	0	0	0	538	611	
15	0	0	0	0	537	611	
0	0	0	0	0	535	611	
1	0	0	0	0	534	610	
2	0	0	0	0	534	610	
3	0	0	0	0	534	611	
4	0	0	0	0	535	610	
5	0	0	0	0	536	610	
6	0	0	0	0	538	609	
7	0	0	0	0	540	610	
8	0	0	0	0	543	610	
9	0	0	0	0	544	609	
10	0	0	0	0	544	610	
11	0	0	0	0	544	610	
12	0	0	0	0	543	609	
13	0	0	0	0	543	610	
14	0	0	0	0	542	610	
15	0	0	0	0	540	610	
0	0	0	0	0	537	610	
1	0	0	0	0	536	609	
2	0	0	0	0	535	609	
3	0	0	0	0	535	609	
4	0	0	0	0	534	610	
5	0	0	0	0	533	610	
6	0	0	0	0	532	610	
7	0	0	0	0	533	610	
8	0	0	0	0	534	610	
9	0	0	0	0	535	610	
10	0	0	0	0	536	611	
11	0	0	0	0	537	611	
12	0	0	0	0	538	611	
13	0	0	0	0	540	612	
14	0	0	0	0	541	612	
15	0	0	0	0	542	612	
0	0	0	0	0	542	612	
1	0	0	0	0	541	612	
2	0	0	0	0	540	612	
3	0	0	0	0	540	612	
4	0	0	0	0	538	612	
5	0	0	0	0	537	612	
6	0	0	0	0	535	612	
7	0	0	0	0	534	612	
8	0	0	0	0	532	614	
9	0	0	0	0	531	612	
10	0	0	0	0	531	612	
11	0	0	0	0	531	613	
12	0	0	0	0	531	613	
13	0	0	0	0	532	613	
14	0	0	0	0	534	613	
15	0	0	0	0	535	612	
0	0	0	0	0	537	613	
1	0	0	0	0	539	612	
2	0	0	0	0	540	613	
3	0	0	0	0	542	613	
4	0	0	0	0	542	612	
5	0	0	0	0	542	613	
6	0	0	0	0	541	612	
7	0	0	0	0	540	612	
8	0	0	0	0	538	612	
9	0	0	0	0	537	611	
10	0	0	0	0	536	611	
11	0	0	0	0	536	611	
12	0	0	0	0	536	611	
13	0	0	0	0	536	611	
14	0	0	0	0	537	611	
15	0	0	0	0	538	611	
0	0	0	0	0	540	611	
1	0	0	0	0	542	611	
2	0	0	0	0	544	611	
3	0	0	0	0	546	611	
4	0	0	0	0	548	610	
5	0	0	0	0	550	611	
6	0	0	0	0	551	610	
7	0	0	0	0	553	610	
8	0	0	0	0	553	610	
9	0	0	0	0	553	610	
10	0	0	0	0	553	610	
11	0	0	0	0	552	611	
12	0	0	0	0	551	610	
13	0	0	0	0	549	611	
14	0	0	0	0	547	610	
15	0	0	0	0	546	610	
0	0	0	0	0	546	611	
1	0	0	0	0	546	610	
2	0	0	0	0	547	610	
3	0	0	0	0	548	610	
4	0	0	0	0	550	610	
5	0	0	0	0	552	611	
6	0	0	0	0	555	610	
7	0	0	0	0	557	611	
8	0	0	0	0	559	611	
9	0	0	0	0	560	610	
10	0	0	0	0	563	611	
11	0	0	0	0	563	609	
12	0	0	0	0	564	610	
13	0	0	0	0	565	610	
14	0	0	0	0	564	610	
15	0	0	0	0	563	611	
0	0	0	0	0	562	611	
1	0	0	0	0	561	611	
2	0	0	0	0	560	610	
3	0	0	0	0	559	611	
4	0	0	0	0	559	611	
5	0	0	0	0	559	611	
6	0	0	0	0	558	611	
7	0	0	0	0	558	611	
8	0	0	0	0	560	611	
9	0	0	0	0	561	611	
10	0	0	0	0	562	611	
11	0	0	0	0	564	611	
12	0	0	0	0	567	611	
13	0	0	0	0	568	611	
14	0	0	0	0	569	611	
15	0	0	0	0	570	611	
0	0	0	0	0	569	611	
1	0	0	0	0	568	611	
2	0	0	0	0	568	611	
3	0	0	0	0	566	610	
4	0	0	0	0	565	610	
5	0	0	0	0	564	611	
6	0	0	0	0	564	610	
7	0	0	0	0	564	611	
8	0	0	0	0	564	611	
9	0	0	0	0	564	610	
10	0	0	0	0	565	611	
11	0	0	0	0	566	611	
12	0	0	0	0	567	610	
13	0	0	0	0	568	611	
14	0	0	0	0	569	611	
15	0	0	0	0	571	611	
0	0	0	0	0	572	611	
1	0	0	0	0	573	611	
2	0	0	0	0	574	610	
3	0	0	0	0	574	610	
4	0	0	0	0	573	610	
5	0	0	0	0	572	611	
6	0	0	0	0	569	609	
7	0	0	0	0	568	610	
8	0	0	0	0	565	609	
9	0	0	0	0	563	610	
10	0	0	0	0	561	609	
11	0	0	0	0	560	609	
12	0	0	0	0	559	610	
13	0	0	0	0	559	610	
14	0	0	0	0	557	610	
15	0	0	0	0	557	609	
0	0	0	0	0	558	609	
1	0	0	0	0	559	609	
2	0	0	0	0	561	609	
3	0	0	0	0	562	609	
4	0	0	0	0	564	609	
5	0	0	0	0	566	610	
6	0	0	0	0	567	609	
7	0	0	0	0	567	609	
8	0	0	0	0	566	609	
9	0	0	0	0	566	609	
10	0	0	0	0	565	609	
11	0	0	0	0	564	610	
12	0	0	0	0	562	609	
13	0	0	0	0	561	609	
14	0	0	0	0	559	609	
15	0	0	0	0	558	609	
0	0	0	0	0	556	610	
1	0	0	0	0	556	609	
2	0	0	0	0	555	609	
3	0	0	0	0	556	609	
4	0	0	0	0	556	609	
5	0	0	0	0	557	610	
6	0	0	0	0	558	609	
7	0	0	0	0	559	609	
8	0	0	0	0	560	609	
9	0	0	0	0	561	609	
10	0	0	0	0	563	610	
11	0	0	0	0	563	609	
12	0	0	0	0	562	609	
13	0	0	0	0	561	610	
14	0	0	0	0	560	610	
15	0	0	0	0	558	610	
0	0	0	0	0	556	609	
1	0	0	0	0	554	609	
2	0	0	0	0	553	609	
3	0	0	0	0	553	609	
4	0	0	0	0	553	609	
5	0	0	0	0	552	610	
6	0	0	0	0	553	609	
7	0	0	0	0	554	609	
8	0	0	0	0	555	609	
9	0	0	0	0	556	609	
10	0	0	0	0	558	609	
11	0	0	0	0	560	609	
12	0	0	0	0	560	610	
13	0	0	0	0	561	610	
14	0	0	0	0	562	611	
15	0	0	0	0	562	610	
0	0	0	0	0	561	610	
1	0	0	0	0	560	610	
2	0	0	0	0	558	610	
3	0	0	0	0	556	610	
4	0	0	0	0	553	610	
5	0	0	0	0	552	610	
6	0	0	0	0	550	610	
7	0	0	0	0	548	609	
8	0	0	0	0	548	610	
9	0	0	0	0	548	610	
10	0	0	0	0	548	610	
11	0	0	0	0	550	610	
12	0	0	0	0	551	609	
13	0	0	0	0	552	610	
14	0	0	0	0	554	609	
15	0	0	0	0	557	610	
0	0	0	0	0	559	610	
1	0	0	0	0	561	610	
2	0	0	0	0	563	610	
3	0	0	0	0	565	610	
4	0	0	0	0	565	610	
5	0	0	0	0	565	611	
6	0	0	0	0	563	611	
7	0	0	0	0	562	610	
8	0	0	0	0	560	610	
9	0	0	0	0	559	611	
10	0	0	0	0	558	610	
11	0	0	0	0	558	611	
12	0	0	0	0	558	611	
13	0	0	0	0	559	611	
14	0	0	0	0	559	610	
15	0	0	0	0	560	611	
0	0	0	0	0	560	611	
1	0	0	0	0	561	611	
2	0	0	0	0	561	611	
3	0	0	0	0	563	611	
4	0	0	0	0	564	611	
5	0	0	0	0	566	611	
6	0	0	0	0	567	611	
7	0	0	0	0	568	611	
8	0	0	0	0	569	610	
9	0	0	0	0	569	611	
10	0	0	0	0	568	611	
11	0	0	0	0	569	611	
12	0	0	0	0	568	611	
13	0	0	0	0	568	612	
14	0	0	0	0	569	611	
15	0	0	0	0	569	611	
0	0	0	0	0	571	610	
1	0	0	0	0	571	611	
2	0	0	0	0	572	611	
3	0	0	0	0	574	611	
4	0	0	0	0	575	611	
5	0	0	0	0	576	611	
6	0	0	0	0	577	612	
7	0	0	0	0	579	611	
8	0	0	0	0	581	611	
9	0	0	0	0	582	611	
10	0	0	0	0	583	611	
11	0	0	0	0	584	611	
12	0	0	0	0	585	611	
13	0	0	0	0	585	612	
14	0	0	0	0	585	611	
15	0	0	0	0	583	611	
0	0	0	0	0	582	611	
1	0	0	0	0	581	611	
2	0	0	0	0	580	610	
3	0	0	0	0	580	611	
4	0	0	0	0	580	610	
5	0	0	0	0	581	611	
6	0	0	0	0	582	611	
7	0	0	0	0	584	611	
8	0	0	0	0	585	610	
9	0	0	0	0	587	611	
10	0	0	0	0	588	611	
11	0	0	0	0	589	609	
12	0	0	0	0	591	611	
13	0	0	0	0	592	611	
14	0	0	0	0	593	610	
15	0	0	0	0	593	611	
0	0	0	0	0	593	610	
1	0	0	0	0	593	610	
2	0	0	0	0	591	610	
3	0	0	0	0	589	610	
4	0	0	0	0	587	610	
5	0	0	0	0	584	611	
6	0	0	0	0	582	611	
7	0	0	0	0	580	611	
8	0	0	0	0	577	610	
9	0	0	0	0	576	610	
10	0	0	0	0	575	610	
11	0	0	0	0	575	610	
12	0	0	0	0	576	610	
13	0	0	0	0	576	611	
14	0	0	0	0	578	610	
15	0	0	0	0	579	610	
0	0	0	0	0	580	611	
1	0	0	0	0	581	610	
2	0	0	0	0	582	611	
3	0	0	0	0	582	611	
4	0	0	0	0	581	610	
5	0	0	0	0	580	611	
6	0	0	0	0	579	610	
7	0	0	0	0	576	611	
8	0	0	0	0	575	611	
9	0	0	0	0	573	610	
10	0	0	0	0	571	611	
11	0	0	0	0	570	611	
12	0	0	0	0	568	611	
13	0	0	0	0	567	611	
14	0	0	0	0	567	611	
15	0	0	0	0	567	611	
0	0	0	0	0	567	611	
1	0	0	0	0	568	611	
2	0	0	0	0	568	611	
3	0	0	0	0	569	611	
4	0	0	0	0	570	611	
5	0	0	0	0	572	612	
6	0	0	0	0	572	611	
7	0	0	0	0	573	610	
8	0	0	0	0	574	611	
9	0	0	0	0	574	611	
10	0	0	0	0	572	611	
11	0	0	0	0	571	611	
12	0	0	0	0	569	611	
13	0	0	0	0	568	612	
14	0	0	0	0	565	611	
15	0	0	0	0	563	611	
0	0	0	0	0	562	611	
1	0	0	0	0	561	611	
2	0	0	0	0	561	611	
3	0	0	0	0	561	611	
4	0	0	0	0	563	610	
5	0	0	0	0	563	611	
6	0	0	0	0	564	611	
7	0	0	0	0	564	611	
8	0	0	0	0	564	611	
9	0	0	0	0	565	610	
10	0	0	0	0	564	611	
11	0	0	0	0	563	611	
12	0	0	0	0	560	611	
13	0	0	0	0	558	611	
14	0	0	0	0	555	610	
15	0	0	0	0	550	610	
0	0	0	0	0	544	610	
1	0	0	0	0	538	610	
2	0	0	0	0	532	610	
3	0	0	0	0	526	610	
4	0	0	0	0	520	610	
5	0	0	0	0	515	611	
6	0	0	0	0	512	611	
7	0	0	0	0	510	611	
8	0	0	0	0	510	610	
9	0	0	0	0	514	611	
10	0	0	0	0	520	611	
11	0	0	0	0	529	611	
12	0	0	0	0	541	610	
13	0	0	0	0	555	611	
14	0	0	0	0	571	610	
15	0	0	0	0	590	610	
0	0	0	0	0	609	610	
1	0	0	0	0	631	610	
2	0	0	0	0	651	609	
3	0	0	0	0	668	609	
4	0	0	0	0	684	609	
5	0	0	0	0	697	610	
6	0	0	0	0	709	610	
7	0	0	0	0	716	610	
8	0	0	0	0	722	610	
9	0	0	0	0	727	609	
10	0	0	0	0	732	609	
11	0	0	0	0	737	610	
12	0	0	0	0	742	610	
13	0	0	0	0	748	610	
14	0	0	0	0	756	609	
15	0	0	0	0	763	610	
0	0	0	0	0	767	610	
1	0	0	0	0	770	609	
2	0	0	0	0	775	610	
3	0	0	0	0	789	610	
4	0	0	0	0	806	610	
5	0	0	0	0	819	611	
6	0	0	0	0	823	610	
7	0	0	0	0	818	610	
8	0	0	0	0	806	610	
9	0	0	0	0	789	610	
10	0	0	0	0	768	610	
11	0	0	0	0	744	610	
12	0	0	0	0	719	610	
13	0	0	0	0	695	611	
14	0	0	0	0	670	611	
15	0	0	0	0	647	610	
0	0	0	0	0	627	609	
1	0	0	0	0	609	610	
2	0	0	0	0	593	610	
3	0	0	0	0	579	611	
4	0	0	0	0	568	610	
5	0	0	0	0	558	611	
6	0	0	0	0	550	611	
7	0	0	0	0	541	610	
8	0	0	0	0	534	610	
9	0	0	0	0	527	610	
10	0	0	0	0	521	610	
11	0	0	0	0	515	611	
12	0	0	0	0	511	610	
13	0	0	0	0	507	611	
14	0	0	0	0	504	611	
15	0	0	0	0	502	611	
0	0	0	0	0	500	611	
1	0	0	0	0	498	611	
2	0	0	0	0	498	610	
3	0	0	0	0	498	611	
4	0	0	0	0	499	610	
5	0	0	0	0	499	611	
6	0	0	0	0	500	611	
7	0	0	0	0	501	611	
8	0	0	0	0	502	610	
9	0	0	0	0	502	611	
10	0	0	0	0	501	610	
11	0	0	0	0	501	611	
12	0	0	0	0	500	610	
13	0	0	0	0	498	611	
14	0	0	0	0	496	610	
15	0	0	0	0	494	611	
0	0	0	0	0	493	611	
1	0	0	0	0	492	611	
2	0	0	0	0	491	610	
3	0	0	0	0	490	610	
4	0	0	0	0	491	611	
5	0	0	0	0	492	610	
6	0	0	0	0	493	611	
7	0	0	0	0	494	610	
8	0	0	0	0	496	610	
9	0	0	0	0	497	610	
10	0	0	0	0	499	610	
11	0	0	0	0	501	611	
12	0	0	0	0	503	610	
13	0	0	0	0	505	611	
14	0	0	0	0	506	611	
15	0	0	0	0	508	611	
0	0	0	0	0	507	610	
1	0	0	0	0	507	610	
2	0	0	0	0	506	610	
3	0	0	0	0	505	610	
4	0	0	0	0	503	610	
5	0	0	0	0	500	611	
6	0	0	0	0	499	610	
7	0	0	0	0	498	610	
8	0	0	0	0	497	611	
9	0	0	0	0	497	610	
10	0	0	0	0	497	610	
11	0	0	0	0	497	610	
12	0	0	0	0	498	610	
13	0	0	0	0	500	611	
14	0	0	0	0	501	610	
15	0	0	0	0	503	610	
0	0	0	0	0	505	610	
1	0	0	0	0	507	610	
2	0	0	0	0	508	611	
3	0	0	0	0	509	610	
4	0	0	0	0	509	610	
5	0	0	0	0	508	610	
6	0	0	0	0	506	610	
7	0	0	0	0	505	610	
8	0	0	0	0	504	610	
9	0	0	0	0	504	609	
10	0	0	0	0	504	610	
11	0	0	0	0	504	610	
12	0	0	0	0	503	610	
13	0	0	0	0	501	611	
14	0	0	0	0	501	610	
15	0	0	0	0	500	610	
0	0	0	0	0	500	609	
1	0	0	0	0	501	610	
2	0	0	0	0	503	610	
3	0	0	0	0	505	610	
4	0	0	0	0	508	610	
5	0	0	0	0	510	610	
6	0	0	0	0	511	610	
7	0	0	0	0	511	610	
8	0	0	0	0	511	609	
9	0	0	0	0	511	610	
10	0	0	0	0	510	610	
11	0	0	0	0	508	610	
12	0	0	0	0	507	610	
13	0	0	0	0	506	610	
14	0	0	0	0	505	609	
15	0	0	0	0	504	609	
0	0	0	0	0	503	609	
1	0	0	0	0	503	609	
2	0	0	0	0	503	609	
3	0	0	0	0	505	610	
4	0	0	0	0	507	609	
5	0	0	0	0	509	610	
6	0	0	0	0	511	609	
7	0	0	0	0	514	609	
8	0	0	0	0	516	610	
9	0	0	0	0	519	609	
10	0	0	0	0	520	610	
11	0	0	0	0	520	610	
12	0	0	0	0	521	610	
13	0	0	0	0	520	611	
14	0	0	0	0	519	610	
15	0	0	0	0	518	611	
0	0	0	0	0	516	610	
1	0	0	0	0	516	610	
2	0	0	0	0	517	611	
3	0	0	0	0	516	610	
4	0	0	0	0	516	610	
5	0	0	0	0	516	610	
6	0	0	0	0	516	610	
7	0	0	0	0	517	610	
8	0	0	0	0	518	610	
9	0	0	0	0	520	610	
10	0	0	0	0	521	610	
11	0	0	0	0	522	611	
12	0	0	0	0	523	611	
13	0	0	0	0	523	611	
14	0	0	0	0	524	611	
15	0	0	0	0	523	610	
0	0	0	0	0	521	610	
1	0	0	0	0	519	610	
2	0	0	0	0	518	610	
3	0	0	0	0	515	610	
4	0	0	0	0	513	611	
5	0	0	0	0	512	611	
6	0	0	0	0	511	610	
7	0	0	0	0	510	610	
8	0	0	0	0	510	610	
9	0	0	0	0	510	610	
10	0	0	0	0	511	610	
11	0	0	0	0	511	610	
12	0	0	0	0	512	610	
13	0	0	0	0	512	611	
14	0	0	0	0	513	610	
15	0	0	0	0	515	610	
0	0	0	0	0	516	610	
1	0	0	0	0	518	610	
2	0	0	0	0	520	610	
3	0	0	0	0	521	610	
4	0	0	0	0	522	610	
5	0	0	0	0	522	611	
6	0	0	0	0	519	610	
7	0	0	0	0	518	610	
8	0	0	0	0	515	609	
9	0	0	0	0	513	609	
10	0	0	0	0	511	610	
11	0	0	0	0	510	610	
12	0	0	0	0	509	611	
13	0	0	0	0	509	611	
14	0	0	0	0	509	610	
15	0	0	0	0	510	610	
0	0	0	0	0	512	611	
1	0	0	0	0	514	611	
2	0	0	0	0	515	611	
3	0	0	0	0	516	610	
4	0	0	0	0	518	611	
5	0	0	0	0	519	611	
6	0	0	0	0	518	610	
7	0	0	0	0	517	610	
8	0	0	0	0	515	611	
9	0	0	0	0	513	611	
10	0	0	0	0	511	610	
11	0	0	0	0	508	611	
12	0	0	0	0	506	610	
13	0	0	0	0	505	611	
14	0	0	0	0	504	611	
15	0	0	0	0	503	611	
0	0	0	0	0	503	611	
1	0	0	0	0	503	611	
2	0	0	0	0	504	611	
3	0	0	0	0	506	611	
4	0	0	0	0	508	611	
5	0	0	0	0	510	612	
6	0	0	0	0	511	611	
7	0	0	0	0	512	611	
8	0	0	0	0	514	611	
9	0	0	0	0	515	611	
10	0	0	0	0	516	611	
11	0	0	0	0	517	611	
12	0	0	0	0	518	611	
13	0	0	0	0	518	611	
14	0	0	0	0	517	610	
15	0	0	0	0	516	611	
0	0	0	0	0	513	610	
1	0	0	0	0	512	610	
2	0	0	0	0	511	611	
3	0	0	0	0	510	610	
4	0	0	0	0	510	611	
5	0	0	0	0	511	611	
6	0	0	0	0	512	611	
7	0	0	0	0	513	611	
8	0	0	0	0	514	611	
9	0	0	0	0	516	610	
10	0	0	0	0	519	610	
11	0	0	0	0	521	610	
12	0	0	0	0	524	610	
13	0	0	0	0	526	611	
14	0	0	0	0	526	610	
15	0	0	0	0	526	610	
0	0	0	0	0	526	609	
1	0	0	0	0	525	609	
2	0	0	0	0	523	609	
3	0	0	0	0	522	610	
4	0	0	0	0	521	609	
5	0	0	0	0	521	610	
6	0	0	0	0	520	609	
7	0	0	0	0	519	609	
8	0	0	0	0	520	609	
9	0	0	0	0	520	609	
10	0	0	0	0	522	609	
11	0	0	0	0	524	610	
12	0	0	0	0	525	609	
13	0	0	0	0	527	610	
14	0	0	0	0	530	609	
15	0	0	0	0	533	609	
0	0	0	0	0	536	609	
1	0	0	0	0	539	609	
2	0	0	0	0	541	609	
3	0	0	0	0	542	609	
4	0	0	0	0	543	609	
5	0	0	0	0	543	610	
6	0	0	0	0	542	610	
7	0	0	0	0	541	609	
8	0	0	0	0	540	609	
9	0	0	0	0	540	609	
10	0	0	0	0	539	609	
11	0	0	0	0	539	609	
12	0	0	0	0	539	610	
13	0	0	0	0	538	611	
14	0	0	0	0	537	609	
15	0	0	0	0	538	609	
0	0	0	0	0	539	610	
1	0	0	0	0	540	610	
2	0	0	0	0	541	609	
3	0	0	0	0	542	610	
4	0	0	0	0	543	610	
5	0	0	0	0	545	610	
6	0	0	0	0	546	610	
7	0	0	0	0	546	610	
8	0	0	0	0	545	610	
9	0	0	0	0	544	610	
10	0	0	0	0	542	609	
11	0	0	0	0	541	611	
12	0	0	0	0	540	611	
13	0	0	0	0	539	611	
14	0	0	0	0	539	610	
15	0	0	0	0	537	610	
0	0	0	0	0	537	610	
1	0	0	0	0	537	610	
2	0	0	0	0	537	610	
3	0	0	0	0	539	610	
4	0	0	0	0	540	610	
5	0	0	0	0	542	611	
6	0	0	0	0	543	610	
7	0	0	0	0	544	610	
8	0	0	0	0	545	610	
9	0	0	0	0	546	610	
10	0	0	0	0	547	610	
11	0	0	0	0	548	610	
12	0	0	0	0	548	610	
13	0	0	0	0	547	610	
14	0	0	0	0	546	610	
15	0	0	0	0	545	610	
0	0	0	0	0	544	610	
1	0	0	0	0	543	610	
2	0	0	0	0	542	610	
3	0	0	0	0	541	611	
4	0	0	0	0	540	611	
5	0	0	0	0	540	611	
6	0	0	0	0	540	611	
7	0	0	0	0	541	610	
8	0	0	0	0	542	611	
9	0	0	0	0	543	610	
10	0	0	0	0	544	610	
11	0	0	0	0	545	610	
12	0	0	0	0	547	611	
13	0	0	0	0	548	610	
14	0	0	0	0	548	610	
15	0	0	0	0	548	609	
0	0	0	0	0	549	609	
1	0	0	0	0	548	609	
2	0	0	0	0	547	609	
3	0	0	0	0	546	610	
4	0	0	0	0	545	609	
5	0	0	0	0	544	610	
6	0	0	0	0	544	609	
7	0	0	0	0	543	609	
8	0	0	0	0	543	609	
9	0	0	0	0	543	609	
10	0	0	0	0	543	609	
11	0	0	0	0	543	609	
12	0	0	0	0	543	609	
13	0	0	0	0	544	610	
14	0	0	0	0	545	609	
15	0	0	0	0	546	610	
0	0	0	0	0	547	610	
1	0	0	0	0	548	610	
2	0	0	0	0	549	610	
3	0	0	0	0	550	610	
4	0	0	0	0	550	610	
5	0	0	0	0	550	611	
6	0	0	0	0	548	610	
7	0	0	0	0	547	610	
8	0	0	0	0	546	609	
9	0	0	0	0	544	609	
10	0	0	0	0	543	609	
11	0	0	0	0	543	610	
12	0	0	0	0	543	610	
13	0	0	0	0	543	610	
14	0	0	0	0	543	610	
15	0	0	0	0	544	610	
0	0	0	0	0	545	610	
1	0	0	0	0	545	610	
2	0	0	0	0	546	610	
3	0	0	0	0	548	610	
4	0	0	0	0	550	610	
5	0	0	0	0	551	611	
6	0	0	0	0	552	611	
7	0	0	0	0	552	610	
8	0	0	0	0	552	610	
9	0	0	0	0	552	610	
10	0	0	0	0	551	610	
11	0	0	0	0	550	611	
12	0	0	0	0	547	610	
13	0	0	0	0	545	611	
14	0	0	0	0	544	610	
15	0	0	0	0	543	611	
0	0	0	0	0	542	611	
1	0	0	0	0	541	611	
2	0	0	0	0	541	611	
3	0	0	0	0	542	611	
4	0	0	0	0	542	611	
5	0	0	0	0	544	612	
6	0	0	0	0	545	611	
7	0	0	0	0	547	611	
8	0	0	0	0	550	611	
9	0	0	0	0	551	611	
10	0	0	0	0	553	611	
11	0	0	0	0	555	612	
12	0	0	0	0	555	611	
13	0	0	0	0	554	612	
14	0	0	0	0	552	611	
15	0	0	0	0	551	611	
0	0	0	0	0	549	611	
1	0	0	0	0	547	611	
2	0	0	0	0	546	611	
3	0	0	0	0	545	611	
4	0	0	0	0	544	611	
5	0	0	0	0	543	611	
6	0	0	0	0	543	611	
7	0	0	0	0	542	611	
8	0	0	0	0	542	611	
9	0	0	0	0	542	610	
10	0	0	0	0	543	611	
11	0	0	0	0	544	610	
12	0	0	0	0	545	611	
13	0	0	0	0	547	611	
14	0	0	0	0	548	611	
15	0	0	0	0	547	611	
0	0	0	0	0	547	610	
1	0	0	0	0	545	610	
2	0	0	0	0	544	610	
3	0	0	0	0	543	611	
4	0	0	0	0	541	610	
5	0	0	0	0	539	611	
6	0	0	0	0	538	610	
7	0	0	0	0	537	610	
8	0	0	0	0	536	610	
9	0	0	0	0	536	610	
10	0	0	0	0	535	610	
11	0	0	0	0	534	610	
12	0	0	0	0	534	609	
13	0	0	0	0	535	610	
14	0	0	0	0	536	610	
15	0	0	0	0	538	609	
0	0	0	0	0	540	610	
1	0	0	0	0	541	609	
2	0	0	0	0	542	609	
3	0	0	0	0	543	610	
4	0	0	0	0	543	610	
5	0	0	0	0	543	611	
6	0	0	0	0	542	611	
7	0	0	0	0	540	611	
8	0	0	0	0	539	610	
9	0	0	0	0	537	610	
10	0	0	0	0	535	610	
11	0	0	0	0	534	611	
12	0	0	0	0	532	610	
13	0	0	0	0	531	610	
14	0	0	0	0	531	610	
15	0	0	0	0	532	610	
0	0	0	0	0	533	609	
1	0	0	0	0	536	610	
2	0	0	0	0	537	611	
3	0	0	0	0	540	610	
4	0	0	0	0	541	611	
5	0	0	0	0	542	611	
6	0	0	0	0	543	610	
7	0	0	0	0	543	610	
8	0	0	0	0	543	611	
9	0	0	0	0	541	611	
10	0	0	0	0	539	611	
11	0	0	0	0	537	611	
12	0	0	0	0	536	611	
13	0	0	0	0	534	611	
14	0	0	0	0	533	611	
15	0	0	0	0	532	610	
0	0	0	0	0	530	610	
1	0	0	0	0	529	610	
2	0	0	0	0	528	610	
3	0	0	0	0	528	611	
4	0	0	0	0	529	611	
5	0	0	0	0	529	611	
6	0	0	0	0	530	610	
7	0	0	0	0	532	611	
8	0	0	0	0	534	610	
9	0	0	0	0	535	610	
10	0	0	0	0	536	611	
11	0	0	0	0	536	610	
12	0	0	0	0	536	611	
13	0	0	0	0	535	611	
14	0	0	0	0	532	610	
15	0	0	0	0	530	611	
0	0	0	0	0	528	610	
1	0	0	0	0	527	610	
2	0	0	0	0	525	610	
3	0	0	0	0	524	611	
4	0	0	0	0	523	610	
5	0	0	0	0	523	611	
6	0	0	0	0	524	610	
7	0	0	0	0	525	610	
8	0	0	0	0	526	610	
9	0	0	0	0	527	609	
10	0	0	0	0	528	610	
11	0	0	0	0	531	610	
12	0	0	0	0	533	610	
13	0	0	0	0	534	611	
14	0	0	0	0	536	610	
15	0	0	0	0	536	610	
0	0	0	0	0	536	610	
1	0	0	0	0	536	610	
2	0	0	0	0	535	610	
3	0	0	0	0	533	610	
4	0	0	0	0	531	610	
5	0	0	0	0	529	610	
6	0	0	0	0	527	610	
7	0	0	0	0	526	610	
8	0	0	0	0	524	610	
9	0	0	0	0	523	610	
10	0	0	0	0	522	610	
11	0	0	0	0	522	610	
12	0	0	0	0	522	610	
13	0	0	0	0	522	611	
14	0	0	0	0	523	610	
15	0	0	0	0	523	610	
0	0	0	0	0	524	610	
1	0	0	0	0	525	610	
2	0	0	0	0	526	610	
3	0	0	0	0	526	610	
4	0	0	0	0	525	610	
5	0	0	0	0	524	610	
6	0	0	0	0	523	610	
7	0	0	0	0	522	610	
8	0	0	0	0	520	610	
9	0	0	0	0	519	610	
10	0	0	0	0	518	610	
11	0	0	0	0	518	610	
12	0	0	0	0	517	610	
13	0	0	0	0	516	611	
14	0	0	0	0	516	610	
15	0	0	0	0	516	609	
0	0	0	0	0	516	609	
1	0	0	0	0	517	610	
2	0	0	0	0	517	610	
3	0	0	0	0	518	610	
4	0	0	0	0	519	610	
5	0	0	0	0	519	611	
6	0	0	0	0	520	610	
7	0	0	0	0	520	610	
8	0	0	0	0	519	610	
9	0	0	0	0	518	611	
10	0	0	0	0	516	611	
11	0	0	0	0	515	611	
12	0	0	0	0	515	610	
13	0	0	0	0	514	611	
14	0	0	0	0	513	611	
15	0	0	0	0	513	611	
0	0	0	0	0	512	611	
1	0	0	0	0	512	610	
2	0	0	0	0	511	610	
3	0	0	0	0	511	610	
4	0	0	0	0	511	611	
5	0	0	0	0	511	611	
6	0	0	0	0	512	611	
7	0	0	0	0	513	611	
8	0	0	0	0	516	611	
9	0	0	0	0	518	611	
10	0	0	0	0	519	611	
11	0	0	0	0	519	610	
12	0	0	0	0	520	609	
13	0	0	0	0	520	611	
14	0	0	0	0	519	610	
15	0	0	0	0	518	610	
0	0	0	0	0	516	610	
1	0	0	0	0	514	610	
2	0	0	0	0	512	611	
3	0	0	0	0	511	610	
4	0	0	0	0	510	611	
5	0	0	0	0	509	611	
6	0	0	0	0	509	611	
7	0	0	0	0	510	611	
8	0	0	0	0	511	610	
9	0	0	0	0	513	609	
10	0	0	0	0	515	610	
11	0	0	0	0	518	610	
12	0	0	0	0	520	610	
13	0	0	0	0	523	610	
14	0	0	0	0	524	610	
15	0	0	0	0	526	611	
0	0	0	0	0	527	610	
1	0	0	0	0	527	610	
2	0	0	0	0	525	610	
3	0	0	0	0	523	610	
4	0	0	0	0	520	610	
5	0	0	0	0	518	610	
6	0	0	0	0	516	610	
7	0	0	0	0	515	610	
8	0	0	0	0	514	610	
9	0	0	0	0	513	610	
10	0	0	0	0	513	609	
11	0	0	0	0	513	610	
12	0	0	0	0	513	609	
13	0	0	0	0	513	611	
14	0	0	0	0	514	610	
15	0	0	0	0	515	610	
0	0	0	0	0	517	611	
1	0	0	0	0	517	611	
2	0	0	0	0	518	610	
3	0	0	0	0	517	610	
4	0	0	0	0	518	611	
5	0	0	0	0	518	611	
6	0	0	0	0	516	610	
7	0	0	0	0	515	610	
8	0	0	0	0	513	610	
9	0	0	0	0	513	610	
10	0	0	0	0	513	611	
11	0	0	0	0	513	610	
12	0	0	0	0	513	610	
13	0	0	0	0	513	611	
14	0	0	0	0	513	610	
15	0	0	0	0	514	611	
0	0	0	0	0	516	610	
1	0	0	0	0	516	611	
2	0	0	0	0	517	611	
3	0	0	0	0	518	611	
4	0	0	0	0	520	610	
5	0	0	0	0	522	611	
6	0	0	0	0	523	611	
7	0	0	0	0	524	611	
8	0	0	0	0	525	611	
9	0	0	0	0	526	610	
10	0	0	0	0	526	610	
11	0	0	0	0	524	611	
12	0	0	0	0	522	611	
13	0	0	0	0	519	611	
14	0	0	0	0	518	611	
15	0	0	0	0	516	611	
0	0	0	0	0	515	611	
1	0	0	0	0	515	611	
2	0	0	0	0	515	611	
3	0	0	0	0	517	611	
4	0	0	0	0	518	610	
5	0	0	0	0	520	611	
6	0	0	0	0	522	610	
7	0	0	0	0	523	610	
8	0	0	0	0	524	610	
9	0	0	0	0	525	609	
10	0	0	0	0	525	611	
11	0	0	0	0	524	611	
12	0	0	0	0	523	611	
13	0	0	0	0	521	612	
14	0	0	0	0	520	611	
15	0	0	0	0	518	611	
0	0	0	0	0	517	611	
1	0	0	0	0	515	611	
2	0	0	0	0	513	611	
3	0	0	0	0	512	611	
4	0	0	0	0	512	611	
5	0	0	0	0	512	611	
6	0	0	0	0	512	611	
7	0	0	0	0	513	611	
8	0	0	0	0	514	611	
9	0	0	0	0	516	611	
10	0	0	0	0	518	611	
11	0	0	0	0	518	610	
12	0	0	0	0	519	611	
13	0	0	0	0	520	610	
14	0	0	0	0	520	610	
15	0	0	0	0	520	610	
0	0	0	0	0	519	610	
1	0	0	0	0	518	610	
2	0	0	0	0	517	610	
3	0	0	0	0	515	611	
4	0	0	0	0	514	611	
5	0	0	0	0	513	611	
6	0	0	0	0	511	610	
7	0	0	0	0	510	610	
8	0	0	0	0	508	610	
9	0	0	0	0	507	610	
10	0	0	0	0	506	610	
11	0	0	0	0	505	610	
12	0	0	0	0	505	610	
13	0	0	0	0	506	610	
14	0	0	0	0	506	609	
15	0	0	0	0	504	609	
0	0	0	0	0	502	610	
1	0	0	0	0	499	610	
2	0	0	0	0	495	610	
3	0	0	0	0	491	610	
4	0	0	0	0	485	611	
5	0	0	0	0	479	611	
6	0	0	0	0	474	610	
7	0	0	0	0	469	610	
8	0	0	0	0	465	610	
9	0	0	0	0	464	610	
10	0	0	0	0	467	611	
11	0	0	0	0	472	610	
12	0	0	0	0	481	611	
13	0	0	0	0	491	610	
14	0	0	0	0	506	610	
15	0	0	0	0	524	610	
0	0	0	0	0	544	609	
1	0	0	0	0	565	610	
2	0	0	0	0	587	610	
3	0	0	0	0	608	610	
4	0	0	0	0	626	610	
5	0	0	0	0	643	610	
6	0	0	0	0	656	610	
7	0	0	0	0	664	610	
8	0	0	0	0	669	611	
9	0	0	0	0	671	610	
10	0	0	0	0	673	610	
11	0	0	0	0	675	610	
12	0	0	0	0	676	610	
13	0	0	0	0	679	611	
14	0	0	0	0	684	611	
15	0	0	0	0	690	611	
0	0	0	0	0	695	611	
1	0	0	0	0	697	610	
2	0	0	0	0	701	610	
3	0	0	0	0	712	610	
4	0	0	0	0	730	610	
5	0	0	0	0	750	611	
6	0	0	0	0	761	611	
7	0	0	0	0	764	611	
8	0	0	0	0	759	611	
9	0	0	0	0	747	611	
10	0	0	0	0	730	611	
11	0	0	0	0	708	611	
12	0	0	0	0	683	611	
13	0	0	0	0	656	611	
14	0	0	0	0	629	610	
15	0	0	0	0	603	611	
0	0	0	0	0	578	610	
1	0	0	0	0	555	610	
2	0	0	0	0	536	611	
3	0	0	0	0	520	610	
4	0	0	0	0	507	609	
5	0	0	0	0	497	610	
6	0	0	0	0	488	610	
7	0	0	0	0	481	610	
8	0	0	0	0	476	610	
9	0	0	0	0	472	611	
10	0	0	0	0	469	610	
11	0	0	0	0	468	610	
12	0	0	0	0	467	611	
13	0	0	0	0	467	610	
14	0	0	0	0	466	611	
15	0	0	0	0	465	611	
0	0	0	0	0	464	610	
1	0	0	0	0	462	610	
2	0	0	0	0	460	611	
3	0	0	0	0	458	610	
4	0	0	0	0	455	609	
5	0	0	0	0	454	611	
6	0	0	0	0	452	609	
7	0	0	0	0	452	610	
8	0	0	0	0	452	610	
9	0	0	0	0	452	609	
10	0	0	0	0	453	610	
11	0	0	0	0	454	610	
12	0	0	0	0	456	609	
13	0	0	0	0	458	610	
14	0	0	0	0	460	610	
15	0	0	0	0	462	610	
0	0	0	0	0	463	610	
1	0	0	0	0	465	610	
2	0	0	0	0	465	610	
3	0	0	0	0	465	610	
4	0	0	0	0	465	610	
5	0	0	0	0	464	611	
6	0	0	0	0	463	611	
7	0	0	0	0	463	611	
8	0	0	0	0	463	610	
9	0	0	0	0	463	610	
10	0	0	0	0	463	610	
11	0	0	0	0	463	610	
12	0	0	0	0	463	610	
13	0	0	0	0	464	611	
14	0	0	0	0	466	610	
15	0	0	0	0	467	610	
0	0	0	0	0	469	610	
1	0	0	0	0	471	610	
2	0	0	0	0	472	610	
3	0	0	0	0	475	611	
4	0	0	0	0	476	610	
5	0	0	0	0	478	611	
6	0	0	0	0	478	609	
7	0	0	0	0	478	609	
8	0	0	0	0	478	610	
9	0	0	0	0	476	609	
10	0	0	0	0	475	610	
11	0	0	0	0	474	610	
12	0	0	0	0	472	609	
13	0	0	0	0	470	610	
14	0	0	0	0	470	610	
15	0	0	0	0	469	610	
0	0	0	0	0	469	610	
1	0	0	0	0	469	609	
2	0	0	0	0	470	610	
3	0	0	0	0	470	611	
4	0	0	0	0	471	611	
5	0	0	0	0	472	611	
6	0	0	0	0	472	610	
7	0	0	0	0	473	610	
8	0	0	0	0	474	611	
9	0	0	0	0	476	610	
10	0	0	0	0	477	611	
11	0	0	0	0	478	611	
12	0	0	0	0	476	610	
13	0	0	0	0	474	611	
14	0	0	0	0	473	611	
15	0	0	0	0	472	611	
0	0	0	0	0	472	611	
1	0	0	0	0	471	611	
2	0	0	0	0	471	611	
3	0	0	0	0	470	611	
4	0	0	0	0	469	611	
5	0	0	0	0	470	612	
6	0	0	0	0	470	611	
7	0	0	0	0	472	612	
8	0	0	0	0	472	611	
9	0	0	0	0	473	611	
10	0	0	0	0	475	611	
11	0	0	0	0	477	611	
12	0	0	0	0	479	611	
13	0	0	0	0	480	611	
14	0	0	0	0	481	611	
15	0	0	0	0	481	610	
0	0	0	0	0	481	610	
1	0	0	0	0	480	611	
2	0	0	0	0	479	611	
3	0	0	0	0	477	611	
4	0	0	0	0	476	610	
5	0	0	0	0	474	611	
6	0	0	0	0	472	611	
7	0	0	0	0	472	610	
8	0	0	0	0	471	610	
9	0	0	0	0	472	610	
10	0	0	0	0	472	610	
11	0	0	0	0	473	611	
12	0	0	0	0	474	610	
13	0	0	0	0	475	610	
14	0	0	0	0	476	609	
15	0	0	0	0	478	610	
0	0	0	0	0	480	610	
1	0	0	0	0	481	610	
2	0	0	0	0	482	610	
3	0	0	0	0	482	610	
4	0	0	0	0	481	610	
5	0	0	0	0	480	611	
6	0	0	0	0	479	610	
7	0	0	0	0	477	610	
8	0	0	0	0	475	610	
9	0	0	0	0	474	610	
10	0	0	0	0	474	610	
11	0	0	0	0	473	610	
12	0	0	0	0	473	611	
13	0	0	0	0	472	610	
14	0	0	0	0	472	609	
15	0	0	0	0	473	610	
0	0	0	0	0	473	610	
1	0	0	0	0	473	610	
2	0	0	0	0	475	610	
3	0	0	0	0	476	610	
4	0	0	0	0	478	610	
5	0	0	0	0	479	610	
6	0	0	0	0	480	610	
7	0	0	0	0	481	609	
8	0	0	0	0	483	610	
9	0	0	0	0	482	610	
10	0	0	0	0	481	610	
11	0	0	0	0	481	610	
12	0	0	0	0	479	610	
13	0	0	0	0	477	610	
14	0	0	0	0	475	610	
15	0	0	0	0	474	610	
0	0	0	0	0	473	610	
1	0	0	0	0	473	610	
2	0	0	0	0	473	610	
3	0	0	0	0	473	610	
4	0	0	0	0	473	609	
5	0	0	0	0	473	611	
6	0	0	0	0	474	610	
7	0	0	0	0	475	610	
8	0	0	0	0	476	611	
9	0	0	0	0	476	610	
10	0	0	0	0	476	611	
11	0	0	0	0	476	611	
12	0	0	0	0	477	611	
13	0	0	0	0	477	612	
14	0	0	0	0	476	611	
15	0	0	0	0	476	611	
0	0	0	0	0	475	611	
1	0	0	0	0	475	611	
2	0	0	0	0	475	611	
3	0	0	0	0	474	611	
4	0	0	0	0	474	611	
5	0	0	0	0	475	612	
6	0	0	0	0	475	611	
7	0	0	0	0	476	611	
8	0	0	0	0	477	611	
9	0	0	0	0	479	612	
10	0	0	0	0	480	611	
11	0	0	0	0	483	611	
12	0	0	0	0	485	611	
13	0	0	0	0	487	611	
14	0	0	0	0	487	611	
15	0	0	0	0	487	611	
0	0	0	0	0	488	611	
1	0	0	0	0	487	611	
2	0	0	0	0	486	610	
3	0	0	0	0	484	610	
4	0	0	0	0	483	611	
5	0	0	0	0	482	611	
6	0	0	0	0	480	611	
7	0	0	0	0	480	610	
8	0	0	0	0	479	611	
9	0	0	0	0	478	610	
10	0	0	0	0	478	611	
11	0	0	0	0	479	610	
12	0	0	0	0	480	611	
13	0	0	0	0	481	612	
14	0	0	0	0	482	611	
15	0	0	0	0	484	611	
0	0	0	0	0	486	611	
1	0	0	0	0	487	611	
2	0	0	0	0	488	611	
3	0	0	0	0	489	611	
4	0	0	0	0	490	610	
5	0	0	0	0	490	611	
6	0	0	0	0	489	610	
7	0	0	0	0	488	610	
8	0	0	0	0	487	610	
9	0	0	0	0	486	609	
10	0	0	0	0	485	610	
11	0	0	0	0	484	609	
12	0	0	0	0	484	610	
13	0	0	0	0	484	610	
14	0	0	0	0	485	609	
15	0	0	0	0	485	609	
0	0	0	0	0	486	609	
1	0	0	0	0	486	609	
2	0	0	0	0	488	609	
3	0	0	0	0	490	609	
4	0	0	0	0	492	609	
5	0	0	0	0	493	609	
6	0	0	0	0	495	609	
7	0	0	0	0	496	609	
8	0	0	0	0	496	609	
9	0	0	0	0	496	610	
10	0	0	0	0	496	609	
11	0	0	0	0	495	609	
12	0	0	0	0	494	609	
13	0	0	0	0	493	610	
14	0	0	0	0	492	609	
15	0	0	0	0	493	609	
0	0	0	0	0	493	609	
1	0	0	0	0	493	609	
2	0	0	0	0	494	609	
3	0	0	0	0	496	609	
4	0	0	0	0	497	609	
5	0	0	0	0	499	610	
6	0	0	0	0	502	609	
7	0	0	0	0	504	610	
8	0	0	0	0	506	611	
9	0	0	0	0	509	610	
10	0	0	0	0	511	611	
11	0	0	0	0	511	610	
12	0	0	0	0	512	610	
13	0	0	0	0	511	611	
14	0	0	0	0	510	610	
15	0	0	0	0	509	611	
0	0	0	0	0	508	611	
1	0	0	0	0	508	611	
2	0	0	0	0	508	611	
3	0	0	0	0	508	611	
4	0	0	0	0	509	611	
5	0	0	0	0	510	612	
6	0	0	0	0	511	611	
7	0	0	0	0	512	611	
8	0	0	0	0	514	611	
9	0	0	0	0	516	611	
10	0	0	0	0	518	611	
11	0	0	0	0	519	611	
12	0	0	0	0	521	611	
13	0	0	0	0	523	611	
14	0	0	0	0	524	611	
15	0	0	0	0	524	611	
0	0	0	0	0	525	611	
1	0	0	0	0	523	611	
2	0	0	0	0	522	611	
3	0	0	0	0	520	612	
4	0	0	0	0	519	611	
5	0	0	0	0	518	612	
6	0	0	0	0	517	611	
7	0	0	0	0	515	611	
8	0	0	0	0	515	611	
9	0	0	0	0	515	611	
10	0	0	0	0	516	611	
11	0	0	0	0	517	611	
12	0	0	0	0	518	611	
13	0	0	0	0	518	612	
14	0	0	0	0	519	611	
15	0	0	0	0	520	611	
0	0	0	0	0	523	611	
1	0	0	0	0	524	611	
2	0	0	0	0	524	611	
3	0	0	0	0	525	611	
4	0	0	0	0	526	611	
5	0	0	0	0	526	611	
6	0	0	0	0	525	611	
7	0	0	0	0	523	611	
8	0	0	0	0	522	610	
9	0	0	0	0	522	610	
10	0	0	0	0	521	610	
11	0	0	0	0	520	610	
12	0	0	0	0	520	611	
13	0	0	0	0	520	610	
14	0	0	0	0	520	610	
15	0	0	0	0	520	610	
0	0	0	0	0	521	610	
1	0	0	0	0	522	610	
2	0	0	0	0	522	610	
3	0	0	0	0	523	610	
4	0	0	0	0	525	610	
5	0	0	0	0	527	610	
6	0	0	0	0	528	610	
7	0	0	0	0	529	610	
8	0	0	0	0	530	610	
9	0	0	0	0	529	610	
10	0	0	0	0	529	610	
11	0	0	0	0	528	611	
12	0	0	0	0	527	609	
13	0	0	0	0	526	610	
14	0	0	0	0	526	609	
15	0	0	0	0	525	610	
0	0	0	0	0	525	610	
1	0	0	0	0	526	610	
2	0	0	0	0	526	610	
3	0	0	0	0	527	609	
4	0	0	0	0	528	609	
5	0	0	0	0	529	610	
6	0	0	0	0	530	610	
7	0	0	0	0	531	609	
8	0	0	0	0	531	610	
9	0	0	0	0	531	609	
10	0	0	0	0	531	609	
11	0	0	0	0	531	609	
12	0	0	0	0	530	609	
13	0	0	0	0	529	610	
14	0	0	0	0	527	609	
15	0	0	0	0	525	609	
0	0	0	0	0	523	610	
1	0	0	0	0	521	610	
2	0	0	0	0	520	610	
3	0	0	0	0	519	610	
4	0	0	0	0	518	609	
5	0	0	0	0	518	610	
6	0	0	0	0	518	609	
7	0	0	0	0	518	610	
8	0	0	0	0	518	610	
9	0	0	0	0	519	610	
10	0	0	0	0	520	610	
11	0	0	0	0	521	610	
12	0	0	0	0	523	610	
13	0	0	0	0	524	611	
14	0	0	0	0	525	610	
15	0	0	0	0	526	610	
0	0	0	0	0	526	610	
1	0	0	0	0	525	611	
2	0	0	0	0	523	611	
3	0	0	0	0	520	611	
4	0	0	0	0	518	611	
5	0	0	0	0	516	611	
6	0	0	0	0	515	610	
7	0	0	0	0	513	611	
8	0	0	0	0	513	611	
9	0	0	0	0	512	611	
10	0	0	0	0	513	610	
11	0	0	0	0	513	611	
12	0	0	0	0	515	611	
13	0	0	0	0	515	611	
14	0	0	0	0	517	611	
15	0	0	0	0	519	611	
0	0	0	0	0	522	610	
1	0	0	0	0	524	610	
2	0	0	0	0	526	611	
3	0	0	0	0	527	610	
4	0	0	0	0	528	611	
5	0	0	0	0	527	611	
6	0	0	0	0	527	611	
7	0	0	0	0	526	611	
8	0	0	0	0	524	611	
9	0	0	0	0	523	611	
10	0	0	0	0	522	611	
11	0	0	0	0	521	611	
12	0	0	0	0	520	611	
13	0	0	0	0	520	611	
14	0	0	0	0	521	611	
15	0	0	0	0	521	611	
0	0	0	0	0	523	610	
1	0	0	0	0	523	611	
2	0	0	0	0	523	611	
3	0	0	0	0	526	611	
4	0	0	0	0	527	610	
5	0	0	0	0	528	611	
6	0	0	0	0	528	611	
7	0	0	0	0	528	611	
8	0	0	0	0	528	611	
9	0	0	0	0	527	610	
10	0	0	0	0	527	610	
11	0	0	0	0	525	610	
12	0	0	0	0	524	610	
13	0	0	0	0	523	611	
14	0	0	0	0	522	610	
15	0	0	0	0	521	611	
0	0	0	0	0	521	611	
1	0	0	0	0	520	611	
2	0	0	0	0	521	611	
3	0	0	0	0	521	610	
4	0	0	0	0	522	611	
5	0	0	0	0	523	610	
6	0	0	0	0	524	611	
7	0	0	0	0	524	611	
8	0	0	0	0	526	610	
9	0	0	0	0	527	610	
10	0	0	0	0	527	611	
11	0	0	0	0	526	609	
12	0	0	0	0	526	611	
13	0	0	0	0	524	611	
14	0	0	0	0	522	611	
15	0	0	0	0	520	611	
0	0	0	0	0	519	611	
1	0	0	0	0	517	610	
2	0	0	0	0	515	610	
3	0	0	0	0	515	610	
4	0	0	0	0	514	611	
5	0	0	0	0	514	611	
6	0	0	0	0	515	611	
7	0	0	0	0	514	610	
8	0	0	0	0	514	610	
9	0	0	0	0	515	610	
10	0	0	0	0	516	610	
11	0	0	0	0	517	610	
12	0	0	0	0	518	610	
13	0	0	0	0	519	611	
14	0	0	0	0	520	610	
15	0	0	0	0	520	610	
0	0	0	0	0	520	610	
1	0	0	0	0	519	610	
2	0	0	0	0	519	611	
3	0	0	0	0	517	610	
4	0	0	0	0	516	611	
5	0	0	0	0	515	611	
6	0	0	0	0	514	611	
7	0	0	0	0	514	610	
8	0	0	0	0	513	611	
9	0	0	0	0	514	610	
10	0	0	0	0	515	610	
11	0	0	0	0	515	610	
12	0	0	0	0	515	610	
13	0	0	0	0	516	611	
14	0	0	0	0	516	610	
15	0	0	0	0	517	609	
0	0	0	0	0	518	610	
1	0	0	0	0	519	610	
2	0	0	0	0	520	611	
3	0	0	0	0	520	610	
4	0	0	0	0	521	610	
5	0	0	0	0	520	610	
6	0	0	0	0	520	610	
7	0	0	0	0	519	610	
8	0	0	0	0	518	609	
9	0	0	0	0	517	609	
10	0	0	0	0	516	610	
11	0	0	0	0	517	610	
12	0	0	0	0	517	610	
13	0	0	0	0	518	609	
14	0	0	0	0	519	609	
15	0	0	0	0	520	609	
0	0	0	0	0	523	609	
1	0	0	0	0	524	609	
2	0	0	0	0	525	609	
3	0	0	0	0	526	608	
4	0	0	0	0	527	609	
5	0	0	0	0	528	610	
6	0	0	0	0	529	609	
7	0	0	0	0	528	609	
8	0	0	0	0	527	610	
9	0	0	0	0	526	610	
10	0	0	0	0	525	609	
11	0	0	0	0	524	610	
12	0	0	0	0	522	609	
13	0	0	0	0	520	610	
14	0	0	0	0	519	609	
15	0	0	0	0	518	609	
0	0	0	0	0	518	609	
1	0	0	0	0	518	609	
2	0	0	0	0	518	609	
3	0	0	0	0	519	610	
4	0	0	0	0	519	610	
5	0	0	0	0	521	611	
6	0	0	0	0	523	610	
7	0	0	0	0	526	610	
8	0	0	0	0	527	610	
9	0	0	0	0	529	609	
10	0	0	0	0	529	610	
11	0	0	0	0	530	610	
12	0	0	0	0	530	611	
13	0	0	0	0	530	611	
14	0	0	0	0	528	611	
15	0	0	0	0	525	611	
0	0	0	0	0	522	611	
1	0	0	0	0	520	611	
2	0	0	0	0	519	611	
3	0	0	0	0	517	610	
4	0	0	0	0	515	611	
5	0	0	0	0	514	611	
6	0	0	0	0	514	611	
7	0	0	0	0	515	611	
8	0	0	0	0	516	610	
9	0	0	0	0	517	611	
10	0	0	0	0	519	611	
11	0	0	0	0	521	611	
12	0	0	0	0	523	611	
13	0	0	0	0	526	612	
14	0	0	0	0	527	611	
15	0	0	0	0	527	611	
0	0	0	0	0	527	611	
1	0	0	0	0	526	611	
2	0	0	0	0	524	611	
3	0	0	0	0	523	611	
4	0	0	0	0	522	611	
5	0	0	0	0	521	611	
6	0	0	0	0	519	611	
7	0	0	0	0	518	611	
8	0	0	0	0	516	611	
9	0	0	0	0	516	611	
10	0	0	0	0	515	612	
11	0	0	0	0	516	611	
12	0	0	0	0	518	611	
13	0	0	0	0	519	612	
14	0	0	0	0	521	611	
15	0	0	0	0	524	611	
0	0	0	0	0	526	610	
1	0	0	0	0	528	611	
2	0	0	0	0	529	611	
3	0	0	0	0	529	611	
4	0	0	0	0	529	611	
5	0	0	0	0	528	611	
6	0	0	0	0	526	611	
7	0	0	0	0	525	611	
8	0	0	0	0	524	610	
9	0	0	0	0	521	610	
10	0	0	0	0	520	611	
11	0	0	0	0	519	610	
12	0	0	0	0	518	610	
13	0	0	0	0	518	611	
14	0	0	0	0	518	611	
15	0	0	0	0	519	611	
0	0	0	0	0	519	611	
1	0	0	0	0	520	610	
2	0	0	0	0	522	610	
3	0	0	0	0	524	610	
4	0	0	0	0	526	610	
5	0	0	0	0	527	610	
6	0	0	0	0	527	611	
7	0	0	0	0	527	611	
8	0	0	0	0	528	610	
9	0	0	0	0	528	610	
10	0	0	0	0	527	610	
11	0	0	0	0	526	611	
12	0	0	0	0	526	610	
13	0	0	0	0	525	611	
14	0	0	0	0	524	610	
15	0	0	0	0	524	610	
0	0	0	0	0	524	611	
1	0	0	0	0	523	610	
2	0	0	0	0	523	610	
3	0	0	0	0	524	610	
4	0	0	0	0	524	610	
5	0	0	0	0	526	611	
6	0	0	0	0	527	610	
7	0	0	0	0	528	610	
8	0	0	0	0	531	610	
9	0	0	0	0	532	610	
10	0	0	0	0	533	611	
11	0	0	0	0	533	611	
12	0	0	0	0	533	611	
13	0	0	0	0	533	611	
14	0	0	0	0	531	610	
15	0	0	0	0	529	610	
0	0	0	0	0	527	611	
1	0	0	0	0	526	610	
2	0	0	0	0	525	610	
3	0	0	0	0	524	610	
4	0	0	0	0	524	610	
5	0	0	0	0	524	611	
6	0	0	0	0	524	610	
7	0	0	0	0	523	610	
8	0	0	0	0	524	610	
9	0	0	0	0	524	610	
10	0	0	0	0	525	610	
11	0	0	0	0	527	610	
12	0	0	0	0	528	610	
13	0	0	0	0	529	610	
14	0	0	0	0	530	610	
15	0	0	0	0	531	610	
0	0	0	0	0	530	611	
1	0	0	0	0	528	610	
2	0	0	0	0	526	611	
3	0	0	0	0	524	611	
4	0	0	0	0	522	611	
5	0	0	0	0	520	611	
6	0	0	0	0	519	610	
7	0	0	0	0	519	610	
8	0	0	0	0	518	610	
9	0	0	0	0	518	610	
10	0	0	0	0	517	609	
11	0	0	0	0	517	610	
12	0	0	0	0	518	610	
13	0	0	0	0	519	610	
14	0	0	0	0	520	610	
15	0	0	0	0	522	610	
0	0	0	0	0	523	610	
1	0	0	0	0	524	609	
2	0	0	0	0	525	610	
3	0	0	0	0	525	610	
4	0	0	0	0	525	610	
5	0	0	0	0	524	610	
6	0	0	0	0	524	610	
7	0	0	0	0	522	610	
8	0	0	0	0	521	609	
9	0	0	0	0	520	610	
10	0	0	0	0	519	609	
11	0	0	0	0	518	609	
12	0	0	0	0	518	610	
13	0	0	0	0	517	610	
14	0	0	0	0	516	609	
15	0	0	0	0	517	609	
0	0	0	0	0	518	609	
1	0	0	0	0	518	609	
2	0	0	0	0	518	610	
3	0	0	0	0	518	610	
4	0	0	0	0	519	610	
5	0	0	0	0	519	611	
6	0	0	0	0	519	610	
7	0	0	0	0	519	610	
8	0	0	0	0	518	610	
9	0	0	0	0	516	610	
10	0	0	0	0	515	610	
11	0	0	0	0	513	611	
12	0	0	0	0	512	610	
13	0	0	0	0	512	611	
14	0	0	0	0	512	610	
15	0	0	0	0	511	610	
0	0	0	0	0	511	610	
1	0	0	0	0	511	610	
2	0	0	0	0	511	611	
3	0	0	0	0	511	610	
4	0	0	0	0	511	611	
5	0	0	0	0	511	611	
6	0	0	0	0	510	610	
7	0	0	0	0	511	610	
8	0	0	0	0	512	611	
9	0	0	0	0	513	611	
10	0	0	0	0	513	611	
11	0	0	0	0	513	611	
12	0	0	0	0	514	609	
13	0	0	0	0	514	611	
14	0	0	0	0	513	610	
15	0	0	0	0	512	611	
0	0	0	0	0	510	610	
1	0	0	0	0	509	611	
2	0	0	0	0	508	611	
3	0	0	0	0	508	611	
4	0	0	0	0	508	611	
5	0	0	0	0	508	611	
6	0	0	0	0	508	611	
7	0	0	0	0	508	610	
8	0	0	0	0	508	610	
9	0	0	0	0	509	610	
10	0	0	0	0	509	611	
11	0	0	0	0	510	610	
12	0	0	0	0	511	611	
13	0	0	0	0	512	612	
14	0	0	0	0	511	611	
15	0	0	0	0	510	611	
0	0	0	0	0	508	611	
1	0	0	0	0	506	611	
2	0	0	0	0	502	611	
3	0	0	0	0	497	611	
4	0	0	0	0	491	610	
5	0	0	0	0	484	611	
6	0	0	0	0	477	611	
7	0	0	0	0	470	611	
8	0	0	0	0	465	611	
9	0	0	0	0	460	611	
10	0	0	0	0	457	610	
11	0	0	0	0	454	611	
12	0	0	0	0	454	611	
13	0	0	0	0	458	611	
14	0	0	0	0	465	611	
15	0	0	0	0	475	610	
0	0	0	0	0	487	611	
1	0	0	0	0	504	611	
2	0	0	0	0	522	611	
3	0	0	0	0	542	610	
4	0	0	0	0	561	610	
5	0	0	0	0	582	612	
6	0	0	0	0	601	610	
7	0	0	0	0	618	611	
8	0	0	0	0	632	610	
9	0	0	0	0	644	610	
10	0	0	0	0	653	610	
11	0	0	0	0	658	609	
12	0	0	0	0	662	610	
13	0	0	0	0	665	611	
14	0	0	0	0	670	609	
15	0	0	0	0	673	610	
0	0	0	0	0	677	610	
1	0	0	0	0	682	610	
2	0	0	0	0	688	610	
3	0	0	0	0	695	610	
4	0	0	0	0	700	610	
5	0	0	0	0	703	610	
6	0	0	0	0	710	610	
7	0	0	0	0	724	610	
8	0	0	0	0	743	611	
9	0	0	0	0	756	610	
10	0	0	0	0	760	611	
11	0	0	0	0	754	610	
12	0	0	0	0	742	610	
13	0	0	0	0	724	611	
14	0	0	0	0	701	610	
15	0	0	0	0	675	610	
0	0	0	0	0	648	610	
1	0	0	0	0	622	610	
2	0	0	0	0	596	610	
3	0	0	0	0	572	610	
4	0	0	0	0	550	609	
5	0	0	0	0	530	609	
6	0	0	0	0	514	609	
7	0	0	0	0	500	610	
8	0	0	0	0	488	610	
9	0	0	0	0	479	610	
10	0	0	0	0	471	610	
11	0	0	0	0	463	610	
12	0	0	0	0	457	610	
13	0	0	0	0	451	610	
14	0	0	0	0	446	610	
15	0	0	0	0	441	610	
0	0	0	0	0	438	610	
1	0	0	0	0	434	609	
2	0	0	0	0	431	610	
3	0	0	0	0	430	610	
4	0	0	0	0	429	610	
5	0	0	0	0	429	610	
6	0	0	0	0	428	610	
7	0	0	0	0	427	610	
8	0	0	0	0	427	610	
9	0	0	0	0	428	610	
10	0	0	0	0	429	610	
11	0	0	0	0	431	610	
12	0	0	0	0	432	609	
13	0	0	0	0	433	610	
14	0	0	0	0	433	610	
15	0	0	0	0	433	610	
0	0	0	0	0	433	610	
1	0	0	0	0	433	610	
2	0	0	0	0	432	609	
3	0	0	0	0	431	610	
4	0	0	0	0	430	610	
5	0	0	0	0	429	611	
6	0	0	0	0	428	610	
7	0	0	0	0	427	610	
8	0	0	0	0	427	610	
9	0	0	0	0	428	610	
10	0	0	0	0	428	611	
11	0	0	0	0	429	610	
12	0	0	0	0	431	610	
13	0	0	0	0	432	611	
14	0	0	0	0	433	609	
15	0	0	0	0	435	610	
0	0	0	0	0	436	611	
1	0	0	0	0	438	610	
2	0	0	0	0	439	610	
3	0	0	0	0	439	611	
4	0	0	0	0	439	610	
5	0	0	0	0	438	611	
6	0	0	0	0	437	610	
7	0	0	0	0	436	610	
8	0	0	0	0	436	610	
9	0	0	0	0	437	610	
10	0	0	0	0	437	610	
11	0	0	0	0	438	609	
12	0	0	0	0	438	610	
13	0	0	0	0	438	610	
14	0	0	0	0	439	610	
15	0	0	0	0	440	610	
0	0	0	0	0	442	610	
1	0	0	0	0	444	611	
2	0	0	0	0	445	610	
3	0	0	0	0	447	610	
4	0	0	0	0	450	610	
5	0	0	0	0	452	611	
6	0	0	0	0	454	610	
7	0	0	0	0	455	610	
8	0	0	0	0	454	611	
9	0	0	0	0	454	611	
10	0	0	0	0	453	611	
11	0	0	0	0	453	611	
12	0	0	0	0	452	611	
13	0	0	0	0	452	611	
14	0	0	0	0	452	610	
15	0	0	0	0	453	610	
0	0	0	0	0	454	610	
1	0	0	0	0	455	610	
2	0	0	0	0	455	610	
3	0	0	0	0	457	610	
4	0	0	0	0	458	609	
5	0	0	0	0	460	611	
6	0	0	0	0	462	610	
7	0	0	0	0	465	610	
8	0	0	0	0	467	610	
9	0	0	0	0	468	610	
10	0	0	0	0	470	610	
11	0	0	0	0	472	610	
12	0	0	0	0	471	610	
13	0	0	0	0	471	611	
14	0	0	0	0	470	610	
15	0	0	0	0	468	611	
0	0	0	0	0	468	611	
1	0	0	0	0	467	610	
2	0	0	0	0	466	611	
3	0	0	0	0	465	611	
4	0	0	0	0	465	611	
5	0	0	0	0	465	612	
6	0	0	0	0	466	611	
7	0	0	0	0	467	612	
8	0	0	0	0	468	612	
9	0	0	0	0	470	611	
10	0	0	0	0	471	611	
11	0	0	0	0	473	611	
12	0	0	0	0	475	611	
13	0	0	0	0	477	611	
14	0	0	0	0	477	611	
15	0	0	0	0	477	611	
0	0	0	0	0	476	611	
1	0	0	0	0	475	610	
2	0	0	0	0	473	611	
3	0	0	0	0	472	610	
4	0	0	0	0	470	611	
5	0	0	0	0	468	611	
6	0	0	0	0	467	611	
7	0	0	0	0	466	610	
8	0	0	0	0	465	611	
9	0	0	0	0	465	610	
10	0	0	0	0	465	610	
11	0	0	0	0	465	610	
12	0	0	0	0	465	610	
13	0	0	0	0	467	611	
14	0	0	0	0	467	611	
15	0	0	0	0	469	610	
0	0	0	0	0	471	611	
1	0	0	0	0	472	610	
2	0	0	0	0	473	611	
3	0	0	0	0	473	610	
4	0	0	0	0	473	610	
5	0	0	0	0	473	611	
6	0	0	0	0	472	611	
7	0	0	0	0	471	611	
8	0	0	0	0	469	610	
9	0	0	0	0	468	610	
10	0	0	0	0	467	610	
11	0	0	0	0	466	610	
12	0	0	0	0	465	611	
13	0	0	0	0	465	611	
14	0	0	0	0	466	610	
15	0	0	0	0	467	611	
0	0	0	0	0	468	610	
1	0	0	0	0	471	611	
2	0	0	0	0	473	611	
3	0	0	0	0	475	611	
4	0	0	0	0	477	611	
5	0	0	0	0	479	611	
6	0	0	0	0	480	611	
7	0	0	0	0	481	611	
8	0	0	0	0	481	611	
9	0	0	0	0	480	611	
10	0	0	0	0	479	611	
11	0	0	0	0	477	611	
12	0	0	0	0	475	611	
13	0	0	0	0	473	611	
14	0	0	0	0	472	611	
15	0	0	0	0	471	611	
0	0	0	0	0	471	611	
1	0	0	0	0	471	612	
2	0	0	0	0	472	611	
3	0	0	0	0	473	611	
4	0	0	0	0	475	612	
5	0	0	0	0	476	613	
6	0	0	0	0	478	612	
7	0	0	0	0	480	612	
8	0	0	0	0	481	612	
9	0	0	0	0	482	611	
10	0	0	0	0	483	611	
11	0	0	0	0	484	611	
12	0	0	0	0	484	611	
13	0	0	0	0	481	611	
14	0	0	0	0	479	611	
15	0	0	0	0	476	611	
0	0	0	0	0	474	611	
1	0	0	0	0	472	611	
2	0	0	0	0	470	611	
3	0	0	0	0	469	611	
4	0	0	0	0	468	611	
5	0	0	0	0	467	612	
6	0	0	0	0	467	611	
7	0	0	0	0	467	611	
8	0	0	0	0	468	611	
9	0	0	0	0	468	611	
10	0	0	0	0	467	611	
11	0	0	0	0	467	611	
12	0	0	0	0	468	611	
13	0	0	0	0	468	611	
14	0	0	0	0	468	610	
15	0	0	0	0	468	610	
0	0	0	0	0	469	609	
1	0	0	0	0	467	610	
2	0	0	0	0	466	609	
3	0	0	0	0	465	610	
4	0	0	0	0	463	610	
5	0	0	0	0	463	610	
6	0	0	0	0	462	609	
7	0	0	0	0	462	609	
8	0	0	0	0	462	609	
9	0	0	0	0	463	609	
10	0	0	0	0	464	608	
11	0	0	0	0	465	609	
12	0	0	0	0	467	608	
13	0	0	0	0	469	609	
14	0	0	0	0	471	608	
15	0	0	0	0	472	609	
0	0	0	0	0	474	608	
1	0	0	0	0	475	608	
2	0	0	0	0	475	609	
3	0	0	0	0	476	609	
4	0	0	0	0	476	608	
5	0	0	0	0	475	609	
6	0	0	0	0	474	608	
7	0	0	0	0	473	608	
8	0	0	0	0	472	609	
9	0	0	0	0	472	609	
10	0	0	0	0	472	608	
11	0	0	0	0	472	609	
12	0	0	0	0	473	609	
13	0	0	0	0	475	608	
14	0	0	0	0	476	608	
15	0	0	0	0	478	609	
0	0	0	0	0	480	609	
1	0	0	0	0	481	609	
2	0	0	0	0	484	609	
3	0	0	0	0	486	609	
4	0	0	0	0	488	609	
5	0	0	0	0	490	609	
6	0	0	0	0	491	609	
7	0	0	0	0	494	609	
8	0	0	0	0	494	608	
9	0	0	0	0	494	609	
10	0	0	0	0	494	609	
11	0	0	0	0	493	609	
12	0	0	0	0	492	609	
13	0	0	0	0	492	610	
14	0	0	0	0	492	609	
15	0	0	0	0	492	609	
0	0	0	0	0	491	610	
1	0	0	0	0	491	610	
2	0	0	0	0	491	610	
3	0	0	0	0	492	610	
4	0	0	0	0	493	610	
5	0	0	0	0	494	610	
6	0	0	0	0	497	610	
7	0	0	0	0	499	610	
8	0	0	0	0	502	610	
9	0	0	0	0	503	610	
10	0	0	0	0	504	610	
11	0	0	0	0	505	610	
12	0	0	0	0	505	610	
13	0	0	0	0	505	610	
14	0	0	0	0	504	610	
15	0	0	0	0	503	610	
0	0	0	0	0	501	610	
1	0	0	0	0	499	611	
2	0	0	0	0	499	610	
3	0	0	0	0	498	610	
4	0	0	0	0	498	611	
5	0	0	0	0	498	611	
6	0	0	0	0	498	610	
7	0	0	0	0	499	611	
8	0	0	0	0	500	610	
9	0	0	0	0	501	611	
10	0	0	0	0	503	610	
11	0	0	0	0	505	611	
12	0	0	0	0	506	610	
13	0	0	0	0	507	611	
14	0	0	0	0	507	611	
15	0	0	0	0	507	611	
0	0	0	0	0	507	611	
1	0	0	0	0	505	609	
2	0	0	0	0	503	610	
3	0	0	0	0	502	611	
