# OpenSignals Text File Format
# {"98:D3:C1:FD:2F:E5":{"sensor":["RAW","RAW"],"device name":"98:D3:C1:FD:2F:E5","column":["nSeq","I1","I2","O1","O2","A2","A5"],"sync interval":2,"time":"16:36:31","comments":"","device connection":"BTH98:D3:C1:FD:2F:E5","channels":[2,5],"date":"2021-09-26","mode":0,"digital IO":[0,0,1,1],"firmware version":0,"device":"bitalino_rev","position":0,"sampling rate":1000,"label":["A2","A5"],"resolution":[10,10],"special":[{},{}]}}
# EndOfHeader
0	0	0	0	0	444	615
1	0	0	0	0	446	615
2	0	0	0	0	447	619
3	0	0	0	0	449	615
4	0	0	0	0	450	616
5	0	0	0	0	453	616
6	0	0	0	0	454	614
7	0	0	0	0	454	615
8	0	0	0	0	453	616
9	0	0	0	0	453	615
10	0	0	0	0	451	618
11	0	0	0	0	450	616
12	0	0	0	0	448	616
13	0	0	0	0	447	615
14	0	0	0	0	446	614
15	0	0	0	0	446	616
0	0	0	0	0	446	615
1	0	0	0	0	447	615
2	0	0	0	0	447	618
3	0	0	0	0	448	616
4	0	0	0	0	449	616
5	0	0	0	0	450	615
6	0	0	0	0	451	615
7	0	0	0	0	454	616
8	0	0	0	0	455	616
9	0	0	0	0	457	616
10	0	0	0	0	458	618
11	0	0	0	0	459	616
12	0	0	0	0	459	616
13	0	0	0	0	458	616
14	0	0	0	0	457	615
15	0	0	0	0	455	616
0	0	0	0	0	454	616
1	0	0	0	0	452	616
2	0	0	0	0	451	619
3	0	0	0	0	450	617
4	0	0	0	0	451	617
5	0	0	0	0	452	617
6	0	0	0	0	454	615
7	0	0	0	0	455	616
8	0	0	0	0	456	617
9	0	0	0	0	458	616
10	0	0	0	0	460	619
11	0	0	0	0	462	616
12	0	0	0	0	464	616
13	0	0	0	0	467	616
14	0	0	0	0	467	615
15	0	0	0	0	467	616
0	0	0	0	0	467	616
1	0	0	0	0	467	616
2	0	0	0	0	466	617
3	0	0	0	0	465	616
4	0	0	0	0	463	616
5	0	0	0	0	462	615
6	0	0	0	0	461	615
7	0	0	0	0	462	616
8	0	0	0	0	462	615
9	0	0	0	0	462	615
10	0	0	0	0	463	618
11	0	0	0	0	464	615
12	0	0	0	0	466	616
13	0	0	0	0	468	615
14	0	0	0	0	470	614
15	0	0	0	0	473	615
0	0	0	0	0	475	615
1	0	0	0	0	477	616
2	0	0	0	0	479	618
3	0	0	0	0	480	617
4	0	0	0	0	480	617
5	0	0	0	0	480	616
6	0	0	0	0	479	615
7	0	0	0	0	478	615
8	0	0	0	0	476	615
9	0	0	0	0	476	614
10	0	0	0	0	475	616
11	0	0	0	0	476	615
12	0	0	0	0	476	617
13	0	0	0	0	478	617
14	0	0	0	0	480	617
15	0	0	0	0	480	618
0	0	0	0	0	483	616
1	0	0	0	0	486	616
2	0	0	0	0	489	617
3	0	0	0	0	492	615
4	0	0	0	0	494	614
5	0	0	0	0	496	615
6	0	0	0	0	498	613
7	0	0	0	0	499	616
8	0	0	0	0	499	617
9	0	0	0	0	499	617
10	0	0	0	0	498	619
11	0	0	0	0	497	616
12	0	0	0	0	496	615
13	0	0	0	0	494	615
14	0	0	0	0	495	614
15	0	0	0	0	495	615
0	0	0	0	0	495	616
1	0	0	0	0	496	617
2	0	0	0	0	498	619
3	0	0	0	0	499	617
4	0	0	0	0	502	617
5	0	0	0	0	504	617
6	0	0	0	0	506	615
7	0	0	0	0	508	615
8	0	0	0	0	511	615
9	0	0	0	0	512	615
10	0	0	0	0	514	617
11	0	0	0	0	515	615
12	0	0	0	0	515	615
13	0	0	0	0	515	617
14	0	0	0	0	514	615
15	0	0	0	0	512	616
0	0	0	0	0	510	616
1	0	0	0	0	510	615
2	0	0	0	0	510	617
3	0	0	0	0	510	614
4	0	0	0	0	509	615
5	0	0	0	0	510	615
6	0	0	0	0	511	614
7	0	0	0	0	512	615
8	0	0	0	0	514	616
9	0	0	0	0	516	617
10	0	0	0	0	518	620
11	0	0	0	0	520	616
12	0	0	0	0	521	615
13	0	0	0	0	523	615
14	0	0	0	0	524	614
15	0	0	0	0	525	615
0	0	0	0	0	526	615
1	0	0	0	0	524	616
2	0	0	0	0	523	620
3	0	0	0	0	521	617
4	0	0	0	0	519	617
5	0	0	0	0	518	617
6	0	0	0	0	516	615
7	0	0	0	0	516	616
8	0	0	0	0	516	616
9	0	0	0	0	517	617
10	0	0	0	0	518	620
11	0	0	0	0	519	617
12	0	0	0	0	521	617
13	0	0	0	0	522	615
14	0	0	0	0	524	614
15	0	0	0	0	526	615
0	0	0	0	0	527	615
1	0	0	0	0	528	615
2	0	0	0	0	529	617
3	0	0	0	0	529	615
4	0	0	0	0	529	615
5	0	0	0	0	528	616
6	0	0	0	0	527	614
7	0	0	0	0	525	616
8	0	0	0	0	523	615
9	0	0	0	0	521	615
10	0	0	0	0	520	618
11	0	0	0	0	520	616
12	0	0	0	0	519	616
13	0	0	0	0	520	616
14	0	0	0	0	521	615
15	0	0	0	0	521	616
0	0	0	0	0	523	616
1	0	0	0	0	524	616
2	0	0	0	0	526	619
3	0	0	0	0	527	617
4	0	0	0	0	529	616
5	0	0	0	0	531	616
6	0	0	0	0	531	615
7	0	0	0	0	531	616
8	0	0	0	0	531	617
9	0	0	0	0	530	616
10	0	0	0	0	528	619
11	0	0	0	0	526	616
12	0	0	0	0	524	615
13	0	0	0	0	522	615
14	0	0	0	0	520	614
15	0	0	0	0	519	615
0	0	0	0	0	519	615
1	0	0	0	0	519	615
2	0	0	0	0	520	618
3	0	0	0	0	521	615
4	0	0	0	0	522	615
5	0	0	0	0	523	615
6	0	0	0	0	524	614
7	0	0	0	0	526	615
8	0	0	0	0	527	615
9	0	0	0	0	528	615
10	0	0	0	0	529	617
11	0	0	0	0	530	615
12	0	0	0	0	530	615
13	0	0	0	0	529	616
14	0	0	0	0	528	615
15	0	0	0	0	526	616
0	0	0	0	0	523	616
1	0	0	0	0	521	617
2	0	0	0	0	520	619
3	0	0	0	0	519	617
4	0	0	0	0	517	617
5	0	0	0	0	517	617
6	0	0	0	0	518	615
7	0	0	0	0	519	617
8	0	0	0	0	520	617
9	0	0	0	0	522	617
10	0	0	0	0	524	620
11	0	0	0	0	526	617
12	0	0	0	0	528	617
13	0	0	0	0	529	617
14	0	0	0	0	529	615
15	0	0	0	0	529	616
0	0	0	0	0	528	616
1	0	0	0	0	526	616
2	0	0	0	0	525	619
3	0	0	0	0	523	615
4	0	0	0	0	520	615
5	0	0	0	0	519	616
6	0	0	0	0	517	614
7	0	0	0	0	516	615
8	0	0	0	0	515	615
9	0	0	0	0	515	615
10	0	0	0	0	515	617
11	0	0	0	0	515	615
12	0	0	0	0	517	615
13	0	0	0	0	519	615
14	0	0	0	0	521	614
15	0	0	0	0	522	615
0	0	0	0	0	523	616
1	0	0	0	0	524	616
2	0	0	0	0	524	618
3	0	0	0	0	524	616
4	0	0	0	0	523	616
5	0	0	0	0	523	616
6	0	0	0	0	521	615
7	0	0	0	0	519	616
8	0	0	0	0	517	616
9	0	0	0	0	515	616
10	0	0	0	0	514	618
11	0	0	0	0	513	616
12	0	0	0	0	513	617
13	0	0	0	0	513	616
14	0	0	0	0	514	615
15	0	0	0	0	515	616
0	0	0	0	0	516	616
1	0	0	0	0	518	616
2	0	0	0	0	519	619
3	0	0	0	0	521	616
4	0	0	0	0	523	616
5	0	0	0	0	525	616
6	0	0	0	0	526	615
7	0	0	0	0	526	615
8	0	0	0	0	526	616
9	0	0	0	0	524	615
10	0	0	0	0	523	618
11	0	0	0	0	521	615
12	0	0	0	0	519	615
13	0	0	0	0	518	615
14	0	0	0	0	516	614
15	0	0	0	0	516	615
0	0	0	0	0	515	615
1	0	0	0	0	516	616
2	0	0	0	0	516	618
3	0	0	0	0	518	616
4	0	0	0	0	519	616
5	0	0	0	0	521	616
6	0	0	0	0	522	615
7	0	0	0	0	522	616
8	0	0	0	0	523	616
9	0	0	0	0	525	617
10	0	0	0	0	525	618
11	0	0	0	0	524	616
12	0	0	0	0	524	616
13	0	0	0	0	524	617
14	0	0	0	0	524	615
15	0	0	0	0	522	617
0	0	0	0	0	521	616
1	0	0	0	0	520	617
2	0	0	0	0	519	619
3	0	0	0	0	518	616
4	0	0	0	0	519	616
5	0	0	0	0	519	616
6	0	0	0	0	520	615
7	0	0	0	0	521	615
8	0	0	0	0	523	615
9	0	0	0	0	524	616
10	0	0	0	0	526	618
11	0	0	0	0	528	615
12	0	0	0	0	529	615
13	0	0	0	0	530	615
14	0	0	0	0	531	614
15	0	0	0	0	530	616
0	0	0	0	0	529	616
1	0	0	0	0	527	615
2	0	0	0	0	525	619
3	0	0	0	0	523	616
4	0	0	0	0	521	616
5	0	0	0	0	519	616
6	0	0	0	0	518	615
7	0	0	0	0	518	616
8	0	0	0	0	517	616
9	0	0	0	0	518	616
10	0	0	0	0	519	618
11	0	0	0	0	520	616
12	0	0	0	0	522	616
13	0	0	0	0	523	616
14	0	0	0	0	526	615
15	0	0	0	0	527	616
0	0	0	0	0	529	616
1	0	0	0	0	531	616
2	0	0	0	0	531	618
3	0	0	0	0	530	616
4	0	0	0	0	529	616
5	0	0	0	0	528	616
6	0	0	0	0	526	615
7	0	0	0	0	524	616
8	0	0	0	0	522	616
9	0	0	0	0	520	616
10	0	0	0	0	519	619
11	0	0	0	0	519	616
12	0	0	0	0	519	616
13	0	0	0	0	519	615
14	0	0	0	0	519	615
15	0	0	0	0	520	616
0	0	0	0	0	521	616
1	0	0	0	0	524	616
2	0	0	0	0	525	618
3	0	0	0	0	526	616
4	0	0	0	0	527	616
5	0	0	0	0	528	617
6	0	0	0	0	529	615
7	0	0	0	0	528	616
8	0	0	0	0	527	616
9	0	0	0	0	526	616
10	0	0	0	0	525	619
11	0	0	0	0	523	616
12	0	0	0	0	521	617
13	0	0	0	0	519	616
14	0	0	0	0	517	615
15	0	0	0	0	516	616
0	0	0	0	0	516	616
1	0	0	0	0	515	616
2	0	0	0	0	516	618
3	0	0	0	0	517	615
4	0	0	0	0	519	616
5	0	0	0	0	520	616
6	0	0	0	0	521	615
7	0	0	0	0	523	616
8	0	0	0	0	524	616
9	0	0	0	0	524	616
10	0	0	0	0	525	618
11	0	0	0	0	525	616
12	0	0	0	0	524	616
13	0	0	0	0	523	615
14	0	0	0	0	522	614
15	0	0	0	0	520	616
0	0	0	0	0	518	616
1	0	0	0	0	516	616
2	0	0	0	0	515	618
3	0	0	0	0	515	615
4	0	0	0	0	514	616
5	0	0	0	0	515	616
6	0	0	0	0	515	615
7	0	0	0	0	516	617
8	0	0	0	0	518	616
9	0	0	0	0	519	617
10	0	0	0	0	522	619
11	0	0	0	0	523	616
12	0	0	0	0	524	616
13	0	0	0	0	525	616
14	0	0	0	0	526	615
15	0	0	0	0	525	616
0	0	0	0	0	524	616
1	0	0	0	0	523	616
2	0	0	0	0	523	618
3	0	0	0	0	521	616
4	0	0	0	0	519	616
5	0	0	0	0	516	615
6	0	0	0	0	515	614
7	0	0	0	0	515	616
8	0	0	0	0	515	616
9	0	0	0	0	516	615
10	0	0	0	0	517	618
11	0	0	0	0	518	616
12	0	0	0	0	519	616
13	0	0	0	0	520	615
14	0	0	0	0	521	615
15	0	0	0	0	522	616
0	0	0	0	0	523	616
1	0	0	0	0	524	616
2	0	0	0	0	525	618
3	0	0	0	0	525	616
4	0	0	0	0	524	616
5	0	0	0	0	522	615
6	0	0	0	0	520	614
7	0	0	0	0	518	616
8	0	0	0	0	516	616
9	0	0	0	0	514	617
10	0	0	0	0	513	619
11	0	0	0	0	512	616
12	0	0	0	0	512	616
13	0	0	0	0	512	616
14	0	0	0	0	512	614
15	0	0	0	0	514	616
0	0	0	0	0	515	616
1	0	0	0	0	516	616
2	0	0	0	0	518	619
3	0	0	0	0	519	616
4	0	0	0	0	520	616
5	0	0	0	0	521	616
6	0	0	0	0	521	615
7	0	0	0	0	521	616
8	0	0	0	0	521	615
9	0	0	0	0	520	616
10	0	0	0	0	519	618
11	0	0	0	0	516	615
12	0	0	0	0	514	616
13	0	0	0	0	513	616
14	0	0	0	0	512	615
15	0	0	0	0	512	617
0	0	0	0	0	512	617
1	0	0	0	0	512	616
2	0	0	0	0	512	618
3	0	0	0	0	512	615
4	0	0	0	0	512	615
5	0	0	0	0	513	615
6	0	0	0	0	515	615
7	0	0	0	0	516	616
8	0	0	0	0	518	616
9	0	0	0	0	519	616
10	0	0	0	0	519	617
11	0	0	0	0	519	615
12	0	0	0	0	518	615
13	0	0	0	0	516	616
14	0	0	0	0	514	615
15	0	0	0	0	512	616
0	0	0	0	0	510	615
1	0	0	0	0	508	614
2	0	0	0	0	507	616
3	0	0	0	0	506	615
4	0	0	0	0	504	615
5	0	0	0	0	504	616
6	0	0	0	0	506	615
7	0	0	0	0	507	616
8	0	0	0	0	509	616
9	0	0	0	0	510	616
10	0	0	0	0	511	619
11	0	0	0	0	512	618
12	0	0	0	0	513	617
13	0	0	0	0	514	617
14	0	0	0	0	514	615
15	0	0	0	0	514	615
0	0	0	0	0	513	616
1	0	0	0	0	512	617
2	0	0	0	0	511	620
3	0	0	0	0	510	617
4	0	0	0	0	508	617
5	0	0	0	0	506	616
6	0	0	0	0	504	614
7	0	0	0	0	505	616
8	0	0	0	0	504	617
9	0	0	0	0	504	616
10	0	0	0	0	505	619
11	0	0	0	0	507	616
12	0	0	0	0	510	616
13	0	0	0	0	513	616
14	0	0	0	0	515	615
15	0	0	0	0	518	619
0	0	0	0	0	520	617
1	0	0	0	0	521	615
2	0	0	0	0	523	616
3	0	0	0	0	524	616
4	0	0	0	0	523	617
5	0	0	0	0	522	616
6	0	0	0	0	520	614
7	0	0	0	0	517	614
8	0	0	0	0	515	614
9	0	0	0	0	513	615
10	0	0	0	0	512	617
11	0	0	0	0	511	616
12	0	0	0	0	511	615
13	0	0	0	0	511	613
14	0	0	0	0	511	611
15	0	0	0	0	511	614
0	0	0	0	0	512	615
1	0	0	0	0	513	616
2	0	0	0	0	514	619
3	0	0	0	0	516	616
4	0	0	0	0	517	615
5	0	0	0	0	518	615
6	0	0	0	0	519	613
7	0	0	0	0	519	616
8	0	0	0	0	519	616
9	0	0	0	0	518	617
10	0	0	0	0	516	619
11	0	0	0	0	514	615
12	0	0	0	0	513	617
13	0	0	0	0	512	618
14	0	0	0	0	510	616
15	0	0	0	0	509	619
0	0	0	0	0	509	618
1	0	0	0	0	509	617
2	0	0	0	0	509	620
3	0	0	0	0	510	618
4	0	0	0	0	512	619
5	0	0	0	0	513	621
6	0	0	0	0	514	620
7	0	0	0	0	515	621
8	0	0	0	0	516	618
9	0	0	0	0	518	616
10	0	0	0	0	518	619
11	0	0	0	0	518	618
12	0	0	0	0	517	615
13	0	0	0	0	516	615
14	0	0	0	0	515	612
15	0	0	0	0	512	614
0	0	0	0	0	512	614
1	0	0	0	0	510	613
2	0	0	0	0	508	613
3	0	0	0	0	508	613
4	0	0	0	0	507	611
5	0	0	0	0	507	613
6	0	0	0	0	507	612
7	0	0	0	0	508	614
8	0	0	0	0	509	615
9	0	0	0	0	511	614
10	0	0	0	0	512	615
11	0	0	0	0	513	614
12	0	0	0	0	515	616
13	0	0	0	0	516	617
14	0	0	0	0	517	616
15	0	0	0	0	518	617
0	0	0	0	0	517	617
1	0	0	0	0	516	618
2	0	0	0	0	515	620
3	0	0	0	0	513	619
4	0	0	0	0	512	620
5	0	0	0	0	510	619
6	0	0	0	0	508	617
7	0	0	0	0	508	618
8	0	0	0	0	507	619
9	0	0	0	0	508	619
10	0	0	0	0	508	619
11	0	0	0	0	510	615
12	0	0	0	0	511	617
13	0	0	0	0	512	617
14	0	0	0	0	512	616
15	0	0	0	0	513	618
0	0	0	0	0	514	617
1	0	0	0	0	516	616
2	0	0	0	0	517	618
3	0	0	0	0	516	614
4	0	0	0	0	515	615
5	0	0	0	0	514	613
6	0	0	0	0	512	612
7	0	0	0	0	509	615
8	0	0	0	0	506	615
9	0	0	0	0	501	614
10	0	0	0	0	495	618
11	0	0	0	0	488	617
12	0	0	0	0	480	618
13	0	0	0	0	470	618
14	0	0	0	0	460	615
15	0	0	0	0	450	618
0	0	0	0	0	440	617
1	0	0	0	0	431	616
2	0	0	0	0	423	619
3	0	0	0	0	415	617
4	0	0	0	0	408	616
5	0	0	0	0	404	616
6	0	0	0	0	401	614
7	0	0	0	0	399	616
8	0	0	0	0	399	617
9	0	0	0	0	400	617
10	0	0	0	0	402	619
11	0	0	0	0	407	617
12	0	0	0	0	412	616
13	0	0	0	0	419	615
14	0	0	0	0	424	614
15	0	0	0	0	430	616
0	0	0	0	0	436	615
1	0	0	0	0	444	615
2	0	0	0	0	455	617
3	0	0	0	0	472	615
4	0	0	0	0	495	615
5	0	0	0	0	521	614
6	0	0	0	0	553	614
7	0	0	0	0	593	615
8	0	0	0	0	640	615
9	0	0	0	0	691	615
10	0	0	0	0	745	617
11	0	0	0	0	801	615
12	0	0	0	0	855	616
13	0	0	0	0	903	615
14	0	0	0	0	944	615
15	0	0	0	0	978	615
0	0	0	0	0	1006	616
1	0	0	0	0	1021	616
2	0	0	0	0	1022	619
3	0	0	0	0	1022	617
4	0	0	0	0	1022	617
5	0	0	0	0	1022	617
6	0	0	0	0	1022	615
7	0	0	0	0	1022	617
8	0	0	0	0	1017	616
9	0	0	0	0	993	616
10	0	0	0	0	968	618
11	0	0	0	0	937	616
12	0	0	0	0	902	616
13	0	0	0	0	865	616
14	0	0	0	0	827	615
15	0	0	0	0	793	616
0	0	0	0	0	762	616
1	0	0	0	0	734	616
2	0	0	0	0	708	618
3	0	0	0	0	683	616
4	0	0	0	0	660	615
5	0	0	0	0	639	615
6	0	0	0	0	621	614
7	0	0	0	0	605	616
8	0	0	0	0	590	616
9	0	0	0	0	575	616
10	0	0	0	0	562	619
11	0	0	0	0	549	616
12	0	0	0	0	535	616
13	0	0	0	0	522	616
14	0	0	0	0	509	614
15	0	0	0	0	496	616
0	0	0	0	0	484	616
1	0	0	0	0	474	616
2	0	0	0	0	464	618
3	0	0	0	0	455	616
4	0	0	0	0	445	617
5	0	0	0	0	435	616
6	0	0	0	0	427	615
7	0	0	0	0	418	616
8	0	0	0	0	410	616
9	0	0	0	0	404	616
10	0	0	0	0	399	618
11	0	0	0	0	395	616
12	0	0	0	0	390	615
13	0	0	0	0	387	616
14	0	0	0	0	385	615
15	0	0	0	0	384	615
0	0	0	0	0	384	616
1	0	0	0	0	384	616
2	0	0	0	0	384	618
3	0	0	0	0	385	615
4	0	0	0	0	385	615
5	0	0	0	0	386	615
6	0	0	0	0	387	613
7	0	0	0	0	387	615
8	0	0	0	0	387	615
9	0	0	0	0	386	615
10	0	0	0	0	385	617
11	0	0	0	0	383	615
12	0	0	0	0	382	616
13	0	0	0	0	381	616
14	0	0	0	0	379	615
15	0	0	0	0	379	616
0	0	0	0	0	380	615
1	0	0	0	0	381	615
2	0	0	0	0	382	618
3	0	0	0	0	384	615
4	0	0	0	0	385	616
5	0	0	0	0	387	616
6	0	0	0	0	389	615
7	0	0	0	0	391	617
8	0	0	0	0	394	616
9	0	0	0	0	396	616
10	0	0	0	0	398	619
11	0	0	0	0	399	616
12	0	0	0	0	399	616
13	0	0	0	0	399	616
14	0	0	0	0	400	615
15	0	0	0	0	399	616
0	0	0	0	0	398	616
1	0	0	0	0	396	616
2	0	0	0	0	396	618
3	0	0	0	0	396	616
4	0	0	0	0	397	616
5	0	0	0	0	397	616
6	0	0	0	0	399	614
7	0	0	0	0	401	615
8	0	0	0	0	403	615
9	0	0	0	0	406	615
10	0	0	0	0	408	618
11	0	0	0	0	412	616
12	0	0	0	0	414	615
13	0	0	0	0	415	616
14	0	0	0	0	417	615
15	0	0	0	0	418	616
0	0	0	0	0	419	616
1	0	0	0	0	418	615
2	0	0	0	0	418	618
3	0	0	0	0	417	616
4	0	0	0	0	416	616
5	0	0	0	0	415	616
6	0	0	0	0	414	615
7	0	0	0	0	414	616
8	0	0	0	0	414	616
9	0	0	0	0	415	616
10	0	0	0	0	416	618
11	0	0	0	0	418	617
12	0	0	0	0	419	616
13	0	0	0	0	422	616
14	0	0	0	0	424	615
15	0	0	0	0	425	616
0	0	0	0	0	428	616
1	0	0	0	0	430	616
2	0	0	0	0	431	619
3	0	0	0	0	431	615
4	0	0	0	0	432	616
5	0	0	0	0	432	615
6	0	0	0	0	432	615
7	0	0	0	0	431	616
8	0	0	0	0	430	616
9	0	0	0	0	428	615
10	0	0	0	0	426	618
11	0	0	0	0	426	616
12	0	0	0	0	426	615
13	0	0	0	0	427	616
14	0	0	0	0	428	614
15	0	0	0	0	429	616
0	0	0	0	0	430	616
1	0	0	0	0	432	616
2	0	0	0	0	434	618
3	0	0	0	0	436	616
4	0	0	0	0	438	616
5	0	0	0	0	439	616
6	0	0	0	0	440	615
7	0	0	0	0	441	616
8	0	0	0	0	442	616
9	0	0	0	0	441	616
10	0	0	0	0	441	618
11	0	0	0	0	439	616
12	0	0	0	0	438	616
13	0	0	0	0	437	616
14	0	0	0	0	435	615
15	0	0	0	0	435	617
0	0	0	0	0	435	616
1	0	0	0	0	436	616
2	0	0	0	0	437	619
3	0	0	0	0	438	616
4	0	0	0	0	439	616
5	0	0	0	0	441	616
6	0	0	0	0	443	615
7	0	0	0	0	444	616
8	0	0	0	0	446	616
9	0	0	0	0	447	616
10	0	0	0	0	448	618
11	0	0	0	0	449	616
12	0	0	0	0	449	616
13	0	0	0	0	449	616
14	0	0	0	0	448	615
15	0	0	0	0	446	616
0	0	0	0	0	445	616
1	0	0	0	0	443	616
2	0	0	0	0	442	619
3	0	0	0	0	442	616
4	0	0	0	0	442	616
5	0	0	0	0	443	616
6	0	0	0	0	444	614
7	0	0	0	0	444	616
8	0	0	0	0	445	615
9	0	0	0	0	447	616
10	0	0	0	0	449	619
11	0	0	0	0	451	616
12	0	0	0	0	452	616
13	0	0	0	0	454	616
14	0	0	0	0	455	614
15	0	0	0	0	455	615
0	0	0	0	0	456	616
1	0	0	0	0	455	615
2	0	0	0	0	455	618
3	0	0	0	0	454	616
4	0	0	0	0	453	616
5	0	0	0	0	452	616
6	0	0	0	0	451	615
7	0	0	0	0	451	617
8	0	0	0	0	451	616
9	0	0	0	0	451	616
10	0	0	0	0	453	618
11	0	0	0	0	455	616
12	0	0	0	0	456	616
13	0	0	0	0	459	615
14	0	0	0	0	461	614
15	0	0	0	0	463	616
0	0	0	0	0	465	616
1	0	0	0	0	467	616
2	0	0	0	0	469	618
3	0	0	0	0	469	616
4	0	0	0	0	470	616
5	0	0	0	0	469	615
6	0	0	0	0	469	615
7	0	0	0	0	468	616
8	0	0	0	0	467	616
9	0	0	0	0	466	616
10	0	0	0	0	466	619
11	0	0	0	0	467	616
12	0	0	0	0	467	616
13	0	0	0	0	469	615
14	0	0	0	0	471	614
15	0	0	0	0	473	615
0	0	0	0	0	476	616
1	0	0	0	0	479	616
2	0	0	0	0	482	618
3	0	0	0	0	486	616
4	0	0	0	0	488	616
5	0	0	0	0	490	616
6	0	0	0	0	492	614
7	0	0	0	0	493	616
8	0	0	0	0	494	616
9	0	0	0	0	494	615
10	0	0	0	0	494	618
11	0	0	0	0	494	616
12	0	0	0	0	493	616
13	0	0	0	0	492	616
14	0	0	0	0	492	615
15	0	0	0	0	491	616
0	0	0	0	0	491	615
1	0	0	0	0	492	615
2	0	0	0	0	494	618
3	0	0	0	0	496	616
4	0	0	0	0	498	616
5	0	0	0	0	501	616
6	0	0	0	0	503	614
7	0	0	0	0	505	616
8	0	0	0	0	507	616
9	0	0	0	0	509	616
10	0	0	0	0	511	618
11	0	0	0	0	512	616
12	0	0	0	0	512	616
13	0	0	0	0	512	615
14	0	0	0	0	512	615
15	0	0	0	0	511	616
0	0	0	0	0	511	616
1	0	0	0	0	510	616
2	0	0	0	0	510	619
3	0	0	0	0	510	616
4	0	0	0	0	510	617
5	0	0	0	0	511	616
6	0	0	0	0	512	615
7	0	0	0	0	513	616
8	0	0	0	0	515	615
9	0	0	0	0	516	616
10	0	0	0	0	519	618
11	0	0	0	0	521	616
12	0	0	0	0	523	616
13	0	0	0	0	525	617
14	0	0	0	0	526	615
15	0	0	0	0	527	616
0	0	0	0	0	526	616
1	0	0	0	0	526	616
2	0	0	0	0	525	619
3	0	0	0	0	523	616
4	0	0	0	0	521	616
5	0	0	0	0	520	616
6	0	0	0	0	519	615
7	0	0	0	0	519	616
8	0	0	0	0	519	616
9	0	0	0	0	519	616
10	0	0	0	0	520	618
11	0	0	0	0	521	616
12	0	0	0	0	522	616
13	0	0	0	0	524	616
14	0	0	0	0	526	614
15	0	0	0	0	527	616
0	0	0	0	0	529	616
1	0	0	0	0	531	616
2	0	0	0	0	532	618
3	0	0	0	0	532	615
4	0	0	0	0	531	616
5	0	0	0	0	530	616
6	0	0	0	0	529	614
7	0	0	0	0	528	615
8	0	0	0	0	527	616
9	0	0	0	0	526	615
10	0	0	0	0	524	618
11	0	0	0	0	524	616
12	0	0	0	0	524	616
13	0	0	0	0	524	616
14	0	0	0	0	525	615
15	0	0	0	0	527	616
0	0	0	0	0	529	616
1	0	0	0	0	531	616
2	0	0	0	0	532	618
3	0	0	0	0	535	616
4	0	0	0	0	535	616
5	0	0	0	0	536	616
6	0	0	0	0	537	615
7	0	0	0	0	538	617
8	0	0	0	0	538	616
9	0	0	0	0	537	616
10	0	0	0	0	536	619
11	0	0	0	0	534	617
12	0	0	0	0	532	616
13	0	0	0	0	529	616
14	0	0	0	0	527	615
15	0	0	0	0	527	616
0	0	0	0	0	526	616
1	0	0	0	0	525	615
2	0	0	0	0	526	618
3	0	0	0	0	527	616
4	0	0	0	0	528	616
5	0	0	0	0	530	616
6	0	0	0	0	531	615
7	0	0	0	0	532	616
8	0	0	0	0	534	616
9	0	0	0	0	535	616
10	0	0	0	0	535	618
11	0	0	0	0	535	616
12	0	0	0	0	534	616
13	0	0	0	0	533	615
14	0	0	0	0	531	614
15	0	0	0	0	529	616
0	0	0	0	0	527	615
1	0	0	0	0	526	615
2	0	0	0	0	524	618
3	0	0	0	0	523	615
4	0	0	0	0	522	615
5	0	0	0	0	523	616
6	0	0	0	0	522	615
7	0	0	0	0	523	616
8	0	0	0	0	523	616
9	0	0	0	0	524	616
10	0	0	0	0	525	619
11	0	0	0	0	526	616
12	0	0	0	0	527	616
13	0	0	0	0	528	616
14	0	0	0	0	528	615
15	0	0	0	0	529	616
0	0	0	0	0	528	616
1	0	0	0	0	527	616
2	0	0	0	0	526	619
3	0	0	0	0	524	616
4	0	0	0	0	521	616
5	0	0	0	0	519	616
6	0	0	0	0	518	615
7	0	0	0	0	518	616
8	0	0	0	0	516	616
9	0	0	0	0	516	616
10	0	0	0	0	516	618
11	0	0	0	0	516	616
12	0	0	0	0	518	617
13	0	0	0	0	519	616
14	0	0	0	0	520	615
15	0	0	0	0	522	616
0	0	0	0	0	524	616
1	0	0	0	0	526	615
2	0	0	0	0	527	619
3	0	0	0	0	527	616
4	0	0	0	0	525	616
5	0	0	0	0	525	616
6	0	0	0	0	524	614
7	0	0	0	0	522	616
8	0	0	0	0	520	616
9	0	0	0	0	519	615
10	0	0	0	0	518	618
11	0	0	0	0	517	616
12	0	0	0	0	517	616
13	0	0	0	0	516	615
14	0	0	0	0	518	614
15	0	0	0	0	518	616
0	0	0	0	0	519	616
1	0	0	0	0	521	615
2	0	0	0	0	523	618
3	0	0	0	0	523	615
4	0	0	0	0	525	615
5	0	0	0	0	526	616
6	0	0	0	0	526	615
7	0	0	0	0	527	616
8	0	0	0	0	526	615
9	0	0	0	0	526	615
10	0	0	0	0	525	619
11	0	0	0	0	523	615
12	0	0	0	0	520	615
13	0	0	0	0	519	616
14	0	0	0	0	518	615
15	0	0	0	0	517	616
0	0	0	0	0	517	616
1	0	0	0	0	517	616
2	0	0	0	0	518	619
3	0	0	0	0	518	616
4	0	0	0	0	520	616
5	0	0	0	0	522	616
6	0	0	0	0	523	615
7	0	0	0	0	524	616
8	0	0	0	0	525	616
9	0	0	0	0	526	615
10	0	0	0	0	527	618
11	0	0	0	0	528	616
12	0	0	0	0	527	615
13	0	0	0	0	527	616
14	0	0	0	0	526	615
15	0	0	0	0	524	616
0	0	0	0	0	523	616
1	0	0	0	0	521	616
2	0	0	0	0	520	619
3	0	0	0	0	519	616
4	0	0	0	0	519	616
5	0	0	0	0	518	616
6	0	0	0	0	519	614
7	0	0	0	0	520	616
8	0	0	0	0	521	615
9	0	0	0	0	523	616
10	0	0	0	0	524	618
11	0	0	0	0	526	616
12	0	0	0	0	527	616
13	0	0	0	0	528	616
14	0	0	0	0	528	615
15	0	0	0	0	528	617
0	0	0	0	0	528	616
1	0	0	0	0	527	615
2	0	0	0	0	527	619
3	0	0	0	0	524	616
4	0	0	0	0	523	615
5	0	0	0	0	521	615
6	0	0	0	0	519	615
7	0	0	0	0	518	617
8	0	0	0	0	517	616
9	0	0	0	0	517	616
10	0	0	0	0	518	619
11	0	0	0	0	519	616
12	0	0	0	0	520	616
13	0	0	0	0	522	615
14	0	0	0	0	523	615
15	0	0	0	0	525	615
0	0	0	0	0	527	616
1	0	0	0	0	528	616
2	0	0	0	0	528	619
3	0	0	0	0	529	616
4	0	0	0	0	528	616
5	0	0	0	0	528	616
6	0	0	0	0	527	615
7	0	0	0	0	525	615
8	0	0	0	0	523	616
9	0	0	0	0	520	615
10	0	0	0	0	519	618
11	0	0	0	0	518	616
12	0	0	0	0	517	616
13	0	0	0	0	517	616
14	0	0	0	0	517	615
15	0	0	0	0	518	616
0	0	0	0	0	519	616
1	0	0	0	0	520	616
2	0	0	0	0	522	619
3	0	0	0	0	523	616
4	0	0	0	0	525	616
5	0	0	0	0	526	616
6	0	0	0	0	527	615
7	0	0	0	0	527	616
8	0	0	0	0	526	616
9	0	0	0	0	524	615
10	0	0	0	0	523	618
11	0	0	0	0	521	616
12	0	0	0	0	520	616
13	0	0	0	0	518	616
14	0	0	0	0	517	615
15	0	0	0	0	516	616
0	0	0	0	0	515	615
1	0	0	0	0	515	615
2	0	0	0	0	515	619
3	0	0	0	0	516	615
4	0	0	0	0	517	616
5	0	0	0	0	519	615
6	0	0	0	0	521	614
7	0	0	0	0	523	616
8	0	0	0	0	525	616
9	0	0	0	0	526	616
10	0	0	0	0	526	618
11	0	0	0	0	526	615
12	0	0	0	0	525	615
13	0	0	0	0	524	615
14	0	0	0	0	523	615
15	0	0	0	0	521	616
0	0	0	0	0	519	616
1	0	0	0	0	518	615
2	0	0	0	0	515	618
3	0	0	0	0	514	616
4	0	0	0	0	513	616
5	0	0	0	0	513	615
6	0	0	0	0	513	614
7	0	0	0	0	514	616
8	0	0	0	0	515	616
9	0	0	0	0	517	616
10	0	0	0	0	518	619
11	0	0	0	0	520	616
12	0	0	0	0	521	616
13	0	0	0	0	523	616
14	0	0	0	0	524	615
15	0	0	0	0	524	616
0	0	0	0	0	523	616
1	0	0	0	0	522	616
2	0	0	0	0	521	618
3	0	0	0	0	520	616
4	0	0	0	0	519	616
5	0	0	0	0	517	616
6	0	0	0	0	515	615
7	0	0	0	0	515	616
8	0	0	0	0	514	616
9	0	0	0	0	514	616
10	0	0	0	0	514	618
11	0	0	0	0	514	615
12	0	0	0	0	515	616
13	0	0	0	0	515	616
14	0	0	0	0	517	615
15	0	0	0	0	519	616
0	0	0	0	0	520	616
1	0	0	0	0	521	616
2	0	0	0	0	521	618
3	0	0	0	0	521	616
4	0	0	0	0	521	616
5	0	0	0	0	519	616
6	0	0	0	0	519	615
7	0	0	0	0	518	617
8	0	0	0	0	516	617
9	0	0	0	0	514	616
10	0	0	0	0	512	617
11	0	0	0	0	512	616
12	0	0	0	0	512	616
13	0	0	0	0	512	616
14	0	0	0	0	512	614
15	0	0	0	0	513	616
0	0	0	0	0	514	616
1	0	0	0	0	516	616
2	0	0	0	0	518	619
3	0	0	0	0	519	616
4	0	0	0	0	520	616
5	0	0	0	0	521	617
6	0	0	0	0	522	615
7	0	0	0	0	522	616
8	0	0	0	0	521	616
9	0	0	0	0	520	616
10	0	0	0	0	519	619
11	0	0	0	0	517	616
12	0	0	0	0	515	616
13	0	0	0	0	513	616
14	0	0	0	0	511	615
15	0	0	0	0	511	616
0	0	0	0	0	510	616
1	0	0	0	0	509	616
2	0	0	0	0	510	618
3	0	0	0	0	511	617
4	0	0	0	0	511	616
5	0	0	0	0	512	615
6	0	0	0	0	513	615
7	0	0	0	0	515	616
8	0	0	0	0	515	616
9	0	0	0	0	516	617
10	0	0	0	0	518	619
11	0	0	0	0	518	616
12	0	0	0	0	518	616
13	0	0	0	0	517	616
14	0	0	0	0	516	615
15	0	0	0	0	513	615
0	0	0	0	0	512	616
1	0	0	0	0	510	616
2	0	0	0	0	508	619
3	0	0	0	0	507	616
4	0	0	0	0	507	616
5	0	0	0	0	507	616
6	0	0	0	0	507	615
7	0	0	0	0	507	616
8	0	0	0	0	508	616
9	0	0	0	0	509	616
10	0	0	0	0	510	619
11	0	0	0	0	512	616
12	0	0	0	0	512	616
13	0	0	0	0	513	616
14	0	0	0	0	513	615
15	0	0	0	0	512	616
0	0	0	0	0	511	616
1	0	0	0	0	510	616
2	0	0	0	0	510	619
3	0	0	0	0	508	616
4	0	0	0	0	505	616
5	0	0	0	0	503	616
6	0	0	0	0	502	614
7	0	0	0	0	501	615
8	0	0	0	0	500	616
9	0	0	0	0	500	616
10	0	0	0	0	501	618
11	0	0	0	0	501	616
12	0	0	0	0	502	616
13	0	0	0	0	504	617
14	0	0	0	0	505	614
15	0	0	0	0	506	616
0	0	0	0	0	508	616
1	0	0	0	0	510	616
2	0	0	0	0	511	618
3	0	0	0	0	511	616
4	0	0	0	0	511	616
5	0	0	0	0	510	615
6	0	0	0	0	510	615
7	0	0	0	0	508	615
8	0	0	0	0	507	616
9	0	0	0	0	506	616
10	0	0	0	0	504	618
11	0	0	0	0	504	616
12	0	0	0	0	504	616
13	0	0	0	0	505	616
14	0	0	0	0	506	615
15	0	0	0	0	508	616
0	0	0	0	0	511	616
1	0	0	0	0	512	616
2	0	0	0	0	515	618
3	0	0	0	0	517	616
4	0	0	0	0	519	616
5	0	0	0	0	520	616
6	0	0	0	0	520	615
7	0	0	0	0	520	616
8	0	0	0	0	521	616
9	0	0	0	0	519	615
10	0	0	0	0	519	618
11	0	0	0	0	517	616
12	0	0	0	0	515	616
13	0	0	0	0	512	616
14	0	0	0	0	511	615
15	0	0	0	0	510	617
0	0	0	0	0	510	616
1	0	0	0	0	510	616
2	0	0	0	0	511	618
3	0	0	0	0	512	616
4	0	0	0	0	513	616
5	0	0	0	0	515	616
6	0	0	0	0	516	615
7	0	0	0	0	517	616
8	0	0	0	0	519	616
9	0	0	0	0	519	616
10	0	0	0	0	520	619
11	0	0	0	0	520	616
12	0	0	0	0	519	616
13	0	0	0	0	517	615
14	0	0	0	0	516	615
15	0	0	0	0	515	616
0	0	0	0	0	513	615
1	0	0	0	0	512	615
2	0	0	0	0	511	618
3	0	0	0	0	510	615
4	0	0	0	0	509	616
5	0	0	0	0	509	615
6	0	0	0	0	509	614
7	0	0	0	0	510	616
8	0	0	0	0	510	616
9	0	0	0	0	511	616
10	0	0	0	0	512	619
11	0	0	0	0	514	616
12	0	0	0	0	515	615
13	0	0	0	0	517	616
14	0	0	0	0	518	615
15	0	0	0	0	519	616
0	0	0	0	0	518	615
1	0	0	0	0	518	615
2	0	0	0	0	516	618
3	0	0	0	0	515	616
4	0	0	0	0	513	616
5	0	0	0	0	511	616
6	0	0	0	0	509	615
7	0	0	0	0	508	615
8	0	0	0	0	507	616
9	0	0	0	0	507	615
10	0	0	0	0	507	618
11	0	0	0	0	508	616
12	0	0	0	0	509	616
13	0	0	0	0	510	616
14	0	0	0	0	511	614
15	0	0	0	0	512	616
0	0	0	0	0	513	615
1	0	0	0	0	514	615
2	0	0	0	0	516	618
3	0	0	0	0	516	615
4	0	0	0	0	516	616
5	0	0	0	0	516	616
6	0	0	0	0	515	615
7	0	0	0	0	514	616
8	0	0	0	0	512	616
9	0	0	0	0	510	616
10	0	0	0	0	509	619
11	0	0	0	0	508	616
12	0	0	0	0	507	616
13	0	0	0	0	507	615
14	0	0	0	0	507	614
15	0	0	0	0	508	616
0	0	0	0	0	508	615
1	0	0	0	0	509	615
2	0	0	0	0	511	618
3	0	0	0	0	512	616
4	0	0	0	0	512	615
5	0	0	0	0	513	616
6	0	0	0	0	512	614
7	0	0	0	0	512	616
8	0	0	0	0	509	616
9	0	0	0	0	505	615
10	0	0	0	0	501	617
11	0	0	0	0	495	615
12	0	0	0	0	487	615
13	0	0	0	0	476	616
14	0	0	0	0	465	615
15	0	0	0	0	454	616
0	0	0	0	0	442	616
1	0	0	0	0	430	616
2	0	0	0	0	420	619
3	0	0	0	0	412	616
4	0	0	0	0	404	616
5	0	0	0	0	398	615
6	0	0	0	0	395	614
7	0	0	0	0	393	615
8	0	0	0	0	394	615
9	0	0	0	0	396	616
10	0	0	0	0	399	618
11	0	0	0	0	404	616
12	0	0	0	0	410	616
13	0	0	0	0	416	615
14	0	0	0	0	423	615
15	0	0	0	0	428	616
0	0	0	0	0	432	616
1	0	0	0	0	438	616
2	0	0	0	0	447	618
3	0	0	0	0	460	616
4	0	0	0	0	479	616
5	0	0	0	0	503	616
6	0	0	0	0	531	615
7	0	0	0	0	566	616
8	0	0	0	0	611	616
9	0	0	0	0	661	616
10	0	0	0	0	713	618
11	0	0	0	0	769	616
12	0	0	0	0	825	616
13	0	0	0	0	880	616
14	0	0	0	0	927	615
15	0	0	0	0	967	616
0	0	0	0	0	999	616
1	0	0	0	0	1020	616
2	0	0	0	0	1022	619
3	0	0	0	0	1022	616
4	0	0	0	0	1022	617
5	0	0	0	0	1022	616
6	0	0	0	0	1022	614
7	0	0	0	0	1022	616
8	0	0	0	0	1022	616
9	0	0	0	0	1010	616
10	0	0	0	0	987	618
11	0	0	0	0	961	616
12	0	0	0	0	929	616
13	0	0	0	0	894	616
14	0	0	0	0	857	615
15	0	0	0	0	822	616
0	0	0	0	0	791	616
1	0	0	0	0	763	616
2	0	0	0	0	736	618
3	0	0	0	0	711	616
4	0	0	0	0	688	616
5	0	0	0	0	665	616
6	0	0	0	0	645	615
7	0	0	0	0	625	616
8	0	0	0	0	608	616
9	0	0	0	0	591	616
10	0	0	0	0	573	618
11	0	0	0	0	557	616
12	0	0	0	0	540	616
13	0	0	0	0	524	616
14	0	0	0	0	509	615
15	0	0	0	0	495	616
0	0	0	0	0	482	616
1	0	0	0	0	470	616
2	0	0	0	0	460	619
3	0	0	0	0	450	616
4	0	0	0	0	441	616
5	0	0	0	0	433	615
6	0	0	0	0	425	615
7	0	0	0	0	419	616
8	0	0	0	0	412	616
9	0	0	0	0	406	616
10	0	0	0	0	402	619
11	0	0	0	0	397	616
12	0	0	0	0	391	617
13	0	0	0	0	387	617
14	0	0	0	0	383	615
15	0	0	0	0	380	616
0	0	0	0	0	378	616
1	0	0	0	0	376	616
2	0	0	0	0	376	619
3	0	0	0	0	376	616
4	0	0	0	0	376	616
5	0	0	0	0	377	616
6	0	0	0	0	378	614
7	0	0	0	0	379	616
8	0	0	0	0	380	616
9	0	0	0	0	381	616
10	0	0	0	0	382	618
11	0	0	0	0	384	616
12	0	0	0	0	383	615
13	0	0	0	0	383	616
14	0	0	0	0	383	615
15	0	0	0	0	382	616
0	0	0	0	0	380	616
1	0	0	0	0	380	615
2	0	0	0	0	379	618
3	0	0	0	0	380	616
4	0	0	0	0	379	615
5	0	0	0	0	381	615
6	0	0	0	0	383	614
7	0	0	0	0	384	615
8	0	0	0	0	386	615
9	0	0	0	0	388	615
10	0	0	0	0	391	618
11	0	0	0	0	393	616
12	0	0	0	0	395	616
13	0	0	0	0	397	617
14	0	0	0	0	399	615
15	0	0	0	0	399	616
0	0	0	0	0	400	616
1	0	0	0	0	400	616
2	0	0	0	0	400	619
3	0	0	0	0	399	616
4	0	0	0	0	399	616
5	0	0	0	0	398	616
6	0	0	0	0	398	614
7	0	0	0	0	397	616
8	0	0	0	0	397	616
9	0	0	0	0	398	615
10	0	0	0	0	399	618
11	0	0	0	0	400	616
12	0	0	0	0	402	616
13	0	0	0	0	404	616
14	0	0	0	0	407	615
15	0	0	0	0	409	615
0	0	0	0	0	411	616
1	0	0	0	0	414	615
2	0	0	0	0	416	618
3	0	0	0	0	418	615
4	0	0	0	0	418	615
5	0	0	0	0	418	616
6	0	0	0	0	418	615
7	0	0	0	0	417	616
8	0	0	0	0	416	616
9	0	0	0	0	415	615
10	0	0	0	0	414	618
11	0	0	0	0	414	616
12	0	0	0	0	414	616
13	0	0	0	0	415	617
14	0	0	0	0	415	615
15	0	0	0	0	416	616
0	0	0	0	0	418	616
1	0	0	0	0	419	616
2	0	0	0	0	422	619
3	0	0	0	0	424	615
4	0	0	0	0	427	616
5	0	0	0	0	430	616
6	0	0	0	0	431	615
7	0	0	0	0	433	616
8	0	0	0	0	433	615
9	0	0	0	0	432	615
10	0	0	0	0	432	618
11	0	0	0	0	431	615
12	0	0	0	0	429	615
13	0	0	0	0	428	616
14	0	0	0	0	426	615
15	0	0	0	0	425	615
0	0	0	0	0	425	615
1	0	0	0	0	426	616
2	0	0	0	0	428	618
3	0	0	0	0	429	616
4	0	0	0	0	430	616
5	0	0	0	0	432	616
6	0	0	0	0	434	614
7	0	0	0	0	435	616
8	0	0	0	0	437	616
9	0	0	0	0	438	616
10	0	0	0	0	439	619
11	0	0	0	0	440	616
12	0	0	0	0	440	616
13	0	0	0	0	439	616
14	0	0	0	0	438	615
15	0	0	0	0	437	615
0	0	0	0	0	436	616
1	0	0	0	0	435	616
2	0	0	0	0	435	619
3	0	0	0	0	434	616
4	0	0	0	0	434	616
5	0	0	0	0	434	616
6	0	0	0	0	435	615
7	0	0	0	0	436	616
8	0	0	0	0	438	616
9	0	0	0	0	440	616
10	0	0	0	0	442	619
11	0	0	0	0	443	616
12	0	0	0	0	444	616
13	0	0	0	0	446	616
14	0	0	0	0	447	615
15	0	0	0	0	448	616
0	0	0	0	0	448	616
1	0	0	0	0	447	616
2	0	0	0	0	447	619
3	0	0	0	0	446	616
4	0	0	0	0	444	616
5	0	0	0	0	443	616
6	0	0	0	0	441	615
7	0	0	0	0	440	616
8	0	0	0	0	440	616
9	0	0	0	0	440	616
10	0	0	0	0	441	618
11	0	0	0	0	443	615
12	0	0	0	0	445	616
13	0	0	0	0	447	616
14	0	0	0	0	449	615
15	0	0	0	0	451	617
0	0	0	0	0	453	616
1	0	0	0	0	455	617
2	0	0	0	0	456	618
3	0	0	0	0	456	616
4	0	0	0	0	457	615
5	0	0	0	0	456	616
6	0	0	0	0	456	614
7	0	0	0	0	455	616
8	0	0	0	0	454	616
9	0	0	0	0	454	615
10	0	0	0	0	453	618
11	0	0	0	0	453	616
12	0	0	0	0	453	616
13	0	0	0	0	454	615
14	0	0	0	0	454	614
15	0	0	0	0	455	615
0	0	0	0	0	456	615
1	0	0	0	0	458	616
2	0	0	0	0	460	618
3	0	0	0	0	462	615
4	0	0	0	0	465	616
5	0	0	0	0	467	616
6	0	0	0	0	470	615
7	0	0	0	0	472	617
8	0	0	0	0	472	616
9	0	0	0	0	472	616
10	0	0	0	0	472	619
11	0	0	0	0	472	616
12	0	0	0	0	471	616
13	0	0	0	0	471	616
14	0	0	0	0	471	614
15	0	0	0	0	472	616
0	0	0	0	0	472	616
1	0	0	0	0	473	616
2	0	0	0	0	475	618
3	0	0	0	0	476	616
4	0	0	0	0	478	616
5	0	0	0	0	480	616
6	0	0	0	0	483	615
7	0	0	0	0	485	616
8	0	0	0	0	488	616
9	0	0	0	0	491	616
10	0	0	0	0	493	618
11	0	0	0	0	495	616
12	0	0	0	0	496	616
13	0	0	0	0	496	616
14	0	0	0	0	496	615
15	0	0	0	0	496	616
0	0	0	0	0	495	615
1	0	0	0	0	494	615
2	0	0	0	0	494	617
3	0	0	0	0	495	616
4	0	0	0	0	495	616
5	0	0	0	0	495	615
6	0	0	0	0	497	614
7	0	0	0	0	498	616
8	0	0	0	0	500	617
9	0	0	0	0	502	616
10	0	0	0	0	505	618
11	0	0	0	0	507	616
12	0	0	0	0	509	616
13	0	0	0	0	511	616
14	0	0	0	0	513	615
15	0	0	0	0	515	616
0	0	0	0	0	516	616
1	0	0	0	0	517	616
2	0	0	0	0	517	618
3	0	0	0	0	516	616
4	0	0	0	0	516	616
5	0	0	0	0	515	616
6	0	0	0	0	513	615
7	0	0	0	0	513	616
8	0	0	0	0	513	616
9	0	0	0	0	513	616
10	0	0	0	0	515	618
11	0	0	0	0	516	616
12	0	0	0	0	517	616
13	0	0	0	0	519	616
14	0	0	0	0	521	615
15	0	0	0	0	523	616
0	0	0	0	0	525	616
1	0	0	0	0	527	615
2	0	0	0	0	528	619
3	0	0	0	0	528	616
4	0	0	0	0	529	616
5	0	0	0	0	528	616
6	0	0	0	0	528	614
7	0	0	0	0	527	616
8	0	0	0	0	526	616
9	0	0	0	0	525	616
10	0	0	0	0	524	619
11	0	0	0	0	523	616
12	0	0	0	0	523	616
13	0	0	0	0	523	615
14	0	0	0	0	524	614
15	0	0	0	0	525	616
0	0	0	0	0	526	616
1	0	0	0	0	527	615
2	0	0	0	0	529	618
3	0	0	0	0	531	616
4	0	0	0	0	532	615
5	0	0	0	0	533	616
6	0	0	0	0	535	615
7	0	0	0	0	536	616
8	0	0	0	0	535	616
9	0	0	0	0	535	616
10	0	0	0	0	535	618
11	0	0	0	0	534	616
12	0	0	0	0	532	616
13	0	0	0	0	531	616
14	0	0	0	0	530	614
15	0	0	0	0	530	616
0	0	0	0	0	529	616
1	0	0	0	0	530	616
2	0	0	0	0	531	618
3	0	0	0	0	531	616
4	0	0	0	0	532	616
5	0	0	0	0	534	616
6	0	0	0	0	536	615
7	0	0	0	0	537	616
8	0	0	0	0	540	616
9	0	0	0	0	541	616
10	0	0	0	0	541	619
11	0	0	0	0	541	615
12	0	0	0	0	541	616
13	0	0	0	0	540	616
14	0	0	0	0	539	615
15	0	0	0	0	537	616
0	0	0	0	0	536	616
1	0	0	0	0	534	616
2	0	0	0	0	532	618
3	0	0	0	0	531	616
4	0	0	0	0	531	616
5	0	0	0	0	530	616
6	0	0	0	0	531	614
7	0	0	0	0	531	616
8	0	0	0	0	533	616
9	0	0	0	0	533	615
10	0	0	0	0	534	618
11	0	0	0	0	535	616
12	0	0	0	0	536	616
13	0	0	0	0	537	616
14	0	0	0	0	537	614
15	0	0	0	0	538	616
0	0	0	0	0	537	616
1	0	0	0	0	536	616
2	0	0	0	0	535	619
3	0	0	0	0	533	616
4	0	0	0	0	531	616
5	0	0	0	0	529	615
6	0	0	0	0	528	615
7	0	0	0	0	527	616
8	0	0	0	0	526	616
9	0	0	0	0	526	616
10	0	0	0	0	526	619
11	0	0	0	0	527	616
12	0	0	0	0	527	616
13	0	0	0	0	527	616
14	0	0	0	0	527	615
15	0	0	0	0	528	616
0	0	0	0	0	529	616
1	0	0	0	0	530	616
2	0	0	0	0	531	618
3	0	0	0	0	532	616
4	0	0	0	0	531	616
5	0	0	0	0	531	615
6	0	0	0	0	529	615
7	0	0	0	0	528	616
8	0	0	0	0	526	616
9	0	0	0	0	524	615
10	0	0	0	0	523	618
11	0	0	0	0	521	616
12	0	0	0	0	520	616
13	0	0	0	0	521	615
14	0	0	0	0	521	615
15	0	0	0	0	521	616
0	0	0	0	0	522	615
1	0	0	0	0	523	615
2	0	0	0	0	524	619
3	0	0	0	0	525	616
4	0	0	0	0	526	616
5	0	0	0	0	527	616
6	0	0	0	0	529	615
7	0	0	0	0	530	617
8	0	0	0	0	529	616
9	0	0	0	0	528	616
10	0	0	0	0	527	619
11	0	0	0	0	526	616
12	0	0	0	0	524	616
13	0	0	0	0	522	616
14	0	0	0	0	520	614
15	0	0	0	0	519	616
0	0	0	0	0	519	616
1	0	0	0	0	519	616
2	0	0	0	0	519	618
3	0	0	0	0	519	616
4	0	0	0	0	521	615
5	0	0	0	0	522	616
6	0	0	0	0	524	615
7	0	0	0	0	524	617
8	0	0	0	0	525	616
9	0	0	0	0	526	616
10	0	0	0	0	527	618
11	0	0	0	0	528	615
12	0	0	0	0	528	615
13	0	0	0	0	527	616
14	0	0	0	0	527	615
15	0	0	0	0	526	616
0	0	0	0	0	524	616
1	0	0	0	0	522	616
2	0	0	0	0	521	618
3	0	0	0	0	521	616
4	0	0	0	0	519	616
5	0	0	0	0	519	616
6	0	0	0	0	519	615
7	0	0	0	0	520	616
8	0	0	0	0	521	616
9	0	0	0	0	523	616
10	0	0	0	0	524	619
11	0	0	0	0	526	616
12	0	0	0	0	527	615
13	0	0	0	0	528	616
14	0	0	0	0	528	615
15	0	0	0	0	529	616
0	0	0	0	0	528	616
1	0	0	0	0	527	616
2	0	0	0	0	526	619
3	0	0	0	0	524	616
4	0	0	0	0	523	616
5	0	0	0	0	521	616
6	0	0	0	0	519	615
7	0	0	0	0	519	616
8	0	0	0	0	518	615
9	0	0	0	0	518	616
10	0	0	0	0	518	618
11	0	0	0	0	519	616
12	0	0	0	0	519	616
13	0	0	0	0	521	616
14	0	0	0	0	522	614
15	0	0	0	0	524	616
0	0	0	0	0	525	616
1	0	0	0	0	526	616
2	0	0	0	0	527	618
3	0	0	0	0	528	615
4	0	0	0	0	528	616
5	0	0	0	0	528	616
6	0	0	0	0	527	614
7	0	0	0	0	525	616
8	0	0	0	0	524	615
9	0	0	0	0	522	615
10	0	0	0	0	521	618
11	0	0	0	0	520	616
12	0	0	0	0	520	616
13	0	0	0	0	519	616
14	0	0	0	0	519	615
15	0	0	0	0	521	616
0	0	0	0	0	522	616
1	0	0	0	0	523	616
2	0	0	0	0	525	619
3	0	0	0	0	526	617
4	0	0	0	0	527	616
5	0	0	0	0	528	616
6	0	0	0	0	528	615
7	0	0	0	0	529	616
8	0	0	0	0	529	616
9	0	0	0	0	528	616
10	0	0	0	0	527	619
11	0	0	0	0	526	616
12	0	0	0	0	525	616
13	0	0	0	0	524	617
14	0	0	0	0	521	615
15	0	0	0	0	520	617
0	0	0	0	0	520	616
1	0	0	0	0	520	616
2	0	0	0	0	520	619
3	0	0	0	0	521	616
4	0	0	0	0	522	616
5	0	0	0	0	523	616
6	0	0	0	0	525	614
7	0	0	0	0	526	616
8	0	0	0	0	528	616
9	0	0	0	0	529	616
10	0	0	0	0	529	618
11	0	0	0	0	529	616
12	0	0	0	0	529	616
13	0	0	0	0	529	616
14	0	0	0	0	528	615
15	0	0	0	0	527	616
0	0	0	0	0	525	616
1	0	0	0	0	523	616
2	0	0	0	0	521	618
3	0	0	0	0	520	616
4	0	0	0	0	519	616
5	0	0	0	0	519	616
6	0	0	0	0	519	615
7	0	0	0	0	520	616
8	0	0	0	0	521	616
9	0	0	0	0	522	615
10	0	0	0	0	524	617
11	0	0	0	0	525	615
12	0	0	0	0	526	615
13	0	0	0	0	527	615
14	0	0	0	0	529	615
15	0	0	0	0	529	615
0	0	0	0	0	529	615
1	0	0	0	0	527	615
2	0	0	0	0	526	618
3	0	0	0	0	524	616
4	0	0	0	0	522	616
5	0	0	0	0	519	616
6	0	0	0	0	518	615
7	0	0	0	0	516	617
8	0	0	0	0	515	616
9	0	0	0	0	514	616
10	0	0	0	0	514	618
11	0	0	0	0	515	615
12	0	0	0	0	515	615
13	0	0	0	0	517	616
14	0	0	0	0	519	614
15	0	0	0	0	520	616
0	0	0	0	0	521	615
1	0	0	0	0	522	615
2	0	0	0	0	523	619
3	0	0	0	0	524	616
4	0	0	0	0	524	616
5	0	0	0	0	523	616
6	0	0	0	0	523	615
7	0	0	0	0	521	616
8	0	0	0	0	519	616
9	0	0	0	0	518	616
10	0	0	0	0	515	619
11	0	0	0	0	514	616
12	0	0	0	0	513	616
13	0	0	0	0	512	616
14	0	0	0	0	513	614
15	0	0	0	0	514	615
0	0	0	0	0	515	616
1	0	0	0	0	516	616
2	0	0	0	0	517	618
3	0	0	0	0	518	616
4	0	0	0	0	519	615
5	0	0	0	0	520	616
6	0	0	0	0	521	614
7	0	0	0	0	521	615
8	0	0	0	0	521	615
9	0	0	0	0	520	616
10	0	0	0	0	519	618
11	0	0	0	0	517	616
12	0	0	0	0	515	616
13	0	0	0	0	514	615
14	0	0	0	0	512	614
15	0	0	0	0	511	616
0	0	0	0	0	510	615
1	0	0	0	0	510	616
2	0	0	0	0	510	619
3	0	0	0	0	510	616
4	0	0	0	0	511	616
5	0	0	0	0	512	616
6	0	0	0	0	513	615
7	0	0	0	0	515	616
8	0	0	0	0	516	615
9	0	0	0	0	518	616
10	0	0	0	0	519	618
11	0	0	0	0	519	615
12	0	0	0	0	519	616
13	0	0	0	0	518	615
14	0	0	0	0	518	615
15	0	0	0	0	517	616
0	0	0	0	0	515	615
1	0	0	0	0	514	616
2	0	0	0	0	512	618
3	0	0	0	0	512	616
4	0	0	0	0	512	616
5	0	0	0	0	512	616
6	0	0	0	0	512	615
7	0	0	0	0	513	616
8	0	0	0	0	514	615
9	0	0	0	0	514	616
10	0	0	0	0	515	619
11	0	0	0	0	516	616
12	0	0	0	0	517	616
13	0	0	0	0	519	616
14	0	0	0	0	519	615
15	0	0	0	0	520	615
0	0	0	0	0	519	615
1	0	0	0	0	519	615
2	0	0	0	0	518	618
3	0	0	0	0	516	616
4	0	0	0	0	515	616
5	0	0	0	0	512	616
6	0	0	0	0	511	615
7	0	0	0	0	510	616
8	0	0	0	0	509	616
9	0	0	0	0	509	615
10	0	0	0	0	509	618
11	0	0	0	0	510	616
12	0	0	0	0	511	615
13	0	0	0	0	512	615
14	0	0	0	0	513	615
15	0	0	0	0	514	616
0	0	0	0	0	515	616
1	0	0	0	0	516	616
2	0	0	0	0	517	619
3	0	0	0	0	517	616
4	0	0	0	0	517	615
5	0	0	0	0	515	615
6	0	0	0	0	515	615
7	0	0	0	0	513	615
8	0	0	0	0	511	616
9	0	0	0	0	509	615
10	0	0	0	0	508	618
11	0	0	0	0	507	616
12	0	0	0	0	507	616
13	0	0	0	0	506	616
14	0	0	0	0	507	615
15	0	0	0	0	508	616
0	0	0	0	0	509	617
1	0	0	0	0	509	616
2	0	0	0	0	511	618
3	0	0	0	0	512	616
4	0	0	0	0	513	616
5	0	0	0	0	514	616
6	0	0	0	0	515	615
7	0	0	0	0	516	615
8	0	0	0	0	516	616
9	0	0	0	0	515	616
10	0	0	0	0	515	619
11	0	0	0	0	514	616
12	0	0	0	0	511	616
13	0	0	0	0	510	616
14	0	0	0	0	508	614
15	0	0	0	0	507	616
0	0	0	0	0	507	616
1	0	0	0	0	506	616
2	0	0	0	0	507	618
3	0	0	0	0	507	616
4	0	0	0	0	509	616
5	0	0	0	0	509	616
6	0	0	0	0	511	614
7	0	0	0	0	512	616
8	0	0	0	0	513	616
9	0	0	0	0	515	616
10	0	0	0	0	516	618
11	0	0	0	0	517	616
12	0	0	0	0	517	615
13	0	0	0	0	516	616
14	0	0	0	0	516	615
15	0	0	0	0	515	616
0	0	0	0	0	512	616
1	0	0	0	0	511	616
2	0	0	0	0	509	619
3	0	0	0	0	507	616
4	0	0	0	0	506	616
5	0	0	0	0	506	616
6	0	0	0	0	506	614
7	0	0	0	0	506	616
8	0	0	0	0	508	616
9	0	0	0	0	510	616
10	0	0	0	0	511	618
11	0	0	0	0	512	616
12	0	0	0	0	513	616
13	0	0	0	0	514	616
14	0	0	0	0	515	615
15	0	0	0	0	515	616
0	0	0	0	0	515	616
1	0	0	0	0	514	616
2	0	0	0	0	513	618
3	0	0	0	0	512	616
4	0	0	0	0	511	616
5	0	0	0	0	509	615
6	0	0	0	0	507	615
7	0	0	0	0	505	615
8	0	0	0	0	504	615
9	0	0	0	0	504	615
10	0	0	0	0	504	618
11	0	0	0	0	504	616
12	0	0	0	0	504	616
13	0	0	0	0	504	616
14	0	0	0	0	505	615
15	0	0	0	0	507	616
0	0	0	0	0	508	616
1	0	0	0	0	510	616
2	0	0	0	0	510	618
3	0	0	0	0	510	616
4	0	0	0	0	510	616
5	0	0	0	0	510	616
6	0	0	0	0	509	615
7	0	0	0	0	507	616
8	0	0	0	0	504	616
9	0	0	0	0	502	615
10	0	0	0	0	500	618
11	0	0	0	0	499	616
12	0	0	0	0	499	616
13	0	0	0	0	499	616
14	0	0	0	0	499	615
15	0	0	0	0	500	615
0	0	0	0	0	501	615
1	0	0	0	0	502	616
2	0	0	0	0	504	618
3	0	0	0	0	505	615
4	0	0	0	0	507	615
5	0	0	0	0	508	615
6	0	0	0	0	509	614
7	0	0	0	0	510	616
8	0	0	0	0	511	615
9	0	0	0	0	511	616
10	0	0	0	0	511	619
11	0	0	0	0	510	617
12	0	0	0	0	509	616
13	0	0	0	0	509	616
14	0	0	0	0	508	615
15	0	0	0	0	508	616
0	0	0	0	0	508	616
1	0	0	0	0	508	616
2	0	0	0	0	508	619
3	0	0	0	0	509	615
4	0	0	0	0	510	616
5	0	0	0	0	511	616
6	0	0	0	0	513	615
7	0	0	0	0	513	616
8	0	0	0	0	515	616
9	0	0	0	0	515	616
10	0	0	0	0	516	618
11	0	0	0	0	516	616
12	0	0	0	0	516	616
13	0	0	0	0	515	616
14	0	0	0	0	515	615
15	0	0	0	0	515	616
0	0	0	0	0	513	616
1	0	0	0	0	512	615
2	0	0	0	0	510	618
3	0	0	0	0	510	616
4	0	0	0	0	510	615
5	0	0	0	0	511	615
6	0	0	0	0	511	615
7	0	0	0	0	511	615
8	0	0	0	0	512	616
9	0	0	0	0	512	616
10	0	0	0	0	513	618
11	0	0	0	0	513	616
12	0	0	0	0	515	616
13	0	0	0	0	516	616
14	0	0	0	0	516	615
15	0	0	0	0	518	616
0	0	0	0	0	518	616
1	0	0	0	0	516	615
2	0	0	0	0	516	618
3	0	0	0	0	514	616
4	0	0	0	0	512	616
5	0	0	0	0	511	616
6	0	0	0	0	509	615
7	0	0	0	0	508	616
8	0	0	0	0	507	616
9	0	0	0	0	507	616
10	0	0	0	0	507	619
11	0	0	0	0	507	615
12	0	0	0	0	508	616
13	0	0	0	0	509	616
14	0	0	0	0	510	615
15	0	0	0	0	512	616
0	0	0	0	0	513	616
1	0	0	0	0	515	616
2	0	0	0	0	516	618
3	0	0	0	0	516	616
4	0	0	0	0	516	616
5	0	0	0	0	515	615
6	0	0	0	0	515	615
7	0	0	0	0	512	616
8	0	0	0	0	511	616
9	0	0	0	0	509	616
10	0	0	0	0	507	619
11	0	0	0	0	506	617
12	0	0	0	0	505	616
13	0	0	0	0	505	616
14	0	0	0	0	505	615
15	0	0	0	0	505	616
0	0	0	0	0	506	616
1	0	0	0	0	507	616
2	0	0	0	0	508	619
3	0	0	0	0	510	615
4	0	0	0	0	511	616
5	0	0	0	0	512	616
6	0	0	0	0	513	615
7	0	0	0	0	513	616
8	0	0	0	0	513	616
9	0	0	0	0	513	616
10	0	0	0	0	512	618
11	0	0	0	0	511	615
12	0	0	0	0	509	616
13	0	0	0	0	507	616
14	0	0	0	0	504	615
15	0	0	0	0	503	616
0	0	0	0	0	502	615
1	0	0	0	0	502	615
2	0	0	0	0	502	618
3	0	0	0	0	502	616
4	0	0	0	0	503	616
5	0	0	0	0	504	616
6	0	0	0	0	504	614
7	0	0	0	0	504	616
8	0	0	0	0	505	616
9	0	0	0	0	504	616
10	0	0	0	0	502	618
11	0	0	0	0	499	617
12	0	0	0	0	493	616
13	0	0	0	0	485	616
14	0	0	0	0	475	615
15	0	0	0	0	464	616
0	0	0	0	0	451	616
1	0	0	0	0	439	616
2	0	0	0	0	427	619
3	0	0	0	0	415	616
4	0	0	0	0	405	616
5	0	0	0	0	396	616
6	0	0	0	0	391	614
7	0	0	0	0	388	616
8	0	0	0	0	387	616
9	0	0	0	0	388	616
10	0	0	0	0	391	619
11	0	0	0	0	396	615
12	0	0	0	0	403	615
13	0	0	0	0	412	616
14	0	0	0	0	420	615
15	0	0	0	0	428	615
0	0	0	0	0	435	616
1	0	0	0	0	441	616
2	0	0	0	0	449	618
3	0	0	0	0	459	616
4	0	0	0	0	474	616
5	0	0	0	0	494	616
6	0	0	0	0	518	614
7	0	0	0	0	547	616
8	0	0	0	0	585	616
9	0	0	0	0	630	616
10	0	0	0	0	679	618
11	0	0	0	0	731	616
12	0	0	0	0	787	616
13	0	0	0	0	840	616
14	0	0	0	0	889	615
15	0	0	0	0	932	616
0	0	0	0	0	968	615
1	0	0	0	0	998	616
2	0	0	0	0	1018	618
3	0	0	0	0	1022	616
4	0	0	0	0	1022	615
5	0	0	0	0	1022	616
6	0	0	0	0	1022	614
7	0	0	0	0	1022	615
8	0	0	0	0	1022	616
9	0	0	0	0	1006	615
10	0	0	0	0	982	617
11	0	0	0	0	957	615
12	0	0	0	0	926	615
13	0	0	0	0	891	615
14	0	0	0	0	855	614
15	0	0	0	0	818	616
0	0	0	0	0	787	617
1	0	0	0	0	758	616
2	0	0	0	0	733	618
3	0	0	0	0	708	616
4	0	0	0	0	686	616
5	0	0	0	0	667	616
6	0	0	0	0	648	614
7	0	0	0	0	632	616
8	0	0	0	0	617	616
9	0	0	0	0	602	615
10	0	0	0	0	585	618
11	0	0	0	0	569	616
12	0	0	0	0	553	616
13	0	0	0	0	536	616
14	0	0	0	0	520	615
15	0	0	0	0	504	616
0	0	0	0	0	489	615
1	0	0	0	0	476	616
2	0	0	0	0	464	618
3	0	0	0	0	454	615
4	0	0	0	0	445	616
5	0	0	0	0	436	617
6	0	0	0	0	430	615
7	0	0	0	0	424	616
8	0	0	0	0	419	616
9	0	0	0	0	415	616
10	0	0	0	0	411	618
11	0	0	0	0	408	616
12	0	0	0	0	405	615
13	0	0	0	0	401	616
14	0	0	0	0	397	615
15	0	0	0	0	394	616
0	0	0	0	0	390	616
1	0	0	0	0	386	616
2	0	0	0	0	383	618
3	0	0	0	0	381	615
4	0	0	0	0	379	616
5	0	0	0	0	379	615
6	0	0	0	0	378	614
7	0	0	0	0	377	615
8	0	0	0	0	378	616
9	0	0	0	0	379	615
10	0	0	0	0	381	618
11	0	0	0	0	383	616
12	0	0	0	0	385	616
13	0	0	0	0	387	616
14	0	0	0	0	387	615
15	0	0	0	0	389	616
0	0	0	0	0	390	616
1	0	0	0	0	390	615
2	0	0	0	0	390	618
3	0	0	0	0	389	616
4	0	0	0	0	387	615
5	0	0	0	0	386	615
6	0	0	0	0	385	614
7	0	0	0	0	385	615
8	0	0	0	0	385	616
9	0	0	0	0	385	616
10	0	0	0	0	387	619
11	0	0	0	0	389	616
12	0	0	0	0	391	616
13	0	0	0	0	393	616
14	0	0	0	0	396	615
15	0	0	0	0	399	616
0	0	0	0	0	401	615
1	0	0	0	0	403	616
2	0	0	0	0	405	618
3	0	0	0	0	407	616
4	0	0	0	0	408	616
5	0	0	0	0	408	616
6	0	0	0	0	409	615
7	0	0	0	0	409	616
8	0	0	0	0	408	616
9	0	0	0	0	407	616
10	0	0	0	0	407	618
11	0	0	0	0	407	616
12	0	0	0	0	407	616
13	0	0	0	0	408	616
14	0	0	0	0	408	615
15	0	0	0	0	409	616
0	0	0	0	0	411	617
1	0	0	0	0	413	616
2	0	0	0	0	415	618
3	0	0	0	0	417	615
4	0	0	0	0	419	616
5	0	0	0	0	421	616
6	0	0	0	0	422	614
7	0	0	0	0	424	615
8	0	0	0	0	425	616
9	0	0	0	0	425	615
10	0	0	0	0	425	619
11	0	0	0	0	424	616
12	0	0	0	0	423	616
13	0	0	0	0	422	616
14	0	0	0	0	422	615
15	0	0	0	0	421	617
0	0	0	0	0	421	617
1	0	0	0	0	422	616
2	0	0	0	0	423	619
3	0	0	0	0	424	616
4	0	0	0	0	426	616
5	0	0	0	0	428	617
6	0	0	0	0	430	615
7	0	0	0	0	432	616
8	0	0	0	0	433	616
9	0	0	0	0	436	616
10	0	0	0	0	437	618
11	0	0	0	0	439	616
12	0	0	0	0	439	616
13	0	0	0	0	438	616
14	0	0	0	0	438	615
15	0	0	0	0	437	616
0	0	0	0	0	435	617
1	0	0	0	0	433	616
2	0	0	0	0	432	619
3	0	0	0	0	431	616
4	0	0	0	0	431	617
5	0	0	0	0	431	616
6	0	0	0	0	432	615
7	0	0	0	0	433	616
8	0	0	0	0	434	616
9	0	0	0	0	435	616
10	0	0	0	0	438	618
11	0	0	0	0	439	616
12	0	0	0	0	441	617
13	0	0	0	0	444	616
14	0	0	0	0	444	614
15	0	0	0	0	445	616
0	0	0	0	0	445	615
1	0	0	0	0	444	616
2	0	0	0	0	444	619
3	0	0	0	0	443	616
4	0	0	0	0	441	616
5	0	0	0	0	440	615
6	0	0	0	0	439	615
7	0	0	0	0	438	616
8	0	0	0	0	438	616
9	0	0	0	0	437	616
10	0	0	0	0	438	618
11	0	0	0	0	438	616
12	0	0	0	0	440	616
13	0	0	0	0	442	616
14	0	0	0	0	443	615
15	0	0	0	0	445	616
0	0	0	0	0	446	616
1	0	0	0	0	448	616
2	0	0	0	0	449	619
3	0	0	0	0	451	616
4	0	0	0	0	451	616
5	0	0	0	0	451	615
6	0	0	0	0	451	614
7	0	0	0	0	450	616
8	0	0	0	0	449	615
9	0	0	0	0	447	615
10	0	0	0	0	446	618
11	0	0	0	0	445	615
12	0	0	0	0	445	616
13	0	0	0	0	445	616
14	0	0	0	0	446	615
15	0	0	0	0	447	616
0	0	0	0	0	447	615
1	0	0	0	0	448	615
2	0	0	0	0	450	618
3	0	0	0	0	452	615
4	0	0	0	0	455	615
5	0	0	0	0	457	616
6	0	0	0	0	460	615
7	0	0	0	0	461	616
8	0	0	0	0	463	616
9	0	0	0	0	463	615
10	0	0	0	0	463	619
11	0	0	0	0	462	616
12	0	0	0	0	461	616
13	0	0	0	0	459	616
14	0	0	0	0	458	614
15	0	0	0	0	457	615
0	0	0	0	0	457	615
1	0	0	0	0	458	616
2	0	0	0	0	459	618
3	0	0	0	0	461	615
4	0	0	0	0	463	617
5	0	0	0	0	465	617
6	0	0	0	0	467	615
7	0	0	0	0	470	617
8	0	0	0	0	472	616
9	0	0	0	0	474	616
10	0	0	0	0	476	618
11	0	0	0	0	478	615
12	0	0	0	0	479	615
13	0	0	0	0	479	616
14	0	0	0	0	480	615
15	0	0	0	0	479	617
0	0	0	0	0	479	616
1	0	0	0	0	478	616
2	0	0	0	0	476	618
3	0	0	0	0	476	616
4	0	0	0	0	476	616
5	0	0	0	0	476	615
6	0	0	0	0	478	614
7	0	0	0	0	480	617
8	0	0	0	0	483	616
9	0	0	0	0	484	616
10	0	0	0	0	487	619
11	0	0	0	0	490	616
12	0	0	0	0	492	616
13	0	0	0	0	495	616
14	0	0	0	0	496	614
15	0	0	0	0	498	615
0	0	0	0	0	499	615
1	0	0	0	0	499	615
2	0	0	0	0	499	618
3	0	0	0	0	499	616
4	0	0	0	0	498	616
5	0	0	0	0	497	616
6	0	0	0	0	497	615
7	0	0	0	0	496	617
8	0	0	0	0	496	616
9	0	0	0	0	497	616
10	0	0	0	0	499	618
11	0	0	0	0	500	615
12	0	0	0	0	502	616
13	0	0	0	0	504	616
14	0	0	0	0	505	614
15	0	0	0	0	507	615
0	0	0	0	0	509	616
1	0	0	0	0	511	616
2	0	0	0	0	512	619
3	0	0	0	0	513	615
4	0	0	0	0	513	616
5	0	0	0	0	513	615
6	0	0	0	0	513	614
7	0	0	0	0	513	615
8	0	0	0	0	512	615
9	0	0	0	0	511	615
10	0	0	0	0	511	618
11	0	0	0	0	510	616
12	0	0	0	0	510	616
13	0	0	0	0	510	616
14	0	0	0	0	511	614
15	0	0	0	0	512	615
0	0	0	0	0	514	615
1	0	0	0	0	516	615
2	0	0	0	0	518	618
3	0	0	0	0	520	616
4	0	0	0	0	522	616
5	0	0	0	0	523	617
6	0	0	0	0	524	615
7	0	0	0	0	526	616
8	0	0	0	0	526	616
9	0	0	0	0	526	616
10	0	0	0	0	526	618
11	0	0	0	0	526	615
12	0	0	0	0	524	615
13	0	0	0	0	523	615
14	0	0	0	0	521	614
15	0	0	0	0	521	616
0	0	0	0	0	519	615
1	0	0	0	0	519	615
2	0	0	0	0	519	618
3	0	0	0	0	520	616
4	0	0	0	0	522	616
5	0	0	0	0	524	615
6	0	0	0	0	524	614
7	0	0	0	0	525	615
8	0	0	0	0	527	615
9	0	0	0	0	529	616
10	0	0	0	0	529	618
11	0	0	0	0	531	616
12	0	0	0	0	531	616
13	0	0	0	0	531	617
14	0	0	0	0	531	615
15	0	0	0	0	530	617
0	0	0	0	0	529	616
1	0	0	0	0	527	616
2	0	0	0	0	526	618
3	0	0	0	0	524	616
4	0	0	0	0	524	616
5	0	0	0	0	523	616
6	0	0	0	0	524	615
7	0	0	0	0	524	617
8	0	0	0	0	525	617
9	0	0	0	0	527	616
10	0	0	0	0	529	619
11	0	0	0	0	530	616
12	0	0	0	0	532	616
13	0	0	0	0	534	616
14	0	0	0	0	535	615
15	0	0	0	0	536	616
0	0	0	0	0	536	616
1	0	0	0	0	536	616
2	0	0	0	0	535	619
3	0	0	0	0	534	617
4	0	0	0	0	532	617
5	0	0	0	0	531	617
6	0	0	0	0	529	615
7	0	0	0	0	527	616
8	0	0	0	0	526	615
9	0	0	0	0	525	615
10	0	0	0	0	526	618
11	0	0	0	0	526	616
12	0	0	0	0	527	616
13	0	0	0	0	528	616
14	0	0	0	0	529	615
15	0	0	0	0	531	616
0	0	0	0	0	532	616
1	0	0	0	0	533	615
2	0	0	0	0	534	618
3	0	0	0	0	535	616
4	0	0	0	0	535	615
5	0	0	0	0	534	615
6	0	0	0	0	533	615
7	0	0	0	0	531	616
8	0	0	0	0	530	616
9	0	0	0	0	528	616
10	0	0	0	0	526	619
11	0	0	0	0	525	616
12	0	0	0	0	524	616
13	0	0	0	0	523	616
14	0	0	0	0	523	614
15	0	0	0	0	523	615
0	0	0	0	0	524	616
1	0	0	0	0	526	616
2	0	0	0	0	527	618
3	0	0	0	0	528	616
4	0	0	0	0	529	616
5	0	0	0	0	531	616
6	0	0	0	0	532	615
7	0	0	0	0	532	616
8	0	0	0	0	532	616
9	0	0	0	0	531	615
10	0	0	0	0	529	618
11	0	0	0	0	528	616
12	0	0	0	0	526	616
13	0	0	0	0	524	616
14	0	0	0	0	523	615
15	0	0	0	0	523	616
0	0	0	0	0	523	616
1	0	0	0	0	522	616
2	0	0	0	0	523	618
3	0	0	0	0	523	615
4	0	0	0	0	524	616
5	0	0	0	0	526	616
6	0	0	0	0	527	614
7	0	0	0	0	529	616
8	0	0	0	0	530	616
9	0	0	0	0	531	616
10	0	0	0	0	532	618
11	0	0	0	0	532	616
12	0	0	0	0	532	615
13	0	0	0	0	531	615
14	0	0	0	0	531	614
15	0	0	0	0	529	616
0	0	0	0	0	527	615
1	0	0	0	0	526	615
2	0	0	0	0	523	618
3	0	0	0	0	521	616
4	0	0	0	0	520	616
5	0	0	0	0	520	615
6	0	0	0	0	520	614
7	0	0	0	0	521	615
8	0	0	0	0	522	616
9	0	0	0	0	523	615
10	0	0	0	0	525	618
11	0	0	0	0	525	616
12	0	0	0	0	526	616
13	0	0	0	0	526	616
14	0	0	0	0	527	614
15	0	0	0	0	528	616
0	0	0	0	0	528	616
1	0	0	0	0	527	616
2	0	0	0	0	527	618
3	0	0	0	0	526	616
4	0	0	0	0	524	616
5	0	0	0	0	522	616
6	0	0	0	0	520	615
7	0	0	0	0	519	617
8	0	0	0	0	519	616
9	0	0	0	0	518	616
10	0	0	0	0	518	619
11	0	0	0	0	518	616
12	0	0	0	0	519	616
13	0	0	0	0	520	616
14	0	0	0	0	521	614
15	0	0	0	0	523	616
0	0	0	0	0	523	615
1	0	0	0	0	524	616
2	0	0	0	0	526	618
3	0	0	0	0	526	616
4	0	0	0	0	527	616
5	0	0	0	0	527	616
6	0	0	0	0	527	615
7	0	0	0	0	526	615
8	0	0	0	0	524	616
9	0	0	0	0	522	616
10	0	0	0	0	521	618
11	0	0	0	0	519	615
12	0	0	0	0	519	616
13	0	0	0	0	518	615
14	0	0	0	0	517	615
15	0	0	0	0	517	616
0	0	0	0	0	519	617
1	0	0	0	0	519	616
2	0	0	0	0	521	618
3	0	0	0	0	523	616
4	0	0	0	0	524	615
5	0	0	0	0	526	616
6	0	0	0	0	527	614
7	0	0	0	0	528	616
8	0	0	0	0	528	616
9	0	0	0	0	528	616
10	0	0	0	0	527	619
11	0	0	0	0	527	616
12	0	0	0	0	524	616
13	0	0	0	0	522	615
14	0	0	0	0	520	614
15	0	0	0	0	519	615
0	0	0	0	0	518	615
1	0	0	0	0	518	615
2	0	0	0	0	518	617
3	0	0	0	0	518	615
4	0	0	0	0	519	616
5	0	0	0	0	520	615
6	0	0	0	0	521	614
7	0	0	0	0	523	615
8	0	0	0	0	524	615
9	0	0	0	0	526	615
10	0	0	0	0	527	617
11	0	0	0	0	529	616
12	0	0	0	0	529	615
13	0	0	0	0	529	615
14	0	0	0	0	528	614
15	0	0	0	0	527	616
0	0	0	0	0	525	616
1	0	0	0	0	523	616
2	0	0	0	0	522	619
3	0	0	0	0	521	616
4	0	0	0	0	520	616
5	0	0	0	0	520	616
6	0	0	0	0	520	615
7	0	0	0	0	521	616
8	0	0	0	0	521	616
9	0	0	0	0	522	616
10	0	0	0	0	523	619
11	0	0	0	0	524	616
12	0	0	0	0	525	616
13	0	0	0	0	527	616
14	0	0	0	0	528	615
15	0	0	0	0	529	615
0	0	0	0	0	529	616
1	0	0	0	0	529	616
2	0	0	0	0	527	619
3	0	0	0	0	526	616
4	0	0	0	0	524	616
5	0	0	0	0	523	616
6	0	0	0	0	521	615
7	0	0	0	0	520	617
8	0	0	0	0	519	616
9	0	0	0	0	519	616
10	0	0	0	0	519	618
11	0	0	0	0	521	616
12	0	0	0	0	521	615
13	0	0	0	0	521	616
14	0	0	0	0	523	615
15	0	0	0	0	523	615
0	0	0	0	0	524	616
1	0	0	0	0	525	616
2	0	0	0	0	526	618
3	0	0	0	0	527	615
4	0	0	0	0	526	615
5	0	0	0	0	526	615
6	0	0	0	0	525	615
7	0	0	0	0	524	616
8	0	0	0	0	523	616
9	0	0	0	0	521	616
10	0	0	0	0	519	618
11	0	0	0	0	518	616
12	0	0	0	0	517	616
13	0	0	0	0	517	616
14	0	0	0	0	516	615
15	0	0	0	0	517	616
0	0	0	0	0	518	616
1	0	0	0	0	518	616
2	0	0	0	0	520	619
3	0	0	0	0	521	616
4	0	0	0	0	522	616
5	0	0	0	0	523	617
6	0	0	0	0	524	615
7	0	0	0	0	525	616
8	0	0	0	0	526	616
9	0	0	0	0	526	616
10	0	0	0	0	524	619
11	0	0	0	0	523	616
12	0	0	0	0	521	616
13	0	0	0	0	519	615
14	0	0	0	0	517	614
15	0	0	0	0	516	616
0	0	0	0	0	515	615
1	0	0	0	0	514	616
2	0	0	0	0	514	618
3	0	0	0	0	514	615
4	0	0	0	0	515	616
5	0	0	0	0	515	616
6	0	0	0	0	516	615
7	0	0	0	0	517	616
8	0	0	0	0	519	616
9	0	0	0	0	520	616
10	0	0	0	0	521	619
11	0	0	0	0	523	616
12	0	0	0	0	523	616
13	0	0	0	0	523	616
14	0	0	0	0	523	615
15	0	0	0	0	521	616
0	0	0	0	0	519	616
1	0	0	0	0	517	615
2	0	0	0	0	515	618
3	0	0	0	0	513	616
4	0	0	0	0	512	616
5	0	0	0	0	512	616
6	0	0	0	0	513	614
7	0	0	0	0	513	615
8	0	0	0	0	514	615
9	0	0	0	0	515	615
10	0	0	0	0	516	618
11	0	0	0	0	518	615
12	0	0	0	0	519	616
13	0	0	0	0	520	616
14	0	0	0	0	521	614
15	0	0	0	0	521	616
0	0	0	0	0	522	616
1	0	0	0	0	521	616
2	0	0	0	0	520	619
3	0	0	0	0	519	616
4	0	0	0	0	517	616
5	0	0	0	0	515	616
6	0	0	0	0	513	615
7	0	0	0	0	512	616
8	0	0	0	0	511	617
9	0	0	0	0	511	616
10	0	0	0	0	511	619
11	0	0	0	0	511	616
12	0	0	0	0	512	616
13	0	0	0	0	512	616
14	0	0	0	0	514	615
15	0	0	0	0	515	617
0	0	0	0	0	516	616
1	0	0	0	0	518	616
2	0	0	0	0	519	619
3	0	0	0	0	520	617
4	0	0	0	0	521	616
5	0	0	0	0	520	616
6	0	0	0	0	519	615
7	0	0	0	0	518	616
8	0	0	0	0	516	616
9	0	0	0	0	514	616
10	0	0	0	0	512	619
11	0	0	0	0	511	616
12	0	0	0	0	509	616
13	0	0	0	0	509	616
14	0	0	0	0	509	614
15	0	0	0	0	510	616
0	0	0	0	0	511	616
1	0	0	0	0	511	616
2	0	0	0	0	513	619
3	0	0	0	0	514	616
4	0	0	0	0	515	616
5	0	0	0	0	516	616
6	0	0	0	0	517	615
7	0	0	0	0	518	616
8	0	0	0	0	518	616
9	0	0	0	0	518	616
10	0	0	0	0	516	618
11	0	0	0	0	514	616
12	0	0	0	0	513	616
13	0	0	0	0	511	616
14	0	0	0	0	510	614
15	0	0	0	0	509	616
0	0	0	0	0	508	616
1	0	0	0	0	508	616
2	0	0	0	0	508	618
3	0	0	0	0	508	615
4	0	0	0	0	508	616
5	0	0	0	0	509	616
6	0	0	0	0	511	614
7	0	0	0	0	512	616
8	0	0	0	0	513	616
9	0	0	0	0	514	616
10	0	0	0	0	515	619
11	0	0	0	0	515	616
12	0	0	0	0	515	616
13	0	0	0	0	515	615
14	0	0	0	0	513	615
15	0	0	0	0	512	616
0	0	0	0	0	511	616
1	0	0	0	0	509	616
2	0	0	0	0	507	618
3	0	0	0	0	506	617
4	0	0	0	0	504	616
5	0	0	0	0	504	616
6	0	0	0	0	504	615
7	0	0	0	0	505	616
8	0	0	0	0	506	616
9	0	0	0	0	507	616
10	0	0	0	0	509	619
11	0	0	0	0	511	615
12	0	0	0	0	513	616
13	0	0	0	0	514	616
14	0	0	0	0	514	614
15	0	0	0	0	515	616
0	0	0	0	0	515	615
1	0	0	0	0	515	615
2	0	0	0	0	515	618
3	0	0	0	0	513	615
4	0	0	0	0	512	615
5	0	0	0	0	510	615
6	0	0	0	0	507	615
7	0	0	0	0	505	615
8	0	0	0	0	504	615
9	0	0	0	0	504	615
10	0	0	0	0	503	618
11	0	0	0	0	503	615
12	0	0	0	0	505	616
13	0	0	0	0	506	616
14	0	0	0	0	508	615
15	0	0	0	0	510	616
0	0	0	0	0	512	616
1	0	0	0	0	513	616
2	0	0	0	0	513	617
3	0	0	0	0	514	616
4	0	0	0	0	515	616
5	0	0	0	0	514	616
6	0	0	0	0	514	615
7	0	0	0	0	513	616
8	0	0	0	0	511	616
9	0	0	0	0	510	615
10	0	0	0	0	508	619
11	0	0	0	0	508	616
12	0	0	0	0	506	616
13	0	0	0	0	506	616
14	0	0	0	0	506	615
15	0	0	0	0	506	616
0	0	0	0	0	507	616
1	0	0	0	0	508	616
2	0	0	0	0	509	618
3	0	0	0	0	510	616
4	0	0	0	0	511	615
5	0	0	0	0	513	616
6	0	0	0	0	514	614
7	0	0	0	0	515	616
8	0	0	0	0	516	616
9	0	0	0	0	515	616
10	0	0	0	0	514	619
11	0	0	0	0	512	616
12	0	0	0	0	511	616
13	0	0	0	0	509	616
14	0	0	0	0	507	614
15	0	0	0	0	506	616
0	0	0	0	0	505	616
1	0	0	0	0	505	616
2	0	0	0	0	504	618
3	0	0	0	0	505	616
4	0	0	0	0	506	616
5	0	0	0	0	507	616
6	0	0	0	0	508	614
7	0	0	0	0	510	616
8	0	0	0	0	512	616
9	0	0	0	0	513	616
10	0	0	0	0	514	619
11	0	0	0	0	515	615
12	0	0	0	0	516	615
13	0	0	0	0	516	615
14	0	0	0	0	515	614
15	0	0	0	0	514	616
0	0	0	0	0	512	616
1	0	0	0	0	511	615
2	0	0	0	0	509	618
3	0	0	0	0	507	616
4	0	0	0	0	507	616
5	0	0	0	0	506	616
6	0	0	0	0	505	614
7	0	0	0	0	506	615
8	0	0	0	0	507	616
9	0	0	0	0	508	615
10	0	0	0	0	509	618
11	0	0	0	0	510	616
12	0	0	0	0	511	616
13	0	0	0	0	513	616
14	0	0	0	0	515	615
15	0	0	0	0	516	616
0	0	0	0	0	516	615
1	0	0	0	0	515	616
2	0	0	0	0	515	618
3	0	0	0	0	513	616
4	0	0	0	0	512	616
5	0	0	0	0	510	616
6	0	0	0	0	508	615
7	0	0	0	0	507	616
8	0	0	0	0	505	616
9	0	0	0	0	505	616
10	0	0	0	0	504	619
11	0	0	0	0	505	616
12	0	0	0	0	505	616
13	0	0	0	0	507	616
14	0	0	0	0	508	615
15	0	0	0	0	510	616
0	0	0	0	0	511	615
1	0	0	0	0	513	616
2	0	0	0	0	514	619
3	0	0	0	0	515	616
4	0	0	0	0	515	616
5	0	0	0	0	514	616
6	0	0	0	0	513	615
7	0	0	0	0	511	616
8	0	0	0	0	508	616
9	0	0	0	0	507	616
10	0	0	0	0	504	619
11	0	0	0	0	502	616
12	0	0	0	0	501	616
13	0	0	0	0	501	616
14	0	0	0	0	502	615
15	0	0	0	0	502	615
0	0	0	0	0	503	617
1	0	0	0	0	504	616
2	0	0	0	0	505	619
3	0	0	0	0	507	616
4	0	0	0	0	508	616
5	0	0	0	0	510	616
6	0	0	0	0	511	615
7	0	0	0	0	512	616
8	0	0	0	0	512	616
9	0	0	0	0	511	616
10	0	0	0	0	510	619
11	0	0	0	0	507	616
12	0	0	0	0	505	616
13	0	0	0	0	502	615
14	0	0	0	0	500	615
15	0	0	0	0	498	616
0	0	0	0	0	497	616
1	0	0	0	0	496	616
2	0	0	0	0	496	618
3	0	0	0	0	496	616
4	0	0	0	0	497	616
5	0	0	0	0	498	615
6	0	0	0	0	499	614
7	0	0	0	0	501	616
8	0	0	0	0	503	616
9	0	0	0	0	504	615
10	0	0	0	0	506	618
11	0	0	0	0	507	616
12	0	0	0	0	508	616
13	0	0	0	0	508	615
14	0	0	0	0	508	615
15	0	0	0	0	507	616
0	0	0	0	0	507	616
1	0	0	0	0	506	616
2	0	0	0	0	505	619
3	0	0	0	0	505	616
4	0	0	0	0	505	616
5	0	0	0	0	505	616
6	0	0	0	0	506	615
7	0	0	0	0	508	616
8	0	0	0	0	510	616
9	0	0	0	0	511	616
10	0	0	0	0	513	618
11	0	0	0	0	514	615
12	0	0	0	0	515	616
13	0	0	0	0	517	616
14	0	0	0	0	518	615
15	0	0	0	0	518	616
0	0	0	0	0	518	616
1	0	0	0	0	518	616
2	0	0	0	0	517	619
3	0	0	0	0	516	616
4	0	0	0	0	514	616
5	0	0	0	0	512	615
6	0	0	0	0	510	614
7	0	0	0	0	509	616
8	0	0	0	0	508	616
9	0	0	0	0	509	616
10	0	0	0	0	508	618
11	0	0	0	0	509	615
12	0	0	0	0	510	616
13	0	0	0	0	511	616
14	0	0	0	0	512	615
15	0	0	0	0	513	616
0	0	0	0	0	514	616
1	0	0	0	0	516	616
2	0	0	0	0	518	619
3	0	0	0	0	518	616
4	0	0	0	0	518	616
5	0	0	0	0	517	616
6	0	0	0	0	517	615
7	0	0	0	0	516	616
8	0	0	0	0	514	616
9	0	0	0	0	512	615
10	0	0	0	0	510	618
11	0	0	0	0	509	616
12	0	0	0	0	508	616
13	0	0	0	0	508	616
14	0	0	0	0	508	614
15	0	0	0	0	508	616
0	0	0	0	0	509	616
1	0	0	0	0	510	615
2	0	0	0	0	511	618
3	0	0	0	0	512	615
4	0	0	0	0	513	616
5	0	0	0	0	514	616
6	0	0	0	0	515	615
7	0	0	0	0	516	616
8	0	0	0	0	516	616
9	0	0	0	0	516	616
10	0	0	0	0	515	618
11	0	0	0	0	514	616
12	0	0	0	0	512	616
13	0	0	0	0	510	616
14	0	0	0	0	507	615
15	0	0	0	0	506	616
0	0	0	0	0	505	616
1	0	0	0	0	504	616
2	0	0	0	0	504	619
3	0	0	0	0	505	616
4	0	0	0	0	505	616
5	0	0	0	0	507	616
6	0	0	0	0	508	615
7	0	0	0	0	509	615
8	0	0	0	0	510	616
9	0	0	0	0	511	615
10	0	0	0	0	513	618
11	0	0	0	0	513	615
12	0	0	0	0	514	616
13	0	0	0	0	513	616
14	0	0	0	0	513	614
15	0	0	0	0	512	615
0	0	0	0	0	511	615
1	0	0	0	0	509	615
2	0	0	0	0	507	617
3	0	0	0	0	506	616
4	0	0	0	0	505	616
5	0	0	0	0	505	616
6	0	0	0	0	504	615
7	0	0	0	0	505	616
8	0	0	0	0	505	616
9	0	0	0	0	505	616
10	0	0	0	0	506	618
11	0	0	0	0	508	615
12	0	0	0	0	509	615
13	0	0	0	0	509	616
14	0	0	0	0	510	615
15	0	0	0	0	509	617
0	0	0	0	0	507	616
1	0	0	0	0	504	615
2	0	0	0	0	499	619
3	0	0	0	0	492	615
4	0	0	0	0	484	616
5	0	0	0	0	473	615
6	0	0	0	0	462	615
7	0	0	0	0	451	615
8	0	0	0	0	439	615
9	0	0	0	0	428	615
10	0	0	0	0	418	618
11	0	0	0	0	410	615
12	0	0	0	0	403	616
13	0	0	0	0	398	616
14	0	0	0	0	395	615
15	0	0	0	0	395	616
0	0	0	0	0	395	615
1	0	0	0	0	398	615
2	0	0	0	0	402	617
3	0	0	0	0	407	615
4	0	0	0	0	414	615
5	0	0	0	0	422	615
6	0	0	0	0	429	614
7	0	0	0	0	434	615
8	0	0	0	0	440	615
9	0	0	0	0	446	615
10	0	0	0	0	453	618
11	0	0	0	0	467	616
12	0	0	0	0	486	616
13	0	0	0	0	510	616
14	0	0	0	0	538	615
15	0	0	0	0	575	616
0	0	0	0	0	619	616
1	0	0	0	0	668	616
2	0	0	0	0	719	619
3	0	0	0	0	774	616
4	0	0	0	0	828	616
5	0	0	0	0	877	615
6	0	0	0	0	920	614
7	0	0	0	0	956	616
8	0	0	0	0	986	616
9	0	0	0	0	1006	615
10	0	0	0	0	1020	619
11	0	0	0	0	1022	616
12	0	0	0	0	1022	616
13	0	0	0	0	1022	616
14	0	0	0	0	1022	614
15	0	0	0	0	1015	616
0	0	0	0	0	998	615
1	0	0	0	0	976	615
2	0	0	0	0	951	618
3	0	0	0	0	923	615
4	0	0	0	0	891	615
5	0	0	0	0	856	615
6	0	0	0	0	820	615
7	0	0	0	0	788	616
8	0	0	0	0	760	616
9	0	0	0	0	734	616
10	0	0	0	0	710	618
11	0	0	0	0	687	616
12	0	0	0	0	667	616
13	0	0	0	0	647	616
14	0	0	0	0	629	615
15	0	0	0	0	613	615
0	0	0	0	0	598	616
1	0	0	0	0	582	616
2	0	0	0	0	565	618
3	0	0	0	0	550	616
4	0	0	0	0	534	616
5	0	0	0	0	520	616
6	0	0	0	0	507	614
7	0	0	0	0	493	616
8	0	0	0	0	481	616
9	0	0	0	0	471	616
10	0	0	0	0	461	618
11	0	0	0	0	453	616
12	0	0	0	0	446	616
13	0	0	0	0	439	616
14	0	0	0	0	432	615
15	0	0	0	0	426	616
0	0	0	0	0	421	616
1	0	0	0	0	415	615
2	0	0	0	0	410	618
3	0	0	0	0	406	616
4	0	0	0	0	401	616
5	0	0	0	0	396	616
6	0	0	0	0	391	615
7	0	0	0	0	388	616
8	0	0	0	0	385	616
9	0	0	0	0	383	616
10	0	0	0	0	382	618
11	0	0	0	0	381	616
12	0	0	0	0	380	617
13	0	0	0	0	381	616
14	0	0	0	0	382	615
15	0	0	0	0	384	617
0	0	0	0	0	386	616
1	0	0	0	0	387	616
2	0	0	0	0	388	618
3	0	0	0	0	391	616
4	0	0	0	0	391	616
5	0	0	0	0	391	616
6	0	0	0	0	391	615
7	0	0	0	0	390	616
8	0	0	0	0	390	616
9	0	0	0	0	388	615
10	0	0	0	0	387	618
11	0	0	0	0	386	616
12	0	0	0	0	386	615
13	0	0	0	0	387	616
14	0	0	0	0	388	614
15	0	0	0	0	389	615
0	0	0	0	0	391	616
1	0	0	0	0	393	615
2	0	0	0	0	395	619
3	0	0	0	0	396	616
4	0	0	0	0	398	616
5	0	0	0	0	400	616
6	0	0	0	0	403	615
7	0	0	0	0	405	616
8	0	0	0	0	407	616
9	0	0	0	0	407	616
10	0	0	0	0	407	619
11	0	0	0	0	407	617
12	0	0	0	0	406	616
13	0	0	0	0	405	616
14	0	0	0	0	404	615
15	0	0	0	0	403	616
0	0	0	0	0	404	616
1	0	0	0	0	405	615
2	0	0	0	0	405	618
3	0	0	0	0	406	615
4	0	0	0	0	407	615
5	0	0	0	0	408	616
6	0	0	0	0	410	615
7	0	0	0	0	413	616
8	0	0	0	0	415	616
9	0	0	0	0	417	615
10	0	0	0	0	420	619
11	0	0	0	0	423	616
12	0	0	0	0	424	616
13	0	0	0	0	424	615
14	0	0	0	0	425	615
15	0	0	0	0	424	616
0	0	0	0	0	424	616
1	0	0	0	0	423	616
2	0	0	0	0	423	619
3	0	0	0	0	422	616
4	0	0	0	0	422	615
5	0	0	0	0	422	616
6	0	0	0	0	423	615
7	0	0	0	0	423	615
8	0	0	0	0	425	616
9	0	0	0	0	427	615
10	0	0	0	0	428	618
11	0	0	0	0	430	616
12	0	0	0	0	432	616
13	0	0	0	0	434	616
14	0	0	0	0	435	615
15	0	0	0	0	437	616
0	0	0	0	0	438	616
1	0	0	0	0	438	616
2	0	0	0	0	437	618
3	0	0	0	0	436	616
4	0	0	0	0	435	616
5	0	0	0	0	433	616
6	0	0	0	0	432	615
7	0	0	0	0	431	616
8	0	0	0	0	431	616
9	0	0	0	0	431	616
10	0	0	0	0	431	618
11	0	0	0	0	432	616
12	0	0	0	0	433	616
13	0	0	0	0	435	616
14	0	0	0	0	436	614
15	0	0	0	0	438	616
0	0	0	0	0	440	616
1	0	0	0	0	442	616
2	0	0	0	0	444	619
3	0	0	0	0	446	616
4	0	0	0	0	446	616
5	0	0	0	0	447	616
6	0	0	0	0	446	615
7	0	0	0	0	445	616
8	0	0	0	0	444	616
9	0	0	0	0	442	615
10	0	0	0	0	440	618
11	0	0	0	0	438	616
12	0	0	0	0	438	616
13	0	0	0	0	437	616
14	0	0	0	0	438	615
15	0	0	0	0	438	616
0	0	0	0	0	440	617
1	0	0	0	0	441	616
2	0	0	0	0	443	619
3	0	0	0	0	446	616
4	0	0	0	0	447	616
5	0	0	0	0	449	616
6	0	0	0	0	451	614
7	0	0	0	0	452	616
8	0	0	0	0	454	616
9	0	0	0	0	454	616
10	0	0	0	0	454	619
11	0	0	0	0	453	617
12	0	0	0	0	452	616
13	0	0	0	0	449	616
14	0	0	0	0	448	615
15	0	0	0	0	448	616
0	0	0	0	0	447	616
1	0	0	0	0	447	616
2	0	0	0	0	448	618
3	0	0	0	0	448	616
4	0	0	0	0	449	616
5	0	0	0	0	451	616
6	0	0	0	0	452	615
7	0	0	0	0	454	616
8	0	0	0	0	455	616
9	0	0	0	0	457	616
10	0	0	0	0	460	618
11	0	0	0	0	460	616
12	0	0	0	0	461	615
13	0	0	0	0	461	615
14	0	0	0	0	462	614
15	0	0	0	0	461	616
0	0	0	0	0	460	616
1	0	0	0	0	459	615
2	0	0	0	0	457	618
3	0	0	0	0	457	616
4	0	0	0	0	457	615
5	0	0	0	0	457	616
6	0	0	0	0	457	615
7	0	0	0	0	458	616
8	0	0	0	0	460	616
9	0	0	0	0	462	616
10	0	0	0	0	464	618
11	0	0	0	0	466	616
12	0	0	0	0	468	616
13	0	0	0	0	471	616
14	0	0	0	0	472	614
15	0	0	0	0	475	616
0	0	0	0	0	476	616
1	0	0	0	0	477	616
2	0	0	0	0	478	619
3	0	0	0	0	478	616
4	0	0	0	0	478	616
5	0	0	0	0	477	616
6	0	0	0	0	476	615
7	0	0	0	0	476	616
8	0	0	0	0	475	616
9	0	0	0	0	476	616
10	0	0	0	0	477	619
11	0	0	0	0	478	616
12	0	0	0	0	480	616
13	0	0	0	0	483	616
14	0	0	0	0	485	614
15	0	0	0	0	488	616
0	0	0	0	0	491	615
1	0	0	0	0	494	615
2	0	0	0	0	496	617
3	0	0	0	0	498	616
4	0	0	0	0	500	616
5	0	0	0	0	501	616
6	0	0	0	0	502	615
7	0	0	0	0	502	616
8	0	0	0	0	502	616
9	0	0	0	0	501	615
10	0	0	0	0	500	619
11	0	0	0	0	500	616
12	0	0	0	0	499	616
13	0	0	0	0	500	616
14	0	0	0	0	501	615
15	0	0	0	0	502	615
0	0	0	0	0	504	616
1	0	0	0	0	506	616
2	0	0	0	0	508	618
3	0	0	0	0	510	615
4	0	0	0	0	512	616
5	0	0	0	0	513	616
6	0	0	0	0	515	614
7	0	0	0	0	516	616
8	0	0	0	0	518	616
9	0	0	0	0	519	616
10	0	0	0	0	518	619
11	0	0	0	0	517	616
12	0	0	0	0	516	616
13	0	0	0	0	515	616
14	0	0	0	0	514	614
15	0	0	0	0	513	616
0	0	0	0	0	513	616
1	0	0	0	0	513	616
2	0	0	0	0	513	619
3	0	0	0	0	515	616
4	0	0	0	0	516	616
5	0	0	0	0	517	616
6	0	0	0	0	518	615
7	0	0	0	0	519	615
8	0	0	0	0	521	615
9	0	0	0	0	523	616
10	0	0	0	0	524	618
11	0	0	0	0	525	615
12	0	0	0	0	526	616
13	0	0	0	0	527	616
14	0	0	0	0	527	615
15	0	0	0	0	526	616
0	0	0	0	0	525	616
1	0	0	0	0	523	615
2	0	0	0	0	522	619
3	0	0	0	0	520	616
4	0	0	0	0	520	616
5	0	0	0	0	520	616
6	0	0	0	0	520	615
7	0	0	0	0	520	616
8	0	0	0	0	521	616
9	0	0	0	0	523	616
10	0	0	0	0	524	619
11	0	0	0	0	525	616
12	0	0	0	0	527	616
13	0	0	0	0	529	616
14	0	0	0	0	530	614
15	0	0	0	0	531	616
0	0	0	0	0	532	616
1	0	0	0	0	532	616
2	0	0	0	0	531	619
3	0	0	0	0	531	616
4	0	0	0	0	530	616
5	0	0	0	0	527	616
6	0	0	0	0	525	615
7	0	0	0	0	524	616
8	0	0	0	0	524	615
9	0	0	0	0	523	615
10	0	0	0	0	523	619
11	0	0	0	0	523	616
12	0	0	0	0	525	616
13	0	0	0	0	526	616
14	0	0	0	0	528	615
15	0	0	0	0	529	616
0	0	0	0	0	531	616
1	0	0	0	0	532	616
2	0	0	0	0	532	618
3	0	0	0	0	533	615
4	0	0	0	0	533	615
5	0	0	0	0	534	616
6	0	0	0	0	533	615
7	0	0	0	0	531	615
8	0	0	0	0	529	616
9	0	0	0	0	527	616
10	0	0	0	0	526	618
11	0	0	0	0	524	616
12	0	0	0	0	523	616
13	0	0	0	0	523	616
14	0	0	0	0	523	614
15	0	0	0	0	524	615
0	0	0	0	0	525	616
1	0	0	0	0	525	615
2	0	0	0	0	526	619
3	0	0	0	0	527	616
4	0	0	0	0	528	616
5	0	0	0	0	529	616
6	0	0	0	0	530	614
7	0	0	0	0	531	616
8	0	0	0	0	532	615
9	0	0	0	0	533	616
10	0	0	0	0	532	619
11	0	0	0	0	530	616
12	0	0	0	0	529	616
13	0	0	0	0	526	616
14	0	0	0	0	524	615
15	0	0	0	0	522	616
0	0	0	0	0	520	615
1	0	0	0	0	520	615
2	0	0	0	0	521	618
3	0	0	0	0	521	615
4	0	0	0	0	523	616
5	0	0	0	0	524	615
6	0	0	0	0	524	614
7	0	0	0	0	526	615
8	0	0	0	0	528	615
9	0	0	0	0	530	616
10	0	0	0	0	531	618
11	0	0	0	0	532	616
12	0	0	0	0	532	616
13	0	0	0	0	531	615
14	0	0	0	0	530	615
15	0	0	0	0	529	616
0	0	0	0	0	527	616
1	0	0	0	0	526	616
2	0	0	0	0	523	618
3	0	0	0	0	522	616
4	0	0	0	0	520	615
5	0	0	0	0	519	616
6	0	0	0	0	519	614
7	0	0	0	0	519	615
8	0	0	0	0	521	616
9	0	0	0	0	523	616
10	0	0	0	0	523	618
11	0	0	0	0	525	616
12	0	0	0	0	527	616
13	0	0	0	0	528	616
14	0	0	0	0	529	615
15	0	0	0	0	530	616
0	0	0	0	0	530	616
1	0	0	0	0	529	615
2	0	0	0	0	529	618
3	0	0	0	0	528	616
4	0	0	0	0	527	616
5	0	0	0	0	524	616
6	0	0	0	0	523	615
7	0	0	0	0	521	616
8	0	0	0	0	519	616
9	0	0	0	0	519	616
10	0	0	0	0	519	618
11	0	0	0	0	520	616
12	0	0	0	0	521	616
13	0	0	0	0	521	616
14	0	0	0	0	523	615
15	0	0	0	0	524	616
0	0	0	0	0	525	616
1	0	0	0	0	527	616
2	0	0	0	0	529	619
3	0	0	0	0	530	616
4	0	0	0	0	531	616
5	0	0	0	0	529	616
6	0	0	0	0	529	615
7	0	0	0	0	528	616
8	0	0	0	0	527	615
9	0	0	0	0	525	616
10	0	0	0	0	523	618
11	0	0	0	0	521	616
12	0	0	0	0	520	616
13	0	0	0	0	519	616
14	0	0	0	0	520	615
15	0	0	0	0	520	616
0	0	0	0	0	522	616
1	0	0	0	0	523	616
2	0	0	0	0	524	618
3	0	0	0	0	525	615
4	0	0	0	0	527	616
5	0	0	0	0	529	616
6	0	0	0	0	530	615
7	0	0	0	0	531	616
8	0	0	0	0	531	616
9	0	0	0	0	531	616
10	0	0	0	0	531	619
11	0	0	0	0	530	616
12	0	0	0	0	529	616
13	0	0	0	0	527	616
14	0	0	0	0	525	615
15	0	0	0	0	524	616
0	0	0	0	0	523	616
1	0	0	0	0	522	616
2	0	0	0	0	521	618
3	0	0	0	0	521	616
4	0	0	0	0	521	616
5	0	0	0	0	522	616
6	0	0	0	0	523	615
7	0	0	0	0	524	616
8	0	0	0	0	526	616
9	0	0	0	0	526	616
10	0	0	0	0	527	619
11	0	0	0	0	528	616
12	0	0	0	0	529	616
13	0	0	0	0	528	616
14	0	0	0	0	527	614
15	0	0	0	0	527	616
0	0	0	0	0	526	616
1	0	0	0	0	524	616
2	0	0	0	0	522	618
3	0	0	0	0	521	616
4	0	0	0	0	519	616
5	0	0	0	0	519	616
6	0	0	0	0	519	615
7	0	0	0	0	519	616
8	0	0	0	0	520	615
9	0	0	0	0	521	616
10	0	0	0	0	522	618
11	0	0	0	0	524	615
12	0	0	0	0	526	616
13	0	0	0	0	527	616
14	0	0	0	0	528	615
15	0	0	0	0	529	616
0	0	0	0	0	529	617
1	0	0	0	0	528	615
2	0	0	0	0	528	618
3	0	0	0	0	527	616
4	0	0	0	0	525	616
5	0	0	0	0	524	616
6	0	0	0	0	522	615
7	0	0	0	0	520	616
8	0	0	0	0	519	616
9	0	0	0	0	518	616
10	0	0	0	0	517	618
11	0	0	0	0	518	615
12	0	0	0	0	518	616
13	0	0	0	0	519	616
14	0	0	0	0	520	615
15	0	0	0	0	522	616
0	0	0	0	0	524	616
1	0	0	0	0	525	616
2	0	0	0	0	527	619
3	0	0	0	0	527	616
4	0	0	0	0	528	615
5	0	0	0	0	529	615
6	0	0	0	0	528	614
7	0	0	0	0	527	616
8	0	0	0	0	525	616
9	0	0	0	0	523	616
10	0	0	0	0	522	618
11	0	0	0	0	521	617
12	0	0	0	0	519	616
13	0	0	0	0	519	616
14	0	0	0	0	519	615
15	0	0	0	0	519	615
0	0	0	0	0	519	616
1	0	0	0	0	520	616
2	0	0	0	0	521	619
3	0	0	0	0	523	616
4	0	0	0	0	524	616
5	0	0	0	0	525	616
6	0	0	0	0	526	615
7	0	0	0	0	527	616
8	0	0	0	0	528	615
9	0	0	0	0	528	616
10	0	0	0	0	527	618
11	0	0	0	0	526	616
12	0	0	0	0	524	616
13	0	0	0	0	523	616
14	0	0	0	0	521	615
15	0	0	0	0	519	616
0	0	0	0	0	517	616
1	0	0	0	0	516	616
2	0	0	0	0	516	618
3	0	0	0	0	517	616
4	0	0	0	0	518	616
5	0	0	0	0	519	616
6	0	0	0	0	520	615
7	0	0	0	0	522	616
8	0	0	0	0	523	616
9	0	0	0	0	525	616
10	0	0	0	0	527	619
11	0	0	0	0	528	616
12	0	0	0	0	528	616
13	0	0	0	0	527	616
14	0	0	0	0	527	615
15	0	0	0	0	526	616
0	0	0	0	0	525	616
1	0	0	0	0	523	616
2	0	0	0	0	520	618
3	0	0	0	0	519	616
4	0	0	0	0	516	616
5	0	0	0	0	515	615
6	0	0	0	0	515	615
7	0	0	0	0	515	616
8	0	0	0	0	515	616
9	0	0	0	0	515	616
10	0	0	0	0	516	619
11	0	0	0	0	518	616
12	0	0	0	0	519	616
13	0	0	0	0	521	616
14	0	0	0	0	523	614
15	0	0	0	0	524	616
0	0	0	0	0	524	616
1	0	0	0	0	524	616
2	0	0	0	0	523	619
3	0	0	0	0	521	616
4	0	0	0	0	520	616
5	0	0	0	0	518	616
6	0	0	0	0	515	614
7	0	0	0	0	513	617
8	0	0	0	0	512	616
9	0	0	0	0	512	616
10	0	0	0	0	512	618
11	0	0	0	0	512	616
12	0	0	0	0	512	615
13	0	0	0	0	513	615
14	0	0	0	0	513	615
15	0	0	0	0	515	616
0	0	0	0	0	516	616
1	0	0	0	0	518	616
2	0	0	0	0	518	617
3	0	0	0	0	520	616
4	0	0	0	0	520	616
5	0	0	0	0	520	616
6	0	0	0	0	520	615
7	0	0	0	0	519	616
8	0	0	0	0	519	616
9	0	0	0	0	517	616
10	0	0	0	0	515	618
11	0	0	0	0	513	616
12	0	0	0	0	512	616
13	0	0	0	0	511	615
14	0	0	0	0	510	615
15	0	0	0	0	511	616
0	0	0	0	0	511	616
1	0	0	0	0	512	616
2	0	0	0	0	513	618
3	0	0	0	0	514	616
4	0	0	0	0	515	615
5	0	0	0	0	515	615
6	0	0	0	0	517	614
7	0	0	0	0	518	615
8	0	0	0	0	519	615
9	0	0	0	0	519	615
10	0	0	0	0	518	618
11	0	0	0	0	517	616
12	0	0	0	0	516	616
13	0	0	0	0	515	616
14	0	0	0	0	513	614
15	0	0	0	0	511	616
0	0	0	0	0	509	616
1	0	0	0	0	508	616
2	0	0	0	0	507	618
3	0	0	0	0	507	616
4	0	0	0	0	507	616
5	0	0	0	0	508	616
6	0	0	0	0	510	615
7	0	0	0	0	511	616
8	0	0	0	0	512	616
9	0	0	0	0	513	616
10	0	0	0	0	515	619
11	0	0	0	0	516	616
12	0	0	0	0	516	615
13	0	0	0	0	517	616
14	0	0	0	0	517	615
15	0	0	0	0	516	616
0	0	0	0	0	514	615
1	0	0	0	0	512	615
2	0	0	0	0	510	618
3	0	0	0	0	508	616
4	0	0	0	0	507	616
5	0	0	0	0	507	616
6	0	0	0	0	507	615
7	0	0	0	0	507	616
8	0	0	0	0	507	616
9	0	0	0	0	508	616
10	0	0	0	0	509	619
11	0	0	0	0	511	616
12	0	0	0	0	512	615
13	0	0	0	0	513	615
14	0	0	0	0	514	614
15	0	0	0	0	515	616
0	0	0	0	0	515	616
1	0	0	0	0	515	616
2	0	0	0	0	515	619
3	0	0	0	0	515	616
4	0	0	0	0	513	616
5	0	0	0	0	512	616
6	0	0	0	0	509	614
7	0	0	0	0	508	616
8	0	0	0	0	505	615
9	0	0	0	0	504	615
10	0	0	0	0	504	618
11	0	0	0	0	504	616
12	0	0	0	0	504	616
13	0	0	0	0	505	616
14	0	0	0	0	507	615
15	0	0	0	0	508	616
0	0	0	0	0	509	616
1	0	0	0	0	510	616
2	0	0	0	0	511	619
3	0	0	0	0	512	617
4	0	0	0	0	512	617
5	0	0	0	0	512	616
6	0	0	0	0	512	615
7	0	0	0	0	511	615
8	0	0	0	0	510	615
9	0	0	0	0	509	616
10	0	0	0	0	507	618
11	0	0	0	0	506	616
12	0	0	0	0	504	616
13	0	0	0	0	504	616
14	0	0	0	0	504	614
15	0	0	0	0	504	616
0	0	0	0	0	504	616
1	0	0	0	0	505	616
2	0	0	0	0	507	618
3	0	0	0	0	508	615
4	0	0	0	0	508	615
5	0	0	0	0	510	616
6	0	0	0	0	510	615
7	0	0	0	0	511	616
8	0	0	0	0	512	616
9	0	0	0	0	512	616
10	0	0	0	0	512	618
11	0	0	0	0	511	615
12	0	0	0	0	510	616
13	0	0	0	0	508	616
14	0	0	0	0	506	614
15	0	0	0	0	504	616
0	0	0	0	0	502	616
1	0	0	0	0	502	616
2	0	0	0	0	501	618
3	0	0	0	0	501	615
4	0	0	0	0	502	616
5	0	0	0	0	503	616
6	0	0	0	0	504	614
7	0	0	0	0	505	615
8	0	0	0	0	508	616
9	0	0	0	0	509	615
10	0	0	0	0	511	618
11	0	0	0	0	511	616
12	0	0	0	0	512	616
13	0	0	0	0	512	615
14	0	0	0	0	511	615
15	0	0	0	0	510	616
0	0	0	0	0	510	616
1	0	0	0	0	508	616
2	0	0	0	0	506	618
3	0	0	0	0	504	616
4	0	0	0	0	503	616
5	0	0	0	0	503	616
6	0	0	0	0	503	615
7	0	0	0	0	503	616
8	0	0	0	0	503	616
9	0	0	0	0	504	616
10	0	0	0	0	505	618
11	0	0	0	0	506	616
12	0	0	0	0	508	616
13	0	0	0	0	509	617
14	0	0	0	0	510	615
15	0	0	0	0	510	616
0	0	0	0	0	511	616
1	0	0	0	0	511	616
2	0	0	0	0	511	619
3	0	0	0	0	510	616
4	0	0	0	0	509	616
5	0	0	0	0	507	616
6	0	0	0	0	505	614
7	0	0	0	0	503	615
8	0	0	0	0	501	615
9	0	0	0	0	500	615
10	0	0	0	0	500	618
11	0	0	0	0	500	615
12	0	0	0	0	501	616
13	0	0	0	0	502	616
14	0	0	0	0	503	615
15	0	0	0	0	504	615
0	0	0	0	0	506	615
1	0	0	0	0	508	615
2	0	0	0	0	509	618
3	0	0	0	0	510	616
4	0	0	0	0	511	617
5	0	0	0	0	511	616
6	0	0	0	0	511	615
7	0	0	0	0	510	615
8	0	0	0	0	509	616
9	0	0	0	0	508	616
10	0	0	0	0	506	619
11	0	0	0	0	505	616
12	0	0	0	0	504	616
13	0	0	0	0	504	616
14	0	0	0	0	503	615
15	0	0	0	0	503	615
0	0	0	0	0	504	616
1	0	0	0	0	504	616
2	0	0	0	0	506	618
3	0	0	0	0	507	615
4	0	0	0	0	509	615
5	0	0	0	0	510	616
6	0	0	0	0	511	615
7	0	0	0	0	511	616
8	0	0	0	0	512	616
9	0	0	0	0	512	616
10	0	0	0	0	511	618
11	0	0	0	0	510	616
12	0	0	0	0	508	616
13	0	0	0	0	507	615
14	0	0	0	0	505	614
15	0	0	0	0	503	616
0	0	0	0	0	501	616
1	0	0	0	0	500	616
2	0	0	0	0	500	619
3	0	0	0	0	500	616
4	0	0	0	0	501	617
5	0	0	0	0	502	616
6	0	0	0	0	504	615
7	0	0	0	0	505	616
8	0	0	0	0	507	616
9	0	0	0	0	508	616
10	0	0	0	0	510	619
11	0	0	0	0	510	615
12	0	0	0	0	511	615
13	0	0	0	0	511	616
14	0	0	0	0	510	614
15	0	0	0	0	509	617
0	0	0	0	0	508	617
1	0	0	0	0	506	617
2	0	0	0	0	504	619
3	0	0	0	0	502	615
4	0	0	0	0	500	615
5	0	0	0	0	499	615
6	0	0	0	0	499	613
7	0	0	0	0	499	615
8	0	0	0	0	500	617
9	0	0	0	0	501	618
10	0	0	0	0	502	620
11	0	0	0	0	504	617
12	0	0	0	0	506	616
13	0	0	0	0	508	617
14	0	0	0	0	508	615
15	0	0	0	0	509	617
0	0	0	0	0	510	615
1	0	0	0	0	510	616
2	0	0	0	0	508	618
3	0	0	0	0	508	615
4	0	0	0	0	506	616
5	0	0	0	0	504	616
6	0	0	0	0	502	614
7	0	0	0	0	501	615
8	0	0	0	0	499	615
9	0	0	0	0	498	614
10	0	0	0	0	497	616
11	0	0	0	0	497	614
12	0	0	0	0	497	614
13	0	0	0	0	498	615
14	0	0	0	0	499	614
15	0	0	0	0	500	616
0	0	0	0	0	502	616
1	0	0	0	0	504	615
2	0	0	0	0	504	618
3	0	0	0	0	505	615
4	0	0	0	0	507	617
5	0	0	0	0	507	617
6	0	0	0	0	506	615
7	0	0	0	0	504	615
8	0	0	0	0	503	615
9	0	0	0	0	502	616
10	0	0	0	0	499	619
11	0	0	0	0	499	617
12	0	0	0	0	497	617
13	0	0	0	0	497	615
14	0	0	0	0	497	614
15	0	0	0	0	498	616
0	0	0	0	0	500	617
1	0	0	0	0	502	617
2	0	0	0	0	504	619
3	0	0	0	0	505	616
4	0	0	0	0	507	617
5	0	0	0	0	510	617
6	0	0	0	0	511	616
7	0	0	0	0	513	618
8	0	0	0	0	514	617
9	0	0	0	0	513	616
10	0	0	0	0	513	618
11	0	0	0	0	512	616
12	0	0	0	0	511	616
13	0	0	0	0	510	616
14	0	0	0	0	508	614
15	0	0	0	0	506	616
0	0	0	0	0	504	615
1	0	0	0	0	504	616
2	0	0	0	0	504	618
3	0	0	0	0	504	616
4	0	0	0	0	504	616
5	0	0	0	0	505	615
6	0	0	0	0	506	614
7	0	0	0	0	508	615
8	0	0	0	0	510	615
9	0	0	0	0	512	615
10	0	0	0	0	513	618
11	0	0	0	0	515	616
12	0	0	0	0	516	617
13	0	0	0	0	516	616
14	0	0	0	0	516	615
15	0	0	0	0	515	616
0	0	0	0	0	513	616
1	0	0	0	0	511	616
2	0	0	0	0	510	618
3	0	0	0	0	508	615
4	0	0	0	0	507	615
5	0	0	0	0	505	615
6	0	0	0	0	505	614
7	0	0	0	0	505	615
8	0	0	0	0	507	616
9	0	0	0	0	508	615
10	0	0	0	0	509	618
11	0	0	0	0	512	616
12	0	0	0	0	514	616
13	0	0	0	0	515	616
14	0	0	0	0	517	615
15	0	0	0	0	518	615
0	0	0	0	0	519	615
1	0	0	0	0	518	615
2	0	0	0	0	518	619
3	0	0	0	0	517	617
4	0	0	0	0	516	616
5	0	0	0	0	514	616
6	0	0	0	0	511	615
7	0	0	0	0	510	616
8	0	0	0	0	508	616
9	0	0	0	0	507	616
10	0	0	0	0	507	618
11	0	0	0	0	507	616
12	0	0	0	0	508	616
13	0	0	0	0	508	615
14	0	0	0	0	510	615
15	0	0	0	0	511	616
0	0	0	0	0	513	616
1	0	0	0	0	515	616
2	0	0	0	0	516	619
3	0	0	0	0	517	616
4	0	0	0	0	517	616
5	0	0	0	0	516	616
6	0	0	0	0	515	614
7	0	0	0	0	515	616
8	0	0	0	0	513	616
9	0	0	0	0	511	616
10	0	0	0	0	510	618
11	0	0	0	0	508	616
12	0	0	0	0	506	616
13	0	0	0	0	506	616
14	0	0	0	0	505	615
15	0	0	0	0	505	615
0	0	0	0	0	507	615
1	0	0	0	0	508	615
2	0	0	0	0	508	618
3	0	0	0	0	510	615
4	0	0	0	0	511	616
5	0	0	0	0	512	616
6	0	0	0	0	513	615
7	0	0	0	0	514	616
8	0	0	0	0	515	616
9	0	0	0	0	514	616
10	0	0	0	0	513	619
11	0	0	0	0	511	616
12	0	0	0	0	510	616
13	0	0	0	0	506	616
14	0	0	0	0	502	615
15	0	0	0	0	498	616
0	0	0	0	0	493	617
1	0	0	0	0	485	616
2	0	0	0	0	476	618
3	0	0	0	0	467	616
4	0	0	0	0	456	616
5	0	0	0	0	445	616
6	0	0	0	0	435	615
7	0	0	0	0	425	616
8	0	0	0	0	416	616
9	0	0	0	0	407	617
10	0	0	0	0	399	618
11	0	0	0	0	393	616
12	0	0	0	0	390	616
13	0	0	0	0	389	615
14	0	0	0	0	388	615
15	0	0	0	0	388	616
0	0	0	0	0	391	616
1	0	0	0	0	396	616
2	0	0	0	0	402	618
3	0	0	0	0	409	616
4	0	0	0	0	415	616
5	0	0	0	0	423	616
6	0	0	0	0	431	614
7	0	0	0	0	441	615
8	0	0	0	0	457	615
9	0	0	0	0	478	616
10	0	0	0	0	504	619
11	0	0	0	0	531	616
12	0	0	0	0	567	616
13	0	0	0	0	612	616
14	0	0	0	0	664	615
15	0	0	0	0	718	616
0	0	0	0	0	775	616
1	0	0	0	0	833	616
2	0	0	0	0	888	618
3	0	0	0	0	937	616
4	0	0	0	0	978	617
5	0	0	0	0	1011	616
6	0	0	0	0	1022	615
7	0	0	0	0	1022	616
8	0	0	0	0	1022	616
9	0	0	0	0	1022	616
10	0	0	0	0	1022	619
11	0	0	0	0	1022	616
12	0	0	0	0	1022	616
13	0	0	0	0	1022	616
14	0	0	0	0	1022	614
15	0	0	0	0	1008	616
0	0	0	0	0	981	616
1	0	0	0	0	949	616
2	0	0	0	0	913	619
3	0	0	0	0	875	616
4	0	0	0	0	838	617
5	0	0	0	0	803	616
6	0	0	0	0	771	615
7	0	0	0	0	742	616
8	0	0	0	0	714	616
9	0	0	0	0	687	615
10	0	0	0	0	663	617
11	0	0	0	0	641	616
12	0	0	0	0	623	616
13	0	0	0	0	606	616
14	0	0	0	0	590	614
15	0	0	0	0	574	616
0	0	0	0	0	559	616
1	0	0	0	0	545	616
2	0	0	0	0	530	619
3	0	0	0	0	516	616
4	0	0	0	0	503	615
5	0	0	0	0	489	616
6	0	0	0	0	477	615
7	0	0	0	0	466	616
8	0	0	0	0	456	616
9	0	0	0	0	445	616
10	0	0	0	0	435	618
11	0	0	0	0	425	616
12	0	0	0	0	415	616
13	0	0	0	0	407	616
14	0	0	0	0	399	614
15	0	0	0	0	392	616
0	0	0	0	0	387	616
1	0	0	0	0	382	616
2	0	0	0	0	379	618
3	0	0	0	0	376	616
4	0	0	0	0	375	616
5	0	0	0	0	374	616
6	0	0	0	0	374	614
7	0	0	0	0	374	615
8	0	0	0	0	373	616
9	0	0	0	0	374	616
10	0	0	0	0	375	618
11	0	0	0	0	376	616
12	0	0	0	0	377	615
13	0	0	0	0	376	615
14	0	0	0	0	377	614
15	0	0	0	0	376	616
0	0	0	0	0	375	616
1	0	0	0	0	374	615
2	0	0	0	0	372	617
3	0	0	0	0	371	616
4	0	0	0	0	370	616
5	0	0	0	0	369	616
6	0	0	0	0	370	614
7	0	0	0	0	371	615
8	0	0	0	0	373	616
9	0	0	0	0	374	616
10	0	0	0	0	376	618
11	0	0	0	0	378	616
12	0	0	0	0	380	615
13	0	0	0	0	383	616
14	0	0	0	0	385	615
15	0	0	0	0	388	616
0	0	0	0	0	389	616
1	0	0	0	0	390	616
2	0	0	0	0	390	619
3	0	0	0	0	390	616
4	0	0	0	0	391	615
5	0	0	0	0	390	616
6	0	0	0	0	388	615
7	0	0	0	0	388	617
8	0	0	0	0	388	616
9	0	0	0	0	388	616
10	0	0	0	0	389	618
11	0	0	0	0	390	616
12	0	0	0	0	392	616
13	0	0	0	0	394	616
14	0	0	0	0	397	615
15	0	0	0	0	399	616
0	0	0	0	0	402	616
1	0	0	0	0	404	616
2	0	0	0	0	407	618
3	0	0	0	0	410	616
4	0	0	0	0	411	616
5	0	0	0	0	413	616
6	0	0	0	0	413	614
7	0	0	0	0	412	616
8	0	0	0	0	412	615
9	0	0	0	0	411	616
10	0	0	0	0	410	618
11	0	0	0	0	409	616
12	0	0	0	0	408	615
13	0	0	0	0	408	617
14	0	0	0	0	408	614
15	0	0	0	0	409	616
0	0	0	0	0	411	616
1	0	0	0	0	412	616
2	0	0	0	0	415	618
3	0	0	0	0	417	615
4	0	0	0	0	419	615
5	0	0	0	0	422	616
6	0	0	0	0	423	614
7	0	0	0	0	425	616
8	0	0	0	0	426	615
9	0	0	0	0	428	615
10	0	0	0	0	428	619
11	0	0	0	0	428	616
12	0	0	0	0	427	615
13	0	0	0	0	427	615
14	0	0	0	0	426	614
15	0	0	0	0	425	616
0	0	0	0	0	424	616
1	0	0	0	0	425	616
2	0	0	0	0	425	618
3	0	0	0	0	427	615
4	0	0	0	0	428	615
5	0	0	0	0	429	615
6	0	0	0	0	431	615
7	0	0	0	0	432	616
8	0	0	0	0	433	616
9	0	0	0	0	435	616
10	0	0	0	0	437	618
11	0	0	0	0	439	615
12	0	0	0	0	440	616
13	0	0	0	0	440	616
14	0	0	0	0	440	615
15	0	0	0	0	439	616
0	0	0	0	0	437	615
1	0	0	0	0	436	616
2	0	0	0	0	435	618
3	0	0	0	0	433	616
4	0	0	0	0	432	615
5	0	0	0	0	431	616
6	0	0	0	0	431	614
7	0	0	0	0	431	615
8	0	0	0	0	432	615
9	0	0	0	0	433	615
10	0	0	0	0	435	617
11	0	0	0	0	437	615
12	0	0	0	0	439	616
13	0	0	0	0	441	616
14	0	0	0	0	442	615
15	0	0	0	0	443	616
0	0	0	0	0	444	616
1	0	0	0	0	444	616
2	0	0	0	0	444	618
3	0	0	0	0	443	616
4	0	0	0	0	441	616
5	0	0	0	0	440	616
6	0	0	0	0	438	615
7	0	0	0	0	436	616
8	0	0	0	0	435	616
9	0	0	0	0	435	616
10	0	0	0	0	435	618
11	0	0	0	0	436	616
12	0	0	0	0	437	616
13	0	0	0	0	439	615
14	0	0	0	0	440	615
15	0	0	0	0	442	616
0	0	0	0	0	444	616
1	0	0	0	0	446	616
2	0	0	0	0	448	619
3	0	0	0	0	450	616
4	0	0	0	0	451	616
5	0	0	0	0	451	616
6	0	0	0	0	451	615
7	0	0	0	0	451	616
8	0	0	0	0	451	616
9	0	0	0	0	449	616
10	0	0	0	0	448	618
11	0	0	0	0	447	616
12	0	0	0	0	445	617
13	0	0	0	0	445	616
14	0	0	0	0	445	614
15	0	0	0	0	445	616
0	0	0	0	0	447	616
1	0	0	0	0	448	616
2	0	0	0	0	449	619
3	0	0	0	0	452	616
4	0	0	0	0	454	616
5	0	0	0	0	456	616
6	0	0	0	0	459	614
7	0	0	0	0	460	616
8	0	0	0	0	462	616
9	0	0	0	0	463	615
10	0	0	0	0	463	618
11	0	0	0	0	463	616
12	0	0	0	0	463	616
13	0	0	0	0	463	616
14	0	0	0	0	461	615
15	0	0	0	0	461	616
0	0	0	0	0	460	616
1	0	0	0	0	460	616
2	0	0	0	0	461	618
3	0	0	0	0	463	616
4	0	0	0	0	465	616
5	0	0	0	0	467	616
6	0	0	0	0	469	614
7	0	0	0	0	472	615
8	0	0	0	0	475	616
9	0	0	0	0	477	616
10	0	0	0	0	480	619
11	0	0	0	0	482	617
12	0	0	0	0	484	616
13	0	0	0	0	486	616
14	0	0	0	0	487	615
15	0	0	0	0	487	616
0	0	0	0	0	488	616
1	0	0	0	0	487	616
2	0	0	0	0	487	619
3	0	0	0	0	487	616
4	0	0	0	0	487	617
5	0	0	0	0	487	616
6	0	0	0	0	488	614
7	0	0	0	0	490	616
8	0	0	0	0	492	616
9	0	0	0	0	494	616
10	0	0	0	0	496	619
11	0	0	0	0	499	616
12	0	0	0	0	502	616
13	0	0	0	0	505	616
14	0	0	0	0	508	615
15	0	0	0	0	510	617
0	0	0	0	0	512	617
1	0	0	0	0	513	615
2	0	0	0	0	514	618
3	0	0	0	0	513	616
4	0	0	0	0	512	616
5	0	0	0	0	511	616
6	0	0	0	0	510	615
7	0	0	0	0	508	616
8	0	0	0	0	508	615
9	0	0	0	0	508	616
10	0	0	0	0	508	618
11	0	0	0	0	508	616
12	0	0	0	0	511	616
13	0	0	0	0	513	616
14	0	0	0	0	515	614
15	0	0	0	0	517	616
0	0	0	0	0	519	616
1	0	0	0	0	521	616
2	0	0	0	0	524	618
3	0	0	0	0	526	616
4	0	0	0	0	528	616
5	0	0	0	0	528	615
6	0	0	0	0	529	615
7	0	0	0	0	528	616
8	0	0	0	0	528	616
9	0	0	0	0	527	616
10	0	0	0	0	526	619
11	0	0	0	0	526	616
12	0	0	0	0	525	616
13	0	0	0	0	524	616
14	0	0	0	0	525	614
15	0	0	0	0	526	616
0	0	0	0	0	526	616
1	0	0	0	0	527	616
2	0	0	0	0	529	619
3	0	0	0	0	531	616
4	0	0	0	0	533	616
5	0	0	0	0	535	617
6	0	0	0	0	536	615
7	0	0	0	0	537	616
8	0	0	0	0	539	616
9	0	0	0	0	540	616
10	0	0	0	0	540	619
11	0	0	0	0	540	616
12	0	0	0	0	539	616
13	0	0	0	0	538	615
14	0	0	0	0	536	614
15	0	0	0	0	536	616
0	0	0	0	0	534	616
1	0	0	0	0	534	615
2	0	0	0	0	534	618
3	0	0	0	0	535	616
4	0	0	0	0	536	616
5	0	0	0	0	537	616
6	0	0	0	0	538	615
7	0	0	0	0	540	616
8	0	0	0	0	542	616
9	0	0	0	0	543	616
10	0	0	0	0	545	619
11	0	0	0	0	547	616
12	0	0	0	0	547	617
13	0	0	0	0	547	616
14	0	0	0	0	546	615
15	0	0	0	0	545	616
0	0	0	0	0	544	616
1	0	0	0	0	543	617
2	0	0	0	0	540	619
3	0	0	0	0	539	617
4	0	0	0	0	538	617
5	0	0	0	0	537	616
6	0	0	0	0	536	615
7	0	0	0	0	535	616
8	0	0	0	0	536	616
9	0	0	0	0	537	616
10	0	0	0	0	538	618
11	0	0	0	0	540	616
12	0	0	0	0	541	616
13	0	0	0	0	542	615
14	0	0	0	0	543	615
15	0	0	0	0	543	616
0	0	0	0	0	545	616
1	0	0	0	0	545	616
2	0	0	0	0	545	619
3	0	0	0	0	543	617
4	0	0	0	0	542	616
5	0	0	0	0	539	616
6	0	0	0	0	536	615
7	0	0	0	0	534	616
8	0	0	0	0	532	616
9	0	0	0	0	531	616
10	0	0	0	0	531	618
11	0	0	0	0	530	616
12	0	0	0	0	531	617
13	0	0	0	0	532	616
14	0	0	0	0	532	615
15	0	0	0	0	533	616
0	0	0	0	0	534	616
1	0	0	0	0	536	615
2	0	0	0	0	537	618
3	0	0	0	0	537	615
4	0	0	0	0	538	615
5	0	0	0	0	538	615
6	0	0	0	0	537	615
7	0	0	0	0	535	616
8	0	0	0	0	534	616
9	0	0	0	0	531	616
10	0	0	0	0	529	618
11	0	0	0	0	527	616
12	0	0	0	0	526	616
13	0	0	0	0	524	616
14	0	0	0	0	524	614
15	0	0	0	0	524	616
0	0	0	0	0	524	616
1	0	0	0	0	525	616
2	0	0	0	0	526	619
3	0	0	0	0	527	616
4	0	0	0	0	528	616
5	0	0	0	0	529	616
6	0	0	0	0	531	614
7	0	0	0	0	532	616
8	0	0	0	0	532	615
9	0	0	0	0	532	616
10	0	0	0	0	532	618
11	0	0	0	0	531	615
12	0	0	0	0	529	615
13	0	0	0	0	527	615
14	0	0	0	0	526	615
15	0	0	0	0	524	616
0	0	0	0	0	522	615
1	0	0	0	0	521	615
2	0	0	0	0	521	617
3	0	0	0	0	520	615
4	0	0	0	0	521	616
5	0	0	0	0	523	616
6	0	0	0	0	523	615
7	0	0	0	0	526	615
8	0	0	0	0	527	616
9	0	0	0	0	530	616
10	0	0	0	0	531	618
11	0	0	0	0	532	616
12	0	0	0	0	533	616
13	0	0	0	0	533	615
14	0	0	0	0	533	615
15	0	0	0	0	531	615
0	0	0	0	0	530	616
1	0	0	0	0	529	616
2	0	0	0	0	527	619
3	0	0	0	0	525	616
4	0	0	0	0	523	615
5	0	0	0	0	523	615
6	0	0	0	0	522	614
7	0	0	0	0	523	615
8	0	0	0	0	524	616
9	0	0	0	0	525	616
10	0	0	0	0	526	618
11	0	0	0	0	527	617
12	0	0	0	0	529	616
13	0	0	0	0	531	617
14	0	0	0	0	532	614
15	0	0	0	0	533	617
0	0	0	0	0	534	617
1	0	0	0	0	535	616
2	0	0	0	0	535	618
3	0	0	0	0	533	616
4	0	0	0	0	532	615
5	0	0	0	0	531	615
6	0	0	0	0	529	615
7	0	0	0	0	527	616
8	0	0	0	0	525	616
9	0	0	0	0	525	616
10	0	0	0	0	524	618
11	0	0	0	0	524	616
12	0	0	0	0	525	616
13	0	0	0	0	526	615
14	0	0	0	0	527	614
15	0	0	0	0	527	616
0	0	0	0	0	528	616
1	0	0	0	0	529	616
2	0	0	0	0	531	618
3	0	0	0	0	532	616
4	0	0	0	0	533	616
5	0	0	0	0	533	616
6	0	0	0	0	532	615
7	0	0	0	0	532	616
8	0	0	0	0	531	616
9	0	0	0	0	529	616
10	0	0	0	0	528	618
11	0	0	0	0	526	616
12	0	0	0	0	524	616
13	0	0	0	0	524	615
14	0	0	0	0	523	615
15	0	0	0	0	523	616
0	0	0	0	0	524	616
1	0	0	0	0	524	616
2	0	0	0	0	526	618
3	0	0	0	0	527	616
4	0	0	0	0	529	616
5	0	0	0	0	530	616
6	0	0	0	0	531	614
7	0	0	0	0	533	616
8	0	0	0	0	534	616
9	0	0	0	0	534	616
10	0	0	0	0	535	619
11	0	0	0	0	533	616
12	0	0	0	0	531	615
13	0	0	0	0	530	615
14	0	0	0	0	527	614
15	0	0	0	0	526	616
0	0	0	0	0	524	616
1	0	0	0	0	523	616
2	0	0	0	0	522	618
3	0	0	0	0	523	616
4	0	0	0	0	523	616
5	0	0	0	0	524	616
6	0	0	0	0	525	615
7	0	0	0	0	527	616
8	0	0	0	0	528	616
9	0	0	0	0	530	616
10	0	0	0	0	530	618
11	0	0	0	0	531	616
12	0	0	0	0	531	616
13	0	0	0	0	531	615
14	0	0	0	0	531	614
15	0	0	0	0	530	616
0	0	0	0	0	528	616
1	0	0	0	0	527	616
2	0	0	0	0	525	618
3	0	0	0	0	523	615
4	0	0	0	0	521	616
5	0	0	0	0	521	616
6	0	0	0	0	520	614
7	0	0	0	0	520	616
8	0	0	0	0	521	616
9	0	0	0	0	522	616
10	0	0	0	0	523	618
11	0	0	0	0	524	616
12	0	0	0	0	524	615
13	0	0	0	0	526	615
14	0	0	0	0	527	614
15	0	0	0	0	527	616
0	0	0	0	0	529	615
1	0	0	0	0	529	615
2	0	0	0	0	529	619
3	0	0	0	0	528	616
4	0	0	0	0	527	616
5	0	0	0	0	526	616
6	0	0	0	0	524	615
7	0	0	0	0	522	616
8	0	0	0	0	521	616
9	0	0	0	0	520	616
10	0	0	0	0	520	618
11	0	0	0	0	520	615
12	0	0	0	0	521	616
13	0	0	0	0	522	616
14	0	0	0	0	521	614
15	0	0	0	0	522	615
0	0	0	0	0	522	616
1	0	0	0	0	523	615
2	0	0	0	0	523	618
3	0	0	0	0	523	615
4	0	0	0	0	523	615
5	0	0	0	0	523	615
6	0	0	0	0	522	614
7	0	0	0	0	521	616
8	0	0	0	0	520	616
9	0	0	0	0	519	617
10	0	0	0	0	517	618
11	0	0	0	0	516	617
12	0	0	0	0	515	616
13	0	0	0	0	514	615
14	0	0	0	0	514	614
15	0	0	0	0	515	616
0	0	0	0	0	515	616
1	0	0	0	0	516	616
2	0	0	0	0	517	618
3	0	0	0	0	519	616
4	0	0	0	0	520	616
5	0	0	0	0	521	616
6	0	0	0	0	522	614
7	0	0	0	0	524	616
8	0	0	0	0	525	616
9	0	0	0	0	525	615
10	0	0	0	0	525	618
11	0	0	0	0	524	616
12	0	0	0	0	522	615
13	0	0	0	0	520	616
14	0	0	0	0	518	615
15	0	0	0	0	516	616
0	0	0	0	0	515	616
1	0	0	0	0	514	616
2	0	0	0	0	513	619
3	0	0	0	0	513	616
4	0	0	0	0	513	615
5	0	0	0	0	514	616
6	0	0	0	0	515	615
7	0	0	0	0	516	615
8	0	0	0	0	518	615
9	0	0	0	0	518	616
10	0	0	0	0	519	619
11	0	0	0	0	521	616
12	0	0	0	0	522	616
13	0	0	0	0	522	616
14	0	0	0	0	522	614
15	0	0	0	0	521	615
0	0	0	0	0	520	616
1	0	0	0	0	518	616
2	0	0	0	0	516	618
3	0	0	0	0	515	616
4	0	0	0	0	514	616
5	0	0	0	0	513	616
6	0	0	0	0	513	614
7	0	0	0	0	513	615
8	0	0	0	0	513	616
9	0	0	0	0	513	616
10	0	0	0	0	514	618
11	0	0	0	0	515	616
12	0	0	0	0	518	615
13	0	0	0	0	519	616
14	0	0	0	0	520	614
15	0	0	0	0	521	615
0	0	0	0	0	521	615
1	0	0	0	0	521	616
2	0	0	0	0	522	617
3	0	0	0	0	521	616
4	0	0	0	0	519	616
5	0	0	0	0	518	615
6	0	0	0	0	516	615
7	0	0	0	0	515	615
8	0	0	0	0	513	616
9	0	0	0	0	512	616
10	0	0	0	0	512	618
11	0	0	0	0	511	615
12	0	0	0	0	512	616
13	0	0	0	0	513	616
14	0	0	0	0	514	615
15	0	0	0	0	516	616
0	0	0	0	0	518	616
1	0	0	0	0	519	616
2	0	0	0	0	520	618
3	0	0	0	0	521	616
4	0	0	0	0	522	616
5	0	0	0	0	522	615
6	0	0	0	0	521	615
7	0	0	0	0	519	616
8	0	0	0	0	519	616
9	0	0	0	0	517	616
10	0	0	0	0	515	619
11	0	0	0	0	513	617
12	0	0	0	0	511	616
13	0	0	0	0	510	616
14	0	0	0	0	510	614
15	0	0	0	0	510	616
0	0	0	0	0	510	617
1	0	0	0	0	511	616
2	0	0	0	0	512	619
3	0	0	0	0	513	616
4	0	0	0	0	514	616
5	0	0	0	0	516	616
6	0	0	0	0	517	615
7	0	0	0	0	518	616
8	0	0	0	0	519	617
9	0	0	0	0	519	616
10	0	0	0	0	519	618
11	0	0	0	0	518	616
12	0	0	0	0	517	616
13	0	0	0	0	515	616
14	0	0	0	0	513	615
15	0	0	0	0	512	616
0	0	0	0	0	510	616
1	0	0	0	0	509	616
2	0	0	0	0	508	618
3	0	0	0	0	508	616
4	0	0	0	0	508	616
5	0	0	0	0	509	615
6	0	0	0	0	510	614
7	0	0	0	0	511	616
8	0	0	0	0	512	617
9	0	0	0	0	513	616
10	0	0	0	0	515	618
11	0	0	0	0	515	616
12	0	0	0	0	516	615
13	0	0	0	0	517	615
14	0	0	0	0	515	614
15	0	0	0	0	514	615
0	0	0	0	0	512	615
1	0	0	0	0	511	615
2	0	0	0	0	508	618
3	0	0	0	0	506	616
4	0	0	0	0	504	617
5	0	0	0	0	503	616
6	0	0	0	0	503	614
7	0	0	0	0	503	616
8	0	0	0	0	503	616
9	0	0	0	0	504	616
10	0	0	0	0	505	618
11	0	0	0	0	507	616
12	0	0	0	0	510	615
13	0	0	0	0	512	615
14	0	0	0	0	513	615
15	0	0	0	0	514	617
0	0	0	0	0	515	618
1	0	0	0	0	515	618
2	0	0	0	0	514	620
3	0	0	0	0	513	615
4	0	0	0	0	512	614
5	0	0	0	0	510	612
6	0	0	0	0	508	612
7	0	0	0	0	507	617
8	0	0	0	0	505	621
9	0	0	0	0	504	622
10	0	0	0	0	503	623
11	0	0	0	0	502	617
12	0	0	0	0	503	616
13	0	0	0	0	504	616
14	0	0	0	0	505	615
15	0	0	0	0	507	616
0	0	0	0	0	509	616
1	0	0	0	0	511	615
2	0	0	0	0	513	617
3	0	0	0	0	514	614
4	0	0	0	0	515	614
5	0	0	0	0	516	615
6	0	0	0	0	515	615
7	0	0	0	0	513	616
8	0	0	0	0	512	616
9	0	0	0	0	510	615
10	0	0	0	0	508	616
11	0	0	0	0	507	615
12	0	0	0	0	505	615
13	0	0	0	0	504	615
14	0	0	0	0	504	612
15	0	0	0	0	504	611
0	0	0	0	0	505	612
1	0	0	0	0	507	615
2	0	0	0	0	508	618
3	0	0	0	0	509	619
4	0	0	0	0	511	619
5	0	0	0	0	512	617
6	0	0	0	0	513	615
7	0	0	0	0	515	616
8	0	0	0	0	515	617
9	0	0	0	0	515	618
10	0	0	0	0	515	620
11	0	0	0	0	514	616
12	0	0	0	0	513	617
13	0	0	0	0	512	617
14	0	0	0	0	509	616
15	0	0	0	0	507	619
0	0	0	0	0	505	619
1	0	0	0	0	504	618
2	0	0	0	0	504	619
3	0	0	0	0	504	615
4	0	0	0	0	504	615
5	0	0	0	0	505	615
6	0	0	0	0	506	614
7	0	0	0	0	507	615
8	0	0	0	0	508	615
9	0	0	0	0	510	615
10	0	0	0	0	512	618
11	0	0	0	0	513	615
12	0	0	0	0	514	615
13	0	0	0	0	514	614
14	0	0	0	0	514	613
15	0	0	0	0	513	614
0	0	0	0	0	512	614
1	0	0	0	0	511	614
2	0	0	0	0	509	617
3	0	0	0	0	507	616
4	0	0	0	0	505	616
5	0	0	0	0	505	617
6	0	0	0	0	504	615
7	0	0	0	0	504	615
8	0	0	0	0	505	616
9	0	0	0	0	506	616
10	0	0	0	0	507	618
11	0	0	0	0	508	616
12	0	0	0	0	510	616
13	0	0	0	0	510	617
14	0	0	0	0	512	615
15	0	0	0	0	512	618
0	0	0	0	0	513	618
1	0	0	0	0	513	617
2	0	0	0	0	512	619
3	0	0	0	0	511	616
4	0	0	0	0	510	615
5	0	0	0	0	508	615
6	0	0	0	0	505	614
7	0	0	0	0	504	615
8	0	0	0	0	503	615
9	0	0	0	0	502	615
10	0	0	0	0	502	617
11	0	0	0	0	503	615
12	0	0	0	0	503	615
13	0	0	0	0	504	615
14	0	0	0	0	506	613
15	0	0	0	0	507	615
0	0	0	0	0	508	614
1	0	0	0	0	510	614
2	0	0	0	0	511	617
3	0	0	0	0	512	615
4	0	0	0	0	513	616
5	0	0	0	0	513	616
6	0	0	0	0	512	615
7	0	0	0	0	511	617
8	0	0	0	0	510	616
9	0	0	0	0	508	616
10	0	0	0	0	507	619
11	0	0	0	0	505	616
12	0	0	0	0	504	616
13	0	0	0	0	503	617
14	0	0	0	0	502	616
15	0	0	0	0	502	617
0	0	0	0	0	503	617
1	0	0	0	0	503	617
2	0	0	0	0	504	619
3	0	0	0	0	505	616
4	0	0	0	0	506	616
5	0	0	0	0	507	616
6	0	0	0	0	508	614
7	0	0	0	0	509	617
8	0	0	0	0	510	616
9	0	0	0	0	509	616
10	0	0	0	0	509	619
11	0	0	0	0	508	616
12	0	0	0	0	506	616
13	0	0	0	0	504	616
14	0	0	0	0	502	614
15	0	0	0	0	501	615
0	0	0	0	0	499	615
1	0	0	0	0	497	615
2	0	0	0	0	496	617
3	0	0	0	0	495	615
4	0	0	0	0	496	616
5	0	0	0	0	497	616
6	0	0	0	0	498	615
7	0	0	0	0	500	616
8	0	0	0	0	501	616
9	0	0	0	0	503	616
10	0	0	0	0	505	617
11	0	0	0	0	506	616
12	0	0	0	0	506	616
13	0	0	0	0	507	615
14	0	0	0	0	507	615
15	0	0	0	0	506	616
0	0	0	0	0	505	616
1	0	0	0	0	504	616
2	0	0	0	0	502	618
3	0	0	0	0	500	616
4	0	0	0	0	498	617
5	0	0	0	0	497	616
6	0	0	0	0	497	615
7	0	0	0	0	499	616
8	0	0	0	0	500	616
9	0	0	0	0	501	616
10	0	0	0	0	503	619
11	0	0	0	0	505	616
12	0	0	0	0	508	616
13	0	0	0	0	510	616
14	0	0	0	0	512	614
15	0	0	0	0	513	615
0	0	0	0	0	515	615
1	0	0	0	0	515	615
2	0	0	0	0	516	617
3	0	0	0	0	515	615
4	0	0	0	0	514	615
5	0	0	0	0	512	615
6	0	0	0	0	511	614
7	0	0	0	0	509	616
8	0	0	0	0	507	615
9	0	0	0	0	506	616
10	0	0	0	0	505	618
11	0	0	0	0	505	615
12	0	0	0	0	505	616
13	0	0	0	0	506	616
14	0	0	0	0	508	615
15	0	0	0	0	509	616
0	0	0	0	0	511	617
1	0	0	0	0	513	616
2	0	0	0	0	515	618
3	0	0	0	0	515	615
4	0	0	0	0	516	618
5	0	0	0	0	516	620
6	0	0	0	0	516	618
7	0	0	0	0	516	618
8	0	0	0	0	515	620
9	0	0	0	0	512	620
10	0	0	0	0	511	616
11	0	0	0	0	509	611
12	0	0	0	0	508	612
13	0	0	0	0	507	617
14	0	0	0	0	506	616
15	0	0	0	0	506	612
0	0	0	0	0	507	611
1	0	0	0	0	507	611
2	0	0	0	0	508	615
3	0	0	0	0	510	614
4	0	0	0	0	511	617
5	0	0	0	0	513	619
6	0	0	0	0	514	616
7	0	0	0	0	515	614
8	0	0	0	0	516	612
9	0	0	0	0	516	614
10	0	0	0	0	516	617
11	0	0	0	0	515	615
12	0	0	0	0	513	615
13	0	0	0	0	511	616
14	0	0	0	0	508	612
15	0	0	0	0	506	615
0	0	0	0	0	505	617
1	0	0	0	0	504	620
2	0	0	0	0	504	625
3	0	0	0	0	504	621
4	0	0	0	0	504	618
5	0	0	0	0	505	618
6	0	0	0	0	505	619
7	0	0	0	0	506	625
8	0	0	0	0	507	624
9	0	0	0	0	508	623
10	0	0	0	0	509	624
11	0	0	0	0	510	619
12	0	0	0	0	511	618
13	0	0	0	0	511	618
14	0	0	0	0	511	618
15	0	0	0	0	511	616
0	0	0	0	0	511	613
1	0	0	0	0	509	612
2	0	0	0	0	507	619
3	0	0	0	0	504	615
4	0	0	0	0	504	613
5	0	0	0	0	504	613
6	0	0	0	0	503	615
7	0	0	0	0	502	615
8	0	0	0	0	502	610
9	0	0	0	0	503	606
10	0	0	0	0	504	608
11	0	0	0	0	505	608
12	0	0	0	0	506	608
13	0	0	0	0	508	608
14	0	0	0	0	509	607
15	0	0	0	0	509	612
0	0	0	0	0	509	613
1	0	0	0	0	510	614
2	0	0	0	0	508	616
3	0	0	0	0	506	617
4	0	0	0	0	503	616
5	0	0	0	0	499	617
6	0	0	0	0	492	616
7	0	0	0	0	485	621
8	0	0	0	0	476	620
9	0	0	0	0	465	621
10	0	0	0	0	454	624
11	0	0	0	0	442	624
12	0	0	0	0	431	624
13	0	0	0	0	419	623
14	0	0	0	0	409	620
15	0	0	0	0	399	622
0	0	0	0	0	391	619
1	0	0	0	0	384	619
2	0	0	0	0	380	622
3	0	0	0	0	378	620
4	0	0	0	0	378	619
5	0	0	0	0	379	617
6	0	0	0	0	382	616
7	0	0	0	0	386	619
8	0	0	0	0	392	617
9	0	0	0	0	399	616
10	0	0	0	0	406	617
11	0	0	0	0	411	612
12	0	0	0	0	416	609
13	0	0	0	0	423	608
14	0	0	0	0	433	608
15	0	0	0	0	451	611
0	0	0	0	0	476	614
1	0	0	0	0	505	613
2	0	0	0	0	540	616
3	0	0	0	0	583	611
4	0	0	0	0	635	608
5	0	0	0	0	693	611
6	0	0	0	0	752	611
7	0	0	0	0	815	612
8	0	0	0	0	876	612
9	0	0	0	0	930	611
10	0	0	0	0	977	615
11	0	0	0	0	1014	615
12	0	0	0	0	1022	619
13	0	0	0	0	1022	620
14	0	0	0	0	1022	618
15	0	0	0	0	1022	617
0	0	0	0	0	1022	615
1	0	0	0	0	1022	616
2	0	0	0	0	1022	619
3	0	0	0	0	1022	618
4	0	0	0	0	1022	620
5	0	0	0	0	1020	620
6	0	0	0	0	990	617
7	0	0	0	0	960	617
8	0	0	0	0	924	618
9	0	0	0	0	887	621
10	0	0	0	0	850	623
11	0	0	0	0	816	619
12	0	0	0	0	785	617
13	0	0	0	0	755	615
14	0	0	0	0	727	614
15	0	0	0	0	700	617
0	0	0	0	0	674	619
1	0	0	0	0	651	620
2	0	0	0	0	631	621
3	0	0	0	0	612	616
4	0	0	0	0	594	613
5	0	0	0	0	575	611
6	0	0	0	0	558	611
7	0	0	0	0	543	614
8	0	0	0	0	527	614
9	0	0	0	0	513	614
10	0	0	0	0	499	617
11	0	0	0	0	486	615
12	0	0	0	0	475	615
13	0	0	0	0	464	615
14	0	0	0	0	455	615
15	0	0	0	0	445	616
0	0	0	0	0	435	617
1	0	0	0	0	427	616
2	0	0	0	0	417	620
3	0	0	0	0	408	617
4	0	0	0	0	400	614
5	0	0	0	0	392	612
6	0	0	0	0	384	610
7	0	0	0	0	377	611
8	0	0	0	0	370	613
9	0	0	0	0	364	615
10	0	0	0	0	360	622
11	0	0	0	0	357	621
12	0	0	0	0	356	621
13	0	0	0	0	356	618
14	0	0	0	0	356	617
15	0	0	0	0	357	618
0	0	0	0	0	359	616
1	0	0	0	0	363	615
2	0	0	0	0	366	615
3	0	0	0	0	369	613
4	0	0	0	0	371	614
5	0	0	0	0	373	615
6	0	0	0	0	374	618
7	0	0	0	0	375	621
8	0	0	0	0	375	622
9	0	0	0	0	373	620
10	0	0	0	0	371	619
11	0	0	0	0	370	615
12	0	0	0	0	368	615
13	0	0	0	0	367	615
14	0	0	0	0	368	613
15	0	0	0	0	368	617
0	0	0	0	0	369	617
1	0	0	0	0	370	620
2	0	0	0	0	373	625
3	0	0	0	0	376	623
4	0	0	0	0	380	622
5	0	0	0	0	383	615
6	0	0	0	0	385	608
7	0	0	0	0	387	606
8	0	0	0	0	389	610
9	0	0	0	0	390	614
10	0	0	0	0	390	620
11	0	0	0	0	390	620
12	0	0	0	0	390	617
13	0	0	0	0	388	617
14	0	0	0	0	387	618
15	0	0	0	0	385	623
0	0	0	0	0	384	624
1	0	0	0	0	383	617
2	0	0	0	0	383	610
3	0	0	0	0	383	598
4	0	0	0	0	384	595
5	0	0	0	0	387	601
6	0	0	0	0	390	608
7	0	0	0	0	394	615
8	0	0	0	0	399	615
9	0	0	0	0	402	614
10	0	0	0	0	405	613
11	0	0	0	0	408	612
12	0	0	0	0	411	613
13	0	0	0	0	412	614
14	0	0	0	0	413	609
15	0	0	0	0	413	607
0	0	0	0	0	412	609
1	0	0	0	0	411	614
2	0	0	0	0	409	623
3	0	0	0	0	409	628
4	0	0	0	0	408	631
5	0	0	0	0	407	629
6	0	0	0	0	407	622
7	0	0	0	0	407	620
8	0	0	0	0	409	620
9	0	0	0	0	410	619
10	0	0	0	0	412	624
11	0	0	0	0	415	624
12	0	0	0	0	417	624
13	0	0	0	0	419	624
14	0	0	0	0	422	622
15	0	0	0	0	424	626
0	0	0	0	0	426	626
1	0	0	0	0	427	623
2	0	0	0	0	428	620
3	0	0	0	0	427	610
4	0	0	0	0	426	604
5	0	0	0	0	425	603
6	0	0	0	0	422	605
7	0	0	0	0	420	612
8	0	0	0	0	416	615
9	0	0	0	0	415	613
10	0	0	0	0	415	611
11	0	0	0	0	415	607
12	0	0	0	0	417	607
13	0	0	0	0	419	608
14	0	0	0	0	421	607
15	0	0	0	0	423	608
0	0	0	0	0	425	608
1	0	0	0	0	429	609
2	0	0	0	0	432	616
3	0	0	0	0	435	620
4	0	0	0	0	438	624
5	0	0	0	0	439	624
6	0	0	0	0	439	620
7	0	0	0	0	438	617
8	0	0	0	0	436	616
9	0	0	0	0	435	616
10	0	0	0	0	432	620
11	0	0	0	0	430	621
12	0	0	0	0	428	622
13	0	0	0	0	427	622
14	0	0	0	0	427	622
15	0	0	0	0	427	623
0	0	0	0	0	428	622
1	0	0	0	0	428	620
2	0	0	0	0	430	619
3	0	0	0	0	432	616
4	0	0	0	0	435	614
5	0	0	0	0	438	613
6	0	0	0	0	440	611
7	0	0	0	0	442	615
8	0	0	0	0	443	617
9	0	0	0	0	444	618
10	0	0	0	0	444	619
11	0	0	0	0	442	613
12	0	0	0	0	441	611
13	0	0	0	0	440	609
14	0	0	0	0	438	607
15	0	0	0	0	436	611
0	0	0	0	0	434	611
1	0	0	0	0	433	612
2	0	0	0	0	432	616
3	0	0	0	0	432	616
4	0	0	0	0	432	617
5	0	0	0	0	434	618
6	0	0	0	0	435	615
7	0	0	0	0	437	615
8	0	0	0	0	439	613
9	0	0	0	0	441	614
10	0	0	0	0	444	617
11	0	0	0	0	447	617
12	0	0	0	0	449	619
13	0	0	0	0	451	621
14	0	0	0	0	451	620
15	0	0	0	0	451	621
0	0	0	0	0	451	621
1	0	0	0	0	449	619
2	0	0	0	0	447	620
3	0	0	0	0	445	616
4	0	0	0	0	443	615
5	0	0	0	0	442	615
6	0	0	0	0	442	615
7	0	0	0	0	443	618
8	0	0	0	0	445	619
9	0	0	0	0	448	618
10	0	0	0	0	449	620
11	0	0	0	0	451	616
12	0	0	0	0	453	614
13	0	0	0	0	456	613
14	0	0	0	0	458	610
15	0	0	0	0	460	611
0	0	0	0	0	461	613
1	0	0	0	0	463	614
2	0	0	0	0	464	617
3	0	0	0	0	464	615
4	0	0	0	0	463	617
5	0	0	0	0	462	617
6	0	0	0	0	462	615
7	0	0	0	0	462	616
8	0	0	0	0	462	614
9	0	0	0	0	461	614
10	0	0	0	0	462	616
11	0	0	0	0	463	616
12	0	0	0	0	464	619
13	0	0	0	0	465	619
14	0	0	0	0	467	619
15	0	0	0	0	469	620
0	0	0	0	0	472	619
1	0	0	0	0	474	618
2	0	0	0	0	477	619
3	0	0	0	0	480	616
4	0	0	0	0	483	615
5	0	0	0	0	486	615
6	0	0	0	0	488	615
7	0	0	0	0	489	617
8	0	0	0	0	489	618
9	0	0	0	0	490	618
10	0	0	0	0	489	620
11	0	0	0	0	487	616
12	0	0	0	0	487	615
13	0	0	0	0	487	615
14	0	0	0	0	487	612
15	0	0	0	0	487	614
0	0	0	0	0	489	614
1	0	0	0	0	490	615
2	0	0	0	0	492	618
3	0	0	0	0	495	617
4	0	0	0	0	497	616
5	0	0	0	0	500	617
6	0	0	0	0	503	614
7	0	0	0	0	506	615
8	0	0	0	0	508	615
9	0	0	0	0	510	614
10	0	0	0	0	511	617
11	0	0	0	0	512	615
12	0	0	0	0	512	617
13	0	0	0	0	512	618
14	0	0	0	0	512	616
15	0	0	0	0	511	618
0	0	0	0	0	511	617
1	0	0	0	0	511	616
2	0	0	0	0	511	618
3	0	0	0	0	512	615
4	0	0	0	0	513	616
5	0	0	0	0	515	616
6	0	0	0	0	516	615
7	0	0	0	0	517	617
8	0	0	0	0	519	618
9	0	0	0	0	520	617
10	0	0	0	0	523	620
11	0	0	0	0	524	616
12	0	0	0	0	526	615
13	0	0	0	0	528	614
14	0	0	0	0	529	613
15	0	0	0	0	529	615
0	0	0	0	0	528	615
1	0	0	0	0	528	615
2	0	0	0	0	527	617
3	0	0	0	0	527	616
4	0	0	0	0	526	615
5	0	0	0	0	527	615
6	0	0	0	0	527	613
7	0	0	0	0	528	615
8	0	0	0	0	529	614
9	0	0	0	0	531	615
10	0	0	0	0	533	617
11	0	0	0	0	535	615
12	0	0	0	0	538	616
13	0	0	0	0	541	617
14	0	0	0	0	543	615
15	0	0	0	0	545	617
0	0	0	0	0	546	617
1	0	0	0	0	547	616
2	0	0	0	0	547	619
3	0	0	0	0	547	616
4	0	0	0	0	547	616
5	0	0	0	0	545	616
6	0	0	0	0	543	615
7	0	0	0	0	542	617
8	0	0	0	0	540	617
9	0	0	0	0	538	616
10	0	0	0	0	537	619
11	0	0	0	0	537	616
12	0	0	0	0	537	616
13	0	0	0	0	537	615
14	0	0	0	0	538	613
15	0	0	0	0	539	615
0	0	0	0	0	540	615
1	0	0	0	0	543	615
2	0	0	0	0	544	618
3	0	0	0	0	545	615
4	0	0	0	0	546	615
5	0	0	0	0	547	615
6	0	0	0	0	547	613
7	0	0	0	0	547	614
8	0	0	0	0	546	615
9	0	0	0	0	545	615
10	0	0	0	0	543	617
11	0	0	0	0	541	615
12	0	0	0	0	539	616
13	0	0	0	0	536	616
14	0	0	0	0	536	615
15	0	0	0	0	535	616
0	0	0	0	0	535	617
1	0	0	0	0	535	616
2	0	0	0	0	536	618
3	0	0	0	0	538	616
4	0	0	0	0	540	616
5	0	0	0	0	541	617
6	0	0	0	0	543	615
7	0	0	0	0	544	617
8	0	0	0	0	546	617
9	0	0	0	0	547	616
10	0	0	0	0	546	619
11	0	0	0	0	544	616
12	0	0	0	0	542	616
13	0	0	0	0	540	616
14	0	0	0	0	536	614
15	0	0	0	0	534	616
0	0	0	0	0	531	615
1	0	0	0	0	527	616
2	0	0	0	0	526	619
3	0	0	0	0	524	616
4	0	0	0	0	524	617
5	0	0	0	0	524	615
6	0	0	0	0	526	614
7	0	0	0	0	528	615
8	0	0	0	0	531	615
9	0	0	0	0	535	616
10	0	0	0	0	537	617
11	0	0	0	0	540	615
12	0	0	0	0	542	615
13	0	0	0	0	543	615
14	0	0	0	0	543	615
15	0	0	0	0	542	616
0	0	0	0	0	541	616
1	0	0	0	0	540	616
2	0	0	0	0	536	618
3	0	0	0	0	534	616
4	0	0	0	0	532	616
5	0	0	0	0	529	616
6	0	0	0	0	527	615
7	0	0	0	0	527	616
8	0	0	0	0	527	616
9	0	0	0	0	527	615
10	0	0	0	0	528	618
11	0	0	0	0	529	616
12	0	0	0	0	530	616
13	0	0	0	0	531	616
14	0	0	0	0	533	614
15	0	0	0	0	534	616
0	0	0	0	0	535	616
1	0	0	0	0	535	616
2	0	0	0	0	535	618
3	0	0	0	0	534	615
4	0	0	0	0	533	616
5	0	0	0	0	531	615
6	0	0	0	0	529	614
7	0	0	0	0	527	615
8	0	0	0	0	525	615
9	0	0	0	0	524	615
10	0	0	0	0	523	618
11	0	0	0	0	523	616
12	0	0	0	0	524	616
13	0	0	0	0	524	616
14	0	0	0	0	525	615
15	0	0	0	0	526	616
0	0	0	0	0	528	616
1	0	0	0	0	529	615
2	0	0	0	0	530	619
3	0	0	0	0	531	616
4	0	0	0	0	533	616
5	0	0	0	0	534	616
6	0	0	0	0	533	615
7	0	0	0	0	532	616
8	0	0	0	0	531	616
9	0	0	0	0	531	616
10	0	0	0	0	530	618
11	0	0	0	0	528	616
12	0	0	0	0	526	616
13	0	0	0	0	524	616
14	0	0	0	0	523	614
15	0	0	0	0	521	615
0	0	0	0	0	522	616
1	0	0	0	0	523	616
2	0	0	0	0	524	618
3	0	0	0	0	524	615
4	0	0	0	0	526	616
5	0	0	0	0	527	615
6	0	0	0	0	529	614
7	0	0	0	0	531	615
8	0	0	0	0	533	615
9	0	0	0	0	534	616
10	0	0	0	0	535	618
11	0	0	0	0	535	616
12	0	0	0	0	535	616
13	0	0	0	0	534	616
14	0	0	0	0	532	615
15	0	0	0	0	530	616
0	0	0	0	0	527	616
1	0	0	0	0	526	616
2	0	0	0	0	526	618
3	0	0	0	0	525	616
4	0	0	0	0	526	616
5	0	0	0	0	525	616
6	0	0	0	0	526	615
7	0	0	0	0	527	615
8	0	0	0	0	530	616
9	0	0	0	0	531	616
10	0	0	0	0	533	618
11	0	0	0	0	534	616
12	0	0	0	0	536	616
13	0	0	0	0	536	615
14	0	0	0	0	536	614
15	0	0	0	0	535	616
0	0	0	0	0	534	616
1	0	0	0	0	531	616
2	0	0	0	0	529	618
3	0	0	0	0	527	616
4	0	0	0	0	525	616
5	0	0	0	0	524	616
6	0	0	0	0	524	614
7	0	0	0	0	523	615
8	0	0	0	0	523	615
9	0	0	0	0	524	615
10	0	0	0	0	526	618
11	0	0	0	0	527	616
12	0	0	0	0	528	616
13	0	0	0	0	530	616
14	0	0	0	0	531	614
15	0	0	0	0	533	616
0	0	0	0	0	533	615
1	0	0	0	0	534	615
2	0	0	0	0	533	618
3	0	0	0	0	532	616
4	0	0	0	0	530	616
5	0	0	0	0	529	616
6	0	0	0	0	528	615
7	0	0	0	0	527	617
8	0	0	0	0	526	617
9	0	0	0	0	525	616
10	0	0	0	0	524	619
11	0	0	0	0	523	616
12	0	0	0	0	523	615
13	0	0	0	0	524	615
14	0	0	0	0	524	615
15	0	0	0	0	525	616
0	0	0	0	0	526	616
1	0	0	0	0	528	616
2	0	0	0	0	529	619
3	0	0	0	0	530	616
4	0	0	0	0	531	616
5	0	0	0	0	531	615
6	0	0	0	0	531	614
7	0	0	0	0	530	616
8	0	0	0	0	529	616
9	0	0	0	0	528	615
10	0	0	0	0	526	618
11	0	0	0	0	524	616
12	0	0	0	0	522	616
13	0	0	0	0	520	617
14	0	0	0	0	519	615
15	0	0	0	0	519	616
0	0	0	0	0	519	616
1	0	0	0	0	520	616
2	0	0	0	0	521	618
3	0	0	0	0	522	616
4	0	0	0	0	523	615
5	0	0	0	0	524	615
6	0	0	0	0	525	615
7	0	0	0	0	527	616
8	0	0	0	0	529	617
9	0	0	0	0	529	616
10	0	0	0	0	528	619
11	0	0	0	0	527	616
12	0	0	0	0	526	616
13	0	0	0	0	524	616
14	0	0	0	0	521	615
15	0	0	0	0	519	616
0	0	0	0	0	518	616
1	0	0	0	0	515	615
2	0	0	0	0	515	618
3	0	0	0	0	514	615
4	0	0	0	0	515	616
5	0	0	0	0	515	616
6	0	0	0	0	515	615
7	0	0	0	0	516	615
8	0	0	0	0	518	616
9	0	0	0	0	519	616
10	0	0	0	0	521	618
11	0	0	0	0	523	616
12	0	0	0	0	524	616
13	0	0	0	0	525	615
14	0	0	0	0	526	614
15	0	0	0	0	526	617
0	0	0	0	0	526	616
1	0	0	0	0	524	616
2	0	0	0	0	522	619
3	0	0	0	0	520	616
4	0	0	0	0	518	616
5	0	0	0	0	516	616
6	0	0	0	0	515	614
7	0	0	0	0	514	616
8	0	0	0	0	514	615
9	0	0	0	0	514	615
10	0	0	0	0	515	619
11	0	0	0	0	516	616
12	0	0	0	0	518	616
13	0	0	0	0	519	616
14	0	0	0	0	520	615
15	0	0	0	0	522	616
0	0	0	0	0	523	615
1	0	0	0	0	523	615
2	0	0	0	0	523	618
3	0	0	0	0	522	616
4	0	0	0	0	521	616
5	0	0	0	0	520	616
6	0	0	0	0	518	614
7	0	0	0	0	517	616
8	0	0	0	0	515	616
9	0	0	0	0	513	616
10	0	0	0	0	514	617
11	0	0	0	0	514	616
12	0	0	0	0	515	615
13	0	0	0	0	516	615
14	0	0	0	0	516	613
15	0	0	0	0	517	615
0	0	0	0	0	518	615
1	0	0	0	0	519	616
2	0	0	0	0	520	619
3	0	0	0	0	521	616
4	0	0	0	0	520	616
5	0	0	0	0	519	616
6	0	0	0	0	519	615
7	0	0	0	0	517	616
8	0	0	0	0	516	616
9	0	0	0	0	515	616
10	0	0	0	0	513	619
11	0	0	0	0	513	615
12	0	0	0	0	512	616
13	0	0	0	0	511	616
14	0	0	0	0	511	615
15	0	0	0	0	511	616
0	0	0	0	0	511	615
1	0	0	0	0	512	615
2	0	0	0	0	512	618
3	0	0	0	0	513	616
4	0	0	0	0	515	616
5	0	0	0	0	516	616
6	0	0	0	0	518	614
7	0	0	0	0	519	616
8	0	0	0	0	520	616
9	0	0	0	0	520	616
10	0	0	0	0	520	618
11	0	0	0	0	519	616
12	0	0	0	0	517	616
13	0	0	0	0	516	615
14	0	0	0	0	515	614
15	0	0	0	0	513	615
0	0	0	0	0	512	616
1	0	0	0	0	511	616
2	0	0	0	0	511	618
3	0	0	0	0	512	616
4	0	0	0	0	513	616
5	0	0	0	0	515	616
6	0	0	0	0	516	615
7	0	0	0	0	519	615
8	0	0	0	0	520	616
9	0	0	0	0	522	616
10	0	0	0	0	522	618
11	0	0	0	0	523	616
12	0	0	0	0	523	616
13	0	0	0	0	523	616
14	0	0	0	0	522	615
15	0	0	0	0	521	617
0	0	0	0	0	519	616
1	0	0	0	0	517	615
2	0	0	0	0	514	618
3	0	0	0	0	512	615
4	0	0	0	0	510	616
5	0	0	0	0	508	616
6	0	0	0	0	507	615
7	0	0	0	0	507	616
8	0	0	0	0	507	616
9	0	0	0	0	507	616
10	0	0	0	0	508	618
11	0	0	0	0	509	616
12	0	0	0	0	510	616
13	0	0	0	0	511	615
14	0	0	0	0	512	614
15	0	0	0	0	515	615
0	0	0	0	0	516	615
1	0	0	0	0	518	615
2	0	0	0	0	518	618
3	0	0	0	0	517	615
4	0	0	0	0	516	616
5	0	0	0	0	516	616
6	0	0	0	0	514	615
7	0	0	0	0	512	616
8	0	0	0	0	511	616
9	0	0	0	0	509	616
10	0	0	0	0	508	619
11	0	0	0	0	507	615
12	0	0	0	0	506	617
13	0	0	0	0	506	616
14	0	0	0	0	505	615
15	0	0	0	0	506	616
0	0	0	0	0	506	616
1	0	0	0	0	508	616
2	0	0	0	0	509	618
3	0	0	0	0	510	616
4	0	0	0	0	511	616
5	0	0	0	0	511	616
6	0	0	0	0	512	614
7	0	0	0	0	512	615
8	0	0	0	0	511	615
9	0	0	0	0	510	615
10	0	0	0	0	509	617
11	0	0	0	0	508	616
12	0	0	0	0	505	615
13	0	0	0	0	504	616
14	0	0	0	0	504	615
15	0	0	0	0	504	616
0	0	0	0	0	504	616
1	0	0	0	0	505	615
2	0	0	0	0	507	618
3	0	0	0	0	509	616
4	0	0	0	0	512	615
5	0	0	0	0	514	616
6	0	0	0	0	515	614
7	0	0	0	0	518	616
8	0	0	0	0	519	616
9	0	0	0	0	519	616
10	0	0	0	0	519	619
11	0	0	0	0	518	616
12	0	0	0	0	516	616
13	0	0	0	0	514	616
14	0	0	0	0	512	614
15	0	0	0	0	510	616
0	0	0	0	0	507	616
1	0	0	0	0	505	616
2	0	0	0	0	504	619
3	0	0	0	0	503	616
4	0	0	0	0	503	616
5	0	0	0	0	503	616
6	0	0	0	0	503	615
7	0	0	0	0	504	616
8	0	0	0	0	505	616
9	0	0	0	0	509	616
10	0	0	0	0	511	618
11	0	0	0	0	514	617
12	0	0	0	0	515	616
13	0	0	0	0	516	615
14	0	0	0	0	516	615
15	0	0	0	0	515	616
0	0	0	0	0	513	615
1	0	0	0	0	512	616
2	0	0	0	0	510	617
3	0	0	0	0	507	616
4	0	0	0	0	504	616
5	0	0	0	0	503	615
6	0	0	0	0	502	614
7	0	0	0	0	501	615
8	0	0	0	0	500	616
9	0	0	0	0	502	615
10	0	0	0	0	503	618
11	0	0	0	0	504	616
12	0	0	0	0	505	616
13	0	0	0	0	507	616
14	0	0	0	0	508	614
15	0	0	0	0	510	615
0	0	0	0	0	511	615
1	0	0	0	0	512	615
2	0	0	0	0	513	619
3	0	0	0	0	512	616
4	0	0	0	0	511	615
5	0	0	0	0	511	616
6	0	0	0	0	509	614
7	0	0	0	0	507	615
8	0	0	0	0	505	615
9	0	0	0	0	504	616
10	0	0	0	0	503	618
11	0	0	0	0	503	616
12	0	0	0	0	503	616
13	0	0	0	0	503	616
14	0	0	0	0	504	615
15	0	0	0	0	504	616
0	0	0	0	0	506	615
1	0	0	0	0	508	616
2	0	0	0	0	509	619
3	0	0	0	0	510	616
4	0	0	0	0	510	616
5	0	0	0	0	510	616
6	0	0	0	0	511	615
7	0	0	0	0	510	616
8	0	0	0	0	509	616
9	0	0	0	0	508	616
10	0	0	0	0	506	618
11	0	0	0	0	505	616
12	0	0	0	0	504	616
13	0	0	0	0	503	616
14	0	0	0	0	503	615
15	0	0	0	0	503	616
0	0	0	0	0	503	616
1	0	0	0	0	504	616
2	0	0	0	0	505	618
3	0	0	0	0	506	616
4	0	0	0	0	508	616
5	0	0	0	0	510	616
6	0	0	0	0	511	615
7	0	0	0	0	512	616
8	0	0	0	0	513	616
9	0	0	0	0	513	615
10	0	0	0	0	514	618
11	0	0	0	0	513	616
12	0	0	0	0	512	616
13	0	0	0	0	511	615
14	0	0	0	0	510	614
15	0	0	0	0	508	616
0	0	0	0	0	505	616
1	0	0	0	0	504	616
2	0	0	0	0	504	618
3	0	0	0	0	504	616
4	0	0	0	0	503	615
5	0	0	0	0	503	616
6	0	0	0	0	503	615
7	0	0	0	0	503	616
8	0	0	0	0	504	616
9	0	0	0	0	505	616
10	0	0	0	0	506	619
11	0	0	0	0	508	616
12	0	0	0	0	508	616
13	0	0	0	0	509	616
14	0	0	0	0	509	615
15	0	0	0	0	508	615
0	0	0	0	0	507	615
1	0	0	0	0	506	616
2	0	0	0	0	504	618
3	0	0	0	0	504	616
4	0	0	0	0	502	616
5	0	0	0	0	500	616
6	0	0	0	0	498	615
7	0	0	0	0	497	616
8	0	0	0	0	497	616
9	0	0	0	0	497	616
10	0	0	0	0	498	618
11	0	0	0	0	498	615
12	0	0	0	0	499	615
13	0	0	0	0	500	616
14	0	0	0	0	501	614
15	0	0	0	0	503	616
0	0	0	0	0	504	616
1	0	0	0	0	505	617
2	0	0	0	0	507	619
3	0	0	0	0	508	616
4	0	0	0	0	508	616
5	0	0	0	0	507	616
6	0	0	0	0	506	615
7	0	0	0	0	504	615
8	0	0	0	0	502	615
9	0	0	0	0	501	614
10	0	0	0	0	501	615
11	0	0	0	0	501	612
12	0	0	0	0	503	613
13	0	0	0	0	504	615
14	0	0	0	0	505	614
15	0	0	0	0	508	617
0	0	0	0	0	510	618
1	0	0	0	0	513	620
2	0	0	0	0	515	621
3	0	0	0	0	517	618
4	0	0	0	0	519	616
5	0	0	0	0	519	615
6	0	0	0	0	519	612
7	0	0	0	0	518	613
8	0	0	0	0	515	614
9	0	0	0	0	513	615
10	0	0	0	0	509	619
11	0	0	0	0	507	618
12	0	0	0	0	504	619
13	0	0	0	0	503	619
14	0	0	0	0	502	616
15	0	0	0	0	503	616
0	0	0	0	0	504	615
1	0	0	0	0	507	614
2	0	0	0	0	509	616
3	0	0	0	0	511	614
4	0	0	0	0	513	615
5	0	0	0	0	516	616
6	0	0	0	0	519	615
7	0	0	0	0	520	617
8	0	0	0	0	520	617
9	0	0	0	0	520	616
10	0	0	0	0	520	618
11	0	0	0	0	519	615
12	0	0	0	0	517	615
13	0	0	0	0	515	615
14	0	0	0	0	513	613
15	0	0	0	0	512	615
0	0	0	0	0	510	616
1	0	0	0	0	509	617
2	0	0	0	0	508	619
3	0	0	0	0	508	616
4	0	0	0	0	508	616
5	0	0	0	0	508	615
6	0	0	0	0	509	614
7	0	0	0	0	509	615
8	0	0	0	0	510	615
9	0	0	0	0	512	616
10	0	0	0	0	513	619
11	0	0	0	0	515	617
12	0	0	0	0	517	616
13	0	0	0	0	518	616
14	0	0	0	0	518	614
15	0	0	0	0	516	615
0	0	0	0	0	515	615
1	0	0	0	0	514	614
2	0	0	0	0	513	617
3	0	0	0	0	511	615
4	0	0	0	0	509	616
5	0	0	0	0	507	616
6	0	0	0	0	506	615
7	0	0	0	0	506	616
8	0	0	0	0	505	617
9	0	0	0	0	505	616
10	0	0	0	0	507	618
11	0	0	0	0	508	615
12	0	0	0	0	511	615
13	0	0	0	0	513	616
14	0	0	0	0	516	614
15	0	0	0	0	518	616
0	0	0	0	0	519	617
1	0	0	0	0	520	617
2	0	0	0	0	520	619
3	0	0	0	0	519	617
4	0	0	0	0	517	617
5	0	0	0	0	513	616
6	0	0	0	0	510	615
7	0	0	0	0	506	617
8	0	0	0	0	503	617
9	0	0	0	0	499	617
10	0	0	0	0	498	620
11	0	0	0	0	497	618
12	0	0	0	0	498	617
13	0	0	0	0	500	616
14	0	0	0	0	503	613
15	0	0	0	0	505	614
0	0	0	0	0	507	614
1	0	0	0	0	509	614
2	0	0	0	0	510	617
3	0	0	0	0	510	615
4	0	0	0	0	510	617
5	0	0	0	0	510	617
6	0	0	0	0	509	615
7	0	0	0	0	507	617
8	0	0	0	0	503	616
9	0	0	0	0	497	615
10	0	0	0	0	489	616
11	0	0	0	0	479	615
12	0	0	0	0	467	615
13	0	0	0	0	454	616
14	0	0	0	0	442	615
15	0	0	0	0	429	618
0	0	0	0	0	417	619
1	0	0	0	0	407	618
2	0	0	0	0	398	620
3	0	0	0	0	390	617
4	0	0	0	0	385	616
5	0	0	0	0	383	615
6	0	0	0	0	384	613
7	0	0	0	0	386	614
8	0	0	0	0	390	614
9	0	0	0	0	395	614
10	0	0	0	0	403	617
11	0	0	0	0	410	615
12	0	0	0	0	417	615
13	0	0	0	0	422	615
14	0	0	0	0	426	613
15	0	0	0	0	429	614
0	0	0	0	0	435	614
1	0	0	0	0	448	615
2	0	0	0	0	468	617
3	0	0	0	0	493	615
4	0	0	0	0	523	615
5	0	0	0	0	563	616
6	0	0	0	0	614	615
7	0	0	0	0	671	617
8	0	0	0	0	732	617
9	0	0	0	0	794	618
10	0	0	0	0	856	620
11	0	0	0	0	914	618
12	0	0	0	0	966	617
13	0	0	0	0	1008	617
14	0	0	0	0	1022	616
15	0	0	0	0	1022	617
0	0	0	0	0	1022	616
1	0	0	0	0	1022	616
2	0	0	0	0	1022	618
3	0	0	0	0	1022	616
4	0	0	0	0	1022	615
5	0	0	0	0	1022	615
6	0	0	0	0	1022	614
7	0	0	0	0	1016	615
8	0	0	0	0	988	615
9	0	0	0	0	959	615
10	0	0	0	0	927	618
11	0	0	0	0	892	616
12	0	0	0	0	856	615
13	0	0	0	0	822	615
14	0	0	0	0	789	614
15	0	0	0	0	760	615
0	0	0	0	0	732	615
1	0	0	0	0	706	615
2	0	0	0	0	682	618
3	0	0	0	0	661	616
4	0	0	0	0	643	617
5	0	0	0	0	627	617
6	0	0	0	0	611	615
7	0	0	0	0	594	617
8	0	0	0	0	577	616
9	0	0	0	0	559	616
10	0	0	0	0	540	619
11	0	0	0	0	520	616
12	0	0	0	0	502	616
13	0	0	0	0	484	617
14	0	0	0	0	469	615
15	0	0	0	0	455	616
0	0	0	0	0	445	616
1	0	0	0	0	436	617
2	0	0	0	0	429	619
3	0	0	0	0	423	616
4	0	0	0	0	417	616
5	0	0	0	0	412	616
6	0	0	0	0	407	614
7	0	0	0	0	401	615
8	0	0	0	0	396	616
9	0	0	0	0	392	615
10	0	0	0	0	388	618
11	0	0	0	0	385	616
12	0	0	0	0	382	615
13	0	0	0	0	379	615
14	0	0	0	0	376	614
15	0	0	0	0	374	615
0	0	0	0	0	372	615
1	0	0	0	0	370	615
2	0	0	0	0	368	617
3	0	0	0	0	368	615
4	0	0	0	0	367	616
5	0	0	0	0	366	616
6	0	0	0	0	366	614
7	0	0	0	0	366	616
8	0	0	0	0	366	615
9	0	0	0	0	367	615
10	0	0	0	0	367	618
11	0	0	0	0	367	616
12	0	0	0	0	368	617
13	0	0	0	0	369	616
14	0	0	0	0	370	614
15	0	0	0	0	371	616
0	0	0	0	0	372	616
1	0	0	0	0	372	616
2	0	0	0	0	371	619
3	0	0	0	0	368	616
4	0	0	0	0	368	616
5	0	0	0	0	370	616
6	0	0	0	0	373	614
7	0	0	0	0	376	616
8	0	0	0	0	380	616
9	0	0	0	0	384	616
10	0	0	0	0	388	618
11	0	0	0	0	393	616
12	0	0	0	0	398	616
13	0	0	0	0	399	616
14	0	0	0	0	400	615
15	0	0	0	0	401	616
0	0	0	0	0	400	616
1	0	0	0	0	399	615
2	0	0	0	0	397	616
3	0	0	0	0	394	614
4	0	0	0	0	392	614
5	0	0	0	0	391	615
6	0	0	0	0	391	614
7	0	0	0	0	393	615
8	0	0	0	0	397	615
9	0	0	0	0	400	614
10	0	0	0	0	403	617
11	0	0	0	0	408	615
12	0	0	0	0	411	615
13	0	0	0	0	414	616
14	0	0	0	0	414	613
15	0	0	0	0	415	615
0	0	0	0	0	414	616
1	0	0	0	0	413	616
2	0	0	0	0	412	619
3	0	0	0	0	411	618
4	0	0	0	0	409	617
5	0	0	0	0	408	617
6	0	0	0	0	408	615
7	0	0	0	0	408	616
8	0	0	0	0	408	616
9	0	0	0	0	409	615
10	0	0	0	0	411	618
11	0	0	0	0	412	616
12	0	0	0	0	414	616
13	0	0	0	0	415	615
14	0	0	0	0	419	614
15	0	0	0	0	421	616
0	0	0	0	0	423	616
1	0	0	0	0	424	615
2	0	0	0	0	425	617
3	0	0	0	0	425	615
4	0	0	0	0	425	615
5	0	0	0	0	425	615
6	0	0	0	0	425	614
7	0	0	0	0	424	616
8	0	0	0	0	424	616
9	0	0	0	0	425	615
10	0	0	0	0	426	617
11	0	0	0	0	427	616
12	0	0	0	0	428	616
13	0	0	0	0	428	615
14	0	0	0	0	430	614
15	0	0	0	0	431	616
0	0	0	0	0	434	617
1	0	0	0	0	436	616
2	0	0	0	0	438	620
3	0	0	0	0	439	617
4	0	0	0	0	439	617
5	0	0	0	0	439	617
6	0	0	0	0	438	615
7	0	0	0	0	437	616
8	0	0	0	0	435	616
9	0	0	0	0	433	615
10	0	0	0	0	432	618
11	0	0	0	0	429	616
12	0	0	0	0	425	616
13	0	0	0	0	423	616
14	0	0	0	0	421	614
15	0	0	0	0	420	616
0	0	0	0	0	420	615
1	0	0	0	0	422	615
2	0	0	0	0	425	617
3	0	0	0	0	428	615
4	0	0	0	0	431	615
5	0	0	0	0	433	615
6	0	0	0	0	435	615
7	0	0	0	0	438	616
8	0	0	0	0	440	616
9	0	0	0	0	440	616
10	0	0	0	0	441	618
11	0	0	0	0	442	616
12	0	0	0	0	441	615
13	0	0	0	0	441	616
14	0	0	0	0	440	615
15	0	0	0	0	439	615
0	0	0	0	0	437	616
1	0	0	0	0	437	616
2	0	0	0	0	438	618
3	0	0	0	0	438	617
4	0	0	0	0	437	617
5	0	0	0	0	438	617
6	0	0	0	0	438	615
7	0	0	0	0	438	616
8	0	0	0	0	438	616
9	0	0	0	0	438	617
10	0	0	0	0	438	619
11	0	0	0	0	437	617
12	0	0	0	0	439	617
13	0	0	0	0	441	617
14	0	0	0	0	443	615
15	0	0	0	0	446	616
0	0	0	0	0	448	617
1	0	0	0	0	451	616
2	0	0	0	0	452	619
3	0	0	0	0	453	616
4	0	0	0	0	454	616
5	0	0	0	0	454	616
6	0	0	0	0	452	615
7	0	0	0	0	450	616
8	0	0	0	0	448	616
9	0	0	0	0	447	616
10	0	0	0	0	447	619
11	0	0	0	0	447	617
12	0	0	0	0	448	617
13	0	0	0	0	448	616
14	0	0	0	0	450	615
15	0	0	0	0	451	617
0	0	0	0	0	452	616
1	0	0	0	0	455	616
2	0	0	0	0	456	619
3	0	0	0	0	460	616
4	0	0	0	0	463	615
5	0	0	0	0	465	615
6	0	0	0	0	467	615
7	0	0	0	0	468	616
8	0	0	0	0	469	616
9	0	0	0	0	470	617
10	0	0	0	0	469	619
11	0	0	0	0	467	616
12	0	0	0	0	466	615
13	0	0	0	0	465	614
14	0	0	0	0	465	611
15	0	0	0	0	465	612
0	0	0	0	0	466	612
1	0	0	0	0	469	613
2	0	0	0	0	472	616
3	0	0	0	0	475	616
4	0	0	0	0	479	617
5	0	0	0	0	482	619
6	0	0	0	0	484	616
7	0	0	0	0	486	618
8	0	0	0	0	488	617
9	0	0	0	0	488	615
10	0	0	0	0	489	617
11	0	0	0	0	489	615
12	0	0	0	0	489	615
13	0	0	0	0	488	616
14	0	0	0	0	485	615
15	0	0	0	0	483	617
0	0	0	0	0	482	618
1	0	0	0	0	482	618
2	0	0	0	0	483	619
3	0	0	0	0	485	616
4	0	0	0	0	488	616
5	0	0	0	0	492	614
6	0	0	0	0	496	612
7	0	0	0	0	499	613
8	0	0	0	0	503	614
9	0	0	0	0	505	615
10	0	0	0	0	508	617
11	0	0	0	0	511	615
12	0	0	0	0	514	615
13	0	0	0	0	516	614
14	0	0	0	0	519	614
15	0	0	0	0	520	615
0	0	0	0	0	520	615
1	0	0	0	0	521	615
2	0	0	0	0	521	617
3	0	0	0	0	520	615
4	0	0	0	0	519	616
5	0	0	0	0	517	617
6	0	0	0	0	516	615
7	0	0	0	0	515	617
8	0	0	0	0	514	617
9	0	0	0	0	513	616
10	0	0	0	0	512	618
11	0	0	0	0	512	616
12	0	0	0	0	513	617
13	0	0	0	0	516	617
14	0	0	0	0	520	615
15	0	0	0	0	525	617
0	0	0	0	0	528	617
1	0	0	0	0	534	616
2	0	0	0	0	538	619
3	0	0	0	0	540	616
4	0	0	0	0	541	616
5	0	0	0	0	540	615
6	0	0	0	0	540	614
7	0	0	0	0	540	616
8	0	0	0	0	536	616
9	0	0	0	0	532	616
10	0	0	0	0	527	618
11	0	0	0	0	526	616
12	0	0	0	0	525	617
13	0	0	0	0	524	616
14	0	0	0	0	524	617
15	0	0	0	0	524	631
0	0	0	0	0	526	637
1	0	0	0	0	529	650
2	0	0	0	0	535	652
3	0	0	0	0	539	643
4	0	0	0	0	543	613
5	0	0	0	0	547	582
6	0	0	0	0	550	574
7	0	0	0	0	550	579
8	0	0	0	0	549	582
9	0	0	0	0	549	587
10	0	0	0	0	546	589
11	0	0	0	0	544	584
12	0	0	0	0	542	579
13	0	0	0	0	538	637
14	0	0	0	0	536	649
15	0	0	0	0	535	654
0	0	0	0	0	534	632
1	0	0	0	0	535	613
2	0	0	0	0	536	621
3	0	0	0	0	537	590
4	0	0	0	0	537	604
5	0	0	0	0	539	618
6	0	0	0	0	540	625
7	0	0	0	0	542	617
8	0	0	0	0	544	628
9	0	0	0	0	545	644
10	0	0	0	0	547	664
11	0	0	0	0	547	663
12	0	0	0	0	546	652
13	0	0	0	0	545	624
14	0	0	0	0	543	599
15	0	0	0	0	541	564
0	0	0	0	0	539	579
1	0	0	0	0	536	596
2	0	0	0	0	534	613
3	0	0	0	0	531	624
4	0	0	0	0	530	615
5	0	0	0	0	530	617
6	0	0	0	0	530	614
7	0	0	0	0	531	614
8	0	0	0	0	532	618
9	0	0	0	0	533	615
10	0	0	0	0	535	605
11	0	0	0	0	537	590
12	0	0	0	0	538	600
13	0	0	0	0	540	614
14	0	0	0	0	542	640
15	0	0	0	0	542	651
0	0	0	0	0	541	649
1	0	0	0	0	541	639
2	0	0	0	0	539	620
3	0	0	0	0	537	603
4	0	0	0	0	535	605
5	0	0	0	0	532	609
6	0	0	0	0	530	613
7	0	0	0	0	528	618
8	0	0	0	0	527	615
9	0	0	0	0	526	622
10	0	0	0	0	526	627
11	0	0	0	0	526	625
12	0	0	0	0	526	630
13	0	0	0	0	527	622
14	0	0	0	0	529	604
15	0	0	0	0	530	594
0	0	0	0	0	532	593
1	0	0	0	0	533	605
2	0	0	0	0	535	627
3	0	0	0	0	535	635
4	0	0	0	0	534	639
5	0	0	0	0	532	634
6	0	0	0	0	530	619
7	0	0	0	0	527	615
8	0	0	0	0	525	613
9	0	0	0	0	523	611
10	0	0	0	0	521	611
11	0	0	0	0	520	606
12	0	0	0	0	519	606
13	0	0	0	0	518	616
14	0	0	0	0	518	623
15	0	0	0	0	519	632
0	0	0	0	0	519	633
1	0	0	0	0	522	622
2	0	0	0	0	523	610
3	0	0	0	0	525	596
4	0	0	0	0	527	592
5	0	0	0	0	528	597
6	0	0	0	0	529	604
7	0	0	0	0	529	612
8	0	0	0	0	529	619
9	0	0	0	0	528	622
10	0	0	0	0	526	626
11	0	0	0	0	524	627
12	0	0	0	0	521	625
13	0	0	0	0	518	621
14	0	0	0	0	516	615
15	0	0	0	0	514	609
0	0	0	0	0	513	610
1	0	0	0	0	512	617
2	0	0	0	0	513	628
3	0	0	0	0	513	636
4	0	0	0	0	514	638
5	0	0	0	0	516	632
6	0	0	0	0	518	623
7	0	0	0	0	520	615
8	0	0	0	0	522	609
9	0	0	0	0	524	608
10	0	0	0	0	526	607
11	0	0	0	0	527	606
12	0	0	0	0	528	609
13	0	0	0	0	527	612
14	0	0	0	0	526	617
15	0	0	0	0	524	623
0	0	0	0	0	521	621
1	0	0	0	0	518	615
2	0	0	0	0	516	609
3	0	0	0	0	514	600
4	0	0	0	0	512	600
5	0	0	0	0	512	602
6	0	0	0	0	512	606
7	0	0	0	0	512	615
8	0	0	0	0	514	619
9	0	0	0	0	516	622
10	0	0	0	0	517	627
11	0	0	0	0	519	623
12	0	0	0	0	522	622
13	0	0	0	0	525	617
14	0	0	0	0	528	611
15	0	0	0	0	529	611
0	0	0	0	0	530	613
1	0	0	0	0	530	618
2	0	0	0	0	528	626
3	0	0	0	0	527	627
4	0	0	0	0	525	628
5	0	0	0	0	523	625
6	0	0	0	0	520	618
7	0	0	0	0	518	616
8	0	0	0	0	515	612
9	0	0	0	0	513	609
10	0	0	0	0	512	611
11	0	0	0	0	511	609
12	0	0	0	0	511	612
13	0	0	0	0	513	617
14	0	0	0	0	515	618
15	0	0	0	0	519	621
0	0	0	0	0	523	620
1	0	0	0	0	527	615
2	0	0	0	0	530	614
3	0	0	0	0	532	608
4	0	0	0	0	533	608
5	0	0	0	0	533	611
6	0	0	0	0	531	612
7	0	0	0	0	529	617
8	0	0	0	0	527	620
9	0	0	0	0	525	621
10	0	0	0	0	523	624
11	0	0	0	0	521	620
12	0	0	0	0	520	618
13	0	0	0	0	520	614
14	0	0	0	0	521	610
15	0	0	0	0	521	611
0	0	0	0	0	523	613
1	0	0	0	0	525	617
2	0	0	0	0	527	623
3	0	0	0	0	529	623
4	0	0	0	0	531	623
5	0	0	0	0	533	621
6	0	0	0	0	535	617
7	0	0	0	0	536	616
8	0	0	0	0	536	615
9	0	0	0	0	536	613
10	0	0	0	0	534	613
11	0	0	0	0	532	612
12	0	0	0	0	529	615
13	0	0	0	0	527	617
14	0	0	0	0	524	616
15	0	0	0	0	521	619
0	0	0	0	0	520	616
1	0	0	0	0	519	614
2	0	0	0	0	519	614
3	0	0	0	0	519	611
4	0	0	0	0	520	611
5	0	0	0	0	522	612
6	0	0	0	0	523	612
7	0	0	0	0	524	616
8	0	0	0	0	527	617
9	0	0	0	0	528	619
10	0	0	0	0	531	622
11	0	0	0	0	531	618
12	0	0	0	0	531	616
13	0	0	0	0	529	614
14	0	0	0	0	528	611
15	0	0	0	0	526	614
0	0	0	0	0	523	615
1	0	0	0	0	519	616
2	0	0	0	0	517	620
3	0	0	0	0	515	619
4	0	0	0	0	513	620
5	0	0	0	0	513	619
6	0	0	0	0	513	615
7	0	0	0	0	513	615
8	0	0	0	0	515	615
9	0	0	0	0	516	614
10	0	0	0	0	518	617
11	0	0	0	0	521	616
12	0	0	0	0	523	617
13	0	0	0	0	526	619
14	0	0	0	0	527	617
15	0	0	0	0	528	619
0	0	0	0	0	528	618
1	0	0	0	0	527	616
2	0	0	0	0	525	618
3	0	0	0	0	523	615
4	0	0	0	0	520	615
5	0	0	0	0	518	615
6	0	0	0	0	514	615
7	0	0	0	0	511	617
8	0	0	0	0	510	617
9	0	0	0	0	510	617
10	0	0	0	0	510	619
11	0	0	0	0	510	616
12	0	0	0	0	511	614
13	0	0	0	0	513	613
14	0	0	0	0	515	612
15	0	0	0	0	516	613
0	0	0	0	0	519	614
1	0	0	0	0	520	615
2	0	0	0	0	523	618
3	0	0	0	0	523	617
4	0	0	0	0	524	618
5	0	0	0	0	523	618
6	0	0	0	0	522	617
7	0	0	0	0	519	619
8	0	0	0	0	516	618
9	0	0	0	0	513	617
10	0	0	0	0	511	620
11	0	0	0	0	510	620
12	0	0	0	0	509	622
13	0	0	0	0	510	622
14	0	0	0	0	509	620
15	0	0	0	0	510	618
0	0	0	0	0	510	613
1	0	0	0	0	512	609
2	0	0	0	0	513	609
3	0	0	0	0	515	608
4	0	0	0	0	518	611
5	0	0	0	0	519	614
6	0	0	0	0	522	615
7	0	0	0	0	523	617
8	0	0	0	0	523	617
9	0	0	0	0	522	616
10	0	0	0	0	520	616
11	0	0	0	0	519	614
12	0	0	0	0	516	612
13	0	0	0	0	514	611
14	0	0	0	0	511	610
15	0	0	0	0	510	615
0	0	0	0	0	509	618
1	0	0	0	0	508	620
2	0	0	0	0	509	624
3	0	0	0	0	510	620
4	0	0	0	0	511	620
5	0	0	0	0	513	618
6	0	0	0	0	515	614
7	0	0	0	0	518	615
8	0	0	0	0	521	616
9	0	0	0	0	523	615
10	0	0	0	0	525	620
11	0	0	0	0	525	618
12	0	0	0	0	525	620
13	0	0	0	0	525	620
14	0	0	0	0	523	617
15	0	0	0	0	520	616
0	0	0	0	0	518	614
1	0	0	0	0	515	614
2	0	0	0	0	513	614
3	0	0	0	0	511	613
4	0	0	0	0	510	614
5	0	0	0	0	509	615
6	0	0	0	0	509	615
7	0	0	0	0	510	617
8	0	0	0	0	511	616
9	0	0	0	0	513	615
10	0	0	0	0	515	617
11	0	0	0	0	517	614
12	0	0	0	0	520	614
13	0	0	0	0	522	614
14	0	0	0	0	524	614
15	0	0	0	0	524	616
0	0	0	0	0	525	618
1	0	0	0	0	524	619
2	0	0	0	0	523	622
3	0	0	0	0	520	620
4	0	0	0	0	517	618
5	0	0	0	0	515	617
6	0	0	0	0	514	614
7	0	0	0	0	513	615
8	0	0	0	0	512	616
9	0	0	0	0	511	617
10	0	0	0	0	511	621
11	0	0	0	0	511	620
12	0	0	0	0	512	620
13	0	0	0	0	513	619
14	0	0	0	0	514	615
15	0	0	0	0	516	616
0	0	0	0	0	519	615
1	0	0	0	0	520	615
2	0	0	0	0	522	618
3	0	0	0	0	524	616
4	0	0	0	0	524	616
5	0	0	0	0	523	617
6	0	0	0	0	521	615
7	0	0	0	0	519	616
8	0	0	0	0	515	615
9	0	0	0	0	512	614
10	0	0	0	0	510	616
11	0	0	0	0	508	613
12	0	0	0	0	506	614
13	0	0	0	0	505	614
14	0	0	0	0	506	614
15	0	0	0	0	506	616
0	0	0	0	0	508	615
1	0	0	0	0	509	616
2	0	0	0	0	511	617
3	0	0	0	0	513	614
4	0	0	0	0	516	612
5	0	0	0	0	519	612
6	0	0	0	0	521	609
7	0	0	0	0	523	611
8	0	0	0	0	524	613
9	0	0	0	0	524	617
10	0	0	0	0	523	621
11	0	0	0	0	520	618
12	0	0	0	0	518	615
13	0	0	0	0	514	611
14	0	0	0	0	511	605
15	0	0	0	0	508	605
0	0	0	0	0	505	606
1	0	0	0	0	504	613
2	0	0	0	0	503	623
3	0	0	0	0	503	620
4	0	0	0	0	503	622
5	0	0	0	0	505	620
6	0	0	0	0	507	619
7	0	0	0	0	510	620
8	0	0	0	0	513	619
9	0	0	0	0	515	619
10	0	0	0	0	517	617
11	0	0	0	0	517	614
12	0	0	0	0	517	616
13	0	0	0	0	516	623
14	0	0	0	0	516	624
15	0	0	0	0	514	626
0	0	0	0	0	512	624
1	0	0	0	0	510	619
2	0	0	0	0	507	615
3	0	0	0	0	505	612
4	0	0	0	0	504	613
5	0	0	0	0	503	616
6	0	0	0	0	503	614
7	0	0	0	0	503	617
8	0	0	0	0	504	617
9	0	0	0	0	505	619
10	0	0	0	0	507	620
11	0	0	0	0	508	618
12	0	0	0	0	509	616
13	0	0	0	0	511	611
14	0	0	0	0	514	606
15	0	0	0	0	516	606
0	0	0	0	0	517	608
1	0	0	0	0	518	611
2	0	0	0	0	517	619
3	0	0	0	0	515	622
4	0	0	0	0	512	621
5	0	0	0	0	509	618
6	0	0	0	0	506	614
7	0	0	0	0	504	614
8	0	0	0	0	501	615
9	0	0	0	0	499	616
10	0	0	0	0	498	620
11	0	0	0	0	499	616
12	0	0	0	0	499	616
13	0	0	0	0	502	618
14	0	0	0	0	504	620
15	0	0	0	0	507	624
0	0	0	0	0	510	622
1	0	0	0	0	513	619
2	0	0	0	0	515	616
3	0	0	0	0	517	611
4	0	0	0	0	518	613
5	0	0	0	0	518	616
6	0	0	0	0	516	617
7	0	0	0	0	514	621
8	0	0	0	0	513	621
9	0	0	0	0	510	620
10	0	0	0	0	507	621
11	0	0	0	0	504	617
12	0	0	0	0	502	615
13	0	0	0	0	501	612
14	0	0	0	0	502	608
15	0	0	0	0	502	609
0	0	0	0	0	503	608
1	0	0	0	0	504	610
2	0	0	0	0	507	614
3	0	0	0	0	509	615
4	0	0	0	0	511	617
5	0	0	0	0	513	615
6	0	0	0	0	516	612
7	0	0	0	0	517	613
8	0	0	0	0	517	612
9	0	0	0	0	516	614
10	0	0	0	0	515	617
11	0	0	0	0	513	617
12	0	0	0	0	510	618
13	0	0	0	0	507	618
14	0	0	0	0	504	617
15	0	0	0	0	501	620
0	0	0	0	0	499	620
1	0	0	0	0	497	620
2	0	0	0	0	497	621
3	0	0	0	0	496	616
4	0	0	0	0	497	615
5	0	0	0	0	499	617
6	0	0	0	0	501	617
7	0	0	0	0	503	620
8	0	0	0	0	507	619
9	0	0	0	0	509	617
10	0	0	0	0	513	619
11	0	0	0	0	515	615
12	0	0	0	0	515	614
13	0	0	0	0	514	614
14	0	0	0	0	513	612
15	0	0	0	0	511	612
0	0	0	0	0	508	612
1	0	0	0	0	504	614
2	0	0	0	0	502	617
3	0	0	0	0	499	615
4	0	0	0	0	496	615
