# OpenSignals Text File Format. Version 1
# {"98:D3:91:FD:69:48": {"position": 0, "device": "bitalino_rev", "device name": "98:D3:91:FD:69:48", "device connection": "BTH98:D3:91:FD:69:48", "sampling rate": 1000, "resolution": [4, 1, 1, 1, 1, 10, 10], "firmware version": 1281, "comments": "", "keywords": "", "mode": 0, "sync interval": 2, "date": "2021-9-18", "time": "21:26:55.112", "channels": [2, 5], "sensor": ["RAW", "RAW"], "label": ["A2", "A5"], "column": ["nSeq", "I1", "I2", "O1", "O2", "A2", "A5"], "special": [{}, {}], "digital IO": [0, 0, 1, 1], "convertedValues": 0}}
# EndOfHeader
0	0	0	0	0	547	491	
1	0	0	0	0	547	491	
2	0	0	0	0	547	491	
3	0	0	0	0	547	491	
4	0	0	0	0	547	492	
5	0	0	0	0	547	491	
6	0	0	0	0	546	492	
7	0	0	0	0	545	491	
8	0	0	0	0	545	492	
9	0	0	0	0	545	491	
10	0	0	0	0	544	491	
11	0	0	0	0	544	492	
12	0	0	0	0	543	492	
13	0	0	0	0	544	491	
14	0	0	0	0	545	492	
15	0	0	0	0	545	491	
0	0	0	0	0	545	492	
1	0	0	0	0	545	491	
2	0	0	0	0	545	492	
3	0	0	0	0	544	493	
4	0	0	0	0	544	493	
5	0	0	0	0	543	492	
6	0	0	0	0	543	492	
7	0	0	0	0	542	492	
8	0	0	0	0	542	492	
9	0	0	0	0	541	492	
10	0	0	0	0	542	492	
11	0	0	0	0	542	493	
12	0	0	0	0	542	492	
13	0	0	0	0	541	492	
14	0	0	0	0	540	492	
15	0	0	0	0	539	492	
0	0	0	0	0	539	492	
1	0	0	0	0	539	492	
2	0	0	0	0	538	492	
3	0	0	0	0	538	492	
4	0	0	0	0	539	491	
5	0	0	0	0	538	491	
6	0	0	0	0	538	491	
7	0	0	0	0	537	491	
8	0	0	0	0	536	491	
9	0	0	0	0	536	491	
10	0	0	0	0	536	491	
11	0	0	0	0	536	492	
12	0	0	0	0	535	491	
13	0	0	0	0	535	491	
14	0	0	0	0	534	491	
15	0	0	0	0	534	491	
0	0	0	0	0	532	491	
1	0	0	0	0	532	491	
2	0	0	0	0	531	491	
3	0	0	0	0	530	492	
4	0	0	0	0	529	491	
5	0	0	0	0	528	491	
6	0	0	0	0	527	491	
7	0	0	0	0	527	491	
8	0	0	0	0	527	491	
9	0	0	0	0	528	491	
10	0	0	0	0	528	491	
11	0	0	0	0	528	491	
12	0	0	0	0	528	491	
13	0	0	0	0	528	491	
14	0	0	0	0	528	491	
15	0	0	0	0	528	491	
0	0	0	0	0	529	491	
1	0	0	0	0	529	491	
2	0	0	0	0	529	491	
3	0	0	0	0	529	491	
4	0	0	0	0	529	491	
5	0	0	0	0	528	491	
6	0	0	0	0	528	491	
7	0	0	0	0	528	490	
8	0	0	0	0	528	490	
9	0	0	0	0	528	491	
10	0	0	0	0	527	491	
11	0	0	0	0	527	490	
12	0	0	0	0	527	491	
13	0	0	0	0	528	490	
14	0	0	0	0	528	490	
15	0	0	0	0	527	491	
0	0	0	0	0	528	491	
1	0	0	0	0	529	491	
2	0	0	0	0	529	491	
3	0	0	0	0	529	491	
4	0	0	0	0	528	490	
5	0	0	0	0	528	490	
6	0	0	0	0	527	491	
7	0	0	0	0	527	491	
8	0	0	0	0	526	491	
9	0	0	0	0	526	491	
10	0	0	0	0	525	491	
11	0	0	0	0	525	491	
12	0	0	0	0	526	491	
13	0	0	0	0	525	491	
14	0	0	0	0	526	491	
15	0	0	0	0	526	490	
0	0	0	0	0	525	491	
1	0	0	0	0	525	490	
2	0	0	0	0	525	491	
3	0	0	0	0	525	492	
4	0	0	0	0	524	491	
5	0	0	0	0	525	491	
6	0	0	0	0	524	490	
7	0	0	0	0	524	491	
8	0	0	0	0	524	491	
9	0	0	0	0	523	491	
10	0	0	0	0	523	491	
11	0	0	0	0	523	491	
12	0	0	0	0	523	491	
13	0	0	0	0	523	491	
14	0	0	0	0	523	491	
15	0	0	0	0	523	490	
0	0	0	0	0	523	491	
1	0	0	0	0	523	491	
2	0	0	0	0	522	491	
3	0	0	0	0	522	491	
4	0	0	0	0	524	490	
5	0	0	0	0	524	490	
6	0	0	0	0	525	490	
7	0	0	0	0	525	490	
8	0	0	0	0	525	491	
9	0	0	0	0	525	490	
10	0	0	0	0	524	491	
11	0	0	0	0	524	491	
12	0	0	0	0	523	491	
13	0	0	0	0	523	492	
14	0	0	0	0	523	491	
15	0	0	0	0	523	492	
0	0	0	0	0	522	491	
1	0	0	0	0	523	492	
2	0	0	0	0	522	491	
3	0	0	0	0	521	492	
4	0	0	0	0	521	491	
5	0	0	0	0	521	492	
6	0	0	0	0	521	492	
7	0	0	0	0	520	491	
8	0	0	0	0	520	491	
9	0	0	0	0	520	492	
10	0	0	0	0	520	491	
11	0	0	0	0	519	492	
12	0	0	0	0	519	492	
13	0	0	0	0	519	492	
14	0	0	0	0	519	492	
15	0	0	0	0	519	491	
0	0	0	0	0	520	492	
1	0	0	0	0	520	492	
2	0	0	0	0	520	491	
3	0	0	0	0	520	492	
4	0	0	0	0	520	492	
5	0	0	0	0	519	492	
6	0	0	0	0	519	492	
7	0	0	0	0	519	493	
8	0	0	0	0	519	492	
9	0	0	0	0	518	492	
10	0	0	0	0	518	492	
11	0	0	0	0	519	492	
12	0	0	0	0	519	492	
13	0	0	0	0	519	491	
14	0	0	0	0	520	492	
15	0	0	0	0	521	491	
0	0	0	0	0	521	492	
1	0	0	0	0	521	492	
2	0	0	0	0	521	492	
3	0	0	0	0	521	492	
4	0	0	0	0	521	492	
5	0	0	0	0	521	492	
6	0	0	0	0	520	492	
7	0	0	0	0	520	491	
8	0	0	0	0	519	491	
9	0	0	0	0	519	491	
10	0	0	0	0	519	492	
11	0	0	0	0	518	492	
12	0	0	0	0	518	492	
13	0	0	0	0	517	491	
14	0	0	0	0	516	491	
15	0	0	0	0	515	491	
0	0	0	0	0	515	491	
1	0	0	0	0	515	491	
2	0	0	0	0	515	491	
3	0	0	0	0	515	491	
4	0	0	0	0	516	491	
5	0	0	0	0	516	492	
6	0	0	0	0	515	491	
7	0	0	0	0	515	491	
8	0	0	0	0	515	492	
9	0	0	0	0	515	491	
10	0	0	0	0	515	491	
11	0	0	0	0	516	492	
12	0	0	0	0	516	491	
13	0	0	0	0	516	491	
14	0	0	0	0	515	492	
15	0	0	0	0	515	491	
0	0	0	0	0	515	492	
1	0	0	0	0	516	492	
2	0	0	0	0	515	492	
3	0	0	0	0	514	492	
4	0	0	0	0	514	491	
5	0	0	0	0	513	491	
6	0	0	0	0	513	492	
7	0	0	0	0	513	491	
8	0	0	0	0	513	491	
9	0	0	0	0	512	491	
10	0	0	0	0	512	491	
11	0	0	0	0	512	491	
12	0	0	0	0	512	491	
13	0	0	0	0	512	491	
14	0	0	0	0	512	491	
15	0	0	0	0	512	491	
0	0	0	0	0	511	491	
1	0	0	0	0	511	491	
2	0	0	0	0	511	491	
3	0	0	0	0	510	492	
4	0	0	0	0	511	491	
5	0	0	0	0	511	491	
6	0	0	0	0	511	491	
7	0	0	0	0	510	490	
8	0	0	0	0	510	491	
9	0	0	0	0	510	491	
10	0	0	0	0	510	491	
11	0	0	0	0	509	491	
12	0	0	0	0	509	491	
13	0	0	0	0	509	491	
14	0	0	0	0	509	491	
15	0	0	0	0	510	491	
0	0	0	0	0	510	491	
1	0	0	0	0	510	491	
2	0	0	0	0	511	491	
3	0	0	0	0	511	491	
4	0	0	0	0	511	490	
5	0	0	0	0	511	490	
6	0	0	0	0	512	490	
7	0	0	0	0	511	490	
8	0	0	0	0	512	489	
9	0	0	0	0	512	490	
10	0	0	0	0	512	491	
11	0	0	0	0	512	491	
12	0	0	0	0	514	490	
13	0	0	0	0	514	491	
14	0	0	0	0	516	490	
15	0	0	0	0	517	490	
0	0	0	0	0	518	490	
1	0	0	0	0	519	489	
2	0	0	0	0	520	490	
3	0	0	0	0	521	491	
4	0	0	0	0	521	490	
5	0	0	0	0	522	490	
6	0	0	0	0	523	490	
7	0	0	0	0	523	489	
8	0	0	0	0	523	490	
9	0	0	0	0	522	491	
10	0	0	0	0	522	490	
11	0	0	0	0	521	491	
12	0	0	0	0	521	490	
13	0	0	0	0	520	490	
14	0	0	0	0	521	490	
15	0	0	0	0	520	490	
0	0	0	0	0	521	491	
1	0	0	0	0	521	491	
2	0	0	0	0	520	491	
3	0	0	0	0	519	491	
4	0	0	0	0	519	491	
5	0	0	0	0	518	491	
6	0	0	0	0	518	491	
7	0	0	0	0	518	491	
8	0	0	0	0	517	491	
9	0	0	0	0	517	491	
10	0	0	0	0	517	491	
11	0	0	0	0	516	492	
12	0	0	0	0	515	491	
13	0	0	0	0	514	491	
14	0	0	0	0	514	491	
15	0	0	0	0	513	491	
0	0	0	0	0	513	491	
1	0	0	0	0	513	491	
2	0	0	0	0	513	491	
3	0	0	0	0	512	492	
4	0	0	0	0	512	491	
5	0	0	0	0	512	491	
6	0	0	0	0	511	492	
7	0	0	0	0	511	492	
8	0	0	0	0	510	492	
9	0	0	0	0	509	491	
10	0	0	0	0	509	492	
11	0	0	0	0	508	492	
12	0	0	0	0	508	491	
13	0	0	0	0	508	491	
14	0	0	0	0	508	491	
15	0	0	0	0	508	491	
0	0	0	0	0	508	491	
1	0	0	0	0	508	492	
2	0	0	0	0	506	492	
3	0	0	0	0	506	492	
4	0	0	0	0	507	491	
5	0	0	0	0	507	491	
6	0	0	0	0	507	491	
7	0	0	0	0	507	491	
8	0	0	0	0	507	491	
9	0	0	0	0	507	492	
10	0	0	0	0	506	491	
11	0	0	0	0	506	491	
12	0	0	0	0	505	491	
13	0	0	0	0	505	491	
14	0	0	0	0	504	491	
15	0	0	0	0	504	491	
0	0	0	0	0	504	491	
1	0	0	0	0	504	491	
2	0	0	0	0	504	491	
3	0	0	0	0	504	491	
4	0	0	0	0	504	491	
5	0	0	0	0	504	491	
6	0	0	0	0	505	491	
7	0	0	0	0	505	491	
8	0	0	0	0	505	491	
9	0	0	0	0	506	491	
10	0	0	0	0	506	491	
11	0	0	0	0	506	491	
12	0	0	0	0	506	491	
13	0	0	0	0	506	491	
14	0	0	0	0	505	491	
15	0	0	0	0	505	490	
0	0	0	0	0	504	491	
1	0	0	0	0	505	491	
2	0	0	0	0	505	491	
3	0	0	0	0	505	491	
4	0	0	0	0	505	491	
5	0	0	0	0	505	491	
6	0	0	0	0	505	491	
7	0	0	0	0	506	492	
8	0	0	0	0	505	491	
9	0	0	0	0	505	492	
10	0	0	0	0	505	492	
11	0	0	0	0	505	492	
12	0	0	0	0	504	492	
13	0	0	0	0	504	492	
14	0	0	0	0	504	492	
15	0	0	0	0	504	491	
0	0	0	0	0	503	491	
1	0	0	0	0	503	491	
2	0	0	0	0	501	491	
3	0	0	0	0	499	492	
4	0	0	0	0	497	491	
5	0	0	0	0	495	491	
6	0	0	0	0	493	491	
7	0	0	0	0	491	491	
8	0	0	0	0	488	491	
9	0	0	0	0	485	491	
10	0	0	0	0	482	491	
11	0	0	0	0	479	491	
12	0	0	0	0	478	491	
13	0	0	0	0	476	491	
14	0	0	0	0	474	491	
15	0	0	0	0	472	491	
0	0	0	0	0	470	492	
1	0	0	0	0	468	492	
2	0	0	0	0	463	491	
3	0	0	0	0	458	492	
4	0	0	0	0	453	491	
5	0	0	0	0	448	491	
6	0	0	0	0	442	491	
7	0	0	0	0	438	491	
8	0	0	0	0	436	491	
9	0	0	0	0	436	491	
10	0	0	0	0	437	491	
11	0	0	0	0	442	491	
12	0	0	0	0	448	491	
13	0	0	0	0	455	491	
14	0	0	0	0	463	491	
15	0	0	0	0	474	491	
0	0	0	0	0	491	491	
1	0	0	0	0	509	491	
2	0	0	0	0	526	491	
3	0	0	0	0	542	491	
4	0	0	0	0	556	490	
5	0	0	0	0	569	490	
6	0	0	0	0	583	490	
7	0	0	0	0	597	490	
8	0	0	0	0	610	490	
9	0	0	0	0	624	490	
10	0	0	0	0	638	489	
11	0	0	0	0	650	491	
12	0	0	0	0	660	490	
13	0	0	0	0	665	489	
14	0	0	0	0	668	490	
15	0	0	0	0	669	489	
0	0	0	0	0	670	490	
1	0	0	0	0	670	490	
2	0	0	0	0	670	491	
3	0	0	0	0	670	491	
4	0	0	0	0	671	490	
5	0	0	0	0	672	491	
6	0	0	0	0	674	490	
7	0	0	0	0	675	490	
8	0	0	0	0	675	490	
9	0	0	0	0	673	490	
10	0	0	0	0	670	490	
11	0	0	0	0	667	491	
12	0	0	0	0	664	490	
13	0	0	0	0	659	491	
14	0	0	0	0	651	490	
15	0	0	0	0	640	491	
0	0	0	0	0	628	491	
1	0	0	0	0	614	490	
2	0	0	0	0	601	491	
3	0	0	0	0	588	492	
4	0	0	0	0	575	491	
5	0	0	0	0	565	492	
6	0	0	0	0	553	492	
7	0	0	0	0	543	491	
8	0	0	0	0	532	492	
9	0	0	0	0	523	491	
10	0	0	0	0	514	491	
11	0	0	0	0	506	492	
12	0	0	0	0	498	491	
13	0	0	0	0	490	492	
14	0	0	0	0	483	492	
15	0	0	0	0	478	492	
0	0	0	0	0	472	492	
1	0	0	0	0	468	491	
2	0	0	0	0	465	491	
3	0	0	0	0	462	492	
4	0	0	0	0	459	491	
5	0	0	0	0	457	491	
6	0	0	0	0	455	491	
7	0	0	0	0	453	491	
8	0	0	0	0	452	491	
9	0	0	0	0	451	491	
10	0	0	0	0	451	491	
11	0	0	0	0	451	492	
12	0	0	0	0	450	492	
13	0	0	0	0	450	492	
14	0	0	0	0	450	492	
15	0	0	0	0	451	491	
0	0	0	0	0	451	492	
1	0	0	0	0	451	492	
2	0	0	0	0	451	492	
3	0	0	0	0	451	492	
4	0	0	0	0	451	491	
5	0	0	0	0	451	491	
6	0	0	0	0	451	491	
7	0	0	0	0	451	491	
8	0	0	0	0	452	491	
9	0	0	0	0	452	491	
10	0	0	0	0	453	491	
11	0	0	0	0	453	491	
12	0	0	0	0	454	490	
13	0	0	0	0	455	490	
14	0	0	0	0	455	490	
15	0	0	0	0	455	491	
0	0	0	0	0	456	490	
1	0	0	0	0	457	489	
2	0	0	0	0	457	489	
3	0	0	0	0	458	491	
4	0	0	0	0	460	490	
5	0	0	0	0	460	489	
6	0	0	0	0	460	489	
7	0	0	0	0	461	489	
8	0	0	0	0	462	490	
9	0	0	0	0	463	489	
10	0	0	0	0	463	490	
11	0	0	0	0	463	491	
12	0	0	0	0	463	490	
13	0	0	0	0	463	491	
14	0	0	0	0	464	491	
15	0	0	0	0	464	490	
0	0	0	0	0	464	490	
1	0	0	0	0	464	490	
2	0	0	0	0	464	491	
3	0	0	0	0	464	490	
4	0	0	0	0	464	490	
5	0	0	0	0	464	491	
6	0	0	0	0	464	491	
7	0	0	0	0	465	490	
8	0	0	0	0	465	491	
9	0	0	0	0	466	491	
10	0	0	0	0	466	491	
11	0	0	0	0	466	492	
12	0	0	0	0	467	492	
13	0	0	0	0	467	492	
14	0	0	0	0	467	492	
15	0	0	0	0	467	492	
0	0	0	0	0	466	492	
1	0	0	0	0	467	493	
2	0	0	0	0	467	492	
3	0	0	0	0	467	492	
4	0	0	0	0	467	492	
5	0	0	0	0	467	492	
6	0	0	0	0	467	491	
7	0	0	0	0	468	491	
8	0	0	0	0	468	491	
9	0	0	0	0	468	492	
10	0	0	0	0	469	491	
11	0	0	0	0	468	492	
12	0	0	0	0	468	491	
13	0	0	0	0	469	492	
14	0	0	0	0	469	491	
15	0	0	0	0	470	491	
0	0	0	0	0	470	491	
1	0	0	0	0	470	491	
2	0	0	0	0	470	492	
3	0	0	0	0	470	492	
4	0	0	0	0	469	492	
5	0	0	0	0	469	491	
6	0	0	0	0	469	492	
7	0	0	0	0	469	491	
8	0	0	0	0	469	492	
9	0	0	0	0	469	492	
10	0	0	0	0	469	492	
11	0	0	0	0	470	492	
12	0	0	0	0	470	492	
13	0	0	0	0	470	492	
14	0	0	0	0	470	492	
15	0	0	0	0	469	491	
0	0	0	0	0	469	491	
1	0	0	0	0	468	492	
2	0	0	0	0	468	491	
3	0	0	0	0	467	493	
4	0	0	0	0	467	491	
5	0	0	0	0	467	491	
6	0	0	0	0	467	492	
7	0	0	0	0	468	491	
8	0	0	0	0	468	491	
9	0	0	0	0	469	492	
10	0	0	0	0	469	491	
11	0	0	0	0	469	491	
12	0	0	0	0	470	491	
13	0	0	0	0	469	491	
14	0	0	0	0	469	491	
15	0	0	0	0	469	491	
0	0	0	0	0	469	491	
1	0	0	0	0	469	491	
2	0	0	0	0	469	491	
3	0	0	0	0	469	491	
4	0	0	0	0	470	491	
5	0	0	0	0	470	491	
6	0	0	0	0	470	490	
7	0	0	0	0	470	491	
8	0	0	0	0	470	491	
9	0	0	0	0	470	491	
10	0	0	0	0	470	491	
11	0	0	0	0	470	491	
12	0	0	0	0	469	491	
13	0	0	0	0	469	492	
14	0	0	0	0	468	492	
15	0	0	0	0	467	491	
0	0	0	0	0	467	492	
1	0	0	0	0	467	491	
2	0	0	0	0	466	491	
3	0	0	0	0	466	491	
4	0	0	0	0	466	491	
5	0	0	0	0	466	491	
6	0	0	0	0	465	491	
7	0	0	0	0	464	491	
8	0	0	0	0	464	491	
9	0	0	0	0	463	492	
10	0	0	0	0	463	491	
11	0	0	0	0	462	492	
12	0	0	0	0	461	492	
13	0	0	0	0	460	491	
14	0	0	0	0	460	491	
15	0	0	0	0	459	490	
0	0	0	0	0	458	491	
1	0	0	0	0	458	491	
2	0	0	0	0	458	491	
3	0	0	0	0	457	492	
4	0	0	0	0	456	491	
5	0	0	0	0	455	491	
6	0	0	0	0	455	490	
7	0	0	0	0	455	490	
8	0	0	0	0	455	491	
9	0	0	0	0	455	491	
10	0	0	0	0	455	491	
11	0	0	0	0	454	492	
12	0	0	0	0	453	491	
13	0	0	0	0	454	491	
14	0	0	0	0	454	491	
15	0	0	0	0	454	491	
0	0	0	0	0	454	491	
1	0	0	0	0	454	492	
2	0	0	0	0	454	492	
3	0	0	0	0	454	492	
4	0	0	0	0	453	491	
5	0	0	0	0	453	492	
6	0	0	0	0	452	492	
7	0	0	0	0	451	491	
8	0	0	0	0	450	492	
9	0	0	0	0	450	491	
10	0	0	0	0	451	491	
11	0	0	0	0	451	492	
12	0	0	0	0	452	491	
13	0	0	0	0	452	491	
14	0	0	0	0	452	491	
15	0	0	0	0	452	490	
0	0	0	0	0	453	491	
1	0	0	0	0	453	491	
2	0	0	0	0	454	491	
3	0	0	0	0	455	491	
4	0	0	0	0	455	490	
5	0	0	0	0	455	490	
6	0	0	0	0	456	490	
7	0	0	0	0	456	490	
8	0	0	0	0	457	490	
9	0	0	0	0	457	490	
10	0	0	0	0	457	489	
11	0	0	0	0	457	491	
12	0	0	0	0	458	490	
13	0	0	0	0	458	491	
14	0	0	0	0	459	490	
15	0	0	0	0	459	490	
0	0	0	0	0	459	490	
1	0	0	0	0	460	490	
2	0	0	0	0	460	491	
3	0	0	0	0	461	490	
4	0	0	0	0	462	490	
5	0	0	0	0	464	491	
6	0	0	0	0	465	491	
7	0	0	0	0	468	490	
8	0	0	0	0	470	490	
9	0	0	0	0	473	490	
10	0	0	0	0	475	490	
11	0	0	0	0	478	491	
12	0	0	0	0	480	490	
13	0	0	0	0	482	490	
14	0	0	0	0	485	490	
15	0	0	0	0	487	489	
0	0	0	0	0	489	490	
1	0	0	0	0	492	491	
2	0	0	0	0	494	490	
3	0	0	0	0	496	491	
4	0	0	0	0	499	491	
5	0	0	0	0	502	490	
6	0	0	0	0	504	491	
7	0	0	0	0	507	490	
8	0	0	0	0	509	491	
9	0	0	0	0	512	491	
10	0	0	0	0	514	491	
11	0	0	0	0	516	491	
12	0	0	0	0	518	491	
13	0	0	0	0	521	491	
14	0	0	0	0	524	491	
15	0	0	0	0	525	491	
0	0	0	0	0	527	491	
1	0	0	0	0	529	491	
2	0	0	0	0	531	491	
3	0	0	0	0	533	491	
4	0	0	0	0	535	490	
5	0	0	0	0	537	490	
6	0	0	0	0	539	490	
7	0	0	0	0	541	491	
8	0	0	0	0	543	491	
9	0	0	0	0	545	491	
10	0	0	0	0	547	491	
11	0	0	0	0	549	491	
12	0	0	0	0	550	491	
13	0	0	0	0	551	490	
14	0	0	0	0	553	491	
15	0	0	0	0	554	491	
0	0	0	0	0	556	491	
1	0	0	0	0	557	491	
2	0	0	0	0	559	491	
3	0	0	0	0	560	491	
4	0	0	0	0	561	491	
5	0	0	0	0	561	491	
6	0	0	0	0	562	491	
7	0	0	0	0	563	491	
8	0	0	0	0	564	491	
9	0	0	0	0	564	492	
10	0	0	0	0	564	491	
11	0	0	0	0	565	492	
12	0	0	0	0	566	491	
13	0	0	0	0	566	491	
14	0	0	0	0	566	492	
15	0	0	0	0	566	491	
0	0	0	0	0	566	491	
1	0	0	0	0	566	492	
2	0	0	0	0	566	491	
3	0	0	0	0	567	493	
4	0	0	0	0	566	491	
5	0	0	0	0	565	492	
6	0	0	0	0	565	491	
7	0	0	0	0	564	491	
8	0	0	0	0	563	492	
9	0	0	0	0	563	491	
10	0	0	0	0	563	491	
11	0	0	0	0	563	492	
12	0	0	0	0	562	491	
13	0	0	0	0	562	491	
14	0	0	0	0	562	491	
15	0	0	0	0	562	490	
0	0	0	0	0	562	492	
1	0	0	0	0	561	491	
2	0	0	0	0	561	491	
3	0	0	0	0	561	492	
4	0	0	0	0	561	492	
5	0	0	0	0	561	492	
6	0	0	0	0	560	492	
7	0	0	0	0	559	491	
8	0	0	0	0	558	491	
9	0	0	0	0	557	491	
10	0	0	0	0	556	492	
11	0	0	0	0	555	492	
12	0	0	0	0	554	492	
13	0	0	0	0	553	491	
14	0	0	0	0	553	492	
15	0	0	0	0	552	492	
0	0	0	0	0	552	492	
1	0	0	0	0	552	492	
2	0	0	0	0	552	492	
3	0	0	0	0	552	493	
4	0	0	0	0	552	491	
5	0	0	0	0	552	492	
6	0	0	0	0	553	492	
7	0	0	0	0	553	492	
8	0	0	0	0	552	492	
9	0	0	0	0	551	492	
10	0	0	0	0	551	492	
11	0	0	0	0	550	492	
12	0	0	0	0	550	492	
13	0	0	0	0	550	492	
14	0	0	0	0	550	491	
15	0	0	0	0	550	492	
0	0	0	0	0	549	492	
1	0	0	0	0	548	492	
2	0	0	0	0	547	493	
3	0	0	0	0	547	493	
4	0	0	0	0	546	492	
5	0	0	0	0	546	492	
6	0	0	0	0	546	492	
7	0	0	0	0	545	491	
8	0	0	0	0	545	492	
9	0	0	0	0	545	492	
10	0	0	0	0	544	492	
11	0	0	0	0	545	492	
12	0	0	0	0	544	491	
13	0	0	0	0	544	491	
14	0	0	0	0	545	492	
15	0	0	0	0	544	491	
0	0	0	0	0	544	491	
1	0	0	0	0	543	491	
2	0	0	0	0	543	491	
3	0	0	0	0	543	492	
4	0	0	0	0	542	492	
5	0	0	0	0	541	491	
6	0	0	0	0	540	491	
7	0	0	0	0	540	491	
8	0	0	0	0	540	491	
9	0	0	0	0	540	490	
10	0	0	0	0	539	491	
11	0	0	0	0	539	491	
12	0	0	0	0	539	491	
13	0	0	0	0	538	490	
14	0	0	0	0	538	491	
15	0	0	0	0	537	490	
0	0	0	0	0	537	491	
1	0	0	0	0	537	490	
2	0	0	0	0	537	490	
3	0	0	0	0	536	491	
4	0	0	0	0	536	491	
5	0	0	0	0	537	490	
6	0	0	0	0	537	491	
7	0	0	0	0	537	489	
8	0	0	0	0	537	490	
9	0	0	0	0	537	490	
10	0	0	0	0	537	490	
11	0	0	0	0	537	491	
12	0	0	0	0	538	490	
13	0	0	0	0	539	490	
14	0	0	0	0	539	490	
15	0	0	0	0	539	490	
0	0	0	0	0	539	490	
1	0	0	0	0	539	490	
2	0	0	0	0	539	491	
3	0	0	0	0	539	491	
4	0	0	0	0	538	490	
5	0	0	0	0	537	490	
6	0	0	0	0	536	490	
7	0	0	0	0	535	490	
8	0	0	0	0	535	489	
9	0	0	0	0	535	490	
10	0	0	0	0	534	490	
11	0	0	0	0	534	491	
12	0	0	0	0	534	490	
13	0	0	0	0	534	490	
14	0	0	0	0	534	490	
15	0	0	0	0	534	490	
0	0	0	0	0	534	491	
1	0	0	0	0	534	490	
2	0	0	0	0	534	491	
3	0	0	0	0	535	491	
4	0	0	0	0	534	490	
5	0	0	0	0	534	490	
6	0	0	0	0	534	491	
7	0	0	0	0	533	489	
8	0	0	0	0	533	491	
9	0	0	0	0	533	491	
10	0	0	0	0	532	491	
11	0	0	0	0	532	492	
12	0	0	0	0	532	491	
13	0	0	0	0	533	490	
14	0	0	0	0	532	490	
15	0	0	0	0	532	490	
0	0	0	0	0	532	491	
1	0	0	0	0	532	491	
2	0	0	0	0	531	491	
3	0	0	0	0	531	492	
4	0	0	0	0	531	491	
5	0	0	0	0	531	491	
6	0	0	0	0	530	490	
7	0	0	0	0	530	491	
8	0	0	0	0	529	491	
9	0	0	0	0	529	491	
10	0	0	0	0	529	491	
11	0	0	0	0	529	492	
12	0	0	0	0	528	491	
13	0	0	0	0	528	491	
14	0	0	0	0	528	492	
15	0	0	0	0	528	492	
0	0	0	0	0	528	491	
1	0	0	0	0	528	492	
2	0	0	0	0	528	491	
3	0	0	0	0	529	492	
4	0	0	0	0	528	491	
5	0	0	0	0	528	491	
6	0	0	0	0	527	491	
7	0	0	0	0	527	491	
8	0	0	0	0	527	490	
9	0	0	0	0	527	491	
10	0	0	0	0	527	491	
11	0	0	0	0	526	492	
12	0	0	0	0	526	491	
13	0	0	0	0	526	491	
14	0	0	0	0	525	491	
15	0	0	0	0	526	491	
0	0	0	0	0	525	491	
1	0	0	0	0	525	491	
2	0	0	0	0	526	490	
3	0	0	0	0	526	491	
4	0	0	0	0	525	491	
5	0	0	0	0	525	491	
6	0	0	0	0	525	492	
7	0	0	0	0	525	491	
8	0	0	0	0	524	491	
9	0	0	0	0	525	492	
10	0	0	0	0	524	491	
11	0	0	0	0	524	492	
12	0	0	0	0	524	491	
13	0	0	0	0	523	491	
14	0	0	0	0	523	492	
15	0	0	0	0	523	491	
0	0	0	0	0	522	491	
1	0	0	0	0	523	491	
2	0	0	0	0	524	492	
3	0	0	0	0	524	492	
4	0	0	0	0	524	492	
5	0	0	0	0	524	492	
6	0	0	0	0	524	492	
7	0	0	0	0	525	492	
8	0	0	0	0	525	492	
9	0	0	0	0	525	492	
10	0	0	0	0	525	491	
11	0	0	0	0	525	492	
12	0	0	0	0	524	491	
13	0	0	0	0	524	491	
14	0	0	0	0	523	491	
15	0	0	0	0	523	490	
0	0	0	0	0	523	491	
1	0	0	0	0	522	491	
2	0	0	0	0	523	491	
3	0	0	0	0	524	492	
4	0	0	0	0	524	491	
5	0	0	0	0	524	492	
6	0	0	0	0	524	491	
7	0	0	0	0	524	490	
8	0	0	0	0	524	492	
9	0	0	0	0	524	492	
10	0	0	0	0	524	492	
11	0	0	0	0	524	492	
12	0	0	0	0	524	492	
13	0	0	0	0	522	492	
14	0	0	0	0	521	491	
15	0	0	0	0	521	491	
0	0	0	0	0	520	491	
1	0	0	0	0	520	491	
2	0	0	0	0	520	492	
3	0	0	0	0	519	492	
4	0	0	0	0	519	491	
5	0	0	0	0	519	491	
6	0	0	0	0	519	491	
7	0	0	0	0	519	491	
8	0	0	0	0	519	491	
9	0	0	0	0	519	491	
10	0	0	0	0	518	491	
11	0	0	0	0	518	492	
12	0	0	0	0	518	490	
13	0	0	0	0	517	491	
14	0	0	0	0	517	491	
15	0	0	0	0	517	491	
0	0	0	0	0	516	491	
1	0	0	0	0	516	491	
2	0	0	0	0	516	491	
3	0	0	0	0	516	491	
4	0	0	0	0	516	491	
5	0	0	0	0	515	490	
6	0	0	0	0	515	490	
7	0	0	0	0	514	491	
8	0	0	0	0	513	491	
9	0	0	0	0	512	490	
10	0	0	0	0	512	490	
11	0	0	0	0	512	491	
12	0	0	0	0	512	491	
13	0	0	0	0	512	491	
14	0	0	0	0	512	490	
15	0	0	0	0	511	489	
0	0	0	0	0	511	490	
1	0	0	0	0	511	490	
2	0	0	0	0	510	491	
3	0	0	0	0	510	492	
4	0	0	0	0	510	491	
5	0	0	0	0	510	491	
6	0	0	0	0	510	491	
7	0	0	0	0	510	490	
8	0	0	0	0	510	491	
9	0	0	0	0	510	491	
10	0	0	0	0	510	491	
11	0	0	0	0	510	491	
12	0	0	0	0	510	490	
13	0	0	0	0	511	490	
14	0	0	0	0	511	491	
15	0	0	0	0	511	489	
0	0	0	0	0	511	490	
1	0	0	0	0	511	490	
2	0	0	0	0	511	490	
3	0	0	0	0	511	491	
4	0	0	0	0	511	490	
5	0	0	0	0	511	490	
6	0	0	0	0	512	490	
7	0	0	0	0	512	490	
8	0	0	0	0	512	490	
9	0	0	0	0	512	490	
10	0	0	0	0	513	491	
11	0	0	0	0	513	492	
12	0	0	0	0	515	490	
13	0	0	0	0	516	491	
14	0	0	0	0	518	491	
15	0	0	0	0	519	490	
0	0	0	0	0	520	491	
1	0	0	0	0	521	490	
2	0	0	0	0	521	491	
3	0	0	0	0	521	492	
4	0	0	0	0	521	491	
5	0	0	0	0	522	490	
6	0	0	0	0	522	490	
7	0	0	0	0	522	491	
8	0	0	0	0	522	490	
9	0	0	0	0	523	491	
10	0	0	0	0	523	490	
11	0	0	0	0	522	491	
12	0	0	0	0	522	491	
13	0	0	0	0	522	491	
14	0	0	0	0	522	491	
15	0	0	0	0	523	490	
0	0	0	0	0	523	491	
1	0	0	0	0	523	491	
2	0	0	0	0	522	491	
3	0	0	0	0	521	492	
4	0	0	0	0	521	492	
5	0	0	0	0	521	492	
6	0	0	0	0	521	491	
7	0	0	0	0	521	491	
8	0	0	0	0	521	492	
9	0	0	0	0	521	491	
10	0	0	0	0	521	492	
11	0	0	0	0	521	492	
12	0	0	0	0	520	492	
13	0	0	0	0	519	491	
14	0	0	0	0	519	491	
15	0	0	0	0	519	491	
0	0	0	0	0	518	492	
1	0	0	0	0	518	492	
2	0	0	0	0	518	491	
3	0	0	0	0	517	492	
4	0	0	0	0	517	492	
5	0	0	0	0	517	491	
6	0	0	0	0	516	491	
7	0	0	0	0	516	491	
8	0	0	0	0	516	490	
9	0	0	0	0	516	491	
10	0	0	0	0	516	491	
11	0	0	0	0	516	492	
12	0	0	0	0	515	491	
13	0	0	0	0	514	491	
14	0	0	0	0	514	492	
15	0	0	0	0	513	491	
0	0	0	0	0	512	491	
1	0	0	0	0	512	491	
2	0	0	0	0	511	491	
3	0	0	0	0	511	492	
4	0	0	0	0	510	491	
5	0	0	0	0	509	491	
6	0	0	0	0	509	491	
7	0	0	0	0	509	492	
8	0	0	0	0	509	491	
9	0	0	0	0	509	492	
10	0	0	0	0	509	492	
11	0	0	0	0	510	492	
12	0	0	0	0	509	492	
13	0	0	0	0	508	492	
14	0	0	0	0	508	492	
15	0	0	0	0	507	492	
0	0	0	0	0	508	492	
1	0	0	0	0	508	492	
2	0	0	0	0	508	491	
3	0	0	0	0	507	492	
4	0	0	0	0	507	491	
5	0	0	0	0	507	491	
6	0	0	0	0	507	491	
7	0	0	0	0	507	491	
8	0	0	0	0	507	491	
9	0	0	0	0	507	491	
10	0	0	0	0	507	491	
11	0	0	0	0	507	491	
12	0	0	0	0	507	491	
13	0	0	0	0	507	490	
14	0	0	0	0	508	491	
15	0	0	0	0	508	491	
0	0	0	0	0	508	491	
1	0	0	0	0	507	491	
2	0	0	0	0	507	491	
3	0	0	0	0	506	492	
4	0	0	0	0	506	492	
5	0	0	0	0	505	491	
6	0	0	0	0	506	491	
7	0	0	0	0	505	490	
8	0	0	0	0	506	491	
9	0	0	0	0	505	492	
10	0	0	0	0	505	492	
11	0	0	0	0	505	492	
12	0	0	0	0	505	491	
13	0	0	0	0	505	491	
14	0	0	0	0	504	492	
15	0	0	0	0	504	491	
0	0	0	0	0	504	491	
1	0	0	0	0	504	491	
2	0	0	0	0	504	491	
3	0	0	0	0	503	492	
4	0	0	0	0	502	491	
5	0	0	0	0	500	492	
6	0	0	0	0	499	491	
7	0	0	0	0	497	491	
8	0	0	0	0	495	491	
9	0	0	0	0	492	491	
10	0	0	0	0	490	491	
11	0	0	0	0	487	492	
12	0	0	0	0	484	491	
13	0	0	0	0	482	492	
14	0	0	0	0	480	491	
15	0	0	0	0	477	491	
0	0	0	0	0	474	491	
1	0	0	0	0	472	491	
2	0	0	0	0	470	490	
3	0	0	0	0	466	491	
4	0	0	0	0	461	491	
5	0	0	0	0	455	490	
6	0	0	0	0	450	491	
7	0	0	0	0	445	490	
8	0	0	0	0	440	490	
9	0	0	0	0	436	490	
10	0	0	0	0	434	489	
11	0	0	0	0	435	491	
12	0	0	0	0	438	490	
13	0	0	0	0	443	489	
14	0	0	0	0	448	491	
15	0	0	0	0	455	490	
0	0	0	0	0	462	491	
1	0	0	0	0	472	491	
2	0	0	0	0	489	490	
3	0	0	0	0	508	491	
4	0	0	0	0	525	491	
5	0	0	0	0	540	491	
6	0	0	0	0	555	491	
7	0	0	0	0	569	491	
8	0	0	0	0	584	491	
9	0	0	0	0	598	491	
10	0	0	0	0	611	491	
11	0	0	0	0	624	492	
12	0	0	0	0	636	491	
13	0	0	0	0	647	492	
14	0	0	0	0	657	492	
15	0	0	0	0	665	490	
0	0	0	0	0	669	491	
1	0	0	0	0	672	491	
2	0	0	0	0	674	491	
3	0	0	0	0	675	492	
4	0	0	0	0	676	491	
5	0	0	0	0	676	491	
6	0	0	0	0	678	491	
7	0	0	0	0	678	491	
8	0	0	0	0	681	491	
9	0	0	0	0	684	491	
10	0	0	0	0	683	491	
11	0	0	0	0	680	492	
12	0	0	0	0	676	491	
13	0	0	0	0	672	491	
14	0	0	0	0	667	491	
15	0	0	0	0	660	491	
0	0	0	0	0	652	491	
1	0	0	0	0	640	491	
2	0	0	0	0	627	491	
3	0	0	0	0	612	491	
4	0	0	0	0	598	490	
5	0	0	0	0	583	490	
6	0	0	0	0	570	491	
7	0	0	0	0	558	491	
8	0	0	0	0	546	491	
9	0	0	0	0	536	489	
10	0	0	0	0	527	491	
11	0	0	0	0	517	491	
12	0	0	0	0	508	490	
13	0	0	0	0	500	490	
14	0	0	0	0	493	490	
15	0	0	0	0	487	490	
0	0	0	0	0	481	490	
1	0	0	0	0	476	490	
2	0	0	0	0	472	491	
3	0	0	0	0	468	492	
4	0	0	0	0	465	491	
5	0	0	0	0	461	490	
6	0	0	0	0	458	491	
7	0	0	0	0	456	491	
8	0	0	0	0	454	490	
9	0	0	0	0	453	490	
10	0	0	0	0	451	491	
11	0	0	0	0	451	492	
12	0	0	0	0	451	490	
13	0	0	0	0	450	490	
14	0	0	0	0	449	490	
15	0	0	0	0	449	491	
0	0	0	0	0	448	491	
1	0	0	0	0	448	492	
2	0	0	0	0	448	491	
3	0	0	0	0	448	492	
4	0	0	0	0	449	491	
5	0	0	0	0	449	492	
6	0	0	0	0	449	492	
7	0	0	0	0	450	491	
8	0	0	0	0	450	492	
9	0	0	0	0	450	492	
10	0	0	0	0	450	492	
11	0	0	0	0	450	492	
12	0	0	0	0	450	492	
13	0	0	0	0	451	492	
14	0	0	0	0	451	492	
15	0	0	0	0	451	491	
0	0	0	0	0	452	491	
1	0	0	0	0	453	491	
2	0	0	0	0	454	491	
3	0	0	0	0	454	493	
4	0	0	0	0	454	491	
5	0	0	0	0	454	491	
6	0	0	0	0	454	491	
7	0	0	0	0	454	491	
8	0	0	0	0	454	491	
9	0	0	0	0	455	491	
10	0	0	0	0	455	491	
11	0	0	0	0	456	492	
12	0	0	0	0	457	491	
13	0	0	0	0	457	491	
14	0	0	0	0	457	492	
15	0	0	0	0	458	491	
0	0	0	0	0	458	491	
1	0	0	0	0	458	491	
2	0	0	0	0	457	491	
3	0	0	0	0	456	491	
4	0	0	0	0	456	491	
5	0	0	0	0	456	491	
6	0	0	0	0	456	491	
7	0	0	0	0	457	491	
8	0	0	0	0	457	491	
9	0	0	0	0	458	491	
10	0	0	0	0	458	491	
11	0	0	0	0	459	492	
12	0	0	0	0	459	491	
13	0	0	0	0	459	491	
14	0	0	0	0	459	491	
15	0	0	0	0	459	490	
0	0	0	0	0	460	491	
1	0	0	0	0	460	491	
2	0	0	0	0	461	491	
3	0	0	0	0	461	491	
4	0	0	0	0	460	491	
5	0	0	0	0	461	491	
6	0	0	0	0	461	491	
7	0	0	0	0	462	490	
8	0	0	0	0	462	490	
9	0	0	0	0	462	491	
10	0	0	0	0	463	491	
11	0	0	0	0	464	491	
12	0	0	0	0	464	491	
13	0	0	0	0	463	490	
14	0	0	0	0	464	491	
15	0	0	0	0	464	491	
0	0	0	0	0	464	491	
1	0	0	0	0	465	490	
2	0	0	0	0	465	491	
3	0	0	0	0	464	492	
4	0	0	0	0	463	491	
5	0	0	0	0	463	491	
6	0	0	0	0	464	491	
7	0	0	0	0	464	491	
8	0	0	0	0	464	491	
9	0	0	0	0	464	492	
10	0	0	0	0	465	491	
11	0	0	0	0	465	491	
12	0	0	0	0	465	491	
13	0	0	0	0	465	491	
14	0	0	0	0	466	491	
15	0	0	0	0	466	491	
0	0	0	0	0	466	491	
1	0	0	0	0	466	491	
2	0	0	0	0	465	491	
3	0	0	0	0	466	491	
4	0	0	0	0	466	491	
5	0	0	0	0	467	490	
6	0	0	0	0	467	491	
7	0	0	0	0	468	491	
8	0	0	0	0	468	491	
9	0	0	0	0	469	491	
10	0	0	0	0	469	491	
11	0	0	0	0	468	492	
12	0	0	0	0	468	492	
13	0	0	0	0	468	492	
14	0	0	0	0	468	492	
15	0	0	0	0	468	491	
0	0	0	0	0	468	491	
1	0	0	0	0	467	491	
2	0	0	0	0	467	491	
3	0	0	0	0	467	492	
4	0	0	0	0	467	491	
5	0	0	0	0	467	491	
6	0	0	0	0	467	491	
7	0	0	0	0	467	491	
8	0	0	0	0	466	490	
9	0	0	0	0	466	491	
10	0	0	0	0	465	490	
11	0	0	0	0	465	491	
12	0	0	0	0	465	490	
13	0	0	0	0	465	491	
14	0	0	0	0	465	491	
15	0	0	0	0	465	490	
0	0	0	0	0	465	490	
1	0	0	0	0	464	491	
2	0	0	0	0	463	491	
3	0	0	0	0	462	492	
4	0	0	0	0	461	491	
5	0	0	0	0	461	491	
6	0	0	0	0	461	491	
7	0	0	0	0	461	491	
8	0	0	0	0	461	491	
9	0	0	0	0	462	491	
10	0	0	0	0	462	491	
11	0	0	0	0	462	491	
12	0	0	0	0	461	491	
13	0	0	0	0	460	490	
14	0	0	0	0	460	491	
15	0	0	0	0	459	491	
0	0	0	0	0	457	491	
1	0	0	0	0	456	491	
2	0	0	0	0	455	491	
3	0	0	0	0	455	492	
4	0	0	0	0	454	491	
5	0	0	0	0	454	492	
6	0	0	0	0	454	492	
7	0	0	0	0	453	492	
8	0	0	0	0	453	491	
9	0	0	0	0	453	492	
10	0	0	0	0	451	492	
11	0	0	0	0	451	493	
12	0	0	0	0	451	491	
13	0	0	0	0	451	492	
14	0	0	0	0	451	492	
15	0	0	0	0	451	491	
0	0	0	0	0	450	491	
1	0	0	0	0	450	491	
2	0	0	0	0	450	491	
3	0	0	0	0	449	491	
4	0	0	0	0	449	491	
5	0	0	0	0	448	491	
6	0	0	0	0	448	491	
7	0	0	0	0	448	491	
8	0	0	0	0	449	492	
9	0	0	0	0	449	492	
10	0	0	0	0	448	491	
11	0	0	0	0	448	492	
12	0	0	0	0	448	491	
13	0	0	0	0	448	491	
14	0	0	0	0	447	491	
15	0	0	0	0	448	491	
0	0	0	0	0	448	491	
1	0	0	0	0	448	492	
2	0	0	0	0	449	492	
3	0	0	0	0	448	492	
4	0	0	0	0	448	492	
5	0	0	0	0	449	492	
6	0	0	0	0	449	491	
7	0	0	0	0	449	491	
8	0	0	0	0	449	491	
9	0	0	0	0	449	491	
10	0	0	0	0	449	491	
11	0	0	0	0	449	491	
12	0	0	0	0	450	490	
13	0	0	0	0	450	491	
14	0	0	0	0	451	491	
15	0	0	0	0	451	490	
0	0	0	0	0	451	491	
1	0	0	0	0	452	491	
2	0	0	0	0	453	491	
3	0	0	0	0	454	491	
4	0	0	0	0	455	490	
5	0	0	0	0	455	490	
6	0	0	0	0	456	490	
7	0	0	0	0	457	489	
8	0	0	0	0	458	489	
9	0	0	0	0	460	489	
10	0	0	0	0	461	491	
11	0	0	0	0	463	491	
12	0	0	0	0	465	489	
13	0	0	0	0	468	490	
14	0	0	0	0	470	490	
15	0	0	0	0	473	490	
0	0	0	0	0	476	490	
1	0	0	0	0	479	490	
2	0	0	0	0	482	490	
3	0	0	0	0	485	491	
4	0	0	0	0	488	490	
5	0	0	0	0	491	489	
6	0	0	0	0	494	490	
7	0	0	0	0	496	490	
8	0	0	0	0	499	490	
9	0	0	0	0	503	491	
10	0	0	0	0	506	490	
11	0	0	0	0	509	491	
12	0	0	0	0	511	490	
13	0	0	0	0	513	490	
14	0	0	0	0	516	490	
15	0	0	0	0	518	490	
0	0	0	0	0	520	491	
1	0	0	0	0	522	491	
2	0	0	0	0	524	490	
3	0	0	0	0	526	491	
4	0	0	0	0	528	490	
5	0	0	0	0	530	491	
6	0	0	0	0	531	491	
7	0	0	0	0	534	490	
8	0	0	0	0	536	490	
9	0	0	0	0	538	491	
10	0	0	0	0	540	491	
11	0	0	0	0	541	491	
12	0	0	0	0	543	491	
13	0	0	0	0	543	491	
14	0	0	0	0	545	490	
15	0	0	0	0	547	491	
0	0	0	0	0	548	490	
1	0	0	0	0	550	491	
2	0	0	0	0	552	491	
3	0	0	0	0	554	491	
4	0	0	0	0	555	491	
5	0	0	0	0	556	491	
6	0	0	0	0	556	491	
7	0	0	0	0	557	490	
8	0	0	0	0	558	491	
9	0	0	0	0	559	490	
10	0	0	0	0	559	492	
11	0	0	0	0	559	491	
12	0	0	0	0	559	491	
13	0	0	0	0	559	492	
14	0	0	0	0	559	491	
15	0	0	0	0	560	492	
0	0	0	0	0	561	491	
1	0	0	0	0	561	491	
2	0	0	0	0	562	491	
3	0	0	0	0	562	491	
4	0	0	0	0	563	491	
5	0	0	0	0	563	491	
6	0	0	0	0	563	491	
7	0	0	0	0	563	491	
8	0	0	0	0	564	491	
9	0	0	0	0	563	491	
10	0	0	0	0	564	491	
11	0	0	0	0	563	492	
12	0	0	0	0	563	492	
13	0	0	0	0	563	492	
14	0	0	0	0	563	491	
15	0	0	0	0	561	491	
0	0	0	0	0	561	492	
1	0	0	0	0	561	491	
2	0	0	0	0	560	492	
3	0	0	0	0	559	492	
4	0	0	0	0	560	492	
5	0	0	0	0	560	492	
6	0	0	0	0	559	492	
7	0	0	0	0	558	492	
8	0	0	0	0	558	492	
9	0	0	0	0	557	492	
10	0	0	0	0	557	492	
11	0	0	0	0	557	492	
12	0	0	0	0	556	492	
13	0	0	0	0	556	492	
14	0	0	0	0	555	492	
15	0	0	0	0	554	491	
0	0	0	0	0	553	492	
1	0	0	0	0	553	492	
2	0	0	0	0	552	492	
3	0	0	0	0	551	492	
4	0	0	0	0	552	492	
5	0	0	0	0	552	492	
6	0	0	0	0	551	492	
7	0	0	0	0	551	492	
8	0	0	0	0	550	492	
9	0	0	0	0	550	492	
10	0	0	0	0	550	492	
11	0	0	0	0	550	492	
12	0	0	0	0	550	492	
13	0	0	0	0	550	492	
14	0	0	0	0	550	492	
15	0	0	0	0	550	492	
0	0	0	0	0	550	492	
1	0	0	0	0	550	492	
2	0	0	0	0	549	491	
3	0	0	0	0	548	492	
4	0	0	0	0	548	491	
5	0	0	0	0	547	491	
6	0	0	0	0	547	491	
7	0	0	0	0	546	491	
8	0	0	0	0	546	491	
9	0	0	0	0	545	491	
10	0	0	0	0	544	491	
11	0	0	0	0	543	492	
12	0	0	0	0	542	491	
13	0	0	0	0	542	491	
14	0	0	0	0	541	491	
15	0	0	0	0	540	491	
0	0	0	0	0	540	492	
1	0	0	0	0	540	492	
2	0	0	0	0	540	491	
3	0	0	0	0	539	492	
4	0	0	0	0	539	491	
5	0	0	0	0	539	491	
6	0	0	0	0	539	491	
7	0	0	0	0	539	491	
8	0	0	0	0	540	491	
9	0	0	0	0	540	491	
10	0	0	0	0	540	491	
11	0	0	0	0	539	491	
12	0	0	0	0	539	491	
13	0	0	0	0	538	490	
14	0	0	0	0	539	491	
15	0	0	0	0	538	491	
0	0	0	0	0	538	491	
1	0	0	0	0	537	491	
2	0	0	0	0	536	491	
3	0	0	0	0	536	492	
4	0	0	0	0	536	492	
5	0	0	0	0	535	491	
6	0	0	0	0	535	491	
7	0	0	0	0	535	491	
8	0	0	0	0	535	491	
9	0	0	0	0	535	491	
10	0	0	0	0	534	492	
11	0	0	0	0	534	492	
12	0	0	0	0	534	491	
13	0	0	0	0	534	490	
14	0	0	0	0	534	491	
15	0	0	0	0	534	492	
0	0	0	0	0	534	491	
1	0	0	0	0	534	491	
2	0	0	0	0	534	491	
3	0	0	0	0	534	492	
4	0	0	0	0	533	490	
5	0	0	0	0	533	491	
6	0	0	0	0	533	491	
7	0	0	0	0	533	491	
8	0	0	0	0	532	491	
9	0	0	0	0	532	491	
10	0	0	0	0	531	491	
11	0	0	0	0	531	492	
12	0	0	0	0	531	490	
13	0	0	0	0	531	491	
14	0	0	0	0	531	491	
15	0	0	0	0	531	490	
0	0	0	0	0	530	491	
1	0	0	0	0	530	491	
2	0	0	0	0	530	490	
3	0	0	0	0	530	490	
4	0	0	0	0	530	490	
5	0	0	0	0	529	491	
6	0	0	0	0	529	490	
7	0	0	0	0	529	490	
8	0	0	0	0	528	490	
9	0	0	0	0	528	490	
10	0	0	0	0	528	491	
11	0	0	0	0	527	491	
12	0	0	0	0	527	490	
13	0	0	0	0	527	490	
14	0	0	0	0	527	490	
15	0	0	0	0	527	490	
0	0	0	0	0	527	490	
1	0	0	0	0	528	490	
2	0	0	0	0	528	490	
3	0	0	0	0	527	491	
4	0	0	0	0	528	490	
5	0	0	0	0	528	490	
6	0	0	0	0	527	490	
7	0	0	0	0	527	490	
8	0	0	0	0	527	490	
9	0	0	0	0	526	489	
10	0	0	0	0	526	490	
11	0	0	0	0	526	491	
12	0	0	0	0	525	491	
13	0	0	0	0	525	491	
14	0	0	0	0	524	491	
15	0	0	0	0	524	491	
0	0	0	0	0	524	491	
1	0	0	0	0	524	492	
2	0	0	0	0	524	491	
3	0	0	0	0	524	492	
4	0	0	0	0	524	492	
5	0	0	0	0	524	492	
6	0	0	0	0	524	492	
7	0	0	0	0	525	492	
8	0	0	0	0	525	492	
9	0	0	0	0	525	492	
10	0	0	0	0	525	491	
11	0	0	0	0	526	492	
12	0	0	0	0	526	491	
13	0	0	0	0	525	491	
14	0	0	0	0	525	492	
15	0	0	0	0	525	492	
0	0	0	0	0	525	492	
1	0	0	0	0	525	492	
2	0	0	0	0	524	492	
3	0	0	0	0	524	492	
4	0	0	0	0	524	492	
5	0	0	0	0	524	492	
6	0	0	0	0	523	492	
7	0	0	0	0	522	492	
8	0	0	0	0	521	492	
9	0	0	0	0	522	492	
10	0	0	0	0	522	492	
11	0	0	0	0	522	492	
12	0	0	0	0	521	491	
13	0	0	0	0	521	491	
14	0	0	0	0	521	491	
15	0	0	0	0	522	491	
0	0	0	0	0	522	491	
1	0	0	0	0	522	491	
2	0	0	0	0	522	491	
3	0	0	0	0	522	492	
4	0	0	0	0	523	491	
5	0	0	0	0	523	491	
6	0	0	0	0	523	491	
7	0	0	0	0	524	491	
8	0	0	0	0	523	491	
9	0	0	0	0	523	491	
10	0	0	0	0	522	491	
11	0	0	0	0	522	492	
12	0	0	0	0	522	491	
13	0	0	0	0	521	491	
14	0	0	0	0	522	492	
15	0	0	0	0	521	491	
0	0	0	0	0	521	491	
1	0	0	0	0	521	492	
2	0	0	0	0	521	492	
3	0	0	0	0	522	492	
4	0	0	0	0	523	491	
5	0	0	0	0	523	491	
6	0	0	0	0	523	491	
7	0	0	0	0	523	491	
8	0	0	0	0	522	492	
9	0	0	0	0	521	492	
10	0	0	0	0	521	492	
11	0	0	0	0	521	492	
12	0	0	0	0	520	492	
13	0	0	0	0	520	492	
14	0	0	0	0	520	491	
15	0	0	0	0	519	491	
0	0	0	0	0	519	491	
1	0	0	0	0	519	491	
2	0	0	0	0	519	492	
3	0	0	0	0	518	492	
4	0	0	0	0	518	491	
5	0	0	0	0	518	491	
6	0	0	0	0	518	491	
7	0	0	0	0	518	491	
8	0	0	0	0	518	491	
9	0	0	0	0	517	491	
10	0	0	0	0	516	491	
11	0	0	0	0	516	491	
12	0	0	0	0	516	491	
13	0	0	0	0	516	491	
14	0	0	0	0	516	491	
15	0	0	0	0	516	491	
0	0	0	0	0	516	491	
1	0	0	0	0	515	491	
2	0	0	0	0	515	491	
3	0	0	0	0	515	492	
4	0	0	0	0	515	491	
5	0	0	0	0	514	491	
6	0	0	0	0	515	491	
7	0	0	0	0	514	490	
8	0	0	0	0	514	491	
9	0	0	0	0	514	490	
10	0	0	0	0	514	491	
11	0	0	0	0	514	491	
12	0	0	0	0	513	490	
13	0	0	0	0	513	490	
14	0	0	0	0	512	490	
15	0	0	0	0	512	489	
0	0	0	0	0	512	491	
1	0	0	0	0	513	491	
2	0	0	0	0	513	490	
3	0	0	0	0	512	492	
4	0	0	0	0	512	491	
5	0	0	0	0	512	491	
6	0	0	0	0	512	491	
7	0	0	0	0	512	490	
8	0	0	0	0	511	490	
9	0	0	0	0	511	491	
10	0	0	0	0	511	491	
11	0	0	0	0	511	492	
12	0	0	0	0	511	491	
13	0	0	0	0	511	491	
14	0	0	0	0	511	491	
15	0	0	0	0	510	491	
0	0	0	0	0	509	491	
1	0	0	0	0	508	492	
2	0	0	0	0	507	491	
3	0	0	0	0	507	492	
4	0	0	0	0	507	491	
5	0	0	0	0	507	492	
6	0	0	0	0	507	491	
7	0	0	0	0	506	491	
8	0	0	0	0	505	491	
9	0	0	0	0	506	491	
10	0	0	0	0	506	491	
11	0	0	0	0	507	491	
12	0	0	0	0	508	491	
13	0	0	0	0	509	491	
14	0	0	0	0	510	491	
15	0	0	0	0	510	491	
0	0	0	0	0	511	491	
1	0	0	0	0	512	491	
2	0	0	0	0	512	491	
3	0	0	0	0	512	492	
4	0	0	0	0	511	491	
5	0	0	0	0	511	492	
6	0	0	0	0	511	491	
7	0	0	0	0	512	491	
8	0	0	0	0	512	490	
9	0	0	0	0	512	491	
10	0	0	0	0	513	491	
11	0	0	0	0	514	491	
12	0	0	0	0	514	491	
13	0	0	0	0	515	491	
14	0	0	0	0	516	491	
15	0	0	0	0	516	490	
0	0	0	0	0	517	491	
1	0	0	0	0	518	490	
2	0	0	0	0	519	490	
3	0	0	0	0	520	491	
4	0	0	0	0	520	491	
5	0	0	0	0	521	490	
6	0	0	0	0	520	491	
7	0	0	0	0	521	490	
8	0	0	0	0	520	491	
9	0	0	0	0	519	491	
10	0	0	0	0	519	491	
11	0	0	0	0	520	491	
12	0	0	0	0	520	491	
13	0	0	0	0	520	491	
14	0	0	0	0	520	491	
15	0	0	0	0	519	490	
0	0	0	0	0	519	491	
1	0	0	0	0	519	491	
2	0	0	0	0	520	491	
3	0	0	0	0	521	492	
4	0	0	0	0	521	491	
5	0	0	0	0	521	491	
6	0	0	0	0	520	490	
7	0	0	0	0	520	491	
8	0	0	0	0	521	492	
9	0	0	0	0	521	492	
10	0	0	0	0	521	491	
11	0	0	0	0	521	492	
12	0	0	0	0	521	492	
13	0	0	0	0	520	492	
14	0	0	0	0	520	492	
15	0	0	0	0	519	491	
0	0	0	0	0	518	492	
1	0	0	0	0	518	492	
2	0	0	0	0	516	492	
3	0	0	0	0	516	492	
4	0	0	0	0	516	491	
5	0	0	0	0	515	491	
6	0	0	0	0	515	491	
7	0	0	0	0	515	491	
8	0	0	0	0	514	491	
9	0	0	0	0	513	491	
10	0	0	0	0	512	491	
11	0	0	0	0	512	492	
12	0	0	0	0	512	492	
13	0	0	0	0	512	492	
14	0	0	0	0	512	491	
15	0	0	0	0	511	491	
0	0	0	0	0	511	492	
1	0	0	0	0	511	492	
2	0	0	0	0	512	492	
3	0	0	0	0	512	492	
4	0	0	0	0	512	492	
5	0	0	0	0	512	492	
6	0	0	0	0	512	491	
7	0	0	0	0	512	492	
8	0	0	0	0	512	492	
9	0	0	0	0	512	491	
10	0	0	0	0	512	491	
11	0	0	0	0	511	492	
12	0	0	0	0	512	491	
13	0	0	0	0	512	491	
14	0	0	0	0	511	492	
15	0	0	0	0	512	491	
0	0	0	0	0	512	491	
1	0	0	0	0	511	491	
2	0	0	0	0	510	491	
3	0	0	0	0	510	491	
4	0	0	0	0	510	491	
5	0	0	0	0	510	491	
6	0	0	0	0	509	490	
7	0	0	0	0	509	491	
8	0	0	0	0	508	491	
9	0	0	0	0	508	491	
10	0	0	0	0	508	491	
11	0	0	0	0	507	490	
12	0	0	0	0	506	491	
13	0	0	0	0	506	490	
14	0	0	0	0	505	491	
15	0	0	0	0	505	491	
0	0	0	0	0	505	490	
1	0	0	0	0	507	490	
2	0	0	0	0	507	490	
3	0	0	0	0	507	491	
4	0	0	0	0	507	490	
5	0	0	0	0	507	490	
6	0	0	0	0	507	490	
7	0	0	0	0	507	491	
8	0	0	0	0	507	491	
9	0	0	0	0	507	491	
10	0	0	0	0	507	490	
11	0	0	0	0	507	491	
12	0	0	0	0	507	491	
13	0	0	0	0	506	491	
14	0	0	0	0	507	491	
15	0	0	0	0	507	490	
0	0	0	0	0	507	491	
1	0	0	0	0	507	491	
2	0	0	0	0	506	491	
3	0	0	0	0	505	491	
4	0	0	0	0	504	491	
5	0	0	0	0	503	491	
6	0	0	0	0	502	491	
7	0	0	0	0	500	491	
8	0	0	0	0	498	491	
9	0	0	0	0	497	491	
10	0	0	0	0	495	491	
11	0	0	0	0	493	492	
12	0	0	0	0	490	491	
13	0	0	0	0	488	492	
14	0	0	0	0	485	491	
15	0	0	0	0	482	492	
0	0	0	0	0	480	492	
1	0	0	0	0	478	491	
2	0	0	0	0	476	491	
3	0	0	0	0	474	492	
4	0	0	0	0	471	491	
5	0	0	0	0	467	492	
6	0	0	0	0	462	492	
7	0	0	0	0	456	491	
8	0	0	0	0	451	491	
9	0	0	0	0	446	492	
10	0	0	0	0	442	491	
11	0	0	0	0	439	492	
12	0	0	0	0	439	491	
13	0	0	0	0	440	490	
14	0	0	0	0	444	490	
15	0	0	0	0	449	491	
0	0	0	0	0	454	491	
1	0	0	0	0	460	492	
2	0	0	0	0	468	491	
3	0	0	0	0	482	491	
4	0	0	0	0	499	491	
5	0	0	0	0	516	490	
6	0	0	0	0	531	491	
7	0	0	0	0	544	490	
8	0	0	0	0	558	491	
9	0	0	0	0	572	491	
10	0	0	0	0	584	491	
11	0	0	0	0	597	491	
12	0	0	0	0	611	490	
13	0	0	0	0	624	490	
14	0	0	0	0	635	490	
15	0	0	0	0	644	490	
0	0	0	0	0	652	490	
1	0	0	0	0	655	490	
2	0	0	0	0	658	490	
3	0	0	0	0	662	491	
4	0	0	0	0	664	491	
5	0	0	0	0	665	490	
6	0	0	0	0	668	490	
7	0	0	0	0	670	491	
8	0	0	0	0	673	491	
9	0	0	0	0	677	491	
10	0	0	0	0	680	491	
11	0	0	0	0	681	491	
12	0	0	0	0	679	491	
13	0	0	0	0	677	491	
14	0	0	0	0	674	490	
15	0	0	0	0	670	491	
0	0	0	0	0	664	490	
1	0	0	0	0	656	490	
2	0	0	0	0	645	491	
3	0	0	0	0	633	491	
4	0	0	0	0	620	491	
5	0	0	0	0	606	492	
6	0	0	0	0	592	492	
7	0	0	0	0	579	492	
8	0	0	0	0	566	492	
9	0	0	0	0	554	492	
10	0	0	0	0	544	492	
11	0	0	0	0	534	492	
12	0	0	0	0	524	491	
13	0	0	0	0	515	492	
14	0	0	0	0	507	491	
15	0	0	0	0	500	491	
0	0	0	0	0	494	492	
1	0	0	0	0	488	492	
2	0	0	0	0	483	492	
3	0	0	0	0	479	492	
4	0	0	0	0	474	491	
5	0	0	0	0	470	492	
6	0	0	0	0	467	492	
7	0	0	0	0	464	491	
8	0	0	0	0	462	492	
9	0	0	0	0	460	492	
10	0	0	0	0	458	492	
11	0	0	0	0	457	493	
12	0	0	0	0	456	491	
13	0	0	0	0	455	491	
14	0	0	0	0	455	491	
15	0	0	0	0	455	491	
0	0	0	0	0	454	492	
1	0	0	0	0	454	491	
2	0	0	0	0	455	492	
3	0	0	0	0	455	492	
4	0	0	0	0	455	491	
5	0	0	0	0	455	491	
6	0	0	0	0	454	491	
7	0	0	0	0	454	491	
8	0	0	0	0	454	491	
9	0	0	0	0	454	491	
10	0	0	0	0	454	491	
11	0	0	0	0	454	491	
12	0	0	0	0	454	491	
13	0	0	0	0	454	491	
14	0	0	0	0	455	491	
15	0	0	0	0	455	490	
0	0	0	0	0	456	490	
1	0	0	0	0	457	489	
2	0	0	0	0	457	489	
3	0	0	0	0	459	491	
4	0	0	0	0	459	490	
5	0	0	0	0	459	490	
6	0	0	0	0	460	489	
7	0	0	0	0	460	491	
8	0	0	0	0	461	491	
9	0	0	0	0	463	490	
10	0	0	0	0	463	490	
11	0	0	0	0	463	491	
12	0	0	0	0	464	491	
13	0	0	0	0	464	491	
14	0	0	0	0	465	491	
15	0	0	0	0	465	491	
0	0	0	0	0	465	491	
1	0	0	0	0	465	491	
2	0	0	0	0	465	491	
3	0	0	0	0	466	492	
4	0	0	0	0	467	491	
5	0	0	0	0	466	491	
6	0	0	0	0	467	491	
7	0	0	0	0	467	491	
8	0	0	0	0	466	491	
9	0	0	0	0	465	492	
10	0	0	0	0	465	492	
11	0	0	0	0	465	492	
12	0	0	0	0	465	491	
13	0	0	0	0	465	492	
14	0	0	0	0	465	491	
15	0	0	0	0	466	491	
0	0	0	0	0	467	491	
1	0	0	0	0	468	491	
2	0	0	0	0	469	492	
3	0	0	0	0	469	492	
4	0	0	0	0	470	491	
5	0	0	0	0	470	491	
6	0	0	0	0	470	491	
7	0	0	0	0	470	490	
8	0	0	0	0	471	491	
9	0	0	0	0	471	491	
10	0	0	0	0	471	491	
11	0	0	0	0	472	491	
12	0	0	0	0	472	491	
13	0	0	0	0	472	491	
14	0	0	0	0	472	490	
15	0	0	0	0	472	491	
0	0	0	0	0	471	490	
1	0	0	0	0	471	490	
2	0	0	0	0	471	490	
3	0	0	0	0	471	490	
4	0	0	0	0	471	490	
5	0	0	0	0	471	490	
6	0	0	0	0	472	490	
7	0	0	0	0	471	490	
8	0	0	0	0	471	490	
9	0	0	0	0	471	490	
10	0	0	0	0	471	490	
11	0	0	0	0	471	491	
12	0	0	0	0	471	491	
13	0	0	0	0	471	491	
14	0	0	0	0	471	491	
15	0	0	0	0	471	490	
0	0	0	0	0	472	491	
1	0	0	0	0	471	491	
2	0	0	0	0	471	491	
3	0	0	0	0	471	491	
4	0	0	0	0	471	491	
5	0	0	0	0	470	491	
6	0	0	0	0	470	491	
7	0	0	0	0	471	491	
8	0	0	0	0	470	491	
9	0	0	0	0	470	491	
10	0	0	0	0	470	491	
11	0	0	0	0	470	491	
12	0	0	0	0	470	491	
13	0	0	0	0	471	491	
14	0	0	0	0	471	491	
15	0	0	0	0	471	490	
0	0	0	0	0	471	491	
1	0	0	0	0	472	491	
2	0	0	0	0	473	491	
3	0	0	0	0	473	492	
4	0	0	0	0	473	492	
5	0	0	0	0	473	491	
6	0	0	0	0	473	491	
7	0	0	0	0	472	491	
8	0	0	0	0	472	491	
9	0	0	0	0	472	491	
10	0	0	0	0	472	491	
11	0	0	0	0	472	492	
12	0	0	0	0	472	491	
13	0	0	0	0	472	492	
14	0	0	0	0	472	492	
15	0	0	0	0	472	491	
0	0	0	0	0	472	491	
1	0	0	0	0	472	491	
2	0	0	0	0	471	492	
3	0	0	0	0	471	492	
4	0	0	0	0	470	491	
5	0	0	0	0	470	491	
6	0	0	0	0	469	491	
7	0	0	0	0	467	491	
8	0	0	0	0	467	492	
9	0	0	0	0	467	491	
10	0	0	0	0	466	491	
11	0	0	0	0	465	492	
12	0	0	0	0	465	491	
13	0	0	0	0	464	491	
14	0	0	0	0	463	491	
15	0	0	0	0	463	491	
0	0	0	0	0	463	491	
1	0	0	0	0	462	492	
2	0	0	0	0	460	492	
3	0	0	0	0	460	492	
4	0	0	0	0	460	492	
5	0	0	0	0	459	492	
6	0	0	0	0	459	492	
7	0	0	0	0	458	492	
8	0	0	0	0	458	493	
9	0	0	0	0	457	492	
10	0	0	0	0	457	492	
11	0	0	0	0	456	492	
12	0	0	0	0	456	491	
13	0	0	0	0	456	492	
14	0	0	0	0	455	491	
15	0	0	0	0	455	492	
0	0	0	0	0	455	491	
1	0	0	0	0	456	492	
2	0	0	0	0	456	491	
3	0	0	0	0	455	492	
4	0	0	0	0	456	491	
5	0	0	0	0	456	491	
6	0	0	0	0	456	492	
7	0	0	0	0	455	492	
8	0	0	0	0	455	492	
9	0	0	0	0	455	491	
10	0	0	0	0	455	492	
11	0	0	0	0	455	492	
12	0	0	0	0	455	491	
13	0	0	0	0	455	491	
14	0	0	0	0	455	491	
15	0	0	0	0	456	491	
0	0	0	0	0	456	490	
1	0	0	0	0	457	491	
2	0	0	0	0	457	491	
3	0	0	0	0	457	492	
4	0	0	0	0	457	491	
5	0	0	0	0	457	491	
6	0	0	0	0	458	491	
7	0	0	0	0	458	491	
8	0	0	0	0	457	491	
9	0	0	0	0	457	491	
10	0	0	0	0	457	491	
11	0	0	0	0	457	491	
12	0	0	0	0	456	492	
13	0	0	0	0	456	491	
14	0	0	0	0	456	491	
15	0	0	0	0	457	491	
0	0	0	0	0	457	491	
1	0	0	0	0	457	491	
2	0	0	0	0	458	491	
3	0	0	0	0	459	492	
4	0	0	0	0	460	491	
5	0	0	0	0	461	490	
6	0	0	0	0	463	490	
7	0	0	0	0	464	490	
8	0	0	0	0	465	490	
9	0	0	0	0	467	490	
10	0	0	0	0	469	490	
11	0	0	0	0	471	491	
12	0	0	0	0	472	490	
13	0	0	0	0	474	491	
14	0	0	0	0	476	490	
15	0	0	0	0	478	490	
0	0	0	0	0	480	490	
1	0	0	0	0	481	491	
2	0	0	0	0	483	490	
3	0	0	0	0	486	491	
4	0	0	0	0	488	489	
5	0	0	0	0	490	490	
6	0	0	0	0	492	490	
7	0	0	0	0	495	490	
8	0	0	0	0	497	490	
9	0	0	0	0	499	490	
10	0	0	0	0	502	490	
11	0	0	0	0	505	490	
12	0	0	0	0	508	489	
13	0	0	0	0	510	490	
14	0	0	0	0	512	490	
15	0	0	0	0	514	489	
0	0	0	0	0	516	491	
1	0	0	0	0	518	491	
2	0	0	0	0	520	491	
3	0	0	0	0	522	492	
4	0	0	0	0	525	492	
5	0	0	0	0	527	492	
6	0	0	0	0	529	492	
7	0	0	0	0	531	491	
8	0	0	0	0	532	491	
9	0	0	0	0	535	492	
10	0	0	0	0	537	492	
11	0	0	0	0	539	493	
12	0	0	0	0	540	492	
13	0	0	0	0	544	492	
14	0	0	0	0	546	491	
15	0	0	0	0	547	490	
0	0	0	0	0	549	491	
1	0	0	0	0	551	490	
2	0	0	0	0	551	490	
3	0	0	0	0	553	490	
4	0	0	0	0	554	490	
5	0	0	0	0	555	490	
6	0	0	0	0	557	490	
7	0	0	0	0	558	490	
8	0	0	0	0	559	490	
9	0	0	0	0	560	491	
10	0	0	0	0	561	490	
11	0	0	0	0	561	491	
12	0	0	0	0	562	491	
13	0	0	0	0	562	491	
14	0	0	0	0	563	491	
15	0	0	0	0	563	491	
0	0	0	0	0	564	491	
1	0	0	0	0	564	490	
2	0	0	0	0	564	492	
3	0	0	0	0	564	491	
4	0	0	0	0	565	491	
5	0	0	0	0	566	490	
6	0	0	0	0	567	491	
7	0	0	0	0	567	491	
8	0	0	0	0	567	491	
9	0	0	0	0	567	491	
10	0	0	0	0	567	492	
11	0	0	0	0	568	492	
12	0	0	0	0	568	491	
13	0	0	0	0	568	492	
14	0	0	0	0	568	492	
15	0	0	0	0	567	492	
0	0	0	0	0	567	492	
1	0	0	0	0	567	492	
2	0	0	0	0	566	492	
3	0	0	0	0	566	492	
4	0	0	0	0	565	492	
5	0	0	0	0	565	492	
6	0	0	0	0	564	492	
7	0	0	0	0	563	492	
8	0	0	0	0	563	492	
9	0	0	0	0	562	492	
10	0	0	0	0	561	492	
11	0	0	0	0	561	492	
12	0	0	0	0	560	491	
13	0	0	0	0	560	492	
14	0	0	0	0	560	492	
15	0	0	0	0	559	491	
0	0	0	0	0	558	492	
1	0	0	0	0	559	492	
2	0	0	0	0	559	492	
3	0	0	0	0	558	492	
4	0	0	0	0	557	492	
5	0	0	0	0	556	492	
6	0	0	0	0	555	492	
7	0	0	0	0	555	491	
8	0	0	0	0	555	492	
9	0	0	0	0	554	492	
10	0	0	0	0	552	492	
11	0	0	0	0	551	493	
12	0	0	0	0	550	492	
13	0	0	0	0	549	492	
14	0	0	0	0	549	492	
15	0	0	0	0	549	491	
0	0	0	0	0	549	491	
1	0	0	0	0	549	491	
2	0	0	0	0	549	492	
3	0	0	0	0	550	492	
4	0	0	0	0	551	492	
5	0	0	0	0	551	492	
6	0	0	0	0	550	491	
7	0	0	0	0	550	492	
8	0	0	0	0	550	492	
9	0	0	0	0	550	491	
10	0	0	0	0	551	491	
11	0	0	0	0	550	492	
12	0	0	0	0	549	492	
13	0	0	0	0	548	491	
14	0	0	0	0	548	491	
15	0	0	0	0	548	491	
0	0	0	0	0	547	492	
1	0	0	0	0	547	492	
2	0	0	0	0	547	491	
3	0	0	0	0	546	492	
4	0	0	0	0	545	491	
5	0	0	0	0	545	491	
6	0	0	0	0	545	491	
7	0	0	0	0	544	491	
8	0	0	0	0	543	491	
9	0	0	0	0	542	491	
10	0	0	0	0	541	491	
11	0	0	0	0	541	491	
12	0	0	0	0	542	491	
13	0	0	0	0	542	491	
14	0	0	0	0	543	490	
15	0	0	0	0	543	491	
0	0	0	0	0	543	491	
1	0	0	0	0	543	491	
2	0	0	0	0	543	491	
3	0	0	0	0	543	491	
4	0	0	0	0	543	491	
5	0	0	0	0	543	491	
6	0	0	0	0	543	491	
7	0	0	0	0	543	491	
8	0	0	0	0	543	490	
9	0	0	0	0	542	490	
10	0	0	0	0	542	491	
11	0	0	0	0	542	491	
12	0	0	0	0	542	490	
13	0	0	0	0	542	490	
14	0	0	0	0	542	491	
15	0	0	0	0	541	491	
0	0	0	0	0	540	491	
1	0	0	0	0	540	491	
2	0	0	0	0	540	491	
3	0	0	0	0	539	492	
4	0	0	0	0	539	491	
5	0	0	0	0	539	491	
6	0	0	0	0	539	491	
7	0	0	0	0	538	491	
8	0	0	0	0	538	491	
9	0	0	0	0	537	490	
10	0	0	0	0	537	491	
11	0	0	0	0	536	491	
12	0	0	0	0	536	491	
13	0	0	0	0	537	491	
14	0	0	0	0	537	491	
15	0	0	0	0	536	490	
0	0	0	0	0	537	491	
1	0	0	0	0	537	490	
2	0	0	0	0	536	491	
3	0	0	0	0	536	491	
4	0	0	0	0	536	491	
5	0	0	0	0	535	491	
6	0	0	0	0	535	491	
7	0	0	0	0	535	490	
8	0	0	0	0	535	490	
9	0	0	0	0	535	490	
10	0	0	0	0	534	490	
11	0	0	0	0	533	491	
12	0	0	0	0	534	491	
13	0	0	0	0	533	491	
14	0	0	0	0	532	491	
15	0	0	0	0	531	491	
0	0	0	0	0	531	491	
1	0	0	0	0	530	491	
2	0	0	0	0	529	491	
3	0	0	0	0	529	491	
4	0	0	0	0	529	491	
5	0	0	0	0	529	491	
6	0	0	0	0	529	491	
7	0	0	0	0	529	491	
8	0	0	0	0	529	491	
9	0	0	0	0	530	491	
10	0	0	0	0	531	491	
11	0	0	0	0	531	491	
12	0	0	0	0	533	490	
13	0	0	0	0	534	491	
14	0	0	0	0	533	491	
15	0	0	0	0	534	490	
0	0	0	0	0	533	491	
1	0	0	0	0	533	491	
2	0	0	0	0	533	491	
3	0	0	0	0	535	491	
4	0	0	0	0	535	491	
5	0	0	0	0	535	491	
6	0	0	0	0	536	491	
7	0	0	0	0	536	490	
8	0	0	0	0	536	491	
9	0	0	0	0	536	491	
10	0	0	0	0	535	491	
11	0	0	0	0	535	491	
12	0	0	0	0	535	491	
13	0	0	0	0	535	491	
14	0	0	0	0	534	491	
15	0	0	0	0	534	491	
0	0	0	0	0	533	491	
1	0	0	0	0	532	491	
2	0	0	0	0	532	492	
3	0	0	0	0	532	492	
4	0	0	0	0	531	491	
5	0	0	0	0	531	491	
6	0	0	0	0	531	491	
7	0	0	0	0	531	491	
8	0	0	0	0	530	491	
9	0	0	0	0	529	491	
10	0	0	0	0	528	492	
11	0	0	0	0	528	492	
12	0	0	0	0	528	491	
13	0	0	0	0	528	491	
14	0	0	0	0	527	491	
15	0	0	0	0	528	491	
0	0	0	0	0	527	492	
1	0	0	0	0	527	492	
2	0	0	0	0	527	491	
3	0	0	0	0	526	492	
4	0	0	0	0	526	491	
5	0	0	0	0	527	492	
6	0	0	0	0	526	491	
7	0	0	0	0	526	492	
8	0	0	0	0	526	492	
9	0	0	0	0	525	492	
10	0	0	0	0	525	492	
11	0	0	0	0	525	492	
12	0	0	0	0	525	492	
13	0	0	0	0	525	492	
14	0	0	0	0	524	491	
15	0	0	0	0	524	491	
0	0	0	0	0	523	492	
1	0	0	0	0	524	491	
2	0	0	0	0	524	491	
3	0	0	0	0	523	492	
4	0	0	0	0	524	492	
5	0	0	0	0	524	491	
6	0	0	0	0	524	492	
7	0	0	0	0	524	491	
8	0	0	0	0	524	491	
9	0	0	0	0	523	491	
10	0	0	0	0	523	491	
11	0	0	0	0	523	492	
12	0	0	0	0	523	492	
13	0	0	0	0	522	491	
14	0	0	0	0	522	491	
15	0	0	0	0	523	492	
0	0	0	0	0	523	492	
1	0	0	0	0	523	491	
2	0	0	0	0	523	492	
3	0	0	0	0	524	492	
4	0	0	0	0	524	491	
5	0	0	0	0	523	492	
6	0	0	0	0	523	492	
7	0	0	0	0	523	491	
8	0	0	0	0	522	492	
9	0	0	0	0	522	491	
10	0	0	0	0	522	490	
11	0	0	0	0	522	492	
12	0	0	0	0	521	491	
13	0	0	0	0	521	491	
14	0	0	0	0	521	492	
15	0	0	0	0	521	491	
0	0	0	0	0	521	491	
1	0	0	0	0	521	491	
2	0	0	0	0	521	491	
3	0	0	0	0	522	491	
4	0	0	0	0	522	490	
5	0	0	0	0	522	490	
6	0	0	0	0	521	491	
7	0	0	0	0	520	490	
8	0	0	0	0	519	490	
9	0	0	0	0	519	491	
10	0	0	0	0	519	491	
11	0	0	0	0	518	492	
12	0	0	0	0	518	491	
13	0	0	0	0	518	491	
14	0	0	0	0	518	491	
15	0	0	0	0	518	491	
0	0	0	0	0	518	491	
1	0	0	0	0	518	491	
2	0	0	0	0	518	491	
3	0	0	0	0	517	492	
4	0	0	0	0	516	491	
5	0	0	0	0	516	491	
6	0	0	0	0	515	491	
7	0	0	0	0	515	491	
8	0	0	0	0	514	490	
9	0	0	0	0	513	491	
10	0	0	0	0	512	491	
11	0	0	0	0	513	492	
12	0	0	0	0	513	491	
13	0	0	0	0	513	491	
14	0	0	0	0	512	491	
15	0	0	0	0	511	490	
0	0	0	0	0	511	491	
1	0	0	0	0	510	490	
2	0	0	0	0	509	491	
3	0	0	0	0	509	491	
4	0	0	0	0	509	491	
5	0	0	0	0	509	491	
6	0	0	0	0	510	491	
7	0	0	0	0	510	491	
8	0	0	0	0	511	491	
9	0	0	0	0	511	492	
10	0	0	0	0	511	491	
11	0	0	0	0	510	492	
12	0	0	0	0	511	491	
13	0	0	0	0	511	492	
14	0	0	0	0	511	491	
15	0	0	0	0	511	491	
0	0	0	0	0	510	491	
1	0	0	0	0	510	491	
2	0	0	0	0	510	491	
3	0	0	0	0	510	491	
4	0	0	0	0	511	491	
5	0	0	0	0	511	491	
6	0	0	0	0	511	491	
7	0	0	0	0	512	490	
8	0	0	0	0	512	491	
9	0	0	0	0	512	492	
10	0	0	0	0	514	491	
11	0	0	0	0	515	492	
12	0	0	0	0	517	491	
13	0	0	0	0	517	491	
14	0	0	0	0	518	491	
15	0	0	0	0	519	491	
0	0	0	0	0	519	491	
1	0	0	0	0	519	491	
2	0	0	0	0	520	491	
3	0	0	0	0	520	492	
4	0	0	0	0	521	491	
5	0	0	0	0	521	491	
6	0	0	0	0	522	491	
7	0	0	0	0	522	491	
8	0	0	0	0	523	492	
9	0	0	0	0	523	491	
10	0	0	0	0	524	491	
11	0	0	0	0	524	492	
12	0	0	0	0	524	491	
13	0	0	0	0	523	492	
14	0	0	0	0	523	492	
15	0	0	0	0	523	493	
0	0	0	0	0	522	492	
1	0	0	0	0	522	492	
2	0	0	0	0	522	492	
3	0	0	0	0	521	493	
4	0	0	0	0	521	492	
5	0	0	0	0	521	492	
6	0	0	0	0	522	491	
7	0	0	0	0	521	490	
8	0	0	0	0	520	491	
9	0	0	0	0	520	491	
10	0	0	0	0	520	490	
11	0	0	0	0	519	491	
12	0	0	0	0	518	490	
13	0	0	0	0	517	490	
14	0	0	0	0	516	490	
15	0	0	0	0	516	490	
0	0	0	0	0	515	490	
1	0	0	0	0	514	490	
2	0	0	0	0	513	491	
3	0	0	0	0	513	491	
4	0	0	0	0	512	490	
5	0	0	0	0	511	491	
6	0	0	0	0	511	492	
7	0	0	0	0	511	491	
8	0	0	0	0	511	491	
9	0	0	0	0	511	491	
10	0	0	0	0	512	491	
11	0	0	0	0	512	492	
12	0	0	0	0	511	492	
13	0	0	0	0	512	492	
14	0	0	0	0	511	492	
15	0	0	0	0	511	492	
0	0	0	0	0	511	492	
1	0	0	0	0	512	492	
2	0	0	0	0	512	493	
3	0	0	0	0	513	493	
4	0	0	0	0	513	492	
5	0	0	0	0	513	492	
6	0	0	0	0	513	491	
7	0	0	0	0	513	491	
8	0	0	0	0	513	491	
9	0	0	0	0	513	492	
10	0	0	0	0	513	492	
11	0	0	0	0	513	491	
12	0	0	0	0	512	491	
13	0	0	0	0	512	491	
14	0	0	0	0	511	491	
15	0	0	0	0	511	491	
0	0	0	0	0	511	491	
1	0	0	0	0	511	491	
2	0	0	0	0	510	491	
3	0	0	0	0	510	491	
4	0	0	0	0	509	492	
5	0	0	0	0	509	491	
6	0	0	0	0	509	491	
7	0	0	0	0	508	491	
8	0	0	0	0	508	491	
9	0	0	0	0	508	491	
10	0	0	0	0	509	492	
11	0	0	0	0	509	492	
12	0	0	0	0	508	492	
13	0	0	0	0	507	492	
14	0	0	0	0	507	492	
15	0	0	0	0	505	492	
0	0	0	0	0	504	492	
1	0	0	0	0	505	492	
2	0	0	0	0	505	492	
3	0	0	0	0	505	492	
4	0	0	0	0	505	491	
5	0	0	0	0	505	492	
6	0	0	0	0	504	492	
7	0	0	0	0	504	491	
8	0	0	0	0	504	491	
9	0	0	0	0	504	492	
10	0	0	0	0	504	492	
11	0	0	0	0	504	492	
12	0	0	0	0	504	492	
13	0	0	0	0	503	492	
14	0	0	0	0	502	492	
15	0	0	0	0	502	491	
0	0	0	0	0	503	491	
1	0	0	0	0	503	492	
2	0	0	0	0	504	491	
3	0	0	0	0	504	492	
4	0	0	0	0	503	491	
5	0	0	0	0	503	492	
6	0	0	0	0	502	491	
7	0	0	0	0	500	491	
8	0	0	0	0	499	492	
9	0	0	0	0	497	491	
10	0	0	0	0	496	492	
11	0	0	0	0	494	491	
12	0	0	0	0	492	491	
13	0	0	0	0	489	492	
14	0	0	0	0	487	491	
15	0	0	0	0	484	491	
0	0	0	0	0	482	491	
1	0	0	0	0	480	491	
2	0	0	0	0	478	491	
3	0	0	0	0	476	491	
4	0	0	0	0	475	491	
5	0	0	0	0	472	491	
6	0	0	0	0	470	490	
7	0	0	0	0	467	491	
8	0	0	0	0	462	491	
9	0	0	0	0	459	491	
10	0	0	0	0	454	491	
11	0	0	0	0	449	491	
12	0	0	0	0	444	491	
13	0	0	0	0	442	491	
14	0	0	0	0	441	491	
15	0	0	0	0	442	491	
0	0	0	0	0	446	491	
1	0	0	0	0	451	492	
2	0	0	0	0	457	492	
3	0	0	0	0	466	492	
4	0	0	0	0	477	491	
5	0	0	0	0	488	492	
6	0	0	0	0	499	491	
7	0	0	0	0	509	491	
8	0	0	0	0	522	491	
9	0	0	0	0	537	491	
10	0	0	0	0	552	492	
11	0	0	0	0	567	492	
12	0	0	0	0	582	492	
13	0	0	0	0	597	491	
14	0	0	0	0	611	492	
15	0	0	0	0	622	491	
0	0	0	0	0	630	491	
1	0	0	0	0	636	492	
2	0	0	0	0	640	491	
3	0	0	0	0	641	492	
4	0	0	0	0	642	492	
5	0	0	0	0	643	492	
6	0	0	0	0	645	491	
7	0	0	0	0	647	491	
8	0	0	0	0	649	491	
9	0	0	0	0	651	492	
10	0	0	0	0	652	491	
11	0	0	0	0	652	492	
12	0	0	0	0	653	491	
13	0	0	0	0	654	491	
14	0	0	0	0	656	491	
15	0	0	0	0	655	490	
0	0	0	0	0	654	491	
1	0	0	0	0	650	491	
2	0	0	0	0	645	491	
3	0	0	0	0	637	491	
4	0	0	0	0	626	491	
5	0	0	0	0	614	491	
6	0	0	0	0	602	491	
7	0	0	0	0	590	492	
8	0	0	0	0	579	491	
9	0	0	0	0	568	492	
10	0	0	0	0	557	492	
11	0	0	0	0	547	492	
12	0	0	0	0	537	491	
13	0	0	0	0	528	492	
14	0	0	0	0	519	491	
15	0	0	0	0	512	491	
0	0	0	0	0	505	492	
1	0	0	0	0	499	491	
2	0	0	0	0	493	491	
3	0	0	0	0	488	492	
4	0	0	0	0	484	491	
5	0	0	0	0	480	492	
6	0	0	0	0	476	491	
7	0	0	0	0	473	492	
8	0	0	0	0	469	492	
9	0	0	0	0	467	492	
10	0	0	0	0	463	492	
11	0	0	0	0	460	492	
12	0	0	0	0	459	492	
13	0	0	0	0	457	492	
14	0	0	0	0	456	492	
15	0	0	0	0	455	492	
0	0	0	0	0	454	492	
1	0	0	0	0	453	492	
2	0	0	0	0	452	492	
3	0	0	0	0	452	492	
4	0	0	0	0	453	492	
5	0	0	0	0	454	492	
6	0	0	0	0	454	492	
7	0	0	0	0	455	491	
8	0	0	0	0	455	492	
9	0	0	0	0	454	491	
10	0	0	0	0	454	492	
11	0	0	0	0	455	492	
12	0	0	0	0	454	492	
13	0	0	0	0	454	491	
14	0	0	0	0	455	491	
15	0	0	0	0	455	491	
0	0	0	0	0	457	491	
1	0	0	0	0	458	491	
2	0	0	0	0	458	491	
3	0	0	0	0	458	491	
4	0	0	0	0	458	490	
5	0	0	0	0	459	491	
6	0	0	0	0	459	491	
7	0	0	0	0	460	491	
8	0	0	0	0	460	491	
9	0	0	0	0	461	491	
10	0	0	0	0	461	491	
11	0	0	0	0	461	492	
12	0	0	0	0	461	491	
13	0	0	0	0	462	492	
14	0	0	0	0	462	491	
15	0	0	0	0	463	491	
0	0	0	0	0	463	491	
1	0	0	0	0	465	492	
2	0	0	0	0	465	492	
3	0	0	0	0	466	492	
4	0	0	0	0	465	491	
5	0	0	0	0	465	491	
6	0	0	0	0	465	492	
7	0	0	0	0	465	491	
8	0	0	0	0	466	491	
9	0	0	0	0	467	492	
10	0	0	0	0	467	491	
11	0	0	0	0	466	491	
12	0	0	0	0	465	491	
13	0	0	0	0	464	492	
14	0	0	0	0	465	492	
15	0	0	0	0	465	492	
0	0	0	0	0	465	492	
1	0	0	0	0	465	492	
2	0	0	0	0	465	491	
3	0	0	0	0	465	492	
4	0	0	0	0	467	491	
5	0	0	0	0	468	491	
6	0	0	0	0	470	491	
7	0	0	0	0	470	492	
8	0	0	0	0	471	492	
9	0	0	0	0	472	491	
10	0	0	0	0	472	492	
11	0	0	0	0	472	492	
12	0	0	0	0	472	492	
13	0	0	0	0	472	491	
14	0	0	0	0	472	491	
15	0	0	0	0	472	491	
0	0	0	0	0	472	491	
1	0	0	0	0	472	492	
2	0	0	0	0	471	491	
3	0	0	0	0	472	492	
4	0	0	0	0	472	491	
5	0	0	0	0	472	491	
6	0	0	0	0	472	491	
7	0	0	0	0	472	491	
8	0	0	0	0	472	491	
9	0	0	0	0	472	491	
10	0	0	0	0	472	491	
11	0	0	0	0	472	492	
12	0	0	0	0	471	491	
13	0	0	0	0	472	491	
14	0	0	0	0	472	491	
15	0	0	0	0	472	491	
0	0	0	0	0	471	491	
1	0	0	0	0	471	491	
2	0	0	0	0	471	491	
3	0	0	0	0	471	492	
4	0	0	0	0	470	492	
5	0	0	0	0	470	491	
6	0	0	0	0	469	491	
7	0	0	0	0	468	491	
8	0	0	0	0	467	491	
9	0	0	0	0	467	491	
10	0	0	0	0	467	492	
11	0	0	0	0	467	492	
12	0	0	0	0	467	491	
13	0	0	0	0	468	492	
14	0	0	0	0	467	492	
15	0	0	0	0	467	491	
0	0	0	0	0	467	492	
1	0	0	0	0	468	492	
2	0	0	0	0	469	492	
3	0	0	0	0	470	493	
4	0	0	0	0	470	492	
5	0	0	0	0	470	492	
6	0	0	0	0	470	493	
7	0	0	0	0	470	492	
8	0	0	0	0	470	492	
9	0	0	0	0	471	492	
10	0	0	0	0	472	492	
11	0	0	0	0	472	493	
12	0	0	0	0	472	492	
13	0	0	0	0	472	492	
14	0	0	0	0	472	492	
15	0	0	0	0	472	492	
0	0	0	0	0	472	492	
1	0	0	0	0	472	491	
2	0	0	0	0	472	492	
3	0	0	0	0	473	492	
4	0	0	0	0	472	491	
5	0	0	0	0	472	491	
6	0	0	0	0	472	491	
7	0	0	0	0	471	491	
8	0	0	0	0	471	491	
9	0	0	0	0	471	492	
10	0	0	0	0	470	491	
11	0	0	0	0	469	492	
12	0	0	0	0	468	492	
13	0	0	0	0	468	492	
14	0	0	0	0	467	492	
15	0	0	0	0	467	491	
0	0	0	0	0	467	491	
1	0	0	0	0	466	492	
2	0	0	0	0	465	492	
3	0	0	0	0	465	491	
4	0	0	0	0	464	491	
5	0	0	0	0	464	491	
6	0	0	0	0	464	491	
7	0	0	0	0	464	491	
8	0	0	0	0	464	492	
9	0	0	0	0	464	491	
10	0	0	0	0	463	491	
11	0	0	0	0	462	492	
12	0	0	0	0	462	492	
13	0	0	0	0	462	492	
14	0	0	0	0	462	492	
15	0	0	0	0	462	492	
0	0	0	0	0	463	492	
1	0	0	0	0	464	491	
2	0	0	0	0	463	492	
3	0	0	0	0	463	492	
4	0	0	0	0	463	492	
5	0	0	0	0	462	492	
6	0	0	0	0	462	492	
7	0	0	0	0	461	492	
8	0	0	0	0	461	492	
9	0	0	0	0	461	492	
10	0	0	0	0	462	492	
11	0	0	0	0	462	492	
12	0	0	0	0	462	491	
13	0	0	0	0	462	491	
14	0	0	0	0	462	491	
15	0	0	0	0	463	491	
0	0	0	0	0	463	492	
1	0	0	0	0	463	491	
2	0	0	0	0	464	491	
3	0	0	0	0	465	492	
4	0	0	0	0	466	492	
5	0	0	0	0	466	491	
6	0	0	0	0	466	491	
7	0	0	0	0	466	491	
8	0	0	0	0	466	492	
9	0	0	0	0	466	491	
10	0	0	0	0	466	491	
11	0	0	0	0	466	492	
12	0	0	0	0	466	492	
13	0	0	0	0	466	491	
14	0	0	0	0	466	491	
15	0	0	0	0	466	491	
0	0	0	0	0	465	491	
1	0	0	0	0	466	491	
2	0	0	0	0	467	491	
3	0	0	0	0	468	491	
4	0	0	0	0	469	491	
5	0	0	0	0	469	490	
6	0	0	0	0	471	491	
7	0	0	0	0	472	491	
8	0	0	0	0	473	491	
9	0	0	0	0	475	491	
10	0	0	0	0	477	491	
11	0	0	0	0	479	491	
12	0	0	0	0	482	491	
13	0	0	0	0	484	491	
14	0	0	0	0	486	492	
15	0	0	0	0	488	492	
0	0	0	0	0	489	492	
1	0	0	0	0	492	492	
2	0	0	0	0	493	492	
3	0	0	0	0	495	492	
4	0	0	0	0	496	491	
5	0	0	0	0	499	491	
6	0	0	0	0	501	491	
7	0	0	0	0	502	491	
8	0	0	0	0	504	491	
9	0	0	0	0	506	492	
10	0	0	0	0	508	492	
11	0	0	0	0	510	492	
12	0	0	0	0	512	491	
13	0	0	0	0	512	491	
14	0	0	0	0	514	491	
15	0	0	0	0	516	491	
0	0	0	0	0	517	491	
1	0	0	0	0	519	491	
2	0	0	0	0	521	491	
3	0	0	0	0	523	492	
4	0	0	0	0	524	491	
5	0	0	0	0	524	491	
6	0	0	0	0	526	491	
7	0	0	0	0	527	491	
8	0	0	0	0	529	491	
9	0	0	0	0	530	491	
10	0	0	0	0	531	492	
11	0	0	0	0	531	492	
12	0	0	0	0	531	492	
13	0	0	0	0	531	492	
14	0	0	0	0	532	492	
15	0	0	0	0	532	492	
0	0	0	0	0	533	492	
1	0	0	0	0	534	492	
2	0	0	0	0	534	491	
3	0	0	0	0	535	492	
4	0	0	0	0	536	493	
5	0	0	0	0	538	492	
6	0	0	0	0	540	492	
7	0	0	0	0	539	491	
8	0	0	0	0	539	492	
9	0	0	0	0	540	492	
10	0	0	0	0	540	492	
11	0	0	0	0	540	493	
12	0	0	0	0	541	492	
13	0	0	0	0	542	492	
14	0	0	0	0	542	492	
15	0	0	0	0	543	492	
0	0	0	0	0	544	491	
1	0	0	0	0	545	491	
2	0	0	0	0	547	491	
3	0	0	0	0	548	491	
4	0	0	0	0	550	491	
5	0	0	0	0	551	491	
6	0	0	0	0	551	492	
7	0	0	0	0	552	491	
8	0	0	0	0	553	492	
9	0	0	0	0	555	492	
10	0	0	0	0	555	491	
11	0	0	0	0	555	492	
12	0	0	0	0	555	492	
13	0	0	0	0	553	492	
14	0	0	0	0	552	492	
15	0	0	0	0	551	492	
0	0	0	0	0	551	492	
1	0	0	0	0	550	491	
2	0	0	0	0	549	491	
3	0	0	0	0	549	492	
4	0	0	0	0	548	491	
5	0	0	0	0	548	492	
6	0	0	0	0	548	492	
7	0	0	0	0	547	492	
8	0	0	0	0	548	492	
9	0	0	0	0	548	492	
10	0	0	0	0	547	492	
11	0	0	0	0	547	493	
12	0	0	0	0	547	493	
13	0	0	0	0	547	492	
14	0	0	0	0	546	493	
15	0	0	0	0	546	492	
0	0	0	0	0	547	492	
1	0	0	0	0	547	493	
2	0	0	0	0	547	492	
3	0	0	0	0	547	493	
4	0	0	0	0	547	492	
5	0	0	0	0	546	492	
6	0	0	0	0	546	493	
7	0	0	0	0	547	492	
8	0	0	0	0	546	493	
9	0	0	0	0	545	492	
10	0	0	0	0	544	492	
11	0	0	0	0	543	492	
12	0	0	0	0	543	492	
13	0	0	0	0	543	492	
14	0	0	0	0	542	492	
15	0	0	0	0	540	492	
0	0	0	0	0	539	492	
1	0	0	0	0	539	492	
2	0	0	0	0	537	492	
3	0	0	0	0	537	492	
4	0	0	0	0	537	492	
5	0	0	0	0	536	492	
6	0	0	0	0	535	492	
7	0	0	0	0	535	492	
8	0	0	0	0	536	492	
9	0	0	0	0	535	492	
10	0	0	0	0	535	492	
11	0	0	0	0	534	492	
12	0	0	0	0	534	491	
13	0	0	0	0	534	491	
14	0	0	0	0	534	491	
15	0	0	0	0	535	492	
0	0	0	0	0	535	491	
1	0	0	0	0	534	492	
2	0	0	0	0	534	492	
3	0	0	0	0	534	492	
4	0	0	0	0	534	492	
5	0	0	0	0	534	492	
6	0	0	0	0	535	492	
7	0	0	0	0	535	491	
8	0	0	0	0	535	492	
9	0	0	0	0	535	492	
10	0	0	0	0	535	492	
11	0	0	0	0	535	492	
12	0	0	0	0	536	492	
13	0	0	0	0	535	492	
14	0	0	0	0	536	492	
15	0	0	0	0	536	491	
0	0	0	0	0	536	492	
1	0	0	0	0	537	492	
2	0	0	0	0	537	492	
3	0	0	0	0	536	492	
4	0	0	0	0	535	491	
5	0	0	0	0	535	492	
6	0	0	0	0	534	492	
7	0	0	0	0	534	492	
8	0	0	0	0	534	492	
9	0	0	0	0	534	492	
10	0	0	0	0	534	492	
11	0	0	0	0	533	493	
12	0	0	0	0	533	492	
13	0	0	0	0	532	492	
14	0	0	0	0	530	492	
15	0	0	0	0	531	492	
0	0	0	0	0	530	492	
1	0	0	0	0	531	493	
2	0	0	0	0	531	493	
3	0	0	0	0	530	493	
4	0	0	0	0	529	492	
5	0	0	0	0	529	491	
6	0	0	0	0	528	492	
7	0	0	0	0	527	492	
8	0	0	0	0	527	492	
9	0	0	0	0	528	492	
10	0	0	0	0	528	492	
11	0	0	0	0	529	492	
12	0	0	0	0	528	492	
13	0	0	0	0	529	491	
14	0	0	0	0	528	492	
15	0	0	0	0	527	491	
0	0	0	0	0	527	491	
1	0	0	0	0	527	492	
2	0	0	0	0	526	492	
3	0	0	0	0	526	492	
4	0	0	0	0	526	492	
5	0	0	0	0	526	492	
6	0	0	0	0	527	491	
7	0	0	0	0	527	492	
8	0	0	0	0	527	492	
9	0	0	0	0	526	491	
10	0	0	0	0	526	492	
11	0	0	0	0	526	492	
12	0	0	0	0	525	491	
13	0	0	0	0	524	491	
14	0	0	0	0	524	491	
15	0	0	0	0	523	491	
0	0	0	0	0	523	490	
1	0	0	0	0	523	491	
2	0	0	0	0	523	490	
3	0	0	0	0	523	492	
4	0	0	0	0	522	491	
5	0	0	0	0	523	491	
6	0	0	0	0	524	490	
7	0	0	0	0	525	490	
8	0	0	0	0	525	491	
9	0	0	0	0	525	490	
10	0	0	0	0	526	491	
11	0	0	0	0	527	491	
12	0	0	0	0	527	491	
13	0	0	0	0	527	491	
14	0	0	0	0	526	491	
15	0	0	0	0	526	491	
0	0	0	0	0	526	492	
1	0	0	0	0	526	491	
2	0	0	0	0	526	491	
3	0	0	0	0	526	492	
4	0	0	0	0	527	491	
5	0	0	0	0	527	491	
6	0	0	0	0	527	491	
7	0	0	0	0	527	491	
8	0	0	0	0	527	491	
9	0	0	0	0	526	491	
10	0	0	0	0	525	491	
11	0	0	0	0	523	492	
12	0	0	0	0	521	491	
13	0	0	0	0	520	491	
14	0	0	0	0	520	491	
15	0	0	0	0	519	491	
0	0	0	0	0	519	491	
1	0	0	0	0	519	492	
2	0	0	0	0	520	491	
3	0	0	0	0	521	492	
4	0	0	0	0	522	492	
5	0	0	0	0	523	492	
6	0	0	0	0	524	493	
7	0	0	0	0	524	492	
8	0	0	0	0	524	492	
9	0	0	0	0	523	492	
10	0	0	0	0	523	491	
11	0	0	0	0	523	492	
12	0	0	0	0	522	491	
13	0	0	0	0	521	491	
14	0	0	0	0	521	491	
15	0	0	0	0	521	491	
0	0	0	0	0	521	491	
1	0	0	0	0	520	491	
2	0	0	0	0	520	492	
3	0	0	0	0	519	492	
4	0	0	0	0	519	491	
5	0	0	0	0	519	491	
6	0	0	0	0	518	491	
7	0	0	0	0	517	491	
8	0	0	0	0	517	491	
9	0	0	0	0	517	491	
10	0	0	0	0	517	492	
11	0	0	0	0	518	492	
12	0	0	0	0	519	491	
13	0	0	0	0	519	492	
14	0	0	0	0	520	491	
15	0	0	0	0	519	491	
0	0	0	0	0	518	492	
1	0	0	0	0	518	491	
2	0	0	0	0	518	492	
3	0	0	0	0	519	492	
4	0	0	0	0	518	491	
5	0	0	0	0	518	491	
6	0	0	0	0	518	492	
7	0	0	0	0	518	492	
8	0	0	0	0	518	491	
9	0	0	0	0	518	492	
10	0	0	0	0	518	491	
11	0	0	0	0	518	492	
12	0	0	0	0	518	491	
13	0	0	0	0	518	491	
14	0	0	0	0	518	492	
15	0	0	0	0	519	491	
0	0	0	0	0	519	492	
1	0	0	0	0	519	492	
2	0	0	0	0	518	492	
3	0	0	0	0	519	493	
4	0	0	0	0	518	492	
5	0	0	0	0	517	491	
6	0	0	0	0	517	492	
7	0	0	0	0	516	492	
8	0	0	0	0	515	492	
9	0	0	0	0	515	492	
10	0	0	0	0	515	492	
11	0	0	0	0	515	492	
12	0	0	0	0	513	492	
13	0	0	0	0	514	492	
14	0	0	0	0	514	492	
15	0	0	0	0	515	492	
0	0	0	0	0	514	492	
1	0	0	0	0	515	492	
2	0	0	0	0	515	492	
3	0	0	0	0	516	492	
4	0	0	0	0	517	492	
5	0	0	0	0	518	493	
6	0	0	0	0	517	492	
7	0	0	0	0	517	492	
8	0	0	0	0	516	493	
9	0	0	0	0	515	493	
10	0	0	0	0	513	493	
11	0	0	0	0	512	493	
12	0	0	0	0	512	492	
13	0	0	0	0	511	492	
14	0	0	0	0	508	492	
15	0	0	0	0	508	492	
0	0	0	0	0	508	493	
1	0	0	0	0	507	492	
2	0	0	0	0	507	492	
3	0	0	0	0	507	493	
4	0	0	0	0	505	492	
5	0	0	0	0	505	492	
6	0	0	0	0	504	492	
7	0	0	0	0	505	492	
8	0	0	0	0	506	492	
9	0	0	0	0	507	492	
10	0	0	0	0	507	491	
11	0	0	0	0	507	492	
12	0	0	0	0	508	492	
13	0	0	0	0	507	492	
14	0	0	0	0	508	492	
15	0	0	0	0	508	492	
0	0	0	0	0	509	493	
1	0	0	0	0	509	492	
2	0	0	0	0	511	492	
3	0	0	0	0	512	493	
4	0	0	0	0	512	492	
5	0	0	0	0	513	492	
6	0	0	0	0	514	492	
7	0	0	0	0	514	492	
8	0	0	0	0	514	492	
9	0	0	0	0	514	492	
10	0	0	0	0	513	492	
11	0	0	0	0	513	492	
12	0	0	0	0	514	491	
13	0	0	0	0	514	491	
14	0	0	0	0	513	491	
15	0	0	0	0	513	491	
0	0	0	0	0	514	491	
1	0	0	0	0	515	492	
2	0	0	0	0	517	492	
3	0	0	0	0	517	492	
4	0	0	0	0	518	491	
5	0	0	0	0	519	492	
6	0	0	0	0	521	491	
7	0	0	0	0	522	491	
8	0	0	0	0	522	491	
9	0	0	0	0	523	491	
10	0	0	0	0	523	492	
11	0	0	0	0	524	492	
12	0	0	0	0	524	491	
13	0	0	0	0	524	492	
14	0	0	0	0	523	492	
15	0	0	0	0	523	491	
0	0	0	0	0	523	492	
1	0	0	0	0	522	492	
2	0	0	0	0	520	492	
3	0	0	0	0	520	492	
4	0	0	0	0	521	492	
5	0	0	0	0	523	492	
6	0	0	0	0	523	492	
7	0	0	0	0	523	491	
8	0	0	0	0	523	492	
9	0	0	0	0	523	492	
10	0	0	0	0	523	492	
11	0	0	0	0	523	493	
12	0	0	0	0	524	492	
13	0	0	0	0	523	492	
14	0	0	0	0	521	492	
15	0	0	0	0	520	491	
0	0	0	0	0	519	492	
1	0	0	0	0	519	491	
2	0	0	0	0	518	492	
3	0	0	0	0	516	492	
4	0	0	0	0	516	492	
5	0	0	0	0	514	492	
6	0	0	0	0	513	492	
7	0	0	0	0	513	492	
8	0	0	0	0	512	491	
9	0	0	0	0	512	492	
10	0	0	0	0	511	491	
11	0	0	0	0	511	493	
12	0	0	0	0	511	492	
13	0	0	0	0	511	491	
14	0	0	0	0	511	491	
15	0	0	0	0	511	491	
0	0	0	0	0	511	492	
1	0	0	0	0	512	492	
2	0	0	0	0	511	492	
3	0	0	0	0	511	492	
4	0	0	0	0	511	491	
5	0	0	0	0	511	491	
6	0	0	0	0	510	491	
7	0	0	0	0	510	491	
8	0	0	0	0	510	491	
9	0	0	0	0	509	492	
10	0	0	0	0	509	492	
11	0	0	0	0	509	492	
12	0	0	0	0	509	491	
13	0	0	0	0	509	491	
14	0	0	0	0	508	491	
15	0	0	0	0	507	491	
0	0	0	0	0	508	492	
1	0	0	0	0	508	492	
2	0	0	0	0	507	491	
3	0	0	0	0	507	492	
4	0	0	0	0	507	491	
5	0	0	0	0	506	492	
6	0	0	0	0	506	491	
7	0	0	0	0	506	491	
8	0	0	0	0	506	491	
9	0	0	0	0	505	492	
10	0	0	0	0	506	492	
11	0	0	0	0	507	492	
12	0	0	0	0	508	492	
13	0	0	0	0	508	491	
14	0	0	0	0	508	492	
15	0	0	0	0	508	492	
0	0	0	0	0	509	492	
1	0	0	0	0	508	492	
2	0	0	0	0	509	492	
3	0	0	0	0	509	492	
4	0	0	0	0	508	492	
5	0	0	0	0	509	492	
6	0	0	0	0	508	492	
7	0	0	0	0	508	492	
8	0	0	0	0	508	492	
9	0	0	0	0	508	492	
10	0	0	0	0	509	491	
11	0	0	0	0	508	492	
12	0	0	0	0	507	492	
13	0	0	0	0	508	492	
14	0	0	0	0	508	491	
15	0	0	0	0	507	491	
0	0	0	0	0	506	492	
1	0	0	0	0	505	492	
2	0	0	0	0	504	492	
3	0	0	0	0	504	493	
4	0	0	0	0	502	492	
5	0	0	0	0	501	492	
6	0	0	0	0	500	492	
7	0	0	0	0	499	492	
8	0	0	0	0	497	492	
9	0	0	0	0	496	492	
10	0	0	0	0	496	492	
11	0	0	0	0	494	493	
12	0	0	0	0	492	492	
13	0	0	0	0	491	492	
14	0	0	0	0	489	491	
15	0	0	0	0	486	492	
0	0	0	0	0	483	493	
1	0	0	0	0	481	492	
2	0	0	0	0	478	492	
3	0	0	0	0	475	492	
4	0	0	0	0	473	492	
5	0	0	0	0	472	492	
6	0	0	0	0	472	492	
7	0	0	0	0	472	492	
8	0	0	0	0	471	491	
9	0	0	0	0	468	491	
10	0	0	0	0	467	491	
11	0	0	0	0	464	492	
12	0	0	0	0	462	491	
13	0	0	0	0	458	491	
14	0	0	0	0	454	491	
15	0	0	0	0	451	491	
0	0	0	0	0	449	492	
1	0	0	0	0	449	492	
2	0	0	0	0	453	492	
3	0	0	0	0	458	492	
4	0	0	0	0	465	492	
5	0	0	0	0	472	492	
6	0	0	0	0	483	492	
7	0	0	0	0	496	492	
8	0	0	0	0	508	492	
9	0	0	0	0	519	492	
10	0	0	0	0	530	492	
11	0	0	0	0	543	493	
12	0	0	0	0	558	492	
13	0	0	0	0	574	492	
14	0	0	0	0	588	491	
15	0	0	0	0	602	492	
0	0	0	0	0	614	492	
1	0	0	0	0	625	492	
2	0	0	0	0	635	492	
3	0	0	0	0	643	493	
4	0	0	0	0	647	492	
5	0	0	0	0	648	492	
6	0	0	0	0	647	492	
7	0	0	0	0	647	492	
8	0	0	0	0	645	492	
9	0	0	0	0	645	492	
10	0	0	0	0	645	492	
11	0	0	0	0	645	492	
12	0	0	0	0	647	492	
13	0	0	0	0	647	492	
14	0	0	0	0	646	492	
15	0	0	0	0	647	492	
0	0	0	0	0	648	492	
1	0	0	0	0	650	492	
2	0	0	0	0	652	492	
3	0	0	0	0	651	493	
4	0	0	0	0	649	492	
5	0	0	0	0	645	492	
6	0	0	0	0	637	492	
7	0	0	0	0	627	492	
8	0	0	0	0	615	492	
9	0	0	0	0	604	492	
10	0	0	0	0	591	492	
11	0	0	0	0	581	493	
12	0	0	0	0	570	492	
13	0	0	0	0	559	492	
14	0	0	0	0	547	492	
15	0	0	0	0	536	491	
0	0	0	0	0	526	491	
1	0	0	0	0	517	492	
2	0	0	0	0	510	492	
3	0	0	0	0	502	492	
4	0	0	0	0	495	491	
5	0	0	0	0	490	491	
6	0	0	0	0	486	492	
7	0	0	0	0	481	492	
8	0	0	0	0	477	492	
9	0	0	0	0	473	492	
10	0	0	0	0	470	492	
11	0	0	0	0	467	492	
12	0	0	0	0	463	492	
13	0	0	0	0	461	492	
14	0	0	0	0	460	492	
15	0	0	0	0	459	491	
0	0	0	0	0	457	492	
1	0	0	0	0	456	492	
2	0	0	0	0	457	491	
3	0	0	0	0	457	492	
4	0	0	0	0	456	491	
5	0	0	0	0	456	491	
6	0	0	0	0	457	492	
7	0	0	0	0	458	491	
8	0	0	0	0	457	492	
9	0	0	0	0	456	492	
10	0	0	0	0	456	492	
11	0	0	0	0	455	492	
12	0	0	0	0	456	491	
13	0	0	0	0	456	492	
14	0	0	0	0	456	492	
15	0	0	0	0	456	491	
0	0	0	0	0	456	491	
1	0	0	0	0	457	492	
2	0	0	0	0	457	492	
3	0	0	0	0	457	492	
4	0	0	0	0	457	491	
5	0	0	0	0	458	491	
6	0	0	0	0	460	492	
7	0	0	0	0	460	492	
8	0	0	0	0	459	491	
9	0	0	0	0	459	492	
10	0	0	0	0	458	492	
11	0	0	0	0	457	492	
12	0	0	0	0	457	492	
13	0	0	0	0	457	492	
14	0	0	0	0	457	492	
15	0	0	0	0	458	492	
0	0	0	0	0	458	492	
1	0	0	0	0	457	492	
2	0	0	0	0	457	492	
3	0	0	0	0	457	493	
4	0	0	0	0	457	491	
5	0	0	0	0	457	491	
6	0	0	0	0	457	491	
7	0	0	0	0	458	491	
8	0	0	0	0	459	491	
9	0	0	0	0	459	492	
10	0	0	0	0	460	491	
11	0	0	0	0	461	492	
12	0	0	0	0	461	492	
13	0	0	0	0	461	492	
14	0	0	0	0	462	492	
15	0	0	0	0	462	492	
0	0	0	0	0	462	492	
1	0	0	0	0	462	492	
2	0	0	0	0	463	492	
3	0	0	0	0	464	492	
4	0	0	0	0	464	492	
5	0	0	0	0	463	492	
6	0	0	0	0	463	492	
7	0	0	0	0	462	492	
8	0	0	0	0	462	492	
9	0	0	0	0	462	492	
10	0	0	0	0	462	492	
11	0	0	0	0	463	492	
12	0	0	0	0	463	492	
13	0	0	0	0	463	492	
14	0	0	0	0	464	492	
15	0	0	0	0	466	492	
0	0	0	0	0	467	492	
1	0	0	0	0	468	492	
2	0	0	0	0	469	492	
3	0	0	0	0	470	493	
4	0	0	0	0	470	492	
5	0	0	0	0	471	492	
6	0	0	0	0	470	492	
7	0	0	0	0	470	491	
8	0	0	0	0	472	492	
9	0	0	0	0	472	492	
10	0	0	0	0	472	492	
11	0	0	0	0	473	492	
12	0	0	0	0	473	491	
13	0	0	0	0	473	492	
14	0	0	0	0	474	491	
15	0	0	0	0	473	491	
0	0	0	0	0	473	492	
1	0	0	0	0	473	492	
2	0	0	0	0	474	492	
3	0	0	0	0	474	492	
4	0	0	0	0	474	492	
5	0	0	0	0	474	492	
6	0	0	0	0	475	492	
7	0	0	0	0	474	492	
8	0	0	0	0	475	492	
9	0	0	0	0	476	492	
10	0	0	0	0	476	492	
11	0	0	0	0	476	492	
12	0	0	0	0	475	492	
13	0	0	0	0	474	492	
14	0	0	0	0	472	492	
15	0	0	0	0	472	492	
0	0	0	0	0	472	492	
1	0	0	0	0	471	491	
2	0	0	0	0	471	492	
3	0	0	0	0	471	492	
4	0	0	0	0	471	492	
5	0	0	0	0	471	493	
6	0	0	0	0	471	492	
7	0	0	0	0	470	491	
8	0	0	0	0	469	492	
9	0	0	0	0	469	492	
10	0	0	0	0	469	492	
11	0	0	0	0	468	492	
12	0	0	0	0	468	492	
13	0	0	0	0	469	492	
14	0	0	0	0	470	492	
15	0	0	0	0	470	492	
0	0	0	0	0	470	492	
1	0	0	0	0	470	492	
2	0	0	0	0	470	492	
3	0	0	0	0	469	492	
4	0	0	0	0	469	492	
5	0	0	0	0	469	492	
6	0	0	0	0	469	492	
7	0	0	0	0	470	491	
8	0	0	0	0	471	492	
9	0	0	0	0	472	492	
10	0	0	0	0	472	492	
11	0	0	0	0	472	492	
12	0	0	0	0	471	492	
13	0	0	0	0	472	491	
14	0	0	0	0	472	492	
15	0	0	0	0	472	492	
0	0	0	0	0	471	492	
1	0	0	0	0	470	492	
2	0	0	0	0	468	492	
3	0	0	0	0	468	492	
4	0	0	0	0	468	492	
5	0	0	0	0	468	492	
6	0	0	0	0	470	491	
7	0	0	0	0	470	492	
8	0	0	0	0	470	492	
9	0	0	0	0	469	492	
10	0	0	0	0	469	492	
11	0	0	0	0	468	492	
12	0	0	0	0	468	492	
13	0	0	0	0	468	492	
14	0	0	0	0	468	492	
15	0	0	0	0	467	492	
0	0	0	0	0	468	492	
1	0	0	0	0	468	492	
2	0	0	0	0	467	492	
3	0	0	0	0	465	492	
4	0	0	0	0	464	492	
5	0	0	0	0	463	492	
6	0	0	0	0	462	492	
7	0	0	0	0	460	493	
8	0	0	0	0	461	492	
9	0	0	0	0	462	492	
10	0	0	0	0	462	492	
11	0	0	0	0	463	492	
12	0	0	0	0	464	492	
13	0	0	0	0	464	492	
14	0	0	0	0	465	492	
15	0	0	0	0	466	492	
0	0	0	0	0	467	492	
1	0	0	0	0	467	492	
2	0	0	0	0	467	492	
3	0	0	0	0	468	493	
4	0	0	0	0	468	492	
5	0	0	0	0	468	492	
6	0	0	0	0	469	492	
7	0	0	0	0	471	492	
8	0	0	0	0	472	492	
9	0	0	0	0	473	492	
10	0	0	0	0	474	492	
11	0	0	0	0	475	492	
12	0	0	0	0	475	492	
13	0	0	0	0	475	492	
14	0	0	0	0	475	492	
15	0	0	0	0	474	492	
0	0	0	0	0	476	492	
1	0	0	0	0	477	492	
2	0	0	0	0	478	492	
3	0	0	0	0	478	492	
4	0	0	0	0	478	491	
5	0	0	0	0	479	492	
6	0	0	0	0	480	492	
7	0	0	0	0	481	492	
8	0	0	0	0	483	492	
9	0	0	0	0	484	492	
10	0	0	0	0	485	492	
11	0	0	0	0	486	492	
12	0	0	0	0	485	492	
13	0	0	0	0	486	492	
14	0	0	0	0	487	491	
15	0	0	0	0	487	491	
0	0	0	0	0	488	492	
1	0	0	0	0	491	491	
2	0	0	0	0	494	492	
3	0	0	0	0	496	492	
4	0	0	0	0	499	492	
5	0	0	0	0	501	492	
6	0	0	0	0	503	492	
7	0	0	0	0	506	492	
8	0	0	0	0	508	492	
9	0	0	0	0	510	492	
10	0	0	0	0	511	492	
11	0	0	0	0	513	492	
12	0	0	0	0	515	492	
13	0	0	0	0	517	492	
14	0	0	0	0	519	492	
15	0	0	0	0	519	492	
0	0	0	0	0	521	492	
1	0	0	0	0	523	492	
2	0	0	0	0	524	492	
3	0	0	0	0	525	493	
4	0	0	0	0	526	492	
5	0	0	0	0	526	492	
6	0	0	0	0	526	492	
7	0	0	0	0	526	492	
8	0	0	0	0	527	493	
9	0	0	0	0	528	492	
10	0	0	0	0	529	492	
11	0	0	0	0	529	493	
12	0	0	0	0	529	492	
13	0	0	0	0	530	492	
14	0	0	0	0	531	492	
15	0	0	0	0	532	492	
0	0	0	0	0	532	492	
1	0	0	0	0	532	492	
2	0	0	0	0	534	492	
3	0	0	0	0	535	492	
4	0	0	0	0	535	492	
5	0	0	0	0	536	492	
6	0	0	0	0	537	492	
7	0	0	0	0	539	492	
8	0	0	0	0	542	492	
9	0	0	0	0	544	492	
10	0	0	0	0	546	492	
11	0	0	0	0	548	492	
12	0	0	0	0	549	492	
13	0	0	0	0	550	492	
14	0	0	0	0	550	492	
15	0	0	0	0	550	491	
0	0	0	0	0	550	492	
1	0	0	0	0	550	492	
2	0	0	0	0	550	492	
3	0	0	0	0	551	492	
4	0	0	0	0	551	492	
5	0	0	0	0	551	491	
6	0	0	0	0	553	492	
7	0	0	0	0	555	491	
8	0	0	0	0	555	491	
9	0	0	0	0	555	492	
10	0	0	0	0	555	492	
11	0	0	0	0	556	492	
12	0	0	0	0	556	492	
13	0	0	0	0	556	492	
14	0	0	0	0	557	492	
15	0	0	0	0	556	492	
0	0	0	0	0	557	492	
1	0	0	0	0	556	492	
2	0	0	0	0	556	492	
3	0	0	0	0	555	493	
4	0	0	0	0	554	492	
5	0	0	0	0	553	492	
6	0	0	0	0	552	492	
7	0	0	0	0	551	492	
8	0	0	0	0	552	492	
9	0	0	0	0	552	492	
10	0	0	0	0	552	492	
11	0	0	0	0	552	493	
12	0	0	0	0	551	492	
13	0	0	0	0	550	492	
14	0	0	0	0	549	492	
15	0	0	0	0	547	492	
0	0	0	0	0	546	492	
1	0	0	0	0	546	492	
2	0	0	0	0	545	492	
3	0	0	0	0	546	492	
4	0	0	0	0	545	492	
5	0	0	0	0	545	492	
6	0	0	0	0	544	492	
7	0	0	0	0	544	492	
8	0	0	0	0	543	492	
9	0	0	0	0	543	491	
10	0	0	0	0	541	492	
11	0	0	0	0	540	492	
12	0	0	0	0	540	491	
13	0	0	0	0	540	491	
14	0	0	0	0	540	491	
15	0	0	0	0	539	491	
0	0	0	0	0	540	491	
1	0	0	0	0	539	492	
2	0	0	0	0	540	491	
3	0	0	0	0	540	492	
4	0	0	0	0	539	492	
5	0	0	0	0	540	491	
6	0	0	0	0	540	491	
7	0	0	0	0	538	492	
8	0	0	0	0	537	492	
9	0	0	0	0	537	492	
10	0	0	0	0	537	491	
11	0	0	0	0	536	493	
12	0	0	0	0	536	492	
13	0	0	0	0	536	492	
14	0	0	0	0	536	491	
15	0	0	0	0	536	491	
0	0	0	0	0	536	491	
1	0	0	0	0	535	492	
2	0	0	0	0	534	491	
3	0	0	0	0	533	493	
4	0	0	0	0	533	492	
5	0	0	0	0	533	492	
6	0	0	0	0	533	492	
7	0	0	0	0	533	492	
8	0	0	0	0	533	492	
9	0	0	0	0	533	492	
10	0	0	0	0	533	492	
11	0	0	0	0	533	492	
12	0	0	0	0	532	492	
13	0	0	0	0	532	492	
14	0	0	0	0	531	492	
15	0	0	0	0	531	492	
0	0	0	0	0	529	492	
1	0	0	0	0	529	492	
2	0	0	0	0	529	492	
3	0	0	0	0	529	493	
4	0	0	0	0	529	492	
5	0	0	0	0	529	492	
6	0	0	0	0	530	492	
7	0	0	0	0	531	492	
8	0	0	0	0	531	492	
9	0	0	0	0	531	492	
10	0	0	0	0	531	492	
11	0	0	0	0	531	492	
12	0	0	0	0	531	492	
13	0	0	0	0	530	492	
14	0	0	0	0	531	492	
15	0	0	0	0	530	492	
0	0	0	0	0	531	492	
1	0	0	0	0	532	492	
2	0	0	0	0	532	492	
3	0	0	0	0	531	493	
4	0	0	0	0	531	492	
5	0	0	0	0	530	492	
6	0	0	0	0	529	492	
7	0	0	0	0	528	491	
8	0	0	0	0	528	493	
9	0	0	0	0	529	492	
10	0	0	0	0	529	492	
11	0	0	0	0	528	493	
12	0	0	0	0	528	492	
13	0	0	0	0	528	492	
14	0	0	0	0	529	492	
15	0	0	0	0	528	492	
0	0	0	0	0	528	492	
1	0	0	0	0	527	492	
2	0	0	0	0	526	492	
3	0	0	0	0	526	492	
4	0	0	0	0	526	492	
5	0	0	0	0	527	492	
6	0	0	0	0	527	492	
7	0	0	0	0	527	492	
8	0	0	0	0	527	492	
9	0	0	0	0	526	492	
10	0	0	0	0	526	492	
11	0	0	0	0	526	492	
12	0	0	0	0	526	492	
13	0	0	0	0	526	492	
14	0	0	0	0	526	492	
15	0	0	0	0	526	492	
0	0	0	0	0	525	492	
1	0	0	0	0	526	492	
2	0	0	0	0	527	492	
3	0	0	0	0	527	492	
4	0	0	0	0	527	492	
5	0	0	0	0	528	492	
6	0	0	0	0	528	492	
7	0	0	0	0	528	492	
8	0	0	0	0	528	492	
9	0	0	0	0	527	492	
10	0	0	0	0	527	492	
11	0	0	0	0	527	493	
12	0	0	0	0	527	492	
13	0	0	0	0	526	492	
14	0	0	0	0	525	492	
15	0	0	0	0	525	492	
0	0	0	0	0	525	492	
1	0	0	0	0	523	493	
2	0	0	0	0	523	492	
3	0	0	0	0	523	493	
4	0	0	0	0	523	493	
5	0	0	0	0	523	493	
6	0	0	0	0	524	493	
7	0	0	0	0	524	493	
8	0	0	0	0	525	492	
9	0	0	0	0	524	492	
10	0	0	0	0	524	492	
11	0	0	0	0	524	493	
12	0	0	0	0	524	492	
13	0	0	0	0	522	493	
14	0	0	0	0	522	493	
15	0	0	0	0	521	493	
0	0	0	0	0	521	493	
1	0	0	0	0	521	492	
2	0	0	0	0	522	492	
3	0	0	0	0	522	493	
4	0	0	0	0	523	492	
5	0	0	0	0	524	493	
6	0	0	0	0	524	493	
7	0	0	0	0	523	492	
8	0	0	0	0	524	493	
9	0	0	0	0	524	492	
10	0	0	0	0	524	492	
11	0	0	0	0	524	493	
12	0	0	0	0	524	492	
13	0	0	0	0	524	493	
14	0	0	0	0	524	492	
15	0	0	0	0	524	492	
0	0	0	0	0	523	492	
1	0	0	0	0	523	492	
2	0	0	0	0	522	492	
3	0	0	0	0	521	492	
4	0	0	0	0	522	492	
5	0	0	0	0	523	492	
6	0	0	0	0	523	492	
7	0	0	0	0	524	491	
8	0	0	0	0	524	492	
9	0	0	0	0	525	492	
10	0	0	0	0	525	492	
11	0	0	0	0	524	492	
12	0	0	0	0	524	492	
13	0	0	0	0	523	491	
14	0	0	0	0	522	491	
15	0	0	0	0	521	492	
0	0	0	0	0	521	491	
1	0	0	0	0	521	492	
2	0	0	0	0	521	491	
3	0	0	0	0	521	492	
4	0	0	0	0	520	491	
5	0	0	0	0	519	491	
6	0	0	0	0	519	492	
7	0	0	0	0	519	492	
8	0	0	0	0	518	492	
9	0	0	0	0	518	492	
10	0	0	0	0	518	492	
11	0	0	0	0	519	493	
12	0	0	0	0	519	493	
13	0	0	0	0	518	492	
14	0	0	0	0	518	492	
15	0	0	0	0	517	492	
0	0	0	0	0	517	492	
1	0	0	0	0	517	493	
2	0	0	0	0	516	493	
3	0	0	0	0	515	493	
4	0	0	0	0	515	493	
5	0	0	0	0	515	492	
6	0	0	0	0	515	492	
7	0	0	0	0	515	492	
8	0	0	0	0	515	492	
9	0	0	0	0	513	492	
10	0	0	0	0	513	493	
11	0	0	0	0	513	493	
12	0	0	0	0	512	492	
13	0	0	0	0	511	492	
14	0	0	0	0	511	492	
15	0	0	0	0	511	491	
0	0	0	0	0	511	492	
1	0	0	0	0	512	492	
2	0	0	0	0	513	491	
3	0	0	0	0	512	492	
4	0	0	0	0	511	492	
5	0	0	0	0	512	491	
6	0	0	0	0	511	491	
7	0	0	0	0	512	491	
8	0	0	0	0	512	491	
9	0	0	0	0	512	491	
10	0	0	0	0	512	492	
11	0	0	0	0	512	492	
12	0	0	0	0	512	491	
13	0	0	0	0	511	491	
14	0	0	0	0	512	492	
15	0	0	0	0	512	492	
0	0	0	0	0	511	491	
1	0	0	0	0	511	492	
2	0	0	0	0	511	492	
3	0	0	0	0	511	492	
4	0	0	0	0	511	492	
5	0	0	0	0	511	492	
6	0	0	0	0	511	492	
7	0	0	0	0	512	492	
8	0	0	0	0	513	492	
9	0	0	0	0	515	492	
10	0	0	0	0	514	492	
11	0	0	0	0	514	493	
12	0	0	0	0	513	492	
13	0	0	0	0	513	492	
14	0	0	0	0	513	493	
15	0	0	0	0	514	492	
0	0	0	0	0	515	493	
1	0	0	0	0	515	493	
2	0	0	0	0	515	492	
3	0	0	0	0	516	493	
4	0	0	0	0	516	492	
5	0	0	0	0	517	493	
6	0	0	0	0	518	492	
7	0	0	0	0	518	492	
8	0	0	0	0	517	492	
9	0	0	0	0	518	492	
10	0	0	0	0	519	492	
11	0	0	0	0	520	493	
12	0	0	0	0	520	492	
13	0	0	0	0	522	492	
14	0	0	0	0	523	493	
15	0	0	0	0	524	492	
0	0	0	0	0	525	493	
1	0	0	0	0	527	492	
2	0	0	0	0	527	493	
3	0	0	0	0	527	494	
4	0	0	0	0	527	493	
5	0	0	0	0	527	494	
6	0	0	0	0	527	494	
7	0	0	0	0	526	494	
8	0	0	0	0	525	494	
9	0	0	0	0	524	494	
10	0	0	0	0	523	494	
11	0	0	0	0	522	494	
12	0	0	0	0	522	493	
13	0	0	0	0	521	492	
14	0	0	0	0	520	492	
15	0	0	0	0	520	492	
0	0	0	0	0	520	492	
1	0	0	0	0	521	492	
2	0	0	0	0	521	492	
3	0	0	0	0	520	492	
4	0	0	0	0	520	492	
5	0	0	0	0	519	492	
6	0	0	0	0	519	492	
7	0	0	0	0	519	492	
8	0	0	0	0	518	491	
9	0	0	0	0	518	492	
10	0	0	0	0	517	492	
11	0	0	0	0	516	493	
12	0	0	0	0	516	492	
13	0	0	0	0	516	492	
14	0	0	0	0	515	492	
15	0	0	0	0	515	492	
0	0	0	0	0	514	492	
1	0	0	0	0	514	492	
2	0	0	0	0	513	492	
3	0	0	0	0	513	493	
4	0	0	0	0	513	492	
5	0	0	0	0	513	493	
6	0	0	0	0	513	492	
7	0	0	0	0	512	492	
8	0	0	0	0	512	492	
9	0	0	0	0	512	492	
10	0	0	0	0	512	492	
11	0	0	0	0	512	494	
12	0	0	0	0	512	493	
13	0	0	0	0	512	492	
14	0	0	0	0	511	493	
15	0	0	0	0	511	492	
0	0	0	0	0	511	493	
1	0	0	0	0	511	493	
2	0	0	0	0	511	493	
3	0	0	0	0	512	494	
4	0	0	0	0	512	492	
5	0	0	0	0	512	492	
6	0	0	0	0	512	492	
7	0	0	0	0	511	491	
8	0	0	0	0	510	492	
9	0	0	0	0	511	492	
10	0	0	0	0	511	492	
11	0	0	0	0	511	493	
12	0	0	0	0	511	492	
13	0	0	0	0	512	493	
14	0	0	0	0	512	493	
15	0	0	0	0	512	492	
0	0	0	0	0	511	493	
1	0	0	0	0	510	492	
2	0	0	0	0	510	492	
3	0	0	0	0	508	493	
4	0	0	0	0	508	492	
5	0	0	0	0	508	492	
6	0	0	0	0	508	491	
7	0	0	0	0	508	492	
8	0	0	0	0	508	492	
9	0	0	0	0	508	492	
10	0	0	0	0	508	491	
11	0	0	0	0	508	492	
12	0	0	0	0	508	492	
13	0	0	0	0	507	492	
14	0	0	0	0	507	492	
15	0	0	0	0	505	492	
0	0	0	0	0	505	492	
1	0	0	0	0	504	493	
2	0	0	0	0	504	492	
3	0	0	0	0	504	493	
4	0	0	0	0	504	492	
5	0	0	0	0	504	492	
6	0	0	0	0	504	492	
7	0	0	0	0	503	492	
8	0	0	0	0	502	492	
9	0	0	0	0	502	492	
10	0	0	0	0	501	492	
11	0	0	0	0	501	492	
12	0	0	0	0	502	491	
13	0	0	0	0	501	492	
14	0	0	0	0	500	491	
15	0	0	0	0	499	491	
0	0	0	0	0	497	491	
1	0	0	0	0	495	492	
2	0	0	0	0	492	492	
3	0	0	0	0	490	492	
4	0	0	0	0	487	491	
5	0	0	0	0	484	491	
6	0	0	0	0	480	491	
7	0	0	0	0	477	492	
8	0	0	0	0	476	492	
9	0	0	0	0	475	492	
10	0	0	0	0	474	492	
11	0	0	0	0	474	493	
12	0	0	0	0	473	492	
13	0	0	0	0	473	492	
14	0	0	0	0	472	492	
15	0	0	0	0	470	491	
0	0	0	0	0	467	492	
1	0	0	0	0	464	492	
2	0	0	0	0	460	492	
3	0	0	0	0	456	492	
4	0	0	0	0	453	492	
5	0	0	0	0	450	491	
6	0	0	0	0	449	492	
7	0	0	0	0	452	492	
8	0	0	0	0	455	492	
9	0	0	0	0	463	492	
10	0	0	0	0	471	492	
11	0	0	0	0	480	493	
12	0	0	0	0	489	492	
13	0	0	0	0	504	492	
14	0	0	0	0	520	492	
15	0	0	0	0	535	492	
0	0	0	0	0	550	492	
1	0	0	0	0	565	492	
2	0	0	0	0	580	492	
3	0	0	0	0	596	492	
4	0	0	0	0	612	492	
5	0	0	0	0	626	492	
6	0	0	0	0	639	492	
7	0	0	0	0	651	492	
8	0	0	0	0	661	492	
9	0	0	0	0	669	492	
10	0	0	0	0	674	492	
11	0	0	0	0	675	492	
12	0	0	0	0	673	492	
13	0	0	0	0	671	492	
14	0	0	0	0	669	492	
15	0	0	0	0	668	492	
0	0	0	0	0	668	491	
1	0	0	0	0	669	492	
2	0	0	0	0	669	492	
3	0	0	0	0	669	493	
4	0	0	0	0	669	492	
5	0	0	0	0	668	492	
6	0	0	0	0	666	492	
7	0	0	0	0	663	492	
8	0	0	0	0	660	492	
9	0	0	0	0	657	493	
10	0	0	0	0	653	493	
11	0	0	0	0	647	494	
12	0	0	0	0	638	494	
13	0	0	0	0	627	493	
14	0	0	0	0	615	494	
15	0	0	0	0	602	493	
0	0	0	0	0	589	493	
1	0	0	0	0	577	493	
2	0	0	0	0	565	494	
3	0	0	0	0	553	494	
4	0	0	0	0	542	493	
5	0	0	0	0	531	493	
6	0	0	0	0	521	492	
7	0	0	0	0	513	492	
8	0	0	0	0	504	494	
9	0	0	0	0	495	493	
10	0	0	0	0	487	493	
11	0	0	0	0	480	494	
12	0	0	0	0	473	493	
13	0	0	0	0	467	492	
14	0	0	0	0	463	493	
15	0	0	0	0	459	492	
0	0	0	0	0	455	493	
1	0	0	0	0	451	493	
2	0	0	0	0	448	493	
3	0	0	0	0	446	493	
4	0	0	0	0	444	492	
5	0	0	0	0	443	493	
6	0	0	0	0	442	493	
7	0	0	0	0	441	492	
8	0	0	0	0	440	493	
9	0	0	0	0	440	492	
10	0	0	0	0	440	493	
11	0	0	0	0	440	493	
12	0	0	0	0	440	493	
13	0	0	0	0	441	493	
14	0	0	0	0	441	493	
15	0	0	0	0	441	493	
0	0	0	0	0	441	492	
1	0	0	0	0	441	492	
2	0	0	0	0	442	493	
3	0	0	0	0	443	493	
4	0	0	0	0	444	493	
5	0	0	0	0	445	493	
6	0	0	0	0	446	492	
7	0	0	0	0	447	492	
8	0	0	0	0	447	492	
9	0	0	0	0	447	491	
10	0	0	0	0	447	492	
11	0	0	0	0	447	492	
12	0	0	0	0	447	492	
13	0	0	0	0	447	492	
14	0	0	0	0	446	492	
15	0	0	0	0	446	492	
0	0	0	0	0	446	491	
1	0	0	0	0	447	491	
2	0	0	0	0	447	492	
3	0	0	0	0	448	492	
4	0	0	0	0	449	492	
5	0	0	0	0	450	492	
6	0	0	0	0	450	492	
7	0	0	0	0	451	492	
8	0	0	0	0	451	492	
9	0	0	0	0	452	492	
10	0	0	0	0	454	492	
11	0	0	0	0	454	493	
12	0	0	0	0	453	492	
13	0	0	0	0	453	492	
14	0	0	0	0	453	492	
15	0	0	0	0	454	492	
0	0	0	0	0	455	492	
1	0	0	0	0	455	491	
2	0	0	0	0	455	492	
3	0	0	0	0	455	492	
4	0	0	0	0	455	492	
5	0	0	0	0	455	492	
6	0	0	0	0	455	492	
7	0	0	0	0	455	492	
8	0	0	0	0	456	492	
9	0	0	0	0	456	492	
10	0	0	0	0	457	492	
11	0	0	0	0	457	492	
12	0	0	0	0	457	492	
13	0	0	0	0	457	491	
14	0	0	0	0	457	491	
15	0	0	0	0	458	491	
0	0	0	0	0	457	491	
1	0	0	0	0	457	491	
2	0	0	0	0	457	492	
3	0	0	0	0	458	492	
4	0	0	0	0	460	492	
5	0	0	0	0	461	491	
6	0	0	0	0	461	492	
7	0	0	0	0	462	492	
8	0	0	0	0	462	493	
9	0	0	0	0	462	493	
10	0	0	0	0	463	493	
11	0	0	0	0	464	493	
12	0	0	0	0	465	492	
13	0	0	0	0	465	491	
14	0	0	0	0	465	492	
15	0	0	0	0	465	491	
0	0	0	0	0	464	492	
1	0	0	0	0	464	492	
2	0	0	0	0	463	492	
3	0	0	0	0	463	492	
4	0	0	0	0	463	492	
5	0	0	0	0	463	492	
6	0	0	0	0	464	492	
7	0	0	0	0	464	492	
8	0	0	0	0	465	492	
9	0	0	0	0	464	492	
10	0	0	0	0	465	492	
11	0	0	0	0	465	493	
12	0	0	0	0	464	492	
13	0	0	0	0	464	492	
14	0	0	0	0	463	492	
15	0	0	0	0	463	492	
0	0	0	0	0	463	492	
1	0	0	0	0	463	492	
2	0	0	0	0	464	492	
3	0	0	0	0	464	492	
4	0	0	0	0	465	492	
5	0	0	0	0	465	492	
6	0	0	0	0	465	492	
7	0	0	0	0	466	492	
8	0	0	0	0	466	492	
9	0	0	0	0	466	493	
10	0	0	0	0	465	492	
11	0	0	0	0	466	492	
12	0	0	0	0	466	492	
13	0	0	0	0	466	492	
14	0	0	0	0	466	492	
15	0	0	0	0	465	491	
0	0	0	0	0	465	492	
1	0	0	0	0	464	492	
2	0	0	0	0	464	492	
3	0	0	0	0	464	492	
4	0	0	0	0	464	492	
5	0	0	0	0	464	492	
6	0	0	0	0	464	492	
7	0	0	0	0	464	492	
8	0	0	0	0	464	492	
9	0	0	0	0	464	492	
10	0	0	0	0	464	492	
11	0	0	0	0	464	492	
12	0	0	0	0	464	492	
13	0	0	0	0	464	492	
14	0	0	0	0	464	491	
15	0	0	0	0	465	492	
0	0	0	0	0	465	492	
1	0	0	0	0	464	492	
2	0	0	0	0	463	492	
3	0	0	0	0	463	493	
4	0	0	0	0	461	492	
5	0	0	0	0	460	492	
6	0	0	0	0	459	492	
7	0	0	0	0	458	492	
8	0	0	0	0	458	492	
9	0	0	0	0	458	492	
10	0	0	0	0	458	492	
11	0	0	0	0	457	493	
12	0	0	0	0	456	492	
13	0	0	0	0	456	492	
14	0	0	0	0	455	492	
15	0	0	0	0	455	492	
0	0	0	0	0	456	493	
1	0	0	0	0	455	493	
2	0	0	0	0	455	493	
3	0	0	0	0	455	493	
4	0	0	0	0	454	493	
5	0	0	0	0	453	492	
6	0	0	0	0	453	492	
7	0	0	0	0	453	492	
8	0	0	0	0	453	492	
9	0	0	0	0	453	492	
10	0	0	0	0	452	493	
11	0	0	0	0	452	493	
12	0	0	0	0	452	492	
13	0	0	0	0	452	492	
14	0	0	0	0	452	492	
15	0	0	0	0	452	492	
0	0	0	0	0	452	492	
1	0	0	0	0	452	492	
2	0	0	0	0	454	492	
3	0	0	0	0	455	492	
4	0	0	0	0	455	492	
5	0	0	0	0	456	493	
6	0	0	0	0	456	492	
7	0	0	0	0	456	492	
8	0	0	0	0	456	492	
9	0	0	0	0	457	492	
10	0	0	0	0	457	493	
11	0	0	0	0	458	492	
12	0	0	0	0	458	491	
13	0	0	0	0	459	491	
14	0	0	0	0	459	491	
15	0	0	0	0	460	491	
0	0	0	0	0	460	492	
1	0	0	0	0	461	492	
2	0	0	0	0	461	492	
3	0	0	0	0	462	492	
4	0	0	0	0	463	492	
5	0	0	0	0	464	492	
6	0	0	0	0	465	492	
7	0	0	0	0	465	492	
8	0	0	0	0	466	492	
9	0	0	0	0	467	492	
10	0	0	0	0	467	492	
11	0	0	0	0	468	492	
12	0	0	0	0	469	492	
13	0	0	0	0	469	492	
14	0	0	0	0	470	492	
15	0	0	0	0	470	492	
0	0	0	0	0	471	492	
1	0	0	0	0	472	492	
2	0	0	0	0	473	492	
3	0	0	0	0	476	492	
4	0	0	0	0	477	492	
5	0	0	0	0	480	492	
6	0	0	0	0	483	492	
7	0	0	0	0	484	492	
8	0	0	0	0	486	492	
9	0	0	0	0	488	492	
10	0	0	0	0	490	492	
11	0	0	0	0	492	492	
12	0	0	0	0	494	492	
13	0	0	0	0	496	492	
14	0	0	0	0	497	492	
15	0	0	0	0	500	491	
0	0	0	0	0	503	491	
1	0	0	0	0	505	492	
2	0	0	0	0	507	492	
3	0	0	0	0	509	492	
4	0	0	0	0	510	492	
5	0	0	0	0	512	492	
6	0	0	0	0	514	492	
7	0	0	0	0	516	492	
8	0	0	0	0	519	492	
9	0	0	0	0	521	493	
10	0	0	0	0	523	493	
11	0	0	0	0	524	493	
12	0	0	0	0	525	492	
13	0	0	0	0	527	493	
14	0	0	0	0	529	493	
15	0	0	0	0	531	492	
0	0	0	0	0	532	492	
1	0	0	0	0	534	492	
2	0	0	0	0	535	492	
3	0	0	0	0	537	493	
4	0	0	0	0	538	492	
5	0	0	0	0	539	492	
6	0	0	0	0	541	492	
7	0	0	0	0	543	492	
8	0	0	0	0	543	492	
9	0	0	0	0	545	492	
10	0	0	0	0	546	492	
11	0	0	0	0	546	493	
12	0	0	0	0	547	492	
13	0	0	0	0	549	493	
14	0	0	0	0	550	493	
15	0	0	0	0	551	493	
0	0	0	0	0	552	492	
1	0	0	0	0	553	493	
2	0	0	0	0	553	492	
3	0	0	0	0	554	493	
4	0	0	0	0	554	492	
5	0	0	0	0	555	492	
6	0	0	0	0	556	492	
7	0	0	0	0	556	492	
8	0	0	0	0	556	492	
9	0	0	0	0	556	492	
10	0	0	0	0	556	492	
11	0	0	0	0	556	493	
12	0	0	0	0	557	492	
13	0	0	0	0	557	492	
14	0	0	0	0	558	492	
15	0	0	0	0	558	492	
0	0	0	0	0	559	492	
1	0	0	0	0	559	492	
2	0	0	0	0	559	492	
3	0	0	0	0	559	492	
4	0	0	0	0	558	491	
5	0	0	0	0	557	492	
6	0	0	0	0	556	492	
7	0	0	0	0	556	492	
8	0	0	0	0	555	492	
9	0	0	0	0	554	492	
10	0	0	0	0	554	493	
11	0	0	0	0	553	493	
12	0	0	0	0	553	492	
13	0	0	0	0	552	492	
14	0	0	0	0	552	493	
15	0	0	0	0	553	492	
0	0	0	0	0	553	492	
1	0	0	0	0	552	492	
2	0	0	0	0	552	492	
3	0	0	0	0	551	493	
4	0	0	0	0	550	493	
5	0	0	0	0	550	492	
6	0	0	0	0	550	493	
7	0	0	0	0	548	493	
8	0	0	0	0	547	493	
9	0	0	0	0	547	493	
10	0	0	0	0	547	492	
11	0	0	0	0	546	494	
12	0	0	0	0	546	493	
13	0	0	0	0	546	494	
14	0	0	0	0	546	494	
15	0	0	0	0	546	492	
0	0	0	0	0	545	493	
1	0	0	0	0	545	493	
2	0	0	0	0	544	494	
3	0	0	0	0	543	494	
4	0	0	0	0	544	493	
5	0	0	0	0	545	493	
6	0	0	0	0	545	493	
7	0	0	0	0	545	492	
8	0	0	0	0	544	493	
9	0	0	0	0	544	492	
10	0	0	0	0	544	492	
11	0	0	0	0	543	493	
12	0	0	0	0	543	492	
13	0	0	0	0	543	492	
14	0	0	0	0	543	492	
15	0	0	0	0	544	491	
0	0	0	0	0	544	491	
1	0	0	0	0	543	491	
2	0	0	0	0	542	491	
3	0	0	0	0	541	491	
4	0	0	0	0	540	491	
5	0	0	0	0	540	491	
6	0	0	0	0	540	491	
7	0	0	0	0	540	491	
8	0	0	0	0	540	491	
9	0	0	0	0	539	490	
10	0	0	0	0	540	491	
11	0	0	0	0	539	491	
12	0	0	0	0	539	491	
13	0	0	0	0	537	491	
14	0	0	0	0	537	491	
15	0	0	0	0	536	491	
0	0	0	0	0	534	491	
1	0	0	0	0	533	491	
2	0	0	0	0	532	491	
3	0	0	0	0	532	492	
4	0	0	0	0	531	491	
5	0	0	0	0	530	491	
6	0	0	0	0	529	492	
7	0	0	0	0	528	491	
8	0	0	0	0	527	492	
9	0	0	0	0	527	492	
10	0	0	0	0	526	492	
11	0	0	0	0	526	493	
12	0	0	0	0	526	493	
13	0	0	0	0	525	493	
14	0	0	0	0	525	494	
15	0	0	0	0	526	493	
0	0	0	0	0	526	493	
1	0	0	0	0	527	492	
2	0	0	0	0	527	493	
3	0	0	0	0	527	494	
4	0	0	0	0	528	493	
5	0	0	0	0	529	493	
6	0	0	0	0	529	493	
7	0	0	0	0	529	493	
8	0	0	0	0	529	493	
9	0	0	0	0	529	493	
10	0	0	0	0	529	492	
11	0	0	0	0	529	492	
12	0	0	0	0	529	492	
13	0	0	0	0	528	493	
14	0	0	0	0	528	492	
15	0	0	0	0	528	492	
0	0	0	0	0	528	492	
1	0	0	0	0	529	492	
2	0	0	0	0	529	492	
3	0	0	0	0	529	493	
4	0	0	0	0	529	492	
5	0	0	0	0	529	492	
6	0	0	0	0	529	492	
7	0	0	0	0	528	492	
8	0	0	0	0	528	492	
9	0	0	0	0	527	492	
10	0	0	0	0	527	492	
11	0	0	0	0	526	492	
12	0	0	0	0	526	492	
13	0	0	0	0	526	492	
14	0	0	0	0	526	492	
15	0	0	0	0	525	492	
0	0	0	0	0	525	491	
1	0	0	0	0	526	492	
2	0	0	0	0	526	492	
3	0	0	0	0	526	492	
4	0	0	0	0	526	492	
5	0	0	0	0	525	491	
6	0	0	0	0	525	492	
7	0	0	0	0	524	492	
8	0	0	0	0	524	492	
9	0	0	0	0	524	492	
10	0	0	0	0	523	492	
11	0	0	0	0	524	493	
12	0	0	0	0	524	491	
13	0	0	0	0	524	491	
14	0	0	0	0	524	491	
15	0	0	0	0	524	490	
0	0	0	0	0	524	491	
1	0	0	0	0	524	491	
2	0	0	0	0	524	490	
3	0	0	0	0	524	491	
4	0	0	0	0	524	491	
5	0	0	0	0	524	491	
6	0	0	0	0	525	491	
7	0	0	0	0	525	491	
8	0	0	0	0	525	491	
9	0	0	0	0	524	491	
10	0	0	0	0	524	492	
11	0	0	0	0	524	493	
12	0	0	0	0	523	492	
13	0	0	0	0	523	491	
14	0	0	0	0	522	491	
15	0	0	0	0	521	491	
0	0	0	0	0	522	492	
1	0	0	0	0	522	492	
2	0	0	0	0	523	491	
3	0	0	0	0	523	492	
4	0	0	0	0	524	492	
5	0	0	0	0	524	492	
6	0	0	0	0	524	492	
7	0	0	0	0	525	492	
8	0	0	0	0	525	492	
9	0	0	0	0	524	493	
10	0	0	0	0	524	492	
11	0	0	0	0	523	493	
12	0	0	0	0	523	493	
13	0	0	0	0	523	492	
14	0	0	0	0	523	493	
15	0	0	0	0	523	492	
0	0	0	0	0	523	493	
1	0	0	0	0	523	493	
2	0	0	0	0	523	493	
3	0	0	0	0	523	494	
4	0	0	0	0	523	493	
5	0	0	0	0	522	493	
6	0	0	0	0	523	493	
7	0	0	0	0	523	493	
8	0	0	0	0	523	493	
9	0	0	0	0	523	493	
10	0	0	0	0	523	493	
11	0	0	0	0	523	493	
12	0	0	0	0	522	493	
13	0	0	0	0	522	493	
14	0	0	0	0	521	492	
15	0	0	0	0	521	492	
0	0	0	0	0	521	492	
1	0	0	0	0	520	492	
2	0	0	0	0	519	492	
3	0	0	0	0	519	492	
4	0	0	0	0	519	492	
5	0	0	0	0	519	493	
6	0	0	0	0	519	492	
7	0	0	0	0	519	492	
8	0	0	0	0	519	492	
9	0	0	0	0	519	493	
10	0	0	0	0	519	492	
11	0	0	0	0	518	492	
12	0	0	0	0	517	492	
13	0	0	0	0	517	492	
14	0	0	0	0	517	492	
15	0	0	0	0	517	492	
0	0	0	0	0	517	492	
1	0	0	0	0	516	492	
2	0	0	0	0	516	492	
3	0	0	0	0	517	492	
4	0	0	0	0	517	492	
5	0	0	0	0	517	492	
6	0	0	0	0	517	492	
7	0	0	0	0	517	492	
8	0	0	0	0	517	492	
9	0	0	0	0	517	492	
10	0	0	0	0	517	492	
11	0	0	0	0	517	493	
12	0	0	0	0	517	492	
13	0	0	0	0	517	492	
14	0	0	0	0	516	492	
15	0	0	0	0	515	492	
0	0	0	0	0	515	492	
1	0	0	0	0	515	492	
2	0	0	0	0	515	493	
3	0	0	0	0	514	493	
4	0	0	0	0	514	493	
5	0	0	0	0	514	492	
6	0	0	0	0	513	492	
7	0	0	0	0	511	492	
8	0	0	0	0	510	492	
9	0	0	0	0	510	492	
10	0	0	0	0	510	492	
11	0	0	0	0	509	493	
12	0	0	0	0	508	493	
13	0	0	0	0	508	492	
14	0	0	0	0	507	492	
15	0	0	0	0	507	492	
0	0	0	0	0	507	492	
1	0	0	0	0	508	492	
2	0	0	0	0	508	492	
3	0	0	0	0	509	492	
4	0	0	0	0	509	492	
5	0	0	0	0	509	492	
6	0	0	0	0	509	492	
7	0	0	0	0	509	492	
8	0	0	0	0	509	492	
9	0	0	0	0	509	492	
10	0	0	0	0	508	492	
11	0	0	0	0	509	492	
12	0	0	0	0	508	492	
13	0	0	0	0	508	491	
14	0	0	0	0	508	491	
15	0	0	0	0	508	491	
0	0	0	0	0	508	492	
1	0	0	0	0	509	492	
2	0	0	0	0	508	492	
3	0	0	0	0	509	492	
4	0	0	0	0	509	492	
5	0	0	0	0	509	492	
6	0	0	0	0	509	492	
7	0	0	0	0	509	492	
8	0	0	0	0	510	492	
9	0	0	0	0	510	491	
10	0	0	0	0	510	492	
11	0	0	0	0	511	493	
12	0	0	0	0	510	492	
13	0	0	0	0	511	492	
14	0	0	0	0	512	492	
15	0	0	0	0	513	491	
0	0	0	0	0	514	492	
1	0	0	0	0	515	491	
2	0	0	0	0	517	491	
3	0	0	0	0	518	492	
4	0	0	0	0	518	492	
5	0	0	0	0	519	491	
6	0	0	0	0	519	492	
7	0	0	0	0	520	492	
8	0	0	0	0	521	492	
9	0	0	0	0	522	492	
10	0	0	0	0	522	492	
11	0	0	0	0	523	493	
12	0	0	0	0	523	492	
13	0	0	0	0	524	493	
14	0	0	0	0	524	492	
15	0	0	0	0	523	492	
0	0	0	0	0	522	493	
1	0	0	0	0	522	492	
2	0	0	0	0	522	492	
3	0	0	0	0	522	492	
4	0	0	0	0	521	492	
5	0	0	0	0	520	492	
6	0	0	0	0	520	492	
7	0	0	0	0	519	492	
8	0	0	0	0	520	491	
9	0	0	0	0	520	491	
10	0	0	0	0	521	492	
11	0	0	0	0	521	492	
12	0	0	0	0	520	492	
13	0	0	0	0	520	492	
14	0	0	0	0	519	492	
15	0	0	0	0	517	492	
0	0	0	0	0	515	492	
1	0	0	0	0	514	492	
2	0	0	0	0	513	492	
3	0	0	0	0	512	492	
4	0	0	0	0	513	492	
5	0	0	0	0	512	492	
6	0	0	0	0	512	492	
7	0	0	0	0	513	492	
8	0	0	0	0	513	492	
9	0	0	0	0	513	492	
10	0	0	0	0	513	492	
11	0	0	0	0	514	492	
12	0	0	0	0	513	492	
13	0	0	0	0	513	492	
14	0	0	0	0	513	492	
15	0	0	0	0	513	492	
0	0	0	0	0	513	492	
1	0	0	0	0	513	492	
2	0	0	0	0	513	492	
3	0	0	0	0	513	492	
4	0	0	0	0	513	492	
5	0	0	0	0	512	492	
6	0	0	0	0	512	492	
7	0	0	0	0	512	492	
8	0	0	0	0	512	493	
9	0	0	0	0	512	492	
10	0	0	0	0	511	492	
11	0	0	0	0	510	493	
12	0	0	0	0	510	492	
13	0	0	0	0	508	493	
14	0	0	0	0	508	493	
15	0	0	0	0	507	493	
0	0	0	0	0	506	492	
1	0	0	0	0	506	493	
2	0	0	0	0	506	492	
3	0	0	0	0	506	492	
4	0	0	0	0	506	492	
5	0	0	0	0	505	493	
6	0	0	0	0	505	492	
7	0	0	0	0	505	491	
8	0	0	0	0	506	492	
9	0	0	0	0	505	492	
10	0	0	0	0	506	492	
11	0	0	0	0	507	492	
12	0	0	0	0	506	492	
13	0	0	0	0	506	492	
14	0	0	0	0	506	492	
15	0	0	0	0	507	492	
0	0	0	0	0	507	491	
1	0	0	0	0	507	491	
2	0	0	0	0	507	492	
3	0	0	0	0	507	492	
4	0	0	0	0	507	492	
5	0	0	0	0	507	492	
6	0	0	0	0	506	492	
7	0	0	0	0	505	491	
8	0	0	0	0	504	492	
9	0	0	0	0	504	492	
10	0	0	0	0	504	492	
11	0	0	0	0	504	493	
12	0	0	0	0	504	492	
13	0	0	0	0	504	492	
14	0	0	0	0	504	492	
15	0	0	0	0	504	492	
0	0	0	0	0	504	492	
1	0	0	0	0	504	492	
2	0	0	0	0	504	491	
3	0	0	0	0	504	493	
4	0	0	0	0	503	492	
5	0	0	0	0	503	492	
6	0	0	0	0	502	493	
7	0	0	0	0	500	493	
8	0	0	0	0	499	493	
9	0	0	0	0	496	492	
10	0	0	0	0	495	493	
11	0	0	0	0	492	493	
12	0	0	0	0	490	492	
13	0	0	0	0	487	492	
14	0	0	0	0	484	492	
15	0	0	0	0	481	492	
0	0	0	0	0	478	492	
1	0	0	0	0	475	492	
2	0	0	0	0	473	492	
3	0	0	0	0	471	492	
4	0	0	0	0	469	492	
5	0	0	0	0	467	492	
6	0	0	0	0	466	492	
7	0	0	0	0	463	491	
8	0	0	0	0	460	492	
9	0	0	0	0	455	492	
10	0	0	0	0	451	492	
11	0	0	0	0	447	492	
12	0	0	0	0	442	492	
13	0	0	0	0	439	492	
14	0	0	0	0	440	492	
15	0	0	0	0	441	492	
0	0	0	0	0	446	491	
1	0	0	0	0	453	491	
2	0	0	0	0	460	491	
3	0	0	0	0	468	492	
4	0	0	0	0	478	492	
5	0	0	0	0	491	492	
6	0	0	0	0	509	492	
7	0	0	0	0	526	491	
8	0	0	0	0	544	491	
9	0	0	0	0	561	491	
10	0	0	0	0	579	491	
11	0	0	0	0	598	492	
12	0	0	0	0	616	491	
13	0	0	0	0	633	491	
14	0	0	0	0	649	492	
15	0	0	0	0	665	491	
0	0	0	0	0	678	491	
1	0	0	0	0	689	491	
2	0	0	0	0	697	492	
3	0	0	0	0	700	492	
4	0	0	0	0	698	491	
5	0	0	0	0	696	492	
6	0	0	0	0	694	492	
7	0	0	0	0	692	491	
8	0	0	0	0	691	492	
9	0	0	0	0	692	492	
10	0	0	0	0	692	492	
11	0	0	0	0	692	493	
12	0	0	0	0	692	493	
13	0	0	0	0	692	492	
14	0	0	0	0	689	492	
15	0	0	0	0	685	492	
0	0	0	0	0	679	492	
1	0	0	0	0	674	493	
2	0	0	0	0	667	492	
3	0	0	0	0	659	493	
4	0	0	0	0	649	493	
5	0	0	0	0	636	493	
6	0	0	0	0	621	492	
7	0	0	0	0	606	492	
8	0	0	0	0	591	492	
9	0	0	0	0	576	492	
10	0	0	0	0	562	492	
11	0	0	0	0	550	492	
12	0	0	0	0	538	492	
13	0	0	0	0	527	492	
14	0	0	0	0	517	492	
15	0	0	0	0	508	491	
0	0	0	0	0	499	492	
1	0	0	0	0	491	492	
2	0	0	0	0	484	492	
3	0	0	0	0	477	493	
4	0	0	0	0	471	492	
5	0	0	0	0	466	492	
6	0	0	0	0	462	492	
7	0	0	0	0	457	492	
8	0	0	0	0	454	492	
9	0	0	0	0	450	492	
10	0	0	0	0	447	492	
11	0	0	0	0	445	492	
12	0	0	0	0	443	492	
13	0	0	0	0	441	493	
14	0	0	0	0	440	492	
15	0	0	0	0	438	491	
0	0	0	0	0	437	492	
1	0	0	0	0	435	492	
2	0	0	0	0	435	492	
3	0	0	0	0	434	493	
4	0	0	0	0	434	492	
5	0	0	0	0	433	492	
6	0	0	0	0	434	492	
7	0	0	0	0	435	491	
8	0	0	0	0	435	492	
9	0	0	0	0	436	492	
10	0	0	0	0	436	492	
11	0	0	0	0	437	492	
12	0	0	0	0	437	492	
13	0	0	0	0	437	492	
14	0	0	0	0	437	492	
15	0	0	0	0	438	492	
0	0	0	0	0	437	492	
1	0	0	0	0	438	492	
2	0	0	0	0	438	492	
3	0	0	0	0	438	493	
4	0	0	0	0	439	492	
5	0	0	0	0	439	492	
6	0	0	0	0	440	492	
7	0	0	0	0	440	492	
8	0	0	0	0	440	492	
9	0	0	0	0	440	492	
10	0	0	0	0	441	492	
11	0	0	0	0	442	492	
12	0	0	0	0	443	492	
13	0	0	0	0	444	492	
14	0	0	0	0	444	492	
15	0	0	0	0	444	492	
0	0	0	0	0	446	492	
1	0	0	0	0	447	492	
2	0	0	0	0	448	492	
3	0	0	0	0	448	492	
4	0	0	0	0	448	492	
5	0	0	0	0	449	492	
6	0	0	0	0	450	492	
7	0	0	0	0	451	491	
8	0	0	0	0	451	492	
9	0	0	0	0	451	492	
10	0	0	0	0	451	491	
11	0	0	0	0	451	492	
12	0	0	0	0	452	492	
13	0	0	0	0	452	492	
14	0	0	0	0	453	492	
15	0	0	0	0	453	492	
0	0	0	0	0	454	492	
1	0	0	0	0	454	492	
2	0	0	0	0	454	492	
3	0	0	0	0	454	492	
4	0	0	0	0	455	492	
5	0	0	0	0	455	492	
6	0	0	0	0	455	491	
7	0	0	0	0	456	492	
8	0	0	0	0	456	492	
9	0	0	0	0	457	492	
10	0	0	0	0	456	492	
11	0	0	0	0	457	492	
12	0	0	0	0	457	491	
13	0	0	0	0	457	492	
14	0	0	0	0	458	493	
15	0	0	0	0	457	492	
0	0	0	0	0	457	492	
1	0	0	0	0	457	492	
2	0	0	0	0	456	492	
3	0	0	0	0	457	492	
4	0	0	0	0	457	492	
5	0	0	0	0	457	492	
6	0	0	0	0	457	492	
7	0	0	0	0	457	492	
8	0	0	0	0	457	493	
9	0	0	0	0	457	492	
10	0	0	0	0	457	492	
11	0	0	0	0	457	492	
12	0	0	0	0	457	492	
13	0	0	0	0	458	492	
14	0	0	0	0	458	492	
15	0	0	0	0	458	492	
0	0	0	0	0	459	492	
1	0	0	0	0	458	492	
2	0	0	0	0	458	492	
3	0	0	0	0	458	493	
4	0	0	0	0	458	492	
5	0	0	0	0	459	492	
6	0	0	0	0	459	492	
7	0	0	0	0	460	492	
8	0	0	0	0	460	493	
9	0	0	0	0	461	493	
10	0	0	0	0	462	493	
11	0	0	0	0	462	493	
12	0	0	0	0	462	493	
13	0	0	0	0	463	492	
14	0	0	0	0	463	492	
15	0	0	0	0	462	492	
0	0	0	0	0	462	492	
1	0	0	0	0	462	493	
2	0	0	0	0	462	492	
3	0	0	0	0	463	493	
4	0	0	0	0	464	492	
5	0	0	0	0	464	492	
6	0	0	0	0	463	493	
7	0	0	0	0	463	492	
8	0	0	0	0	462	492	
9	0	0	0	0	461	492	
10	0	0	0	0	460	492	
11	0	0	0	0	460	493	
12	0	0	0	0	459	492	
13	0	0	0	0	459	492	
14	0	0	0	0	459	492	
15	0	0	0	0	458	492	
0	0	0	0	0	458	492	
1	0	0	0	0	457	492	
2	0	0	0	0	457	492	
3	0	0	0	0	456	493	
4	0	0	0	0	457	492	
5	0	0	0	0	457	493	
6	0	0	0	0	456	492	
7	0	0	0	0	456	493	
8	0	0	0	0	456	492	
9	0	0	0	0	457	492	
10	0	0	0	0	458	492	
11	0	0	0	0	457	493	
12	0	0	0	0	457	492	
13	0	0	0	0	457	493	
14	0	0	0	0	457	492	
15	0	0	0	0	457	492	
0	0	0	0	0	456	492	
1	0	0	0	0	456	492	
2	0	0	0	0	456	492	
3	0	0	0	0	456	492	
4	0	0	0	0	456	492	
5	0	0	0	0	455	492	
6	0	0	0	0	455	492	
7	0	0	0	0	454	493	
8	0	0	0	0	453	492	
9	0	0	0	0	452	492	
10	0	0	0	0	451	492	
11	0	0	0	0	450	493	
12	0	0	0	0	450	492	
13	0	0	0	0	449	492	
14	0	0	0	0	449	492	
15	0	0	0	0	448	492	
0	0	0	0	0	448	492	
1	0	0	0	0	448	492	
2	0	0	0	0	448	492	
3	0	0	0	0	447	493	
4	0	0	0	0	447	492	
5	0	0	0	0	447	492	
6	0	0	0	0	447	492	
7	0	0	0	0	447	492	
8	0	0	0	0	447	492	
9	0	0	0	0	447	492	
10	0	0	0	0	447	492	
11	0	0	0	0	448	492	
12	0	0	0	0	448	492	
13	0	0	0	0	449	492	
14	0	0	0	0	450	491	
15	0	0	0	0	450	491	
0	0	0	0	0	450	491	
1	0	0	0	0	450	491	
2	0	0	0	0	450	492	
3	0	0	0	0	450	492	
4	0	0	0	0	449	491	
5	0	0	0	0	449	492	
6	0	0	0	0	449	492	
7	0	0	0	0	450	492	
8	0	0	0	0	451	492	
9	0	0	0	0	452	492	
10	0	0	0	0	453	492	
11	0	0	0	0	454	493	
12	0	0	0	0	455	492	
13	0	0	0	0	455	492	
14	0	0	0	0	456	492	
15	0	0	0	0	457	492	
0	0	0	0	0	457	491	
1	0	0	0	0	458	492	
2	0	0	0	0	459	492	
3	0	0	0	0	460	492	
4	0	0	0	0	461	492	
5	0	0	0	0	462	491	
6	0	0	0	0	463	491	
7	0	0	0	0	465	492	
8	0	0	0	0	467	492	
9	0	0	0	0	468	492	
10	0	0	0	0	470	492	
11	0	0	0	0	472	492	
12	0	0	0	0	473	491	
13	0	0	0	0	476	492	
14	0	0	0	0	477	492	
15	0	0	0	0	479	491	
0	0	0	0	0	481	492	
1	0	0	0	0	483	492	
2	0	0	0	0	486	492	
3	0	0	0	0	488	492	
4	0	0	0	0	490	492	
5	0	0	0	0	493	492	
6	0	0	0	0	495	491	
7	0	0	0	0	497	491	
8	0	0	0	0	500	491	
9	0	0	0	0	502	492	
10	0	0	0	0	505	491	
11	0	0	0	0	508	492	
12	0	0	0	0	510	491	
13	0	0	0	0	512	491	
14	0	0	0	0	514	492	
15	0	0	0	0	516	491	
0	0	0	0	0	518	491	
1	0	0	0	0	520	491	
2	0	0	0	0	523	491	
3	0	0	0	0	524	492	
4	0	0	0	0	526	492	
5	0	0	0	0	528	492	
6	0	0	0	0	530	492	
7	0	0	0	0	531	492	
8	0	0	0	0	533	491	
9	0	0	0	0	535	492	
10	0	0	0	0	536	492	
11	0	0	0	0	538	493	
12	0	0	0	0	541	492	
13	0	0	0	0	542	491	
14	0	0	0	0	543	492	
15	0	0	0	0	545	492	
0	0	0	0	0	547	491	
1	0	0	0	0	548	492	
2	0	0	0	0	549	491	
3	0	0	0	0	550	492	
4	0	0	0	0	551	491	
5	0	0	0	0	552	491	
6	0	0	0	0	553	492	
7	0	0	0	0	554	491	
8	0	0	0	0	555	492	
9	0	0	0	0	555	492	
10	0	0	0	0	556	492	
11	0	0	0	0	556	492	
12	0	0	0	0	556	492	
13	0	0	0	0	556	492	
14	0	0	0	0	557	492	
15	0	0	0	0	557	492	
0	0	0	0	0	557	492	
1	0	0	0	0	558	492	
2	0	0	0	0	559	492	
3	0	0	0	0	560	493	
4	0	0	0	0	560	492	
5	0	0	0	0	560	492	
6	0	0	0	0	562	492	
7	0	0	0	0	563	492	
8	0	0	0	0	563	492	
9	0	0	0	0	563	492	
10	0	0	0	0	563	492	
11	0	0	0	0	563	493	
12	0	0	0	0	563	493	
13	0	0	0	0	562	492	
14	0	0	0	0	562	493	
15	0	0	0	0	562	492	
0	0	0	0	0	561	492	
1	0	0	0	0	561	493	
2	0	0	0	0	561	492	
3	0	0	0	0	561	492	
4	0	0	0	0	561	492	
5	0	0	0	0	561	492	
6	0	0	0	0	561	492	
7	0	0	0	0	562	491	
8	0	0	0	0	561	492	
9	0	0	0	0	561	492	
10	0	0	0	0	560	492	
11	0	0	0	0	560	492	
12	0	0	0	0	560	492	
13	0	0	0	0	559	492	
14	0	0	0	0	558	492	
15	0	0	0	0	557	492	
0	0	0	0	0	556	493	
1	0	0	0	0	555	492	
2	0	0	0	0	555	492	
3	0	0	0	0	554	493	
4	0	0	0	0	554	493	
5	0	0	0	0	554	494	
6	0	0	0	0	553	493	
7	0	0	0	0	553	493	
8	0	0	0	0	553	493	
9	0	0	0	0	553	492	
10	0	0	0	0	552	493	
11	0	0	0	0	552	493	
12	0	0	0	0	551	493	
13	0	0	0	0	551	492	
14	0	0	0	0	551	493	
15	0	0	0	0	550	492	
0	0	0	0	0	549	492	
1	0	0	0	0	549	492	
2	0	0	0	0	548	492	
3	0	0	0	0	548	494	
4	0	0	0	0	547	493	
5	0	0	0	0	547	492	
6	0	0	0	0	547	492	
7	0	0	0	0	547	492	
8	0	0	0	0	546	492	
9	0	0	0	0	545	492	
10	0	0	0	0	545	492	
11	0	0	0	0	544	493	
12	0	0	0	0	544	492	
13	0	0	0	0	543	492	
14	0	0	0	0	543	493	
15	0	0	0	0	542	492	
0	0	0	0	0	543	492	
1	0	0	0	0	542	491	
2	0	0	0	0	542	492	
3	0	0	0	0	542	492	
4	0	0	0	0	541	492	
5	0	0	0	0	541	491	
6	0	0	0	0	540	491	
7	0	0	0	0	540	491	
8	0	0	0	0	540	492	
9	0	0	0	0	540	492	
10	0	0	0	0	540	492	
11	0	0	0	0	539	492	
12	0	0	0	0	539	492	
13	0	0	0	0	539	492	
14	0	0	0	0	538	492	
15	0	0	0	0	537	491	
0	0	0	0	0	536	492	
1	0	0	0	0	536	492	
2	0	0	0	0	535	492	
3	0	0	0	0	535	492	
4	0	0	0	0	535	492	
5	0	0	0	0	535	492	
6	0	0	0	0	535	492	
7	0	0	0	0	535	492	
8	0	0	0	0	534	492	
9	0	0	0	0	533	492	
10	0	0	0	0	533	492	
11	0	0	0	0	534	493	
12	0	0	0	0	534	492	
13	0	0	0	0	533	492	
14	0	0	0	0	533	492	
15	0	0	0	0	533	492	
0	0	0	0	0	533	492	
1	0	0	0	0	532	492	
2	0	0	0	0	532	492	
3	0	0	0	0	532	493	
4	0	0	0	0	531	492	
5	0	0	0	0	531	493	
6	0	0	0	0	531	493	
7	0	0	0	0	531	492	
8	0	0	0	0	530	492	
9	0	0	0	0	530	492	
10	0	0	0	0	530	492	
11	0	0	0	0	530	493	
12	0	0	0	0	531	492	
13	0	0	0	0	530	492	
14	0	0	0	0	530	492	
15	0	0	0	0	530	492	
0	0	0	0	0	530	492	
1	0	0	0	0	531	492	
2	0	0	0	0	531	492	
3	0	0	0	0	532	492	
4	0	0	0	0	532	492	
5	0	0	0	0	532	492	
6	0	0	0	0	532	492	
7	0	0	0	0	532	492	
8	0	0	0	0	531	492	
9	0	0	0	0	531	492	
10	0	0	0	0	531	492	
11	0	0	0	0	531	492	
12	0	0	0	0	531	492	
13	0	0	0	0	530	491	
14	0	0	0	0	530	491	
15	0	0	0	0	531	491	
0	0	0	0	0	531	491	
1	0	0	0	0	531	491	
2	0	0	0	0	531	491	
3	0	0	0	0	530	492	
4	0	0	0	0	530	491	
5	0	0	0	0	529	492	
6	0	0	0	0	529	491	
7	0	0	0	0	529	491	
8	0	0	0	0	529	491	
9	0	0	0	0	529	492	
10	0	0	0	0	528	491	
11	0	0	0	0	529	492	
12	0	0	0	0	529	490	
13	0	0	0	0	528	491	
14	0	0	0	0	528	491	
15	0	0	0	0	527	491	
0	0	0	0	0	527	492	
1	0	0	0	0	527	492	
2	0	0	0	0	527	491	
3	0	0	0	0	527	492	
4	0	0	0	0	527	492	
5	0	0	0	0	527	492	
6	0	0	0	0	527	491	
7	0	0	0	0	527	491	
8	0	0	0	0	526	492	
9	0	0	0	0	526	492	
10	0	0	0	0	526	492	
11	0	0	0	0	526	492	
12	0	0	0	0	527	492	
13	0	0	0	0	527	492	
14	0	0	0	0	527	491	
15	0	0	0	0	527	492	
0	0	0	0	0	527	492	
1	0	0	0	0	526	492	
2	0	0	0	0	526	492	
3	0	0	0	0	526	492	
4	0	0	0	0	526	492	
5	0	0	0	0	527	492	
6	0	0	0	0	527	492	
7	0	0	0	0	527	491	
8	0	0	0	0	527	491	
9	0	0	0	0	527	492	
10	0	0	0	0	527	492	
11	0	0	0	0	526	492	
12	0	0	0	0	526	492	
13	0	0	0	0	527	492	
14	0	0	0	0	526	492	
15	0	0	0	0	526	492	
0	0	0	0	0	526	492	
1	0	0	0	0	525	492	
2	0	0	0	0	525	492	
3	0	0	0	0	524	493	
4	0	0	0	0	524	492	
5	0	0	0	0	522	492	
6	0	0	0	0	522	492	
7	0	0	0	0	522	492	
8	0	0	0	0	521	492	
9	0	0	0	0	521	492	
10	0	0	0	0	521	491	
11	0	0	0	0	520	492	
12	0	0	0	0	519	492	
13	0	0	0	0	519	492	
14	0	0	0	0	519	492	
15	0	0	0	0	519	492	
0	0	0	0	0	520	493	
1	0	0	0	0	520	493	
2	0	0	0	0	520	493	
3	0	0	0	0	520	493	
4	0	0	0	0	519	492	
5	0	0	0	0	519	493	
6	0	0	0	0	519	492	
7	0	0	0	0	520	492	
8	0	0	0	0	520	492	
9	0	0	0	0	520	492	
10	0	0	0	0	520	493	
11	0	0	0	0	520	493	
12	0	0	0	0	519	492	
13	0	0	0	0	519	492	
14	0	0	0	0	520	492	
15	0	0	0	0	520	492	
0	0	0	0	0	521	492	
1	0	0	0	0	521	492	
2	0	0	0	0	521	492	
3	0	0	0	0	520	492	
4	0	0	0	0	520	492	
5	0	0	0	0	520	492	
6	0	0	0	0	520	492	
7	0	0	0	0	520	492	
8	0	0	0	0	519	491	
9	0	0	0	0	519	492	
10	0	0	0	0	519	492	
11	0	0	0	0	518	492	
12	0	0	0	0	518	493	
13	0	0	0	0	518	492	
14	0	0	0	0	518	492	
15	0	0	0	0	517	492	
0	0	0	0	0	517	491	
1	0	0	0	0	517	491	
2	0	0	0	0	517	491	
3	0	0	0	0	518	491	
4	0	0	0	0	518	490	
5	0	0	0	0	518	491	
6	0	0	0	0	518	491	
7	0	0	0	0	517	491	
8	0	0	0	0	517	491	
9	0	0	0	0	516	491	
10	0	0	0	0	516	491	
11	0	0	0	0	515	492	
12	0	0	0	0	515	491	
13	0	0	0	0	515	491	
14	0	0	0	0	515	491	
15	0	0	0	0	514	491	
0	0	0	0	0	514	492	
1	0	0	0	0	514	492	
2	0	0	0	0	514	492	
3	0	0	0	0	514	493	
4	0	0	0	0	513	491	
5	0	0	0	0	513	492	
6	0	0	0	0	512	492	
7	0	0	0	0	512	491	
8	0	0	0	0	512	492	
9	0	0	0	0	512	491	
10	0	0	0	0	512	492	
11	0	0	0	0	512	493	
12	0	0	0	0	512	492	
13	0	0	0	0	513	492	
14	0	0	0	0	513	492	
15	0	0	0	0	513	492	
0	0	0	0	0	512	493	
1	0	0	0	0	512	492	
2	0	0	0	0	512	492	
3	0	0	0	0	512	492	
4	0	0	0	0	512	492	
5	0	0	0	0	512	492	
6	0	0	0	0	512	492	
7	0	0	0	0	512	492	
8	0	0	0	0	512	492	
9	0	0	0	0	513	492	
10	0	0	0	0	514	492	
11	0	0	0	0	515	492	
12	0	0	0	0	516	492	
13	0	0	0	0	518	492	
14	0	0	0	0	519	492	
15	0	0	0	0	520	491	
0	0	0	0	0	522	491	
1	0	0	0	0	523	492	
2	0	0	0	0	523	492	
3	0	0	0	0	524	492	
4	0	0	0	0	524	491	
5	0	0	0	0	524	492	
6	0	0	0	0	524	491	
7	0	0	0	0	524	492	
8	0	0	0	0	524	492	
9	0	0	0	0	524	491	
10	0	0	0	0	525	491	
11	0	0	0	0	525	492	
12	0	0	0	0	525	492	
13	0	0	0	0	525	491	
14	0	0	0	0	525	491	
15	0	0	0	0	525	491	
0	0	0	0	0	525	491	
1	0	0	0	0	526	491	
2	0	0	0	0	526	492	
3	0	0	0	0	526	492	
4	0	0	0	0	525	492	
5	0	0	0	0	525	492	
6	0	0	0	0	525	492	
7	0	0	0	0	524	491	
8	0	0	0	0	524	492	
9	0	0	0	0	524	491	
10	0	0	0	0	525	491	
11	0	0	0	0	524	492	
12	0	0	0	0	524	492	
13	0	0	0	0	524	492	
14	0	0	0	0	524	492	
15	0	0	0	0	524	492	
0	0	0	0	0	524	492	
1	0	0	0	0	523	491	
2	0	0	0	0	523	492	
3	0	0	0	0	521	492	
4	0	0	0	0	521	492	
5	0	0	0	0	520	492	
6	0	0	0	0	519	492	
7	0	0	0	0	518	492	
8	0	0	0	0	517	492	
9	0	0	0	0	516	492	
10	0	0	0	0	515	492	
11	0	0	0	0	515	493	
12	0	0	0	0	514	492	
13	0	0	0	0	514	492	
14	0	0	0	0	513	492	
15	0	0	0	0	513	492	
0	0	0	0	0	512	491	
1	0	0	0	0	512	492	
2	0	0	0	0	511	492	
3	0	0	0	0	511	492	
4	0	0	0	0	511	491	
5	0	0	0	0	512	492	
6	0	0	0	0	512	492	
7	0	0	0	0	513	493	
8	0	0	0	0	513	492	
9	0	0	0	0	513	493	
10	0	0	0	0	514	493	
11	0	0	0	0	513	493	
12	0	0	0	0	514	493	
13	0	0	0	0	514	493	
14	0	0	0	0	514	492	
15	0	0	0	0	513	492	
0	0	0	0	0	513	492	
1	0	0	0	0	513	493	
2	0	0	0	0	513	492	
3	0	0	0	0	513	492	
4	0	0	0	0	512	492	
5	0	0	0	0	512	492	
6	0	0	0	0	513	491	
7	0	0	0	0	513	491	
8	0	0	0	0	512	492	
9	0	0	0	0	512	492	
10	0	0	0	0	512	492	
11	0	0	0	0	512	492	
12	0	0	0	0	512	492	
13	0	0	0	0	512	492	
14	0	0	0	0	511	492	
15	0	0	0	0	510	491	
0	0	0	0	0	510	492	
1	0	0	0	0	510	492	
2	0	0	0	0	510	491	
3	0	0	0	0	510	492	
4	0	0	0	0	510	491	
5	0	0	0	0	510	491	
6	0	0	0	0	510	492	
7	0	0	0	0	510	490	
8	0	0	0	0	510	490	
9	0	0	0	0	510	490	
10	0	0	0	0	510	490	
11	0	0	0	0	509	491	
12	0	0	0	0	508	491	
13	0	0	0	0	507	491	
14	0	0	0	0	507	491	
15	0	0	0	0	507	491	
0	0	0	0	0	507	491	
1	0	0	0	0	507	492	
2	0	0	0	0	506	492	
3	0	0	0	0	506	492	
4	0	0	0	0	506	492	
5	0	0	0	0	505	492	
6	0	0	0	0	504	492	
7	0	0	0	0	503	492	
8	0	0	0	0	501	492	
9	0	0	0	0	500	492	
10	0	0	0	0	498	493	
11	0	0	0	0	495	493	
12	0	0	0	0	491	492	
13	0	0	0	0	487	492	
14	0	0	0	0	484	492	
15	0	0	0	0	481	492	
0	0	0	0	0	478	492	
1	0	0	0	0	475	492	
2	0	0	0	0	472	492	
3	0	0	0	0	469	492	
4	0	0	0	0	466	491	
5	0	0	0	0	463	492	
6	0	0	0	0	458	492	
7	0	0	0	0	452	491	
8	0	0	0	0	447	492	
9	0	0	0	0	442	492	
10	0	0	0	0	437	492	
11	0	0	0	0	434	492	
12	0	0	0	0	433	492	
13	0	0	0	0	434	492	
14	0	0	0	0	439	492	
15	0	0	0	0	445	492	
0	0	0	0	0	451	491	
1	0	0	0	0	459	492	
2	0	0	0	0	467	492	
3	0	0	0	0	478	492	
4	0	0	0	0	495	491	
5	0	0	0	0	517	491	
6	0	0	0	0	539	491	
7	0	0	0	0	556	491	
8	0	0	0	0	573	491	
9	0	0	0	0	588	491	
10	0	0	0	0	604	490	
11	0	0	0	0	620	491	
12	0	0	0	0	635	492	
13	0	0	0	0	649	491	
14	0	0	0	0	662	491	
15	0	0	0	0	673	491	
0	0	0	0	0	683	490	
1	0	0	0	0	689	491	
2	0	0	0	0	692	491	
3	0	0	0	0	693	492	
4	0	0	0	0	694	491	
5	0	0	0	0	694	492	
6	0	0	0	0	693	492	
7	0	0	0	0	692	491	
8	0	0	0	0	692	492	
9	0	0	0	0	692	492	
10	0	0	0	0	693	491	
11	0	0	0	0	694	493	
12	0	0	0	0	692	492	
13	0	0	0	0	688	492	
14	0	0	0	0	682	492	
15	0	0	0	0	675	492	
0	0	0	0	0	670	493	
1	0	0	0	0	663	492	
2	0	0	0	0	654	492	
3	0	0	0	0	642	493	
4	0	0	0	0	629	492	
5	0	0	0	0	615	492	
6	0	0	0	0	600	492	
7	0	0	0	0	585	492	
8	0	0	0	0	572	492	
9	0	0	0	0	559	492	
10	0	0	0	0	547	492	
11	0	0	0	0	536	492	
12	0	0	0	0	525	492	
13	0	0	0	0	515	492	
14	0	0	0	0	507	492	
15	0	0	0	0	499	491	
0	0	0	0	0	491	492	
1	0	0	0	0	484	492	
2	0	0	0	0	478	492	
3	0	0	0	0	472	493	
4	0	0	0	0	468	492	
5	0	0	0	0	464	492	
6	0	0	0	0	460	492	
7	0	0	0	0	455	491	
8	0	0	0	0	453	491	
9	0	0	0	0	451	492	
10	0	0	0	0	449	492	
11	0	0	0	0	448	492	
12	0	0	0	0	447	491	
13	0	0	0	0	446	491	
14	0	0	0	0	446	491	
15	0	0	0	0	445	490	
0	0	0	0	0	445	491	
1	0	0	0	0	444	490	
2	0	0	0	0	445	489	
3	0	0	0	0	444	491	
4	0	0	0	0	444	489	
5	0	0	0	0	444	489	
6	0	0	0	0	444	490	
7	0	0	0	0	444	489	
8	0	0	0	0	444	489	
9	0	0	0	0	444	491	
10	0	0	0	0	444	491	
11	0	0	0	0	444	491	
12	0	0	0	0	444	491	
13	0	0	0	0	444	490	
14	0	0	0	0	445	491	
15	0	0	0	0	445	491	
0	0	0	0	0	446	491	
1	0	0	0	0	446	491	
2	0	0	0	0	447	492	
3	0	0	0	0	447	492	
4	0	0	0	0	448	492	
5	0	0	0	0	448	491	
6	0	0	0	0	448	491	
7	0	0	0	0	449	492	
8	0	0	0	0	450	492	
9	0	0	0	0	450	492	
10	0	0	0	0	451	492	
11	0	0	0	0	451	493	
12	0	0	0	0	451	491	
13	0	0	0	0	451	492	
14	0	0	0	0	451	492	
15	0	0	0	0	452	492	
0	0	0	0	0	452	492	
1	0	0	0	0	453	492	
2	0	0	0	0	453	492	
3	0	0	0	0	453	492	
4	0	0	0	0	453	492	
5	0	0	0	0	454	492	
6	0	0	0	0	455	492	
7	0	0	0	0	455	492	
8	0	0	0	0	456	492	
9	0	0	0	0	457	492	
10	0	0	0	0	458	492	
11	0	0	0	0	459	492	
12	0	0	0	0	460	492	
13	0	0	0	0	461	492	
14	0	0	0	0	461	491	
15	0	0	0	0	461	491	
0	0	0	0	0	461	491	
1	0	0	0	0	461	492	
2	0	0	0	0	461	491	
3	0	0	0	0	461	492	
4	0	0	0	0	461	491	
5	0	0	0	0	461	491	
6	0	0	0	0	460	491	
7	0	0	0	0	460	491	
8	0	0	0	0	460	492	
9	0	0	0	0	460	492	
10	0	0	0	0	460	491	
11	0	0	0	0	460	492	
12	0	0	0	0	460	492	
13	0	0	0	0	461	492	
14	0	0	0	0	460	492	
15	0	0	0	0	461	492	
0	0	0	0	0	462	492	
1	0	0	0	0	462	491	
2	0	0	0	0	462	492	
3	0	0	0	0	462	492	
4	0	0	0	0	463	491	
5	0	0	0	0	463	491	
6	0	0	0	0	463	491	
7	0	0	0	0	464	490	
8	0	0	0	0	465	491	
9	0	0	0	0	465	492	
10	0	0	0	0	465	491	
11	0	0	0	0	465	492	
12	0	0	0	0	465	492	
13	0	0	0	0	465	492	
14	0	0	0	0	465	492	
15	0	0	0	0	465	491	
0	0	0	0	0	465	492	
1	0	0	0	0	464	492	
2	0	0	0	0	465	491	
3	0	0	0	0	465	492	
4	0	0	0	0	465	492	
5	0	0	0	0	465	491	
6	0	0	0	0	465	491	
7	0	0	0	0	465	492	
8	0	0	0	0	466	492	
9	0	0	0	0	466	492	
10	0	0	0	0	467	491	
11	0	0	0	0	467	492	
12	0	0	0	0	466	492	
13	0	0	0	0	465	492	
14	0	0	0	0	465	492	
15	0	0	0	0	465	492	
0	0	0	0	0	465	492	
1	0	0	0	0	464	492	
2	0	0	0	0	464	492	
3	0	0	0	0	464	492	
4	0	0	0	0	464	492	
5	0	0	0	0	464	492	
6	0	0	0	0	465	492	
7	0	0	0	0	465	492	
8	0	0	0	0	465	492	
9	0	0	0	0	463	492	
10	0	0	0	0	463	492	
11	0	0	0	0	462	492	
12	0	0	0	0	463	492	
13	0	0	0	0	463	492	
14	0	0	0	0	464	492	
15	0	0	0	0	464	492	
0	0	0	0	0	463	492	
1	0	0	0	0	463	492	
2	0	0	0	0	463	492	
3	0	0	0	0	463	493	
4	0	0	0	0	462	492	
5	0	0	0	0	461	492	
6	0	0	0	0	460	492	
7	0	0	0	0	460	492	
8	0	0	0	0	459	492	
9	0	0	0	0	459	492	
10	0	0	0	0	459	492	
11	0	0	0	0	458	493	
12	0	0	0	0	458	492	
13	0	0	0	0	457	492	
14	0	0	0	0	456	492	
15	0	0	0	0	455	493	
0	0	0	0	0	455	492	
1	0	0	0	0	454	493	
2	0	0	0	0	453	492	
3	0	0	0	0	452	493	
4	0	0	0	0	452	492	
5	0	0	0	0	451	493	
6	0	0	0	0	451	492	
7	0	0	0	0	450	492	
8	0	0	0	0	449	492	
9	0	0	0	0	448	491	
10	0	0	0	0	448	492	
11	0	0	0	0	448	493	
12	0	0	0	0	447	491	
13	0	0	0	0	446	491	
14	0	0	0	0	446	491	
15	0	0	0	0	445	491	
0	0	0	0	0	445	491	
1	0	0	0	0	445	491	
2	0	0	0	0	445	491	
3	0	0	0	0	444	491	
4	0	0	0	0	444	491	
5	0	0	0	0	444	491	
6	0	0	0	0	444	491	
7	0	0	0	0	444	491	
8	0	0	0	0	445	491	
9	0	0	0	0	445	491	
10	0	0	0	0	445	491	
11	0	0	0	0	445	492	
12	0	0	0	0	446	492	
13	0	0	0	0	447	491	
14	0	0	0	0	448	491	
15	0	0	0	0	448	491	
0	0	0	0	0	448	491	
1	0	0	0	0	449	491	
2	0	0	0	0	449	492	
3	0	0	0	0	449	492	
4	0	0	0	0	449	492	
5	0	0	0	0	449	492	
6	0	0	0	0	449	492	
7	0	0	0	0	450	491	
8	0	0	0	0	450	491	
9	0	0	0	0	450	491	
10	0	0	0	0	449	491	
11	0	0	0	0	450	492	
12	0	0	0	0	451	491	
13	0	0	0	0	451	491	
14	0	0	0	0	451	491	
15	0	0	0	0	452	491	
0	0	0	0	0	453	492	
1	0	0	0	0	454	492	
2	0	0	0	0	454	492	
3	0	0	0	0	455	491	
4	0	0	0	0	456	491	
5	0	0	0	0	458	490	
6	0	0	0	0	460	491	
7	0	0	0	0	462	491	
8	0	0	0	0	463	492	
9	0	0	0	0	464	492	
10	0	0	0	0	466	492	
11	0	0	0	0	468	492	
12	0	0	0	0	470	492	
13	0	0	0	0	472	492	
14	0	0	0	0	474	492	
15	0	0	0	0	476	491	
0	0	0	0	0	478	492	
1	0	0	0	0	480	492	
2	0	0	0	0	483	491	
3	0	0	0	0	485	492	
4	0	0	0	0	487	491	
5	0	0	0	0	490	492	
6	0	0	0	0	492	492	
7	0	0	0	0	496	492	
8	0	0	0	0	499	492	
9	0	0	0	0	502	492	
10	0	0	0	0	504	492	
11	0	0	0	0	508	492	
12	0	0	0	0	511	492	
13	0	0	0	0	514	491	
14	0	0	0	0	517	491	
15	0	0	0	0	519	491	
0	0	0	0	0	521	491	
1	0	0	0	0	524	490	
2	0	0	0	0	526	490	
3	0	0	0	0	527	491	
4	0	0	0	0	529	490	
5	0	0	0	0	530	490	
6	0	0	0	0	532	490	
7	0	0	0	0	534	490	
8	0	0	0	0	536	491	
9	0	0	0	0	538	490	
10	0	0	0	0	539	491	
11	0	0	0	0	541	491	
12	0	0	0	0	542	491	
13	0	0	0	0	543	491	
14	0	0	0	0	544	490	
15	0	0	0	0	545	491	
0	0	0	0	0	546	491	
1	0	0	0	0	548	491	
2	0	0	0	0	549	491	
3	0	0	0	0	551	491	
4	0	0	0	0	552	491	
5	0	0	0	0	554	492	
6	0	0	0	0	555	491	
7	0	0	0	0	556	491	
8	0	0	0	0	557	491	
9	0	0	0	0	558	491	
10	0	0	0	0	558	491	
11	0	0	0	0	559	492	
12	0	0	0	0	559	491	
13	0	0	0	0	560	491	
14	0	0	0	0	561	491	
15	0	0	0	0	562	491	
0	0	0	0	0	563	491	
1	0	0	0	0	562	491	
2	0	0	0	0	561	491	
3	0	0	0	0	561	492	
4	0	0	0	0	561	490	
5	0	0	0	0	560	491	
6	0	0	0	0	560	491	
7	0	0	0	0	559	491	
8	0	0	0	0	560	491	
9	0	0	0	0	561	491	
10	0	0	0	0	561	491	
11	0	0	0	0	561	491	
12	0	0	0	0	561	491	
13	0	0	0	0	562	491	
14	0	0	0	0	562	491	
15	0	0	0	0	563	491	
0	0	0	0	0	563	491	
1	0	0	0	0	563	491	
2	0	0	0	0	563	492	
3	0	0	0	0	563	492	
4	0	0	0	0	562	492	
5	0	0	0	0	562	492	
6	0	0	0	0	561	492	
7	0	0	0	0	561	492	
8	0	0	0	0	561	492	
9	0	0	0	0	561	491	
10	0	0	0	0	560	491	
11	0	0	0	0	560	492	
12	0	0	0	0	560	492	
13	0	0	0	0	560	491	
14	0	0	0	0	560	492	
15	0	0	0	0	560	492	
0	0	0	0	0	560	492	
1	0	0	0	0	559	493	
2	0	0	0	0	558	493	
3	0	0	0	0	557	493	
4	0	0	0	0	556	492	
5	0	0	0	0	555	492	
6	0	0	0	0	555	492	
7	0	0	0	0	553	492	
8	0	0	0	0	552	492	
9	0	0	0	0	551	492	
10	0	0	0	0	550	492	
11	0	0	0	0	549	493	
12	0	0	0	0	547	492	
13	0	0	0	0	547	491	
14	0	0	0	0	546	492	
15	0	0	0	0	545	492	
0	0	0	0	0	545	492	
1	0	0	0	0	545	491	
2	0	0	0	0	544	492	
3	0	0	0	0	544	492	
4	0	0	0	0	544	492	
5	0	0	0	0	545	492	
6	0	0	0	0	544	491	
7	0	0	0	0	544	491	
8	0	0	0	0	544	491	
9	0	0	0	0	543	491	
10	0	0	0	0	543	491	
11	0	0	0	0	543	492	
12	0	0	0	0	542	492	
13	0	0	0	0	542	491	
14	0	0	0	0	541	491	
15	0	0	0	0	542	492	
0	0	0	0	0	541	492	
1	0	0	0	0	540	491	
2	0	0	0	0	540	492	
3	0	0	0	0	540	492	
4	0	0	0	0	540	491	
5	0	0	0	0	539	492	
6	0	0	0	0	539	492	
7	0	0	0	0	538	492	
8	0	0	0	0	537	492	
9	0	0	0	0	536	491	
10	0	0	0	0	536	492	
11	0	0	0	0	536	492	
12	0	0	0	0	535	492	
13	0	0	0	0	534	492	
14	0	0	0	0	533	491	
15	0	0	0	0	533	492	
0	0	0	0	0	532	492	
1	0	0	0	0	531	492	
2	0	0	0	0	531	492	
3	0	0	0	0	531	492	
4	0	0	0	0	529	491	
5	0	0	0	0	529	492	
6	0	0	0	0	529	492	
7	0	0	0	0	529	492	
8	0	0	0	0	529	492	
9	0	0	0	0	529	492	
10	0	0	0	0	530	492	
11	0	0	0	0	531	492	
12	0	0	0	0	531	492	
13	0	0	0	0	531	492	
14	0	0	0	0	531	492	
15	0	0	0	0	530	492	
0	0	0	0	0	529	492	
1	0	0	0	0	529	492	
2	0	0	0	0	528	492	
3	0	0	0	0	528	492	
4	0	0	0	0	527	492	
5	0	0	0	0	527	492	
6	0	0	0	0	527	492	
7	0	0	0	0	526	491	
8	0	0	0	0	525	491	
9	0	0	0	0	525	491	
10	0	0	0	0	525	491	
11	0	0	0	0	525	492	
12	0	0	0	0	525	491	
13	0	0	0	0	525	491	
14	0	0	0	0	526	491	
15	0	0	0	0	527	491	
0	0	0	0	0	526	491	
1	0	0	0	0	526	491	
2	0	0	0	0	525	491	
3	0	0	0	0	524	491	
4	0	0	0	0	523	491	
5	0	0	0	0	523	491	
6	0	0	0	0	523	491	
7	0	0	0	0	523	491	
8	0	0	0	0	523	491	
9	0	0	0	0	523	491	
10	0	0	0	0	523	490	
11	0	0	0	0	523	491	
12	0	0	0	0	523	491	
13	0	0	0	0	523	491	
14	0	0	0	0	523	491	
15	0	0	0	0	523	491	
0	0	0	0	0	523	491	
1	0	0	0	0	522	491	
2	0	0	0	0	522	491	
3	0	0	0	0	522	492	
4	0	0	0	0	522	491	
5	0	0	0	0	522	491	
6	0	0	0	0	523	491	
7	0	0	0	0	522	491	
8	0	0	0	0	522	491	
9	0	0	0	0	523	491	
10	0	0	0	0	523	491	
11	0	0	0	0	523	491	
12	0	0	0	0	524	491	
13	0	0	0	0	525	490	
14	0	0	0	0	526	492	
15	0	0	0	0	526	491	
0	0	0	0	0	525	491	
1	0	0	0	0	525	491	
2	0	0	0	0	525	491	
3	0	0	0	0	525	491	
4	0	0	0	0	524	491	
5	0	0	0	0	524	490	
6	0	0	0	0	524	490	
7	0	0	0	0	524	491	
8	0	0	0	0	524	491	
9	0	0	0	0	524	491	
10	0	0	0	0	523	490	
11	0	0	0	0	523	492	
12	0	0	0	0	522	491	
13	0	0	0	0	521	491	
14	0	0	0	0	521	491	
15	0	0	0	0	520	491	
0	0	0	0	0	521	491	
1	0	0	0	0	521	491	
2	0	0	0	0	520	491	
3	0	0	0	0	521	491	
4	0	0	0	0	520	491	
5	0	0	0	0	521	492	
6	0	0	0	0	520	492	
7	0	0	0	0	520	491	
8	0	0	0	0	520	491	
9	0	0	0	0	520	491	
10	0	0	0	0	520	492	
11	0	0	0	0	520	491	
12	0	0	0	0	520	491	
13	0	0	0	0	520	491	
14	0	0	0	0	520	491	
15	0	0	0	0	520	491	
0	0	0	0	0	520	491	
1	0	0	0	0	520	491	
2	0	0	0	0	521	492	
3	0	0	0	0	522	492	
4	0	0	0	0	523	491	
5	0	0	0	0	523	491	
6	0	0	0	0	524	491	
7	0	0	0	0	524	491	
8	0	0	0	0	524	491	
9	0	0	0	0	524	491	
10	0	0	0	0	524	491	
11	0	0	0	0	523	492	
12	0	0	0	0	523	491	
13	0	0	0	0	523	491	
14	0	0	0	0	522	491	
15	0	0	0	0	521	491	
0	0	0	0	0	520	491	
1	0	0	0	0	520	491	
2	0	0	0	0	520	492	
3	0	0	0	0	519	492	
4	0	0	0	0	518	491	
5	0	0	0	0	518	491	
6	0	0	0	0	518	491	
7	0	0	0	0	518	491	
8	0	0	0	0	518	491	
9	0	0	0	0	518	491	
10	0	0	0	0	517	491	
11	0	0	0	0	517	492	
12	0	0	0	0	518	491	
13	0	0	0	0	518	491	
14	0	0	0	0	519	491	
15	0	0	0	0	518	491	
0	0	0	0	0	518	491	
1	0	0	0	0	519	491	
2	0	0	0	0	519	491	
3	0	0	0	0	519	492	
4	0	0	0	0	519	491	
5	0	0	0	0	519	491	
6	0	0	0	0	519	491	
7	0	0	0	0	518	491	
8	0	0	0	0	518	491	
9	0	0	0	0	518	492	
10	0	0	0	0	518	492	
11	0	0	0	0	517	492	
12	0	0	0	0	517	492	
13	0	0	0	0	517	491	
14	0	0	0	0	517	492	
15	0	0	0	0	516	492	
0	0	0	0	0	515	492	
1	0	0	0	0	515	492	
2	0	0	0	0	515	491	
3	0	0	0	0	515	492	
4	0	0	0	0	515	492	
5	0	0	0	0	516	492	
6	0	0	0	0	516	492	
7	0	0	0	0	517	492	
8	0	0	0	0	516	492	
9	0	0	0	0	515	492	
10	0	0	0	0	515	492	
11	0	0	0	0	514	493	
12	0	0	0	0	514	492	
13	0	0	0	0	513	492	
14	0	0	0	0	513	492	
15	0	0	0	0	512	492	
0	0	0	0	0	512	491	
1	0	0	0	0	511	492	
2	0	0	0	0	511	492	
3	0	0	0	0	512	492	
