# OpenSignals Text File Format. Version 1
# {"98:D3:91:FD:59:64": {"position": 0, "device": "bitalino_rev", "device name": "98:D3:91:FD:59:64", "device connection": "BTH98:D3:91:FD:59:64", "sampling rate": 1000, "resolution": [4, 1, 1, 1, 1, 10, 10], "firmware version": 1281, "comments": "", "keywords": "", "mode": 0, "sync interval": 2, "date": "2021-9-4", "time": "21:14:32.328", "channels": [2, 5], "sensor": ["RAW", "RAW"], "label": ["A2", "A5"], "column": ["nSeq", "I1", "I2", "O1", "O2", "A2", "A5"], "special": [{}, {}], "digital IO": [0, 0, 1, 1], "convertedValues": 0}}
# EndOfHeader
0	0	0	0	0	506	615	
1	0	0	0	0	505	615	
2	0	0	0	0	506	615	
3	0	0	0	0	506	615	
4	0	0	0	0	508	615	
5	0	0	0	0	509	615	
6	0	0	0	0	510	615	
7	0	0	0	0	511	615	
8	0	0	0	0	511	615	
9	0	0	0	0	513	615	
10	0	0	0	0	514	615	
11	0	0	0	0	515	615	
12	0	0	0	0	516	616	
13	0	0	0	0	516	616	
14	0	0	0	0	517	616	
15	0	0	0	0	518	617	
0	0	0	0	0	520	617	
1	0	0	0	0	521	617	
2	0	0	0	0	521	617	
3	0	0	0	0	521	617	
4	0	0	0	0	521	617	
5	0	0	0	0	521	617	
6	0	0	0	0	523	617	
7	0	0	0	0	523	617	
8	0	0	0	0	525	617	
9	0	0	0	0	524	617	
10	0	0	0	0	524	617	
11	0	0	0	0	524	617	
12	0	0	0	0	524	616	
13	0	0	0	0	524	617	
14	0	0	0	0	526	616	
15	0	0	0	0	526	616	
0	0	0	0	0	526	616	
1	0	0	0	0	527	617	
2	0	0	0	0	526	617	
3	0	0	0	0	526	617	
4	0	0	0	0	526	616	
5	0	0	0	0	525	616	
6	0	0	0	0	526	616	
7	0	0	0	0	527	616	
8	0	0	0	0	527	616	
9	0	0	0	0	528	616	
10	0	0	0	0	528	616	
11	0	0	0	0	528	615	
12	0	0	0	0	529	616	
13	0	0	0	0	532	616	
14	0	0	0	0	532	615	
15	0	0	0	0	532	615	
0	0	0	0	0	533	615	
1	0	0	0	0	533	615	
2	0	0	0	0	533	616	
3	0	0	0	0	532	615	
4	0	0	0	0	532	616	
5	0	0	0	0	532	616	
6	0	0	0	0	533	615	
7	0	0	0	0	532	615	
8	0	0	0	0	532	616	
9	0	0	0	0	531	615	
10	0	0	0	0	532	615	
11	0	0	0	0	532	616	
12	0	0	0	0	531	616	
13	0	0	0	0	531	616	
14	0	0	0	0	531	615	
15	0	0	0	0	531	615	
0	0	0	0	0	530	616	
1	0	0	0	0	529	616	
2	0	0	0	0	529	615	
3	0	0	0	0	529	615	
4	0	0	0	0	530	616	
5	0	0	0	0	531	617	
6	0	0	0	0	530	616	
7	0	0	0	0	528	617	
8	0	0	0	0	526	617	
9	0	0	0	0	526	616	
10	0	0	0	0	526	616	
11	0	0	0	0	526	617	
12	0	0	0	0	525	617	
13	0	0	0	0	525	618	
14	0	0	0	0	524	617	
15	0	0	0	0	524	617	
0	0	0	0	0	524	617	
1	0	0	0	0	524	618	
2	0	0	0	0	524	617	
3	0	0	0	0	524	618	
4	0	0	0	0	525	617	
5	0	0	0	0	525	617	
6	0	0	0	0	524	618	
7	0	0	0	0	523	617	
8	0	0	0	0	521	617	
9	0	0	0	0	521	617	
10	0	0	0	0	520	617	
11	0	0	0	0	520	617	
12	0	0	0	0	521	617	
13	0	0	0	0	519	617	
14	0	0	0	0	518	617	
15	0	0	0	0	518	617	
0	0	0	0	0	518	617	
1	0	0	0	0	516	616	
2	0	0	0	0	514	617	
3	0	0	0	0	512	616	
4	0	0	0	0	513	616	
5	0	0	0	0	514	616	
6	0	0	0	0	515	616	
7	0	0	0	0	515	617	
8	0	0	0	0	517	616	
9	0	0	0	0	517	616	
10	0	0	0	0	515	616	
11	0	0	0	0	515	616	
12	0	0	0	0	516	616	
13	0	0	0	0	516	616	
14	0	0	0	0	517	616	
15	0	0	0	0	515	615	
0	0	0	0	0	515	615	
1	0	0	0	0	517	615	
2	0	0	0	0	518	615	
3	0	0	0	0	519	615	
4	0	0	0	0	520	615	
5	0	0	0	0	520	615	
6	0	0	0	0	519	615	
7	0	0	0	0	519	615	
8	0	0	0	0	519	615	
9	0	0	0	0	520	615	
10	0	0	0	0	520	614	
11	0	0	0	0	518	615	
12	0	0	0	0	519	615	
13	0	0	0	0	519	615	
14	0	0	0	0	518	615	
15	0	0	0	0	519	615	
0	0	0	0	0	519	615	
1	0	0	0	0	519	616	
2	0	0	0	0	520	615	
3	0	0	0	0	521	616	
4	0	0	0	0	520	615	
5	0	0	0	0	520	615	
6	0	0	0	0	520	616	
7	0	0	0	0	519	616	
8	0	0	0	0	519	616	
9	0	0	0	0	519	617	
10	0	0	0	0	519	616	
11	0	0	0	0	520	617	
12	0	0	0	0	521	617	
13	0	0	0	0	522	617	
14	0	0	0	0	523	616	
15	0	0	0	0	522	617	
0	0	0	0	0	524	616	
1	0	0	0	0	524	616	
2	0	0	0	0	523	617	
3	0	0	0	0	524	617	
4	0	0	0	0	524	617	
5	0	0	0	0	525	617	
6	0	0	0	0	525	617	
7	0	0	0	0	526	617	
8	0	0	0	0	525	617	
9	0	0	0	0	526	617	
10	0	0	0	0	525	617	
11	0	0	0	0	525	618	
12	0	0	0	0	525	617	
13	0	0	0	0	525	618	
14	0	0	0	0	524	617	
15	0	0	0	0	523	618	
0	0	0	0	0	523	617	
1	0	0	0	0	523	618	
2	0	0	0	0	523	618	
3	0	0	0	0	522	618	
4	0	0	0	0	522	618	
5	0	0	0	0	522	619	
6	0	0	0	0	522	617	
7	0	0	0	0	519	617	
8	0	0	0	0	520	617	
9	0	0	0	0	520	617	
10	0	0	0	0	520	617	
11	0	0	0	0	520	617	
12	0	0	0	0	519	616	
13	0	0	0	0	516	617	
14	0	0	0	0	515	616	
15	0	0	0	0	515	616	
0	0	0	0	0	515	616	
1	0	0	0	0	514	615	
2	0	0	0	0	513	615	
3	0	0	0	0	513	615	
4	0	0	0	0	512	615	
5	0	0	0	0	512	616	
6	0	0	0	0	512	615	
7	0	0	0	0	513	615	
8	0	0	0	0	513	615	
9	0	0	0	0	515	615	
10	0	0	0	0	515	615	
11	0	0	0	0	516	615	
12	0	0	0	0	516	615	
13	0	0	0	0	516	615	
14	0	0	0	0	516	615	
15	0	0	0	0	518	615	
0	0	0	0	0	520	615	
1	0	0	0	0	521	615	
2	0	0	0	0	523	615	
3	0	0	0	0	524	615	
4	0	0	0	0	523	615	
5	0	0	0	0	523	615	
6	0	0	0	0	522	615	
7	0	0	0	0	523	615	
8	0	0	0	0	523	615	
9	0	0	0	0	526	615	
10	0	0	0	0	527	615	
11	0	0	0	0	526	615	
12	0	0	0	0	525	615	
13	0	0	0	0	527	616	
14	0	0	0	0	529	616	
15	0	0	0	0	530	615	
0	0	0	0	0	531	616	
1	0	0	0	0	532	616	
2	0	0	0	0	533	616	
3	0	0	0	0	533	615	
4	0	0	0	0	532	616	
5	0	0	0	0	531	616	
6	0	0	0	0	532	616	
7	0	0	0	0	532	616	
8	0	0	0	0	531	616	
9	0	0	0	0	531	616	
10	0	0	0	0	530	616	
11	0	0	0	0	529	615	
12	0	0	0	0	531	615	
13	0	0	0	0	531	616	
14	0	0	0	0	531	615	
15	0	0	0	0	531	615	
0	0	0	0	0	531	615	
1	0	0	0	0	532	615	
2	0	0	0	0	532	615	
3	0	0	0	0	532	615	
4	0	0	0	0	532	615	
5	0	0	0	0	534	616	
6	0	0	0	0	534	615	
7	0	0	0	0	534	615	
8	0	0	0	0	534	615	
9	0	0	0	0	533	615	
10	0	0	0	0	532	615	
11	0	0	0	0	533	615	
12	0	0	0	0	533	615	
13	0	0	0	0	533	616	
14	0	0	0	0	534	616	
15	0	0	0	0	533	616	
0	0	0	0	0	533	616	
1	0	0	0	0	533	616	
2	0	0	0	0	533	616	
3	0	0	0	0	532	615	
4	0	0	0	0	532	616	
5	0	0	0	0	530	616	
6	0	0	0	0	529	616	
7	0	0	0	0	529	616	
8	0	0	0	0	531	616	
9	0	0	0	0	532	616	
10	0	0	0	0	532	617	
11	0	0	0	0	533	617	
12	0	0	0	0	531	617	
13	0	0	0	0	530	616	
14	0	0	0	0	530	616	
15	0	0	0	0	530	617	
0	0	0	0	0	528	617	
1	0	0	0	0	528	618	
2	0	0	0	0	529	617	
3	0	0	0	0	527	617	
4	0	0	0	0	524	617	
5	0	0	0	0	523	617	
6	0	0	0	0	523	617	
7	0	0	0	0	524	617	
8	0	0	0	0	524	618	
9	0	0	0	0	524	618	
10	0	0	0	0	526	617	
11	0	0	0	0	527	617	
12	0	0	0	0	528	617	
13	0	0	0	0	528	618	
14	0	0	0	0	528	617	
15	0	0	0	0	527	617	
0	0	0	0	0	527	617	
1	0	0	0	0	527	617	
2	0	0	0	0	526	617	
3	0	0	0	0	526	617	
4	0	0	0	0	526	616	
5	0	0	0	0	526	616	
6	0	0	0	0	526	617	
7	0	0	0	0	525	617	
8	0	0	0	0	524	617	
9	0	0	0	0	525	616	
10	0	0	0	0	524	616	
11	0	0	0	0	524	616	
12	0	0	0	0	524	616	
13	0	0	0	0	525	617	
14	0	0	0	0	526	616	
15	0	0	0	0	526	615	
0	0	0	0	0	527	616	
1	0	0	0	0	529	615	
2	0	0	0	0	529	616	
3	0	0	0	0	531	616	
4	0	0	0	0	532	615	
5	0	0	0	0	532	615	
6	0	0	0	0	534	615	
7	0	0	0	0	533	615	
8	0	0	0	0	532	616	
9	0	0	0	0	533	615	
10	0	0	0	0	534	615	
11	0	0	0	0	534	615	
12	0	0	0	0	534	615	
13	0	0	0	0	534	615	
14	0	0	0	0	534	614	
15	0	0	0	0	534	615	
0	0	0	0	0	534	615	
1	0	0	0	0	535	614	
2	0	0	0	0	534	615	
3	0	0	0	0	535	615	
4	0	0	0	0	534	615	
5	0	0	0	0	534	615	
6	0	0	0	0	535	615	
7	0	0	0	0	535	615	
8	0	0	0	0	536	615	
9	0	0	0	0	535	615	
10	0	0	0	0	534	615	
11	0	0	0	0	534	616	
12	0	0	0	0	531	615	
13	0	0	0	0	531	617	
14	0	0	0	0	529	616	
15	0	0	0	0	528	617	
0	0	0	0	0	529	617	
1	0	0	0	0	530	617	
2	0	0	0	0	529	618	
3	0	0	0	0	529	617	
4	0	0	0	0	530	617	
5	0	0	0	0	530	617	
6	0	0	0	0	529	617	
7	0	0	0	0	529	617	
8	0	0	0	0	530	617	
9	0	0	0	0	530	617	
10	0	0	0	0	530	617	
11	0	0	0	0	530	617	
12	0	0	0	0	530	617	
13	0	0	0	0	529	617	
14	0	0	0	0	531	617	
15	0	0	0	0	531	617	
0	0	0	0	0	531	617	
1	0	0	0	0	532	616	
2	0	0	0	0	531	616	
3	0	0	0	0	530	616	
4	0	0	0	0	530	616	
5	0	0	0	0	530	616	
6	0	0	0	0	531	615	
7	0	0	0	0	530	616	
8	0	0	0	0	530	616	
9	0	0	0	0	531	615	
10	0	0	0	0	530	615	
11	0	0	0	0	529	615	
12	0	0	0	0	529	615	
13	0	0	0	0	530	615	
14	0	0	0	0	530	615	
15	0	0	0	0	530	615	
0	0	0	0	0	530	615	
1	0	0	0	0	529	615	
2	0	0	0	0	528	615	
3	0	0	0	0	528	615	
4	0	0	0	0	526	615	
5	0	0	0	0	525	615	
6	0	0	0	0	524	616	
7	0	0	0	0	524	616	
8	0	0	0	0	523	616	
9	0	0	0	0	522	616	
10	0	0	0	0	522	616	
11	0	0	0	0	524	616	
12	0	0	0	0	524	616	
13	0	0	0	0	525	616	
14	0	0	0	0	525	616	
15	0	0	0	0	524	616	
0	0	0	0	0	523	616	
1	0	0	0	0	523	616	
2	0	0	0	0	524	616	
3	0	0	0	0	524	616	
4	0	0	0	0	523	616	
5	0	0	0	0	523	616	
6	0	0	0	0	522	616	
7	0	0	0	0	523	616	
8	0	0	0	0	524	616	
9	0	0	0	0	525	616	
10	0	0	0	0	526	616	
11	0	0	0	0	527	616	
12	0	0	0	0	527	616	
13	0	0	0	0	527	616	
14	0	0	0	0	528	616	
15	0	0	0	0	529	615	
0	0	0	0	0	529	616	
1	0	0	0	0	527	615	
2	0	0	0	0	526	615	
3	0	0	0	0	524	615	
4	0	0	0	0	523	615	
5	0	0	0	0	523	616	
6	0	0	0	0	524	615	
7	0	0	0	0	523	615	
8	0	0	0	0	520	615	
9	0	0	0	0	520	614	
10	0	0	0	0	520	615	
11	0	0	0	0	520	615	
12	0	0	0	0	521	615	
13	0	0	0	0	523	615	
14	0	0	0	0	522	615	
15	0	0	0	0	520	615	
0	0	0	0	0	521	616	
1	0	0	0	0	519	616	
2	0	0	0	0	519	616	
3	0	0	0	0	518	616	
4	0	0	0	0	518	616	
5	0	0	0	0	518	617	
6	0	0	0	0	518	616	
7	0	0	0	0	518	616	
8	0	0	0	0	518	616	
9	0	0	0	0	518	617	
10	0	0	0	0	516	617	
11	0	0	0	0	516	617	
12	0	0	0	0	516	617	
13	0	0	0	0	517	617	
14	0	0	0	0	517	617	
15	0	0	0	0	518	617	
0	0	0	0	0	518	617	
1	0	0	0	0	517	617	
2	0	0	0	0	515	617	
3	0	0	0	0	515	618	
4	0	0	0	0	516	617	
5	0	0	0	0	518	617	
6	0	0	0	0	518	617	
7	0	0	0	0	518	617	
8	0	0	0	0	519	617	
9	0	0	0	0	519	617	
10	0	0	0	0	519	617	
11	0	0	0	0	520	617	
12	0	0	0	0	520	617	
13	0	0	0	0	519	617	
14	0	0	0	0	519	617	
15	0	0	0	0	519	617	
0	0	0	0	0	518	617	
1	0	0	0	0	517	616	
2	0	0	0	0	518	616	
3	0	0	0	0	518	617	
4	0	0	0	0	517	617	
5	0	0	0	0	517	617	
6	0	0	0	0	517	616	
7	0	0	0	0	517	616	
8	0	0	0	0	516	617	
9	0	0	0	0	515	616	
10	0	0	0	0	514	617	
11	0	0	0	0	513	617	
12	0	0	0	0	512	617	
13	0	0	0	0	512	618	
14	0	0	0	0	511	617	
15	0	0	0	0	511	617	
0	0	0	0	0	511	617	
1	0	0	0	0	511	617	
2	0	0	0	0	512	617	
3	0	0	0	0	513	617	
4	0	0	0	0	514	617	
5	0	0	0	0	514	617	
6	0	0	0	0	516	617	
7	0	0	0	0	515	617	
8	0	0	0	0	516	616	
9	0	0	0	0	515	616	
10	0	0	0	0	514	617	
11	0	0	0	0	513	616	
12	0	0	0	0	513	616	
13	0	0	0	0	515	617	
14	0	0	0	0	516	616	
15	0	0	0	0	517	616	
0	0	0	0	0	519	616	
1	0	0	0	0	518	617	
2	0	0	0	0	518	616	
3	0	0	0	0	517	616	
4	0	0	0	0	517	616	
5	0	0	0	0	517	616	
6	0	0	0	0	516	616	
7	0	0	0	0	516	616	
8	0	0	0	0	517	616	
9	0	0	0	0	518	615	
10	0	0	0	0	519	616	
11	0	0	0	0	519	615	
12	0	0	0	0	519	615	
13	0	0	0	0	520	615	
14	0	0	0	0	519	615	
15	0	0	0	0	518	615	
0	0	0	0	0	517	615	
1	0	0	0	0	517	614	
2	0	0	0	0	518	615	
3	0	0	0	0	518	615	
4	0	0	0	0	518	615	
5	0	0	0	0	516	615	
6	0	0	0	0	514	615	
7	0	0	0	0	513	615	
8	0	0	0	0	511	615	
9	0	0	0	0	512	615	
10	0	0	0	0	512	615	
11	0	0	0	0	513	615	
12	0	0	0	0	514	615	
13	0	0	0	0	514	615	
14	0	0	0	0	513	615	
15	0	0	0	0	513	615	
0	0	0	0	0	513	615	
1	0	0	0	0	512	615	
2	0	0	0	0	512	615	
3	0	0	0	0	513	616	
4	0	0	0	0	512	615	
5	0	0	0	0	512	616	
6	0	0	0	0	512	616	
7	0	0	0	0	512	616	
8	0	0	0	0	512	616	
9	0	0	0	0	512	616	
10	0	0	0	0	512	616	
11	0	0	0	0	512	616	
12	0	0	0	0	512	616	
13	0	0	0	0	512	617	
14	0	0	0	0	511	616	
15	0	0	0	0	510	617	
0	0	0	0	0	509	616	
1	0	0	0	0	508	616	
2	0	0	0	0	507	616	
3	0	0	0	0	508	617	
4	0	0	0	0	508	616	
5	0	0	0	0	508	616	
6	0	0	0	0	507	616	
7	0	0	0	0	508	616	
8	0	0	0	0	509	616	
9	0	0	0	0	509	616	
10	0	0	0	0	508	616	
11	0	0	0	0	509	615	
12	0	0	0	0	510	616	
13	0	0	0	0	511	616	
14	0	0	0	0	512	616	
15	0	0	0	0	512	616	
0	0	0	0	0	511	616	
1	0	0	0	0	511	616	
2	0	0	0	0	511	616	
3	0	0	0	0	512	615	
4	0	0	0	0	511	616	
5	0	0	0	0	512	616	
6	0	0	0	0	513	616	
7	0	0	0	0	512	615	
8	0	0	0	0	511	615	
9	0	0	0	0	509	616	
10	0	0	0	0	509	616	
11	0	0	0	0	508	616	
12	0	0	0	0	510	616	
13	0	0	0	0	510	616	
14	0	0	0	0	512	616	
15	0	0	0	0	513	616	
0	0	0	0	0	515	616	
1	0	0	0	0	514	616	
2	0	0	0	0	515	616	
3	0	0	0	0	515	616	
4	0	0	0	0	515	616	
5	0	0	0	0	515	616	
6	0	0	0	0	515	616	
7	0	0	0	0	516	616	
8	0	0	0	0	515	616	
9	0	0	0	0	514	617	
10	0	0	0	0	513	616	
11	0	0	0	0	512	616	
12	0	0	0	0	511	617	
13	0	0	0	0	513	617	
14	0	0	0	0	515	617	
15	0	0	0	0	516	617	
0	0	0	0	0	518	617	
1	0	0	0	0	518	617	
2	0	0	0	0	518	617	
3	0	0	0	0	518	617	
4	0	0	0	0	518	618	
5	0	0	0	0	516	619	
6	0	0	0	0	516	617	
7	0	0	0	0	515	617	
8	0	0	0	0	515	618	
9	0	0	0	0	516	617	
10	0	0	0	0	516	618	
11	0	0	0	0	515	617	
12	0	0	0	0	515	617	
13	0	0	0	0	515	618	
14	0	0	0	0	513	617	
15	0	0	0	0	512	617	
0	0	0	0	0	512	617	
1	0	0	0	0	514	617	
2	0	0	0	0	515	617	
3	0	0	0	0	516	616	
4	0	0	0	0	516	616	
5	0	0	0	0	517	617	
6	0	0	0	0	517	617	
7	0	0	0	0	517	616	
8	0	0	0	0	517	616	
9	0	0	0	0	517	616	
10	0	0	0	0	517	616	
11	0	0	0	0	518	615	
12	0	0	0	0	518	615	
13	0	0	0	0	519	615	
14	0	0	0	0	519	615	
15	0	0	0	0	518	615	
0	0	0	0	0	518	615	
1	0	0	0	0	518	615	
2	0	0	0	0	517	615	
3	0	0	0	0	516	615	
4	0	0	0	0	516	615	
5	0	0	0	0	514	615	
6	0	0	0	0	513	615	
7	0	0	0	0	515	615	
8	0	0	0	0	516	615	
9	0	0	0	0	517	615	
10	0	0	0	0	517	615	
11	0	0	0	0	517	615	
12	0	0	0	0	516	615	
13	0	0	0	0	516	615	
14	0	0	0	0	516	615	
15	0	0	0	0	516	615	
0	0	0	0	0	517	615	
1	0	0	0	0	518	615	
2	0	0	0	0	519	615	
3	0	0	0	0	519	615	
4	0	0	0	0	519	615	
5	0	0	0	0	519	616	
6	0	0	0	0	520	616	
7	0	0	0	0	521	616	
8	0	0	0	0	520	615	
9	0	0	0	0	520	615	
10	0	0	0	0	519	615	
11	0	0	0	0	517	615	
12	0	0	0	0	516	615	
13	0	0	0	0	516	615	
14	0	0	0	0	515	615	
15	0	0	0	0	514	615	
0	0	0	0	0	515	615	
1	0	0	0	0	514	615	
2	0	0	0	0	514	616	
3	0	0	0	0	514	615	
4	0	0	0	0	515	616	
5	0	0	0	0	514	617	
6	0	0	0	0	513	616	
7	0	0	0	0	512	617	
8	0	0	0	0	512	617	
9	0	0	0	0	514	617	
10	0	0	0	0	515	618	
11	0	0	0	0	516	619	
12	0	0	0	0	514	619	
13	0	0	0	0	513	620	
14	0	0	0	0	515	620	
15	0	0	0	0	515	620	
0	0	0	0	0	516	620	
1	0	0	0	0	516	620	
2	0	0	0	0	515	619	
3	0	0	0	0	515	619	
4	0	0	0	0	516	618	
5	0	0	0	0	516	619	
6	0	0	0	0	516	618	
7	0	0	0	0	516	618	
8	0	0	0	0	515	618	
9	0	0	0	0	516	618	
10	0	0	0	0	517	618	
11	0	0	0	0	519	617	
12	0	0	0	0	519	617	
13	0	0	0	0	518	617	
14	0	0	0	0	516	617	
15	0	0	0	0	514	617	
0	0	0	0	0	514	618	
1	0	0	0	0	514	618	
2	0	0	0	0	515	617	
3	0	0	0	0	516	617	
4	0	0	0	0	516	618	
5	0	0	0	0	517	617	
6	0	0	0	0	518	617	
7	0	0	0	0	519	616	
8	0	0	0	0	517	616	
9	0	0	0	0	517	615	
10	0	0	0	0	516	616	
11	0	0	0	0	516	615	
12	0	0	0	0	515	616	
13	0	0	0	0	514	616	
14	0	0	0	0	515	615	
15	0	0	0	0	515	615	
0	0	0	0	0	516	615	
1	0	0	0	0	516	615	
2	0	0	0	0	516	615	
3	0	0	0	0	515	615	
4	0	0	0	0	515	615	
5	0	0	0	0	515	615	
6	0	0	0	0	515	614	
7	0	0	0	0	515	615	
8	0	0	0	0	514	615	
9	0	0	0	0	513	615	
10	0	0	0	0	512	614	
11	0	0	0	0	512	614	
12	0	0	0	0	512	614	
13	0	0	0	0	512	614	
14	0	0	0	0	512	614	
15	0	0	0	0	512	614	
0	0	0	0	0	512	614	
1	0	0	0	0	514	614	
2	0	0	0	0	516	613	
3	0	0	0	0	516	613	
4	0	0	0	0	516	612	
5	0	0	0	0	514	613	
6	0	0	0	0	514	612	
7	0	0	0	0	514	613	
8	0	0	0	0	513	613	
9	0	0	0	0	514	613	
10	0	0	0	0	513	613	
11	0	0	0	0	512	613	
12	0	0	0	0	510	613	
13	0	0	0	0	510	614	
14	0	0	0	0	510	614	
15	0	0	0	0	510	614	
0	0	0	0	0	512	614	
1	0	0	0	0	513	614	
2	0	0	0	0	514	614	
3	0	0	0	0	513	615	
4	0	0	0	0	514	615	
5	0	0	0	0	516	615	
6	0	0	0	0	516	615	
7	0	0	0	0	516	616	
8	0	0	0	0	515	615	
9	0	0	0	0	516	617	
10	0	0	0	0	515	617	
11	0	0	0	0	515	618	
12	0	0	0	0	515	617	
13	0	0	0	0	515	618	
14	0	0	0	0	514	619	
15	0	0	0	0	513	619	
0	0	0	0	0	512	619	
1	0	0	0	0	512	619	
2	0	0	0	0	512	619	
3	0	0	0	0	514	620	
4	0	0	0	0	518	619	
5	0	0	0	0	521	619	
6	0	0	0	0	525	620	
7	0	0	0	0	527	619	
8	0	0	0	0	531	620	
9	0	0	0	0	534	620	
10	0	0	0	0	535	620	
11	0	0	0	0	535	620	
12	0	0	0	0	537	620	
13	0	0	0	0	539	620	
14	0	0	0	0	541	620	
15	0	0	0	0	547	620	
0	0	0	0	0	559	620	
1	0	0	0	0	572	620	
2	0	0	0	0	585	620	
3	0	0	0	0	599	619	
4	0	0	0	0	613	619	
5	0	0	0	0	627	619	
6	0	0	0	0	642	618	
7	0	0	0	0	656	618	
8	0	0	0	0	671	617	
9	0	0	0	0	686	617	
10	0	0	0	0	698	616	
11	0	0	0	0	709	616	
12	0	0	0	0	717	616	
13	0	0	0	0	721	616	
14	0	0	0	0	721	615	
15	0	0	0	0	715	614	
0	0	0	0	0	700	614	
1	0	0	0	0	680	614	
2	0	0	0	0	662	614	
3	0	0	0	0	644	613	
4	0	0	0	0	628	613	
5	0	0	0	0	612	613	
6	0	0	0	0	601	613	
7	0	0	0	0	592	613	
8	0	0	0	0	585	614	
9	0	0	0	0	578	614	
10	0	0	0	0	573	613	
11	0	0	0	0	571	613	
12	0	0	0	0	573	614	
13	0	0	0	0	573	614	
14	0	0	0	0	573	614	
15	0	0	0	0	574	614	
0	0	0	0	0	575	615	
1	0	0	0	0	577	615	
2	0	0	0	0	577	615	
3	0	0	0	0	575	615	
4	0	0	0	0	572	615	
5	0	0	0	0	567	616	
6	0	0	0	0	562	616	
7	0	0	0	0	554	615	
8	0	0	0	0	544	617	
9	0	0	0	0	533	616	
10	0	0	0	0	523	616	
11	0	0	0	0	510	617	
12	0	0	0	0	497	617	
13	0	0	0	0	488	618	
14	0	0	0	0	479	617	
15	0	0	0	0	472	617	
0	0	0	0	0	465	618	
1	0	0	0	0	459	618	
2	0	0	0	0	453	618	
3	0	0	0	0	450	618	
4	0	0	0	0	446	618	
5	0	0	0	0	443	619	
6	0	0	0	0	441	618	
7	0	0	0	0	441	619	
8	0	0	0	0	439	619	
9	0	0	0	0	438	619	
10	0	0	0	0	439	619	
11	0	0	0	0	440	618	
12	0	0	0	0	441	618	
13	0	0	0	0	441	619	
14	0	0	0	0	441	618	
15	0	0	0	0	442	618	
0	0	0	0	0	443	618	
1	0	0	0	0	442	618	
2	0	0	0	0	443	617	
3	0	0	0	0	443	617	
4	0	0	0	0	445	617	
5	0	0	0	0	447	617	
6	0	0	0	0	449	616	
7	0	0	0	0	450	616	
8	0	0	0	0	451	616	
9	0	0	0	0	452	616	
10	0	0	0	0	454	615	
11	0	0	0	0	453	615	
12	0	0	0	0	451	614	
13	0	0	0	0	451	615	
14	0	0	0	0	453	614	
15	0	0	0	0	453	614	
0	0	0	0	0	454	614	
1	0	0	0	0	453	615	
2	0	0	0	0	454	614	
3	0	0	0	0	455	614	
4	0	0	0	0	455	614	
5	0	0	0	0	457	614	
6	0	0	0	0	458	614	
7	0	0	0	0	460	615	
8	0	0	0	0	462	615	
9	0	0	0	0	465	615	
10	0	0	0	0	467	615	
11	0	0	0	0	468	615	
12	0	0	0	0	469	615	
13	0	0	0	0	470	616	
14	0	0	0	0	471	615	
15	0	0	0	0	471	615	
0	0	0	0	0	472	615	
1	0	0	0	0	472	615	
2	0	0	0	0	472	616	
3	0	0	0	0	471	615	
4	0	0	0	0	471	615	
5	0	0	0	0	473	616	
6	0	0	0	0	473	616	
7	0	0	0	0	473	616	
8	0	0	0	0	474	616	
9	0	0	0	0	476	616	
10	0	0	0	0	477	616	
11	0	0	0	0	478	617	
12	0	0	0	0	478	616	
13	0	0	0	0	479	617	
14	0	0	0	0	478	616	
15	0	0	0	0	476	616	
0	0	0	0	0	476	616	
1	0	0	0	0	476	617	
2	0	0	0	0	475	617	
3	0	0	0	0	473	617	
4	0	0	0	0	472	616	
5	0	0	0	0	471	616	
6	0	0	0	0	469	617	
7	0	0	0	0	468	617	
8	0	0	0	0	468	616	
9	0	0	0	0	468	616	
10	0	0	0	0	467	616	
11	0	0	0	0	469	616	
12	0	0	0	0	470	617	
13	0	0	0	0	470	617	
14	0	0	0	0	470	616	
15	0	0	0	0	470	617	
0	0	0	0	0	470	617	
1	0	0	0	0	470	617	
2	0	0	0	0	471	617	
3	0	0	0	0	473	617	
4	0	0	0	0	473	617	
5	0	0	0	0	475	617	
6	0	0	0	0	478	617	
7	0	0	0	0	479	617	
8	0	0	0	0	481	617	
9	0	0	0	0	483	617	
10	0	0	0	0	484	617	
11	0	0	0	0	484	616	
12	0	0	0	0	485	617	
13	0	0	0	0	484	617	
14	0	0	0	0	483	616	
15	0	0	0	0	481	616	
0	0	0	0	0	481	616	
1	0	0	0	0	483	615	
2	0	0	0	0	484	616	
3	0	0	0	0	485	616	
4	0	0	0	0	485	616	
5	0	0	0	0	485	616	
6	0	0	0	0	485	615	
7	0	0	0	0	485	615	
8	0	0	0	0	487	615	
9	0	0	0	0	487	615	
10	0	0	0	0	487	615	
11	0	0	0	0	487	615	
12	0	0	0	0	487	615	
13	0	0	0	0	487	615	
14	0	0	0	0	489	614	
15	0	0	0	0	488	614	
0	0	0	0	0	489	614	
1	0	0	0	0	490	614	
2	0	0	0	0	489	615	
3	0	0	0	0	488	614	
4	0	0	0	0	488	614	
5	0	0	0	0	487	614	
6	0	0	0	0	487	615	
7	0	0	0	0	487	614	
8	0	0	0	0	489	614	
9	0	0	0	0	489	614	
10	0	0	0	0	489	614	
11	0	0	0	0	488	615	
12	0	0	0	0	488	615	
13	0	0	0	0	490	615	
14	0	0	0	0	489	615	
15	0	0	0	0	488	615	
0	0	0	0	0	487	615	
1	0	0	0	0	487	615	
2	0	0	0	0	486	616	
3	0	0	0	0	485	615	
4	0	0	0	0	484	617	
5	0	0	0	0	482	617	
6	0	0	0	0	482	617	
7	0	0	0	0	482	618	
8	0	0	0	0	481	618	
9	0	0	0	0	481	618	
10	0	0	0	0	480	618	
11	0	0	0	0	480	619	
12	0	0	0	0	478	620	
13	0	0	0	0	478	620	
14	0	0	0	0	479	620	
15	0	0	0	0	478	620	
0	0	0	0	0	478	620	
1	0	0	0	0	479	620	
2	0	0	0	0	479	620	
3	0	0	0	0	480	620	
4	0	0	0	0	480	620	
5	0	0	0	0	480	621	
6	0	0	0	0	481	620	
7	0	0	0	0	481	620	
8	0	0	0	0	480	620	
9	0	0	0	0	479	619	
10	0	0	0	0	479	620	
11	0	0	0	0	479	620	
12	0	0	0	0	478	619	
13	0	0	0	0	478	619	
14	0	0	0	0	478	618	
15	0	0	0	0	480	618	
0	0	0	0	0	480	618	
1	0	0	0	0	480	617	
2	0	0	0	0	480	617	
3	0	0	0	0	478	616	
4	0	0	0	0	476	616	
5	0	0	0	0	477	617	
6	0	0	0	0	476	616	
7	0	0	0	0	476	616	
8	0	0	0	0	477	616	
9	0	0	0	0	478	615	
10	0	0	0	0	478	615	
11	0	0	0	0	478	615	
12	0	0	0	0	478	615	
13	0	0	0	0	477	615	
14	0	0	0	0	477	615	
15	0	0	0	0	477	615	
0	0	0	0	0	477	614	
1	0	0	0	0	477	614	
2	0	0	0	0	477	614	
3	0	0	0	0	477	614	
4	0	0	0	0	479	614	
5	0	0	0	0	480	614	
6	0	0	0	0	481	614	
7	0	0	0	0	481	614	
8	0	0	0	0	482	614	
9	0	0	0	0	483	614	
10	0	0	0	0	484	614	
11	0	0	0	0	486	614	
12	0	0	0	0	487	614	
13	0	0	0	0	487	615	
14	0	0	0	0	487	615	
15	0	0	0	0	487	614	
0	0	0	0	0	488	615	
1	0	0	0	0	488	615	
2	0	0	0	0	489	615	
3	0	0	0	0	490	615	
4	0	0	0	0	492	616	
5	0	0	0	0	494	615	
6	0	0	0	0	495	616	
7	0	0	0	0	495	616	
8	0	0	0	0	496	616	
9	0	0	0	0	495	616	
10	0	0	0	0	495	616	
11	0	0	0	0	495	616	
12	0	0	0	0	495	617	
13	0	0	0	0	496	617	
14	0	0	0	0	497	617	
15	0	0	0	0	497	617	
0	0	0	0	0	499	617	
1	0	0	0	0	499	616	
2	0	0	0	0	501	617	
3	0	0	0	0	501	616	
4	0	0	0	0	500	617	
5	0	0	0	0	501	617	
6	0	0	0	0	500	616	
7	0	0	0	0	500	616	
8	0	0	0	0	500	617	
9	0	0	0	0	501	617	
10	0	0	0	0	500	616	
11	0	0	0	0	500	616	
12	0	0	0	0	502	616	
13	0	0	0	0	503	616	
14	0	0	0	0	505	616	
15	0	0	0	0	505	616	
0	0	0	0	0	505	616	
1	0	0	0	0	505	616	
2	0	0	0	0	506	616	
3	0	0	0	0	507	616	
4	0	0	0	0	508	616	
5	0	0	0	0	507	616	
6	0	0	0	0	509	616	
7	0	0	0	0	509	615	
8	0	0	0	0	509	615	
9	0	0	0	0	508	616	
10	0	0	0	0	509	615	
11	0	0	0	0	510	615	
12	0	0	0	0	509	616	
13	0	0	0	0	507	616	
14	0	0	0	0	506	616	
15	0	0	0	0	505	616	
0	0	0	0	0	507	616	
1	0	0	0	0	508	616	
2	0	0	0	0	510	615	
3	0	0	0	0	512	615	
4	0	0	0	0	513	615	
5	0	0	0	0	514	616	
6	0	0	0	0	516	616	
7	0	0	0	0	517	617	
8	0	0	0	0	519	616	
9	0	0	0	0	519	616	
10	0	0	0	0	519	617	
11	0	0	0	0	520	616	
12	0	0	0	0	522	617	
13	0	0	0	0	523	617	
14	0	0	0	0	524	617	
15	0	0	0	0	525	617	
0	0	0	0	0	526	617	
1	0	0	0	0	527	617	
2	0	0	0	0	528	617	
3	0	0	0	0	529	617	
4	0	0	0	0	532	617	
5	0	0	0	0	534	618	
6	0	0	0	0	535	617	
7	0	0	0	0	535	617	
8	0	0	0	0	534	617	
9	0	0	0	0	535	617	
10	0	0	0	0	536	617	
11	0	0	0	0	536	617	
12	0	0	0	0	535	618	
13	0	0	0	0	536	618	
14	0	0	0	0	537	617	
15	0	0	0	0	537	617	
0	0	0	0	0	536	618	
1	0	0	0	0	537	616	
2	0	0	0	0	537	617	
3	0	0	0	0	539	618	
4	0	0	0	0	537	618	
5	0	0	0	0	538	618	
6	0	0	0	0	539	617	
7	0	0	0	0	540	617	
8	0	0	0	0	541	618	
9	0	0	0	0	542	617	
10	0	0	0	0	542	617	
11	0	0	0	0	542	617	
12	0	0	0	0	543	618	
13	0	0	0	0	543	617	
14	0	0	0	0	544	617	
15	0	0	0	0	547	617	
0	0	0	0	0	548	617	
1	0	0	0	0	547	617	
2	0	0	0	0	547	616	
3	0	0	0	0	550	617	
4	0	0	0	0	551	618	
5	0	0	0	0	552	617	
6	0	0	0	0	552	616	
7	0	0	0	0	552	616	
8	0	0	0	0	552	616	
9	0	0	0	0	553	616	
10	0	0	0	0	553	615	
11	0	0	0	0	553	615	
12	0	0	0	0	554	615	
13	0	0	0	0	556	615	
14	0	0	0	0	557	615	
15	0	0	0	0	558	615	
0	0	0	0	0	559	615	
1	0	0	0	0	560	615	
2	0	0	0	0	561	615	
3	0	0	0	0	561	615	
4	0	0	0	0	560	615	
5	0	0	0	0	559	615	
6	0	0	0	0	557	615	
7	0	0	0	0	556	615	
8	0	0	0	0	554	615	
9	0	0	0	0	552	615	
10	0	0	0	0	552	615	
11	0	0	0	0	551	615	
12	0	0	0	0	551	615	
13	0	0	0	0	550	615	
14	0	0	0	0	551	615	
15	0	0	0	0	552	615	
0	0	0	0	0	552	615	
1	0	0	0	0	552	615	
2	0	0	0	0	552	615	
3	0	0	0	0	553	615	
4	0	0	0	0	552	615	
5	0	0	0	0	551	616	
6	0	0	0	0	551	616	
7	0	0	0	0	551	616	
8	0	0	0	0	552	616	
9	0	0	0	0	553	615	
10	0	0	0	0	553	616	
11	0	0	0	0	552	616	
12	0	0	0	0	551	616	
13	0	0	0	0	549	618	
14	0	0	0	0	546	617	
15	0	0	0	0	546	617	
0	0	0	0	0	545	617	
1	0	0	0	0	544	617	
2	0	0	0	0	544	617	
3	0	0	0	0	545	616	
4	0	0	0	0	545	615	
5	0	0	0	0	545	615	
6	0	0	0	0	545	615	
7	0	0	0	0	545	614	
8	0	0	0	0	543	615	
9	0	0	0	0	543	615	
10	0	0	0	0	542	615	
11	0	0	0	0	542	616	
12	0	0	0	0	542	616	
13	0	0	0	0	541	616	
14	0	0	0	0	540	616	
15	0	0	0	0	540	616	
0	0	0	0	0	541	616	
1	0	0	0	0	539	616	
2	0	0	0	0	537	616	
3	0	0	0	0	536	616	
4	0	0	0	0	536	617	
5	0	0	0	0	536	617	
6	0	0	0	0	536	616	
7	0	0	0	0	537	617	
8	0	0	0	0	536	617	
9	0	0	0	0	535	618	
10	0	0	0	0	532	617	
11	0	0	0	0	531	618	
12	0	0	0	0	530	619	
13	0	0	0	0	531	619	
14	0	0	0	0	531	619	
15	0	0	0	0	528	619	
0	0	0	0	0	527	619	
1	0	0	0	0	527	619	
2	0	0	0	0	525	619	
3	0	0	0	0	524	619	
4	0	0	0	0	524	619	
5	0	0	0	0	522	619	
6	0	0	0	0	521	619	
7	0	0	0	0	521	619	
8	0	0	0	0	520	619	
9	0	0	0	0	518	619	
10	0	0	0	0	516	619	
11	0	0	0	0	516	619	
12	0	0	0	0	516	619	
13	0	0	0	0	516	619	
14	0	0	0	0	516	619	
15	0	0	0	0	515	618	
0	0	0	0	0	516	618	
1	0	0	0	0	516	618	
2	0	0	0	0	516	618	
3	0	0	0	0	517	618	
4	0	0	0	0	518	617	
5	0	0	0	0	518	617	
6	0	0	0	0	519	617	
7	0	0	0	0	522	616	
8	0	0	0	0	521	615	
9	0	0	0	0	521	615	
10	0	0	0	0	520	615	
11	0	0	0	0	519	615	
12	0	0	0	0	521	615	
13	0	0	0	0	522	614	
14	0	0	0	0	523	614	
15	0	0	0	0	523	613	
0	0	0	0	0	522	614	
1	0	0	0	0	524	613	
2	0	0	0	0	524	613	
3	0	0	0	0	524	613	
4	0	0	0	0	524	612	
5	0	0	0	0	526	613	
6	0	0	0	0	526	612	
7	0	0	0	0	527	613	
8	0	0	0	0	527	612	
9	0	0	0	0	526	612	
10	0	0	0	0	525	613	
11	0	0	0	0	524	612	
12	0	0	0	0	523	613	
13	0	0	0	0	522	613	
14	0	0	0	0	523	613	
15	0	0	0	0	524	613	
0	0	0	0	0	524	612	
1	0	0	0	0	524	613	
2	0	0	0	0	524	613	
3	0	0	0	0	523	614	
4	0	0	0	0	521	615	
5	0	0	0	0	520	615	
6	0	0	0	0	520	615	
7	0	0	0	0	521	615	
8	0	0	0	0	522	615	
9	0	0	0	0	522	615	
10	0	0	0	0	522	615	
11	0	0	0	0	523	615	
12	0	0	0	0	523	616	
13	0	0	0	0	521	617	
14	0	0	0	0	521	617	
15	0	0	0	0	519	618	
0	0	0	0	0	518	618	
1	0	0	0	0	519	618	
2	0	0	0	0	518	619	
3	0	0	0	0	519	619	
4	0	0	0	0	518	619	
5	0	0	0	0	518	620	
6	0	0	0	0	518	620	
7	0	0	0	0	518	620	
8	0	0	0	0	517	620	
9	0	0	0	0	515	619	
10	0	0	0	0	514	619	
11	0	0	0	0	515	619	
12	0	0	0	0	516	619	
13	0	0	0	0	517	619	
14	0	0	0	0	518	619	
15	0	0	0	0	517	617	
0	0	0	0	0	516	617	
1	0	0	0	0	516	617	
2	0	0	0	0	515	617	
3	0	0	0	0	514	617	
4	0	0	0	0	511	617	
5	0	0	0	0	511	617	
6	0	0	0	0	510	616	
7	0	0	0	0	511	617	
8	0	0	0	0	510	617	
9	0	0	0	0	511	617	
10	0	0	0	0	512	617	
11	0	0	0	0	512	616	
12	0	0	0	0	512	617	
13	0	0	0	0	510	617	
14	0	0	0	0	509	616	
15	0	0	0	0	510	616	
0	0	0	0	0	510	616	
1	0	0	0	0	511	616	
2	0	0	0	0	511	616	
3	0	0	0	0	512	615	
4	0	0	0	0	513	616	
5	0	0	0	0	513	616	
6	0	0	0	0	513	615	
7	0	0	0	0	512	615	
8	0	0	0	0	512	615	
9	0	0	0	0	512	615	
10	0	0	0	0	511	615	
11	0	0	0	0	510	615	
12	0	0	0	0	510	615	
13	0	0	0	0	510	615	
14	0	0	0	0	511	615	
15	0	0	0	0	511	615	
0	0	0	0	0	512	615	
1	0	0	0	0	511	615	
2	0	0	0	0	512	615	
3	0	0	0	0	513	615	
4	0	0	0	0	514	615	
5	0	0	0	0	515	615	
6	0	0	0	0	515	614	
7	0	0	0	0	515	615	
8	0	0	0	0	516	615	
9	0	0	0	0	515	614	
10	0	0	0	0	515	615	
11	0	0	0	0	515	614	
12	0	0	0	0	514	614	
13	0	0	0	0	513	615	
14	0	0	0	0	512	615	
15	0	0	0	0	512	615	
0	0	0	0	0	512	614	
1	0	0	0	0	512	615	
2	0	0	0	0	510	615	
3	0	0	0	0	510	615	
4	0	0	0	0	509	615	
5	0	0	0	0	511	615	
6	0	0	0	0	512	615	
7	0	0	0	0	512	615	
8	0	0	0	0	512	615	
9	0	0	0	0	512	615	
10	0	0	0	0	512	616	
11	0	0	0	0	512	616	
12	0	0	0	0	512	616	
13	0	0	0	0	513	617	
14	0	0	0	0	514	616	
15	0	0	0	0	514	617	
0	0	0	0	0	515	617	
1	0	0	0	0	515	617	
2	0	0	0	0	514	618	
3	0	0	0	0	515	618	
4	0	0	0	0	515	617	
5	0	0	0	0	515	618	
6	0	0	0	0	515	617	
7	0	0	0	0	515	617	
8	0	0	0	0	513	618	
9	0	0	0	0	513	618	
10	0	0	0	0	512	618	
11	0	0	0	0	513	619	
12	0	0	0	0	514	618	
13	0	0	0	0	515	618	
14	0	0	0	0	514	618	
15	0	0	0	0	514	618	
0	0	0	0	0	513	618	
1	0	0	0	0	512	617	
2	0	0	0	0	511	617	
3	0	0	0	0	510	617	
4	0	0	0	0	508	617	
5	0	0	0	0	506	617	
6	0	0	0	0	504	617	
7	0	0	0	0	503	616	
8	0	0	0	0	502	616	
9	0	0	0	0	502	617	
10	0	0	0	0	502	616	
11	0	0	0	0	502	616	
12	0	0	0	0	502	616	
13	0	0	0	0	502	616	
14	0	0	0	0	503	615	
15	0	0	0	0	505	616	
0	0	0	0	0	504	616	
1	0	0	0	0	504	616	
2	0	0	0	0	502	616	
3	0	0	0	0	500	616	
4	0	0	0	0	500	616	
5	0	0	0	0	502	616	
6	0	0	0	0	502	616	
7	0	0	0	0	502	616	
8	0	0	0	0	501	616	
9	0	0	0	0	500	616	
10	0	0	0	0	500	616	
11	0	0	0	0	499	616	
12	0	0	0	0	497	616	
13	0	0	0	0	497	616	
14	0	0	0	0	496	616	
15	0	0	0	0	496	616	
0	0	0	0	0	497	616	
1	0	0	0	0	497	616	
2	0	0	0	0	497	616	
3	0	0	0	0	498	616	
4	0	0	0	0	498	616	
5	0	0	0	0	499	616	
6	0	0	0	0	499	616	
7	0	0	0	0	498	616	
8	0	0	0	0	497	616	
9	0	0	0	0	498	616	
10	0	0	0	0	499	617	
11	0	0	0	0	498	617	
12	0	0	0	0	498	616	
13	0	0	0	0	498	617	
14	0	0	0	0	496	616	
15	0	0	0	0	496	617	
0	0	0	0	0	496	616	
1	0	0	0	0	496	616	
2	0	0	0	0	496	616	
3	0	0	0	0	495	616	
4	0	0	0	0	494	616	
5	0	0	0	0	494	617	
6	0	0	0	0	495	617	
7	0	0	0	0	496	617	
8	0	0	0	0	496	617	
9	0	0	0	0	496	617	
10	0	0	0	0	496	617	
11	0	0	0	0	497	617	
12	0	0	0	0	496	617	
13	0	0	0	0	496	617	
14	0	0	0	0	496	617	
15	0	0	0	0	495	617	
0	0	0	0	0	494	617	
1	0	0	0	0	492	617	
2	0	0	0	0	491	617	
3	0	0	0	0	491	617	
4	0	0	0	0	491	617	
5	0	0	0	0	490	617	
6	0	0	0	0	487	617	
7	0	0	0	0	486	617	
8	0	0	0	0	487	617	
9	0	0	0	0	488	616	
10	0	0	0	0	488	617	
11	0	0	0	0	487	617	
12	0	0	0	0	487	616	
13	0	0	0	0	487	617	
14	0	0	0	0	488	616	
15	0	0	0	0	488	616	
0	0	0	0	0	488	616	
1	0	0	0	0	487	616	
2	0	0	0	0	485	616	
3	0	0	0	0	484	616	
4	0	0	0	0	484	616	
5	0	0	0	0	484	616	
6	0	0	0	0	484	616	
7	0	0	0	0	483	616	
8	0	0	0	0	483	616	
9	0	0	0	0	483	615	
10	0	0	0	0	483	615	
11	0	0	0	0	482	615	
12	0	0	0	0	481	616	
13	0	0	0	0	479	616	
14	0	0	0	0	477	615	
15	0	0	0	0	478	615	
0	0	0	0	0	480	615	
1	0	0	0	0	480	615	
2	0	0	0	0	480	615	
3	0	0	0	0	479	615	
4	0	0	0	0	480	615	
5	0	0	0	0	479	615	
6	0	0	0	0	480	615	
7	0	0	0	0	480	616	
8	0	0	0	0	480	615	
9	0	0	0	0	479	615	
10	0	0	0	0	479	615	
11	0	0	0	0	479	615	
12	0	0	0	0	479	615	
13	0	0	0	0	479	615	
14	0	0	0	0	478	616	
15	0	0	0	0	477	616	
0	0	0	0	0	476	616	
1	0	0	0	0	474	615	
2	0	0	0	0	474	615	
3	0	0	0	0	475	615	
4	0	0	0	0	476	616	
5	0	0	0	0	476	616	
6	0	0	0	0	474	615	
7	0	0	0	0	474	616	
8	0	0	0	0	474	616	
9	0	0	0	0	475	616	
10	0	0	0	0	476	617	
11	0	0	0	0	476	616	
12	0	0	0	0	477	617	
13	0	0	0	0	475	616	
14	0	0	0	0	472	617	
15	0	0	0	0	472	616	
0	0	0	0	0	472	616	
1	0	0	0	0	472	617	
2	0	0	0	0	472	617	
3	0	0	0	0	472	617	
4	0	0	0	0	473	617	
5	0	0	0	0	473	617	
6	0	0	0	0	472	618	
7	0	0	0	0	472	617	
8	0	0	0	0	472	617	
9	0	0	0	0	473	617	
10	0	0	0	0	473	617	
11	0	0	0	0	472	617	
12	0	0	0	0	472	617	
13	0	0	0	0	472	618	
14	0	0	0	0	471	618	
15	0	0	0	0	469	617	
0	0	0	0	0	471	618	
1	0	0	0	0	472	617	
2	0	0	0	0	471	618	
3	0	0	0	0	471	617	
4	0	0	0	0	472	617	
5	0	0	0	0	473	617	
6	0	0	0	0	475	617	
7	0	0	0	0	475	617	
8	0	0	0	0	477	618	
9	0	0	0	0	478	618	
10	0	0	0	0	479	618	
11	0	0	0	0	479	618	
12	0	0	0	0	480	618	
13	0	0	0	0	481	617	
14	0	0	0	0	483	617	
15	0	0	0	0	484	617	
0	0	0	0	0	486	616	
1	0	0	0	0	487	616	
2	0	0	0	0	486	616	
3	0	0	0	0	487	615	
4	0	0	0	0	487	615	
5	0	0	0	0	488	615	
6	0	0	0	0	489	615	
7	0	0	0	0	491	615	
8	0	0	0	0	491	614	
9	0	0	0	0	489	614	
10	0	0	0	0	489	614	
11	0	0	0	0	487	613	
12	0	0	0	0	488	614	
13	0	0	0	0	489	614	
14	0	0	0	0	489	614	
15	0	0	0	0	491	614	
0	0	0	0	0	493	613	
1	0	0	0	0	497	614	
2	0	0	0	0	499	613	
3	0	0	0	0	500	613	
4	0	0	0	0	500	613	
5	0	0	0	0	499	614	
6	0	0	0	0	499	615	
7	0	0	0	0	500	614	
8	0	0	0	0	500	615	
9	0	0	0	0	501	614	
10	0	0	0	0	502	614	
11	0	0	0	0	501	615	
12	0	0	0	0	500	615	
13	0	0	0	0	501	615	
14	0	0	0	0	500	615	
15	0	0	0	0	503	615	
0	0	0	0	0	503	615	
1	0	0	0	0	502	615	
2	0	0	0	0	501	615	
3	0	0	0	0	502	616	
4	0	0	0	0	504	615	
5	0	0	0	0	503	616	
6	0	0	0	0	502	616	
7	0	0	0	0	501	616	
8	0	0	0	0	499	616	
9	0	0	0	0	498	616	
10	0	0	0	0	498	616	
11	0	0	0	0	498	617	
12	0	0	0	0	498	616	
13	0	0	0	0	497	616	
14	0	0	0	0	496	616	
15	0	0	0	0	497	616	
0	0	0	0	0	499	617	
1	0	0	0	0	499	617	
2	0	0	0	0	500	617	
3	0	0	0	0	501	616	
4	0	0	0	0	500	617	
5	0	0	0	0	500	617	
6	0	0	0	0	501	618	
7	0	0	0	0	501	618	
8	0	0	0	0	502	617	
9	0	0	0	0	501	618	
10	0	0	0	0	501	618	
11	0	0	0	0	500	617	
12	0	0	0	0	502	618	
13	0	0	0	0	503	618	
14	0	0	0	0	504	617	
15	0	0	0	0	502	618	
0	0	0	0	0	501	619	
1	0	0	0	0	502	618	
2	0	0	0	0	501	617	
3	0	0	0	0	501	618	
4	0	0	0	0	499	619	
5	0	0	0	0	497	618	
6	0	0	0	0	496	618	
7	0	0	0	0	496	618	
8	0	0	0	0	496	618	
9	0	0	0	0	496	618	
10	0	0	0	0	495	617	
11	0	0	0	0	495	618	
12	0	0	0	0	496	617	
13	0	0	0	0	496	618	
14	0	0	0	0	496	617	
15	0	0	0	0	497	617	
0	0	0	0	0	496	617	
1	0	0	0	0	496	617	
2	0	0	0	0	496	617	
3	0	0	0	0	495	617	
4	0	0	0	0	495	617	
5	0	0	0	0	493	617	
6	0	0	0	0	493	616	
7	0	0	0	0	494	616	
8	0	0	0	0	496	617	
9	0	0	0	0	498	617	
10	0	0	0	0	497	616	
11	0	0	0	0	497	616	
12	0	0	0	0	497	616	
13	0	0	0	0	498	616	
14	0	0	0	0	499	615	
15	0	0	0	0	501	615	
0	0	0	0	0	501	615	
1	0	0	0	0	500	615	
2	0	0	0	0	500	615	
3	0	0	0	0	498	614	
4	0	0	0	0	498	615	
5	0	0	0	0	499	614	
6	0	0	0	0	499	614	
7	0	0	0	0	498	613	
8	0	0	0	0	497	614	
9	0	0	0	0	499	613	
10	0	0	0	0	498	613	
11	0	0	0	0	500	614	
12	0	0	0	0	500	614	
13	0	0	0	0	499	615	
14	0	0	0	0	499	614	
15	0	0	0	0	500	614	
0	0	0	0	0	501	615	
1	0	0	0	0	502	614	
2	0	0	0	0	501	614	
3	0	0	0	0	500	614	
4	0	0	0	0	500	615	
5	0	0	0	0	501	615	
6	0	0	0	0	501	615	
7	0	0	0	0	501	614	
8	0	0	0	0	502	615	
9	0	0	0	0	502	615	
10	0	0	0	0	502	615	
11	0	0	0	0	502	615	
12	0	0	0	0	503	615	
13	0	0	0	0	504	616	
14	0	0	0	0	504	616	
15	0	0	0	0	504	615	
0	0	0	0	0	502	616	
1	0	0	0	0	503	615	
2	0	0	0	0	503	616	
3	0	0	0	0	504	615	
4	0	0	0	0	505	616	
5	0	0	0	0	505	617	
6	0	0	0	0	504	617	
7	0	0	0	0	505	616	
8	0	0	0	0	504	616	
9	0	0	0	0	504	616	
10	0	0	0	0	503	616	
11	0	0	0	0	503	617	
12	0	0	0	0	502	616	
13	0	0	0	0	504	616	
14	0	0	0	0	503	616	
15	0	0	0	0	500	616	
0	0	0	0	0	499	615	
1	0	0	0	0	498	616	
2	0	0	0	0	498	616	
3	0	0	0	0	498	615	
4	0	0	0	0	499	616	
5	0	0	0	0	499	617	
6	0	0	0	0	499	616	
7	0	0	0	0	497	616	
8	0	0	0	0	497	616	
9	0	0	0	0	496	616	
10	0	0	0	0	497	616	
11	0	0	0	0	497	616	
12	0	0	0	0	497	616	
13	0	0	0	0	497	617	
14	0	0	0	0	499	616	
15	0	0	0	0	499	616	
0	0	0	0	0	500	616	
1	0	0	0	0	501	617	
2	0	0	0	0	502	617	
3	0	0	0	0	502	617	
4	0	0	0	0	502	616	
5	0	0	0	0	501	617	
6	0	0	0	0	500	617	
7	0	0	0	0	500	617	
8	0	0	0	0	499	617	
9	0	0	0	0	499	617	
10	0	0	0	0	501	617	
11	0	0	0	0	502	617	
12	0	0	0	0	503	616	
13	0	0	0	0	502	617	
14	0	0	0	0	502	616	
15	0	0	0	0	503	617	
0	0	0	0	0	505	616	
1	0	0	0	0	505	617	
2	0	0	0	0	507	616	
3	0	0	0	0	508	616	
4	0	0	0	0	509	617	
5	0	0	0	0	511	616	
6	0	0	0	0	512	616	
7	0	0	0	0	513	617	
8	0	0	0	0	513	617	
9	0	0	0	0	514	617	
10	0	0	0	0	514	617	
11	0	0	0	0	513	617	
12	0	0	0	0	512	618	
13	0	0	0	0	511	618	
14	0	0	0	0	511	618	
15	0	0	0	0	512	618	
0	0	0	0	0	514	618	
1	0	0	0	0	514	618	
2	0	0	0	0	516	619	
3	0	0	0	0	517	618	
4	0	0	0	0	518	618	
5	0	0	0	0	519	618	
6	0	0	0	0	519	618	
7	0	0	0	0	519	618	
8	0	0	0	0	521	618	
9	0	0	0	0	521	618	
10	0	0	0	0	521	618	
11	0	0	0	0	521	617	
12	0	0	0	0	521	617	
13	0	0	0	0	519	617	
14	0	0	0	0	518	617	
15	0	0	0	0	519	617	
0	0	0	0	0	518	616	
1	0	0	0	0	518	617	
2	0	0	0	0	517	616	
3	0	0	0	0	515	616	
4	0	0	0	0	515	616	
5	0	0	0	0	516	617	
6	0	0	0	0	517	616	
7	0	0	0	0	517	616	
8	0	0	0	0	518	616	
9	0	0	0	0	519	616	
10	0	0	0	0	518	617	
11	0	0	0	0	518	616	
12	0	0	0	0	519	616	
13	0	0	0	0	520	616	
14	0	0	0	0	520	616	
15	0	0	0	0	519	616	
0	0	0	0	0	518	617	
1	0	0	0	0	516	615	
2	0	0	0	0	516	616	
3	0	0	0	0	514	616	
4	0	0	0	0	512	616	
5	0	0	0	0	510	616	
6	0	0	0	0	510	616	
7	0	0	0	0	508	616	
8	0	0	0	0	507	615	
9	0	0	0	0	507	615	
10	0	0	0	0	507	615	
11	0	0	0	0	507	615	
12	0	0	0	0	506	615	
13	0	0	0	0	505	615	
14	0	0	0	0	505	615	
15	0	0	0	0	507	615	
0	0	0	0	0	508	615	
1	0	0	0	0	508	615	
2	0	0	0	0	508	615	
3	0	0	0	0	508	615	
4	0	0	0	0	506	616	
5	0	0	0	0	504	616	
6	0	0	0	0	504	616	
7	0	0	0	0	503	615	
8	0	0	0	0	504	616	
9	0	0	0	0	504	616	
10	0	0	0	0	504	616	
11	0	0	0	0	504	615	
12	0	0	0	0	504	616	
13	0	0	0	0	504	617	
14	0	0	0	0	504	617	
15	0	0	0	0	503	616	
0	0	0	0	0	503	617	
1	0	0	0	0	503	616	
2	0	0	0	0	504	617	
3	0	0	0	0	503	616	
4	0	0	0	0	504	617	
5	0	0	0	0	504	617	
6	0	0	0	0	505	616	
7	0	0	0	0	505	616	
8	0	0	0	0	504	615	
9	0	0	0	0	504	616	
10	0	0	0	0	505	615	
11	0	0	0	0	505	616	
12	0	0	0	0	504	616	
13	0	0	0	0	503	616	
14	0	0	0	0	502	615	
15	0	0	0	0	501	615	
0	0	0	0	0	502	615	
1	0	0	0	0	503	616	
2	0	0	0	0	504	616	
3	0	0	0	0	504	616	
4	0	0	0	0	502	616	
5	0	0	0	0	502	616	
6	0	0	0	0	501	617	
7	0	0	0	0	500	617	
8	0	0	0	0	500	616	
9	0	0	0	0	500	616	
10	0	0	0	0	499	617	
11	0	0	0	0	500	616	
12	0	0	0	0	500	617	
13	0	0	0	0	501	617	
14	0	0	0	0	503	616	
15	0	0	0	0	504	616	
0	0	0	0	0	503	616	
1	0	0	0	0	503	616	
2	0	0	0	0	502	615	
3	0	0	0	0	504	616	
4	0	0	0	0	505	616	
5	0	0	0	0	506	616	
6	0	0	0	0	508	615	
7	0	0	0	0	510	615	
8	0	0	0	0	511	615	
9	0	0	0	0	513	615	
10	0	0	0	0	515	615	
11	0	0	0	0	519	615	
12	0	0	0	0	521	615	
13	0	0	0	0	523	615	
14	0	0	0	0	526	615	
15	0	0	0	0	525	615	
0	0	0	0	0	525	615	
1	0	0	0	0	524	615	
2	0	0	0	0	525	615	
3	0	0	0	0	529	617	
4	0	0	0	0	537	616	
5	0	0	0	0	548	616	
6	0	0	0	0	561	615	
7	0	0	0	0	575	615	
8	0	0	0	0	589	615	
9	0	0	0	0	603	615	
10	0	0	0	0	617	615	
11	0	0	0	0	629	615	
12	0	0	0	0	643	615	
13	0	0	0	0	656	615	
14	0	0	0	0	669	615	
15	0	0	0	0	682	615	
0	0	0	0	0	691	616	
1	0	0	0	0	697	615	
2	0	0	0	0	701	615	
3	0	0	0	0	702	616	
4	0	0	0	0	697	616	
5	0	0	0	0	684	615	
6	0	0	0	0	665	616	
7	0	0	0	0	646	616	
8	0	0	0	0	628	617	
9	0	0	0	0	614	617	
10	0	0	0	0	603	616	
11	0	0	0	0	593	617	
12	0	0	0	0	585	617	
13	0	0	0	0	578	616	
14	0	0	0	0	576	616	
15	0	0	0	0	576	616	
0	0	0	0	0	580	616	
1	0	0	0	0	585	616	
2	0	0	0	0	588	616	
3	0	0	0	0	590	616	
4	0	0	0	0	591	616	
5	0	0	0	0	592	616	
6	0	0	0	0	595	616	
7	0	0	0	0	595	615	
8	0	0	0	0	591	616	
9	0	0	0	0	584	616	
10	0	0	0	0	575	616	
11	0	0	0	0	564	616	
12	0	0	0	0	552	617	
13	0	0	0	0	540	616	
14	0	0	0	0	526	616	
15	0	0	0	0	513	617	
0	0	0	0	0	501	617	
1	0	0	0	0	488	617	
2	0	0	0	0	475	617	
3	0	0	0	0	465	617	
4	0	0	0	0	455	617	
5	0	0	0	0	448	618	
6	0	0	0	0	441	618	
7	0	0	0	0	436	618	
8	0	0	0	0	431	618	
9	0	0	0	0	425	618	
10	0	0	0	0	422	619	
11	0	0	0	0	418	618	
12	0	0	0	0	416	618	
13	0	0	0	0	415	617	
14	0	0	0	0	414	617	
15	0	0	0	0	415	618	
0	0	0	0	0	416	617	
1	0	0	0	0	415	616	
2	0	0	0	0	416	617	
3	0	0	0	0	416	616	
4	0	0	0	0	417	616	
5	0	0	0	0	417	616	
6	0	0	0	0	417	615	
7	0	0	0	0	418	615	
8	0	0	0	0	418	615	
9	0	0	0	0	419	615	
10	0	0	0	0	419	615	
11	0	0	0	0	419	615	
12	0	0	0	0	419	615	
13	0	0	0	0	420	616	
14	0	0	0	0	421	616	
15	0	0	0	0	422	615	
0	0	0	0	0	422	615	
1	0	0	0	0	423	615	
2	0	0	0	0	425	615	
3	0	0	0	0	428	615	
4	0	0	0	0	429	615	
5	0	0	0	0	430	615	
6	0	0	0	0	432	615	
7	0	0	0	0	432	615	
8	0	0	0	0	433	615	
9	0	0	0	0	433	615	
10	0	0	0	0	435	615	
11	0	0	0	0	436	615	
12	0	0	0	0	436	615	
13	0	0	0	0	437	615	
14	0	0	0	0	437	615	
15	0	0	0	0	436	615	
0	0	0	0	0	437	615	
1	0	0	0	0	439	615	
2	0	0	0	0	439	615	
3	0	0	0	0	438	615	
4	0	0	0	0	438	615	
5	0	0	0	0	438	615	
6	0	0	0	0	437	615	
7	0	0	0	0	437	615	
8	0	0	0	0	438	615	
9	0	0	0	0	438	615	
10	0	0	0	0	439	615	
11	0	0	0	0	440	615	
12	0	0	0	0	441	615	
13	0	0	0	0	441	615	
14	0	0	0	0	441	615	
15	0	0	0	0	440	615	
0	0	0	0	0	440	615	
1	0	0	0	0	440	615	
2	0	0	0	0	440	615	
3	0	0	0	0	440	615	
4	0	0	0	0	440	615	
5	0	0	0	0	440	616	
6	0	0	0	0	441	616	
7	0	0	0	0	440	616	
8	0	0	0	0	440	616	
9	0	0	0	0	441	616	
10	0	0	0	0	442	616	
11	0	0	0	0	443	616	
12	0	0	0	0	444	616	
13	0	0	0	0	444	617	
14	0	0	0	0	444	617	
15	0	0	0	0	443	617	
0	0	0	0	0	444	617	
1	0	0	0	0	443	616	
2	0	0	0	0	443	616	
3	0	0	0	0	443	617	
4	0	0	0	0	443	617	
5	0	0	0	0	443	618	
6	0	0	0	0	441	617	
7	0	0	0	0	443	617	
8	0	0	0	0	443	617	
9	0	0	0	0	441	617	
10	0	0	0	0	441	617	
11	0	0	0	0	442	617	
12	0	0	0	0	442	617	
13	0	0	0	0	442	617	
14	0	0	0	0	444	617	
15	0	0	0	0	444	617	
0	0	0	0	0	444	617	
1	0	0	0	0	445	617	
2	0	0	0	0	445	617	
3	0	0	0	0	445	618	
4	0	0	0	0	445	618	
5	0	0	0	0	446	618	
6	0	0	0	0	447	617	
7	0	0	0	0	447	617	
8	0	0	0	0	447	617	
9	0	0	0	0	448	618	
10	0	0	0	0	449	618	
11	0	0	0	0	450	617	
12	0	0	0	0	449	618	
13	0	0	0	0	449	618	
14	0	0	0	0	449	618	
15	0	0	0	0	448	617	
0	0	0	0	0	447	618	
1	0	0	0	0	448	617	
2	0	0	0	0	448	617	
3	0	0	0	0	448	617	
4	0	0	0	0	447	616	
5	0	0	0	0	448	617	
6	0	0	0	0	449	616	
7	0	0	0	0	448	616	
8	0	0	0	0	449	615	
9	0	0	0	0	448	616	
10	0	0	0	0	448	616	
11	0	0	0	0	448	615	
12	0	0	0	0	449	615	
13	0	0	0	0	450	615	
14	0	0	0	0	449	615	
15	0	0	0	0	449	615	
0	0	0	0	0	448	615	
1	0	0	0	0	447	615	
2	0	0	0	0	447	615	
3	0	0	0	0	447	615	
4	0	0	0	0	447	615	
5	0	0	0	0	447	615	
6	0	0	0	0	447	615	
7	0	0	0	0	446	615	
8	0	0	0	0	445	615	
9	0	0	0	0	445	615	
10	0	0	0	0	444	615	
11	0	0	0	0	444	615	
12	0	0	0	0	444	616	
13	0	0	0	0	444	616	
14	0	0	0	0	445	616	
15	0	0	0	0	444	616	
0	0	0	0	0	444	616	
1	0	0	0	0	444	615	
2	0	0	0	0	444	616	
3	0	0	0	0	446	615	
4	0	0	0	0	446	615	
5	0	0	0	0	447	615	
6	0	0	0	0	448	615	
7	0	0	0	0	449	616	
8	0	0	0	0	448	616	
9	0	0	0	0	448	616	
10	0	0	0	0	447	616	
11	0	0	0	0	448	616	
12	0	0	0	0	447	616	
13	0	0	0	0	448	616	
14	0	0	0	0	449	617	
15	0	0	0	0	448	616	
0	0	0	0	0	449	617	
1	0	0	0	0	450	617	
2	0	0	0	0	450	616	
3	0	0	0	0	450	616	
4	0	0	0	0	451	616	
5	0	0	0	0	453	616	
6	0	0	0	0	453	617	
7	0	0	0	0	452	617	
8	0	0	0	0	452	616	
9	0	0	0	0	452	616	
10	0	0	0	0	453	616	
11	0	0	0	0	453	616	
12	0	0	0	0	455	616	
13	0	0	0	0	456	617	
14	0	0	0	0	458	616	
15	0	0	0	0	460	616	
0	0	0	0	0	460	616	
1	0	0	0	0	461	616	
2	0	0	0	0	463	616	
3	0	0	0	0	467	616	
4	0	0	0	0	469	616	
5	0	0	0	0	469	616	
6	0	0	0	0	468	616	
7	0	0	0	0	467	616	
8	0	0	0	0	467	616	
9	0	0	0	0	468	617	
10	0	0	0	0	470	616	
11	0	0	0	0	470	616	
12	0	0	0	0	470	616	
13	0	0	0	0	469	617	
14	0	0	0	0	470	617	
15	0	0	0	0	469	617	
0	0	0	0	0	469	617	
1	0	0	0	0	471	617	
2	0	0	0	0	472	616	
3	0	0	0	0	472	617	
4	0	0	0	0	471	617	
5	0	0	0	0	471	617	
6	0	0	0	0	470	617	
7	0	0	0	0	471	617	
8	0	0	0	0	471	617	
9	0	0	0	0	472	617	
10	0	0	0	0	472	617	
11	0	0	0	0	472	617	
12	0	0	0	0	474	617	
13	0	0	0	0	476	617	
14	0	0	0	0	477	617	
15	0	0	0	0	478	617	
0	0	0	0	0	479	617	
1	0	0	0	0	478	616	
2	0	0	0	0	479	616	
3	0	0	0	0	479	616	
4	0	0	0	0	479	616	
5	0	0	0	0	480	616	
6	0	0	0	0	479	616	
7	0	0	0	0	479	616	
8	0	0	0	0	480	616	
9	0	0	0	0	480	616	
10	0	0	0	0	479	616	
11	0	0	0	0	479	615	
12	0	0	0	0	479	616	
13	0	0	0	0	479	616	
14	0	0	0	0	479	616	
15	0	0	0	0	477	616	
0	0	0	0	0	478	615	
1	0	0	0	0	478	615	
2	0	0	0	0	478	615	
3	0	0	0	0	479	616	
4	0	0	0	0	481	616	
5	0	0	0	0	481	616	
6	0	0	0	0	481	616	
7	0	0	0	0	482	616	
8	0	0	0	0	482	616	
9	0	0	0	0	483	615	
10	0	0	0	0	484	616	
11	0	0	0	0	484	615	
12	0	0	0	0	486	616	
13	0	0	0	0	488	615	
14	0	0	0	0	488	615	
15	0	0	0	0	489	615	
0	0	0	0	0	491	615	
1	0	0	0	0	493	615	
2	0	0	0	0	495	615	
3	0	0	0	0	499	615	
4	0	0	0	0	500	615	
5	0	0	0	0	502	616	
6	0	0	0	0	501	615	
7	0	0	0	0	502	615	
8	0	0	0	0	504	615	
9	0	0	0	0	505	615	
10	0	0	0	0	505	616	
11	0	0	0	0	506	616	
12	0	0	0	0	507	615	
13	0	0	0	0	510	616	
14	0	0	0	0	511	616	
15	0	0	0	0	513	616	
0	0	0	0	0	516	616	
1	0	0	0	0	517	616	
2	0	0	0	0	517	617	
3	0	0	0	0	518	617	
4	0	0	0	0	520	617	
5	0	0	0	0	521	618	
6	0	0	0	0	522	617	
7	0	0	0	0	522	617	
8	0	0	0	0	523	617	
9	0	0	0	0	520	617	
10	0	0	0	0	522	618	
11	0	0	0	0	523	617	
12	0	0	0	0	524	617	
13	0	0	0	0	525	618	
14	0	0	0	0	527	617	
15	0	0	0	0	527	617	
0	0	0	0	0	529	617	
1	0	0	0	0	531	617	
2	0	0	0	0	532	617	
3	0	0	0	0	534	617	
4	0	0	0	0	535	617	
5	0	0	0	0	536	617	
6	0	0	0	0	539	617	
7	0	0	0	0	540	617	
8	0	0	0	0	543	616	
9	0	0	0	0	545	616	
10	0	0	0	0	546	617	
11	0	0	0	0	548	616	
12	0	0	0	0	550	615	
13	0	0	0	0	551	615	
14	0	0	0	0	550	616	
15	0	0	0	0	551	616	
0	0	0	0	0	551	615	
1	0	0	0	0	552	615	
2	0	0	0	0	555	616	
3	0	0	0	0	555	615	
4	0	0	0	0	554	616	
5	0	0	0	0	553	616	
6	0	0	0	0	554	615	
7	0	0	0	0	554	615	
8	0	0	0	0	555	615	
9	0	0	0	0	554	615	
10	0	0	0	0	554	616	
11	0	0	0	0	555	615	
12	0	0	0	0	555	615	
13	0	0	0	0	556	616	
14	0	0	0	0	559	615	
15	0	0	0	0	561	615	
0	0	0	0	0	564	615	
1	0	0	0	0	566	615	
2	0	0	0	0	568	615	
3	0	0	0	0	567	615	
4	0	0	0	0	565	615	
5	0	0	0	0	563	615	
6	0	0	0	0	564	615	
7	0	0	0	0	563	615	
8	0	0	0	0	562	616	
9	0	0	0	0	562	616	
10	0	0	0	0	562	615	
11	0	0	0	0	563	617	
12	0	0	0	0	562	617	
13	0	0	0	0	562	616	
14	0	0	0	0	564	616	
15	0	0	0	0	564	616	
0	0	0	0	0	565	616	
1	0	0	0	0	564	617	
2	0	0	0	0	563	617	
3	0	0	0	0	561	617	
4	0	0	0	0	560	617	
5	0	0	0	0	558	617	
6	0	0	0	0	559	616	
7	0	0	0	0	559	617	
8	0	0	0	0	557	616	
9	0	0	0	0	557	616	
10	0	0	0	0	556	616	
11	0	0	0	0	556	616	
12	0	0	0	0	555	615	
13	0	0	0	0	553	615	
14	0	0	0	0	550	615	
15	0	0	0	0	548	615	
0	0	0	0	0	547	617	
1	0	0	0	0	545	616	
2	0	0	0	0	545	616	
3	0	0	0	0	544	615	
4	0	0	0	0	543	615	
5	0	0	0	0	542	617	
6	0	0	0	0	541	615	
7	0	0	0	0	539	616	
8	0	0	0	0	538	616	
9	0	0	0	0	538	615	
10	0	0	0	0	538	616	
11	0	0	0	0	538	616	
12	0	0	0	0	540	617	
13	0	0	0	0	540	617	
14	0	0	0	0	538	616	
15	0	0	0	0	538	616	
0	0	0	0	0	538	616	
1	0	0	0	0	537	616	
2	0	0	0	0	536	617	
3	0	0	0	0	536	616	
4	0	0	0	0	537	616	
5	0	0	0	0	536	617	
6	0	0	0	0	535	617	
7	0	0	0	0	532	616	
8	0	0	0	0	531	616	
9	0	0	0	0	529	616	
10	0	0	0	0	527	616	
11	0	0	0	0	527	616	
12	0	0	0	0	527	616	
13	0	0	0	0	527	616	
14	0	0	0	0	526	616	
15	0	0	0	0	525	615	
0	0	0	0	0	525	616	
1	0	0	0	0	525	615	
2	0	0	0	0	526	615	
3	0	0	0	0	526	616	
4	0	0	0	0	526	616	
5	0	0	0	0	525	616	
6	0	0	0	0	527	616	
7	0	0	0	0	527	616	
8	0	0	0	0	526	616	
9	0	0	0	0	526	616	
10	0	0	0	0	527	616	
11	0	0	0	0	526	617	
12	0	0	0	0	526	617	
13	0	0	0	0	525	617	
14	0	0	0	0	524	617	
15	0	0	0	0	524	617	
0	0	0	0	0	524	617	
1	0	0	0	0	524	617	
2	0	0	0	0	523	617	
3	0	0	0	0	522	618	
4	0	0	0	0	522	617	
5	0	0	0	0	522	617	
6	0	0	0	0	522	617	
7	0	0	0	0	523	618	
8	0	0	0	0	523	617	
9	0	0	0	0	523	617	
10	0	0	0	0	522	617	
11	0	0	0	0	521	617	
12	0	0	0	0	520	617	
13	0	0	0	0	520	618	
14	0	0	0	0	519	617	
15	0	0	0	0	518	617	
0	0	0	0	0	519	618	
1	0	0	0	0	519	617	
2	0	0	0	0	519	617	
3	0	0	0	0	520	617	
4	0	0	0	0	520	617	
5	0	0	0	0	519	618	
6	0	0	0	0	520	617	
7	0	0	0	0	521	617	
8	0	0	0	0	523	617	
9	0	0	0	0	523	617	
10	0	0	0	0	522	616	
11	0	0	0	0	520	616	
12	0	0	0	0	519	616	
13	0	0	0	0	519	616	
14	0	0	0	0	518	615	
15	0	0	0	0	517	616	
0	0	0	0	0	515	616	
1	0	0	0	0	516	615	
2	0	0	0	0	516	615	
3	0	0	0	0	515	615	
4	0	0	0	0	513	615	
5	0	0	0	0	512	615	
6	0	0	0	0	512	615	
7	0	0	0	0	513	614	
8	0	0	0	0	513	615	
9	0	0	0	0	513	615	
10	0	0	0	0	514	614	
11	0	0	0	0	514	614	
12	0	0	0	0	514	614	
13	0	0	0	0	515	615	
14	0	0	0	0	515	614	
15	0	0	0	0	516	614	
0	0	0	0	0	518	615	
1	0	0	0	0	518	614	
2	0	0	0	0	518	615	
3	0	0	0	0	519	615	
4	0	0	0	0	520	615	
5	0	0	0	0	522	615	
6	0	0	0	0	524	614	
7	0	0	0	0	523	614	
8	0	0	0	0	522	615	
9	0	0	0	0	523	615	
10	0	0	0	0	523	615	
11	0	0	0	0	522	615	
12	0	0	0	0	521	615	
13	0	0	0	0	522	615	
14	0	0	0	0	525	615	
15	0	0	0	0	526	615	
0	0	0	0	0	526	615	
1	0	0	0	0	527	615	
2	0	0	0	0	528	616	
3	0	0	0	0	526	616	
4	0	0	0	0	527	616	
5	0	0	0	0	527	616	
6	0	0	0	0	528	616	
7	0	0	0	0	527	617	
8	0	0	0	0	527	617	
9	0	0	0	0	527	616	
10	0	0	0	0	527	616	
11	0	0	0	0	527	617	
12	0	0	0	0	528	617	
13	0	0	0	0	529	617	
14	0	0	0	0	530	617	
15	0	0	0	0	531	617	
0	0	0	0	0	531	617	
1	0	0	0	0	531	617	
2	0	0	0	0	532	618	
3	0	0	0	0	532	618	
4	0	0	0	0	531	617	
5	0	0	0	0	531	618	
6	0	0	0	0	532	617	
7	0	0	0	0	531	617	
8	0	0	0	0	529	617	
9	0	0	0	0	527	617	
10	0	0	0	0	527	617	
11	0	0	0	0	527	617	
12	0	0	0	0	526	617	
13	0	0	0	0	527	617	
14	0	0	0	0	529	617	
15	0	0	0	0	529	617	
0	0	0	0	0	527	617	
1	0	0	0	0	526	617	
2	0	0	0	0	527	617	
3	0	0	0	0	529	617	
4	0	0	0	0	530	617	
5	0	0	0	0	530	617	
6	0	0	0	0	529	616	
7	0	0	0	0	530	616	
8	0	0	0	0	531	616	
9	0	0	0	0	531	616	
10	0	0	0	0	530	616	
11	0	0	0	0	529	616	
12	0	0	0	0	528	616	
13	0	0	0	0	528	615	
14	0	0	0	0	527	615	
15	0	0	0	0	527	615	
0	0	0	0	0	528	615	
1	0	0	0	0	527	615	
2	0	0	0	0	527	615	
3	0	0	0	0	525	615	
4	0	0	0	0	525	615	
5	0	0	0	0	525	616	
6	0	0	0	0	525	615	
7	0	0	0	0	526	616	
8	0	0	0	0	528	615	
9	0	0	0	0	530	615	
10	0	0	0	0	530	615	
11	0	0	0	0	530	615	
12	0	0	0	0	529	615	
13	0	0	0	0	529	615	
14	0	0	0	0	529	615	
15	0	0	0	0	527	615	
0	0	0	0	0	527	615	
1	0	0	0	0	528	615	
2	0	0	0	0	527	615	
3	0	0	0	0	527	615	
4	0	0	0	0	527	615	
5	0	0	0	0	527	616	
6	0	0	0	0	527	616	
7	0	0	0	0	528	616	
8	0	0	0	0	529	616	
9	0	0	0	0	530	616	
10	0	0	0	0	529	616	
11	0	0	0	0	529	616	
12	0	0	0	0	528	616	
13	0	0	0	0	528	617	
14	0	0	0	0	530	616	
15	0	0	0	0	531	617	
0	0	0	0	0	534	617	
1	0	0	0	0	533	616	
2	0	0	0	0	535	617	
3	0	0	0	0	534	617	
4	0	0	0	0	533	617	
5	0	0	0	0	533	617	
6	0	0	0	0	532	616	
7	0	0	0	0	531	616	
8	0	0	0	0	530	617	
9	0	0	0	0	528	617	
10	0	0	0	0	528	617	
11	0	0	0	0	528	617	
12	0	0	0	0	529	617	
13	0	0	0	0	529	618	
14	0	0	0	0	530	617	
15	0	0	0	0	532	617	
0	0	0	0	0	533	617	
1	0	0	0	0	532	617	
2	0	0	0	0	533	618	
3	0	0	0	0	534	618	
4	0	0	0	0	535	618	
5	0	0	0	0	535	618	
6	0	0	0	0	536	617	
7	0	0	0	0	536	618	
8	0	0	0	0	535	618	
9	0	0	0	0	532	618	
10	0	0	0	0	533	618	
11	0	0	0	0	533	618	
12	0	0	0	0	531	618	
13	0	0	0	0	531	617	
14	0	0	0	0	532	617	
15	0	0	0	0	534	617	
0	0	0	0	0	536	617	
1	0	0	0	0	535	617	
2	0	0	0	0	536	617	
3	0	0	0	0	535	617	
4	0	0	0	0	535	616	
5	0	0	0	0	536	616	
6	0	0	0	0	536	616	
7	0	0	0	0	535	616	
8	0	0	0	0	533	615	
9	0	0	0	0	532	615	
10	0	0	0	0	534	615	
11	0	0	0	0	533	615	
12	0	0	0	0	531	615	
13	0	0	0	0	531	616	
14	0	0	0	0	531	615	
15	0	0	0	0	530	615	
0	0	0	0	0	529	615	
1	0	0	0	0	528	615	
2	0	0	0	0	526	615	
3	0	0	0	0	526	615	
4	0	0	0	0	526	615	
5	0	0	0	0	525	615	
6	0	0	0	0	524	615	
7	0	0	0	0	522	615	
8	0	0	0	0	522	615	
9	0	0	0	0	521	615	
10	0	0	0	0	520	616	
11	0	0	0	0	519	615	
12	0	0	0	0	520	616	
13	0	0	0	0	519	616	
14	0	0	0	0	517	616	
15	0	0	0	0	516	616	
0	0	0	0	0	515	616	
1	0	0	0	0	516	616	
2	0	0	0	0	516	616	
3	0	0	0	0	517	615	
4	0	0	0	0	516	616	
5	0	0	0	0	515	616	
6	0	0	0	0	515	616	
7	0	0	0	0	514	616	
8	0	0	0	0	514	616	
9	0	0	0	0	514	616	
10	0	0	0	0	515	616	
11	0	0	0	0	516	616	
12	0	0	0	0	514	616	
13	0	0	0	0	513	616	
14	0	0	0	0	514	616	
15	0	0	0	0	515	617	
0	0	0	0	0	515	617	
1	0	0	0	0	515	617	
2	0	0	0	0	515	617	
3	0	0	0	0	513	617	
4	0	0	0	0	512	617	
5	0	0	0	0	511	617	
6	0	0	0	0	511	616	
7	0	0	0	0	509	617	
8	0	0	0	0	508	616	
9	0	0	0	0	508	617	
10	0	0	0	0	509	616	
11	0	0	0	0	508	616	
12	0	0	0	0	508	616	
13	0	0	0	0	508	616	
14	0	0	0	0	508	616	
15	0	0	0	0	510	616	
0	0	0	0	0	510	616	
1	0	0	0	0	510	616	
2	0	0	0	0	509	616	
3	0	0	0	0	510	616	
4	0	0	0	0	509	615	
5	0	0	0	0	508	615	
6	0	0	0	0	508	616	
7	0	0	0	0	507	615	
8	0	0	0	0	507	616	
9	0	0	0	0	507	615	
10	0	0	0	0	507	615	
11	0	0	0	0	507	615	
12	0	0	0	0	508	616	
13	0	0	0	0	509	615	
14	0	0	0	0	509	615	
15	0	0	0	0	508	616	
0	0	0	0	0	507	616	
1	0	0	0	0	508	616	
2	0	0	0	0	507	616	
3	0	0	0	0	508	616	
4	0	0	0	0	508	615	
5	0	0	0	0	510	616	
6	0	0	0	0	511	615	
7	0	0	0	0	513	615	
8	0	0	0	0	513	615	
9	0	0	0	0	513	614	
10	0	0	0	0	514	615	
11	0	0	0	0	515	615	
12	0	0	0	0	514	615	
13	0	0	0	0	514	615	
14	0	0	0	0	514	616	
15	0	0	0	0	514	616	
0	0	0	0	0	514	616	
1	0	0	0	0	512	616	
2	0	0	0	0	512	616	
3	0	0	0	0	513	617	
4	0	0	0	0	513	617	
5	0	0	0	0	513	617	
6	0	0	0	0	513	617	
7	0	0	0	0	513	617	
8	0	0	0	0	514	617	
9	0	0	0	0	513	617	
10	0	0	0	0	512	617	
11	0	0	0	0	512	617	
12	0	0	0	0	512	617	
13	0	0	0	0	512	617	
14	0	0	0	0	512	618	
15	0	0	0	0	510	618	
0	0	0	0	0	509	618	
1	0	0	0	0	508	618	
2	0	0	0	0	508	618	
3	0	0	0	0	510	618	
4	0	0	0	0	512	618	
5	0	0	0	0	513	617	
6	0	0	0	0	515	617	
7	0	0	0	0	516	617	
8	0	0	0	0	518	617	
9	0	0	0	0	518	617	
10	0	0	0	0	520	617	
11	0	0	0	0	521	617	
12	0	0	0	0	522	617	
13	0	0	0	0	522	617	
14	0	0	0	0	523	616	
15	0	0	0	0	524	616	
0	0	0	0	0	526	616	
1	0	0	0	0	527	616	
2	0	0	0	0	527	616	
3	0	0	0	0	529	615	
4	0	0	0	0	528	616	
5	0	0	0	0	528	615	
6	0	0	0	0	527	615	
7	0	0	0	0	527	616	
8	0	0	0	0	526	615	
9	0	0	0	0	525	615	
10	0	0	0	0	524	615	
11	0	0	0	0	522	615	
12	0	0	0	0	523	615	
13	0	0	0	0	521	615	
14	0	0	0	0	522	614	
15	0	0	0	0	521	615	
0	0	0	0	0	521	614	
1	0	0	0	0	521	614	
2	0	0	0	0	520	615	
3	0	0	0	0	520	614	
4	0	0	0	0	521	615	
5	0	0	0	0	519	615	
6	0	0	0	0	518	615	
7	0	0	0	0	518	615	
8	0	0	0	0	517	614	
9	0	0	0	0	518	615	
10	0	0	0	0	517	615	
11	0	0	0	0	514	615	
12	0	0	0	0	513	615	
13	0	0	0	0	512	616	
14	0	0	0	0	511	615	
15	0	0	0	0	511	616	
0	0	0	0	0	510	616	
1	0	0	0	0	509	616	
2	0	0	0	0	508	616	
3	0	0	0	0	508	615	
4	0	0	0	0	507	616	
5	0	0	0	0	505	617	
6	0	0	0	0	505	617	
7	0	0	0	0	505	617	
8	0	0	0	0	503	616	
9	0	0	0	0	503	617	
10	0	0	0	0	503	617	
11	0	0	0	0	502	616	
12	0	0	0	0	501	616	
13	0	0	0	0	500	617	
14	0	0	0	0	499	617	
15	0	0	0	0	497	618	
0	0	0	0	0	496	617	
1	0	0	0	0	496	617	
2	0	0	0	0	497	617	
3	0	0	0	0	497	617	
4	0	0	0	0	499	618	
5	0	0	0	0	499	619	
6	0	0	0	0	500	618	
7	0	0	0	0	501	618	
8	0	0	0	0	500	618	
9	0	0	0	0	502	618	
10	0	0	0	0	502	618	
11	0	0	0	0	500	619	
12	0	0	0	0	500	619	
13	0	0	0	0	500	619	
14	0	0	0	0	500	619	
15	0	0	0	0	499	619	
0	0	0	0	0	499	619	
1	0	0	0	0	498	619	
2	0	0	0	0	499	618	
3	0	0	0	0	499	618	
4	0	0	0	0	498	617	
5	0	0	0	0	498	618	
6	0	0	0	0	497	618	
7	0	0	0	0	497	617	
8	0	0	0	0	498	617	
9	0	0	0	0	498	617	
10	0	0	0	0	497	617	
11	0	0	0	0	498	616	
12	0	0	0	0	499	616	
13	0	0	0	0	499	617	
14	0	0	0	0	500	617	
15	0	0	0	0	500	616	
0	0	0	0	0	499	616	
1	0	0	0	0	498	615	
2	0	0	0	0	497	615	
3	0	0	0	0	498	616	
4	0	0	0	0	498	615	
5	0	0	0	0	499	615	
6	0	0	0	0	500	615	
7	0	0	0	0	501	615	
8	0	0	0	0	501	615	
9	0	0	0	0	500	615	
10	0	0	0	0	500	615	
11	0	0	0	0	501	615	
12	0	0	0	0	502	615	
13	0	0	0	0	502	615	
14	0	0	0	0	503	615	
15	0	0	0	0	502	615	
0	0	0	0	0	503	615	
1	0	0	0	0	504	615	
2	0	0	0	0	504	615	
3	0	0	0	0	503	615	
4	0	0	0	0	501	615	
5	0	0	0	0	500	615	
6	0	0	0	0	499	615	
7	0	0	0	0	498	615	
8	0	0	0	0	498	615	
9	0	0	0	0	497	616	
10	0	0	0	0	497	615	
11	0	0	0	0	499	615	
12	0	0	0	0	498	615	
13	0	0	0	0	496	616	
14	0	0	0	0	495	615	
15	0	0	0	0	494	615	
0	0	0	0	0	494	615	
1	0	0	0	0	495	615	
2	0	0	0	0	493	616	
3	0	0	0	0	493	615	
4	0	0	0	0	494	615	
5	0	0	0	0	495	615	
6	0	0	0	0	494	615	
7	0	0	0	0	495	615	
8	0	0	0	0	495	615	
9	0	0	0	0	494	615	
10	0	0	0	0	492	615	
11	0	0	0	0	491	615	
12	0	0	0	0	491	615	
13	0	0	0	0	492	615	
14	0	0	0	0	492	615	
15	0	0	0	0	492	615	
0	0	0	0	0	493	615	
1	0	0	0	0	494	615	
2	0	0	0	0	495	615	
3	0	0	0	0	495	615	
4	0	0	0	0	496	615	
5	0	0	0	0	496	615	
6	0	0	0	0	496	615	
7	0	0	0	0	496	615	
8	0	0	0	0	498	615	
9	0	0	0	0	498	615	
10	0	0	0	0	498	615	
11	0	0	0	0	498	615	
12	0	0	0	0	497	615	
13	0	0	0	0	497	615	
14	0	0	0	0	496	615	
15	0	0	0	0	496	615	
0	0	0	0	0	496	616	
1	0	0	0	0	495	615	
2	0	0	0	0	494	616	
3	0	0	0	0	493	616	
4	0	0	0	0	493	616	
5	0	0	0	0	492	616	
6	0	0	0	0	491	616	
7	0	0	0	0	490	616	
8	0	0	0	0	491	617	
9	0	0	0	0	490	616	
10	0	0	0	0	490	617	
11	0	0	0	0	489	616	
12	0	0	0	0	490	617	
13	0	0	0	0	491	617	
14	0	0	0	0	489	617	
15	0	0	0	0	489	617	
0	0	0	0	0	488	617	
1	0	0	0	0	489	617	
2	0	0	0	0	489	617	
3	0	0	0	0	488	617	
4	0	0	0	0	489	617	
5	0	0	0	0	489	617	
6	0	0	0	0	490	617	
7	0	0	0	0	491	617	
8	0	0	0	0	490	618	
9	0	0	0	0	491	617	
10	0	0	0	0	493	618	
11	0	0	0	0	494	617	
12	0	0	0	0	495	618	
13	0	0	0	0	494	618	
14	0	0	0	0	494	618	
15	0	0	0	0	494	618	
0	0	0	0	0	495	617	
1	0	0	0	0	499	617	
2	0	0	0	0	500	617	
3	0	0	0	0	500	617	
4	0	0	0	0	499	616	
5	0	0	0	0	500	616	
6	0	0	0	0	500	616	
7	0	0	0	0	499	616	
8	0	0	0	0	499	617	
9	0	0	0	0	499	617	
10	0	0	0	0	499	617	
11	0	0	0	0	498	616	
12	0	0	0	0	499	616	
13	0	0	0	0	500	616	
14	0	0	0	0	500	616	
15	0	0	0	0	501	616	
0	0	0	0	0	503	616	
1	0	0	0	0	503	617	
2	0	0	0	0	502	616	
3	0	0	0	0	503	617	
4	0	0	0	0	504	616	
5	0	0	0	0	504	617	
6	0	0	0	0	505	616	
7	0	0	0	0	506	616	
8	0	0	0	0	507	616	
9	0	0	0	0	505	616	
10	0	0	0	0	504	616	
11	0	0	0	0	504	616	
12	0	0	0	0	503	617	
13	0	0	0	0	503	616	
14	0	0	0	0	502	615	
15	0	0	0	0	503	616	
0	0	0	0	0	505	617	
1	0	0	0	0	504	616	
2	0	0	0	0	505	616	
3	0	0	0	0	506	616	
4	0	0	0	0	507	616	
5	0	0	0	0	507	616	
6	0	0	0	0	507	615	
7	0	0	0	0	508	616	
8	0	0	0	0	509	616	
9	0	0	0	0	511	616	
10	0	0	0	0	512	615	
11	0	0	0	0	514	616	
12	0	0	0	0	514	616	
13	0	0	0	0	512	617	
14	0	0	0	0	510	616	
15	0	0	0	0	509	616	
0	0	0	0	0	508	617	
1	0	0	0	0	508	617	
2	0	0	0	0	508	616	
3	0	0	0	0	508	616	
4	0	0	0	0	507	616	
5	0	0	0	0	507	616	
6	0	0	0	0	508	615	
7	0	0	0	0	507	616	
8	0	0	0	0	507	616	
9	0	0	0	0	509	616	
10	0	0	0	0	507	615	
11	0	0	0	0	507	616	
12	0	0	0	0	506	616	
13	0	0	0	0	506	616	
14	0	0	0	0	508	615	
15	0	0	0	0	508	615	
0	0	0	0	0	508	615	
1	0	0	0	0	509	615	
2	0	0	0	0	510	615	
3	0	0	0	0	509	615	
4	0	0	0	0	509	615	
5	0	0	0	0	511	615	
6	0	0	0	0	511	615	
7	0	0	0	0	510	615	
8	0	0	0	0	508	615	
9	0	0	0	0	508	615	
10	0	0	0	0	508	615	
11	0	0	0	0	508	615	
12	0	0	0	0	508	615	
13	0	0	0	0	508	615	
14	0	0	0	0	510	615	
15	0	0	0	0	511	615	
0	0	0	0	0	512	615	
1	0	0	0	0	512	615	
2	0	0	0	0	513	615	
3	0	0	0	0	514	615	
4	0	0	0	0	513	616	
5	0	0	0	0	512	617	
6	0	0	0	0	512	616	
7	0	0	0	0	513	616	
8	0	0	0	0	513	616	
9	0	0	0	0	512	616	
10	0	0	0	0	511	616	
11	0	0	0	0	511	616	
12	0	0	0	0	511	617	
13	0	0	0	0	512	617	
14	0	0	0	0	512	617	
15	0	0	0	0	512	617	
0	0	0	0	0	512	617	
1	0	0	0	0	511	616	
2	0	0	0	0	512	617	
3	0	0	0	0	511	616	
4	0	0	0	0	512	617	
5	0	0	0	0	512	616	
6	0	0	0	0	513	616	
7	0	0	0	0	513	616	
8	0	0	0	0	513	616	
9	0	0	0	0	512	616	
10	0	0	0	0	513	616	
11	0	0	0	0	514	616	
12	0	0	0	0	515	615	
13	0	0	0	0	517	617	
14	0	0	0	0	516	616	
15	0	0	0	0	515	616	
0	0	0	0	0	517	616	
1	0	0	0	0	518	615	
2	0	0	0	0	518	615	
3	0	0	0	0	519	615	
4	0	0	0	0	519	616	
5	0	0	0	0	519	616	
6	0	0	0	0	519	616	
7	0	0	0	0	519	615	
8	0	0	0	0	519	615	
9	0	0	0	0	519	616	
10	0	0	0	0	520	615	
11	0	0	0	0	522	615	
12	0	0	0	0	522	615	
13	0	0	0	0	523	616	
14	0	0	0	0	525	616	
15	0	0	0	0	528	615	
0	0	0	0	0	528	615	
1	0	0	0	0	531	615	
2	0	0	0	0	534	615	
3	0	0	0	0	535	615	
4	0	0	0	0	536	615	
5	0	0	0	0	538	616	
6	0	0	0	0	540	616	
7	0	0	0	0	542	615	
8	0	0	0	0	544	616	
9	0	0	0	0	547	615	
10	0	0	0	0	551	615	
11	0	0	0	0	562	616	
12	0	0	0	0	577	616	
13	0	0	0	0	593	616	
14	0	0	0	0	606	616	
15	0	0	0	0	620	617	
0	0	0	0	0	635	617	
1	0	0	0	0	647	616	
2	0	0	0	0	660	618	
3	0	0	0	0	675	617	
4	0	0	0	0	689	617	
5	0	0	0	0	702	617	
6	0	0	0	0	711	617	
7	0	0	0	0	719	617	
8	0	0	0	0	726	617	
9	0	0	0	0	727	617	
10	0	0	0	0	723	618	
11	0	0	0	0	710	617	
12	0	0	0	0	692	618	
13	0	0	0	0	673	617	
14	0	0	0	0	655	618	
15	0	0	0	0	638	617	
0	0	0	0	0	623	618	
1	0	0	0	0	613	618	
2	0	0	0	0	603	618	
3	0	0	0	0	593	618	
4	0	0	0	0	587	617	
5	0	0	0	0	583	618	
6	0	0	0	0	582	617	
7	0	0	0	0	585	617	
8	0	0	0	0	586	617	
9	0	0	0	0	588	617	
10	0	0	0	0	588	617	
11	0	0	0	0	590	616	
12	0	0	0	0	592	616	
13	0	0	0	0	594	617	
14	0	0	0	0	593	616	
15	0	0	0	0	590	616	
0	0	0	0	0	585	616	
1	0	0	0	0	579	616	
2	0	0	0	0	572	616	
3	0	0	0	0	563	616	
4	0	0	0	0	554	616	
5	0	0	0	0	544	616	
6	0	0	0	0	533	616	
7	0	0	0	0	522	616	
8	0	0	0	0	512	616	
9	0	0	0	0	504	616	
10	0	0	0	0	496	616	
11	0	0	0	0	487	616	
12	0	0	0	0	480	616	
13	0	0	0	0	473	616	
14	0	0	0	0	466	615	
15	0	0	0	0	462	616	
0	0	0	0	0	458	616	
1	0	0	0	0	455	615	
2	0	0	0	0	454	615	
3	0	0	0	0	453	615	
4	0	0	0	0	453	615	
5	0	0	0	0	452	615	
6	0	0	0	0	453	615	
7	0	0	0	0	455	615	
8	0	0	0	0	455	615	
9	0	0	0	0	455	615	
10	0	0	0	0	455	615	
11	0	0	0	0	455	615	
12	0	0	0	0	456	614	
13	0	0	0	0	456	615	
14	0	0	0	0	455	614	
15	0	0	0	0	454	615	
0	0	0	0	0	454	615	
1	0	0	0	0	454	614	
2	0	0	0	0	454	615	
3	0	0	0	0	454	615	
4	0	0	0	0	454	614	
5	0	0	0	0	455	615	
6	0	0	0	0	456	615	
7	0	0	0	0	455	616	
8	0	0	0	0	456	615	
9	0	0	0	0	457	615	
10	0	0	0	0	457	615	
11	0	0	0	0	458	615	
12	0	0	0	0	458	615	
13	0	0	0	0	459	616	
14	0	0	0	0	458	616	
15	0	0	0	0	460	615	
0	0	0	0	0	460	615	
1	0	0	0	0	461	615	
2	0	0	0	0	461	616	
3	0	0	0	0	460	616	
4	0	0	0	0	460	616	
5	0	0	0	0	462	616	
6	0	0	0	0	464	616	
7	0	0	0	0	464	617	
8	0	0	0	0	464	616	
9	0	0	0	0	465	617	
10	0	0	0	0	465	616	
11	0	0	0	0	465	617	
12	0	0	0	0	464	617	
13	0	0	0	0	465	617	
14	0	0	0	0	467	617	
15	0	0	0	0	467	617	
0	0	0	0	0	469	617	
1	0	0	0	0	471	617	
2	0	0	0	0	471	617	
3	0	0	0	0	471	617	
4	0	0	0	0	471	617	
5	0	0	0	0	471	618	
6	0	0	0	0	471	617	
7	0	0	0	0	471	618	
8	0	0	0	0	470	617	
9	0	0	0	0	467	617	
10	0	0	0	0	467	617	
11	0	0	0	0	468	618	
12	0	0	0	0	470	618	
13	0	0	0	0	470	618	
14	0	0	0	0	469	618	
15	0	0	0	0	469	619	
0	0	0	0	0	470	619	
1	0	0	0	0	472	619	
2	0	0	0	0	470	619	
3	0	0	0	0	470	618	
4	0	0	0	0	470	618	
5	0	0	0	0	470	618	
6	0	0	0	0	469	617	
7	0	0	0	0	471	617	
8	0	0	0	0	471	617	
9	0	0	0	0	471	617	
10	0	0	0	0	472	617	
11	0	0	0	0	472	617	
12	0	0	0	0	473	617	
13	0	0	0	0	471	616	
14	0	0	0	0	472	617	
15	0	0	0	0	473	615	
0	0	0	0	0	473	616	
1	0	0	0	0	474	616	
2	0	0	0	0	474	615	
3	0	0	0	0	475	615	
4	0	0	0	0	476	615	
5	0	0	0	0	476	615	
6	0	0	0	0	475	615	
7	0	0	0	0	475	615	
8	0	0	0	0	475	615	
9	0	0	0	0	477	614	
10	0	0	0	0	478	614	
11	0	0	0	0	478	614	
12	0	0	0	0	477	614	
13	0	0	0	0	479	614	
14	0	0	0	0	481	614	
15	0	0	0	0	481	614	
0	0	0	0	0	482	614	
1	0	0	0	0	483	614	
2	0	0	0	0	482	614	
3	0	0	0	0	483	614	
4	0	0	0	0	482	614	
5	0	0	0	0	483	614	
6	0	0	0	0	482	614	
7	0	0	0	0	481	615	
8	0	0	0	0	482	614	
9	0	0	0	0	483	614	
10	0	0	0	0	481	615	
11	0	0	0	0	481	615	
12	0	0	0	0	481	614	
13	0	0	0	0	481	615	
14	0	0	0	0	482	614	
15	0	0	0	0	483	615	
0	0	0	0	0	483	615	
1	0	0	0	0	483	615	
2	0	0	0	0	482	615	
3	0	0	0	0	481	615	
4	0	0	0	0	481	615	
5	0	0	0	0	480	616	
6	0	0	0	0	479	616	
7	0	0	0	0	476	616	
8	0	0	0	0	474	616	
9	0	0	0	0	475	617	
10	0	0	0	0	476	616	
11	0	0	0	0	477	616	
12	0	0	0	0	477	617	
13	0	0	0	0	476	617	
14	0	0	0	0	475	617	
15	0	0	0	0	473	617	
0	0	0	0	0	472	617	
1	0	0	0	0	473	617	
2	0	0	0	0	474	617	
3	0	0	0	0	475	617	
4	0	0	0	0	476	617	
5	0	0	0	0	475	618	
6	0	0	0	0	474	618	
7	0	0	0	0	474	618	
8	0	0	0	0	473	618	
9	0	0	0	0	474	618	
10	0	0	0	0	472	618	
11	0	0	0	0	471	617	
12	0	0	0	0	472	618	
13	0	0	0	0	473	618	
14	0	0	0	0	474	617	
15	0	0	0	0	475	617	
0	0	0	0	0	476	617	
1	0	0	0	0	476	617	
2	0	0	0	0	475	617	
3	0	0	0	0	476	617	
4	0	0	0	0	476	617	
5	0	0	0	0	476	618	
6	0	0	0	0	476	617	
7	0	0	0	0	476	617	
8	0	0	0	0	476	617	
9	0	0	0	0	476	617	
10	0	0	0	0	475	617	
11	0	0	0	0	474	616	
12	0	0	0	0	472	616	
13	0	0	0	0	471	617	
14	0	0	0	0	470	616	
15	0	0	0	0	471	616	
0	0	0	0	0	471	616	
1	0	0	0	0	470	616	
2	0	0	0	0	470	617	
3	0	0	0	0	470	616	
4	0	0	0	0	469	616	
5	0	0	0	0	469	617	
6	0	0	0	0	471	617	
7	0	0	0	0	472	616	
8	0	0	0	0	473	617	
9	0	0	0	0	473	616	
10	0	0	0	0	475	617	
11	0	0	0	0	473	616	
12	0	0	0	0	472	616	
13	0	0	0	0	472	617	
14	0	0	0	0	471	616	
15	0	0	0	0	470	617	
0	0	0	0	0	468	617	
1	0	0	0	0	469	616	
2	0	0	0	0	470	616	
3	0	0	0	0	471	616	
4	0	0	0	0	470	616	
5	0	0	0	0	471	616	
6	0	0	0	0	472	616	
7	0	0	0	0	471	616	
8	0	0	0	0	471	616	
9	0	0	0	0	472	616	
10	0	0	0	0	472	616	
11	0	0	0	0	473	617	
12	0	0	0	0	474	616	
13	0	0	0	0	475	616	
14	0	0	0	0	476	616	
15	0	0	0	0	475	616	
0	0	0	0	0	476	616	
1	0	0	0	0	477	615	
2	0	0	0	0	478	616	
3	0	0	0	0	477	616	
4	0	0	0	0	477	616	
5	0	0	0	0	478	616	
6	0	0	0	0	477	616	
7	0	0	0	0	476	616	
8	0	0	0	0	476	616	
9	0	0	0	0	476	616	
10	0	0	0	0	477	615	
11	0	0	0	0	477	615	
12	0	0	0	0	477	615	
13	0	0	0	0	477	616	
14	0	0	0	0	479	616	
15	0	0	0	0	481	615	
0	0	0	0	0	482	615	
1	0	0	0	0	483	615	
2	0	0	0	0	481	615	
3	0	0	0	0	481	615	
4	0	0	0	0	482	615	
5	0	0	0	0	481	615	
6	0	0	0	0	481	615	
7	0	0	0	0	483	615	
8	0	0	0	0	485	615	
9	0	0	0	0	486	616	
10	0	0	0	0	485	616	
11	0	0	0	0	486	615	
12	0	0	0	0	488	615	
13	0	0	0	0	488	616	
14	0	0	0	0	488	615	
15	0	0	0	0	487	615	
0	0	0	0	0	490	616	
1	0	0	0	0	492	616	
2	0	0	0	0	494	616	
3	0	0	0	0	495	615	
4	0	0	0	0	495	615	
5	0	0	0	0	496	615	
6	0	0	0	0	497	615	
7	0	0	0	0	498	615	
8	0	0	0	0	500	616	
9	0	0	0	0	501	615	
10	0	0	0	0	500	616	
11	0	0	0	0	499	615	
12	0	0	0	0	498	616	
13	0	0	0	0	499	617	
14	0	0	0	0	502	616	
15	0	0	0	0	504	616	
0	0	0	0	0	505	616	
1	0	0	0	0	505	616	
2	0	0	0	0	505	617	
3	0	0	0	0	507	617	
4	0	0	0	0	508	617	
5	0	0	0	0	507	617	
6	0	0	0	0	507	617	
7	0	0	0	0	506	617	
8	0	0	0	0	506	618	
9	0	0	0	0	505	618	
10	0	0	0	0	507	618	
11	0	0	0	0	507	617	
12	0	0	0	0	506	617	
13	0	0	0	0	504	617	
14	0	0	0	0	503	618	
15	0	0	0	0	504	618	
0	0	0	0	0	504	618	
1	0	0	0	0	506	617	
2	0	0	0	0	506	617	
3	0	0	0	0	504	617	
4	0	0	0	0	504	617	
5	0	0	0	0	505	617	
6	0	0	0	0	505	617	
7	0	0	0	0	505	617	
8	0	0	0	0	505	617	
9	0	0	0	0	506	616	
10	0	0	0	0	507	616	
11	0	0	0	0	507	616	
12	0	0	0	0	506	616	
13	0	0	0	0	507	617	
14	0	0	0	0	508	616	
15	0	0	0	0	507	616	
0	0	0	0	0	507	617	
1	0	0	0	0	507	616	
2	0	0	0	0	507	617	
3	0	0	0	0	507	616	
4	0	0	0	0	507	616	
5	0	0	0	0	507	617	
6	0	0	0	0	508	617	
7	0	0	0	0	509	616	
8	0	0	0	0	509	616	
9	0	0	0	0	508	615	
10	0	0	0	0	507	615	
11	0	0	0	0	507	616	
12	0	0	0	0	508	616	
13	0	0	0	0	508	616	
14	0	0	0	0	508	615	
15	0	0	0	0	508	615	
0	0	0	0	0	509	615	
1	0	0	0	0	508	615	
2	0	0	0	0	508	615	
3	0	0	0	0	509	615	
4	0	0	0	0	509	615	
5	0	0	0	0	510	615	
6	0	0	0	0	511	615	
7	0	0	0	0	511	615	
8	0	0	0	0	510	615	
9	0	0	0	0	509	615	
10	0	0	0	0	509	615	
11	0	0	0	0	509	615	
12	0	0	0	0	510	615	
13	0	0	0	0	511	615	
14	0	0	0	0	511	615	
15	0	0	0	0	511	615	
0	0	0	0	0	511	615	
1	0	0	0	0	512	615	
2	0	0	0	0	512	615	
3	0	0	0	0	513	615	
4	0	0	0	0	514	615	
5	0	0	0	0	515	615	
6	0	0	0	0	515	615	
7	0	0	0	0	514	616	
8	0	0	0	0	513	615	
9	0	0	0	0	512	616	
10	0	0	0	0	512	616	
11	0	0	0	0	511	616	
12	0	0	0	0	510	617	
13	0	0	0	0	510	617	
14	0	0	0	0	510	616	
15	0	0	0	0	511	617	
0	0	0	0	0	510	616	
1	0	0	0	0	511	616	
2	0	0	0	0	511	617	
3	0	0	0	0	508	616	
4	0	0	0	0	507	617	
5	0	0	0	0	508	617	
6	0	0	0	0	508	617	
7	0	0	0	0	507	616	
8	0	0	0	0	507	617	
9	0	0	0	0	508	616	
10	0	0	0	0	509	616	
11	0	0	0	0	510	616	
12	0	0	0	0	510	617	
13	0	0	0	0	510	617	
14	0	0	0	0	512	616	
15	0	0	0	0	512	616	
0	0	0	0	0	512	617	
1	0	0	0	0	512	616	
2	0	0	0	0	511	616	
3	0	0	0	0	510	617	
4	0	0	0	0	510	616	
5	0	0	0	0	511	616	
6	0	0	0	0	512	616	
7	0	0	0	0	512	617	
8	0	0	0	0	512	616	
9	0	0	0	0	513	616	
10	0	0	0	0	513	616	
11	0	0	0	0	514	616	
12	0	0	0	0	515	615	
13	0	0	0	0	515	615	
14	0	0	0	0	515	616	
15	0	0	0	0	515	615	
0	0	0	0	0	514	615	
1	0	0	0	0	515	616	
2	0	0	0	0	515	616	
3	0	0	0	0	515	615	
4	0	0	0	0	516	615	
5	0	0	0	0	515	615	
6	0	0	0	0	514	615	
7	0	0	0	0	514	615	
8	0	0	0	0	514	615	
9	0	0	0	0	515	615	
10	0	0	0	0	516	615	
11	0	0	0	0	518	615	
12	0	0	0	0	519	616	
13	0	0	0	0	519	616	
14	0	0	0	0	519	616	
15	0	0	0	0	519	616	
0	0	0	0	0	520	617	
1	0	0	0	0	520	617	
2	0	0	0	0	521	617	
3	0	0	0	0	519	617	
4	0	0	0	0	518	618	
5	0	0	0	0	517	618	
6	0	0	0	0	517	617	
7	0	0	0	0	516	617	
8	0	0	0	0	515	617	
9	0	0	0	0	515	618	
10	0	0	0	0	514	617	
11	0	0	0	0	514	617	
12	0	0	0	0	515	618	
13	0	0	0	0	516	618	
14	0	0	0	0	516	617	
15	0	0	0	0	516	618	
0	0	0	0	0	518	618	
1	0	0	0	0	518	617	
2	0	0	0	0	518	617	
3	0	0	0	0	518	617	
4	0	0	0	0	519	617	
5	0	0	0	0	520	617	
6	0	0	0	0	521	617	
7	0	0	0	0	523	617	
8	0	0	0	0	524	617	
9	0	0	0	0	524	616	
10	0	0	0	0	524	617	
11	0	0	0	0	524	617	
12	0	0	0	0	524	617	
13	0	0	0	0	523	617	
14	0	0	0	0	524	617	
15	0	0	0	0	524	617	
0	0	0	0	0	523	617	
1	0	0	0	0	524	617	
2	0	0	0	0	525	617	
3	0	0	0	0	525	617	
4	0	0	0	0	525	617	
5	0	0	0	0	525	617	
6	0	0	0	0	526	617	
7	0	0	0	0	527	617	
8	0	0	0	0	528	616	
9	0	0	0	0	531	616	
10	0	0	0	0	530	617	
11	0	0	0	0	531	617	
12	0	0	0	0	531	617	
13	0	0	0	0	531	617	
14	0	0	0	0	531	616	
15	0	0	0	0	529	615	
0	0	0	0	0	528	616	
1	0	0	0	0	528	615	
2	0	0	0	0	527	615	
3	0	0	0	0	527	616	
4	0	0	0	0	525	615	
5	0	0	0	0	524	615	
6	0	0	0	0	524	615	
7	0	0	0	0	523	615	
8	0	0	0	0	523	615	
9	0	0	0	0	523	615	
10	0	0	0	0	522	615	
11	0	0	0	0	520	615	
12	0	0	0	0	519	615	
13	0	0	0	0	519	615	
14	0	0	0	0	518	615	
15	0	0	0	0	518	615	
0	0	0	0	0	518	614	
1	0	0	0	0	518	615	
2	0	0	0	0	518	615	
3	0	0	0	0	517	615	
4	0	0	0	0	517	615	
5	0	0	0	0	517	616	
6	0	0	0	0	515	616	
7	0	0	0	0	516	616	
8	0	0	0	0	517	615	
9	0	0	0	0	515	615	
10	0	0	0	0	516	616	
11	0	0	0	0	517	615	
12	0	0	0	0	518	616	
13	0	0	0	0	519	616	
14	0	0	0	0	519	616	
15	0	0	0	0	519	616	
0	0	0	0	0	518	615	
1	0	0	0	0	518	615	
2	0	0	0	0	518	616	
3	0	0	0	0	518	616	
4	0	0	0	0	518	615	
5	0	0	0	0	517	615	
6	0	0	0	0	516	615	
7	0	0	0	0	514	615	
8	0	0	0	0	512	615	
9	0	0	0	0	512	615	
10	0	0	0	0	512	615	
11	0	0	0	0	511	615	
12	0	0	0	0	510	615	
13	0	0	0	0	511	615	
14	0	0	0	0	511	615	
15	0	0	0	0	511	615	
0	0	0	0	0	511	616	
1	0	0	0	0	510	616	
2	0	0	0	0	509	616	
3	0	0	0	0	509	616	
4	0	0	0	0	507	616	
5	0	0	0	0	508	617	
6	0	0	0	0	506	615	
7	0	0	0	0	505	616	
8	0	0	0	0	506	616	
9	0	0	0	0	506	615	
10	0	0	0	0	505	615	
11	0	0	0	0	504	615	
12	0	0	0	0	504	615	
13	0	0	0	0	504	615	
14	0	0	0	0	504	615	
15	0	0	0	0	505	615	
0	0	0	0	0	506	615	
1	0	0	0	0	507	615	
2	0	0	0	0	508	614	
3	0	0	0	0	507	615	
4	0	0	0	0	509	615	
5	0	0	0	0	508	615	
6	0	0	0	0	509	615	
7	0	0	0	0	508	615	
8	0	0	0	0	507	615	
9	0	0	0	0	508	615	
10	0	0	0	0	509	616	
11	0	0	0	0	508	616	
12	0	0	0	0	509	616	
13	0	0	0	0	510	616	
14	0	0	0	0	510	616	
15	0	0	0	0	509	616	
0	0	0	0	0	509	616	
1	0	0	0	0	510	617	
2	0	0	0	0	510	617	
3	0	0	0	0	510	617	
4	0	0	0	0	511	617	
5	0	0	0	0	511	618	
6	0	0	0	0	510	617	
7	0	0	0	0	510	618	
8	0	0	0	0	511	617	
9	0	0	0	0	511	617	
10	0	0	0	0	511	617	
11	0	0	0	0	512	617	
12	0	0	0	0	511	618	
13	0	0	0	0	512	617	
14	0	0	0	0	513	618	
15	0	0	0	0	515	617	
0	0	0	0	0	515	617	
1	0	0	0	0	515	617	
2	0	0	0	0	515	617	
3	0	0	0	0	514	618	
4	0	0	0	0	513	617	
5	0	0	0	0	513	617	
6	0	0	0	0	513	617	
7	0	0	0	0	516	618	
8	0	0	0	0	517	618	
9	0	0	0	0	516	617	
10	0	0	0	0	519	617	
11	0	0	0	0	521	617	
12	0	0	0	0	522	617	
13	0	0	0	0	524	617	
14	0	0	0	0	523	617	
15	0	0	0	0	523	617	
0	0	0	0	0	524	617	
1	0	0	0	0	523	616	
2	0	0	0	0	523	616	
3	0	0	0	0	522	617	
4	0	0	0	0	521	616	
5	0	0	0	0	520	617	
6	0	0	0	0	519	616	
7	0	0	0	0	519	617	
8	0	0	0	0	519	617	
9	0	0	0	0	519	616	
10	0	0	0	0	518	617	
11	0	0	0	0	517	616	
12	0	0	0	0	519	617	
13	0	0	0	0	521	617	
14	0	0	0	0	520	616	
15	0	0	0	0	521	615	
0	0	0	0	0	521	616	
1	0	0	0	0	522	616	
2	0	0	0	0	521	616	
3	0	0	0	0	521	616	
4	0	0	0	0	521	615	
5	0	0	0	0	521	616	
6	0	0	0	0	520	615	
7	0	0	0	0	521	615	
8	0	0	0	0	520	615	
9	0	0	0	0	520	615	
10	0	0	0	0	520	615	
11	0	0	0	0	519	615	
12	0	0	0	0	519	615	
13	0	0	0	0	518	615	
14	0	0	0	0	516	615	
15	0	0	0	0	518	615	
0	0	0	0	0	519	615	
1	0	0	0	0	519	615	
2	0	0	0	0	520	615	
3	0	0	0	0	518	615	
4	0	0	0	0	517	616	
5	0	0	0	0	517	616	
6	0	0	0	0	519	616	
7	0	0	0	0	519	616	
8	0	0	0	0	520	616	
9	0	0	0	0	520	617	
10	0	0	0	0	520	617	
11	0	0	0	0	519	617	
12	0	0	0	0	520	616	
13	0	0	0	0	520	617	
14	0	0	0	0	520	617	
15	0	0	0	0	518	616	
0	0	0	0	0	517	617	
1	0	0	0	0	518	617	
2	0	0	0	0	518	616	
3	0	0	0	0	515	616	
4	0	0	0	0	514	616	
5	0	0	0	0	513	616	
6	0	0	0	0	512	616	
7	0	0	0	0	513	616	
8	0	0	0	0	514	616	
9	0	0	0	0	514	616	
10	0	0	0	0	516	616	
11	0	0	0	0	517	616	
12	0	0	0	0	518	617	
13	0	0	0	0	519	616	
14	0	0	0	0	518	616	
15	0	0	0	0	518	615	
0	0	0	0	0	519	616	
1	0	0	0	0	519	617	
2	0	0	0	0	517	616	
3	0	0	0	0	517	616	
4	0	0	0	0	517	616	
5	0	0	0	0	518	617	
6	0	0	0	0	519	616	
7	0	0	0	0	520	616	
8	0	0	0	0	519	616	
9	0	0	0	0	519	615	
10	0	0	0	0	519	615	
11	0	0	0	0	520	615	
12	0	0	0	0	521	616	
13	0	0	0	0	522	616	
14	0	0	0	0	523	616	
15	0	0	0	0	524	615	
0	0	0	0	0	525	615	
1	0	0	0	0	526	615	
2	0	0	0	0	525	615	
3	0	0	0	0	526	615	
4	0	0	0	0	526	615	
5	0	0	0	0	524	615	
6	0	0	0	0	524	615	
7	0	0	0	0	523	615	
8	0	0	0	0	522	615	
9	0	0	0	0	521	615	
10	0	0	0	0	520	615	
11	0	0	0	0	520	615	
12	0	0	0	0	518	615	
13	0	0	0	0	517	615	
14	0	0	0	0	515	615	
15	0	0	0	0	516	615	
0	0	0	0	0	517	615	
1	0	0	0	0	517	615	
2	0	0	0	0	516	615	
3	0	0	0	0	517	615	
4	0	0	0	0	516	617	
5	0	0	0	0	516	616	
6	0	0	0	0	516	615	
7	0	0	0	0	515	616	
8	0	0	0	0	515	616	
9	0	0	0	0	515	616	
10	0	0	0	0	513	616	
11	0	0	0	0	513	616	
12	0	0	0	0	512	616	
13	0	0	0	0	511	616	
14	0	0	0	0	510	617	
15	0	0	0	0	510	617	
0	0	0	0	0	510	617	
1	0	0	0	0	510	617	
2	0	0	0	0	510	616	
3	0	0	0	0	510	617	
4	0	0	0	0	512	616	
5	0	0	0	0	513	617	
6	0	0	0	0	513	617	
7	0	0	0	0	512	617	
8	0	0	0	0	511	617	
9	0	0	0	0	511	617	
10	0	0	0	0	510	617	
11	0	0	0	0	510	617	
12	0	0	0	0	510	616	
13	0	0	0	0	511	618	
14	0	0	0	0	509	617	
15	0	0	0	0	507	617	
0	0	0	0	0	505	617	
1	0	0	0	0	504	618	
2	0	0	0	0	503	617	
3	0	0	0	0	502	617	
4	0	0	0	0	503	617	
5	0	0	0	0	504	617	
6	0	0	0	0	503	618	
7	0	0	0	0	503	618	
8	0	0	0	0	504	618	
9	0	0	0	0	502	618	
10	0	0	0	0	502	618	
11	0	0	0	0	501	617	
12	0	0	0	0	499	617	
13	0	0	0	0	499	618	
14	0	0	0	0	499	617	
15	0	0	0	0	499	617	
0	0	0	0	0	499	617	
1	0	0	0	0	499	617	
2	0	0	0	0	501	617	
3	0	0	0	0	501	616	
4	0	0	0	0	501	617	
5	0	0	0	0	501	617	
6	0	0	0	0	502	617	
7	0	0	0	0	503	617	
8	0	0	0	0	502	617	
9	0	0	0	0	503	616	
10	0	0	0	0	502	615	
11	0	0	0	0	502	616	
12	0	0	0	0	503	617	
13	0	0	0	0	504	617	
14	0	0	0	0	504	616	
15	0	0	0	0	504	616	
0	0	0	0	0	504	616	
1	0	0	0	0	504	616	
2	0	0	0	0	504	616	
3	0	0	0	0	504	616	
4	0	0	0	0	503	616	
5	0	0	0	0	503	616	
6	0	0	0	0	504	616	
7	0	0	0	0	504	615	
8	0	0	0	0	505	615	
9	0	0	0	0	505	615	
10	0	0	0	0	504	615	
11	0	0	0	0	503	615	
12	0	0	0	0	502	615	
13	0	0	0	0	501	615	
14	0	0	0	0	501	615	
15	0	0	0	0	500	615	
0	0	0	0	0	500	615	
1	0	0	0	0	499	615	
2	0	0	0	0	500	615	
3	0	0	0	0	500	615	
4	0	0	0	0	502	614	
5	0	0	0	0	502	615	
6	0	0	0	0	501	614	
7	0	0	0	0	502	615	
8	0	0	0	0	501	615	
9	0	0	0	0	502	614	
10	0	0	0	0	502	614	
11	0	0	0	0	499	615	
12	0	0	0	0	497	615	
13	0	0	0	0	496	615	
14	0	0	0	0	495	614	
15	0	0	0	0	494	614	
0	0	0	0	0	494	614	
1	0	0	0	0	494	615	
2	0	0	0	0	494	615	
3	0	0	0	0	496	615	
4	0	0	0	0	498	615	
5	0	0	0	0	499	616	
6	0	0	0	0	497	615	
7	0	0	0	0	497	615	
8	0	0	0	0	496	615	
9	0	0	0	0	496	615	
10	0	0	0	0	496	616	
11	0	0	0	0	496	615	
12	0	0	0	0	496	615	
13	0	0	0	0	496	616	
14	0	0	0	0	495	616	
15	0	0	0	0	496	617	
0	0	0	0	0	497	617	
1	0	0	0	0	496	616	
2	0	0	0	0	496	616	
3	0	0	0	0	496	617	
4	0	0	0	0	495	617	
5	0	0	0	0	496	617	
6	0	0	0	0	498	616	
7	0	0	0	0	499	617	
8	0	0	0	0	498	617	
9	0	0	0	0	499	617	
10	0	0	0	0	499	617	
11	0	0	0	0	499	617	
12	0	0	0	0	498	617	
13	0	0	0	0	499	617	
14	0	0	0	0	499	617	
15	0	0	0	0	500	617	
0	0	0	0	0	499	617	
1	0	0	0	0	499	617	
2	0	0	0	0	499	617	
3	0	0	0	0	500	617	
4	0	0	0	0	500	617	
5	0	0	0	0	500	617	
6	0	0	0	0	500	617	
7	0	0	0	0	501	617	
8	0	0	0	0	501	617	
9	0	0	0	0	500	617	
10	0	0	0	0	499	617	
11	0	0	0	0	500	617	
12	0	0	0	0	502	617	
13	0	0	0	0	502	617	
14	0	0	0	0	502	616	
15	0	0	0	0	502	617	
0	0	0	0	0	504	616	
1	0	0	0	0	504	617	
2	0	0	0	0	503	616	
3	0	0	0	0	504	617	
4	0	0	0	0	503	617	
5	0	0	0	0	502	616	
6	0	0	0	0	502	617	
7	0	0	0	0	503	617	
8	0	0	0	0	506	617	
9	0	0	0	0	507	616	
10	0	0	0	0	509	616	
11	0	0	0	0	509	617	
12	0	0	0	0	509	617	
13	0	0	0	0	510	616	
14	0	0	0	0	512	616	
15	0	0	0	0	515	616	
0	0	0	0	0	516	617	
1	0	0	0	0	516	617	
2	0	0	0	0	515	616	
3	0	0	0	0	515	616	
4	0	0	0	0	513	616	
5	0	0	0	0	514	616	
6	0	0	0	0	512	616	
7	0	0	0	0	513	616	
8	0	0	0	0	515	616	
9	0	0	0	0	514	616	
10	0	0	0	0	515	616	
11	0	0	0	0	515	616	
12	0	0	0	0	516	616	
13	0	0	0	0	516	616	
14	0	0	0	0	517	615	
15	0	0	0	0	518	616	
0	0	0	0	0	519	616	
1	0	0	0	0	518	616	
2	0	0	0	0	517	617	
3	0	0	0	0	516	616	
4	0	0	0	0	518	617	
5	0	0	0	0	517	616	
6	0	0	0	0	517	616	
7	0	0	0	0	517	616	
8	0	0	0	0	518	616	
9	0	0	0	0	519	617	
10	0	0	0	0	520	616	
11	0	0	0	0	520	616	
12	0	0	0	0	521	616	
13	0	0	0	0	520	617	
14	0	0	0	0	519	616	
15	0	0	0	0	518	616	
0	0	0	0	0	516	617	
1	0	0	0	0	515	617	
2	0	0	0	0	513	616	
3	0	0	0	0	513	617	
4	0	0	0	0	513	616	
5	0	0	0	0	514	617	
6	0	0	0	0	512	617	
7	0	0	0	0	511	617	
8	0	0	0	0	511	616	
9	0	0	0	0	511	616	
10	0	0	0	0	510	617	
11	0	0	0	0	508	617	
12	0	0	0	0	508	617	
13	0	0	0	0	509	617	
14	0	0	0	0	508	616	
15	0	0	0	0	509	616	
0	0	0	0	0	508	616	
1	0	0	0	0	508	615	
2	0	0	0	0	509	617	
3	0	0	0	0	508	616	
4	0	0	0	0	507	615	
5	0	0	0	0	506	615	
6	0	0	0	0	505	615	
7	0	0	0	0	506	615	
8	0	0	0	0	505	615	
9	0	0	0	0	504	615	
10	0	0	0	0	502	615	
11	0	0	0	0	502	615	
12	0	0	0	0	502	615	
13	0	0	0	0	502	615	
14	0	0	0	0	502	614	
15	0	0	0	0	502	614	
0	0	0	0	0	502	614	
1	0	0	0	0	503	614	
2	0	0	0	0	502	615	
3	0	0	0	0	503	615	
4	0	0	0	0	504	614	
5	0	0	0	0	502	615	
6	0	0	0	0	502	615	
7	0	0	0	0	502	615	
8	0	0	0	0	500	614	
9	0	0	0	0	499	615	
10	0	0	0	0	499	615	
11	0	0	0	0	499	615	
12	0	0	0	0	497	615	
13	0	0	0	0	496	615	
14	0	0	0	0	496	615	
15	0	0	0	0	495	615	
0	0	0	0	0	494	615	
1	0	0	0	0	493	616	
2	0	0	0	0	492	616	
3	0	0	0	0	493	616	
4	0	0	0	0	494	616	
5	0	0	0	0	495	617	
6	0	0	0	0	495	617	
7	0	0	0	0	493	617	
8	0	0	0	0	492	617	
9	0	0	0	0	492	617	
10	0	0	0	0	492	617	
11	0	0	0	0	492	618	
12	0	0	0	0	492	617	
13	0	0	0	0	493	618	
14	0	0	0	0	492	617	
15	0	0	0	0	493	618	
0	0	0	0	0	493	618	
1	0	0	0	0	492	618	
2	0	0	0	0	492	618	
3	0	0	0	0	491	618	
4	0	0	0	0	491	618	
5	0	0	0	0	491	618	
6	0	0	0	0	492	618	
7	0	0	0	0	492	618	
8	0	0	0	0	491	617	
9	0	0	0	0	491	617	
10	0	0	0	0	491	617	
11	0	0	0	0	489	616	
12	0	0	0	0	487	617	
13	0	0	0	0	486	617	
14	0	0	0	0	485	617	
15	0	0	0	0	485	617	
0	0	0	0	0	486	616	
1	0	0	0	0	487	616	
2	0	0	0	0	488	616	
3	0	0	0	0	490	616	
4	0	0	0	0	491	616	
5	0	0	0	0	491	616	
6	0	0	0	0	493	616	
7	0	0	0	0	491	615	
8	0	0	0	0	491	616	
9	0	0	0	0	489	616	
10	0	0	0	0	490	615	
11	0	0	0	0	490	615	
12	0	0	0	0	489	616	
13	0	0	0	0	489	616	
14	0	0	0	0	488	615	
15	0	0	0	0	488	615	
0	0	0	0	0	487	615	
1	0	0	0	0	486	615	
2	0	0	0	0	486	615	
3	0	0	0	0	486	615	
4	0	0	0	0	487	615	
5	0	0	0	0	486	615	
6	0	0	0	0	486	615	
7	0	0	0	0	487	615	
8	0	0	0	0	488	615	
9	0	0	0	0	489	615	
10	0	0	0	0	489	615	
11	0	0	0	0	488	615	
12	0	0	0	0	489	615	
13	0	0	0	0	489	616	
14	0	0	0	0	489	615	
15	0	0	0	0	489	615	
0	0	0	0	0	490	615	
1	0	0	0	0	491	615	
2	0	0	0	0	491	616	
3	0	0	0	0	491	615	
4	0	0	0	0	492	615	
5	0	0	0	0	491	615	
6	0	0	0	0	491	615	
7	0	0	0	0	491	615	
8	0	0	0	0	492	615	
9	0	0	0	0	491	615	
10	0	0	0	0	490	616	
11	0	0	0	0	490	615	
12	0	0	0	0	490	616	
13	0	0	0	0	490	617	
14	0	0	0	0	491	616	
15	0	0	0	0	490	616	
0	0	0	0	0	489	617	
1	0	0	0	0	489	617	
2	0	0	0	0	489	618	
3	0	0	0	0	489	617	
4	0	0	0	0	489	617	
5	0	0	0	0	487	619	
6	0	0	0	0	486	617	
7	0	0	0	0	487	618	
8	0	0	0	0	487	618	
9	0	0	0	0	485	618	
10	0	0	0	0	484	617	
11	0	0	0	0	484	617	
12	0	0	0	0	484	617	
13	0	0	0	0	483	618	
14	0	0	0	0	482	617	
15	0	0	0	0	483	617	
0	0	0	0	0	485	617	
1	0	0	0	0	484	617	
2	0	0	0	0	484	617	
3	0	0	0	0	484	616	
4	0	0	0	0	485	617	
5	0	0	0	0	486	617	
6	0	0	0	0	485	617	
7	0	0	0	0	483	616	
8	0	0	0	0	482	617	
9	0	0	0	0	482	617	
10	0	0	0	0	483	616	
11	0	0	0	0	482	616	
12	0	0	0	0	481	616	
13	0	0	0	0	480	616	
14	0	0	0	0	481	616	
15	0	0	0	0	483	615	
0	0	0	0	0	483	615	
1	0	0	0	0	486	615	
2	0	0	0	0	487	615	
3	0	0	0	0	491	616	
4	0	0	0	0	494	615	
5	0	0	0	0	497	616	
6	0	0	0	0	499	615	
7	0	0	0	0	501	615	
8	0	0	0	0	503	616	
9	0	0	0	0	505	616	
10	0	0	0	0	507	616	
11	0	0	0	0	514	615	
12	0	0	0	0	525	616	
13	0	0	0	0	537	616	
14	0	0	0	0	550	616	
15	0	0	0	0	563	616	
0	0	0	0	0	575	616	
1	0	0	0	0	591	615	
2	0	0	0	0	605	616	
3	0	0	0	0	620	616	
4	0	0	0	0	634	615	
5	0	0	0	0	647	616	
6	0	0	0	0	660	616	
7	0	0	0	0	672	616	
8	0	0	0	0	681	616	
9	0	0	0	0	686	616	
10	0	0	0	0	689	616	
11	0	0	0	0	688	615	
12	0	0	0	0	684	616	
13	0	0	0	0	669	615	
14	0	0	0	0	650	615	
15	0	0	0	0	630	615	
0	0	0	0	0	610	615	
1	0	0	0	0	593	615	
2	0	0	0	0	582	616	
3	0	0	0	0	572	616	
4	0	0	0	0	562	615	
5	0	0	0	0	554	616	
6	0	0	0	0	551	615	
7	0	0	0	0	549	615	
8	0	0	0	0	551	615	
9	0	0	0	0	553	615	
10	0	0	0	0	556	615	
11	0	0	0	0	560	615	
12	0	0	0	0	561	616	
13	0	0	0	0	564	615	
14	0	0	0	0	566	615	
15	0	0	0	0	567	615	
0	0	0	0	0	564	616	
1	0	0	0	0	559	616	
2	0	0	0	0	551	616	
3	0	0	0	0	540	617	
4	0	0	0	0	527	616	
5	0	0	0	0	515	617	
6	0	0	0	0	504	617	
7	0	0	0	0	492	617	
8	0	0	0	0	480	616	
9	0	0	0	0	468	617	
10	0	0	0	0	457	618	
11	0	0	0	0	448	618	
12	0	0	0	0	437	618	
13	0	0	0	0	428	618	
14	0	0	0	0	422	618	
15	0	0	0	0	415	619	
0	0	0	0	0	410	619	
1	0	0	0	0	406	619	
2	0	0	0	0	402	619	
3	0	0	0	0	399	619	
4	0	0	0	0	398	619	
5	0	0	0	0	397	619	
6	0	0	0	0	397	620	
7	0	0	0	0	398	619	
8	0	0	0	0	398	619	
9	0	0	0	0	397	619	
10	0	0	0	0	397	619	
11	0	0	0	0	397	619	
12	0	0	0	0	397	618	
13	0	0	0	0	396	618	
14	0	0	0	0	396	618	
15	0	0	0	0	398	617	
0	0	0	0	0	400	617	
1	0	0	0	0	401	617	
2	0	0	0	0	400	617	
3	0	0	0	0	400	617	
4	0	0	0	0	401	617	
5	0	0	0	0	400	617	
6	0	0	0	0	402	617	
7	0	0	0	0	403	616	
8	0	0	0	0	405	616	
9	0	0	0	0	405	615	
10	0	0	0	0	406	616	
11	0	0	0	0	409	616	
12	0	0	0	0	412	615	
13	0	0	0	0	414	615	
14	0	0	0	0	417	615	
15	0	0	0	0	419	615	
0	0	0	0	0	421	615	
1	0	0	0	0	421	615	
2	0	0	0	0	422	615	
3	0	0	0	0	422	615	
4	0	0	0	0	423	615	
5	0	0	0	0	425	615	
6	0	0	0	0	427	615	
7	0	0	0	0	428	615	
8	0	0	0	0	429	615	
9	0	0	0	0	430	615	
10	0	0	0	0	430	615	
11	0	0	0	0	430	614	
12	0	0	0	0	432	615	
13	0	0	0	0	432	615	
14	0	0	0	0	433	615	
15	0	0	0	0	436	615	
0	0	0	0	0	436	615	
1	0	0	0	0	437	615	
2	0	0	0	0	437	615	
3	0	0	0	0	440	615	
4	0	0	0	0	441	615	
5	0	0	0	0	441	615	
6	0	0	0	0	441	615	
7	0	0	0	0	440	615	
8	0	0	0	0	438	615	
9	0	0	0	0	436	614	
10	0	0	0	0	438	614	
11	0	0	0	0	439	615	
12	0	0	0	0	439	614	
13	0	0	0	0	440	614	
14	0	0	0	0	439	613	
15	0	0	0	0	438	614	
0	0	0	0	0	436	614	
1	0	0	0	0	438	614	
2	0	0	0	0	439	614	
3	0	0	0	0	439	613	
4	0	0	0	0	440	614	
5	0	0	0	0	441	614	
6	0	0	0	0	441	614	
7	0	0	0	0	441	615	
8	0	0	0	0	442	614	
9	0	0	0	0	443	615	
10	0	0	0	0	443	615	
11	0	0	0	0	442	615	
12	0	0	0	0	442	615	
13	0	0	0	0	442	615	
14	0	0	0	0	443	615	
15	0	0	0	0	443	615	
0	0	0	0	0	443	615	
1	0	0	0	0	443	616	
2	0	0	0	0	443	616	
3	0	0	0	0	444	616	
4	0	0	0	0	445	616	
5	0	0	0	0	447	616	
6	0	0	0	0	449	616	
7	0	0	0	0	452	616	
8	0	0	0	0	455	616	
9	0	0	0	0	456	616	
10	0	0	0	0	456	616	
11	0	0	0	0	456	616	
12	0	0	0	0	456	617	
13	0	0	0	0	457	617	
14	0	0	0	0	458	617	
15	0	0	0	0	459	617	
0	0	0	0	0	459	617	
1	0	0	0	0	461	616	
2	0	0	0	0	461	617	
3	0	0	0	0	461	617	
4	0	0	0	0	460	617	
5	0	0	0	0	462	617	
6	0	0	0	0	463	616	
7	0	0	0	0	464	616	
8	0	0	0	0	465	616	
9	0	0	0	0	465	616	
10	0	0	0	0	467	617	
11	0	0	0	0	468	617	
12	0	0	0	0	469	617	
13	0	0	0	0	470	617	
14	0	0	0	0	471	616	
15	0	0	0	0	472	616	
0	0	0	0	0	472	616	
1	0	0	0	0	472	616	
2	0	0	0	0	473	616	
3	0	0	0	0	472	616	
4	0	0	0	0	472	616	
5	0	0	0	0	472	617	
6	0	0	0	0	473	616	
7	0	0	0	0	473	616	
8	0	0	0	0	474	617	
9	0	0	0	0	475	616	
10	0	0	0	0	475	617	
11	0	0	0	0	475	616	
12	0	0	0	0	476	616	
13	0	0	0	0	476	617	
14	0	0	0	0	475	616	
15	0	0	0	0	475	617	
0	0	0	0	0	476	617	
1	0	0	0	0	478	617	
2	0	0	0	0	479	616	
3	0	0	0	0	479	616	
4	0	0	0	0	478	616	
5	0	0	0	0	477	617	
6	0	0	0	0	477	617	
7	0	0	0	0	477	617	
8	0	0	0	0	476	617	
9	0	0	0	0	476	617	
10	0	0	0	0	475	616	
11	0	0	0	0	473	617	
12	0	0	0	0	472	617	
13	0	0	0	0	472	618	
14	0	0	0	0	473	616	
15	0	0	0	0	474	616	
0	0	0	0	0	475	617	
1	0	0	0	0	476	617	
2	0	0	0	0	477	617	
3	0	0	0	0	478	616	
4	0	0	0	0	480	616	
5	0	0	0	0	481	616	
6	0	0	0	0	482	616	
7	0	0	0	0	482	616	
8	0	0	0	0	483	616	
9	0	0	0	0	484	616	
10	0	0	0	0	484	616	
11	0	0	0	0	483	616	
12	0	0	0	0	483	616	
13	0	0	0	0	483	616	
14	0	0	0	0	482	615	
15	0	0	0	0	481	616	
0	0	0	0	0	482	616	
1	0	0	0	0	482	617	
2	0	0	0	0	482	616	
3	0	0	0	0	484	617	
4	0	0	0	0	484	617	
5	0	0	0	0	485	617	
6	0	0	0	0	485	617	
7	0	0	0	0	487	617	
8	0	0	0	0	487	616	
9	0	0	0	0	488	616	
10	0	0	0	0	487	617	
11	0	0	0	0	486	617	
12	0	0	0	0	487	617	
13	0	0	0	0	487	616	
14	0	0	0	0	486	616	
15	0	0	0	0	486	616	
0	0	0	0	0	487	615	
1	0	0	0	0	486	616	
2	0	0	0	0	487	616	
3	0	0	0	0	488	616	
4	0	0	0	0	490	616	
5	0	0	0	0	491	616	
6	0	0	0	0	490	616	
7	0	0	0	0	490	615	
8	0	0	0	0	492	616	
9	0	0	0	0	493	616	
10	0	0	0	0	493	616	
11	0	0	0	0	495	615	
12	0	0	0	0	496	616	
13	0	0	0	0	496	616	
14	0	0	0	0	496	615	
15	0	0	0	0	495	615	
0	0	0	0	0	496	615	
1	0	0	0	0	496	615	
2	0	0	0	0	496	616	
3	0	0	0	0	495	615	
4	0	0	0	0	494	616	
5	0	0	0	0	493	616	
6	0	0	0	0	493	615	
7	0	0	0	0	493	616	
8	0	0	0	0	493	615	
9	0	0	0	0	494	616	
10	0	0	0	0	495	615	
11	0	0	0	0	496	615	
12	0	0	0	0	496	616	
13	0	0	0	0	496	616	
14	0	0	0	0	495	615	
15	0	0	0	0	496	615	
0	0	0	0	0	497	615	
1	0	0	0	0	496	615	
2	0	0	0	0	496	615	
3	0	0	0	0	495	616	
4	0	0	0	0	494	616	
5	0	0	0	0	495	616	
6	0	0	0	0	496	615	
7	0	0	0	0	496	615	
8	0	0	0	0	496	615	
9	0	0	0	0	496	616	
10	0	0	0	0	497	615	
11	0	0	0	0	498	616	
12	0	0	0	0	498	616	
13	0	0	0	0	498	616	
14	0	0	0	0	499	616	
15	0	0	0	0	500	616	
0	0	0	0	0	501	616	
1	0	0	0	0	501	616	
2	0	0	0	0	500	616	
3	0	0	0	0	502	616	
4	0	0	0	0	502	616	
5	0	0	0	0	502	617	
6	0	0	0	0	501	616	
7	0	0	0	0	500	616	
8	0	0	0	0	501	616	
9	0	0	0	0	501	616	
10	0	0	0	0	501	617	
11	0	0	0	0	501	617	
12	0	0	0	0	501	617	
13	0	0	0	0	501	617	
14	0	0	0	0	501	616	
15	0	0	0	0	503	617	
0	0	0	0	0	503	617	
1	0	0	0	0	504	617	
2	0	0	0	0	505	617	
3	0	0	0	0	505	617	
4	0	0	0	0	507	617	
5	0	0	0	0	509	618	
6	0	0	0	0	511	617	
7	0	0	0	0	513	617	
8	0	0	0	0	514	618	
9	0	0	0	0	517	618	
10	0	0	0	0	516	618	
11	0	0	0	0	517	618	
12	0	0	0	0	518	617	
13	0	0	0	0	519	617	
14	0	0	0	0	520	617	
15	0	0	0	0	521	617	
0	0	0	0	0	522	617	
1	0	0	0	0	523	617	
2	0	0	0	0	524	617	
3	0	0	0	0	525	616	
4	0	0	0	0	528	617	
5	0	0	0	0	531	617	
6	0	0	0	0	533	616	
7	0	0	0	0	534	616	
8	0	0	0	0	536	617	
9	0	0	0	0	536	616	
10	0	0	0	0	537	617	
11	0	0	0	0	539	616	
12	0	0	0	0	541	616	
13	0	0	0	0	541	616	
14	0	0	0	0	542	616	
15	0	0	0	0	543	615	
0	0	0	0	0	543	616	
1	0	0	0	0	542	615	
2	0	0	0	0	542	615	
3	0	0	0	0	542	615	
4	0	0	0	0	542	615	
5	0	0	0	0	544	615	
6	0	0	0	0	545	615	
7	0	0	0	0	546	615	
8	0	0	0	0	547	614	
9	0	0	0	0	550	614	
10	0	0	0	0	552	614	
11	0	0	0	0	554	613	
12	0	0	0	0	556	614	
13	0	0	0	0	556	614	
14	0	0	0	0	558	613	
15	0	0	0	0	558	614	
0	0	0	0	0	558	613	
1	0	0	0	0	558	614	
2	0	0	0	0	558	614	
3	0	0	0	0	558	614	
4	0	0	0	0	559	614	
5	0	0	0	0	559	615	
6	0	0	0	0	559	615	
7	0	0	0	0	558	614	
8	0	0	0	0	558	614	
9	0	0	0	0	558	615	
10	0	0	0	0	558	614	
11	0	0	0	0	556	614	
12	0	0	0	0	556	615	
13	0	0	0	0	557	615	
14	0	0	0	0	558	615	
15	0	0	0	0	558	615	
0	0	0	0	0	559	616	
1	0	0	0	0	558	615	
2	0	0	0	0	558	615	
3	0	0	0	0	556	615	
4	0	0	0	0	556	616	
5	0	0	0	0	557	617	
6	0	0	0	0	558	616	
7	0	0	0	0	558	617	
8	0	0	0	0	558	617	
9	0	0	0	0	556	617	
10	0	0	0	0	555	617	
11	0	0	0	0	552	617	
12	0	0	0	0	551	618	
13	0	0	0	0	549	618	
14	0	0	0	0	547	617	
15	0	0	0	0	546	617	
0	0	0	0	0	546	618	
1	0	0	0	0	546	618	
2	0	0	0	0	547	618	
3	0	0	0	0	546	617	
4	0	0	0	0	545	618	
5	0	0	0	0	546	618	
6	0	0	0	0	545	618	
7	0	0	0	0	545	617	
8	0	0	0	0	543	618	
9	0	0	0	0	543	617	
10	0	0	0	0	542	617	
11	0	0	0	0	542	618	
12	0	0	0	0	542	617	
13	0	0	0	0	541	617	
14	0	0	0	0	541	617	
15	0	0	0	0	541	617	
0	0	0	0	0	541	617	
1	0	0	0	0	540	616	
2	0	0	0	0	540	616	
3	0	0	0	0	538	616	
4	0	0	0	0	539	617	
5	0	0	0	0	540	616	
6	0	0	0	0	540	616	
7	0	0	0	0	540	616	
8	0	0	0	0	542	616	
9	0	0	0	0	541	616	
10	0	0	0	0	541	616	
11	0	0	0	0	542	616	
12	0	0	0	0	542	616	
13	0	0	0	0	543	616	
14	0	0	0	0	543	616	
15	0	0	0	0	543	616	
0	0	0	0	0	543	615	
1	0	0	0	0	543	616	
2	0	0	0	0	544	616	
3	0	0	0	0	543	615	
4	0	0	0	0	542	616	
5	0	0	0	0	541	616	
6	0	0	0	0	540	615	
7	0	0	0	0	539	615	
8	0	0	0	0	538	615	
9	0	0	0	0	537	616	
10	0	0	0	0	536	615	
11	0	0	0	0	537	616	
12	0	0	0	0	537	617	
13	0	0	0	0	536	617	
14	0	0	0	0	536	617	
15	0	0	0	0	536	616	
0	0	0	0	0	537	616	
1	0	0	0	0	537	617	
2	0	0	0	0	538	617	
3	0	0	0	0	537	617	
4	0	0	0	0	536	617	
5	0	0	0	0	534	617	
6	0	0	0	0	532	617	
7	0	0	0	0	529	616	
8	0	0	0	0	528	617	
9	0	0	0	0	527	617	
10	0	0	0	0	527	616	
11	0	0	0	0	527	617	
12	0	0	0	0	526	617	
13	0	0	0	0	527	616	
14	0	0	0	0	527	616	
15	0	0	0	0	526	616	
0	0	0	0	0	526	616	
1	0	0	0	0	525	616	
2	0	0	0	0	526	616	
3	0	0	0	0	525	617	
4	0	0	0	0	526	616	
5	0	0	0	0	526	617	
6	0	0	0	0	526	617	
7	0	0	0	0	527	617	
8	0	0	0	0	525	617	
9	0	0	0	0	524	617	
10	0	0	0	0	525	617	
11	0	0	0	0	523	617	
12	0	0	0	0	521	617	
13	0	0	0	0	520	617	
14	0	0	0	0	518	616	
15	0	0	0	0	518	616	
0	0	0	0	0	516	617	
1	0	0	0	0	515	617	
2	0	0	0	0	513	616	
3	0	0	0	0	512	616	
4	0	0	0	0	512	616	
5	0	0	0	0	513	617	
6	0	0	0	0	513	615	
7	0	0	0	0	515	616	
8	0	0	0	0	513	615	
9	0	0	0	0	513	615	
10	0	0	0	0	514	615	
11	0	0	0	0	516	615	
12	0	0	0	0	516	615	
13	0	0	0	0	517	615	
14	0	0	0	0	516	615	
15	0	0	0	0	515	615	
0	0	0	0	0	514	615	
1	0	0	0	0	514	615	
2	0	0	0	0	514	615	
3	0	0	0	0	514	614	
4	0	0	0	0	514	615	
5	0	0	0	0	513	615	
6	0	0	0	0	513	614	
7	0	0	0	0	511	614	
8	0	0	0	0	510	615	
9	0	0	0	0	510	615	
10	0	0	0	0	510	615	
11	0	0	0	0	510	615	
12	0	0	0	0	508	615	
13	0	0	0	0	508	615	
14	0	0	0	0	508	615	
15	0	0	0	0	507	615	
0	0	0	0	0	505	615	
1	0	0	0	0	504	615	
2	0	0	0	0	505	615	
3	0	0	0	0	507	616	
4	0	0	0	0	507	616	
5	0	0	0	0	509	616	
6	0	0	0	0	510	616	
7	0	0	0	0	512	615	
8	0	0	0	0	511	616	
9	0	0	0	0	511	616	
10	0	0	0	0	511	616	
11	0	0	0	0	512	615	
12	0	0	0	0	513	616	
13	0	0	0	0	513	616	
14	0	0	0	0	513	616	
15	0	0	0	0	513	615	
0	0	0	0	0	513	616	
1	0	0	0	0	515	616	
2	0	0	0	0	516	616	
3	0	0	0	0	517	616	
4	0	0	0	0	518	617	
5	0	0	0	0	516	616	
6	0	0	0	0	515	617	
7	0	0	0	0	514	616	
8	0	0	0	0	514	616	
9	0	0	0	0	512	617	
10	0	0	0	0	511	617	
11	0	0	0	0	511	617	
12	0	0	0	0	512	617	
13	0	0	0	0	513	618	
14	0	0	0	0	514	617	
15	0	0	0	0	513	617	
0	0	0	0	0	514	617	
1	0	0	0	0	514	617	
2	0	0	0	0	514	617	
3	0	0	0	0	515	618	
4	0	0	0	0	516	617	
5	0	0	0	0	518	618	
6	0	0	0	0	518	617	
7	0	0	0	0	517	617	
8	0	0	0	0	516	616	
9	0	0	0	0	516	617	
10	0	0	0	0	518	617	
11	0	0	0	0	517	617	
12	0	0	0	0	517	617	
13	0	0	0	0	516	617	
14	0	0	0	0	516	617	
15	0	0	0	0	515	616	
0	0	0	0	0	514	617	
1	0	0	0	0	513	616	
2	0	0	0	0	512	617	
3	0	0	0	0	513	617	
4	0	0	0	0	514	616	
5	0	0	0	0	515	617	
6	0	0	0	0	516	616	
7	0	0	0	0	517	616	
8	0	0	0	0	518	616	
9	0	0	0	0	519	617	
10	0	0	0	0	521	617	
11	0	0	0	0	523	616	
12	0	0	0	0	524	616	
13	0	0	0	0	524	617	
14	0	0	0	0	524	617	
15	0	0	0	0	524	616	
0	0	0	0	0	524	616	
1	0	0	0	0	526	615	
2	0	0	0	0	526	616	
3	0	0	0	0	528	615	
4	0	0	0	0	529	615	
5	0	0	0	0	531	615	
6	0	0	0	0	531	615	
7	0	0	0	0	532	615	
8	0	0	0	0	531	615	
9	0	0	0	0	531	615	
10	0	0	0	0	529	615	
11	0	0	0	0	529	615	
12	0	0	0	0	529	615	
13	0	0	0	0	528	615	
14	0	0	0	0	527	615	
15	0	0	0	0	526	615	
0	0	0	0	0	526	614	
1	0	0	0	0	525	615	
2	0	0	0	0	525	615	
3	0	0	0	0	525	615	
4	0	0	0	0	524	615	
5	0	0	0	0	526	615	
6	0	0	0	0	525	615	
7	0	0	0	0	527	615	
8	0	0	0	0	527	615	
9	0	0	0	0	527	615	
10	0	0	0	0	526	615	
11	0	0	0	0	525	615	
12	0	0	0	0	526	616	
13	0	0	0	0	525	616	
14	0	0	0	0	526	616	
15	0	0	0	0	527	616	
0	0	0	0	0	527	615	
1	0	0	0	0	528	616	
2	0	0	0	0	528	616	
3	0	0	0	0	528	616	
4	0	0	0	0	528	616	
5	0	0	0	0	526	616	
6	0	0	0	0	527	616	
7	0	0	0	0	527	616	
8	0	0	0	0	527	615	
9	0	0	0	0	527	616	
10	0	0	0	0	527	616	
11	0	0	0	0	527	616	
12	0	0	0	0	526	616	
13	0	0	0	0	526	616	
14	0	0	0	0	524	616	
15	0	0	0	0	523	617	
0	0	0	0	0	523	616	
1	0	0	0	0	522	617	
2	0	0	0	0	520	617	
3	0	0	0	0	519	616	
4	0	0	0	0	516	616	
5	0	0	0	0	517	616	
6	0	0	0	0	519	616	
7	0	0	0	0	519	616	
8	0	0	0	0	519	616	
9	0	0	0	0	519	616	
10	0	0	0	0	520	616	
11	0	0	0	0	521	616	
12	0	0	0	0	521	617	
13	0	0	0	0	521	617	
14	0	0	0	0	520	616	
15	0	0	0	0	520	616	
0	0	0	0	0	521	615	
1	0	0	0	0	521	615	
2	0	0	0	0	520	617	
3	0	0	0	0	521	616	
4	0	0	0	0	520	616	
5	0	0	0	0	519	617	
6	0	0	0	0	518	616	
7	0	0	0	0	517	616	
8	0	0	0	0	516	616	
9	0	0	0	0	515	616	
10	0	0	0	0	515	615	
11	0	0	0	0	515	616	
12	0	0	0	0	515	616	
13	0	0	0	0	515	616	
14	0	0	0	0	518	616	
15	0	0	0	0	517	615	
0	0	0	0	0	515	615	
1	0	0	0	0	515	615	
2	0	0	0	0	515	614	
3	0	0	0	0	515	616	
4	0	0	0	0	514	615	
5	0	0	0	0	512	616	
6	0	0	0	0	512	616	
7	0	0	0	0	512	616	
8	0	0	0	0	512	615	
9	0	0	0	0	511	616	
10	0	0	0	0	511	616	
11	0	0	0	0	511	617	
12	0	0	0	0	510	616	
13	0	0	0	0	511	617	
14	0	0	0	0	511	617	
15	0	0	0	0	511	617	
0	0	0	0	0	511	616	
1	0	0	0	0	509	616	
2	0	0	0	0	510	616	
3	0	0	0	0	509	617	
4	0	0	0	0	510	617	
5	0	0	0	0	510	617	
6	0	0	0	0	509	617	
7	0	0	0	0	509	617	
8	0	0	0	0	509	616	
9	0	0	0	0	510	617	
10	0	0	0	0	512	617	
11	0	0	0	0	510	617	
12	0	0	0	0	510	617	
13	0	0	0	0	510	617	
14	0	0	0	0	510	617	
15	0	0	0	0	510	617	
0	0	0	0	0	510	616	
1	0	0	0	0	510	617	
2	0	0	0	0	510	617	
3	0	0	0	0	511	616	
4	0	0	0	0	513	615	
5	0	0	0	0	513	617	
6	0	0	0	0	512	617	
7	0	0	0	0	511	617	
8	0	0	0	0	510	617	
9	0	0	0	0	508	616	
10	0	0	0	0	505	616	
11	0	0	0	0	506	617	
12	0	0	0	0	506	616	
13	0	0	0	0	507	616	
14	0	0	0	0	507	616	
15	0	0	0	0	508	616	
0	0	0	0	0	507	616	
1	0	0	0	0	508	616	
2	0	0	0	0	509	615	
3	0	0	0	0	509	615	
4	0	0	0	0	509	615	
5	0	0	0	0	510	616	
6	0	0	0	0	510	615	
7	0	0	0	0	511	615	
8	0	0	0	0	511	615	
9	0	0	0	0	511	615	
10	0	0	0	0	511	615	
11	0	0	0	0	511	615	
12	0	0	0	0	511	615	
13	0	0	0	0	512	615	
14	0	0	0	0	511	615	
15	0	0	0	0	511	615	
0	0	0	0	0	510	615	
1	0	0	0	0	510	615	
2	0	0	0	0	509	615	
3	0	0	0	0	509	615	
4	0	0	0	0	509	615	
5	0	0	0	0	508	616	
6	0	0	0	0	507	616	
7	0	0	0	0	507	615	
8	0	0	0	0	505	615	
9	0	0	0	0	505	615	
10	0	0	0	0	505	616	
11	0	0	0	0	506	615	
12	0	0	0	0	505	616	
13	0	0	0	0	504	616	
14	0	0	0	0	504	615	
15	0	0	0	0	504	615	
0	0	0	0	0	504	616	
1	0	0	0	0	504	615	
2	0	0	0	0	502	616	
3	0	0	0	0	502	616	
4	0	0	0	0	501	616	
5	0	0	0	0	501	617	
6	0	0	0	0	501	616	
7	0	0	0	0	502	616	
8	0	0	0	0	502	616	
9	0	0	0	0	503	616	
10	0	0	0	0	503	616	
11	0	0	0	0	504	616	
12	0	0	0	0	504	616	
13	0	0	0	0	504	617	
14	0	0	0	0	504	616	
15	0	0	0	0	504	616	
0	0	0	0	0	504	616	
1	0	0	0	0	502	617	
2	0	0	0	0	502	617	
3	0	0	0	0	503	617	
4	0	0	0	0	502	617	
5	0	0	0	0	502	617	
6	0	0	0	0	503	617	
7	0	0	0	0	504	617	
8	0	0	0	0	504	617	
9	0	0	0	0	504	617	
10	0	0	0	0	505	617	
11	0	0	0	0	506	617	
12	0	0	0	0	507	617	
13	0	0	0	0	509	618	
14	0	0	0	0	510	617	
15	0	0	0	0	511	618	
0	0	0	0	0	512	617	
1	0	0	0	0	512	617	
2	0	0	0	0	514	618	
3	0	0	0	0	513	618	
4	0	0	0	0	511	617	
5	0	0	0	0	510	617	
6	0	0	0	0	511	618	
7	0	0	0	0	511	617	
8	0	0	0	0	512	617	
9	0	0	0	0	512	617	
10	0	0	0	0	511	617	
11	0	0	0	0	511	617	
12	0	0	0	0	510	616	
13	0	0	0	0	508	617	
14	0	0	0	0	509	616	
15	0	0	0	0	508	616	
0	0	0	0	0	509	617	
1	0	0	0	0	509	616	
2	0	0	0	0	508	615	
3	0	0	0	0	507	615	
4	0	0	0	0	505	615	
5	0	0	0	0	503	616	
6	0	0	0	0	500	615	
7	0	0	0	0	501	615	
8	0	0	0	0	501	615	
9	0	0	0	0	500	615	
10	0	0	0	0	499	615	
11	0	0	0	0	499	615	
12	0	0	0	0	498	615	
13	0	0	0	0	498	615	
14	0	0	0	0	497	615	
15	0	0	0	0	497	615	
0	0	0	0	0	497	615	
1	0	0	0	0	497	615	
2	0	0	0	0	497	615	
3	0	0	0	0	496	614	
4	0	0	0	0	497	615	
5	0	0	0	0	496	615	
6	0	0	0	0	497	615	
7	0	0	0	0	497	615	
8	0	0	0	0	497	615	
9	0	0	0	0	498	615	
10	0	0	0	0	497	615	
11	0	0	0	0	497	615	
12	0	0	0	0	497	615	
13	0	0	0	0	497	615	
14	0	0	0	0	497	615	
15	0	0	0	0	496	615	
0	0	0	0	0	496	615	
1	0	0	0	0	497	615	
2	0	0	0	0	497	615	
3	0	0	0	0	496	615	
4	0	0	0	0	497	615	
5	0	0	0	0	497	615	
6	0	0	0	0	497	615	
7	0	0	0	0	496	615	
8	0	0	0	0	496	615	
9	0	0	0	0	497	615	
10	0	0	0	0	497	615	
11	0	0	0	0	497	615	
12	0	0	0	0	498	616	
13	0	0	0	0	498	617	
14	0	0	0	0	498	616	
15	0	0	0	0	499	616	
0	0	0	0	0	500	616	
1	0	0	0	0	501	615	
2	0	0	0	0	499	616	
3	0	0	0	0	498	616	
4	0	0	0	0	499	616	
5	0	0	0	0	498	616	
6	0	0	0	0	497	616	
7	0	0	0	0	496	616	
8	0	0	0	0	495	615	
9	0	0	0	0	494	616	
10	0	0	0	0	495	615	
11	0	0	0	0	496	615	
12	0	0	0	0	496	615	
13	0	0	0	0	496	615	
14	0	0	0	0	495	615	
15	0	0	0	0	496	615	
0	0	0	0	0	496	615	
1	0	0	0	0	495	615	
2	0	0	0	0	496	616	
3	0	0	0	0	497	616	
4	0	0	0	0	498	616	
5	0	0	0	0	498	616	
6	0	0	0	0	497	616	
7	0	0	0	0	497	616	
8	0	0	0	0	497	616	
9	0	0	0	0	498	616	
10	0	0	0	0	497	616	
11	0	0	0	0	498	616	
12	0	0	0	0	497	616	
13	0	0	0	0	497	617	
14	0	0	0	0	497	616	
15	0	0	0	0	498	616	
0	0	0	0	0	500	616	
1	0	0	0	0	500	615	
2	0	0	0	0	499	616	
3	0	0	0	0	499	615	
4	0	0	0	0	497	616	
5	0	0	0	0	497	617	
6	0	0	0	0	496	616	
7	0	0	0	0	495	616	
8	0	0	0	0	496	616	
9	0	0	0	0	496	616	
10	0	0	0	0	496	617	
11	0	0	0	0	495	616	
12	0	0	0	0	494	616	
13	0	0	0	0	493	616	
14	0	0	0	0	493	616	
15	0	0	0	0	492	617	
0	0	0	0	0	492	616	
1	0	0	0	0	494	617	
2	0	0	0	0	495	617	
3	0	0	0	0	496	617	
4	0	0	0	0	496	617	
5	0	0	0	0	497	617	
6	0	0	0	0	498	617	
7	0	0	0	0	499	617	
8	0	0	0	0	500	617	
9	0	0	0	0	502	618	
10	0	0	0	0	503	617	
11	0	0	0	0	501	617	
12	0	0	0	0	501	617	
13	0	0	0	0	501	617	
14	0	0	0	0	502	618	
15	0	0	0	0	500	618	
0	0	0	0	0	501	617	
1	0	0	0	0	501	618	
2	0	0	0	0	502	618	
3	0	0	0	0	503	618	
4	0	0	0	0	502	618	
5	0	0	0	0	502	618	
6	0	0	0	0	501	618	
7	0	0	0	0	501	618	
8	0	0	0	0	502	617	
9	0	0	0	0	504	617	
10	0	0	0	0	505	618	
11	0	0	0	0	506	618	
12	0	0	0	0	505	618	
13	0	0	0	0	506	619	
14	0	0	0	0	506	618	
15	0	0	0	0	505	618	
0	0	0	0	0	507	618	
1	0	0	0	0	507	618	
2	0	0	0	0	508	618	
3	0	0	0	0	508	617	
4	0	0	0	0	509	617	
5	0	0	0	0	510	617	
6	0	0	0	0	511	617	
7	0	0	0	0	512	617	
8	0	0	0	0	512	617	
9	0	0	0	0	510	617	
10	0	0	0	0	508	617	
11	0	0	0	0	508	616	
12	0	0	0	0	507	616	
13	0	0	0	0	507	616	
14	0	0	0	0	508	616	
15	0	0	0	0	509	616	
0	0	0	0	0	508	615	
1	0	0	0	0	509	615	
2	0	0	0	0	509	615	
3	0	0	0	0	509	615	
4	0	0	0	0	508	614	
5	0	0	0	0	506	615	
6	0	0	0	0	507	614	
7	0	0	0	0	504	615	
8	0	0	0	0	503	615	
9	0	0	0	0	503	614	
10	0	0	0	0	502	615	
11	0	0	0	0	502	615	
12	0	0	0	0	503	614	
13	0	0	0	0	503	615	
14	0	0	0	0	503	614	
15	0	0	0	0	503	614	
0	0	0	0	0	502	615	
1	0	0	0	0	503	615	
2	0	0	0	0	503	614	
3	0	0	0	0	504	615	
4	0	0	0	0	505	614	
5	0	0	0	0	504	615	
6	0	0	0	0	503	615	
7	0	0	0	0	502	614	
8	0	0	0	0	499	615	
9	0	0	0	0	498	615	
10	0	0	0	0	497	615	
11	0	0	0	0	494	615	
12	0	0	0	0	494	615	
13	0	0	0	0	493	615	
14	0	0	0	0	492	615	
15	0	0	0	0	492	616	
0	0	0	0	0	491	616	
1	0	0	0	0	492	616	
2	0	0	0	0	494	615	
3	0	0	0	0	496	616	
4	0	0	0	0	498	616	
5	0	0	0	0	499	616	
6	0	0	0	0	499	616	
7	0	0	0	0	499	616	
8	0	0	0	0	499	616	
9	0	0	0	0	500	617	
10	0	0	0	0	500	616	
11	0	0	0	0	502	616	
12	0	0	0	0	503	616	
13	0	0	0	0	503	616	
14	0	0	0	0	503	616	
15	0	0	0	0	503	616	
0	0	0	0	0	502	616	
1	0	0	0	0	500	616	
2	0	0	0	0	499	616	
3	0	0	0	0	498	616	
4	0	0	0	0	498	617	
5	0	0	0	0	499	617	
6	0	0	0	0	501	617	
7	0	0	0	0	501	617	
8	0	0	0	0	502	617	
9	0	0	0	0	502	617	
10	0	0	0	0	503	618	
11	0	0	0	0	502	617	
12	0	0	0	0	499	617	
13	0	0	0	0	499	617	
14	0	0	0	0	500	617	
15	0	0	0	0	500	617	
0	0	0	0	0	499	617	
1	0	0	0	0	498	617	
2	0	0	0	0	497	617	
3	0	0	0	0	496	617	
4	0	0	0	0	493	616	
5	0	0	0	0	492	616	
6	0	0	0	0	491	617	
7	0	0	0	0	491	616	
8	0	0	0	0	492	616	
9	0	0	0	0	490	616	
10	0	0	0	0	488	615	
11	0	0	0	0	488	616	
12	0	0	0	0	489	615	
13	0	0	0	0	489	615	
14	0	0	0	0	489	616	
15	0	0	0	0	490	615	
0	0	0	0	0	490	615	
1	0	0	0	0	491	616	
2	0	0	0	0	492	616	
3	0	0	0	0	492	615	
4	0	0	0	0	492	615	
5	0	0	0	0	491	615	
6	0	0	0	0	490	615	
7	0	0	0	0	487	615	
8	0	0	0	0	486	615	
9	0	0	0	0	486	615	
10	0	0	0	0	486	615	
11	0	0	0	0	487	615	
12	0	0	0	0	487	615	
13	0	0	0	0	487	615	
14	0	0	0	0	487	615	
15	0	0	0	0	486	615	
0	0	0	0	0	486	615	
1	0	0	0	0	485	615	
2	0	0	0	0	484	615	
3	0	0	0	0	484	615	
4	0	0	0	0	484	615	
5	0	0	0	0	484	615	
6	0	0	0	0	484	615	
7	0	0	0	0	484	616	
8	0	0	0	0	483	615	
9	0	0	0	0	483	615	
10	0	0	0	0	484	615	
11	0	0	0	0	484	616	
12	0	0	0	0	483	617	
13	0	0	0	0	483	617	
14	0	0	0	0	484	616	
15	0	0	0	0	485	617	
0	0	0	0	0	486	616	
1	0	0	0	0	486	615	
2	0	0	0	0	487	616	
3	0	0	0	0	489	615	
4	0	0	0	0	490	616	
5	0	0	0	0	489	616	
6	0	0	0	0	489	616	
7	0	0	0	0	489	616	
8	0	0	0	0	491	616	
9	0	0	0	0	492	616	
10	0	0	0	0	491	616	
11	0	0	0	0	490	617	
12	0	0	0	0	492	616	
13	0	0	0	0	493	617	
14	0	0	0	0	492	616	
15	0	0	0	0	492	617	
0	0	0	0	0	491	616	
1	0	0	0	0	491	615	
2	0	0	0	0	492	616	
3	0	0	0	0	494	615	
4	0	0	0	0	494	616	
5	0	0	0	0	494	616	
6	0	0	0	0	494	615	
7	0	0	0	0	493	615	
8	0	0	0	0	492	617	
9	0	0	0	0	495	616	
10	0	0	0	0	496	616	
11	0	0	0	0	498	616	
12	0	0	0	0	499	616	
13	0	0	0	0	502	617	
14	0	0	0	0	503	616	
15	0	0	0	0	505	616	
0	0	0	0	0	508	616	
1	0	0	0	0	509	615	
2	0	0	0	0	509	616	
3	0	0	0	0	508	616	
4	0	0	0	0	508	615	
5	0	0	0	0	509	616	
6	0	0	0	0	512	615	
7	0	0	0	0	519	616	
8	0	0	0	0	531	616	
9	0	0	0	0	544	616	
10	0	0	0	0	557	616	
11	0	0	0	0	569	616	
12	0	0	0	0	583	616	
13	0	0	0	0	599	616	
14	0	0	0	0	614	616	
15	0	0	0	0	628	616	
0	0	0	0	0	643	616	
1	0	0	0	0	658	616	
2	0	0	0	0	671	616	
3	0	0	0	0	681	616	
4	0	0	0	0	689	616	
5	0	0	0	0	696	617	
6	0	0	0	0	698	616	
7	0	0	0	0	696	616	
8	0	0	0	0	686	616	
9	0	0	0	0	669	616	
10	0	0	0	0	647	616	
11	0	0	0	0	628	617	
12	0	0	0	0	611	616	
13	0	0	0	0	599	617	
14	0	0	0	0	590	616	
15	0	0	0	0	583	616	
0	0	0	0	0	576	617	
1	0	0	0	0	570	617	
2	0	0	0	0	571	617	
3	0	0	0	0	574	617	
4	0	0	0	0	579	617	
5	0	0	0	0	580	617	
6	0	0	0	0	583	616	
7	0	0	0	0	584	617	
8	0	0	0	0	586	617	
9	0	0	0	0	587	616	
10	0	0	0	0	588	617	
11	0	0	0	0	589	617	
12	0	0	0	0	585	617	
13	0	0	0	0	577	617	
14	0	0	0	0	569	617	
15	0	0	0	0	560	617	
0	0	0	0	0	549	617	
1	0	0	0	0	536	616	
2	0	0	0	0	523	617	
3	0	0	0	0	510	617	
4	0	0	0	0	499	616	
5	0	0	0	0	488	617	
6	0	0	0	0	480	617	
7	0	0	0	0	473	616	
8	0	0	0	0	465	617	
9	0	0	0	0	459	616	
10	0	0	0	0	452	617	
11	0	0	0	0	448	617	
12	0	0	0	0	441	617	
13	0	0	0	0	437	617	
14	0	0	0	0	435	617	
15	0	0	0	0	433	616	
0	0	0	0	0	432	616	
1	0	0	0	0	431	616	
2	0	0	0	0	428	616	
3	0	0	0	0	428	616	
4	0	0	0	0	428	616	
5	0	0	0	0	428	616	
6	0	0	0	0	430	616	
7	0	0	0	0	431	616	
8	0	0	0	0	430	616	
9	0	0	0	0	430	615	
10	0	0	0	0	431	616	
11	0	0	0	0	431	616	
12	0	0	0	0	431	615	
13	0	0	0	0	432	616	
14	0	0	0	0	433	615	
15	0	0	0	0	433	616	
0	0	0	0	0	433	615	
1	0	0	0	0	435	615	
2	0	0	0	0	435	615	
3	0	0	0	0	435	616	
4	0	0	0	0	436	616	
5	0	0	0	0	436	616	
6	0	0	0	0	435	616	
7	0	0	0	0	435	616	
8	0	0	0	0	435	616	
9	0	0	0	0	436	616	
10	0	0	0	0	437	616	
11	0	0	0	0	439	616	
12	0	0	0	0	440	616	
13	0	0	0	0	440	617	
14	0	0	0	0	440	616	
15	0	0	0	0	441	616	
0	0	0	0	0	442	616	
1	0	0	0	0	443	615	
2	0	0	0	0	444	616	
3	0	0	0	0	446	615	
4	0	0	0	0	446	616	
5	0	0	0	0	447	615	
6	0	0	0	0	448	615	
7	0	0	0	0	447	615	
8	0	0	0	0	448	615	
9	0	0	0	0	446	615	
10	0	0	0	0	447	615	
11	0	0	0	0	448	615	
12	0	0	0	0	448	615	
13	0	0	0	0	449	615	
14	0	0	0	0	449	615	
15	0	0	0	0	449	615	
0	0	0	0	0	451	615	
1	0	0	0	0	452	615	
2	0	0	0	0	454	615	
3	0	0	0	0	455	616	
4	0	0	0	0	456	615	
5	0	0	0	0	458	616	
6	0	0	0	0	458	615	
7	0	0	0	0	459	615	
8	0	0	0	0	459	615	
9	0	0	0	0	458	615	
10	0	0	0	0	457	616	
11	0	0	0	0	459	616	
12	0	0	0	0	460	616	
13	0	0	0	0	461	616	
14	0	0	0	0	462	616	
15	0	0	0	0	464	616	
0	0	0	0	0	465	617	
1	0	0	0	0	467	616	
2	0	0	0	0	468	616	
3	0	0	0	0	468	616	
4	0	0	0	0	468	616	
5	0	0	0	0	469	616	
6	0	0	0	0	468	616	
7	0	0	0	0	470	616	
8	0	0	0	0	472	616	
9	0	0	0	0	471	616	
10	0	0	0	0	470	617	
11	0	0	0	0	470	616	
12	0	0	0	0	467	616	
13	0	0	0	0	467	617	
14	0	0	0	0	469	616	
15	0	0	0	0	471	616	
0	0	0	0	0	471	617	
1	0	0	0	0	472	616	
2	0	0	0	0	473	616	
3	0	0	0	0	473	616	
4	0	0	0	0	473	615	
5	0	0	0	0	474	617	
6	0	0	0	0	476	617	
7	0	0	0	0	478	616	
8	0	0	0	0	479	616	
9	0	0	0	0	480	617	
10	0	0	0	0	480	616	
11	0	0	0	0	481	616	
12	0	0	0	0	483	616	
13	0	0	0	0	483	616	
14	0	0	0	0	483	616	
15	0	0	0	0	484	616	
0	0	0	0	0	486	615	
1	0	0	0	0	486	616	
2	0	0	0	0	486	616	
3	0	0	0	0	486	615	
4	0	0	0	0	486	615	
5	0	0	0	0	486	616	
6	0	0	0	0	486	616	
7	0	0	0	0	486	616	
8	0	0	0	0	485	616	
9	0	0	0	0	487	616	
10	0	0	0	0	486	615	
11	0	0	0	0	486	616	
12	0	0	0	0	486	616	
13	0	0	0	0	486	616	
14	0	0	0	0	487	615	
15	0	0	0	0	488	616	
0	0	0	0	0	489	616	
1	0	0	0	0	489	616	
2	0	0	0	0	491	616	
3	0	0	0	0	490	615	
4	0	0	0	0	491	616	
5	0	0	0	0	488	616	
6	0	0	0	0	487	616	
7	0	0	0	0	487	615	
8	0	0	0	0	489	615	
9	0	0	0	0	490	615	
10	0	0	0	0	489	615	
11	0	0	0	0	488	615	
12	0	0	0	0	487	615	
13	0	0	0	0	487	615	
14	0	0	0	0	488	615	
15	0	0	0	0	486	615	
0	0	0	0	0	485	616	
1	0	0	0	0	486	615	
2	0	0	0	0	487	615	
3	0	0	0	0	488	615	
4	0	0	0	0	488	615	
5	0	0	0	0	488	616	
6	0	0	0	0	489	616	
7	0	0	0	0	489	616	
8	0	0	0	0	489	615	
9	0	0	0	0	489	615	
10	0	0	0	0	490	615	
11	0	0	0	0	490	616	
12	0	0	0	0	491	616	
13	0	0	0	0	491	616	
14	0	0	0	0	491	615	
15	0	0	0	0	491	615	
0	0	0	0	0	491	616	
1	0	0	0	0	491	615	
2	0	0	0	0	492	615	
3	0	0	0	0	492	615	
4	0	0	0	0	492	615	
5	0	0	0	0	492	616	
6	0	0	0	0	492	615	
7	0	0	0	0	493	615	
8	0	0	0	0	493	615	
9	0	0	0	0	493	615	
10	0	0	0	0	493	615	
11	0	0	0	0	494	615	
12	0	0	0	0	494	616	
13	0	0	0	0	494	617	
14	0	0	0	0	494	617	
15	0	0	0	0	493	617	
0	0	0	0	0	493	616	
1	0	0	0	0	492	617	
2	0	0	0	0	493	617	
3	0	0	0	0	496	618	
4	0	0	0	0	494	617	
5	0	0	0	0	493	618	
6	0	0	0	0	492	617	
7	0	0	0	0	492	617	
8	0	0	0	0	492	617	
9	0	0	0	0	491	617	
10	0	0	0	0	492	618	
11	0	0	0	0	492	617	
12	0	0	0	0	492	617	
13	0	0	0	0	491	618	
14	0	0	0	0	491	617	
15	0	0	0	0	491	617	
0	0	0	0	0	491	617	
1	0	0	0	0	491	617	
2	0	0	0	0	490	617	
3	0	0	0	0	490	617	
4	0	0	0	0	489	617	
5	0	0	0	0	488	617	
6	0	0	0	0	487	617	
7	0	0	0	0	487	617	
8	0	0	0	0	487	617	
9	0	0	0	0	487	617	
10	0	0	0	0	486	616	
11	0	0	0	0	486	617	
12	0	0	0	0	486	617	
13	0	0	0	0	488	617	
14	0	0	0	0	488	617	
15	0	0	0	0	489	617	
0	0	0	0	0	491	617	
1	0	0	0	0	492	616	
2	0	0	0	0	491	616	
3	0	0	0	0	490	616	
4	0	0	0	0	489	616	
5	0	0	0	0	489	617	
6	0	0	0	0	489	616	
7	0	0	0	0	491	616	
8	0	0	0	0	490	616	
9	0	0	0	0	489	615	
10	0	0	0	0	489	616	
11	0	0	0	0	490	615	
12	0	0	0	0	490	616	
13	0	0	0	0	490	616	
14	0	0	0	0	491	616	
15	0	0	0	0	492	615	
0	0	0	0	0	494	616	
1	0	0	0	0	494	615	
2	0	0	0	0	493	616	
3	0	0	0	0	492	616	
4	0	0	0	0	493	615	
5	0	0	0	0	495	616	
6	0	0	0	0	497	616	
7	0	0	0	0	497	616	
8	0	0	0	0	498	615	
9	0	0	0	0	499	615	
10	0	0	0	0	499	615	
11	0	0	0	0	498	615	
12	0	0	0	0	498	615	
13	0	0	0	0	499	616	
14	0	0	0	0	499	616	
15	0	0	0	0	499	616	
0	0	0	0	0	500	616	
1	0	0	0	0	500	616	
2	0	0	0	0	499	616	
3	0	0	0	0	499	616	
4	0	0	0	0	500	616	
5	0	0	0	0	503	617	
6	0	0	0	0	504	616	
7	0	0	0	0	505	617	
8	0	0	0	0	506	616	
9	0	0	0	0	507	616	
10	0	0	0	0	509	617	
11	0	0	0	0	510	617	
12	0	0	0	0	511	617	
13	0	0	0	0	513	617	
14	0	0	0	0	515	618	
15	0	0	0	0	516	617	
0	0	0	0	0	518	617	
1	0	0	0	0	520	617	
2	0	0	0	0	522	617	
3	0	0	0	0	524	618	
4	0	0	0	0	525	617	
5	0	0	0	0	526	617	
6	0	0	0	0	527	617	
7	0	0	0	0	527	616	
8	0	0	0	0	530	617	
9	0	0	0	0	531	616	
10	0	0	0	0	531	616	
11	0	0	0	0	534	616	
12	0	0	0	0	536	616	
13	0	0	0	0	538	616	
14	0	0	0	0	540	616	
15	0	0	0	0	541	616	
0	0	0	0	0	543	616	
1	0	0	0	0	544	615	
2	0	0	0	0	545	616	
3	0	0	0	0	544	615	
4	0	0	0	0	544	615	
5	0	0	0	0	546	616	
6	0	0	0	0	547	615	
7	0	0	0	0	548	615	
8	0	0	0	0	548	615	
9	0	0	0	0	547	615	
10	0	0	0	0	549	615	
11	0	0	0	0	549	615	
12	0	0	0	0	550	615	
13	0	0	0	0	551	615	
14	0	0	0	0	551	615	
15	0	0	0	0	551	615	
0	0	0	0	0	551	615	
1	0	0	0	0	552	615	
2	0	0	0	0	552	615	
3	0	0	0	0	553	615	
4	0	0	0	0	553	615	
5	0	0	0	0	553	615	
6	0	0	0	0	551	615	
7	0	0	0	0	549	615	
8	0	0	0	0	550	615	
9	0	0	0	0	548	615	
10	0	0	0	0	548	615	
11	0	0	0	0	551	615	
12	0	0	0	0	554	615	
13	0	0	0	0	555	616	
14	0	0	0	0	555	615	
15	0	0	0	0	554	615	
0	0	0	0	0	554	616	
1	0	0	0	0	553	615	
2	0	0	0	0	554	615	
3	0	0	0	0	556	615	
4	0	0	0	0	557	615	
5	0	0	0	0	557	616	
6	0	0	0	0	557	615	
7	0	0	0	0	557	615	
8	0	0	0	0	557	616	
9	0	0	0	0	557	615	
10	0	0	0	0	557	615	
11	0	0	0	0	557	615	
12	0	0	0	0	557	615	
13	0	0	0	0	557	615	
14	0	0	0	0	557	615	
15	0	0	0	0	557	616	
0	0	0	0	0	556	615	
1	0	0	0	0	556	615	
2	0	0	0	0	556	615	
3	0	0	0	0	555	615	
4	0	0	0	0	555	616	
5	0	0	0	0	554	616	
6	0	0	0	0	554	616	
7	0	0	0	0	554	616	
8	0	0	0	0	553	616	
9	0	0	0	0	552	616	
10	0	0	0	0	550	616	
11	0	0	0	0	548	616	
12	0	0	0	0	547	616	
13	0	0	0	0	546	616	
14	0	0	0	0	546	616	
15	0	0	0	0	546	617	
0	0	0	0	0	547	617	
1	0	0	0	0	548	617	
2	0	0	0	0	547	617	
3	0	0	0	0	547	617	
4	0	0	0	0	547	617	
5	0	0	0	0	547	618	
6	0	0	0	0	547	617	
7	0	0	0	0	547	617	
8	0	0	0	0	547	617	
9	0	0	0	0	547	617	
10	0	0	0	0	546	617	
11	0	0	0	0	546	617	
12	0	0	0	0	547	617	
13	0	0	0	0	547	617	
14	0	0	0	0	545	617	
15	0	0	0	0	543	617	
0	0	0	0	0	541	617	
1	0	0	0	0	539	617	
2	0	0	0	0	538	617	
3	0	0	0	0	537	617	
4	0	0	0	0	537	616	
5	0	0	0	0	538	617	
6	0	0	0	0	539	616	
7	0	0	0	0	538	616	
8	0	0	0	0	536	617	
9	0	0	0	0	536	616	
10	0	0	0	0	535	617	
11	0	0	0	0	534	616	
12	0	0	0	0	535	616	
13	0	0	0	0	536	617	
14	0	0	0	0	535	616	
15	0	0	0	0	534	617	
0	0	0	0	0	534	617	
1	0	0	0	0	534	617	
2	0	0	0	0	532	616	
3	0	0	0	0	532	617	
4	0	0	0	0	531	616	
5	0	0	0	0	530	617	
6	0	0	0	0	528	616	
7	0	0	0	0	528	617	
8	0	0	0	0	529	616	
9	0	0	0	0	526	616	
10	0	0	0	0	525	616	
11	0	0	0	0	526	616	
12	0	0	0	0	526	616	
13	0	0	0	0	525	616	
14	0	0	0	0	525	616	
15	0	0	0	0	523	615	
0	0	0	0	0	524	615	
1	0	0	0	0	524	615	
2	0	0	0	0	524	616	
3	0	0	0	0	524	615	
4	0	0	0	0	526	616	
5	0	0	0	0	525	616	
6	0	0	0	0	524	616	
7	0	0	0	0	523	615	
8	0	0	0	0	521	615	
9	0	0	0	0	521	615	
10	0	0	0	0	520	616	
11	0	0	0	0	519	615	
12	0	0	0	0	517	616	
13	0	0	0	0	516	616	
14	0	0	0	0	516	615	
15	0	0	0	0	516	615	
0	0	0	0	0	515	616	
1	0	0	0	0	514	616	
2	0	0	0	0	512	615	
3	0	0	0	0	509	616	
4	0	0	0	0	510	617	
5	0	0	0	0	510	616	
6	0	0	0	0	508	616	
7	0	0	0	0	507	615	
8	0	0	0	0	507	616	
9	0	0	0	0	506	615	
10	0	0	0	0	504	616	
11	0	0	0	0	504	616	
12	0	0	0	0	504	615	
13	0	0	0	0	507	616	
14	0	0	0	0	507	615	
15	0	0	0	0	506	615	
0	0	0	0	0	507	615	
1	0	0	0	0	507	615	
2	0	0	0	0	507	615	
3	0	0	0	0	506	615	
4	0	0	0	0	506	615	
5	0	0	0	0	504	616	
6	0	0	0	0	504	615	
7	0	0	0	0	503	616	
8	0	0	0	0	503	616	
9	0	0	0	0	501	616	
10	0	0	0	0	500	617	
11	0	0	0	0	500	616	
12	0	0	0	0	499	616	
13	0	0	0	0	498	617	
14	0	0	0	0	499	617	
15	0	0	0	0	500	617	
0	0	0	0	0	499	617	
1	0	0	0	0	498	616	
2	0	0	0	0	498	616	
3	0	0	0	0	497	616	
4	0	0	0	0	497	617	
5	0	0	0	0	497	617	
6	0	0	0	0	496	617	
7	0	0	0	0	497	617	
8	0	0	0	0	496	617	
9	0	0	0	0	498	617	
10	0	0	0	0	498	616	
11	0	0	0	0	499	616	
12	0	0	0	0	499	616	
13	0	0	0	0	498	616	
14	0	0	0	0	498	616	
15	0	0	0	0	500	616	
0	0	0	0	0	502	616	
1	0	0	0	0	502	615	
2	0	0	0	0	501	615	
3	0	0	0	0	501	615	
4	0	0	0	0	499	616	
5	0	0	0	0	497	616	
6	0	0	0	0	497	615	
7	0	0	0	0	495	615	
8	0	0	0	0	495	616	
9	0	0	0	0	494	615	
10	0	0	0	0	494	615	
11	0	0	0	0	495	615	
12	0	0	0	0	495	615	
13	0	0	0	0	496	616	
14	0	0	0	0	497	615	
15	0	0	0	0	498	615	
0	0	0	0	0	499	615	
1	0	0	0	0	500	615	
2	0	0	0	0	499	615	
3	0	0	0	0	499	616	
4	0	0	0	0	498	615	
5	0	0	0	0	497	616	
6	0	0	0	0	496	615	
7	0	0	0	0	494	615	
8	0	0	0	0	493	615	
9	0	0	0	0	492	615	
10	0	0	0	0	492	616	
11	0	0	0	0	493	616	
12	0	0	0	0	492	616	
13	0	0	0	0	492	616	
14	0	0	0	0	491	615	
15	0	0	0	0	490	616	
0	0	0	0	0	489	616	
1	0	0	0	0	489	616	
2	0	0	0	0	489	616	
3	0	0	0	0	489	616	
4	0	0	0	0	489	616	
5	0	0	0	0	489	616	
6	0	0	0	0	489	616	
7	0	0	0	0	490	616	
8	0	0	0	0	489	616	
9	0	0	0	0	489	616	
10	0	0	0	0	488	616	
11	0	0	0	0	488	616	
12	0	0	0	0	490	616	
13	0	0	0	0	489	616	
14	0	0	0	0	488	616	
15	0	0	0	0	488	616	
0	0	0	0	0	489	616	
1	0	0	0	0	489	615	
2	0	0	0	0	489	616	
3	0	0	0	0	489	616	
4	0	0	0	0	490	615	
5	0	0	0	0	492	616	
6	0	0	0	0	494	616	
7	0	0	0	0	495	615	
8	0	0	0	0	495	616	
9	0	0	0	0	495	616	
10	0	0	0	0	496	616	
11	0	0	0	0	496	616	
12	0	0	0	0	497	616	
13	0	0	0	0	497	616	
14	0	0	0	0	498	617	
15	0	0	0	0	498	617	
0	0	0	0	0	498	617	
1	0	0	0	0	498	616	
2	0	0	0	0	497	617	
3	0	0	0	0	496	617	
4	0	0	0	0	498	617	
5	0	0	0	0	498	617	
6	0	0	0	0	499	616	
7	0	0	0	0	499	617	
8	0	0	0	0	499	616	
9	0	0	0	0	499	616	
10	0	0	0	0	498	616	
11	0	0	0	0	498	617	
12	0	0	0	0	500	616	
13	0	0	0	0	499	616	
14	0	0	0	0	500	616	
15	0	0	0	0	501	616	
0	0	0	0	0	501	617	
1	0	0	0	0	502	616	
2	0	0	0	0	502	616	
3	0	0	0	0	503	617	
4	0	0	0	0	503	616	
5	0	0	0	0	502	617	
6	0	0	0	0	504	617	
7	0	0	0	0	503	617	
8	0	0	0	0	501	618	
9	0	0	0	0	502	618	
10	0	0	0	0	502	618	
11	0	0	0	0	502	618	
12	0	0	0	0	500	618	
13	0	0	0	0	501	618	
14	0	0	0	0	502	618	
15	0	0	0	0	502	618	
0	0	0	0	0	503	618	
1	0	0	0	0	504	618	
2	0	0	0	0	504	618	
3	0	0	0	0	505	618	
4	0	0	0	0	504	617	
5	0	0	0	0	506	618	
6	0	0	0	0	505	617	
7	0	0	0	0	507	617	
8	0	0	0	0	508	617	
9	0	0	0	0	507	616	
10	0	0	0	0	508	616	
11	0	0	0	0	507	616	
12	0	0	0	0	506	616	
13	0	0	0	0	505	616	
14	0	0	0	0	504	615	
15	0	0	0	0	505	615	
0	0	0	0	0	506	615	
1	0	0	0	0	505	615	
2	0	0	0	0	504	615	
3	0	0	0	0	504	615	
4	0	0	0	0	505	615	
5	0	0	0	0	505	615	
6	0	0	0	0	507	615	
7	0	0	0	0	507	615	
8	0	0	0	0	508	615	
9	0	0	0	0	508	615	
10	0	0	0	0	508	615	
11	0	0	0	0	509	615	
12	0	0	0	0	510	615	
13	0	0	0	0	509	616	
14	0	0	0	0	507	615	
15	0	0	0	0	507	615	
0	0	0	0	0	508	615	
1	0	0	0	0	507	615	
2	0	0	0	0	507	615	
3	0	0	0	0	508	615	
4	0	0	0	0	507	615	
5	0	0	0	0	505	615	
6	0	0	0	0	505	615	
7	0	0	0	0	505	615	
8	0	0	0	0	505	615	
9	0	0	0	0	504	614	
10	0	0	0	0	505	615	
11	0	0	0	0	504	615	
12	0	0	0	0	503	615	
13	0	0	0	0	504	615	
14	0	0	0	0	505	615	
15	0	0	0	0	504	615	
0	0	0	0	0	503	615	
1	0	0	0	0	502	615	
2	0	0	0	0	500	615	
3	0	0	0	0	497	615	
4	0	0	0	0	496	615	
5	0	0	0	0	496	615	
6	0	0	0	0	496	615	
7	0	0	0	0	495	615	
8	0	0	0	0	494	615	
9	0	0	0	0	495	615	
10	0	0	0	0	494	615	
11	0	0	0	0	493	615	
12	0	0	0	0	495	615	
13	0	0	0	0	495	615	
14	0	0	0	0	496	614	
15	0	0	0	0	497	615	
0	0	0	0	0	499	615	
1	0	0	0	0	500	615	
2	0	0	0	0	500	615	
3	0	0	0	0	501	615	
4	0	0	0	0	502	616	
5	0	0	0	0	502	616	
6	0	0	0	0	503	616	
7	0	0	0	0	505	615	
8	0	0	0	0	504	616	
9	0	0	0	0	502	615	
10	0	0	0	0	501	616	
11	0	0	0	0	501	617	
12	0	0	0	0	500	617	
13	0	0	0	0	500	617	
14	0	0	0	0	501	617	
15	0	0	0	0	502	616	
0	0	0	0	0	503	617	
1	0	0	0	0	504	617	
2	0	0	0	0	507	617	
3	0	0	0	0	507	617	
4	0	0	0	0	508	617	
5	0	0	0	0	507	618	
6	0	0	0	0	506	617	
7	0	0	0	0	505	617	
8	0	0	0	0	506	618	
9	0	0	0	0	505	617	
10	0	0	0	0	504	617	
11	0	0	0	0	503	618	
12	0	0	0	0	502	618	
13	0	0	0	0	502	618	
14	0	0	0	0	500	617	
15	0	0	0	0	500	617	
0	0	0	0	0	499	617	
1	0	0	0	0	498	617	
2	0	0	0	0	498	617	
3	0	0	0	0	499	618	
4	0	0	0	0	500	618	
5	0	0	0	0	500	617	
6	0	0	0	0	499	617	
7	0	0	0	0	499	617	
8	0	0	0	0	499	617	
9	0	0	0	0	499	618	
10	0	0	0	0	500	618	
11	0	0	0	0	502	617	
12	0	0	0	0	501	617	
13	0	0	0	0	502	617	
14	0	0	0	0	501	617	
15	0	0	0	0	500	617	
0	0	0	0	0	499	617	
1	0	0	0	0	500	617	
2	0	0	0	0	498	616	
3	0	0	0	0	497	616	
4	0	0	0	0	497	616	
5	0	0	0	0	496	617	
6	0	0	0	0	496	616	
7	0	0	0	0	497	616	
8	0	0	0	0	498	616	
9	0	0	0	0	499	615	
10	0	0	0	0	498	615	
11	0	0	0	0	500	615	
12	0	0	0	0	501	615	
13	0	0	0	0	500	616	
14	0	0	0	0	500	615	
15	0	0	0	0	500	615	
0	0	0	0	0	500	614	
1	0	0	0	0	499	614	
2	0	0	0	0	500	614	
3	0	0	0	0	500	614	
4	0	0	0	0	500	615	
5	0	0	0	0	499	615	
6	0	0	0	0	500	615	
7	0	0	0	0	499	614	
8	0	0	0	0	500	615	
9	0	0	0	0	502	614	
10	0	0	0	0	504	615	
11	0	0	0	0	504	614	
12	0	0	0	0	505	614	
13	0	0	0	0	505	614	
14	0	0	0	0	506	614	
15	0	0	0	0	508	614	
0	0	0	0	0	509	614	
1	0	0	0	0	511	615	
2	0	0	0	0	510	614	
3	0	0	0	0	509	615	
4	0	0	0	0	509	615	
5	0	0	0	0	510	615	
6	0	0	0	0	509	615	
7	0	0	0	0	509	615	
8	0	0	0	0	508	616	
9	0	0	0	0	508	615	
10	0	0	0	0	508	616	
11	0	0	0	0	509	617	
12	0	0	0	0	509	617	
13	0	0	0	0	511	617	
14	0	0	0	0	511	617	
15	0	0	0	0	511	616	
0	0	0	0	0	512	617	
1	0	0	0	0	513	617	
2	0	0	0	0	513	618	
3	0	0	0	0	514	618	
4	0	0	0	0	514	618	
5	0	0	0	0	515	619	
6	0	0	0	0	514	618	
7	0	0	0	0	515	618	
8	0	0	0	0	516	618	
9	0	0	0	0	516	618	
10	0	0	0	0	517	619	
11	0	0	0	0	518	618	
12	0	0	0	0	518	618	
13	0	0	0	0	517	619	
14	0	0	0	0	517	619	
15	0	0	0	0	518	619	
0	0	0	0	0	518	618	
1	0	0	0	0	519	618	
2	0	0	0	0	519	618	
3	0	0	0	0	518	618	
4	0	0	0	0	518	617	
5	0	0	0	0	519	618	
6	0	0	0	0	519	617	
7	0	0	0	0	519	617	
8	0	0	0	0	519	616	
9	0	0	0	0	519	617	
10	0	0	0	0	516	616	
11	0	0	0	0	517	616	
12	0	0	0	0	517	616	
13	0	0	0	0	516	617	
14	0	0	0	0	516	616	
15	0	0	0	0	516	616	
0	0	0	0	0	518	616	
1	0	0	0	0	517	616	
2	0	0	0	0	517	615	
3	0	0	0	0	517	615	
4	0	0	0	0	516	616	
5	0	0	0	0	516	616	
6	0	0	0	0	517	615	
7	0	0	0	0	518	615	
8	0	0	0	0	520	615	
9	0	0	0	0	521	615	
10	0	0	0	0	520	615	
11	0	0	0	0	521	615	
12	0	0	0	0	520	615	
13	0	0	0	0	522	614	
14	0	0	0	0	523	615	
15	0	0	0	0	521	615	
0	0	0	0	0	521	615	
1	0	0	0	0	521	615	
2	0	0	0	0	522	615	
3	0	0	0	0	521	615	
4	0	0	0	0	519	615	
5	0	0	0	0	519	615	
6	0	0	0	0	516	615	
7	0	0	0	0	516	615	
8	0	0	0	0	516	615	
9	0	0	0	0	517	615	
10	0	0	0	0	519	615	
11	0	0	0	0	520	615	
12	0	0	0	0	519	615	
13	0	0	0	0	518	616	
14	0	0	0	0	518	615	
15	0	0	0	0	520	615	
0	0	0	0	0	519	615	
1	0	0	0	0	519	616	
2	0	0	0	0	519	616	
3	0	0	0	0	522	616	
4	0	0	0	0	521	616	
5	0	0	0	0	521	616	
6	0	0	0	0	522	616	
7	0	0	0	0	519	616	
8	0	0	0	0	518	617	
9	0	0	0	0	518	616	
10	0	0	0	0	515	617	
11	0	0	0	0	514	617	
12	0	0	0	0	514	616	
13	0	0	0	0	515	617	
14	0	0	0	0	516	616	
15	0	0	0	0	518	617	
0	0	0	0	0	518	617	
1	0	0	0	0	519	617	
2	0	0	0	0	518	617	
3	0	0	0	0	516	616	
4	0	0	0	0	518	616	
5	0	0	0	0	519	617	
6	0	0	0	0	519	617	
7	0	0	0	0	519	617	
8	0	0	0	0	519	616	
9	0	0	0	0	518	616	
10	0	0	0	0	516	616	
11	0	0	0	0	515	616	
12	0	0	0	0	515	616	
13	0	0	0	0	515	616	
14	0	0	0	0	515	615	
15	0	0	0	0	516	615	
0	0	0	0	0	516	615	
1	0	0	0	0	517	615	
2	0	0	0	0	518	615	
3	0	0	0	0	518	615	
4	0	0	0	0	518	615	
5	0	0	0	0	518	615	
6	0	0	0	0	519	615	
7	0	0	0	0	519	615	
8	0	0	0	0	519	615	
9	0	0	0	0	520	615	
10	0	0	0	0	519	615	
11	0	0	0	0	517	615	
12	0	0	0	0	517	615	
13	0	0	0	0	517	615	
14	0	0	0	0	516	615	
15	0	0	0	0	516	615	
0	0	0	0	0	517	615	
1	0	0	0	0	517	615	
2	0	0	0	0	517	615	
3	0	0	0	0	516	615	
4	0	0	0	0	515	615	
5	0	0	0	0	513	615	
6	0	0	0	0	513	615	
7	0	0	0	0	513	615	
8	0	0	0	0	513	615	
9	0	0	0	0	514	615	
10	0	0	0	0	513	615	
11	0	0	0	0	514	615	
12	0	0	0	0	515	614	
13	0	0	0	0	516	615	
14	0	0	0	0	514	615	
15	0	0	0	0	513	616	
0	0	0	0	0	514	615	
1	0	0	0	0	513	616	
2	0	0	0	0	512	616	
3	0	0	0	0	512	616	
4	0	0	0	0	511	616	
5	0	0	0	0	510	616	
6	0	0	0	0	510	616	
7	0	0	0	0	510	616	
8	0	0	0	0	510	616	
9	0	0	0	0	512	616	
10	0	0	0	0	512	616	
11	0	0	0	0	513	617	
12	0	0	0	0	514	617	
13	0	0	0	0	515	617	
14	0	0	0	0	517	617	
15	0	0	0	0	519	617	
0	0	0	0	0	518	616	
1	0	0	0	0	518	617	
2	0	0	0	0	518	617	
3	0	0	0	0	517	617	
4	0	0	0	0	517	618	
5	0	0	0	0	517	617	
6	0	0	0	0	518	617	
7	0	0	0	0	518	617	
8	0	0	0	0	518	617	
9	0	0	0	0	518	617	
10	0	0	0	0	519	617	
11	0	0	0	0	519	618	
12	0	0	0	0	519	617	
13	0	0	0	0	520	618	
14	0	0	0	0	522	617	
15	0	0	0	0	522	617	
0	0	0	0	0	522	618	
1	0	0	0	0	522	617	
2	0	0	0	0	523	617	
3	0	0	0	0	524	616	
4	0	0	0	0	523	616	
5	0	0	0	0	524	617	
6	0	0	0	0	523	617	
7	0	0	0	0	522	617	
8	0	0	0	0	523	616	
9	0	0	0	0	524	616	
10	0	0	0	0	522	616	
11	0	0	0	0	521	615	
12	0	0	0	0	519	615	
13	0	0	0	0	518	615	
14	0	0	0	0	517	616	
15	0	0	0	0	517	615	
0	0	0	0	0	515	615	
1	0	0	0	0	515	615	
2	0	0	0	0	514	615	
3	0	0	0	0	514	615	
4	0	0	0	0	516	615	
5	0	0	0	0	517	616	
6	0	0	0	0	520	615	
7	0	0	0	0	521	615	
8	0	0	0	0	523	615	
9	0	0	0	0	524	615	
10	0	0	0	0	524	615	
11	0	0	0	0	525	615	
12	0	0	0	0	525	615	
13	0	0	0	0	526	615	
14	0	0	0	0	525	616	
15	0	0	0	0	525	615	
0	0	0	0	0	526	615	
1	0	0	0	0	526	615	
2	0	0	0	0	527	616	
3	0	0	0	0	528	616	
