# OpenSignals Text File Format. Version 1
# {"98:D3:91:FD:69:48": {"position": 0, "device": "bitalino_rev", "device name": "98:D3:91:FD:69:48", "device connection": "BTH98:D3:91:FD:69:48", "sampling rate": 1000, "resolution": [4, 1, 1, 1, 1, 10, 10], "firmware version": 1281, "comments": "", "keywords": "", "mode": 0, "sync interval": 2, "date": "2021-9-3", "time": "23:28:32.163", "channels": [2, 5], "sensor": ["RAW", "RAW"], "label": ["A2", "A5"], "column": ["nSeq", "I1", "I2", "O1", "O2", "A2", "A5"], "special": [{}, {}], "digital IO": [0, 0, 1, 1], "convertedValues": 0}}
# EndOfHeader
0	0	0	0	0	474	614	
1	0	0	0	0	472	613	
2	0	0	0	0	471	614	
3	0	0	0	0	471	610	
4	0	0	0	0	471	612	
5	0	0	0	0	471	612	
6	0	0	0	0	471	613	
7	0	0	0	0	472	615	
8	0	0	0	0	473	613	
9	0	0	0	0	474	612	
10	0	0	0	0	474	612	
11	0	0	0	0	475	610	
12	0	0	0	0	475	613	
13	0	0	0	0	476	612	
14	0	0	0	0	476	612	
15	0	0	0	0	476	615	
0	0	0	0	0	476	612	
1	0	0	0	0	477	612	
2	0	0	0	0	478	612	
3	0	0	0	0	479	610	
4	0	0	0	0	479	611	
5	0	0	0	0	480	612	
6	0	0	0	0	480	611	
7	0	0	0	0	480	614	
8	0	0	0	0	480	611	
9	0	0	0	0	481	611	
10	0	0	0	0	481	611	
11	0	0	0	0	481	609	
12	0	0	0	0	481	611	
13	0	0	0	0	483	611	
14	0	0	0	0	483	611	
15	0	0	0	0	484	612	
0	0	0	0	0	485	610	
1	0	0	0	0	484	610	
2	0	0	0	0	485	611	
3	0	0	0	0	485	608	
4	0	0	0	0	486	611	
5	0	0	0	0	487	610	
6	0	0	0	0	487	611	
7	0	0	0	0	488	613	
8	0	0	0	0	490	611	
9	0	0	0	0	492	610	
10	0	0	0	0	493	610	
11	0	0	0	0	493	608	
12	0	0	0	0	493	610	
13	0	0	0	0	493	610	
14	0	0	0	0	494	610	
15	0	0	0	0	494	611	
0	0	0	0	0	495	610	
1	0	0	0	0	495	610	
2	0	0	0	0	495	610	
3	0	0	0	0	495	608	
4	0	0	0	0	495	609	
5	0	0	0	0	496	611	
6	0	0	0	0	496	610	
7	0	0	0	0	497	612	
8	0	0	0	0	498	609	
9	0	0	0	0	499	611	
10	0	0	0	0	499	610	
11	0	0	0	0	501	608	
12	0	0	0	0	502	610	
13	0	0	0	0	503	611	
14	0	0	0	0	504	611	
15	0	0	0	0	505	612	
0	0	0	0	0	506	610	
1	0	0	0	0	507	611	
2	0	0	0	0	508	610	
3	0	0	0	0	509	608	
4	0	0	0	0	511	610	
5	0	0	0	0	511	611	
6	0	0	0	0	512	611	
7	0	0	0	0	513	612	
8	0	0	0	0	514	611	
9	0	0	0	0	516	610	
10	0	0	0	0	518	612	
11	0	0	0	0	519	608	
12	0	0	0	0	519	611	
13	0	0	0	0	519	610	
14	0	0	0	0	520	611	
15	0	0	0	0	521	613	
0	0	0	0	0	521	612	
1	0	0	0	0	522	611	
2	0	0	0	0	522	612	
3	0	0	0	0	522	609	
4	0	0	0	0	522	612	
5	0	0	0	0	523	611	
6	0	0	0	0	522	612	
7	0	0	0	0	522	614	
8	0	0	0	0	522	612	
9	0	0	0	0	523	612	
10	0	0	0	0	523	612	
11	0	0	0	0	523	610	
12	0	0	0	0	523	613	
13	0	0	0	0	524	612	
14	0	0	0	0	524	612	
15	0	0	0	0	524	614	
0	0	0	0	0	524	613	
1	0	0	0	0	523	612	
2	0	0	0	0	523	613	
3	0	0	0	0	524	611	
4	0	0	0	0	524	613	
5	0	0	0	0	524	614	
6	0	0	0	0	524	614	
7	0	0	0	0	524	615	
8	0	0	0	0	524	614	
9	0	0	0	0	524	614	
10	0	0	0	0	524	614	
11	0	0	0	0	524	612	
12	0	0	0	0	525	614	
13	0	0	0	0	526	613	
14	0	0	0	0	525	614	
15	0	0	0	0	525	615	
0	0	0	0	0	525	614	
1	0	0	0	0	524	614	
2	0	0	0	0	524	614	
3	0	0	0	0	524	611	
4	0	0	0	0	524	613	
5	0	0	0	0	523	614	
6	0	0	0	0	523	613	
7	0	0	0	0	523	615	
8	0	0	0	0	522	614	
9	0	0	0	0	523	614	
10	0	0	0	0	523	613	
11	0	0	0	0	523	611	
12	0	0	0	0	523	613	
13	0	0	0	0	523	614	
14	0	0	0	0	523	614	
15	0	0	0	0	523	616	
0	0	0	0	0	522	614	
1	0	0	0	0	522	613	
2	0	0	0	0	522	614	
3	0	0	0	0	522	612	
4	0	0	0	0	522	614	
5	0	0	0	0	521	614	
6	0	0	0	0	521	614	
7	0	0	0	0	521	615	
8	0	0	0	0	521	613	
9	0	0	0	0	521	614	
10	0	0	0	0	521	612	
11	0	0	0	0	521	610	
12	0	0	0	0	520	613	
13	0	0	0	0	520	612	
14	0	0	0	0	520	612	
15	0	0	0	0	520	614	
0	0	0	0	0	521	612	
1	0	0	0	0	522	612	
2	0	0	0	0	522	611	
3	0	0	0	0	522	610	
4	0	0	0	0	522	611	
5	0	0	0	0	522	612	
6	0	0	0	0	522	611	
7	0	0	0	0	522	614	
8	0	0	0	0	523	611	
9	0	0	0	0	523	611	
10	0	0	0	0	523	611	
11	0	0	0	0	523	609	
12	0	0	0	0	523	611	
13	0	0	0	0	522	611	
14	0	0	0	0	522	611	
15	0	0	0	0	521	613	
0	0	0	0	0	520	611	
1	0	0	0	0	519	611	
2	0	0	0	0	519	611	
3	0	0	0	0	519	608	
4	0	0	0	0	518	611	
5	0	0	0	0	519	610	
6	0	0	0	0	519	611	
7	0	0	0	0	519	613	
8	0	0	0	0	519	611	
9	0	0	0	0	519	611	
10	0	0	0	0	519	611	
11	0	0	0	0	519	608	
12	0	0	0	0	519	610	
13	0	0	0	0	519	611	
14	0	0	0	0	518	611	
15	0	0	0	0	519	612	
0	0	0	0	0	519	610	
1	0	0	0	0	519	611	
2	0	0	0	0	519	610	
3	0	0	0	0	520	608	
4	0	0	0	0	519	611	
5	0	0	0	0	519	611	
6	0	0	0	0	519	611	
7	0	0	0	0	519	612	
8	0	0	0	0	518	611	
9	0	0	0	0	518	611	
10	0	0	0	0	518	611	
11	0	0	0	0	519	608	
12	0	0	0	0	519	611	
13	0	0	0	0	519	611	
14	0	0	0	0	519	610	
15	0	0	0	0	520	612	
0	0	0	0	0	521	611	
1	0	0	0	0	521	611	
2	0	0	0	0	521	611	
3	0	0	0	0	521	609	
4	0	0	0	0	521	611	
5	0	0	0	0	521	611	
6	0	0	0	0	521	611	
7	0	0	0	0	521	613	
8	0	0	0	0	521	611	
9	0	0	0	0	520	611	
10	0	0	0	0	520	611	
11	0	0	0	0	520	609	
12	0	0	0	0	520	612	
13	0	0	0	0	520	612	
14	0	0	0	0	519	611	
15	0	0	0	0	519	614	
0	0	0	0	0	520	612	
1	0	0	0	0	520	612	
2	0	0	0	0	521	612	
3	0	0	0	0	522	610	
4	0	0	0	0	523	613	
5	0	0	0	0	523	612	
6	0	0	0	0	523	613	
7	0	0	0	0	524	615	
8	0	0	0	0	525	613	
9	0	0	0	0	525	612	
10	0	0	0	0	526	612	
11	0	0	0	0	526	609	
12	0	0	0	0	526	612	
13	0	0	0	0	527	613	
14	0	0	0	0	527	613	
15	0	0	0	0	527	615	
0	0	0	0	0	527	613	
1	0	0	0	0	527	613	
2	0	0	0	0	527	613	
3	0	0	0	0	528	610	
4	0	0	0	0	528	613	
5	0	0	0	0	529	613	
6	0	0	0	0	530	613	
7	0	0	0	0	531	615	
8	0	0	0	0	532	614	
9	0	0	0	0	533	613	
10	0	0	0	0	534	614	
11	0	0	0	0	534	610	
12	0	0	0	0	534	612	
13	0	0	0	0	536	613	
14	0	0	0	0	536	612	
15	0	0	0	0	537	615	
0	0	0	0	0	538	613	
1	0	0	0	0	539	614	
2	0	0	0	0	538	612	
3	0	0	0	0	538	611	
4	0	0	0	0	539	612	
5	0	0	0	0	539	612	
6	0	0	0	0	539	612	
7	0	0	0	0	539	615	
8	0	0	0	0	538	612	
9	0	0	0	0	539	613	
10	0	0	0	0	538	613	
11	0	0	0	0	538	610	
12	0	0	0	0	538	612	
13	0	0	0	0	538	612	
14	0	0	0	0	537	612	
15	0	0	0	0	537	614	
0	0	0	0	0	536	612	
1	0	0	0	0	535	611	
2	0	0	0	0	534	611	
3	0	0	0	0	533	609	
4	0	0	0	0	531	612	
5	0	0	0	0	531	612	
6	0	0	0	0	529	612	
7	0	0	0	0	530	614	
8	0	0	0	0	530	612	
9	0	0	0	0	530	612	
10	0	0	0	0	531	612	
11	0	0	0	0	531	610	
12	0	0	0	0	531	612	
13	0	0	0	0	531	612	
14	0	0	0	0	531	612	
15	0	0	0	0	531	615	
0	0	0	0	0	531	612	
1	0	0	0	0	530	612	
2	0	0	0	0	529	613	
3	0	0	0	0	529	610	
4	0	0	0	0	529	613	
5	0	0	0	0	530	612	
6	0	0	0	0	531	612	
7	0	0	0	0	532	614	
8	0	0	0	0	532	611	
9	0	0	0	0	532	612	
10	0	0	0	0	532	612	
11	0	0	0	0	533	609	
12	0	0	0	0	534	611	
13	0	0	0	0	533	611	
14	0	0	0	0	534	611	
15	0	0	0	0	534	613	
0	0	0	0	0	533	611	
1	0	0	0	0	531	612	
2	0	0	0	0	530	611	
3	0	0	0	0	529	610	
4	0	0	0	0	528	611	
5	0	0	0	0	527	611	
6	0	0	0	0	526	611	
7	0	0	0	0	525	614	
8	0	0	0	0	524	611	
9	0	0	0	0	524	612	
10	0	0	0	0	524	611	
11	0	0	0	0	524	609	
12	0	0	0	0	524	612	
13	0	0	0	0	524	611	
14	0	0	0	0	524	612	
15	0	0	0	0	524	615	
0	0	0	0	0	524	612	
1	0	0	0	0	524	612	
2	0	0	0	0	525	612	
3	0	0	0	0	525	610	
4	0	0	0	0	525	612	
5	0	0	0	0	525	611	
6	0	0	0	0	525	612	
7	0	0	0	0	525	614	
8	0	0	0	0	524	612	
9	0	0	0	0	524	612	
10	0	0	0	0	522	612	
11	0	0	0	0	520	609	
12	0	0	0	0	517	612	
13	0	0	0	0	515	612	
14	0	0	0	0	513	611	
15	0	0	0	0	512	615	
0	0	0	0	0	510	612	
1	0	0	0	0	508	612	
2	0	0	0	0	506	612	
3	0	0	0	0	506	609	
4	0	0	0	0	504	612	
5	0	0	0	0	503	612	
6	0	0	0	0	502	612	
7	0	0	0	0	501	615	
8	0	0	0	0	498	612	
9	0	0	0	0	496	612	
10	0	0	0	0	496	612	
11	0	0	0	0	496	610	
12	0	0	0	0	496	612	
13	0	0	0	0	496	612	
14	0	0	0	0	498	611	
15	0	0	0	0	502	614	
0	0	0	0	0	507	612	
1	0	0	0	0	514	612	
2	0	0	0	0	521	612	
3	0	0	0	0	530	609	
4	0	0	0	0	540	612	
5	0	0	0	0	548	612	
6	0	0	0	0	556	612	
7	0	0	0	0	563	614	
8	0	0	0	0	570	612	
9	0	0	0	0	576	612	
10	0	0	0	0	582	612	
11	0	0	0	0	589	609	
12	0	0	0	0	593	612	
13	0	0	0	0	593	612	
14	0	0	0	0	595	612	
15	0	0	0	0	598	614	
0	0	0	0	0	602	612	
1	0	0	0	0	607	612	
2	0	0	0	0	615	612	
3	0	0	0	0	624	609	
4	0	0	0	0	633	612	
5	0	0	0	0	641	611	
6	0	0	0	0	652	612	
7	0	0	0	0	667	614	
8	0	0	0	0	683	612	
9	0	0	0	0	702	612	
10	0	0	0	0	720	612	
11	0	0	0	0	737	610	
12	0	0	0	0	753	612	
13	0	0	0	0	764	612	
14	0	0	0	0	768	612	
15	0	0	0	0	766	614	
0	0	0	0	0	760	612	
1	0	0	0	0	750	612	
2	0	0	0	0	738	612	
3	0	0	0	0	723	610	
4	0	0	0	0	706	611	
5	0	0	0	0	689	612	
6	0	0	0	0	672	611	
7	0	0	0	0	657	614	
8	0	0	0	0	644	611	
9	0	0	0	0	631	612	
10	0	0	0	0	617	612	
11	0	0	0	0	606	609	
12	0	0	0	0	593	612	
13	0	0	0	0	582	611	
14	0	0	0	0	572	611	
15	0	0	0	0	562	614	
0	0	0	0	0	552	612	
1	0	0	0	0	544	611	
2	0	0	0	0	536	611	
3	0	0	0	0	529	609	
4	0	0	0	0	523	612	
5	0	0	0	0	517	611	
6	0	0	0	0	512	612	
7	0	0	0	0	507	614	
8	0	0	0	0	503	612	
9	0	0	0	0	499	612	
10	0	0	0	0	497	612	
11	0	0	0	0	495	609	
12	0	0	0	0	493	611	
13	0	0	0	0	492	612	
14	0	0	0	0	491	612	
15	0	0	0	0	491	614	
0	0	0	0	0	490	612	
1	0	0	0	0	488	612	
2	0	0	0	0	487	612	
3	0	0	0	0	487	610	
4	0	0	0	0	487	612	
5	0	0	0	0	487	611	
6	0	0	0	0	487	611	
7	0	0	0	0	487	614	
8	0	0	0	0	487	611	
9	0	0	0	0	487	612	
10	0	0	0	0	487	613	
11	0	0	0	0	488	609	
12	0	0	0	0	488	611	
13	0	0	0	0	488	612	
14	0	0	0	0	488	611	
15	0	0	0	0	488	614	
0	0	0	0	0	488	612	
1	0	0	0	0	488	612	
2	0	0	0	0	488	612	
3	0	0	0	0	489	610	
4	0	0	0	0	488	611	
5	0	0	0	0	489	612	
6	0	0	0	0	489	612	
7	0	0	0	0	489	614	
8	0	0	0	0	490	612	
9	0	0	0	0	489	612	
10	0	0	0	0	490	613	
11	0	0	0	0	489	610	
12	0	0	0	0	489	612	
13	0	0	0	0	490	612	
14	0	0	0	0	490	612	
15	0	0	0	0	491	614	
0	0	0	0	0	491	612	
1	0	0	0	0	491	612	
2	0	0	0	0	492	612	
3	0	0	0	0	492	609	
4	0	0	0	0	493	612	
5	0	0	0	0	493	612	
6	0	0	0	0	493	612	
7	0	0	0	0	494	615	
8	0	0	0	0	494	613	
9	0	0	0	0	494	612	
10	0	0	0	0	494	612	
11	0	0	0	0	494	610	
12	0	0	0	0	493	612	
13	0	0	0	0	493	612	
14	0	0	0	0	492	612	
15	0	0	0	0	493	615	
0	0	0	0	0	492	612	
1	0	0	0	0	492	612	
2	0	0	0	0	492	612	
3	0	0	0	0	493	610	
4	0	0	0	0	494	612	
5	0	0	0	0	494	612	
6	0	0	0	0	495	613	
7	0	0	0	0	496	614	
8	0	0	0	0	496	612	
9	0	0	0	0	496	612	
10	0	0	0	0	495	612	
11	0	0	0	0	496	610	
12	0	0	0	0	495	612	
13	0	0	0	0	494	612	
14	0	0	0	0	495	612	
15	0	0	0	0	496	615	
0	0	0	0	0	497	612	
1	0	0	0	0	499	612	
2	0	0	0	0	500	613	
3	0	0	0	0	501	610	
4	0	0	0	0	501	613	
5	0	0	0	0	502	612	
6	0	0	0	0	502	612	
7	0	0	0	0	502	615	
8	0	0	0	0	502	613	
9	0	0	0	0	501	611	
10	0	0	0	0	501	612	
11	0	0	0	0	500	610	
12	0	0	0	0	499	612	
13	0	0	0	0	498	612	
14	0	0	0	0	496	611	
15	0	0	0	0	496	615	
0	0	0	0	0	496	612	
1	0	0	0	0	496	612	
2	0	0	0	0	496	612	
3	0	0	0	0	496	609	
4	0	0	0	0	497	612	
5	0	0	0	0	497	612	
6	0	0	0	0	498	612	
7	0	0	0	0	499	614	
8	0	0	0	0	499	612	
9	0	0	0	0	499	612	
10	0	0	0	0	499	611	
11	0	0	0	0	499	610	
12	0	0	0	0	499	611	
13	0	0	0	0	500	611	
14	0	0	0	0	500	612	
15	0	0	0	0	500	614	
0	0	0	0	0	500	612	
1	0	0	0	0	499	612	
2	0	0	0	0	499	612	
3	0	0	0	0	498	610	
4	0	0	0	0	498	612	
5	0	0	0	0	498	612	
6	0	0	0	0	498	611	
7	0	0	0	0	498	614	
8	0	0	0	0	499	611	
9	0	0	0	0	498	612	
10	0	0	0	0	498	611	
11	0	0	0	0	499	609	
12	0	0	0	0	499	611	
13	0	0	0	0	499	611	
14	0	0	0	0	499	611	
15	0	0	0	0	500	614	
0	0	0	0	0	501	611	
1	0	0	0	0	501	611	
2	0	0	0	0	501	612	
3	0	0	0	0	501	609	
4	0	0	0	0	502	611	
5	0	0	0	0	503	611	
6	0	0	0	0	503	611	
7	0	0	0	0	503	614	
8	0	0	0	0	503	612	
9	0	0	0	0	504	611	
10	0	0	0	0	504	612	
11	0	0	0	0	504	609	
12	0	0	0	0	504	611	
13	0	0	0	0	505	611	
14	0	0	0	0	505	611	
15	0	0	0	0	505	613	
0	0	0	0	0	505	611	
1	0	0	0	0	505	612	
2	0	0	0	0	505	611	
3	0	0	0	0	505	609	
4	0	0	0	0	506	611	
5	0	0	0	0	506	612	
6	0	0	0	0	506	612	
7	0	0	0	0	506	614	
8	0	0	0	0	507	612	
9	0	0	0	0	507	612	
10	0	0	0	0	508	612	
11	0	0	0	0	509	610	
12	0	0	0	0	509	613	
13	0	0	0	0	509	613	
14	0	0	0	0	511	613	
15	0	0	0	0	512	615	
0	0	0	0	0	512	613	
1	0	0	0	0	513	613	
2	0	0	0	0	513	613	
3	0	0	0	0	514	611	
4	0	0	0	0	514	613	
5	0	0	0	0	514	613	
6	0	0	0	0	514	613	
7	0	0	0	0	515	615	
8	0	0	0	0	515	612	
9	0	0	0	0	515	612	
10	0	0	0	0	516	612	
11	0	0	0	0	516	611	
12	0	0	0	0	517	612	
13	0	0	0	0	517	612	
14	0	0	0	0	518	612	
15	0	0	0	0	518	614	
0	0	0	0	0	519	612	
1	0	0	0	0	519	612	
2	0	0	0	0	519	612	
3	0	0	0	0	520	610	
4	0	0	0	0	520	612	
5	0	0	0	0	521	612	
6	0	0	0	0	521	611	
7	0	0	0	0	521	613	
8	0	0	0	0	521	611	
9	0	0	0	0	522	611	
10	0	0	0	0	523	611	
11	0	0	0	0	524	608	
12	0	0	0	0	523	611	
13	0	0	0	0	524	611	
14	0	0	0	0	525	611	
15	0	0	0	0	525	613	
0	0	0	0	0	525	611	
1	0	0	0	0	525	611	
2	0	0	0	0	526	611	
3	0	0	0	0	526	608	
4	0	0	0	0	527	610	
5	0	0	0	0	527	611	
6	0	0	0	0	528	611	
7	0	0	0	0	529	612	
8	0	0	0	0	529	611	
9	0	0	0	0	529	611	
10	0	0	0	0	530	611	
11	0	0	0	0	531	609	
12	0	0	0	0	531	611	
13	0	0	0	0	531	611	
14	0	0	0	0	531	611	
15	0	0	0	0	531	614	
0	0	0	0	0	531	611	
1	0	0	0	0	531	611	
2	0	0	0	0	532	611	
3	0	0	0	0	532	610	
4	0	0	0	0	532	611	
5	0	0	0	0	532	611	
6	0	0	0	0	532	612	
7	0	0	0	0	533	614	
8	0	0	0	0	533	612	
9	0	0	0	0	534	613	
10	0	0	0	0	534	613	
11	0	0	0	0	535	611	
12	0	0	0	0	535	613	
13	0	0	0	0	535	613	
14	0	0	0	0	534	613	
15	0	0	0	0	533	615	
0	0	0	0	0	532	613	
1	0	0	0	0	532	613	
2	0	0	0	0	531	613	
3	0	0	0	0	531	611	
4	0	0	0	0	531	613	
5	0	0	0	0	532	614	
6	0	0	0	0	533	613	
7	0	0	0	0	534	615	
8	0	0	0	0	535	615	
9	0	0	0	0	535	614	
10	0	0	0	0	535	614	
11	0	0	0	0	535	612	
12	0	0	0	0	535	614	
13	0	0	0	0	536	613	
14	0	0	0	0	535	614	
15	0	0	0	0	536	615	
0	0	0	0	0	535	613	
1	0	0	0	0	535	614	
2	0	0	0	0	534	614	
3	0	0	0	0	533	611	
4	0	0	0	0	532	613	
5	0	0	0	0	531	612	
6	0	0	0	0	530	613	
7	0	0	0	0	529	615	
8	0	0	0	0	529	612	
9	0	0	0	0	528	613	
10	0	0	0	0	528	614	
11	0	0	0	0	528	610	
12	0	0	0	0	527	612	
13	0	0	0	0	527	613	
14	0	0	0	0	527	612	
15	0	0	0	0	527	615	
0	0	0	0	0	527	613	
1	0	0	0	0	527	612	
2	0	0	0	0	527	611	
3	0	0	0	0	526	610	
4	0	0	0	0	526	612	
5	0	0	0	0	525	611	
6	0	0	0	0	525	612	
7	0	0	0	0	525	614	
8	0	0	0	0	525	612	
9	0	0	0	0	524	612	
10	0	0	0	0	524	611	
11	0	0	0	0	524	610	
12	0	0	0	0	523	612	
13	0	0	0	0	523	611	
14	0	0	0	0	522	611	
15	0	0	0	0	522	615	
0	0	0	0	0	522	612	
1	0	0	0	0	522	611	
2	0	0	0	0	521	612	
3	0	0	0	0	521	609	
4	0	0	0	0	521	611	
5	0	0	0	0	520	612	
6	0	0	0	0	521	612	
7	0	0	0	0	521	613	
8	0	0	0	0	521	612	
9	0	0	0	0	521	611	
10	0	0	0	0	521	611	
11	0	0	0	0	522	609	
12	0	0	0	0	522	612	
13	0	0	0	0	522	611	
14	0	0	0	0	522	611	
15	0	0	0	0	521	614	
0	0	0	0	0	520	611	
1	0	0	0	0	519	611	
2	0	0	0	0	519	611	
3	0	0	0	0	519	609	
4	0	0	0	0	519	611	
5	0	0	0	0	519	611	
6	0	0	0	0	518	611	
7	0	0	0	0	519	613	
8	0	0	0	0	517	611	
9	0	0	0	0	517	611	
10	0	0	0	0	516	611	
11	0	0	0	0	516	609	
12	0	0	0	0	516	610	
13	0	0	0	0	515	611	
14	0	0	0	0	515	611	
15	0	0	0	0	515	612	
0	0	0	0	0	515	610	
1	0	0	0	0	515	611	
2	0	0	0	0	515	610	
3	0	0	0	0	515	608	
4	0	0	0	0	514	611	
5	0	0	0	0	514	610	
6	0	0	0	0	514	611	
7	0	0	0	0	514	614	
8	0	0	0	0	514	611	
9	0	0	0	0	515	611	
10	0	0	0	0	514	612	
11	0	0	0	0	514	608	
12	0	0	0	0	514	611	
13	0	0	0	0	513	611	
14	0	0	0	0	512	611	
15	0	0	0	0	511	612	
0	0	0	0	0	511	612	
1	0	0	0	0	511	612	
2	0	0	0	0	511	611	
3	0	0	0	0	511	609	
4	0	0	0	0	511	611	
5	0	0	0	0	511	611	
6	0	0	0	0	510	612	
7	0	0	0	0	511	614	
8	0	0	0	0	511	612	
9	0	0	0	0	511	613	
10	0	0	0	0	511	612	
11	0	0	0	0	512	610	
12	0	0	0	0	512	612	
13	0	0	0	0	512	613	
14	0	0	0	0	512	613	
15	0	0	0	0	512	615	
0	0	0	0	0	512	613	
1	0	0	0	0	512	613	
2	0	0	0	0	513	614	
3	0	0	0	0	512	611	
4	0	0	0	0	512	614	
5	0	0	0	0	512	614	
6	0	0	0	0	512	614	
7	0	0	0	0	513	615	
8	0	0	0	0	512	614	
9	0	0	0	0	512	614	
10	0	0	0	0	512	614	
11	0	0	0	0	512	611	
12	0	0	0	0	512	614	
13	0	0	0	0	512	613	
14	0	0	0	0	512	614	
15	0	0	0	0	513	615	
0	0	0	0	0	513	614	
1	0	0	0	0	513	613	
2	0	0	0	0	513	614	
3	0	0	0	0	515	611	
4	0	0	0	0	516	614	
5	0	0	0	0	517	613	
6	0	0	0	0	518	613	
7	0	0	0	0	519	615	
8	0	0	0	0	520	614	
9	0	0	0	0	521	613	
10	0	0	0	0	522	613	
11	0	0	0	0	522	610	
12	0	0	0	0	523	612	
13	0	0	0	0	524	612	
14	0	0	0	0	525	613	
15	0	0	0	0	526	615	
0	0	0	0	0	526	612	
1	0	0	0	0	525	612	
2	0	0	0	0	525	612	
3	0	0	0	0	525	609	
4	0	0	0	0	525	612	
5	0	0	0	0	526	612	
6	0	0	0	0	526	612	
7	0	0	0	0	527	614	
8	0	0	0	0	527	612	
9	0	0	0	0	528	612	
10	0	0	0	0	528	612	
11	0	0	0	0	527	609	
12	0	0	0	0	527	612	
13	0	0	0	0	526	612	
14	0	0	0	0	526	611	
15	0	0	0	0	526	614	
0	0	0	0	0	526	611	
1	0	0	0	0	525	612	
2	0	0	0	0	525	611	
3	0	0	0	0	524	610	
4	0	0	0	0	523	612	
5	0	0	0	0	522	611	
6	0	0	0	0	520	611	
7	0	0	0	0	519	613	
8	0	0	0	0	518	611	
9	0	0	0	0	517	612	
10	0	0	0	0	516	611	
11	0	0	0	0	517	608	
12	0	0	0	0	516	610	
13	0	0	0	0	517	611	
14	0	0	0	0	516	611	
15	0	0	0	0	515	613	
0	0	0	0	0	515	611	
1	0	0	0	0	514	611	
2	0	0	0	0	515	611	
3	0	0	0	0	515	608	
4	0	0	0	0	515	611	
5	0	0	0	0	515	611	
6	0	0	0	0	515	611	
7	0	0	0	0	515	612	
8	0	0	0	0	514	611	
9	0	0	0	0	513	611	
10	0	0	0	0	513	611	
11	0	0	0	0	513	609	
12	0	0	0	0	513	611	
13	0	0	0	0	513	611	
14	0	0	0	0	512	610	
15	0	0	0	0	512	613	
0	0	0	0	0	511	611	
1	0	0	0	0	510	611	
2	0	0	0	0	510	611	
3	0	0	0	0	509	608	
4	0	0	0	0	509	611	
5	0	0	0	0	508	611	
6	0	0	0	0	508	611	
7	0	0	0	0	508	613	
8	0	0	0	0	508	612	
9	0	0	0	0	508	611	
10	0	0	0	0	508	611	
11	0	0	0	0	509	609	
12	0	0	0	0	508	611	
13	0	0	0	0	508	611	
14	0	0	0	0	508	611	
15	0	0	0	0	508	614	
0	0	0	0	0	508	612	
1	0	0	0	0	507	612	
2	0	0	0	0	507	612	
3	0	0	0	0	506	610	
4	0	0	0	0	506	612	
5	0	0	0	0	505	612	
6	0	0	0	0	505	612	
7	0	0	0	0	505	615	
8	0	0	0	0	504	613	
9	0	0	0	0	504	613	
10	0	0	0	0	504	612	
11	0	0	0	0	504	611	
12	0	0	0	0	503	612	
13	0	0	0	0	501	613	
14	0	0	0	0	499	613	
15	0	0	0	0	498	615	
0	0	0	0	0	495	613	
1	0	0	0	0	492	613	
2	0	0	0	0	489	613	
3	0	0	0	0	486	610	
4	0	0	0	0	483	612	
5	0	0	0	0	480	612	
6	0	0	0	0	477	614	
7	0	0	0	0	475	615	
8	0	0	0	0	473	614	
9	0	0	0	0	472	613	
10	0	0	0	0	470	613	
11	0	0	0	0	468	611	
12	0	0	0	0	466	613	
13	0	0	0	0	465	613	
14	0	0	0	0	465	613	
15	0	0	0	0	465	615	
0	0	0	0	0	466	612	
1	0	0	0	0	467	612	
2	0	0	0	0	470	612	
3	0	0	0	0	473	610	
4	0	0	0	0	478	612	
5	0	0	0	0	486	613	
6	0	0	0	0	494	612	
7	0	0	0	0	503	614	
8	0	0	0	0	511	612	
9	0	0	0	0	518	612	
10	0	0	0	0	524	612	
11	0	0	0	0	531	610	
12	0	0	0	0	537	612	
13	0	0	0	0	543	612	
14	0	0	0	0	550	612	
15	0	0	0	0	557	615	
0	0	0	0	0	561	613	
1	0	0	0	0	561	612	
2	0	0	0	0	564	611	
3	0	0	0	0	568	609	
4	0	0	0	0	574	611	
5	0	0	0	0	583	612	
6	0	0	0	0	595	612	
7	0	0	0	0	607	614	
8	0	0	0	0	619	612	
9	0	0	0	0	631	612	
10	0	0	0	0	643	612	
11	0	0	0	0	658	610	
12	0	0	0	0	678	612	
13	0	0	0	0	698	612	
14	0	0	0	0	716	612	
15	0	0	0	0	735	614	
0	0	0	0	0	749	612	
1	0	0	0	0	757	612	
2	0	0	0	0	757	611	
3	0	0	0	0	753	609	
4	0	0	0	0	745	611	
5	0	0	0	0	735	611	
6	0	0	0	0	722	611	
7	0	0	0	0	707	614	
8	0	0	0	0	690	611	
9	0	0	0	0	674	611	
10	0	0	0	0	657	611	
11	0	0	0	0	643	608	
12	0	0	0	0	628	611	
13	0	0	0	0	614	611	
14	0	0	0	0	601	611	
15	0	0	0	0	588	613	
0	0	0	0	0	575	610	
1	0	0	0	0	563	611	
2	0	0	0	0	552	611	
3	0	0	0	0	543	608	
4	0	0	0	0	534	611	
5	0	0	0	0	525	611	
6	0	0	0	0	516	611	
7	0	0	0	0	508	614	
8	0	0	0	0	502	611	
9	0	0	0	0	496	611	
10	0	0	0	0	491	611	
11	0	0	0	0	486	609	
12	0	0	0	0	482	612	
13	0	0	0	0	478	611	
14	0	0	0	0	475	611	
15	0	0	0	0	473	614	
0	0	0	0	0	471	612	
1	0	0	0	0	470	612	
2	0	0	0	0	468	611	
3	0	0	0	0	467	609	
4	0	0	0	0	466	612	
5	0	0	0	0	465	613	
6	0	0	0	0	465	612	
7	0	0	0	0	465	614	
8	0	0	0	0	465	613	
9	0	0	0	0	466	612	
10	0	0	0	0	466	613	
11	0	0	0	0	467	611	
12	0	0	0	0	467	612	
13	0	0	0	0	467	612	
14	0	0	0	0	466	612	
15	0	0	0	0	466	614	
0	0	0	0	0	466	612	
1	0	0	0	0	467	612	
2	0	0	0	0	466	613	
3	0	0	0	0	465	610	
4	0	0	0	0	465	612	
5	0	0	0	0	464	612	
6	0	0	0	0	464	612	
7	0	0	0	0	463	614	
8	0	0	0	0	462	612	
9	0	0	0	0	462	613	
10	0	0	0	0	462	612	
11	0	0	0	0	462	611	
12	0	0	0	0	463	613	
13	0	0	0	0	463	613	
14	0	0	0	0	463	613	
15	0	0	0	0	464	615	
0	0	0	0	0	464	613	
1	0	0	0	0	465	612	
2	0	0	0	0	465	612	
3	0	0	0	0	466	610	
4	0	0	0	0	467	613	
5	0	0	0	0	467	612	
6	0	0	0	0	467	613	
7	0	0	0	0	469	615	
8	0	0	0	0	470	613	
9	0	0	0	0	471	612	
10	0	0	0	0	472	613	
11	0	0	0	0	472	610	
12	0	0	0	0	472	613	
13	0	0	0	0	473	612	
14	0	0	0	0	474	612	
15	0	0	0	0	475	615	
0	0	0	0	0	474	614	
1	0	0	0	0	475	612	
2	0	0	0	0	475	612	
3	0	0	0	0	475	610	
4	0	0	0	0	474	612	
5	0	0	0	0	475	612	
6	0	0	0	0	475	612	
7	0	0	0	0	475	615	
8	0	0	0	0	475	612	
9	0	0	0	0	475	613	
10	0	0	0	0	476	613	
11	0	0	0	0	476	611	
12	0	0	0	0	476	612	
13	0	0	0	0	476	612	
14	0	0	0	0	476	613	
15	0	0	0	0	476	614	
0	0	0	0	0	476	612	
1	0	0	0	0	477	612	
2	0	0	0	0	478	612	
3	0	0	0	0	478	611	
4	0	0	0	0	478	612	
5	0	0	0	0	478	612	
6	0	0	0	0	478	612	
7	0	0	0	0	478	613	
8	0	0	0	0	478	611	
9	0	0	0	0	478	611	
10	0	0	0	0	478	611	
11	0	0	0	0	478	609	
12	0	0	0	0	478	611	
13	0	0	0	0	478	612	
14	0	0	0	0	478	612	
15	0	0	0	0	478	614	
0	0	0	0	0	478	611	
1	0	0	0	0	478	611	
2	0	0	0	0	478	612	
3	0	0	0	0	477	609	
4	0	0	0	0	477	611	
5	0	0	0	0	476	611	
6	0	0	0	0	476	612	
7	0	0	0	0	476	614	
8	0	0	0	0	475	612	
9	0	0	0	0	475	612	
10	0	0	0	0	475	612	
11	0	0	0	0	474	609	
12	0	0	0	0	474	612	
13	0	0	0	0	473	612	
14	0	0	0	0	473	612	
15	0	0	0	0	472	614	
0	0	0	0	0	472	612	
1	0	0	0	0	472	612	
2	0	0	0	0	472	611	
3	0	0	0	0	473	609	
4	0	0	0	0	473	612	
5	0	0	0	0	474	612	
6	0	0	0	0	474	611	
7	0	0	0	0	474	614	
8	0	0	0	0	474	611	
9	0	0	0	0	474	612	
10	0	0	0	0	474	611	
11	0	0	0	0	474	609	
12	0	0	0	0	474	611	
13	0	0	0	0	474	612	
14	0	0	0	0	473	612	
15	0	0	0	0	473	614	
0	0	0	0	0	473	612	
1	0	0	0	0	473	612	
2	0	0	0	0	472	611	
3	0	0	0	0	472	609	
4	0	0	0	0	472	611	
5	0	0	0	0	472	611	
6	0	0	0	0	472	611	
7	0	0	0	0	472	614	
8	0	0	0	0	472	611	
9	0	0	0	0	473	612	
10	0	0	0	0	473	612	
11	0	0	0	0	473	610	
12	0	0	0	0	474	612	
13	0	0	0	0	474	612	
14	0	0	0	0	474	612	
15	0	0	0	0	475	614	
0	0	0	0	0	476	612	
1	0	0	0	0	476	612	
2	0	0	0	0	477	611	
3	0	0	0	0	479	610	
4	0	0	0	0	480	612	
5	0	0	0	0	480	612	
6	0	0	0	0	482	612	
7	0	0	0	0	482	614	
8	0	0	0	0	483	612	
9	0	0	0	0	483	613	
10	0	0	0	0	484	612	
11	0	0	0	0	484	610	
12	0	0	0	0	485	612	
13	0	0	0	0	486	612	
14	0	0	0	0	487	612	
15	0	0	0	0	487	615	
0	0	0	0	0	489	612	
1	0	0	0	0	489	612	
2	0	0	0	0	490	613	
3	0	0	0	0	491	611	
4	0	0	0	0	492	613	
5	0	0	0	0	492	612	
6	0	0	0	0	493	612	
7	0	0	0	0	494	615	
8	0	0	0	0	495	612	
9	0	0	0	0	496	612	
10	0	0	0	0	497	613	
11	0	0	0	0	497	610	
12	0	0	0	0	499	613	
13	0	0	0	0	499	613	
14	0	0	0	0	500	613	
15	0	0	0	0	501	615	
0	0	0	0	0	502	613	
1	0	0	0	0	503	612	
2	0	0	0	0	503	613	
3	0	0	0	0	504	610	
4	0	0	0	0	504	613	
5	0	0	0	0	504	612	
6	0	0	0	0	504	613	
7	0	0	0	0	504	615	
8	0	0	0	0	504	613	
9	0	0	0	0	503	613	
10	0	0	0	0	503	612	
11	0	0	0	0	502	610	
12	0	0	0	0	502	612	
13	0	0	0	0	502	611	
14	0	0	0	0	502	611	
15	0	0	0	0	502	614	
0	0	0	0	0	501	611	
1	0	0	0	0	501	612	
2	0	0	0	0	502	612	
3	0	0	0	0	502	610	
4	0	0	0	0	503	612	
5	0	0	0	0	504	612	
6	0	0	0	0	504	612	
7	0	0	0	0	504	614	
8	0	0	0	0	506	612	
9	0	0	0	0	506	612	
10	0	0	0	0	507	612	
11	0	0	0	0	507	609	
12	0	0	0	0	508	612	
13	0	0	0	0	508	612	
14	0	0	0	0	509	612	
15	0	0	0	0	509	615	
0	0	0	0	0	509	612	
1	0	0	0	0	510	612	
2	0	0	0	0	510	613	
3	0	0	0	0	510	609	
4	0	0	0	0	510	612	
5	0	0	0	0	511	612	
6	0	0	0	0	511	612	
7	0	0	0	0	512	615	
8	0	0	0	0	512	612	
9	0	0	0	0	512	612	
10	0	0	0	0	513	612	
11	0	0	0	0	514	610	
12	0	0	0	0	514	611	
13	0	0	0	0	514	612	
14	0	0	0	0	515	612	
15	0	0	0	0	515	614	
0	0	0	0	0	515	612	
1	0	0	0	0	516	612	
2	0	0	0	0	515	611	
3	0	0	0	0	515	610	
4	0	0	0	0	516	612	
5	0	0	0	0	515	612	
6	0	0	0	0	515	611	
7	0	0	0	0	514	614	
8	0	0	0	0	514	612	
9	0	0	0	0	514	611	
10	0	0	0	0	514	612	
11	0	0	0	0	514	609	
12	0	0	0	0	513	612	
13	0	0	0	0	513	612	
14	0	0	0	0	512	611	
15	0	0	0	0	512	614	
0	0	0	0	0	512	612	
1	0	0	0	0	512	612	
2	0	0	0	0	512	611	
3	0	0	0	0	512	610	
4	0	0	0	0	512	612	
5	0	0	0	0	512	612	
6	0	0	0	0	511	611	
7	0	0	0	0	511	614	
8	0	0	0	0	511	612	
9	0	0	0	0	510	612	
10	0	0	0	0	510	612	
11	0	0	0	0	510	610	
12	0	0	0	0	509	611	
13	0	0	0	0	509	612	
14	0	0	0	0	508	611	
15	0	0	0	0	508	614	
0	0	0	0	0	508	612	
1	0	0	0	0	508	612	
2	0	0	0	0	508	611	
3	0	0	0	0	508	609	
4	0	0	0	0	508	611	
5	0	0	0	0	509	611	
6	0	0	0	0	509	611	
7	0	0	0	0	510	614	
8	0	0	0	0	510	611	
9	0	0	0	0	510	611	
10	0	0	0	0	510	612	
11	0	0	0	0	510	610	
12	0	0	0	0	509	612	
13	0	0	0	0	509	612	
14	0	0	0	0	508	611	
15	0	0	0	0	508	613	
0	0	0	0	0	508	611	
1	0	0	0	0	507	611	
2	0	0	0	0	507	612	
3	0	0	0	0	507	609	
4	0	0	0	0	508	611	
5	0	0	0	0	507	611	
6	0	0	0	0	507	612	
7	0	0	0	0	507	614	
8	0	0	0	0	507	611	
9	0	0	0	0	507	611	
10	0	0	0	0	507	612	
11	0	0	0	0	507	609	
12	0	0	0	0	507	612	
13	0	0	0	0	507	611	
14	0	0	0	0	507	611	
15	0	0	0	0	507	614	
0	0	0	0	0	507	612	
1	0	0	0	0	507	611	
2	0	0	0	0	507	612	
3	0	0	0	0	507	609	
4	0	0	0	0	507	612	
5	0	0	0	0	507	611	
6	0	0	0	0	507	612	
7	0	0	0	0	506	614	
8	0	0	0	0	506	611	
9	0	0	0	0	506	612	
10	0	0	0	0	507	612	
11	0	0	0	0	508	609	
12	0	0	0	0	508	612	
13	0	0	0	0	509	611	
14	0	0	0	0	509	612	
15	0	0	0	0	510	614	
0	0	0	0	0	510	612	
1	0	0	0	0	510	611	
2	0	0	0	0	510	612	
3	0	0	0	0	510	609	
4	0	0	0	0	509	612	
5	0	0	0	0	508	611	
6	0	0	0	0	507	612	
7	0	0	0	0	506	614	
8	0	0	0	0	505	612	
9	0	0	0	0	504	612	
10	0	0	0	0	502	612	
11	0	0	0	0	502	610	
12	0	0	0	0	501	612	
13	0	0	0	0	501	612	
14	0	0	0	0	502	612	
15	0	0	0	0	501	614	
0	0	0	0	0	500	613	
1	0	0	0	0	500	612	
2	0	0	0	0	500	612	
3	0	0	0	0	500	610	
4	0	0	0	0	500	611	
5	0	0	0	0	500	612	
6	0	0	0	0	500	612	
7	0	0	0	0	500	615	
8	0	0	0	0	501	613	
9	0	0	0	0	501	613	
10	0	0	0	0	500	613	
11	0	0	0	0	500	609	
12	0	0	0	0	500	612	
13	0	0	0	0	500	612	
14	0	0	0	0	501	613	
15	0	0	0	0	501	615	
0	0	0	0	0	501	612	
1	0	0	0	0	502	612	
2	0	0	0	0	502	613	
3	0	0	0	0	502	611	
4	0	0	0	0	502	614	
5	0	0	0	0	502	613	
6	0	0	0	0	502	613	
7	0	0	0	0	502	615	
8	0	0	0	0	501	614	
9	0	0	0	0	501	613	
10	0	0	0	0	500	613	
11	0	0	0	0	499	610	
12	0	0	0	0	499	613	
13	0	0	0	0	498	613	
14	0	0	0	0	497	613	
15	0	0	0	0	497	615	
0	0	0	0	0	496	613	
1	0	0	0	0	496	613	
2	0	0	0	0	495	613	
3	0	0	0	0	495	611	
4	0	0	0	0	495	612	
5	0	0	0	0	495	612	
6	0	0	0	0	496	613	
7	0	0	0	0	497	614	
8	0	0	0	0	497	612	
9	0	0	0	0	498	612	
10	0	0	0	0	498	612	
11	0	0	0	0	499	610	
12	0	0	0	0	500	612	
13	0	0	0	0	499	612	
14	0	0	0	0	500	612	
15	0	0	0	0	500	614	
0	0	0	0	0	501	612	
1	0	0	0	0	501	611	
2	0	0	0	0	501	611	
3	0	0	0	0	502	609	
4	0	0	0	0	502	611	
5	0	0	0	0	503	611	
6	0	0	0	0	503	611	
7	0	0	0	0	504	614	
8	0	0	0	0	504	611	
9	0	0	0	0	504	611	
10	0	0	0	0	504	611	
11	0	0	0	0	504	609	
12	0	0	0	0	503	611	
13	0	0	0	0	503	611	
14	0	0	0	0	502	611	
15	0	0	0	0	501	614	
0	0	0	0	0	500	612	
1	0	0	0	0	499	611	
2	0	0	0	0	498	612	
3	0	0	0	0	497	609	
4	0	0	0	0	496	611	
5	0	0	0	0	495	611	
6	0	0	0	0	494	612	
7	0	0	0	0	494	613	
8	0	0	0	0	492	612	
9	0	0	0	0	491	611	
10	0	0	0	0	489	611	
11	0	0	0	0	489	609	
12	0	0	0	0	489	611	
13	0	0	0	0	488	612	
14	0	0	0	0	488	611	
15	0	0	0	0	488	614	
0	0	0	0	0	488	611	
1	0	0	0	0	487	612	
2	0	0	0	0	487	612	
3	0	0	0	0	487	610	
4	0	0	0	0	487	612	
5	0	0	0	0	487	612	
6	0	0	0	0	486	612	
7	0	0	0	0	486	615	
8	0	0	0	0	485	612	
9	0	0	0	0	485	612	
10	0	0	0	0	485	612	
11	0	0	0	0	485	611	
12	0	0	0	0	485	612	
13	0	0	0	0	484	612	
14	0	0	0	0	483	612	
15	0	0	0	0	483	615	
0	0	0	0	0	483	612	
1	0	0	0	0	483	612	
2	0	0	0	0	483	613	
3	0	0	0	0	483	610	
4	0	0	0	0	483	612	
5	0	0	0	0	483	611	
6	0	0	0	0	483	612	
7	0	0	0	0	482	614	
8	0	0	0	0	481	612	
9	0	0	0	0	481	612	
10	0	0	0	0	480	612	
11	0	0	0	0	480	609	
12	0	0	0	0	479	612	
13	0	0	0	0	479	611	
14	0	0	0	0	478	612	
15	0	0	0	0	478	614	
0	0	0	0	0	478	612	
1	0	0	0	0	478	611	
2	0	0	0	0	479	611	
3	0	0	0	0	479	609	
4	0	0	0	0	480	611	
5	0	0	0	0	480	612	
6	0	0	0	0	481	612	
7	0	0	0	0	481	613	
8	0	0	0	0	481	612	
9	0	0	0	0	481	611	
10	0	0	0	0	480	611	
11	0	0	0	0	480	609	
12	0	0	0	0	479	611	
13	0	0	0	0	478	612	
14	0	0	0	0	475	611	
15	0	0	0	0	473	614	
0	0	0	0	0	470	612	
1	0	0	0	0	467	612	
2	0	0	0	0	465	612	
3	0	0	0	0	463	610	
4	0	0	0	0	460	612	
5	0	0	0	0	458	612	
6	0	0	0	0	455	612	
7	0	0	0	0	453	614	
8	0	0	0	0	451	612	
9	0	0	0	0	449	612	
10	0	0	0	0	448	612	
11	0	0	0	0	446	610	
12	0	0	0	0	444	612	
13	0	0	0	0	441	611	
14	0	0	0	0	439	612	
15	0	0	0	0	439	615	
0	0	0	0	0	439	613	
1	0	0	0	0	439	612	
2	0	0	0	0	441	612	
3	0	0	0	0	444	609	
4	0	0	0	0	448	612	
5	0	0	0	0	455	612	
6	0	0	0	0	463	612	
7	0	0	0	0	472	613	
8	0	0	0	0	481	612	
9	0	0	0	0	491	612	
10	0	0	0	0	499	611	
11	0	0	0	0	506	610	
12	0	0	0	0	512	612	
13	0	0	0	0	518	611	
14	0	0	0	0	524	611	
15	0	0	0	0	531	613	
0	0	0	0	0	537	612	
1	0	0	0	0	539	611	
2	0	0	0	0	539	611	
3	0	0	0	0	540	610	
4	0	0	0	0	544	612	
5	0	0	0	0	550	612	
6	0	0	0	0	556	611	
7	0	0	0	0	564	614	
8	0	0	0	0	574	612	
9	0	0	0	0	582	611	
10	0	0	0	0	591	612	
11	0	0	0	0	603	610	
12	0	0	0	0	617	612	
13	0	0	0	0	636	612	
14	0	0	0	0	655	612	
15	0	0	0	0	672	614	
0	0	0	0	0	688	612	
1	0	0	0	0	703	612	
2	0	0	0	0	711	612	
3	0	0	0	0	714	610	
4	0	0	0	0	712	612	
5	0	0	0	0	705	612	
6	0	0	0	0	694	611	
7	0	0	0	0	680	614	
8	0	0	0	0	664	612	
9	0	0	0	0	647	612	
10	0	0	0	0	630	612	
11	0	0	0	0	614	611	
12	0	0	0	0	600	612	
13	0	0	0	0	587	612	
14	0	0	0	0	574	612	
15	0	0	0	0	560	614	
0	0	0	0	0	548	612	
1	0	0	0	0	536	612	
2	0	0	0	0	525	612	
3	0	0	0	0	515	610	
4	0	0	0	0	506	612	
5	0	0	0	0	497	612	
6	0	0	0	0	490	612	
7	0	0	0	0	482	614	
8	0	0	0	0	476	613	
9	0	0	0	0	470	612	
10	0	0	0	0	464	612	
11	0	0	0	0	460	610	
12	0	0	0	0	455	612	
13	0	0	0	0	451	613	
14	0	0	0	0	448	613	
15	0	0	0	0	446	615	
0	0	0	0	0	445	613	
1	0	0	0	0	444	613	
2	0	0	0	0	443	613	
3	0	0	0	0	442	611	
4	0	0	0	0	441	613	
5	0	0	0	0	440	613	
6	0	0	0	0	439	612	
7	0	0	0	0	438	614	
8	0	0	0	0	438	612	
9	0	0	0	0	436	613	
10	0	0	0	0	436	612	
11	0	0	0	0	435	610	
12	0	0	0	0	435	612	
13	0	0	0	0	435	612	
14	0	0	0	0	435	611	
15	0	0	0	0	436	614	
0	0	0	0	0	437	612	
1	0	0	0	0	438	612	
2	0	0	0	0	439	612	
3	0	0	0	0	439	609	
4	0	0	0	0	440	612	
5	0	0	0	0	440	611	
6	0	0	0	0	440	611	
7	0	0	0	0	441	614	
8	0	0	0	0	443	612	
9	0	0	0	0	444	611	
10	0	0	0	0	444	611	
11	0	0	0	0	445	609	
12	0	0	0	0	446	611	
13	0	0	0	0	447	611	
14	0	0	0	0	448	610	
15	0	0	0	0	449	613	
0	0	0	0	0	449	611	
1	0	0	0	0	449	611	
2	0	0	0	0	449	611	
3	0	0	0	0	450	608	
4	0	0	0	0	450	611	
5	0	0	0	0	451	611	
6	0	0	0	0	450	610	
7	0	0	0	0	450	612	
8	0	0	0	0	450	611	
9	0	0	0	0	449	611	
10	0	0	0	0	449	610	
11	0	0	0	0	450	608	
12	0	0	0	0	450	611	
13	0	0	0	0	451	611	
14	0	0	0	0	452	611	
15	0	0	0	0	453	613	
0	0	0	0	0	454	611	
1	0	0	0	0	454	611	
2	0	0	0	0	455	611	
3	0	0	0	0	455	609	
4	0	0	0	0	457	611	
5	0	0	0	0	458	611	
6	0	0	0	0	459	612	
7	0	0	0	0	460	614	
8	0	0	0	0	460	611	
9	0	0	0	0	461	611	
10	0	0	0	0	462	611	
11	0	0	0	0	463	609	
12	0	0	0	0	464	612	
13	0	0	0	0	465	612	
14	0	0	0	0	465	612	
15	0	0	0	0	466	614	
0	0	0	0	0	467	612	
1	0	0	0	0	468	612	
2	0	0	0	0	468	611	
3	0	0	0	0	468	609	
4	0	0	0	0	469	611	
5	0	0	0	0	469	611	
6	0	0	0	0	471	612	
7	0	0	0	0	471	615	
8	0	0	0	0	471	612	
9	0	0	0	0	472	613	
10	0	0	0	0	472	612	
11	0	0	0	0	473	610	
12	0	0	0	0	473	612	
13	0	0	0	0	474	612	
14	0	0	0	0	474	613	
15	0	0	0	0	474	615	
0	0	0	0	0	475	613	
1	0	0	0	0	475	612	
2	0	0	0	0	475	613	
3	0	0	0	0	475	610	
4	0	0	0	0	476	613	
5	0	0	0	0	476	613	
6	0	0	0	0	476	612	
7	0	0	0	0	477	614	
8	0	0	0	0	478	613	
9	0	0	0	0	478	613	
10	0	0	0	0	479	613	
11	0	0	0	0	480	610	
12	0	0	0	0	480	612	
13	0	0	0	0	480	612	
14	0	0	0	0	480	612	
15	0	0	0	0	480	615	
0	0	0	0	0	480	613	
1	0	0	0	0	480	612	
2	0	0	0	0	480	612	
3	0	0	0	0	480	611	
4	0	0	0	0	480	613	
5	0	0	0	0	480	614	
6	0	0	0	0	480	613	
7	0	0	0	0	481	615	
8	0	0	0	0	481	613	
9	0	0	0	0	481	613	
10	0	0	0	0	481	613	
11	0	0	0	0	480	610	
12	0	0	0	0	481	614	
13	0	0	0	0	481	613	
14	0	0	0	0	481	612	
15	0	0	0	0	481	615	
0	0	0	0	0	481	612	
1	0	0	0	0	481	612	
2	0	0	0	0	481	613	
3	0	0	0	0	482	610	
4	0	0	0	0	481	613	
5	0	0	0	0	481	612	
6	0	0	0	0	481	613	
7	0	0	0	0	480	614	
8	0	0	0	0	480	613	
9	0	0	0	0	479	612	
10	0	0	0	0	480	613	
11	0	0	0	0	480	610	
12	0	0	0	0	480	612	
13	0	0	0	0	481	613	
14	0	0	0	0	481	612	
15	0	0	0	0	482	614	
0	0	0	0	0	483	612	
1	0	0	0	0	483	611	
2	0	0	0	0	484	612	
3	0	0	0	0	484	610	
4	0	0	0	0	485	611	
5	0	0	0	0	485	611	
6	0	0	0	0	485	612	
7	0	0	0	0	486	614	
8	0	0	0	0	486	612	
9	0	0	0	0	486	612	
10	0	0	0	0	487	612	
11	0	0	0	0	487	609	
12	0	0	0	0	487	612	
13	0	0	0	0	487	612	
14	0	0	0	0	488	613	
15	0	0	0	0	489	614	
0	0	0	0	0	491	611	
1	0	0	0	0	492	612	
2	0	0	0	0	492	611	
3	0	0	0	0	493	609	
4	0	0	0	0	493	611	
5	0	0	0	0	493	611	
6	0	0	0	0	493	611	
7	0	0	0	0	493	613	
8	0	0	0	0	494	611	
9	0	0	0	0	495	612	
10	0	0	0	0	495	611	
11	0	0	0	0	495	609	
12	0	0	0	0	495	611	
13	0	0	0	0	495	612	
14	0	0	0	0	495	611	
15	0	0	0	0	495	613	
0	0	0	0	0	496	611	
1	0	0	0	0	497	611	
2	0	0	0	0	498	611	
3	0	0	0	0	499	609	
4	0	0	0	0	499	612	
5	0	0	0	0	500	611	
6	0	0	0	0	501	611	
7	0	0	0	0	501	613	
8	0	0	0	0	502	612	
9	0	0	0	0	503	611	
10	0	0	0	0	504	611	
11	0	0	0	0	505	610	
12	0	0	0	0	506	611	
13	0	0	0	0	506	611	
14	0	0	0	0	508	611	
15	0	0	0	0	509	614	
0	0	0	0	0	510	611	
1	0	0	0	0	511	611	
2	0	0	0	0	512	611	
3	0	0	0	0	512	609	
4	0	0	0	0	512	611	
5	0	0	0	0	514	611	
6	0	0	0	0	515	611	
7	0	0	0	0	515	613	
8	0	0	0	0	516	611	
9	0	0	0	0	516	611	
10	0	0	0	0	516	612	
11	0	0	0	0	517	609	
12	0	0	0	0	518	612	
13	0	0	0	0	518	611	
14	0	0	0	0	519	612	
15	0	0	0	0	520	614	
0	0	0	0	0	521	612	
1	0	0	0	0	522	612	
2	0	0	0	0	523	612	
3	0	0	0	0	524	609	
4	0	0	0	0	524	611	
5	0	0	0	0	525	611	
6	0	0	0	0	526	613	
7	0	0	0	0	526	614	
8	0	0	0	0	527	612	
9	0	0	0	0	528	612	
10	0	0	0	0	528	611	
11	0	0	0	0	529	609	
12	0	0	0	0	529	612	
13	0	0	0	0	530	612	
14	0	0	0	0	531	612	
15	0	0	0	0	532	614	
0	0	0	0	0	533	612	
1	0	0	0	0	533	612	
2	0	0	0	0	534	612	
3	0	0	0	0	533	610	
4	0	0	0	0	533	613	
5	0	0	0	0	533	612	
6	0	0	0	0	533	612	
7	0	0	0	0	534	614	
8	0	0	0	0	535	613	
9	0	0	0	0	535	612	
10	0	0	0	0	535	612	
11	0	0	0	0	535	609	
12	0	0	0	0	536	613	
13	0	0	0	0	536	612	
14	0	0	0	0	536	612	
15	0	0	0	0	536	615	
0	0	0	0	0	536	612	
1	0	0	0	0	536	612	
2	0	0	0	0	536	612	
3	0	0	0	0	537	610	
4	0	0	0	0	537	612	
5	0	0	0	0	537	612	
6	0	0	0	0	538	612	
7	0	0	0	0	538	614	
8	0	0	0	0	537	612	
9	0	0	0	0	537	612	
10	0	0	0	0	537	611	
11	0	0	0	0	538	609	
12	0	0	0	0	539	612	
13	0	0	0	0	540	612	
14	0	0	0	0	540	612	
15	0	0	0	0	540	614	
0	0	0	0	0	539	612	
1	0	0	0	0	538	611	
2	0	0	0	0	538	611	
3	0	0	0	0	536	609	
4	0	0	0	0	535	612	
5	0	0	0	0	535	611	
6	0	0	0	0	534	611	
7	0	0	0	0	533	613	
8	0	0	0	0	533	612	
9	0	0	0	0	532	611	
10	0	0	0	0	533	612	
11	0	0	0	0	533	610	
12	0	0	0	0	534	611	
13	0	0	0	0	534	611	
14	0	0	0	0	533	611	
15	0	0	0	0	533	614	
0	0	0	0	0	533	611	
1	0	0	0	0	532	612	
2	0	0	0	0	533	612	
3	0	0	0	0	532	609	
4	0	0	0	0	532	612	
5	0	0	0	0	532	612	
6	0	0	0	0	533	612	
7	0	0	0	0	534	614	
8	0	0	0	0	534	612	
9	0	0	0	0	535	612	
10	0	0	0	0	535	613	
11	0	0	0	0	535	610	
12	0	0	0	0	536	613	
13	0	0	0	0	536	613	
14	0	0	0	0	537	612	
15	0	0	0	0	537	615	
0	0	0	0	0	537	612	
1	0	0	0	0	537	612	
2	0	0	0	0	537	612	
3	0	0	0	0	537	610	
4	0	0	0	0	536	613	
5	0	0	0	0	535	612	
6	0	0	0	0	534	612	
7	0	0	0	0	532	615	
8	0	0	0	0	531	612	
9	0	0	0	0	529	612	
10	0	0	0	0	528	612	
11	0	0	0	0	527	610	
12	0	0	0	0	527	612	
13	0	0	0	0	527	612	
14	0	0	0	0	527	612	
15	0	0	0	0	527	615	
0	0	0	0	0	527	612	
1	0	0	0	0	527	612	
2	0	0	0	0	528	612	
3	0	0	0	0	527	611	
4	0	0	0	0	527	612	
5	0	0	0	0	527	612	
6	0	0	0	0	526	612	
7	0	0	0	0	526	614	
8	0	0	0	0	525	612	
9	0	0	0	0	525	611	
10	0	0	0	0	525	612	
11	0	0	0	0	524	609	
12	0	0	0	0	524	612	
13	0	0	0	0	524	612	
14	0	0	0	0	524	613	
15	0	0	0	0	524	615	
0	0	0	0	0	524	612	
1	0	0	0	0	524	613	
2	0	0	0	0	525	613	
3	0	0	0	0	525	609	
4	0	0	0	0	525	613	
5	0	0	0	0	526	612	
6	0	0	0	0	527	612	
7	0	0	0	0	528	614	
8	0	0	0	0	528	612	
9	0	0	0	0	528	611	
10	0	0	0	0	528	612	
11	0	0	0	0	529	609	
12	0	0	0	0	528	612	
13	0	0	0	0	529	612	
14	0	0	0	0	529	611	
15	0	0	0	0	529	614	
0	0	0	0	0	529	612	
1	0	0	0	0	528	612	
2	0	0	0	0	528	611	
3	0	0	0	0	526	609	
4	0	0	0	0	525	611	
5	0	0	0	0	525	612	
6	0	0	0	0	525	612	
7	0	0	0	0	525	614	
8	0	0	0	0	525	611	
9	0	0	0	0	525	612	
10	0	0	0	0	525	612	
11	0	0	0	0	525	609	
12	0	0	0	0	525	611	
13	0	0	0	0	524	611	
14	0	0	0	0	524	611	
15	0	0	0	0	525	614	
0	0	0	0	0	525	611	
1	0	0	0	0	526	611	
2	0	0	0	0	527	611	
3	0	0	0	0	527	609	
4	0	0	0	0	529	612	
5	0	0	0	0	530	611	
6	0	0	0	0	531	611	
7	0	0	0	0	532	614	
8	0	0	0	0	534	612	
9	0	0	0	0	535	611	
10	0	0	0	0	536	612	
11	0	0	0	0	537	609	
12	0	0	0	0	538	611	
13	0	0	0	0	540	611	
14	0	0	0	0	540	611	
15	0	0	0	0	541	614	
0	0	0	0	0	542	612	
1	0	0	0	0	542	612	
2	0	0	0	0	542	612	
3	0	0	0	0	542	609	
4	0	0	0	0	542	611	
5	0	0	0	0	542	611	
6	0	0	0	0	543	611	
7	0	0	0	0	543	614	
8	0	0	0	0	542	612	
9	0	0	0	0	541	612	
10	0	0	0	0	540	612	
11	0	0	0	0	539	610	
12	0	0	0	0	539	612	
13	0	0	0	0	538	612	
14	0	0	0	0	537	612	
15	0	0	0	0	537	615	
0	0	0	0	0	537	612	
1	0	0	0	0	536	612	
2	0	0	0	0	535	612	
3	0	0	0	0	534	610	
4	0	0	0	0	533	612	
5	0	0	0	0	531	612	
6	0	0	0	0	529	613	
7	0	0	0	0	529	615	
8	0	0	0	0	527	613	
9	0	0	0	0	526	612	
10	0	0	0	0	525	613	
11	0	0	0	0	524	610	
12	0	0	0	0	523	614	
13	0	0	0	0	522	613	
14	0	0	0	0	521	612	
15	0	0	0	0	520	614	
0	0	0	0	0	520	612	
1	0	0	0	0	519	612	
2	0	0	0	0	518	612	
3	0	0	0	0	517	610	
4	0	0	0	0	517	612	
5	0	0	0	0	517	613	
6	0	0	0	0	516	612	
7	0	0	0	0	516	614	
8	0	0	0	0	517	612	
9	0	0	0	0	518	612	
10	0	0	0	0	517	613	
11	0	0	0	0	518	611	
12	0	0	0	0	517	612	
13	0	0	0	0	517	612	
14	0	0	0	0	516	612	
15	0	0	0	0	515	614	
0	0	0	0	0	515	612	
1	0	0	0	0	515	612	
2	0	0	0	0	514	612	
3	0	0	0	0	513	611	
4	0	0	0	0	513	612	
5	0	0	0	0	513	612	
6	0	0	0	0	512	612	
7	0	0	0	0	511	615	
8	0	0	0	0	510	612	
9	0	0	0	0	510	612	
10	0	0	0	0	510	612	
11	0	0	0	0	509	610	
12	0	0	0	0	509	612	
13	0	0	0	0	510	612	
14	0	0	0	0	510	612	
15	0	0	0	0	511	614	
0	0	0	0	0	511	611	
1	0	0	0	0	512	612	
2	0	0	0	0	512	611	
3	0	0	0	0	512	610	
4	0	0	0	0	512	611	
5	0	0	0	0	511	611	
6	0	0	0	0	511	611	
7	0	0	0	0	510	613	
8	0	0	0	0	509	612	
9	0	0	0	0	507	611	
10	0	0	0	0	505	611	
11	0	0	0	0	504	608	
12	0	0	0	0	503	612	
13	0	0	0	0	501	611	
14	0	0	0	0	499	611	
15	0	0	0	0	497	614	
0	0	0	0	0	495	611	
1	0	0	0	0	494	611	
2	0	0	0	0	492	611	
3	0	0	0	0	491	609	
4	0	0	0	0	490	611	
5	0	0	0	0	489	611	
6	0	0	0	0	489	611	
7	0	0	0	0	488	613	
8	0	0	0	0	487	611	
9	0	0	0	0	486	611	
10	0	0	0	0	484	611	
11	0	0	0	0	481	609	
12	0	0	0	0	479	611	
13	0	0	0	0	476	611	
14	0	0	0	0	476	612	
15	0	0	0	0	475	614	
0	0	0	0	0	476	612	
1	0	0	0	0	478	611	
2	0	0	0	0	480	612	
3	0	0	0	0	483	609	
4	0	0	0	0	489	612	
5	0	0	0	0	495	612	
6	0	0	0	0	502	612	
7	0	0	0	0	511	614	
8	0	0	0	0	518	611	
9	0	0	0	0	524	612	
10	0	0	0	0	529	612	
11	0	0	0	0	534	610	
12	0	0	0	0	540	612	
13	0	0	0	0	544	612	
14	0	0	0	0	548	612	
15	0	0	0	0	552	614	
0	0	0	0	0	551	612	
1	0	0	0	0	553	612	
2	0	0	0	0	556	613	
3	0	0	0	0	560	610	
4	0	0	0	0	567	612	
5	0	0	0	0	575	612	
6	0	0	0	0	585	612	
7	0	0	0	0	594	615	
8	0	0	0	0	605	612	
9	0	0	0	0	618	613	
10	0	0	0	0	632	612	
11	0	0	0	0	651	611	
12	0	0	0	0	671	612	
13	0	0	0	0	690	612	
14	0	0	0	0	708	613	
15	0	0	0	0	725	615	
0	0	0	0	0	738	613	
1	0	0	0	0	743	614	
2	0	0	0	0	742	613	
3	0	0	0	0	737	611	
4	0	0	0	0	728	613	
5	0	0	0	0	715	613	
6	0	0	0	0	700	612	
7	0	0	0	0	684	614	
8	0	0	0	0	667	612	
9	0	0	0	0	652	614	
10	0	0	0	0	637	612	
11	0	0	0	0	623	610	
12	0	0	0	0	611	612	
13	0	0	0	0	598	612	
14	0	0	0	0	585	613	
15	0	0	0	0	572	615	
0	0	0	0	0	560	612	
1	0	0	0	0	548	613	
2	0	0	0	0	538	613	
3	0	0	0	0	527	611	
4	0	0	0	0	519	612	
5	0	0	0	0	511	613	
6	0	0	0	0	503	612	
7	0	0	0	0	496	614	
8	0	0	0	0	490	612	
9	0	0	0	0	485	612	
10	0	0	0	0	481	611	
11	0	0	0	0	477	610	
12	0	0	0	0	473	612	
13	0	0	0	0	471	611	
14	0	0	0	0	469	611	
15	0	0	0	0	467	614	
0	0	0	0	0	466	611	
1	0	0	0	0	466	611	
2	0	0	0	0	466	612	
3	0	0	0	0	465	609	
4	0	0	0	0	465	611	
5	0	0	0	0	464	612	
6	0	0	0	0	464	612	
7	0	0	0	0	464	613	
8	0	0	0	0	464	611	
9	0	0	0	0	463	612	
10	0	0	0	0	463	611	
11	0	0	0	0	463	609	
12	0	0	0	0	463	612	
13	0	0	0	0	462	611	
14	0	0	0	0	462	611	
15	0	0	0	0	462	614	
0	0	0	0	0	463	611	
1	0	0	0	0	463	611	
2	0	0	0	0	464	611	
3	0	0	0	0	464	609	
4	0	0	0	0	464	611	
5	0	0	0	0	464	611	
6	0	0	0	0	464	611	
7	0	0	0	0	465	613	
8	0	0	0	0	464	612	
9	0	0	0	0	464	612	
10	0	0	0	0	465	612	
11	0	0	0	0	465	610	
12	0	0	0	0	466	611	
13	0	0	0	0	466	611	
14	0	0	0	0	467	612	
15	0	0	0	0	467	614	
0	0	0	0	0	466	611	
1	0	0	0	0	467	612	
2	0	0	0	0	467	612	
3	0	0	0	0	468	609	
4	0	0	0	0	469	612	
5	0	0	0	0	471	612	
6	0	0	0	0	473	611	
7	0	0	0	0	474	613	
8	0	0	0	0	475	611	
9	0	0	0	0	476	611	
10	0	0	0	0	476	611	
11	0	0	0	0	477	609	
12	0	0	0	0	477	612	
13	0	0	0	0	477	612	
14	0	0	0	0	477	611	
15	0	0	0	0	477	613	
0	0	0	0	0	477	612	
1	0	0	0	0	476	612	
2	0	0	0	0	476	611	
3	0	0	0	0	476	609	
4	0	0	0	0	475	611	
5	0	0	0	0	473	611	
6	0	0	0	0	473	611	
7	0	0	0	0	473	614	
8	0	0	0	0	474	611	
9	0	0	0	0	473	611	
10	0	0	0	0	474	612	
11	0	0	0	0	474	610	
12	0	0	0	0	474	612	
13	0	0	0	0	474	611	
14	0	0	0	0	472	611	
15	0	0	0	0	472	614	
0	0	0	0	0	472	612	
1	0	0	0	0	472	612	
2	0	0	0	0	472	611	
3	0	0	0	0	472	610	
4	0	0	0	0	472	612	
5	0	0	0	0	472	612	
6	0	0	0	0	473	612	
7	0	0	0	0	474	614	
8	0	0	0	0	474	611	
9	0	0	0	0	474	612	
10	0	0	0	0	474	612	
11	0	0	0	0	474	609	
12	0	0	0	0	474	611	
13	0	0	0	0	474	611	
14	0	0	0	0	475	612	
15	0	0	0	0	474	614	
0	0	0	0	0	474	612	
1	0	0	0	0	474	612	
2	0	0	0	0	474	612	
3	0	0	0	0	475	610	
4	0	0	0	0	475	612	
5	0	0	0	0	475	612	
6	0	0	0	0	474	613	
7	0	0	0	0	474	615	
8	0	0	0	0	474	612	
9	0	0	0	0	474	612	
10	0	0	0	0	473	612	
11	0	0	0	0	473	610	
12	0	0	0	0	473	612	
13	0	0	0	0	473	612	
14	0	0	0	0	473	612	
15	0	0	0	0	473	614	
0	0	0	0	0	473	612	
1	0	0	0	0	472	613	
2	0	0	0	0	472	613	
3	0	0	0	0	472	610	
4	0	0	0	0	472	613	
5	0	0	0	0	472	612	
6	0	0	0	0	472	612	
7	0	0	0	0	474	614	
8	0	0	0	0	473	612	
9	0	0	0	0	472	612	
10	0	0	0	0	472	611	
11	0	0	0	0	471	609	
12	0	0	0	0	472	612	
13	0	0	0	0	472	612	
14	0	0	0	0	471	612	
15	0	0	0	0	471	614	
0	0	0	0	0	470	612	
1	0	0	0	0	470	612	
2	0	0	0	0	470	612	
3	0	0	0	0	469	609	
4	0	0	0	0	469	611	
5	0	0	0	0	468	611	
6	0	0	0	0	468	612	
7	0	0	0	0	468	614	
8	0	0	0	0	468	611	
9	0	0	0	0	468	612	
10	0	0	0	0	468	612	
11	0	0	0	0	468	609	
12	0	0	0	0	468	612	
13	0	0	0	0	468	612	
14	0	0	0	0	468	612	
15	0	0	0	0	469	614	
0	0	0	0	0	469	612	
1	0	0	0	0	469	611	
2	0	0	0	0	469	612	
3	0	0	0	0	469	609	
4	0	0	0	0	469	612	
5	0	0	0	0	470	611	
6	0	0	0	0	471	611	
7	0	0	0	0	471	614	
8	0	0	0	0	472	611	
9	0	0	0	0	472	611	
10	0	0	0	0	472	612	
11	0	0	0	0	473	610	
12	0	0	0	0	474	611	
13	0	0	0	0	475	612	
14	0	0	0	0	475	612	
15	0	0	0	0	476	614	
0	0	0	0	0	476	612	
1	0	0	0	0	477	612	
2	0	0	0	0	479	612	
3	0	0	0	0	479	610	
4	0	0	0	0	480	612	
5	0	0	0	0	480	612	
6	0	0	0	0	480	612	
7	0	0	0	0	481	614	
8	0	0	0	0	480	612	
9	0	0	0	0	481	612	
10	0	0	0	0	481	612	
11	0	0	0	0	481	610	
12	0	0	0	0	481	612	
13	0	0	0	0	481	612	
14	0	0	0	0	482	612	
15	0	0	0	0	482	615	
0	0	0	0	0	482	613	
1	0	0	0	0	482	613	
2	0	0	0	0	483	612	
3	0	0	0	0	484	611	
4	0	0	0	0	485	612	
5	0	0	0	0	486	614	
6	0	0	0	0	487	613	
7	0	0	0	0	488	615	
8	0	0	0	0	488	612	
9	0	0	0	0	488	613	
10	0	0	0	0	489	612	
11	0	0	0	0	489	611	
12	0	0	0	0	489	613	
13	0	0	0	0	489	613	
14	0	0	0	0	491	613	
15	0	0	0	0	492	615	
0	0	0	0	0	494	613	
1	0	0	0	0	495	612	
2	0	0	0	0	497	613	
3	0	0	0	0	497	611	
4	0	0	0	0	498	613	
5	0	0	0	0	500	613	
6	0	0	0	0	501	612	
7	0	0	0	0	503	615	
8	0	0	0	0	504	613	
9	0	0	0	0	505	612	
10	0	0	0	0	506	612	
11	0	0	0	0	508	610	
12	0	0	0	0	509	612	
13	0	0	0	0	510	613	
14	0	0	0	0	510	612	
15	0	0	0	0	511	615	
0	0	0	0	0	511	611	
1	0	0	0	0	512	612	
2	0	0	0	0	513	612	
3	0	0	0	0	514	609	
4	0	0	0	0	515	612	
5	0	0	0	0	515	611	
6	0	0	0	0	515	612	
7	0	0	0	0	516	614	
8	0	0	0	0	517	611	
9	0	0	0	0	518	612	
10	0	0	0	0	519	611	
11	0	0	0	0	519	609	
12	0	0	0	0	519	611	
13	0	0	0	0	520	611	
14	0	0	0	0	521	610	
15	0	0	0	0	521	612	
0	0	0	0	0	521	611	
1	0	0	0	0	521	611	
2	0	0	0	0	520	610	
3	0	0	0	0	520	608	
4	0	0	0	0	519	611	
5	0	0	0	0	519	611	
6	0	0	0	0	518	611	
7	0	0	0	0	518	612	
8	0	0	0	0	517	611	
9	0	0	0	0	516	611	
10	0	0	0	0	516	611	
11	0	0	0	0	516	609	
12	0	0	0	0	516	610	
13	0	0	0	0	516	611	
14	0	0	0	0	515	610	
15	0	0	0	0	515	613	
0	0	0	0	0	515	611	
1	0	0	0	0	514	611	
2	0	0	0	0	514	611	
3	0	0	0	0	514	608	
4	0	0	0	0	513	610	
5	0	0	0	0	513	611	
6	0	0	0	0	512	611	
7	0	0	0	0	511	612	
8	0	0	0	0	511	611	
9	0	0	0	0	511	611	
10	0	0	0	0	511	611	
11	0	0	0	0	510	609	
12	0	0	0	0	509	611	
13	0	0	0	0	508	611	
14	0	0	0	0	508	611	
15	0	0	0	0	509	614	
0	0	0	0	0	509	612	
1	0	0	0	0	509	612	
2	0	0	0	0	510	612	
3	0	0	0	0	510	609	
4	0	0	0	0	510	612	
5	0	0	0	0	510	612	
6	0	0	0	0	511	611	
7	0	0	0	0	511	614	
8	0	0	0	0	511	612	
9	0	0	0	0	511	612	
10	0	0	0	0	510	611	
11	0	0	0	0	510	609	
12	0	0	0	0	509	611	
13	0	0	0	0	509	612	
14	0	0	0	0	509	612	
15	0	0	0	0	509	614	
0	0	0	0	0	509	612	
1	0	0	0	0	509	612	
2	0	0	0	0	508	612	
3	0	0	0	0	508	611	
4	0	0	0	0	507	613	
5	0	0	0	0	507	612	
6	0	0	0	0	507	613	
7	0	0	0	0	507	615	
8	0	0	0	0	507	613	
9	0	0	0	0	507	613	
10	0	0	0	0	507	612	
11	0	0	0	0	506	610	
12	0	0	0	0	507	613	
13	0	0	0	0	506	612	
14	0	0	0	0	506	613	
15	0	0	0	0	506	615	
0	0	0	0	0	505	613	
1	0	0	0	0	505	613	
2	0	0	0	0	504	613	
3	0	0	0	0	504	610	
4	0	0	0	0	504	613	
5	0	0	0	0	504	613	
6	0	0	0	0	504	613	
7	0	0	0	0	504	615	
8	0	0	0	0	503	613	
9	0	0	0	0	503	613	
10	0	0	0	0	503	613	
11	0	0	0	0	503	610	
12	0	0	0	0	502	612	
13	0	0	0	0	502	612	
14	0	0	0	0	502	612	
15	0	0	0	0	501	614	
0	0	0	0	0	500	612	
1	0	0	0	0	500	612	
2	0	0	0	0	500	612	
3	0	0	0	0	501	609	
4	0	0	0	0	501	612	
5	0	0	0	0	501	612	
6	0	0	0	0	501	612	
7	0	0	0	0	501	614	
8	0	0	0	0	500	612	
9	0	0	0	0	500	612	
10	0	0	0	0	499	612	
11	0	0	0	0	499	609	
12	0	0	0	0	499	613	
13	0	0	0	0	500	612	
14	0	0	0	0	499	612	
15	0	0	0	0	499	614	
0	0	0	0	0	499	612	
1	0	0	0	0	500	612	
2	0	0	0	0	500	612	
3	0	0	0	0	500	610	
4	0	0	0	0	500	612	
5	0	0	0	0	500	612	
6	0	0	0	0	500	612	
7	0	0	0	0	500	614	
8	0	0	0	0	500	612	
9	0	0	0	0	501	612	
10	0	0	0	0	500	612	
11	0	0	0	0	500	609	
12	0	0	0	0	500	612	
13	0	0	0	0	500	612	
14	0	0	0	0	500	612	
15	0	0	0	0	500	614	
0	0	0	0	0	500	611	
1	0	0	0	0	500	611	
2	0	0	0	0	500	612	
3	0	0	0	0	500	610	
4	0	0	0	0	500	611	
5	0	0	0	0	500	612	
6	0	0	0	0	500	611	
7	0	0	0	0	501	614	
8	0	0	0	0	502	611	
9	0	0	0	0	502	612	
10	0	0	0	0	502	612	
11	0	0	0	0	503	609	
12	0	0	0	0	503	611	
13	0	0	0	0	504	611	
14	0	0	0	0	504	611	
15	0	0	0	0	505	614	
0	0	0	0	0	505	611	
1	0	0	0	0	506	611	
2	0	0	0	0	507	612	
3	0	0	0	0	507	609	
4	0	0	0	0	508	611	
5	0	0	0	0	509	611	
6	0	0	0	0	510	611	
7	0	0	0	0	511	613	
8	0	0	0	0	511	611	
9	0	0	0	0	512	611	
10	0	0	0	0	512	611	
11	0	0	0	0	512	608	
12	0	0	0	0	513	611	
13	0	0	0	0	513	611	
14	0	0	0	0	513	611	
15	0	0	0	0	514	613	
0	0	0	0	0	515	611	
1	0	0	0	0	515	611	
2	0	0	0	0	516	611	
3	0	0	0	0	516	609	
4	0	0	0	0	516	611	
5	0	0	0	0	516	611	
6	0	0	0	0	516	611	
7	0	0	0	0	516	614	
8	0	0	0	0	515	611	
9	0	0	0	0	514	611	
10	0	0	0	0	513	611	
11	0	0	0	0	513	609	
12	0	0	0	0	513	611	
13	0	0	0	0	513	611	
14	0	0	0	0	513	611	
15	0	0	0	0	513	614	
0	0	0	0	0	513	611	
1	0	0	0	0	512	612	
2	0	0	0	0	512	612	
3	0	0	0	0	512	610	
4	0	0	0	0	512	611	
5	0	0	0	0	513	612	
6	0	0	0	0	513	612	
7	0	0	0	0	512	614	
8	0	0	0	0	513	612	
9	0	0	0	0	513	612	
10	0	0	0	0	513	611	
11	0	0	0	0	512	609	
12	0	0	0	0	511	612	
13	0	0	0	0	510	612	
14	0	0	0	0	509	612	
15	0	0	0	0	508	615	
0	0	0	0	0	506	613	
1	0	0	0	0	504	612	
2	0	0	0	0	503	612	
3	0	0	0	0	502	610	
4	0	0	0	0	502	613	
5	0	0	0	0	501	612	
6	0	0	0	0	501	612	
7	0	0	0	0	501	614	
8	0	0	0	0	501	612	
9	0	0	0	0	501	612	
10	0	0	0	0	501	613	
11	0	0	0	0	502	611	
12	0	0	0	0	502	613	
13	0	0	0	0	502	612	
14	0	0	0	0	502	612	
15	0	0	0	0	502	614	
0	0	0	0	0	502	612	
1	0	0	0	0	503	613	
2	0	0	0	0	503	613	
3	0	0	0	0	504	611	
4	0	0	0	0	504	613	
5	0	0	0	0	504	612	
6	0	0	0	0	504	612	
7	0	0	0	0	505	615	
8	0	0	0	0	505	613	
9	0	0	0	0	505	613	
10	0	0	0	0	506	613	
11	0	0	0	0	506	611	
12	0	0	0	0	506	612	
13	0	0	0	0	507	613	
14	0	0	0	0	506	613	
15	0	0	0	0	507	615	
0	0	0	0	0	507	613	
1	0	0	0	0	508	613	
2	0	0	0	0	508	613	
3	0	0	0	0	508	610	
4	0	0	0	0	509	613	
5	0	0	0	0	508	613	
6	0	0	0	0	508	612	
7	0	0	0	0	509	615	
8	0	0	0	0	509	612	
9	0	0	0	0	508	612	
10	0	0	0	0	508	612	
11	0	0	0	0	507	610	
12	0	0	0	0	506	613	
13	0	0	0	0	504	612	
14	0	0	0	0	501	612	
15	0	0	0	0	499	615	
0	0	0	0	0	496	612	
1	0	0	0	0	495	612	
2	0	0	0	0	493	612	
3	0	0	0	0	491	610	
4	0	0	0	0	489	612	
5	0	0	0	0	487	612	
6	0	0	0	0	486	612	
7	0	0	0	0	485	614	
8	0	0	0	0	483	612	
9	0	0	0	0	481	613	
10	0	0	0	0	479	612	
11	0	0	0	0	477	610	
12	0	0	0	0	477	612	
13	0	0	0	0	477	612	
14	0	0	0	0	478	611	
15	0	0	0	0	480	613	
0	0	0	0	0	483	611	
1	0	0	0	0	488	612	
2	0	0	0	0	495	612	
3	0	0	0	0	503	609	
4	0	0	0	0	512	611	
5	0	0	0	0	520	611	
6	0	0	0	0	528	611	
7	0	0	0	0	537	614	
8	0	0	0	0	545	611	
9	0	0	0	0	551	612	
10	0	0	0	0	557	612	
11	0	0	0	0	563	610	
12	0	0	0	0	569	612	
13	0	0	0	0	574	611	
14	0	0	0	0	574	611	
15	0	0	0	0	576	613	
0	0	0	0	0	579	611	
1	0	0	0	0	584	611	
2	0	0	0	0	591	612	
3	0	0	0	0	599	609	
4	0	0	0	0	608	611	
5	0	0	0	0	617	612	
6	0	0	0	0	627	611	
7	0	0	0	0	638	614	
8	0	0	0	0	652	611	
9	0	0	0	0	669	611	
10	0	0	0	0	688	611	
11	0	0	0	0	706	609	
12	0	0	0	0	724	611	
13	0	0	0	0	739	611	
14	0	0	0	0	750	611	
15	0	0	0	0	753	613	
0	0	0	0	0	750	611	
1	0	0	0	0	743	611	
2	0	0	0	0	732	611	
3	0	0	0	0	719	609	
4	0	0	0	0	703	611	
5	0	0	0	0	684	611	
6	0	0	0	0	668	611	
7	0	0	0	0	651	614	
8	0	0	0	0	636	611	
9	0	0	0	0	622	611	
10	0	0	0	0	609	611	
11	0	0	0	0	596	609	
12	0	0	0	0	583	611	
13	0	0	0	0	571	611	
14	0	0	0	0	560	611	
15	0	0	0	0	549	613	
0	0	0	0	0	539	611	
1	0	0	0	0	529	611	
2	0	0	0	0	521	612	
3	0	0	0	0	512	609	
4	0	0	0	0	505	611	
5	0	0	0	0	499	612	
6	0	0	0	0	493	612	
7	0	0	0	0	487	614	
8	0	0	0	0	483	611	
9	0	0	0	0	480	612	
10	0	0	0	0	477	612	
11	0	0	0	0	475	609	
12	0	0	0	0	473	612	
13	0	0	0	0	471	612	
14	0	0	0	0	469	612	
15	0	0	0	0	469	614	
0	0	0	0	0	468	611	
1	0	0	0	0	467	612	
2	0	0	0	0	468	612	
3	0	0	0	0	468	609	
4	0	0	0	0	468	612	
5	0	0	0	0	468	612	
6	0	0	0	0	468	612	
7	0	0	0	0	467	615	
8	0	0	0	0	467	612	
9	0	0	0	0	466	612	
10	0	0	0	0	465	611	
11	0	0	0	0	464	610	
12	0	0	0	0	463	612	
13	0	0	0	0	463	612	
14	0	0	0	0	462	612	
15	0	0	0	0	461	614	
0	0	0	0	0	460	612	
1	0	0	0	0	461	612	
2	0	0	0	0	462	612	
3	0	0	0	0	463	609	
4	0	0	0	0	464	612	
5	0	0	0	0	465	612	
6	0	0	0	0	465	612	
7	0	0	0	0	465	614	
8	0	0	0	0	465	612	
9	0	0	0	0	466	612	
10	0	0	0	0	467	612	
11	0	0	0	0	467	610	
12	0	0	0	0	469	613	
13	0	0	0	0	470	612	
14	0	0	0	0	470	612	
15	0	0	0	0	471	614	
0	0	0	0	0	470	612	
1	0	0	0	0	471	613	
2	0	0	0	0	472	613	
3	0	0	0	0	472	610	
4	0	0	0	0	473	613	
5	0	0	0	0	474	612	
6	0	0	0	0	475	612	
7	0	0	0	0	475	615	
8	0	0	0	0	477	612	
9	0	0	0	0	478	612	
10	0	0	0	0	478	612	
11	0	0	0	0	479	610	
12	0	0	0	0	480	612	
13	0	0	0	0	480	612	
14	0	0	0	0	480	613	
15	0	0	0	0	480	615	
0	0	0	0	0	480	612	
1	0	0	0	0	480	613	
2	0	0	0	0	480	613	
3	0	0	0	0	481	610	
4	0	0	0	0	482	613	
5	0	0	0	0	483	612	
6	0	0	0	0	483	613	
7	0	0	0	0	483	615	
8	0	0	0	0	483	613	
9	0	0	0	0	484	612	
10	0	0	0	0	484	612	
11	0	0	0	0	485	610	
12	0	0	0	0	485	613	
13	0	0	0	0	486	612	
14	0	0	0	0	486	612	
15	0	0	0	0	487	615	
0	0	0	0	0	487	612	
1	0	0	0	0	487	612	
2	0	0	0	0	487	611	
3	0	0	0	0	487	610	
4	0	0	0	0	487	611	
5	0	0	0	0	487	612	
6	0	0	0	0	488	612	
7	0	0	0	0	488	614	
8	0	0	0	0	487	611	
9	0	0	0	0	488	612	
10	0	0	0	0	488	612	
11	0	0	0	0	488	609	
12	0	0	0	0	488	612	
13	0	0	0	0	488	612	
14	0	0	0	0	489	612	
15	0	0	0	0	489	614	
0	0	0	0	0	489	611	
1	0	0	0	0	488	612	
2	0	0	0	0	488	612	
3	0	0	0	0	489	609	
4	0	0	0	0	489	611	
5	0	0	0	0	490	612	
6	0	0	0	0	490	611	
7	0	0	0	0	489	614	
8	0	0	0	0	490	612	
9	0	0	0	0	490	611	
10	0	0	0	0	491	611	
11	0	0	0	0	490	609	
12	0	0	0	0	490	612	
13	0	0	0	0	490	612	
14	0	0	0	0	490	612	
15	0	0	0	0	491	615	
0	0	0	0	0	491	613	
1	0	0	0	0	491	612	
2	0	0	0	0	492	612	
3	0	0	0	0	492	609	
4	0	0	0	0	492	612	
5	0	0	0	0	492	613	
6	0	0	0	0	493	612	
7	0	0	0	0	493	614	
8	0	0	0	0	494	612	
9	0	0	0	0	494	611	
10	0	0	0	0	494	611	
11	0	0	0	0	495	610	
12	0	0	0	0	496	612	
13	0	0	0	0	497	611	
14	0	0	0	0	497	611	
15	0	0	0	0	497	613	
0	0	0	0	0	498	612	
1	0	0	0	0	499	611	
2	0	0	0	0	499	611	
3	0	0	0	0	499	609	
4	0	0	0	0	499	611	
5	0	0	0	0	500	611	
6	0	0	0	0	500	611	
7	0	0	0	0	500	613	
8	0	0	0	0	500	611	
9	0	0	0	0	501	611	
10	0	0	0	0	502	611	
11	0	0	0	0	502	609	
12	0	0	0	0	502	611	
13	0	0	0	0	502	611	
14	0	0	0	0	503	611	
15	0	0	0	0	503	613	
0	0	0	0	0	504	611	
1	0	0	0	0	504	611	
2	0	0	0	0	504	611	
3	0	0	0	0	504	609	
4	0	0	0	0	504	611	
5	0	0	0	0	504	611	
6	0	0	0	0	504	611	
7	0	0	0	0	504	613	
8	0	0	0	0	504	612	
9	0	0	0	0	505	611	
10	0	0	0	0	505	611	
11	0	0	0	0	506	609	
12	0	0	0	0	507	611	
13	0	0	0	0	508	612	
14	0	0	0	0	509	612	
15	0	0	0	0	511	614	
0	0	0	0	0	511	612	
1	0	0	0	0	511	612	
2	0	0	0	0	512	613	
3	0	0	0	0	513	610	
4	0	0	0	0	513	612	
5	0	0	0	0	513	612	
6	0	0	0	0	513	612	
7	0	0	0	0	514	615	
8	0	0	0	0	514	613	
9	0	0	0	0	515	612	
10	0	0	0	0	515	612	
11	0	0	0	0	515	611	
12	0	0	0	0	516	612	
13	0	0	0	0	516	612	
14	0	0	0	0	517	613	
15	0	0	0	0	518	615	
0	0	0	0	0	519	613	
1	0	0	0	0	520	613	
2	0	0	0	0	521	612	
3	0	0	0	0	521	610	
4	0	0	0	0	522	613	
5	0	0	0	0	523	612	
6	0	0	0	0	523	612	
7	0	0	0	0	524	615	
8	0	0	0	0	525	613	
9	0	0	0	0	526	612	
10	0	0	0	0	525	613	
11	0	0	0	0	524	611	
12	0	0	0	0	525	612	
13	0	0	0	0	525	613	
14	0	0	0	0	525	613	
15	0	0	0	0	525	615	
0	0	0	0	0	526	613	
1	0	0	0	0	527	613	
2	0	0	0	0	528	613	
3	0	0	0	0	529	610	
4	0	0	0	0	531	613	
5	0	0	0	0	532	613	
6	0	0	0	0	532	613	
7	0	0	0	0	532	615	
8	0	0	0	0	533	613	
9	0	0	0	0	534	613	
10	0	0	0	0	534	613	
11	0	0	0	0	534	610	
12	0	0	0	0	535	613	
13	0	0	0	0	535	612	
14	0	0	0	0	536	612	
15	0	0	0	0	537	614	
0	0	0	0	0	537	612	
1	0	0	0	0	539	614	
2	0	0	0	0	540	612	
3	0	0	0	0	540	611	
4	0	0	0	0	541	612	
5	0	0	0	0	541	612	
6	0	0	0	0	541	612	
7	0	0	0	0	541	615	
8	0	0	0	0	541	612	
9	0	0	0	0	542	612	
10	0	0	0	0	542	613	
11	0	0	0	0	542	611	
12	0	0	0	0	543	613	
13	0	0	0	0	543	612	
14	0	0	0	0	543	612	
15	0	0	0	0	543	614	
0	0	0	0	0	543	612	
1	0	0	0	0	543	612	
2	0	0	0	0	543	611	
3	0	0	0	0	543	610	
4	0	0	0	0	543	612	
5	0	0	0	0	543	612	
6	0	0	0	0	543	611	
7	0	0	0	0	543	614	
8	0	0	0	0	542	611	
9	0	0	0	0	542	611	
10	0	0	0	0	540	611	
11	0	0	0	0	540	609	
12	0	0	0	0	541	611	
13	0	0	0	0	542	611	
14	0	0	0	0	542	612	
15	0	0	0	0	542	613	
0	0	0	0	0	542	612	
1	0	0	0	0	542	611	
2	0	0	0	0	542	611	
3	0	0	0	0	543	609	
4	0	0	0	0	543	611	
5	0	0	0	0	542	610	
6	0	0	0	0	541	611	
7	0	0	0	0	541	613	
8	0	0	0	0	540	610	
9	0	0	0	0	540	610	
10	0	0	0	0	540	611	
11	0	0	0	0	540	608	
12	0	0	0	0	540	611	
13	0	0	0	0	540	611	
14	0	0	0	0	540	611	
15	0	0	0	0	540	612	
0	0	0	0	0	540	611	
1	0	0	0	0	539	611	
2	0	0	0	0	539	611	
3	0	0	0	0	539	609	
4	0	0	0	0	538	611	
5	0	0	0	0	537	611	
6	0	0	0	0	537	611	
7	0	0	0	0	537	613	
8	0	0	0	0	537	610	
9	0	0	0	0	537	611	
10	0	0	0	0	536	611	
11	0	0	0	0	536	608	
12	0	0	0	0	537	611	
13	0	0	0	0	536	611	
14	0	0	0	0	536	611	
15	0	0	0	0	536	613	
0	0	0	0	0	535	611	
1	0	0	0	0	536	611	
2	0	0	0	0	535	611	
3	0	0	0	0	535	608	
4	0	0	0	0	535	611	
5	0	0	0	0	535	611	
6	0	0	0	0	534	611	
7	0	0	0	0	535	614	
8	0	0	0	0	534	611	
9	0	0	0	0	533	611	
10	0	0	0	0	533	612	
11	0	0	0	0	533	609	
12	0	0	0	0	533	612	
13	0	0	0	0	532	612	
14	0	0	0	0	531	612	
15	0	0	0	0	531	614	
0	0	0	0	0	531	612	
1	0	0	0	0	530	612	
2	0	0	0	0	530	612	
3	0	0	0	0	530	609	
4	0	0	0	0	529	612	
5	0	0	0	0	530	612	
6	0	0	0	0	530	612	
7	0	0	0	0	529	614	
8	0	0	0	0	529	612	
9	0	0	0	0	530	612	
10	0	0	0	0	530	612	
11	0	0	0	0	531	609	
12	0	0	0	0	531	612	
13	0	0	0	0	531	612	
14	0	0	0	0	531	612	
15	0	0	0	0	531	614	
0	0	0	0	0	531	612	
1	0	0	0	0	531	612	
2	0	0	0	0	531	612	
3	0	0	0	0	531	611	
4	0	0	0	0	531	612	
5	0	0	0	0	531	612	
6	0	0	0	0	530	612	
7	0	0	0	0	530	614	
8	0	0	0	0	529	612	
9	0	0	0	0	529	613	
10	0	0	0	0	530	612	
11	0	0	0	0	529	610	
12	0	0	0	0	528	613	
13	0	0	0	0	527	613	
14	0	0	0	0	527	613	
15	0	0	0	0	527	615	
0	0	0	0	0	527	613	
1	0	0	0	0	526	612	
2	0	0	0	0	527	613	
3	0	0	0	0	527	611	
4	0	0	0	0	528	613	
5	0	0	0	0	529	614	
6	0	0	0	0	529	613	
7	0	0	0	0	531	615	
8	0	0	0	0	531	614	
9	0	0	0	0	532	613	
10	0	0	0	0	532	613	
11	0	0	0	0	533	611	
12	0	0	0	0	533	613	
13	0	0	0	0	534	613	
14	0	0	0	0	535	613	
15	0	0	0	0	536	615	
0	0	0	0	0	537	613	
1	0	0	0	0	538	614	
2	0	0	0	0	539	614	
3	0	0	0	0	539	612	
4	0	0	0	0	538	613	
5	0	0	0	0	538	614	
6	0	0	0	0	539	613	
7	0	0	0	0	540	615	
8	0	0	0	0	541	613	
9	0	0	0	0	542	613	
10	0	0	0	0	543	613	
11	0	0	0	0	543	610	
12	0	0	0	0	543	612	
13	0	0	0	0	544	612	
14	0	0	0	0	544	612	
15	0	0	0	0	544	615	
0	0	0	0	0	545	612	
1	0	0	0	0	546	613	
2	0	0	0	0	547	612	
3	0	0	0	0	547	610	
4	0	0	0	0	548	611	
5	0	0	0	0	549	612	
6	0	0	0	0	549	611	
7	0	0	0	0	549	613	
8	0	0	0	0	549	611	
9	0	0	0	0	549	611	
10	0	0	0	0	550	611	
11	0	0	0	0	551	609	
12	0	0	0	0	551	611	
13	0	0	0	0	552	611	
14	0	0	0	0	553	611	
15	0	0	0	0	555	613	
0	0	0	0	0	556	611	
1	0	0	0	0	558	611	
2	0	0	0	0	560	611	
3	0	0	0	0	561	609	
4	0	0	0	0	561	612	
5	0	0	0	0	562	611	
6	0	0	0	0	562	611	
7	0	0	0	0	561	613	
8	0	0	0	0	561	611	
9	0	0	0	0	561	612	
10	0	0	0	0	560	611	
11	0	0	0	0	560	609	
12	0	0	0	0	559	612	
13	0	0	0	0	559	611	
14	0	0	0	0	556	611	
15	0	0	0	0	554	614	
0	0	0	0	0	551	612	
1	0	0	0	0	548	611	
2	0	0	0	0	547	611	
3	0	0	0	0	546	609	
4	0	0	0	0	545	612	
5	0	0	0	0	544	612	
6	0	0	0	0	543	612	
7	0	0	0	0	543	614	
8	0	0	0	0	543	612	
9	0	0	0	0	543	612	
10	0	0	0	0	543	612	
11	0	0	0	0	542	610	
12	0	0	0	0	541	612	
13	0	0	0	0	540	612	
14	0	0	0	0	540	612	
15	0	0	0	0	540	614	
0	0	0	0	0	540	611	
1	0	0	0	0	540	611	
2	0	0	0	0	540	611	
3	0	0	0	0	541	609	
4	0	0	0	0	541	612	
5	0	0	0	0	541	612	
6	0	0	0	0	541	611	
7	0	0	0	0	540	614	
8	0	0	0	0	539	612	
9	0	0	0	0	539	611	
10	0	0	0	0	540	612	
11	0	0	0	0	540	609	
12	0	0	0	0	539	612	
13	0	0	0	0	539	612	
14	0	0	0	0	539	612	
15	0	0	0	0	538	614	
0	0	0	0	0	538	611	
1	0	0	0	0	537	611	
2	0	0	0	0	537	612	
3	0	0	0	0	536	610	
4	0	0	0	0	535	612	
5	0	0	0	0	534	613	
6	0	0	0	0	534	612	
7	0	0	0	0	532	614	
8	0	0	0	0	532	612	
9	0	0	0	0	532	612	
10	0	0	0	0	531	612	
11	0	0	0	0	531	610	
12	0	0	0	0	531	612	
13	0	0	0	0	532	612	
14	0	0	0	0	532	612	
15	0	0	0	0	531	614	
0	0	0	0	0	532	612	
1	0	0	0	0	531	612	
2	0	0	0	0	531	612	
3	0	0	0	0	532	610	
4	0	0	0	0	532	613	
5	0	0	0	0	533	612	
6	0	0	0	0	532	612	
7	0	0	0	0	532	614	
8	0	0	0	0	531	611	
9	0	0	0	0	529	612	
10	0	0	0	0	527	611	
11	0	0	0	0	524	609	
12	0	0	0	0	521	611	
13	0	0	0	0	517	611	
14	0	0	0	0	513	611	
15	0	0	0	0	509	613	
0	0	0	0	0	505	611	
1	0	0	0	0	502	611	
2	0	0	0	0	499	611	
3	0	0	0	0	497	609	
4	0	0	0	0	495	611	
5	0	0	0	0	493	611	
6	0	0	0	0	491	611	
7	0	0	0	0	490	614	
8	0	0	0	0	487	611	
9	0	0	0	0	485	612	
10	0	0	0	0	483	612	
11	0	0	0	0	483	610	
12	0	0	0	0	484	612	
13	0	0	0	0	484	612	
14	0	0	0	0	486	612	
15	0	0	0	0	487	614	
0	0	0	0	0	492	612	
1	0	0	0	0	499	612	
2	0	0	0	0	507	612	
3	0	0	0	0	515	609	
4	0	0	0	0	523	612	
5	0	0	0	0	531	613	
6	0	0	0	0	539	612	
7	0	0	0	0	546	615	
8	0	0	0	0	553	612	
9	0	0	0	0	560	612	
10	0	0	0	0	568	612	
11	0	0	0	0	575	610	
12	0	0	0	0	579	612	
13	0	0	0	0	579	613	
14	0	0	0	0	580	612	
15	0	0	0	0	584	614	
0	0	0	0	0	591	612	
1	0	0	0	0	600	612	
2	0	0	0	0	612	612	
3	0	0	0	0	624	610	
4	0	0	0	0	636	611	
5	0	0	0	0	647	611	
6	0	0	0	0	659	612	
7	0	0	0	0	676	615	
8	0	0	0	0	695	612	
9	0	0	0	0	715	612	
10	0	0	0	0	734	612	
11	0	0	0	0	752	610	
12	0	0	0	0	766	612	
13	0	0	0	0	772	612	
14	0	0	0	0	771	612	
15	0	0	0	0	766	614	
0	0	0	0	0	757	612	
1	0	0	0	0	745	612	
2	0	0	0	0	731	612	
3	0	0	0	0	714	610	
4	0	0	0	0	696	612	
5	0	0	0	0	678	612	
6	0	0	0	0	660	613	
7	0	0	0	0	643	614	
8	0	0	0	0	628	612	
9	0	0	0	0	614	612	
10	0	0	0	0	600	612	
11	0	0	0	0	586	610	
12	0	0	0	0	574	612	
13	0	0	0	0	561	612	
14	0	0	0	0	550	612	
15	0	0	0	0	539	615	
0	0	0	0	0	529	612	
1	0	0	0	0	520	612	
2	0	0	0	0	511	612	
3	0	0	0	0	504	610	
4	0	0	0	0	496	611	
5	0	0	0	0	491	612	
6	0	0	0	0	485	611	
7	0	0	0	0	480	614	
8	0	0	0	0	476	612	
9	0	0	0	0	472	612	
10	0	0	0	0	468	612	
11	0	0	0	0	465	610	
12	0	0	0	0	463	612	
13	0	0	0	0	462	612	
14	0	0	0	0	460	612	
15	0	0	0	0	459	614	
0	0	0	0	0	458	612	
1	0	0	0	0	457	612	
2	0	0	0	0	456	612	
3	0	0	0	0	456	610	
4	0	0	0	0	456	613	
5	0	0	0	0	455	612	
6	0	0	0	0	455	612	
7	0	0	0	0	455	614	
8	0	0	0	0	454	612	
9	0	0	0	0	454	612	
10	0	0	0	0	453	612	
11	0	0	0	0	453	609	
12	0	0	0	0	453	611	
13	0	0	0	0	453	612	
14	0	0	0	0	453	612	
15	0	0	0	0	453	614	
0	0	0	0	0	453	612	
1	0	0	0	0	453	612	
2	0	0	0	0	452	612	
3	0	0	0	0	452	610	
4	0	0	0	0	452	612	
5	0	0	0	0	453	612	
6	0	0	0	0	452	612	
7	0	0	0	0	452	614	
8	0	0	0	0	453	612	
9	0	0	0	0	453	611	
10	0	0	0	0	454	611	
11	0	0	0	0	454	609	
12	0	0	0	0	454	612	
13	0	0	0	0	454	612	
14	0	0	0	0	455	612	
15	0	0	0	0	455	615	
0	0	0	0	0	456	612	
1	0	0	0	0	456	612	
2	0	0	0	0	456	613	
3	0	0	0	0	456	611	
4	0	0	0	0	456	613	
5	0	0	0	0	456	612	
6	0	0	0	0	457	613	
7	0	0	0	0	457	614	
8	0	0	0	0	457	612	
9	0	0	0	0	459	612	
10	0	0	0	0	459	613	
11	0	0	0	0	459	610	
12	0	0	0	0	459	612	
13	0	0	0	0	459	612	
14	0	0	0	0	459	612	
15	0	0	0	0	460	614	
0	0	0	0	0	461	611	
1	0	0	0	0	461	612	
2	0	0	0	0	461	612	
3	0	0	0	0	461	610	
4	0	0	0	0	462	612	
5	0	0	0	0	462	611	
6	0	0	0	0	462	612	
7	0	0	0	0	462	614	
8	0	0	0	0	462	612	
9	0	0	0	0	462	612	
10	0	0	0	0	462	612	
11	0	0	0	0	462	609	
12	0	0	0	0	461	612	
13	0	0	0	0	461	612	
14	0	0	0	0	461	612	
15	0	0	0	0	460	614	
0	0	0	0	0	460	612	
1	0	0	0	0	458	612	
2	0	0	0	0	458	612	
3	0	0	0	0	458	609	
4	0	0	0	0	457	611	
5	0	0	0	0	458	612	
6	0	0	0	0	457	611	
7	0	0	0	0	457	614	
8	0	0	0	0	458	611	
9	0	0	0	0	458	612	
10	0	0	0	0	459	612	
11	0	0	0	0	458	609	
12	0	0	0	0	459	612	
13	0	0	0	0	459	612	
14	0	0	0	0	460	611	
15	0	0	0	0	460	614	
0	0	0	0	0	460	612	
1	0	0	0	0	460	611	
2	0	0	0	0	460	612	
3	0	0	0	0	460	609	
4	0	0	0	0	462	612	
5	0	0	0	0	462	612	
6	0	0	0	0	463	612	
7	0	0	0	0	463	614	
8	0	0	0	0	463	612	
9	0	0	0	0	464	612	
10	0	0	0	0	464	612	
11	0	0	0	0	463	610	
12	0	0	0	0	463	611	
13	0	0	0	0	463	612	
14	0	0	0	0	463	612	
15	0	0	0	0	462	614	
0	0	0	0	0	461	612	
1	0	0	0	0	460	612	
2	0	0	0	0	460	612	
3	0	0	0	0	458	610	
4	0	0	0	0	458	612	
5	0	0	0	0	458	612	
6	0	0	0	0	458	611	
7	0	0	0	0	458	614	
8	0	0	0	0	458	611	
9	0	0	0	0	458	612	
10	0	0	0	0	458	612	
11	0	0	0	0	459	609	
12	0	0	0	0	460	612	
13	0	0	0	0	460	612	
14	0	0	0	0	460	612	
15	0	0	0	0	461	614	
0	0	0	0	0	461	612	
1	0	0	0	0	461	612	
2	0	0	0	0	461	612	
3	0	0	0	0	460	610	
4	0	0	0	0	461	612	
5	0	0	0	0	462	612	
6	0	0	0	0	462	612	
7	0	0	0	0	463	614	
8	0	0	0	0	464	612	
9	0	0	0	0	464	611	
10	0	0	0	0	465	612	
11	0	0	0	0	465	610	
12	0	0	0	0	467	612	
13	0	0	0	0	467	611	
14	0	0	0	0	468	611	
15	0	0	0	0	468	614	
0	0	0	0	0	469	612	
1	0	0	0	0	469	611	
2	0	0	0	0	470	611	
3	0	0	0	0	470	609	
4	0	0	0	0	471	612	
5	0	0	0	0	470	612	
6	0	0	0	0	471	612	
7	0	0	0	0	471	614	
8	0	0	0	0	472	612	
9	0	0	0	0	473	612	
10	0	0	0	0	474	613	
11	0	0	0	0	474	610	
12	0	0	0	0	475	612	
13	0	0	0	0	476	612	
14	0	0	0	0	476	613	
15	0	0	0	0	476	614	
0	0	0	0	0	477	613	
1	0	0	0	0	478	613	
2	0	0	0	0	478	612	
3	0	0	0	0	480	611	
4	0	0	0	0	480	612	
5	0	0	0	0	481	612	
6	0	0	0	0	481	612	
7	0	0	0	0	482	615	
8	0	0	0	0	483	612	
9	0	0	0	0	483	612	
10	0	0	0	0	484	612	
11	0	0	0	0	485	610	
12	0	0	0	0	487	612	
13	0	0	0	0	487	612	
14	0	0	0	0	488	612	
15	0	0	0	0	488	614	
0	0	0	0	0	488	612	
1	0	0	0	0	490	612	
2	0	0	0	0	491	611	
3	0	0	0	0	491	610	
4	0	0	0	0	492	613	
5	0	0	0	0	492	612	
6	0	0	0	0	493	613	
7	0	0	0	0	493	614	
8	0	0	0	0	494	611	
9	0	0	0	0	495	613	
10	0	0	0	0	496	612	
11	0	0	0	0	496	610	
12	0	0	0	0	496	612	
13	0	0	0	0	496	611	
14	0	0	0	0	497	611	
15	0	0	0	0	497	614	
0	0	0	0	0	497	611	
1	0	0	0	0	498	612	
2	0	0	0	0	498	612	
3	0	0	0	0	498	609	
4	0	0	0	0	499	611	
5	0	0	0	0	499	612	
6	0	0	0	0	499	612	
7	0	0	0	0	500	615	
8	0	0	0	0	500	612	
9	0	0	0	0	501	612	
10	0	0	0	0	501	611	
11	0	0	0	0	502	610	
12	0	0	0	0	502	612	
13	0	0	0	0	503	613	
14	0	0	0	0	503	611	
15	0	0	0	0	504	614	
0	0	0	0	0	505	611	
1	0	0	0	0	505	612	
2	0	0	0	0	506	612	
3	0	0	0	0	506	609	
4	0	0	0	0	507	612	
5	0	0	0	0	507	612	
6	0	0	0	0	508	612	
7	0	0	0	0	509	614	
8	0	0	0	0	509	612	
9	0	0	0	0	509	612	
10	0	0	0	0	510	612	
11	0	0	0	0	511	610	
12	0	0	0	0	512	612	
13	0	0	0	0	513	612	
14	0	0	0	0	513	612	
15	0	0	0	0	514	614	
0	0	0	0	0	515	612	
1	0	0	0	0	515	612	
2	0	0	0	0	514	611	
3	0	0	0	0	514	609	
4	0	0	0	0	515	612	
5	0	0	0	0	515	612	
6	0	0	0	0	515	612	
7	0	0	0	0	514	614	
8	0	0	0	0	513	613	
9	0	0	0	0	512	612	
10	0	0	0	0	511	611	
11	0	0	0	0	510	610	
12	0	0	0	0	508	612	
13	0	0	0	0	507	612	
14	0	0	0	0	506	611	
15	0	0	0	0	506	614	
0	0	0	0	0	505	612	
1	0	0	0	0	505	612	
2	0	0	0	0	505	612	
3	0	0	0	0	505	609	
4	0	0	0	0	505	611	
5	0	0	0	0	504	611	
6	0	0	0	0	505	611	
7	0	0	0	0	505	614	
8	0	0	0	0	505	612	
9	0	0	0	0	505	612	
10	0	0	0	0	506	611	
11	0	0	0	0	506	609	
12	0	0	0	0	506	612	
13	0	0	0	0	507	612	
14	0	0	0	0	507	611	
15	0	0	0	0	507	615	
0	0	0	0	0	507	612	
1	0	0	0	0	508	612	
2	0	0	0	0	508	612	
3	0	0	0	0	508	610	
4	0	0	0	0	508	612	
5	0	0	0	0	509	612	
6	0	0	0	0	509	611	
7	0	0	0	0	509	614	
8	0	0	0	0	509	611	
9	0	0	0	0	510	612	
10	0	0	0	0	510	612	
11	0	0	0	0	510	609	
12	0	0	0	0	510	612	
13	0	0	0	0	509	611	
14	0	0	0	0	510	612	
15	0	0	0	0	510	614	
0	0	0	0	0	509	612	
1	0	0	0	0	509	612	
2	0	0	0	0	509	612	
3	0	0	0	0	509	610	
4	0	0	0	0	508	612	
5	0	0	0	0	509	613	
6	0	0	0	0	509	612	
7	0	0	0	0	510	614	
8	0	0	0	0	509	612	
9	0	0	0	0	508	612	
10	0	0	0	0	508	612	
11	0	0	0	0	507	610	
12	0	0	0	0	507	612	
13	0	0	0	0	508	612	
14	0	0	0	0	508	612	
15	0	0	0	0	508	615	
0	0	0	0	0	508	612	
1	0	0	0	0	507	613	
2	0	0	0	0	507	613	
3	0	0	0	0	507	610	
4	0	0	0	0	507	613	
5	0	0	0	0	507	612	
6	0	0	0	0	507	612	
7	0	0	0	0	507	614	
8	0	0	0	0	508	612	
9	0	0	0	0	508	612	
10	0	0	0	0	508	612	
11	0	0	0	0	508	609	
12	0	0	0	0	508	613	
13	0	0	0	0	507	612	
14	0	0	0	0	507	612	
15	0	0	0	0	507	615	
0	0	0	0	0	508	612	
1	0	0	0	0	508	612	
2	0	0	0	0	508	612	
3	0	0	0	0	508	610	
4	0	0	0	0	507	612	
5	0	0	0	0	507	612	
6	0	0	0	0	508	612	
7	0	0	0	0	508	615	
8	0	0	0	0	507	612	
9	0	0	0	0	507	612	
10	0	0	0	0	507	613	
11	0	0	0	0	507	611	
12	0	0	0	0	508	612	
13	0	0	0	0	508	612	
14	0	0	0	0	508	613	
15	0	0	0	0	508	614	
0	0	0	0	0	508	612	
1	0	0	0	0	507	612	
2	0	0	0	0	507	612	
3	0	0	0	0	507	609	
4	0	0	0	0	507	612	
5	0	0	0	0	507	612	
6	0	0	0	0	507	612	
7	0	0	0	0	508	614	
8	0	0	0	0	508	612	
9	0	0	0	0	509	612	
10	0	0	0	0	509	612	
11	0	0	0	0	509	609	
12	0	0	0	0	509	612	
13	0	0	0	0	509	612	
14	0	0	0	0	508	612	
15	0	0	0	0	509	615	
0	0	0	0	0	509	612	
1	0	0	0	0	509	612	
2	0	0	0	0	508	612	
3	0	0	0	0	507	609	
4	0	0	0	0	507	611	
5	0	0	0	0	506	611	
6	0	0	0	0	505	612	
7	0	0	0	0	505	614	
8	0	0	0	0	506	611	
9	0	0	0	0	508	611	
10	0	0	0	0	508	612	
11	0	0	0	0	510	609	
12	0	0	0	0	512	611	
13	0	0	0	0	514	611	
14	0	0	0	0	515	611	
15	0	0	0	0	515	614	
0	0	0	0	0	517	612	
1	0	0	0	0	517	612	
2	0	0	0	0	518	612	
3	0	0	0	0	519	609	
4	0	0	0	0	519	612	
5	0	0	0	0	519	612	
6	0	0	0	0	517	612	
7	0	0	0	0	516	614	
8	0	0	0	0	515	612	
9	0	0	0	0	513	612	
10	0	0	0	0	512	611	
11	0	0	0	0	511	610	
12	0	0	0	0	511	612	
13	0	0	0	0	511	612	
14	0	0	0	0	511	612	
15	0	0	0	0	512	614	
0	0	0	0	0	513	612	
1	0	0	0	0	514	612	
2	0	0	0	0	514	613	
3	0	0	0	0	515	609	
4	0	0	0	0	515	612	
5	0	0	0	0	515	612	
6	0	0	0	0	514	611	
7	0	0	0	0	514	614	
8	0	0	0	0	514	612	
9	0	0	0	0	514	612	
10	0	0	0	0	514	612	
11	0	0	0	0	513	609	
12	0	0	0	0	513	613	
13	0	0	0	0	512	612	
14	0	0	0	0	512	612	
15	0	0	0	0	512	615	
0	0	0	0	0	511	613	
1	0	0	0	0	510	613	
2	0	0	0	0	510	612	
3	0	0	0	0	508	611	
4	0	0	0	0	507	612	
5	0	0	0	0	507	612	
6	0	0	0	0	507	612	
7	0	0	0	0	507	614	
8	0	0	0	0	506	612	
9	0	0	0	0	506	612	
10	0	0	0	0	506	612	
11	0	0	0	0	506	610	
12	0	0	0	0	505	612	
13	0	0	0	0	504	613	
14	0	0	0	0	503	612	
15	0	0	0	0	503	614	
0	0	0	0	0	503	612	
1	0	0	0	0	504	612	
2	0	0	0	0	504	612	
3	0	0	0	0	504	609	
4	0	0	0	0	504	611	
5	0	0	0	0	504	612	
6	0	0	0	0	504	612	
7	0	0	0	0	505	614	
8	0	0	0	0	506	612	
9	0	0	0	0	506	611	
10	0	0	0	0	506	612	
11	0	0	0	0	506	610	
12	0	0	0	0	506	612	
13	0	0	0	0	506	611	
14	0	0	0	0	506	612	
15	0	0	0	0	506	614	
0	0	0	0	0	505	612	
1	0	0	0	0	505	612	
2	0	0	0	0	505	612	
3	0	0	0	0	504	609	
4	0	0	0	0	504	612	
5	0	0	0	0	504	611	
6	0	0	0	0	504	612	
7	0	0	0	0	504	614	
8	0	0	0	0	504	612	
9	0	0	0	0	504	612	
10	0	0	0	0	504	612	
11	0	0	0	0	503	610	
12	0	0	0	0	503	612	
13	0	0	0	0	503	612	
14	0	0	0	0	503	612	
15	0	0	0	0	502	614	
0	0	0	0	0	501	612	
1	0	0	0	0	500	611	
2	0	0	0	0	500	612	
3	0	0	0	0	500	610	
4	0	0	0	0	500	612	
5	0	0	0	0	500	612	
6	0	0	0	0	499	612	
7	0	0	0	0	498	614	
8	0	0	0	0	497	612	
9	0	0	0	0	496	611	
10	0	0	0	0	493	611	
11	0	0	0	0	491	610	
12	0	0	0	0	489	612	
13	0	0	0	0	487	611	
14	0	0	0	0	485	612	
15	0	0	0	0	483	614	
0	0	0	0	0	480	612	
1	0	0	0	0	479	612	
2	0	0	0	0	477	612	
3	0	0	0	0	476	609	
4	0	0	0	0	474	612	
5	0	0	0	0	473	612	
6	0	0	0	0	472	612	
7	0	0	0	0	469	614	
8	0	0	0	0	467	612	
9	0	0	0	0	467	612	
10	0	0	0	0	467	612	
11	0	0	0	0	467	609	
12	0	0	0	0	469	611	
13	0	0	0	0	472	612	
14	0	0	0	0	477	611	
15	0	0	0	0	483	614	
0	0	0	0	0	491	612	
1	0	0	0	0	499	612	
2	0	0	0	0	508	612	
3	0	0	0	0	515	609	
4	0	0	0	0	522	611	
5	0	0	0	0	528	612	
6	0	0	0	0	535	611	
7	0	0	0	0	540	614	
8	0	0	0	0	545	612	
9	0	0	0	0	551	612	
10	0	0	0	0	556	612	
11	0	0	0	0	558	610	
12	0	0	0	0	557	612	
13	0	0	0	0	560	612	
14	0	0	0	0	563	612	
15	0	0	0	0	568	614	
0	0	0	0	0	575	613	
1	0	0	0	0	584	613	
2	0	0	0	0	595	613	
3	0	0	0	0	604	610	
4	0	0	0	0	614	612	
5	0	0	0	0	626	612	
6	0	0	0	0	641	612	
7	0	0	0	0	660	614	
8	0	0	0	0	678	612	
9	0	0	0	0	694	611	
10	0	0	0	0	710	612	
11	0	0	0	0	725	610	
12	0	0	0	0	733	612	
13	0	0	0	0	735	612	
14	0	0	0	0	732	612	
15	0	0	0	0	724	614	
0	0	0	0	0	713	612	
1	0	0	0	0	700	613	
2	0	0	0	0	684	613	
3	0	0	0	0	668	610	
4	0	0	0	0	652	612	
5	0	0	0	0	636	612	
6	0	0	0	0	622	613	
7	0	0	0	0	608	614	
8	0	0	0	0	595	612	
9	0	0	0	0	581	612	
10	0	0	0	0	568	612	
11	0	0	0	0	556	609	
12	0	0	0	0	543	612	
13	0	0	0	0	532	612	
14	0	0	0	0	522	612	
15	0	0	0	0	512	614	
0	0	0	0	0	503	611	
1	0	0	0	0	495	611	
2	0	0	0	0	487	612	
3	0	0	0	0	482	610	
4	0	0	0	0	477	611	
5	0	0	0	0	472	612	
6	0	0	0	0	467	612	
7	0	0	0	0	464	614	
8	0	0	0	0	462	612	
9	0	0	0	0	460	612	
10	0	0	0	0	458	612	
11	0	0	0	0	457	610	
12	0	0	0	0	455	612	
13	0	0	0	0	455	613	
14	0	0	0	0	454	612	
15	0	0	0	0	454	615	
0	0	0	0	0	454	612	
1	0	0	0	0	454	612	
2	0	0	0	0	454	612	
3	0	0	0	0	454	610	
4	0	0	0	0	453	611	
5	0	0	0	0	453	612	
6	0	0	0	0	453	611	
7	0	0	0	0	453	615	
8	0	0	0	0	452	611	
9	0	0	0	0	452	612	
10	0	0	0	0	452	611	
11	0	0	0	0	453	609	
12	0	0	0	0	453	611	
13	0	0	0	0	453	611	
14	0	0	0	0	453	611	
15	0	0	0	0	452	612	
0	0	0	0	0	453	611	
1	0	0	0	0	455	611	
2	0	0	0	0	455	611	
3	0	0	0	0	455	608	
4	0	0	0	0	456	610	
5	0	0	0	0	457	610	
6	0	0	0	0	457	611	
7	0	0	0	0	458	612	
8	0	0	0	0	459	610	
9	0	0	0	0	459	611	
10	0	0	0	0	459	611	
11	0	0	0	0	460	608	
12	0	0	0	0	460	611	
13	0	0	0	0	460	611	
14	0	0	0	0	461	611	
15	0	0	0	0	461	613	
0	0	0	0	0	463	612	
1	0	0	0	0	463	612	
2	0	0	0	0	465	612	
3	0	0	0	0	466	609	
4	0	0	0	0	466	612	
5	0	0	0	0	467	612	
6	0	0	0	0	467	612	
7	0	0	0	0	468	615	
8	0	0	0	0	469	613	
9	0	0	0	0	469	613	
10	0	0	0	0	470	613	
11	0	0	0	0	470	611	
12	0	0	0	0	471	613	
13	0	0	0	0	472	614	
14	0	0	0	0	472	613	
15	0	0	0	0	473	615	
0	0	0	0	0	473	613	
1	0	0	0	0	473	614	
2	0	0	0	0	474	614	
3	0	0	0	0	475	611	
4	0	0	0	0	475	614	
5	0	0	0	0	475	614	
6	0	0	0	0	474	614	
7	0	0	0	0	474	616	
8	0	0	0	0	474	614	
9	0	0	0	0	474	614	
10	0	0	0	0	474	614	
11	0	0	0	0	474	611	
12	0	0	0	0	474	613	
13	0	0	0	0	474	614	
14	0	0	0	0	474	613	
15	0	0	0	0	475	615	
0	0	0	0	0	476	613	
1	0	0	0	0	475	612	
2	0	0	0	0	475	612	
3	0	0	0	0	475	610	
4	0	0	0	0	476	612	
5	0	0	0	0	476	612	
6	0	0	0	0	477	612	
7	0	0	0	0	477	614	
8	0	0	0	0	478	612	
9	0	0	0	0	478	612	
10	0	0	0	0	479	612	
11	0	0	0	0	478	610	
12	0	0	0	0	478	611	
13	0	0	0	0	478	611	
14	0	0	0	0	478	611	
15	0	0	0	0	477	614	
0	0	0	0	0	477	611	
1	0	0	0	0	476	612	
2	0	0	0	0	476	612	
3	0	0	0	0	475	609	
4	0	0	0	0	474	612	
5	0	0	0	0	473	611	
6	0	0	0	0	472	611	
7	0	0	0	0	471	613	
8	0	0	0	0	471	612	
9	0	0	0	0	471	611	
10	0	0	0	0	472	612	
11	0	0	0	0	472	610	
12	0	0	0	0	472	612	
13	0	0	0	0	473	612	
14	0	0	0	0	472	612	
15	0	0	0	0	472	614	
0	0	0	0	0	472	612	
1	0	0	0	0	472	612	
2	0	0	0	0	472	611	
3	0	0	0	0	472	609	
4	0	0	0	0	472	611	
5	0	0	0	0	472	612	
6	0	0	0	0	471	612	
7	0	0	0	0	471	615	
8	0	0	0	0	471	612	
9	0	0	0	0	472	612	
10	0	0	0	0	472	612	
11	0	0	0	0	473	610	
12	0	0	0	0	473	612	
13	0	0	0	0	473	612	
14	0	0	0	0	472	612	
15	0	0	0	0	472	614	
0	0	0	0	0	473	612	
1	0	0	0	0	473	611	
2	0	0	0	0	475	611	
3	0	0	0	0	476	610	
4	0	0	0	0	477	611	
5	0	0	0	0	478	611	
6	0	0	0	0	479	611	
7	0	0	0	0	480	613	
8	0	0	0	0	480	611	
9	0	0	0	0	479	611	
10	0	0	0	0	480	611	
11	0	0	0	0	480	608	
12	0	0	0	0	481	610	
13	0	0	0	0	481	611	
14	0	0	0	0	481	611	
15	0	0	0	0	482	613	
0	0	0	0	0	481	611	
1	0	0	0	0	481	611	
2	0	0	0	0	481	611	
3	0	0	0	0	482	609	
4	0	0	0	0	483	611	
5	0	0	0	0	484	611	
6	0	0	0	0	485	612	
7	0	0	0	0	486	614	
8	0	0	0	0	487	612	
9	0	0	0	0	487	612	
10	0	0	0	0	488	612	
11	0	0	0	0	488	610	
12	0	0	0	0	488	612	
13	0	0	0	0	488	612	
14	0	0	0	0	488	612	
15	0	0	0	0	488	614	
0	0	0	0	0	488	612	
1	0	0	0	0	489	613	
2	0	0	0	0	489	613	
3	0	0	0	0	488	611	
4	0	0	0	0	488	612	
5	0	0	0	0	488	612	
6	0	0	0	0	487	612	
7	0	0	0	0	487	615	
8	0	0	0	0	487	612	
9	0	0	0	0	487	613	
10	0	0	0	0	487	612	
11	0	0	0	0	488	610	
12	0	0	0	0	488	612	
13	0	0	0	0	488	612	
14	0	0	0	0	489	612	
15	0	0	0	0	489	615	
0	0	0	0	0	489	612	
1	0	0	0	0	488	612	
2	0	0	0	0	488	612	
3	0	0	0	0	488	610	
4	0	0	0	0	489	613	
5	0	0	0	0	491	613	
6	0	0	0	0	491	612	
7	0	0	0	0	492	615	
8	0	0	0	0	492	612	
9	0	0	0	0	494	613	
10	0	0	0	0	494	613	
11	0	0	0	0	495	611	
12	0	0	0	0	496	613	
13	0	0	0	0	497	612	
14	0	0	0	0	497	612	
15	0	0	0	0	498	615	
0	0	0	0	0	500	612	
1	0	0	0	0	501	612	
2	0	0	0	0	502	611	
3	0	0	0	0	503	609	
4	0	0	0	0	503	611	
5	0	0	0	0	504	611	
6	0	0	0	0	505	612	
7	0	0	0	0	506	614	
8	0	0	0	0	507	611	
9	0	0	0	0	508	612	
10	0	0	0	0	508	611	
11	0	0	0	0	509	610	
12	0	0	0	0	509	612	
13	0	0	0	0	509	612	
14	0	0	0	0	510	611	
15	0	0	0	0	510	614	
0	0	0	0	0	511	612	
1	0	0	0	0	511	612	
2	0	0	0	0	512	612	
3	0	0	0	0	513	610	
4	0	0	0	0	513	612	
5	0	0	0	0	515	612	
6	0	0	0	0	515	612	
7	0	0	0	0	516	614	
8	0	0	0	0	517	612	
9	0	0	0	0	518	611	
10	0	0	0	0	519	612	
11	0	0	0	0	519	610	
12	0	0	0	0	519	612	
13	0	0	0	0	520	612	
14	0	0	0	0	521	612	
15	0	0	0	0	522	614	
0	0	0	0	0	523	612	
1	0	0	0	0	523	612	
2	0	0	0	0	523	612	
3	0	0	0	0	523	609	
4	0	0	0	0	524	612	
5	0	0	0	0	523	612	
6	0	0	0	0	523	612	
7	0	0	0	0	523	614	
8	0	0	0	0	523	612	
9	0	0	0	0	522	612	
10	0	0	0	0	522	612	
11	0	0	0	0	522	610	
12	0	0	0	0	522	612	
13	0	0	0	0	522	612	
14	0	0	0	0	523	612	
15	0	0	0	0	523	614	
0	0	0	0	0	523	612	
1	0	0	0	0	522	613	
2	0	0	0	0	521	612	
3	0	0	0	0	521	609	
4	0	0	0	0	521	611	
5	0	0	0	0	520	612	
6	0	0	0	0	520	611	
7	0	0	0	0	520	614	
8	0	0	0	0	520	612	
9	0	0	0	0	520	611	
10	0	0	0	0	521	612	
11	0	0	0	0	521	610	
12	0	0	0	0	521	612	
13	0	0	0	0	520	612	
14	0	0	0	0	519	611	
15	0	0	0	0	520	614	
0	0	0	0	0	519	612	
1	0	0	0	0	519	612	
2	0	0	0	0	519	612	
3	0	0	0	0	520	610	
4	0	0	0	0	521	612	
5	0	0	0	0	522	612	
6	0	0	0	0	522	612	
7	0	0	0	0	523	614	
8	0	0	0	0	523	612	
9	0	0	0	0	523	612	
10	0	0	0	0	523	612	
11	0	0	0	0	522	609	
12	0	0	0	0	523	612	
13	0	0	0	0	523	612	
14	0	0	0	0	523	612	
15	0	0	0	0	523	614	
0	0	0	0	0	522	612	
1	0	0	0	0	522	612	
2	0	0	0	0	521	612	
3	0	0	0	0	520	609	
4	0	0	0	0	520	611	
5	0	0	0	0	520	611	
6	0	0	0	0	520	611	
7	0	0	0	0	520	614	
8	0	0	0	0	520	611	
9	0	0	0	0	520	611	
10	0	0	0	0	520	611	
11	0	0	0	0	520	609	
12	0	0	0	0	520	611	
13	0	0	0	0	520	611	
14	0	0	0	0	519	611	
15	0	0	0	0	521	613	
0	0	0	0	0	521	611	
1	0	0	0	0	521	611	
2	0	0	0	0	521	611	
3	0	0	0	0	522	609	
4	0	0	0	0	521	612	
5	0	0	0	0	522	612	
6	0	0	0	0	521	611	
7	0	0	0	0	521	613	
8	0	0	0	0	521	611	
9	0	0	0	0	521	611	
10	0	0	0	0	521	611	
11	0	0	0	0	519	609	
12	0	0	0	0	519	612	
13	0	0	0	0	519	612	
14	0	0	0	0	518	612	
15	0	0	0	0	517	614	
0	0	0	0	0	517	612	
1	0	0	0	0	517	612	
2	0	0	0	0	517	611	
3	0	0	0	0	517	609	
4	0	0	0	0	518	612	
5	0	0	0	0	518	611	
6	0	0	0	0	517	611	
7	0	0	0	0	517	614	
8	0	0	0	0	516	611	
9	0	0	0	0	517	612	
10	0	0	0	0	517	612	
11	0	0	0	0	517	609	
12	0	0	0	0	517	612	
13	0	0	0	0	518	612	
14	0	0	0	0	519	612	
15	0	0	0	0	519	613	
0	0	0	0	0	518	611	
1	0	0	0	0	518	611	
2	0	0	0	0	517	612	
3	0	0	0	0	517	610	
4	0	0	0	0	517	612	
5	0	0	0	0	516	612	
6	0	0	0	0	517	612	
7	0	0	0	0	516	614	
8	0	0	0	0	517	612	
9	0	0	0	0	517	612	
10	0	0	0	0	517	612	
11	0	0	0	0	516	610	
12	0	0	0	0	515	612	
13	0	0	0	0	515	612	
14	0	0	0	0	515	612	
15	0	0	0	0	515	614	
0	0	0	0	0	515	612	
1	0	0	0	0	515	611	
2	0	0	0	0	517	612	
3	0	0	0	0	518	610	
4	0	0	0	0	518	612	
5	0	0	0	0	519	612	
6	0	0	0	0	519	612	
7	0	0	0	0	520	615	
8	0	0	0	0	521	612	
9	0	0	0	0	522	611	
10	0	0	0	0	523	612	
11	0	0	0	0	524	609	
12	0	0	0	0	525	612	
13	0	0	0	0	526	612	
14	0	0	0	0	526	612	
15	0	0	0	0	527	614	
0	0	0	0	0	527	612	
1	0	0	0	0	529	612	
2	0	0	0	0	531	612	
3	0	0	0	0	531	610	
4	0	0	0	0	532	612	
5	0	0	0	0	532	612	
6	0	0	0	0	532	612	
7	0	0	0	0	533	614	
8	0	0	0	0	533	613	
9	0	0	0	0	533	613	
10	0	0	0	0	532	612	
11	0	0	0	0	534	610	
12	0	0	0	0	533	613	
13	0	0	0	0	534	613	
14	0	0	0	0	534	613	
15	0	0	0	0	534	614	
0	0	0	0	0	534	613	
1	0	0	0	0	533	613	
2	0	0	0	0	533	613	
3	0	0	0	0	532	611	
4	0	0	0	0	532	613	
5	0	0	0	0	532	613	
6	0	0	0	0	531	612	
7	0	0	0	0	530	615	
8	0	0	0	0	530	613	
9	0	0	0	0	529	612	
10	0	0	0	0	528	613	
11	0	0	0	0	527	610	
12	0	0	0	0	525	613	
13	0	0	0	0	524	612	
14	0	0	0	0	522	613	
15	0	0	0	0	521	615	
0	0	0	0	0	520	612	
1	0	0	0	0	519	613	
2	0	0	0	0	518	613	
3	0	0	0	0	518	611	
4	0	0	0	0	518	613	
5	0	0	0	0	517	613	
6	0	0	0	0	517	613	
7	0	0	0	0	516	615	
8	0	0	0	0	515	612	
9	0	0	0	0	515	612	
10	0	0	0	0	515	612	
11	0	0	0	0	513	610	
12	0	0	0	0	512	613	
13	0	0	0	0	511	612	
14	0	0	0	0	511	612	
15	0	0	0	0	511	614	
0	0	0	0	0	511	612	
1	0	0	0	0	511	612	
2	0	0	0	0	511	611	
3	0	0	0	0	510	610	
4	0	0	0	0	509	612	
5	0	0	0	0	509	612	
6	0	0	0	0	508	611	
7	0	0	0	0	507	615	
8	0	0	0	0	507	612	
9	0	0	0	0	505	612	
10	0	0	0	0	504	612	
11	0	0	0	0	503	610	
12	0	0	0	0	502	612	
13	0	0	0	0	502	611	
14	0	0	0	0	502	611	
15	0	0	0	0	502	614	
0	0	0	0	0	503	611	
1	0	0	0	0	503	611	
2	0	0	0	0	504	612	
3	0	0	0	0	504	609	
4	0	0	0	0	503	612	
5	0	0	0	0	504	611	
6	0	0	0	0	503	611	
7	0	0	0	0	503	614	
8	0	0	0	0	503	613	
9	0	0	0	0	503	612	
10	0	0	0	0	502	612	
11	0	0	0	0	502	610	
12	0	0	0	0	501	612	
13	0	0	0	0	499	612	
14	0	0	0	0	497	611	
15	0	0	0	0	496	614	
0	0	0	0	0	496	611	
1	0	0	0	0	495	611	
2	0	0	0	0	495	611	
3	0	0	0	0	493	609	
4	0	0	0	0	492	611	
5	0	0	0	0	490	611	
6	0	0	0	0	488	611	
7	0	0	0	0	487	613	
8	0	0	0	0	486	611	
9	0	0	0	0	485	611	
10	0	0	0	0	484	611	
11	0	0	0	0	483	609	
12	0	0	0	0	480	612	
13	0	0	0	0	479	611	
14	0	0	0	0	477	611	
15	0	0	0	0	476	613	
0	0	0	0	0	475	611	
1	0	0	0	0	472	611	
2	0	0	0	0	469	612	
3	0	0	0	0	467	609	
4	0	0	0	0	465	611	
5	0	0	0	0	465	611	
6	0	0	0	0	464	611	
7	0	0	0	0	465	614	
8	0	0	0	0	467	611	
9	0	0	0	0	470	611	
10	0	0	0	0	474	612	
11	0	0	0	0	480	609	
12	0	0	0	0	486	612	
13	0	0	0	0	494	611	
14	0	0	0	0	501	611	
15	0	0	0	0	508	613	
0	0	0	0	0	515	611	
1	0	0	0	0	521	611	
2	0	0	0	0	527	611	
3	0	0	0	0	532	609	
4	0	0	0	0	538	611	
5	0	0	0	0	543	611	
6	0	0	0	0	546	612	
7	0	0	0	0	545	613	
8	0	0	0	0	546	611	
9	0	0	0	0	549	611	
10	0	0	0	0	553	612	
11	0	0	0	0	559	609	
12	0	0	0	0	567	612	
13	0	0	0	0	575	612	
14	0	0	0	0	586	613	
15	0	0	0	0	596	615	
0	0	0	0	0	608	614	
1	0	0	0	0	624	614	
2	0	0	0	0	642	613	
3	0	0	0	0	663	611	
4	0	0	0	0	682	613	
5	0	0	0	0	700	613	
6	0	0	0	0	717	613	
7	0	0	0	0	728	614	
8	0	0	0	0	732	612	
9	0	0	0	0	730	612	
10	0	0	0	0	723	613	
11	0	0	0	0	713	610	
12	0	0	0	0	700	613	
13	0	0	0	0	685	613	
14	0	0	0	0	668	613	
15	0	0	0	0	651	615	
0	0	0	0	0	635	613	
1	0	0	0	0	621	612	
2	0	0	0	0	608	613	
3	0	0	0	0	594	610	
4	0	0	0	0	582	613	
5	0	0	0	0	570	613	
6	0	0	0	0	558	613	
7	0	0	0	0	547	615	
8	0	0	0	0	536	612	
9	0	0	0	0	526	612	
10	0	0	0	0	517	612	
11	0	0	0	0	509	609	
12	0	0	0	0	502	612	
13	0	0	0	0	494	612	
14	0	0	0	0	487	613	
15	0	0	0	0	480	615	
0	0	0	0	0	475	612	
1	0	0	0	0	471	613	
2	0	0	0	0	467	612	
3	0	0	0	0	464	610	
4	0	0	0	0	461	612	
5	0	0	0	0	459	612	
6	0	0	0	0	457	612	
7	0	0	0	0	455	615	
8	0	0	0	0	455	612	
9	0	0	0	0	453	612	
10	0	0	0	0	453	613	
11	0	0	0	0	453	610	
12	0	0	0	0	452	612	
13	0	0	0	0	451	612	
14	0	0	0	0	450	613	
15	0	0	0	0	449	615	
0	0	0	0	0	448	613	
1	0	0	0	0	448	613	
2	0	0	0	0	447	613	
3	0	0	0	0	447	610	
4	0	0	0	0	446	613	
5	0	0	0	0	447	613	
6	0	0	0	0	448	612	
7	0	0	0	0	448	615	
8	0	0	0	0	448	612	
9	0	0	0	0	449	612	
10	0	0	0	0	449	612	
11	0	0	0	0	450	611	
12	0	0	0	0	450	613	
13	0	0	0	0	451	612	
14	0	0	0	0	451	612	
15	0	0	0	0	451	614	
0	0	0	0	0	451	612	
1	0	0	0	0	451	612	
2	0	0	0	0	451	613	
3	0	0	0	0	452	611	
4	0	0	0	0	452	614	
5	0	0	0	0	453	613	
6	0	0	0	0	452	613	
7	0	0	0	0	453	615	
8	0	0	0	0	453	612	
9	0	0	0	0	453	612	
10	0	0	0	0	454	612	
11	0	0	0	0	455	610	
12	0	0	0	0	456	612	
13	0	0	0	0	457	611	
14	0	0	0	0	458	611	
15	0	0	0	0	458	614	
0	0	0	0	0	459	612	
1	0	0	0	0	460	611	
2	0	0	0	0	460	611	
3	0	0	0	0	461	608	
4	0	0	0	0	461	610	
5	0	0	0	0	460	610	
6	0	0	0	0	460	611	
7	0	0	0	0	460	612	
8	0	0	0	0	460	611	
9	0	0	0	0	460	611	
10	0	0	0	0	461	611	
11	0	0	0	0	462	608	
12	0	0	0	0	463	610	
13	0	0	0	0	464	610	
14	0	0	0	0	464	610	
15	0	0	0	0	466	612	
0	0	0	0	0	467	610	
1	0	0	0	0	466	611	
2	0	0	0	0	467	611	
3	0	0	0	0	466	608	
4	0	0	0	0	466	611	
5	0	0	0	0	466	611	
6	0	0	0	0	465	611	
7	0	0	0	0	465	613	
8	0	0	0	0	464	612	
9	0	0	0	0	463	611	
10	0	0	0	0	463	611	
11	0	0	0	0	463	609	
12	0	0	0	0	463	611	
13	0	0	0	0	463	612	
14	0	0	0	0	462	611	
15	0	0	0	0	463	614	
0	0	0	0	0	462	612	
1	0	0	0	0	462	612	
2	0	0	0	0	463	612	
3	0	0	0	0	462	610	
4	0	0	0	0	462	612	
5	0	0	0	0	463	613	
6	0	0	0	0	463	613	
7	0	0	0	0	463	615	
8	0	0	0	0	464	613	
9	0	0	0	0	464	613	
10	0	0	0	0	464	613	
11	0	0	0	0	465	611	
12	0	0	0	0	465	612	
13	0	0	0	0	467	613	
14	0	0	0	0	467	613	
15	0	0	0	0	468	615	
0	0	0	0	0	469	613	
1	0	0	0	0	469	612	
2	0	0	0	0	470	612	
3	0	0	0	0	470	610	
4	0	0	0	0	469	612	
5	0	0	0	0	469	612	
6	0	0	0	0	469	612	
7	0	0	0	0	469	615	
8	0	0	0	0	470	612	
9	0	0	0	0	469	612	
10	0	0	0	0	470	612	
11	0	0	0	0	470	609	
12	0	0	0	0	471	611	
13	0	0	0	0	471	611	
14	0	0	0	0	471	611	
15	0	0	0	0	471	614	
0	0	0	0	0	471	611	
1	0	0	0	0	472	612	
2	0	0	0	0	472	611	
3	0	0	0	0	470	609	
4	0	0	0	0	471	612	
5	0	0	0	0	470	612	
6	0	0	0	0	470	611	
7	0	0	0	0	469	614	
8	0	0	0	0	468	612	
9	0	0	0	0	467	611	
10	0	0	0	0	467	612	
11	0	0	0	0	466	610	
12	0	0	0	0	465	612	
13	0	0	0	0	465	612	
14	0	0	0	0	464	611	
15	0	0	0	0	464	615	
0	0	0	0	0	464	612	
1	0	0	0	0	465	612	
2	0	0	0	0	465	612	
3	0	0	0	0	465	610	
4	0	0	0	0	465	612	
5	0	0	0	0	465	612	
6	0	0	0	0	465	612	
7	0	0	0	0	466	615	
8	0	0	0	0	466	612	
9	0	0	0	0	467	613	
10	0	0	0	0	467	613	
11	0	0	0	0	467	611	
12	0	0	0	0	468	612	
13	0	0	0	0	468	613	
14	0	0	0	0	468	613	
15	0	0	0	0	468	615	
0	0	0	0	0	468	613	
1	0	0	0	0	468	613	
2	0	0	0	0	468	612	
3	0	0	0	0	468	611	
4	0	0	0	0	468	614	
5	0	0	0	0	467	613	
6	0	0	0	0	468	613	
7	0	0	0	0	468	615	
8	0	0	0	0	469	613	
9	0	0	0	0	470	612	
10	0	0	0	0	470	612	
11	0	0	0	0	470	610	
12	0	0	0	0	471	612	
13	0	0	0	0	471	612	
14	0	0	0	0	471	613	
15	0	0	0	0	472	615	
0	0	0	0	0	473	612	
1	0	0	0	0	474	613	
2	0	0	0	0	474	613	
3	0	0	0	0	473	610	
4	0	0	0	0	473	612	
5	0	0	0	0	474	612	
6	0	0	0	0	475	613	
7	0	0	0	0	476	614	
8	0	0	0	0	478	612	
9	0	0	0	0	480	612	
10	0	0	0	0	480	612	
11	0	0	0	0	482	610	
12	0	0	0	0	483	612	
13	0	0	0	0	484	612	
14	0	0	0	0	485	612	
15	0	0	0	0	486	614	
0	0	0	0	0	487	613	
1	0	0	0	0	488	612	
2	0	0	0	0	489	612	
3	0	0	0	0	491	609	
4	0	0	0	0	492	612	
5	0	0	0	0	494	612	
6	0	0	0	0	495	612	
7	0	0	0	0	496	614	
8	0	0	0	0	497	611	
9	0	0	0	0	499	611	
10	0	0	0	0	500	611	
11	0	0	0	0	502	609	
12	0	0	0	0	504	611	
13	0	0	0	0	505	611	
14	0	0	0	0	506	611	
15	0	0	0	0	508	613	
0	0	0	0	0	509	612	
1	0	0	0	0	509	612	
2	0	0	0	0	511	611	
3	0	0	0	0	512	609	
4	0	0	0	0	513	611	
5	0	0	0	0	514	612	
6	0	0	0	0	515	612	
7	0	0	0	0	515	614	
8	0	0	0	0	515	612	
9	0	0	0	0	516	612	
10	0	0	0	0	516	612	
11	0	0	0	0	516	609	
12	0	0	0	0	517	612	
13	0	0	0	0	517	612	
14	0	0	0	0	518	612	
15	0	0	0	0	519	615	
0	0	0	0	0	519	612	
1	0	0	0	0	521	612	
2	0	0	0	0	522	612	
3	0	0	0	0	524	610	
4	0	0	0	0	524	612	
5	0	0	0	0	525	612	
6	0	0	0	0	525	612	
7	0	0	0	0	525	614	
8	0	0	0	0	526	613	
9	0	0	0	0	526	612	
10	0	0	0	0	526	612	
11	0	0	0	0	525	610	
12	0	0	0	0	524	612	
13	0	0	0	0	524	612	
14	0	0	0	0	523	612	
15	0	0	0	0	523	615	
0	0	0	0	0	523	611	
1	0	0	0	0	523	612	
2	0	0	0	0	523	612	
3	0	0	0	0	524	610	
4	0	0	0	0	524	612	
5	0	0	0	0	526	611	
6	0	0	0	0	526	611	
7	0	0	0	0	527	614	
8	0	0	0	0	527	611	
9	0	0	0	0	527	611	
10	0	0	0	0	527	611	
11	0	0	0	0	527	609	
12	0	0	0	0	527	611	
13	0	0	0	0	526	611	
14	0	0	0	0	526	611	
15	0	0	0	0	526	613	
0	0	0	0	0	525	611	
1	0	0	0	0	524	611	
2	0	0	0	0	523	611	
3	0	0	0	0	521	609	
4	0	0	0	0	519	611	
5	0	0	0	0	520	611	
6	0	0	0	0	520	611	
7	0	0	0	0	521	613	
8	0	0	0	0	520	611	
9	0	0	0	0	519	611	
10	0	0	0	0	519	611	
11	0	0	0	0	519	609	
12	0	0	0	0	519	611	
13	0	0	0	0	518	611	
14	0	0	0	0	517	611	
15	0	0	0	0	517	613	
0	0	0	0	0	517	612	
1	0	0	0	0	516	611	
2	0	0	0	0	517	611	
3	0	0	0	0	518	609	
4	0	0	0	0	518	611	
5	0	0	0	0	518	611	
6	0	0	0	0	518	612	
7	0	0	0	0	518	614	
8	0	0	0	0	519	611	
9	0	0	0	0	518	612	
10	0	0	0	0	519	612	
11	0	0	0	0	518	610	
12	0	0	0	0	518	612	
13	0	0	0	0	518	611	
14	0	0	0	0	516	612	
15	0	0	0	0	516	615	
0	0	0	0	0	515	612	
1	0	0	0	0	515	612	
2	0	0	0	0	516	612	
3	0	0	0	0	516	609	
4	0	0	0	0	517	612	
5	0	0	0	0	517	612	
6	0	0	0	0	517	612	
7	0	0	0	0	518	614	
8	0	0	0	0	518	612	
9	0	0	0	0	518	612	
10	0	0	0	0	517	612	
11	0	0	0	0	517	610	
12	0	0	0	0	517	612	
13	0	0	0	0	516	612	
14	0	0	0	0	517	612	
15	0	0	0	0	517	615	
0	0	0	0	0	516	613	
1	0	0	0	0	516	612	
2	0	0	0	0	515	612	
3	0	0	0	0	515	610	
4	0	0	0	0	515	613	
5	0	0	0	0	514	613	
6	0	0	0	0	514	613	
7	0	0	0	0	514	615	
8	0	0	0	0	514	612	
9	0	0	0	0	514	612	
10	0	0	0	0	514	612	
11	0	0	0	0	514	610	
12	0	0	0	0	513	612	
13	0	0	0	0	514	613	
14	0	0	0	0	513	612	
15	0	0	0	0	514	615	
0	0	0	0	0	513	613	
1	0	0	0	0	513	613	
2	0	0	0	0	512	612	
3	0	0	0	0	512	610	
4	0	0	0	0	512	612	
5	0	0	0	0	512	613	
6	0	0	0	0	513	612	
7	0	0	0	0	514	615	
8	0	0	0	0	514	612	
9	0	0	0	0	514	612	
10	0	0	0	0	514	612	
11	0	0	0	0	514	610	
12	0	0	0	0	514	613	
13	0	0	0	0	514	613	
14	0	0	0	0	513	613	
15	0	0	0	0	513	615	
0	0	0	0	0	513	613	
1	0	0	0	0	512	613	
2	0	0	0	0	511	613	
3	0	0	0	0	510	610	
4	0	0	0	0	509	613	
5	0	0	0	0	508	612	
6	0	0	0	0	507	612	
7	0	0	0	0	507	615	
8	0	0	0	0	507	613	
9	0	0	0	0	506	613	
10	0	0	0	0	507	613	
11	0	0	0	0	507	610	
12	0	0	0	0	507	612	
13	0	0	0	0	508	613	
14	0	0	0	0	508	612	
15	0	0	0	0	508	614	
0	0	0	0	0	508	612	
1	0	0	0	0	509	612	
2	0	0	0	0	509	611	
3	0	0	0	0	509	609	
4	0	0	0	0	511	612	
5	0	0	0	0	512	612	
6	0	0	0	0	512	611	
7	0	0	0	0	512	614	
8	0	0	0	0	513	612	
9	0	0	0	0	513	611	
10	0	0	0	0	514	612	
11	0	0	0	0	514	609	
12	0	0	0	0	513	611	
13	0	0	0	0	514	611	
14	0	0	0	0	515	611	
15	0	0	0	0	515	614	
0	0	0	0	0	516	611	
1	0	0	0	0	517	611	
2	0	0	0	0	518	611	
3	0	0	0	0	517	609	
4	0	0	0	0	516	611	
5	0	0	0	0	516	611	
6	0	0	0	0	516	611	
7	0	0	0	0	516	613	
8	0	0	0	0	516	611	
9	0	0	0	0	516	611	
10	0	0	0	0	515	611	
11	0	0	0	0	514	608	
12	0	0	0	0	514	611	
13	0	0	0	0	513	611	
14	0	0	0	0	513	611	
15	0	0	0	0	513	613	
0	0	0	0	0	513	611	
1	0	0	0	0	513	611	
2	0	0	0	0	512	611	
3	0	0	0	0	512	608	
4	0	0	0	0	511	611	
5	0	0	0	0	510	611	
6	0	0	0	0	510	611	
7	0	0	0	0	508	613	
8	0	0	0	0	508	612	
9	0	0	0	0	507	611	
10	0	0	0	0	506	611	
11	0	0	0	0	506	609	
12	0	0	0	0	505	611	
13	0	0	0	0	505	611	
14	0	0	0	0	504	611	
15	0	0	0	0	504	613	
0	0	0	0	0	504	612	
1	0	0	0	0	503	612	
2	0	0	0	0	503	612	
3	0	0	0	0	502	609	
4	0	0	0	0	502	611	
5	0	0	0	0	502	611	
6	0	0	0	0	500	611	
7	0	0	0	0	500	614	
8	0	0	0	0	500	611	
9	0	0	0	0	499	611	
10	0	0	0	0	499	611	
11	0	0	0	0	499	609	
12	0	0	0	0	499	612	
13	0	0	0	0	500	612	
14	0	0	0	0	500	611	
15	0	0	0	0	500	614	
0	0	0	0	0	500	611	
1	0	0	0	0	500	612	
2	0	0	0	0	500	612	
3	0	0	0	0	500	610	
4	0	0	0	0	500	612	
5	0	0	0	0	501	612	
6	0	0	0	0	502	612	
7	0	0	0	0	502	614	
8	0	0	0	0	503	613	
9	0	0	0	0	504	613	
10	0	0	0	0	504	613	
11	0	0	0	0	504	610	
12	0	0	0	0	505	612	
13	0	0	0	0	505	614	
14	0	0	0	0	505	613	
15	0	0	0	0	505	615	
0	0	0	0	0	505	613	
1	0	0	0	0	504	614	
2	0	0	0	0	504	613	
3	0	0	0	0	503	611	
4	0	0	0	0	502	613	
5	0	0	0	0	500	614	
6	0	0	0	0	499	614	
7	0	0	0	0	498	615	
8	0	0	0	0	498	613	
9	0	0	0	0	498	613	
10	0	0	0	0	498	613	
11	0	0	0	0	498	610	
12	0	0	0	0	498	613	
13	0	0	0	0	498	612	
14	0	0	0	0	497	612	
15	0	0	0	0	495	615	
0	0	0	0	0	493	613	
1	0	0	0	0	491	612	
2	0	0	0	0	488	612	
3	0	0	0	0	486	610	
4	0	0	0	0	484	611	
5	0	0	0	0	483	612	
6	0	0	0	0	481	612	
7	0	0	0	0	480	614	
8	0	0	0	0	478	612	
9	0	0	0	0	476	612	
10	0	0	0	0	475	612	
11	0	0	0	0	473	609	
12	0	0	0	0	471	611	
13	0	0	0	0	468	611	
14	0	0	0	0	466	611	
15	0	0	0	0	465	613	
0	0	0	0	0	465	611	
1	0	0	0	0	465	611	
2	0	0	0	0	466	610	
3	0	0	0	0	469	608	
4	0	0	0	0	473	610	
5	0	0	0	0	479	610	
6	0	0	0	0	487	610	
7	0	0	0	0	496	612	
8	0	0	0	0	506	611	
9	0	0	0	0	514	611	
10	0	0	0	0	522	611	
11	0	0	0	0	528	609	
12	0	0	0	0	536	611	
13	0	0	0	0	542	611	
14	0	0	0	0	549	611	
15	0	0	0	0	556	613	
0	0	0	0	0	562	611	
1	0	0	0	0	565	611	
2	0	0	0	0	565	611	
3	0	0	0	0	568	609	
4	0	0	0	0	572	611	
5	0	0	0	0	578	611	
6	0	0	0	0	586	611	
7	0	0	0	0	595	614	
8	0	0	0	0	605	611	
9	0	0	0	0	614	611	
10	0	0	0	0	625	611	
11	0	0	0	0	638	610	
12	0	0	0	0	655	612	
13	0	0	0	0	673	612	
14	0	0	0	0	691	612	
15	0	0	0	0	709	614	
0	0	0	0	0	726	611	
1	0	0	0	0	739	612	
2	0	0	0	0	745	612	
3	0	0	0	0	745	609	
4	0	0	0	0	739	611	
5	0	0	0	0	729	611	
6	0	0	0	0	718	612	
7	0	0	0	0	702	614	
8	0	0	0	0	685	611	
9	0	0	0	0	668	612	
10	0	0	0	0	651	612	
11	0	0	0	0	635	610	
12	0	0	0	0	620	611	
13	0	0	0	0	607	611	
14	0	0	0	0	593	611	
15	0	0	0	0	580	614	
0	0	0	0	0	568	612	
1	0	0	0	0	556	612	
2	0	0	0	0	546	611	
3	0	0	0	0	536	610	
4	0	0	0	0	527	612	
5	0	0	0	0	518	613	
6	0	0	0	0	511	613	
7	0	0	0	0	503	615	
8	0	0	0	0	496	613	
9	0	0	0	0	489	613	
10	0	0	0	0	483	612	
11	0	0	0	0	479	610	
12	0	0	0	0	474	613	
13	0	0	0	0	471	613	
14	0	0	0	0	468	613	
15	0	0	0	0	465	615	
0	0	0	0	0	463	614	
1	0	0	0	0	462	614	
2	0	0	0	0	460	614	
3	0	0	0	0	459	612	
4	0	0	0	0	458	614	
5	0	0	0	0	458	614	
6	0	0	0	0	458	613	
7	0	0	0	0	459	616	
8	0	0	0	0	459	614	
9	0	0	0	0	458	613	
10	0	0	0	0	459	613	
11	0	0	0	0	459	610	
12	0	0	0	0	459	613	
13	0	0	0	0	460	614	
14	0	0	0	0	461	614	
15	0	0	0	0	461	615	
0	0	0	0	0	461	613	
1	0	0	0	0	462	614	
2	0	0	0	0	462	613	
3	0	0	0	0	463	611	
4	0	0	0	0	464	613	
5	0	0	0	0	464	613	
6	0	0	0	0	465	613	
7	0	0	0	0	465	615	
8	0	0	0	0	465	613	
9	0	0	0	0	466	612	
10	0	0	0	0	466	612	
11	0	0	0	0	466	609	
12	0	0	0	0	467	612	
13	0	0	0	0	467	613	
14	0	0	0	0	468	612	
15	0	0	0	0	469	614	
0	0	0	0	0	470	612	
1	0	0	0	0	471	612	
2	0	0	0	0	471	612	
3	0	0	0	0	472	610	
4	0	0	0	0	472	612	
5	0	0	0	0	472	611	
6	0	0	0	0	473	611	
7	0	0	0	0	474	614	
8	0	0	0	0	474	612	
9	0	0	0	0	474	611	
10	0	0	0	0	474	611	
11	0	0	0	0	475	608	
12	0	0	0	0	476	611	
13	0	0	0	0	476	611	
14	0	0	0	0	477	611	
15	0	0	0	0	478	613	
0	0	0	0	0	478	611	
1	0	0	0	0	478	611	
2	0	0	0	0	480	610	
3	0	0	0	0	481	608	
4	0	0	0	0	482	611	
5	0	0	0	0	483	611	
6	0	0	0	0	484	610	
7	0	0	0	0	485	612	
8	0	0	0	0	485	611	
9	0	0	0	0	485	611	
10	0	0	0	0	485	610	
11	0	0	0	0	486	608	
12	0	0	0	0	486	610	
13	0	0	0	0	486	609	
14	0	0	0	0	486	610	
15	0	0	0	0	485	612	
0	0	0	0	0	486	610	
1	0	0	0	0	486	611	
2	0	0	0	0	486	610	
3	0	0	0	0	484	608	
4	0	0	0	0	484	610	
5	0	0	0	0	484	611	
6	0	0	0	0	483	611	
7	0	0	0	0	483	613	
8	0	0	0	0	483	611	
9	0	0	0	0	482	611	
10	0	0	0	0	483	611	
11	0	0	0	0	483	609	
12	0	0	0	0	484	611	
13	0	0	0	0	484	611	
14	0	0	0	0	484	611	
15	0	0	0	0	485	613	
0	0	0	0	0	486	611	
1	0	0	0	0	487	612	
2	0	0	0	0	486	612	
3	0	0	0	0	487	610	
4	0	0	0	0	487	612	
5	0	0	0	0	487	612	
6	0	0	0	0	488	612	
7	0	0	0	0	488	614	
8	0	0	0	0	488	612	
9	0	0	0	0	489	612	
10	0	0	0	0	489	612	
11	0	0	0	0	488	610	
12	0	0	0	0	488	612	
13	0	0	0	0	488	612	
14	0	0	0	0	489	611	
15	0	0	0	0	490	614	
0	0	0	0	0	490	612	
1	0	0	0	0	490	612	
2	0	0	0	0	490	612	
3	0	0	0	0	491	611	
4	0	0	0	0	492	613	
5	0	0	0	0	492	613	
6	0	0	0	0	493	613	
7	0	0	0	0	494	615	
8	0	0	0	0	494	613	
9	0	0	0	0	495	613	
10	0	0	0	0	496	613	
11	0	0	0	0	496	610	
12	0	0	0	0	497	613	
13	0	0	0	0	497	613	
14	0	0	0	0	497	613	
15	0	0	0	0	497	615	
0	0	0	0	0	497	612	
1	0	0	0	0	498	613	
2	0	0	0	0	498	613	
3	0	0	0	0	497	610	
4	0	0	0	0	497	613	
5	0	0	0	0	497	613	
6	0	0	0	0	497	614	
7	0	0	0	0	496	615	
8	0	0	0	0	496	612	
9	0	0	0	0	496	614	
10	0	0	0	0	496	612	
11	0	0	0	0	496	611	
12	0	0	0	0	496	614	
13	0	0	0	0	496	613	
14	0	0	0	0	496	613	
15	0	0	0	0	497	615	
0	0	0	0	0	497	613	
1	0	0	0	0	498	613	
2	0	0	0	0	498	613	
3	0	0	0	0	498	611	
4	0	0	0	0	499	613	
5	0	0	0	0	499	613	
6	0	0	0	0	500	613	
7	0	0	0	0	500	615	
8	0	0	0	0	500	613	
9	0	0	0	0	500	613	
10	0	0	0	0	501	613	
11	0	0	0	0	503	611	
12	0	0	0	0	503	612	
13	0	0	0	0	503	612	
14	0	0	0	0	504	612	
15	0	0	0	0	504	614	
0	0	0	0	0	504	612	
1	0	0	0	0	504	612	
2	0	0	0	0	505	612	
3	0	0	0	0	506	610	
4	0	0	0	0	506	612	
5	0	0	0	0	507	612	
6	0	0	0	0	508	612	
7	0	0	0	0	509	614	
8	0	0	0	0	509	611	
9	0	0	0	0	510	611	
10	0	0	0	0	510	612	
11	0	0	0	0	511	609	
12	0	0	0	0	511	611	
13	0	0	0	0	512	611	
14	0	0	0	0	513	611	
15	0	0	0	0	515	614	
0	0	0	0	0	515	611	
1	0	0	0	0	516	611	
2	0	0	0	0	518	611	
3	0	0	0	0	519	608	
4	0	0	0	0	521	611	
5	0	0	0	0	522	611	
6	0	0	0	0	523	611	
7	0	0	0	0	523	613	
8	0	0	0	0	523	611	
9	0	0	0	0	523	611	
10	0	0	0	0	523	611	
11	0	0	0	0	524	609	
12	0	0	0	0	526	611	
13	0	0	0	0	526	611	
14	0	0	0	0	528	611	
15	0	0	0	0	528	612	
0	0	0	0	0	529	610	
1	0	0	0	0	530	611	
2	0	0	0	0	531	611	
3	0	0	0	0	532	608	
4	0	0	0	0	534	611	
5	0	0	0	0	535	611	
6	0	0	0	0	536	611	
7	0	0	0	0	537	613	
8	0	0	0	0	538	611	
9	0	0	0	0	539	611	
10	0	0	0	0	541	611	
11	0	0	0	0	542	608	
12	0	0	0	0	543	611	
13	0	0	0	0	543	611	
14	0	0	0	0	544	611	
15	0	0	0	0	546	613	
0	0	0	0	0	547	611	
1	0	0	0	0	548	611	
2	0	0	0	0	548	612	
3	0	0	0	0	549	609	
4	0	0	0	0	550	611	
5	0	0	0	0	550	611	
6	0	0	0	0	550	611	
7	0	0	0	0	551	614	
8	0	0	0	0	551	611	
9	0	0	0	0	551	612	
10	0	0	0	0	552	611	
11	0	0	0	0	553	609	
12	0	0	0	0	554	612	
13	0	0	0	0	555	611	
14	0	0	0	0	555	611	
15	0	0	0	0	555	614	
0	0	0	0	0	556	612	
1	0	0	0	0	557	612	
2	0	0	0	0	558	612	
3	0	0	0	0	558	610	
4	0	0	0	0	558	612	
5	0	0	0	0	557	612	
6	0	0	0	0	557	612	
7	0	0	0	0	557	615	
8	0	0	0	0	557	612	
9	0	0	0	0	556	612	
10	0	0	0	0	556	612	
11	0	0	0	0	555	610	
12	0	0	0	0	554	612	
13	0	0	0	0	554	612	
14	0	0	0	0	554	613	
15	0	0	0	0	555	614	
0	0	0	0	0	556	611	
1	0	0	0	0	556	612	
2	0	0	0	0	556	612	
3	0	0	0	0	556	609	
4	0	0	0	0	556	612	
5	0	0	0	0	557	612	
6	0	0	0	0	556	612	
7	0	0	0	0	556	614	
8	0	0	0	0	556	612	
9	0	0	0	0	556	612	
10	0	0	0	0	556	613	
11	0	0	0	0	556	610	
12	0	0	0	0	556	613	
13	0	0	0	0	555	613	
14	0	0	0	0	556	612	
15	0	0	0	0	556	615	
0	0	0	0	0	555	612	
1	0	0	0	0	555	613	
2	0	0	0	0	555	612	
3	0	0	0	0	555	610	
4	0	0	0	0	555	613	
5	0	0	0	0	553	612	
6	0	0	0	0	553	612	
7	0	0	0	0	551	615	
8	0	0	0	0	551	612	
9	0	0	0	0	551	612	
10	0	0	0	0	550	612	
11	0	0	0	0	550	609	
12	0	0	0	0	550	612	
13	0	0	0	0	549	612	
14	0	0	0	0	549	612	
15	0	0	0	0	549	614	
0	0	0	0	0	548	613	
1	0	0	0	0	547	612	
2	0	0	0	0	546	612	
3	0	0	0	0	547	611	
4	0	0	0	0	547	612	
5	0	0	0	0	547	612	
6	0	0	0	0	546	612	
7	0	0	0	0	545	614	
8	0	0	0	0	545	612	
9	0	0	0	0	545	612	
10	0	0	0	0	544	612	
11	0	0	0	0	544	610	
12	0	0	0	0	544	612	
13	0	0	0	0	544	612	
14	0	0	0	0	544	611	
15	0	0	0	0	543	614	
0	0	0	0	0	544	612	
1	0	0	0	0	543	611	
2	0	0	0	0	543	611	
3	0	0	0	0	542	609	
4	0	0	0	0	542	611	
5	0	0	0	0	542	611	
6	0	0	0	0	543	611	
7	0	0	0	0	542	613	
8	0	0	0	0	542	611	
9	0	0	0	0	542	611	
10	0	0	0	0	542	611	
11	0	0	0	0	542	609	
12	0	0	0	0	542	611	
13	0	0	0	0	542	611	
14	0	0	0	0	542	611	
15	0	0	0	0	542	613	
0	0	0	0	0	541	611	
1	0	0	0	0	541	611	
2	0	0	0	0	540	611	
3	0	0	0	0	540	609	
4	0	0	0	0	539	611	
5	0	0	0	0	538	611	
6	0	0	0	0	536	611	
7	0	0	0	0	536	614	
8	0	0	0	0	535	611	
9	0	0	0	0	535	611	
10	0	0	0	0	535	611	
11	0	0	0	0	535	610	
12	0	0	0	0	535	611	
13	0	0	0	0	535	611	
14	0	0	0	0	535	611	
15	0	0	0	0	534	614	
0	0	0	0	0	534	612	
1	0	0	0	0	534	611	
2	0	0	0	0	533	611	
3	0	0	0	0	532	609	
4	0	0	0	0	532	611	
5	0	0	0	0	531	611	
6	0	0	0	0	531	612	
7	0	0	0	0	529	613	
8	0	0	0	0	529	612	
9	0	0	0	0	528	612	
10	0	0	0	0	527	611	
11	0	0	0	0	527	609	
12	0	0	0	0	526	612	
13	0	0	0	0	527	611	
14	0	0	0	0	526	611	
15	0	0	0	0	526	614	
0	0	0	0	0	526	612	
1	0	0	0	0	525	612	
2	0	0	0	0	525	611	
3	0	0	0	0	524	609	
4	0	0	0	0	524	611	
5	0	0	0	0	524	612	
6	0	0	0	0	524	612	
7	0	0	0	0	525	615	
8	0	0	0	0	526	612	
9	0	0	0	0	527	612	
10	0	0	0	0	528	613	
11	0	0	0	0	528	610	
12	0	0	0	0	528	612	
13	0	0	0	0	528	612	
14	0	0	0	0	528	613	
15	0	0	0	0	527	615	
0	0	0	0	0	527	614	
1	0	0	0	0	527	612	
2	0	0	0	0	528	612	
3	0	0	0	0	529	610	
4	0	0	0	0	529	613	
5	0	0	0	0	530	613	
6	0	0	0	0	530	613	
7	0	0	0	0	531	615	
8	0	0	0	0	532	612	
9	0	0	0	0	532	612	
10	0	0	0	0	533	612	
11	0	0	0	0	534	610	
12	0	0	0	0	535	612	
13	0	0	0	0	536	612	
14	0	0	0	0	536	612	
15	0	0	0	0	537	615	
0	0	0	0	0	538	613	
1	0	0	0	0	540	613	
2	0	0	0	0	540	612	
3	0	0	0	0	540	610	
4	0	0	0	0	540	612	
5	0	0	0	0	541	612	
6	0	0	0	0	540	612	
7	0	0	0	0	541	614	
8	0	0	0	0	540	612	
9	0	0	0	0	540	612	
10	0	0	0	0	538	612	
11	0	0	0	0	536	610	
12	0	0	0	0	535	612	
13	0	0	0	0	534	612	
14	0	0	0	0	532	612	
15	0	0	0	0	531	614	
0	0	0	0	0	529	612	
1	0	0	0	0	528	611	
2	0	0	0	0	526	612	
3	0	0	0	0	525	610	
4	0	0	0	0	524	611	
5	0	0	0	0	522	610	
6	0	0	0	0	522	611	
7	0	0	0	0	520	612	
8	0	0	0	0	520	611	
9	0	0	0	0	520	611	
10	0	0	0	0	520	611	
11	0	0	0	0	519	609	
12	0	0	0	0	519	611	
13	0	0	0	0	519	611	
14	0	0	0	0	518	611	
15	0	0	0	0	517	613	
0	0	0	0	0	516	611	
1	0	0	0	0	515	611	
2	0	0	0	0	515	611	
3	0	0	0	0	514	609	
4	0	0	0	0	515	611	
5	0	0	0	0	515	611	
6	0	0	0	0	515	611	
7	0	0	0	0	515	613	
8	0	0	0	0	514	611	
9	0	0	0	0	514	611	
10	0	0	0	0	514	612	
11	0	0	0	0	514	610	
12	0	0	0	0	515	612	
13	0	0	0	0	516	611	
14	0	0	0	0	516	611	
15	0	0	0	0	516	614	
0	0	0	0	0	516	611	
1	0	0	0	0	516	612	
2	0	0	0	0	516	612	
3	0	0	0	0	515	609	
4	0	0	0	0	515	612	
5	0	0	0	0	513	612	
6	0	0	0	0	512	612	
7	0	0	0	0	512	614	
8	0	0	0	0	512	612	
9	0	0	0	0	512	612	
10	0	0	0	0	511	612	
11	0	0	0	0	510	610	
12	0	0	0	0	509	612	
13	0	0	0	0	508	612	
14	0	0	0	0	508	612	
15	0	0	0	0	508	614	
0	0	0	0	0	507	612	
1	0	0	0	0	507	611	
2	0	0	0	0	506	612	
3	0	0	0	0	506	609	
4	0	0	0	0	505	612	
5	0	0	0	0	505	612	
6	0	0	0	0	505	612	
7	0	0	0	0	505	614	
8	0	0	0	0	504	612	
9	0	0	0	0	503	612	
10	0	0	0	0	502	612	
11	0	0	0	0	499	609	
12	0	0	0	0	496	611	
13	0	0	0	0	494	612	
14	0	0	0	0	490	612	
15	0	0	0	0	487	614	
0	0	0	0	0	483	612	
1	0	0	0	0	481	611	
2	0	0	0	0	478	611	
3	0	0	0	0	476	609	
4	0	0	0	0	474	612	
5	0	0	0	0	471	612	
6	0	0	0	0	469	611	
7	0	0	0	0	467	615	
8	0	0	0	0	464	613	
9	0	0	0	0	463	612	
10	0	0	0	0	462	613	
11	0	0	0	0	462	611	
12	0	0	0	0	463	613	
13	0	0	0	0	463	613	
14	0	0	0	0	466	613	
15	0	0	0	0	471	615	
0	0	0	0	0	477	612	
1	0	0	0	0	485	612	
2	0	0	0	0	492	612	
3	0	0	0	0	501	610	
4	0	0	0	0	510	613	
5	0	0	0	0	518	613	
6	0	0	0	0	526	613	
7	0	0	0	0	534	615	
8	0	0	0	0	540	613	
9	0	0	0	0	547	612	
10	0	0	0	0	555	612	
11	0	0	0	0	562	610	
12	0	0	0	0	567	612	
13	0	0	0	0	567	612	
14	0	0	0	0	569	612	
15	0	0	0	0	574	614	
0	0	0	0	0	580	613	
1	0	0	0	0	589	612	
2	0	0	0	0	601	612	
3	0	0	0	0	612	610	
4	0	0	0	0	624	612	
5	0	0	0	0	635	612	
6	0	0	0	0	647	611	
7	0	0	0	0	662	614	
8	0	0	0	0	680	612	
9	0	0	0	0	700	612	
10	0	0	0	0	717	611	
11	0	0	0	0	733	609	
12	0	0	0	0	746	611	
13	0	0	0	0	751	611	
14	0	0	0	0	750	612	
15	0	0	0	0	743	614	
0	0	0	0	0	734	611	
1	0	0	0	0	722	611	
2	0	0	0	0	708	611	
3	0	0	0	0	692	609	
4	0	0	0	0	674	612	
5	0	0	0	0	657	611	
6	0	0	0	0	641	611	
7	0	0	0	0	626	613	
8	0	0	0	0	611	611	
9	0	0	0	0	599	611	
10	0	0	0	0	585	611	
11	0	0	0	0	572	609	
12	0	0	0	0	558	612	
13	0	0	0	0	547	612	
14	0	0	0	0	535	612	
15	0	0	0	0	524	614	
0	0	0	0	0	514	611	
1	0	0	0	0	507	612	
2	0	0	0	0	498	612	
3	0	0	0	0	491	609	
4	0	0	0	0	484	612	
5	0	0	0	0	478	612	
6	0	0	0	0	472	612	
7	0	0	0	0	467	614	
8	0	0	0	0	463	612	
9	0	0	0	0	459	613	
10	0	0	0	0	455	612	
11	0	0	0	0	453	610	
12	0	0	0	0	451	612	
13	0	0	0	0	449	613	
14	0	0	0	0	447	612	
15	0	0	0	0	446	615	
0	0	0	0	0	445	612	
1	0	0	0	0	444	612	
2	0	0	0	0	443	612	
3	0	0	0	0	442	610	
4	0	0	0	0	442	612	
5	0	0	0	0	442	612	
6	0	0	0	0	441	612	
7	0	0	0	0	441	614	
8	0	0	0	0	441	612	
9	0	0	0	0	442	612	
10	0	0	0	0	443	612	
11	0	0	0	0	443	610	
12	0	0	0	0	444	612	
13	0	0	0	0	444	611	
14	0	0	0	0	444	612	
15	0	0	0	0	444	614	
0	0	0	0	0	444	611	
1	0	0	0	0	444	611	
2	0	0	0	0	443	611	
3	0	0	0	0	443	609	
4	0	0	0	0	444	611	
5	0	0	0	0	444	611	
6	0	0	0	0	444	611	
7	0	0	0	0	444	614	
8	0	0	0	0	445	611	
9	0	0	0	0	445	611	
10	0	0	0	0	446	611	
11	0	0	0	0	447	609	
12	0	0	0	0	448	611	
13	0	0	0	0	450	611	
14	0	0	0	0	451	611	
15	0	0	0	0	453	614	
0	0	0	0	0	454	611	
1	0	0	0	0	454	611	
2	0	0	0	0	454	611	
3	0	0	0	0	455	609	
4	0	0	0	0	456	611	
5	0	0	0	0	457	612	
6	0	0	0	0	457	612	
7	0	0	0	0	457	614	
8	0	0	0	0	457	612	
9	0	0	0	0	457	612	
10	0	0	0	0	457	612	
11	0	0	0	0	458	609	
12	0	0	0	0	459	612	
13	0	0	0	0	460	612	
14	0	0	0	0	461	611	
15	0	0	0	0	461	615	
0	0	0	0	0	462	612	
1	0	0	0	0	463	612	
2	0	0	0	0	463	612	
3	0	0	0	0	463	611	
4	0	0	0	0	463	612	
5	0	0	0	0	463	613	
6	0	0	0	0	464	613	
7	0	0	0	0	465	615	
8	0	0	0	0	465	613	
9	0	0	0	0	467	613	
10	0	0	0	0	468	613	
11	0	0	0	0	469	611	
12	0	0	0	0	469	612	
13	0	0	0	0	469	612	
14	0	0	0	0	469	613	
15	0	0	0	0	470	615	
0	0	0	0	0	470	612	
1	0	0	0	0	471	613	
2	0	0	0	0	472	612	
3	0	0	0	0	471	610	
4	0	0	0	0	471	612	
5	0	0	0	0	470	612	
6	0	0	0	0	470	612	
7	0	0	0	0	470	614	
8	0	0	0	0	470	612	
9	0	0	0	0	470	612	
10	0	0	0	0	470	612	
11	0	0	0	0	470	609	
12	0	0	0	0	470	612	
13	0	0	0	0	470	612	
14	0	0	0	0	470	613	
15	0	0	0	0	469	615	
0	0	0	0	0	469	613	
1	0	0	0	0	469	612	
2	0	0	0	0	469	612	
3	0	0	0	0	469	611	
4	0	0	0	0	470	613	
5	0	0	0	0	471	613	
6	0	0	0	0	470	612	
7	0	0	0	0	470	615	
8	0	0	0	0	470	612	
9	0	0	0	0	470	612	
10	0	0	0	0	471	612	
11	0	0	0	0	471	611	
12	0	0	0	0	471	612	
13	0	0	0	0	471	612	
14	0	0	0	0	470	612	
15	0	0	0	0	470	614	
0	0	0	0	0	470	612	
1	0	0	0	0	471	612	
2	0	0	0	0	471	612	
3	0	0	0	0	471	609	
4	0	0	0	0	471	612	
5	0	0	0	0	470	612	
6	0	0	0	0	471	612	
7	0	0	0	0	469	614	
8	0	0	0	0	468	612	
9	0	0	0	0	468	612	
10	0	0	0	0	469	612	
11	0	0	0	0	470	610	
12	0	0	0	0	470	611	
13	0	0	0	0	471	612	
14	0	0	0	0	471	611	
15	0	0	0	0	471	614	
0	0	0	0	0	472	612	
1	0	0	0	0	473	612	
2	0	0	0	0	473	612	
3	0	0	0	0	473	609	
4	0	0	0	0	472	612	
5	0	0	0	0	473	611	
6	0	0	0	0	475	612	
7	0	0	0	0	476	613	
8	0	0	0	0	477	612	
9	0	0	0	0	478	611	
10	0	0	0	0	480	612	
11	0	0	0	0	480	610	
12	0	0	0	0	480	611	
13	0	0	0	0	481	612	
14	0	0	0	0	482	611	
15	0	0	0	0	482	614	
0	0	0	0	0	482	611	
1	0	0	0	0	482	611	
2	0	0	0	0	481	611	
3	0	0	0	0	481	609	
4	0	0	0	0	480	612	
5	0	0	0	0	479	612	
6	0	0	0	0	480	611	
7	0	0	0	0	479	614	
8	0	0	0	0	480	611	
9	0	0	0	0	480	612	
10	0	0	0	0	481	611	
11	0	0	0	0	483	609	
12	0	0	0	0	484	611	
13	0	0	0	0	485	611	
14	0	0	0	0	486	611	
15	0	0	0	0	486	613	
0	0	0	0	0	487	611	
1	0	0	0	0	488	610	
2	0	0	0	0	488	611	
3	0	0	0	0	491	609	
4	0	0	0	0	491	611	
5	0	0	0	0	492	612	
6	0	0	0	0	492	611	
7	0	0	0	0	492	613	
8	0	0	0	0	494	611	
9	0	0	0	0	494	611	
10	0	0	0	0	496	612	
11	0	0	0	0	496	609	
12	0	0	0	0	497	611	
13	0	0	0	0	497	612	
14	0	0	0	0	498	611	
15	0	0	0	0	499	614	
0	0	0	0	0	500	612	
1	0	0	0	0	502	611	
2	0	0	0	0	504	612	
3	0	0	0	0	504	611	
4	0	0	0	0	505	611	
5	0	0	0	0	505	612	
6	0	0	0	0	505	612	
7	0	0	0	0	506	615	
8	0	0	0	0	507	612	
9	0	0	0	0	507	612	
10	0	0	0	0	508	612	
11	0	0	0	0	508	610	
12	0	0	0	0	509	612	
13	0	0	0	0	510	613	
14	0	0	0	0	510	612	
15	0	0	0	0	511	614	
0	0	0	0	0	511	612	
1	0	0	0	0	512	612	
2	0	0	0	0	512	611	
3	0	0	0	0	512	609	
4	0	0	0	0	512	611	
5	0	0	0	0	514	612	
6	0	0	0	0	515	612	
7	0	0	0	0	515	614	
8	0	0	0	0	516	612	
9	0	0	0	0	516	612	
10	0	0	0	0	518	612	
11	0	0	0	0	519	610	
12	0	0	0	0	519	612	
13	0	0	0	0	519	612	
14	0	0	0	0	520	612	
15	0	0	0	0	521	614	
0	0	0	0	0	521	612	
1	0	0	0	0	522	612	
2	0	0	0	0	522	612	
3	0	0	0	0	523	609	
4	0	0	0	0	524	612	
5	0	0	0	0	524	612	
6	0	0	0	0	524	612	
7	0	0	0	0	524	614	
8	0	0	0	0	524	612	
9	0	0	0	0	524	612	
10	0	0	0	0	524	612	
11	0	0	0	0	525	609	
12	0	0	0	0	525	612	
13	0	0	0	0	525	612	
14	0	0	0	0	526	612	
15	0	0	0	0	526	615	
0	0	0	0	0	525	612	
1	0	0	0	0	525	612	
2	0	0	0	0	526	612	
3	0	0	0	0	526	610	
4	0	0	0	0	526	613	
5	0	0	0	0	526	613	
6	0	0	0	0	525	612	
7	0	0	0	0	524	614	
8	0	0	0	0	524	612	
9	0	0	0	0	524	612	
10	0	0	0	0	524	612	
11	0	0	0	0	523	610	
12	0	0	0	0	522	612	
13	0	0	0	0	521	612	
14	0	0	0	0	522	612	
15	0	0	0	0	521	615	
0	0	0	0	0	520	612	
1	0	0	0	0	520	612	
2	0	0	0	0	520	612	
3	0	0	0	0	520	610	
4	0	0	0	0	520	612	
5	0	0	0	0	521	613	
6	0	0	0	0	521	612	
7	0	0	0	0	520	614	
8	0	0	0	0	521	613	
9	0	0	0	0	520	612	
10	0	0	0	0	520	612	
11	0	0	0	0	521	610	
12	0	0	0	0	521	612	
13	0	0	0	0	521	612	
14	0	0	0	0	521	612	
15	0	0	0	0	521	614	
0	0	0	0	0	522	612	
1	0	0	0	0	522	612	
2	0	0	0	0	521	612	
3	0	0	0	0	520	609	
4	0	0	0	0	520	612	
5	0	0	0	0	520	612	
6	0	0	0	0	520	612	
7	0	0	0	0	520	614	
8	0	0	0	0	520	612	
9	0	0	0	0	519	611	
10	0	0	0	0	519	611	
11	0	0	0	0	519	609	
12	0	0	0	0	519	611	
13	0	0	0	0	519	611	
14	0	0	0	0	520	612	
15	0	0	0	0	520	614	
0	0	0	0	0	520	612	
1	0	0	0	0	520	612	
2	0	0	0	0	519	611	
3	0	0	0	0	519	609	
4	0	0	0	0	519	611	
5	0	0	0	0	519	612	
6	0	0	0	0	519	612	
7	0	0	0	0	519	614	
8	0	0	0	0	519	611	
9	0	0	0	0	519	611	
10	0	0	0	0	519	611	
11	0	0	0	0	519	609	
12	0	0	0	0	518	612	
13	0	0	0	0	518	612	
14	0	0	0	0	518	612	
15	0	0	0	0	518	614	
0	0	0	0	0	518	612	
1	0	0	0	0	518	613	
2	0	0	0	0	519	613	
3	0	0	0	0	519	609	
4	0	0	0	0	519	612	
5	0	0	0	0	520	611	
6	0	0	0	0	520	612	
7	0	0	0	0	521	615	
8	0	0	0	0	521	613	
9	0	0	0	0	520	611	
10	0	0	0	0	520	612	
11	0	0	0	0	519	610	
12	0	0	0	0	518	611	
13	0	0	0	0	518	612	
14	0	0	0	0	517	612	
15	0	0	0	0	516	615	
0	0	0	0	0	515	612	
1	0	0	0	0	514	612	
2	0	0	0	0	513	612	
3	0	0	0	0	512	609	
4	0	0	0	0	512	612	
5	0	0	0	0	513	611	
6	0	0	0	0	512	612	
7	0	0	0	0	512	614	
8	0	0	0	0	512	611	
9	0	0	0	0	513	612	
10	0	0	0	0	513	611	
11	0	0	0	0	513	609	
12	0	0	0	0	514	611	
13	0	0	0	0	514	611	
14	0	0	0	0	514	611	
15	0	0	0	0	514	613	
0	0	0	0	0	513	611	
1	0	0	0	0	514	612	
2	0	0	0	0	514	611	
3	0	0	0	0	514	609	
4	0	0	0	0	513	611	
5	0	0	0	0	512	611	
6	0	0	0	0	512	611	
7	0	0	0	0	513	614	
8	0	0	0	0	513	612	
9	0	0	0	0	512	611	
10	0	0	0	0	512	612	
11	0	0	0	0	513	609	
12	0	0	0	0	513	612	
13	0	0	0	0	513	612	
14	0	0	0	0	512	612	
15	0	0	0	0	512	614	
0	0	0	0	0	513	611	
1	0	0	0	0	513	612	
2	0	0	0	0	513	612	
3	0	0	0	0	513	610	
4	0	0	0	0	512	612	
5	0	0	0	0	513	611	
6	0	0	0	0	512	612	
7	0	0	0	0	514	614	
8	0	0	0	0	513	611	
9	0	0	0	0	514	612	
10	0	0	0	0	515	612	
11	0	0	0	0	515	609	
12	0	0	0	0	515	612	
13	0	0	0	0	517	611	
14	0	0	0	0	518	611	
15	0	0	0	0	519	614	
0	0	0	0	0	519	611	
1	0	0	0	0	519	612	
2	0	0	0	0	520	612	
3	0	0	0	0	522	609	
4	0	0	0	0	523	611	
5	0	0	0	0	523	611	
6	0	0	0	0	523	612	
7	0	0	0	0	523	614	
8	0	0	0	0	523	611	
9	0	0	0	0	524	611	
10	0	0	0	0	523	611	
11	0	0	0	0	523	610	
12	0	0	0	0	524	612	
13	0	0	0	0	524	612	
14	0	0	0	0	524	612	
15	0	0	0	0	525	614	
0	0	0	0	0	525	612	
1	0	0	0	0	524	612	
2	0	0	0	0	524	611	
3	0	0	0	0	524	609	
4	0	0	0	0	523	612	
5	0	0	0	0	523	612	
6	0	0	0	0	522	612	
7	0	0	0	0	521	614	
8	0	0	0	0	521	612	
9	0	0	0	0	521	612	
10	0	0	0	0	520	612	
11	0	0	0	0	519	610	
12	0	0	0	0	518	611	
13	0	0	0	0	517	612	
14	0	0	0	0	515	612	
15	0	0	0	0	514	615	
0	0	0	0	0	512	612	
1	0	0	0	0	511	612	
2	0	0	0	0	510	613	
3	0	0	0	0	509	611	
4	0	0	0	0	508	613	
5	0	0	0	0	507	614	
6	0	0	0	0	507	613	
7	0	0	0	0	507	616	
8	0	0	0	0	507	613	
9	0	0	0	0	506	614	
10	0	0	0	0	506	613	
11	0	0	0	0	505	611	
12	0	0	0	0	504	614	
13	0	0	0	0	504	613	
14	0	0	0	0	503	614	
15	0	0	0	0	502	615	
0	0	0	0	0	501	613	
1	0	0	0	0	501	613	
2	0	0	0	0	500	613	
3	0	0	0	0	500	611	
4	0	0	0	0	500	612	
5	0	0	0	0	499	613	
6	0	0	0	0	499	613	
7	0	0	0	0	499	615	
8	0	0	0	0	499	613	
9	0	0	0	0	499	613	
10	0	0	0	0	499	613	
11	0	0	0	0	498	611	
12	0	0	0	0	499	613	
13	0	0	0	0	498	614	
14	0	0	0	0	498	613	
15	0	0	0	0	498	615	
0	0	0	0	0	498	612	
1	0	0	0	0	498	612	
2	0	0	0	0	498	612	
3	0	0	0	0	497	611	
4	0	0	0	0	497	612	
5	0	0	0	0	498	613	
6	0	0	0	0	499	612	
7	0	0	0	0	499	615	
8	0	0	0	0	499	612	
9	0	0	0	0	499	613	
10	0	0	0	0	498	612	
11	0	0	0	0	498	610	
12	0	0	0	0	497	612	
13	0	0	0	0	496	612	
14	0	0	0	0	495	612	
15	0	0	0	0	495	614	
0	0	0	0	0	495	612	
1	0	0	0	0	495	612	
2	0	0	0	0	495	612	
3	0	0	0	0	494	609	
4	0	0	0	0	494	612	
5	0	0	0	0	493	611	
6	0	0	0	0	493	611	
7	0	0	0	0	491	613	
8	0	0	0	0	488	611	
9	0	0	0	0	485	611	
10	0	0	0	0	482	611	
11	0	0	0	0	479	609	
12	0	0	0	0	475	611	
13	0	0	0	0	473	611	
14	0	0	0	0	471	611	
15	0	0	0	0	468	612	
0	0	0	0	0	466	611	
1	0	0	0	0	464	610	
2	0	0	0	0	463	610	
3	0	0	0	0	462	608	
4	0	0	0	0	460	610	
5	0	0	0	0	458	611	
6	0	0	0	0	456	610	
7	0	0	0	0	455	612	
8	0	0	0	0	455	611	
9	0	0	0	0	456	611	
10	0	0	0	0	457	611	
11	0	0	0	0	460	608	
12	0	0	0	0	462	611	
13	0	0	0	0	468	611	
14	0	0	0	0	475	611	
15	0	0	0	0	482	613	
0	0	0	0	0	491	611	
1	0	0	0	0	499	611	
2	0	0	0	0	506	611	
3	0	0	0	0	513	608	
4	0	0	0	0	519	611	
5	0	0	0	0	525	611	
6	0	0	0	0	531	611	
7	0	0	0	0	537	614	
8	0	0	0	0	544	611	
9	0	0	0	0	549	611	
10	0	0	0	0	549	611	
11	0	0	0	0	549	608	
12	0	0	0	0	551	611	
13	0	0	0	0	556	611	
14	0	0	0	0	563	611	
15	0	0	0	0	572	613	
0	0	0	0	0	581	611	
1	0	0	0	0	592	611	
2	0	0	0	0	602	611	
3	0	0	0	0	612	609	
4	0	0	0	0	624	612	
5	0	0	0	0	640	612	
6	0	0	0	0	660	611	
7	0	0	0	0	679	614	
8	0	0	0	0	696	612	
9	0	0	0	0	714	612	
10	0	0	0	0	726	612	
11	0	0	0	0	731	610	
12	0	0	0	0	731	611	
13	0	0	0	0	726	613	
14	0	0	0	0	718	612	
15	0	0	0	0	705	615	
0	0	0	0	0	691	613	
1	0	0	0	0	673	612	
2	0	0	0	0	657	612	
3	0	0	0	0	640	610	
4	0	0	0	0	625	612	
5	0	0	0	0	610	612	
6	0	0	0	0	595	612	
7	0	0	0	0	582	615	
8	0	0	0	0	568	612	
9	0	0	0	0	556	612	
10	0	0	0	0	545	613	
11	0	0	0	0	534	610	
12	0	0	0	0	524	613	
13	0	0	0	0	515	613	
14	0	0	0	0	507	612	
15	0	0	0	0	498	615	
0	0	0	0	0	491	612	
1	0	0	0	0	484	614	
2	0	0	0	0	479	613	
3	0	0	0	0	473	611	
4	0	0	0	0	469	613	
5	0	0	0	0	464	613	
6	0	0	0	0	460	612	
7	0	0	0	0	457	615	
8	0	0	0	0	455	613	
9	0	0	0	0	453	613	
10	0	0	0	0	452	614	
11	0	0	0	0	451	612	
12	0	0	0	0	450	613	
13	0	0	0	0	449	613	
14	0	0	0	0	448	613	
15	0	0	0	0	448	615	
0	0	0	0	0	447	613	
1	0	0	0	0	447	613	
2	0	0	0	0	447	612	
3	0	0	0	0	447	610	
4	0	0	0	0	446	612	
5	0	0	0	0	446	613	
6	0	0	0	0	446	613	
7	0	0	0	0	446	615	
8	0	0	0	0	446	612	
9	0	0	0	0	445	613	
10	0	0	0	0	446	613	
11	0	0	0	0	446	610	
12	0	0	0	0	445	612	
13	0	0	0	0	446	612	
14	0	0	0	0	446	612	
15	0	0	0	0	446	614	
0	0	0	0	0	445	612	
1	0	0	0	0	445	612	
2	0	0	0	0	445	612	
3	0	0	0	0	445	610	
4	0	0	0	0	445	612	
5	0	0	0	0	445	612	
6	0	0	0	0	445	611	
7	0	0	0	0	446	614	
8	0	0	0	0	446	612	
9	0	0	0	0	446	612	
10	0	0	0	0	447	612	
11	0	0	0	0	448	611	
12	0	0	0	0	448	614	
13	0	0	0	0	449	612	
14	0	0	0	0	450	613	
15	0	0	0	0	450	615	
0	0	0	0	0	451	612	
1	0	0	0	0	452	612	
2	0	0	0	0	453	612	
3	0	0	0	0	454	610	
4	0	0	0	0	454	613	
5	0	0	0	0	455	613	
6	0	0	0	0	455	613	
7	0	0	0	0	455	614	
8	0	0	0	0	456	612	
9	0	0	0	0	456	612	
10	0	0	0	0	456	612	
11	0	0	0	0	457	610	
12	0	0	0	0	458	611	
13	0	0	0	0	458	612	
14	0	0	0	0	457	612	
15	0	0	0	0	458	614	
0	0	0	0	0	458	611	
1	0	0	0	0	459	611	
2	0	0	0	0	459	611	
3	0	0	0	0	460	609	
4	0	0	0	0	460	611	
5	0	0	0	0	460	611	
6	0	0	0	0	461	611	
7	0	0	0	0	461	614	
8	0	0	0	0	461	612	
9	0	0	0	0	461	611	
10	0	0	0	0	461	611	
11	0	0	0	0	462	609	
12	0	0	0	0	462	611	
13	0	0	0	0	462	611	
14	0	0	0	0	463	611	
15	0	0	0	0	463	613	
0	0	0	0	0	464	611	
1	0	0	0	0	464	611	
2	0	0	0	0	464	611	
3	0	0	0	0	465	608	
4	0	0	0	0	465	610	
5	0	0	0	0	465	611	
6	0	0	0	0	465	611	
7	0	0	0	0	465	613	
8	0	0	0	0	465	611	
9	0	0	0	0	465	611	
10	0	0	0	0	466	611	
11	0	0	0	0	466	609	
12	0	0	0	0	466	611	
13	0	0	0	0	467	611	
14	0	0	0	0	467	611	
15	0	0	0	0	466	613	
0	0	0	0	0	467	611	
1	0	0	0	0	467	612	
2	0	0	0	0	467	611	
3	0	0	0	0	468	610	
4	0	0	0	0	469	612	
5	0	0	0	0	470	611	
6	0	0	0	0	470	611	
7	0	0	0	0	470	614	
8	0	0	0	0	470	611	
9	0	0	0	0	470	611	
10	0	0	0	0	470	611	
11	0	0	0	0	468	609	
12	0	0	0	0	468	611	
13	0	0	0	0	467	611	
14	0	0	0	0	467	612	
15	0	0	0	0	467	614	
0	0	0	0	0	467	611	
1	0	0	0	0	466	612	
2	0	0	0	0	465	611	
3	0	0	0	0	464	609	
4	0	0	0	0	464	612	
5	0	0	0	0	464	611	
6	0	0	0	0	463	612	
7	0	0	0	0	464	614	
8	0	0	0	0	464	612	
9	0	0	0	0	464	612	
10	0	0	0	0	465	611	
11	0	0	0	0	466	609	
12	0	0	0	0	466	611	
13	0	0	0	0	465	612	
14	0	0	0	0	465	612	
15	0	0	0	0	465	614	
0	0	0	0	0	465	612	
1	0	0	0	0	466	612	
2	0	0	0	0	467	612	
3	0	0	0	0	467	609	
4	0	0	0	0	467	612	
5	0	0	0	0	468	612	
6	0	0	0	0	468	612	
7	0	0	0	0	469	615	
8	0	0	0	0	470	612	
9	0	0	0	0	471	613	
10	0	0	0	0	471	613	
11	0	0	0	0	472	610	
12	0	0	0	0	472	613	
13	0	0	0	0	473	613	
14	0	0	0	0	475	614	
15	0	0	0	0	476	615	
0	0	0	0	0	476	614	
1	0	0	0	0	477	614	
2	0	0	0	0	477	615	
3	0	0	0	0	477	612	
4	0	0	0	0	478	614	
5	0	0	0	0	479	615	
6	0	0	0	0	480	614	
7	0	0	0	0	480	616	
8	0	0	0	0	481	614	
9	0	0	0	0	481	614	
10	0	0	0	0	483	614	
11	0	0	0	0	483	611	
12	0	0	0	0	483	614	
13	0	0	0	0	484	613	
14	0	0	0	0	485	613	
15	0	0	0	0	486	615	
0	0	0	0	0	487	613	
1	0	0	0	0	488	613	
2	0	0	0	0	489	613	
3	0	0	0	0	490	610	
4	0	0	0	0	491	612	
5	0	0	0	0	492	612	
6	0	0	0	0	492	613	
7	0	0	0	0	493	615	
8	0	0	0	0	494	613	
9	0	0	0	0	495	612	
10	0	0	0	0	496	612	
11	0	0	0	0	496	610	
12	0	0	0	0	497	611	
13	0	0	0	0	498	611	
14	0	0	0	0	498	611	
15	0	0	0	0	499	614	
0	0	0	0	0	499	612	
1	0	0	0	0	499	612	
2	0	0	0	0	500	612	
3	0	0	0	0	500	610	
4	0	0	0	0	500	612	
5	0	0	0	0	501	612	
6	0	0	0	0	502	611	
7	0	0	0	0	503	614	
8	0	0	0	0	504	612	
9	0	0	0	0	504	612	
10	0	0	0	0	504	612	
11	0	0	0	0	504	610	
12	0	0	0	0	505	612	
13	0	0	0	0	506	612	
14	0	0	0	0	507	611	
15	0	0	0	0	507	614	
0	0	0	0	0	507	612	
1	0	0	0	0	508	611	
2	0	0	0	0	508	612	
3	0	0	0	0	509	609	
4	0	0	0	0	510	611	
5	0	0	0	0	509	611	
6	0	0	0	0	510	612	
7	0	0	0	0	510	614	
8	0	0	0	0	511	611	
9	0	0	0	0	512	612	
10	0	0	0	0	512	611	
11	0	0	0	0	513	609	
12	0	0	0	0	513	611	
13	0	0	0	0	513	611	
14	0	0	0	0	514	611	
15	0	0	0	0	515	613	
0	0	0	0	0	517	611	
1	0	0	0	0	518	611	
2	0	0	0	0	519	611	
3	0	0	0	0	519	608	
4	0	0	0	0	520	611	
5	0	0	0	0	521	611	
6	0	0	0	0	522	610	
7	0	0	0	0	523	612	
8	0	0	0	0	524	611	
9	0	0	0	0	524	610	
10	0	0	0	0	525	610	
11	0	0	0	0	526	608	
12	0	0	0	0	526	611	
13	0	0	0	0	527	611	
14	0	0	0	0	527	611	
15	0	0	0	0	527	613	
0	0	0	0	0	527	611	
1	0	0	0	0	526	610	
2	0	0	0	0	526	611	
3	0	0	0	0	526	609	
4	0	0	0	0	525	611	
5	0	0	0	0	526	611	
6	0	0	0	0	526	611	
7	0	0	0	0	527	614	
8	0	0	0	0	527	612	
9	0	0	0	0	527	611	
10	0	0	0	0	527	612	
11	0	0	0	0	527	609	
12	0	0	0	0	527	611	
13	0	0	0	0	529	611	
14	0	0	0	0	529	612	
15	0	0	0	0	531	615	
0	0	0	0	0	531	612	
1	0	0	0	0	532	613	
2	0	0	0	0	533	612	
3	0	0	0	0	534	609	
4	0	0	0	0	533	612	
5	0	0	0	0	533	612	
6	0	0	0	0	533	611	
7	0	0	0	0	532	614	
8	0	0	0	0	532	612	
9	0	0	0	0	531	612	
10	0	0	0	0	531	612	
11	0	0	0	0	531	610	
12	0	0	0	0	529	612	
13	0	0	0	0	529	612	
14	0	0	0	0	528	611	
15	0	0	0	0	528	614	
0	0	0	0	0	528	612	
1	0	0	0	0	528	612	
2	0	0	0	0	529	612	
3	0	0	0	0	528	609	
4	0	0	0	0	528	611	
5	0	0	0	0	528	612	
6	0	0	0	0	527	612	
7	0	0	0	0	528	614	
8	0	0	0	0	528	612	
9	0	0	0	0	528	612	
10	0	0	0	0	528	612	
11	0	0	0	0	527	610	
12	0	0	0	0	527	613	
13	0	0	0	0	527	613	
14	0	0	0	0	527	612	
15	0	0	0	0	527	614	
0	0	0	0	0	527	612	
1	0	0	0	0	527	612	
2	0	0	0	0	527	611	
3	0	0	0	0	527	610	
4	0	0	0	0	528	612	
5	0	0	0	0	528	612	
6	0	0	0	0	528	612	
7	0	0	0	0	529	614	
8	0	0	0	0	529	612	
9	0	0	0	0	530	613	
10	0	0	0	0	530	612	
11	0	0	0	0	529	610	
12	0	0	0	0	530	612	
13	0	0	0	0	530	612	
14	0	0	0	0	530	612	
15	0	0	0	0	530	615	
0	0	0	0	0	530	613	
1	0	0	0	0	530	613	
2	0	0	0	0	530	612	
3	0	0	0	0	529	610	
4	0	0	0	0	528	613	
5	0	0	0	0	527	613	
6	0	0	0	0	527	612	
7	0	0	0	0	526	615	
8	0	0	0	0	526	613	
9	0	0	0	0	524	613	
10	0	0	0	0	524	612	
11	0	0	0	0	524	610	
12	0	0	0	0	523	612	
13	0	0	0	0	523	612	
14	0	0	0	0	523	612	
15	0	0	0	0	522	614	
0	0	0	0	0	522	612	
1	0	0	0	0	521	611	
2	0	0	0	0	521	611	
3	0	0	0	0	522	609	
4	0	0	0	0	521	611	
5	0	0	0	0	521	611	
6	0	0	0	0	521	611	
7	0	0	0	0	521	614	
8	0	0	0	0	521	611	
9	0	0	0	0	521	611	
10	0	0	0	0	521	611	
11	0	0	0	0	521	609	
12	0	0	0	0	521	612	
13	0	0	0	0	520	612	
14	0	0	0	0	520	612	
15	0	0	0	0	520	614	
0	0	0	0	0	520	612	
1	0	0	0	0	521	612	
2	0	0	0	0	521	612	
3	0	0	0	0	522	610	
4	0	0	0	0	522	613	
5	0	0	0	0	522	612	
6	0	0	0	0	524	612	
7	0	0	0	0	524	615	
8	0	0	0	0	524	613	
9	0	0	0	0	524	612	
10	0	0	0	0	524	612	
11	0	0	0	0	524	611	
12	0	0	0	0	523	612	
13	0	0	0	0	523	612	
14	0	0	0	0	522	612	
15	0	0	0	0	522	614	
0	0	0	0	0	522	612	
1	0	0	0	0	522	612	
2	0	0	0	0	521	611	
3	0	0	0	0	521	609	
4	0	0	0	0	522	612	
5	0	0	0	0	523	611	
6	0	0	0	0	524	611	
7	0	0	0	0	524	614	
8	0	0	0	0	524	612	
9	0	0	0	0	525	611	
10	0	0	0	0	526	612	
11	0	0	0	0	527	609	
12	0	0	0	0	528	612	
13	0	0	0	0	529	612	
14	0	0	0	0	528	611	
15	0	0	0	0	529	613	
0	0	0	0	0	529	611	
1	0	0	0	0	530	611	
2	0	0	0	0	530	612	
3	0	0	0	0	531	609	
4	0	0	0	0	531	611	
5	0	0	0	0	532	611	
6	0	0	0	0	531	611	
7	0	0	0	0	532	614	
8	0	0	0	0	532	612	
9	0	0	0	0	532	611	
10	0	0	0	0	532	611	
11	0	0	0	0	532	609	
12	0	0	0	0	532	611	
13	0	0	0	0	531	611	
14	0	0	0	0	532	611	
15	0	0	0	0	532	613	
0	0	0	0	0	533	611	
1	0	0	0	0	532	611	
2	0	0	0	0	532	611	
3	0	0	0	0	532	609	
