# OpenSignals Text File Format
# {"98:D3:C1:FD:2F:E5":{"sensor":["RAW","RAW"],"device name":"98:D3:C1:FD:2F:E5","column":["nSeq","I1","I2","O1","O2","A2","A5"],"sync interval":2,"time":"19:31:04","comments":"","device connection":"BTH98:D3:C1:FD:2F:E5","channels":[2,5],"date":"2021-09-09","mode":0,"digital IO":[0,0,1,1],"firmware version":0,"device":"bitalino_rev","position":0,"sampling rate":1000,"label":["A2","A5"],"resolution":[10,10],"special":[{},{}]}}
# EndOfHeader
0	0	0	0	0	508	609
1	0	0	0	0	508	609
2	0	0	0	0	507	604
3	0	0	0	0	507	609
4	0	0	0	0	508	609
5	0	0	0	0	509	609
6	0	0	0	0	509	613
7	0	0	0	0	510	609
8	0	0	0	0	510	609
9	0	0	0	0	510	609
10	0	0	0	0	510	604
11	0	0	0	0	510	610
12	0	0	0	0	510	611
13	0	0	0	0	510	610
14	0	0	0	0	510	615
15	0	0	0	0	510	610
0	0	0	0	0	510	610
1	0	0	0	0	510	610
2	0	0	0	0	510	605
3	0	0	0	0	509	610
4	0	0	0	0	509	610
5	0	0	0	0	508	610
6	0	0	0	0	507	614
7	0	0	0	0	507	610
8	0	0	0	0	506	611
9	0	0	0	0	507	611
10	0	0	0	0	507	605
11	0	0	0	0	507	611
12	0	0	0	0	506	611
13	0	0	0	0	506	611
14	0	0	0	0	507	615
15	0	0	0	0	507	611
0	0	0	0	0	507	611
1	0	0	0	0	507	610
2	0	0	0	0	507	605
3	0	0	0	0	507	610
4	0	0	0	0	507	610
5	0	0	0	0	507	611
6	0	0	0	0	508	614
7	0	0	0	0	508	610
8	0	0	0	0	509	610
9	0	0	0	0	510	609
10	0	0	0	0	510	605
11	0	0	0	0	510	610
12	0	0	0	0	511	610
13	0	0	0	0	511	610
14	0	0	0	0	512	614
15	0	0	0	0	512	611
0	0	0	0	0	512	610
1	0	0	0	0	512	610
2	0	0	0	0	512	604
3	0	0	0	0	512	609
4	0	0	0	0	512	610
5	0	0	0	0	512	609
6	0	0	0	0	513	614
7	0	0	0	0	513	610
8	0	0	0	0	513	610
9	0	0	0	0	513	609
10	0	0	0	0	513	604
11	0	0	0	0	513	610
12	0	0	0	0	513	610
13	0	0	0	0	513	610
14	0	0	0	0	512	614
15	0	0	0	0	512	610
0	0	0	0	0	513	610
1	0	0	0	0	512	610
2	0	0	0	0	512	605
3	0	0	0	0	513	611
4	0	0	0	0	513	611
5	0	0	0	0	512	611
6	0	0	0	0	512	615
7	0	0	0	0	512	610
8	0	0	0	0	512	610
9	0	0	0	0	512	610
10	0	0	0	0	512	605
11	0	0	0	0	512	610
12	0	0	0	0	512	609
13	0	0	0	0	512	610
14	0	0	0	0	512	614
15	0	0	0	0	513	610
0	0	0	0	0	513	610
1	0	0	0	0	512	610
2	0	0	0	0	512	604
3	0	0	0	0	512	609
4	0	0	0	0	512	609
5	0	0	0	0	512	609
6	0	0	0	0	512	614
7	0	0	0	0	511	609
8	0	0	0	0	511	609
9	0	0	0	0	510	609
10	0	0	0	0	510	605
11	0	0	0	0	510	610
12	0	0	0	0	509	609
13	0	0	0	0	509	609
14	0	0	0	0	509	614
15	0	0	0	0	509	609
0	0	0	0	0	508	610
1	0	0	0	0	508	610
2	0	0	0	0	509	604
3	0	0	0	0	509	610
4	0	0	0	0	510	610
5	0	0	0	0	510	610
6	0	0	0	0	510	614
7	0	0	0	0	509	610
8	0	0	0	0	508	609
9	0	0	0	0	508	609
10	0	0	0	0	508	604
11	0	0	0	0	508	609
12	0	0	0	0	508	609
13	0	0	0	0	508	610
14	0	0	0	0	508	614
15	0	0	0	0	508	609
0	0	0	0	0	507	609
1	0	0	0	0	507	609
2	0	0	0	0	507	603
3	0	0	0	0	505	608
4	0	0	0	0	505	609
5	0	0	0	0	504	608
6	0	0	0	0	504	612
7	0	0	0	0	504	609
8	0	0	0	0	503	609
9	0	0	0	0	503	609
10	0	0	0	0	503	604
11	0	0	0	0	503	609
12	0	0	0	0	503	609
13	0	0	0	0	503	609
14	0	0	0	0	503	614
15	0	0	0	0	503	609
0	0	0	0	0	502	609
1	0	0	0	0	501	609
2	0	0	0	0	502	605
3	0	0	0	0	502	610
4	0	0	0	0	502	610
5	0	0	0	0	502	609
6	0	0	0	0	502	614
7	0	0	0	0	502	610
8	0	0	0	0	501	610
9	0	0	0	0	500	610
10	0	0	0	0	499	605
11	0	0	0	0	499	610
12	0	0	0	0	499	610
13	0	0	0	0	499	610
14	0	0	0	0	499	614
15	0	0	0	0	499	610
0	0	0	0	0	500	610
1	0	0	0	0	500	609
2	0	0	0	0	501	604
3	0	0	0	0	501	609
4	0	0	0	0	500	609
5	0	0	0	0	501	609
6	0	0	0	0	501	614
7	0	0	0	0	501	609
8	0	0	0	0	501	609
9	0	0	0	0	500	608
10	0	0	0	0	500	604
11	0	0	0	0	499	610
12	0	0	0	0	499	609
13	0	0	0	0	498	609
14	0	0	0	0	498	614
15	0	0	0	0	498	610
0	0	0	0	0	498	610
1	0	0	0	0	499	610
2	0	0	0	0	498	605
3	0	0	0	0	498	610
4	0	0	0	0	498	610
5	0	0	0	0	498	610
6	0	0	0	0	499	614
7	0	0	0	0	500	609
8	0	0	0	0	500	609
9	0	0	0	0	500	609
10	0	0	0	0	501	604
11	0	0	0	0	500	609
12	0	0	0	0	500	609
13	0	0	0	0	500	610
14	0	0	0	0	500	614
15	0	0	0	0	501	609
0	0	0	0	0	500	609
1	0	0	0	0	501	609
2	0	0	0	0	501	604
3	0	0	0	0	502	610
4	0	0	0	0	502	609
5	0	0	0	0	503	609
6	0	0	0	0	502	613
7	0	0	0	0	503	609
8	0	0	0	0	503	609
9	0	0	0	0	503	609
10	0	0	0	0	503	604
11	0	0	0	0	503	610
12	0	0	0	0	504	609
13	0	0	0	0	505	610
14	0	0	0	0	505	614
15	0	0	0	0	505	609
0	0	0	0	0	506	610
1	0	0	0	0	507	609
2	0	0	0	0	508	605
3	0	0	0	0	508	609
4	0	0	0	0	508	609
5	0	0	0	0	510	609
6	0	0	0	0	510	615
7	0	0	0	0	510	610
8	0	0	0	0	511	610
9	0	0	0	0	511	610
10	0	0	0	0	511	605
11	0	0	0	0	511	610
12	0	0	0	0	511	610
13	0	0	0	0	511	610
14	0	0	0	0	511	614
15	0	0	0	0	511	610
0	0	0	0	0	511	609
1	0	0	0	0	511	610
2	0	0	0	0	511	604
3	0	0	0	0	511	610
4	0	0	0	0	511	610
5	0	0	0	0	510	609
6	0	0	0	0	510	614
7	0	0	0	0	510	610
8	0	0	0	0	510	610
9	0	0	0	0	510	610
10	0	0	0	0	510	605
11	0	0	0	0	510	610
12	0	0	0	0	510	610
13	0	0	0	0	510	610
14	0	0	0	0	510	614
15	0	0	0	0	510	610
0	0	0	0	0	510	610
1	0	0	0	0	510	609
2	0	0	0	0	510	604
3	0	0	0	0	510	610
4	0	0	0	0	510	610
5	0	0	0	0	510	610
6	0	0	0	0	510	614
7	0	0	0	0	510	609
8	0	0	0	0	510	609
9	0	0	0	0	510	609
10	0	0	0	0	510	604
11	0	0	0	0	510	609
12	0	0	0	0	510	608
13	0	0	0	0	511	609
14	0	0	0	0	510	613
15	0	0	0	0	510	609
0	0	0	0	0	510	608
1	0	0	0	0	509	608
2	0	0	0	0	509	603
3	0	0	0	0	509	608
4	0	0	0	0	508	609
5	0	0	0	0	507	609
6	0	0	0	0	506	612
7	0	0	0	0	504	608
8	0	0	0	0	504	608
9	0	0	0	0	503	608
10	0	0	0	0	501	604
11	0	0	0	0	501	608
12	0	0	0	0	500	608
13	0	0	0	0	499	609
14	0	0	0	0	498	613
15	0	0	0	0	496	609
0	0	0	0	0	495	609
1	0	0	0	0	492	609
2	0	0	0	0	487	604
3	0	0	0	0	483	609
4	0	0	0	0	478	609
5	0	0	0	0	474	609
6	0	0	0	0	467	613
7	0	0	0	0	459	609
8	0	0	0	0	451	609
9	0	0	0	0	442	610
10	0	0	0	0	434	604
11	0	0	0	0	428	609
12	0	0	0	0	424	609
13	0	0	0	0	421	609
14	0	0	0	0	418	613
15	0	0	0	0	414	609
0	0	0	0	0	412	609
1	0	0	0	0	410	609
2	0	0	0	0	412	604
3	0	0	0	0	417	609
4	0	0	0	0	425	609
5	0	0	0	0	438	609
6	0	0	0	0	455	613
7	0	0	0	0	479	609
8	0	0	0	0	506	608
9	0	0	0	0	537	609
10	0	0	0	0	569	604
11	0	0	0	0	597	609
12	0	0	0	0	620	609
13	0	0	0	0	639	609
14	0	0	0	0	659	614
15	0	0	0	0	681	610
0	0	0	0	0	704	609
1	0	0	0	0	726	609
2	0	0	0	0	746	604
3	0	0	0	0	765	610
4	0	0	0	0	782	610
5	0	0	0	0	795	610
6	0	0	0	0	805	614
7	0	0	0	0	809	610
8	0	0	0	0	805	610
9	0	0	0	0	795	610
10	0	0	0	0	778	605
11	0	0	0	0	759	610
12	0	0	0	0	737	610
13	0	0	0	0	715	610
14	0	0	0	0	692	614
15	0	0	0	0	672	609
0	0	0	0	0	656	610
1	0	0	0	0	642	609
2	0	0	0	0	632	605
3	0	0	0	0	625	610
4	0	0	0	0	617	610
5	0	0	0	0	608	610
6	0	0	0	0	599	614
7	0	0	0	0	591	609
8	0	0	0	0	581	609
9	0	0	0	0	572	609
10	0	0	0	0	563	604
11	0	0	0	0	555	609
12	0	0	0	0	545	610
13	0	0	0	0	537	609
14	0	0	0	0	528	614
15	0	0	0	0	521	609
0	0	0	0	0	513	610
1	0	0	0	0	507	610
2	0	0	0	0	500	604
3	0	0	0	0	495	610
4	0	0	0	0	489	609
5	0	0	0	0	483	610
6	0	0	0	0	478	614
7	0	0	0	0	473	610
8	0	0	0	0	468	610
9	0	0	0	0	463	609
10	0	0	0	0	461	605
11	0	0	0	0	458	610
12	0	0	0	0	455	610
13	0	0	0	0	452	610
14	0	0	0	0	450	614
15	0	0	0	0	448	610
0	0	0	0	0	446	611
1	0	0	0	0	445	610
2	0	0	0	0	444	606
3	0	0	0	0	444	610
4	0	0	0	0	443	611
5	0	0	0	0	442	611
6	0	0	0	0	442	615
7	0	0	0	0	442	610
8	0	0	0	0	441	611
9	0	0	0	0	441	610
10	0	0	0	0	441	604
11	0	0	0	0	441	609
12	0	0	0	0	441	610
13	0	0	0	0	441	609
14	0	0	0	0	441	614
15	0	0	0	0	441	609
0	0	0	0	0	442	609
1	0	0	0	0	443	610
2	0	0	0	0	444	604
3	0	0	0	0	444	610
4	0	0	0	0	445	609
5	0	0	0	0	446	609
6	0	0	0	0	448	614
7	0	0	0	0	450	609
8	0	0	0	0	450	609
9	0	0	0	0	451	610
10	0	0	0	0	452	605
11	0	0	0	0	452	609
12	0	0	0	0	452	609
13	0	0	0	0	452	610
14	0	0	0	0	452	614
15	0	0	0	0	454	609
0	0	0	0	0	454	609
1	0	0	0	0	455	609
2	0	0	0	0	455	603
3	0	0	0	0	455	608
4	0	0	0	0	456	609
5	0	0	0	0	457	609
6	0	0	0	0	457	614
7	0	0	0	0	457	608
8	0	0	0	0	457	609
9	0	0	0	0	457	608
10	0	0	0	0	457	603
11	0	0	0	0	458	608
12	0	0	0	0	458	608
13	0	0	0	0	458	609
14	0	0	0	0	459	613
15	0	0	0	0	459	609
0	0	0	0	0	460	609
1	0	0	0	0	459	609
2	0	0	0	0	459	604
3	0	0	0	0	460	609
4	0	0	0	0	462	610
5	0	0	0	0	462	610
6	0	0	0	0	462	614
7	0	0	0	0	463	610
8	0	0	0	0	463	610
9	0	0	0	0	463	610
10	0	0	0	0	464	606
11	0	0	0	0	465	610
12	0	0	0	0	465	610
13	0	0	0	0	466	610
14	0	0	0	0	467	614
15	0	0	0	0	467	609
0	0	0	0	0	468	609
1	0	0	0	0	469	610
2	0	0	0	0	469	604
3	0	0	0	0	469	610
4	0	0	0	0	469	610
5	0	0	0	0	470	611
6	0	0	0	0	469	615
7	0	0	0	0	470	610
8	0	0	0	0	469	611
9	0	0	0	0	469	610
10	0	0	0	0	470	605
11	0	0	0	0	470	611
12	0	0	0	0	470	610
13	0	0	0	0	469	610
14	0	0	0	0	470	614
15	0	0	0	0	470	610
0	0	0	0	0	470	610
1	0	0	0	0	470	611
2	0	0	0	0	470	605
3	0	0	0	0	470	610
4	0	0	0	0	470	610
5	0	0	0	0	470	610
6	0	0	0	0	471	614
7	0	0	0	0	472	610
8	0	0	0	0	472	610
9	0	0	0	0	472	609
10	0	0	0	0	472	604
11	0	0	0	0	472	609
12	0	0	0	0	473	609
13	0	0	0	0	473	609
14	0	0	0	0	474	613
15	0	0	0	0	474	609
0	0	0	0	0	475	609
1	0	0	0	0	475	608
2	0	0	0	0	476	603
3	0	0	0	0	478	609
4	0	0	0	0	478	608
5	0	0	0	0	478	609
6	0	0	0	0	479	613
7	0	0	0	0	480	608
8	0	0	0	0	480	608
9	0	0	0	0	480	608
10	0	0	0	0	481	603
11	0	0	0	0	481	608
12	0	0	0	0	481	608
13	0	0	0	0	481	608
14	0	0	0	0	482	612
15	0	0	0	0	482	608
0	0	0	0	0	482	608
1	0	0	0	0	483	608
2	0	0	0	0	484	604
3	0	0	0	0	484	608
4	0	0	0	0	483	608
5	0	0	0	0	484	608
6	0	0	0	0	485	613
7	0	0	0	0	485	609
8	0	0	0	0	485	608
9	0	0	0	0	486	609
10	0	0	0	0	485	604
11	0	0	0	0	486	609
12	0	0	0	0	486	609
13	0	0	0	0	487	609
14	0	0	0	0	487	614
15	0	0	0	0	487	609
0	0	0	0	0	488	610
1	0	0	0	0	488	610
2	0	0	0	0	489	604
3	0	0	0	0	489	610
4	0	0	0	0	489	611
5	0	0	0	0	490	610
6	0	0	0	0	491	614
7	0	0	0	0	492	611
8	0	0	0	0	493	610
9	0	0	0	0	494	610
10	0	0	0	0	494	605
11	0	0	0	0	495	610
12	0	0	0	0	495	611
13	0	0	0	0	496	611
14	0	0	0	0	496	615
15	0	0	0	0	496	611
0	0	0	0	0	496	611
1	0	0	0	0	496	611
2	0	0	0	0	497	607
3	0	0	0	0	497	612
4	0	0	0	0	498	612
5	0	0	0	0	498	611
6	0	0	0	0	499	615
7	0	0	0	0	499	611
8	0	0	0	0	499	612
9	0	0	0	0	500	611
10	0	0	0	0	500	606
11	0	0	0	0	501	611
12	0	0	0	0	501	612
13	0	0	0	0	502	611
14	0	0	0	0	503	615
15	0	0	0	0	503	611
0	0	0	0	0	503	610
1	0	0	0	0	503	610
2	0	0	0	0	504	605
3	0	0	0	0	504	610
4	0	0	0	0	504	610
5	0	0	0	0	504	610
6	0	0	0	0	504	614
7	0	0	0	0	505	609
8	0	0	0	0	505	609
9	0	0	0	0	506	609
10	0	0	0	0	506	604
11	0	0	0	0	506	610
12	0	0	0	0	507	610
13	0	0	0	0	507	610
14	0	0	0	0	507	613
15	0	0	0	0	508	609
0	0	0	0	0	507	609
1	0	0	0	0	507	608
2	0	0	0	0	507	604
3	0	0	0	0	507	609
4	0	0	0	0	507	609
5	0	0	0	0	507	609
6	0	0	0	0	508	613
7	0	0	0	0	508	609
8	0	0	0	0	508	608
9	0	0	0	0	509	608
10	0	0	0	0	510	603
11	0	0	0	0	511	609
12	0	0	0	0	511	609
13	0	0	0	0	511	609
14	0	0	0	0	512	613
15	0	0	0	0	512	608
0	0	0	0	0	512	609
1	0	0	0	0	512	609
2	0	0	0	0	513	604
3	0	0	0	0	513	609
4	0	0	0	0	514	609
5	0	0	0	0	513	609
6	0	0	0	0	514	614
7	0	0	0	0	514	609
8	0	0	0	0	514	609
9	0	0	0	0	514	609
10	0	0	0	0	514	604
11	0	0	0	0	514	609
12	0	0	0	0	514	609
13	0	0	0	0	515	609
14	0	0	0	0	515	614
15	0	0	0	0	515	609
0	0	0	0	0	515	610
1	0	0	0	0	515	610
2	0	0	0	0	515	605
3	0	0	0	0	515	610
4	0	0	0	0	515	610
5	0	0	0	0	515	610
6	0	0	0	0	514	614
7	0	0	0	0	515	609
8	0	0	0	0	515	609
9	0	0	0	0	515	609
10	0	0	0	0	516	604
11	0	0	0	0	516	609
12	0	0	0	0	516	609
13	0	0	0	0	516	609
14	0	0	0	0	515	614
15	0	0	0	0	516	609
0	0	0	0	0	515	609
1	0	0	0	0	516	609
2	0	0	0	0	515	604
3	0	0	0	0	516	609
4	0	0	0	0	516	609
5	0	0	0	0	516	609
6	0	0	0	0	516	614
7	0	0	0	0	515	609
8	0	0	0	0	515	610
9	0	0	0	0	515	609
10	0	0	0	0	515	604
11	0	0	0	0	515	609
12	0	0	0	0	514	609
13	0	0	0	0	513	609
14	0	0	0	0	513	613
15	0	0	0	0	513	609
0	0	0	0	0	513	609
1	0	0	0	0	512	608
2	0	0	0	0	513	604
3	0	0	0	0	513	608
4	0	0	0	0	513	608
5	0	0	0	0	514	609
6	0	0	0	0	514	613
7	0	0	0	0	513	609
8	0	0	0	0	513	608
9	0	0	0	0	513	609
10	0	0	0	0	513	604
11	0	0	0	0	512	609
12	0	0	0	0	513	609
13	0	0	0	0	513	609
14	0	0	0	0	512	614
15	0	0	0	0	512	609
0	0	0	0	0	512	609
1	0	0	0	0	512	609
2	0	0	0	0	512	604
3	0	0	0	0	512	609
4	0	0	0	0	512	609
5	0	0	0	0	512	610
6	0	0	0	0	512	614
7	0	0	0	0	512	610
8	0	0	0	0	512	609
9	0	0	0	0	512	609
10	0	0	0	0	512	605
11	0	0	0	0	511	609
12	0	0	0	0	512	610
13	0	0	0	0	512	610
14	0	0	0	0	512	614
15	0	0	0	0	512	609
0	0	0	0	0	511	609
1	0	0	0	0	511	609
2	0	0	0	0	510	604
3	0	0	0	0	510	610
4	0	0	0	0	510	609
5	0	0	0	0	509	610
6	0	0	0	0	509	613
7	0	0	0	0	509	610
8	0	0	0	0	508	609
9	0	0	0	0	508	609
10	0	0	0	0	508	604
11	0	0	0	0	508	610
12	0	0	0	0	508	609
13	0	0	0	0	508	610
14	0	0	0	0	508	614
15	0	0	0	0	508	610
0	0	0	0	0	508	609
1	0	0	0	0	509	609
2	0	0	0	0	509	604
3	0	0	0	0	510	610
4	0	0	0	0	510	609
5	0	0	0	0	510	610
6	0	0	0	0	510	614
7	0	0	0	0	511	610
8	0	0	0	0	511	609
9	0	0	0	0	510	609
10	0	0	0	0	511	604
11	0	0	0	0	510	609
12	0	0	0	0	510	609
13	0	0	0	0	510	609
14	0	0	0	0	511	614
15	0	0	0	0	511	610
0	0	0	0	0	510	610
1	0	0	0	0	510	610
2	0	0	0	0	510	605
3	0	0	0	0	511	610
4	0	0	0	0	511	610
5	0	0	0	0	511	611
6	0	0	0	0	511	615
7	0	0	0	0	511	610
8	0	0	0	0	511	609
9	0	0	0	0	511	609
10	0	0	0	0	511	604
11	0	0	0	0	511	609
12	0	0	0	0	511	610
13	0	0	0	0	511	610
14	0	0	0	0	511	614
15	0	0	0	0	512	610
0	0	0	0	0	511	610
1	0	0	0	0	511	610
2	0	0	0	0	511	605
3	0	0	0	0	511	610
4	0	0	0	0	511	610
5	0	0	0	0	512	610
6	0	0	0	0	512	614
7	0	0	0	0	513	609
8	0	0	0	0	513	609
9	0	0	0	0	514	609
10	0	0	0	0	513	603
11	0	0	0	0	513	609
12	0	0	0	0	513	609
13	0	0	0	0	513	609
14	0	0	0	0	513	613
15	0	0	0	0	513	609
0	0	0	0	0	513	609
1	0	0	0	0	514	609
2	0	0	0	0	514	604
3	0	0	0	0	515	609
4	0	0	0	0	515	609
5	0	0	0	0	515	609
6	0	0	0	0	515	613
7	0	0	0	0	516	609
8	0	0	0	0	516	609
9	0	0	0	0	517	609
10	0	0	0	0	517	604
11	0	0	0	0	516	609
12	0	0	0	0	517	609
13	0	0	0	0	517	609
14	0	0	0	0	517	613
15	0	0	0	0	517	609
0	0	0	0	0	518	609
1	0	0	0	0	518	608
2	0	0	0	0	517	604
3	0	0	0	0	517	609
4	0	0	0	0	518	609
5	0	0	0	0	518	609
6	0	0	0	0	518	613
7	0	0	0	0	519	610
8	0	0	0	0	519	610
9	0	0	0	0	519	609
10	0	0	0	0	518	605
11	0	0	0	0	518	610
12	0	0	0	0	518	610
13	0	0	0	0	518	610
14	0	0	0	0	518	614
15	0	0	0	0	518	610
0	0	0	0	0	518	610
1	0	0	0	0	518	610
2	0	0	0	0	518	605
3	0	0	0	0	518	609
4	0	0	0	0	518	610
5	0	0	0	0	519	610
6	0	0	0	0	519	614
7	0	0	0	0	519	609
8	0	0	0	0	519	610
9	0	0	0	0	519	609
10	0	0	0	0	519	604
11	0	0	0	0	519	611
12	0	0	0	0	519	610
13	0	0	0	0	519	610
14	0	0	0	0	519	614
15	0	0	0	0	520	610
0	0	0	0	0	520	610
1	0	0	0	0	521	610
2	0	0	0	0	521	605
3	0	0	0	0	521	610
4	0	0	0	0	521	609
5	0	0	0	0	521	610
6	0	0	0	0	521	614
7	0	0	0	0	521	609
8	0	0	0	0	520	609
9	0	0	0	0	520	609
10	0	0	0	0	520	604
11	0	0	0	0	520	609
12	0	0	0	0	520	610
13	0	0	0	0	520	609
14	0	0	0	0	519	614
15	0	0	0	0	519	610
0	0	0	0	0	520	610
1	0	0	0	0	520	610
2	0	0	0	0	519	604
3	0	0	0	0	519	609
4	0	0	0	0	519	609
5	0	0	0	0	519	610
6	0	0	0	0	519	614
7	0	0	0	0	519	610
8	0	0	0	0	519	609
9	0	0	0	0	519	609
10	0	0	0	0	518	604
11	0	0	0	0	517	610
12	0	0	0	0	517	609
13	0	0	0	0	517	610
14	0	0	0	0	517	614
15	0	0	0	0	517	609
0	0	0	0	0	517	609
1	0	0	0	0	518	609
2	0	0	0	0	517	604
3	0	0	0	0	516	609
4	0	0	0	0	516	609
5	0	0	0	0	517	609
6	0	0	0	0	518	614
7	0	0	0	0	518	609
8	0	0	0	0	518	609
9	0	0	0	0	518	609
10	0	0	0	0	518	604
11	0	0	0	0	518	609
12	0	0	0	0	519	609
13	0	0	0	0	519	609
14	0	0	0	0	519	614
15	0	0	0	0	518	609
0	0	0	0	0	518	609
1	0	0	0	0	518	609
2	0	0	0	0	518	604
3	0	0	0	0	519	610
4	0	0	0	0	519	609
5	0	0	0	0	519	609
6	0	0	0	0	519	614
7	0	0	0	0	519	609
8	0	0	0	0	519	609
9	0	0	0	0	519	610
10	0	0	0	0	518	604
11	0	0	0	0	518	609
12	0	0	0	0	518	610
13	0	0	0	0	519	610
14	0	0	0	0	519	614
15	0	0	0	0	519	610
0	0	0	0	0	519	610
1	0	0	0	0	519	609
2	0	0	0	0	519	604
3	0	0	0	0	520	609
4	0	0	0	0	520	609
5	0	0	0	0	521	610
6	0	0	0	0	520	614
7	0	0	0	0	521	609
8	0	0	0	0	520	610
9	0	0	0	0	520	609
10	0	0	0	0	520	604
11	0	0	0	0	519	609
12	0	0	0	0	519	609
13	0	0	0	0	518	609
14	0	0	0	0	518	614
15	0	0	0	0	518	609
0	0	0	0	0	518	609
1	0	0	0	0	518	609
2	0	0	0	0	517	604
3	0	0	0	0	517	609
4	0	0	0	0	518	609
5	0	0	0	0	518	609
6	0	0	0	0	517	614
7	0	0	0	0	517	610
8	0	0	0	0	517	610
9	0	0	0	0	518	609
10	0	0	0	0	517	604
11	0	0	0	0	517	609
12	0	0	0	0	517	609
13	0	0	0	0	516	609
14	0	0	0	0	517	613
15	0	0	0	0	517	609
0	0	0	0	0	517	609
1	0	0	0	0	517	609
2	0	0	0	0	517	604
3	0	0	0	0	518	609
4	0	0	0	0	517	609
5	0	0	0	0	518	609
6	0	0	0	0	517	613
7	0	0	0	0	517	609
8	0	0	0	0	517	610
9	0	0	0	0	516	609
10	0	0	0	0	516	604
11	0	0	0	0	516	609
12	0	0	0	0	516	609
13	0	0	0	0	516	609
14	0	0	0	0	516	613
15	0	0	0	0	516	608
0	0	0	0	0	516	608
1	0	0	0	0	516	608
2	0	0	0	0	515	603
3	0	0	0	0	515	608
4	0	0	0	0	515	608
5	0	0	0	0	515	608
6	0	0	0	0	514	612
7	0	0	0	0	515	608
8	0	0	0	0	514	608
9	0	0	0	0	514	608
10	0	0	0	0	514	603
11	0	0	0	0	514	609
12	0	0	0	0	514	609
13	0	0	0	0	513	609
14	0	0	0	0	513	613
15	0	0	0	0	512	610
0	0	0	0	0	512	610
1	0	0	0	0	512	610
2	0	0	0	0	512	605
3	0	0	0	0	512	611
4	0	0	0	0	512	611
5	0	0	0	0	511	611
6	0	0	0	0	511	615
7	0	0	0	0	511	611
8	0	0	0	0	511	611
9	0	0	0	0	510	611
10	0	0	0	0	510	606
11	0	0	0	0	510	611
12	0	0	0	0	509	611
13	0	0	0	0	509	612
14	0	0	0	0	509	615
15	0	0	0	0	509	611
0	0	0	0	0	508	611
1	0	0	0	0	508	610
2	0	0	0	0	507	605
3	0	0	0	0	507	610
4	0	0	0	0	506	609
5	0	0	0	0	506	609
6	0	0	0	0	506	613
7	0	0	0	0	506	608
8	0	0	0	0	506	608
9	0	0	0	0	505	608
10	0	0	0	0	504	603
11	0	0	0	0	504	607
12	0	0	0	0	504	608
13	0	0	0	0	504	608
14	0	0	0	0	504	611
15	0	0	0	0	504	607
0	0	0	0	0	504	606
1	0	0	0	0	504	607
2	0	0	0	0	505	601
3	0	0	0	0	505	607
4	0	0	0	0	505	607
5	0	0	0	0	505	607
6	0	0	0	0	505	611
7	0	0	0	0	505	607
8	0	0	0	0	505	607
9	0	0	0	0	504	608
10	0	0	0	0	504	603
11	0	0	0	0	504	608
12	0	0	0	0	504	608
13	0	0	0	0	504	609
14	0	0	0	0	504	613
15	0	0	0	0	504	609
0	0	0	0	0	504	609
1	0	0	0	0	504	609
2	0	0	0	0	505	605
3	0	0	0	0	505	611
4	0	0	0	0	505	611
5	0	0	0	0	505	611
6	0	0	0	0	506	615
7	0	0	0	0	507	611
8	0	0	0	0	506	612
9	0	0	0	0	506	612
10	0	0	0	0	506	606
11	0	0	0	0	506	612
12	0	0	0	0	507	611
13	0	0	0	0	506	611
14	0	0	0	0	506	615
15	0	0	0	0	505	612
0	0	0	0	0	505	611
1	0	0	0	0	506	611
2	0	0	0	0	505	606
3	0	0	0	0	505	611
4	0	0	0	0	505	611
5	0	0	0	0	506	611
6	0	0	0	0	505	615
7	0	0	0	0	504	610
8	0	0	0	0	504	610
9	0	0	0	0	504	610
10	0	0	0	0	505	605
11	0	0	0	0	504	610
12	0	0	0	0	505	610
13	0	0	0	0	505	609
14	0	0	0	0	505	613
15	0	0	0	0	505	609
0	0	0	0	0	506	609
1	0	0	0	0	507	609
2	0	0	0	0	507	604
3	0	0	0	0	508	609
4	0	0	0	0	508	609
5	0	0	0	0	508	610
6	0	0	0	0	507	614
7	0	0	0	0	507	610
8	0	0	0	0	507	610
9	0	0	0	0	507	610
10	0	0	0	0	506	604
11	0	0	0	0	506	610
12	0	0	0	0	507	610
13	0	0	0	0	508	610
14	0	0	0	0	507	615
15	0	0	0	0	507	610
0	0	0	0	0	507	610
1	0	0	0	0	507	610
2	0	0	0	0	506	605
3	0	0	0	0	506	610
4	0	0	0	0	507	610
5	0	0	0	0	506	611
6	0	0	0	0	506	614
7	0	0	0	0	506	610
8	0	0	0	0	507	610
9	0	0	0	0	507	609
10	0	0	0	0	508	605
11	0	0	0	0	508	610
12	0	0	0	0	508	609
13	0	0	0	0	508	610
14	0	0	0	0	507	614
15	0	0	0	0	508	609
0	0	0	0	0	508	609
1	0	0	0	0	508	609
2	0	0	0	0	508	604
3	0	0	0	0	507	609
4	0	0	0	0	506	609
5	0	0	0	0	505	610
6	0	0	0	0	505	614
7	0	0	0	0	505	609
8	0	0	0	0	505	609
9	0	0	0	0	505	609
10	0	0	0	0	504	604
11	0	0	0	0	504	609
12	0	0	0	0	503	610
13	0	0	0	0	502	610
14	0	0	0	0	502	615
15	0	0	0	0	502	610
0	0	0	0	0	501	610
1	0	0	0	0	500	610
2	0	0	0	0	500	604
3	0	0	0	0	500	610
4	0	0	0	0	499	610
5	0	0	0	0	499	609
6	0	0	0	0	499	613
7	0	0	0	0	498	609
8	0	0	0	0	498	609
9	0	0	0	0	498	609
10	0	0	0	0	497	603
11	0	0	0	0	497	609
12	0	0	0	0	496	608
13	0	0	0	0	496	608
14	0	0	0	0	496	612
15	0	0	0	0	496	608
0	0	0	0	0	497	608
1	0	0	0	0	497	608
2	0	0	0	0	497	602
3	0	0	0	0	497	608
4	0	0	0	0	497	608
5	0	0	0	0	497	608
6	0	0	0	0	497	612
7	0	0	0	0	498	608
8	0	0	0	0	497	608
9	0	0	0	0	498	608
10	0	0	0	0	498	604
11	0	0	0	0	497	609
12	0	0	0	0	498	609
13	0	0	0	0	498	609
14	0	0	0	0	499	614
15	0	0	0	0	499	610
0	0	0	0	0	499	609
1	0	0	0	0	499	610
2	0	0	0	0	499	604
3	0	0	0	0	500	610
4	0	0	0	0	500	611
5	0	0	0	0	500	611
6	0	0	0	0	500	615
7	0	0	0	0	499	611
8	0	0	0	0	499	610
9	0	0	0	0	499	610
10	0	0	0	0	499	605
11	0	0	0	0	499	611
12	0	0	0	0	498	610
13	0	0	0	0	497	611
14	0	0	0	0	496	615
15	0	0	0	0	496	610
0	0	0	0	0	497	610
1	0	0	0	0	497	610
2	0	0	0	0	497	605
3	0	0	0	0	498	610
4	0	0	0	0	498	610
5	0	0	0	0	497	611
6	0	0	0	0	497	615
7	0	0	0	0	498	611
8	0	0	0	0	499	611
9	0	0	0	0	499	611
10	0	0	0	0	499	606
11	0	0	0	0	499	611
12	0	0	0	0	499	611
13	0	0	0	0	499	611
14	0	0	0	0	499	615
15	0	0	0	0	499	611
0	0	0	0	0	500	611
1	0	0	0	0	501	611
2	0	0	0	0	502	606
3	0	0	0	0	502	611
4	0	0	0	0	503	611
5	0	0	0	0	502	611
6	0	0	0	0	503	615
7	0	0	0	0	503	611
8	0	0	0	0	503	611
9	0	0	0	0	503	611
10	0	0	0	0	504	606
11	0	0	0	0	504	611
12	0	0	0	0	505	610
13	0	0	0	0	505	611
14	0	0	0	0	506	614
15	0	0	0	0	507	610
0	0	0	0	0	508	610
1	0	0	0	0	508	609
2	0	0	0	0	509	604
3	0	0	0	0	510	609
4	0	0	0	0	511	609
5	0	0	0	0	511	609
6	0	0	0	0	511	613
7	0	0	0	0	511	610
8	0	0	0	0	511	609
9	0	0	0	0	511	609
10	0	0	0	0	511	604
11	0	0	0	0	511	609
12	0	0	0	0	510	609
13	0	0	0	0	509	609
14	0	0	0	0	509	613
15	0	0	0	0	509	609
0	0	0	0	0	509	610
1	0	0	0	0	509	609
2	0	0	0	0	509	604
3	0	0	0	0	509	609
4	0	0	0	0	509	609
5	0	0	0	0	509	609
6	0	0	0	0	508	614
7	0	0	0	0	508	609
8	0	0	0	0	508	608
9	0	0	0	0	508	609
10	0	0	0	0	508	604
11	0	0	0	0	508	609
12	0	0	0	0	507	608
13	0	0	0	0	508	608
14	0	0	0	0	507	612
15	0	0	0	0	507	609
0	0	0	0	0	506	608
1	0	0	0	0	506	609
2	0	0	0	0	506	603
3	0	0	0	0	505	609
4	0	0	0	0	505	608
5	0	0	0	0	504	609
6	0	0	0	0	505	613
7	0	0	0	0	505	608
8	0	0	0	0	505	608
9	0	0	0	0	505	608
10	0	0	0	0	505	604
11	0	0	0	0	506	609
12	0	0	0	0	506	608
13	0	0	0	0	505	609
14	0	0	0	0	505	613
15	0	0	0	0	505	608
0	0	0	0	0	504	608
1	0	0	0	0	504	608
2	0	0	0	0	504	602
3	0	0	0	0	502	608
4	0	0	0	0	501	608
5	0	0	0	0	500	608
6	0	0	0	0	498	611
7	0	0	0	0	497	608
8	0	0	0	0	496	607
9	0	0	0	0	496	608
10	0	0	0	0	495	602
11	0	0	0	0	494	608
12	0	0	0	0	493	608
13	0	0	0	0	491	608
14	0	0	0	0	489	612
15	0	0	0	0	487	607
0	0	0	0	0	483	608
1	0	0	0	0	479	608
2	0	0	0	0	474	603
3	0	0	0	0	468	609
4	0	0	0	0	462	609
5	0	0	0	0	454	609
6	0	0	0	0	446	613
7	0	0	0	0	436	609
8	0	0	0	0	428	609
9	0	0	0	0	421	609
10	0	0	0	0	415	604
11	0	0	0	0	412	610
12	0	0	0	0	408	610
13	0	0	0	0	404	611
14	0	0	0	0	401	615
15	0	0	0	0	398	611
0	0	0	0	0	398	611
1	0	0	0	0	403	611
2	0	0	0	0	410	606
3	0	0	0	0	421	611
4	0	0	0	0	436	611
5	0	0	0	0	459	611
6	0	0	0	0	487	615
7	0	0	0	0	519	611
8	0	0	0	0	553	611
9	0	0	0	0	585	611
10	0	0	0	0	614	606
11	0	0	0	0	637	610
12	0	0	0	0	657	609
13	0	0	0	0	679	608
14	0	0	0	0	704	611
15	0	0	0	0	728	606
0	0	0	0	0	753	604
1	0	0	0	0	776	603
2	0	0	0	0	796	597
3	0	0	0	0	813	601
4	0	0	0	0	825	602
5	0	0	0	0	835	603
6	0	0	0	0	835	607
7	0	0	0	0	832	604
8	0	0	0	0	820	605
9	0	0	0	0	802	606
10	0	0	0	0	780	602
11	0	0	0	0	757	609
12	0	0	0	0	733	610
13	0	0	0	0	708	611
14	0	0	0	0	685	617
15	0	0	0	0	666	614
0	0	0	0	0	649	615
1	0	0	0	0	636	616
2	0	0	0	0	624	611
3	0	0	0	0	612	617
4	0	0	0	0	601	617
5	0	0	0	0	589	617
6	0	0	0	0	579	621
7	0	0	0	0	568	616
8	0	0	0	0	557	615
9	0	0	0	0	547	615
10	0	0	0	0	537	609
11	0	0	0	0	528	614
12	0	0	0	0	518	614
13	0	0	0	0	510	614
14	0	0	0	0	501	617
15	0	0	0	0	494	612
0	0	0	0	0	487	612
1	0	0	0	0	480	611
2	0	0	0	0	473	606
3	0	0	0	0	467	611
4	0	0	0	0	462	610
5	0	0	0	0	456	610
6	0	0	0	0	451	614
7	0	0	0	0	447	610
8	0	0	0	0	444	610
9	0	0	0	0	441	610
10	0	0	0	0	438	605
11	0	0	0	0	435	610
12	0	0	0	0	434	610
13	0	0	0	0	432	610
14	0	0	0	0	431	613
15	0	0	0	0	431	609
0	0	0	0	0	430	609
1	0	0	0	0	430	609
2	0	0	0	0	430	604
3	0	0	0	0	429	608
4	0	0	0	0	429	608
5	0	0	0	0	430	609
6	0	0	0	0	430	612
7	0	0	0	0	430	608
8	0	0	0	0	431	607
9	0	0	0	0	432	606
10	0	0	0	0	433	601
11	0	0	0	0	433	606
12	0	0	0	0	433	606
13	0	0	0	0	433	606
14	0	0	0	0	434	610
15	0	0	0	0	435	606
0	0	0	0	0	436	606
1	0	0	0	0	436	605
2	0	0	0	0	436	600
3	0	0	0	0	437	606
4	0	0	0	0	438	606
5	0	0	0	0	438	607
6	0	0	0	0	439	610
7	0	0	0	0	439	607
8	0	0	0	0	440	607
9	0	0	0	0	440	607
10	0	0	0	0	441	603
11	0	0	0	0	441	608
12	0	0	0	0	442	608
13	0	0	0	0	442	609
14	0	0	0	0	443	613
15	0	0	0	0	444	609
0	0	0	0	0	446	610
1	0	0	0	0	447	610
2	0	0	0	0	448	606
3	0	0	0	0	448	611
4	0	0	0	0	449	611
5	0	0	0	0	450	612
6	0	0	0	0	451	616
7	0	0	0	0	451	612
8	0	0	0	0	452	612
9	0	0	0	0	452	612
10	0	0	0	0	454	607
11	0	0	0	0	454	613
12	0	0	0	0	455	613
13	0	0	0	0	456	613
14	0	0	0	0	456	617
15	0	0	0	0	457	613
0	0	0	0	0	458	612
1	0	0	0	0	458	613
2	0	0	0	0	458	608
3	0	0	0	0	459	612
4	0	0	0	0	459	612
5	0	0	0	0	459	612
6	0	0	0	0	460	616
7	0	0	0	0	460	611
8	0	0	0	0	460	611
9	0	0	0	0	461	611
10	0	0	0	0	461	606
11	0	0	0	0	462	611
12	0	0	0	0	462	611
13	0	0	0	0	463	611
14	0	0	0	0	463	615
15	0	0	0	0	464	611
0	0	0	0	0	464	611
1	0	0	0	0	463	610
2	0	0	0	0	464	606
3	0	0	0	0	465	610
4	0	0	0	0	466	610
5	0	0	0	0	467	611
6	0	0	0	0	467	615
7	0	0	0	0	468	611
8	0	0	0	0	468	611
9	0	0	0	0	468	611
10	0	0	0	0	470	606
11	0	0	0	0	470	611
12	0	0	0	0	471	611
13	0	0	0	0	471	611
14	0	0	0	0	471	615
15	0	0	0	0	472	610
0	0	0	0	0	472	609
1	0	0	0	0	472	609
2	0	0	0	0	472	603
3	0	0	0	0	472	608
4	0	0	0	0	473	608
5	0	0	0	0	474	608
6	0	0	0	0	475	611
7	0	0	0	0	476	608
8	0	0	0	0	475	607
9	0	0	0	0	476	608
10	0	0	0	0	476	603
11	0	0	0	0	477	608
12	0	0	0	0	477	608
13	0	0	0	0	477	608
14	0	0	0	0	477	613
15	0	0	0	0	477	608
0	0	0	0	0	477	608
1	0	0	0	0	477	609
2	0	0	0	0	477	604
3	0	0	0	0	477	610
4	0	0	0	0	478	610
5	0	0	0	0	478	610
6	0	0	0	0	478	615
7	0	0	0	0	479	611
8	0	0	0	0	479	611
9	0	0	0	0	479	611
10	0	0	0	0	479	606
11	0	0	0	0	480	611
12	0	0	0	0	480	611
13	0	0	0	0	480	611
14	0	0	0	0	480	615
15	0	0	0	0	481	611
0	0	0	0	0	480	611
1	0	0	0	0	480	610
2	0	0	0	0	480	605
3	0	0	0	0	481	610
4	0	0	0	0	482	610
5	0	0	0	0	483	610
6	0	0	0	0	483	614
7	0	0	0	0	483	609
8	0	0	0	0	483	609
9	0	0	0	0	484	609
10	0	0	0	0	485	603
11	0	0	0	0	486	609
12	0	0	0	0	487	608
13	0	0	0	0	487	609
14	0	0	0	0	488	612
15	0	0	0	0	489	609
0	0	0	0	0	489	608
1	0	0	0	0	489	608
2	0	0	0	0	490	603
3	0	0	0	0	490	608
4	0	0	0	0	491	608
5	0	0	0	0	492	608
6	0	0	0	0	493	613
7	0	0	0	0	493	608
8	0	0	0	0	494	608
9	0	0	0	0	494	608
10	0	0	0	0	494	602
11	0	0	0	0	495	608
12	0	0	0	0	496	608
13	0	0	0	0	496	608
14	0	0	0	0	497	612
15	0	0	0	0	497	608
0	0	0	0	0	498	608
1	0	0	0	0	498	608
2	0	0	0	0	499	603
3	0	0	0	0	499	608
4	0	0	0	0	500	609
5	0	0	0	0	500	609
6	0	0	0	0	501	612
7	0	0	0	0	501	608
8	0	0	0	0	502	609
9	0	0	0	0	502	609
10	0	0	0	0	502	604
11	0	0	0	0	502	609
12	0	0	0	0	503	609
13	0	0	0	0	504	610
14	0	0	0	0	504	614
15	0	0	0	0	505	610
0	0	0	0	0	505	610
1	0	0	0	0	505	610
2	0	0	0	0	507	605
3	0	0	0	0	506	611
4	0	0	0	0	507	611
5	0	0	0	0	507	610
6	0	0	0	0	508	615
7	0	0	0	0	508	611
8	0	0	0	0	508	611
9	0	0	0	0	508	611
10	0	0	0	0	509	606
11	0	0	0	0	509	611
12	0	0	0	0	509	611
13	0	0	0	0	508	611
14	0	0	0	0	508	615
15	0	0	0	0	509	610
0	0	0	0	0	510	611
1	0	0	0	0	510	611
2	0	0	0	0	510	605
3	0	0	0	0	510	610
4	0	0	0	0	511	611
5	0	0	0	0	510	611
6	0	0	0	0	510	615
7	0	0	0	0	510	610
8	0	0	0	0	511	610
9	0	0	0	0	511	610
10	0	0	0	0	511	605
11	0	0	0	0	511	609
12	0	0	0	0	511	609
13	0	0	0	0	511	609
14	0	0	0	0	512	613
15	0	0	0	0	513	608
0	0	0	0	0	513	608
1	0	0	0	0	514	608
2	0	0	0	0	514	603
3	0	0	0	0	515	608
4	0	0	0	0	515	608
5	0	0	0	0	515	608
6	0	0	0	0	516	611
7	0	0	0	0	517	607
8	0	0	0	0	518	607
9	0	0	0	0	517	607
10	0	0	0	0	518	602
11	0	0	0	0	518	607
12	0	0	0	0	518	607
13	0	0	0	0	518	607
14	0	0	0	0	518	611
15	0	0	0	0	518	607
0	0	0	0	0	518	607
1	0	0	0	0	518	607
2	0	0	0	0	519	601
3	0	0	0	0	519	607
4	0	0	0	0	519	607
5	0	0	0	0	520	607
6	0	0	0	0	521	611
7	0	0	0	0	521	607
8	0	0	0	0	522	607
9	0	0	0	0	522	607
10	0	0	0	0	522	602
11	0	0	0	0	522	607
12	0	0	0	0	522	608
13	0	0	0	0	523	608
14	0	0	0	0	523	611
15	0	0	0	0	524	607
0	0	0	0	0	524	607
1	0	0	0	0	524	608
2	0	0	0	0	524	603
3	0	0	0	0	524	609
4	0	0	0	0	525	608
5	0	0	0	0	526	609
6	0	0	0	0	527	613
7	0	0	0	0	527	609
8	0	0	0	0	527	609
9	0	0	0	0	527	609
10	0	0	0	0	527	604
11	0	0	0	0	527	609
12	0	0	0	0	527	609
13	0	0	0	0	527	610
14	0	0	0	0	528	614
15	0	0	0	0	528	609
0	0	0	0	0	527	609
1	0	0	0	0	527	609
2	0	0	0	0	527	605
3	0	0	0	0	527	610
4	0	0	0	0	527	609
5	0	0	0	0	527	610
6	0	0	0	0	527	614
7	0	0	0	0	528	610
8	0	0	0	0	528	609
9	0	0	0	0	528	610
10	0	0	0	0	529	605
11	0	0	0	0	529	610
12	0	0	0	0	529	609
13	0	0	0	0	529	611
14	0	0	0	0	530	614
15	0	0	0	0	530	610
0	0	0	0	0	530	610
1	0	0	0	0	530	609
2	0	0	0	0	529	604
3	0	0	0	0	529	609
4	0	0	0	0	529	610
5	0	0	0	0	530	610
6	0	0	0	0	530	614
7	0	0	0	0	530	609
8	0	0	0	0	530	610
9	0	0	0	0	530	609
10	0	0	0	0	530	604
11	0	0	0	0	530	609
12	0	0	0	0	529	609
13	0	0	0	0	531	609
14	0	0	0	0	531	613
15	0	0	0	0	531	609
0	0	0	0	0	530	609
1	0	0	0	0	530	608
2	0	0	0	0	530	605
3	0	0	0	0	530	609
4	0	0	0	0	531	609
5	0	0	0	0	531	610
6	0	0	0	0	531	614
7	0	0	0	0	531	609
8	0	0	0	0	531	609
9	0	0	0	0	531	609
10	0	0	0	0	531	605
11	0	0	0	0	531	610
12	0	0	0	0	529	610
13	0	0	0	0	528	610
14	0	0	0	0	528	614
15	0	0	0	0	528	609
0	0	0	0	0	529	610
1	0	0	0	0	528	609
2	0	0	0	0	528	604
3	0	0	0	0	528	610
4	0	0	0	0	528	610
5	0	0	0	0	527	610
6	0	0	0	0	526	614
7	0	0	0	0	526	610
8	0	0	0	0	526	610
9	0	0	0	0	526	610
10	0	0	0	0	526	605
11	0	0	0	0	525	610
12	0	0	0	0	525	610
13	0	0	0	0	524	610
14	0	0	0	0	524	614
15	0	0	0	0	523	609
0	0	0	0	0	523	610
1	0	0	0	0	522	610
2	0	0	0	0	521	605
3	0	0	0	0	521	610
4	0	0	0	0	520	609
5	0	0	0	0	519	610
6	0	0	0	0	519	613
7	0	0	0	0	519	610
8	0	0	0	0	519	610
9	0	0	0	0	519	610
10	0	0	0	0	519	605
11	0	0	0	0	519	610
12	0	0	0	0	519	610
13	0	0	0	0	518	610
14	0	0	0	0	518	614
15	0	0	0	0	519	610
0	0	0	0	0	518	609
1	0	0	0	0	518	610
2	0	0	0	0	519	605
3	0	0	0	0	518	611
4	0	0	0	0	518	609
5	0	0	0	0	518	610
6	0	0	0	0	518	614
7	0	0	0	0	518	610
8	0	0	0	0	518	610
9	0	0	0	0	518	611
10	0	0	0	0	518	605
11	0	0	0	0	518	610
12	0	0	0	0	518	610
13	0	0	0	0	518	609
14	0	0	0	0	518	614
15	0	0	0	0	518	609
0	0	0	0	0	518	609
1	0	0	0	0	519	609
2	0	0	0	0	519	604
3	0	0	0	0	518	610
4	0	0	0	0	518	609
5	0	0	0	0	518	609
6	0	0	0	0	517	614
7	0	0	0	0	517	609
8	0	0	0	0	517	609
9	0	0	0	0	517	609
10	0	0	0	0	517	604
11	0	0	0	0	517	609
12	0	0	0	0	516	609
13	0	0	0	0	517	611
14	0	0	0	0	518	614
15	0	0	0	0	518	609
0	0	0	0	0	518	610
1	0	0	0	0	518	610
2	0	0	0	0	518	605
3	0	0	0	0	518	610
4	0	0	0	0	518	610
5	0	0	0	0	518	611
6	0	0	0	0	518	615
7	0	0	0	0	519	610
8	0	0	0	0	518	610
9	0	0	0	0	518	610
10	0	0	0	0	519	605
11	0	0	0	0	519	609
12	0	0	0	0	519	610
13	0	0	0	0	519	610
14	0	0	0	0	518	615
15	0	0	0	0	519	610
0	0	0	0	0	519	610
1	0	0	0	0	518	610
2	0	0	0	0	519	605
3	0	0	0	0	519	610
4	0	0	0	0	519	610
5	0	0	0	0	519	610
6	0	0	0	0	519	614
7	0	0	0	0	519	609
8	0	0	0	0	519	610
9	0	0	0	0	519	610
10	0	0	0	0	519	604
11	0	0	0	0	520	610
12	0	0	0	0	520	610
13	0	0	0	0	520	610
14	0	0	0	0	519	614
15	0	0	0	0	520	610
0	0	0	0	0	520	610
1	0	0	0	0	520	609
2	0	0	0	0	520	605
3	0	0	0	0	520	610
4	0	0	0	0	520	610
5	0	0	0	0	520	610
6	0	0	0	0	521	614
7	0	0	0	0	522	609
8	0	0	0	0	523	609
9	0	0	0	0	523	609
10	0	0	0	0	524	604
11	0	0	0	0	524	610
12	0	0	0	0	524	610
13	0	0	0	0	525	610
14	0	0	0	0	524	614
15	0	0	0	0	525	610
0	0	0	0	0	524	610
1	0	0	0	0	524	610
2	0	0	0	0	524	605
3	0	0	0	0	524	610
4	0	0	0	0	525	610
5	0	0	0	0	525	610
6	0	0	0	0	525	615
7	0	0	0	0	525	610
8	0	0	0	0	525	609
9	0	0	0	0	524	609
10	0	0	0	0	524	605
11	0	0	0	0	524	610
12	0	0	0	0	524	610
13	0	0	0	0	524	609
14	0	0	0	0	525	614
15	0	0	0	0	525	609
0	0	0	0	0	525	609
1	0	0	0	0	526	609
2	0	0	0	0	526	604
3	0	0	0	0	526	609
4	0	0	0	0	526	610
5	0	0	0	0	526	610
6	0	0	0	0	526	614
7	0	0	0	0	526	610
8	0	0	0	0	527	610
9	0	0	0	0	526	610
10	0	0	0	0	526	605
11	0	0	0	0	525	610
12	0	0	0	0	524	609
13	0	0	0	0	524	610
14	0	0	0	0	525	614
15	0	0	0	0	526	609
0	0	0	0	0	526	609
1	0	0	0	0	526	609
2	0	0	0	0	527	605
3	0	0	0	0	526	609
4	0	0	0	0	526	609
5	0	0	0	0	527	610
6	0	0	0	0	526	614
7	0	0	0	0	527	609
8	0	0	0	0	526	608
9	0	0	0	0	526	608
10	0	0	0	0	525	604
11	0	0	0	0	525	609
12	0	0	0	0	525	608
13	0	0	0	0	524	609
14	0	0	0	0	524	613
15	0	0	0	0	525	609
0	0	0	0	0	525	609
1	0	0	0	0	524	609
2	0	0	0	0	524	604
3	0	0	0	0	524	609
4	0	0	0	0	524	609
5	0	0	0	0	524	609
6	0	0	0	0	524	614
7	0	0	0	0	524	609
8	0	0	0	0	524	610
9	0	0	0	0	523	609
10	0	0	0	0	523	604
11	0	0	0	0	523	609
12	0	0	0	0	523	609
13	0	0	0	0	523	609
14	0	0	0	0	523	614
15	0	0	0	0	522	609
0	0	0	0	0	522	609
1	0	0	0	0	521	609
2	0	0	0	0	521	604
3	0	0	0	0	521	610
4	0	0	0	0	520	609
5	0	0	0	0	521	610
6	0	0	0	0	520	613
7	0	0	0	0	520	609
8	0	0	0	0	519	609
9	0	0	0	0	520	609
10	0	0	0	0	519	604
11	0	0	0	0	519	609
12	0	0	0	0	519	609
13	0	0	0	0	519	609
14	0	0	0	0	519	613
15	0	0	0	0	519	609
0	0	0	0	0	519	609
1	0	0	0	0	519	609
2	0	0	0	0	520	604
3	0	0	0	0	520	609
4	0	0	0	0	520	609
5	0	0	0	0	521	609
6	0	0	0	0	522	614
7	0	0	0	0	522	609
8	0	0	0	0	523	610
9	0	0	0	0	523	610
10	0	0	0	0	522	604
11	0	0	0	0	522	610
12	0	0	0	0	523	610
13	0	0	0	0	522	609
14	0	0	0	0	522	614
15	0	0	0	0	523	608
0	0	0	0	0	523	609
1	0	0	0	0	523	609
2	0	0	0	0	522	604
3	0	0	0	0	523	609
4	0	0	0	0	523	609
5	0	0	0	0	522	609
6	0	0	0	0	522	612
7	0	0	0	0	521	608
8	0	0	0	0	522	608
9	0	0	0	0	523	608
10	0	0	0	0	522	603
11	0	0	0	0	522	609
12	0	0	0	0	521	608
13	0	0	0	0	521	609
14	0	0	0	0	520	612
15	0	0	0	0	521	609
0	0	0	0	0	521	608
1	0	0	0	0	520	609
2	0	0	0	0	520	604
3	0	0	0	0	520	609
4	0	0	0	0	520	609
5	0	0	0	0	520	609
6	0	0	0	0	520	613
7	0	0	0	0	520	608
8	0	0	0	0	520	609
9	0	0	0	0	520	609
10	0	0	0	0	519	604
11	0	0	0	0	519	609
12	0	0	0	0	519	609
13	0	0	0	0	518	609
14	0	0	0	0	518	613
15	0	0	0	0	517	608
0	0	0	0	0	516	608
1	0	0	0	0	517	608
2	0	0	0	0	517	603
3	0	0	0	0	518	609
4	0	0	0	0	517	609
5	0	0	0	0	516	609
6	0	0	0	0	517	614
7	0	0	0	0	517	609
8	0	0	0	0	517	609
9	0	0	0	0	517	609
10	0	0	0	0	517	604
11	0	0	0	0	517	609
12	0	0	0	0	517	609
13	0	0	0	0	518	610
14	0	0	0	0	518	614
15	0	0	0	0	518	609
0	0	0	0	0	518	610
1	0	0	0	0	517	609
2	0	0	0	0	515	604
3	0	0	0	0	515	610
4	0	0	0	0	515	609
5	0	0	0	0	515	609
6	0	0	0	0	514	614
7	0	0	0	0	513	609
8	0	0	0	0	513	609
9	0	0	0	0	513	609
10	0	0	0	0	512	604
11	0	0	0	0	512	609
12	0	0	0	0	513	609
13	0	0	0	0	513	609
14	0	0	0	0	512	613
15	0	0	0	0	513	609
0	0	0	0	0	513	609
1	0	0	0	0	513	609
2	0	0	0	0	512	604
3	0	0	0	0	512	609
4	0	0	0	0	512	609
5	0	0	0	0	512	609
6	0	0	0	0	512	614
7	0	0	0	0	513	609
8	0	0	0	0	513	609
9	0	0	0	0	514	609
10	0	0	0	0	514	604
11	0	0	0	0	514	609
12	0	0	0	0	513	609
13	0	0	0	0	513	609
14	0	0	0	0	515	614
15	0	0	0	0	515	608
0	0	0	0	0	515	609
1	0	0	0	0	515	609
2	0	0	0	0	515	604
3	0	0	0	0	515	609
4	0	0	0	0	515	609
5	0	0	0	0	515	609
6	0	0	0	0	515	613
7	0	0	0	0	514	609
8	0	0	0	0	513	610
9	0	0	0	0	513	609
10	0	0	0	0	512	605
11	0	0	0	0	512	610
12	0	0	0	0	512	610
13	0	0	0	0	512	611
14	0	0	0	0	511	614
15	0	0	0	0	511	611
0	0	0	0	0	511	610
1	0	0	0	0	511	610
2	0	0	0	0	511	605
3	0	0	0	0	511	610
4	0	0	0	0	511	610
5	0	0	0	0	511	610
6	0	0	0	0	511	614
7	0	0	0	0	511	610
8	0	0	0	0	511	610
9	0	0	0	0	511	609
10	0	0	0	0	512	605
11	0	0	0	0	511	610
12	0	0	0	0	512	610
13	0	0	0	0	511	610
14	0	0	0	0	511	614
15	0	0	0	0	511	609
0	0	0	0	0	511	610
1	0	0	0	0	511	609
2	0	0	0	0	510	605
3	0	0	0	0	510	610
4	0	0	0	0	510	610
5	0	0	0	0	510	610
6	0	0	0	0	509	614
7	0	0	0	0	509	610
8	0	0	0	0	509	610
9	0	0	0	0	509	610
10	0	0	0	0	508	605
11	0	0	0	0	508	611
12	0	0	0	0	508	611
13	0	0	0	0	508	611
14	0	0	0	0	509	614
15	0	0	0	0	510	610
0	0	0	0	0	510	610
1	0	0	0	0	509	609
2	0	0	0	0	509	605
3	0	0	0	0	509	610
4	0	0	0	0	509	610
5	0	0	0	0	509	609
6	0	0	0	0	510	614
7	0	0	0	0	510	610
8	0	0	0	0	509	609
9	0	0	0	0	509	609
10	0	0	0	0	509	603
11	0	0	0	0	509	609
12	0	0	0	0	509	609
13	0	0	0	0	508	609
14	0	0	0	0	508	613
15	0	0	0	0	508	610
0	0	0	0	0	507	609
1	0	0	0	0	507	609
2	0	0	0	0	507	604
3	0	0	0	0	506	609
4	0	0	0	0	506	610
5	0	0	0	0	506	610
6	0	0	0	0	505	614
7	0	0	0	0	504	610
8	0	0	0	0	504	610
9	0	0	0	0	503	610
10	0	0	0	0	502	604
11	0	0	0	0	502	609
12	0	0	0	0	501	609
13	0	0	0	0	501	610
14	0	0	0	0	500	614
15	0	0	0	0	500	610
0	0	0	0	0	499	609
1	0	0	0	0	499	610
2	0	0	0	0	500	605
3	0	0	0	0	500	610
4	0	0	0	0	500	609
5	0	0	0	0	499	609
6	0	0	0	0	500	614
7	0	0	0	0	499	609
8	0	0	0	0	499	609
9	0	0	0	0	499	609
10	0	0	0	0	499	604
11	0	0	0	0	499	610
12	0	0	0	0	499	609
13	0	0	0	0	499	609
14	0	0	0	0	500	614
15	0	0	0	0	499	609
0	0	0	0	0	499	610
1	0	0	0	0	500	609
2	0	0	0	0	499	604
3	0	0	0	0	498	609
4	0	0	0	0	499	610
5	0	0	0	0	498	609
6	0	0	0	0	499	614
7	0	0	0	0	499	609
8	0	0	0	0	498	610
9	0	0	0	0	499	609
10	0	0	0	0	498	605
11	0	0	0	0	498	609
12	0	0	0	0	498	609
13	0	0	0	0	498	610
14	0	0	0	0	498	614
15	0	0	0	0	499	610
0	0	0	0	0	498	609
1	0	0	0	0	498	610
2	0	0	0	0	499	604
3	0	0	0	0	499	610
4	0	0	0	0	499	610
5	0	0	0	0	499	609
6	0	0	0	0	500	614
7	0	0	0	0	501	609
8	0	0	0	0	501	609
9	0	0	0	0	501	609
10	0	0	0	0	501	604
11	0	0	0	0	501	610
12	0	0	0	0	502	609
13	0	0	0	0	502	609
14	0	0	0	0	502	614
15	0	0	0	0	503	609
0	0	0	0	0	504	609
1	0	0	0	0	504	609
2	0	0	0	0	505	604
3	0	0	0	0	506	609
4	0	0	0	0	505	609
5	0	0	0	0	506	610
6	0	0	0	0	507	614
7	0	0	0	0	507	609
8	0	0	0	0	508	610
9	0	0	0	0	508	610
10	0	0	0	0	508	605
11	0	0	0	0	509	610
12	0	0	0	0	510	610
13	0	0	0	0	511	611
14	0	0	0	0	512	615
15	0	0	0	0	513	611
0	0	0	0	0	513	611
1	0	0	0	0	515	610
2	0	0	0	0	515	605
3	0	0	0	0	516	609
4	0	0	0	0	516	610
5	0	0	0	0	516	609
6	0	0	0	0	517	614
7	0	0	0	0	517	609
8	0	0	0	0	516	609
9	0	0	0	0	517	609
10	0	0	0	0	515	604
11	0	0	0	0	515	609
12	0	0	0	0	516	609
13	0	0	0	0	515	609
14	0	0	0	0	515	613
15	0	0	0	0	515	609
0	0	0	0	0	514	609
1	0	0	0	0	513	609
2	0	0	0	0	513	604
3	0	0	0	0	513	609
4	0	0	0	0	513	609
5	0	0	0	0	513	609
6	0	0	0	0	513	613
7	0	0	0	0	513	609
8	0	0	0	0	513	609
9	0	0	0	0	513	609
10	0	0	0	0	513	605
11	0	0	0	0	513	610
12	0	0	0	0	512	610
13	0	0	0	0	512	610
14	0	0	0	0	512	614
15	0	0	0	0	513	610
0	0	0	0	0	513	610
1	0	0	0	0	513	610
2	0	0	0	0	513	606
3	0	0	0	0	513	610
4	0	0	0	0	514	610
5	0	0	0	0	514	610
6	0	0	0	0	513	614
7	0	0	0	0	513	609
8	0	0	0	0	513	610
9	0	0	0	0	513	609
10	0	0	0	0	513	604
11	0	0	0	0	512	609
12	0	0	0	0	512	609
13	0	0	0	0	512	609
14	0	0	0	0	512	613
15	0	0	0	0	512	608
0	0	0	0	0	511	608
1	0	0	0	0	511	608
2	0	0	0	0	510	603
3	0	0	0	0	510	609
4	0	0	0	0	508	608
5	0	0	0	0	507	609
6	0	0	0	0	507	612
7	0	0	0	0	506	608
8	0	0	0	0	505	609
9	0	0	0	0	504	609
10	0	0	0	0	504	604
11	0	0	0	0	503	609
12	0	0	0	0	502	609
13	0	0	0	0	501	609
14	0	0	0	0	499	613
15	0	0	0	0	497	608
0	0	0	0	0	495	609
1	0	0	0	0	489	609
2	0	0	0	0	485	604
3	0	0	0	0	479	609
4	0	0	0	0	473	610
5	0	0	0	0	466	610
6	0	0	0	0	457	614
7	0	0	0	0	449	610
8	0	0	0	0	441	610
9	0	0	0	0	435	609
10	0	0	0	0	430	605
11	0	0	0	0	427	610
12	0	0	0	0	423	611
13	0	0	0	0	420	611
14	0	0	0	0	417	615
15	0	0	0	0	414	611
0	0	0	0	0	413	611
1	0	0	0	0	417	610
2	0	0	0	0	423	605
3	0	0	0	0	433	610
4	0	0	0	0	448	610
5	0	0	0	0	470	610
6	0	0	0	0	496	614
7	0	0	0	0	526	610
8	0	0	0	0	559	609
9	0	0	0	0	592	609
10	0	0	0	0	620	604
11	0	0	0	0	643	609
12	0	0	0	0	664	609
13	0	0	0	0	684	609
14	0	0	0	0	708	612
15	0	0	0	0	732	609
0	0	0	0	0	757	608
1	0	0	0	0	781	609
2	0	0	0	0	801	604
3	0	0	0	0	818	609
4	0	0	0	0	831	609
5	0	0	0	0	841	609
6	0	0	0	0	843	613
7	0	0	0	0	840	609
8	0	0	0	0	829	609
9	0	0	0	0	810	609
10	0	0	0	0	789	604
11	0	0	0	0	767	609
12	0	0	0	0	742	609
13	0	0	0	0	717	610
14	0	0	0	0	694	613
15	0	0	0	0	674	609
0	0	0	0	0	658	609
1	0	0	0	0	644	609
2	0	0	0	0	632	604
3	0	0	0	0	621	609
4	0	0	0	0	609	609
5	0	0	0	0	599	610
6	0	0	0	0	588	613
7	0	0	0	0	577	609
8	0	0	0	0	567	608
9	0	0	0	0	557	609
10	0	0	0	0	547	604
11	0	0	0	0	537	609
12	0	0	0	0	528	610
13	0	0	0	0	519	609
14	0	0	0	0	512	614
15	0	0	0	0	504	610
0	0	0	0	0	496	609
1	0	0	0	0	490	610
2	0	0	0	0	483	605
3	0	0	0	0	476	611
4	0	0	0	0	470	610
5	0	0	0	0	464	611
6	0	0	0	0	459	615
7	0	0	0	0	455	611
8	0	0	0	0	451	611
9	0	0	0	0	448	611
10	0	0	0	0	445	605
11	0	0	0	0	443	611
12	0	0	0	0	440	611
13	0	0	0	0	438	611
14	0	0	0	0	436	614
15	0	0	0	0	435	610
0	0	0	0	0	434	610
1	0	0	0	0	433	610
2	0	0	0	0	433	604
3	0	0	0	0	433	609
4	0	0	0	0	433	609
5	0	0	0	0	433	609
6	0	0	0	0	433	613
7	0	0	0	0	433	609
8	0	0	0	0	433	608
9	0	0	0	0	434	608
10	0	0	0	0	435	603
11	0	0	0	0	434	608
12	0	0	0	0	435	608
13	0	0	0	0	435	608
14	0	0	0	0	436	612
15	0	0	0	0	437	608
0	0	0	0	0	437	608
1	0	0	0	0	438	608
2	0	0	0	0	439	603
3	0	0	0	0	440	608
4	0	0	0	0	441	608
5	0	0	0	0	442	608
6	0	0	0	0	443	612
7	0	0	0	0	444	609
8	0	0	0	0	445	609
9	0	0	0	0	446	609
10	0	0	0	0	446	604
11	0	0	0	0	446	609
12	0	0	0	0	447	609
13	0	0	0	0	448	609
14	0	0	0	0	448	614
15	0	0	0	0	449	609
0	0	0	0	0	449	609
1	0	0	0	0	449	609
2	0	0	0	0	449	604
3	0	0	0	0	448	609
4	0	0	0	0	449	609
5	0	0	0	0	449	609
6	0	0	0	0	450	613
7	0	0	0	0	451	609
8	0	0	0	0	451	609
9	0	0	0	0	452	609
10	0	0	0	0	453	604
11	0	0	0	0	454	609
12	0	0	0	0	454	609
13	0	0	0	0	454	610
14	0	0	0	0	454	614
15	0	0	0	0	455	610
0	0	0	0	0	455	609
1	0	0	0	0	455	609
2	0	0	0	0	456	604
3	0	0	0	0	456	610
4	0	0	0	0	457	611
5	0	0	0	0	457	610
6	0	0	0	0	457	615
7	0	0	0	0	458	611
8	0	0	0	0	459	611
9	0	0	0	0	460	611
10	0	0	0	0	461	606
11	0	0	0	0	462	611
12	0	0	0	0	463	611
13	0	0	0	0	463	611
14	0	0	0	0	464	615
15	0	0	0	0	464	611
0	0	0	0	0	464	611
1	0	0	0	0	464	611
2	0	0	0	0	464	605
3	0	0	0	0	465	610
4	0	0	0	0	465	611
5	0	0	0	0	465	610
6	0	0	0	0	466	614
7	0	0	0	0	467	610
8	0	0	0	0	467	610
9	0	0	0	0	467	610
10	0	0	0	0	467	605
11	0	0	0	0	467	609
12	0	0	0	0	467	609
13	0	0	0	0	467	609
14	0	0	0	0	467	614
15	0	0	0	0	468	609
0	0	0	0	0	467	609
1	0	0	0	0	467	609
2	0	0	0	0	468	604
3	0	0	0	0	469	609
4	0	0	0	0	470	608
5	0	0	0	0	471	609
6	0	0	0	0	471	613
7	0	0	0	0	472	608
8	0	0	0	0	472	608
9	0	0	0	0	472	608
10	0	0	0	0	473	604
11	0	0	0	0	473	609
12	0	0	0	0	474	609
13	0	0	0	0	475	609
14	0	0	0	0	475	613
15	0	0	0	0	476	609
0	0	0	0	0	475	609
1	0	0	0	0	476	609
2	0	0	0	0	476	604
3	0	0	0	0	476	609
4	0	0	0	0	476	610
5	0	0	0	0	476	610
6	0	0	0	0	476	615
7	0	0	0	0	477	610
8	0	0	0	0	477	610
9	0	0	0	0	478	610
10	0	0	0	0	478	606
11	0	0	0	0	479	611
12	0	0	0	0	479	611
13	0	0	0	0	479	611
14	0	0	0	0	480	615
15	0	0	0	0	480	611
0	0	0	0	0	480	611
1	0	0	0	0	479	611
2	0	0	0	0	480	606
3	0	0	0	0	479	611
4	0	0	0	0	479	611
5	0	0	0	0	479	611
6	0	0	0	0	480	615
7	0	0	0	0	480	611
8	0	0	0	0	480	611
9	0	0	0	0	480	610
10	0	0	0	0	482	604
11	0	0	0	0	483	609
12	0	0	0	0	483	609
13	0	0	0	0	484	609
14	0	0	0	0	484	613
15	0	0	0	0	484	609
0	0	0	0	0	486	610
1	0	0	0	0	487	609
2	0	0	0	0	487	604
3	0	0	0	0	488	609
4	0	0	0	0	488	610
5	0	0	0	0	488	610
6	0	0	0	0	489	615
7	0	0	0	0	489	610
8	0	0	0	0	489	610
9	0	0	0	0	490	610
10	0	0	0	0	490	605
11	0	0	0	0	489	611
12	0	0	0	0	489	611
13	0	0	0	0	489	610
14	0	0	0	0	489	614
15	0	0	0	0	489	610
0	0	0	0	0	489	609
1	0	0	0	0	490	609
2	0	0	0	0	490	604
3	0	0	0	0	492	609
4	0	0	0	0	492	609
5	0	0	0	0	492	609
6	0	0	0	0	493	613
7	0	0	0	0	494	608
8	0	0	0	0	494	608
9	0	0	0	0	495	608
10	0	0	0	0	495	603
11	0	0	0	0	496	608
12	0	0	0	0	498	608
13	0	0	0	0	499	608
14	0	0	0	0	499	613
15	0	0	0	0	500	608
0	0	0	0	0	500	608
1	0	0	0	0	499	608
2	0	0	0	0	499	604
3	0	0	0	0	499	609
4	0	0	0	0	499	609
5	0	0	0	0	500	610
6	0	0	0	0	500	613
7	0	0	0	0	500	610
8	0	0	0	0	500	610
9	0	0	0	0	500	610
10	0	0	0	0	501	604
11	0	0	0	0	501	610
12	0	0	0	0	501	609
13	0	0	0	0	501	610
14	0	0	0	0	500	614
15	0	0	0	0	501	610
0	0	0	0	0	502	609
1	0	0	0	0	502	609
2	0	0	0	0	503	604
3	0	0	0	0	503	609
4	0	0	0	0	504	609
5	0	0	0	0	504	609
6	0	0	0	0	504	614
7	0	0	0	0	504	609
8	0	0	0	0	504	609
9	0	0	0	0	504	609
10	0	0	0	0	504	604
11	0	0	0	0	504	609
12	0	0	0	0	504	609
13	0	0	0	0	504	609
14	0	0	0	0	504	613
15	0	0	0	0	504	608
0	0	0	0	0	504	609
1	0	0	0	0	505	609
2	0	0	0	0	505	604
3	0	0	0	0	505	610
4	0	0	0	0	505	610
5	0	0	0	0	505	610
6	0	0	0	0	504	614
7	0	0	0	0	504	610
8	0	0	0	0	504	610
9	0	0	0	0	504	610
10	0	0	0	0	504	605
11	0	0	0	0	504	609
12	0	0	0	0	504	609
13	0	0	0	0	504	609
14	0	0	0	0	505	614
15	0	0	0	0	506	609
0	0	0	0	0	507	609
1	0	0	0	0	509	609
2	0	0	0	0	510	604
3	0	0	0	0	510	609
4	0	0	0	0	511	609
5	0	0	0	0	511	609
6	0	0	0	0	511	613
7	0	0	0	0	511	609
8	0	0	0	0	512	609
9	0	0	0	0	512	609
10	0	0	0	0	512	604
11	0	0	0	0	511	609
12	0	0	0	0	512	609
13	0	0	0	0	512	609
14	0	0	0	0	512	614
15	0	0	0	0	513	609
0	0	0	0	0	512	610
1	0	0	0	0	513	610
2	0	0	0	0	513	605
3	0	0	0	0	513	610
4	0	0	0	0	513	610
5	0	0	0	0	513	610
6	0	0	0	0	513	614
7	0	0	0	0	514	610
8	0	0	0	0	514	610
9	0	0	0	0	515	609
10	0	0	0	0	515	604
11	0	0	0	0	515	610
12	0	0	0	0	515	609
13	0	0	0	0	516	609
14	0	0	0	0	515	614
15	0	0	0	0	515	609
0	0	0	0	0	515	610
1	0	0	0	0	515	609
2	0	0	0	0	515	604
3	0	0	0	0	515	609
4	0	0	0	0	515	609
5	0	0	0	0	515	609
6	0	0	0	0	515	614
7	0	0	0	0	516	609
8	0	0	0	0	516	610
9	0	0	0	0	516	609
10	0	0	0	0	516	604
11	0	0	0	0	516	609
12	0	0	0	0	517	610
13	0	0	0	0	517	610
14	0	0	0	0	516	614
15	0	0	0	0	516	609
0	0	0	0	0	515	609
1	0	0	0	0	515	609
2	0	0	0	0	515	604
3	0	0	0	0	514	609
4	0	0	0	0	514	609
5	0	0	0	0	515	609
6	0	0	0	0	515	614
7	0	0	0	0	515	609
8	0	0	0	0	514	609
9	0	0	0	0	514	609
10	0	0	0	0	514	605
11	0	0	0	0	514	610
12	0	0	0	0	514	611
13	0	0	0	0	515	611
14	0	0	0	0	515	615
15	0	0	0	0	515	611
0	0	0	0	0	515	611
1	0	0	0	0	515	610
2	0	0	0	0	515	605
3	0	0	0	0	515	611
4	0	0	0	0	515	611
5	0	0	0	0	514	611
6	0	0	0	0	514	615
7	0	0	0	0	514	610
8	0	0	0	0	514	611
9	0	0	0	0	514	610
10	0	0	0	0	513	605
11	0	0	0	0	513	610
12	0	0	0	0	512	610
13	0	0	0	0	512	610
14	0	0	0	0	511	614
15	0	0	0	0	512	610
0	0	0	0	0	511	610
1	0	0	0	0	511	610
2	0	0	0	0	510	605
3	0	0	0	0	509	610
4	0	0	0	0	509	610
5	0	0	0	0	508	610
6	0	0	0	0	508	614
7	0	0	0	0	509	610
8	0	0	0	0	509	609
9	0	0	0	0	509	609
10	0	0	0	0	509	605
11	0	0	0	0	509	609
12	0	0	0	0	510	609
13	0	0	0	0	509	609
14	0	0	0	0	509	614
15	0	0	0	0	510	609
0	0	0	0	0	509	609
1	0	0	0	0	509	609
2	0	0	0	0	509	604
3	0	0	0	0	508	609
4	0	0	0	0	508	609
5	0	0	0	0	508	609
6	0	0	0	0	508	614
7	0	0	0	0	507	609
8	0	0	0	0	506	609
9	0	0	0	0	506	609
10	0	0	0	0	505	604
11	0	0	0	0	505	609
12	0	0	0	0	506	609
13	0	0	0	0	506	609
14	0	0	0	0	505	614
15	0	0	0	0	506	609
0	0	0	0	0	506	608
1	0	0	0	0	507	609
2	0	0	0	0	507	604
3	0	0	0	0	507	609
4	0	0	0	0	507	609
5	0	0	0	0	505	609
6	0	0	0	0	505	614
7	0	0	0	0	505	609
8	0	0	0	0	506	609
9	0	0	0	0	505	608
10	0	0	0	0	506	604
11	0	0	0	0	507	609
12	0	0	0	0	506	609
13	0	0	0	0	505	609
14	0	0	0	0	504	614
15	0	0	0	0	505	609
0	0	0	0	0	505	609
1	0	0	0	0	505	609
2	0	0	0	0	505	604
3	0	0	0	0	505	609
4	0	0	0	0	506	609
5	0	0	0	0	506	609
6	0	0	0	0	506	613
7	0	0	0	0	505	609
8	0	0	0	0	506	609
9	0	0	0	0	507	609
10	0	0	0	0	507	604
11	0	0	0	0	507	609
12	0	0	0	0	508	609
13	0	0	0	0	508	609
14	0	0	0	0	508	614
15	0	0	0	0	508	609
0	0	0	0	0	508	610
1	0	0	0	0	509	610
2	0	0	0	0	510	605
3	0	0	0	0	510	610
4	0	0	0	0	510	609
5	0	0	0	0	510	610
6	0	0	0	0	510	614
7	0	0	0	0	510	609
8	0	0	0	0	510	610
9	0	0	0	0	511	610
10	0	0	0	0	511	604
11	0	0	0	0	511	610
12	0	0	0	0	511	610
13	0	0	0	0	511	610
14	0	0	0	0	511	614
15	0	0	0	0	511	610
0	0	0	0	0	510	610
1	0	0	0	0	511	609
2	0	0	0	0	511	605
3	0	0	0	0	511	609
4	0	0	0	0	512	609
5	0	0	0	0	511	610
6	0	0	0	0	512	614
7	0	0	0	0	512	610
8	0	0	0	0	512	610
9	0	0	0	0	512	609
10	0	0	0	0	512	604
11	0	0	0	0	511	609
12	0	0	0	0	512	609
13	0	0	0	0	512	609
14	0	0	0	0	513	613
15	0	0	0	0	513	609
0	0	0	0	0	514	608
1	0	0	0	0	514	609
2	0	0	0	0	514	604
3	0	0	0	0	515	609
4	0	0	0	0	515	609
5	0	0	0	0	515	609
6	0	0	0	0	515	613
7	0	0	0	0	515	609
8	0	0	0	0	515	609
9	0	0	0	0	515	609
10	0	0	0	0	514	604
11	0	0	0	0	514	609
12	0	0	0	0	513	610
13	0	0	0	0	513	610
14	0	0	0	0	512	614
15	0	0	0	0	512	609
0	0	0	0	0	511	610
1	0	0	0	0	511	610
2	0	0	0	0	511	605
3	0	0	0	0	511	609
4	0	0	0	0	511	610
5	0	0	0	0	511	610
6	0	0	0	0	511	614
7	0	0	0	0	511	611
8	0	0	0	0	511	610
9	0	0	0	0	511	610
10	0	0	0	0	512	605
11	0	0	0	0	511	610
12	0	0	0	0	512	610
13	0	0	0	0	512	610
14	0	0	0	0	512	614
15	0	0	0	0	512	610
0	0	0	0	0	512	610
1	0	0	0	0	513	609
2	0	0	0	0	514	604
3	0	0	0	0	513	609
4	0	0	0	0	513	609
5	0	0	0	0	512	609
6	0	0	0	0	512	615
7	0	0	0	0	512	609
8	0	0	0	0	512	609
9	0	0	0	0	511	609
10	0	0	0	0	512	604
11	0	0	0	0	511	609
12	0	0	0	0	512	609
13	0	0	0	0	511	609
14	0	0	0	0	512	614
15	0	0	0	0	512	609
0	0	0	0	0	511	609
1	0	0	0	0	511	609
2	0	0	0	0	511	604
3	0	0	0	0	511	609
4	0	0	0	0	512	609
5	0	0	0	0	512	610
6	0	0	0	0	512	614
7	0	0	0	0	513	609
8	0	0	0	0	513	610
9	0	0	0	0	514	609
10	0	0	0	0	515	605
11	0	0	0	0	514	609
12	0	0	0	0	514	609
13	0	0	0	0	515	610
14	0	0	0	0	514	615
15	0	0	0	0	515	610
0	0	0	0	0	515	610
1	0	0	0	0	515	610
2	0	0	0	0	516	605
3	0	0	0	0	516	610
4	0	0	0	0	517	611
5	0	0	0	0	517	611
6	0	0	0	0	518	615
7	0	0	0	0	518	611
8	0	0	0	0	518	610
9	0	0	0	0	518	610
10	0	0	0	0	517	605
11	0	0	0	0	516	611
12	0	0	0	0	516	610
13	0	0	0	0	516	610
14	0	0	0	0	516	614
15	0	0	0	0	516	610
0	0	0	0	0	515	610
1	0	0	0	0	516	610
2	0	0	0	0	516	605
3	0	0	0	0	516	610
4	0	0	0	0	516	610
5	0	0	0	0	515	610
6	0	0	0	0	516	614
7	0	0	0	0	517	610
8	0	0	0	0	517	610
9	0	0	0	0	517	610
10	0	0	0	0	517	605
11	0	0	0	0	518	610
12	0	0	0	0	519	609
13	0	0	0	0	519	610
14	0	0	0	0	519	614
15	0	0	0	0	519	609
0	0	0	0	0	520	609
1	0	0	0	0	520	609
2	0	0	0	0	519	604
3	0	0	0	0	519	609
4	0	0	0	0	519	609
5	0	0	0	0	520	609
6	0	0	0	0	520	613
7	0	0	0	0	519	609
8	0	0	0	0	519	609
9	0	0	0	0	518	608
10	0	0	0	0	518	604
11	0	0	0	0	518	608
12	0	0	0	0	518	608
13	0	0	0	0	518	609
14	0	0	0	0	518	613
15	0	0	0	0	519	609
0	0	0	0	0	519	609
1	0	0	0	0	519	608
2	0	0	0	0	520	604
3	0	0	0	0	519	609
4	0	0	0	0	519	609
5	0	0	0	0	519	609
6	0	0	0	0	519	613
7	0	0	0	0	519	609
8	0	0	0	0	519	608
9	0	0	0	0	519	609
10	0	0	0	0	518	604
11	0	0	0	0	519	609
12	0	0	0	0	518	609
13	0	0	0	0	519	609
14	0	0	0	0	519	614
15	0	0	0	0	519	609
0	0	0	0	0	519	610
1	0	0	0	0	518	609
2	0	0	0	0	518	604
3	0	0	0	0	518	610
4	0	0	0	0	517	610
5	0	0	0	0	516	610
6	0	0	0	0	516	615
7	0	0	0	0	515	610
8	0	0	0	0	516	610
9	0	0	0	0	515	610
10	0	0	0	0	515	605
11	0	0	0	0	515	611
12	0	0	0	0	515	610
13	0	0	0	0	515	610
14	0	0	0	0	515	614
15	0	0	0	0	514	611
0	0	0	0	0	514	611
1	0	0	0	0	513	609
2	0	0	0	0	514	605
3	0	0	0	0	513	610
4	0	0	0	0	513	610
5	0	0	0	0	512	611
6	0	0	0	0	512	614
7	0	0	0	0	512	610
8	0	0	0	0	511	610
9	0	0	0	0	511	610
10	0	0	0	0	511	604
11	0	0	0	0	511	609
12	0	0	0	0	511	609
13	0	0	0	0	511	610
14	0	0	0	0	511	614
15	0	0	0	0	512	610
0	0	0	0	0	512	610
1	0	0	0	0	512	609
2	0	0	0	0	511	604
3	0	0	0	0	512	610
4	0	0	0	0	512	609
5	0	0	0	0	512	609
6	0	0	0	0	513	614
7	0	0	0	0	512	609
8	0	0	0	0	512	609
9	0	0	0	0	512	609
10	0	0	0	0	511	604
11	0	0	0	0	512	610
12	0	0	0	0	512	610
13	0	0	0	0	511	609
14	0	0	0	0	511	613
15	0	0	0	0	511	609
0	0	0	0	0	512	609
1	0	0	0	0	512	609
2	0	0	0	0	512	605
3	0	0	0	0	512	611
4	0	0	0	0	512	609
5	0	0	0	0	512	611
6	0	0	0	0	511	614
7	0	0	0	0	512	610
8	0	0	0	0	512	609
9	0	0	0	0	511	610
10	0	0	0	0	511	605
11	0	0	0	0	510	609
12	0	0	0	0	510	610
13	0	0	0	0	509	610
14	0	0	0	0	509	614
15	0	0	0	0	510	610
0	0	0	0	0	510	610
1	0	0	0	0	511	611
2	0	0	0	0	511	604
3	0	0	0	0	511	609
4	0	0	0	0	512	610
5	0	0	0	0	512	610
6	0	0	0	0	512	614
7	0	0	0	0	512	609
8	0	0	0	0	512	609
9	0	0	0	0	512	609
10	0	0	0	0	512	604
11	0	0	0	0	512	610
12	0	0	0	0	511	610
13	0	0	0	0	511	609
14	0	0	0	0	511	614
15	0	0	0	0	511	609
0	0	0	0	0	511	609
1	0	0	0	0	509	608
2	0	0	0	0	508	604
3	0	0	0	0	508	608
4	0	0	0	0	508	608
5	0	0	0	0	508	608
6	0	0	0	0	508	612
7	0	0	0	0	508	608
8	0	0	0	0	508	609
9	0	0	0	0	508	608
10	0	0	0	0	508	604
11	0	0	0	0	507	609
12	0	0	0	0	505	609
13	0	0	0	0	505	609
14	0	0	0	0	505	613
15	0	0	0	0	505	609
0	0	0	0	0	505	609
1	0	0	0	0	505	609
2	0	0	0	0	505	604
3	0	0	0	0	505	609
4	0	0	0	0	506	609
5	0	0	0	0	505	609
6	0	0	0	0	505	613
7	0	0	0	0	505	609
8	0	0	0	0	505	609
9	0	0	0	0	505	609
10	0	0	0	0	505	604
11	0	0	0	0	505	609
12	0	0	0	0	504	610
13	0	0	0	0	503	610
14	0	0	0	0	503	614
15	0	0	0	0	503	610
0	0	0	0	0	502	609
1	0	0	0	0	502	610
2	0	0	0	0	500	604
3	0	0	0	0	500	609
4	0	0	0	0	499	610
5	0	0	0	0	499	609
6	0	0	0	0	499	614
7	0	0	0	0	499	610
8	0	0	0	0	500	610
9	0	0	0	0	500	610
10	0	0	0	0	500	605
11	0	0	0	0	502	610
12	0	0	0	0	502	610
13	0	0	0	0	503	610
14	0	0	0	0	503	614
15	0	0	0	0	504	610
0	0	0	0	0	504	611
1	0	0	0	0	504	611
2	0	0	0	0	504	605
3	0	0	0	0	505	611
4	0	0	0	0	504	611
5	0	0	0	0	504	611
6	0	0	0	0	503	615
7	0	0	0	0	503	610
8	0	0	0	0	502	611
9	0	0	0	0	501	609
10	0	0	0	0	501	605
11	0	0	0	0	500	609
12	0	0	0	0	501	609
13	0	0	0	0	501	609
14	0	0	0	0	501	614
15	0	0	0	0	501	609
0	0	0	0	0	502	609
1	0	0	0	0	501	609
2	0	0	0	0	501	604
3	0	0	0	0	502	609
4	0	0	0	0	502	609
5	0	0	0	0	503	609
6	0	0	0	0	503	613
7	0	0	0	0	504	608
8	0	0	0	0	504	608
9	0	0	0	0	504	608
10	0	0	0	0	504	604
11	0	0	0	0	504	609
12	0	0	0	0	503	609
13	0	0	0	0	503	608
14	0	0	0	0	503	613
15	0	0	0	0	503	608
0	0	0	0	0	503	608
1	0	0	0	0	503	608
2	0	0	0	0	504	603
3	0	0	0	0	505	609
4	0	0	0	0	506	609
5	0	0	0	0	506	609
6	0	0	0	0	506	613
7	0	0	0	0	507	609
8	0	0	0	0	509	609
9	0	0	0	0	509	609
10	0	0	0	0	510	605
11	0	0	0	0	511	610
12	0	0	0	0	511	609
13	0	0	0	0	511	610
14	0	0	0	0	511	614
15	0	0	0	0	512	609
0	0	0	0	0	512	610
1	0	0	0	0	513	610
2	0	0	0	0	513	604
3	0	0	0	0	513	609
4	0	0	0	0	513	610
5	0	0	0	0	514	610
6	0	0	0	0	514	614
7	0	0	0	0	515	609
8	0	0	0	0	515	609
9	0	0	0	0	515	609
10	0	0	0	0	515	604
11	0	0	0	0	515	609
12	0	0	0	0	515	610
13	0	0	0	0	515	610
14	0	0	0	0	515	614
15	0	0	0	0	515	609
0	0	0	0	0	515	609
1	0	0	0	0	516	610
2	0	0	0	0	516	604
3	0	0	0	0	515	609
4	0	0	0	0	515	609
5	0	0	0	0	515	610
6	0	0	0	0	516	614
7	0	0	0	0	516	609
8	0	0	0	0	515	610
9	0	0	0	0	515	609
10	0	0	0	0	515	604
11	0	0	0	0	514	610
12	0	0	0	0	515	610
13	0	0	0	0	515	611
14	0	0	0	0	515	615
15	0	0	0	0	515	611
0	0	0	0	0	514	610
1	0	0	0	0	514	611
2	0	0	0	0	514	605
3	0	0	0	0	513	610
4	0	0	0	0	513	610
5	0	0	0	0	512	610
6	0	0	0	0	512	614
7	0	0	0	0	513	610
8	0	0	0	0	513	610
9	0	0	0	0	513	610
10	0	0	0	0	513	604
11	0	0	0	0	513	609
12	0	0	0	0	512	609
13	0	0	0	0	512	610
14	0	0	0	0	512	613
15	0	0	0	0	512	609
0	0	0	0	0	512	609
1	0	0	0	0	511	609
2	0	0	0	0	510	604
3	0	0	0	0	510	610
4	0	0	0	0	510	609
5	0	0	0	0	509	609
6	0	0	0	0	508	613
7	0	0	0	0	507	610
8	0	0	0	0	506	609
9	0	0	0	0	504	609
10	0	0	0	0	503	604
11	0	0	0	0	502	609
12	0	0	0	0	501	609
13	0	0	0	0	500	609
14	0	0	0	0	499	614
15	0	0	0	0	497	609
0	0	0	0	0	494	610
1	0	0	0	0	491	610
2	0	0	0	0	487	604
3	0	0	0	0	483	609
4	0	0	0	0	479	609
5	0	0	0	0	473	609
6	0	0	0	0	466	613
7	0	0	0	0	459	609
8	0	0	0	0	452	609
9	0	0	0	0	444	609
10	0	0	0	0	439	604
11	0	0	0	0	435	609
12	0	0	0	0	431	609
13	0	0	0	0	427	610
14	0	0	0	0	423	614
15	0	0	0	0	422	610
0	0	0	0	0	420	610
1	0	0	0	0	423	609
2	0	0	0	0	428	604
3	0	0	0	0	437	609
4	0	0	0	0	451	609
5	0	0	0	0	470	609
6	0	0	0	0	494	613
7	0	0	0	0	521	609
8	0	0	0	0	552	610
9	0	0	0	0	581	610
10	0	0	0	0	605	604
11	0	0	0	0	624	609
12	0	0	0	0	642	609
13	0	0	0	0	660	610
14	0	0	0	0	682	613
15	0	0	0	0	702	610
0	0	0	0	0	720	610
1	0	0	0	0	737	610
2	0	0	0	0	752	605
3	0	0	0	0	767	610
4	0	0	0	0	777	610
5	0	0	0	0	785	610
6	0	0	0	0	786	614
7	0	0	0	0	779	610
8	0	0	0	0	766	610
9	0	0	0	0	749	610
10	0	0	0	0	731	605
11	0	0	0	0	710	610
12	0	0	0	0	687	609
13	0	0	0	0	667	610
14	0	0	0	0	652	614
15	0	0	0	0	640	610
0	0	0	0	0	631	609
1	0	0	0	0	624	609
2	0	0	0	0	619	604
3	0	0	0	0	611	609
4	0	0	0	0	603	609
5	0	0	0	0	596	609
6	0	0	0	0	588	613
7	0	0	0	0	580	608
8	0	0	0	0	573	608
9	0	0	0	0	564	608
10	0	0	0	0	557	604
11	0	0	0	0	549	609
12	0	0	0	0	542	609
13	0	0	0	0	534	609
14	0	0	0	0	528	613
15	0	0	0	0	523	610
0	0	0	0	0	517	609
1	0	0	0	0	511	609
2	0	0	0	0	505	605
3	0	0	0	0	499	609
4	0	0	0	0	495	610
5	0	0	0	0	489	609
6	0	0	0	0	484	614
7	0	0	0	0	479	609
8	0	0	0	0	475	609
9	0	0	0	0	471	610
10	0	0	0	0	467	604
11	0	0	0	0	465	609
12	0	0	0	0	462	609
13	0	0	0	0	460	609
14	0	0	0	0	458	614
15	0	0	0	0	457	609
0	0	0	0	0	455	610
1	0	0	0	0	455	609
2	0	0	0	0	453	604
3	0	0	0	0	452	610
4	0	0	0	0	451	610
5	0	0	0	0	451	610
6	0	0	0	0	451	614
7	0	0	0	0	451	610
8	0	0	0	0	451	610
9	0	0	0	0	451	610
10	0	0	0	0	451	605
11	0	0	0	0	451	610
12	0	0	0	0	451	610
13	0	0	0	0	451	610
14	0	0	0	0	450	615
15	0	0	0	0	451	610
0	0	0	0	0	451	610
1	0	0	0	0	451	610
2	0	0	0	0	452	605
3	0	0	0	0	452	609
4	0	0	0	0	453	610
5	0	0	0	0	454	610
6	0	0	0	0	454	614
7	0	0	0	0	455	609
8	0	0	0	0	455	609
9	0	0	0	0	456	610
10	0	0	0	0	456	605
11	0	0	0	0	457	609
12	0	0	0	0	457	610
13	0	0	0	0	458	610
14	0	0	0	0	458	614
15	0	0	0	0	459	610
0	0	0	0	0	459	609
1	0	0	0	0	460	609
2	0	0	0	0	459	603
3	0	0	0	0	460	609
4	0	0	0	0	460	609
5	0	0	0	0	460	609
6	0	0	0	0	460	614
7	0	0	0	0	460	609
8	0	0	0	0	460	608
9	0	0	0	0	460	609
10	0	0	0	0	460	604
11	0	0	0	0	461	609
12	0	0	0	0	461	608
13	0	0	0	0	463	609
14	0	0	0	0	463	613
15	0	0	0	0	464	609
0	0	0	0	0	464	609
1	0	0	0	0	465	609
2	0	0	0	0	467	604
3	0	0	0	0	468	609
4	0	0	0	0	468	609
5	0	0	0	0	469	610
6	0	0	0	0	470	614
7	0	0	0	0	472	609
8	0	0	0	0	471	609
9	0	0	0	0	472	609
10	0	0	0	0	473	604
11	0	0	0	0	473	610
12	0	0	0	0	474	610
13	0	0	0	0	475	611
14	0	0	0	0	476	615
15	0	0	0	0	476	611
0	0	0	0	0	476	611
1	0	0	0	0	477	611
2	0	0	0	0	477	605
3	0	0	0	0	477	610
4	0	0	0	0	478	611
5	0	0	0	0	478	611
6	0	0	0	0	478	614
7	0	0	0	0	478	610
8	0	0	0	0	478	611
9	0	0	0	0	478	610
10	0	0	0	0	478	605
11	0	0	0	0	478	610
12	0	0	0	0	478	610
13	0	0	0	0	478	609
14	0	0	0	0	479	614
15	0	0	0	0	479	610
0	0	0	0	0	479	610
1	0	0	0	0	479	609
2	0	0	0	0	478	604
3	0	0	0	0	478	609
4	0	0	0	0	478	609
5	0	0	0	0	477	609
6	0	0	0	0	477	614
7	0	0	0	0	478	609
8	0	0	0	0	478	609
9	0	0	0	0	478	608
10	0	0	0	0	477	603
11	0	0	0	0	478	609
12	0	0	0	0	478	609
13	0	0	0	0	479	609
14	0	0	0	0	479	613
15	0	0	0	0	480	608
0	0	0	0	0	480	608
1	0	0	0	0	481	608
2	0	0	0	0	481	603
3	0	0	0	0	482	608
4	0	0	0	0	482	609
5	0	0	0	0	481	608
6	0	0	0	0	481	613
7	0	0	0	0	482	608
8	0	0	0	0	482	609
9	0	0	0	0	482	608
10	0	0	0	0	482	604
11	0	0	0	0	482	609
12	0	0	0	0	483	609
13	0	0	0	0	484	609
14	0	0	0	0	484	613
15	0	0	0	0	485	609
0	0	0	0	0	485	609
1	0	0	0	0	486	609
2	0	0	0	0	486	604
3	0	0	0	0	487	610
4	0	0	0	0	487	610
5	0	0	0	0	488	610
6	0	0	0	0	489	614
7	0	0	0	0	489	609
8	0	0	0	0	490	609
9	0	0	0	0	491	609
10	0	0	0	0	491	604
11	0	0	0	0	491	609
12	0	0	0	0	492	609
13	0	0	0	0	492	610
14	0	0	0	0	492	614
15	0	0	0	0	492	609
0	0	0	0	0	492	610
1	0	0	0	0	492	609
2	0	0	0	0	493	604
3	0	0	0	0	493	610
4	0	0	0	0	493	609
5	0	0	0	0	494	610
6	0	0	0	0	494	614
7	0	0	0	0	494	609
8	0	0	0	0	493	610
9	0	0	0	0	493	610
10	0	0	0	0	493	604
11	0	0	0	0	494	610
12	0	0	0	0	494	609
13	0	0	0	0	494	609
14	0	0	0	0	495	613
15	0	0	0	0	495	609
0	0	0	0	0	496	609
1	0	0	0	0	497	609
2	0	0	0	0	497	604
3	0	0	0	0	497	609
4	0	0	0	0	498	609
5	0	0	0	0	498	609
6	0	0	0	0	499	613
7	0	0	0	0	499	609
8	0	0	0	0	499	609
9	0	0	0	0	500	609
10	0	0	0	0	500	604
11	0	0	0	0	501	609
12	0	0	0	0	502	609
13	0	0	0	0	503	609
14	0	0	0	0	504	613
15	0	0	0	0	504	609
0	0	0	0	0	504	609
1	0	0	0	0	504	609
2	0	0	0	0	503	604
3	0	0	0	0	503	610
4	0	0	0	0	503	610
5	0	0	0	0	503	610
6	0	0	0	0	503	614
7	0	0	0	0	504	610
8	0	0	0	0	504	611
9	0	0	0	0	505	611
10	0	0	0	0	505	605
11	0	0	0	0	506	611
12	0	0	0	0	506	611
13	0	0	0	0	505	611
14	0	0	0	0	506	615
15	0	0	0	0	507	610
0	0	0	0	0	507	611
1	0	0	0	0	507	611
2	0	0	0	0	507	606
3	0	0	0	0	507	611
4	0	0	0	0	507	611
5	0	0	0	0	508	611
6	0	0	0	0	508	615
7	0	0	0	0	508	611
8	0	0	0	0	507	610
9	0	0	0	0	508	611
10	0	0	0	0	508	606
11	0	0	0	0	508	610
12	0	0	0	0	507	610
13	0	0	0	0	507	610
14	0	0	0	0	506	614
15	0	0	0	0	506	610
0	0	0	0	0	505	609
1	0	0	0	0	505	609
2	0	0	0	0	505	604
3	0	0	0	0	505	610
4	0	0	0	0	505	609
5	0	0	0	0	505	610
6	0	0	0	0	506	614
7	0	0	0	0	506	609
8	0	0	0	0	507	609
9	0	0	0	0	507	610
10	0	0	0	0	508	604
11	0	0	0	0	509	610
12	0	0	0	0	509	609
13	0	0	0	0	510	610
14	0	0	0	0	510	613
15	0	0	0	0	510	609
0	0	0	0	0	510	609
1	0	0	0	0	510	609
2	0	0	0	0	511	604
3	0	0	0	0	510	609
4	0	0	0	0	510	608
5	0	0	0	0	511	609
6	0	0	0	0	511	613
7	0	0	0	0	511	609
8	0	0	0	0	511	608
9	0	0	0	0	511	608
10	0	0	0	0	511	604
11	0	0	0	0	511	608
12	0	0	0	0	511	609
13	0	0	0	0	511	609
14	0	0	0	0	510	614
15	0	0	0	0	511	610
0	0	0	0	0	511	610
1	0	0	0	0	511	611
2	0	0	0	0	511	605
3	0	0	0	0	511	611
4	0	0	0	0	512	611
5	0	0	0	0	511	611
6	0	0	0	0	511	615
7	0	0	0	0	512	611
8	0	0	0	0	512	611
9	0	0	0	0	512	610
10	0	0	0	0	512	605
11	0	0	0	0	513	611
12	0	0	0	0	512	610
13	0	0	0	0	513	611
14	0	0	0	0	513	615
15	0	0	0	0	513	611
0	0	0	0	0	513	611
1	0	0	0	0	514	610
2	0	0	0	0	514	605
3	0	0	0	0	514	609
4	0	0	0	0	514	611
5	0	0	0	0	515	609
6	0	0	0	0	515	614
7	0	0	0	0	515	608
8	0	0	0	0	515	609
9	0	0	0	0	515	609
10	0	0	0	0	515	603
11	0	0	0	0	515	609
12	0	0	0	0	515	609
13	0	0	0	0	515	609
14	0	0	0	0	515	612
15	0	0	0	0	516	609
0	0	0	0	0	516	609
1	0	0	0	0	516	609
2	0	0	0	0	516	604
3	0	0	0	0	515	609
4	0	0	0	0	515	609
5	0	0	0	0	515	608
6	0	0	0	0	514	613
7	0	0	0	0	514	609
8	0	0	0	0	513	609
9	0	0	0	0	513	609
10	0	0	0	0	513	604
11	0	0	0	0	513	609
12	0	0	0	0	513	609
13	0	0	0	0	514	609
14	0	0	0	0	514	613
15	0	0	0	0	514	608
0	0	0	0	0	514	608
1	0	0	0	0	513	609
2	0	0	0	0	513	604
3	0	0	0	0	513	608
4	0	0	0	0	513	609
5	0	0	0	0	513	608
6	0	0	0	0	513	613
7	0	0	0	0	514	609
8	0	0	0	0	514	609
9	0	0	0	0	514	609
10	0	0	0	0	513	604
11	0	0	0	0	514	608
12	0	0	0	0	514	609
13	0	0	0	0	513	609
14	0	0	0	0	513	614
15	0	0	0	0	512	609
0	0	0	0	0	512	610
1	0	0	0	0	512	610
2	0	0	0	0	512	606
3	0	0	0	0	511	611
4	0	0	0	0	512	611
5	0	0	0	0	512	611
6	0	0	0	0	511	615
7	0	0	0	0	511	611
8	0	0	0	0	511	611
9	0	0	0	0	511	611
10	0	0	0	0	511	606
11	0	0	0	0	510	611
12	0	0	0	0	510	611
13	0	0	0	0	510	611
14	0	0	0	0	509	615
15	0	0	0	0	510	611
0	0	0	0	0	510	611
1	0	0	0	0	509	611
2	0	0	0	0	508	605
3	0	0	0	0	508	610
4	0	0	0	0	508	610
5	0	0	0	0	508	610
6	0	0	0	0	507	614
7	0	0	0	0	507	610
8	0	0	0	0	507	611
9	0	0	0	0	507	610
10	0	0	0	0	508	605
11	0	0	0	0	508	610
12	0	0	0	0	508	610
13	0	0	0	0	508	610
14	0	0	0	0	508	614
15	0	0	0	0	509	610
0	0	0	0	0	509	610
1	0	0	0	0	508	610
2	0	0	0	0	508	604
3	0	0	0	0	509	610
4	0	0	0	0	508	609
5	0	0	0	0	509	610
6	0	0	0	0	509	613
7	0	0	0	0	509	609
8	0	0	0	0	509	609
9	0	0	0	0	509	609
10	0	0	0	0	509	604
11	0	0	0	0	509	609
12	0	0	0	0	510	608
13	0	0	0	0	510	608
14	0	0	0	0	510	612
15	0	0	0	0	510	608
0	0	0	0	0	509	608
1	0	0	0	0	509	608
2	0	0	0	0	510	603
3	0	0	0	0	511	608
4	0	0	0	0	511	608
5	0	0	0	0	512	608
6	0	0	0	0	512	612
7	0	0	0	0	511	608
8	0	0	0	0	512	608
9	0	0	0	0	512	608
10	0	0	0	0	512	603
11	0	0	0	0	511	608
12	0	0	0	0	511	608
13	0	0	0	0	511	609
14	0	0	0	0	511	613
15	0	0	0	0	510	609
0	0	0	0	0	510	608
1	0	0	0	0	510	609
2	0	0	0	0	510	604
3	0	0	0	0	510	609
4	0	0	0	0	510	609
5	0	0	0	0	510	609
6	0	0	0	0	511	614
7	0	0	0	0	512	610
8	0	0	0	0	512	610
9	0	0	0	0	511	610
10	0	0	0	0	512	605
11	0	0	0	0	512	609
12	0	0	0	0	512	610
13	0	0	0	0	513	611
14	0	0	0	0	513	614
15	0	0	0	0	513	610
0	0	0	0	0	513	610
1	0	0	0	0	513	610
2	0	0	0	0	513	605
3	0	0	0	0	512	610
4	0	0	0	0	512	610
5	0	0	0	0	511	610
6	0	0	0	0	512	614
7	0	0	0	0	512	610
8	0	0	0	0	512	610
9	0	0	0	0	513	609
10	0	0	0	0	514	606
11	0	0	0	0	514	611
12	0	0	0	0	514	611
13	0	0	0	0	514	611
14	0	0	0	0	514	614
15	0	0	0	0	514	610
0	0	0	0	0	514	610
1	0	0	0	0	515	610
2	0	0	0	0	515	605
3	0	0	0	0	515	611
4	0	0	0	0	515	611
5	0	0	0	0	515	610
6	0	0	0	0	515	614
7	0	0	0	0	515	611
8	0	0	0	0	514	610
9	0	0	0	0	514	610
10	0	0	0	0	515	605
11	0	0	0	0	515	610
12	0	0	0	0	515	609
13	0	0	0	0	515	609
14	0	0	0	0	515	614
15	0	0	0	0	516	609
0	0	0	0	0	515	609
1	0	0	0	0	516	609
2	0	0	0	0	515	604
3	0	0	0	0	516	609
4	0	0	0	0	515	609
5	0	0	0	0	516	609
6	0	0	0	0	516	613
7	0	0	0	0	516	609
8	0	0	0	0	517	609
9	0	0	0	0	517	609
10	0	0	0	0	517	604
11	0	0	0	0	518	608
12	0	0	0	0	518	608
13	0	0	0	0	519	609
14	0	0	0	0	519	612
15	0	0	0	0	519	609
0	0	0	0	0	520	609
1	0	0	0	0	519	609
2	0	0	0	0	519	604
3	0	0	0	0	519	609
4	0	0	0	0	519	609
5	0	0	0	0	519	609
6	0	0	0	0	519	614
7	0	0	0	0	519	609
8	0	0	0	0	518	609
9	0	0	0	0	518	610
10	0	0	0	0	518	604
11	0	0	0	0	518	609
12	0	0	0	0	518	609
13	0	0	0	0	517	609
14	0	0	0	0	517	613
15	0	0	0	0	517	609
0	0	0	0	0	517	609
1	0	0	0	0	518	609
2	0	0	0	0	518	604
3	0	0	0	0	517	609
4	0	0	0	0	517	609
5	0	0	0	0	516	609
6	0	0	0	0	516	613
7	0	0	0	0	516	609
8	0	0	0	0	517	609
9	0	0	0	0	516	609
10	0	0	0	0	516	604
11	0	0	0	0	516	609
12	0	0	0	0	515	609
13	0	0	0	0	516	610
14	0	0	0	0	515	614
15	0	0	0	0	516	609
0	0	0	0	0	516	610
1	0	0	0	0	515	609
2	0	0	0	0	515	604
3	0	0	0	0	515	610
4	0	0	0	0	515	610
5	0	0	0	0	515	610
6	0	0	0	0	514	615
7	0	0	0	0	514	611
8	0	0	0	0	513	611
9	0	0	0	0	513	611
10	0	0	0	0	513	605
11	0	0	0	0	514	611
12	0	0	0	0	515	611
13	0	0	0	0	515	611
14	0	0	0	0	515	615
15	0	0	0	0	516	611
0	0	0	0	0	516	610
1	0	0	0	0	516	610
2	0	0	0	0	517	605
3	0	0	0	0	517	610
4	0	0	0	0	517	610
5	0	0	0	0	517	610
6	0	0	0	0	516	615
7	0	0	0	0	516	610
8	0	0	0	0	516	611
9	0	0	0	0	515	610
10	0	0	0	0	515	605
11	0	0	0	0	515	610
12	0	0	0	0	515	611
13	0	0	0	0	515	610
14	0	0	0	0	515	615
15	0	0	0	0	515	610
0	0	0	0	0	515	611
1	0	0	0	0	515	610
2	0	0	0	0	514	605
3	0	0	0	0	515	610
4	0	0	0	0	515	609
5	0	0	0	0	515	610
6	0	0	0	0	515	614
7	0	0	0	0	514	609
8	0	0	0	0	515	609
9	0	0	0	0	514	609
10	0	0	0	0	514	604
11	0	0	0	0	514	609
12	0	0	0	0	514	609
13	0	0	0	0	514	609
14	0	0	0	0	514	613
15	0	0	0	0	515	609
0	0	0	0	0	514	609
1	0	0	0	0	514	609
2	0	0	0	0	514	604
3	0	0	0	0	514	608
4	0	0	0	0	513	608
5	0	0	0	0	513	609
6	0	0	0	0	512	613
7	0	0	0	0	512	609
8	0	0	0	0	512	608
9	0	0	0	0	512	608
10	0	0	0	0	512	604
11	0	0	0	0	511	609
12	0	0	0	0	511	609
13	0	0	0	0	511	609
14	0	0	0	0	511	614
15	0	0	0	0	511	610
0	0	0	0	0	510	609
1	0	0	0	0	510	610
2	0	0	0	0	510	605
3	0	0	0	0	510	610
4	0	0	0	0	509	610
5	0	0	0	0	509	611
6	0	0	0	0	510	615
7	0	0	0	0	510	611
8	0	0	0	0	509	610
9	0	0	0	0	509	611
10	0	0	0	0	508	606
11	0	0	0	0	508	610
12	0	0	0	0	508	611
13	0	0	0	0	508	611
14	0	0	0	0	508	615
15	0	0	0	0	509	610
0	0	0	0	0	509	610
1	0	0	0	0	509	610
2	0	0	0	0	510	604
3	0	0	0	0	510	609
4	0	0	0	0	509	609
5	0	0	0	0	510	609
6	0	0	0	0	510	614
7	0	0	0	0	510	609
8	0	0	0	0	510	609
9	0	0	0	0	511	609
10	0	0	0	0	511	604
11	0	0	0	0	511	610
12	0	0	0	0	511	609
13	0	0	0	0	511	610
14	0	0	0	0	511	614
15	0	0	0	0	512	610
0	0	0	0	0	512	609
1	0	0	0	0	512	609
2	0	0	0	0	512	604
3	0	0	0	0	512	609
4	0	0	0	0	512	609
5	0	0	0	0	511	609
6	0	0	0	0	511	614
7	0	0	0	0	511	610
8	0	0	0	0	512	609
9	0	0	0	0	512	609
10	0	0	0	0	512	604
11	0	0	0	0	512	609
12	0	0	0	0	513	609
13	0	0	0	0	513	609
14	0	0	0	0	514	613
15	0	0	0	0	513	608
0	0	0	0	0	512	608
1	0	0	0	0	513	608
2	0	0	0	0	513	604
3	0	0	0	0	514	609
4	0	0	0	0	513	609
5	0	0	0	0	513	609
6	0	0	0	0	513	614
7	0	0	0	0	513	609
8	0	0	0	0	514	609
9	0	0	0	0	514	609
10	0	0	0	0	514	604
11	0	0	0	0	514	610
12	0	0	0	0	514	609
13	0	0	0	0	514	610
14	0	0	0	0	514	614
15	0	0	0	0	514	610
0	0	0	0	0	513	610
1	0	0	0	0	513	610
2	0	0	0	0	512	605
3	0	0	0	0	512	611
4	0	0	0	0	512	610
5	0	0	0	0	511	610
6	0	0	0	0	511	615
7	0	0	0	0	510	610
8	0	0	0	0	509	610
9	0	0	0	0	509	610
10	0	0	0	0	508	605
11	0	0	0	0	508	609
12	0	0	0	0	506	610
13	0	0	0	0	505	610
14	0	0	0	0	504	615
15	0	0	0	0	504	610
0	0	0	0	0	503	609
1	0	0	0	0	503	610
2	0	0	0	0	503	605
3	0	0	0	0	503	610
4	0	0	0	0	503	611
5	0	0	0	0	502	609
6	0	0	0	0	503	614
7	0	0	0	0	503	610
8	0	0	0	0	502	609
9	0	0	0	0	502	609
10	0	0	0	0	502	605
11	0	0	0	0	502	610
12	0	0	0	0	501	610
13	0	0	0	0	501	610
14	0	0	0	0	501	614
15	0	0	0	0	500	610
0	0	0	0	0	500	609
1	0	0	0	0	499	609
2	0	0	0	0	499	604
3	0	0	0	0	499	609
4	0	0	0	0	499	609
5	0	0	0	0	499	609
6	0	0	0	0	500	613
7	0	0	0	0	501	609
8	0	0	0	0	501	609
9	0	0	0	0	502	608
10	0	0	0	0	503	604
11	0	0	0	0	503	609
12	0	0	0	0	504	609
13	0	0	0	0	504	609
14	0	0	0	0	504	613
15	0	0	0	0	504	609
0	0	0	0	0	504	609
1	0	0	0	0	504	609
2	0	0	0	0	504	604
3	0	0	0	0	504	609
4	0	0	0	0	504	610
5	0	0	0	0	504	609
6	0	0	0	0	503	613
7	0	0	0	0	503	609
8	0	0	0	0	503	609
9	0	0	0	0	503	609
10	0	0	0	0	503	605
11	0	0	0	0	503	610
12	0	0	0	0	503	610
13	0	0	0	0	503	610
14	0	0	0	0	503	614
15	0	0	0	0	503	609
0	0	0	0	0	503	610
1	0	0	0	0	504	610
2	0	0	0	0	503	605
3	0	0	0	0	503	610
4	0	0	0	0	502	610
5	0	0	0	0	502	611
6	0	0	0	0	502	615
7	0	0	0	0	501	611
8	0	0	0	0	502	611
9	0	0	0	0	502	610
10	0	0	0	0	502	605
11	0	0	0	0	503	610
12	0	0	0	0	504	610
13	0	0	0	0	505	610
14	0	0	0	0	505	614
15	0	0	0	0	505	610
0	0	0	0	0	506	610
1	0	0	0	0	507	610
2	0	0	0	0	507	604
3	0	0	0	0	508	609
4	0	0	0	0	508	609
5	0	0	0	0	508	610
6	0	0	0	0	509	613
7	0	0	0	0	510	609
8	0	0	0	0	511	609
9	0	0	0	0	512	609
10	0	0	0	0	513	604
11	0	0	0	0	513	609
12	0	0	0	0	514	609
13	0	0	0	0	514	609
14	0	0	0	0	514	614
15	0	0	0	0	514	610
0	0	0	0	0	513	609
1	0	0	0	0	514	609
2	0	0	0	0	513	604
3	0	0	0	0	512	609
4	0	0	0	0	512	609
5	0	0	0	0	512	609
6	0	0	0	0	512	614
7	0	0	0	0	512	610
8	0	0	0	0	511	610
9	0	0	0	0	512	610
10	0	0	0	0	512	605
11	0	0	0	0	512	610
12	0	0	0	0	512	610
13	0	0	0	0	512	610
14	0	0	0	0	511	615
15	0	0	0	0	512	610
0	0	0	0	0	512	611
1	0	0	0	0	512	610
2	0	0	0	0	512	605
3	0	0	0	0	512	611
4	0	0	0	0	511	610
5	0	0	0	0	511	611
6	0	0	0	0	511	614
7	0	0	0	0	511	610
8	0	0	0	0	510	609
9	0	0	0	0	510	610
10	0	0	0	0	510	604
11	0	0	0	0	510	609
12	0	0	0	0	510	610
13	0	0	0	0	510	610
14	0	0	0	0	510	614
15	0	0	0	0	509	610
0	0	0	0	0	509	610
1	0	0	0	0	508	609
2	0	0	0	0	508	605
3	0	0	0	0	508	609
4	0	0	0	0	508	609
5	0	0	0	0	507	610
6	0	0	0	0	507	614
7	0	0	0	0	507	610
8	0	0	0	0	507	609
9	0	0	0	0	507	609
10	0	0	0	0	507	604
11	0	0	0	0	506	609
12	0	0	0	0	505	609
13	0	0	0	0	505	609
14	0	0	0	0	504	613
15	0	0	0	0	504	609
0	0	0	0	0	503	609
1	0	0	0	0	502	609
2	0	0	0	0	500	604
3	0	0	0	0	499	609
4	0	0	0	0	498	609
5	0	0	0	0	498	609
6	0	0	0	0	496	614
7	0	0	0	0	495	609
8	0	0	0	0	494	609
9	0	0	0	0	492	609
10	0	0	0	0	488	604
11	0	0	0	0	483	609
12	0	0	0	0	478	610
13	0	0	0	0	473	610
14	0	0	0	0	468	614
15	0	0	0	0	461	610
0	0	0	0	0	453	610
1	0	0	0	0	446	610
2	0	0	0	0	438	605
3	0	0	0	0	431	610
4	0	0	0	0	424	610
5	0	0	0	0	421	610
6	0	0	0	0	417	614
7	0	0	0	0	414	611
8	0	0	0	0	410	610
9	0	0	0	0	408	610
10	0	0	0	0	406	604
11	0	0	0	0	408	609
12	0	0	0	0	414	610
13	0	0	0	0	422	609
14	0	0	0	0	434	614
15	0	0	0	0	453	609
0	0	0	0	0	476	609
1	0	0	0	0	505	609
2	0	0	0	0	537	604
3	0	0	0	0	570	610
4	0	0	0	0	600	609
5	0	0	0	0	625	609
6	0	0	0	0	645	614
7	0	0	0	0	665	609
8	0	0	0	0	688	609
9	0	0	0	0	713	610
10	0	0	0	0	736	604
11	0	0	0	0	759	609
12	0	0	0	0	779	610
13	0	0	0	0	797	609
14	0	0	0	0	811	614
15	0	0	0	0	821	610
0	0	0	0	0	826	610
1	0	0	0	0	825	610
2	0	0	0	0	817	605
3	0	0	0	0	803	610
4	0	0	0	0	784	609
5	0	0	0	0	763	610
6	0	0	0	0	740	614
7	0	0	0	0	717	610
8	0	0	0	0	696	609
9	0	0	0	0	675	609
10	0	0	0	0	659	604
11	0	0	0	0	647	609
12	0	0	0	0	636	609
13	0	0	0	0	624	609
14	0	0	0	0	613	613
15	0	0	0	0	602	609
0	0	0	0	0	591	609
1	0	0	0	0	579	609
2	0	0	0	0	569	604
3	0	0	0	0	558	609
4	0	0	0	0	548	609
5	0	0	0	0	538	609
6	0	0	0	0	528	613
7	0	0	0	0	520	609
8	0	0	0	0	511	609
9	0	0	0	0	503	609
10	0	0	0	0	495	604
11	0	0	0	0	487	610
12	0	0	0	0	481	610
13	0	0	0	0	473	610
14	0	0	0	0	467	614
15	0	0	0	0	462	610
0	0	0	0	0	457	610
1	0	0	0	0	453	610
2	0	0	0	0	448	605
3	0	0	0	0	445	610
4	0	0	0	0	443	610
5	0	0	0	0	441	611
6	0	0	0	0	439	615
7	0	0	0	0	437	611
8	0	0	0	0	435	611
9	0	0	0	0	434	610
10	0	0	0	0	433	606
11	0	0	0	0	432	611
12	0	0	0	0	432	611
13	0	0	0	0	432	611
14	0	0	0	0	432	614
15	0	0	0	0	432	610
0	0	0	0	0	433	610
1	0	0	0	0	432	610
2	0	0	0	0	433	605
3	0	0	0	0	433	610
4	0	0	0	0	433	610
5	0	0	0	0	433	610
6	0	0	0	0	434	615
7	0	0	0	0	434	610
8	0	0	0	0	435	610
9	0	0	0	0	436	609
10	0	0	0	0	436	604
11	0	0	0	0	436	609
12	0	0	0	0	438	610
13	0	0	0	0	438	609
14	0	0	0	0	439	614
15	0	0	0	0	439	609
0	0	0	0	0	438	609
1	0	0	0	0	439	609
2	0	0	0	0	440	604
3	0	0	0	0	441	609
4	0	0	0	0	441	610
5	0	0	0	0	442	609
6	0	0	0	0	443	613
7	0	0	0	0	444	609
8	0	0	0	0	445	608
9	0	0	0	0	445	608
10	0	0	0	0	446	604
11	0	0	0	0	446	609
12	0	0	0	0	447	609
13	0	0	0	0	448	608
14	0	0	0	0	449	613
15	0	0	0	0	449	609
0	0	0	0	0	450	608
1	0	0	0	0	451	608
2	0	0	0	0	451	604
3	0	0	0	0	452	609
4	0	0	0	0	454	609
5	0	0	0	0	454	609
6	0	0	0	0	455	613
7	0	0	0	0	455	609
8	0	0	0	0	457	608
9	0	0	0	0	457	609
10	0	0	0	0	459	604
11	0	0	0	0	459	609
12	0	0	0	0	460	609
13	0	0	0	0	461	610
14	0	0	0	0	461	613
15	0	0	0	0	461	610
0	0	0	0	0	460	611
1	0	0	0	0	461	611
2	0	0	0	0	461	606
3	0	0	0	0	461	610
4	0	0	0	0	462	611
5	0	0	0	0	462	611
6	0	0	0	0	463	615
7	0	0	0	0	463	611
8	0	0	0	0	463	611
9	0	0	0	0	463	610
10	0	0	0	0	463	606
11	0	0	0	0	464	611
12	0	0	0	0	464	611
13	0	0	0	0	464	611
14	0	0	0	0	465	615
15	0	0	0	0	465	611
0	0	0	0	0	466	611
1	0	0	0	0	466	609
2	0	0	0	0	466	604
3	0	0	0	0	467	610
4	0	0	0	0	467	610
5	0	0	0	0	467	610
6	0	0	0	0	468	614
7	0	0	0	0	469	610
8	0	0	0	0	470	610
9	0	0	0	0	470	610
10	0	0	0	0	471	605
11	0	0	0	0	471	610
12	0	0	0	0	472	610
13	0	0	0	0	472	609
14	0	0	0	0	472	614
15	0	0	0	0	472	609
0	0	0	0	0	472	609
1	0	0	0	0	473	609
2	0	0	0	0	473	604
3	0	0	0	0	474	609
4	0	0	0	0	475	609
5	0	0	0	0	475	609
6	0	0	0	0	475	613
7	0	0	0	0	475	609
8	0	0	0	0	475	609
9	0	0	0	0	476	609
10	0	0	0	0	476	604
11	0	0	0	0	477	609
12	0	0	0	0	477	609
13	0	0	0	0	477	609
14	0	0	0	0	478	614
15	0	0	0	0	478	610
0	0	0	0	0	478	609
1	0	0	0	0	478	609
2	0	0	0	0	478	604
3	0	0	0	0	478	609
4	0	0	0	0	478	609
5	0	0	0	0	478	609
6	0	0	0	0	479	613
7	0	0	0	0	479	609
8	0	0	0	0	479	609
9	0	0	0	0	479	609
10	0	0	0	0	479	604
11	0	0	0	0	480	609
12	0	0	0	0	480	609
13	0	0	0	0	480	609
14	0	0	0	0	481	613
15	0	0	0	0	481	609
0	0	0	0	0	481	608
1	0	0	0	0	481	609
2	0	0	0	0	481	604
3	0	0	0	0	481	610
4	0	0	0	0	481	609
5	0	0	0	0	481	609
6	0	0	0	0	482	613
7	0	0	0	0	482	609
8	0	0	0	0	483	609
9	0	0	0	0	483	609
10	0	0	0	0	483	604
11	0	0	0	0	484	610
12	0	0	0	0	484	609
13	0	0	0	0	484	610
14	0	0	0	0	484	614
15	0	0	0	0	484	611
0	0	0	0	0	484	611
1	0	0	0	0	485	611
2	0	0	0	0	486	605
3	0	0	0	0	486	610
4	0	0	0	0	487	611
5	0	0	0	0	487	610
6	0	0	0	0	487	614
7	0	0	0	0	488	610
8	0	0	0	0	488	610
9	0	0	0	0	489	610
10	0	0	0	0	491	605
11	0	0	0	0	491	611
12	0	0	0	0	492	610
13	0	0	0	0	492	610
14	0	0	0	0	492	615
15	0	0	0	0	492	611
0	0	0	0	0	492	611
1	0	0	0	0	492	611
2	0	0	0	0	493	605
3	0	0	0	0	493	611
4	0	0	0	0	494	610
5	0	0	0	0	494	610
6	0	0	0	0	495	614
7	0	0	0	0	495	610
8	0	0	0	0	495	610
9	0	0	0	0	495	610
10	0	0	0	0	495	605
11	0	0	0	0	495	610
12	0	0	0	0	496	610
13	0	0	0	0	497	610
14	0	0	0	0	498	614
15	0	0	0	0	498	610
0	0	0	0	0	497	610
1	0	0	0	0	498	609
2	0	0	0	0	499	604
3	0	0	0	0	499	609
4	0	0	0	0	500	610
5	0	0	0	0	500	609
6	0	0	0	0	501	614
7	0	0	0	0	501	611
8	0	0	0	0	501	610
9	0	0	0	0	501	609
10	0	0	0	0	501	605
11	0	0	0	0	501	610
12	0	0	0	0	501	611
13	0	0	0	0	500	610
14	0	0	0	0	501	615
15	0	0	0	0	501	610
0	0	0	0	0	501	610
1	0	0	0	0	501	610
2	0	0	0	0	502	605
3	0	0	0	0	502	610
4	0	0	0	0	503	610
5	0	0	0	0	503	609
6	0	0	0	0	504	614
7	0	0	0	0	504	610
8	0	0	0	0	504	610
9	0	0	0	0	504	609
10	0	0	0	0	504	604
11	0	0	0	0	504	609
12	0	0	0	0	504	610
13	0	0	0	0	504	610
14	0	0	0	0	504	614
15	0	0	0	0	506	609
0	0	0	0	0	507	609
1	0	0	0	0	507	609
2	0	0	0	0	509	604
3	0	0	0	0	509	609
4	0	0	0	0	509	609
5	0	0	0	0	510	609
6	0	0	0	0	510	613
7	0	0	0	0	511	609
8	0	0	0	0	511	609
9	0	0	0	0	512	609
10	0	0	0	0	512	604
11	0	0	0	0	512	608
12	0	0	0	0	513	609
13	0	0	0	0	514	609
14	0	0	0	0	515	614
15	0	0	0	0	516	609
0	0	0	0	0	516	609
1	0	0	0	0	517	609
2	0	0	0	0	517	604
3	0	0	0	0	517	609
4	0	0	0	0	517	609
5	0	0	0	0	518	609
6	0	0	0	0	518	613
7	0	0	0	0	518	609
8	0	0	0	0	518	609
9	0	0	0	0	519	610
10	0	0	0	0	519	604
11	0	0	0	0	520	609
12	0	0	0	0	520	610
13	0	0	0	0	520	610
14	0	0	0	0	521	614
15	0	0	0	0	521	610
0	0	0	0	0	522	610
1	0	0	0	0	523	610
2	0	0	0	0	523	605
3	0	0	0	0	523	610
4	0	0	0	0	524	610
5	0	0	0	0	524	610
6	0	0	0	0	524	614
7	0	0	0	0	524	610
8	0	0	0	0	524	610
9	0	0	0	0	524	610
10	0	0	0	0	525	604
11	0	0	0	0	526	610
12	0	0	0	0	526	610
13	0	0	0	0	527	609
14	0	0	0	0	527	614
15	0	0	0	0	528	610
0	0	0	0	0	528	610
1	0	0	0	0	528	609
2	0	0	0	0	528	605
3	0	0	0	0	528	610
4	0	0	0	0	528	610
5	0	0	0	0	529	610
6	0	0	0	0	529	614
7	0	0	0	0	529	611
8	0	0	0	0	529	610
9	0	0	0	0	530	610
10	0	0	0	0	530	605
11	0	0	0	0	531	610
12	0	0	0	0	530	611
13	0	0	0	0	530	610
14	0	0	0	0	530	614
15	0	0	0	0	530	610
0	0	0	0	0	530	609
1	0	0	0	0	530	609
2	0	0	0	0	529	604
3	0	0	0	0	529	610
4	0	0	0	0	529	610
5	0	0	0	0	529	610
6	0	0	0	0	529	614
7	0	0	0	0	529	609
8	0	0	0	0	529	609
9	0	0	0	0	529	609
10	0	0	0	0	529	604
11	0	0	0	0	529	609
12	0	0	0	0	528	609
13	0	0	0	0	528	610
14	0	0	0	0	528	614
15	0	0	0	0	527	609
0	0	0	0	0	528	609
1	0	0	0	0	527	609
2	0	0	0	0	527	604
3	0	0	0	0	527	609
4	0	0	0	0	527	609
5	0	0	0	0	527	610
6	0	0	0	0	526	614
7	0	0	0	0	526	609
8	0	0	0	0	525	609
9	0	0	0	0	525	609
10	0	0	0	0	525	605
11	0	0	0	0	524	609
12	0	0	0	0	524	609
13	0	0	0	0	524	609
14	0	0	0	0	523	614
15	0	0	0	0	523	609
0	0	0	0	0	523	610
1	0	0	0	0	522	609
2	0	0	0	0	521	604
3	0	0	0	0	521	609
4	0	0	0	0	520	609
5	0	0	0	0	519	609
6	0	0	0	0	519	614
7	0	0	0	0	519	609
8	0	0	0	0	519	609
9	0	0	0	0	519	610
10	0	0	0	0	519	604
11	0	0	0	0	518	609
12	0	0	0	0	518	609
13	0	0	0	0	517	610
14	0	0	0	0	517	614
15	0	0	0	0	517	609
0	0	0	0	0	517	610
1	0	0	0	0	516	609
2	0	0	0	0	515	604
3	0	0	0	0	515	610
4	0	0	0	0	515	610
5	0	0	0	0	514	610
6	0	0	0	0	514	614
7	0	0	0	0	513	610
8	0	0	0	0	512	610
9	0	0	0	0	512	610
10	0	0	0	0	512	605
11	0	0	0	0	512	610
12	0	0	0	0	511	609
13	0	0	0	0	511	610
14	0	0	0	0	510	613
15	0	0	0	0	511	609
0	0	0	0	0	509	609
1	0	0	0	0	509	609
2	0	0	0	0	509	604
3	0	0	0	0	509	609
4	0	0	0	0	510	609
5	0	0	0	0	509	609
6	0	0	0	0	508	613
7	0	0	0	0	508	609
8	0	0	0	0	507	609
9	0	0	0	0	507	609
10	0	0	0	0	507	604
11	0	0	0	0	506	609
12	0	0	0	0	506	609
13	0	0	0	0	505	609
14	0	0	0	0	505	613
15	0	0	0	0	505	609
0	0	0	0	0	505	609
1	0	0	0	0	506	609
2	0	0	0	0	506	604
3	0	0	0	0	505	609
4	0	0	0	0	506	609
5	0	0	0	0	506	609
6	0	0	0	0	507	613
7	0	0	0	0	508	609
8	0	0	0	0	508	609
9	0	0	0	0	507	609
10	0	0	0	0	508	604
11	0	0	0	0	508	609
12	0	0	0	0	507	609
13	0	0	0	0	508	609
14	0	0	0	0	508	613
15	0	0	0	0	508	609
0	0	0	0	0	507	609
1	0	0	0	0	506	609
2	0	0	0	0	506	604
3	0	0	0	0	506	609
4	0	0	0	0	505	609
5	0	0	0	0	505	610
6	0	0	0	0	505	614
7	0	0	0	0	505	610
8	0	0	0	0	505	609
9	0	0	0	0	504	609
10	0	0	0	0	504	604
11	0	0	0	0	506	610
12	0	0	0	0	507	609
13	0	0	0	0	508	611
14	0	0	0	0	508	615
15	0	0	0	0	508	610
0	0	0	0	0	508	610
1	0	0	0	0	509	610
2	0	0	0	0	508	605
3	0	0	0	0	508	610
4	0	0	0	0	508	610
5	0	0	0	0	508	610
6	0	0	0	0	508	614
7	0	0	0	0	508	610
8	0	0	0	0	508	610
9	0	0	0	0	509	610
10	0	0	0	0	509	605
11	0	0	0	0	509	610
12	0	0	0	0	509	610
13	0	0	0	0	509	610
14	0	0	0	0	510	614
15	0	0	0	0	510	610
0	0	0	0	0	511	610
1	0	0	0	0	511	610
2	0	0	0	0	510	605
3	0	0	0	0	510	610
4	0	0	0	0	509	610
5	0	0	0	0	509	610
6	0	0	0	0	509	614
7	0	0	0	0	509	610
8	0	0	0	0	510	610
9	0	0	0	0	509	610
10	0	0	0	0	509	604
11	0	0	0	0	509	610
12	0	0	0	0	508	609
13	0	0	0	0	508	610
14	0	0	0	0	508	614
15	0	0	0	0	508	610
0	0	0	0	0	507	609
1	0	0	0	0	506	609
2	0	0	0	0	505	604
3	0	0	0	0	505	610
4	0	0	0	0	507	609
5	0	0	0	0	507	609
6	0	0	0	0	507	614
7	0	0	0	0	508	609
8	0	0	0	0	508	609
9	0	0	0	0	508	609
10	0	0	0	0	508	604
11	0	0	0	0	508	609
12	0	0	0	0	508	609
13	0	0	0	0	508	609
14	0	0	0	0	508	613
15	0	0	0	0	509	609
0	0	0	0	0	508	609
1	0	0	0	0	509	609
2	0	0	0	0	508	604
3	0	0	0	0	508	609
4	0	0	0	0	508	609
5	0	0	0	0	507	609
6	0	0	0	0	508	614
7	0	0	0	0	508	609
8	0	0	0	0	507	609
9	0	0	0	0	507	609
10	0	0	0	0	508	604
11	0	0	0	0	508	609
12	0	0	0	0	508	609
13	0	0	0	0	508	610
14	0	0	0	0	508	614
15	0	0	0	0	508	610
0	0	0	0	0	508	610
1	0	0	0	0	508	609
2	0	0	0	0	508	605
3	0	0	0	0	508	610
4	0	0	0	0	508	610
5	0	0	0	0	508	610
6	0	0	0	0	508	614
7	0	0	0	0	510	610
8	0	0	0	0	510	610
9	0	0	0	0	509	610
10	0	0	0	0	509	606
11	0	0	0	0	508	611
12	0	0	0	0	508	610
13	0	0	0	0	508	611
14	0	0	0	0	508	615
15	0	0	0	0	508	611
0	0	0	0	0	508	611
1	0	0	0	0	508	611
2	0	0	0	0	508	606
3	0	0	0	0	508	610
4	0	0	0	0	507	611
5	0	0	0	0	507	611
6	0	0	0	0	508	615
7	0	0	0	0	508	611
8	0	0	0	0	507	611
9	0	0	0	0	507	611
10	0	0	0	0	508	605
11	0	0	0	0	508	611
12	0	0	0	0	508	610
13	0	0	0	0	507	610
14	0	0	0	0	508	615
15	0	0	0	0	508	609
0	0	0	0	0	508	609
1	0	0	0	0	508	609
2	0	0	0	0	508	604
3	0	0	0	0	509	609
4	0	0	0	0	509	609
5	0	0	0	0	510	609
6	0	0	0	0	509	613
7	0	0	0	0	508	608
8	0	0	0	0	509	608
9	0	0	0	0	509	609
10	0	0	0	0	509	604
11	0	0	0	0	510	609
12	0	0	0	0	510	609
13	0	0	0	0	510	610
14	0	0	0	0	510	613
15	0	0	0	0	510	609
0	0	0	0	0	509	609
1	0	0	0	0	509	609
2	0	0	0	0	509	604
3	0	0	0	0	509	609
4	0	0	0	0	509	609
5	0	0	0	0	510	609
6	0	0	0	0	509	613
7	0	0	0	0	510	609
8	0	0	0	0	509	610
9	0	0	0	0	510	609
10	0	0	0	0	510	604
11	0	0	0	0	510	609
12	0	0	0	0	511	609
13	0	0	0	0	510	609
14	0	0	0	0	510	614
15	0	0	0	0	509	609
0	0	0	0	0	509	609
1	0	0	0	0	509	609
2	0	0	0	0	509	604
3	0	0	0	0	509	609
4	0	0	0	0	509	609
5	0	0	0	0	510	609
6	0	0	0	0	510	614
7	0	0	0	0	510	609
8	0	0	0	0	510	609
9	0	0	0	0	509	609
10	0	0	0	0	508	604
11	0	0	0	0	508	609
12	0	0	0	0	508	609
13	0	0	0	0	508	609
14	0	0	0	0	508	613
15	0	0	0	0	508	609
0	0	0	0	0	508	609
1	0	0	0	0	508	609
2	0	0	0	0	508	604
3	0	0	0	0	510	609
4	0	0	0	0	510	609
5	0	0	0	0	510	609
6	0	0	0	0	509	614
7	0	0	0	0	509	609
8	0	0	0	0	509	609
9	0	0	0	0	509	609
10	0	0	0	0	508	604
11	0	0	0	0	509	609
12	0	0	0	0	509	609
13	0	0	0	0	509	609
14	0	0	0	0	509	613
15	0	0	0	0	509	609
0	0	0	0	0	509	610
1	0	0	0	0	508	609
2	0	0	0	0	508	604
3	0	0	0	0	508	609
4	0	0	0	0	508	610
5	0	0	0	0	507	609
6	0	0	0	0	507	613
7	0	0	0	0	507	609
8	0	0	0	0	507	609
9	0	0	0	0	507	609
10	0	0	0	0	507	605
11	0	0	0	0	507	610
12	0	0	0	0	507	610
13	0	0	0	0	507	610
14	0	0	0	0	506	614
15	0	0	0	0	506	610
0	0	0	0	0	507	610
1	0	0	0	0	507	610
2	0	0	0	0	507	605
3	0	0	0	0	507	610
4	0	0	0	0	507	610
5	0	0	0	0	507	611
6	0	0	0	0	506	615
7	0	0	0	0	507	610
8	0	0	0	0	507	610
9	0	0	0	0	507	610
10	0	0	0	0	507	604
11	0	0	0	0	507	610
12	0	0	0	0	507	609
13	0	0	0	0	506	610
14	0	0	0	0	507	614
15	0	0	0	0	508	610
0	0	0	0	0	507	609
1	0	0	0	0	507	610
2	0	0	0	0	507	605
3	0	0	0	0	507	610
4	0	0	0	0	507	610
5	0	0	0	0	507	610
6	0	0	0	0	507	613
7	0	0	0	0	508	610
8	0	0	0	0	507	610
9	0	0	0	0	507	610
10	0	0	0	0	507	604
11	0	0	0	0	507	609
12	0	0	0	0	507	609
13	0	0	0	0	507	610
14	0	0	0	0	507	614
15	0	0	0	0	507	609
0	0	0	0	0	507	609
1	0	0	0	0	507	609
2	0	0	0	0	506	604
3	0	0	0	0	506	609
4	0	0	0	0	506	609
5	0	0	0	0	506	610
6	0	0	0	0	506	614
7	0	0	0	0	506	609
8	0	0	0	0	506	610
9	0	0	0	0	505	610
10	0	0	0	0	504	604
11	0	0	0	0	505	610
12	0	0	0	0	505	609
13	0	0	0	0	505	610
14	0	0	0	0	504	614
15	0	0	0	0	503	609
0	0	0	0	0	503	609
1	0	0	0	0	502	609
2	0	0	0	0	502	604
3	0	0	0	0	502	609
4	0	0	0	0	501	609
5	0	0	0	0	501	609
6	0	0	0	0	500	614
7	0	0	0	0	500	610
8	0	0	0	0	500	609
9	0	0	0	0	500	609
10	0	0	0	0	500	604
11	0	0	0	0	499	609
12	0	0	0	0	499	609
13	0	0	0	0	499	610
14	0	0	0	0	499	613
15	0	0	0	0	500	609
0	0	0	0	0	501	608
1	0	0	0	0	502	609
2	0	0	0	0	503	604
3	0	0	0	0	503	609
4	0	0	0	0	503	609
5	0	0	0	0	504	608
6	0	0	0	0	505	613
7	0	0	0	0	507	609
8	0	0	0	0	506	609
9	0	0	0	0	507	609
10	0	0	0	0	506	604
11	0	0	0	0	505	609
12	0	0	0	0	505	609
13	0	0	0	0	505	609
14	0	0	0	0	505	614
15	0	0	0	0	505	609
0	0	0	0	0	505	609
1	0	0	0	0	504	609
2	0	0	0	0	504	604
3	0	0	0	0	504	609
4	0	0	0	0	504	609
5	0	0	0	0	504	609
6	0	0	0	0	504	614
7	0	0	0	0	504	609
8	0	0	0	0	505	609
9	0	0	0	0	505	609
10	0	0	0	0	506	604
11	0	0	0	0	507	609
12	0	0	0	0	507	609
13	0	0	0	0	508	609
14	0	0	0	0	508	613
15	0	0	0	0	508	610
0	0	0	0	0	508	609
1	0	0	0	0	508	609
2	0	0	0	0	508	604
3	0	0	0	0	507	609
4	0	0	0	0	508	609
5	0	0	0	0	508	609
6	0	0	0	0	509	614
7	0	0	0	0	510	609
8	0	0	0	0	511	610
9	0	0	0	0	511	609
10	0	0	0	0	512	604
11	0	0	0	0	511	609
12	0	0	0	0	511	610
13	0	0	0	0	511	609
14	0	0	0	0	511	614
15	0	0	0	0	512	610
0	0	0	0	0	512	609
1	0	0	0	0	512	610
2	0	0	0	0	513	604
3	0	0	0	0	514	610
4	0	0	0	0	514	610
5	0	0	0	0	515	610
6	0	0	0	0	515	614
7	0	0	0	0	516	611
8	0	0	0	0	517	610
9	0	0	0	0	518	610
10	0	0	0	0	518	604
11	0	0	0	0	519	609
12	0	0	0	0	519	609
13	0	0	0	0	519	610
14	0	0	0	0	520	614
15	0	0	0	0	520	609
0	0	0	0	0	520	610
1	0	0	0	0	519	610
2	0	0	0	0	519	605
3	0	0	0	0	519	610
4	0	0	0	0	518	610
5	0	0	0	0	518	610
6	0	0	0	0	519	615
7	0	0	0	0	519	610
8	0	0	0	0	519	611
9	0	0	0	0	519	610
10	0	0	0	0	519	605
11	0	0	0	0	519	610
12	0	0	0	0	519	609
13	0	0	0	0	519	610
14	0	0	0	0	519	614
15	0	0	0	0	519	609
0	0	0	0	0	519	610
1	0	0	0	0	519	610
2	0	0	0	0	519	605
3	0	0	0	0	519	610
4	0	0	0	0	519	610
5	0	0	0	0	519	610
6	0	0	0	0	519	614
7	0	0	0	0	519	610
8	0	0	0	0	519	610
9	0	0	0	0	519	609
10	0	0	0	0	518	604
11	0	0	0	0	518	609
12	0	0	0	0	518	609
13	0	0	0	0	518	609
14	0	0	0	0	518	614
15	0	0	0	0	518	609
0	0	0	0	0	518	609
1	0	0	0	0	518	609
2	0	0	0	0	518	604
3	0	0	0	0	518	609
4	0	0	0	0	518	609
5	0	0	0	0	518	609
6	0	0	0	0	518	614
7	0	0	0	0	518	609
8	0	0	0	0	517	609
9	0	0	0	0	516	609
10	0	0	0	0	516	604
11	0	0	0	0	515	609
12	0	0	0	0	514	609
13	0	0	0	0	512	609
14	0	0	0	0	511	613
15	0	0	0	0	511	609
0	0	0	0	0	510	609
1	0	0	0	0	509	609
2	0	0	0	0	507	605
3	0	0	0	0	505	609
4	0	0	0	0	504	610
5	0	0	0	0	502	610
6	0	0	0	0	499	614
7	0	0	0	0	494	610
8	0	0	0	0	488	609
9	0	0	0	0	483	609
10	0	0	0	0	476	604
11	0	0	0	0	467	609
12	0	0	0	0	460	609
13	0	0	0	0	451	609
14	0	0	0	0	444	613
15	0	0	0	0	438	609
0	0	0	0	0	433	609
1	0	0	0	0	429	609
2	0	0	0	0	426	604
3	0	0	0	0	422	609
4	0	0	0	0	419	609
5	0	0	0	0	415	609
6	0	0	0	0	416	614
7	0	0	0	0	422	609
8	0	0	0	0	429	609
9	0	0	0	0	440	609
10	0	0	0	0	457	604
11	0	0	0	0	479	609
12	0	0	0	0	506	609
13	0	0	0	0	538	610
14	0	0	0	0	572	614
15	0	0	0	0	604	609
0	0	0	0	0	631	609
1	0	0	0	0	653	609
2	0	0	0	0	672	605
3	0	0	0	0	693	610
4	0	0	0	0	717	610
5	0	0	0	0	740	610
6	0	0	0	0	763	615
7	0	0	0	0	783	610
8	0	0	0	0	801	610
9	0	0	0	0	815	609
10	0	0	0	0	827	605
11	0	0	0	0	832	610
12	0	0	0	0	832	610
13	0	0	0	0	826	610
14	0	0	0	0	812	615
15	0	0	0	0	793	610
0	0	0	0	0	772	609
1	0	0	0	0	751	610
2	0	0	0	0	726	605
3	0	0	0	0	703	609
4	0	0	0	0	682	610
5	0	0	0	0	664	610
6	0	0	0	0	651	614
7	0	0	0	0	639	609
8	0	0	0	0	627	609
9	0	0	0	0	616	609
10	0	0	0	0	606	604
11	0	0	0	0	596	609
12	0	0	0	0	586	609
13	0	0	0	0	576	609
14	0	0	0	0	566	614
15	0	0	0	0	556	609
0	0	0	0	0	547	609
1	0	0	0	0	538	609
2	0	0	0	0	529	604
3	0	0	0	0	520	609
4	0	0	0	0	512	609
5	0	0	0	0	505	609
6	0	0	0	0	497	613
7	0	0	0	0	489	609
8	0	0	0	0	482	609
9	0	0	0	0	476	609
10	0	0	0	0	470	604
11	0	0	0	0	464	608
12	0	0	0	0	459	608
13	0	0	0	0	455	609
14	0	0	0	0	451	612
15	0	0	0	0	448	609
0	0	0	0	0	445	609
1	0	0	0	0	443	608
2	0	0	0	0	441	603
3	0	0	0	0	439	608
4	0	0	0	0	438	609
5	0	0	0	0	437	609
6	0	0	0	0	436	613
7	0	0	0	0	436	609
8	0	0	0	0	436	609
9	0	0	0	0	436	610
10	0	0	0	0	436	604
11	0	0	0	0	435	610
12	0	0	0	0	436	610
13	0	0	0	0	436	610
14	0	0	0	0	436	614
15	0	0	0	0	437	610
0	0	0	0	0	437	610
1	0	0	0	0	437	609
2	0	0	0	0	439	604
3	0	0	0	0	439	610
4	0	0	0	0	440	610
5	0	0	0	0	441	609
6	0	0	0	0	442	613
7	0	0	0	0	443	609
8	0	0	0	0	444	609
9	0	0	0	0	445	609
10	0	0	0	0	446	603
11	0	0	0	0	446	608
12	0	0	0	0	447	609
13	0	0	0	0	448	609
14	0	0	0	0	448	614
15	0	0	0	0	448	609
0	0	0	0	0	449	609
1	0	0	0	0	449	608
2	0	0	0	0	449	604
3	0	0	0	0	449	609
4	0	0	0	0	449	609
5	0	0	0	0	450	608
6	0	0	0	0	451	613
7	0	0	0	0	451	609
8	0	0	0	0	452	609
9	0	0	0	0	452	609
10	0	0	0	0	452	604
11	0	0	0	0	452	608
12	0	0	0	0	453	608
13	0	0	0	0	454	609
14	0	0	0	0	454	613
15	0	0	0	0	455	608
0	0	0	0	0	455	609
1	0	0	0	0	456	610
2	0	0	0	0	457	604
3	0	0	0	0	457	609
4	0	0	0	0	458	610
5	0	0	0	0	458	610
6	0	0	0	0	459	614
7	0	0	0	0	460	609
8	0	0	0	0	460	610
9	0	0	0	0	460	610
10	0	0	0	0	460	605
11	0	0	0	0	460	610
12	0	0	0	0	460	609
13	0	0	0	0	460	610
14	0	0	0	0	460	615
15	0	0	0	0	461	610
0	0	0	0	0	462	610
1	0	0	0	0	462	610
2	0	0	0	0	462	604
3	0	0	0	0	462	610
4	0	0	0	0	462	610
5	0	0	0	0	462	610
6	0	0	0	0	462	615
7	0	0	0	0	462	610
8	0	0	0	0	462	609
9	0	0	0	0	463	609
10	0	0	0	0	463	604
11	0	0	0	0	463	609
12	0	0	0	0	463	609
13	0	0	0	0	463	610
14	0	0	0	0	463	613
15	0	0	0	0	464	609
0	0	0	0	0	465	609
1	0	0	0	0	465	609
2	0	0	0	0	467	604
3	0	0	0	0	466	609
4	0	0	0	0	466	609
5	0	0	0	0	467	609
6	0	0	0	0	467	613
7	0	0	0	0	468	609
8	0	0	0	0	468	609
9	0	0	0	0	468	608
10	0	0	0	0	468	603
11	0	0	0	0	469	608
12	0	0	0	0	470	609
13	0	0	0	0	470	609
14	0	0	0	0	471	613
15	0	0	0	0	471	609
0	0	0	0	0	472	609
1	0	0	0	0	472	609
2	0	0	0	0	472	604
3	0	0	0	0	472	608
4	0	0	0	0	473	609
5	0	0	0	0	473	609
6	0	0	0	0	474	614
7	0	0	0	0	475	609
8	0	0	0	0	476	609
9	0	0	0	0	477	608
10	0	0	0	0	478	604
11	0	0	0	0	478	609
12	0	0	0	0	477	608
13	0	0	0	0	478	609
14	0	0	0	0	479	613
15	0	0	0	0	478	609
0	0	0	0	0	479	609
1	0	0	0	0	480	609
2	0	0	0	0	480	604
3	0	0	0	0	480	609
4	0	0	0	0	481	609
5	0	0	0	0	481	609
6	0	0	0	0	481	613
7	0	0	0	0	483	610
8	0	0	0	0	482	609
9	0	0	0	0	483	610
10	0	0	0	0	483	604
11	0	0	0	0	484	609
12	0	0	0	0	485	610
13	0	0	0	0	484	610
14	0	0	0	0	485	614
15	0	0	0	0	485	610
0	0	0	0	0	485	609
1	0	0	0	0	486	609
2	0	0	0	0	486	604
3	0	0	0	0	486	609
4	0	0	0	0	486	609
5	0	0	0	0	487	611
6	0	0	0	0	487	614
7	0	0	0	0	487	610
8	0	0	0	0	487	610
9	0	0	0	0	488	610
10	0	0	0	0	489	605
11	0	0	0	0	489	610
12	0	0	0	0	489	610
13	0	0	0	0	490	611
14	0	0	0	0	491	615
15	0	0	0	0	492	610
0	0	0	0	0	493	610
1	0	0	0	0	493	610
2	0	0	0	0	494	605
3	0	0	0	0	494	611
4	0	0	0	0	495	611
5	0	0	0	0	496	611
6	0	0	0	0	497	615
7	0	0	0	0	498	610
8	0	0	0	0	498	610
9	0	0	0	0	498	609
10	0	0	0	0	499	604
11	0	0	0	0	499	609
12	0	0	0	0	500	609
13	0	0	0	0	500	609
14	0	0	0	0	499	614
15	0	0	0	0	500	609
0	0	0	0	0	499	610
1	0	0	0	0	500	609
2	0	0	0	0	501	604
3	0	0	0	0	502	609
4	0	0	0	0	502	609
5	0	0	0	0	502	609
6	0	0	0	0	502	613
7	0	0	0	0	502	609
8	0	0	0	0	502	609
9	0	0	0	0	502	608
10	0	0	0	0	503	604
11	0	0	0	0	503	609
12	0	0	0	0	504	609
13	0	0	0	0	504	609
14	0	0	0	0	504	613
15	0	0	0	0	504	608
0	0	0	0	0	504	608
1	0	0	0	0	504	608
2	0	0	0	0	504	604
3	0	0	0	0	505	609
4	0	0	0	0	506	609
5	0	0	0	0	507	608
6	0	0	0	0	507	613
7	0	0	0	0	508	608
8	0	0	0	0	507	609
9	0	0	0	0	508	608
10	0	0	0	0	508	603
11	0	0	0	0	509	609
12	0	0	0	0	509	608
13	0	0	0	0	508	609
14	0	0	0	0	508	613
15	0	0	0	0	508	608
0	0	0	0	0	508	609
1	0	0	0	0	509	609
2	0	0	0	0	508	604
3	0	0	0	0	508	609
4	0	0	0	0	508	609
5	0	0	0	0	508	610
6	0	0	0	0	509	615
7	0	0	0	0	510	610
8	0	0	0	0	509	610
9	0	0	0	0	510	609
10	0	0	0	0	509	604
11	0	0	0	0	509	609
12	0	0	0	0	510	609
13	0	0	0	0	510	610
14	0	0	0	0	511	613
15	0	0	0	0	511	609
0	0	0	0	0	511	609
1	0	0	0	0	512	609
2	0	0	0	0	512	604
3	0	0	0	0	512	609
4	0	0	0	0	512	609
5	0	0	0	0	512	609
6	0	0	0	0	513	613
7	0	0	0	0	514	609
8	0	0	0	0	514	609
9	0	0	0	0	514	609
10	0	0	0	0	514	604
11	0	0	0	0	515	609
12	0	0	0	0	515	609
13	0	0	0	0	515	609
14	0	0	0	0	516	613
15	0	0	0	0	516	609
0	0	0	0	0	517	609
1	0	0	0	0	517	609
2	0	0	0	0	518	604
3	0	0	0	0	518	609
4	0	0	0	0	519	609
5	0	0	0	0	519	610
6	0	0	0	0	519	613
7	0	0	0	0	519	609
8	0	0	0	0	519	609
9	0	0	0	0	519	609
10	0	0	0	0	519	605
11	0	0	0	0	519	610
12	0	0	0	0	520	610
13	0	0	0	0	520	610
14	0	0	0	0	520	614
15	0	0	0	0	521	611
0	0	0	0	0	521	610
1	0	0	0	0	521	610
2	0	0	0	0	521	606
3	0	0	0	0	520	610
4	0	0	0	0	519	611
5	0	0	0	0	519	611
6	0	0	0	0	519	615
7	0	0	0	0	519	610
8	0	0	0	0	520	610
9	0	0	0	0	520	610
10	0	0	0	0	520	605
11	0	0	0	0	521	609
12	0	0	0	0	521	610
13	0	0	0	0	522	609
14	0	0	0	0	522	614
15	0	0	0	0	522	609
0	0	0	0	0	522	608
1	0	0	0	0	522	609
2	0	0	0	0	522	603
3	0	0	0	0	522	608
4	0	0	0	0	523	608
5	0	0	0	0	523	609
6	0	0	0	0	523	613
7	0	0	0	0	524	609
8	0	0	0	0	523	608
9	0	0	0	0	523	608
10	0	0	0	0	523	604
11	0	0	0	0	524	609
12	0	0	0	0	524	608
13	0	0	0	0	524	608
14	0	0	0	0	523	613
15	0	0	0	0	523	608
0	0	0	0	0	523	608
1	0	0	0	0	523	608
2	0	0	0	0	523	604
3	0	0	0	0	521	609
4	0	0	0	0	521	608
5	0	0	0	0	520	609
6	0	0	0	0	520	613
7	0	0	0	0	521	609
8	0	0	0	0	521	609
9	0	0	0	0	521	609
10	0	0	0	0	521	604
11	0	0	0	0	521	609
12	0	0	0	0	521	609
13	0	0	0	0	522	609
14	0	0	0	0	522	614
15	0	0	0	0	522	609
0	0	0	0	0	521	609
1	0	0	0	0	521	609
2	0	0	0	0	520	604
3	0	0	0	0	520	609
4	0	0	0	0	520	609
5	0	0	0	0	520	609
6	0	0	0	0	519	614
7	0	0	0	0	519	609
8	0	0	0	0	519	609
9	0	0	0	0	519	609
10	0	0	0	0	519	605
11	0	0	0	0	519	610
12	0	0	0	0	519	610
13	0	0	0	0	519	609
14	0	0	0	0	519	615
15	0	0	0	0	518	610
0	0	0	0	0	517	610
1	0	0	0	0	517	610
2	0	0	0	0	516	605
3	0	0	0	0	517	611
4	0	0	0	0	516	610
5	0	0	0	0	515	610
6	0	0	0	0	515	614
7	0	0	0	0	515	610
8	0	0	0	0	515	610
9	0	0	0	0	514	610
10	0	0	0	0	513	604
11	0	0	0	0	513	609
12	0	0	0	0	513	609
13	0	0	0	0	513	610
14	0	0	0	0	513	614
15	0	0	0	0	514	609
0	0	0	0	0	513	609
1	0	0	0	0	513	609
2	0	0	0	0	513	604
3	0	0	0	0	513	609
4	0	0	0	0	512	609
5	0	0	0	0	512	609
6	0	0	0	0	512	614
7	0	0	0	0	513	609
8	0	0	0	0	512	609
9	0	0	0	0	512	609
10	0	0	0	0	512	604
11	0	0	0	0	512	609
12	0	0	0	0	513	609
13	0	0	0	0	513	609
14	0	0	0	0	513	612
15	0	0	0	0	513	608
0	0	0	0	0	513	608
1	0	0	0	0	513	608
2	0	0	0	0	512	603
3	0	0	0	0	512	608
4	0	0	0	0	512	608
5	0	0	0	0	513	608
6	0	0	0	0	514	613
7	0	0	0	0	514	609
8	0	0	0	0	514	609
9	0	0	0	0	514	608
10	0	0	0	0	514	604
11	0	0	0	0	514	608
12	0	0	0	0	514	609
13	0	0	0	0	515	609
14	0	0	0	0	515	613
15	0	0	0	0	514	609
0	0	0	0	0	513	609
1	0	0	0	0	513	609
2	0	0	0	0	513	604
3	0	0	0	0	514	609
4	0	0	0	0	513	609
5	0	0	0	0	514	609
6	0	0	0	0	513	613
7	0	0	0	0	513	609
8	0	0	0	0	513	609
9	0	0	0	0	512	609
10	0	0	0	0	513	604
11	0	0	0	0	513	609
12	0	0	0	0	513	609
13	0	0	0	0	513	609
14	0	0	0	0	513	614
15	0	0	0	0	513	610
0	0	0	0	0	513	610
1	0	0	0	0	513	609
2	0	0	0	0	514	604
3	0	0	0	0	514	610
4	0	0	0	0	514	609
5	0	0	0	0	514	610
6	0	0	0	0	514	614
7	0	0	0	0	514	610
8	0	0	0	0	515	610
9	0	0	0	0	515	610
10	0	0	0	0	515	605
11	0	0	0	0	515	609
12	0	0	0	0	515	609
13	0	0	0	0	515	610
14	0	0	0	0	516	614
15	0	0	0	0	516	610
0	0	0	0	0	517	609
1	0	0	0	0	517	609
2	0	0	0	0	518	603
3	0	0	0	0	517	609
4	0	0	0	0	518	609
5	0	0	0	0	518	609
6	0	0	0	0	518	613
7	0	0	0	0	518	609
8	0	0	0	0	519	609
9	0	0	0	0	518	609
10	0	0	0	0	518	604
11	0	0	0	0	518	609
12	0	0	0	0	517	609
13	0	0	0	0	518	609
14	0	0	0	0	517	613
15	0	0	0	0	517	609
0	0	0	0	0	516	609
1	0	0	0	0	517	609
2	0	0	0	0	516	604
3	0	0	0	0	516	608
4	0	0	0	0	517	608
5	0	0	0	0	517	609
6	0	0	0	0	517	612
7	0	0	0	0	518	608
8	0	0	0	0	518	608
9	0	0	0	0	519	609
10	0	0	0	0	519	603
11	0	0	0	0	519	608
12	0	0	0	0	519	609
13	0	0	0	0	519	608
14	0	0	0	0	519	612
15	0	0	0	0	520	608
0	0	0	0	0	520	608
1	0	0	0	0	520	608
2	0	0	0	0	520	604
3	0	0	0	0	520	609
4	0	0	0	0	520	609
5	0	0	0	0	519	609
6	0	0	0	0	520	614
7	0	0	0	0	520	610
8	0	0	0	0	520	610
9	0	0	0	0	521	610
10	0	0	0	0	520	605
11	0	0	0	0	520	610
12	0	0	0	0	519	610
13	0	0	0	0	519	610
14	0	0	0	0	519	615
15	0	0	0	0	520	611
0	0	0	0	0	520	610
1	0	0	0	0	520	610
2	0	0	0	0	520	604
3	0	0	0	0	520	609
4	0	0	0	0	521	610
5	0	0	0	0	521	610
6	0	0	0	0	521	613
7	0	0	0	0	521	610
8	0	0	0	0	520	609
9	0	0	0	0	520	610
10	0	0	0	0	520	604
11	0	0	0	0	520	610
12	0	0	0	0	519	610
13	0	0	0	0	519	610
14	0	0	0	0	518	614
15	0	0	0	0	517	610
0	0	0	0	0	517	610
1	0	0	0	0	517	609
2	0	0	0	0	517	604
3	0	0	0	0	516	609
4	0	0	0	0	517	609
5	0	0	0	0	517	609
6	0	0	0	0	516	614
7	0	0	0	0	516	609
8	0	0	0	0	515	609
9	0	0	0	0	515	609
10	0	0	0	0	515	604
11	0	0	0	0	515	609
12	0	0	0	0	516	609
13	0	0	0	0	515	609
14	0	0	0	0	515	614
15	0	0	0	0	515	609
0	0	0	0	0	515	609
1	0	0	0	0	516	609
2	0	0	0	0	515	604
3	0	0	0	0	515	609
4	0	0	0	0	515	609
5	0	0	0	0	516	609
6	0	0	0	0	516	614
7	0	0	0	0	517	609
8	0	0	0	0	516	609
9	0	0	0	0	517	609
10	0	0	0	0	517	604
11	0	0	0	0	517	609
12	0	0	0	0	518	610
13	0	0	0	0	518	610
14	0	0	0	0	517	614
15	0	0	0	0	517	609
0	0	0	0	0	516	610
1	0	0	0	0	517	609
2	0	0	0	0	517	604
3	0	0	0	0	516	609
4	0	0	0	0	515	609
5	0	0	0	0	515	610
6	0	0	0	0	515	614
7	0	0	0	0	515	609
8	0	0	0	0	514	610
9	0	0	0	0	514	610
10	0	0	0	0	513	605
11	0	0	0	0	513	609
12	0	0	0	0	512	609
13	0	0	0	0	512	609
14	0	0	0	0	512	613
15	0	0	0	0	511	609
0	0	0	0	0	511	609
1	0	0	0	0	511	609
2	0	0	0	0	511	604
3	0	0	0	0	511	609
4	0	0	0	0	511	609
5	0	0	0	0	512	609
6	0	0	0	0	512	613
7	0	0	0	0	512	609
8	0	0	0	0	512	609
9	0	0	0	0	511	608
10	0	0	0	0	512	604
11	0	0	0	0	511	609
12	0	0	0	0	511	608
13	0	0	0	0	512	608
14	0	0	0	0	511	612
15	0	0	0	0	511	608
0	0	0	0	0	511	608
1	0	0	0	0	511	608
2	0	0	0	0	511	604
3	0	0	0	0	511	608
4	0	0	0	0	510	609
5	0	0	0	0	511	609
6	0	0	0	0	510	613
7	0	0	0	0	510	608
8	0	0	0	0	510	609
9	0	0	0	0	510	609
10	0	0	0	0	510	604
11	0	0	0	0	510	609
12	0	0	0	0	511	610
13	0	0	0	0	511	609
14	0	0	0	0	511	614
15	0	0	0	0	511	610
0	0	0	0	0	510	609
1	0	0	0	0	509	609
2	0	0	0	0	509	604
3	0	0	0	0	509	609
4	0	0	0	0	509	610
5	0	0	0	0	508	610
6	0	0	0	0	508	614
7	0	0	0	0	508	610
8	0	0	0	0	508	609
9	0	0	0	0	508	609
10	0	0	0	0	508	604
11	0	0	0	0	507	609
12	0	0	0	0	507	610
13	0	0	0	0	507	610
14	0	0	0	0	507	614
15	0	0	0	0	508	610
0	0	0	0	0	508	609
1	0	0	0	0	507	609
2	0	0	0	0	507	604
3	0	0	0	0	508	609
4	0	0	0	0	509	609
5	0	0	0	0	509	609
6	0	0	0	0	509	613
7	0	0	0	0	509	609
8	0	0	0	0	509	609
9	0	0	0	0	509	609
10	0	0	0	0	509	605
11	0	0	0	0	509	610
12	0	0	0	0	509	609
13	0	0	0	0	509	610
14	0	0	0	0	508	614
15	0	0	0	0	508	610
0	0	0	0	0	508	609
1	0	0	0	0	508	609
2	0	0	0	0	508	604
3	0	0	0	0	508	609
4	0	0	0	0	508	609
5	0	0	0	0	508	609
6	0	0	0	0	508	613
7	0	0	0	0	508	609
8	0	0	0	0	507	609
9	0	0	0	0	507	609
10	0	0	0	0	507	605
11	0	0	0	0	507	609
12	0	0	0	0	507	609
13	0	0	0	0	508	610
14	0	0	0	0	508	614
15	0	0	0	0	508	609
0	0	0	0	0	508	609
1	0	0	0	0	508	609
2	0	0	0	0	508	604
3	0	0	0	0	508	609
4	0	0	0	0	509	610
5	0	0	0	0	509	610
6	0	0	0	0	509	614
7	0	0	0	0	509	610
8	0	0	0	0	509	609
9	0	0	0	0	508	609
10	0	0	0	0	507	604
11	0	0	0	0	507	609
12	0	0	0	0	506	609
13	0	0	0	0	506	609
14	0	0	0	0	505	613
15	0	0	0	0	504	609
0	0	0	0	0	504	610
1	0	0	0	0	503	609
2	0	0	0	0	503	605
3	0	0	0	0	502	610
4	0	0	0	0	500	609
5	0	0	0	0	499	610
6	0	0	0	0	499	614
7	0	0	0	0	498	610
8	0	0	0	0	498	610
9	0	0	0	0	498	610
10	0	0	0	0	498	605
11	0	0	0	0	497	610
12	0	0	0	0	496	610
13	0	0	0	0	497	610
14	0	0	0	0	497	614
15	0	0	0	0	497	610
0	0	0	0	0	497	611
1	0	0	0	0	497	610
2	0	0	0	0	497	606
3	0	0	0	0	497	610
4	0	0	0	0	497	610
5	0	0	0	0	497	610
6	0	0	0	0	497	614
7	0	0	0	0	497	609
8	0	0	0	0	497	609
9	0	0	0	0	497	609
10	0	0	0	0	498	604
11	0	0	0	0	499	609
12	0	0	0	0	499	609
13	0	0	0	0	499	609
14	0	0	0	0	499	613
15	0	0	0	0	500	609
0	0	0	0	0	500	608
1	0	0	0	0	500	608
2	0	0	0	0	501	603
3	0	0	0	0	501	608
4	0	0	0	0	502	608
5	0	0	0	0	502	609
6	0	0	0	0	503	613
7	0	0	0	0	504	608
8	0	0	0	0	504	609
9	0	0	0	0	504	609
10	0	0	0	0	503	604
11	0	0	0	0	503	608
12	0	0	0	0	503	608
13	0	0	0	0	503	609
14	0	0	0	0	503	613
15	0	0	0	0	503	609
0	0	0	0	0	504	608
1	0	0	0	0	504	608
2	0	0	0	0	504	604
3	0	0	0	0	504	609
4	0	0	0	0	505	609
5	0	0	0	0	504	609
6	0	0	0	0	504	613
7	0	0	0	0	505	609
8	0	0	0	0	504	609
9	0	0	0	0	504	609
10	0	0	0	0	503	603
11	0	0	0	0	503	609
12	0	0	0	0	503	609
13	0	0	0	0	503	609
14	0	0	0	0	504	614
15	0	0	0	0	505	609
0	0	0	0	0	505	609
1	0	0	0	0	505	609
2	0	0	0	0	506	605
3	0	0	0	0	506	609
4	0	0	0	0	507	609
5	0	0	0	0	507	610
6	0	0	0	0	507	614
7	0	0	0	0	507	610
8	0	0	0	0	507	611
9	0	0	0	0	508	610
10	0	0	0	0	508	605
11	0	0	0	0	509	611
12	0	0	0	0	510	611
13	0	0	0	0	511	611
14	0	0	0	0	512	615
15	0	0	0	0	512	611
0	0	0	0	0	513	611
1	0	0	0	0	513	610
2	0	0	0	0	514	605
3	0	0	0	0	514	610
4	0	0	0	0	514	610
5	0	0	0	0	515	610
6	0	0	0	0	514	614
7	0	0	0	0	515	610
8	0	0	0	0	514	609
9	0	0	0	0	514	609
10	0	0	0	0	514	605
11	0	0	0	0	514	609
12	0	0	0	0	515	609
13	0	0	0	0	515	609
14	0	0	0	0	515	614
15	0	0	0	0	515	609
0	0	0	0	0	516	610
1	0	0	0	0	516	609
2	0	0	0	0	515	604
3	0	0	0	0	515	609
4	0	0	0	0	515	609
5	0	0	0	0	515	609
6	0	0	0	0	515	614
7	0	0	0	0	515	609
8	0	0	0	0	515	609
9	0	0	0	0	516	609
10	0	0	0	0	515	604
11	0	0	0	0	515	610
12	0	0	0	0	516	609
13	0	0	0	0	515	609
14	0	0	0	0	515	614
15	0	0	0	0	516	609
0	0	0	0	0	516	609
1	0	0	0	0	517	609
2	0	0	0	0	516	604
3	0	0	0	0	516	609
4	0	0	0	0	517	609
5	0	0	0	0	517	609
6	0	0	0	0	517	614
7	0	0	0	0	516	609
8	0	0	0	0	515	609
9	0	0	0	0	515	609
10	0	0	0	0	515	604
11	0	0	0	0	515	609
12	0	0	0	0	515	610
13	0	0	0	0	516	610
14	0	0	0	0	515	614
15	0	0	0	0	516	610
0	0	0	0	0	516	610
1	0	0	0	0	515	610
2	0	0	0	0	515	604
3	0	0	0	0	513	609
4	0	0	0	0	512	611
5	0	0	0	0	511	610
6	0	0	0	0	511	614
7	0	0	0	0	509	609
8	0	0	0	0	508	609
9	0	0	0	0	508	609
10	0	0	0	0	507	604
11	0	0	0	0	505	609
12	0	0	0	0	504	609
13	0	0	0	0	501	609
14	0	0	0	0	496	614
15	0	0	0	0	492	609
0	0	0	0	0	486	609
1	0	0	0	0	481	610
2	0	0	0	0	474	604
3	0	0	0	0	467	610
4	0	0	0	0	458	609
5	0	0	0	0	450	609
6	0	0	0	0	442	613
7	0	0	0	0	436	609
8	0	0	0	0	431	609
9	0	0	0	0	427	608
10	0	0	0	0	423	604
11	0	0	0	0	420	609
12	0	0	0	0	417	609
13	0	0	0	0	414	609
14	0	0	0	0	414	613
15	0	0	0	0	419	608
0	0	0	0	0	427	610
1	0	0	0	0	439	609
2	0	0	0	0	455	604
3	0	0	0	0	478	609
4	0	0	0	0	505	609
5	0	0	0	0	536	610
6	0	0	0	0	570	614
7	0	0	0	0	602	609
8	0	0	0	0	628	609
9	0	0	0	0	649	609
10	0	0	0	0	668	604
11	0	0	0	0	690	609
12	0	0	0	0	713	609
13	0	0	0	0	735	609
14	0	0	0	0	756	613
15	0	0	0	0	775	609
0	0	0	0	0	792	609
1	0	0	0	0	806	609
2	0	0	0	0	817	604
3	0	0	0	0	823	609
4	0	0	0	0	822	609
5	0	0	0	0	815	610
6	0	0	0	0	802	614
7	0	0	0	0	783	609
8	0	0	0	0	761	609
9	0	0	0	0	740	609
10	0	0	0	0	716	605
11	0	0	0	0	694	610
12	0	0	0	0	675	609
13	0	0	0	0	658	609
14	0	0	0	0	646	615
15	0	0	0	0	635	610
0	0	0	0	0	624	610
1	0	0	0	0	613	610
2	0	0	0	0	602	605
3	0	0	0	0	592	611
4	0	0	0	0	583	611
5	0	0	0	0	572	610
6	0	0	0	0	562	614
7	0	0	0	0	552	609
8	0	0	0	0	543	610
9	0	0	0	0	533	610
10	0	0	0	0	525	605
11	0	0	0	0	517	610
12	0	0	0	0	510	610
13	0	0	0	0	503	610
14	0	0	0	0	496	615
15	0	0	0	0	489	610
0	0	0	0	0	483	610
1	0	0	0	0	477	609
2	0	0	0	0	472	605
3	0	0	0	0	467	610
4	0	0	0	0	462	610
5	0	0	0	0	457	610
6	0	0	0	0	454	614
7	0	0	0	0	451	610
8	0	0	0	0	448	609
9	0	0	0	0	447	609
10	0	0	0	0	444	604
11	0	0	0	0	443	609
12	0	0	0	0	441	609
13	0	0	0	0	439	609
14	0	0	0	0	438	613
15	0	0	0	0	438	609
0	0	0	0	0	437	608
1	0	0	0	0	436	608
2	0	0	0	0	436	603
3	0	0	0	0	435	608
4	0	0	0	0	435	608
5	0	0	0	0	435	609
6	0	0	0	0	436	613
7	0	0	0	0	437	608
8	0	0	0	0	438	608
9	0	0	0	0	438	608
10	0	0	0	0	438	603
11	0	0	0	0	439	608
12	0	0	0	0	439	608
13	0	0	0	0	440	608
14	0	0	0	0	440	613
15	0	0	0	0	441	609
0	0	0	0	0	441	608
1	0	0	0	0	442	608
2	0	0	0	0	442	604
3	0	0	0	0	443	609
4	0	0	0	0	444	608
5	0	0	0	0	444	609
6	0	0	0	0	444	613
7	0	0	0	0	445	609
8	0	0	0	0	446	609
9	0	0	0	0	446	609
10	0	0	0	0	447	604
11	0	0	0	0	447	609
12	0	0	0	0	448	609
13	0	0	0	0	448	609
14	0	0	0	0	449	614
15	0	0	0	0	450	610
0	0	0	0	0	450	610
1	0	0	0	0	451	610
2	0	0	0	0	451	605
3	0	0	0	0	451	610
4	0	0	0	0	452	610
5	0	0	0	0	452	610
6	0	0	0	0	452	614
7	0	0	0	0	453	610
8	0	0	0	0	453	609
9	0	0	0	0	453	609
10	0	0	0	0	454	605
11	0	0	0	0	454	611
12	0	0	0	0	454	611
13	0	0	0	0	455	610
14	0	0	0	0	456	614
15	0	0	0	0	457	611
0	0	0	0	0	458	610
1	0	0	0	0	459	610
2	0	0	0	0	460	605
3	0	0	0	0	460	611
4	0	0	0	0	461	611
5	0	0	0	0	462	611
6	0	0	0	0	462	615
7	0	0	0	0	463	611
8	0	0	0	0	464	611
9	0	0	0	0	465	611
10	0	0	0	0	465	605
11	0	0	0	0	465	611
12	0	0	0	0	465	610
13	0	0	0	0	466	611
14	0	0	0	0	467	614
15	0	0	0	0	467	610
0	0	0	0	0	467	609
1	0	0	0	0	467	609
2	0	0	0	0	467	605
3	0	0	0	0	467	609
4	0	0	0	0	467	609
5	0	0	0	0	468	609
6	0	0	0	0	468	614
7	0	0	0	0	468	609
8	0	0	0	0	468	609
9	0	0	0	0	469	609
10	0	0	0	0	469	604
11	0	0	0	0	469	609
12	0	0	0	0	470	610
13	0	0	0	0	471	610
14	0	0	0	0	471	614
15	0	0	0	0	472	609
0	0	0	0	0	472	609
1	0	0	0	0	473	609
2	0	0	0	0	473	605
3	0	0	0	0	474	610
4	0	0	0	0	474	610
5	0	0	0	0	474	610
6	0	0	0	0	475	615
7	0	0	0	0	475	609
8	0	0	0	0	474	610
9	0	0	0	0	474	610
10	0	0	0	0	475	605
11	0	0	0	0	476	609
12	0	0	0	0	476	609
13	0	0	0	0	476	609
14	0	0	0	0	475	614
15	0	0	0	0	475	609
0	0	0	0	0	475	609
1	0	0	0	0	475	610
2	0	0	0	0	476	604
3	0	0	0	0	476	610
4	0	0	0	0	477	609
5	0	0	0	0	477	609
6	0	0	0	0	478	614
7	0	0	0	0	478	609
8	0	0	0	0	478	609
9	0	0	0	0	478	609
10	0	0	0	0	479	604
11	0	0	0	0	479	609
12	0	0	0	0	480	609
13	0	0	0	0	480	609
14	0	0	0	0	480	614
15	0	0	0	0	480	609
0	0	0	0	0	480	609
1	0	0	0	0	480	609
2	0	0	0	0	480	604
3	0	0	0	0	480	609
4	0	0	0	0	480	609
5	0	0	0	0	480	609
6	0	0	0	0	480	613
7	0	0	0	0	480	609
8	0	0	0	0	481	609
9	0	0	0	0	482	609
10	0	0	0	0	483	604
11	0	0	0	0	484	609
12	0	0	0	0	485	609
13	0	0	0	0	485	609
14	0	0	0	0	486	614
15	0	0	0	0	486	609
0	0	0	0	0	486	609
1	0	0	0	0	487	609
2	0	0	0	0	487	604
3	0	0	0	0	488	610
4	0	0	0	0	489	610
5	0	0	0	0	490	610
6	0	0	0	0	492	614
7	0	0	0	0	492	610
8	0	0	0	0	493	610
9	0	0	0	0	494	609
10	0	0	0	0	494	604
11	0	0	0	0	494	610
12	0	0	0	0	495	609
13	0	0	0	0	496	610
14	0	0	0	0	497	614
15	0	0	0	0	499	610
0	0	0	0	0	499	610
1	0	0	0	0	500	610
2	0	0	0	0	501	605
3	0	0	0	0	502	610
4	0	0	0	0	502	610
5	0	0	0	0	501	610
6	0	0	0	0	501	614
7	0	0	0	0	502	611
8	0	0	0	0	502	610
9	0	0	0	0	503	610
10	0	0	0	0	503	605
11	0	0	0	0	504	610
12	0	0	0	0	504	610
13	0	0	0	0	504	610
14	0	0	0	0	505	615
15	0	0	0	0	505	611
0	0	0	0	0	505	610
1	0	0	0	0	505	610
2	0	0	0	0	505	605
3	0	0	0	0	506	610
4	0	0	0	0	507	610
5	0	0	0	0	506	610
6	0	0	0	0	507	614
7	0	0	0	0	507	610
8	0	0	0	0	508	610
9	0	0	0	0	509	610
10	0	0	0	0	510	605
11	0	0	0	0	510	611
12	0	0	0	0	511	610
13	0	0	0	0	512	610
14	0	0	0	0	512	614
15	0	0	0	0	512	609
0	0	0	0	0	512	610
1	0	0	0	0	513	609
2	0	0	0	0	513	603
3	0	0	0	0	513	609
4	0	0	0	0	513	608
5	0	0	0	0	512	608
6	0	0	0	0	512	613
7	0	0	0	0	512	608
8	0	0	0	0	512	609
9	0	0	0	0	513	609
10	0	0	0	0	514	604
11	0	0	0	0	514	609
12	0	0	0	0	515	609
13	0	0	0	0	515	609
14	0	0	0	0	516	613
15	0	0	0	0	517	609
0	0	0	0	0	517	608
1	0	0	0	0	518	609
2	0	0	0	0	518	603
3	0	0	0	0	518	608
4	0	0	0	0	518	608
5	0	0	0	0	518	609
6	0	0	0	0	518	612
7	0	0	0	0	518	608
8	0	0	0	0	518	609
9	0	0	0	0	518	609
10	0	0	0	0	517	604
11	0	0	0	0	517	609
12	0	0	0	0	517	609
13	0	0	0	0	517	609
14	0	0	0	0	518	614
15	0	0	0	0	517	609
0	0	0	0	0	517	610
1	0	0	0	0	517	608
2	0	0	0	0	517	604
3	0	0	0	0	517	609
4	0	0	0	0	517	609
5	0	0	0	0	518	609
6	0	0	0	0	518	613
7	0	0	0	0	519	609
8	0	0	0	0	519	609
9	0	0	0	0	520	608
10	0	0	0	0	521	604
11	0	0	0	0	522	609
12	0	0	0	0	521	609
13	0	0	0	0	521	609
14	0	0	0	0	521	614
15	0	0	0	0	522	609
0	0	0	0	0	521	609
1	0	0	0	0	521	609
2	0	0	0	0	522	604
3	0	0	0	0	521	609
4	0	0	0	0	521	609
5	0	0	0	0	521	609
6	0	0	0	0	521	613
7	0	0	0	0	522	609
8	0	0	0	0	521	610
9	0	0	0	0	521	609
10	0	0	0	0	522	604
11	0	0	0	0	522	609
12	0	0	0	0	522	609
13	0	0	0	0	521	610
14	0	0	0	0	521	613
15	0	0	0	0	521	609
0	0	0	0	0	520	609
1	0	0	0	0	520	609
2	0	0	0	0	520	604
3	0	0	0	0	520	609
4	0	0	0	0	520	609
5	0	0	0	0	520	610
6	0	0	0	0	520	614
7	0	0	0	0	521	609
8	0	0	0	0	520	609
9	0	0	0	0	521	609
10	0	0	0	0	521	604
11	0	0	0	0	521	610
12	0	0	0	0	521	610
13	0	0	0	0	521	610
14	0	0	0	0	521	614
15	0	0	0	0	522	609
0	0	0	0	0	522	610
1	0	0	0	0	522	609
2	0	0	0	0	522	604
3	0	0	0	0	522	609
4	0	0	0	0	523	609
5	0	0	0	0	523	609
6	0	0	0	0	523	613
7	0	0	0	0	524	610
8	0	0	0	0	524	609
9	0	0	0	0	524	610
10	0	0	0	0	524	605
11	0	0	0	0	524	610
12	0	0	0	0	524	609
13	0	0	0	0	524	610
14	0	0	0	0	524	614
15	0	0	0	0	524	610
0	0	0	0	0	524	609
1	0	0	0	0	523	609
2	0	0	0	0	522	604
3	0	0	0	0	522	609
4	0	0	0	0	522	610
5	0	0	0	0	522	610
6	0	0	0	0	522	613
7	0	0	0	0	523	610
8	0	0	0	0	523	609
9	0	0	0	0	524	609
10	0	0	0	0	524	604
11	0	0	0	0	524	609
12	0	0	0	0	523	609
13	0	0	0	0	523	609
14	0	0	0	0	523	614
15	0	0	0	0	523	609
0	0	0	0	0	522	610
1	0	0	0	0	521	609
2	0	0	0	0	521	604
3	0	0	0	0	521	610
4	0	0	0	0	521	609
5	0	0	0	0	521	609
6	0	0	0	0	521	614
7	0	0	0	0	521	609
8	0	0	0	0	521	610
9	0	0	0	0	520	610
10	0	0	0	0	519	605
11	0	0	0	0	519	610
12	0	0	0	0	519	609
13	0	0	0	0	519	609
14	0	0	0	0	519	614
15	0	0	0	0	519	610
0	0	0	0	0	519	609
1	0	0	0	0	518	609
2	0	0	0	0	519	604
3	0	0	0	0	519	609
4	0	0	0	0	519	609
5	0	0	0	0	519	609
6	0	0	0	0	519	614
7	0	0	0	0	519	610
8	0	0	0	0	520	609
9	0	0	0	0	519	609
10	0	0	0	0	519	604
11	0	0	0	0	519	609
12	0	0	0	0	520	609
13	0	0	0	0	520	609
14	0	0	0	0	520	613
15	0	0	0	0	520	609
0	0	0	0	0	519	609
1	0	0	0	0	519	609
2	0	0	0	0	519	604
3	0	0	0	0	519	609
4	0	0	0	0	519	609
5	0	0	0	0	518	609
6	0	0	0	0	518	613
7	0	0	0	0	517	609
8	0	0	0	0	516	609
9	0	0	0	0	516	609
10	0	0	0	0	516	604
11	0	0	0	0	517	609
12	0	0	0	0	517	608
13	0	0	0	0	518	609
14	0	0	0	0	518	613
15	0	0	0	0	519	609
0	0	0	0	0	519	609
1	0	0	0	0	518	609
2	0	0	0	0	519	604
3	0	0	0	0	519	609
4	0	0	0	0	519	609
5	0	0	0	0	520	609
6	0	0	0	0	520	613
7	0	0	0	0	519	609
8	0	0	0	0	520	609
9	0	0	0	0	519	609
10	0	0	0	0	519	604
11	0	0	0	0	519	609
12	0	0	0	0	518	609
13	0	0	0	0	517	610
14	0	0	0	0	516	614
15	0	0	0	0	516	609
0	0	0	0	0	516	609
1	0	0	0	0	517	609
2	0	0	0	0	517	604
3	0	0	0	0	517	609
4	0	0	0	0	517	609
5	0	0	0	0	518	609
6	0	0	0	0	519	612
7	0	0	0	0	519	608
8	0	0	0	0	519	608
9	0	0	0	0	520	609
10	0	0	0	0	521	604
11	0	0	0	0	521	609
12	0	0	0	0	521	609
13	0	0	0	0	521	609
14	0	0	0	0	521	614
15	0	0	0	0	521	609
0	0	0	0	0	521	609
1	0	0	0	0	521	609
2	0	0	0	0	521	604
3	0	0	0	0	520	609
4	0	0	0	0	520	609
5	0	0	0	0	520	609
6	0	0	0	0	520	614
7	0	0	0	0	521	609
8	0	0	0	0	521	609
9	0	0	0	0	521	609
10	0	0	0	0	521	603
11	0	0	0	0	522	609
12	0	0	0	0	523	609
13	0	0	0	0	523	609
14	0	0	0	0	524	613
15	0	0	0	0	524	609
0	0	0	0	0	524	609
1	0	0	0	0	524	609
2	0	0	0	0	524	604
3	0	0	0	0	524	609
4	0	0	0	0	524	609
5	0	0	0	0	524	610
6	0	0	0	0	523	614
7	0	0	0	0	523	609
8	0	0	0	0	522	609
9	0	0	0	0	523	608
10	0	0	0	0	523	604
11	0	0	0	0	524	609
12	0	0	0	0	524	610
13	0	0	0	0	524	609
14	0	0	0	0	524	614
15	0	0	0	0	525	610
0	0	0	0	0	524	610
1	0	0	0	0	525	610
2	0	0	0	0	525	605
3	0	0	0	0	526	610
4	0	0	0	0	526	610
5	0	0	0	0	526	610
6	0	0	0	0	526	614
7	0	0	0	0	526	611
8	0	0	0	0	525	611
9	0	0	0	0	525	611
10	0	0	0	0	524	605
11	0	0	0	0	523	611
12	0	0	0	0	523	610
13	0	0	0	0	522	610
14	0	0	0	0	522	615
15	0	0	0	0	521	610
0	0	0	0	0	521	610
1	0	0	0	0	521	610
2	0	0	0	0	520	604
3	0	0	0	0	520	610
4	0	0	0	0	520	610
5	0	0	0	0	520	610
6	0	0	0	0	521	614
7	0	0	0	0	522	609
8	0	0	0	0	522	609
9	0	0	0	0	523	609
10	0	0	0	0	524	604
11	0	0	0	0	524	609
12	0	0	0	0	525	609
13	0	0	0	0	526	609
14	0	0	0	0	526	613
15	0	0	0	0	527	609
0	0	0	0	0	527	609
1	0	0	0	0	528	609
2	0	0	0	0	528	604
3	0	0	0	0	527	609
4	0	0	0	0	527	610
5	0	0	0	0	525	609
6	0	0	0	0	525	613
7	0	0	0	0	525	609
8	0	0	0	0	524	609
9	0	0	0	0	524	609
10	0	0	0	0	524	604
11	0	0	0	0	523	609
12	0	0	0	0	523	609
13	0	0	0	0	522	609
14	0	0	0	0	523	614
15	0	0	0	0	523	609
0	0	0	0	0	523	609
1	0	0	0	0	522	608
2	0	0	0	0	523	604
3	0	0	0	0	523	609
4	0	0	0	0	523	609
5	0	0	0	0	523	610
6	0	0	0	0	523	614
7	0	0	0	0	523	609
8	0	0	0	0	522	609
9	0	0	0	0	522	609
10	0	0	0	0	521	604
11	0	0	0	0	521	609
12	0	0	0	0	520	609
13	0	0	0	0	520	609
14	0	0	0	0	520	613
15	0	0	0	0	520	610
0	0	0	0	0	520	610
1	0	0	0	0	519	609
2	0	0	0	0	520	605
3	0	0	0	0	519	609
4	0	0	0	0	519	610
5	0	0	0	0	519	609
6	0	0	0	0	518	614
7	0	0	0	0	516	610
8	0	0	0	0	516	610
9	0	0	0	0	517	609
10	0	0	0	0	517	604
11	0	0	0	0	516	609
12	0	0	0	0	516	609
13	0	0	0	0	516	609
14	0	0	0	0	516	613
15	0	0	0	0	516	609
0	0	0	0	0	516	609
1	0	0	0	0	515	609
2	0	0	0	0	515	604
3	0	0	0	0	514	609
4	0	0	0	0	514	609
5	0	0	0	0	514	609
6	0	0	0	0	513	613
7	0	0	0	0	513	609
8	0	0	0	0	513	609
9	0	0	0	0	513	608
10	0	0	0	0	513	604
11	0	0	0	0	513	609
12	0	0	0	0	513	609
13	0	0	0	0	513	609
14	0	0	0	0	512	613
15	0	0	0	0	512	609
0	0	0	0	0	511	609
1	0	0	0	0	512	609
2	0	0	0	0	512	604
3	0	0	0	0	511	609
4	0	0	0	0	511	609
5	0	0	0	0	510	610
6	0	0	0	0	510	614
7	0	0	0	0	511	610
8	0	0	0	0	511	609
9	0	0	0	0	511	609
10	0	0	0	0	512	604
11	0	0	0	0	512	609
12	0	0	0	0	513	609
13	0	0	0	0	513	609
14	0	0	0	0	513	614
15	0	0	0	0	514	609
0	0	0	0	0	514	609
1	0	0	0	0	515	609
2	0	0	0	0	515	604
3	0	0	0	0	514	609
4	0	0	0	0	515	609
5	0	0	0	0	514	609
6	0	0	0	0	514	613
7	0	0	0	0	514	609
8	0	0	0	0	513	610
9	0	0	0	0	514	609
10	0	0	0	0	514	604
11	0	0	0	0	513	609
12	0	0	0	0	513	609
13	0	0	0	0	513	609
14	0	0	0	0	513	614
15	0	0	0	0	513	609
0	0	0	0	0	512	609
1	0	0	0	0	511	609
2	0	0	0	0	511	604
3	0	0	0	0	511	609
4	0	0	0	0	510	610
5	0	0	0	0	510	610
6	0	0	0	0	510	614
7	0	0	0	0	510	609
8	0	0	0	0	509	610
9	0	0	0	0	509	609
10	0	0	0	0	509	605
11	0	0	0	0	508	609
12	0	0	0	0	508	610
13	0	0	0	0	507	610
14	0	0	0	0	507	614
15	0	0	0	0	507	611
0	0	0	0	0	507	610
1	0	0	0	0	506	610
2	0	0	0	0	507	605
3	0	0	0	0	507	610
4	0	0	0	0	508	610
5	0	0	0	0	508	610
6	0	0	0	0	508	614
7	0	0	0	0	508	610
8	0	0	0	0	507	609
9	0	0	0	0	507	609
10	0	0	0	0	507	604
11	0	0	0	0	507	609
12	0	0	0	0	507	610
13	0	0	0	0	507	609
14	0	0	0	0	507	614
15	0	0	0	0	506	609
0	0	0	0	0	505	609
1	0	0	0	0	506	610
2	0	0	0	0	506	605
3	0	0	0	0	505	610
4	0	0	0	0	504	611
5	0	0	0	0	504	610
6	0	0	0	0	503	614
7	0	0	0	0	503	610
8	0	0	0	0	503	610
9	0	0	0	0	503	610
10	0	0	0	0	504	605
11	0	0	0	0	503	610
12	0	0	0	0	502	610
13	0	0	0	0	502	610
14	0	0	0	0	501	613
15	0	0	0	0	501	609
0	0	0	0	0	501	609
1	0	0	0	0	500	609
2	0	0	0	0	500	604
3	0	0	0	0	499	609
4	0	0	0	0	499	609
5	0	0	0	0	500	609
6	0	0	0	0	500	613
7	0	0	0	0	500	608
8	0	0	0	0	501	609
9	0	0	0	0	501	608
10	0	0	0	0	501	604
11	0	0	0	0	501	609
12	0	0	0	0	502	609
13	0	0	0	0	503	610
14	0	0	0	0	503	614
15	0	0	0	0	504	609
0	0	0	0	0	504	609
1	0	0	0	0	504	609
2	0	0	0	0	504	604
3	0	0	0	0	504	610
4	0	0	0	0	504	610
5	0	0	0	0	504	610
6	0	0	0	0	504	614
7	0	0	0	0	504	610
8	0	0	0	0	504	610
9	0	0	0	0	504	610
10	0	0	0	0	504	604
11	0	0	0	0	504	610
12	0	0	0	0	504	610
13	0	0	0	0	504	610
14	0	0	0	0	504	614
15	0	0	0	0	504	610
0	0	0	0	0	504	610
1	0	0	0	0	504	609
2	0	0	0	0	505	604
3	0	0	0	0	504	609
4	0	0	0	0	504	609
5	0	0	0	0	504	609
6	0	0	0	0	504	613
7	0	0	0	0	504	609
8	0	0	0	0	504	609
9	0	0	0	0	504	609
10	0	0	0	0	503	604
11	0	0	0	0	502	609
12	0	0	0	0	502	609
13	0	0	0	0	501	609
14	0	0	0	0	501	613
15	0	0	0	0	501	609
0	0	0	0	0	501	609
1	0	0	0	0	502	609
2	0	0	0	0	503	604
3	0	0	0	0	504	609
4	0	0	0	0	505	609
5	0	0	0	0	506	609
6	0	0	0	0	508	613
7	0	0	0	0	509	609
8	0	0	0	0	510	608
9	0	0	0	0	511	609
10	0	0	0	0	512	604
11	0	0	0	0	513	609
12	0	0	0	0	514	609
13	0	0	0	0	515	609
14	0	0	0	0	515	614
15	0	0	0	0	516	609
0	0	0	0	0	516	609
1	0	0	0	0	516	609
2	0	0	0	0	515	604
3	0	0	0	0	516	609
4	0	0	0	0	517	609
5	0	0	0	0	517	609
6	0	0	0	0	518	614
7	0	0	0	0	518	609
8	0	0	0	0	518	609
9	0	0	0	0	518	609
10	0	0	0	0	518	604
11	0	0	0	0	518	609
12	0	0	0	0	518	609
13	0	0	0	0	518	609
14	0	0	0	0	518	613
15	0	0	0	0	519	609
0	0	0	0	0	519	609
1	0	0	0	0	519	609
2	0	0	0	0	519	604
3	0	0	0	0	519	610
4	0	0	0	0	519	609
5	0	0	0	0	519	609
6	0	0	0	0	519	615
7	0	0	0	0	519	609
8	0	0	0	0	519	609
9	0	0	0	0	519	609
10	0	0	0	0	519	604
11	0	0	0	0	518	609
12	0	0	0	0	519	609
13	0	0	0	0	519	610
14	0	0	0	0	519	614
15	0	0	0	0	519	610
0	0	0	0	0	519	609
1	0	0	0	0	520	609
2	0	0	0	0	519	604
3	0	0	0	0	519	609
4	0	0	0	0	519	610
5	0	0	0	0	519	610
6	0	0	0	0	519	615
7	0	0	0	0	519	610
8	0	0	0	0	518	610
9	0	0	0	0	518	610
10	0	0	0	0	518	605
11	0	0	0	0	518	611
12	0	0	0	0	518	610
13	0	0	0	0	517	610
14	0	0	0	0	516	615
15	0	0	0	0	516	610
0	0	0	0	0	516	610
1	0	0	0	0	515	611
2	0	0	0	0	514	605
3	0	0	0	0	514	610
4	0	0	0	0	512	610
5	0	0	0	0	511	609
6	0	0	0	0	510	614
7	0	0	0	0	508	609
8	0	0	0	0	506	609
9	0	0	0	0	504	608
10	0	0	0	0	504	603
11	0	0	0	0	502	609
12	0	0	0	0	501	609
13	0	0	0	0	500	610
14	0	0	0	0	498	613
15	0	0	0	0	496	609
0	0	0	0	0	493	609
1	0	0	0	0	488	609
2	0	0	0	0	485	604
3	0	0	0	0	480	608
4	0	0	0	0	475	608
5	0	0	0	0	469	608
6	0	0	0	0	461	613
7	0	0	0	0	454	609
8	0	0	0	0	447	609
9	0	0	0	0	440	608
10	0	0	0	0	433	603
11	0	0	0	0	429	608
12	0	0	0	0	426	609
13	0	0	0	0	421	609
14	0	0	0	0	417	614
15	0	0	0	0	415	609
0	0	0	0	0	414	609
1	0	0	0	0	417	609
2	0	0	0	0	422	604
3	0	0	0	0	431	610
4	0	0	0	0	445	609
5	0	0	0	0	463	609
6	0	0	0	0	487	614
7	0	0	0	0	514	610
8	0	0	0	0	542	610
9	0	0	0	0	570	609
10	0	0	0	0	593	604
11	0	0	0	0	612	610
12	0	0	0	0	630	609
13	0	0	0	0	648	610
14	0	0	0	0	670	615
15	0	0	0	0	690	610
0	0	0	0	0	707	610
1	0	0	0	0	721	609
2	0	0	0	0	734	605
3	0	0	0	0	747	610
4	0	0	0	0	759	610
5	0	0	0	0	766	610
6	0	0	0	0	767	614
7	0	0	0	0	758	609
8	0	0	0	0	743	610
9	0	0	0	0	725	610
10	0	0	0	0	707	604
11	0	0	0	0	685	609
12	0	0	0	0	662	609
13	0	0	0	0	644	609
14	0	0	0	0	631	614
15	0	0	0	0	620	609
0	0	0	0	0	613	610
1	0	0	0	0	608	609
2	0	0	0	0	604	604
3	0	0	0	0	598	609
4	0	0	0	0	591	609
5	0	0	0	0	584	609
6	0	0	0	0	577	613
7	0	0	0	0	571	609
8	0	0	0	0	564	609
9	0	0	0	0	557	608
10	0	0	0	0	551	604
11	0	0	0	0	543	609
12	0	0	0	0	537	609
13	0	0	0	0	531	609
14	0	0	0	0	526	613
15	0	0	0	0	519	609
0	0	0	0	0	514	608
1	0	0	0	0	508	609
2	0	0	0	0	503	604
3	0	0	0	0	498	609
4	0	0	0	0	493	609
5	0	0	0	0	488	609
6	0	0	0	0	484	614
7	0	0	0	0	480	609
8	0	0	0	0	475	609
9	0	0	0	0	471	609
10	0	0	0	0	468	604
11	0	0	0	0	466	610
12	0	0	0	0	464	610
13	0	0	0	0	462	610
14	0	0	0	0	460	613
15	0	0	0	0	458	609
0	0	0	0	0	457	609
1	0	0	0	0	456	609
2	0	0	0	0	456	604
3	0	0	0	0	455	609
4	0	0	0	0	455	609
5	0	0	0	0	455	609
6	0	0	0	0	455	614
7	0	0	0	0	456	609
8	0	0	0	0	456	610
9	0	0	0	0	456	609
10	0	0	0	0	456	604
11	0	0	0	0	455	609
12	0	0	0	0	456	609
13	0	0	0	0	456	610
14	0	0	0	0	456	613
15	0	0	0	0	457	609
0	0	0	0	0	456	609
1	0	0	0	0	457	609
2	0	0	0	0	458	604
3	0	0	0	0	458	609
4	0	0	0	0	459	609
5	0	0	0	0	459	609
6	0	0	0	0	460	614
7	0	0	0	0	461	609
8	0	0	0	0	461	609
9	0	0	0	0	462	609
10	0	0	0	0	462	603
11	0	0	0	0	463	609
12	0	0	0	0	463	609
13	0	0	0	0	463	609
14	0	0	0	0	463	614
15	0	0	0	0	463	609
0	0	0	0	0	464	610
1	0	0	0	0	464	609
2	0	0	0	0	465	605
3	0	0	0	0	465	609
4	0	0	0	0	466	609
5	0	0	0	0	466	609
6	0	0	0	0	466	614
7	0	0	0	0	466	609
8	0	0	0	0	466	609
9	0	0	0	0	467	609
10	0	0	0	0	467	604
11	0	0	0	0	467	609
12	0	0	0	0	468	609
13	0	0	0	0	469	610
14	0	0	0	0	470	614
15	0	0	0	0	471	610
0	0	0	0	0	472	609
1	0	0	0	0	472	610
2	0	0	0	0	473	605
3	0	0	0	0	473	610
4	0	0	0	0	474	610
5	0	0	0	0	475	611
6	0	0	0	0	475	614
7	0	0	0	0	476	610
8	0	0	0	0	476	609
9	0	0	0	0	477	610
10	0	0	0	0	477	605
11	0	0	0	0	477	610
12	0	0	0	0	478	609
13	0	0	0	0	478	610
14	0	0	0	0	478	614
15	0	0	0	0	479	610
0	0	0	0	0	479	610
1	0	0	0	0	479	609
2	0	0	0	0	479	604
3	0	0	0	0	480	609
4	0	0	0	0	480	610
5	0	0	0	0	480	609
6	0	0	0	0	481	614
7	0	0	0	0	481	609
8	0	0	0	0	481	609
9	0	0	0	0	481	609
10	0	0	0	0	481	604
11	0	0	0	0	481	609
12	0	0	0	0	481	609
13	0	0	0	0	482	609
14	0	0	0	0	482	613
15	0	0	0	0	482	609
0	0	0	0	0	482	609
1	0	0	0	0	482	609
2	0	0	0	0	483	604
3	0	0	0	0	483	609
4	0	0	0	0	483	609
5	0	0	0	0	483	609
6	0	0	0	0	484	614
7	0	0	0	0	484	609
8	0	0	0	0	485	609
9	0	0	0	0	486	610
10	0	0	0	0	486	605
11	0	0	0	0	487	610
12	0	0	0	0	486	610
13	0	0	0	0	486	609
14	0	0	0	0	486	614
15	0	0	0	0	486	610
0	0	0	0	0	486	609
1	0	0	0	0	487	610
2	0	0	0	0	487	604
3	0	0	0	0	487	610
4	0	0	0	0	487	610
5	0	0	0	0	487	610
6	0	0	0	0	488	614
7	0	0	0	0	488	610
8	0	0	0	0	488	610
9	0	0	0	0	488	610
10	0	0	0	0	489	604
11	0	0	0	0	489	610
12	0	0	0	0	489	609
13	0	0	0	0	488	610
14	0	0	0	0	489	614
15	0	0	0	0	489	609
0	0	0	0	0	489	609
1	0	0	0	0	489	609
2	0	0	0	0	490	604
3	0	0	0	0	489	609
4	0	0	0	0	490	609
5	0	0	0	0	490	610
6	0	0	0	0	490	614
7	0	0	0	0	491	609
8	0	0	0	0	491	609
9	0	0	0	0	491	609
10	0	0	0	0	492	604
11	0	0	0	0	492	609
12	0	0	0	0	493	609
13	0	0	0	0	494	610
14	0	0	0	0	494	614
15	0	0	0	0	495	609
0	0	0	0	0	496	609
1	0	0	0	0	496	609
2	0	0	0	0	496	604
3	0	0	0	0	496	609
4	0	0	0	0	497	609
5	0	0	0	0	498	609
6	0	0	0	0	498	614
7	0	0	0	0	499	609
8	0	0	0	0	499	609
9	0	0	0	0	500	609
10	0	0	0	0	499	603
11	0	0	0	0	500	609
12	0	0	0	0	500	609
13	0	0	0	0	499	609
14	0	0	0	0	500	613
15	0	0	0	0	501	608
0	0	0	0	0	501	609
1	0	0	0	0	502	609
2	0	0	0	0	502	604
3	0	0	0	0	503	609
4	0	0	0	0	503	609
5	0	0	0	0	505	610
6	0	0	0	0	505	613
7	0	0	0	0	505	609
8	0	0	0	0	506	609
9	0	0	0	0	507	609
10	0	0	0	0	507	604
11	0	0	0	0	506	610
12	0	0	0	0	506	610
13	0	0	0	0	506	609
14	0	0	0	0	506	614
15	0	0	0	0	507	609
0	0	0	0	0	507	609
1	0	0	0	0	508	609
2	0	0	0	0	508	604
3	0	0	0	0	508	609
4	0	0	0	0	509	609
5	0	0	0	0	509	609
6	0	0	0	0	509	614
7	0	0	0	0	510	609
8	0	0	0	0	511	609
9	0	0	0	0	511	610
10	0	0	0	0	512	604
11	0	0	0	0	512	609
12	0	0	0	0	512	610
13	0	0	0	0	512	609
14	0	0	0	0	512	614
15	0	0	0	0	513	609
0	0	0	0	0	514	610
1	0	0	0	0	514	610
2	0	0	0	0	514	604
3	0	0	0	0	515	610
4	0	0	0	0	515	610
5	0	0	0	0	515	610
6	0	0	0	0	515	614
7	0	0	0	0	515	610
8	0	0	0	0	514	611
9	0	0	0	0	514	610
10	0	0	0	0	514	604
11	0	0	0	0	515	610
12	0	0	0	0	515	609
13	0	0	0	0	515	609
14	0	0	0	0	515	614
15	0	0	0	0	515	609
0	0	0	0	0	516	610
1	0	0	0	0	515	609
2	0	0	0	0	515	604
3	0	0	0	0	515	609
4	0	0	0	0	515	609
5	0	0	0	0	515	609
6	0	0	0	0	515	614
7	0	0	0	0	515	609
8	0	0	0	0	514	609
9	0	0	0	0	514	609
10	0	0	0	0	514	604
11	0	0	0	0	513	609
12	0	0	0	0	513	609
13	0	0	0	0	513	609
14	0	0	0	0	512	613
15	0	0	0	0	512	609
0	0	0	0	0	512	609
1	0	0	0	0	511	608
2	0	0	0	0	511	604
3	0	0	0	0	511	609
4	0	0	0	0	511	609
5	0	0	0	0	510	609
6	0	0	0	0	510	613
7	0	0	0	0	510	609
8	0	0	0	0	509	609
9	0	0	0	0	509	608
10	0	0	0	0	509	604
11	0	0	0	0	509	609
12	0	0	0	0	508	609
13	0	0	0	0	508	609
14	0	0	0	0	507	613
15	0	0	0	0	508	609
0	0	0	0	0	508	609
1	0	0	0	0	507	609
2	0	0	0	0	507	604
3	0	0	0	0	507	610
4	0	0	0	0	507	609
5	0	0	0	0	507	610
6	0	0	0	0	507	614
7	0	0	0	0	507	610
8	0	0	0	0	507	610
9	0	0	0	0	507	610
10	0	0	0	0	508	605
11	0	0	0	0	507	610
12	0	0	0	0	507	610
13	0	0	0	0	507	610
14	0	0	0	0	506	614
15	0	0	0	0	506	610
0	0	0	0	0	506	609
1	0	0	0	0	506	609
2	0	0	0	0	506	605
3	0	0	0	0	506	610
4	0	0	0	0	506	610
5	0	0	0	0	506	610
6	0	0	0	0	505	614
7	0	0	0	0	506	610
8	0	0	0	0	506	609
9	0	0	0	0	506	609
10	0	0	0	0	506	604
11	0	0	0	0	505	609
12	0	0	0	0	505	609
13	0	0	0	0	505	609
14	0	0	0	0	505	614
15	0	0	0	0	506	609
0	0	0	0	0	505	609
1	0	0	0	0	507	609
2	0	0	0	0	507	604
3	0	0	0	0	507	609
4	0	0	0	0	508	609
5	0	0	0	0	508	609
6	0	0	0	0	509	613
7	0	0	0	0	510	609
8	0	0	0	0	510	609
9	0	0	0	0	509	609
10	0	0	0	0	509	604
11	0	0	0	0	509	609
12	0	0	0	0	508	609
13	0	0	0	0	508	609
14	0	0	0	0	508	613
15	0	0	0	0	508	608
0	0	0	0	0	508	609
1	0	0	0	0	508	609
2	0	0	0	0	507	604
3	0	0	0	0	507	609
4	0	0	0	0	507	609
5	0	0	0	0	508	609
6	0	0	0	0	508	613
7	0	0	0	0	508	609
8	0	0	0	0	507	609
9	0	0	0	0	507	609
10	0	0	0	0	507	604
11	0	0	0	0	507	609
12	0	0	0	0	507	609
13	0	0	0	0	507	609
14	0	0	0	0	507	613
15	0	0	0	0	506	610
0	0	0	0	0	506	609
1	0	0	0	0	506	609
2	0	0	0	0	506	604
3	0	0	0	0	505	609
4	0	0	0	0	506	610
5	0	0	0	0	506	610
6	0	0	0	0	506	614
7	0	0	0	0	506	610
8	0	0	0	0	505	610
9	0	0	0	0	505	610
10	0	0	0	0	504	605
11	0	0	0	0	505	610
12	0	0	0	0	506	610
13	0	0	0	0	506	609
14	0	0	0	0	506	614
15	0	0	0	0	506	610
0	0	0	0	0	506	609
1	0	0	0	0	506	610
2	0	0	0	0	505	604
3	0	0	0	0	505	610
4	0	0	0	0	505	610
5	0	0	0	0	505	610
6	0	0	0	0	505	615
7	0	0	0	0	505	610
8	0	0	0	0	505	610
9	0	0	0	0	505	610
10	0	0	0	0	505	605
11	0	0	0	0	506	610
12	0	0	0	0	505	610
13	0	0	0	0	505	610
14	0	0	0	0	505	613
15	0	0	0	0	505	610
0	0	0	0	0	505	609
1	0	0	0	0	505	609
2	0	0	0	0	505	604
3	0	0	0	0	506	609
4	0	0	0	0	507	610
5	0	0	0	0	508	609
6	0	0	0	0	508	613
7	0	0	0	0	509	608
8	0	0	0	0	508	609
9	0	0	0	0	508	609
10	0	0	0	0	509	604
11	0	0	0	0	509	608
12	0	0	0	0	510	609
13	0	0	0	0	510	609
14	0	0	0	0	510	613
15	0	0	0	0	510	609
0	0	0	0	0	509	609
1	0	0	0	0	509	609
2	0	0	0	0	509	604
3	0	0	0	0	509	609
4	0	0	0	0	510	609
5	0	0	0	0	510	609
6	0	0	0	0	510	614
7	0	0	0	0	510	609
8	0	0	0	0	509	609
9	0	0	0	0	509	609
10	0	0	0	0	510	604
11	0	0	0	0	510	609
12	0	0	0	0	510	609
13	0	0	0	0	510	609
14	0	0	0	0	510	613
15	0	0	0	0	510	609
0	0	0	0	0	510	609
1	0	0	0	0	510	609
2	0	0	0	0	510	604
3	0	0	0	0	510	610
4	0	0	0	0	510	609
5	0	0	0	0	511	609
6	0	0	0	0	511	614
7	0	0	0	0	512	610
8	0	0	0	0	512	610
9	0	0	0	0	512	610
10	0	0	0	0	512	604
11	0	0	0	0	512	610
12	0	0	0	0	512	610
13	0	0	0	0	512	610
14	0	0	0	0	512	614
15	0	0	0	0	513	610
0	0	0	0	0	513	610
1	0	0	0	0	514	609
2	0	0	0	0	513	604
3	0	0	0	0	514	609
4	0	0	0	0	514	609
5	0	0	0	0	515	609
6	0	0	0	0	515	614
7	0	0	0	0	515	609
8	0	0	0	0	515	609
9	0	0	0	0	515	609
10	0	0	0	0	515	604
11	0	0	0	0	515	609
12	0	0	0	0	515	609
13	0	0	0	0	514	609
14	0	0	0	0	514	613
15	0	0	0	0	513	608
0	0	0	0	0	513	609
1	0	0	0	0	513	609
2	0	0	0	0	513	604
3	0	0	0	0	513	608
4	0	0	0	0	513	609
5	0	0	0	0	513	609
6	0	0	0	0	514	614
7	0	0	0	0	514	609
