# OpenSignals Text File Format
# {"98:D3:C1:FD:2F:E5":{"sensor":["RAW","RAW"],"device name":"98:D3:C1:FD:2F:E5","column":["nSeq","I1","I2","O1","O2","A2","A5"],"sync interval":2,"time":"17:33:03","comments":"","device connection":"BTH98:D3:C1:FD:2F:E5","channels":[2,5],"date":"2021-09-26","mode":0,"digital IO":[0,0,1,1],"firmware version":0,"device":"bitalino_rev","position":0,"sampling rate":1000,"label":["A2","A5"],"resolution":[10,10],"special":[{},{}]}}
# EndOfHeader
0	0	0	0	0	515	616
1	0	0	0	0	515	616
2	0	0	0	0	513	616
3	0	0	0	0	512	616
4	0	0	0	0	510	616
5	0	0	0	0	508	616
6	0	0	0	0	505	616
7	0	0	0	0	504	616
8	0	0	0	0	503	615
9	0	0	0	0	503	615
10	0	0	0	0	504	615
11	0	0	0	0	505	616
12	0	0	0	0	507	615
13	0	0	0	0	508	615
14	0	0	0	0	510	616
15	0	0	0	0	511	616
0	0	0	0	0	512	615
1	0	0	0	0	513	615
2	0	0	0	0	514	615
3	0	0	0	0	515	616
4	0	0	0	0	515	616
5	0	0	0	0	513	616
6	0	0	0	0	512	616
7	0	0	0	0	511	617
8	0	0	0	0	508	615
9	0	0	0	0	505	616
10	0	0	0	0	503	616
11	0	0	0	0	501	616
12	0	0	0	0	500	615
13	0	0	0	0	500	615
14	0	0	0	0	500	616
15	0	0	0	0	501	616
0	0	0	0	0	503	616
1	0	0	0	0	504	616
2	0	0	0	0	505	616
3	0	0	0	0	508	616
4	0	0	0	0	510	615
5	0	0	0	0	511	615
6	0	0	0	0	513	615
7	0	0	0	0	513	616
8	0	0	0	0	513	615
9	0	0	0	0	512	615
10	0	0	0	0	510	615
11	0	0	0	0	508	616
12	0	0	0	0	505	615
13	0	0	0	0	503	616
14	0	0	0	0	500	615
15	0	0	0	0	498	616
0	0	0	0	0	497	615
1	0	0	0	0	496	615
2	0	0	0	0	497	616
3	0	0	0	0	498	616
4	0	0	0	0	498	616
5	0	0	0	0	499	616
6	0	0	0	0	501	615
7	0	0	0	0	503	616
8	0	0	0	0	505	616
9	0	0	0	0	508	616
10	0	0	0	0	509	616
11	0	0	0	0	510	616
12	0	0	0	0	511	616
13	0	0	0	0	509	616
14	0	0	0	0	508	615
15	0	0	0	0	505	616
0	0	0	0	0	504	616
1	0	0	0	0	502	617
2	0	0	0	0	499	616
3	0	0	0	0	497	617
4	0	0	0	0	496	616
5	0	0	0	0	496	616
6	0	0	0	0	496	616
7	0	0	0	0	497	616
8	0	0	0	0	500	616
9	0	0	0	0	502	616
10	0	0	0	0	505	615
11	0	0	0	0	509	616
12	0	0	0	0	511	615
13	0	0	0	0	513	616
14	0	0	0	0	515	615
15	0	0	0	0	516	616
0	0	0	0	0	517	616
1	0	0	0	0	518	616
2	0	0	0	0	516	615
3	0	0	0	0	515	616
4	0	0	0	0	513	615
5	0	0	0	0	510	616
6	0	0	0	0	508	616
7	0	0	0	0	506	616
8	0	0	0	0	505	616
9	0	0	0	0	504	615
10	0	0	0	0	504	616
11	0	0	0	0	505	616
12	0	0	0	0	508	616
13	0	0	0	0	509	616
14	0	0	0	0	510	615
15	0	0	0	0	512	616
0	0	0	0	0	513	616
1	0	0	0	0	516	616
2	0	0	0	0	517	615
3	0	0	0	0	518	616
4	0	0	0	0	519	615
5	0	0	0	0	518	615
6	0	0	0	0	516	616
7	0	0	0	0	515	616
8	0	0	0	0	513	615
9	0	0	0	0	511	616
10	0	0	0	0	508	615
11	0	0	0	0	507	615
12	0	0	0	0	505	615
13	0	0	0	0	505	615
14	0	0	0	0	505	615
15	0	0	0	0	507	616
0	0	0	0	0	508	616
1	0	0	0	0	509	615
2	0	0	0	0	511	615
3	0	0	0	0	513	616
4	0	0	0	0	515	615
5	0	0	0	0	516	615
6	0	0	0	0	517	615
7	0	0	0	0	518	616
8	0	0	0	0	518	616
9	0	0	0	0	517	615
10	0	0	0	0	517	616
11	0	0	0	0	515	616
12	0	0	0	0	513	616
13	0	0	0	0	511	616
14	0	0	0	0	509	615
15	0	0	0	0	508	616
0	0	0	0	0	507	616
1	0	0	0	0	507	615
2	0	0	0	0	507	616
3	0	0	0	0	507	616
4	0	0	0	0	508	615
5	0	0	0	0	510	616
6	0	0	0	0	512	615
7	0	0	0	0	514	616
8	0	0	0	0	516	615
9	0	0	0	0	516	615
10	0	0	0	0	518	615
11	0	0	0	0	518	615
12	0	0	0	0	518	615
13	0	0	0	0	518	615
14	0	0	0	0	516	616
15	0	0	0	0	514	616
0	0	0	0	0	512	615
1	0	0	0	0	510	616
2	0	0	0	0	508	616
3	0	0	0	0	505	616
4	0	0	0	0	505	616
5	0	0	0	0	504	615
6	0	0	0	0	504	616
7	0	0	0	0	505	616
8	0	0	0	0	507	615
9	0	0	0	0	509	615
10	0	0	0	0	510	616
11	0	0	0	0	512	616
12	0	0	0	0	513	615
13	0	0	0	0	515	615
14	0	0	0	0	515	616
15	0	0	0	0	515	616
0	0	0	0	0	515	615
1	0	0	0	0	513	615
2	0	0	0	0	511	616
3	0	0	0	0	508	616
4	0	0	0	0	504	616
5	0	0	0	0	499	615
6	0	0	0	0	491	616
7	0	0	0	0	483	616
8	0	0	0	0	475	615
9	0	0	0	0	465	615
10	0	0	0	0	455	615
11	0	0	0	0	446	615
12	0	0	0	0	435	615
13	0	0	0	0	428	616
14	0	0	0	0	420	615
15	0	0	0	0	414	616
0	0	0	0	0	408	616
1	0	0	0	0	405	616
2	0	0	0	0	403	616
3	0	0	0	0	402	616
4	0	0	0	0	403	616
5	0	0	0	0	404	616
6	0	0	0	0	408	616
7	0	0	0	0	412	616
8	0	0	0	0	418	615
9	0	0	0	0	424	616
10	0	0	0	0	431	616
11	0	0	0	0	437	616
12	0	0	0	0	443	616
13	0	0	0	0	450	616
14	0	0	0	0	460	616
15	0	0	0	0	477	616
0	0	0	0	0	500	615
1	0	0	0	0	526	616
2	0	0	0	0	557	615
3	0	0	0	0	595	616
4	0	0	0	0	640	615
5	0	0	0	0	688	615
6	0	0	0	0	740	616
7	0	0	0	0	794	616
8	0	0	0	0	844	615
9	0	0	0	0	889	616
10	0	0	0	0	927	615
11	0	0	0	0	959	615
12	0	0	0	0	983	615
13	0	0	0	0	1000	615
14	0	0	0	0	1009	616
15	0	0	0	0	1014	616
0	0	0	0	0	1015	615
1	0	0	0	0	1011	616
2	0	0	0	0	1002	615
3	0	0	0	0	990	616
4	0	0	0	0	973	616
5	0	0	0	0	952	615
6	0	0	0	0	928	616
7	0	0	0	0	901	616
8	0	0	0	0	871	616
9	0	0	0	0	837	616
10	0	0	0	0	803	616
11	0	0	0	0	772	615
12	0	0	0	0	743	616
13	0	0	0	0	716	616
14	0	0	0	0	691	616
15	0	0	0	0	667	616
0	0	0	0	0	644	616
1	0	0	0	0	624	615
2	0	0	0	0	606	616
3	0	0	0	0	590	616
4	0	0	0	0	576	616
5	0	0	0	0	563	615
6	0	0	0	0	551	615
7	0	0	0	0	539	617
8	0	0	0	0	527	616
9	0	0	0	0	516	615
10	0	0	0	0	505	615
11	0	0	0	0	495	616
12	0	0	0	0	485	616
13	0	0	0	0	476	616
14	0	0	0	0	467	616
15	0	0	0	0	458	616
0	0	0	0	0	450	615
1	0	0	0	0	441	616
2	0	0	0	0	432	615
3	0	0	0	0	424	616
4	0	0	0	0	416	616
5	0	0	0	0	409	616
6	0	0	0	0	403	616
7	0	0	0	0	399	617
8	0	0	0	0	395	615
9	0	0	0	0	392	616
10	0	0	0	0	390	616
11	0	0	0	0	389	616
12	0	0	0	0	388	616
13	0	0	0	0	388	615
14	0	0	0	0	389	615
15	0	0	0	0	390	616
0	0	0	0	0	391	616
1	0	0	0	0	392	616
2	0	0	0	0	393	615
3	0	0	0	0	394	615
4	0	0	0	0	394	615
5	0	0	0	0	393	615
6	0	0	0	0	393	615
7	0	0	0	0	392	616
8	0	0	0	0	390	615
9	0	0	0	0	388	616
10	0	0	0	0	387	615
11	0	0	0	0	385	616
12	0	0	0	0	384	616
13	0	0	0	0	384	615
14	0	0	0	0	386	616
15	0	0	0	0	388	616
0	0	0	0	0	390	615
1	0	0	0	0	392	616
2	0	0	0	0	395	615
3	0	0	0	0	398	616
4	0	0	0	0	401	616
5	0	0	0	0	403	616
6	0	0	0	0	406	615
7	0	0	0	0	408	616
8	0	0	0	0	408	616
9	0	0	0	0	408	615
10	0	0	0	0	407	615
11	0	0	0	0	407	615
12	0	0	0	0	405	615
13	0	0	0	0	403	616
14	0	0	0	0	402	615
15	0	0	0	0	401	616
0	0	0	0	0	401	615
1	0	0	0	0	401	615
2	0	0	0	0	402	616
3	0	0	0	0	404	616
4	0	0	0	0	407	616
5	0	0	0	0	409	616
6	0	0	0	0	412	616
7	0	0	0	0	416	616
8	0	0	0	0	418	615
9	0	0	0	0	421	615
10	0	0	0	0	423	615
11	0	0	0	0	424	616
12	0	0	0	0	425	616
13	0	0	0	0	425	616
14	0	0	0	0	424	615
15	0	0	0	0	423	616
0	0	0	0	0	421	615
1	0	0	0	0	419	616
2	0	0	0	0	418	615
3	0	0	0	0	417	616
4	0	0	0	0	418	615
5	0	0	0	0	419	615
6	0	0	0	0	420	616
7	0	0	0	0	422	616
8	0	0	0	0	425	616
9	0	0	0	0	428	615
10	0	0	0	0	430	616
11	0	0	0	0	432	616
12	0	0	0	0	434	615
13	0	0	0	0	436	616
14	0	0	0	0	438	615
15	0	0	0	0	440	616
0	0	0	0	0	440	616
1	0	0	0	0	440	616
2	0	0	0	0	440	615
3	0	0	0	0	439	616
4	0	0	0	0	438	615
5	0	0	0	0	436	615
6	0	0	0	0	434	615
7	0	0	0	0	433	616
8	0	0	0	0	433	615
9	0	0	0	0	433	615
10	0	0	0	0	433	615
11	0	0	0	0	434	615
12	0	0	0	0	435	616
13	0	0	0	0	438	615
14	0	0	0	0	440	615
15	0	0	0	0	443	616
0	0	0	0	0	445	615
1	0	0	0	0	447	615
2	0	0	0	0	448	616
3	0	0	0	0	449	616
4	0	0	0	0	450	616
5	0	0	0	0	449	616
6	0	0	0	0	449	616
7	0	0	0	0	448	616
8	0	0	0	0	446	615
9	0	0	0	0	444	616
10	0	0	0	0	442	616
11	0	0	0	0	441	616
12	0	0	0	0	441	616
13	0	0	0	0	440	616
14	0	0	0	0	440	615
15	0	0	0	0	442	616
0	0	0	0	0	444	615
1	0	0	0	0	446	615
2	0	0	0	0	448	616
3	0	0	0	0	450	616
4	0	0	0	0	451	616
5	0	0	0	0	453	616
6	0	0	0	0	455	616
7	0	0	0	0	456	616
8	0	0	0	0	457	616
9	0	0	0	0	456	616
10	0	0	0	0	456	616
11	0	0	0	0	454	616
12	0	0	0	0	452	616
13	0	0	0	0	450	616
14	0	0	0	0	448	616
15	0	0	0	0	447	616
0	0	0	0	0	446	615
1	0	0	0	0	446	615
2	0	0	0	0	447	616
3	0	0	0	0	449	616
4	0	0	0	0	451	616
5	0	0	0	0	453	615
6	0	0	0	0	455	615
7	0	0	0	0	457	616
8	0	0	0	0	460	615
9	0	0	0	0	462	617
10	0	0	0	0	463	616
11	0	0	0	0	464	616
12	0	0	0	0	465	616
13	0	0	0	0	464	616
14	0	0	0	0	463	616
15	0	0	0	0	462	617
0	0	0	0	0	461	616
1	0	0	0	0	459	615
2	0	0	0	0	458	615
3	0	0	0	0	457	616
4	0	0	0	0	457	616
5	0	0	0	0	458	615
6	0	0	0	0	459	616
7	0	0	0	0	461	616
8	0	0	0	0	463	616
9	0	0	0	0	465	615
10	0	0	0	0	468	615
11	0	0	0	0	472	616
12	0	0	0	0	474	616
13	0	0	0	0	476	616
14	0	0	0	0	478	616
15	0	0	0	0	480	616
0	0	0	0	0	482	615
1	0	0	0	0	481	616
2	0	0	0	0	481	616
3	0	0	0	0	481	616
4	0	0	0	0	480	615
5	0	0	0	0	478	615
6	0	0	0	0	477	616
7	0	0	0	0	476	616
8	0	0	0	0	477	616
9	0	0	0	0	478	616
10	0	0	0	0	479	616
11	0	0	0	0	481	616
12	0	0	0	0	484	616
13	0	0	0	0	487	615
14	0	0	0	0	490	615
15	0	0	0	0	493	616
0	0	0	0	0	496	615
1	0	0	0	0	499	616
2	0	0	0	0	502	616
3	0	0	0	0	504	616
4	0	0	0	0	505	616
5	0	0	0	0	505	615
6	0	0	0	0	505	616
7	0	0	0	0	504	616
8	0	0	0	0	503	616
9	0	0	0	0	501	616
10	0	0	0	0	499	616
11	0	0	0	0	498	616
12	0	0	0	0	498	615
13	0	0	0	0	499	615
14	0	0	0	0	499	616
15	0	0	0	0	501	616
0	0	0	0	0	504	616
1	0	0	0	0	506	615
2	0	0	0	0	509	615
3	0	0	0	0	511	616
4	0	0	0	0	513	616
5	0	0	0	0	515	616
6	0	0	0	0	518	616
7	0	0	0	0	519	616
8	0	0	0	0	519	615
9	0	0	0	0	519	616
10	0	0	0	0	519	616
11	0	0	0	0	518	616
12	0	0	0	0	515	616
13	0	0	0	0	514	616
14	0	0	0	0	512	615
15	0	0	0	0	512	616
0	0	0	0	0	512	615
1	0	0	0	0	512	616
2	0	0	0	0	512	616
3	0	0	0	0	513	616
4	0	0	0	0	515	616
5	0	0	0	0	517	615
6	0	0	0	0	519	615
7	0	0	0	0	521	616
8	0	0	0	0	524	615
9	0	0	0	0	526	615
10	0	0	0	0	527	615
11	0	0	0	0	528	616
12	0	0	0	0	529	616
13	0	0	0	0	528	616
14	0	0	0	0	527	616
15	0	0	0	0	526	616
0	0	0	0	0	524	616
1	0	0	0	0	521	616
2	0	0	0	0	520	616
3	0	0	0	0	518	616
4	0	0	0	0	517	616
5	0	0	0	0	516	616
6	0	0	0	0	517	615
7	0	0	0	0	518	616
8	0	0	0	0	519	616
9	0	0	0	0	521	616
10	0	0	0	0	523	615
11	0	0	0	0	525	616
12	0	0	0	0	527	616
13	0	0	0	0	529	616
14	0	0	0	0	531	616
15	0	0	0	0	531	616
0	0	0	0	0	532	615
1	0	0	0	0	531	615
2	0	0	0	0	530	615
3	0	0	0	0	528	616
4	0	0	0	0	527	616
5	0	0	0	0	524	616
6	0	0	0	0	521	616
7	0	0	0	0	519	616
8	0	0	0	0	519	616
9	0	0	0	0	519	616
10	0	0	0	0	519	616
11	0	0	0	0	521	616
12	0	0	0	0	522	616
13	0	0	0	0	524	615
14	0	0	0	0	525	616
15	0	0	0	0	527	616
0	0	0	0	0	528	615
1	0	0	0	0	530	616
2	0	0	0	0	531	616
3	0	0	0	0	531	616
4	0	0	0	0	532	616
5	0	0	0	0	530	615
6	0	0	0	0	528	616
7	0	0	0	0	526	616
8	0	0	0	0	524	616
9	0	0	0	0	521	616
10	0	0	0	0	520	615
11	0	0	0	0	519	616
12	0	0	0	0	518	615
13	0	0	0	0	518	615
14	0	0	0	0	519	616
15	0	0	0	0	519	616
0	0	0	0	0	521	615
1	0	0	0	0	523	616
2	0	0	0	0	524	616
3	0	0	0	0	526	616
4	0	0	0	0	527	616
5	0	0	0	0	527	615
6	0	0	0	0	529	615
7	0	0	0	0	530	616
8	0	0	0	0	530	615
9	0	0	0	0	529	616
10	0	0	0	0	527	615
11	0	0	0	0	526	616
12	0	0	0	0	523	616
13	0	0	0	0	521	616
14	0	0	0	0	519	615
15	0	0	0	0	516	617
0	0	0	0	0	516	616
1	0	0	0	0	515	616
2	0	0	0	0	516	616
3	0	0	0	0	517	617
4	0	0	0	0	519	617
5	0	0	0	0	519	616
6	0	0	0	0	521	616
7	0	0	0	0	523	616
8	0	0	0	0	524	616
9	0	0	0	0	525	616
10	0	0	0	0	526	615
11	0	0	0	0	527	615
12	0	0	0	0	526	615
13	0	0	0	0	525	616
14	0	0	0	0	523	616
15	0	0	0	0	521	616
0	0	0	0	0	518	615
1	0	0	0	0	516	616
2	0	0	0	0	515	616
3	0	0	0	0	513	616
4	0	0	0	0	513	616
5	0	0	0	0	513	615
6	0	0	0	0	514	615
7	0	0	0	0	515	616
8	0	0	0	0	518	616
9	0	0	0	0	518	616
10	0	0	0	0	520	616
11	0	0	0	0	522	617
12	0	0	0	0	523	616
13	0	0	0	0	524	615
14	0	0	0	0	524	616
15	0	0	0	0	525	616
0	0	0	0	0	525	616
1	0	0	0	0	524	616
2	0	0	0	0	523	615
3	0	0	0	0	521	616
4	0	0	0	0	518	616
5	0	0	0	0	516	616
6	0	0	0	0	514	616
7	0	0	0	0	512	617
8	0	0	0	0	512	616
9	0	0	0	0	512	616
10	0	0	0	0	512	615
11	0	0	0	0	514	615
12	0	0	0	0	515	616
13	0	0	0	0	517	615
14	0	0	0	0	519	615
15	0	0	0	0	521	616
0	0	0	0	0	523	616
1	0	0	0	0	524	615
2	0	0	0	0	525	615
3	0	0	0	0	525	615
4	0	0	0	0	526	616
5	0	0	0	0	525	616
6	0	0	0	0	524	616
7	0	0	0	0	522	616
8	0	0	0	0	520	616
9	0	0	0	0	518	616
10	0	0	0	0	516	616
11	0	0	0	0	515	616
12	0	0	0	0	514	615
13	0	0	0	0	514	615
14	0	0	0	0	515	615
15	0	0	0	0	516	616
0	0	0	0	0	518	616
1	0	0	0	0	519	615
2	0	0	0	0	521	615
3	0	0	0	0	523	616
4	0	0	0	0	525	615
5	0	0	0	0	526	616
6	0	0	0	0	528	615
7	0	0	0	0	529	616
8	0	0	0	0	529	616
9	0	0	0	0	527	616
10	0	0	0	0	526	616
11	0	0	0	0	525	615
12	0	0	0	0	523	615
13	0	0	0	0	520	616
14	0	0	0	0	518	616
15	0	0	0	0	516	616
0	0	0	0	0	515	616
1	0	0	0	0	515	616
2	0	0	0	0	515	616
3	0	0	0	0	516	616
4	0	0	0	0	517	616
5	0	0	0	0	519	616
6	0	0	0	0	520	615
7	0	0	0	0	523	617
8	0	0	0	0	524	616
9	0	0	0	0	526	615
10	0	0	0	0	527	616
11	0	0	0	0	527	616
12	0	0	0	0	527	616
13	0	0	0	0	526	615
14	0	0	0	0	524	615
15	0	0	0	0	522	616
0	0	0	0	0	520	615
1	0	0	0	0	518	616
2	0	0	0	0	517	616
3	0	0	0	0	515	615
4	0	0	0	0	515	615
5	0	0	0	0	515	615
6	0	0	0	0	515	615
7	0	0	0	0	517	616
8	0	0	0	0	519	615
9	0	0	0	0	520	615
10	0	0	0	0	523	616
11	0	0	0	0	525	616
12	0	0	0	0	526	615
13	0	0	0	0	527	616
14	0	0	0	0	529	615
15	0	0	0	0	530	616
0	0	0	0	0	530	616
1	0	0	0	0	529	616
2	0	0	0	0	527	615
3	0	0	0	0	526	616
4	0	0	0	0	523	616
5	0	0	0	0	521	616
6	0	0	0	0	519	616
7	0	0	0	0	518	616
8	0	0	0	0	517	615
9	0	0	0	0	516	616
10	0	0	0	0	517	616
11	0	0	0	0	518	616
12	0	0	0	0	519	616
13	0	0	0	0	520	615
14	0	0	0	0	523	616
15	0	0	0	0	524	616
0	0	0	0	0	526	615
1	0	0	0	0	527	615
2	0	0	0	0	528	616
3	0	0	0	0	528	616
4	0	0	0	0	529	616
5	0	0	0	0	527	616
6	0	0	0	0	526	616
7	0	0	0	0	524	616
8	0	0	0	0	522	616
9	0	0	0	0	519	616
10	0	0	0	0	518	616
11	0	0	0	0	516	616
12	0	0	0	0	515	616
13	0	0	0	0	514	616
14	0	0	0	0	515	616
15	0	0	0	0	517	616
0	0	0	0	0	519	615
1	0	0	0	0	520	615
2	0	0	0	0	523	615
3	0	0	0	0	524	616
4	0	0	0	0	526	615
5	0	0	0	0	527	616
6	0	0	0	0	529	616
7	0	0	0	0	529	616
8	0	0	0	0	529	616
9	0	0	0	0	528	615
10	0	0	0	0	526	615
11	0	0	0	0	525	616
12	0	0	0	0	523	616
13	0	0	0	0	520	616
14	0	0	0	0	518	616
15	0	0	0	0	516	616
0	0	0	0	0	515	615
1	0	0	0	0	516	616
2	0	0	0	0	516	615
3	0	0	0	0	517	615
4	0	0	0	0	519	616
5	0	0	0	0	520	615
6	0	0	0	0	522	615
7	0	0	0	0	524	616
8	0	0	0	0	524	616
9	0	0	0	0	525	616
10	0	0	0	0	526	615
11	0	0	0	0	526	615
12	0	0	0	0	526	615
13	0	0	0	0	525	615
14	0	0	0	0	523	615
15	0	0	0	0	521	616
0	0	0	0	0	519	615
1	0	0	0	0	516	615
2	0	0	0	0	514	615
3	0	0	0	0	513	616
4	0	0	0	0	512	616
5	0	0	0	0	512	616
6	0	0	0	0	512	616
7	0	0	0	0	514	617
8	0	0	0	0	515	616
9	0	0	0	0	516	616
10	0	0	0	0	518	615
11	0	0	0	0	520	616
12	0	0	0	0	521	615
13	0	0	0	0	523	616
14	0	0	0	0	524	616
15	0	0	0	0	525	617
0	0	0	0	0	525	616
1	0	0	0	0	524	616
2	0	0	0	0	523	616
3	0	0	0	0	520	616
4	0	0	0	0	518	615
5	0	0	0	0	516	615
6	0	0	0	0	514	615
7	0	0	0	0	512	616
8	0	0	0	0	512	616
9	0	0	0	0	511	616
10	0	0	0	0	512	616
11	0	0	0	0	513	616
12	0	0	0	0	514	616
13	0	0	0	0	515	616
14	0	0	0	0	517	616
15	0	0	0	0	519	617
0	0	0	0	0	521	616
1	0	0	0	0	522	616
2	0	0	0	0	523	616
3	0	0	0	0	523	616
4	0	0	0	0	523	616
5	0	0	0	0	521	616
6	0	0	0	0	521	616
7	0	0	0	0	519	617
8	0	0	0	0	516	615
9	0	0	0	0	514	615
10	0	0	0	0	512	616
11	0	0	0	0	510	615
12	0	0	0	0	509	615
13	0	0	0	0	509	615
14	0	0	0	0	510	615
15	0	0	0	0	511	616
0	0	0	0	0	512	616
1	0	0	0	0	514	615
2	0	0	0	0	515	615
3	0	0	0	0	517	615
4	0	0	0	0	518	616
5	0	0	0	0	520	615
6	0	0	0	0	520	615
7	0	0	0	0	521	616
8	0	0	0	0	521	616
9	0	0	0	0	519	615
10	0	0	0	0	518	616
11	0	0	0	0	517	616
12	0	0	0	0	514	616
13	0	0	0	0	512	616
14	0	0	0	0	510	615
15	0	0	0	0	508	616
0	0	0	0	0	507	616
1	0	0	0	0	506	616
2	0	0	0	0	507	616
3	0	0	0	0	507	616
4	0	0	0	0	508	615
5	0	0	0	0	510	616
6	0	0	0	0	511	616
7	0	0	0	0	513	616
8	0	0	0	0	515	616
9	0	0	0	0	516	616
10	0	0	0	0	517	616
11	0	0	0	0	517	616
12	0	0	0	0	518	616
13	0	0	0	0	518	615
14	0	0	0	0	516	616
15	0	0	0	0	515	617
0	0	0	0	0	513	615
1	0	0	0	0	511	616
2	0	0	0	0	509	616
3	0	0	0	0	507	615
4	0	0	0	0	507	615
5	0	0	0	0	507	616
6	0	0	0	0	507	616
7	0	0	0	0	508	616
8	0	0	0	0	510	616
9	0	0	0	0	511	615
10	0	0	0	0	513	615
11	0	0	0	0	514	616
12	0	0	0	0	516	616
13	0	0	0	0	517	616
14	0	0	0	0	518	616
15	0	0	0	0	518	616
0	0	0	0	0	518	616
1	0	0	0	0	516	616
2	0	0	0	0	514	616
3	0	0	0	0	513	616
4	0	0	0	0	511	616
5	0	0	0	0	510	616
6	0	0	0	0	507	616
7	0	0	0	0	505	616
8	0	0	0	0	505	615
9	0	0	0	0	505	616
10	0	0	0	0	505	616
11	0	0	0	0	506	615
12	0	0	0	0	508	616
13	0	0	0	0	509	616
14	0	0	0	0	511	615
15	0	0	0	0	513	616
0	0	0	0	0	514	615
1	0	0	0	0	515	616
2	0	0	0	0	516	616
3	0	0	0	0	517	616
4	0	0	0	0	517	615
5	0	0	0	0	516	615
6	0	0	0	0	515	616
7	0	0	0	0	513	616
8	0	0	0	0	510	616
9	0	0	0	0	508	616
10	0	0	0	0	505	616
11	0	0	0	0	503	616
12	0	0	0	0	502	616
13	0	0	0	0	502	616
14	0	0	0	0	503	616
15	0	0	0	0	504	617
0	0	0	0	0	506	616
1	0	0	0	0	508	616
2	0	0	0	0	510	616
3	0	0	0	0	512	617
4	0	0	0	0	513	616
5	0	0	0	0	515	616
6	0	0	0	0	515	615
7	0	0	0	0	516	616
8	0	0	0	0	516	616
9	0	0	0	0	515	616
10	0	0	0	0	514	615
11	0	0	0	0	512	616
12	0	0	0	0	510	616
13	0	0	0	0	508	616
14	0	0	0	0	505	616
15	0	0	0	0	504	616
0	0	0	0	0	503	615
1	0	0	0	0	503	615
2	0	0	0	0	504	615
3	0	0	0	0	504	615
4	0	0	0	0	507	616
5	0	0	0	0	508	616
6	0	0	0	0	510	615
7	0	0	0	0	512	617
8	0	0	0	0	514	616
9	0	0	0	0	515	615
10	0	0	0	0	516	615
11	0	0	0	0	516	616
12	0	0	0	0	516	616
13	0	0	0	0	515	616
14	0	0	0	0	514	616
15	0	0	0	0	512	616
0	0	0	0	0	509	616
1	0	0	0	0	507	616
2	0	0	0	0	505	616
3	0	0	0	0	504	617
4	0	0	0	0	503	616
5	0	0	0	0	503	616
6	0	0	0	0	504	616
7	0	0	0	0	504	616
8	0	0	0	0	506	616
9	0	0	0	0	508	616
10	0	0	0	0	510	615
11	0	0	0	0	512	616
12	0	0	0	0	514	616
13	0	0	0	0	515	616
14	0	0	0	0	516	616
15	0	0	0	0	516	616
0	0	0	0	0	517	616
1	0	0	0	0	515	615
2	0	0	0	0	514	616
3	0	0	0	0	513	615
4	0	0	0	0	511	615
5	0	0	0	0	509	616
6	0	0	0	0	506	615
7	0	0	0	0	504	615
8	0	0	0	0	503	615
9	0	0	0	0	503	615
10	0	0	0	0	503	615
11	0	0	0	0	504	615
12	0	0	0	0	505	615
13	0	0	0	0	506	615
14	0	0	0	0	508	615
15	0	0	0	0	509	616
0	0	0	0	0	511	615
1	0	0	0	0	512	615
2	0	0	0	0	512	616
3	0	0	0	0	513	616
4	0	0	0	0	513	615
5	0	0	0	0	513	616
6	0	0	0	0	512	616
7	0	0	0	0	510	616
8	0	0	0	0	508	616
9	0	0	0	0	506	616
10	0	0	0	0	504	616
11	0	0	0	0	501	616
12	0	0	0	0	501	616
13	0	0	0	0	501	616
14	0	0	0	0	501	616
15	0	0	0	0	502	616
0	0	0	0	0	504	616
1	0	0	0	0	504	616
2	0	0	0	0	507	616
3	0	0	0	0	509	616
4	0	0	0	0	511	615
5	0	0	0	0	512	616
6	0	0	0	0	513	615
7	0	0	0	0	513	616
8	0	0	0	0	514	615
9	0	0	0	0	513	616
10	0	0	0	0	512	616
11	0	0	0	0	510	616
12	0	0	0	0	507	616
13	0	0	0	0	505	616
14	0	0	0	0	503	616
15	0	0	0	0	501	616
0	0	0	0	0	501	615
1	0	0	0	0	501	615
2	0	0	0	0	501	616
3	0	0	0	0	503	616
4	0	0	0	0	504	616
5	0	0	0	0	505	615
6	0	0	0	0	508	615
7	0	0	0	0	510	616
8	0	0	0	0	512	615
9	0	0	0	0	513	616
10	0	0	0	0	515	615
11	0	0	0	0	516	616
12	0	0	0	0	516	615
13	0	0	0	0	515	616
14	0	0	0	0	513	616
15	0	0	0	0	511	616
0	0	0	0	0	509	616
1	0	0	0	0	507	616
2	0	0	0	0	504	616
3	0	0	0	0	503	616
4	0	0	0	0	502	616
5	0	0	0	0	501	615
6	0	0	0	0	501	615
7	0	0	0	0	501	616
8	0	0	0	0	503	616
9	0	0	0	0	504	615
10	0	0	0	0	505	615
11	0	0	0	0	507	616
12	0	0	0	0	509	616
13	0	0	0	0	510	616
14	0	0	0	0	510	616
15	0	0	0	0	510	617
0	0	0	0	0	511	616
1	0	0	0	0	509	616
2	0	0	0	0	507	616
3	0	0	0	0	505	616
4	0	0	0	0	502	616
5	0	0	0	0	500	616
6	0	0	0	0	498	616
7	0	0	0	0	496	617
8	0	0	0	0	496	616
9	0	0	0	0	495	616
10	0	0	0	0	496	615
11	0	0	0	0	497	616
12	0	0	0	0	498	615
13	0	0	0	0	499	615
14	0	0	0	0	500	615
15	0	0	0	0	503	617
0	0	0	0	0	504	615
1	0	0	0	0	506	615
2	0	0	0	0	507	616
3	0	0	0	0	508	616
4	0	0	0	0	507	616
5	0	0	0	0	507	616
6	0	0	0	0	505	616
7	0	0	0	0	504	616
8	0	0	0	0	503	615
9	0	0	0	0	501	616
10	0	0	0	0	499	616
11	0	0	0	0	499	616
12	0	0	0	0	499	616
13	0	0	0	0	499	616
14	0	0	0	0	500	616
15	0	0	0	0	502	617
0	0	0	0	0	505	616
1	0	0	0	0	508	616
2	0	0	0	0	511	616
3	0	0	0	0	513	616
4	0	0	0	0	514	615
5	0	0	0	0	516	616
6	0	0	0	0	517	616
7	0	0	0	0	518	616
8	0	0	0	0	518	616
9	0	0	0	0	517	616
10	0	0	0	0	515	616
11	0	0	0	0	514	616
12	0	0	0	0	512	616
13	0	0	0	0	510	616
14	0	0	0	0	507	616
15	0	0	0	0	505	617
0	0	0	0	0	504	616
1	0	0	0	0	505	616
2	0	0	0	0	505	615
3	0	0	0	0	507	615
4	0	0	0	0	508	615
5	0	0	0	0	509	616
6	0	0	0	0	511	616
7	0	0	0	0	513	616
8	0	0	0	0	515	616
9	0	0	0	0	517	615
10	0	0	0	0	518	615
11	0	0	0	0	518	616
12	0	0	0	0	518	615
13	0	0	0	0	516	615
14	0	0	0	0	514	616
15	0	0	0	0	512	616
0	0	0	0	0	510	615
1	0	0	0	0	508	616
2	0	0	0	0	505	615
3	0	0	0	0	504	616
4	0	0	0	0	504	616
5	0	0	0	0	503	616
6	0	0	0	0	504	616
7	0	0	0	0	504	617
8	0	0	0	0	506	615
9	0	0	0	0	508	616
10	0	0	0	0	510	616
11	0	0	0	0	513	616
12	0	0	0	0	515	616
13	0	0	0	0	515	615
14	0	0	0	0	516	616
15	0	0	0	0	516	616
0	0	0	0	0	517	616
1	0	0	0	0	515	616
2	0	0	0	0	514	616
3	0	0	0	0	512	616
4	0	0	0	0	510	615
5	0	0	0	0	508	616
6	0	0	0	0	505	616
7	0	0	0	0	504	616
8	0	0	0	0	504	616
9	0	0	0	0	503	616
10	0	0	0	0	504	616
11	0	0	0	0	505	616
12	0	0	0	0	506	616
13	0	0	0	0	508	616
14	0	0	0	0	509	616
15	0	0	0	0	512	617
0	0	0	0	0	513	616
1	0	0	0	0	515	616
2	0	0	0	0	516	615
3	0	0	0	0	516	615
4	0	0	0	0	515	616
5	0	0	0	0	514	616
6	0	0	0	0	513	616
7	0	0	0	0	511	617
8	0	0	0	0	508	616
9	0	0	0	0	506	616
10	0	0	0	0	504	616
11	0	0	0	0	502	616
12	0	0	0	0	502	616
13	0	0	0	0	501	616
14	0	0	0	0	502	616
15	0	0	0	0	503	616
0	0	0	0	0	503	616
1	0	0	0	0	505	616
2	0	0	0	0	505	616
3	0	0	0	0	507	616
4	0	0	0	0	507	616
5	0	0	0	0	506	616
6	0	0	0	0	503	615
7	0	0	0	0	499	616
8	0	0	0	0	492	616
9	0	0	0	0	482	615
10	0	0	0	0	471	615
11	0	0	0	0	459	616
12	0	0	0	0	446	615
13	0	0	0	0	433	615
14	0	0	0	0	422	615
15	0	0	0	0	411	616
0	0	0	0	0	401	615
1	0	0	0	0	395	615
2	0	0	0	0	391	616
3	0	0	0	0	390	615
4	0	0	0	0	391	616
5	0	0	0	0	395	616
6	0	0	0	0	399	616
7	0	0	0	0	407	617
8	0	0	0	0	415	615
9	0	0	0	0	426	616
10	0	0	0	0	435	616
11	0	0	0	0	444	616
12	0	0	0	0	451	617
13	0	0	0	0	457	616
14	0	0	0	0	465	616
15	0	0	0	0	476	616
0	0	0	0	0	491	616
1	0	0	0	0	512	617
2	0	0	0	0	537	616
3	0	0	0	0	567	616
4	0	0	0	0	606	616
5	0	0	0	0	651	616
6	0	0	0	0	699	616
7	0	0	0	0	752	616
8	0	0	0	0	805	616
9	0	0	0	0	855	616
10	0	0	0	0	900	615
11	0	0	0	0	939	616
12	0	0	0	0	970	615
13	0	0	0	0	995	615
14	0	0	0	0	1011	615
15	0	0	0	0	1020	616
0	0	0	0	0	1022	616
1	0	0	0	0	1022	616
2	0	0	0	0	1018	616
3	0	0	0	0	1005	616
4	0	0	0	0	987	616
5	0	0	0	0	965	616
6	0	0	0	0	939	616
7	0	0	0	0	910	616
8	0	0	0	0	879	615
9	0	0	0	0	844	615
10	0	0	0	0	808	615
11	0	0	0	0	776	615
12	0	0	0	0	748	615
13	0	0	0	0	721	615
14	0	0	0	0	698	615
15	0	0	0	0	677	616
0	0	0	0	0	657	615
1	0	0	0	0	639	615
2	0	0	0	0	624	616
3	0	0	0	0	611	615
4	0	0	0	0	598	616
5	0	0	0	0	583	615
6	0	0	0	0	568	615
7	0	0	0	0	554	615
8	0	0	0	0	539	615
9	0	0	0	0	524	616
10	0	0	0	0	509	616
11	0	0	0	0	495	616
12	0	0	0	0	482	615
13	0	0	0	0	470	615
14	0	0	0	0	460	616
15	0	0	0	0	451	616
0	0	0	0	0	445	616
1	0	0	0	0	438	616
2	0	0	0	0	432	616
3	0	0	0	0	427	616
4	0	0	0	0	423	616
5	0	0	0	0	418	616
6	0	0	0	0	415	616
7	0	0	0	0	412	616
8	0	0	0	0	409	616
9	0	0	0	0	406	615
10	0	0	0	0	402	616
11	0	0	0	0	398	616
12	0	0	0	0	393	615
13	0	0	0	0	389	616
14	0	0	0	0	386	616
15	0	0	0	0	383	616
0	0	0	0	0	382	616
1	0	0	0	0	381	616
2	0	0	0	0	381	616
3	0	0	0	0	383	616
4	0	0	0	0	384	616
5	0	0	0	0	385	615
6	0	0	0	0	388	615
7	0	0	0	0	390	615
8	0	0	0	0	391	615
9	0	0	0	0	393	616
10	0	0	0	0	395	616
11	0	0	0	0	396	616
12	0	0	0	0	397	616
13	0	0	0	0	396	616
14	0	0	0	0	396	616
15	0	0	0	0	395	617
0	0	0	0	0	393	616
1	0	0	0	0	392	615
2	0	0	0	0	391	615
3	0	0	0	0	391	616
4	0	0	0	0	391	616
5	0	0	0	0	392	615
6	0	0	0	0	394	616
7	0	0	0	0	395	616
8	0	0	0	0	398	615
9	0	0	0	0	400	616
10	0	0	0	0	403	616
11	0	0	0	0	407	616
12	0	0	0	0	409	615
13	0	0	0	0	412	616
14	0	0	0	0	414	616
15	0	0	0	0	415	616
0	0	0	0	0	416	616
1	0	0	0	0	416	617
2	0	0	0	0	416	616
3	0	0	0	0	415	616
4	0	0	0	0	413	615
5	0	0	0	0	412	616
6	0	0	0	0	411	616
7	0	0	0	0	411	617
8	0	0	0	0	411	616
9	0	0	0	0	412	615
10	0	0	0	0	412	615
11	0	0	0	0	414	616
12	0	0	0	0	417	615
13	0	0	0	0	420	615
14	0	0	0	0	422	615
15	0	0	0	0	425	616
0	0	0	0	0	427	616
1	0	0	0	0	430	615
2	0	0	0	0	431	615
3	0	0	0	0	432	615
4	0	0	0	0	433	615
5	0	0	0	0	432	615
6	0	0	0	0	432	615
7	0	0	0	0	432	616
8	0	0	0	0	430	615
9	0	0	0	0	429	616
10	0	0	0	0	427	616
11	0	0	0	0	426	616
12	0	0	0	0	426	616
13	0	0	0	0	426	616
14	0	0	0	0	426	616
15	0	0	0	0	428	616
0	0	0	0	0	430	616
1	0	0	0	0	432	616
2	0	0	0	0	435	616
3	0	0	0	0	437	616
4	0	0	0	0	440	616
5	0	0	0	0	442	615
6	0	0	0	0	444	616
7	0	0	0	0	445	616
8	0	0	0	0	446	615
9	0	0	0	0	445	615
10	0	0	0	0	444	615
11	0	0	0	0	444	616
12	0	0	0	0	442	616
13	0	0	0	0	440	616
14	0	0	0	0	439	616
15	0	0	0	0	438	616
0	0	0	0	0	438	616
1	0	0	0	0	438	615
2	0	0	0	0	438	616
3	0	0	0	0	440	615
4	0	0	0	0	441	616
5	0	0	0	0	442	615
6	0	0	0	0	444	615
7	0	0	0	0	446	616
8	0	0	0	0	448	615
9	0	0	0	0	450	616
10	0	0	0	0	451	615
11	0	0	0	0	452	616
12	0	0	0	0	452	616
13	0	0	0	0	452	616
14	0	0	0	0	451	616
15	0	0	0	0	451	616
0	0	0	0	0	448	616
1	0	0	0	0	447	616
2	0	0	0	0	445	616
3	0	0	0	0	444	617
4	0	0	0	0	444	616
5	0	0	0	0	445	616
6	0	0	0	0	445	616
7	0	0	0	0	447	617
8	0	0	0	0	449	616
9	0	0	0	0	451	616
10	0	0	0	0	453	615
11	0	0	0	0	455	616
12	0	0	0	0	456	616
13	0	0	0	0	458	616
14	0	0	0	0	459	616
15	0	0	0	0	460	617
0	0	0	0	0	460	616
1	0	0	0	0	459	616
2	0	0	0	0	458	616
3	0	0	0	0	456	616
4	0	0	0	0	454	615
5	0	0	0	0	452	616
6	0	0	0	0	451	615
7	0	0	0	0	450	616
8	0	0	0	0	449	615
9	0	0	0	0	449	616
10	0	0	0	0	451	616
11	0	0	0	0	453	616
12	0	0	0	0	454	616
13	0	0	0	0	456	616
14	0	0	0	0	458	615
15	0	0	0	0	461	617
0	0	0	0	0	464	615
1	0	0	0	0	466	615
2	0	0	0	0	468	616
3	0	0	0	0	470	616
4	0	0	0	0	471	616
5	0	0	0	0	470	616
6	0	0	0	0	469	616
7	0	0	0	0	467	617
8	0	0	0	0	466	615
9	0	0	0	0	465	616
10	0	0	0	0	463	616
11	0	0	0	0	462	617
12	0	0	0	0	462	616
13	0	0	0	0	463	616
14	0	0	0	0	464	616
15	0	0	0	0	466	616
0	0	0	0	0	468	616
1	0	0	0	0	472	615
2	0	0	0	0	475	615
3	0	0	0	0	478	616
4	0	0	0	0	481	615
5	0	0	0	0	484	615
6	0	0	0	0	486	616
7	0	0	0	0	488	616
8	0	0	0	0	490	616
9	0	0	0	0	490	615
10	0	0	0	0	491	615
11	0	0	0	0	490	616
12	0	0	0	0	489	616
13	0	0	0	0	488	615
14	0	0	0	0	487	615
15	0	0	0	0	487	617
0	0	0	0	0	487	615
1	0	0	0	0	487	615
2	0	0	0	0	488	616
3	0	0	0	0	491	616
4	0	0	0	0	494	617
5	0	0	0	0	496	616
6	0	0	0	0	499	616
7	0	0	0	0	503	616
8	0	0	0	0	505	615
9	0	0	0	0	508	616
10	0	0	0	0	510	616
11	0	0	0	0	511	616
12	0	0	0	0	512	616
13	0	0	0	0	512	616
14	0	0	0	0	511	616
15	0	0	0	0	510	616
0	0	0	0	0	508	615
1	0	0	0	0	507	616
2	0	0	0	0	506	616
3	0	0	0	0	505	616
4	0	0	0	0	504	616
5	0	0	0	0	505	616
6	0	0	0	0	506	615
7	0	0	0	0	508	616
8	0	0	0	0	511	615
9	0	0	0	0	513	615
10	0	0	0	0	515	615
11	0	0	0	0	518	616
12	0	0	0	0	519	615
13	0	0	0	0	522	616
14	0	0	0	0	524	616
15	0	0	0	0	524	616
0	0	0	0	0	524	615
1	0	0	0	0	523	616
2	0	0	0	0	523	616
3	0	0	0	0	521	616
4	0	0	0	0	519	615
5	0	0	0	0	517	615
6	0	0	0	0	515	616
7	0	0	0	0	514	616
8	0	0	0	0	514	616
9	0	0	0	0	513	616
10	0	0	0	0	515	616
11	0	0	0	0	515	616
12	0	0	0	0	516	616
13	0	0	0	0	518	616
14	0	0	0	0	520	616
15	0	0	0	0	522	616
0	0	0	0	0	524	616
1	0	0	0	0	525	616
2	0	0	0	0	526	615
3	0	0	0	0	527	616
4	0	0	0	0	526	616
5	0	0	0	0	526	616
6	0	0	0	0	524	616
7	0	0	0	0	523	616
8	0	0	0	0	521	615
9	0	0	0	0	519	616
10	0	0	0	0	517	615
11	0	0	0	0	515	616
12	0	0	0	0	515	616
13	0	0	0	0	515	616
14	0	0	0	0	515	616
15	0	0	0	0	517	616
0	0	0	0	0	519	616
1	0	0	0	0	521	616
2	0	0	0	0	523	616
3	0	0	0	0	525	616
4	0	0	0	0	527	615
5	0	0	0	0	528	616
6	0	0	0	0	529	615
7	0	0	0	0	530	616
8	0	0	0	0	530	616
9	0	0	0	0	529	616
10	0	0	0	0	528	616
11	0	0	0	0	526	616
12	0	0	0	0	524	616
13	0	0	0	0	522	616
14	0	0	0	0	520	616
15	0	0	0	0	519	616
0	0	0	0	0	518	616
1	0	0	0	0	518	615
2	0	0	0	0	519	616
3	0	0	0	0	520	616
4	0	0	0	0	522	615
5	0	0	0	0	524	616
6	0	0	0	0	526	616
7	0	0	0	0	527	617
8	0	0	0	0	529	616
9	0	0	0	0	531	616
10	0	0	0	0	532	616
11	0	0	0	0	532	616
12	0	0	0	0	533	616
13	0	0	0	0	532	616
14	0	0	0	0	531	616
15	0	0	0	0	530	616
0	0	0	0	0	527	615
1	0	0	0	0	526	616
2	0	0	0	0	524	615
3	0	0	0	0	522	615
4	0	0	0	0	521	615
5	0	0	0	0	520	615
6	0	0	0	0	521	616
7	0	0	0	0	521	616
8	0	0	0	0	523	615
9	0	0	0	0	524	616
10	0	0	0	0	526	616
11	0	0	0	0	528	616
12	0	0	0	0	529	616
13	0	0	0	0	531	616
14	0	0	0	0	531	616
15	0	0	0	0	532	616
0	0	0	0	0	531	616
1	0	0	0	0	529	615
2	0	0	0	0	527	616
3	0	0	0	0	526	616
4	0	0	0	0	524	616
5	0	0	0	0	521	616
6	0	0	0	0	519	616
7	0	0	0	0	518	616
8	0	0	0	0	516	615
9	0	0	0	0	516	615
10	0	0	0	0	517	616
11	0	0	0	0	518	616
12	0	0	0	0	519	616
13	0	0	0	0	521	615
14	0	0	0	0	523	615
15	0	0	0	0	524	616
0	0	0	0	0	525	615
1	0	0	0	0	527	616
2	0	0	0	0	528	616
3	0	0	0	0	528	616
4	0	0	0	0	528	616
5	0	0	0	0	527	616
6	0	0	0	0	526	616
7	0	0	0	0	524	616
8	0	0	0	0	521	616
9	0	0	0	0	519	616
10	0	0	0	0	516	615
11	0	0	0	0	515	616
12	0	0	0	0	514	615
13	0	0	0	0	514	616
14	0	0	0	0	515	617
15	0	0	0	0	516	617
0	0	0	0	0	518	616
1	0	0	0	0	519	616
2	0	0	0	0	520	616
3	0	0	0	0	521	616
4	0	0	0	0	523	617
5	0	0	0	0	525	616
6	0	0	0	0	525	615
7	0	0	0	0	526	616
8	0	0	0	0	526	616
9	0	0	0	0	525	615
10	0	0	0	0	523	615
11	0	0	0	0	521	615
12	0	0	0	0	519	615
13	0	0	0	0	518	615
14	0	0	0	0	516	616
15	0	0	0	0	515	616
0	0	0	0	0	514	616
1	0	0	0	0	514	616
2	0	0	0	0	515	617
3	0	0	0	0	516	617
4	0	0	0	0	517	616
5	0	0	0	0	519	616
6	0	0	0	0	521	616
7	0	0	0	0	523	617
8	0	0	0	0	525	615
9	0	0	0	0	527	616
10	0	0	0	0	528	616
11	0	0	0	0	528	616
12	0	0	0	0	527	616
13	0	0	0	0	527	615
14	0	0	0	0	525	616
15	0	0	0	0	524	616
0	0	0	0	0	521	615
1	0	0	0	0	519	616
2	0	0	0	0	516	616
3	0	0	0	0	515	616
4	0	0	0	0	515	615
5	0	0	0	0	515	615
6	0	0	0	0	516	615
7	0	0	0	0	517	616
8	0	0	0	0	519	616
9	0	0	0	0	520	616
10	0	0	0	0	522	616
11	0	0	0	0	524	616
12	0	0	0	0	525	616
13	0	0	0	0	527	615
14	0	0	0	0	527	616
15	0	0	0	0	528	616
0	0	0	0	0	528	616
1	0	0	0	0	527	615
2	0	0	0	0	526	615
3	0	0	0	0	524	616
4	0	0	0	0	522	615
5	0	0	0	0	520	616
6	0	0	0	0	518	615
7	0	0	0	0	516	616
8	0	0	0	0	515	616
9	0	0	0	0	515	616
10	0	0	0	0	516	616
11	0	0	0	0	516	616
12	0	0	0	0	518	616
13	0	0	0	0	519	615
14	0	0	0	0	521	616
15	0	0	0	0	524	616
0	0	0	0	0	526	616
1	0	0	0	0	528	616
2	0	0	0	0	529	616
3	0	0	0	0	530	615
4	0	0	0	0	529	616
5	0	0	0	0	527	616
6	0	0	0	0	527	616
7	0	0	0	0	525	616
8	0	0	0	0	522	616
9	0	0	0	0	520	615
10	0	0	0	0	518	616
11	0	0	0	0	516	616
12	0	0	0	0	515	616
13	0	0	0	0	515	615
14	0	0	0	0	516	616
15	0	0	0	0	516	616
0	0	0	0	0	518	616
1	0	0	0	0	519	615
2	0	0	0	0	521	616
3	0	0	0	0	523	616
4	0	0	0	0	524	616
5	0	0	0	0	526	616
6	0	0	0	0	526	615
7	0	0	0	0	527	616
8	0	0	0	0	527	616
9	0	0	0	0	526	615
10	0	0	0	0	524	616
11	0	0	0	0	523	615
12	0	0	0	0	520	615
13	0	0	0	0	519	616
14	0	0	0	0	516	616
15	0	0	0	0	515	616
0	0	0	0	0	515	616
1	0	0	0	0	514	616
2	0	0	0	0	515	616
3	0	0	0	0	516	616
4	0	0	0	0	517	616
5	0	0	0	0	519	616
6	0	0	0	0	521	616
7	0	0	0	0	523	616
8	0	0	0	0	524	616
9	0	0	0	0	526	616
10	0	0	0	0	527	615
11	0	0	0	0	527	616
12	0	0	0	0	527	615
13	0	0	0	0	525	615
14	0	0	0	0	524	616
15	0	0	0	0	522	616
0	0	0	0	0	519	616
1	0	0	0	0	517	616
2	0	0	0	0	515	616
3	0	0	0	0	513	616
4	0	0	0	0	512	616
5	0	0	0	0	512	616
6	0	0	0	0	513	616
7	0	0	0	0	514	616
8	0	0	0	0	515	616
9	0	0	0	0	516	615
10	0	0	0	0	519	615
11	0	0	0	0	520	616
12	0	0	0	0	522	616
13	0	0	0	0	524	616
14	0	0	0	0	524	616
15	0	0	0	0	525	616
0	0	0	0	0	524	616
1	0	0	0	0	523	615
2	0	0	0	0	522	615
3	0	0	0	0	520	616
4	0	0	0	0	518	615
5	0	0	0	0	516	616
6	0	0	0	0	513	615
7	0	0	0	0	512	616
8	0	0	0	0	511	615
9	0	0	0	0	511	616
10	0	0	0	0	511	616
11	0	0	0	0	511	616
12	0	0	0	0	512	615
13	0	0	0	0	514	616
14	0	0	0	0	515	616
15	0	0	0	0	517	616
0	0	0	0	0	519	615
1	0	0	0	0	521	616
2	0	0	0	0	522	616
3	0	0	0	0	523	615
4	0	0	0	0	523	615
5	0	0	0	0	521	615
6	0	0	0	0	520	615
7	0	0	0	0	519	616
8	0	0	0	0	516	615
9	0	0	0	0	514	616
10	0	0	0	0	511	616
11	0	0	0	0	510	616
12	0	0	0	0	509	616
13	0	0	0	0	509	615
14	0	0	0	0	509	615
15	0	0	0	0	510	616
0	0	0	0	0	512	615
1	0	0	0	0	512	616
2	0	0	0	0	513	615
3	0	0	0	0	515	616
4	0	0	0	0	517	616
5	0	0	0	0	519	615
6	0	0	0	0	520	616
7	0	0	0	0	521	616
8	0	0	0	0	521	616
9	0	0	0	0	520	616
10	0	0	0	0	519	616
11	0	0	0	0	517	616
12	0	0	0	0	515	616
13	0	0	0	0	512	616
14	0	0	0	0	510	616
15	0	0	0	0	508	617
0	0	0	0	0	508	616
1	0	0	0	0	508	615
2	0	0	0	0	509	616
3	0	0	0	0	510	616
4	0	0	0	0	511	616
5	0	0	0	0	512	616
6	0	0	0	0	514	615
7	0	0	0	0	516	616
8	0	0	0	0	517	615
9	0	0	0	0	519	615
10	0	0	0	0	519	616
11	0	0	0	0	520	616
12	0	0	0	0	520	616
13	0	0	0	0	519	615
14	0	0	0	0	518	615
15	0	0	0	0	517	616
0	0	0	0	0	514	616
1	0	0	0	0	512	616
2	0	0	0	0	510	617
3	0	0	0	0	508	616
4	0	0	0	0	508	616
5	0	0	0	0	508	615
6	0	0	0	0	508	616
7	0	0	0	0	509	616
8	0	0	0	0	511	616
9	0	0	0	0	512	615
10	0	0	0	0	514	616
11	0	0	0	0	516	617
12	0	0	0	0	518	616
13	0	0	0	0	519	616
14	0	0	0	0	519	616
15	0	0	0	0	519	616
0	0	0	0	0	519	616
1	0	0	0	0	519	616
2	0	0	0	0	518	615
3	0	0	0	0	515	616
4	0	0	0	0	513	615
5	0	0	0	0	511	616
6	0	0	0	0	509	616
7	0	0	0	0	507	616
8	0	0	0	0	506	616
9	0	0	0	0	505	615
10	0	0	0	0	505	616
11	0	0	0	0	507	616
12	0	0	0	0	509	616
13	0	0	0	0	510	616
14	0	0	0	0	512	616
15	0	0	0	0	514	616
0	0	0	0	0	516	615
1	0	0	0	0	517	616
2	0	0	0	0	518	616
3	0	0	0	0	518	616
4	0	0	0	0	518	616
5	0	0	0	0	516	616
6	0	0	0	0	515	615
7	0	0	0	0	512	616
8	0	0	0	0	511	616
9	0	0	0	0	509	616
10	0	0	0	0	507	616
11	0	0	0	0	505	616
12	0	0	0	0	505	616
13	0	0	0	0	504	616
14	0	0	0	0	505	616
15	0	0	0	0	507	616
0	0	0	0	0	509	616
1	0	0	0	0	511	615
2	0	0	0	0	513	616
3	0	0	0	0	515	615
4	0	0	0	0	517	616
5	0	0	0	0	518	616
6	0	0	0	0	519	616
7	0	0	0	0	519	617
8	0	0	0	0	519	617
9	0	0	0	0	518	616
10	0	0	0	0	516	616
11	0	0	0	0	515	616
12	0	0	0	0	512	616
13	0	0	0	0	510	616
14	0	0	0	0	508	616
15	0	0	0	0	507	616
0	0	0	0	0	505	616
1	0	0	0	0	504	615
2	0	0	0	0	505	616
3	0	0	0	0	506	616
4	0	0	0	0	507	615
5	0	0	0	0	508	616
6	0	0	0	0	511	615
7	0	0	0	0	513	616
8	0	0	0	0	514	616
9	0	0	0	0	515	616
10	0	0	0	0	517	616
11	0	0	0	0	517	616
12	0	0	0	0	517	616
13	0	0	0	0	515	616
14	0	0	0	0	513	615
15	0	0	0	0	512	616
0	0	0	0	0	509	615
1	0	0	0	0	508	615
2	0	0	0	0	505	616
3	0	0	0	0	504	616
4	0	0	0	0	503	616
5	0	0	0	0	504	615
6	0	0	0	0	504	616
7	0	0	0	0	505	616
8	0	0	0	0	507	615
9	0	0	0	0	508	615
10	0	0	0	0	510	615
11	0	0	0	0	512	616
12	0	0	0	0	513	615
13	0	0	0	0	514	616
14	0	0	0	0	515	616
15	0	0	0	0	515	616
0	0	0	0	0	515	616
1	0	0	0	0	514	616
2	0	0	0	0	513	616
3	0	0	0	0	510	616
4	0	0	0	0	508	616
5	0	0	0	0	506	616
6	0	0	0	0	504	615
7	0	0	0	0	503	615
8	0	0	0	0	503	616
9	0	0	0	0	502	616
10	0	0	0	0	503	616
11	0	0	0	0	504	616
12	0	0	0	0	505	616
13	0	0	0	0	507	616
14	0	0	0	0	508	616
15	0	0	0	0	510	617
0	0	0	0	0	512	616
1	0	0	0	0	513	616
2	0	0	0	0	514	616
3	0	0	0	0	515	616
4	0	0	0	0	515	616
5	0	0	0	0	514	616
6	0	0	0	0	512	616
7	0	0	0	0	511	616
8	0	0	0	0	508	615
9	0	0	0	0	505	616
10	0	0	0	0	504	615
11	0	0	0	0	502	616
12	0	0	0	0	502	616
13	0	0	0	0	503	615
14	0	0	0	0	503	616
15	0	0	0	0	504	616
0	0	0	0	0	506	615
1	0	0	0	0	507	616
2	0	0	0	0	509	616
3	0	0	0	0	511	616
4	0	0	0	0	512	615
5	0	0	0	0	514	616
6	0	0	0	0	515	616
7	0	0	0	0	515	616
8	0	0	0	0	514	616
9	0	0	0	0	512	615
10	0	0	0	0	511	615
11	0	0	0	0	510	616
12	0	0	0	0	508	615
13	0	0	0	0	506	616
14	0	0	0	0	504	615
15	0	0	0	0	503	616
0	0	0	0	0	502	615
1	0	0	0	0	501	615
2	0	0	0	0	502	615
3	0	0	0	0	503	615
4	0	0	0	0	505	616
5	0	0	0	0	507	616
6	0	0	0	0	508	615
7	0	0	0	0	510	616
8	0	0	0	0	512	615
9	0	0	0	0	512	615
10	0	0	0	0	513	616
11	0	0	0	0	514	616
12	0	0	0	0	514	615
13	0	0	0	0	513	615
14	0	0	0	0	512	615
15	0	0	0	0	510	617
0	0	0	0	0	508	616
1	0	0	0	0	505	616
2	0	0	0	0	504	615
3	0	0	0	0	502	616
4	0	0	0	0	502	616
5	0	0	0	0	502	616
6	0	0	0	0	503	615
7	0	0	0	0	504	616
8	0	0	0	0	504	616
9	0	0	0	0	505	616
10	0	0	0	0	508	615
11	0	0	0	0	510	615
12	0	0	0	0	511	616
13	0	0	0	0	513	616
14	0	0	0	0	514	616
15	0	0	0	0	515	616
0	0	0	0	0	515	616
1	0	0	0	0	513	615
2	0	0	0	0	512	615
3	0	0	0	0	510	616
4	0	0	0	0	508	616
5	0	0	0	0	506	616
6	0	0	0	0	504	616
7	0	0	0	0	503	617
8	0	0	0	0	503	616
9	0	0	0	0	502	616
10	0	0	0	0	503	617
11	0	0	0	0	504	616
12	0	0	0	0	506	616
13	0	0	0	0	508	617
14	0	0	0	0	509	616
15	0	0	0	0	511	617
0	0	0	0	0	512	615
1	0	0	0	0	513	616
2	0	0	0	0	513	616
3	0	0	0	0	513	616
4	0	0	0	0	513	616
5	0	0	0	0	511	615
6	0	0	0	0	510	616
7	0	0	0	0	508	616
8	0	0	0	0	504	616
9	0	0	0	0	502	615
10	0	0	0	0	499	615
11	0	0	0	0	497	616
12	0	0	0	0	496	616
13	0	0	0	0	496	615
14	0	0	0	0	496	616
15	0	0	0	0	497	617
0	0	0	0	0	498	616
1	0	0	0	0	499	616
2	0	0	0	0	501	615
3	0	0	0	0	504	616
4	0	0	0	0	505	615
5	0	0	0	0	507	616
6	0	0	0	0	507	616
7	0	0	0	0	508	617
8	0	0	0	0	508	616
9	0	0	0	0	507	616
10	0	0	0	0	505	616
11	0	0	0	0	504	616
12	0	0	0	0	502	615
13	0	0	0	0	500	617
14	0	0	0	0	497	616
15	0	0	0	0	496	616
0	0	0	0	0	496	616
1	0	0	0	0	496	616
2	0	0	0	0	497	616
3	0	0	0	0	500	616
4	0	0	0	0	502	616
5	0	0	0	0	504	616
6	0	0	0	0	508	616
7	0	0	0	0	511	616
8	0	0	0	0	513	616
9	0	0	0	0	515	616
10	0	0	0	0	517	615
11	0	0	0	0	517	616
12	0	0	0	0	518	616
13	0	0	0	0	516	616
14	0	0	0	0	515	616
15	0	0	0	0	513	617
0	0	0	0	0	511	615
1	0	0	0	0	509	616
2	0	0	0	0	507	616
3	0	0	0	0	504	615
4	0	0	0	0	504	615
5	0	0	0	0	503	615
6	0	0	0	0	504	615
7	0	0	0	0	504	616
8	0	0	0	0	506	616
9	0	0	0	0	508	616
10	0	0	0	0	510	616
11	0	0	0	0	512	617
12	0	0	0	0	514	616
13	0	0	0	0	515	615
14	0	0	0	0	516	615
15	0	0	0	0	518	616
0	0	0	0	0	518	616
1	0	0	0	0	516	615
2	0	0	0	0	514	615
3	0	0	0	0	512	616
4	0	0	0	0	510	616
5	0	0	0	0	508	616
6	0	0	0	0	505	615
7	0	0	0	0	504	616
8	0	0	0	0	503	616
9	0	0	0	0	503	615
10	0	0	0	0	504	616
11	0	0	0	0	504	616
12	0	0	0	0	505	616
13	0	0	0	0	507	616
14	0	0	0	0	509	615
15	0	0	0	0	511	616
0	0	0	0	0	512	616
1	0	0	0	0	514	616
2	0	0	0	0	515	616
3	0	0	0	0	516	616
4	0	0	0	0	516	616
5	0	0	0	0	515	616
6	0	0	0	0	514	616
7	0	0	0	0	513	616
8	0	0	0	0	511	615
9	0	0	0	0	509	616
10	0	0	0	0	507	616
11	0	0	0	0	505	616
12	0	0	0	0	504	616
13	0	0	0	0	504	616
14	0	0	0	0	504	616
15	0	0	0	0	505	617
0	0	0	0	0	507	617
1	0	0	0	0	509	616
2	0	0	0	0	511	616
3	0	0	0	0	513	616
4	0	0	0	0	515	616
5	0	0	0	0	517	616
6	0	0	0	0	518	616
7	0	0	0	0	518	616
8	0	0	0	0	519	616
9	0	0	0	0	517	616
10	0	0	0	0	516	616
11	0	0	0	0	514	616
12	0	0	0	0	512	615
13	0	0	0	0	510	616
14	0	0	0	0	508	616
15	0	0	0	0	505	616
0	0	0	0	0	504	615
1	0	0	0	0	504	616
2	0	0	0	0	504	615
3	0	0	0	0	504	615
4	0	0	0	0	505	615
5	0	0	0	0	507	615
6	0	0	0	0	508	616
7	0	0	0	0	510	617
8	0	0	0	0	512	616
9	0	0	0	0	513	616
10	0	0	0	0	513	616
11	0	0	0	0	512	616
12	0	0	0	0	511	617
13	0	0	0	0	508	616
14	0	0	0	0	503	616
15	0	0	0	0	497	616
0	0	0	0	0	488	616
1	0	0	0	0	478	617
2	0	0	0	0	467	616
3	0	0	0	0	455	616
4	0	0	0	0	444	616
5	0	0	0	0	433	616
6	0	0	0	0	424	616
7	0	0	0	0	416	616
8	0	0	0	0	408	615
9	0	0	0	0	402	616
10	0	0	0	0	399	616
11	0	0	0	0	398	616
12	0	0	0	0	399	615
13	0	0	0	0	401	616
14	0	0	0	0	405	615
15	0	0	0	0	410	615
0	0	0	0	0	416	615
1	0	0	0	0	424	616
2	0	0	0	0	431	616
3	0	0	0	0	438	616
4	0	0	0	0	443	615
5	0	0	0	0	448	615
6	0	0	0	0	453	616
7	0	0	0	0	462	616
8	0	0	0	0	478	616
9	0	0	0	0	500	616
10	0	0	0	0	526	616
11	0	0	0	0	556	616
12	0	0	0	0	594	616
13	0	0	0	0	639	616
14	0	0	0	0	688	615
15	0	0	0	0	739	616
0	0	0	0	0	794	615
1	0	0	0	0	846	616
2	0	0	0	0	892	616
3	0	0	0	0	932	616
4	0	0	0	0	965	615
5	0	0	0	0	990	616
6	0	0	0	0	1008	615
7	0	0	0	0	1018	616
8	0	0	0	0	1021	615
9	0	0	0	0	1021	616
10	0	0	0	0	1017	615
11	0	0	0	0	1007	615
12	0	0	0	0	993	615
13	0	0	0	0	974	615
14	0	0	0	0	953	616
15	0	0	0	0	928	616
0	0	0	0	0	900	615
1	0	0	0	0	868	616
2	0	0	0	0	835	616
3	0	0	0	0	802	616
4	0	0	0	0	770	616
5	0	0	0	0	743	616
6	0	0	0	0	717	616
7	0	0	0	0	693	617
8	0	0	0	0	670	616
9	0	0	0	0	648	616
10	0	0	0	0	629	615
11	0	0	0	0	612	615
12	0	0	0	0	596	615
13	0	0	0	0	580	615
14	0	0	0	0	565	615
15	0	0	0	0	551	616
0	0	0	0	0	538	616
1	0	0	0	0	525	615
2	0	0	0	0	513	615
3	0	0	0	0	502	616
4	0	0	0	0	490	615
5	0	0	0	0	479	615
6	0	0	0	0	470	616
7	0	0	0	0	462	616
8	0	0	0	0	455	616
9	0	0	0	0	448	616
10	0	0	0	0	441	616
11	0	0	0	0	435	616
12	0	0	0	0	428	616
13	0	0	0	0	422	616
14	0	0	0	0	415	616
15	0	0	0	0	409	617
0	0	0	0	0	403	616
1	0	0	0	0	398	616
2	0	0	0	0	393	616
3	0	0	0	0	389	616
4	0	0	0	0	387	616
5	0	0	0	0	385	616
6	0	0	0	0	384	616
7	0	0	0	0	384	617
8	0	0	0	0	384	616
9	0	0	0	0	385	616
10	0	0	0	0	387	616
11	0	0	0	0	388	616
12	0	0	0	0	390	616
13	0	0	0	0	392	616
14	0	0	0	0	394	615
15	0	0	0	0	395	616
0	0	0	0	0	395	616
1	0	0	0	0	394	616
2	0	0	0	0	393	615
3	0	0	0	0	393	616
4	0	0	0	0	391	616
5	0	0	0	0	389	616
6	0	0	0	0	388	616
7	0	0	0	0	387	617
8	0	0	0	0	388	616
9	0	0	0	0	388	616
10	0	0	0	0	389	616
11	0	0	0	0	391	616
12	0	0	0	0	394	616
13	0	0	0	0	397	616
14	0	0	0	0	399	616
15	0	0	0	0	402	616
0	0	0	0	0	405	616
1	0	0	0	0	407	616
2	0	0	0	0	409	616
3	0	0	0	0	410	615
4	0	0	0	0	411	616
5	0	0	0	0	411	616
6	0	0	0	0	411	616
7	0	0	0	0	409	616
8	0	0	0	0	408	616
9	0	0	0	0	407	617
10	0	0	0	0	406	616
11	0	0	0	0	406	616
12	0	0	0	0	407	616
13	0	0	0	0	408	616
14	0	0	0	0	409	616
15	0	0	0	0	411	616
0	0	0	0	0	413	616
1	0	0	0	0	415	616
2	0	0	0	0	417	616
3	0	0	0	0	420	617
4	0	0	0	0	422	617
5	0	0	0	0	424	616
6	0	0	0	0	427	616
7	0	0	0	0	428	617
8	0	0	0	0	428	616
9	0	0	0	0	428	616
10	0	0	0	0	428	616
11	0	0	0	0	426	616
12	0	0	0	0	424	616
13	0	0	0	0	423	616
14	0	0	0	0	420	615
15	0	0	0	0	419	616
0	0	0	0	0	420	615
1	0	0	0	0	420	615
2	0	0	0	0	422	616
3	0	0	0	0	423	616
4	0	0	0	0	426	616
5	0	0	0	0	429	616
6	0	0	0	0	432	616
7	0	0	0	0	435	616
8	0	0	0	0	437	616
9	0	0	0	0	439	616
10	0	0	0	0	441	616
11	0	0	0	0	441	616
12	0	0	0	0	441	616
13	0	0	0	0	441	616
14	0	0	0	0	440	616
15	0	0	0	0	438	617
0	0	0	0	0	437	616
1	0	0	0	0	435	615
2	0	0	0	0	434	616
3	0	0	0	0	433	615
4	0	0	0	0	433	615
5	0	0	0	0	433	615
6	0	0	0	0	434	616
7	0	0	0	0	436	616
8	0	0	0	0	438	615
9	0	0	0	0	440	615
10	0	0	0	0	442	615
11	0	0	0	0	445	616
12	0	0	0	0	447	616
13	0	0	0	0	449	615
14	0	0	0	0	451	616
15	0	0	0	0	452	616
0	0	0	0	0	451	615
1	0	0	0	0	451	615
2	0	0	0	0	449	616
3	0	0	0	0	448	616
4	0	0	0	0	447	615
5	0	0	0	0	445	616
6	0	0	0	0	443	616
7	0	0	0	0	442	616
8	0	0	0	0	443	616
9	0	0	0	0	443	616
10	0	0	0	0	444	616
11	0	0	0	0	446	616
12	0	0	0	0	447	616
13	0	0	0	0	449	615
14	0	0	0	0	451	616
15	0	0	0	0	453	616
0	0	0	0	0	455	616
1	0	0	0	0	457	616
2	0	0	0	0	459	616
3	0	0	0	0	459	616
4	0	0	0	0	459	615
5	0	0	0	0	460	616
6	0	0	0	0	459	616
7	0	0	0	0	457	616
8	0	0	0	0	455	616
9	0	0	0	0	453	616
10	0	0	0	0	451	616
11	0	0	0	0	449	616
12	0	0	0	0	449	616
13	0	0	0	0	449	616
14	0	0	0	0	450	615
15	0	0	0	0	451	616
0	0	0	0	0	453	615
1	0	0	0	0	455	616
2	0	0	0	0	458	615
3	0	0	0	0	460	616
4	0	0	0	0	462	615
5	0	0	0	0	465	615
6	0	0	0	0	467	616
7	0	0	0	0	468	616
8	0	0	0	0	469	616
9	0	0	0	0	468	616
10	0	0	0	0	467	616
11	0	0	0	0	467	616
12	0	0	0	0	465	616
13	0	0	0	0	463	616
14	0	0	0	0	463	616
15	0	0	0	0	462	617
0	0	0	0	0	462	616
1	0	0	0	0	463	616
2	0	0	0	0	464	616
3	0	0	0	0	466	615
4	0	0	0	0	468	616
5	0	0	0	0	471	615
6	0	0	0	0	473	615
7	0	0	0	0	476	615
8	0	0	0	0	479	615
9	0	0	0	0	481	615
10	0	0	0	0	483	615
11	0	0	0	0	484	615
12	0	0	0	0	486	615
13	0	0	0	0	486	616
14	0	0	0	0	486	616
15	0	0	0	0	486	617
0	0	0	0	0	485	616
1	0	0	0	0	483	616
2	0	0	0	0	483	616
3	0	0	0	0	482	616
4	0	0	0	0	482	616
5	0	0	0	0	483	615
6	0	0	0	0	485	616
7	0	0	0	0	487	617
8	0	0	0	0	491	616
9	0	0	0	0	494	616
10	0	0	0	0	497	616
11	0	0	0	0	501	616
12	0	0	0	0	503	615
13	0	0	0	0	506	615
14	0	0	0	0	508	615
15	0	0	0	0	510	616
0	0	0	0	0	511	616
1	0	0	0	0	511	616
2	0	0	0	0	510	616
3	0	0	0	0	510	617
4	0	0	0	0	508	616
5	0	0	0	0	507	616
6	0	0	0	0	505	616
7	0	0	0	0	504	617
8	0	0	0	0	505	616
9	0	0	0	0	506	616
10	0	0	0	0	507	616
11	0	0	0	0	509	616
12	0	0	0	0	511	616
13	0	0	0	0	513	616
14	0	0	0	0	515	616
15	0	0	0	0	518	617
0	0	0	0	0	519	616
1	0	0	0	0	521	616
2	0	0	0	0	523	616
3	0	0	0	0	525	616
4	0	0	0	0	525	616
5	0	0	0	0	525	616
6	0	0	0	0	524	617
7	0	0	0	0	524	617
8	0	0	0	0	522	615
9	0	0	0	0	520	616
10	0	0	0	0	519	615
11	0	0	0	0	517	616
12	0	0	0	0	516	615
13	0	0	0	0	516	615
14	0	0	0	0	518	615
15	0	0	0	0	519	616
0	0	0	0	0	520	615
1	0	0	0	0	523	615
2	0	0	0	0	524	615
3	0	0	0	0	526	615
4	0	0	0	0	527	615
5	0	0	0	0	530	615
6	0	0	0	0	531	616
7	0	0	0	0	531	616
8	0	0	0	0	531	615
9	0	0	0	0	529	615
10	0	0	0	0	527	615
11	0	0	0	0	526	615
12	0	0	0	0	524	615
13	0	0	0	0	522	616
14	0	0	0	0	520	615
15	0	0	0	0	519	616
0	0	0	0	0	519	615
1	0	0	0	0	519	615
2	0	0	0	0	519	615
3	0	0	0	0	521	616
4	0	0	0	0	523	615
5	0	0	0	0	524	615
6	0	0	0	0	527	615
7	0	0	0	0	529	616
8	0	0	0	0	530	616
9	0	0	0	0	531	615
10	0	0	0	0	532	616
11	0	0	0	0	533	616
12	0	0	0	0	533	617
13	0	0	0	0	532	616
14	0	0	0	0	531	616
15	0	0	0	0	529	617
0	0	0	0	0	527	615
1	0	0	0	0	526	616
2	0	0	0	0	523	616
3	0	0	0	0	521	617
4	0	0	0	0	521	616
5	0	0	0	0	521	616
6	0	0	0	0	521	615
7	0	0	0	0	523	616
8	0	0	0	0	525	615
9	0	0	0	0	527	615
10	0	0	0	0	529	615
11	0	0	0	0	532	615
12	0	0	0	0	533	615
13	0	0	0	0	535	615
14	0	0	0	0	535	615
15	0	0	0	0	535	616
0	0	0	0	0	535	617
1	0	0	0	0	534	616
2	0	0	0	0	531	616
3	0	0	0	0	530	617
4	0	0	0	0	527	616
5	0	0	0	0	525	616
6	0	0	0	0	523	615
7	0	0	0	0	521	616
8	0	0	0	0	521	616
9	0	0	0	0	521	616
10	0	0	0	0	521	616
11	0	0	0	0	522	616
12	0	0	0	0	523	616
13	0	0	0	0	524	616
14	0	0	0	0	526	616
15	0	0	0	0	529	617
0	0	0	0	0	530	616
1	0	0	0	0	532	616
2	0	0	0	0	532	616
3	0	0	0	0	533	615
4	0	0	0	0	532	615
5	0	0	0	0	531	615
6	0	0	0	0	529	615
7	0	0	0	0	527	616
8	0	0	0	0	525	616
9	0	0	0	0	522	616
10	0	0	0	0	520	616
11	0	0	0	0	519	616
12	0	0	0	0	518	616
13	0	0	0	0	517	616
14	0	0	0	0	518	616
15	0	0	0	0	519	617
0	0	0	0	0	520	616
1	0	0	0	0	522	616
2	0	0	0	0	523	616
3	0	0	0	0	524	616
4	0	0	0	0	526	617
5	0	0	0	0	527	617
6	0	0	0	0	527	616
7	0	0	0	0	528	616
8	0	0	0	0	528	616
9	0	0	0	0	527	615
10	0	0	0	0	526	615
11	0	0	0	0	524	616
12	0	0	0	0	521	615
13	0	0	0	0	518	616
14	0	0	0	0	516	616
15	0	0	0	0	514	617
0	0	0	0	0	514	616
1	0	0	0	0	514	615
2	0	0	0	0	515	615
3	0	0	0	0	515	615
4	0	0	0	0	517	615
5	0	0	0	0	519	615
6	0	0	0	0	520	615
7	0	0	0	0	522	617
8	0	0	0	0	523	615
9	0	0	0	0	524	615
10	0	0	0	0	525	616
11	0	0	0	0	525	615
12	0	0	0	0	525	616
13	0	0	0	0	524	616
14	0	0	0	0	523	616
15	0	0	0	0	521	617
0	0	0	0	0	519	616
1	0	0	0	0	517	616
2	0	0	0	0	515	616
3	0	0	0	0	514	616
4	0	0	0	0	513	616
5	0	0	0	0	512	616
6	0	0	0	0	513	616
7	0	0	0	0	515	616
8	0	0	0	0	516	615
9	0	0	0	0	517	616
10	0	0	0	0	519	615
11	0	0	0	0	521	616
12	0	0	0	0	523	616
13	0	0	0	0	524	615
14	0	0	0	0	526	616
15	0	0	0	0	527	616
0	0	0	0	0	526	616
1	0	0	0	0	525	616
2	0	0	0	0	524	616
3	0	0	0	0	523	615
4	0	0	0	0	520	616
5	0	0	0	0	518	616
6	0	0	0	0	516	615
7	0	0	0	0	515	617
8	0	0	0	0	514	616
9	0	0	0	0	514	615
10	0	0	0	0	515	615
11	0	0	0	0	516	616
12	0	0	0	0	518	617
13	0	0	0	0	520	616
14	0	0	0	0	522	616
15	0	0	0	0	525	617
0	0	0	0	0	527	616
1	0	0	0	0	528	616
2	0	0	0	0	529	616
3	0	0	0	0	530	615
4	0	0	0	0	529	615
5	0	0	0	0	528	615
6	0	0	0	0	527	615
7	0	0	0	0	525	616
8	0	0	0	0	523	616
9	0	0	0	0	522	616
10	0	0	0	0	519	616
11	0	0	0	0	518	616
12	0	0	0	0	518	616
13	0	0	0	0	517	615
14	0	0	0	0	518	615
15	0	0	0	0	519	616
0	0	0	0	0	521	616
1	0	0	0	0	523	616
2	0	0	0	0	525	616
3	0	0	0	0	526	616
4	0	0	0	0	527	616
5	0	0	0	0	528	616
6	0	0	0	0	529	616
7	0	0	0	0	530	617
8	0	0	0	0	530	616
9	0	0	0	0	528	616
10	0	0	0	0	526	617
11	0	0	0	0	525	616
12	0	0	0	0	523	616
13	0	0	0	0	519	616
14	0	0	0	0	517	616
15	0	0	0	0	515	616
0	0	0	0	0	514	615
1	0	0	0	0	515	615
2	0	0	0	0	516	615
3	0	0	0	0	517	615
4	0	0	0	0	519	615
5	0	0	0	0	520	616
6	0	0	0	0	522	615
7	0	0	0	0	524	616
8	0	0	0	0	526	615
9	0	0	0	0	527	615
10	0	0	0	0	528	616
11	0	0	0	0	528	616
12	0	0	0	0	528	616
13	0	0	0	0	526	616
14	0	0	0	0	524	615
15	0	0	0	0	522	616
0	0	0	0	0	519	615
1	0	0	0	0	518	615
2	0	0	0	0	516	616
3	0	0	0	0	515	616
4	0	0	0	0	514	616
5	0	0	0	0	513	616
6	0	0	0	0	514	615
7	0	0	0	0	515	616
8	0	0	0	0	516	615
9	0	0	0	0	518	615
10	0	0	0	0	520	615
11	0	0	0	0	522	615
12	0	0	0	0	523	615
13	0	0	0	0	525	615
14	0	0	0	0	526	615
15	0	0	0	0	526	616
0	0	0	0	0	526	616
1	0	0	0	0	524	616
2	0	0	0	0	523	615
3	0	0	0	0	521	616
4	0	0	0	0	519	615
5	0	0	0	0	517	616
6	0	0	0	0	515	616
7	0	0	0	0	514	617
8	0	0	0	0	513	616
9	0	0	0	0	513	616
10	0	0	0	0	514	616
11	0	0	0	0	515	616
12	0	0	0	0	517	616
13	0	0	0	0	519	615
14	0	0	0	0	521	615
15	0	0	0	0	524	616
0	0	0	0	0	525	615
1	0	0	0	0	526	615
2	0	0	0	0	527	616
3	0	0	0	0	527	616
4	0	0	0	0	527	616
5	0	0	0	0	526	616
6	0	0	0	0	524	615
7	0	0	0	0	522	616
8	0	0	0	0	519	616
9	0	0	0	0	517	617
10	0	0	0	0	515	616
11	0	0	0	0	513	616
12	0	0	0	0	512	616
13	0	0	0	0	512	616
14	0	0	0	0	512	616
15	0	0	0	0	513	617
0	0	0	0	0	515	616
1	0	0	0	0	517	616
2	0	0	0	0	519	616
3	0	0	0	0	520	616
4	0	0	0	0	521	616
5	0	0	0	0	522	617
6	0	0	0	0	523	616
7	0	0	0	0	523	617
8	0	0	0	0	523	615
9	0	0	0	0	522	615
10	0	0	0	0	520	616
11	0	0	0	0	518	616
12	0	0	0	0	516	615
13	0	0	0	0	514	616
14	0	0	0	0	512	615
15	0	0	0	0	511	616
0	0	0	0	0	511	616
1	0	0	0	0	511	615
2	0	0	0	0	512	615
3	0	0	0	0	513	615
4	0	0	0	0	514	616
5	0	0	0	0	515	615
6	0	0	0	0	517	615
7	0	0	0	0	519	616
8	0	0	0	0	519	616
9	0	0	0	0	521	616
10	0	0	0	0	522	616
11	0	0	0	0	523	616
12	0	0	0	0	522	617
13	0	0	0	0	521	616
14	0	0	0	0	519	616
15	0	0	0	0	518	617
0	0	0	0	0	515	616
1	0	0	0	0	512	616
2	0	0	0	0	510	616
3	0	0	0	0	509	616
4	0	0	0	0	509	616
5	0	0	0	0	510	616
6	0	0	0	0	510	616
7	0	0	0	0	512	616
8	0	0	0	0	513	616
9	0	0	0	0	514	616
10	0	0	0	0	516	616
11	0	0	0	0	519	617
12	0	0	0	0	520	616
13	0	0	0	0	521	615
14	0	0	0	0	522	616
15	0	0	0	0	523	616
0	0	0	0	0	522	615
1	0	0	0	0	520	615
2	0	0	0	0	519	616
3	0	0	0	0	518	616
4	0	0	0	0	515	615
5	0	0	0	0	512	616
6	0	0	0	0	510	616
7	0	0	0	0	508	616
8	0	0	0	0	507	616
9	0	0	0	0	507	616
10	0	0	0	0	508	616
11	0	0	0	0	510	616
12	0	0	0	0	511	616
13	0	0	0	0	512	616
14	0	0	0	0	514	615
15	0	0	0	0	517	617
0	0	0	0	0	518	616
1	0	0	0	0	519	616
2	0	0	0	0	519	616
3	0	0	0	0	519	616
4	0	0	0	0	518	616
5	0	0	0	0	516	616
6	0	0	0	0	515	616
7	0	0	0	0	513	616
8	0	0	0	0	511	615
9	0	0	0	0	509	616
10	0	0	0	0	507	616
11	0	0	0	0	505	616
12	0	0	0	0	506	615
13	0	0	0	0	506	616
14	0	0	0	0	506	616
15	0	0	0	0	508	616
0	0	0	0	0	509	616
1	0	0	0	0	511	616
2	0	0	0	0	513	616
3	0	0	0	0	516	616
4	0	0	0	0	517	616
5	0	0	0	0	518	616
6	0	0	0	0	519	616
7	0	0	0	0	519	617
8	0	0	0	0	519	617
9	0	0	0	0	518	616
10	0	0	0	0	516	617
11	0	0	0	0	515	617
12	0	0	0	0	511	616
13	0	0	0	0	510	616
14	0	0	0	0	508	615
15	0	0	0	0	506	616
0	0	0	0	0	506	615
1	0	0	0	0	506	615
2	0	0	0	0	507	615
3	0	0	0	0	508	616
4	0	0	0	0	510	616
5	0	0	0	0	511	616
6	0	0	0	0	512	615
7	0	0	0	0	515	617
8	0	0	0	0	516	616
9	0	0	0	0	517	616
10	0	0	0	0	518	616
11	0	0	0	0	518	616
12	0	0	0	0	517	617
13	0	0	0	0	515	616
14	0	0	0	0	514	617
15	0	0	0	0	512	617
0	0	0	0	0	509	616
1	0	0	0	0	507	616
2	0	0	0	0	504	616
3	0	0	0	0	504	616
4	0	0	0	0	503	616
5	0	0	0	0	503	615
6	0	0	0	0	503	615
7	0	0	0	0	504	616
8	0	0	0	0	505	615
9	0	0	0	0	506	615
10	0	0	0	0	508	615
11	0	0	0	0	511	616
12	0	0	0	0	513	615
13	0	0	0	0	514	616
14	0	0	0	0	515	615
15	0	0	0	0	515	616
0	0	0	0	0	515	615
1	0	0	0	0	514	615
2	0	0	0	0	512	615
3	0	0	0	0	511	615
4	0	0	0	0	508	616
5	0	0	0	0	507	615
6	0	0	0	0	505	615
7	0	0	0	0	504	616
8	0	0	0	0	504	616
9	0	0	0	0	504	615
10	0	0	0	0	505	616
11	0	0	0	0	507	617
12	0	0	0	0	508	616
13	0	0	0	0	511	616
14	0	0	0	0	512	615
15	0	0	0	0	515	617
0	0	0	0	0	515	615
1	0	0	0	0	516	616
2	0	0	0	0	517	615
3	0	0	0	0	516	616
4	0	0	0	0	515	615
5	0	0	0	0	515	615
6	0	0	0	0	513	615
7	0	0	0	0	511	616
8	0	0	0	0	508	615
9	0	0	0	0	505	616
10	0	0	0	0	504	616
11	0	0	0	0	502	615
12	0	0	0	0	502	615
13	0	0	0	0	502	615
14	0	0	0	0	503	616
15	0	0	0	0	504	616
0	0	0	0	0	506	616
1	0	0	0	0	508	615
2	0	0	0	0	510	615
3	0	0	0	0	513	616
4	0	0	0	0	514	615
5	0	0	0	0	515	615
6	0	0	0	0	516	616
7	0	0	0	0	515	616
8	0	0	0	0	515	616
9	0	0	0	0	514	616
10	0	0	0	0	512	616
11	0	0	0	0	511	616
12	0	0	0	0	508	615
13	0	0	0	0	506	616
14	0	0	0	0	504	616
15	0	0	0	0	504	616
0	0	0	0	0	504	616
1	0	0	0	0	504	616
2	0	0	0	0	504	616
3	0	0	0	0	504	615
4	0	0	0	0	505	616
5	0	0	0	0	508	615
6	0	0	0	0	510	615
7	0	0	0	0	512	616
8	0	0	0	0	513	615
9	0	0	0	0	515	615
10	0	0	0	0	516	615
11	0	0	0	0	517	616
12	0	0	0	0	516	615
13	0	0	0	0	515	615
14	0	0	0	0	514	615
15	0	0	0	0	512	616
0	0	0	0	0	510	616
1	0	0	0	0	507	616
2	0	0	0	0	504	615
3	0	0	0	0	503	616
4	0	0	0	0	503	616
5	0	0	0	0	504	615
6	0	0	0	0	505	615
7	0	0	0	0	506	616
8	0	0	0	0	507	615
9	0	0	0	0	509	615
10	0	0	0	0	511	615
11	0	0	0	0	512	616
12	0	0	0	0	513	616
13	0	0	0	0	514	616
14	0	0	0	0	515	616
15	0	0	0	0	515	617
0	0	0	0	0	515	616
1	0	0	0	0	513	616
2	0	0	0	0	512	616
3	0	0	0	0	510	616
4	0	0	0	0	508	615
5	0	0	0	0	505	615
6	0	0	0	0	504	615
7	0	0	0	0	503	615
8	0	0	0	0	502	615
9	0	0	0	0	502	615
10	0	0	0	0	503	615
11	0	0	0	0	503	615
12	0	0	0	0	504	616
13	0	0	0	0	504	616
14	0	0	0	0	506	616
15	0	0	0	0	508	617
0	0	0	0	0	509	616
1	0	0	0	0	511	615
2	0	0	0	0	512	616
3	0	0	0	0	512	616
4	0	0	0	0	512	617
5	0	0	0	0	510	615
6	0	0	0	0	508	616
7	0	0	0	0	506	617
8	0	0	0	0	504	617
9	0	0	0	0	503	616
10	0	0	0	0	500	615
11	0	0	0	0	499	616
12	0	0	0	0	499	616
13	0	0	0	0	499	615
14	0	0	0	0	500	616
15	0	0	0	0	502	616
0	0	0	0	0	504	616
1	0	0	0	0	505	616
2	0	0	0	0	507	616
3	0	0	0	0	509	617
4	0	0	0	0	511	616
5	0	0	0	0	512	616
6	0	0	0	0	513	616
7	0	0	0	0	513	616
8	0	0	0	0	513	616
9	0	0	0	0	512	615
10	0	0	0	0	511	616
11	0	0	0	0	509	616
12	0	0	0	0	507	616
13	0	0	0	0	505	616
14	0	0	0	0	504	616
15	0	0	0	0	504	616
0	0	0	0	0	504	616
1	0	0	0	0	504	616
2	0	0	0	0	506	616
3	0	0	0	0	507	616
4	0	0	0	0	509	616
5	0	0	0	0	511	616
6	0	0	0	0	512	616
7	0	0	0	0	515	617
8	0	0	0	0	516	616
9	0	0	0	0	518	616
10	0	0	0	0	519	616
11	0	0	0	0	519	615
12	0	0	0	0	519	615
13	0	0	0	0	517	616
14	0	0	0	0	515	616
15	0	0	0	0	514	616
0	0	0	0	0	512	615
1	0	0	0	0	510	616
2	0	0	0	0	509	616
3	0	0	0	0	507	616
4	0	0	0	0	507	616
5	0	0	0	0	508	616
6	0	0	0	0	509	616
7	0	0	0	0	510	617
8	0	0	0	0	512	616
9	0	0	0	0	513	616
10	0	0	0	0	514	616
11	0	0	0	0	515	616
12	0	0	0	0	516	616
13	0	0	0	0	518	617
14	0	0	0	0	519	616
15	0	0	0	0	519	617
0	0	0	0	0	518	616
1	0	0	0	0	516	616
2	0	0	0	0	513	616
3	0	0	0	0	511	616
4	0	0	0	0	508	616
5	0	0	0	0	507	616
6	0	0	0	0	504	616
7	0	0	0	0	503	616
8	0	0	0	0	503	616
9	0	0	0	0	503	615
10	0	0	0	0	504	616
11	0	0	0	0	505	616
12	0	0	0	0	508	616
13	0	0	0	0	510	616
14	0	0	0	0	511	616
15	0	0	0	0	513	617
0	0	0	0	0	515	616
1	0	0	0	0	516	616
2	0	0	0	0	517	615
3	0	0	0	0	518	616
4	0	0	0	0	518	616
5	0	0	0	0	516	616
6	0	0	0	0	515	616
7	0	0	0	0	513	617
8	0	0	0	0	510	616
9	0	0	0	0	508	616
10	0	0	0	0	506	616
11	0	0	0	0	505	616
12	0	0	0	0	505	616
13	0	0	0	0	505	616
14	0	0	0	0	505	617
15	0	0	0	0	507	616
0	0	0	0	0	508	616
1	0	0	0	0	511	616
2	0	0	0	0	513	615
3	0	0	0	0	514	616
4	0	0	0	0	516	615
5	0	0	0	0	518	615
6	0	0	0	0	518	616
7	0	0	0	0	518	616
8	0	0	0	0	517	616
9	0	0	0	0	515	616
10	0	0	0	0	513	616
11	0	0	0	0	512	616
12	0	0	0	0	508	616
13	0	0	0	0	504	616
14	0	0	0	0	502	615
15	0	0	0	0	499	616
0	0	0	0	0	497	616
1	0	0	0	0	496	615
2	0	0	0	0	495	616
3	0	0	0	0	492	615
4	0	0	0	0	489	616
5	0	0	0	0	484	616
6	0	0	0	0	477	616
7	0	0	0	0	469	616
8	0	0	0	0	460	616
9	0	0	0	0	450	616
10	0	0	0	0	440	616
11	0	0	0	0	430	616
12	0	0	0	0	420	616
13	0	0	0	0	410	616
14	0	0	0	0	401	616
15	0	0	0	0	394	617
0	0	0	0	0	389	616
1	0	0	0	0	387	617
2	0	0	0	0	386	616
3	0	0	0	0	389	617
4	0	0	0	0	395	615
5	0	0	0	0	402	616
6	0	0	0	0	412	616
7	0	0	0	0	423	616
8	0	0	0	0	432	616
9	0	0	0	0	442	616
10	0	0	0	0	451	615
11	0	0	0	0	459	616
12	0	0	0	0	470	616
13	0	0	0	0	487	616
14	0	0	0	0	510	616
15	0	0	0	0	535	616
0	0	0	0	0	563	617
1	0	0	0	0	594	616
2	0	0	0	0	632	617
3	0	0	0	0	675	616
4	0	0	0	0	723	617
5	0	0	0	0	772	616
6	0	0	0	0	819	616
7	0	0	0	0	863	617
8	0	0	0	0	900	616
9	0	0	0	0	935	616
10	0	0	0	0	964	615
11	0	0	0	0	985	615
12	0	0	0	0	999	616
13	0	0	0	0	1004	616
14	0	0	0	0	1004	616
15	0	0	0	0	999	617
0	0	0	0	0	988	615
1	0	0	0	0	972	616
2	0	0	0	0	952	616
3	0	0	0	0	928	616
4	0	0	0	0	899	616
5	0	0	0	0	866	616
6	0	0	0	0	830	616
7	0	0	0	0	794	617
8	0	0	0	0	758	616
9	0	0	0	0	727	617
10	0	0	0	0	697	616
11	0	0	0	0	672	616
12	0	0	0	0	650	616
13	0	0	0	0	632	616
14	0	0	0	0	616	616
15	0	0	0	0	604	616
0	0	0	0	0	594	615
1	0	0	0	0	584	615
2	0	0	0	0	575	616
3	0	0	0	0	566	616
4	0	0	0	0	556	616
5	0	0	0	0	547	616
6	0	0	0	0	537	616
7	0	0	0	0	527	617
8	0	0	0	0	516	616
9	0	0	0	0	504	616
10	0	0	0	0	492	616
11	0	0	0	0	481	616
12	0	0	0	0	470	616
13	0	0	0	0	460	616
14	0	0	0	0	450	616
15	0	0	0	0	441	616
0	0	0	0	0	435	615
1	0	0	0	0	430	615
2	0	0	0	0	424	615
3	0	0	0	0	421	616
4	0	0	0	0	418	616
5	0	0	0	0	416	615
6	0	0	0	0	415	616
7	0	0	0	0	414	616
8	0	0	0	0	413	616
9	0	0	0	0	413	615
10	0	0	0	0	411	617
11	0	0	0	0	409	615
12	0	0	0	0	408	616
13	0	0	0	0	404	615
14	0	0	0	0	401	616
15	0	0	0	0	399	617
0	0	0	0	0	396	616
1	0	0	0	0	393	617
2	0	0	0	0	391	616
3	0	0	0	0	391	616
4	0	0	0	0	390	616
5	0	0	0	0	390	616
6	0	0	0	0	391	615
7	0	0	0	0	392	615
8	0	0	0	0	395	615
9	0	0	0	0	397	616
10	0	0	0	0	400	615
11	0	0	0	0	403	617
12	0	0	0	0	406	616
13	0	0	0	0	408	617
14	0	0	0	0	410	616
15	0	0	0	0	411	616
0	0	0	0	0	411	616
1	0	0	0	0	409	615
2	0	0	0	0	407	615
3	0	0	0	0	406	615
4	0	0	0	0	403	616
5	0	0	0	0	402	616
6	0	0	0	0	400	616
7	0	0	0	0	399	617
8	0	0	0	0	400	617
9	0	0	0	0	401	616
10	0	0	0	0	404	616
11	0	0	0	0	407	615
12	0	0	0	0	410	615
13	0	0	0	0	413	615
14	0	0	0	0	416	615
15	0	0	0	0	419	617
0	0	0	0	0	421	617
1	0	0	0	0	423	617
2	0	0	0	0	424	616
3	0	0	0	0	425	616
4	0	0	0	0	425	616
5	0	0	0	0	424	615
6	0	0	0	0	423	616
7	0	0	0	0	422	616
8	0	0	0	0	420	616
9	0	0	0	0	419	616
10	0	0	0	0	418	616
11	0	0	0	0	418	617
12	0	0	0	0	418	617
13	0	0	0	0	418	615
14	0	0	0	0	420	616
15	0	0	0	0	422	616
0	0	0	0	0	425	615
1	0	0	0	0	428	616
2	0	0	0	0	430	615
3	0	0	0	0	433	617
4	0	0	0	0	436	616
5	0	0	0	0	438	616
6	0	0	0	0	440	616
7	0	0	0	0	441	617
8	0	0	0	0	441	617
9	0	0	0	0	440	616
10	0	0	0	0	439	616
11	0	0	0	0	437	616
12	0	0	0	0	435	615
13	0	0	0	0	434	615
14	0	0	0	0	433	616
15	0	0	0	0	433	616
0	0	0	0	0	433	616
1	0	0	0	0	434	616
2	0	0	0	0	435	616
3	0	0	0	0	438	616
4	0	0	0	0	440	616
5	0	0	0	0	442	615
6	0	0	0	0	446	615
7	0	0	0	0	448	616
8	0	0	0	0	450	616
9	0	0	0	0	452	616
10	0	0	0	0	453	617
11	0	0	0	0	454	616
12	0	0	0	0	454	617
13	0	0	0	0	453	616
14	0	0	0	0	451	615
15	0	0	0	0	450	616
0	0	0	0	0	448	615
1	0	0	0	0	446	615
2	0	0	0	0	445	616
3	0	0	0	0	444	616
4	0	0	0	0	444	615
5	0	0	0	0	444	616
6	0	0	0	0	445	617
7	0	0	0	0	447	617
8	0	0	0	0	448	616
9	0	0	0	0	450	616
10	0	0	0	0	452	615
11	0	0	0	0	455	616
12	0	0	0	0	456	615
13	0	0	0	0	458	616
14	0	0	0	0	459	616
15	0	0	0	0	459	617
0	0	0	0	0	458	617
1	0	0	0	0	457	617
2	0	0	0	0	455	616
3	0	0	0	0	454	617
4	0	0	0	0	452	616
5	0	0	0	0	451	616
6	0	0	0	0	449	615
7	0	0	0	0	448	616
8	0	0	0	0	449	616
9	0	0	0	0	449	616
10	0	0	0	0	451	617
11	0	0	0	0	454	616
12	0	0	0	0	456	617
13	0	0	0	0	458	616
14	0	0	0	0	460	616
15	0	0	0	0	462	616
0	0	0	0	0	464	615
1	0	0	0	0	466	616
2	0	0	0	0	467	616
3	0	0	0	0	468	616
4	0	0	0	0	468	617
5	0	0	0	0	466	616
6	0	0	0	0	464	616
7	0	0	0	0	463	616
8	0	0	0	0	461	615
9	0	0	0	0	459	616
10	0	0	0	0	458	615
11	0	0	0	0	457	616
12	0	0	0	0	457	615
13	0	0	0	0	458	616
14	0	0	0	0	460	616
15	0	0	0	0	462	616
0	0	0	0	0	464	616
1	0	0	0	0	466	616
2	0	0	0	0	469	615
3	0	0	0	0	472	616
4	0	0	0	0	473	615
5	0	0	0	0	476	616
6	0	0	0	0	478	616
7	0	0	0	0	480	616
8	0	0	0	0	480	616
9	0	0	0	0	479	616
10	0	0	0	0	478	616
11	0	0	0	0	478	616
12	0	0	0	0	476	616
13	0	0	0	0	476	615
14	0	0	0	0	475	615
15	0	0	0	0	475	616
0	0	0	0	0	476	616
1	0	0	0	0	478	616
2	0	0	0	0	480	616
3	0	0	0	0	483	616
4	0	0	0	0	485	616
5	0	0	0	0	488	616
6	0	0	0	0	492	616
7	0	0	0	0	496	617
8	0	0	0	0	498	616
9	0	0	0	0	500	616
10	0	0	0	0	503	616
11	0	0	0	0	504	616
12	0	0	0	0	505	616
13	0	0	0	0	505	615
14	0	0	0	0	505	616
15	0	0	0	0	505	616
0	0	0	0	0	504	615
1	0	0	0	0	503	616
2	0	0	0	0	502	615
3	0	0	0	0	502	615
4	0	0	0	0	503	616
5	0	0	0	0	504	616
6	0	0	0	0	506	616
7	0	0	0	0	508	616
8	0	0	0	0	511	615
9	0	0	0	0	512	616
10	0	0	0	0	515	616
11	0	0	0	0	518	616
12	0	0	0	0	519	615
13	0	0	0	0	521	616
14	0	0	0	0	523	616
15	0	0	0	0	523	615
0	0	0	0	0	523	616
1	0	0	0	0	521	616
2	0	0	0	0	521	616
3	0	0	0	0	519	616
4	0	0	0	0	517	616
5	0	0	0	0	515	616
6	0	0	0	0	515	616
7	0	0	0	0	515	617
8	0	0	0	0	515	616
9	0	0	0	0	516	616
10	0	0	0	0	518	616
11	0	0	0	0	519	616
12	0	0	0	0	521	616
13	0	0	0	0	523	616
14	0	0	0	0	525	615
15	0	0	0	0	527	616
0	0	0	0	0	528	617
1	0	0	0	0	529	616
2	0	0	0	0	529	616
3	0	0	0	0	530	616
4	0	0	0	0	529	616
5	0	0	0	0	528	616
6	0	0	0	0	526	616
7	0	0	0	0	524	616
8	0	0	0	0	520	616
9	0	0	0	0	518	617
10	0	0	0	0	515	616
11	0	0	0	0	514	617
12	0	0	0	0	514	616
13	0	0	0	0	513	615
14	0	0	0	0	514	615
15	0	0	0	0	515	616
0	0	0	0	0	518	616
1	0	0	0	0	519	616
2	0	0	0	0	521	616
3	0	0	0	0	523	616
4	0	0	0	0	525	616
5	0	0	0	0	525	616
6	0	0	0	0	526	616
7	0	0	0	0	526	616
8	0	0	0	0	526	615
9	0	0	0	0	525	615
10	0	0	0	0	523	616
11	0	0	0	0	520	615
12	0	0	0	0	518	615
13	0	0	0	0	516	616
14	0	0	0	0	514	615
15	0	0	0	0	513	616
0	0	0	0	0	513	615
1	0	0	0	0	514	615
2	0	0	0	0	515	616
3	0	0	0	0	517	616
4	0	0	0	0	518	616
5	0	0	0	0	519	616
6	0	0	0	0	521	616
7	0	0	0	0	523	617
8	0	0	0	0	524	616
9	0	0	0	0	525	616
10	0	0	0	0	526	616
11	0	0	0	0	526	615
12	0	0	0	0	525	616
13	0	0	0	0	524	616
14	0	0	0	0	521	616
15	0	0	0	0	520	617
0	0	0	0	0	518	615
1	0	0	0	0	516	616
2	0	0	0	0	514	615
3	0	0	0	0	513	616
4	0	0	0	0	512	615
5	0	0	0	0	513	615
6	0	0	0	0	514	615
7	0	0	0	0	515	616
8	0	0	0	0	516	616
9	0	0	0	0	518	616
10	0	0	0	0	519	616
11	0	0	0	0	521	617
12	0	0	0	0	522	616
13	0	0	0	0	523	616
14	0	0	0	0	523	616
15	0	0	0	0	523	617
0	0	0	0	0	522	616
1	0	0	0	0	520	616
2	0	0	0	0	519	616
3	0	0	0	0	518	616
4	0	0	0	0	516	616
5	0	0	0	0	514	617
6	0	0	0	0	511	617
7	0	0	0	0	511	617
8	0	0	0	0	510	616
9	0	0	0	0	510	616
10	0	0	0	0	511	617
11	0	0	0	0	512	616
12	0	0	0	0	513	616
13	0	0	0	0	515	616
14	0	0	0	0	516	616
15	0	0	0	0	518	617
0	0	0	0	0	519	616
1	0	0	0	0	521	616
2	0	0	0	0	521	616
3	0	0	0	0	521	615
4	0	0	0	0	521	616
5	0	0	0	0	519	616
6	0	0	0	0	517	616
7	0	0	0	0	515	617
8	0	0	0	0	512	616
9	0	0	0	0	510	617
10	0	0	0	0	508	616
11	0	0	0	0	507	616
12	0	0	0	0	507	616
13	0	0	0	0	507	616
14	0	0	0	0	508	616
15	0	0	0	0	510	616
0	0	0	0	0	512	616
1	0	0	0	0	513	616
2	0	0	0	0	515	616
3	0	0	0	0	517	617
4	0	0	0	0	519	616
5	0	0	0	0	520	616
6	0	0	0	0	521	617
7	0	0	0	0	521	617
8	0	0	0	0	521	616
9	0	0	0	0	519	616
10	0	0	0	0	518	616
11	0	0	0	0	515	616
12	0	0	0	0	512	616
13	0	0	0	0	510	616
14	0	0	0	0	508	616
15	0	0	0	0	507	616
0	0	0	0	0	507	616
1	0	0	0	0	507	616
2	0	0	0	0	508	617
3	0	0	0	0	510	616
4	0	0	0	0	512	616
5	0	0	0	0	514	616
6	0	0	0	0	515	616
7	0	0	0	0	517	616
8	0	0	0	0	518	616
9	0	0	0	0	519	616
10	0	0	0	0	520	616
11	0	0	0	0	520	616
12	0	0	0	0	519	616
13	0	0	0	0	518	616
14	0	0	0	0	516	616
15	0	0	0	0	515	616
0	0	0	0	0	512	615
1	0	0	0	0	511	616
2	0	0	0	0	510	616
3	0	0	0	0	509	616
4	0	0	0	0	509	616
5	0	0	0	0	510	615
6	0	0	0	0	511	616
7	0	0	0	0	512	616
8	0	0	0	0	514	616
9	0	0	0	0	516	616
10	0	0	0	0	518	616
11	0	0	0	0	520	616
12	0	0	0	0	522	615
13	0	0	0	0	524	616
14	0	0	0	0	526	616
15	0	0	0	0	526	617
0	0	0	0	0	525	616
1	0	0	0	0	524	615
2	0	0	0	0	522	615
3	0	0	0	0	520	616
4	0	0	0	0	519	615
5	0	0	0	0	517	616
6	0	0	0	0	515	616
7	0	0	0	0	513	616
8	0	0	0	0	514	616
9	0	0	0	0	515	615
10	0	0	0	0	515	616
11	0	0	0	0	517	616
12	0	0	0	0	518	615
13	0	0	0	0	519	615
14	0	0	0	0	521	615
15	0	0	0	0	523	616
0	0	0	0	0	524	615
1	0	0	0	0	526	615
2	0	0	0	0	527	615
3	0	0	0	0	527	615
4	0	0	0	0	527	615
5	0	0	0	0	525	616
6	0	0	0	0	523	616
7	0	0	0	0	521	617
8	0	0	0	0	519	616
9	0	0	0	0	517	616
10	0	0	0	0	515	616
11	0	0	0	0	514	616
12	0	0	0	0	514	616
13	0	0	0	0	514	617
14	0	0	0	0	515	615
15	0	0	0	0	517	616
0	0	0	0	0	519	616
1	0	0	0	0	520	616
2	0	0	0	0	522	616
3	0	0	0	0	524	616
4	0	0	0	0	526	615
5	0	0	0	0	527	615
6	0	0	0	0	527	616
7	0	0	0	0	527	616
8	0	0	0	0	527	616
9	0	0	0	0	526	616
10	0	0	0	0	523	616
11	0	0	0	0	521	616
12	0	0	0	0	518	616
13	0	0	0	0	516	616
14	0	0	0	0	514	616
15	0	0	0	0	513	616
0	0	0	0	0	513	616
1	0	0	0	0	513	616
2	0	0	0	0	514	616
3	0	0	0	0	515	616
4	0	0	0	0	517	616
5	0	0	0	0	518	616
6	0	0	0	0	520	616
7	0	0	0	0	522	617
8	0	0	0	0	524	616
9	0	0	0	0	524	616
10	0	0	0	0	525	616
11	0	0	0	0	525	616
12	0	0	0	0	524	616
13	0	0	0	0	523	616
14	0	0	0	0	521	616
15	0	0	0	0	519	616
0	0	0	0	0	515	615
1	0	0	0	0	513	616
2	0	0	0	0	511	616
3	0	0	0	0	510	615
4	0	0	0	0	511	615
5	0	0	0	0	511	615
6	0	0	0	0	512	616
7	0	0	0	0	513	616
8	0	0	0	0	515	616
9	0	0	0	0	517	615
10	0	0	0	0	519	616
11	0	0	0	0	521	616
12	0	0	0	0	522	616
13	0	0	0	0	523	616
14	0	0	0	0	523	616
15	0	0	0	0	524	616
0	0	0	0	0	523	616
1	0	0	0	0	521	616
2	0	0	0	0	519	616
3	0	0	0	0	518	616
4	0	0	0	0	515	616
5	0	0	0	0	513	615
6	0	0	0	0	511	615
7	0	0	0	0	510	617
8	0	0	0	0	510	616
9	0	0	0	0	510	615
10	0	0	0	0	511	616
11	0	0	0	0	512	616
12	0	0	0	0	515	616
13	0	0	0	0	516	616
14	0	0	0	0	519	616
15	0	0	0	0	520	617
0	0	0	0	0	521	616
1	0	0	0	0	523	616
2	0	0	0	0	524	616
3	0	0	0	0	524	616
4	0	0	0	0	524	616
5	0	0	0	0	521	616
6	0	0	0	0	519	616
7	0	0	0	0	518	617
8	0	0	0	0	515	616
9	0	0	0	0	513	616
10	0	0	0	0	511	617
11	0	0	0	0	510	616
12	0	0	0	0	510	616
13	0	0	0	0	510	615
14	0	0	0	0	511	615
15	0	0	0	0	512	615
0	0	0	0	0	512	615
1	0	0	0	0	513	616
2	0	0	0	0	515	616
3	0	0	0	0	516	616
4	0	0	0	0	517	616
5	0	0	0	0	517	616
6	0	0	0	0	516	616
7	0	0	0	0	515	616
8	0	0	0	0	515	615
9	0	0	0	0	514	615
10	0	0	0	0	512	615
11	0	0	0	0	512	615
12	0	0	0	0	511	615
13	0	0	0	0	511	615
14	0	0	0	0	510	615
15	0	0	0	0	510	615
0	0	0	0	0	510	615
1	0	0	0	0	510	615
2	0	0	0	0	511	616
3	0	0	0	0	512	616
4	0	0	0	0	514	616
5	0	0	0	0	516	616
6	0	0	0	0	518	616
7	0	0	0	0	519	616
8	0	0	0	0	520	616
9	0	0	0	0	521	617
10	0	0	0	0	521	616
11	0	0	0	0	521	617
12	0	0	0	0	521	617
13	0	0	0	0	519	616
14	0	0	0	0	518	616
15	0	0	0	0	516	617
0	0	0	0	0	514	615
1	0	0	0	0	513	616
2	0	0	0	0	512	616
3	0	0	0	0	511	616
4	0	0	0	0	510	616
5	0	0	0	0	511	616
6	0	0	0	0	511	616
7	0	0	0	0	512	617
8	0	0	0	0	514	616
9	0	0	0	0	515	616
10	0	0	0	0	517	616
11	0	0	0	0	519	617
12	0	0	0	0	520	616
13	0	0	0	0	520	616
14	0	0	0	0	521	616
15	0	0	0	0	520	616
0	0	0	0	0	519	616
1	0	0	0	0	517	616
2	0	0	0	0	515	616
3	0	0	0	0	514	616
4	0	0	0	0	512	615
5	0	0	0	0	510	615
6	0	0	0	0	508	615
7	0	0	0	0	507	616
8	0	0	0	0	507	615
9	0	0	0	0	507	616
10	0	0	0	0	507	616
11	0	0	0	0	509	616
12	0	0	0	0	510	616
13	0	0	0	0	512	615
14	0	0	0	0	513	615
15	0	0	0	0	515	616
0	0	0	0	0	516	615
1	0	0	0	0	517	615
2	0	0	0	0	518	616
3	0	0	0	0	518	615
4	0	0	0	0	518	615
5	0	0	0	0	517	616
6	0	0	0	0	515	615
7	0	0	0	0	513	616
8	0	0	0	0	511	615
9	0	0	0	0	508	616
10	0	0	0	0	507	615
11	0	0	0	0	505	616
12	0	0	0	0	505	617
13	0	0	0	0	505	616
14	0	0	0	0	507	617
15	0	0	0	0	509	617
0	0	0	0	0	511	616
1	0	0	0	0	512	616
2	0	0	0	0	514	616
3	0	0	0	0	516	617
4	0	0	0	0	517	616
5	0	0	0	0	518	616
6	0	0	0	0	519	616
7	0	0	0	0	519	616
8	0	0	0	0	519	616
9	0	0	0	0	517	616
10	0	0	0	0	515	616
11	0	0	0	0	513	617
12	0	0	0	0	510	617
13	0	0	0	0	508	616
14	0	0	0	0	507	616
15	0	0	0	0	505	616
0	0	0	0	0	505	615
1	0	0	0	0	505	615
2	0	0	0	0	506	616
3	0	0	0	0	508	615
4	0	0	0	0	509	616
5	0	0	0	0	511	616
6	0	0	0	0	513	615
7	0	0	0	0	516	616
8	0	0	0	0	517	615
9	0	0	0	0	518	616
10	0	0	0	0	519	616
11	0	0	0	0	519	616
12	0	0	0	0	519	616
13	0	0	0	0	517	615
14	0	0	0	0	516	616
15	0	0	0	0	513	616
0	0	0	0	0	511	616
1	0	0	0	0	508	616
2	0	0	0	0	506	615
3	0	0	0	0	504	616
4	0	0	0	0	504	616
5	0	0	0	0	505	616
6	0	0	0	0	506	616
7	0	0	0	0	508	616
8	0	0	0	0	510	616
9	0	0	0	0	512	616
10	0	0	0	0	514	616
11	0	0	0	0	515	616
12	0	0	0	0	516	616
13	0	0	0	0	518	616
14	0	0	0	0	518	616
15	0	0	0	0	518	616
0	0	0	0	0	517	616
1	0	0	0	0	516	616
2	0	0	0	0	514	616
3	0	0	0	0	512	617
4	0	0	0	0	509	616
5	0	0	0	0	508	616
6	0	0	0	0	506	616
7	0	0	0	0	504	617
8	0	0	0	0	503	616
9	0	0	0	0	503	616
10	0	0	0	0	503	616
11	0	0	0	0	504	616
12	0	0	0	0	505	616
13	0	0	0	0	506	616
14	0	0	0	0	508	616
15	0	0	0	0	510	616
0	0	0	0	0	511	616
1	0	0	0	0	512	617
2	0	0	0	0	512	617
3	0	0	0	0	512	616
4	0	0	0	0	511	616
5	0	0	0	0	510	615
6	0	0	0	0	508	615
7	0	0	0	0	506	617
8	0	0	0	0	503	616
9	0	0	0	0	501	617
10	0	0	0	0	499	616
11	0	0	0	0	498	616
12	0	0	0	0	498	616
13	0	0	0	0	498	616
14	0	0	0	0	500	616
15	0	0	0	0	501	616
0	0	0	0	0	503	615
1	0	0	0	0	504	616
2	0	0	0	0	507	616
3	0	0	0	0	509	616
4	0	0	0	0	511	616
5	0	0	0	0	512	615
6	0	0	0	0	513	616
7	0	0	0	0	515	615
8	0	0	0	0	514	616
9	0	0	0	0	513	615
10	0	0	0	0	512	615
11	0	0	0	0	511	615
12	0	0	0	0	509	615
13	0	0	0	0	509	616
14	0	0	0	0	507	616
15	0	0	0	0	507	616
0	0	0	0	0	506	615
1	0	0	0	0	506	616
2	0	0	0	0	507	616
3	0	0	0	0	508	616
4	0	0	0	0	510	616
5	0	0	0	0	512	616
6	0	0	0	0	513	616
7	0	0	0	0	515	616
8	0	0	0	0	517	616
9	0	0	0	0	518	616
10	0	0	0	0	518	616
11	0	0	0	0	518	616
12	0	0	0	0	516	616
13	0	0	0	0	515	616
14	0	0	0	0	513	615
15	0	0	0	0	512	616
0	0	0	0	0	510	615
1	0	0	0	0	508	616
2	0	0	0	0	506	616
3	0	0	0	0	505	616
4	0	0	0	0	505	615
5	0	0	0	0	505	615
6	0	0	0	0	507	616
7	0	0	0	0	509	616
8	0	0	0	0	511	616
9	0	0	0	0	513	616
10	0	0	0	0	514	615
11	0	0	0	0	514	616
12	0	0	0	0	515	616
13	0	0	0	0	516	616
14	0	0	0	0	518	616
15	0	0	0	0	518	617
0	0	0	0	0	517	616
1	0	0	0	0	515	616
2	0	0	0	0	513	615
3	0	0	0	0	512	616
4	0	0	0	0	509	616
5	0	0	0	0	507	616
6	0	0	0	0	505	616
7	0	0	0	0	504	616
8	0	0	0	0	504	616
9	0	0	0	0	504	615
10	0	0	0	0	504	617
11	0	0	0	0	506	616
12	0	0	0	0	508	616
13	0	0	0	0	510	616
14	0	0	0	0	512	615
15	0	0	0	0	514	616
0	0	0	0	0	515	615
1	0	0	0	0	516	615
2	0	0	0	0	517	616
3	0	0	0	0	517	616
4	0	0	0	0	517	616
5	0	0	0	0	516	616
6	0	0	0	0	514	615
7	0	0	0	0	512	616
8	0	0	0	0	510	615
9	0	0	0	0	508	616
10	0	0	0	0	506	616
11	0	0	0	0	505	616
12	0	0	0	0	504	616
13	0	0	0	0	504	615
14	0	0	0	0	505	615
15	0	0	0	0	506	616
0	0	0	0	0	507	616
1	0	0	0	0	509	616
2	0	0	0	0	510	615
3	0	0	0	0	512	616
4	0	0	0	0	513	616
5	0	0	0	0	514	616
6	0	0	0	0	514	616
7	0	0	0	0	515	616
8	0	0	0	0	515	616
9	0	0	0	0	513	616
10	0	0	0	0	511	616
11	0	0	0	0	510	617
12	0	0	0	0	507	616
13	0	0	0	0	505	616
14	0	0	0	0	503	615
15	0	0	0	0	501	616
0	0	0	0	0	500	616
1	0	0	0	0	500	615
2	0	0	0	0	500	616
3	0	0	0	0	499	616
4	0	0	0	0	498	616
5	0	0	0	0	496	616
6	0	0	0	0	492	615
7	0	0	0	0	487	616
8	0	0	0	0	480	615
9	0	0	0	0	471	615
10	0	0	0	0	461	616
11	0	0	0	0	451	616
12	0	0	0	0	439	615
13	0	0	0	0	428	615
14	0	0	0	0	416	616
15	0	0	0	0	406	617
0	0	0	0	0	397	616
1	0	0	0	0	391	616
2	0	0	0	0	387	616
3	0	0	0	0	385	616
4	0	0	0	0	386	616
5	0	0	0	0	390	616
6	0	0	0	0	396	616
7	0	0	0	0	405	617
8	0	0	0	0	415	615
9	0	0	0	0	425	616
10	0	0	0	0	436	616
11	0	0	0	0	446	616
12	0	0	0	0	454	616
13	0	0	0	0	463	616
14	0	0	0	0	475	616
15	0	0	0	0	493	616
0	0	0	0	0	515	616
1	0	0	0	0	541	616
2	0	0	0	0	569	616
3	0	0	0	0	603	616
4	0	0	0	0	643	615
5	0	0	0	0	689	616
6	0	0	0	0	739	616
7	0	0	0	0	791	616
8	0	0	0	0	839	615
9	0	0	0	0	885	616
10	0	0	0	0	927	616
11	0	0	0	0	961	616
12	0	0	0	0	989	616
13	0	0	0	0	1009	615
14	0	0	0	0	1020	615
15	0	0	0	0	1022	616
0	0	0	0	0	1022	616
1	0	0	0	0	1022	616
2	0	0	0	0	1012	616
3	0	0	0	0	994	616
4	0	0	0	0	972	616
5	0	0	0	0	946	617
6	0	0	0	0	914	616
7	0	0	0	0	880	617
8	0	0	0	0	843	616
9	0	0	0	0	806	616
10	0	0	0	0	770	616
11	0	0	0	0	739	616
12	0	0	0	0	711	616
13	0	0	0	0	688	615
14	0	0	0	0	666	616
15	0	0	0	0	647	616
0	0	0	0	0	631	616
1	0	0	0	0	617	616
2	0	0	0	0	605	616
3	0	0	0	0	595	616
4	0	0	0	0	583	615
5	0	0	0	0	572	616
6	0	0	0	0	561	616
7	0	0	0	0	549	616
8	0	0	0	0	536	615
9	0	0	0	0	523	615
10	0	0	0	0	510	615
11	0	0	0	0	496	616
12	0	0	0	0	482	616
13	0	0	0	0	470	616
14	0	0	0	0	459	615
15	0	0	0	0	449	616
0	0	0	0	0	441	616
1	0	0	0	0	434	616
2	0	0	0	0	428	616
3	0	0	0	0	423	615
4	0	0	0	0	419	615
5	0	0	0	0	416	616
6	0	0	0	0	414	615
7	0	0	0	0	412	617
8	0	0	0	0	411	615
9	0	0	0	0	409	616
10	0	0	0	0	408	616
11	0	0	0	0	406	616
12	0	0	0	0	403	616
13	0	0	0	0	400	616
14	0	0	0	0	396	616
15	0	0	0	0	392	617
0	0	0	0	0	389	616
1	0	0	0	0	387	616
2	0	0	0	0	385	616
3	0	0	0	0	384	616
4	0	0	0	0	384	616
5	0	0	0	0	385	616
6	0	0	0	0	386	616
7	0	0	0	0	387	616
8	0	0	0	0	389	616
9	0	0	0	0	391	616
10	0	0	0	0	393	616
11	0	0	0	0	396	616
12	0	0	0	0	397	615
13	0	0	0	0	400	615
14	0	0	0	0	401	616
15	0	0	0	0	402	616
0	0	0	0	0	402	616
1	0	0	0	0	402	615
2	0	0	0	0	401	615
3	0	0	0	0	400	616
4	0	0	0	0	399	616
5	0	0	0	0	397	616
6	0	0	0	0	396	615
7	0	0	0	0	396	617
8	0	0	0	0	396	616
9	0	0	0	0	397	616
10	0	0	0	0	399	615
11	0	0	0	0	401	615
12	0	0	0	0	404	616
13	0	0	0	0	407	616
14	0	0	0	0	409	616
15	0	0	0	0	411	616
0	0	0	0	0	413	616
1	0	0	0	0	415	616
2	0	0	0	0	417	616
3	0	0	0	0	419	616
4	0	0	0	0	419	616
5	0	0	0	0	419	616
6	0	0	0	0	418	616
7	0	0	0	0	417	616
8	0	0	0	0	415	615
9	0	0	0	0	414	616
10	0	0	0	0	412	616
11	0	0	0	0	412	616
12	0	0	0	0	412	616
13	0	0	0	0	413	616
14	0	0	0	0	415	616
15	0	0	0	0	417	616
0	0	0	0	0	420	616
1	0	0	0	0	423	616
2	0	0	0	0	426	615
3	0	0	0	0	429	616
4	0	0	0	0	431	616
5	0	0	0	0	433	616
6	0	0	0	0	434	616
7	0	0	0	0	435	617
8	0	0	0	0	435	616
9	0	0	0	0	434	616
10	0	0	0	0	433	616
11	0	0	0	0	432	616
12	0	0	0	0	430	615
13	0	0	0	0	428	616
14	0	0	0	0	427	616
15	0	0	0	0	426	616
0	0	0	0	0	426	616
1	0	0	0	0	427	615
2	0	0	0	0	428	616
3	0	0	0	0	430	616
4	0	0	0	0	433	616
5	0	0	0	0	436	616
6	0	0	0	0	438	616
7	0	0	0	0	441	617
8	0	0	0	0	442	616
9	0	0	0	0	445	616
10	0	0	0	0	446	616
11	0	0	0	0	447	615
12	0	0	0	0	447	615
13	0	0	0	0	446	616
14	0	0	0	0	445	615
15	0	0	0	0	443	616
0	0	0	0	0	440	616
1	0	0	0	0	440	616
2	0	0	0	0	438	616
3	0	0	0	0	436	616
4	0	0	0	0	437	616
5	0	0	0	0	437	616
6	0	0	0	0	439	617
7	0	0	0	0	440	616
8	0	0	0	0	442	616
9	0	0	0	0	444	616
10	0	0	0	0	447	616
11	0	0	0	0	449	617
12	0	0	0	0	452	615
13	0	0	0	0	453	615
14	0	0	0	0	454	616
15	0	0	0	0	455	616
0	0	0	0	0	454	616
1	0	0	0	0	453	616
2	0	0	0	0	451	616
3	0	0	0	0	450	616
4	0	0	0	0	448	616
5	0	0	0	0	447	616
6	0	0	0	0	445	616
7	0	0	0	0	444	617
8	0	0	0	0	444	616
9	0	0	0	0	445	617
10	0	0	0	0	447	616
11	0	0	0	0	448	616
12	0	0	0	0	450	616
13	0	0	0	0	452	616
14	0	0	0	0	455	616
15	0	0	0	0	457	617
0	0	0	0	0	459	615
1	0	0	0	0	461	615
2	0	0	0	0	462	615
3	0	0	0	0	462	615
4	0	0	0	0	462	616
5	0	0	0	0	461	615
6	0	0	0	0	459	616
7	0	0	0	0	458	616
8	0	0	0	0	455	616
9	0	0	0	0	453	615
10	0	0	0	0	451	616
11	0	0	0	0	451	616
12	0	0	0	0	451	616
13	0	0	0	0	453	615
14	0	0	0	0	454	616
15	0	0	0	0	456	616
0	0	0	0	0	457	616
1	0	0	0	0	460	616
2	0	0	0	0	463	615
3	0	0	0	0	465	616
4	0	0	0	0	467	616
5	0	0	0	0	469	616
6	0	0	0	0	471	616
7	0	0	0	0	473	617
8	0	0	0	0	472	617
9	0	0	0	0	472	616
10	0	0	0	0	471	615
11	0	0	0	0	470	616
12	0	0	0	0	468	615
13	0	0	0	0	467	616
14	0	0	0	0	467	616
15	0	0	0	0	467	617
0	0	0	0	0	468	616
1	0	0	0	0	470	615
2	0	0	0	0	472	616
3	0	0	0	0	475	616
4	0	0	0	0	479	616
5	0	0	0	0	483	616
6	0	0	0	0	486	616
7	0	0	0	0	489	617
8	0	0	0	0	492	615
9	0	0	0	0	494	616
10	0	0	0	0	496	616
11	0	0	0	0	497	616
12	0	0	0	0	499	616
13	0	0	0	0	499	616
14	0	0	0	0	498	616
15	0	0	0	0	497	617
0	0	0	0	0	496	615
1	0	0	0	0	496	616
2	0	0	0	0	495	617
3	0	0	0	0	495	616
4	0	0	0	0	496	616
5	0	0	0	0	497	616
6	0	0	0	0	500	616
7	0	0	0	0	502	616
8	0	0	0	0	504	615
9	0	0	0	0	507	616
10	0	0	0	0	510	615
11	0	0	0	0	513	617
12	0	0	0	0	515	616
13	0	0	0	0	518	616
14	0	0	0	0	520	615
15	0	0	0	0	521	616
0	0	0	0	0	521	616
1	0	0	0	0	520	615
2	0	0	0	0	520	615
3	0	0	0	0	519	616
4	0	0	0	0	517	615
5	0	0	0	0	516	616
6	0	0	0	0	515	615
7	0	0	0	0	515	616
8	0	0	0	0	515	616
9	0	0	0	0	517	616
10	0	0	0	0	518	616
11	0	0	0	0	519	616
12	0	0	0	0	521	616
13	0	0	0	0	523	616
14	0	0	0	0	526	616
15	0	0	0	0	529	616
0	0	0	0	0	530	616
1	0	0	0	0	532	615
2	0	0	0	0	533	616
3	0	0	0	0	533	616
4	0	0	0	0	533	616
5	0	0	0	0	531	616
6	0	0	0	0	530	616
7	0	0	0	0	528	616
8	0	0	0	0	526	616
9	0	0	0	0	524	616
10	0	0	0	0	522	616
11	0	0	0	0	521	616
12	0	0	0	0	520	616
13	0	0	0	0	521	615
14	0	0	0	0	522	616
15	0	0	0	0	524	616
0	0	0	0	0	526	615
1	0	0	0	0	527	616
2	0	0	0	0	529	615
3	0	0	0	0	530	616
4	0	0	0	0	531	616
5	0	0	0	0	532	616
6	0	0	0	0	533	616
7	0	0	0	0	533	617
8	0	0	0	0	532	616
9	0	0	0	0	531	616
10	0	0	0	0	529	616
11	0	0	0	0	528	616
12	0	0	0	0	525	615
13	0	0	0	0	523	616
14	0	0	0	0	521	616
15	0	0	0	0	519	617
0	0	0	0	0	519	616
1	0	0	0	0	520	616
2	0	0	0	0	521	616
3	0	0	0	0	522	616
4	0	0	0	0	524	616
5	0	0	0	0	526	615
6	0	0	0	0	527	615
7	0	0	0	0	529	616
8	0	0	0	0	530	615
9	0	0	0	0	531	616
10	0	0	0	0	533	615
11	0	0	0	0	533	615
12	0	0	0	0	531	616
13	0	0	0	0	530	616
14	0	0	0	0	528	616
15	0	0	0	0	527	616
0	0	0	0	0	524	616
1	0	0	0	0	521	616
2	0	0	0	0	520	616
3	0	0	0	0	519	616
4	0	0	0	0	519	615
5	0	0	0	0	519	615
6	0	0	0	0	521	616
7	0	0	0	0	522	616
8	0	0	0	0	524	616
9	0	0	0	0	526	616
10	0	0	0	0	528	616
11	0	0	0	0	530	616
12	0	0	0	0	531	615
13	0	0	0	0	531	615
14	0	0	0	0	532	615
15	0	0	0	0	532	615
0	0	0	0	0	531	616
1	0	0	0	0	530	616
2	0	0	0	0	528	616
3	0	0	0	0	526	616
4	0	0	0	0	523	616
5	0	0	0	0	520	616
6	0	0	0	0	518	616
7	0	0	0	0	517	616
8	0	0	0	0	517	616
9	0	0	0	0	517	615
10	0	0	0	0	518	616
11	0	0	0	0	519	615
12	0	0	0	0	521	616
13	0	0	0	0	523	616
14	0	0	0	0	524	615
15	0	0	0	0	526	617
0	0	0	0	0	526	616
1	0	0	0	0	527	616
2	0	0	0	0	527	616
3	0	0	0	0	527	615
4	0	0	0	0	527	615
5	0	0	0	0	526	615
6	0	0	0	0	524	615
7	0	0	0	0	521	616
8	0	0	0	0	518	616
9	0	0	0	0	516	616
10	0	0	0	0	514	616
11	0	0	0	0	512	617
12	0	0	0	0	512	616
13	0	0	0	0	512	616
14	0	0	0	0	512	616
15	0	0	0	0	513	616
0	0	0	0	0	515	616
1	0	0	0	0	517	616
2	0	0	0	0	519	616
3	0	0	0	0	521	616
4	0	0	0	0	522	616
5	0	0	0	0	523	617
6	0	0	0	0	523	615
7	0	0	0	0	524	617
8	0	0	0	0	523	616
9	0	0	0	0	521	616
10	0	0	0	0	519	616
11	0	0	0	0	518	617
12	0	0	0	0	515	616
13	0	0	0	0	513	616
14	0	0	0	0	511	616
15	0	0	0	0	509	617
0	0	0	0	0	509	616
1	0	0	0	0	509	615
2	0	0	0	0	510	616
3	0	0	0	0	511	616
4	0	0	0	0	513	616
5	0	0	0	0	515	616
6	0	0	0	0	517	615
7	0	0	0	0	519	616
8	0	0	0	0	521	616
9	0	0	0	0	523	615
10	0	0	0	0	524	615
11	0	0	0	0	524	616
12	0	0	0	0	522	615
13	0	0	0	0	521	615
14	0	0	0	0	519	616
15	0	0	0	0	517	616
0	0	0	0	0	515	615
1	0	0	0	0	513	615
2	0	0	0	0	512	615
3	0	0	0	0	511	616
4	0	0	0	0	511	616
5	0	0	0	0	512	615
6	0	0	0	0	512	616
7	0	0	0	0	513	616
8	0	0	0	0	516	616
9	0	0	0	0	518	616
10	0	0	0	0	520	615
11	0	0	0	0	522	616
12	0	0	0	0	523	616
13	0	0	0	0	524	616
14	0	0	0	0	525	616
15	0	0	0	0	525	616
0	0	0	0	0	525	616
1	0	0	0	0	524	616
2	0	0	0	0	522	616
3	0	0	0	0	520	617
4	0	0	0	0	516	616
5	0	0	0	0	515	616
6	0	0	0	0	513	616
7	0	0	0	0	512	617
8	0	0	0	0	512	616
9	0	0	0	0	513	616
10	0	0	0	0	513	617
11	0	0	0	0	515	616
12	0	0	0	0	517	616
13	0	0	0	0	519	616
14	0	0	0	0	521	616
15	0	0	0	0	523	617
0	0	0	0	0	524	615
1	0	0	0	0	525	616
2	0	0	0	0	526	616
3	0	0	0	0	527	616
4	0	0	0	0	526	616
5	0	0	0	0	524	616
6	0	0	0	0	522	616
7	0	0	0	0	520	616
8	0	0	0	0	518	616
9	0	0	0	0	516	616
10	0	0	0	0	514	616
11	0	0	0	0	513	616
12	0	0	0	0	513	616
13	0	0	0	0	514	616
14	0	0	0	0	515	616
15	0	0	0	0	516	617
0	0	0	0	0	519	617
1	0	0	0	0	520	616
2	0	0	0	0	522	616
3	0	0	0	0	525	616
4	0	0	0	0	526	616
5	0	0	0	0	527	616
6	0	0	0	0	528	616
7	0	0	0	0	528	617
8	0	0	0	0	527	616
9	0	0	0	0	526	616
10	0	0	0	0	524	616
11	0	0	0	0	522	617
12	0	0	0	0	519	616
13	0	0	0	0	518	617
14	0	0	0	0	515	617
15	0	0	0	0	514	617
0	0	0	0	0	514	617
1	0	0	0	0	514	616
2	0	0	0	0	515	616
3	0	0	0	0	516	616
4	0	0	0	0	517	615
5	0	0	0	0	519	616
6	0	0	0	0	522	616
7	0	0	0	0	524	617
8	0	0	0	0	526	616
9	0	0	0	0	527	616
10	0	0	0	0	528	615
11	0	0	0	0	529	615
12	0	0	0	0	529	616
13	0	0	0	0	527	615
14	0	0	0	0	525	616
15	0	0	0	0	523	617
0	0	0	0	0	519	616
1	0	0	0	0	517	617
2	0	0	0	0	515	616
3	0	0	0	0	514	616
4	0	0	0	0	514	616
5	0	0	0	0	515	615
6	0	0	0	0	515	616
7	0	0	0	0	517	616
8	0	0	0	0	519	616
9	0	0	0	0	520	615
10	0	0	0	0	522	615
11	0	0	0	0	524	616
12	0	0	0	0	525	616
13	0	0	0	0	527	616
14	0	0	0	0	528	616
15	0	0	0	0	529	616
0	0	0	0	0	528	616
1	0	0	0	0	527	616
2	0	0	0	0	525	615
3	0	0	0	0	524	616
4	0	0	0	0	521	615
5	0	0	0	0	519	616
6	0	0	0	0	517	616
7	0	0	0	0	515	617
8	0	0	0	0	515	616
9	0	0	0	0	516	616
10	0	0	0	0	517	616
11	0	0	0	0	518	616
12	0	0	0	0	520	616
13	0	0	0	0	522	616
14	0	0	0	0	524	616
15	0	0	0	0	525	617
0	0	0	0	0	527	615
1	0	0	0	0	527	616
2	0	0	0	0	528	616
3	0	0	0	0	527	615
4	0	0	0	0	526	616
5	0	0	0	0	524	616
6	0	0	0	0	522	616
7	0	0	0	0	520	616
8	0	0	0	0	517	616
9	0	0	0	0	515	616
10	0	0	0	0	512	616
11	0	0	0	0	510	616
12	0	0	0	0	510	616
13	0	0	0	0	510	616
14	0	0	0	0	511	616
15	0	0	0	0	512	616
0	0	0	0	0	513	616
1	0	0	0	0	514	616
2	0	0	0	0	516	615
3	0	0	0	0	518	615
4	0	0	0	0	519	616
5	0	0	0	0	521	616
6	0	0	0	0	521	616
7	0	0	0	0	522	616
8	0	0	0	0	521	615
9	0	0	0	0	519	615
10	0	0	0	0	518	615
11	0	0	0	0	516	615
12	0	0	0	0	514	615
13	0	0	0	0	512	615
14	0	0	0	0	510	615
15	0	0	0	0	509	616
0	0	0	0	0	509	617
1	0	0	0	0	509	616
2	0	0	0	0	510	616
3	0	0	0	0	512	616
4	0	0	0	0	513	615
5	0	0	0	0	515	616
6	0	0	0	0	516	616
7	0	0	0	0	518	616
8	0	0	0	0	520	616
9	0	0	0	0	522	616
10	0	0	0	0	523	616
11	0	0	0	0	523	616
12	0	0	0	0	522	616
13	0	0	0	0	520	616
14	0	0	0	0	518	615
15	0	0	0	0	516	616
0	0	0	0	0	513	616
1	0	0	0	0	511	616
2	0	0	0	0	510	616
3	0	0	0	0	509	616
4	0	0	0	0	509	616
5	0	0	0	0	509	615
6	0	0	0	0	509	616
7	0	0	0	0	511	616
8	0	0	0	0	513	616
9	0	0	0	0	514	616
10	0	0	0	0	516	616
11	0	0	0	0	519	617
12	0	0	0	0	520	616
13	0	0	0	0	522	616
14	0	0	0	0	522	616
15	0	0	0	0	523	616
0	0	0	0	0	521	616
1	0	0	0	0	519	616
2	0	0	0	0	517	616
3	0	0	0	0	515	616
4	0	0	0	0	512	616
5	0	0	0	0	510	616
6	0	0	0	0	508	615
7	0	0	0	0	507	616
8	0	0	0	0	507	616
9	0	0	0	0	507	615
10	0	0	0	0	508	615
11	0	0	0	0	509	616
12	0	0	0	0	511	616
13	0	0	0	0	513	616
14	0	0	0	0	514	616
15	0	0	0	0	516	616
0	0	0	0	0	518	616
1	0	0	0	0	519	616
2	0	0	0	0	519	616
3	0	0	0	0	519	616
4	0	0	0	0	518	616
5	0	0	0	0	517	616
6	0	0	0	0	515	616
7	0	0	0	0	513	616
8	0	0	0	0	511	615
9	0	0	0	0	508	616
10	0	0	0	0	507	616
11	0	0	0	0	507	616
12	0	0	0	0	506	617
13	0	0	0	0	506	616
14	0	0	0	0	508	616
15	0	0	0	0	509	616
0	0	0	0	0	511	616
1	0	0	0	0	512	615
2	0	0	0	0	515	615
3	0	0	0	0	517	616
4	0	0	0	0	518	615
5	0	0	0	0	519	615
6	0	0	0	0	520	615
7	0	0	0	0	520	616
8	0	0	0	0	520	615
9	0	0	0	0	519	616
10	0	0	0	0	516	615
11	0	0	0	0	514	615
12	0	0	0	0	512	615
13	0	0	0	0	509	615
14	0	0	0	0	507	615
15	0	0	0	0	506	616
0	0	0	0	0	506	615
1	0	0	0	0	506	615
2	0	0	0	0	507	616
3	0	0	0	0	508	616
4	0	0	0	0	510	616
5	0	0	0	0	512	616
6	0	0	0	0	512	615
7	0	0	0	0	514	617
8	0	0	0	0	515	615
9	0	0	0	0	516	615
10	0	0	0	0	516	616
11	0	0	0	0	517	616
12	0	0	0	0	516	617
13	0	0	0	0	515	616
14	0	0	0	0	513	616
15	0	0	0	0	512	616
0	0	0	0	0	510	615
1	0	0	0	0	508	615
2	0	0	0	0	507	616
3	0	0	0	0	506	616
4	0	0	0	0	506	615
5	0	0	0	0	507	616
6	0	0	0	0	508	616
7	0	0	0	0	509	616
8	0	0	0	0	510	615
9	0	0	0	0	511	616
10	0	0	0	0	512	615
11	0	0	0	0	513	616
12	0	0	0	0	513	616
13	0	0	0	0	514	615
14	0	0	0	0	514	616
15	0	0	0	0	514	617
0	0	0	0	0	513	616
1	0	0	0	0	512	616
2	0	0	0	0	511	616
3	0	0	0	0	510	616
4	0	0	0	0	508	616
5	0	0	0	0	506	616
6	0	0	0	0	504	616
7	0	0	0	0	502	616
8	0	0	0	0	501	615
9	0	0	0	0	501	615
10	0	0	0	0	501	616
11	0	0	0	0	501	616
12	0	0	0	0	502	616
13	0	0	0	0	503	616
14	0	0	0	0	505	616
15	0	0	0	0	507	617
0	0	0	0	0	509	616
1	0	0	0	0	511	616
2	0	0	0	0	511	616
3	0	0	0	0	511	616
4	0	0	0	0	509	616
5	0	0	0	0	507	615
6	0	0	0	0	504	615
7	0	0	0	0	501	616
8	0	0	0	0	499	616
9	0	0	0	0	497	616
10	0	0	0	0	496	615
11	0	0	0	0	495	616
12	0	0	0	0	495	616
13	0	0	0	0	495	615
14	0	0	0	0	496	616
15	0	0	0	0	498	616
0	0	0	0	0	500	616
1	0	0	0	0	504	616
2	0	0	0	0	507	616
3	0	0	0	0	510	616
4	0	0	0	0	513	616
5	0	0	0	0	515	616
6	0	0	0	0	517	616
7	0	0	0	0	518	616
8	0	0	0	0	519	616
9	0	0	0	0	518	616
10	0	0	0	0	516	615
11	0	0	0	0	514	616
12	0	0	0	0	512	615
13	0	0	0	0	510	615
14	0	0	0	0	508	615
15	0	0	0	0	507	616
0	0	0	0	0	506	615
1	0	0	0	0	507	615
2	0	0	0	0	508	616
3	0	0	0	0	509	615
4	0	0	0	0	510	616
5	0	0	0	0	512	616
6	0	0	0	0	513	615
7	0	0	0	0	515	616
8	0	0	0	0	516	616
9	0	0	0	0	518	616
10	0	0	0	0	518	615
11	0	0	0	0	519	616
12	0	0	0	0	519	616
13	0	0	0	0	517	615
14	0	0	0	0	516	616
15	0	0	0	0	514	617
0	0	0	0	0	512	616
1	0	0	0	0	510	616
2	0	0	0	0	507	615
3	0	0	0	0	506	616
4	0	0	0	0	505	616
5	0	0	0	0	505	616
6	0	0	0	0	506	615
7	0	0	0	0	508	616
8	0	0	0	0	509	615
9	0	0	0	0	511	615
10	0	0	0	0	513	615
11	0	0	0	0	515	616
12	0	0	0	0	517	615
13	0	0	0	0	519	616
14	0	0	0	0	519	615
15	0	0	0	0	519	616
0	0	0	0	0	519	615
1	0	0	0	0	517	615
2	0	0	0	0	515	615
3	0	0	0	0	513	616
4	0	0	0	0	511	616
5	0	0	0	0	509	616
6	0	0	0	0	507	615
7	0	0	0	0	507	616
8	0	0	0	0	506	615
9	0	0	0	0	507	616
10	0	0	0	0	508	617
11	0	0	0	0	509	616
12	0	0	0	0	511	616
13	0	0	0	0	513	616
14	0	0	0	0	515	616
15	0	0	0	0	516	616
0	0	0	0	0	518	616
1	0	0	0	0	519	616
2	0	0	0	0	520	616
3	0	0	0	0	520	616
4	0	0	0	0	519	616
5	0	0	0	0	519	615
6	0	0	0	0	516	615
7	0	0	0	0	513	617
8	0	0	0	0	510	616
9	0	0	0	0	508	617
10	0	0	0	0	506	616
11	0	0	0	0	505	616
12	0	0	0	0	504	616
13	0	0	0	0	504	616
14	0	0	0	0	505	615
15	0	0	0	0	507	616
0	0	0	0	0	508	615
1	0	0	0	0	510	615
2	0	0	0	0	512	615
3	0	0	0	0	514	616
4	0	0	0	0	515	615
5	0	0	0	0	516	616
6	0	0	0	0	516	615
7	0	0	0	0	516	616
8	0	0	0	0	514	616
9	0	0	0	0	512	615
10	0	0	0	0	509	616
11	0	0	0	0	506	616
12	0	0	0	0	503	615
13	0	0	0	0	499	616
14	0	0	0	0	495	615
15	0	0	0	0	490	617
0	0	0	0	0	484	616
1	0	0	0	0	478	616
2	0	0	0	0	470	616
3	0	0	0	0	461	616
4	0	0	0	0	452	616
5	0	0	0	0	443	616
6	0	0	0	0	435	616
7	0	0	0	0	428	616
8	0	0	0	0	419	615
9	0	0	0	0	412	615
10	0	0	0	0	407	616
11	0	0	0	0	402	616
12	0	0	0	0	399	616
13	0	0	0	0	396	616
14	0	0	0	0	395	616
15	0	0	0	0	396	616
0	0	0	0	0	399	616
1	0	0	0	0	403	616
2	0	0	0	0	410	616
3	0	0	0	0	417	616
4	0	0	0	0	424	616
5	0	0	0	0	432	615
6	0	0	0	0	440	615
7	0	0	0	0	451	616
8	0	0	0	0	467	615
9	0	0	0	0	489	616
10	0	0	0	0	515	616
11	0	0	0	0	544	617
12	0	0	0	0	579	616
13	0	0	0	0	621	617
14	0	0	0	0	670	617
15	0	0	0	0	719	617
0	0	0	0	0	772	616
1	0	0	0	0	825	616
2	0	0	0	0	874	615
3	0	0	0	0	919	615
4	0	0	0	0	955	616
5	0	0	0	0	986	616
6	0	0	0	0	1009	615
7	0	0	0	0	1021	616
8	0	0	0	0	1022	616
9	0	0	0	0	1022	615
10	0	0	0	0	1022	616
11	0	0	0	0	1022	615
12	0	0	0	0	1022	615
13	0	0	0	0	1016	615
14	0	0	0	0	995	615
15	0	0	0	0	972	616
0	0	0	0	0	944	615
1	0	0	0	0	912	615
2	0	0	0	0	878	616
3	0	0	0	0	840	616
4	0	0	0	0	804	616
5	0	0	0	0	771	616
6	0	0	0	0	742	615
7	0	0	0	0	714	615
8	0	0	0	0	688	615
9	0	0	0	0	664	616
10	0	0	0	0	641	616
11	0	0	0	0	622	617
12	0	0	0	0	606	616
13	0	0	0	0	592	616
14	0	0	0	0	579	616
15	0	0	0	0	566	617
0	0	0	0	0	553	616
1	0	0	0	0	541	615
2	0	0	0	0	528	615
3	0	0	0	0	516	616
4	0	0	0	0	504	616
5	0	0	0	0	492	617
6	0	0	0	0	480	617
7	0	0	0	0	468	616
8	0	0	0	0	457	616
9	0	0	0	0	447	616
10	0	0	0	0	436	616
11	0	0	0	0	427	616
12	0	0	0	0	416	615
13	0	0	0	0	408	615
14	0	0	0	0	401	616
15	0	0	0	0	396	616
0	0	0	0	0	392	616
1	0	0	0	0	389	616
2	0	0	0	0	387	616
3	0	0	0	0	386	616
4	0	0	0	0	385	616
5	0	0	0	0	385	616
6	0	0	0	0	385	616
7	0	0	0	0	385	616
8	0	0	0	0	385	616
9	0	0	0	0	385	615
10	0	0	0	0	385	616
11	0	0	0	0	386	616
12	0	0	0	0	385	616
13	0	0	0	0	384	616
14	0	0	0	0	382	616
15	0	0	0	0	380	617
0	0	0	0	0	378	616
1	0	0	0	0	377	616
2	0	0	0	0	376	615
3	0	0	0	0	376	616
4	0	0	0	0	376	616
5	0	0	0	0	376	615
6	0	0	0	0	379	617
7	0	0	0	0	381	616
8	0	0	0	0	383	615
9	0	0	0	0	386	616
10	0	0	0	0	389	616
11	0	0	0	0	391	616
12	0	0	0	0	394	616
13	0	0	0	0	396	616
14	0	0	0	0	397	616
15	0	0	0	0	398	616
0	0	0	0	0	398	615
1	0	0	0	0	398	616
2	0	0	0	0	397	615
3	0	0	0	0	396	617
4	0	0	0	0	395	615
5	0	0	0	0	393	616
6	0	0	0	0	392	615
7	0	0	0	0	392	616
8	0	0	0	0	393	616
9	0	0	0	0	396	616
10	0	0	0	0	398	616
11	0	0	0	0	400	616
12	0	0	0	0	403	616
13	0	0	0	0	406	616
14	0	0	0	0	408	616
15	0	0	0	0	411	617
0	0	0	0	0	413	616
1	0	0	0	0	415	616
2	0	0	0	0	416	616
3	0	0	0	0	418	616
4	0	0	0	0	417	616
5	0	0	0	0	416	617
6	0	0	0	0	415	616
7	0	0	0	0	415	616
8	0	0	0	0	413	615
9	0	0	0	0	412	615
10	0	0	0	0	411	615
11	0	0	0	0	410	616
12	0	0	0	0	411	615
13	0	0	0	0	412	615
14	0	0	0	0	414	616
15	0	0	0	0	417	617
0	0	0	0	0	419	615
1	0	0	0	0	421	616
2	0	0	0	0	424	616
3	0	0	0	0	426	616
4	0	0	0	0	427	615
5	0	0	0	0	429	615
6	0	0	0	0	430	615
7	0	0	0	0	431	615
8	0	0	0	0	432	617
9	0	0	0	0	431	616
10	0	0	0	0	430	616
11	0	0	0	0	429	617
12	0	0	0	0	426	616
13	0	0	0	0	424	617
14	0	0	0	0	423	616
15	0	0	0	0	423	617
0	0	0	0	0	423	616
1	0	0	0	0	423	616
2	0	0	0	0	426	616
3	0	0	0	0	428	616
4	0	0	0	0	431	617
5	0	0	0	0	433	617
6	0	0	0	0	436	616
7	0	0	0	0	438	617
8	0	0	0	0	441	616
9	0	0	0	0	443	616
10	0	0	0	0	444	616
11	0	0	0	0	445	615
12	0	0	0	0	444	615
13	0	0	0	0	443	616
14	0	0	0	0	442	615
15	0	0	0	0	439	616
0	0	0	0	0	437	616
1	0	0	0	0	435	616
2	0	0	0	0	433	615
3	0	0	0	0	433	616
4	0	0	0	0	433	616
5	0	0	0	0	434	615
6	0	0	0	0	435	615
7	0	0	0	0	437	616
8	0	0	0	0	439	616
9	0	0	0	0	441	616
10	0	0	0	0	443	616
11	0	0	0	0	446	617
12	0	0	0	0	448	616
13	0	0	0	0	449	617
14	0	0	0	0	450	616
15	0	0	0	0	450	617
0	0	0	0	0	449	616
1	0	0	0	0	447	616
2	0	0	0	0	446	616
3	0	0	0	0	444	616
4	0	0	0	0	441	616
5	0	0	0	0	439	616
6	0	0	0	0	438	616
7	0	0	0	0	438	617
8	0	0	0	0	438	615
9	0	0	0	0	438	616
10	0	0	0	0	440	616
11	0	0	0	0	441	615
12	0	0	0	0	444	615
13	0	0	0	0	446	616
14	0	0	0	0	449	616
15	0	0	0	0	451	616
0	0	0	0	0	453	615
1	0	0	0	0	455	616
2	0	0	0	0	455	615
3	0	0	0	0	455	616
4	0	0	0	0	455	616
5	0	0	0	0	454	615
6	0	0	0	0	452	616
7	0	0	0	0	451	617
8	0	0	0	0	449	616
9	0	0	0	0	448	616
10	0	0	0	0	446	616
11	0	0	0	0	445	616
12	0	0	0	0	446	616
13	0	0	0	0	447	616
14	0	0	0	0	449	616
15	0	0	0	0	451	616
0	0	0	0	0	454	616
1	0	0	0	0	457	616
2	0	0	0	0	460	616
3	0	0	0	0	463	616
4	0	0	0	0	467	617
5	0	0	0	0	469	616
6	0	0	0	0	471	616
7	0	0	0	0	472	616
8	0	0	0	0	473	616
9	0	0	0	0	473	616
10	0	0	0	0	472	615
11	0	0	0	0	472	616
12	0	0	0	0	470	616
13	0	0	0	0	470	616
14	0	0	0	0	470	616
15	0	0	0	0	470	617
0	0	0	0	0	472	616
1	0	0	0	0	474	616
2	0	0	0	0	477	616
3	0	0	0	0	480	616
4	0	0	0	0	484	616
5	0	0	0	0	487	616
6	0	0	0	0	491	616
7	0	0	0	0	494	617
8	0	0	0	0	497	615
9	0	0	0	0	499	616
10	0	0	0	0	501	616
11	0	0	0	0	501	616
12	0	0	0	0	502	616
13	0	0	0	0	501	616
14	0	0	0	0	500	616
15	0	0	0	0	499	617
0	0	0	0	0	498	615
1	0	0	0	0	497	616
2	0	0	0	0	498	615
3	0	0	0	0	499	616
4	0	0	0	0	500	615
5	0	0	0	0	502	616
6	0	0	0	0	504	616
7	0	0	0	0	507	617
8	0	0	0	0	510	616
9	0	0	0	0	512	616
10	0	0	0	0	515	616
11	0	0	0	0	517	616
12	0	0	0	0	519	616
13	0	0	0	0	521	616
14	0	0	0	0	522	616
15	0	0	0	0	524	616
0	0	0	0	0	524	616
1	0	0	0	0	523	616
2	0	0	0	0	522	616
3	0	0	0	0	520	616
4	0	0	0	0	518	616
5	0	0	0	0	518	616
6	0	0	0	0	517	616
7	0	0	0	0	517	616
8	0	0	0	0	516	616
9	0	0	0	0	517	616
10	0	0	0	0	519	616
11	0	0	0	0	520	615
12	0	0	0	0	522	616
13	0	0	0	0	525	616
14	0	0	0	0	528	615
15	0	0	0	0	530	617
0	0	0	0	0	532	616
1	0	0	0	0	534	616
2	0	0	0	0	536	616
3	0	0	0	0	536	617
4	0	0	0	0	535	616
5	0	0	0	0	534	617
6	0	0	0	0	531	616
7	0	0	0	0	529	616
8	0	0	0	0	526	616
9	0	0	0	0	524	615
10	0	0	0	0	521	615
11	0	0	0	0	520	616
12	0	0	0	0	519	616
13	0	0	0	0	519	615
14	0	0	0	0	521	616
15	0	0	0	0	523	616
0	0	0	0	0	524	616
1	0	0	0	0	527	616
2	0	0	0	0	529	615
3	0	0	0	0	531	615
4	0	0	0	0	533	615
5	0	0	0	0	535	615
6	0	0	0	0	535	616
7	0	0	0	0	536	616
8	0	0	0	0	535	615
9	0	0	0	0	533	616
10	0	0	0	0	531	616
11	0	0	0	0	528	616
12	0	0	0	0	526	616
13	0	0	0	0	524	616
14	0	0	0	0	523	615
15	0	0	0	0	522	616
0	0	0	0	0	522	616
1	0	0	0	0	522	616
2	0	0	0	0	523	616
3	0	0	0	0	525	616
4	0	0	0	0	527	616
5	0	0	0	0	529	615
6	0	0	0	0	531	616
7	0	0	0	0	534	616
8	0	0	0	0	536	616
9	0	0	0	0	537	616
10	0	0	0	0	537	615
11	0	0	0	0	537	616
12	0	0	0	0	536	615
13	0	0	0	0	535	616
14	0	0	0	0	533	616
15	0	0	0	0	532	617
0	0	0	0	0	529	615
1	0	0	0	0	527	615
2	0	0	0	0	525	616
3	0	0	0	0	524	616
4	0	0	0	0	524	615
5	0	0	0	0	525	615
6	0	0	0	0	526	616
7	0	0	0	0	527	616
8	0	0	0	0	528	616
9	0	0	0	0	530	616
10	0	0	0	0	532	615
11	0	0	0	0	534	615
12	0	0	0	0	536	616
13	0	0	0	0	537	616
14	0	0	0	0	538	616
15	0	0	0	0	537	616
0	0	0	0	0	536	616
1	0	0	0	0	535	615
2	0	0	0	0	532	616
3	0	0	0	0	529	616
4	0	0	0	0	527	615
5	0	0	0	0	524	616
6	0	0	0	0	522	616
7	0	0	0	0	521	616
8	0	0	0	0	520	616
9	0	0	0	0	521	617
10	0	0	0	0	521	616
11	0	0	0	0	521	616
12	0	0	0	0	523	616
13	0	0	0	0	525	616
14	0	0	0	0	527	616
15	0	0	0	0	528	616
0	0	0	0	0	530	616
1	0	0	0	0	531	616
2	0	0	0	0	531	616
3	0	0	0	0	531	616
4	0	0	0	0	530	617
5	0	0	0	0	528	616
6	0	0	0	0	525	616
7	0	0	0	0	523	617
8	0	0	0	0	520	616
9	0	0	0	0	519	616
10	0	0	0	0	516	616
11	0	0	0	0	515	616
12	0	0	0	0	515	616
13	0	0	0	0	515	616
14	0	0	0	0	517	616
15	0	0	0	0	519	617
0	0	0	0	0	520	616
1	0	0	0	0	522	616
2	0	0	0	0	524	615
3	0	0	0	0	525	616
4	0	0	0	0	526	615
5	0	0	0	0	527	616
6	0	0	0	0	528	616
7	0	0	0	0	528	616
8	0	0	0	0	527	616
9	0	0	0	0	525	616
10	0	0	0	0	523	617
11	0	0	0	0	520	615
12	0	0	0	0	518	615
13	0	0	0	0	515	616
14	0	0	0	0	513	615
15	0	0	0	0	512	616
0	0	0	0	0	512	616
1	0	0	0	0	513	616
2	0	0	0	0	514	616
3	0	0	0	0	516	617
4	0	0	0	0	518	617
5	0	0	0	0	520	616
6	0	0	0	0	522	615
7	0	0	0	0	523	616
8	0	0	0	0	524	615
9	0	0	0	0	526	616
10	0	0	0	0	527	615
11	0	0	0	0	526	616
12	0	0	0	0	526	618
13	0	0	0	0	524	617
14	0	0	0	0	522	616
15	0	0	0	0	520	617
0	0	0	0	0	517	616
1	0	0	0	0	515	617
2	0	0	0	0	513	616
3	0	0	0	0	513	616
4	0	0	0	0	513	615
5	0	0	0	0	513	615
6	0	0	0	0	514	616
7	0	0	0	0	515	617
8	0	0	0	0	517	617
9	0	0	0	0	519	617
10	0	0	0	0	521	616
11	0	0	0	0	523	616
12	0	0	0	0	524	615
13	0	0	0	0	526	616
14	0	0	0	0	528	615
15	0	0	0	0	528	616
0	0	0	0	0	527	616
1	0	0	0	0	526	617
2	0	0	0	0	524	616
3	0	0	0	0	522	616
4	0	0	0	0	520	616
5	0	0	0	0	518	615
6	0	0	0	0	517	616
7	0	0	0	0	516	616
8	0	0	0	0	516	615
9	0	0	0	0	516	615
10	0	0	0	0	517	616
11	0	0	0	0	518	617
12	0	0	0	0	519	616
13	0	0	0	0	521	616
14	0	0	0	0	524	616
15	0	0	0	0	525	616
0	0	0	0	0	526	615
1	0	0	0	0	527	616
2	0	0	0	0	528	617
3	0	0	0	0	528	617
4	0	0	0	0	528	615
5	0	0	0	0	527	615
6	0	0	0	0	525	616
7	0	0	0	0	523	618
8	0	0	0	0	520	616
9	0	0	0	0	519	616
10	0	0	0	0	517	615
11	0	0	0	0	516	615
12	0	0	0	0	515	615
13	0	0	0	0	515	616
14	0	0	0	0	517	616
15	0	0	0	0	519	616
0	0	0	0	0	520	616
1	0	0	0	0	522	616
2	0	0	0	0	524	616
3	0	0	0	0	525	616
4	0	0	0	0	526	615
5	0	0	0	0	528	615
6	0	0	0	0	528	615
7	0	0	0	0	528	616
8	0	0	0	0	527	616
9	0	0	0	0	527	615
10	0	0	0	0	525	615
11	0	0	0	0	523	615
12	0	0	0	0	520	616
13	0	0	0	0	519	618
14	0	0	0	0	517	617
15	0	0	0	0	517	616
0	0	0	0	0	517	615
1	0	0	0	0	518	615
2	0	0	0	0	519	616
3	0	0	0	0	521	616
4	0	0	0	0	523	616
5	0	0	0	0	524	617
6	0	0	0	0	526	616
7	0	0	0	0	527	617
8	0	0	0	0	528	616
9	0	0	0	0	528	615
10	0	0	0	0	529	615
11	0	0	0	0	528	615
12	0	0	0	0	526	615
13	0	0	0	0	524	615
14	0	0	0	0	522	615
15	0	0	0	0	519	616
0	0	0	0	0	516	615
1	0	0	0	0	515	616
2	0	0	0	0	515	616
3	0	0	0	0	514	616
4	0	0	0	0	514	615
5	0	0	0	0	515	615
6	0	0	0	0	516	615
7	0	0	0	0	518	615
8	0	0	0	0	520	615
9	0	0	0	0	522	615
10	0	0	0	0	524	616
11	0	0	0	0	526	617
12	0	0	0	0	528	617
13	0	0	0	0	528	616
14	0	0	0	0	529	616
15	0	0	0	0	530	616
0	0	0	0	0	529	616
1	0	0	0	0	528	615
2	0	0	0	0	526	615
3	0	0	0	0	524	616
4	0	0	0	0	521	616
5	0	0	0	0	519	616
6	0	0	0	0	517	616
7	0	0	0	0	516	617
8	0	0	0	0	516	616
9	0	0	0	0	516	616
10	0	0	0	0	517	615
11	0	0	0	0	518	615
12	0	0	0	0	520	615
13	0	0	0	0	521	615
14	0	0	0	0	523	615
15	0	0	0	0	524	616
0	0	0	0	0	526	616
1	0	0	0	0	527	616
2	0	0	0	0	527	616
3	0	0	0	0	527	615
4	0	0	0	0	527	615
5	0	0	0	0	525	615
6	0	0	0	0	523	615
7	0	0	0	0	520	617
8	0	0	0	0	517	616
9	0	0	0	0	515	617
10	0	0	0	0	513	617
11	0	0	0	0	512	616
12	0	0	0	0	512	616
13	0	0	0	0	512	616
14	0	0	0	0	513	615
15	0	0	0	0	515	616
0	0	0	0	0	517	615
1	0	0	0	0	519	616
2	0	0	0	0	521	615
3	0	0	0	0	523	617
4	0	0	0	0	524	616
5	0	0	0	0	524	616
6	0	0	0	0	525	616
7	0	0	0	0	525	616
8	0	0	0	0	524	615
9	0	0	0	0	523	615
10	0	0	0	0	520	615
11	0	0	0	0	519	616
12	0	0	0	0	516	615
13	0	0	0	0	514	616
14	0	0	0	0	513	616
15	0	0	0	0	512	617
0	0	0	0	0	512	616
1	0	0	0	0	512	615
2	0	0	0	0	513	615
3	0	0	0	0	514	615
4	0	0	0	0	515	615
5	0	0	0	0	516	615
6	0	0	0	0	518	615
7	0	0	0	0	520	616
8	0	0	0	0	522	616
9	0	0	0	0	523	616
10	0	0	0	0	524	616
11	0	0	0	0	523	616
12	0	0	0	0	523	616
13	0	0	0	0	521	615
14	0	0	0	0	519	615
15	0	0	0	0	516	616
0	0	0	0	0	513	616
1	0	0	0	0	512	616
2	0	0	0	0	510	616
3	0	0	0	0	510	617
4	0	0	0	0	510	616
5	0	0	0	0	510	616
6	0	0	0	0	511	616
7	0	0	0	0	512	617
8	0	0	0	0	513	615
9	0	0	0	0	515	616
10	0	0	0	0	516	616
11	0	0	0	0	518	616
12	0	0	0	0	519	616
13	0	0	0	0	520	617
14	0	0	0	0	520	617
15	0	0	0	0	520	616
0	0	0	0	0	519	617
1	0	0	0	0	518	616
2	0	0	0	0	516	616
3	0	0	0	0	513	616
4	0	0	0	0	511	615
5	0	0	0	0	508	616
6	0	0	0	0	507	615
7	0	0	0	0	506	617
8	0	0	0	0	505	616
9	0	0	0	0	507	616
10	0	0	0	0	508	616
11	0	0	0	0	509	615
12	0	0	0	0	511	615
13	0	0	0	0	512	616
14	0	0	0	0	514	615
15	0	0	0	0	516	617
0	0	0	0	0	518	615
1	0	0	0	0	519	616
2	0	0	0	0	520	616
3	0	0	0	0	519	616
4	0	0	0	0	519	616
5	0	0	0	0	517	616
6	0	0	0	0	515	616
7	0	0	0	0	512	616
8	0	0	0	0	510	615
9	0	0	0	0	508	615
10	0	0	0	0	506	615
11	0	0	0	0	505	615
12	0	0	0	0	506	615
13	0	0	0	0	506	616
14	0	0	0	0	508	616
15	0	0	0	0	508	616
0	0	0	0	0	510	616
1	0	0	0	0	512	616
2	0	0	0	0	513	616
3	0	0	0	0	515	616
4	0	0	0	0	516	615
5	0	0	0	0	518	616
6	0	0	0	0	519	616
7	0	0	0	0	518	617
8	0	0	0	0	517	616
9	0	0	0	0	515	616
10	0	0	0	0	513	617
11	0	0	0	0	511	616
12	0	0	0	0	508	616
13	0	0	0	0	506	615
14	0	0	0	0	504	616
15	0	0	0	0	503	617
0	0	0	0	0	502	616
1	0	0	0	0	502	616
2	0	0	0	0	504	616
3	0	0	0	0	505	616
4	0	0	0	0	508	616
5	0	0	0	0	510	616
6	0	0	0	0	512	615
7	0	0	0	0	514	616
8	0	0	0	0	515	616
9	0	0	0	0	517	616
10	0	0	0	0	518	615
11	0	0	0	0	518	616
12	0	0	0	0	517	616
13	0	0	0	0	515	616
14	0	0	0	0	513	616
15	0	0	0	0	511	616
0	0	0	0	0	508	616
1	0	0	0	0	505	616
2	0	0	0	0	503	616
3	0	0	0	0	502	616
4	0	0	0	0	501	616
5	0	0	0	0	502	615
6	0	0	0	0	503	616
7	0	0	0	0	505	616
8	0	0	0	0	507	615
9	0	0	0	0	508	616
10	0	0	0	0	510	616
11	0	0	0	0	512	616
12	0	0	0	0	513	615
13	0	0	0	0	514	615
14	0	0	0	0	515	615
15	0	0	0	0	514	616
0	0	0	0	0	513	616
1	0	0	0	0	512	615
2	0	0	0	0	510	616
3	0	0	0	0	508	616
4	0	0	0	0	505	615
5	0	0	0	0	504	616
6	0	0	0	0	503	615
7	0	0	0	0	503	616
8	0	0	0	0	503	616
9	0	0	0	0	503	615
10	0	0	0	0	504	615
11	0	0	0	0	506	616
12	0	0	0	0	507	616
13	0	0	0	0	508	616
14	0	0	0	0	510	615
15	0	0	0	0	512	616
0	0	0	0	0	514	615
1	0	0	0	0	515	616
2	0	0	0	0	515	615
3	0	0	0	0	516	615
4	0	0	0	0	515	615
5	0	0	0	0	514	616
6	0	0	0	0	511	616
7	0	0	0	0	509	616
8	0	0	0	0	507	616
9	0	0	0	0	504	616
10	0	0	0	0	503	616
11	0	0	0	0	503	616
12	0	0	0	0	502	616
13	0	0	0	0	503	616
14	0	0	0	0	504	616
15	0	0	0	0	505	617
0	0	0	0	0	506	616
1	0	0	0	0	507	616
2	0	0	0	0	509	615
3	0	0	0	0	512	616
4	0	0	0	0	512	616
5	0	0	0	0	513	616
6	0	0	0	0	514	616
7	0	0	0	0	513	616
8	0	0	0	0	512	616
9	0	0	0	0	511	616
10	0	0	0	0	509	615
11	0	0	0	0	507	616
12	0	0	0	0	504	615
13	0	0	0	0	502	616
14	0	0	0	0	500	615
15	0	0	0	0	499	616
0	0	0	0	0	498	616
1	0	0	0	0	499	616
2	0	0	0	0	501	616
3	0	0	0	0	502	616
4	0	0	0	0	503	616
5	0	0	0	0	504	616
6	0	0	0	0	506	616
7	0	0	0	0	507	617
8	0	0	0	0	509	616
9	0	0	0	0	510	616
10	0	0	0	0	510	616
11	0	0	0	0	510	616
12	0	0	0	0	510	616
13	0	0	0	0	508	616
14	0	0	0	0	505	616
15	0	0	0	0	504	617
0	0	0	0	0	501	616
1	0	0	0	0	499	616
2	0	0	0	0	498	616
3	0	0	0	0	497	616
4	0	0	0	0	496	615
5	0	0	0	0	497	615
6	0	0	0	0	499	616
7	0	0	0	0	501	616
8	0	0	0	0	503	615
9	0	0	0	0	507	615
10	0	0	0	0	510	615
11	0	0	0	0	512	616
12	0	0	0	0	515	616
13	0	0	0	0	516	615
14	0	0	0	0	518	616
15	0	0	0	0	519	616
0	0	0	0	0	519	616
1	0	0	0	0	517	615
2	0	0	0	0	515	616
3	0	0	0	0	513	616
4	0	0	0	0	511	615
5	0	0	0	0	509	616
6	0	0	0	0	507	616
7	0	0	0	0	506	617
8	0	0	0	0	506	616
9	0	0	0	0	507	615
10	0	0	0	0	508	616
11	0	0	0	0	510	616
12	0	0	0	0	511	616
13	0	0	0	0	512	615
14	0	0	0	0	514	615
15	0	0	0	0	516	616
0	0	0	0	0	517	615
1	0	0	0	0	519	616
2	0	0	0	0	519	615
3	0	0	0	0	519	615
4	0	0	0	0	518	615
5	0	0	0	0	517	616
6	0	0	0	0	514	615
7	0	0	0	0	512	616
8	0	0	0	0	510	616
9	0	0	0	0	508	617
10	0	0	0	0	506	616
11	0	0	0	0	506	617
12	0	0	0	0	507	616
13	0	0	0	0	508	616
14	0	0	0	0	509	615
15	0	0	0	0	510	616
0	0	0	0	0	512	615
1	0	0	0	0	514	616
2	0	0	0	0	515	616
3	0	0	0	0	516	616
4	0	0	0	0	518	616
5	0	0	0	0	519	616
6	0	0	0	0	519	616
7	0	0	0	0	519	616
8	0	0	0	0	517	616
9	0	0	0	0	515	615
10	0	0	0	0	513	616
11	0	0	0	0	511	616
12	0	0	0	0	508	616
13	0	0	0	0	506	616
14	0	0	0	0	504	616
15	0	0	0	0	504	617
0	0	0	0	0	504	616
1	0	0	0	0	504	616
2	0	0	0	0	505	616
3	0	0	0	0	507	616
4	0	0	0	0	508	615
5	0	0	0	0	510	616
6	0	0	0	0	512	616
7	0	0	0	0	514	617
8	0	0	0	0	515	615
9	0	0	0	0	515	615
10	0	0	0	0	516	616
11	0	0	0	0	516	616
12	0	0	0	0	515	615
13	0	0	0	0	513	615
14	0	0	0	0	512	615
15	0	0	0	0	511	616
0	0	0	0	0	508	615
1	0	0	0	0	506	616
2	0	0	0	0	504	615
3	0	0	0	0	503	616
4	0	0	0	0	502	616
5	0	0	0	0	503	616
6	0	0	0	0	504	615
7	0	0	0	0	505	616
8	0	0	0	0	506	615
9	0	0	0	0	508	615
10	0	0	0	0	509	616
11	0	0	0	0	511	616
12	0	0	0	0	512	615
13	0	0	0	0	513	616
14	0	0	0	0	514	616
15	0	0	0	0	513	616
0	0	0	0	0	512	615
1	0	0	0	0	510	615
2	0	0	0	0	508	615
3	0	0	0	0	505	616
4	0	0	0	0	502	616
5	0	0	0	0	498	616
6	0	0	0	0	494	616
7	0	0	0	0	489	616
8	0	0	0	0	483	616
9	0	0	0	0	476	616
10	0	0	0	0	469	616
11	0	0	0	0	460	616
12	0	0	0	0	451	615
13	0	0	0	0	441	615
14	0	0	0	0	433	615
15	0	0	0	0	425	616
0	0	0	0	0	418	616
1	0	0	0	0	411	617
2	0	0	0	0	406	616
3	0	0	0	0	403	616
4	0	0	0	0	400	615
5	0	0	0	0	398	615
6	0	0	0	0	398	615
7	0	0	0	0	399	616
8	0	0	0	0	402	616
9	0	0	0	0	407	616
10	0	0	0	0	414	616
11	0	0	0	0	422	616
12	0	0	0	0	428	616
13	0	0	0	0	436	615
14	0	0	0	0	446	616
15	0	0	0	0	458	616
0	0	0	0	0	476	616
1	0	0	0	0	499	616
2	0	0	0	0	525	615
3	0	0	0	0	556	615
4	0	0	0	0	593	615
5	0	0	0	0	638	615
6	0	0	0	0	687	615
7	0	0	0	0	737	617
8	0	0	0	0	790	616
9	0	0	0	0	841	615
10	0	0	0	0	888	616
11	0	0	0	0	930	615
12	0	0	0	0	964	615
13	0	0	0	0	992	616
14	0	0	0	0	1011	615
15	0	0	0	0	1022	616
0	0	0	0	0	1022	616
1	0	0	0	0	1022	616
2	0	0	0	0	1022	616
3	0	0	0	0	1022	615
4	0	0	0	0	1022	615
5	0	0	0	0	1008	615
6	0	0	0	0	987	615
7	0	0	0	0	963	616
8	0	0	0	0	934	616
9	0	0	0	0	901	615
10	0	0	0	0	866	616
11	0	0	0	0	828	616
12	0	0	0	0	793	616
13	0	0	0	0	761	616
14	0	0	0	0	732	616
15	0	0	0	0	704	616
0	0	0	0	0	678	616
1	0	0	0	0	654	616
2	0	0	0	0	632	616
3	0	0	0	0	614	616
4	0	0	0	0	598	616
5	0	0	0	0	583	616
6	0	0	0	0	571	617
7	0	0	0	0	558	616
8	0	0	0	0	546	615
9	0	0	0	0	534	616
10	0	0	0	0	521	616
11	0	0	0	0	510	616
12	0	0	0	0	498	616
13	0	0	0	0	487	615
14	0	0	0	0	476	616
15	0	0	0	0	465	616
0	0	0	0	0	454	616
1	0	0	0	0	444	616
2	0	0	0	0	433	616
3	0	0	0	0	423	616
4	0	0	0	0	414	615
5	0	0	0	0	407	616
6	0	0	0	0	400	615
7	0	0	0	0	395	616
8	0	0	0	0	391	615
9	0	0	0	0	387	615
10	0	0	0	0	385	616
11	0	0	0	0	384	616
12	0	0	0	0	383	616
13	0	0	0	0	383	615
14	0	0	0	0	384	615
15	0	0	0	0	384	616
0	0	0	0	0	384	616
1	0	0	0	0	384	616
2	0	0	0	0	384	615
3	0	0	0	0	384	616
4	0	0	0	0	383	615
5	0	0	0	0	382	615
6	0	0	0	0	380	615
7	0	0	0	0	379	616
8	0	0	0	0	377	615
9	0	0	0	0	376	616
10	0	0	0	0	376	615
11	0	0	0	0	376	615
12	0	0	0	0	377	615
13	0	0	0	0	380	616
14	0	0	0	0	382	616
15	0	0	0	0	384	616
0	0	0	0	0	386	616
1	0	0	0	0	389	616
2	0	0	0	0	392	616
3	0	0	0	0	395	615
4	0	0	0	0	397	615
5	0	0	0	0	399	616
6	0	0	0	0	400	617
7	0	0	0	0	401	616
8	0	0	0	0	400	616
9	0	0	0	0	398	616
10	0	0	0	0	399	617
11	0	0	0	0	398	616
12	0	0	0	0	396	616
13	0	0	0	0	394	616
14	0	0	0	0	393	616
15	0	0	0	0	394	617
0	0	0	0	0	395	616
1	0	0	0	0	396	616
2	0	0	0	0	399	615
3	0	0	0	0	402	616
4	0	0	0	0	404	616
5	0	0	0	0	407	616
6	0	0	0	0	410	615
7	0	0	0	0	412	616
8	0	0	0	0	415	615
9	0	0	0	0	416	616
10	0	0	0	0	418	616
11	0	0	0	0	418	615
12	0	0	0	0	418	616
13	0	0	0	0	416	615
14	0	0	0	0	415	616
15	0	0	0	0	414	617
0	0	0	0	0	412	615
1	0	0	0	0	410	615
2	0	0	0	0	410	615
3	0	0	0	0	409	616
4	0	0	0	0	411	615
5	0	0	0	0	412	616
6	0	0	0	0	413	616
7	0	0	0	0	415	616
8	0	0	0	0	417	615
9	0	0	0	0	420	616
10	0	0	0	0	423	616
11	0	0	0	0	425	617
12	0	0	0	0	427	616
13	0	0	0	0	429	616
14	0	0	0	0	430	616
15	0	0	0	0	431	616
0	0	0	0	0	431	616
1	0	0	0	0	430	616
2	0	0	0	0	428	616
3	0	0	0	0	427	616
4	0	0	0	0	425	616
5	0	0	0	0	424	616
6	0	0	0	0	423	615
7	0	0	0	0	423	616
8	0	0	0	0	423	615
9	0	0	0	0	425	615
10	0	0	0	0	426	615
11	0	0	0	0	428	615
12	0	0	0	0	430	616
13	0	0	0	0	433	617
14	0	0	0	0	436	616
15	0	0	0	0	439	616
0	0	0	0	0	441	616
1	0	0	0	0	443	616
2	0	0	0	0	444	616
3	0	0	0	0	445	616
4	0	0	0	0	444	616
5	0	0	0	0	443	616
6	0	0	0	0	442	616
7	0	0	0	0	440	617
8	0	0	0	0	438	616
9	0	0	0	0	435	616
10	0	0	0	0	435	616
11	0	0	0	0	435	616
12	0	0	0	0	435	616
13	0	0	0	0	436	615
14	0	0	0	0	437	615
15	0	0	0	0	439	616
0	0	0	0	0	441	615
1	0	0	0	0	444	615
2	0	0	0	0	446	615
3	0	0	0	0	447	615
4	0	0	0	0	448	615
5	0	0	0	0	450	615
6	0	0	0	0	452	615
7	0	0	0	0	452	616
8	0	0	0	0	451	616
9	0	0	0	0	449	616
10	0	0	0	0	447	616
11	0	0	0	0	445	616
12	0	0	0	0	442	615
13	0	0	0	0	440	615
14	0	0	0	0	439	616
15	0	0	0	0	439	617
0	0	0	0	0	440	616
1	0	0	0	0	440	615
2	0	0	0	0	442	616
3	0	0	0	0	444	616
4	0	0	0	0	446	616
5	0	0	0	0	448	616
6	0	0	0	0	451	615
7	0	0	0	0	453	616
8	0	0	0	0	455	615
9	0	0	0	0	456	615
10	0	0	0	0	457	616
11	0	0	0	0	458	616
12	0	0	0	0	457	615
13	0	0	0	0	456	615
14	0	0	0	0	455	616
15	0	0	0	0	453	616
0	0	0	0	0	451	616
1	0	0	0	0	448	616
2	0	0	0	0	448	616
3	0	0	0	0	448	616
4	0	0	0	0	448	616
5	0	0	0	0	449	616
6	0	0	0	0	451	615
7	0	0	0	0	454	616
8	0	0	0	0	457	615
9	0	0	0	0	460	615
10	0	0	0	0	463	615
11	0	0	0	0	466	616
12	0	0	0	0	469	615
13	0	0	0	0	471	615
14	0	0	0	0	472	616
15	0	0	0	0	472	616
0	0	0	0	0	473	616
1	0	0	0	0	473	616
2	0	0	0	0	472	616
3	0	0	0	0	472	616
4	0	0	0	0	472	616
5	0	0	0	0	471	616
6	0	0	0	0	472	616
7	0	0	0	0	472	616
8	0	0	0	0	474	615
9	0	0	0	0	476	616
10	0	0	0	0	479	616
11	0	0	0	0	481	616
12	0	0	0	0	484	616
13	0	0	0	0	487	615
14	0	0	0	0	490	615
15	0	0	0	0	493	616
0	0	0	0	0	496	616
1	0	0	0	0	498	616
2	0	0	0	0	500	617
3	0	0	0	0	502	616
4	0	0	0	0	503	616
5	0	0	0	0	503	616
6	0	0	0	0	502	615
7	0	0	0	0	501	616
8	0	0	0	0	500	616
9	0	0	0	0	499	616
10	0	0	0	0	498	616
11	0	0	0	0	499	616
12	0	0	0	0	499	615
13	0	0	0	0	502	616
14	0	0	0	0	504	615
15	0	0	0	0	507	617
0	0	0	0	0	509	616
1	0	0	0	0	512	616
2	0	0	0	0	514	615
3	0	0	0	0	517	616
4	0	0	0	0	519	617
5	0	0	0	0	521	616
6	0	0	0	0	523	616
7	0	0	0	0	524	616
8	0	0	0	0	523	616
9	0	0	0	0	523	616
10	0	0	0	0	521	616
11	0	0	0	0	520	616
12	0	0	0	0	518	615
13	0	0	0	0	516	616
14	0	0	0	0	516	616
15	0	0	0	0	516	616
0	0	0	0	0	517	616
1	0	0	0	0	518	615
2	0	0	0	0	520	615
3	0	0	0	0	522	615
4	0	0	0	0	523	615
5	0	0	0	0	525	616
6	0	0	0	0	527	616
7	0	0	0	0	530	617
8	0	0	0	0	532	616
9	0	0	0	0	534	616
10	0	0	0	0	534	616
11	0	0	0	0	534	616
12	0	0	0	0	533	616
13	0	0	0	0	531	616
14	0	0	0	0	529	615
15	0	0	0	0	527	616
0	0	0	0	0	525	616
1	0	0	0	0	522	616
2	0	0	0	0	520	615
3	0	0	0	0	520	615
4	0	0	0	0	520	615
5	0	0	0	0	520	615
6	0	0	0	0	522	615
7	0	0	0	0	523	616
8	0	0	0	0	525	616
9	0	0	0	0	527	616
10	0	0	0	0	528	615
11	0	0	0	0	530	616
12	0	0	0	0	532	616
13	0	0	0	0	534	615
14	0	0	0	0	534	616
15	0	0	0	0	533	616
0	0	0	0	0	532	616
1	0	0	0	0	531	616
2	0	0	0	0	529	616
3	0	0	0	0	527	616
4	0	0	0	0	524	616
5	0	0	0	0	523	616
6	0	0	0	0	522	616
7	0	0	0	0	522	617
8	0	0	0	0	521	616
9	0	0	0	0	522	616
10	0	0	0	0	523	616
11	0	0	0	0	525	616
12	0	0	0	0	526	616
13	0	0	0	0	528	616
14	0	0	0	0	530	615
15	0	0	0	0	531	616
0	0	0	0	0	533	616
1	0	0	0	0	534	616
2	0	0	0	0	534	616
3	0	0	0	0	534	615
4	0	0	0	0	533	616
5	0	0	0	0	532	616
6	0	0	0	0	531	616
7	0	0	0	0	529	617
8	0	0	0	0	527	616
9	0	0	0	0	525	616
10	0	0	0	0	524	616
11	0	0	0	0	523	616
12	0	0	0	0	523	616
13	0	0	0	0	523	616
14	0	0	0	0	524	616
15	0	0	0	0	526	616
0	0	0	0	0	528	615
1	0	0	0	0	530	616
2	0	0	0	0	531	616
3	0	0	0	0	533	617
4	0	0	0	0	534	616
5	0	0	0	0	535	616
6	0	0	0	0	536	616
7	0	0	0	0	535	616
8	0	0	0	0	534	616
9	0	0	0	0	532	616
10	0	0	0	0	530	616
11	0	0	0	0	528	616
12	0	0	0	0	525	616
13	0	0	0	0	523	616
14	0	0	0	0	521	615
15	0	0	0	0	520	617
0	0	0	0	0	520	616
1	0	0	0	0	520	616
2	0	0	0	0	522	615
3	0	0	0	0	523	616
4	0	0	0	0	525	615
5	0	0	0	0	527	616
6	0	0	0	0	528	616
7	0	0	0	0	530	616
8	0	0	0	0	531	615
9	0	0	0	0	531	616
10	0	0	0	0	532	616
11	0	0	0	0	531	615
12	0	0	0	0	530	616
13	0	0	0	0	528	616
14	0	0	0	0	526	616
15	0	0	0	0	524	616
0	0	0	0	0	521	616
1	0	0	0	0	519	616
2	0	0	0	0	518	616
3	0	0	0	0	518	616
4	0	0	0	0	517	615
5	0	0	0	0	518	615
6	0	0	0	0	519	616
7	0	0	0	0	520	616
8	0	0	0	0	522	616
9	0	0	0	0	523	616
10	0	0	0	0	525	616
11	0	0	0	0	526	616
12	0	0	0	0	527	615
13	0	0	0	0	528	616
14	0	0	0	0	528	616
15	0	0	0	0	528	616
0	0	0	0	0	526	616
1	0	0	0	0	524	615
2	0	0	0	0	522	616
3	0	0	0	0	519	616
4	0	0	0	0	516	615
5	0	0	0	0	515	616
6	0	0	0	0	513	616
7	0	0	0	0	512	617
8	0	0	0	0	512	616
9	0	0	0	0	512	615
10	0	0	0	0	513	616
11	0	0	0	0	515	616
12	0	0	0	0	517	615
13	0	0	0	0	519	616
14	0	0	0	0	520	615
15	0	0	0	0	522	616
0	0	0	0	0	523	615
1	0	0	0	0	524	615
2	0	0	0	0	525	616
3	0	0	0	0	525	616
4	0	0	0	0	524	615
5	0	0	0	0	522	616
6	0	0	0	0	520	615
7	0	0	0	0	517	616
8	0	0	0	0	515	616
9	0	0	0	0	512	616
10	0	0	0	0	511	616
11	0	0	0	0	511	616
12	0	0	0	0	510	616
13	0	0	0	0	511	615
14	0	0	0	0	512	616
15	0	0	0	0	514	617
0	0	0	0	0	515	616
1	0	0	0	0	518	616
2	0	0	0	0	520	616
3	0	0	0	0	521	616
4	0	0	0	0	523	616
5	0	0	0	0	524	615
6	0	0	0	0	526	616
7	0	0	0	0	526	616
8	0	0	0	0	525	617
9	0	0	0	0	524	616
10	0	0	0	0	522	616
11	0	0	0	0	519	616
12	0	0	0	0	517	616
13	0	0	0	0	515	616
14	0	0	0	0	513	616
15	0	0	0	0	512	616
0	0	0	0	0	513	615
1	0	0	0	0	513	615
2	0	0	0	0	515	615
3	0	0	0	0	517	615
4	0	0	0	0	519	616
5	0	0	0	0	520	616
6	0	0	0	0	522	615
7	0	0	0	0	523	616
8	0	0	0	0	525	615
9	0	0	0	0	525	616
10	0	0	0	0	526	615
11	0	0	0	0	526	616
12	0	0	0	0	526	616
13	0	0	0	0	524	616
14	0	0	0	0	523	615
15	0	0	0	0	521	616
0	0	0	0	0	518	615
1	0	0	0	0	516	616
2	0	0	0	0	515	615
3	0	0	0	0	515	615
4	0	0	0	0	514	615
5	0	0	0	0	514	616
6	0	0	0	0	515	616
7	0	0	0	0	517	616
8	0	0	0	0	519	615
9	0	0	0	0	521	616
10	0	0	0	0	524	616
11	0	0	0	0	526	616
12	0	0	0	0	527	616
13	0	0	0	0	527	616
14	0	0	0	0	527	615
15	0	0	0	0	527	616
0	0	0	0	0	525	615
1	0	0	0	0	524	616
2	0	0	0	0	521	616
3	0	0	0	0	519	616
4	0	0	0	0	517	616
5	0	0	0	0	515	616
6	0	0	0	0	515	615
7	0	0	0	0	514	615
8	0	0	0	0	514	615
9	0	0	0	0	515	615
10	0	0	0	0	517	615
11	0	0	0	0	519	615
12	0	0	0	0	519	615
13	0	0	0	0	522	615
14	0	0	0	0	524	615
15	0	0	0	0	527	616
0	0	0	0	0	528	615
1	0	0	0	0	530	616
2	0	0	0	0	531	616
3	0	0	0	0	531	615
4	0	0	0	0	529	616
5	0	0	0	0	527	616
6	0	0	0	0	524	615
7	0	0	0	0	522	617
8	0	0	0	0	519	615
9	0	0	0	0	517	616
10	0	0	0	0	515	615
11	0	0	0	0	514	616
12	0	0	0	0	514	616
13	0	0	0	0	514	615
14	0	0	0	0	516	616
15	0	0	0	0	517	616
0	0	0	0	0	519	616
1	0	0	0	0	522	616
2	0	0	0	0	524	616
3	0	0	0	0	526	617
4	0	0	0	0	527	616
5	0	0	0	0	528	616
6	0	0	0	0	529	616
7	0	0	0	0	529	615
8	0	0	0	0	527	616
9	0	0	0	0	525	616
10	0	0	0	0	523	616
11	0	0	0	0	520	616
12	0	0	0	0	518	616
13	0	0	0	0	516	616
14	0	0	0	0	514	616
15	0	0	0	0	513	616
0	0	0	0	0	513	616
1	0	0	0	0	513	615
2	0	0	0	0	513	617
3	0	0	0	0	514	616
4	0	0	0	0	516	617
5	0	0	0	0	518	617
6	0	0	0	0	520	616
7	0	0	0	0	521	617
8	0	0	0	0	523	616
9	0	0	0	0	524	616
10	0	0	0	0	525	616
11	0	0	0	0	524	615
12	0	0	0	0	523	616
13	0	0	0	0	521	616
14	0	0	0	0	519	616
15	0	0	0	0	517	617
0	0	0	0	0	515	616
1	0	0	0	0	513	617
2	0	0	0	0	511	616
3	0	0	0	0	511	615
4	0	0	0	0	511	616
5	0	0	0	0	511	615
6	0	0	0	0	513	616
7	0	0	0	0	514	617
8	0	0	0	0	515	616
9	0	0	0	0	517	616
10	0	0	0	0	519	616
11	0	0	0	0	520	617
12	0	0	0	0	522	616
13	0	0	0	0	523	616
14	0	0	0	0	524	616
15	0	0	0	0	523	616
0	0	0	0	0	523	616
1	0	0	0	0	521	616
2	0	0	0	0	519	616
3	0	0	0	0	516	616
4	0	0	0	0	514	616
5	0	0	0	0	512	616
6	0	0	0	0	510	616
7	0	0	0	0	510	617
8	0	0	0	0	511	615
9	0	0	0	0	511	616
10	0	0	0	0	513	616
11	0	0	0	0	513	616
12	0	0	0	0	515	615
13	0	0	0	0	516	616
14	0	0	0	0	518	615
15	0	0	0	0	520	616
0	0	0	0	0	521	615
1	0	0	0	0	522	615
2	0	0	0	0	523	616
3	0	0	0	0	523	615
4	0	0	0	0	522	616
5	0	0	0	0	520	616
6	0	0	0	0	518	616
7	0	0	0	0	516	617
8	0	0	0	0	514	615
9	0	0	0	0	512	616
10	0	0	0	0	509	615
11	0	0	0	0	509	616
12	0	0	0	0	508	615
13	0	0	0	0	509	615
14	0	0	0	0	511	615
15	0	0	0	0	512	616
0	0	0	0	0	514	615
1	0	0	0	0	516	616
2	0	0	0	0	518	616
3	0	0	0	0	520	616
4	0	0	0	0	522	616
5	0	0	0	0	523	616
6	0	0	0	0	523	616
7	0	0	0	0	523	616
8	0	0	0	0	522	616
9	0	0	0	0	520	616
10	0	0	0	0	518	616
11	0	0	0	0	515	616
12	0	0	0	0	512	616
13	0	0	0	0	511	616
14	0	0	0	0	509	616
15	0	0	0	0	508	616
0	0	0	0	0	508	617
1	0	0	0	0	508	616
2	0	0	0	0	509	616
3	0	0	0	0	511	616
4	0	0	0	0	512	616
5	0	0	0	0	513	615
6	0	0	0	0	514	615
7	0	0	0	0	516	616
8	0	0	0	0	518	615
9	0	0	0	0	518	615
10	0	0	0	0	519	616
11	0	0	0	0	518	616
12	0	0	0	0	518	615
13	0	0	0	0	516	615
14	0	0	0	0	514	615
15	0	0	0	0	512	616
0	0	0	0	0	510	615
1	0	0	0	0	507	615
2	0	0	0	0	505	616
3	0	0	0	0	505	616
4	0	0	0	0	504	616
5	0	0	0	0	504	616
6	0	0	0	0	505	617
7	0	0	0	0	507	616
8	0	0	0	0	508	615
9	0	0	0	0	510	616
10	0	0	0	0	512	616
11	0	0	0	0	513	616
12	0	0	0	0	515	616
13	0	0	0	0	516	616
14	0	0	0	0	517	616
15	0	0	0	0	517	616
0	0	0	0	0	516	616
1	0	0	0	0	515	616
2	0	0	0	0	513	616
3	0	0	0	0	511	616
4	0	0	0	0	509	616
5	0	0	0	0	507	616
6	0	0	0	0	505	615
7	0	0	0	0	505	616
8	0	0	0	0	504	616
9	0	0	0	0	504	615
10	0	0	0	0	505	616
11	0	0	0	0	507	616
12	0	0	0	0	508	616
13	0	0	0	0	510	616
14	0	0	0	0	511	616
15	0	0	0	0	513	616
0	0	0	0	0	515	616
1	0	0	0	0	515	615
2	0	0	0	0	517	615
3	0	0	0	0	517	615
4	0	0	0	0	516	616
5	0	0	0	0	514	616
6	0	0	0	0	512	615
7	0	0	0	0	510	616
8	0	0	0	0	508	615
9	0	0	0	0	505	616
10	0	0	0	0	504	615
11	0	0	0	0	503	617
12	0	0	0	0	503	615
13	0	0	0	0	503	615
14	0	0	0	0	504	615
15	0	0	0	0	505	616
0	0	0	0	0	507	615
1	0	0	0	0	509	616
2	0	0	0	0	511	615
3	0	0	0	0	512	616
4	0	0	0	0	513	615
5	0	0	0	0	515	616
6	0	0	0	0	515	616
7	0	0	0	0	515	616
8	0	0	0	0	514	616
9	0	0	0	0	513	615
10	0	0	0	0	511	615
11	0	0	0	0	508	616
12	0	0	0	0	506	616
13	0	0	0	0	504	616
14	0	0	0	0	502	616
15	0	0	0	0	501	617
0	0	0	0	0	501	616
1	0	0	0	0	502	616
2	0	0	0	0	503	617
3	0	0	0	0	505	616
4	0	0	0	0	507	616
5	0	0	0	0	508	616
6	0	0	0	0	510	615
7	0	0	0	0	512	617
8	0	0	0	0	512	616
9	0	0	0	0	514	616
10	0	0	0	0	515	616
11	0	0	0	0	515	616
12	0	0	0	0	514	616
13	0	0	0	0	512	616
14	0	0	0	0	511	616
15	0	0	0	0	508	617
0	0	0	0	0	506	616
1	0	0	0	0	504	616
2	0	0	0	0	502	616
3	0	0	0	0	501	617
4	0	0	0	0	501	616
5	0	0	0	0	502	616
6	0	0	0	0	502	616
7	0	0	0	0	504	616
8	0	0	0	0	506	617
9	0	0	0	0	508	616
10	0	0	0	0	510	616
11	0	0	0	0	512	617
12	0	0	0	0	513	615
13	0	0	0	0	515	616
14	0	0	0	0	515	616
15	0	0	0	0	515	616
0	0	0	0	0	514	616
1	0	0	0	0	512	616
2	0	0	0	0	510	616
3	0	0	0	0	508	616
4	0	0	0	0	506	615
5	0	0	0	0	504	616
6	0	0	0	0	503	616
7	0	0	0	0	502	616
8	0	0	0	0	502	616
9	0	0	0	0	502	615
10	0	0	0	0	504	616
11	0	0	0	0	505	616
12	0	0	0	0	506	616
13	0	0	0	0	508	616
14	0	0	0	0	510	615
15	0	0	0	0	511	616
0	0	0	0	0	512	616
1	0	0	0	0	513	616
2	0	0	0	0	513	616
3	0	0	0	0	514	616
4	0	0	0	0	513	616
5	0	0	0	0	512	616
6	0	0	0	0	510	616
7	0	0	0	0	508	616
8	0	0	0	0	505	616
9	0	0	0	0	504	616
10	0	0	0	0	502	615
11	0	0	0	0	502	617
12	0	0	0	0	502	615
13	0	0	0	0	502	615
14	0	0	0	0	503	616
15	0	0	0	0	505	616
0	0	0	0	0	507	616
1	0	0	0	0	509	616
2	0	0	0	0	511	616
3	0	0	0	0	513	616
4	0	0	0	0	515	616
5	0	0	0	0	515	615
6	0	0	0	0	516	616
7	0	0	0	0	516	616
8	0	0	0	0	514	616
9	0	0	0	0	513	615
10	0	0	0	0	511	616
11	0	0	0	0	509	616
12	0	0	0	0	507	616
13	0	0	0	0	504	616
14	0	0	0	0	503	615
15	0	0	0	0	502	617
0	0	0	0	0	502	616
1	0	0	0	0	503	615
2	0	0	0	0	504	615
3	0	0	0	0	505	616
4	0	0	0	0	507	616
5	0	0	0	0	510	616
6	0	0	0	0	511	615
7	0	0	0	0	513	616
8	0	0	0	0	515	615
9	0	0	0	0	515	616
10	0	0	0	0	516	616
11	0	0	0	0	516	616
12	0	0	0	0	514	616
13	0	0	0	0	512	616
14	0	0	0	0	511	615
15	0	0	0	0	509	616
0	0	0	0	0	507	616
1	0	0	0	0	504	616
2	0	0	0	0	503	616
3	0	0	0	0	502	616
4	0	0	0	0	502	616
5	0	0	0	0	503	617
6	0	0	0	0	504	616
7	0	0	0	0	505	617
8	0	0	0	0	507	615
9	0	0	0	0	510	615
10	0	0	0	0	512	616
11	0	0	0	0	513	616
12	0	0	0	0	514	616
13	0	0	0	0	515	616
14	0	0	0	0	516	616
15	0	0	0	0	515	616
0	0	0	0	0	514	615
1	0	0	0	0	512	616
2	0	0	0	0	511	616
3	0	0	0	0	507	616
4	0	0	0	0	504	616
5	0	0	0	0	502	616
6	0	0	0	0	500	615
7	0	0	0	0	499	616
8	0	0	0	0	499	615
9	0	0	0	0	500	615
10	0	0	0	0	501	615
11	0	0	0	0	502	616
12	0	0	0	0	504	616
13	0	0	0	0	506	616
14	0	0	0	0	508	616
15	0	0	0	0	509	616
0	0	0	0	0	510	615
1	0	0	0	0	511	615
2	0	0	0	0	511	616
3	0	0	0	0	511	616
4	0	0	0	0	510	616
5	0	0	0	0	508	616
6	0	0	0	0	506	616
7	0	0	0	0	503	617
8	0	0	0	0	501	616
9	0	0	0	0	499	616
10	0	0	0	0	496	615
11	0	0	0	0	495	615
12	0	0	0	0	495	616
13	0	0	0	0	495	615
14	0	0	0	0	496	615
15	0	0	0	0	497	615
0	0	0	0	0	499	615
1	0	0	0	0	502	615
2	0	0	0	0	504	616
3	0	0	0	0	506	616
4	0	0	0	0	509	616
5	0	0	0	0	511	616
6	0	0	0	0	512	616
7	0	0	0	0	512	616
8	0	0	0	0	512	615
9	0	0	0	0	512	616
10	0	0	0	0	510	616
11	0	0	0	0	509	616
12	0	0	0	0	507	616
13	0	0	0	0	506	616
14	0	0	0	0	505	616
15	0	0	0	0	505	617
0	0	0	0	0	505	616
1	0	0	0	0	505	616
2	0	0	0	0	507	616
3	0	0	0	0	509	616
4	0	0	0	0	510	616
5	0	0	0	0	512	616
6	0	0	0	0	513	616
7	0	0	0	0	515	617
8	0	0	0	0	516	616
9	0	0	0	0	517	616
10	0	0	0	0	518	616
11	0	0	0	0	519	616
12	0	0	0	0	518	616
13	0	0	0	0	516	616
14	0	0	0	0	514	616
15	0	0	0	0	512	617
0	0	0	0	0	509	616
1	0	0	0	0	507	616
2	0	0	0	0	505	616
3	0	0	0	0	505	616
4	0	0	0	0	504	616
5	0	0	0	0	505	615
6	0	0	0	0	506	616
7	0	0	0	0	507	616
8	0	0	0	0	509	616
9	0	0	0	0	511	616
10	0	0	0	0	512	615
11	0	0	0	0	514	616
12	0	0	0	0	515	615
13	0	0	0	0	516	616
14	0	0	0	0	518	616
15	0	0	0	0	518	616
0	0	0	0	0	517	616
1	0	0	0	0	515	615
2	0	0	0	0	513	615
3	0	0	0	0	511	616
4	0	0	0	0	508	616
5	0	0	0	0	506	616
6	0	0	0	0	504	615
7	0	0	0	0	504	616
8	0	0	0	0	504	616
9	0	0	0	0	504	616
10	0	0	0	0	504	615
11	0	0	0	0	505	615
12	0	0	0	0	508	616
13	0	0	0	0	509	615
14	0	0	0	0	511	615
15	0	0	0	0	512	616
0	0	0	0	0	515	615
1	0	0	0	0	515	615
2	0	0	0	0	515	616
3	0	0	0	0	515	616
4	0	0	0	0	515	616
5	0	0	0	0	513	616
6	0	0	0	0	511	616
7	0	0	0	0	509	616
8	0	0	0	0	506	616
9	0	0	0	0	504	616
10	0	0	0	0	502	615
11	0	0	0	0	501	616
12	0	0	0	0	500	616
13	0	0	0	0	500	616
14	0	0	0	0	502	616
15	0	0	0	0	504	617
0	0	0	0	0	505	616
1	0	0	0	0	507	616
2	0	0	0	0	509	615
3	0	0	0	0	511	616
4	0	0	0	0	512	615
5	0	0	0	0	513	615
6	0	0	0	0	514	615
7	0	0	0	0	514	616
8	0	0	0	0	513	616
9	0	0	0	0	511	615
10	0	0	0	0	510	615
11	0	0	0	0	508	616
12	0	0	0	0	505	615
13	0	0	0	0	503	616
14	0	0	0	0	502	616
15	0	0	0	0	501	616
0	0	0	0	0	500	615
1	0	0	0	0	500	615
2	0	0	0	0	500	615
3	0	0	0	0	500	615
4	0	0	0	0	500	615
5	0	0	0	0	499	616
6	0	0	0	0	496	616
7	0	0	0	0	492	617
8	0	0	0	0	486	616
9	0	0	0	0	478	616
10	0	0	0	0	468	616
11	0	0	0	0	458	616
12	0	0	0	0	445	616
13	0	0	0	0	433	616
14	0	0	0	0	422	616
15	0	0	0	0	412	616
0	0	0	0	0	402	615
1	0	0	0	0	395	616
2	0	0	0	0	390	616
3	0	0	0	0	388	617
4	0	0	0	0	388	616
5	0	0	0	0	390	616
6	0	0	0	0	395	616
7	0	0	0	0	402	617
8	0	0	0	0	411	616
9	0	0	0	0	422	616
10	0	0	0	0	432	616
11	0	0	0	0	440	616
12	0	0	0	0	449	616
13	0	0	0	0	458	616
14	0	0	0	0	470	616
15	0	0	0	0	486	616
0	0	0	0	0	506	616
1	0	0	0	0	530	616
2	0	0	0	0	558	616
3	0	0	0	0	594	616
4	0	0	0	0	637	616
5	0	0	0	0	683	616
6	0	0	0	0	732	616
7	0	0	0	0	784	616
8	0	0	0	0	835	615
9	0	0	0	0	883	615
10	0	0	0	0	926	616
11	0	0	0	0	961	615
12	0	0	0	0	990	616
13	0	0	0	0	1011	615
14	0	0	0	0	1022	615
15	0	0	0	0	1022	616
0	0	0	0	0	1022	615
1	0	0	0	0	1022	615
2	0	0	0	0	1022	616
3	0	0	0	0	1021	616
4	0	0	0	0	1002	616
5	0	0	0	0	978	615
6	0	0	0	0	950	615
7	0	0	0	0	918	617
8	0	0	0	0	882	616
9	0	0	0	0	845	616
10	0	0	0	0	806	616
11	0	0	0	0	772	616
12	0	0	0	0	742	616
13	0	0	0	0	716	616
14	0	0	0	0	692	616
15	0	0	0	0	671	616
0	0	0	0	0	652	616
1	0	0	0	0	635	616
2	0	0	0	0	620	616
3	0	0	0	0	607	617
4	0	0	0	0	595	616
5	0	0	0	0	583	615
6	0	0	0	0	571	616
7	0	0	0	0	556	616
8	0	0	0	0	541	616
9	0	0	0	0	527	616
10	0	0	0	0	511	616
11	0	0	0	0	496	616
12	0	0	0	0	480	616
13	0	0	0	0	467	617
14	0	0	0	0	455	616
15	0	0	0	0	445	616
0	0	0	0	0	435	616
1	0	0	0	0	427	616
2	0	0	0	0	420	615
3	0	0	0	0	415	615
4	0	0	0	0	410	615
5	0	0	0	0	407	616
6	0	0	0	0	404	615
7	0	0	0	0	402	616
8	0	0	0	0	401	615
9	0	0	0	0	399	615
10	0	0	0	0	398	615
11	0	0	0	0	396	615
12	0	0	0	0	392	616
13	0	0	0	0	389	616
14	0	0	0	0	386	616
15	0	0	0	0	382	617
0	0	0	0	0	379	616
1	0	0	0	0	377	617
2	0	0	0	0	375	616
3	0	0	0	0	374	616
4	0	0	0	0	374	616
5	0	0	0	0	374	615
6	0	0	0	0	376	615
7	0	0	0	0	378	615
8	0	0	0	0	380	615
9	0	0	0	0	382	616
10	0	0	0	0	386	615
11	0	0	0	0	389	615
12	0	0	0	0	392	615
13	0	0	0	0	394	616
14	0	0	0	0	395	616
15	0	0	0	0	396	616
0	0	0	0	0	395	616
1	0	0	0	0	395	615
2	0	0	0	0	393	615
3	0	0	0	0	391	616
4	0	0	0	0	391	615
5	0	0	0	0	390	615
6	0	0	0	0	389	615
7	0	0	0	0	390	616
8	0	0	0	0	390	616
9	0	0	0	0	392	615
10	0	0	0	0	395	615
11	0	0	0	0	398	615
12	0	0	0	0	401	616
13	0	0	0	0	404	616
14	0	0	0	0	407	615
15	0	0	0	0	409	616
0	0	0	0	0	411	616
1	0	0	0	0	413	615
2	0	0	0	0	415	616
3	0	0	0	0	415	615
4	0	0	0	0	414	615
5	0	0	0	0	413	615
6	0	0	0	0	412	615
7	0	0	0	0	411	616
8	0	0	0	0	409	615
9	0	0	0	0	408	616
10	0	0	0	0	407	615
11	0	0	0	0	407	616
12	0	0	0	0	408	616
13	0	0	0	0	409	616
14	0	0	0	0	411	616
15	0	0	0	0	414	616
0	0	0	0	0	416	616
1	0	0	0	0	419	616
2	0	0	0	0	422	616
3	0	0	0	0	425	616
4	0	0	0	0	427	616
5	0	0	0	0	429	615
6	0	0	0	0	430	616
7	0	0	0	0	431	615
8	0	0	0	0	430	617
9	0	0	0	0	430	615
10	0	0	0	0	429	615
11	0	0	0	0	427	617
12	0	0	0	0	425	616
13	0	0	0	0	424	616
14	0	0	0	0	423	616
15	0	0	0	0	424	616
0	0	0	0	0	424	616
1	0	0	0	0	425	616
2	0	0	0	0	428	616
3	0	0	0	0	431	616
4	0	0	0	0	433	615
5	0	0	0	0	435	616
6	0	0	0	0	439	615
7	0	0	0	0	441	616
8	0	0	0	0	443	616
9	0	0	0	0	445	616
10	0	0	0	0	446	616
11	0	0	0	0	446	616
12	0	0	0	0	445	616
13	0	0	0	0	443	616
14	0	0	0	0	441	616
15	0	0	0	0	439	617
0	0	0	0	0	438	615
1	0	0	0	0	436	616
2	0	0	0	0	435	616
3	0	0	0	0	434	616
4	0	0	0	0	435	616
5	0	0	0	0	436	615
6	0	0	0	0	438	615
7	0	0	0	0	440	616
8	0	0	0	0	441	615
9	0	0	0	0	444	615
10	0	0	0	0	447	615
11	0	0	0	0	449	615
12	0	0	0	0	451	616
13	0	0	0	0	452	616
14	0	0	0	0	452	616
15	0	0	0	0	453	617
0	0	0	0	0	452	616
1	0	0	0	0	451	616
2	0	0	0	0	448	616
3	0	0	0	0	446	616
4	0	0	0	0	444	616
5	0	0	0	0	443	616
6	0	0	0	0	441	616
7	0	0	0	0	441	616
8	0	0	0	0	441	616
9	0	0	0	0	442	616
10	0	0	0	0	444	615
11	0	0	0	0	446	616
12	0	0	0	0	448	616
13	0	0	0	0	451	616
14	0	0	0	0	454	615
15	0	0	0	0	455	617
0	0	0	0	0	458	616
1	0	0	0	0	459	616
2	0	0	0	0	460	617
3	0	0	0	0	460	616
4	0	0	0	0	459	616
5	0	0	0	0	459	616
6	0	0	0	0	457	616
7	0	0	0	0	455	616
8	0	0	0	0	452	615
9	0	0	0	0	451	616
10	0	0	0	0	450	616
11	0	0	0	0	450	616
12	0	0	0	0	450	616
13	0	0	0	0	452	615
14	0	0	0	0	453	616
15	0	0	0	0	455	617
0	0	0	0	0	457	616
1	0	0	0	0	460	616
2	0	0	0	0	463	615
3	0	0	0	0	465	616
4	0	0	0	0	467	616
5	0	0	0	0	469	615
6	0	0	0	0	471	616
7	0	0	0	0	471	616
8	0	0	0	0	471	616
9	0	0	0	0	470	616
10	0	0	0	0	469	615
11	0	0	0	0	467	616
12	0	0	0	0	465	616
13	0	0	0	0	464	616
14	0	0	0	0	464	615
15	0	0	0	0	465	617
0	0	0	0	0	466	616
1	0	0	0	0	467	616
2	0	0	0	0	470	616
3	0	0	0	0	473	616
4	0	0	0	0	477	616
5	0	0	0	0	480	616
6	0	0	0	0	483	615
7	0	0	0	0	487	616
8	0	0	0	0	490	616
9	0	0	0	0	492	616
10	0	0	0	0	494	616
11	0	0	0	0	495	616
12	0	0	0	0	496	616
13	0	0	0	0	495	615
14	0	0	0	0	494	615
15	0	0	0	0	493	616
0	0	0	0	0	491	615
1	0	0	0	0	491	616
2	0	0	0	0	491	615
3	0	0	0	0	491	615
4	0	0	0	0	492	615
5	0	0	0	0	494	615
6	0	0	0	0	496	616
7	0	0	0	0	499	616
8	0	0	0	0	502	615
9	0	0	0	0	505	615
10	0	0	0	0	508	615
11	0	0	0	0	510	617
12	0	0	0	0	512	616
13	0	0	0	0	514	615
14	0	0	0	0	516	616
15	0	0	0	0	516	616
0	0	0	0	0	517	615
1	0	0	0	0	516	616
2	0	0	0	0	515	616
3	0	0	0	0	513	616
4	0	0	0	0	512	615
5	0	0	0	0	510	615
6	0	0	0	0	509	616
7	0	0	0	0	510	616
8	0	0	0	0	511	616
9	0	0	0	0	512	616
10	0	0	0	0	514	616
11	0	0	0	0	517	616
12	0	0	0	0	519	616
13	0	0	0	0	523	616
14	0	0	0	0	526	616
15	0	0	0	0	527	617
0	0	0	0	0	529	616
1	0	0	0	0	531	615
2	0	0	0	0	532	616
3	0	0	0	0	531	616
4	0	0	0	0	531	617
5	0	0	0	0	529	616
