# OpenSignals Text File Format. Version 1
# {"98:D3:91:FD:59:64": {"position": 0, "device": "bitalino_rev", "device name": "98:D3:91:FD:59:64", "device connection": "BTH98:D3:91:FD:59:64", "sampling rate": 1000, "resolution": [4, 1, 1, 1, 1, 10, 10], "firmware version": 1281, "comments": "", "keywords": "", "mode": 0, "sync interval": 2, "date": "2021-9-12", "time": "15:15:17.575", "channels": [2, 5], "sensor": ["RAW", "RAW"], "label": ["A2", "A5"], "column": ["nSeq", "I1", "I2", "O1", "O2", "A2", "A5"], "special": [{}, {}], "digital IO": [0, 0, 1, 1], "convertedValues": 0}}
# EndOfHeader
0	0	0	0	0	399	622	
1	0	0	0	0	399	622	
2	0	0	0	0	399	622	
3	0	0	0	0	400	617	
4	0	0	0	0	401	621	
5	0	0	0	0	402	621	
6	0	0	0	0	403	621	
7	0	0	0	0	403	625	
8	0	0	0	0	403	621	
9	0	0	0	0	402	621	
10	0	0	0	0	401	621	
11	0	0	0	0	402	617	
12	0	0	0	0	401	621	
13	0	0	0	0	400	621	
14	0	0	0	0	398	621	
15	0	0	0	0	397	625	
0	0	0	0	0	397	621	
1	0	0	0	0	396	621	
2	0	0	0	0	394	620	
3	0	0	0	0	392	617	
4	0	0	0	0	391	620	
5	0	0	0	0	390	620	
6	0	0	0	0	388	620	
7	0	0	0	0	387	624	
8	0	0	0	0	386	620	
9	0	0	0	0	386	619	
10	0	0	0	0	388	619	
11	0	0	0	0	389	615	
12	0	0	0	0	390	619	
13	0	0	0	0	390	619	
14	0	0	0	0	391	618	
15	0	0	0	0	391	621	
0	0	0	0	0	391	618	
1	0	0	0	0	391	618	
2	0	0	0	0	391	617	
3	0	0	0	0	391	613	
4	0	0	0	0	391	617	
5	0	0	0	0	391	617	
6	0	0	0	0	392	617	
7	0	0	0	0	391	621	
8	0	0	0	0	391	617	
9	0	0	0	0	391	616	
10	0	0	0	0	391	617	
11	0	0	0	0	390	612	
12	0	0	0	0	389	617	
13	0	0	0	0	388	616	
14	0	0	0	0	387	617	
15	0	0	0	0	386	620	
0	0	0	0	0	385	616	
1	0	0	0	0	385	616	
2	0	0	0	0	384	617	
3	0	0	0	0	383	613	
4	0	0	0	0	383	617	
5	0	0	0	0	381	616	
6	0	0	0	0	380	616	
7	0	0	0	0	379	620	
8	0	0	0	0	378	616	
9	0	0	0	0	377	617	
10	0	0	0	0	377	616	
11	0	0	0	0	376	611	
12	0	0	0	0	376	616	
13	0	0	0	0	375	616	
14	0	0	0	0	374	617	
15	0	0	0	0	372	621	
0	0	0	0	0	371	617	
1	0	0	0	0	371	616	
2	0	0	0	0	370	616	
3	0	0	0	0	370	613	
4	0	0	0	0	370	617	
5	0	0	0	0	371	617	
6	0	0	0	0	370	617	
7	0	0	0	0	370	621	
8	0	0	0	0	370	617	
9	0	0	0	0	369	618	
10	0	0	0	0	369	618	
11	0	0	0	0	368	615	
12	0	0	0	0	368	618	
13	0	0	0	0	367	619	
14	0	0	0	0	366	618	
15	0	0	0	0	366	622	
0	0	0	0	0	365	618	
1	0	0	0	0	364	619	
2	0	0	0	0	363	619	
3	0	0	0	0	364	616	
4	0	0	0	0	366	619	
5	0	0	0	0	366	619	
6	0	0	0	0	366	620	
7	0	0	0	0	367	623	
8	0	0	0	0	367	620	
9	0	0	0	0	367	619	
10	0	0	0	0	367	620	
11	0	0	0	0	368	615	
12	0	0	0	0	368	619	
13	0	0	0	0	367	619	
14	0	0	0	0	365	620	
15	0	0	0	0	365	623	
0	0	0	0	0	364	619	
1	0	0	0	0	364	620	
2	0	0	0	0	364	620	
3	0	0	0	0	365	615	
4	0	0	0	0	366	620	
5	0	0	0	0	367	620	
6	0	0	0	0	368	619	
7	0	0	0	0	368	623	
8	0	0	0	0	370	620	
9	0	0	0	0	371	619	
10	0	0	0	0	371	619	
11	0	0	0	0	369	615	
12	0	0	0	0	370	619	
13	0	0	0	0	369	619	
14	0	0	0	0	369	620	
15	0	0	0	0	370	623	
0	0	0	0	0	370	619	
1	0	0	0	0	371	620	
2	0	0	0	0	372	620	
3	0	0	0	0	373	616	
4	0	0	0	0	374	620	
5	0	0	0	0	375	620	
6	0	0	0	0	376	620	
7	0	0	0	0	377	623	
8	0	0	0	0	379	619	
9	0	0	0	0	380	619	
10	0	0	0	0	380	619	
11	0	0	0	0	381	615	
12	0	0	0	0	384	619	
13	0	0	0	0	384	619	
14	0	0	0	0	384	619	
15	0	0	0	0	384	622	
0	0	0	0	0	385	620	
1	0	0	0	0	386	620	
2	0	0	0	0	387	619	
3	0	0	0	0	389	615	
4	0	0	0	0	391	619	
5	0	0	0	0	393	619	
6	0	0	0	0	395	620	
7	0	0	0	0	396	624	
8	0	0	0	0	398	620	
9	0	0	0	0	399	620	
10	0	0	0	0	400	619	
11	0	0	0	0	401	616	
12	0	0	0	0	402	620	
13	0	0	0	0	404	620	
14	0	0	0	0	406	620	
15	0	0	0	0	407	623	
0	0	0	0	0	409	619	
1	0	0	0	0	411	619	
2	0	0	0	0	411	620	
3	0	0	0	0	412	615	
4	0	0	0	0	414	620	
5	0	0	0	0	415	619	
6	0	0	0	0	416	620	
7	0	0	0	0	416	623	
8	0	0	0	0	417	619	
9	0	0	0	0	417	619	
10	0	0	0	0	418	619	
11	0	0	0	0	420	615	
12	0	0	0	0	423	619	
13	0	0	0	0	424	619	
14	0	0	0	0	427	619	
15	0	0	0	0	428	623	
0	0	0	0	0	429	620	
1	0	0	0	0	430	619	
2	0	0	0	0	431	620	
3	0	0	0	0	432	615	
4	0	0	0	0	432	620	
5	0	0	0	0	433	620	
6	0	0	0	0	433	620	
7	0	0	0	0	435	624	
8	0	0	0	0	436	620	
9	0	0	0	0	437	620	
10	0	0	0	0	439	620	
11	0	0	0	0	439	616	
12	0	0	0	0	440	620	
13	0	0	0	0	441	620	
14	0	0	0	0	443	621	
15	0	0	0	0	443	624	
0	0	0	0	0	445	620	
1	0	0	0	0	445	619	
2	0	0	0	0	445	620	
3	0	0	0	0	446	616	
4	0	0	0	0	446	620	
5	0	0	0	0	446	620	
6	0	0	0	0	447	620	
7	0	0	0	0	446	624	
8	0	0	0	0	446	620	
9	0	0	0	0	445	619	
10	0	0	0	0	445	618	
11	0	0	0	0	444	613	
12	0	0	0	0	442	617	
13	0	0	0	0	441	617	
14	0	0	0	0	440	617	
15	0	0	0	0	442	621	
0	0	0	0	0	444	617	
1	0	0	0	0	444	617	
2	0	0	0	0	444	617	
3	0	0	0	0	443	614	
4	0	0	0	0	442	618	
5	0	0	0	0	441	619	
6	0	0	0	0	441	619	
7	0	0	0	0	441	623	
8	0	0	0	0	441	620	
9	0	0	0	0	440	620	
10	0	0	0	0	439	620	
11	0	0	0	0	438	617	
12	0	0	0	0	437	622	
13	0	0	0	0	436	622	
14	0	0	0	0	436	623	
15	0	0	0	0	436	626	
0	0	0	0	0	436	622	
1	0	0	0	0	436	623	
2	0	0	0	0	435	623	
3	0	0	0	0	435	618	
4	0	0	0	0	435	622	
5	0	0	0	0	435	622	
6	0	0	0	0	434	622	
7	0	0	0	0	432	625	
8	0	0	0	0	432	622	
9	0	0	0	0	432	622	
10	0	0	0	0	431	622	
11	0	0	0	0	428	617	
12	0	0	0	0	426	622	
13	0	0	0	0	424	622	
14	0	0	0	0	423	622	
15	0	0	0	0	421	625	
0	0	0	0	0	421	622	
1	0	0	0	0	420	622	
2	0	0	0	0	419	621	
3	0	0	0	0	419	618	
4	0	0	0	0	419	622	
5	0	0	0	0	420	622	
6	0	0	0	0	420	623	
7	0	0	0	0	419	627	
8	0	0	0	0	420	624	
9	0	0	0	0	419	625	
10	0	0	0	0	419	624	
11	0	0	0	0	418	621	
12	0	0	0	0	418	625	
13	0	0	0	0	417	625	
14	0	0	0	0	416	625	
15	0	0	0	0	416	628	
0	0	0	0	0	415	625	
1	0	0	0	0	416	626	
2	0	0	0	0	416	626	
3	0	0	0	0	416	622	
4	0	0	0	0	415	626	
5	0	0	0	0	413	626	
6	0	0	0	0	412	625	
7	0	0	0	0	411	629	
8	0	0	0	0	410	625	
9	0	0	0	0	409	625	
10	0	0	0	0	408	625	
11	0	0	0	0	408	620	
12	0	0	0	0	407	624	
13	0	0	0	0	405	624	
14	0	0	0	0	403	624	
15	0	0	0	0	402	627	
0	0	0	0	0	402	623	
1	0	0	0	0	401	623	
2	0	0	0	0	400	622	
3	0	0	0	0	401	618	
4	0	0	0	0	400	621	
5	0	0	0	0	400	621	
6	0	0	0	0	401	621	
7	0	0	0	0	401	624	
8	0	0	0	0	401	620	
9	0	0	0	0	402	620	
10	0	0	0	0	403	620	
11	0	0	0	0	402	615	
12	0	0	0	0	401	620	
13	0	0	0	0	400	619	
14	0	0	0	0	398	619	
15	0	0	0	0	397	623	
0	0	0	0	0	396	618	
1	0	0	0	0	396	618	
2	0	0	0	0	395	619	
3	0	0	0	0	395	614	
4	0	0	0	0	395	618	
5	0	0	0	0	395	618	
6	0	0	0	0	396	618	
7	0	0	0	0	396	622	
8	0	0	0	0	396	617	
9	0	0	0	0	395	617	
10	0	0	0	0	395	617	
11	0	0	0	0	395	614	
12	0	0	0	0	394	617	
13	0	0	0	0	395	616	
14	0	0	0	0	394	617	
15	0	0	0	0	393	621	
0	0	0	0	0	392	617	
1	0	0	0	0	391	617	
2	0	0	0	0	391	617	
3	0	0	0	0	390	614	
4	0	0	0	0	390	617	
5	0	0	0	0	390	617	
6	0	0	0	0	390	617	
7	0	0	0	0	391	621	
8	0	0	0	0	393	617	
9	0	0	0	0	393	617	
10	0	0	0	0	393	617	
11	0	0	0	0	393	613	
12	0	0	0	0	393	618	
13	0	0	0	0	394	617	
14	0	0	0	0	395	617	
15	0	0	0	0	395	620	
0	0	0	0	0	395	615	
1	0	0	0	0	395	615	
2	0	0	0	0	394	615	
3	0	0	0	0	394	610	
4	0	0	0	0	395	614	
5	0	0	0	0	395	615	
6	0	0	0	0	395	615	
7	0	0	0	0	393	619	
8	0	0	0	0	392	615	
9	0	0	0	0	391	615	
10	0	0	0	0	391	616	
11	0	0	0	0	390	612	
12	0	0	0	0	390	615	
13	0	0	0	0	390	616	
14	0	0	0	0	390	617	
15	0	0	0	0	390	621	
0	0	0	0	0	390	617	
1	0	0	0	0	391	617	
2	0	0	0	0	391	617	
3	0	0	0	0	391	614	
4	0	0	0	0	391	619	
5	0	0	0	0	392	619	
6	0	0	0	0	393	619	
7	0	0	0	0	393	623	
8	0	0	0	0	394	620	
9	0	0	0	0	394	619	
10	0	0	0	0	393	619	
11	0	0	0	0	393	615	
12	0	0	0	0	394	620	
13	0	0	0	0	395	621	
14	0	0	0	0	396	621	
15	0	0	0	0	395	625	
0	0	0	0	0	395	622	
1	0	0	0	0	393	622	
2	0	0	0	0	392	622	
3	0	0	0	0	392	618	
4	0	0	0	0	393	623	
5	0	0	0	0	393	623	
6	0	0	0	0	394	623	
7	0	0	0	0	395	627	
8	0	0	0	0	397	624	
9	0	0	0	0	398	624	
10	0	0	0	0	398	624	
11	0	0	0	0	398	621	
12	0	0	0	0	398	625	
13	0	0	0	0	398	626	
14	0	0	0	0	397	627	
15	0	0	0	0	396	630	
0	0	0	0	0	396	627	
1	0	0	0	0	396	627	
2	0	0	0	0	397	627	
3	0	0	0	0	397	624	
4	0	0	0	0	396	628	
5	0	0	0	0	396	628	
6	0	0	0	0	396	628	
7	0	0	0	0	396	632	
8	0	0	0	0	397	628	
9	0	0	0	0	397	628	
10	0	0	0	0	398	628	
11	0	0	0	0	398	624	
12	0	0	0	0	399	628	
13	0	0	0	0	399	627	
14	0	0	0	0	400	627	
15	0	0	0	0	400	631	
0	0	0	0	0	400	627	
1	0	0	0	0	400	626	
2	0	0	0	0	401	626	
3	0	0	0	0	401	622	
4	0	0	0	0	403	626	
5	0	0	0	0	405	626	
6	0	0	0	0	406	626	
7	0	0	0	0	408	630	
8	0	0	0	0	409	625	
9	0	0	0	0	410	625	
10	0	0	0	0	411	625	
11	0	0	0	0	412	621	
12	0	0	0	0	413	625	
13	0	0	0	0	414	625	
14	0	0	0	0	416	625	
15	0	0	0	0	417	628	
0	0	0	0	0	418	625	
1	0	0	0	0	419	626	
2	0	0	0	0	420	625	
3	0	0	0	0	421	622	
4	0	0	0	0	422	625	
5	0	0	0	0	422	625	
6	0	0	0	0	423	625	
7	0	0	0	0	423	629	
8	0	0	0	0	423	624	
9	0	0	0	0	425	624	
10	0	0	0	0	427	624	
11	0	0	0	0	428	619	
12	0	0	0	0	428	624	
13	0	0	0	0	429	623	
14	0	0	0	0	430	623	
15	0	0	0	0	431	626	
0	0	0	0	0	432	622	
1	0	0	0	0	434	623	
2	0	0	0	0	435	622	
3	0	0	0	0	436	618	
4	0	0	0	0	436	621	
5	0	0	0	0	437	621	
6	0	0	0	0	438	622	
7	0	0	0	0	439	625	
8	0	0	0	0	439	621	
9	0	0	0	0	440	621	
10	0	0	0	0	441	621	
11	0	0	0	0	442	616	
12	0	0	0	0	443	621	
13	0	0	0	0	443	621	
14	0	0	0	0	446	622	
15	0	0	0	0	447	624	
0	0	0	0	0	448	621	
1	0	0	0	0	448	620	
2	0	0	0	0	448	620	
3	0	0	0	0	448	616	
4	0	0	0	0	448	620	
5	0	0	0	0	449	620	
6	0	0	0	0	448	620	
7	0	0	0	0	449	623	
8	0	0	0	0	449	619	
9	0	0	0	0	449	619	
10	0	0	0	0	448	620	
11	0	0	0	0	447	615	
12	0	0	0	0	446	620	
13	0	0	0	0	446	619	
14	0	0	0	0	446	619	
15	0	0	0	0	446	623	
0	0	0	0	0	444	619	
1	0	0	0	0	444	619	
2	0	0	0	0	443	619	
3	0	0	0	0	443	615	
4	0	0	0	0	443	619	
5	0	0	0	0	442	619	
6	0	0	0	0	442	620	
7	0	0	0	0	443	623	
8	0	0	0	0	443	620	
9	0	0	0	0	444	619	
10	0	0	0	0	445	619	
11	0	0	0	0	447	615	
12	0	0	0	0	448	620	
13	0	0	0	0	448	620	
14	0	0	0	0	448	621	
15	0	0	0	0	447	624	
0	0	0	0	0	447	620	
1	0	0	0	0	447	620	
2	0	0	0	0	446	620	
3	0	0	0	0	446	616	
4	0	0	0	0	446	620	
5	0	0	0	0	446	620	
6	0	0	0	0	446	620	
7	0	0	0	0	447	624	
8	0	0	0	0	448	621	
9	0	0	0	0	448	620	
10	0	0	0	0	449	620	
11	0	0	0	0	450	616	
12	0	0	0	0	451	620	
13	0	0	0	0	452	620	
14	0	0	0	0	452	620	
15	0	0	0	0	453	624	
0	0	0	0	0	455	620	
1	0	0	0	0	456	620	
2	0	0	0	0	457	620	
3	0	0	0	0	458	615	
4	0	0	0	0	459	619	
5	0	0	0	0	460	620	
6	0	0	0	0	461	620	
7	0	0	0	0	460	624	
8	0	0	0	0	459	619	
9	0	0	0	0	459	619	
10	0	0	0	0	458	620	
11	0	0	0	0	458	616	
12	0	0	0	0	459	620	
13	0	0	0	0	459	620	
14	0	0	0	0	459	620	
15	0	0	0	0	459	623	
0	0	0	0	0	458	620	
1	0	0	0	0	456	620	
2	0	0	0	0	456	620	
3	0	0	0	0	456	617	
4	0	0	0	0	456	620	
5	0	0	0	0	455	620	
6	0	0	0	0	455	620	
7	0	0	0	0	454	625	
8	0	0	0	0	453	621	
9	0	0	0	0	452	621	
10	0	0	0	0	451	621	
11	0	0	0	0	449	617	
12	0	0	0	0	448	622	
13	0	0	0	0	448	622	
14	0	0	0	0	448	623	
15	0	0	0	0	447	627	
0	0	0	0	0	448	623	
1	0	0	0	0	447	623	
2	0	0	0	0	447	623	
3	0	0	0	0	446	620	
4	0	0	0	0	447	623	
5	0	0	0	0	447	623	
6	0	0	0	0	447	624	
7	0	0	0	0	448	627	
8	0	0	0	0	448	623	
9	0	0	0	0	448	624	
10	0	0	0	0	448	624	
11	0	0	0	0	449	620	
12	0	0	0	0	450	625	
13	0	0	0	0	451	625	
14	0	0	0	0	451	625	
15	0	0	0	0	451	629	
0	0	0	0	0	450	625	
1	0	0	0	0	450	625	
2	0	0	0	0	451	626	
3	0	0	0	0	452	622	
4	0	0	0	0	454	626	
5	0	0	0	0	455	625	
6	0	0	0	0	456	626	
7	0	0	0	0	457	630	
8	0	0	0	0	458	626	
9	0	0	0	0	459	626	
10	0	0	0	0	458	626	
11	0	0	0	0	459	623	
12	0	0	0	0	459	627	
13	0	0	0	0	459	627	
14	0	0	0	0	459	627	
15	0	0	0	0	459	631	
0	0	0	0	0	459	627	
1	0	0	0	0	459	627	
2	0	0	0	0	460	626	
3	0	0	0	0	460	622	
4	0	0	0	0	460	626	
5	0	0	0	0	462	625	
6	0	0	0	0	462	626	
7	0	0	0	0	461	629	
8	0	0	0	0	461	625	
9	0	0	0	0	461	626	
10	0	0	0	0	460	625	
11	0	0	0	0	462	621	
12	0	0	0	0	462	625	
13	0	0	0	0	461	625	
14	0	0	0	0	460	625	
15	0	0	0	0	459	628	
0	0	0	0	0	459	624	
1	0	0	0	0	456	624	
2	0	0	0	0	455	624	
3	0	0	0	0	454	619	
4	0	0	0	0	451	623	
5	0	0	0	0	450	623	
6	0	0	0	0	449	623	
7	0	0	0	0	448	626	
8	0	0	0	0	447	622	
9	0	0	0	0	447	622	
10	0	0	0	0	447	622	
11	0	0	0	0	446	617	
12	0	0	0	0	445	621	
13	0	0	0	0	444	621	
14	0	0	0	0	444	621	
15	0	0	0	0	444	624	
0	0	0	0	0	444	620	
1	0	0	0	0	444	620	
2	0	0	0	0	446	620	
3	0	0	0	0	446	615	
4	0	0	0	0	448	620	
5	0	0	0	0	450	619	
6	0	0	0	0	451	620	
7	0	0	0	0	452	623	
8	0	0	0	0	452	618	
9	0	0	0	0	453	619	
10	0	0	0	0	454	619	
11	0	0	0	0	454	614	
12	0	0	0	0	455	618	
13	0	0	0	0	455	618	
14	0	0	0	0	454	618	
15	0	0	0	0	454	622	
0	0	0	0	0	455	617	
1	0	0	0	0	455	617	
2	0	0	0	0	455	617	
3	0	0	0	0	456	614	
4	0	0	0	0	458	617	
5	0	0	0	0	458	617	
6	0	0	0	0	457	616	
7	0	0	0	0	458	620	
8	0	0	0	0	459	616	
9	0	0	0	0	459	615	
10	0	0	0	0	460	615	
11	0	0	0	0	460	611	
12	0	0	0	0	460	615	
13	0	0	0	0	460	616	
14	0	0	0	0	460	616	
15	0	0	0	0	460	619	
0	0	0	0	0	460	616	
1	0	0	0	0	460	615	
2	0	0	0	0	459	615	
3	0	0	0	0	459	611	
4	0	0	0	0	459	615	
5	0	0	0	0	459	615	
6	0	0	0	0	459	615	
7	0	0	0	0	459	619	
8	0	0	0	0	457	615	
9	0	0	0	0	456	615	
10	0	0	0	0	455	615	
11	0	0	0	0	455	611	
12	0	0	0	0	454	616	
13	0	0	0	0	454	615	
14	0	0	0	0	452	616	
15	0	0	0	0	451	619	
0	0	0	0	0	451	615	
1	0	0	0	0	452	616	
2	0	0	0	0	452	615	
3	0	0	0	0	451	612	
4	0	0	0	0	449	616	
5	0	0	0	0	448	615	
6	0	0	0	0	448	616	
7	0	0	0	0	448	620	
8	0	0	0	0	448	616	
9	0	0	0	0	448	616	
10	0	0	0	0	448	616	
11	0	0	0	0	449	612	
12	0	0	0	0	450	617	
13	0	0	0	0	450	617	
14	0	0	0	0	450	617	
15	0	0	0	0	451	621	
0	0	0	0	0	451	617	
1	0	0	0	0	451	617	
2	0	0	0	0	451	617	
3	0	0	0	0	452	613	
4	0	0	0	0	453	616	
5	0	0	0	0	454	616	
6	0	0	0	0	455	617	
7	0	0	0	0	455	621	
8	0	0	0	0	455	617	
9	0	0	0	0	456	617	
10	0	0	0	0	455	617	
11	0	0	0	0	455	614	
12	0	0	0	0	455	618	
13	0	0	0	0	456	618	
14	0	0	0	0	455	619	
15	0	0	0	0	454	622	
0	0	0	0	0	453	619	
1	0	0	0	0	451	619	
2	0	0	0	0	451	619	
3	0	0	0	0	452	615	
4	0	0	0	0	451	619	
5	0	0	0	0	451	619	
6	0	0	0	0	451	620	
7	0	0	0	0	450	623	
8	0	0	0	0	449	620	
9	0	0	0	0	447	620	
10	0	0	0	0	445	620	
11	0	0	0	0	445	616	
12	0	0	0	0	448	620	
13	0	0	0	0	452	621	
14	0	0	0	0	459	621	
15	0	0	0	0	467	625	
0	0	0	0	0	477	621	
1	0	0	0	0	486	621	
2	0	0	0	0	496	622	
3	0	0	0	0	511	618	
4	0	0	0	0	526	622	
5	0	0	0	0	541	622	
6	0	0	0	0	557	623	
7	0	0	0	0	572	627	
8	0	0	0	0	586	623	
9	0	0	0	0	601	623	
10	0	0	0	0	615	622	
11	0	0	0	0	631	619	
12	0	0	0	0	647	623	
13	0	0	0	0	664	623	
14	0	0	0	0	682	623	
15	0	0	0	0	701	627	
0	0	0	0	0	721	623	
1	0	0	0	0	738	623	
2	0	0	0	0	754	623	
3	0	0	0	0	767	619	
4	0	0	0	0	775	623	
5	0	0	0	0	783	623	
6	0	0	0	0	788	623	
7	0	0	0	0	792	627	
8	0	0	0	0	791	623	
9	0	0	0	0	788	623	
10	0	0	0	0	786	623	
11	0	0	0	0	782	618	
12	0	0	0	0	775	622	
13	0	0	0	0	768	622	
14	0	0	0	0	759	621	
15	0	0	0	0	746	625	
0	0	0	0	0	732	621	
1	0	0	0	0	719	622	
2	0	0	0	0	707	622	
3	0	0	0	0	696	618	
4	0	0	0	0	686	623	
5	0	0	0	0	675	623	
6	0	0	0	0	664	622	
7	0	0	0	0	651	625	
8	0	0	0	0	639	621	
9	0	0	0	0	628	620	
10	0	0	0	0	618	621	
11	0	0	0	0	608	616	
12	0	0	0	0	597	620	
13	0	0	0	0	584	620	
14	0	0	0	0	571	620	
15	0	0	0	0	559	623	
0	0	0	0	0	546	620	
1	0	0	0	0	533	620	
2	0	0	0	0	520	619	
3	0	0	0	0	509	615	
4	0	0	0	0	498	620	
5	0	0	0	0	486	619	
6	0	0	0	0	475	620	
7	0	0	0	0	466	623	
8	0	0	0	0	457	619	
9	0	0	0	0	448	620	
10	0	0	0	0	440	619	
11	0	0	0	0	432	615	
12	0	0	0	0	424	619	
13	0	0	0	0	417	619	
14	0	0	0	0	409	618	
15	0	0	0	0	403	622	
0	0	0	0	0	398	619	
1	0	0	0	0	392	618	
2	0	0	0	0	387	617	
3	0	0	0	0	383	613	
4	0	0	0	0	378	618	
5	0	0	0	0	373	617	
6	0	0	0	0	369	619	
7	0	0	0	0	367	621	
8	0	0	0	0	364	616	
9	0	0	0	0	361	617	
10	0	0	0	0	359	617	
11	0	0	0	0	356	612	
12	0	0	0	0	354	617	
13	0	0	0	0	351	617	
14	0	0	0	0	348	616	
15	0	0	0	0	345	620	
0	0	0	0	0	343	616	
1	0	0	0	0	342	617	
2	0	0	0	0	342	617	
3	0	0	0	0	341	613	
4	0	0	0	0	340	618	
5	0	0	0	0	339	617	
6	0	0	0	0	338	618	
7	0	0	0	0	338	622	
8	0	0	0	0	339	619	
9	0	0	0	0	341	620	
10	0	0	0	0	343	619	
11	0	0	0	0	344	616	
12	0	0	0	0	345	620	
13	0	0	0	0	346	621	
14	0	0	0	0	345	620	
15	0	0	0	0	345	623	
0	0	0	0	0	347	621	
1	0	0	0	0	347	620	
2	0	0	0	0	348	620	
3	0	0	0	0	350	617	
4	0	0	0	0	351	620	
5	0	0	0	0	352	620	
6	0	0	0	0	354	620	
7	0	0	0	0	355	624	
8	0	0	0	0	358	621	
9	0	0	0	0	359	621	
10	0	0	0	0	359	621	
11	0	0	0	0	358	617	
12	0	0	0	0	358	622	
13	0	0	0	0	358	622	
14	0	0	0	0	358	622	
15	0	0	0	0	360	626	
0	0	0	0	0	361	622	
1	0	0	0	0	362	622	
2	0	0	0	0	363	622	
3	0	0	0	0	365	620	
4	0	0	0	0	367	623	
5	0	0	0	0	368	623	
6	0	0	0	0	370	623	
7	0	0	0	0	372	627	
8	0	0	0	0	375	624	
9	0	0	0	0	375	623	
10	0	0	0	0	377	624	
11	0	0	0	0	381	620	
12	0	0	0	0	383	624	
13	0	0	0	0	386	625	
14	0	0	0	0	387	624	
15	0	0	0	0	388	627	
0	0	0	0	0	389	623	
1	0	0	0	0	388	622	
2	0	0	0	0	390	623	
3	0	0	0	0	391	620	
4	0	0	0	0	392	623	
5	0	0	0	0	392	624	
6	0	0	0	0	393	622	
7	0	0	0	0	395	627	
8	0	0	0	0	397	623	
9	0	0	0	0	398	622	
10	0	0	0	0	399	621	
11	0	0	0	0	400	615	
12	0	0	0	0	400	620	
13	0	0	0	0	401	620	
14	0	0	0	0	402	620	
15	0	0	0	0	404	623	
0	0	0	0	0	404	620	
1	0	0	0	0	404	620	
2	0	0	0	0	406	620	
3	0	0	0	0	407	615	
4	0	0	0	0	408	620	
5	0	0	0	0	409	620	
6	0	0	0	0	411	620	
7	0	0	0	0	412	622	
8	0	0	0	0	413	619	
9	0	0	0	0	415	619	
10	0	0	0	0	417	619	
11	0	0	0	0	418	614	
12	0	0	0	0	420	618	
13	0	0	0	0	423	618	
14	0	0	0	0	426	618	
15	0	0	0	0	428	620	
0	0	0	0	0	429	616	
1	0	0	0	0	430	615	
2	0	0	0	0	432	614	
3	0	0	0	0	433	612	
4	0	0	0	0	434	615	
5	0	0	0	0	435	614	
6	0	0	0	0	435	615	
7	0	0	0	0	436	617	
8	0	0	0	0	438	613	
9	0	0	0	0	441	613	
10	0	0	0	0	443	613	
11	0	0	0	0	445	609	
12	0	0	0	0	446	614	
13	0	0	0	0	447	614	
14	0	0	0	0	449	614	
15	0	0	0	0	451	619	
0	0	0	0	0	451	615	
1	0	0	0	0	452	615	
2	0	0	0	0	453	614	
3	0	0	0	0	451	610	
4	0	0	0	0	451	615	
5	0	0	0	0	450	615	
6	0	0	0	0	450	615	
7	0	0	0	0	450	618	
8	0	0	0	0	450	615	
9	0	0	0	0	450	615	
10	0	0	0	0	449	614	
11	0	0	0	0	449	611	
12	0	0	0	0	450	614	
13	0	0	0	0	449	612	
14	0	0	0	0	448	613	
15	0	0	0	0	448	616	
0	0	0	0	0	448	612	
1	0	0	0	0	447	613	
2	0	0	0	0	447	613	
3	0	0	0	0	447	609	
4	0	0	0	0	447	614	
5	0	0	0	0	448	615	
6	0	0	0	0	448	616	
7	0	0	0	0	447	620	
8	0	0	0	0	448	616	
9	0	0	0	0	447	618	
10	0	0	0	0	445	618	
11	0	0	0	0	444	614	
12	0	0	0	0	442	617	
13	0	0	0	0	440	618	
14	0	0	0	0	439	617	
15	0	0	0	0	436	621	
0	0	0	0	0	435	618	
1	0	0	0	0	434	620	
2	0	0	0	0	433	619	
3	0	0	0	0	431	615	
4	0	0	0	0	430	620	
5	0	0	0	0	428	622	
6	0	0	0	0	428	622	
7	0	0	0	0	427	626	
8	0	0	0	0	425	623	
9	0	0	0	0	422	623	
10	0	0	0	0	420	623	
11	0	0	0	0	419	619	
12	0	0	0	0	417	622	
13	0	0	0	0	414	623	
14	0	0	0	0	412	623	
15	0	0	0	0	411	626	
0	0	0	0	0	408	623	
1	0	0	0	0	404	624	
2	0	0	0	0	402	625	
3	0	0	0	0	401	621	
4	0	0	0	0	400	625	
5	0	0	0	0	398	626	
6	0	0	0	0	396	627	
7	0	0	0	0	394	630	
8	0	0	0	0	391	627	
9	0	0	0	0	389	627	
10	0	0	0	0	387	626	
11	0	0	0	0	385	623	
12	0	0	0	0	383	627	
13	0	0	0	0	380	626	
14	0	0	0	0	379	626	
15	0	0	0	0	378	630	
0	0	0	0	0	377	626	
1	0	0	0	0	375	627	
2	0	0	0	0	372	627	
3	0	0	0	0	371	623	
4	0	0	0	0	368	627	
5	0	0	0	0	364	627	
6	0	0	0	0	361	628	
7	0	0	0	0	358	631	
8	0	0	0	0	355	627	
9	0	0	0	0	352	627	
10	0	0	0	0	348	627	
11	0	0	0	0	344	622	
12	0	0	0	0	340	627	
13	0	0	0	0	336	627	
14	0	0	0	0	332	626	
15	0	0	0	0	327	630	
0	0	0	0	0	323	626	
1	0	0	0	0	319	627	
2	0	0	0	0	316	626	
3	0	0	0	0	312	622	
4	0	0	0	0	310	625	
5	0	0	0	0	306	624	
6	0	0	0	0	303	624	
7	0	0	0	0	301	628	
8	0	0	0	0	298	624	
9	0	0	0	0	294	624	
10	0	0	0	0	291	624	
11	0	0	0	0	287	619	
12	0	0	0	0	285	623	
13	0	0	0	0	282	623	
14	0	0	0	0	280	623	
15	0	0	0	0	276	626	
0	0	0	0	0	272	623	
1	0	0	0	0	269	622	
2	0	0	0	0	267	622	
3	0	0	0	0	264	619	
4	0	0	0	0	262	623	
5	0	0	0	0	260	623	
6	0	0	0	0	258	622	
7	0	0	0	0	255	626	
8	0	0	0	0	253	622	
9	0	0	0	0	251	622	
10	0	0	0	0	248	622	
11	0	0	0	0	245	616	
12	0	0	0	0	243	621	
13	0	0	0	0	239	620	
14	0	0	0	0	237	620	
15	0	0	0	0	233	624	
0	0	0	0	0	232	621	
1	0	0	0	0	231	621	
2	0	0	0	0	229	620	
3	0	0	0	0	227	617	
4	0	0	0	0	227	622	
5	0	0	0	0	226	622	
6	0	0	0	0	225	622	
7	0	0	0	0	225	625	
8	0	0	0	0	225	621	
9	0	0	0	0	224	621	
10	0	0	0	0	225	621	
11	0	0	0	0	225	617	
12	0	0	0	0	225	621	
13	0	0	0	0	226	621	
14	0	0	0	0	227	621	
15	0	0	0	0	227	625	
0	0	0	0	0	228	621	
1	0	0	0	0	228	622	
2	0	0	0	0	229	621	
3	0	0	0	0	229	617	
4	0	0	0	0	229	622	
5	0	0	0	0	230	622	
6	0	0	0	0	229	622	
7	0	0	0	0	228	625	
8	0	0	0	0	228	622	
9	0	0	0	0	230	622	
10	0	0	0	0	231	622	
11	0	0	0	0	231	617	
12	0	0	0	0	231	622	
13	0	0	0	0	231	622	
14	0	0	0	0	231	623	
15	0	0	0	0	231	626	
0	0	0	0	0	231	622	
1	0	0	0	0	231	622	
2	0	0	0	0	231	623	
3	0	0	0	0	231	620	
4	0	0	0	0	231	625	
5	0	0	0	0	231	625	
6	0	0	0	0	231	625	
7	0	0	0	0	233	629	
8	0	0	0	0	234	625	
9	0	0	0	0	235	626	
10	0	0	0	0	236	625	
11	0	0	0	0	237	622	
12	0	0	0	0	238	626	
13	0	0	0	0	239	626	
14	0	0	0	0	241	626	
15	0	0	0	0	243	629	
0	0	0	0	0	246	626	
1	0	0	0	0	248	626	
2	0	0	0	0	249	626	
3	0	0	0	0	250	623	
4	0	0	0	0	252	627	
5	0	0	0	0	254	628	
6	0	0	0	0	255	629	
7	0	0	0	0	255	633	
8	0	0	0	0	256	630	
9	0	0	0	0	256	630	
10	0	0	0	0	258	630	
11	0	0	0	0	259	625	
12	0	0	0	0	260	629	
13	0	0	0	0	261	629	
14	0	0	0	0	262	629	
15	0	0	0	0	262	632	
0	0	0	0	0	263	627	
1	0	0	0	0	264	626	
2	0	0	0	0	265	626	
3	0	0	0	0	266	621	
4	0	0	0	0	268	625	
5	0	0	0	0	268	624	
6	0	0	0	0	269	625	
7	0	0	0	0	270	628	
8	0	0	0	0	271	624	
9	0	0	0	0	271	625	
10	0	0	0	0	272	625	
11	0	0	0	0	273	622	
12	0	0	0	0	274	627	
13	0	0	0	0	275	628	
14	0	0	0	0	275	629	
15	0	0	0	0	276	634	
0	0	0	0	0	277	632	
1	0	0	0	0	278	633	
2	0	0	0	0	278	633	
3	0	0	0	0	279	630	
4	0	0	0	0	280	635	
5	0	0	0	0	281	635	
6	0	0	0	0	283	636	
7	0	0	0	0	283	640	
8	0	0	0	0	283	637	
9	0	0	0	0	284	637	
10	0	0	0	0	285	636	
11	0	0	0	0	286	632	
12	0	0	0	0	287	636	
13	0	0	0	0	289	635	
14	0	0	0	0	290	635	
15	0	0	0	0	291	637	
0	0	0	0	0	294	632	
1	0	0	0	0	296	632	
2	0	0	0	0	298	630	
3	0	0	0	0	300	625	
4	0	0	0	0	302	627	
5	0	0	0	0	303	627	
6	0	0	0	0	305	625	
7	0	0	0	0	306	628	
8	0	0	0	0	307	624	
9	0	0	0	0	309	623	
10	0	0	0	0	309	621	
11	0	0	0	0	310	616	
12	0	0	0	0	311	620	
13	0	0	0	0	311	620	
14	0	0	0	0	313	620	
15	0	0	0	0	315	624	
0	0	0	0	0	317	620	
1	0	0	0	0	318	620	
2	0	0	0	0	321	619	
3	0	0	0	0	323	615	
4	0	0	0	0	327	619	
5	0	0	0	0	329	620	
6	0	0	0	0	332	619	
7	0	0	0	0	335	623	
8	0	0	0	0	337	620	
9	0	0	0	0	339	620	
10	0	0	0	0	342	620	
11	0	0	0	0	344	616	
12	0	0	0	0	346	620	
13	0	0	0	0	348	621	
14	0	0	0	0	349	621	
15	0	0	0	0	350	625	
0	0	0	0	0	351	621	
1	0	0	0	0	352	621	
2	0	0	0	0	354	621	
3	0	0	0	0	357	617	
4	0	0	0	0	358	622	
5	0	0	0	0	360	622	
6	0	0	0	0	361	622	
7	0	0	0	0	361	624	
8	0	0	0	0	362	621	
9	0	0	0	0	363	621	
10	0	0	0	0	364	620	
11	0	0	0	0	366	616	
12	0	0	0	0	367	620	
13	0	0	0	0	367	620	
14	0	0	0	0	368	619	
15	0	0	0	0	368	622	
0	0	0	0	0	368	619	
1	0	0	0	0	367	619	
2	0	0	0	0	367	618	
3	0	0	0	0	368	614	
4	0	0	0	0	370	617	
5	0	0	0	0	372	617	
6	0	0	0	0	374	617	
7	0	0	0	0	375	621	
8	0	0	0	0	377	617	
9	0	0	0	0	378	617	
10	0	0	0	0	380	616	
11	0	0	0	0	382	612	
12	0	0	0	0	384	616	
13	0	0	0	0	385	616	
14	0	0	0	0	386	616	
15	0	0	0	0	385	620	
0	0	0	0	0	387	616	
1	0	0	0	0	388	616	
2	0	0	0	0	389	617	
3	0	0	0	0	390	613	
4	0	0	0	0	391	617	
5	0	0	0	0	391	617	
6	0	0	0	0	391	617	
7	0	0	0	0	392	621	
8	0	0	0	0	393	617	
9	0	0	0	0	393	617	
10	0	0	0	0	394	617	
11	0	0	0	0	395	613	
12	0	0	0	0	396	616	
13	0	0	0	0	396	617	
14	0	0	0	0	397	617	
15	0	0	0	0	398	621	
0	0	0	0	0	400	617	
1	0	0	0	0	401	617	
2	0	0	0	0	402	617	
3	0	0	0	0	404	613	
4	0	0	0	0	406	617	
5	0	0	0	0	407	617	
6	0	0	0	0	407	617	
7	0	0	0	0	407	620	
8	0	0	0	0	407	617	
9	0	0	0	0	408	617	
10	0	0	0	0	409	616	
11	0	0	0	0	410	612	
12	0	0	0	0	412	616	
13	0	0	0	0	413	616	
14	0	0	0	0	414	616	
15	0	0	0	0	416	620	
0	0	0	0	0	418	617	
1	0	0	0	0	418	617	
2	0	0	0	0	418	616	
3	0	0	0	0	418	613	
4	0	0	0	0	419	617	
5	0	0	0	0	420	618	
6	0	0	0	0	422	618	
7	0	0	0	0	422	621	
8	0	0	0	0	423	618	
9	0	0	0	0	423	617	
10	0	0	0	0	424	618	
11	0	0	0	0	424	614	
12	0	0	0	0	424	617	
13	0	0	0	0	423	618	
14	0	0	0	0	423	618	
15	0	0	0	0	425	622	
0	0	0	0	0	425	618	
1	0	0	0	0	425	618	
2	0	0	0	0	427	618	
3	0	0	0	0	429	614	
4	0	0	0	0	431	618	
5	0	0	0	0	432	618	
6	0	0	0	0	433	618	
7	0	0	0	0	434	621	
8	0	0	0	0	435	618	
9	0	0	0	0	435	617	
10	0	0	0	0	436	617	
11	0	0	0	0	436	613	
12	0	0	0	0	438	617	
13	0	0	0	0	440	617	
14	0	0	0	0	440	617	
15	0	0	0	0	440	621	
0	0	0	0	0	441	617	
1	0	0	0	0	443	617	
2	0	0	0	0	443	617	
3	0	0	0	0	444	614	
4	0	0	0	0	444	618	
5	0	0	0	0	445	618	
6	0	0	0	0	446	618	
7	0	0	0	0	447	622	
8	0	0	0	0	447	619	
9	0	0	0	0	448	618	
10	0	0	0	0	449	619	
11	0	0	0	0	449	614	
12	0	0	0	0	451	619	
13	0	0	0	0	452	619	
14	0	0	0	0	454	620	
15	0	0	0	0	454	623	
0	0	0	0	0	454	619	
1	0	0	0	0	453	620	
2	0	0	0	0	453	619	
3	0	0	0	0	453	615	
4	0	0	0	0	454	620	
5	0	0	0	0	454	619	
6	0	0	0	0	453	620	
7	0	0	0	0	452	623	
8	0	0	0	0	451	620	
9	0	0	0	0	451	619	
10	0	0	0	0	452	619	
11	0	0	0	0	453	615	
12	0	0	0	0	453	620	
13	0	0	0	0	453	619	
14	0	0	0	0	453	619	
15	0	0	0	0	454	623	
0	0	0	0	0	454	619	
1	0	0	0	0	455	619	
2	0	0	0	0	455	619	
3	0	0	0	0	455	615	
4	0	0	0	0	456	620	
5	0	0	0	0	456	620	
6	0	0	0	0	456	620	
7	0	0	0	0	457	623	
8	0	0	0	0	457	620	
9	0	0	0	0	457	619	
10	0	0	0	0	458	619	
11	0	0	0	0	459	615	
12	0	0	0	0	459	620	
13	0	0	0	0	460	620	
14	0	0	0	0	461	620	
15	0	0	0	0	462	624	
0	0	0	0	0	463	621	
1	0	0	0	0	465	621	
2	0	0	0	0	466	621	
3	0	0	0	0	467	618	
4	0	0	0	0	467	622	
5	0	0	0	0	467	622	
6	0	0	0	0	467	623	
7	0	0	0	0	467	626	
8	0	0	0	0	468	623	
9	0	0	0	0	467	623	
10	0	0	0	0	468	624	
11	0	0	0	0	467	620	
12	0	0	0	0	467	624	
13	0	0	0	0	467	624	
14	0	0	0	0	467	624	
15	0	0	0	0	467	627	
0	0	0	0	0	468	624	
1	0	0	0	0	467	624	
2	0	0	0	0	468	623	
3	0	0	0	0	467	620	
4	0	0	0	0	467	624	
5	0	0	0	0	466	625	
6	0	0	0	0	465	624	
7	0	0	0	0	465	627	
8	0	0	0	0	465	624	
9	0	0	0	0	464	624	
10	0	0	0	0	464	624	
11	0	0	0	0	464	620	
12	0	0	0	0	463	624	
13	0	0	0	0	463	625	
14	0	0	0	0	463	624	
15	0	0	0	0	464	628	
0	0	0	0	0	464	624	
1	0	0	0	0	464	624	
2	0	0	0	0	463	624	
3	0	0	0	0	463	620	
4	0	0	0	0	464	624	
5	0	0	0	0	464	625	
6	0	0	0	0	464	624	
7	0	0	0	0	464	628	
8	0	0	0	0	465	625	
9	0	0	0	0	464	624	
10	0	0	0	0	465	624	
11	0	0	0	0	466	620	
12	0	0	0	0	465	624	
13	0	0	0	0	465	624	
14	0	0	0	0	465	625	
15	0	0	0	0	465	627	
0	0	0	0	0	465	624	
1	0	0	0	0	466	624	
2	0	0	0	0	466	624	
3	0	0	0	0	467	620	
4	0	0	0	0	468	624	
5	0	0	0	0	470	624	
6	0	0	0	0	471	624	
7	0	0	0	0	472	627	
8	0	0	0	0	472	623	
9	0	0	0	0	473	623	
10	0	0	0	0	474	623	
11	0	0	0	0	475	619	
12	0	0	0	0	476	623	
13	0	0	0	0	477	623	
14	0	0	0	0	478	623	
15	0	0	0	0	478	626	
0	0	0	0	0	479	623	
1	0	0	0	0	480	622	
2	0	0	0	0	480	622	
3	0	0	0	0	481	617	
4	0	0	0	0	482	621	
5	0	0	0	0	483	622	
6	0	0	0	0	483	621	
7	0	0	0	0	484	624	
8	0	0	0	0	485	620	
9	0	0	0	0	486	620	
10	0	0	0	0	487	620	
11	0	0	0	0	488	616	
12	0	0	0	0	488	619	
13	0	0	0	0	489	619	
14	0	0	0	0	490	620	
15	0	0	0	0	489	623	
0	0	0	0	0	490	619	
1	0	0	0	0	490	619	
2	0	0	0	0	491	618	
3	0	0	0	0	491	614	
4	0	0	0	0	490	618	
5	0	0	0	0	489	618	
6	0	0	0	0	488	617	
7	0	0	0	0	487	621	
8	0	0	0	0	487	617	
9	0	0	0	0	486	617	
10	0	0	0	0	485	617	
11	0	0	0	0	484	613	
12	0	0	0	0	483	617	
13	0	0	0	0	481	617	
14	0	0	0	0	480	617	
15	0	0	0	0	480	620	
0	0	0	0	0	481	617	
1	0	0	0	0	481	617	
2	0	0	0	0	481	617	
3	0	0	0	0	480	613	
4	0	0	0	0	479	617	
5	0	0	0	0	479	617	
6	0	0	0	0	480	617	
7	0	0	0	0	480	622	
8	0	0	0	0	480	618	
9	0	0	0	0	480	618	
10	0	0	0	0	481	618	
11	0	0	0	0	480	614	
12	0	0	0	0	480	618	
13	0	0	0	0	480	618	
14	0	0	0	0	480	619	
15	0	0	0	0	478	622	
0	0	0	0	0	477	619	
1	0	0	0	0	477	619	
2	0	0	0	0	477	619	
3	0	0	0	0	477	615	
4	0	0	0	0	475	619	
5	0	0	0	0	475	619	
6	0	0	0	0	475	620	
7	0	0	0	0	475	623	
8	0	0	0	0	474	620	
9	0	0	0	0	475	620	
10	0	0	0	0	475	620	
11	0	0	0	0	475	616	
12	0	0	0	0	475	620	
13	0	0	0	0	475	621	
14	0	0	0	0	476	621	
15	0	0	0	0	476	625	
0	0	0	0	0	477	622	
1	0	0	0	0	477	622	
2	0	0	0	0	478	622	
3	0	0	0	0	478	618	
4	0	0	0	0	479	623	
5	0	0	0	0	480	624	
6	0	0	0	0	481	624	
7	0	0	0	0	481	628	
8	0	0	0	0	481	624	
9	0	0	0	0	481	625	
10	0	0	0	0	481	625	
11	0	0	0	0	482	621	
12	0	0	0	0	483	626	
13	0	0	0	0	483	627	
14	0	0	0	0	483	627	
15	0	0	0	0	482	630	
0	0	0	0	0	483	627	
1	0	0	0	0	483	626	
2	0	0	0	0	483	626	
3	0	0	0	0	483	622	
4	0	0	0	0	483	625	
5	0	0	0	0	483	625	
6	0	0	0	0	483	625	
7	0	0	0	0	483	629	
8	0	0	0	0	482	625	
9	0	0	0	0	482	625	
10	0	0	0	0	482	625	
11	0	0	0	0	483	621	
12	0	0	0	0	484	625	
13	0	0	0	0	485	625	
14	0	0	0	0	486	625	
15	0	0	0	0	485	629	
0	0	0	0	0	486	626	
1	0	0	0	0	486	625	
2	0	0	0	0	484	625	
3	0	0	0	0	484	622	
4	0	0	0	0	485	627	
5	0	0	0	0	485	627	
6	0	0	0	0	485	628	
7	0	0	0	0	484	632	
8	0	0	0	0	483	627	
9	0	0	0	0	484	626	
10	0	0	0	0	485	624	
11	0	0	0	0	485	620	
12	0	0	0	0	486	624	
13	0	0	0	0	489	624	
14	0	0	0	0	489	623	
15	0	0	0	0	491	626	
0	0	0	0	0	492	622	
1	0	0	0	0	492	621	
2	0	0	0	0	494	620	
3	0	0	0	0	496	616	
4	0	0	0	0	498	620	
5	0	0	0	0	499	620	
6	0	0	0	0	500	619	
7	0	0	0	0	500	623	
8	0	0	0	0	501	617	
9	0	0	0	0	502	618	
10	0	0	0	0	501	617	
11	0	0	0	0	500	612	
12	0	0	0	0	499	617	
13	0	0	0	0	499	616	
14	0	0	0	0	500	616	
15	0	0	0	0	501	620	
0	0	0	0	0	502	615	
1	0	0	0	0	503	615	
2	0	0	0	0	504	615	
3	0	0	0	0	504	611	
4	0	0	0	0	505	615	
5	0	0	0	0	506	615	
6	0	0	0	0	506	616	
7	0	0	0	0	507	620	
8	0	0	0	0	508	616	
9	0	0	0	0	507	616	
10	0	0	0	0	508	616	
11	0	0	0	0	509	612	
12	0	0	0	0	509	617	
13	0	0	0	0	509	617	
14	0	0	0	0	509	618	
15	0	0	0	0	509	621	
0	0	0	0	0	510	618	
1	0	0	0	0	510	618	
2	0	0	0	0	510	617	
3	0	0	0	0	511	614	
4	0	0	0	0	511	617	
5	0	0	0	0	511	617	
6	0	0	0	0	511	618	
7	0	0	0	0	511	621	
8	0	0	0	0	510	617	
9	0	0	0	0	509	617	
10	0	0	0	0	509	617	
11	0	0	0	0	508	614	
12	0	0	0	0	508	618	
13	0	0	0	0	508	617	
14	0	0	0	0	507	617	
15	0	0	0	0	506	621	
0	0	0	0	0	506	616	
1	0	0	0	0	505	616	
2	0	0	0	0	504	615	
3	0	0	0	0	503	611	
4	0	0	0	0	501	615	
5	0	0	0	0	500	615	
6	0	0	0	0	499	615	
7	0	0	0	0	499	618	
8	0	0	0	0	498	614	
9	0	0	0	0	498	614	
10	0	0	0	0	498	613	
11	0	0	0	0	497	608	
12	0	0	0	0	497	612	
13	0	0	0	0	497	611	
14	0	0	0	0	498	611	
15	0	0	0	0	499	615	
0	0	0	0	0	500	611	
1	0	0	0	0	500	611	
2	0	0	0	0	500	610	
3	0	0	0	0	501	607	
4	0	0	0	0	501	611	
5	0	0	0	0	501	611	
6	0	0	0	0	500	611	
7	0	0	0	0	500	614	
8	0	0	0	0	500	610	
9	0	0	0	0	500	611	
10	0	0	0	0	500	611	
11	0	0	0	0	501	607	
12	0	0	0	0	500	612	
13	0	0	0	0	500	611	
14	0	0	0	0	500	612	
15	0	0	0	0	500	616	
0	0	0	0	0	501	612	
1	0	0	0	0	501	613	
2	0	0	0	0	502	614	
3	0	0	0	0	503	611	
4	0	0	0	0	503	614	
5	0	0	0	0	501	615	
6	0	0	0	0	499	615	
7	0	0	0	0	498	619	
8	0	0	0	0	496	615	
9	0	0	0	0	496	616	
10	0	0	0	0	496	615	
11	0	0	0	0	499	612	
12	0	0	0	0	503	617	
13	0	0	0	0	508	617	
14	0	0	0	0	516	618	
15	0	0	0	0	525	622	
0	0	0	0	0	537	618	
1	0	0	0	0	550	619	
2	0	0	0	0	566	620	
3	0	0	0	0	584	616	
4	0	0	0	0	604	621	
5	0	0	0	0	623	621	
6	0	0	0	0	642	623	
7	0	0	0	0	661	627	
8	0	0	0	0	679	624	
9	0	0	0	0	698	625	
10	0	0	0	0	716	626	
11	0	0	0	0	736	623	
12	0	0	0	0	756	628	
13	0	0	0	0	779	628	
14	0	0	0	0	803	629	
15	0	0	0	0	827	632	
0	0	0	0	0	849	627	
1	0	0	0	0	868	627	
2	0	0	0	0	884	627	
3	0	0	0	0	897	622	
4	0	0	0	0	908	626	
5	0	0	0	0	917	625	
6	0	0	0	0	922	625	
7	0	0	0	0	923	628	
8	0	0	0	0	923	624	
9	0	0	0	0	920	624	
10	0	0	0	0	915	624	
11	0	0	0	0	910	620	
12	0	0	0	0	902	624	
13	0	0	0	0	891	625	
14	0	0	0	0	880	625	
15	0	0	0	0	868	629	
0	0	0	0	0	858	625	
1	0	0	0	0	848	624	
2	0	0	0	0	839	625	
3	0	0	0	0	828	622	
4	0	0	0	0	818	626	
5	0	0	0	0	808	626	
6	0	0	0	0	799	627	
7	0	0	0	0	790	630	
8	0	0	0	0	782	627	
9	0	0	0	0	771	627	
10	0	0	0	0	760	627	
11	0	0	0	0	747	623	
12	0	0	0	0	734	627	
13	0	0	0	0	721	625	
14	0	0	0	0	707	626	
15	0	0	0	0	696	630	
0	0	0	0	0	684	626	
1	0	0	0	0	672	626	
2	0	0	0	0	663	625	
3	0	0	0	0	654	621	
4	0	0	0	0	646	625	
5	0	0	0	0	638	625	
6	0	0	0	0	631	625	
7	0	0	0	0	624	629	
8	0	0	0	0	616	624	
9	0	0	0	0	610	624	
10	0	0	0	0	605	624	
11	0	0	0	0	600	620	
12	0	0	0	0	593	623	
13	0	0	0	0	588	623	
14	0	0	0	0	583	623	
15	0	0	0	0	577	626	
0	0	0	0	0	573	622	
1	0	0	0	0	569	622	
2	0	0	0	0	566	622	
3	0	0	0	0	562	617	
4	0	0	0	0	559	621	
5	0	0	0	0	556	620	
6	0	0	0	0	552	621	
7	0	0	0	0	549	624	
8	0	0	0	0	547	620	
9	0	0	0	0	545	620	
10	0	0	0	0	543	620	
11	0	0	0	0	543	616	
12	0	0	0	0	543	620	
13	0	0	0	0	544	620	
14	0	0	0	0	545	620	
15	0	0	0	0	546	623	
0	0	0	0	0	547	619	
1	0	0	0	0	549	619	
2	0	0	0	0	551	619	
3	0	0	0	0	554	615	
4	0	0	0	0	557	619	
5	0	0	0	0	560	619	
6	0	0	0	0	564	619	
7	0	0	0	0	567	623	
8	0	0	0	0	569	619	
9	0	0	0	0	572	619	
10	0	0	0	0	574	619	
11	0	0	0	0	576	615	
12	0	0	0	0	579	619	
13	0	0	0	0	581	619	
14	0	0	0	0	583	619	
15	0	0	0	0	585	622	
0	0	0	0	0	587	617	
1	0	0	0	0	589	618	
2	0	0	0	0	590	618	
3	0	0	0	0	590	614	
4	0	0	0	0	591	619	
5	0	0	0	0	593	618	
6	0	0	0	0	595	619	
7	0	0	0	0	598	623	
8	0	0	0	0	601	619	
9	0	0	0	0	604	620	
10	0	0	0	0	607	619	
11	0	0	0	0	610	616	
12	0	0	0	0	614	619	
13	0	0	0	0	617	619	
14	0	0	0	0	619	620	
15	0	0	0	0	623	624	
0	0	0	0	0	626	620	
1	0	0	0	0	628	620	
2	0	0	0	0	631	621	
3	0	0	0	0	634	617	
4	0	0	0	0	637	622	
5	0	0	0	0	641	621	
6	0	0	0	0	644	622	
7	0	0	0	0	647	625	
8	0	0	0	0	652	623	
9	0	0	0	0	655	623	
10	0	0	0	0	658	623	
11	0	0	0	0	660	620	
12	0	0	0	0	663	624	
13	0	0	0	0	665	624	
14	0	0	0	0	669	625	
15	0	0	0	0	671	629	
0	0	0	0	0	674	626	
1	0	0	0	0	677	626	
2	0	0	0	0	679	627	
3	0	0	0	0	681	622	
4	0	0	0	0	683	627	
5	0	0	0	0	684	628	
6	0	0	0	0	686	627	
7	0	0	0	0	688	631	
8	0	0	0	0	690	628	
9	0	0	0	0	691	628	
10	0	0	0	0	693	628	
11	0	0	0	0	694	624	
12	0	0	0	0	695	629	
13	0	0	0	0	696	629	
14	0	0	0	0	698	630	
15	0	0	0	0	699	633	
0	0	0	0	0	701	630	
1	0	0	0	0	702	630	
2	0	0	0	0	703	629	
3	0	0	0	0	705	626	
4	0	0	0	0	706	631	
5	0	0	0	0	707	630	
6	0	0	0	0	709	631	
7	0	0	0	0	710	635	
8	0	0	0	0	711	631	
9	0	0	0	0	711	632	
10	0	0	0	0	713	631	
11	0	0	0	0	713	627	
12	0	0	0	0	714	631	
13	0	0	0	0	715	631	
14	0	0	0	0	715	632	
15	0	0	0	0	715	635	
0	0	0	0	0	715	630	
1	0	0	0	0	715	630	
2	0	0	0	0	714	631	
3	0	0	0	0	714	626	
4	0	0	0	0	714	630	
5	0	0	0	0	715	630	
6	0	0	0	0	716	630	
7	0	0	0	0	716	633	
8	0	0	0	0	718	628	
9	0	0	0	0	718	628	
10	0	0	0	0	719	628	
11	0	0	0	0	719	624	
12	0	0	0	0	719	627	
13	0	0	0	0	720	627	
14	0	0	0	0	721	627	
15	0	0	0	0	723	631	
0	0	0	0	0	724	627	
1	0	0	0	0	725	626	
2	0	0	0	0	726	626	
3	0	0	0	0	726	621	
4	0	0	0	0	726	625	
5	0	0	0	0	726	625	
6	0	0	0	0	726	624	
7	0	0	0	0	726	628	
8	0	0	0	0	725	624	
9	0	0	0	0	725	624	
10	0	0	0	0	726	624	
11	0	0	0	0	725	619	
12	0	0	0	0	727	623	
13	0	0	0	0	727	623	
14	0	0	0	0	728	623	
15	0	0	0	0	730	626	
0	0	0	0	0	731	621	
1	0	0	0	0	732	621	
2	0	0	0	0	733	621	
3	0	0	0	0	734	616	
4	0	0	0	0	736	621	
5	0	0	0	0	736	621	
6	0	0	0	0	738	621	
7	0	0	0	0	739	624	
8	0	0	0	0	740	621	
9	0	0	0	0	740	620	
10	0	0	0	0	742	620	
11	0	0	0	0	743	615	
12	0	0	0	0	743	619	
13	0	0	0	0	743	619	
14	0	0	0	0	743	619	
15	0	0	0	0	743	622	
0	0	0	0	0	743	618	
1	0	0	0	0	744	618	
2	0	0	0	0	744	618	
3	0	0	0	0	744	613	
4	0	0	0	0	745	617	
5	0	0	0	0	746	617	
6	0	0	0	0	746	617	
7	0	0	0	0	745	620	
8	0	0	0	0	744	616	
9	0	0	0	0	744	615	
10	0	0	0	0	743	615	
11	0	0	0	0	742	612	
12	0	0	0	0	742	615	
13	0	0	0	0	741	615	
14	0	0	0	0	740	616	
15	0	0	0	0	739	619	
0	0	0	0	0	739	615	
1	0	0	0	0	740	615	
2	0	0	0	0	741	615	
3	0	0	0	0	741	610	
4	0	0	0	0	741	615	
5	0	0	0	0	742	614	
6	0	0	0	0	743	615	
7	0	0	0	0	744	618	
8	0	0	0	0	745	615	
9	0	0	0	0	746	614	
10	0	0	0	0	746	615	
11	0	0	0	0	745	610	
12	0	0	0	0	743	614	
13	0	0	0	0	742	614	
14	0	0	0	0	740	614	
15	0	0	0	0	737	617	
0	0	0	0	0	736	613	
1	0	0	0	0	736	612	
2	0	0	0	0	735	613	
3	0	0	0	0	735	608	
4	0	0	0	0	734	612	
5	0	0	0	0	733	612	
6	0	0	0	0	733	612	
7	0	0	0	0	732	615	
8	0	0	0	0	732	611	
9	0	0	0	0	731	612	
10	0	0	0	0	731	611	
11	0	0	0	0	730	607	
12	0	0	0	0	729	611	
13	0	0	0	0	728	611	
14	0	0	0	0	726	611	
15	0	0	0	0	724	615	
0	0	0	0	0	722	610	
1	0	0	0	0	720	610	
2	0	0	0	0	718	610	
3	0	0	0	0	717	606	
4	0	0	0	0	716	611	
5	0	0	0	0	714	609	
6	0	0	0	0	713	610	
7	0	0	0	0	712	615	
8	0	0	0	0	710	610	
9	0	0	0	0	708	611	
10	0	0	0	0	707	611	
11	0	0	0	0	705	607	
12	0	0	0	0	705	611	
13	0	0	0	0	704	611	
14	0	0	0	0	703	611	
15	0	0	0	0	702	615	
0	0	0	0	0	702	612	
1	0	0	0	0	701	612	
2	0	0	0	0	700	612	
3	0	0	0	0	699	608	
4	0	0	0	0	700	611	
5	0	0	0	0	699	612	
6	0	0	0	0	699	612	
7	0	0	0	0	698	616	
8	0	0	0	0	697	613	
9	0	0	0	0	696	613	
10	0	0	0	0	694	613	
11	0	0	0	0	693	611	
12	0	0	0	0	691	615	
13	0	0	0	0	688	614	
14	0	0	0	0	686	615	
15	0	0	0	0	685	619	
0	0	0	0	0	683	616	
1	0	0	0	0	681	616	
2	0	0	0	0	679	617	
3	0	0	0	0	677	613	
4	0	0	0	0	675	618	
5	0	0	0	0	674	617	
6	0	0	0	0	673	618	
7	0	0	0	0	672	622	
8	0	0	0	0	672	618	
9	0	0	0	0	671	618	
10	0	0	0	0	671	620	
11	0	0	0	0	670	616	
12	0	0	0	0	670	619	
13	0	0	0	0	669	620	
14	0	0	0	0	668	620	
15	0	0	0	0	667	624	
0	0	0	0	0	666	619	
1	0	0	0	0	665	620	
2	0	0	0	0	665	620	
3	0	0	0	0	664	615	
4	0	0	0	0	664	620	
5	0	0	0	0	663	620	
6	0	0	0	0	663	620	
7	0	0	0	0	662	625	
8	0	0	0	0	662	620	
9	0	0	0	0	660	620	
10	0	0	0	0	659	620	
11	0	0	0	0	657	617	
12	0	0	0	0	656	620	
13	0	0	0	0	655	620	
14	0	0	0	0	653	621	
15	0	0	0	0	652	625	
0	0	0	0	0	651	621	
1	0	0	0	0	649	621	
2	0	0	0	0	647	623	
3	0	0	0	0	647	619	
4	0	0	0	0	645	624	
5	0	0	0	0	644	625	
6	0	0	0	0	643	624	
7	0	0	0	0	641	629	
8	0	0	0	0	639	626	
9	0	0	0	0	637	625	
10	0	0	0	0	635	626	
11	0	0	0	0	633	623	
12	0	0	0	0	631	627	
13	0	0	0	0	631	627	
14	0	0	0	0	629	628	
15	0	0	0	0	628	632	
0	0	0	0	0	628	629	
1	0	0	0	0	627	628	
2	0	0	0	0	627	628	
3	0	0	0	0	627	626	
4	0	0	0	0	627	630	
5	0	0	0	0	626	629	
6	0	0	0	0	625	630	
7	0	0	0	0	624	633	
8	0	0	0	0	624	630	
9	0	0	0	0	624	631	
10	0	0	0	0	624	630	
11	0	0	0	0	624	625	
12	0	0	0	0	625	631	
13	0	0	0	0	625	630	
14	0	0	0	0	625	631	
15	0	0	0	0	625	635	
0	0	0	0	0	625	630	
1	0	0	0	0	625	632	
2	0	0	0	0	624	631	
3	0	0	0	0	624	627	
4	0	0	0	0	623	632	
5	0	0	0	0	622	630	
6	0	0	0	0	621	631	
7	0	0	0	0	621	634	
8	0	0	0	0	619	630	
9	0	0	0	0	618	630	
10	0	0	0	0	616	629	
11	0	0	0	0	615	625	
12	0	0	0	0	615	629	
13	0	0	0	0	614	629	
14	0	0	0	0	614	628	
15	0	0	0	0	614	632	
0	0	0	0	0	613	627	
1	0	0	0	0	613	627	
2	0	0	0	0	612	627	
3	0	0	0	0	611	623	
4	0	0	0	0	609	626	
5	0	0	0	0	609	626	
6	0	0	0	0	609	626	
7	0	0	0	0	608	629	
8	0	0	0	0	607	625	
9	0	0	0	0	606	625	
10	0	0	0	0	605	623	
11	0	0	0	0	605	620	
12	0	0	0	0	604	624	
13	0	0	0	0	604	624	
14	0	0	0	0	603	623	
15	0	0	0	0	604	626	
0	0	0	0	0	604	623	
1	0	0	0	0	604	622	
2	0	0	0	0	605	623	
3	0	0	0	0	606	618	
4	0	0	0	0	606	621	
5	0	0	0	0	607	622	
6	0	0	0	0	608	622	
7	0	0	0	0	609	625	
8	0	0	0	0	609	622	
9	0	0	0	0	611	622	
10	0	0	0	0	611	621	
11	0	0	0	0	612	617	
12	0	0	0	0	614	621	
13	0	0	0	0	615	623	
14	0	0	0	0	616	623	
15	0	0	0	0	617	626	
0	0	0	0	0	618	623	
1	0	0	0	0	619	623	
2	0	0	0	0	620	622	
3	0	0	0	0	621	618	
4	0	0	0	0	622	622	
5	0	0	0	0	623	622	
6	0	0	0	0	624	622	
7	0	0	0	0	624	625	
8	0	0	0	0	626	622	
9	0	0	0	0	626	621	
10	0	0	0	0	626	621	
11	0	0	0	0	627	617	
12	0	0	0	0	628	621	
13	0	0	0	0	628	622	
14	0	0	0	0	628	621	
15	0	0	0	0	627	625	
0	0	0	0	0	628	621	
1	0	0	0	0	628	620	
2	0	0	0	0	628	620	
3	0	0	0	0	629	617	
4	0	0	0	0	631	621	
5	0	0	0	0	632	620	
6	0	0	0	0	634	621	
7	0	0	0	0	636	624	
8	0	0	0	0	638	620	
9	0	0	0	0	641	620	
10	0	0	0	0	644	622	
11	0	0	0	0	647	617	
12	0	0	0	0	650	621	
13	0	0	0	0	652	622	
14	0	0	0	0	655	623	
15	0	0	0	0	658	626	
0	0	0	0	0	661	623	
1	0	0	0	0	663	623	
2	0	0	0	0	664	623	
3	0	0	0	0	666	620	
4	0	0	0	0	667	624	
5	0	0	0	0	667	625	
6	0	0	0	0	668	625	
7	0	0	0	0	668	628	
8	0	0	0	0	668	626	
9	0	0	0	0	669	626	
10	0	0	0	0	670	626	
11	0	0	0	0	672	623	
12	0	0	0	0	673	627	
13	0	0	0	0	675	627	
14	0	0	0	0	678	627	
15	0	0	0	0	679	631	
0	0	0	0	0	683	628	
1	0	0	0	0	685	629	
2	0	0	0	0	688	630	
3	0	0	0	0	692	627	
4	0	0	0	0	696	632	
5	0	0	0	0	701	632	
6	0	0	0	0	706	633	
7	0	0	0	0	711	637	
8	0	0	0	0	717	635	
9	0	0	0	0	723	635	
10	0	0	0	0	728	636	
11	0	0	0	0	733	633	
12	0	0	0	0	736	638	
13	0	0	0	0	740	638	
14	0	0	0	0	743	639	
15	0	0	0	0	746	643	
0	0	0	0	0	748	639	
1	0	0	0	0	751	639	
2	0	0	0	0	755	640	
3	0	0	0	0	759	636	
4	0	0	0	0	762	640	
5	0	0	0	0	764	640	
6	0	0	0	0	768	640	
7	0	0	0	0	771	645	
8	0	0	0	0	773	641	
9	0	0	0	0	774	640	
10	0	0	0	0	777	640	
11	0	0	0	0	779	636	
12	0	0	0	0	781	640	
13	0	0	0	0	783	640	
14	0	0	0	0	784	640	
15	0	0	0	0	786	643	
0	0	0	0	0	787	639	
1	0	0	0	0	788	640	
2	0	0	0	0	788	639	
3	0	0	0	0	790	636	
4	0	0	0	0	790	640	
5	0	0	0	0	792	639	
6	0	0	0	0	793	640	
7	0	0	0	0	794	643	
8	0	0	0	0	795	639	
9	0	0	0	0	795	639	
10	0	0	0	0	796	639	
11	0	0	0	0	797	634	
12	0	0	0	0	797	638	
13	0	0	0	0	797	639	
14	0	0	0	0	798	638	
15	0	0	0	0	799	642	
0	0	0	0	0	800	638	
1	0	0	0	0	801	638	
2	0	0	0	0	801	638	
3	0	0	0	0	801	634	
4	0	0	0	0	802	638	
5	0	0	0	0	802	637	
6	0	0	0	0	802	638	
7	0	0	0	0	801	642	
8	0	0	0	0	800	638	
9	0	0	0	0	799	638	
10	0	0	0	0	798	637	
11	0	0	0	0	796	633	
12	0	0	0	0	796	636	
13	0	0	0	0	794	636	
14	0	0	0	0	792	635	
15	0	0	0	0	791	639	
0	0	0	0	0	791	635	
1	0	0	0	0	790	635	
2	0	0	0	0	791	634	
3	0	0	0	0	790	629	
4	0	0	0	0	790	632	
5	0	0	0	0	791	632	
6	0	0	0	0	792	632	
7	0	0	0	0	793	634	
8	0	0	0	0	795	630	
9	0	0	0	0	796	629	
10	0	0	0	0	798	628	
11	0	0	0	0	800	623	
12	0	0	0	0	802	627	
13	0	0	0	0	804	625	
14	0	0	0	0	807	625	
15	0	0	0	0	808	628	
0	0	0	0	0	809	624	
1	0	0	0	0	811	623	
2	0	0	0	0	811	622	
3	0	0	0	0	811	617	
4	0	0	0	0	810	622	
5	0	0	0	0	810	621	
6	0	0	0	0	810	621	
7	0	0	0	0	811	624	
8	0	0	0	0	812	621	
9	0	0	0	0	811	621	
10	0	0	0	0	810	620	
11	0	0	0	0	809	616	
12	0	0	0	0	809	620	
13	0	0	0	0	808	620	
14	0	0	0	0	808	619	
15	0	0	0	0	808	623	
0	0	0	0	0	809	618	
1	0	0	0	0	808	619	
2	0	0	0	0	809	618	
3	0	0	0	0	809	614	
4	0	0	0	0	809	618	
5	0	0	0	0	809	618	
6	0	0	0	0	808	618	
7	0	0	0	0	807	622	
8	0	0	0	0	807	617	
9	0	0	0	0	806	617	
10	0	0	0	0	806	617	
11	0	0	0	0	806	612	
12	0	0	0	0	806	616	
13	0	0	0	0	807	617	
14	0	0	0	0	807	616	
15	0	0	0	0	807	620	
0	0	0	0	0	808	616	
1	0	0	0	0	809	615	
2	0	0	0	0	809	615	
3	0	0	0	0	809	611	
4	0	0	0	0	809	615	
5	0	0	0	0	809	615	
6	0	0	0	0	810	615	
7	0	0	0	0	809	619	
8	0	0	0	0	809	615	
9	0	0	0	0	809	615	
10	0	0	0	0	809	615	
11	0	0	0	0	808	611	
12	0	0	0	0	808	615	
13	0	0	0	0	809	615	
14	0	0	0	0	809	615	
15	0	0	0	0	810	618	
0	0	0	0	0	811	614	
1	0	0	0	0	812	614	
2	0	0	0	0	812	613	
3	0	0	0	0	813	608	
4	0	0	0	0	813	613	
5	0	0	0	0	814	612	
6	0	0	0	0	815	613	
7	0	0	0	0	816	616	
8	0	0	0	0	816	612	
9	0	0	0	0	816	612	
10	0	0	0	0	817	613	
11	0	0	0	0	816	608	
12	0	0	0	0	816	612	
13	0	0	0	0	816	612	
14	0	0	0	0	816	613	
15	0	0	0	0	816	616	
0	0	0	0	0	817	612	
1	0	0	0	0	818	612	
2	0	0	0	0	817	612	
3	0	0	0	0	818	608	
4	0	0	0	0	819	613	
5	0	0	0	0	819	613	
6	0	0	0	0	819	614	
7	0	0	0	0	819	617	
8	0	0	0	0	820	614	
9	0	0	0	0	820	613	
10	0	0	0	0	820	613	
11	0	0	0	0	820	610	
12	0	0	0	0	820	614	
13	0	0	0	0	817	615	
14	0	0	0	0	816	614	
15	0	0	0	0	815	618	
0	0	0	0	0	814	615	
1	0	0	0	0	813	615	
2	0	0	0	0	812	614	
3	0	0	0	0	811	611	
4	0	0	0	0	811	614	
5	0	0	0	0	811	615	
6	0	0	0	0	809	615	
7	0	0	0	0	808	619	
8	0	0	0	0	807	614	
9	0	0	0	0	805	615	
10	0	0	0	0	803	615	
11	0	0	0	0	801	610	
12	0	0	0	0	799	615	
13	0	0	0	0	797	615	
14	0	0	0	0	795	615	
15	0	0	0	0	793	619	
0	0	0	0	0	792	615	
1	0	0	0	0	790	614	
2	0	0	0	0	788	614	
3	0	0	0	0	787	610	
4	0	0	0	0	787	614	
5	0	0	0	0	786	614	
6	0	0	0	0	786	614	
7	0	0	0	0	786	617	
8	0	0	0	0	784	612	
9	0	0	0	0	783	613	
10	0	0	0	0	782	612	
11	0	0	0	0	780	608	
12	0	0	0	0	780	612	
13	0	0	0	0	779	612	
14	0	0	0	0	778	613	
15	0	0	0	0	777	616	
0	0	0	0	0	775	613	
1	0	0	0	0	775	614	
2	0	0	0	0	773	614	
3	0	0	0	0	773	610	
4	0	0	0	0	772	614	
5	0	0	0	0	771	615	
6	0	0	0	0	770	615	
7	0	0	0	0	769	619	
8	0	0	0	0	767	616	
9	0	0	0	0	766	616	
10	0	0	0	0	763	616	
11	0	0	0	0	762	613	
12	0	0	0	0	761	617	
13	0	0	0	0	760	618	
14	0	0	0	0	759	618	
15	0	0	0	0	758	622	
0	0	0	0	0	757	619	
1	0	0	0	0	755	619	
2	0	0	0	0	755	620	
3	0	0	0	0	753	616	
4	0	0	0	0	752	621	
5	0	0	0	0	750	622	
6	0	0	0	0	748	623	
7	0	0	0	0	746	627	
8	0	0	0	0	745	624	
9	0	0	0	0	743	624	
10	0	0	0	0	742	625	
11	0	0	0	0	740	621	
12	0	0	0	0	739	625	
13	0	0	0	0	738	627	
14	0	0	0	0	737	627	
15	0	0	0	0	737	632	
0	0	0	0	0	736	629	
1	0	0	0	0	734	630	
2	0	0	0	0	733	630	
3	0	0	0	0	731	627	
4	0	0	0	0	730	631	
5	0	0	0	0	729	632	
6	0	0	0	0	729	633	
7	0	0	0	0	728	636	
8	0	0	0	0	728	633	
9	0	0	0	0	727	633	
10	0	0	0	0	727	633	
11	0	0	0	0	727	630	
12	0	0	0	0	727	635	
13	0	0	0	0	728	635	
14	0	0	0	0	728	636	
15	0	0	0	0	728	639	
0	0	0	0	0	728	636	
1	0	0	0	0	729	637	
2	0	0	0	0	729	637	
3	0	0	0	0	729	633	
4	0	0	0	0	729	638	
5	0	0	0	0	729	637	
6	0	0	0	0	728	638	
7	0	0	0	0	727	641	
8	0	0	0	0	728	638	
9	0	0	0	0	727	638	
10	0	0	0	0	727	638	
11	0	0	0	0	726	633	
12	0	0	0	0	726	638	
13	0	0	0	0	727	638	
14	0	0	0	0	727	639	
15	0	0	0	0	727	641	
0	0	0	0	0	726	638	
1	0	0	0	0	724	638	
2	0	0	0	0	723	638	
3	0	0	0	0	722	634	
4	0	0	0	0	721	637	
5	0	0	0	0	720	638	
6	0	0	0	0	719	638	
7	0	0	0	0	717	641	
8	0	0	0	0	716	638	
9	0	0	0	0	714	637	
10	0	0	0	0	712	636	
11	0	0	0	0	711	632	
12	0	0	0	0	711	636	
13	0	0	0	0	709	636	
14	0	0	0	0	708	636	
15	0	0	0	0	707	638	
0	0	0	0	0	707	634	
1	0	0	0	0	706	634	
2	0	0	0	0	706	633	
3	0	0	0	0	704	630	
4	0	0	0	0	704	633	
5	0	0	0	0	705	633	
6	0	0	0	0	705	632	
7	0	0	0	0	705	636	
8	0	0	0	0	705	632	
9	0	0	0	0	704	632	
10	0	0	0	0	704	631	
11	0	0	0	0	704	627	
12	0	0	0	0	704	630	
13	0	0	0	0	703	630	
14	0	0	0	0	702	630	
15	0	0	0	0	702	632	
0	0	0	0	0	702	628	
1	0	0	0	0	702	627	
2	0	0	0	0	701	627	
3	0	0	0	0	700	622	
4	0	0	0	0	697	625	
5	0	0	0	0	697	625	
6	0	0	0	0	696	625	
7	0	0	0	0	694	628	
8	0	0	0	0	692	624	
9	0	0	0	0	690	623	
10	0	0	0	0	689	624	
11	0	0	0	0	688	619	
12	0	0	0	0	688	623	
13	0	0	0	0	687	623	
14	0	0	0	0	687	621	
15	0	0	0	0	687	625	
0	0	0	0	0	687	621	
1	0	0	0	0	687	620	
2	0	0	0	0	687	620	
3	0	0	0	0	687	615	
4	0	0	0	0	686	619	
5	0	0	0	0	685	619	
6	0	0	0	0	684	618	
7	0	0	0	0	682	622	
8	0	0	0	0	681	618	
9	0	0	0	0	680	618	
10	0	0	0	0	679	618	
11	0	0	0	0	679	614	
12	0	0	0	0	677	617	
13	0	0	0	0	675	617	
14	0	0	0	0	674	617	
15	0	0	0	0	673	621	
0	0	0	0	0	673	618	
1	0	0	0	0	672	617	
2	0	0	0	0	672	617	
3	0	0	0	0	673	613	
4	0	0	0	0	672	617	
5	0	0	0	0	672	617	
6	0	0	0	0	672	617	
7	0	0	0	0	672	621	
8	0	0	0	0	671	616	
9	0	0	0	0	670	616	
10	0	0	0	0	670	616	
11	0	0	0	0	669	614	
12	0	0	0	0	668	617	
13	0	0	0	0	668	618	
14	0	0	0	0	671	618	
15	0	0	0	0	675	622	
0	0	0	0	0	679	618	
1	0	0	0	0	684	617	
2	0	0	0	0	691	619	
3	0	0	0	0	700	615	
4	0	0	0	0	710	620	
5	0	0	0	0	722	620	
6	0	0	0	0	736	620	
7	0	0	0	0	752	624	
8	0	0	0	0	768	621	
9	0	0	0	0	785	621	
10	0	0	0	0	801	622	
11	0	0	0	0	816	619	
12	0	0	0	0	831	623	
13	0	0	0	0	846	623	
14	0	0	0	0	862	624	
15	0	0	0	0	879	628	
0	0	0	0	0	897	625	
1	0	0	0	0	916	625	
2	0	0	0	0	936	626	
3	0	0	0	0	955	623	
4	0	0	0	0	972	628	
5	0	0	0	0	984	628	
6	0	0	0	0	995	629	
7	0	0	0	0	1002	633	
8	0	0	0	0	1007	630	
9	0	0	0	0	1011	630	
10	0	0	0	0	1012	630	
11	0	0	0	0	1011	627	
12	0	0	0	0	1008	631	
13	0	0	0	0	1003	632	
14	0	0	0	0	996	632	
15	0	0	0	0	987	636	
0	0	0	0	0	977	632	
1	0	0	0	0	963	632	
2	0	0	0	0	950	633	
3	0	0	0	0	936	629	
4	0	0	0	0	924	632	
5	0	0	0	0	912	633	
6	0	0	0	0	901	634	
7	0	0	0	0	890	637	
8	0	0	0	0	879	633	
9	0	0	0	0	868	633	
10	0	0	0	0	860	633	
11	0	0	0	0	850	629	
12	0	0	0	0	840	633	
13	0	0	0	0	828	633	
14	0	0	0	0	817	634	
15	0	0	0	0	804	637	
0	0	0	0	0	792	632	
1	0	0	0	0	780	633	
2	0	0	0	0	768	632	
3	0	0	0	0	754	628	
4	0	0	0	0	742	632	
5	0	0	0	0	729	632	
6	0	0	0	0	718	632	
7	0	0	0	0	708	635	
8	0	0	0	0	699	631	
9	0	0	0	0	691	630	
10	0	0	0	0	684	630	
11	0	0	0	0	676	626	
12	0	0	0	0	669	630	
13	0	0	0	0	664	629	
14	0	0	0	0	659	629	
15	0	0	0	0	654	632	
0	0	0	0	0	649	628	
1	0	0	0	0	644	627	
2	0	0	0	0	638	626	
3	0	0	0	0	633	623	
4	0	0	0	0	628	625	
5	0	0	0	0	624	625	
6	0	0	0	0	620	625	
7	0	0	0	0	616	628	
8	0	0	0	0	613	624	
9	0	0	0	0	610	624	
10	0	0	0	0	606	623	
11	0	0	0	0	605	618	
12	0	0	0	0	604	622	
13	0	0	0	0	604	623	
14	0	0	0	0	603	622	
15	0	0	0	0	603	624	
0	0	0	0	0	603	621	
1	0	0	0	0	603	621	
2	0	0	0	0	603	620	
3	0	0	0	0	603	616	
4	0	0	0	0	604	620	
5	0	0	0	0	604	620	
6	0	0	0	0	606	620	
7	0	0	0	0	607	623	
8	0	0	0	0	608	619	
9	0	0	0	0	609	619	
10	0	0	0	0	611	619	
11	0	0	0	0	614	614	
12	0	0	0	0	616	619	
13	0	0	0	0	618	618	
14	0	0	0	0	620	619	
15	0	0	0	0	623	623	
0	0	0	0	0	624	618	
1	0	0	0	0	626	618	
2	0	0	0	0	627	618	
3	0	0	0	0	630	614	
4	0	0	0	0	631	618	
5	0	0	0	0	632	618	
6	0	0	0	0	633	619	
7	0	0	0	0	634	622	
8	0	0	0	0	636	618	
9	0	0	0	0	637	618	
10	0	0	0	0	638	617	
11	0	0	0	0	638	613	
12	0	0	0	0	639	617	
13	0	0	0	0	640	617	
14	0	0	0	0	641	618	
15	0	0	0	0	642	620	
0	0	0	0	0	643	617	
1	0	0	0	0	643	618	
2	0	0	0	0	644	617	
3	0	0	0	0	645	614	
4	0	0	0	0	646	618	
5	0	0	0	0	646	617	
6	0	0	0	0	647	618	
7	0	0	0	0	647	622	
8	0	0	0	0	646	618	
9	0	0	0	0	647	618	
10	0	0	0	0	647	618	
11	0	0	0	0	647	614	
12	0	0	0	0	647	618	
13	0	0	0	0	648	619	
14	0	0	0	0	648	619	
15	0	0	0	0	651	622	
0	0	0	0	0	652	618	
1	0	0	0	0	653	618	
2	0	0	0	0	655	618	
3	0	0	0	0	655	615	
4	0	0	0	0	655	619	
5	0	0	0	0	656	620	
6	0	0	0	0	656	620	
7	0	0	0	0	656	624	
8	0	0	0	0	657	621	
9	0	0	0	0	657	621	
10	0	0	0	0	659	621	
11	0	0	0	0	659	617	
12	0	0	0	0	660	622	
13	0	0	0	0	661	622	
14	0	0	0	0	662	623	
15	0	0	0	0	663	626	
0	0	0	0	0	664	623	
1	0	0	0	0	665	623	
2	0	0	0	0	665	623	
3	0	0	0	0	666	620	
4	0	0	0	0	667	624	
5	0	0	0	0	667	624	
6	0	0	0	0	668	624	
7	0	0	0	0	669	627	
8	0	0	0	0	672	624	
9	0	0	0	0	673	623	
10	0	0	0	0	674	623	
11	0	0	0	0	675	620	
12	0	0	0	0	677	623	
13	0	0	0	0	679	624	
14	0	0	0	0	679	623	
15	0	0	0	0	679	627	
0	0	0	0	0	681	623	
1	0	0	0	0	682	624	
2	0	0	0	0	684	623	
3	0	0	0	0	686	619	
4	0	0	0	0	687	623	
5	0	0	0	0	688	622	
6	0	0	0	0	688	623	
7	0	0	0	0	689	626	
8	0	0	0	0	691	622	
9	0	0	0	0	692	621	
10	0	0	0	0	693	622	
11	0	0	0	0	694	618	
12	0	0	0	0	696	622	
13	0	0	0	0	697	622	
14	0	0	0	0	698	622	
15	0	0	0	0	699	626	
0	0	0	0	0	700	622	
1	0	0	0	0	700	623	
2	0	0	0	0	700	623	
3	0	0	0	0	701	619	
4	0	0	0	0	702	623	
5	0	0	0	0	702	624	
6	0	0	0	0	702	624	
7	0	0	0	0	702	629	
8	0	0	0	0	703	625	
9	0	0	0	0	704	626	
10	0	0	0	0	705	625	
11	0	0	0	0	706	622	
12	0	0	0	0	707	625	
13	0	0	0	0	707	626	
14	0	0	0	0	707	626	
15	0	0	0	0	708	629	
0	0	0	0	0	709	626	
1	0	0	0	0	710	626	
2	0	0	0	0	710	626	
3	0	0	0	0	711	622	
4	0	0	0	0	712	625	
5	0	0	0	0	714	626	
6	0	0	0	0	715	626	
7	0	0	0	0	716	630	
8	0	0	0	0	716	626	
9	0	0	0	0	716	625	
10	0	0	0	0	716	625	
11	0	0	0	0	716	621	
12	0	0	0	0	716	625	
13	0	0	0	0	716	625	
14	0	0	0	0	715	625	
15	0	0	0	0	714	629	
0	0	0	0	0	713	624	
1	0	0	0	0	712	624	
2	0	0	0	0	711	624	
3	0	0	0	0	711	620	
4	0	0	0	0	711	624	
5	0	0	0	0	710	624	
6	0	0	0	0	709	624	
7	0	0	0	0	709	627	
8	0	0	0	0	708	624	
9	0	0	0	0	707	623	
10	0	0	0	0	707	624	
11	0	0	0	0	707	620	
12	0	0	0	0	706	624	
13	0	0	0	0	706	624	
14	0	0	0	0	706	623	
15	0	0	0	0	704	627	
0	0	0	0	0	704	624	
1	0	0	0	0	703	624	
2	0	0	0	0	702	624	
3	0	0	0	0	700	620	
4	0	0	0	0	699	624	
5	0	0	0	0	697	624	
6	0	0	0	0	696	623	
7	0	0	0	0	695	626	
8	0	0	0	0	694	623	
9	0	0	0	0	693	622	
10	0	0	0	0	692	622	
11	0	0	0	0	691	619	
12	0	0	0	0	689	622	
13	0	0	0	0	689	622	
14	0	0	0	0	689	622	
15	0	0	0	0	688	625	
0	0	0	0	0	688	621	
1	0	0	0	0	688	621	
2	0	0	0	0	688	621	
3	0	0	0	0	687	617	
4	0	0	0	0	686	621	
5	0	0	0	0	684	621	
6	0	0	0	0	683	621	
7	0	0	0	0	681	625	
8	0	0	0	0	679	622	
9	0	0	0	0	677	622	
10	0	0	0	0	676	622	
11	0	0	0	0	674	618	
12	0	0	0	0	673	623	
13	0	0	0	0	671	622	
14	0	0	0	0	671	623	
15	0	0	0	0	670	627	
0	0	0	0	0	668	622	
1	0	0	0	0	666	623	
2	0	0	0	0	665	622	
3	0	0	0	0	664	618	
4	0	0	0	0	663	623	
5	0	0	0	0	662	622	
6	0	0	0	0	662	622	
7	0	0	0	0	661	625	
8	0	0	0	0	660	622	
9	0	0	0	0	659	622	
10	0	0	0	0	659	622	
11	0	0	0	0	659	618	
12	0	0	0	0	658	622	
13	0	0	0	0	658	623	
14	0	0	0	0	656	622	
15	0	0	0	0	656	626	
0	0	0	0	0	656	623	
1	0	0	0	0	655	623	
2	0	0	0	0	655	623	
3	0	0	0	0	655	619	
4	0	0	0	0	654	624	
5	0	0	0	0	654	624	
6	0	0	0	0	654	623	
7	0	0	0	0	653	627	
8	0	0	0	0	652	624	
9	0	0	0	0	652	624	
10	0	0	0	0	652	624	
11	0	0	0	0	652	621	
12	0	0	0	0	651	625	
13	0	0	0	0	649	626	
14	0	0	0	0	650	626	
15	0	0	0	0	651	629	
0	0	0	0	0	652	626	
1	0	0	0	0	652	627	
2	0	0	0	0	652	627	
3	0	0	0	0	652	624	
4	0	0	0	0	654	629	
5	0	0	0	0	654	629	
6	0	0	0	0	654	630	
7	0	0	0	0	654	633	
8	0	0	0	0	653	630	
9	0	0	0	0	653	630	
10	0	0	0	0	653	631	
11	0	0	0	0	652	627	
12	0	0	0	0	653	631	
13	0	0	0	0	652	631	
14	0	0	0	0	652	632	
15	0	0	0	0	652	635	
0	0	0	0	0	652	631	
1	0	0	0	0	651	631	
2	0	0	0	0	650	632	
3	0	0	0	0	651	627	
4	0	0	0	0	651	631	
5	0	0	0	0	651	632	
6	0	0	0	0	650	632	
7	0	0	0	0	651	635	
8	0	0	0	0	652	631	
9	0	0	0	0	652	630	
10	0	0	0	0	654	630	
11	0	0	0	0	653	626	
12	0	0	0	0	652	629	
13	0	0	0	0	651	629	
14	0	0	0	0	651	628	
15	0	0	0	0	650	631	
0	0	0	0	0	649	627	
1	0	0	0	0	648	627	
2	0	0	0	0	648	626	
3	0	0	0	0	647	622	
4	0	0	0	0	646	626	
5	0	0	0	0	646	625	
6	0	0	0	0	646	625	
7	0	0	0	0	645	628	
8	0	0	0	0	644	624	
9	0	0	0	0	643	624	
10	0	0	0	0	643	623	
11	0	0	0	0	643	620	
12	0	0	0	0	644	623	
13	0	0	0	0	645	623	
14	0	0	0	0	646	623	
15	0	0	0	0	647	627	
0	0	0	0	0	647	623	
1	0	0	0	0	647	623	
2	0	0	0	0	647	623	
3	0	0	0	0	647	619	
4	0	0	0	0	647	624	
5	0	0	0	0	646	624	
6	0	0	0	0	646	624	
7	0	0	0	0	645	628	
8	0	0	0	0	645	624	
9	0	0	0	0	644	624	
10	0	0	0	0	643	624	
11	0	0	0	0	642	620	
12	0	0	0	0	641	624	
13	0	0	0	0	641	624	
14	0	0	0	0	639	624	
15	0	0	0	0	638	628	
0	0	0	0	0	636	626	
1	0	0	0	0	635	625	
2	0	0	0	0	634	625	
3	0	0	0	0	632	621	
4	0	0	0	0	632	625	
5	0	0	0	0	631	625	
6	0	0	0	0	630	624	
7	0	0	0	0	628	628	
8	0	0	0	0	627	624	
9	0	0	0	0	625	623	
10	0	0	0	0	622	623	
11	0	0	0	0	620	618	
12	0	0	0	0	618	622	
13	0	0	0	0	616	621	
14	0	0	0	0	615	622	
15	0	0	0	0	615	625	
0	0	0	0	0	614	621	
1	0	0	0	0	612	622	
2	0	0	0	0	612	622	
3	0	0	0	0	611	618	
4	0	0	0	0	610	623	
5	0	0	0	0	610	623	
6	0	0	0	0	609	623	
7	0	0	0	0	609	626	
8	0	0	0	0	609	623	
9	0	0	0	0	608	623	
10	0	0	0	0	606	622	
11	0	0	0	0	605	619	
12	0	0	0	0	603	622	
13	0	0	0	0	600	622	
14	0	0	0	0	598	622	
15	0	0	0	0	597	624	
0	0	0	0	0	596	620	
1	0	0	0	0	593	620	
2	0	0	0	0	591	620	
3	0	0	0	0	590	616	
4	0	0	0	0	588	620	
5	0	0	0	0	585	619	
6	0	0	0	0	585	619	
7	0	0	0	0	583	623	
8	0	0	0	0	582	619	
9	0	0	0	0	580	619	
10	0	0	0	0	578	619	
11	0	0	0	0	578	615	
12	0	0	0	0	577	619	
13	0	0	0	0	576	619	
14	0	0	0	0	575	619	
15	0	0	0	0	573	623	
0	0	0	0	0	572	619	
1	0	0	0	0	570	620	
2	0	0	0	0	567	619	
3	0	0	0	0	564	615	
4	0	0	0	0	562	620	
5	0	0	0	0	559	620	
6	0	0	0	0	556	619	
7	0	0	0	0	554	623	
8	0	0	0	0	552	619	
9	0	0	0	0	550	618	
10	0	0	0	0	548	618	
11	0	0	0	0	546	614	
12	0	0	0	0	544	619	
13	0	0	0	0	541	618	
14	0	0	0	0	538	619	
15	0	0	0	0	536	622	
0	0	0	0	0	534	618	
1	0	0	0	0	531	618	
2	0	0	0	0	528	618	
3	0	0	0	0	526	614	
4	0	0	0	0	524	618	
5	0	0	0	0	521	618	
6	0	0	0	0	518	619	
7	0	0	0	0	515	622	
8	0	0	0	0	512	619	
9	0	0	0	0	509	619	
10	0	0	0	0	508	619	
11	0	0	0	0	507	615	
12	0	0	0	0	504	619	
13	0	0	0	0	503	619	
14	0	0	0	0	501	620	
15	0	0	0	0	499	624	
0	0	0	0	0	497	619	
1	0	0	0	0	495	620	
2	0	0	0	0	494	620	
3	0	0	0	0	492	615	
4	0	0	0	0	489	620	
5	0	0	0	0	487	620	
6	0	0	0	0	484	620	
7	0	0	0	0	483	624	
8	0	0	0	0	480	621	
9	0	0	0	0	478	621	
10	0	0	0	0	476	621	
11	0	0	0	0	473	617	
12	0	0	0	0	470	621	
13	0	0	0	0	468	622	
14	0	0	0	0	465	621	
15	0	0	0	0	463	625	
0	0	0	0	0	460	621	
1	0	0	0	0	458	621	
2	0	0	0	0	455	621	
3	0	0	0	0	454	617	
4	0	0	0	0	451	621	
5	0	0	0	0	449	620	
6	0	0	0	0	447	621	
7	0	0	0	0	444	624	
8	0	0	0	0	442	621	
9	0	0	0	0	440	621	
10	0	0	0	0	438	621	
11	0	0	0	0	436	616	
12	0	0	0	0	433	620	
13	0	0	0	0	431	621	
14	0	0	0	0	429	621	
15	0	0	0	0	427	624	
0	0	0	0	0	425	621	
1	0	0	0	0	423	620	
2	0	0	0	0	420	621	
3	0	0	0	0	417	617	
4	0	0	0	0	415	621	
5	0	0	0	0	412	621	
6	0	0	0	0	408	620	
7	0	0	0	0	405	624	
8	0	0	0	0	402	620	
9	0	0	0	0	399	620	
10	0	0	0	0	396	620	
11	0	0	0	0	394	616	
12	0	0	0	0	391	620	
13	0	0	0	0	389	620	
14	0	0	0	0	386	620	
15	0	0	0	0	384	623	
0	0	0	0	0	382	620	
1	0	0	0	0	379	620	
2	0	0	0	0	376	620	
3	0	0	0	0	372	615	
4	0	0	0	0	370	620	
5	0	0	0	0	369	620	
6	0	0	0	0	368	620	
7	0	0	0	0	366	624	
8	0	0	0	0	364	620	
9	0	0	0	0	362	620	
10	0	0	0	0	360	619	
11	0	0	0	0	358	615	
12	0	0	0	0	356	619	
13	0	0	0	0	354	620	
14	0	0	0	0	352	619	
15	0	0	0	0	349	623	
0	0	0	0	0	347	619	
1	0	0	0	0	344	619	
2	0	0	0	0	342	619	
3	0	0	0	0	340	615	
4	0	0	0	0	339	619	
5	0	0	0	0	337	620	
6	0	0	0	0	335	620	
7	0	0	0	0	334	623	
8	0	0	0	0	333	620	
9	0	0	0	0	331	620	
10	0	0	0	0	329	620	
11	0	0	0	0	326	616	
12	0	0	0	0	326	619	
13	0	0	0	0	325	620	
14	0	0	0	0	324	620	
15	0	0	0	0	323	624	
0	0	0	0	0	322	620	
1	0	0	0	0	320	620	
2	0	0	0	0	317	620	
3	0	0	0	0	316	616	
4	0	0	0	0	313	620	
5	0	0	0	0	311	620	
6	0	0	0	0	310	619	
7	0	0	0	0	307	623	
8	0	0	0	0	304	620	
9	0	0	0	0	302	620	
10	0	0	0	0	300	620	
11	0	0	0	0	298	616	
12	0	0	0	0	296	621	
13	0	0	0	0	295	621	
14	0	0	0	0	294	620	
15	0	0	0	0	292	624	
0	0	0	0	0	290	620	
1	0	0	0	0	289	620	
2	0	0	0	0	287	620	
3	0	0	0	0	286	617	
4	0	0	0	0	285	621	
5	0	0	0	0	284	621	
6	0	0	0	0	283	621	
7	0	0	0	0	282	625	
8	0	0	0	0	282	621	
9	0	0	0	0	281	621	
10	0	0	0	0	280	621	
11	0	0	0	0	280	618	
12	0	0	0	0	279	622	
13	0	0	0	0	280	622	
14	0	0	0	0	280	623	
15	0	0	0	0	280	626	
0	0	0	0	0	281	622	
1	0	0	0	0	281	622	
2	0	0	0	0	281	623	
3	0	0	0	0	281	619	
4	0	0	0	0	281	623	
5	0	0	0	0	280	623	
6	0	0	0	0	279	623	
7	0	0	0	0	277	626	
8	0	0	0	0	276	623	
9	0	0	0	0	274	623	
10	0	0	0	0	272	624	
11	0	0	0	0	270	620	
12	0	0	0	0	268	624	
13	0	0	0	0	267	624	
14	0	0	0	0	266	624	
15	0	0	0	0	266	627	
0	0	0	0	0	266	624	
1	0	0	0	0	264	624	
2	0	0	0	0	262	624	
3	0	0	0	0	260	619	
4	0	0	0	0	258	624	
5	0	0	0	0	255	624	
6	0	0	0	0	254	624	
7	0	0	0	0	253	628	
8	0	0	0	0	251	624	
9	0	0	0	0	249	624	
10	0	0	0	0	248	624	
11	0	0	0	0	246	619	
12	0	0	0	0	244	623	
13	0	0	0	0	241	624	
14	0	0	0	0	240	624	
15	0	0	0	0	238	627	
0	0	0	0	0	237	623	
1	0	0	0	0	235	624	
2	0	0	0	0	234	623	
3	0	0	0	0	233	619	
4	0	0	0	0	231	623	
5	0	0	0	0	231	622	
6	0	0	0	0	230	623	
7	0	0	0	0	230	626	
8	0	0	0	0	229	623	
9	0	0	0	0	229	622	
10	0	0	0	0	228	623	
11	0	0	0	0	228	619	
12	0	0	0	0	227	623	
13	0	0	0	0	227	622	
14	0	0	0	0	227	622	
15	0	0	0	0	226	625	
0	0	0	0	0	225	622	
1	0	0	0	0	225	623	
2	0	0	0	0	223	622	
3	0	0	0	0	223	618	
4	0	0	0	0	223	622	
5	0	0	0	0	223	621	
6	0	0	0	0	222	621	
7	0	0	0	0	221	625	
8	0	0	0	0	220	621	
9	0	0	0	0	219	621	
10	0	0	0	0	218	621	
11	0	0	0	0	217	617	
12	0	0	0	0	216	620	
13	0	0	0	0	216	620	
14	0	0	0	0	215	620	
15	0	0	0	0	215	625	
0	0	0	0	0	214	620	
1	0	0	0	0	214	620	
2	0	0	0	0	213	620	
3	0	0	0	0	210	616	
4	0	0	0	0	209	620	
5	0	0	0	0	208	620	
6	0	0	0	0	207	620	
7	0	0	0	0	204	623	
8	0	0	0	0	203	619	
9	0	0	0	0	201	619	
10	0	0	0	0	199	619	
11	0	0	0	0	198	615	
12	0	0	0	0	196	619	
13	0	0	0	0	195	619	
14	0	0	0	0	194	619	
15	0	0	0	0	194	623	
0	0	0	0	0	193	619	
1	0	0	0	0	194	619	
2	0	0	0	0	194	619	
3	0	0	0	0	193	615	
4	0	0	0	0	192	620	
5	0	0	0	0	191	620	
6	0	0	0	0	190	620	
7	0	0	0	0	188	624	
8	0	0	0	0	187	620	
9	0	0	0	0	186	620	
10	0	0	0	0	186	620	
11	0	0	0	0	185	616	
12	0	0	0	0	185	620	
13	0	0	0	0	184	619	
14	0	0	0	0	185	620	
15	0	0	0	0	186	624	
0	0	0	0	0	187	620	
1	0	0	0	0	186	620	
2	0	0	0	0	186	620	
3	0	0	0	0	187	616	
4	0	0	0	0	188	620	
5	0	0	0	0	189	621	
6	0	0	0	0	190	620	
7	0	0	0	0	191	624	
8	0	0	0	0	191	620	
9	0	0	0	0	191	620	
10	0	0	0	0	191	621	
11	0	0	0	0	190	617	
12	0	0	0	0	190	621	
13	0	0	0	0	189	621	
14	0	0	0	0	189	622	
15	0	0	0	0	189	625	
0	0	0	0	0	189	622	
1	0	0	0	0	190	622	
2	0	0	0	0	191	622	
3	0	0	0	0	191	617	
4	0	0	0	0	192	622	
5	0	0	0	0	193	622	
6	0	0	0	0	193	622	
7	0	0	0	0	194	625	
8	0	0	0	0	195	622	
9	0	0	0	0	196	622	
10	0	0	0	0	197	622	
11	0	0	0	0	197	617	
12	0	0	0	0	198	622	
13	0	0	0	0	199	622	
14	0	0	0	0	199	623	
15	0	0	0	0	199	625	
0	0	0	0	0	199	622	
1	0	0	0	0	199	622	
2	0	0	0	0	200	622	
3	0	0	0	0	201	618	
4	0	0	0	0	201	622	
5	0	0	0	0	201	622	
6	0	0	0	0	203	622	
7	0	0	0	0	204	626	
8	0	0	0	0	205	622	
9	0	0	0	0	205	622	
10	0	0	0	0	206	622	
11	0	0	0	0	207	617	
12	0	0	0	0	210	622	
13	0	0	0	0	211	622	
14	0	0	0	0	213	621	
15	0	0	0	0	214	625	
0	0	0	0	0	216	622	
1	0	0	0	0	218	621	
2	0	0	0	0	219	621	
3	0	0	0	0	220	617	
4	0	0	0	0	221	621	
5	0	0	0	0	221	621	
6	0	0	0	0	223	621	
7	0	0	0	0	223	625	
8	0	0	0	0	224	621	
9	0	0	0	0	225	621	
10	0	0	0	0	227	620	
11	0	0	0	0	228	616	
12	0	0	0	0	229	620	
13	0	0	0	0	231	620	
14	0	0	0	0	231	620	
15	0	0	0	0	232	624	
0	0	0	0	0	233	620	
1	0	0	0	0	234	620	
2	0	0	0	0	234	621	
3	0	0	0	0	235	617	
4	0	0	0	0	235	621	
5	0	0	0	0	236	621	
6	0	0	0	0	237	622	
7	0	0	0	0	239	625	
8	0	0	0	0	240	622	
9	0	0	0	0	241	621	
10	0	0	0	0	242	621	
11	0	0	0	0	242	617	
12	0	0	0	0	243	621	
13	0	0	0	0	244	622	
14	0	0	0	0	246	622	
15	0	0	0	0	248	625	
0	0	0	0	0	250	622	
1	0	0	0	0	252	621	
2	0	0	0	0	254	622	
3	0	0	0	0	255	618	
4	0	0	0	0	256	622	
5	0	0	0	0	257	622	
6	0	0	0	0	258	622	
7	0	0	0	0	259	625	
8	0	0	0	0	261	622	
9	0	0	0	0	262	622	
10	0	0	0	0	263	622	
11	0	0	0	0	263	618	
12	0	0	0	0	263	622	
13	0	0	0	0	263	622	
14	0	0	0	0	264	623	
15	0	0	0	0	263	626	
0	0	0	0	0	263	622	
1	0	0	0	0	263	622	
2	0	0	0	0	263	622	
3	0	0	0	0	263	619	
4	0	0	0	0	263	622	
5	0	0	0	0	263	623	
6	0	0	0	0	264	623	
7	0	0	0	0	264	627	
8	0	0	0	0	264	623	
9	0	0	0	0	265	623	
10	0	0	0	0	266	623	
11	0	0	0	0	266	620	
12	0	0	0	0	267	624	
13	0	0	0	0	267	624	
14	0	0	0	0	268	623	
15	0	0	0	0	269	627	
0	0	0	0	0	269	624	
1	0	0	0	0	269	624	
2	0	0	0	0	269	623	
3	0	0	0	0	269	619	
4	0	0	0	0	268	623	
5	0	0	0	0	269	623	
6	0	0	0	0	270	623	
7	0	0	0	0	270	627	
8	0	0	0	0	271	623	
9	0	0	0	0	271	623	
10	0	0	0	0	272	623	
11	0	0	0	0	273	620	
12	0	0	0	0	273	623	
13	0	0	0	0	272	623	
14	0	0	0	0	273	623	
15	0	0	0	0	273	627	
0	0	0	0	0	275	624	
1	0	0	0	0	275	624	
2	0	0	0	0	275	624	
3	0	0	0	0	275	620	
4	0	0	0	0	276	624	
5	0	0	0	0	275	624	
6	0	0	0	0	276	625	
7	0	0	0	0	278	629	
8	0	0	0	0	281	625	
9	0	0	0	0	287	625	
10	0	0	0	0	294	624	
11	0	0	0	0	303	621	
12	0	0	0	0	312	625	
13	0	0	0	0	321	625	
14	0	0	0	0	333	626	
15	0	0	0	0	344	629	
0	0	0	0	0	358	625	
1	0	0	0	0	374	626	
2	0	0	0	0	390	626	
3	0	0	0	0	407	621	
4	0	0	0	0	423	625	
5	0	0	0	0	439	626	
6	0	0	0	0	455	625	
7	0	0	0	0	470	629	
8	0	0	0	0	486	625	
9	0	0	0	0	502	625	
10	0	0	0	0	520	625	
11	0	0	0	0	539	622	
12	0	0	0	0	558	625	
13	0	0	0	0	578	625	
14	0	0	0	0	596	625	
15	0	0	0	0	614	628	
0	0	0	0	0	628	624	
1	0	0	0	0	639	624	
2	0	0	0	0	649	625	
3	0	0	0	0	656	620	
4	0	0	0	0	661	624	
5	0	0	0	0	663	624	
6	0	0	0	0	663	624	
7	0	0	0	0	661	628	
8	0	0	0	0	657	624	
9	0	0	0	0	652	623	
10	0	0	0	0	644	624	
11	0	0	0	0	635	620	
12	0	0	0	0	624	623	
13	0	0	0	0	613	624	
14	0	0	0	0	601	624	
15	0	0	0	0	589	627	
0	0	0	0	0	579	623	
1	0	0	0	0	571	623	
2	0	0	0	0	562	622	
3	0	0	0	0	553	619	
4	0	0	0	0	544	623	
5	0	0	0	0	535	623	
6	0	0	0	0	527	623	
7	0	0	0	0	519	626	
8	0	0	0	0	509	623	
9	0	0	0	0	498	622	
10	0	0	0	0	486	622	
11	0	0	0	0	475	618	
12	0	0	0	0	461	622	
13	0	0	0	0	449	622	
14	0	0	0	0	436	622	
15	0	0	0	0	424	625	
0	0	0	0	0	412	622	
1	0	0	0	0	400	622	
2	0	0	0	0	390	622	
3	0	0	0	0	380	618	
4	0	0	0	0	371	622	
5	0	0	0	0	362	621	
6	0	0	0	0	354	622	
7	0	0	0	0	346	625	
8	0	0	0	0	339	622	
9	0	0	0	0	332	621	
10	0	0	0	0	327	621	
11	0	0	0	0	321	617	
12	0	0	0	0	315	622	
13	0	0	0	0	309	622	
14	0	0	0	0	302	622	
15	0	0	0	0	295	626	
0	0	0	0	0	289	622	
1	0	0	0	0	283	623	
2	0	0	0	0	278	622	
3	0	0	0	0	273	618	
4	0	0	0	0	268	623	
5	0	0	0	0	264	622	
6	0	0	0	0	261	623	
7	0	0	0	0	258	627	
8	0	0	0	0	255	623	
9	0	0	0	0	253	623	
10	0	0	0	0	252	622	
11	0	0	0	0	251	618	
12	0	0	0	0	249	623	
13	0	0	0	0	248	622	
14	0	0	0	0	247	622	
15	0	0	0	0	245	625	
0	0	0	0	0	245	622	
1	0	0	0	0	245	622	
2	0	0	0	0	245	622	
3	0	0	0	0	246	617	
4	0	0	0	0	246	621	
5	0	0	0	0	247	621	
6	0	0	0	0	248	621	
7	0	0	0	0	250	625	
8	0	0	0	0	251	622	
9	0	0	0	0	251	621	
10	0	0	0	0	252	621	
11	0	0	0	0	254	616	
12	0	0	0	0	255	620	
13	0	0	0	0	256	620	
14	0	0	0	0	258	621	
15	0	0	0	0	259	624	
0	0	0	0	0	261	620	
1	0	0	0	0	263	621	
2	0	0	0	0	264	620	
3	0	0	0	0	265	616	
4	0	0	0	0	266	620	
5	0	0	0	0	266	620	
6	0	0	0	0	267	620	
7	0	0	0	0	269	624	
8	0	0	0	0	270	620	
9	0	0	0	0	271	620	
10	0	0	0	0	272	620	
11	0	0	0	0	273	616	
12	0	0	0	0	275	620	
13	0	0	0	0	275	620	
14	0	0	0	0	276	621	
15	0	0	0	0	277	624	
0	0	0	0	0	278	620	
1	0	0	0	0	279	620	
2	0	0	0	0	281	620	
3	0	0	0	0	282	616	
4	0	0	0	0	283	620	
5	0	0	0	0	284	620	
6	0	0	0	0	285	620	
7	0	0	0	0	285	624	
8	0	0	0	0	286	620	
9	0	0	0	0	287	620	
10	0	0	0	0	288	620	
11	0	0	0	0	289	616	
12	0	0	0	0	290	620	
13	0	0	0	0	291	620	
14	0	0	0	0	292	620	
15	0	0	0	0	292	624	
0	0	0	0	0	294	620	
1	0	0	0	0	295	620	
2	0	0	0	0	295	620	
3	0	0	0	0	295	616	
4	0	0	0	0	294	620	
5	0	0	0	0	295	620	
6	0	0	0	0	295	620	
7	0	0	0	0	295	624	
8	0	0	0	0	296	620	
9	0	0	0	0	297	620	
10	0	0	0	0	297	620	
11	0	0	0	0	298	616	
12	0	0	0	0	298	620	
13	0	0	0	0	298	620	
14	0	0	0	0	298	621	
15	0	0	0	0	298	624	
0	0	0	0	0	298	621	
1	0	0	0	0	298	621	
2	0	0	0	0	298	621	
3	0	0	0	0	298	617	
4	0	0	0	0	299	620	
5	0	0	0	0	299	621	
6	0	0	0	0	300	621	
7	0	0	0	0	301	625	
8	0	0	0	0	301	621	
9	0	0	0	0	301	621	
10	0	0	0	0	302	621	
11	0	0	0	0	303	616	
12	0	0	0	0	304	622	
13	0	0	0	0	305	622	
14	0	0	0	0	306	621	
15	0	0	0	0	307	625	
0	0	0	0	0	308	622	
1	0	0	0	0	309	622	
2	0	0	0	0	310	622	
3	0	0	0	0	312	617	
4	0	0	0	0	313	621	
5	0	0	0	0	314	620	
6	0	0	0	0	316	621	
7	0	0	0	0	317	624	
8	0	0	0	0	318	621	
9	0	0	0	0	320	620	
10	0	0	0	0	322	620	
11	0	0	0	0	323	617	
12	0	0	0	0	325	621	
13	0	0	0	0	326	620	
14	0	0	0	0	328	621	
15	0	0	0	0	330	624	
0	0	0	0	0	332	621	
1	0	0	0	0	332	622	
2	0	0	0	0	334	622	
3	0	0	0	0	335	617	
4	0	0	0	0	337	622	
5	0	0	0	0	338	621	
6	0	0	0	0	340	622	
7	0	0	0	0	342	626	
8	0	0	0	0	344	621	
9	0	0	0	0	346	622	
10	0	0	0	0	347	622	
11	0	0	0	0	348	617	
12	0	0	0	0	350	622	
13	0	0	0	0	352	622	
14	0	0	0	0	354	623	
15	0	0	0	0	356	626	
0	0	0	0	0	358	623	
1	0	0	0	0	360	623	
2	0	0	0	0	361	622	
3	0	0	0	0	363	619	
4	0	0	0	0	365	622	
5	0	0	0	0	366	623	
6	0	0	0	0	367	623	
7	0	0	0	0	368	627	
8	0	0	0	0	371	623	
9	0	0	0	0	371	623	
10	0	0	0	0	372	623	
11	0	0	0	0	373	619	
12	0	0	0	0	375	623	
13	0	0	0	0	377	623	
14	0	0	0	0	378	624	
15	0	0	0	0	380	627	
0	0	0	0	0	384	623	
1	0	0	0	0	386	623	
2	0	0	0	0	390	624	
3	0	0	0	0	392	620	
4	0	0	0	0	395	624	
5	0	0	0	0	397	624	
6	0	0	0	0	399	624	
7	0	0	0	0	400	628	
8	0	0	0	0	402	624	
9	0	0	0	0	404	624	
10	0	0	0	0	406	624	
11	0	0	0	0	408	620	
12	0	0	0	0	410	625	
13	0	0	0	0	411	624	
14	0	0	0	0	411	625	
15	0	0	0	0	412	628	
0	0	0	0	0	413	625	
1	0	0	0	0	415	624	
2	0	0	0	0	419	625	
3	0	0	0	0	422	621	
4	0	0	0	0	424	625	
5	0	0	0	0	427	624	
6	0	0	0	0	429	625	
7	0	0	0	0	429	628	
8	0	0	0	0	431	625	
9	0	0	0	0	432	625	
10	0	0	0	0	433	624	
11	0	0	0	0	435	620	
12	0	0	0	0	437	625	
13	0	0	0	0	439	624	
14	0	0	0	0	440	625	
15	0	0	0	0	442	628	
0	0	0	0	0	443	624	
1	0	0	0	0	444	624	
2	0	0	0	0	445	624	
3	0	0	0	0	447	620	
4	0	0	0	0	448	624	
5	0	0	0	0	448	624	
6	0	0	0	0	449	624	
7	0	0	0	0	449	627	
8	0	0	0	0	450	623	
9	0	0	0	0	451	624	
10	0	0	0	0	452	623	
11	0	0	0	0	452	619	
12	0	0	0	0	454	623	
13	0	0	0	0	455	624	
14	0	0	0	0	455	623	
15	0	0	0	0	455	627	
0	0	0	0	0	457	623	
1	0	0	0	0	457	623	
2	0	0	0	0	457	622	
3	0	0	0	0	458	618	
4	0	0	0	0	458	622	
5	0	0	0	0	459	622	
6	0	0	0	0	459	622	
7	0	0	0	0	461	625	
8	0	0	0	0	462	622	
9	0	0	0	0	463	622	
10	0	0	0	0	463	622	
11	0	0	0	0	464	617	
12	0	0	0	0	465	622	
13	0	0	0	0	467	621	
14	0	0	0	0	468	621	
15	0	0	0	0	470	624	
0	0	0	0	0	470	620	
1	0	0	0	0	472	621	
2	0	0	0	0	472	620	
3	0	0	0	0	473	616	
4	0	0	0	0	473	620	
5	0	0	0	0	474	620	
6	0	0	0	0	476	620	
7	0	0	0	0	476	623	
8	0	0	0	0	478	619	
9	0	0	0	0	479	619	
10	0	0	0	0	479	619	
11	0	0	0	0	480	615	
12	0	0	0	0	481	619	
13	0	0	0	0	482	618	
14	0	0	0	0	483	619	
15	0	0	0	0	483	622	
0	0	0	0	0	483	618	
1	0	0	0	0	483	618	
2	0	0	0	0	483	617	
3	0	0	0	0	483	613	
4	0	0	0	0	483	617	
5	0	0	0	0	483	617	
6	0	0	0	0	483	617	
7	0	0	0	0	483	621	
8	0	0	0	0	483	617	
9	0	0	0	0	482	616	
10	0	0	0	0	482	617	
11	0	0	0	0	482	613	
12	0	0	0	0	482	616	
13	0	0	0	0	483	617	
14	0	0	0	0	483	617	
15	0	0	0	0	485	621	
0	0	0	0	0	486	617	
1	0	0	0	0	487	617	
2	0	0	0	0	489	618	
3	0	0	0	0	489	614	
4	0	0	0	0	491	618	
5	0	0	0	0	492	619	
6	0	0	0	0	492	619	
7	0	0	0	0	493	622	
8	0	0	0	0	494	619	
9	0	0	0	0	494	619	
10	0	0	0	0	494	620	
11	0	0	0	0	494	616	
12	0	0	0	0	495	620	
13	0	0	0	0	495	620	
14	0	0	0	0	495	621	
15	0	0	0	0	495	625	
0	0	0	0	0	496	622	
1	0	0	0	0	496	622	
2	0	0	0	0	497	622	
3	0	0	0	0	498	618	
4	0	0	0	0	499	623	
5	0	0	0	0	501	623	
6	0	0	0	0	502	623	
7	0	0	0	0	503	627	
8	0	0	0	0	505	624	
9	0	0	0	0	508	624	
10	0	0	0	0	510	624	
11	0	0	0	0	511	620	
12	0	0	0	0	512	624	
13	0	0	0	0	514	625	
14	0	0	0	0	515	625	
15	0	0	0	0	516	629	
0	0	0	0	0	518	625	
1	0	0	0	0	519	626	
2	0	0	0	0	520	626	
3	0	0	0	0	521	622	
4	0	0	0	0	523	627	
5	0	0	0	0	525	627	
6	0	0	0	0	525	627	
7	0	0	0	0	527	631	
8	0	0	0	0	528	627	
9	0	0	0	0	529	627	
10	0	0	0	0	531	627	
11	0	0	0	0	533	623	
12	0	0	0	0	535	628	
13	0	0	0	0	537	628	
14	0	0	0	0	539	628	
15	0	0	0	0	542	632	
0	0	0	0	0	544	628	
1	0	0	0	0	545	628	
2	0	0	0	0	546	628	
3	0	0	0	0	548	624	
4	0	0	0	0	550	628	
5	0	0	0	0	551	627	
6	0	0	0	0	554	628	
7	0	0	0	0	556	631	
8	0	0	0	0	559	628	
9	0	0	0	0	561	628	
10	0	0	0	0	563	627	
11	0	0	0	0	565	623	
12	0	0	0	0	566	627	
13	0	0	0	0	567	627	
14	0	0	0	0	568	627	
15	0	0	0	0	567	631	
0	0	0	0	0	567	626	
1	0	0	0	0	567	626	
2	0	0	0	0	568	627	
3	0	0	0	0	569	622	
4	0	0	0	0	570	626	
5	0	0	0	0	572	627	
6	0	0	0	0	572	627	
7	0	0	0	0	573	629	
8	0	0	0	0	574	626	
9	0	0	0	0	574	625	
10	0	0	0	0	575	626	
11	0	0	0	0	575	622	
12	0	0	0	0	576	625	
13	0	0	0	0	577	625	
14	0	0	0	0	577	625	
15	0	0	0	0	578	629	
0	0	0	0	0	577	625	
1	0	0	0	0	578	625	
2	0	0	0	0	578	625	
3	0	0	0	0	577	621	
4	0	0	0	0	577	625	
5	0	0	0	0	577	625	
6	0	0	0	0	577	625	
7	0	0	0	0	576	629	
8	0	0	0	0	575	625	
9	0	0	0	0	575	625	
10	0	0	0	0	575	625	
11	0	0	0	0	575	621	
12	0	0	0	0	574	625	
13	0	0	0	0	574	624	
14	0	0	0	0	574	625	
15	0	0	0	0	574	628	
0	0	0	0	0	574	624	
1	0	0	0	0	574	625	
2	0	0	0	0	574	625	
3	0	0	0	0	574	620	
4	0	0	0	0	574	624	
5	0	0	0	0	574	624	
6	0	0	0	0	573	624	
7	0	0	0	0	573	627	
8	0	0	0	0	573	624	
9	0	0	0	0	572	624	
10	0	0	0	0	572	624	
11	0	0	0	0	571	620	
12	0	0	0	0	570	624	
13	0	0	0	0	570	624	
14	0	0	0	0	569	624	
15	0	0	0	0	568	627	
0	0	0	0	0	568	624	
1	0	0	0	0	566	624	
2	0	0	0	0	565	624	
3	0	0	0	0	564	620	
4	0	0	0	0	563	624	
5	0	0	0	0	562	624	
6	0	0	0	0	560	624	
7	0	0	0	0	560	628	
8	0	0	0	0	559	624	
9	0	0	0	0	559	624	
10	0	0	0	0	559	624	
11	0	0	0	0	559	620	
12	0	0	0	0	559	623	
13	0	0	0	0	559	623	
14	0	0	0	0	558	624	
15	0	0	0	0	557	627	
0	0	0	0	0	557	623	
1	0	0	0	0	556	623	
2	0	0	0	0	556	623	
3	0	0	0	0	556	619	
4	0	0	0	0	554	623	
5	0	0	0	0	552	623	
6	0	0	0	0	550	623	
7	0	0	0	0	548	625	
8	0	0	0	0	547	622	
9	0	0	0	0	545	623	
10	0	0	0	0	543	622	
11	0	0	0	0	541	618	
12	0	0	0	0	538	622	
13	0	0	0	0	537	622	
14	0	0	0	0	534	622	
15	0	0	0	0	533	625	
0	0	0	0	0	532	622	
1	0	0	0	0	531	621	
2	0	0	0	0	530	621	
3	0	0	0	0	529	617	
4	0	0	0	0	527	622	
5	0	0	0	0	527	622	
6	0	0	0	0	526	622	
7	0	0	0	0	524	625	
8	0	0	0	0	523	621	
9	0	0	0	0	521	621	
10	0	0	0	0	521	621	
11	0	0	0	0	519	617	
12	0	0	0	0	518	622	
13	0	0	0	0	515	621	
14	0	0	0	0	513	622	
15	0	0	0	0	512	625	
0	0	0	0	0	510	622	
1	0	0	0	0	508	622	
2	0	0	0	0	507	621	
3	0	0	0	0	505	617	
4	0	0	0	0	504	621	
5	0	0	0	0	501	622	
6	0	0	0	0	499	622	
7	0	0	0	0	497	625	
8	0	0	0	0	495	622	
9	0	0	0	0	493	622	
10	0	0	0	0	490	622	
11	0	0	0	0	488	618	
12	0	0	0	0	486	622	
13	0	0	0	0	484	622	
14	0	0	0	0	483	623	
15	0	0	0	0	482	626	
0	0	0	0	0	480	623	
1	0	0	0	0	479	623	
2	0	0	0	0	478	623	
3	0	0	0	0	476	619	
4	0	0	0	0	475	622	
5	0	0	0	0	472	623	
6	0	0	0	0	471	623	
7	0	0	0	0	469	627	
8	0	0	0	0	467	623	
9	0	0	0	0	466	623	
10	0	0	0	0	464	623	
11	0	0	0	0	463	620	
12	0	0	0	0	460	624	
13	0	0	0	0	456	624	
14	0	0	0	0	454	624	
15	0	0	0	0	453	628	
0	0	0	0	0	452	624	
1	0	0	0	0	451	624	
2	0	0	0	0	449	624	
3	0	0	0	0	448	621	
4	0	0	0	0	447	624	
5	0	0	0	0	446	625	
6	0	0	0	0	444	625	
7	0	0	0	0	443	629	
8	0	0	0	0	441	625	
9	0	0	0	0	440	625	
10	0	0	0	0	440	625	
11	0	0	0	0	439	621	
12	0	0	0	0	438	626	
13	0	0	0	0	437	625	
14	0	0	0	0	436	625	
15	0	0	0	0	435	629	
0	0	0	0	0	434	625	
1	0	0	0	0	432	626	
2	0	0	0	0	431	625	
3	0	0	0	0	431	622	
4	0	0	0	0	431	625	
5	0	0	0	0	430	626	
6	0	0	0	0	430	625	
7	0	0	0	0	429	629	
8	0	0	0	0	429	626	
9	0	0	0	0	428	626	
10	0	0	0	0	428	626	
11	0	0	0	0	427	623	
12	0	0	0	0	426	626	
13	0	0	0	0	426	626	
14	0	0	0	0	425	626	
15	0	0	0	0	427	630	
0	0	0	0	0	428	627	
1	0	0	0	0	429	627	
2	0	0	0	0	430	626	
3	0	0	0	0	430	623	
4	0	0	0	0	432	627	
5	0	0	0	0	433	627	
6	0	0	0	0	434	627	
7	0	0	0	0	434	630	
8	0	0	0	0	435	627	
9	0	0	0	0	435	627	
10	0	0	0	0	435	627	
11	0	0	0	0	436	623	
12	0	0	0	0	437	627	
13	0	0	0	0	438	626	
14	0	0	0	0	439	627	
15	0	0	0	0	441	630	
0	0	0	0	0	442	626	
1	0	0	0	0	443	627	
2	0	0	0	0	444	627	
3	0	0	0	0	445	622	
4	0	0	0	0	446	626	
5	0	0	0	0	446	626	
6	0	0	0	0	447	626	
7	0	0	0	0	448	629	
8	0	0	0	0	449	626	
9	0	0	0	0	450	625	
10	0	0	0	0	451	626	
11	0	0	0	0	453	622	
12	0	0	0	0	454	625	
13	0	0	0	0	456	625	
14	0	0	0	0	458	624	
15	0	0	0	0	460	627	
0	0	0	0	0	460	624	
1	0	0	0	0	460	624	
2	0	0	0	0	461	624	
3	0	0	0	0	461	621	
4	0	0	0	0	462	624	
5	0	0	0	0	464	624	
6	0	0	0	0	466	624	
7	0	0	0	0	468	628	
8	0	0	0	0	470	624	
9	0	0	0	0	471	624	
10	0	0	0	0	472	624	
11	0	0	0	0	472	620	
12	0	0	0	0	472	624	
13	0	0	0	0	473	623	
14	0	0	0	0	473	623	
15	0	0	0	0	473	627	
0	0	0	0	0	473	623	
1	0	0	0	0	473	623	
2	0	0	0	0	474	623	
3	0	0	0	0	475	619	
4	0	0	0	0	476	623	
5	0	0	0	0	475	623	
6	0	0	0	0	475	624	
7	0	0	0	0	476	627	
8	0	0	0	0	476	623	
9	0	0	0	0	476	623	
10	0	0	0	0	476	623	
11	0	0	0	0	476	619	
12	0	0	0	0	477	623	
13	0	0	0	0	478	623	
14	0	0	0	0	479	623	
15	0	0	0	0	479	626	
0	0	0	0	0	479	622	
1	0	0	0	0	480	622	
2	0	0	0	0	480	622	
3	0	0	0	0	481	619	
4	0	0	0	0	481	623	
5	0	0	0	0	481	623	
6	0	0	0	0	481	623	
7	0	0	0	0	481	626	
8	0	0	0	0	481	622	
9	0	0	0	0	482	622	
10	0	0	0	0	482	622	
11	0	0	0	0	482	619	
12	0	0	0	0	483	622	
13	0	0	0	0	484	622	
14	0	0	0	0	484	623	
15	0	0	0	0	483	626	
0	0	0	0	0	483	623	
1	0	0	0	0	483	622	
2	0	0	0	0	484	622	
3	0	0	0	0	485	619	
4	0	0	0	0	485	623	
5	0	0	0	0	486	622	
6	0	0	0	0	487	623	
7	0	0	0	0	488	626	
8	0	0	0	0	489	623	
9	0	0	0	0	489	622	
10	0	0	0	0	491	622	
11	0	0	0	0	491	618	
12	0	0	0	0	492	622	
13	0	0	0	0	494	622	
14	0	0	0	0	494	623	
15	0	0	0	0	495	626	
0	0	0	0	0	495	622	
1	0	0	0	0	495	623	
2	0	0	0	0	495	623	
3	0	0	0	0	496	618	
4	0	0	0	0	496	622	
5	0	0	0	0	497	622	
6	0	0	0	0	497	622	
7	0	0	0	0	497	626	
8	0	0	0	0	497	622	
9	0	0	0	0	498	622	
10	0	0	0	0	498	622	
11	0	0	0	0	499	618	
12	0	0	0	0	500	622	
13	0	0	0	0	500	622	
14	0	0	0	0	499	622	
15	0	0	0	0	499	626	
0	0	0	0	0	498	622	
1	0	0	0	0	497	622	
2	0	0	0	0	497	623	
3	0	0	0	0	497	619	
4	0	0	0	0	496	623	
5	0	0	0	0	496	622	
6	0	0	0	0	496	622	
7	0	0	0	0	496	625	
8	0	0	0	0	497	622	
9	0	0	0	0	497	622	
10	0	0	0	0	497	622	
11	0	0	0	0	497	618	
12	0	0	0	0	497	623	
13	0	0	0	0	497	623	
14	0	0	0	0	497	623	
15	0	0	0	0	497	627	
0	0	0	0	0	498	623	
1	0	0	0	0	497	622	
2	0	0	0	0	496	623	
3	0	0	0	0	496	618	
4	0	0	0	0	494	623	
5	0	0	0	0	493	623	
6	0	0	0	0	492	623	
7	0	0	0	0	492	627	
8	0	0	0	0	492	624	
9	0	0	0	0	492	623	
10	0	0	0	0	491	623	
11	0	0	0	0	490	619	
12	0	0	0	0	490	623	
13	0	0	0	0	489	623	
14	0	0	0	0	489	624	
15	0	0	0	0	488	627	
0	0	0	0	0	487	624	
1	0	0	0	0	486	623	
2	0	0	0	0	485	624	
3	0	0	0	0	484	619	
4	0	0	0	0	482	623	
5	0	0	0	0	480	623	
6	0	0	0	0	479	622	
7	0	0	0	0	478	627	
8	0	0	0	0	476	623	
9	0	0	0	0	476	623	
10	0	0	0	0	476	623	
11	0	0	0	0	475	618	
12	0	0	0	0	475	623	
13	0	0	0	0	476	623	
14	0	0	0	0	475	623	
15	0	0	0	0	474	626	
0	0	0	0	0	473	623	
1	0	0	0	0	472	622	
2	0	0	0	0	472	622	
3	0	0	0	0	472	618	
4	0	0	0	0	471	622	
5	0	0	0	0	470	623	
6	0	0	0	0	469	623	
7	0	0	0	0	468	627	
8	0	0	0	0	468	623	
9	0	0	0	0	468	623	
10	0	0	0	0	468	623	
11	0	0	0	0	468	619	
12	0	0	0	0	467	624	
13	0	0	0	0	467	623	
14	0	0	0	0	467	623	
15	0	0	0	0	467	626	
0	0	0	0	0	467	624	
1	0	0	0	0	467	624	
2	0	0	0	0	467	623	
3	0	0	0	0	467	619	
4	0	0	0	0	467	623	
5	0	0	0	0	467	623	
6	0	0	0	0	467	623	
7	0	0	0	0	467	626	
8	0	0	0	0	468	623	
9	0	0	0	0	468	623	
10	0	0	0	0	468	623	
11	0	0	0	0	469	619	
12	0	0	0	0	471	623	
13	0	0	0	0	472	622	
14	0	0	0	0	472	623	
15	0	0	0	0	473	626	
0	0	0	0	0	474	622	
1	0	0	0	0	475	623	
2	0	0	0	0	477	622	
3	0	0	0	0	479	617	
4	0	0	0	0	481	621	
5	0	0	0	0	483	621	
6	0	0	0	0	485	621	
7	0	0	0	0	486	625	
8	0	0	0	0	488	620	
9	0	0	0	0	490	621	
10	0	0	0	0	491	621	
11	0	0	0	0	493	616	
12	0	0	0	0	494	621	
13	0	0	0	0	495	621	
14	0	0	0	0	496	621	
15	0	0	0	0	497	624	
0	0	0	0	0	497	620	
1	0	0	0	0	497	621	
2	0	0	0	0	497	621	
3	0	0	0	0	496	617	
4	0	0	0	0	497	621	
5	0	0	0	0	498	621	
6	0	0	0	0	497	621	
7	0	0	0	0	498	625	
8	0	0	0	0	496	621	
9	0	0	0	0	496	621	
10	0	0	0	0	495	622	
11	0	0	0	0	494	617	
12	0	0	0	0	494	622	
13	0	0	0	0	493	622	
14	0	0	0	0	492	622	
15	0	0	0	0	492	625	
0	0	0	0	0	491	622	
1	0	0	0	0	491	622	
2	0	0	0	0	490	623	
3	0	0	0	0	490	620	
4	0	0	0	0	489	623	
5	0	0	0	0	487	623	
6	0	0	0	0	486	623	
7	0	0	0	0	484	627	
8	0	0	0	0	483	624	
9	0	0	0	0	481	623	
10	0	0	0	0	480	623	
11	0	0	0	0	481	619	
12	0	0	0	0	484	623	
13	0	0	0	0	487	623	
14	0	0	0	0	495	623	
15	0	0	0	0	503	626	
0	0	0	0	0	513	623	
1	0	0	0	0	525	624	
2	0	0	0	0	540	624	
3	0	0	0	0	557	619	
4	0	0	0	0	575	623	
5	0	0	0	0	592	624	
6	0	0	0	0	608	624	
7	0	0	0	0	624	627	
8	0	0	0	0	639	624	
9	0	0	0	0	654	624	
10	0	0	0	0	669	624	
11	0	0	0	0	685	620	
12	0	0	0	0	704	624	
13	0	0	0	0	724	624	
14	0	0	0	0	745	625	
15	0	0	0	0	768	628	
0	0	0	0	0	790	625	
1	0	0	0	0	809	625	
2	0	0	0	0	823	625	
3	0	0	0	0	835	621	
4	0	0	0	0	845	626	
5	0	0	0	0	852	625	
6	0	0	0	0	856	626	
7	0	0	0	0	858	630	
8	0	0	0	0	856	626	
9	0	0	0	0	852	627	
10	0	0	0	0	846	627	
11	0	0	0	0	839	623	
12	0	0	0	0	829	627	
13	0	0	0	0	816	627	
14	0	0	0	0	802	627	
15	0	0	0	0	786	631	
0	0	0	0	0	771	627	
1	0	0	0	0	756	627	
2	0	0	0	0	743	627	
3	0	0	0	0	730	623	
4	0	0	0	0	716	626	
5	0	0	0	0	703	626	
6	0	0	0	0	691	626	
7	0	0	0	0	678	630	
8	0	0	0	0	666	627	
9	0	0	0	0	652	626	
10	0	0	0	0	638	627	
11	0	0	0	0	622	622	
12	0	0	0	0	607	626	
13	0	0	0	0	593	625	
14	0	0	0	0	578	626	
15	0	0	0	0	565	629	
0	0	0	0	0	551	625	
1	0	0	0	0	538	625	
2	0	0	0	0	525	625	
3	0	0	0	0	513	621	
4	0	0	0	0	503	625	
5	0	0	0	0	492	625	
6	0	0	0	0	482	625	
7	0	0	0	0	472	628	
8	0	0	0	0	464	625	
9	0	0	0	0	456	624	
10	0	0	0	0	449	624	
11	0	0	0	0	442	620	
12	0	0	0	0	437	624	
13	0	0	0	0	431	624	
14	0	0	0	0	426	624	
15	0	0	0	0	420	627	
0	0	0	0	0	415	623	
1	0	0	0	0	410	624	
2	0	0	0	0	406	623	
3	0	0	0	0	402	619	
4	0	0	0	0	398	624	
5	0	0	0	0	393	623	
6	0	0	0	0	389	624	
7	0	0	0	0	385	627	
8	0	0	0	0	383	623	
9	0	0	0	0	380	623	
10	0	0	0	0	379	623	
11	0	0	0	0	377	619	
12	0	0	0	0	376	623	
13	0	0	0	0	375	623	
14	0	0	0	0	374	623	
15	0	0	0	0	373	627	
0	0	0	0	0	373	624	
1	0	0	0	0	373	623	
2	0	0	0	0	374	623	
3	0	0	0	0	374	619	
4	0	0	0	0	375	623	
5	0	0	0	0	376	623	
6	0	0	0	0	377	623	
7	0	0	0	0	377	626	
8	0	0	0	0	379	623	
9	0	0	0	0	379	623	
10	0	0	0	0	380	622	
11	0	0	0	0	381	619	
12	0	0	0	0	382	623	
13	0	0	0	0	383	623	
14	0	0	0	0	383	623	
15	0	0	0	0	384	626	
0	0	0	0	0	385	623	
1	0	0	0	0	385	623	
2	0	0	0	0	387	623	
3	0	0	0	0	387	619	
4	0	0	0	0	387	624	
5	0	0	0	0	388	623	
6	0	0	0	0	389	623	
7	0	0	0	0	390	627	
8	0	0	0	0	391	623	
9	0	0	0	0	391	623	
10	0	0	0	0	392	624	
11	0	0	0	0	393	619	
12	0	0	0	0	394	623	
13	0	0	0	0	395	623	
14	0	0	0	0	396	624	
15	0	0	0	0	397	627	
0	0	0	0	0	398	624	
1	0	0	0	0	398	624	
2	0	0	0	0	398	624	
3	0	0	0	0	398	620	
4	0	0	0	0	398	624	
5	0	0	0	0	398	624	
6	0	0	0	0	398	625	
7	0	0	0	0	397	628	
8	0	0	0	0	396	624	
9	0	0	0	0	394	624	
10	0	0	0	0	393	624	
11	0	0	0	0	391	620	
12	0	0	0	0	390	624	
13	0	0	0	0	390	624	
14	0	0	0	0	389	624	
15	0	0	0	0	389	628	
0	0	0	0	0	389	624	
1	0	0	0	0	388	624	
2	0	0	0	0	387	624	
3	0	0	0	0	387	620	
4	0	0	0	0	386	625	
5	0	0	0	0	385	625	
6	0	0	0	0	385	624	
7	0	0	0	0	384	628	
8	0	0	0	0	383	624	
9	0	0	0	0	382	624	
10	0	0	0	0	381	624	
11	0	0	0	0	379	620	
12	0	0	0	0	378	625	
13	0	0	0	0	378	624	
14	0	0	0	0	377	624	
15	0	0	0	0	377	628	
0	0	0	0	0	377	624	
1	0	0	0	0	377	624	
2	0	0	0	0	377	623	
3	0	0	0	0	377	619	
4	0	0	0	0	377	623	
5	0	0	0	0	377	623	
6	0	0	0	0	376	623	
7	0	0	0	0	376	627	
8	0	0	0	0	376	623	
9	0	0	0	0	374	623	
10	0	0	0	0	372	623	
11	0	0	0	0	371	619	
12	0	0	0	0	369	623	
13	0	0	0	0	368	623	
14	0	0	0	0	367	623	
15	0	0	0	0	366	626	
0	0	0	0	0	366	623	
1	0	0	0	0	365	623	
2	0	0	0	0	364	622	
3	0	0	0	0	364	618	
4	0	0	0	0	364	622	
5	0	0	0	0	363	623	
6	0	0	0	0	362	622	
7	0	0	0	0	361	626	
8	0	0	0	0	360	622	
9	0	0	0	0	358	622	
10	0	0	0	0	356	622	
11	0	0	0	0	356	618	
12	0	0	0	0	355	623	
13	0	0	0	0	355	623	
14	0	0	0	0	355	622	
15	0	0	0	0	354	626	
0	0	0	0	0	354	623	
1	0	0	0	0	353	623	
2	0	0	0	0	352	623	
3	0	0	0	0	353	619	
4	0	0	0	0	353	623	
5	0	0	0	0	354	623	
6	0	0	0	0	356	623	
7	0	0	0	0	358	626	
8	0	0	0	0	359	623	
9	0	0	0	0	361	623	
10	0	0	0	0	363	623	
11	0	0	0	0	365	619	
12	0	0	0	0	366	623	
13	0	0	0	0	367	623	
14	0	0	0	0	367	623	
15	0	0	0	0	366	627	
0	0	0	0	0	367	624	
1	0	0	0	0	367	623	
2	0	0	0	0	366	623	
3	0	0	0	0	366	620	
4	0	0	0	0	366	624	
5	0	0	0	0	367	624	
6	0	0	0	0	368	624	
7	0	0	0	0	369	627	
8	0	0	0	0	371	624	
9	0	0	0	0	370	624	
10	0	0	0	0	371	624	
11	0	0	0	0	371	620	
12	0	0	0	0	371	624	
13	0	0	0	0	373	624	
14	0	0	0	0	373	624	
15	0	0	0	0	372	628	
0	0	0	0	0	371	624	
1	0	0	0	0	371	624	
2	0	0	0	0	371	624	
3	0	0	0	0	371	620	
4	0	0	0	0	370	624	
5	0	0	0	0	370	625	
6	0	0	0	0	371	625	
7	0	0	0	0	372	629	
8	0	0	0	0	373	625	
9	0	0	0	0	375	625	
10	0	0	0	0	377	625	
11	0	0	0	0	378	622	
12	0	0	0	0	381	626	
13	0	0	0	0	383	626	
14	0	0	0	0	385	626	
15	0	0	0	0	387	630	
0	0	0	0	0	389	626	
1	0	0	0	0	391	626	
2	0	0	0	0	393	626	
3	0	0	0	0	395	622	
4	0	0	0	0	398	626	
5	0	0	0	0	400	626	
6	0	0	0	0	403	626	
7	0	0	0	0	404	630	
8	0	0	0	0	406	625	
9	0	0	0	0	408	626	
10	0	0	0	0	408	626	
11	0	0	0	0	409	622	
12	0	0	0	0	409	626	
13	0	0	0	0	409	626	
14	0	0	0	0	410	626	
15	0	0	0	0	410	630	
0	0	0	0	0	411	626	
1	0	0	0	0	412	626	
2	0	0	0	0	412	625	
3	0	0	0	0	412	622	
4	0	0	0	0	412	626	
5	0	0	0	0	414	627	
6	0	0	0	0	414	626	
7	0	0	0	0	415	630	
8	0	0	0	0	416	626	
9	0	0	0	0	417	626	
10	0	0	0	0	419	625	
11	0	0	0	0	419	622	
12	0	0	0	0	421	625	
13	0	0	0	0	421	625	
14	0	0	0	0	421	625	
15	0	0	0	0	422	629	
0	0	0	0	0	422	625	
1	0	0	0	0	422	625	
2	0	0	0	0	421	624	
3	0	0	0	0	421	621	
4	0	0	0	0	420	625	
5	0	0	0	0	420	624	
6	0	0	0	0	419	624	
7	0	0	0	0	420	628	
8	0	0	0	0	421	625	
9	0	0	0	0	421	624	
10	0	0	0	0	422	624	
11	0	0	0	0	422	620	
12	0	0	0	0	422	624	
13	0	0	0	0	422	624	
14	0	0	0	0	422	624	
15	0	0	0	0	422	627	
0	0	0	0	0	422	624	
1	0	0	0	0	422	624	
2	0	0	0	0	422	624	
3	0	0	0	0	423	619	
4	0	0	0	0	423	623	
5	0	0	0	0	423	623	
6	0	0	0	0	424	624	
7	0	0	0	0	425	627	
8	0	0	0	0	425	623	
9	0	0	0	0	425	623	
10	0	0	0	0	423	623	
11	0	0	0	0	423	620	
12	0	0	0	0	422	624	
13	0	0	0	0	421	624	
14	0	0	0	0	421	623	
15	0	0	0	0	420	627	
0	0	0	0	0	419	623	
1	0	0	0	0	420	623	
2	0	0	0	0	421	623	
3	0	0	0	0	421	619	
4	0	0	0	0	422	623	
5	0	0	0	0	423	623	
6	0	0	0	0	423	623	
7	0	0	0	0	423	627	
8	0	0	0	0	422	624	
9	0	0	0	0	422	624	
10	0	0	0	0	422	623	
11	0	0	0	0	421	619	
12	0	0	0	0	422	624	
13	0	0	0	0	422	624	
14	0	0	0	0	422	624	
15	0	0	0	0	422	627	
0	0	0	0	0	422	624	
1	0	0	0	0	422	624	
2	0	0	0	0	423	624	
3	0	0	0	0	423	620	
4	0	0	0	0	424	623	
5	0	0	0	0	423	623	
6	0	0	0	0	424	623	
7	0	0	0	0	424	627	
8	0	0	0	0	425	623	
9	0	0	0	0	425	623	
10	0	0	0	0	425	623	
11	0	0	0	0	426	619	
12	0	0	0	0	426	623	
13	0	0	0	0	426	623	
14	0	0	0	0	426	623	
15	0	0	0	0	426	627	
0	0	0	0	0	426	623	
1	0	0	0	0	425	623	
2	0	0	0	0	427	623	
3	0	0	0	0	429	619	
4	0	0	0	0	429	623	
5	0	0	0	0	431	624	
6	0	0	0	0	432	624	
7	0	0	0	0	433	627	
8	0	0	0	0	435	623	
9	0	0	0	0	436	623	
10	0	0	0	0	437	624	
11	0	0	0	0	438	619	
12	0	0	0	0	439	624	
13	0	0	0	0	439	624	
14	0	0	0	0	441	624	
15	0	0	0	0	442	627	
0	0	0	0	0	443	624	
1	0	0	0	0	445	624	
2	0	0	0	0	446	624	
3	0	0	0	0	448	620	
4	0	0	0	0	450	624	
5	0	0	0	0	451	624	
6	0	0	0	0	452	623	
7	0	0	0	0	454	627	
8	0	0	0	0	455	623	
9	0	0	0	0	455	624	
10	0	0	0	0	456	624	
11	0	0	0	0	458	620	
12	0	0	0	0	459	624	
13	0	0	0	0	460	623	
14	0	0	0	0	463	624	
15	0	0	0	0	464	627	
0	0	0	0	0	466	624	
1	0	0	0	0	468	623	
2	0	0	0	0	470	623	
3	0	0	0	0	472	618	
4	0	0	0	0	473	623	
5	0	0	0	0	475	624	
6	0	0	0	0	475	623	
7	0	0	0	0	476	627	
8	0	0	0	0	477	622	
9	0	0	0	0	478	623	
10	0	0	0	0	480	623	
11	0	0	0	0	481	619	
12	0	0	0	0	483	622	
13	0	0	0	0	485	622	
14	0	0	0	0	487	623	
15	0	0	0	0	487	626	
0	0	0	0	0	488	623	
1	0	0	0	0	490	623	
2	0	0	0	0	492	622	
3	0	0	0	0	493	618	
4	0	0	0	0	494	622	
5	0	0	0	0	494	623	
6	0	0	0	0	494	623	
7	0	0	0	0	494	626	
8	0	0	0	0	494	623	
9	0	0	0	0	493	622	
10	0	0	0	0	494	622	
11	0	0	0	0	495	618	
12	0	0	0	0	496	622	
13	0	0	0	0	497	622	
14	0	0	0	0	498	622	
15	0	0	0	0	497	625	
0	0	0	0	0	499	622	
1	0	0	0	0	499	622	
2	0	0	0	0	500	622	
3	0	0	0	0	502	618	
4	0	0	0	0	504	622	
5	0	0	0	0	505	622	
6	0	0	0	0	505	623	
7	0	0	0	0	505	626	
8	0	0	0	0	504	623	
9	0	0	0	0	505	622	
10	0	0	0	0	505	622	
11	0	0	0	0	506	618	
12	0	0	0	0	508	622	
13	0	0	0	0	510	622	
14	0	0	0	0	511	622	
15	0	0	0	0	513	625	
0	0	0	0	0	515	622	
1	0	0	0	0	515	622	
2	0	0	0	0	516	621	
3	0	0	0	0	516	617	
4	0	0	0	0	517	621	
5	0	0	0	0	518	621	
6	0	0	0	0	519	622	
7	0	0	0	0	519	625	
8	0	0	0	0	521	622	
9	0	0	0	0	521	622	
10	0	0	0	0	522	622	
11	0	0	0	0	523	618	
12	0	0	0	0	523	622	
13	0	0	0	0	524	622	
14	0	0	0	0	524	622	
15	0	0	0	0	524	625	
0	0	0	0	0	524	622	
1	0	0	0	0	524	622	
2	0	0	0	0	524	622	
3	0	0	0	0	524	618	
4	0	0	0	0	524	622	
5	0	0	0	0	523	623	
6	0	0	0	0	521	623	
7	0	0	0	0	519	626	
8	0	0	0	0	519	622	
9	0	0	0	0	519	624	
10	0	0	0	0	518	623	
11	0	0	0	0	519	620	
12	0	0	0	0	520	623	
13	0	0	0	0	522	623	
14	0	0	0	0	524	624	
15	0	0	0	0	525	627	
0	0	0	0	0	527	623	
1	0	0	0	0	527	624	
2	0	0	0	0	527	624	
3	0	0	0	0	527	620	
4	0	0	0	0	527	624	
5	0	0	0	0	526	624	
6	0	0	0	0	524	624	
7	0	0	0	0	524	628	
8	0	0	0	0	523	624	
9	0	0	0	0	522	624	
10	0	0	0	0	521	624	
11	0	0	0	0	520	620	
12	0	0	0	0	519	624	
13	0	0	0	0	518	625	
14	0	0	0	0	516	625	
15	0	0	0	0	515	629	
0	0	0	0	0	515	625	
1	0	0	0	0	515	625	
2	0	0	0	0	515	625	
3	0	0	0	0	515	620	
4	0	0	0	0	514	625	
5	0	0	0	0	513	625	
6	0	0	0	0	513	625	
7	0	0	0	0	513	629	
8	0	0	0	0	512	626	
9	0	0	0	0	511	625	
10	0	0	0	0	510	626	
11	0	0	0	0	509	621	
12	0	0	0	0	508	626	
13	0	0	0	0	508	626	
14	0	0	0	0	507	626	
15	0	0	0	0	506	629	
0	0	0	0	0	505	625	
1	0	0	0	0	504	626	
2	0	0	0	0	504	625	
3	0	0	0	0	503	622	
4	0	0	0	0	502	625	
5	0	0	0	0	501	625	
6	0	0	0	0	500	625	
7	0	0	0	0	499	628	
8	0	0	0	0	499	625	
9	0	0	0	0	497	625	
10	0	0	0	0	496	625	
11	0	0	0	0	496	620	
12	0	0	0	0	495	625	
13	0	0	0	0	493	625	
14	0	0	0	0	492	624	
15	0	0	0	0	491	628	
0	0	0	0	0	490	623	
1	0	0	0	0	488	624	
2	0	0	0	0	486	623	
3	0	0	0	0	484	619	
4	0	0	0	0	483	623	
5	0	0	0	0	482	623	
6	0	0	0	0	482	623	
7	0	0	0	0	482	627	
8	0	0	0	0	481	623	
9	0	0	0	0	481	623	
10	0	0	0	0	480	622	
11	0	0	0	0	481	618	
12	0	0	0	0	481	622	
13	0	0	0	0	481	621	
14	0	0	0	0	479	623	
15	0	0	0	0	479	625	
0	0	0	0	0	479	622	
1	0	0	0	0	478	622	
2	0	0	0	0	477	622	
3	0	0	0	0	477	618	
4	0	0	0	0	477	622	
5	0	0	0	0	476	622	
6	0	0	0	0	475	622	
7	0	0	0	0	475	625	
8	0	0	0	0	475	621	
9	0	0	0	0	475	621	
10	0	0	0	0	474	622	
11	0	0	0	0	472	618	
12	0	0	0	0	471	622	
13	0	0	0	0	469	622	
14	0	0	0	0	467	623	
15	0	0	0	0	465	626	
0	0	0	0	0	465	623	
1	0	0	0	0	463	623	
2	0	0	0	0	463	623	
3	0	0	0	0	462	619	
4	0	0	0	0	462	623	
5	0	0	0	0	462	623	
6	0	0	0	0	462	623	
7	0	0	0	0	463	627	
8	0	0	0	0	463	623	
9	0	0	0	0	462	623	
10	0	0	0	0	462	624	
11	0	0	0	0	461	620	
12	0	0	0	0	460	623	
13	0	0	0	0	462	624	
14	0	0	0	0	462	624	
15	0	0	0	0	463	627	
0	0	0	0	0	463	623	
1	0	0	0	0	463	624	
2	0	0	0	0	463	624	
3	0	0	0	0	464	620	
4	0	0	0	0	463	624	
5	0	0	0	0	462	624	
6	0	0	0	0	461	624	
7	0	0	0	0	460	627	
8	0	0	0	0	459	624	
9	0	0	0	0	457	624	
10	0	0	0	0	456	624	
11	0	0	0	0	457	619	
12	0	0	0	0	457	624	
13	0	0	0	0	458	624	
14	0	0	0	0	458	624	
15	0	0	0	0	459	627	
0	0	0	0	0	459	624	
1	0	0	0	0	460	624	
2	0	0	0	0	461	624	
3	0	0	0	0	461	620	
4	0	0	0	0	462	624	
5	0	0	0	0	461	624	
6	0	0	0	0	463	625	
7	0	0	0	0	463	628	
8	0	0	0	0	463	624	
9	0	0	0	0	464	624	
10	0	0	0	0	463	624	
11	0	0	0	0	463	620	
12	0	0	0	0	463	624	
13	0	0	0	0	464	624	
14	0	0	0	0	463	624	
15	0	0	0	0	463	628	
0	0	0	0	0	462	624	
1	0	0	0	0	462	624	
2	0	0	0	0	462	624	
3	0	0	0	0	460	620	
4	0	0	0	0	460	624	
5	0	0	0	0	460	624	
6	0	0	0	0	460	624	
7	0	0	0	0	461	627	
8	0	0	0	0	462	623	
9	0	0	0	0	463	623	
10	0	0	0	0	464	623	
11	0	0	0	0	465	619	
12	0	0	0	0	466	623	
13	0	0	0	0	467	622	
14	0	0	0	0	468	623	
15	0	0	0	0	469	626	
0	0	0	0	0	471	622	
1	0	0	0	0	471	622	
2	0	0	0	0	472	622	
3	0	0	0	0	473	618	
4	0	0	0	0	474	621	
5	0	0	0	0	475	621	
6	0	0	0	0	475	621	
7	0	0	0	0	475	625	
8	0	0	0	0	476	621	
9	0	0	0	0	476	620	
10	0	0	0	0	476	620	
11	0	0	0	0	477	617	
12	0	0	0	0	477	620	
13	0	0	0	0	478	621	
14	0	0	0	0	478	621	
15	0	0	0	0	478	624	
0	0	0	0	0	478	621	
1	0	0	0	0	477	621	
2	0	0	0	0	475	621	
3	0	0	0	0	472	616	
4	0	0	0	0	470	621	
5	0	0	0	0	468	621	
6	0	0	0	0	467	621	
7	0	0	0	0	465	625	
8	0	0	0	0	463	622	
9	0	0	0	0	462	621	
10	0	0	0	0	460	622	
11	0	0	0	0	459	617	
12	0	0	0	0	457	622	
13	0	0	0	0	455	623	
14	0	0	0	0	453	623	
15	0	0	0	0	452	626	
0	0	0	0	0	451	622	
1	0	0	0	0	450	623	
2	0	0	0	0	449	623	
3	0	0	0	0	449	619	
4	0	0	0	0	448	623	
5	0	0	0	0	448	624	
6	0	0	0	0	448	623	
7	0	0	0	0	447	627	
8	0	0	0	0	448	623	
9	0	0	0	0	447	624	
10	0	0	0	0	446	624	
11	0	0	0	0	445	620	
12	0	0	0	0	445	624	
13	0	0	0	0	444	624	
14	0	0	0	0	443	624	
15	0	0	0	0	442	627	
0	0	0	0	0	440	624	
1	0	0	0	0	439	624	
2	0	0	0	0	438	624	
3	0	0	0	0	436	620	
4	0	0	0	0	434	624	
5	0	0	0	0	432	624	
6	0	0	0	0	431	624	
7	0	0	0	0	429	627	
8	0	0	0	0	428	624	
9	0	0	0	0	427	624	
10	0	0	0	0	424	624	
11	0	0	0	0	422	620	
12	0	0	0	0	421	624	
13	0	0	0	0	419	624	
14	0	0	0	0	419	624	
15	0	0	0	0	419	628	
0	0	0	0	0	418	624	
1	0	0	0	0	416	625	
2	0	0	0	0	414	625	
3	0	0	0	0	413	621	
4	0	0	0	0	412	624	
5	0	0	0	0	413	625	
6	0	0	0	0	413	625	
7	0	0	0	0	412	628	
8	0	0	0	0	413	625	
9	0	0	0	0	414	625	
10	0	0	0	0	414	624	
11	0	0	0	0	415	620	
12	0	0	0	0	416	625	
13	0	0	0	0	417	625	
14	0	0	0	0	419	625	
15	0	0	0	0	419	628	
0	0	0	0	0	420	624	
1	0	0	0	0	421	624	
2	0	0	0	0	422	624	
3	0	0	0	0	422	621	
4	0	0	0	0	422	625	
5	0	0	0	0	422	625	
6	0	0	0	0	421	625	
7	0	0	0	0	420	629	
8	0	0	0	0	420	625	
9	0	0	0	0	421	625	
10	0	0	0	0	421	625	
11	0	0	0	0	422	621	
12	0	0	0	0	422	625	
13	0	0	0	0	421	625	
14	0	0	0	0	420	625	
15	0	0	0	0	420	629	
0	0	0	0	0	420	625	
1	0	0	0	0	420	625	
2	0	0	0	0	421	625	
3	0	0	0	0	421	621	
4	0	0	0	0	422	625	
5	0	0	0	0	422	624	
6	0	0	0	0	422	624	
7	0	0	0	0	420	628	
8	0	0	0	0	421	624	
9	0	0	0	0	422	624	
10	0	0	0	0	423	624	
11	0	0	0	0	424	620	
12	0	0	0	0	424	624	
13	0	0	0	0	423	624	
14	0	0	0	0	424	625	
15	0	0	0	0	425	627	
0	0	0	0	0	425	624	
1	0	0	0	0	425	624	
2	0	0	0	0	426	624	
3	0	0	0	0	427	619	
4	0	0	0	0	428	624	
5	0	0	0	0	429	624	
6	0	0	0	0	430	624	
7	0	0	0	0	432	627	
8	0	0	0	0	433	624	
9	0	0	0	0	434	624	
10	0	0	0	0	435	623	
11	0	0	0	0	437	618	
12	0	0	0	0	439	623	
13	0	0	0	0	440	623	
14	0	0	0	0	440	623	
15	0	0	0	0	440	626	
0	0	0	0	0	439	622	
1	0	0	0	0	439	623	
2	0	0	0	0	437	622	
3	0	0	0	0	435	618	
4	0	0	0	0	435	622	
5	0	0	0	0	434	622	
6	0	0	0	0	433	622	
7	0	0	0	0	434	625	
8	0	0	0	0	434	621	
9	0	0	0	0	432	621	
10	0	0	0	0	430	621	
11	0	0	0	0	429	618	
12	0	0	0	0	428	622	
13	0	0	0	0	426	621	
14	0	0	0	0	425	622	
15	0	0	0	0	425	625	
0	0	0	0	0	426	622	
1	0	0	0	0	426	621	
2	0	0	0	0	427	621	
3	0	0	0	0	428	617	
4	0	0	0	0	428	622	
5	0	0	0	0	428	622	
6	0	0	0	0	428	622	
7	0	0	0	0	429	624	
8	0	0	0	0	430	621	
9	0	0	0	0	430	621	
10	0	0	0	0	430	621	
11	0	0	0	0	431	617	
12	0	0	0	0	431	621	
13	0	0	0	0	431	621	
14	0	0	0	0	431	621	
15	0	0	0	0	432	625	
0	0	0	0	0	432	621	
1	0	0	0	0	433	621	
2	0	0	0	0	434	621	
3	0	0	0	0	435	617	
4	0	0	0	0	437	621	
5	0	0	0	0	439	622	
6	0	0	0	0	440	622	
7	0	0	0	0	441	625	
8	0	0	0	0	443	621	
9	0	0	0	0	444	621	
10	0	0	0	0	446	620	
11	0	0	0	0	447	616	
12	0	0	0	0	448	621	
13	0	0	0	0	449	620	
14	0	0	0	0	449	621	
15	0	0	0	0	449	624	
0	0	0	0	0	448	620	
1	0	0	0	0	446	620	
2	0	0	0	0	445	620	
3	0	0	0	0	445	616	
4	0	0	0	0	447	621	
5	0	0	0	0	450	620	
6	0	0	0	0	454	620	
7	0	0	0	0	460	624	
8	0	0	0	0	466	621	
9	0	0	0	0	472	621	
10	0	0	0	0	481	620	
11	0	0	0	0	490	617	
12	0	0	0	0	503	621	
13	0	0	0	0	518	621	
14	0	0	0	0	535	622	
15	0	0	0	0	552	625	
0	0	0	0	0	568	622	
1	0	0	0	0	584	623	
2	0	0	0	0	601	623	
3	0	0	0	0	616	619	
4	0	0	0	0	631	623	
5	0	0	0	0	647	624	
6	0	0	0	0	664	624	
7	0	0	0	0	685	628	
8	0	0	0	0	706	624	
9	0	0	0	0	729	625	
10	0	0	0	0	751	625	
11	0	0	0	0	770	621	
12	0	0	0	0	786	625	
13	0	0	0	0	798	625	
14	0	0	0	0	808	625	
15	0	0	0	0	815	630	
0	0	0	0	0	820	625	
1	0	0	0	0	822	625	
2	0	0	0	0	820	625	
3	0	0	0	0	817	621	
4	0	0	0	0	812	625	
5	0	0	0	0	804	625	
6	0	0	0	0	794	625	
7	0	0	0	0	783	629	
8	0	0	0	0	769	625	
9	0	0	0	0	754	625	
10	0	0	0	0	738	624	
11	0	0	0	0	724	621	
12	0	0	0	0	711	625	
13	0	0	0	0	698	625	
14	0	0	0	0	685	624	
15	0	0	0	0	673	628	
0	0	0	0	0	662	624	
1	0	0	0	0	650	625	
2	0	0	0	0	638	625	
3	0	0	0	0	625	620	
4	0	0	0	0	612	624	
5	0	0	0	0	598	625	
6	0	0	0	0	584	625	
7	0	0	0	0	571	628	
8	0	0	0	0	557	624	
9	0	0	0	0	544	624	
10	0	0	0	0	531	624	
11	0	0	0	0	518	620	
12	0	0	0	0	504	625	
13	0	0	0	0	492	624	
14	0	0	0	0	480	625	
15	0	0	0	0	470	628	
0	0	0	0	0	460	624	
1	0	0	0	0	451	624	
2	0	0	0	0	442	624	
3	0	0	0	0	433	620	
4	0	0	0	0	424	624	
5	0	0	0	0	416	625	
6	0	0	0	0	410	625	
7	0	0	0	0	404	628	
8	0	0	0	0	398	626	
9	0	0	0	0	391	625	
10	0	0	0	0	384	625	
11	0	0	0	0	379	621	
12	0	0	0	0	373	625	
13	0	0	0	0	369	625	
14	0	0	0	0	366	625	
15	0	0	0	0	362	629	
0	0	0	0	0	359	625	
1	0	0	0	0	356	625	
2	0	0	0	0	354	625	
3	0	0	0	0	352	621	
4	0	0	0	0	351	626	
5	0	0	0	0	351	625	
6	0	0	0	0	350	625	
7	0	0	0	0	350	630	
8	0	0	0	0	350	627	
9	0	0	0	0	350	627	
10	0	0	0	0	351	625	
11	0	0	0	0	350	622	
12	0	0	0	0	350	626	
13	0	0	0	0	351	626	
14	0	0	0	0	351	626	
15	0	0	0	0	353	629	
0	0	0	0	0	354	625	
1	0	0	0	0	354	625	
2	0	0	0	0	354	626	
3	0	0	0	0	355	622	
4	0	0	0	0	355	626	
5	0	0	0	0	355	626	
6	0	0	0	0	355	625	
7	0	0	0	0	356	629	
8	0	0	0	0	356	625	
9	0	0	0	0	358	625	
10	0	0	0	0	359	626	
11	0	0	0	0	360	622	
12	0	0	0	0	361	626	
13	0	0	0	0	363	627	
14	0	0	0	0	364	627	
15	0	0	0	0	367	630	
0	0	0	0	0	369	626	
1	0	0	0	0	371	626	
2	0	0	0	0	372	626	
3	0	0	0	0	374	622	
4	0	0	0	0	376	626	
5	0	0	0	0	377	625	
6	0	0	0	0	379	626	
7	0	0	0	0	380	628	
8	0	0	0	0	383	625	
9	0	0	0	0	385	625	
10	0	0	0	0	387	624	
11	0	0	0	0	389	620	
12	0	0	0	0	391	624	
13	0	0	0	0	393	624	
14	0	0	0	0	395	623	
15	0	0	0	0	396	627	
0	0	0	0	0	398	624	
1	0	0	0	0	399	623	
2	0	0	0	0	400	622	
3	0	0	0	0	401	618	
4	0	0	0	0	403	622	
5	0	0	0	0	403	623	
6	0	0	0	0	403	622	
7	0	0	0	0	404	625	
8	0	0	0	0	405	622	
9	0	0	0	0	406	621	
10	0	0	0	0	407	621	
11	0	0	0	0	408	617	
12	0	0	0	0	409	621	
13	0	0	0	0	409	621	
14	0	0	0	0	409	621	
15	0	0	0	0	408	624	
0	0	0	0	0	409	621	
1	0	0	0	0	410	620	
2	0	0	0	0	410	620	
3	0	0	0	0	411	615	
4	0	0	0	0	411	620	
5	0	0	0	0	412	620	
6	0	0	0	0	414	621	
7	0	0	0	0	415	624	
8	0	0	0	0	416	621	
9	0	0	0	0	417	621	
10	0	0	0	0	418	621	
11	0	0	0	0	418	617	
12	0	0	0	0	418	621	
13	0	0	0	0	419	621	
14	0	0	0	0	418	622	
15	0	0	0	0	418	625	
0	0	0	0	0	418	621	
1	0	0	0	0	418	621	
2	0	0	0	0	418	621	
3	0	0	0	0	418	617	
4	0	0	0	0	417	622	
5	0	0	0	0	416	621	
6	0	0	0	0	416	622	
7	0	0	0	0	416	626	
8	0	0	0	0	416	622	
9	0	0	0	0	416	622	
10	0	0	0	0	416	623	
11	0	0	0	0	416	618	
12	0	0	0	0	415	622	
13	0	0	0	0	415	623	
14	0	0	0	0	414	623	
15	0	0	0	0	413	627	
0	0	0	0	0	412	623	
1	0	0	0	0	411	623	
2	0	0	0	0	409	622	
3	0	0	0	0	408	618	
4	0	0	0	0	407	624	
5	0	0	0	0	406	623	
6	0	0	0	0	405	623	
7	0	0	0	0	405	627	
8	0	0	0	0	404	623	
9	0	0	0	0	404	622	
10	0	0	0	0	403	622	
11	0	0	0	0	403	619	
12	0	0	0	0	402	623	
13	0	0	0	0	401	623	
14	0	0	0	0	400	624	
15	0	0	0	0	399	627	
0	0	0	0	0	398	623	
1	0	0	0	0	396	623	
2	0	0	0	0	395	622	
3	0	0	0	0	393	619	
4	0	0	0	0	392	623	
5	0	0	0	0	391	623	
6	0	0	0	0	391	623	
7	0	0	0	0	390	627	
8	0	0	0	0	390	623	
9	0	0	0	0	390	623	
10	0	0	0	0	389	623	
11	0	0	0	0	389	619	
12	0	0	0	0	390	623	
13	0	0	0	0	390	623	
14	0	0	0	0	390	624	
15	0	0	0	0	389	627	
0	0	0	0	0	389	623	
1	0	0	0	0	389	623	
2	0	0	0	0	388	623	
3	0	0	0	0	388	619	
4	0	0	0	0	389	622	
5	0	0	0	0	389	623	
6	0	0	0	0	389	622	
7	0	0	0	0	390	626	
8	0	0	0	0	392	622	
9	0	0	0	0	393	622	
10	0	0	0	0	393	622	
11	0	0	0	0	395	617	
12	0	0	0	0	395	622	
13	0	0	0	0	396	623	
14	0	0	0	0	396	622	
15	0	0	0	0	397	625	
0	0	0	0	0	397	621	
1	0	0	0	0	398	622	
2	0	0	0	0	397	622	
3	0	0	0	0	397	618	
4	0	0	0	0	397	622	
5	0	0	0	0	397	622	
6	0	0	0	0	398	622	
7	0	0	0	0	398	625	
8	0	0	0	0	398	621	
9	0	0	0	0	398	622	
10	0	0	0	0	397	622	
11	0	0	0	0	397	617	
12	0	0	0	0	397	622	
13	0	0	0	0	397	622	
14	0	0	0	0	397	621	
15	0	0	0	0	396	625	
0	0	0	0	0	395	622	
1	0	0	0	0	394	621	
2	0	0	0	0	395	622	
3	0	0	0	0	394	618	
4	0	0	0	0	394	622	
5	0	0	0	0	394	623	
6	0	0	0	0	394	623	
7	0	0	0	0	394	627	
8	0	0	0	0	395	624	
9	0	0	0	0	395	623	
10	0	0	0	0	393	624	
11	0	0	0	0	392	620	
12	0	0	0	0	391	624	
13	0	0	0	0	391	624	
14	0	0	0	0	392	624	
15	0	0	0	0	392	627	
0	0	0	0	0	392	624	
1	0	0	0	0	391	624	
2	0	0	0	0	391	624	
3	0	0	0	0	391	621	
4	0	0	0	0	391	624	
5	0	0	0	0	392	625	
6	0	0	0	0	392	625	
7	0	0	0	0	392	628	
8	0	0	0	0	393	624	
9	0	0	0	0	393	624	
10	0	0	0	0	394	624	
11	0	0	0	0	394	620	
12	0	0	0	0	394	625	
13	0	0	0	0	395	624	
14	0	0	0	0	394	624	
15	0	0	0	0	395	628	
0	0	0	0	0	394	624	
1	0	0	0	0	394	624	
2	0	0	0	0	394	624	
3	0	0	0	0	393	620	
4	0	0	0	0	393	624	
5	0	0	0	0	393	624	
6	0	0	0	0	393	623	
7	0	0	0	0	392	627	
8	0	0	0	0	392	623	
9	0	0	0	0	393	623	
10	0	0	0	0	394	623	
11	0	0	0	0	393	620	
12	0	0	0	0	393	623	
13	0	0	0	0	392	623	
14	0	0	0	0	393	623	
15	0	0	0	0	393	627	
0	0	0	0	0	393	623	
1	0	0	0	0	394	623	
2	0	0	0	0	395	623	
3	0	0	0	0	396	619	
4	0	0	0	0	398	623	
5	0	0	0	0	400	624	
6	0	0	0	0	402	623	
7	0	0	0	0	401	627	
8	0	0	0	0	401	623	
9	0	0	0	0	402	623	
10	0	0	0	0	402	623	
11	0	0	0	0	402	619	
12	0	0	0	0	401	624	
13	0	0	0	0	401	623	
14	0	0	0	0	401	623	
15	0	0	0	0	403	627	
0	0	0	0	0	405	623	
1	0	0	0	0	407	623	
2	0	0	0	0	408	623	
3	0	0	0	0	410	620	
4	0	0	0	0	412	624	
5	0	0	0	0	414	623	
6	0	0	0	0	415	624	
7	0	0	0	0	416	627	
8	0	0	0	0	417	624	
9	0	0	0	0	418	624	
10	0	0	0	0	419	624	
11	0	0	0	0	420	620	
12	0	0	0	0	422	624	
13	0	0	0	0	423	624	
14	0	0	0	0	423	624	
15	0	0	0	0	425	628	
0	0	0	0	0	427	624	
1	0	0	0	0	427	624	
2	0	0	0	0	427	625	
3	0	0	0	0	428	620	
4	0	0	0	0	428	625	
5	0	0	0	0	429	625	
6	0	0	0	0	429	625	
7	0	0	0	0	428	628	
8	0	0	0	0	427	624	
9	0	0	0	0	427	624	
10	0	0	0	0	428	625	
11	0	0	0	0	428	621	
12	0	0	0	0	428	625	
13	0	0	0	0	429	625	
14	0	0	0	0	429	625	
15	0	0	0	0	429	628	
0	0	0	0	0	430	624	
1	0	0	0	0	430	624	
2	0	0	0	0	431	625	
3	0	0	0	0	431	621	
4	0	0	0	0	431	624	
5	0	0	0	0	431	624	
6	0	0	0	0	432	624	
7	0	0	0	0	433	627	
8	0	0	0	0	434	623	
9	0	0	0	0	435	624	
10	0	0	0	0	435	623	
11	0	0	0	0	437	619	
12	0	0	0	0	438	623	
13	0	0	0	0	439	623	
14	0	0	0	0	440	623	
15	0	0	0	0	441	626	
0	0	0	0	0	441	623	
1	0	0	0	0	442	623	
2	0	0	0	0	444	622	
3	0	0	0	0	444	618	
4	0	0	0	0	444	622	
5	0	0	0	0	445	622	
6	0	0	0	0	445	622	
7	0	0	0	0	447	626	
8	0	0	0	0	448	623	
9	0	0	0	0	448	623	
10	0	0	0	0	448	622	
11	0	0	0	0	448	619	
12	0	0	0	0	448	622	
13	0	0	0	0	448	623	
14	0	0	0	0	448	623	
15	0	0	0	0	447	626	
0	0	0	0	0	448	623	
1	0	0	0	0	448	623	
2	0	0	0	0	449	623	
3	0	0	0	0	450	619	
4	0	0	0	0	450	622	
5	0	0	0	0	452	623	
6	0	0	0	0	453	623	
7	0	0	0	0	454	627	
8	0	0	0	0	457	624	
9	0	0	0	0	457	623	
10	0	0	0	0	459	623	
11	0	0	0	0	459	619	
12	0	0	0	0	460	623	
13	0	0	0	0	459	623	
14	0	0	0	0	460	623	
15	0	0	0	0	460	627	
0	0	0	0	0	461	622	
1	0	0	0	0	462	622	
2	0	0	0	0	465	622	
3	0	0	0	0	467	618	
4	0	0	0	0	468	622	
5	0	0	0	0	470	623	
6	0	0	0	0	472	622	
7	0	0	0	0	473	625	
8	0	0	0	0	474	622	
9	0	0	0	0	476	622	
10	0	0	0	0	478	623	
11	0	0	0	0	480	619	
12	0	0	0	0	483	623	
13	0	0	0	0	483	623	
14	0	0	0	0	486	623	
15	0	0	0	0	487	627	
0	0	0	0	0	488	623	
1	0	0	0	0	489	623	
2	0	0	0	0	490	623	
3	0	0	0	0	491	619	
4	0	0	0	0	492	623	
5	0	0	0	0	493	623	
6	0	0	0	0	494	623	
7	0	0	0	0	494	627	
8	0	0	0	0	494	623	
9	0	0	0	0	494	623	
10	0	0	0	0	495	623	
11	0	0	0	0	496	619	
12	0	0	0	0	496	624	
13	0	0	0	0	498	624	
14	0	0	0	0	499	624	
15	0	0	0	0	499	627	
0	0	0	0	0	500	624	
1	0	0	0	0	500	624	
2	0	0	0	0	500	624	
3	0	0	0	0	500	620	
4	0	0	0	0	500	624	
5	0	0	0	0	499	624	
6	0	0	0	0	498	624	
7	0	0	0	0	497	628	
8	0	0	0	0	497	624	
9	0	0	0	0	496	624	
10	0	0	0	0	496	624	
11	0	0	0	0	497	620	
12	0	0	0	0	497	624	
13	0	0	0	0	497	624	
14	0	0	0	0	497	625	
15	0	0	0	0	497	628	
0	0	0	0	0	497	624	
1	0	0	0	0	499	625	
2	0	0	0	0	499	625	
3	0	0	0	0	499	621	
4	0	0	0	0	500	625	
5	0	0	0	0	500	625	
6	0	0	0	0	501	625	
7	0	0	0	0	502	629	
8	0	0	0	0	503	625	
9	0	0	0	0	504	625	
10	0	0	0	0	505	624	
11	0	0	0	0	506	621	
12	0	0	0	0	508	625	
13	0	0	0	0	511	624	
14	0	0	0	0	513	624	
15	0	0	0	0	514	628	
0	0	0	0	0	517	624	
1	0	0	0	0	519	624	
2	0	0	0	0	521	624	
3	0	0	0	0	524	620	
4	0	0	0	0	526	624	
5	0	0	0	0	528	624	
6	0	0	0	0	530	624	
7	0	0	0	0	532	627	
8	0	0	0	0	535	624	
9	0	0	0	0	536	623	
10	0	0	0	0	537	623	
11	0	0	0	0	538	620	
12	0	0	0	0	539	623	
13	0	0	0	0	540	622	
14	0	0	0	0	541	623	
15	0	0	0	0	543	626	
0	0	0	0	0	544	623	
1	0	0	0	0	545	623	
2	0	0	0	0	546	623	
3	0	0	0	0	547	619	
4	0	0	0	0	548	623	
5	0	0	0	0	550	623	
6	0	0	0	0	551	623	
7	0	0	0	0	554	627	
8	0	0	0	0	556	623	
9	0	0	0	0	557	623	
10	0	0	0	0	558	623	
11	0	0	0	0	559	619	
12	0	0	0	0	559	624	
13	0	0	0	0	559	623	
14	0	0	0	0	560	623	
15	0	0	0	0	560	627	
0	0	0	0	0	562	623	
1	0	0	0	0	562	623	
2	0	0	0	0	562	622	
3	0	0	0	0	562	618	
4	0	0	0	0	563	623	
5	0	0	0	0	563	623	
6	0	0	0	0	564	623	
7	0	0	0	0	564	626	
8	0	0	0	0	565	623	
9	0	0	0	0	564	623	
10	0	0	0	0	563	623	
11	0	0	0	0	562	619	
12	0	0	0	0	562	623	
13	0	0	0	0	562	623	
14	0	0	0	0	562	623	
15	0	0	0	0	562	626	
0	0	0	0	0	563	623	
1	0	0	0	0	563	623	
2	0	0	0	0	563	623	
3	0	0	0	0	563	619	
4	0	0	0	0	563	623	
5	0	0	0	0	565	623	
6	0	0	0	0	567	623	
7	0	0	0	0	568	627	
8	0	0	0	0	569	623	
9	0	0	0	0	570	623	
10	0	0	0	0	572	623	
11	0	0	0	0	572	619	
12	0	0	0	0	573	622	
13	0	0	0	0	574	623	
14	0	0	0	0	574	623	
15	0	0	0	0	575	627	
0	0	0	0	0	577	623	
1	0	0	0	0	579	623	
2	0	0	0	0	582	623	
3	0	0	0	0	583	619	
4	0	0	0	0	584	623	
5	0	0	0	0	584	623	
6	0	0	0	0	586	623	
7	0	0	0	0	587	627	
8	0	0	0	0	589	622	
9	0	0	0	0	591	623	
10	0	0	0	0	593	623	
11	0	0	0	0	596	619	
12	0	0	0	0	598	623	
13	0	0	0	0	598	623	
14	0	0	0	0	600	623	
15	0	0	0	0	603	626	
0	0	0	0	0	606	623	
1	0	0	0	0	608	622	
2	0	0	0	0	611	623	
3	0	0	0	0	615	619	
4	0	0	0	0	617	623	
5	0	0	0	0	619	623	
6	0	0	0	0	620	623	
7	0	0	0	0	622	627	
8	0	0	0	0	624	624	
9	0	0	0	0	626	623	
10	0	0	0	0	627	623	
11	0	0	0	0	630	619	
12	0	0	0	0	633	623	
13	0	0	0	0	635	623	
14	0	0	0	0	636	624	
15	0	0	0	0	638	627	
0	0	0	0	0	640	623	
1	0	0	0	0	642	623	
2	0	0	0	0	643	623	
3	0	0	0	0	644	619	
4	0	0	0	0	646	623	
5	0	0	0	0	646	624	
6	0	0	0	0	647	624	
7	0	0	0	0	648	627	
8	0	0	0	0	650	624	
9	0	0	0	0	652	624	
10	0	0	0	0	655	624	
11	0	0	0	0	657	620	
12	0	0	0	0	659	624	
13	0	0	0	0	660	624	
14	0	0	0	0	663	624	
15	0	0	0	0	664	628	
0	0	0	0	0	665	624	
1	0	0	0	0	665	624	
2	0	0	0	0	666	624	
3	0	0	0	0	667	621	
4	0	0	0	0	668	624	
5	0	0	0	0	669	625	
6	0	0	0	0	670	624	
7	0	0	0	0	671	628	
8	0	0	0	0	674	625	
9	0	0	0	0	676	624	
10	0	0	0	0	679	625	
11	0	0	0	0	680	622	
12	0	0	0	0	682	625	
13	0	0	0	0	685	626	
14	0	0	0	0	688	625	
15	0	0	0	0	690	629	
0	0	0	0	0	694	625	
1	0	0	0	0	696	625	
2	0	0	0	0	699	626	
3	0	0	0	0	701	621	
4	0	0	0	0	703	625	
5	0	0	0	0	704	625	
6	0	0	0	0	704	625	
7	0	0	0	0	706	629	
8	0	0	0	0	707	625	
9	0	0	0	0	708	624	
10	0	0	0	0	709	625	
11	0	0	0	0	710	620	
12	0	0	0	0	711	624	
13	0	0	0	0	712	624	
14	0	0	0	0	712	623	
15	0	0	0	0	712	627	
0	0	0	0	0	711	623	
1	0	0	0	0	711	624	
2	0	0	0	0	710	624	
3	0	0	0	0	710	620	
4	0	0	0	0	708	623	
5	0	0	0	0	707	622	
6	0	0	0	0	707	624	
7	0	0	0	0	707	627	
8	0	0	0	0	705	623	
9	0	0	0	0	704	623	
10	0	0	0	0	703	623	
11	0	0	0	0	700	619	
12	0	0	0	0	699	623	
13	0	0	0	0	697	623	
14	0	0	0	0	695	623	
15	0	0	0	0	693	627	
0	0	0	0	0	693	623	
1	0	0	0	0	692	623	
2	0	0	0	0	691	623	
3	0	0	0	0	689	619	
4	0	0	0	0	687	623	
5	0	0	0	0	685	623	
6	0	0	0	0	684	623	
7	0	0	0	0	682	626	
8	0	0	0	0	679	622	
9	0	0	0	0	678	622	
10	0	0	0	0	677	623	
11	0	0	0	0	675	618	
12	0	0	0	0	673	622	
13	0	0	0	0	671	622	
14	0	0	0	0	670	623	
15	0	0	0	0	668	626	
0	0	0	0	0	668	622	
1	0	0	0	0	668	622	
2	0	0	0	0	669	622	
3	0	0	0	0	669	617	
4	0	0	0	0	668	622	
5	0	0	0	0	667	622	
6	0	0	0	0	666	622	
7	0	0	0	0	665	625	
8	0	0	0	0	664	622	
9	0	0	0	0	663	621	
10	0	0	0	0	661	621	
11	0	0	0	0	661	617	
12	0	0	0	0	661	621	
13	0	0	0	0	660	621	
14	0	0	0	0	661	621	
15	0	0	0	0	661	624	
0	0	0	0	0	660	621	
1	0	0	0	0	660	621	
2	0	0	0	0	660	621	
3	0	0	0	0	660	617	
4	0	0	0	0	659	621	
5	0	0	0	0	659	622	
6	0	0	0	0	658	621	
7	0	0	0	0	657	625	
8	0	0	0	0	657	622	
9	0	0	0	0	655	622	
10	0	0	0	0	652	622	
11	0	0	0	0	650	618	
12	0	0	0	0	648	623	
13	0	0	0	0	646	623	
14	0	0	0	0	645	624	
15	0	0	0	0	642	628	
0	0	0	0	0	639	624	
1	0	0	0	0	636	624	
2	0	0	0	0	634	624	
3	0	0	0	0	632	620	
4	0	0	0	0	630	625	
5	0	0	0	0	627	624	
6	0	0	0	0	625	625	
7	0	0	0	0	623	629	
8	0	0	0	0	622	625	
9	0	0	0	0	620	625	
10	0	0	0	0	617	625	
11	0	0	0	0	615	621	
12	0	0	0	0	613	625	
13	0	0	0	0	611	625	
14	0	0	0	0	609	626	
15	0	0	0	0	607	629	
0	0	0	0	0	605	626	
1	0	0	0	0	605	626	
2	0	0	0	0	604	626	
3	0	0	0	0	603	622	
4	0	0	0	0	603	625	
5	0	0	0	0	602	626	
6	0	0	0	0	601	626	
7	0	0	0	0	600	629	
8	0	0	0	0	600	626	
9	0	0	0	0	597	625	
10	0	0	0	0	597	625	
11	0	0	0	0	596	622	
12	0	0	0	0	596	625	
13	0	0	0	0	595	625	
14	0	0	0	0	595	625	
15	0	0	0	0	594	628	
0	0	0	0	0	593	625	
1	0	0	0	0	592	625	
2	0	0	0	0	592	624	
3	0	0	0	0	591	620	
4	0	0	0	0	590	624	
5	0	0	0	0	589	624	
6	0	0	0	0	588	623	
7	0	0	0	0	586	627	
8	0	0	0	0	584	623	
9	0	0	0	0	583	624	
10	0	0	0	0	582	623	
11	0	0	0	0	581	619	
12	0	0	0	0	580	623	
13	0	0	0	0	579	623	
14	0	0	0	0	577	622	
15	0	0	0	0	576	626	
0	0	0	0	0	574	622	
1	0	0	0	0	572	622	
2	0	0	0	0	570	622	
3	0	0	0	0	568	617	
4	0	0	0	0	567	622	
5	0	0	0	0	566	623	
6	0	0	0	0	564	622	
7	0	0	0	0	563	626	
8	0	0	0	0	562	622	
9	0	0	0	0	561	622	
10	0	0	0	0	560	622	
11	0	0	0	0	559	619	
12	0	0	0	0	558	622	
13	0	0	0	0	557	622	
14	0	0	0	0	556	623	
15	0	0	0	0	556	627	
0	0	0	0	0	556	622	
1	0	0	0	0	554	622	
2	0	0	0	0	552	622	
3	0	0	0	0	552	619	
4	0	0	0	0	550	623	
5	0	0	0	0	548	623	
6	0	0	0	0	548	623	
7	0	0	0	0	547	627	
8	0	0	0	0	547	623	
9	0	0	0	0	547	623	
10	0	0	0	0	548	623	
11	0	0	0	0	549	620	
12	0	0	0	0	548	623	
13	0	0	0	0	548	623	
14	0	0	0	0	547	624	
15	0	0	0	0	547	628	
0	0	0	0	0	547	624	
1	0	0	0	0	547	624	
2	0	0	0	0	547	624	
3	0	0	0	0	547	621	
4	0	0	0	0	547	625	
5	0	0	0	0	546	625	
6	0	0	0	0	547	625	
7	0	0	0	0	547	629	
8	0	0	0	0	546	625	
9	0	0	0	0	545	625	
10	0	0	0	0	546	624	
11	0	0	0	0	546	621	
12	0	0	0	0	546	626	
13	0	0	0	0	547	625	
14	0	0	0	0	547	625	
15	0	0	0	0	547	628	
0	0	0	0	0	546	624	
1	0	0	0	0	546	624	
2	0	0	0	0	545	625	
3	0	0	0	0	544	620	
4	0	0	0	0	543	625	
5	0	0	0	0	541	624	
6	0	0	0	0	539	625	
7	0	0	0	0	536	628	
8	0	0	0	0	536	624	
9	0	0	0	0	534	624	
10	0	0	0	0	532	624	
11	0	0	0	0	531	620	
12	0	0	0	0	530	624	
13	0	0	0	0	530	623	
14	0	0	0	0	530	623	
15	0	0	0	0	529	627	
0	0	0	0	0	529	623	
1	0	0	0	0	528	624	
2	0	0	0	0	526	623	
3	0	0	0	0	524	619	
4	0	0	0	0	521	623	
5	0	0	0	0	519	622	
6	0	0	0	0	519	622	
7	0	0	0	0	519	626	
8	0	0	0	0	519	622	
9	0	0	0	0	521	622	
10	0	0	0	0	525	622	
11	0	0	0	0	529	618	
12	0	0	0	0	534	623	
13	0	0	0	0	540	622	
14	0	0	0	0	547	622	
15	0	0	0	0	556	625	
0	0	0	0	0	565	622	
1	0	0	0	0	577	623	
2	0	0	0	0	593	622	
3	0	0	0	0	609	618	
4	0	0	0	0	624	622	
5	0	0	0	0	637	623	
6	0	0	0	0	651	622	
7	0	0	0	0	664	626	
8	0	0	0	0	677	622	
9	0	0	0	0	691	622	
10	0	0	0	0	707	622	
11	0	0	0	0	724	618	
12	0	0	0	0	742	622	
13	0	0	0	0	761	622	
14	0	0	0	0	781	623	
15	0	0	0	0	799	626	
0	0	0	0	0	816	622	
1	0	0	0	0	828	622	
2	0	0	0	0	837	622	
3	0	0	0	0	844	619	
4	0	0	0	0	849	622	
5	0	0	0	0	851	623	
6	0	0	0	0	851	624	
7	0	0	0	0	846	627	
8	0	0	0	0	838	623	
9	0	0	0	0	828	623	
10	0	0	0	0	816	623	
11	0	0	0	0	803	619	
12	0	0	0	0	789	623	
13	0	0	0	0	774	623	
14	0	0	0	0	756	624	
15	0	0	0	0	739	628	
0	0	0	0	0	723	623	
1	0	0	0	0	708	624	
2	0	0	0	0	693	624	
3	0	0	0	0	678	620	
4	0	0	0	0	664	624	
5	0	0	0	0	651	625	
6	0	0	0	0	639	624	
7	0	0	0	0	625	628	
8	0	0	0	0	612	624	
9	0	0	0	0	599	624	
10	0	0	0	0	584	624	
11	0	0	0	0	569	620	
12	0	0	0	0	554	624	
13	0	0	0	0	538	624	
14	0	0	0	0	523	624	
15	0	0	0	0	507	627	
0	0	0	0	0	491	624	
1	0	0	0	0	477	624	
2	0	0	0	0	464	624	
3	0	0	0	0	452	621	
4	0	0	0	0	442	624	
5	0	0	0	0	432	624	
6	0	0	0	0	423	624	
7	0	0	0	0	414	628	
8	0	0	0	0	407	624	
9	0	0	0	0	398	624	
10	0	0	0	0	390	624	
11	0	0	0	0	381	620	
12	0	0	0	0	373	624	
13	0	0	0	0	366	625	
14	0	0	0	0	359	625	
15	0	0	0	0	352	628	
0	0	0	0	0	346	625	
1	0	0	0	0	340	624	
2	0	0	0	0	335	624	
3	0	0	0	0	331	621	
4	0	0	0	0	327	625	
5	0	0	0	0	322	624	
6	0	0	0	0	317	624	
7	0	0	0	0	312	628	
8	0	0	0	0	308	625	
9	0	0	0	0	305	625	
10	0	0	0	0	302	625	
11	0	0	0	0	299	621	
12	0	0	0	0	297	625	
13	0	0	0	0	295	624	
14	0	0	0	0	293	624	
15	0	0	0	0	292	628	
0	0	0	0	0	292	625	
1	0	0	0	0	292	624	
2	0	0	0	0	293	624	
3	0	0	0	0	294	621	
4	0	0	0	0	296	624	
5	0	0	0	0	297	624	
6	0	0	0	0	298	624	
7	0	0	0	0	300	627	
8	0	0	0	0	302	624	
9	0	0	0	0	305	624	
10	0	0	0	0	306	624	
11	0	0	0	0	307	620	
12	0	0	0	0	308	624	
13	0	0	0	0	310	624	
14	0	0	0	0	311	624	
15	0	0	0	0	314	628	
0	0	0	0	0	316	624	
1	0	0	0	0	317	624	
2	0	0	0	0	319	624	
3	0	0	0	0	321	620	
4	0	0	0	0	324	624	
5	0	0	0	0	326	624	
6	0	0	0	0	327	624	
7	0	0	0	0	327	627	
8	0	0	0	0	328	624	
9	0	0	0	0	329	624	
10	0	0	0	0	330	624	
11	0	0	0	0	331	620	
12	0	0	0	0	332	624	
13	0	0	0	0	333	624	
14	0	0	0	0	335	624	
15	0	0	0	0	337	627	
0	0	0	0	0	340	623	
1	0	0	0	0	342	624	
2	0	0	0	0	343	624	
3	0	0	0	0	345	620	
4	0	0	0	0	346	624	
5	0	0	0	0	346	623	
6	0	0	0	0	347	624	
7	0	0	0	0	349	627	
8	0	0	0	0	351	624	
9	0	0	0	0	353	624	
10	0	0	0	0	355	624	
11	0	0	0	0	356	619	
12	0	0	0	0	358	623	
13	0	0	0	0	359	624	
14	0	0	0	0	360	624	
15	0	0	0	0	361	627	
0	0	0	0	0	361	623	
1	0	0	0	0	364	623	
2	0	0	0	0	365	623	
3	0	0	0	0	367	619	
4	0	0	0	0	369	623	
5	0	0	0	0	370	623	
6	0	0	0	0	371	623	
7	0	0	0	0	372	626	
8	0	0	0	0	373	623	
9	0	0	0	0	372	622	
10	0	0	0	0	371	622	
11	0	0	0	0	371	618	
12	0	0	0	0	371	622	
13	0	0	0	0	371	623	
14	0	0	0	0	370	622	
15	0	0	0	0	370	625	
0	0	0	0	0	370	622	
1	0	0	0	0	371	623	
2	0	0	0	0	370	623	
3	0	0	0	0	371	619	
4	0	0	0	0	372	622	
5	0	0	0	0	372	622	
6	0	0	0	0	373	623	
7	0	0	0	0	374	626	
8	0	0	0	0	374	622	
9	0	0	0	0	374	623	
10	0	0	0	0	374	623	
11	0	0	0	0	374	618	
12	0	0	0	0	374	623	
13	0	0	0	0	374	623	
14	0	0	0	0	374	623	
15	0	0	0	0	374	626	
0	0	0	0	0	374	623	
1	0	0	0	0	374	623	
2	0	0	0	0	375	623	
3	0	0	0	0	375	618	
4	0	0	0	0	375	622	
5	0	0	0	0	376	623	
6	0	0	0	0	375	623	
7	0	0	0	0	374	626	
8	0	0	0	0	374	622	
9	0	0	0	0	373	623	
10	0	0	0	0	372	623	
11	0	0	0	0	372	619	
12	0	0	0	0	371	623	
13	0	0	0	0	371	623	
14	0	0	0	0	371	623	
15	0	0	0	0	371	626	
0	0	0	0	0	372	623	
1	0	0	0	0	372	624	
2	0	0	0	0	372	623	
3	0	0	0	0	372	620	
4	0	0	0	0	372	623	
5	0	0	0	0	372	623	
6	0	0	0	0	371	623	
7	0	0	0	0	371	627	
8	0	0	0	0	371	623	
9	0	0	0	0	370	623	
10	0	0	0	0	369	623	
11	0	0	0	0	369	619	
12	0	0	0	0	369	623	
13	0	0	0	0	369	624	
14	0	0	0	0	370	624	
15	0	0	0	0	371	627	
0	0	0	0	0	371	623	
1	0	0	0	0	371	623	
2	0	0	0	0	373	622	
3	0	0	0	0	373	619	
4	0	0	0	0	375	623	
5	0	0	0	0	376	623	
6	0	0	0	0	376	622	
7	0	0	0	0	377	625	
8	0	0	0	0	379	622	
9	0	0	0	0	380	622	
10	0	0	0	0	380	622	
11	0	0	0	0	382	618	
12	0	0	0	0	383	622	
13	0	0	0	0	385	622	
14	0	0	0	0	386	622	
15	0	0	0	0	388	625	
0	0	0	0	0	389	622	
1	0	0	0	0	389	621	
2	0	0	0	0	389	620	
3	0	0	0	0	391	615	
4	0	0	0	0	391	620	
5	0	0	0	0	391	619	
6	0	0	0	0	391	620	
7	0	0	0	0	391	623	
8	0	0	0	0	391	619	
9	0	0	0	0	391	620	
10	0	0	0	0	391	619	
11	0	0	0	0	391	616	
12	0	0	0	0	392	619	
13	0	0	0	0	394	620	
14	0	0	0	0	396	620	
15	0	0	0	0	398	624	
0	0	0	0	0	400	621	
1	0	0	0	0	401	621	
2	0	0	0	0	403	621	
3	0	0	0	0	404	618	
4	0	0	0	0	406	623	
5	0	0	0	0	409	623	
6	0	0	0	0	412	623	
7	0	0	0	0	415	626	
8	0	0	0	0	417	623	
9	0	0	0	0	418	623	
10	0	0	0	0	420	624	
11	0	0	0	0	420	620	
12	0	0	0	0	422	624	
13	0	0	0	0	423	625	
14	0	0	0	0	423	625	
15	0	0	0	0	423	629	
0	0	0	0	0	423	625	
1	0	0	0	0	423	625	
2	0	0	0	0	424	624	
3	0	0	0	0	424	621	
4	0	0	0	0	424	625	
5	0	0	0	0	423	625	
6	0	0	0	0	421	625	
7	0	0	0	0	421	628	
8	0	0	0	0	422	624	
9	0	0	0	0	421	625	
10	0	0	0	0	421	624	
11	0	0	0	0	423	620	
12	0	0	0	0	424	624	
13	0	0	0	0	426	624	
14	0	0	0	0	428	623	
15	0	0	0	0	429	627	
0	0	0	0	0	431	623	
1	0	0	0	0	432	623	
2	0	0	0	0	434	623	
3	0	0	0	0	435	619	
4	0	0	0	0	436	623	
5	0	0	0	0	438	623	
6	0	0	0	0	440	623	
7	0	0	0	0	442	627	
8	0	0	0	0	444	623	
9	0	0	0	0	447	622	
10	0	0	0	0	448	623	
11	0	0	0	0	450	618	
12	0	0	0	0	451	623	
13	0	0	0	0	453	623	
14	0	0	0	0	454	624	
15	0	0	0	0	455	626	
0	0	0	0	0	457	624	
1	0	0	0	0	458	624	
2	0	0	0	0	461	624	
3	0	0	0	0	462	620	
4	0	0	0	0	464	624	
5	0	0	0	0	466	624	
6	0	0	0	0	468	624	
7	0	0	0	0	471	627	
8	0	0	0	0	473	624	
9	0	0	0	0	475	624	
10	0	0	0	0	476	623	
11	0	0	0	0	478	619	
12	0	0	0	0	479	624	
13	0	0	0	0	480	623	
14	0	0	0	0	480	623	
15	0	0	0	0	480	627	
0	0	0	0	0	481	623	
1	0	0	0	0	483	623	
2	0	0	0	0	484	623	
3	0	0	0	0	487	619	
4	0	0	0	0	489	623	
5	0	0	0	0	490	623	
6	0	0	0	0	491	623	
7	0	0	0	0	492	626	
8	0	0	0	0	493	623	
9	0	0	0	0	493	623	
10	0	0	0	0	493	623	
11	0	0	0	0	493	619	
12	0	0	0	0	493	623	
13	0	0	0	0	493	623	
14	0	0	0	0	493	624	
15	0	0	0	0	493	627	
0	0	0	0	0	493	624	
1	0	0	0	0	492	624	
2	0	0	0	0	492	624	
3	0	0	0	0	492	619	
4	0	0	0	0	493	623	
5	0	0	0	0	494	623	
6	0	0	0	0	494	624	
7	0	0	0	0	495	628	
8	0	0	0	0	495	624	
9	0	0	0	0	496	624	
10	0	0	0	0	496	624	
11	0	0	0	0	496	620	
12	0	0	0	0	496	624	
13	0	0	0	0	495	624	
14	0	0	0	0	495	624	
15	0	0	0	0	495	628	
0	0	0	0	0	495	624	
1	0	0	0	0	496	625	
2	0	0	0	0	497	624	
3	0	0	0	0	497	620	
4	0	0	0	0	499	624	
5	0	0	0	0	500	624	
6	0	0	0	0	502	624	
7	0	0	0	0	504	628	
8	0	0	0	0	505	624	
9	0	0	0	0	507	624	
10	0	0	0	0	508	624	
11	0	0	0	0	510	620	
12	0	0	0	0	510	624	
13	0	0	0	0	512	624	
14	0	0	0	0	513	624	
15	0	0	0	0	514	627	
0	0	0	0	0	515	623	
1	0	0	0	0	516	623	
2	0	0	0	0	517	623	
3	0	0	0	0	519	619	
4	0	0	0	0	519	621	
5	0	0	0	0	521	621	
6	0	0	0	0	522	621	
7	0	0	0	0	524	624	
8	0	0	0	0	526	620	
9	0	0	0	0	527	620	
10	0	0	0	0	528	620	
11	0	0	0	0	530	615	
12	0	0	0	0	531	620	
13	0	0	0	0	533	620	
14	0	0	0	0	534	620	
15	0	0	0	0	536	624	
0	0	0	0	0	537	620	
1	0	0	0	0	536	620	
2	0	0	0	0	537	621	
3	0	0	0	0	538	617	
4	0	0	0	0	539	621	
5	0	0	0	0	540	621	
6	0	0	0	0	542	621	
7	0	0	0	0	543	626	
8	0	0	0	0	544	622	
9	0	0	0	0	546	622	
10	0	0	0	0	547	623	
11	0	0	0	0	548	619	
12	0	0	0	0	550	624	
13	0	0	0	0	550	624	
14	0	0	0	0	550	624	
15	0	0	0	0	550	628	
0	0	0	0	0	550	624	
1	0	0	0	0	548	625	
2	0	0	0	0	547	624	
3	0	0	0	0	547	621	
4	0	0	0	0	548	625	
5	0	0	0	0	549	626	
6	0	0	0	0	551	625	
7	0	0	0	0	551	629	
8	0	0	0	0	551	625	
9	0	0	0	0	551	625	
10	0	0	0	0	551	626	
11	0	0	0	0	550	622	
12	0	0	0	0	550	626	
13	0	0	0	0	549	625	
14	0	0	0	0	548	626	
15	0	0	0	0	547	629	
0	0	0	0	0	547	625	
1	0	0	0	0	545	625	
2	0	0	0	0	544	625	
3	0	0	0	0	543	621	
4	0	0	0	0	543	625	
5	0	0	0	0	541	625	
6	0	0	0	0	541	626	
7	0	0	0	0	540	629	
8	0	0	0	0	541	625	
9	0	0	0	0	540	624	
10	0	0	0	0	540	624	
11	0	0	0	0	539	620	
12	0	0	0	0	539	624	
13	0	0	0	0	538	624	
14	0	0	0	0	536	623	
15	0	0	0	0	536	628	
0	0	0	0	0	534	624	
1	0	0	0	0	531	624	
2	0	0	0	0	530	624	
3	0	0	0	0	528	620	
4	0	0	0	0	527	624	
5	0	0	0	0	526	624	
6	0	0	0	0	524	623	
7	0	0	0	0	524	627	
8	0	0	0	0	524	622	
9	0	0	0	0	524	623	
10	0	0	0	0	524	623	
11	0	0	0	0	523	618	
12	0	0	0	0	524	623	
13	0	0	0	0	524	623	
14	0	0	0	0	523	622	
15	0	0	0	0	523	626	
0	0	0	0	0	524	622	
1	0	0	0	0	524	622	
2	0	0	0	0	524	622	
3	0	0	0	0	524	618	
4	0	0	0	0	524	622	
5	0	0	0	0	524	622	
6	0	0	0	0	523	623	
7	0	0	0	0	522	626	
8	0	0	0	0	521	623	
9	0	0	0	0	520	623	
10	0	0	0	0	519	623	
11	0	0	0	0	518	618	
12	0	0	0	0	517	623	
13	0	0	0	0	516	623	
14	0	0	0	0	515	624	
15	0	0	0	0	514	627	
0	0	0	0	0	512	624	
1	0	0	0	0	510	624	
2	0	0	0	0	509	624	
3	0	0	0	0	507	620	
4	0	0	0	0	506	624	
5	0	0	0	0	506	624	
6	0	0	0	0	505	624	
7	0	0	0	0	505	628	
8	0	0	0	0	503	624	
9	0	0	0	0	502	624	
10	0	0	0	0	500	624	
11	0	0	0	0	498	621	
12	0	0	0	0	497	624	
13	0	0	0	0	496	625	
14	0	0	0	0	494	625	
15	0	0	0	0	493	628	
0	0	0	0	0	493	624	
1	0	0	0	0	493	624	
2	0	0	0	0	492	625	
3	0	0	0	0	492	622	
4	0	0	0	0	492	625	
5	0	0	0	0	492	625	
6	0	0	0	0	492	626	
7	0	0	0	0	492	630	
8	0	0	0	0	492	626	
9	0	0	0	0	492	625	
10	0	0	0	0	493	625	
11	0	0	0	0	493	622	
12	0	0	0	0	493	625	
13	0	0	0	0	493	625	
14	0	0	0	0	493	626	
15	0	0	0	0	493	629	
0	0	0	0	0	494	626	
1	0	0	0	0	493	625	
2	0	0	0	0	494	625	
3	0	0	0	0	495	622	
4	0	0	0	0	496	625	
5	0	0	0	0	496	625	
6	0	0	0	0	498	626	
7	0	0	0	0	498	629	
8	0	0	0	0	499	625	
9	0	0	0	0	501	625	
10	0	0	0	0	501	624	
11	0	0	0	0	503	620	
12	0	0	0	0	504	625	
13	0	0	0	0	505	625	
14	0	0	0	0	506	625	
15	0	0	0	0	507	628	
0	0	0	0	0	507	624	
1	0	0	0	0	508	624	
2	0	0	0	0	508	624	
3	0	0	0	0	509	619	
4	0	0	0	0	509	624	
5	0	0	0	0	510	624	
6	0	0	0	0	511	624	
7	0	0	0	0	511	627	
8	0	0	0	0	512	624	
9	0	0	0	0	513	624	
10	0	0	0	0	513	623	
11	0	0	0	0	514	620	
12	0	0	0	0	514	623	
13	0	0	0	0	513	622	
14	0	0	0	0	514	623	
15	0	0	0	0	513	627	
0	0	0	0	0	514	624	
1	0	0	0	0	514	624	
2	0	0	0	0	515	623	
