# OpenSignals Text File Format
# {"98:D3:91:FD:58:3A":{"sensor":["ECGBIT","ACCBITREV"],"device name":"98:D3:91:FD:58:3A","column":["nSeq","I1","I2","O1","O2","A2","A5"],"sync interval":2,"time":"19:56:50","comments":"","device connection":"BTH98:D3:91:FD:58:3A","channels":[2,5],"date":"2021-09-03","mode":0,"digital IO":[0,0,1,1],"firmware version":0,"device":"bitalino_rev","position":0,"sampling rate":1000,"label":["A2","A5"],"resolution":[10,10],"special":[{},{}]}}
# EndOfHeader
0	0	0	0	0	513	615
1	0	0	0	0	512	617
2	0	0	0	0	512	618
3	0	0	0	0	511	618
4	0	0	0	0	511	620
5	0	0	0	0	511	618
6	0	0	0	0	511	617
7	0	0	0	0	511	618
8	0	0	0	0	512	615
9	0	0	0	0	512	618
10	0	0	0	0	513	617
11	0	0	0	0	513	617
12	0	0	0	0	513	620
13	0	0	0	0	514	617
14	0	0	0	0	514	617
15	0	0	0	0	514	617
0	0	0	0	0	513	615
1	0	0	0	0	514	617
2	0	0	0	0	513	617
3	0	0	0	0	513	616
4	0	0	0	0	513	620
5	0	0	0	0	514	617
6	0	0	0	0	513	617
7	0	0	0	0	512	617
8	0	0	0	0	511	614
9	0	0	0	0	511	617
10	0	0	0	0	510	617
11	0	0	0	0	511	617
12	0	0	0	0	512	620
13	0	0	0	0	511	617
14	0	0	0	0	511	617
15	0	0	0	0	511	617
0	0	0	0	0	511	614
1	0	0	0	0	513	617
2	0	0	0	0	513	616
3	0	0	0	0	513	617
4	0	0	0	0	514	620
5	0	0	0	0	514	617
6	0	0	0	0	514	617
7	0	0	0	0	514	616
8	0	0	0	0	513	614
9	0	0	0	0	513	617
10	0	0	0	0	513	616
11	0	0	0	0	512	616
12	0	0	0	0	511	619
13	0	0	0	0	510	617
14	0	0	0	0	509	617
15	0	0	0	0	508	617
0	0	0	0	0	506	614
1	0	0	0	0	503	617
2	0	0	0	0	501	617
3	0	0	0	0	499	618
4	0	0	0	0	497	620
5	0	0	0	0	496	617
6	0	0	0	0	494	617
7	0	0	0	0	492	618
8	0	0	0	0	491	615
9	0	0	0	0	489	617
10	0	0	0	0	488	617
11	0	0	0	0	486	617
12	0	0	0	0	483	621
13	0	0	0	0	479	618
14	0	0	0	0	474	617
15	0	0	0	0	467	618
0	0	0	0	0	459	615
1	0	0	0	0	449	618
2	0	0	0	0	439	618
3	0	0	0	0	430	618
4	0	0	0	0	423	621
5	0	0	0	0	419	617
6	0	0	0	0	417	617
7	0	0	0	0	417	617
8	0	0	0	0	418	615
9	0	0	0	0	421	617
10	0	0	0	0	424	617
11	0	0	0	0	427	617
12	0	0	0	0	433	620
13	0	0	0	0	448	618
14	0	0	0	0	467	617
15	0	0	0	0	491	617
0	0	0	0	0	517	615
1	0	0	0	0	546	617
2	0	0	0	0	579	617
3	0	0	0	0	616	618
4	0	0	0	0	651	620
5	0	0	0	0	680	618
6	0	0	0	0	704	618
7	0	0	0	0	728	618
8	0	0	0	0	746	615
9	0	0	0	0	760	617
10	0	0	0	0	767	617
11	0	0	0	0	764	618
12	0	0	0	0	755	619
13	0	0	0	0	747	617
14	0	0	0	0	736	617
15	0	0	0	0	725	616
0	0	0	0	0	711	614
1	0	0	0	0	692	617
2	0	0	0	0	673	616
3	0	0	0	0	655	617
4	0	0	0	0	638	620
5	0	0	0	0	623	616
6	0	0	0	0	609	616
7	0	0	0	0	596	616
8	0	0	0	0	584	614
9	0	0	0	0	571	616
10	0	0	0	0	558	617
11	0	0	0	0	547	617
12	0	0	0	0	538	620
13	0	0	0	0	528	617
14	0	0	0	0	519	617
15	0	0	0	0	511	617
0	0	0	0	0	504	615
1	0	0	0	0	498	617
2	0	0	0	0	493	616
3	0	0	0	0	487	616
4	0	0	0	0	482	619
5	0	0	0	0	479	617
6	0	0	0	0	476	617
7	0	0	0	0	473	617
8	0	0	0	0	472	614
9	0	0	0	0	471	617
10	0	0	0	0	470	617
11	0	0	0	0	468	617
12	0	0	0	0	468	620
13	0	0	0	0	467	618
14	0	0	0	0	467	617
15	0	0	0	0	466	617
0	0	0	0	0	465	615
1	0	0	0	0	465	618
2	0	0	0	0	465	617
3	0	0	0	0	465	617
4	0	0	0	0	465	620
5	0	0	0	0	466	617
6	0	0	0	0	467	617
7	0	0	0	0	468	616
8	0	0	0	0	468	614
9	0	0	0	0	469	617
10	0	0	0	0	469	616
11	0	0	0	0	469	616
12	0	0	0	0	469	620
13	0	0	0	0	468	617
14	0	0	0	0	468	617
15	0	0	0	0	467	617
0	0	0	0	0	467	614
1	0	0	0	0	466	616
2	0	0	0	0	466	616
3	0	0	0	0	465	616
4	0	0	0	0	466	619
5	0	0	0	0	467	617
6	0	0	0	0	467	617
7	0	0	0	0	468	617
8	0	0	0	0	470	614
9	0	0	0	0	471	616
10	0	0	0	0	471	616
11	0	0	0	0	472	617
12	0	0	0	0	472	618
13	0	0	0	0	473	616
14	0	0	0	0	473	617
15	0	0	0	0	473	617
0	0	0	0	0	474	615
1	0	0	0	0	474	616
2	0	0	0	0	474	616
3	0	0	0	0	473	617
4	0	0	0	0	473	618
5	0	0	0	0	472	616
6	0	0	0	0	472	616
7	0	0	0	0	473	616
8	0	0	0	0	473	614
9	0	0	0	0	474	617
10	0	0	0	0	475	616
11	0	0	0	0	475	616
12	0	0	0	0	476	618
13	0	0	0	0	477	616
14	0	0	0	0	479	617
15	0	0	0	0	479	616
0	0	0	0	0	480	614
1	0	0	0	0	480	617
2	0	0	0	0	480	616
3	0	0	0	0	480	617
4	0	0	0	0	480	620
5	0	0	0	0	480	616
6	0	0	0	0	480	617
7	0	0	0	0	480	617
8	0	0	0	0	480	615
9	0	0	0	0	480	617
10	0	0	0	0	479	617
11	0	0	0	0	479	617
12	0	0	0	0	480	620
13	0	0	0	0	480	618
14	0	0	0	0	480	618
15	0	0	0	0	481	618
0	0	0	0	0	480	615
1	0	0	0	0	481	617
2	0	0	0	0	481	618
3	0	0	0	0	481	618
4	0	0	0	0	482	621
5	0	0	0	0	483	618
6	0	0	0	0	483	619
7	0	0	0	0	483	619
8	0	0	0	0	483	616
9	0	0	0	0	482	619
10	0	0	0	0	481	618
11	0	0	0	0	480	618
12	0	0	0	0	480	621
13	0	0	0	0	480	619
14	0	0	0	0	479	619
15	0	0	0	0	479	619
0	0	0	0	0	479	615
1	0	0	0	0	480	619
2	0	0	0	0	480	619
3	0	0	0	0	480	618
4	0	0	0	0	480	622
5	0	0	0	0	480	619
6	0	0	0	0	480	618
7	0	0	0	0	481	619
8	0	0	0	0	481	616
9	0	0	0	0	481	619
10	0	0	0	0	481	618
11	0	0	0	0	482	619
12	0	0	0	0	482	621
13	0	0	0	0	482	617
14	0	0	0	0	481	618
15	0	0	0	0	481	618
0	0	0	0	0	480	615
1	0	0	0	0	480	618
2	0	0	0	0	480	617
3	0	0	0	0	480	617
4	0	0	0	0	480	620
5	0	0	0	0	480	617
6	0	0	0	0	480	617
7	0	0	0	0	480	617
8	0	0	0	0	480	615
9	0	0	0	0	479	617
10	0	0	0	0	480	617
11	0	0	0	0	480	618
12	0	0	0	0	480	619
13	0	0	0	0	480	617
14	0	0	0	0	480	617
15	0	0	0	0	479	617
0	0	0	0	0	478	615
1	0	0	0	0	478	617
2	0	0	0	0	477	617
3	0	0	0	0	476	616
4	0	0	0	0	476	619
5	0	0	0	0	475	617
6	0	0	0	0	474	617
7	0	0	0	0	473	617
8	0	0	0	0	472	615
9	0	0	0	0	472	617
10	0	0	0	0	472	617
11	0	0	0	0	472	617
12	0	0	0	0	472	620
13	0	0	0	0	471	618
14	0	0	0	0	471	618
15	0	0	0	0	471	617
0	0	0	0	0	471	615
1	0	0	0	0	469	617
2	0	0	0	0	468	618
3	0	0	0	0	467	617
4	0	0	0	0	467	620
5	0	0	0	0	466	617
6	0	0	0	0	466	617
7	0	0	0	0	465	618
8	0	0	0	0	465	615
9	0	0	0	0	463	617
10	0	0	0	0	462	617
11	0	0	0	0	462	617
12	0	0	0	0	462	620
13	0	0	0	0	461	618
14	0	0	0	0	461	617
15	0	0	0	0	461	617
0	0	0	0	0	461	615
1	0	0	0	0	462	617
2	0	0	0	0	463	617
3	0	0	0	0	463	617
4	0	0	0	0	464	619
5	0	0	0	0	464	617
6	0	0	0	0	464	618
7	0	0	0	0	463	618
8	0	0	0	0	463	615
9	0	0	0	0	463	618
10	0	0	0	0	462	618
11	0	0	0	0	462	617
12	0	0	0	0	461	620
13	0	0	0	0	461	618
14	0	0	0	0	461	617
15	0	0	0	0	462	617
0	0	0	0	0	463	615
1	0	0	0	0	463	617
2	0	0	0	0	465	618
3	0	0	0	0	466	617
4	0	0	0	0	466	620
5	0	0	0	0	467	617
6	0	0	0	0	468	618
7	0	0	0	0	470	617
8	0	0	0	0	471	615
9	0	0	0	0	472	618
10	0	0	0	0	473	617
11	0	0	0	0	474	617
12	0	0	0	0	475	620
13	0	0	0	0	477	617
14	0	0	0	0	477	617
15	0	0	0	0	478	617
0	0	0	0	0	479	614
1	0	0	0	0	481	617
2	0	0	0	0	482	618
3	0	0	0	0	484	616
4	0	0	0	0	486	619
5	0	0	0	0	488	616
6	0	0	0	0	491	616
7	0	0	0	0	493	616
8	0	0	0	0	496	614
9	0	0	0	0	499	616
10	0	0	0	0	503	616
11	0	0	0	0	506	616
12	0	0	0	0	508	619
13	0	0	0	0	510	616
14	0	0	0	0	512	616
15	0	0	0	0	514	616
0	0	0	0	0	516	613
1	0	0	0	0	519	615
2	0	0	0	0	522	615
3	0	0	0	0	524	615
4	0	0	0	0	526	617
5	0	0	0	0	529	615
6	0	0	0	0	531	615
7	0	0	0	0	533	616
8	0	0	0	0	536	614
9	0	0	0	0	539	615
10	0	0	0	0	542	616
11	0	0	0	0	544	615
12	0	0	0	0	547	618
13	0	0	0	0	550	615
14	0	0	0	0	552	616
15	0	0	0	0	555	616
0	0	0	0	0	557	614
1	0	0	0	0	559	616
2	0	0	0	0	561	616
3	0	0	0	0	562	616
4	0	0	0	0	564	619
5	0	0	0	0	565	616
6	0	0	0	0	566	616
7	0	0	0	0	567	617
8	0	0	0	0	568	614
9	0	0	0	0	568	617
10	0	0	0	0	570	617
11	0	0	0	0	571	617
12	0	0	0	0	572	620
13	0	0	0	0	573	617
14	0	0	0	0	574	617
15	0	0	0	0	575	617
0	0	0	0	0	576	615
1	0	0	0	0	578	618
2	0	0	0	0	579	617
3	0	0	0	0	580	618
4	0	0	0	0	580	620
5	0	0	0	0	581	618
6	0	0	0	0	581	617
7	0	0	0	0	581	617
8	0	0	0	0	581	615
9	0	0	0	0	581	617
10	0	0	0	0	581	618
11	0	0	0	0	580	617
12	0	0	0	0	580	620
13	0	0	0	0	579	618
14	0	0	0	0	579	618
15	0	0	0	0	579	618
0	0	0	0	0	577	615
1	0	0	0	0	576	618
2	0	0	0	0	575	618
3	0	0	0	0	575	617
4	0	0	0	0	574	620
5	0	0	0	0	575	617
6	0	0	0	0	575	617
7	0	0	0	0	576	618
8	0	0	0	0	575	615
9	0	0	0	0	575	618
10	0	0	0	0	575	617
11	0	0	0	0	574	616
12	0	0	0	0	573	620
13	0	0	0	0	573	617
14	0	0	0	0	572	617
15	0	0	0	0	572	616
0	0	0	0	0	571	614
1	0	0	0	0	569	617
2	0	0	0	0	569	617
3	0	0	0	0	568	617
4	0	0	0	0	568	620
5	0	0	0	0	567	617
6	0	0	0	0	567	617
7	0	0	0	0	567	617
8	0	0	0	0	566	614
9	0	0	0	0	567	617
10	0	0	0	0	567	617
11	0	0	0	0	567	617
12	0	0	0	0	567	620
13	0	0	0	0	566	617
14	0	0	0	0	565	618
15	0	0	0	0	565	617
0	0	0	0	0	564	615
1	0	0	0	0	563	617
2	0	0	0	0	562	616
3	0	0	0	0	560	617
4	0	0	0	0	559	620
5	0	0	0	0	558	618
6	0	0	0	0	557	617
7	0	0	0	0	556	617
8	0	0	0	0	557	615
9	0	0	0	0	556	617
10	0	0	0	0	556	617
11	0	0	0	0	556	617
12	0	0	0	0	556	620
13	0	0	0	0	556	619
14	0	0	0	0	556	618
15	0	0	0	0	556	619
0	0	0	0	0	555	615
1	0	0	0	0	555	617
2	0	0	0	0	554	617
3	0	0	0	0	553	617
4	0	0	0	0	552	620
5	0	0	0	0	551	617
6	0	0	0	0	550	619
7	0	0	0	0	549	617
8	0	0	0	0	547	614
9	0	0	0	0	547	618
10	0	0	0	0	546	617
11	0	0	0	0	545	617
12	0	0	0	0	545	620
13	0	0	0	0	545	617
14	0	0	0	0	544	618
15	0	0	0	0	544	617
0	0	0	0	0	544	615
1	0	0	0	0	544	617
2	0	0	0	0	545	617
3	0	0	0	0	545	617
4	0	0	0	0	545	620
5	0	0	0	0	545	617
6	0	0	0	0	544	617
7	0	0	0	0	544	617
8	0	0	0	0	544	615
9	0	0	0	0	542	617
10	0	0	0	0	541	617
11	0	0	0	0	540	617
12	0	0	0	0	539	620
13	0	0	0	0	538	617
14	0	0	0	0	537	617
15	0	0	0	0	536	617
0	0	0	0	0	536	615
1	0	0	0	0	535	617
2	0	0	0	0	534	617
3	0	0	0	0	535	617
4	0	0	0	0	535	619
5	0	0	0	0	535	617
6	0	0	0	0	536	617
7	0	0	0	0	536	618
8	0	0	0	0	536	615
9	0	0	0	0	536	617
10	0	0	0	0	536	617
11	0	0	0	0	535	617
12	0	0	0	0	535	619
13	0	0	0	0	534	617
14	0	0	0	0	534	617
15	0	0	0	0	532	617
0	0	0	0	0	531	615
1	0	0	0	0	531	617
2	0	0	0	0	530	617
3	0	0	0	0	529	617
4	0	0	0	0	529	620
5	0	0	0	0	528	617
6	0	0	0	0	527	618
7	0	0	0	0	527	617
8	0	0	0	0	527	615
9	0	0	0	0	528	617
10	0	0	0	0	528	617
11	0	0	0	0	528	617
12	0	0	0	0	527	620
13	0	0	0	0	528	618
14	0	0	0	0	527	618
15	0	0	0	0	527	618
0	0	0	0	0	527	616
1	0	0	0	0	527	618
2	0	0	0	0	526	618
3	0	0	0	0	525	619
4	0	0	0	0	525	620
5	0	0	0	0	524	619
6	0	0	0	0	524	618
7	0	0	0	0	524	618
8	0	0	0	0	524	616
9	0	0	0	0	523	618
10	0	0	0	0	523	618
11	0	0	0	0	523	618
12	0	0	0	0	523	621
13	0	0	0	0	524	619
14	0	0	0	0	525	618
15	0	0	0	0	525	618
0	0	0	0	0	526	616
1	0	0	0	0	526	618
2	0	0	0	0	525	618
3	0	0	0	0	525	618
4	0	0	0	0	524	621
5	0	0	0	0	524	618
6	0	0	0	0	523	618
7	0	0	0	0	523	618
8	0	0	0	0	522	615
9	0	0	0	0	521	617
10	0	0	0	0	521	618
11	0	0	0	0	521	618
12	0	0	0	0	521	621
13	0	0	0	0	520	618
14	0	0	0	0	521	618
15	0	0	0	0	520	617
0	0	0	0	0	520	615
1	0	0	0	0	520	617
2	0	0	0	0	521	617
3	0	0	0	0	521	617
4	0	0	0	0	521	620
5	0	0	0	0	521	617
6	0	0	0	0	520	617
7	0	0	0	0	520	617
8	0	0	0	0	519	615
9	0	0	0	0	519	617
10	0	0	0	0	519	617
11	0	0	0	0	517	618
12	0	0	0	0	516	620
13	0	0	0	0	516	618
14	0	0	0	0	515	618
15	0	0	0	0	515	618
0	0	0	0	0	515	615
1	0	0	0	0	515	617
2	0	0	0	0	515	618
3	0	0	0	0	515	617
4	0	0	0	0	515	620
5	0	0	0	0	516	617
6	0	0	0	0	516	616
7	0	0	0	0	516	616
8	0	0	0	0	517	614
9	0	0	0	0	517	616
10	0	0	0	0	517	617
11	0	0	0	0	517	616
12	0	0	0	0	516	619
13	0	0	0	0	516	617
14	0	0	0	0	516	617
15	0	0	0	0	515	616
0	0	0	0	0	515	614
1	0	0	0	0	514	616
2	0	0	0	0	514	616
3	0	0	0	0	513	617
4	0	0	0	0	513	619
5	0	0	0	0	512	617
6	0	0	0	0	512	617
7	0	0	0	0	513	617
8	0	0	0	0	512	615
9	0	0	0	0	512	617
10	0	0	0	0	512	617
11	0	0	0	0	513	617
12	0	0	0	0	513	620
13	0	0	0	0	513	617
14	0	0	0	0	513	617
15	0	0	0	0	512	618
0	0	0	0	0	512	615
1	0	0	0	0	511	618
2	0	0	0	0	511	617
3	0	0	0	0	510	617
4	0	0	0	0	511	620
5	0	0	0	0	510	618
6	0	0	0	0	510	618
7	0	0	0	0	510	618
8	0	0	0	0	511	615
9	0	0	0	0	510	618
10	0	0	0	0	510	618
11	0	0	0	0	510	617
12	0	0	0	0	510	620
13	0	0	0	0	511	618
14	0	0	0	0	511	617
15	0	0	0	0	512	618
0	0	0	0	0	512	615
1	0	0	0	0	512	617
2	0	0	0	0	512	618
3	0	0	0	0	512	618
4	0	0	0	0	511	620
5	0	0	0	0	511	618
6	0	0	0	0	511	618
7	0	0	0	0	511	619
8	0	0	0	0	510	615
9	0	0	0	0	509	618
10	0	0	0	0	509	617
11	0	0	0	0	510	617
12	0	0	0	0	510	620
13	0	0	0	0	511	617
14	0	0	0	0	511	618
15	0	0	0	0	512	617
0	0	0	0	0	512	615
1	0	0	0	0	511	617
2	0	0	0	0	512	617
3	0	0	0	0	512	618
4	0	0	0	0	513	620
5	0	0	0	0	513	617
6	0	0	0	0	513	618
7	0	0	0	0	512	618
8	0	0	0	0	512	615
9	0	0	0	0	512	617
10	0	0	0	0	512	617
11	0	0	0	0	511	617
12	0	0	0	0	510	620
13	0	0	0	0	510	617
14	0	0	0	0	510	617
15	0	0	0	0	510	618
0	0	0	0	0	509	615
1	0	0	0	0	509	617
2	0	0	0	0	509	617
3	0	0	0	0	509	617
4	0	0	0	0	510	620
5	0	0	0	0	511	617
6	0	0	0	0	511	617
7	0	0	0	0	511	617
8	0	0	0	0	511	615
9	0	0	0	0	512	617
10	0	0	0	0	512	617
11	0	0	0	0	512	617
12	0	0	0	0	512	620
13	0	0	0	0	511	617
14	0	0	0	0	511	617
15	0	0	0	0	510	617
0	0	0	0	0	509	614
1	0	0	0	0	508	617
2	0	0	0	0	508	617
3	0	0	0	0	508	617
4	0	0	0	0	508	621
5	0	0	0	0	508	617
6	0	0	0	0	508	618
7	0	0	0	0	509	617
8	0	0	0	0	509	615
9	0	0	0	0	509	617
10	0	0	0	0	509	617
11	0	0	0	0	510	617
12	0	0	0	0	510	620
13	0	0	0	0	509	618
14	0	0	0	0	509	618
15	0	0	0	0	508	618
0	0	0	0	0	508	616
1	0	0	0	0	508	617
2	0	0	0	0	507	618
3	0	0	0	0	506	617
4	0	0	0	0	506	620
5	0	0	0	0	505	617
6	0	0	0	0	505	618
7	0	0	0	0	504	617
8	0	0	0	0	503	614
9	0	0	0	0	503	616
10	0	0	0	0	503	617
11	0	0	0	0	503	617
12	0	0	0	0	503	619
13	0	0	0	0	504	617
14	0	0	0	0	505	617
15	0	0	0	0	505	617
0	0	0	0	0	505	615
1	0	0	0	0	505	617
2	0	0	0	0	505	617
3	0	0	0	0	505	617
4	0	0	0	0	505	619
5	0	0	0	0	505	617
6	0	0	0	0	504	617
7	0	0	0	0	504	616
8	0	0	0	0	503	614
9	0	0	0	0	502	617
10	0	0	0	0	502	617
11	0	0	0	0	502	617
12	0	0	0	0	502	620
13	0	0	0	0	502	617
14	0	0	0	0	502	617
15	0	0	0	0	503	617
0	0	0	0	0	503	615
1	0	0	0	0	503	617
2	0	0	0	0	504	617
3	0	0	0	0	505	617
4	0	0	0	0	506	620
5	0	0	0	0	506	617
6	0	0	0	0	506	618
7	0	0	0	0	507	617
8	0	0	0	0	507	615
9	0	0	0	0	507	617
10	0	0	0	0	505	617
11	0	0	0	0	504	617
12	0	0	0	0	503	620
13	0	0	0	0	502	617
14	0	0	0	0	503	618
15	0	0	0	0	502	618
0	0	0	0	0	503	615
1	0	0	0	0	503	617
2	0	0	0	0	503	617
3	0	0	0	0	504	617
4	0	0	0	0	503	619
5	0	0	0	0	504	617
6	0	0	0	0	504	617
7	0	0	0	0	505	617
8	0	0	0	0	505	615
9	0	0	0	0	506	617
10	0	0	0	0	506	617
11	0	0	0	0	506	617
12	0	0	0	0	507	620
13	0	0	0	0	506	617
14	0	0	0	0	506	617
15	0	0	0	0	506	617
0	0	0	0	0	505	615
1	0	0	0	0	505	617
2	0	0	0	0	506	616
3	0	0	0	0	506	617
4	0	0	0	0	506	619
5	0	0	0	0	505	617
6	0	0	0	0	505	617
7	0	0	0	0	505	617
8	0	0	0	0	505	615
9	0	0	0	0	505	617
10	0	0	0	0	507	617
11	0	0	0	0	507	617
12	0	0	0	0	506	620
13	0	0	0	0	506	616
14	0	0	0	0	506	617
15	0	0	0	0	507	617
0	0	0	0	0	506	615
1	0	0	0	0	506	617
2	0	0	0	0	505	617
3	0	0	0	0	505	617
4	0	0	0	0	504	620
5	0	0	0	0	504	617
6	0	0	0	0	504	616
7	0	0	0	0	503	617
8	0	0	0	0	503	615
9	0	0	0	0	503	617
10	0	0	0	0	504	618
11	0	0	0	0	504	617
12	0	0	0	0	505	620
13	0	0	0	0	506	617
14	0	0	0	0	506	617
15	0	0	0	0	507	617
0	0	0	0	0	507	615
1	0	0	0	0	507	617
2	0	0	0	0	506	617
3	0	0	0	0	506	617
4	0	0	0	0	505	620
5	0	0	0	0	505	617
6	0	0	0	0	504	617
7	0	0	0	0	503	617
8	0	0	0	0	504	615
9	0	0	0	0	504	618
10	0	0	0	0	503	617
11	0	0	0	0	504	617
12	0	0	0	0	504	620
13	0	0	0	0	504	617
14	0	0	0	0	504	617
15	0	0	0	0	505	618
0	0	0	0	0	505	615
1	0	0	0	0	505	618
2	0	0	0	0	506	618
3	0	0	0	0	507	618
4	0	0	0	0	507	620
5	0	0	0	0	506	618
6	0	0	0	0	507	617
7	0	0	0	0	506	617
8	0	0	0	0	505	615
9	0	0	0	0	505	617
10	0	0	0	0	504	617
11	0	0	0	0	504	617
12	0	0	0	0	503	620
13	0	0	0	0	503	617
14	0	0	0	0	503	617
15	0	0	0	0	504	617
0	0	0	0	0	505	615
1	0	0	0	0	505	616
2	0	0	0	0	505	617
3	0	0	0	0	505	617
4	0	0	0	0	506	620
5	0	0	0	0	506	617
6	0	0	0	0	506	617
7	0	0	0	0	507	617
8	0	0	0	0	507	615
9	0	0	0	0	507	617
10	0	0	0	0	506	617
11	0	0	0	0	506	617
12	0	0	0	0	507	620
13	0	0	0	0	507	617
14	0	0	0	0	506	618
15	0	0	0	0	505	617
0	0	0	0	0	504	614
1	0	0	0	0	503	617
2	0	0	0	0	502	617
3	0	0	0	0	502	617
4	0	0	0	0	501	620
5	0	0	0	0	502	617
6	0	0	0	0	502	617
7	0	0	0	0	502	617
8	0	0	0	0	502	615
9	0	0	0	0	502	617
10	0	0	0	0	502	617
11	0	0	0	0	502	617
12	0	0	0	0	502	620
13	0	0	0	0	502	617
14	0	0	0	0	502	617
15	0	0	0	0	502	616
0	0	0	0	0	502	615
1	0	0	0	0	501	617
2	0	0	0	0	501	617
3	0	0	0	0	500	617
4	0	0	0	0	499	620
5	0	0	0	0	499	617
6	0	0	0	0	500	616
7	0	0	0	0	501	617
8	0	0	0	0	501	615
9	0	0	0	0	502	617
10	0	0	0	0	503	617
11	0	0	0	0	503	617
12	0	0	0	0	504	620
13	0	0	0	0	504	617
14	0	0	0	0	505	617
15	0	0	0	0	505	618
0	0	0	0	0	505	615
1	0	0	0	0	505	617
2	0	0	0	0	505	617
3	0	0	0	0	505	617
4	0	0	0	0	505	620
5	0	0	0	0	505	617
6	0	0	0	0	504	617
7	0	0	0	0	504	617
8	0	0	0	0	503	615
9	0	0	0	0	503	617
10	0	0	0	0	504	617
11	0	0	0	0	504	617
12	0	0	0	0	505	619
13	0	0	0	0	505	617
14	0	0	0	0	506	617
15	0	0	0	0	507	617
0	0	0	0	0	507	615
1	0	0	0	0	508	617
2	0	0	0	0	508	617
3	0	0	0	0	508	618
4	0	0	0	0	509	620
5	0	0	0	0	508	617
6	0	0	0	0	508	617
7	0	0	0	0	508	617
8	0	0	0	0	508	614
9	0	0	0	0	508	617
10	0	0	0	0	508	617
11	0	0	0	0	508	617
12	0	0	0	0	508	620
13	0	0	0	0	508	617
14	0	0	0	0	508	617
15	0	0	0	0	508	617
0	0	0	0	0	507	614
1	0	0	0	0	508	617
2	0	0	0	0	509	617
3	0	0	0	0	509	617
4	0	0	0	0	510	620
5	0	0	0	0	511	617
6	0	0	0	0	512	617
7	0	0	0	0	513	617
8	0	0	0	0	512	614
9	0	0	0	0	512	617
10	0	0	0	0	511	617
11	0	0	0	0	511	617
12	0	0	0	0	511	620
13	0	0	0	0	511	617
14	0	0	0	0	511	618
15	0	0	0	0	510	617
0	0	0	0	0	509	615
1	0	0	0	0	508	618
2	0	0	0	0	507	617
3	0	0	0	0	508	617
4	0	0	0	0	508	620
5	0	0	0	0	508	618
6	0	0	0	0	508	617
7	0	0	0	0	509	618
8	0	0	0	0	510	615
9	0	0	0	0	511	617
10	0	0	0	0	511	617
11	0	0	0	0	511	617
12	0	0	0	0	512	621
13	0	0	0	0	512	618
14	0	0	0	0	512	618
15	0	0	0	0	512	617
0	0	0	0	0	511	615
1	0	0	0	0	511	617
2	0	0	0	0	511	617
3	0	0	0	0	511	617
4	0	0	0	0	511	620
5	0	0	0	0	510	617
6	0	0	0	0	510	617
7	0	0	0	0	510	618
8	0	0	0	0	510	615
9	0	0	0	0	510	617
10	0	0	0	0	510	617
11	0	0	0	0	511	617
12	0	0	0	0	511	620
13	0	0	0	0	511	617
14	0	0	0	0	511	617
15	0	0	0	0	512	618
0	0	0	0	0	512	615
1	0	0	0	0	512	618
2	0	0	0	0	512	618
3	0	0	0	0	512	617
4	0	0	0	0	511	620
5	0	0	0	0	511	618
6	0	0	0	0	511	618
7	0	0	0	0	510	617
8	0	0	0	0	510	615
9	0	0	0	0	508	617
10	0	0	0	0	508	618
11	0	0	0	0	508	618
12	0	0	0	0	507	620
13	0	0	0	0	507	618
14	0	0	0	0	507	618
15	0	0	0	0	505	618
0	0	0	0	0	504	615
1	0	0	0	0	503	618
2	0	0	0	0	501	618
3	0	0	0	0	499	618
4	0	0	0	0	497	620
5	0	0	0	0	496	617
6	0	0	0	0	493	618
7	0	0	0	0	490	617
8	0	0	0	0	487	615
9	0	0	0	0	485	617
10	0	0	0	0	483	617
11	0	0	0	0	481	617
12	0	0	0	0	477	620
13	0	0	0	0	474	618
14	0	0	0	0	469	617
15	0	0	0	0	463	617
0	0	0	0	0	455	615
1	0	0	0	0	446	617
2	0	0	0	0	435	617
3	0	0	0	0	425	617
4	0	0	0	0	416	620
5	0	0	0	0	411	616
6	0	0	0	0	408	617
7	0	0	0	0	408	618
8	0	0	0	0	408	615
9	0	0	0	0	411	617
10	0	0	0	0	413	617
11	0	0	0	0	415	617
12	0	0	0	0	419	619
13	0	0	0	0	427	617
14	0	0	0	0	440	617
15	0	0	0	0	459	617
0	0	0	0	0	481	614
1	0	0	0	0	508	617
2	0	0	0	0	537	617
3	0	0	0	0	571	617
4	0	0	0	0	600	619
5	0	0	0	0	624	617
6	0	0	0	0	644	617
7	0	0	0	0	664	617
8	0	0	0	0	683	615
9	0	0	0	0	697	617
10	0	0	0	0	704	616
11	0	0	0	0	702	616
12	0	0	0	0	696	620
13	0	0	0	0	687	616
14	0	0	0	0	678	617
15	0	0	0	0	668	616
0	0	0	0	0	658	614
1	0	0	0	0	645	616
2	0	0	0	0	632	616
3	0	0	0	0	620	616
4	0	0	0	0	609	619
5	0	0	0	0	600	617
6	0	0	0	0	592	617
7	0	0	0	0	584	616
8	0	0	0	0	577	614
9	0	0	0	0	569	616
10	0	0	0	0	561	616
11	0	0	0	0	554	616
12	0	0	0	0	547	619
13	0	0	0	0	540	616
14	0	0	0	0	533	616
15	0	0	0	0	526	617
0	0	0	0	0	520	615
1	0	0	0	0	515	616
2	0	0	0	0	509	616
3	0	0	0	0	504	617
4	0	0	0	0	498	620
5	0	0	0	0	493	617
6	0	0	0	0	489	617
7	0	0	0	0	486	617
8	0	0	0	0	483	615
9	0	0	0	0	480	617
10	0	0	0	0	478	617
11	0	0	0	0	476	617
12	0	0	0	0	475	620
13	0	0	0	0	475	617
14	0	0	0	0	475	618
15	0	0	0	0	475	617
0	0	0	0	0	475	615
1	0	0	0	0	476	617
2	0	0	0	0	476	617
3	0	0	0	0	476	618
4	0	0	0	0	476	620
5	0	0	0	0	475	619
6	0	0	0	0	475	618
7	0	0	0	0	474	617
8	0	0	0	0	475	615
9	0	0	0	0	474	617
10	0	0	0	0	473	619
11	0	0	0	0	472	618
12	0	0	0	0	472	620
13	0	0	0	0	472	618
14	0	0	0	0	472	617
15	0	0	0	0	471	618
0	0	0	0	0	471	615
1	0	0	0	0	471	617
2	0	0	0	0	472	618
3	0	0	0	0	471	617
4	0	0	0	0	472	620
5	0	0	0	0	472	617
6	0	0	0	0	473	617
7	0	0	0	0	473	617
8	0	0	0	0	473	615
9	0	0	0	0	473	617
10	0	0	0	0	473	617
11	0	0	0	0	473	616
12	0	0	0	0	473	619
13	0	0	0	0	473	617
14	0	0	0	0	472	616
15	0	0	0	0	472	617
0	0	0	0	0	472	615
1	0	0	0	0	472	617
2	0	0	0	0	472	617
3	0	0	0	0	472	617
4	0	0	0	0	472	620
5	0	0	0	0	473	617
6	0	0	0	0	473	617
7	0	0	0	0	473	617
8	0	0	0	0	474	614
9	0	0	0	0	475	616
10	0	0	0	0	475	616
11	0	0	0	0	476	616
12	0	0	0	0	477	619
13	0	0	0	0	477	616
14	0	0	0	0	478	617
15	0	0	0	0	478	616
0	0	0	0	0	479	614
1	0	0	0	0	479	617
2	0	0	0	0	479	617
3	0	0	0	0	479	617
4	0	0	0	0	480	620
5	0	0	0	0	479	617
6	0	0	0	0	479	617
7	0	0	0	0	478	617
8	0	0	0	0	479	615
9	0	0	0	0	479	618
10	0	0	0	0	479	618
11	0	0	0	0	479	618
12	0	0	0	0	480	620
13	0	0	0	0	481	618
14	0	0	0	0	481	618
15	0	0	0	0	481	619
0	0	0	0	0	480	615
1	0	0	0	0	480	618
2	0	0	0	0	481	618
3	0	0	0	0	480	618
4	0	0	0	0	480	620
5	0	0	0	0	480	618
6	0	0	0	0	480	618
7	0	0	0	0	480	618
8	0	0	0	0	480	615
9	0	0	0	0	480	618
10	0	0	0	0	479	617
11	0	0	0	0	479	618
12	0	0	0	0	479	621
13	0	0	0	0	479	618
14	0	0	0	0	479	618
15	0	0	0	0	479	618
0	0	0	0	0	479	615
1	0	0	0	0	479	617
2	0	0	0	0	479	617
3	0	0	0	0	479	618
4	0	0	0	0	480	620
5	0	0	0	0	479	617
6	0	0	0	0	478	618
7	0	0	0	0	478	618
8	0	0	0	0	477	615
9	0	0	0	0	478	617
10	0	0	0	0	477	617
11	0	0	0	0	476	617
12	0	0	0	0	476	620
13	0	0	0	0	476	618
14	0	0	0	0	475	617
15	0	0	0	0	475	618
0	0	0	0	0	475	615
1	0	0	0	0	474	617
2	0	0	0	0	473	617
3	0	0	0	0	473	617
4	0	0	0	0	473	619
5	0	0	0	0	474	617
6	0	0	0	0	474	616
7	0	0	0	0	474	617
8	0	0	0	0	472	614
9	0	0	0	0	472	616
10	0	0	0	0	472	617
11	0	0	0	0	471	616
12	0	0	0	0	470	619
13	0	0	0	0	468	616
14	0	0	0	0	466	617
15	0	0	0	0	465	616
0	0	0	0	0	464	614
1	0	0	0	0	463	616
2	0	0	0	0	462	616
3	0	0	0	0	462	616
4	0	0	0	0	461	619
5	0	0	0	0	461	617
6	0	0	0	0	460	616
7	0	0	0	0	460	617
8	0	0	0	0	459	614
9	0	0	0	0	459	617
10	0	0	0	0	459	617
11	0	0	0	0	458	617
12	0	0	0	0	458	620
13	0	0	0	0	457	617
14	0	0	0	0	456	617
15	0	0	0	0	455	617
0	0	0	0	0	455	615
1	0	0	0	0	454	617
2	0	0	0	0	453	618
3	0	0	0	0	452	618
4	0	0	0	0	451	620
5	0	0	0	0	451	619
6	0	0	0	0	450	618
7	0	0	0	0	450	619
8	0	0	0	0	449	616
9	0	0	0	0	448	618
10	0	0	0	0	448	619
11	0	0	0	0	448	618
12	0	0	0	0	448	621
13	0	0	0	0	447	619
14	0	0	0	0	447	619
15	0	0	0	0	447	619
0	0	0	0	0	447	616
1	0	0	0	0	446	618
2	0	0	0	0	446	618
3	0	0	0	0	445	618
4	0	0	0	0	445	620
5	0	0	0	0	444	618
6	0	0	0	0	444	618
7	0	0	0	0	443	618
8	0	0	0	0	442	615
9	0	0	0	0	441	618
10	0	0	0	0	441	618
11	0	0	0	0	441	617
12	0	0	0	0	441	620
13	0	0	0	0	441	617
14	0	0	0	0	441	617
15	0	0	0	0	441	617
0	0	0	0	0	443	615
1	0	0	0	0	443	617
2	0	0	0	0	443	617
3	0	0	0	0	444	617
4	0	0	0	0	445	619
5	0	0	0	0	446	617
6	0	0	0	0	447	617
7	0	0	0	0	448	617
8	0	0	0	0	448	614
9	0	0	0	0	449	616
10	0	0	0	0	449	616
11	0	0	0	0	451	616
12	0	0	0	0	452	619
13	0	0	0	0	453	617
14	0	0	0	0	454	617
15	0	0	0	0	455	617
0	0	0	0	0	456	615
1	0	0	0	0	458	617
2	0	0	0	0	460	617
3	0	0	0	0	462	617
4	0	0	0	0	465	618
5	0	0	0	0	469	616
6	0	0	0	0	471	616
7	0	0	0	0	474	616
8	0	0	0	0	476	614
9	0	0	0	0	479	616
10	0	0	0	0	481	617
11	0	0	0	0	483	617
12	0	0	0	0	485	619
13	0	0	0	0	487	617
14	0	0	0	0	489	617
15	0	0	0	0	492	617
0	0	0	0	0	494	615
1	0	0	0	0	496	617
2	0	0	0	0	499	617
3	0	0	0	0	502	617
4	0	0	0	0	505	620
5	0	0	0	0	508	617
6	0	0	0	0	511	617
7	0	0	0	0	513	617
8	0	0	0	0	517	615
9	0	0	0	0	520	618
10	0	0	0	0	524	619
11	0	0	0	0	527	618
12	0	0	0	0	529	620
13	0	0	0	0	531	618
14	0	0	0	0	533	619
15	0	0	0	0	535	618
0	0	0	0	0	536	615
1	0	0	0	0	539	618
2	0	0	0	0	540	618
3	0	0	0	0	540	618
4	0	0	0	0	543	620
5	0	0	0	0	544	618
6	0	0	0	0	545	618
7	0	0	0	0	546	617
8	0	0	0	0	548	616
9	0	0	0	0	550	618
10	0	0	0	0	551	617
11	0	0	0	0	553	618
12	0	0	0	0	555	620
13	0	0	0	0	558	618
14	0	0	0	0	560	618
15	0	0	0	0	560	617
0	0	0	0	0	561	615
1	0	0	0	0	563	618
2	0	0	0	0	563	618
3	0	0	0	0	564	617
4	0	0	0	0	565	620
5	0	0	0	0	565	618
6	0	0	0	0	565	617
7	0	0	0	0	565	617
8	0	0	0	0	565	615
9	0	0	0	0	564	618
10	0	0	0	0	564	617
11	0	0	0	0	563	617
12	0	0	0	0	563	620
13	0	0	0	0	564	617
14	0	0	0	0	565	617
15	0	0	0	0	565	617
0	0	0	0	0	565	615
1	0	0	0	0	565	616
2	0	0	0	0	564	616
3	0	0	0	0	565	617
4	0	0	0	0	565	619
5	0	0	0	0	565	617
6	0	0	0	0	565	616
7	0	0	0	0	565	616
8	0	0	0	0	565	615
9	0	0	0	0	564	616
10	0	0	0	0	563	615
11	0	0	0	0	562	616
12	0	0	0	0	561	618
13	0	0	0	0	560	616
14	0	0	0	0	560	616
15	0	0	0	0	560	617
0	0	0	0	0	560	614
1	0	0	0	0	559	616
2	0	0	0	0	559	617
3	0	0	0	0	559	616
4	0	0	0	0	559	619
5	0	0	0	0	560	617
6	0	0	0	0	559	617
7	0	0	0	0	559	617
8	0	0	0	0	559	614
9	0	0	0	0	559	616
10	0	0	0	0	558	617
11	0	0	0	0	556	617
12	0	0	0	0	556	620
13	0	0	0	0	555	618
14	0	0	0	0	554	617
15	0	0	0	0	553	616
0	0	0	0	0	552	614
1	0	0	0	0	551	617
2	0	0	0	0	551	616
3	0	0	0	0	551	617
4	0	0	0	0	551	619
5	0	0	0	0	551	617
6	0	0	0	0	550	616
7	0	0	0	0	549	617
8	0	0	0	0	550	615
9	0	0	0	0	550	618
10	0	0	0	0	550	617
11	0	0	0	0	550	618
12	0	0	0	0	550	620
13	0	0	0	0	549	617
14	0	0	0	0	548	617
15	0	0	0	0	548	618
0	0	0	0	0	548	615
1	0	0	0	0	547	617
2	0	0	0	0	546	616
3	0	0	0	0	546	617
4	0	0	0	0	545	620
5	0	0	0	0	544	618
6	0	0	0	0	544	618
7	0	0	0	0	543	617
8	0	0	0	0	543	615
9	0	0	0	0	543	617
10	0	0	0	0	541	617
11	0	0	0	0	540	618
12	0	0	0	0	541	620
13	0	0	0	0	541	617
14	0	0	0	0	541	618
15	0	0	0	0	541	618
0	0	0	0	0	541	615
1	0	0	0	0	540	617
2	0	0	0	0	540	619
3	0	0	0	0	540	618
4	0	0	0	0	540	620
5	0	0	0	0	539	618
6	0	0	0	0	539	619
7	0	0	0	0	538	618
8	0	0	0	0	537	616
9	0	0	0	0	536	619
10	0	0	0	0	536	618
11	0	0	0	0	536	618
12	0	0	0	0	535	621
13	0	0	0	0	535	618
14	0	0	0	0	534	618
15	0	0	0	0	534	617
0	0	0	0	0	534	615
1	0	0	0	0	534	619
2	0	0	0	0	534	618
3	0	0	0	0	534	619
4	0	0	0	0	534	620
5	0	0	0	0	534	617
6	0	0	0	0	533	618
7	0	0	0	0	533	617
8	0	0	0	0	533	615
9	0	0	0	0	533	617
10	0	0	0	0	532	617
11	0	0	0	0	532	617
12	0	0	0	0	531	620
13	0	0	0	0	530	618
14	0	0	0	0	530	617
15	0	0	0	0	529	617
0	0	0	0	0	530	615
1	0	0	0	0	531	616
2	0	0	0	0	530	616
3	0	0	0	0	529	616
4	0	0	0	0	529	619
5	0	0	0	0	529	617
6	0	0	0	0	530	617
7	0	0	0	0	529	617
8	0	0	0	0	529	615
9	0	0	0	0	529	616
10	0	0	0	0	528	617
11	0	0	0	0	528	616
12	0	0	0	0	527	620
13	0	0	0	0	527	617
14	0	0	0	0	526	617
15	0	0	0	0	526	616
0	0	0	0	0	524	614
1	0	0	0	0	523	617
2	0	0	0	0	523	616
3	0	0	0	0	523	616
4	0	0	0	0	523	619
5	0	0	0	0	523	616
6	0	0	0	0	523	617
7	0	0	0	0	524	617
8	0	0	0	0	524	615
9	0	0	0	0	524	616
10	0	0	0	0	524	617
11	0	0	0	0	524	616
12	0	0	0	0	524	619
13	0	0	0	0	524	616
14	0	0	0	0	524	617
15	0	0	0	0	524	617
0	0	0	0	0	524	614
1	0	0	0	0	523	616
2	0	0	0	0	523	616
3	0	0	0	0	523	616
4	0	0	0	0	522	619
5	0	0	0	0	521	617
6	0	0	0	0	520	617
7	0	0	0	0	520	617
8	0	0	0	0	519	614
9	0	0	0	0	520	616
10	0	0	0	0	520	617
11	0	0	0	0	519	616
12	0	0	0	0	519	619
13	0	0	0	0	520	618
14	0	0	0	0	521	618
15	0	0	0	0	521	618
0	0	0	0	0	520	615
1	0	0	0	0	520	618
2	0	0	0	0	520	617
3	0	0	0	0	520	617
4	0	0	0	0	520	620
5	0	0	0	0	519	617
6	0	0	0	0	519	618
7	0	0	0	0	518	618
8	0	0	0	0	517	615
9	0	0	0	0	516	617
10	0	0	0	0	516	617
11	0	0	0	0	516	617
12	0	0	0	0	516	620
13	0	0	0	0	516	617
14	0	0	0	0	516	617
15	0	0	0	0	517	617
0	0	0	0	0	517	615
1	0	0	0	0	517	617
2	0	0	0	0	518	617
3	0	0	0	0	517	617
4	0	0	0	0	517	620
5	0	0	0	0	516	617
6	0	0	0	0	516	617
7	0	0	0	0	516	617
8	0	0	0	0	516	615
9	0	0	0	0	515	617
10	0	0	0	0	515	617
11	0	0	0	0	514	617
12	0	0	0	0	513	620
13	0	0	0	0	513	617
14	0	0	0	0	513	617
15	0	0	0	0	512	617
0	0	0	0	0	512	614
1	0	0	0	0	512	616
2	0	0	0	0	512	617
3	0	0	0	0	512	617
4	0	0	0	0	513	619
5	0	0	0	0	513	616
6	0	0	0	0	514	616
7	0	0	0	0	514	616
8	0	0	0	0	515	614
9	0	0	0	0	515	616
10	0	0	0	0	515	617
11	0	0	0	0	514	617
12	0	0	0	0	514	619
13	0	0	0	0	513	616
14	0	0	0	0	512	616
15	0	0	0	0	512	616
0	0	0	0	0	512	614
1	0	0	0	0	511	616
2	0	0	0	0	511	616
3	0	0	0	0	511	616
4	0	0	0	0	511	619
5	0	0	0	0	511	617
6	0	0	0	0	512	617
7	0	0	0	0	512	617
8	0	0	0	0	512	615
9	0	0	0	0	513	618
10	0	0	0	0	514	617
11	0	0	0	0	514	618
12	0	0	0	0	513	620
13	0	0	0	0	513	617
14	0	0	0	0	513	617
15	0	0	0	0	513	618
0	0	0	0	0	512	615
1	0	0	0	0	512	617
2	0	0	0	0	512	618
3	0	0	0	0	512	618
4	0	0	0	0	511	621
5	0	0	0	0	511	619
6	0	0	0	0	511	619
7	0	0	0	0	510	619
8	0	0	0	0	511	617
9	0	0	0	0	510	619
10	0	0	0	0	511	619
11	0	0	0	0	511	619
12	0	0	0	0	512	621
13	0	0	0	0	512	619
14	0	0	0	0	512	619
15	0	0	0	0	512	619
0	0	0	0	0	512	615
1	0	0	0	0	511	618
2	0	0	0	0	511	619
3	0	0	0	0	510	618
4	0	0	0	0	509	621
5	0	0	0	0	509	618
6	0	0	0	0	509	618
7	0	0	0	0	508	618
8	0	0	0	0	508	615
9	0	0	0	0	508	618
10	0	0	0	0	507	618
11	0	0	0	0	507	618
12	0	0	0	0	507	620
13	0	0	0	0	507	618
14	0	0	0	0	507	618
15	0	0	0	0	507	618
0	0	0	0	0	507	615
1	0	0	0	0	508	617
2	0	0	0	0	509	617
3	0	0	0	0	508	617
4	0	0	0	0	509	620
5	0	0	0	0	509	617
6	0	0	0	0	510	618
7	0	0	0	0	509	617
8	0	0	0	0	509	615
9	0	0	0	0	508	616
10	0	0	0	0	508	617
11	0	0	0	0	507	617
12	0	0	0	0	507	619
13	0	0	0	0	507	617
14	0	0	0	0	506	616
15	0	0	0	0	507	617
0	0	0	0	0	507	615
1	0	0	0	0	507	617
2	0	0	0	0	507	617
3	0	0	0	0	507	617
4	0	0	0	0	507	620
5	0	0	0	0	507	618
6	0	0	0	0	507	618
7	0	0	0	0	507	618
8	0	0	0	0	508	615
9	0	0	0	0	508	617
10	0	0	0	0	508	617
11	0	0	0	0	508	616
12	0	0	0	0	508	619
13	0	0	0	0	508	617
14	0	0	0	0	508	617
15	0	0	0	0	508	617
0	0	0	0	0	507	614
1	0	0	0	0	506	616
2	0	0	0	0	505	616
3	0	0	0	0	506	615
4	0	0	0	0	506	618
5	0	0	0	0	506	616
6	0	0	0	0	506	615
7	0	0	0	0	506	616
8	0	0	0	0	507	613
9	0	0	0	0	507	615
10	0	0	0	0	508	616
11	0	0	0	0	508	616
12	0	0	0	0	509	619
13	0	0	0	0	509	616
14	0	0	0	0	508	616
15	0	0	0	0	509	616
0	0	0	0	0	510	614
1	0	0	0	0	509	616
2	0	0	0	0	509	616
3	0	0	0	0	509	616
4	0	0	0	0	508	618
5	0	0	0	0	507	616
6	0	0	0	0	507	615
7	0	0	0	0	507	615
8	0	0	0	0	507	614
9	0	0	0	0	507	615
10	0	0	0	0	508	615
11	0	0	0	0	507	616
12	0	0	0	0	508	618
13	0	0	0	0	508	615
14	0	0	0	0	508	616
15	0	0	0	0	509	616
0	0	0	0	0	509	614
1	0	0	0	0	509	616
2	0	0	0	0	509	617
3	0	0	0	0	509	617
4	0	0	0	0	508	620
5	0	0	0	0	508	618
6	0	0	0	0	508	619
7	0	0	0	0	508	619
8	0	0	0	0	507	616
9	0	0	0	0	506	619
10	0	0	0	0	506	618
11	0	0	0	0	506	618
12	0	0	0	0	506	621
13	0	0	0	0	506	619
14	0	0	0	0	505	619
15	0	0	0	0	506	620
0	0	0	0	0	507	617
1	0	0	0	0	507	620
2	0	0	0	0	508	619
3	0	0	0	0	508	620
4	0	0	0	0	508	622
5	0	0	0	0	508	620
6	0	0	0	0	508	619
7	0	0	0	0	507	619
8	0	0	0	0	507	617
9	0	0	0	0	507	619
10	0	0	0	0	506	619
11	0	0	0	0	505	619
12	0	0	0	0	505	621
13	0	0	0	0	505	620
14	0	0	0	0	504	619
15	0	0	0	0	504	619
0	0	0	0	0	504	617
1	0	0	0	0	505	619
2	0	0	0	0	506	619
3	0	0	0	0	507	619
4	0	0	0	0	507	622
5	0	0	0	0	507	619
6	0	0	0	0	508	618
7	0	0	0	0	508	619
8	0	0	0	0	507	615
9	0	0	0	0	507	618
10	0	0	0	0	507	619
11	0	0	0	0	507	618
12	0	0	0	0	507	621
13	0	0	0	0	507	618
14	0	0	0	0	506	618
15	0	0	0	0	505	619
0	0	0	0	0	504	615
1	0	0	0	0	503	618
2	0	0	0	0	503	617
3	0	0	0	0	503	617
4	0	0	0	0	503	620
5	0	0	0	0	503	617
6	0	0	0	0	503	617
7	0	0	0	0	503	617
8	0	0	0	0	503	615
9	0	0	0	0	504	616
10	0	0	0	0	505	617
11	0	0	0	0	506	618
12	0	0	0	0	506	619
13	0	0	0	0	505	617
14	0	0	0	0	505	617
15	0	0	0	0	505	617
0	0	0	0	0	505	615
1	0	0	0	0	505	617
2	0	0	0	0	504	617
3	0	0	0	0	503	617
4	0	0	0	0	503	620
5	0	0	0	0	503	617
6	0	0	0	0	503	617
7	0	0	0	0	503	617
8	0	0	0	0	503	614
9	0	0	0	0	503	616
10	0	0	0	0	504	617
11	0	0	0	0	504	617
12	0	0	0	0	505	619
13	0	0	0	0	505	617
14	0	0	0	0	506	617
15	0	0	0	0	507	617
0	0	0	0	0	508	614
1	0	0	0	0	507	616
2	0	0	0	0	507	616
3	0	0	0	0	506	616
4	0	0	0	0	506	620
5	0	0	0	0	505	617
6	0	0	0	0	505	617
7	0	0	0	0	504	617
8	0	0	0	0	504	614
9	0	0	0	0	503	616
10	0	0	0	0	502	616
11	0	0	0	0	502	616
12	0	0	0	0	502	619
13	0	0	0	0	502	617
14	0	0	0	0	502	617
15	0	0	0	0	502	617
0	0	0	0	0	502	614
1	0	0	0	0	503	617
2	0	0	0	0	504	616
3	0	0	0	0	504	616
4	0	0	0	0	504	619
5	0	0	0	0	503	616
6	0	0	0	0	503	616
7	0	0	0	0	502	616
8	0	0	0	0	502	614
9	0	0	0	0	501	616
10	0	0	0	0	500	616
11	0	0	0	0	499	616
12	0	0	0	0	498	619
13	0	0	0	0	497	616
14	0	0	0	0	497	616
15	0	0	0	0	497	616
0	0	0	0	0	497	614
1	0	0	0	0	497	616
2	0	0	0	0	497	615
3	0	0	0	0	497	615
4	0	0	0	0	498	618
5	0	0	0	0	499	616
6	0	0	0	0	499	616
7	0	0	0	0	499	616
8	0	0	0	0	500	613
9	0	0	0	0	501	616
10	0	0	0	0	503	616
11	0	0	0	0	504	616
12	0	0	0	0	504	619
13	0	0	0	0	503	616
14	0	0	0	0	503	617
15	0	0	0	0	504	617
0	0	0	0	0	504	615
1	0	0	0	0	503	617
2	0	0	0	0	502	617
3	0	0	0	0	502	616
4	0	0	0	0	503	620
5	0	0	0	0	503	617
6	0	0	0	0	503	618
7	0	0	0	0	504	618
8	0	0	0	0	504	615
9	0	0	0	0	505	617
10	0	0	0	0	506	617
11	0	0	0	0	506	618
12	0	0	0	0	507	620
13	0	0	0	0	508	617
14	0	0	0	0	509	617
15	0	0	0	0	508	617
0	0	0	0	0	508	615
1	0	0	0	0	507	617
2	0	0	0	0	507	618
3	0	0	0	0	507	618
4	0	0	0	0	507	620
5	0	0	0	0	508	617
6	0	0	0	0	507	617
7	0	0	0	0	507	617
8	0	0	0	0	505	615
9	0	0	0	0	505	617
10	0	0	0	0	506	617
11	0	0	0	0	507	617
12	0	0	0	0	508	620
13	0	0	0	0	510	617
14	0	0	0	0	510	617
15	0	0	0	0	511	617
0	0	0	0	0	512	615
1	0	0	0	0	513	617
2	0	0	0	0	513	617
3	0	0	0	0	513	617
4	0	0	0	0	512	620
5	0	0	0	0	511	617
6	0	0	0	0	511	618
7	0	0	0	0	512	618
8	0	0	0	0	513	615
9	0	0	0	0	513	618
10	0	0	0	0	513	618
11	0	0	0	0	512	617
12	0	0	0	0	511	620
13	0	0	0	0	511	617
14	0	0	0	0	511	617
15	0	0	0	0	511	617
0	0	0	0	0	512	615
1	0	0	0	0	512	617
2	0	0	0	0	514	617
3	0	0	0	0	513	617
4	0	0	0	0	513	620
5	0	0	0	0	513	618
6	0	0	0	0	514	617
7	0	0	0	0	514	617
8	0	0	0	0	513	615
9	0	0	0	0	514	618
10	0	0	0	0	513	617
11	0	0	0	0	513	617
12	0	0	0	0	513	620
13	0	0	0	0	513	618
14	0	0	0	0	513	617
15	0	0	0	0	513	618
0	0	0	0	0	513	615
1	0	0	0	0	512	618
2	0	0	0	0	512	617
3	0	0	0	0	513	618
4	0	0	0	0	513	620
5	0	0	0	0	514	618
6	0	0	0	0	514	618
7	0	0	0	0	514	618
8	0	0	0	0	515	616
9	0	0	0	0	515	617
10	0	0	0	0	515	618
11	0	0	0	0	515	617
12	0	0	0	0	515	620
13	0	0	0	0	514	617
14	0	0	0	0	513	618
15	0	0	0	0	513	618
0	0	0	0	0	513	615
1	0	0	0	0	512	617
2	0	0	0	0	512	617
3	0	0	0	0	511	616
4	0	0	0	0	511	620
5	0	0	0	0	511	617
6	0	0	0	0	512	617
7	0	0	0	0	511	617
8	0	0	0	0	512	615
9	0	0	0	0	512	617
10	0	0	0	0	512	617
11	0	0	0	0	512	617
12	0	0	0	0	513	620
13	0	0	0	0	512	617
14	0	0	0	0	512	617
15	0	0	0	0	512	616
0	0	0	0	0	510	614
1	0	0	0	0	508	616
2	0	0	0	0	505	616
3	0	0	0	0	502	616
4	0	0	0	0	499	619
5	0	0	0	0	497	616
6	0	0	0	0	494	616
7	0	0	0	0	489	616
8	0	0	0	0	487	615
9	0	0	0	0	484	616
10	0	0	0	0	482	617
11	0	0	0	0	480	617
12	0	0	0	0	479	619
13	0	0	0	0	476	617
14	0	0	0	0	472	616
15	0	0	0	0	467	616
0	0	0	0	0	462	614
1	0	0	0	0	454	616
2	0	0	0	0	445	617
3	0	0	0	0	435	616
4	0	0	0	0	424	619
5	0	0	0	0	413	616
6	0	0	0	0	407	616
7	0	0	0	0	404	616
8	0	0	0	0	403	614
9	0	0	0	0	403	616
10	0	0	0	0	405	617
11	0	0	0	0	407	616
12	0	0	0	0	409	619
13	0	0	0	0	412	616
14	0	0	0	0	420	617
15	0	0	0	0	435	617
0	0	0	0	0	454	614
1	0	0	0	0	478	617
2	0	0	0	0	507	617
3	0	0	0	0	539	617
4	0	0	0	0	572	620
5	0	0	0	0	601	617
6	0	0	0	0	624	617
7	0	0	0	0	643	617
8	0	0	0	0	663	615
9	0	0	0	0	680	617
10	0	0	0	0	693	616
11	0	0	0	0	697	617
12	0	0	0	0	693	619
13	0	0	0	0	686	617
14	0	0	0	0	678	616
15	0	0	0	0	668	617
0	0	0	0	0	658	615
1	0	0	0	0	647	617
2	0	0	0	0	636	617
3	0	0	0	0	625	617
4	0	0	0	0	615	620
5	0	0	0	0	607	618
6	0	0	0	0	600	617
7	0	0	0	0	592	618
8	0	0	0	0	583	615
9	0	0	0	0	574	617
10	0	0	0	0	566	617
11	0	0	0	0	558	617
12	0	0	0	0	550	620
13	0	0	0	0	543	617
14	0	0	0	0	535	617
15	0	0	0	0	528	617
0	0	0	0	0	522	615
1	0	0	0	0	515	618
2	0	0	0	0	511	617
3	0	0	0	0	506	617
4	0	0	0	0	502	620
5	0	0	0	0	497	618
6	0	0	0	0	492	617
7	0	0	0	0	488	617
8	0	0	0	0	486	615
9	0	0	0	0	484	618
10	0	0	0	0	481	617
11	0	0	0	0	480	617
12	0	0	0	0	479	620
13	0	0	0	0	477	618
14	0	0	0	0	476	618
15	0	0	0	0	475	618
0	0	0	0	0	473	615
1	0	0	0	0	473	619
2	0	0	0	0	472	618
3	0	0	0	0	472	617
4	0	0	0	0	472	620
5	0	0	0	0	471	618
6	0	0	0	0	471	618
7	0	0	0	0	471	618
8	0	0	0	0	470	615
9	0	0	0	0	470	618
10	0	0	0	0	470	618
11	0	0	0	0	471	618
12	0	0	0	0	472	621
13	0	0	0	0	473	619
14	0	0	0	0	474	618
15	0	0	0	0	474	617
0	0	0	0	0	474	615
1	0	0	0	0	474	618
2	0	0	0	0	474	618
3	0	0	0	0	473	618
4	0	0	0	0	473	620
5	0	0	0	0	473	618
6	0	0	0	0	473	619
7	0	0	0	0	472	618
8	0	0	0	0	472	615
9	0	0	0	0	472	618
10	0	0	0	0	472	617
11	0	0	0	0	472	617
12	0	0	0	0	472	620
13	0	0	0	0	472	617
14	0	0	0	0	472	617
15	0	0	0	0	473	617
0	0	0	0	0	474	614
1	0	0	0	0	475	617
2	0	0	0	0	476	617
3	0	0	0	0	476	617
4	0	0	0	0	477	620
5	0	0	0	0	477	617
6	0	0	0	0	478	617
7	0	0	0	0	478	617
8	0	0	0	0	479	615
9	0	0	0	0	478	617
10	0	0	0	0	478	618
11	0	0	0	0	477	617
12	0	0	0	0	477	620
13	0	0	0	0	478	619
14	0	0	0	0	478	617
15	0	0	0	0	478	618
0	0	0	0	0	478	615
1	0	0	0	0	479	617
2	0	0	0	0	479	617
3	0	0	0	0	480	617
4	0	0	0	0	481	620
5	0	0	0	0	480	617
6	0	0	0	0	481	617
7	0	0	0	0	480	618
8	0	0	0	0	480	615
9	0	0	0	0	481	618
10	0	0	0	0	482	618
11	0	0	0	0	481	617
12	0	0	0	0	481	620
13	0	0	0	0	481	617
14	0	0	0	0	481	618
15	0	0	0	0	481	617
0	0	0	0	0	480	615
1	0	0	0	0	480	617
2	0	0	0	0	480	618
3	0	0	0	0	480	617
4	0	0	0	0	481	621
5	0	0	0	0	481	618
6	0	0	0	0	482	618
7	0	0	0	0	483	618
8	0	0	0	0	483	615
9	0	0	0	0	483	617
10	0	0	0	0	483	617
11	0	0	0	0	483	618
12	0	0	0	0	484	620
13	0	0	0	0	483	617
14	0	0	0	0	483	616
15	0	0	0	0	483	616
0	0	0	0	0	482	615
1	0	0	0	0	482	616
2	0	0	0	0	481	617
3	0	0	0	0	480	617
4	0	0	0	0	480	620
5	0	0	0	0	480	617
6	0	0	0	0	479	617
7	0	0	0	0	479	616
8	0	0	0	0	479	614
9	0	0	0	0	479	617
10	0	0	0	0	479	617
11	0	0	0	0	478	617
12	0	0	0	0	477	619
13	0	0	0	0	477	616
14	0	0	0	0	478	616
15	0	0	0	0	477	616
0	0	0	0	0	478	614
1	0	0	0	0	478	616
2	0	0	0	0	477	616
3	0	0	0	0	477	616
4	0	0	0	0	476	620
5	0	0	0	0	475	617
6	0	0	0	0	474	617
7	0	0	0	0	473	617
8	0	0	0	0	472	615
9	0	0	0	0	471	617
10	0	0	0	0	471	616
11	0	0	0	0	470	616
12	0	0	0	0	470	619
13	0	0	0	0	470	617
14	0	0	0	0	470	616
15	0	0	0	0	470	617
0	0	0	0	0	470	615
1	0	0	0	0	469	617
2	0	0	0	0	469	617
3	0	0	0	0	468	616
4	0	0	0	0	467	619
5	0	0	0	0	467	617
6	0	0	0	0	465	618
7	0	0	0	0	464	617
8	0	0	0	0	464	615
9	0	0	0	0	463	618
10	0	0	0	0	463	618
11	0	0	0	0	463	617
12	0	0	0	0	461	620
13	0	0	0	0	460	619
14	0	0	0	0	460	618
15	0	0	0	0	459	618
0	0	0	0	0	458	616
1	0	0	0	0	458	618
2	0	0	0	0	457	619
3	0	0	0	0	458	619
4	0	0	0	0	458	622
5	0	0	0	0	457	619
6	0	0	0	0	457	619
7	0	0	0	0	456	619
8	0	0	0	0	456	616
9	0	0	0	0	457	618
10	0	0	0	0	457	618
11	0	0	0	0	456	618
12	0	0	0	0	455	620
13	0	0	0	0	454	619
14	0	0	0	0	454	619
15	0	0	0	0	452	618
0	0	0	0	0	451	616
1	0	0	0	0	450	619
2	0	0	0	0	450	619
3	0	0	0	0	450	618
4	0	0	0	0	449	621
5	0	0	0	0	450	619
6	0	0	0	0	451	618
7	0	0	0	0	451	619
8	0	0	0	0	451	615
9	0	0	0	0	452	619
10	0	0	0	0	452	617
11	0	0	0	0	452	618
12	0	0	0	0	453	620
13	0	0	0	0	454	618
14	0	0	0	0	454	618
15	0	0	0	0	453	618
0	0	0	0	0	453	616
1	0	0	0	0	452	618
2	0	0	0	0	452	617
3	0	0	0	0	453	618
4	0	0	0	0	453	620
5	0	0	0	0	454	618
6	0	0	0	0	455	617
7	0	0	0	0	455	618
8	0	0	0	0	455	615
9	0	0	0	0	457	617
10	0	0	0	0	458	616
11	0	0	0	0	459	616
12	0	0	0	0	460	619
13	0	0	0	0	462	616
14	0	0	0	0	463	616
15	0	0	0	0	464	616
0	0	0	0	0	466	614
1	0	0	0	0	468	616
2	0	0	0	0	469	615
3	0	0	0	0	471	616
4	0	0	0	0	473	619
5	0	0	0	0	475	616
6	0	0	0	0	476	616
7	0	0	0	0	477	617
8	0	0	0	0	479	613
9	0	0	0	0	481	615
10	0	0	0	0	482	615
11	0	0	0	0	484	616
12	0	0	0	0	487	618
13	0	0	0	0	489	616
14	0	0	0	0	492	616
15	0	0	0	0	494	616
0	0	0	0	0	497	614
1	0	0	0	0	501	616
2	0	0	0	0	504	616
3	0	0	0	0	508	616
4	0	0	0	0	510	619
5	0	0	0	0	513	616
6	0	0	0	0	515	616
7	0	0	0	0	518	616
8	0	0	0	0	521	613
9	0	0	0	0	523	616
10	0	0	0	0	526	617
11	0	0	0	0	528	617
12	0	0	0	0	529	620
13	0	0	0	0	531	617
14	0	0	0	0	533	617
15	0	0	0	0	535	617
0	0	0	0	0	537	614
1	0	0	0	0	539	617
2	0	0	0	0	542	617
3	0	0	0	0	543	617
4	0	0	0	0	544	620
5	0	0	0	0	546	617
6	0	0	0	0	548	617
7	0	0	0	0	550	618
8	0	0	0	0	551	615
9	0	0	0	0	553	618
10	0	0	0	0	554	618
11	0	0	0	0	555	617
12	0	0	0	0	556	621
13	0	0	0	0	556	619
14	0	0	0	0	556	619
15	0	0	0	0	558	618
0	0	0	0	0	559	615
1	0	0	0	0	560	618
2	0	0	0	0	560	617
3	0	0	0	0	561	618
4	0	0	0	0	562	621
5	0	0	0	0	563	618
6	0	0	0	0	563	618
7	0	0	0	0	565	618
8	0	0	0	0	565	616
9	0	0	0	0	566	618
10	0	0	0	0	567	617
11	0	0	0	0	566	617
12	0	0	0	0	567	620
13	0	0	0	0	567	618
14	0	0	0	0	566	617
15	0	0	0	0	565	618
0	0	0	0	0	565	615
1	0	0	0	0	565	617
2	0	0	0	0	565	618
3	0	0	0	0	564	618
4	0	0	0	0	564	620
5	0	0	0	0	563	617
6	0	0	0	0	563	617
7	0	0	0	0	563	618
8	0	0	0	0	563	615
9	0	0	0	0	563	617
10	0	0	0	0	563	617
11	0	0	0	0	563	617
12	0	0	0	0	563	620
13	0	0	0	0	564	618
14	0	0	0	0	563	617
15	0	0	0	0	563	618
0	0	0	0	0	563	614
1	0	0	0	0	562	617
2	0	0	0	0	561	617
3	0	0	0	0	561	617
4	0	0	0	0	561	620
5	0	0	0	0	560	617
6	0	0	0	0	561	617
7	0	0	0	0	560	617
8	0	0	0	0	559	615
9	0	0	0	0	558	617
10	0	0	0	0	558	617
11	0	0	0	0	558	617
12	0	0	0	0	557	620
13	0	0	0	0	556	616
14	0	0	0	0	556	616
15	0	0	0	0	556	617
0	0	0	0	0	556	615
1	0	0	0	0	556	617
2	0	0	0	0	556	617
3	0	0	0	0	556	617
4	0	0	0	0	556	619
5	0	0	0	0	555	616
6	0	0	0	0	555	617
7	0	0	0	0	554	617
8	0	0	0	0	553	614
9	0	0	0	0	553	616
10	0	0	0	0	552	617
11	0	0	0	0	551	617
12	0	0	0	0	550	619
13	0	0	0	0	549	617
14	0	0	0	0	548	617
15	0	0	0	0	547	616
0	0	0	0	0	548	614
1	0	0	0	0	548	617
2	0	0	0	0	548	617
3	0	0	0	0	547	617
4	0	0	0	0	546	620
5	0	0	0	0	546	617
6	0	0	0	0	546	616
7	0	0	0	0	546	617
8	0	0	0	0	545	614
9	0	0	0	0	546	617
10	0	0	0	0	545	618
11	0	0	0	0	544	617
12	0	0	0	0	543	620
13	0	0	0	0	543	617
14	0	0	0	0	543	617
15	0	0	0	0	543	617
0	0	0	0	0	541	615
1	0	0	0	0	540	618
2	0	0	0	0	540	618
3	0	0	0	0	539	617
4	0	0	0	0	539	620
5	0	0	0	0	539	618
6	0	0	0	0	539	617
7	0	0	0	0	539	618
8	0	0	0	0	539	615
9	0	0	0	0	539	619
10	0	0	0	0	540	618
11	0	0	0	0	540	619
12	0	0	0	0	539	620
13	0	0	0	0	539	618
14	0	0	0	0	537	618
15	0	0	0	0	537	618
0	0	0	0	0	537	616
1	0	0	0	0	536	618
2	0	0	0	0	536	618
3	0	0	0	0	535	618
4	0	0	0	0	534	620
5	0	0	0	0	534	618
6	0	0	0	0	532	618
7	0	0	0	0	532	618
8	0	0	0	0	532	616
9	0	0	0	0	531	618
10	0	0	0	0	531	618
11	0	0	0	0	531	618
12	0	0	0	0	531	621
13	0	0	0	0	532	618
14	0	0	0	0	532	618
15	0	0	0	0	532	618
0	0	0	0	0	532	615
1	0	0	0	0	533	618
2	0	0	0	0	532	618
3	0	0	0	0	532	618
4	0	0	0	0	530	620
5	0	0	0	0	529	618
6	0	0	0	0	528	618
7	0	0	0	0	527	618
8	0	0	0	0	526	615
9	0	0	0	0	525	619
10	0	0	0	0	524	618
11	0	0	0	0	524	617
12	0	0	0	0	524	620
13	0	0	0	0	525	618
14	0	0	0	0	525	618
15	0	0	0	0	526	618
0	0	0	0	0	526	615
1	0	0	0	0	527	619
2	0	0	0	0	528	618
3	0	0	0	0	528	618
4	0	0	0	0	528	621
5	0	0	0	0	527	618
6	0	0	0	0	526	618
7	0	0	0	0	526	617
8	0	0	0	0	526	615
9	0	0	0	0	525	617
10	0	0	0	0	524	618
11	0	0	0	0	524	618
12	0	0	0	0	523	620
13	0	0	0	0	523	617
14	0	0	0	0	523	618
15	0	0	0	0	523	618
0	0	0	0	0	522	615
1	0	0	0	0	522	617
2	0	0	0	0	523	617
3	0	0	0	0	522	618
4	0	0	0	0	523	620
5	0	0	0	0	523	618
6	0	0	0	0	523	618
7	0	0	0	0	523	618
8	0	0	0	0	523	616
9	0	0	0	0	522	618
10	0	0	0	0	522	618
11	0	0	0	0	522	617
12	0	0	0	0	521	620
13	0	0	0	0	521	617
14	0	0	0	0	520	617
15	0	0	0	0	519	617
0	0	0	0	0	519	615
1	0	0	0	0	519	617
2	0	0	0	0	519	617
3	0	0	0	0	518	617
4	0	0	0	0	518	620
5	0	0	0	0	518	617
6	0	0	0	0	518	617
7	0	0	0	0	518	616
8	0	0	0	0	519	614
9	0	0	0	0	519	617
10	0	0	0	0	519	617
11	0	0	0	0	520	617
12	0	0	0	0	519	620
13	0	0	0	0	519	617
14	0	0	0	0	519	617
15	0	0	0	0	519	617
0	0	0	0	0	519	615
1	0	0	0	0	519	617
2	0	0	0	0	518	617
3	0	0	0	0	517	617
4	0	0	0	0	517	619
5	0	0	0	0	516	617
6	0	0	0	0	516	616
7	0	0	0	0	516	617
8	0	0	0	0	516	614
9	0	0	0	0	517	617
10	0	0	0	0	517	616
11	0	0	0	0	517	617
12	0	0	0	0	518	619
13	0	0	0	0	518	616
14	0	0	0	0	518	617
15	0	0	0	0	517	616
0	0	0	0	0	517	614
1	0	0	0	0	517	617
2	0	0	0	0	517	616
3	0	0	0	0	516	617
4	0	0	0	0	516	619
5	0	0	0	0	517	617
6	0	0	0	0	516	617
7	0	0	0	0	515	616
8	0	0	0	0	514	614
9	0	0	0	0	514	616
10	0	0	0	0	514	616
11	0	0	0	0	514	616
12	0	0	0	0	513	619
13	0	0	0	0	513	616
14	0	0	0	0	514	616
15	0	0	0	0	515	617
0	0	0	0	0	515	614
1	0	0	0	0	516	617
2	0	0	0	0	516	616
3	0	0	0	0	517	616
4	0	0	0	0	517	619
5	0	0	0	0	517	616
6	0	0	0	0	517	616
7	0	0	0	0	516	616
8	0	0	0	0	516	614
9	0	0	0	0	516	616
10	0	0	0	0	515	616
11	0	0	0	0	515	616
12	0	0	0	0	514	619
13	0	0	0	0	513	616
14	0	0	0	0	513	616
15	0	0	0	0	513	616
0	0	0	0	0	513	614
1	0	0	0	0	513	616
2	0	0	0	0	513	616
3	0	0	0	0	513	616
4	0	0	0	0	513	619
5	0	0	0	0	514	617
6	0	0	0	0	513	616
7	0	0	0	0	513	616
8	0	0	0	0	513	615
9	0	0	0	0	513	617
10	0	0	0	0	513	617
11	0	0	0	0	512	617
12	0	0	0	0	512	620
13	0	0	0	0	512	617
14	0	0	0	0	511	618
15	0	0	0	0	510	618
0	0	0	0	0	510	616
1	0	0	0	0	510	619
2	0	0	0	0	509	619
3	0	0	0	0	510	619
4	0	0	0	0	510	622
5	0	0	0	0	510	619
6	0	0	0	0	509	618
7	0	0	0	0	510	619
8	0	0	0	0	511	615
9	0	0	0	0	512	619
10	0	0	0	0	512	619
11	0	0	0	0	512	618
12	0	0	0	0	512	621
13	0	0	0	0	512	618
14	0	0	0	0	512	619
15	0	0	0	0	511	619
0	0	0	0	0	511	616
1	0	0	0	0	510	619
2	0	0	0	0	510	619
3	0	0	0	0	509	619
4	0	0	0	0	510	621
5	0	0	0	0	510	619
6	0	0	0	0	509	619
7	0	0	0	0	509	619
8	0	0	0	0	509	616
9	0	0	0	0	510	619
10	0	0	0	0	509	619
11	0	0	0	0	509	619
12	0	0	0	0	510	622
13	0	0	0	0	511	619
14	0	0	0	0	511	619
15	0	0	0	0	511	619
0	0	0	0	0	511	615
1	0	0	0	0	511	618
2	0	0	0	0	510	618
3	0	0	0	0	509	618
4	0	0	0	0	511	620
5	0	0	0	0	510	617
6	0	0	0	0	510	617
7	0	0	0	0	510	618
8	0	0	0	0	510	615
9	0	0	0	0	510	617
10	0	0	0	0	510	616
11	0	0	0	0	509	617
12	0	0	0	0	509	620
13	0	0	0	0	508	617
14	0	0	0	0	508	617
15	0	0	0	0	508	617
0	0	0	0	0	508	615
1	0	0	0	0	508	617
2	0	0	0	0	508	617
3	0	0	0	0	509	617
4	0	0	0	0	510	619
5	0	0	0	0	510	617
6	0	0	0	0	511	617
7	0	0	0	0	510	617
8	0	0	0	0	510	614
9	0	0	0	0	510	617
10	0	0	0	0	511	617
11	0	0	0	0	510	616
12	0	0	0	0	510	619
13	0	0	0	0	509	616
14	0	0	0	0	509	616
15	0	0	0	0	509	616
0	0	0	0	0	510	614
1	0	0	0	0	510	616
2	0	0	0	0	510	617
3	0	0	0	0	510	616
4	0	0	0	0	510	619
5	0	0	0	0	511	616
6	0	0	0	0	512	617
7	0	0	0	0	512	617
8	0	0	0	0	512	615
9	0	0	0	0	512	617
10	0	0	0	0	511	617
11	0	0	0	0	511	617
12	0	0	0	0	511	619
13	0	0	0	0	511	616
14	0	0	0	0	511	617
15	0	0	0	0	510	617
0	0	0	0	0	510	615
1	0	0	0	0	510	617
2	0	0	0	0	508	617
3	0	0	0	0	507	616
4	0	0	0	0	508	619
5	0	0	0	0	507	617
6	0	0	0	0	507	617
7	0	0	0	0	508	617
8	0	0	0	0	509	615
9	0	0	0	0	509	617
10	0	0	0	0	509	617
11	0	0	0	0	510	617
12	0	0	0	0	510	620
13	0	0	0	0	510	618
14	0	0	0	0	509	617
15	0	0	0	0	509	617
0	0	0	0	0	509	615
1	0	0	0	0	510	617
2	0	0	0	0	509	618
3	0	0	0	0	508	617
4	0	0	0	0	509	620
5	0	0	0	0	508	618
6	0	0	0	0	508	618
7	0	0	0	0	508	618
8	0	0	0	0	508	615
9	0	0	0	0	508	618
10	0	0	0	0	508	619
11	0	0	0	0	507	618
12	0	0	0	0	507	621
13	0	0	0	0	508	619
14	0	0	0	0	508	619
15	0	0	0	0	508	619
0	0	0	0	0	508	616
1	0	0	0	0	507	618
2	0	0	0	0	507	618
3	0	0	0	0	508	619
4	0	0	0	0	508	621
5	0	0	0	0	508	619
6	0	0	0	0	507	619
7	0	0	0	0	506	619
8	0	0	0	0	507	615
9	0	0	0	0	507	618
10	0	0	0	0	508	618
11	0	0	0	0	507	618
12	0	0	0	0	507	620
13	0	0	0	0	506	617
14	0	0	0	0	506	618
15	0	0	0	0	508	617
0	0	0	0	0	509	615
1	0	0	0	0	510	618
2	0	0	0	0	510	618
3	0	0	0	0	510	617
4	0	0	0	0	511	620
5	0	0	0	0	512	618
6	0	0	0	0	511	618
7	0	0	0	0	511	618
8	0	0	0	0	510	615
9	0	0	0	0	509	617
10	0	0	0	0	508	618
11	0	0	0	0	507	617
12	0	0	0	0	507	620
13	0	0	0	0	506	617
14	0	0	0	0	505	618
15	0	0	0	0	506	618
0	0	0	0	0	506	615
1	0	0	0	0	505	617
2	0	0	0	0	505	617
3	0	0	0	0	505	617
4	0	0	0	0	506	620
5	0	0	0	0	506	618
6	0	0	0	0	506	618
7	0	0	0	0	506	618
8	0	0	0	0	506	615
9	0	0	0	0	507	617
10	0	0	0	0	507	617
11	0	0	0	0	507	617
12	0	0	0	0	507	620
13	0	0	0	0	505	617
14	0	0	0	0	505	617
15	0	0	0	0	504	618
0	0	0	0	0	503	615
1	0	0	0	0	502	617
2	0	0	0	0	502	617
3	0	0	0	0	501	617
4	0	0	0	0	501	620
5	0	0	0	0	501	616
6	0	0	0	0	501	617
7	0	0	0	0	501	617
8	0	0	0	0	502	615
9	0	0	0	0	503	616
10	0	0	0	0	503	617
11	0	0	0	0	503	616
12	0	0	0	0	504	619
13	0	0	0	0	504	617
14	0	0	0	0	505	617
15	0	0	0	0	505	617
0	0	0	0	0	505	614
1	0	0	0	0	504	617
2	0	0	0	0	504	617
3	0	0	0	0	505	617
4	0	0	0	0	505	619
5	0	0	0	0	505	617
6	0	0	0	0	505	617
7	0	0	0	0	505	617
8	0	0	0	0	504	615
9	0	0	0	0	505	617
10	0	0	0	0	505	617
11	0	0	0	0	507	618
12	0	0	0	0	507	620
13	0	0	0	0	507	617
14	0	0	0	0	508	618
15	0	0	0	0	508	617
0	0	0	0	0	508	615
1	0	0	0	0	508	617
2	0	0	0	0	508	618
3	0	0	0	0	508	618
4	0	0	0	0	509	621
5	0	0	0	0	508	618
6	0	0	0	0	508	618
7	0	0	0	0	507	618
8	0	0	0	0	508	615
9	0	0	0	0	508	618
10	0	0	0	0	508	618
11	0	0	0	0	507	618
12	0	0	0	0	507	620
13	0	0	0	0	507	617
14	0	0	0	0	507	618
15	0	0	0	0	508	619
0	0	0	0	0	510	616
1	0	0	0	0	510	618
2	0	0	0	0	511	618
3	0	0	0	0	512	618
4	0	0	0	0	512	621
5	0	0	0	0	512	618
6	0	0	0	0	512	619
7	0	0	0	0	512	618
8	0	0	0	0	513	616
9	0	0	0	0	512	618
10	0	0	0	0	512	618
11	0	0	0	0	512	618
12	0	0	0	0	512	621
13	0	0	0	0	511	618
14	0	0	0	0	510	617
15	0	0	0	0	508	618
0	0	0	0	0	507	615
1	0	0	0	0	507	618
2	0	0	0	0	506	617
3	0	0	0	0	507	618
4	0	0	0	0	507	620
5	0	0	0	0	508	618
6	0	0	0	0	508	618
7	0	0	0	0	508	619
8	0	0	0	0	510	615
9	0	0	0	0	510	617
10	0	0	0	0	509	618
11	0	0	0	0	508	617
12	0	0	0	0	508	620
13	0	0	0	0	508	618
14	0	0	0	0	508	618
15	0	0	0	0	507	618
0	0	0	0	0	506	615
1	0	0	0	0	506	618
2	0	0	0	0	506	618
3	0	0	0	0	506	618
4	0	0	0	0	507	621
5	0	0	0	0	508	618
6	0	0	0	0	508	619
7	0	0	0	0	508	618
8	0	0	0	0	508	615
9	0	0	0	0	509	618
10	0	0	0	0	509	618
11	0	0	0	0	510	618
12	0	0	0	0	510	620
13	0	0	0	0	509	618
14	0	0	0	0	509	618
15	0	0	0	0	508	617
0	0	0	0	0	508	614
1	0	0	0	0	507	617
2	0	0	0	0	506	617
3	0	0	0	0	505	617
4	0	0	0	0	505	620
5	0	0	0	0	505	617
6	0	0	0	0	505	617
7	0	0	0	0	505	617
8	0	0	0	0	505	614
9	0	0	0	0	507	616
10	0	0	0	0	507	616
11	0	0	0	0	507	616
12	0	0	0	0	507	619
13	0	0	0	0	507	616
14	0	0	0	0	508	615
15	0	0	0	0	508	617
0	0	0	0	0	508	614
1	0	0	0	0	508	617
2	0	0	0	0	507	615
3	0	0	0	0	506	616
4	0	0	0	0	506	619
5	0	0	0	0	505	616
6	0	0	0	0	504	616
7	0	0	0	0	503	615
8	0	0	0	0	501	613
9	0	0	0	0	500	616
10	0	0	0	0	498	615
11	0	0	0	0	495	616
12	0	0	0	0	492	618
13	0	0	0	0	491	615
14	0	0	0	0	488	615
15	0	0	0	0	485	616
0	0	0	0	0	482	613
1	0	0	0	0	481	615
2	0	0	0	0	481	616
3	0	0	0	0	479	616
4	0	0	0	0	476	619
5	0	0	0	0	472	616
6	0	0	0	0	466	616
7	0	0	0	0	461	616
8	0	0	0	0	455	614
9	0	0	0	0	447	616
10	0	0	0	0	436	616
11	0	0	0	0	427	616
12	0	0	0	0	415	619
13	0	0	0	0	407	616
14	0	0	0	0	402	616
15	0	0	0	0	399	616
0	0	0	0	0	399	614
1	0	0	0	0	401	616
2	0	0	0	0	405	617
3	0	0	0	0	407	617
4	0	0	0	0	411	620
5	0	0	0	0	419	618
6	0	0	0	0	432	617
7	0	0	0	0	451	618
8	0	0	0	0	475	615
9	0	0	0	0	506	618
10	0	0	0	0	539	618
11	0	0	0	0	571	618
12	0	0	0	0	597	621
13	0	0	0	0	622	618
14	0	0	0	0	643	618
15	0	0	0	0	661	619
0	0	0	0	0	675	616
1	0	0	0	0	684	618
2	0	0	0	0	686	619
3	0	0	0	0	682	619
4	0	0	0	0	675	621
5	0	0	0	0	664	618
6	0	0	0	0	649	620
7	0	0	0	0	635	619
8	0	0	0	0	619	617
9	0	0	0	0	607	620
10	0	0	0	0	599	619
11	0	0	0	0	592	619
12	0	0	0	0	588	621
13	0	0	0	0	581	619
14	0	0	0	0	574	619
15	0	0	0	0	565	619
0	0	0	0	0	555	616
1	0	0	0	0	544	619
2	0	0	0	0	535	619
3	0	0	0	0	526	619
4	0	0	0	0	518	622
5	0	0	0	0	512	619
6	0	0	0	0	508	618
7	0	0	0	0	505	619
8	0	0	0	0	504	616
9	0	0	0	0	502	619
10	0	0	0	0	502	619
11	0	0	0	0	502	619
12	0	0	0	0	504	621
13	0	0	0	0	504	618
14	0	0	0	0	504	618
15	0	0	0	0	503	618
0	0	0	0	0	500	615
1	0	0	0	0	498	618
2	0	0	0	0	494	618
3	0	0	0	0	491	617
4	0	0	0	0	489	620
5	0	0	0	0	486	617
6	0	0	0	0	483	617
7	0	0	0	0	481	618
8	0	0	0	0	479	615
9	0	0	0	0	478	617
10	0	0	0	0	478	617
11	0	0	0	0	479	617
12	0	0	0	0	480	620
13	0	0	0	0	480	617
14	0	0	0	0	480	617
15	0	0	0	0	480	617
0	0	0	0	0	481	614
1	0	0	0	0	481	616
2	0	0	0	0	482	616
3	0	0	0	0	483	617
4	0	0	0	0	483	619
5	0	0	0	0	483	616
6	0	0	0	0	483	617
7	0	0	0	0	483	617
8	0	0	0	0	483	614
9	0	0	0	0	483	616
10	0	0	0	0	483	616
11	0	0	0	0	482	615
12	0	0	0	0	481	619
13	0	0	0	0	481	616
14	0	0	0	0	481	616
15	0	0	0	0	480	616
0	0	0	0	0	481	613
1	0	0	0	0	482	616
2	0	0	0	0	482	616
3	0	0	0	0	482	615
4	0	0	0	0	482	618
5	0	0	0	0	482	615
6	0	0	0	0	483	615
7	0	0	0	0	483	616
8	0	0	0	0	483	613
9	0	0	0	0	483	616
10	0	0	0	0	484	616
11	0	0	0	0	484	616
12	0	0	0	0	484	619
13	0	0	0	0	484	616
14	0	0	0	0	483	616
15	0	0	0	0	482	616
0	0	0	0	0	482	614
1	0	0	0	0	482	616
2	0	0	0	0	482	617
3	0	0	0	0	482	616
4	0	0	0	0	483	620
5	0	0	0	0	483	617
6	0	0	0	0	483	616
7	0	0	0	0	484	616
8	0	0	0	0	485	615
9	0	0	0	0	486	617
10	0	0	0	0	486	617
11	0	0	0	0	487	617
12	0	0	0	0	486	620
13	0	0	0	0	486	618
14	0	0	0	0	486	618
15	0	0	0	0	487	618
0	0	0	0	0	487	616
1	0	0	0	0	487	619
2	0	0	0	0	486	618
3	0	0	0	0	486	619
4	0	0	0	0	486	621
5	0	0	0	0	486	619
6	0	0	0	0	486	618
7	0	0	0	0	486	618
8	0	0	0	0	486	615
9	0	0	0	0	486	618
10	0	0	0	0	486	618
11	0	0	0	0	487	618
12	0	0	0	0	487	621
13	0	0	0	0	488	619
14	0	0	0	0	488	618
15	0	0	0	0	489	619
0	0	0	0	0	489	616
1	0	0	0	0	488	619
2	0	0	0	0	488	618
3	0	0	0	0	488	617
4	0	0	0	0	488	621
5	0	0	0	0	488	618
6	0	0	0	0	487	618
7	0	0	0	0	486	618
8	0	0	0	0	485	615
9	0	0	0	0	484	619
10	0	0	0	0	484	618
11	0	0	0	0	484	618
12	0	0	0	0	484	620
13	0	0	0	0	484	618
14	0	0	0	0	485	618
15	0	0	0	0	486	617
0	0	0	0	0	486	615
1	0	0	0	0	486	617
2	0	0	0	0	486	617
3	0	0	0	0	486	617
4	0	0	0	0	486	619
5	0	0	0	0	486	616
6	0	0	0	0	486	617
7	0	0	0	0	486	617
8	0	0	0	0	484	614
9	0	0	0	0	483	616
10	0	0	0	0	482	617
11	0	0	0	0	481	617
12	0	0	0	0	480	619
13	0	0	0	0	479	617
14	0	0	0	0	479	617
15	0	0	0	0	478	616
0	0	0	0	0	477	614
1	0	0	0	0	478	616
2	0	0	0	0	478	617
3	0	0	0	0	478	617
4	0	0	0	0	477	619
5	0	0	0	0	477	616
6	0	0	0	0	476	616
7	0	0	0	0	477	617
8	0	0	0	0	477	615
9	0	0	0	0	476	617
10	0	0	0	0	476	617
11	0	0	0	0	475	617
12	0	0	0	0	474	620
13	0	0	0	0	472	617
14	0	0	0	0	472	617
15	0	0	0	0	470	617
0	0	0	0	0	469	615
1	0	0	0	0	468	617
2	0	0	0	0	467	617
3	0	0	0	0	467	617
4	0	0	0	0	467	620
5	0	0	0	0	466	618
6	0	0	0	0	465	619
7	0	0	0	0	465	619
8	0	0	0	0	465	615
9	0	0	0	0	465	619
10	0	0	0	0	464	619
11	0	0	0	0	463	619
12	0	0	0	0	463	621
13	0	0	0	0	463	618
14	0	0	0	0	462	619
15	0	0	0	0	461	619
0	0	0	0	0	462	616
1	0	0	0	0	461	619
2	0	0	0	0	461	619
3	0	0	0	0	460	619
4	0	0	0	0	460	622
5	0	0	0	0	460	619
6	0	0	0	0	460	619
7	0	0	0	0	460	619
8	0	0	0	0	460	617
9	0	0	0	0	461	619
10	0	0	0	0	462	619
11	0	0	0	0	460	619
12	0	0	0	0	460	621
13	0	0	0	0	461	619
14	0	0	0	0	463	619
15	0	0	0	0	462	619
0	0	0	0	0	462	616
1	0	0	0	0	462	618
2	0	0	0	0	461	618
3	0	0	0	0	461	618
4	0	0	0	0	460	621
5	0	0	0	0	460	619
6	0	0	0	0	461	619
7	0	0	0	0	461	618
8	0	0	0	0	462	615
9	0	0	0	0	462	619
10	0	0	0	0	462	617
11	0	0	0	0	463	617
12	0	0	0	0	463	620
13	0	0	0	0	463	617
14	0	0	0	0	463	618
15	0	0	0	0	465	618
0	0	0	0	0	465	615
1	0	0	0	0	467	617
2	0	0	0	0	469	617
3	0	0	0	0	471	617
4	0	0	0	0	472	620
5	0	0	0	0	474	618
6	0	0	0	0	475	617
7	0	0	0	0	475	617
8	0	0	0	0	477	614
9	0	0	0	0	478	616
10	0	0	0	0	479	617
11	0	0	0	0	480	616
12	0	0	0	0	481	618
13	0	0	0	0	482	616
14	0	0	0	0	484	616
15	0	0	0	0	486	617
0	0	0	0	0	487	614
1	0	0	0	0	488	616
2	0	0	0	0	489	616
3	0	0	0	0	492	616
4	0	0	0	0	495	619
5	0	0	0	0	497	617
6	0	0	0	0	499	616
7	0	0	0	0	502	617
8	0	0	0	0	505	614
9	0	0	0	0	507	616
10	0	0	0	0	510	617
11	0	0	0	0	511	616
12	0	0	0	0	512	619
13	0	0	0	0	514	616
14	0	0	0	0	515	617
15	0	0	0	0	515	616
0	0	0	0	0	516	615
1	0	0	0	0	518	617
2	0	0	0	0	519	617
3	0	0	0	0	521	617
4	0	0	0	0	523	620
5	0	0	0	0	525	617
6	0	0	0	0	527	617
7	0	0	0	0	529	617
8	0	0	0	0	532	615
9	0	0	0	0	536	617
10	0	0	0	0	538	617
11	0	0	0	0	539	617
12	0	0	0	0	539	620
13	0	0	0	0	540	618
14	0	0	0	0	541	617
15	0	0	0	0	542	618
0	0	0	0	0	544	616
1	0	0	0	0	544	618
2	0	0	0	0	545	618
3	0	0	0	0	545	618
4	0	0	0	0	546	620
5	0	0	0	0	547	617
6	0	0	0	0	547	617
7	0	0	0	0	547	618
8	0	0	0	0	548	615
9	0	0	0	0	549	618
10	0	0	0	0	550	617
11	0	0	0	0	551	618
12	0	0	0	0	551	620
13	0	0	0	0	552	618
14	0	0	0	0	553	617
15	0	0	0	0	553	617
0	0	0	0	0	555	614
1	0	0	0	0	555	617
2	0	0	0	0	555	617
3	0	0	0	0	556	616
4	0	0	0	0	555	620
5	0	0	0	0	556	617
6	0	0	0	0	555	616
7	0	0	0	0	554	617
8	0	0	0	0	555	615
9	0	0	0	0	555	617
10	0	0	0	0	554	616
11	0	0	0	0	554	616
12	0	0	0	0	555	619
13	0	0	0	0	555	616
14	0	0	0	0	555	616
15	0	0	0	0	554	617
0	0	0	0	0	555	614
1	0	0	0	0	555	617
2	0	0	0	0	555	616
3	0	0	0	0	554	616
4	0	0	0	0	554	619
5	0	0	0	0	555	616
6	0	0	0	0	554	616
7	0	0	0	0	554	616
8	0	0	0	0	553	614
9	0	0	0	0	553	615
10	0	0	0	0	553	616
11	0	0	0	0	552	616
12	0	0	0	0	552	618
13	0	0	0	0	551	615
14	0	0	0	0	551	616
15	0	0	0	0	551	615
0	0	0	0	0	550	613
1	0	0	0	0	550	615
2	0	0	0	0	551	615
3	0	0	0	0	551	615
4	0	0	0	0	551	619
5	0	0	0	0	551	616
6	0	0	0	0	551	616
7	0	0	0	0	550	617
8	0	0	0	0	550	615
9	0	0	0	0	550	617
10	0	0	0	0	549	617
11	0	0	0	0	550	617
12	0	0	0	0	548	620
13	0	0	0	0	546	617
14	0	0	0	0	545	617
15	0	0	0	0	544	617
0	0	0	0	0	544	615
1	0	0	0	0	543	617
2	0	0	0	0	543	617
3	0	0	0	0	544	617
4	0	0	0	0	544	620
5	0	0	0	0	544	617
6	0	0	0	0	543	618
7	0	0	0	0	543	617
8	0	0	0	0	543	615
9	0	0	0	0	545	619
10	0	0	0	0	544	618
11	0	0	0	0	543	619
12	0	0	0	0	543	621
13	0	0	0	0	543	619
14	0	0	0	0	543	619
15	0	0	0	0	542	619
0	0	0	0	0	541	616
1	0	0	0	0	540	619
2	0	0	0	0	539	619
3	0	0	0	0	537	619
4	0	0	0	0	536	621
5	0	0	0	0	536	619
6	0	0	0	0	536	618
7	0	0	0	0	536	619
8	0	0	0	0	535	616
9	0	0	0	0	535	619
10	0	0	0	0	535	619
11	0	0	0	0	535	619
12	0	0	0	0	536	621
13	0	0	0	0	536	619
14	0	0	0	0	536	619
15	0	0	0	0	536	619
0	0	0	0	0	536	616
1	0	0	0	0	536	619
2	0	0	0	0	536	618
3	0	0	0	0	535	618
4	0	0	0	0	536	621
5	0	0	0	0	536	619
6	0	0	0	0	536	619
7	0	0	0	0	535	619
8	0	0	0	0	533	616
9	0	0	0	0	533	619
10	0	0	0	0	533	618
11	0	0	0	0	532	618
12	0	0	0	0	532	621
13	0	0	0	0	531	618
14	0	0	0	0	530	618
15	0	0	0	0	530	618
0	0	0	0	0	529	615
1	0	0	0	0	530	618
2	0	0	0	0	531	617
3	0	0	0	0	531	617
4	0	0	0	0	532	619
5	0	0	0	0	531	617
6	0	0	0	0	531	617
7	0	0	0	0	530	616
8	0	0	0	0	529	615
9	0	0	0	0	529	617
10	0	0	0	0	529	617
11	0	0	0	0	527	617
12	0	0	0	0	526	620
13	0	0	0	0	526	616
14	0	0	0	0	526	617
15	0	0	0	0	526	616
0	0	0	0	0	527	614
1	0	0	0	0	527	617
2	0	0	0	0	527	617
3	0	0	0	0	528	616
4	0	0	0	0	529	619
5	0	0	0	0	529	617
6	0	0	0	0	529	617
7	0	0	0	0	529	617
8	0	0	0	0	530	614
9	0	0	0	0	530	617
10	0	0	0	0	528	616
11	0	0	0	0	527	616
12	0	0	0	0	526	619
13	0	0	0	0	525	617
14	0	0	0	0	525	616
15	0	0	0	0	524	617
0	0	0	0	0	524	615
1	0	0	0	0	524	616
2	0	0	0	0	524	617
3	0	0	0	0	523	617
4	0	0	0	0	522	619
5	0	0	0	0	522	617
6	0	0	0	0	521	617
7	0	0	0	0	521	617
8	0	0	0	0	522	615
9	0	0	0	0	522	617
10	0	0	0	0	522	617
11	0	0	0	0	522	618
12	0	0	0	0	523	620
13	0	0	0	0	524	618
14	0	0	0	0	524	618
15	0	0	0	0	524	618
0	0	0	0	0	524	615
1	0	0	0	0	524	618
2	0	0	0	0	523	617
3	0	0	0	0	521	617
4	0	0	0	0	520	620
5	0	0	0	0	519	617
6	0	0	0	0	518	618
7	0	0	0	0	518	618
8	0	0	0	0	518	615
9	0	0	0	0	518	618
10	0	0	0	0	518	618
11	0	0	0	0	518	617
12	0	0	0	0	519	620
13	0	0	0	0	519	617
14	0	0	0	0	519	618
15	0	0	0	0	519	618
0	0	0	0	0	519	614
1	0	0	0	0	519	617
2	0	0	0	0	519	617
3	0	0	0	0	519	617
4	0	0	0	0	519	619
5	0	0	0	0	519	617
6	0	0	0	0	517	617
7	0	0	0	0	516	618
8	0	0	0	0	516	615
9	0	0	0	0	517	617
10	0	0	0	0	517	617
11	0	0	0	0	516	617
12	0	0	0	0	517	619
13	0	0	0	0	518	616
14	0	0	0	0	518	617
15	0	0	0	0	519	617
0	0	0	0	0	518	615
1	0	0	0	0	519	617
2	0	0	0	0	519	617
3	0	0	0	0	519	616
4	0	0	0	0	520	620
5	0	0	0	0	521	617
6	0	0	0	0	520	617
7	0	0	0	0	519	616
8	0	0	0	0	519	615
9	0	0	0	0	519	617
10	0	0	0	0	518	616
11	0	0	0	0	518	617
12	0	0	0	0	517	619
13	0	0	0	0	516	617
14	0	0	0	0	515	616
15	0	0	0	0	516	617
0	0	0	0	0	517	615
1	0	0	0	0	516	617
2	0	0	0	0	516	617
3	0	0	0	0	516	617
4	0	0	0	0	517	619
5	0	0	0	0	518	617
6	0	0	0	0	518	616
7	0	0	0	0	518	617
8	0	0	0	0	518	615
9	0	0	0	0	518	617
10	0	0	0	0	518	616
11	0	0	0	0	518	617
12	0	0	0	0	516	619
13	0	0	0	0	516	617
14	0	0	0	0	515	616
15	0	0	0	0	514	618
0	0	0	0	0	514	615
1	0	0	0	0	513	617
2	0	0	0	0	513	617
3	0	0	0	0	513	617
4	0	0	0	0	513	620
5	0	0	0	0	513	618
6	0	0	0	0	513	618
7	0	0	0	0	514	618
8	0	0	0	0	514	615
9	0	0	0	0	514	618
10	0	0	0	0	515	618
11	0	0	0	0	515	618
12	0	0	0	0	515	620
13	0	0	0	0	515	618
14	0	0	0	0	516	617
15	0	0	0	0	515	618
0	0	0	0	0	515	615
1	0	0	0	0	515	617
2	0	0	0	0	514	617
3	0	0	0	0	513	617
4	0	0	0	0	513	620
5	0	0	0	0	513	617
6	0	0	0	0	513	617
7	0	0	0	0	513	617
8	0	0	0	0	513	615
9	0	0	0	0	514	617
10	0	0	0	0	514	617
11	0	0	0	0	515	617
12	0	0	0	0	514	620
13	0	0	0	0	514	617
14	0	0	0	0	515	617
15	0	0	0	0	514	617
0	0	0	0	0	514	615
1	0	0	0	0	515	617
2	0	0	0	0	515	617
3	0	0	0	0	515	617
4	0	0	0	0	516	619
5	0	0	0	0	515	617
6	0	0	0	0	515	617
7	0	0	0	0	514	617
8	0	0	0	0	514	615
9	0	0	0	0	515	617
10	0	0	0	0	514	616
11	0	0	0	0	513	617
12	0	0	0	0	512	620
13	0	0	0	0	511	617
14	0	0	0	0	512	617
15	0	0	0	0	512	617
0	0	0	0	0	512	615
1	0	0	0	0	512	617
2	0	0	0	0	513	617
3	0	0	0	0	513	617
4	0	0	0	0	513	620
5	0	0	0	0	512	617
6	0	0	0	0	512	617
7	0	0	0	0	512	617
8	0	0	0	0	511	614
9	0	0	0	0	511	617
10	0	0	0	0	510	616
11	0	0	0	0	510	617
12	0	0	0	0	510	619
13	0	0	0	0	509	617
14	0	0	0	0	509	617
15	0	0	0	0	508	617
0	0	0	0	0	508	615
1	0	0	0	0	509	617
2	0	0	0	0	510	617
3	0	0	0	0	510	617
4	0	0	0	0	511	620
5	0	0	0	0	513	617
6	0	0	0	0	513	617
7	0	0	0	0	513	617
8	0	0	0	0	513	615
9	0	0	0	0	513	617
10	0	0	0	0	512	617
11	0	0	0	0	512	617
12	0	0	0	0	512	620
13	0	0	0	0	511	617
14	0	0	0	0	511	617
15	0	0	0	0	511	617
0	0	0	0	0	510	615
1	0	0	0	0	509	617
2	0	0	0	0	509	617
3	0	0	0	0	508	617
4	0	0	0	0	509	620
5	0	0	0	0	508	617
6	0	0	0	0	508	617
7	0	0	0	0	508	617
8	0	0	0	0	509	615
9	0	0	0	0	510	617
10	0	0	0	0	510	617
11	0	0	0	0	512	618
12	0	0	0	0	512	620
13	0	0	0	0	513	617
14	0	0	0	0	512	618
15	0	0	0	0	512	618
0	0	0	0	0	512	615
1	0	0	0	0	512	617
2	0	0	0	0	511	617
3	0	0	0	0	510	617
4	0	0	0	0	509	620
5	0	0	0	0	508	617
6	0	0	0	0	508	617
7	0	0	0	0	506	617
8	0	0	0	0	506	615
9	0	0	0	0	508	617
10	0	0	0	0	507	617
11	0	0	0	0	508	617
12	0	0	0	0	508	620
13	0	0	0	0	508	617
14	0	0	0	0	508	617
15	0	0	0	0	509	617
0	0	0	0	0	509	615
1	0	0	0	0	510	617
2	0	0	0	0	511	617
3	0	0	0	0	510	617
4	0	0	0	0	510	620
5	0	0	0	0	509	617
6	0	0	0	0	509	617
7	0	0	0	0	509	617
8	0	0	0	0	507	614
9	0	0	0	0	507	617
10	0	0	0	0	507	617
11	0	0	0	0	507	616
12	0	0	0	0	507	619
13	0	0	0	0	507	617
14	0	0	0	0	507	617
15	0	0	0	0	507	617
0	0	0	0	0	508	615
1	0	0	0	0	508	618
2	0	0	0	0	509	617
3	0	0	0	0	509	617
4	0	0	0	0	509	620
5	0	0	0	0	510	617
6	0	0	0	0	510	617
7	0	0	0	0	511	618
8	0	0	0	0	510	615
9	0	0	0	0	509	618
10	0	0	0	0	508	618
11	0	0	0	0	508	618
12	0	0	0	0	507	620
13	0	0	0	0	505	618
14	0	0	0	0	505	617
15	0	0	0	0	505	618
0	0	0	0	0	505	615
1	0	0	0	0	505	618
2	0	0	0	0	504	619
3	0	0	0	0	505	618
4	0	0	0	0	507	621
5	0	0	0	0	508	619
6	0	0	0	0	508	619
7	0	0	0	0	508	618
8	0	0	0	0	508	615
9	0	0	0	0	508	618
10	0	0	0	0	507	619
11	0	0	0	0	507	618
12	0	0	0	0	507	621
13	0	0	0	0	506	618
14	0	0	0	0	504	618
15	0	0	0	0	504	618
0	0	0	0	0	504	615
1	0	0	0	0	504	618
2	0	0	0	0	503	618
3	0	0	0	0	503	617
4	0	0	0	0	502	620
5	0	0	0	0	502	618
6	0	0	0	0	502	618
7	0	0	0	0	502	617
8	0	0	0	0	502	615
9	0	0	0	0	501	617
10	0	0	0	0	500	618
11	0	0	0	0	500	618
12	0	0	0	0	499	620
13	0	0	0	0	499	617
14	0	0	0	0	498	618
15	0	0	0	0	499	617
0	0	0	0	0	499	615
1	0	0	0	0	498	617
2	0	0	0	0	498	617
3	0	0	0	0	497	617
4	0	0	0	0	498	619
5	0	0	0	0	498	617
6	0	0	0	0	498	617
7	0	0	0	0	499	617
8	0	0	0	0	499	615
9	0	0	0	0	499	618
10	0	0	0	0	499	618
11	0	0	0	0	499	618
12	0	0	0	0	500	620
13	0	0	0	0	501	617
14	0	0	0	0	501	617
15	0	0	0	0	503	617
0	0	0	0	0	503	615
1	0	0	0	0	503	617
2	0	0	0	0	502	616
3	0	0	0	0	502	616
4	0	0	0	0	502	619
5	0	0	0	0	502	616
6	0	0	0	0	501	616
7	0	0	0	0	501	616
8	0	0	0	0	501	614
9	0	0	0	0	500	616
10	0	0	0	0	501	616
11	0	0	0	0	502	616
12	0	0	0	0	502	619
13	0	0	0	0	503	616
14	0	0	0	0	503	617
15	0	0	0	0	504	616
0	0	0	0	0	505	614
1	0	0	0	0	506	617
2	0	0	0	0	507	617
3	0	0	0	0	508	616
4	0	0	0	0	509	619
5	0	0	0	0	509	616
6	0	0	0	0	509	617
7	0	0	0	0	509	617
8	0	0	0	0	507	614
9	0	0	0	0	506	616
10	0	0	0	0	504	616
11	0	0	0	0	504	616
12	0	0	0	0	504	619
13	0	0	0	0	504	616
14	0	0	0	0	504	616
15	0	0	0	0	504	617
0	0	0	0	0	505	614
1	0	0	0	0	506	617
2	0	0	0	0	507	617
3	0	0	0	0	508	617
4	0	0	0	0	510	620
5	0	0	0	0	511	618
6	0	0	0	0	511	618
7	0	0	0	0	512	617
8	0	0	0	0	511	615
9	0	0	0	0	510	617
10	0	0	0	0	508	617
11	0	0	0	0	508	617
12	0	0	0	0	509	620
13	0	0	0	0	509	618
14	0	0	0	0	508	618
15	0	0	0	0	507	618
0	0	0	0	0	505	615
1	0	0	0	0	504	618
2	0	0	0	0	504	618
3	0	0	0	0	503	618
4	0	0	0	0	504	621
5	0	0	0	0	503	619
6	0	0	0	0	504	619
7	0	0	0	0	505	619
8	0	0	0	0	506	615
9	0	0	0	0	508	619
10	0	0	0	0	508	618
11	0	0	0	0	508	619
12	0	0	0	0	508	620
13	0	0	0	0	508	618
14	0	0	0	0	507	618
15	0	0	0	0	507	619
0	0	0	0	0	506	616
1	0	0	0	0	506	619
2	0	0	0	0	505	619
3	0	0	0	0	504	618
4	0	0	0	0	504	621
5	0	0	0	0	504	619
6	0	0	0	0	504	618
7	0	0	0	0	504	618
8	0	0	0	0	505	615
9	0	0	0	0	505	619
10	0	0	0	0	505	619
11	0	0	0	0	504	618
12	0	0	0	0	504	621
13	0	0	0	0	505	619
14	0	0	0	0	507	618
15	0	0	0	0	507	618
0	0	0	0	0	506	615
1	0	0	0	0	507	617
2	0	0	0	0	506	617
3	0	0	0	0	506	617
4	0	0	0	0	505	620
5	0	0	0	0	504	617
6	0	0	0	0	504	617
7	0	0	0	0	503	617
8	0	0	0	0	502	614
9	0	0	0	0	503	617
10	0	0	0	0	503	617
11	0	0	0	0	503	616
12	0	0	0	0	503	620
13	0	0	0	0	504	617
14	0	0	0	0	504	617
15	0	0	0	0	504	617
0	0	0	0	0	504	615
1	0	0	0	0	504	618
2	0	0	0	0	504	617
3	0	0	0	0	502	617
4	0	0	0	0	499	619
5	0	0	0	0	498	617
6	0	0	0	0	495	616
7	0	0	0	0	492	616
8	0	0	0	0	489	614
9	0	0	0	0	487	616
10	0	0	0	0	484	616
11	0	0	0	0	482	617
12	0	0	0	0	481	619
13	0	0	0	0	479	617
14	0	0	0	0	476	616
15	0	0	0	0	472	617
0	0	0	0	0	468	614
1	0	0	0	0	464	617
2	0	0	0	0	459	617
3	0	0	0	0	453	617
4	0	0	0	0	446	620
5	0	0	0	0	438	616
6	0	0	0	0	430	616
7	0	0	0	0	422	616
8	0	0	0	0	416	614
9	0	0	0	0	413	617
10	0	0	0	0	412	617
11	0	0	0	0	413	617
12	0	0	0	0	416	620
13	0	0	0	0	419	617
14	0	0	0	0	423	617
15	0	0	0	0	429	618
0	0	0	0	0	440	615
1	0	0	0	0	456	617
2	0	0	0	0	479	618
3	0	0	0	0	509	617
4	0	0	0	0	543	620
5	0	0	0	0	576	617
6	0	0	0	0	604	617
7	0	0	0	0	630	617
8	0	0	0	0	654	615
9	0	0	0	0	675	618
10	0	0	0	0	691	617
11	0	0	0	0	700	618
12	0	0	0	0	703	620
13	0	0	0	0	698	618
14	0	0	0	0	690	618
15	0	0	0	0	676	618
0	0	0	0	0	657	615
1	0	0	0	0	638	618
2	0	0	0	0	620	617
3	0	0	0	0	604	618
4	0	0	0	0	592	620
5	0	0	0	0	584	618
6	0	0	0	0	577	618
7	0	0	0	0	571	617
8	0	0	0	0	564	615
9	0	0	0	0	556	618
10	0	0	0	0	547	617
11	0	0	0	0	538	618
12	0	0	0	0	529	620
13	0	0	0	0	520	617
14	0	0	0	0	513	617
15	0	0	0	0	508	618
0	0	0	0	0	503	615
1	0	0	0	0	499	616
2	0	0	0	0	497	616
3	0	0	0	0	495	616
4	0	0	0	0	496	619
5	0	0	0	0	496	616
6	0	0	0	0	496	617
7	0	0	0	0	495	617
8	0	0	0	0	494	615
9	0	0	0	0	493	617
10	0	0	0	0	491	617
11	0	0	0	0	489	617
12	0	0	0	0	486	620
13	0	0	0	0	484	616
14	0	0	0	0	481	616
15	0	0	0	0	480	617
0	0	0	0	0	479	615
1	0	0	0	0	478	617
2	0	0	0	0	478	617
3	0	0	0	0	478	616
4	0	0	0	0	477	620
5	0	0	0	0	477	617
6	0	0	0	0	477	617
7	0	0	0	0	477	617
8	0	0	0	0	476	615
9	0	0	0	0	476	617
10	0	0	0	0	476	617
11	0	0	0	0	475	617
12	0	0	0	0	474	620
13	0	0	0	0	474	617
14	0	0	0	0	474	617
15	0	0	0	0	475	617
0	0	0	0	0	476	615
1	0	0	0	0	477	617
2	0	0	0	0	476	617
3	0	0	0	0	478	616
4	0	0	0	0	479	619
5	0	0	0	0	479	617
6	0	0	0	0	479	617
7	0	0	0	0	480	617
8	0	0	0	0	480	614
9	0	0	0	0	480	616
10	0	0	0	0	480	616
11	0	0	0	0	480	616
12	0	0	0	0	479	619
13	0	0	0	0	479	616
14	0	0	0	0	479	617
15	0	0	0	0	479	617
0	0	0	0	0	479	614
1	0	0	0	0	479	616
2	0	0	0	0	479	616
3	0	0	0	0	479	616
4	0	0	0	0	480	619
5	0	0	0	0	480	616
6	0	0	0	0	480	616
7	0	0	0	0	481	616
8	0	0	0	0	481	614
9	0	0	0	0	481	616
10	0	0	0	0	481	617
11	0	0	0	0	482	616
12	0	0	0	0	483	619
13	0	0	0	0	483	617
14	0	0	0	0	484	617
15	0	0	0	0	484	617
0	0	0	0	0	484	615
1	0	0	0	0	483	617
2	0	0	0	0	483	617
3	0	0	0	0	483	617
4	0	0	0	0	483	620
5	0	0	0	0	482	618
6	0	0	0	0	482	618
7	0	0	0	0	483	618
8	0	0	0	0	483	615
9	0	0	0	0	483	618
10	0	0	0	0	484	618
11	0	0	0	0	484	617
12	0	0	0	0	485	621
13	0	0	0	0	486	619
14	0	0	0	0	486	619
15	0	0	0	0	487	619
0	0	0	0	0	487	615
1	0	0	0	0	487	617
2	0	0	0	0	486	618
3	0	0	0	0	486	618
4	0	0	0	0	486	621
5	0	0	0	0	486	618
6	0	0	0	0	485	618
7	0	0	0	0	485	618
8	0	0	0	0	486	616
9	0	0	0	0	485	618
10	0	0	0	0	485	618
11	0	0	0	0	486	617
12	0	0	0	0	485	620
13	0	0	0	0	485	617
14	0	0	0	0	485	618
15	0	0	0	0	484	617
0	0	0	0	0	484	616
1	0	0	0	0	484	618
2	0	0	0	0	486	618
3	0	0	0	0	486	618
4	0	0	0	0	485	620
5	0	0	0	0	485	618
6	0	0	0	0	485	617
7	0	0	0	0	485	617
8	0	0	0	0	485	615
9	0	0	0	0	485	617
10	0	0	0	0	484	617
11	0	0	0	0	483	617
12	0	0	0	0	481	620
13	0	0	0	0	481	617
14	0	0	0	0	480	617
15	0	0	0	0	480	616
0	0	0	0	0	480	614
1	0	0	0	0	480	617
2	0	0	0	0	480	616
3	0	0	0	0	480	616
4	0	0	0	0	481	619
5	0	0	0	0	481	616
6	0	0	0	0	481	616
7	0	0	0	0	482	616
8	0	0	0	0	482	614
9	0	0	0	0	481	616
10	0	0	0	0	480	616
11	0	0	0	0	479	616
12	0	0	0	0	478	619
13	0	0	0	0	478	616
14	0	0	0	0	477	616
15	0	0	0	0	476	616
0	0	0	0	0	476	614
1	0	0	0	0	476	617
2	0	0	0	0	475	617
3	0	0	0	0	475	616
4	0	0	0	0	474	619
5	0	0	0	0	474	617
6	0	0	0	0	474	617
7	0	0	0	0	474	617
8	0	0	0	0	475	615
9	0	0	0	0	475	617
10	0	0	0	0	475	617
11	0	0	0	0	474	617
12	0	0	0	0	473	620
13	0	0	0	0	472	617
14	0	0	0	0	472	617
15	0	0	0	0	471	617
0	0	0	0	0	470	615
1	0	0	0	0	469	619
2	0	0	0	0	468	617
3	0	0	0	0	467	617
4	0	0	0	0	466	620
5	0	0	0	0	466	619
6	0	0	0	0	465	619
7	0	0	0	0	465	618
8	0	0	0	0	464	615
9	0	0	0	0	463	619
10	0	0	0	0	463	618
11	0	0	0	0	463	619
12	0	0	0	0	464	621
13	0	0	0	0	464	618
14	0	0	0	0	464	618
15	0	0	0	0	464	618
0	0	0	0	0	464	615
1	0	0	0	0	464	619
2	0	0	0	0	464	619
3	0	0	0	0	463	619
4	0	0	0	0	463	621
5	0	0	0	0	463	619
6	0	0	0	0	461	619
7	0	0	0	0	460	619
8	0	0	0	0	460	617
9	0	0	0	0	460	619
10	0	0	0	0	460	618
11	0	0	0	0	460	619
12	0	0	0	0	461	620
13	0	0	0	0	461	619
14	0	0	0	0	461	619
15	0	0	0	0	462	618
0	0	0	0	0	462	615
1	0	0	0	0	463	618
2	0	0	0	0	464	617
3	0	0	0	0	465	618
4	0	0	0	0	466	620
5	0	0	0	0	466	617
6	0	0	0	0	467	617
7	0	0	0	0	467	617
8	0	0	0	0	467	615
9	0	0	0	0	467	617
10	0	0	0	0	468	617
11	0	0	0	0	468	616
12	0	0	0	0	469	619
13	0	0	0	0	469	617
14	0	0	0	0	470	616
15	0	0	0	0	472	616
0	0	0	0	0	473	613
1	0	0	0	0	474	616
2	0	0	0	0	475	616
3	0	0	0	0	476	616
4	0	0	0	0	477	618
5	0	0	0	0	479	616
6	0	0	0	0	481	616
7	0	0	0	0	482	616
8	0	0	0	0	484	614
9	0	0	0	0	484	616
10	0	0	0	0	486	615
11	0	0	0	0	487	615
12	0	0	0	0	489	618
13	0	0	0	0	491	615
14	0	0	0	0	492	615
15	0	0	0	0	493	616
0	0	0	0	0	494	614
1	0	0	0	0	496	616
2	0	0	0	0	498	616
3	0	0	0	0	499	615
4	0	0	0	0	502	619
5	0	0	0	0	504	616
6	0	0	0	0	506	616
7	0	0	0	0	508	616
8	0	0	0	0	510	614
9	0	0	0	0	512	616
10	0	0	0	0	515	616
11	0	0	0	0	517	617
12	0	0	0	0	519	619
13	0	0	0	0	520	617
14	0	0	0	0	521	617
15	0	0	0	0	524	617
0	0	0	0	0	525	615
1	0	0	0	0	526	617
2	0	0	0	0	527	617
3	0	0	0	0	527	617
4	0	0	0	0	529	620
5	0	0	0	0	530	618
6	0	0	0	0	531	618
7	0	0	0	0	533	618
8	0	0	0	0	535	615
9	0	0	0	0	536	618
10	0	0	0	0	538	617
11	0	0	0	0	539	617
12	0	0	0	0	541	620
13	0	0	0	0	543	617
14	0	0	0	0	545	618
15	0	0	0	0	547	618
0	0	0	0	0	549	615
1	0	0	0	0	550	617
2	0	0	0	0	550	617
3	0	0	0	0	551	618
4	0	0	0	0	551	620
5	0	0	0	0	551	618
6	0	0	0	0	551	618
7	0	0	0	0	551	618
8	0	0	0	0	551	616
9	0	0	0	0	551	617
10	0	0	0	0	553	617
11	0	0	0	0	553	618
12	0	0	0	0	553	620
13	0	0	0	0	554	617
14	0	0	0	0	554	617
15	0	0	0	0	555	617
0	0	0	0	0	555	615
1	0	0	0	0	556	617
2	0	0	0	0	556	617
3	0	0	0	0	556	617
4	0	0	0	0	556	619
5	0	0	0	0	556	617
6	0	0	0	0	556	617
7	0	0	0	0	556	617
8	0	0	0	0	555	614
9	0	0	0	0	555	617
10	0	0	0	0	554	617
11	0	0	0	0	553	617
12	0	0	0	0	552	619
13	0	0	0	0	551	616
14	0	0	0	0	550	617
15	0	0	0	0	550	616
0	0	0	0	0	550	614
1	0	0	0	0	550	617
2	0	0	0	0	550	616
3	0	0	0	0	551	616
4	0	0	0	0	552	620
5	0	0	0	0	552	617
6	0	0	0	0	553	617
7	0	0	0	0	553	616
8	0	0	0	0	553	614
9	0	0	0	0	552	617
10	0	0	0	0	552	617
11	0	0	0	0	553	616
12	0	0	0	0	552	620
13	0	0	0	0	551	617
14	0	0	0	0	551	618
15	0	0	0	0	550	617
0	0	0	0	0	550	615
1	0	0	0	0	549	618
2	0	0	0	0	548	617
3	0	0	0	0	547	617
4	0	0	0	0	547	619
5	0	0	0	0	547	617
6	0	0	0	0	546	618
7	0	0	0	0	547	617
8	0	0	0	0	547	615
9	0	0	0	0	546	618
10	0	0	0	0	547	618
11	0	0	0	0	546	617
12	0	0	0	0	546	620
13	0	0	0	0	545	619
14	0	0	0	0	544	619
15	0	0	0	0	543	619
0	0	0	0	0	543	616
1	0	0	0	0	543	619
2	0	0	0	0	543	619
3	0	0	0	0	542	619
4	0	0	0	0	541	621
5	0	0	0	0	540	619
6	0	0	0	0	540	619
7	0	0	0	0	540	619
8	0	0	0	0	539	616
9	0	0	0	0	539	619
10	0	0	0	0	540	619
11	0	0	0	0	539	618
12	0	0	0	0	540	621
13	0	0	0	0	539	619
14	0	0	0	0	539	619
15	0	0	0	0	539	619
0	0	0	0	0	539	616
1	0	0	0	0	538	619
2	0	0	0	0	537	618
3	0	0	0	0	537	618
4	0	0	0	0	536	620
5	0	0	0	0	535	618
6	0	0	0	0	535	617
7	0	0	0	0	533	617
8	0	0	0	0	532	615
9	0	0	0	0	532	618
10	0	0	0	0	532	619
11	0	0	0	0	532	618
12	0	0	0	0	532	620
13	0	0	0	0	531	617
14	0	0	0	0	532	618
15	0	0	0	0	531	618
0	0	0	0	0	532	615
1	0	0	0	0	531	617
2	0	0	0	0	532	617
3	0	0	0	0	531	617
4	0	0	0	0	531	620
5	0	0	0	0	530	617
6	0	0	0	0	529	617
7	0	0	0	0	528	617
8	0	0	0	0	528	615
9	0	0	0	0	527	618
10	0	0	0	0	526	617
11	0	0	0	0	525	617
12	0	0	0	0	525	619
13	0	0	0	0	525	617
14	0	0	0	0	525	617
15	0	0	0	0	524	617
0	0	0	0	0	524	614
1	0	0	0	0	524	616
2	0	0	0	0	524	617
3	0	0	0	0	523	616
4	0	0	0	0	524	619
5	0	0	0	0	525	617
6	0	0	0	0	526	617
7	0	0	0	0	525	617
8	0	0	0	0	525	614
9	0	0	0	0	525	616
10	0	0	0	0	525	616
11	0	0	0	0	525	616
12	0	0	0	0	525	619
13	0	0	0	0	524	616
14	0	0	0	0	524	617
15	0	0	0	0	523	617
0	0	0	0	0	523	615
1	0	0	0	0	522	616
2	0	0	0	0	522	617
3	0	0	0	0	522	617
4	0	0	0	0	522	620
5	0	0	0	0	522	618
6	0	0	0	0	521	617
7	0	0	0	0	522	618
8	0	0	0	0	523	614
9	0	0	0	0	522	618
10	0	0	0	0	522	618
11	0	0	0	0	522	618
12	0	0	0	0	522	620
13	0	0	0	0	522	618
14	0	0	0	0	521	617
15	0	0	0	0	521	618
0	0	0	0	0	520	615
1	0	0	0	0	520	618
2	0	0	0	0	519	618
3	0	0	0	0	518	618
4	0	0	0	0	518	620
5	0	0	0	0	518	618
6	0	0	0	0	517	618
7	0	0	0	0	517	618
8	0	0	0	0	518	615
9	0	0	0	0	518	618
10	0	0	0	0	519	618
11	0	0	0	0	519	617
12	0	0	0	0	520	620
13	0	0	0	0	520	618
14	0	0	0	0	520	618
15	0	0	0	0	521	618
0	0	0	0	0	521	615
1	0	0	0	0	521	618
2	0	0	0	0	521	617
3	0	0	0	0	521	617
4	0	0	0	0	520	619
5	0	0	0	0	520	617
6	0	0	0	0	519	617
7	0	0	0	0	518	617
8	0	0	0	0	517	615
9	0	0	0	0	517	618
10	0	0	0	0	518	617
11	0	0	0	0	518	617
12	0	0	0	0	518	620
13	0	0	0	0	518	618
14	0	0	0	0	518	617
15	0	0	0	0	518	617
0	0	0	0	0	518	614
1	0	0	0	0	518	617
2	0	0	0	0	519	617
3	0	0	0	0	519	617
4	0	0	0	0	519	619
5	0	0	0	0	519	617
6	0	0	0	0	519	617
7	0	0	0	0	518	617
8	0	0	0	0	518	614
9	0	0	0	0	518	616
10	0	0	0	0	517	616
11	0	0	0	0	515	617
12	0	0	0	0	516	619
13	0	0	0	0	516	616
14	0	0	0	0	515	616
15	0	0	0	0	515	617
0	0	0	0	0	514	613
1	0	0	0	0	514	616
2	0	0	0	0	514	616
3	0	0	0	0	515	616
4	0	0	0	0	515	619
5	0	0	0	0	516	616
6	0	0	0	0	516	616
7	0	0	0	0	517	616
8	0	0	0	0	516	614
9	0	0	0	0	516	616
10	0	0	0	0	515	616
11	0	0	0	0	515	616
12	0	0	0	0	515	619
13	0	0	0	0	514	616
14	0	0	0	0	513	616
15	0	0	0	0	512	616
0	0	0	0	0	512	614
1	0	0	0	0	512	617
2	0	0	0	0	512	617
3	0	0	0	0	512	617
4	0	0	0	0	511	620
5	0	0	0	0	511	616
6	0	0	0	0	511	617
7	0	0	0	0	512	617
8	0	0	0	0	512	614
9	0	0	0	0	512	617
10	0	0	0	0	513	616
11	0	0	0	0	512	617
12	0	0	0	0	512	619
13	0	0	0	0	512	617
14	0	0	0	0	511	616
15	0	0	0	0	511	617
0	0	0	0	0	511	615
1	0	0	0	0	510	617
2	0	0	0	0	509	617
3	0	0	0	0	509	618
4	0	0	0	0	509	620
5	0	0	0	0	508	617
6	0	0	0	0	509	617
7	0	0	0	0	509	617
8	0	0	0	0	508	615
9	0	0	0	0	508	618
10	0	0	0	0	509	617
11	0	0	0	0	509	618
12	0	0	0	0	510	620
13	0	0	0	0	510	618
14	0	0	0	0	510	619
15	0	0	0	0	510	618
0	0	0	0	0	509	616
1	0	0	0	0	509	619
2	0	0	0	0	509	619
3	0	0	0	0	508	618
4	0	0	0	0	508	621
5	0	0	0	0	508	618
6	0	0	0	0	507	618
7	0	0	0	0	506	618
8	0	0	0	0	505	615
9	0	0	0	0	506	618
10	0	0	0	0	506	617
11	0	0	0	0	505	617
12	0	0	0	0	507	619
13	0	0	0	0	507	617
14	0	0	0	0	508	617
15	0	0	0	0	509	617
0	0	0	0	0	509	615
1	0	0	0	0	509	618
2	0	0	0	0	509	617
3	0	0	0	0	510	618
4	0	0	0	0	510	620
5	0	0	0	0	509	618
6	0	0	0	0	508	617
7	0	0	0	0	507	618
8	0	0	0	0	507	615
9	0	0	0	0	507	617
10	0	0	0	0	506	618
11	0	0	0	0	504	617
12	0	0	0	0	504	620
13	0	0	0	0	505	616
14	0	0	0	0	505	617
15	0	0	0	0	505	617
0	0	0	0	0	506	615
1	0	0	0	0	506	617
2	0	0	0	0	506	616
3	0	0	0	0	506	616
4	0	0	0	0	507	619
5	0	0	0	0	507	617
6	0	0	0	0	507	616
7	0	0	0	0	507	617
8	0	0	0	0	507	615
9	0	0	0	0	507	617
10	0	0	0	0	506	617
11	0	0	0	0	506	617
12	0	0	0	0	506	620
13	0	0	0	0	505	616
14	0	0	0	0	504	616
15	0	0	0	0	504	616
0	0	0	0	0	504	614
1	0	0	0	0	504	616
2	0	0	0	0	504	616
3	0	0	0	0	504	616
4	0	0	0	0	504	619
5	0	0	0	0	504	617
6	0	0	0	0	504	616
7	0	0	0	0	504	616
8	0	0	0	0	505	614
9	0	0	0	0	505	617
10	0	0	0	0	507	616
11	0	0	0	0	508	616
12	0	0	0	0	508	619
13	0	0	0	0	508	616
14	0	0	0	0	507	616
15	0	0	0	0	507	616
0	0	0	0	0	506	615
1	0	0	0	0	505	617
2	0	0	0	0	505	617
3	0	0	0	0	504	617
4	0	0	0	0	504	620
5	0	0	0	0	504	617
6	0	0	0	0	503	617
7	0	0	0	0	504	617
8	0	0	0	0	504	615
9	0	0	0	0	503	617
10	0	0	0	0	503	617
11	0	0	0	0	503	617
12	0	0	0	0	504	620
13	0	0	0	0	504	618
14	0	0	0	0	505	617
15	0	0	0	0	506	617
0	0	0	0	0	507	615
1	0	0	0	0	507	618
2	0	0	0	0	507	618
3	0	0	0	0	508	618
4	0	0	0	0	508	620
5	0	0	0	0	507	618
6	0	0	0	0	507	618
7	0	0	0	0	506	617
8	0	0	0	0	506	616
9	0	0	0	0	506	617
10	0	0	0	0	505	618
11	0	0	0	0	505	619
12	0	0	0	0	504	621
13	0	0	0	0	505	619
14	0	0	0	0	506	619
15	0	0	0	0	506	619
0	0	0	0	0	507	616
1	0	0	0	0	507	619
2	0	0	0	0	508	619
3	0	0	0	0	509	619
4	0	0	0	0	508	622
5	0	0	0	0	508	619
6	0	0	0	0	508	619
7	0	0	0	0	508	618
8	0	0	0	0	508	616
9	0	0	0	0	508	619
10	0	0	0	0	507	619
11	0	0	0	0	505	618
12	0	0	0	0	504	620
13	0	0	0	0	504	618
14	0	0	0	0	504	618
15	0	0	0	0	505	619
0	0	0	0	0	505	615
1	0	0	0	0	505	618
2	0	0	0	0	505	618
3	0	0	0	0	505	617
4	0	0	0	0	506	620
5	0	0	0	0	507	618
6	0	0	0	0	507	618
7	0	0	0	0	508	617
8	0	0	0	0	508	614
9	0	0	0	0	508	617
10	0	0	0	0	508	617
11	0	0	0	0	508	617
12	0	0	0	0	508	620
13	0	0	0	0	507	616
14	0	0	0	0	507	617
15	0	0	0	0	505	616
0	0	0	0	0	505	614
1	0	0	0	0	504	617
2	0	0	0	0	504	618
3	0	0	0	0	505	617
4	0	0	0	0	505	620
5	0	0	0	0	505	617
6	0	0	0	0	506	616
7	0	0	0	0	507	617
8	0	0	0	0	507	615
9	0	0	0	0	507	617
10	0	0	0	0	508	616
11	0	0	0	0	508	617
12	0	0	0	0	508	619
13	0	0	0	0	508	616
14	0	0	0	0	508	616
15	0	0	0	0	507	617
0	0	0	0	0	508	614
1	0	0	0	0	507	616
2	0	0	0	0	506	616
3	0	0	0	0	505	616
4	0	0	0	0	505	619
5	0	0	0	0	505	616
6	0	0	0	0	505	616
7	0	0	0	0	506	616
8	0	0	0	0	506	614
9	0	0	0	0	506	616
10	0	0	0	0	506	616
11	0	0	0	0	506	616
12	0	0	0	0	507	619
13	0	0	0	0	507	616
14	0	0	0	0	507	617
15	0	0	0	0	507	617
0	0	0	0	0	506	614
1	0	0	0	0	506	617
2	0	0	0	0	505	616
3	0	0	0	0	504	616
4	0	0	0	0	504	619
5	0	0	0	0	504	617
6	0	0	0	0	503	616
7	0	0	0	0	502	617
8	0	0	0	0	502	615
9	0	0	0	0	501	617
10	0	0	0	0	501	616
11	0	0	0	0	501	617
12	0	0	0	0	503	620
13	0	0	0	0	503	617
14	0	0	0	0	502	617
15	0	0	0	0	502	617
0	0	0	0	0	502	614
1	0	0	0	0	503	617
2	0	0	0	0	503	617
3	0	0	0	0	503	617
4	0	0	0	0	503	620
5	0	0	0	0	502	618
6	0	0	0	0	501	617
7	0	0	0	0	501	618
8	0	0	0	0	501	615
9	0	0	0	0	500	617
10	0	0	0	0	499	617
11	0	0	0	0	498	617
12	0	0	0	0	498	620
13	0	0	0	0	499	618
14	0	0	0	0	500	618
15	0	0	0	0	500	617
0	0	0	0	0	500	615
1	0	0	0	0	500	617
2	0	0	0	0	502	618
3	0	0	0	0	502	618
4	0	0	0	0	504	620
5	0	0	0	0	504	618
6	0	0	0	0	505	619
7	0	0	0	0	506	619
8	0	0	0	0	505	616
9	0	0	0	0	505	618
10	0	0	0	0	505	619
11	0	0	0	0	504	618
12	0	0	0	0	504	620
13	0	0	0	0	504	619
14	0	0	0	0	503	618
15	0	0	0	0	502	618
0	0	0	0	0	502	615
1	0	0	0	0	501	618
2	0	0	0	0	502	618
3	0	0	0	0	503	617
4	0	0	0	0	504	620
5	0	0	0	0	504	618
6	0	0	0	0	505	618
7	0	0	0	0	507	618
8	0	0	0	0	508	615
9	0	0	0	0	508	617
10	0	0	0	0	509	618
11	0	0	0	0	510	617
12	0	0	0	0	511	619
13	0	0	0	0	511	618
14	0	0	0	0	511	617
15	0	0	0	0	511	618
0	0	0	0	0	510	615
1	0	0	0	0	509	617
2	0	0	0	0	508	617
3	0	0	0	0	507	617
4	0	0	0	0	508	620
5	0	0	0	0	508	617
6	0	0	0	0	508	617
7	0	0	0	0	509	617
8	0	0	0	0	510	614
9	0	0	0	0	510	616
10	0	0	0	0	511	617
11	0	0	0	0	512	617
12	0	0	0	0	513	619
13	0	0	0	0	513	616
14	0	0	0	0	515	616
15	0	0	0	0	515	617
0	0	0	0	0	515	615
1	0	0	0	0	514	617
2	0	0	0	0	512	616
3	0	0	0	0	511	617
4	0	0	0	0	511	619
5	0	0	0	0	510	616
6	0	0	0	0	509	617
7	0	0	0	0	508	616
8	0	0	0	0	506	615
9	0	0	0	0	505	617
10	0	0	0	0	505	616
11	0	0	0	0	506	617
12	0	0	0	0	506	619
13	0	0	0	0	507	617
14	0	0	0	0	508	617
15	0	0	0	0	509	617
0	0	0	0	0	510	615
1	0	0	0	0	510	617
2	0	0	0	0	511	617
3	0	0	0	0	511	616
4	0	0	0	0	512	619
5	0	0	0	0	512	617
6	0	0	0	0	512	616
7	0	0	0	0	511	616
8	0	0	0	0	511	614
9	0	0	0	0	511	616
10	0	0	0	0	510	616
11	0	0	0	0	510	616
12	0	0	0	0	509	619
13	0	0	0	0	508	617
14	0	0	0	0	508	617
15	0	0	0	0	508	618
0	0	0	0	0	508	615
1	0	0	0	0	507	617
2	0	0	0	0	508	617
3	0	0	0	0	508	617
4	0	0	0	0	509	619
5	0	0	0	0	510	617
6	0	0	0	0	510	617
7	0	0	0	0	511	617
8	0	0	0	0	511	615
9	0	0	0	0	510	617
10	0	0	0	0	510	617
11	0	0	0	0	510	618
12	0	0	0	0	510	620
13	0	0	0	0	510	617
14	0	0	0	0	508	617
15	0	0	0	0	507	617
0	0	0	0	0	507	614
1	0	0	0	0	506	617
2	0	0	0	0	506	617
3	0	0	0	0	507	617
4	0	0	0	0	506	620
5	0	0	0	0	506	617
6	0	0	0	0	505	617
7	0	0	0	0	505	617
8	0	0	0	0	504	615
9	0	0	0	0	503	617
10	0	0	0	0	501	617
11	0	0	0	0	499	616
12	0	0	0	0	496	620
13	0	0	0	0	494	617
14	0	0	0	0	491	617
15	0	0	0	0	489	617
0	0	0	0	0	486	615
1	0	0	0	0	484	617
2	0	0	0	0	483	618
3	0	0	0	0	480	617
4	0	0	0	0	478	620
5	0	0	0	0	475	617
6	0	0	0	0	471	617
7	0	0	0	0	467	617
8	0	0	0	0	462	615
9	0	0	0	0	455	618
10	0	0	0	0	447	618
11	0	0	0	0	438	617
12	0	0	0	0	428	620
13	0	0	0	0	422	618
14	0	0	0	0	419	618
15	0	0	0	0	417	617
0	0	0	0	0	416	616
1	0	0	0	0	417	617
2	0	0	0	0	419	617
3	0	0	0	0	421	617
4	0	0	0	0	422	620
5	0	0	0	0	426	617
6	0	0	0	0	435	617
7	0	0	0	0	450	617
8	0	0	0	0	471	615
9	0	0	0	0	497	617
10	0	0	0	0	528	617
11	0	0	0	0	561	617
12	0	0	0	0	593	620
13	0	0	0	0	618	616
14	0	0	0	0	638	617
15	0	0	0	0	659	617
0	0	0	0	0	678	615
1	0	0	0	0	693	617
2	0	0	0	0	703	617
3	0	0	0	0	702	617
4	0	0	0	0	696	620
5	0	0	0	0	687	617
6	0	0	0	0	675	617
7	0	0	0	0	662	617
8	0	0	0	0	649	615
9	0	0	0	0	636	617
10	0	0	0	0	624	617
11	0	0	0	0	613	617
12	0	0	0	0	604	620
13	0	0	0	0	596	617
14	0	0	0	0	588	617
15	0	0	0	0	580	617
0	0	0	0	0	572	614
1	0	0	0	0	563	616
2	0	0	0	0	556	617
3	0	0	0	0	548	617
4	0	0	0	0	542	619
5	0	0	0	0	537	617
6	0	0	0	0	531	617
7	0	0	0	0	527	617
8	0	0	0	0	523	614
9	0	0	0	0	519	616
10	0	0	0	0	516	617
11	0	0	0	0	513	617
12	0	0	0	0	511	620
13	0	0	0	0	507	617
14	0	0	0	0	503	617
15	0	0	0	0	499	617
0	0	0	0	0	496	615
1	0	0	0	0	492	617
2	0	0	0	0	489	617
3	0	0	0	0	487	617
4	0	0	0	0	485	620
5	0	0	0	0	484	617
6	0	0	0	0	483	617
7	0	0	0	0	483	618
8	0	0	0	0	483	615
9	0	0	0	0	484	617
10	0	0	0	0	483	617
11	0	0	0	0	483	617
12	0	0	0	0	483	620
13	0	0	0	0	483	617
14	0	0	0	0	483	618
15	0	0	0	0	483	617
0	0	0	0	0	483	615
1	0	0	0	0	482	618
2	0	0	0	0	482	617
3	0	0	0	0	481	617
4	0	0	0	0	480	620
5	0	0	0	0	480	617
6	0	0	0	0	480	618
7	0	0	0	0	480	618
8	0	0	0	0	480	615
9	0	0	0	0	481	618
10	0	0	0	0	481	617
11	0	0	0	0	482	617
12	0	0	0	0	483	620
13	0	0	0	0	484	617
14	0	0	0	0	485	618
15	0	0	0	0	484	617
0	0	0	0	0	484	614
1	0	0	0	0	484	617
2	0	0	0	0	484	617
3	0	0	0	0	484	617
4	0	0	0	0	484	619
5	0	0	0	0	483	617
6	0	0	0	0	483	617
7	0	0	0	0	483	617
8	0	0	0	0	482	615
9	0	0	0	0	482	617
10	0	0	0	0	482	617
11	0	0	0	0	482	617
12	0	0	0	0	483	619
13	0	0	0	0	483	617
14	0	0	0	0	483	617
15	0	0	0	0	483	617
0	0	0	0	0	484	615
1	0	0	0	0	485	617
2	0	0	0	0	486	617
3	0	0	0	0	487	617
4	0	0	0	0	487	620
5	0	0	0	0	487	617
6	0	0	0	0	487	617
7	0	0	0	0	487	617
8	0	0	0	0	487	615
9	0	0	0	0	487	618
10	0	0	0	0	487	617
11	0	0	0	0	486	617
12	0	0	0	0	486	620
13	0	0	0	0	487	617
14	0	0	0	0	487	617
15	0	0	0	0	487	617
0	0	0	0	0	488	615
1	0	0	0	0	488	618
2	0	0	0	0	488	618
3	0	0	0	0	489	618
4	0	0	0	0	489	621
5	0	0	0	0	489	618
6	0	0	0	0	489	619
7	0	0	0	0	489	619
8	0	0	0	0	489	616
9	0	0	0	0	489	619
10	0	0	0	0	489	619
11	0	0	0	0	490	619
12	0	0	0	0	490	620
13	0	0	0	0	489	619
14	0	0	0	0	489	619
15	0	0	0	0	489	619
0	0	0	0	0	489	616
1	0	0	0	0	488	619
2	0	0	0	0	487	618
3	0	0	0	0	487	617
4	0	0	0	0	487	619
5	0	0	0	0	487	617
6	0	0	0	0	487	617
7	0	0	0	0	487	617
8	0	0	0	0	487	615
9	0	0	0	0	487	617
10	0	0	0	0	487	616
11	0	0	0	0	488	617
12	0	0	0	0	487	619
13	0	0	0	0	487	617
14	0	0	0	0	487	617
15	0	0	0	0	486	616
0	0	0	0	0	486	614
1	0	0	0	0	485	616
2	0	0	0	0	484	616
3	0	0	0	0	483	617
4	0	0	0	0	483	620
5	0	0	0	0	482	616
6	0	0	0	0	482	616
7	0	0	0	0	482	617
8	0	0	0	0	481	614
9	0	0	0	0	481	616
10	0	0	0	0	481	616
11	0	0	0	0	482	615
12	0	0	0	0	482	619
13	0	0	0	0	482	615
14	0	0	0	0	482	616
15	0	0	0	0	483	616
0	0	0	0	0	482	614
1	0	0	0	0	482	617
2	0	0	0	0	481	616
3	0	0	0	0	481	616
4	0	0	0	0	480	619
5	0	0	0	0	479	616
6	0	0	0	0	478	617
7	0	0	0	0	477	616
8	0	0	0	0	477	614
9	0	0	0	0	476	616
10	0	0	0	0	475	617
11	0	0	0	0	473	617
12	0	0	0	0	473	620
13	0	0	0	0	472	618
14	0	0	0	0	472	618
15	0	0	0	0	472	617
0	0	0	0	0	473	615
1	0	0	0	0	472	617
2	0	0	0	0	472	618
3	0	0	0	0	471	618
4	0	0	0	0	470	621
5	0	0	0	0	469	618
6	0	0	0	0	467	618
7	0	0	0	0	467	619
8	0	0	0	0	466	616
9	0	0	0	0	465	619
10	0	0	0	0	464	619
11	0	0	0	0	463	619
12	0	0	0	0	461	621
13	0	0	0	0	460	618
14	0	0	0	0	460	619
15	0	0	0	0	460	619
0	0	0	0	0	460	616
1	0	0	0	0	459	619
2	0	0	0	0	459	619
3	0	0	0	0	459	619
4	0	0	0	0	459	621
5	0	0	0	0	459	619
6	0	0	0	0	459	619
7	0	0	0	0	458	619
8	0	0	0	0	458	616
9	0	0	0	0	458	619
10	0	0	0	0	457	619
11	0	0	0	0	456	619
12	0	0	0	0	456	621
13	0	0	0	0	455	619
14	0	0	0	0	455	619
15	0	0	0	0	455	618
0	0	0	0	0	455	615
1	0	0	0	0	455	618
2	0	0	0	0	456	618
3	0	0	0	0	455	617
4	0	0	0	0	455	620
5	0	0	0	0	456	617
6	0	0	0	0	457	617
7	0	0	0	0	458	617
8	0	0	0	0	459	614
9	0	0	0	0	460	617
10	0	0	0	0	462	617
11	0	0	0	0	462	617
12	0	0	0	0	463	619
13	0	0	0	0	463	617
14	0	0	0	0	463	616
15	0	0	0	0	464	617
0	0	0	0	0	465	614
1	0	0	0	0	465	616
2	0	0	0	0	466	616
3	0	0	0	0	467	616
4	0	0	0	0	467	619
5	0	0	0	0	468	617
6	0	0	0	0	470	616
7	0	0	0	0	471	617
8	0	0	0	0	472	615
9	0	0	0	0	473	617
10	0	0	0	0	476	617
11	0	0	0	0	477	616
12	0	0	0	0	480	619
13	0	0	0	0	483	617
14	0	0	0	0	485	616
15	0	0	0	0	485	617
0	0	0	0	0	487	614
1	0	0	0	0	489	616
2	0	0	0	0	491	615
3	0	0	0	0	494	616
4	0	0	0	0	495	618
5	0	0	0	0	497	616
6	0	0	0	0	499	615
7	0	0	0	0	501	616
8	0	0	0	0	503	614
9	0	0	0	0	505	616
10	0	0	0	0	507	616
11	0	0	0	0	510	616
12	0	0	0	0	512	619
13	0	0	0	0	515	617
14	0	0	0	0	517	617
15	0	0	0	0	519	617
0	0	0	0	0	522	614
1	0	0	0	0	525	617
2	0	0	0	0	527	617
3	0	0	0	0	529	617
4	0	0	0	0	531	620
5	0	0	0	0	533	617
6	0	0	0	0	535	618
7	0	0	0	0	536	618
8	0	0	0	0	538	615
9	0	0	0	0	539	617
10	0	0	0	0	540	617
11	0	0	0	0	540	616
12	0	0	0	0	542	620
13	0	0	0	0	543	618
14	0	0	0	0	545	618
15	0	0	0	0	547	618
0	0	0	0	0	550	616
1	0	0	0	0	551	619
2	0	0	0	0	553	618
3	0	0	0	0	555	618
4	0	0	0	0	557	620
5	0	0	0	0	558	618
6	0	0	0	0	559	618
7	0	0	0	0	560	617
8	0	0	0	0	561	615
9	0	0	0	0	563	617
10	0	0	0	0	563	617
11	0	0	0	0	563	617
12	0	0	0	0	564	620
13	0	0	0	0	564	618
14	0	0	0	0	564	617
15	0	0	0	0	565	618
0	0	0	0	0	566	615
1	0	0	0	0	566	618
2	0	0	0	0	566	618
3	0	0	0	0	567	618
4	0	0	0	0	566	620
5	0	0	0	0	568	619
6	0	0	0	0	568	617
7	0	0	0	0	568	617
8	0	0	0	0	569	615
9	0	0	0	0	569	616
10	0	0	0	0	568	616
11	0	0	0	0	569	617
12	0	0	0	0	569	619
13	0	0	0	0	568	617
14	0	0	0	0	568	617
15	0	0	0	0	568	617
0	0	0	0	0	567	615
1	0	0	0	0	567	617
2	0	0	0	0	566	617
3	0	0	0	0	565	617
4	0	0	0	0	564	619
5	0	0	0	0	564	616
6	0	0	0	0	564	616
7	0	0	0	0	563	617
8	0	0	0	0	563	614
9	0	0	0	0	563	617
10	0	0	0	0	563	616
11	0	0	0	0	563	616
12	0	0	0	0	563	619
13	0	0	0	0	563	616
14	0	0	0	0	564	616
15	0	0	0	0	564	616
0	0	0	0	0	564	614
1	0	0	0	0	563	615
2	0	0	0	0	562	615
3	0	0	0	0	562	616
4	0	0	0	0	561	618
5	0	0	0	0	560	615
6	0	0	0	0	559	615
7	0	0	0	0	557	615
8	0	0	0	0	556	613
9	0	0	0	0	557	616
10	0	0	0	0	557	615
11	0	0	0	0	556	616
12	0	0	0	0	556	619
13	0	0	0	0	556	616
14	0	0	0	0	556	616
15	0	0	0	0	556	616
0	0	0	0	0	556	614
1	0	0	0	0	557	616
2	0	0	0	0	557	617
3	0	0	0	0	556	616
4	0	0	0	0	556	619
5	0	0	0	0	556	616
6	0	0	0	0	555	616
7	0	0	0	0	553	616
8	0	0	0	0	552	614
9	0	0	0	0	551	616
10	0	0	0	0	551	616
11	0	0	0	0	550	617
12	0	0	0	0	550	619
13	0	0	0	0	549	617
14	0	0	0	0	548	617
15	0	0	0	0	548	617
0	0	0	0	0	547	615
1	0	0	0	0	546	618
2	0	0	0	0	547	617
3	0	0	0	0	546	617
4	0	0	0	0	546	620
5	0	0	0	0	546	617
6	0	0	0	0	546	618
7	0	0	0	0	546	618
8	0	0	0	0	546	615
9	0	0	0	0	545	618
10	0	0	0	0	544	618
11	0	0	0	0	544	617
12	0	0	0	0	543	620
13	0	0	0	0	542	618
14	0	0	0	0	542	618
15	0	0	0	0	542	618
0	0	0	0	0	540	615
1	0	0	0	0	540	617
2	0	0	0	0	540	618
3	0	0	0	0	539	617
4	0	0	0	0	539	620
5	0	0	0	0	540	618
6	0	0	0	0	540	619
7	0	0	0	0	540	619
8	0	0	0	0	540	616
9	0	0	0	0	540	618
10	0	0	0	0	539	618
11	0	0	0	0	538	618
12	0	0	0	0	539	621
13	0	0	0	0	538	618
14	0	0	0	0	537	619
15	0	0	0	0	537	618
0	0	0	0	0	536	615
1	0	0	0	0	536	618
2	0	0	0	0	535	618
3	0	0	0	0	534	618
4	0	0	0	0	534	621
5	0	0	0	0	533	619
6	0	0	0	0	533	618
7	0	0	0	0	532	619
8	0	0	0	0	532	616
9	0	0	0	0	532	617
10	0	0	0	0	533	618
11	0	0	0	0	533	617
12	0	0	0	0	533	620
13	0	0	0	0	534	617
14	0	0	0	0	533	617
15	0	0	0	0	532	617
0	0	0	0	0	532	615
1	0	0	0	0	530	617
2	0	0	0	0	531	617
3	0	0	0	0	531	617
4	0	0	0	0	531	619
5	0	0	0	0	530	617
6	0	0	0	0	528	617
7	0	0	0	0	527	617
8	0	0	0	0	526	615
9	0	0	0	0	525	617
10	0	0	0	0	525	616
11	0	0	0	0	526	616
12	0	0	0	0	526	619
13	0	0	0	0	526	617
14	0	0	0	0	526	616
15	0	0	0	0	527	617
0	0	0	0	0	527	614
1	0	0	0	0	527	617
2	0	0	0	0	527	617
3	0	0	0	0	527	616
4	0	0	0	0	527	620
5	0	0	0	0	527	616
6	0	0	0	0	527	617
7	0	0	0	0	526	616
8	0	0	0	0	526	614
9	0	0	0	0	526	617
10	0	0	0	0	525	616
11	0	0	0	0	524	616
12	0	0	0	0	523	619
13	0	0	0	0	523	616
14	0	0	0	0	524	616
15	0	0	0	0	523	616
0	0	0	0	0	522	614
1	0	0	0	0	521	616
2	0	0	0	0	521	616
3	0	0	0	0	521	616
4	0	0	0	0	522	619
5	0	0	0	0	522	616
6	0	0	0	0	523	616
7	0	0	0	0	524	616
8	0	0	0	0	524	615
9	0	0	0	0	524	617
10	0	0	0	0	524	617
11	0	0	0	0	523	616
12	0	0	0	0	523	620
13	0	0	0	0	523	617
14	0	0	0	0	522	618
15	0	0	0	0	521	617
0	0	0	0	0	521	615
1	0	0	0	0	521	617
2	0	0	0	0	520	617
3	0	0	0	0	520	616
4	0	0	0	0	520	620
5	0	0	0	0	520	617
6	0	0	0	0	520	616
7	0	0	0	0	520	617
8	0	0	0	0	521	614
9	0	0	0	0	521	617
10	0	0	0	0	521	617
11	0	0	0	0	521	617
12	0	0	0	0	521	620
13	0	0	0	0	521	617
14	0	0	0	0	521	617
15	0	0	0	0	521	617
0	0	0	0	0	521	615
1	0	0	0	0	520	617
2	0	0	0	0	519	617
3	0	0	0	0	519	617
4	0	0	0	0	519	620
5	0	0	0	0	519	617
6	0	0	0	0	519	617
7	0	0	0	0	519	617
8	0	0	0	0	519	614
9	0	0	0	0	519	617
10	0	0	0	0	519	617
11	0	0	0	0	519	617
12	0	0	0	0	520	620
13	0	0	0	0	520	618
14	0	0	0	0	520	617
15	0	0	0	0	521	618
0	0	0	0	0	520	615
1	0	0	0	0	520	617
2	0	0	0	0	519	618
3	0	0	0	0	519	617
4	0	0	0	0	518	620
5	0	0	0	0	517	618
6	0	0	0	0	516	617
7	0	0	0	0	516	618
8	0	0	0	0	515	616
9	0	0	0	0	516	618
10	0	0	0	0	515	618
11	0	0	0	0	515	618
12	0	0	0	0	515	621
13	0	0	0	0	516	617
14	0	0	0	0	516	618
15	0	0	0	0	516	617
0	0	0	0	0	517	614
1	0	0	0	0	517	617
2	0	0	0	0	518	617
3	0	0	0	0	518	617
4	0	0	0	0	518	620
5	0	0	0	0	518	618
6	0	0	0	0	518	617
7	0	0	0	0	517	618
8	0	0	0	0	517	615
9	0	0	0	0	516	617
10	0	0	0	0	515	617
11	0	0	0	0	514	616
12	0	0	0	0	514	620
13	0	0	0	0	513	617
14	0	0	0	0	513	616
15	0	0	0	0	512	617
0	0	0	0	0	512	614
1	0	0	0	0	512	616
2	0	0	0	0	513	616
3	0	0	0	0	513	616
4	0	0	0	0	514	619
5	0	0	0	0	515	616
6	0	0	0	0	515	617
7	0	0	0	0	515	616
8	0	0	0	0	515	614
9	0	0	0	0	515	616
10	0	0	0	0	515	616
11	0	0	0	0	515	616
12	0	0	0	0	513	619
13	0	0	0	0	512	616
14	0	0	0	0	512	617
15	0	0	0	0	511	617
0	0	0	0	0	511	614
1	0	0	0	0	511	616
2	0	0	0	0	511	617
3	0	0	0	0	511	616
4	0	0	0	0	510	620
5	0	0	0	0	510	617
6	0	0	0	0	511	617
7	0	0	0	0	511	617
8	0	0	0	0	511	615
9	0	0	0	0	512	617
10	0	0	0	0	512	617
11	0	0	0	0	511	618
12	0	0	0	0	511	619
13	0	0	0	0	511	617
14	0	0	0	0	511	617
15	0	0	0	0	511	617
0	0	0	0	0	511	615
1	0	0	0	0	511	617
2	0	0	0	0	511	617
3	0	0	0	0	510	617
4	0	0	0	0	510	620
5	0	0	0	0	510	617
6	0	0	0	0	509	617
7	0	0	0	0	509	617
8	0	0	0	0	510	615
9	0	0	0	0	509	617
10	0	0	0	0	509	617
11	0	0	0	0	510	617
12	0	0	0	0	510	620
13	0	0	0	0	511	617
14	0	0	0	0	512	617
15	0	0	0	0	512	618
0	0	0	0	0	513	615
1	0	0	0	0	513	617
2	0	0	0	0	512	617
3	0	0	0	0	512	617
4	0	0	0	0	512	620
5	0	0	0	0	512	617
6	0	0	0	0	512	617
7	0	0	0	0	511	617
8	0	0	0	0	512	615
9	0	0	0	0	511	617
10	0	0	0	0	511	617
11	0	0	0	0	512	617
12	0	0	0	0	511	620
13	0	0	0	0	511	617
14	0	0	0	0	511	617
15	0	0	0	0	511	618
0	0	0	0	0	511	616
1	0	0	0	0	512	617
2	0	0	0	0	512	617
3	0	0	0	0	513	617
4	0	0	0	0	513	620
5	0	0	0	0	513	617
6	0	0	0	0	513	618
7	0	0	0	0	513	618
8	0	0	0	0	513	615
9	0	0	0	0	513	617
10	0	0	0	0	512	617
11	0	0	0	0	511	617
12	0	0	0	0	510	620
13	0	0	0	0	510	618
14	0	0	0	0	510	618
15	0	0	0	0	511	618
0	0	0	0	0	510	615
1	0	0	0	0	510	618
2	0	0	0	0	509	618
3	0	0	0	0	510	617
4	0	0	0	0	511	620
5	0	0	0	0	511	617
6	0	0	0	0	512	618
7	0	0	0	0	512	617
8	0	0	0	0	511	615
9	0	0	0	0	511	618
10	0	0	0	0	511	617
11	0	0	0	0	511	617
12	0	0	0	0	510	620
13	0	0	0	0	509	617
14	0	0	0	0	509	618
15	0	0	0	0	508	618
0	0	0	0	0	508	615
1	0	0	0	0	508	617
2	0	0	0	0	508	618
3	0	0	0	0	509	618
4	0	0	0	0	509	621
5	0	0	0	0	509	618
6	0	0	0	0	510	618
7	0	0	0	0	510	618
8	0	0	0	0	511	615
9	0	0	0	0	512	617
10	0	0	0	0	512	617
11	0	0	0	0	512	618
12	0	0	0	0	512	620
13	0	0	0	0	512	618
14	0	0	0	0	511	618
15	0	0	0	0	511	619
0	0	0	0	0	511	615
1	0	0	0	0	510	618
2	0	0	0	0	510	618
3	0	0	0	0	510	618
4	0	0	0	0	509	620
5	0	0	0	0	509	619
6	0	0	0	0	509	618
7	0	0	0	0	508	619
8	0	0	0	0	509	615
9	0	0	0	0	510	618
10	0	0	0	0	510	618
11	0	0	0	0	510	618
12	0	0	0	0	511	620
13	0	0	0	0	512	618
14	0	0	0	0	513	618
15	0	0	0	0	513	617
0	0	0	0	0	512	615
1	0	0	0	0	512	617
2	0	0	0	0	512	617
3	0	0	0	0	512	617
4	0	0	0	0	512	619
5	0	0	0	0	511	617
6	0	0	0	0	511	617
7	0	0	0	0	511	617
8	0	0	0	0	511	614
9	0	0	0	0	511	617
10	0	0	0	0	511	617
11	0	0	0	0	510	617
12	0	0	0	0	512	619
13	0	0	0	0	512	617
14	0	0	0	0	513	617
15	0	0	0	0	514	617
0	0	0	0	0	515	615
1	0	0	0	0	515	617
2	0	0	0	0	516	617
3	0	0	0	0	516	617
4	0	0	0	0	515	619
5	0	0	0	0	515	617
6	0	0	0	0	515	617
7	0	0	0	0	515	617
8	0	0	0	0	515	615
9	0	0	0	0	515	617
10	0	0	0	0	515	616
11	0	0	0	0	514	616
12	0	0	0	0	515	620
13	0	0	0	0	515	617
14	0	0	0	0	515	617
15	0	0	0	0	514	617
0	0	0	0	0	515	615
1	0	0	0	0	515	617
2	0	0	0	0	515	616
3	0	0	0	0	516	616
4	0	0	0	0	518	619
5	0	0	0	0	517	616
6	0	0	0	0	518	617
7	0	0	0	0	517	617
8	0	0	0	0	517	615
9	0	0	0	0	517	617
10	0	0	0	0	516	617
11	0	0	0	0	516	617
12	0	0	0	0	516	619
13	0	0	0	0	515	617
14	0	0	0	0	514	616
15	0	0	0	0	513	616
0	0	0	0	0	512	615
1	0	0	0	0	513	617
2	0	0	0	0	513	617
3	0	0	0	0	513	617
4	0	0	0	0	514	619
5	0	0	0	0	514	617
6	0	0	0	0	514	617
7	0	0	0	0	515	617
8	0	0	0	0	515	615
9	0	0	0	0	515	617
10	0	0	0	0	514	617
11	0	0	0	0	514	617
12	0	0	0	0	514	620
13	0	0	0	0	513	617
14	0	0	0	0	513	618
15	0	0	0	0	512	618
0	0	0	0	0	511	615
1	0	0	0	0	510	617
2	0	0	0	0	510	617
3	0	0	0	0	508	617
4	0	0	0	0	508	620
5	0	0	0	0	508	617
6	0	0	0	0	507	617
7	0	0	0	0	507	617
8	0	0	0	0	506	615
9	0	0	0	0	507	617
10	0	0	0	0	507	617
11	0	0	0	0	508	617
12	0	0	0	0	509	620
13	0	0	0	0	510	617
14	0	0	0	0	511	617
15	0	0	0	0	512	617
0	0	0	0	0	512	615
1	0	0	0	0	513	616
2	0	0	0	0	513	616
3	0	0	0	0	513	617
4	0	0	0	0	513	619
5	0	0	0	0	512	617
6	0	0	0	0	512	616
7	0	0	0	0	511	616
8	0	0	0	0	511	614
9	0	0	0	0	511	616
10	0	0	0	0	511	616
11	0	0	0	0	511	616
12	0	0	0	0	511	619
13	0	0	0	0	512	617
14	0	0	0	0	512	616
15	0	0	0	0	512	617
0	0	0	0	0	513	614
1	0	0	0	0	514	616
2	0	0	0	0	515	616
3	0	0	0	0	516	615
4	0	0	0	0	516	618
5	0	0	0	0	516	615
6	0	0	0	0	516	616
7	0	0	0	0	516	616
8	0	0	0	0	516	614
9	0	0	0	0	516	616
10	0	0	0	0	516	616
11	0	0	0	0	515	616
12	0	0	0	0	515	619
13	0	0	0	0	515	617
14	0	0	0	0	515	617
15	0	0	0	0	515	617
0	0	0	0	0	515	614
1	0	0	0	0	516	617
2	0	0	0	0	517	617
3	0	0	0	0	518	617
4	0	0	0	0	519	620
5	0	0	0	0	519	617
6	0	0	0	0	519	618
7	0	0	0	0	520	618
8	0	0	0	0	521	615
9	0	0	0	0	521	619
10	0	0	0	0	521	619
11	0	0	0	0	522	619
12	0	0	0	0	522	621
13	0	0	0	0	522	619
14	0	0	0	0	521	619
15	0	0	0	0	521	619
0	0	0	0	0	521	616
1	0	0	0	0	519	619
2	0	0	0	0	519	618
3	0	0	0	0	518	618
4	0	0	0	0	518	620
5	0	0	0	0	518	619
6	0	0	0	0	518	619
7	0	0	0	0	517	619
8	0	0	0	0	517	616
9	0	0	0	0	517	618
10	0	0	0	0	518	618
11	0	0	0	0	518	618
12	0	0	0	0	518	621
13	0	0	0	0	518	619
14	0	0	0	0	518	617
15	0	0	0	0	518	618
0	0	0	0	0	517	615
1	0	0	0	0	518	617
2	0	0	0	0	518	617
3	0	0	0	0	518	617
4	0	0	0	0	518	620
5	0	0	0	0	518	617
6	0	0	0	0	518	617
7	0	0	0	0	517	617
8	0	0	0	0	517	614
9	0	0	0	0	517	616
10	0	0	0	0	517	617
11	0	0	0	0	517	617
12	0	0	0	0	517	619
13	0	0	0	0	518	616
14	0	0	0	0	518	616
15	0	0	0	0	519	616
0	0	0	0	0	518	613
1	0	0	0	0	519	616
2	0	0	0	0	518	615
3	0	0	0	0	518	616
4	0	0	0	0	517	619
5	0	0	0	0	516	617
6	0	0	0	0	515	617
7	0	0	0	0	514	616
8	0	0	0	0	514	614
9	0	0	0	0	514	616
10	0	0	0	0	513	616
11	0	0	0	0	514	616
12	0	0	0	0	514	619
13	0	0	0	0	514	616
14	0	0	0	0	514	617
15	0	0	0	0	514	617
0	0	0	0	0	515	614
1	0	0	0	0	515	616
2	0	0	0	0	515	617
3	0	0	0	0	515	616
4	0	0	0	0	514	619
5	0	0	0	0	513	616
6	0	0	0	0	511	616
7	0	0	0	0	508	617
8	0	0	0	0	505	614
9	0	0	0	0	502	617
10	0	0	0	0	499	616
11	0	0	0	0	496	617
12	0	0	0	0	492	619
13	0	0	0	0	490	617
14	0	0	0	0	487	617
15	0	0	0	0	485	617
0	0	0	0	0	483	615
1	0	0	0	0	482	617
2	0	0	0	0	479	617
3	0	0	0	0	476	617
4	0	0	0	0	472	620
5	0	0	0	0	467	618
6	0	0	0	0	460	618
7	0	0	0	0	451	618
8	0	0	0	0	442	615
9	0	0	0	0	432	618
10	0	0	0	0	424	619
11	0	0	0	0	419	619
12	0	0	0	0	415	620
13	0	0	0	0	414	618
14	0	0	0	0	415	618
15	0	0	0	0	418	618
0	0	0	0	0	420	615
1	0	0	0	0	421	618
2	0	0	0	0	425	617
3	0	0	0	0	433	617
4	0	0	0	0	446	619
5	0	0	0	0	464	617
6	0	0	0	0	487	617
7	0	0	0	0	513	617
8	0	0	0	0	542	614
9	0	0	0	0	575	618
10	0	0	0	0	606	618
11	0	0	0	0	631	617
12	0	0	0	0	652	620
13	0	0	0	0	673	617
14	0	0	0	0	692	617
15	0	0	0	0	707	617
0	0	0	0	0	715	615
1	0	0	0	0	713	617
2	0	0	0	0	707	617
3	0	0	0	0	700	616
4	0	0	0	0	692	619
5	0	0	0	0	682	617
6	0	0	0	0	673	616
7	0	0	0	0	660	617
8	0	0	0	0	646	614
9	0	0	0	0	632	616
10	0	0	0	0	620	617
11	0	0	0	0	611	616
12	0	0	0	0	603	619
13	0	0	0	0	596	616
14	0	0	0	0	589	616
15	0	0	0	0	581	616
0	0	0	0	0	572	613
1	0	0	0	0	563	616
2	0	0	0	0	554	615
3	0	0	0	0	545	616
4	0	0	0	0	536	619
5	0	0	0	0	528	616
6	0	0	0	0	519	616
7	0	0	0	0	512	616
8	0	0	0	0	505	614
9	0	0	0	0	499	616
10	0	0	0	0	494	616
11	0	0	0	0	488	616
12	0	0	0	0	484	619
13	0	0	0	0	481	617
14	0	0	0	0	479	616
15	0	0	0	0	478	616
0	0	0	0	0	477	614
1	0	0	0	0	477	616
2	0	0	0	0	476	616
3	0	0	0	0	476	616
4	0	0	0	0	476	619
5	0	0	0	0	476	616
6	0	0	0	0	476	616
7	0	0	0	0	476	616
8	0	0	0	0	475	614
9	0	0	0	0	474	617
10	0	0	0	0	473	617
11	0	0	0	0	473	617
12	0	0	0	0	473	619
13	0	0	0	0	472	617
14	0	0	0	0	472	617
15	0	0	0	0	473	617
0	0	0	0	0	473	615
1	0	0	0	0	473	617
2	0	0	0	0	473	617
3	0	0	0	0	473	617
4	0	0	0	0	474	620
5	0	0	0	0	475	617
6	0	0	0	0	475	618
7	0	0	0	0	475	617
8	0	0	0	0	475	615
9	0	0	0	0	475	618
10	0	0	0	0	475	617
11	0	0	0	0	475	617
12	0	0	0	0	476	620
13	0	0	0	0	475	617
14	0	0	0	0	475	617
15	0	0	0	0	475	617
0	0	0	0	0	476	615
1	0	0	0	0	476	618
2	0	0	0	0	476	618
3	0	0	0	0	476	618
4	0	0	0	0	476	620
5	0	0	0	0	475	618
6	0	0	0	0	476	618
7	0	0	0	0	477	618
8	0	0	0	0	478	615
9	0	0	0	0	479	618
10	0	0	0	0	479	618
11	0	0	0	0	480	617
12	0	0	0	0	480	620
13	0	0	0	0	480	618
14	0	0	0	0	480	618
15	0	0	0	0	479	618
0	0	0	0	0	480	615
1	0	0	0	0	480	618
2	0	0	0	0	479	618
3	0	0	0	0	479	618
4	0	0	0	0	479	620
5	0	0	0	0	478	618
6	0	0	0	0	479	618
7	0	0	0	0	478	619
8	0	0	0	0	479	615
9	0	0	0	0	479	617
10	0	0	0	0	479	618
11	0	0	0	0	480	617
12	0	0	0	0	480	620
13	0	0	0	0	480	618
14	0	0	0	0	481	618
15	0	0	0	0	481	617
0	0	0	0	0	481	615
1	0	0	0	0	481	618
2	0	0	0	0	481	618
3	0	0	0	0	481	617
4	0	0	0	0	480	620
5	0	0	0	0	480	617
6	0	0	0	0	480	617
7	0	0	0	0	480	617
8	0	0	0	0	479	615
9	0	0	0	0	479	618
10	0	0	0	0	479	617
11	0	0	0	0	479	617
12	0	0	0	0	479	620
13	0	0	0	0	479	617
14	0	0	0	0	479	617
15	0	0	0	0	480	617
0	0	0	0	0	480	615
1	0	0	0	0	480	617
2	0	0	0	0	480	617
3	0	0	0	0	480	616
4	0	0	0	0	480	619
5	0	0	0	0	479	617
6	0	0	0	0	479	617
7	0	0	0	0	479	617
8	0	0	0	0	478	615
9	0	0	0	0	478	616
10	0	0	0	0	477	617
11	0	0	0	0	478	616
12	0	0	0	0	478	619
13	0	0	0	0	477	617
14	0	0	0	0	478	616
15	0	0	0	0	478	616
0	0	0	0	0	478	614
1	0	0	0	0	478	616
2	0	0	0	0	477	616
3	0	0	0	0	476	615
4	0	0	0	0	478	618
5	0	0	0	0	479	616
6	0	0	0	0	479	616
7	0	0	0	0	479	616
8	0	0	0	0	479	614
9	0	0	0	0	479	616
10	0	0	0	0	478	616
11	0	0	0	0	477	616
12	0	0	0	0	475	619
13	0	0	0	0	474	616
14	0	0	0	0	473	616
15	0	0	0	0	472	616
0	0	0	0	0	472	614
1	0	0	0	0	472	616
2	0	0	0	0	471	617
3	0	0	0	0	470	616
4	0	0	0	0	469	619
5	0	0	0	0	470	616
6	0	0	0	0	469	617
7	0	0	0	0	470	617
8	0	0	0	0	470	615
9	0	0	0	0	470	617
10	0	0	0	0	469	617
11	0	0	0	0	469	617
12	0	0	0	0	469	620
13	0	0	0	0	467	618
14	0	0	0	0	468	617
15	0	0	0	0	467	619
0	0	0	0	0	466	615
1	0	0	0	0	465	618
2	0	0	0	0	464	618
3	0	0	0	0	463	618
4	0	0	0	0	463	620
5	0	0	0	0	463	617
6	0	0	0	0	462	618
7	0	0	0	0	462	618
8	0	0	0	0	462	615
9	0	0	0	0	462	618
10	0	0	0	0	462	617
11	0	0	0	0	461	617
12	0	0	0	0	462	620
13	0	0	0	0	462	618
14	0	0	0	0	462	619
15	0	0	0	0	462	619
0	0	0	0	0	462	615
1	0	0	0	0	461	619
2	0	0	0	0	461	619
3	0	0	0	0	461	619
4	0	0	0	0	460	621
5	0	0	0	0	459	619
6	0	0	0	0	458	619
7	0	0	0	0	457	619
8	0	0	0	0	457	617
9	0	0	0	0	457	619
10	0	0	0	0	457	619
11	0	0	0	0	456	619
12	0	0	0	0	456	622
13	0	0	0	0	456	619
14	0	0	0	0	457	619
15	0	0	0	0	457	619
0	0	0	0	0	457	616
1	0	0	0	0	457	619
2	0	0	0	0	458	619
3	0	0	0	0	458	618
4	0	0	0	0	459	620
5	0	0	0	0	459	618
6	0	0	0	0	459	618
7	0	0	0	0	459	618
8	0	0	0	0	459	615
9	0	0	0	0	459	618
10	0	0	0	0	460	617
11	0	0	0	0	460	618
12	0	0	0	0	460	620
13	0	0	0	0	460	618
14	0	0	0	0	460	617
15	0	0	0	0	462	617
0	0	0	0	0	463	615
1	0	0	0	0	463	617
2	0	0	0	0	464	616
3	0	0	0	0	466	616
4	0	0	0	0	467	619
5	0	0	0	0	470	617
6	0	0	0	0	472	616
7	0	0	0	0	473	616
8	0	0	0	0	476	613
9	0	0	0	0	479	615
10	0	0	0	0	480	616
11	0	0	0	0	481	616
12	0	0	0	0	483	618
13	0	0	0	0	484	615
14	0	0	0	0	487	616
15	0	0	0	0	488	615
0	0	0	0	0	490	614
1	0	0	0	0	492	616
2	0	0	0	0	495	615
3	0	0	0	0	497	615
4	0	0	0	0	499	618
5	0	0	0	0	503	616
6	0	0	0	0	506	615
7	0	0	0	0	510	616
8	0	0	0	0	513	614
9	0	0	0	0	515	616
10	0	0	0	0	518	616
11	0	0	0	0	521	616
12	0	0	0	0	524	619
13	0	0	0	0	526	615
14	0	0	0	0	528	616
15	0	0	0	0	531	615
0	0	0	0	0	533	614
1	0	0	0	0	535	616
2	0	0	0	0	536	616
3	0	0	0	0	538	615
4	0	0	0	0	541	618
5	0	0	0	0	543	616
6	0	0	0	0	545	617
7	0	0	0	0	547	617
8	0	0	0	0	549	615
9	0	0	0	0	551	617
10	0	0	0	0	554	616
11	0	0	0	0	556	616
12	0	0	0	0	558	619
13	0	0	0	0	560	617
14	0	0	0	0	561	617
15	0	0	0	0	563	617
0	0	0	0	0	564	615
1	0	0	0	0	565	617
2	0	0	0	0	566	617
3	0	0	0	0	566	618
4	0	0	0	0	566	620
5	0	0	0	0	567	617
6	0	0	0	0	567	617
7	0	0	0	0	568	617
8	0	0	0	0	568	614
9	0	0	0	0	568	616
10	0	0	0	0	569	616
11	0	0	0	0	570	616
12	0	0	0	0	571	619
13	0	0	0	0	572	615
14	0	0	0	0	572	617
15	0	0	0	0	573	616
0	0	0	0	0	574	614
1	0	0	0	0	575	616
2	0	0	0	0	575	616
3	0	0	0	0	575	616
4	0	0	0	0	574	619
5	0	0	0	0	574	617
6	0	0	0	0	574	618
7	0	0	0	0	574	619
8	0	0	0	0	574	617
9	0	0	0	0	574	620
10	0	0	0	0	573	619
11	0	0	0	0	572	619
12	0	0	0	0	571	622
13	0	0	0	0	569	619
14	0	0	0	0	569	619
15	0	0	0	0	569	619
0	0	0	0	0	571	615
1	0	0	0	0	571	618
2	0	0	0	0	571	618
3	0	0	0	0	571	618
4	0	0	0	0	571	620
5	0	0	0	0	571	618
6	0	0	0	0	572	618
7	0	0	0	0	571	617
8	0	0	0	0	570	615
9	0	0	0	0	568	617
10	0	0	0	0	568	617
11	0	0	0	0	567	618
12	0	0	0	0	567	620
13	0	0	0	0	566	618
14	0	0	0	0	564	617
15	0	0	0	0	563	617
0	0	0	0	0	563	616
1	0	0	0	0	563	617
2	0	0	0	0	563	617
3	0	0	0	0	562	617
4	0	0	0	0	561	620
5	0	0	0	0	562	618
6	0	0	0	0	561	617
7	0	0	0	0	561	617
8	0	0	0	0	561	615
9	0	0	0	0	561	617
10	0	0	0	0	561	617
11	0	0	0	0	560	617
12	0	0	0	0	560	619
13	0	0	0	0	560	617
14	0	0	0	0	559	617
15	0	0	0	0	559	616
0	0	0	0	0	558	615
1	0	0	0	0	557	617
2	0	0	0	0	556	617
3	0	0	0	0	555	617
4	0	0	0	0	554	619
5	0	0	0	0	554	617
6	0	0	0	0	554	617
7	0	0	0	0	553	617
8	0	0	0	0	553	615
9	0	0	0	0	552	617
10	0	0	0	0	552	617
11	0	0	0	0	552	617
12	0	0	0	0	552	620
13	0	0	0	0	553	617
14	0	0	0	0	552	617
15	0	0	0	0	551	617
0	0	0	0	0	551	615
1	0	0	0	0	550	617
2	0	0	0	0	550	617
3	0	0	0	0	549	617
4	0	0	0	0	548	620
5	0	0	0	0	547	618
6	0	0	0	0	546	617
7	0	0	0	0	545	617
8	0	0	0	0	545	615
9	0	0	0	0	544	618
10	0	0	0	0	544	617
11	0	0	0	0	545	617
12	0	0	0	0	544	620
13	0	0	0	0	545	618
14	0	0	0	0	545	618
15	0	0	0	0	546	618
0	0	0	0	0	546	615
1	0	0	0	0	546	618
2	0	0	0	0	546	618
3	0	0	0	0	546	617
4	0	0	0	0	546	620
5	0	0	0	0	545	618
6	0	0	0	0	544	617
7	0	0	0	0	544	617
8	0	0	0	0	543	615
9	0	0	0	0	542	618
10	0	0	0	0	541	617
11	0	0	0	0	540	618
12	0	0	0	0	539	620
13	0	0	0	0	538	617
14	0	0	0	0	537	618
15	0	0	0	0	538	618
0	0	0	0	0	538	615
1	0	0	0	0	539	617
2	0	0	0	0	538	618
3	0	0	0	0	538	618
4	0	0	0	0	539	620
5	0	0	0	0	539	618
6	0	0	0	0	538	618
7	0	0	0	0	537	618
8	0	0	0	0	536	615
9	0	0	0	0	536	618
10	0	0	0	0	535	617
11	0	0	0	0	535	618
12	0	0	0	0	534	620
13	0	0	0	0	532	618
14	0	0	0	0	531	617
15	0	0	0	0	531	617
0	0	0	0	0	530	615
1	0	0	0	0	529	617
2	0	0	0	0	529	618
3	0	0	0	0	529	617
4	0	0	0	0	529	619
5	0	0	0	0	530	617
6	0	0	0	0	530	617
7	0	0	0	0	531	618
8	0	0	0	0	531	615
9	0	0	0	0	531	617
10	0	0	0	0	531	617
11	0	0	0	0	531	616
12	0	0	0	0	531	619
13	0	0	0	0	531	617
14	0	0	0	0	529	616
15	0	0	0	0	529	617
0	0	0	0	0	529	614
1	0	0	0	0	528	617
2	0	0	0	0	527	616
3	0	0	0	0	527	616
4	0	0	0	0	526	619
5	0	0	0	0	525	617
6	0	0	0	0	526	616
7	0	0	0	0	526	617
8	0	0	0	0	527	615
9	0	0	0	0	526	617
10	0	0	0	0	527	616
11	0	0	0	0	527	617
12	0	0	0	0	527	620
13	0	0	0	0	527	617
14	0	0	0	0	527	618
15	0	0	0	0	527	618
0	0	0	0	0	527	615
1	0	0	0	0	527	617
2	0	0	0	0	527	617
3	0	0	0	0	527	617
4	0	0	0	0	526	620
5	0	0	0	0	524	618
6	0	0	0	0	523	617
7	0	0	0	0	523	618
8	0	0	0	0	523	615
9	0	0	0	0	522	617
10	0	0	0	0	522	618
11	0	0	0	0	522	618
12	0	0	0	0	522	620
13	0	0	0	0	522	617
14	0	0	0	0	522	618
15	0	0	0	0	522	617
0	0	0	0	0	522	615
1	0	0	0	0	522	618
2	0	0	0	0	522	617
3	0	0	0	0	523	618
4	0	0	0	0	523	620
5	0	0	0	0	523	617
6	0	0	0	0	523	618
7	0	0	0	0	522	617
8	0	0	0	0	522	615
9	0	0	0	0	522	617
10	0	0	0	0	521	617
11	0	0	0	0	520	616
12	0	0	0	0	520	620
13	0	0	0	0	519	617
14	0	0	0	0	519	617
15	0	0	0	0	520	617
0	0	0	0	0	520	615
1	0	0	0	0	520	617
2	0	0	0	0	519	617
3	0	0	0	0	519	617
4	0	0	0	0	519	619
5	0	0	0	0	520	617
6	0	0	0	0	520	616
7	0	0	0	0	520	616
8	0	0	0	0	520	614
9	0	0	0	0	520	616
10	0	0	0	0	520	616
11	0	0	0	0	520	616
12	0	0	0	0	521	619
13	0	0	0	0	520	616
14	0	0	0	0	519	617
15	0	0	0	0	518	616
0	0	0	0	0	517	614
1	0	0	0	0	518	616
2	0	0	0	0	517	616
3	0	0	0	0	516	616
4	0	0	0	0	517	620
5	0	0	0	0	517	617
6	0	0	0	0	518	617
7	0	0	0	0	519	617
8	0	0	0	0	519	615
9	0	0	0	0	518	617
10	0	0	0	0	519	617
11	0	0	0	0	518	618
12	0	0	0	0	517	620
13	0	0	0	0	517	618
14	0	0	0	0	516	617
15	0	0	0	0	516	617
0	0	0	0	0	516	615
1	0	0	0	0	516	617
2	0	0	0	0	515	618
3	0	0	0	0	515	617
4	0	0	0	0	514	620
5	0	0	0	0	514	617
6	0	0	0	0	515	617
7	0	0	0	0	514	617
8	0	0	0	0	514	614
9	0	0	0	0	513	617
10	0	0	0	0	514	616
11	0	0	0	0	515	617
12	0	0	0	0	515	619
13	0	0	0	0	516	617
14	0	0	0	0	516	617
15	0	0	0	0	517	616
0	0	0	0	0	517	614
1	0	0	0	0	516	617
2	0	0	0	0	516	617
3	0	0	0	0	515	616
4	0	0	0	0	514	619
5	0	0	0	0	513	617
6	0	0	0	0	512	617
7	0	0	0	0	512	617
8	0	0	0	0	512	615
9	0	0	0	0	512	617
10	0	0	0	0	512	617
11	0	0	0	0	512	617
12	0	0	0	0	512	620
13	0	0	0	0	513	617
14	0	0	0	0	514	617
15	0	0	0	0	514	617
0	0	0	0	0	515	616
1	0	0	0	0	514	618
2	0	0	0	0	515	618
3	0	0	0	0	515	618
4	0	0	0	0	514	620
5	0	0	0	0	514	619
6	0	0	0	0	513	618
7	0	0	0	0	513	618
8	0	0	0	0	513	615
9	0	0	0	0	512	618
10	0	0	0	0	512	618
11	0	0	0	0	510	618
12	0	0	0	0	511	620
13	0	0	0	0	511	619
14	0	0	0	0	511	619
15	0	0	0	0	510	618
0	0	0	0	0	510	615
1	0	0	0	0	511	618
2	0	0	0	0	511	618
3	0	0	0	0	511	617
4	0	0	0	0	512	619
5	0	0	0	0	512	617
6	0	0	0	0	511	617
7	0	0	0	0	512	616
8	0	0	0	0	512	614
9	0	0	0	0	512	616
10	0	0	0	0	512	616
11	0	0	0	0	511	616
12	0	0	0	0	511	618
13	0	0	0	0	511	616
14	0	0	0	0	510	616
15	0	0	0	0	510	615
0	0	0	0	0	509	612
1	0	0	0	0	510	613
2	0	0	0	0	509	613
3	0	0	0	0	509	611
4	0	0	0	0	509	614
5	0	0	0	0	509	611
6	0	0	0	0	508	611
7	0	0	0	0	510	613
8	0	0	0	0	510	611
9	0	0	0	0	510	615
10	0	0	0	0	510	616
11	0	0	0	0	511	616
12	0	0	0	0	511	620
13	0	0	0	0	511	618
14	0	0	0	0	510	619
15	0	0	0	0	510	618
0	0	0	0	0	510	615
1	0	0	0	0	509	618
2	0	0	0	0	508	618
3	0	0	0	0	508	617
4	0	0	0	0	507	620
5	0	0	0	0	507	617
6	0	0	0	0	507	617
7	0	0	0	0	508	617
8	0	0	0	0	508	614
9	0	0	0	0	508	616
10	0	0	0	0	507	617
11	0	0	0	0	508	617
12	0	0	0	0	508	620
13	0	0	0	0	509	618
14	0	0	0	0	510	617
15	0	0	0	0	510	617
0	0	0	0	0	510	614
1	0	0	0	0	509	615
2	0	0	0	0	510	615
3	0	0	0	0	509	615
4	0	0	0	0	508	618
5	0	0	0	0	508	616
6	0	0	0	0	507	617
7	0	0	0	0	506	617
8	0	0	0	0	506	615
9	0	0	0	0	505	618
10	0	0	0	0	506	619
11	0	0	0	0	505	618
12	0	0	0	0	505	620
13	0	0	0	0	505	618
14	0	0	0	0	506	619
15	0	0	0	0	506	619
0	0	0	0	0	508	616
1	0	0	0	0	507	619
2	0	0	0	0	508	619
3	0	0	0	0	508	619
4	0	0	0	0	508	621
5	0	0	0	0	508	618
6	0	0	0	0	507	618
7	0	0	0	0	507	619
8	0	0	0	0	507	616
9	0	0	0	0	506	619
10	0	0	0	0	505	618
11	0	0	0	0	504	618
12	0	0	0	0	504	620
13	0	0	0	0	504	618
14	0	0	0	0	505	618
15	0	0	0	0	505	618
0	0	0	0	0	505	616
1	0	0	0	0	505	619
2	0	0	0	0	505	620
3	0	0	0	0	505	619
4	0	0	0	0	505	622
5	0	0	0	0	505	619
6	0	0	0	0	505	619
7	0	0	0	0	505	619
8	0	0	0	0	505	617
9	0	0	0	0	504	619
10	0	0	0	0	504	619
11	0	0	0	0	504	619
12	0	0	0	0	503	622
13	0	0	0	0	503	619
14	0	0	0	0	503	619
15	0	0	0	0	503	619
0	0	0	0	0	504	616
1	0	0	0	0	504	620
2	0	0	0	0	504	619
3	0	0	0	0	504	619
4	0	0	0	0	504	622
5	0	0	0	0	505	620
6	0	0	0	0	505	620
7	0	0	0	0	505	620
8	0	0	0	0	505	617
9	0	0	0	0	506	619
10	0	0	0	0	507	619
11	0	0	0	0	506	619
12	0	0	0	0	506	621
13	0	0	0	0	506	619
14	0	0	0	0	505	619
15	0	0	0	0	505	619
0	0	0	0	0	505	616
1	0	0	0	0	504	619
2	0	0	0	0	504	619
3	0	0	0	0	504	619
4	0	0	0	0	504	621
5	0	0	0	0	504	619
6	0	0	0	0	503	619
7	0	0	0	0	503	619
8	0	0	0	0	504	616
9	0	0	0	0	504	618
10	0	0	0	0	504	617
11	0	0	0	0	505	618
12	0	0	0	0	505	620
13	0	0	0	0	505	617
14	0	0	0	0	505	617
15	0	0	0	0	504	617
0	0	0	0	0	504	614
1	0	0	0	0	504	617
2	0	0	0	0	503	616
3	0	0	0	0	503	616
4	0	0	0	0	503	620
5	0	0	0	0	502	617
6	0	0	0	0	501	616
7	0	0	0	0	499	616
8	0	0	0	0	498	613
9	0	0	0	0	498	616
10	0	0	0	0	497	616
11	0	0	0	0	497	616
12	0	0	0	0	497	619
13	0	0	0	0	496	616
14	0	0	0	0	496	617
15	0	0	0	0	496	616
0	0	0	0	0	496	614
1	0	0	0	0	497	616
2	0	0	0	0	497	616
3	0	0	0	0	497	616
4	0	0	0	0	497	619
5	0	0	0	0	497	616
6	0	0	0	0	497	616
7	0	0	0	0	497	616
8	0	0	0	0	496	613
9	0	0	0	0	495	615
10	0	0	0	0	496	615
11	0	0	0	0	496	616
12	0	0	0	0	497	618
13	0	0	0	0	498	616
14	0	0	0	0	499	616
15	0	0	0	0	500	616
0	0	0	0	0	499	614
1	0	0	0	0	500	616
2	0	0	0	0	501	616
3	0	0	0	0	502	616
4	0	0	0	0	503	619
5	0	0	0	0	502	616
6	0	0	0	0	504	617
7	0	0	0	0	503	617
8	0	0	0	0	503	615
9	0	0	0	0	503	617
10	0	0	0	0	503	617
11	0	0	0	0	503	617
12	0	0	0	0	503	619
13	0	0	0	0	502	617
14	0	0	0	0	502	617
15	0	0	0	0	501	617
0	0	0	0	0	502	615
1	0	0	0	0	502	617
2	0	0	0	0	503	617
3	0	0	0	0	503	617
4	0	0	0	0	503	620
5	0	0	0	0	504	618
6	0	0	0	0	505	618
7	0	0	0	0	506	618
8	0	0	0	0	506	615
9	0	0	0	0	507	618
10	0	0	0	0	509	617
11	0	0	0	0	509	618
12	0	0	0	0	508	620
13	0	0	0	0	508	619
14	0	0	0	0	508	618
15	0	0	0	0	508	618
0	0	0	0	0	508	616
1	0	0	0	0	508	618
2	0	0	0	0	509	618
3	0	0	0	0	508	619
4	0	0	0	0	508	620
5	0	0	0	0	508	619
6	0	0	0	0	509	618
7	0	0	0	0	510	618
8	0	0	0	0	509	616
9	0	0	0	0	511	618
10	0	0	0	0	512	618
11	0	0	0	0	512	619
12	0	0	0	0	513	621
13	0	0	0	0	513	618
14	0	0	0	0	512	619
15	0	0	0	0	512	618
0	0	0	0	0	512	616
1	0	0	0	0	512	618
2	0	0	0	0	512	619
3	0	0	0	0	512	618
4	0	0	0	0	511	621
5	0	0	0	0	510	618
6	0	0	0	0	509	618
7	0	0	0	0	507	618
8	0	0	0	0	508	616
9	0	0	0	0	507	618
10	0	0	0	0	507	618
11	0	0	0	0	507	618
12	0	0	0	0	508	620
13	0	0	0	0	508	618
14	0	0	0	0	509	618
15	0	0	0	0	510	618
0	0	0	0	0	509	615
1	0	0	0	0	509	618
2	0	0	0	0	509	617
3	0	0	0	0	509	617
4	0	0	0	0	509	620
5	0	0	0	0	508	617
6	0	0	0	0	508	618
7	0	0	0	0	508	617
8	0	0	0	0	508	615
9	0	0	0	0	508	617
10	0	0	0	0	506	617
11	0	0	0	0	507	617
12	0	0	0	0	505	620
13	0	0	0	0	506	617
14	0	0	0	0	506	617
15	0	0	0	0	507	617
0	0	0	0	0	505	615
1	0	0	0	0	506	616
2	0	0	0	0	506	616
3	0	0	0	0	507	616
4	0	0	0	0	507	619
5	0	0	0	0	508	617
6	0	0	0	0	507	616
7	0	0	0	0	508	616
8	0	0	0	0	508	614
9	0	0	0	0	507	616
10	0	0	0	0	507	617
11	0	0	0	0	507	617
12	0	0	0	0	506	619
13	0	0	0	0	505	616
14	0	0	0	0	505	617
15	0	0	0	0	504	616
0	0	0	0	0	504	614
1	0	0	0	0	504	616
2	0	0	0	0	503	616
3	0	0	0	0	503	616
4	0	0	0	0	502	619
5	0	0	0	0	500	616
6	0	0	0	0	498	616
7	0	0	0	0	496	617
8	0	0	0	0	494	614
9	0	0	0	0	492	616
10	0	0	0	0	490	616
11	0	0	0	0	487	616
12	0	0	0	0	485	619
13	0	0	0	0	483	617
14	0	0	0	0	480	617
15	0	0	0	0	478	617
0	0	0	0	0	475	615
1	0	0	0	0	471	617
2	0	0	0	0	466	617
3	0	0	0	0	459	617
4	0	0	0	0	453	619
5	0	0	0	0	444	617
6	0	0	0	0	435	617
7	0	0	0	0	425	617
8	0	0	0	0	416	615
9	0	0	0	0	408	617
10	0	0	0	0	403	617
11	0	0	0	0	401	617
12	0	0	0	0	401	619
13	0	0	0	0	403	618
14	0	0	0	0	407	617
15	0	0	0	0	409	618
0	0	0	0	0	411	616
1	0	0	0	0	414	618
2	0	0	0	0	423	618
3	0	0	0	0	439	618
4	0	0	0	0	458	620
5	0	0	0	0	482	618
6	0	0	0	0	509	618
7	0	0	0	0	540	618
8	0	0	0	0	572	616
9	0	0	0	0	601	618
10	0	0	0	0	624	618
11	0	0	0	0	645	618
12	0	0	0	0	664	620
13	0	0	0	0	682	618
14	0	0	0	0	694	618
15	0	0	0	0	698	618
0	0	0	0	0	695	615
1	0	0	0	0	689	618
2	0	0	0	0	682	618
3	0	0	0	0	673	617
4	0	0	0	0	664	620
5	0	0	0	0	655	617
6	0	0	0	0	643	619
7	0	0	0	0	631	618
8	0	0	0	0	619	615
9	0	0	0	0	608	617
10	0	0	0	0	600	617
11	0	0	0	0	591	617
12	0	0	0	0	584	620
13	0	0	0	0	576	618
14	0	0	0	0	568	617
15	0	0	0	0	561	617
0	0	0	0	0	553	615
1	0	0	0	0	545	618
2	0	0	0	0	536	617
3	0	0	0	0	529	618
4	0	0	0	0	522	621
5	0	0	0	0	515	618
6	0	0	0	0	510	618
7	0	0	0	0	503	618
8	0	0	0	0	497	615
9	0	0	0	0	492	617
10	0	0	0	0	487	617
11	0	0	0	0	483	617
12	0	0	0	0	478	620
13	0	0	0	0	476	617
14	0	0	0	0	474	617
15	0	0	0	0	472	617
0	0	0	0	0	472	615
1	0	0	0	0	471	617
2	0	0	0	0	470	616
3	0	0	0	0	470	617
4	0	0	0	0	469	619
5	0	0	0	0	470	617
6	0	0	0	0	470	617
7	0	0	0	0	470	617
8	0	0	0	0	470	614
9	0	0	0	0	471	616
10	0	0	0	0	471	616
11	0	0	0	0	472	616
12	0	0	0	0	472	619
13	0	0	0	0	471	616
14	0	0	0	0	470	617
15	0	0	0	0	470	617
0	0	0	0	0	470	615
1	0	0	0	0	470	617
2	0	0	0	0	470	616
3	0	0	0	0	470	617
4	0	0	0	0	470	620
5	0	0	0	0	470	617
6	0	0	0	0	470	617
7	0	0	0	0	470	616
8	0	0	0	0	470	614
9	0	0	0	0	470	616
10	0	0	0	0	471	617
11	0	0	0	0	472	616
12	0	0	0	0	473	620
13	0	0	0	0	473	617
14	0	0	0	0	473	617
15	0	0	0	0	473	617
0	0	0	0	0	474	615
1	0	0	0	0	473	617
2	0	0	0	0	473	617
3	0	0	0	0	473	617
4	0	0	0	0	474	619
5	0	0	0	0	474	617
6	0	0	0	0	474	617
7	0	0	0	0	473	617
8	0	0	0	0	473	614
9	0	0	0	0	473	617
10	0	0	0	0	473	616
11	0	0	0	0	472	616
12	0	0	0	0	472	619
13	0	0	0	0	473	616
14	0	0	0	0	473	617
15	0	0	0	0	474	617
0	0	0	0	0	476	615
1	0	0	0	0	477	617
2	0	0	0	0	478	617
3	0	0	0	0	478	617
4	0	0	0	0	478	619
5	0	0	0	0	478	618
6	0	0	0	0	478	617
7	0	0	0	0	478	617
8	0	0	0	0	477	615
9	0	0	0	0	477	617
10	0	0	0	0	476	617
11	0	0	0	0	477	617
12	0	0	0	0	476	620
13	0	0	0	0	477	617
14	0	0	0	0	477	618
15	0	0	0	0	477	617
0	0	0	0	0	478	615
1	0	0	0	0	479	618
2	0	0	0	0	479	618
3	0	0	0	0	480	617
4	0	0	0	0	480	620
5	0	0	0	0	480	617
6	0	0	0	0	480	617
7	0	0	0	0	481	618
8	0	0	0	0	480	616
9	0	0	0	0	480	618
10	0	0	0	0	479	619
11	0	0	0	0	479	619
12	0	0	0	0	479	620
13	0	0	0	0	478	617
14	0	0	0	0	478	618
15	0	0	0	0	477	617
0	0	0	0	0	478	615
1	0	0	0	0	478	617
2	0	0	0	0	477	617
3	0	0	0	0	477	617
4	0	0	0	0	477	619
5	0	0	0	0	476	618
6	0	0	0	0	477	617
7	0	0	0	0	477	617
8	0	0	0	0	477	615
9	0	0	0	0	477	617
10	0	0	0	0	478	617
11	0	0	0	0	478	617
12	0	0	0	0	477	620
13	0	0	0	0	477	617
14	0	0	0	0	476	617
15	0	0	0	0	475	616
0	0	0	0	0	475	615
1	0	0	0	0	473	617
2	0	0	0	0	473	617
3	0	0	0	0	472	617
4	0	0	0	0	472	620
5	0	0	0	0	472	616
6	0	0	0	0	471	617
7	0	0	0	0	471	616
8	0	0	0	0	471	614
9	0	0	0	0	471	616
10	0	0	0	0	470	616
11	0	0	0	0	470	616
12	0	0	0	0	470	619
13	0	0	0	0	470	616
14	0	0	0	0	470	616
15	0	0	0	0	470	616
0	0	0	0	0	469	614
1	0	0	0	0	468	616
2	0	0	0	0	467	616
3	0	0	0	0	466	616
4	0	0	0	0	466	619
5	0	0	0	0	465	616
6	0	0	0	0	465	616
7	0	0	0	0	464	616
8	0	0	0	0	463	614
9	0	0	0	0	463	616
10	0	0	0	0	462	617
11	0	0	0	0	462	616
12	0	0	0	0	461	619
13	0	0	0	0	460	617
14	0	0	0	0	460	616
15	0	0	0	0	461	617
0	0	0	0	0	461	615
1	0	0	0	0	460	617
2	0	0	0	0	460	616
3	0	0	0	0	460	617
4	0	0	0	0	459	620
5	0	0	0	0	459	617
6	0	0	0	0	457	617
7	0	0	0	0	456	617
8	0	0	0	0	455	615
9	0	0	0	0	455	617
10	0	0	0	0	453	617
11	0	0	0	0	452	617
12	0	0	0	0	452	620
13	0	0	0	0	451	618
14	0	0	0	0	451	618
15	0	0	0	0	451	619
0	0	0	0	0	451	615
1	0	0	0	0	450	618
2	0	0	0	0	450	618
3	0	0	0	0	451	618
4	0	0	0	0	451	621
5	0	0	0	0	452	619
6	0	0	0	0	451	618
7	0	0	0	0	451	618
8	0	0	0	0	451	616
9	0	0	0	0	451	618
10	0	0	0	0	450	618
11	0	0	0	0	449	618
12	0	0	0	0	449	621
13	0	0	0	0	449	618
14	0	0	0	0	448	617
15	0	0	0	0	448	618
0	0	0	0	0	448	615
1	0	0	0	0	448	618
2	0	0	0	0	449	617
3	0	0	0	0	449	617
4	0	0	0	0	450	620
5	0	0	0	0	451	618
6	0	0	0	0	451	618
7	0	0	0	0	452	618
8	0	0	0	0	454	616
9	0	0	0	0	454	618
10	0	0	0	0	455	618
11	0	0	0	0	456	617
12	0	0	0	0	457	620
13	0	0	0	0	457	618
14	0	0	0	0	457	618
15	0	0	0	0	458	617
0	0	0	0	0	459	615
1	0	0	0	0	460	618
2	0	0	0	0	460	617
3	0	0	0	0	462	617
4	0	0	0	0	464	620
5	0	0	0	0	466	617
6	0	0	0	0	467	617
7	0	0	0	0	469	617
8	0	0	0	0	471	615
9	0	0	0	0	473	617
10	0	0	0	0	475	617
11	0	0	0	0	478	617
12	0	0	0	0	480	619
13	0	0	0	0	482	617
14	0	0	0	0	484	617
15	0	0	0	0	487	617
0	0	0	0	0	488	614
1	0	0	0	0	491	617
2	0	0	0	0	494	617
3	0	0	0	0	497	617
4	0	0	0	0	499	619
5	0	0	0	0	501	617
6	0	0	0	0	503	616
7	0	0	0	0	505	617
8	0	0	0	0	508	615
9	0	0	0	0	510	617
10	0	0	0	0	513	617
11	0	0	0	0	517	617
12	0	0	0	0	520	619
13	0	0	0	0	523	617
14	0	0	0	0	526	617
15	0	0	0	0	529	617
0	0	0	0	0	531	615
1	0	0	0	0	534	617
2	0	0	0	0	536	617
3	0	0	0	0	538	618
4	0	0	0	0	540	620
5	0	0	0	0	543	617
6	0	0	0	0	545	617
7	0	0	0	0	546	618
8	0	0	0	0	548	615
9	0	0	0	0	550	618
10	0	0	0	0	551	619
11	0	0	0	0	553	618
12	0	0	0	0	554	620
13	0	0	0	0	556	617
14	0	0	0	0	558	617
15	0	0	0	0	560	617
0	0	0	0	0	561	616
1	0	0	0	0	563	617
2	0	0	0	0	564	618
3	0	0	0	0	566	617
4	0	0	0	0	568	620
5	0	0	0	0	569	617
6	0	0	0	0	570	617
7	0	0	0	0	571	617
8	0	0	0	0	572	615
9	0	0	0	0	573	617
10	0	0	0	0	573	616
11	0	0	0	0	574	617
12	0	0	0	0	573	619
13	0	0	0	0	573	617
14	0	0	0	0	571	617
15	0	0	0	0	572	617
0	0	0	0	0	573	614
1	0	0	0	0	572	617
2	0	0	0	0	573	617
3	0	0	0	0	572	617
4	0	0	0	0	573	619
5	0	0	0	0	572	616
6	0	0	0	0	571	616
7	0	0	0	0	572	617
8	0	0	0	0	572	614
9	0	0	0	0	572	616
10	0	0	0	0	572	616
11	0	0	0	0	573	617
12	0	0	0	0	573	620
13	0	0	0	0	572	617
14	0	0	0	0	572	617
15	0	0	0	0	572	617
0	0	0	0	0	570	614
1	0	0	0	0	570	617
2	0	0	0	0	569	616
3	0	0	0	0	568	616
4	0	0	0	0	568	620
5	0	0	0	0	568	616
6	0	0	0	0	567	617
7	0	0	0	0	567	617
8	0	0	0	0	567	615
9	0	0	0	0	567	617
10	0	0	0	0	566	616
11	0	0	0	0	566	616
12	0	0	0	0	567	618
13	0	0	0	0	567	617
14	0	0	0	0	567	616
15	0	0	0	0	566	616
0	0	0	0	0	565	614
1	0	0	0	0	564	617
2	0	0	0	0	563	617
3	0	0	0	0	563	617
4	0	0	0	0	561	620
5	0	0	0	0	561	617
6	0	0	0	0	560	617
7	0	0	0	0	559	617
8	0	0	0	0	559	615
9	0	0	0	0	558	617
10	0	0	0	0	558	618
11	0	0	0	0	558	617
12	0	0	0	0	557	620
13	0	0	0	0	557	618
14	0	0	0	0	557	618
15	0	0	0	0	557	618
0	0	0	0	0	556	615
1	0	0	0	0	556	617
2	0	0	0	0	557	617
3	0	0	0	0	556	617
4	0	0	0	0	556	620
5	0	0	0	0	555	617
6	0	0	0	0	553	617
7	0	0	0	0	552	617
8	0	0	0	0	552	615
9	0	0	0	0	551	617
10	0	0	0	0	550	617
11	0	0	0	0	548	617
12	0	0	0	0	548	620
13	0	0	0	0	547	618
14	0	0	0	0	547	618
15	0	0	0	0	546	617
0	0	0	0	0	546	615
1	0	0	0	0	546	618
2	0	0	0	0	546	617
3	0	0	0	0	546	617
4	0	0	0	0	546	619
5	0	0	0	0	546	617
6	0	0	0	0	546	617
7	0	0	0	0	545	618
8	0	0	0	0	545	615
9	0	0	0	0	543	617
10	0	0	0	0	543	618
11	0	0	0	0	543	617
12	0	0	0	0	543	620
13	0	0	0	0	542	617
14	0	0	0	0	540	617
15	0	0	0	0	540	617
0	0	0	0	0	541	615
1	0	0	0	0	540	617
2	0	0	0	0	540	617
3	0	0	0	0	539	617
4	0	0	0	0	538	620
5	0	0	0	0	538	618
6	0	0	0	0	538	617
7	0	0	0	0	538	618
8	0	0	0	0	538	615
9	0	0	0	0	538	617
10	0	0	0	0	538	618
11	0	0	0	0	538	617
12	0	0	0	0	538	620
13	0	0	0	0	536	617
14	0	0	0	0	536	617
15	0	0	0	0	536	617
0	0	0	0	0	536	615
1	0	0	0	0	535	618
2	0	0	0	0	534	617
3	0	0	0	0	533	618
4	0	0	0	0	533	621
5	0	0	0	0	532	617
6	0	0	0	0	531	618
7	0	0	0	0	531	617
8	0	0	0	0	530	615
9	0	0	0	0	529	618
10	0	0	0	0	529	618
11	0	0	0	0	529	617
12	0	0	0	0	529	620
13	0	0	0	0	529	618
14	0	0	0	0	530	618
15	0	0	0	0	530	617
0	0	0	0	0	530	615
1	0	0	0	0	529	617
2	0	0	0	0	530	618
3	0	0	0	0	529	618
4	0	0	0	0	529	619
5	0	0	0	0	528	617
6	0	0	0	0	527	617
7	0	0	0	0	528	617
8	0	0	0	0	528	615
9	0	0	0	0	528	617
10	0	0	0	0	527	617
11	0	0	0	0	527	617
12	0	0	0	0	526	620
13	0	0	0	0	526	618
14	0	0	0	0	526	618
15	0	0	0	0	526	618
0	0	0	0	0	527	615
1	0	0	0	0	527	617
2	0	0	0	0	527	617
3	0	0	0	0	527	617
4	0	0	0	0	526	620
5	0	0	0	0	526	617
6	0	0	0	0	526	617
7	0	0	0	0	525	617
8	0	0	0	0	524	615
9	0	0	0	0	524	617
10	0	0	0	0	523	617
11	0	0	0	0	523	618
12	0	0	0	0	523	620
13	0	0	0	0	522	617
14	0	0	0	0	522	618
15	0	0	0	0	521	617
0	0	0	0	0	521	615
1	0	0	0	0	521	618
2	0	0	0	0	521	617
3	0	0	0	0	521	617
4	0	0	0	0	521	621
5	0	0	0	0	521	618
6	0	0	0	0	521	617
7	0	0	0	0	522	618
8	0	0	0	0	521	615
9	0	0	0	0	521	618
10	0	0	0	0	521	617
11	0	0	0	0	521	618
12	0	0	0	0	521	620
13	0	0	0	0	521	617
14	0	0	0	0	520	617
15	0	0	0	0	519	617
0	0	0	0	0	519	614
1	0	0	0	0	519	617
2	0	0	0	0	519	617
3	0	0	0	0	520	616
4	0	0	0	0	520	619
5	0	0	0	0	520	617
6	0	0	0	0	520	617
7	0	0	0	0	519	616
8	0	0	0	0	519	615
9	0	0	0	0	520	617
10	0	0	0	0	520	617
11	0	0	0	0	520	617
12	0	0	0	0	520	620
13	0	0	0	0	519	617
14	0	0	0	0	519	617
15	0	0	0	0	519	617
0	0	0	0	0	518	615
1	0	0	0	0	518	617
2	0	0	0	0	518	617
3	0	0	0	0	516	616
4	0	0	0	0	516	619
5	0	0	0	0	516	617
6	0	0	0	0	516	617
7	0	0	0	0	516	617
8	0	0	0	0	515	614
9	0	0	0	0	516	617
10	0	0	0	0	516	616
11	0	0	0	0	516	617
12	0	0	0	0	518	619
13	0	0	0	0	518	617
14	0	0	0	0	518	617
15	0	0	0	0	517	617
0	0	0	0	0	518	614
1	0	0	0	0	518	617
2	0	0	0	0	518	616
3	0	0	0	0	517	617
4	0	0	0	0	518	620
5	0	0	0	0	517	617
6	0	0	0	0	515	616
7	0	0	0	0	515	616
8	0	0	0	0	515	615
9	0	0	0	0	515	616
10	0	0	0	0	515	617
11	0	0	0	0	514	617
12	0	0	0	0	514	620
13	0	0	0	0	514	617
14	0	0	0	0	515	617
15	0	0	0	0	515	616
0	0	0	0	0	516	615
1	0	0	0	0	516	617
2	0	0	0	0	516	617
3	0	0	0	0	516	617
4	0	0	0	0	516	620
5	0	0	0	0	515	617
6	0	0	0	0	514	617
7	0	0	0	0	513	617
8	0	0	0	0	513	615
9	0	0	0	0	512	617
10	0	0	0	0	512	618
11	0	0	0	0	512	617
12	0	0	0	0	511	620
13	0	0	0	0	511	617
14	0	0	0	0	511	617
15	0	0	0	0	511	618
0	0	0	0	0	512	615
1	0	0	0	0	512	617
2	0	0	0	0	512	617
3	0	0	0	0	512	618
4	0	0	0	0	512	620
5	0	0	0	0	513	618
6	0	0	0	0	513	618
7	0	0	0	0	514	617
8	0	0	0	0	514	615
9	0	0	0	0	514	618
10	0	0	0	0	513	618
11	0	0	0	0	513	618
12	0	0	0	0	513	621
13	0	0	0	0	513	618
14	0	0	0	0	512	618
15	0	0	0	0	512	618
0	0	0	0	0	511	615
1	0	0	0	0	511	618
2	0	0	0	0	510	618
3	0	0	0	0	510	618
4	0	0	0	0	510	620
5	0	0	0	0	510	617
6	0	0	0	0	510	617
7	0	0	0	0	511	618
8	0	0	0	0	512	615
9	0	0	0	0	512	618
10	0	0	0	0	512	617
11	0	0	0	0	513	618
12	0	0	0	0	512	620
13	0	0	0	0	512	617
14	0	0	0	0	512	617
15	0	0	0	0	512	617
0	0	0	0	0	511	614
1	0	0	0	0	511	617
2	0	0	0	0	510	617
3	0	0	0	0	509	617
4	0	0	0	0	509	620
5	0	0	0	0	509	617
6	0	0	0	0	510	617
7	0	0	0	0	509	617
8	0	0	0	0	509	615
9	0	0	0	0	510	617
10	0	0	0	0	510	617
11	0	0	0	0	511	617
12	0	0	0	0	511	619
13	0	0	0	0	511	617
14	0	0	0	0	512	617
15	0	0	0	0	511	617
0	0	0	0	0	511	614
1	0	0	0	0	511	617
2	0	0	0	0	510	617
3	0	0	0	0	511	617
4	0	0	0	0	510	620
5	0	0	0	0	510	617
6	0	0	0	0	508	617
7	0	0	0	0	508	617
