# OpenSignals Text File Format. Version 1
# {"98:D3:91:FD:59:64": {"position": 0, "device": "bitalino_rev", "device name": "98:D3:91:FD:59:64", "device connection": "BTH98:D3:91:FD:59:64", "sampling rate": 1000, "resolution": [4, 1, 1, 1, 1, 10, 10], "firmware version": 1281, "comments": "", "keywords": "", "mode": 0, "sync interval": 2, "date": "2021-9-12", "time": "15:28:44.474", "channels": [2, 5], "sensor": ["RAW", "RAW"], "label": ["A2", "A5"], "column": ["nSeq", "I1", "I2", "O1", "O2", "A2", "A5"], "special": [{}, {}], "digital IO": [0, 0, 1, 1], "convertedValues": 0}}
# EndOfHeader
0	0	0	0	0	527	624	
1	0	0	0	0	527	624	
2	0	0	0	0	526	624	
3	0	0	0	0	525	624	
4	0	0	0	0	525	624	
5	0	0	0	0	527	624	
6	0	0	0	0	529	623	
7	0	0	0	0	529	623	
8	0	0	0	0	528	623	
9	0	0	0	0	527	622	
10	0	0	0	0	527	624	
11	0	0	0	0	528	622	
12	0	0	0	0	530	622	
13	0	0	0	0	531	622	
14	0	0	0	0	531	622	
15	0	0	0	0	529	622	
0	0	0	0	0	528	622	
1	0	0	0	0	528	622	
2	0	0	0	0	530	623	
3	0	0	0	0	530	622	
4	0	0	0	0	529	622	
5	0	0	0	0	527	622	
6	0	0	0	0	526	622	
7	0	0	0	0	524	622	
8	0	0	0	0	522	622	
9	0	0	0	0	520	622	
10	0	0	0	0	519	622	
11	0	0	0	0	519	621	
12	0	0	0	0	521	622	
13	0	0	0	0	521	621	
14	0	0	0	0	518	621	
15	0	0	0	0	515	621	
0	0	0	0	0	514	621	
1	0	0	0	0	515	621	
2	0	0	0	0	516	621	
3	0	0	0	0	518	622	
4	0	0	0	0	519	621	
5	0	0	0	0	519	621	
6	0	0	0	0	518	621	
7	0	0	0	0	515	621	
8	0	0	0	0	513	621	
9	0	0	0	0	512	620	
10	0	0	0	0	513	622	
11	0	0	0	0	515	621	
12	0	0	0	0	518	621	
13	0	0	0	0	519	622	
14	0	0	0	0	518	622	
15	0	0	0	0	518	621	
0	0	0	0	0	519	621	
1	0	0	0	0	519	621	
2	0	0	0	0	519	622	
3	0	0	0	0	519	621	
4	0	0	0	0	517	621	
5	0	0	0	0	516	621	
6	0	0	0	0	515	621	
7	0	0	0	0	515	621	
8	0	0	0	0	515	621	
9	0	0	0	0	516	620	
10	0	0	0	0	516	621	
11	0	0	0	0	516	621	
12	0	0	0	0	516	621	
13	0	0	0	0	515	621	
14	0	0	0	0	515	621	
15	0	0	0	0	517	622	
0	0	0	0	0	519	622	
1	0	0	0	0	519	622	
2	0	0	0	0	519	622	
3	0	0	0	0	519	622	
4	0	0	0	0	520	622	
5	0	0	0	0	522	622	
6	0	0	0	0	524	623	
7	0	0	0	0	525	622	
8	0	0	0	0	523	622	
9	0	0	0	0	523	623	
10	0	0	0	0	523	623	
11	0	0	0	0	523	623	
12	0	0	0	0	522	622	
13	0	0	0	0	523	624	
14	0	0	0	0	524	623	
15	0	0	0	0	526	624	
0	0	0	0	0	526	624	
1	0	0	0	0	527	623	
2	0	0	0	0	528	624	
3	0	0	0	0	529	624	
4	0	0	0	0	532	624	
5	0	0	0	0	532	624	
6	0	0	0	0	531	624	
7	0	0	0	0	529	625	
8	0	0	0	0	529	624	
9	0	0	0	0	529	624	
10	0	0	0	0	530	625	
11	0	0	0	0	531	625	
12	0	0	0	0	533	625	
13	0	0	0	0	534	625	
14	0	0	0	0	533	625	
15	0	0	0	0	533	625	
0	0	0	0	0	533	625	
1	0	0	0	0	534	624	
2	0	0	0	0	535	625	
3	0	0	0	0	535	625	
4	0	0	0	0	536	624	
5	0	0	0	0	536	624	
6	0	0	0	0	536	624	
7	0	0	0	0	536	625	
8	0	0	0	0	537	624	
9	0	0	0	0	537	624	
10	0	0	0	0	537	624	
11	0	0	0	0	539	624	
12	0	0	0	0	541	624	
13	0	0	0	0	542	624	
14	0	0	0	0	542	625	
15	0	0	0	0	541	624	
0	0	0	0	0	541	624	
1	0	0	0	0	541	624	
2	0	0	0	0	540	625	
3	0	0	0	0	540	624	
4	0	0	0	0	541	624	
5	0	0	0	0	541	624	
6	0	0	0	0	540	624	
7	0	0	0	0	540	623	
8	0	0	0	0	539	623	
9	0	0	0	0	539	623	
10	0	0	0	0	540	624	
11	0	0	0	0	540	623	
12	0	0	0	0	540	623	
13	0	0	0	0	539	623	
14	0	0	0	0	540	623	
15	0	0	0	0	541	624	
0	0	0	0	0	543	624	
1	0	0	0	0	542	623	
2	0	0	0	0	541	624	
3	0	0	0	0	540	624	
4	0	0	0	0	540	624	
5	0	0	0	0	540	624	
6	0	0	0	0	539	624	
7	0	0	0	0	538	624	
8	0	0	0	0	538	625	
9	0	0	0	0	538	625	
10	0	0	0	0	539	625	
11	0	0	0	0	540	624	
12	0	0	0	0	540	625	
13	0	0	0	0	541	625	
14	0	0	0	0	540	625	
15	0	0	0	0	539	625	
0	0	0	0	0	538	625	
1	0	0	0	0	535	626	
2	0	0	0	0	531	626	
3	0	0	0	0	528	625	
4	0	0	0	0	527	625	
5	0	0	0	0	526	626	
6	0	0	0	0	524	626	
7	0	0	0	0	521	626	
8	0	0	0	0	519	626	
9	0	0	0	0	518	626	
10	0	0	0	0	515	627	
11	0	0	0	0	515	626	
12	0	0	0	0	515	627	
13	0	0	0	0	518	627	
14	0	0	0	0	521	628	
15	0	0	0	0	526	627	
0	0	0	0	0	532	627	
1	0	0	0	0	539	627	
2	0	0	0	0	547	628	
3	0	0	0	0	556	628	
4	0	0	0	0	568	628	
5	0	0	0	0	585	628	
6	0	0	0	0	606	628	
7	0	0	0	0	628	628	
8	0	0	0	0	651	628	
9	0	0	0	0	671	627	
10	0	0	0	0	689	629	
11	0	0	0	0	704	629	
12	0	0	0	0	719	628	
13	0	0	0	0	733	628	
14	0	0	0	0	743	629	
15	0	0	0	0	750	629	
0	0	0	0	0	753	629	
1	0	0	0	0	754	628	
2	0	0	0	0	756	630	
3	0	0	0	0	757	629	
4	0	0	0	0	756	629	
5	0	0	0	0	750	628	
6	0	0	0	0	742	629	
7	0	0	0	0	729	630	
8	0	0	0	0	713	628	
9	0	0	0	0	699	630	
10	0	0	0	0	685	629	
11	0	0	0	0	671	629	
12	0	0	0	0	654	628	
13	0	0	0	0	637	629	
14	0	0	0	0	617	629	
15	0	0	0	0	599	628	
0	0	0	0	0	584	628	
1	0	0	0	0	571	628	
2	0	0	0	0	561	628	
3	0	0	0	0	554	627	
4	0	0	0	0	549	627	
5	0	0	0	0	545	627	
6	0	0	0	0	540	627	
7	0	0	0	0	535	627	
8	0	0	0	0	529	626	
9	0	0	0	0	525	626	
10	0	0	0	0	520	626	
11	0	0	0	0	516	626	
12	0	0	0	0	512	624	
13	0	0	0	0	510	624	
14	0	0	0	0	507	625	
15	0	0	0	0	505	624	
0	0	0	0	0	503	624	
1	0	0	0	0	501	623	
2	0	0	0	0	499	623	
3	0	0	0	0	497	623	
4	0	0	0	0	495	623	
5	0	0	0	0	492	623	
6	0	0	0	0	490	623	
7	0	0	0	0	488	623	
8	0	0	0	0	487	622	
9	0	0	0	0	487	622	
10	0	0	0	0	486	623	
11	0	0	0	0	486	622	
12	0	0	0	0	487	622	
13	0	0	0	0	487	621	
14	0	0	0	0	487	622	
15	0	0	0	0	487	622	
0	0	0	0	0	488	621	
1	0	0	0	0	487	620	
2	0	0	0	0	487	621	
3	0	0	0	0	488	620	
4	0	0	0	0	488	620	
5	0	0	0	0	488	620	
6	0	0	0	0	488	620	
7	0	0	0	0	488	620	
8	0	0	0	0	487	620	
9	0	0	0	0	488	620	
10	0	0	0	0	487	620	
11	0	0	0	0	487	620	
12	0	0	0	0	487	620	
13	0	0	0	0	487	619	
14	0	0	0	0	488	619	
15	0	0	0	0	488	619	
0	0	0	0	0	488	619	
1	0	0	0	0	488	619	
2	0	0	0	0	488	620	
3	0	0	0	0	489	620	
4	0	0	0	0	489	620	
5	0	0	0	0	491	619	
6	0	0	0	0	492	620	
7	0	0	0	0	492	619	
8	0	0	0	0	493	619	
9	0	0	0	0	493	619	
10	0	0	0	0	494	620	
11	0	0	0	0	493	619	
12	0	0	0	0	493	619	
13	0	0	0	0	493	619	
14	0	0	0	0	493	620	
15	0	0	0	0	494	620	
0	0	0	0	0	495	620	
1	0	0	0	0	496	620	
2	0	0	0	0	496	620	
3	0	0	0	0	497	619	
4	0	0	0	0	497	620	
5	0	0	0	0	497	620	
6	0	0	0	0	498	620	
7	0	0	0	0	498	620	
8	0	0	0	0	499	620	
9	0	0	0	0	499	620	
10	0	0	0	0	499	620	
11	0	0	0	0	499	620	
12	0	0	0	0	499	620	
13	0	0	0	0	499	620	
14	0	0	0	0	498	620	
15	0	0	0	0	499	621	
0	0	0	0	0	498	621	
1	0	0	0	0	499	621	
2	0	0	0	0	499	621	
3	0	0	0	0	499	621	
4	0	0	0	0	499	620	
5	0	0	0	0	499	621	
6	0	0	0	0	499	620	
7	0	0	0	0	500	620	
8	0	0	0	0	500	620	
9	0	0	0	0	500	621	
10	0	0	0	0	500	622	
11	0	0	0	0	502	621	
12	0	0	0	0	503	621	
13	0	0	0	0	504	621	
14	0	0	0	0	504	622	
15	0	0	0	0	504	621	
0	0	0	0	0	505	622	
1	0	0	0	0	505	622	
2	0	0	0	0	505	622	
3	0	0	0	0	504	623	
4	0	0	0	0	505	622	
5	0	0	0	0	505	623	
6	0	0	0	0	505	623	
7	0	0	0	0	505	622	
8	0	0	0	0	505	622	
9	0	0	0	0	505	623	
10	0	0	0	0	505	624	
11	0	0	0	0	505	623	
12	0	0	0	0	506	623	
13	0	0	0	0	506	623	
14	0	0	0	0	507	624	
15	0	0	0	0	507	623	
0	0	0	0	0	508	624	
1	0	0	0	0	508	623	
2	0	0	0	0	508	624	
3	0	0	0	0	509	624	
4	0	0	0	0	508	624	
5	0	0	0	0	508	624	
6	0	0	0	0	508	624	
7	0	0	0	0	508	623	
8	0	0	0	0	507	624	
9	0	0	0	0	506	623	
10	0	0	0	0	506	624	
11	0	0	0	0	506	624	
12	0	0	0	0	505	624	
13	0	0	0	0	504	623	
14	0	0	0	0	504	624	
15	0	0	0	0	504	623	
0	0	0	0	0	505	624	
1	0	0	0	0	505	624	
2	0	0	0	0	505	624	
3	0	0	0	0	504	624	
4	0	0	0	0	503	624	
5	0	0	0	0	503	624	
6	0	0	0	0	503	624	
7	0	0	0	0	503	624	
8	0	0	0	0	504	623	
9	0	0	0	0	504	623	
10	0	0	0	0	504	624	
11	0	0	0	0	504	623	
12	0	0	0	0	505	623	
13	0	0	0	0	505	623	
14	0	0	0	0	505	624	
15	0	0	0	0	505	623	
0	0	0	0	0	506	624	
1	0	0	0	0	505	623	
2	0	0	0	0	504	624	
3	0	0	0	0	504	623	
4	0	0	0	0	504	624	
5	0	0	0	0	504	623	
6	0	0	0	0	504	624	
7	0	0	0	0	505	624	
8	0	0	0	0	504	623	
9	0	0	0	0	503	624	
10	0	0	0	0	504	624	
11	0	0	0	0	504	624	
12	0	0	0	0	504	624	
13	0	0	0	0	505	624	
14	0	0	0	0	506	624	
15	0	0	0	0	507	624	
0	0	0	0	0	507	625	
1	0	0	0	0	507	624	
2	0	0	0	0	508	625	
3	0	0	0	0	508	625	
4	0	0	0	0	509	625	
5	0	0	0	0	509	626	
6	0	0	0	0	509	626	
7	0	0	0	0	509	626	
8	0	0	0	0	509	626	
9	0	0	0	0	510	626	
10	0	0	0	0	510	626	
11	0	0	0	0	510	626	
12	0	0	0	0	511	626	
13	0	0	0	0	512	627	
14	0	0	0	0	512	627	
15	0	0	0	0	512	627	
0	0	0	0	0	513	627	
1	0	0	0	0	513	627	
2	0	0	0	0	514	627	
3	0	0	0	0	514	627	
4	0	0	0	0	515	627	
5	0	0	0	0	514	627	
6	0	0	0	0	514	628	
7	0	0	0	0	514	628	
8	0	0	0	0	515	628	
9	0	0	0	0	515	629	
10	0	0	0	0	516	629	
11	0	0	0	0	516	628	
12	0	0	0	0	518	629	
13	0	0	0	0	518	629	
14	0	0	0	0	519	630	
15	0	0	0	0	519	630	
0	0	0	0	0	519	631	
1	0	0	0	0	521	631	
2	0	0	0	0	521	631	
3	0	0	0	0	521	631	
4	0	0	0	0	521	631	
5	0	0	0	0	522	631	
6	0	0	0	0	523	632	
7	0	0	0	0	524	632	
8	0	0	0	0	523	631	
9	0	0	0	0	524	631	
10	0	0	0	0	525	631	
11	0	0	0	0	525	632	
12	0	0	0	0	525	632	
13	0	0	0	0	526	632	
14	0	0	0	0	525	631	
15	0	0	0	0	526	631	
0	0	0	0	0	525	631	
1	0	0	0	0	525	631	
2	0	0	0	0	524	631	
3	0	0	0	0	524	631	
4	0	0	0	0	525	631	
5	0	0	0	0	525	630	
6	0	0	0	0	525	630	
7	0	0	0	0	524	630	
8	0	0	0	0	525	630	
9	0	0	0	0	525	630	
10	0	0	0	0	526	631	
11	0	0	0	0	525	630	
12	0	0	0	0	526	630	
13	0	0	0	0	526	630	
14	0	0	0	0	527	630	
15	0	0	0	0	526	630	
0	0	0	0	0	526	629	
1	0	0	0	0	526	629	
2	0	0	0	0	526	630	
3	0	0	0	0	526	629	
4	0	0	0	0	526	628	
5	0	0	0	0	527	627	
6	0	0	0	0	526	628	
7	0	0	0	0	525	627	
8	0	0	0	0	525	626	
9	0	0	0	0	524	627	
10	0	0	0	0	524	626	
11	0	0	0	0	523	626	
12	0	0	0	0	522	625	
13	0	0	0	0	522	625	
14	0	0	0	0	520	625	
15	0	0	0	0	519	625	
0	0	0	0	0	519	625	
1	0	0	0	0	520	624	
2	0	0	0	0	521	624	
3	0	0	0	0	522	623	
4	0	0	0	0	522	624	
5	0	0	0	0	523	623	
6	0	0	0	0	524	623	
7	0	0	0	0	525	623	
8	0	0	0	0	525	623	
9	0	0	0	0	525	623	
10	0	0	0	0	525	623	
11	0	0	0	0	525	623	
12	0	0	0	0	525	622	
13	0	0	0	0	525	622	
14	0	0	0	0	526	622	
15	0	0	0	0	527	621	
0	0	0	0	0	527	622	
1	0	0	0	0	527	621	
2	0	0	0	0	527	622	
3	0	0	0	0	527	621	
4	0	0	0	0	527	621	
5	0	0	0	0	527	621	
6	0	0	0	0	527	620	
7	0	0	0	0	527	619	
8	0	0	0	0	528	619	
9	0	0	0	0	528	619	
10	0	0	0	0	528	619	
11	0	0	0	0	528	620	
12	0	0	0	0	528	619	
13	0	0	0	0	528	617	
14	0	0	0	0	528	620	
15	0	0	0	0	528	620	
0	0	0	0	0	528	620	
1	0	0	0	0	527	622	
2	0	0	0	0	527	621	
3	0	0	0	0	527	622	
4	0	0	0	0	527	622	
5	0	0	0	0	527	621	
6	0	0	0	0	526	621	
7	0	0	0	0	527	620	
8	0	0	0	0	527	621	
9	0	0	0	0	527	620	
10	0	0	0	0	527	620	
11	0	0	0	0	527	620	
12	0	0	0	0	527	620	
13	0	0	0	0	527	619	
14	0	0	0	0	527	620	
15	0	0	0	0	526	620	
0	0	0	0	0	527	619	
1	0	0	0	0	526	619	
2	0	0	0	0	526	620	
3	0	0	0	0	526	619	
4	0	0	0	0	526	619	
5	0	0	0	0	527	620	
6	0	0	0	0	526	619	
7	0	0	0	0	526	620	
8	0	0	0	0	526	619	
9	0	0	0	0	526	620	
10	0	0	0	0	526	620	
11	0	0	0	0	526	620	
12	0	0	0	0	526	620	
13	0	0	0	0	525	620	
14	0	0	0	0	525	621	
15	0	0	0	0	525	620	
0	0	0	0	0	524	621	
1	0	0	0	0	524	621	
2	0	0	0	0	524	622	
3	0	0	0	0	525	622	
4	0	0	0	0	524	621	
5	0	0	0	0	524	622	
6	0	0	0	0	524	623	
7	0	0	0	0	523	622	
8	0	0	0	0	523	623	
9	0	0	0	0	523	623	
10	0	0	0	0	523	624	
11	0	0	0	0	522	623	
12	0	0	0	0	522	623	
13	0	0	0	0	522	623	
14	0	0	0	0	521	624	
15	0	0	0	0	520	624	
0	0	0	0	0	519	624	
1	0	0	0	0	519	624	
2	0	0	0	0	518	624	
3	0	0	0	0	519	624	
4	0	0	0	0	519	624	
5	0	0	0	0	519	624	
6	0	0	0	0	519	624	
7	0	0	0	0	519	624	
8	0	0	0	0	520	625	
9	0	0	0	0	520	625	
10	0	0	0	0	520	625	
11	0	0	0	0	520	625	
12	0	0	0	0	519	624	
13	0	0	0	0	520	625	
14	0	0	0	0	519	625	
15	0	0	0	0	519	625	
0	0	0	0	0	519	626	
1	0	0	0	0	518	625	
2	0	0	0	0	518	626	
3	0	0	0	0	518	625	
4	0	0	0	0	517	626	
5	0	0	0	0	517	625	
6	0	0	0	0	516	626	
7	0	0	0	0	516	626	
8	0	0	0	0	515	626	
9	0	0	0	0	514	626	
10	0	0	0	0	515	626	
11	0	0	0	0	514	625	
12	0	0	0	0	515	626	
13	0	0	0	0	515	625	
14	0	0	0	0	516	626	
15	0	0	0	0	515	625	
0	0	0	0	0	515	625	
1	0	0	0	0	515	625	
2	0	0	0	0	515	626	
3	0	0	0	0	515	625	
4	0	0	0	0	515	625	
5	0	0	0	0	515	625	
6	0	0	0	0	515	626	
7	0	0	0	0	515	625	
8	0	0	0	0	515	625	
9	0	0	0	0	515	625	
10	0	0	0	0	514	625	
11	0	0	0	0	513	624	
12	0	0	0	0	513	624	
13	0	0	0	0	512	625	
14	0	0	0	0	512	625	
15	0	0	0	0	512	624	
0	0	0	0	0	511	624	
1	0	0	0	0	511	624	
2	0	0	0	0	510	624	
3	0	0	0	0	508	624	
4	0	0	0	0	508	624	
5	0	0	0	0	508	624	
6	0	0	0	0	507	624	
7	0	0	0	0	507	623	
8	0	0	0	0	506	623	
9	0	0	0	0	505	623	
10	0	0	0	0	504	624	
11	0	0	0	0	503	623	
12	0	0	0	0	503	624	
13	0	0	0	0	502	624	
14	0	0	0	0	500	624	
15	0	0	0	0	500	624	
0	0	0	0	0	499	623	
1	0	0	0	0	499	623	
2	0	0	0	0	499	624	
3	0	0	0	0	499	623	
4	0	0	0	0	499	623	
5	0	0	0	0	500	623	
6	0	0	0	0	500	623	
7	0	0	0	0	501	623	
8	0	0	0	0	502	623	
9	0	0	0	0	503	623	
10	0	0	0	0	503	623	
11	0	0	0	0	503	624	
12	0	0	0	0	503	623	
13	0	0	0	0	504	623	
14	0	0	0	0	504	624	
15	0	0	0	0	503	623	
0	0	0	0	0	503	624	
1	0	0	0	0	504	623	
2	0	0	0	0	504	624	
3	0	0	0	0	504	624	
4	0	0	0	0	504	624	
5	0	0	0	0	504	623	
6	0	0	0	0	503	624	
7	0	0	0	0	503	624	
8	0	0	0	0	503	624	
9	0	0	0	0	504	624	
10	0	0	0	0	504	624	
11	0	0	0	0	505	624	
12	0	0	0	0	506	625	
13	0	0	0	0	506	624	
14	0	0	0	0	507	625	
15	0	0	0	0	508	625	
0	0	0	0	0	509	625	
1	0	0	0	0	508	625	
2	0	0	0	0	508	625	
3	0	0	0	0	509	625	
4	0	0	0	0	509	625	
5	0	0	0	0	510	625	
6	0	0	0	0	510	626	
7	0	0	0	0	509	625	
8	0	0	0	0	510	625	
9	0	0	0	0	511	626	
10	0	0	0	0	511	626	
11	0	0	0	0	510	626	
12	0	0	0	0	510	626	
13	0	0	0	0	511	626	
14	0	0	0	0	511	626	
15	0	0	0	0	511	625	
0	0	0	0	0	512	625	
1	0	0	0	0	511	625	
2	0	0	0	0	511	626	
3	0	0	0	0	511	625	
4	0	0	0	0	511	625	
5	0	0	0	0	511	625	
6	0	0	0	0	512	627	
7	0	0	0	0	512	625	
8	0	0	0	0	512	626	
9	0	0	0	0	512	625	
10	0	0	0	0	511	625	
11	0	0	0	0	511	625	
12	0	0	0	0	511	625	
13	0	0	0	0	511	625	
14	0	0	0	0	513	626	
15	0	0	0	0	513	626	
0	0	0	0	0	511	625	
1	0	0	0	0	511	626	
2	0	0	0	0	510	626	
3	0	0	0	0	510	626	
4	0	0	0	0	510	625	
5	0	0	0	0	509	625	
6	0	0	0	0	508	626	
7	0	0	0	0	508	625	
8	0	0	0	0	508	625	
9	0	0	0	0	509	625	
10	0	0	0	0	508	626	
11	0	0	0	0	508	625	
12	0	0	0	0	508	625	
13	0	0	0	0	507	625	
14	0	0	0	0	507	626	
15	0	0	0	0	507	625	
0	0	0	0	0	507	625	
1	0	0	0	0	508	626	
2	0	0	0	0	508	626	
3	0	0	0	0	508	626	
4	0	0	0	0	508	626	
5	0	0	0	0	509	626	
6	0	0	0	0	509	626	
7	0	0	0	0	510	626	
8	0	0	0	0	510	626	
9	0	0	0	0	510	626	
10	0	0	0	0	511	627	
11	0	0	0	0	511	627	
12	0	0	0	0	511	626	
13	0	0	0	0	511	626	
14	0	0	0	0	511	627	
15	0	0	0	0	510	626	
0	0	0	0	0	510	627	
1	0	0	0	0	510	627	
2	0	0	0	0	509	628	
3	0	0	0	0	507	627	
4	0	0	0	0	507	627	
5	0	0	0	0	505	627	
6	0	0	0	0	504	628	
7	0	0	0	0	502	628	
8	0	0	0	0	501	627	
9	0	0	0	0	499	627	
10	0	0	0	0	497	629	
11	0	0	0	0	495	628	
12	0	0	0	0	493	629	
13	0	0	0	0	490	629	
14	0	0	0	0	487	629	
15	0	0	0	0	483	629	
0	0	0	0	0	480	629	
1	0	0	0	0	477	629	
2	0	0	0	0	475	629	
3	0	0	0	0	474	629	
4	0	0	0	0	473	630	
5	0	0	0	0	475	630	
6	0	0	0	0	479	629	
7	0	0	0	0	486	630	
8	0	0	0	0	494	629	
9	0	0	0	0	505	629	
10	0	0	0	0	519	629	
11	0	0	0	0	536	628	
12	0	0	0	0	557	629	
13	0	0	0	0	580	629	
14	0	0	0	0	605	630	
15	0	0	0	0	628	628	
0	0	0	0	0	650	629	
1	0	0	0	0	670	628	
2	0	0	0	0	689	629	
3	0	0	0	0	706	628	
4	0	0	0	0	717	628	
5	0	0	0	0	728	628	
6	0	0	0	0	736	628	
7	0	0	0	0	745	627	
8	0	0	0	0	751	627	
9	0	0	0	0	757	627	
10	0	0	0	0	762	627	
11	0	0	0	0	764	627	
12	0	0	0	0	760	626	
13	0	0	0	0	749	625	
14	0	0	0	0	732	626	
15	0	0	0	0	709	626	
0	0	0	0	0	683	625	
1	0	0	0	0	657	625	
2	0	0	0	0	635	624	
3	0	0	0	0	612	624	
4	0	0	0	0	589	623	
5	0	0	0	0	567	624	
6	0	0	0	0	548	624	
7	0	0	0	0	532	624	
8	0	0	0	0	520	624	
9	0	0	0	0	511	623	
10	0	0	0	0	504	623	
11	0	0	0	0	498	622	
12	0	0	0	0	492	622	
13	0	0	0	0	487	623	
14	0	0	0	0	482	622	
15	0	0	0	0	478	622	
0	0	0	0	0	473	621	
1	0	0	0	0	470	622	
2	0	0	0	0	465	622	
3	0	0	0	0	462	621	
4	0	0	0	0	459	621	
5	0	0	0	0	456	620	
6	0	0	0	0	454	620	
7	0	0	0	0	452	621	
8	0	0	0	0	451	621	
9	0	0	0	0	450	621	
10	0	0	0	0	449	620	
11	0	0	0	0	449	620	
12	0	0	0	0	450	620	
13	0	0	0	0	450	620	
14	0	0	0	0	450	620	
15	0	0	0	0	451	620	
0	0	0	0	0	449	620	
1	0	0	0	0	449	619	
2	0	0	0	0	449	621	
3	0	0	0	0	449	620	
4	0	0	0	0	450	620	
5	0	0	0	0	449	620	
6	0	0	0	0	449	620	
7	0	0	0	0	449	620	
8	0	0	0	0	449	620	
9	0	0	0	0	449	619	
10	0	0	0	0	449	620	
11	0	0	0	0	450	619	
12	0	0	0	0	451	619	
13	0	0	0	0	451	619	
14	0	0	0	0	451	619	
15	0	0	0	0	451	619	
0	0	0	0	0	452	619	
1	0	0	0	0	452	619	
2	0	0	0	0	452	619	
3	0	0	0	0	452	618	
4	0	0	0	0	454	619	
5	0	0	0	0	454	619	
6	0	0	0	0	455	619	
7	0	0	0	0	455	620	
8	0	0	0	0	455	619	
9	0	0	0	0	455	619	
10	0	0	0	0	455	620	
11	0	0	0	0	455	620	
12	0	0	0	0	455	619	
13	0	0	0	0	455	620	
14	0	0	0	0	456	621	
15	0	0	0	0	456	621	
0	0	0	0	0	457	621	
1	0	0	0	0	457	621	
2	0	0	0	0	457	622	
3	0	0	0	0	458	621	
4	0	0	0	0	459	621	
5	0	0	0	0	459	622	
6	0	0	0	0	459	622	
7	0	0	0	0	459	622	
8	0	0	0	0	459	622	
9	0	0	0	0	459	623	
10	0	0	0	0	460	623	
11	0	0	0	0	460	623	
12	0	0	0	0	460	624	
13	0	0	0	0	461	623	
14	0	0	0	0	462	624	
15	0	0	0	0	463	624	
0	0	0	0	0	464	624	
1	0	0	0	0	464	624	
2	0	0	0	0	464	625	
3	0	0	0	0	464	625	
4	0	0	0	0	465	625	
5	0	0	0	0	465	625	
6	0	0	0	0	465	626	
7	0	0	0	0	466	626	
8	0	0	0	0	467	626	
9	0	0	0	0	467	627	
10	0	0	0	0	467	627	
11	0	0	0	0	468	627	
12	0	0	0	0	469	627	
13	0	0	0	0	469	627	
14	0	0	0	0	470	628	
15	0	0	0	0	469	627	
0	0	0	0	0	470	627	
1	0	0	0	0	470	627	
2	0	0	0	0	470	628	
3	0	0	0	0	470	627	
4	0	0	0	0	470	628	
5	0	0	0	0	470	628	
6	0	0	0	0	470	628	
7	0	0	0	0	470	628	
8	0	0	0	0	470	628	
9	0	0	0	0	471	628	
10	0	0	0	0	472	629	
11	0	0	0	0	472	628	
12	0	0	0	0	472	629	
13	0	0	0	0	472	628	
14	0	0	0	0	473	628	
15	0	0	0	0	473	627	
0	0	0	0	0	472	627	
1	0	0	0	0	472	628	
2	0	0	0	0	471	628	
3	0	0	0	0	471	627	
4	0	0	0	0	471	627	
5	0	0	0	0	471	628	
6	0	0	0	0	472	628	
7	0	0	0	0	472	627	
8	0	0	0	0	472	627	
9	0	0	0	0	472	627	
10	0	0	0	0	473	627	
11	0	0	0	0	473	626	
12	0	0	0	0	473	626	
13	0	0	0	0	473	626	
14	0	0	0	0	473	626	
15	0	0	0	0	473	626	
0	0	0	0	0	473	626	
1	0	0	0	0	473	625	
2	0	0	0	0	473	626	
3	0	0	0	0	473	626	
4	0	0	0	0	473	625	
5	0	0	0	0	473	625	
6	0	0	0	0	473	625	
7	0	0	0	0	473	625	
8	0	0	0	0	474	625	
9	0	0	0	0	474	624	
10	0	0	0	0	474	625	
11	0	0	0	0	475	624	
12	0	0	0	0	476	624	
13	0	0	0	0	476	623	
14	0	0	0	0	476	624	
15	0	0	0	0	474	623	
0	0	0	0	0	474	623	
1	0	0	0	0	473	624	
2	0	0	0	0	473	623	
3	0	0	0	0	473	623	
4	0	0	0	0	474	624	
5	0	0	0	0	473	623	
6	0	0	0	0	473	624	
7	0	0	0	0	474	623	
8	0	0	0	0	474	623	
9	0	0	0	0	474	623	
10	0	0	0	0	474	624	
11	0	0	0	0	474	623	
12	0	0	0	0	474	623	
13	0	0	0	0	474	624	
14	0	0	0	0	473	623	
15	0	0	0	0	473	623	
0	0	0	0	0	473	623	
1	0	0	0	0	473	624	
2	0	0	0	0	473	624	
3	0	0	0	0	474	624	
4	0	0	0	0	475	623	
5	0	0	0	0	475	623	
6	0	0	0	0	475	624	
7	0	0	0	0	475	624	
8	0	0	0	0	475	623	
9	0	0	0	0	475	623	
10	0	0	0	0	476	624	
11	0	0	0	0	476	623	
12	0	0	0	0	476	624	
13	0	0	0	0	477	623	
14	0	0	0	0	478	623	
15	0	0	0	0	479	623	
0	0	0	0	0	480	623	
1	0	0	0	0	480	622	
2	0	0	0	0	480	623	
3	0	0	0	0	480	622	
4	0	0	0	0	481	622	
5	0	0	0	0	481	621	
6	0	0	0	0	482	622	
7	0	0	0	0	482	622	
8	0	0	0	0	483	622	
9	0	0	0	0	483	622	
10	0	0	0	0	483	622	
11	0	0	0	0	483	621	
12	0	0	0	0	484	621	
13	0	0	0	0	485	622	
14	0	0	0	0	486	622	
15	0	0	0	0	486	622	
0	0	0	0	0	487	622	
1	0	0	0	0	487	623	
2	0	0	0	0	488	622	
3	0	0	0	0	488	621	
4	0	0	0	0	488	622	
5	0	0	0	0	488	623	
6	0	0	0	0	488	622	
7	0	0	0	0	489	622	
8	0	0	0	0	490	623	
9	0	0	0	0	490	623	
10	0	0	0	0	491	623	
11	0	0	0	0	491	623	
12	0	0	0	0	491	623	
13	0	0	0	0	491	623	
14	0	0	0	0	492	623	
15	0	0	0	0	492	623	
0	0	0	0	0	493	623	
1	0	0	0	0	494	623	
2	0	0	0	0	495	624	
3	0	0	0	0	496	624	
4	0	0	0	0	496	624	
5	0	0	0	0	496	624	
6	0	0	0	0	496	624	
7	0	0	0	0	496	624	
8	0	0	0	0	496	623	
9	0	0	0	0	496	624	
10	0	0	0	0	495	624	
11	0	0	0	0	495	624	
12	0	0	0	0	494	624	
13	0	0	0	0	494	624	
14	0	0	0	0	494	625	
15	0	0	0	0	494	625	
0	0	0	0	0	493	625	
1	0	0	0	0	494	625	
2	0	0	0	0	494	625	
3	0	0	0	0	494	625	
4	0	0	0	0	494	625	
5	0	0	0	0	495	625	
6	0	0	0	0	495	626	
7	0	0	0	0	495	625	
8	0	0	0	0	495	625	
9	0	0	0	0	494	626	
10	0	0	0	0	495	625	
11	0	0	0	0	495	625	
12	0	0	0	0	495	626	
13	0	0	0	0	496	626	
14	0	0	0	0	496	626	
15	0	0	0	0	495	625	
0	0	0	0	0	495	626	
1	0	0	0	0	495	626	
2	0	0	0	0	495	626	
3	0	0	0	0	495	626	
4	0	0	0	0	496	627	
5	0	0	0	0	495	627	
6	0	0	0	0	496	626	
7	0	0	0	0	496	626	
8	0	0	0	0	496	626	
9	0	0	0	0	496	625	
10	0	0	0	0	496	627	
11	0	0	0	0	496	625	
12	0	0	0	0	496	626	
13	0	0	0	0	496	626	
14	0	0	0	0	497	626	
15	0	0	0	0	497	627	
0	0	0	0	0	496	626	
1	0	0	0	0	497	626	
2	0	0	0	0	497	627	
3	0	0	0	0	497	626	
4	0	0	0	0	498	626	
5	0	0	0	0	498	626	
6	0	0	0	0	498	626	
7	0	0	0	0	499	626	
8	0	0	0	0	500	626	
9	0	0	0	0	501	626	
10	0	0	0	0	502	626	
11	0	0	0	0	502	625	
12	0	0	0	0	503	625	
13	0	0	0	0	503	625	
14	0	0	0	0	502	625	
15	0	0	0	0	502	625	
0	0	0	0	0	502	624	
1	0	0	0	0	503	624	
2	0	0	0	0	503	625	
3	0	0	0	0	503	624	
4	0	0	0	0	503	624	
5	0	0	0	0	503	624	
6	0	0	0	0	503	624	
7	0	0	0	0	502	624	
8	0	0	0	0	502	624	
9	0	0	0	0	502	623	
10	0	0	0	0	502	624	
11	0	0	0	0	502	624	
12	0	0	0	0	502	624	
13	0	0	0	0	502	623	
14	0	0	0	0	502	624	
15	0	0	0	0	502	623	
0	0	0	0	0	502	623	
1	0	0	0	0	502	623	
2	0	0	0	0	501	623	
3	0	0	0	0	501	622	
4	0	0	0	0	501	623	
5	0	0	0	0	502	622	
6	0	0	0	0	503	622	
7	0	0	0	0	503	623	
8	0	0	0	0	503	622	
9	0	0	0	0	503	623	
10	0	0	0	0	502	623	
11	0	0	0	0	503	622	
12	0	0	0	0	503	622	
13	0	0	0	0	502	622	
14	0	0	0	0	502	622	
15	0	0	0	0	502	622	
0	0	0	0	0	502	622	
1	0	0	0	0	503	622	
2	0	0	0	0	503	622	
3	0	0	0	0	503	622	
4	0	0	0	0	504	622	
5	0	0	0	0	503	622	
6	0	0	0	0	503	622	
7	0	0	0	0	502	622	
8	0	0	0	0	503	622	
9	0	0	0	0	502	622	
10	0	0	0	0	501	623	
11	0	0	0	0	501	622	
12	0	0	0	0	500	622	
13	0	0	0	0	500	622	
14	0	0	0	0	499	623	
15	0	0	0	0	500	622	
0	0	0	0	0	500	623	
1	0	0	0	0	500	623	
2	0	0	0	0	500	624	
3	0	0	0	0	501	623	
4	0	0	0	0	501	623	
5	0	0	0	0	501	623	
6	0	0	0	0	500	624	
7	0	0	0	0	501	624	
8	0	0	0	0	500	624	
9	0	0	0	0	499	624	
10	0	0	0	0	499	624	
11	0	0	0	0	499	623	
12	0	0	0	0	500	624	
13	0	0	0	0	500	623	
14	0	0	0	0	500	623	
15	0	0	0	0	500	624	
0	0	0	0	0	500	623	
1	0	0	0	0	501	624	
2	0	0	0	0	501	625	
3	0	0	0	0	501	623	
4	0	0	0	0	501	624	
5	0	0	0	0	500	623	
6	0	0	0	0	501	624	
7	0	0	0	0	502	624	
8	0	0	0	0	502	624	
9	0	0	0	0	502	624	
10	0	0	0	0	501	624	
11	0	0	0	0	501	623	
12	0	0	0	0	501	624	
13	0	0	0	0	501	623	
14	0	0	0	0	501	623	
15	0	0	0	0	501	623	
0	0	0	0	0	501	624	
1	0	0	0	0	500	624	
2	0	0	0	0	501	624	
3	0	0	0	0	501	624	
4	0	0	0	0	501	624	
5	0	0	0	0	501	624	
6	0	0	0	0	501	624	
7	0	0	0	0	501	624	
8	0	0	0	0	501	624	
9	0	0	0	0	500	625	
10	0	0	0	0	500	625	
11	0	0	0	0	500	624	
12	0	0	0	0	501	625	
13	0	0	0	0	501	625	
14	0	0	0	0	501	625	
15	0	0	0	0	500	625	
0	0	0	0	0	500	625	
1	0	0	0	0	500	624	
2	0	0	0	0	500	625	
3	0	0	0	0	501	624	
4	0	0	0	0	501	625	
5	0	0	0	0	501	625	
6	0	0	0	0	501	625	
7	0	0	0	0	502	625	
8	0	0	0	0	501	625	
9	0	0	0	0	501	625	
10	0	0	0	0	501	625	
11	0	0	0	0	501	624	
12	0	0	0	0	502	625	
13	0	0	0	0	503	624	
14	0	0	0	0	503	625	
15	0	0	0	0	502	624	
0	0	0	0	0	503	624	
1	0	0	0	0	503	624	
2	0	0	0	0	503	624	
3	0	0	0	0	503	624	
4	0	0	0	0	503	624	
5	0	0	0	0	504	624	
6	0	0	0	0	504	624	
7	0	0	0	0	502	624	
8	0	0	0	0	502	624	
9	0	0	0	0	501	624	
10	0	0	0	0	501	624	
11	0	0	0	0	502	623	
12	0	0	0	0	503	624	
13	0	0	0	0	502	624	
14	0	0	0	0	502	624	
15	0	0	0	0	501	623	
0	0	0	0	0	501	624	
1	0	0	0	0	500	624	
2	0	0	0	0	499	624	
3	0	0	0	0	499	623	
4	0	0	0	0	500	623	
5	0	0	0	0	499	623	
6	0	0	0	0	500	623	
7	0	0	0	0	499	623	
8	0	0	0	0	499	623	
9	0	0	0	0	498	623	
10	0	0	0	0	497	624	
11	0	0	0	0	496	623	
12	0	0	0	0	495	623	
13	0	0	0	0	495	624	
14	0	0	0	0	496	624	
15	0	0	0	0	495	624	
0	0	0	0	0	495	624	
1	0	0	0	0	495	624	
2	0	0	0	0	494	624	
3	0	0	0	0	494	623	
4	0	0	0	0	494	623	
5	0	0	0	0	494	623	
6	0	0	0	0	494	623	
7	0	0	0	0	494	622	
8	0	0	0	0	493	623	
9	0	0	0	0	492	624	
10	0	0	0	0	492	624	
11	0	0	0	0	492	623	
12	0	0	0	0	492	623	
13	0	0	0	0	492	624	
14	0	0	0	0	492	624	
15	0	0	0	0	492	624	
0	0	0	0	0	492	624	
1	0	0	0	0	492	624	
2	0	0	0	0	492	624	
3	0	0	0	0	491	625	
4	0	0	0	0	491	624	
5	0	0	0	0	490	624	
6	0	0	0	0	489	625	
7	0	0	0	0	489	625	
8	0	0	0	0	488	625	
9	0	0	0	0	489	625	
10	0	0	0	0	490	626	
11	0	0	0	0	491	625	
12	0	0	0	0	492	626	
13	0	0	0	0	493	626	
14	0	0	0	0	493	627	
15	0	0	0	0	493	626	
0	0	0	0	0	494	626	
1	0	0	0	0	495	626	
2	0	0	0	0	495	626	
3	0	0	0	0	496	626	
4	0	0	0	0	496	626	
5	0	0	0	0	496	627	
6	0	0	0	0	496	627	
7	0	0	0	0	497	627	
8	0	0	0	0	498	627	
9	0	0	0	0	498	627	
10	0	0	0	0	498	627	
11	0	0	0	0	498	627	
12	0	0	0	0	499	627	
13	0	0	0	0	499	626	
14	0	0	0	0	499	627	
15	0	0	0	0	500	627	
0	0	0	0	0	500	627	
1	0	0	0	0	500	626	
2	0	0	0	0	501	627	
3	0	0	0	0	501	627	
4	0	0	0	0	500	627	
5	0	0	0	0	501	626	
6	0	0	0	0	501	627	
7	0	0	0	0	501	627	
8	0	0	0	0	502	626	
9	0	0	0	0	503	627	
10	0	0	0	0	504	627	
11	0	0	0	0	504	627	
12	0	0	0	0	504	627	
13	0	0	0	0	504	626	
14	0	0	0	0	504	626	
15	0	0	0	0	504	626	
0	0	0	0	0	504	626	
1	0	0	0	0	504	626	
2	0	0	0	0	505	625	
3	0	0	0	0	505	625	
4	0	0	0	0	505	625	
5	0	0	0	0	505	625	
6	0	0	0	0	505	625	
7	0	0	0	0	505	625	
8	0	0	0	0	505	625	
9	0	0	0	0	505	625	
10	0	0	0	0	505	626	
11	0	0	0	0	505	625	
12	0	0	0	0	505	626	
13	0	0	0	0	505	625	
14	0	0	0	0	506	625	
15	0	0	0	0	506	625	
0	0	0	0	0	506	624	
1	0	0	0	0	507	625	
2	0	0	0	0	507	626	
3	0	0	0	0	507	625	
4	0	0	0	0	507	626	
5	0	0	0	0	507	625	
6	0	0	0	0	506	626	
7	0	0	0	0	505	625	
8	0	0	0	0	505	625	
9	0	0	0	0	504	625	
10	0	0	0	0	504	625	
11	0	0	0	0	504	625	
12	0	0	0	0	504	626	
13	0	0	0	0	504	625	
14	0	0	0	0	504	625	
15	0	0	0	0	503	625	
0	0	0	0	0	503	625	
1	0	0	0	0	504	624	
2	0	0	0	0	504	624	
3	0	0	0	0	503	625	
4	0	0	0	0	503	624	
5	0	0	0	0	504	625	
6	0	0	0	0	504	625	
7	0	0	0	0	504	624	
8	0	0	0	0	504	625	
9	0	0	0	0	504	624	
10	0	0	0	0	504	625	
11	0	0	0	0	504	625	
12	0	0	0	0	504	624	
13	0	0	0	0	503	624	
14	0	0	0	0	501	624	
15	0	0	0	0	500	624	
0	0	0	0	0	498	624	
1	0	0	0	0	496	624	
2	0	0	0	0	495	625	
3	0	0	0	0	493	625	
4	0	0	0	0	490	624	
5	0	0	0	0	488	624	
6	0	0	0	0	484	624	
7	0	0	0	0	481	624	
8	0	0	0	0	477	623	
9	0	0	0	0	474	624	
10	0	0	0	0	472	624	
11	0	0	0	0	472	624	
12	0	0	0	0	472	624	
13	0	0	0	0	473	624	
14	0	0	0	0	478	624	
15	0	0	0	0	483	624	
0	0	0	0	0	490	624	
1	0	0	0	0	499	624	
2	0	0	0	0	512	625	
3	0	0	0	0	526	625	
4	0	0	0	0	543	625	
5	0	0	0	0	563	624	
6	0	0	0	0	586	625	
7	0	0	0	0	608	625	
8	0	0	0	0	628	625	
9	0	0	0	0	646	625	
10	0	0	0	0	664	625	
11	0	0	0	0	682	625	
12	0	0	0	0	697	625	
13	0	0	0	0	709	625	
14	0	0	0	0	721	625	
15	0	0	0	0	730	625	
0	0	0	0	0	738	624	
1	0	0	0	0	745	624	
2	0	0	0	0	751	625	
3	0	0	0	0	755	624	
4	0	0	0	0	755	624	
5	0	0	0	0	748	624	
6	0	0	0	0	737	624	
7	0	0	0	0	719	624	
8	0	0	0	0	696	624	
9	0	0	0	0	672	624	
10	0	0	0	0	649	624	
11	0	0	0	0	625	623	
12	0	0	0	0	600	624	
13	0	0	0	0	575	624	
14	0	0	0	0	553	624	
15	0	0	0	0	534	624	
0	0	0	0	0	519	624	
1	0	0	0	0	508	624	
2	0	0	0	0	500	624	
3	0	0	0	0	493	623	
4	0	0	0	0	488	624	
5	0	0	0	0	484	624	
6	0	0	0	0	478	624	
7	0	0	0	0	473	623	
8	0	0	0	0	469	623	
9	0	0	0	0	465	623	
10	0	0	0	0	462	624	
11	0	0	0	0	458	624	
12	0	0	0	0	454	624	
13	0	0	0	0	452	624	
14	0	0	0	0	450	624	
15	0	0	0	0	449	624	
0	0	0	0	0	448	625	
1	0	0	0	0	447	624	
2	0	0	0	0	446	625	
3	0	0	0	0	445	624	
4	0	0	0	0	445	624	
5	0	0	0	0	445	624	
6	0	0	0	0	445	625	
7	0	0	0	0	445	624	
8	0	0	0	0	445	625	
9	0	0	0	0	444	625	
10	0	0	0	0	445	625	
11	0	0	0	0	445	625	
12	0	0	0	0	445	625	
13	0	0	0	0	445	625	
14	0	0	0	0	445	625	
15	0	0	0	0	445	625	
0	0	0	0	0	446	625	
1	0	0	0	0	447	624	
2	0	0	0	0	447	625	
3	0	0	0	0	447	625	
4	0	0	0	0	448	624	
5	0	0	0	0	447	624	
6	0	0	0	0	448	624	
7	0	0	0	0	448	625	
8	0	0	0	0	447	624	
9	0	0	0	0	448	624	
10	0	0	0	0	448	625	
11	0	0	0	0	448	624	
12	0	0	0	0	449	624	
13	0	0	0	0	450	624	
14	0	0	0	0	450	624	
15	0	0	0	0	451	624	
0	0	0	0	0	452	625	
1	0	0	0	0	452	624	
2	0	0	0	0	453	625	
3	0	0	0	0	454	624	
4	0	0	0	0	454	624	
5	0	0	0	0	455	624	
6	0	0	0	0	455	625	
7	0	0	0	0	455	624	
8	0	0	0	0	455	624	
9	0	0	0	0	456	624	
10	0	0	0	0	456	625	
11	0	0	0	0	457	625	
12	0	0	0	0	458	624	
13	0	0	0	0	458	624	
14	0	0	0	0	458	625	
15	0	0	0	0	459	625	
0	0	0	0	0	459	625	
1	0	0	0	0	459	624	
2	0	0	0	0	459	625	
3	0	0	0	0	460	625	
4	0	0	0	0	460	625	
5	0	0	0	0	460	625	
6	0	0	0	0	461	625	
7	0	0	0	0	462	624	
8	0	0	0	0	463	625	
9	0	0	0	0	463	625	
10	0	0	0	0	463	626	
11	0	0	0	0	464	625	
12	0	0	0	0	464	625	
13	0	0	0	0	465	625	
14	0	0	0	0	465	625	
15	0	0	0	0	466	625	
0	0	0	0	0	466	625	
1	0	0	0	0	466	625	
2	0	0	0	0	466	626	
3	0	0	0	0	466	625	
4	0	0	0	0	467	626	
5	0	0	0	0	467	626	
6	0	0	0	0	467	625	
7	0	0	0	0	468	626	
8	0	0	0	0	468	625	
9	0	0	0	0	468	625	
10	0	0	0	0	469	625	
11	0	0	0	0	470	625	
12	0	0	0	0	470	624	
13	0	0	0	0	470	625	
14	0	0	0	0	471	625	
15	0	0	0	0	472	625	
0	0	0	0	0	472	624	
1	0	0	0	0	472	624	
2	0	0	0	0	473	625	
3	0	0	0	0	473	624	
4	0	0	0	0	472	624	
5	0	0	0	0	472	624	
6	0	0	0	0	472	624	
7	0	0	0	0	473	624	
8	0	0	0	0	473	623	
9	0	0	0	0	472	623	
10	0	0	0	0	473	624	
11	0	0	0	0	473	624	
12	0	0	0	0	472	624	
13	0	0	0	0	472	624	
14	0	0	0	0	472	623	
15	0	0	0	0	472	624	
0	0	0	0	0	472	624	
1	0	0	0	0	472	623	
2	0	0	0	0	472	625	
3	0	0	0	0	473	624	
4	0	0	0	0	473	624	
5	0	0	0	0	474	623	
6	0	0	0	0	475	623	
7	0	0	0	0	475	624	
8	0	0	0	0	475	624	
9	0	0	0	0	475	623	
10	0	0	0	0	475	624	
11	0	0	0	0	476	623	
12	0	0	0	0	476	623	
13	0	0	0	0	476	624	
14	0	0	0	0	476	624	
15	0	0	0	0	475	623	
0	0	0	0	0	475	623	
1	0	0	0	0	475	623	
2	0	0	0	0	474	624	
3	0	0	0	0	473	623	
4	0	0	0	0	473	623	
5	0	0	0	0	472	623	
6	0	0	0	0	472	623	
7	0	0	0	0	472	623	
8	0	0	0	0	473	624	
9	0	0	0	0	473	623	
10	0	0	0	0	473	624	
11	0	0	0	0	473	623	
12	0	0	0	0	473	623	
13	0	0	0	0	473	623	
14	0	0	0	0	474	624	
15	0	0	0	0	474	623	
0	0	0	0	0	474	623	
1	0	0	0	0	474	623	
2	0	0	0	0	473	624	
3	0	0	0	0	474	624	
4	0	0	0	0	475	623	
5	0	0	0	0	475	624	
6	0	0	0	0	475	624	
7	0	0	0	0	475	624	
8	0	0	0	0	475	624	
9	0	0	0	0	476	624	
10	0	0	0	0	476	624	
11	0	0	0	0	476	624	
12	0	0	0	0	477	625	
13	0	0	0	0	477	625	
14	0	0	0	0	477	624	
15	0	0	0	0	479	624	
0	0	0	0	0	478	624	
1	0	0	0	0	479	624	
2	0	0	0	0	479	624	
3	0	0	0	0	479	624	
4	0	0	0	0	480	624	
5	0	0	0	0	480	624	
6	0	0	0	0	481	625	
7	0	0	0	0	481	625	
8	0	0	0	0	482	624	
9	0	0	0	0	483	624	
10	0	0	0	0	483	625	
11	0	0	0	0	484	625	
12	0	0	0	0	485	625	
13	0	0	0	0	486	625	
14	0	0	0	0	486	625	
15	0	0	0	0	487	625	
0	0	0	0	0	487	625	
1	0	0	0	0	488	625	
2	0	0	0	0	488	626	
3	0	0	0	0	489	626	
4	0	0	0	0	490	625	
5	0	0	0	0	491	625	
6	0	0	0	0	492	625	
7	0	0	0	0	492	625	
8	0	0	0	0	492	625	
9	0	0	0	0	493	625	
10	0	0	0	0	494	625	
11	0	0	0	0	494	624	
12	0	0	0	0	495	624	
13	0	0	0	0	496	624	
14	0	0	0	0	496	624	
15	0	0	0	0	496	624	
0	0	0	0	0	496	624	
1	0	0	0	0	496	624	
2	0	0	0	0	497	625	
3	0	0	0	0	497	624	
4	0	0	0	0	497	624	
5	0	0	0	0	498	623	
6	0	0	0	0	499	624	
7	0	0	0	0	499	624	
8	0	0	0	0	499	624	
9	0	0	0	0	500	624	
10	0	0	0	0	500	624	
11	0	0	0	0	500	623	
12	0	0	0	0	501	624	
13	0	0	0	0	502	624	
14	0	0	0	0	502	624	
15	0	0	0	0	503	624	
0	0	0	0	0	504	624	
1	0	0	0	0	504	624	
2	0	0	0	0	504	624	
3	0	0	0	0	504	624	
4	0	0	0	0	504	624	
5	0	0	0	0	503	624	
6	0	0	0	0	504	624	
7	0	0	0	0	504	623	
8	0	0	0	0	503	624	
9	0	0	0	0	503	624	
10	0	0	0	0	502	624	
11	0	0	0	0	502	624	
12	0	0	0	0	502	624	
13	0	0	0	0	502	623	
14	0	0	0	0	502	623	
15	0	0	0	0	501	623	
0	0	0	0	0	501	623	
1	0	0	0	0	501	623	
2	0	0	0	0	501	624	
3	0	0	0	0	500	623	
4	0	0	0	0	501	624	
5	0	0	0	0	502	624	
6	0	0	0	0	502	624	
7	0	0	0	0	502	624	
8	0	0	0	0	501	624	
9	0	0	0	0	500	624	
10	0	0	0	0	499	624	
11	0	0	0	0	501	624	
12	0	0	0	0	502	624	
13	0	0	0	0	503	624	
14	0	0	0	0	502	623	
15	0	0	0	0	502	623	
0	0	0	0	0	502	623	
1	0	0	0	0	502	623	
2	0	0	0	0	502	624	
3	0	0	0	0	502	623	
4	0	0	0	0	503	623	
5	0	0	0	0	504	623	
6	0	0	0	0	504	624	
7	0	0	0	0	505	624	
8	0	0	0	0	505	624	
9	0	0	0	0	505	624	
10	0	0	0	0	505	623	
11	0	0	0	0	506	624	
12	0	0	0	0	507	624	
13	0	0	0	0	507	623	
14	0	0	0	0	507	624	
15	0	0	0	0	509	623	
0	0	0	0	0	509	623	
1	0	0	0	0	509	623	
2	0	0	0	0	509	624	
3	0	0	0	0	509	624	
4	0	0	0	0	509	623	
5	0	0	0	0	510	623	
6	0	0	0	0	510	624	
7	0	0	0	0	511	624	
8	0	0	0	0	512	624	
9	0	0	0	0	512	623	
10	0	0	0	0	512	624	
11	0	0	0	0	513	623	
12	0	0	0	0	513	623	
13	0	0	0	0	514	623	
14	0	0	0	0	515	623	
15	0	0	0	0	516	623	
0	0	0	0	0	516	622	
1	0	0	0	0	517	623	
2	0	0	0	0	517	623	
3	0	0	0	0	517	623	
4	0	0	0	0	517	622	
5	0	0	0	0	516	622	
6	0	0	0	0	516	623	
7	0	0	0	0	516	623	
8	0	0	0	0	516	623	
9	0	0	0	0	516	622	
10	0	0	0	0	516	623	
11	0	0	0	0	516	623	
12	0	0	0	0	516	623	
13	0	0	0	0	516	623	
14	0	0	0	0	516	623	
15	0	0	0	0	516	623	
0	0	0	0	0	516	623	
1	0	0	0	0	516	624	
2	0	0	0	0	516	624	
3	0	0	0	0	517	624	
4	0	0	0	0	517	624	
5	0	0	0	0	518	623	
6	0	0	0	0	517	624	
7	0	0	0	0	517	624	
8	0	0	0	0	518	624	
9	0	0	0	0	517	625	
10	0	0	0	0	516	625	
11	0	0	0	0	516	624	
12	0	0	0	0	516	625	
13	0	0	0	0	517	625	
14	0	0	0	0	516	624	
15	0	0	0	0	516	624	
0	0	0	0	0	515	624	
1	0	0	0	0	516	624	
2	0	0	0	0	517	625	
3	0	0	0	0	517	625	
4	0	0	0	0	517	625	
5	0	0	0	0	517	625	
6	0	0	0	0	516	625	
7	0	0	0	0	515	626	
8	0	0	0	0	515	625	
9	0	0	0	0	515	626	
10	0	0	0	0	515	627	
11	0	0	0	0	515	627	
12	0	0	0	0	515	627	
13	0	0	0	0	516	627	
14	0	0	0	0	517	627	
15	0	0	0	0	518	627	
0	0	0	0	0	518	627	
1	0	0	0	0	518	627	
2	0	0	0	0	517	627	
3	0	0	0	0	518	628	
4	0	0	0	0	518	627	
5	0	0	0	0	519	628	
6	0	0	0	0	519	628	
7	0	0	0	0	519	628	
8	0	0	0	0	519	627	
9	0	0	0	0	519	628	
10	0	0	0	0	519	628	
11	0	0	0	0	519	628	
12	0	0	0	0	519	627	
13	0	0	0	0	519	626	
14	0	0	0	0	519	627	
15	0	0	0	0	519	627	
0	0	0	0	0	519	627	
1	0	0	0	0	519	627	
2	0	0	0	0	519	627	
3	0	0	0	0	519	626	
4	0	0	0	0	520	627	
5	0	0	0	0	520	626	
6	0	0	0	0	520	627	
7	0	0	0	0	520	626	
8	0	0	0	0	520	626	
9	0	0	0	0	521	627	
10	0	0	0	0	521	626	
11	0	0	0	0	521	626	
12	0	0	0	0	522	627	
13	0	0	0	0	523	627	
14	0	0	0	0	524	626	
15	0	0	0	0	523	626	
0	0	0	0	0	522	626	
1	0	0	0	0	522	626	
2	0	0	0	0	521	626	
3	0	0	0	0	521	626	
4	0	0	0	0	521	626	
5	0	0	0	0	520	626	
6	0	0	0	0	521	626	
7	0	0	0	0	521	626	
8	0	0	0	0	521	626	
9	0	0	0	0	521	626	
10	0	0	0	0	521	626	
11	0	0	0	0	521	625	
12	0	0	0	0	521	626	
13	0	0	0	0	521	625	
14	0	0	0	0	521	625	
15	0	0	0	0	521	625	
0	0	0	0	0	521	625	
1	0	0	0	0	520	625	
2	0	0	0	0	521	626	
3	0	0	0	0	520	625	
4	0	0	0	0	520	625	
5	0	0	0	0	520	625	
6	0	0	0	0	520	625	
7	0	0	0	0	520	624	
8	0	0	0	0	519	624	
9	0	0	0	0	519	625	
10	0	0	0	0	519	625	
11	0	0	0	0	519	625	
12	0	0	0	0	519	624	
13	0	0	0	0	519	624	
14	0	0	0	0	519	625	
15	0	0	0	0	519	625	
0	0	0	0	0	519	625	
1	0	0	0	0	518	624	
2	0	0	0	0	518	624	
3	0	0	0	0	518	624	
4	0	0	0	0	518	624	
5	0	0	0	0	517	624	
6	0	0	0	0	518	624	
7	0	0	0	0	518	623	
8	0	0	0	0	518	624	
9	0	0	0	0	519	624	
10	0	0	0	0	519	624	
11	0	0	0	0	519	624	
12	0	0	0	0	519	624	
13	0	0	0	0	520	625	
14	0	0	0	0	520	624	
15	0	0	0	0	520	625	
0	0	0	0	0	520	624	
1	0	0	0	0	520	624	
2	0	0	0	0	520	624	
3	0	0	0	0	520	624	
4	0	0	0	0	519	624	
5	0	0	0	0	519	624	
6	0	0	0	0	520	624	
7	0	0	0	0	519	624	
8	0	0	0	0	519	624	
9	0	0	0	0	519	624	
10	0	0	0	0	519	624	
11	0	0	0	0	519	624	
12	0	0	0	0	519	624	
13	0	0	0	0	519	624	
14	0	0	0	0	519	624	
15	0	0	0	0	520	624	
0	0	0	0	0	520	624	
1	0	0	0	0	520	624	
2	0	0	0	0	521	624	
3	0	0	0	0	521	624	
4	0	0	0	0	522	624	
5	0	0	0	0	522	624	
6	0	0	0	0	522	624	
7	0	0	0	0	522	624	
8	0	0	0	0	523	624	
9	0	0	0	0	524	623	
10	0	0	0	0	525	624	
11	0	0	0	0	526	624	
12	0	0	0	0	526	624	
13	0	0	0	0	527	624	
14	0	0	0	0	527	624	
15	0	0	0	0	528	624	
0	0	0	0	0	528	624	
1	0	0	0	0	529	624	
2	0	0	0	0	528	624	
3	0	0	0	0	528	624	
4	0	0	0	0	528	624	
5	0	0	0	0	529	624	
6	0	0	0	0	529	624	
7	0	0	0	0	529	624	
8	0	0	0	0	528	624	
9	0	0	0	0	528	624	
10	0	0	0	0	528	624	
11	0	0	0	0	528	624	
12	0	0	0	0	528	624	
13	0	0	0	0	527	624	
14	0	0	0	0	527	624	
15	0	0	0	0	527	624	
0	0	0	0	0	527	624	
1	0	0	0	0	527	624	
2	0	0	0	0	527	624	
3	0	0	0	0	527	623	
4	0	0	0	0	526	624	
5	0	0	0	0	527	624	
6	0	0	0	0	527	624	
7	0	0	0	0	527	624	
8	0	0	0	0	527	624	
9	0	0	0	0	527	624	
10	0	0	0	0	526	624	
11	0	0	0	0	526	624	
12	0	0	0	0	526	624	
13	0	0	0	0	525	624	
14	0	0	0	0	526	625	
15	0	0	0	0	526	625	
0	0	0	0	0	526	624	
1	0	0	0	0	526	625	
2	0	0	0	0	525	625	
3	0	0	0	0	525	625	
4	0	0	0	0	526	625	
5	0	0	0	0	525	624	
6	0	0	0	0	525	624	
7	0	0	0	0	526	624	
8	0	0	0	0	527	624	
9	0	0	0	0	527	624	
10	0	0	0	0	526	624	
11	0	0	0	0	526	624	
12	0	0	0	0	526	624	
13	0	0	0	0	526	624	
14	0	0	0	0	526	624	
15	0	0	0	0	526	624	
0	0	0	0	0	525	623	
1	0	0	0	0	525	624	
2	0	0	0	0	524	624	
3	0	0	0	0	524	624	
4	0	0	0	0	524	624	
5	0	0	0	0	524	624	
6	0	0	0	0	524	624	
7	0	0	0	0	525	624	
8	0	0	0	0	525	624	
9	0	0	0	0	524	624	
10	0	0	0	0	524	624	
11	0	0	0	0	524	624	
12	0	0	0	0	524	624	
13	0	0	0	0	524	624	
14	0	0	0	0	524	624	
15	0	0	0	0	524	624	
0	0	0	0	0	524	624	
1	0	0	0	0	524	624	
2	0	0	0	0	524	625	
3	0	0	0	0	524	624	
4	0	0	0	0	523	624	
5	0	0	0	0	524	624	
6	0	0	0	0	524	625	
7	0	0	0	0	524	624	
8	0	0	0	0	523	625	
9	0	0	0	0	524	624	
10	0	0	0	0	524	624	
11	0	0	0	0	523	624	
12	0	0	0	0	523	624	
13	0	0	0	0	523	624	
14	0	0	0	0	523	624	
15	0	0	0	0	523	625	
0	0	0	0	0	523	625	
1	0	0	0	0	523	624	
2	0	0	0	0	522	625	
3	0	0	0	0	521	624	
4	0	0	0	0	521	624	
5	0	0	0	0	521	624	
6	0	0	0	0	519	624	
7	0	0	0	0	518	625	
8	0	0	0	0	517	624	
9	0	0	0	0	516	624	
10	0	0	0	0	515	625	
11	0	0	0	0	515	625	
12	0	0	0	0	513	625	
13	0	0	0	0	513	624	
14	0	0	0	0	512	625	
15	0	0	0	0	512	625	
0	0	0	0	0	511	625	
1	0	0	0	0	510	625	
2	0	0	0	0	510	625	
3	0	0	0	0	510	625	
4	0	0	0	0	510	625	
5	0	0	0	0	510	625	
6	0	0	0	0	510	625	
7	0	0	0	0	510	625	
8	0	0	0	0	511	625	
9	0	0	0	0	511	625	
10	0	0	0	0	510	625	
11	0	0	0	0	510	625	
12	0	0	0	0	510	625	
13	0	0	0	0	511	625	
14	0	0	0	0	511	625	
15	0	0	0	0	511	625	
0	0	0	0	0	511	625	
1	0	0	0	0	511	625	
2	0	0	0	0	511	625	
3	0	0	0	0	511	625	
4	0	0	0	0	511	625	
5	0	0	0	0	511	625	
6	0	0	0	0	510	625	
7	0	0	0	0	511	625	
8	0	0	0	0	511	625	
9	0	0	0	0	511	624	
10	0	0	0	0	511	625	
11	0	0	0	0	510	624	
12	0	0	0	0	510	624	
13	0	0	0	0	510	625	
14	0	0	0	0	510	625	
15	0	0	0	0	510	625	
0	0	0	0	0	510	625	
1	0	0	0	0	509	625	
2	0	0	0	0	510	625	
3	0	0	0	0	510	625	
4	0	0	0	0	510	624	
5	0	0	0	0	510	624	
6	0	0	0	0	510	625	
7	0	0	0	0	510	624	
8	0	0	0	0	509	624	
9	0	0	0	0	509	624	
10	0	0	0	0	508	624	
11	0	0	0	0	508	624	
12	0	0	0	0	509	624	
13	0	0	0	0	508	624	
14	0	0	0	0	508	623	
15	0	0	0	0	508	624	
0	0	0	0	0	508	624	
1	0	0	0	0	508	623	
2	0	0	0	0	508	624	
3	0	0	0	0	508	624	
4	0	0	0	0	508	623	
5	0	0	0	0	508	624	
6	0	0	0	0	508	624	
7	0	0	0	0	508	624	
8	0	0	0	0	509	624	
9	0	0	0	0	509	624	
10	0	0	0	0	509	624	
11	0	0	0	0	508	624	
12	0	0	0	0	507	623	
13	0	0	0	0	507	624	
14	0	0	0	0	507	624	
15	0	0	0	0	507	623	
0	0	0	0	0	507	623	
1	0	0	0	0	508	623	
2	0	0	0	0	508	624	
3	0	0	0	0	507	623	
4	0	0	0	0	508	624	
5	0	0	0	0	508	623	
6	0	0	0	0	508	624	
7	0	0	0	0	508	623	
8	0	0	0	0	508	623	
9	0	0	0	0	508	624	
10	0	0	0	0	508	624	
11	0	0	0	0	508	624	
12	0	0	0	0	508	624	
13	0	0	0	0	509	623	
14	0	0	0	0	509	624	
15	0	0	0	0	509	623	
0	0	0	0	0	509	623	
1	0	0	0	0	508	623	
2	0	0	0	0	508	624	
3	0	0	0	0	508	623	
4	0	0	0	0	508	623	
5	0	0	0	0	508	623	
6	0	0	0	0	508	623	
7	0	0	0	0	507	624	
8	0	0	0	0	507	624	
9	0	0	0	0	508	624	
10	0	0	0	0	508	624	
11	0	0	0	0	508	623	
12	0	0	0	0	509	623	
13	0	0	0	0	509	623	
14	0	0	0	0	509	624	
15	0	0	0	0	509	624	
0	0	0	0	0	508	623	
1	0	0	0	0	508	624	
2	0	0	0	0	508	624	
3	0	0	0	0	508	624	
4	0	0	0	0	508	624	
5	0	0	0	0	508	624	
6	0	0	0	0	508	624	
7	0	0	0	0	507	624	
8	0	0	0	0	507	624	
9	0	0	0	0	506	624	
10	0	0	0	0	506	624	
11	0	0	0	0	505	624	
12	0	0	0	0	504	624	
13	0	0	0	0	502	625	
14	0	0	0	0	501	624	
15	0	0	0	0	500	625	
0	0	0	0	0	499	625	
1	0	0	0	0	499	625	
2	0	0	0	0	498	625	
3	0	0	0	0	497	625	
4	0	0	0	0	497	625	
5	0	0	0	0	497	625	
6	0	0	0	0	497	625	
7	0	0	0	0	497	625	
8	0	0	0	0	497	625	
9	0	0	0	0	498	625	
10	0	0	0	0	498	625	
11	0	0	0	0	499	624	
12	0	0	0	0	500	624	
13	0	0	0	0	501	624	
14	0	0	0	0	502	625	
15	0	0	0	0	502	625	
0	0	0	0	0	503	625	
1	0	0	0	0	503	625	
2	0	0	0	0	504	626	
3	0	0	0	0	504	625	
4	0	0	0	0	505	624	
5	0	0	0	0	505	624	
6	0	0	0	0	505	624	
7	0	0	0	0	506	624	
8	0	0	0	0	506	624	
9	0	0	0	0	507	624	
10	0	0	0	0	508	625	
11	0	0	0	0	508	625	
12	0	0	0	0	509	625	
13	0	0	0	0	509	625	
14	0	0	0	0	509	625	
15	0	0	0	0	510	625	
0	0	0	0	0	510	625	
1	0	0	0	0	510	625	
2	0	0	0	0	511	625	
3	0	0	0	0	512	624	
4	0	0	0	0	513	625	
5	0	0	0	0	513	625	
6	0	0	0	0	514	625	
7	0	0	0	0	513	625	
8	0	0	0	0	514	624	
9	0	0	0	0	515	625	
10	0	0	0	0	515	625	
11	0	0	0	0	516	624	
12	0	0	0	0	516	624	
13	0	0	0	0	516	625	
14	0	0	0	0	516	625	
15	0	0	0	0	516	625	
0	0	0	0	0	516	625	
1	0	0	0	0	516	625	
2	0	0	0	0	516	626	
3	0	0	0	0	516	625	
4	0	0	0	0	516	625	
5	0	0	0	0	515	625	
6	0	0	0	0	515	625	
7	0	0	0	0	515	625	
8	0	0	0	0	515	625	
9	0	0	0	0	515	625	
10	0	0	0	0	515	625	
11	0	0	0	0	516	625	
12	0	0	0	0	516	625	
13	0	0	0	0	516	625	
14	0	0	0	0	517	625	
15	0	0	0	0	517	625	
0	0	0	0	0	516	625	
1	0	0	0	0	517	625	
2	0	0	0	0	516	625	
3	0	0	0	0	516	625	
4	0	0	0	0	516	625	
5	0	0	0	0	516	625	
6	0	0	0	0	515	625	
7	0	0	0	0	515	625	
8	0	0	0	0	515	625	
9	0	0	0	0	515	624	
10	0	0	0	0	515	625	
11	0	0	0	0	515	624	
12	0	0	0	0	516	624	
13	0	0	0	0	516	623	
14	0	0	0	0	516	624	
15	0	0	0	0	516	624	
0	0	0	0	0	516	624	
1	0	0	0	0	517	624	
2	0	0	0	0	517	625	
3	0	0	0	0	516	624	
4	0	0	0	0	516	624	
5	0	0	0	0	515	624	
6	0	0	0	0	514	624	
7	0	0	0	0	515	623	
8	0	0	0	0	515	624	
9	0	0	0	0	515	624	
10	0	0	0	0	514	624	
11	0	0	0	0	514	623	
12	0	0	0	0	514	624	
13	0	0	0	0	515	623	
14	0	0	0	0	514	623	
15	0	0	0	0	514	623	
0	0	0	0	0	514	623	
1	0	0	0	0	515	623	
2	0	0	0	0	515	623	
3	0	0	0	0	515	623	
4	0	0	0	0	515	622	
5	0	0	0	0	515	622	
6	0	0	0	0	515	622	
7	0	0	0	0	514	622	
8	0	0	0	0	513	623	
9	0	0	0	0	512	622	
10	0	0	0	0	510	624	
11	0	0	0	0	509	622	
12	0	0	0	0	507	623	
13	0	0	0	0	504	623	
14	0	0	0	0	501	623	
15	0	0	0	0	499	623	
0	0	0	0	0	496	623	
1	0	0	0	0	492	623	
2	0	0	0	0	489	624	
3	0	0	0	0	488	622	
4	0	0	0	0	488	622	
5	0	0	0	0	490	623	
6	0	0	0	0	493	623	
7	0	0	0	0	497	623	
8	0	0	0	0	504	622	
9	0	0	0	0	512	623	
10	0	0	0	0	521	623	
11	0	0	0	0	531	623	
12	0	0	0	0	542	623	
13	0	0	0	0	556	623	
14	0	0	0	0	572	624	
15	0	0	0	0	591	623	
0	0	0	0	0	613	623	
1	0	0	0	0	636	623	
2	0	0	0	0	657	623	
3	0	0	0	0	675	623	
4	0	0	0	0	694	624	
5	0	0	0	0	713	624	
6	0	0	0	0	731	624	
7	0	0	0	0	744	624	
8	0	0	0	0	756	624	
9	0	0	0	0	769	624	
10	0	0	0	0	779	624	
11	0	0	0	0	787	624	
12	0	0	0	0	793	625	
13	0	0	0	0	798	625	
14	0	0	0	0	799	625	
15	0	0	0	0	794	625	
0	0	0	0	0	783	625	
1	0	0	0	0	765	625	
2	0	0	0	0	742	625	
3	0	0	0	0	717	625	
4	0	0	0	0	691	624	
5	0	0	0	0	663	625	
6	0	0	0	0	635	625	
7	0	0	0	0	607	625	
8	0	0	0	0	582	625	
9	0	0	0	0	560	625	
10	0	0	0	0	542	626	
11	0	0	0	0	527	625	
12	0	0	0	0	516	625	
13	0	0	0	0	509	625	
14	0	0	0	0	502	625	
15	0	0	0	0	496	625	
0	0	0	0	0	490	625	
1	0	0	0	0	486	625	
2	0	0	0	0	481	625	
3	0	0	0	0	477	625	
4	0	0	0	0	473	625	
5	0	0	0	0	470	625	
6	0	0	0	0	466	625	
7	0	0	0	0	463	625	
8	0	0	0	0	461	624	
9	0	0	0	0	460	625	
10	0	0	0	0	459	626	
11	0	0	0	0	458	625	
12	0	0	0	0	457	625	
13	0	0	0	0	456	625	
14	0	0	0	0	456	626	
15	0	0	0	0	455	625	
0	0	0	0	0	455	625	
1	0	0	0	0	455	625	
2	0	0	0	0	455	625	
3	0	0	0	0	455	625	
4	0	0	0	0	455	624	
5	0	0	0	0	455	624	
6	0	0	0	0	455	624	
7	0	0	0	0	455	625	
8	0	0	0	0	456	625	
9	0	0	0	0	456	625	
10	0	0	0	0	456	625	
11	0	0	0	0	456	624	
12	0	0	0	0	457	625	
13	0	0	0	0	457	624	
14	0	0	0	0	457	624	
15	0	0	0	0	457	624	
0	0	0	0	0	457	624	
1	0	0	0	0	458	623	
2	0	0	0	0	458	624	
3	0	0	0	0	459	624	
4	0	0	0	0	459	624	
5	0	0	0	0	460	624	
6	0	0	0	0	460	624	
7	0	0	0	0	459	624	
8	0	0	0	0	460	624	
9	0	0	0	0	460	624	
10	0	0	0	0	460	624	
11	0	0	0	0	461	624	
12	0	0	0	0	462	624	
13	0	0	0	0	463	624	
14	0	0	0	0	463	624	
15	0	0	0	0	464	624	
0	0	0	0	0	464	624	
1	0	0	0	0	465	623	
2	0	0	0	0	465	624	
3	0	0	0	0	466	624	
4	0	0	0	0	466	624	
5	0	0	0	0	466	624	
6	0	0	0	0	467	624	
7	0	0	0	0	467	624	
8	0	0	0	0	467	623	
9	0	0	0	0	468	624	
10	0	0	0	0	469	624	
11	0	0	0	0	469	624	
12	0	0	0	0	470	624	
13	0	0	0	0	471	624	
14	0	0	0	0	471	624	
15	0	0	0	0	472	624	
0	0	0	0	0	473	623	
1	0	0	0	0	473	623	
2	0	0	0	0	473	624	
3	0	0	0	0	473	624	
4	0	0	0	0	474	624	
5	0	0	0	0	474	624	
6	0	0	0	0	474	624	
7	0	0	0	0	474	624	
8	0	0	0	0	475	624	
9	0	0	0	0	475	624	
10	0	0	0	0	475	624	
11	0	0	0	0	476	624	
12	0	0	0	0	476	624	
13	0	0	0	0	476	624	
14	0	0	0	0	476	624	
15	0	0	0	0	476	624	
0	0	0	0	0	476	624	
1	0	0	0	0	476	624	
2	0	0	0	0	476	624	
3	0	0	0	0	476	624	
4	0	0	0	0	477	624	
5	0	0	0	0	476	624	
6	0	0	0	0	476	624	
7	0	0	0	0	476	624	
8	0	0	0	0	477	624	
9	0	0	0	0	477	624	
10	0	0	0	0	477	624	
11	0	0	0	0	477	624	
12	0	0	0	0	478	624	
13	0	0	0	0	479	624	
14	0	0	0	0	479	624	
15	0	0	0	0	480	624	
0	0	0	0	0	480	624	
1	0	0	0	0	481	624	
2	0	0	0	0	480	624	
3	0	0	0	0	480	624	
4	0	0	0	0	480	623	
5	0	0	0	0	480	624	
6	0	0	0	0	480	623	
7	0	0	0	0	481	623	
8	0	0	0	0	480	624	
9	0	0	0	0	480	624	
10	0	0	0	0	481	624	
11	0	0	0	0	481	624	
12	0	0	0	0	481	624	
13	0	0	0	0	480	623	
14	0	0	0	0	481	624	
15	0	0	0	0	481	624	
0	0	0	0	0	482	624	
1	0	0	0	0	482	624	
2	0	0	0	0	482	624	
3	0	0	0	0	482	624	
4	0	0	0	0	483	624	
5	0	0	0	0	482	624	
6	0	0	0	0	483	624	
7	0	0	0	0	483	624	
8	0	0	0	0	483	624	
9	0	0	0	0	483	624	
10	0	0	0	0	483	625	
11	0	0	0	0	483	625	
12	0	0	0	0	483	625	
13	0	0	0	0	483	625	
14	0	0	0	0	483	625	
15	0	0	0	0	483	625	
0	0	0	0	0	483	625	
1	0	0	0	0	483	625	
2	0	0	0	0	483	626	
3	0	0	0	0	482	625	
4	0	0	0	0	482	625	
5	0	0	0	0	482	625	
6	0	0	0	0	483	625	
7	0	0	0	0	483	626	
8	0	0	0	0	483	627	
9	0	0	0	0	483	626	
10	0	0	0	0	483	626	
11	0	0	0	0	483	626	
12	0	0	0	0	484	626	
13	0	0	0	0	484	627	
14	0	0	0	0	484	627	
15	0	0	0	0	484	626	
0	0	0	0	0	484	625	
1	0	0	0	0	484	626	
2	0	0	0	0	484	627	
3	0	0	0	0	485	626	
4	0	0	0	0	485	625	
5	0	0	0	0	486	626	
6	0	0	0	0	486	625	
7	0	0	0	0	486	625	
8	0	0	0	0	486	626	
9	0	0	0	0	486	625	
10	0	0	0	0	487	626	
11	0	0	0	0	487	625	
12	0	0	0	0	487	625	
13	0	0	0	0	488	625	
14	0	0	0	0	488	626	
15	0	0	0	0	488	625	
0	0	0	0	0	488	625	
1	0	0	0	0	487	625	
2	0	0	0	0	488	626	
3	0	0	0	0	488	624	
4	0	0	0	0	489	625	
5	0	0	0	0	489	624	
6	0	0	0	0	489	624	
7	0	0	0	0	489	624	
8	0	0	0	0	490	624	
9	0	0	0	0	491	624	
10	0	0	0	0	492	624	
11	0	0	0	0	493	624	
12	0	0	0	0	493	624	
13	0	0	0	0	494	624	
14	0	0	0	0	494	624	
15	0	0	0	0	495	624	
0	0	0	0	0	496	623	
1	0	0	0	0	496	624	
2	0	0	0	0	497	624	
3	0	0	0	0	498	624	
4	0	0	0	0	499	624	
5	0	0	0	0	499	624	
6	0	0	0	0	500	624	
7	0	0	0	0	501	624	
8	0	0	0	0	502	624	
9	0	0	0	0	503	624	
10	0	0	0	0	503	625	
11	0	0	0	0	503	624	
12	0	0	0	0	503	624	
13	0	0	0	0	504	624	
14	0	0	0	0	504	624	
15	0	0	0	0	504	624	
0	0	0	0	0	504	624	
1	0	0	0	0	504	624	
2	0	0	0	0	504	625	
3	0	0	0	0	504	624	
4	0	0	0	0	505	624	
5	0	0	0	0	506	624	
6	0	0	0	0	506	624	
7	0	0	0	0	507	624	
8	0	0	0	0	507	624	
9	0	0	0	0	507	624	
10	0	0	0	0	508	624	
11	0	0	0	0	508	623	
12	0	0	0	0	509	624	
13	0	0	0	0	509	624	
14	0	0	0	0	509	624	
15	0	0	0	0	509	624	
0	0	0	0	0	509	625	
1	0	0	0	0	509	624	
2	0	0	0	0	509	625	
3	0	0	0	0	509	624	
4	0	0	0	0	509	624	
5	0	0	0	0	509	624	
6	0	0	0	0	509	624	
7	0	0	0	0	508	625	
8	0	0	0	0	509	624	
9	0	0	0	0	509	624	
10	0	0	0	0	509	625	
11	0	0	0	0	508	625	
12	0	0	0	0	508	625	
13	0	0	0	0	508	624	
14	0	0	0	0	507	625	
15	0	0	0	0	507	625	
0	0	0	0	0	506	625	
1	0	0	0	0	506	624	
2	0	0	0	0	506	625	
3	0	0	0	0	506	625	
4	0	0	0	0	506	625	
5	0	0	0	0	505	624	
6	0	0	0	0	506	625	
7	0	0	0	0	505	624	
8	0	0	0	0	505	625	
9	0	0	0	0	504	625	
10	0	0	0	0	504	625	
11	0	0	0	0	503	625	
12	0	0	0	0	503	625	
13	0	0	0	0	504	624	
14	0	0	0	0	503	624	
15	0	0	0	0	503	624	
0	0	0	0	0	504	624	
1	0	0	0	0	504	624	
2	0	0	0	0	504	624	
3	0	0	0	0	504	624	
4	0	0	0	0	505	624	
5	0	0	0	0	505	624	
6	0	0	0	0	505	624	
7	0	0	0	0	505	624	
8	0	0	0	0	505	624	
9	0	0	0	0	505	624	
10	0	0	0	0	505	625	
11	0	0	0	0	505	625	
12	0	0	0	0	505	624	
13	0	0	0	0	505	624	
14	0	0	0	0	506	624	
15	0	0	0	0	505	624	
0	0	0	0	0	505	624	
1	0	0	0	0	505	624	
2	0	0	0	0	505	624	
3	0	0	0	0	504	625	
4	0	0	0	0	504	624	
5	0	0	0	0	504	624	
6	0	0	0	0	504	624	
7	0	0	0	0	503	624	
8	0	0	0	0	503	624	
9	0	0	0	0	503	624	
10	0	0	0	0	504	625	
11	0	0	0	0	504	624	
12	0	0	0	0	505	624	
13	0	0	0	0	506	624	
14	0	0	0	0	505	624	
15	0	0	0	0	505	624	
0	0	0	0	0	506	624	
1	0	0	0	0	507	624	
2	0	0	0	0	507	624	
3	0	0	0	0	508	624	
4	0	0	0	0	508	624	
5	0	0	0	0	508	624	
6	0	0	0	0	508	624	
7	0	0	0	0	508	624	
8	0	0	0	0	509	624	
9	0	0	0	0	509	624	
10	0	0	0	0	508	624	
11	0	0	0	0	509	623	
12	0	0	0	0	509	624	
13	0	0	0	0	509	624	
14	0	0	0	0	510	624	
15	0	0	0	0	509	624	
0	0	0	0	0	509	624	
1	0	0	0	0	509	624	
2	0	0	0	0	510	624	
3	0	0	0	0	510	624	
4	0	0	0	0	511	623	
5	0	0	0	0	511	623	
6	0	0	0	0	511	624	
7	0	0	0	0	511	624	
8	0	0	0	0	512	624	
9	0	0	0	0	511	624	
10	0	0	0	0	511	625	
11	0	0	0	0	511	624	
12	0	0	0	0	512	624	
13	0	0	0	0	512	624	
14	0	0	0	0	512	625	
15	0	0	0	0	512	624	
0	0	0	0	0	512	624	
1	0	0	0	0	512	624	
2	0	0	0	0	512	625	
3	0	0	0	0	512	624	
4	0	0	0	0	512	624	
5	0	0	0	0	512	625	
6	0	0	0	0	512	625	
7	0	0	0	0	513	625	
8	0	0	0	0	513	624	
9	0	0	0	0	513	624	
10	0	0	0	0	513	624	
11	0	0	0	0	513	624	
12	0	0	0	0	513	624	
13	0	0	0	0	513	624	
14	0	0	0	0	513	624	
15	0	0	0	0	513	624	
0	0	0	0	0	513	624	
1	0	0	0	0	513	624	
2	0	0	0	0	513	625	
3	0	0	0	0	513	624	
4	0	0	0	0	513	624	
5	0	0	0	0	512	624	
6	0	0	0	0	512	624	
7	0	0	0	0	513	624	
8	0	0	0	0	513	624	
9	0	0	0	0	513	624	
10	0	0	0	0	513	624	
11	0	0	0	0	513	624	
12	0	0	0	0	513	624	
13	0	0	0	0	514	624	
14	0	0	0	0	514	625	
15	0	0	0	0	513	624	
0	0	0	0	0	513	624	
1	0	0	0	0	513	623	
2	0	0	0	0	514	624	
3	0	0	0	0	513	624	
4	0	0	0	0	513	624	
5	0	0	0	0	514	624	
6	0	0	0	0	515	625	
7	0	0	0	0	514	624	
8	0	0	0	0	514	624	
9	0	0	0	0	513	624	
10	0	0	0	0	514	624	
11	0	0	0	0	514	624	
12	0	0	0	0	513	624	
13	0	0	0	0	513	624	
14	0	0	0	0	513	624	
15	0	0	0	0	514	624	
0	0	0	0	0	514	624	
1	0	0	0	0	514	624	
2	0	0	0	0	514	624	
3	0	0	0	0	515	624	
4	0	0	0	0	515	624	
5	0	0	0	0	515	624	
6	0	0	0	0	515	624	
7	0	0	0	0	515	624	
8	0	0	0	0	515	624	
9	0	0	0	0	514	624	
10	0	0	0	0	514	625	
11	0	0	0	0	513	624	
12	0	0	0	0	513	624	
13	0	0	0	0	513	624	
14	0	0	0	0	513	624	
15	0	0	0	0	513	625	
0	0	0	0	0	513	624	
1	0	0	0	0	513	624	
2	0	0	0	0	513	624	
3	0	0	0	0	514	624	
4	0	0	0	0	513	625	
5	0	0	0	0	513	625	
6	0	0	0	0	513	625	
7	0	0	0	0	513	624	
8	0	0	0	0	514	624	
9	0	0	0	0	515	624	
10	0	0	0	0	515	624	
11	0	0	0	0	515	624	
12	0	0	0	0	515	624	
13	0	0	0	0	515	624	
14	0	0	0	0	515	624	
15	0	0	0	0	515	624	
0	0	0	0	0	514	624	
1	0	0	0	0	515	624	
2	0	0	0	0	515	624	
3	0	0	0	0	515	624	
4	0	0	0	0	515	624	
5	0	0	0	0	514	625	
6	0	0	0	0	514	624	
7	0	0	0	0	514	624	
8	0	0	0	0	514	624	
9	0	0	0	0	514	624	
10	0	0	0	0	515	625	
11	0	0	0	0	515	625	
12	0	0	0	0	515	625	
13	0	0	0	0	515	624	
14	0	0	0	0	515	625	
15	0	0	0	0	515	625	
0	0	0	0	0	515	624	
1	0	0	0	0	515	624	
2	0	0	0	0	515	625	
3	0	0	0	0	516	624	
4	0	0	0	0	517	624	
5	0	0	0	0	517	624	
6	0	0	0	0	517	624	
7	0	0	0	0	516	624	
8	0	0	0	0	516	624	
9	0	0	0	0	516	624	
10	0	0	0	0	516	624	
11	0	0	0	0	516	624	
12	0	0	0	0	515	624	
13	0	0	0	0	516	624	
14	0	0	0	0	516	625	
15	0	0	0	0	516	624	
0	0	0	0	0	516	624	
1	0	0	0	0	516	625	
2	0	0	0	0	516	625	
3	0	0	0	0	516	624	
4	0	0	0	0	516	624	
5	0	0	0	0	516	625	
6	0	0	0	0	516	625	
7	0	0	0	0	516	625	
8	0	0	0	0	516	625	
9	0	0	0	0	518	624	
10	0	0	0	0	518	625	
11	0	0	0	0	518	624	
12	0	0	0	0	517	624	
13	0	0	0	0	518	625	
14	0	0	0	0	517	625	
15	0	0	0	0	517	624	
0	0	0	0	0	518	625	
1	0	0	0	0	518	625	
2	0	0	0	0	517	625	
3	0	0	0	0	518	625	
4	0	0	0	0	518	625	
5	0	0	0	0	517	625	
6	0	0	0	0	517	625	
7	0	0	0	0	517	625	
8	0	0	0	0	517	625	
9	0	0	0	0	517	625	
10	0	0	0	0	517	625	
11	0	0	0	0	517	625	
12	0	0	0	0	517	625	
13	0	0	0	0	517	624	
14	0	0	0	0	517	625	
15	0	0	0	0	517	625	
0	0	0	0	0	517	624	
1	0	0	0	0	517	625	
2	0	0	0	0	517	625	
3	0	0	0	0	517	625	
4	0	0	0	0	516	625	
5	0	0	0	0	517	625	
6	0	0	0	0	517	625	
7	0	0	0	0	517	625	
8	0	0	0	0	517	625	
9	0	0	0	0	517	624	
10	0	0	0	0	518	625	
11	0	0	0	0	518	624	
12	0	0	0	0	518	624	
13	0	0	0	0	517	624	
14	0	0	0	0	517	624	
15	0	0	0	0	517	624	
0	0	0	0	0	516	624	
1	0	0	0	0	517	624	
2	0	0	0	0	517	624	
3	0	0	0	0	517	624	
4	0	0	0	0	517	624	
5	0	0	0	0	517	624	
6	0	0	0	0	517	625	
7	0	0	0	0	517	623	
8	0	0	0	0	517	624	
9	0	0	0	0	517	624	
10	0	0	0	0	516	624	
11	0	0	0	0	517	624	
12	0	0	0	0	517	624	
13	0	0	0	0	517	624	
14	0	0	0	0	517	624	
15	0	0	0	0	516	623	
0	0	0	0	0	516	623	
1	0	0	0	0	515	624	
2	0	0	0	0	515	624	
3	0	0	0	0	515	623	
4	0	0	0	0	515	623	
5	0	0	0	0	515	624	
6	0	0	0	0	515	624	
7	0	0	0	0	514	623	
8	0	0	0	0	514	623	
9	0	0	0	0	515	622	
10	0	0	0	0	514	623	
11	0	0	0	0	514	623	
12	0	0	0	0	514	622	
13	0	0	0	0	513	623	
14	0	0	0	0	513	623	
15	0	0	0	0	513	623	
0	0	0	0	0	513	623	
1	0	0	0	0	513	623	
2	0	0	0	0	514	623	
3	0	0	0	0	513	623	
4	0	0	0	0	513	623	
5	0	0	0	0	513	623	
6	0	0	0	0	513	623	
7	0	0	0	0	513	623	
8	0	0	0	0	513	623	
9	0	0	0	0	513	623	
10	0	0	0	0	514	624	
11	0	0	0	0	514	624	
12	0	0	0	0	513	624	
13	0	0	0	0	513	624	
14	0	0	0	0	513	624	
15	0	0	0	0	514	624	
0	0	0	0	0	513	623	
1	0	0	0	0	513	623	
2	0	0	0	0	513	624	
3	0	0	0	0	513	624	
4	0	0	0	0	513	624	
5	0	0	0	0	513	624	
6	0	0	0	0	512	624	
7	0	0	0	0	512	624	
8	0	0	0	0	511	624	
9	0	0	0	0	510	624	
10	0	0	0	0	509	625	
11	0	0	0	0	509	625	
12	0	0	0	0	508	625	
13	0	0	0	0	507	624	
14	0	0	0	0	507	624	
15	0	0	0	0	506	624	
0	0	0	0	0	505	624	
1	0	0	0	0	504	625	
2	0	0	0	0	504	625	
3	0	0	0	0	503	625	
4	0	0	0	0	503	624	
5	0	0	0	0	502	624	
6	0	0	0	0	502	625	
7	0	0	0	0	502	624	
8	0	0	0	0	503	624	
9	0	0	0	0	503	624	
10	0	0	0	0	503	625	
11	0	0	0	0	504	625	
12	0	0	0	0	504	625	
13	0	0	0	0	505	625	
14	0	0	0	0	505	625	
15	0	0	0	0	505	625	
0	0	0	0	0	505	625	
1	0	0	0	0	505	625	
2	0	0	0	0	505	625	
3	0	0	0	0	506	625	
4	0	0	0	0	506	625	
5	0	0	0	0	506	625	
6	0	0	0	0	506	625	
7	0	0	0	0	507	625	
8	0	0	0	0	507	625	
9	0	0	0	0	508	625	
10	0	0	0	0	509	625	
11	0	0	0	0	509	625	
12	0	0	0	0	508	625	
13	0	0	0	0	509	625	
14	0	0	0	0	509	625	
15	0	0	0	0	509	625	
0	0	0	0	0	510	625	
1	0	0	0	0	510	625	
2	0	0	0	0	510	625	
3	0	0	0	0	511	625	
4	0	0	0	0	511	625	
5	0	0	0	0	512	624	
6	0	0	0	0	512	625	
7	0	0	0	0	512	624	
8	0	0	0	0	513	625	
9	0	0	0	0	513	625	
10	0	0	0	0	514	625	
11	0	0	0	0	515	625	
12	0	0	0	0	515	624	
13	0	0	0	0	515	624	
14	0	0	0	0	514	624	
15	0	0	0	0	514	624	
0	0	0	0	0	513	624	
1	0	0	0	0	513	623	
2	0	0	0	0	513	624	
3	0	0	0	0	513	624	
4	0	0	0	0	513	624	
5	0	0	0	0	513	624	
6	0	0	0	0	512	624	
7	0	0	0	0	512	624	
8	0	0	0	0	512	624	
9	0	0	0	0	512	623	
10	0	0	0	0	512	624	
11	0	0	0	0	512	624	
12	0	0	0	0	512	624	
13	0	0	0	0	511	624	
14	0	0	0	0	511	624	
15	0	0	0	0	510	624	
0	0	0	0	0	510	623	
1	0	0	0	0	511	623	
2	0	0	0	0	511	624	
3	0	0	0	0	511	623	
4	0	0	0	0	511	624	
5	0	0	0	0	511	624	
6	0	0	0	0	511	624	
7	0	0	0	0	511	624	
8	0	0	0	0	510	624	
9	0	0	0	0	510	623	
10	0	0	0	0	510	624	
11	0	0	0	0	510	624	
12	0	0	0	0	509	624	
13	0	0	0	0	509	624	
14	0	0	0	0	508	624	
15	0	0	0	0	508	624	
0	0	0	0	0	508	624	
1	0	0	0	0	508	624	
2	0	0	0	0	508	624	
3	0	0	0	0	507	625	
4	0	0	0	0	507	624	
5	0	0	0	0	507	624	
6	0	0	0	0	507	624	
7	0	0	0	0	507	624	
8	0	0	0	0	508	624	
9	0	0	0	0	507	624	
10	0	0	0	0	507	625	
11	0	0	0	0	507	625	
12	0	0	0	0	507	625	
13	0	0	0	0	507	624	
14	0	0	0	0	507	625	
15	0	0	0	0	507	625	
0	0	0	0	0	507	625	
1	0	0	0	0	507	625	
2	0	0	0	0	507	626	
3	0	0	0	0	507	625	
4	0	0	0	0	508	625	
5	0	0	0	0	508	625	
6	0	0	0	0	508	625	
7	0	0	0	0	508	625	
8	0	0	0	0	508	625	
9	0	0	0	0	508	625	
10	0	0	0	0	507	625	
11	0	0	0	0	505	625	
12	0	0	0	0	505	625	
13	0	0	0	0	504	624	
14	0	0	0	0	502	625	
15	0	0	0	0	500	625	
0	0	0	0	0	499	624	
1	0	0	0	0	497	624	
2	0	0	0	0	495	625	
3	0	0	0	0	493	624	
4	0	0	0	0	491	625	
5	0	0	0	0	488	624	
6	0	0	0	0	487	624	
7	0	0	0	0	486	624	
8	0	0	0	0	487	624	
9	0	0	0	0	489	624	
10	0	0	0	0	493	624	
11	0	0	0	0	499	624	
12	0	0	0	0	506	624	
13	0	0	0	0	515	624	
14	0	0	0	0	524	624	
15	0	0	0	0	533	623	
0	0	0	0	0	543	623	
1	0	0	0	0	556	624	
2	0	0	0	0	572	624	
3	0	0	0	0	591	623	
4	0	0	0	0	613	624	
5	0	0	0	0	634	623	
6	0	0	0	0	652	624	
7	0	0	0	0	669	624	
8	0	0	0	0	688	623	
9	0	0	0	0	706	623	
10	0	0	0	0	722	624	
11	0	0	0	0	735	623	
12	0	0	0	0	744	623	
13	0	0	0	0	753	623	
14	0	0	0	0	759	623	
15	0	0	0	0	764	622	
0	0	0	0	0	768	623	
1	0	0	0	0	769	623	
2	0	0	0	0	764	623	
3	0	0	0	0	755	622	
4	0	0	0	0	740	622	
5	0	0	0	0	721	622	
6	0	0	0	0	699	622	
7	0	0	0	0	676	623	
8	0	0	0	0	652	623	
9	0	0	0	0	626	622	
10	0	0	0	0	600	623	
11	0	0	0	0	576	622	
12	0	0	0	0	555	622	
13	0	0	0	0	537	622	
14	0	0	0	0	524	622	
15	0	0	0	0	513	622	
0	0	0	0	0	505	622	
1	0	0	0	0	499	622	
2	0	0	0	0	494	623	
3	0	0	0	0	489	623	
4	0	0	0	0	484	623	
5	0	0	0	0	480	623	
6	0	0	0	0	476	623	
7	0	0	0	0	472	624	
8	0	0	0	0	469	623	
9	0	0	0	0	466	624	
10	0	0	0	0	463	624	
11	0	0	0	0	460	623	
12	0	0	0	0	458	624	
13	0	0	0	0	456	623	
14	0	0	0	0	455	624	
15	0	0	0	0	453	624	
0	0	0	0	0	452	624	
1	0	0	0	0	451	624	
2	0	0	0	0	450	624	
3	0	0	0	0	450	624	
4	0	0	0	0	450	624	
5	0	0	0	0	451	623	
6	0	0	0	0	451	624	
7	0	0	0	0	452	624	
8	0	0	0	0	452	624	
9	0	0	0	0	453	624	
10	0	0	0	0	453	624	
11	0	0	0	0	454	624	
12	0	0	0	0	454	624	
13	0	0	0	0	454	624	
14	0	0	0	0	453	624	
15	0	0	0	0	454	625	
0	0	0	0	0	454	624	
1	0	0	0	0	454	624	
2	0	0	0	0	454	625	
3	0	0	0	0	454	624	
4	0	0	0	0	455	624	
5	0	0	0	0	454	625	
6	0	0	0	0	455	625	
7	0	0	0	0	454	625	
8	0	0	0	0	454	624	
9	0	0	0	0	455	625	
10	0	0	0	0	455	625	
11	0	0	0	0	456	625	
12	0	0	0	0	456	624	
13	0	0	0	0	457	624	
14	0	0	0	0	458	625	
15	0	0	0	0	458	625	
0	0	0	0	0	459	625	
1	0	0	0	0	460	625	
2	0	0	0	0	460	625	
3	0	0	0	0	461	625	
4	0	0	0	0	462	625	
5	0	0	0	0	462	625	
6	0	0	0	0	462	625	
7	0	0	0	0	462	625	
8	0	0	0	0	461	625	
9	0	0	0	0	461	625	
10	0	0	0	0	462	625	
11	0	0	0	0	462	625	
12	0	0	0	0	462	625	
13	0	0	0	0	463	625	
14	0	0	0	0	464	625	
15	0	0	0	0	464	625	
0	0	0	0	0	464	625	
1	0	0	0	0	465	625	
2	0	0	0	0	465	626	
3	0	0	0	0	464	626	
4	0	0	0	0	464	626	
5	0	0	0	0	466	625	
6	0	0	0	0	467	626	
7	0	0	0	0	467	626	
8	0	0	0	0	468	625	
9	0	0	0	0	468	626	
10	0	0	0	0	469	626	
11	0	0	0	0	469	626	
12	0	0	0	0	470	625	
13	0	0	0	0	470	626	
14	0	0	0	0	470	626	
15	0	0	0	0	470	626	
0	0	0	0	0	471	625	
1	0	0	0	0	471	625	
2	0	0	0	0	471	626	
3	0	0	0	0	472	626	
4	0	0	0	0	472	625	
5	0	0	0	0	472	625	
6	0	0	0	0	473	626	
7	0	0	0	0	474	626	
8	0	0	0	0	475	626	
9	0	0	0	0	475	626	
10	0	0	0	0	475	627	
11	0	0	0	0	475	626	
12	0	0	0	0	475	627	
13	0	0	0	0	476	626	
14	0	0	0	0	475	626	
15	0	0	0	0	476	626	
0	0	0	0	0	476	626	
1	0	0	0	0	476	626	
2	0	0	0	0	476	626	
3	0	0	0	0	476	626	
4	0	0	0	0	476	626	
5	0	0	0	0	476	626	
6	0	0	0	0	476	626	
7	0	0	0	0	476	625	
8	0	0	0	0	476	625	
9	0	0	0	0	476	625	
10	0	0	0	0	477	626	
11	0	0	0	0	478	625	
12	0	0	0	0	478	625	
13	0	0	0	0	479	625	
14	0	0	0	0	479	625	
15	0	0	0	0	479	625	
0	0	0	0	0	479	625	
1	0	0	0	0	479	625	
2	0	0	0	0	480	625	
3	0	0	0	0	480	625	
4	0	0	0	0	479	625	
5	0	0	0	0	478	625	
6	0	0	0	0	478	625	
7	0	0	0	0	478	625	
8	0	0	0	0	478	624	
9	0	0	0	0	479	624	
10	0	0	0	0	479	625	
11	0	0	0	0	480	624	
12	0	0	0	0	479	624	
13	0	0	0	0	480	624	
14	0	0	0	0	480	625	
15	0	0	0	0	481	624	
0	0	0	0	0	481	624	
1	0	0	0	0	482	624	
2	0	0	0	0	481	624	
3	0	0	0	0	481	624	
4	0	0	0	0	480	624	
5	0	0	0	0	480	624	
6	0	0	0	0	480	624	
7	0	0	0	0	479	623	
8	0	0	0	0	479	624	
9	0	0	0	0	479	624	
10	0	0	0	0	479	624	
11	0	0	0	0	479	623	
12	0	0	0	0	479	623	
13	0	0	0	0	479	624	
14	0	0	0	0	480	624	
15	0	0	0	0	481	623	
0	0	0	0	0	482	623	
1	0	0	0	0	483	623	
2	0	0	0	0	483	623	
3	0	0	0	0	483	623	
4	0	0	0	0	484	623	
5	0	0	0	0	484	622	
6	0	0	0	0	484	622	
7	0	0	0	0	484	622	
8	0	0	0	0	484	622	
9	0	0	0	0	484	623	
10	0	0	0	0	484	623	
11	0	0	0	0	484	622	
12	0	0	0	0	485	623	
13	0	0	0	0	484	623	
14	0	0	0	0	484	623	
15	0	0	0	0	485	623	
0	0	0	0	0	486	623	
1	0	0	0	0	487	624	
2	0	0	0	0	488	624	
3	0	0	0	0	488	623	
4	0	0	0	0	489	624	
5	0	0	0	0	490	624	
6	0	0	0	0	490	624	
7	0	0	0	0	491	624	
8	0	0	0	0	491	624	
9	0	0	0	0	491	624	
10	0	0	0	0	491	625	
11	0	0	0	0	491	624	
12	0	0	0	0	491	625	
13	0	0	0	0	492	625	
14	0	0	0	0	492	624	
15	0	0	0	0	492	624	
0	0	0	0	0	494	624	
1	0	0	0	0	495	624	
2	0	0	0	0	496	625	
3	0	0	0	0	496	624	
4	0	0	0	0	497	625	
5	0	0	0	0	497	624	
6	0	0	0	0	498	624	
7	0	0	0	0	498	624	
8	0	0	0	0	498	624	
9	0	0	0	0	499	624	
10	0	0	0	0	499	624	
11	0	0	0	0	499	624	
12	0	0	0	0	499	624	
13	0	0	0	0	499	624	
14	0	0	0	0	499	624	
15	0	0	0	0	500	624	
0	0	0	0	0	500	624	
1	0	0	0	0	501	624	
2	0	0	0	0	502	624	
3	0	0	0	0	502	624	
4	0	0	0	0	503	624	
5	0	0	0	0	503	624	
6	0	0	0	0	504	624	
7	0	0	0	0	504	624	
8	0	0	0	0	504	624	
9	0	0	0	0	505	624	
10	0	0	0	0	506	625	
11	0	0	0	0	506	624	
12	0	0	0	0	507	624	
13	0	0	0	0	507	624	
14	0	0	0	0	508	624	
15	0	0	0	0	508	624	
0	0	0	0	0	508	624	
1	0	0	0	0	508	624	
2	0	0	0	0	507	624	
3	0	0	0	0	507	624	
4	0	0	0	0	506	624	
5	0	0	0	0	505	624	
6	0	0	0	0	506	624	
7	0	0	0	0	505	624	
8	0	0	0	0	506	624	
9	0	0	0	0	505	624	
10	0	0	0	0	505	624	
11	0	0	0	0	505	624	
12	0	0	0	0	505	624	
13	0	0	0	0	504	624	
14	0	0	0	0	503	624	
15	0	0	0	0	503	624	
0	0	0	0	0	502	624	
1	0	0	0	0	501	624	
2	0	0	0	0	500	624	
3	0	0	0	0	500	625	
4	0	0	0	0	499	624	
5	0	0	0	0	499	624	
6	0	0	0	0	499	624	
7	0	0	0	0	499	624	
8	0	0	0	0	499	624	
9	0	0	0	0	499	624	
10	0	0	0	0	498	625	
11	0	0	0	0	499	625	
12	0	0	0	0	499	624	
13	0	0	0	0	499	625	
14	0	0	0	0	499	625	
15	0	0	0	0	499	625	
0	0	0	0	0	499	626	
1	0	0	0	0	498	626	
2	0	0	0	0	497	626	
3	0	0	0	0	497	625	
4	0	0	0	0	497	625	
5	0	0	0	0	496	625	
6	0	0	0	0	496	625	
7	0	0	0	0	495	625	
8	0	0	0	0	496	626	
9	0	0	0	0	496	626	
10	0	0	0	0	495	627	
11	0	0	0	0	495	626	
12	0	0	0	0	495	626	
13	0	0	0	0	495	625	
14	0	0	0	0	496	625	
15	0	0	0	0	496	625	
0	0	0	0	0	496	626	
1	0	0	0	0	496	626	
2	0	0	0	0	496	626	
3	0	0	0	0	496	626	
4	0	0	0	0	497	626	
5	0	0	0	0	497	626	
6	0	0	0	0	498	626	
7	0	0	0	0	498	626	
8	0	0	0	0	499	626	
9	0	0	0	0	500	626	
10	0	0	0	0	500	627	
11	0	0	0	0	500	626	
12	0	0	0	0	500	626	
13	0	0	0	0	500	626	
14	0	0	0	0	501	626	
15	0	0	0	0	500	626	
0	0	0	0	0	500	626	
1	0	0	0	0	501	625	
2	0	0	0	0	501	626	
3	0	0	0	0	502	626	
4	0	0	0	0	502	625	
5	0	0	0	0	502	625	
6	0	0	0	0	503	625	
7	0	0	0	0	503	625	
8	0	0	0	0	503	625	
9	0	0	0	0	503	625	
10	0	0	0	0	504	626	
11	0	0	0	0	504	625	
12	0	0	0	0	504	625	
13	0	0	0	0	504	625	
14	0	0	0	0	504	625	
15	0	0	0	0	504	624	
0	0	0	0	0	504	624	
1	0	0	0	0	505	624	
2	0	0	0	0	505	625	
3	0	0	0	0	506	624	
4	0	0	0	0	506	624	
5	0	0	0	0	506	624	
6	0	0	0	0	507	624	
7	0	0	0	0	507	624	
8	0	0	0	0	507	624	
9	0	0	0	0	508	624	
10	0	0	0	0	508	624	
11	0	0	0	0	508	623	
12	0	0	0	0	509	623	
13	0	0	0	0	509	623	
14	0	0	0	0	509	623	
15	0	0	0	0	509	622	
0	0	0	0	0	509	623	
1	0	0	0	0	509	623	
2	0	0	0	0	509	623	
3	0	0	0	0	509	622	
4	0	0	0	0	509	622	
5	0	0	0	0	509	623	
6	0	0	0	0	509	622	
7	0	0	0	0	509	622	
8	0	0	0	0	509	622	
9	0	0	0	0	510	622	
10	0	0	0	0	510	623	
11	0	0	0	0	510	622	
12	0	0	0	0	510	622	
13	0	0	0	0	510	623	
14	0	0	0	0	510	623	
15	0	0	0	0	510	623	
0	0	0	0	0	510	623	
1	0	0	0	0	510	623	
2	0	0	0	0	511	624	
3	0	0	0	0	510	624	
4	0	0	0	0	510	623	
5	0	0	0	0	511	623	
6	0	0	0	0	510	624	
7	0	0	0	0	510	624	
8	0	0	0	0	510	624	
9	0	0	0	0	510	624	
10	0	0	0	0	511	624	
11	0	0	0	0	510	624	
12	0	0	0	0	510	624	
13	0	0	0	0	510	624	
14	0	0	0	0	509	624	
15	0	0	0	0	510	623	
0	0	0	0	0	509	624	
1	0	0	0	0	509	624	
2	0	0	0	0	509	625	
3	0	0	0	0	509	623	
4	0	0	0	0	508	624	
5	0	0	0	0	509	624	
6	0	0	0	0	510	624	
7	0	0	0	0	510	624	
8	0	0	0	0	510	624	
9	0	0	0	0	511	624	
10	0	0	0	0	511	625	
11	0	0	0	0	511	623	
12	0	0	0	0	512	624	
13	0	0	0	0	512	624	
14	0	0	0	0	512	624	
15	0	0	0	0	512	624	
0	0	0	0	0	512	624	
1	0	0	0	0	511	624	
2	0	0	0	0	512	624	
3	0	0	0	0	512	624	
4	0	0	0	0	512	624	
5	0	0	0	0	512	623	
6	0	0	0	0	512	624	
7	0	0	0	0	512	624	
8	0	0	0	0	512	623	
9	0	0	0	0	512	624	
10	0	0	0	0	512	624	
11	0	0	0	0	512	624	
12	0	0	0	0	511	624	
13	0	0	0	0	511	624	
14	0	0	0	0	511	624	
15	0	0	0	0	511	624	
0	0	0	0	0	511	624	
1	0	0	0	0	510	624	
2	0	0	0	0	510	625	
3	0	0	0	0	510	624	
4	0	0	0	0	511	624	
5	0	0	0	0	511	625	
6	0	0	0	0	510	625	
7	0	0	0	0	511	625	
8	0	0	0	0	511	625	
9	0	0	0	0	511	624	
10	0	0	0	0	511	625	
11	0	0	0	0	511	624	
12	0	0	0	0	511	625	
13	0	0	0	0	512	625	
14	0	0	0	0	511	624	
15	0	0	0	0	511	625	
0	0	0	0	0	511	625	
1	0	0	0	0	511	625	
2	0	0	0	0	512	626	
3	0	0	0	0	512	625	
4	0	0	0	0	512	625	
5	0	0	0	0	512	625	
6	0	0	0	0	513	624	
7	0	0	0	0	513	625	
8	0	0	0	0	514	625	
9	0	0	0	0	513	625	
10	0	0	0	0	513	625	
11	0	0	0	0	514	625	
12	0	0	0	0	514	625	
13	0	0	0	0	514	625	
14	0	0	0	0	514	625	
15	0	0	0	0	514	624	
0	0	0	0	0	515	625	
1	0	0	0	0	514	625	
2	0	0	0	0	514	625	
3	0	0	0	0	513	624	
4	0	0	0	0	513	624	
5	0	0	0	0	513	624	
6	0	0	0	0	513	625	
7	0	0	0	0	512	624	
8	0	0	0	0	513	625	
9	0	0	0	0	512	625	
10	0	0	0	0	512	625	
11	0	0	0	0	512	624	
12	0	0	0	0	512	625	
13	0	0	0	0	511	625	
14	0	0	0	0	511	626	
15	0	0	0	0	511	625	
0	0	0	0	0	511	625	
1	0	0	0	0	511	624	
2	0	0	0	0	511	624	
3	0	0	0	0	510	624	
4	0	0	0	0	511	624	
5	0	0	0	0	511	623	
6	0	0	0	0	512	624	
7	0	0	0	0	511	624	
8	0	0	0	0	510	624	
9	0	0	0	0	510	623	
10	0	0	0	0	509	624	
11	0	0	0	0	509	624	
12	0	0	0	0	509	624	
13	0	0	0	0	508	623	
14	0	0	0	0	508	623	
15	0	0	0	0	508	623	
0	0	0	0	0	508	624	
1	0	0	0	0	508	623	
2	0	0	0	0	508	624	
3	0	0	0	0	509	623	
4	0	0	0	0	509	623	
5	0	0	0	0	509	624	
6	0	0	0	0	509	624	
7	0	0	0	0	508	624	
8	0	0	0	0	508	624	
9	0	0	0	0	508	624	
10	0	0	0	0	508	624	
11	0	0	0	0	509	623	
12	0	0	0	0	509	624	
13	0	0	0	0	508	624	
14	0	0	0	0	509	624	
15	0	0	0	0	508	624	
0	0	0	0	0	508	624	
1	0	0	0	0	509	624	
2	0	0	0	0	509	624	
3	0	0	0	0	508	624	
4	0	0	0	0	508	623	
5	0	0	0	0	508	623	
6	0	0	0	0	509	623	
7	0	0	0	0	508	623	
8	0	0	0	0	509	623	
9	0	0	0	0	508	623	
10	0	0	0	0	508	623	
11	0	0	0	0	508	623	
12	0	0	0	0	508	623	
13	0	0	0	0	508	623	
14	0	0	0	0	508	624	
15	0	0	0	0	507	623	
0	0	0	0	0	507	623	
1	0	0	0	0	507	623	
2	0	0	0	0	506	624	
3	0	0	0	0	506	623	
4	0	0	0	0	506	624	
5	0	0	0	0	506	624	
6	0	0	0	0	507	623	
7	0	0	0	0	507	624	
8	0	0	0	0	507	624	
9	0	0	0	0	507	624	
10	0	0	0	0	507	624	
11	0	0	0	0	508	624	
12	0	0	0	0	507	624	
13	0	0	0	0	507	624	
14	0	0	0	0	507	625	
15	0	0	0	0	507	624	
0	0	0	0	0	507	624	
1	0	0	0	0	507	624	
2	0	0	0	0	506	625	
3	0	0	0	0	506	625	
4	0	0	0	0	505	625	
5	0	0	0	0	506	625	
6	0	0	0	0	506	625	
7	0	0	0	0	506	625	
8	0	0	0	0	505	625	
9	0	0	0	0	505	625	
10	0	0	0	0	506	626	
11	0	0	0	0	506	626	
12	0	0	0	0	506	625	
13	0	0	0	0	505	625	
14	0	0	0	0	506	626	
15	0	0	0	0	506	626	
0	0	0	0	0	507	626	
1	0	0	0	0	506	626	
2	0	0	0	0	506	627	
3	0	0	0	0	505	627	
4	0	0	0	0	505	627	
5	0	0	0	0	505	626	
6	0	0	0	0	505	626	
7	0	0	0	0	505	626	
8	0	0	0	0	504	625	
9	0	0	0	0	504	626	
10	0	0	0	0	504	626	
11	0	0	0	0	503	625	
12	0	0	0	0	503	626	
13	0	0	0	0	503	625	
14	0	0	0	0	504	625	
15	0	0	0	0	505	625	
0	0	0	0	0	505	625	
1	0	0	0	0	505	625	
2	0	0	0	0	505	625	
3	0	0	0	0	505	625	
4	0	0	0	0	505	625	
5	0	0	0	0	506	625	
6	0	0	0	0	506	625	
7	0	0	0	0	507	625	
8	0	0	0	0	507	625	
9	0	0	0	0	507	624	
10	0	0	0	0	506	625	
11	0	0	0	0	505	625	
12	0	0	0	0	505	624	
13	0	0	0	0	504	625	
14	0	0	0	0	504	625	
15	0	0	0	0	504	624	
0	0	0	0	0	504	625	
1	0	0	0	0	504	624	
2	0	0	0	0	503	624	
3	0	0	0	0	503	624	
4	0	0	0	0	503	624	
5	0	0	0	0	503	623	
6	0	0	0	0	502	624	
7	0	0	0	0	502	624	
8	0	0	0	0	502	624	
9	0	0	0	0	501	624	
10	0	0	0	0	500	624	
11	0	0	0	0	500	624	
12	0	0	0	0	500	624	
13	0	0	0	0	500	623	
14	0	0	0	0	499	624	
15	0	0	0	0	498	624	
0	0	0	0	0	498	624	
1	0	0	0	0	496	624	
2	0	0	0	0	496	624	
3	0	0	0	0	495	623	
4	0	0	0	0	495	624	
5	0	0	0	0	494	623	
6	0	0	0	0	494	624	
7	0	0	0	0	494	623	
8	0	0	0	0	494	623	
9	0	0	0	0	494	623	
10	0	0	0	0	494	624	
11	0	0	0	0	494	623	
12	0	0	0	0	494	623	
13	0	0	0	0	494	623	
14	0	0	0	0	495	623	
15	0	0	0	0	495	623	
0	0	0	0	0	495	623	
1	0	0	0	0	496	623	
2	0	0	0	0	496	623	
3	0	0	0	0	496	623	
4	0	0	0	0	496	623	
5	0	0	0	0	497	623	
6	0	0	0	0	497	623	
7	0	0	0	0	497	623	
8	0	0	0	0	497	624	
9	0	0	0	0	498	623	
10	0	0	0	0	498	624	
11	0	0	0	0	499	623	
12	0	0	0	0	500	623	
13	0	0	0	0	500	623	
14	0	0	0	0	501	623	
15	0	0	0	0	502	623	
0	0	0	0	0	502	623	
1	0	0	0	0	502	623	
2	0	0	0	0	502	624	
3	0	0	0	0	502	623	
4	0	0	0	0	503	624	
5	0	0	0	0	503	623	
6	0	0	0	0	504	624	
7	0	0	0	0	504	624	
8	0	0	0	0	504	624	
9	0	0	0	0	505	624	
10	0	0	0	0	505	625	
11	0	0	0	0	506	625	
12	0	0	0	0	507	624	
13	0	0	0	0	508	624	
14	0	0	0	0	508	624	
15	0	0	0	0	508	624	
0	0	0	0	0	508	623	
1	0	0	0	0	508	624	
2	0	0	0	0	507	624	
3	0	0	0	0	508	624	
4	0	0	0	0	507	624	
5	0	0	0	0	507	624	
6	0	0	0	0	507	624	
7	0	0	0	0	506	624	
8	0	0	0	0	506	624	
9	0	0	0	0	506	624	
10	0	0	0	0	506	624	
11	0	0	0	0	506	624	
12	0	0	0	0	507	624	
13	0	0	0	0	507	624	
14	0	0	0	0	507	624	
15	0	0	0	0	507	624	
0	0	0	0	0	507	624	
1	0	0	0	0	507	624	
2	0	0	0	0	507	624	
3	0	0	0	0	507	624	
4	0	0	0	0	507	624	
5	0	0	0	0	507	624	
6	0	0	0	0	507	624	
7	0	0	0	0	506	624	
8	0	0	0	0	507	624	
9	0	0	0	0	507	624	
10	0	0	0	0	507	625	
11	0	0	0	0	507	624	
12	0	0	0	0	507	624	
13	0	0	0	0	506	624	
14	0	0	0	0	506	624	
15	0	0	0	0	506	623	
0	0	0	0	0	506	624	
1	0	0	0	0	506	623	
2	0	0	0	0	505	624	
3	0	0	0	0	505	623	
4	0	0	0	0	505	624	
5	0	0	0	0	505	624	
6	0	0	0	0	505	624	
7	0	0	0	0	505	624	
8	0	0	0	0	505	623	
9	0	0	0	0	504	624	
10	0	0	0	0	504	624	
11	0	0	0	0	503	624	
12	0	0	0	0	503	624	
13	0	0	0	0	504	623	
14	0	0	0	0	504	623	
15	0	0	0	0	504	623	
0	0	0	0	0	505	624	
1	0	0	0	0	505	624	
2	0	0	0	0	505	624	
3	0	0	0	0	504	624	
4	0	0	0	0	505	624	
5	0	0	0	0	505	623	
6	0	0	0	0	506	624	
7	0	0	0	0	507	624	
8	0	0	0	0	507	624	
9	0	0	0	0	506	623	
10	0	0	0	0	505	624	
11	0	0	0	0	504	624	
12	0	0	0	0	504	623	
13	0	0	0	0	502	624	
14	0	0	0	0	501	624	
15	0	0	0	0	499	624	
0	0	0	0	0	497	624	
1	0	0	0	0	496	623	
2	0	0	0	0	493	624	
3	0	0	0	0	491	623	
4	0	0	0	0	489	624	
5	0	0	0	0	487	624	
6	0	0	0	0	483	624	
7	0	0	0	0	481	624	
8	0	0	0	0	479	624	
9	0	0	0	0	478	624	
10	0	0	0	0	479	624	
11	0	0	0	0	482	624	
12	0	0	0	0	486	624	
13	0	0	0	0	491	624	
14	0	0	0	0	498	624	
15	0	0	0	0	507	624	
0	0	0	0	0	516	624	
1	0	0	0	0	526	624	
2	0	0	0	0	537	625	
3	0	0	0	0	549	624	
4	0	0	0	0	564	624	
5	0	0	0	0	585	624	
6	0	0	0	0	607	625	
7	0	0	0	0	627	624	
8	0	0	0	0	646	624	
9	0	0	0	0	663	625	
10	0	0	0	0	681	625	
11	0	0	0	0	699	626	
12	0	0	0	0	714	626	
13	0	0	0	0	727	625	
14	0	0	0	0	737	625	
15	0	0	0	0	745	625	
0	0	0	0	0	752	625	
1	0	0	0	0	756	625	
2	0	0	0	0	761	626	
3	0	0	0	0	763	625	
4	0	0	0	0	759	625	
5	0	0	0	0	751	625	
6	0	0	0	0	737	625	
7	0	0	0	0	718	626	
8	0	0	0	0	697	626	
9	0	0	0	0	675	625	
10	0	0	0	0	651	625	
11	0	0	0	0	625	625	
12	0	0	0	0	598	625	
13	0	0	0	0	574	625	
14	0	0	0	0	551	625	
15	0	0	0	0	534	624	
0	0	0	0	0	519	625	
1	0	0	0	0	508	625	
2	0	0	0	0	501	625	
3	0	0	0	0	494	624	
4	0	0	0	0	489	625	
5	0	0	0	0	484	624	
6	0	0	0	0	480	624	
7	0	0	0	0	476	624	
8	0	0	0	0	472	624	
9	0	0	0	0	468	624	
10	0	0	0	0	464	625	
11	0	0	0	0	461	624	
12	0	0	0	0	458	624	
13	0	0	0	0	455	624	
14	0	0	0	0	453	625	
15	0	0	0	0	451	624	
0	0	0	0	0	450	624	
1	0	0	0	0	448	624	
2	0	0	0	0	447	625	
3	0	0	0	0	446	624	
4	0	0	0	0	446	624	
5	0	0	0	0	446	624	
6	0	0	0	0	445	624	
7	0	0	0	0	445	624	
8	0	0	0	0	445	624	
9	0	0	0	0	444	624	
10	0	0	0	0	444	624	
11	0	0	0	0	444	624	
12	0	0	0	0	445	624	
13	0	0	0	0	445	624	
14	0	0	0	0	445	624	
15	0	0	0	0	446	624	
0	0	0	0	0	446	624	
1	0	0	0	0	447	624	
2	0	0	0	0	447	624	
3	0	0	0	0	447	623	
4	0	0	0	0	447	624	
5	0	0	0	0	447	624	
6	0	0	0	0	447	624	
7	0	0	0	0	447	623	
8	0	0	0	0	448	624	
9	0	0	0	0	448	624	
10	0	0	0	0	448	624	
11	0	0	0	0	448	624	
12	0	0	0	0	448	623	
13	0	0	0	0	449	623	
14	0	0	0	0	449	623	
15	0	0	0	0	450	623	
0	0	0	0	0	451	623	
1	0	0	0	0	451	622	
2	0	0	0	0	452	624	
3	0	0	0	0	453	623	
4	0	0	0	0	453	623	
5	0	0	0	0	452	624	
6	0	0	0	0	452	623	
7	0	0	0	0	453	624	
8	0	0	0	0	453	624	
9	0	0	0	0	454	624	
10	0	0	0	0	454	624	
11	0	0	0	0	455	624	
12	0	0	0	0	455	623	
13	0	0	0	0	456	624	
14	0	0	0	0	457	624	
15	0	0	0	0	459	624	
0	0	0	0	0	459	624	
1	0	0	0	0	459	624	
2	0	0	0	0	460	624	
3	0	0	0	0	460	624	
4	0	0	0	0	461	624	
5	0	0	0	0	462	624	
6	0	0	0	0	463	624	
7	0	0	0	0	464	624	
8	0	0	0	0	464	623	
9	0	0	0	0	465	623	
10	0	0	0	0	466	624	
11	0	0	0	0	466	624	
12	0	0	0	0	467	624	
13	0	0	0	0	468	624	
14	0	0	0	0	468	624	
15	0	0	0	0	469	624	
0	0	0	0	0	470	624	
1	0	0	0	0	471	625	
2	0	0	0	0	471	625	
3	0	0	0	0	471	624	
4	0	0	0	0	471	624	
5	0	0	0	0	471	625	
6	0	0	0	0	472	625	
7	0	0	0	0	472	624	
8	0	0	0	0	472	624	
9	0	0	0	0	472	624	
10	0	0	0	0	472	625	
11	0	0	0	0	472	625	
12	0	0	0	0	473	625	
13	0	0	0	0	473	624	
14	0	0	0	0	473	625	
15	0	0	0	0	473	625	
0	0	0	0	0	473	624	
1	0	0	0	0	473	624	
2	0	0	0	0	474	625	
3	0	0	0	0	475	624	
4	0	0	0	0	475	624	
5	0	0	0	0	476	625	
6	0	0	0	0	477	624	
7	0	0	0	0	478	624	
8	0	0	0	0	479	625	
9	0	0	0	0	479	624	
10	0	0	0	0	479	624	
11	0	0	0	0	479	624	
12	0	0	0	0	479	624	
13	0	0	0	0	480	624	
14	0	0	0	0	480	624	
15	0	0	0	0	480	624	
0	0	0	0	0	480	624	
1	0	0	0	0	480	624	
2	0	0	0	0	480	624	
3	0	0	0	0	480	623	
4	0	0	0	0	480	624	
5	0	0	0	0	480	624	
6	0	0	0	0	480	623	
7	0	0	0	0	480	624	
8	0	0	0	0	479	624	
9	0	0	0	0	480	624	
10	0	0	0	0	481	624	
11	0	0	0	0	480	623	
12	0	0	0	0	481	624	
13	0	0	0	0	480	624	
14	0	0	0	0	480	624	
15	0	0	0	0	480	624	
0	0	0	0	0	480	624	
1	0	0	0	0	481	624	
2	0	0	0	0	481	624	
3	0	0	0	0	481	624	
4	0	0	0	0	480	625	
5	0	0	0	0	480	624	
6	0	0	0	0	480	624	
7	0	0	0	0	480	624	
8	0	0	0	0	480	625	
9	0	0	0	0	481	624	
10	0	0	0	0	481	624	
11	0	0	0	0	481	624	
12	0	0	0	0	482	624	
13	0	0	0	0	482	624	
14	0	0	0	0	481	624	
15	0	0	0	0	481	624	
0	0	0	0	0	481	624	
1	0	0	0	0	482	624	
2	0	0	0	0	482	624	
3	0	0	0	0	482	624	
4	0	0	0	0	482	624	
5	0	0	0	0	482	624	
6	0	0	0	0	482	624	
7	0	0	0	0	483	625	
8	0	0	0	0	484	625	
9	0	0	0	0	484	624	
10	0	0	0	0	484	625	
11	0	0	0	0	484	625	
12	0	0	0	0	484	625	
13	0	0	0	0	484	624	
14	0	0	0	0	483	625	
15	0	0	0	0	484	626	
0	0	0	0	0	484	626	
1	0	0	0	0	484	626	
2	0	0	0	0	484	626	
3	0	0	0	0	484	626	
4	0	0	0	0	484	626	
5	0	0	0	0	484	625	
6	0	0	0	0	484	626	
7	0	0	0	0	485	626	
8	0	0	0	0	486	626	
9	0	0	0	0	486	626	
10	0	0	0	0	487	626	
11	0	0	0	0	486	625	
12	0	0	0	0	486	625	
13	0	0	0	0	486	625	
14	0	0	0	0	485	626	
15	0	0	0	0	486	625	
0	0	0	0	0	486	625	
1	0	0	0	0	488	625	
2	0	0	0	0	488	625	
3	0	0	0	0	489	625	
4	0	0	0	0	490	625	
5	0	0	0	0	491	625	
6	0	0	0	0	492	625	
7	0	0	0	0	492	624	
8	0	0	0	0	493	625	
9	0	0	0	0	494	624	
10	0	0	0	0	494	625	
11	0	0	0	0	495	624	
12	0	0	0	0	496	624	
13	0	0	0	0	495	624	
14	0	0	0	0	496	624	
15	0	0	0	0	496	624	
0	0	0	0	0	496	624	
1	0	0	0	0	497	624	
2	0	0	0	0	497	625	
3	0	0	0	0	497	624	
4	0	0	0	0	497	624	
5	0	0	0	0	497	624	
6	0	0	0	0	497	624	
7	0	0	0	0	498	624	
8	0	0	0	0	497	624	
9	0	0	0	0	498	623	
10	0	0	0	0	499	624	
11	0	0	0	0	499	623	
12	0	0	0	0	500	623	
13	0	0	0	0	499	623	
14	0	0	0	0	500	624	
15	0	0	0	0	500	623	
0	0	0	0	0	501	623	
1	0	0	0	0	502	623	
2	0	0	0	0	502	624	
3	0	0	0	0	502	624	
4	0	0	0	0	502	624	
5	0	0	0	0	503	624	
6	0	0	0	0	503	624	
7	0	0	0	0	503	624	
8	0	0	0	0	504	624	
9	0	0	0	0	504	624	
10	0	0	0	0	503	624	
11	0	0	0	0	503	624	
12	0	0	0	0	502	624	
13	0	0	0	0	502	624	
14	0	0	0	0	501	624	
15	0	0	0	0	501	624	
0	0	0	0	0	500	623	
1	0	0	0	0	500	624	
2	0	0	0	0	499	624	
3	0	0	0	0	499	623	
4	0	0	0	0	499	623	
5	0	0	0	0	499	624	
6	0	0	0	0	498	624	
7	0	0	0	0	499	624	
8	0	0	0	0	498	624	
9	0	0	0	0	498	624	
10	0	0	0	0	497	624	
11	0	0	0	0	498	624	
12	0	0	0	0	497	624	
13	0	0	0	0	497	624	
14	0	0	0	0	497	624	
15	0	0	0	0	496	624	
0	0	0	0	0	496	624	
1	0	0	0	0	496	624	
2	0	0	0	0	496	624	
3	0	0	0	0	495	624	
4	0	0	0	0	494	624	
5	0	0	0	0	493	624	
6	0	0	0	0	493	624	
7	0	0	0	0	492	624	
8	0	0	0	0	493	624	
9	0	0	0	0	493	624	
10	0	0	0	0	493	624	
11	0	0	0	0	493	624	
12	0	0	0	0	492	624	
13	0	0	0	0	493	624	
14	0	0	0	0	493	624	
15	0	0	0	0	494	624	
0	0	0	0	0	493	624	
1	0	0	0	0	494	624	
2	0	0	0	0	494	624	
3	0	0	0	0	494	624	
4	0	0	0	0	494	624	
5	0	0	0	0	494	624	
6	0	0	0	0	494	625	
7	0	0	0	0	494	625	
8	0	0	0	0	495	625	
9	0	0	0	0	496	624	
10	0	0	0	0	496	624	
11	0	0	0	0	497	624	
12	0	0	0	0	497	624	
13	0	0	0	0	498	625	
14	0	0	0	0	498	625	
15	0	0	0	0	498	625	
0	0	0	0	0	498	625	
1	0	0	0	0	497	625	
2	0	0	0	0	497	625	
3	0	0	0	0	496	624	
4	0	0	0	0	497	625	
5	0	0	0	0	497	625	
6	0	0	0	0	498	625	
7	0	0	0	0	497	625	
8	0	0	0	0	497	625	
9	0	0	0	0	498	625	
10	0	0	0	0	498	626	
11	0	0	0	0	498	624	
12	0	0	0	0	498	625	
13	0	0	0	0	498	624	
14	0	0	0	0	498	624	
15	0	0	0	0	498	625	
0	0	0	0	0	499	625	
1	0	0	0	0	499	624	
2	0	0	0	0	500	625	
3	0	0	0	0	500	625	
4	0	0	0	0	500	624	
5	0	0	0	0	501	624	
6	0	0	0	0	500	625	
7	0	0	0	0	500	625	
8	0	0	0	0	500	624	
9	0	0	0	0	500	624	
10	0	0	0	0	499	624	
11	0	0	0	0	499	624	
12	0	0	0	0	499	624	
13	0	0	0	0	500	624	
14	0	0	0	0	499	625	
15	0	0	0	0	499	624	
0	0	0	0	0	499	624	
1	0	0	0	0	500	624	
2	0	0	0	0	499	625	
3	0	0	0	0	500	625	
4	0	0	0	0	500	624	
5	0	0	0	0	501	624	
6	0	0	0	0	501	624	
7	0	0	0	0	501	624	
8	0	0	0	0	501	624	
9	0	0	0	0	501	624	
10	0	0	0	0	502	624	
11	0	0	0	0	501	624	
12	0	0	0	0	501	624	
13	0	0	0	0	501	624	
14	0	0	0	0	501	625	
15	0	0	0	0	501	624	
0	0	0	0	0	500	624	
1	0	0	0	0	500	624	
2	0	0	0	0	500	625	
3	0	0	0	0	501	625	
4	0	0	0	0	501	624	
5	0	0	0	0	502	624	
6	0	0	0	0	501	624	
7	0	0	0	0	501	625	
8	0	0	0	0	501	625	
9	0	0	0	0	502	625	
10	0	0	0	0	502	625	
11	0	0	0	0	501	624	
12	0	0	0	0	501	624	
13	0	0	0	0	502	624	
14	0	0	0	0	502	625	
15	0	0	0	0	501	624	
0	0	0	0	0	501	624	
1	0	0	0	0	500	624	
2	0	0	0	0	500	625	
3	0	0	0	0	500	624	
4	0	0	0	0	499	624	
5	0	0	0	0	500	624	
6	0	0	0	0	500	624	
7	0	0	0	0	501	624	
8	0	0	0	0	501	624	
9	0	0	0	0	502	624	
10	0	0	0	0	503	623	
11	0	0	0	0	503	624	
12	0	0	0	0	503	624	
13	0	0	0	0	503	624	
14	0	0	0	0	502	624	
15	0	0	0	0	503	624	
0	0	0	0	0	503	624	
1	0	0	0	0	502	623	
2	0	0	0	0	503	624	
3	0	0	0	0	504	624	
4	0	0	0	0	504	624	
5	0	0	0	0	504	624	
6	0	0	0	0	504	624	
7	0	0	0	0	504	624	
8	0	0	0	0	504	624	
9	0	0	0	0	504	624	
10	0	0	0	0	504	625	
11	0	0	0	0	504	624	
12	0	0	0	0	504	624	
13	0	0	0	0	504	624	
14	0	0	0	0	504	624	
15	0	0	0	0	505	624	
0	0	0	0	0	505	624	
1	0	0	0	0	505	624	
2	0	0	0	0	505	624	
3	0	0	0	0	505	624	
4	0	0	0	0	505	624	
5	0	0	0	0	505	624	
6	0	0	0	0	506	625	
7	0	0	0	0	505	624	
8	0	0	0	0	505	624	
9	0	0	0	0	505	624	
10	0	0	0	0	504	624	
11	0	0	0	0	504	624	
12	0	0	0	0	504	624	
13	0	0	0	0	505	625	
14	0	0	0	0	505	625	
15	0	0	0	0	505	625	
0	0	0	0	0	505	625	
1	0	0	0	0	505	625	
2	0	0	0	0	505	625	
3	0	0	0	0	506	625	
4	0	0	0	0	507	624	
5	0	0	0	0	507	624	
6	0	0	0	0	507	624	
7	0	0	0	0	508	624	
8	0	0	0	0	508	624	
9	0	0	0	0	509	624	
10	0	0	0	0	510	626	
11	0	0	0	0	510	624	
12	0	0	0	0	510	625	
13	0	0	0	0	510	624	
14	0	0	0	0	510	625	
15	0	0	0	0	510	624	
0	0	0	0	0	510	625	
1	0	0	0	0	510	624	
2	0	0	0	0	510	625	
3	0	0	0	0	510	625	
4	0	0	0	0	510	625	
5	0	0	0	0	510	625	
6	0	0	0	0	509	625	
7	0	0	0	0	509	624	
8	0	0	0	0	509	624	
9	0	0	0	0	509	625	
10	0	0	0	0	509	625	
11	0	0	0	0	509	624	
12	0	0	0	0	509	624	
13	0	0	0	0	508	624	
14	0	0	0	0	508	625	
15	0	0	0	0	508	624	
0	0	0	0	0	508	624	
1	0	0	0	0	508	625	
2	0	0	0	0	508	625	
3	0	0	0	0	508	624	
4	0	0	0	0	508	624	
5	0	0	0	0	508	625	
6	0	0	0	0	508	625	
7	0	0	0	0	507	624	
8	0	0	0	0	508	624	
9	0	0	0	0	507	625	
10	0	0	0	0	507	625	
11	0	0	0	0	507	624	
12	0	0	0	0	507	624	
13	0	0	0	0	507	624	
14	0	0	0	0	507	624	
15	0	0	0	0	507	624	
0	0	0	0	0	507	624	
1	0	0	0	0	508	623	
2	0	0	0	0	508	624	
3	0	0	0	0	508	624	
4	0	0	0	0	508	624	
5	0	0	0	0	508	623	
6	0	0	0	0	508	624	
7	0	0	0	0	508	623	
8	0	0	0	0	508	624	
9	0	0	0	0	508	624	
10	0	0	0	0	508	624	
11	0	0	0	0	508	623	
12	0	0	0	0	508	624	
13	0	0	0	0	508	624	
14	0	0	0	0	507	624	
15	0	0	0	0	507	624	
0	0	0	0	0	508	624	
1	0	0	0	0	508	624	
2	0	0	0	0	507	624	
3	0	0	0	0	507	624	
4	0	0	0	0	507	624	
5	0	0	0	0	507	624	
6	0	0	0	0	507	624	
7	0	0	0	0	508	624	
8	0	0	0	0	508	624	
9	0	0	0	0	508	624	
10	0	0	0	0	509	624	
11	0	0	0	0	509	624	
12	0	0	0	0	509	624	
13	0	0	0	0	508	623	
14	0	0	0	0	509	624	
15	0	0	0	0	510	624	
0	0	0	0	0	509	624	
1	0	0	0	0	508	624	
2	0	0	0	0	509	624	
3	0	0	0	0	509	624	
4	0	0	0	0	509	624	
5	0	0	0	0	510	624	
6	0	0	0	0	511	624	
7	0	0	0	0	511	624	
8	0	0	0	0	511	624	
9	0	0	0	0	511	624	
10	0	0	0	0	511	625	
11	0	0	0	0	511	625	
12	0	0	0	0	511	624	
13	0	0	0	0	511	624	
14	0	0	0	0	510	624	
15	0	0	0	0	510	625	
0	0	0	0	0	510	624	
1	0	0	0	0	510	624	
2	0	0	0	0	510	625	
3	0	0	0	0	510	625	
4	0	0	0	0	510	624	
5	0	0	0	0	509	624	
6	0	0	0	0	510	624	
7	0	0	0	0	510	624	
8	0	0	0	0	510	624	
9	0	0	0	0	510	625	
10	0	0	0	0	510	626	
11	0	0	0	0	510	625	
12	0	0	0	0	509	625	
13	0	0	0	0	508	624	
14	0	0	0	0	508	625	
15	0	0	0	0	507	625	
0	0	0	0	0	506	625	
1	0	0	0	0	507	625	
2	0	0	0	0	505	625	
3	0	0	0	0	504	624	
4	0	0	0	0	504	625	
5	0	0	0	0	504	624	
6	0	0	0	0	505	624	
7	0	0	0	0	505	625	
8	0	0	0	0	504	624	
9	0	0	0	0	504	625	
10	0	0	0	0	504	625	
11	0	0	0	0	503	624	
12	0	0	0	0	503	625	
13	0	0	0	0	502	624	
14	0	0	0	0	500	625	
15	0	0	0	0	499	625	
0	0	0	0	0	498	625	
1	0	0	0	0	497	625	
2	0	0	0	0	497	625	
3	0	0	0	0	497	624	
4	0	0	0	0	497	625	
5	0	0	0	0	497	624	
6	0	0	0	0	497	625	
7	0	0	0	0	497	625	
8	0	0	0	0	496	625	
9	0	0	0	0	497	624	
10	0	0	0	0	498	625	
11	0	0	0	0	498	624	
12	0	0	0	0	499	625	
13	0	0	0	0	499	624	
14	0	0	0	0	500	625	
15	0	0	0	0	501	624	
0	0	0	0	0	502	624	
1	0	0	0	0	503	624	
2	0	0	0	0	503	624	
3	0	0	0	0	503	624	
4	0	0	0	0	503	624	
5	0	0	0	0	502	624	
6	0	0	0	0	502	624	
7	0	0	0	0	503	624	
8	0	0	0	0	503	624	
9	0	0	0	0	503	624	
10	0	0	0	0	504	625	
11	0	0	0	0	503	624	
12	0	0	0	0	504	624	
13	0	0	0	0	504	624	
14	0	0	0	0	504	624	
15	0	0	0	0	505	624	
0	0	0	0	0	507	624	
1	0	0	0	0	507	624	
2	0	0	0	0	507	624	
3	0	0	0	0	508	623	
4	0	0	0	0	509	624	
5	0	0	0	0	509	624	
6	0	0	0	0	510	624	
7	0	0	0	0	511	624	
8	0	0	0	0	511	624	
9	0	0	0	0	511	623	
10	0	0	0	0	511	624	
11	0	0	0	0	512	624	
12	0	0	0	0	512	624	
13	0	0	0	0	512	624	
14	0	0	0	0	512	624	
15	0	0	0	0	512	624	
0	0	0	0	0	512	624	
1	0	0	0	0	513	624	
2	0	0	0	0	512	624	
3	0	0	0	0	512	624	
4	0	0	0	0	512	624	
5	0	0	0	0	513	624	
6	0	0	0	0	513	624	
7	0	0	0	0	513	624	
8	0	0	0	0	512	624	
9	0	0	0	0	512	624	
10	0	0	0	0	512	624	
11	0	0	0	0	512	624	
12	0	0	0	0	512	624	
13	0	0	0	0	512	624	
14	0	0	0	0	512	624	
15	0	0	0	0	512	624	
0	0	0	0	0	512	624	
1	0	0	0	0	512	624	
2	0	0	0	0	512	625	
3	0	0	0	0	512	624	
4	0	0	0	0	513	624	
5	0	0	0	0	514	624	
6	0	0	0	0	514	625	
7	0	0	0	0	514	624	
8	0	0	0	0	513	625	
9	0	0	0	0	513	624	
10	0	0	0	0	513	625	
11	0	0	0	0	513	625	
12	0	0	0	0	513	624	
13	0	0	0	0	513	624	
14	0	0	0	0	513	624	
15	0	0	0	0	513	624	
0	0	0	0	0	514	624	
1	0	0	0	0	513	624	
2	0	0	0	0	513	624	
3	0	0	0	0	513	623	
4	0	0	0	0	512	624	
5	0	0	0	0	512	624	
6	0	0	0	0	511	624	
7	0	0	0	0	511	624	
8	0	0	0	0	511	624	
9	0	0	0	0	511	624	
10	0	0	0	0	511	624	
11	0	0	0	0	511	624	
12	0	0	0	0	512	624	
13	0	0	0	0	512	624	
14	0	0	0	0	512	624	
15	0	0	0	0	512	624	
0	0	0	0	0	512	624	
1	0	0	0	0	513	624	
2	0	0	0	0	513	625	
3	0	0	0	0	515	624	
4	0	0	0	0	515	625	
5	0	0	0	0	515	624	
6	0	0	0	0	514	626	
7	0	0	0	0	513	625	
8	0	0	0	0	513	625	
9	0	0	0	0	511	625	
10	0	0	0	0	508	625	
11	0	0	0	0	507	626	
12	0	0	0	0	505	624	
13	0	0	0	0	504	625	
14	0	0	0	0	503	625	
15	0	0	0	0	501	624	
0	0	0	0	0	499	625	
1	0	0	0	0	498	625	
2	0	0	0	0	496	625	
3	0	0	0	0	493	624	
4	0	0	0	0	491	625	
5	0	0	0	0	489	624	
6	0	0	0	0	487	625	
7	0	0	0	0	487	624	
8	0	0	0	0	488	624	
9	0	0	0	0	490	624	
10	0	0	0	0	494	625	
11	0	0	0	0	500	624	
12	0	0	0	0	507	624	
13	0	0	0	0	515	624	
14	0	0	0	0	525	624	
15	0	0	0	0	535	624	
0	0	0	0	0	545	624	
1	0	0	0	0	557	624	
2	0	0	0	0	573	624	
3	0	0	0	0	593	623	
4	0	0	0	0	613	623	
5	0	0	0	0	632	624	
6	0	0	0	0	648	624	
7	0	0	0	0	663	624	
8	0	0	0	0	679	624	
9	0	0	0	0	694	624	
10	0	0	0	0	707	625	
11	0	0	0	0	719	624	
12	0	0	0	0	727	624	
13	0	0	0	0	732	624	
14	0	0	0	0	736	624	
15	0	0	0	0	738	623	
0	0	0	0	0	739	624	
1	0	0	0	0	737	623	
2	0	0	0	0	730	624	
3	0	0	0	0	719	624	
4	0	0	0	0	703	624	
5	0	0	0	0	684	624	
6	0	0	0	0	664	624	
7	0	0	0	0	643	625	
8	0	0	0	0	622	625	
9	0	0	0	0	601	624	
10	0	0	0	0	581	624	
11	0	0	0	0	561	625	
12	0	0	0	0	545	624	
13	0	0	0	0	531	625	
14	0	0	0	0	520	624	
15	0	0	0	0	513	624	
0	0	0	0	0	507	624	
1	0	0	0	0	504	624	
2	0	0	0	0	500	624	
3	0	0	0	0	496	624	
4	0	0	0	0	493	624	
5	0	0	0	0	489	624	
6	0	0	0	0	486	625	
7	0	0	0	0	481	624	
8	0	0	0	0	479	625	
9	0	0	0	0	476	624	
10	0	0	0	0	474	625	
11	0	0	0	0	472	625	
12	0	0	0	0	469	624	
13	0	0	0	0	468	624	
14	0	0	0	0	466	624	
15	0	0	0	0	464	625	
0	0	0	0	0	462	624	
1	0	0	0	0	461	624	
2	0	0	0	0	460	625	
3	0	0	0	0	459	624	
4	0	0	0	0	459	624	
5	0	0	0	0	458	624	
6	0	0	0	0	457	624	
7	0	0	0	0	456	624	
8	0	0	0	0	456	624	
9	0	0	0	0	456	625	
10	0	0	0	0	456	624	
11	0	0	0	0	456	624	
12	0	0	0	0	456	624	
13	0	0	0	0	457	624	
14	0	0	0	0	457	624	
15	0	0	0	0	458	624	
0	0	0	0	0	459	624	
1	0	0	0	0	459	624	
2	0	0	0	0	459	624	
3	0	0	0	0	460	624	
4	0	0	0	0	460	624	
5	0	0	0	0	460	624	
6	0	0	0	0	460	623	
7	0	0	0	0	461	624	
8	0	0	0	0	462	624	
9	0	0	0	0	462	624	
10	0	0	0	0	462	625	
11	0	0	0	0	463	624	
12	0	0	0	0	464	624	
13	0	0	0	0	465	624	
14	0	0	0	0	465	624	
15	0	0	0	0	465	624	
0	0	0	0	0	465	624	
1	0	0	0	0	466	624	
2	0	0	0	0	467	625	
3	0	0	0	0	467	624	
4	0	0	0	0	467	624	
5	0	0	0	0	467	625	
6	0	0	0	0	468	624	
7	0	0	0	0	468	624	
8	0	0	0	0	469	624	
9	0	0	0	0	469	624	
10	0	0	0	0	470	625	
11	0	0	0	0	471	624	
12	0	0	0	0	471	624	
13	0	0	0	0	472	624	
14	0	0	0	0	472	625	
15	0	0	0	0	472	625	
0	0	0	0	0	471	624	
1	0	0	0	0	470	624	
2	0	0	0	0	470	625	
3	0	0	0	0	470	625	
4	0	0	0	0	469	624	
5	0	0	0	0	470	624	
6	0	0	0	0	470	624	
7	0	0	0	0	470	624	
8	0	0	0	0	471	624	
9	0	0	0	0	472	624	
10	0	0	0	0	473	625	
11	0	0	0	0	474	624	
12	0	0	0	0	475	625	
13	0	0	0	0	475	624	
14	0	0	0	0	476	625	
15	0	0	0	0	477	625	
0	0	0	0	0	478	624	
1	0	0	0	0	478	624	
2	0	0	0	0	479	625	
3	0	0	0	0	479	626	
4	0	0	0	0	479	625	
5	0	0	0	0	480	625	
6	0	0	0	0	480	624	
7	0	0	0	0	480	625	
8	0	0	0	0	481	624	
9	0	0	0	0	481	624	
10	0	0	0	0	481	625	
11	0	0	0	0	481	624	
12	0	0	0	0	481	625	
13	0	0	0	0	481	624	
14	0	0	0	0	482	625	
15	0	0	0	0	482	625	
0	0	0	0	0	482	625	
1	0	0	0	0	482	625	
2	0	0	0	0	482	625	
3	0	0	0	0	483	624	
4	0	0	0	0	483	624	
5	0	0	0	0	483	624	
6	0	0	0	0	483	624	
7	0	0	0	0	483	624	
8	0	0	0	0	483	624	
9	0	0	0	0	482	624	
10	0	0	0	0	482	624	
11	0	0	0	0	482	624	
12	0	0	0	0	481	624	
13	0	0	0	0	481	624	
14	0	0	0	0	481	625	
15	0	0	0	0	481	624	
0	0	0	0	0	482	625	
1	0	0	0	0	483	624	
2	0	0	0	0	483	625	
3	0	0	0	0	483	624	
4	0	0	0	0	484	624	
5	0	0	0	0	484	624	
6	0	0	0	0	484	624	
7	0	0	0	0	485	624	
8	0	0	0	0	486	624	
9	0	0	0	0	486	624	
10	0	0	0	0	486	624	
11	0	0	0	0	487	624	
12	0	0	0	0	487	623	
13	0	0	0	0	487	623	
14	0	0	0	0	486	623	
15	0	0	0	0	487	623	
0	0	0	0	0	487	623	
1	0	0	0	0	487	623	
2	0	0	0	0	487	623	
3	0	0	0	0	487	623	
4	0	0	0	0	487	623	
5	0	0	0	0	487	623	
6	0	0	0	0	488	623	
7	0	0	0	0	487	623	
8	0	0	0	0	487	624	
9	0	0	0	0	488	624	
10	0	0	0	0	487	624	
11	0	0	0	0	488	624	
12	0	0	0	0	488	624	
13	0	0	0	0	488	625	
14	0	0	0	0	487	624	
15	0	0	0	0	486	625	
0	0	0	0	0	486	624	
1	0	0	0	0	487	624	
2	0	0	0	0	487	625	
3	0	0	0	0	487	625	
4	0	0	0	0	487	625	
5	0	0	0	0	487	625	
6	0	0	0	0	487	625	
7	0	0	0	0	487	625	
8	0	0	0	0	487	625	
9	0	0	0	0	487	625	
10	0	0	0	0	487	626	
11	0	0	0	0	487	625	
12	0	0	0	0	488	624	
13	0	0	0	0	488	624	
14	0	0	0	0	489	625	
15	0	0	0	0	489	625	
0	0	0	0	0	489	625	
1	0	0	0	0	489	625	
2	0	0	0	0	488	625	
3	0	0	0	0	487	625	
4	0	0	0	0	488	625	
5	0	0	0	0	488	626	
6	0	0	0	0	489	625	
7	0	0	0	0	490	626	
8	0	0	0	0	490	625	
9	0	0	0	0	491	625	
10	0	0	0	0	492	626	
11	0	0	0	0	493	625	
12	0	0	0	0	493	625	
13	0	0	0	0	494	625	
14	0	0	0	0	495	626	
15	0	0	0	0	496	625	
0	0	0	0	0	496	625	
1	0	0	0	0	496	625	
2	0	0	0	0	496	626	
3	0	0	0	0	497	625	
4	0	0	0	0	498	625	
5	0	0	0	0	499	625	
6	0	0	0	0	500	625	
7	0	0	0	0	501	624	
8	0	0	0	0	502	625	
9	0	0	0	0	502	625	
10	0	0	0	0	502	626	
11	0	0	0	0	503	625	
12	0	0	0	0	503	625	
13	0	0	0	0	504	625	
14	0	0	0	0	504	624	
15	0	0	0	0	504	624	
0	0	0	0	0	504	624	
1	0	0	0	0	506	624	
2	0	0	0	0	507	624	
3	0	0	0	0	507	624	
4	0	0	0	0	508	624	
5	0	0	0	0	508	624	
6	0	0	0	0	508	624	
7	0	0	0	0	509	624	
8	0	0	0	0	509	624	
9	0	0	0	0	509	624	
10	0	0	0	0	509	625	
11	0	0	0	0	509	623	
12	0	0	0	0	509	623	
13	0	0	0	0	509	623	
14	0	0	0	0	509	624	
15	0	0	0	0	509	624	
0	0	0	0	0	508	623	
1	0	0	0	0	508	624	
2	0	0	0	0	508	624	
3	0	0	0	0	507	623	
4	0	0	0	0	507	623	
5	0	0	0	0	507	624	
6	0	0	0	0	507	624	
7	0	0	0	0	507	624	
8	0	0	0	0	506	624	
9	0	0	0	0	505	624	
10	0	0	0	0	505	624	
11	0	0	0	0	504	624	
12	0	0	0	0	503	624	
13	0	0	0	0	503	624	
14	0	0	0	0	502	624	
15	0	0	0	0	501	624	
0	0	0	0	0	502	624	
1	0	0	0	0	502	624	
2	0	0	0	0	501	625	
3	0	0	0	0	500	624	
4	0	0	0	0	500	624	
5	0	0	0	0	500	624	
6	0	0	0	0	500	625	
7	0	0	0	0	499	624	
8	0	0	0	0	499	624	
9	0	0	0	0	498	625	
10	0	0	0	0	498	624	
11	0	0	0	0	497	625	
12	0	0	0	0	496	625	
13	0	0	0	0	495	625	
14	0	0	0	0	494	625	
15	0	0	0	0	493	625	
0	0	0	0	0	493	625	
1	0	0	0	0	493	624	
2	0	0	0	0	493	625	
3	0	0	0	0	493	624	
4	0	0	0	0	494	624	
5	0	0	0	0	494	624	
6	0	0	0	0	495	624	
7	0	0	0	0	495	624	
8	0	0	0	0	495	624	
9	0	0	0	0	495	624	
10	0	0	0	0	495	625	
11	0	0	0	0	494	624	
12	0	0	0	0	495	624	
13	0	0	0	0	496	624	
14	0	0	0	0	496	624	
15	0	0	0	0	496	624	
0	0	0	0	0	496	625	
1	0	0	0	0	496	624	
2	0	0	0	0	496	626	
3	0	0	0	0	496	624	
4	0	0	0	0	496	625	
5	0	0	0	0	496	625	
6	0	0	0	0	496	625	
7	0	0	0	0	496	625	
8	0	0	0	0	497	625	
9	0	0	0	0	497	624	
10	0	0	0	0	497	625	
11	0	0	0	0	498	625	
12	0	0	0	0	499	625	
13	0	0	0	0	499	625	
14	0	0	0	0	499	625	
15	0	0	0	0	499	625	
0	0	0	0	0	500	625	
1	0	0	0	0	500	624	
2	0	0	0	0	501	625	
3	0	0	0	0	501	625	
4	0	0	0	0	501	624	
5	0	0	0	0	500	625	
6	0	0	0	0	501	625	
7	0	0	0	0	501	625	
8	0	0	0	0	501	624	
9	0	0	0	0	502	624	
10	0	0	0	0	502	625	
11	0	0	0	0	502	624	
12	0	0	0	0	502	624	
13	0	0	0	0	502	625	
14	0	0	0	0	502	625	
15	0	0	0	0	502	624	
0	0	0	0	0	502	624	
1	0	0	0	0	501	625	
2	0	0	0	0	502	625	
3	0	0	0	0	502	624	
4	0	0	0	0	502	625	
5	0	0	0	0	502	625	
6	0	0	0	0	502	625	
7	0	0	0	0	501	624	
8	0	0	0	0	501	625	
9	0	0	0	0	502	625	
10	0	0	0	0	502	625	
11	0	0	0	0	502	625	
12	0	0	0	0	503	624	
13	0	0	0	0	504	624	
14	0	0	0	0	504	624	
15	0	0	0	0	504	624	
0	0	0	0	0	504	624	
1	0	0	0	0	504	624	
2	0	0	0	0	503	624	
3	0	0	0	0	503	624	
4	0	0	0	0	503	623	
5	0	0	0	0	503	624	
6	0	0	0	0	503	624	
7	0	0	0	0	502	624	
8	0	0	0	0	502	624	
9	0	0	0	0	501	624	
10	0	0	0	0	501	624	
11	0	0	0	0	502	624	
12	0	0	0	0	503	624	
13	0	0	0	0	502	624	
14	0	0	0	0	503	624	
15	0	0	0	0	504	624	
0	0	0	0	0	504	624	
1	0	0	0	0	505	624	
2	0	0	0	0	507	624	
3	0	0	0	0	507	624	
4	0	0	0	0	507	624	
5	0	0	0	0	507	624	
6	0	0	0	0	507	625	
7	0	0	0	0	507	624	
8	0	0	0	0	507	624	
9	0	0	0	0	507	624	
10	0	0	0	0	506	626	
11	0	0	0	0	506	624	
12	0	0	0	0	508	625	
13	0	0	0	0	507	625	
14	0	0	0	0	507	625	
15	0	0	0	0	508	624	
0	0	0	0	0	508	625	
1	0	0	0	0	509	624	
2	0	0	0	0	509	625	
3	0	0	0	0	509	625	
4	0	0	0	0	509	625	
5	0	0	0	0	509	625	
6	0	0	0	0	510	625	
7	0	0	0	0	510	625	
8	0	0	0	0	510	625	
9	0	0	0	0	510	625	
10	0	0	0	0	510	625	
11	0	0	0	0	511	624	
12	0	0	0	0	511	624	
13	0	0	0	0	511	624	
14	0	0	0	0	511	624	
15	0	0	0	0	511	624	
0	0	0	0	0	512	624	
1	0	0	0	0	512	625	
2	0	0	0	0	512	625	
3	0	0	0	0	513	624	
4	0	0	0	0	512	624	
5	0	0	0	0	513	624	
6	0	0	0	0	514	624	
7	0	0	0	0	515	624	
8	0	0	0	0	515	624	
9	0	0	0	0	515	624	
10	0	0	0	0	516	624	
11	0	0	0	0	515	624	
12	0	0	0	0	515	624	
13	0	0	0	0	514	624	
14	0	0	0	0	515	624	
15	0	0	0	0	515	624	
0	0	0	0	0	514	624	
1	0	0	0	0	514	624	
2	0	0	0	0	514	625	
3	0	0	0	0	515	624	
4	0	0	0	0	515	625	
5	0	0	0	0	515	624	
6	0	0	0	0	515	624	
7	0	0	0	0	515	624	
8	0	0	0	0	515	624	
9	0	0	0	0	516	624	
10	0	0	0	0	515	624	
11	0	0	0	0	515	624	
12	0	0	0	0	515	625	
13	0	0	0	0	514	624	
14	0	0	0	0	514	625	
15	0	0	0	0	513	624	
0	0	0	0	0	513	624	
1	0	0	0	0	512	624	
2	0	0	0	0	513	625	
3	0	0	0	0	513	624	
4	0	0	0	0	513	624	
5	0	0	0	0	514	625	
6	0	0	0	0	513	624	
7	0	0	0	0	513	624	
8	0	0	0	0	513	625	
9	0	0	0	0	513	624	
10	0	0	0	0	513	625	
11	0	0	0	0	513	625	
12	0	0	0	0	513	624	
13	0	0	0	0	513	625	
14	0	0	0	0	512	624	
15	0	0	0	0	512	624	
0	0	0	0	0	512	624	
1	0	0	0	0	513	624	
2	0	0	0	0	513	625	
3	0	0	0	0	513	624	
4	0	0	0	0	514	624	
5	0	0	0	0	514	624	
6	0	0	0	0	513	624	
7	0	0	0	0	513	624	
8	0	0	0	0	513	624	
9	0	0	0	0	512	624	
10	0	0	0	0	512	624	
11	0	0	0	0	512	624	
12	0	0	0	0	512	624	
13	0	0	0	0	512	624	
14	0	0	0	0	513	624	
15	0	0	0	0	513	624	
0	0	0	0	0	513	624	
1	0	0	0	0	513	624	
2	0	0	0	0	514	625	
3	0	0	0	0	514	624	
4	0	0	0	0	513	624	
5	0	0	0	0	513	624	
6	0	0	0	0	513	624	
7	0	0	0	0	513	624	
8	0	0	0	0	513	624	
9	0	0	0	0	512	624	
10	0	0	0	0	512	624	
11	0	0	0	0	512	624	
12	0	0	0	0	513	624	
13	0	0	0	0	513	624	
14	0	0	0	0	513	624	
15	0	0	0	0	513	624	
0	0	0	0	0	513	624	
1	0	0	0	0	513	624	
2	0	0	0	0	513	624	
3	0	0	0	0	513	624	
4	0	0	0	0	513	624	
5	0	0	0	0	513	624	
6	0	0	0	0	513	624	
7	0	0	0	0	513	624	
8	0	0	0	0	513	624	
9	0	0	0	0	514	624	
10	0	0	0	0	514	625	
11	0	0	0	0	514	624	
12	0	0	0	0	514	624	
13	0	0	0	0	513	624	
14	0	0	0	0	512	624	
15	0	0	0	0	512	624	
0	0	0	0	0	512	624	
1	0	0	0	0	512	624	
2	0	0	0	0	512	625	
3	0	0	0	0	512	624	
4	0	0	0	0	513	624	
5	0	0	0	0	513	624	
6	0	0	0	0	514	624	
7	0	0	0	0	514	624	
8	0	0	0	0	513	624	
9	0	0	0	0	513	624	
10	0	0	0	0	513	624	
11	0	0	0	0	513	624	
12	0	0	0	0	513	624	
13	0	0	0	0	513	624	
14	0	0	0	0	513	624	
15	0	0	0	0	513	625	
0	0	0	0	0	513	625	
1	0	0	0	0	513	624	
2	0	0	0	0	513	625	
3	0	0	0	0	512	625	
4	0	0	0	0	511	624	
5	0	0	0	0	510	624	
6	0	0	0	0	510	625	
7	0	0	0	0	510	624	
8	0	0	0	0	510	624	
9	0	0	0	0	510	624	
10	0	0	0	0	510	624	
11	0	0	0	0	509	624	
12	0	0	0	0	508	624	
13	0	0	0	0	507	624	
14	0	0	0	0	507	624	
15	0	0	0	0	506	624	
0	0	0	0	0	505	624	
1	0	0	0	0	504	623	
2	0	0	0	0	504	624	
3	0	0	0	0	503	624	
4	0	0	0	0	502	624	
5	0	0	0	0	503	624	
6	0	0	0	0	503	624	
7	0	0	0	0	503	624	
8	0	0	0	0	503	624	
9	0	0	0	0	502	624	
10	0	0	0	0	502	624	
11	0	0	0	0	502	624	
12	0	0	0	0	503	624	
13	0	0	0	0	503	625	
14	0	0	0	0	503	624	
15	0	0	0	0	503	625	
0	0	0	0	0	504	624	
1	0	0	0	0	504	624	
2	0	0	0	0	505	624	
3	0	0	0	0	505	624	
4	0	0	0	0	505	624	
5	0	0	0	0	505	624	
6	0	0	0	0	505	624	
7	0	0	0	0	505	624	
8	0	0	0	0	505	624	
9	0	0	0	0	506	625	
10	0	0	0	0	507	625	
11	0	0	0	0	507	624	
12	0	0	0	0	507	624	
13	0	0	0	0	508	624	
14	0	0	0	0	507	624	
15	0	0	0	0	507	624	
0	0	0	0	0	507	624	
1	0	0	0	0	507	625	
2	0	0	0	0	508	625	
3	0	0	0	0	508	625	
4	0	0	0	0	508	625	
5	0	0	0	0	509	625	
6	0	0	0	0	510	625	
7	0	0	0	0	510	625	
8	0	0	0	0	511	625	
9	0	0	0	0	512	625	
10	0	0	0	0	512	625	
11	0	0	0	0	512	625	
12	0	0	0	0	512	625	
13	0	0	0	0	513	624	
14	0	0	0	0	513	624	
15	0	0	0	0	513	624	
0	0	0	0	0	513	625	
1	0	0	0	0	513	624	
2	0	0	0	0	512	624	
3	0	0	0	0	513	624	
4	0	0	0	0	513	624	
5	0	0	0	0	512	625	
6	0	0	0	0	513	624	
7	0	0	0	0	512	624	
8	0	0	0	0	511	624	
9	0	0	0	0	511	624	
10	0	0	0	0	511	624	
11	0	0	0	0	511	623	
12	0	0	0	0	511	624	
13	0	0	0	0	510	623	
14	0	0	0	0	510	624	
15	0	0	0	0	510	624	
0	0	0	0	0	510	624	
1	0	0	0	0	509	624	
2	0	0	0	0	509	625	
3	0	0	0	0	509	624	
4	0	0	0	0	510	624	
5	0	0	0	0	510	624	
6	0	0	0	0	510	625	
7	0	0	0	0	509	624	
8	0	0	0	0	509	624	
9	0	0	0	0	509	624	
10	0	0	0	0	509	624	
11	0	0	0	0	509	623	
12	0	0	0	0	508	624	
13	0	0	0	0	508	623	
14	0	0	0	0	508	624	
15	0	0	0	0	508	623	
0	0	0	0	0	507	624	
1	0	0	0	0	508	623	
2	0	0	0	0	509	624	
3	0	0	0	0	509	624	
4	0	0	0	0	510	624	
5	0	0	0	0	509	623	
6	0	0	0	0	509	624	
7	0	0	0	0	509	623	
8	0	0	0	0	510	623	
9	0	0	0	0	510	623	
10	0	0	0	0	510	624	
11	0	0	0	0	510	624	
12	0	0	0	0	509	624	
13	0	0	0	0	508	624	
14	0	0	0	0	508	624	
15	0	0	0	0	507	624	
0	0	0	0	0	507	624	
1	0	0	0	0	507	624	
2	0	0	0	0	507	624	
3	0	0	0	0	508	624	
4	0	0	0	0	508	624	
5	0	0	0	0	508	624	
6	0	0	0	0	508	625	
7	0	0	0	0	508	624	
8	0	0	0	0	508	624	
9	0	0	0	0	507	624	
10	0	0	0	0	507	624	
11	0	0	0	0	505	624	
12	0	0	0	0	504	624	
13	0	0	0	0	503	624	
14	0	0	0	0	502	625	
15	0	0	0	0	501	624	
0	0	0	0	0	499	624	
1	0	0	0	0	497	624	
2	0	0	0	0	496	625	
3	0	0	0	0	494	624	
4	0	0	0	0	492	624	
5	0	0	0	0	489	625	
6	0	0	0	0	486	625	
7	0	0	0	0	483	625	
8	0	0	0	0	482	624	
9	0	0	0	0	482	625	
10	0	0	0	0	484	625	
11	0	0	0	0	487	625	
12	0	0	0	0	493	625	
13	0	0	0	0	499	625	
14	0	0	0	0	507	625	
15	0	0	0	0	515	625	
0	0	0	0	0	524	625	
1	0	0	0	0	536	625	
2	0	0	0	0	547	626	
3	0	0	0	0	564	625	
4	0	0	0	0	584	625	
5	0	0	0	0	606	625	
6	0	0	0	0	627	625	
7	0	0	0	0	644	625	
8	0	0	0	0	660	625	
9	0	0	0	0	679	625	
10	0	0	0	0	696	625	
11	0	0	0	0	712	625	
12	0	0	0	0	725	625	
13	0	0	0	0	734	625	
14	0	0	0	0	741	625	
15	0	0	0	0	745	625	
0	0	0	0	0	748	625	
1	0	0	0	0	751	625	
2	0	0	0	0	751	625	
3	0	0	0	0	745	625	
4	0	0	0	0	734	624	
5	0	0	0	0	718	624	
6	0	0	0	0	698	625	
7	0	0	0	0	677	625	
8	0	0	0	0	655	624	
9	0	0	0	0	633	624	
10	0	0	0	0	610	624	
11	0	0	0	0	587	625	
12	0	0	0	0	566	624	
13	0	0	0	0	548	624	
14	0	0	0	0	533	624	
15	0	0	0	0	520	624	
0	0	0	0	0	510	624	
1	0	0	0	0	503	624	
2	0	0	0	0	498	624	
3	0	0	0	0	492	623	
4	0	0	0	0	488	624	
5	0	0	0	0	484	624	
6	0	0	0	0	480	624	
7	0	0	0	0	476	624	
8	0	0	0	0	473	624	
9	0	0	0	0	469	624	
10	0	0	0	0	466	624	
11	0	0	0	0	463	624	
12	0	0	0	0	461	624	
13	0	0	0	0	459	624	
14	0	0	0	0	457	624	
15	0	0	0	0	455	624	
0	0	0	0	0	454	624	
1	0	0	0	0	453	625	
2	0	0	0	0	452	625	
3	0	0	0	0	452	624	
4	0	0	0	0	451	624	
5	0	0	0	0	451	624	
6	0	0	0	0	451	624	
7	0	0	0	0	450	624	
8	0	0	0	0	450	624	
9	0	0	0	0	451	624	
10	0	0	0	0	450	624	
11	0	0	0	0	450	623	
12	0	0	0	0	450	623	
13	0	0	0	0	449	624	
14	0	0	0	0	449	624	
15	0	0	0	0	450	623	
0	0	0	0	0	450	623	
1	0	0	0	0	450	623	
2	0	0	0	0	450	624	
3	0	0	0	0	450	623	
4	0	0	0	0	451	624	
5	0	0	0	0	451	623	
6	0	0	0	0	451	623	
7	0	0	0	0	452	624	
8	0	0	0	0	452	624	
9	0	0	0	0	453	623	
10	0	0	0	0	454	624	
11	0	0	0	0	454	623	
12	0	0	0	0	455	623	
13	0	0	0	0	455	623	
14	0	0	0	0	456	624	
15	0	0	0	0	457	623	
0	0	0	0	0	457	624	
1	0	0	0	0	457	624	
2	0	0	0	0	458	624	
3	0	0	0	0	458	624	
4	0	0	0	0	458	624	
5	0	0	0	0	459	624	
6	0	0	0	0	459	625	
7	0	0	0	0	460	624	
8	0	0	0	0	460	624	
9	0	0	0	0	461	625	
10	0	0	0	0	461	625	
11	0	0	0	0	462	624	
12	0	0	0	0	462	625	
13	0	0	0	0	462	624	
14	0	0	0	0	462	625	
15	0	0	0	0	462	625	
0	0	0	0	0	462	624	
1	0	0	0	0	463	625	
2	0	0	0	0	463	626	
3	0	0	0	0	463	625	
4	0	0	0	0	463	625	
5	0	0	0	0	463	625	
6	0	0	0	0	464	625	
7	0	0	0	0	464	626	
8	0	0	0	0	464	625	
9	0	0	0	0	465	625	
10	0	0	0	0	466	625	
11	0	0	0	0	467	625	
12	0	0	0	0	467	625	
13	0	0	0	0	468	625	
14	0	0	0	0	469	625	
15	0	0	0	0	470	625	
0	0	0	0	0	470	624	
1	0	0	0	0	471	625	
2	0	0	0	0	471	625	
3	0	0	0	0	471	624	
4	0	0	0	0	471	625	
5	0	0	0	0	471	624	
6	0	0	0	0	471	625	
7	0	0	0	0	471	624	
8	0	0	0	0	472	624	
9	0	0	0	0	472	624	
10	0	0	0	0	473	625	
11	0	0	0	0	474	624	
12	0	0	0	0	475	624	
13	0	0	0	0	475	624	
14	0	0	0	0	476	624	
15	0	0	0	0	477	624	
0	0	0	0	0	477	624	
1	0	0	0	0	478	624	
2	0	0	0	0	478	624	
3	0	0	0	0	478	624	
4	0	0	0	0	479	624	
5	0	0	0	0	479	624	
6	0	0	0	0	479	624	
7	0	0	0	0	479	624	
8	0	0	0	0	479	624	
9	0	0	0	0	480	624	
10	0	0	0	0	480	624	
11	0	0	0	0	480	624	
12	0	0	0	0	480	623	
13	0	0	0	0	480	623	
14	0	0	0	0	481	623	
15	0	0	0	0	481	623	
0	0	0	0	0	481	623	
1	0	0	0	0	481	622	
2	0	0	0	0	482	623	
3	0	0	0	0	482	622	
4	0	0	0	0	482	623	
5	0	0	0	0	482	622	
6	0	0	0	0	482	622	
7	0	0	0	0	483	623	
8	0	0	0	0	483	622	
9	0	0	0	0	483	622	
10	0	0	0	0	483	623	
11	0	0	0	0	483	622	
12	0	0	0	0	483	622	
13	0	0	0	0	483	623	
14	0	0	0	0	483	623	
15	0	0	0	0	483	623	
0	0	0	0	0	483	622	
1	0	0	0	0	483	623	
2	0	0	0	0	481	623	
3	0	0	0	0	482	623	
4	0	0	0	0	481	623	
5	0	0	0	0	482	623	
6	0	0	0	0	482	623	
7	0	0	0	0	482	623	
8	0	0	0	0	481	623	
9	0	0	0	0	482	623	
10	0	0	0	0	482	624	
11	0	0	0	0	483	623	
12	0	0	0	0	483	623	
13	0	0	0	0	483	623	
14	0	0	0	0	483	623	
15	0	0	0	0	483	623	
0	0	0	0	0	484	623	
1	0	0	0	0	484	622	
2	0	0	0	0	483	623	
3	0	0	0	0	483	623	
4	0	0	0	0	482	623	
5	0	0	0	0	482	623	
6	0	0	0	0	483	623	
7	0	0	0	0	483	623	
8	0	0	0	0	483	624	
9	0	0	0	0	483	624	
10	0	0	0	0	483	624	
11	0	0	0	0	483	624	
12	0	0	0	0	485	624	
13	0	0	0	0	485	624	
14	0	0	0	0	485	624	
15	0	0	0	0	486	624	
0	0	0	0	0	485	624	
1	0	0	0	0	486	624	
2	0	0	0	0	487	625	
3	0	0	0	0	487	625	
4	0	0	0	0	487	625	
5	0	0	0	0	487	625	
6	0	0	0	0	488	625	
7	0	0	0	0	489	625	
8	0	0	0	0	489	625	
9	0	0	0	0	489	625	
10	0	0	0	0	489	626	
11	0	0	0	0	489	625	
12	0	0	0	0	490	625	
13	0	0	0	0	490	626	
14	0	0	0	0	491	626	
15	0	0	0	0	491	626	
0	0	0	0	0	492	626	
1	0	0	0	0	492	625	
2	0	0	0	0	492	625	
3	0	0	0	0	492	625	
4	0	0	0	0	493	625	
5	0	0	0	0	494	625	
6	0	0	0	0	494	625	
7	0	0	0	0	496	625	
8	0	0	0	0	497	625	
9	0	0	0	0	497	625	
10	0	0	0	0	497	624	
11	0	0	0	0	499	625	
12	0	0	0	0	499	625	
13	0	0	0	0	500	625	
14	0	0	0	0	500	626	
15	0	0	0	0	501	626	
0	0	0	0	0	501	625	
1	0	0	0	0	502	625	
2	0	0	0	0	502	626	
3	0	0	0	0	502	625	
4	0	0	0	0	503	625	
5	0	0	0	0	503	625	
6	0	0	0	0	503	625	
7	0	0	0	0	503	624	
8	0	0	0	0	502	625	
9	0	0	0	0	503	625	
10	0	0	0	0	503	625	
11	0	0	0	0	503	625	
12	0	0	0	0	504	625	
13	0	0	0	0	504	625	
14	0	0	0	0	504	624	
15	0	0	0	0	504	624	
0	0	0	0	0	505	625	
1	0	0	0	0	505	624	
2	0	0	0	0	505	624	
3	0	0	0	0	505	625	
4	0	0	0	0	506	624	
5	0	0	0	0	505	624	
6	0	0	0	0	505	624	
7	0	0	0	0	505	625	
8	0	0	0	0	505	625	
9	0	0	0	0	505	625	
10	0	0	0	0	505	625	
11	0	0	0	0	504	625	
12	0	0	0	0	504	625	
13	0	0	0	0	504	625	
14	0	0	0	0	502	625	
15	0	0	0	0	503	624	
0	0	0	0	0	502	625	
1	0	0	0	0	502	625	
2	0	0	0	0	502	625	
3	0	0	0	0	501	625	
4	0	0	0	0	501	624	
5	0	0	0	0	500	624	
6	0	0	0	0	500	624	
7	0	0	0	0	500	624	
8	0	0	0	0	500	625	
9	0	0	0	0	500	624	
10	0	0	0	0	499	625	
11	0	0	0	0	499	625	
12	0	0	0	0	499	624	
13	0	0	0	0	499	624	
14	0	0	0	0	499	624	
15	0	0	0	0	498	624	
0	0	0	0	0	498	625	
1	0	0	0	0	497	624	
2	0	0	0	0	497	624	
3	0	0	0	0	497	624	
4	0	0	0	0	497	624	
5	0	0	0	0	496	624	
6	0	0	0	0	495	624	
7	0	0	0	0	494	624	
8	0	0	0	0	494	624	
9	0	0	0	0	493	624	
10	0	0	0	0	493	625	
11	0	0	0	0	493	625	
12	0	0	0	0	492	625	
13	0	0	0	0	492	624	
14	0	0	0	0	493	624	
15	0	0	0	0	494	624	
0	0	0	0	0	495	624	
1	0	0	0	0	496	624	
2	0	0	0	0	496	624	
3	0	0	0	0	497	624	
4	0	0	0	0	497	624	
5	0	0	0	0	497	624	
6	0	0	0	0	496	624	
7	0	0	0	0	497	624	
8	0	0	0	0	497	624	
9	0	0	0	0	497	624	
10	0	0	0	0	497	625	
11	0	0	0	0	497	624	
12	0	0	0	0	496	624	
13	0	0	0	0	497	624	
14	0	0	0	0	497	623	
15	0	0	0	0	497	624	
0	0	0	0	0	497	624	
1	0	0	0	0	497	624	
2	0	0	0	0	497	625	
3	0	0	0	0	497	625	
4	0	0	0	0	498	625	
5	0	0	0	0	498	625	
6	0	0	0	0	499	625	
7	0	0	0	0	499	624	
8	0	0	0	0	499	624	
9	0	0	0	0	500	624	
10	0	0	0	0	500	624	
11	0	0	0	0	500	624	
12	0	0	0	0	501	624	
13	0	0	0	0	501	624	
14	0	0	0	0	501	625	
15	0	0	0	0	501	624	
0	0	0	0	0	501	624	
1	0	0	0	0	502	624	
2	0	0	0	0	501	624	
3	0	0	0	0	501	624	
4	0	0	0	0	501	624	
5	0	0	0	0	500	625	
6	0	0	0	0	500	625	
7	0	0	0	0	501	625	
8	0	0	0	0	501	625	
9	0	0	0	0	500	625	
10	0	0	0	0	501	625	
11	0	0	0	0	500	624	
12	0	0	0	0	500	624	
13	0	0	0	0	499	624	
14	0	0	0	0	500	624	
15	0	0	0	0	499	624	
0	0	0	0	0	499	624	
1	0	0	0	0	499	624	
2	0	0	0	0	499	624	
3	0	0	0	0	498	625	
4	0	0	0	0	499	624	
5	0	0	0	0	499	625	
6	0	0	0	0	499	624	
7	0	0	0	0	499	625	
8	0	0	0	0	499	624	
9	0	0	0	0	499	624	
10	0	0	0	0	500	625	
11	0	0	0	0	500	625	
12	0	0	0	0	500	624	
13	0	0	0	0	500	625	
14	0	0	0	0	500	625	
15	0	0	0	0	500	624	
0	0	0	0	0	500	624	
1	0	0	0	0	500	625	
2	0	0	0	0	500	625	
3	0	0	0	0	500	624	
4	0	0	0	0	499	624	
5	0	0	0	0	499	625	
6	0	0	0	0	499	625	
7	0	0	0	0	499	625	
8	0	0	0	0	499	624	
9	0	0	0	0	499	624	
10	0	0	0	0	499	625	
11	0	0	0	0	500	624	
12	0	0	0	0	500	625	
13	0	0	0	0	500	624	
14	0	0	0	0	500	625	
15	0	0	0	0	500	624	
0	0	0	0	0	500	624	
1	0	0	0	0	500	625	
2	0	0	0	0	501	624	
3	0	0	0	0	502	625	
4	0	0	0	0	503	624	
5	0	0	0	0	504	625	
6	0	0	0	0	503	625	
7	0	0	0	0	504	624	
8	0	0	0	0	504	625	
9	0	0	0	0	504	624	
10	0	0	0	0	504	625	
11	0	0	0	0	504	625	
12	0	0	0	0	504	624	
13	0	0	0	0	504	624	
14	0	0	0	0	504	624	
15	0	0	0	0	504	624	
0	0	0	0	0	504	624	
1	0	0	0	0	504	623	
2	0	0	0	0	504	624	
3	0	0	0	0	505	624	
4	0	0	0	0	505	624	
5	0	0	0	0	505	624	
6	0	0	0	0	505	624	
7	0	0	0	0	505	624	
8	0	0	0	0	504	624	
9	0	0	0	0	504	624	
10	0	0	0	0	504	625	
11	0	0	0	0	505	624	
12	0	0	0	0	504	625	
13	0	0	0	0	504	624	
14	0	0	0	0	504	624	
15	0	0	0	0	505	624	
0	0	0	0	0	505	624	
1	0	0	0	0	506	624	
2	0	0	0	0	506	624	
3	0	0	0	0	506	624	
4	0	0	0	0	506	623	
5	0	0	0	0	507	623	
6	0	0	0	0	507	623	
7	0	0	0	0	507	624	
8	0	0	0	0	506	624	
9	0	0	0	0	506	624	
10	0	0	0	0	506	624	
11	0	0	0	0	507	623	
12	0	0	0	0	507	624	
13	0	0	0	0	507	624	
14	0	0	0	0	508	624	
15	0	0	0	0	508	624	
0	0	0	0	0	508	624	
1	0	0	0	0	508	624	
2	0	0	0	0	508	625	
3	0	0	0	0	508	624	
4	0	0	0	0	508	624	
5	0	0	0	0	508	624	
6	0	0	0	0	508	624	
7	0	0	0	0	507	624	
8	0	0	0	0	508	623	
9	0	0	0	0	508	623	
10	0	0	0	0	508	624	
11	0	0	0	0	508	624	
12	0	0	0	0	508	624	
13	0	0	0	0	508	623	
14	0	0	0	0	509	624	
15	0	0	0	0	509	624	
0	0	0	0	0	508	624	
1	0	0	0	0	508	624	
2	0	0	0	0	507	624	
3	0	0	0	0	508	624	
4	0	0	0	0	508	624	
5	0	0	0	0	509	624	
6	0	0	0	0	509	624	
7	0	0	0	0	509	624	
8	0	0	0	0	509	624	
9	0	0	0	0	510	624	
10	0	0	0	0	510	624	
11	0	0	0	0	511	624	
12	0	0	0	0	511	624	
13	0	0	0	0	511	624	
14	0	0	0	0	511	624	
15	0	0	0	0	510	624	
0	0	0	0	0	511	624	
1	0	0	0	0	510	624	
2	0	0	0	0	510	624	
3	0	0	0	0	510	624	
4	0	0	0	0	510	624	
5	0	0	0	0	510	624	
6	0	0	0	0	510	624	
7	0	0	0	0	510	624	
8	0	0	0	0	510	624	
9	0	0	0	0	510	625	
10	0	0	0	0	510	625	
11	0	0	0	0	510	624	
12	0	0	0	0	509	625	
13	0	0	0	0	510	624	
14	0	0	0	0	509	624	
15	0	0	0	0	510	624	
0	0	0	0	0	509	624	
1	0	0	0	0	509	624	
2	0	0	0	0	509	624	
3	0	0	0	0	509	624	
4	0	0	0	0	509	624	
5	0	0	0	0	509	624	
6	0	0	0	0	509	624	
7	0	0	0	0	509	624	
8	0	0	0	0	509	624	
9	0	0	0	0	509	624	
10	0	0	0	0	509	625	
11	0	0	0	0	508	624	
12	0	0	0	0	509	625	
13	0	0	0	0	510	624	
14	0	0	0	0	510	624	
15	0	0	0	0	510	624	
0	0	0	0	0	510	624	
1	0	0	0	0	510	624	
2	0	0	0	0	510	624	
3	0	0	0	0	511	624	
4	0	0	0	0	510	624	
5	0	0	0	0	510	624	
6	0	0	0	0	510	624	
7	0	0	0	0	509	624	
8	0	0	0	0	509	624	
9	0	0	0	0	508	624	
10	0	0	0	0	508	624	
11	0	0	0	0	508	623	
12	0	0	0	0	508	624	
13	0	0	0	0	508	623	
14	0	0	0	0	508	624	
15	0	0	0	0	508	623	
0	0	0	0	0	508	624	
1	0	0	0	0	508	624	
2	0	0	0	0	509	624	
3	0	0	0	0	509	624	
4	0	0	0	0	509	624	
5	0	0	0	0	509	624	
6	0	0	0	0	509	624	
7	0	0	0	0	508	624	
8	0	0	0	0	508	624	
9	0	0	0	0	508	623	
10	0	0	0	0	508	624	
11	0	0	0	0	508	624	
12	0	0	0	0	508	624	
13	0	0	0	0	507	624	
14	0	0	0	0	507	624	
15	0	0	0	0	508	624	
0	0	0	0	0	508	624	
1	0	0	0	0	508	624	
2	0	0	0	0	508	624	
3	0	0	0	0	507	624	
4	0	0	0	0	507	623	
5	0	0	0	0	507	624	
6	0	0	0	0	506	624	
7	0	0	0	0	506	624	
8	0	0	0	0	505	624	
9	0	0	0	0	504	624	
10	0	0	0	0	504	625	
11	0	0	0	0	503	624	
12	0	0	0	0	502	624	
13	0	0	0	0	501	625	
14	0	0	0	0	500	624	
15	0	0	0	0	499	624	
0	0	0	0	0	499	625	
1	0	0	0	0	499	625	
2	0	0	0	0	498	625	
3	0	0	0	0	498	624	
4	0	0	0	0	498	624	
5	0	0	0	0	498	625	
6	0	0	0	0	498	625	
7	0	0	0	0	498	625	
8	0	0	0	0	497	625	
9	0	0	0	0	497	625	
10	0	0	0	0	497	625	
11	0	0	0	0	497	625	
12	0	0	0	0	497	625	
13	0	0	0	0	497	625	
14	0	0	0	0	496	626	
15	0	0	0	0	496	625	
0	0	0	0	0	496	625	
1	0	0	0	0	496	625	
2	0	0	0	0	497	625	
3	0	0	0	0	497	625	
4	0	0	0	0	498	625	
5	0	0	0	0	498	625	
6	0	0	0	0	497	626	
7	0	0	0	0	498	626	
8	0	0	0	0	498	625	
9	0	0	0	0	498	625	
10	0	0	0	0	499	626	
11	0	0	0	0	499	625	
12	0	0	0	0	500	625	
13	0	0	0	0	501	625	
14	0	0	0	0	502	625	
15	0	0	0	0	503	625	
0	0	0	0	0	503	625	
1	0	0	0	0	504	625	
2	0	0	0	0	504	625	
3	0	0	0	0	505	625	
4	0	0	0	0	505	625	
5	0	0	0	0	505	624	
6	0	0	0	0	506	625	
7	0	0	0	0	507	625	
8	0	0	0	0	508	625	
9	0	0	0	0	508	625	
10	0	0	0	0	509	625	
11	0	0	0	0	509	625	
12	0	0	0	0	509	625	
13	0	0	0	0	509	625	
14	0	0	0	0	510	625	
15	0	0	0	0	509	624	
0	0	0	0	0	510	624	
1	0	0	0	0	509	624	
2	0	0	0	0	509	625	
3	0	0	0	0	508	624	
4	0	0	0	0	508	624	
5	0	0	0	0	508	624	
6	0	0	0	0	507	624	
7	0	0	0	0	507	624	
8	0	0	0	0	507	624	
9	0	0	0	0	507	624	
10	0	0	0	0	506	624	
11	0	0	0	0	505	624	
12	0	0	0	0	505	624	
13	0	0	0	0	505	624	
14	0	0	0	0	505	624	
15	0	0	0	0	505	624	
0	0	0	0	0	505	624	
1	0	0	0	0	505	624	
2	0	0	0	0	506	624	
3	0	0	0	0	506	625	
4	0	0	0	0	506	624	
5	0	0	0	0	505	624	
6	0	0	0	0	505	624	
7	0	0	0	0	505	624	
8	0	0	0	0	505	624	
9	0	0	0	0	505	624	
10	0	0	0	0	505	624	
11	0	0	0	0	506	623	
12	0	0	0	0	506	624	
13	0	0	0	0	505	624	
14	0	0	0	0	506	624	
15	0	0	0	0	507	624	
0	0	0	0	0	507	623	
1	0	0	0	0	508	624	
2	0	0	0	0	508	624	
3	0	0	0	0	508	624	
4	0	0	0	0	507	624	
5	0	0	0	0	507	624	
6	0	0	0	0	507	624	
7	0	0	0	0	507	624	
8	0	0	0	0	507	624	
9	0	0	0	0	507	624	
10	0	0	0	0	507	624	
11	0	0	0	0	507	624	
12	0	0	0	0	507	624	
13	0	0	0	0	507	624	
14	0	0	0	0	506	624	
15	0	0	0	0	507	624	
0	0	0	0	0	507	624	
1	0	0	0	0	507	624	
2	0	0	0	0	508	624	
3	0	0	0	0	508	624	
4	0	0	0	0	509	624	
5	0	0	0	0	509	624	
6	0	0	0	0	510	624	
7	0	0	0	0	511	624	
8	0	0	0	0	511	624	
9	0	0	0	0	511	623	
10	0	0	0	0	511	624	
11	0	0	0	0	510	624	
12	0	0	0	0	509	624	
13	0	0	0	0	506	624	
14	0	0	0	0	504	625	
15	0	0	0	0	502	624	
0	0	0	0	0	500	624	
1	0	0	0	0	498	624	
2	0	0	0	0	497	625	
3	0	0	0	0	495	624	
4	0	0	0	0	492	624	
5	0	0	0	0	490	624	
6	0	0	0	0	487	624	
7	0	0	0	0	484	624	
8	0	0	0	0	482	624	
9	0	0	0	0	481	624	
10	0	0	0	0	482	625	
11	0	0	0	0	485	624	
12	0	0	0	0	488	624	
13	0	0	0	0	494	624	
14	0	0	0	0	501	625	
15	0	0	0	0	510	624	
0	0	0	0	0	519	624	
1	0	0	0	0	529	624	
2	0	0	0	0	541	625	
3	0	0	0	0	555	624	
4	0	0	0	0	574	624	
5	0	0	0	0	596	624	
6	0	0	0	0	617	625	
7	0	0	0	0	639	624	
8	0	0	0	0	658	625	
9	0	0	0	0	676	624	
10	0	0	0	0	696	625	
11	0	0	0	0	714	625	
12	0	0	0	0	728	624	
13	0	0	0	0	741	624	
14	0	0	0	0	752	625	
15	0	0	0	0	760	624	
0	0	0	0	0	766	624	
1	0	0	0	0	770	624	
2	0	0	0	0	774	624	
3	0	0	0	0	773	624	
4	0	0	0	0	768	624	
5	0	0	0	0	756	624	
6	0	0	0	0	739	624	
7	0	0	0	0	718	624	
8	0	0	0	0	694	624	
9	0	0	0	0	670	624	
10	0	0	0	0	644	625	
11	0	0	0	0	617	624	
12	0	0	0	0	590	624	
13	0	0	0	0	566	624	
14	0	0	0	0	546	625	
15	0	0	0	0	528	625	
0	0	0	0	0	515	624	
1	0	0	0	0	505	624	
2	0	0	0	0	498	625	
3	0	0	0	0	492	624	
4	0	0	0	0	487	624	
5	0	0	0	0	483	624	
6	0	0	0	0	478	625	
7	0	0	0	0	474	625	
8	0	0	0	0	470	624	
9	0	0	0	0	466	625	
10	0	0	0	0	462	625	
11	0	0	0	0	460	624	
12	0	0	0	0	458	624	
13	0	0	0	0	455	624	
14	0	0	0	0	454	625	
15	0	0	0	0	453	625	
0	0	0	0	0	452	625	
1	0	0	0	0	451	625	
2	0	0	0	0	450	625	
3	0	0	0	0	449	624	
4	0	0	0	0	449	625	
5	0	0	0	0	449	625	
6	0	0	0	0	449	625	
7	0	0	0	0	449	625	
8	0	0	0	0	448	624	
9	0	0	0	0	449	624	
10	0	0	0	0	450	625	
11	0	0	0	0	450	625	
12	0	0	0	0	450	624	
13	0	0	0	0	450	624	
14	0	0	0	0	450	624	
15	0	0	0	0	451	624	
0	0	0	0	0	452	624	
1	0	0	0	0	452	624	
2	0	0	0	0	452	624	
3	0	0	0	0	452	624	
4	0	0	0	0	452	624	
5	0	0	0	0	454	624	
6	0	0	0	0	454	624	
7	0	0	0	0	455	624	
8	0	0	0	0	455	624	
9	0	0	0	0	456	624	
10	0	0	0	0	456	624	
11	0	0	0	0	456	624	
12	0	0	0	0	456	624	
13	0	0	0	0	456	624	
14	0	0	0	0	456	623	
15	0	0	0	0	456	624	
0	0	0	0	0	457	623	
1	0	0	0	0	457	623	
2	0	0	0	0	457	624	
3	0	0	0	0	458	624	
4	0	0	0	0	459	624	
5	0	0	0	0	460	624	
6	0	0	0	0	460	624	
7	0	0	0	0	461	624	
8	0	0	0	0	461	624	
9	0	0	0	0	462	623	
10	0	0	0	0	463	624	
11	0	0	0	0	463	623	
12	0	0	0	0	463	624	
13	0	0	0	0	463	624	
14	0	0	0	0	463	624	
15	0	0	0	0	464	624	
0	0	0	0	0	464	624	
1	0	0	0	0	465	624	
2	0	0	0	0	465	624	
3	0	0	0	0	467	624	
4	0	0	0	0	466	624	
5	0	0	0	0	466	623	
6	0	0	0	0	466	623	
7	0	0	0	0	467	623	
8	0	0	0	0	467	624	
9	0	0	0	0	468	624	
10	0	0	0	0	469	624	
11	0	0	0	0	469	623	
12	0	0	0	0	469	624	
13	0	0	0	0	470	624	
14	0	0	0	0	470	624	
15	0	0	0	0	471	623	
0	0	0	0	0	471	623	
1	0	0	0	0	472	623	
2	0	0	0	0	472	624	
3	0	0	0	0	472	624	
4	0	0	0	0	473	624	
5	0	0	0	0	474	624	
6	0	0	0	0	474	624	
7	0	0	0	0	475	624	
8	0	0	0	0	475	625	
9	0	0	0	0	475	624	
10	0	0	0	0	475	625	
11	0	0	0	0	475	624	
12	0	0	0	0	476	624	
13	0	0	0	0	476	624	
14	0	0	0	0	476	625	
15	0	0	0	0	476	624	
0	0	0	0	0	477	625	
1	0	0	0	0	477	624	
2	0	0	0	0	477	625	
3	0	0	0	0	478	624	
4	0	0	0	0	478	625	
5	0	0	0	0	478	625	
6	0	0	0	0	479	625	
7	0	0	0	0	479	625	
8	0	0	0	0	480	624	
9	0	0	0	0	480	625	
10	0	0	0	0	480	624	
11	0	0	0	0	480	624	
12	0	0	0	0	480	624	
13	0	0	0	0	479	624	
14	0	0	0	0	479	624	
15	0	0	0	0	479	625	
0	0	0	0	0	479	624	
1	0	0	0	0	479	625	
2	0	0	0	0	478	625	
3	0	0	0	0	479	624	
4	0	0	0	0	478	625	
5	0	0	0	0	479	625	
6	0	0	0	0	480	625	
7	0	0	0	0	480	625	
8	0	0	0	0	480	624	
9	0	0	0	0	480	625	
10	0	0	0	0	480	625	
11	0	0	0	0	480	624	
12	0	0	0	0	481	625	
13	0	0	0	0	481	624	
14	0	0	0	0	481	624	
15	0	0	0	0	482	624	
0	0	0	0	0	481	624	
1	0	0	0	0	482	624	
2	0	0	0	0	482	624	
3	0	0	0	0	482	624	
4	0	0	0	0	483	624	
5	0	0	0	0	483	624	
6	0	0	0	0	483	624	
7	0	0	0	0	483	624	
8	0	0	0	0	483	624	
9	0	0	0	0	484	624	
10	0	0	0	0	483	624	
11	0	0	0	0	483	623	
12	0	0	0	0	484	624	
13	0	0	0	0	483	623	
14	0	0	0	0	483	624	
15	0	0	0	0	483	624	
0	0	0	0	0	483	624	
1	0	0	0	0	483	623	
2	0	0	0	0	484	623	
3	0	0	0	0	484	623	
4	0	0	0	0	484	624	
5	0	0	0	0	485	624	
6	0	0	0	0	486	624	
7	0	0	0	0	486	624	
8	0	0	0	0	486	624	
9	0	0	0	0	486	624	
10	0	0	0	0	486	624	
11	0	0	0	0	486	624	
12	0	0	0	0	486	624	
13	0	0	0	0	486	624	
14	0	0	0	0	486	624	
15	0	0	0	0	487	624	
0	0	0	0	0	487	624	
1	0	0	0	0	487	624	
2	0	0	0	0	488	625	
3	0	0	0	0	489	625	
4	0	0	0	0	488	624	
5	0	0	0	0	488	625	
6	0	0	0	0	488	624	
7	0	0	0	0	488	624	
8	0	0	0	0	489	624	
9	0	0	0	0	489	624	
10	0	0	0	0	490	624	
11	0	0	0	0	490	624	
12	0	0	0	0	490	624	
13	0	0	0	0	491	624	
14	0	0	0	0	492	624	
15	0	0	0	0	492	623	
0	0	0	0	0	494	624	
1	0	0	0	0	495	624	
2	0	0	0	0	496	624	
3	0	0	0	0	496	624	
4	0	0	0	0	497	624	
5	0	0	0	0	497	624	
6	0	0	0	0	497	623	
7	0	0	0	0	498	624	
8	0	0	0	0	497	623	
9	0	0	0	0	498	623	
10	0	0	0	0	499	624	
11	0	0	0	0	498	623	
12	0	0	0	0	499	623	
13	0	0	0	0	500	623	
14	0	0	0	0	501	623	
15	0	0	0	0	502	623	
0	0	0	0	0	502	623	
1	0	0	0	0	503	623	
2	0	0	0	0	504	624	
3	0	0	0	0	505	624	
4	0	0	0	0	505	623	
5	0	0	0	0	505	623	
6	0	0	0	0	505	624	
7	0	0	0	0	505	623	
8	0	0	0	0	505	623	
9	0	0	0	0	506	624	
10	0	0	0	0	507	624	
11	0	0	0	0	507	623	
12	0	0	0	0	508	624	
13	0	0	0	0	508	623	
14	0	0	0	0	508	624	
15	0	0	0	0	508	624	
0	0	0	0	0	508	624	
1	0	0	0	0	508	624	
2	0	0	0	0	508	625	
3	0	0	0	0	508	624	
4	0	0	0	0	508	625	
5	0	0	0	0	508	624	
6	0	0	0	0	507	624	
7	0	0	0	0	507	624	
8	0	0	0	0	507	624	
9	0	0	0	0	507	624	
10	0	0	0	0	506	624	
11	0	0	0	0	505	624	
12	0	0	0	0	504	625	
13	0	0	0	0	504	624	
14	0	0	0	0	504	625	
15	0	0	0	0	503	625	
0	0	0	0	0	503	625	
1	0	0	0	0	502	624	
2	0	0	0	0	502	625	
3	0	0	0	0	502	625	
4	0	0	0	0	501	624	
5	0	0	0	0	501	625	
6	0	0	0	0	500	624	
7	0	0	0	0	500	625	
8	0	0	0	0	500	625	
9	0	0	0	0	499	625	
10	0	0	0	0	499	625	
11	0	0	0	0	499	624	
12	0	0	0	0	497	624	
13	0	0	0	0	497	625	
14	0	0	0	0	497	624	
15	0	0	0	0	497	625	
0	0	0	0	0	497	625	
1	0	0	0	0	498	625	
2	0	0	0	0	498	625	
3	0	0	0	0	497	625	
4	0	0	0	0	498	625	
5	0	0	0	0	497	625	
6	0	0	0	0	497	625	
7	0	0	0	0	497	625	
8	0	0	0	0	497	625	
9	0	0	0	0	497	625	
10	0	0	0	0	497	625	
11	0	0	0	0	497	625	
12	0	0	0	0	498	625	
13	0	0	0	0	499	625	
14	0	0	0	0	499	625	
15	0	0	0	0	499	625	
0	0	0	0	0	499	625	
1	0	0	0	0	499	625	
2	0	0	0	0	500	625	
3	0	0	0	0	500	625	
4	0	0	0	0	501	624	
5	0	0	0	0	502	625	
6	0	0	0	0	502	626	
7	0	0	0	0	502	625	
8	0	0	0	0	502	625	
9	0	0	0	0	502	625	
10	0	0	0	0	502	625	
11	0	0	0	0	503	625	
12	0	0	0	0	504	625	
13	0	0	0	0	504	625	
14	0	0	0	0	504	625	
15	0	0	0	0	504	625	
0	0	0	0	0	505	624	
1	0	0	0	0	505	624	
2	0	0	0	0	505	625	
3	0	0	0	0	505	624	
4	0	0	0	0	505	625	
5	0	0	0	0	504	624	
6	0	0	0	0	505	624	
7	0	0	0	0	505	624	
8	0	0	0	0	505	624	
9	0	0	0	0	504	624	
10	0	0	0	0	505	625	
11	0	0	0	0	505	624	
12	0	0	0	0	505	624	
13	0	0	0	0	505	624	
14	0	0	0	0	505	624	
15	0	0	0	0	505	624	
0	0	0	0	0	505	624	
1	0	0	0	0	505	624	
2	0	0	0	0	506	624	
3	0	0	0	0	506	624	
4	0	0	0	0	506	624	
5	0	0	0	0	507	624	
6	0	0	0	0	507	624	
7	0	0	0	0	507	624	
8	0	0	0	0	506	623	
9	0	0	0	0	507	623	
10	0	0	0	0	507	624	
11	0	0	0	0	507	624	
12	0	0	0	0	507	623	
13	0	0	0	0	507	624	
14	0	0	0	0	507	624	
15	0	0	0	0	507	623	
0	0	0	0	0	507	623	
1	0	0	0	0	507	623	
2	0	0	0	0	507	624	
3	0	0	0	0	507	623	
4	0	0	0	0	508	623	
5	0	0	0	0	508	623	
6	0	0	0	0	508	623	
7	0	0	0	0	508	623	
8	0	0	0	0	508	623	
9	0	0	0	0	508	623	
10	0	0	0	0	509	624	
11	0	0	0	0	509	624	
12	0	0	0	0	509	624	
13	0	0	0	0	509	624	
14	0	0	0	0	509	624	
15	0	0	0	0	509	624	
0	0	0	0	0	509	624	
1	0	0	0	0	508	624	
2	0	0	0	0	509	625	
3	0	0	0	0	510	624	
4	0	0	0	0	509	625	
5	0	0	0	0	509	624	
6	0	0	0	0	509	624	
7	0	0	0	0	509	624	
8	0	0	0	0	509	624	
9	0	0	0	0	509	625	
10	0	0	0	0	509	625	
11	0	0	0	0	508	624	
12	0	0	0	0	508	624	
13	0	0	0	0	508	624	
14	0	0	0	0	508	625	
15	0	0	0	0	509	625	
0	0	0	0	0	509	625	
1	0	0	0	0	509	624	
2	0	0	0	0	509	625	
3	0	0	0	0	509	625	
4	0	0	0	0	510	625	
5	0	0	0	0	510	625	
6	0	0	0	0	509	625	
7	0	0	0	0	510	625	
8	0	0	0	0	509	625	
9	0	0	0	0	509	625	
10	0	0	0	0	510	626	
11	0	0	0	0	508	625	
12	0	0	0	0	508	625	
13	0	0	0	0	508	624	
14	0	0	0	0	508	625	
15	0	0	0	0	508	625	
0	0	0	0	0	508	625	
1	0	0	0	0	508	625	
2	0	0	0	0	508	625	
3	0	0	0	0	508	625	
4	0	0	0	0	510	625	
5	0	0	0	0	509	624	
6	0	0	0	0	509	624	
7	0	0	0	0	509	625	
8	0	0	0	0	509	624	
9	0	0	0	0	508	624	
10	0	0	0	0	509	624	
11	0	0	0	0	509	624	
12	0	0	0	0	509	624	
13	0	0	0	0	509	624	
14	0	0	0	0	509	624	
15	0	0	0	0	510	624	
0	0	0	0	0	511	624	
1	0	0	0	0	511	624	
2	0	0	0	0	511	624	
3	0	0	0	0	511	624	
4	0	0	0	0	511	624	
5	0	0	0	0	511	624	
6	0	0	0	0	511	624	
7	0	0	0	0	511	624	
8	0	0	0	0	510	624	
9	0	0	0	0	510	624	
10	0	0	0	0	511	624	
11	0	0	0	0	511	624	
12	0	0	0	0	512	624	
13	0	0	0	0	512	624	
14	0	0	0	0	512	624	
15	0	0	0	0	512	624	
0	0	0	0	0	512	624	
1	0	0	0	0	512	624	
2	0	0	0	0	512	624	
3	0	0	0	0	512	624	
4	0	0	0	0	512	624	
5	0	0	0	0	512	624	
6	0	0	0	0	512	624	
7	0	0	0	0	512	623	
8	0	0	0	0	513	624	
9	0	0	0	0	513	624	
10	0	0	0	0	513	624	
11	0	0	0	0	513	624	
12	0	0	0	0	514	624	
13	0	0	0	0	513	623	
14	0	0	0	0	514	623	
15	0	0	0	0	514	623	
0	0	0	0	0	514	623	
1	0	0	0	0	514	624	
2	0	0	0	0	514	624	
3	0	0	0	0	513	624	
