# OpenSignals Text File Format. Version 1
# {"98:D3:91:FD:59:64": {"position": 0, "device": "bitalino_rev", "device name": "98:D3:91:FD:59:64", "device connection": "BTH98:D3:91:FD:59:64", "sampling rate": 1000, "resolution": [4, 1, 1, 1, 1, 10, 10], "firmware version": 1281, "comments": "", "keywords": "", "mode": 0, "sync interval": 2, "date": "2021-9-15", "time": "11:13:32.192", "channels": [2, 5], "sensor": ["RAW", "RAW"], "label": ["A2", "A5"], "column": ["nSeq", "I1", "I2", "O1", "O2", "A2", "A5"], "special": [{}, {}], "digital IO": [0, 0, 1, 1], "convertedValues": 0}}
# EndOfHeader
0	0	0	0	0	405	624	
1	0	0	0	0	406	623	
2	0	0	0	0	407	624	
3	0	0	0	0	408	624	
4	0	0	0	0	409	623	
5	0	0	0	0	410	625	
6	0	0	0	0	410	623	
7	0	0	0	0	410	623	
8	0	0	0	0	411	623	
9	0	0	0	0	411	621	
10	0	0	0	0	411	622	
11	0	0	0	0	411	622	
12	0	0	0	0	411	622	
13	0	0	0	0	411	624	
14	0	0	0	0	412	622	
15	0	0	0	0	413	622	
0	0	0	0	0	414	622	
1	0	0	0	0	414	621	
2	0	0	0	0	415	623	
3	0	0	0	0	415	623	
4	0	0	0	0	416	623	
5	0	0	0	0	417	625	
6	0	0	0	0	417	623	
7	0	0	0	0	418	623	
8	0	0	0	0	418	623	
9	0	0	0	0	418	620	
10	0	0	0	0	418	623	
11	0	0	0	0	418	623	
12	0	0	0	0	419	623	
13	0	0	0	0	420	625	
14	0	0	0	0	421	623	
15	0	0	0	0	423	623	
0	0	0	0	0	425	623	
1	0	0	0	0	426	622	
2	0	0	0	0	426	623	
3	0	0	0	0	427	623	
4	0	0	0	0	427	623	
5	0	0	0	0	428	625	
6	0	0	0	0	429	624	
7	0	0	0	0	430	624	
8	0	0	0	0	431	623	
9	0	0	0	0	432	622	
10	0	0	0	0	432	623	
11	0	0	0	0	432	623	
12	0	0	0	0	431	623	
13	0	0	0	0	431	624	
14	0	0	0	0	431	623	
15	0	0	0	0	431	624	
0	0	0	0	0	432	623	
1	0	0	0	0	432	622	
2	0	0	0	0	434	623	
3	0	0	0	0	435	623	
4	0	0	0	0	435	623	
5	0	0	0	0	436	624	
6	0	0	0	0	436	623	
7	0	0	0	0	438	623	
8	0	0	0	0	439	623	
9	0	0	0	0	438	620	
10	0	0	0	0	439	622	
11	0	0	0	0	439	622	
12	0	0	0	0	439	622	
13	0	0	0	0	440	624	
14	0	0	0	0	440	622	
15	0	0	0	0	440	622	
0	0	0	0	0	440	622	
1	0	0	0	0	442	620	
2	0	0	0	0	442	622	
3	0	0	0	0	443	622	
4	0	0	0	0	442	623	
5	0	0	0	0	443	625	
6	0	0	0	0	443	624	
7	0	0	0	0	443	623	
8	0	0	0	0	444	624	
9	0	0	0	0	444	623	
10	0	0	0	0	443	625	
11	0	0	0	0	444	625	
12	0	0	0	0	443	625	
13	0	0	0	0	443	627	
14	0	0	0	0	443	626	
15	0	0	0	0	442	626	
0	0	0	0	0	441	626	
1	0	0	0	0	442	625	
2	0	0	0	0	443	626	
3	0	0	0	0	444	627	
4	0	0	0	0	444	627	
5	0	0	0	0	444	628	
6	0	0	0	0	445	626	
7	0	0	0	0	446	626	
8	0	0	0	0	447	627	
9	0	0	0	0	447	624	
10	0	0	0	0	447	626	
11	0	0	0	0	447	626	
12	0	0	0	0	447	626	
13	0	0	0	0	449	627	
14	0	0	0	0	449	626	
15	0	0	0	0	450	625	
0	0	0	0	0	450	625	
1	0	0	0	0	450	624	
2	0	0	0	0	449	626	
3	0	0	0	0	448	625	
4	0	0	0	0	449	626	
5	0	0	0	0	449	627	
6	0	0	0	0	450	625	
7	0	0	0	0	451	626	
8	0	0	0	0	452	625	
9	0	0	0	0	452	624	
10	0	0	0	0	453	625	
11	0	0	0	0	454	625	
12	0	0	0	0	455	625	
13	0	0	0	0	454	626	
14	0	0	0	0	454	624	
15	0	0	0	0	454	625	
0	0	0	0	0	454	624	
1	0	0	0	0	456	623	
2	0	0	0	0	457	625	
3	0	0	0	0	457	625	
4	0	0	0	0	456	625	
5	0	0	0	0	456	626	
6	0	0	0	0	457	625	
7	0	0	0	0	457	625	
8	0	0	0	0	458	624	
9	0	0	0	0	458	623	
10	0	0	0	0	459	624	
11	0	0	0	0	459	625	
12	0	0	0	0	461	625	
13	0	0	0	0	461	627	
14	0	0	0	0	461	625	
15	0	0	0	0	461	625	
0	0	0	0	0	463	625	
1	0	0	0	0	464	624	
2	0	0	0	0	465	625	
3	0	0	0	0	467	626	
4	0	0	0	0	468	625	
5	0	0	0	0	469	627	
6	0	0	0	0	470	626	
7	0	0	0	0	471	626	
8	0	0	0	0	473	626	
9	0	0	0	0	475	624	
10	0	0	0	0	476	626	
11	0	0	0	0	478	626	
12	0	0	0	0	478	627	
13	0	0	0	0	480	627	
14	0	0	0	0	480	626	
15	0	0	0	0	482	626	
0	0	0	0	0	483	626	
1	0	0	0	0	484	624	
2	0	0	0	0	484	626	
3	0	0	0	0	485	626	
4	0	0	0	0	487	626	
5	0	0	0	0	487	627	
6	0	0	0	0	489	627	
7	0	0	0	0	490	626	
8	0	0	0	0	491	626	
9	0	0	0	0	492	625	
10	0	0	0	0	493	627	
11	0	0	0	0	493	627	
12	0	0	0	0	495	626	
13	0	0	0	0	496	627	
14	0	0	0	0	497	626	
15	0	0	0	0	499	625	
0	0	0	0	0	499	625	
1	0	0	0	0	499	623	
2	0	0	0	0	499	625	
3	0	0	0	0	499	625	
4	0	0	0	0	501	625	
5	0	0	0	0	502	626	
6	0	0	0	0	504	625	
7	0	0	0	0	505	624	
8	0	0	0	0	507	624	
9	0	0	0	0	508	623	
10	0	0	0	0	509	624	
11	0	0	0	0	512	624	
12	0	0	0	0	513	624	
13	0	0	0	0	514	625	
14	0	0	0	0	514	623	
15	0	0	0	0	515	623	
0	0	0	0	0	515	623	
1	0	0	0	0	516	621	
2	0	0	0	0	517	622	
3	0	0	0	0	517	623	
4	0	0	0	0	516	623	
5	0	0	0	0	516	624	
6	0	0	0	0	517	623	
7	0	0	0	0	517	623	
8	0	0	0	0	516	623	
9	0	0	0	0	515	621	
10	0	0	0	0	516	623	
11	0	0	0	0	515	623	
12	0	0	0	0	515	624	
13	0	0	0	0	515	626	
14	0	0	0	0	515	624	
15	0	0	0	0	516	624	
0	0	0	0	0	516	625	
1	0	0	0	0	518	623	
2	0	0	0	0	518	625	
3	0	0	0	0	516	625	
4	0	0	0	0	516	625	
5	0	0	0	0	515	627	
6	0	0	0	0	515	625	
7	0	0	0	0	514	625	
8	0	0	0	0	515	625	
9	0	0	0	0	514	624	
10	0	0	0	0	514	624	
11	0	0	0	0	513	624	
12	0	0	0	0	513	624	
13	0	0	0	0	513	626	
14	0	0	0	0	513	625	
15	0	0	0	0	513	624	
0	0	0	0	0	513	624	
1	0	0	0	0	512	623	
2	0	0	0	0	512	624	
3	0	0	0	0	511	624	
4	0	0	0	0	512	624	
5	0	0	0	0	513	626	
6	0	0	0	0	513	624	
7	0	0	0	0	513	624	
8	0	0	0	0	513	624	
9	0	0	0	0	513	621	
10	0	0	0	0	513	624	
11	0	0	0	0	513	623	
12	0	0	0	0	512	623	
13	0	0	0	0	511	625	
14	0	0	0	0	510	623	
15	0	0	0	0	509	623	
0	0	0	0	0	509	622	
1	0	0	0	0	508	621	
2	0	0	0	0	507	622	
3	0	0	0	0	507	623	
4	0	0	0	0	508	622	
5	0	0	0	0	508	624	
6	0	0	0	0	508	622	
7	0	0	0	0	508	623	
8	0	0	0	0	508	623	
9	0	0	0	0	509	621	
10	0	0	0	0	509	623	
11	0	0	0	0	510	623	
12	0	0	0	0	512	622	
13	0	0	0	0	512	624	
14	0	0	0	0	511	623	
15	0	0	0	0	511	623	
0	0	0	0	0	511	623	
1	0	0	0	0	511	620	
2	0	0	0	0	512	623	
3	0	0	0	0	513	623	
4	0	0	0	0	514	622	
5	0	0	0	0	514	624	
6	0	0	0	0	513	622	
7	0	0	0	0	513	622	
8	0	0	0	0	514	622	
9	0	0	0	0	513	620	
10	0	0	0	0	512	621	
11	0	0	0	0	511	621	
12	0	0	0	0	510	621	
13	0	0	0	0	510	623	
14	0	0	0	0	511	620	
15	0	0	0	0	511	620	
0	0	0	0	0	511	620	
1	0	0	0	0	511	617	
2	0	0	0	0	512	620	
3	0	0	0	0	512	619	
4	0	0	0	0	512	619	
5	0	0	0	0	512	621	
6	0	0	0	0	513	619	
7	0	0	0	0	514	619	
8	0	0	0	0	514	618	
9	0	0	0	0	515	616	
10	0	0	0	0	514	618	
11	0	0	0	0	514	618	
12	0	0	0	0	515	618	
13	0	0	0	0	515	620	
14	0	0	0	0	514	618	
15	0	0	0	0	513	618	
0	0	0	0	0	511	618	
1	0	0	0	0	511	616	
2	0	0	0	0	510	618	
3	0	0	0	0	511	619	
4	0	0	0	0	511	618	
5	0	0	0	0	510	620	
6	0	0	0	0	510	618	
7	0	0	0	0	510	619	
8	0	0	0	0	511	619	
9	0	0	0	0	511	617	
10	0	0	0	0	511	620	
11	0	0	0	0	510	619	
12	0	0	0	0	510	620	
13	0	0	0	0	511	621	
14	0	0	0	0	511	620	
15	0	0	0	0	510	620	
0	0	0	0	0	511	620	
1	0	0	0	0	511	619	
2	0	0	0	0	511	620	
3	0	0	0	0	510	620	
4	0	0	0	0	508	620	
5	0	0	0	0	507	622	
6	0	0	0	0	507	621	
7	0	0	0	0	508	621	
8	0	0	0	0	508	621	
9	0	0	0	0	508	620	
10	0	0	0	0	509	622	
11	0	0	0	0	509	622	
12	0	0	0	0	508	622	
13	0	0	0	0	509	624	
14	0	0	0	0	509	622	
15	0	0	0	0	510	622	
0	0	0	0	0	511	622	
1	0	0	0	0	511	620	
2	0	0	0	0	511	622	
3	0	0	0	0	512	621	
4	0	0	0	0	511	622	
5	0	0	0	0	511	623	
6	0	0	0	0	511	621	
7	0	0	0	0	510	620	
8	0	0	0	0	511	621	
9	0	0	0	0	511	620	
10	0	0	0	0	511	621	
11	0	0	0	0	510	621	
12	0	0	0	0	510	621	
13	0	0	0	0	510	623	
14	0	0	0	0	509	622	
15	0	0	0	0	509	622	
0	0	0	0	0	509	622	
1	0	0	0	0	509	620	
2	0	0	0	0	509	623	
3	0	0	0	0	508	622	
4	0	0	0	0	507	622	
5	0	0	0	0	507	624	
6	0	0	0	0	508	623	
7	0	0	0	0	507	623	
8	0	0	0	0	506	624	
9	0	0	0	0	506	621	
10	0	0	0	0	506	624	
11	0	0	0	0	505	624	
12	0	0	0	0	505	624	
13	0	0	0	0	506	627	
14	0	0	0	0	507	624	
15	0	0	0	0	507	624	
0	0	0	0	0	506	625	
1	0	0	0	0	507	624	
2	0	0	0	0	507	626	
3	0	0	0	0	508	626	
4	0	0	0	0	507	626	
5	0	0	0	0	507	628	
6	0	0	0	0	507	626	
7	0	0	0	0	507	627	
8	0	0	0	0	507	627	
9	0	0	0	0	507	625	
10	0	0	0	0	507	627	
11	0	0	0	0	508	626	
12	0	0	0	0	509	626	
13	0	0	0	0	510	628	
14	0	0	0	0	510	626	
15	0	0	0	0	510	626	
0	0	0	0	0	510	627	
1	0	0	0	0	510	625	
2	0	0	0	0	510	627	
3	0	0	0	0	510	627	
4	0	0	0	0	510	626	
5	0	0	0	0	510	628	
6	0	0	0	0	511	627	
7	0	0	0	0	510	627	
8	0	0	0	0	510	627	
9	0	0	0	0	510	625	
10	0	0	0	0	510	627	
11	0	0	0	0	510	628	
12	0	0	0	0	508	627	
13	0	0	0	0	508	630	
14	0	0	0	0	507	628	
15	0	0	0	0	507	628	
0	0	0	0	0	507	627	
1	0	0	0	0	508	626	
2	0	0	0	0	509	628	
3	0	0	0	0	509	628	
4	0	0	0	0	510	627	
5	0	0	0	0	511	629	
6	0	0	0	0	512	628	
7	0	0	0	0	513	627	
8	0	0	0	0	513	628	
9	0	0	0	0	513	626	
10	0	0	0	0	513	627	
11	0	0	0	0	512	627	
12	0	0	0	0	511	627	
13	0	0	0	0	511	629	
14	0	0	0	0	511	627	
15	0	0	0	0	511	627	
0	0	0	0	0	511	627	
1	0	0	0	0	511	625	
2	0	0	0	0	511	626	
3	0	0	0	0	511	627	
4	0	0	0	0	511	626	
5	0	0	0	0	511	628	
6	0	0	0	0	511	625	
7	0	0	0	0	510	626	
8	0	0	0	0	511	626	
9	0	0	0	0	510	624	
10	0	0	0	0	509	625	
11	0	0	0	0	509	625	
12	0	0	0	0	509	625	
13	0	0	0	0	508	627	
14	0	0	0	0	509	625	
15	0	0	0	0	509	625	
0	0	0	0	0	508	625	
1	0	0	0	0	508	623	
2	0	0	0	0	508	625	
3	0	0	0	0	509	625	
4	0	0	0	0	508	625	
5	0	0	0	0	508	626	
6	0	0	0	0	509	625	
7	0	0	0	0	509	624	
8	0	0	0	0	509	625	
9	0	0	0	0	510	623	
10	0	0	0	0	510	625	
11	0	0	0	0	510	625	
12	0	0	0	0	511	625	
13	0	0	0	0	510	626	
14	0	0	0	0	509	624	
15	0	0	0	0	509	624	
0	0	0	0	0	508	624	
1	0	0	0	0	507	622	
2	0	0	0	0	507	624	
3	0	0	0	0	506	624	
4	0	0	0	0	506	624	
5	0	0	0	0	507	625	
6	0	0	0	0	507	624	
7	0	0	0	0	507	624	
8	0	0	0	0	507	624	
9	0	0	0	0	508	623	
10	0	0	0	0	508	625	
11	0	0	0	0	508	624	
12	0	0	0	0	508	625	
13	0	0	0	0	510	627	
14	0	0	0	0	511	625	
15	0	0	0	0	512	624	
0	0	0	0	0	513	625	
1	0	0	0	0	513	623	
2	0	0	0	0	513	625	
3	0	0	0	0	514	625	
4	0	0	0	0	513	625	
5	0	0	0	0	514	627	
6	0	0	0	0	514	625	
7	0	0	0	0	514	625	
8	0	0	0	0	514	625	
9	0	0	0	0	515	623	
10	0	0	0	0	514	624	
11	0	0	0	0	514	624	
12	0	0	0	0	514	624	
13	0	0	0	0	512	626	
14	0	0	0	0	512	624	
15	0	0	0	0	512	624	
0	0	0	0	0	513	624	
1	0	0	0	0	513	623	
2	0	0	0	0	513	625	
3	0	0	0	0	513	624	
4	0	0	0	0	513	624	
5	0	0	0	0	513	626	
6	0	0	0	0	513	625	
7	0	0	0	0	514	625	
8	0	0	0	0	514	624	
9	0	0	0	0	515	623	
10	0	0	0	0	515	625	
11	0	0	0	0	514	624	
12	0	0	0	0	514	624	
13	0	0	0	0	514	626	
14	0	0	0	0	513	624	
15	0	0	0	0	514	624	
0	0	0	0	0	514	624	
1	0	0	0	0	515	623	
2	0	0	0	0	515	624	
3	0	0	0	0	515	624	
4	0	0	0	0	514	624	
5	0	0	0	0	514	625	
6	0	0	0	0	514	623	
7	0	0	0	0	513	624	
8	0	0	0	0	512	624	
9	0	0	0	0	512	622	
10	0	0	0	0	512	624	
11	0	0	0	0	512	624	
12	0	0	0	0	512	624	
13	0	0	0	0	513	625	
14	0	0	0	0	512	624	
15	0	0	0	0	512	624	
0	0	0	0	0	512	624	
1	0	0	0	0	512	622	
2	0	0	0	0	511	624	
3	0	0	0	0	511	624	
4	0	0	0	0	509	624	
5	0	0	0	0	508	627	
6	0	0	0	0	508	625	
7	0	0	0	0	508	625	
8	0	0	0	0	509	625	
9	0	0	0	0	510	623	
10	0	0	0	0	510	624	
11	0	0	0	0	509	624	
12	0	0	0	0	508	625	
13	0	0	0	0	508	626	
14	0	0	0	0	508	625	
15	0	0	0	0	508	624	
0	0	0	0	0	509	625	
1	0	0	0	0	509	623	
2	0	0	0	0	510	625	
3	0	0	0	0	510	625	
4	0	0	0	0	510	626	
5	0	0	0	0	511	627	
6	0	0	0	0	511	626	
7	0	0	0	0	511	626	
8	0	0	0	0	512	626	
9	0	0	0	0	512	624	
10	0	0	0	0	512	626	
11	0	0	0	0	512	626	
12	0	0	0	0	512	626	
13	0	0	0	0	512	627	
14	0	0	0	0	512	626	
15	0	0	0	0	513	627	
0	0	0	0	0	513	626	
1	0	0	0	0	514	624	
2	0	0	0	0	515	625	
3	0	0	0	0	516	625	
4	0	0	0	0	515	625	
5	0	0	0	0	515	627	
6	0	0	0	0	515	625	
7	0	0	0	0	514	625	
8	0	0	0	0	513	625	
9	0	0	0	0	513	623	
10	0	0	0	0	512	625	
11	0	0	0	0	511	624	
12	0	0	0	0	510	625	
13	0	0	0	0	509	626	
14	0	0	0	0	508	624	
15	0	0	0	0	508	624	
0	0	0	0	0	508	624	
1	0	0	0	0	509	622	
2	0	0	0	0	510	623	
3	0	0	0	0	510	624	
4	0	0	0	0	510	624	
5	0	0	0	0	510	626	
6	0	0	0	0	511	624	
7	0	0	0	0	511	623	
8	0	0	0	0	510	623	
9	0	0	0	0	509	622	
10	0	0	0	0	509	623	
11	0	0	0	0	509	623	
12	0	0	0	0	509	623	
13	0	0	0	0	509	625	
14	0	0	0	0	508	623	
15	0	0	0	0	508	623	
0	0	0	0	0	507	624	
1	0	0	0	0	505	622	
2	0	0	0	0	505	624	
3	0	0	0	0	504	624	
4	0	0	0	0	504	623	
5	0	0	0	0	505	625	
6	0	0	0	0	507	624	
7	0	0	0	0	507	624	
8	0	0	0	0	508	624	
9	0	0	0	0	508	623	
10	0	0	0	0	508	624	
11	0	0	0	0	508	625	
12	0	0	0	0	508	625	
13	0	0	0	0	508	627	
14	0	0	0	0	509	624	
15	0	0	0	0	509	624	
0	0	0	0	0	510	624	
1	0	0	0	0	510	623	
2	0	0	0	0	509	624	
3	0	0	0	0	509	624	
4	0	0	0	0	508	624	
5	0	0	0	0	508	626	
6	0	0	0	0	509	624	
7	0	0	0	0	509	624	
8	0	0	0	0	510	624	
9	0	0	0	0	511	622	
10	0	0	0	0	511	624	
11	0	0	0	0	511	623	
12	0	0	0	0	512	623	
13	0	0	0	0	513	625	
14	0	0	0	0	514	623	
15	0	0	0	0	515	623	
0	0	0	0	0	515	624	
1	0	0	0	0	515	621	
2	0	0	0	0	516	623	
3	0	0	0	0	516	622	
4	0	0	0	0	516	623	
5	0	0	0	0	516	624	
6	0	0	0	0	516	622	
7	0	0	0	0	516	623	
8	0	0	0	0	516	623	
9	0	0	0	0	516	621	
10	0	0	0	0	516	623	
11	0	0	0	0	515	623	
12	0	0	0	0	514	624	
13	0	0	0	0	513	626	
14	0	0	0	0	512	624	
15	0	0	0	0	512	624	
0	0	0	0	0	512	624	
1	0	0	0	0	512	623	
2	0	0	0	0	513	625	
3	0	0	0	0	514	625	
4	0	0	0	0	514	624	
5	0	0	0	0	514	626	
6	0	0	0	0	514	624	
7	0	0	0	0	514	624	
8	0	0	0	0	514	625	
9	0	0	0	0	514	623	
10	0	0	0	0	513	625	
11	0	0	0	0	512	626	
12	0	0	0	0	511	626	
13	0	0	0	0	510	627	
14	0	0	0	0	510	625	
15	0	0	0	0	510	625	
0	0	0	0	0	510	626	
1	0	0	0	0	510	624	
2	0	0	0	0	510	626	
3	0	0	0	0	510	625	
4	0	0	0	0	511	625	
5	0	0	0	0	511	627	
6	0	0	0	0	511	625	
7	0	0	0	0	510	625	
8	0	0	0	0	510	625	
9	0	0	0	0	510	623	
10	0	0	0	0	510	624	
11	0	0	0	0	510	624	
12	0	0	0	0	510	624	
13	0	0	0	0	511	625	
14	0	0	0	0	510	624	
15	0	0	0	0	511	624	
0	0	0	0	0	511	624	
1	0	0	0	0	510	622	
2	0	0	0	0	510	624	
3	0	0	0	0	509	623	
4	0	0	0	0	509	623	
5	0	0	0	0	508	625	
6	0	0	0	0	507	624	
7	0	0	0	0	507	623	
8	0	0	0	0	507	623	
9	0	0	0	0	506	622	
10	0	0	0	0	507	623	
11	0	0	0	0	507	624	
12	0	0	0	0	507	624	
13	0	0	0	0	506	626	
14	0	0	0	0	508	625	
15	0	0	0	0	508	624	
0	0	0	0	0	508	625	
1	0	0	0	0	509	623	
2	0	0	0	0	510	625	
3	0	0	0	0	510	625	
4	0	0	0	0	510	625	
5	0	0	0	0	510	627	
6	0	0	0	0	510	625	
7	0	0	0	0	510	625	
8	0	0	0	0	509	626	
9	0	0	0	0	508	624	
10	0	0	0	0	508	626	
11	0	0	0	0	508	626	
12	0	0	0	0	508	626	
13	0	0	0	0	507	628	
14	0	0	0	0	507	627	
15	0	0	0	0	507	626	
0	0	0	0	0	507	626	
1	0	0	0	0	507	625	
2	0	0	0	0	508	627	
3	0	0	0	0	508	627	
4	0	0	0	0	508	627	
5	0	0	0	0	508	629	
6	0	0	0	0	507	627	
7	0	0	0	0	507	627	
8	0	0	0	0	506	627	
9	0	0	0	0	506	625	
10	0	0	0	0	505	627	
11	0	0	0	0	503	627	
12	0	0	0	0	499	627	
13	0	0	0	0	495	628	
14	0	0	0	0	488	628	
15	0	0	0	0	480	627	
0	0	0	0	0	471	627	
1	0	0	0	0	461	626	
2	0	0	0	0	451	628	
3	0	0	0	0	440	628	
4	0	0	0	0	431	628	
5	0	0	0	0	423	629	
6	0	0	0	0	414	628	
7	0	0	0	0	407	627	
8	0	0	0	0	403	628	
9	0	0	0	0	401	626	
10	0	0	0	0	401	627	
11	0	0	0	0	403	627	
12	0	0	0	0	406	626	
13	0	0	0	0	411	628	
14	0	0	0	0	417	626	
15	0	0	0	0	424	626	
0	0	0	0	0	432	626	
1	0	0	0	0	440	624	
2	0	0	0	0	447	625	
3	0	0	0	0	454	625	
4	0	0	0	0	461	625	
5	0	0	0	0	468	627	
6	0	0	0	0	477	625	
7	0	0	0	0	494	625	
8	0	0	0	0	514	625	
9	0	0	0	0	538	623	
10	0	0	0	0	564	624	
11	0	0	0	0	593	624	
12	0	0	0	0	627	624	
13	0	0	0	0	666	626	
14	0	0	0	0	711	625	
15	0	0	0	0	755	624	
0	0	0	0	0	797	624	
1	0	0	0	0	834	622	
2	0	0	0	0	866	624	
3	0	0	0	0	893	624	
4	0	0	0	0	913	624	
5	0	0	0	0	925	625	
6	0	0	0	0	930	624	
7	0	0	0	0	927	623	
8	0	0	0	0	920	624	
9	0	0	0	0	910	622	
10	0	0	0	0	895	624	
11	0	0	0	0	878	624	
12	0	0	0	0	858	624	
13	0	0	0	0	837	625	
14	0	0	0	0	813	624	
15	0	0	0	0	786	624	
0	0	0	0	0	758	624	
1	0	0	0	0	731	622	
2	0	0	0	0	705	623	
3	0	0	0	0	682	623	
4	0	0	0	0	660	623	
5	0	0	0	0	642	625	
6	0	0	0	0	627	623	
7	0	0	0	0	614	624	
8	0	0	0	0	603	624	
9	0	0	0	0	594	622	
10	0	0	0	0	586	624	
11	0	0	0	0	578	624	
12	0	0	0	0	569	624	
13	0	0	0	0	561	625	
14	0	0	0	0	552	623	
15	0	0	0	0	543	623	
0	0	0	0	0	535	623	
1	0	0	0	0	524	621	
2	0	0	0	0	515	623	
3	0	0	0	0	507	623	
4	0	0	0	0	500	623	
5	0	0	0	0	493	625	
6	0	0	0	0	486	623	
7	0	0	0	0	479	624	
8	0	0	0	0	473	623	
9	0	0	0	0	467	621	
10	0	0	0	0	461	624	
11	0	0	0	0	456	623	
12	0	0	0	0	450	623	
13	0	0	0	0	445	625	
14	0	0	0	0	441	623	
15	0	0	0	0	438	624	
0	0	0	0	0	435	623	
1	0	0	0	0	434	621	
2	0	0	0	0	432	623	
3	0	0	0	0	431	624	
4	0	0	0	0	429	624	
5	0	0	0	0	428	626	
6	0	0	0	0	426	624	
7	0	0	0	0	424	624	
8	0	0	0	0	423	625	
9	0	0	0	0	422	623	
10	0	0	0	0	422	626	
11	0	0	0	0	421	626	
12	0	0	0	0	421	626	
13	0	0	0	0	421	628	
14	0	0	0	0	422	627	
15	0	0	0	0	421	627	
0	0	0	0	0	422	627	
1	0	0	0	0	422	625	
2	0	0	0	0	423	627	
3	0	0	0	0	424	627	
4	0	0	0	0	425	627	
5	0	0	0	0	426	629	
6	0	0	0	0	427	627	
7	0	0	0	0	428	626	
8	0	0	0	0	428	626	
9	0	0	0	0	428	624	
10	0	0	0	0	428	625	
11	0	0	0	0	428	624	
12	0	0	0	0	427	624	
13	0	0	0	0	427	626	
14	0	0	0	0	426	624	
15	0	0	0	0	426	624	
0	0	0	0	0	427	624	
1	0	0	0	0	428	622	
2	0	0	0	0	428	624	
3	0	0	0	0	428	624	
4	0	0	0	0	429	625	
5	0	0	0	0	429	627	
6	0	0	0	0	430	624	
7	0	0	0	0	430	624	
8	0	0	0	0	431	625	
9	0	0	0	0	432	623	
10	0	0	0	0	432	626	
11	0	0	0	0	432	625	
12	0	0	0	0	432	625	
13	0	0	0	0	433	626	
14	0	0	0	0	433	625	
15	0	0	0	0	434	625	
0	0	0	0	0	434	625	
1	0	0	0	0	434	623	
2	0	0	0	0	435	625	
3	0	0	0	0	436	624	
4	0	0	0	0	437	624	
5	0	0	0	0	438	626	
6	0	0	0	0	440	624	
7	0	0	0	0	441	624	
8	0	0	0	0	441	624	
9	0	0	0	0	441	622	
10	0	0	0	0	442	624	
11	0	0	0	0	442	624	
12	0	0	0	0	443	624	
13	0	0	0	0	444	626	
14	0	0	0	0	444	624	
15	0	0	0	0	444	624	
0	0	0	0	0	444	624	
1	0	0	0	0	444	622	
2	0	0	0	0	445	623	
3	0	0	0	0	446	624	
4	0	0	0	0	446	624	
5	0	0	0	0	447	626	
6	0	0	0	0	446	624	
7	0	0	0	0	446	625	
8	0	0	0	0	446	625	
9	0	0	0	0	446	623	
10	0	0	0	0	447	625	
11	0	0	0	0	448	626	
12	0	0	0	0	449	626	
13	0	0	0	0	450	627	
14	0	0	0	0	451	625	
15	0	0	0	0	451	625	
0	0	0	0	0	451	626	
1	0	0	0	0	452	624	
2	0	0	0	0	452	626	
3	0	0	0	0	452	626	
4	0	0	0	0	453	626	
5	0	0	0	0	453	627	
6	0	0	0	0	454	625	
7	0	0	0	0	455	626	
8	0	0	0	0	455	626	
9	0	0	0	0	454	624	
10	0	0	0	0	455	625	
11	0	0	0	0	456	625	
12	0	0	0	0	456	625	
13	0	0	0	0	457	627	
14	0	0	0	0	457	625	
15	0	0	0	0	457	624	
0	0	0	0	0	458	624	
1	0	0	0	0	459	623	
2	0	0	0	0	460	625	
3	0	0	0	0	461	624	
4	0	0	0	0	460	624	
5	0	0	0	0	461	626	
6	0	0	0	0	460	624	
7	0	0	0	0	460	624	
8	0	0	0	0	460	624	
9	0	0	0	0	461	622	
10	0	0	0	0	461	624	
11	0	0	0	0	461	624	
12	0	0	0	0	461	623	
13	0	0	0	0	462	625	
14	0	0	0	0	462	623	
15	0	0	0	0	462	623	
0	0	0	0	0	462	623	
1	0	0	0	0	462	621	
2	0	0	0	0	463	623	
3	0	0	0	0	463	623	
4	0	0	0	0	465	623	
5	0	0	0	0	465	625	
6	0	0	0	0	465	624	
7	0	0	0	0	465	623	
8	0	0	0	0	465	623	
9	0	0	0	0	466	621	
10	0	0	0	0	465	623	
11	0	0	0	0	465	623	
12	0	0	0	0	465	623	
13	0	0	0	0	465	625	
14	0	0	0	0	466	624	
15	0	0	0	0	467	623	
0	0	0	0	0	467	624	
1	0	0	0	0	468	622	
2	0	0	0	0	469	624	
3	0	0	0	0	470	624	
4	0	0	0	0	470	624	
5	0	0	0	0	470	626	
6	0	0	0	0	471	624	
7	0	0	0	0	471	625	
8	0	0	0	0	471	624	
9	0	0	0	0	472	623	
10	0	0	0	0	473	624	
11	0	0	0	0	475	625	
12	0	0	0	0	476	624	
13	0	0	0	0	477	626	
14	0	0	0	0	478	624	
15	0	0	0	0	480	625	
0	0	0	0	0	481	625	
1	0	0	0	0	482	623	
2	0	0	0	0	483	624	
3	0	0	0	0	484	625	
4	0	0	0	0	485	625	
5	0	0	0	0	486	627	
6	0	0	0	0	487	625	
7	0	0	0	0	489	624	
8	0	0	0	0	490	625	
9	0	0	0	0	491	624	
10	0	0	0	0	492	626	
11	0	0	0	0	492	625	
12	0	0	0	0	492	625	
13	0	0	0	0	493	627	
14	0	0	0	0	493	625	
15	0	0	0	0	494	625	
0	0	0	0	0	494	625	
1	0	0	0	0	494	624	
2	0	0	0	0	495	625	
3	0	0	0	0	496	626	
4	0	0	0	0	497	626	
5	0	0	0	0	499	628	
6	0	0	0	0	501	625	
7	0	0	0	0	502	625	
8	0	0	0	0	504	624	
9	0	0	0	0	507	623	
10	0	0	0	0	508	624	
11	0	0	0	0	510	624	
12	0	0	0	0	510	625	
13	0	0	0	0	511	626	
14	0	0	0	0	511	626	
15	0	0	0	0	512	626	
0	0	0	0	0	513	626	
1	0	0	0	0	514	624	
2	0	0	0	0	515	625	
3	0	0	0	0	516	625	
4	0	0	0	0	516	626	
5	0	0	0	0	518	627	
6	0	0	0	0	518	626	
7	0	0	0	0	519	626	
8	0	0	0	0	519	625	
9	0	0	0	0	519	624	
10	0	0	0	0	520	625	
11	0	0	0	0	520	625	
12	0	0	0	0	520	625	
13	0	0	0	0	519	626	
14	0	0	0	0	519	625	
15	0	0	0	0	520	624	
0	0	0	0	0	520	624	
1	0	0	0	0	522	622	
2	0	0	0	0	523	624	
3	0	0	0	0	523	624	
4	0	0	0	0	524	623	
5	0	0	0	0	524	625	
6	0	0	0	0	524	624	
7	0	0	0	0	524	623	
8	0	0	0	0	524	623	
9	0	0	0	0	525	621	
10	0	0	0	0	526	623	
11	0	0	0	0	526	623	
12	0	0	0	0	525	623	
13	0	0	0	0	524	624	
14	0	0	0	0	524	623	
15	0	0	0	0	525	623	
0	0	0	0	0	525	623	
1	0	0	0	0	525	621	
2	0	0	0	0	525	623	
3	0	0	0	0	525	624	
4	0	0	0	0	523	624	
5	0	0	0	0	523	626	
6	0	0	0	0	522	624	
7	0	0	0	0	521	624	
8	0	0	0	0	522	625	
9	0	0	0	0	521	623	
10	0	0	0	0	519	625	
11	0	0	0	0	519	625	
12	0	0	0	0	519	625	
13	0	0	0	0	519	627	
14	0	0	0	0	518	625	
15	0	0	0	0	516	625	
0	0	0	0	0	516	625	
1	0	0	0	0	516	624	
2	0	0	0	0	516	626	
3	0	0	0	0	515	625	
4	0	0	0	0	516	625	
5	0	0	0	0	515	627	
6	0	0	0	0	516	625	
7	0	0	0	0	515	626	
8	0	0	0	0	514	626	
9	0	0	0	0	514	624	
10	0	0	0	0	514	626	
11	0	0	0	0	515	625	
12	0	0	0	0	516	625	
13	0	0	0	0	515	627	
14	0	0	0	0	515	625	
15	0	0	0	0	514	625	
0	0	0	0	0	514	624	
1	0	0	0	0	515	624	
2	0	0	0	0	515	625	
3	0	0	0	0	515	625	
4	0	0	0	0	513	625	
5	0	0	0	0	513	627	
6	0	0	0	0	513	626	
7	0	0	0	0	512	626	
8	0	0	0	0	512	625	
9	0	0	0	0	512	623	
10	0	0	0	0	512	625	
11	0	0	0	0	513	625	
12	0	0	0	0	513	625	
13	0	0	0	0	513	627	
14	0	0	0	0	513	625	
15	0	0	0	0	513	625	
0	0	0	0	0	514	625	
1	0	0	0	0	514	624	
2	0	0	0	0	514	625	
3	0	0	0	0	514	625	
4	0	0	0	0	514	624	
5	0	0	0	0	514	627	
6	0	0	0	0	515	625	
7	0	0	0	0	515	625	
8	0	0	0	0	514	625	
9	0	0	0	0	513	623	
10	0	0	0	0	513	624	
11	0	0	0	0	513	624	
12	0	0	0	0	513	624	
13	0	0	0	0	512	626	
14	0	0	0	0	512	624	
15	0	0	0	0	512	624	
0	0	0	0	0	513	623	
1	0	0	0	0	514	622	
2	0	0	0	0	513	623	
3	0	0	0	0	512	623	
4	0	0	0	0	512	624	
5	0	0	0	0	511	625	
6	0	0	0	0	510	623	
7	0	0	0	0	510	623	
8	0	0	0	0	511	622	
9	0	0	0	0	512	622	
10	0	0	0	0	512	623	
11	0	0	0	0	512	623	
12	0	0	0	0	513	623	
13	0	0	0	0	513	624	
14	0	0	0	0	512	623	
15	0	0	0	0	512	622	
0	0	0	0	0	512	623	
1	0	0	0	0	512	621	
2	0	0	0	0	512	622	
3	0	0	0	0	512	623	
4	0	0	0	0	511	624	
5	0	0	0	0	511	625	
6	0	0	0	0	511	624	
7	0	0	0	0	512	624	
8	0	0	0	0	511	624	
9	0	0	0	0	511	622	
10	0	0	0	0	511	624	
11	0	0	0	0	511	624	
12	0	0	0	0	511	624	
13	0	0	0	0	511	626	
14	0	0	0	0	511	625	
15	0	0	0	0	511	624	
0	0	0	0	0	510	624	
1	0	0	0	0	510	623	
2	0	0	0	0	510	624	
3	0	0	0	0	510	624	
4	0	0	0	0	510	624	
5	0	0	0	0	509	626	
6	0	0	0	0	509	623	
7	0	0	0	0	509	624	
8	0	0	0	0	508	624	
9	0	0	0	0	509	622	
10	0	0	0	0	509	624	
11	0	0	0	0	509	623	
12	0	0	0	0	509	623	
13	0	0	0	0	508	625	
14	0	0	0	0	508	623	
15	0	0	0	0	508	623	
0	0	0	0	0	508	622	
1	0	0	0	0	510	621	
2	0	0	0	0	511	622	
3	0	0	0	0	512	623	
4	0	0	0	0	512	623	
5	0	0	0	0	512	624	
6	0	0	0	0	512	622	
7	0	0	0	0	513	622	
8	0	0	0	0	513	623	
9	0	0	0	0	512	621	
10	0	0	0	0	512	623	
11	0	0	0	0	512	623	
12	0	0	0	0	512	623	
13	0	0	0	0	512	625	
14	0	0	0	0	513	624	
15	0	0	0	0	514	624	
0	0	0	0	0	515	625	
1	0	0	0	0	514	623	
2	0	0	0	0	515	625	
3	0	0	0	0	515	624	
4	0	0	0	0	515	625	
5	0	0	0	0	515	627	
6	0	0	0	0	515	625	
7	0	0	0	0	514	626	
8	0	0	0	0	513	626	
9	0	0	0	0	512	625	
10	0	0	0	0	512	626	
11	0	0	0	0	512	626	
12	0	0	0	0	513	627	
13	0	0	0	0	513	627	
14	0	0	0	0	513	625	
15	0	0	0	0	514	625	
0	0	0	0	0	514	626	
1	0	0	0	0	515	624	
2	0	0	0	0	516	625	
3	0	0	0	0	516	625	
4	0	0	0	0	517	625	
5	0	0	0	0	516	626	
6	0	0	0	0	517	624	
7	0	0	0	0	517	623	
8	0	0	0	0	517	623	
9	0	0	0	0	517	622	
10	0	0	0	0	516	623	
11	0	0	0	0	517	624	
12	0	0	0	0	518	623	
13	0	0	0	0	518	624	
14	0	0	0	0	518	622	
15	0	0	0	0	516	622	
0	0	0	0	0	515	622	
1	0	0	0	0	515	620	
2	0	0	0	0	515	622	
3	0	0	0	0	515	621	
4	0	0	0	0	515	621	
5	0	0	0	0	516	623	
6	0	0	0	0	516	621	
7	0	0	0	0	516	621	
8	0	0	0	0	518	622	
9	0	0	0	0	518	620	
10	0	0	0	0	518	621	
11	0	0	0	0	518	621	
12	0	0	0	0	518	621	
13	0	0	0	0	519	623	
14	0	0	0	0	520	621	
15	0	0	0	0	520	621	
0	0	0	0	0	520	621	
1	0	0	0	0	520	619	
2	0	0	0	0	520	621	
3	0	0	0	0	519	622	
4	0	0	0	0	519	621	
5	0	0	0	0	519	623	
6	0	0	0	0	518	622	
7	0	0	0	0	518	622	
8	0	0	0	0	516	623	
9	0	0	0	0	516	621	
10	0	0	0	0	515	623	
11	0	0	0	0	515	622	
12	0	0	0	0	515	622	
13	0	0	0	0	515	624	
14	0	0	0	0	515	623	
15	0	0	0	0	515	623	
0	0	0	0	0	515	624	
1	0	0	0	0	515	621	
2	0	0	0	0	514	623	
3	0	0	0	0	516	623	
4	0	0	0	0	516	624	
5	0	0	0	0	516	625	
6	0	0	0	0	518	624	
7	0	0	0	0	518	624	
8	0	0	0	0	517	624	
9	0	0	0	0	517	622	
10	0	0	0	0	516	624	
11	0	0	0	0	515	625	
12	0	0	0	0	515	624	
13	0	0	0	0	515	626	
14	0	0	0	0	514	625	
15	0	0	0	0	515	625	
0	0	0	0	0	516	626	
1	0	0	0	0	517	624	
2	0	0	0	0	518	626	
3	0	0	0	0	518	626	
4	0	0	0	0	518	626	
5	0	0	0	0	520	627	
6	0	0	0	0	521	626	
7	0	0	0	0	521	626	
8	0	0	0	0	521	626	
9	0	0	0	0	520	624	
10	0	0	0	0	520	626	
11	0	0	0	0	520	626	
12	0	0	0	0	519	627	
13	0	0	0	0	519	628	
14	0	0	0	0	517	626	
15	0	0	0	0	517	626	
0	0	0	0	0	516	627	
1	0	0	0	0	515	625	
2	0	0	0	0	514	626	
3	0	0	0	0	513	626	
4	0	0	0	0	512	626	
5	0	0	0	0	512	628	
6	0	0	0	0	511	626	
7	0	0	0	0	512	626	
8	0	0	0	0	512	625	
9	0	0	0	0	513	624	
10	0	0	0	0	513	626	
11	0	0	0	0	514	625	
12	0	0	0	0	515	625	
13	0	0	0	0	516	626	
14	0	0	0	0	516	625	
15	0	0	0	0	515	625	
0	0	0	0	0	514	624	
1	0	0	0	0	514	622	
2	0	0	0	0	515	624	
3	0	0	0	0	516	624	
4	0	0	0	0	516	624	
5	0	0	0	0	516	625	
6	0	0	0	0	516	624	
7	0	0	0	0	516	624	
8	0	0	0	0	515	624	
9	0	0	0	0	515	622	
10	0	0	0	0	515	624	
11	0	0	0	0	515	623	
12	0	0	0	0	514	623	
13	0	0	0	0	515	625	
14	0	0	0	0	515	623	
15	0	0	0	0	515	623	
0	0	0	0	0	515	623	
1	0	0	0	0	515	621	
2	0	0	0	0	515	623	
3	0	0	0	0	515	623	
4	0	0	0	0	513	623	
5	0	0	0	0	512	625	
6	0	0	0	0	512	624	
7	0	0	0	0	512	624	
8	0	0	0	0	513	624	
9	0	0	0	0	513	623	
10	0	0	0	0	512	624	
11	0	0	0	0	512	625	
12	0	0	0	0	512	624	
13	0	0	0	0	512	626	
14	0	0	0	0	512	625	
15	0	0	0	0	512	625	
0	0	0	0	0	511	625	
1	0	0	0	0	511	624	
2	0	0	0	0	511	625	
3	0	0	0	0	512	625	
4	0	0	0	0	513	625	
5	0	0	0	0	513	627	
6	0	0	0	0	513	626	
7	0	0	0	0	513	625	
8	0	0	0	0	513	626	
9	0	0	0	0	513	624	
10	0	0	0	0	513	625	
11	0	0	0	0	513	625	
12	0	0	0	0	513	626	
13	0	0	0	0	513	627	
14	0	0	0	0	512	625	
15	0	0	0	0	512	626	
0	0	0	0	0	513	625	
1	0	0	0	0	513	624	
2	0	0	0	0	512	626	
3	0	0	0	0	512	625	
4	0	0	0	0	511	625	
5	0	0	0	0	511	627	
6	0	0	0	0	510	625	
7	0	0	0	0	510	625	
8	0	0	0	0	510	625	
9	0	0	0	0	510	624	
10	0	0	0	0	510	625	
11	0	0	0	0	511	625	
12	0	0	0	0	511	625	
13	0	0	0	0	511	627	
14	0	0	0	0	511	625	
15	0	0	0	0	512	625	
0	0	0	0	0	512	625	
1	0	0	0	0	513	623	
2	0	0	0	0	513	624	
3	0	0	0	0	512	624	
4	0	0	0	0	512	625	
5	0	0	0	0	511	626	
6	0	0	0	0	511	624	
7	0	0	0	0	511	624	
8	0	0	0	0	511	625	
9	0	0	0	0	512	623	
10	0	0	0	0	511	624	
11	0	0	0	0	511	625	
12	0	0	0	0	511	624	
13	0	0	0	0	511	626	
14	0	0	0	0	511	624	
15	0	0	0	0	511	624	
0	0	0	0	0	511	625	
1	0	0	0	0	511	623	
2	0	0	0	0	511	624	
3	0	0	0	0	511	624	
4	0	0	0	0	510	624	
5	0	0	0	0	509	626	
6	0	0	0	0	509	624	
7	0	0	0	0	508	624	
8	0	0	0	0	509	624	
9	0	0	0	0	509	622	
10	0	0	0	0	508	624	
11	0	0	0	0	508	624	
12	0	0	0	0	507	625	
13	0	0	0	0	506	627	
14	0	0	0	0	506	624	
15	0	0	0	0	506	625	
0	0	0	0	0	506	625	
1	0	0	0	0	505	624	
2	0	0	0	0	505	625	
3	0	0	0	0	505	626	
4	0	0	0	0	505	626	
5	0	0	0	0	505	628	
6	0	0	0	0	505	627	
7	0	0	0	0	505	627	
8	0	0	0	0	506	626	
9	0	0	0	0	507	624	
10	0	0	0	0	507	627	
11	0	0	0	0	507	627	
12	0	0	0	0	507	627	
13	0	0	0	0	507	628	
14	0	0	0	0	507	627	
15	0	0	0	0	507	627	
0	0	0	0	0	507	626	
1	0	0	0	0	507	625	
2	0	0	0	0	507	626	
3	0	0	0	0	507	625	
4	0	0	0	0	507	626	
5	0	0	0	0	507	627	
6	0	0	0	0	508	625	
7	0	0	0	0	507	625	
8	0	0	0	0	506	625	
9	0	0	0	0	506	623	
10	0	0	0	0	506	625	
11	0	0	0	0	506	624	
12	0	0	0	0	507	625	
13	0	0	0	0	508	626	
14	0	0	0	0	508	624	
15	0	0	0	0	508	625	
0	0	0	0	0	508	625	
1	0	0	0	0	508	623	
2	0	0	0	0	508	625	
3	0	0	0	0	509	625	
4	0	0	0	0	509	625	
5	0	0	0	0	510	625	
6	0	0	0	0	510	624	
7	0	0	0	0	511	624	
8	0	0	0	0	512	624	
9	0	0	0	0	512	622	
10	0	0	0	0	513	624	
11	0	0	0	0	513	624	
12	0	0	0	0	513	623	
13	0	0	0	0	513	625	
14	0	0	0	0	513	624	
15	0	0	0	0	513	624	
0	0	0	0	0	512	624	
1	0	0	0	0	512	621	
2	0	0	0	0	512	622	
3	0	0	0	0	512	623	
4	0	0	0	0	512	623	
5	0	0	0	0	513	624	
6	0	0	0	0	512	623	
7	0	0	0	0	512	623	
8	0	0	0	0	512	622	
9	0	0	0	0	512	621	
10	0	0	0	0	512	623	
11	0	0	0	0	512	623	
12	0	0	0	0	512	623	
13	0	0	0	0	512	625	
14	0	0	0	0	513	624	
15	0	0	0	0	512	623	
0	0	0	0	0	512	623	
1	0	0	0	0	512	620	
2	0	0	0	0	511	622	
3	0	0	0	0	510	623	
4	0	0	0	0	509	623	
5	0	0	0	0	509	625	
6	0	0	0	0	508	623	
7	0	0	0	0	508	623	
8	0	0	0	0	508	623	
9	0	0	0	0	508	621	
10	0	0	0	0	508	622	
11	0	0	0	0	508	622	
12	0	0	0	0	509	622	
13	0	0	0	0	509	624	
14	0	0	0	0	508	622	
15	0	0	0	0	508	622	
0	0	0	0	0	508	622	
1	0	0	0	0	507	620	
2	0	0	0	0	507	622	
3	0	0	0	0	507	622	
4	0	0	0	0	508	622	
5	0	0	0	0	508	624	
6	0	0	0	0	508	621	
7	0	0	0	0	508	622	
8	0	0	0	0	508	622	
9	0	0	0	0	509	620	
10	0	0	0	0	508	622	
11	0	0	0	0	508	622	
12	0	0	0	0	509	622	
13	0	0	0	0	509	624	
14	0	0	0	0	509	622	
15	0	0	0	0	509	622	
0	0	0	0	0	508	622	
1	0	0	0	0	508	620	
2	0	0	0	0	507	623	
3	0	0	0	0	506	623	
4	0	0	0	0	506	622	
5	0	0	0	0	506	624	
6	0	0	0	0	506	623	
7	0	0	0	0	506	622	
8	0	0	0	0	505	623	
9	0	0	0	0	505	621	
10	0	0	0	0	505	623	
11	0	0	0	0	506	623	
12	0	0	0	0	506	623	
13	0	0	0	0	507	625	
14	0	0	0	0	507	624	
15	0	0	0	0	507	624	
0	0	0	0	0	507	624	
1	0	0	0	0	508	621	
2	0	0	0	0	508	624	
3	0	0	0	0	508	623	
4	0	0	0	0	507	623	
5	0	0	0	0	507	625	
6	0	0	0	0	507	623	
7	0	0	0	0	507	623	
8	0	0	0	0	507	623	
9	0	0	0	0	506	622	
10	0	0	0	0	505	623	
11	0	0	0	0	504	623	
12	0	0	0	0	505	623	
13	0	0	0	0	505	624	
14	0	0	0	0	505	622	
15	0	0	0	0	504	623	
0	0	0	0	0	502	623	
1	0	0	0	0	499	621	
2	0	0	0	0	494	624	
3	0	0	0	0	488	623	
4	0	0	0	0	481	623	
5	0	0	0	0	472	625	
6	0	0	0	0	463	624	
7	0	0	0	0	453	624	
8	0	0	0	0	442	624	
9	0	0	0	0	432	622	
10	0	0	0	0	423	624	
11	0	0	0	0	415	624	
12	0	0	0	0	408	624	
13	0	0	0	0	402	624	
14	0	0	0	0	399	623	
15	0	0	0	0	399	624	
0	0	0	0	0	399	624	
1	0	0	0	0	401	622	
2	0	0	0	0	405	624	
3	0	0	0	0	411	624	
4	0	0	0	0	418	624	
5	0	0	0	0	426	626	
6	0	0	0	0	433	624	
7	0	0	0	0	440	624	
8	0	0	0	0	446	624	
9	0	0	0	0	453	623	
10	0	0	0	0	460	624	
11	0	0	0	0	471	623	
12	0	0	0	0	488	624	
13	0	0	0	0	511	625	
14	0	0	0	0	538	624	
15	0	0	0	0	568	624	
0	0	0	0	0	602	623	
1	0	0	0	0	642	622	
2	0	0	0	0	686	624	
3	0	0	0	0	734	624	
4	0	0	0	0	783	623	
5	0	0	0	0	828	625	
6	0	0	0	0	868	623	
7	0	0	0	0	903	624	
8	0	0	0	0	930	624	
9	0	0	0	0	949	622	
10	0	0	0	0	960	623	
11	0	0	0	0	964	624	
12	0	0	0	0	963	624	
13	0	0	0	0	959	626	
14	0	0	0	0	949	624	
15	0	0	0	0	936	624	
0	0	0	0	0	920	624	
1	0	0	0	0	902	622	
2	0	0	0	0	881	624	
3	0	0	0	0	856	624	
4	0	0	0	0	828	624	
5	0	0	0	0	798	626	
6	0	0	0	0	768	624	
7	0	0	0	0	741	625	
8	0	0	0	0	717	625	
9	0	0	0	0	694	624	
10	0	0	0	0	673	625	
11	0	0	0	0	655	626	
12	0	0	0	0	639	626	
13	0	0	0	0	624	627	
14	0	0	0	0	611	626	
15	0	0	0	0	598	625	
0	0	0	0	0	587	625	
1	0	0	0	0	576	623	
2	0	0	0	0	565	625	
3	0	0	0	0	555	626	
4	0	0	0	0	544	626	
5	0	0	0	0	534	627	
6	0	0	0	0	522	625	
7	0	0	0	0	511	625	
8	0	0	0	0	500	625	
9	0	0	0	0	492	624	
10	0	0	0	0	483	625	
11	0	0	0	0	475	625	
12	0	0	0	0	468	625	
13	0	0	0	0	462	627	
14	0	0	0	0	455	625	
15	0	0	0	0	448	625	
0	0	0	0	0	443	624	
1	0	0	0	0	438	623	
2	0	0	0	0	434	625	
3	0	0	0	0	431	624	
4	0	0	0	0	427	624	
5	0	0	0	0	424	626	
6	0	0	0	0	421	625	
7	0	0	0	0	419	624	
8	0	0	0	0	418	624	
9	0	0	0	0	417	623	
10	0	0	0	0	416	624	
11	0	0	0	0	416	624	
12	0	0	0	0	414	624	
13	0	0	0	0	413	626	
14	0	0	0	0	412	624	
15	0	0	0	0	412	624	
0	0	0	0	0	411	623	
1	0	0	0	0	412	622	
2	0	0	0	0	412	623	
3	0	0	0	0	412	623	
4	0	0	0	0	412	624	
5	0	0	0	0	412	625	
6	0	0	0	0	412	623	
7	0	0	0	0	412	623	
8	0	0	0	0	412	623	
9	0	0	0	0	412	621	
10	0	0	0	0	412	623	
11	0	0	0	0	412	623	
12	0	0	0	0	412	623	
13	0	0	0	0	412	624	
14	0	0	0	0	413	623	
15	0	0	0	0	413	623	
0	0	0	0	0	414	623	
1	0	0	0	0	415	620	
2	0	0	0	0	414	623	
3	0	0	0	0	415	623	
4	0	0	0	0	416	622	
5	0	0	0	0	417	624	
6	0	0	0	0	417	622	
7	0	0	0	0	419	623	
8	0	0	0	0	420	623	
9	0	0	0	0	421	621	
10	0	0	0	0	422	623	
11	0	0	0	0	423	623	
12	0	0	0	0	423	624	
13	0	0	0	0	424	626	
14	0	0	0	0	425	624	
15	0	0	0	0	426	624	
0	0	0	0	0	427	624	
1	0	0	0	0	428	622	
2	0	0	0	0	428	625	
3	0	0	0	0	429	625	
4	0	0	0	0	429	625	
5	0	0	0	0	430	626	
6	0	0	0	0	430	625	
7	0	0	0	0	430	625	
8	0	0	0	0	431	625	
9	0	0	0	0	431	623	
10	0	0	0	0	432	625	
11	0	0	0	0	432	625	
12	0	0	0	0	433	624	
13	0	0	0	0	434	626	
14	0	0	0	0	434	624	
15	0	0	0	0	435	625	
0	0	0	0	0	435	625	
1	0	0	0	0	435	623	
2	0	0	0	0	436	624	
3	0	0	0	0	436	624	
4	0	0	0	0	435	624	
5	0	0	0	0	436	626	
6	0	0	0	0	437	623	
7	0	0	0	0	439	623	
8	0	0	0	0	439	624	
9	0	0	0	0	439	622	
10	0	0	0	0	440	624	
11	0	0	0	0	440	623	
12	0	0	0	0	441	623	
13	0	0	0	0	442	625	
14	0	0	0	0	442	624	
15	0	0	0	0	443	623	
0	0	0	0	0	443	623	
1	0	0	0	0	442	621	
2	0	0	0	0	441	623	
3	0	0	0	0	441	623	
4	0	0	0	0	442	623	
5	0	0	0	0	443	624	
6	0	0	0	0	444	623	
7	0	0	0	0	443	623	
8	0	0	0	0	444	622	
9	0	0	0	0	444	621	
10	0	0	0	0	444	623	
11	0	0	0	0	444	623	
12	0	0	0	0	445	622	
13	0	0	0	0	446	624	
14	0	0	0	0	446	622	
15	0	0	0	0	446	622	
0	0	0	0	0	446	623	
1	0	0	0	0	446	621	
2	0	0	0	0	446	622	
3	0	0	0	0	446	622	
4	0	0	0	0	447	622	
5	0	0	0	0	448	624	
6	0	0	0	0	448	623	
7	0	0	0	0	448	622	
8	0	0	0	0	448	623	
9	0	0	0	0	448	621	
10	0	0	0	0	448	623	
11	0	0	0	0	448	623	
12	0	0	0	0	448	623	
13	0	0	0	0	449	625	
14	0	0	0	0	449	623	
15	0	0	0	0	449	623	
0	0	0	0	0	450	623	
1	0	0	0	0	450	621	
2	0	0	0	0	450	624	
3	0	0	0	0	451	624	
4	0	0	0	0	451	624	
5	0	0	0	0	451	624	
6	0	0	0	0	452	624	
7	0	0	0	0	452	623	
8	0	0	0	0	453	624	
9	0	0	0	0	453	623	
10	0	0	0	0	454	624	
11	0	0	0	0	454	624	
12	0	0	0	0	455	625	
13	0	0	0	0	454	627	
14	0	0	0	0	454	625	
15	0	0	0	0	455	625	
0	0	0	0	0	455	626	
1	0	0	0	0	456	624	
2	0	0	0	0	456	625	
3	0	0	0	0	456	625	
4	0	0	0	0	456	626	
5	0	0	0	0	456	628	
6	0	0	0	0	457	626	
7	0	0	0	0	457	626	
8	0	0	0	0	458	627	
9	0	0	0	0	459	624	
10	0	0	0	0	459	626	
11	0	0	0	0	460	627	
12	0	0	0	0	460	625	
13	0	0	0	0	461	627	
14	0	0	0	0	462	625	
15	0	0	0	0	462	626	
0	0	0	0	0	464	626	
1	0	0	0	0	464	624	
2	0	0	0	0	465	625	
3	0	0	0	0	466	625	
4	0	0	0	0	467	625	
5	0	0	0	0	468	627	
6	0	0	0	0	469	626	
7	0	0	0	0	471	625	
8	0	0	0	0	473	625	
9	0	0	0	0	473	624	
10	0	0	0	0	475	626	
11	0	0	0	0	476	625	
12	0	0	0	0	478	625	
13	0	0	0	0	479	627	
14	0	0	0	0	480	625	
15	0	0	0	0	480	625	
0	0	0	0	0	480	625	
1	0	0	0	0	481	624	
2	0	0	0	0	483	625	
3	0	0	0	0	484	625	
4	0	0	0	0	486	624	
5	0	0	0	0	487	626	
6	0	0	0	0	489	625	
7	0	0	0	0	491	625	
8	0	0	0	0	493	624	
9	0	0	0	0	494	623	
10	0	0	0	0	495	625	
11	0	0	0	0	496	625	
12	0	0	0	0	497	625	
13	0	0	0	0	499	627	
14	0	0	0	0	500	625	
15	0	0	0	0	502	625	
0	0	0	0	0	503	625	
1	0	0	0	0	504	623	
2	0	0	0	0	504	624	
3	0	0	0	0	505	625	
4	0	0	0	0	507	625	
5	0	0	0	0	508	626	
6	0	0	0	0	509	624	
7	0	0	0	0	510	624	
8	0	0	0	0	511	624	
9	0	0	0	0	512	622	
10	0	0	0	0	512	624	
11	0	0	0	0	514	623	
12	0	0	0	0	516	623	
13	0	0	0	0	517	625	
14	0	0	0	0	518	623	
15	0	0	0	0	518	623	
0	0	0	0	0	519	623	
1	0	0	0	0	520	621	
2	0	0	0	0	521	623	
3	0	0	0	0	522	623	
4	0	0	0	0	523	622	
5	0	0	0	0	523	624	
6	0	0	0	0	523	622	
7	0	0	0	0	524	623	
8	0	0	0	0	525	623	
9	0	0	0	0	525	621	
10	0	0	0	0	525	623	
11	0	0	0	0	525	623	
12	0	0	0	0	526	623	
13	0	0	0	0	527	624	
14	0	0	0	0	527	623	
15	0	0	0	0	527	622	
0	0	0	0	0	527	623	
1	0	0	0	0	528	621	
2	0	0	0	0	528	623	
3	0	0	0	0	528	623	
4	0	0	0	0	528	624	
5	0	0	0	0	527	625	
6	0	0	0	0	526	624	
7	0	0	0	0	525	623	
8	0	0	0	0	525	624	
9	0	0	0	0	525	621	
10	0	0	0	0	525	624	
11	0	0	0	0	525	623	
12	0	0	0	0	524	623	
13	0	0	0	0	524	625	
14	0	0	0	0	523	623	
15	0	0	0	0	524	624	
0	0	0	0	0	523	623	
1	0	0	0	0	521	622	
2	0	0	0	0	521	624	
3	0	0	0	0	521	624	
4	0	0	0	0	520	624	
5	0	0	0	0	520	625	
6	0	0	0	0	520	624	
7	0	0	0	0	519	624	
8	0	0	0	0	520	624	
9	0	0	0	0	520	623	
10	0	0	0	0	521	624	
11	0	0	0	0	520	624	
12	0	0	0	0	520	625	
13	0	0	0	0	519	626	
14	0	0	0	0	519	625	
15	0	0	0	0	519	625	
0	0	0	0	0	519	624	
1	0	0	0	0	519	623	
2	0	0	0	0	518	625	
3	0	0	0	0	518	624	
4	0	0	0	0	518	625	
5	0	0	0	0	518	626	
6	0	0	0	0	519	625	
7	0	0	0	0	519	625	
8	0	0	0	0	519	625	
9	0	0	0	0	519	623	
10	0	0	0	0	519	625	
11	0	0	0	0	520	625	
12	0	0	0	0	520	625	
13	0	0	0	0	521	627	
14	0	0	0	0	520	625	
15	0	0	0	0	520	625	
0	0	0	0	0	521	625	
1	0	0	0	0	521	624	
2	0	0	0	0	521	625	
3	0	0	0	0	520	625	
4	0	0	0	0	521	625	
5	0	0	0	0	521	627	
6	0	0	0	0	521	625	
7	0	0	0	0	520	625	
8	0	0	0	0	520	625	
9	0	0	0	0	519	623	
10	0	0	0	0	519	625	
11	0	0	0	0	518	625	
12	0	0	0	0	517	625	
13	0	0	0	0	517	627	
14	0	0	0	0	517	624	
15	0	0	0	0	518	624	
0	0	0	0	0	518	625	
1	0	0	0	0	518	623	
2	0	0	0	0	519	625	
3	0	0	0	0	519	625	
4	0	0	0	0	519	625	
5	0	0	0	0	519	627	
6	0	0	0	0	519	624	
7	0	0	0	0	518	625	
8	0	0	0	0	518	624	
9	0	0	0	0	518	623	
10	0	0	0	0	517	625	
11	0	0	0	0	517	625	
12	0	0	0	0	518	625	
13	0	0	0	0	518	626	
14	0	0	0	0	517	625	
15	0	0	0	0	517	624	
0	0	0	0	0	518	624	
1	0	0	0	0	518	622	
2	0	0	0	0	517	625	
3	0	0	0	0	517	624	
4	0	0	0	0	517	624	
5	0	0	0	0	517	625	
6	0	0	0	0	516	624	
7	0	0	0	0	516	624	
8	0	0	0	0	515	624	
9	0	0	0	0	514	622	
10	0	0	0	0	514	624	
11	0	0	0	0	513	623	
12	0	0	0	0	513	623	
13	0	0	0	0	513	624	
14	0	0	0	0	512	622	
15	0	0	0	0	512	622	
0	0	0	0	0	513	623	
1	0	0	0	0	514	621	
2	0	0	0	0	515	623	
3	0	0	0	0	515	623	
4	0	0	0	0	515	622	
5	0	0	0	0	514	624	
6	0	0	0	0	514	622	
7	0	0	0	0	514	622	
8	0	0	0	0	514	622	
9	0	0	0	0	512	620	
10	0	0	0	0	512	623	
11	0	0	0	0	512	623	
12	0	0	0	0	512	623	
13	0	0	0	0	513	624	
14	0	0	0	0	513	623	
15	0	0	0	0	513	622	
0	0	0	0	0	514	622	
1	0	0	0	0	514	620	
2	0	0	0	0	513	622	
3	0	0	0	0	514	623	
4	0	0	0	0	514	623	
5	0	0	0	0	516	624	
6	0	0	0	0	516	624	
7	0	0	0	0	516	623	
8	0	0	0	0	516	624	
9	0	0	0	0	517	622	
10	0	0	0	0	516	624	
11	0	0	0	0	515	624	
12	0	0	0	0	515	623	
13	0	0	0	0	514	625	
14	0	0	0	0	513	624	
15	0	0	0	0	513	624	
0	0	0	0	0	513	624	
1	0	0	0	0	513	622	
2	0	0	0	0	513	624	
3	0	0	0	0	513	624	
4	0	0	0	0	512	624	
5	0	0	0	0	512	626	
6	0	0	0	0	512	624	
7	0	0	0	0	512	624	
8	0	0	0	0	512	625	
9	0	0	0	0	512	623	
10	0	0	0	0	512	624	
11	0	0	0	0	512	624	
12	0	0	0	0	512	624	
13	0	0	0	0	512	626	
14	0	0	0	0	513	624	
15	0	0	0	0	513	624	
0	0	0	0	0	513	624	
1	0	0	0	0	514	622	
2	0	0	0	0	515	625	
3	0	0	0	0	515	625	
4	0	0	0	0	516	624	
5	0	0	0	0	516	626	
6	0	0	0	0	515	624	
7	0	0	0	0	515	624	
8	0	0	0	0	514	624	
9	0	0	0	0	513	623	
10	0	0	0	0	513	624	
11	0	0	0	0	513	624	
12	0	0	0	0	514	625	
13	0	0	0	0	514	626	
14	0	0	0	0	514	624	
15	0	0	0	0	514	624	
0	0	0	0	0	513	624	
1	0	0	0	0	514	623	
2	0	0	0	0	513	624	
3	0	0	0	0	513	624	
4	0	0	0	0	514	624	
5	0	0	0	0	515	626	
6	0	0	0	0	515	624	
7	0	0	0	0	514	625	
8	0	0	0	0	513	625	
9	0	0	0	0	513	623	
10	0	0	0	0	513	624	
11	0	0	0	0	513	624	
12	0	0	0	0	513	624	
13	0	0	0	0	514	626	
14	0	0	0	0	515	624	
15	0	0	0	0	515	624	
0	0	0	0	0	516	625	
1	0	0	0	0	516	622	
2	0	0	0	0	516	625	
3	0	0	0	0	516	624	
4	0	0	0	0	517	625	
5	0	0	0	0	517	626	
6	0	0	0	0	517	625	
7	0	0	0	0	517	625	
8	0	0	0	0	517	624	
9	0	0	0	0	517	623	
10	0	0	0	0	518	625	
11	0	0	0	0	518	625	
12	0	0	0	0	518	625	
13	0	0	0	0	517	626	
14	0	0	0	0	517	625	
15	0	0	0	0	516	625	
0	0	0	0	0	515	624	
1	0	0	0	0	515	623	
2	0	0	0	0	516	625	
3	0	0	0	0	516	625	
4	0	0	0	0	516	625	
5	0	0	0	0	515	626	
6	0	0	0	0	515	624	
7	0	0	0	0	516	624	
8	0	0	0	0	517	624	
9	0	0	0	0	518	623	
10	0	0	0	0	518	625	
11	0	0	0	0	518	625	
12	0	0	0	0	517	625	
13	0	0	0	0	517	627	
14	0	0	0	0	516	625	
15	0	0	0	0	516	625	
0	0	0	0	0	515	624	
1	0	0	0	0	516	623	
2	0	0	0	0	516	625	
3	0	0	0	0	517	625	
4	0	0	0	0	518	624	
5	0	0	0	0	518	626	
6	0	0	0	0	518	625	
7	0	0	0	0	519	624	
8	0	0	0	0	519	624	
9	0	0	0	0	519	623	
10	0	0	0	0	519	624	
11	0	0	0	0	519	624	
12	0	0	0	0	519	624	
13	0	0	0	0	518	626	
14	0	0	0	0	519	624	
15	0	0	0	0	519	624	
0	0	0	0	0	519	624	
1	0	0	0	0	519	622	
2	0	0	0	0	519	623	
3	0	0	0	0	519	623	
4	0	0	0	0	519	623	
5	0	0	0	0	518	625	
6	0	0	0	0	518	623	
7	0	0	0	0	517	623	
8	0	0	0	0	516	623	
9	0	0	0	0	515	621	
10	0	0	0	0	515	622	
11	0	0	0	0	515	623	
12	0	0	0	0	515	622	
13	0	0	0	0	515	624	
14	0	0	0	0	515	622	
15	0	0	0	0	516	623	
0	0	0	0	0	516	622	
1	0	0	0	0	516	621	
2	0	0	0	0	517	623	
3	0	0	0	0	517	623	
4	0	0	0	0	517	622	
5	0	0	0	0	517	624	
6	0	0	0	0	517	624	
7	0	0	0	0	517	623	
8	0	0	0	0	516	624	
9	0	0	0	0	516	622	
10	0	0	0	0	516	624	
11	0	0	0	0	517	625	
12	0	0	0	0	517	624	
13	0	0	0	0	517	627	
14	0	0	0	0	517	625	
15	0	0	0	0	516	625	
0	0	0	0	0	516	625	
1	0	0	0	0	516	623	
2	0	0	0	0	517	625	
3	0	0	0	0	517	625	
4	0	0	0	0	517	625	
5	0	0	0	0	517	627	
6	0	0	0	0	517	625	
7	0	0	0	0	516	625	
8	0	0	0	0	516	625	
9	0	0	0	0	516	624	
10	0	0	0	0	516	625	
11	0	0	0	0	516	625	
12	0	0	0	0	515	625	
13	0	0	0	0	516	626	
14	0	0	0	0	516	624	
15	0	0	0	0	516	625	
0	0	0	0	0	517	625	
1	0	0	0	0	517	622	
2	0	0	0	0	517	624	
3	0	0	0	0	517	623	
4	0	0	0	0	517	623	
5	0	0	0	0	516	624	
6	0	0	0	0	516	623	
7	0	0	0	0	516	623	
8	0	0	0	0	515	623	
9	0	0	0	0	515	621	
10	0	0	0	0	514	623	
11	0	0	0	0	515	622	
12	0	0	0	0	515	622	
13	0	0	0	0	515	624	
14	0	0	0	0	514	622	
15	0	0	0	0	513	622	
0	0	0	0	0	513	622	
1	0	0	0	0	512	620	
2	0	0	0	0	512	622	
3	0	0	0	0	513	623	
4	0	0	0	0	512	622	
5	0	0	0	0	512	625	
6	0	0	0	0	513	623	
7	0	0	0	0	513	623	
8	0	0	0	0	513	623	
9	0	0	0	0	513	622	
10	0	0	0	0	513	624	
11	0	0	0	0	513	624	
12	0	0	0	0	513	624	
13	0	0	0	0	512	625	
14	0	0	0	0	512	624	
15	0	0	0	0	512	624	
0	0	0	0	0	512	624	
1	0	0	0	0	512	623	
2	0	0	0	0	511	625	
3	0	0	0	0	512	625	
4	0	0	0	0	512	625	
5	0	0	0	0	512	627	
6	0	0	0	0	512	625	
7	0	0	0	0	512	625	
8	0	0	0	0	512	625	
9	0	0	0	0	513	623	
10	0	0	0	0	512	625	
11	0	0	0	0	512	625	
12	0	0	0	0	512	624	
13	0	0	0	0	511	627	
14	0	0	0	0	511	624	
15	0	0	0	0	511	624	
0	0	0	0	0	511	624	
1	0	0	0	0	511	622	
2	0	0	0	0	511	624	
3	0	0	0	0	511	624	
4	0	0	0	0	511	624	
5	0	0	0	0	511	625	
6	0	0	0	0	511	624	
7	0	0	0	0	511	624	
8	0	0	0	0	512	624	
9	0	0	0	0	511	622	
10	0	0	0	0	511	623	
11	0	0	0	0	510	623	
12	0	0	0	0	510	624	
13	0	0	0	0	510	625	
14	0	0	0	0	510	623	
15	0	0	0	0	510	623	
0	0	0	0	0	510	623	
1	0	0	0	0	509	621	
2	0	0	0	0	509	623	
3	0	0	0	0	510	624	
4	0	0	0	0	508	623	
5	0	0	0	0	509	625	
6	0	0	0	0	508	624	
7	0	0	0	0	508	623	
8	0	0	0	0	508	624	
9	0	0	0	0	507	622	
10	0	0	0	0	508	624	
11	0	0	0	0	508	624	
12	0	0	0	0	507	624	
13	0	0	0	0	505	626	
14	0	0	0	0	505	625	
15	0	0	0	0	505	625	
0	0	0	0	0	505	625	
1	0	0	0	0	506	623	
2	0	0	0	0	506	625	
3	0	0	0	0	506	625	
4	0	0	0	0	506	625	
5	0	0	0	0	505	626	
6	0	0	0	0	505	624	
7	0	0	0	0	505	624	
8	0	0	0	0	505	625	
9	0	0	0	0	505	623	
10	0	0	0	0	505	624	
11	0	0	0	0	505	624	
12	0	0	0	0	504	624	
13	0	0	0	0	504	626	
14	0	0	0	0	505	624	
15	0	0	0	0	505	624	
0	0	0	0	0	505	624	
1	0	0	0	0	504	622	
2	0	0	0	0	504	623	
3	0	0	0	0	504	624	
4	0	0	0	0	504	624	
5	0	0	0	0	504	625	
6	0	0	0	0	503	624	
7	0	0	0	0	503	624	
8	0	0	0	0	503	624	
9	0	0	0	0	503	621	
10	0	0	0	0	504	623	
11	0	0	0	0	504	623	
12	0	0	0	0	505	624	
13	0	0	0	0	505	625	
14	0	0	0	0	505	624	
15	0	0	0	0	505	624	
0	0	0	0	0	505	624	
1	0	0	0	0	504	621	
2	0	0	0	0	505	623	
3	0	0	0	0	505	624	
4	0	0	0	0	506	623	
5	0	0	0	0	507	625	
6	0	0	0	0	507	624	
7	0	0	0	0	507	624	
8	0	0	0	0	507	624	
9	0	0	0	0	508	623	
10	0	0	0	0	508	625	
11	0	0	0	0	509	625	
12	0	0	0	0	510	625	
13	0	0	0	0	510	627	
14	0	0	0	0	510	625	
15	0	0	0	0	510	625	
0	0	0	0	0	510	625	
1	0	0	0	0	510	624	
2	0	0	0	0	510	625	
3	0	0	0	0	510	625	
4	0	0	0	0	511	624	
5	0	0	0	0	511	627	
6	0	0	0	0	511	625	
7	0	0	0	0	511	624	
8	0	0	0	0	511	625	
9	0	0	0	0	510	623	
10	0	0	0	0	510	625	
11	0	0	0	0	511	625	
12	0	0	0	0	511	624	
13	0	0	0	0	511	626	
14	0	0	0	0	510	624	
15	0	0	0	0	510	624	
0	0	0	0	0	510	625	
1	0	0	0	0	508	622	
2	0	0	0	0	508	624	
3	0	0	0	0	508	624	
4	0	0	0	0	508	624	
5	0	0	0	0	508	625	
6	0	0	0	0	508	623	
7	0	0	0	0	509	624	
8	0	0	0	0	510	624	
9	0	0	0	0	511	622	
10	0	0	0	0	511	624	
11	0	0	0	0	511	623	
12	0	0	0	0	511	624	
13	0	0	0	0	511	625	
14	0	0	0	0	510	623	
15	0	0	0	0	510	623	
0	0	0	0	0	509	624	
1	0	0	0	0	509	621	
2	0	0	0	0	509	624	
3	0	0	0	0	508	623	
4	0	0	0	0	508	623	
5	0	0	0	0	508	625	
6	0	0	0	0	507	624	
7	0	0	0	0	507	624	
8	0	0	0	0	505	624	
9	0	0	0	0	504	623	
10	0	0	0	0	504	624	
11	0	0	0	0	505	624	
12	0	0	0	0	505	624	
13	0	0	0	0	505	626	
14	0	0	0	0	506	625	
15	0	0	0	0	507	625	
0	0	0	0	0	507	625	
1	0	0	0	0	507	623	
2	0	0	0	0	506	625	
3	0	0	0	0	506	625	
4	0	0	0	0	506	625	
5	0	0	0	0	506	627	
6	0	0	0	0	507	625	
7	0	0	0	0	507	625	
8	0	0	0	0	507	625	
9	0	0	0	0	506	623	
10	0	0	0	0	506	624	
11	0	0	0	0	507	624	
12	0	0	0	0	507	624	
13	0	0	0	0	507	625	
14	0	0	0	0	506	624	
15	0	0	0	0	505	624	
0	0	0	0	0	505	624	
1	0	0	0	0	504	621	
2	0	0	0	0	504	624	
3	0	0	0	0	505	624	
4	0	0	0	0	506	623	
5	0	0	0	0	506	625	
6	0	0	0	0	506	623	
7	0	0	0	0	505	623	
8	0	0	0	0	505	623	
9	0	0	0	0	505	621	
10	0	0	0	0	504	623	
11	0	0	0	0	504	623	
12	0	0	0	0	504	623	
13	0	0	0	0	503	624	
14	0	0	0	0	502	623	
15	0	0	0	0	501	623	
0	0	0	0	0	499	623	
1	0	0	0	0	497	622	
2	0	0	0	0	495	624	
3	0	0	0	0	492	624	
4	0	0	0	0	487	623	
5	0	0	0	0	482	625	
6	0	0	0	0	474	623	
7	0	0	0	0	465	623	
8	0	0	0	0	457	623	
9	0	0	0	0	448	622	
10	0	0	0	0	439	624	
11	0	0	0	0	431	624	
12	0	0	0	0	423	624	
13	0	0	0	0	415	625	
14	0	0	0	0	409	624	
15	0	0	0	0	405	624	
0	0	0	0	0	404	624	
1	0	0	0	0	403	622	
2	0	0	0	0	404	623	
3	0	0	0	0	408	624	
4	0	0	0	0	412	623	
5	0	0	0	0	418	625	
6	0	0	0	0	424	623	
7	0	0	0	0	431	623	
8	0	0	0	0	436	624	
9	0	0	0	0	443	622	
10	0	0	0	0	449	624	
11	0	0	0	0	457	624	
12	0	0	0	0	467	624	
13	0	0	0	0	484	625	
14	0	0	0	0	506	624	
15	0	0	0	0	531	624	
0	0	0	0	0	557	624	
1	0	0	0	0	589	623	
2	0	0	0	0	626	624	
3	0	0	0	0	668	624	
4	0	0	0	0	714	624	
5	0	0	0	0	763	626	
6	0	0	0	0	809	625	
7	0	0	0	0	851	625	
8	0	0	0	0	889	625	
9	0	0	0	0	918	623	
10	0	0	0	0	939	624	
11	0	0	0	0	953	624	
12	0	0	0	0	958	624	
13	0	0	0	0	960	627	
14	0	0	0	0	958	624	
15	0	0	0	0	953	625	
0	0	0	0	0	944	624	
1	0	0	0	0	931	623	
2	0	0	0	0	916	624	
3	0	0	0	0	897	624	
4	0	0	0	0	875	625	
5	0	0	0	0	850	626	
6	0	0	0	0	821	624	
7	0	0	0	0	791	624	
8	0	0	0	0	762	625	
9	0	0	0	0	736	623	
10	0	0	0	0	713	624	
11	0	0	0	0	691	624	
12	0	0	0	0	671	624	
13	0	0	0	0	653	625	
14	0	0	0	0	635	624	
15	0	0	0	0	620	624	
0	0	0	0	0	605	624	
1	0	0	0	0	592	622	
2	0	0	0	0	579	624	
3	0	0	0	0	566	624	
4	0	0	0	0	554	624	
5	0	0	0	0	543	625	
6	0	0	0	0	530	624	
7	0	0	0	0	519	623	
8	0	0	0	0	508	624	
9	0	0	0	0	498	622	
10	0	0	0	0	487	624	
11	0	0	0	0	476	624	
12	0	0	0	0	467	623	
13	0	0	0	0	459	625	
14	0	0	0	0	450	624	
15	0	0	0	0	443	624	
0	0	0	0	0	436	624	
1	0	0	0	0	430	622	
2	0	0	0	0	423	624	
3	0	0	0	0	419	624	
4	0	0	0	0	415	624	
5	0	0	0	0	411	625	
6	0	0	0	0	408	624	
7	0	0	0	0	406	624	
8	0	0	0	0	403	624	
9	0	0	0	0	402	622	
10	0	0	0	0	400	623	
11	0	0	0	0	400	624	
12	0	0	0	0	399	624	
13	0	0	0	0	399	625	
14	0	0	0	0	399	623	
15	0	0	0	0	399	624	
0	0	0	0	0	399	624	
1	0	0	0	0	399	622	
2	0	0	0	0	399	624	
3	0	0	0	0	399	624	
4	0	0	0	0	399	624	
5	0	0	0	0	400	626	
6	0	0	0	0	399	623	
7	0	0	0	0	399	624	
8	0	0	0	0	400	624	
9	0	0	0	0	402	622	
10	0	0	0	0	403	624	
11	0	0	0	0	404	624	
12	0	0	0	0	404	624	
13	0	0	0	0	405	625	
14	0	0	0	0	406	624	
15	0	0	0	0	407	623	
0	0	0	0	0	408	623	
1	0	0	0	0	408	621	
2	0	0	0	0	408	623	
3	0	0	0	0	409	624	
4	0	0	0	0	410	623	
5	0	0	0	0	410	625	
6	0	0	0	0	411	623	
7	0	0	0	0	410	623	
8	0	0	0	0	411	623	
9	0	0	0	0	412	621	
10	0	0	0	0	413	623	
11	0	0	0	0	414	623	
12	0	0	0	0	414	623	
13	0	0	0	0	415	624	
14	0	0	0	0	415	623	
15	0	0	0	0	415	623	
0	0	0	0	0	416	623	
1	0	0	0	0	416	621	
2	0	0	0	0	417	623	
3	0	0	0	0	418	623	
4	0	0	0	0	419	623	
5	0	0	0	0	421	624	
6	0	0	0	0	422	623	
7	0	0	0	0	424	623	
8	0	0	0	0	425	623	
9	0	0	0	0	427	621	
10	0	0	0	0	427	623	
11	0	0	0	0	428	623	
12	0	0	0	0	428	623	
13	0	0	0	0	429	624	
14	0	0	0	0	428	623	
15	0	0	0	0	428	623	
0	0	0	0	0	430	624	
1	0	0	0	0	430	621	
2	0	0	0	0	431	624	
3	0	0	0	0	432	624	
4	0	0	0	0	432	623	
5	0	0	0	0	432	625	
6	0	0	0	0	433	623	
7	0	0	0	0	433	624	
8	0	0	0	0	433	624	
9	0	0	0	0	433	622	
10	0	0	0	0	434	623	
11	0	0	0	0	433	623	
12	0	0	0	0	433	623	
13	0	0	0	0	433	625	
14	0	0	0	0	434	623	
15	0	0	0	0	434	624	
0	0	0	0	0	434	623	
1	0	0	0	0	435	622	
2	0	0	0	0	435	624	
3	0	0	0	0	435	623	
4	0	0	0	0	435	623	
5	0	0	0	0	435	625	
6	0	0	0	0	436	624	
7	0	0	0	0	437	624	
8	0	0	0	0	438	624	
9	0	0	0	0	439	622	
10	0	0	0	0	439	624	
11	0	0	0	0	441	624	
12	0	0	0	0	441	623	
13	0	0	0	0	442	625	
14	0	0	0	0	443	624	
15	0	0	0	0	443	624	
0	0	0	0	0	442	624	
1	0	0	0	0	443	622	
2	0	0	0	0	443	624	
3	0	0	0	0	443	624	
4	0	0	0	0	443	624	
5	0	0	0	0	443	626	
6	0	0	0	0	443	624	
7	0	0	0	0	442	624	
8	0	0	0	0	442	624	
9	0	0	0	0	442	622	
10	0	0	0	0	443	624	
11	0	0	0	0	443	624	
12	0	0	0	0	444	625	
13	0	0	0	0	443	626	
14	0	0	0	0	444	624	
15	0	0	0	0	444	625	
0	0	0	0	0	444	624	
1	0	0	0	0	444	623	
2	0	0	0	0	444	625	
3	0	0	0	0	445	625	
4	0	0	0	0	445	625	
5	0	0	0	0	446	627	
6	0	0	0	0	446	625	
7	0	0	0	0	446	626	
8	0	0	0	0	447	626	
9	0	0	0	0	448	625	
10	0	0	0	0	448	626	
11	0	0	0	0	448	626	
12	0	0	0	0	449	627	
13	0	0	0	0	450	629	
14	0	0	0	0	450	628	
15	0	0	0	0	449	627	
0	0	0	0	0	449	627	
1	0	0	0	0	449	626	
2	0	0	0	0	450	628	
3	0	0	0	0	451	629	
4	0	0	0	0	451	628	
5	0	0	0	0	451	630	
6	0	0	0	0	451	628	
7	0	0	0	0	452	628	
8	0	0	0	0	452	628	
9	0	0	0	0	454	627	
10	0	0	0	0	455	628	
11	0	0	0	0	456	628	
12	0	0	0	0	457	627	
13	0	0	0	0	457	629	
14	0	0	0	0	459	627	
15	0	0	0	0	460	627	
0	0	0	0	0	461	628	
1	0	0	0	0	462	626	
2	0	0	0	0	463	628	
3	0	0	0	0	463	628	
4	0	0	0	0	464	628	
5	0	0	0	0	464	629	
6	0	0	0	0	465	628	
7	0	0	0	0	467	627	
8	0	0	0	0	468	627	
9	0	0	0	0	470	625	
10	0	0	0	0	471	626	
11	0	0	0	0	472	627	
12	0	0	0	0	473	626	
13	0	0	0	0	474	628	
14	0	0	0	0	475	626	
15	0	0	0	0	477	626	
0	0	0	0	0	478	625	
1	0	0	0	0	479	624	
2	0	0	0	0	479	625	
3	0	0	0	0	480	625	
4	0	0	0	0	482	625	
5	0	0	0	0	484	626	
6	0	0	0	0	486	624	
7	0	0	0	0	487	624	
8	0	0	0	0	487	623	
9	0	0	0	0	488	622	
10	0	0	0	0	488	623	
11	0	0	0	0	489	623	
12	0	0	0	0	490	623	
13	0	0	0	0	492	625	
14	0	0	0	0	494	622	
15	0	0	0	0	496	623	
0	0	0	0	0	497	623	
1	0	0	0	0	499	621	
2	0	0	0	0	501	622	
3	0	0	0	0	502	623	
4	0	0	0	0	504	623	
5	0	0	0	0	506	624	
6	0	0	0	0	508	623	
7	0	0	0	0	509	622	
8	0	0	0	0	510	622	
9	0	0	0	0	512	620	
10	0	0	0	0	514	622	
11	0	0	0	0	513	622	
12	0	0	0	0	515	622	
13	0	0	0	0	515	623	
14	0	0	0	0	517	622	
15	0	0	0	0	519	621	
0	0	0	0	0	519	621	
1	0	0	0	0	520	620	
2	0	0	0	0	521	621	
3	0	0	0	0	521	621	
4	0	0	0	0	522	622	
5	0	0	0	0	522	623	
6	0	0	0	0	523	622	
7	0	0	0	0	523	622	
8	0	0	0	0	522	622	
9	0	0	0	0	523	620	
10	0	0	0	0	523	622	
11	0	0	0	0	523	622	
12	0	0	0	0	524	622	
13	0	0	0	0	524	624	
14	0	0	0	0	525	623	
15	0	0	0	0	526	622	
0	0	0	0	0	526	623	
1	0	0	0	0	526	621	
2	0	0	0	0	526	622	
3	0	0	0	0	527	623	
4	0	0	0	0	527	623	
5	0	0	0	0	527	624	
6	0	0	0	0	528	623	
7	0	0	0	0	528	623	
8	0	0	0	0	528	623	
9	0	0	0	0	527	621	
10	0	0	0	0	527	623	
11	0	0	0	0	526	623	
12	0	0	0	0	526	623	
13	0	0	0	0	525	625	
14	0	0	0	0	524	624	
15	0	0	0	0	524	624	
0	0	0	0	0	524	624	
1	0	0	0	0	524	622	
2	0	0	0	0	523	624	
3	0	0	0	0	523	624	
4	0	0	0	0	524	624	
5	0	0	0	0	524	627	
6	0	0	0	0	524	625	
7	0	0	0	0	525	624	
8	0	0	0	0	524	625	
9	0	0	0	0	524	623	
10	0	0	0	0	523	625	
11	0	0	0	0	523	625	
12	0	0	0	0	523	625	
13	0	0	0	0	522	627	
14	0	0	0	0	522	625	
15	0	0	0	0	521	625	
0	0	0	0	0	521	625	
1	0	0	0	0	521	623	
2	0	0	0	0	521	625	
3	0	0	0	0	520	625	
4	0	0	0	0	521	625	
5	0	0	0	0	521	627	
6	0	0	0	0	522	625	
7	0	0	0	0	522	625	
8	0	0	0	0	522	626	
9	0	0	0	0	522	624	
10	0	0	0	0	521	626	
11	0	0	0	0	521	625	
12	0	0	0	0	520	626	
13	0	0	0	0	520	627	
14	0	0	0	0	520	626	
15	0	0	0	0	519	625	
0	0	0	0	0	520	626	
1	0	0	0	0	521	624	
2	0	0	0	0	521	626	
3	0	0	0	0	521	625	
4	0	0	0	0	521	626	
5	0	0	0	0	521	628	
6	0	0	0	0	522	626	
7	0	0	0	0	522	626	
8	0	0	0	0	521	626	
9	0	0	0	0	521	623	
10	0	0	0	0	521	626	
11	0	0	0	0	521	626	
12	0	0	0	0	521	626	
13	0	0	0	0	521	627	
14	0	0	0	0	521	625	
15	0	0	0	0	521	626	
0	0	0	0	0	521	626	
1	0	0	0	0	521	624	
2	0	0	0	0	521	626	
3	0	0	0	0	520	625	
4	0	0	0	0	520	626	
5	0	0	0	0	519	629	
6	0	0	0	0	519	627	
7	0	0	0	0	519	626	
8	0	0	0	0	519	626	
9	0	0	0	0	518	624	
10	0	0	0	0	518	626	
11	0	0	0	0	517	626	
12	0	0	0	0	517	626	
13	0	0	0	0	517	627	
14	0	0	0	0	517	626	
15	0	0	0	0	517	626	
0	0	0	0	0	517	626	
1	0	0	0	0	517	624	
2	0	0	0	0	517	625	
3	0	0	0	0	516	625	
4	0	0	0	0	516	625	
5	0	0	0	0	517	627	
6	0	0	0	0	518	624	
7	0	0	0	0	519	625	
8	0	0	0	0	518	624	
9	0	0	0	0	517	623	
10	0	0	0	0	517	624	
11	0	0	0	0	517	623	
12	0	0	0	0	517	623	
13	0	0	0	0	517	625	
14	0	0	0	0	518	624	
15	0	0	0	0	518	624	
0	0	0	0	0	517	623	
1	0	0	0	0	517	622	
2	0	0	0	0	517	623	
3	0	0	0	0	517	623	
4	0	0	0	0	516	623	
5	0	0	0	0	515	623	
6	0	0	0	0	515	622	
7	0	0	0	0	516	622	
8	0	0	0	0	516	622	
9	0	0	0	0	515	620	
10	0	0	0	0	515	622	
11	0	0	0	0	515	622	
12	0	0	0	0	515	622	
13	0	0	0	0	514	624	
14	0	0	0	0	514	622	
15	0	0	0	0	513	622	
0	0	0	0	0	513	622	
1	0	0	0	0	513	620	
2	0	0	0	0	512	622	
3	0	0	0	0	511	623	
4	0	0	0	0	512	622	
5	0	0	0	0	512	624	
6	0	0	0	0	513	623	
7	0	0	0	0	513	623	
8	0	0	0	0	513	623	
9	0	0	0	0	514	621	
10	0	0	0	0	514	623	
11	0	0	0	0	515	623	
12	0	0	0	0	515	623	
13	0	0	0	0	516	624	
14	0	0	0	0	516	622	
15	0	0	0	0	514	623	
0	0	0	0	0	513	623	
1	0	0	0	0	512	622	
2	0	0	0	0	512	623	
3	0	0	0	0	512	623	
4	0	0	0	0	512	623	
5	0	0	0	0	512	624	
6	0	0	0	0	511	623	
7	0	0	0	0	511	623	
8	0	0	0	0	511	623	
9	0	0	0	0	510	621	
10	0	0	0	0	511	623	
11	0	0	0	0	511	622	
12	0	0	0	0	511	622	
13	0	0	0	0	510	624	
14	0	0	0	0	509	623	
15	0	0	0	0	509	622	
0	0	0	0	0	509	622	
1	0	0	0	0	510	620	
2	0	0	0	0	510	622	
3	0	0	0	0	509	622	
4	0	0	0	0	509	622	
5	0	0	0	0	509	624	
6	0	0	0	0	510	622	
7	0	0	0	0	511	622	
8	0	0	0	0	511	622	
9	0	0	0	0	511	620	
10	0	0	0	0	511	622	
11	0	0	0	0	510	622	
12	0	0	0	0	510	622	
13	0	0	0	0	510	624	
14	0	0	0	0	510	622	
15	0	0	0	0	510	622	
0	0	0	0	0	510	622	
1	0	0	0	0	510	621	
2	0	0	0	0	511	623	
3	0	0	0	0	511	622	
4	0	0	0	0	511	623	
5	0	0	0	0	511	624	
6	0	0	0	0	511	623	
7	0	0	0	0	511	623	
8	0	0	0	0	512	623	
9	0	0	0	0	512	622	
10	0	0	0	0	512	623	
11	0	0	0	0	513	624	
12	0	0	0	0	512	624	
13	0	0	0	0	513	625	
14	0	0	0	0	513	624	
15	0	0	0	0	513	624	
0	0	0	0	0	513	624	
1	0	0	0	0	513	622	
2	0	0	0	0	514	624	
3	0	0	0	0	514	624	
4	0	0	0	0	514	624	
5	0	0	0	0	514	626	
6	0	0	0	0	513	624	
7	0	0	0	0	513	623	
8	0	0	0	0	513	624	
9	0	0	0	0	512	622	
10	0	0	0	0	511	624	
11	0	0	0	0	511	624	
12	0	0	0	0	511	624	
13	0	0	0	0	511	626	
14	0	0	0	0	510	625	
15	0	0	0	0	511	624	
0	0	0	0	0	511	625	
1	0	0	0	0	512	623	
2	0	0	0	0	513	625	
3	0	0	0	0	513	625	
4	0	0	0	0	514	625	
5	0	0	0	0	513	627	
6	0	0	0	0	513	625	
7	0	0	0	0	513	626	
8	0	0	0	0	513	625	
9	0	0	0	0	513	623	
10	0	0	0	0	513	626	
11	0	0	0	0	513	625	
12	0	0	0	0	513	625	
13	0	0	0	0	513	627	
14	0	0	0	0	513	625	
15	0	0	0	0	513	625	
0	0	0	0	0	513	625	
1	0	0	0	0	513	623	
2	0	0	0	0	514	625	
3	0	0	0	0	515	624	
4	0	0	0	0	515	624	
5	0	0	0	0	516	626	
6	0	0	0	0	518	624	
7	0	0	0	0	517	624	
8	0	0	0	0	517	625	
9	0	0	0	0	516	623	
10	0	0	0	0	517	624	
11	0	0	0	0	517	625	
12	0	0	0	0	517	624	
13	0	0	0	0	518	627	
14	0	0	0	0	518	625	
15	0	0	0	0	518	625	
0	0	0	0	0	517	625	
1	0	0	0	0	518	623	
2	0	0	0	0	518	625	
3	0	0	0	0	518	625	
4	0	0	0	0	517	625	
5	0	0	0	0	517	627	
6	0	0	0	0	517	624	
7	0	0	0	0	517	625	
8	0	0	0	0	516	624	
9	0	0	0	0	516	622	
10	0	0	0	0	516	624	
11	0	0	0	0	516	624	
12	0	0	0	0	515	624	
13	0	0	0	0	515	626	
14	0	0	0	0	515	624	
15	0	0	0	0	515	624	
0	0	0	0	0	515	624	
1	0	0	0	0	515	623	
2	0	0	0	0	515	624	
3	0	0	0	0	515	624	
4	0	0	0	0	515	624	
5	0	0	0	0	515	625	
6	0	0	0	0	515	623	
7	0	0	0	0	515	623	
8	0	0	0	0	515	623	
9	0	0	0	0	514	621	
10	0	0	0	0	514	623	
11	0	0	0	0	514	623	
12	0	0	0	0	514	624	
13	0	0	0	0	515	625	
14	0	0	0	0	516	623	
15	0	0	0	0	516	623	
0	0	0	0	0	516	623	
1	0	0	0	0	516	621	
2	0	0	0	0	516	623	
3	0	0	0	0	515	624	
4	0	0	0	0	515	623	
5	0	0	0	0	515	625	
6	0	0	0	0	515	623	
7	0	0	0	0	515	623	
8	0	0	0	0	515	623	
9	0	0	0	0	515	622	
10	0	0	0	0	514	623	
11	0	0	0	0	514	623	
12	0	0	0	0	514	623	
13	0	0	0	0	513	625	
14	0	0	0	0	513	624	
15	0	0	0	0	513	623	
0	0	0	0	0	512	624	
1	0	0	0	0	511	622	
2	0	0	0	0	512	624	
3	0	0	0	0	512	624	
4	0	0	0	0	513	624	
5	0	0	0	0	513	626	
6	0	0	0	0	512	623	
7	0	0	0	0	513	624	
8	0	0	0	0	513	624	
9	0	0	0	0	513	622	
10	0	0	0	0	513	624	
11	0	0	0	0	512	624	
12	0	0	0	0	513	625	
13	0	0	0	0	513	625	
14	0	0	0	0	513	624	
15	0	0	0	0	513	624	
0	0	0	0	0	513	624	
1	0	0	0	0	513	622	
2	0	0	0	0	513	624	
3	0	0	0	0	513	624	
4	0	0	0	0	512	624	
5	0	0	0	0	512	626	
6	0	0	0	0	512	624	
7	0	0	0	0	512	624	
8	0	0	0	0	512	625	
9	0	0	0	0	512	623	
10	0	0	0	0	512	625	
11	0	0	0	0	512	624	
12	0	0	0	0	512	624	
13	0	0	0	0	512	626	
14	0	0	0	0	511	624	
15	0	0	0	0	512	624	
0	0	0	0	0	512	624	
1	0	0	0	0	512	622	
2	0	0	0	0	511	624	
3	0	0	0	0	511	624	
4	0	0	0	0	511	624	
5	0	0	0	0	512	625	
6	0	0	0	0	512	624	
7	0	0	0	0	512	624	
8	0	0	0	0	511	624	
9	0	0	0	0	512	622	
10	0	0	0	0	512	624	
11	0	0	0	0	512	624	
12	0	0	0	0	512	624	
13	0	0	0	0	511	626	
14	0	0	0	0	511	625	
15	0	0	0	0	511	624	
0	0	0	0	0	511	624	
1	0	0	0	0	510	623	
2	0	0	0	0	509	624	
3	0	0	0	0	510	624	
4	0	0	0	0	510	624	
5	0	0	0	0	510	626	
6	0	0	0	0	511	625	
7	0	0	0	0	511	624	
8	0	0	0	0	512	624	
9	0	0	0	0	512	623	
10	0	0	0	0	512	624	
11	0	0	0	0	512	625	
12	0	0	0	0	512	624	
13	0	0	0	0	512	626	
14	0	0	0	0	511	624	
15	0	0	0	0	511	625	
0	0	0	0	0	512	625	
1	0	0	0	0	511	623	
2	0	0	0	0	512	624	
3	0	0	0	0	511	624	
4	0	0	0	0	511	625	
5	0	0	0	0	511	626	
6	0	0	0	0	510	625	
7	0	0	0	0	510	625	
8	0	0	0	0	510	625	
9	0	0	0	0	511	624	
10	0	0	0	0	511	625	
11	0	0	0	0	511	625	
12	0	0	0	0	511	626	
13	0	0	0	0	512	627	
14	0	0	0	0	512	625	
15	0	0	0	0	512	625	
0	0	0	0	0	512	626	
1	0	0	0	0	512	624	
2	0	0	0	0	512	626	
3	0	0	0	0	512	626	
4	0	0	0	0	511	626	
5	0	0	0	0	510	627	
6	0	0	0	0	511	626	
7	0	0	0	0	510	626	
8	0	0	0	0	510	626	
9	0	0	0	0	510	624	
10	0	0	0	0	510	626	
11	0	0	0	0	511	626	
12	0	0	0	0	510	626	
13	0	0	0	0	510	628	
14	0	0	0	0	510	627	
15	0	0	0	0	510	625	
0	0	0	0	0	510	626	
1	0	0	0	0	511	624	
2	0	0	0	0	511	625	
3	0	0	0	0	510	625	
4	0	0	0	0	510	625	
5	0	0	0	0	510	627	
6	0	0	0	0	510	625	
7	0	0	0	0	510	625	
8	0	0	0	0	510	625	
9	0	0	0	0	509	623	
10	0	0	0	0	508	624	
11	0	0	0	0	507	624	
12	0	0	0	0	507	623	
13	0	0	0	0	508	625	
14	0	0	0	0	508	624	
15	0	0	0	0	508	624	
0	0	0	0	0	508	624	
1	0	0	0	0	508	622	
2	0	0	0	0	510	624	
3	0	0	0	0	510	624	
4	0	0	0	0	511	624	
5	0	0	0	0	510	625	
6	0	0	0	0	510	624	
7	0	0	0	0	509	624	
8	0	0	0	0	509	624	
9	0	0	0	0	508	622	
10	0	0	0	0	506	624	
11	0	0	0	0	507	624	
12	0	0	0	0	506	625	
13	0	0	0	0	506	625	
14	0	0	0	0	507	624	
15	0	0	0	0	506	625	
0	0	0	0	0	507	624	
1	0	0	0	0	507	622	
2	0	0	0	0	507	624	
3	0	0	0	0	507	624	
4	0	0	0	0	505	624	
5	0	0	0	0	505	626	
6	0	0	0	0	506	624	
7	0	0	0	0	506	624	
8	0	0	0	0	505	624	
9	0	0	0	0	505	622	
10	0	0	0	0	505	624	
11	0	0	0	0	505	624	
12	0	0	0	0	506	624	
13	0	0	0	0	506	625	
14	0	0	0	0	507	624	
15	0	0	0	0	507	624	
0	0	0	0	0	506	624	
1	0	0	0	0	506	623	
2	0	0	0	0	507	624	
3	0	0	0	0	506	625	
4	0	0	0	0	506	624	
5	0	0	0	0	506	625	
6	0	0	0	0	505	624	
7	0	0	0	0	505	623	
8	0	0	0	0	505	623	
9	0	0	0	0	505	622	
10	0	0	0	0	505	624	
11	0	0	0	0	505	624	
12	0	0	0	0	505	624	
13	0	0	0	0	505	625	
14	0	0	0	0	504	624	
15	0	0	0	0	504	624	
0	0	0	0	0	504	624	
1	0	0	0	0	505	622	
2	0	0	0	0	505	624	
3	0	0	0	0	505	623	
4	0	0	0	0	505	623	
5	0	0	0	0	505	625	
6	0	0	0	0	505	624	
7	0	0	0	0	504	624	
8	0	0	0	0	504	623	
9	0	0	0	0	503	621	
10	0	0	0	0	502	624	
11	0	0	0	0	502	623	
12	0	0	0	0	500	623	
13	0	0	0	0	500	625	
14	0	0	0	0	500	623	
15	0	0	0	0	500	623	
0	0	0	0	0	500	624	
1	0	0	0	0	501	622	
2	0	0	0	0	501	623	
3	0	0	0	0	501	623	
4	0	0	0	0	501	623	
5	0	0	0	0	501	625	
6	0	0	0	0	500	624	
7	0	0	0	0	499	623	
8	0	0	0	0	499	623	
9	0	0	0	0	498	621	
10	0	0	0	0	498	623	
11	0	0	0	0	499	623	
12	0	0	0	0	499	622	
13	0	0	0	0	499	624	
14	0	0	0	0	500	622	
15	0	0	0	0	501	622	
0	0	0	0	0	502	622	
1	0	0	0	0	502	620	
2	0	0	0	0	503	622	
3	0	0	0	0	504	622	
4	0	0	0	0	504	622	
5	0	0	0	0	504	624	
6	0	0	0	0	504	623	
7	0	0	0	0	505	622	
8	0	0	0	0	505	622	
9	0	0	0	0	506	620	
10	0	0	0	0	506	622	
11	0	0	0	0	507	623	
12	0	0	0	0	507	623	
13	0	0	0	0	508	624	
14	0	0	0	0	508	623	
15	0	0	0	0	507	622	
0	0	0	0	0	507	623	
1	0	0	0	0	507	620	
2	0	0	0	0	507	622	
3	0	0	0	0	507	623	
4	0	0	0	0	508	622	
5	0	0	0	0	508	624	
6	0	0	0	0	508	623	
7	0	0	0	0	507	623	
8	0	0	0	0	507	623	
9	0	0	0	0	508	620	
10	0	0	0	0	508	623	
11	0	0	0	0	509	623	
12	0	0	0	0	509	623	
13	0	0	0	0	509	625	
14	0	0	0	0	510	623	
15	0	0	0	0	510	623	
0	0	0	0	0	511	623	
1	0	0	0	0	511	621	
2	0	0	0	0	510	623	
3	0	0	0	0	510	624	
4	0	0	0	0	510	623	
5	0	0	0	0	510	625	
6	0	0	0	0	510	624	
7	0	0	0	0	511	624	
8	0	0	0	0	511	624	
9	0	0	0	0	511	622	
10	0	0	0	0	511	624	
11	0	0	0	0	510	623	
12	0	0	0	0	509	623	
13	0	0	0	0	510	625	
14	0	0	0	0	510	624	
15	0	0	0	0	511	624	
0	0	0	0	0	511	624	
1	0	0	0	0	510	622	
2	0	0	0	0	510	624	
3	0	0	0	0	510	624	
4	0	0	0	0	510	624	
5	0	0	0	0	510	626	
6	0	0	0	0	510	624	
7	0	0	0	0	509	624	
8	0	0	0	0	509	623	
9	0	0	0	0	510	622	
10	0	0	0	0	510	624	
11	0	0	0	0	511	624	
12	0	0	0	0	511	624	
13	0	0	0	0	511	625	
14	0	0	0	0	511	623	
15	0	0	0	0	512	623	
0	0	0	0	0	512	624	
1	0	0	0	0	511	622	
2	0	0	0	0	511	624	
3	0	0	0	0	511	624	
4	0	0	0	0	511	624	
5	0	0	0	0	511	626	
6	0	0	0	0	510	625	
7	0	0	0	0	509	624	
8	0	0	0	0	508	624	
9	0	0	0	0	508	623	
10	0	0	0	0	508	625	
11	0	0	0	0	507	624	
12	0	0	0	0	506	623	
13	0	0	0	0	505	625	
14	0	0	0	0	505	623	
15	0	0	0	0	505	624	
0	0	0	0	0	505	624	
1	0	0	0	0	505	623	
2	0	0	0	0	505	624	
3	0	0	0	0	506	623	
4	0	0	0	0	506	624	
5	0	0	0	0	507	625	
6	0	0	0	0	507	624	
7	0	0	0	0	508	623	
8	0	0	0	0	508	624	
9	0	0	0	0	508	623	
10	0	0	0	0	509	625	
11	0	0	0	0	508	624	
12	0	0	0	0	507	624	
13	0	0	0	0	506	625	
14	0	0	0	0	504	624	
15	0	0	0	0	504	624	
0	0	0	0	0	501	624	
1	0	0	0	0	498	622	
2	0	0	0	0	494	624	
3	0	0	0	0	488	624	
4	0	0	0	0	480	624	
5	0	0	0	0	473	625	
6	0	0	0	0	465	624	
7	0	0	0	0	454	624	
8	0	0	0	0	445	625	
9	0	0	0	0	436	623	
10	0	0	0	0	429	625	
11	0	0	0	0	421	626	
12	0	0	0	0	414	626	
13	0	0	0	0	410	628	
14	0	0	0	0	407	627	
15	0	0	0	0	405	627	
0	0	0	0	0	406	628	
1	0	0	0	0	408	626	
2	0	0	0	0	412	628	
3	0	0	0	0	418	629	
4	0	0	0	0	424	629	
5	0	0	0	0	431	631	
6	0	0	0	0	436	628	
7	0	0	0	0	442	630	
8	0	0	0	0	449	629	
9	0	0	0	0	457	628	
10	0	0	0	0	466	629	
11	0	0	0	0	480	629	
12	0	0	0	0	499	629	
13	0	0	0	0	522	631	
14	0	0	0	0	548	629	
15	0	0	0	0	577	629	
0	0	0	0	0	613	628	
1	0	0	0	0	654	626	
2	0	0	0	0	696	627	
3	0	0	0	0	743	627	
4	0	0	0	0	790	627	
5	0	0	0	0	832	628	
6	0	0	0	0	869	627	
7	0	0	0	0	900	626	
8	0	0	0	0	923	625	
9	0	0	0	0	940	624	
10	0	0	0	0	949	625	
11	0	0	0	0	953	625	
12	0	0	0	0	952	624	
13	0	0	0	0	949	625	
14	0	0	0	0	940	624	
15	0	0	0	0	929	624	
0	0	0	0	0	915	624	
1	0	0	0	0	897	622	
2	0	0	0	0	878	623	
3	0	0	0	0	856	623	
4	0	0	0	0	830	622	
5	0	0	0	0	802	625	
6	0	0	0	0	772	623	
7	0	0	0	0	743	622	
8	0	0	0	0	719	622	
9	0	0	0	0	697	621	
10	0	0	0	0	677	622	
11	0	0	0	0	658	622	
12	0	0	0	0	641	622	
13	0	0	0	0	625	623	
14	0	0	0	0	611	622	
15	0	0	0	0	598	622	
0	0	0	0	0	586	622	
1	0	0	0	0	575	620	
2	0	0	0	0	563	622	
3	0	0	0	0	551	622	
4	0	0	0	0	541	622	
5	0	0	0	0	529	624	
6	0	0	0	0	519	622	
7	0	0	0	0	507	623	
8	0	0	0	0	497	623	
9	0	0	0	0	487	621	
10	0	0	0	0	479	623	
11	0	0	0	0	470	624	
12	0	0	0	0	462	624	
13	0	0	0	0	454	625	
14	0	0	0	0	448	624	
15	0	0	0	0	441	624	
0	0	0	0	0	437	623	
1	0	0	0	0	432	623	
2	0	0	0	0	428	624	
3	0	0	0	0	425	624	
4	0	0	0	0	422	624	
5	0	0	0	0	419	625	
6	0	0	0	0	416	624	
7	0	0	0	0	412	624	
8	0	0	0	0	410	624	
9	0	0	0	0	408	621	
10	0	0	0	0	407	623	
11	0	0	0	0	407	624	
12	0	0	0	0	407	623	
13	0	0	0	0	407	625	
14	0	0	0	0	406	623	
15	0	0	0	0	406	623	
0	0	0	0	0	405	623	
1	0	0	0	0	405	622	
2	0	0	0	0	404	623	
3	0	0	0	0	403	623	
4	0	0	0	0	403	624	
5	0	0	0	0	404	624	
6	0	0	0	0	404	623	
7	0	0	0	0	404	623	
8	0	0	0	0	405	623	
9	0	0	0	0	405	621	
10	0	0	0	0	406	623	
11	0	0	0	0	406	623	
12	0	0	0	0	406	623	
13	0	0	0	0	406	624	
14	0	0	0	0	407	623	
15	0	0	0	0	408	623	
0	0	0	0	0	407	622	
1	0	0	0	0	407	621	
2	0	0	0	0	408	623	
3	0	0	0	0	409	623	
4	0	0	0	0	409	623	
5	0	0	0	0	409	624	
6	0	0	0	0	410	622	
7	0	0	0	0	411	622	
8	0	0	0	0	410	622	
9	0	0	0	0	410	621	
10	0	0	0	0	411	622	
11	0	0	0	0	412	622	
12	0	0	0	0	414	623	
13	0	0	0	0	415	624	
14	0	0	0	0	415	623	
15	0	0	0	0	416	623	
0	0	0	0	0	418	624	
1	0	0	0	0	419	621	
2	0	0	0	0	420	623	
3	0	0	0	0	422	624	
4	0	0	0	0	423	623	
5	0	0	0	0	424	624	
6	0	0	0	0	425	623	
7	0	0	0	0	425	624	
8	0	0	0	0	425	624	
9	0	0	0	0	427	622	
10	0	0	0	0	427	624	
11	0	0	0	0	427	624	
12	0	0	0	0	427	624	
13	0	0	0	0	427	627	
14	0	0	0	0	428	625	
15	0	0	0	0	428	625	
0	0	0	0	0	429	626	
1	0	0	0	0	430	623	
2	0	0	0	0	431	625	
3	0	0	0	0	431	625	
4	0	0	0	0	432	626	
5	0	0	0	0	432	627	
6	0	0	0	0	432	626	
7	0	0	0	0	432	626	
8	0	0	0	0	432	625	
9	0	0	0	0	432	624	
10	0	0	0	0	432	626	
11	0	0	0	0	432	625	
12	0	0	0	0	432	625	
13	0	0	0	0	432	627	
14	0	0	0	0	432	625	
15	0	0	0	0	434	625	
0	0	0	0	0	434	625	
1	0	0	0	0	435	624	
2	0	0	0	0	435	625	
3	0	0	0	0	435	625	
4	0	0	0	0	436	625	
5	0	0	0	0	437	626	
6	0	0	0	0	438	624	
7	0	0	0	0	439	624	
8	0	0	0	0	440	624	
9	0	0	0	0	440	623	
10	0	0	0	0	441	624	
11	0	0	0	0	441	624	
12	0	0	0	0	441	624	
13	0	0	0	0	441	625	
14	0	0	0	0	441	623	
15	0	0	0	0	440	623	
0	0	0	0	0	440	623	
1	0	0	0	0	441	622	
2	0	0	0	0	441	624	
3	0	0	0	0	443	624	
4	0	0	0	0	444	624	
5	0	0	0	0	445	625	
6	0	0	0	0	445	623	
7	0	0	0	0	447	623	
8	0	0	0	0	447	623	
9	0	0	0	0	446	621	
10	0	0	0	0	446	623	
11	0	0	0	0	447	623	
12	0	0	0	0	447	622	
13	0	0	0	0	447	625	
14	0	0	0	0	447	623	
15	0	0	0	0	448	623	
0	0	0	0	0	448	623	
1	0	0	0	0	448	622	
2	0	0	0	0	448	623	
3	0	0	0	0	449	623	
4	0	0	0	0	449	623	
5	0	0	0	0	449	625	
6	0	0	0	0	449	624	
7	0	0	0	0	449	624	
8	0	0	0	0	449	623	
9	0	0	0	0	449	621	
10	0	0	0	0	448	624	
11	0	0	0	0	449	624	
12	0	0	0	0	449	624	
13	0	0	0	0	449	625	
14	0	0	0	0	450	624	
15	0	0	0	0	450	623	
0	0	0	0	0	450	624	
1	0	0	0	0	451	622	
2	0	0	0	0	452	624	
3	0	0	0	0	454	624	
4	0	0	0	0	454	624	
5	0	0	0	0	455	626	
6	0	0	0	0	455	625	
7	0	0	0	0	455	625	
8	0	0	0	0	455	625	
9	0	0	0	0	455	623	
10	0	0	0	0	456	625	
11	0	0	0	0	458	625	
12	0	0	0	0	459	625	
13	0	0	0	0	459	627	
14	0	0	0	0	460	626	
15	0	0	0	0	462	626	
0	0	0	0	0	462	626	
1	0	0	0	0	463	624	
2	0	0	0	0	463	625	
3	0	0	0	0	464	625	
4	0	0	0	0	465	625	
5	0	0	0	0	465	626	
6	0	0	0	0	466	625	
7	0	0	0	0	468	624	
8	0	0	0	0	470	625	
9	0	0	0	0	471	623	
10	0	0	0	0	472	626	
11	0	0	0	0	473	626	
12	0	0	0	0	475	625	
13	0	0	0	0	475	626	
14	0	0	0	0	477	625	
15	0	0	0	0	478	625	
0	0	0	0	0	480	625	
1	0	0	0	0	480	624	
2	0	0	0	0	480	625	
3	0	0	0	0	481	626	
4	0	0	0	0	481	625	
5	0	0	0	0	482	627	
6	0	0	0	0	482	625	
7	0	0	0	0	483	625	
8	0	0	0	0	485	626	
9	0	0	0	0	486	623	
10	0	0	0	0	487	625	
11	0	0	0	0	488	625	
12	0	0	0	0	490	624	
13	0	0	0	0	492	627	
14	0	0	0	0	492	625	
15	0	0	0	0	493	624	
0	0	0	0	0	494	624	
1	0	0	0	0	496	622	
2	0	0	0	0	497	624	
3	0	0	0	0	498	624	
4	0	0	0	0	499	623	
5	0	0	0	0	502	625	
6	0	0	0	0	503	623	
7	0	0	0	0	504	623	
8	0	0	0	0	506	623	
9	0	0	0	0	508	622	
10	0	0	0	0	509	623	
11	0	0	0	0	510	623	
12	0	0	0	0	510	623	
13	0	0	0	0	511	624	
14	0	0	0	0	511	623	
15	0	0	0	0	511	623	
0	0	0	0	0	512	623	
1	0	0	0	0	512	622	
2	0	0	0	0	512	623	
3	0	0	0	0	513	623	
4	0	0	0	0	515	623	
5	0	0	0	0	516	625	
6	0	0	0	0	518	624	
7	0	0	0	0	519	623	
8	0	0	0	0	519	624	
9	0	0	0	0	519	622	
10	0	0	0	0	519	624	
11	0	0	0	0	520	624	
12	0	0	0	0	520	624	
13	0	0	0	0	521	625	
14	0	0	0	0	521	624	
15	0	0	0	0	521	624	
0	0	0	0	0	522	624	
1	0	0	0	0	522	622	
2	0	0	0	0	523	624	
3	0	0	0	0	524	624	
4	0	0	0	0	524	624	
5	0	0	0	0	525	626	
6	0	0	0	0	524	624	
7	0	0	0	0	524	624	
8	0	0	0	0	523	625	
9	0	0	0	0	523	623	
10	0	0	0	0	524	625	
11	0	0	0	0	524	625	
12	0	0	0	0	524	625	
13	0	0	0	0	525	626	
14	0	0	0	0	525	625	
15	0	0	0	0	526	625	
0	0	0	0	0	526	625	
1	0	0	0	0	527	624	
2	0	0	0	0	527	625	
3	0	0	0	0	527	625	
4	0	0	0	0	527	624	
5	0	0	0	0	526	627	
6	0	0	0	0	525	625	
7	0	0	0	0	524	625	
8	0	0	0	0	523	625	
9	0	0	0	0	523	623	
10	0	0	0	0	523	624	
11	0	0	0	0	523	625	
12	0	0	0	0	523	625	
13	0	0	0	0	524	626	
14	0	0	0	0	524	625	
15	0	0	0	0	524	625	
0	0	0	0	0	524	625	
1	0	0	0	0	523	623	
2	0	0	0	0	523	624	
3	0	0	0	0	523	625	
4	0	0	0	0	523	625	
5	0	0	0	0	524	626	
6	0	0	0	0	524	624	
7	0	0	0	0	523	624	
8	0	0	0	0	523	624	
9	0	0	0	0	522	623	
10	0	0	0	0	522	624	
11	0	0	0	0	523	624	
12	0	0	0	0	522	624	
13	0	0	0	0	521	626	
14	0	0	0	0	521	623	
15	0	0	0	0	520	624	
0	0	0	0	0	520	624	
1	0	0	0	0	519	621	
2	0	0	0	0	519	623	
3	0	0	0	0	519	623	
4	0	0	0	0	519	623	
5	0	0	0	0	519	624	
6	0	0	0	0	518	623	
7	0	0	0	0	519	623	
8	0	0	0	0	519	623	
9	0	0	0	0	520	622	
10	0	0	0	0	520	623	
11	0	0	0	0	519	623	
12	0	0	0	0	520	623	
13	0	0	0	0	519	624	
14	0	0	0	0	519	623	
15	0	0	0	0	518	623	
0	0	0	0	0	518	624	
1	0	0	0	0	519	622	
2	0	0	0	0	519	624	
3	0	0	0	0	519	624	
4	0	0	0	0	519	624	
5	0	0	0	0	520	626	
6	0	0	0	0	521	624	
7	0	0	0	0	520	624	
8	0	0	0	0	520	624	
9	0	0	0	0	520	622	
10	0	0	0	0	519	624	
11	0	0	0	0	519	625	
12	0	0	0	0	519	625	
13	0	0	0	0	519	627	
14	0	0	0	0	520	625	
15	0	0	0	0	521	625	
0	0	0	0	0	522	625	
1	0	0	0	0	522	624	
2	0	0	0	0	522	625	
3	0	0	0	0	522	625	
4	0	0	0	0	522	625	
5	0	0	0	0	521	627	
6	0	0	0	0	520	625	
7	0	0	0	0	519	625	
8	0	0	0	0	518	625	
9	0	0	0	0	518	623	
10	0	0	0	0	518	626	
11	0	0	0	0	517	625	
12	0	0	0	0	517	625	
13	0	0	0	0	515	626	
14	0	0	0	0	515	625	
15	0	0	0	0	515	625	
0	0	0	0	0	515	625	
1	0	0	0	0	515	623	
2	0	0	0	0	515	625	
3	0	0	0	0	515	624	
4	0	0	0	0	515	624	
5	0	0	0	0	514	626	
6	0	0	0	0	515	624	
7	0	0	0	0	515	624	
8	0	0	0	0	514	624	
9	0	0	0	0	515	622	
10	0	0	0	0	515	624	
11	0	0	0	0	515	624	
12	0	0	0	0	515	623	
13	0	0	0	0	515	624	
14	0	0	0	0	515	623	
15	0	0	0	0	514	623	
0	0	0	0	0	514	623	
1	0	0	0	0	514	622	
2	0	0	0	0	514	623	
3	0	0	0	0	514	623	
4	0	0	0	0	513	623	
5	0	0	0	0	513	625	
6	0	0	0	0	513	623	
7	0	0	0	0	513	623	
8	0	0	0	0	513	624	
9	0	0	0	0	514	622	
10	0	0	0	0	514	623	
11	0	0	0	0	514	624	
12	0	0	0	0	513	623	
13	0	0	0	0	513	625	
14	0	0	0	0	513	623	
15	0	0	0	0	514	623	
0	0	0	0	0	514	624	
1	0	0	0	0	513	621	
2	0	0	0	0	513	623	
3	0	0	0	0	513	623	
4	0	0	0	0	513	624	
5	0	0	0	0	513	625	
6	0	0	0	0	513	624	
7	0	0	0	0	513	623	
8	0	0	0	0	513	623	
9	0	0	0	0	512	621	
10	0	0	0	0	512	622	
11	0	0	0	0	512	623	
12	0	0	0	0	512	623	
13	0	0	0	0	511	625	
14	0	0	0	0	511	623	
15	0	0	0	0	511	623	
0	0	0	0	0	511	623	
1	0	0	0	0	512	620	
2	0	0	0	0	511	623	
3	0	0	0	0	511	623	
4	0	0	0	0	511	623	
5	0	0	0	0	511	625	
6	0	0	0	0	512	623	
7	0	0	0	0	512	624	
8	0	0	0	0	513	623	
9	0	0	0	0	513	621	
10	0	0	0	0	512	622	
11	0	0	0	0	513	623	
12	0	0	0	0	513	622	
13	0	0	0	0	513	624	
14	0	0	0	0	512	622	
15	0	0	0	0	511	622	
0	0	0	0	0	511	623	
1	0	0	0	0	511	621	
2	0	0	0	0	511	622	
3	0	0	0	0	511	623	
4	0	0	0	0	511	623	
5	0	0	0	0	512	624	
6	0	0	0	0	512	623	
7	0	0	0	0	512	623	
8	0	0	0	0	512	623	
9	0	0	0	0	512	621	
10	0	0	0	0	513	624	
11	0	0	0	0	513	623	
12	0	0	0	0	512	624	
13	0	0	0	0	512	625	
14	0	0	0	0	512	623	
15	0	0	0	0	512	623	
0	0	0	0	0	512	624	
1	0	0	0	0	513	622	
2	0	0	0	0	513	624	
3	0	0	0	0	514	624	
4	0	0	0	0	514	624	
5	0	0	0	0	515	625	
6	0	0	0	0	514	624	
7	0	0	0	0	514	624	
8	0	0	0	0	513	623	
9	0	0	0	0	513	622	
10	0	0	0	0	513	623	
11	0	0	0	0	512	624	
12	0	0	0	0	513	623	
13	0	0	0	0	513	625	
14	0	0	0	0	514	624	
15	0	0	0	0	514	624	
0	0	0	0	0	514	623	
1	0	0	0	0	514	622	
2	0	0	0	0	514	624	
3	0	0	0	0	515	624	
4	0	0	0	0	515	624	
5	0	0	0	0	515	626	
6	0	0	0	0	515	625	
7	0	0	0	0	514	625	
8	0	0	0	0	514	624	
9	0	0	0	0	513	623	
10	0	0	0	0	513	625	
11	0	0	0	0	513	625	
12	0	0	0	0	513	625	
13	0	0	0	0	514	627	
14	0	0	0	0	515	626	
15	0	0	0	0	515	626	
0	0	0	0	0	516	626	
1	0	0	0	0	516	624	
2	0	0	0	0	516	626	
3	0	0	0	0	516	626	
4	0	0	0	0	515	627	
5	0	0	0	0	515	628	
6	0	0	0	0	513	626	
7	0	0	0	0	513	627	
8	0	0	0	0	512	627	
9	0	0	0	0	513	624	
10	0	0	0	0	513	627	
11	0	0	0	0	513	627	
12	0	0	0	0	515	627	
13	0	0	0	0	515	629	
14	0	0	0	0	516	627	
15	0	0	0	0	517	627	
0	0	0	0	0	516	627	
1	0	0	0	0	517	625	
2	0	0	0	0	516	627	
3	0	0	0	0	516	626	
4	0	0	0	0	516	626	
5	0	0	0	0	516	628	
6	0	0	0	0	517	625	
7	0	0	0	0	516	625	
8	0	0	0	0	516	625	
9	0	0	0	0	516	623	
10	0	0	0	0	515	624	
11	0	0	0	0	516	624	
12	0	0	0	0	515	625	
13	0	0	0	0	516	625	
14	0	0	0	0	516	624	
15	0	0	0	0	516	624	
0	0	0	0	0	517	624	
1	0	0	0	0	518	622	
2	0	0	0	0	519	624	
3	0	0	0	0	520	624	
4	0	0	0	0	520	623	
5	0	0	0	0	519	625	
6	0	0	0	0	517	623	
7	0	0	0	0	517	624	
8	0	0	0	0	516	624	
9	0	0	0	0	516	621	
10	0	0	0	0	516	624	
11	0	0	0	0	515	623	
12	0	0	0	0	514	623	
13	0	0	0	0	514	625	
14	0	0	0	0	513	623	
15	0	0	0	0	515	624	
0	0	0	0	0	515	623	
1	0	0	0	0	515	622	
2	0	0	0	0	515	624	
3	0	0	0	0	515	624	
4	0	0	0	0	514	624	
5	0	0	0	0	515	625	
6	0	0	0	0	515	624	
7	0	0	0	0	516	625	
8	0	0	0	0	516	625	
9	0	0	0	0	517	623	
10	0	0	0	0	518	624	
11	0	0	0	0	518	625	
12	0	0	0	0	519	625	
13	0	0	0	0	518	626	
14	0	0	0	0	518	625	
15	0	0	0	0	517	625	
0	0	0	0	0	517	625	
1	0	0	0	0	517	623	
2	0	0	0	0	516	625	
3	0	0	0	0	516	625	
4	0	0	0	0	516	625	
5	0	0	0	0	516	627	
6	0	0	0	0	516	625	
7	0	0	0	0	515	625	
8	0	0	0	0	515	625	
9	0	0	0	0	515	623	
10	0	0	0	0	514	625	
11	0	0	0	0	513	625	
12	0	0	0	0	513	625	
13	0	0	0	0	513	627	
14	0	0	0	0	513	625	
15	0	0	0	0	514	625	
0	0	0	0	0	514	624	
1	0	0	0	0	515	623	
2	0	0	0	0	516	625	
3	0	0	0	0	515	624	
4	0	0	0	0	514	624	
5	0	0	0	0	514	626	
6	0	0	0	0	515	624	
7	0	0	0	0	515	624	
8	0	0	0	0	515	624	
9	0	0	0	0	515	622	
10	0	0	0	0	515	623	
11	0	0	0	0	515	622	
12	0	0	0	0	514	622	
13	0	0	0	0	513	624	
14	0	0	0	0	512	624	
15	0	0	0	0	512	624	
0	0	0	0	0	511	623	
1	0	0	0	0	511	622	
2	0	0	0	0	511	624	
3	0	0	0	0	511	624	
4	0	0	0	0	511	624	
5	0	0	0	0	511	625	
6	0	0	0	0	512	624	
7	0	0	0	0	511	624	
8	0	0	0	0	511	624	
9	0	0	0	0	511	622	
10	0	0	0	0	511	624	
11	0	0	0	0	511	624	
12	0	0	0	0	511	623	
13	0	0	0	0	511	625	
14	0	0	0	0	511	623	
15	0	0	0	0	511	623	
0	0	0	0	0	511	623	
1	0	0	0	0	512	622	
2	0	0	0	0	512	624	
3	0	0	0	0	512	623	
4	0	0	0	0	512	623	
5	0	0	0	0	512	625	
6	0	0	0	0	511	623	
7	0	0	0	0	510	624	
8	0	0	0	0	510	623	
9	0	0	0	0	510	621	
10	0	0	0	0	510	623	
11	0	0	0	0	510	623	
12	0	0	0	0	510	623	
13	0	0	0	0	510	625	
14	0	0	0	0	510	623	
15	0	0	0	0	510	623	
0	0	0	0	0	510	623	
1	0	0	0	0	509	622	
2	0	0	0	0	508	623	
3	0	0	0	0	508	624	
4	0	0	0	0	508	623	
5	0	0	0	0	509	625	
6	0	0	0	0	509	624	
7	0	0	0	0	508	624	
8	0	0	0	0	508	625	
9	0	0	0	0	509	623	
10	0	0	0	0	509	625	
11	0	0	0	0	510	625	
12	0	0	0	0	509	625	
13	0	0	0	0	510	627	
14	0	0	0	0	510	625	
15	0	0	0	0	509	625	
0	0	0	0	0	509	626	
1	0	0	0	0	509	624	
2	0	0	0	0	509	626	
3	0	0	0	0	509	626	
4	0	0	0	0	508	626	
5	0	0	0	0	509	627	
6	0	0	0	0	510	625	
7	0	0	0	0	510	625	
8	0	0	0	0	510	625	
9	0	0	0	0	510	623	
10	0	0	0	0	511	624	
11	0	0	0	0	511	624	
12	0	0	0	0	511	623	
13	0	0	0	0	511	625	
14	0	0	0	0	511	623	
15	0	0	0	0	511	623	
0	0	0	0	0	511	623	
1	0	0	0	0	509	621	
2	0	0	0	0	508	623	
3	0	0	0	0	508	623	
4	0	0	0	0	507	623	
5	0	0	0	0	507	624	
6	0	0	0	0	507	623	
7	0	0	0	0	507	623	
8	0	0	0	0	507	623	
9	0	0	0	0	507	620	
10	0	0	0	0	508	622	
11	0	0	0	0	507	623	
12	0	0	0	0	508	623	
13	0	0	0	0	508	624	
14	0	0	0	0	508	623	
15	0	0	0	0	508	623	
0	0	0	0	0	508	624	
1	0	0	0	0	509	622	
2	0	0	0	0	509	624	
3	0	0	0	0	509	624	
4	0	0	0	0	508	624	
5	0	0	0	0	508	627	
6	0	0	0	0	508	624	
7	0	0	0	0	507	624	
8	0	0	0	0	507	624	
9	0	0	0	0	507	622	
10	0	0	0	0	507	624	
11	0	0	0	0	506	624	
12	0	0	0	0	506	624	
13	0	0	0	0	506	626	
14	0	0	0	0	506	625	
15	0	0	0	0	506	624	
0	0	0	0	0	508	625	
1	0	0	0	0	509	623	
2	0	0	0	0	509	624	
3	0	0	0	0	510	625	
4	0	0	0	0	510	625	
5	0	0	0	0	511	627	
6	0	0	0	0	511	625	
7	0	0	0	0	510	625	
8	0	0	0	0	510	625	
9	0	0	0	0	509	623	
10	0	0	0	0	508	624	
11	0	0	0	0	507	625	
12	0	0	0	0	506	625	
13	0	0	0	0	505	626	
14	0	0	0	0	506	625	
15	0	0	0	0	506	625	
0	0	0	0	0	505	624	
1	0	0	0	0	504	623	
2	0	0	0	0	504	624	
3	0	0	0	0	504	624	
4	0	0	0	0	504	624	
5	0	0	0	0	505	626	
6	0	0	0	0	505	625	
7	0	0	0	0	505	624	
8	0	0	0	0	504	625	
9	0	0	0	0	504	623	
10	0	0	0	0	504	624	
11	0	0	0	0	505	624	
12	0	0	0	0	506	625	
13	0	0	0	0	506	627	
14	0	0	0	0	505	624	
15	0	0	0	0	505	625	
0	0	0	0	0	505	624	
1	0	0	0	0	505	623	
2	0	0	0	0	504	625	
3	0	0	0	0	504	625	
4	0	0	0	0	504	625	
5	0	0	0	0	504	627	
6	0	0	0	0	504	624	
7	0	0	0	0	504	625	
8	0	0	0	0	504	625	
9	0	0	0	0	504	623	
10	0	0	0	0	505	624	
11	0	0	0	0	505	625	
12	0	0	0	0	506	624	
13	0	0	0	0	507	627	
14	0	0	0	0	507	625	
15	0	0	0	0	507	625	
0	0	0	0	0	507	625	
1	0	0	0	0	508	623	
2	0	0	0	0	509	625	
3	0	0	0	0	511	624	
4	0	0	0	0	511	624	
5	0	0	0	0	511	626	
6	0	0	0	0	511	624	
7	0	0	0	0	511	624	
8	0	0	0	0	510	624	
9	0	0	0	0	509	623	
10	0	0	0	0	509	624	
11	0	0	0	0	508	624	
12	0	0	0	0	507	624	
13	0	0	0	0	507	626	
14	0	0	0	0	508	624	
15	0	0	0	0	509	624	
0	0	0	0	0	510	624	
1	0	0	0	0	509	622	
2	0	0	0	0	509	624	
3	0	0	0	0	510	624	
4	0	0	0	0	510	624	
5	0	0	0	0	511	625	
6	0	0	0	0	511	624	
7	0	0	0	0	511	624	
8	0	0	0	0	511	624	
9	0	0	0	0	511	622	
10	0	0	0	0	511	624	
11	0	0	0	0	511	624	
12	0	0	0	0	510	624	
13	0	0	0	0	511	625	
14	0	0	0	0	511	624	
15	0	0	0	0	510	624	
0	0	0	0	0	510	624	
1	0	0	0	0	510	622	
2	0	0	0	0	510	624	
3	0	0	0	0	509	623	
4	0	0	0	0	509	623	
5	0	0	0	0	509	625	
6	0	0	0	0	510	623	
7	0	0	0	0	510	624	
8	0	0	0	0	509	624	
9	0	0	0	0	509	622	
10	0	0	0	0	510	624	
11	0	0	0	0	509	623	
12	0	0	0	0	509	624	
13	0	0	0	0	509	625	
14	0	0	0	0	509	624	
15	0	0	0	0	508	624	
0	0	0	0	0	508	624	
1	0	0	0	0	508	622	
2	0	0	0	0	509	624	
3	0	0	0	0	510	623	
4	0	0	0	0	510	624	
5	0	0	0	0	510	625	
6	0	0	0	0	510	623	
7	0	0	0	0	508	623	
8	0	0	0	0	508	623	
9	0	0	0	0	508	621	
10	0	0	0	0	508	623	
11	0	0	0	0	508	623	
12	0	0	0	0	508	623	
13	0	0	0	0	508	625	
14	0	0	0	0	508	623	
15	0	0	0	0	509	624	
0	0	0	0	0	509	623	
1	0	0	0	0	508	622	
2	0	0	0	0	507	623	
3	0	0	0	0	507	624	
4	0	0	0	0	507	624	
5	0	0	0	0	508	625	
6	0	0	0	0	507	623	
7	0	0	0	0	507	623	
8	0	0	0	0	507	623	
9	0	0	0	0	508	623	
10	0	0	0	0	509	624	
11	0	0	0	0	508	624	
12	0	0	0	0	508	624	
13	0	0	0	0	508	626	
14	0	0	0	0	507	624	
15	0	0	0	0	506	624	
0	0	0	0	0	506	624	
1	0	0	0	0	505	622	
2	0	0	0	0	505	624	
3	0	0	0	0	505	624	
4	0	0	0	0	506	625	
5	0	0	0	0	506	626	
6	0	0	0	0	507	624	
7	0	0	0	0	507	625	
8	0	0	0	0	507	624	
9	0	0	0	0	505	623	
10	0	0	0	0	503	624	
11	0	0	0	0	497	624	
12	0	0	0	0	491	624	
13	0	0	0	0	483	625	
14	0	0	0	0	475	624	
15	0	0	0	0	466	624	
0	0	0	0	0	457	624	
1	0	0	0	0	448	623	
2	0	0	0	0	438	624	
3	0	0	0	0	430	624	
4	0	0	0	0	421	624	
5	0	0	0	0	415	625	
6	0	0	0	0	411	624	
7	0	0	0	0	408	623	
8	0	0	0	0	408	624	
9	0	0	0	0	409	622	
10	0	0	0	0	411	624	
11	0	0	0	0	414	624	
12	0	0	0	0	418	624	
13	0	0	0	0	424	625	
14	0	0	0	0	431	623	
15	0	0	0	0	436	624	
0	0	0	0	0	442	624	
1	0	0	0	0	448	621	
2	0	0	0	0	455	624	
3	0	0	0	0	463	623	
4	0	0	0	0	476	623	
5	0	0	0	0	495	626	
6	0	0	0	0	518	624	
7	0	0	0	0	542	624	
8	0	0	0	0	570	625	
9	0	0	0	0	602	623	
10	0	0	0	0	641	625	
11	0	0	0	0	683	625	
12	0	0	0	0	728	625	
13	0	0	0	0	774	627	
14	0	0	0	0	816	625	
15	0	0	0	0	854	626	
0	0	0	0	0	886	626	
1	0	0	0	0	910	624	
2	0	0	0	0	928	625	
3	0	0	0	0	938	625	
4	0	0	0	0	943	626	
5	0	0	0	0	942	627	
6	0	0	0	0	939	626	
7	0	0	0	0	932	626	
8	0	0	0	0	921	625	
9	0	0	0	0	909	624	
10	0	0	0	0	893	626	
11	0	0	0	0	875	625	
12	0	0	0	0	853	625	
13	0	0	0	0	828	627	
14	0	0	0	0	800	625	
15	0	0	0	0	771	625	
0	0	0	0	0	744	625	
1	0	0	0	0	721	623	
2	0	0	0	0	699	624	
3	0	0	0	0	680	625	
4	0	0	0	0	661	624	
5	0	0	0	0	643	626	
6	0	0	0	0	627	624	
7	0	0	0	0	612	624	
8	0	0	0	0	600	623	
9	0	0	0	0	589	622	
10	0	0	0	0	577	623	
11	0	0	0	0	566	623	
12	0	0	0	0	554	623	
13	0	0	0	0	543	625	
14	0	0	0	0	530	623	
15	0	0	0	0	518	623	
0	0	0	0	0	507	623	
1	0	0	0	0	496	621	
2	0	0	0	0	485	623	
3	0	0	0	0	476	623	
4	0	0	0	0	467	623	
5	0	0	0	0	460	624	
6	0	0	0	0	452	623	
7	0	0	0	0	446	623	
8	0	0	0	0	440	623	
9	0	0	0	0	435	621	
10	0	0	0	0	431	623	
11	0	0	0	0	427	623	
12	0	0	0	0	423	623	
13	0	0	0	0	421	624	
14	0	0	0	0	418	623	
15	0	0	0	0	416	623	
0	0	0	0	0	414	623	
1	0	0	0	0	412	622	
2	0	0	0	0	411	624	
3	0	0	0	0	410	624	
4	0	0	0	0	408	623	
5	0	0	0	0	408	625	
6	0	0	0	0	408	624	
7	0	0	0	0	407	624	
8	0	0	0	0	407	624	
9	0	0	0	0	407	622	
10	0	0	0	0	407	623	
11	0	0	0	0	407	623	
12	0	0	0	0	406	624	
13	0	0	0	0	406	625	
14	0	0	0	0	407	624	
15	0	0	0	0	407	624	
0	0	0	0	0	407	624	
1	0	0	0	0	407	622	
2	0	0	0	0	407	624	
3	0	0	0	0	407	624	
4	0	0	0	0	408	624	
5	0	0	0	0	409	626	
6	0	0	0	0	410	624	
7	0	0	0	0	411	624	
8	0	0	0	0	411	625	
9	0	0	0	0	412	623	
10	0	0	0	0	413	624	
11	0	0	0	0	413	624	
12	0	0	0	0	413	624	
13	0	0	0	0	414	626	
14	0	0	0	0	414	625	
15	0	0	0	0	415	625	
0	0	0	0	0	416	624	
1	0	0	0	0	416	623	
2	0	0	0	0	417	625	
3	0	0	0	0	417	625	
4	0	0	0	0	418	625	
5	0	0	0	0	418	627	
6	0	0	0	0	418	625	
7	0	0	0	0	420	625	
8	0	0	0	0	421	624	
9	0	0	0	0	421	623	
10	0	0	0	0	421	625	
11	0	0	0	0	422	625	
12	0	0	0	0	422	625	
13	0	0	0	0	423	626	
14	0	0	0	0	423	624	
15	0	0	0	0	424	625	
0	0	0	0	0	425	624	
1	0	0	0	0	427	623	
2	0	0	0	0	428	624	
3	0	0	0	0	429	624	
4	0	0	0	0	430	625	
5	0	0	0	0	430	626	
6	0	0	0	0	431	624	
7	0	0	0	0	432	624	
8	0	0	0	0	433	624	
9	0	0	0	0	433	622	
10	0	0	0	0	434	624	
11	0	0	0	0	435	624	
12	0	0	0	0	435	624	
13	0	0	0	0	435	626	
14	0	0	0	0	435	624	
15	0	0	0	0	436	625	
0	0	0	0	0	436	625	
1	0	0	0	0	436	624	
2	0	0	0	0	437	625	
3	0	0	0	0	436	625	
4	0	0	0	0	436	625	
5	0	0	0	0	437	627	
6	0	0	0	0	437	625	
7	0	0	0	0	438	625	
8	0	0	0	0	439	625	
9	0	0	0	0	439	623	
10	0	0	0	0	440	625	
11	0	0	0	0	440	625	
12	0	0	0	0	440	626	
13	0	0	0	0	440	627	
14	0	0	0	0	440	625	
15	0	0	0	0	440	626	
0	0	0	0	0	441	626	
1	0	0	0	0	441	624	
2	0	0	0	0	442	625	
3	0	0	0	0	443	625	
4	0	0	0	0	443	625	
5	0	0	0	0	444	627	
6	0	0	0	0	444	625	
7	0	0	0	0	444	625	
8	0	0	0	0	445	625	
9	0	0	0	0	444	624	
10	0	0	0	0	445	625	
11	0	0	0	0	445	625	
12	0	0	0	0	446	625	
13	0	0	0	0	446	627	
14	0	0	0	0	446	625	
15	0	0	0	0	447	625	
0	0	0	0	0	448	625	
1	0	0	0	0	448	623	
2	0	0	0	0	448	625	
3	0	0	0	0	449	625	
4	0	0	0	0	449	624	
5	0	0	0	0	449	626	
6	0	0	0	0	449	624	
7	0	0	0	0	448	624	
8	0	0	0	0	448	624	
9	0	0	0	0	448	622	
10	0	0	0	0	448	624	
11	0	0	0	0	449	623	
12	0	0	0	0	449	624	
13	0	0	0	0	448	625	
14	0	0	0	0	449	624	
15	0	0	0	0	450	624	
0	0	0	0	0	450	624	
1	0	0	0	0	450	621	
2	0	0	0	0	450	624	
3	0	0	0	0	450	624	
4	0	0	0	0	450	624	
5	0	0	0	0	451	625	
6	0	0	0	0	451	623	
7	0	0	0	0	451	623	
8	0	0	0	0	452	623	
9	0	0	0	0	453	622	
10	0	0	0	0	453	623	
11	0	0	0	0	454	624	
12	0	0	0	0	454	623	
13	0	0	0	0	455	625	
14	0	0	0	0	455	624	
15	0	0	0	0	456	624	
0	0	0	0	0	456	624	
1	0	0	0	0	457	622	
2	0	0	0	0	458	624	
3	0	0	0	0	459	624	
4	0	0	0	0	460	624	
5	0	0	0	0	461	626	
6	0	0	0	0	462	624	
7	0	0	0	0	462	625	
8	0	0	0	0	462	625	
9	0	0	0	0	462	623	
10	0	0	0	0	462	624	
11	0	0	0	0	462	624	
12	0	0	0	0	462	624	
13	0	0	0	0	462	626	
14	0	0	0	0	463	624	
15	0	0	0	0	464	625	
0	0	0	0	0	465	624	
1	0	0	0	0	467	623	
2	0	0	0	0	469	625	
3	0	0	0	0	470	625	
4	0	0	0	0	471	625	
5	0	0	0	0	472	626	
6	0	0	0	0	474	624	
7	0	0	0	0	475	624	
8	0	0	0	0	476	624	
9	0	0	0	0	477	622	
10	0	0	0	0	479	623	
11	0	0	0	0	480	624	
12	0	0	0	0	480	623	
13	0	0	0	0	481	625	
14	0	0	0	0	482	623	
15	0	0	0	0	483	623	
0	0	0	0	0	483	623	
1	0	0	0	0	484	621	
2	0	0	0	0	485	623	
3	0	0	0	0	486	622	
4	0	0	0	0	486	622	
5	0	0	0	0	487	623	
6	0	0	0	0	488	622	
7	0	0	0	0	489	622	
8	0	0	0	0	490	622	
9	0	0	0	0	492	620	
10	0	0	0	0	492	622	
11	0	0	0	0	494	622	
12	0	0	0	0	495	622	
13	0	0	0	0	496	624	
14	0	0	0	0	497	622	
15	0	0	0	0	499	622	
0	0	0	0	0	500	622	
1	0	0	0	0	502	620	
2	0	0	0	0	503	622	
3	0	0	0	0	504	622	
4	0	0	0	0	505	622	
5	0	0	0	0	506	624	
6	0	0	0	0	508	622	
7	0	0	0	0	508	622	
8	0	0	0	0	510	623	
9	0	0	0	0	510	620	
10	0	0	0	0	511	622	
11	0	0	0	0	513	622	
12	0	0	0	0	513	622	
13	0	0	0	0	514	624	
14	0	0	0	0	515	623	
15	0	0	0	0	515	623	
0	0	0	0	0	515	623	
1	0	0	0	0	516	621	
2	0	0	0	0	516	623	
3	0	0	0	0	516	623	
4	0	0	0	0	516	623	
5	0	0	0	0	516	624	
6	0	0	0	0	517	623	
7	0	0	0	0	516	624	
8	0	0	0	0	516	623	
9	0	0	0	0	516	622	
10	0	0	0	0	516	624	
11	0	0	0	0	515	624	
12	0	0	0	0	515	624	
13	0	0	0	0	514	625	
14	0	0	0	0	514	624	
15	0	0	0	0	513	623	
0	0	0	0	0	514	624	
1	0	0	0	0	514	622	
2	0	0	0	0	514	624	
3	0	0	0	0	515	624	
4	0	0	0	0	515	625	
5	0	0	0	0	516	627	
6	0	0	0	0	515	625	
7	0	0	0	0	516	625	
8	0	0	0	0	517	626	
9	0	0	0	0	517	624	
10	0	0	0	0	517	626	
11	0	0	0	0	517	626	
12	0	0	0	0	516	625	
13	0	0	0	0	515	628	
14	0	0	0	0	515	626	
15	0	0	0	0	513	627	
0	0	0	0	0	512	626	
1	0	0	0	0	512	625	
2	0	0	0	0	512	627	
3	0	0	0	0	511	627	
4	0	0	0	0	511	626	
5	0	0	0	0	510	628	
6	0	0	0	0	510	626	
7	0	0	0	0	511	626	
8	0	0	0	0	510	627	
9	0	0	0	0	510	624	
10	0	0	0	0	510	626	
11	0	0	0	0	510	626	
12	0	0	0	0	510	626	
13	0	0	0	0	510	627	
14	0	0	0	0	510	625	
15	0	0	0	0	509	625	
0	0	0	0	0	507	625	
1	0	0	0	0	508	624	
2	0	0	0	0	508	625	
3	0	0	0	0	509	625	
4	0	0	0	0	509	624	
5	0	0	0	0	510	626	
6	0	0	0	0	510	625	
7	0	0	0	0	510	624	
8	0	0	0	0	511	624	
9	0	0	0	0	511	622	
10	0	0	0	0	512	624	
11	0	0	0	0	513	624	
12	0	0	0	0	512	624	
13	0	0	0	0	513	626	
14	0	0	0	0	514	623	
15	0	0	0	0	513	623	
0	0	0	0	0	513	624	
1	0	0	0	0	512	622	
2	0	0	0	0	512	624	
3	0	0	0	0	513	624	
4	0	0	0	0	513	624	
5	0	0	0	0	512	625	
6	0	0	0	0	512	624	
7	0	0	0	0	511	624	
8	0	0	0	0	511	623	
9	0	0	0	0	510	622	
10	0	0	0	0	510	624	
11	0	0	0	0	509	624	
12	0	0	0	0	510	624	
13	0	0	0	0	510	625	
14	0	0	0	0	511	624	
15	0	0	0	0	512	624	
0	0	0	0	0	512	624	
1	0	0	0	0	512	622	
2	0	0	0	0	512	624	
3	0	0	0	0	512	623	
4	0	0	0	0	512	624	
5	0	0	0	0	513	625	
6	0	0	0	0	513	624	
7	0	0	0	0	513	624	
8	0	0	0	0	513	624	
9	0	0	0	0	513	622	
10	0	0	0	0	511	623	
11	0	0	0	0	511	623	
12	0	0	0	0	510	623	
13	0	0	0	0	511	625	
14	0	0	0	0	511	624	
15	0	0	0	0	510	623	
0	0	0	0	0	510	623	
1	0	0	0	0	509	621	
2	0	0	0	0	508	622	
3	0	0	0	0	508	623	
4	0	0	0	0	507	623	
5	0	0	0	0	508	624	
6	0	0	0	0	508	623	
7	0	0	0	0	508	623	
8	0	0	0	0	508	623	
9	0	0	0	0	508	621	
10	0	0	0	0	508	623	
11	0	0	0	0	507	623	
12	0	0	0	0	507	623	
13	0	0	0	0	507	624	
14	0	0	0	0	507	623	
15	0	0	0	0	508	623	
0	0	0	0	0	507	623	
1	0	0	0	0	508	621	
2	0	0	0	0	508	623	
3	0	0	0	0	508	624	
4	0	0	0	0	507	624	
5	0	0	0	0	507	626	
6	0	0	0	0	506	624	
7	0	0	0	0	505	624	
8	0	0	0	0	505	624	
9	0	0	0	0	505	623	
10	0	0	0	0	505	625	
11	0	0	0	0	505	625	
12	0	0	0	0	505	625	
13	0	0	0	0	505	627	
14	0	0	0	0	505	626	
15	0	0	0	0	506	625	
0	0	0	0	0	505	626	
1	0	0	0	0	505	624	
2	0	0	0	0	505	626	
3	0	0	0	0	504	626	
4	0	0	0	0	505	625	
5	0	0	0	0	505	627	
6	0	0	0	0	505	626	
7	0	0	0	0	504	625	
8	0	0	0	0	504	626	
9	0	0	0	0	504	624	
10	0	0	0	0	503	625	
11	0	0	0	0	502	625	
12	0	0	0	0	502	625	
13	0	0	0	0	501	627	
14	0	0	0	0	501	625	
15	0	0	0	0	502	625	
0	0	0	0	0	502	625	
1	0	0	0	0	500	623	
2	0	0	0	0	500	625	
3	0	0	0	0	500	625	
4	0	0	0	0	498	625	
5	0	0	0	0	498	627	
6	0	0	0	0	498	625	
7	0	0	0	0	498	624	
8	0	0	0	0	499	624	
9	0	0	0	0	500	622	
10	0	0	0	0	501	624	
11	0	0	0	0	502	624	
12	0	0	0	0	503	624	
13	0	0	0	0	504	626	
14	0	0	0	0	504	624	
15	0	0	0	0	505	624	
0	0	0	0	0	505	623	
1	0	0	0	0	505	621	
2	0	0	0	0	505	623	
3	0	0	0	0	505	623	
4	0	0	0	0	504	623	
5	0	0	0	0	505	624	
6	0	0	0	0	505	623	
7	0	0	0	0	504	623	
8	0	0	0	0	504	623	
9	0	0	0	0	505	621	
10	0	0	0	0	504	622	
11	0	0	0	0	503	622	
12	0	0	0	0	503	622	
13	0	0	0	0	503	624	
14	0	0	0	0	504	622	
15	0	0	0	0	504	622	
0	0	0	0	0	504	622	
1	0	0	0	0	504	621	
2	0	0	0	0	504	622	
3	0	0	0	0	504	622	
4	0	0	0	0	504	623	
5	0	0	0	0	504	624	
6	0	0	0	0	504	622	
7	0	0	0	0	504	623	
8	0	0	0	0	504	623	
9	0	0	0	0	504	621	
10	0	0	0	0	504	623	
11	0	0	0	0	504	623	
12	0	0	0	0	505	624	
13	0	0	0	0	505	625	
14	0	0	0	0	505	623	
15	0	0	0	0	506	624	
0	0	0	0	0	506	624	
1	0	0	0	0	506	622	
2	0	0	0	0	507	624	
3	0	0	0	0	506	624	
4	0	0	0	0	507	624	
5	0	0	0	0	507	625	
6	0	0	0	0	507	624	
7	0	0	0	0	507	624	
8	0	0	0	0	507	624	
9	0	0	0	0	508	622	
10	0	0	0	0	508	624	
11	0	0	0	0	508	624	
12	0	0	0	0	508	624	
13	0	0	0	0	508	626	
14	0	0	0	0	508	624	
15	0	0	0	0	508	623	
0	0	0	0	0	508	624	
1	0	0	0	0	509	622	
2	0	0	0	0	509	623	
3	0	0	0	0	509	623	
4	0	0	0	0	508	624	
5	0	0	0	0	508	625	
6	0	0	0	0	509	623	
7	0	0	0	0	509	623	
8	0	0	0	0	510	623	
9	0	0	0	0	510	622	
10	0	0	0	0	510	624	
11	0	0	0	0	511	624	
12	0	0	0	0	510	624	
13	0	0	0	0	510	625	
14	0	0	0	0	509	624	
15	0	0	0	0	509	624	
0	0	0	0	0	509	624	
1	0	0	0	0	508	622	
2	0	0	0	0	508	624	
3	0	0	0	0	509	623	
4	0	0	0	0	509	623	
5	0	0	0	0	509	626	
6	0	0	0	0	510	624	
7	0	0	0	0	510	624	
8	0	0	0	0	511	623	
9	0	0	0	0	511	622	
10	0	0	0	0	511	624	
11	0	0	0	0	511	624	
12	0	0	0	0	511	623	
13	0	0	0	0	510	625	
14	0	0	0	0	509	623	
15	0	0	0	0	509	624	
0	0	0	0	0	508	624	
1	0	0	0	0	507	622	
2	0	0	0	0	507	624	
3	0	0	0	0	507	624	
4	0	0	0	0	507	624	
5	0	0	0	0	507	626	
6	0	0	0	0	508	624	
7	0	0	0	0	508	624	
8	0	0	0	0	507	625	
9	0	0	0	0	507	623	
10	0	0	0	0	506	624	
11	0	0	0	0	507	624	
12	0	0	0	0	507	624	
13	0	0	0	0	507	626	
14	0	0	0	0	507	624	
15	0	0	0	0	508	624	
0	0	0	0	0	509	624	
1	0	0	0	0	509	622	
2	0	0	0	0	508	624	
3	0	0	0	0	509	625	
4	0	0	0	0	509	624	
5	0	0	0	0	509	625	
6	0	0	0	0	510	624	
7	0	0	0	0	510	624	
8	0	0	0	0	510	624	
9	0	0	0	0	510	621	
10	0	0	0	0	510	624	
11	0	0	0	0	511	623	
12	0	0	0	0	510	623	
13	0	0	0	0	511	625	
14	0	0	0	0	511	624	
15	0	0	0	0	511	624	
0	0	0	0	0	511	623	
1	0	0	0	0	511	621	
2	0	0	0	0	511	624	
3	0	0	0	0	511	623	
4	0	0	0	0	511	623	
5	0	0	0	0	511	625	
6	0	0	0	0	511	624	
7	0	0	0	0	511	624	
8	0	0	0	0	511	624	
9	0	0	0	0	511	623	
10	0	0	0	0	512	625	
11	0	0	0	0	511	625	
12	0	0	0	0	512	624	
13	0	0	0	0	511	627	
14	0	0	0	0	510	625	
15	0	0	0	0	509	625	
0	0	0	0	0	508	625	
1	0	0	0	0	508	624	
2	0	0	0	0	507	626	
3	0	0	0	0	507	626	
4	0	0	0	0	506	626	
5	0	0	0	0	505	628	
6	0	0	0	0	505	627	
7	0	0	0	0	504	626	
8	0	0	0	0	505	626	
9	0	0	0	0	505	624	
10	0	0	0	0	505	625	
11	0	0	0	0	505	626	
12	0	0	0	0	505	626	
13	0	0	0	0	506	627	
14	0	0	0	0	505	626	
15	0	0	0	0	505	626	
0	0	0	0	0	506	626	
1	0	0	0	0	506	624	
2	0	0	0	0	507	626	
3	0	0	0	0	508	626	
4	0	0	0	0	507	626	
5	0	0	0	0	508	629	
6	0	0	0	0	508	627	
7	0	0	0	0	508	627	
8	0	0	0	0	508	626	
9	0	0	0	0	508	625	
10	0	0	0	0	509	627	
11	0	0	0	0	508	626	
12	0	0	0	0	508	627	
13	0	0	0	0	508	628	
14	0	0	0	0	509	626	
15	0	0	0	0	508	627	
0	0	0	0	0	508	626	
1	0	0	0	0	508	624	
2	0	0	0	0	507	626	
3	0	0	0	0	507	625	
4	0	0	0	0	506	625	
5	0	0	0	0	506	627	
6	0	0	0	0	506	625	
7	0	0	0	0	505	625	
8	0	0	0	0	505	624	
9	0	0	0	0	505	622	
10	0	0	0	0	504	624	
11	0	0	0	0	504	624	
12	0	0	0	0	505	624	
13	0	0	0	0	506	625	
14	0	0	0	0	506	624	
15	0	0	0	0	506	624	
0	0	0	0	0	506	623	
1	0	0	0	0	506	621	
2	0	0	0	0	505	623	
3	0	0	0	0	505	623	
4	0	0	0	0	505	623	
5	0	0	0	0	505	624	
6	0	0	0	0	505	622	
7	0	0	0	0	505	623	
8	0	0	0	0	505	623	
9	0	0	0	0	507	622	
10	0	0	0	0	508	623	
11	0	0	0	0	508	623	
12	0	0	0	0	509	623	
13	0	0	0	0	508	625	
14	0	0	0	0	508	623	
15	0	0	0	0	507	623	
0	0	0	0	0	508	623	
1	0	0	0	0	507	621	
2	0	0	0	0	507	623	
3	0	0	0	0	507	623	
4	0	0	0	0	506	624	
5	0	0	0	0	507	624	
6	0	0	0	0	507	623	
7	0	0	0	0	507	623	
8	0	0	0	0	506	623	
9	0	0	0	0	506	621	
10	0	0	0	0	506	623	
11	0	0	0	0	506	623	
12	0	0	0	0	507	623	
13	0	0	0	0	508	624	
14	0	0	0	0	508	623	
15	0	0	0	0	509	623	
0	0	0	0	0	510	623	
1	0	0	0	0	509	621	
2	0	0	0	0	509	623	
3	0	0	0	0	510	623	
4	0	0	0	0	509	622	
5	0	0	0	0	510	624	
6	0	0	0	0	509	623	
7	0	0	0	0	508	623	
8	0	0	0	0	509	623	
9	0	0	0	0	509	621	
10	0	0	0	0	510	623	
11	0	0	0	0	509	623	
12	0	0	0	0	510	623	
13	0	0	0	0	510	624	
14	0	0	0	0	510	623	
15	0	0	0	0	510	622	
0	0	0	0	0	510	622	
1	0	0	0	0	510	621	
2	0	0	0	0	509	623	
3	0	0	0	0	509	623	
4	0	0	0	0	508	623	
5	0	0	0	0	508	625	
6	0	0	0	0	507	624	
7	0	0	0	0	506	623	
8	0	0	0	0	505	624	
9	0	0	0	0	505	622	
10	0	0	0	0	506	624	
11	0	0	0	0	506	624	
12	0	0	0	0	507	623	
13	0	0	0	0	508	625	
14	0	0	0	0	509	623	
15	0	0	0	0	510	624	
0	0	0	0	0	510	623	
1	0	0	0	0	510	622	
2	0	0	0	0	510	624	
3	0	0	0	0	511	623	
4	0	0	0	0	510	623	
5	0	0	0	0	510	626	
6	0	0	0	0	509	624	
7	0	0	0	0	510	624	
8	0	0	0	0	511	624	
9	0	0	0	0	511	622	
10	0	0	0	0	511	624	
11	0	0	0	0	512	624	
12	0	0	0	0	512	624	
13	0	0	0	0	512	626	
14	0	0	0	0	512	624	
15	0	0	0	0	511	625	
0	0	0	0	0	511	625	
1	0	0	0	0	511	624	
2	0	0	0	0	511	625	
3	0	0	0	0	511	626	
4	0	0	0	0	511	627	
5	0	0	0	0	510	628	
6	0	0	0	0	509	627	
7	0	0	0	0	509	627	
8	0	0	0	0	510	627	
9	0	0	0	0	511	625	
10	0	0	0	0	511	627	
11	0	0	0	0	512	627	
12	0	0	0	0	512	626	
13	0	0	0	0	511	628	
14	0	0	0	0	511	626	
15	0	0	0	0	511	627	
0	0	0	0	0	511	626	
1	0	0	0	0	511	624	
2	0	0	0	0	511	626	
3	0	0	0	0	511	625	
4	0	0	0	0	511	625	
5	0	0	0	0	512	627	
6	0	0	0	0	512	625	
7	0	0	0	0	511	625	
8	0	0	0	0	511	625	
9	0	0	0	0	511	623	
10	0	0	0	0	511	625	
11	0	0	0	0	511	625	
12	0	0	0	0	511	625	
13	0	0	0	0	511	625	
14	0	0	0	0	512	624	
15	0	0	0	0	512	624	
0	0	0	0	0	511	624	
1	0	0	0	0	511	623	
2	0	0	0	0	510	624	
3	0	0	0	0	510	624	
4	0	0	0	0	510	624	
5	0	0	0	0	510	626	
6	0	0	0	0	510	624	
7	0	0	0	0	510	624	
8	0	0	0	0	510	624	
9	0	0	0	0	510	623	
10	0	0	0	0	511	624	
11	0	0	0	0	511	624	
12	0	0	0	0	511	624	
13	0	0	0	0	511	625	
14	0	0	0	0	511	624	
15	0	0	0	0	511	624	
0	0	0	0	0	510	624	
1	0	0	0	0	510	622	
2	0	0	0	0	510	624	
3	0	0	0	0	510	624	
4	0	0	0	0	510	624	
5	0	0	0	0	511	626	
6	0	0	0	0	511	624	
7	0	0	0	0	510	623	
8	0	0	0	0	510	624	
9	0	0	0	0	509	622	
10	0	0	0	0	509	624	
11	0	0	0	0	509	624	
12	0	0	0	0	508	623	
13	0	0	0	0	509	625	
14	0	0	0	0	508	623	
15	0	0	0	0	508	623	
0	0	0	0	0	507	624	
1	0	0	0	0	508	622	
2	0	0	0	0	508	623	
3	0	0	0	0	508	623	
4	0	0	0	0	508	624	
5	0	0	0	0	509	625	
6	0	0	0	0	510	624	
7	0	0	0	0	510	623	
8	0	0	0	0	510	624	
9	0	0	0	0	510	622	
10	0	0	0	0	510	623	
11	0	0	0	0	510	623	
12	0	0	0	0	509	623	
13	0	0	0	0	508	625	
14	0	0	0	0	509	624	
15	0	0	0	0	510	623	
0	0	0	0	0	512	623	
1	0	0	0	0	513	622	
2	0	0	0	0	515	623	
3	0	0	0	0	517	624	
4	0	0	0	0	518	624	
5	0	0	0	0	519	625	
6	0	0	0	0	519	623	
7	0	0	0	0	519	623	
8	0	0	0	0	519	624	
9	0	0	0	0	519	622	
10	0	0	0	0	519	623	
11	0	0	0	0	519	623	
12	0	0	0	0	518	623	
13	0	0	0	0	518	625	
14	0	0	0	0	518	623	
15	0	0	0	0	519	623	
0	0	0	0	0	519	623	
1	0	0	0	0	519	622	
2	0	0	0	0	519	623	
3	0	0	0	0	519	623	
4	0	0	0	0	520	624	
5	0	0	0	0	520	625	
6	0	0	0	0	520	624	
7	0	0	0	0	519	624	
8	0	0	0	0	519	624	
9	0	0	0	0	519	622	
10	0	0	0	0	518	624	
11	0	0	0	0	519	624	
12	0	0	0	0	519	624	
13	0	0	0	0	519	625	
14	0	0	0	0	519	624	
15	0	0	0	0	519	623	
0	0	0	0	0	519	623	
1	0	0	0	0	519	622	
2	0	0	0	0	519	623	
3	0	0	0	0	520	624	
4	0	0	0	0	519	623	
5	0	0	0	0	519	625	
6	0	0	0	0	519	624	
7	0	0	0	0	519	624	
8	0	0	0	0	519	624	
9	0	0	0	0	519	622	
10	0	0	0	0	519	624	
11	0	0	0	0	519	624	
12	0	0	0	0	519	623	
13	0	0	0	0	519	625	
14	0	0	0	0	519	623	
15	0	0	0	0	518	624	
0	0	0	0	0	519	624	
1	0	0	0	0	519	622	
2	0	0	0	0	520	624	
3	0	0	0	0	519	624	
4	0	0	0	0	519	624	
5	0	0	0	0	519	625	
6	0	0	0	0	518	624	
7	0	0	0	0	518	625	
8	0	0	0	0	518	624	
9	0	0	0	0	518	623	
10	0	0	0	0	519	624	
11	0	0	0	0	518	624	
12	0	0	0	0	517	624	
13	0	0	0	0	518	626	
14	0	0	0	0	518	624	
15	0	0	0	0	518	625	
0	0	0	0	0	518	625	
1	0	0	0	0	518	623	
2	0	0	0	0	518	624	
3	0	0	0	0	518	624	
4	0	0	0	0	518	624	
5	0	0	0	0	519	626	
6	0	0	0	0	519	624	
7	0	0	0	0	519	624	
8	0	0	0	0	519	624	
9	0	0	0	0	519	623	
10	0	0	0	0	519	624	
11	0	0	0	0	519	624	
12	0	0	0	0	519	625	
13	0	0	0	0	518	627	
14	0	0	0	0	518	625	
15	0	0	0	0	518	624	
0	0	0	0	0	518	624	
1	0	0	0	0	519	623	
2	0	0	0	0	518	624	
3	0	0	0	0	518	624	
4	0	0	0	0	519	624	
5	0	0	0	0	518	626	
6	0	0	0	0	518	624	
7	0	0	0	0	518	624	
8	0	0	0	0	518	624	
9	0	0	0	0	518	623	
10	0	0	0	0	518	625	
11	0	0	0	0	516	625	
12	0	0	0	0	515	624	
13	0	0	0	0	513	627	
14	0	0	0	0	510	625	
15	0	0	0	0	507	625	
0	0	0	0	0	502	624	
1	0	0	0	0	496	622	
2	0	0	0	0	488	625	
3	0	0	0	0	479	624	
4	0	0	0	0	469	624	
5	0	0	0	0	459	626	
6	0	0	0	0	450	624	
7	0	0	0	0	442	624	
8	0	0	0	0	434	624	
9	0	0	0	0	427	622	
10	0	0	0	0	423	624	
11	0	0	0	0	420	623	
12	0	0	0	0	420	624	
13	0	0	0	0	421	625	
14	0	0	0	0	423	624	
15	0	0	0	0	428	624	
0	0	0	0	0	433	624	
1	0	0	0	0	440	622	
2	0	0	0	0	446	624	
3	0	0	0	0	452	624	
4	0	0	0	0	459	624	
5	0	0	0	0	465	625	
6	0	0	0	0	472	624	
7	0	0	0	0	481	624	
8	0	0	0	0	493	624	
9	0	0	0	0	511	622	
10	0	0	0	0	531	624	
11	0	0	0	0	556	624	
12	0	0	0	0	582	624	
13	0	0	0	0	612	626	
14	0	0	0	0	649	625	
15	0	0	0	0	688	624	
0	0	0	0	0	732	625	
1	0	0	0	0	776	623	
2	0	0	0	0	817	624	
3	0	0	0	0	853	624	
4	0	0	0	0	884	624	
5	0	0	0	0	908	626	
6	0	0	0	0	925	624	
7	0	0	0	0	935	624	
8	0	0	0	0	938	624	
9	0	0	0	0	937	623	
10	0	0	0	0	933	624	
11	0	0	0	0	927	624	
12	0	0	0	0	916	624	
13	0	0	0	0	904	626	
14	0	0	0	0	889	624	
15	0	0	0	0	873	624	
0	0	0	0	0	852	624	
1	0	0	0	0	827	623	
2	0	0	0	0	799	624	
3	0	0	0	0	771	625	
4	0	0	0	0	745	624	
5	0	0	0	0	721	627	
6	0	0	0	0	700	624	
7	0	0	0	0	682	625	
8	0	0	0	0	664	625	
9	0	0	0	0	647	624	
10	0	0	0	0	631	625	
11	0	0	0	0	618	625	
12	0	0	0	0	606	625	
13	0	0	0	0	596	626	
14	0	0	0	0	585	624	
15	0	0	0	0	573	625	
0	0	0	0	0	563	625	
1	0	0	0	0	554	624	
2	0	0	0	0	543	625	
3	0	0	0	0	532	625	
4	0	0	0	0	521	625	
5	0	0	0	0	512	627	
6	0	0	0	0	504	625	
7	0	0	0	0	495	625	
8	0	0	0	0	487	625	
9	0	0	0	0	480	623	
10	0	0	0	0	473	625	
11	0	0	0	0	467	625	
12	0	0	0	0	462	624	
13	0	0	0	0	456	626	
14	0	0	0	0	451	625	
15	0	0	0	0	447	625	
0	0	0	0	0	443	624	
1	0	0	0	0	440	622	
2	0	0	0	0	437	623	
3	0	0	0	0	435	623	
4	0	0	0	0	432	624	
5	0	0	0	0	431	625	
6	0	0	0	0	430	624	
7	0	0	0	0	428	624	
8	0	0	0	0	428	623	
9	0	0	0	0	428	622	
10	0	0	0	0	428	623	
11	0	0	0	0	427	623	
12	0	0	0	0	426	623	
13	0	0	0	0	425	625	
14	0	0	0	0	425	623	
15	0	0	0	0	424	623	
0	0	0	0	0	424	622	
1	0	0	0	0	424	621	
2	0	0	0	0	424	622	
3	0	0	0	0	424	623	
4	0	0	0	0	424	623	
5	0	0	0	0	424	624	
6	0	0	0	0	424	622	
7	0	0	0	0	425	623	
8	0	0	0	0	427	623	
9	0	0	0	0	428	621	
10	0	0	0	0	428	623	
11	0	0	0	0	429	623	
12	0	0	0	0	429	623	
13	0	0	0	0	430	625	
14	0	0	0	0	430	624	
15	0	0	0	0	430	623	
0	0	0	0	0	431	624	
1	0	0	0	0	430	622	
2	0	0	0	0	431	624	
3	0	0	0	0	431	623	
4	0	0	0	0	432	623	
5	0	0	0	0	433	625	
6	0	0	0	0	433	624	
7	0	0	0	0	433	624	
8	0	0	0	0	434	624	
9	0	0	0	0	435	622	
10	0	0	0	0	437	624	
11	0	0	0	0	437	624	
12	0	0	0	0	437	624	
13	0	0	0	0	438	625	
14	0	0	0	0	439	624	
15	0	0	0	0	440	625	
0	0	0	0	0	440	624	
1	0	0	0	0	441	623	
2	0	0	0	0	442	624	
3	0	0	0	0	442	624	
4	0	0	0	0	443	624	
5	0	0	0	0	444	625	
6	0	0	0	0	444	624	
7	0	0	0	0	444	624	
8	0	0	0	0	445	624	
9	0	0	0	0	445	621	
10	0	0	0	0	446	624	
11	0	0	0	0	447	623	
12	0	0	0	0	448	623	
13	0	0	0	0	448	624	
14	0	0	0	0	449	623	
15	0	0	0	0	450	623	
0	0	0	0	0	451	623	
1	0	0	0	0	451	620	
2	0	0	0	0	451	623	
3	0	0	0	0	451	623	
4	0	0	0	0	451	623	
5	0	0	0	0	451	625	
6	0	0	0	0	451	623	
7	0	0	0	0	451	623	
8	0	0	0	0	451	624	
9	0	0	0	0	450	622	
10	0	0	0	0	450	624	
11	0	0	0	0	451	624	
12	0	0	0	0	453	623	
13	0	0	0	0	454	625	
14	0	0	0	0	455	624	
15	0	0	0	0	456	624	
0	0	0	0	0	457	624	
1	0	0	0	0	459	622	
2	0	0	0	0	460	624	
3	0	0	0	0	459	624	
4	0	0	0	0	459	624	
5	0	0	0	0	460	626	
6	0	0	0	0	460	624	
7	0	0	0	0	460	625	
8	0	0	0	0	460	624	
9	0	0	0	0	460	623	
10	0	0	0	0	460	625	
11	0	0	0	0	460	625	
12	0	0	0	0	461	625	
13	0	0	0	0	460	627	
14	0	0	0	0	459	625	
15	0	0	0	0	457	625	
0	0	0	0	0	456	625	
1	0	0	0	0	456	623	
2	0	0	0	0	455	625	
3	0	0	0	0	456	625	
4	0	0	0	0	456	625	
5	0	0	0	0	455	626	
6	0	0	0	0	456	625	
7	0	0	0	0	456	624	
8	0	0	0	0	457	625	
9	0	0	0	0	458	623	
10	0	0	0	0	459	624	
11	0	0	0	0	459	625	
12	0	0	0	0	460	624	
13	0	0	0	0	460	625	
14	0	0	0	0	459	624	
15	0	0	0	0	458	624	
0	0	0	0	0	457	624	
1	0	0	0	0	457	622	
2	0	0	0	0	457	624	
3	0	0	0	0	458	624	
4	0	0	0	0	457	623	
5	0	0	0	0	457	625	
6	0	0	0	0	458	624	
7	0	0	0	0	458	624	
8	0	0	0	0	458	624	
9	0	0	0	0	459	622	
10	0	0	0	0	460	624	
11	0	0	0	0	460	624	
12	0	0	0	0	460	624	
13	0	0	0	0	460	626	
14	0	0	0	0	460	624	
15	0	0	0	0	462	625	
0	0	0	0	0	462	624	
1	0	0	0	0	463	623	
2	0	0	0	0	463	625	
3	0	0	0	0	464	625	
4	0	0	0	0	464	624	
5	0	0	0	0	464	626	
6	0	0	0	0	465	624	
7	0	0	0	0	466	624	
8	0	0	0	0	466	624	
9	0	0	0	0	468	623	
10	0	0	0	0	468	624	
11	0	0	0	0	470	624	
12	0	0	0	0	472	624	
13	0	0	0	0	473	625	
14	0	0	0	0	474	624	
15	0	0	0	0	475	623	
0	0	0	0	0	476	623	
1	0	0	0	0	476	622	
2	0	0	0	0	476	623	
3	0	0	0	0	476	624	
4	0	0	0	0	477	624	
5	0	0	0	0	479	626	
6	0	0	0	0	480	624	
7	0	0	0	0	481	624	
8	0	0	0	0	482	624	
9	0	0	0	0	483	623	
10	0	0	0	0	484	624	
11	0	0	0	0	485	624	
12	0	0	0	0	486	623	
13	0	0	0	0	487	625	
14	0	0	0	0	487	624	
15	0	0	0	0	488	623	
0	0	0	0	0	489	624	
1	0	0	0	0	491	622	
2	0	0	0	0	493	624	
3	0	0	0	0	494	624	
4	0	0	0	0	496	624	
5	0	0	0	0	497	625	
6	0	0	0	0	498	624	
7	0	0	0	0	500	624	
8	0	0	0	0	501	623	
9	0	0	0	0	502	622	
10	0	0	0	0	504	624	
11	0	0	0	0	505	624	
12	0	0	0	0	507	624	
13	0	0	0	0	507	626	
14	0	0	0	0	508	624	
15	0	0	0	0	508	624	
0	0	0	0	0	508	624	
1	0	0	0	0	509	622	
2	0	0	0	0	511	624	
3	0	0	0	0	512	623	
4	0	0	0	0	515	623	
5	0	0	0	0	516	625	
6	0	0	0	0	517	624	
7	0	0	0	0	519	623	
8	0	0	0	0	519	624	
9	0	0	0	0	520	622	
10	0	0	0	0	521	623	
11	0	0	0	0	523	623	
12	0	0	0	0	524	623	
13	0	0	0	0	526	625	
14	0	0	0	0	526	623	
15	0	0	0	0	526	623	
0	0	0	0	0	527	623	
1	0	0	0	0	527	622	
2	0	0	0	0	527	624	
3	0	0	0	0	527	624	
4	0	0	0	0	527	624	
5	0	0	0	0	527	626	
6	0	0	0	0	528	624	
7	0	0	0	0	529	624	
8	0	0	0	0	529	624	
9	0	0	0	0	529	622	
10	0	0	0	0	529	625	
11	0	0	0	0	528	624	
12	0	0	0	0	529	625	
13	0	0	0	0	529	627	
14	0	0	0	0	529	625	
15	0	0	0	0	529	626	
0	0	0	0	0	529	626	
1	0	0	0	0	531	624	
2	0	0	0	0	531	626	
3	0	0	0	0	530	626	
4	0	0	0	0	529	626	
5	0	0	0	0	528	628	
6	0	0	0	0	527	627	
7	0	0	0	0	527	626	
8	0	0	0	0	527	627	
9	0	0	0	0	527	625	
10	0	0	0	0	527	627	
11	0	0	0	0	528	627	
12	0	0	0	0	527	626	
13	0	0	0	0	526	628	
14	0	0	0	0	526	626	
15	0	0	0	0	526	625	
0	0	0	0	0	527	625	
1	0	0	0	0	527	624	
2	0	0	0	0	527	624	
3	0	0	0	0	527	625	
4	0	0	0	0	526	625	
5	0	0	0	0	526	626	
6	0	0	0	0	526	624	
7	0	0	0	0	527	624	
8	0	0	0	0	527	624	
9	0	0	0	0	527	622	
10	0	0	0	0	528	624	
11	0	0	0	0	528	624	
12	0	0	0	0	527	623	
13	0	0	0	0	527	625	
14	0	0	0	0	526	624	
15	0	0	0	0	526	624	
0	0	0	0	0	527	624	
1	0	0	0	0	528	621	
2	0	0	0	0	528	623	
3	0	0	0	0	529	624	
4	0	0	0	0	529	624	
5	0	0	0	0	530	625	
6	0	0	0	0	531	624	
7	0	0	0	0	531	624	
8	0	0	0	0	532	624	
9	0	0	0	0	532	622	
10	0	0	0	0	532	624	
11	0	0	0	0	531	623	
12	0	0	0	0	531	624	
13	0	0	0	0	531	627	
14	0	0	0	0	530	625	
15	0	0	0	0	530	624	
0	0	0	0	0	530	624	
1	0	0	0	0	530	623	
2	0	0	0	0	531	624	
3	0	0	0	0	533	625	
4	0	0	0	0	534	624	
5	0	0	0	0	535	626	
6	0	0	0	0	535	624	
7	0	0	0	0	535	624	
8	0	0	0	0	535	624	
9	0	0	0	0	535	622	
10	0	0	0	0	535	624	
11	0	0	0	0	536	624	
12	0	0	0	0	535	624	
13	0	0	0	0	535	626	
14	0	0	0	0	535	624	
15	0	0	0	0	535	624	
0	0	0	0	0	535	624	
1	0	0	0	0	535	622	
2	0	0	0	0	535	624	
3	0	0	0	0	535	624	
4	0	0	0	0	535	624	
5	0	0	0	0	535	626	
6	0	0	0	0	535	624	
7	0	0	0	0	534	624	
8	0	0	0	0	532	624	
9	0	0	0	0	532	621	
10	0	0	0	0	531	623	
11	0	0	0	0	531	623	
12	0	0	0	0	531	623	
13	0	0	0	0	530	625	
14	0	0	0	0	529	622	
15	0	0	0	0	530	623	
0	0	0	0	0	530	622	
1	0	0	0	0	529	620	
2	0	0	0	0	529	622	
3	0	0	0	0	529	622	
4	0	0	0	0	529	622	
5	0	0	0	0	528	623	
6	0	0	0	0	527	622	
7	0	0	0	0	526	621	
8	0	0	0	0	526	622	
9	0	0	0	0	527	620	
10	0	0	0	0	527	622	
11	0	0	0	0	527	621	
12	0	0	0	0	528	621	
13	0	0	0	0	528	624	
14	0	0	0	0	528	622	
15	0	0	0	0	528	622	
0	0	0	0	0	527	622	
1	0	0	0	0	527	620	
2	0	0	0	0	525	621	
3	0	0	0	0	525	622	
4	0	0	0	0	525	622	
5	0	0	0	0	525	624	
6	0	0	0	0	524	622	
7	0	0	0	0	524	622	
8	0	0	0	0	523	622	
9	0	0	0	0	523	621	
10	0	0	0	0	524	623	
11	0	0	0	0	524	623	
12	0	0	0	0	523	622	
13	0	0	0	0	524	624	
14	0	0	0	0	523	623	
15	0	0	0	0	523	623	
0	0	0	0	0	523	623	
1	0	0	0	0	523	621	
2	0	0	0	0	524	623	
3	0	0	0	0	524	623	
4	0	0	0	0	524	623	
5	0	0	0	0	524	624	
6	0	0	0	0	524	623	
7	0	0	0	0	524	623	
8	0	0	0	0	525	623	
9	0	0	0	0	526	621	
10	0	0	0	0	525	623	
11	0	0	0	0	525	623	
12	0	0	0	0	525	622	
13	0	0	0	0	525	624	
14	0	0	0	0	525	622	
15	0	0	0	0	526	623	
0	0	0	0	0	526	623	
1	0	0	0	0	527	621	
2	0	0	0	0	527	623	
3	0	0	0	0	527	623	
4	0	0	0	0	526	623	
5	0	0	0	0	526	625	
6	0	0	0	0	526	623	
7	0	0	0	0	525	622	
8	0	0	0	0	526	623	
9	0	0	0	0	526	621	
10	0	0	0	0	526	624	
11	0	0	0	0	527	624	
12	0	0	0	0	527	623	
13	0	0	0	0	527	625	
14	0	0	0	0	527	624	
15	0	0	0	0	527	623	
0	0	0	0	0	527	624	
1	0	0	0	0	528	622	
2	0	0	0	0	529	624	
3	0	0	0	0	530	624	
4	0	0	0	0	529	624	
5	0	0	0	0	529	626	
6	0	0	0	0	529	625	
7	0	0	0	0	528	625	
8	0	0	0	0	528	625	
9	0	0	0	0	528	623	
10	0	0	0	0	527	625	
11	0	0	0	0	528	625	
12	0	0	0	0	529	625	
13	0	0	0	0	528	628	
14	0	0	0	0	528	625	
15	0	0	0	0	529	626	
0	0	0	0	0	529	626	
1	0	0	0	0	529	623	
2	0	0	0	0	530	625	
3	0	0	0	0	530	625	
4	0	0	0	0	530	625	
5	0	0	0	0	529	627	
6	0	0	0	0	529	625	
7	0	0	0	0	531	625	
8	0	0	0	0	531	624	
9	0	0	0	0	532	623	
10	0	0	0	0	533	624	
11	0	0	0	0	534	624	
12	0	0	0	0	535	624	
13	0	0	0	0	535	626	
14	0	0	0	0	535	624	
15	0	0	0	0	535	624	
0	0	0	0	0	535	624	
1	0	0	0	0	535	623	
2	0	0	0	0	535	624	
3	0	0	0	0	536	625	
4	0	0	0	0	536	623	
5	0	0	0	0	536	625	
6	0	0	0	0	536	623	
7	0	0	0	0	536	623	
8	0	0	0	0	536	623	
9	0	0	0	0	536	621	
10	0	0	0	0	536	623	
11	0	0	0	0	536	623	
12	0	0	0	0	536	623	
13	0	0	0	0	537	624	
14	0	0	0	0	536	623	
15	0	0	0	0	537	623	
0	0	0	0	0	537	623	
1	0	0	0	0	537	620	
2	0	0	0	0	537	623	
3	0	0	0	0	536	623	
4	0	0	0	0	537	622	
5	0	0	0	0	536	625	
6	0	0	0	0	536	623	
7	0	0	0	0	536	623	
8	0	0	0	0	535	623	
9	0	0	0	0	536	622	
10	0	0	0	0	535	623	
11	0	0	0	0	535	623	
12	0	0	0	0	535	623	
13	0	0	0	0	535	625	
14	0	0	0	0	535	624	
15	0	0	0	0	534	624	
0	0	0	0	0	534	624	
1	0	0	0	0	534	622	
2	0	0	0	0	535	624	
3	0	0	0	0	535	624	
4	0	0	0	0	535	624	
5	0	0	0	0	535	625	
6	0	0	0	0	535	624	
7	0	0	0	0	534	624	
8	0	0	0	0	534	625	
9	0	0	0	0	535	623	
10	0	0	0	0	535	625	
11	0	0	0	0	534	625	
12	0	0	0	0	534	625	
13	0	0	0	0	534	626	
14	0	0	0	0	533	625	
15	0	0	0	0	532	625	
0	0	0	0	0	531	625	
1	0	0	0	0	531	623	
2	0	0	0	0	530	625	
3	0	0	0	0	531	625	
4	0	0	0	0	530	625	
5	0	0	0	0	531	627	
6	0	0	0	0	530	625	
7	0	0	0	0	530	625	
8	0	0	0	0	530	626	
9	0	0	0	0	529	623	
10	0	0	0	0	530	626	
11	0	0	0	0	530	625	
12	0	0	0	0	530	626	
13	0	0	0	0	531	627	
14	0	0	0	0	532	625	
15	0	0	0	0	532	626	
0	0	0	0	0	532	626	
1	0	0	0	0	532	625	
2	0	0	0	0	531	627	
3	0	0	0	0	530	627	
4	0	0	0	0	529	627	
5	0	0	0	0	529	628	
6	0	0	0	0	528	627	
7	0	0	0	0	528	627	
8	0	0	0	0	529	626	
9	0	0	0	0	529	624	
10	0	0	0	0	529	626	
11	0	0	0	0	530	626	
12	0	0	0	0	529	625	
13	0	0	0	0	529	627	
14	0	0	0	0	529	625	
15	0	0	0	0	528	625	
0	0	0	0	0	528	625	
1	0	0	0	0	527	624	
2	0	0	0	0	527	625	
3	0	0	0	0	527	624	
4	0	0	0	0	526	624	
5	0	0	0	0	526	626	
6	0	0	0	0	526	624	
7	0	0	0	0	525	625	
8	0	0	0	0	525	625	
9	0	0	0	0	525	624	
10	0	0	0	0	524	624	
11	0	0	0	0	524	625	
12	0	0	0	0	523	624	
13	0	0	0	0	524	626	
14	0	0	0	0	524	625	
15	0	0	0	0	524	625	
0	0	0	0	0	524	625	
1	0	0	0	0	524	623	
2	0	0	0	0	524	625	
3	0	0	0	0	525	624	
4	0	0	0	0	526	625	
5	0	0	0	0	526	626	
6	0	0	0	0	527	624	
7	0	0	0	0	528	624	
8	0	0	0	0	528	625	
9	0	0	0	0	528	623	
10	0	0	0	0	527	624	
11	0	0	0	0	527	624	
12	0	0	0	0	527	624	
13	0	0	0	0	527	626	
14	0	0	0	0	526	624	
15	0	0	0	0	526	624	
0	0	0	0	0	526	625	
1	0	0	0	0	527	623	
2	0	0	0	0	527	625	
3	0	0	0	0	526	624	
4	0	0	0	0	525	624	
5	0	0	0	0	525	626	
6	0	0	0	0	525	625	
7	0	0	0	0	524	624	
8	0	0	0	0	525	624	
9	0	0	0	0	525	623	
10	0	0	0	0	524	624	
11	0	0	0	0	524	624	
12	0	0	0	0	524	624	
13	0	0	0	0	523	626	
14	0	0	0	0	523	624	
15	0	0	0	0	523	624	
0	0	0	0	0	523	624	
1	0	0	0	0	523	622	
2	0	0	0	0	522	624	
3	0	0	0	0	522	624	
4	0	0	0	0	521	624	
5	0	0	0	0	521	626	
6	0	0	0	0	520	624	
7	0	0	0	0	520	624	
8	0	0	0	0	519	624	
9	0	0	0	0	519	623	
10	0	0	0	0	519	625	
11	0	0	0	0	519	625	
12	0	0	0	0	518	625	
13	0	0	0	0	518	626	
14	0	0	0	0	517	625	
15	0	0	0	0	518	625	
0	0	0	0	0	518	625	
1	0	0	0	0	519	624	
2	0	0	0	0	520	626	
3	0	0	0	0	521	626	
4	0	0	0	0	522	626	
5	0	0	0	0	523	627	
6	0	0	0	0	523	625	
7	0	0	0	0	524	626	
8	0	0	0	0	523	626	
9	0	0	0	0	523	625	
10	0	0	0	0	523	627	
11	0	0	0	0	523	626	
12	0	0	0	0	523	627	
13	0	0	0	0	523	629	
14	0	0	0	0	522	627	
15	0	0	0	0	521	627	
0	0	0	0	0	521	627	
1	0	0	0	0	520	625	
2	0	0	0	0	519	627	
3	0	0	0	0	520	627	
4	0	0	0	0	519	627	
5	0	0	0	0	520	629	
6	0	0	0	0	520	627	
7	0	0	0	0	520	627	
8	0	0	0	0	520	627	
9	0	0	0	0	520	625	
10	0	0	0	0	521	627	
11	0	0	0	0	521	627	
12	0	0	0	0	521	626	
13	0	0	0	0	521	628	
14	0	0	0	0	521	626	
15	0	0	0	0	521	627	
0	0	0	0	0	520	626	
1	0	0	0	0	520	624	
2	0	0	0	0	519	625	
3	0	0	0	0	520	626	
4	0	0	0	0	520	626	
5	0	0	0	0	519	627	
6	0	0	0	0	519	625	
7	0	0	0	0	519	625	
8	0	0	0	0	519	625	
9	0	0	0	0	519	623	
10	0	0	0	0	519	625	
11	0	0	0	0	519	625	
12	0	0	0	0	519	625	
13	0	0	0	0	517	626	
14	0	0	0	0	516	625	
15	0	0	0	0	516	625	
0	0	0	0	0	516	625	
1	0	0	0	0	515	624	
2	0	0	0	0	515	625	
3	0	0	0	0	515	625	
4	0	0	0	0	515	625	
5	0	0	0	0	515	627	
6	0	0	0	0	515	624	
7	0	0	0	0	514	624	
8	0	0	0	0	514	624	
9	0	0	0	0	513	622	
10	0	0	0	0	513	623	
11	0	0	0	0	513	624	
12	0	0	0	0	513	623	
13	0	0	0	0	512	625	
14	0	0	0	0	512	623	
15	0	0	0	0	512	623	
0	0	0	0	0	512	623	
1	0	0	0	0	512	621	
2	0	0	0	0	512	623	
3	0	0	0	0	512	623	
4	0	0	0	0	511	622	
5	0	0	0	0	512	624	
6	0	0	0	0	511	622	
7	0	0	0	0	512	623	
8	0	0	0	0	512	623	
9	0	0	0	0	513	621	
10	0	0	0	0	514	622	
11	0	0	0	0	513	623	
12	0	0	0	0	513	622	
13	0	0	0	0	513	624	
14	0	0	0	0	514	622	
15	0	0	0	0	514	622	
0	0	0	0	0	514	622	
1	0	0	0	0	514	620	
2	0	0	0	0	515	622	
3	0	0	0	0	515	622	
4	0	0	0	0	517	622	
5	0	0	0	0	516	624	
6	0	0	0	0	517	622	
7	0	0	0	0	517	622	
8	0	0	0	0	517	622	
9	0	0	0	0	519	621	
10	0	0	0	0	520	623	
11	0	0	0	0	521	623	
12	0	0	0	0	523	623	
13	0	0	0	0	523	624	
14	0	0	0	0	524	622	
15	0	0	0	0	525	622	
0	0	0	0	0	526	623	
1	0	0	0	0	526	621	
2	0	0	0	0	525	623	
3	0	0	0	0	525	623	
4	0	0	0	0	524	623	
5	0	0	0	0	523	625	
6	0	0	0	0	523	624	
7	0	0	0	0	522	624	
8	0	0	0	0	521	624	
9	0	0	0	0	521	622	
10	0	0	0	0	522	624	
11	0	0	0	0	522	624	
12	0	0	0	0	521	624	
13	0	0	0	0	521	626	
14	0	0	0	0	521	624	
15	0	0	0	0	521	624	
0	0	0	0	0	521	624	
1	0	0	0	0	521	623	
2	0	0	0	0	521	624	
3	0	0	0	0	521	624	
4	0	0	0	0	521	624	
5	0	0	0	0	521	626	
6	0	0	0	0	522	625	
7	0	0	0	0	522	624	
8	0	0	0	0	521	624	
9	0	0	0	0	520	623	
10	0	0	0	0	519	625	
11	0	0	0	0	519	625	
12	0	0	0	0	519	626	
13	0	0	0	0	518	627	
14	0	0	0	0	518	625	
15	0	0	0	0	518	625	
0	0	0	0	0	517	625	
1	0	0	0	0	518	624	
2	0	0	0	0	517	626	
3	0	0	0	0	517	625	
4	0	0	0	0	517	626	
5	0	0	0	0	517	628	
6	0	0	0	0	518	627	
7	0	0	0	0	518	627	
8	0	0	0	0	519	627	
9	0	0	0	0	520	625	
10	0	0	0	0	520	627	
11	0	0	0	0	520	627	
12	0	0	0	0	520	627	
13	0	0	0	0	520	628	
14	0	0	0	0	520	627	
15	0	0	0	0	520	627	
0	0	0	0	0	519	627	
1	0	0	0	0	519	625	
2	0	0	0	0	518	627	
3	0	0	0	0	518	627	
4	0	0	0	0	519	627	
5	0	0	0	0	519	628	
6	0	0	0	0	519	627	
7	0	0	0	0	519	626	
8	0	0	0	0	519	626	
9	0	0	0	0	519	625	
10	0	0	0	0	520	625	
11	0	0	0	0	520	625	
12	0	0	0	0	519	625	
13	0	0	0	0	519	627	
14	0	0	0	0	518	624	
15	0	0	0	0	517	625	
0	0	0	0	0	516	625	
1	0	0	0	0	516	623	
2	0	0	0	0	517	624	
3	0	0	0	0	517	624	
4	0	0	0	0	517	624	
5	0	0	0	0	517	626	
6	0	0	0	0	516	624	
7	0	0	0	0	515	624	
8	0	0	0	0	515	624	
9	0	0	0	0	515	622	
10	0	0	0	0	514	624	
11	0	0	0	0	514	624	
12	0	0	0	0	515	624	
13	0	0	0	0	515	626	
14	0	0	0	0	516	624	
15	0	0	0	0	516	625	
0	0	0	0	0	515	624	
1	0	0	0	0	514	623	
2	0	0	0	0	513	624	
3	0	0	0	0	513	625	
4	0	0	0	0	513	625	
5	0	0	0	0	512	626	
6	0	0	0	0	511	625	
7	0	0	0	0	510	625	
8	0	0	0	0	508	625	
9	0	0	0	0	505	624	
10	0	0	0	0	502	625	
11	0	0	0	0	496	625	
12	0	0	0	0	489	625	
13	0	0	0	0	480	627	
14	0	0	0	0	470	625	
15	0	0	0	0	460	625	
0	0	0	0	0	448	625	
1	0	0	0	0	439	623	
2	0	0	0	0	430	625	
3	0	0	0	0	423	625	
4	0	0	0	0	415	625	
5	0	0	0	0	409	626	
6	0	0	0	0	406	625	
7	0	0	0	0	404	625	
8	0	0	0	0	405	624	
9	0	0	0	0	408	622	
10	0	0	0	0	412	624	
11	0	0	0	0	418	623	
12	0	0	0	0	426	624	
13	0	0	0	0	436	625	
14	0	0	0	0	445	623	
15	0	0	0	0	454	623	
0	0	0	0	0	461	623	
1	0	0	0	0	467	620	
2	0	0	0	0	475	622	
3	0	0	0	0	483	622	
4	0	0	0	0	494	622	
5	0	0	0	0	513	624	
6	0	0	0	0	536	622	
7	0	0	0	0	561	622	
8	0	0	0	0	588	622	
9	0	0	0	0	620	620	
10	0	0	0	0	658	621	
11	0	0	0	0	701	622	
12	0	0	0	0	745	622	
13	0	0	0	0	789	624	
14	0	0	0	0	828	622	
15	0	0	0	0	862	622	
0	0	0	0	0	892	623	
1	0	0	0	0	916	620	
2	0	0	0	0	931	623	
3	0	0	0	0	939	623	
4	0	0	0	0	938	623	
5	0	0	0	0	932	625	
6	0	0	0	0	921	623	
7	0	0	0	0	907	623	
8	0	0	0	0	891	623	
9	0	0	0	0	873	621	
10	0	0	0	0	854	623	
11	0	0	0	0	831	624	
12	0	0	0	0	805	623	
13	0	0	0	0	776	624	
14	0	0	0	0	748	623	
15	0	0	0	0	722	623	
0	0	0	0	0	697	623	
1	0	0	0	0	675	621	
2	0	0	0	0	654	622	
3	0	0	0	0	638	623	
4	0	0	0	0	624	623	
5	0	0	0	0	611	625	
6	0	0	0	0	601	623	
7	0	0	0	0	592	622	
8	0	0	0	0	583	623	
9	0	0	0	0	574	620	
10	0	0	0	0	566	622	
11	0	0	0	0	558	623	
12	0	0	0	0	550	622	
13	0	0	0	0	542	624	
14	0	0	0	0	533	623	
15	0	0	0	0	524	622	
0	0	0	0	0	515	622	
1	0	0	0	0	507	620	
2	0	0	0	0	499	622	
3	0	0	0	0	492	623	
4	0	0	0	0	485	622	
5	0	0	0	0	480	623	
6	0	0	0	0	473	622	
7	0	0	0	0	467	622	
8	0	0	0	0	462	622	
9	0	0	0	0	457	620	
10	0	0	0	0	453	622	
11	0	0	0	0	449	623	
12	0	0	0	0	446	623	
13	0	0	0	0	442	624	
14	0	0	0	0	439	622	
15	0	0	0	0	435	623	
0	0	0	0	0	433	623	
1	0	0	0	0	432	621	
2	0	0	0	0	431	624	
3	0	0	0	0	429	623	
4	0	0	0	0	428	623	
5	0	0	0	0	427	625	
6	0	0	0	0	427	622	
7	0	0	0	0	427	623	
8	0	0	0	0	426	623	
9	0	0	0	0	427	622	
10	0	0	0	0	426	624	
11	0	0	0	0	425	624	
12	0	0	0	0	426	624	
13	0	0	0	0	424	624	
14	0	0	0	0	423	623	
15	0	0	0	0	422	623	
0	0	0	0	0	420	623	
1	0	0	0	0	421	622	
2	0	0	0	0	421	623	
3	0	0	0	0	422	623	
4	0	0	0	0	421	623	
5	0	0	0	0	421	624	
6	0	0	0	0	422	624	
7	0	0	0	0	423	624	
8	0	0	0	0	423	624	
9	0	0	0	0	424	622	
10	0	0	0	0	425	624	
11	0	0	0	0	426	624	
12	0	0	0	0	427	624	
13	0	0	0	0	428	626	
14	0	0	0	0	428	624	
15	0	0	0	0	429	624	
0	0	0	0	0	430	624	
1	0	0	0	0	430	623	
2	0	0	0	0	431	625	
3	0	0	0	0	431	625	
4	0	0	0	0	432	625	
5	0	0	0	0	432	627	
6	0	0	0	0	433	625	
7	0	0	0	0	434	625	
8	0	0	0	0	434	626	
9	0	0	0	0	434	624	
10	0	0	0	0	435	625	
11	0	0	0	0	435	626	
12	0	0	0	0	435	625	
13	0	0	0	0	436	628	
14	0	0	0	0	437	625	
15	0	0	0	0	437	627	
0	0	0	0	0	438	626	
1	0	0	0	0	437	625	
2	0	0	0	0	438	626	
3	0	0	0	0	439	626	
4	0	0	0	0	440	626	
5	0	0	0	0	441	629	
6	0	0	0	0	443	627	
7	0	0	0	0	444	627	
8	0	0	0	0	446	626	
9	0	0	0	0	447	624	
10	0	0	0	0	448	626	
11	0	0	0	0	449	627	
12	0	0	0	0	449	626	
13	0	0	0	0	449	628	
14	0	0	0	0	449	627	
15	0	0	0	0	449	627	
0	0	0	0	0	449	627	
1	0	0	0	0	449	625	
2	0	0	0	0	449	626	
3	0	0	0	0	449	626	
4	0	0	0	0	449	626	
5	0	0	0	0	449	628	
6	0	0	0	0	449	626	
7	0	0	0	0	449	626	
8	0	0	0	0	449	625	
9	0	0	0	0	449	624	
10	0	0	0	0	449	625	
11	0	0	0	0	450	625	
12	0	0	0	0	450	625	
13	0	0	0	0	451	628	
14	0	0	0	0	451	625	
15	0	0	0	0	451	625	
0	0	0	0	0	452	625	
1	0	0	0	0	451	623	
2	0	0	0	0	451	625	
3	0	0	0	0	451	625	
4	0	0	0	0	451	625	
5	0	0	0	0	452	626	
6	0	0	0	0	452	624	
7	0	0	0	0	452	624	
8	0	0	0	0	453	624	
9	0	0	0	0	454	622	
10	0	0	0	0	455	624	
11	0	0	0	0	456	623	
12	0	0	0	0	457	624	
13	0	0	0	0	457	625	
14	0	0	0	0	457	624	
15	0	0	0	0	458	624	
0	0	0	0	0	458	624	
1	0	0	0	0	458	622	
2	0	0	0	0	458	624	
3	0	0	0	0	458	624	
4	0	0	0	0	457	624	
5	0	0	0	0	458	626	
6	0	0	0	0	458	624	
7	0	0	0	0	457	624	
8	0	0	0	0	458	624	
9	0	0	0	0	459	623	
10	0	0	0	0	459	624	
11	0	0	0	0	459	624	
12	0	0	0	0	459	624	
13	0	0	0	0	459	626	
14	0	0	0	0	459	624	
15	0	0	0	0	461	623	
0	0	0	0	0	462	624	
1	0	0	0	0	462	622	
2	0	0	0	0	462	624	
3	0	0	0	0	462	624	
4	0	0	0	0	462	623	
5	0	0	0	0	463	625	
6	0	0	0	0	463	623	
7	0	0	0	0	464	624	
8	0	0	0	0	465	623	
9	0	0	0	0	465	621	
10	0	0	0	0	467	624	
11	0	0	0	0	466	624	
12	0	0	0	0	467	623	
13	0	0	0	0	468	625	
14	0	0	0	0	469	623	
15	0	0	0	0	469	623	
0	0	0	0	0	470	624	
1	0	0	0	0	470	622	
2	0	0	0	0	472	624	
3	0	0	0	0	472	623	
4	0	0	0	0	472	623	
5	0	0	0	0	472	625	
6	0	0	0	0	472	623	
7	0	0	0	0	473	624	
8	0	0	0	0	473	624	
9	0	0	0	0	475	621	
10	0	0	0	0	476	624	
11	0	0	0	0	477	624	
12	0	0	0	0	477	624	
13	0	0	0	0	478	626	
14	0	0	0	0	480	624	
15	0	0	0	0	481	624	
0	0	0	0	0	482	624	
1	0	0	0	0	482	622	
2	0	0	0	0	483	624	
3	0	0	0	0	484	624	
4	0	0	0	0	485	624	
5	0	0	0	0	486	626	
6	0	0	0	0	487	624	
7	0	0	0	0	488	624	
8	0	0	0	0	489	624	
9	0	0	0	0	490	621	
10	0	0	0	0	491	623	
11	0	0	0	0	492	623	
12	0	0	0	0	492	623	
13	0	0	0	0	493	625	
14	0	0	0	0	494	623	
15	0	0	0	0	496	623	
0	0	0	0	0	497	623	
1	0	0	0	0	499	621	
2	0	0	0	0	500	623	
3	0	0	0	0	501	623	
4	0	0	0	0	502	623	
5	0	0	0	0	503	624	
6	0	0	0	0	504	623	
7	0	0	0	0	506	622	
8	0	0	0	0	507	623	
9	0	0	0	0	508	621	
10	0	0	0	0	509	623	
11	0	0	0	0	510	623	
12	0	0	0	0	512	623	
13	0	0	0	0	513	624	
14	0	0	0	0	515	622	
15	0	0	0	0	515	622	
0	0	0	0	0	515	623	
1	0	0	0	0	515	621	
2	0	0	0	0	516	623	
3	0	0	0	0	517	623	
4	0	0	0	0	518	623	
5	0	0	0	0	519	624	
6	0	0	0	0	519	623	
7	0	0	0	0	520	623	
8	0	0	0	0	522	622	
9	0	0	0	0	524	621	
10	0	0	0	0	524	623	
11	0	0	0	0	526	623	
12	0	0	0	0	525	623	
13	0	0	0	0	526	624	
14	0	0	0	0	527	623	
15	0	0	0	0	526	623	
0	0	0	0	0	526	624	
1	0	0	0	0	527	621	
2	0	0	0	0	527	624	
3	0	0	0	0	527	624	
4	0	0	0	0	527	623	
5	0	0	0	0	527	625	
6	0	0	0	0	527	623	
7	0	0	0	0	527	623	
8	0	0	0	0	527	624	
9	0	0	0	0	527	622	
10	0	0	0	0	527	624	
11	0	0	0	0	526	624	
12	0	0	0	0	526	624	
13	0	0	0	0	526	626	
14	0	0	0	0	526	624	
15	0	0	0	0	526	624	
0	0	0	0	0	526	624	
1	0	0	0	0	525	623	
2	0	0	0	0	524	625	
3	0	0	0	0	523	625	
4	0	0	0	0	522	625	
5	0	0	0	0	521	627	
6	0	0	0	0	521	626	
7	0	0	0	0	521	625	
8	0	0	0	0	520	625	
9	0	0	0	0	520	624	
10	0	0	0	0	519	626	
11	0	0	0	0	519	626	
12	0	0	0	0	519	626	
13	0	0	0	0	519	628	
14	0	0	0	0	519	627	
15	0	0	0	0	519	627	
0	0	0	0	0	518	627	
1	0	0	0	0	519	624	
2	0	0	0	0	519	626	
3	0	0	0	0	519	626	
4	0	0	0	0	520	627	
5	0	0	0	0	519	628	
6	0	0	0	0	518	626	
7	0	0	0	0	518	626	
8	0	0	0	0	518	627	
9	0	0	0	0	516	624	
10	0	0	0	0	516	626	
11	0	0	0	0	516	626	
12	0	0	0	0	516	626	
13	0	0	0	0	516	628	
14	0	0	0	0	516	626	
15	0	0	0	0	516	626	
0	0	0	0	0	517	626	
1	0	0	0	0	517	624	
2	0	0	0	0	517	626	
3	0	0	0	0	517	625	
