# OpenSignals Text File Format. Version 1
# {"98:D3:91:FD:69:48": {"position": 0, "device": "bitalino_rev", "device name": "98:D3:91:FD:69:48", "device connection": "BTH98:D3:91:FD:69:48", "sampling rate": 1000, "resolution": [4, 1, 1, 1, 1, 10, 10], "firmware version": 1281, "comments": "", "keywords": "", "mode": 0, "sync interval": 2, "date": "2021-9-14", "time": "12:33:0.227", "channels": [2, 5], "sensor": ["RAW", "RAW"], "label": ["A2", "A5"], "column": ["nSeq", "I1", "I2", "O1", "O2", "A2", "A5"], "special": [{}, {}], "digital IO": [0, 0, 1, 1], "convertedValues": 0}}
# EndOfHeader
0	0	0	0	0	512	524	
1	0	0	0	0	512	521	
2	0	0	0	0	512	521	
3	0	0	0	0	512	522	
4	0	0	0	0	512	519	
5	0	0	0	0	512	521	
6	0	0	0	0	511	521	
7	0	0	0	0	511	520	
8	0	0	0	0	511	524	
9	0	0	0	0	511	521	
10	0	0	0	0	511	521	
11	0	0	0	0	511	521	
12	0	0	0	0	511	519	
13	0	0	0	0	512	520	
14	0	0	0	0	512	520	
15	0	0	0	0	512	520	
0	0	0	0	0	512	523	
1	0	0	0	0	512	520	
2	0	0	0	0	512	520	
3	0	0	0	0	512	520	
4	0	0	0	0	512	518	
5	0	0	0	0	512	520	
6	0	0	0	0	511	521	
7	0	0	0	0	511	520	
8	0	0	0	0	511	523	
9	0	0	0	0	510	519	
10	0	0	0	0	510	520	
11	0	0	0	0	510	520	
12	0	0	0	0	511	518	
13	0	0	0	0	511	521	
14	0	0	0	0	511	520	
15	0	0	0	0	512	520	
0	0	0	0	0	512	523	
1	0	0	0	0	513	521	
2	0	0	0	0	513	521	
3	0	0	0	0	513	521	
4	0	0	0	0	513	519	
5	0	0	0	0	512	521	
6	0	0	0	0	512	522	
7	0	0	0	0	512	521	
8	0	0	0	0	511	524	
9	0	0	0	0	510	522	
10	0	0	0	0	510	522	
11	0	0	0	0	510	522	
12	0	0	0	0	510	519	
13	0	0	0	0	510	523	
14	0	0	0	0	510	522	
15	0	0	0	0	510	522	
0	0	0	0	0	511	525	
1	0	0	0	0	511	522	
2	0	0	0	0	511	523	
3	0	0	0	0	511	522	
4	0	0	0	0	510	520	
5	0	0	0	0	509	523	
6	0	0	0	0	508	523	
7	0	0	0	0	506	522	
8	0	0	0	0	505	525	
9	0	0	0	0	504	523	
10	0	0	0	0	502	522	
11	0	0	0	0	500	523	
12	0	0	0	0	499	519	
13	0	0	0	0	498	523	
14	0	0	0	0	496	522	
15	0	0	0	0	495	522	
0	0	0	0	0	494	525	
1	0	0	0	0	495	523	
2	0	0	0	0	496	522	
3	0	0	0	0	496	522	
4	0	0	0	0	499	519	
5	0	0	0	0	502	522	
6	0	0	0	0	503	521	
7	0	0	0	0	506	522	
8	0	0	0	0	510	524	
9	0	0	0	0	513	522	
10	0	0	0	0	518	521	
11	0	0	0	0	524	521	
12	0	0	0	0	528	519	
13	0	0	0	0	534	522	
14	0	0	0	0	540	521	
15	0	0	0	0	547	522	
0	0	0	0	0	554	524	
1	0	0	0	0	561	521	
2	0	0	0	0	568	522	
3	0	0	0	0	576	522	
4	0	0	0	0	585	519	
5	0	0	0	0	593	522	
6	0	0	0	0	599	521	
7	0	0	0	0	604	521	
8	0	0	0	0	608	524	
9	0	0	0	0	608	521	
10	0	0	0	0	606	521	
11	0	0	0	0	602	521	
12	0	0	0	0	599	519	
13	0	0	0	0	596	521	
14	0	0	0	0	595	521	
15	0	0	0	0	590	521	
0	0	0	0	0	584	523	
1	0	0	0	0	579	521	
2	0	0	0	0	574	521	
3	0	0	0	0	570	521	
4	0	0	0	0	567	519	
5	0	0	0	0	565	521	
6	0	0	0	0	564	522	
7	0	0	0	0	564	522	
8	0	0	0	0	563	524	
9	0	0	0	0	561	522	
10	0	0	0	0	559	522	
11	0	0	0	0	556	521	
12	0	0	0	0	551	519	
13	0	0	0	0	546	521	
14	0	0	0	0	541	521	
15	0	0	0	0	536	522	
0	0	0	0	0	531	524	
1	0	0	0	0	527	522	
2	0	0	0	0	521	522	
3	0	0	0	0	515	521	
4	0	0	0	0	510	519	
5	0	0	0	0	505	521	
6	0	0	0	0	500	521	
7	0	0	0	0	496	521	
8	0	0	0	0	492	524	
9	0	0	0	0	489	522	
10	0	0	0	0	485	521	
11	0	0	0	0	482	521	
12	0	0	0	0	480	518	
13	0	0	0	0	477	521	
14	0	0	0	0	476	521	
15	0	0	0	0	474	521	
0	0	0	0	0	473	524	
1	0	0	0	0	473	521	
2	0	0	0	0	472	521	
3	0	0	0	0	472	520	
4	0	0	0	0	472	518	
5	0	0	0	0	472	520	
6	0	0	0	0	472	520	
7	0	0	0	0	472	520	
8	0	0	0	0	473	523	
9	0	0	0	0	473	520	
10	0	0	0	0	474	520	
11	0	0	0	0	475	520	
12	0	0	0	0	475	518	
13	0	0	0	0	475	520	
14	0	0	0	0	475	520	
15	0	0	0	0	475	521	
0	0	0	0	0	476	523	
1	0	0	0	0	477	521	
2	0	0	0	0	477	521	
3	0	0	0	0	477	520	
4	0	0	0	0	478	518	
5	0	0	0	0	478	520	
6	0	0	0	0	478	520	
7	0	0	0	0	477	520	
8	0	0	0	0	477	523	
9	0	0	0	0	477	520	
10	0	0	0	0	477	520	
11	0	0	0	0	476	521	
12	0	0	0	0	476	518	
13	0	0	0	0	477	520	
14	0	0	0	0	478	520	
15	0	0	0	0	478	520	
0	0	0	0	0	479	523	
1	0	0	0	0	479	521	
2	0	0	0	0	479	521	
3	0	0	0	0	480	521	
4	0	0	0	0	480	519	
5	0	0	0	0	480	521	
6	0	0	0	0	480	521	
7	0	0	0	0	480	520	
8	0	0	0	0	480	523	
9	0	0	0	0	479	521	
10	0	0	0	0	479	520	
11	0	0	0	0	479	520	
12	0	0	0	0	479	518	
13	0	0	0	0	480	521	
14	0	0	0	0	480	520	
15	0	0	0	0	480	521	
0	0	0	0	0	481	523	
1	0	0	0	0	481	521	
2	0	0	0	0	482	520	
3	0	0	0	0	482	520	
4	0	0	0	0	482	518	
5	0	0	0	0	481	520	
6	0	0	0	0	481	520	
7	0	0	0	0	481	521	
8	0	0	0	0	482	523	
9	0	0	0	0	482	522	
10	0	0	0	0	481	521	
11	0	0	0	0	481	521	
12	0	0	0	0	481	519	
13	0	0	0	0	481	521	
14	0	0	0	0	480	521	
15	0	0	0	0	480	521	
0	0	0	0	0	480	523	
1	0	0	0	0	481	521	
2	0	0	0	0	481	521	
3	0	0	0	0	481	521	
4	0	0	0	0	481	519	
5	0	0	0	0	481	522	
6	0	0	0	0	482	521	
7	0	0	0	0	481	522	
8	0	0	0	0	482	524	
9	0	0	0	0	482	521	
10	0	0	0	0	483	521	
11	0	0	0	0	484	522	
12	0	0	0	0	484	519	
13	0	0	0	0	486	522	
14	0	0	0	0	487	522	
15	0	0	0	0	487	521	
0	0	0	0	0	487	524	
1	0	0	0	0	487	523	
2	0	0	0	0	487	522	
3	0	0	0	0	488	522	
4	0	0	0	0	488	519	
5	0	0	0	0	489	522	
6	0	0	0	0	490	523	
7	0	0	0	0	491	523	
8	0	0	0	0	491	525	
9	0	0	0	0	491	523	
10	0	0	0	0	492	522	
11	0	0	0	0	492	522	
12	0	0	0	0	492	519	
13	0	0	0	0	492	523	
14	0	0	0	0	492	523	
15	0	0	0	0	492	523	
0	0	0	0	0	492	525	
1	0	0	0	0	493	522	
2	0	0	0	0	493	523	
3	0	0	0	0	493	522	
4	0	0	0	0	494	520	
5	0	0	0	0	494	523	
6	0	0	0	0	494	522	
7	0	0	0	0	494	522	
8	0	0	0	0	494	525	
9	0	0	0	0	494	522	
10	0	0	0	0	494	522	
11	0	0	0	0	494	522	
12	0	0	0	0	494	519	
13	0	0	0	0	494	521	
14	0	0	0	0	495	521	
15	0	0	0	0	496	522	
0	0	0	0	0	496	524	
1	0	0	0	0	497	522	
2	0	0	0	0	497	521	
3	0	0	0	0	497	521	
4	0	0	0	0	497	519	
5	0	0	0	0	498	521	
6	0	0	0	0	498	521	
7	0	0	0	0	498	521	
8	0	0	0	0	499	523	
9	0	0	0	0	499	521	
10	0	0	0	0	499	520	
11	0	0	0	0	498	521	
12	0	0	0	0	499	518	
13	0	0	0	0	498	520	
14	0	0	0	0	499	521	
15	0	0	0	0	499	521	
0	0	0	0	0	499	523	
1	0	0	0	0	499	521	
2	0	0	0	0	499	521	
3	0	0	0	0	499	521	
4	0	0	0	0	500	519	
5	0	0	0	0	500	520	
6	0	0	0	0	501	521	
7	0	0	0	0	502	521	
8	0	0	0	0	502	524	
9	0	0	0	0	502	521	
10	0	0	0	0	502	522	
11	0	0	0	0	503	521	
12	0	0	0	0	504	519	
13	0	0	0	0	505	522	
14	0	0	0	0	506	522	
15	0	0	0	0	507	521	
0	0	0	0	0	507	525	
1	0	0	0	0	507	522	
2	0	0	0	0	506	522	
3	0	0	0	0	506	523	
4	0	0	0	0	506	520	
5	0	0	0	0	506	523	
6	0	0	0	0	506	523	
7	0	0	0	0	505	523	
8	0	0	0	0	506	526	
9	0	0	0	0	506	524	
10	0	0	0	0	506	524	
11	0	0	0	0	507	524	
12	0	0	0	0	508	521	
13	0	0	0	0	509	524	
14	0	0	0	0	509	524	
15	0	0	0	0	510	523	
0	0	0	0	0	511	526	
1	0	0	0	0	511	523	
2	0	0	0	0	511	523	
3	0	0	0	0	511	523	
4	0	0	0	0	511	519	
5	0	0	0	0	512	523	
6	0	0	0	0	512	523	
7	0	0	0	0	512	522	
8	0	0	0	0	512	524	
9	0	0	0	0	512	523	
10	0	0	0	0	512	523	
11	0	0	0	0	511	523	
12	0	0	0	0	511	520	
13	0	0	0	0	510	522	
14	0	0	0	0	510	522	
15	0	0	0	0	510	522	
0	0	0	0	0	511	524	
1	0	0	0	0	511	522	
2	0	0	0	0	510	521	
3	0	0	0	0	510	522	
4	0	0	0	0	510	519	
5	0	0	0	0	509	521	
6	0	0	0	0	509	521	
7	0	0	0	0	510	520	
8	0	0	0	0	510	523	
9	0	0	0	0	511	521	
10	0	0	0	0	512	521	
11	0	0	0	0	513	521	
12	0	0	0	0	513	518	
13	0	0	0	0	514	521	
14	0	0	0	0	515	521	
15	0	0	0	0	515	520	
0	0	0	0	0	515	523	
1	0	0	0	0	515	520	
2	0	0	0	0	516	520	
3	0	0	0	0	517	520	
4	0	0	0	0	517	518	
5	0	0	0	0	517	520	
6	0	0	0	0	516	521	
7	0	0	0	0	516	520	
8	0	0	0	0	517	523	
9	0	0	0	0	517	520	
10	0	0	0	0	516	520	
11	0	0	0	0	517	520	
12	0	0	0	0	517	517	
13	0	0	0	0	517	520	
14	0	0	0	0	518	520	
15	0	0	0	0	518	520	
0	0	0	0	0	518	523	
1	0	0	0	0	517	521	
2	0	0	0	0	517	521	
3	0	0	0	0	517	521	
4	0	0	0	0	518	518	
5	0	0	0	0	518	521	
6	0	0	0	0	518	521	
7	0	0	0	0	518	521	
8	0	0	0	0	517	524	
9	0	0	0	0	516	521	
10	0	0	0	0	515	521	
11	0	0	0	0	513	521	
12	0	0	0	0	513	518	
13	0	0	0	0	512	521	
14	0	0	0	0	511	521	
15	0	0	0	0	510	522	
0	0	0	0	0	509	524	
1	0	0	0	0	509	521	
2	0	0	0	0	509	521	
3	0	0	0	0	508	522	
4	0	0	0	0	508	519	
5	0	0	0	0	508	522	
6	0	0	0	0	508	521	
7	0	0	0	0	508	520	
8	0	0	0	0	509	523	
9	0	0	0	0	508	521	
10	0	0	0	0	508	521	
11	0	0	0	0	508	520	
12	0	0	0	0	507	518	
13	0	0	0	0	506	521	
14	0	0	0	0	506	521	
15	0	0	0	0	505	521	
0	0	0	0	0	504	523	
1	0	0	0	0	504	521	
2	0	0	0	0	504	520	
3	0	0	0	0	503	521	
4	0	0	0	0	503	518	
5	0	0	0	0	502	520	
6	0	0	0	0	501	520	
7	0	0	0	0	500	520	
8	0	0	0	0	500	522	
9	0	0	0	0	500	520	
10	0	0	0	0	500	521	
11	0	0	0	0	500	521	
12	0	0	0	0	500	518	
13	0	0	0	0	501	520	
14	0	0	0	0	500	520	
15	0	0	0	0	499	520	
0	0	0	0	0	498	523	
1	0	0	0	0	497	520	
2	0	0	0	0	496	520	
3	0	0	0	0	496	521	
4	0	0	0	0	495	518	
5	0	0	0	0	494	521	
6	0	0	0	0	493	521	
7	0	0	0	0	492	521	
8	0	0	0	0	493	523	
9	0	0	0	0	494	521	
10	0	0	0	0	493	520	
11	0	0	0	0	493	520	
12	0	0	0	0	492	518	
13	0	0	0	0	492	520	
14	0	0	0	0	493	521	
15	0	0	0	0	493	521	
0	0	0	0	0	494	523	
1	0	0	0	0	495	521	
2	0	0	0	0	495	521	
3	0	0	0	0	495	521	
4	0	0	0	0	496	519	
5	0	0	0	0	496	521	
6	0	0	0	0	496	521	
7	0	0	0	0	496	521	
8	0	0	0	0	497	524	
9	0	0	0	0	497	521	
10	0	0	0	0	497	521	
11	0	0	0	0	497	522	
12	0	0	0	0	497	519	
13	0	0	0	0	497	522	
14	0	0	0	0	498	522	
15	0	0	0	0	499	522	
0	0	0	0	0	499	524	
1	0	0	0	0	500	522	
2	0	0	0	0	499	522	
3	0	0	0	0	500	523	
4	0	0	0	0	500	519	
5	0	0	0	0	500	523	
6	0	0	0	0	500	523	
7	0	0	0	0	499	522	
8	0	0	0	0	498	524	
9	0	0	0	0	498	522	
10	0	0	0	0	497	522	
11	0	0	0	0	497	522	
12	0	0	0	0	497	519	
13	0	0	0	0	497	522	
14	0	0	0	0	497	522	
15	0	0	0	0	497	522	
0	0	0	0	0	497	524	
1	0	0	0	0	497	521	
2	0	0	0	0	497	521	
3	0	0	0	0	496	522	
4	0	0	0	0	497	519	
5	0	0	0	0	496	522	
6	0	0	0	0	496	521	
7	0	0	0	0	496	521	
8	0	0	0	0	496	524	
9	0	0	0	0	496	521	
10	0	0	0	0	496	520	
11	0	0	0	0	497	520	
12	0	0	0	0	498	518	
13	0	0	0	0	499	520	
14	0	0	0	0	499	521	
15	0	0	0	0	500	520	
0	0	0	0	0	500	523	
1	0	0	0	0	500	521	
2	0	0	0	0	499	521	
3	0	0	0	0	500	521	
4	0	0	0	0	501	518	
5	0	0	0	0	502	521	
6	0	0	0	0	501	521	
7	0	0	0	0	501	521	
8	0	0	0	0	500	524	
9	0	0	0	0	500	521	
10	0	0	0	0	499	521	
11	0	0	0	0	498	521	
12	0	0	0	0	497	519	
13	0	0	0	0	496	521	
14	0	0	0	0	495	522	
15	0	0	0	0	495	521	
0	0	0	0	0	495	524	
1	0	0	0	0	496	522	
2	0	0	0	0	496	522	
3	0	0	0	0	497	522	
4	0	0	0	0	498	519	
5	0	0	0	0	499	522	
6	0	0	0	0	500	522	
7	0	0	0	0	500	523	
8	0	0	0	0	501	525	
9	0	0	0	0	502	523	
10	0	0	0	0	502	523	
11	0	0	0	0	503	523	
12	0	0	0	0	504	521	
13	0	0	0	0	503	523	
14	0	0	0	0	503	523	
15	0	0	0	0	502	523	
0	0	0	0	0	501	525	
1	0	0	0	0	499	522	
2	0	0	0	0	499	522	
3	0	0	0	0	499	523	
4	0	0	0	0	498	519	
5	0	0	0	0	498	522	
6	0	0	0	0	497	522	
7	0	0	0	0	497	522	
8	0	0	0	0	498	525	
9	0	0	0	0	497	523	
10	0	0	0	0	498	522	
11	0	0	0	0	499	522	
12	0	0	0	0	500	519	
13	0	0	0	0	500	522	
14	0	0	0	0	500	522	
15	0	0	0	0	501	522	
0	0	0	0	0	501	524	
1	0	0	0	0	501	521	
2	0	0	0	0	501	521	
3	0	0	0	0	502	521	
4	0	0	0	0	502	518	
5	0	0	0	0	502	521	
6	0	0	0	0	502	521	
7	0	0	0	0	502	521	
8	0	0	0	0	501	523	
9	0	0	0	0	501	521	
10	0	0	0	0	501	521	
11	0	0	0	0	500	521	
12	0	0	0	0	500	519	
13	0	0	0	0	499	521	
14	0	0	0	0	498	521	
15	0	0	0	0	497	521	
0	0	0	0	0	497	524	
1	0	0	0	0	497	521	
2	0	0	0	0	497	521	
3	0	0	0	0	497	521	
4	0	0	0	0	497	519	
5	0	0	0	0	497	522	
6	0	0	0	0	497	522	
7	0	0	0	0	497	522	
8	0	0	0	0	497	524	
9	0	0	0	0	498	523	
10	0	0	0	0	499	523	
11	0	0	0	0	501	523	
12	0	0	0	0	502	520	
13	0	0	0	0	503	523	
14	0	0	0	0	503	523	
15	0	0	0	0	503	523	
0	0	0	0	0	503	525	
1	0	0	0	0	503	523	
2	0	0	0	0	504	523	
3	0	0	0	0	505	524	
4	0	0	0	0	506	520	
5	0	0	0	0	506	523	
6	0	0	0	0	507	524	
7	0	0	0	0	508	523	
8	0	0	0	0	508	526	
9	0	0	0	0	506	523	
10	0	0	0	0	505	523	
11	0	0	0	0	505	523	
12	0	0	0	0	505	520	
13	0	0	0	0	504	523	
14	0	0	0	0	504	523	
15	0	0	0	0	504	523	
0	0	0	0	0	505	525	
1	0	0	0	0	504	523	
2	0	0	0	0	505	523	
3	0	0	0	0	504	522	
4	0	0	0	0	504	519	
5	0	0	0	0	504	522	
6	0	0	0	0	504	522	
7	0	0	0	0	504	522	
8	0	0	0	0	505	524	
9	0	0	0	0	506	522	
10	0	0	0	0	507	521	
11	0	0	0	0	508	521	
12	0	0	0	0	508	518	
13	0	0	0	0	509	521	
14	0	0	0	0	509	520	
15	0	0	0	0	510	520	
0	0	0	0	0	510	523	
1	0	0	0	0	510	520	
2	0	0	0	0	509	520	
3	0	0	0	0	509	520	
4	0	0	0	0	509	517	
5	0	0	0	0	509	520	
6	0	0	0	0	509	519	
7	0	0	0	0	509	519	
8	0	0	0	0	509	522	
9	0	0	0	0	509	520	
10	0	0	0	0	509	519	
11	0	0	0	0	509	519	
12	0	0	0	0	510	516	
13	0	0	0	0	510	518	
14	0	0	0	0	510	519	
15	0	0	0	0	510	519	
0	0	0	0	0	510	521	
1	0	0	0	0	511	519	
2	0	0	0	0	511	519	
3	0	0	0	0	511	519	
4	0	0	0	0	511	517	
5	0	0	0	0	511	519	
6	0	0	0	0	511	520	
7	0	0	0	0	510	519	
8	0	0	0	0	510	523	
9	0	0	0	0	509	520	
10	0	0	0	0	509	520	
11	0	0	0	0	509	520	
12	0	0	0	0	509	518	
13	0	0	0	0	508	520	
14	0	0	0	0	508	520	
15	0	0	0	0	508	520	
0	0	0	0	0	507	522	
1	0	0	0	0	508	520	
2	0	0	0	0	508	520	
3	0	0	0	0	508	520	
4	0	0	0	0	509	518	
5	0	0	0	0	509	521	
6	0	0	0	0	509	521	
7	0	0	0	0	509	521	
8	0	0	0	0	509	523	
9	0	0	0	0	509	521	
10	0	0	0	0	509	521	
11	0	0	0	0	508	521	
12	0	0	0	0	508	519	
13	0	0	0	0	508	520	
14	0	0	0	0	508	521	
15	0	0	0	0	508	521	
0	0	0	0	0	509	524	
1	0	0	0	0	510	520	
2	0	0	0	0	510	520	
3	0	0	0	0	511	521	
4	0	0	0	0	511	518	
5	0	0	0	0	512	521	
6	0	0	0	0	513	520	
7	0	0	0	0	514	521	
8	0	0	0	0	515	524	
9	0	0	0	0	516	521	
10	0	0	0	0	517	521	
11	0	0	0	0	518	520	
12	0	0	0	0	519	518	
13	0	0	0	0	519	520	
14	0	0	0	0	519	520	
15	0	0	0	0	519	520	
0	0	0	0	0	519	523	
1	0	0	0	0	519	520	
2	0	0	0	0	518	520	
3	0	0	0	0	518	520	
4	0	0	0	0	518	518	
5	0	0	0	0	517	520	
6	0	0	0	0	518	520	
7	0	0	0	0	517	520	
8	0	0	0	0	517	523	
9	0	0	0	0	517	520	
10	0	0	0	0	516	520	
11	0	0	0	0	516	520	
12	0	0	0	0	516	517	
13	0	0	0	0	516	519	
14	0	0	0	0	516	520	
15	0	0	0	0	516	520	
0	0	0	0	0	516	523	
1	0	0	0	0	516	519	
2	0	0	0	0	516	520	
3	0	0	0	0	515	520	
4	0	0	0	0	515	517	
5	0	0	0	0	514	519	
6	0	0	0	0	514	520	
7	0	0	0	0	513	519	
8	0	0	0	0	512	523	
9	0	0	0	0	512	519	
10	0	0	0	0	511	520	
11	0	0	0	0	512	520	
12	0	0	0	0	512	517	
13	0	0	0	0	512	519	
14	0	0	0	0	513	519	
15	0	0	0	0	513	520	
0	0	0	0	0	514	523	
1	0	0	0	0	514	520	
2	0	0	0	0	513	520	
3	0	0	0	0	513	520	
4	0	0	0	0	513	518	
5	0	0	0	0	513	521	
6	0	0	0	0	513	520	
7	0	0	0	0	512	521	
8	0	0	0	0	511	524	
9	0	0	0	0	510	521	
10	0	0	0	0	510	521	
11	0	0	0	0	510	522	
12	0	0	0	0	509	519	
13	0	0	0	0	509	522	
14	0	0	0	0	508	522	
15	0	0	0	0	508	522	
0	0	0	0	0	508	524	
1	0	0	0	0	507	522	
2	0	0	0	0	507	522	
3	0	0	0	0	507	522	
4	0	0	0	0	507	520	
5	0	0	0	0	506	523	
6	0	0	0	0	507	522	
7	0	0	0	0	507	522	
8	0	0	0	0	507	525	
9	0	0	0	0	507	522	
10	0	0	0	0	508	522	
11	0	0	0	0	508	522	
12	0	0	0	0	508	520	
13	0	0	0	0	508	523	
14	0	0	0	0	509	522	
15	0	0	0	0	510	521	
0	0	0	0	0	510	524	
1	0	0	0	0	511	522	
2	0	0	0	0	511	522	
3	0	0	0	0	511	522	
4	0	0	0	0	511	519	
5	0	0	0	0	511	521	
6	0	0	0	0	511	521	
7	0	0	0	0	511	521	
8	0	0	0	0	511	524	
9	0	0	0	0	511	521	
10	0	0	0	0	512	521	
11	0	0	0	0	512	520	
12	0	0	0	0	513	518	
13	0	0	0	0	513	521	
14	0	0	0	0	513	521	
15	0	0	0	0	514	520	
0	0	0	0	0	515	523	
1	0	0	0	0	515	521	
2	0	0	0	0	515	520	
3	0	0	0	0	515	520	
4	0	0	0	0	514	517	
5	0	0	0	0	515	520	
6	0	0	0	0	515	520	
7	0	0	0	0	515	520	
8	0	0	0	0	515	523	
9	0	0	0	0	515	521	
10	0	0	0	0	515	521	
11	0	0	0	0	514	521	
12	0	0	0	0	513	519	
13	0	0	0	0	513	521	
14	0	0	0	0	513	520	
15	0	0	0	0	512	521	
0	0	0	0	0	512	524	
1	0	0	0	0	512	521	
2	0	0	0	0	512	521	
3	0	0	0	0	511	521	
4	0	0	0	0	511	519	
5	0	0	0	0	511	522	
6	0	0	0	0	510	522	
7	0	0	0	0	509	521	
8	0	0	0	0	509	524	
9	0	0	0	0	508	522	
10	0	0	0	0	509	521	
11	0	0	0	0	509	522	
12	0	0	0	0	510	519	
13	0	0	0	0	510	522	
14	0	0	0	0	512	522	
15	0	0	0	0	512	522	
0	0	0	0	0	512	524	
1	0	0	0	0	511	522	
2	0	0	0	0	511	523	
3	0	0	0	0	511	523	
4	0	0	0	0	511	519	
5	0	0	0	0	510	522	
6	0	0	0	0	509	521	
7	0	0	0	0	509	521	
8	0	0	0	0	508	524	
9	0	0	0	0	508	522	
10	0	0	0	0	509	522	
11	0	0	0	0	509	522	
12	0	0	0	0	509	519	
13	0	0	0	0	510	522	
14	0	0	0	0	510	522	
15	0	0	0	0	510	522	
0	0	0	0	0	509	524	
1	0	0	0	0	509	521	
2	0	0	0	0	509	521	
3	0	0	0	0	509	521	
4	0	0	0	0	510	519	
5	0	0	0	0	510	521	
6	0	0	0	0	510	521	
7	0	0	0	0	510	521	
8	0	0	0	0	510	523	
9	0	0	0	0	510	520	
10	0	0	0	0	509	521	
11	0	0	0	0	509	520	
12	0	0	0	0	509	518	
13	0	0	0	0	509	521	
14	0	0	0	0	508	521	
15	0	0	0	0	508	521	
0	0	0	0	0	507	524	
1	0	0	0	0	506	522	
2	0	0	0	0	505	521	
3	0	0	0	0	505	522	
4	0	0	0	0	504	519	
5	0	0	0	0	504	522	
6	0	0	0	0	504	522	
7	0	0	0	0	504	522	
8	0	0	0	0	504	525	
9	0	0	0	0	504	523	
10	0	0	0	0	504	523	
11	0	0	0	0	505	523	
12	0	0	0	0	507	520	
13	0	0	0	0	508	523	
14	0	0	0	0	509	523	
15	0	0	0	0	510	523	
0	0	0	0	0	510	526	
1	0	0	0	0	511	524	
2	0	0	0	0	511	524	
3	0	0	0	0	512	524	
4	0	0	0	0	512	520	
5	0	0	0	0	512	524	
6	0	0	0	0	512	523	
7	0	0	0	0	513	524	
8	0	0	0	0	514	526	
9	0	0	0	0	514	524	
10	0	0	0	0	513	523	
11	0	0	0	0	513	524	
12	0	0	0	0	513	521	
13	0	0	0	0	512	523	
14	0	0	0	0	510	523	
15	0	0	0	0	510	523	
0	0	0	0	0	509	525	
1	0	0	0	0	509	523	
2	0	0	0	0	509	523	
3	0	0	0	0	509	523	
4	0	0	0	0	508	519	
5	0	0	0	0	508	521	
6	0	0	0	0	509	523	
7	0	0	0	0	510	522	
8	0	0	0	0	509	524	
9	0	0	0	0	509	522	
10	0	0	0	0	508	521	
11	0	0	0	0	508	522	
12	0	0	0	0	508	519	
13	0	0	0	0	508	521	
14	0	0	0	0	507	521	
15	0	0	0	0	507	521	
0	0	0	0	0	507	523	
1	0	0	0	0	506	521	
2	0	0	0	0	505	521	
3	0	0	0	0	505	520	
4	0	0	0	0	504	518	
5	0	0	0	0	503	521	
6	0	0	0	0	503	521	
7	0	0	0	0	502	520	
8	0	0	0	0	502	523	
9	0	0	0	0	502	520	
10	0	0	0	0	502	521	
11	0	0	0	0	503	520	
12	0	0	0	0	503	518	
13	0	0	0	0	504	520	
14	0	0	0	0	504	521	
15	0	0	0	0	504	520	
0	0	0	0	0	504	523	
1	0	0	0	0	505	520	
2	0	0	0	0	505	521	
3	0	0	0	0	505	522	
4	0	0	0	0	505	518	
5	0	0	0	0	506	521	
6	0	0	0	0	506	522	
7	0	0	0	0	506	521	
8	0	0	0	0	506	524	
9	0	0	0	0	506	522	
10	0	0	0	0	506	522	
11	0	0	0	0	507	522	
12	0	0	0	0	506	519	
13	0	0	0	0	506	522	
14	0	0	0	0	506	523	
15	0	0	0	0	506	522	
0	0	0	0	0	507	525	
1	0	0	0	0	507	522	
2	0	0	0	0	507	523	
3	0	0	0	0	507	522	
4	0	0	0	0	507	519	
5	0	0	0	0	507	523	
6	0	0	0	0	507	523	
7	0	0	0	0	506	522	
8	0	0	0	0	507	524	
9	0	0	0	0	507	522	
10	0	0	0	0	507	522	
11	0	0	0	0	507	522	
12	0	0	0	0	507	519	
13	0	0	0	0	507	522	
14	0	0	0	0	508	521	
15	0	0	0	0	508	521	
0	0	0	0	0	508	523	
1	0	0	0	0	508	521	
2	0	0	0	0	509	520	
3	0	0	0	0	509	520	
4	0	0	0	0	510	517	
5	0	0	0	0	509	519	
6	0	0	0	0	509	519	
7	0	0	0	0	510	519	
8	0	0	0	0	511	521	
9	0	0	0	0	511	519	
10	0	0	0	0	511	519	
11	0	0	0	0	511	519	
12	0	0	0	0	512	517	
13	0	0	0	0	512	519	
14	0	0	0	0	512	519	
15	0	0	0	0	512	519	
0	0	0	0	0	512	522	
1	0	0	0	0	512	519	
2	0	0	0	0	512	519	
3	0	0	0	0	512	520	
4	0	0	0	0	512	517	
5	0	0	0	0	511	520	
6	0	0	0	0	510	520	
7	0	0	0	0	508	520	
8	0	0	0	0	508	522	
9	0	0	0	0	507	521	
10	0	0	0	0	507	520	
11	0	0	0	0	507	521	
12	0	0	0	0	507	518	
13	0	0	0	0	507	522	
14	0	0	0	0	507	521	
15	0	0	0	0	508	521	
0	0	0	0	0	508	524	
1	0	0	0	0	509	521	
2	0	0	0	0	509	521	
3	0	0	0	0	510	522	
4	0	0	0	0	510	519	
5	0	0	0	0	510	521	
6	0	0	0	0	510	521	
7	0	0	0	0	510	522	
8	0	0	0	0	510	525	
9	0	0	0	0	510	522	
10	0	0	0	0	511	523	
11	0	0	0	0	511	523	
12	0	0	0	0	512	520	
13	0	0	0	0	512	523	
14	0	0	0	0	512	523	
15	0	0	0	0	512	523	
0	0	0	0	0	512	525	
1	0	0	0	0	512	523	
2	0	0	0	0	512	523	
3	0	0	0	0	512	522	
4	0	0	0	0	512	520	
5	0	0	0	0	511	522	
6	0	0	0	0	512	522	
7	0	0	0	0	512	523	
8	0	0	0	0	511	524	
9	0	0	0	0	510	522	
10	0	0	0	0	509	522	
11	0	0	0	0	509	521	
12	0	0	0	0	508	519	
13	0	0	0	0	508	521	
14	0	0	0	0	508	521	
15	0	0	0	0	508	521	
0	0	0	0	0	508	523	
1	0	0	0	0	508	521	
2	0	0	0	0	508	521	
3	0	0	0	0	508	520	
4	0	0	0	0	509	518	
5	0	0	0	0	510	520	
6	0	0	0	0	510	520	
7	0	0	0	0	510	519	
8	0	0	0	0	509	522	
9	0	0	0	0	509	519	
10	0	0	0	0	508	519	
11	0	0	0	0	508	519	
12	0	0	0	0	508	517	
13	0	0	0	0	506	519	
14	0	0	0	0	506	519	
15	0	0	0	0	505	519	
0	0	0	0	0	505	522	
1	0	0	0	0	505	520	
2	0	0	0	0	504	520	
3	0	0	0	0	503	520	
4	0	0	0	0	502	518	
5	0	0	0	0	500	519	
6	0	0	0	0	499	520	
7	0	0	0	0	499	519	
8	0	0	0	0	498	523	
9	0	0	0	0	497	520	
10	0	0	0	0	498	520	
11	0	0	0	0	498	520	
12	0	0	0	0	499	518	
13	0	0	0	0	501	521	
14	0	0	0	0	503	521	
15	0	0	0	0	507	521	
0	0	0	0	0	510	523	
1	0	0	0	0	513	521	
2	0	0	0	0	517	520	
3	0	0	0	0	521	521	
4	0	0	0	0	526	519	
5	0	0	0	0	531	521	
6	0	0	0	0	536	522	
7	0	0	0	0	540	521	
8	0	0	0	0	545	524	
9	0	0	0	0	552	522	
10	0	0	0	0	559	522	
11	0	0	0	0	567	522	
12	0	0	0	0	575	520	
13	0	0	0	0	582	522	
14	0	0	0	0	590	522	
15	0	0	0	0	598	522	
0	0	0	0	0	604	524	
1	0	0	0	0	608	522	
2	0	0	0	0	610	522	
3	0	0	0	0	609	522	
4	0	0	0	0	605	519	
5	0	0	0	0	600	522	
6	0	0	0	0	596	522	
7	0	0	0	0	592	522	
8	0	0	0	0	589	524	
9	0	0	0	0	584	522	
10	0	0	0	0	579	521	
11	0	0	0	0	575	522	
12	0	0	0	0	571	518	
13	0	0	0	0	567	521	
14	0	0	0	0	565	521	
15	0	0	0	0	563	521	
0	0	0	0	0	563	523	
1	0	0	0	0	563	520	
2	0	0	0	0	563	521	
3	0	0	0	0	562	520	
4	0	0	0	0	560	518	
5	0	0	0	0	556	520	
6	0	0	0	0	553	520	
7	0	0	0	0	549	520	
8	0	0	0	0	544	522	
9	0	0	0	0	540	519	
10	0	0	0	0	536	520	
11	0	0	0	0	532	520	
12	0	0	0	0	527	518	
13	0	0	0	0	522	520	
14	0	0	0	0	517	520	
15	0	0	0	0	512	520	
0	0	0	0	0	508	523	
1	0	0	0	0	503	520	
2	0	0	0	0	499	520	
3	0	0	0	0	495	520	
4	0	0	0	0	491	519	
5	0	0	0	0	488	521	
6	0	0	0	0	486	522	
7	0	0	0	0	484	521	
8	0	0	0	0	482	524	
9	0	0	0	0	480	521	
10	0	0	0	0	480	522	
11	0	0	0	0	480	522	
12	0	0	0	0	479	520	
13	0	0	0	0	479	522	
14	0	0	0	0	479	522	
15	0	0	0	0	480	523	
0	0	0	0	0	479	525	
1	0	0	0	0	480	523	
2	0	0	0	0	480	523	
3	0	0	0	0	480	524	
4	0	0	0	0	481	521	
5	0	0	0	0	481	524	
6	0	0	0	0	482	524	
7	0	0	0	0	482	524	
8	0	0	0	0	482	526	
9	0	0	0	0	482	524	
10	0	0	0	0	481	523	
11	0	0	0	0	481	523	
12	0	0	0	0	481	520	
13	0	0	0	0	481	523	
14	0	0	0	0	481	523	
15	0	0	0	0	482	523	
0	0	0	0	0	483	525	
1	0	0	0	0	484	523	
2	0	0	0	0	485	523	
3	0	0	0	0	486	523	
4	0	0	0	0	486	521	
5	0	0	0	0	487	523	
6	0	0	0	0	487	523	
7	0	0	0	0	487	523	
8	0	0	0	0	487	526	
9	0	0	0	0	487	524	
10	0	0	0	0	486	523	
11	0	0	0	0	485	523	
12	0	0	0	0	485	519	
13	0	0	0	0	485	523	
14	0	0	0	0	485	522	
15	0	0	0	0	485	523	
0	0	0	0	0	486	524	
1	0	0	0	0	487	522	
2	0	0	0	0	487	522	
3	0	0	0	0	487	522	
4	0	0	0	0	488	519	
5	0	0	0	0	489	522	
6	0	0	0	0	489	522	
7	0	0	0	0	489	522	
8	0	0	0	0	490	524	
9	0	0	0	0	490	521	
10	0	0	0	0	489	521	
11	0	0	0	0	490	521	
12	0	0	0	0	490	519	
13	0	0	0	0	490	522	
14	0	0	0	0	491	522	
15	0	0	0	0	492	522	
0	0	0	0	0	492	524	
1	0	0	0	0	493	522	
2	0	0	0	0	493	522	
3	0	0	0	0	493	521	
4	0	0	0	0	493	519	
5	0	0	0	0	493	522	
6	0	0	0	0	493	522	
7	0	0	0	0	492	522	
8	0	0	0	0	492	524	
9	0	0	0	0	491	522	
10	0	0	0	0	490	521	
11	0	0	0	0	488	521	
12	0	0	0	0	488	518	
13	0	0	0	0	488	521	
14	0	0	0	0	488	521	
15	0	0	0	0	489	520	
0	0	0	0	0	490	523	
1	0	0	0	0	490	521	
2	0	0	0	0	491	521	
3	0	0	0	0	492	521	
4	0	0	0	0	492	519	
5	0	0	0	0	493	521	
6	0	0	0	0	493	521	
7	0	0	0	0	493	521	
8	0	0	0	0	494	524	
9	0	0	0	0	494	521	
10	0	0	0	0	494	521	
11	0	0	0	0	493	521	
12	0	0	0	0	494	518	
13	0	0	0	0	494	521	
14	0	0	0	0	494	521	
15	0	0	0	0	494	521	
0	0	0	0	0	494	524	
1	0	0	0	0	494	522	
2	0	0	0	0	495	522	
3	0	0	0	0	494	521	
4	0	0	0	0	495	519	
5	0	0	0	0	495	522	
6	0	0	0	0	496	522	
7	0	0	0	0	496	522	
8	0	0	0	0	496	523	
9	0	0	0	0	496	521	
10	0	0	0	0	496	522	
11	0	0	0	0	496	521	
12	0	0	0	0	496	518	
13	0	0	0	0	496	521	
14	0	0	0	0	496	521	
15	0	0	0	0	496	521	
0	0	0	0	0	496	523	
1	0	0	0	0	496	521	
2	0	0	0	0	496	521	
3	0	0	0	0	497	520	
4	0	0	0	0	498	519	
5	0	0	0	0	498	521	
6	0	0	0	0	499	520	
7	0	0	0	0	499	520	
8	0	0	0	0	500	523	
9	0	0	0	0	500	521	
10	0	0	0	0	501	520	
11	0	0	0	0	501	521	
12	0	0	0	0	501	518	
13	0	0	0	0	501	520	
14	0	0	0	0	502	520	
15	0	0	0	0	503	520	
0	0	0	0	0	503	522	
1	0	0	0	0	502	520	
2	0	0	0	0	502	520	
3	0	0	0	0	502	520	
4	0	0	0	0	502	518	
5	0	0	0	0	502	520	
6	0	0	0	0	501	521	
7	0	0	0	0	500	520	
8	0	0	0	0	500	522	
9	0	0	0	0	499	520	
10	0	0	0	0	500	520	
11	0	0	0	0	499	521	
12	0	0	0	0	499	517	
13	0	0	0	0	499	520	
14	0	0	0	0	500	520	
15	0	0	0	0	500	520	
0	0	0	0	0	501	523	
1	0	0	0	0	502	520	
2	0	0	0	0	503	521	
3	0	0	0	0	503	521	
4	0	0	0	0	503	518	
5	0	0	0	0	503	521	
6	0	0	0	0	503	521	
7	0	0	0	0	503	521	
8	0	0	0	0	502	523	
9	0	0	0	0	502	521	
10	0	0	0	0	502	521	
11	0	0	0	0	503	522	
12	0	0	0	0	503	519	
13	0	0	0	0	502	521	
14	0	0	0	0	503	521	
15	0	0	0	0	502	521	
0	0	0	0	0	503	524	
1	0	0	0	0	502	522	
2	0	0	0	0	502	521	
3	0	0	0	0	502	521	
4	0	0	0	0	502	519	
5	0	0	0	0	502	521	
6	0	0	0	0	502	520	
7	0	0	0	0	501	521	
8	0	0	0	0	502	523	
9	0	0	0	0	503	521	
10	0	0	0	0	504	521	
11	0	0	0	0	504	520	
12	0	0	0	0	504	519	
13	0	0	0	0	504	521	
14	0	0	0	0	504	521	
15	0	0	0	0	504	521	
0	0	0	0	0	504	523	
1	0	0	0	0	505	520	
2	0	0	0	0	505	520	
3	0	0	0	0	505	520	
4	0	0	0	0	506	518	
5	0	0	0	0	506	520	
6	0	0	0	0	506	520	
7	0	0	0	0	506	520	
8	0	0	0	0	507	522	
9	0	0	0	0	507	520	
10	0	0	0	0	507	519	
11	0	0	0	0	508	520	
12	0	0	0	0	507	517	
13	0	0	0	0	507	519	
14	0	0	0	0	507	519	
15	0	0	0	0	507	520	
0	0	0	0	0	508	523	
1	0	0	0	0	508	520	
2	0	0	0	0	508	520	
3	0	0	0	0	508	520	
4	0	0	0	0	509	518	
5	0	0	0	0	509	520	
6	0	0	0	0	510	520	
7	0	0	0	0	510	520	
8	0	0	0	0	511	523	
9	0	0	0	0	511	520	
10	0	0	0	0	512	520	
11	0	0	0	0	512	520	
12	0	0	0	0	512	518	
13	0	0	0	0	513	520	
14	0	0	0	0	513	520	
15	0	0	0	0	513	520	
0	0	0	0	0	514	523	
1	0	0	0	0	514	520	
2	0	0	0	0	514	520	
3	0	0	0	0	514	521	
4	0	0	0	0	514	519	
5	0	0	0	0	514	521	
6	0	0	0	0	514	521	
7	0	0	0	0	514	521	
8	0	0	0	0	514	523	
9	0	0	0	0	514	521	
10	0	0	0	0	514	521	
11	0	0	0	0	514	521	
12	0	0	0	0	515	518	
13	0	0	0	0	515	521	
14	0	0	0	0	516	521	
15	0	0	0	0	516	521	
0	0	0	0	0	516	523	
1	0	0	0	0	517	521	
2	0	0	0	0	517	520	
3	0	0	0	0	517	521	
4	0	0	0	0	517	518	
5	0	0	0	0	517	521	
6	0	0	0	0	517	521	
7	0	0	0	0	516	521	
8	0	0	0	0	517	523	
9	0	0	0	0	516	521	
10	0	0	0	0	516	520	
11	0	0	0	0	516	520	
12	0	0	0	0	515	518	
13	0	0	0	0	514	520	
14	0	0	0	0	513	521	
15	0	0	0	0	513	520	
0	0	0	0	0	513	523	
1	0	0	0	0	514	520	
2	0	0	0	0	515	521	
3	0	0	0	0	515	522	
4	0	0	0	0	516	519	
5	0	0	0	0	516	521	
6	0	0	0	0	516	521	
7	0	0	0	0	516	521	
8	0	0	0	0	516	524	
9	0	0	0	0	515	521	
10	0	0	0	0	515	521	
11	0	0	0	0	515	521	
12	0	0	0	0	514	519	
13	0	0	0	0	513	521	
14	0	0	0	0	513	521	
15	0	0	0	0	513	521	
0	0	0	0	0	512	524	
1	0	0	0	0	512	521	
2	0	0	0	0	512	522	
3	0	0	0	0	512	522	
4	0	0	0	0	511	519	
5	0	0	0	0	511	523	
6	0	0	0	0	510	523	
7	0	0	0	0	510	522	
8	0	0	0	0	510	524	
9	0	0	0	0	509	522	
10	0	0	0	0	509	523	
11	0	0	0	0	508	522	
12	0	0	0	0	507	520	
13	0	0	0	0	506	522	
14	0	0	0	0	505	523	
15	0	0	0	0	504	523	
0	0	0	0	0	504	525	
1	0	0	0	0	503	523	
2	0	0	0	0	502	523	
3	0	0	0	0	502	523	
4	0	0	0	0	502	520	
5	0	0	0	0	502	523	
6	0	0	0	0	502	522	
7	0	0	0	0	502	522	
8	0	0	0	0	502	524	
9	0	0	0	0	501	522	
10	0	0	0	0	501	523	
11	0	0	0	0	500	522	
12	0	0	0	0	501	519	
13	0	0	0	0	500	523	
14	0	0	0	0	499	522	
15	0	0	0	0	499	523	
0	0	0	0	0	499	524	
1	0	0	0	0	499	522	
2	0	0	0	0	499	523	
3	0	0	0	0	499	521	
4	0	0	0	0	500	519	
5	0	0	0	0	501	522	
6	0	0	0	0	502	521	
7	0	0	0	0	502	521	
8	0	0	0	0	502	524	
9	0	0	0	0	502	521	
10	0	0	0	0	502	521	
11	0	0	0	0	502	521	
12	0	0	0	0	503	518	
13	0	0	0	0	503	521	
14	0	0	0	0	504	521	
15	0	0	0	0	503	521	
0	0	0	0	0	503	523	
1	0	0	0	0	502	521	
2	0	0	0	0	502	521	
3	0	0	0	0	501	521	
4	0	0	0	0	501	519	
5	0	0	0	0	501	521	
6	0	0	0	0	501	521	
7	0	0	0	0	501	521	
8	0	0	0	0	500	524	
9	0	0	0	0	500	522	
10	0	0	0	0	500	522	
11	0	0	0	0	501	522	
12	0	0	0	0	502	519	
13	0	0	0	0	503	522	
14	0	0	0	0	503	522	
15	0	0	0	0	504	522	
0	0	0	0	0	504	524	
1	0	0	0	0	505	522	
2	0	0	0	0	505	522	
3	0	0	0	0	505	522	
4	0	0	0	0	505	519	
5	0	0	0	0	507	522	
6	0	0	0	0	508	523	
7	0	0	0	0	509	522	
8	0	0	0	0	510	525	
9	0	0	0	0	510	523	
10	0	0	0	0	511	522	
11	0	0	0	0	511	522	
12	0	0	0	0	512	520	
13	0	0	0	0	512	522	
14	0	0	0	0	512	523	
15	0	0	0	0	512	522	
0	0	0	0	0	512	524	
1	0	0	0	0	511	522	
2	0	0	0	0	511	523	
3	0	0	0	0	511	522	
4	0	0	0	0	511	519	
5	0	0	0	0	511	522	
6	0	0	0	0	511	522	
7	0	0	0	0	511	522	
8	0	0	0	0	510	524	
9	0	0	0	0	511	522	
10	0	0	0	0	511	521	
11	0	0	0	0	511	522	
12	0	0	0	0	512	520	
13	0	0	0	0	511	522	
14	0	0	0	0	512	522	
15	0	0	0	0	511	522	
0	0	0	0	0	511	524	
1	0	0	0	0	510	522	
2	0	0	0	0	510	521	
3	0	0	0	0	509	521	
4	0	0	0	0	509	519	
5	0	0	0	0	508	522	
6	0	0	0	0	507	522	
7	0	0	0	0	507	521	
8	0	0	0	0	507	523	
9	0	0	0	0	507	521	
10	0	0	0	0	508	521	
11	0	0	0	0	508	521	
12	0	0	0	0	508	519	
13	0	0	0	0	508	521	
14	0	0	0	0	508	521	
15	0	0	0	0	508	521	
0	0	0	0	0	508	524	
1	0	0	0	0	509	521	
2	0	0	0	0	509	521	
3	0	0	0	0	509	521	
4	0	0	0	0	509	518	
5	0	0	0	0	510	521	
6	0	0	0	0	509	520	
7	0	0	0	0	510	521	
8	0	0	0	0	510	524	
9	0	0	0	0	511	521	
10	0	0	0	0	512	521	
11	0	0	0	0	513	521	
12	0	0	0	0	514	518	
13	0	0	0	0	514	521	
14	0	0	0	0	514	521	
15	0	0	0	0	515	520	
0	0	0	0	0	515	524	
1	0	0	0	0	514	520	
2	0	0	0	0	514	520	
3	0	0	0	0	514	521	
4	0	0	0	0	513	518	
5	0	0	0	0	513	520	
6	0	0	0	0	513	520	
7	0	0	0	0	512	520	
8	0	0	0	0	512	523	
9	0	0	0	0	512	521	
10	0	0	0	0	512	521	
11	0	0	0	0	512	520	
12	0	0	0	0	512	518	
13	0	0	0	0	512	521	
14	0	0	0	0	512	521	
15	0	0	0	0	512	521	
0	0	0	0	0	513	524	
1	0	0	0	0	512	521	
2	0	0	0	0	513	522	
3	0	0	0	0	514	521	
4	0	0	0	0	515	518	
5	0	0	0	0	516	521	
6	0	0	0	0	517	521	
7	0	0	0	0	517	522	
8	0	0	0	0	517	525	
9	0	0	0	0	516	522	
10	0	0	0	0	516	523	
11	0	0	0	0	516	523	
12	0	0	0	0	515	519	
13	0	0	0	0	515	522	
14	0	0	0	0	516	523	
15	0	0	0	0	516	523	
0	0	0	0	0	516	525	
1	0	0	0	0	516	523	
2	0	0	0	0	516	522	
3	0	0	0	0	516	523	
4	0	0	0	0	515	520	
5	0	0	0	0	515	523	
6	0	0	0	0	515	523	
7	0	0	0	0	515	523	
8	0	0	0	0	515	526	
9	0	0	0	0	516	523	
10	0	0	0	0	517	523	
11	0	0	0	0	517	523	
12	0	0	0	0	518	520	
13	0	0	0	0	519	523	
14	0	0	0	0	519	523	
15	0	0	0	0	519	522	
0	0	0	0	0	519	524	
1	0	0	0	0	519	522	
2	0	0	0	0	519	522	
3	0	0	0	0	519	522	
4	0	0	0	0	519	519	
5	0	0	0	0	519	521	
6	0	0	0	0	518	521	
7	0	0	0	0	518	521	
8	0	0	0	0	518	524	
9	0	0	0	0	518	521	
10	0	0	0	0	517	520	
11	0	0	0	0	517	521	
12	0	0	0	0	517	518	
13	0	0	0	0	518	521	
14	0	0	0	0	518	520	
15	0	0	0	0	518	520	
0	0	0	0	0	518	522	
1	0	0	0	0	517	519	
2	0	0	0	0	517	520	
3	0	0	0	0	516	519	
4	0	0	0	0	516	517	
5	0	0	0	0	515	519	
6	0	0	0	0	515	519	
7	0	0	0	0	515	519	
8	0	0	0	0	515	521	
9	0	0	0	0	516	518	
10	0	0	0	0	516	519	
11	0	0	0	0	516	519	
12	0	0	0	0	517	515	
13	0	0	0	0	517	519	
14	0	0	0	0	518	519	
15	0	0	0	0	519	519	
0	0	0	0	0	519	520	
1	0	0	0	0	520	518	
2	0	0	0	0	520	518	
3	0	0	0	0	520	518	
4	0	0	0	0	520	516	
5	0	0	0	0	520	518	
6	0	0	0	0	521	518	
7	0	0	0	0	521	519	
8	0	0	0	0	521	521	
9	0	0	0	0	522	519	
10	0	0	0	0	522	519	
11	0	0	0	0	523	519	
12	0	0	0	0	523	516	
13	0	0	0	0	522	519	
14	0	0	0	0	522	519	
15	0	0	0	0	521	519	
0	0	0	0	0	520	523	
1	0	0	0	0	519	520	
2	0	0	0	0	519	521	
3	0	0	0	0	519	521	
4	0	0	0	0	518	518	
5	0	0	0	0	519	521	
6	0	0	0	0	519	521	
7	0	0	0	0	519	521	
8	0	0	0	0	519	524	
9	0	0	0	0	519	522	
10	0	0	0	0	520	521	
11	0	0	0	0	521	522	
12	0	0	0	0	521	519	
13	0	0	0	0	521	523	
14	0	0	0	0	521	522	
15	0	0	0	0	521	522	
0	0	0	0	0	521	525	
1	0	0	0	0	521	523	
2	0	0	0	0	521	522	
3	0	0	0	0	521	523	
4	0	0	0	0	521	519	
5	0	0	0	0	520	522	
6	0	0	0	0	518	522	
7	0	0	0	0	518	522	
8	0	0	0	0	517	524	
9	0	0	0	0	517	522	
10	0	0	0	0	517	521	
11	0	0	0	0	517	522	
12	0	0	0	0	517	519	
13	0	0	0	0	517	521	
14	0	0	0	0	518	521	
15	0	0	0	0	518	521	
0	0	0	0	0	519	524	
1	0	0	0	0	519	522	
2	0	0	0	0	520	521	
3	0	0	0	0	520	521	
4	0	0	0	0	521	519	
5	0	0	0	0	521	521	
6	0	0	0	0	521	521	
7	0	0	0	0	521	521	
8	0	0	0	0	521	524	
9	0	0	0	0	522	521	
10	0	0	0	0	521	521	
11	0	0	0	0	522	521	
12	0	0	0	0	522	518	
13	0	0	0	0	522	521	
14	0	0	0	0	522	521	
15	0	0	0	0	521	521	
0	0	0	0	0	521	523	
1	0	0	0	0	521	521	
2	0	0	0	0	520	521	
3	0	0	0	0	519	521	
4	0	0	0	0	519	518	
5	0	0	0	0	519	521	
6	0	0	0	0	519	521	
7	0	0	0	0	519	521	
8	0	0	0	0	519	524	
9	0	0	0	0	519	521	
10	0	0	0	0	519	521	
11	0	0	0	0	519	521	
12	0	0	0	0	519	519	
13	0	0	0	0	519	521	
14	0	0	0	0	519	521	
15	0	0	0	0	519	522	
0	0	0	0	0	518	524	
1	0	0	0	0	518	521	
2	0	0	0	0	516	522	
3	0	0	0	0	516	522	
4	0	0	0	0	515	519	
5	0	0	0	0	514	522	
6	0	0	0	0	515	523	
7	0	0	0	0	514	522	
8	0	0	0	0	515	524	
9	0	0	0	0	515	521	
10	0	0	0	0	516	522	
11	0	0	0	0	516	521	
12	0	0	0	0	517	519	
13	0	0	0	0	518	521	
14	0	0	0	0	518	521	
15	0	0	0	0	518	521	
0	0	0	0	0	518	524	
1	0	0	0	0	519	521	
2	0	0	0	0	519	521	
3	0	0	0	0	519	521	
4	0	0	0	0	519	518	
5	0	0	0	0	519	521	
6	0	0	0	0	518	520	
7	0	0	0	0	518	521	
8	0	0	0	0	517	523	
9	0	0	0	0	516	521	
10	0	0	0	0	517	520	
11	0	0	0	0	516	521	
12	0	0	0	0	516	518	
13	0	0	0	0	516	520	
14	0	0	0	0	515	520	
15	0	0	0	0	515	520	
0	0	0	0	0	514	522	
1	0	0	0	0	513	520	
2	0	0	0	0	513	520	
3	0	0	0	0	513	520	
4	0	0	0	0	512	518	
5	0	0	0	0	512	520	
6	0	0	0	0	512	520	
7	0	0	0	0	512	521	
8	0	0	0	0	512	523	
9	0	0	0	0	513	521	
10	0	0	0	0	512	521	
11	0	0	0	0	512	520	
12	0	0	0	0	513	518	
13	0	0	0	0	512	520	
14	0	0	0	0	513	520	
15	0	0	0	0	513	520	
0	0	0	0	0	513	523	
1	0	0	0	0	513	521	
2	0	0	0	0	513	521	
3	0	0	0	0	514	521	
4	0	0	0	0	513	518	
5	0	0	0	0	514	521	
6	0	0	0	0	514	521	
7	0	0	0	0	513	521	
8	0	0	0	0	513	524	
9	0	0	0	0	513	523	
10	0	0	0	0	513	523	
11	0	0	0	0	514	522	
12	0	0	0	0	515	519	
13	0	0	0	0	515	522	
14	0	0	0	0	515	522	
15	0	0	0	0	516	523	
0	0	0	0	0	517	525	
1	0	0	0	0	516	521	
2	0	0	0	0	515	522	
3	0	0	0	0	515	521	
4	0	0	0	0	513	518	
5	0	0	0	0	514	521	
6	0	0	0	0	514	522	
7	0	0	0	0	515	521	
8	0	0	0	0	515	524	
9	0	0	0	0	516	521	
10	0	0	0	0	516	522	
11	0	0	0	0	517	522	
12	0	0	0	0	517	519	
13	0	0	0	0	518	522	
14	0	0	0	0	517	521	
15	0	0	0	0	517	521	
0	0	0	0	0	516	524	
1	0	0	0	0	516	522	
2	0	0	0	0	516	522	
3	0	0	0	0	515	521	
4	0	0	0	0	515	519	
5	0	0	0	0	515	521	
6	0	0	0	0	515	521	
7	0	0	0	0	515	522	
8	0	0	0	0	514	524	
9	0	0	0	0	514	522	
10	0	0	0	0	513	522	
11	0	0	0	0	512	521	
12	0	0	0	0	512	519	
13	0	0	0	0	511	522	
14	0	0	0	0	511	522	
15	0	0	0	0	510	522	
0	0	0	0	0	509	524	
1	0	0	0	0	509	521	
2	0	0	0	0	508	522	
3	0	0	0	0	508	522	
4	0	0	0	0	508	519	
5	0	0	0	0	509	522	
6	0	0	0	0	510	522	
7	0	0	0	0	511	522	
8	0	0	0	0	512	524	
9	0	0	0	0	512	522	
10	0	0	0	0	513	522	
11	0	0	0	0	512	522	
12	0	0	0	0	513	519	
13	0	0	0	0	513	522	
14	0	0	0	0	513	521	
15	0	0	0	0	513	522	
0	0	0	0	0	514	525	
1	0	0	0	0	514	522	
2	0	0	0	0	514	522	
3	0	0	0	0	515	522	
4	0	0	0	0	514	520	
5	0	0	0	0	514	522	
6	0	0	0	0	513	522	
7	0	0	0	0	513	522	
8	0	0	0	0	513	525	
9	0	0	0	0	512	523	
10	0	0	0	0	512	523	
11	0	0	0	0	512	523	
12	0	0	0	0	512	520	
13	0	0	0	0	512	523	
14	0	0	0	0	512	522	
15	0	0	0	0	511	523	
0	0	0	0	0	511	524	
1	0	0	0	0	511	522	
2	0	0	0	0	510	522	
3	0	0	0	0	511	522	
4	0	0	0	0	511	519	
5	0	0	0	0	511	521	
6	0	0	0	0	511	522	
7	0	0	0	0	511	521	
8	0	0	0	0	510	524	
9	0	0	0	0	510	521	
10	0	0	0	0	510	521	
11	0	0	0	0	510	521	
12	0	0	0	0	510	519	
13	0	0	0	0	510	520	
14	0	0	0	0	510	521	
15	0	0	0	0	510	521	
0	0	0	0	0	510	523	
1	0	0	0	0	510	521	
2	0	0	0	0	510	521	
3	0	0	0	0	509	521	
4	0	0	0	0	508	519	
5	0	0	0	0	507	521	
6	0	0	0	0	505	521	
7	0	0	0	0	504	521	
8	0	0	0	0	504	524	
9	0	0	0	0	504	521	
10	0	0	0	0	504	522	
11	0	0	0	0	503	521	
12	0	0	0	0	503	519	
13	0	0	0	0	503	521	
14	0	0	0	0	503	522	
15	0	0	0	0	502	521	
0	0	0	0	0	503	524	
1	0	0	0	0	504	522	
2	0	0	0	0	504	521	
3	0	0	0	0	504	522	
4	0	0	0	0	504	519	
5	0	0	0	0	504	522	
6	0	0	0	0	504	522	
7	0	0	0	0	504	522	
8	0	0	0	0	503	524	
9	0	0	0	0	504	522	
10	0	0	0	0	504	522	
11	0	0	0	0	505	522	
12	0	0	0	0	505	519	
13	0	0	0	0	506	522	
14	0	0	0	0	507	522	
15	0	0	0	0	508	522	
0	0	0	0	0	509	525	
1	0	0	0	0	510	522	
2	0	0	0	0	511	522	
3	0	0	0	0	512	522	
4	0	0	0	0	512	519	
5	0	0	0	0	513	522	
6	0	0	0	0	514	523	
7	0	0	0	0	514	523	
8	0	0	0	0	515	525	
9	0	0	0	0	515	522	
10	0	0	0	0	515	522	
11	0	0	0	0	514	522	
12	0	0	0	0	514	519	
13	0	0	0	0	514	521	
14	0	0	0	0	512	521	
15	0	0	0	0	511	521	
0	0	0	0	0	510	523	
1	0	0	0	0	509	520	
2	0	0	0	0	508	521	
3	0	0	0	0	508	520	
4	0	0	0	0	508	519	
5	0	0	0	0	509	521	
6	0	0	0	0	510	521	
7	0	0	0	0	510	520	
8	0	0	0	0	511	523	
9	0	0	0	0	511	521	
10	0	0	0	0	512	521	
11	0	0	0	0	512	521	
12	0	0	0	0	512	518	
13	0	0	0	0	512	521	
14	0	0	0	0	513	521	
15	0	0	0	0	512	521	
0	0	0	0	0	512	524	
1	0	0	0	0	513	521	
2	0	0	0	0	513	521	
3	0	0	0	0	513	521	
4	0	0	0	0	513	519	
5	0	0	0	0	513	521	
6	0	0	0	0	512	521	
7	0	0	0	0	512	521	
8	0	0	0	0	511	524	
9	0	0	0	0	510	521	
10	0	0	0	0	509	521	
11	0	0	0	0	509	521	
12	0	0	0	0	509	519	
13	0	0	0	0	508	521	
14	0	0	0	0	508	521	
15	0	0	0	0	508	520	
0	0	0	0	0	508	523	
1	0	0	0	0	509	520	
2	0	0	0	0	509	521	
3	0	0	0	0	509	520	
4	0	0	0	0	510	519	
5	0	0	0	0	510	521	
6	0	0	0	0	510	521	
7	0	0	0	0	511	521	
8	0	0	0	0	512	523	
9	0	0	0	0	512	521	
10	0	0	0	0	512	521	
11	0	0	0	0	512	521	
12	0	0	0	0	512	518	
13	0	0	0	0	512	521	
14	0	0	0	0	511	521	
15	0	0	0	0	511	521	
0	0	0	0	0	511	523	
1	0	0	0	0	511	521	
2	0	0	0	0	511	521	
3	0	0	0	0	510	521	
4	0	0	0	0	511	518	
5	0	0	0	0	510	520	
6	0	0	0	0	510	521	
7	0	0	0	0	510	520	
8	0	0	0	0	510	523	
9	0	0	0	0	510	521	
10	0	0	0	0	511	520	
11	0	0	0	0	512	520	
12	0	0	0	0	512	518	
13	0	0	0	0	512	520	
14	0	0	0	0	513	520	
15	0	0	0	0	514	520	
0	0	0	0	0	515	524	
1	0	0	0	0	515	521	
2	0	0	0	0	516	520	
3	0	0	0	0	516	521	
4	0	0	0	0	517	519	
5	0	0	0	0	516	521	
6	0	0	0	0	517	521	
7	0	0	0	0	518	521	
8	0	0	0	0	517	523	
9	0	0	0	0	517	521	
10	0	0	0	0	516	521	
11	0	0	0	0	515	520	
12	0	0	0	0	515	519	
13	0	0	0	0	515	522	
14	0	0	0	0	516	521	
15	0	0	0	0	516	522	
0	0	0	0	0	516	524	
1	0	0	0	0	516	522	
2	0	0	0	0	515	521	
3	0	0	0	0	515	522	
4	0	0	0	0	513	519	
5	0	0	0	0	513	521	
6	0	0	0	0	512	522	
7	0	0	0	0	511	522	
8	0	0	0	0	510	524	
9	0	0	0	0	508	521	
10	0	0	0	0	505	521	
11	0	0	0	0	504	522	
12	0	0	0	0	502	519	
13	0	0	0	0	500	522	
14	0	0	0	0	499	522	
15	0	0	0	0	497	522	
0	0	0	0	0	496	524	
1	0	0	0	0	496	522	
2	0	0	0	0	496	522	
3	0	0	0	0	497	521	
4	0	0	0	0	499	519	
5	0	0	0	0	502	521	
6	0	0	0	0	505	521	
7	0	0	0	0	508	522	
8	0	0	0	0	512	524	
9	0	0	0	0	516	522	
10	0	0	0	0	520	521	
11	0	0	0	0	526	522	
12	0	0	0	0	534	519	
13	0	0	0	0	540	521	
14	0	0	0	0	545	522	
15	0	0	0	0	550	521	
0	0	0	0	0	554	524	
1	0	0	0	0	560	521	
2	0	0	0	0	568	522	
3	0	0	0	0	574	521	
4	0	0	0	0	581	519	
5	0	0	0	0	588	521	
6	0	0	0	0	594	521	
7	0	0	0	0	600	521	
8	0	0	0	0	602	524	
9	0	0	0	0	602	521	
10	0	0	0	0	600	521	
11	0	0	0	0	594	522	
12	0	0	0	0	585	519	
13	0	0	0	0	574	521	
14	0	0	0	0	564	521	
15	0	0	0	0	556	520	
0	0	0	0	0	548	523	
1	0	0	0	0	540	521	
2	0	0	0	0	534	522	
3	0	0	0	0	529	521	
4	0	0	0	0	527	519	
5	0	0	0	0	526	522	
6	0	0	0	0	526	521	
7	0	0	0	0	526	521	
8	0	0	0	0	527	524	
9	0	0	0	0	528	521	
10	0	0	0	0	529	521	
11	0	0	0	0	531	521	
12	0	0	0	0	530	518	
13	0	0	0	0	529	521	
14	0	0	0	0	527	520	
15	0	0	0	0	526	520	
0	0	0	0	0	526	523	
1	0	0	0	0	525	521	
2	0	0	0	0	525	521	
3	0	0	0	0	524	520	
4	0	0	0	0	523	518	
5	0	0	0	0	521	520	
6	0	0	0	0	520	520	
7	0	0	0	0	518	521	
8	0	0	0	0	516	524	
9	0	0	0	0	513	521	
10	0	0	0	0	511	521	
11	0	0	0	0	508	521	
12	0	0	0	0	505	519	
13	0	0	0	0	503	521	
14	0	0	0	0	500	522	
15	0	0	0	0	499	521	
0	0	0	0	0	498	524	
1	0	0	0	0	497	521	
2	0	0	0	0	497	521	
3	0	0	0	0	496	521	
4	0	0	0	0	496	519	
5	0	0	0	0	495	521	
6	0	0	0	0	495	522	
7	0	0	0	0	496	522	
8	0	0	0	0	497	524	
9	0	0	0	0	497	522	
10	0	0	0	0	497	522	
11	0	0	0	0	498	521	
12	0	0	0	0	499	518	
13	0	0	0	0	498	521	
14	0	0	0	0	498	521	
15	0	0	0	0	497	521	
0	0	0	0	0	497	524	
1	0	0	0	0	497	522	
2	0	0	0	0	496	521	
3	0	0	0	0	496	521	
4	0	0	0	0	496	519	
5	0	0	0	0	495	521	
6	0	0	0	0	496	521	
7	0	0	0	0	495	521	
8	0	0	0	0	495	524	
9	0	0	0	0	495	521	
10	0	0	0	0	495	521	
11	0	0	0	0	495	521	
12	0	0	0	0	494	519	
13	0	0	0	0	494	521	
14	0	0	0	0	494	520	
15	0	0	0	0	494	521	
0	0	0	0	0	495	523	
1	0	0	0	0	496	521	
2	0	0	0	0	496	521	
3	0	0	0	0	496	521	
4	0	0	0	0	496	518	
5	0	0	0	0	497	521	
6	0	0	0	0	496	521	
7	0	0	0	0	497	522	
8	0	0	0	0	498	524	
9	0	0	0	0	498	521	
10	0	0	0	0	499	521	
11	0	0	0	0	499	521	
12	0	0	0	0	500	518	
13	0	0	0	0	500	521	
14	0	0	0	0	501	521	
15	0	0	0	0	501	521	
0	0	0	0	0	501	523	
1	0	0	0	0	501	521	
2	0	0	0	0	501	521	
3	0	0	0	0	500	521	
4	0	0	0	0	499	518	
5	0	0	0	0	499	521	
6	0	0	0	0	499	521	
7	0	0	0	0	499	521	
8	0	0	0	0	500	524	
9	0	0	0	0	500	522	
10	0	0	0	0	501	522	
11	0	0	0	0	503	522	
12	0	0	0	0	503	519	
13	0	0	0	0	504	523	
14	0	0	0	0	505	522	
15	0	0	0	0	505	522	
0	0	0	0	0	505	524	
1	0	0	0	0	504	521	
2	0	0	0	0	504	522	
3	0	0	0	0	505	522	
4	0	0	0	0	504	519	
5	0	0	0	0	504	521	
6	0	0	0	0	504	522	
7	0	0	0	0	504	521	
8	0	0	0	0	504	524	
9	0	0	0	0	503	522	
10	0	0	0	0	503	523	
11	0	0	0	0	502	522	
12	0	0	0	0	502	519	
13	0	0	0	0	502	522	
14	0	0	0	0	503	521	
15	0	0	0	0	504	522	
0	0	0	0	0	504	525	
1	0	0	0	0	504	522	
2	0	0	0	0	505	523	
3	0	0	0	0	505	522	
4	0	0	0	0	506	519	
5	0	0	0	0	506	522	
6	0	0	0	0	507	522	
7	0	0	0	0	507	523	
8	0	0	0	0	507	524	
9	0	0	0	0	506	522	
10	0	0	0	0	506	521	
11	0	0	0	0	506	521	
12	0	0	0	0	506	519	
13	0	0	0	0	506	521	
14	0	0	0	0	507	521	
15	0	0	0	0	508	522	
0	0	0	0	0	508	524	
1	0	0	0	0	509	521	
2	0	0	0	0	510	522	
3	0	0	0	0	511	522	
4	0	0	0	0	511	519	
5	0	0	0	0	511	521	
6	0	0	0	0	512	520	
7	0	0	0	0	511	521	
8	0	0	0	0	512	523	
9	0	0	0	0	512	522	
10	0	0	0	0	512	521	
11	0	0	0	0	513	521	
12	0	0	0	0	514	519	
13	0	0	0	0	515	521	
14	0	0	0	0	516	522	
15	0	0	0	0	516	522	
0	0	0	0	0	516	524	
1	0	0	0	0	517	522	
2	0	0	0	0	518	522	
3	0	0	0	0	518	522	
4	0	0	0	0	517	520	
5	0	0	0	0	516	522	
6	0	0	0	0	516	522	
7	0	0	0	0	515	522	
8	0	0	0	0	515	524	
9	0	0	0	0	515	522	
10	0	0	0	0	515	522	
11	0	0	0	0	515	522	
12	0	0	0	0	515	519	
13	0	0	0	0	515	522	
14	0	0	0	0	515	523	
15	0	0	0	0	514	521	
0	0	0	0	0	514	524	
1	0	0	0	0	514	522	
2	0	0	0	0	514	522	
3	0	0	0	0	514	522	
4	0	0	0	0	514	519	
5	0	0	0	0	514	521	
6	0	0	0	0	514	523	
7	0	0	0	0	513	522	
8	0	0	0	0	513	524	
9	0	0	0	0	513	522	
10	0	0	0	0	512	521	
11	0	0	0	0	512	521	
12	0	0	0	0	512	519	
13	0	0	0	0	512	521	
14	0	0	0	0	512	522	
15	0	0	0	0	512	522	
0	0	0	0	0	512	525	
1	0	0	0	0	512	522	
2	0	0	0	0	513	522	
3	0	0	0	0	513	522	
4	0	0	0	0	513	520	
5	0	0	0	0	515	523	
6	0	0	0	0	515	522	
7	0	0	0	0	516	521	
8	0	0	0	0	517	524	
9	0	0	0	0	518	522	
10	0	0	0	0	518	521	
11	0	0	0	0	518	521	
12	0	0	0	0	519	519	
13	0	0	0	0	519	522	
14	0	0	0	0	518	521	
15	0	0	0	0	518	521	
0	0	0	0	0	518	523	
1	0	0	0	0	519	521	
2	0	0	0	0	520	521	
3	0	0	0	0	521	521	
4	0	0	0	0	521	518	
5	0	0	0	0	522	521	
6	0	0	0	0	523	521	
7	0	0	0	0	524	521	
8	0	0	0	0	523	523	
9	0	0	0	0	523	520	
10	0	0	0	0	523	520	
11	0	0	0	0	524	520	
12	0	0	0	0	524	518	
13	0	0	0	0	524	521	
14	0	0	0	0	524	521	
15	0	0	0	0	523	520	
0	0	0	0	0	523	523	
1	0	0	0	0	523	521	
2	0	0	0	0	524	521	
3	0	0	0	0	523	521	
4	0	0	0	0	523	519	
5	0	0	0	0	523	521	
6	0	0	0	0	524	521	
7	0	0	0	0	525	521	
8	0	0	0	0	526	524	
9	0	0	0	0	526	521	
10	0	0	0	0	526	522	
11	0	0	0	0	527	521	
12	0	0	0	0	527	519	
13	0	0	0	0	527	522	
14	0	0	0	0	527	521	
15	0	0	0	0	528	521	
0	0	0	0	0	529	524	
1	0	0	0	0	530	523	
2	0	0	0	0	530	522	
3	0	0	0	0	530	522	
4	0	0	0	0	531	519	
5	0	0	0	0	531	522	
6	0	0	0	0	531	521	
7	0	0	0	0	531	522	
8	0	0	0	0	531	524	
9	0	0	0	0	531	522	
10	0	0	0	0	530	522	
11	0	0	0	0	530	522	
12	0	0	0	0	529	519	
13	0	0	0	0	528	521	
14	0	0	0	0	527	521	
15	0	0	0	0	527	522	
0	0	0	0	0	527	524	
1	0	0	0	0	527	522	
2	0	0	0	0	527	522	
3	0	0	0	0	526	521	
4	0	0	0	0	526	519	
5	0	0	0	0	526	522	
6	0	0	0	0	526	522	
7	0	0	0	0	526	522	
8	0	0	0	0	525	524	
9	0	0	0	0	525	521	
10	0	0	0	0	525	521	
11	0	0	0	0	526	521	
12	0	0	0	0	526	518	
13	0	0	0	0	527	521	
14	0	0	0	0	527	521	
15	0	0	0	0	527	522	
0	0	0	0	0	527	524	
1	0	0	0	0	527	521	
2	0	0	0	0	527	521	
3	0	0	0	0	527	521	
4	0	0	0	0	526	518	
5	0	0	0	0	525	521	
6	0	0	0	0	524	521	
7	0	0	0	0	524	521	
8	0	0	0	0	523	524	
9	0	0	0	0	522	521	
10	0	0	0	0	521	521	
11	0	0	0	0	520	521	
12	0	0	0	0	520	519	
13	0	0	0	0	519	521	
14	0	0	0	0	518	521	
15	0	0	0	0	518	522	
0	0	0	0	0	516	523	
1	0	0	0	0	516	521	
2	0	0	0	0	516	521	
3	0	0	0	0	515	521	
4	0	0	0	0	515	518	
5	0	0	0	0	515	521	
6	0	0	0	0	514	521	
7	0	0	0	0	513	521	
8	0	0	0	0	513	523	
9	0	0	0	0	512	521	
10	0	0	0	0	512	521	
11	0	0	0	0	511	521	
12	0	0	0	0	511	518	
13	0	0	0	0	510	520	
14	0	0	0	0	509	520	
15	0	0	0	0	508	521	
0	0	0	0	0	507	524	
1	0	0	0	0	507	521	
2	0	0	0	0	507	521	
3	0	0	0	0	506	521	
4	0	0	0	0	505	518	
5	0	0	0	0	505	521	
6	0	0	0	0	505	521	
7	0	0	0	0	505	521	
8	0	0	0	0	505	524	
9	0	0	0	0	505	521	
10	0	0	0	0	504	521	
11	0	0	0	0	503	521	
12	0	0	0	0	503	519	
13	0	0	0	0	503	520	
14	0	0	0	0	503	521	
15	0	0	0	0	504	520	
0	0	0	0	0	504	523	
1	0	0	0	0	505	520	
2	0	0	0	0	506	520	
3	0	0	0	0	506	520	
4	0	0	0	0	507	518	
5	0	0	0	0	507	521	
6	0	0	0	0	508	521	
7	0	0	0	0	509	521	
8	0	0	0	0	509	524	
9	0	0	0	0	510	522	
10	0	0	0	0	510	522	
11	0	0	0	0	512	521	
12	0	0	0	0	512	519	
13	0	0	0	0	512	523	
14	0	0	0	0	513	522	
15	0	0	0	0	514	523	
0	0	0	0	0	514	525	
1	0	0	0	0	514	523	
2	0	0	0	0	514	524	
3	0	0	0	0	513	522	
4	0	0	0	0	513	520	
5	0	0	0	0	512	523	
6	0	0	0	0	512	522	
7	0	0	0	0	511	523	
8	0	0	0	0	511	525	
9	0	0	0	0	511	523	
10	0	0	0	0	511	523	
11	0	0	0	0	512	523	
12	0	0	0	0	511	519	
13	0	0	0	0	511	523	
14	0	0	0	0	511	523	
15	0	0	0	0	511	523	
0	0	0	0	0	511	525	
1	0	0	0	0	511	522	
2	0	0	0	0	512	522	
3	0	0	0	0	512	522	
4	0	0	0	0	511	519	
5	0	0	0	0	510	522	
6	0	0	0	0	509	523	
7	0	0	0	0	508	522	
8	0	0	0	0	507	525	
9	0	0	0	0	504	522	
10	0	0	0	0	504	523	
11	0	0	0	0	503	522	
12	0	0	0	0	502	519	
13	0	0	0	0	503	522	
14	0	0	0	0	504	521	
15	0	0	0	0	505	522	
0	0	0	0	0	506	524	
1	0	0	0	0	507	522	
2	0	0	0	0	508	522	
3	0	0	0	0	509	522	
4	0	0	0	0	509	519	
5	0	0	0	0	510	522	
6	0	0	0	0	511	522	
7	0	0	0	0	513	521	
8	0	0	0	0	514	524	
9	0	0	0	0	516	522	
10	0	0	0	0	517	522	
11	0	0	0	0	518	521	
12	0	0	0	0	518	519	
13	0	0	0	0	518	522	
14	0	0	0	0	518	522	
15	0	0	0	0	518	521	
0	0	0	0	0	518	524	
1	0	0	0	0	518	522	
2	0	0	0	0	518	523	
3	0	0	0	0	517	523	
4	0	0	0	0	516	520	
5	0	0	0	0	514	523	
6	0	0	0	0	513	523	
7	0	0	0	0	512	523	
8	0	0	0	0	510	525	
9	0	0	0	0	509	523	
10	0	0	0	0	509	523	
11	0	0	0	0	509	523	
12	0	0	0	0	509	519	
13	0	0	0	0	510	523	
14	0	0	0	0	510	523	
15	0	0	0	0	511	523	
0	0	0	0	0	511	526	
1	0	0	0	0	512	523	
2	0	0	0	0	512	524	
3	0	0	0	0	513	523	
4	0	0	0	0	514	520	
5	0	0	0	0	515	523	
6	0	0	0	0	515	522	
7	0	0	0	0	514	522	
8	0	0	0	0	512	524	
9	0	0	0	0	512	522	
10	0	0	0	0	513	522	
11	0	0	0	0	514	522	
12	0	0	0	0	515	519	
13	0	0	0	0	516	521	
14	0	0	0	0	516	522	
15	0	0	0	0	517	521	
0	0	0	0	0	518	523	
1	0	0	0	0	518	521	
2	0	0	0	0	519	522	
3	0	0	0	0	519	522	
4	0	0	0	0	519	519	
5	0	0	0	0	519	521	
6	0	0	0	0	520	521	
7	0	0	0	0	520	521	
8	0	0	0	0	520	523	
9	0	0	0	0	521	521	
10	0	0	0	0	521	521	
11	0	0	0	0	522	521	
12	0	0	0	0	522	518	
13	0	0	0	0	523	521	
14	0	0	0	0	523	521	
15	0	0	0	0	523	520	
0	0	0	0	0	524	524	
1	0	0	0	0	523	521	
2	0	0	0	0	523	521	
3	0	0	0	0	524	521	
4	0	0	0	0	524	519	
5	0	0	0	0	524	521	
6	0	0	0	0	524	521	
7	0	0	0	0	525	522	
8	0	0	0	0	526	524	
9	0	0	0	0	526	522	
10	0	0	0	0	527	521	
11	0	0	0	0	527	522	
12	0	0	0	0	527	519	
13	0	0	0	0	526	522	
14	0	0	0	0	525	522	
15	0	0	0	0	525	522	
0	0	0	0	0	524	524	
1	0	0	0	0	523	522	
2	0	0	0	0	521	522	
3	0	0	0	0	520	522	
4	0	0	0	0	519	519	
5	0	0	0	0	519	523	
6	0	0	0	0	519	523	
7	0	0	0	0	519	522	
8	0	0	0	0	519	526	
9	0	0	0	0	520	523	
10	0	0	0	0	521	523	
11	0	0	0	0	522	523	
12	0	0	0	0	523	521	
13	0	0	0	0	523	524	
14	0	0	0	0	524	523	
15	0	0	0	0	524	522	
0	0	0	0	0	524	525	
1	0	0	0	0	525	523	
2	0	0	0	0	526	522	
3	0	0	0	0	527	523	
4	0	0	0	0	527	520	
5	0	0	0	0	527	523	
6	0	0	0	0	527	523	
7	0	0	0	0	527	523	
8	0	0	0	0	527	526	
9	0	0	0	0	527	523	
10	0	0	0	0	526	522	
11	0	0	0	0	526	522	
12	0	0	0	0	525	520	
13	0	0	0	0	524	522	
14	0	0	0	0	523	522	
15	0	0	0	0	523	522	
0	0	0	0	0	523	524	
1	0	0	0	0	522	521	
2	0	0	0	0	521	521	
3	0	0	0	0	521	522	
4	0	0	0	0	521	519	
5	0	0	0	0	521	521	
6	0	0	0	0	520	521	
7	0	0	0	0	520	521	
8	0	0	0	0	519	523	
9	0	0	0	0	519	521	
10	0	0	0	0	520	521	
11	0	0	0	0	520	520	
12	0	0	0	0	520	518	
13	0	0	0	0	520	520	
14	0	0	0	0	521	520	
15	0	0	0	0	521	520	
0	0	0	0	0	521	522	
1	0	0	0	0	521	520	
2	0	0	0	0	522	520	
3	0	0	0	0	522	519	
4	0	0	0	0	522	518	
5	0	0	0	0	521	519	
6	0	0	0	0	521	519	
7	0	0	0	0	521	519	
8	0	0	0	0	521	522	
9	0	0	0	0	522	519	
10	0	0	0	0	523	519	
11	0	0	0	0	523	519	
12	0	0	0	0	523	517	
13	0	0	0	0	523	520	
14	0	0	0	0	523	519	
15	0	0	0	0	523	519	
0	0	0	0	0	524	522	
1	0	0	0	0	524	519	
2	0	0	0	0	524	519	
3	0	0	0	0	523	520	
4	0	0	0	0	523	517	
5	0	0	0	0	523	520	
6	0	0	0	0	522	520	
7	0	0	0	0	522	520	
8	0	0	0	0	522	522	
9	0	0	0	0	522	519	
10	0	0	0	0	523	520	
11	0	0	0	0	524	520	
12	0	0	0	0	524	518	
13	0	0	0	0	524	520	
14	0	0	0	0	525	520	
15	0	0	0	0	525	520	
0	0	0	0	0	525	523	
1	0	0	0	0	525	520	
2	0	0	0	0	525	520	
3	0	0	0	0	526	520	
4	0	0	0	0	526	518	
5	0	0	0	0	526	520	
6	0	0	0	0	525	521	
7	0	0	0	0	525	521	
8	0	0	0	0	525	524	
9	0	0	0	0	525	521	
10	0	0	0	0	524	521	
11	0	0	0	0	524	521	
12	0	0	0	0	524	519	
13	0	0	0	0	523	521	
14	0	0	0	0	523	521	
15	0	0	0	0	523	521	
0	0	0	0	0	522	524	
1	0	0	0	0	522	522	
2	0	0	0	0	522	521	
3	0	0	0	0	522	521	
4	0	0	0	0	523	519	
5	0	0	0	0	523	521	
6	0	0	0	0	523	521	
7	0	0	0	0	524	521	
8	0	0	0	0	524	524	
9	0	0	0	0	524	520	
10	0	0	0	0	525	520	
11	0	0	0	0	525	520	
12	0	0	0	0	525	518	
13	0	0	0	0	525	520	
14	0	0	0	0	525	521	
15	0	0	0	0	525	521	
0	0	0	0	0	524	523	
1	0	0	0	0	524	520	
2	0	0	0	0	524	520	
3	0	0	0	0	523	521	
4	0	0	0	0	523	518	
5	0	0	0	0	522	521	
6	0	0	0	0	521	521	
7	0	0	0	0	520	520	
8	0	0	0	0	520	523	
9	0	0	0	0	519	520	
10	0	0	0	0	519	520	
11	0	0	0	0	519	520	
12	0	0	0	0	519	518	
13	0	0	0	0	520	520	
14	0	0	0	0	519	521	
15	0	0	0	0	519	521	
0	0	0	0	0	519	523	
1	0	0	0	0	518	521	
2	0	0	0	0	518	521	
3	0	0	0	0	519	521	
4	0	0	0	0	519	518	
5	0	0	0	0	519	521	
6	0	0	0	0	519	521	
7	0	0	0	0	519	521	
8	0	0	0	0	520	524	
9	0	0	0	0	520	521	
10	0	0	0	0	519	520	
11	0	0	0	0	519	520	
12	0	0	0	0	519	518	
13	0	0	0	0	519	521	
14	0	0	0	0	519	521	
15	0	0	0	0	519	521	
0	0	0	0	0	518	524	
1	0	0	0	0	516	521	
2	0	0	0	0	515	521	
3	0	0	0	0	514	521	
4	0	0	0	0	513	519	
5	0	0	0	0	513	521	
6	0	0	0	0	514	520	
7	0	0	0	0	513	520	
8	0	0	0	0	515	523	
9	0	0	0	0	515	521	
10	0	0	0	0	516	521	
11	0	0	0	0	517	521	
12	0	0	0	0	517	518	
13	0	0	0	0	518	522	
14	0	0	0	0	518	522	
15	0	0	0	0	518	521	
0	0	0	0	0	517	524	
1	0	0	0	0	517	521	
2	0	0	0	0	517	521	
3	0	0	0	0	517	522	
4	0	0	0	0	517	520	
5	0	0	0	0	516	522	
6	0	0	0	0	516	522	
7	0	0	0	0	516	521	
8	0	0	0	0	517	524	
9	0	0	0	0	516	521	
10	0	0	0	0	515	521	
11	0	0	0	0	515	521	
12	0	0	0	0	515	519	
13	0	0	0	0	514	521	
14	0	0	0	0	513	521	
15	0	0	0	0	513	521	
0	0	0	0	0	514	524	
1	0	0	0	0	515	521	
2	0	0	0	0	514	520	
3	0	0	0	0	515	520	
4	0	0	0	0	516	519	
5	0	0	0	0	515	521	
6	0	0	0	0	516	521	
7	0	0	0	0	515	520	
8	0	0	0	0	516	523	
9	0	0	0	0	516	521	
10	0	0	0	0	516	521	
11	0	0	0	0	517	521	
12	0	0	0	0	517	518	
13	0	0	0	0	518	521	
14	0	0	0	0	518	521	
15	0	0	0	0	518	521	
0	0	0	0	0	519	524	
1	0	0	0	0	519	521	
2	0	0	0	0	519	521	
3	0	0	0	0	519	521	
4	0	0	0	0	519	519	
5	0	0	0	0	519	522	
6	0	0	0	0	518	521	
7	0	0	0	0	518	521	
8	0	0	0	0	518	525	
9	0	0	0	0	517	522	
10	0	0	0	0	516	521	
11	0	0	0	0	515	521	
12	0	0	0	0	515	520	
13	0	0	0	0	515	522	
14	0	0	0	0	515	522	
15	0	0	0	0	515	522	
0	0	0	0	0	515	525	
1	0	0	0	0	515	523	
2	0	0	0	0	516	523	
3	0	0	0	0	516	522	
4	0	0	0	0	517	520	
5	0	0	0	0	517	523	
6	0	0	0	0	517	523	
7	0	0	0	0	517	523	
8	0	0	0	0	518	525	
9	0	0	0	0	517	523	
10	0	0	0	0	517	522	
11	0	0	0	0	517	522	
12	0	0	0	0	517	519	
13	0	0	0	0	517	522	
14	0	0	0	0	516	522	
15	0	0	0	0	516	522	
0	0	0	0	0	516	525	
1	0	0	0	0	516	522	
2	0	0	0	0	515	523	
3	0	0	0	0	515	522	
4	0	0	0	0	516	520	
5	0	0	0	0	516	522	
6	0	0	0	0	515	522	
7	0	0	0	0	515	522	
8	0	0	0	0	516	524	
9	0	0	0	0	515	521	
10	0	0	0	0	515	521	
11	0	0	0	0	515	521	
12	0	0	0	0	513	519	
13	0	0	0	0	512	522	
14	0	0	0	0	512	521	
15	0	0	0	0	510	521	
0	0	0	0	0	509	524	
1	0	0	0	0	509	521	
2	0	0	0	0	508	521	
3	0	0	0	0	508	521	
4	0	0	0	0	508	519	
5	0	0	0	0	508	521	
6	0	0	0	0	509	521	
7	0	0	0	0	509	521	
8	0	0	0	0	510	524	
9	0	0	0	0	510	522	
10	0	0	0	0	510	522	
11	0	0	0	0	509	522	
12	0	0	0	0	508	519	
13	0	0	0	0	507	522	
14	0	0	0	0	507	523	
15	0	0	0	0	507	522	
0	0	0	0	0	507	525	
1	0	0	0	0	507	523	
2	0	0	0	0	507	522	
3	0	0	0	0	508	522	
4	0	0	0	0	508	520	
5	0	0	0	0	509	523	
6	0	0	0	0	510	523	
7	0	0	0	0	511	523	
8	0	0	0	0	511	525	
9	0	0	0	0	512	523	
10	0	0	0	0	512	523	
11	0	0	0	0	513	523	
12	0	0	0	0	514	519	
13	0	0	0	0	515	523	
14	0	0	0	0	515	522	
15	0	0	0	0	514	522	
0	0	0	0	0	514	525	
1	0	0	0	0	514	523	
2	0	0	0	0	514	522	
3	0	0	0	0	514	522	
4	0	0	0	0	513	519	
5	0	0	0	0	512	522	
6	0	0	0	0	511	522	
7	0	0	0	0	510	522	
8	0	0	0	0	510	524	
9	0	0	0	0	510	522	
10	0	0	0	0	510	522	
11	0	0	0	0	510	523	
12	0	0	0	0	510	520	
13	0	0	0	0	510	522	
14	0	0	0	0	510	522	
15	0	0	0	0	509	522	
0	0	0	0	0	510	524	
1	0	0	0	0	511	523	
2	0	0	0	0	511	522	
3	0	0	0	0	511	523	
4	0	0	0	0	511	520	
5	0	0	0	0	511	522	
6	0	0	0	0	512	522	
7	0	0	0	0	512	522	
8	0	0	0	0	512	524	
9	0	0	0	0	512	522	
10	0	0	0	0	513	521	
11	0	0	0	0	513	521	
12	0	0	0	0	513	518	
13	0	0	0	0	514	521	
14	0	0	0	0	514	521	
15	0	0	0	0	515	520	
0	0	0	0	0	515	524	
1	0	0	0	0	515	521	
2	0	0	0	0	515	521	
3	0	0	0	0	515	520	
4	0	0	0	0	514	518	
5	0	0	0	0	514	521	
6	0	0	0	0	513	521	
7	0	0	0	0	513	521	
8	0	0	0	0	512	523	
9	0	0	0	0	512	521	
10	0	0	0	0	511	521	
11	0	0	0	0	511	521	
12	0	0	0	0	511	518	
13	0	0	0	0	511	521	
14	0	0	0	0	511	520	
15	0	0	0	0	511	520	
0	0	0	0	0	512	523	
1	0	0	0	0	511	521	
2	0	0	0	0	511	521	
3	0	0	0	0	510	521	
4	0	0	0	0	510	519	
5	0	0	0	0	509	521	
6	0	0	0	0	509	521	
7	0	0	0	0	510	521	
8	0	0	0	0	511	524	
9	0	0	0	0	511	521	
10	0	0	0	0	512	521	
11	0	0	0	0	513	521	
12	0	0	0	0	513	519	
13	0	0	0	0	513	522	
14	0	0	0	0	514	521	
15	0	0	0	0	514	522	
0	0	0	0	0	515	524	
1	0	0	0	0	515	522	
2	0	0	0	0	516	522	
3	0	0	0	0	517	521	
4	0	0	0	0	517	519	
5	0	0	0	0	518	521	
6	0	0	0	0	518	522	
7	0	0	0	0	517	522	
8	0	0	0	0	517	525	
9	0	0	0	0	516	523	
10	0	0	0	0	516	523	
11	0	0	0	0	516	523	
12	0	0	0	0	516	520	
13	0	0	0	0	515	522	
14	0	0	0	0	515	521	
15	0	0	0	0	515	523	
0	0	0	0	0	515	524	
1	0	0	0	0	515	522	
2	0	0	0	0	515	521	
3	0	0	0	0	515	521	
4	0	0	0	0	515	519	
5	0	0	0	0	515	521	
6	0	0	0	0	515	522	
7	0	0	0	0	516	522	
8	0	0	0	0	516	524	
9	0	0	0	0	517	523	
10	0	0	0	0	516	522	
11	0	0	0	0	516	522	
12	0	0	0	0	516	519	
13	0	0	0	0	515	522	
14	0	0	0	0	515	522	
15	0	0	0	0	514	521	
0	0	0	0	0	513	525	
1	0	0	0	0	512	522	
2	0	0	0	0	511	521	
3	0	0	0	0	510	522	
4	0	0	0	0	508	519	
5	0	0	0	0	506	521	
6	0	0	0	0	505	521	
7	0	0	0	0	504	521	
8	0	0	0	0	503	524	
9	0	0	0	0	502	521	
10	0	0	0	0	501	520	
11	0	0	0	0	501	521	
12	0	0	0	0	502	518	
13	0	0	0	0	503	520	
14	0	0	0	0	504	520	
15	0	0	0	0	507	520	
0	0	0	0	0	510	523	
1	0	0	0	0	512	521	
2	0	0	0	0	514	521	
3	0	0	0	0	518	521	
4	0	0	0	0	521	518	
5	0	0	0	0	526	521	
6	0	0	0	0	532	521	
7	0	0	0	0	537	521	
8	0	0	0	0	541	524	
9	0	0	0	0	545	521	
10	0	0	0	0	550	521	
11	0	0	0	0	556	521	
12	0	0	0	0	561	518	
13	0	0	0	0	568	521	
14	0	0	0	0	574	521	
15	0	0	0	0	580	521	
0	0	0	0	0	585	524	
1	0	0	0	0	590	521	
2	0	0	0	0	593	521	
3	0	0	0	0	594	521	
4	0	0	0	0	592	519	
5	0	0	0	0	588	522	
6	0	0	0	0	580	521	
7	0	0	0	0	572	521	
8	0	0	0	0	565	523	
9	0	0	0	0	559	520	
10	0	0	0	0	553	521	
11	0	0	0	0	548	521	
12	0	0	0	0	545	519	
13	0	0	0	0	543	521	
14	0	0	0	0	542	521	
15	0	0	0	0	542	521	
0	0	0	0	0	542	524	
1	0	0	0	0	543	521	
2	0	0	0	0	545	521	
3	0	0	0	0	547	521	
4	0	0	0	0	548	519	
5	0	0	0	0	548	520	
6	0	0	0	0	546	521	
7	0	0	0	0	543	521	
8	0	0	0	0	539	524	
9	0	0	0	0	536	520	
10	0	0	0	0	532	521	
11	0	0	0	0	530	522	
12	0	0	0	0	527	519	
13	0	0	0	0	524	521	
14	0	0	0	0	520	521	
15	0	0	0	0	515	521	
0	0	0	0	0	512	524	
1	0	0	0	0	508	521	
2	0	0	0	0	505	521	
3	0	0	0	0	502	521	
4	0	0	0	0	498	519	
5	0	0	0	0	496	521	
6	0	0	0	0	493	521	
7	0	0	0	0	491	522	
8	0	0	0	0	489	524	
9	0	0	0	0	488	522	
10	0	0	0	0	487	521	
11	0	0	0	0	486	521	
12	0	0	0	0	486	518	
13	0	0	0	0	486	520	
14	0	0	0	0	486	521	
15	0	0	0	0	485	521	
0	0	0	0	0	484	523	
1	0	0	0	0	483	521	
2	0	0	0	0	482	521	
3	0	0	0	0	482	521	
4	0	0	0	0	481	518	
5	0	0	0	0	480	521	
6	0	0	0	0	479	521	
7	0	0	0	0	478	521	
8	0	0	0	0	477	523	
9	0	0	0	0	477	522	
10	0	0	0	0	478	521	
11	0	0	0	0	478	521	
12	0	0	0	0	478	518	
13	0	0	0	0	478	521	
14	0	0	0	0	478	521	
15	0	0	0	0	478	521	
0	0	0	0	0	479	524	
1	0	0	0	0	480	522	
2	0	0	0	0	480	520	
3	0	0	0	0	481	521	
4	0	0	0	0	481	519	
5	0	0	0	0	482	521	
6	0	0	0	0	483	521	
7	0	0	0	0	484	521	
8	0	0	0	0	484	524	
9	0	0	0	0	484	521	
10	0	0	0	0	484	521	
11	0	0	0	0	484	521	
12	0	0	0	0	484	519	
13	0	0	0	0	484	521	
14	0	0	0	0	484	521	
15	0	0	0	0	484	521	
0	0	0	0	0	485	524	
1	0	0	0	0	485	522	
2	0	0	0	0	485	522	
3	0	0	0	0	486	521	
4	0	0	0	0	486	519	
5	0	0	0	0	486	522	
6	0	0	0	0	486	522	
7	0	0	0	0	487	522	
8	0	0	0	0	486	524	
9	0	0	0	0	486	522	
10	0	0	0	0	486	522	
11	0	0	0	0	486	521	
12	0	0	0	0	486	519	
13	0	0	0	0	486	521	
14	0	0	0	0	487	522	
15	0	0	0	0	487	521	
0	0	0	0	0	487	524	
1	0	0	0	0	487	521	
2	0	0	0	0	487	522	
3	0	0	0	0	487	522	
4	0	0	0	0	487	519	
5	0	0	0	0	487	521	
6	0	0	0	0	487	521	
7	0	0	0	0	487	522	
8	0	0	0	0	488	524	
9	0	0	0	0	488	521	
10	0	0	0	0	488	521	
11	0	0	0	0	487	521	
12	0	0	0	0	487	518	
13	0	0	0	0	487	522	
14	0	0	0	0	486	521	
15	0	0	0	0	486	521	
0	0	0	0	0	485	523	
1	0	0	0	0	484	521	
2	0	0	0	0	484	521	
3	0	0	0	0	483	521	
4	0	0	0	0	483	519	
5	0	0	0	0	484	521	
6	0	0	0	0	484	521	
7	0	0	0	0	484	520	
8	0	0	0	0	484	523	
9	0	0	0	0	483	520	
10	0	0	0	0	483	521	
11	0	0	0	0	483	521	
12	0	0	0	0	484	518	
13	0	0	0	0	485	521	
14	0	0	0	0	487	522	
15	0	0	0	0	488	521	
0	0	0	0	0	489	523	
1	0	0	0	0	490	521	
2	0	0	0	0	492	521	
3	0	0	0	0	493	521	
4	0	0	0	0	494	519	
5	0	0	0	0	495	521	
6	0	0	0	0	495	521	
7	0	0	0	0	495	521	
8	0	0	0	0	495	524	
9	0	0	0	0	495	522	
10	0	0	0	0	494	522	
11	0	0	0	0	494	521	
12	0	0	0	0	494	519	
13	0	0	0	0	493	522	
14	0	0	0	0	493	521	
15	0	0	0	0	492	522	
0	0	0	0	0	492	524	
1	0	0	0	0	492	521	
2	0	0	0	0	492	521	
3	0	0	0	0	492	521	
4	0	0	0	0	493	518	
5	0	0	0	0	494	521	
6	0	0	0	0	495	521	
7	0	0	0	0	496	521	
8	0	0	0	0	496	524	
9	0	0	0	0	497	521	
10	0	0	0	0	498	521	
11	0	0	0	0	498	521	
12	0	0	0	0	498	519	
13	0	0	0	0	498	521	
14	0	0	0	0	498	521	
15	0	0	0	0	498	521	
0	0	0	0	0	497	523	
1	0	0	0	0	497	521	
2	0	0	0	0	496	521	
3	0	0	0	0	495	521	
4	0	0	0	0	494	519	
5	0	0	0	0	494	520	
6	0	0	0	0	493	521	
7	0	0	0	0	493	521	
8	0	0	0	0	492	523	
9	0	0	0	0	493	521	
10	0	0	0	0	494	520	
11	0	0	0	0	494	520	
12	0	0	0	0	495	518	
13	0	0	0	0	496	520	
14	0	0	0	0	497	520	
15	0	0	0	0	497	521	
0	0	0	0	0	498	523	
1	0	0	0	0	499	521	
2	0	0	0	0	500	521	
3	0	0	0	0	500	521	
4	0	0	0	0	500	519	
5	0	0	0	0	501	521	
6	0	0	0	0	501	521	
7	0	0	0	0	500	521	
8	0	0	0	0	499	524	
9	0	0	0	0	499	521	
10	0	0	0	0	499	521	
11	0	0	0	0	498	521	
12	0	0	0	0	498	519	
13	0	0	0	0	498	521	
14	0	0	0	0	498	522	
15	0	0	0	0	498	522	
0	0	0	0	0	498	524	
1	0	0	0	0	498	523	
2	0	0	0	0	498	522	
3	0	0	0	0	499	523	
4	0	0	0	0	498	520	
5	0	0	0	0	499	523	
6	0	0	0	0	499	522	
7	0	0	0	0	500	522	
8	0	0	0	0	500	525	
9	0	0	0	0	500	522	
10	0	0	0	0	500	522	
11	0	0	0	0	500	522	
12	0	0	0	0	499	520	
13	0	0	0	0	498	523	
14	0	0	0	0	497	522	
15	0	0	0	0	496	522	
0	0	0	0	0	495	524	
1	0	0	0	0	494	522	
2	0	0	0	0	493	522	
3	0	0	0	0	492	522	
4	0	0	0	0	493	519	
5	0	0	0	0	494	522	
6	0	0	0	0	495	522	
7	0	0	0	0	496	521	
8	0	0	0	0	498	524	
9	0	0	0	0	499	521	
10	0	0	0	0	501	521	
11	0	0	0	0	502	521	
12	0	0	0	0	503	518	
13	0	0	0	0	503	521	
14	0	0	0	0	504	520	
15	0	0	0	0	504	520	
0	0	0	0	0	505	523	
1	0	0	0	0	505	520	
2	0	0	0	0	505	520	
3	0	0	0	0	505	520	
4	0	0	0	0	505	518	
5	0	0	0	0	505	520	
6	0	0	0	0	505	521	
7	0	0	0	0	506	520	
8	0	0	0	0	507	524	
9	0	0	0	0	507	520	
10	0	0	0	0	508	520	
11	0	0	0	0	509	520	
12	0	0	0	0	510	518	
13	0	0	0	0	511	520	
14	0	0	0	0	512	521	
15	0	0	0	0	512	520	
0	0	0	0	0	513	523	
1	0	0	0	0	512	520	
2	0	0	0	0	512	521	
3	0	0	0	0	512	521	
4	0	0	0	0	512	518	
5	0	0	0	0	512	520	
6	0	0	0	0	511	521	
7	0	0	0	0	510	521	
8	0	0	0	0	509	524	
9	0	0	0	0	509	521	
10	0	0	0	0	509	520	
11	0	0	0	0	509	521	
12	0	0	0	0	510	518	
13	0	0	0	0	510	522	
14	0	0	0	0	510	522	
15	0	0	0	0	511	521	
0	0	0	0	0	511	524	
1	0	0	0	0	511	522	
2	0	0	0	0	511	522	
3	0	0	0	0	512	522	
4	0	0	0	0	512	520	
5	0	0	0	0	512	522	
6	0	0	0	0	512	522	
7	0	0	0	0	512	522	
8	0	0	0	0	512	525	
9	0	0	0	0	512	522	
10	0	0	0	0	512	522	
11	0	0	0	0	511	522	
12	0	0	0	0	511	519	
13	0	0	0	0	511	522	
14	0	0	0	0	511	522	
15	0	0	0	0	511	522	
0	0	0	0	0	511	524	
1	0	0	0	0	512	521	
2	0	0	0	0	512	522	
3	0	0	0	0	511	523	
4	0	0	0	0	511	519	
5	0	0	0	0	510	523	
6	0	0	0	0	509	522	
7	0	0	0	0	509	522	
8	0	0	0	0	508	524	
9	0	0	0	0	507	522	
10	0	0	0	0	506	522	
11	0	0	0	0	505	521	
12	0	0	0	0	504	519	
13	0	0	0	0	503	521	
14	0	0	0	0	501	522	
15	0	0	0	0	500	521	
0	0	0	0	0	499	524	
1	0	0	0	0	498	521	
2	0	0	0	0	497	521	
3	0	0	0	0	496	522	
4	0	0	0	0	495	519	
5	0	0	0	0	494	521	
6	0	0	0	0	495	522	
7	0	0	0	0	494	521	
8	0	0	0	0	495	524	
9	0	0	0	0	495	521	
10	0	0	0	0	496	521	
11	0	0	0	0	496	521	
12	0	0	0	0	496	519	
13	0	0	0	0	496	521	
14	0	0	0	0	495	521	
15	0	0	0	0	494	520	
0	0	0	0	0	494	523	
1	0	0	0	0	492	520	
2	0	0	0	0	491	520	
3	0	0	0	0	490	521	
4	0	0	0	0	489	518	
5	0	0	0	0	489	521	
6	0	0	0	0	490	521	
7	0	0	0	0	490	521	
8	0	0	0	0	491	523	
9	0	0	0	0	492	521	
10	0	0	0	0	493	521	
11	0	0	0	0	494	521	
12	0	0	0	0	495	518	
13	0	0	0	0	495	521	
14	0	0	0	0	496	521	
15	0	0	0	0	496	521	
0	0	0	0	0	497	524	
1	0	0	0	0	497	521	
2	0	0	0	0	497	521	
3	0	0	0	0	497	521	
4	0	0	0	0	497	519	
5	0	0	0	0	496	521	
6	0	0	0	0	496	521	
7	0	0	0	0	496	521	
8	0	0	0	0	496	524	
9	0	0	0	0	496	521	
10	0	0	0	0	496	521	
11	0	0	0	0	495	522	
12	0	0	0	0	495	519	
13	0	0	0	0	495	522	
14	0	0	0	0	496	521	
15	0	0	0	0	496	522	
0	0	0	0	0	496	524	
1	0	0	0	0	496	522	
2	0	0	0	0	495	521	
3	0	0	0	0	495	521	
4	0	0	0	0	495	519	
5	0	0	0	0	495	522	
6	0	0	0	0	494	522	
7	0	0	0	0	494	522	
8	0	0	0	0	494	523	
9	0	0	0	0	494	521	
10	0	0	0	0	494	522	
11	0	0	0	0	494	521	
12	0	0	0	0	495	519	
13	0	0	0	0	495	522	
14	0	0	0	0	495	522	
15	0	0	0	0	495	522	
0	0	0	0	0	496	524	
1	0	0	0	0	496	523	
2	0	0	0	0	495	521	
3	0	0	0	0	495	522	
4	0	0	0	0	495	519	
5	0	0	0	0	496	522	
6	0	0	0	0	496	521	
7	0	0	0	0	497	522	
8	0	0	0	0	499	524	
9	0	0	0	0	499	521	
10	0	0	0	0	499	521	
11	0	0	0	0	500	521	
12	0	0	0	0	500	518	
13	0	0	0	0	500	521	
14	0	0	0	0	499	521	
15	0	0	0	0	500	520	
0	0	0	0	0	499	523	
1	0	0	0	0	500	521	
2	0	0	0	0	500	520	
3	0	0	0	0	500	521	
4	0	0	0	0	500	518	
5	0	0	0	0	500	520	
6	0	0	0	0	499	521	
7	0	0	0	0	499	520	
8	0	0	0	0	498	523	
9	0	0	0	0	499	520	
10	0	0	0	0	498	520	
11	0	0	0	0	498	520	
12	0	0	0	0	498	518	
13	0	0	0	0	498	521	
14	0	0	0	0	499	521	
15	0	0	0	0	499	521	
0	0	0	0	0	500	524	
1	0	0	0	0	501	521	
2	0	0	0	0	500	521	
3	0	0	0	0	499	522	
4	0	0	0	0	498	519	
5	0	0	0	0	497	521	
6	0	0	0	0	497	521	
7	0	0	0	0	497	522	
8	0	0	0	0	497	524	
9	0	0	0	0	497	522	
10	0	0	0	0	497	521	
11	0	0	0	0	497	521	
12	0	0	0	0	498	519	
13	0	0	0	0	498	521	
14	0	0	0	0	499	522	
15	0	0	0	0	499	522	
0	0	0	0	0	500	524	
1	0	0	0	0	501	522	
2	0	0	0	0	501	521	
3	0	0	0	0	502	522	
4	0	0	0	0	503	519	
5	0	0	0	0	503	521	
6	0	0	0	0	503	522	
7	0	0	0	0	503	522	
8	0	0	0	0	502	524	
9	0	0	0	0	501	521	
10	0	0	0	0	500	521	
11	0	0	0	0	499	520	
12	0	0	0	0	499	518	
13	0	0	0	0	499	521	
14	0	0	0	0	499	521	
15	0	0	0	0	500	520	
0	0	0	0	0	501	522	
1	0	0	0	0	502	519	
2	0	0	0	0	502	520	
3	0	0	0	0	503	519	
4	0	0	0	0	502	518	
5	0	0	0	0	502	520	
6	0	0	0	0	502	520	
7	0	0	0	0	503	520	
8	0	0	0	0	503	522	
9	0	0	0	0	503	519	
10	0	0	0	0	504	519	
11	0	0	0	0	505	519	
12	0	0	0	0	506	517	
13	0	0	0	0	506	519	
14	0	0	0	0	505	519	
15	0	0	0	0	506	519	
0	0	0	0	0	506	522	
1	0	0	0	0	506	520	
2	0	0	0	0	507	520	
3	0	0	0	0	507	519	
4	0	0	0	0	507	518	
5	0	0	0	0	508	520	
6	0	0	0	0	508	520	
7	0	0	0	0	508	521	
8	0	0	0	0	510	523	
9	0	0	0	0	510	521	
10	0	0	0	0	511	521	
11	0	0	0	0	511	521	
12	0	0	0	0	512	518	
13	0	0	0	0	513	521	
14	0	0	0	0	514	520	
15	0	0	0	0	514	521	
0	0	0	0	0	513	524	
1	0	0	0	0	513	522	
2	0	0	0	0	513	522	
3	0	0	0	0	513	523	
4	0	0	0	0	513	519	
5	0	0	0	0	513	522	
6	0	0	0	0	513	522	
7	0	0	0	0	513	521	
8	0	0	0	0	513	525	
9	0	0	0	0	513	523	
10	0	0	0	0	512	523	
11	0	0	0	0	512	523	
12	0	0	0	0	512	519	
13	0	0	0	0	511	522	
14	0	0	0	0	510	523	
15	0	0	0	0	509	523	
0	0	0	0	0	509	525	
1	0	0	0	0	508	523	
2	0	0	0	0	508	523	
3	0	0	0	0	508	523	
4	0	0	0	0	509	520	
5	0	0	0	0	509	522	
6	0	0	0	0	510	522	
7	0	0	0	0	510	523	
8	0	0	0	0	510	524	
9	0	0	0	0	510	521	
10	0	0	0	0	510	522	
11	0	0	0	0	511	522	
12	0	0	0	0	511	519	
13	0	0	0	0	511	521	
14	0	0	0	0	511	521	
15	0	0	0	0	512	521	
0	0	0	0	0	512	524	
1	0	0	0	0	512	522	
2	0	0	0	0	512	521	
3	0	0	0	0	512	521	
4	0	0	0	0	512	518	
5	0	0	0	0	512	521	
6	0	0	0	0	512	521	
7	0	0	0	0	511	521	
8	0	0	0	0	512	523	
9	0	0	0	0	512	521	
10	0	0	0	0	513	521	
11	0	0	0	0	514	520	
12	0	0	0	0	514	518	
13	0	0	0	0	514	521	
14	0	0	0	0	515	521	
15	0	0	0	0	515	521	
0	0	0	0	0	515	523	
1	0	0	0	0	515	520	
2	0	0	0	0	515	520	
3	0	0	0	0	514	520	
4	0	0	0	0	514	518	
5	0	0	0	0	513	520	
6	0	0	0	0	513	520	
7	0	0	0	0	513	520	
8	0	0	0	0	513	523	
9	0	0	0	0	512	520	
10	0	0	0	0	512	520	
11	0	0	0	0	512	520	
12	0	0	0	0	512	518	
13	0	0	0	0	512	521	
14	0	0	0	0	513	521	
15	0	0	0	0	513	520	
0	0	0	0	0	513	523	
1	0	0	0	0	513	521	
2	0	0	0	0	512	521	
3	0	0	0	0	512	521	
4	0	0	0	0	512	518	
5	0	0	0	0	512	521	
6	0	0	0	0	513	521	
7	0	0	0	0	513	521	
8	0	0	0	0	512	523	
9	0	0	0	0	513	521	
10	0	0	0	0	514	521	
11	0	0	0	0	514	522	
12	0	0	0	0	514	519	
13	0	0	0	0	513	521	
14	0	0	0	0	513	522	
15	0	0	0	0	513	521	
0	0	0	0	0	512	523	
1	0	0	0	0	512	521	
2	0	0	0	0	512	521	
3	0	0	0	0	512	521	
4	0	0	0	0	512	519	
5	0	0	0	0	512	521	
6	0	0	0	0	512	521	
7	0	0	0	0	512	521	
8	0	0	0	0	512	524	
9	0	0	0	0	513	521	
10	0	0	0	0	513	521	
11	0	0	0	0	514	521	
12	0	0	0	0	515	519	
13	0	0	0	0	515	521	
14	0	0	0	0	515	521	
15	0	0	0	0	515	520	
0	0	0	0	0	515	523	
1	0	0	0	0	514	521	
2	0	0	0	0	513	521	
3	0	0	0	0	513	521	
4	0	0	0	0	512	518	
5	0	0	0	0	511	521	
6	0	0	0	0	511	520	
7	0	0	0	0	510	520	
8	0	0	0	0	510	523	
9	0	0	0	0	509	520	
10	0	0	0	0	508	520	
11	0	0	0	0	508	520	
12	0	0	0	0	508	518	
13	0	0	0	0	507	520	
14	0	0	0	0	506	520	
15	0	0	0	0	506	520	
0	0	0	0	0	506	522	
1	0	0	0	0	506	519	
2	0	0	0	0	505	519	
3	0	0	0	0	505	519	
4	0	0	0	0	506	517	
5	0	0	0	0	508	519	
6	0	0	0	0	509	519	
7	0	0	0	0	509	519	
8	0	0	0	0	509	521	
9	0	0	0	0	510	519	
10	0	0	0	0	509	519	
11	0	0	0	0	510	519	
12	0	0	0	0	511	517	
13	0	0	0	0	511	520	
14	0	0	0	0	511	520	
15	0	0	0	0	511	520	
0	0	0	0	0	511	523	
1	0	0	0	0	511	520	
2	0	0	0	0	511	520	
3	0	0	0	0	511	521	
4	0	0	0	0	510	519	
5	0	0	0	0	509	521	
6	0	0	0	0	509	521	
7	0	0	0	0	509	521	
8	0	0	0	0	510	524	
9	0	0	0	0	510	521	
10	0	0	0	0	510	522	
11	0	0	0	0	510	521	
12	0	0	0	0	510	519	
13	0	0	0	0	509	522	
14	0	0	0	0	509	522	
15	0	0	0	0	508	522	
0	0	0	0	0	508	524	
1	0	0	0	0	507	522	
2	0	0	0	0	506	523	
3	0	0	0	0	506	523	
4	0	0	0	0	506	520	
5	0	0	0	0	506	523	
6	0	0	0	0	507	523	
7	0	0	0	0	507	523	
8	0	0	0	0	508	525	
9	0	0	0	0	508	523	
10	0	0	0	0	508	522	
11	0	0	0	0	509	523	
12	0	0	0	0	510	519	
13	0	0	0	0	511	522	
14	0	0	0	0	512	522	
15	0	0	0	0	512	522	
0	0	0	0	0	512	524	
1	0	0	0	0	512	522	
2	0	0	0	0	512	522	
3	0	0	0	0	512	522	
4	0	0	0	0	512	518	
5	0	0	0	0	512	521	
6	0	0	0	0	512	521	
7	0	0	0	0	512	521	
8	0	0	0	0	512	523	
9	0	0	0	0	512	521	
10	0	0	0	0	511	520	
11	0	0	0	0	511	520	
12	0	0	0	0	511	518	
13	0	0	0	0	510	520	
14	0	0	0	0	510	521	
15	0	0	0	0	510	520	
0	0	0	0	0	510	523	
1	0	0	0	0	511	520	
2	0	0	0	0	511	520	
3	0	0	0	0	512	519	
4	0	0	0	0	512	517	
5	0	0	0	0	513	520	
6	0	0	0	0	513	519	
7	0	0	0	0	513	520	
8	0	0	0	0	514	522	
9	0	0	0	0	514	520	
10	0	0	0	0	514	520	
11	0	0	0	0	513	520	
12	0	0	0	0	513	517	
13	0	0	0	0	512	519	
14	0	0	0	0	512	519	
15	0	0	0	0	511	520	
0	0	0	0	0	510	523	
1	0	0	0	0	509	520	
2	0	0	0	0	508	521	
3	0	0	0	0	508	520	
4	0	0	0	0	508	519	
5	0	0	0	0	508	521	
6	0	0	0	0	508	521	
7	0	0	0	0	508	522	
8	0	0	0	0	508	524	
9	0	0	0	0	508	521	
10	0	0	0	0	509	522	
11	0	0	0	0	508	521	
12	0	0	0	0	509	519	
13	0	0	0	0	509	522	
14	0	0	0	0	509	521	
15	0	0	0	0	509	522	
0	0	0	0	0	509	524	
1	0	0	0	0	509	522	
2	0	0	0	0	509	523	
3	0	0	0	0	509	522	
4	0	0	0	0	508	520	
5	0	0	0	0	508	523	
6	0	0	0	0	509	523	
7	0	0	0	0	509	522	
8	0	0	0	0	509	524	
9	0	0	0	0	508	522	
10	0	0	0	0	508	522	
11	0	0	0	0	509	522	
12	0	0	0	0	509	519	
13	0	0	0	0	510	522	
14	0	0	0	0	510	522	
15	0	0	0	0	511	522	
0	0	0	0	0	511	524	
1	0	0	0	0	511	522	
2	0	0	0	0	511	522	
3	0	0	0	0	511	522	
4	0	0	0	0	512	519	
5	0	0	0	0	512	521	
6	0	0	0	0	513	521	
7	0	0	0	0	514	521	
8	0	0	0	0	514	523	
9	0	0	0	0	515	521	
10	0	0	0	0	515	521	
11	0	0	0	0	515	520	
12	0	0	0	0	516	518	
13	0	0	0	0	516	520	
14	0	0	0	0	515	520	
15	0	0	0	0	515	520	
0	0	0	0	0	515	523	
1	0	0	0	0	515	521	
2	0	0	0	0	514	520	
3	0	0	0	0	514	520	
4	0	0	0	0	514	518	
5	0	0	0	0	513	520	
6	0	0	0	0	513	520	
7	0	0	0	0	512	521	
8	0	0	0	0	512	524	
9	0	0	0	0	512	521	
10	0	0	0	0	511	521	
11	0	0	0	0	512	521	
12	0	0	0	0	512	518	
13	0	0	0	0	512	521	
14	0	0	0	0	511	521	
15	0	0	0	0	511	521	
0	0	0	0	0	512	523	
1	0	0	0	0	512	521	
2	0	0	0	0	512	521	
3	0	0	0	0	512	521	
4	0	0	0	0	512	518	
5	0	0	0	0	512	521	
6	0	0	0	0	512	521	
7	0	0	0	0	511	521	
8	0	0	0	0	511	524	
9	0	0	0	0	512	521	
10	0	0	0	0	511	521	
11	0	0	0	0	511	521	
12	0	0	0	0	511	519	
13	0	0	0	0	511	522	
14	0	0	0	0	511	522	
15	0	0	0	0	511	522	
0	0	0	0	0	511	524	
1	0	0	0	0	510	521	
2	0	0	0	0	510	521	
3	0	0	0	0	509	522	
4	0	0	0	0	509	519	
5	0	0	0	0	509	521	
6	0	0	0	0	508	522	
7	0	0	0	0	508	521	
8	0	0	0	0	508	524	
9	0	0	0	0	508	522	
10	0	0	0	0	508	523	
11	0	0	0	0	508	522	
12	0	0	0	0	507	519	
13	0	0	0	0	508	522	
14	0	0	0	0	508	522	
15	0	0	0	0	508	522	
0	0	0	0	0	508	524	
1	0	0	0	0	509	522	
2	0	0	0	0	509	522	
3	0	0	0	0	510	522	
4	0	0	0	0	510	519	
5	0	0	0	0	510	521	
6	0	0	0	0	510	522	
7	0	0	0	0	511	521	
8	0	0	0	0	512	523	
9	0	0	0	0	512	521	
10	0	0	0	0	513	521	
11	0	0	0	0	513	520	
12	0	0	0	0	512	519	
13	0	0	0	0	512	521	
14	0	0	0	0	511	521	
15	0	0	0	0	510	521	
0	0	0	0	0	508	523	
1	0	0	0	0	508	520	
2	0	0	0	0	508	520	
3	0	0	0	0	508	520	
4	0	0	0	0	508	517	
5	0	0	0	0	508	519	
6	0	0	0	0	508	519	
7	0	0	0	0	508	519	
8	0	0	0	0	509	522	
9	0	0	0	0	510	519	
10	0	0	0	0	511	519	
11	0	0	0	0	512	519	
12	0	0	0	0	514	517	
13	0	0	0	0	515	519	
14	0	0	0	0	516	519	
15	0	0	0	0	516	519	
0	0	0	0	0	516	521	
1	0	0	0	0	516	519	
2	0	0	0	0	516	520	
3	0	0	0	0	516	519	
4	0	0	0	0	516	517	
5	0	0	0	0	517	520	
6	0	0	0	0	518	520	
7	0	0	0	0	518	519	
8	0	0	0	0	518	523	
9	0	0	0	0	518	519	
10	0	0	0	0	518	520	
11	0	0	0	0	518	520	
12	0	0	0	0	516	517	
13	0	0	0	0	516	520	
14	0	0	0	0	515	520	
15	0	0	0	0	513	520	
0	0	0	0	0	513	522	
1	0	0	0	0	513	520	
2	0	0	0	0	512	520	
3	0	0	0	0	511	520	
4	0	0	0	0	511	517	
5	0	0	0	0	510	520	
6	0	0	0	0	510	521	
7	0	0	0	0	509	520	
8	0	0	0	0	509	523	
9	0	0	0	0	509	520	
10	0	0	0	0	510	520	
11	0	0	0	0	511	521	
12	0	0	0	0	511	517	
13	0	0	0	0	512	520	
14	0	0	0	0	513	521	
15	0	0	0	0	514	521	
0	0	0	0	0	514	523	
1	0	0	0	0	515	521	
2	0	0	0	0	514	521	
3	0	0	0	0	515	521	
4	0	0	0	0	515	518	
5	0	0	0	0	514	521	
6	0	0	0	0	514	521	
7	0	0	0	0	514	520	
8	0	0	0	0	513	523	
9	0	0	0	0	513	520	
10	0	0	0	0	513	521	
11	0	0	0	0	513	521	
12	0	0	0	0	512	518	
13	0	0	0	0	512	520	
14	0	0	0	0	513	520	
15	0	0	0	0	512	520	
0	0	0	0	0	512	523	
1	0	0	0	0	512	520	
2	0	0	0	0	512	520	
3	0	0	0	0	512	520	
4	0	0	0	0	512	518	
5	0	0	0	0	512	519	
6	0	0	0	0	512	520	
7	0	0	0	0	512	520	
8	0	0	0	0	513	523	
9	0	0	0	0	512	520	
10	0	0	0	0	512	520	
11	0	0	0	0	513	520	
12	0	0	0	0	513	517	
13	0	0	0	0	513	520	
14	0	0	0	0	513	520	
15	0	0	0	0	513	519	
0	0	0	0	0	513	522	
1	0	0	0	0	513	520	
2	0	0	0	0	514	520	
3	0	0	0	0	514	520	
4	0	0	0	0	515	518	
5	0	0	0	0	515	520	
6	0	0	0	0	515	519	
7	0	0	0	0	515	520	
8	0	0	0	0	514	522	
9	0	0	0	0	514	519	
10	0	0	0	0	513	520	
11	0	0	0	0	513	519	
12	0	0	0	0	512	517	
13	0	0	0	0	511	519	
14	0	0	0	0	509	520	
15	0	0	0	0	506	519	
0	0	0	0	0	504	522	
1	0	0	0	0	502	519	
2	0	0	0	0	499	520	
3	0	0	0	0	497	520	
4	0	0	0	0	495	518	
5	0	0	0	0	493	519	
6	0	0	0	0	492	520	
7	0	0	0	0	492	520	
8	0	0	0	0	493	523	
9	0	0	0	0	495	520	
10	0	0	0	0	498	520	
11	0	0	0	0	501	521	
12	0	0	0	0	504	518	
13	0	0	0	0	508	520	
14	0	0	0	0	512	519	
15	0	0	0	0	515	520	
0	0	0	0	0	520	522	
1	0	0	0	0	524	520	
2	0	0	0	0	528	520	
3	0	0	0	0	534	520	
4	0	0	0	0	540	518	
5	0	0	0	0	547	521	
6	0	0	0	0	555	521	
7	0	0	0	0	563	520	
8	0	0	0	0	573	523	
9	0	0	0	0	582	521	
10	0	0	0	0	593	521	
11	0	0	0	0	601	521	
12	0	0	0	0	609	518	
13	0	0	0	0	615	521	
14	0	0	0	0	619	520	
15	0	0	0	0	621	521	
0	0	0	0	0	620	523	
1	0	0	0	0	618	520	
2	0	0	0	0	616	521	
3	0	0	0	0	614	521	
4	0	0	0	0	611	519	
5	0	0	0	0	607	521	
6	0	0	0	0	601	520	
7	0	0	0	0	595	520	
8	0	0	0	0	589	523	
9	0	0	0	0	584	521	
10	0	0	0	0	579	520	
11	0	0	0	0	576	521	
12	0	0	0	0	574	518	
13	0	0	0	0	572	521	
14	0	0	0	0	569	520	
15	0	0	0	0	566	521	
0	0	0	0	0	563	523	
1	0	0	0	0	558	521	
2	0	0	0	0	552	520	
3	0	0	0	0	546	521	
4	0	0	0	0	540	519	
5	0	0	0	0	534	521	
6	0	0	0	0	528	521	
7	0	0	0	0	522	521	
8	0	0	0	0	517	524	
9	0	0	0	0	511	521	
10	0	0	0	0	506	521	
11	0	0	0	0	502	520	
12	0	0	0	0	499	518	
13	0	0	0	0	496	520	
14	0	0	0	0	492	521	
15	0	0	0	0	489	520	
0	0	0	0	0	487	523	
1	0	0	0	0	484	520	
2	0	0	0	0	482	521	
3	0	0	0	0	480	520	
4	0	0	0	0	480	518	
5	0	0	0	0	479	520	
6	0	0	0	0	479	520	
7	0	0	0	0	479	521	
8	0	0	0	0	478	523	
9	0	0	0	0	478	520	
10	0	0	0	0	477	520	
11	0	0	0	0	477	520	
12	0	0	0	0	476	518	
13	0	0	0	0	475	520	
14	0	0	0	0	474	520	
15	0	0	0	0	472	520	
0	0	0	0	0	471	523	
1	0	0	0	0	470	520	
2	0	0	0	0	469	520	
3	0	0	0	0	469	520	
4	0	0	0	0	469	516	
5	0	0	0	0	469	520	
6	0	0	0	0	469	520	
7	0	0	0	0	469	520	
8	0	0	0	0	470	522	
9	0	0	0	0	471	520	
10	0	0	0	0	472	521	
11	0	0	0	0	472	521	
12	0	0	0	0	473	518	
13	0	0	0	0	474	521	
14	0	0	0	0	475	521	
15	0	0	0	0	476	521	
0	0	0	0	0	476	523	
1	0	0	0	0	477	522	
2	0	0	0	0	478	521	
3	0	0	0	0	478	522	
4	0	0	0	0	478	519	
5	0	0	0	0	479	523	
6	0	0	0	0	479	522	
7	0	0	0	0	479	523	
8	0	0	0	0	479	525	
9	0	0	0	0	480	523	
10	0	0	0	0	480	523	
11	0	0	0	0	481	523	
12	0	0	0	0	481	520	
13	0	0	0	0	482	523	
14	0	0	0	0	483	523	
15	0	0	0	0	483	523	
0	0	0	0	0	483	525	
1	0	0	0	0	484	523	
2	0	0	0	0	485	523	
3	0	0	0	0	486	523	
4	0	0	0	0	486	520	
5	0	0	0	0	486	523	
6	0	0	0	0	486	523	
7	0	0	0	0	486	523	
8	0	0	0	0	487	525	
9	0	0	0	0	487	523	
10	0	0	0	0	487	523	
11	0	0	0	0	487	523	
12	0	0	0	0	488	519	
13	0	0	0	0	487	521	
14	0	0	0	0	488	522	
15	0	0	0	0	487	521	
0	0	0	0	0	488	524	
1	0	0	0	0	488	522	
2	0	0	0	0	488	522	
3	0	0	0	0	488	522	
4	0	0	0	0	488	518	
5	0	0	0	0	488	521	
6	0	0	0	0	488	521	
7	0	0	0	0	488	520	
8	0	0	0	0	489	523	
9	0	0	0	0	489	520	
10	0	0	0	0	489	520	
11	0	0	0	0	489	521	
12	0	0	0	0	490	518	
13	0	0	0	0	490	521	
14	0	0	0	0	491	521	
15	0	0	0	0	490	521	
0	0	0	0	0	490	524	
1	0	0	0	0	489	521	
2	0	0	0	0	489	521	
3	0	0	0	0	488	521	
4	0	0	0	0	487	519	
5	0	0	0	0	487	520	
6	0	0	0	0	487	521	
7	0	0	0	0	487	521	
8	0	0	0	0	487	524	
9	0	0	0	0	487	520	
10	0	0	0	0	487	521	
11	0	0	0	0	487	520	
12	0	0	0	0	487	518	
13	0	0	0	0	488	521	
14	0	0	0	0	488	521	
15	0	0	0	0	489	521	
0	0	0	0	0	490	523	
1	0	0	0	0	491	522	
2	0	0	0	0	492	521	
3	0	0	0	0	492	521	
4	0	0	0	0	493	519	
5	0	0	0	0	493	522	
6	0	0	0	0	494	521	
7	0	0	0	0	494	521	
8	0	0	0	0	494	524	
9	0	0	0	0	495	522	
10	0	0	0	0	496	522	
11	0	0	0	0	496	523	
12	0	0	0	0	496	519	
13	0	0	0	0	495	522	
14	0	0	0	0	496	522	
15	0	0	0	0	495	521	
0	0	0	0	0	495	524	
1	0	0	0	0	494	522	
2	0	0	0	0	493	522	
3	0	0	0	0	494	521	
4	0	0	0	0	494	519	
5	0	0	0	0	494	522	
6	0	0	0	0	494	522	
7	0	0	0	0	494	522	
8	0	0	0	0	496	524	
9	0	0	0	0	497	522	
10	0	0	0	0	498	522	
11	0	0	0	0	499	522	
12	0	0	0	0	500	519	
13	0	0	0	0	501	522	
14	0	0	0	0	502	522	
15	0	0	0	0	504	522	
0	0	0	0	0	505	524	
1	0	0	0	0	505	522	
2	0	0	0	0	505	522	
3	0	0	0	0	505	522	
4	0	0	0	0	506	519	
5	0	0	0	0	505	522	
6	0	0	0	0	505	522	
7	0	0	0	0	505	521	
8	0	0	0	0	505	524	
9	0	0	0	0	504	521	
10	0	0	0	0	503	521	
11	0	0	0	0	503	521	
12	0	0	0	0	502	519	
13	0	0	0	0	502	521	
14	0	0	0	0	502	521	
15	0	0	0	0	502	520	
0	0	0	0	0	502	523	
1	0	0	0	0	502	521	
2	0	0	0	0	503	521	
3	0	0	0	0	503	520	
4	0	0	0	0	502	519	
5	0	0	0	0	502	521	
6	0	0	0	0	501	520	
7	0	0	0	0	500	521	
8	0	0	0	0	499	524	
9	0	0	0	0	499	521	
10	0	0	0	0	499	521	
11	0	0	0	0	499	521	
12	0	0	0	0	499	518	
13	0	0	0	0	499	521	
14	0	0	0	0	499	520	
15	0	0	0	0	499	521	
0	0	0	0	0	499	524	
1	0	0	0	0	500	521	
2	0	0	0	0	499	521	
3	0	0	0	0	499	521	
4	0	0	0	0	499	519	
5	0	0	0	0	499	522	
6	0	0	0	0	499	521	
7	0	0	0	0	499	522	
8	0	0	0	0	500	524	
9	0	0	0	0	501	521	
10	0	0	0	0	502	522	
11	0	0	0	0	503	521	
12	0	0	0	0	503	518	
13	0	0	0	0	503	521	
14	0	0	0	0	503	521	
15	0	0	0	0	503	520	
0	0	0	0	0	502	523	
1	0	0	0	0	501	520	
2	0	0	0	0	501	521	
3	0	0	0	0	501	521	
4	0	0	0	0	502	518	
5	0	0	0	0	502	521	
6	0	0	0	0	503	521	
7	0	0	0	0	503	521	
8	0	0	0	0	504	524	
9	0	0	0	0	504	522	
10	0	0	0	0	504	521	
11	0	0	0	0	504	521	
12	0	0	0	0	503	518	
13	0	0	0	0	503	520	
14	0	0	0	0	504	520	
15	0	0	0	0	504	520	
0	0	0	0	0	505	522	
1	0	0	0	0	505	520	
2	0	0	0	0	505	520	
3	0	0	0	0	506	520	
4	0	0	0	0	507	518	
5	0	0	0	0	508	520	
6	0	0	0	0	508	520	
7	0	0	0	0	508	520	
8	0	0	0	0	508	523	
9	0	0	0	0	509	520	
10	0	0	0	0	510	520	
11	0	0	0	0	510	520	
12	0	0	0	0	510	517	
13	0	0	0	0	510	520	
14	0	0	0	0	511	519	
15	0	0	0	0	512	520	
0	0	0	0	0	512	523	
1	0	0	0	0	513	520	
2	0	0	0	0	512	520	
3	0	0	0	0	512	520	
4	0	0	0	0	513	517	
5	0	0	0	0	514	520	
6	0	0	0	0	514	519	
7	0	0	0	0	515	520	
8	0	0	0	0	515	523	
9	0	0	0	0	516	520	
10	0	0	0	0	517	520	
11	0	0	0	0	517	520	
12	0	0	0	0	518	517	
13	0	0	0	0	518	520	
14	0	0	0	0	519	520	
15	0	0	0	0	519	520	
0	0	0	0	0	519	522	
1	0	0	0	0	520	519	
2	0	0	0	0	519	520	
3	0	0	0	0	519	519	
4	0	0	0	0	519	516	
5	0	0	0	0	518	519	
6	0	0	0	0	518	519	
7	0	0	0	0	516	519	
8	0	0	0	0	516	522	
9	0	0	0	0	515	520	
10	0	0	0	0	515	519	
11	0	0	0	0	515	519	
12	0	0	0	0	514	517	
13	0	0	0	0	513	520	
14	0	0	0	0	512	519	
15	0	0	0	0	512	519	
0	0	0	0	0	511	522	
1	0	0	0	0	511	519	
2	0	0	0	0	511	520	
3	0	0	0	0	511	519	
4	0	0	0	0	510	517	
5	0	0	0	0	509	519	
6	0	0	0	0	509	519	
7	0	0	0	0	509	519	
8	0	0	0	0	509	521	
9	0	0	0	0	509	519	
10	0	0	0	0	510	519	
11	0	0	0	0	510	520	
12	0	0	0	0	510	517	
13	0	0	0	0	510	519	
14	0	0	0	0	510	520	
15	0	0	0	0	510	519	
0	0	0	0	0	509	521	
1	0	0	0	0	508	519	
2	0	0	0	0	507	519	
3	0	0	0	0	506	519	
4	0	0	0	0	505	516	
5	0	0	0	0	504	519	
6	0	0	0	0	504	519	
7	0	0	0	0	504	518	
8	0	0	0	0	504	521	
9	0	0	0	0	504	519	
10	0	0	0	0	504	519	
11	0	0	0	0	504	519	
12	0	0	0	0	504	517	
13	0	0	0	0	504	519	
14	0	0	0	0	504	519	
15	0	0	0	0	503	519	
0	0	0	0	0	503	522	
1	0	0	0	0	502	519	
2	0	0	0	0	502	519	
3	0	0	0	0	501	519	
4	0	0	0	0	500	517	
5	0	0	0	0	500	519	
6	0	0	0	0	500	519	
7	0	0	0	0	499	519	
8	0	0	0	0	500	522	
9	0	0	0	0	499	519	
10	0	0	0	0	499	520	
11	0	0	0	0	499	520	
12	0	0	0	0	499	517	
13	0	0	0	0	499	520	
14	0	0	0	0	499	520	
15	0	0	0	0	500	521	
0	0	0	0	0	500	523	
1	0	0	0	0	502	521	
2	0	0	0	0	502	521	
3	0	0	0	0	502	521	
4	0	0	0	0	502	518	
5	0	0	0	0	502	521	
6	0	0	0	0	503	520	
7	0	0	0	0	504	521	
8	0	0	0	0	504	524	
9	0	0	0	0	505	521	
10	0	0	0	0	505	522	
11	0	0	0	0	506	522	
12	0	0	0	0	506	519	
13	0	0	0	0	506	521	
14	0	0	0	0	506	522	
15	0	0	0	0	506	522	
0	0	0	0	0	506	525	
1	0	0	0	0	505	523	
2	0	0	0	0	505	521	
3	0	0	0	0	505	521	
4	0	0	0	0	504	519	
5	0	0	0	0	504	522	
6	0	0	0	0	504	523	
7	0	0	0	0	504	522	
8	0	0	0	0	504	525	
9	0	0	0	0	504	522	
10	0	0	0	0	504	521	
11	0	0	0	0	504	522	
12	0	0	0	0	504	519	
13	0	0	0	0	505	522	
14	0	0	0	0	507	521	
15	0	0	0	0	507	521	
0	0	0	0	0	508	524	
1	0	0	0	0	508	521	
2	0	0	0	0	509	522	
3	0	0	0	0	508	521	
4	0	0	0	0	508	518	
5	0	0	0	0	509	521	
6	0	0	0	0	509	521	
7	0	0	0	0	510	521	
8	0	0	0	0	509	523	
9	0	0	0	0	510	520	
10	0	0	0	0	509	520	
11	0	0	0	0	509	520	
12	0	0	0	0	509	518	
13	0	0	0	0	509	520	
14	0	0	0	0	509	520	
15	0	0	0	0	508	520	
0	0	0	0	0	508	522	
1	0	0	0	0	508	520	
2	0	0	0	0	508	519	
3	0	0	0	0	508	520	
4	0	0	0	0	508	517	
5	0	0	0	0	509	520	
6	0	0	0	0	508	520	
7	0	0	0	0	508	520	
8	0	0	0	0	508	523	
9	0	0	0	0	508	521	
10	0	0	0	0	508	521	
11	0	0	0	0	509	520	
12	0	0	0	0	509	518	
13	0	0	0	0	510	520	
14	0	0	0	0	510	521	
15	0	0	0	0	510	520	
0	0	0	0	0	509	523	
1	0	0	0	0	509	521	
2	0	0	0	0	509	521	
3	0	0	0	0	509	521	
4	0	0	0	0	508	519	
5	0	0	0	0	508	521	
6	0	0	0	0	508	521	
7	0	0	0	0	508	522	
8	0	0	0	0	508	524	
9	0	0	0	0	508	522	
10	0	0	0	0	509	521	
11	0	0	0	0	509	522	
12	0	0	0	0	509	519	
13	0	0	0	0	509	521	
14	0	0	0	0	508	521	
15	0	0	0	0	508	521	
0	0	0	0	0	508	524	
1	0	0	0	0	507	522	
2	0	0	0	0	507	521	
3	0	0	0	0	506	522	
4	0	0	0	0	506	519	
5	0	0	0	0	506	522	
6	0	0	0	0	506	522	
7	0	0	0	0	507	522	
8	0	0	0	0	506	524	
9	0	0	0	0	506	521	
10	0	0	0	0	505	521	
11	0	0	0	0	506	522	
12	0	0	0	0	506	519	
13	0	0	0	0	507	522	
14	0	0	0	0	507	521	
15	0	0	0	0	507	521	
0	0	0	0	0	507	524	
1	0	0	0	0	507	521	
2	0	0	0	0	507	521	
3	0	0	0	0	507	521	
4	0	0	0	0	508	519	
5	0	0	0	0	508	521	
6	0	0	0	0	508	521	
7	0	0	0	0	508	521	
8	0	0	0	0	508	524	
9	0	0	0	0	508	521	
10	0	0	0	0	508	522	
11	0	0	0	0	508	521	
12	0	0	0	0	508	519	
13	0	0	0	0	507	521	
14	0	0	0	0	507	521	
15	0	0	0	0	506	521	
0	0	0	0	0	505	523	
1	0	0	0	0	504	521	
2	0	0	0	0	504	521	
3	0	0	0	0	503	521	
4	0	0	0	0	503	518	
5	0	0	0	0	503	520	
6	0	0	0	0	503	521	
7	0	0	0	0	504	520	
8	0	0	0	0	504	523	
9	0	0	0	0	505	520	
10	0	0	0	0	506	521	
11	0	0	0	0	506	520	
12	0	0	0	0	505	518	
13	0	0	0	0	505	520	
14	0	0	0	0	506	520	
15	0	0	0	0	505	520	
0	0	0	0	0	505	522	
1	0	0	0	0	504	520	
2	0	0	0	0	504	521	
3	0	0	0	0	504	521	
4	0	0	0	0	505	518	
5	0	0	0	0	505	520	
6	0	0	0	0	506	520	
7	0	0	0	0	506	520	
8	0	0	0	0	507	523	
9	0	0	0	0	507	521	
10	0	0	0	0	506	521	
11	0	0	0	0	506	521	
12	0	0	0	0	506	518	
13	0	0	0	0	507	521	
14	0	0	0	0	508	521	
15	0	0	0	0	508	521	
0	0	0	0	0	508	524	
1	0	0	0	0	508	521	
2	0	0	0	0	508	520	
3	0	0	0	0	508	521	
4	0	0	0	0	508	519	
5	0	0	0	0	509	522	
6	0	0	0	0	509	521	
7	0	0	0	0	509	521	
8	0	0	0	0	510	524	
9	0	0	0	0	510	521	
10	0	0	0	0	511	521	
11	0	0	0	0	511	521	
12	0	0	0	0	511	518	
13	0	0	0	0	511	521	
14	0	0	0	0	511	521	
15	0	0	0	0	511	522	
0	0	0	0	0	511	524	
1	0	0	0	0	510	522	
2	0	0	0	0	511	522	
3	0	0	0	0	510	521	
4	0	0	0	0	509	519	
5	0	0	0	0	509	522	
6	0	0	0	0	509	522	
7	0	0	0	0	509	523	
8	0	0	0	0	509	525	
9	0	0	0	0	510	522	
10	0	0	0	0	510	522	
11	0	0	0	0	509	521	
12	0	0	0	0	509	519	
13	0	0	0	0	508	523	
14	0	0	0	0	509	523	
15	0	0	0	0	508	522	
0	0	0	0	0	509	524	
1	0	0	0	0	508	523	
2	0	0	0	0	508	522	
3	0	0	0	0	509	523	
4	0	0	0	0	509	519	
5	0	0	0	0	509	522	
6	0	0	0	0	509	521	
7	0	0	0	0	509	522	
8	0	0	0	0	509	524	
9	0	0	0	0	508	522	
10	0	0	0	0	508	521	
11	0	0	0	0	507	521	
12	0	0	0	0	507	519	
13	0	0	0	0	507	521	
14	0	0	0	0	507	521	
15	0	0	0	0	508	521	
0	0	0	0	0	508	524	
1	0	0	0	0	507	521	
2	0	0	0	0	508	520	
3	0	0	0	0	508	521	
4	0	0	0	0	507	518	
5	0	0	0	0	507	521	
6	0	0	0	0	508	520	
7	0	0	0	0	508	520	
8	0	0	0	0	509	523	
9	0	0	0	0	509	520	
10	0	0	0	0	509	520	
11	0	0	0	0	509	520	
12	0	0	0	0	510	517	
13	0	0	0	0	510	520	
14	0	0	0	0	511	519	
15	0	0	0	0	511	519	
0	0	0	0	0	511	522	
1	0	0	0	0	512	520	
2	0	0	0	0	512	520	
3	0	0	0	0	513	520	
4	0	0	0	0	513	517	
5	0	0	0	0	513	520	
6	0	0	0	0	513	520	
7	0	0	0	0	512	519	
8	0	0	0	0	512	522	
9	0	0	0	0	511	520	
10	0	0	0	0	510	519	
11	0	0	0	0	510	520	
12	0	0	0	0	510	517	
13	0	0	0	0	510	520	
14	0	0	0	0	509	519	
15	0	0	0	0	508	519	
0	0	0	0	0	507	523	
1	0	0	0	0	506	520	
2	0	0	0	0	505	520	
3	0	0	0	0	505	520	
4	0	0	0	0	504	517	
5	0	0	0	0	505	520	
6	0	0	0	0	505	520	
7	0	0	0	0	505	520	
8	0	0	0	0	505	522	
9	0	0	0	0	506	520	
10	0	0	0	0	507	520	
11	0	0	0	0	508	521	
12	0	0	0	0	508	518	
13	0	0	0	0	508	520	
14	0	0	0	0	508	520	
15	0	0	0	0	508	520	
0	0	0	0	0	508	523	
1	0	0	0	0	508	521	
2	0	0	0	0	507	520	
3	0	0	0	0	506	520	
4	0	0	0	0	506	518	
5	0	0	0	0	505	520	
6	0	0	0	0	505	520	
7	0	0	0	0	506	521	
8	0	0	0	0	506	523	
9	0	0	0	0	506	520	
10	0	0	0	0	506	520	
11	0	0	0	0	506	520	
12	0	0	0	0	505	517	
13	0	0	0	0	505	520	
14	0	0	0	0	504	520	
15	0	0	0	0	504	520	
0	0	0	0	0	504	523	
1	0	0	0	0	503	519	
2	0	0	0	0	503	520	
3	0	0	0	0	502	520	
4	0	0	0	0	502	518	
5	0	0	0	0	503	520	
6	0	0	0	0	504	520	
7	0	0	0	0	505	520	
8	0	0	0	0	506	523	
9	0	0	0	0	507	520	
10	0	0	0	0	508	520	
11	0	0	0	0	509	520	
12	0	0	0	0	509	518	
13	0	0	0	0	510	520	
14	0	0	0	0	511	520	
15	0	0	0	0	511	520	
0	0	0	0	0	512	523	
1	0	0	0	0	511	520	
2	0	0	0	0	512	521	
3	0	0	0	0	511	521	
4	0	0	0	0	510	518	
5	0	0	0	0	510	520	
6	0	0	0	0	509	521	
7	0	0	0	0	510	521	
8	0	0	0	0	509	523	
9	0	0	0	0	509	521	
10	0	0	0	0	508	520	
11	0	0	0	0	509	519	
12	0	0	0	0	509	517	
13	0	0	0	0	508	521	
14	0	0	0	0	507	521	
15	0	0	0	0	507	520	
0	0	0	0	0	507	523	
1	0	0	0	0	506	521	
2	0	0	0	0	506	521	
3	0	0	0	0	505	521	
4	0	0	0	0	505	519	
5	0	0	0	0	505	521	
6	0	0	0	0	505	520	
7	0	0	0	0	506	521	
8	0	0	0	0	505	523	
9	0	0	0	0	505	521	
10	0	0	0	0	505	521	
11	0	0	0	0	505	521	
12	0	0	0	0	505	518	
13	0	0	0	0	506	521	
14	0	0	0	0	506	522	
15	0	0	0	0	506	521	
0	0	0	0	0	507	523	
1	0	0	0	0	508	521	
2	0	0	0	0	509	521	
3	0	0	0	0	509	520	
4	0	0	0	0	509	518	
5	0	0	0	0	510	521	
6	0	0	0	0	510	521	
7	0	0	0	0	510	521	
8	0	0	0	0	510	523	
9	0	0	0	0	510	521	
10	0	0	0	0	510	521	
11	0	0	0	0	510	520	
12	0	0	0	0	510	518	
13	0	0	0	0	510	520	
14	0	0	0	0	510	520	
15	0	0	0	0	511	520	
0	0	0	0	0	511	523	
1	0	0	0	0	511	520	
2	0	0	0	0	511	520	
3	0	0	0	0	511	519	
4	0	0	0	0	511	519	
5	0	0	0	0	510	520	
6	0	0	0	0	509	520	
7	0	0	0	0	508	520	
8	0	0	0	0	509	523	
9	0	0	0	0	509	521	
10	0	0	0	0	508	520	
11	0	0	0	0	508	521	
12	0	0	0	0	509	519	
13	0	0	0	0	508	520	
14	0	0	0	0	509	521	
15	0	0	0	0	509	521	
0	0	0	0	0	508	524	
1	0	0	0	0	508	521	
2	0	0	0	0	508	521	
3	0	0	0	0	508	521	
4	0	0	0	0	508	518	
5	0	0	0	0	507	520	
6	0	0	0	0	506	520	
7	0	0	0	0	506	520	
8	0	0	0	0	506	523	
9	0	0	0	0	506	521	
10	0	0	0	0	507	521	
11	0	0	0	0	507	521	
12	0	0	0	0	508	518	
13	0	0	0	0	508	521	
14	0	0	0	0	509	520	
15	0	0	0	0	510	520	
0	0	0	0	0	510	522	
1	0	0	0	0	510	519	
2	0	0	0	0	511	519	
3	0	0	0	0	511	519	
4	0	0	0	0	512	517	
5	0	0	0	0	511	519	
6	0	0	0	0	511	519	
7	0	0	0	0	510	519	
8	0	0	0	0	509	522	
9	0	0	0	0	508	520	
10	0	0	0	0	507	520	
11	0	0	0	0	506	520	
12	0	0	0	0	506	518	
13	0	0	0	0	505	520	
14	0	0	0	0	505	520	
15	0	0	0	0	506	519	
0	0	0	0	0	507	523	
1	0	0	0	0	508	520	
2	0	0	0	0	509	521	
3	0	0	0	0	511	520	
4	0	0	0	0	512	517	
5	0	0	0	0	512	519	
6	0	0	0	0	513	519	
7	0	0	0	0	513	520	
8	0	0	0	0	512	523	
9	0	0	0	0	513	520	
10	0	0	0	0	512	521	
11	0	0	0	0	512	521	
12	0	0	0	0	512	518	
13	0	0	0	0	512	521	
14	0	0	0	0	511	521	
15	0	0	0	0	510	521	
0	0	0	0	0	510	524	
1	0	0	0	0	508	521	
2	0	0	0	0	507	521	
3	0	0	0	0	506	521	
4	0	0	0	0	504	519	
5	0	0	0	0	503	521	
6	0	0	0	0	501	522	
7	0	0	0	0	499	522	
8	0	0	0	0	499	524	
9	0	0	0	0	499	521	
10	0	0	0	0	500	521	
11	0	0	0	0	501	522	
12	0	0	0	0	502	519	
13	0	0	0	0	503	522	
14	0	0	0	0	503	521	
15	0	0	0	0	504	522	
0	0	0	0	0	504	524	
1	0	0	0	0	505	522	
2	0	0	0	0	506	522	
3	0	0	0	0	507	522	
4	0	0	0	0	507	520	
5	0	0	0	0	507	521	
6	0	0	0	0	506	521	
7	0	0	0	0	506	522	
8	0	0	0	0	506	524	
9	0	0	0	0	506	522	
10	0	0	0	0	506	522	
11	0	0	0	0	505	522	
12	0	0	0	0	506	519	
13	0	0	0	0	506	522	
14	0	0	0	0	506	522	
15	0	0	0	0	506	521	
0	0	0	0	0	506	525	
1	0	0	0	0	507	523	
2	0	0	0	0	507	522	
3	0	0	0	0	507	522	
4	0	0	0	0	508	519	
5	0	0	0	0	508	522	
6	0	0	0	0	508	522	
7	0	0	0	0	508	522	
8	0	0	0	0	508	524	
9	0	0	0	0	508	522	
10	0	0	0	0	508	522	
11	0	0	0	0	509	521	
12	0	0	0	0	509	519	
13	0	0	0	0	510	522	
14	0	0	0	0	511	521	
15	0	0	0	0	510	521	
0	0	0	0	0	510	524	
1	0	0	0	0	510	522	
2	0	0	0	0	511	522	
3	0	0	0	0	511	521	
4	0	0	0	0	511	519	
5	0	0	0	0	511	521	
6	0	0	0	0	511	521	
7	0	0	0	0	510	521	
8	0	0	0	0	510	523	
9	0	0	0	0	510	520	
10	0	0	0	0	510	521	
11	0	0	0	0	510	520	
12	0	0	0	0	510	518	
13	0	0	0	0	510	520	
14	0	0	0	0	510	521	
15	0	0	0	0	510	521	
0	0	0	0	0	511	523	
1	0	0	0	0	511	521	
2	0	0	0	0	511	521	
3	0	0	0	0	511	520	
4	0	0	0	0	511	518	
5	0	0	0	0	511	520	
6	0	0	0	0	511	520	
7	0	0	0	0	511	519	
8	0	0	0	0	511	523	
9	0	0	0	0	510	520	
10	0	0	0	0	510	519	
11	0	0	0	0	510	520	
12	0	0	0	0	509	518	
13	0	0	0	0	509	520	
14	0	0	0	0	509	519	
15	0	0	0	0	509	519	
0	0	0	0	0	510	522	
1	0	0	0	0	510	520	
2	0	0	0	0	511	520	
3	0	0	0	0	512	520	
4	0	0	0	0	512	518	
5	0	0	0	0	512	521	
6	0	0	0	0	512	520	
7	0	0	0	0	513	521	
8	0	0	0	0	513	523	
9	0	0	0	0	512	520	
10	0	0	0	0	512	520	
11	0	0	0	0	512	520	
12	0	0	0	0	512	518	
13	0	0	0	0	512	520	
14	0	0	0	0	511	519	
15	0	0	0	0	512	520	
0	0	0	0	0	512	523	
1	0	0	0	0	512	519	
2	0	0	0	0	512	520	
3	0	0	0	0	512	520	
4	0	0	0	0	514	518	
5	0	0	0	0	515	520	
6	0	0	0	0	515	520	
7	0	0	0	0	515	519	
8	0	0	0	0	514	522	
9	0	0	0	0	514	520	
10	0	0	0	0	513	520	
11	0	0	0	0	512	520	
12	0	0	0	0	512	518	
13	0	0	0	0	512	520	
14	0	0	0	0	511	520	
15	0	0	0	0	511	520	
0	0	0	0	0	511	522	
1	0	0	0	0	511	520	
2	0	0	0	0	510	520	
3	0	0	0	0	511	520	
4	0	0	0	0	511	517	
5	0	0	0	0	511	520	
6	0	0	0	0	512	520	
7	0	0	0	0	513	520	
8	0	0	0	0	513	523	
9	0	0	0	0	513	520	
10	0	0	0	0	514	520	
11	0	0	0	0	514	519	
12	0	0	0	0	515	516	
13	0	0	0	0	516	520	
14	0	0	0	0	517	519	
15	0	0	0	0	517	519	
0	0	0	0	0	516	522	
1	0	0	0	0	516	520	
2	0	0	0	0	515	520	
3	0	0	0	0	515	520	
4	0	0	0	0	515	517	
5	0	0	0	0	514	520	
6	0	0	0	0	514	520	
7	0	0	0	0	514	520	
8	0	0	0	0	513	523	
9	0	0	0	0	514	520	
10	0	0	0	0	514	519	
11	0	0	0	0	513	520	
12	0	0	0	0	513	518	
13	0	0	0	0	512	520	
14	0	0	0	0	511	521	
15	0	0	0	0	509	520	
0	0	0	0	0	507	523	
1	0	0	0	0	505	521	
2	0	0	0	0	503	520	
3	0	0	0	0	501	520	
4	0	0	0	0	500	517	
5	0	0	0	0	499	519	
6	0	0	0	0	498	520	
7	0	0	0	0	498	520	
8	0	0	0	0	499	523	
9	0	0	0	0	499	520	
10	0	0	0	0	501	519	
11	0	0	0	0	504	520	
12	0	0	0	0	506	518	
13	0	0	0	0	510	521	
14	0	0	0	0	513	521	
15	0	0	0	0	516	520	
0	0	0	0	0	521	523	
1	0	0	0	0	525	520	
2	0	0	0	0	530	520	
3	0	0	0	0	534	521	
4	0	0	0	0	539	518	
5	0	0	0	0	545	521	
6	0	0	0	0	551	521	
7	0	0	0	0	558	521	
8	0	0	0	0	566	523	
9	0	0	0	0	573	521	
10	0	0	0	0	582	521	
11	0	0	0	0	591	520	
12	0	0	0	0	599	518	
13	0	0	0	0	606	520	
14	0	0	0	0	610	520	
15	0	0	0	0	614	521	
0	0	0	0	0	613	523	
1	0	0	0	0	610	521	
2	0	0	0	0	607	521	
3	0	0	0	0	604	520	
4	0	0	0	0	601	518	
5	0	0	0	0	599	520	
6	0	0	0	0	595	520	
7	0	0	0	0	591	520	
8	0	0	0	0	587	523	
9	0	0	0	0	583	521	
10	0	0	0	0	579	520	
11	0	0	0	0	576	521	
12	0	0	0	0	574	518	
13	0	0	0	0	573	520	
14	0	0	0	0	572	521	
15	0	0	0	0	570	521	
0	0	0	0	0	568	524	
1	0	0	0	0	564	521	
2	0	0	0	0	560	521	
3	0	0	0	0	555	521	
4	0	0	0	0	549	519	
5	0	0	0	0	543	521	
6	0	0	0	0	538	522	
7	0	0	0	0	533	522	
8	0	0	0	0	527	524	
9	0	0	0	0	521	522	
10	0	0	0	0	516	522	
11	0	0	0	0	511	521	
12	0	0	0	0	506	518	
13	0	0	0	0	502	521	
14	0	0	0	0	498	522	
15	0	0	0	0	495	522	
0	0	0	0	0	492	525	
1	0	0	0	0	489	522	
2	0	0	0	0	487	522	
3	0	0	0	0	486	522	
4	0	0	0	0	484	519	
5	0	0	0	0	483	522	
6	0	0	0	0	483	521	
7	0	0	0	0	482	522	
8	0	0	0	0	482	524	
9	0	0	0	0	482	522	
10	0	0	0	0	483	521	
11	0	0	0	0	482	521	
12	0	0	0	0	483	519	
13	0	0	0	0	483	522	
14	0	0	0	0	483	521	
15	0	0	0	0	483	521	
0	0	0	0	0	483	524	
1	0	0	0	0	484	521	
2	0	0	0	0	484	520	
3	0	0	0	0	484	520	
4	0	0	0	0	483	518	
5	0	0	0	0	483	521	
6	0	0	0	0	481	521	
7	0	0	0	0	480	521	
8	0	0	0	0	479	524	
9	0	0	0	0	480	520	
10	0	0	0	0	480	520	
11	0	0	0	0	480	521	
12	0	0	0	0	480	518	
13	0	0	0	0	480	520	
14	0	0	0	0	481	520	
15	0	0	0	0	482	520	
0	0	0	0	0	482	523	
1	0	0	0	0	483	520	
2	0	0	0	0	483	521	
3	0	0	0	0	483	521	
4	0	0	0	0	484	518	
5	0	0	0	0	485	521	
6	0	0	0	0	486	520	
7	0	0	0	0	487	520	
8	0	0	0	0	489	523	
9	0	0	0	0	490	521	
10	0	0	0	0	490	521	
11	0	0	0	0	491	520	
12	0	0	0	0	491	518	
13	0	0	0	0	491	520	
14	0	0	0	0	492	520	
15	0	0	0	0	492	520	
0	0	0	0	0	491	522	
1	0	0	0	0	492	520	
2	0	0	0	0	491	520	
3	0	0	0	0	491	520	
4	0	0	0	0	492	518	
5	0	0	0	0	492	520	
6	0	0	0	0	493	520	
7	0	0	0	0	492	520	
8	0	0	0	0	493	523	
9	0	0	0	0	493	521	
10	0	0	0	0	492	521	
11	0	0	0	0	492	521	
12	0	0	0	0	492	519	
13	0	0	0	0	491	521	
14	0	0	0	0	491	521	
15	0	0	0	0	491	521	
0	0	0	0	0	491	524	
1	0	0	0	0	491	520	
2	0	0	0	0	491	520	
3	0	0	0	0	490	521	
4	0	0	0	0	490	518	
5	0	0	0	0	490	521	
6	0	0	0	0	489	521	
7	0	0	0	0	488	521	
8	0	0	0	0	488	524	
9	0	0	0	0	488	521	
10	0	0	0	0	488	521	
11	0	0	0	0	488	522	
12	0	0	0	0	489	519	
13	0	0	0	0	490	522	
14	0	0	0	0	491	522	
15	0	0	0	0	491	522	
0	0	0	0	0	492	524	
1	0	0	0	0	493	522	
2	0	0	0	0	493	522	
3	0	0	0	0	494	522	
4	0	0	0	0	495	519	
5	0	0	0	0	496	522	
6	0	0	0	0	497	522	
7	0	0	0	0	497	522	
8	0	0	0	0	498	524	
9	0	0	0	0	498	522	
10	0	0	0	0	499	522	
11	0	0	0	0	499	522	
12	0	0	0	0	499	519	
13	0	0	0	0	499	522	
14	0	0	0	0	499	521	
15	0	0	0	0	499	522	
0	0	0	0	0	499	524	
1	0	0	0	0	500	522	
2	0	0	0	0	500	522	
3	0	0	0	0	501	522	
4	0	0	0	0	501	519	
5	0	0	0	0	502	522	
6	0	0	0	0	502	521	
7	0	0	0	0	503	521	
8	0	0	0	0	503	524	
9	0	0	0	0	503	522	
10	0	0	0	0	503	522	
11	0	0	0	0	503	521	
12	0	0	0	0	503	519	
13	0	0	0	0	502	521	
14	0	0	0	0	501	521	
15	0	0	0	0	500	521	
0	0	0	0	0	500	524	
1	0	0	0	0	499	521	
2	0	0	0	0	499	521	
3	0	0	0	0	498	521	
4	0	0	0	0	497	518	
5	0	0	0	0	498	521	
6	0	0	0	0	497	520	
7	0	0	0	0	497	521	
8	0	0	0	0	498	523	
9	0	0	0	0	498	521	
10	0	0	0	0	499	521	
11	0	0	0	0	499	521	
12	0	0	0	0	499	518	
13	0	0	0	0	499	521	
14	0	0	0	0	500	521	
15	0	0	0	0	500	521	
0	0	0	0	0	501	523	
1	0	0	0	0	501	520	
2	0	0	0	0	501	520	
3	0	0	0	0	501	520	
4	0	0	0	0	501	518	
5	0	0	0	0	501	520	
6	0	0	0	0	502	520	
7	0	0	0	0	503	520	
8	0	0	0	0	504	523	
9	0	0	0	0	505	520	
10	0	0	0	0	506	521	
11	0	0	0	0	507	520	
12	0	0	0	0	508	518	
13	0	0	0	0	508	520	
14	0	0	0	0	509	521	
15	0	0	0	0	509	521	
0	0	0	0	0	509	524	
1	0	0	0	0	510	521	
2	0	0	0	0	510	521	
3	0	0	0	0	511	521	
4	0	0	0	0	511	519	
5	0	0	0	0	511	521	
6	0	0	0	0	510	521	
7	0	0	0	0	510	521	
8	0	0	0	0	509	524	
9	0	0	0	0	509	521	
10	0	0	0	0	509	521	
11	0	0	0	0	509	520	
12	0	0	0	0	508	519	
13	0	0	0	0	508	521	
14	0	0	0	0	509	520	
15	0	0	0	0	510	520	
0	0	0	0	0	510	523	
1	0	0	0	0	509	521	
2	0	0	0	0	509	520	
3	0	0	0	0	508	520	
4	0	0	0	0	508	518	
5	0	0	0	0	508	520	
6	0	0	0	0	508	520	
7	0	0	0	0	509	520	
8	0	0	0	0	509	522	
9	0	0	0	0	510	520	
10	0	0	0	0	510	519	
11	0	0	0	0	510	520	
12	0	0	0	0	510	517	
13	0	0	0	0	510	520	
14	0	0	0	0	510	520	
15	0	0	0	0	509	520	
0	0	0	0	0	509	522	
1	0	0	0	0	509	519	
2	0	0	0	0	509	519	
3	0	0	0	0	509	519	
4	0	0	0	0	510	516	
5	0	0	0	0	510	519	
6	0	0	0	0	511	520	
7	0	0	0	0	512	519	
8	0	0	0	0	512	522	
9	0	0	0	0	513	519	
10	0	0	0	0	513	519	
11	0	0	0	0	513	519	
12	0	0	0	0	513	516	
13	0	0	0	0	513	519	
14	0	0	0	0	513	519	
15	0	0	0	0	513	519	
0	0	0	0	0	513	521	
1	0	0	0	0	513	519	
2	0	0	0	0	512	520	
3	0	0	0	0	512	519	
4	0	0	0	0	512	517	
5	0	0	0	0	511	520	
6	0	0	0	0	511	519	
7	0	0	0	0	511	520	
8	0	0	0	0	511	523	
9	0	0	0	0	511	520	
10	0	0	0	0	511	521	
11	0	0	0	0	511	520	
12	0	0	0	0	511	519	
13	0	0	0	0	511	521	
14	0	0	0	0	511	521	
15	0	0	0	0	512	521	
0	0	0	0	0	511	523	
1	0	0	0	0	511	520	
2	0	0	0	0	512	520	
3	0	0	0	0	511	520	
4	0	0	0	0	512	519	
5	0	0	0	0	512	521	
6	0	0	0	0	512	520	
7	0	0	0	0	512	521	
8	0	0	0	0	512	523	
9	0	0	0	0	512	520	
10	0	0	0	0	513	521	
11	0	0	0	0	514	520	
12	0	0	0	0	515	518	
13	0	0	0	0	516	520	
14	0	0	0	0	518	520	
15	0	0	0	0	519	520	
0	0	0	0	0	520	523	
1	0	0	0	0	521	520	
2	0	0	0	0	522	520	
3	0	0	0	0	523	520	
4	0	0	0	0	524	518	
5	0	0	0	0	524	521	
6	0	0	0	0	524	520	
7	0	0	0	0	523	520	
8	0	0	0	0	523	523	
9	0	0	0	0	521	520	
10	0	0	0	0	520	520	
11	0	0	0	0	519	520	
12	0	0	0	0	518	518	
13	0	0	0	0	517	520	
14	0	0	0	0	515	520	
15	0	0	0	0	515	520	
0	0	0	0	0	513	524	
1	0	0	0	0	512	521	
2	0	0	0	0	512	522	
3	0	0	0	0	511	521	
4	0	0	0	0	510	519	
5	0	0	0	0	510	521	
6	0	0	0	0	509	522	
7	0	0	0	0	509	521	
8	0	0	0	0	508	524	
9	0	0	0	0	508	521	
10	0	0	0	0	508	520	
11	0	0	0	0	508	520	
12	0	0	0	0	508	517	
13	0	0	0	0	509	520	
14	0	0	0	0	509	520	
15	0	0	0	0	509	519	
0	0	0	0	0	510	521	
1	0	0	0	0	510	519	
2	0	0	0	0	509	519	
3	0	0	0	0	508	518	
4	0	0	0	0	508	515	
5	0	0	0	0	508	518	
6	0	0	0	0	508	519	
7	0	0	0	0	508	518	
8	0	0	0	0	507	519	
9	0	0	0	0	507	518	
10	0	0	0	0	507	518	
11	0	0	0	0	507	518	
12	0	0	0	0	506	515	
13	0	0	0	0	506	518	
14	0	0	0	0	506	519	
15	0	0	0	0	505	519	
0	0	0	0	0	506	521	
1	0	0	0	0	505	519	
2	0	0	0	0	505	520	
3	0	0	0	0	506	519	
4	0	0	0	0	505	517	
5	0	0	0	0	506	520	
6	0	0	0	0	506	520	
7	0	0	0	0	505	520	
8	0	0	0	0	506	523	
9	0	0	0	0	506	521	
10	0	0	0	0	507	521	
11	0	0	0	0	507	521	
12	0	0	0	0	507	519	
13	0	0	0	0	506	521	
14	0	0	0	0	506	522	
15	0	0	0	0	505	521	
0	0	0	0	0	505	524	
1	0	0	0	0	505	522	
2	0	0	0	0	505	522	
3	0	0	0	0	505	521	
4	0	0	0	0	505	519	
5	0	0	0	0	504	523	
6	0	0	0	0	504	523	
7	0	0	0	0	504	523	
8	0	0	0	0	504	525	
9	0	0	0	0	504	523	
10	0	0	0	0	503	523	
11	0	0	0	0	503	523	
12	0	0	0	0	502	519	
13	0	0	0	0	502	523	
14	0	0	0	0	502	523	
15	0	0	0	0	502	522	
0	0	0	0	0	503	525	
1	0	0	0	0	505	522	
2	0	0	0	0	507	523	
3	0	0	0	0	508	523	
4	0	0	0	0	509	519	
5	0	0	0	0	509	523	
6	0	0	0	0	510	523	
7	0	0	0	0	510	522	
8	0	0	0	0	509	524	
9	0	0	0	0	508	522	
10	0	0	0	0	507	522	
11	0	0	0	0	506	521	
12	0	0	0	0	505	519	
13	0	0	0	0	505	521	
14	0	0	0	0	504	522	
15	0	0	0	0	504	521	
0	0	0	0	0	505	524	
1	0	0	0	0	505	521	
2	0	0	0	0	506	521	
3	0	0	0	0	507	521	
4	0	0	0	0	507	519	
5	0	0	0	0	508	521	
6	0	0	0	0	509	521	
7	0	0	0	0	510	521	
8	0	0	0	0	511	523	
9	0	0	0	0	511	521	
10	0	0	0	0	511	521	
11	0	0	0	0	511	520	
12	0	0	0	0	511	518	
13	0	0	0	0	511	520	
14	0	0	0	0	510	521	
15	0	0	0	0	510	520	
0	0	0	0	0	508	523	
1	0	0	0	0	507	521	
2	0	0	0	0	506	521	
3	0	0	0	0	506	520	
4	0	0	0	0	505	517	
5	0	0	0	0	506	520	
6	0	0	0	0	506	520	
7	0	0	0	0	506	521	
8	0	0	0	0	506	524	
9	0	0	0	0	506	521	
10	0	0	0	0	506	521	
11	0	0	0	0	506	522	
12	0	0	0	0	506	519	
13	0	0	0	0	506	522	
14	0	0	0	0	505	521	
15	0	0	0	0	504	521	
0	0	0	0	0	504	524	
1	0	0	0	0	504	521	
2	0	0	0	0	504	522	
3	0	0	0	0	504	522	
4	0	0	0	0	504	519	
5	0	0	0	0	504	522	
6	0	0	0	0	504	522	
7	0	0	0	0	505	522	
8	0	0	0	0	505	524	
9	0	0	0	0	505	522	
10	0	0	0	0	506	522	
11	0	0	0	0	506	523	
12	0	0	0	0	506	520	
13	0	0	0	0	506	522	
14	0	0	0	0	506	522	
15	0	0	0	0	506	522	
0	0	0	0	0	506	525	
1	0	0	0	0	506	522	
2	0	0	0	0	505	523	
3	0	0	0	0	504	522	
4	0	0	0	0	504	519	
5	0	0	0	0	504	522	
6	0	0	0	0	504	522	
7	0	0	0	0	504	522	
8	0	0	0	0	505	524	
9	0	0	0	0	504	522	
10	0	0	0	0	503	521	
11	0	0	0	0	503	521	
12	0	0	0	0	503	518	
13	0	0	0	0	504	520	
14	0	0	0	0	504	520	
15	0	0	0	0	505	520	
0	0	0	0	0	506	523	
1	0	0	0	0	507	521	
2	0	0	0	0	508	520	
3	0	0	0	0	509	521	
4	0	0	0	0	510	518	
5	0	0	0	0	510	521	
6	0	0	0	0	511	521	
7	0	0	0	0	511	521	
8	0	0	0	0	511	524	
9	0	0	0	0	511	521	
10	0	0	0	0	512	521	
11	0	0	0	0	512	521	
12	0	0	0	0	512	518	
13	0	0	0	0	513	521	
14	0	0	0	0	513	521	
15	0	0	0	0	514	521	
0	0	0	0	0	515	524	
1	0	0	0	0	515	521	
2	0	0	0	0	514	521	
3	0	0	0	0	514	521	
4	0	0	0	0	514	519	
5	0	0	0	0	514	521	
6	0	0	0	0	514	522	
7	0	0	0	0	514	521	
8	0	0	0	0	515	523	
9	0	0	0	0	515	521	
10	0	0	0	0	515	521	
11	0	0	0	0	515	521	
12	0	0	0	0	515	519	
13	0	0	0	0	515	522	
14	0	0	0	0	514	522	
15	0	0	0	0	513	522	
0	0	0	0	0	514	524	
1	0	0	0	0	514	522	
2	0	0	0	0	513	522	
3	0	0	0	0	513	521	
4	0	0	0	0	514	519	
5	0	0	0	0	513	522	
6	0	0	0	0	512	521	
7	0	0	0	0	512	521	
8	0	0	0	0	511	524	
9	0	0	0	0	511	521	
10	0	0	0	0	510	522	
11	0	0	0	0	510	522	
12	0	0	0	0	511	519	
13	0	0	0	0	511	521	
14	0	0	0	0	512	521	
15	0	0	0	0	512	520	
0	0	0	0	0	512	524	
1	0	0	0	0	512	521	
2	0	0	0	0	512	520	
3	0	0	0	0	512	521	
4	0	0	0	0	512	518	
5	0	0	0	0	513	521	
6	0	0	0	0	513	521	
7	0	0	0	0	512	521	
8	0	0	0	0	512	523	
9	0	0	0	0	512	520	
10	0	0	0	0	511	520	
11	0	0	0	0	511	520	
12	0	0	0	0	511	518	
13	0	0	0	0	512	520	
14	0	0	0	0	512	520	
15	0	0	0	0	512	521	
0	0	0	0	0	512	523	
1	0	0	0	0	512	519	
2	0	0	0	0	512	519	
3	0	0	0	0	512	520	
4	0	0	0	0	512	517	
5	0	0	0	0	511	519	
6	0	0	0	0	511	520	
7	0	0	0	0	511	520	
8	0	0	0	0	512	523	
9	0	0	0	0	513	520	
10	0	0	0	0	513	519	
11	0	0	0	0	513	520	
12	0	0	0	0	513	517	
13	0	0	0	0	514	520	
14	0	0	0	0	514	520	
15	0	0	0	0	514	520	
0	0	0	0	0	515	523	
1	0	0	0	0	515	520	
2	0	0	0	0	515	520	
3	0	0	0	0	516	520	
4	0	0	0	0	516	517	
5	0	0	0	0	515	520	
6	0	0	0	0	515	520	
7	0	0	0	0	515	519	
8	0	0	0	0	515	522	
9	0	0	0	0	515	519	
10	0	0	0	0	515	520	
11	0	0	0	0	515	519	
12	0	0	0	0	516	516	
13	0	0	0	0	515	519	
14	0	0	0	0	515	520	
15	0	0	0	0	515	519	
0	0	0	0	0	514	521	
1	0	0	0	0	512	520	
2	0	0	0	0	511	519	
3	0	0	0	0	510	519	
4	0	0	0	0	510	517	
5	0	0	0	0	510	519	
6	0	0	0	0	510	519	
7	0	0	0	0	511	519	
8	0	0	0	0	512	521	
9	0	0	0	0	513	519	
10	0	0	0	0	514	519	
11	0	0	0	0	515	519	
12	0	0	0	0	516	516	
13	0	0	0	0	517	519	
14	0	0	0	0	518	519	
15	0	0	0	0	518	520	
0	0	0	0	0	519	522	
1	0	0	0	0	520	519	
2	0	0	0	0	521	519	
3	0	0	0	0	521	519	
4	0	0	0	0	520	516	
5	0	0	0	0	519	519	
6	0	0	0	0	519	519	
7	0	0	0	0	518	519	
8	0	0	0	0	519	522	
9	0	0	0	0	517	520	
10	0	0	0	0	516	520	
11	0	0	0	0	517	520	
12	0	0	0	0	516	517	
13	0	0	0	0	515	520	
14	0	0	0	0	515	520	
15	0	0	0	0	514	520	
0	0	0	0	0	514	523	
1	0	0	0	0	514	520	
2	0	0	0	0	512	521	
3	0	0	0	0	512	521	
4	0	0	0	0	511	518	
5	0	0	0	0	511	521	
6	0	0	0	0	511	521	
7	0	0	0	0	511	520	
8	0	0	0	0	511	523	
9	0	0	0	0	511	521	
10	0	0	0	0	511	520	
11	0	0	0	0	511	520	
12	0	0	0	0	512	518	
13	0	0	0	0	512	521	
14	0	0	0	0	513	520	
15	0	0	0	0	515	520	
0	0	0	0	0	516	523	
1	0	0	0	0	516	520	
2	0	0	0	0	517	519	
3	0	0	0	0	518	520	
4	0	0	0	0	518	518	
5	0	0	0	0	518	521	
6	0	0	0	0	517	520	
7	0	0	0	0	516	520	
8	0	0	0	0	516	522	
9	0	0	0	0	515	521	
10	0	0	0	0	515	520	
11	0	0	0	0	514	520	
12	0	0	0	0	515	518	
13	0	0	0	0	515	520	
14	0	0	0	0	515	521	
15	0	0	0	0	516	520	
0	0	0	0	0	515	523	
1	0	0	0	0	515	520	
2	0	0	0	0	515	520	
3	0	0	0	0	515	521	
4	0	0	0	0	515	518	
5	0	0	0	0	515	521	
6	0	0	0	0	516	521	
7	0	0	0	0	516	520	
8	0	0	0	0	515	523	
9	0	0	0	0	515	521	
10	0	0	0	0	514	520	
11	0	0	0	0	514	520	
12	0	0	0	0	514	518	
13	0	0	0	0	515	520	
14	0	0	0	0	514	520	
15	0	0	0	0	515	520	
0	0	0	0	0	515	522	
1	0	0	0	0	515	520	
2	0	0	0	0	515	520	
3	0	0	0	0	515	521	
4	0	0	0	0	515	517	
5	0	0	0	0	516	520	
6	0	0	0	0	516	520	
7	0	0	0	0	516	520	
8	0	0	0	0	515	523	
9	0	0	0	0	516	520	
10	0	0	0	0	516	521	
11	0	0	0	0	516	520	
12	0	0	0	0	515	517	
13	0	0	0	0	515	520	
14	0	0	0	0	515	520	
15	0	0	0	0	515	520	
0	0	0	0	0	515	523	
1	0	0	0	0	515	520	
2	0	0	0	0	515	520	
3	0	0	0	0	515	521	
4	0	0	0	0	515	518	
5	0	0	0	0	514	520	
6	0	0	0	0	515	521	
7	0	0	0	0	514	521	
8	0	0	0	0	514	523	
9	0	0	0	0	514	521	
10	0	0	0	0	514	521	
11	0	0	0	0	515	520	
12	0	0	0	0	515	518	
13	0	0	0	0	515	521	
14	0	0	0	0	515	521	
15	0	0	0	0	515	521	
0	0	0	0	0	515	524	
1	0	0	0	0	514	522	
2	0	0	0	0	514	521	
3	0	0	0	0	513	522	
4	0	0	0	0	514	519	
5	0	0	0	0	514	522	
6	0	0	0	0	514	521	
7	0	0	0	0	514	522	
8	0	0	0	0	513	524	
9	0	0	0	0	513	522	
10	0	0	0	0	513	521	
11	0	0	0	0	513	521	
12	0	0	0	0	512	519	
13	0	0	0	0	512	521	
14	0	0	0	0	512	521	
15	0	0	0	0	512	521	
0	0	0	0	0	512	524	
1	0	0	0	0	512	521	
2	0	0	0	0	511	521	
3	0	0	0	0	512	521	
4	0	0	0	0	512	519	
5	0	0	0	0	513	521	
6	0	0	0	0	514	521	
7	0	0	0	0	515	521	
8	0	0	0	0	515	524	
9	0	0	0	0	515	521	
10	0	0	0	0	515	521	
11	0	0	0	0	516	521	
12	0	0	0	0	516	518	
13	0	0	0	0	516	520	
14	0	0	0	0	516	520	
15	0	0	0	0	516	519	
0	0	0	0	0	516	523	
1	0	0	0	0	516	520	
2	0	0	0	0	516	520	
3	0	0	0	0	516	520	
4	0	0	0	0	516	518	
5	0	0	0	0	517	521	
6	0	0	0	0	516	520	
7	0	0	0	0	516	521	
8	0	0	0	0	516	523	
9	0	0	0	0	515	521	
10	0	0	0	0	515	521	
11	0	0	0	0	515	521	
12	0	0	0	0	515	518	
13	0	0	0	0	515	522	
14	0	0	0	0	515	521	
15	0	0	0	0	515	521	
0	0	0	0	0	515	524	
1	0	0	0	0	514	522	
2	0	0	0	0	514	522	
3	0	0	0	0	513	521	
4	0	0	0	0	513	519	
5	0	0	0	0	513	522	
6	0	0	0	0	514	523	
7	0	0	0	0	515	522	
8	0	0	0	0	515	525	
9	0	0	0	0	516	523	
10	0	0	0	0	515	524	
11	0	0	0	0	516	523	
12	0	0	0	0	515	520	
13	0	0	0	0	515	524	
14	0	0	0	0	515	523	
15	0	0	0	0	515	523	
0	0	0	0	0	515	525	
1	0	0	0	0	515	523	
2	0	0	0	0	515	523	
3	0	0	0	0	515	522	
4	0	0	0	0	514	520	
5	0	0	0	0	514	522	
6	0	0	0	0	513	522	
7	0	0	0	0	513	523	
8	0	0	0	0	513	524	
9	0	0	0	0	513	522	
10	0	0	0	0	513	522	
11	0	0	0	0	514	522	
12	0	0	0	0	513	519	
13	0	0	0	0	513	522	
14	0	0	0	0	513	521	
15	0	0	0	0	512	521	
0	0	0	0	0	512	524	
1	0	0	0	0	511	521	
2	0	0	0	0	511	521	
3	0	0	0	0	511	521	
4	0	0	0	0	511	518	
5	0	0	0	0	511	521	
6	0	0	0	0	511	521	
7	0	0	0	0	511	520	
8	0	0	0	0	512	523	
9	0	0	0	0	511	521	
10	0	0	0	0	511	521	
11	0	0	0	0	510	521	
12	0	0	0	0	510	518	
13	0	0	0	0	510	520	
14	0	0	0	0	510	520	
15	0	0	0	0	510	520	
0	0	0	0	0	511	522	
1	0	0	0	0	511	520	
2	0	0	0	0	511	519	
3	0	0	0	0	511	520	
4	0	0	0	0	511	518	
5	0	0	0	0	511	520	
6	0	0	0	0	511	520	
7	0	0	0	0	511	520	
8	0	0	0	0	512	522	
9	0	0	0	0	512	519	
10	0	0	0	0	513	520	
11	0	0	0	0	514	520	
12	0	0	0	0	514	518	
13	0	0	0	0	515	520	
14	0	0	0	0	515	520	
15	0	0	0	0	514	520	
0	0	0	0	0	514	523	
1	0	0	0	0	513	521	
2	0	0	0	0	512	521	
3	0	0	0	0	512	521	
4	0	0	0	0	511	519	
5	0	0	0	0	511	521	
6	0	0	0	0	511	521	
7	0	0	0	0	510	521	
8	0	0	0	0	510	524	
9	0	0	0	0	510	522	
10	0	0	0	0	510	521	
11	0	0	0	0	511	521	
12	0	0	0	0	511	519	
13	0	0	0	0	512	522	
14	0	0	0	0	512	522	
15	0	0	0	0	512	522	
0	0	0	0	0	513	525	
1	0	0	0	0	512	522	
2	0	0	0	0	511	521	
3	0	0	0	0	510	522	
4	0	0	0	0	509	519	
5	0	0	0	0	509	522	
6	0	0	0	0	508	522	
7	0	0	0	0	507	522	
8	0	0	0	0	506	524	
9	0	0	0	0	506	522	
10	0	0	0	0	506	521	
11	0	0	0	0	506	521	
12	0	0	0	0	506	519	
13	0	0	0	0	507	522	
14	0	0	0	0	508	521	
15	0	0	0	0	509	521	
0	0	0	0	0	510	524	
1	0	0	0	0	511	521	
2	0	0	0	0	511	521	
3	0	0	0	0	512	522	
4	0	0	0	0	512	518	
5	0	0	0	0	512	521	
6	0	0	0	0	512	521	
7	0	0	0	0	512	521	
8	0	0	0	0	512	524	
9	0	0	0	0	513	521	
10	0	0	0	0	513	520	
11	0	0	0	0	514	521	
12	0	0	0	0	514	518	
13	0	0	0	0	514	521	
14	0	0	0	0	515	522	
15	0	0	0	0	515	522	
0	0	0	0	0	516	524	
1	0	0	0	0	516	521	
2	0	0	0	0	516	521	
3	0	0	0	0	516	521	
4	0	0	0	0	515	519	
5	0	0	0	0	516	521	
6	0	0	0	0	516	521	
7	0	0	0	0	516	521	
8	0	0	0	0	517	524	
9	0	0	0	0	516	521	
10	0	0	0	0	516	521	
11	0	0	0	0	516	520	
12	0	0	0	0	516	518	
13	0	0	0	0	516	521	
14	0	0	0	0	515	520	
15	0	0	0	0	516	520	
0	0	0	0	0	515	523	
1	0	0	0	0	515	520	
2	0	0	0	0	515	520	
3	0	0	0	0	515	519	
4	0	0	0	0	515	517	
5	0	0	0	0	515	519	
6	0	0	0	0	514	519	
7	0	0	0	0	514	519	
8	0	0	0	0	513	521	
9	0	0	0	0	513	519	
10	0	0	0	0	513	519	
11	0	0	0	0	512	519	
12	0	0	0	0	512	516	
13	0	0	0	0	511	518	
14	0	0	0	0	510	519	
15	0	0	0	0	509	519	
0	0	0	0	0	509	521	
1	0	0	0	0	509	519	
2	0	0	0	0	509	519	
3	0	0	0	0	509	519	
4	0	0	0	0	508	516	
5	0	0	0	0	508	519	
6	0	0	0	0	508	519	
7	0	0	0	0	508	519	
8	0	0	0	0	508	521	
9	0	0	0	0	507	519	
10	0	0	0	0	507	519	
11	0	0	0	0	506	519	
12	0	0	0	0	507	516	
13	0	0	0	0	507	519	
14	0	0	0	0	507	519	
15	0	0	0	0	508	519	
0	0	0	0	0	509	521	
1	0	0	0	0	508	519	
2	0	0	0	0	508	519	
3	0	0	0	0	507	519	
4	0	0	0	0	507	517	
5	0	0	0	0	507	520	
6	0	0	0	0	506	519	
7	0	0	0	0	506	519	
8	0	0	0	0	505	522	
9	0	0	0	0	506	520	
10	0	0	0	0	508	519	
11	0	0	0	0	509	519	
12	0	0	0	0	510	517	
13	0	0	0	0	510	520	
14	0	0	0	0	511	519	
15	0	0	0	0	512	520	
0	0	0	0	0	512	523	
1	0	0	0	0	513	520	
2	0	0	0	0	513	520	
3	0	0	0	0	514	519	
4	0	0	0	0	515	517	
5	0	0	0	0	515	519	
6	0	0	0	0	516	519	
7	0	0	0	0	517	520	
8	0	0	0	0	518	521	
9	0	0	0	0	518	519	
10	0	0	0	0	518	519	
11	0	0	0	0	518	519	
12	0	0	0	0	518	516	
13	0	0	0	0	518	519	
14	0	0	0	0	517	519	
15	0	0	0	0	517	519	
0	0	0	0	0	518	521	
1	0	0	0	0	517	519	
2	0	0	0	0	517	519	
3	0	0	0	0	516	519	
4	0	0	0	0	515	516	
5	0	0	0	0	515	519	
6	0	0	0	0	515	519	
7	0	0	0	0	515	519	
8	0	0	0	0	515	521	
9	0	0	0	0	514	519	
10	0	0	0	0	513	519	
11	0	0	0	0	511	520	
12	0	0	0	0	510	517	
13	0	0	0	0	509	519	
14	0	0	0	0	508	519	
15	0	0	0	0	506	520	
0	0	0	0	0	504	522	
1	0	0	0	0	502	519	
2	0	0	0	0	501	519	
3	0	0	0	0	499	520	
4	0	0	0	0	499	518	
5	0	0	0	0	497	521	
6	0	0	0	0	497	521	
7	0	0	0	0	497	521	
8	0	0	0	0	497	524	
9	0	0	0	0	498	522	
10	0	0	0	0	500	521	
11	0	0	0	0	502	521	
12	0	0	0	0	504	519	
13	0	0	0	0	507	521	
14	0	0	0	0	510	521	
15	0	0	0	0	514	522	
0	0	0	0	0	518	524	
1	0	0	0	0	522	521	
2	0	0	0	0	527	521	
3	0	0	0	0	531	521	
4	0	0	0	0	536	518	
5	0	0	0	0	541	521	
6	0	0	0	0	549	521	
7	0	0	0	0	556	522	
8	0	0	0	0	565	524	
9	0	0	0	0	572	521	
10	0	0	0	0	581	521	
11	0	0	0	0	589	521	
12	0	0	0	0	596	518	
13	0	0	0	0	602	520	
14	0	0	0	0	607	521	
15	0	0	0	0	609	521	
0	0	0	0	0	609	523	
1	0	0	0	0	606	520	
2	0	0	0	0	603	520	
3	0	0	0	0	600	520	
4	0	0	0	0	599	517	
5	0	0	0	0	595	520	
6	0	0	0	0	590	520	
7	0	0	0	0	585	520	
8	0	0	0	0	581	523	
9	0	0	0	0	576	521	
10	0	0	0	0	572	520	
11	0	0	0	0	569	520	
12	0	0	0	0	567	519	
13	0	0	0	0	566	521	
14	0	0	0	0	564	520	
15	0	0	0	0	563	521	
0	0	0	0	0	561	523	
1	0	0	0	0	558	521	
2	0	0	0	0	554	521	
3	0	0	0	0	549	521	
4	0	0	0	0	543	518	
5	0	0	0	0	536	522	
6	0	0	0	0	531	522	
7	0	0	0	0	526	522	
8	0	0	0	0	521	524	
9	0	0	0	0	515	521	
10	0	0	0	0	510	521	
11	0	0	0	0	506	522	
12	0	0	0	0	501	519	
13	0	0	0	0	497	522	
14	0	0	0	0	494	522	
15	0	0	0	0	490	521	
0	0	0	0	0	488	524	
1	0	0	0	0	487	521	
2	0	0	0	0	485	522	
3	0	0	0	0	484	522	
4	0	0	0	0	482	519	
5	0	0	0	0	481	522	
6	0	0	0	0	480	522	
7	0	0	0	0	479	522	
8	0	0	0	0	479	525	
9	0	0	0	0	478	522	
10	0	0	0	0	478	522	
11	0	0	0	0	477	521	
12	0	0	0	0	476	519	
13	0	0	0	0	475	522	
14	0	0	0	0	475	521	
15	0	0	0	0	474	522	
0	0	0	0	0	473	524	
1	0	0	0	0	473	521	
2	0	0	0	0	473	521	
3	0	0	0	0	472	520	
4	0	0	0	0	473	518	
5	0	0	0	0	473	521	
6	0	0	0	0	474	521	
7	0	0	0	0	475	520	
8	0	0	0	0	476	523	
9	0	0	0	0	477	521	
10	0	0	0	0	479	520	
11	0	0	0	0	480	521	
12	0	0	0	0	481	518	
13	0	0	0	0	483	520	
14	0	0	0	0	484	521	
15	0	0	0	0	485	520	
0	0	0	0	0	487	523	
1	0	0	0	0	488	520	
2	0	0	0	0	488	520	
3	0	0	0	0	490	520	
4	0	0	0	0	490	517	
5	0	0	0	0	491	520	
6	0	0	0	0	491	520	
7	0	0	0	0	491	519	
8	0	0	0	0	491	523	
9	0	0	0	0	490	520	
10	0	0	0	0	491	520	
11	0	0	0	0	490	520	
12	0	0	0	0	489	517	
13	0	0	0	0	489	521	
14	0	0	0	0	489	520	
15	0	0	0	0	490	520	
0	0	0	0	0	490	523	
1	0	0	0	0	490	521	
2	0	0	0	0	490	521	
3	0	0	0	0	489	521	
4	0	0	0	0	488	519	
5	0	0	0	0	489	521	
6	0	0	0	0	489	521	
7	0	0	0	0	489	522	
8	0	0	0	0	488	524	
9	0	0	0	0	488	522	
10	0	0	0	0	488	522	
11	0	0	0	0	488	522	
12	0	0	0	0	488	519	
13	0	0	0	0	488	521	
14	0	0	0	0	489	522	
15	0	0	0	0	489	522	
0	0	0	0	0	488	524	
1	0	0	0	0	488	522	
2	0	0	0	0	489	523	
3	0	0	0	0	488	522	
4	0	0	0	0	488	520	
5	0	0	0	0	488	521	
6	0	0	0	0	487	522	
7	0	0	0	0	487	522	
8	0	0	0	0	487	524	
9	0	0	0	0	488	523	
10	0	0	0	0	488	521	
11	0	0	0	0	488	522	
12	0	0	0	0	489	518	
13	0	0	0	0	490	521	
14	0	0	0	0	492	521	
15	0	0	0	0	492	520	
0	0	0	0	0	493	524	
1	0	0	0	0	495	521	
2	0	0	0	0	495	521	
3	0	0	0	0	496	520	
4	0	0	0	0	496	517	
5	0	0	0	0	496	520	
6	0	0	0	0	497	520	
7	0	0	0	0	497	519	
8	0	0	0	0	497	522	
9	0	0	0	0	497	520	
10	0	0	0	0	496	519	
11	0	0	0	0	495	520	
12	0	0	0	0	494	517	
13	0	0	0	0	493	520	
14	0	0	0	0	493	519	
15	0	0	0	0	493	520	
0	0	0	0	0	493	522	
1	0	0	0	0	494	520	
2	0	0	0	0	495	521	
3	0	0	0	0	495	520	
4	0	0	0	0	497	518	
5	0	0	0	0	498	521	
6	0	0	0	0	499	520	
7	0	0	0	0	499	519	
8	0	0	0	0	499	523	
9	0	0	0	0	501	521	
10	0	0	0	0	501	520	
11	0	0	0	0	501	520	
12	0	0	0	0	501	518	
13	0	0	0	0	501	521	
14	0	0	0	0	501	521	
15	0	0	0	0	501	521	
0	0	0	0	0	501	523	
1	0	0	0	0	501	520	
2	0	0	0	0	502	521	
3	0	0	0	0	502	522	
4	0	0	0	0	502	519	
5	0	0	0	0	502	521	
6	0	0	0	0	503	521	
7	0	0	0	0	502	521	
8	0	0	0	0	502	525	
9	0	0	0	0	503	522	
10	0	0	0	0	503	521	
11	0	0	0	0	503	521	
12	0	0	0	0	503	519	
13	0	0	0	0	504	522	
14	0	0	0	0	503	523	
15	0	0	0	0	503	522	
0	0	0	0	0	504	525	
1	0	0	0	0	504	522	
2	0	0	0	0	504	523	
3	0	0	0	0	504	522	
4	0	0	0	0	504	520	
5	0	0	0	0	504	523	
6	0	0	0	0	504	523	
7	0	0	0	0	504	523	
8	0	0	0	0	504	525	
9	0	0	0	0	503	523	
10	0	0	0	0	502	523	
11	0	0	0	0	502	522	
12	0	0	0	0	502	519	
13	0	0	0	0	501	522	
14	0	0	0	0	501	522	
15	0	0	0	0	500	522	
0	0	0	0	0	500	524	
1	0	0	0	0	500	522	
2	0	0	0	0	500	521	
3	0	0	0	0	501	521	
4	0	0	0	0	502	518	
5	0	0	0	0	503	520	
6	0	0	0	0	503	520	
7	0	0	0	0	504	520	
8	0	0	0	0	505	523	
9	0	0	0	0	505	520	
10	0	0	0	0	505	519	
11	0	0	0	0	506	520	
12	0	0	0	0	505	517	
13	0	0	0	0	506	520	
14	0	0	0	0	505	520	
15	0	0	0	0	505	519	
0	0	0	0	0	505	522	
1	0	0	0	0	505	519	
2	0	0	0	0	505	519	
3	0	0	0	0	506	519	
4	0	0	0	0	505	516	
5	0	0	0	0	505	519	
6	0	0	0	0	505	519	
7	0	0	0	0	505	518	
8	0	0	0	0	505	521	
9	0	0	0	0	505	518	
10	0	0	0	0	505	519	
11	0	0	0	0	504	518	
12	0	0	0	0	504	515	
13	0	0	0	0	504	518	
14	0	0	0	0	504	518	
15	0	0	0	0	504	518	
0	0	0	0	0	504	520	
1	0	0	0	0	504	519	
2	0	0	0	0	504	518	
3	0	0	0	0	505	518	
4	0	0	0	0	506	516	
5	0	0	0	0	506	519	
6	0	0	0	0	507	519	
7	0	0	0	0	507	519	
8	0	0	0	0	508	521	
9	0	0	0	0	509	519	
10	0	0	0	0	510	520	
11	0	0	0	0	511	520	
12	0	0	0	0	512	517	
13	0	0	0	0	513	520	
14	0	0	0	0	514	520	
15	0	0	0	0	515	521	
0	0	0	0	0	515	524	
1	0	0	0	0	515	521	
2	0	0	0	0	515	521	
3	0	0	0	0	516	522	
4	0	0	0	0	516	519	
5	0	0	0	0	517	522	
6	0	0	0	0	518	522	
7	0	0	0	0	518	522	
8	0	0	0	0	518	525	
9	0	0	0	0	518	523	
10	0	0	0	0	517	522	
11	0	0	0	0	517	522	
12	0	0	0	0	516	519	
13	0	0	0	0	516	522	
14	0	0	0	0	516	522	
15	0	0	0	0	515	521	
0	0	0	0	0	515	524	
1	0	0	0	0	515	521	
2	0	0	0	0	515	521	
3	0	0	0	0	515	521	
4	0	0	0	0	515	519	
5	0	0	0	0	516	520	
6	0	0	0	0	516	521	
7	0	0	0	0	516	520	
8	0	0	0	0	515	522	
9	0	0	0	0	515	519	
10	0	0	0	0	515	519	
11	0	0	0	0	514	520	
12	0	0	0	0	514	518	
13	0	0	0	0	514	520	
14	0	0	0	0	514	520	
15	0	0	0	0	514	519	
0	0	0	0	0	514	522	
1	0	0	0	0	514	520	
2	0	0	0	0	514	519	
3	0	0	0	0	514	519	
4	0	0	0	0	516	517	
5	0	0	0	0	516	519	
6	0	0	0	0	517	520	
7	0	0	0	0	518	519	
8	0	0	0	0	518	522	
9	0	0	0	0	517	520	
10	0	0	0	0	516	519	
11	0	0	0	0	516	519	
12	0	0	0	0	516	516	
13	0	0	0	0	515	519	
14	0	0	0	0	515	519	
15	0	0	0	0	512	519	
0	0	0	0	0	511	522	
1	0	0	0	0	510	519	
2	0	0	0	0	509	520	
3	0	0	0	0	508	519	
4	0	0	0	0	507	516	
5	0	0	0	0	507	520	
6	0	0	0	0	506	519	
7	0	0	0	0	506	520	
8	0	0	0	0	507	523	
9	0	0	0	0	507	519	
10	0	0	0	0	507	521	
11	0	0	0	0	507	519	
12	0	0	0	0	508	518	
13	0	0	0	0	508	520	
14	0	0	0	0	509	519	
15	0	0	0	0	509	521	
0	0	0	0	0	510	523	
1	0	0	0	0	510	520	
2	0	0	0	0	510	520	
3	0	0	0	0	510	520	
4	0	0	0	0	509	518	
5	0	0	0	0	509	520	
6	0	0	0	0	508	519	
7	0	0	0	0	508	520	
8	0	0	0	0	507	523	
9	0	0	0	0	508	520	
10	0	0	0	0	508	520	
11	0	0	0	0	508	521	
12	0	0	0	0	509	518	
13	0	0	0	0	509	520	
14	0	0	0	0	510	521	
15	0	0	0	0	510	521	
0	0	0	0	0	509	523	
1	0	0	0	0	509	520	
2	0	0	0	0	508	520	
3	0	0	0	0	508	519	
4	0	0	0	0	508	517	
5	0	0	0	0	507	519	
6	0	0	0	0	506	519	
7	0	0	0	0	506	519	
8	0	0	0	0	506	522	
9	0	0	0	0	507	520	
10	0	0	0	0	507	520	
11	0	0	0	0	505	520	
12	0	0	0	0	504	517	
13	0	0	0	0	504	521	
14	0	0	0	0	503	520	
15	0	0	0	0	503	520	
0	0	0	0	0	503	523	
1	0	0	0	0	504	520	
2	0	0	0	0	504	521	
3	0	0	0	0	504	521	
4	0	0	0	0	504	519	
5	0	0	0	0	505	521	
6	0	0	0	0	505	521	
7	0	0	0	0	505	521	
8	0	0	0	0	505	524	
9	0	0	0	0	505	522	
10	0	0	0	0	505	521	
11	0	0	0	0	504	522	
12	0	0	0	0	503	520	
13	0	0	0	0	502	522	
14	0	0	0	0	502	522	
15	0	0	0	0	500	522	
0	0	0	0	0	500	524	
1	0	0	0	0	499	523	
2	0	0	0	0	499	522	
3	0	0	0	0	499	522	
4	0	0	0	0	500	519	
5	0	0	0	0	501	521	
6	0	0	0	0	502	522	
7	0	0	0	0	503	522	
8	0	0	0	0	504	524	
9	0	0	0	0	504	521	
10	0	0	0	0	505	521	
11	0	0	0	0	506	521	
12	0	0	0	0	507	518	
13	0	0	0	0	507	521	
14	0	0	0	0	508	521	
15	0	0	0	0	508	521	
0	0	0	0	0	508	524	
1	0	0	0	0	508	521	
2	0	0	0	0	509	520	
3	0	0	0	0	510	520	
4	0	0	0	0	510	517	
5	0	0	0	0	512	521	
6	0	0	0	0	512	520	
7	0	0	0	0	512	519	
8	0	0	0	0	513	522	
9	0	0	0	0	512	520	
10	0	0	0	0	512	520	
11	0	0	0	0	512	520	
12	0	0	0	0	511	517	
13	0	0	0	0	511	519	
14	0	0	0	0	511	519	
15	0	0	0	0	511	519	
0	0	0	0	0	510	523	
1	0	0	0	0	510	519	
2	0	0	0	0	509	520	
3	0	0	0	0	509	519	
4	0	0	0	0	509	517	
5	0	0	0	0	508	519	
6	0	0	0	0	509	520	
7	0	0	0	0	510	519	
8	0	0	0	0	511	522	
9	0	0	0	0	510	519	
10	0	0	0	0	510	519	
11	0	0	0	0	509	519	
12	0	0	0	0	509	516	
13	0	0	0	0	509	520	
14	0	0	0	0	510	521	
15	0	0	0	0	509	520	
0	0	0	0	0	509	523	
1	0	0	0	0	509	520	
2	0	0	0	0	508	521	
3	0	0	0	0	509	521	
4	0	0	0	0	508	518	
5	0	0	0	0	508	521	
6	0	0	0	0	508	521	
7	0	0	0	0	507	520	
8	0	0	0	0	508	523	
9	0	0	0	0	508	520	
10	0	0	0	0	508	521	
11	0	0	0	0	508	521	
12	0	0	0	0	508	518	
13	0	0	0	0	509	521	
14	0	0	0	0	509	520	
15	0	0	0	0	510	520	
0	0	0	0	0	510	523	
1	0	0	0	0	511	520	
2	0	0	0	0	511	520	
3	0	0	0	0	512	521	
4	0	0	0	0	512	517	
5	0	0	0	0	512	520	
6	0	0	0	0	511	520	
7	0	0	0	0	511	519	
8	0	0	0	0	511	522	
9	0	0	0	0	511	519	
10	0	0	0	0	511	519	
11	0	0	0	0	511	519	
12	0	0	0	0	510	516	
13	0	0	0	0	511	519	
14	0	0	0	0	511	520	
15	0	0	0	0	511	520	
0	0	0	0	0	511	522	
1	0	0	0	0	511	519	
2	0	0	0	0	511	520	
3	0	0	0	0	510	520	
4	0	0	0	0	510	517	
5	0	0	0	0	510	520	
6	0	0	0	0	510	520	
7	0	0	0	0	510	520	
8	0	0	0	0	510	524	
9	0	0	0	0	510	521	
10	0	0	0	0	510	521	
11	0	0	0	0	510	521	
12	0	0	0	0	510	519	
13	0	0	0	0	510	521	
14	0	0	0	0	510	522	
15	0	0	0	0	509	521	
0	0	0	0	0	509	524	
1	0	0	0	0	509	522	
2	0	0	0	0	509	522	
3	0	0	0	0	509	523	
4	0	0	0	0	510	520	
5	0	0	0	0	511	523	
6	0	0	0	0	512	523	
7	0	0	0	0	512	522	
8	0	0	0	0	512	525	
9	0	0	0	0	512	523	
10	0	0	0	0	512	523	
11	0	0	0	0	512	523	
12	0	0	0	0	512	520	
13	0	0	0	0	511	523	
14	0	0	0	0	511	523	
15	0	0	0	0	511	523	
0	0	0	0	0	511	525	
1	0	0	0	0	510	523	
2	0	0	0	0	510	522	
3	0	0	0	0	510	522	
4	0	0	0	0	510	519	
5	0	0	0	0	510	521	
6	0	0	0	0	510	521	
7	0	0	0	0	510	521	
8	0	0	0	0	509	523	
9	0	0	0	0	509	520	
10	0	0	0	0	509	520	
11	0	0	0	0	510	520	
12	0	0	0	0	510	517	
13	0	0	0	0	512	520	
14	0	0	0	0	512	520	
15	0	0	0	0	513	520	
0	0	0	0	0	514	523	
1	0	0	0	0	514	520	
2	0	0	0	0	515	520	
3	0	0	0	0	515	520	
4	0	0	0	0	515	517	
5	0	0	0	0	515	519	
6	0	0	0	0	515	519	
7	0	0	0	0	515	519	
8	0	0	0	0	516	521	
9	0	0	0	0	515	519	
10	0	0	0	0	516	519	
11	0	0	0	0	516	519	
12	0	0	0	0	516	516	
13	0	0	0	0	516	519	
14	0	0	0	0	516	519	
15	0	0	0	0	515	519	
0	0	0	0	0	515	521	
1	0	0	0	0	515	518	
2	0	0	0	0	516	519	
3	0	0	0	0	515	519	
