# OpenSignals Text File Format. Version 1
# {"98:D3:11:FD:1E:A8": {"position": 0, "device": "bitalino_rev", "device name": "98:D3:11:FD:1E:A8", "device connection": "BTH98:D3:11:FD:1E:A8", "sampling rate": 1000, "resolution": [4, 1, 1, 1, 1, 10, 10], "firmware version": 1281, "comments": "", "keywords": "", "mode": 0, "sync interval": 2, "date": "2021-9-6", "time": "16:51:2.413", "channels": [2, 5], "sensor": ["RAW", "RAW"], "label": ["A2", "A5"], "column": ["nSeq", "I1", "I2", "O1", "O2", "A2", "A5"], "special": [{}, {}], "digital IO": [0, 0, 1, 1], "convertedValues": 0}}
# EndOfHeader
0	0	0	0	0	528	615	
1	0	0	0	0	527	615	
2	0	0	0	0	526	616	
3	0	0	0	0	526	615	
4	0	0	0	0	526	615	
5	0	0	0	0	526	615	
6	0	0	0	0	526	615	
7	0	0	0	0	526	616	
8	0	0	0	0	525	615	
9	0	0	0	0	525	615	
10	0	0	0	0	525	615	
11	0	0	0	0	525	616	
12	0	0	0	0	524	616	
13	0	0	0	0	524	616	
14	0	0	0	0	524	617	
15	0	0	0	0	524	617	
0	0	0	0	0	525	617	
1	0	0	0	0	525	617	
2	0	0	0	0	524	617	
3	0	0	0	0	525	617	
4	0	0	0	0	524	617	
5	0	0	0	0	524	617	
6	0	0	0	0	524	618	
7	0	0	0	0	523	618	
8	0	0	0	0	523	618	
9	0	0	0	0	523	618	
10	0	0	0	0	522	618	
11	0	0	0	0	522	618	
12	0	0	0	0	522	619	
13	0	0	0	0	522	619	
14	0	0	0	0	521	619	
15	0	0	0	0	521	619	
0	0	0	0	0	521	618	
1	0	0	0	0	521	619	
2	0	0	0	0	522	620	
3	0	0	0	0	521	619	
4	0	0	0	0	521	619	
5	0	0	0	0	520	619	
6	0	0	0	0	520	619	
7	0	0	0	0	520	619	
8	0	0	0	0	520	619	
9	0	0	0	0	520	619	
10	0	0	0	0	520	619	
11	0	0	0	0	519	619	
12	0	0	0	0	519	619	
13	0	0	0	0	519	619	
14	0	0	0	0	518	618	
15	0	0	0	0	518	619	
0	0	0	0	0	517	619	
1	0	0	0	0	517	619	
2	0	0	0	0	517	619	
3	0	0	0	0	516	619	
4	0	0	0	0	515	619	
5	0	0	0	0	514	619	
6	0	0	0	0	514	619	
7	0	0	0	0	513	619	
8	0	0	0	0	512	618	
9	0	0	0	0	512	618	
10	0	0	0	0	511	617	
11	0	0	0	0	510	618	
12	0	0	0	0	509	618	
13	0	0	0	0	509	617	
14	0	0	0	0	508	617	
15	0	0	0	0	508	617	
0	0	0	0	0	508	616	
1	0	0	0	0	507	616	
2	0	0	0	0	507	616	
3	0	0	0	0	507	615	
4	0	0	0	0	507	615	
5	0	0	0	0	507	615	
6	0	0	0	0	507	615	
7	0	0	0	0	506	615	
8	0	0	0	0	506	615	
9	0	0	0	0	505	616	
10	0	0	0	0	505	616	
11	0	0	0	0	506	616	
12	0	0	0	0	506	616	
13	0	0	0	0	505	616	
14	0	0	0	0	505	617	
15	0	0	0	0	505	616	
0	0	0	0	0	505	616	
1	0	0	0	0	505	616	
2	0	0	0	0	504	617	
3	0	0	0	0	505	617	
4	0	0	0	0	505	617	
5	0	0	0	0	505	617	
6	0	0	0	0	506	617	
7	0	0	0	0	507	617	
8	0	0	0	0	507	617	
9	0	0	0	0	508	618	
10	0	0	0	0	508	618	
11	0	0	0	0	508	618	
12	0	0	0	0	508	618	
13	0	0	0	0	508	618	
14	0	0	0	0	508	618	
15	0	0	0	0	507	618	
0	0	0	0	0	507	618	
1	0	0	0	0	507	618	
2	0	0	0	0	508	618	
3	0	0	0	0	508	618	
4	0	0	0	0	508	618	
5	0	0	0	0	508	618	
6	0	0	0	0	508	618	
7	0	0	0	0	509	618	
8	0	0	0	0	510	618	
9	0	0	0	0	510	618	
10	0	0	0	0	511	618	
11	0	0	0	0	511	618	
12	0	0	0	0	511	618	
13	0	0	0	0	512	618	
14	0	0	0	0	513	618	
15	0	0	0	0	513	619	
0	0	0	0	0	515	618	
1	0	0	0	0	515	618	
2	0	0	0	0	516	618	
3	0	0	0	0	516	618	
4	0	0	0	0	517	619	
5	0	0	0	0	517	618	
6	0	0	0	0	517	618	
7	0	0	0	0	516	618	
8	0	0	0	0	516	618	
9	0	0	0	0	516	618	
10	0	0	0	0	516	619	
11	0	0	0	0	516	618	
12	0	0	0	0	516	617	
13	0	0	0	0	517	618	
14	0	0	0	0	517	618	
15	0	0	0	0	517	618	
0	0	0	0	0	517	618	
1	0	0	0	0	517	618	
2	0	0	0	0	518	617	
3	0	0	0	0	518	618	
4	0	0	0	0	519	618	
5	0	0	0	0	519	618	
6	0	0	0	0	519	618	
7	0	0	0	0	519	618	
8	0	0	0	0	519	618	
9	0	0	0	0	520	617	
10	0	0	0	0	521	618	
11	0	0	0	0	521	618	
12	0	0	0	0	522	618	
13	0	0	0	0	522	619	
14	0	0	0	0	521	618	
15	0	0	0	0	521	619	
0	0	0	0	0	521	618	
1	0	0	0	0	520	619	
2	0	0	0	0	520	619	
3	0	0	0	0	520	619	
4	0	0	0	0	519	619	
5	0	0	0	0	519	619	
6	0	0	0	0	519	620	
7	0	0	0	0	519	620	
8	0	0	0	0	519	619	
9	0	0	0	0	520	619	
10	0	0	0	0	520	619	
11	0	0	0	0	520	619	
12	0	0	0	0	519	619	
13	0	0	0	0	519	619	
14	0	0	0	0	518	619	
15	0	0	0	0	517	620	
0	0	0	0	0	517	620	
1	0	0	0	0	516	619	
2	0	0	0	0	515	619	
3	0	0	0	0	515	619	
4	0	0	0	0	515	619	
5	0	0	0	0	515	619	
6	0	0	0	0	516	619	
7	0	0	0	0	516	619	
8	0	0	0	0	516	619	
9	0	0	0	0	517	619	
10	0	0	0	0	517	619	
11	0	0	0	0	516	618	
12	0	0	0	0	516	618	
13	0	0	0	0	516	617	
14	0	0	0	0	517	618	
15	0	0	0	0	517	618	
0	0	0	0	0	517	617	
1	0	0	0	0	516	617	
2	0	0	0	0	516	617	
3	0	0	0	0	516	617	
4	0	0	0	0	516	617	
5	0	0	0	0	516	617	
6	0	0	0	0	515	617	
7	0	0	0	0	514	617	
8	0	0	0	0	512	617	
9	0	0	0	0	512	616	
10	0	0	0	0	511	617	
11	0	0	0	0	509	616	
12	0	0	0	0	507	616	
13	0	0	0	0	504	616	
14	0	0	0	0	501	617	
15	0	0	0	0	497	616	
0	0	0	0	0	492	616	
1	0	0	0	0	486	616	
2	0	0	0	0	480	616	
3	0	0	0	0	475	616	
4	0	0	0	0	469	616	
5	0	0	0	0	463	616	
6	0	0	0	0	458	616	
7	0	0	0	0	452	616	
8	0	0	0	0	446	616	
9	0	0	0	0	442	616	
10	0	0	0	0	439	616	
11	0	0	0	0	437	616	
12	0	0	0	0	437	617	
13	0	0	0	0	437	616	
14	0	0	0	0	439	616	
15	0	0	0	0	442	616	
0	0	0	0	0	447	617	
1	0	0	0	0	455	616	
2	0	0	0	0	465	617	
3	0	0	0	0	477	617	
4	0	0	0	0	492	617	
5	0	0	0	0	511	617	
6	0	0	0	0	534	618	
7	0	0	0	0	560	618	
8	0	0	0	0	586	617	
9	0	0	0	0	612	617	
10	0	0	0	0	639	617	
11	0	0	0	0	666	618	
12	0	0	0	0	694	618	
13	0	0	0	0	721	618	
14	0	0	0	0	743	618	
15	0	0	0	0	763	619	
0	0	0	0	0	778	619	
1	0	0	0	0	792	618	
2	0	0	0	0	803	618	
3	0	0	0	0	813	618	
4	0	0	0	0	822	618	
5	0	0	0	0	828	617	
6	0	0	0	0	832	617	
7	0	0	0	0	830	617	
8	0	0	0	0	827	617	
9	0	0	0	0	823	617	
10	0	0	0	0	818	617	
11	0	0	0	0	807	617	
12	0	0	0	0	787	617	
13	0	0	0	0	764	617	
14	0	0	0	0	739	617	
15	0	0	0	0	714	617	
0	0	0	0	0	690	617	
1	0	0	0	0	668	617	
2	0	0	0	0	647	617	
3	0	0	0	0	628	616	
4	0	0	0	0	612	616	
5	0	0	0	0	596	617	
6	0	0	0	0	583	616	
7	0	0	0	0	569	617	
8	0	0	0	0	557	617	
9	0	0	0	0	545	617	
10	0	0	0	0	534	617	
11	0	0	0	0	523	617	
12	0	0	0	0	513	617	
13	0	0	0	0	504	616	
14	0	0	0	0	495	617	
15	0	0	0	0	487	617	
0	0	0	0	0	479	616	
1	0	0	0	0	472	616	
2	0	0	0	0	465	617	
3	0	0	0	0	460	617	
4	0	0	0	0	455	616	
5	0	0	0	0	451	617	
6	0	0	0	0	447	616	
7	0	0	0	0	444	616	
8	0	0	0	0	441	617	
9	0	0	0	0	438	617	
10	0	0	0	0	435	616	
11	0	0	0	0	432	617	
12	0	0	0	0	431	617	
13	0	0	0	0	429	617	
14	0	0	0	0	428	617	
15	0	0	0	0	427	617	
0	0	0	0	0	426	617	
1	0	0	0	0	425	616	
2	0	0	0	0	424	617	
3	0	0	0	0	424	617	
4	0	0	0	0	423	617	
5	0	0	0	0	422	617	
6	0	0	0	0	421	617	
7	0	0	0	0	421	617	
8	0	0	0	0	421	617	
9	0	0	0	0	421	617	
10	0	0	0	0	423	617	
11	0	0	0	0	423	617	
12	0	0	0	0	423	617	
13	0	0	0	0	423	617	
14	0	0	0	0	424	618	
15	0	0	0	0	425	617	
0	0	0	0	0	425	617	
1	0	0	0	0	425	617	
2	0	0	0	0	426	617	
3	0	0	0	0	426	617	
4	0	0	0	0	427	616	
5	0	0	0	0	428	617	
6	0	0	0	0	428	617	
7	0	0	0	0	429	617	
8	0	0	0	0	430	617	
9	0	0	0	0	430	617	
10	0	0	0	0	431	617	
11	0	0	0	0	431	617	
12	0	0	0	0	431	617	
13	0	0	0	0	431	618	
14	0	0	0	0	431	617	
15	0	0	0	0	432	617	
0	0	0	0	0	433	617	
1	0	0	0	0	433	618	
2	0	0	0	0	433	618	
3	0	0	0	0	433	617	
4	0	0	0	0	433	617	
5	0	0	0	0	433	618	
6	0	0	0	0	434	618	
7	0	0	0	0	434	619	
8	0	0	0	0	434	618	
9	0	0	0	0	435	618	
10	0	0	0	0	435	619	
11	0	0	0	0	436	619	
12	0	0	0	0	436	619	
13	0	0	0	0	436	619	
14	0	0	0	0	437	619	
15	0	0	0	0	438	619	
0	0	0	0	0	438	620	
1	0	0	0	0	438	619	
2	0	0	0	0	439	619	
3	0	0	0	0	439	619	
4	0	0	0	0	440	620	
5	0	0	0	0	440	619	
6	0	0	0	0	440	619	
7	0	0	0	0	440	619	
8	0	0	0	0	441	620	
9	0	0	0	0	442	619	
10	0	0	0	0	442	619	
11	0	0	0	0	442	619	
12	0	0	0	0	442	619	
13	0	0	0	0	442	619	
14	0	0	0	0	442	619	
15	0	0	0	0	443	620	
0	0	0	0	0	442	619	
1	0	0	0	0	441	619	
2	0	0	0	0	441	619	
3	0	0	0	0	441	619	
4	0	0	0	0	441	619	
5	0	0	0	0	441	620	
6	0	0	0	0	440	619	
7	0	0	0	0	440	619	
8	0	0	0	0	440	619	
9	0	0	0	0	441	619	
10	0	0	0	0	441	620	
11	0	0	0	0	441	619	
12	0	0	0	0	441	619	
13	0	0	0	0	442	619	
14	0	0	0	0	442	619	
15	0	0	0	0	443	619	
0	0	0	0	0	444	619	
1	0	0	0	0	444	619	
2	0	0	0	0	444	620	
3	0	0	0	0	444	620	
4	0	0	0	0	444	619	
5	0	0	0	0	445	619	
6	0	0	0	0	445	619	
7	0	0	0	0	444	620	
8	0	0	0	0	444	619	
9	0	0	0	0	445	619	
10	0	0	0	0	445	619	
11	0	0	0	0	446	619	
12	0	0	0	0	446	619	
13	0	0	0	0	446	619	
14	0	0	0	0	445	619	
15	0	0	0	0	445	619	
0	0	0	0	0	445	619	
1	0	0	0	0	445	619	
2	0	0	0	0	445	618	
3	0	0	0	0	446	618	
4	0	0	0	0	446	618	
5	0	0	0	0	447	618	
6	0	0	0	0	447	618	
7	0	0	0	0	447	618	
8	0	0	0	0	448	617	
9	0	0	0	0	448	617	
10	0	0	0	0	448	617	
11	0	0	0	0	448	617	
12	0	0	0	0	448	616	
13	0	0	0	0	448	617	
14	0	0	0	0	448	616	
15	0	0	0	0	448	616	
0	0	0	0	0	448	616	
1	0	0	0	0	447	615	
2	0	0	0	0	447	615	
3	0	0	0	0	448	615	
4	0	0	0	0	447	615	
5	0	0	0	0	448	615	
6	0	0	0	0	448	615	
7	0	0	0	0	448	615	
8	0	0	0	0	448	615	
9	0	0	0	0	448	615	
10	0	0	0	0	448	615	
11	0	0	0	0	448	615	
12	0	0	0	0	448	615	
13	0	0	0	0	449	615	
14	0	0	0	0	449	615	
15	0	0	0	0	449	616	
0	0	0	0	0	450	615	
1	0	0	0	0	450	615	
2	0	0	0	0	449	615	
3	0	0	0	0	450	615	
4	0	0	0	0	450	615	
5	0	0	0	0	449	615	
6	0	0	0	0	451	615	
7	0	0	0	0	451	615	
8	0	0	0	0	451	615	
9	0	0	0	0	452	615	
10	0	0	0	0	452	615	
11	0	0	0	0	452	615	
12	0	0	0	0	453	615	
13	0	0	0	0	453	615	
14	0	0	0	0	454	615	
15	0	0	0	0	454	615	
0	0	0	0	0	455	616	
1	0	0	0	0	456	615	
2	0	0	0	0	457	615	
3	0	0	0	0	457	616	
4	0	0	0	0	457	615	
5	0	0	0	0	459	616	
6	0	0	0	0	459	616	
7	0	0	0	0	459	616	
8	0	0	0	0	459	617	
9	0	0	0	0	460	617	
10	0	0	0	0	461	617	
11	0	0	0	0	462	616	
12	0	0	0	0	463	616	
13	0	0	0	0	463	617	
14	0	0	0	0	464	617	
15	0	0	0	0	464	617	
0	0	0	0	0	465	616	
1	0	0	0	0	466	617	
2	0	0	0	0	467	617	
3	0	0	0	0	468	617	
4	0	0	0	0	470	617	
5	0	0	0	0	471	618	
6	0	0	0	0	472	618	
7	0	0	0	0	475	618	
8	0	0	0	0	476	618	
9	0	0	0	0	477	618	
10	0	0	0	0	478	619	
11	0	0	0	0	479	618	
12	0	0	0	0	480	619	
13	0	0	0	0	481	619	
14	0	0	0	0	483	619	
15	0	0	0	0	484	619	
0	0	0	0	0	486	619	
1	0	0	0	0	487	620	
2	0	0	0	0	488	619	
3	0	0	0	0	489	619	
4	0	0	0	0	491	620	
5	0	0	0	0	494	620	
6	0	0	0	0	496	619	
7	0	0	0	0	500	620	
8	0	0	0	0	503	620	
9	0	0	0	0	504	619	
10	0	0	0	0	507	620	
11	0	0	0	0	509	620	
12	0	0	0	0	510	619	
13	0	0	0	0	512	619	
14	0	0	0	0	513	620	
15	0	0	0	0	515	620	
0	0	0	0	0	518	620	
1	0	0	0	0	520	620	
2	0	0	0	0	522	619	
3	0	0	0	0	524	619	
4	0	0	0	0	527	619	
5	0	0	0	0	530	619	
6	0	0	0	0	531	619	
7	0	0	0	0	532	619	
8	0	0	0	0	533	618	
9	0	0	0	0	535	619	
10	0	0	0	0	536	619	
11	0	0	0	0	537	619	
12	0	0	0	0	540	619	
13	0	0	0	0	541	618	
14	0	0	0	0	543	618	
15	0	0	0	0	544	619	
0	0	0	0	0	545	619	
1	0	0	0	0	547	620	
2	0	0	0	0	548	620	
3	0	0	0	0	549	620	
4	0	0	0	0	551	620	
5	0	0	0	0	552	620	
6	0	0	0	0	553	620	
7	0	0	0	0	554	620	
8	0	0	0	0	556	620	
9	0	0	0	0	557	620	
10	0	0	0	0	558	620	
11	0	0	0	0	559	620	
12	0	0	0	0	560	620	
13	0	0	0	0	560	620	
14	0	0	0	0	561	620	
15	0	0	0	0	561	620	
0	0	0	0	0	563	619	
1	0	0	0	0	563	619	
2	0	0	0	0	564	619	
3	0	0	0	0	564	619	
4	0	0	0	0	563	618	
5	0	0	0	0	563	617	
6	0	0	0	0	563	617	
7	0	0	0	0	563	618	
8	0	0	0	0	564	617	
9	0	0	0	0	563	618	
10	0	0	0	0	563	617	
11	0	0	0	0	563	617	
12	0	0	0	0	563	617	
13	0	0	0	0	563	617	
14	0	0	0	0	563	617	
15	0	0	0	0	564	616	
0	0	0	0	0	564	616	
1	0	0	0	0	563	616	
2	0	0	0	0	563	617	
3	0	0	0	0	564	617	
4	0	0	0	0	564	617	
5	0	0	0	0	564	618	
6	0	0	0	0	564	617	
7	0	0	0	0	565	618	
8	0	0	0	0	564	617	
9	0	0	0	0	564	618	
10	0	0	0	0	563	618	
11	0	0	0	0	562	618	
12	0	0	0	0	562	619	
13	0	0	0	0	562	618	
14	0	0	0	0	561	618	
15	0	0	0	0	561	619	
0	0	0	0	0	560	618	
1	0	0	0	0	560	619	
2	0	0	0	0	559	618	
3	0	0	0	0	558	617	
4	0	0	0	0	558	618	
5	0	0	0	0	558	619	
6	0	0	0	0	557	618	
7	0	0	0	0	556	618	
8	0	0	0	0	556	617	
9	0	0	0	0	556	617	
10	0	0	0	0	556	618	
11	0	0	0	0	555	617	
12	0	0	0	0	554	617	
13	0	0	0	0	553	617	
14	0	0	0	0	552	618	
15	0	0	0	0	552	618	
0	0	0	0	0	551	617	
1	0	0	0	0	551	617	
2	0	0	0	0	550	617	
3	0	0	0	0	550	617	
4	0	0	0	0	549	617	
5	0	0	0	0	549	617	
6	0	0	0	0	549	616	
7	0	0	0	0	548	617	
8	0	0	0	0	548	616	
9	0	0	0	0	547	616	
10	0	0	0	0	546	616	
11	0	0	0	0	547	616	
12	0	0	0	0	546	616	
13	0	0	0	0	546	615	
14	0	0	0	0	545	615	
15	0	0	0	0	544	616	
0	0	0	0	0	543	616	
1	0	0	0	0	543	616	
2	0	0	0	0	542	615	
3	0	0	0	0	542	616	
4	0	0	0	0	541	616	
5	0	0	0	0	540	616	
6	0	0	0	0	540	616	
7	0	0	0	0	540	616	
8	0	0	0	0	539	616	
9	0	0	0	0	539	617	
10	0	0	0	0	538	617	
11	0	0	0	0	538	617	
12	0	0	0	0	538	616	
13	0	0	0	0	538	617	
14	0	0	0	0	538	617	
15	0	0	0	0	538	618	
0	0	0	0	0	537	617	
1	0	0	0	0	537	617	
2	0	0	0	0	537	618	
3	0	0	0	0	537	618	
4	0	0	0	0	536	618	
5	0	0	0	0	535	618	
6	0	0	0	0	535	618	
7	0	0	0	0	534	618	
8	0	0	0	0	534	618	
9	0	0	0	0	534	618	
10	0	0	0	0	534	619	
11	0	0	0	0	534	619	
12	0	0	0	0	533	619	
13	0	0	0	0	533	619	
14	0	0	0	0	532	619	
15	0	0	0	0	532	619	
0	0	0	0	0	532	619	
1	0	0	0	0	532	618	
2	0	0	0	0	533	618	
3	0	0	0	0	532	619	
4	0	0	0	0	532	619	
5	0	0	0	0	533	619	
6	0	0	0	0	532	619	
7	0	0	0	0	531	619	
8	0	0	0	0	531	619	
9	0	0	0	0	531	619	
10	0	0	0	0	531	619	
11	0	0	0	0	530	618	
12	0	0	0	0	529	617	
13	0	0	0	0	529	619	
14	0	0	0	0	529	618	
15	0	0	0	0	529	618	
0	0	0	0	0	528	618	
1	0	0	0	0	528	618	
2	0	0	0	0	528	618	
3	0	0	0	0	528	618	
4	0	0	0	0	528	617	
5	0	0	0	0	528	617	
6	0	0	0	0	528	617	
7	0	0	0	0	529	617	
8	0	0	0	0	529	617	
9	0	0	0	0	530	617	
10	0	0	0	0	530	617	
11	0	0	0	0	530	618	
12	0	0	0	0	530	617	
13	0	0	0	0	531	617	
14	0	0	0	0	531	617	
15	0	0	0	0	530	618	
0	0	0	0	0	530	617	
1	0	0	0	0	530	617	
2	0	0	0	0	531	617	
3	0	0	0	0	531	616	
4	0	0	0	0	531	616	
5	0	0	0	0	531	617	
6	0	0	0	0	530	617	
7	0	0	0	0	530	618	
8	0	0	0	0	530	617	
9	0	0	0	0	530	617	
10	0	0	0	0	530	617	
11	0	0	0	0	529	617	
12	0	0	0	0	530	617	
13	0	0	0	0	530	617	
14	0	0	0	0	530	617	
15	0	0	0	0	530	617	
0	0	0	0	0	531	618	
1	0	0	0	0	530	617	
2	0	0	0	0	530	618	
3	0	0	0	0	530	617	
4	0	0	0	0	530	617	
5	0	0	0	0	530	617	
6	0	0	0	0	529	618	
7	0	0	0	0	529	618	
8	0	0	0	0	529	618	
9	0	0	0	0	529	619	
10	0	0	0	0	528	618	
11	0	0	0	0	528	618	
12	0	0	0	0	528	618	
13	0	0	0	0	527	618	
14	0	0	0	0	528	618	
15	0	0	0	0	527	618	
0	0	0	0	0	527	617	
1	0	0	0	0	528	617	
2	0	0	0	0	528	617	
3	0	0	0	0	528	618	
4	0	0	0	0	528	617	
5	0	0	0	0	529	617	
6	0	0	0	0	529	617	
7	0	0	0	0	530	617	
8	0	0	0	0	530	617	
9	0	0	0	0	529	616	
10	0	0	0	0	529	617	
11	0	0	0	0	529	617	
12	0	0	0	0	528	617	
13	0	0	0	0	528	616	
14	0	0	0	0	528	616	
15	0	0	0	0	528	616	
0	0	0	0	0	528	616	
1	0	0	0	0	528	617	
2	0	0	0	0	528	616	
3	0	0	0	0	528	616	
4	0	0	0	0	528	616	
5	0	0	0	0	528	616	
6	0	0	0	0	528	616	
7	0	0	0	0	528	617	
8	0	0	0	0	527	616	
9	0	0	0	0	526	616	
10	0	0	0	0	526	616	
11	0	0	0	0	526	616	
12	0	0	0	0	526	616	
13	0	0	0	0	526	615	
14	0	0	0	0	526	616	
15	0	0	0	0	526	616	
0	0	0	0	0	525	615	
1	0	0	0	0	525	616	
2	0	0	0	0	526	615	
3	0	0	0	0	526	615	
4	0	0	0	0	526	616	
5	0	0	0	0	526	616	
6	0	0	0	0	526	615	
7	0	0	0	0	526	616	
8	0	0	0	0	525	616	
9	0	0	0	0	524	616	
10	0	0	0	0	523	616	
11	0	0	0	0	523	616	
12	0	0	0	0	523	616	
13	0	0	0	0	523	616	
14	0	0	0	0	523	617	
15	0	0	0	0	523	617	
0	0	0	0	0	524	617	
1	0	0	0	0	523	616	
2	0	0	0	0	524	617	
3	0	0	0	0	524	617	
4	0	0	0	0	524	616	
5	0	0	0	0	524	616	
6	0	0	0	0	525	616	
7	0	0	0	0	525	617	
8	0	0	0	0	524	616	
9	0	0	0	0	524	616	
10	0	0	0	0	524	617	
11	0	0	0	0	524	617	
12	0	0	0	0	524	617	
13	0	0	0	0	524	616	
14	0	0	0	0	524	616	
15	0	0	0	0	524	616	
0	0	0	0	0	524	616	
1	0	0	0	0	524	616	
2	0	0	0	0	523	616	
3	0	0	0	0	523	616	
4	0	0	0	0	524	616	
5	0	0	0	0	523	617	
6	0	0	0	0	522	617	
7	0	0	0	0	522	616	
8	0	0	0	0	522	616	
9	0	0	0	0	522	616	
10	0	0	0	0	521	616	
11	0	0	0	0	520	616	
12	0	0	0	0	520	615	
13	0	0	0	0	521	615	
14	0	0	0	0	521	615	
15	0	0	0	0	520	616	
0	0	0	0	0	520	616	
1	0	0	0	0	519	616	
2	0	0	0	0	519	616	
3	0	0	0	0	519	617	
4	0	0	0	0	519	616	
5	0	0	0	0	518	616	
6	0	0	0	0	517	617	
7	0	0	0	0	517	617	
8	0	0	0	0	516	617	
9	0	0	0	0	515	617	
10	0	0	0	0	515	617	
11	0	0	0	0	514	617	
12	0	0	0	0	513	618	
13	0	0	0	0	513	618	
14	0	0	0	0	512	619	
15	0	0	0	0	512	619	
0	0	0	0	0	511	619	
1	0	0	0	0	510	619	
2	0	0	0	0	510	620	
3	0	0	0	0	510	620	
4	0	0	0	0	509	620	
5	0	0	0	0	509	620	
6	0	0	0	0	509	620	
7	0	0	0	0	509	620	
8	0	0	0	0	508	620	
9	0	0	0	0	509	620	
10	0	0	0	0	508	620	
11	0	0	0	0	508	620	
12	0	0	0	0	508	620	
13	0	0	0	0	507	620	
14	0	0	0	0	507	621	
15	0	0	0	0	507	620	
0	0	0	0	0	507	620	
1	0	0	0	0	506	620	
2	0	0	0	0	506	620	
3	0	0	0	0	506	620	
4	0	0	0	0	506	620	
5	0	0	0	0	506	620	
6	0	0	0	0	506	620	
7	0	0	0	0	506	620	
8	0	0	0	0	506	620	
9	0	0	0	0	507	620	
10	0	0	0	0	507	620	
11	0	0	0	0	507	619	
12	0	0	0	0	507	619	
13	0	0	0	0	507	620	
14	0	0	0	0	507	619	
15	0	0	0	0	507	620	
0	0	0	0	0	506	619	
1	0	0	0	0	506	619	
2	0	0	0	0	505	619	
3	0	0	0	0	505	619	
4	0	0	0	0	506	619	
5	0	0	0	0	506	619	
6	0	0	0	0	507	619	
7	0	0	0	0	507	619	
8	0	0	0	0	508	618	
9	0	0	0	0	508	619	
10	0	0	0	0	509	618	
11	0	0	0	0	510	619	
12	0	0	0	0	510	618	
13	0	0	0	0	511	619	
14	0	0	0	0	511	617	
15	0	0	0	0	512	618	
0	0	0	0	0	512	618	
1	0	0	0	0	512	618	
2	0	0	0	0	513	618	
3	0	0	0	0	515	617	
4	0	0	0	0	516	617	
5	0	0	0	0	518	617	
6	0	0	0	0	518	617	
7	0	0	0	0	518	617	
8	0	0	0	0	518	617	
9	0	0	0	0	518	617	
10	0	0	0	0	516	616	
11	0	0	0	0	516	616	
12	0	0	0	0	516	616	
13	0	0	0	0	517	616	
14	0	0	0	0	517	616	
15	0	0	0	0	517	616	
0	0	0	0	0	517	616	
1	0	0	0	0	517	615	
2	0	0	0	0	517	616	
3	0	0	0	0	518	616	
4	0	0	0	0	518	615	
5	0	0	0	0	518	615	
6	0	0	0	0	518	615	
7	0	0	0	0	519	615	
8	0	0	0	0	519	615	
9	0	0	0	0	519	615	
10	0	0	0	0	519	615	
11	0	0	0	0	520	615	
12	0	0	0	0	520	615	
13	0	0	0	0	520	615	
14	0	0	0	0	520	615	
15	0	0	0	0	520	616	
0	0	0	0	0	519	616	
1	0	0	0	0	519	615	
2	0	0	0	0	519	615	
3	0	0	0	0	519	615	
4	0	0	0	0	520	615	
5	0	0	0	0	521	615	
6	0	0	0	0	521	616	
7	0	0	0	0	521	616	
8	0	0	0	0	521	616	
9	0	0	0	0	522	616	
10	0	0	0	0	521	616	
11	0	0	0	0	520	616	
12	0	0	0	0	521	617	
13	0	0	0	0	521	616	
14	0	0	0	0	520	616	
15	0	0	0	0	520	616	
0	0	0	0	0	519	616	
1	0	0	0	0	519	616	
2	0	0	0	0	519	616	
3	0	0	0	0	519	616	
4	0	0	0	0	518	617	
5	0	0	0	0	519	617	
6	0	0	0	0	519	617	
7	0	0	0	0	518	617	
8	0	0	0	0	518	617	
9	0	0	0	0	518	617	
10	0	0	0	0	517	617	
11	0	0	0	0	517	617	
12	0	0	0	0	516	618	
13	0	0	0	0	516	618	
14	0	0	0	0	516	618	
15	0	0	0	0	515	619	
0	0	0	0	0	515	618	
1	0	0	0	0	515	618	
2	0	0	0	0	515	618	
3	0	0	0	0	514	618	
4	0	0	0	0	514	619	
5	0	0	0	0	515	619	
6	0	0	0	0	515	618	
7	0	0	0	0	515	619	
8	0	0	0	0	515	618	
9	0	0	0	0	515	618	
10	0	0	0	0	515	618	
11	0	0	0	0	514	618	
12	0	0	0	0	513	619	
13	0	0	0	0	512	617	
14	0	0	0	0	511	617	
15	0	0	0	0	509	619	
0	0	0	0	0	505	617	
1	0	0	0	0	502	617	
2	0	0	0	0	499	618	
3	0	0	0	0	494	617	
4	0	0	0	0	489	617	
5	0	0	0	0	483	617	
6	0	0	0	0	476	617	
7	0	0	0	0	470	617	
8	0	0	0	0	464	616	
9	0	0	0	0	459	617	
10	0	0	0	0	454	617	
11	0	0	0	0	448	617	
12	0	0	0	0	443	616	
13	0	0	0	0	439	616	
14	0	0	0	0	436	616	
15	0	0	0	0	433	617	
0	0	0	0	0	430	616	
1	0	0	0	0	429	617	
2	0	0	0	0	428	616	
3	0	0	0	0	428	617	
4	0	0	0	0	430	616	
5	0	0	0	0	436	617	
6	0	0	0	0	443	616	
7	0	0	0	0	451	616	
8	0	0	0	0	463	616	
9	0	0	0	0	480	616	
10	0	0	0	0	500	616	
11	0	0	0	0	522	616	
12	0	0	0	0	546	615	
13	0	0	0	0	572	616	
14	0	0	0	0	598	616	
15	0	0	0	0	625	617	
0	0	0	0	0	653	616	
1	0	0	0	0	675	616	
2	0	0	0	0	695	617	
3	0	0	0	0	711	617	
4	0	0	0	0	724	616	
5	0	0	0	0	736	616	
6	0	0	0	0	747	617	
7	0	0	0	0	758	618	
8	0	0	0	0	765	617	
9	0	0	0	0	772	617	
10	0	0	0	0	774	617	
11	0	0	0	0	775	617	
12	0	0	0	0	776	617	
13	0	0	0	0	775	617	
14	0	0	0	0	769	617	
15	0	0	0	0	757	617	
0	0	0	0	0	739	617	
1	0	0	0	0	721	617	
2	0	0	0	0	700	617	
3	0	0	0	0	680	617	
4	0	0	0	0	661	617	
5	0	0	0	0	643	617	
6	0	0	0	0	627	617	
7	0	0	0	0	613	617	
8	0	0	0	0	601	617	
9	0	0	0	0	590	617	
10	0	0	0	0	580	617	
11	0	0	0	0	569	617	
12	0	0	0	0	560	617	
13	0	0	0	0	550	617	
14	0	0	0	0	541	617	
15	0	0	0	0	533	618	
0	0	0	0	0	524	618	
1	0	0	0	0	516	618	
2	0	0	0	0	508	618	
3	0	0	0	0	500	617	
4	0	0	0	0	493	617	
5	0	0	0	0	488	619	
6	0	0	0	0	482	619	
7	0	0	0	0	478	618	
8	0	0	0	0	473	619	
9	0	0	0	0	469	618	
10	0	0	0	0	465	619	
11	0	0	0	0	462	619	
12	0	0	0	0	459	619	
13	0	0	0	0	457	619	
14	0	0	0	0	455	619	
15	0	0	0	0	454	620	
0	0	0	0	0	452	620	
1	0	0	0	0	450	620	
2	0	0	0	0	448	620	
3	0	0	0	0	447	620	
4	0	0	0	0	446	620	
5	0	0	0	0	444	620	
6	0	0	0	0	443	620	
7	0	0	0	0	442	621	
8	0	0	0	0	441	620	
9	0	0	0	0	440	621	
10	0	0	0	0	440	620	
11	0	0	0	0	440	620	
12	0	0	0	0	440	620	
13	0	0	0	0	439	620	
14	0	0	0	0	439	620	
15	0	0	0	0	439	621	
0	0	0	0	0	439	620	
1	0	0	0	0	438	620	
2	0	0	0	0	439	620	
3	0	0	0	0	439	620	
4	0	0	0	0	438	620	
5	0	0	0	0	438	619	
6	0	0	0	0	439	619	
7	0	0	0	0	439	620	
8	0	0	0	0	440	620	
9	0	0	0	0	440	619	
10	0	0	0	0	441	619	
11	0	0	0	0	441	619	
12	0	0	0	0	441	619	
13	0	0	0	0	442	619	
14	0	0	0	0	442	619	
15	0	0	0	0	443	619	
0	0	0	0	0	443	618	
1	0	0	0	0	444	618	
2	0	0	0	0	444	618	
3	0	0	0	0	444	618	
4	0	0	0	0	444	618	
5	0	0	0	0	445	618	
6	0	0	0	0	444	618	
7	0	0	0	0	445	619	
8	0	0	0	0	445	617	
9	0	0	0	0	446	618	
10	0	0	0	0	447	618	
11	0	0	0	0	446	617	
12	0	0	0	0	447	618	
13	0	0	0	0	447	618	
14	0	0	0	0	447	618	
15	0	0	0	0	448	617	
0	0	0	0	0	448	617	
1	0	0	0	0	448	618	
2	0	0	0	0	449	618	
3	0	0	0	0	450	618	
4	0	0	0	0	450	618	
5	0	0	0	0	451	618	
6	0	0	0	0	451	618	
7	0	0	0	0	451	618	
8	0	0	0	0	451	618	
9	0	0	0	0	451	617	
10	0	0	0	0	451	618	
11	0	0	0	0	451	617	
12	0	0	0	0	452	618	
13	0	0	0	0	452	617	
14	0	0	0	0	452	617	
15	0	0	0	0	452	618	
0	0	0	0	0	452	617	
1	0	0	0	0	452	616	
2	0	0	0	0	453	617	
3	0	0	0	0	452	617	
4	0	0	0	0	452	617	
5	0	0	0	0	453	617	
6	0	0	0	0	453	617	
7	0	0	0	0	453	617	
8	0	0	0	0	454	617	
9	0	0	0	0	454	616	
10	0	0	0	0	454	616	
11	0	0	0	0	454	616	
12	0	0	0	0	454	617	
13	0	0	0	0	454	616	
14	0	0	0	0	454	617	
15	0	0	0	0	454	617	
0	0	0	0	0	454	617	
1	0	0	0	0	454	617	
2	0	0	0	0	454	617	
3	0	0	0	0	454	617	
4	0	0	0	0	454	617	
5	0	0	0	0	454	616	
6	0	0	0	0	455	617	
7	0	0	0	0	455	617	
8	0	0	0	0	455	617	
9	0	0	0	0	455	617	
10	0	0	0	0	455	616	
11	0	0	0	0	456	617	
12	0	0	0	0	456	617	
13	0	0	0	0	456	617	
14	0	0	0	0	457	617	
15	0	0	0	0	458	618	
0	0	0	0	0	458	617	
1	0	0	0	0	457	617	
2	0	0	0	0	457	617	
3	0	0	0	0	458	617	
4	0	0	0	0	458	617	
5	0	0	0	0	457	616	
6	0	0	0	0	458	617	
7	0	0	0	0	458	617	
8	0	0	0	0	458	617	
9	0	0	0	0	457	616	
10	0	0	0	0	457	617	
11	0	0	0	0	457	616	
12	0	0	0	0	458	616	
13	0	0	0	0	458	617	
14	0	0	0	0	459	616	
15	0	0	0	0	459	616	
0	0	0	0	0	459	616	
1	0	0	0	0	459	616	
2	0	0	0	0	459	617	
3	0	0	0	0	459	617	
4	0	0	0	0	458	617	
5	0	0	0	0	458	617	
6	0	0	0	0	458	617	
7	0	0	0	0	458	617	
8	0	0	0	0	458	617	
9	0	0	0	0	458	617	
10	0	0	0	0	458	617	
11	0	0	0	0	458	617	
12	0	0	0	0	458	617	
13	0	0	0	0	459	617	
14	0	0	0	0	459	618	
15	0	0	0	0	458	617	
0	0	0	0	0	459	618	
1	0	0	0	0	459	617	
2	0	0	0	0	460	618	
3	0	0	0	0	461	617	
4	0	0	0	0	461	618	
5	0	0	0	0	462	618	
6	0	0	0	0	463	618	
7	0	0	0	0	463	618	
8	0	0	0	0	463	618	
9	0	0	0	0	463	619	
10	0	0	0	0	463	619	
11	0	0	0	0	463	619	
12	0	0	0	0	463	619	
13	0	0	0	0	464	619	
14	0	0	0	0	464	618	
15	0	0	0	0	464	619	
0	0	0	0	0	465	619	
1	0	0	0	0	465	618	
2	0	0	0	0	465	619	
3	0	0	0	0	465	619	
4	0	0	0	0	465	619	
5	0	0	0	0	466	620	
6	0	0	0	0	467	620	
7	0	0	0	0	467	620	
8	0	0	0	0	469	619	
9	0	0	0	0	469	619	
10	0	0	0	0	470	620	
11	0	0	0	0	471	619	
12	0	0	0	0	472	620	
13	0	0	0	0	473	620	
14	0	0	0	0	475	620	
15	0	0	0	0	476	621	
0	0	0	0	0	476	620	
1	0	0	0	0	477	619	
2	0	0	0	0	477	620	
3	0	0	0	0	477	619	
4	0	0	0	0	478	619	
5	0	0	0	0	479	619	
6	0	0	0	0	480	619	
7	0	0	0	0	481	619	
8	0	0	0	0	482	619	
9	0	0	0	0	483	619	
10	0	0	0	0	485	619	
11	0	0	0	0	485	618	
12	0	0	0	0	487	618	
13	0	0	0	0	488	617	
14	0	0	0	0	490	618	
15	0	0	0	0	491	618	
0	0	0	0	0	492	617	
1	0	0	0	0	493	617	
2	0	0	0	0	494	617	
3	0	0	0	0	495	616	
4	0	0	0	0	496	616	
5	0	0	0	0	498	616	
6	0	0	0	0	499	616	
7	0	0	0	0	500	616	
8	0	0	0	0	502	615	
9	0	0	0	0	503	615	
10	0	0	0	0	504	615	
11	0	0	0	0	506	615	
12	0	0	0	0	507	615	
13	0	0	0	0	509	615	
14	0	0	0	0	511	615	
15	0	0	0	0	512	616	
0	0	0	0	0	513	615	
1	0	0	0	0	515	615	
2	0	0	0	0	516	615	
3	0	0	0	0	518	615	
4	0	0	0	0	519	614	
5	0	0	0	0	520	615	
6	0	0	0	0	522	615	
7	0	0	0	0	523	615	
8	0	0	0	0	525	615	
9	0	0	0	0	527	616	
10	0	0	0	0	528	615	
11	0	0	0	0	530	615	
12	0	0	0	0	531	615	
13	0	0	0	0	532	615	
14	0	0	0	0	534	615	
15	0	0	0	0	536	615	
0	0	0	0	0	537	615	
1	0	0	0	0	539	616	
2	0	0	0	0	540	616	
3	0	0	0	0	542	616	
4	0	0	0	0	543	616	
5	0	0	0	0	544	615	
6	0	0	0	0	546	616	
7	0	0	0	0	547	617	
8	0	0	0	0	547	616	
9	0	0	0	0	548	616	
10	0	0	0	0	549	615	
11	0	0	0	0	550	616	
12	0	0	0	0	551	616	
13	0	0	0	0	551	616	
14	0	0	0	0	551	616	
15	0	0	0	0	553	616	
0	0	0	0	0	554	616	
1	0	0	0	0	554	616	
2	0	0	0	0	555	617	
3	0	0	0	0	555	616	
4	0	0	0	0	554	617	
5	0	0	0	0	555	617	
6	0	0	0	0	555	617	
7	0	0	0	0	555	617	
8	0	0	0	0	556	617	
9	0	0	0	0	555	617	
10	0	0	0	0	556	617	
11	0	0	0	0	555	617	
12	0	0	0	0	556	618	
13	0	0	0	0	555	618	
14	0	0	0	0	556	618	
15	0	0	0	0	556	619	
0	0	0	0	0	557	619	
1	0	0	0	0	558	619	
2	0	0	0	0	558	620	
3	0	0	0	0	558	619	
4	0	0	0	0	560	619	
5	0	0	0	0	560	619	
6	0	0	0	0	559	619	
7	0	0	0	0	558	619	
8	0	0	0	0	558	619	
9	0	0	0	0	558	619	
10	0	0	0	0	558	619	
11	0	0	0	0	559	619	
12	0	0	0	0	559	619	
13	0	0	0	0	559	619	
14	0	0	0	0	558	619	
15	0	0	0	0	558	620	
0	0	0	0	0	558	619	
1	0	0	0	0	557	619	
2	0	0	0	0	557	619	
3	0	0	0	0	556	619	
4	0	0	0	0	555	619	
5	0	0	0	0	554	618	
6	0	0	0	0	554	619	
7	0	0	0	0	552	618	
8	0	0	0	0	552	618	
9	0	0	0	0	552	618	
10	0	0	0	0	551	618	
11	0	0	0	0	550	618	
12	0	0	0	0	550	618	
13	0	0	0	0	550	619	
14	0	0	0	0	549	618	
15	0	0	0	0	548	619	
0	0	0	0	0	548	619	
1	0	0	0	0	547	618	
2	0	0	0	0	548	619	
3	0	0	0	0	547	619	
4	0	0	0	0	547	619	
5	0	0	0	0	547	618	
6	0	0	0	0	547	619	
7	0	0	0	0	547	619	
8	0	0	0	0	546	619	
9	0	0	0	0	546	619	
10	0	0	0	0	545	619	
11	0	0	0	0	544	619	
12	0	0	0	0	543	619	
13	0	0	0	0	542	619	
14	0	0	0	0	540	619	
15	0	0	0	0	539	619	
0	0	0	0	0	538	618	
1	0	0	0	0	537	619	
2	0	0	0	0	537	619	
3	0	0	0	0	536	619	
4	0	0	0	0	536	618	
5	0	0	0	0	536	618	
6	0	0	0	0	536	618	
7	0	0	0	0	535	619	
8	0	0	0	0	535	617	
9	0	0	0	0	535	617	
10	0	0	0	0	534	618	
11	0	0	0	0	534	618	
12	0	0	0	0	534	618	
13	0	0	0	0	534	617	
14	0	0	0	0	533	617	
15	0	0	0	0	533	617	
0	0	0	0	0	533	617	
1	0	0	0	0	532	617	
2	0	0	0	0	531	616	
3	0	0	0	0	531	617	
4	0	0	0	0	531	616	
5	0	0	0	0	531	617	
6	0	0	0	0	531	617	
7	0	0	0	0	531	617	
8	0	0	0	0	531	616	
9	0	0	0	0	530	617	
10	0	0	0	0	530	616	
11	0	0	0	0	531	616	
12	0	0	0	0	531	617	
13	0	0	0	0	530	616	
14	0	0	0	0	530	617	
15	0	0	0	0	530	617	
0	0	0	0	0	529	616	
1	0	0	0	0	528	616	
2	0	0	0	0	527	616	
3	0	0	0	0	527	616	
4	0	0	0	0	528	616	
5	0	0	0	0	527	616	
6	0	0	0	0	527	617	
7	0	0	0	0	527	618	
8	0	0	0	0	527	617	
9	0	0	0	0	528	617	
10	0	0	0	0	528	617	
11	0	0	0	0	528	617	
12	0	0	0	0	528	617	
13	0	0	0	0	529	617	
14	0	0	0	0	529	617	
15	0	0	0	0	530	618	
0	0	0	0	0	529	617	
1	0	0	0	0	529	617	
2	0	0	0	0	529	617	
3	0	0	0	0	530	617	
4	0	0	0	0	530	616	
5	0	0	0	0	530	617	
6	0	0	0	0	530	618	
7	0	0	0	0	530	617	
8	0	0	0	0	529	617	
9	0	0	0	0	530	617	
10	0	0	0	0	530	617	
11	0	0	0	0	529	617	
12	0	0	0	0	529	616	
13	0	0	0	0	529	617	
14	0	0	0	0	529	617	
15	0	0	0	0	529	617	
0	0	0	0	0	529	617	
1	0	0	0	0	530	617	
2	0	0	0	0	530	617	
3	0	0	0	0	530	618	
4	0	0	0	0	530	618	
5	0	0	0	0	530	617	
6	0	0	0	0	529	618	
7	0	0	0	0	530	618	
8	0	0	0	0	530	617	
9	0	0	0	0	530	617	
10	0	0	0	0	530	617	
11	0	0	0	0	530	617	
12	0	0	0	0	530	617	
13	0	0	0	0	530	617	
14	0	0	0	0	530	617	
15	0	0	0	0	529	617	
0	0	0	0	0	529	616	
1	0	0	0	0	529	616	
2	0	0	0	0	530	617	
3	0	0	0	0	529	617	
4	0	0	0	0	530	617	
5	0	0	0	0	529	616	
6	0	0	0	0	529	617	
7	0	0	0	0	530	617	
8	0	0	0	0	530	617	
9	0	0	0	0	531	617	
10	0	0	0	0	531	617	
11	0	0	0	0	531	617	
12	0	0	0	0	531	618	
13	0	0	0	0	531	617	
14	0	0	0	0	531	617	
15	0	0	0	0	530	618	
0	0	0	0	0	531	618	
1	0	0	0	0	530	617	
2	0	0	0	0	530	617	
3	0	0	0	0	531	617	
4	0	0	0	0	531	617	
5	0	0	0	0	531	617	
6	0	0	0	0	531	617	
7	0	0	0	0	532	618	
8	0	0	0	0	532	617	
9	0	0	0	0	531	617	
10	0	0	0	0	531	617	
11	0	0	0	0	531	618	
12	0	0	0	0	531	618	
13	0	0	0	0	530	618	
14	0	0	0	0	529	617	
15	0	0	0	0	529	619	
0	0	0	0	0	530	618	
1	0	0	0	0	530	618	
2	0	0	0	0	530	618	
3	0	0	0	0	530	618	
4	0	0	0	0	531	618	
5	0	0	0	0	530	618	
6	0	0	0	0	529	619	
7	0	0	0	0	529	618	
8	0	0	0	0	529	618	
9	0	0	0	0	529	619	
10	0	0	0	0	530	618	
11	0	0	0	0	531	618	
12	0	0	0	0	531	618	
13	0	0	0	0	530	619	
14	0	0	0	0	530	619	
15	0	0	0	0	530	619	
0	0	0	0	0	530	619	
1	0	0	0	0	529	619	
2	0	0	0	0	529	619	
3	0	0	0	0	529	619	
4	0	0	0	0	529	619	
5	0	0	0	0	529	618	
6	0	0	0	0	529	619	
7	0	0	0	0	529	618	
8	0	0	0	0	529	618	
9	0	0	0	0	529	618	
10	0	0	0	0	529	618	
11	0	0	0	0	529	618	
12	0	0	0	0	529	618	
13	0	0	0	0	529	618	
14	0	0	0	0	528	618	
15	0	0	0	0	528	618	
0	0	0	0	0	528	618	
1	0	0	0	0	527	618	
2	0	0	0	0	527	618	
3	0	0	0	0	527	618	
4	0	0	0	0	527	618	
5	0	0	0	0	527	618	
6	0	0	0	0	527	618	
7	0	0	0	0	527	618	
8	0	0	0	0	526	617	
9	0	0	0	0	526	617	
10	0	0	0	0	526	617	
11	0	0	0	0	526	617	
12	0	0	0	0	526	617	
13	0	0	0	0	525	616	
14	0	0	0	0	525	617	
15	0	0	0	0	525	616	
0	0	0	0	0	525	616	
1	0	0	0	0	524	616	
2	0	0	0	0	524	616	
3	0	0	0	0	524	615	
4	0	0	0	0	523	615	
5	0	0	0	0	523	615	
6	0	0	0	0	522	616	
7	0	0	0	0	521	616	
8	0	0	0	0	520	615	
9	0	0	0	0	520	615	
10	0	0	0	0	519	616	
11	0	0	0	0	519	616	
12	0	0	0	0	518	616	
13	0	0	0	0	517	615	
14	0	0	0	0	516	615	
15	0	0	0	0	515	616	
0	0	0	0	0	515	615	
1	0	0	0	0	514	616	
2	0	0	0	0	514	616	
3	0	0	0	0	514	615	
4	0	0	0	0	514	616	
5	0	0	0	0	514	616	
6	0	0	0	0	514	616	
7	0	0	0	0	513	617	
8	0	0	0	0	514	616	
9	0	0	0	0	514	616	
10	0	0	0	0	513	617	
11	0	0	0	0	512	616	
12	0	0	0	0	512	617	
13	0	0	0	0	511	617	
14	0	0	0	0	511	617	
15	0	0	0	0	512	618	
0	0	0	0	0	511	617	
1	0	0	0	0	511	617	
2	0	0	0	0	510	617	
3	0	0	0	0	510	617	
4	0	0	0	0	511	617	
5	0	0	0	0	511	617	
6	0	0	0	0	511	618	
7	0	0	0	0	512	618	
8	0	0	0	0	512	617	
9	0	0	0	0	513	617	
10	0	0	0	0	513	618	
11	0	0	0	0	513	617	
12	0	0	0	0	513	617	
13	0	0	0	0	513	617	
14	0	0	0	0	514	617	
15	0	0	0	0	514	618	
0	0	0	0	0	514	617	
1	0	0	0	0	513	617	
2	0	0	0	0	513	617	
3	0	0	0	0	513	617	
4	0	0	0	0	513	617	
5	0	0	0	0	513	617	
6	0	0	0	0	512	617	
7	0	0	0	0	512	618	
8	0	0	0	0	513	617	
9	0	0	0	0	513	617	
10	0	0	0	0	514	617	
11	0	0	0	0	515	617	
12	0	0	0	0	515	617	
13	0	0	0	0	516	617	
14	0	0	0	0	516	617	
15	0	0	0	0	516	618	
0	0	0	0	0	516	617	
1	0	0	0	0	516	617	
2	0	0	0	0	517	618	
3	0	0	0	0	518	617	
4	0	0	0	0	519	617	
5	0	0	0	0	520	618	
6	0	0	0	0	521	618	
7	0	0	0	0	521	618	
8	0	0	0	0	521	617	
9	0	0	0	0	520	618	
10	0	0	0	0	520	617	
11	0	0	0	0	519	617	
12	0	0	0	0	519	618	
13	0	0	0	0	519	617	
14	0	0	0	0	520	617	
15	0	0	0	0	520	618	
0	0	0	0	0	520	618	
1	0	0	0	0	521	618	
2	0	0	0	0	522	618	
3	0	0	0	0	523	618	
4	0	0	0	0	524	617	
5	0	0	0	0	525	617	
6	0	0	0	0	525	618	
7	0	0	0	0	526	619	
8	0	0	0	0	526	618	
9	0	0	0	0	527	618	
10	0	0	0	0	527	619	
11	0	0	0	0	527	618	
12	0	0	0	0	528	619	
13	0	0	0	0	527	619	
14	0	0	0	0	528	619	
15	0	0	0	0	527	619	
0	0	0	0	0	527	619	
1	0	0	0	0	527	619	
2	0	0	0	0	527	619	
3	0	0	0	0	527	618	
4	0	0	0	0	526	619	
5	0	0	0	0	527	619	
6	0	0	0	0	527	619	
7	0	0	0	0	526	619	
8	0	0	0	0	526	619	
9	0	0	0	0	526	619	
10	0	0	0	0	526	619	
11	0	0	0	0	525	619	
12	0	0	0	0	525	619	
13	0	0	0	0	525	619	
14	0	0	0	0	525	619	
15	0	0	0	0	524	619	
0	0	0	0	0	525	619	
1	0	0	0	0	524	619	
2	0	0	0	0	525	619	
3	0	0	0	0	524	619	
4	0	0	0	0	524	619	
5	0	0	0	0	524	618	
6	0	0	0	0	524	617	
7	0	0	0	0	524	617	
8	0	0	0	0	524	617	
9	0	0	0	0	524	617	
10	0	0	0	0	523	617	
11	0	0	0	0	523	617	
12	0	0	0	0	524	617	
13	0	0	0	0	523	617	
14	0	0	0	0	523	618	
15	0	0	0	0	522	619	
0	0	0	0	0	522	617	
1	0	0	0	0	523	618	
2	0	0	0	0	522	618	
3	0	0	0	0	522	618	
4	0	0	0	0	522	619	
5	0	0	0	0	522	619	
6	0	0	0	0	521	619	
7	0	0	0	0	521	619	
8	0	0	0	0	521	619	
9	0	0	0	0	520	619	
10	0	0	0	0	519	619	
11	0	0	0	0	517	618	
12	0	0	0	0	516	619	
13	0	0	0	0	515	619	
14	0	0	0	0	512	619	
15	0	0	0	0	510	619	
0	0	0	0	0	506	619	
1	0	0	0	0	503	619	
2	0	0	0	0	498	619	
3	0	0	0	0	492	618	
4	0	0	0	0	486	619	
5	0	0	0	0	479	618	
6	0	0	0	0	472	618	
7	0	0	0	0	467	617	
8	0	0	0	0	462	618	
9	0	0	0	0	456	617	
10	0	0	0	0	451	616	
11	0	0	0	0	446	616	
12	0	0	0	0	442	617	
13	0	0	0	0	439	617	
14	0	0	0	0	435	617	
15	0	0	0	0	432	617	
0	0	0	0	0	432	617	
1	0	0	0	0	432	617	
2	0	0	0	0	433	617	
3	0	0	0	0	437	617	
4	0	0	0	0	443	616	
5	0	0	0	0	450	616	
6	0	0	0	0	459	617	
7	0	0	0	0	471	617	
8	0	0	0	0	488	616	
9	0	0	0	0	508	616	
10	0	0	0	0	531	617	
11	0	0	0	0	555	616	
12	0	0	0	0	580	617	
13	0	0	0	0	605	617	
14	0	0	0	0	633	616	
15	0	0	0	0	660	617	
0	0	0	0	0	682	617	
1	0	0	0	0	699	616	
2	0	0	0	0	712	616	
3	0	0	0	0	724	616	
4	0	0	0	0	735	616	
5	0	0	0	0	747	617	
6	0	0	0	0	757	616	
7	0	0	0	0	765	616	
8	0	0	0	0	772	616	
9	0	0	0	0	775	616	
10	0	0	0	0	778	616	
11	0	0	0	0	778	616	
12	0	0	0	0	776	616	
13	0	0	0	0	770	616	
14	0	0	0	0	755	615	
15	0	0	0	0	738	616	
0	0	0	0	0	719	616	
1	0	0	0	0	699	616	
2	0	0	0	0	679	616	
3	0	0	0	0	661	615	
4	0	0	0	0	645	616	
5	0	0	0	0	630	616	
6	0	0	0	0	617	616	
7	0	0	0	0	605	616	
8	0	0	0	0	595	616	
9	0	0	0	0	585	615	
10	0	0	0	0	575	615	
11	0	0	0	0	565	615	
12	0	0	0	0	556	616	
13	0	0	0	0	547	615	
14	0	0	0	0	539	616	
15	0	0	0	0	531	617	
0	0	0	0	0	523	616	
1	0	0	0	0	515	616	
2	0	0	0	0	508	616	
3	0	0	0	0	502	616	
4	0	0	0	0	496	616	
5	0	0	0	0	491	617	
6	0	0	0	0	487	616	
7	0	0	0	0	482	617	
8	0	0	0	0	478	617	
9	0	0	0	0	475	617	
10	0	0	0	0	473	617	
11	0	0	0	0	470	616	
12	0	0	0	0	467	616	
13	0	0	0	0	465	617	
14	0	0	0	0	463	617	
15	0	0	0	0	461	618	
0	0	0	0	0	459	618	
1	0	0	0	0	457	618	
2	0	0	0	0	455	618	
3	0	0	0	0	452	618	
4	0	0	0	0	450	618	
5	0	0	0	0	449	619	
6	0	0	0	0	448	619	
7	0	0	0	0	447	619	
8	0	0	0	0	446	619	
9	0	0	0	0	445	618	
10	0	0	0	0	444	618	
11	0	0	0	0	444	618	
12	0	0	0	0	444	618	
13	0	0	0	0	444	618	
14	0	0	0	0	444	618	
15	0	0	0	0	444	619	
0	0	0	0	0	443	618	
1	0	0	0	0	444	618	
2	0	0	0	0	444	617	
3	0	0	0	0	445	617	
4	0	0	0	0	446	618	
5	0	0	0	0	447	618	
6	0	0	0	0	447	618	
7	0	0	0	0	448	618	
8	0	0	0	0	448	617	
9	0	0	0	0	449	617	
10	0	0	0	0	449	618	
11	0	0	0	0	450	617	
12	0	0	0	0	450	618	
13	0	0	0	0	451	617	
14	0	0	0	0	451	617	
15	0	0	0	0	451	618	
0	0	0	0	0	451	617	
1	0	0	0	0	451	617	
2	0	0	0	0	451	617	
3	0	0	0	0	451	617	
4	0	0	0	0	452	617	
5	0	0	0	0	452	617	
6	0	0	0	0	452	617	
7	0	0	0	0	452	617	
8	0	0	0	0	452	617	
9	0	0	0	0	452	616	
10	0	0	0	0	452	616	
11	0	0	0	0	453	617	
12	0	0	0	0	453	616	
13	0	0	0	0	453	616	
14	0	0	0	0	453	617	
15	0	0	0	0	453	617	
0	0	0	0	0	453	617	
1	0	0	0	0	453	616	
2	0	0	0	0	453	616	
3	0	0	0	0	454	617	
4	0	0	0	0	454	617	
5	0	0	0	0	455	617	
6	0	0	0	0	455	617	
7	0	0	0	0	455	617	
8	0	0	0	0	455	617	
9	0	0	0	0	455	617	
10	0	0	0	0	455	617	
11	0	0	0	0	455	616	
12	0	0	0	0	456	617	
13	0	0	0	0	456	618	
14	0	0	0	0	457	617	
15	0	0	0	0	457	618	
0	0	0	0	0	457	617	
1	0	0	0	0	457	617	
2	0	0	0	0	457	617	
3	0	0	0	0	457	617	
4	0	0	0	0	457	617	
5	0	0	0	0	457	617	
6	0	0	0	0	457	617	
7	0	0	0	0	457	617	
8	0	0	0	0	458	617	
9	0	0	0	0	457	616	
10	0	0	0	0	457	616	
11	0	0	0	0	457	617	
12	0	0	0	0	457	617	
13	0	0	0	0	457	617	
14	0	0	0	0	457	617	
15	0	0	0	0	457	617	
0	0	0	0	0	458	617	
1	0	0	0	0	459	617	
2	0	0	0	0	459	617	
3	0	0	0	0	459	617	
4	0	0	0	0	459	617	
5	0	0	0	0	460	616	
6	0	0	0	0	461	616	
7	0	0	0	0	461	617	
8	0	0	0	0	461	616	
9	0	0	0	0	461	616	
10	0	0	0	0	462	616	
11	0	0	0	0	462	617	
12	0	0	0	0	462	617	
13	0	0	0	0	462	617	
14	0	0	0	0	462	617	
15	0	0	0	0	461	617	
0	0	0	0	0	461	617	
1	0	0	0	0	461	618	
2	0	0	0	0	461	617	
3	0	0	0	0	461	617	
4	0	0	0	0	462	618	
5	0	0	0	0	462	618	
6	0	0	0	0	462	618	
7	0	0	0	0	462	618	
8	0	0	0	0	462	617	
9	0	0	0	0	463	617	
10	0	0	0	0	462	617	
11	0	0	0	0	463	618	
12	0	0	0	0	463	618	
13	0	0	0	0	463	618	
14	0	0	0	0	463	618	
15	0	0	0	0	463	618	
0	0	0	0	0	462	617	
1	0	0	0	0	462	617	
2	0	0	0	0	463	617	
3	0	0	0	0	463	618	
4	0	0	0	0	463	618	
5	0	0	0	0	463	619	
6	0	0	0	0	463	618	
7	0	0	0	0	463	619	
8	0	0	0	0	463	618	
9	0	0	0	0	463	617	
10	0	0	0	0	463	618	
11	0	0	0	0	463	618	
12	0	0	0	0	464	619	
13	0	0	0	0	465	618	
14	0	0	0	0	465	619	
15	0	0	0	0	466	619	
0	0	0	0	0	466	618	
1	0	0	0	0	467	619	
2	0	0	0	0	466	619	
3	0	0	0	0	466	619	
4	0	0	0	0	465	619	
5	0	0	0	0	465	620	
6	0	0	0	0	465	620	
7	0	0	0	0	465	620	
8	0	0	0	0	465	620	
9	0	0	0	0	466	620	
10	0	0	0	0	466	620	
11	0	0	0	0	467	620	
12	0	0	0	0	467	620	
13	0	0	0	0	468	620	
14	0	0	0	0	469	620	
15	0	0	0	0	469	620	
0	0	0	0	0	470	620	
1	0	0	0	0	470	620	
2	0	0	0	0	471	620	
3	0	0	0	0	471	620	
4	0	0	0	0	471	620	
5	0	0	0	0	472	620	
6	0	0	0	0	472	620	
7	0	0	0	0	473	620	
8	0	0	0	0	473	620	
9	0	0	0	0	473	620	
10	0	0	0	0	474	619	
11	0	0	0	0	474	619	
12	0	0	0	0	474	619	
13	0	0	0	0	475	620	
14	0	0	0	0	476	619	
15	0	0	0	0	477	620	
0	0	0	0	0	478	619	
1	0	0	0	0	479	619	
2	0	0	0	0	480	619	
3	0	0	0	0	481	619	
4	0	0	0	0	482	619	
5	0	0	0	0	483	619	
6	0	0	0	0	484	619	
7	0	0	0	0	486	619	
8	0	0	0	0	486	619	
9	0	0	0	0	488	618	
10	0	0	0	0	489	619	
11	0	0	0	0	490	619	
12	0	0	0	0	492	618	
13	0	0	0	0	493	618	
14	0	0	0	0	493	618	
15	0	0	0	0	494	619	
0	0	0	0	0	496	618	
1	0	0	0	0	497	617	
2	0	0	0	0	499	617	
3	0	0	0	0	500	617	
4	0	0	0	0	501	615	
5	0	0	0	0	503	615	
6	0	0	0	0	504	615	
7	0	0	0	0	506	615	
8	0	0	0	0	507	615	
9	0	0	0	0	509	614	
10	0	0	0	0	510	614	
11	0	0	0	0	511	614	
12	0	0	0	0	513	614	
13	0	0	0	0	514	614	
14	0	0	0	0	516	613	
15	0	0	0	0	518	614	
0	0	0	0	0	519	613	
1	0	0	0	0	521	613	
2	0	0	0	0	523	613	
3	0	0	0	0	525	613	
4	0	0	0	0	526	613	
5	0	0	0	0	527	614	
6	0	0	0	0	528	613	
7	0	0	0	0	530	613	
8	0	0	0	0	532	613	
9	0	0	0	0	534	613	
10	0	0	0	0	536	613	
11	0	0	0	0	537	613	
12	0	0	0	0	537	614	
13	0	0	0	0	539	613	
14	0	0	0	0	540	614	
15	0	0	0	0	541	614	
0	0	0	0	0	543	614	
1	0	0	0	0	543	614	
2	0	0	0	0	544	614	
3	0	0	0	0	545	614	
4	0	0	0	0	547	615	
5	0	0	0	0	548	614	
6	0	0	0	0	549	615	
7	0	0	0	0	550	615	
8	0	0	0	0	550	615	
9	0	0	0	0	551	615	
10	0	0	0	0	552	615	
11	0	0	0	0	553	615	
12	0	0	0	0	554	616	
13	0	0	0	0	555	616	
14	0	0	0	0	556	616	
15	0	0	0	0	556	617	
0	0	0	0	0	557	617	
1	0	0	0	0	559	617	
2	0	0	0	0	559	617	
3	0	0	0	0	560	617	
4	0	0	0	0	560	617	
5	0	0	0	0	560	617	
6	0	0	0	0	560	617	
7	0	0	0	0	560	618	
8	0	0	0	0	560	619	
9	0	0	0	0	560	619	
10	0	0	0	0	560	619	
11	0	0	0	0	559	619	
12	0	0	0	0	559	619	
13	0	0	0	0	559	619	
14	0	0	0	0	559	620	
15	0	0	0	0	559	620	
0	0	0	0	0	560	620	
1	0	0	0	0	559	620	
2	0	0	0	0	560	620	
3	0	0	0	0	560	620	
4	0	0	0	0	560	621	
5	0	0	0	0	560	621	
6	0	0	0	0	560	621	
7	0	0	0	0	559	622	
8	0	0	0	0	559	622	
9	0	0	0	0	559	622	
10	0	0	0	0	558	621	
11	0	0	0	0	558	621	
12	0	0	0	0	558	622	
13	0	0	0	0	558	622	
14	0	0	0	0	557	622	
15	0	0	0	0	556	622	
0	0	0	0	0	556	622	
1	0	0	0	0	556	622	
2	0	0	0	0	555	621	
3	0	0	0	0	555	621	
4	0	0	0	0	555	621	
5	0	0	0	0	554	620	
6	0	0	0	0	554	621	
7	0	0	0	0	554	622	
8	0	0	0	0	553	620	
9	0	0	0	0	553	620	
10	0	0	0	0	553	620	
11	0	0	0	0	553	620	
12	0	0	0	0	552	620	
13	0	0	0	0	552	619	
14	0	0	0	0	551	619	
15	0	0	0	0	551	619	
0	0	0	0	0	550	619	
1	0	0	0	0	550	620	
2	0	0	0	0	549	619	
3	0	0	0	0	547	618	
4	0	0	0	0	547	618	
5	0	0	0	0	547	619	
6	0	0	0	0	547	619	
7	0	0	0	0	546	618	
8	0	0	0	0	546	618	
9	0	0	0	0	545	617	
10	0	0	0	0	545	618	
11	0	0	0	0	544	617	
12	0	0	0	0	544	617	
13	0	0	0	0	543	617	
14	0	0	0	0	542	618	
15	0	0	0	0	543	617	
0	0	0	0	0	542	617	
1	0	0	0	0	542	617	
2	0	0	0	0	541	617	
3	0	0	0	0	540	616	
4	0	0	0	0	540	617	
5	0	0	0	0	539	617	
6	0	0	0	0	539	617	
7	0	0	0	0	538	617	
8	0	0	0	0	538	616	
9	0	0	0	0	538	617	
10	0	0	0	0	538	617	
11	0	0	0	0	538	616	
12	0	0	0	0	538	617	
13	0	0	0	0	537	617	
14	0	0	0	0	537	617	
15	0	0	0	0	537	617	
0	0	0	0	0	537	617	
1	0	0	0	0	536	616	
2	0	0	0	0	536	616	
3	0	0	0	0	536	616	
4	0	0	0	0	535	616	
5	0	0	0	0	534	616	
6	0	0	0	0	534	616	
7	0	0	0	0	533	616	
8	0	0	0	0	533	616	
9	0	0	0	0	533	616	
10	0	0	0	0	533	616	
11	0	0	0	0	532	616	
12	0	0	0	0	531	615	
13	0	0	0	0	531	615	
14	0	0	0	0	531	615	
15	0	0	0	0	531	616	
0	0	0	0	0	531	615	
1	0	0	0	0	531	615	
2	0	0	0	0	531	615	
3	0	0	0	0	530	616	
4	0	0	0	0	531	616	
5	0	0	0	0	531	616	
6	0	0	0	0	530	616	
7	0	0	0	0	531	616	
8	0	0	0	0	532	616	
9	0	0	0	0	532	615	
10	0	0	0	0	532	616	
11	0	0	0	0	531	616	
12	0	0	0	0	531	616	
13	0	0	0	0	531	616	
14	0	0	0	0	532	617	
15	0	0	0	0	532	617	
0	0	0	0	0	532	616	
1	0	0	0	0	532	616	
2	0	0	0	0	532	617	
3	0	0	0	0	532	616	
4	0	0	0	0	531	617	
5	0	0	0	0	531	617	
6	0	0	0	0	530	617	
7	0	0	0	0	530	617	
8	0	0	0	0	530	617	
9	0	0	0	0	530	617	
10	0	0	0	0	530	617	
11	0	0	0	0	530	617	
12	0	0	0	0	530	617	
13	0	0	0	0	530	617	
14	0	0	0	0	529	618	
15	0	0	0	0	529	617	
0	0	0	0	0	530	617	
1	0	0	0	0	530	617	
2	0	0	0	0	531	617	
3	0	0	0	0	531	617	
4	0	0	0	0	532	617	
5	0	0	0	0	532	617	
6	0	0	0	0	532	617	
7	0	0	0	0	533	618	
8	0	0	0	0	533	617	
9	0	0	0	0	534	617	
10	0	0	0	0	534	618	
11	0	0	0	0	534	617	
12	0	0	0	0	534	618	
13	0	0	0	0	534	619	
14	0	0	0	0	534	619	
15	0	0	0	0	534	619	
0	0	0	0	0	534	618	
1	0	0	0	0	533	619	
2	0	0	0	0	533	618	
3	0	0	0	0	532	618	
4	0	0	0	0	531	619	
5	0	0	0	0	531	619	
6	0	0	0	0	531	619	
7	0	0	0	0	531	619	
8	0	0	0	0	530	617	
9	0	0	0	0	531	618	
10	0	0	0	0	530	618	
11	0	0	0	0	530	618	
12	0	0	0	0	530	617	
13	0	0	0	0	530	617	
14	0	0	0	0	529	617	
15	0	0	0	0	529	617	
0	0	0	0	0	529	617	
1	0	0	0	0	529	617	
2	0	0	0	0	529	616	
3	0	0	0	0	529	617	
4	0	0	0	0	529	617	
5	0	0	0	0	529	616	
6	0	0	0	0	529	616	
7	0	0	0	0	529	617	
8	0	0	0	0	530	616	
9	0	0	0	0	530	617	
10	0	0	0	0	530	617	
11	0	0	0	0	529	616	
12	0	0	0	0	529	616	
13	0	0	0	0	529	617	
14	0	0	0	0	530	617	
15	0	0	0	0	529	617	
0	0	0	0	0	529	617	
1	0	0	0	0	529	617	
2	0	0	0	0	530	617	
3	0	0	0	0	529	617	
4	0	0	0	0	530	618	
5	0	0	0	0	530	618	
6	0	0	0	0	530	617	
7	0	0	0	0	530	618	
8	0	0	0	0	529	618	
9	0	0	0	0	529	618	
10	0	0	0	0	529	618	
11	0	0	0	0	528	619	
12	0	0	0	0	528	618	
13	0	0	0	0	529	618	
14	0	0	0	0	529	618	
15	0	0	0	0	529	619	
0	0	0	0	0	529	619	
1	0	0	0	0	529	618	
2	0	0	0	0	528	618	
3	0	0	0	0	528	618	
4	0	0	0	0	528	618	
5	0	0	0	0	528	618	
6	0	0	0	0	529	618	
7	0	0	0	0	529	619	
8	0	0	0	0	528	618	
9	0	0	0	0	528	618	
10	0	0	0	0	527	618	
11	0	0	0	0	527	618	
12	0	0	0	0	527	618	
13	0	0	0	0	526	618	
14	0	0	0	0	525	617	
15	0	0	0	0	524	618	
0	0	0	0	0	525	617	
1	0	0	0	0	525	618	
2	0	0	0	0	526	618	
3	0	0	0	0	526	617	
4	0	0	0	0	526	617	
5	0	0	0	0	527	618	
6	0	0	0	0	527	619	
7	0	0	0	0	527	618	
8	0	0	0	0	527	617	
9	0	0	0	0	527	617	
10	0	0	0	0	527	618	
11	0	0	0	0	527	618	
12	0	0	0	0	527	617	
13	0	0	0	0	527	617	
14	0	0	0	0	526	618	
15	0	0	0	0	526	618	
0	0	0	0	0	526	617	
1	0	0	0	0	525	617	
2	0	0	0	0	524	617	
3	0	0	0	0	524	617	
4	0	0	0	0	523	617	
5	0	0	0	0	522	617	
6	0	0	0	0	521	617	
7	0	0	0	0	520	618	
8	0	0	0	0	519	617	
9	0	0	0	0	519	618	
10	0	0	0	0	518	617	
11	0	0	0	0	518	617	
12	0	0	0	0	518	616	
13	0	0	0	0	516	617	
14	0	0	0	0	516	616	
15	0	0	0	0	516	617	
0	0	0	0	0	516	616	
1	0	0	0	0	515	616	
2	0	0	0	0	516	616	
3	0	0	0	0	516	616	
4	0	0	0	0	515	616	
5	0	0	0	0	515	616	
6	0	0	0	0	515	616	
7	0	0	0	0	514	616	
8	0	0	0	0	513	616	
9	0	0	0	0	513	616	
10	0	0	0	0	513	616	
11	0	0	0	0	513	616	
12	0	0	0	0	512	616	
13	0	0	0	0	512	616	
14	0	0	0	0	512	616	
15	0	0	0	0	512	617	
0	0	0	0	0	512	615	
1	0	0	0	0	512	615	
2	0	0	0	0	513	615	
3	0	0	0	0	513	615	
4	0	0	0	0	513	615	
5	0	0	0	0	513	615	
6	0	0	0	0	514	615	
7	0	0	0	0	514	616	
8	0	0	0	0	514	615	
9	0	0	0	0	515	616	
10	0	0	0	0	515	615	
11	0	0	0	0	514	616	
12	0	0	0	0	513	616	
13	0	0	0	0	513	617	
14	0	0	0	0	513	617	
15	0	0	0	0	513	618	
0	0	0	0	0	512	618	
1	0	0	0	0	514	618	
2	0	0	0	0	515	619	
3	0	0	0	0	515	619	
4	0	0	0	0	516	619	
5	0	0	0	0	517	618	
6	0	0	0	0	518	619	
7	0	0	0	0	519	619	
8	0	0	0	0	519	619	
9	0	0	0	0	519	619	
10	0	0	0	0	520	619	
11	0	0	0	0	520	619	
12	0	0	0	0	519	618	
13	0	0	0	0	519	619	
14	0	0	0	0	519	619	
15	0	0	0	0	519	619	
0	0	0	0	0	520	618	
1	0	0	0	0	522	618	
2	0	0	0	0	523	618	
3	0	0	0	0	524	618	
4	0	0	0	0	524	618	
5	0	0	0	0	523	618	
6	0	0	0	0	523	618	
7	0	0	0	0	522	618	
8	0	0	0	0	522	617	
9	0	0	0	0	521	618	
10	0	0	0	0	521	618	
11	0	0	0	0	521	618	
12	0	0	0	0	522	618	
13	0	0	0	0	522	618	
14	0	0	0	0	521	618	
15	0	0	0	0	522	619	
0	0	0	0	0	523	618	
1	0	0	0	0	524	618	
2	0	0	0	0	524	618	
3	0	0	0	0	524	618	
4	0	0	0	0	524	618	
5	0	0	0	0	525	618	
6	0	0	0	0	526	618	
7	0	0	0	0	526	619	
8	0	0	0	0	526	618	
9	0	0	0	0	527	619	
10	0	0	0	0	527	618	
11	0	0	0	0	527	618	
12	0	0	0	0	527	619	
13	0	0	0	0	527	618	
14	0	0	0	0	527	619	
15	0	0	0	0	527	619	
0	0	0	0	0	527	618	
1	0	0	0	0	527	618	
2	0	0	0	0	527	618	
3	0	0	0	0	528	618	
4	0	0	0	0	527	618	
5	0	0	0	0	527	618	
6	0	0	0	0	526	619	
7	0	0	0	0	526	617	
8	0	0	0	0	526	617	
9	0	0	0	0	526	617	
10	0	0	0	0	526	617	
11	0	0	0	0	525	618	
12	0	0	0	0	525	617	
13	0	0	0	0	525	617	
14	0	0	0	0	524	616	
15	0	0	0	0	524	617	
0	0	0	0	0	524	616	
1	0	0	0	0	523	616	
2	0	0	0	0	524	616	
3	0	0	0	0	523	615	
4	0	0	0	0	524	615	
5	0	0	0	0	523	615	
6	0	0	0	0	523	615	
7	0	0	0	0	523	616	
8	0	0	0	0	522	615	
9	0	0	0	0	522	615	
10	0	0	0	0	522	615	
11	0	0	0	0	521	615	
12	0	0	0	0	520	615	
13	0	0	0	0	521	616	
14	0	0	0	0	521	616	
15	0	0	0	0	520	616	
0	0	0	0	0	520	615	
1	0	0	0	0	520	616	
2	0	0	0	0	520	616	
3	0	0	0	0	519	615	
4	0	0	0	0	519	615	
5	0	0	0	0	518	615	
6	0	0	0	0	517	615	
7	0	0	0	0	516	616	
8	0	0	0	0	515	615	
9	0	0	0	0	513	615	
10	0	0	0	0	511	616	
11	0	0	0	0	509	616	
12	0	0	0	0	505	615	
13	0	0	0	0	502	616	
14	0	0	0	0	497	616	
15	0	0	0	0	492	616	
0	0	0	0	0	486	616	
1	0	0	0	0	480	616	
2	0	0	0	0	474	616	
3	0	0	0	0	468	616	
4	0	0	0	0	463	616	
5	0	0	0	0	459	617	
6	0	0	0	0	453	616	
7	0	0	0	0	449	617	
8	0	0	0	0	445	616	
9	0	0	0	0	442	617	
10	0	0	0	0	440	617	
11	0	0	0	0	437	617	
12	0	0	0	0	437	617	
13	0	0	0	0	436	617	
14	0	0	0	0	436	617	
15	0	0	0	0	440	618	
0	0	0	0	0	447	618	
1	0	0	0	0	454	619	
2	0	0	0	0	462	618	
3	0	0	0	0	473	619	
4	0	0	0	0	491	619	
5	0	0	0	0	511	618	
6	0	0	0	0	533	619	
7	0	0	0	0	558	619	
8	0	0	0	0	583	619	
9	0	0	0	0	608	619	
10	0	0	0	0	633	619	
11	0	0	0	0	660	619	
12	0	0	0	0	682	619	
13	0	0	0	0	700	619	
14	0	0	0	0	715	619	
15	0	0	0	0	728	620	
0	0	0	0	0	739	619	
1	0	0	0	0	749	619	
2	0	0	0	0	760	619	
3	0	0	0	0	769	619	
4	0	0	0	0	776	619	
5	0	0	0	0	779	619	
6	0	0	0	0	781	619	
7	0	0	0	0	783	619	
8	0	0	0	0	783	619	
9	0	0	0	0	779	619	
10	0	0	0	0	768	619	
11	0	0	0	0	751	619	
12	0	0	0	0	732	619	
13	0	0	0	0	712	619	
14	0	0	0	0	691	619	
15	0	0	0	0	671	619	
0	0	0	0	0	653	618	
1	0	0	0	0	636	619	
2	0	0	0	0	621	619	
3	0	0	0	0	608	619	
4	0	0	0	0	595	618	
5	0	0	0	0	584	618	
6	0	0	0	0	573	618	
7	0	0	0	0	562	619	
8	0	0	0	0	552	618	
9	0	0	0	0	543	618	
10	0	0	0	0	535	618	
11	0	0	0	0	526	618	
12	0	0	0	0	518	618	
13	0	0	0	0	510	618	
14	0	0	0	0	502	617	
15	0	0	0	0	495	617	
0	0	0	0	0	488	617	
1	0	0	0	0	483	617	
2	0	0	0	0	479	616	
3	0	0	0	0	475	617	
4	0	0	0	0	472	617	
5	0	0	0	0	467	616	
6	0	0	0	0	465	617	
7	0	0	0	0	462	617	
8	0	0	0	0	459	616	
9	0	0	0	0	456	615	
10	0	0	0	0	454	616	
11	0	0	0	0	452	615	
12	0	0	0	0	449	615	
13	0	0	0	0	447	615	
14	0	0	0	0	445	616	
15	0	0	0	0	444	616	
0	0	0	0	0	443	615	
1	0	0	0	0	442	616	
2	0	0	0	0	441	616	
3	0	0	0	0	440	615	
4	0	0	0	0	440	615	
5	0	0	0	0	440	615	
6	0	0	0	0	440	615	
7	0	0	0	0	440	616	
8	0	0	0	0	440	615	
9	0	0	0	0	439	615	
10	0	0	0	0	439	615	
11	0	0	0	0	440	615	
12	0	0	0	0	440	615	
13	0	0	0	0	440	615	
14	0	0	0	0	440	615	
15	0	0	0	0	441	616	
0	0	0	0	0	441	616	
1	0	0	0	0	441	616	
2	0	0	0	0	441	616	
3	0	0	0	0	441	616	
4	0	0	0	0	441	617	
5	0	0	0	0	441	617	
6	0	0	0	0	441	617	
7	0	0	0	0	441	618	
8	0	0	0	0	440	616	
9	0	0	0	0	440	617	
10	0	0	0	0	440	617	
11	0	0	0	0	441	617	
12	0	0	0	0	442	618	
13	0	0	0	0	442	617	
14	0	0	0	0	443	618	
15	0	0	0	0	443	619	
0	0	0	0	0	443	618	
1	0	0	0	0	444	618	
2	0	0	0	0	444	617	
3	0	0	0	0	444	618	
4	0	0	0	0	445	618	
5	0	0	0	0	445	618	
6	0	0	0	0	445	619	
7	0	0	0	0	445	618	
8	0	0	0	0	445	618	
9	0	0	0	0	445	619	
10	0	0	0	0	445	618	
11	0	0	0	0	445	617	
12	0	0	0	0	445	618	
13	0	0	0	0	446	619	
14	0	0	0	0	445	618	
15	0	0	0	0	445	619	
0	0	0	0	0	445	619	
1	0	0	0	0	445	619	
2	0	0	0	0	445	619	
3	0	0	0	0	445	619	
4	0	0	0	0	445	619	
5	0	0	0	0	445	619	
6	0	0	0	0	446	619	
7	0	0	0	0	446	619	
8	0	0	0	0	446	619	
9	0	0	0	0	446	619	
10	0	0	0	0	446	619	
11	0	0	0	0	446	619	
12	0	0	0	0	446	620	
13	0	0	0	0	446	620	
14	0	0	0	0	446	619	
15	0	0	0	0	447	620	
0	0	0	0	0	447	619	
1	0	0	0	0	447	620	
2	0	0	0	0	448	619	
3	0	0	0	0	449	619	
4	0	0	0	0	449	619	
5	0	0	0	0	450	619	
6	0	0	0	0	450	619	
7	0	0	0	0	450	620	
8	0	0	0	0	450	618	
9	0	0	0	0	450	618	
10	0	0	0	0	449	618	
11	0	0	0	0	450	618	
12	0	0	0	0	450	618	
13	0	0	0	0	451	618	
14	0	0	0	0	451	618	
15	0	0	0	0	451	618	
0	0	0	0	0	451	618	
1	0	0	0	0	451	617	
2	0	0	0	0	452	618	
3	0	0	0	0	452	617	
4	0	0	0	0	452	617	
5	0	0	0	0	452	617	
6	0	0	0	0	453	617	
7	0	0	0	0	452	617	
8	0	0	0	0	452	617	
9	0	0	0	0	452	617	
10	0	0	0	0	453	617	
11	0	0	0	0	454	616	
12	0	0	0	0	454	616	
13	0	0	0	0	453	616	
14	0	0	0	0	453	616	
15	0	0	0	0	453	616	
0	0	0	0	0	452	615	
1	0	0	0	0	452	616	
2	0	0	0	0	452	615	
3	0	0	0	0	452	615	
4	0	0	0	0	452	615	
5	0	0	0	0	452	615	
6	0	0	0	0	453	615	
7	0	0	0	0	452	615	
8	0	0	0	0	452	615	
9	0	0	0	0	452	615	
10	0	0	0	0	452	615	
11	0	0	0	0	452	615	
12	0	0	0	0	452	615	
13	0	0	0	0	452	615	
14	0	0	0	0	452	615	
15	0	0	0	0	451	615	
0	0	0	0	0	451	615	
1	0	0	0	0	451	615	
2	0	0	0	0	450	615	
3	0	0	0	0	450	616	
4	0	0	0	0	449	615	
5	0	0	0	0	449	616	
6	0	0	0	0	448	615	
7	0	0	0	0	448	616	
8	0	0	0	0	447	616	
9	0	0	0	0	447	617	
10	0	0	0	0	447	617	
11	0	0	0	0	448	616	
12	0	0	0	0	449	616	
13	0	0	0	0	449	617	
14	0	0	0	0	450	617	
15	0	0	0	0	451	618	
0	0	0	0	0	452	618	
1	0	0	0	0	453	618	
2	0	0	0	0	454	619	
3	0	0	0	0	455	618	
4	0	0	0	0	455	618	
5	0	0	0	0	455	618	
6	0	0	0	0	455	618	
7	0	0	0	0	455	619	
8	0	0	0	0	456	619	
9	0	0	0	0	456	619	
10	0	0	0	0	456	619	
11	0	0	0	0	456	619	
12	0	0	0	0	457	620	
13	0	0	0	0	457	620	
14	0	0	0	0	457	620	
15	0	0	0	0	457	620	
0	0	0	0	0	458	620	
1	0	0	0	0	459	620	
2	0	0	0	0	460	620	
3	0	0	0	0	460	621	
4	0	0	0	0	461	620	
5	0	0	0	0	462	620	
6	0	0	0	0	463	620	
7	0	0	0	0	464	620	
8	0	0	0	0	465	620	
9	0	0	0	0	467	620	
10	0	0	0	0	468	620	
11	0	0	0	0	467	619	
12	0	0	0	0	467	619	
13	0	0	0	0	468	619	
14	0	0	0	0	468	619	
15	0	0	0	0	470	619	
0	0	0	0	0	471	619	
1	0	0	0	0	472	619	
2	0	0	0	0	474	619	
3	0	0	0	0	477	618	
4	0	0	0	0	476	618	
5	0	0	0	0	476	618	
6	0	0	0	0	477	619	
7	0	0	0	0	479	619	
8	0	0	0	0	482	618	
9	0	0	0	0	484	617	
10	0	0	0	0	485	617	
11	0	0	0	0	486	617	
12	0	0	0	0	489	617	
13	0	0	0	0	491	617	
14	0	0	0	0	489	617	
15	0	0	0	0	491	617	
0	0	0	0	0	493	617	
1	0	0	0	0	494	616	
2	0	0	0	0	495	616	
3	0	0	0	0	496	616	
4	0	0	0	0	498	617	
5	0	0	0	0	500	617	
6	0	0	0	0	502	617	
7	0	0	0	0	504	618	
8	0	0	0	0	506	617	
9	0	0	0	0	508	617	
10	0	0	0	0	510	617	
11	0	0	0	0	512	617	
12	0	0	0	0	515	617	
13	0	0	0	0	519	617	
14	0	0	0	0	519	617	
15	0	0	0	0	520	618	
0	0	0	0	0	521	617	
1	0	0	0	0	523	617	
2	0	0	0	0	524	617	
3	0	0	0	0	526	617	
4	0	0	0	0	527	617	
5	0	0	0	0	529	617	
6	0	0	0	0	531	617	
7	0	0	0	0	532	618	
8	0	0	0	0	534	617	
9	0	0	0	0	536	617	
10	0	0	0	0	536	617	
11	0	0	0	0	538	616	
12	0	0	0	0	539	617	
13	0	0	0	0	540	616	
14	0	0	0	0	542	616	
15	0	0	0	0	543	616	
0	0	0	0	0	544	616	
1	0	0	0	0	545	616	
2	0	0	0	0	546	616	
3	0	0	0	0	547	616	
4	0	0	0	0	548	616	
5	0	0	0	0	550	615	
6	0	0	0	0	551	615	
7	0	0	0	0	551	616	
8	0	0	0	0	552	615	
9	0	0	0	0	552	615	
10	0	0	0	0	553	615	
11	0	0	0	0	553	615	
12	0	0	0	0	554	615	
13	0	0	0	0	553	615	
14	0	0	0	0	554	615	
15	0	0	0	0	555	615	
0	0	0	0	0	555	615	
1	0	0	0	0	556	615	
2	0	0	0	0	555	615	
3	0	0	0	0	556	615	
4	0	0	0	0	556	615	
5	0	0	0	0	556	615	
6	0	0	0	0	557	615	
7	0	0	0	0	557	615	
8	0	0	0	0	558	616	
9	0	0	0	0	559	616	
10	0	0	0	0	559	616	
11	0	0	0	0	559	616	
12	0	0	0	0	559	616	
13	0	0	0	0	558	616	
14	0	0	0	0	558	616	
15	0	0	0	0	557	616	
0	0	0	0	0	557	616	
1	0	0	0	0	557	617	
2	0	0	0	0	556	617	
3	0	0	0	0	556	617	
4	0	0	0	0	555	617	
5	0	0	0	0	555	617	
6	0	0	0	0	554	617	
7	0	0	0	0	554	617	
8	0	0	0	0	554	617	
9	0	0	0	0	555	617	
10	0	0	0	0	555	617	
11	0	0	0	0	556	617	
12	0	0	0	0	556	617	
13	0	0	0	0	555	617	
14	0	0	0	0	555	617	
15	0	0	0	0	555	619	
0	0	0	0	0	555	618	
1	0	0	0	0	555	618	
2	0	0	0	0	555	618	
3	0	0	0	0	555	618	
4	0	0	0	0	555	618	
5	0	0	0	0	555	618	
6	0	0	0	0	554	618	
7	0	0	0	0	554	618	
8	0	0	0	0	553	618	
9	0	0	0	0	553	618	
10	0	0	0	0	552	618	
11	0	0	0	0	551	618	
12	0	0	0	0	550	617	
13	0	0	0	0	550	617	
14	0	0	0	0	549	618	
15	0	0	0	0	549	618	
0	0	0	0	0	549	617	
1	0	0	0	0	548	617	
2	0	0	0	0	548	617	
3	0	0	0	0	547	617	
4	0	0	0	0	546	618	
5	0	0	0	0	546	617	
6	0	0	0	0	545	618	
7	0	0	0	0	545	618	
8	0	0	0	0	545	617	
9	0	0	0	0	546	617	
10	0	0	0	0	544	617	
11	0	0	0	0	544	617	
12	0	0	0	0	543	617	
13	0	0	0	0	544	617	
14	0	0	0	0	543	617	
15	0	0	0	0	543	618	
0	0	0	0	0	542	617	
1	0	0	0	0	542	617	
2	0	0	0	0	542	617	
3	0	0	0	0	542	617	
4	0	0	0	0	540	617	
5	0	0	0	0	540	617	
6	0	0	0	0	539	618	
7	0	0	0	0	537	618	
8	0	0	0	0	536	617	
9	0	0	0	0	536	617	
10	0	0	0	0	536	617	
11	0	0	0	0	535	617	
12	0	0	0	0	535	617	
13	0	0	0	0	534	617	
14	0	0	0	0	533	618	
15	0	0	0	0	533	617	
0	0	0	0	0	532	618	
1	0	0	0	0	533	617	
2	0	0	0	0	533	618	
3	0	0	0	0	533	618	
4	0	0	0	0	532	618	
5	0	0	0	0	531	618	
6	0	0	0	0	531	619	
7	0	0	0	0	530	619	
8	0	0	0	0	531	619	
9	0	0	0	0	531	618	
10	0	0	0	0	531	618	
11	0	0	0	0	531	618	
12	0	0	0	0	531	618	
13	0	0	0	0	531	618	
14	0	0	0	0	531	619	
15	0	0	0	0	530	619	
0	0	0	0	0	530	619	
1	0	0	0	0	529	619	
2	0	0	0	0	528	619	
3	0	0	0	0	528	619	
4	0	0	0	0	528	618	
5	0	0	0	0	527	619	
6	0	0	0	0	526	618	
7	0	0	0	0	525	619	
8	0	0	0	0	525	619	
9	0	0	0	0	524	617	
10	0	0	0	0	525	618	
11	0	0	0	0	524	617	
12	0	0	0	0	524	617	
13	0	0	0	0	524	617	
14	0	0	0	0	524	616	
15	0	0	0	0	525	617	
0	0	0	0	0	526	616	
1	0	0	0	0	525	616	
2	0	0	0	0	525	616	
3	0	0	0	0	525	615	
4	0	0	0	0	525	617	
5	0	0	0	0	526	617	
6	0	0	0	0	526	617	
7	0	0	0	0	526	616	
8	0	0	0	0	526	616	
9	0	0	0	0	526	616	
10	0	0	0	0	526	616	
11	0	0	0	0	526	616	
12	0	0	0	0	526	616	
13	0	0	0	0	526	616	
14	0	0	0	0	526	617	
15	0	0	0	0	526	616	
0	0	0	0	0	525	616	
1	0	0	0	0	525	616	
2	0	0	0	0	524	616	
3	0	0	0	0	524	616	
4	0	0	0	0	524	616	
5	0	0	0	0	523	616	
6	0	0	0	0	524	615	
7	0	0	0	0	523	616	
8	0	0	0	0	523	616	
9	0	0	0	0	523	615	
10	0	0	0	0	524	615	
11	0	0	0	0	524	615	
12	0	0	0	0	524	615	
13	0	0	0	0	523	615	
14	0	0	0	0	522	615	
15	0	0	0	0	522	615	
0	0	0	0	0	522	615	
1	0	0	0	0	522	615	
2	0	0	0	0	522	615	
3	0	0	0	0	522	615	
4	0	0	0	0	522	615	
5	0	0	0	0	522	615	
6	0	0	0	0	522	615	
7	0	0	0	0	522	615	
8	0	0	0	0	523	615	
9	0	0	0	0	523	615	
10	0	0	0	0	523	615	
11	0	0	0	0	523	615	
12	0	0	0	0	523	615	
13	0	0	0	0	523	615	
14	0	0	0	0	523	615	
15	0	0	0	0	523	615	
0	0	0	0	0	523	615	
1	0	0	0	0	524	616	
2	0	0	0	0	523	616	
3	0	0	0	0	523	616	
4	0	0	0	0	523	616	
5	0	0	0	0	524	617	
6	0	0	0	0	525	617	
7	0	0	0	0	524	617	
8	0	0	0	0	525	616	
9	0	0	0	0	525	617	
10	0	0	0	0	525	617	
11	0	0	0	0	525	617	
12	0	0	0	0	525	617	
13	0	0	0	0	524	617	
14	0	0	0	0	524	618	
15	0	0	0	0	524	618	
0	0	0	0	0	524	618	
1	0	0	0	0	524	618	
2	0	0	0	0	524	618	
3	0	0	0	0	524	618	
4	0	0	0	0	524	617	
5	0	0	0	0	523	618	
6	0	0	0	0	523	618	
7	0	0	0	0	523	619	
8	0	0	0	0	524	619	
9	0	0	0	0	523	619	
10	0	0	0	0	523	619	
11	0	0	0	0	523	619	
12	0	0	0	0	523	619	
13	0	0	0	0	523	619	
14	0	0	0	0	522	619	
15	0	0	0	0	521	620	
0	0	0	0	0	520	619	
1	0	0	0	0	519	619	
2	0	0	0	0	519	619	
3	0	0	0	0	518	619	
4	0	0	0	0	518	619	
5	0	0	0	0	518	620	
6	0	0	0	0	518	620	
7	0	0	0	0	518	620	
8	0	0	0	0	518	620	
9	0	0	0	0	519	620	
10	0	0	0	0	518	620	
11	0	0	0	0	518	620	
12	0	0	0	0	518	620	
13	0	0	0	0	518	620	
14	0	0	0	0	519	620	
15	0	0	0	0	519	620	
0	0	0	0	0	519	620	
1	0	0	0	0	519	620	
2	0	0	0	0	518	620	
3	0	0	0	0	518	620	
4	0	0	0	0	517	620	
5	0	0	0	0	517	620	
6	0	0	0	0	517	619	
7	0	0	0	0	516	620	
8	0	0	0	0	516	619	
9	0	0	0	0	515	619	
10	0	0	0	0	514	619	
11	0	0	0	0	513	618	
12	0	0	0	0	512	619	
13	0	0	0	0	512	619	
14	0	0	0	0	511	618	
15	0	0	0	0	511	619	
0	0	0	0	0	511	617	
1	0	0	0	0	510	618	
2	0	0	0	0	509	617	
3	0	0	0	0	509	617	
4	0	0	0	0	508	617	
5	0	0	0	0	508	616	
6	0	0	0	0	507	616	
7	0	0	0	0	508	617	
8	0	0	0	0	508	616	
9	0	0	0	0	508	617	
10	0	0	0	0	507	616	
11	0	0	0	0	508	616	
12	0	0	0	0	507	616	
13	0	0	0	0	507	616	
14	0	0	0	0	507	616	
15	0	0	0	0	506	616	
0	0	0	0	0	505	616	
1	0	0	0	0	505	616	
2	0	0	0	0	505	616	
3	0	0	0	0	505	617	
4	0	0	0	0	506	617	
5	0	0	0	0	506	616	
6	0	0	0	0	506	616	
7	0	0	0	0	507	617	
8	0	0	0	0	507	617	
9	0	0	0	0	508	616	
10	0	0	0	0	508	616	
11	0	0	0	0	509	616	
12	0	0	0	0	509	616	
13	0	0	0	0	509	616	
14	0	0	0	0	510	616	
15	0	0	0	0	510	616	
0	0	0	0	0	510	616	
1	0	0	0	0	510	615	
2	0	0	0	0	510	615	
3	0	0	0	0	510	615	
4	0	0	0	0	509	615	
5	0	0	0	0	510	616	
6	0	0	0	0	509	616	
7	0	0	0	0	509	616	
8	0	0	0	0	510	616	
9	0	0	0	0	510	616	
10	0	0	0	0	511	617	
11	0	0	0	0	511	616	
12	0	0	0	0	511	616	
13	0	0	0	0	511	616	
14	0	0	0	0	511	616	
15	0	0	0	0	512	617	
0	0	0	0	0	513	617	
1	0	0	0	0	513	616	
2	0	0	0	0	513	617	
3	0	0	0	0	514	616	
4	0	0	0	0	514	617	
5	0	0	0	0	514	618	
6	0	0	0	0	514	617	
7	0	0	0	0	515	617	
8	0	0	0	0	515	617	
9	0	0	0	0	516	617	
10	0	0	0	0	517	617	
11	0	0	0	0	518	616	
12	0	0	0	0	519	617	
13	0	0	0	0	519	617	
14	0	0	0	0	519	617	
15	0	0	0	0	518	617	
0	0	0	0	0	518	617	
1	0	0	0	0	518	617	
2	0	0	0	0	519	617	
3	0	0	0	0	519	616	
4	0	0	0	0	519	617	
5	0	0	0	0	519	617	
6	0	0	0	0	519	617	
7	0	0	0	0	520	617	
8	0	0	0	0	522	617	
9	0	0	0	0	523	617	
10	0	0	0	0	524	617	
11	0	0	0	0	525	617	
12	0	0	0	0	525	617	
13	0	0	0	0	526	617	
14	0	0	0	0	527	617	
15	0	0	0	0	527	618	
0	0	0	0	0	527	617	
1	0	0	0	0	527	616	
2	0	0	0	0	527	617	
3	0	0	0	0	528	617	
4	0	0	0	0	527	617	
5	0	0	0	0	527	617	
6	0	0	0	0	527	617	
7	0	0	0	0	527	617	
8	0	0	0	0	527	617	
9	0	0	0	0	526	617	
10	0	0	0	0	525	617	
11	0	0	0	0	525	616	
12	0	0	0	0	524	617	
13	0	0	0	0	524	616	
14	0	0	0	0	524	617	
15	0	0	0	0	524	617	
0	0	0	0	0	523	616	
1	0	0	0	0	524	616	
2	0	0	0	0	524	616	
3	0	0	0	0	524	616	
4	0	0	0	0	524	616	
5	0	0	0	0	523	616	
6	0	0	0	0	523	617	
7	0	0	0	0	523	616	
8	0	0	0	0	523	616	
9	0	0	0	0	523	616	
10	0	0	0	0	523	616	
11	0	0	0	0	523	615	
12	0	0	0	0	522	616	
13	0	0	0	0	522	616	
14	0	0	0	0	522	616	
15	0	0	0	0	521	616	
0	0	0	0	0	521	616	
1	0	0	0	0	521	617	
2	0	0	0	0	521	616	
3	0	0	0	0	521	616	
4	0	0	0	0	519	616	
5	0	0	0	0	520	617	
6	0	0	0	0	519	617	
7	0	0	0	0	520	617	
8	0	0	0	0	520	616	
9	0	0	0	0	520	616	
10	0	0	0	0	520	615	
11	0	0	0	0	519	616	
12	0	0	0	0	518	616	
13	0	0	0	0	518	616	
14	0	0	0	0	516	616	
15	0	0	0	0	515	617	
0	0	0	0	0	513	616	
1	0	0	0	0	512	616	
2	0	0	0	0	510	616	
3	0	0	0	0	507	617	
4	0	0	0	0	504	616	
5	0	0	0	0	500	617	
6	0	0	0	0	495	616	
7	0	0	0	0	489	616	
8	0	0	0	0	483	616	
9	0	0	0	0	478	617	
10	0	0	0	0	472	617	
11	0	0	0	0	467	618	
12	0	0	0	0	461	617	
13	0	0	0	0	456	617	
14	0	0	0	0	451	617	
15	0	0	0	0	446	619	
0	0	0	0	0	444	619	
1	0	0	0	0	440	618	
2	0	0	0	0	438	619	
3	0	0	0	0	437	619	
4	0	0	0	0	438	619	
5	0	0	0	0	438	619	
6	0	0	0	0	441	619	
7	0	0	0	0	448	619	
8	0	0	0	0	455	620	
9	0	0	0	0	465	619	
10	0	0	0	0	476	620	
11	0	0	0	0	492	620	
12	0	0	0	0	511	620	
13	0	0	0	0	533	620	
14	0	0	0	0	557	620	
15	0	0	0	0	582	620	
0	0	0	0	0	607	619	
1	0	0	0	0	633	619	
2	0	0	0	0	661	619	
3	0	0	0	0	688	619	
4	0	0	0	0	710	619	
5	0	0	0	0	729	618	
6	0	0	0	0	743	618	
7	0	0	0	0	756	619	
8	0	0	0	0	767	619	
9	0	0	0	0	777	618	
10	0	0	0	0	786	618	
11	0	0	0	0	792	618	
12	0	0	0	0	797	619	
13	0	0	0	0	797	617	
14	0	0	0	0	797	617	
15	0	0	0	0	797	618	
0	0	0	0	0	793	617	
1	0	0	0	0	784	618	
2	0	0	0	0	769	617	
3	0	0	0	0	750	618	
4	0	0	0	0	729	617	
5	0	0	0	0	706	617	
6	0	0	0	0	685	617	
7	0	0	0	0	665	617	
8	0	0	0	0	646	617	
9	0	0	0	0	630	617	
10	0	0	0	0	614	616	
11	0	0	0	0	600	616	
12	0	0	0	0	587	616	
13	0	0	0	0	575	617	
14	0	0	0	0	563	616	
15	0	0	0	0	552	617	
0	0	0	0	0	543	616	
1	0	0	0	0	532	617	
2	0	0	0	0	523	617	
3	0	0	0	0	513	617	
4	0	0	0	0	505	616	
5	0	0	0	0	498	617	
6	0	0	0	0	491	617	
7	0	0	0	0	485	616	
8	0	0	0	0	480	616	
9	0	0	0	0	476	616	
10	0	0	0	0	472	617	
11	0	0	0	0	468	617	
12	0	0	0	0	465	617	
13	0	0	0	0	462	616	
14	0	0	0	0	459	617	
15	0	0	0	0	456	617	
0	0	0	0	0	454	616	
1	0	0	0	0	451	616	
2	0	0	0	0	448	616	
3	0	0	0	0	446	616	
4	0	0	0	0	445	615	
5	0	0	0	0	443	616	
6	0	0	0	0	441	616	
7	0	0	0	0	440	616	
8	0	0	0	0	439	615	
9	0	0	0	0	439	616	
10	0	0	0	0	438	616	
11	0	0	0	0	438	616	
12	0	0	0	0	437	616	
13	0	0	0	0	436	616	
14	0	0	0	0	436	616	
15	0	0	0	0	436	617	
0	0	0	0	0	437	616	
1	0	0	0	0	437	615	
2	0	0	0	0	437	616	
3	0	0	0	0	437	616	
4	0	0	0	0	437	616	
5	0	0	0	0	436	616	
6	0	0	0	0	436	617	
7	0	0	0	0	436	617	
8	0	0	0	0	436	617	
9	0	0	0	0	437	617	
10	0	0	0	0	437	617	
11	0	0	0	0	438	617	
12	0	0	0	0	437	616	
13	0	0	0	0	437	617	
14	0	0	0	0	438	617	
15	0	0	0	0	438	617	
0	0	0	0	0	438	617	
1	0	0	0	0	439	617	
2	0	0	0	0	439	617	
3	0	0	0	0	439	616	
4	0	0	0	0	440	616	
5	0	0	0	0	441	617	
6	0	0	0	0	441	617	
7	0	0	0	0	441	617	
8	0	0	0	0	442	617	
9	0	0	0	0	442	616	
10	0	0	0	0	443	616	
11	0	0	0	0	443	616	
12	0	0	0	0	443	617	
13	0	0	0	0	442	617	
14	0	0	0	0	443	617	
15	0	0	0	0	443	617	
0	0	0	0	0	443	616	
1	0	0	0	0	443	616	
2	0	0	0	0	443	616	
3	0	0	0	0	444	616	
4	0	0	0	0	444	617	
5	0	0	0	0	444	616	
6	0	0	0	0	444	616	
7	0	0	0	0	444	617	
8	0	0	0	0	445	617	
9	0	0	0	0	445	617	
10	0	0	0	0	445	617	
11	0	0	0	0	446	617	
12	0	0	0	0	446	617	
13	0	0	0	0	446	618	
14	0	0	0	0	447	617	
15	0	0	0	0	447	618	
0	0	0	0	0	447	617	
1	0	0	0	0	447	618	
2	0	0	0	0	447	618	
3	0	0	0	0	447	618	
4	0	0	0	0	447	618	
5	0	0	0	0	446	618	
6	0	0	0	0	447	618	
7	0	0	0	0	447	618	
8	0	0	0	0	447	618	
9	0	0	0	0	448	618	
10	0	0	0	0	448	619	
11	0	0	0	0	448	618	
12	0	0	0	0	449	618	
13	0	0	0	0	449	618	
14	0	0	0	0	449	618	
15	0	0	0	0	450	619	
0	0	0	0	0	450	618	
1	0	0	0	0	450	619	
2	0	0	0	0	450	619	
3	0	0	0	0	450	619	
4	0	0	0	0	450	619	
5	0	0	0	0	450	619	
6	0	0	0	0	451	619	
7	0	0	0	0	450	620	
8	0	0	0	0	450	619	
9	0	0	0	0	451	619	
10	0	0	0	0	451	618	
11	0	0	0	0	451	619	
12	0	0	0	0	452	619	
13	0	0	0	0	451	619	
14	0	0	0	0	452	619	
15	0	0	0	0	452	619	
0	0	0	0	0	452	619	
1	0	0	0	0	452	619	
2	0	0	0	0	452	619	
3	0	0	0	0	451	619	
4	0	0	0	0	451	619	
5	0	0	0	0	451	619	
6	0	0	0	0	451	618	
7	0	0	0	0	450	619	
8	0	0	0	0	450	619	
9	0	0	0	0	449	619	
10	0	0	0	0	449	619	
11	0	0	0	0	449	617	
12	0	0	0	0	450	617	
13	0	0	0	0	450	618	
14	0	0	0	0	450	618	
15	0	0	0	0	450	617	
0	0	0	0	0	451	617	
1	0	0	0	0	450	616	
2	0	0	0	0	450	616	
3	0	0	0	0	450	616	
4	0	0	0	0	450	617	
5	0	0	0	0	450	616	
6	0	0	0	0	450	617	
7	0	0	0	0	450	617	
8	0	0	0	0	450	616	
9	0	0	0	0	449	616	
10	0	0	0	0	448	616	
11	0	0	0	0	448	616	
12	0	0	0	0	448	616	
13	0	0	0	0	447	615	
14	0	0	0	0	447	615	
15	0	0	0	0	448	615	
0	0	0	0	0	448	615	
1	0	0	0	0	448	616	
2	0	0	0	0	448	616	
3	0	0	0	0	448	616	
4	0	0	0	0	448	616	
5	0	0	0	0	448	616	
6	0	0	0	0	448	616	
7	0	0	0	0	448	617	
8	0	0	0	0	448	616	
9	0	0	0	0	449	617	
10	0	0	0	0	449	616	
11	0	0	0	0	449	616	
12	0	0	0	0	450	615	
13	0	0	0	0	450	615	
14	0	0	0	0	450	616	
15	0	0	0	0	451	616	
0	0	0	0	0	450	616	
1	0	0	0	0	451	616	
2	0	0	0	0	451	616	
3	0	0	0	0	451	616	
4	0	0	0	0	452	616	
5	0	0	0	0	453	616	
6	0	0	0	0	454	615	
7	0	0	0	0	454	615	
8	0	0	0	0	455	615	
9	0	0	0	0	455	615	
10	0	0	0	0	456	616	
11	0	0	0	0	456	616	
12	0	0	0	0	457	615	
13	0	0	0	0	457	616	
14	0	0	0	0	458	615	
15	0	0	0	0	459	616	
0	0	0	0	0	459	617	
1	0	0	0	0	460	617	
2	0	0	0	0	461	617	
3	0	0	0	0	462	617	
4	0	0	0	0	462	618	
5	0	0	0	0	463	617	
6	0	0	0	0	464	617	
7	0	0	0	0	464	618	
8	0	0	0	0	466	618	
9	0	0	0	0	467	618	
10	0	0	0	0	469	619	
11	0	0	0	0	471	618	
12	0	0	0	0	472	618	
13	0	0	0	0	473	617	
14	0	0	0	0	475	618	
15	0	0	0	0	476	618	
0	0	0	0	0	478	618	
1	0	0	0	0	480	618	
2	0	0	0	0	481	618	
3	0	0	0	0	482	618	
4	0	0	0	0	484	618	
5	0	0	0	0	486	618	
6	0	0	0	0	487	618	
7	0	0	0	0	489	618	
8	0	0	0	0	491	618	
9	0	0	0	0	493	618	
10	0	0	0	0	495	618	
11	0	0	0	0	496	618	
12	0	0	0	0	498	616	
13	0	0	0	0	501	617	
14	0	0	0	0	503	617	
15	0	0	0	0	506	618	
0	0	0	0	0	508	617	
1	0	0	0	0	510	617	
2	0	0	0	0	512	617	
3	0	0	0	0	514	618	
4	0	0	0	0	516	618	
5	0	0	0	0	519	618	
6	0	0	0	0	521	617	
7	0	0	0	0	524	618	
8	0	0	0	0	526	617	
9	0	0	0	0	529	618	
10	0	0	0	0	531	617	
11	0	0	0	0	532	617	
12	0	0	0	0	534	617	
13	0	0	0	0	536	617	
14	0	0	0	0	538	617	
15	0	0	0	0	539	618	
0	0	0	0	0	541	617	
1	0	0	0	0	543	617	
2	0	0	0	0	544	616	
3	0	0	0	0	545	616	
4	0	0	0	0	547	616	
5	0	0	0	0	550	616	
6	0	0	0	0	551	616	
7	0	0	0	0	552	616	
8	0	0	0	0	554	615	
9	0	0	0	0	555	615	
10	0	0	0	0	555	616	
11	0	0	0	0	556	616	
12	0	0	0	0	557	616	
13	0	0	0	0	559	615	
14	0	0	0	0	560	616	
15	0	0	0	0	560	615	
0	0	0	0	0	561	615	
1	0	0	0	0	562	616	
2	0	0	0	0	563	615	
3	0	0	0	0	564	615	
4	0	0	0	0	565	615	
5	0	0	0	0	566	615	
6	0	0	0	0	567	615	
7	0	0	0	0	567	616	
8	0	0	0	0	566	615	
9	0	0	0	0	567	615	
10	0	0	0	0	567	615	
11	0	0	0	0	567	615	
12	0	0	0	0	568	615	
13	0	0	0	0	568	616	
14	0	0	0	0	568	615	
15	0	0	0	0	568	616	
0	0	0	0	0	568	615	
1	0	0	0	0	568	616	
2	0	0	0	0	567	615	
3	0	0	0	0	567	616	
4	0	0	0	0	567	616	
5	0	0	0	0	567	617	
6	0	0	0	0	567	617	
7	0	0	0	0	566	617	
8	0	0	0	0	566	617	
9	0	0	0	0	566	617	
10	0	0	0	0	565	616	
11	0	0	0	0	564	617	
12	0	0	0	0	564	617	
13	0	0	0	0	564	617	
14	0	0	0	0	563	617	
15	0	0	0	0	564	618	
0	0	0	0	0	564	618	
1	0	0	0	0	564	618	
2	0	0	0	0	563	618	
3	0	0	0	0	563	618	
4	0	0	0	0	563	617	
5	0	0	0	0	563	618	
6	0	0	0	0	563	618	
7	0	0	0	0	563	618	
8	0	0	0	0	562	618	
9	0	0	0	0	560	618	
10	0	0	0	0	560	618	
11	0	0	0	0	558	618	
12	0	0	0	0	558	618	
13	0	0	0	0	557	619	
14	0	0	0	0	557	618	
15	0	0	0	0	557	619	
0	0	0	0	0	556	619	
1	0	0	0	0	556	619	
2	0	0	0	0	555	619	
3	0	0	0	0	554	619	
4	0	0	0	0	553	619	
5	0	0	0	0	553	619	
6	0	0	0	0	552	619	
7	0	0	0	0	551	620	
8	0	0	0	0	550	619	
9	0	0	0	0	549	619	
10	0	0	0	0	549	619	
11	0	0	0	0	548	619	
12	0	0	0	0	547	619	
13	0	0	0	0	547	619	
14	0	0	0	0	546	620	
15	0	0	0	0	545	620	
0	0	0	0	0	544	619	
1	0	0	0	0	544	620	
2	0	0	0	0	543	619	
3	0	0	0	0	543	618	
4	0	0	0	0	543	618	
5	0	0	0	0	542	619	
6	0	0	0	0	542	620	
7	0	0	0	0	541	619	
8	0	0	0	0	541	619	
9	0	0	0	0	540	619	
10	0	0	0	0	540	619	
11	0	0	0	0	540	619	
12	0	0	0	0	539	618	
13	0	0	0	0	538	618	
14	0	0	0	0	537	617	
15	0	0	0	0	537	617	
0	0	0	0	0	536	617	
1	0	0	0	0	536	617	
2	0	0	0	0	535	617	
3	0	0	0	0	535	617	
4	0	0	0	0	534	616	
5	0	0	0	0	534	617	
6	0	0	0	0	534	616	
7	0	0	0	0	533	617	
8	0	0	0	0	533	616	
9	0	0	0	0	533	615	
10	0	0	0	0	533	616	
11	0	0	0	0	532	615	
12	0	0	0	0	532	615	
13	0	0	0	0	531	615	
14	0	0	0	0	531	615	
15	0	0	0	0	530	616	
0	0	0	0	0	530	616	
1	0	0	0	0	529	615	
2	0	0	0	0	529	616	
3	0	0	0	0	528	615	
4	0	0	0	0	528	616	
5	0	0	0	0	527	615	
6	0	0	0	0	527	616	
7	0	0	0	0	527	616	
8	0	0	0	0	527	615	
9	0	0	0	0	527	615	
10	0	0	0	0	527	615	
11	0	0	0	0	526	616	
12	0	0	0	0	527	615	
13	0	0	0	0	526	616	
14	0	0	0	0	526	615	
15	0	0	0	0	526	616	
0	0	0	0	0	526	616	
1	0	0	0	0	525	616	
2	0	0	0	0	525	616	
3	0	0	0	0	525	617	
4	0	0	0	0	524	617	
5	0	0	0	0	524	616	
6	0	0	0	0	524	616	
7	0	0	0	0	523	617	
8	0	0	0	0	524	616	
9	0	0	0	0	524	617	
10	0	0	0	0	524	616	
11	0	0	0	0	524	617	
12	0	0	0	0	524	617	
13	0	0	0	0	525	617	
14	0	0	0	0	525	617	
15	0	0	0	0	524	617	
0	0	0	0	0	525	616	
1	0	0	0	0	525	617	
2	0	0	0	0	525	617	
3	0	0	0	0	525	617	
4	0	0	0	0	525	617	
5	0	0	0	0	526	617	
6	0	0	0	0	526	617	
7	0	0	0	0	526	618	
8	0	0	0	0	526	618	
9	0	0	0	0	526	618	
10	0	0	0	0	526	618	
11	0	0	0	0	526	618	
12	0	0	0	0	526	618	
13	0	0	0	0	525	618	
14	0	0	0	0	525	618	
15	0	0	0	0	525	619	
0	0	0	0	0	525	618	
1	0	0	0	0	525	619	
2	0	0	0	0	525	618	
3	0	0	0	0	525	619	
4	0	0	0	0	526	618	
5	0	0	0	0	525	619	
6	0	0	0	0	526	618	
7	0	0	0	0	526	619	
8	0	0	0	0	527	618	
9	0	0	0	0	527	618	
10	0	0	0	0	527	618	
11	0	0	0	0	528	618	
12	0	0	0	0	528	618	
13	0	0	0	0	527	618	
14	0	0	0	0	527	618	
15	0	0	0	0	527	618	
0	0	0	0	0	527	618	
1	0	0	0	0	527	618	
2	0	0	0	0	528	619	
3	0	0	0	0	527	618	
4	0	0	0	0	527	617	
5	0	0	0	0	527	617	
6	0	0	0	0	527	617	
7	0	0	0	0	528	617	
8	0	0	0	0	527	617	
9	0	0	0	0	528	617	
10	0	0	0	0	528	617	
11	0	0	0	0	529	616	
12	0	0	0	0	529	617	
13	0	0	0	0	529	617	
14	0	0	0	0	529	616	
15	0	0	0	0	529	617	
0	0	0	0	0	528	616	
1	0	0	0	0	528	616	
2	0	0	0	0	529	616	
3	0	0	0	0	528	616	
4	0	0	0	0	528	617	
5	0	0	0	0	528	616	
6	0	0	0	0	528	616	
7	0	0	0	0	528	617	
8	0	0	0	0	528	616	
9	0	0	0	0	529	616	
10	0	0	0	0	529	616	
11	0	0	0	0	529	616	
12	0	0	0	0	528	616	
13	0	0	0	0	528	616	
14	0	0	0	0	529	616	
15	0	0	0	0	529	616	
0	0	0	0	0	529	616	
1	0	0	0	0	529	616	
2	0	0	0	0	528	615	
3	0	0	0	0	529	616	
4	0	0	0	0	528	615	
5	0	0	0	0	528	615	
6	0	0	0	0	528	615	
7	0	0	0	0	527	615	
8	0	0	0	0	527	616	
9	0	0	0	0	527	615	
10	0	0	0	0	526	615	
11	0	0	0	0	526	615	
12	0	0	0	0	526	615	
13	0	0	0	0	526	615	
14	0	0	0	0	525	615	
15	0	0	0	0	525	615	
0	0	0	0	0	526	614	
1	0	0	0	0	526	615	
2	0	0	0	0	526	615	
3	0	0	0	0	526	615	
4	0	0	0	0	526	615	
5	0	0	0	0	525	615	
6	0	0	0	0	525	615	
7	0	0	0	0	525	616	
8	0	0	0	0	525	615	
9	0	0	0	0	526	615	
10	0	0	0	0	526	615	
11	0	0	0	0	526	615	
12	0	0	0	0	526	616	
13	0	0	0	0	525	616	
14	0	0	0	0	525	616	
15	0	0	0	0	525	616	
0	0	0	0	0	525	616	
1	0	0	0	0	524	616	
2	0	0	0	0	524	616	
3	0	0	0	0	524	616	
4	0	0	0	0	523	616	
5	0	0	0	0	522	616	
6	0	0	0	0	522	617	
7	0	0	0	0	521	617	
8	0	0	0	0	521	617	
9	0	0	0	0	520	617	
10	0	0	0	0	519	617	
11	0	0	0	0	519	617	
12	0	0	0	0	518	617	
13	0	0	0	0	517	617	
14	0	0	0	0	515	617	
15	0	0	0	0	514	617	
0	0	0	0	0	512	618	
1	0	0	0	0	512	617	
2	0	0	0	0	512	618	
3	0	0	0	0	512	617	
4	0	0	0	0	511	617	
5	0	0	0	0	512	618	
6	0	0	0	0	512	618	
7	0	0	0	0	512	619	
8	0	0	0	0	512	618	
9	0	0	0	0	513	617	
10	0	0	0	0	512	618	
11	0	0	0	0	512	617	
12	0	0	0	0	511	618	
13	0	0	0	0	510	618	
14	0	0	0	0	509	617	
15	0	0	0	0	510	619	
0	0	0	0	0	509	618	
1	0	0	0	0	510	618	
2	0	0	0	0	510	619	
3	0	0	0	0	511	618	
4	0	0	0	0	511	618	
5	0	0	0	0	511	619	
6	0	0	0	0	511	619	
7	0	0	0	0	511	620	
8	0	0	0	0	511	619	
9	0	0	0	0	511	619	
10	0	0	0	0	512	619	
11	0	0	0	0	513	619	
12	0	0	0	0	513	619	
13	0	0	0	0	514	619	
14	0	0	0	0	515	620	
15	0	0	0	0	515	620	
0	0	0	0	0	515	619	
1	0	0	0	0	515	619	
2	0	0	0	0	515	619	
3	0	0	0	0	515	620	
4	0	0	0	0	515	619	
5	0	0	0	0	515	619	
6	0	0	0	0	516	619	
7	0	0	0	0	516	619	
8	0	0	0	0	517	619	
9	0	0	0	0	516	618	
10	0	0	0	0	517	618	
11	0	0	0	0	517	618	
12	0	0	0	0	517	618	
13	0	0	0	0	518	618	
14	0	0	0	0	519	618	
15	0	0	0	0	519	617	
0	0	0	0	0	519	617	
1	0	0	0	0	519	617	
2	0	0	0	0	519	617	
3	0	0	0	0	519	617	
4	0	0	0	0	520	617	
5	0	0	0	0	521	616	
6	0	0	0	0	522	617	
7	0	0	0	0	523	617	
8	0	0	0	0	523	616	
9	0	0	0	0	523	616	
10	0	0	0	0	523	616	
11	0	0	0	0	523	616	
12	0	0	0	0	523	617	
13	0	0	0	0	522	616	
14	0	0	0	0	522	616	
15	0	0	0	0	522	617	
0	0	0	0	0	521	616	
1	0	0	0	0	521	616	
2	0	0	0	0	520	617	
3	0	0	0	0	521	617	
4	0	0	0	0	522	617	
5	0	0	0	0	523	617	
6	0	0	0	0	523	617	
7	0	0	0	0	524	617	
8	0	0	0	0	524	617	
9	0	0	0	0	524	618	
10	0	0	0	0	524	617	
11	0	0	0	0	525	617	
12	0	0	0	0	525	617	
13	0	0	0	0	525	618	
14	0	0	0	0	525	617	
15	0	0	0	0	525	617	
0	0	0	0	0	525	617	
1	0	0	0	0	525	617	
2	0	0	0	0	525	617	
3	0	0	0	0	525	617	
4	0	0	0	0	525	617	
5	0	0	0	0	526	618	
6	0	0	0	0	526	617	
7	0	0	0	0	527	618	
8	0	0	0	0	527	617	
9	0	0	0	0	527	617	
10	0	0	0	0	527	617	
11	0	0	0	0	526	617	
12	0	0	0	0	526	617	
13	0	0	0	0	526	617	
14	0	0	0	0	525	617	
15	0	0	0	0	526	617	
0	0	0	0	0	525	617	
1	0	0	0	0	525	616	
2	0	0	0	0	524	617	
3	0	0	0	0	524	616	
4	0	0	0	0	524	617	
5	0	0	0	0	524	617	
6	0	0	0	0	524	617	
7	0	0	0	0	524	617	
8	0	0	0	0	524	617	
9	0	0	0	0	524	617	
10	0	0	0	0	524	616	
11	0	0	0	0	524	616	
12	0	0	0	0	524	616	
13	0	0	0	0	524	616	
14	0	0	0	0	524	617	
15	0	0	0	0	523	617	
0	0	0	0	0	523	616	
1	0	0	0	0	522	616	
2	0	0	0	0	521	616	
3	0	0	0	0	521	616	
4	0	0	0	0	520	616	
5	0	0	0	0	520	616	
6	0	0	0	0	520	616	
7	0	0	0	0	520	617	
8	0	0	0	0	519	617	
9	0	0	0	0	519	616	
10	0	0	0	0	518	616	
11	0	0	0	0	516	616	
12	0	0	0	0	515	616	
13	0	0	0	0	514	616	
14	0	0	0	0	513	616	
15	0	0	0	0	512	616	
0	0	0	0	0	510	616	
1	0	0	0	0	507	616	
2	0	0	0	0	504	617	
3	0	0	0	0	500	616	
4	0	0	0	0	496	616	
5	0	0	0	0	490	617	
6	0	0	0	0	483	617	
7	0	0	0	0	477	617	
8	0	0	0	0	470	616	
9	0	0	0	0	465	617	
10	0	0	0	0	460	617	
11	0	0	0	0	454	617	
12	0	0	0	0	449	617	
13	0	0	0	0	446	617	
14	0	0	0	0	443	616	
15	0	0	0	0	441	617	
0	0	0	0	0	441	617	
1	0	0	0	0	442	617	
2	0	0	0	0	444	617	
3	0	0	0	0	447	617	
4	0	0	0	0	452	616	
5	0	0	0	0	461	617	
6	0	0	0	0	471	617	
7	0	0	0	0	483	617	
8	0	0	0	0	497	617	
9	0	0	0	0	515	617	
10	0	0	0	0	538	617	
11	0	0	0	0	563	616	
12	0	0	0	0	588	616	
13	0	0	0	0	613	616	
14	0	0	0	0	640	616	
15	0	0	0	0	667	616	
0	0	0	0	0	696	617	
1	0	0	0	0	722	616	
2	0	0	0	0	745	616	
3	0	0	0	0	764	616	
4	0	0	0	0	779	616	
5	0	0	0	0	792	616	
6	0	0	0	0	803	616	
7	0	0	0	0	813	616	
8	0	0	0	0	821	616	
9	0	0	0	0	826	616	
10	0	0	0	0	829	616	
11	0	0	0	0	826	616	
12	0	0	0	0	822	616	
13	0	0	0	0	818	616	
14	0	0	0	0	812	616	
15	0	0	0	0	802	618	
0	0	0	0	0	783	617	
1	0	0	0	0	761	617	
2	0	0	0	0	737	617	
3	0	0	0	0	711	617	
4	0	0	0	0	688	617	
5	0	0	0	0	665	617	
6	0	0	0	0	645	617	
7	0	0	0	0	627	618	
8	0	0	0	0	611	617	
9	0	0	0	0	596	617	
10	0	0	0	0	582	618	
11	0	0	0	0	569	618	
12	0	0	0	0	556	618	
13	0	0	0	0	544	617	
14	0	0	0	0	533	617	
15	0	0	0	0	521	618	
0	0	0	0	0	511	617	
1	0	0	0	0	502	617	
2	0	0	0	0	493	617	
3	0	0	0	0	485	618	
4	0	0	0	0	478	617	
5	0	0	0	0	472	617	
6	0	0	0	0	466	617	
7	0	0	0	0	461	617	
8	0	0	0	0	456	617	
9	0	0	0	0	452	617	
10	0	0	0	0	448	617	
11	0	0	0	0	444	617	
12	0	0	0	0	440	617	
13	0	0	0	0	438	617	
14	0	0	0	0	435	616	
15	0	0	0	0	433	617	
0	0	0	0	0	431	616	
1	0	0	0	0	430	617	
2	0	0	0	0	428	617	
3	0	0	0	0	427	616	
4	0	0	0	0	426	617	
5	0	0	0	0	425	617	
6	0	0	0	0	424	617	
7	0	0	0	0	424	617	
8	0	0	0	0	423	617	
9	0	0	0	0	423	618	
10	0	0	0	0	423	618	
11	0	0	0	0	422	618	
12	0	0	0	0	423	618	
13	0	0	0	0	423	618	
14	0	0	0	0	423	619	
15	0	0	0	0	423	619	
0	0	0	0	0	423	618	
1	0	0	0	0	423	618	
2	0	0	0	0	425	618	
3	0	0	0	0	425	619	
4	0	0	0	0	425	617	
5	0	0	0	0	426	619	
6	0	0	0	0	427	619	
7	0	0	0	0	427	619	
8	0	0	0	0	427	618	
9	0	0	0	0	428	618	
10	0	0	0	0	428	617	
11	0	0	0	0	428	618	
12	0	0	0	0	429	617	
13	0	0	0	0	430	617	
14	0	0	0	0	431	617	
15	0	0	0	0	431	617	
0	0	0	0	0	432	616	
1	0	0	0	0	432	617	
2	0	0	0	0	433	617	
3	0	0	0	0	433	616	
4	0	0	0	0	434	616	
5	0	0	0	0	434	616	
6	0	0	0	0	435	616	
7	0	0	0	0	435	617	
8	0	0	0	0	435	616	
9	0	0	0	0	436	616	
10	0	0	0	0	436	616	
11	0	0	0	0	437	616	
12	0	0	0	0	438	616	
13	0	0	0	0	439	616	
14	0	0	0	0	439	615	
15	0	0	0	0	439	616	
0	0	0	0	0	439	616	
1	0	0	0	0	440	617	
2	0	0	0	0	440	616	
3	0	0	0	0	439	616	
4	0	0	0	0	439	616	
5	0	0	0	0	439	616	
6	0	0	0	0	439	616	
7	0	0	0	0	440	617	
8	0	0	0	0	440	616	
9	0	0	0	0	440	617	
10	0	0	0	0	440	616	
11	0	0	0	0	440	617	
12	0	0	0	0	440	617	
13	0	0	0	0	441	616	
14	0	0	0	0	441	617	
15	0	0	0	0	441	617	
0	0	0	0	0	442	617	
1	0	0	0	0	443	617	
2	0	0	0	0	443	616	
3	0	0	0	0	444	616	
4	0	0	0	0	444	617	
5	0	0	0	0	444	617	
6	0	0	0	0	444	617	
7	0	0	0	0	444	617	
8	0	0	0	0	444	617	
9	0	0	0	0	444	617	
10	0	0	0	0	445	617	
11	0	0	0	0	445	617	
12	0	0	0	0	445	617	
13	0	0	0	0	446	619	
14	0	0	0	0	446	618	
15	0	0	0	0	446	618	
0	0	0	0	0	446	619	
1	0	0	0	0	447	618	
2	0	0	0	0	448	619	
3	0	0	0	0	448	619	
4	0	0	0	0	448	619	
5	0	0	0	0	448	618	
6	0	0	0	0	448	617	
7	0	0	0	0	448	618	
8	0	0	0	0	448	618	
9	0	0	0	0	448	618	
10	0	0	0	0	447	617	
11	0	0	0	0	447	617	
12	0	0	0	0	447	617	
13	0	0	0	0	446	617	
14	0	0	0	0	446	617	
15	0	0	0	0	446	617	
0	0	0	0	0	446	617	
1	0	0	0	0	447	617	
2	0	0	0	0	447	617	
3	0	0	0	0	447	616	
4	0	0	0	0	447	617	
5	0	0	0	0	447	616	
6	0	0	0	0	447	616	
7	0	0	0	0	447	617	
8	0	0	0	0	447	616	
9	0	0	0	0	447	616	
10	0	0	0	0	447	616	
11	0	0	0	0	447	616	
12	0	0	0	0	447	616	
13	0	0	0	0	447	615	
14	0	0	0	0	447	616	
15	0	0	0	0	447	616	
0	0	0	0	0	448	615	
1	0	0	0	0	447	616	
2	0	0	0	0	446	616	
3	0	0	0	0	446	616	
4	0	0	0	0	446	615	
5	0	0	0	0	446	615	
6	0	0	0	0	446	615	
7	0	0	0	0	445	616	
8	0	0	0	0	446	615	
9	0	0	0	0	445	615	
10	0	0	0	0	445	615	
11	0	0	0	0	445	615	
12	0	0	0	0	445	616	
13	0	0	0	0	444	616	
14	0	0	0	0	444	615	
15	0	0	0	0	444	617	
0	0	0	0	0	444	616	
1	0	0	0	0	444	616	
2	0	0	0	0	444	617	
3	0	0	0	0	444	616	
4	0	0	0	0	444	617	
5	0	0	0	0	444	618	
6	0	0	0	0	443	617	
7	0	0	0	0	443	618	
8	0	0	0	0	443	617	
9	0	0	0	0	444	619	
10	0	0	0	0	443	618	
11	0	0	0	0	444	618	
12	0	0	0	0	444	618	
13	0	0	0	0	445	618	
14	0	0	0	0	446	619	
15	0	0	0	0	447	619	
0	0	0	0	0	447	618	
1	0	0	0	0	447	618	
2	0	0	0	0	446	619	
3	0	0	0	0	447	618	
4	0	0	0	0	447	619	
5	0	0	0	0	448	619	
6	0	0	0	0	449	618	
7	0	0	0	0	450	619	
8	0	0	0	0	451	619	
9	0	0	0	0	451	619	
10	0	0	0	0	453	618	
11	0	0	0	0	454	618	
12	0	0	0	0	455	618	
13	0	0	0	0	455	619	
14	0	0	0	0	456	619	
15	0	0	0	0	457	618	
0	0	0	0	0	459	618	
1	0	0	0	0	459	618	
2	0	0	0	0	461	618	
3	0	0	0	0	462	618	
4	0	0	0	0	463	617	
5	0	0	0	0	465	617	
6	0	0	0	0	465	617	
7	0	0	0	0	466	618	
8	0	0	0	0	467	618	
9	0	0	0	0	468	617	
10	0	0	0	0	470	617	
11	0	0	0	0	471	617	
12	0	0	0	0	472	617	
13	0	0	0	0	474	617	
14	0	0	0	0	476	617	
15	0	0	0	0	478	618	
0	0	0	0	0	480	617	
1	0	0	0	0	481	618	
2	0	0	0	0	483	617	
3	0	0	0	0	484	617	
4	0	0	0	0	486	617	
5	0	0	0	0	487	617	
6	0	0	0	0	490	617	
7	0	0	0	0	492	617	
8	0	0	0	0	494	616	
9	0	0	0	0	496	617	
10	0	0	0	0	498	617	
11	0	0	0	0	501	617	
12	0	0	0	0	503	617	
13	0	0	0	0	505	617	
14	0	0	0	0	508	617	
15	0	0	0	0	511	617	
0	0	0	0	0	513	618	
1	0	0	0	0	515	618	
2	0	0	0	0	517	617	
3	0	0	0	0	519	617	
4	0	0	0	0	521	617	
5	0	0	0	0	524	617	
6	0	0	0	0	526	616	
7	0	0	0	0	527	617	
8	0	0	0	0	529	616	
9	0	0	0	0	531	617	
10	0	0	0	0	533	616	
11	0	0	0	0	535	617	
12	0	0	0	0	536	617	
13	0	0	0	0	537	617	
14	0	0	0	0	539	616	
15	0	0	0	0	541	616	
0	0	0	0	0	542	615	
1	0	0	0	0	543	615	
2	0	0	0	0	544	616	
3	0	0	0	0	545	616	
4	0	0	0	0	547	616	
5	0	0	0	0	548	615	
6	0	0	0	0	550	615	
7	0	0	0	0	551	616	
8	0	0	0	0	553	615	
9	0	0	0	0	555	615	
10	0	0	0	0	556	615	
11	0	0	0	0	558	615	
12	0	0	0	0	559	615	
13	0	0	0	0	560	615	
14	0	0	0	0	562	616	
15	0	0	0	0	562	616	
0	0	0	0	0	562	615	
1	0	0	0	0	563	615	
2	0	0	0	0	563	615	
3	0	0	0	0	564	615	
4	0	0	0	0	564	616	
5	0	0	0	0	565	616	
6	0	0	0	0	566	616	
7	0	0	0	0	566	616	
8	0	0	0	0	566	616	
9	0	0	0	0	566	617	
10	0	0	0	0	567	617	
11	0	0	0	0	567	617	
12	0	0	0	0	567	617	
13	0	0	0	0	567	617	
14	0	0	0	0	568	617	
15	0	0	0	0	568	617	
0	0	0	0	0	568	617	
1	0	0	0	0	568	617	
2	0	0	0	0	568	617	
3	0	0	0	0	568	617	
4	0	0	0	0	567	618	
5	0	0	0	0	566	618	
6	0	0	0	0	566	618	
7	0	0	0	0	565	618	
8	0	0	0	0	565	616	
9	0	0	0	0	565	617	
10	0	0	0	0	566	618	
11	0	0	0	0	565	617	
12	0	0	0	0	565	618	
13	0	0	0	0	565	618	
14	0	0	0	0	564	617	
15	0	0	0	0	564	618	
0	0	0	0	0	564	618	
1	0	0	0	0	563	617	
2	0	0	0	0	563	618	
3	0	0	0	0	562	617	
4	0	0	0	0	562	617	
5	0	0	0	0	561	617	
6	0	0	0	0	561	618	
7	0	0	0	0	561	618	
8	0	0	0	0	560	617	
9	0	0	0	0	560	617	
10	0	0	0	0	559	617	
11	0	0	0	0	558	618	
12	0	0	0	0	557	617	
13	0	0	0	0	556	617	
14	0	0	0	0	555	617	
15	0	0	0	0	553	617	
0	0	0	0	0	553	617	
1	0	0	0	0	552	617	
2	0	0	0	0	552	617	
3	0	0	0	0	551	617	
4	0	0	0	0	551	617	
5	0	0	0	0	551	617	
6	0	0	0	0	550	618	
7	0	0	0	0	550	618	
8	0	0	0	0	550	617	
9	0	0	0	0	549	617	
10	0	0	0	0	549	618	
11	0	0	0	0	548	616	
12	0	0	0	0	547	617	
13	0	0	0	0	547	617	
14	0	0	0	0	546	617	
15	0	0	0	0	546	617	
0	0	0	0	0	545	616	
1	0	0	0	0	545	617	
2	0	0	0	0	544	616	
3	0	0	0	0	543	616	
4	0	0	0	0	542	617	
5	0	0	0	0	542	616	
6	0	0	0	0	541	617	
7	0	0	0	0	540	618	
8	0	0	0	0	540	617	
9	0	0	0	0	540	617	
10	0	0	0	0	540	617	
11	0	0	0	0	539	617	
12	0	0	0	0	539	617	
13	0	0	0	0	538	618	
14	0	0	0	0	538	618	
15	0	0	0	0	537	618	
0	0	0	0	0	537	617	
1	0	0	0	0	537	618	
2	0	0	0	0	536	618	
3	0	0	0	0	536	618	
4	0	0	0	0	536	618	
5	0	0	0	0	535	618	
6	0	0	0	0	535	618	
7	0	0	0	0	534	618	
8	0	0	0	0	534	617	
9	0	0	0	0	533	617	
10	0	0	0	0	533	617	
11	0	0	0	0	532	617	
12	0	0	0	0	532	616	
13	0	0	0	0	532	617	
14	0	0	0	0	532	617	
15	0	0	0	0	531	618	
0	0	0	0	0	531	617	
1	0	0	0	0	531	617	
2	0	0	0	0	531	617	
3	0	0	0	0	531	617	
4	0	0	0	0	530	617	
5	0	0	0	0	530	616	
6	0	0	0	0	530	617	
7	0	0	0	0	530	618	
8	0	0	0	0	530	617	
9	0	0	0	0	529	617	
10	0	0	0	0	529	618	
11	0	0	0	0	529	618	
12	0	0	0	0	529	618	
13	0	0	0	0	529	618	
14	0	0	0	0	528	618	
15	0	0	0	0	528	618	
0	0	0	0	0	528	618	
1	0	0	0	0	528	618	
2	0	0	0	0	529	617	
3	0	0	0	0	529	618	
4	0	0	0	0	529	618	
5	0	0	0	0	529	618	
6	0	0	0	0	529	618	
7	0	0	0	0	529	619	
8	0	0	0	0	529	618	
9	0	0	0	0	529	618	
10	0	0	0	0	529	618	
11	0	0	0	0	529	618	
12	0	0	0	0	529	618	
13	0	0	0	0	529	618	
14	0	0	0	0	528	617	
15	0	0	0	0	527	617	
0	0	0	0	0	527	617	
1	0	0	0	0	528	617	
2	0	0	0	0	528	617	
3	0	0	0	0	527	616	
4	0	0	0	0	527	616	
5	0	0	0	0	527	616	
6	0	0	0	0	527	616	
7	0	0	0	0	527	617	
8	0	0	0	0	527	616	
9	0	0	0	0	527	616	
10	0	0	0	0	528	616	
11	0	0	0	0	528	616	
12	0	0	0	0	529	616	
13	0	0	0	0	530	616	
14	0	0	0	0	530	616	
15	0	0	0	0	530	617	
0	0	0	0	0	530	616	
1	0	0	0	0	530	616	
2	0	0	0	0	529	615	
3	0	0	0	0	529	615	
4	0	0	0	0	529	616	
5	0	0	0	0	528	615	
6	0	0	0	0	528	615	
7	0	0	0	0	528	616	
8	0	0	0	0	527	615	
9	0	0	0	0	528	616	
10	0	0	0	0	528	616	
11	0	0	0	0	529	616	
12	0	0	0	0	528	616	
13	0	0	0	0	528	616	
14	0	0	0	0	528	617	
15	0	0	0	0	529	617	
0	0	0	0	0	530	617	
1	0	0	0	0	530	616	
2	0	0	0	0	530	616	
3	0	0	0	0	530	615	
4	0	0	0	0	530	616	
5	0	0	0	0	530	615	
6	0	0	0	0	531	615	
7	0	0	0	0	531	615	
8	0	0	0	0	531	615	
9	0	0	0	0	531	615	
10	0	0	0	0	531	615	
11	0	0	0	0	531	615	
12	0	0	0	0	531	615	
13	0	0	0	0	531	616	
14	0	0	0	0	531	616	
15	0	0	0	0	531	617	
0	0	0	0	0	531	616	
1	0	0	0	0	531	616	
2	0	0	0	0	531	617	
3	0	0	0	0	531	616	
4	0	0	0	0	530	616	
5	0	0	0	0	531	616	
6	0	0	0	0	530	616	
7	0	0	0	0	531	618	
8	0	0	0	0	530	616	
9	0	0	0	0	530	617	
10	0	0	0	0	529	617	
11	0	0	0	0	528	617	
12	0	0	0	0	528	617	
13	0	0	0	0	528	618	
14	0	0	0	0	528	618	
15	0	0	0	0	528	619	
0	0	0	0	0	528	618	
1	0	0	0	0	528	619	
2	0	0	0	0	528	618	
3	0	0	0	0	529	618	
4	0	0	0	0	528	618	
5	0	0	0	0	528	618	
6	0	0	0	0	528	618	
7	0	0	0	0	528	619	
8	0	0	0	0	528	618	
9	0	0	0	0	528	618	
10	0	0	0	0	527	618	
11	0	0	0	0	527	618	
12	0	0	0	0	527	619	
13	0	0	0	0	527	619	
14	0	0	0	0	527	619	
15	0	0	0	0	528	619	
0	0	0	0	0	528	619	
1	0	0	0	0	528	619	
2	0	0	0	0	528	619	
3	0	0	0	0	529	619	
4	0	0	0	0	528	618	
5	0	0	0	0	528	619	
6	0	0	0	0	528	619	
7	0	0	0	0	528	619	
8	0	0	0	0	527	619	
9	0	0	0	0	527	619	
10	0	0	0	0	527	620	
11	0	0	0	0	527	619	
12	0	0	0	0	526	619	
13	0	0	0	0	526	619	
14	0	0	0	0	526	619	
15	0	0	0	0	526	620	
0	0	0	0	0	526	619	
1	0	0	0	0	526	619	
2	0	0	0	0	526	619	
3	0	0	0	0	525	619	
4	0	0	0	0	525	619	
5	0	0	0	0	524	619	
6	0	0	0	0	523	619	
7	0	0	0	0	522	619	
8	0	0	0	0	522	618	
9	0	0	0	0	521	619	
10	0	0	0	0	520	618	
11	0	0	0	0	520	618	
12	0	0	0	0	519	618	
13	0	0	0	0	519	619	
14	0	0	0	0	518	619	
15	0	0	0	0	518	619	
0	0	0	0	0	517	619	
1	0	0	0	0	517	618	
2	0	0	0	0	516	618	
3	0	0	0	0	516	618	
4	0	0	0	0	515	618	
5	0	0	0	0	515	618	
6	0	0	0	0	515	618	
7	0	0	0	0	515	619	
8	0	0	0	0	515	618	
9	0	0	0	0	516	618	
10	0	0	0	0	516	617	
11	0	0	0	0	515	617	
12	0	0	0	0	515	617	
13	0	0	0	0	515	616	
14	0	0	0	0	515	616	
15	0	0	0	0	515	616	
0	0	0	0	0	514	616	
1	0	0	0	0	514	615	
2	0	0	0	0	513	616	
3	0	0	0	0	513	615	
4	0	0	0	0	512	615	
5	0	0	0	0	512	615	
6	0	0	0	0	511	615	
7	0	0	0	0	511	617	
8	0	0	0	0	512	616	
9	0	0	0	0	512	615	
10	0	0	0	0	512	615	
11	0	0	0	0	512	615	
12	0	0	0	0	512	616	
13	0	0	0	0	512	615	
14	0	0	0	0	512	616	
15	0	0	0	0	512	616	
0	0	0	0	0	512	616	
1	0	0	0	0	513	617	
2	0	0	0	0	513	616	
3	0	0	0	0	513	617	
4	0	0	0	0	512	616	
5	0	0	0	0	513	616	
6	0	0	0	0	513	616	
7	0	0	0	0	513	616	
8	0	0	0	0	513	615	
9	0	0	0	0	514	616	
10	0	0	0	0	514	616	
11	0	0	0	0	515	616	
12	0	0	0	0	515	616	
13	0	0	0	0	515	616	
14	0	0	0	0	516	616	
15	0	0	0	0	516	616	
0	0	0	0	0	517	615	
1	0	0	0	0	517	615	
2	0	0	0	0	517	616	
3	0	0	0	0	518	615	
4	0	0	0	0	518	615	
5	0	0	0	0	519	615	
6	0	0	0	0	519	616	
7	0	0	0	0	521	616	
8	0	0	0	0	522	615	
9	0	0	0	0	523	615	
10	0	0	0	0	524	616	
11	0	0	0	0	524	616	
12	0	0	0	0	524	617	
13	0	0	0	0	524	616	
14	0	0	0	0	524	616	
15	0	0	0	0	524	617	
0	0	0	0	0	524	617	
1	0	0	0	0	524	616	
2	0	0	0	0	524	617	
3	0	0	0	0	524	615	
4	0	0	0	0	524	616	
5	0	0	0	0	524	617	
6	0	0	0	0	524	617	
7	0	0	0	0	524	617	
8	0	0	0	0	524	616	
9	0	0	0	0	524	617	
10	0	0	0	0	525	617	
11	0	0	0	0	525	617	
12	0	0	0	0	525	617	
13	0	0	0	0	526	617	
14	0	0	0	0	527	617	
15	0	0	0	0	527	617	
0	0	0	0	0	527	617	
1	0	0	0	0	527	617	
2	0	0	0	0	527	617	
3	0	0	0	0	527	617	
4	0	0	0	0	527	616	
5	0	0	0	0	527	616	
6	0	0	0	0	526	617	
7	0	0	0	0	526	617	
8	0	0	0	0	526	617	
9	0	0	0	0	526	616	
10	0	0	0	0	526	617	
11	0	0	0	0	526	617	
12	0	0	0	0	526	617	
13	0	0	0	0	526	617	
14	0	0	0	0	526	616	
15	0	0	0	0	526	617	
0	0	0	0	0	527	617	
1	0	0	0	0	526	617	
2	0	0	0	0	526	617	
3	0	0	0	0	526	617	
4	0	0	0	0	526	617	
5	0	0	0	0	526	617	
6	0	0	0	0	525	617	
7	0	0	0	0	526	617	
8	0	0	0	0	525	616	
9	0	0	0	0	525	617	
10	0	0	0	0	525	617	
11	0	0	0	0	524	617	
12	0	0	0	0	524	617	
13	0	0	0	0	524	616	
14	0	0	0	0	524	616	
15	0	0	0	0	524	617	
0	0	0	0	0	523	617	
1	0	0	0	0	523	617	
2	0	0	0	0	522	616	
3	0	0	0	0	522	615	
4	0	0	0	0	522	616	
5	0	0	0	0	522	616	
6	0	0	0	0	522	617	
7	0	0	0	0	522	617	
8	0	0	0	0	523	616	
9	0	0	0	0	523	617	
10	0	0	0	0	522	617	
11	0	0	0	0	521	617	
12	0	0	0	0	520	617	
13	0	0	0	0	519	617	
14	0	0	0	0	517	616	
15	0	0	0	0	516	617	
0	0	0	0	0	515	616	
1	0	0	0	0	513	617	
2	0	0	0	0	511	617	
3	0	0	0	0	508	617	
4	0	0	0	0	504	617	
5	0	0	0	0	499	617	
6	0	0	0	0	494	617	
7	0	0	0	0	489	618	
8	0	0	0	0	483	617	
9	0	0	0	0	478	617	
10	0	0	0	0	473	617	
11	0	0	0	0	468	617	
12	0	0	0	0	463	617	
13	0	0	0	0	458	617	
14	0	0	0	0	453	617	
15	0	0	0	0	449	618	
0	0	0	0	0	447	617	
1	0	0	0	0	446	617	
2	0	0	0	0	446	617	
3	0	0	0	0	446	617	
4	0	0	0	0	448	617	
5	0	0	0	0	451	617	
6	0	0	0	0	458	617	
7	0	0	0	0	467	618	
8	0	0	0	0	478	617	
9	0	0	0	0	491	617	
10	0	0	0	0	507	617	
11	0	0	0	0	526	617	
12	0	0	0	0	550	617	
13	0	0	0	0	576	617	
14	0	0	0	0	603	617	
15	0	0	0	0	628	618	
0	0	0	0	0	655	617	
1	0	0	0	0	683	617	
2	0	0	0	0	711	617	
3	0	0	0	0	736	617	
4	0	0	0	0	757	617	
5	0	0	0	0	775	617	
6	0	0	0	0	789	617	
7	0	0	0	0	800	617	
8	0	0	0	0	811	617	
9	0	0	0	0	821	617	
10	0	0	0	0	828	617	
11	0	0	0	0	835	617	
12	0	0	0	0	835	617	
13	0	0	0	0	833	617	
14	0	0	0	0	830	618	
15	0	0	0	0	826	618	
0	0	0	0	0	819	617	
1	0	0	0	0	805	617	
2	0	0	0	0	784	617	
3	0	0	0	0	760	618	
4	0	0	0	0	734	618	
5	0	0	0	0	709	618	
6	0	0	0	0	685	618	
7	0	0	0	0	664	618	
8	0	0	0	0	643	617	
9	0	0	0	0	626	617	
10	0	0	0	0	609	617	
11	0	0	0	0	594	617	
12	0	0	0	0	580	617	
13	0	0	0	0	567	617	
14	0	0	0	0	556	617	
15	0	0	0	0	544	617	
0	0	0	0	0	533	617	
1	0	0	0	0	522	618	
2	0	0	0	0	511	617	
3	0	0	0	0	502	617	
4	0	0	0	0	493	617	
5	0	0	0	0	485	617	
6	0	0	0	0	478	617	
7	0	0	0	0	471	618	
8	0	0	0	0	466	617	
9	0	0	0	0	461	617	
10	0	0	0	0	457	617	
11	0	0	0	0	452	617	
12	0	0	0	0	449	619	
13	0	0	0	0	445	618	
14	0	0	0	0	443	618	
15	0	0	0	0	440	619	
0	0	0	0	0	438	619	
1	0	0	0	0	435	619	
2	0	0	0	0	433	619	
3	0	0	0	0	431	619	
4	0	0	0	0	430	619	
5	0	0	0	0	429	619	
6	0	0	0	0	428	619	
7	0	0	0	0	428	619	
8	0	0	0	0	427	620	
9	0	0	0	0	427	619	
10	0	0	0	0	427	619	
11	0	0	0	0	426	619	
12	0	0	0	0	426	619	
13	0	0	0	0	425	619	
14	0	0	0	0	425	619	
15	0	0	0	0	425	620	
0	0	0	0	0	426	619	
1	0	0	0	0	426	619	
2	0	0	0	0	426	618	
3	0	0	0	0	426	617	
4	0	0	0	0	426	617	
5	0	0	0	0	427	618	
6	0	0	0	0	427	617	
7	0	0	0	0	428	617	
8	0	0	0	0	428	617	
9	0	0	0	0	429	617	
10	0	0	0	0	430	617	
11	0	0	0	0	430	616	
12	0	0	0	0	430	617	
13	0	0	0	0	430	616	
14	0	0	0	0	431	616	
15	0	0	0	0	432	616	
0	0	0	0	0	433	616	
1	0	0	0	0	433	616	
2	0	0	0	0	433	616	
3	0	0	0	0	433	615	
4	0	0	0	0	434	615	
5	0	0	0	0	434	615	
6	0	0	0	0	434	615	
7	0	0	0	0	434	615	
8	0	0	0	0	435	616	
9	0	0	0	0	435	615	
10	0	0	0	0	436	615	
11	0	0	0	0	437	615	
12	0	0	0	0	438	615	
13	0	0	0	0	438	616	
14	0	0	0	0	438	616	
15	0	0	0	0	439	616	
0	0	0	0	0	440	615	
1	0	0	0	0	440	615	
2	0	0	0	0	441	616	
3	0	0	0	0	442	615	
4	0	0	0	0	442	616	
5	0	0	0	0	443	616	
6	0	0	0	0	443	616	
7	0	0	0	0	444	617	
8	0	0	0	0	444	616	
9	0	0	0	0	444	616	
10	0	0	0	0	444	616	
11	0	0	0	0	444	616	
12	0	0	0	0	445	615	
13	0	0	0	0	445	615	
14	0	0	0	0	445	615	
15	0	0	0	0	445	615	
0	0	0	0	0	445	615	
1	0	0	0	0	446	615	
2	0	0	0	0	446	615	
3	0	0	0	0	446	615	
4	0	0	0	0	446	615	
5	0	0	0	0	447	615	
6	0	0	0	0	447	616	
7	0	0	0	0	447	616	
8	0	0	0	0	448	615	
9	0	0	0	0	448	615	
10	0	0	0	0	448	615	
11	0	0	0	0	449	615	
12	0	0	0	0	449	616	
13	0	0	0	0	450	616	
14	0	0	0	0	449	616	
15	0	0	0	0	450	616	
0	0	0	0	0	450	617	
1	0	0	0	0	450	616	
2	0	0	0	0	451	617	
3	0	0	0	0	451	617	
4	0	0	0	0	451	617	
5	0	0	0	0	451	617	
6	0	0	0	0	451	618	
7	0	0	0	0	451	619	
8	0	0	0	0	451	617	
9	0	0	0	0	452	617	
10	0	0	0	0	451	618	
11	0	0	0	0	451	618	
12	0	0	0	0	450	618	
13	0	0	0	0	450	618	
14	0	0	0	0	450	617	
15	0	0	0	0	449	618	
0	0	0	0	0	450	618	
1	0	0	0	0	450	619	
2	0	0	0	0	449	618	
3	0	0	0	0	449	618	
4	0	0	0	0	450	619	
5	0	0	0	0	450	618	
6	0	0	0	0	450	618	
7	0	0	0	0	450	618	
8	0	0	0	0	451	618	
9	0	0	0	0	451	618	
10	0	0	0	0	451	618	
11	0	0	0	0	451	618	
12	0	0	0	0	452	618	
13	0	0	0	0	452	617	
14	0	0	0	0	452	619	
15	0	0	0	0	452	619	
0	0	0	0	0	452	619	
1	0	0	0	0	452	618	
2	0	0	0	0	451	618	
3	0	0	0	0	451	618	
4	0	0	0	0	451	619	
5	0	0	0	0	451	618	
6	0	0	0	0	451	618	
7	0	0	0	0	450	618	
8	0	0	0	0	451	619	
9	0	0	0	0	450	618	
10	0	0	0	0	451	618	
11	0	0	0	0	451	619	
12	0	0	0	0	451	618	
13	0	0	0	0	451	618	
14	0	0	0	0	451	617	
15	0	0	0	0	451	617	
0	0	0	0	0	451	618	
1	0	0	0	0	451	617	
2	0	0	0	0	451	617	
3	0	0	0	0	451	617	
4	0	0	0	0	451	617	
5	0	0	0	0	450	617	
6	0	0	0	0	451	617	
7	0	0	0	0	451	618	
8	0	0	0	0	451	617	
9	0	0	0	0	451	616	
10	0	0	0	0	451	617	
11	0	0	0	0	451	616	
12	0	0	0	0	451	617	
13	0	0	0	0	451	617	
14	0	0	0	0	451	617	
15	0	0	0	0	452	617	
0	0	0	0	0	452	617	
1	0	0	0	0	454	617	
2	0	0	0	0	455	617	
3	0	0	0	0	455	616	
4	0	0	0	0	455	616	
5	0	0	0	0	456	616	
6	0	0	0	0	457	616	
7	0	0	0	0	458	616	
8	0	0	0	0	459	616	
9	0	0	0	0	460	616	
10	0	0	0	0	461	616	
11	0	0	0	0	462	616	
12	0	0	0	0	463	615	
13	0	0	0	0	463	616	
14	0	0	0	0	464	616	
15	0	0	0	0	465	615	
0	0	0	0	0	466	616	
1	0	0	0	0	467	616	
2	0	0	0	0	468	615	
3	0	0	0	0	469	615	
4	0	0	0	0	471	615	
5	0	0	0	0	471	615	
6	0	0	0	0	472	615	
7	0	0	0	0	473	615	
8	0	0	0	0	474	615	
9	0	0	0	0	475	615	
10	0	0	0	0	477	615	
11	0	0	0	0	478	615	
12	0	0	0	0	479	615	
13	0	0	0	0	480	616	
14	0	0	0	0	481	615	
15	0	0	0	0	483	616	
0	0	0	0	0	484	615	
1	0	0	0	0	485	615	
2	0	0	0	0	487	615	
3	0	0	0	0	488	615	
4	0	0	0	0	489	616	
5	0	0	0	0	491	616	
6	0	0	0	0	493	616	
7	0	0	0	0	495	617	
8	0	0	0	0	496	616	
9	0	0	0	0	498	617	
10	0	0	0	0	499	617	
11	0	0	0	0	502	616	
12	0	0	0	0	504	616	
13	0	0	0	0	506	616	
14	0	0	0	0	509	617	
15	0	0	0	0	511	618	
0	0	0	0	0	512	617	
1	0	0	0	0	514	618	
2	0	0	0	0	515	617	
3	0	0	0	0	518	618	
4	0	0	0	0	520	618	
5	0	0	0	0	521	619	
6	0	0	0	0	524	619	
7	0	0	0	0	525	619	
8	0	0	0	0	527	619	
9	0	0	0	0	529	619	
10	0	0	0	0	531	619	
11	0	0	0	0	532	619	
12	0	0	0	0	534	619	
13	0	0	0	0	536	619	
14	0	0	0	0	537	619	
15	0	0	0	0	539	620	
0	0	0	0	0	540	619	
1	0	0	0	0	541	619	
2	0	0	0	0	542	620	
3	0	0	0	0	544	620	
4	0	0	0	0	546	619	
5	0	0	0	0	548	619	
6	0	0	0	0	550	619	
7	0	0	0	0	551	620	
8	0	0	0	0	553	620	
9	0	0	0	0	555	620	
10	0	0	0	0	555	620	
11	0	0	0	0	556	619	
12	0	0	0	0	558	620	
13	0	0	0	0	559	620	
14	0	0	0	0	561	619	
15	0	0	0	0	561	619	
0	0	0	0	0	562	618	
1	0	0	0	0	564	618	
2	0	0	0	0	565	619	
3	0	0	0	0	565	617	
4	0	0	0	0	566	617	
5	0	0	0	0	566	616	
6	0	0	0	0	566	617	
7	0	0	0	0	566	616	
8	0	0	0	0	566	616	
9	0	0	0	0	566	616	
10	0	0	0	0	566	616	
11	0	0	0	0	566	616	
12	0	0	0	0	566	616	
13	0	0	0	0	566	616	
14	0	0	0	0	566	616	
15	0	0	0	0	565	616	
0	0	0	0	0	566	616	
1	0	0	0	0	566	616	
2	0	0	0	0	565	616	
3	0	0	0	0	565	616	
4	0	0	0	0	565	616	
5	0	0	0	0	565	616	
6	0	0	0	0	564	617	
7	0	0	0	0	564	616	
8	0	0	0	0	563	616	
9	0	0	0	0	563	616	
10	0	0	0	0	563	616	
11	0	0	0	0	563	617	
12	0	0	0	0	563	617	
13	0	0	0	0	562	616	
14	0	0	0	0	562	616	
15	0	0	0	0	562	617	
0	0	0	0	0	561	617	
1	0	0	0	0	560	617	
2	0	0	0	0	560	616	
3	0	0	0	0	560	616	
4	0	0	0	0	559	616	
5	0	0	0	0	559	616	
6	0	0	0	0	558	616	
7	0	0	0	0	558	615	
8	0	0	0	0	557	615	
9	0	0	0	0	557	615	
10	0	0	0	0	556	615	
11	0	0	0	0	556	615	
12	0	0	0	0	556	615	
13	0	0	0	0	556	615	
14	0	0	0	0	556	615	
15	0	0	0	0	555	615	
0	0	0	0	0	555	615	
1	0	0	0	0	555	615	
2	0	0	0	0	554	615	
3	0	0	0	0	553	615	
4	0	0	0	0	552	615	
5	0	0	0	0	552	616	
6	0	0	0	0	551	616	
7	0	0	0	0	551	616	
8	0	0	0	0	551	616	
9	0	0	0	0	550	616	
10	0	0	0	0	550	617	
11	0	0	0	0	548	617	
12	0	0	0	0	547	617	
13	0	0	0	0	547	617	
14	0	0	0	0	545	617	
15	0	0	0	0	545	618	
0	0	0	0	0	545	617	
1	0	0	0	0	543	617	
2	0	0	0	0	543	618	
3	0	0	0	0	543	618	
4	0	0	0	0	542	618	
5	0	0	0	0	541	618	
6	0	0	0	0	541	618	
7	0	0	0	0	540	619	
8	0	0	0	0	539	618	
9	0	0	0	0	539	618	
10	0	0	0	0	538	618	
11	0	0	0	0	537	618	
12	0	0	0	0	537	619	
13	0	0	0	0	537	619	
14	0	0	0	0	536	618	
15	0	0	0	0	536	619	
0	0	0	0	0	535	618	
1	0	0	0	0	535	618	
2	0	0	0	0	535	619	
3	0	0	0	0	536	619	
4	0	0	0	0	535	619	
5	0	0	0	0	535	619	
6	0	0	0	0	535	619	
7	0	0	0	0	535	619	
8	0	0	0	0	535	619	
9	0	0	0	0	535	618	
10	0	0	0	0	534	618	
11	0	0	0	0	534	618	
12	0	0	0	0	533	618	
13	0	0	0	0	533	618	
14	0	0	0	0	532	618	
15	0	0	0	0	531	618	
0	0	0	0	0	531	618	
1	0	0	0	0	531	618	
2	0	0	0	0	530	618	
3	0	0	0	0	530	617	
4	0	0	0	0	530	617	
5	0	0	0	0	530	617	
6	0	0	0	0	530	617	
7	0	0	0	0	531	618	
8	0	0	0	0	531	617	
9	0	0	0	0	530	617	
10	0	0	0	0	530	617	
11	0	0	0	0	530	617	
12	0	0	0	0	529	617	
13	0	0	0	0	529	618	
14	0	0	0	0	529	617	
15	0	0	0	0	528	618	
0	0	0	0	0	528	617	
1	0	0	0	0	528	617	
2	0	0	0	0	527	617	
3	0	0	0	0	526	617	
4	0	0	0	0	526	617	
5	0	0	0	0	527	617	
6	0	0	0	0	526	617	
7	0	0	0	0	526	617	
8	0	0	0	0	526	617	
9	0	0	0	0	527	617	
10	0	0	0	0	527	616	
11	0	0	0	0	527	617	
12	0	0	0	0	527	617	
13	0	0	0	0	528	616	
14	0	0	0	0	529	616	
15	0	0	0	0	529	616	
0	0	0	0	0	529	616	
1	0	0	0	0	529	616	
2	0	0	0	0	528	615	
3	0	0	0	0	527	616	
4	0	0	0	0	527	616	
5	0	0	0	0	527	615	
6	0	0	0	0	526	616	
7	0	0	0	0	526	616	
8	0	0	0	0	525	616	
9	0	0	0	0	526	615	
10	0	0	0	0	527	615	
11	0	0	0	0	527	615	
12	0	0	0	0	527	615	
13	0	0	0	0	528	615	
14	0	0	0	0	527	615	
15	0	0	0	0	527	615	
0	0	0	0	0	528	615	
1	0	0	0	0	528	615	
2	0	0	0	0	528	615	
3	0	0	0	0	529	615	
4	0	0	0	0	529	616	
5	0	0	0	0	529	615	
6	0	0	0	0	529	615	
7	0	0	0	0	529	616	
8	0	0	0	0	529	615	
9	0	0	0	0	529	615	
10	0	0	0	0	529	615	
11	0	0	0	0	528	615	
12	0	0	0	0	528	615	
13	0	0	0	0	528	615	
14	0	0	0	0	528	615	
15	0	0	0	0	528	616	
0	0	0	0	0	528	615	
1	0	0	0	0	529	616	
2	0	0	0	0	529	616	
3	0	0	0	0	530	616	
4	0	0	0	0	530	616	
5	0	0	0	0	530	616	
6	0	0	0	0	530	616	
7	0	0	0	0	530	617	
8	0	0	0	0	530	616	
9	0	0	0	0	530	616	
10	0	0	0	0	530	616	
11	0	0	0	0	531	617	
12	0	0	0	0	531	617	
13	0	0	0	0	531	617	
14	0	0	0	0	531	617	
15	0	0	0	0	531	617	
0	0	0	0	0	531	617	
1	0	0	0	0	532	617	
2	0	0	0	0	531	617	
3	0	0	0	0	531	617	
4	0	0	0	0	531	618	
5	0	0	0	0	531	618	
6	0	0	0	0	531	618	
7	0	0	0	0	531	618	
8	0	0	0	0	531	618	
9	0	0	0	0	531	618	
10	0	0	0	0	531	618	
11	0	0	0	0	530	618	
12	0	0	0	0	530	618	
13	0	0	0	0	531	618	
14	0	0	0	0	531	619	
15	0	0	0	0	531	619	
0	0	0	0	0	531	619	
1	0	0	0	0	530	619	
2	0	0	0	0	529	619	
3	0	0	0	0	528	619	
4	0	0	0	0	529	619	
5	0	0	0	0	527	619	
6	0	0	0	0	527	619	
7	0	0	0	0	527	619	
8	0	0	0	0	526	619	
9	0	0	0	0	527	619	
10	0	0	0	0	526	619	
11	0	0	0	0	526	619	
12	0	0	0	0	526	618	
13	0	0	0	0	526	619	
14	0	0	0	0	527	619	
15	0	0	0	0	526	619	
0	0	0	0	0	526	619	
1	0	0	0	0	527	619	
2	0	0	0	0	527	618	
3	0	0	0	0	527	618	
4	0	0	0	0	527	618	
5	0	0	0	0	526	618	
6	0	0	0	0	526	619	
7	0	0	0	0	525	618	
8	0	0	0	0	525	619	
9	0	0	0	0	524	618	
10	0	0	0	0	524	618	
11	0	0	0	0	524	618	
12	0	0	0	0	524	618	
13	0	0	0	0	524	617	
14	0	0	0	0	524	618	
15	0	0	0	0	524	618	
0	0	0	0	0	524	617	
1	0	0	0	0	524	617	
2	0	0	0	0	524	617	
3	0	0	0	0	523	617	
4	0	0	0	0	523	617	
5	0	0	0	0	523	617	
6	0	0	0	0	523	617	
7	0	0	0	0	523	617	
8	0	0	0	0	522	616	
9	0	0	0	0	522	616	
10	0	0	0	0	522	616	
11	0	0	0	0	522	616	
12	0	0	0	0	523	617	
13	0	0	0	0	522	616	
14	0	0	0	0	522	617	
15	0	0	0	0	521	616	
0	0	0	0	0	521	616	
1	0	0	0	0	520	616	
2	0	0	0	0	519	616	
3	0	0	0	0	519	615	
4	0	0	0	0	518	615	
5	0	0	0	0	518	616	
6	0	0	0	0	518	616	
7	0	0	0	0	517	616	
8	0	0	0	0	516	615	
9	0	0	0	0	515	615	
10	0	0	0	0	515	615	
11	0	0	0	0	514	615	
12	0	0	0	0	514	615	
13	0	0	0	0	513	615	
14	0	0	0	0	512	615	
15	0	0	0	0	512	615	
0	0	0	0	0	512	615	
1	0	0	0	0	511	615	
2	0	0	0	0	511	615	
3	0	0	0	0	511	615	
4	0	0	0	0	511	615	
5	0	0	0	0	512	615	
6	0	0	0	0	512	615	
7	0	0	0	0	512	615	
8	0	0	0	0	512	615	
9	0	0	0	0	512	615	
10	0	0	0	0	512	615	
11	0	0	0	0	512	615	
12	0	0	0	0	511	615	
13	0	0	0	0	511	615	
14	0	0	0	0	511	615	
15	0	0	0	0	510	615	
0	0	0	0	0	509	615	
1	0	0	0	0	508	615	
2	0	0	0	0	508	615	
3	0	0	0	0	507	615	
4	0	0	0	0	508	615	
5	0	0	0	0	508	616	
6	0	0	0	0	509	615	
7	0	0	0	0	509	616	
8	0	0	0	0	509	616	
9	0	0	0	0	510	616	
10	0	0	0	0	510	616	
11	0	0	0	0	510	617	
12	0	0	0	0	510	617	
13	0	0	0	0	510	617	
14	0	0	0	0	511	617	
15	0	0	0	0	510	617	
0	0	0	0	0	510	617	
1	0	0	0	0	510	617	
2	0	0	0	0	510	618	
3	0	0	0	0	510	618	
4	0	0	0	0	511	618	
5	0	0	0	0	512	618	
6	0	0	0	0	512	619	
7	0	0	0	0	512	620	
8	0	0	0	0	513	619	
9	0	0	0	0	514	619	
10	0	0	0	0	515	620	
11	0	0	0	0	515	619	
12	0	0	0	0	515	619	
13	0	0	0	0	515	620	
14	0	0	0	0	515	620	
15	0	0	0	0	515	620	
0	0	0	0	0	515	619	
1	0	0	0	0	515	619	
2	0	0	0	0	516	620	
3	0	0	0	0	518	619	
4	0	0	0	0	518	619	
5	0	0	0	0	519	620	
6	0	0	0	0	519	620	
7	0	0	0	0	520	620	
8	0	0	0	0	520	619	
9	0	0	0	0	521	619	
10	0	0	0	0	521	619	
11	0	0	0	0	522	619	
12	0	0	0	0	521	619	
13	0	0	0	0	521	618	
14	0	0	0	0	521	618	
15	0	0	0	0	521	619	
0	0	0	0	0	521	617	
1	0	0	0	0	522	618	
2	0	0	0	0	523	618	
3	0	0	0	0	524	617	
4	0	0	0	0	524	617	
5	0	0	0	0	525	617	
6	0	0	0	0	526	617	
7	0	0	0	0	526	617	
8	0	0	0	0	527	617	
9	0	0	0	0	527	617	
10	0	0	0	0	527	616	
11	0	0	0	0	527	617	
12	0	0	0	0	526	616	
13	0	0	0	0	527	616	
14	0	0	0	0	526	617	
15	0	0	0	0	526	616	
0	0	0	0	0	526	616	
1	0	0	0	0	526	617	
2	0	0	0	0	526	616	
3	0	0	0	0	526	616	
4	0	0	0	0	526	616	
5	0	0	0	0	526	616	
6	0	0	0	0	525	616	
7	0	0	0	0	525	617	
8	0	0	0	0	525	616	
9	0	0	0	0	525	616	
10	0	0	0	0	526	616	
11	0	0	0	0	526	616	
12	0	0	0	0	525	616	
13	0	0	0	0	526	616	
14	0	0	0	0	525	616	
15	0	0	0	0	525	616	
0	0	0	0	0	524	616	
1	0	0	0	0	524	616	
2	0	0	0	0	524	615	
3	0	0	0	0	524	615	
4	0	0	0	0	524	616	
5	0	0	0	0	524	615	
6	0	0	0	0	524	616	
7	0	0	0	0	523	616	
8	0	0	0	0	523	615	
9	0	0	0	0	524	616	
10	0	0	0	0	523	616	
11	0	0	0	0	523	615	
12	0	0	0	0	523	615	
13	0	0	0	0	523	615	
14	0	0	0	0	524	615	
15	0	0	0	0	524	615	
0	0	0	0	0	523	615	
1	0	0	0	0	523	616	
2	0	0	0	0	523	615	
3	0	0	0	0	522	615	
4	0	0	0	0	521	616	
5	0	0	0	0	522	616	
6	0	0	0	0	521	616	
7	0	0	0	0	521	615	
8	0	0	0	0	520	616	
9	0	0	0	0	519	615	
10	0	0	0	0	518	615	
11	0	0	0	0	516	615	
12	0	0	0	0	515	615	
13	0	0	0	0	513	615	
14	0	0	0	0	511	615	
15	0	0	0	0	508	616	
0	0	0	0	0	504	616	
1	0	0	0	0	500	616	
2	0	0	0	0	495	617	
3	0	0	0	0	489	615	
4	0	0	0	0	482	616	
5	0	0	0	0	476	616	
6	0	0	0	0	471	616	
7	0	0	0	0	465	617	
8	0	0	0	0	460	616	
9	0	0	0	0	455	616	
10	0	0	0	0	450	616	
11	0	0	0	0	447	616	
12	0	0	0	0	444	616	
13	0	0	0	0	443	616	
14	0	0	0	0	443	616	
15	0	0	0	0	444	617	
0	0	0	0	0	447	617	
1	0	0	0	0	450	617	
2	0	0	0	0	456	617	
3	0	0	0	0	465	617	
4	0	0	0	0	476	616	
5	0	0	0	0	489	616	
6	0	0	0	0	505	617	
7	0	0	0	0	525	617	
8	0	0	0	0	548	616	
9	0	0	0	0	572	617	
10	0	0	0	0	598	616	
11	0	0	0	0	624	617	
12	0	0	0	0	650	617	
13	0	0	0	0	678	617	
14	0	0	0	0	706	617	
15	0	0	0	0	731	617	
0	0	0	0	0	752	617	
1	0	0	0	0	768	617	
2	0	0	0	0	783	617	
3	0	0	0	0	796	617	
4	0	0	0	0	806	617	
5	0	0	0	0	816	617	
6	0	0	0	0	824	616	
7	0	0	0	0	830	617	
8	0	0	0	0	832	616	
9	0	0	0	0	828	616	
10	0	0	0	0	825	617	
11	0	0	0	0	819	617	
12	0	0	0	0	810	617	
13	0	0	0	0	794	617	
14	0	0	0	0	771	617	
15	0	0	0	0	748	619	
0	0	0	0	0	723	618	
1	0	0	0	0	698	618	
2	0	0	0	0	675	617	
3	0	0	0	0	654	617	
4	0	0	0	0	635	617	
5	0	0	0	0	618	617	
6	0	0	0	0	603	618	
7	0	0	0	0	589	619	
8	0	0	0	0	576	617	
9	0	0	0	0	564	617	
10	0	0	0	0	552	617	
11	0	0	0	0	542	618	
12	0	0	0	0	531	618	
13	0	0	0	0	520	618	
14	0	0	0	0	510	618	
15	0	0	0	0	501	619	
0	0	0	0	0	493	618	
1	0	0	0	0	486	617	
2	0	0	0	0	479	617	
3	0	0	0	0	473	618	
4	0	0	0	0	467	618	
5	0	0	0	0	463	618	
6	0	0	0	0	459	617	
7	0	0	0	0	455	618	
8	0	0	0	0	450	618	
9	0	0	0	0	446	617	
10	0	0	0	0	444	617	
11	0	0	0	0	442	617	
12	0	0	0	0	440	617	
13	0	0	0	0	438	617	
14	0	0	0	0	435	617	
15	0	0	0	0	433	617	
0	0	0	0	0	432	617	
1	0	0	0	0	431	617	
2	0	0	0	0	430	617	
3	0	0	0	0	429	617	
4	0	0	0	0	429	617	
5	0	0	0	0	429	617	
6	0	0	0	0	429	617	
7	0	0	0	0	429	617	
8	0	0	0	0	428	616	
9	0	0	0	0	429	617	
10	0	0	0	0	428	617	
11	0	0	0	0	428	617	
12	0	0	0	0	428	617	
13	0	0	0	0	428	617	
14	0	0	0	0	428	617	
15	0	0	0	0	428	618	
0	0	0	0	0	428	617	
1	0	0	0	0	428	618	
2	0	0	0	0	429	617	
3	0	0	0	0	429	617	
4	0	0	0	0	430	617	
5	0	0	0	0	430	616	
6	0	0	0	0	431	617	
7	0	0	0	0	432	617	
8	0	0	0	0	433	617	
9	0	0	0	0	433	618	
10	0	0	0	0	433	617	
11	0	0	0	0	434	617	
12	0	0	0	0	433	617	
13	0	0	0	0	434	617	
14	0	0	0	0	434	617	
15	0	0	0	0	434	618	
0	0	0	0	0	435	617	
1	0	0	0	0	435	618	
2	0	0	0	0	436	617	
3	0	0	0	0	436	617	
4	0	0	0	0	436	616	
5	0	0	0	0	437	617	
6	0	0	0	0	438	617	
7	0	0	0	0	438	617	
8	0	0	0	0	439	617	
9	0	0	0	0	439	617	
10	0	0	0	0	440	617	
11	0	0	0	0	440	617	
12	0	0	0	0	441	616	
13	0	0	0	0	441	616	
14	0	0	0	0	442	617	
15	0	0	0	0	442	617	
0	0	0	0	0	441	616	
1	0	0	0	0	442	616	
2	0	0	0	0	442	616	
3	0	0	0	0	442	616	
4	0	0	0	0	443	617	
5	0	0	0	0	443	616	
6	0	0	0	0	443	616	
7	0	0	0	0	443	617	
8	0	0	0	0	443	616	
9	0	0	0	0	443	616	
10	0	0	0	0	443	616	
11	0	0	0	0	443	616	
12	0	0	0	0	444	616	
13	0	0	0	0	444	616	
14	0	0	0	0	446	617	
15	0	0	0	0	446	617	
0	0	0	0	0	446	616	
1	0	0	0	0	446	617	
2	0	0	0	0	446	617	
3	0	0	0	0	446	617	
4	0	0	0	0	446	617	
5	0	0	0	0	446	616	
6	0	0	0	0	447	616	
7	0	0	0	0	447	617	
8	0	0	0	0	447	617	
9	0	0	0	0	447	616	
10	0	0	0	0	448	617	
11	0	0	0	0	448	616	
12	0	0	0	0	448	617	
13	0	0	0	0	449	617	
14	0	0	0	0	449	617	
15	0	0	0	0	449	617	
0	0	0	0	0	449	617	
1	0	0	0	0	449	617	
2	0	0	0	0	449	616	
3	0	0	0	0	449	617	
4	0	0	0	0	449	617	
5	0	0	0	0	450	617	
6	0	0	0	0	450	617	
7	0	0	0	0	449	617	
8	0	0	0	0	449	617	
9	0	0	0	0	450	617	
10	0	0	0	0	450	617	
11	0	0	0	0	450	617	
12	0	0	0	0	450	617	
13	0	0	0	0	450	617	
14	0	0	0	0	450	617	
15	0	0	0	0	451	617	
0	0	0	0	0	451	616	
1	0	0	0	0	451	617	
2	0	0	0	0	451	617	
3	0	0	0	0	451	617	
4	0	0	0	0	450	617	
5	0	0	0	0	450	617	
6	0	0	0	0	450	617	
7	0	0	0	0	450	617	
8	0	0	0	0	450	617	
9	0	0	0	0	451	617	
10	0	0	0	0	451	616	
11	0	0	0	0	450	616	
12	0	0	0	0	451	617	
13	0	0	0	0	451	616	
14	0	0	0	0	452	616	
15	0	0	0	0	452	616	
0	0	0	0	0	452	616	
1	0	0	0	0	452	616	
2	0	0	0	0	451	616	
3	0	0	0	0	451	616	
4	0	0	0	0	451	616	
5	0	0	0	0	451	617	
6	0	0	0	0	451	616	
7	0	0	0	0	451	616	
8	0	0	0	0	451	616	
9	0	0	0	0	451	617	
10	0	0	0	0	451	617	
11	0	0	0	0	450	616	
12	0	0	0	0	450	617	
13	0	0	0	0	450	617	
14	0	0	0	0	449	616	
15	0	0	0	0	449	617	
0	0	0	0	0	449	617	
1	0	0	0	0	449	617	
2	0	0	0	0	449	618	
3	0	0	0	0	449	617	
4	0	0	0	0	450	616	
5	0	0	0	0	450	617	
6	0	0	0	0	451	617	
7	0	0	0	0	452	617	
8	0	0	0	0	452	617	
9	0	0	0	0	453	617	
10	0	0	0	0	453	617	
11	0	0	0	0	454	617	
12	0	0	0	0	454	617	
13	0	0	0	0	454	617	
14	0	0	0	0	455	617	
15	0	0	0	0	455	617	
0	0	0	0	0	455	617	
1	0	0	0	0	456	617	
2	0	0	0	0	456	617	
3	0	0	0	0	457	617	
4	0	0	0	0	458	617	
5	0	0	0	0	459	617	
6	0	0	0	0	460	617	
7	0	0	0	0	461	617	
8	0	0	0	0	462	617	
9	0	0	0	0	463	617	
10	0	0	0	0	464	617	
11	0	0	0	0	464	617	
12	0	0	0	0	465	616	
13	0	0	0	0	466	617	
14	0	0	0	0	467	617	
15	0	0	0	0	468	617	
0	0	0	0	0	468	616	
1	0	0	0	0	469	616	
2	0	0	0	0	470	617	
3	0	0	0	0	472	616	
4	0	0	0	0	473	616	
5	0	0	0	0	474	616	
6	0	0	0	0	475	616	
7	0	0	0	0	476	617	
8	0	0	0	0	478	616	
9	0	0	0	0	479	616	
10	0	0	0	0	481	616	
11	0	0	0	0	482	617	
12	0	0	0	0	483	617	
13	0	0	0	0	484	617	
14	0	0	0	0	486	617	
15	0	0	0	0	487	617	
0	0	0	0	0	489	617	
1	0	0	0	0	491	617	
2	0	0	0	0	492	617	
3	0	0	0	0	494	617	
4	0	0	0	0	496	617	
5	0	0	0	0	497	617	
6	0	0	0	0	499	617	
7	0	0	0	0	500	617	
8	0	0	0	0	502	617	
9	0	0	0	0	504	617	
10	0	0	0	0	506	618	
11	0	0	0	0	508	619	
12	0	0	0	0	509	618	
13	0	0	0	0	511	618	
14	0	0	0	0	513	618	
15	0	0	0	0	515	618	
0	0	0	0	0	517	619	
1	0	0	0	0	519	618	
2	0	0	0	0	521	617	
3	0	0	0	0	523	617	
4	0	0	0	0	525	618	
5	0	0	0	0	527	618	
6	0	0	0	0	528	617	
7	0	0	0	0	529	618	
8	0	0	0	0	531	617	
9	0	0	0	0	532	617	
10	0	0	0	0	534	617	
11	0	0	0	0	536	617	
12	0	0	0	0	537	617	
13	0	0	0	0	539	616	
14	0	0	0	0	540	617	
15	0	0	0	0	542	617	
0	0	0	0	0	543	617	
1	0	0	0	0	545	617	
2	0	0	0	0	546	617	
3	0	0	0	0	547	617	
4	0	0	0	0	549	616	
5	0	0	0	0	550	615	
6	0	0	0	0	551	616	
7	0	0	0	0	552	616	
8	0	0	0	0	553	615	
9	0	0	0	0	554	616	
10	0	0	0	0	556	616	
11	0	0	0	0	556	616	
12	0	0	0	0	557	616	
13	0	0	0	0	558	615	
14	0	0	0	0	560	616	
15	0	0	0	0	560	616	
0	0	0	0	0	561	616	
1	0	0	0	0	561	616	
2	0	0	0	0	561	616	
3	0	0	0	0	561	616	
4	0	0	0	0	561	616	
5	0	0	0	0	561	616	
6	0	0	0	0	562	617	
7	0	0	0	0	561	616	
8	0	0	0	0	561	616	
9	0	0	0	0	561	617	
10	0	0	0	0	561	616	
11	0	0	0	0	561	617	
12	0	0	0	0	561	617	
13	0	0	0	0	562	617	
14	0	0	0	0	562	617	
15	0	0	0	0	563	617	
0	0	0	0	0	562	616	
1	0	0	0	0	562	617	
2	0	0	0	0	561	616	
3	0	0	0	0	561	615	
4	0	0	0	0	561	616	
5	0	0	0	0	560	616	
6	0	0	0	0	560	616	
7	0	0	0	0	560	617	
8	0	0	0	0	559	616	
9	0	0	0	0	559	616	
10	0	0	0	0	559	616	
11	0	0	0	0	558	616	
12	0	0	0	0	558	616	
13	0	0	0	0	557	616	
14	0	0	0	0	557	617	
15	0	0	0	0	556	616	
0	0	0	0	0	555	616	
1	0	0	0	0	555	616	
2	0	0	0	0	554	616	
3	0	0	0	0	554	617	
4	0	0	0	0	554	617	
5	0	0	0	0	553	617	
6	0	0	0	0	553	617	
7	0	0	0	0	552	617	
8	0	0	0	0	552	617	
9	0	0	0	0	551	617	
10	0	0	0	0	551	618	
11	0	0	0	0	551	618	
12	0	0	0	0	550	617	
13	0	0	0	0	549	618	
14	0	0	0	0	548	618	
15	0	0	0	0	547	617	
0	0	0	0	0	547	617	
1	0	0	0	0	547	618	
2	0	0	0	0	546	618	
3	0	0	0	0	546	618	
4	0	0	0	0	546	618	
5	0	0	0	0	545	618	
6	0	0	0	0	546	617	
7	0	0	0	0	545	618	
8	0	0	0	0	545	618	
9	0	0	0	0	544	617	
10	0	0	0	0	544	618	
11	0	0	0	0	543	618	
12	0	0	0	0	543	618	
13	0	0	0	0	543	617	
14	0	0	0	0	542	617	
15	0	0	0	0	541	619	
0	0	0	0	0	540	618	
1	0	0	0	0	539	617	
2	0	0	0	0	537	618	
3	0	0	0	0	536	618	
4	0	0	0	0	536	618	
5	0	0	0	0	536	618	
6	0	0	0	0	536	618	
7	0	0	0	0	536	618	
8	0	0	0	0	535	618	
9	0	0	0	0	535	619	
10	0	0	0	0	535	618	
11	0	0	0	0	534	618	
12	0	0	0	0	534	617	
13	0	0	0	0	534	618	
14	0	0	0	0	534	618	
15	0	0	0	0	534	618	
0	0	0	0	0	534	618	
1	0	0	0	0	534	618	
2	0	0	0	0	534	618	
3	0	0	0	0	534	618	
4	0	0	0	0	534	617	
5	0	0	0	0	535	618	
6	0	0	0	0	535	618	
7	0	0	0	0	535	618	
8	0	0	0	0	534	617	
9	0	0	0	0	534	618	
10	0	0	0	0	534	618	
11	0	0	0	0	534	618	
12	0	0	0	0	533	617	
13	0	0	0	0	532	617	
14	0	0	0	0	532	617	
15	0	0	0	0	532	618	
0	0	0	0	0	532	617	
1	0	0	0	0	532	617	
2	0	0	0	0	532	616	
3	0	0	0	0	532	617	
4	0	0	0	0	532	617	
5	0	0	0	0	532	616	
6	0	0	0	0	532	616	
7	0	0	0	0	531	617	
8	0	0	0	0	531	617	
9	0	0	0	0	531	617	
10	0	0	0	0	531	617	
11	0	0	0	0	531	617	
12	0	0	0	0	531	616	
13	0	0	0	0	530	617	
14	0	0	0	0	530	617	
15	0	0	0	0	529	617	
0	0	0	0	0	529	616	
1	0	0	0	0	529	616	
2	0	0	0	0	529	616	
3	0	0	0	0	529	616	
4	0	0	0	0	529	616	
5	0	0	0	0	529	616	
6	0	0	0	0	529	616	
7	0	0	0	0	529	617	
8	0	0	0	0	529	617	
9	0	0	0	0	529	616	
10	0	0	0	0	529	616	
11	0	0	0	0	530	616	
12	0	0	0	0	530	616	
13	0	0	0	0	530	616	
14	0	0	0	0	531	615	
15	0	0	0	0	531	615	
0	0	0	0	0	531	615	
1	0	0	0	0	531	616	
2	0	0	0	0	531	615	
3	0	0	0	0	531	615	
4	0	0	0	0	531	615	
5	0	0	0	0	531	615	
6	0	0	0	0	531	615	
7	0	0	0	0	532	615	
8	0	0	0	0	531	615	
9	0	0	0	0	531	615	
10	0	0	0	0	532	615	
11	0	0	0	0	532	614	
12	0	0	0	0	532	615	
13	0	0	0	0	532	615	
14	0	0	0	0	532	615	
15	0	0	0	0	532	615	
0	0	0	0	0	532	615	
1	0	0	0	0	532	615	
2	0	0	0	0	532	615	
3	0	0	0	0	532	615	
4	0	0	0	0	532	615	
5	0	0	0	0	531	615	
6	0	0	0	0	532	615	
7	0	0	0	0	532	616	
8	0	0	0	0	532	615	
9	0	0	0	0	532	615	
10	0	0	0	0	532	616	
11	0	0	0	0	532	616	
12	0	0	0	0	532	616	
13	0	0	0	0	531	616	
14	0	0	0	0	531	617	
15	0	0	0	0	531	617	
0	0	0	0	0	531	617	
1	0	0	0	0	531	617	
2	0	0	0	0	532	618	
3	0	0	0	0	531	617	
4	0	0	0	0	531	617	
5	0	0	0	0	531	617	
6	0	0	0	0	532	618	
7	0	0	0	0	531	618	
8	0	0	0	0	531	618	
9	0	0	0	0	531	617	
10	0	0	0	0	530	618	
11	0	0	0	0	530	617	
12	0	0	0	0	530	617	
13	0	0	0	0	530	618	
14	0	0	0	0	529	618	
15	0	0	0	0	529	619	
0	0	0	0	0	529	618	
1	0	0	0	0	529	617	
2	0	0	0	0	529	619	
3	0	0	0	0	529	618	
4	0	0	0	0	529	618	
5	0	0	0	0	529	619	
6	0	0	0	0	529	618	
7	0	0	0	0	530	619	
8	0	0	0	0	529	619	
9	0	0	0	0	529	619	
10	0	0	0	0	529	619	
11	0	0	0	0	528	618	
12	0	0	0	0	528	619	
13	0	0	0	0	527	619	
14	0	0	0	0	527	619	
15	0	0	0	0	527	619	
0	0	0	0	0	527	619	
1	0	0	0	0	528	619	
2	0	0	0	0	528	619	
3	0	0	0	0	528	619	
4	0	0	0	0	528	619	
5	0	0	0	0	528	618	
6	0	0	0	0	528	619	
7	0	0	0	0	527	619	
8	0	0	0	0	527	619	
9	0	0	0	0	527	619	
10	0	0	0	0	527	619	
11	0	0	0	0	526	619	
12	0	0	0	0	527	619	
13	0	0	0	0	526	618	
14	0	0	0	0	526	619	
15	0	0	0	0	526	619	
0	0	0	0	0	526	618	
1	0	0	0	0	525	617	
2	0	0	0	0	525	617	
3	0	0	0	0	526	617	
4	0	0	0	0	526	617	
5	0	0	0	0	526	617	
6	0	0	0	0	526	617	
7	0	0	0	0	526	617	
8	0	0	0	0	526	617	
9	0	0	0	0	525	616	
10	0	0	0	0	525	617	
11	0	0	0	0	524	617	
12	0	0	0	0	524	616	
13	0	0	0	0	524	616	
14	0	0	0	0	524	616	
15	0	0	0	0	523	617	
0	0	0	0	0	523	616	
1	0	0	0	0	523	615	
2	0	0	0	0	523	616	
3	0	0	0	0	523	616	
4	0	0	0	0	523	616	
5	0	0	0	0	523	616	
6	0	0	0	0	522	616	
7	0	0	0	0	523	617	
8	0	0	0	0	523	616	
9	0	0	0	0	523	616	
10	0	0	0	0	523	616	
11	0	0	0	0	523	616	
12	0	0	0	0	524	617	
13	0	0	0	0	524	616	
14	0	0	0	0	524	616	
15	0	0	0	0	524	616	
0	0	0	0	0	524	616	
1	0	0	0	0	523	616	
2	0	0	0	0	522	616	
3	0	0	0	0	520	616	
4	0	0	0	0	519	616	
5	0	0	0	0	519	616	
6	0	0	0	0	518	616	
7	0	0	0	0	517	616	
8	0	0	0	0	516	616	
9	0	0	0	0	515	616	
10	0	0	0	0	515	616	
11	0	0	0	0	514	616	
12	0	0	0	0	514	616	
13	0	0	0	0	513	616	
14	0	0	0	0	512	616	
15	0	0	0	0	512	616	
0	0	0	0	0	511	615	
1	0	0	0	0	511	615	
2	0	0	0	0	511	616	
3	0	0	0	0	511	615	
4	0	0	0	0	511	616	
5	0	0	0	0	512	615	
6	0	0	0	0	511	616	
7	0	0	0	0	511	616	
8	0	0	0	0	511	615	
9	0	0	0	0	510	615	
10	0	0	0	0	510	615	
11	0	0	0	0	509	615	
12	0	0	0	0	510	616	
13	0	0	0	0	509	616	
14	0	0	0	0	509	616	
15	0	0	0	0	509	616	
0	0	0	0	0	508	616	
1	0	0	0	0	508	617	
2	0	0	0	0	508	616	
3	0	0	0	0	508	617	
4	0	0	0	0	508	617	
5	0	0	0	0	509	616	
6	0	0	0	0	509	617	
7	0	0	0	0	509	618	
8	0	0	0	0	510	617	
9	0	0	0	0	510	617	
10	0	0	0	0	510	617	
11	0	0	0	0	510	618	
12	0	0	0	0	510	617	
13	0	0	0	0	510	618	
14	0	0	0	0	510	618	
15	0	0	0	0	510	619	
0	0	0	0	0	510	619	
1	0	0	0	0	510	619	
2	0	0	0	0	510	619	
3	0	0	0	0	510	618	
4	0	0	0	0	510	619	
5	0	0	0	0	511	619	
6	0	0	0	0	512	619	
7	0	0	0	0	512	618	
8	0	0	0	0	513	618	
9	0	0	0	0	514	618	
10	0	0	0	0	515	619	
11	0	0	0	0	515	619	
12	0	0	0	0	515	619	
13	0	0	0	0	515	619	
14	0	0	0	0	515	619	
15	0	0	0	0	515	619	
0	0	0	0	0	516	619	
1	0	0	0	0	517	619	
2	0	0	0	0	518	619	
3	0	0	0	0	519	619	
4	0	0	0	0	519	619	
5	0	0	0	0	519	618	
6	0	0	0	0	520	618	
7	0	0	0	0	520	619	
8	0	0	0	0	520	618	
9	0	0	0	0	520	618	
10	0	0	0	0	520	618	
11	0	0	0	0	519	618	
12	0	0	0	0	520	617	
13	0	0	0	0	520	617	
14	0	0	0	0	521	617	
15	0	0	0	0	522	617	
0	0	0	0	0	523	617	
1	0	0	0	0	523	617	
2	0	0	0	0	524	616	
3	0	0	0	0	524	616	
4	0	0	0	0	524	617	
5	0	0	0	0	525	617	
6	0	0	0	0	525	617	
7	0	0	0	0	525	617	
8	0	0	0	0	525	617	
9	0	0	0	0	525	617	
10	0	0	0	0	525	616	
11	0	0	0	0	525	616	
12	0	0	0	0	526	617	
13	0	0	0	0	526	617	
14	0	0	0	0	526	617	
15	0	0	0	0	526	617	
0	0	0	0	0	526	617	
1	0	0	0	0	525	617	
2	0	0	0	0	525	617	
3	0	0	0	0	524	617	
4	0	0	0	0	524	617	
5	0	0	0	0	524	616	
6	0	0	0	0	524	616	
7	0	0	0	0	524	617	
8	0	0	0	0	524	616	
9	0	0	0	0	524	616	
10	0	0	0	0	524	616	
11	0	0	0	0	523	615	
12	0	0	0	0	523	615	
13	0	0	0	0	523	616	
14	0	0	0	0	523	615	
15	0	0	0	0	523	615	
0	0	0	0	0	523	615	
1	0	0	0	0	523	615	
2	0	0	0	0	523	615	
3	0	0	0	0	523	615	
4	0	0	0	0	522	615	
5	0	0	0	0	522	615	
6	0	0	0	0	523	614	
7	0	0	0	0	523	615	
8	0	0	0	0	524	615	
9	0	0	0	0	524	614	
10	0	0	0	0	524	614	
11	0	0	0	0	524	614	
12	0	0	0	0	523	614	
13	0	0	0	0	522	615	
14	0	0	0	0	521	614	
15	0	0	0	0	521	615	
0	0	0	0	0	520	615	
1	0	0	0	0	519	615	
2	0	0	0	0	519	615	
3	0	0	0	0	519	615	
4	0	0	0	0	519	615	
5	0	0	0	0	519	616	
6	0	0	0	0	518	617	
7	0	0	0	0	517	617	
8	0	0	0	0	516	617	
9	0	0	0	0	515	617	
10	0	0	0	0	515	617	
11	0	0	0	0	512	617	
12	0	0	0	0	510	617	
13	0	0	0	0	507	618	
14	0	0	0	0	503	618	
15	0	0	0	0	499	619	
0	0	0	0	0	493	617	
1	0	0	0	0	487	618	
2	0	0	0	0	481	618	
3	0	0	0	0	475	618	
4	0	0	0	0	470	619	
5	0	0	0	0	465	618	
6	0	0	0	0	459	617	
7	0	0	0	0	453	618	
8	0	0	0	0	448	618	
9	0	0	0	0	446	619	
10	0	0	0	0	443	619	
11	0	0	0	0	441	619	
12	0	0	0	0	441	618	
13	0	0	0	0	441	618	
14	0	0	0	0	442	618	
15	0	0	0	0	445	619	
0	0	0	0	0	451	618	
1	0	0	0	0	458	618	
2	0	0	0	0	466	619	
3	0	0	0	0	478	619	
4	0	0	0	0	493	618	
5	0	0	0	0	511	618	
6	0	0	0	0	533	619	
7	0	0	0	0	556	619	
8	0	0	0	0	580	619	
9	0	0	0	0	606	619	
10	0	0	0	0	632	618	
11	0	0	0	0	659	618	
12	0	0	0	0	685	618	
13	0	0	0	0	708	618	
14	0	0	0	0	726	618	
15	0	0	0	0	741	619	
0	0	0	0	0	754	618	
1	0	0	0	0	764	619	
2	0	0	0	0	775	619	
3	0	0	0	0	783	619	
4	0	0	0	0	792	618	
5	0	0	0	0	796	618	
6	0	0	0	0	795	618	
7	0	0	0	0	795	619	
8	0	0	0	0	793	617	
9	0	0	0	0	790	617	
10	0	0	0	0	781	617	
11	0	0	0	0	764	617	
12	0	0	0	0	745	618	
13	0	0	0	0	723	617	
14	0	0	0	0	702	617	
15	0	0	0	0	681	617	
0	0	0	0	0	661	617	
1	0	0	0	0	643	618	
2	0	0	0	0	628	618	
3	0	0	0	0	613	617	
4	0	0	0	0	600	617	
5	0	0	0	0	588	617	
6	0	0	0	0	576	617	
7	0	0	0	0	566	617	
8	0	0	0	0	555	617	
9	0	0	0	0	545	617	
10	0	0	0	0	535	616	
11	0	0	0	0	525	617	
12	0	0	0	0	516	616	
13	0	0	0	0	508	616	
14	0	0	0	0	499	616	
15	0	0	0	0	492	615	
0	0	0	0	0	486	615	
1	0	0	0	0	480	615	
2	0	0	0	0	476	615	
3	0	0	0	0	471	615	
4	0	0	0	0	467	615	
5	0	0	0	0	463	615	
6	0	0	0	0	459	615	
7	0	0	0	0	456	615	
8	0	0	0	0	454	615	
9	0	0	0	0	451	615	
10	0	0	0	0	449	615	
11	0	0	0	0	447	615	
12	0	0	0	0	445	615	
13	0	0	0	0	444	615	
14	0	0	0	0	441	615	
15	0	0	0	0	441	616	
0	0	0	0	0	440	615	
1	0	0	0	0	439	615	
2	0	0	0	0	438	615	
3	0	0	0	0	438	615	
4	0	0	0	0	437	616	
5	0	0	0	0	436	615	
6	0	0	0	0	436	615	
7	0	0	0	0	436	616	
8	0	0	0	0	436	615	
9	0	0	0	0	436	616	
10	0	0	0	0	436	616	
11	0	0	0	0	437	616	
12	0	0	0	0	437	615	
13	0	0	0	0	438	616	
14	0	0	0	0	438	616	
15	0	0	0	0	438	617	
0	0	0	0	0	439	616	
1	0	0	0	0	439	617	
2	0	0	0	0	439	616	
3	0	0	0	0	439	616	
4	0	0	0	0	440	616	
5	0	0	0	0	440	616	
6	0	0	0	0	440	616	
7	0	0	0	0	440	617	
8	0	0	0	0	441	616	
9	0	0	0	0	441	615	
10	0	0	0	0	441	616	
11	0	0	0	0	441	616	
12	0	0	0	0	441	615	
13	0	0	0	0	442	616	
14	0	0	0	0	443	615	
15	0	0	0	0	444	617	
0	0	0	0	0	445	616	
1	0	0	0	0	446	616	
2	0	0	0	0	446	617	
3	0	0	0	0	447	616	
4	0	0	0	0	447	616	
5	0	0	0	0	448	616	
6	0	0	0	0	448	616	
7	0	0	0	0	448	617	
8	0	0	0	0	449	617	
9	0	0	0	0	449	617	
10	0	0	0	0	450	617	
11	0	0	0	0	450	617	
12	0	0	0	0	450	618	
13	0	0	0	0	450	617	
14	0	0	0	0	450	617	
15	0	0	0	0	450	617	
0	0	0	0	0	449	617	
1	0	0	0	0	449	618	
2	0	0	0	0	449	618	
3	0	0	0	0	449	618	
4	0	0	0	0	450	618	
5	0	0	0	0	450	618	
6	0	0	0	0	451	618	
7	0	0	0	0	452	619	
8	0	0	0	0	452	619	
9	0	0	0	0	452	618	
10	0	0	0	0	451	619	
11	0	0	0	0	452	619	
12	0	0	0	0	451	619	
13	0	0	0	0	451	618	
14	0	0	0	0	451	619	
15	0	0	0	0	451	619	
0	0	0	0	0	451	619	
1	0	0	0	0	451	619	
2	0	0	0	0	451	619	
3	0	0	0	0	452	619	
4	0	0	0	0	452	619	
5	0	0	0	0	453	619	
6	0	0	0	0	454	620	
7	0	0	0	0	454	620	
8	0	0	0	0	454	618	
9	0	0	0	0	454	619	
10	0	0	0	0	455	618	
11	0	0	0	0	454	618	
12	0	0	0	0	454	619	
13	0	0	0	0	454	619	
14	0	0	0	0	454	619	
15	0	0	0	0	454	620	
0	0	0	0	0	454	619	
1	0	0	0	0	455	619	
2	0	0	0	0	455	619	
3	0	0	0	0	455	618	
4	0	0	0	0	455	619	
5	0	0	0	0	455	618	
6	0	0	0	0	455	618	
7	0	0	0	0	455	618	
8	0	0	0	0	455	618	
9	0	0	0	0	455	618	
10	0	0	0	0	456	617	
11	0	0	0	0	456	617	
12	0	0	0	0	456	617	
13	0	0	0	0	457	617	
14	0	0	0	0	457	617	
15	0	0	0	0	458	617	
0	0	0	0	0	458	617	
1	0	0	0	0	459	617	
2	0	0	0	0	458	616	
3	0	0	0	0	459	617	
4	0	0	0	0	459	617	
5	0	0	0	0	459	617	
6	0	0	0	0	459	616	
7	0	0	0	0	459	617	
8	0	0	0	0	459	617	
9	0	0	0	0	459	616	
10	0	0	0	0	458	616	
11	0	0	0	0	458	616	
12	0	0	0	0	458	616	
13	0	0	0	0	459	616	
14	0	0	0	0	459	616	
15	0	0	0	0	459	616	
0	0	0	0	0	459	616	
1	0	0	0	0	459	615	
2	0	0	0	0	459	616	
3	0	0	0	0	458	615	
4	0	0	0	0	458	616	
5	0	0	0	0	458	615	
6	0	0	0	0	457	616	
7	0	0	0	0	457	616	
8	0	0	0	0	456	615	
9	0	0	0	0	456	615	
10	0	0	0	0	456	615	
11	0	0	0	0	456	615	
12	0	0	0	0	456	615	
13	0	0	0	0	456	615	
14	0	0	0	0	457	615	
15	0	0	0	0	457	616	
0	0	0	0	0	457	615	
1	0	0	0	0	457	616	
2	0	0	0	0	458	615	
3	0	0	0	0	458	615	
4	0	0	0	0	459	615	
5	0	0	0	0	459	615	
6	0	0	0	0	460	615	
7	0	0	0	0	461	616	
8	0	0	0	0	460	615	
9	0	0	0	0	461	616	
10	0	0	0	0	462	615	
11	0	0	0	0	462	616	
12	0	0	0	0	462	616	
13	0	0	0	0	463	616	
14	0	0	0	0	463	616	
15	0	0	0	0	463	616	
0	0	0	0	0	463	616	
1	0	0	0	0	463	616	
2	0	0	0	0	463	616	
3	0	0	0	0	464	616	
4	0	0	0	0	464	616	
5	0	0	0	0	465	617	
6	0	0	0	0	466	616	
7	0	0	0	0	467	617	
8	0	0	0	0	468	617	
9	0	0	0	0	468	617	
10	0	0	0	0	469	617	
11	0	0	0	0	470	617	
12	0	0	0	0	471	617	
13	0	0	0	0	472	617	
14	0	0	0	0	473	617	
15	0	0	0	0	475	618	
0	0	0	0	0	475	617	
1	0	0	0	0	476	617	
2	0	0	0	0	477	617	
3	0	0	0	0	478	617	
4	0	0	0	0	479	617	
5	0	0	0	0	480	617	
6	0	0	0	0	481	617	
7	0	0	0	0	481	617	
8	0	0	0	0	482	617	
9	0	0	0	0	484	616	
10	0	0	0	0	485	617	
11	0	0	0	0	487	617	
12	0	0	0	0	488	617	
13	0	0	0	0	490	617	
14	0	0	0	0	492	617	
15	0	0	0	0	493	617	
0	0	0	0	0	495	617	
1	0	0	0	0	496	617	
2	0	0	0	0	497	617	
3	0	0	0	0	499	617	
