# OpenSignals Text File Format. Version 1
# {"98:D3:91:FD:69:48": {"position": 0, "device": "bitalino_rev", "device name": "98:D3:91:FD:69:48", "device connection": "BTH98:D3:91:FD:69:48", "sampling rate": 1000, "resolution": [4, 1, 1, 1, 1, 10, 10], "firmware version": 1281, "comments": "", "keywords": "", "mode": 0, "sync interval": 2, "date": "2021-9-13", "time": "21:56:52.487", "channels": [2, 5], "sensor": ["RAW", "RAW"], "label": ["A2", "A5"], "column": ["nSeq", "I1", "I2", "O1", "O2", "A2", "A5"], "special": [{}, {}], "digital IO": [0, 0, 1, 1], "convertedValues": 0}}
# EndOfHeader
0	0	0	0	0	511	429	
1	0	0	0	0	511	430	
2	0	0	0	0	511	429	
3	0	0	0	0	511	429	
4	0	0	0	0	511	429	
5	0	0	0	0	511	429	
6	0	0	0	0	511	428	
7	0	0	0	0	511	428	
8	0	0	0	0	511	429	
9	0	0	0	0	511	430	
10	0	0	0	0	511	428	
11	0	0	0	0	511	429	
12	0	0	0	0	511	429	
13	0	0	0	0	511	428	
14	0	0	0	0	511	429	
15	0	0	0	0	511	429	
0	0	0	0	0	510	429	
1	0	0	0	0	510	430	
2	0	0	0	0	510	429	
3	0	0	0	0	509	429	
4	0	0	0	0	509	429	
5	0	0	0	0	508	428	
6	0	0	0	0	508	428	
7	0	0	0	0	509	429	
8	0	0	0	0	510	429	
9	0	0	0	0	511	430	
10	0	0	0	0	511	429	
11	0	0	0	0	511	430	
12	0	0	0	0	512	429	
13	0	0	0	0	511	429	
14	0	0	0	0	512	429	
15	0	0	0	0	512	428	
0	0	0	0	0	512	429	
1	0	0	0	0	512	429	
2	0	0	0	0	512	428	
3	0	0	0	0	513	428	
4	0	0	0	0	513	428	
5	0	0	0	0	513	427	
6	0	0	0	0	513	428	
7	0	0	0	0	513	428	
8	0	0	0	0	513	428	
9	0	0	0	0	513	428	
10	0	0	0	0	512	427	
11	0	0	0	0	512	428	
12	0	0	0	0	512	428	
13	0	0	0	0	512	427	
14	0	0	0	0	512	428	
15	0	0	0	0	513	427	
0	0	0	0	0	513	427	
1	0	0	0	0	513	428	
2	0	0	0	0	513	427	
3	0	0	0	0	513	427	
4	0	0	0	0	513	427	
5	0	0	0	0	513	427	
6	0	0	0	0	514	427	
7	0	0	0	0	513	427	
8	0	0	0	0	513	428	
9	0	0	0	0	512	429	
10	0	0	0	0	512	428	
11	0	0	0	0	512	428	
12	0	0	0	0	512	428	
13	0	0	0	0	512	428	
14	0	0	0	0	512	429	
15	0	0	0	0	512	429	
0	0	0	0	0	512	429	
1	0	0	0	0	512	430	
2	0	0	0	0	512	429	
3	0	0	0	0	512	430	
4	0	0	0	0	511	429	
5	0	0	0	0	511	429	
6	0	0	0	0	511	430	
7	0	0	0	0	511	430	
8	0	0	0	0	511	430	
9	0	0	0	0	512	431	
10	0	0	0	0	512	430	
11	0	0	0	0	512	430	
12	0	0	0	0	512	430	
13	0	0	0	0	512	429	
14	0	0	0	0	512	430	
15	0	0	0	0	512	430	
0	0	0	0	0	512	430	
1	0	0	0	0	512	431	
2	0	0	0	0	512	429	
3	0	0	0	0	512	430	
4	0	0	0	0	512	430	
5	0	0	0	0	512	430	
6	0	0	0	0	512	429	
7	0	0	0	0	512	430	
8	0	0	0	0	512	429	
9	0	0	0	0	512	431	
10	0	0	0	0	512	431	
11	0	0	0	0	512	431	
12	0	0	0	0	512	430	
13	0	0	0	0	512	430	
14	0	0	0	0	512	431	
15	0	0	0	0	512	431	
0	0	0	0	0	512	431	
1	0	0	0	0	512	433	
2	0	0	0	0	512	432	
3	0	0	0	0	512	432	
4	0	0	0	0	512	432	
5	0	0	0	0	512	432	
6	0	0	0	0	512	432	
7	0	0	0	0	512	432	
8	0	0	0	0	512	432	
9	0	0	0	0	512	432	
10	0	0	0	0	513	431	
11	0	0	0	0	513	431	
12	0	0	0	0	513	431	
13	0	0	0	0	513	430	
14	0	0	0	0	513	431	
15	0	0	0	0	513	431	
0	0	0	0	0	513	430	
1	0	0	0	0	513	431	
2	0	0	0	0	514	429	
3	0	0	0	0	514	430	
4	0	0	0	0	513	429	
5	0	0	0	0	513	429	
6	0	0	0	0	513	429	
7	0	0	0	0	513	429	
8	0	0	0	0	514	429	
9	0	0	0	0	513	429	
10	0	0	0	0	513	428	
11	0	0	0	0	513	429	
12	0	0	0	0	514	428	
13	0	0	0	0	514	428	
14	0	0	0	0	514	428	
15	0	0	0	0	514	429	
0	0	0	0	0	513	429	
1	0	0	0	0	513	430	
2	0	0	0	0	513	429	
3	0	0	0	0	514	428	
4	0	0	0	0	514	428	
5	0	0	0	0	514	428	
6	0	0	0	0	514	428	
7	0	0	0	0	514	428	
8	0	0	0	0	514	428	
9	0	0	0	0	513	428	
10	0	0	0	0	514	428	
11	0	0	0	0	514	428	
12	0	0	0	0	515	428	
13	0	0	0	0	515	428	
14	0	0	0	0	515	428	
15	0	0	0	0	515	428	
0	0	0	0	0	515	428	
1	0	0	0	0	514	428	
2	0	0	0	0	514	428	
3	0	0	0	0	514	428	
4	0	0	0	0	514	428	
5	0	0	0	0	514	428	
6	0	0	0	0	514	428	
7	0	0	0	0	514	428	
8	0	0	0	0	515	428	
9	0	0	0	0	515	428	
10	0	0	0	0	514	427	
11	0	0	0	0	515	428	
12	0	0	0	0	515	428	
13	0	0	0	0	515	427	
14	0	0	0	0	514	428	
15	0	0	0	0	514	428	
0	0	0	0	0	514	427	
1	0	0	0	0	514	428	
2	0	0	0	0	514	427	
3	0	0	0	0	514	427	
4	0	0	0	0	515	427	
5	0	0	0	0	515	427	
6	0	0	0	0	515	427	
7	0	0	0	0	514	427	
8	0	0	0	0	514	427	
9	0	0	0	0	514	428	
10	0	0	0	0	514	428	
11	0	0	0	0	514	428	
12	0	0	0	0	515	428	
13	0	0	0	0	514	427	
14	0	0	0	0	514	428	
15	0	0	0	0	513	428	
0	0	0	0	0	513	428	
1	0	0	0	0	512	429	
2	0	0	0	0	512	428	
3	0	0	0	0	513	428	
4	0	0	0	0	513	428	
5	0	0	0	0	513	428	
6	0	0	0	0	513	428	
7	0	0	0	0	513	429	
8	0	0	0	0	513	428	
9	0	0	0	0	513	430	
10	0	0	0	0	513	429	
11	0	0	0	0	513	429	
12	0	0	0	0	513	429	
13	0	0	0	0	514	428	
14	0	0	0	0	515	429	
15	0	0	0	0	515	429	
0	0	0	0	0	515	429	
1	0	0	0	0	515	430	
2	0	0	0	0	515	429	
3	0	0	0	0	515	430	
4	0	0	0	0	515	430	
5	0	0	0	0	515	430	
6	0	0	0	0	514	430	
7	0	0	0	0	515	429	
8	0	0	0	0	515	430	
9	0	0	0	0	515	430	
10	0	0	0	0	516	431	
11	0	0	0	0	516	430	
12	0	0	0	0	516	431	
13	0	0	0	0	517	430	
14	0	0	0	0	518	431	
15	0	0	0	0	517	431	
0	0	0	0	0	517	431	
1	0	0	0	0	517	432	
2	0	0	0	0	517	431	
3	0	0	0	0	518	431	
4	0	0	0	0	518	431	
5	0	0	0	0	518	431	
6	0	0	0	0	518	431	
7	0	0	0	0	519	431	
8	0	0	0	0	519	432	
9	0	0	0	0	518	433	
10	0	0	0	0	518	432	
11	0	0	0	0	518	432	
12	0	0	0	0	518	432	
13	0	0	0	0	518	431	
14	0	0	0	0	518	432	
15	0	0	0	0	517	432	
0	0	0	0	0	517	431	
1	0	0	0	0	516	432	
2	0	0	0	0	517	432	
3	0	0	0	0	517	431	
4	0	0	0	0	517	431	
5	0	0	0	0	516	431	
6	0	0	0	0	516	431	
7	0	0	0	0	516	431	
8	0	0	0	0	516	431	
9	0	0	0	0	516	431	
10	0	0	0	0	516	430	
11	0	0	0	0	516	430	
12	0	0	0	0	516	430	
13	0	0	0	0	517	430	
14	0	0	0	0	517	431	
15	0	0	0	0	517	430	
0	0	0	0	0	518	430	
1	0	0	0	0	518	431	
2	0	0	0	0	518	430	
3	0	0	0	0	519	430	
4	0	0	0	0	520	430	
5	0	0	0	0	521	430	
6	0	0	0	0	521	429	
7	0	0	0	0	521	430	
8	0	0	0	0	520	430	
9	0	0	0	0	520	430	
10	0	0	0	0	519	429	
11	0	0	0	0	519	429	
12	0	0	0	0	518	429	
13	0	0	0	0	518	428	
14	0	0	0	0	517	429	
15	0	0	0	0	516	429	
0	0	0	0	0	517	429	
1	0	0	0	0	516	430	
2	0	0	0	0	516	429	
3	0	0	0	0	517	429	
4	0	0	0	0	517	429	
5	0	0	0	0	517	429	
6	0	0	0	0	516	429	
7	0	0	0	0	517	428	
8	0	0	0	0	517	428	
9	0	0	0	0	517	429	
10	0	0	0	0	517	427	
11	0	0	0	0	517	428	
12	0	0	0	0	517	427	
13	0	0	0	0	517	427	
14	0	0	0	0	517	427	
15	0	0	0	0	516	426	
0	0	0	0	0	517	427	
1	0	0	0	0	516	428	
2	0	0	0	0	516	427	
3	0	0	0	0	516	427	
4	0	0	0	0	516	428	
5	0	0	0	0	516	427	
6	0	0	0	0	517	427	
7	0	0	0	0	517	427	
8	0	0	0	0	517	428	
9	0	0	0	0	517	428	
10	0	0	0	0	517	427	
11	0	0	0	0	518	427	
12	0	0	0	0	518	427	
13	0	0	0	0	517	425	
14	0	0	0	0	517	426	
15	0	0	0	0	516	426	
0	0	0	0	0	515	426	
1	0	0	0	0	515	427	
2	0	0	0	0	514	427	
3	0	0	0	0	513	426	
4	0	0	0	0	512	427	
5	0	0	0	0	511	427	
6	0	0	0	0	508	428	
7	0	0	0	0	506	428	
8	0	0	0	0	502	427	
9	0	0	0	0	497	429	
10	0	0	0	0	492	428	
11	0	0	0	0	486	428	
12	0	0	0	0	481	428	
13	0	0	0	0	475	428	
14	0	0	0	0	469	429	
15	0	0	0	0	462	430	
0	0	0	0	0	455	429	
1	0	0	0	0	450	431	
2	0	0	0	0	444	431	
3	0	0	0	0	439	430	
4	0	0	0	0	434	430	
5	0	0	0	0	431	430	
6	0	0	0	0	427	430	
7	0	0	0	0	423	430	
8	0	0	0	0	421	430	
9	0	0	0	0	419	431	
10	0	0	0	0	416	430	
11	0	0	0	0	412	431	
12	0	0	0	0	405	430	
13	0	0	0	0	400	430	
14	0	0	0	0	399	431	
15	0	0	0	0	401	431	
0	0	0	0	0	406	430	
1	0	0	0	0	414	432	
2	0	0	0	0	427	431	
3	0	0	0	0	443	432	
4	0	0	0	0	463	432	
5	0	0	0	0	483	431	
6	0	0	0	0	504	431	
7	0	0	0	0	525	431	
8	0	0	0	0	543	431	
9	0	0	0	0	557	432	
10	0	0	0	0	565	431	
11	0	0	0	0	569	432	
12	0	0	0	0	574	432	
13	0	0	0	0	581	432	
14	0	0	0	0	589	432	
15	0	0	0	0	595	431	
0	0	0	0	0	600	432	
1	0	0	0	0	601	432	
2	0	0	0	0	600	432	
3	0	0	0	0	597	431	
4	0	0	0	0	596	432	
5	0	0	0	0	596	431	
6	0	0	0	0	598	431	
7	0	0	0	0	605	431	
8	0	0	0	0	615	431	
9	0	0	0	0	629	432	
10	0	0	0	0	641	430	
11	0	0	0	0	653	431	
12	0	0	0	0	662	430	
13	0	0	0	0	667	429	
14	0	0	0	0	669	430	
15	0	0	0	0	668	430	
0	0	0	0	0	664	429	
1	0	0	0	0	659	429	
2	0	0	0	0	650	428	
3	0	0	0	0	640	429	
4	0	0	0	0	629	428	
5	0	0	0	0	618	428	
6	0	0	0	0	608	428	
7	0	0	0	0	598	428	
8	0	0	0	0	591	428	
9	0	0	0	0	583	428	
10	0	0	0	0	576	428	
11	0	0	0	0	570	428	
12	0	0	0	0	564	427	
13	0	0	0	0	560	427	
14	0	0	0	0	556	428	
15	0	0	0	0	552	428	
0	0	0	0	0	548	427	
1	0	0	0	0	544	428	
2	0	0	0	0	541	427	
3	0	0	0	0	537	427	
4	0	0	0	0	533	427	
5	0	0	0	0	529	427	
6	0	0	0	0	526	427	
7	0	0	0	0	522	427	
8	0	0	0	0	519	428	
9	0	0	0	0	516	428	
10	0	0	0	0	513	427	
11	0	0	0	0	511	428	
12	0	0	0	0	510	428	
13	0	0	0	0	508	427	
14	0	0	0	0	506	427	
15	0	0	0	0	505	427	
0	0	0	0	0	504	428	
1	0	0	0	0	503	428	
2	0	0	0	0	503	427	
3	0	0	0	0	503	427	
4	0	0	0	0	503	428	
5	0	0	0	0	503	428	
6	0	0	0	0	502	428	
7	0	0	0	0	501	428	
8	0	0	0	0	500	427	
9	0	0	0	0	499	428	
10	0	0	0	0	498	428	
11	0	0	0	0	498	428	
12	0	0	0	0	497	429	
13	0	0	0	0	497	429	
14	0	0	0	0	497	429	
15	0	0	0	0	497	429	
0	0	0	0	0	497	430	
1	0	0	0	0	498	430	
2	0	0	0	0	498	430	
3	0	0	0	0	497	430	
4	0	0	0	0	498	430	
5	0	0	0	0	498	430	
6	0	0	0	0	498	430	
7	0	0	0	0	498	430	
8	0	0	0	0	498	430	
9	0	0	0	0	497	431	
10	0	0	0	0	497	430	
11	0	0	0	0	498	430	
12	0	0	0	0	498	431	
13	0	0	0	0	499	430	
14	0	0	0	0	499	431	
15	0	0	0	0	499	431	
0	0	0	0	0	499	431	
1	0	0	0	0	498	432	
2	0	0	0	0	498	431	
3	0	0	0	0	497	431	
4	0	0	0	0	498	431	
5	0	0	0	0	497	431	
6	0	0	0	0	498	432	
7	0	0	0	0	499	432	
8	0	0	0	0	498	431	
9	0	0	0	0	498	433	
10	0	0	0	0	498	431	
11	0	0	0	0	499	432	
12	0	0	0	0	499	432	
13	0	0	0	0	498	431	
14	0	0	0	0	499	431	
15	0	0	0	0	498	432	
0	0	0	0	0	498	432	
1	0	0	0	0	498	432	
2	0	0	0	0	498	431	
3	0	0	0	0	499	431	
4	0	0	0	0	499	431	
5	0	0	0	0	499	431	
6	0	0	0	0	499	431	
7	0	0	0	0	499	431	
8	0	0	0	0	499	431	
9	0	0	0	0	500	432	
10	0	0	0	0	499	430	
11	0	0	0	0	500	430	
12	0	0	0	0	500	431	
13	0	0	0	0	500	430	
14	0	0	0	0	501	430	
15	0	0	0	0	501	430	
0	0	0	0	0	501	430	
1	0	0	0	0	502	431	
2	0	0	0	0	502	429	
3	0	0	0	0	502	429	
4	0	0	0	0	502	429	
5	0	0	0	0	502	429	
6	0	0	0	0	502	429	
7	0	0	0	0	502	430	
8	0	0	0	0	501	429	
9	0	0	0	0	501	429	
10	0	0	0	0	501	428	
11	0	0	0	0	500	428	
12	0	0	0	0	501	428	
13	0	0	0	0	501	427	
14	0	0	0	0	500	427	
15	0	0	0	0	501	427	
0	0	0	0	0	501	427	
1	0	0	0	0	500	427	
2	0	0	0	0	500	426	
3	0	0	0	0	500	426	
4	0	0	0	0	500	426	
5	0	0	0	0	500	425	
6	0	0	0	0	500	425	
7	0	0	0	0	499	426	
8	0	0	0	0	499	425	
9	0	0	0	0	499	426	
10	0	0	0	0	499	425	
11	0	0	0	0	499	425	
12	0	0	0	0	501	425	
13	0	0	0	0	500	425	
14	0	0	0	0	501	425	
15	0	0	0	0	501	425	
0	0	0	0	0	501	426	
1	0	0	0	0	501	427	
2	0	0	0	0	500	425	
3	0	0	0	0	500	426	
4	0	0	0	0	499	425	
5	0	0	0	0	499	425	
6	0	0	0	0	499	426	
7	0	0	0	0	498	426	
8	0	0	0	0	498	427	
9	0	0	0	0	498	427	
10	0	0	0	0	498	426	
11	0	0	0	0	498	427	
12	0	0	0	0	498	427	
13	0	0	0	0	499	426	
14	0	0	0	0	499	427	
15	0	0	0	0	499	427	
0	0	0	0	0	499	427	
1	0	0	0	0	499	428	
2	0	0	0	0	499	427	
3	0	0	0	0	499	427	
4	0	0	0	0	499	427	
5	0	0	0	0	499	427	
6	0	0	0	0	499	427	
7	0	0	0	0	499	427	
8	0	0	0	0	499	427	
9	0	0	0	0	499	428	
10	0	0	0	0	499	428	
11	0	0	0	0	500	428	
12	0	0	0	0	500	428	
13	0	0	0	0	500	428	
14	0	0	0	0	500	428	
15	0	0	0	0	500	428	
0	0	0	0	0	499	428	
1	0	0	0	0	499	430	
2	0	0	0	0	500	429	
3	0	0	0	0	500	430	
4	0	0	0	0	502	429	
5	0	0	0	0	502	430	
6	0	0	0	0	502	430	
7	0	0	0	0	502	430	
8	0	0	0	0	502	430	
9	0	0	0	0	503	431	
10	0	0	0	0	504	430	
11	0	0	0	0	504	430	
12	0	0	0	0	504	430	
13	0	0	0	0	504	431	
14	0	0	0	0	504	431	
15	0	0	0	0	504	431	
0	0	0	0	0	505	431	
1	0	0	0	0	506	431	
2	0	0	0	0	507	431	
3	0	0	0	0	508	431	
4	0	0	0	0	509	431	
5	0	0	0	0	510	432	
6	0	0	0	0	510	432	
7	0	0	0	0	511	432	
8	0	0	0	0	511	432	
9	0	0	0	0	512	433	
10	0	0	0	0	513	433	
11	0	0	0	0	513	432	
12	0	0	0	0	514	433	
13	0	0	0	0	514	432	
14	0	0	0	0	515	432	
15	0	0	0	0	515	433	
0	0	0	0	0	515	433	
1	0	0	0	0	515	433	
2	0	0	0	0	517	433	
3	0	0	0	0	518	433	
4	0	0	0	0	519	433	
5	0	0	0	0	520	433	
6	0	0	0	0	521	433	
7	0	0	0	0	522	433	
8	0	0	0	0	522	434	
9	0	0	0	0	523	434	
10	0	0	0	0	523	433	
11	0	0	0	0	524	434	
12	0	0	0	0	524	433	
13	0	0	0	0	526	434	
14	0	0	0	0	526	434	
15	0	0	0	0	527	434	
0	0	0	0	0	527	434	
1	0	0	0	0	528	435	
2	0	0	0	0	527	433	
3	0	0	0	0	528	433	
4	0	0	0	0	528	434	
5	0	0	0	0	529	433	
6	0	0	0	0	529	433	
7	0	0	0	0	529	433	
8	0	0	0	0	529	433	
9	0	0	0	0	528	433	
10	0	0	0	0	529	432	
11	0	0	0	0	528	432	
12	0	0	0	0	528	433	
13	0	0	0	0	528	432	
14	0	0	0	0	528	433	
15	0	0	0	0	528	432	
0	0	0	0	0	527	432	
1	0	0	0	0	527	432	
2	0	0	0	0	527	432	
3	0	0	0	0	526	431	
4	0	0	0	0	525	430	
5	0	0	0	0	525	430	
6	0	0	0	0	524	430	
7	0	0	0	0	524	430	
8	0	0	0	0	524	430	
9	0	0	0	0	523	430	
10	0	0	0	0	523	429	
11	0	0	0	0	523	430	
12	0	0	0	0	522	429	
13	0	0	0	0	521	429	
14	0	0	0	0	521	429	
15	0	0	0	0	520	428	
0	0	0	0	0	519	428	
1	0	0	0	0	518	428	
2	0	0	0	0	518	428	
3	0	0	0	0	517	427	
4	0	0	0	0	516	427	
5	0	0	0	0	516	427	
6	0	0	0	0	515	427	
7	0	0	0	0	515	426	
8	0	0	0	0	515	427	
9	0	0	0	0	515	426	
10	0	0	0	0	514	426	
11	0	0	0	0	514	426	
12	0	0	0	0	514	425	
13	0	0	0	0	514	424	
14	0	0	0	0	513	424	
15	0	0	0	0	512	425	
0	0	0	0	0	512	425	
1	0	0	0	0	512	425	
2	0	0	0	0	511	425	
3	0	0	0	0	511	425	
4	0	0	0	0	511	424	
5	0	0	0	0	511	425	
6	0	0	0	0	510	424	
7	0	0	0	0	510	424	
8	0	0	0	0	510	424	
9	0	0	0	0	510	425	
10	0	0	0	0	510	425	
11	0	0	0	0	510	425	
12	0	0	0	0	510	425	
13	0	0	0	0	510	425	
14	0	0	0	0	510	426	
15	0	0	0	0	510	426	
0	0	0	0	0	510	425	
1	0	0	0	0	510	427	
2	0	0	0	0	510	425	
3	0	0	0	0	509	425	
4	0	0	0	0	509	425	
5	0	0	0	0	510	425	
6	0	0	0	0	510	425	
7	0	0	0	0	510	425	
8	0	0	0	0	510	426	
9	0	0	0	0	510	427	
10	0	0	0	0	510	425	
11	0	0	0	0	510	426	
12	0	0	0	0	510	427	
13	0	0	0	0	510	427	
14	0	0	0	0	510	427	
15	0	0	0	0	510	427	
0	0	0	0	0	510	428	
1	0	0	0	0	510	429	
2	0	0	0	0	510	428	
3	0	0	0	0	510	428	
4	0	0	0	0	510	429	
5	0	0	0	0	510	429	
6	0	0	0	0	509	429	
7	0	0	0	0	509	429	
8	0	0	0	0	509	429	
9	0	0	0	0	509	431	
10	0	0	0	0	510	430	
11	0	0	0	0	510	430	
12	0	0	0	0	510	430	
13	0	0	0	0	510	430	
14	0	0	0	0	510	431	
15	0	0	0	0	510	431	
0	0	0	0	0	509	431	
1	0	0	0	0	509	432	
2	0	0	0	0	510	431	
3	0	0	0	0	510	431	
4	0	0	0	0	510	432	
5	0	0	0	0	510	431	
6	0	0	0	0	510	431	
7	0	0	0	0	511	432	
8	0	0	0	0	511	431	
9	0	0	0	0	511	432	
10	0	0	0	0	511	432	
11	0	0	0	0	511	431	
12	0	0	0	0	511	431	
13	0	0	0	0	511	432	
14	0	0	0	0	511	432	
15	0	0	0	0	511	431	
0	0	0	0	0	511	432	
1	0	0	0	0	511	433	
2	0	0	0	0	511	432	
3	0	0	0	0	510	432	
4	0	0	0	0	510	432	
5	0	0	0	0	510	432	
6	0	0	0	0	510	431	
7	0	0	0	0	510	432	
8	0	0	0	0	511	432	
9	0	0	0	0	511	432	
10	0	0	0	0	511	431	
11	0	0	0	0	511	432	
12	0	0	0	0	511	431	
13	0	0	0	0	511	432	
14	0	0	0	0	511	432	
15	0	0	0	0	511	432	
0	0	0	0	0	511	432	
1	0	0	0	0	511	432	
2	0	0	0	0	511	432	
3	0	0	0	0	511	431	
4	0	0	0	0	511	432	
5	0	0	0	0	511	431	
6	0	0	0	0	511	432	
7	0	0	0	0	511	431	
8	0	0	0	0	511	432	
9	0	0	0	0	510	432	
10	0	0	0	0	511	431	
11	0	0	0	0	511	431	
12	0	0	0	0	511	430	
13	0	0	0	0	511	430	
14	0	0	0	0	511	430	
15	0	0	0	0	510	431	
0	0	0	0	0	510	431	
1	0	0	0	0	510	432	
2	0	0	0	0	510	430	
3	0	0	0	0	511	430	
4	0	0	0	0	511	430	
5	0	0	0	0	511	430	
6	0	0	0	0	511	430	
7	0	0	0	0	511	430	
8	0	0	0	0	511	429	
9	0	0	0	0	511	430	
10	0	0	0	0	512	429	
11	0	0	0	0	512	429	
12	0	0	0	0	512	429	
13	0	0	0	0	512	428	
14	0	0	0	0	511	428	
15	0	0	0	0	510	428	
0	0	0	0	0	510	428	
1	0	0	0	0	510	428	
2	0	0	0	0	511	427	
3	0	0	0	0	511	428	
4	0	0	0	0	511	428	
5	0	0	0	0	511	427	
6	0	0	0	0	511	427	
7	0	0	0	0	511	427	
8	0	0	0	0	511	426	
9	0	0	0	0	511	428	
10	0	0	0	0	512	427	
11	0	0	0	0	512	427	
12	0	0	0	0	512	427	
13	0	0	0	0	512	427	
14	0	0	0	0	512	427	
15	0	0	0	0	512	427	
0	0	0	0	0	512	428	
1	0	0	0	0	511	428	
2	0	0	0	0	511	428	
3	0	0	0	0	511	427	
4	0	0	0	0	512	427	
5	0	0	0	0	512	426	
6	0	0	0	0	512	427	
7	0	0	0	0	512	427	
8	0	0	0	0	512	427	
9	0	0	0	0	513	428	
10	0	0	0	0	513	427	
11	0	0	0	0	512	427	
12	0	0	0	0	512	428	
13	0	0	0	0	512	427	
14	0	0	0	0	512	428	
15	0	0	0	0	512	428	
0	0	0	0	0	512	427	
1	0	0	0	0	512	428	
2	0	0	0	0	512	428	
3	0	0	0	0	513	429	
4	0	0	0	0	513	428	
5	0	0	0	0	513	428	
6	0	0	0	0	513	428	
7	0	0	0	0	513	428	
8	0	0	0	0	514	428	
9	0	0	0	0	514	429	
10	0	0	0	0	514	428	
11	0	0	0	0	515	428	
12	0	0	0	0	515	428	
13	0	0	0	0	515	428	
14	0	0	0	0	514	428	
15	0	0	0	0	515	428	
0	0	0	0	0	514	428	
1	0	0	0	0	514	429	
2	0	0	0	0	513	428	
3	0	0	0	0	513	429	
4	0	0	0	0	512	428	
5	0	0	0	0	512	428	
6	0	0	0	0	512	429	
7	0	0	0	0	512	429	
8	0	0	0	0	512	430	
9	0	0	0	0	512	430	
10	0	0	0	0	512	430	
11	0	0	0	0	512	430	
12	0	0	0	0	512	430	
13	0	0	0	0	512	429	
14	0	0	0	0	512	430	
15	0	0	0	0	512	430	
0	0	0	0	0	512	429	
1	0	0	0	0	512	431	
2	0	0	0	0	513	431	
3	0	0	0	0	513	431	
4	0	0	0	0	513	431	
5	0	0	0	0	513	431	
6	0	0	0	0	513	431	
7	0	0	0	0	514	431	
8	0	0	0	0	514	431	
9	0	0	0	0	514	432	
10	0	0	0	0	514	432	
11	0	0	0	0	514	432	
12	0	0	0	0	514	431	
13	0	0	0	0	514	431	
14	0	0	0	0	513	431	
15	0	0	0	0	513	431	
0	0	0	0	0	512	431	
1	0	0	0	0	512	432	
2	0	0	0	0	512	431	
3	0	0	0	0	512	431	
4	0	0	0	0	513	431	
5	0	0	0	0	513	431	
6	0	0	0	0	513	431	
7	0	0	0	0	513	431	
8	0	0	0	0	513	431	
9	0	0	0	0	513	431	
10	0	0	0	0	513	431	
11	0	0	0	0	513	431	
12	0	0	0	0	512	431	
13	0	0	0	0	513	430	
14	0	0	0	0	513	430	
15	0	0	0	0	513	430	
0	0	0	0	0	512	430	
1	0	0	0	0	513	431	
2	0	0	0	0	513	430	
3	0	0	0	0	514	431	
4	0	0	0	0	514	430	
5	0	0	0	0	514	430	
6	0	0	0	0	513	430	
7	0	0	0	0	514	430	
8	0	0	0	0	514	430	
9	0	0	0	0	514	431	
10	0	0	0	0	514	430	
11	0	0	0	0	513	430	
12	0	0	0	0	514	430	
13	0	0	0	0	514	429	
14	0	0	0	0	514	430	
15	0	0	0	0	513	429	
0	0	0	0	0	513	429	
1	0	0	0	0	513	429	
2	0	0	0	0	513	428	
3	0	0	0	0	513	429	
4	0	0	0	0	513	429	
5	0	0	0	0	513	428	
6	0	0	0	0	512	429	
7	0	0	0	0	512	429	
8	0	0	0	0	512	429	
9	0	0	0	0	512	428	
10	0	0	0	0	512	428	
11	0	0	0	0	511	428	
12	0	0	0	0	511	428	
13	0	0	0	0	511	428	
14	0	0	0	0	511	428	
15	0	0	0	0	511	427	
0	0	0	0	0	511	427	
1	0	0	0	0	511	428	
2	0	0	0	0	512	427	
3	0	0	0	0	512	427	
4	0	0	0	0	511	428	
5	0	0	0	0	511	427	
6	0	0	0	0	512	427	
7	0	0	0	0	512	428	
8	0	0	0	0	512	427	
9	0	0	0	0	512	428	
10	0	0	0	0	512	427	
11	0	0	0	0	512	428	
12	0	0	0	0	512	427	
13	0	0	0	0	512	428	
14	0	0	0	0	511	427	
15	0	0	0	0	511	428	
0	0	0	0	0	511	428	
1	0	0	0	0	511	428	
2	0	0	0	0	511	428	
3	0	0	0	0	510	428	
4	0	0	0	0	510	428	
5	0	0	0	0	510	428	
6	0	0	0	0	510	428	
7	0	0	0	0	510	428	
8	0	0	0	0	511	428	
9	0	0	0	0	511	429	
10	0	0	0	0	511	428	
11	0	0	0	0	511	428	
12	0	0	0	0	511	428	
13	0	0	0	0	511	428	
14	0	0	0	0	510	428	
15	0	0	0	0	511	428	
0	0	0	0	0	510	428	
1	0	0	0	0	510	429	
2	0	0	0	0	511	428	
3	0	0	0	0	511	429	
4	0	0	0	0	511	429	
5	0	0	0	0	511	429	
6	0	0	0	0	511	429	
7	0	0	0	0	510	429	
8	0	0	0	0	510	429	
9	0	0	0	0	511	430	
10	0	0	0	0	510	430	
11	0	0	0	0	511	430	
12	0	0	0	0	510	430	
13	0	0	0	0	510	430	
14	0	0	0	0	510	430	
15	0	0	0	0	510	430	
0	0	0	0	0	510	430	
1	0	0	0	0	510	431	
2	0	0	0	0	510	430	
3	0	0	0	0	510	431	
4	0	0	0	0	510	431	
5	0	0	0	0	510	430	
6	0	0	0	0	509	431	
7	0	0	0	0	509	431	
8	0	0	0	0	508	431	
9	0	0	0	0	508	431	
10	0	0	0	0	509	430	
11	0	0	0	0	509	430	
12	0	0	0	0	509	430	
13	0	0	0	0	508	430	
14	0	0	0	0	508	430	
15	0	0	0	0	507	431	
0	0	0	0	0	507	430	
1	0	0	0	0	506	431	
2	0	0	0	0	507	431	
3	0	0	0	0	507	430	
4	0	0	0	0	507	430	
5	0	0	0	0	507	430	
6	0	0	0	0	506	430	
7	0	0	0	0	506	430	
8	0	0	0	0	506	431	
9	0	0	0	0	506	430	
10	0	0	0	0	505	431	
11	0	0	0	0	505	430	
12	0	0	0	0	506	430	
13	0	0	0	0	506	430	
14	0	0	0	0	506	430	
15	0	0	0	0	505	430	
0	0	0	0	0	505	430	
1	0	0	0	0	505	431	
2	0	0	0	0	505	430	
3	0	0	0	0	505	430	
4	0	0	0	0	506	430	
5	0	0	0	0	505	429	
6	0	0	0	0	506	429	
7	0	0	0	0	507	429	
8	0	0	0	0	507	429	
9	0	0	0	0	508	430	
10	0	0	0	0	508	429	
11	0	0	0	0	508	429	
12	0	0	0	0	508	429	
13	0	0	0	0	508	428	
14	0	0	0	0	508	428	
15	0	0	0	0	507	428	
0	0	0	0	0	508	428	
1	0	0	0	0	508	428	
2	0	0	0	0	508	428	
3	0	0	0	0	508	428	
4	0	0	0	0	507	428	
5	0	0	0	0	507	428	
6	0	0	0	0	507	428	
7	0	0	0	0	508	427	
8	0	0	0	0	508	427	
9	0	0	0	0	509	428	
10	0	0	0	0	509	427	
11	0	0	0	0	510	427	
12	0	0	0	0	510	427	
13	0	0	0	0	511	427	
14	0	0	0	0	511	427	
15	0	0	0	0	511	427	
0	0	0	0	0	511	427	
1	0	0	0	0	511	427	
2	0	0	0	0	511	426	
3	0	0	0	0	510	427	
4	0	0	0	0	510	427	
5	0	0	0	0	509	426	
6	0	0	0	0	508	427	
7	0	0	0	0	508	427	
8	0	0	0	0	508	427	
9	0	0	0	0	508	428	
10	0	0	0	0	508	427	
11	0	0	0	0	508	428	
12	0	0	0	0	508	428	
13	0	0	0	0	508	427	
14	0	0	0	0	508	427	
15	0	0	0	0	508	428	
0	0	0	0	0	508	428	
1	0	0	0	0	508	429	
2	0	0	0	0	508	428	
3	0	0	0	0	508	428	
4	0	0	0	0	508	428	
5	0	0	0	0	508	428	
6	0	0	0	0	508	429	
7	0	0	0	0	509	429	
8	0	0	0	0	509	429	
9	0	0	0	0	510	430	
10	0	0	0	0	511	429	
11	0	0	0	0	511	428	
12	0	0	0	0	512	429	
13	0	0	0	0	512	429	
14	0	0	0	0	512	429	
15	0	0	0	0	512	430	
0	0	0	0	0	511	430	
1	0	0	0	0	511	430	
2	0	0	0	0	511	429	
3	0	0	0	0	511	430	
4	0	0	0	0	510	429	
5	0	0	0	0	510	429	
6	0	0	0	0	510	430	
7	0	0	0	0	510	430	
8	0	0	0	0	510	430	
9	0	0	0	0	509	431	
10	0	0	0	0	509	430	
11	0	0	0	0	508	429	
12	0	0	0	0	508	430	
13	0	0	0	0	508	430	
14	0	0	0	0	507	430	
15	0	0	0	0	507	430	
0	0	0	0	0	506	431	
1	0	0	0	0	506	430	
2	0	0	0	0	506	430	
3	0	0	0	0	506	430	
4	0	0	0	0	507	430	
5	0	0	0	0	507	430	
6	0	0	0	0	507	430	
7	0	0	0	0	507	430	
8	0	0	0	0	508	430	
9	0	0	0	0	508	431	
10	0	0	0	0	508	430	
11	0	0	0	0	508	431	
12	0	0	0	0	507	430	
13	0	0	0	0	507	430	
14	0	0	0	0	507	431	
15	0	0	0	0	507	430	
0	0	0	0	0	506	430	
1	0	0	0	0	506	431	
2	0	0	0	0	506	430	
3	0	0	0	0	506	430	
4	0	0	0	0	506	430	
5	0	0	0	0	506	430	
6	0	0	0	0	507	430	
7	0	0	0	0	507	430	
8	0	0	0	0	507	431	
9	0	0	0	0	506	431	
10	0	0	0	0	505	431	
11	0	0	0	0	503	431	
12	0	0	0	0	500	431	
13	0	0	0	0	497	430	
14	0	0	0	0	494	431	
15	0	0	0	0	489	431	
0	0	0	0	0	485	431	
1	0	0	0	0	480	432	
2	0	0	0	0	475	431	
3	0	0	0	0	469	431	
4	0	0	0	0	463	431	
5	0	0	0	0	458	431	
6	0	0	0	0	452	431	
7	0	0	0	0	448	431	
8	0	0	0	0	442	431	
9	0	0	0	0	438	432	
10	0	0	0	0	432	430	
11	0	0	0	0	426	430	
12	0	0	0	0	420	429	
13	0	0	0	0	415	429	
14	0	0	0	0	411	428	
15	0	0	0	0	406	428	
0	0	0	0	0	399	427	
1	0	0	0	0	392	428	
2	0	0	0	0	387	427	
3	0	0	0	0	385	426	
4	0	0	0	0	385	427	
5	0	0	0	0	389	426	
6	0	0	0	0	397	426	
7	0	0	0	0	410	426	
8	0	0	0	0	427	426	
9	0	0	0	0	446	425	
10	0	0	0	0	465	426	
11	0	0	0	0	485	426	
12	0	0	0	0	505	427	
13	0	0	0	0	525	427	
14	0	0	0	0	542	427	
15	0	0	0	0	557	428	
0	0	0	0	0	568	428	
1	0	0	0	0	575	429	
2	0	0	0	0	582	428	
3	0	0	0	0	590	429	
4	0	0	0	0	597	429	
5	0	0	0	0	601	429	
6	0	0	0	0	601	429	
7	0	0	0	0	599	429	
8	0	0	0	0	596	429	
9	0	0	0	0	592	430	
10	0	0	0	0	588	429	
11	0	0	0	0	586	429	
12	0	0	0	0	585	429	
13	0	0	0	0	587	429	
14	0	0	0	0	597	429	
15	0	0	0	0	614	428	
0	0	0	0	0	632	429	
1	0	0	0	0	650	430	
2	0	0	0	0	661	428	
3	0	0	0	0	666	429	
4	0	0	0	0	668	429	
5	0	0	0	0	665	428	
6	0	0	0	0	658	430	
7	0	0	0	0	650	429	
8	0	0	0	0	639	429	
9	0	0	0	0	628	431	
10	0	0	0	0	617	430	
11	0	0	0	0	607	430	
12	0	0	0	0	596	431	
13	0	0	0	0	586	431	
14	0	0	0	0	576	432	
15	0	0	0	0	568	431	
0	0	0	0	0	560	432	
1	0	0	0	0	553	433	
2	0	0	0	0	548	433	
3	0	0	0	0	543	432	
4	0	0	0	0	537	432	
5	0	0	0	0	531	432	
6	0	0	0	0	527	433	
7	0	0	0	0	522	431	
8	0	0	0	0	518	431	
9	0	0	0	0	513	432	
10	0	0	0	0	509	431	
11	0	0	0	0	505	431	
12	0	0	0	0	502	430	
13	0	0	0	0	499	430	
14	0	0	0	0	496	430	
15	0	0	0	0	494	431	
0	0	0	0	0	492	430	
1	0	0	0	0	490	431	
2	0	0	0	0	488	431	
3	0	0	0	0	488	431	
4	0	0	0	0	487	431	
5	0	0	0	0	487	431	
6	0	0	0	0	486	431	
7	0	0	0	0	485	431	
8	0	0	0	0	485	430	
9	0	0	0	0	485	431	
10	0	0	0	0	484	430	
11	0	0	0	0	484	430	
12	0	0	0	0	483	429	
13	0	0	0	0	483	429	
14	0	0	0	0	482	429	
15	0	0	0	0	482	429	
0	0	0	0	0	483	430	
1	0	0	0	0	482	431	
2	0	0	0	0	482	431	
3	0	0	0	0	482	431	
4	0	0	0	0	482	430	
5	0	0	0	0	482	430	
6	0	0	0	0	482	431	
7	0	0	0	0	482	430	
8	0	0	0	0	482	430	
9	0	0	0	0	482	431	
10	0	0	0	0	482	430	
11	0	0	0	0	482	430	
12	0	0	0	0	482	430	
13	0	0	0	0	482	429	
14	0	0	0	0	482	430	
15	0	0	0	0	482	430	
0	0	0	0	0	482	429	
1	0	0	0	0	482	430	
2	0	0	0	0	482	429	
3	0	0	0	0	482	430	
4	0	0	0	0	483	429	
5	0	0	0	0	483	428	
6	0	0	0	0	483	429	
7	0	0	0	0	483	428	
8	0	0	0	0	484	429	
9	0	0	0	0	484	428	
10	0	0	0	0	484	428	
11	0	0	0	0	485	428	
12	0	0	0	0	485	428	
13	0	0	0	0	485	427	
14	0	0	0	0	485	428	
15	0	0	0	0	485	428	
0	0	0	0	0	486	428	
1	0	0	0	0	487	428	
2	0	0	0	0	486	427	
3	0	0	0	0	486	427	
4	0	0	0	0	486	426	
5	0	0	0	0	486	427	
6	0	0	0	0	486	426	
7	0	0	0	0	486	426	
8	0	0	0	0	486	425	
9	0	0	0	0	486	426	
10	0	0	0	0	486	424	
11	0	0	0	0	486	425	
12	0	0	0	0	486	425	
13	0	0	0	0	486	424	
14	0	0	0	0	487	425	
15	0	0	0	0	487	424	
0	0	0	0	0	487	424	
1	0	0	0	0	487	425	
2	0	0	0	0	487	425	
3	0	0	0	0	488	424	
4	0	0	0	0	488	425	
5	0	0	0	0	488	424	
6	0	0	0	0	488	424	
7	0	0	0	0	487	424	
8	0	0	0	0	487	424	
9	0	0	0	0	487	425	
10	0	0	0	0	487	424	
11	0	0	0	0	487	425	
12	0	0	0	0	488	426	
13	0	0	0	0	487	425	
14	0	0	0	0	487	426	
15	0	0	0	0	487	426	
0	0	0	0	0	487	427	
1	0	0	0	0	487	427	
2	0	0	0	0	487	427	
3	0	0	0	0	487	427	
4	0	0	0	0	487	428	
5	0	0	0	0	487	428	
6	0	0	0	0	487	429	
7	0	0	0	0	487	428	
8	0	0	0	0	487	429	
9	0	0	0	0	487	430	
10	0	0	0	0	487	429	
11	0	0	0	0	487	430	
12	0	0	0	0	487	430	
13	0	0	0	0	487	431	
14	0	0	0	0	487	431	
15	0	0	0	0	488	432	
0	0	0	0	0	488	432	
1	0	0	0	0	488	433	
2	0	0	0	0	488	432	
3	0	0	0	0	489	432	
4	0	0	0	0	489	433	
5	0	0	0	0	489	432	
6	0	0	0	0	489	433	
7	0	0	0	0	488	433	
8	0	0	0	0	489	433	
9	0	0	0	0	489	434	
10	0	0	0	0	489	434	
11	0	0	0	0	489	434	
12	0	0	0	0	489	434	
13	0	0	0	0	489	434	
14	0	0	0	0	488	435	
15	0	0	0	0	488	435	
0	0	0	0	0	487	435	
1	0	0	0	0	487	437	
2	0	0	0	0	487	436	
3	0	0	0	0	488	437	
4	0	0	0	0	488	436	
5	0	0	0	0	488	436	
6	0	0	0	0	488	436	
7	0	0	0	0	488	436	
8	0	0	0	0	488	436	
9	0	0	0	0	488	437	
10	0	0	0	0	488	436	
11	0	0	0	0	487	436	
12	0	0	0	0	487	436	
13	0	0	0	0	487	435	
14	0	0	0	0	487	436	
15	0	0	0	0	487	435	
0	0	0	0	0	487	435	
1	0	0	0	0	488	436	
2	0	0	0	0	487	435	
3	0	0	0	0	488	435	
4	0	0	0	0	489	435	
5	0	0	0	0	489	434	
6	0	0	0	0	489	435	
7	0	0	0	0	490	433	
8	0	0	0	0	490	434	
9	0	0	0	0	491	434	
10	0	0	0	0	491	433	
11	0	0	0	0	491	432	
12	0	0	0	0	492	433	
13	0	0	0	0	492	432	
14	0	0	0	0	493	432	
15	0	0	0	0	493	431	
0	0	0	0	0	493	432	
1	0	0	0	0	494	432	
2	0	0	0	0	495	432	
3	0	0	0	0	495	431	
4	0	0	0	0	496	430	
5	0	0	0	0	496	430	
6	0	0	0	0	496	430	
7	0	0	0	0	496	430	
8	0	0	0	0	497	428	
9	0	0	0	0	497	430	
10	0	0	0	0	498	429	
11	0	0	0	0	499	429	
12	0	0	0	0	499	428	
13	0	0	0	0	500	427	
14	0	0	0	0	501	428	
15	0	0	0	0	502	428	
0	0	0	0	0	503	427	
1	0	0	0	0	504	428	
2	0	0	0	0	504	427	
3	0	0	0	0	505	427	
4	0	0	0	0	505	427	
5	0	0	0	0	507	426	
6	0	0	0	0	507	427	
7	0	0	0	0	508	427	
8	0	0	0	0	509	427	
9	0	0	0	0	509	426	
10	0	0	0	0	510	426	
11	0	0	0	0	511	425	
12	0	0	0	0	511	426	
13	0	0	0	0	512	425	
14	0	0	0	0	512	425	
15	0	0	0	0	513	425	
0	0	0	0	0	513	426	
1	0	0	0	0	514	427	
2	0	0	0	0	515	425	
3	0	0	0	0	515	426	
4	0	0	0	0	515	425	
5	0	0	0	0	516	426	
6	0	0	0	0	516	426	
7	0	0	0	0	517	426	
8	0	0	0	0	517	425	
9	0	0	0	0	518	427	
10	0	0	0	0	519	426	
11	0	0	0	0	519	426	
12	0	0	0	0	519	427	
13	0	0	0	0	520	427	
14	0	0	0	0	520	427	
15	0	0	0	0	520	427	
0	0	0	0	0	519	427	
1	0	0	0	0	519	428	
2	0	0	0	0	520	427	
3	0	0	0	0	520	427	
4	0	0	0	0	520	427	
5	0	0	0	0	520	427	
6	0	0	0	0	520	428	
7	0	0	0	0	520	428	
8	0	0	0	0	521	428	
9	0	0	0	0	521	429	
10	0	0	0	0	520	428	
11	0	0	0	0	520	428	
12	0	0	0	0	519	428	
13	0	0	0	0	520	428	
14	0	0	0	0	519	429	
15	0	0	0	0	519	429	
0	0	0	0	0	519	429	
1	0	0	0	0	519	430	
2	0	0	0	0	519	430	
3	0	0	0	0	518	429	
4	0	0	0	0	518	429	
5	0	0	0	0	518	429	
6	0	0	0	0	517	429	
7	0	0	0	0	518	430	
8	0	0	0	0	517	430	
9	0	0	0	0	518	431	
10	0	0	0	0	517	430	
11	0	0	0	0	517	430	
12	0	0	0	0	517	430	
13	0	0	0	0	517	430	
14	0	0	0	0	516	431	
15	0	0	0	0	516	431	
0	0	0	0	0	516	431	
1	0	0	0	0	516	432	
2	0	0	0	0	515	432	
3	0	0	0	0	515	432	
4	0	0	0	0	514	433	
5	0	0	0	0	514	432	
6	0	0	0	0	514	433	
7	0	0	0	0	514	433	
8	0	0	0	0	514	433	
9	0	0	0	0	514	433	
10	0	0	0	0	514	433	
11	0	0	0	0	514	433	
12	0	0	0	0	514	433	
13	0	0	0	0	514	433	
14	0	0	0	0	514	433	
15	0	0	0	0	515	433	
0	0	0	0	0	514	433	
1	0	0	0	0	514	434	
2	0	0	0	0	514	433	
3	0	0	0	0	514	433	
4	0	0	0	0	515	433	
5	0	0	0	0	515	433	
6	0	0	0	0	515	433	
7	0	0	0	0	515	433	
8	0	0	0	0	515	433	
9	0	0	0	0	515	434	
10	0	0	0	0	515	433	
11	0	0	0	0	515	433	
12	0	0	0	0	515	432	
13	0	0	0	0	515	432	
14	0	0	0	0	515	432	
15	0	0	0	0	516	432	
0	0	0	0	0	515	432	
1	0	0	0	0	516	432	
2	0	0	0	0	516	431	
3	0	0	0	0	515	432	
4	0	0	0	0	515	431	
5	0	0	0	0	515	430	
6	0	0	0	0	514	431	
7	0	0	0	0	515	431	
8	0	0	0	0	515	430	
9	0	0	0	0	515	431	
10	0	0	0	0	515	430	
11	0	0	0	0	514	430	
12	0	0	0	0	514	428	
13	0	0	0	0	515	429	
14	0	0	0	0	515	429	
15	0	0	0	0	515	428	
0	0	0	0	0	515	428	
1	0	0	0	0	515	429	
2	0	0	0	0	515	427	
3	0	0	0	0	515	427	
4	0	0	0	0	515	427	
5	0	0	0	0	516	427	
6	0	0	0	0	515	427	
7	0	0	0	0	515	427	
8	0	0	0	0	515	427	
9	0	0	0	0	515	428	
10	0	0	0	0	515	426	
11	0	0	0	0	515	427	
12	0	0	0	0	514	427	
13	0	0	0	0	515	427	
14	0	0	0	0	514	427	
15	0	0	0	0	514	426	
0	0	0	0	0	513	426	
1	0	0	0	0	513	428	
2	0	0	0	0	513	426	
3	0	0	0	0	513	426	
4	0	0	0	0	513	426	
5	0	0	0	0	513	426	
6	0	0	0	0	513	427	
7	0	0	0	0	513	426	
8	0	0	0	0	513	426	
9	0	0	0	0	513	427	
10	0	0	0	0	513	426	
11	0	0	0	0	513	427	
12	0	0	0	0	513	428	
13	0	0	0	0	514	428	
14	0	0	0	0	513	428	
15	0	0	0	0	513	428	
0	0	0	0	0	514	428	
1	0	0	0	0	514	429	
2	0	0	0	0	514	428	
3	0	0	0	0	514	428	
4	0	0	0	0	513	428	
5	0	0	0	0	513	428	
6	0	0	0	0	512	428	
7	0	0	0	0	513	428	
8	0	0	0	0	513	429	
9	0	0	0	0	513	430	
10	0	0	0	0	513	429	
11	0	0	0	0	513	429	
12	0	0	0	0	514	429	
13	0	0	0	0	515	429	
14	0	0	0	0	515	429	
15	0	0	0	0	515	430	
0	0	0	0	0	515	430	
1	0	0	0	0	515	431	
2	0	0	0	0	515	431	
3	0	0	0	0	515	431	
4	0	0	0	0	515	432	
5	0	0	0	0	515	431	
6	0	0	0	0	514	431	
7	0	0	0	0	514	432	
8	0	0	0	0	514	432	
9	0	0	0	0	515	432	
10	0	0	0	0	514	432	
11	0	0	0	0	513	432	
12	0	0	0	0	512	432	
13	0	0	0	0	513	432	
14	0	0	0	0	513	433	
15	0	0	0	0	513	432	
0	0	0	0	0	513	433	
1	0	0	0	0	513	433	
2	0	0	0	0	513	432	
3	0	0	0	0	514	433	
4	0	0	0	0	514	433	
5	0	0	0	0	514	432	
6	0	0	0	0	514	433	
7	0	0	0	0	515	433	
8	0	0	0	0	515	433	
9	0	0	0	0	515	434	
10	0	0	0	0	515	433	
11	0	0	0	0	515	433	
12	0	0	0	0	515	434	
13	0	0	0	0	515	433	
14	0	0	0	0	515	433	
15	0	0	0	0	515	433	
0	0	0	0	0	515	433	
1	0	0	0	0	515	433	
2	0	0	0	0	515	432	
3	0	0	0	0	515	432	
4	0	0	0	0	515	433	
5	0	0	0	0	515	432	
6	0	0	0	0	515	432	
7	0	0	0	0	515	432	
8	0	0	0	0	515	432	
9	0	0	0	0	515	432	
10	0	0	0	0	516	432	
11	0	0	0	0	515	431	
12	0	0	0	0	516	431	
13	0	0	0	0	515	431	
14	0	0	0	0	515	431	
15	0	0	0	0	515	431	
0	0	0	0	0	515	429	
1	0	0	0	0	516	431	
2	0	0	0	0	517	429	
3	0	0	0	0	517	429	
4	0	0	0	0	517	430	
5	0	0	0	0	517	429	
6	0	0	0	0	517	429	
7	0	0	0	0	516	429	
8	0	0	0	0	516	429	
9	0	0	0	0	517	429	
10	0	0	0	0	517	428	
11	0	0	0	0	516	428	
12	0	0	0	0	515	429	
13	0	0	0	0	515	428	
14	0	0	0	0	515	428	
15	0	0	0	0	515	428	
0	0	0	0	0	515	428	
1	0	0	0	0	516	429	
2	0	0	0	0	516	428	
3	0	0	0	0	516	428	
4	0	0	0	0	516	428	
5	0	0	0	0	516	427	
6	0	0	0	0	516	427	
7	0	0	0	0	515	426	
8	0	0	0	0	516	427	
9	0	0	0	0	516	428	
10	0	0	0	0	516	427	
11	0	0	0	0	516	427	
12	0	0	0	0	516	427	
13	0	0	0	0	515	427	
14	0	0	0	0	515	427	
15	0	0	0	0	515	427	
0	0	0	0	0	515	427	
1	0	0	0	0	515	428	
2	0	0	0	0	515	427	
3	0	0	0	0	515	427	
4	0	0	0	0	515	427	
5	0	0	0	0	515	428	
6	0	0	0	0	515	428	
7	0	0	0	0	514	428	
8	0	0	0	0	513	428	
9	0	0	0	0	514	429	
10	0	0	0	0	514	428	
11	0	0	0	0	514	429	
12	0	0	0	0	514	430	
13	0	0	0	0	514	429	
14	0	0	0	0	515	429	
15	0	0	0	0	514	429	
0	0	0	0	0	515	430	
1	0	0	0	0	515	430	
2	0	0	0	0	515	430	
3	0	0	0	0	515	430	
4	0	0	0	0	515	430	
5	0	0	0	0	515	430	
6	0	0	0	0	515	430	
7	0	0	0	0	516	430	
8	0	0	0	0	515	430	
9	0	0	0	0	515	431	
10	0	0	0	0	515	430	
11	0	0	0	0	515	430	
12	0	0	0	0	514	430	
13	0	0	0	0	515	429	
14	0	0	0	0	514	430	
15	0	0	0	0	514	430	
0	0	0	0	0	515	430	
1	0	0	0	0	515	430	
2	0	0	0	0	515	430	
3	0	0	0	0	515	431	
4	0	0	0	0	515	431	
5	0	0	0	0	515	430	
6	0	0	0	0	515	431	
7	0	0	0	0	515	431	
8	0	0	0	0	515	432	
9	0	0	0	0	515	432	
10	0	0	0	0	515	432	
11	0	0	0	0	516	432	
12	0	0	0	0	516	432	
13	0	0	0	0	516	432	
14	0	0	0	0	515	432	
15	0	0	0	0	515	432	
0	0	0	0	0	515	432	
1	0	0	0	0	514	432	
2	0	0	0	0	514	432	
3	0	0	0	0	515	432	
4	0	0	0	0	515	432	
5	0	0	0	0	515	432	
6	0	0	0	0	515	431	
7	0	0	0	0	515	431	
8	0	0	0	0	515	431	
9	0	0	0	0	515	432	
10	0	0	0	0	515	430	
11	0	0	0	0	515	431	
12	0	0	0	0	515	431	
13	0	0	0	0	515	431	
14	0	0	0	0	515	431	
15	0	0	0	0	515	430	
0	0	0	0	0	515	430	
1	0	0	0	0	515	431	
2	0	0	0	0	515	430	
3	0	0	0	0	515	431	
4	0	0	0	0	515	431	
5	0	0	0	0	515	430	
6	0	0	0	0	514	431	
7	0	0	0	0	514	431	
8	0	0	0	0	514	431	
9	0	0	0	0	514	432	
10	0	0	0	0	514	432	
11	0	0	0	0	514	432	
12	0	0	0	0	514	432	
13	0	0	0	0	514	432	
14	0	0	0	0	514	432	
15	0	0	0	0	514	432	
0	0	0	0	0	514	432	
1	0	0	0	0	514	433	
2	0	0	0	0	513	433	
3	0	0	0	0	513	433	
4	0	0	0	0	514	433	
5	0	0	0	0	514	432	
6	0	0	0	0	514	432	
7	0	0	0	0	513	432	
8	0	0	0	0	513	432	
9	0	0	0	0	513	432	
10	0	0	0	0	513	431	
11	0	0	0	0	513	431	
12	0	0	0	0	513	431	
13	0	0	0	0	513	430	
14	0	0	0	0	514	430	
15	0	0	0	0	514	430	
0	0	0	0	0	514	430	
1	0	0	0	0	513	430	
2	0	0	0	0	513	429	
3	0	0	0	0	513	429	
4	0	0	0	0	513	429	
5	0	0	0	0	513	428	
6	0	0	0	0	512	428	
7	0	0	0	0	512	428	
8	0	0	0	0	512	428	
9	0	0	0	0	513	428	
10	0	0	0	0	513	428	
11	0	0	0	0	513	428	
12	0	0	0	0	513	428	
13	0	0	0	0	514	427	
14	0	0	0	0	514	427	
15	0	0	0	0	514	426	
0	0	0	0	0	515	426	
1	0	0	0	0	515	427	
2	0	0	0	0	515	427	
3	0	0	0	0	514	427	
4	0	0	0	0	514	427	
5	0	0	0	0	514	426	
6	0	0	0	0	513	426	
7	0	0	0	0	513	426	
8	0	0	0	0	512	426	
9	0	0	0	0	512	427	
10	0	0	0	0	511	427	
11	0	0	0	0	510	426	
12	0	0	0	0	510	426	
13	0	0	0	0	510	425	
14	0	0	0	0	509	426	
15	0	0	0	0	508	426	
0	0	0	0	0	508	427	
1	0	0	0	0	508	427	
2	0	0	0	0	508	427	
3	0	0	0	0	508	427	
4	0	0	0	0	508	427	
5	0	0	0	0	509	426	
6	0	0	0	0	509	427	
7	0	0	0	0	509	427	
8	0	0	0	0	509	427	
9	0	0	0	0	510	427	
10	0	0	0	0	510	427	
11	0	0	0	0	510	427	
12	0	0	0	0	509	427	
13	0	0	0	0	510	427	
14	0	0	0	0	510	427	
15	0	0	0	0	510	428	
0	0	0	0	0	509	427	
1	0	0	0	0	508	429	
2	0	0	0	0	508	428	
3	0	0	0	0	508	428	
4	0	0	0	0	508	428	
5	0	0	0	0	509	428	
6	0	0	0	0	509	428	
7	0	0	0	0	509	428	
8	0	0	0	0	509	428	
9	0	0	0	0	510	429	
10	0	0	0	0	510	428	
11	0	0	0	0	510	429	
12	0	0	0	0	511	429	
13	0	0	0	0	511	429	
14	0	0	0	0	511	429	
15	0	0	0	0	511	430	
0	0	0	0	0	512	430	
1	0	0	0	0	512	430	
2	0	0	0	0	512	429	
3	0	0	0	0	512	429	
4	0	0	0	0	512	429	
5	0	0	0	0	512	429	
6	0	0	0	0	511	430	
7	0	0	0	0	512	430	
8	0	0	0	0	511	430	
9	0	0	0	0	511	430	
10	0	0	0	0	511	431	
11	0	0	0	0	511	430	
12	0	0	0	0	511	430	
13	0	0	0	0	511	430	
14	0	0	0	0	511	431	
15	0	0	0	0	511	431	
0	0	0	0	0	511	431	
1	0	0	0	0	511	431	
2	0	0	0	0	511	430	
3	0	0	0	0	511	430	
4	0	0	0	0	511	431	
5	0	0	0	0	511	430	
6	0	0	0	0	511	430	
7	0	0	0	0	511	430	
8	0	0	0	0	512	431	
9	0	0	0	0	512	432	
10	0	0	0	0	512	431	
11	0	0	0	0	512	430	
12	0	0	0	0	512	431	
13	0	0	0	0	513	431	
14	0	0	0	0	513	431	
15	0	0	0	0	513	431	
0	0	0	0	0	513	431	
1	0	0	0	0	513	432	
2	0	0	0	0	513	431	
3	0	0	0	0	512	431	
4	0	0	0	0	512	431	
5	0	0	0	0	512	430	
6	0	0	0	0	511	430	
7	0	0	0	0	510	430	
8	0	0	0	0	510	430	
9	0	0	0	0	510	431	
10	0	0	0	0	510	430	
11	0	0	0	0	510	430	
12	0	0	0	0	509	430	
13	0	0	0	0	509	429	
14	0	0	0	0	508	430	
15	0	0	0	0	508	430	
0	0	0	0	0	508	430	
1	0	0	0	0	508	430	
2	0	0	0	0	508	429	
3	0	0	0	0	508	429	
4	0	0	0	0	508	430	
5	0	0	0	0	508	430	
6	0	0	0	0	508	430	
7	0	0	0	0	508	430	
8	0	0	0	0	508	430	
9	0	0	0	0	508	431	
10	0	0	0	0	508	430	
11	0	0	0	0	508	430	
12	0	0	0	0	508	430	
13	0	0	0	0	508	430	
14	0	0	0	0	508	430	
15	0	0	0	0	507	430	
0	0	0	0	0	507	431	
1	0	0	0	0	506	431	
2	0	0	0	0	507	430	
3	0	0	0	0	507	431	
4	0	0	0	0	507	431	
5	0	0	0	0	507	431	
6	0	0	0	0	507	430	
7	0	0	0	0	507	431	
8	0	0	0	0	506	431	
9	0	0	0	0	505	431	
10	0	0	0	0	506	431	
11	0	0	0	0	506	431	
12	0	0	0	0	505	431	
13	0	0	0	0	504	430	
14	0	0	0	0	502	431	
15	0	0	0	0	498	431	
0	0	0	0	0	494	431	
1	0	0	0	0	491	432	
2	0	0	0	0	486	431	
3	0	0	0	0	482	431	
4	0	0	0	0	478	431	
5	0	0	0	0	472	431	
6	0	0	0	0	467	431	
7	0	0	0	0	462	431	
8	0	0	0	0	457	431	
9	0	0	0	0	452	432	
10	0	0	0	0	447	431	
11	0	0	0	0	442	431	
12	0	0	0	0	438	430	
13	0	0	0	0	433	431	
14	0	0	0	0	428	431	
15	0	0	0	0	423	432	
0	0	0	0	0	419	431	
1	0	0	0	0	416	432	
2	0	0	0	0	411	431	
3	0	0	0	0	407	432	
4	0	0	0	0	401	432	
5	0	0	0	0	396	431	
6	0	0	0	0	395	431	
7	0	0	0	0	396	430	
8	0	0	0	0	401	431	
9	0	0	0	0	410	432	
10	0	0	0	0	423	431	
11	0	0	0	0	439	431	
12	0	0	0	0	457	431	
13	0	0	0	0	475	430	
14	0	0	0	0	493	430	
15	0	0	0	0	512	430	
0	0	0	0	0	528	430	
1	0	0	0	0	543	431	
2	0	0	0	0	555	431	
3	0	0	0	0	563	430	
4	0	0	0	0	570	430	
5	0	0	0	0	576	430	
6	0	0	0	0	583	429	
7	0	0	0	0	590	430	
8	0	0	0	0	592	430	
9	0	0	0	0	591	429	
10	0	0	0	0	589	429	
11	0	0	0	0	586	429	
12	0	0	0	0	582	429	
13	0	0	0	0	579	429	
14	0	0	0	0	577	428	
15	0	0	0	0	578	428	
0	0	0	0	0	584	429	
1	0	0	0	0	599	429	
2	0	0	0	0	616	428	
3	0	0	0	0	634	428	
4	0	0	0	0	647	429	
5	0	0	0	0	655	428	
6	0	0	0	0	658	428	
7	0	0	0	0	657	429	
8	0	0	0	0	655	428	
9	0	0	0	0	648	429	
10	0	0	0	0	638	428	
11	0	0	0	0	628	428	
12	0	0	0	0	617	429	
13	0	0	0	0	606	428	
14	0	0	0	0	596	428	
15	0	0	0	0	587	428	
0	0	0	0	0	578	428	
1	0	0	0	0	568	428	
2	0	0	0	0	561	428	
3	0	0	0	0	555	428	
4	0	0	0	0	549	428	
5	0	0	0	0	545	428	
6	0	0	0	0	540	428	
7	0	0	0	0	536	428	
8	0	0	0	0	531	428	
9	0	0	0	0	527	429	
10	0	0	0	0	523	428	
11	0	0	0	0	519	429	
12	0	0	0	0	515	429	
13	0	0	0	0	512	429	
14	0	0	0	0	508	429	
15	0	0	0	0	505	429	
0	0	0	0	0	502	429	
1	0	0	0	0	498	430	
2	0	0	0	0	495	429	
3	0	0	0	0	494	428	
4	0	0	0	0	492	428	
5	0	0	0	0	491	429	
6	0	0	0	0	489	430	
7	0	0	0	0	488	429	
8	0	0	0	0	487	429	
9	0	0	0	0	487	430	
10	0	0	0	0	487	430	
11	0	0	0	0	486	430	
12	0	0	0	0	486	430	
13	0	0	0	0	485	431	
14	0	0	0	0	485	430	
15	0	0	0	0	485	431	
0	0	0	0	0	485	431	
1	0	0	0	0	485	431	
2	0	0	0	0	484	431	
3	0	0	0	0	484	431	
4	0	0	0	0	484	431	
5	0	0	0	0	485	431	
6	0	0	0	0	485	432	
7	0	0	0	0	484	432	
8	0	0	0	0	484	431	
9	0	0	0	0	484	432	
10	0	0	0	0	484	432	
11	0	0	0	0	484	431	
12	0	0	0	0	484	432	
13	0	0	0	0	484	431	
14	0	0	0	0	484	432	
15	0	0	0	0	484	432	
0	0	0	0	0	483	432	
1	0	0	0	0	484	432	
2	0	0	0	0	484	432	
3	0	0	0	0	485	432	
4	0	0	0	0	485	432	
5	0	0	0	0	485	430	
6	0	0	0	0	486	432	
7	0	0	0	0	486	432	
8	0	0	0	0	486	432	
9	0	0	0	0	486	432	
10	0	0	0	0	486	432	
11	0	0	0	0	485	432	
12	0	0	0	0	486	432	
13	0	0	0	0	486	432	
14	0	0	0	0	486	432	
15	0	0	0	0	487	432	
0	0	0	0	0	487	432	
1	0	0	0	0	487	433	
2	0	0	0	0	487	432	
3	0	0	0	0	487	433	
4	0	0	0	0	487	432	
5	0	0	0	0	488	431	
6	0	0	0	0	488	432	
7	0	0	0	0	488	432	
8	0	0	0	0	488	432	
9	0	0	0	0	488	432	
10	0	0	0	0	488	432	
11	0	0	0	0	488	432	
12	0	0	0	0	488	432	
13	0	0	0	0	488	431	
14	0	0	0	0	489	432	
15	0	0	0	0	489	431	
0	0	0	0	0	489	431	
1	0	0	0	0	489	431	
2	0	0	0	0	489	430	
3	0	0	0	0	489	431	
4	0	0	0	0	489	431	
5	0	0	0	0	489	430	
6	0	0	0	0	489	431	
7	0	0	0	0	490	430	
8	0	0	0	0	490	430	
9	0	0	0	0	490	431	
10	0	0	0	0	490	430	
11	0	0	0	0	490	429	
12	0	0	0	0	490	429	
13	0	0	0	0	490	428	
14	0	0	0	0	488	428	
15	0	0	0	0	488	428	
0	0	0	0	0	489	428	
1	0	0	0	0	489	429	
2	0	0	0	0	489	428	
3	0	0	0	0	489	428	
4	0	0	0	0	489	428	
5	0	0	0	0	488	428	
6	0	0	0	0	487	428	
7	0	0	0	0	487	428	
8	0	0	0	0	487	427	
9	0	0	0	0	487	428	
10	0	0	0	0	487	428	
11	0	0	0	0	487	427	
12	0	0	0	0	487	427	
13	0	0	0	0	487	427	
14	0	0	0	0	487	427	
15	0	0	0	0	487	427	
0	0	0	0	0	487	427	
1	0	0	0	0	487	428	
2	0	0	0	0	487	427	
3	0	0	0	0	487	428	
4	0	0	0	0	487	427	
5	0	0	0	0	488	426	
6	0	0	0	0	488	427	
7	0	0	0	0	487	427	
8	0	0	0	0	487	427	
9	0	0	0	0	488	428	
10	0	0	0	0	488	428	
11	0	0	0	0	487	427	
12	0	0	0	0	487	427	
13	0	0	0	0	488	427	
14	0	0	0	0	487	427	
15	0	0	0	0	488	427	
0	0	0	0	0	488	428	
1	0	0	0	0	488	428	
2	0	0	0	0	488	428	
3	0	0	0	0	488	429	
4	0	0	0	0	488	429	
5	0	0	0	0	488	429	
6	0	0	0	0	488	429	
7	0	0	0	0	488	430	
8	0	0	0	0	487	431	
9	0	0	0	0	487	431	
10	0	0	0	0	487	431	
11	0	0	0	0	487	431	
12	0	0	0	0	488	432	
13	0	0	0	0	488	432	
14	0	0	0	0	488	432	
15	0	0	0	0	489	432	
0	0	0	0	0	488	432	
1	0	0	0	0	488	433	
2	0	0	0	0	488	432	
3	0	0	0	0	488	432	
4	0	0	0	0	488	432	
5	0	0	0	0	488	433	
6	0	0	0	0	489	433	
7	0	0	0	0	489	432	
8	0	0	0	0	490	432	
9	0	0	0	0	490	433	
10	0	0	0	0	490	432	
11	0	0	0	0	491	433	
12	0	0	0	0	491	432	
13	0	0	0	0	492	432	
14	0	0	0	0	492	432	
15	0	0	0	0	493	432	
0	0	0	0	0	493	432	
1	0	0	0	0	494	433	
2	0	0	0	0	494	432	
3	0	0	0	0	495	433	
4	0	0	0	0	495	433	
5	0	0	0	0	495	432	
6	0	0	0	0	495	433	
7	0	0	0	0	496	433	
8	0	0	0	0	497	433	
9	0	0	0	0	498	434	
10	0	0	0	0	499	433	
11	0	0	0	0	499	433	
12	0	0	0	0	500	433	
13	0	0	0	0	500	433	
14	0	0	0	0	501	433	
15	0	0	0	0	501	433	
0	0	0	0	0	502	433	
1	0	0	0	0	503	434	
2	0	0	0	0	504	433	
3	0	0	0	0	504	433	
4	0	0	0	0	504	432	
5	0	0	0	0	505	432	
6	0	0	0	0	506	432	
7	0	0	0	0	506	432	
8	0	0	0	0	507	432	
9	0	0	0	0	507	432	
10	0	0	0	0	508	432	
11	0	0	0	0	509	432	
12	0	0	0	0	509	432	
13	0	0	0	0	510	432	
14	0	0	0	0	510	431	
15	0	0	0	0	511	431	
0	0	0	0	0	511	431	
1	0	0	0	0	511	431	
2	0	0	0	0	511	430	
3	0	0	0	0	512	430	
4	0	0	0	0	512	430	
5	0	0	0	0	512	429	
6	0	0	0	0	513	430	
7	0	0	0	0	513	429	
8	0	0	0	0	513	429	
9	0	0	0	0	514	429	
10	0	0	0	0	514	428	
11	0	0	0	0	514	428	
12	0	0	0	0	514	427	
13	0	0	0	0	515	427	
14	0	0	0	0	515	427	
15	0	0	0	0	515	427	
0	0	0	0	0	515	427	
1	0	0	0	0	515	428	
2	0	0	0	0	515	427	
3	0	0	0	0	516	426	
4	0	0	0	0	516	427	
5	0	0	0	0	517	427	
6	0	0	0	0	516	426	
7	0	0	0	0	517	426	
8	0	0	0	0	516	426	
9	0	0	0	0	516	427	
10	0	0	0	0	516	426	
11	0	0	0	0	516	425	
12	0	0	0	0	515	425	
13	0	0	0	0	515	425	
14	0	0	0	0	515	424	
15	0	0	0	0	515	425	
0	0	0	0	0	514	425	
1	0	0	0	0	514	425	
2	0	0	0	0	513	425	
3	0	0	0	0	512	424	
4	0	0	0	0	512	424	
5	0	0	0	0	511	424	
6	0	0	0	0	512	424	
7	0	0	0	0	511	424	
8	0	0	0	0	511	424	
9	0	0	0	0	511	425	
10	0	0	0	0	511	424	
11	0	0	0	0	510	424	
12	0	0	0	0	510	424	
13	0	0	0	0	509	423	
14	0	0	0	0	509	425	
15	0	0	0	0	508	424	
0	0	0	0	0	508	425	
1	0	0	0	0	508	425	
2	0	0	0	0	508	425	
3	0	0	0	0	508	425	
4	0	0	0	0	508	425	
5	0	0	0	0	508	425	
6	0	0	0	0	507	425	
7	0	0	0	0	507	426	
8	0	0	0	0	508	426	
9	0	0	0	0	507	427	
10	0	0	0	0	507	427	
11	0	0	0	0	507	427	
12	0	0	0	0	508	427	
13	0	0	0	0	508	427	
14	0	0	0	0	507	427	
15	0	0	0	0	507	428	
0	0	0	0	0	507	428	
1	0	0	0	0	506	429	
2	0	0	0	0	506	429	
3	0	0	0	0	506	428	
4	0	0	0	0	506	430	
5	0	0	0	0	507	430	
6	0	0	0	0	506	430	
7	0	0	0	0	507	431	
8	0	0	0	0	507	432	
9	0	0	0	0	507	432	
10	0	0	0	0	507	431	
11	0	0	0	0	507	432	
12	0	0	0	0	507	432	
13	0	0	0	0	507	432	
14	0	0	0	0	507	433	
15	0	0	0	0	507	433	
0	0	0	0	0	507	433	
1	0	0	0	0	506	434	
2	0	0	0	0	507	434	
3	0	0	0	0	507	433	
4	0	0	0	0	507	434	
5	0	0	0	0	507	434	
6	0	0	0	0	507	435	
7	0	0	0	0	508	435	
8	0	0	0	0	508	435	
9	0	0	0	0	507	436	
10	0	0	0	0	507	435	
11	0	0	0	0	507	435	
12	0	0	0	0	506	435	
13	0	0	0	0	507	435	
14	0	0	0	0	506	435	
15	0	0	0	0	507	435	
0	0	0	0	0	507	436	
1	0	0	0	0	507	437	
2	0	0	0	0	507	435	
3	0	0	0	0	508	436	
4	0	0	0	0	507	436	
5	0	0	0	0	506	435	
6	0	0	0	0	506	435	
7	0	0	0	0	507	436	
8	0	0	0	0	507	435	
9	0	0	0	0	507	436	
10	0	0	0	0	508	435	
11	0	0	0	0	508	435	
12	0	0	0	0	508	435	
13	0	0	0	0	508	434	
14	0	0	0	0	508	434	
15	0	0	0	0	508	434	
0	0	0	0	0	509	435	
1	0	0	0	0	510	435	
2	0	0	0	0	510	434	
3	0	0	0	0	510	434	
4	0	0	0	0	510	433	
5	0	0	0	0	511	433	
6	0	0	0	0	511	433	
7	0	0	0	0	511	433	
8	0	0	0	0	511	433	
9	0	0	0	0	511	433	
10	0	0	0	0	511	432	
11	0	0	0	0	511	432	
12	0	0	0	0	511	432	
13	0	0	0	0	511	431	
14	0	0	0	0	510	431	
15	0	0	0	0	510	431	
0	0	0	0	0	510	430	
1	0	0	0	0	509	430	
2	0	0	0	0	509	430	
3	0	0	0	0	509	430	
4	0	0	0	0	508	430	
5	0	0	0	0	508	428	
6	0	0	0	0	508	428	
7	0	0	0	0	507	428	
8	0	0	0	0	507	428	
9	0	0	0	0	507	429	
10	0	0	0	0	507	427	
11	0	0	0	0	507	427	
12	0	0	0	0	507	427	
13	0	0	0	0	508	427	
14	0	0	0	0	508	427	
15	0	0	0	0	508	427	
0	0	0	0	0	508	427	
1	0	0	0	0	508	427	
2	0	0	0	0	508	426	
3	0	0	0	0	508	426	
4	0	0	0	0	508	426	
5	0	0	0	0	508	425	
6	0	0	0	0	508	426	
7	0	0	0	0	508	426	
8	0	0	0	0	508	426	
9	0	0	0	0	508	426	
10	0	0	0	0	508	426	
11	0	0	0	0	507	425	
12	0	0	0	0	508	425	
13	0	0	0	0	508	425	
14	0	0	0	0	508	425	
15	0	0	0	0	509	425	
0	0	0	0	0	510	424	
1	0	0	0	0	510	425	
2	0	0	0	0	510	424	
3	0	0	0	0	511	425	
4	0	0	0	0	511	425	
5	0	0	0	0	512	425	
6	0	0	0	0	512	424	
7	0	0	0	0	512	425	
8	0	0	0	0	513	425	
9	0	0	0	0	512	426	
10	0	0	0	0	512	425	
11	0	0	0	0	512	425	
12	0	0	0	0	512	426	
13	0	0	0	0	512	425	
14	0	0	0	0	512	425	
15	0	0	0	0	512	426	
0	0	0	0	0	512	426	
1	0	0	0	0	512	427	
2	0	0	0	0	511	427	
3	0	0	0	0	511	425	
4	0	0	0	0	511	427	
5	0	0	0	0	511	427	
6	0	0	0	0	511	428	
7	0	0	0	0	511	428	
8	0	0	0	0	512	428	
9	0	0	0	0	512	429	
10	0	0	0	0	512	428	
11	0	0	0	0	513	429	
12	0	0	0	0	512	429	
13	0	0	0	0	512	428	
14	0	0	0	0	511	429	
15	0	0	0	0	511	429	
0	0	0	0	0	511	429	
1	0	0	0	0	512	430	
2	0	0	0	0	512	430	
3	0	0	0	0	512	429	
4	0	0	0	0	512	430	
5	0	0	0	0	513	429	
6	0	0	0	0	512	431	
7	0	0	0	0	512	431	
8	0	0	0	0	512	431	
9	0	0	0	0	512	432	
10	0	0	0	0	511	431	
11	0	0	0	0	511	432	
12	0	0	0	0	512	432	
13	0	0	0	0	511	432	
14	0	0	0	0	511	432	
15	0	0	0	0	511	433	
0	0	0	0	0	512	432	
1	0	0	0	0	511	434	
2	0	0	0	0	511	433	
3	0	0	0	0	512	433	
4	0	0	0	0	512	434	
5	0	0	0	0	512	433	
6	0	0	0	0	512	434	
7	0	0	0	0	512	434	
8	0	0	0	0	512	434	
9	0	0	0	0	512	434	
10	0	0	0	0	512	434	
11	0	0	0	0	513	434	
12	0	0	0	0	513	435	
13	0	0	0	0	513	434	
14	0	0	0	0	513	434	
15	0	0	0	0	514	434	
0	0	0	0	0	514	434	
1	0	0	0	0	514	434	
2	0	0	0	0	514	433	
3	0	0	0	0	514	434	
4	0	0	0	0	514	434	
5	0	0	0	0	513	434	
6	0	0	0	0	513	434	
7	0	0	0	0	512	434	
8	0	0	0	0	512	434	
9	0	0	0	0	512	435	
10	0	0	0	0	512	434	
11	0	0	0	0	512	434	
12	0	0	0	0	512	434	
13	0	0	0	0	512	433	
14	0	0	0	0	512	433	
15	0	0	0	0	512	434	
0	0	0	0	0	512	433	
1	0	0	0	0	512	434	
2	0	0	0	0	512	433	
3	0	0	0	0	512	433	
4	0	0	0	0	513	433	
5	0	0	0	0	513	432	
6	0	0	0	0	513	432	
7	0	0	0	0	513	432	
8	0	0	0	0	513	432	
9	0	0	0	0	513	432	
10	0	0	0	0	514	431	
11	0	0	0	0	514	431	
12	0	0	0	0	514	431	
13	0	0	0	0	514	430	
14	0	0	0	0	514	430	
15	0	0	0	0	514	429	
0	0	0	0	0	515	430	
1	0	0	0	0	515	430	
2	0	0	0	0	515	430	
3	0	0	0	0	516	429	
4	0	0	0	0	515	429	
5	0	0	0	0	515	428	
6	0	0	0	0	515	427	
7	0	0	0	0	515	428	
8	0	0	0	0	515	427	
9	0	0	0	0	515	427	
10	0	0	0	0	515	427	
11	0	0	0	0	514	427	
12	0	0	0	0	514	427	
13	0	0	0	0	513	426	
14	0	0	0	0	512	426	
15	0	0	0	0	512	426	
0	0	0	0	0	511	426	
1	0	0	0	0	511	426	
2	0	0	0	0	511	425	
3	0	0	0	0	511	426	
4	0	0	0	0	512	426	
5	0	0	0	0	512	425	
6	0	0	0	0	512	425	
7	0	0	0	0	512	426	
8	0	0	0	0	512	426	
9	0	0	0	0	512	427	
10	0	0	0	0	512	426	
11	0	0	0	0	512	425	
12	0	0	0	0	512	426	
13	0	0	0	0	512	426	
14	0	0	0	0	512	426	
15	0	0	0	0	512	426	
0	0	0	0	0	512	426	
1	0	0	0	0	511	426	
2	0	0	0	0	511	426	
3	0	0	0	0	511	426	
4	0	0	0	0	511	426	
5	0	0	0	0	511	426	
6	0	0	0	0	511	426	
7	0	0	0	0	511	427	
8	0	0	0	0	510	427	
9	0	0	0	0	510	428	
10	0	0	0	0	511	428	
11	0	0	0	0	511	428	
12	0	0	0	0	511	428	
13	0	0	0	0	511	428	
14	0	0	0	0	511	428	
15	0	0	0	0	511	428	
0	0	0	0	0	510	429	
1	0	0	0	0	511	430	
2	0	0	0	0	511	429	
3	0	0	0	0	511	430	
4	0	0	0	0	511	430	
5	0	0	0	0	510	429	
6	0	0	0	0	511	429	
7	0	0	0	0	511	429	
8	0	0	0	0	511	429	
9	0	0	0	0	511	431	
10	0	0	0	0	512	430	
11	0	0	0	0	512	430	
12	0	0	0	0	511	431	
13	0	0	0	0	511	430	
14	0	0	0	0	511	431	
15	0	0	0	0	511	431	
0	0	0	0	0	512	431	
1	0	0	0	0	511	432	
2	0	0	0	0	510	432	
3	0	0	0	0	510	432	
4	0	0	0	0	510	432	
5	0	0	0	0	510	432	
6	0	0	0	0	511	432	
7	0	0	0	0	512	432	
8	0	0	0	0	512	433	
9	0	0	0	0	512	433	
10	0	0	0	0	512	432	
11	0	0	0	0	512	433	
12	0	0	0	0	512	432	
13	0	0	0	0	512	433	
14	0	0	0	0	513	433	
15	0	0	0	0	512	433	
0	0	0	0	0	512	433	
1	0	0	0	0	512	434	
2	0	0	0	0	512	433	
3	0	0	0	0	512	433	
4	0	0	0	0	512	433	
5	0	0	0	0	512	432	
6	0	0	0	0	511	433	
7	0	0	0	0	510	433	
8	0	0	0	0	511	432	
9	0	0	0	0	510	433	
10	0	0	0	0	510	433	
11	0	0	0	0	510	433	
12	0	0	0	0	510	433	
13	0	0	0	0	510	432	
14	0	0	0	0	509	432	
15	0	0	0	0	509	432	
0	0	0	0	0	509	432	
1	0	0	0	0	508	432	
2	0	0	0	0	507	432	
3	0	0	0	0	507	431	
4	0	0	0	0	507	431	
5	0	0	0	0	507	430	
6	0	0	0	0	507	431	
7	0	0	0	0	507	431	
8	0	0	0	0	508	430	
9	0	0	0	0	508	431	
10	0	0	0	0	508	430	
11	0	0	0	0	508	430	
12	0	0	0	0	508	430	
13	0	0	0	0	509	430	
14	0	0	0	0	510	430	
15	0	0	0	0	511	430	
0	0	0	0	0	511	430	
1	0	0	0	0	510	430	
2	0	0	0	0	510	429	
3	0	0	0	0	509	429	
4	0	0	0	0	508	430	
5	0	0	0	0	508	428	
6	0	0	0	0	508	429	
7	0	0	0	0	507	428	
8	0	0	0	0	507	429	
9	0	0	0	0	506	429	
10	0	0	0	0	507	428	
11	0	0	0	0	506	428	
12	0	0	0	0	506	428	
13	0	0	0	0	506	428	
14	0	0	0	0	507	428	
15	0	0	0	0	508	428	
0	0	0	0	0	508	428	
1	0	0	0	0	509	428	
2	0	0	0	0	509	428	
3	0	0	0	0	509	428	
4	0	0	0	0	511	427	
5	0	0	0	0	511	428	
6	0	0	0	0	511	428	
7	0	0	0	0	511	427	
8	0	0	0	0	512	428	
9	0	0	0	0	512	428	
10	0	0	0	0	512	427	
11	0	0	0	0	512	428	
12	0	0	0	0	512	428	
13	0	0	0	0	512	427	
14	0	0	0	0	512	428	
15	0	0	0	0	512	428	
0	0	0	0	0	512	428	
1	0	0	0	0	512	428	
2	0	0	0	0	512	427	
3	0	0	0	0	512	427	
4	0	0	0	0	512	428	
5	0	0	0	0	513	428	
6	0	0	0	0	513	428	
7	0	0	0	0	513	428	
8	0	0	0	0	513	427	
9	0	0	0	0	513	428	
10	0	0	0	0	512	427	
11	0	0	0	0	512	428	
12	0	0	0	0	512	428	
13	0	0	0	0	512	427	
14	0	0	0	0	512	428	
15	0	0	0	0	512	428	
0	0	0	0	0	513	428	
1	0	0	0	0	514	429	
2	0	0	0	0	514	428	
3	0	0	0	0	514	429	
4	0	0	0	0	513	429	
5	0	0	0	0	514	428	
6	0	0	0	0	514	429	
7	0	0	0	0	513	429	
8	0	0	0	0	512	429	
9	0	0	0	0	512	430	
10	0	0	0	0	512	429	
11	0	0	0	0	511	429	
12	0	0	0	0	511	430	
13	0	0	0	0	510	429	
14	0	0	0	0	510	430	
15	0	0	0	0	509	430	
0	0	0	0	0	509	431	
1	0	0	0	0	509	431	
2	0	0	0	0	509	430	
3	0	0	0	0	510	431	
4	0	0	0	0	510	431	
5	0	0	0	0	510	431	
6	0	0	0	0	511	432	
7	0	0	0	0	510	432	
8	0	0	0	0	510	432	
9	0	0	0	0	510	432	
10	0	0	0	0	511	432	
11	0	0	0	0	510	432	
12	0	0	0	0	509	432	
13	0	0	0	0	509	432	
14	0	0	0	0	509	431	
15	0	0	0	0	509	432	
0	0	0	0	0	510	432	
1	0	0	0	0	510	432	
2	0	0	0	0	509	431	
3	0	0	0	0	510	431	
4	0	0	0	0	509	431	
5	0	0	0	0	509	431	
6	0	0	0	0	509	431	
7	0	0	0	0	509	432	
8	0	0	0	0	508	431	
9	0	0	0	0	508	433	
10	0	0	0	0	508	432	
11	0	0	0	0	508	431	
12	0	0	0	0	508	432	
13	0	0	0	0	506	431	
14	0	0	0	0	505	432	
15	0	0	0	0	505	432	
0	0	0	0	0	504	432	
1	0	0	0	0	503	432	
2	0	0	0	0	502	432	
3	0	0	0	0	499	432	
4	0	0	0	0	497	431	
5	0	0	0	0	494	431	
6	0	0	0	0	490	431	
7	0	0	0	0	485	431	
8	0	0	0	0	481	431	
9	0	0	0	0	475	431	
10	0	0	0	0	470	431	
11	0	0	0	0	464	431	
12	0	0	0	0	458	431	
13	0	0	0	0	452	430	
14	0	0	0	0	446	431	
15	0	0	0	0	441	431	
0	0	0	0	0	435	430	
1	0	0	0	0	430	431	
2	0	0	0	0	425	430	
3	0	0	0	0	422	430	
4	0	0	0	0	417	430	
5	0	0	0	0	414	430	
6	0	0	0	0	411	430	
7	0	0	0	0	408	430	
8	0	0	0	0	404	430	
9	0	0	0	0	398	430	
10	0	0	0	0	391	428	
11	0	0	0	0	387	428	
12	0	0	0	0	387	428	
13	0	0	0	0	389	428	
14	0	0	0	0	396	429	
15	0	0	0	0	407	429	
0	0	0	0	0	420	428	
1	0	0	0	0	438	429	
2	0	0	0	0	457	429	
3	0	0	0	0	477	428	
4	0	0	0	0	496	428	
5	0	0	0	0	514	428	
6	0	0	0	0	529	428	
7	0	0	0	0	542	429	
8	0	0	0	0	550	427	
9	0	0	0	0	556	428	
10	0	0	0	0	562	428	
11	0	0	0	0	571	428	
12	0	0	0	0	579	427	
13	0	0	0	0	587	428	
14	0	0	0	0	589	428	
15	0	0	0	0	589	427	
0	0	0	0	0	587	428	
1	0	0	0	0	584	428	
2	0	0	0	0	582	428	
3	0	0	0	0	582	428	
4	0	0	0	0	586	428	
5	0	0	0	0	592	428	
6	0	0	0	0	606	428	
7	0	0	0	0	623	428	
8	0	0	0	0	638	429	
9	0	0	0	0	652	429	
10	0	0	0	0	660	428	
11	0	0	0	0	664	428	
12	0	0	0	0	665	428	
13	0	0	0	0	664	428	
14	0	0	0	0	659	429	
15	0	0	0	0	652	429	
0	0	0	0	0	642	429	
1	0	0	0	0	630	430	
2	0	0	0	0	618	430	
3	0	0	0	0	607	429	
4	0	0	0	0	597	430	
5	0	0	0	0	588	430	
6	0	0	0	0	579	430	
7	0	0	0	0	570	430	
8	0	0	0	0	564	430	
9	0	0	0	0	558	431	
10	0	0	0	0	553	430	
11	0	0	0	0	548	430	
12	0	0	0	0	544	430	
13	0	0	0	0	540	431	
14	0	0	0	0	537	431	
15	0	0	0	0	533	431	
0	0	0	0	0	529	431	
1	0	0	0	0	526	432	
2	0	0	0	0	522	432	
3	0	0	0	0	518	431	
4	0	0	0	0	514	431	
5	0	0	0	0	510	431	
6	0	0	0	0	506	432	
7	0	0	0	0	503	432	
8	0	0	0	0	500	432	
9	0	0	0	0	498	432	
10	0	0	0	0	496	432	
11	0	0	0	0	494	432	
12	0	0	0	0	492	432	
13	0	0	0	0	492	432	
14	0	0	0	0	490	432	
15	0	0	0	0	489	432	
0	0	0	0	0	488	432	
1	0	0	0	0	488	433	
2	0	0	0	0	487	432	
3	0	0	0	0	487	433	
4	0	0	0	0	486	433	
5	0	0	0	0	487	433	
6	0	0	0	0	487	433	
7	0	0	0	0	487	432	
8	0	0	0	0	487	432	
9	0	0	0	0	487	433	
10	0	0	0	0	487	432	
11	0	0	0	0	487	432	
12	0	0	0	0	487	432	
13	0	0	0	0	487	432	
14	0	0	0	0	487	432	
15	0	0	0	0	487	432	
0	0	0	0	0	486	432	
1	0	0	0	0	486	432	
2	0	0	0	0	485	432	
3	0	0	0	0	485	431	
4	0	0	0	0	486	432	
5	0	0	0	0	486	430	
6	0	0	0	0	486	431	
7	0	0	0	0	486	431	
8	0	0	0	0	486	431	
9	0	0	0	0	486	431	
10	0	0	0	0	486	431	
11	0	0	0	0	486	432	
12	0	0	0	0	487	432	
13	0	0	0	0	486	430	
14	0	0	0	0	487	430	
15	0	0	0	0	487	431	
0	0	0	0	0	487	429	
1	0	0	0	0	487	431	
2	0	0	0	0	487	430	
3	0	0	0	0	488	430	
4	0	0	0	0	488	429	
5	0	0	0	0	488	428	
6	0	0	0	0	489	428	
7	0	0	0	0	489	429	
8	0	0	0	0	490	429	
9	0	0	0	0	491	429	
10	0	0	0	0	490	428	
11	0	0	0	0	490	428	
12	0	0	0	0	491	429	
13	0	0	0	0	491	427	
14	0	0	0	0	491	428	
15	0	0	0	0	491	428	
0	0	0	0	0	490	428	
1	0	0	0	0	490	428	
2	0	0	0	0	489	427	
3	0	0	0	0	489	427	
4	0	0	0	0	489	427	
5	0	0	0	0	489	427	
6	0	0	0	0	489	428	
7	0	0	0	0	489	427	
8	0	0	0	0	489	427	
9	0	0	0	0	489	428	
10	0	0	0	0	489	427	
11	0	0	0	0	489	427	
12	0	0	0	0	490	428	
13	0	0	0	0	490	427	
14	0	0	0	0	490	426	
15	0	0	0	0	490	427	
0	0	0	0	0	489	427	
1	0	0	0	0	490	427	
2	0	0	0	0	490	427	
3	0	0	0	0	490	427	
4	0	0	0	0	490	427	
5	0	0	0	0	490	427	
6	0	0	0	0	491	427	
7	0	0	0	0	491	427	
8	0	0	0	0	491	427	
9	0	0	0	0	490	427	
10	0	0	0	0	491	427	
11	0	0	0	0	490	427	
12	0	0	0	0	490	428	
13	0	0	0	0	490	427	
14	0	0	0	0	490	428	
15	0	0	0	0	491	428	
0	0	0	0	0	491	428	
1	0	0	0	0	492	428	
2	0	0	0	0	492	428	
3	0	0	0	0	492	428	
4	0	0	0	0	492	429	
5	0	0	0	0	493	428	
6	0	0	0	0	493	429	
7	0	0	0	0	493	428	
8	0	0	0	0	493	429	
9	0	0	0	0	492	430	
10	0	0	0	0	491	429	
11	0	0	0	0	492	429	
12	0	0	0	0	492	429	
13	0	0	0	0	492	429	
14	0	0	0	0	492	429	
15	0	0	0	0	493	430	
0	0	0	0	0	493	430	
1	0	0	0	0	493	431	
2	0	0	0	0	494	431	
3	0	0	0	0	494	431	
4	0	0	0	0	494	431	
5	0	0	0	0	494	431	
6	0	0	0	0	493	431	
7	0	0	0	0	493	431	
8	0	0	0	0	493	431	
9	0	0	0	0	492	432	
10	0	0	0	0	492	431	
11	0	0	0	0	492	432	
12	0	0	0	0	492	432	
13	0	0	0	0	492	432	
14	0	0	0	0	492	432	
15	0	0	0	0	492	432	
0	0	0	0	0	492	432	
1	0	0	0	0	492	433	
2	0	0	0	0	491	433	
3	0	0	0	0	490	433	
4	0	0	0	0	490	433	
5	0	0	0	0	490	433	
6	0	0	0	0	491	432	
7	0	0	0	0	492	433	
8	0	0	0	0	492	433	
9	0	0	0	0	493	434	
10	0	0	0	0	493	433	
11	0	0	0	0	495	433	
12	0	0	0	0	495	434	
13	0	0	0	0	496	434	
14	0	0	0	0	496	435	
15	0	0	0	0	496	435	
0	0	0	0	0	497	435	
1	0	0	0	0	497	436	
2	0	0	0	0	497	436	
3	0	0	0	0	498	435	
4	0	0	0	0	499	435	
5	0	0	0	0	499	436	
6	0	0	0	0	499	435	
7	0	0	0	0	500	435	
8	0	0	0	0	501	435	
9	0	0	0	0	500	436	
10	0	0	0	0	501	436	
11	0	0	0	0	502	435	
12	0	0	0	0	503	435	
13	0	0	0	0	504	435	
14	0	0	0	0	504	435	
15	0	0	0	0	504	434	
0	0	0	0	0	505	435	
1	0	0	0	0	505	435	
2	0	0	0	0	507	435	
3	0	0	0	0	508	434	
4	0	0	0	0	508	434	
5	0	0	0	0	509	433	
6	0	0	0	0	509	432	
7	0	0	0	0	510	432	
8	0	0	0	0	510	432	
9	0	0	0	0	511	433	
10	0	0	0	0	512	431	
11	0	0	0	0	512	431	
12	0	0	0	0	513	431	
13	0	0	0	0	514	430	
14	0	0	0	0	514	430	
15	0	0	0	0	515	429	
0	0	0	0	0	517	429	
1	0	0	0	0	518	429	
2	0	0	0	0	518	428	
3	0	0	0	0	519	429	
4	0	0	0	0	521	428	
5	0	0	0	0	521	427	
6	0	0	0	0	522	427	
7	0	0	0	0	522	427	
8	0	0	0	0	523	427	
9	0	0	0	0	523	427	
10	0	0	0	0	523	426	
11	0	0	0	0	523	426	
12	0	0	0	0	523	426	
13	0	0	0	0	524	425	
14	0	0	0	0	524	425	
15	0	0	0	0	525	424	
0	0	0	0	0	525	425	
1	0	0	0	0	525	425	
2	0	0	0	0	526	425	
3	0	0	0	0	526	425	
4	0	0	0	0	526	424	
5	0	0	0	0	526	424	
6	0	0	0	0	526	424	
7	0	0	0	0	527	423	
8	0	0	0	0	527	424	
9	0	0	0	0	527	424	
10	0	0	0	0	527	423	
11	0	0	0	0	527	423	
12	0	0	0	0	528	423	
13	0	0	0	0	528	423	
14	0	0	0	0	527	423	
15	0	0	0	0	527	423	
0	0	0	0	0	526	423	
1	0	0	0	0	525	424	
2	0	0	0	0	524	423	
3	0	0	0	0	524	423	
4	0	0	0	0	524	423	
5	0	0	0	0	523	423	
6	0	0	0	0	523	423	
7	0	0	0	0	522	423	
8	0	0	0	0	521	423	
9	0	0	0	0	521	425	
10	0	0	0	0	521	424	
11	0	0	0	0	521	423	
12	0	0	0	0	521	424	
13	0	0	0	0	520	425	
14	0	0	0	0	519	425	
15	0	0	0	0	519	425	
0	0	0	0	0	518	425	
1	0	0	0	0	518	427	
2	0	0	0	0	518	426	
3	0	0	0	0	517	426	
4	0	0	0	0	516	427	
5	0	0	0	0	516	427	
6	0	0	0	0	516	427	
7	0	0	0	0	516	428	
8	0	0	0	0	515	428	
9	0	0	0	0	515	429	
10	0	0	0	0	514	428	
11	0	0	0	0	514	429	
12	0	0	0	0	513	429	
13	0	0	0	0	512	429	
14	0	0	0	0	512	429	
15	0	0	0	0	511	429	
0	0	0	0	0	511	429	
1	0	0	0	0	511	431	
2	0	0	0	0	510	431	
3	0	0	0	0	510	431	
4	0	0	0	0	509	430	
5	0	0	0	0	508	430	
6	0	0	0	0	508	431	
7	0	0	0	0	507	431	
8	0	0	0	0	507	431	
9	0	0	0	0	507	432	
10	0	0	0	0	507	431	
11	0	0	0	0	508	432	
12	0	0	0	0	508	433	
13	0	0	0	0	507	432	
14	0	0	0	0	508	433	
15	0	0	0	0	508	433	
0	0	0	0	0	508	433	
1	0	0	0	0	508	434	
2	0	0	0	0	509	434	
3	0	0	0	0	509	433	
4	0	0	0	0	509	433	
5	0	0	0	0	508	433	
6	0	0	0	0	508	433	
7	0	0	0	0	508	433	
8	0	0	0	0	509	433	
9	0	0	0	0	509	433	
10	0	0	0	0	509	432	
11	0	0	0	0	510	432	
12	0	0	0	0	510	432	
13	0	0	0	0	510	431	
14	0	0	0	0	511	431	
15	0	0	0	0	512	431	
0	0	0	0	0	511	431	
1	0	0	0	0	511	432	
2	0	0	0	0	511	431	
3	0	0	0	0	511	431	
4	0	0	0	0	511	430	
5	0	0	0	0	511	430	
6	0	0	0	0	511	430	
7	0	0	0	0	511	429	
8	0	0	0	0	511	430	
9	0	0	0	0	510	430	
10	0	0	0	0	510	429	
11	0	0	0	0	510	429	
12	0	0	0	0	509	430	
13	0	0	0	0	509	429	
14	0	0	0	0	510	430	
15	0	0	0	0	509	430	
0	0	0	0	0	508	431	
1	0	0	0	0	509	432	
2	0	0	0	0	509	432	
3	0	0	0	0	509	432	
4	0	0	0	0	509	432	
5	0	0	0	0	508	432	
6	0	0	0	0	508	432	
7	0	0	0	0	509	432	
8	0	0	0	0	509	432	
9	0	0	0	0	509	432	
10	0	0	0	0	509	432	
11	0	0	0	0	509	432	
12	0	0	0	0	509	432	
13	0	0	0	0	508	432	
14	0	0	0	0	508	432	
15	0	0	0	0	507	432	
0	0	0	0	0	507	431	
1	0	0	0	0	506	432	
2	0	0	0	0	506	431	
3	0	0	0	0	506	431	
4	0	0	0	0	507	430	
5	0	0	0	0	506	430	
6	0	0	0	0	507	430	
7	0	0	0	0	507	429	
8	0	0	0	0	507	429	
9	0	0	0	0	507	429	
10	0	0	0	0	507	429	
11	0	0	0	0	507	428	
12	0	0	0	0	507	428	
13	0	0	0	0	506	428	
14	0	0	0	0	507	428	
15	0	0	0	0	508	429	
0	0	0	0	0	508	429	
1	0	0	0	0	509	429	
2	0	0	0	0	509	428	
3	0	0	0	0	510	428	
4	0	0	0	0	510	428	
5	0	0	0	0	511	428	
6	0	0	0	0	511	429	
7	0	0	0	0	512	429	
8	0	0	0	0	512	428	
9	0	0	0	0	513	429	
10	0	0	0	0	513	428	
11	0	0	0	0	513	428	
12	0	0	0	0	514	428	
13	0	0	0	0	513	428	
14	0	0	0	0	513	428	
15	0	0	0	0	514	428	
0	0	0	0	0	514	428	
1	0	0	0	0	513	429	
2	0	0	0	0	513	428	
3	0	0	0	0	513	427	
4	0	0	0	0	513	428	
5	0	0	0	0	513	428	
6	0	0	0	0	513	428	
7	0	0	0	0	513	429	
8	0	0	0	0	514	428	
9	0	0	0	0	513	430	
10	0	0	0	0	513	428	
11	0	0	0	0	513	429	
12	0	0	0	0	514	430	
13	0	0	0	0	513	429	
14	0	0	0	0	513	430	
15	0	0	0	0	513	430	
0	0	0	0	0	513	430	
1	0	0	0	0	513	431	
2	0	0	0	0	513	431	
3	0	0	0	0	513	431	
4	0	0	0	0	513	431	
5	0	0	0	0	514	431	
6	0	0	0	0	514	431	
7	0	0	0	0	514	431	
8	0	0	0	0	514	431	
9	0	0	0	0	515	432	
10	0	0	0	0	514	432	
11	0	0	0	0	515	432	
12	0	0	0	0	515	432	
13	0	0	0	0	516	432	
14	0	0	0	0	516	431	
15	0	0	0	0	516	432	
0	0	0	0	0	516	431	
1	0	0	0	0	517	432	
2	0	0	0	0	516	432	
3	0	0	0	0	516	432	
4	0	0	0	0	516	432	
5	0	0	0	0	516	432	
6	0	0	0	0	515	432	
7	0	0	0	0	515	432	
8	0	0	0	0	515	432	
9	0	0	0	0	516	433	
10	0	0	0	0	516	432	
11	0	0	0	0	515	432	
12	0	0	0	0	515	433	
13	0	0	0	0	515	432	
14	0	0	0	0	515	432	
15	0	0	0	0	515	432	
0	0	0	0	0	516	433	
1	0	0	0	0	516	433	
2	0	0	0	0	516	433	
3	0	0	0	0	516	433	
4	0	0	0	0	515	433	
5	0	0	0	0	515	432	
6	0	0	0	0	513	432	
7	0	0	0	0	513	432	
8	0	0	0	0	512	433	
9	0	0	0	0	512	433	
10	0	0	0	0	513	432	
11	0	0	0	0	513	431	
12	0	0	0	0	513	432	
13	0	0	0	0	513	432	
14	0	0	0	0	514	432	
15	0	0	0	0	515	432	
0	0	0	0	0	515	432	
1	0	0	0	0	516	433	
2	0	0	0	0	515	432	
3	0	0	0	0	515	432	
4	0	0	0	0	515	431	
5	0	0	0	0	515	431	
6	0	0	0	0	515	432	
7	0	0	0	0	515	431	
8	0	0	0	0	515	431	
9	0	0	0	0	515	432	
10	0	0	0	0	516	430	
11	0	0	0	0	517	430	
12	0	0	0	0	517	431	
13	0	0	0	0	517	430	
14	0	0	0	0	518	430	
15	0	0	0	0	518	430	
0	0	0	0	0	518	429	
1	0	0	0	0	518	430	
2	0	0	0	0	517	429	
3	0	0	0	0	517	429	
4	0	0	0	0	518	430	
5	0	0	0	0	517	428	
6	0	0	0	0	517	429	
7	0	0	0	0	517	429	
8	0	0	0	0	516	429	
9	0	0	0	0	516	430	
10	0	0	0	0	515	428	
11	0	0	0	0	515	428	
12	0	0	0	0	515	428	
13	0	0	0	0	515	428	
14	0	0	0	0	515	428	
15	0	0	0	0	516	428	
0	0	0	0	0	516	428	
1	0	0	0	0	517	429	
2	0	0	0	0	517	428	
3	0	0	0	0	517	427	
4	0	0	0	0	517	428	
5	0	0	0	0	518	428	
6	0	0	0	0	518	428	
7	0	0	0	0	518	428	
8	0	0	0	0	518	427	
9	0	0	0	0	518	428	
10	0	0	0	0	517	428	
11	0	0	0	0	517	428	
12	0	0	0	0	516	428	
13	0	0	0	0	515	428	
14	0	0	0	0	513	428	
15	0	0	0	0	513	428	
0	0	0	0	0	513	428	
1	0	0	0	0	512	428	
2	0	0	0	0	512	428	
3	0	0	0	0	512	428	
4	0	0	0	0	512	428	
5	0	0	0	0	512	428	
6	0	0	0	0	512	428	
7	0	0	0	0	513	428	
8	0	0	0	0	513	428	
9	0	0	0	0	513	430	
10	0	0	0	0	513	429	
11	0	0	0	0	513	428	
12	0	0	0	0	514	429	
13	0	0	0	0	515	428	
14	0	0	0	0	515	429	
15	0	0	0	0	515	428	
0	0	0	0	0	515	429	
1	0	0	0	0	515	430	
2	0	0	0	0	515	430	
3	0	0	0	0	515	430	
4	0	0	0	0	515	430	
5	0	0	0	0	515	430	
6	0	0	0	0	515	430	
7	0	0	0	0	515	430	
8	0	0	0	0	515	431	
9	0	0	0	0	514	432	
10	0	0	0	0	514	430	
11	0	0	0	0	513	431	
12	0	0	0	0	513	431	
13	0	0	0	0	513	431	
14	0	0	0	0	513	431	
15	0	0	0	0	512	431	
0	0	0	0	0	512	431	
1	0	0	0	0	511	432	
2	0	0	0	0	511	431	
3	0	0	0	0	511	432	
4	0	0	0	0	510	432	
5	0	0	0	0	509	432	
6	0	0	0	0	510	432	
7	0	0	0	0	509	433	
8	0	0	0	0	509	432	
9	0	0	0	0	509	432	
10	0	0	0	0	510	432	
11	0	0	0	0	511	432	
12	0	0	0	0	511	433	
13	0	0	0	0	512	433	
14	0	0	0	0	513	433	
15	0	0	0	0	513	433	
0	0	0	0	0	512	433	
1	0	0	0	0	512	433	
2	0	0	0	0	512	433	
3	0	0	0	0	512	434	
4	0	0	0	0	512	433	
5	0	0	0	0	513	433	
6	0	0	0	0	514	433	
7	0	0	0	0	513	433	
8	0	0	0	0	512	433	
9	0	0	0	0	512	433	
10	0	0	0	0	512	433	
11	0	0	0	0	512	433	
12	0	0	0	0	512	432	
13	0	0	0	0	512	432	
14	0	0	0	0	513	431	
15	0	0	0	0	513	432	
0	0	0	0	0	512	431	
1	0	0	0	0	512	431	
2	0	0	0	0	512	430	
3	0	0	0	0	512	431	
4	0	0	0	0	512	430	
5	0	0	0	0	512	430	
6	0	0	0	0	514	430	
7	0	0	0	0	515	430	
8	0	0	0	0	515	430	
9	0	0	0	0	515	430	
10	0	0	0	0	514	430	
11	0	0	0	0	513	429	
12	0	0	0	0	514	429	
13	0	0	0	0	513	429	
14	0	0	0	0	513	429	
15	0	0	0	0	513	429	
0	0	0	0	0	513	428	
1	0	0	0	0	514	429	
2	0	0	0	0	514	428	
3	0	0	0	0	514	428	
4	0	0	0	0	514	428	
5	0	0	0	0	514	427	
6	0	0	0	0	513	427	
7	0	0	0	0	512	428	
8	0	0	0	0	513	428	
9	0	0	0	0	512	428	
10	0	0	0	0	512	428	
11	0	0	0	0	512	427	
12	0	0	0	0	512	427	
13	0	0	0	0	512	427	
14	0	0	0	0	512	427	
15	0	0	0	0	512	427	
0	0	0	0	0	512	427	
1	0	0	0	0	512	428	
2	0	0	0	0	513	427	
3	0	0	0	0	514	428	
4	0	0	0	0	514	428	
5	0	0	0	0	515	427	
6	0	0	0	0	514	427	
7	0	0	0	0	515	427	
8	0	0	0	0	515	427	
9	0	0	0	0	514	428	
10	0	0	0	0	513	427	
11	0	0	0	0	512	428	
12	0	0	0	0	512	427	
13	0	0	0	0	511	427	
14	0	0	0	0	510	427	
15	0	0	0	0	510	428	
0	0	0	0	0	510	428	
1	0	0	0	0	510	428	
2	0	0	0	0	510	428	
3	0	0	0	0	511	428	
4	0	0	0	0	511	428	
5	0	0	0	0	511	428	
6	0	0	0	0	511	428	
7	0	0	0	0	511	429	
8	0	0	0	0	511	429	
9	0	0	0	0	511	429	
10	0	0	0	0	512	429	
11	0	0	0	0	513	430	
12	0	0	0	0	513	429	
13	0	0	0	0	513	430	
14	0	0	0	0	514	430	
15	0	0	0	0	514	430	
0	0	0	0	0	514	430	
1	0	0	0	0	513	431	
2	0	0	0	0	513	430	
3	0	0	0	0	513	431	
4	0	0	0	0	513	432	
5	0	0	0	0	513	432	
6	0	0	0	0	513	432	
7	0	0	0	0	513	432	
8	0	0	0	0	513	432	
9	0	0	0	0	512	433	
10	0	0	0	0	512	432	
11	0	0	0	0	511	432	
12	0	0	0	0	512	432	
13	0	0	0	0	511	432	
14	0	0	0	0	509	432	
15	0	0	0	0	508	432	
0	0	0	0	0	508	432	
1	0	0	0	0	507	433	
2	0	0	0	0	505	432	
3	0	0	0	0	503	432	
4	0	0	0	0	499	433	
5	0	0	0	0	496	433	
6	0	0	0	0	490	433	
7	0	0	0	0	486	432	
8	0	0	0	0	481	433	
9	0	0	0	0	475	433	
10	0	0	0	0	469	433	
11	0	0	0	0	463	433	
12	0	0	0	0	457	433	
13	0	0	0	0	450	433	
14	0	0	0	0	444	433	
15	0	0	0	0	439	433	
0	0	0	0	0	433	433	
1	0	0	0	0	427	433	
2	0	0	0	0	422	432	
3	0	0	0	0	417	432	
4	0	0	0	0	412	432	
5	0	0	0	0	407	432	
6	0	0	0	0	403	431	
7	0	0	0	0	401	432	
8	0	0	0	0	399	432	
9	0	0	0	0	393	432	
10	0	0	0	0	385	431	
11	0	0	0	0	377	431	
12	0	0	0	0	371	431	
13	0	0	0	0	370	430	
14	0	0	0	0	371	431	
15	0	0	0	0	377	430	
0	0	0	0	0	388	430	
1	0	0	0	0	403	430	
2	0	0	0	0	424	429	
3	0	0	0	0	448	429	
4	0	0	0	0	473	428	
5	0	0	0	0	497	429	
6	0	0	0	0	520	429	
7	0	0	0	0	541	429	
8	0	0	0	0	556	429	
9	0	0	0	0	563	430	
10	0	0	0	0	568	429	
11	0	0	0	0	575	429	
12	0	0	0	0	584	429	
13	0	0	0	0	594	429	
14	0	0	0	0	603	429	
15	0	0	0	0	609	429	
0	0	0	0	0	611	429	
1	0	0	0	0	610	430	
2	0	0	0	0	609	429	
3	0	0	0	0	611	428	
4	0	0	0	0	615	429	
5	0	0	0	0	621	428	
6	0	0	0	0	632	428	
7	0	0	0	0	644	429	
8	0	0	0	0	655	428	
9	0	0	0	0	663	429	
10	0	0	0	0	671	427	
11	0	0	0	0	678	428	
12	0	0	0	0	679	428	
13	0	0	0	0	679	428	
14	0	0	0	0	675	428	
15	0	0	0	0	669	428	
0	0	0	0	0	661	428	
1	0	0	0	0	651	428	
2	0	0	0	0	640	428	
3	0	0	0	0	628	427	
4	0	0	0	0	616	427	
5	0	0	0	0	605	427	
6	0	0	0	0	595	427	
7	0	0	0	0	587	427	
8	0	0	0	0	578	428	
9	0	0	0	0	571	428	
10	0	0	0	0	564	427	
11	0	0	0	0	558	427	
12	0	0	0	0	553	427	
13	0	0	0	0	548	427	
14	0	0	0	0	543	428	
15	0	0	0	0	537	428	
0	0	0	0	0	531	427	
1	0	0	0	0	527	428	
2	0	0	0	0	522	428	
3	0	0	0	0	518	427	
4	0	0	0	0	512	428	
5	0	0	0	0	508	428	
6	0	0	0	0	504	428	
7	0	0	0	0	502	428	
8	0	0	0	0	499	428	
9	0	0	0	0	497	429	
10	0	0	0	0	495	429	
11	0	0	0	0	494	429	
12	0	0	0	0	492	429	
13	0	0	0	0	490	429	
14	0	0	0	0	489	429	
15	0	0	0	0	487	429	
0	0	0	0	0	487	429	
1	0	0	0	0	487	430	
2	0	0	0	0	486	430	
3	0	0	0	0	485	430	
4	0	0	0	0	484	430	
5	0	0	0	0	484	429	
6	0	0	0	0	483	430	
7	0	0	0	0	482	430	
8	0	0	0	0	481	430	
9	0	0	0	0	481	431	
10	0	0	0	0	481	431	
11	0	0	0	0	481	432	
12	0	0	0	0	481	432	
13	0	0	0	0	480	432	
14	0	0	0	0	480	432	
15	0	0	0	0	480	432	
0	0	0	0	0	480	432	
1	0	0	0	0	480	433	
2	0	0	0	0	480	433	
3	0	0	0	0	480	432	
4	0	0	0	0	480	432	
5	0	0	0	0	480	432	
6	0	0	0	0	480	432	
7	0	0	0	0	480	432	
8	0	0	0	0	481	432	
9	0	0	0	0	480	432	
10	0	0	0	0	481	431	
11	0	0	0	0	482	432	
12	0	0	0	0	482	431	
13	0	0	0	0	482	431	
14	0	0	0	0	483	431	
15	0	0	0	0	483	431	
0	0	0	0	0	484	431	
1	0	0	0	0	484	432	
2	0	0	0	0	485	431	
3	0	0	0	0	485	432	
4	0	0	0	0	485	432	
5	0	0	0	0	485	431	
6	0	0	0	0	485	431	
7	0	0	0	0	485	432	
8	0	0	0	0	485	432	
9	0	0	0	0	485	432	
10	0	0	0	0	486	432	
11	0	0	0	0	486	432	
12	0	0	0	0	485	432	
13	0	0	0	0	486	432	
14	0	0	0	0	485	432	
15	0	0	0	0	485	432	
0	0	0	0	0	484	432	
1	0	0	0	0	486	432	
2	0	0	0	0	486	431	
3	0	0	0	0	486	432	
4	0	0	0	0	487	431	
5	0	0	0	0	487	431	
6	0	0	0	0	487	431	
7	0	0	0	0	487	431	
8	0	0	0	0	488	431	
9	0	0	0	0	488	431	
10	0	0	0	0	488	430	
11	0	0	0	0	489	430	
12	0	0	0	0	489	430	
13	0	0	0	0	489	430	
14	0	0	0	0	489	430	
15	0	0	0	0	489	430	
0	0	0	0	0	489	429	
1	0	0	0	0	488	430	
2	0	0	0	0	488	430	
3	0	0	0	0	488	430	
4	0	0	0	0	487	430	
5	0	0	0	0	486	428	
6	0	0	0	0	485	429	
7	0	0	0	0	485	429	
8	0	0	0	0	485	429	
9	0	0	0	0	485	429	
10	0	0	0	0	484	429	
11	0	0	0	0	484	429	
12	0	0	0	0	484	428	
13	0	0	0	0	485	428	
14	0	0	0	0	485	428	
15	0	0	0	0	484	428	
0	0	0	0	0	485	428	
1	0	0	0	0	484	429	
2	0	0	0	0	486	428	
3	0	0	0	0	487	429	
4	0	0	0	0	487	428	
5	0	0	0	0	487	427	
6	0	0	0	0	487	428	
7	0	0	0	0	487	428	
8	0	0	0	0	487	427	
9	0	0	0	0	488	428	
10	0	0	0	0	488	427	
11	0	0	0	0	488	427	
12	0	0	0	0	488	426	
13	0	0	0	0	488	427	
14	0	0	0	0	487	427	
15	0	0	0	0	487	427	
0	0	0	0	0	487	427	
1	0	0	0	0	487	428	
2	0	0	0	0	488	428	
3	0	0	0	0	489	427	
4	0	0	0	0	489	428	
5	0	0	0	0	489	428	
6	0	0	0	0	489	428	
7	0	0	0	0	490	428	
8	0	0	0	0	490	428	
9	0	0	0	0	489	430	
10	0	0	0	0	489	429	
11	0	0	0	0	490	429	
12	0	0	0	0	491	429	
13	0	0	0	0	492	429	
14	0	0	0	0	492	430	
15	0	0	0	0	492	430	
0	0	0	0	0	491	430	
1	0	0	0	0	491	431	
2	0	0	0	0	490	430	
3	0	0	0	0	489	430	
4	0	0	0	0	489	431	
5	0	0	0	0	490	431	
6	0	0	0	0	490	430	
7	0	0	0	0	491	431	
8	0	0	0	0	491	431	
9	0	0	0	0	491	432	
10	0	0	0	0	492	431	
11	0	0	0	0	491	432	
12	0	0	0	0	492	432	
13	0	0	0	0	492	432	
14	0	0	0	0	492	431	
15	0	0	0	0	492	432	
0	0	0	0	0	493	432	
1	0	0	0	0	492	432	
2	0	0	0	0	493	432	
3	0	0	0	0	493	432	
4	0	0	0	0	494	432	
5	0	0	0	0	494	431	
6	0	0	0	0	495	432	
7	0	0	0	0	495	432	
8	0	0	0	0	496	432	
9	0	0	0	0	497	434	
10	0	0	0	0	498	433	
11	0	0	0	0	499	433	
12	0	0	0	0	499	433	
13	0	0	0	0	501	432	
14	0	0	0	0	502	433	
15	0	0	0	0	503	433	
0	0	0	0	0	503	433	
1	0	0	0	0	504	432	
2	0	0	0	0	506	432	
3	0	0	0	0	507	433	
4	0	0	0	0	509	433	
5	0	0	0	0	511	432	
6	0	0	0	0	512	432	
7	0	0	0	0	513	433	
8	0	0	0	0	514	432	
9	0	0	0	0	515	433	
10	0	0	0	0	515	432	
11	0	0	0	0	516	432	
12	0	0	0	0	516	432	
13	0	0	0	0	517	432	
14	0	0	0	0	517	431	
15	0	0	0	0	518	432	
0	0	0	0	0	519	431	
1	0	0	0	0	521	431	
2	0	0	0	0	522	430	
3	0	0	0	0	523	430	
4	0	0	0	0	523	430	
5	0	0	0	0	524	430	
6	0	0	0	0	526	430	
7	0	0	0	0	527	429	
8	0	0	0	0	528	429	
9	0	0	0	0	530	430	
10	0	0	0	0	531	429	
11	0	0	0	0	531	429	
12	0	0	0	0	532	429	
13	0	0	0	0	533	429	
14	0	0	0	0	533	429	
15	0	0	0	0	534	429	
0	0	0	0	0	534	429	
1	0	0	0	0	534	429	
2	0	0	0	0	534	428	
3	0	0	0	0	535	427	
4	0	0	0	0	536	427	
5	0	0	0	0	536	427	
6	0	0	0	0	537	427	
7	0	0	0	0	537	427	
8	0	0	0	0	536	427	
9	0	0	0	0	536	428	
10	0	0	0	0	535	427	
11	0	0	0	0	535	427	
12	0	0	0	0	534	427	
13	0	0	0	0	532	427	
14	0	0	0	0	531	428	
15	0	0	0	0	531	427	
0	0	0	0	0	531	427	
1	0	0	0	0	531	428	
2	0	0	0	0	531	427	
3	0	0	0	0	529	428	
4	0	0	0	0	528	428	
5	0	0	0	0	527	428	
6	0	0	0	0	526	428	
7	0	0	0	0	526	428	
8	0	0	0	0	524	428	
9	0	0	0	0	524	428	
10	0	0	0	0	524	428	
11	0	0	0	0	524	428	
12	0	0	0	0	523	428	
13	0	0	0	0	523	427	
14	0	0	0	0	523	428	
15	0	0	0	0	522	428	
0	0	0	0	0	522	428	
1	0	0	0	0	522	429	
2	0	0	0	0	523	428	
3	0	0	0	0	522	429	
4	0	0	0	0	522	428	
5	0	0	0	0	522	428	
6	0	0	0	0	521	428	
7	0	0	0	0	520	428	
8	0	0	0	0	519	428	
9	0	0	0	0	519	429	
10	0	0	0	0	517	428	
11	0	0	0	0	516	429	
12	0	0	0	0	515	429	
13	0	0	0	0	515	429	
14	0	0	0	0	515	429	
15	0	0	0	0	515	430	
0	0	0	0	0	514	431	
1	0	0	0	0	512	431	
2	0	0	0	0	512	430	
3	0	0	0	0	512	431	
4	0	0	0	0	512	431	
5	0	0	0	0	511	431	
6	0	0	0	0	511	431	
7	0	0	0	0	511	432	
8	0	0	0	0	511	431	
9	0	0	0	0	511	432	
10	0	0	0	0	511	431	
11	0	0	0	0	511	431	
12	0	0	0	0	511	432	
13	0	0	0	0	511	432	
14	0	0	0	0	511	431	
15	0	0	0	0	511	432	
0	0	0	0	0	511	431	
1	0	0	0	0	510	432	
2	0	0	0	0	510	431	
3	0	0	0	0	510	432	
4	0	0	0	0	509	432	
5	0	0	0	0	510	431	
6	0	0	0	0	510	432	
7	0	0	0	0	510	432	
8	0	0	0	0	511	432	
9	0	0	0	0	510	433	
10	0	0	0	0	510	432	
11	0	0	0	0	510	432	
12	0	0	0	0	509	432	
13	0	0	0	0	509	432	
14	0	0	0	0	509	432	
15	0	0	0	0	509	432	
0	0	0	0	0	510	432	
1	0	0	0	0	509	433	
2	0	0	0	0	509	432	
3	0	0	0	0	509	432	
4	0	0	0	0	509	432	
5	0	0	0	0	510	432	
6	0	0	0	0	510	432	
7	0	0	0	0	510	431	
8	0	0	0	0	510	432	
9	0	0	0	0	509	432	
10	0	0	0	0	508	431	
11	0	0	0	0	508	431	
12	0	0	0	0	508	431	
13	0	0	0	0	508	430	
14	0	0	0	0	508	431	
15	0	0	0	0	508	431	
0	0	0	0	0	509	430	
1	0	0	0	0	509	431	
2	0	0	0	0	509	430	
3	0	0	0	0	509	430	
4	0	0	0	0	509	430	
5	0	0	0	0	509	429	
6	0	0	0	0	508	430	
7	0	0	0	0	508	429	
8	0	0	0	0	508	429	
9	0	0	0	0	510	430	
10	0	0	0	0	510	429	
11	0	0	0	0	511	429	
12	0	0	0	0	512	429	
13	0	0	0	0	512	428	
14	0	0	0	0	512	429	
15	0	0	0	0	513	428	
0	0	0	0	0	513	428	
1	0	0	0	0	513	428	
2	0	0	0	0	512	428	
3	0	0	0	0	512	427	
4	0	0	0	0	512	428	
5	0	0	0	0	512	427	
6	0	0	0	0	511	428	
7	0	0	0	0	511	428	
8	0	0	0	0	511	427	
9	0	0	0	0	512	428	
10	0	0	0	0	512	427	
11	0	0	0	0	511	428	
12	0	0	0	0	511	428	
13	0	0	0	0	511	427	
14	0	0	0	0	511	428	
15	0	0	0	0	511	428	
0	0	0	0	0	512	427	
1	0	0	0	0	513	428	
2	0	0	0	0	513	427	
3	0	0	0	0	513	427	
4	0	0	0	0	513	427	
5	0	0	0	0	513	427	
6	0	0	0	0	513	427	
7	0	0	0	0	513	428	
8	0	0	0	0	513	427	
9	0	0	0	0	512	428	
10	0	0	0	0	512	428	
11	0	0	0	0	512	428	
12	0	0	0	0	512	428	
13	0	0	0	0	512	428	
14	0	0	0	0	511	428	
15	0	0	0	0	510	428	
0	0	0	0	0	510	429	
1	0	0	0	0	510	429	
2	0	0	0	0	510	428	
3	0	0	0	0	510	428	
4	0	0	0	0	510	428	
5	0	0	0	0	510	428	
6	0	0	0	0	511	429	
7	0	0	0	0	511	429	
8	0	0	0	0	511	429	
9	0	0	0	0	511	430	
10	0	0	0	0	511	430	
11	0	0	0	0	511	429	
12	0	0	0	0	511	430	
13	0	0	0	0	511	430	
14	0	0	0	0	512	431	
15	0	0	0	0	512	431	
0	0	0	0	0	513	431	
1	0	0	0	0	514	431	
2	0	0	0	0	514	430	
3	0	0	0	0	514	431	
4	0	0	0	0	514	431	
5	0	0	0	0	515	431	
6	0	0	0	0	515	431	
7	0	0	0	0	515	431	
8	0	0	0	0	515	432	
9	0	0	0	0	515	432	
10	0	0	0	0	516	432	
11	0	0	0	0	515	432	
12	0	0	0	0	516	432	
13	0	0	0	0	516	431	
14	0	0	0	0	517	432	
15	0	0	0	0	517	432	
0	0	0	0	0	517	432	
1	0	0	0	0	517	432	
2	0	0	0	0	517	431	
3	0	0	0	0	516	432	
4	0	0	0	0	517	432	
5	0	0	0	0	517	431	
6	0	0	0	0	516	432	
7	0	0	0	0	517	432	
8	0	0	0	0	518	432	
9	0	0	0	0	517	433	
10	0	0	0	0	517	432	
11	0	0	0	0	516	432	
12	0	0	0	0	516	432	
13	0	0	0	0	515	432	
14	0	0	0	0	515	433	
15	0	0	0	0	515	432	
0	0	0	0	0	515	432	
1	0	0	0	0	515	433	
2	0	0	0	0	515	433	
3	0	0	0	0	515	432	
4	0	0	0	0	515	432	
5	0	0	0	0	516	432	
6	0	0	0	0	516	432	
7	0	0	0	0	516	432	
8	0	0	0	0	516	432	
9	0	0	0	0	517	432	
10	0	0	0	0	517	432	
11	0	0	0	0	516	432	
12	0	0	0	0	516	432	
13	0	0	0	0	516	432	
14	0	0	0	0	516	432	
15	0	0	0	0	516	432	
0	0	0	0	0	517	431	
1	0	0	0	0	517	432	
2	0	0	0	0	517	431	
3	0	0	0	0	517	431	
4	0	0	0	0	516	430	
5	0	0	0	0	516	430	
6	0	0	0	0	515	431	
7	0	0	0	0	515	430	
8	0	0	0	0	515	430	
9	0	0	0	0	516	431	
10	0	0	0	0	516	430	
11	0	0	0	0	516	430	
12	0	0	0	0	516	430	
13	0	0	0	0	516	428	
14	0	0	0	0	515	429	
15	0	0	0	0	515	429	
0	0	0	0	0	515	429	
1	0	0	0	0	515	430	
2	0	0	0	0	515	428	
3	0	0	0	0	514	429	
4	0	0	0	0	515	429	
5	0	0	0	0	515	427	
6	0	0	0	0	515	428	
7	0	0	0	0	515	428	
8	0	0	0	0	515	428	
9	0	0	0	0	515	428	
10	0	0	0	0	515	428	
11	0	0	0	0	515	428	
12	0	0	0	0	516	427	
13	0	0	0	0	517	427	
14	0	0	0	0	517	427	
15	0	0	0	0	517	427	
0	0	0	0	0	517	427	
1	0	0	0	0	517	428	
2	0	0	0	0	517	427	
3	0	0	0	0	517	427	
4	0	0	0	0	516	428	
5	0	0	0	0	517	426	
6	0	0	0	0	516	427	
7	0	0	0	0	517	427	
8	0	0	0	0	518	427	
9	0	0	0	0	518	427	
10	0	0	0	0	519	427	
11	0	0	0	0	520	427	
12	0	0	0	0	521	428	
13	0	0	0	0	521	427	
14	0	0	0	0	520	427	
15	0	0	0	0	520	427	
0	0	0	0	0	519	428	
1	0	0	0	0	518	428	
2	0	0	0	0	518	428	
3	0	0	0	0	516	428	
4	0	0	0	0	516	428	
5	0	0	0	0	515	428	
6	0	0	0	0	514	429	
7	0	0	0	0	513	429	
8	0	0	0	0	512	428	
9	0	0	0	0	512	429	
10	0	0	0	0	512	429	
11	0	0	0	0	512	430	
12	0	0	0	0	512	429	
13	0	0	0	0	513	429	
14	0	0	0	0	513	429	
15	0	0	0	0	513	430	
0	0	0	0	0	513	429	
1	0	0	0	0	513	430	
2	0	0	0	0	514	429	
3	0	0	0	0	515	430	
4	0	0	0	0	515	430	
5	0	0	0	0	515	430	
6	0	0	0	0	515	430	
7	0	0	0	0	515	431	
8	0	0	0	0	516	430	
9	0	0	0	0	516	430	
10	0	0	0	0	517	431	
11	0	0	0	0	516	430	
12	0	0	0	0	516	431	
13	0	0	0	0	517	431	
14	0	0	0	0	517	431	
15	0	0	0	0	518	431	
0	0	0	0	0	519	431	
1	0	0	0	0	519	432	
2	0	0	0	0	519	431	
3	0	0	0	0	519	431	
4	0	0	0	0	519	431	
5	0	0	0	0	519	431	
6	0	0	0	0	518	431	
7	0	0	0	0	518	432	
8	0	0	0	0	518	431	
9	0	0	0	0	518	432	
10	0	0	0	0	518	432	
11	0	0	0	0	519	432	
12	0	0	0	0	519	432	
13	0	0	0	0	519	432	
14	0	0	0	0	519	432	
15	0	0	0	0	519	432	
0	0	0	0	0	519	432	
1	0	0	0	0	519	433	
2	0	0	0	0	518	433	
3	0	0	0	0	517	433	
4	0	0	0	0	517	433	
5	0	0	0	0	517	433	
6	0	0	0	0	517	433	
7	0	0	0	0	517	433	
8	0	0	0	0	517	433	
9	0	0	0	0	517	434	
10	0	0	0	0	517	433	
11	0	0	0	0	518	433	
12	0	0	0	0	518	433	
13	0	0	0	0	518	433	
14	0	0	0	0	518	433	
15	0	0	0	0	518	434	
0	0	0	0	0	518	433	
1	0	0	0	0	517	434	
2	0	0	0	0	518	433	
3	0	0	0	0	518	433	
4	0	0	0	0	519	432	
5	0	0	0	0	519	433	
6	0	0	0	0	520	431	
7	0	0	0	0	520	432	
8	0	0	0	0	521	432	
9	0	0	0	0	521	433	
10	0	0	0	0	521	432	
11	0	0	0	0	521	430	
12	0	0	0	0	521	431	
13	0	0	0	0	521	430	
14	0	0	0	0	520	430	
15	0	0	0	0	520	430	
0	0	0	0	0	520	430	
1	0	0	0	0	519	430	
2	0	0	0	0	519	430	
3	0	0	0	0	518	429	
4	0	0	0	0	518	429	
5	0	0	0	0	518	429	
6	0	0	0	0	517	428	
7	0	0	0	0	517	428	
8	0	0	0	0	517	428	
9	0	0	0	0	517	429	
10	0	0	0	0	518	428	
11	0	0	0	0	518	427	
12	0	0	0	0	518	427	
13	0	0	0	0	518	427	
14	0	0	0	0	518	427	
15	0	0	0	0	519	427	
0	0	0	0	0	519	426	
1	0	0	0	0	519	427	
2	0	0	0	0	519	426	
3	0	0	0	0	519	427	
4	0	0	0	0	519	427	
5	0	0	0	0	519	426	
6	0	0	0	0	519	426	
7	0	0	0	0	518	426	
8	0	0	0	0	518	426	
9	0	0	0	0	518	427	
10	0	0	0	0	518	426	
11	0	0	0	0	517	426	
12	0	0	0	0	516	426	
13	0	0	0	0	515	426	
14	0	0	0	0	516	426	
15	0	0	0	0	515	426	
0	0	0	0	0	515	427	
1	0	0	0	0	515	427	
2	0	0	0	0	515	427	
3	0	0	0	0	514	427	
4	0	0	0	0	515	427	
5	0	0	0	0	515	427	
6	0	0	0	0	514	428	
7	0	0	0	0	513	428	
8	0	0	0	0	512	428	
9	0	0	0	0	512	429	
10	0	0	0	0	510	428	
11	0	0	0	0	507	428	
12	0	0	0	0	503	428	
13	0	0	0	0	499	428	
14	0	0	0	0	494	428	
15	0	0	0	0	489	429	
0	0	0	0	0	483	428	
1	0	0	0	0	478	430	
2	0	0	0	0	471	429	
3	0	0	0	0	464	429	
4	0	0	0	0	457	430	
5	0	0	0	0	451	429	
6	0	0	0	0	445	430	
7	0	0	0	0	439	429	
8	0	0	0	0	433	430	
9	0	0	0	0	429	431	
10	0	0	0	0	424	431	
11	0	0	0	0	419	430	
12	0	0	0	0	413	431	
13	0	0	0	0	409	431	
14	0	0	0	0	407	431	
15	0	0	0	0	403	431	
0	0	0	0	0	395	432	
1	0	0	0	0	387	432	
2	0	0	0	0	380	432	
3	0	0	0	0	377	432	
4	0	0	0	0	377	432	
5	0	0	0	0	382	432	
6	0	0	0	0	391	432	
7	0	0	0	0	405	433	
8	0	0	0	0	424	433	
9	0	0	0	0	447	434	
10	0	0	0	0	472	434	
11	0	0	0	0	497	434	
12	0	0	0	0	521	433	
13	0	0	0	0	543	433	
14	0	0	0	0	562	433	
15	0	0	0	0	574	434	
0	0	0	0	0	580	434	
1	0	0	0	0	585	435	
2	0	0	0	0	593	434	
3	0	0	0	0	602	433	
4	0	0	0	0	609	434	
5	0	0	0	0	615	433	
6	0	0	0	0	620	434	
7	0	0	0	0	621	433	
8	0	0	0	0	620	433	
9	0	0	0	0	620	434	
10	0	0	0	0	623	433	
11	0	0	0	0	628	433	
12	0	0	0	0	635	433	
13	0	0	0	0	645	432	
14	0	0	0	0	658	433	
15	0	0	0	0	669	433	
0	0	0	0	0	678	432	
1	0	0	0	0	685	433	
2	0	0	0	0	689	432	
3	0	0	0	0	690	432	
4	0	0	0	0	688	432	
5	0	0	0	0	683	432	
6	0	0	0	0	676	432	
7	0	0	0	0	667	432	
8	0	0	0	0	655	432	
9	0	0	0	0	643	432	
10	0	0	0	0	630	432	
11	0	0	0	0	618	432	
12	0	0	0	0	607	432	
13	0	0	0	0	597	431	
14	0	0	0	0	588	431	
15	0	0	0	0	579	431	
0	0	0	0	0	571	431	
1	0	0	0	0	564	431	
2	0	0	0	0	559	431	
3	0	0	0	0	553	430	
4	0	0	0	0	548	431	
5	0	0	0	0	543	429	
6	0	0	0	0	538	429	
7	0	0	0	0	534	430	
8	0	0	0	0	529	429	
9	0	0	0	0	524	430	
10	0	0	0	0	519	429	
11	0	0	0	0	515	428	
12	0	0	0	0	510	428	
13	0	0	0	0	507	428	
14	0	0	0	0	504	428	
15	0	0	0	0	502	427	
0	0	0	0	0	499	428	
1	0	0	0	0	496	428	
2	0	0	0	0	496	428	
3	0	0	0	0	494	427	
4	0	0	0	0	492	427	
5	0	0	0	0	492	427	
6	0	0	0	0	491	426	
7	0	0	0	0	490	426	
8	0	0	0	0	489	426	
9	0	0	0	0	489	426	
10	0	0	0	0	488	426	
11	0	0	0	0	487	427	
12	0	0	0	0	487	426	
13	0	0	0	0	486	426	
14	0	0	0	0	486	426	
15	0	0	0	0	484	426	
0	0	0	0	0	484	426	
1	0	0	0	0	484	427	
2	0	0	0	0	484	427	
3	0	0	0	0	483	427	
4	0	0	0	0	484	427	
5	0	0	0	0	484	426	
6	0	0	0	0	484	427	
7	0	0	0	0	485	427	
8	0	0	0	0	485	428	
9	0	0	0	0	486	428	
10	0	0	0	0	486	427	
11	0	0	0	0	487	428	
12	0	0	0	0	487	427	
13	0	0	0	0	487	428	
14	0	0	0	0	488	428	
15	0	0	0	0	488	428	
0	0	0	0	0	488	428	
1	0	0	0	0	488	429	
2	0	0	0	0	488	429	
3	0	0	0	0	487	429	
4	0	0	0	0	488	429	
5	0	0	0	0	488	428	
6	0	0	0	0	488	429	
7	0	0	0	0	488	430	
8	0	0	0	0	488	429	
9	0	0	0	0	488	429	
10	0	0	0	0	488	429	
11	0	0	0	0	488	429	
12	0	0	0	0	488	429	
13	0	0	0	0	489	429	
14	0	0	0	0	489	429	
15	0	0	0	0	489	429	
0	0	0	0	0	489	430	
1	0	0	0	0	489	431	
2	0	0	0	0	490	429	
3	0	0	0	0	489	430	
4	0	0	0	0	490	431	
5	0	0	0	0	489	430	
6	0	0	0	0	489	431	
7	0	0	0	0	489	430	
8	0	0	0	0	489	431	
9	0	0	0	0	489	431	
10	0	0	0	0	490	431	
11	0	0	0	0	490	431	
12	0	0	0	0	489	431	
13	0	0	0	0	490	431	
14	0	0	0	0	490	431	
15	0	0	0	0	490	431	
0	0	0	0	0	489	431	
1	0	0	0	0	490	432	
2	0	0	0	0	491	432	
3	0	0	0	0	491	432	
4	0	0	0	0	492	431	
5	0	0	0	0	492	431	
6	0	0	0	0	492	432	
7	0	0	0	0	492	432	
8	0	0	0	0	493	432	
9	0	0	0	0	493	432	
10	0	0	0	0	494	431	
11	0	0	0	0	493	431	
12	0	0	0	0	494	432	
13	0	0	0	0	494	431	
14	0	0	0	0	494	431	
15	0	0	0	0	494	431	
0	0	0	0	0	495	431	
1	0	0	0	0	494	432	
2	0	0	0	0	494	432	
3	0	0	0	0	495	430	
4	0	0	0	0	495	430	
5	0	0	0	0	495	430	
6	0	0	0	0	494	431	
7	0	0	0	0	494	432	
8	0	0	0	0	494	431	
9	0	0	0	0	494	431	
10	0	0	0	0	494	430	
11	0	0	0	0	494	430	
12	0	0	0	0	494	430	
13	0	0	0	0	494	430	
14	0	0	0	0	494	431	
15	0	0	0	0	494	431	
0	0	0	0	0	494	430	
1	0	0	0	0	494	431	
2	0	0	0	0	494	430	
3	0	0	0	0	494	430	
4	0	0	0	0	493	430	
5	0	0	0	0	494	430	
6	0	0	0	0	493	430	
7	0	0	0	0	493	430	
8	0	0	0	0	493	430	
9	0	0	0	0	493	431	
10	0	0	0	0	493	430	
11	0	0	0	0	493	430	
12	0	0	0	0	493	430	
13	0	0	0	0	493	430	
14	0	0	0	0	492	430	
15	0	0	0	0	493	429	
0	0	0	0	0	492	430	
1	0	0	0	0	492	431	
2	0	0	0	0	492	430	
3	0	0	0	0	492	430	
4	0	0	0	0	492	430	
5	0	0	0	0	492	429	
6	0	0	0	0	491	430	
7	0	0	0	0	491	429	
8	0	0	0	0	491	430	
9	0	0	0	0	492	430	
10	0	0	0	0	492	430	
11	0	0	0	0	492	429	
12	0	0	0	0	492	430	
13	0	0	0	0	491	429	
14	0	0	0	0	492	429	
15	0	0	0	0	491	429	
0	0	0	0	0	492	430	
1	0	0	0	0	492	431	
2	0	0	0	0	493	430	
3	0	0	0	0	493	430	
4	0	0	0	0	494	430	
5	0	0	0	0	494	430	
6	0	0	0	0	494	430	
7	0	0	0	0	494	430	
8	0	0	0	0	495	430	
9	0	0	0	0	495	430	
10	0	0	0	0	496	430	
11	0	0	0	0	496	430	
12	0	0	0	0	496	430	
13	0	0	0	0	497	430	
14	0	0	0	0	497	430	
15	0	0	0	0	498	430	
0	0	0	0	0	498	430	
1	0	0	0	0	498	430	
2	0	0	0	0	499	430	
3	0	0	0	0	499	430	
4	0	0	0	0	500	430	
5	0	0	0	0	500	429	
6	0	0	0	0	501	430	
7	0	0	0	0	502	430	
8	0	0	0	0	502	430	
9	0	0	0	0	504	431	
10	0	0	0	0	504	430	
11	0	0	0	0	505	430	
12	0	0	0	0	506	430	
13	0	0	0	0	507	429	
14	0	0	0	0	508	429	
15	0	0	0	0	509	429	
0	0	0	0	0	510	430	
1	0	0	0	0	511	431	
2	0	0	0	0	511	430	
3	0	0	0	0	512	430	
4	0	0	0	0	512	430	
5	0	0	0	0	513	430	
6	0	0	0	0	514	430	
7	0	0	0	0	515	430	
8	0	0	0	0	515	430	
9	0	0	0	0	515	431	
10	0	0	0	0	515	430	
11	0	0	0	0	517	430	
12	0	0	0	0	518	429	
13	0	0	0	0	519	430	
14	0	0	0	0	519	430	
15	0	0	0	0	520	430	
0	0	0	0	0	521	430	
1	0	0	0	0	521	431	
2	0	0	0	0	521	430	
3	0	0	0	0	522	430	
4	0	0	0	0	522	430	
5	0	0	0	0	524	430	
6	0	0	0	0	524	430	
7	0	0	0	0	525	429	
8	0	0	0	0	526	430	
9	0	0	0	0	526	430	
10	0	0	0	0	527	429	
11	0	0	0	0	528	429	
12	0	0	0	0	529	430	
13	0	0	0	0	530	428	
14	0	0	0	0	530	429	
15	0	0	0	0	530	429	
0	0	0	0	0	530	429	
1	0	0	0	0	530	430	
2	0	0	0	0	530	429	
3	0	0	0	0	530	429	
4	0	0	0	0	530	429	
5	0	0	0	0	529	429	
6	0	0	0	0	528	429	
7	0	0	0	0	529	429	
8	0	0	0	0	529	428	
9	0	0	0	0	529	430	
10	0	0	0	0	529	429	
11	0	0	0	0	528	430	
12	0	0	0	0	529	429	
13	0	0	0	0	528	429	
14	0	0	0	0	528	430	
15	0	0	0	0	528	429	
0	0	0	0	0	528	429	
1	0	0	0	0	528	431	
2	0	0	0	0	528	430	
3	0	0	0	0	529	430	
4	0	0	0	0	528	431	
5	0	0	0	0	528	430	
6	0	0	0	0	528	430	
7	0	0	0	0	528	430	
8	0	0	0	0	528	430	
9	0	0	0	0	528	431	
10	0	0	0	0	528	431	
11	0	0	0	0	527	430	
12	0	0	0	0	527	430	
13	0	0	0	0	527	429	
14	0	0	0	0	527	430	
15	0	0	0	0	526	430	
0	0	0	0	0	526	430	
1	0	0	0	0	525	430	
2	0	0	0	0	524	430	
3	0	0	0	0	523	430	
4	0	0	0	0	523	429	
5	0	0	0	0	522	429	
6	0	0	0	0	522	429	
7	0	0	0	0	522	430	
8	0	0	0	0	522	429	
9	0	0	0	0	522	430	
10	0	0	0	0	522	429	
11	0	0	0	0	522	430	
12	0	0	0	0	523	430	
13	0	0	0	0	522	429	
14	0	0	0	0	523	430	
15	0	0	0	0	522	430	
0	0	0	0	0	523	430	
1	0	0	0	0	524	431	
2	0	0	0	0	523	430	
3	0	0	0	0	523	430	
4	0	0	0	0	523	430	
5	0	0	0	0	523	429	
6	0	0	0	0	523	429	
7	0	0	0	0	523	430	
8	0	0	0	0	522	430	
9	0	0	0	0	522	431	
10	0	0	0	0	522	430	
11	0	0	0	0	522	430	
12	0	0	0	0	521	430	
13	0	0	0	0	520	430	
14	0	0	0	0	520	431	
15	0	0	0	0	520	430	
0	0	0	0	0	520	430	
1	0	0	0	0	520	431	
2	0	0	0	0	521	430	
3	0	0	0	0	521	430	
4	0	0	0	0	521	430	
5	0	0	0	0	521	430	
6	0	0	0	0	521	430	
7	0	0	0	0	520	431	
8	0	0	0	0	520	431	
9	0	0	0	0	520	431	
10	0	0	0	0	520	431	
11	0	0	0	0	520	430	
12	0	0	0	0	520	431	
13	0	0	0	0	520	431	
14	0	0	0	0	520	430	
15	0	0	0	0	520	431	
0	0	0	0	0	519	431	
1	0	0	0	0	519	432	
2	0	0	0	0	519	431	
3	0	0	0	0	519	431	
4	0	0	0	0	519	431	
5	0	0	0	0	519	431	
6	0	0	0	0	518	431	
7	0	0	0	0	519	431	
8	0	0	0	0	518	431	
9	0	0	0	0	518	432	
10	0	0	0	0	518	431	
11	0	0	0	0	519	431	
12	0	0	0	0	518	432	
13	0	0	0	0	518	431	
14	0	0	0	0	519	431	
15	0	0	0	0	518	431	
0	0	0	0	0	518	431	
1	0	0	0	0	518	432	
2	0	0	0	0	518	431	
3	0	0	0	0	519	431	
4	0	0	0	0	519	431	
5	0	0	0	0	519	430	
6	0	0	0	0	518	431	
7	0	0	0	0	519	431	
8	0	0	0	0	519	431	
9	0	0	0	0	519	431	
10	0	0	0	0	519	430	
11	0	0	0	0	519	431	
12	0	0	0	0	519	430	
13	0	0	0	0	519	430	
14	0	0	0	0	518	430	
15	0	0	0	0	518	430	
0	0	0	0	0	518	430	
1	0	0	0	0	518	430	
2	0	0	0	0	518	430	
3	0	0	0	0	518	430	
4	0	0	0	0	518	430	
5	0	0	0	0	517	429	
6	0	0	0	0	518	430	
7	0	0	0	0	517	430	
8	0	0	0	0	517	429	
9	0	0	0	0	517	430	
10	0	0	0	0	517	429	
11	0	0	0	0	517	429	
12	0	0	0	0	518	430	
13	0	0	0	0	517	429	
14	0	0	0	0	517	430	
15	0	0	0	0	517	430	
0	0	0	0	0	517	430	
1	0	0	0	0	518	430	
2	0	0	0	0	518	429	
3	0	0	0	0	518	429	
4	0	0	0	0	518	429	
5	0	0	0	0	517	429	
6	0	0	0	0	517	428	
7	0	0	0	0	517	428	
8	0	0	0	0	518	429	
9	0	0	0	0	517	429	
10	0	0	0	0	517	429	
11	0	0	0	0	516	428	
12	0	0	0	0	517	429	
13	0	0	0	0	517	428	
14	0	0	0	0	517	428	
15	0	0	0	0	517	428	
0	0	0	0	0	517	428	
1	0	0	0	0	517	429	
2	0	0	0	0	516	429	
3	0	0	0	0	516	428	
4	0	0	0	0	516	428	
5	0	0	0	0	517	427	
6	0	0	0	0	516	428	
7	0	0	0	0	516	428	
8	0	0	0	0	516	428	
9	0	0	0	0	515	429	
10	0	0	0	0	515	428	
11	0	0	0	0	515	428	
12	0	0	0	0	515	428	
13	0	0	0	0	515	428	
14	0	0	0	0	514	429	
15	0	0	0	0	514	428	
0	0	0	0	0	515	428	
1	0	0	0	0	515	430	
2	0	0	0	0	515	429	
3	0	0	0	0	516	429	
4	0	0	0	0	516	429	
5	0	0	0	0	516	429	
6	0	0	0	0	516	430	
7	0	0	0	0	516	430	
8	0	0	0	0	516	430	
9	0	0	0	0	516	431	
10	0	0	0	0	516	430	
11	0	0	0	0	517	430	
12	0	0	0	0	517	430	
13	0	0	0	0	517	429	
14	0	0	0	0	517	430	
15	0	0	0	0	516	430	
0	0	0	0	0	516	430	
1	0	0	0	0	516	431	
2	0	0	0	0	516	430	
3	0	0	0	0	517	431	
4	0	0	0	0	516	431	
5	0	0	0	0	516	431	
6	0	0	0	0	515	431	
7	0	0	0	0	515	431	
8	0	0	0	0	515	431	
9	0	0	0	0	515	431	
10	0	0	0	0	514	431	
11	0	0	0	0	514	431	
12	0	0	0	0	514	431	
13	0	0	0	0	514	432	
14	0	0	0	0	514	431	
15	0	0	0	0	513	431	
0	0	0	0	0	514	432	
1	0	0	0	0	514	432	
2	0	0	0	0	515	432	
3	0	0	0	0	515	432	
4	0	0	0	0	515	432	
5	0	0	0	0	515	432	
6	0	0	0	0	515	432	
7	0	0	0	0	515	433	
8	0	0	0	0	515	432	
9	0	0	0	0	515	433	
10	0	0	0	0	515	433	
11	0	0	0	0	515	432	
12	0	0	0	0	514	433	
13	0	0	0	0	515	432	
14	0	0	0	0	515	433	
15	0	0	0	0	515	432	
0	0	0	0	0	514	432	
1	0	0	0	0	515	433	
2	0	0	0	0	515	432	
3	0	0	0	0	515	432	
4	0	0	0	0	516	432	
5	0	0	0	0	516	432	
6	0	0	0	0	516	432	
7	0	0	0	0	516	432	
8	0	0	0	0	516	432	
9	0	0	0	0	516	432	
10	0	0	0	0	516	431	
11	0	0	0	0	515	431	
12	0	0	0	0	515	431	
13	0	0	0	0	515	430	
14	0	0	0	0	515	431	
15	0	0	0	0	515	430	
0	0	0	0	0	515	430	
1	0	0	0	0	515	431	
2	0	0	0	0	515	430	
3	0	0	0	0	515	429	
4	0	0	0	0	515	430	
5	0	0	0	0	515	430	
6	0	0	0	0	515	429	
7	0	0	0	0	515	430	
8	0	0	0	0	515	430	
9	0	0	0	0	516	429	
10	0	0	0	0	516	429	
11	0	0	0	0	516	429	
12	0	0	0	0	516	430	
13	0	0	0	0	516	429	
14	0	0	0	0	515	429	
15	0	0	0	0	515	428	
0	0	0	0	0	516	428	
1	0	0	0	0	516	429	
2	0	0	0	0	516	429	
3	0	0	0	0	516	428	
4	0	0	0	0	515	428	
5	0	0	0	0	515	428	
6	0	0	0	0	515	428	
7	0	0	0	0	515	428	
8	0	0	0	0	514	427	
9	0	0	0	0	514	428	
10	0	0	0	0	513	427	
11	0	0	0	0	513	427	
12	0	0	0	0	514	427	
13	0	0	0	0	513	427	
14	0	0	0	0	513	427	
15	0	0	0	0	513	427	
0	0	0	0	0	513	427	
1	0	0	0	0	513	428	
2	0	0	0	0	513	428	
3	0	0	0	0	513	428	
4	0	0	0	0	513	427	
5	0	0	0	0	514	427	
6	0	0	0	0	514	427	
7	0	0	0	0	514	427	
8	0	0	0	0	514	428	
9	0	0	0	0	514	428	
10	0	0	0	0	514	428	
11	0	0	0	0	514	428	
12	0	0	0	0	513	428	
13	0	0	0	0	513	428	
14	0	0	0	0	512	429	
15	0	0	0	0	512	429	
0	0	0	0	0	512	429	
1	0	0	0	0	512	430	
2	0	0	0	0	512	429	
3	0	0	0	0	513	429	
4	0	0	0	0	512	430	
5	0	0	0	0	512	429	
6	0	0	0	0	512	430	
7	0	0	0	0	511	430	
8	0	0	0	0	510	430	
9	0	0	0	0	510	431	
10	0	0	0	0	510	431	
11	0	0	0	0	509	430	
12	0	0	0	0	509	431	
13	0	0	0	0	509	430	
14	0	0	0	0	508	431	
15	0	0	0	0	508	431	
0	0	0	0	0	508	431	
1	0	0	0	0	508	431	
2	0	0	0	0	508	431	
3	0	0	0	0	508	431	
4	0	0	0	0	509	432	
5	0	0	0	0	510	432	
6	0	0	0	0	510	432	
7	0	0	0	0	510	432	
8	0	0	0	0	511	432	
9	0	0	0	0	511	432	
10	0	0	0	0	510	432	
11	0	0	0	0	510	432	
12	0	0	0	0	510	432	
13	0	0	0	0	510	432	
14	0	0	0	0	511	432	
15	0	0	0	0	511	432	
0	0	0	0	0	511	432	
1	0	0	0	0	511	433	
2	0	0	0	0	511	432	
3	0	0	0	0	511	432	
4	0	0	0	0	511	432	
5	0	0	0	0	511	432	
6	0	0	0	0	511	432	
7	0	0	0	0	512	432	
8	0	0	0	0	513	432	
9	0	0	0	0	513	432	
10	0	0	0	0	513	432	
11	0	0	0	0	514	432	
12	0	0	0	0	514	432	
13	0	0	0	0	514	432	
14	0	0	0	0	514	432	
15	0	0	0	0	515	432	
0	0	0	0	0	515	432	
1	0	0	0	0	515	433	
2	0	0	0	0	515	432	
3	0	0	0	0	515	432	
4	0	0	0	0	514	431	
5	0	0	0	0	514	432	
6	0	0	0	0	513	431	
7	0	0	0	0	513	431	
8	0	0	0	0	513	431	
9	0	0	0	0	513	431	
10	0	0	0	0	514	430	
11	0	0	0	0	514	430	
12	0	0	0	0	514	430	
13	0	0	0	0	514	429	
14	0	0	0	0	514	429	
15	0	0	0	0	513	429	
0	0	0	0	0	513	428	
1	0	0	0	0	513	429	
2	0	0	0	0	513	428	
3	0	0	0	0	513	427	
4	0	0	0	0	513	427	
5	0	0	0	0	513	426	
6	0	0	0	0	513	425	
7	0	0	0	0	513	425	
8	0	0	0	0	513	425	
9	0	0	0	0	513	425	
10	0	0	0	0	514	424	
11	0	0	0	0	514	423	
12	0	0	0	0	515	423	
13	0	0	0	0	515	423	
14	0	0	0	0	515	422	
15	0	0	0	0	515	422	
0	0	0	0	0	515	422	
1	0	0	0	0	516	423	
2	0	0	0	0	515	421	
3	0	0	0	0	515	421	
4	0	0	0	0	516	422	
5	0	0	0	0	516	421	
6	0	0	0	0	515	422	
7	0	0	0	0	515	422	
8	0	0	0	0	515	422	
9	0	0	0	0	514	422	
10	0	0	0	0	513	422	
11	0	0	0	0	513	422	
12	0	0	0	0	512	422	
13	0	0	0	0	512	422	
14	0	0	0	0	512	423	
15	0	0	0	0	512	423	
0	0	0	0	0	512	423	
1	0	0	0	0	512	424	
2	0	0	0	0	512	423	
3	0	0	0	0	512	423	
4	0	0	0	0	511	423	
5	0	0	0	0	511	424	
6	0	0	0	0	511	424	
7	0	0	0	0	511	424	
8	0	0	0	0	511	424	
9	0	0	0	0	511	426	
10	0	0	0	0	512	425	
11	0	0	0	0	512	425	
12	0	0	0	0	512	426	
13	0	0	0	0	512	426	
14	0	0	0	0	512	427	
15	0	0	0	0	512	426	
0	0	0	0	0	511	427	
1	0	0	0	0	511	428	
2	0	0	0	0	511	427	
3	0	0	0	0	511	428	
4	0	0	0	0	511	428	
5	0	0	0	0	511	429	
6	0	0	0	0	511	430	
7	0	0	0	0	510	430	
8	0	0	0	0	509	430	
9	0	0	0	0	508	431	
10	0	0	0	0	508	431	
11	0	0	0	0	507	431	
12	0	0	0	0	506	431	
13	0	0	0	0	505	431	
14	0	0	0	0	503	431	
15	0	0	0	0	500	432	
0	0	0	0	0	497	432	
1	0	0	0	0	493	433	
2	0	0	0	0	488	432	
3	0	0	0	0	483	433	
4	0	0	0	0	478	433	
5	0	0	0	0	472	433	
6	0	0	0	0	467	433	
7	0	0	0	0	461	434	
8	0	0	0	0	456	434	
9	0	0	0	0	451	435	
10	0	0	0	0	446	435	
11	0	0	0	0	441	434	
12	0	0	0	0	435	435	
13	0	0	0	0	429	434	
14	0	0	0	0	422	435	
15	0	0	0	0	416	435	
0	0	0	0	0	410	436	
1	0	0	0	0	404	437	
2	0	0	0	0	396	436	
3	0	0	0	0	387	437	
4	0	0	0	0	381	436	
5	0	0	0	0	378	437	
6	0	0	0	0	377	437	
7	0	0	0	0	380	437	
8	0	0	0	0	388	438	
9	0	0	0	0	402	438	
10	0	0	0	0	422	438	
11	0	0	0	0	443	438	
12	0	0	0	0	466	439	
13	0	0	0	0	489	439	
14	0	0	0	0	512	438	
15	0	0	0	0	536	439	
0	0	0	0	0	557	439	
1	0	0	0	0	576	439	
2	0	0	0	0	591	438	
3	0	0	0	0	600	439	
4	0	0	0	0	606	439	
5	0	0	0	0	613	438	
6	0	0	0	0	620	439	
7	0	0	0	0	625	439	
8	0	0	0	0	626	439	
9	0	0	0	0	625	439	
10	0	0	0	0	622	439	
11	0	0	0	0	618	439	
12	0	0	0	0	614	440	
13	0	0	0	0	610	439	
14	0	0	0	0	607	439	
15	0	0	0	0	606	439	
0	0	0	0	0	612	439	
1	0	0	0	0	627	439	
2	0	0	0	0	644	438	
3	0	0	0	0	661	438	
4	0	0	0	0	676	438	
5	0	0	0	0	684	438	
6	0	0	0	0	687	437	
7	0	0	0	0	684	437	
8	0	0	0	0	679	437	
9	0	0	0	0	669	438	
10	0	0	0	0	658	437	
11	0	0	0	0	646	436	
12	0	0	0	0	634	436	
13	0	0	0	0	622	435	
14	0	0	0	0	610	435	
15	0	0	0	0	598	435	
0	0	0	0	0	587	435	
1	0	0	0	0	577	435	
2	0	0	0	0	568	434	
3	0	0	0	0	561	434	
4	0	0	0	0	553	434	
5	0	0	0	0	547	433	
6	0	0	0	0	541	433	
7	0	0	0	0	535	433	
8	0	0	0	0	528	432	
9	0	0	0	0	522	433	
10	0	0	0	0	517	432	
11	0	0	0	0	512	432	
12	0	0	0	0	507	430	
13	0	0	0	0	503	430	
14	0	0	0	0	499	430	
15	0	0	0	0	495	430	
0	0	0	0	0	492	430	
1	0	0	0	0	488	431	
2	0	0	0	0	486	429	
3	0	0	0	0	484	429	
4	0	0	0	0	482	429	
5	0	0	0	0	481	428	
6	0	0	0	0	480	429	
7	0	0	0	0	480	429	
8	0	0	0	0	478	428	
9	0	0	0	0	478	428	
10	0	0	0	0	477	428	
11	0	0	0	0	477	428	
12	0	0	0	0	476	428	
13	0	0	0	0	476	427	
14	0	0	0	0	476	428	
15	0	0	0	0	476	427	
0	0	0	0	0	476	427	
1	0	0	0	0	476	428	
2	0	0	0	0	476	428	
3	0	0	0	0	476	427	
4	0	0	0	0	476	427	
5	0	0	0	0	476	427	
6	0	0	0	0	477	427	
7	0	0	0	0	477	426	
8	0	0	0	0	477	427	
9	0	0	0	0	476	426	
10	0	0	0	0	476	426	
11	0	0	0	0	476	426	
12	0	0	0	0	476	427	
13	0	0	0	0	476	427	
14	0	0	0	0	476	427	
15	0	0	0	0	476	426	
0	0	0	0	0	476	426	
1	0	0	0	0	476	427	
2	0	0	0	0	477	426	
3	0	0	0	0	477	426	
4	0	0	0	0	477	426	
5	0	0	0	0	477	425	
6	0	0	0	0	477	426	
7	0	0	0	0	477	427	
8	0	0	0	0	478	426	
9	0	0	0	0	478	427	
10	0	0	0	0	478	426	
11	0	0	0	0	479	426	
12	0	0	0	0	480	426	
13	0	0	0	0	479	425	
14	0	0	0	0	480	426	
15	0	0	0	0	480	426	
0	0	0	0	0	480	426	
1	0	0	0	0	480	427	
2	0	0	0	0	480	427	
3	0	0	0	0	480	427	
4	0	0	0	0	480	428	
5	0	0	0	0	480	427	
6	0	0	0	0	480	427	
7	0	0	0	0	480	427	
8	0	0	0	0	480	428	
9	0	0	0	0	480	429	
10	0	0	0	0	480	428	
11	0	0	0	0	481	429	
12	0	0	0	0	481	429	
13	0	0	0	0	481	428	
14	0	0	0	0	481	430	
15	0	0	0	0	482	429	
0	0	0	0	0	482	430	
1	0	0	0	0	482	430	
2	0	0	0	0	482	429	
3	0	0	0	0	481	430	
4	0	0	0	0	481	430	
5	0	0	0	0	481	430	
6	0	0	0	0	481	430	
7	0	0	0	0	482	430	
8	0	0	0	0	482	430	
9	0	0	0	0	482	431	
10	0	0	0	0	482	431	
11	0	0	0	0	482	430	
12	0	0	0	0	483	431	
13	0	0	0	0	483	430	
14	0	0	0	0	483	431	
15	0	0	0	0	483	431	
0	0	0	0	0	483	430	
1	0	0	0	0	483	432	
2	0	0	0	0	483	431	
3	0	0	0	0	482	432	
4	0	0	0	0	482	431	
5	0	0	0	0	482	431	
6	0	0	0	0	482	431	
7	0	0	0	0	482	432	
8	0	0	0	0	481	432	
9	0	0	0	0	481	432	
10	0	0	0	0	481	432	
11	0	0	0	0	481	432	
12	0	0	0	0	480	432	
13	0	0	0	0	480	431	
14	0	0	0	0	480	432	
15	0	0	0	0	480	431	
0	0	0	0	0	480	431	
1	0	0	0	0	481	433	
2	0	0	0	0	481	432	
3	0	0	0	0	481	432	
4	0	0	0	0	481	432	
5	0	0	0	0	480	431	
6	0	0	0	0	480	431	
7	0	0	0	0	480	431	
8	0	0	0	0	480	431	
9	0	0	0	0	480	432	
10	0	0	0	0	480	431	
11	0	0	0	0	481	432	
12	0	0	0	0	481	431	
13	0	0	0	0	481	431	
14	0	0	0	0	480	431	
15	0	0	0	0	481	430	
0	0	0	0	0	481	430	
1	0	0	0	0	481	431	
2	0	0	0	0	482	430	
3	0	0	0	0	482	431	
4	0	0	0	0	481	430	
5	0	0	0	0	481	430	
6	0	0	0	0	481	430	
7	0	0	0	0	481	431	
8	0	0	0	0	481	430	
9	0	0	0	0	481	431	
10	0	0	0	0	481	431	
11	0	0	0	0	481	430	
12	0	0	0	0	481	431	
13	0	0	0	0	481	431	
14	0	0	0	0	481	432	
15	0	0	0	0	481	431	
0	0	0	0	0	481	432	
1	0	0	0	0	481	432	
2	0	0	0	0	481	431	
3	0	0	0	0	481	431	
4	0	0	0	0	481	431	
5	0	0	0	0	481	431	
6	0	0	0	0	481	431	
7	0	0	0	0	481	431	
8	0	0	0	0	482	431	
9	0	0	0	0	482	432	
10	0	0	0	0	483	431	
11	0	0	0	0	483	431	
12	0	0	0	0	483	432	
13	0	0	0	0	484	431	
14	0	0	0	0	484	432	
15	0	0	0	0	486	431	
0	0	0	0	0	486	431	
1	0	0	0	0	487	432	
2	0	0	0	0	487	431	
3	0	0	0	0	487	431	
4	0	0	0	0	487	432	
5	0	0	0	0	488	432	
6	0	0	0	0	488	432	
7	0	0	0	0	489	431	
8	0	0	0	0	489	432	
9	0	0	0	0	491	432	
10	0	0	0	0	492	431	
11	0	0	0	0	492	431	
12	0	0	0	0	493	431	
13	0	0	0	0	493	431	
14	0	0	0	0	494	431	
15	0	0	0	0	494	431	
0	0	0	0	0	495	431	
1	0	0	0	0	495	432	
2	0	0	0	0	496	431	
3	0	0	0	0	497	430	
4	0	0	0	0	499	431	
5	0	0	0	0	499	431	
6	0	0	0	0	499	431	
7	0	0	0	0	500	430	
8	0	0	0	0	501	430	
9	0	0	0	0	503	431	
10	0	0	0	0	504	430	
11	0	0	0	0	504	430	
12	0	0	0	0	505	430	
13	0	0	0	0	505	430	
14	0	0	0	0	507	430	
15	0	0	0	0	507	430	
0	0	0	0	0	507	430	
1	0	0	0	0	507	431	
2	0	0	0	0	508	430	
3	0	0	0	0	509	430	
4	0	0	0	0	510	430	
5	0	0	0	0	510	429	
6	0	0	0	0	511	429	
7	0	0	0	0	512	428	
8	0	0	0	0	512	428	
9	0	0	0	0	512	429	
10	0	0	0	0	512	428	
11	0	0	0	0	513	428	
12	0	0	0	0	513	428	
13	0	0	0	0	513	427	
14	0	0	0	0	513	427	
15	0	0	0	0	513	427	
0	0	0	0	0	513	427	
1	0	0	0	0	514	429	
2	0	0	0	0	514	427	
3	0	0	0	0	514	427	
4	0	0	0	0	514	427	
5	0	0	0	0	514	426	
6	0	0	0	0	515	428	
7	0	0	0	0	515	427	
8	0	0	0	0	516	427	
9	0	0	0	0	516	428	
10	0	0	0	0	516	427	
11	0	0	0	0	516	427	
12	0	0	0	0	517	427	
13	0	0	0	0	516	427	
14	0	0	0	0	515	427	
15	0	0	0	0	515	428	
0	0	0	0	0	515	427	
1	0	0	0	0	515	428	
2	0	0	0	0	515	427	
3	0	0	0	0	514	427	
4	0	0	0	0	515	427	
5	0	0	0	0	514	427	
6	0	0	0	0	514	428	
7	0	0	0	0	514	428	
8	0	0	0	0	514	428	
9	0	0	0	0	513	430	
10	0	0	0	0	513	428	
11	0	0	0	0	514	428	
12	0	0	0	0	514	429	
13	0	0	0	0	515	428	
14	0	0	0	0	514	428	
15	0	0	0	0	514	428	
0	0	0	0	0	514	428	
1	0	0	0	0	513	430	
2	0	0	0	0	513	428	
3	0	0	0	0	513	430	
4	0	0	0	0	513	429	
5	0	0	0	0	513	430	
6	0	0	0	0	513	430	
7	0	0	0	0	514	430	
8	0	0	0	0	513	430	
9	0	0	0	0	513	430	
10	0	0	0	0	513	430	
11	0	0	0	0	513	430	
12	0	0	0	0	513	430	
13	0	0	0	0	513	430	
14	0	0	0	0	514	431	
15	0	0	0	0	514	431	
0	0	0	0	0	514	431	
1	0	0	0	0	514	432	
2	0	0	0	0	514	431	
3	0	0	0	0	514	431	
4	0	0	0	0	514	431	
5	0	0	0	0	514	431	
6	0	0	0	0	515	432	
7	0	0	0	0	515	432	
8	0	0	0	0	515	432	
9	0	0	0	0	515	433	
10	0	0	0	0	515	432	
11	0	0	0	0	515	432	
12	0	0	0	0	515	433	
13	0	0	0	0	515	432	
14	0	0	0	0	515	433	
15	0	0	0	0	514	432	
0	0	0	0	0	515	433	
1	0	0	0	0	514	434	
2	0	0	0	0	513	434	
3	0	0	0	0	513	432	
4	0	0	0	0	513	434	
5	0	0	0	0	513	433	
6	0	0	0	0	513	433	
7	0	0	0	0	512	433	
8	0	0	0	0	512	432	
9	0	0	0	0	512	433	
10	0	0	0	0	513	432	
11	0	0	0	0	513	432	
12	0	0	0	0	513	432	
13	0	0	0	0	514	432	
14	0	0	0	0	514	432	
15	0	0	0	0	515	432	
0	0	0	0	0	515	432	
1	0	0	0	0	515	432	
2	0	0	0	0	515	431	
3	0	0	0	0	515	432	
4	0	0	0	0	515	432	
5	0	0	0	0	515	431	
6	0	0	0	0	515	431	
7	0	0	0	0	515	431	
8	0	0	0	0	515	431	
9	0	0	0	0	514	431	
10	0	0	0	0	514	431	
11	0	0	0	0	513	430	
12	0	0	0	0	513	430	
13	0	0	0	0	513	429	
14	0	0	0	0	512	429	
15	0	0	0	0	512	429	
0	0	0	0	0	512	430	
1	0	0	0	0	511	429	
2	0	0	0	0	512	429	
3	0	0	0	0	512	429	
4	0	0	0	0	512	428	
5	0	0	0	0	512	428	
6	0	0	0	0	512	428	
7	0	0	0	0	512	428	
8	0	0	0	0	513	428	
9	0	0	0	0	513	429	
10	0	0	0	0	512	428	
11	0	0	0	0	512	428	
12	0	0	0	0	513	427	
13	0	0	0	0	513	427	
14	0	0	0	0	513	427	
15	0	0	0	0	513	428	
0	0	0	0	0	513	428	
1	0	0	0	0	513	428	
2	0	0	0	0	513	427	
3	0	0	0	0	514	427	
4	0	0	0	0	513	427	
5	0	0	0	0	513	427	
6	0	0	0	0	512	427	
7	0	0	0	0	511	427	
8	0	0	0	0	511	427	
9	0	0	0	0	510	427	
10	0	0	0	0	510	427	
11	0	0	0	0	510	427	
12	0	0	0	0	511	427	
13	0	0	0	0	511	427	
14	0	0	0	0	511	428	
15	0	0	0	0	511	428	
0	0	0	0	0	512	428	
1	0	0	0	0	512	428	
2	0	0	0	0	512	427	
3	0	0	0	0	512	428	
4	0	0	0	0	512	429	
5	0	0	0	0	512	429	
6	0	0	0	0	512	429	
7	0	0	0	0	512	429	
8	0	0	0	0	512	429	
9	0	0	0	0	513	430	
10	0	0	0	0	512	430	
11	0	0	0	0	513	430	
12	0	0	0	0	513	429	
13	0	0	0	0	513	430	
14	0	0	0	0	513	430	
15	0	0	0	0	513	430	
0	0	0	0	0	514	431	
1	0	0	0	0	514	432	
2	0	0	0	0	514	431	
3	0	0	0	0	514	431	
4	0	0	0	0	514	431	
5	0	0	0	0	514	431	
6	0	0	0	0	513	431	
7	0	0	0	0	513	431	
8	0	0	0	0	513	431	
9	0	0	0	0	513	432	
10	0	0	0	0	513	431	
11	0	0	0	0	513	432	
12	0	0	0	0	512	431	
13	0	0	0	0	512	432	
14	0	0	0	0	512	432	
15	0	0	0	0	512	432	
0	0	0	0	0	512	432	
1	0	0	0	0	512	433	
2	0	0	0	0	512	433	
3	0	0	0	0	512	432	
4	0	0	0	0	512	432	
5	0	0	0	0	512	432	
6	0	0	0	0	512	433	
7	0	0	0	0	512	433	
8	0	0	0	0	512	433	
9	0	0	0	0	511	434	
10	0	0	0	0	511	433	
11	0	0	0	0	512	434	
12	0	0	0	0	512	433	
13	0	0	0	0	511	433	
14	0	0	0	0	511	433	
15	0	0	0	0	511	433	
0	0	0	0	0	512	433	
1	0	0	0	0	512	434	
2	0	0	0	0	512	433	
3	0	0	0	0	512	433	
4	0	0	0	0	512	433	
5	0	0	0	0	512	433	
6	0	0	0	0	512	433	
7	0	0	0	0	512	433	
8	0	0	0	0	512	432	
9	0	0	0	0	512	433	
10	0	0	0	0	512	432	
11	0	0	0	0	512	432	
12	0	0	0	0	513	432	
13	0	0	0	0	513	432	
14	0	0	0	0	514	432	
15	0	0	0	0	514	432	
0	0	0	0	0	514	432	
1	0	0	0	0	514	432	
2	0	0	0	0	515	431	
3	0	0	0	0	515	430	
4	0	0	0	0	514	430	
5	0	0	0	0	514	430	
6	0	0	0	0	513	430	
7	0	0	0	0	513	430	
8	0	0	0	0	513	430	
9	0	0	0	0	512	430	
10	0	0	0	0	513	429	
11	0	0	0	0	512	429	
12	0	0	0	0	512	429	
13	0	0	0	0	512	428	
14	0	0	0	0	512	428	
15	0	0	0	0	512	429	
0	0	0	0	0	512	428	
1	0	0	0	0	512	428	
2	0	0	0	0	512	427	
3	0	0	0	0	512	427	
4	0	0	0	0	512	427	
5	0	0	0	0	513	427	
6	0	0	0	0	512	427	
7	0	0	0	0	512	427	
8	0	0	0	0	513	426	
9	0	0	0	0	512	427	
10	0	0	0	0	512	427	
11	0	0	0	0	512	426	
12	0	0	0	0	512	426	
13	0	0	0	0	512	426	
14	0	0	0	0	512	426	
15	0	0	0	0	513	425	
0	0	0	0	0	513	426	
1	0	0	0	0	514	426	
2	0	0	0	0	515	427	
3	0	0	0	0	514	427	
4	0	0	0	0	514	426	
5	0	0	0	0	514	426	
6	0	0	0	0	514	426	
7	0	0	0	0	513	427	
8	0	0	0	0	513	427	
9	0	0	0	0	513	427	
10	0	0	0	0	512	427	
11	0	0	0	0	513	427	
12	0	0	0	0	512	428	
13	0	0	0	0	513	428	
14	0	0	0	0	513	428	
15	0	0	0	0	512	428	
0	0	0	0	0	513	429	
1	0	0	0	0	513	429	
2	0	0	0	0	513	429	
3	0	0	0	0	513	429	
4	0	0	0	0	513	429	
5	0	0	0	0	514	429	
6	0	0	0	0	514	431	
7	0	0	0	0	513	431	
8	0	0	0	0	513	430	
9	0	0	0	0	514	432	
10	0	0	0	0	513	431	
11	0	0	0	0	513	431	
12	0	0	0	0	513	432	
13	0	0	0	0	513	431	
14	0	0	0	0	513	432	
15	0	0	0	0	512	432	
0	0	0	0	0	512	432	
1	0	0	0	0	512	432	
2	0	0	0	0	512	432	
3	0	0	0	0	512	432	
4	0	0	0	0	512	432	
5	0	0	0	0	512	431	
6	0	0	0	0	512	432	
7	0	0	0	0	512	432	
8	0	0	0	0	513	432	
9	0	0	0	0	513	433	
10	0	0	0	0	512	432	
11	0	0	0	0	512	432	
12	0	0	0	0	512	432	
13	0	0	0	0	512	433	
14	0	0	0	0	513	432	
15	0	0	0	0	512	432	
0	0	0	0	0	512	432	
1	0	0	0	0	512	433	
2	0	0	0	0	512	433	
3	0	0	0	0	512	433	
4	0	0	0	0	511	433	
5	0	0	0	0	511	433	
6	0	0	0	0	511	433	
7	0	0	0	0	511	433	
8	0	0	0	0	511	432	
9	0	0	0	0	510	434	
10	0	0	0	0	510	433	
11	0	0	0	0	509	432	
12	0	0	0	0	508	432	
13	0	0	0	0	508	432	
14	0	0	0	0	508	432	
15	0	0	0	0	507	433	
0	0	0	0	0	507	432	
1	0	0	0	0	507	433	
2	0	0	0	0	507	431	
3	0	0	0	0	507	431	
4	0	0	0	0	507	431	
5	0	0	0	0	506	430	
6	0	0	0	0	506	431	
7	0	0	0	0	506	431	
8	0	0	0	0	507	430	
9	0	0	0	0	507	431	
10	0	0	0	0	507	430	
11	0	0	0	0	507	430	
12	0	0	0	0	507	430	
13	0	0	0	0	507	430	
14	0	0	0	0	507	430	
15	0	0	0	0	507	430	
0	0	0	0	0	507	429	
1	0	0	0	0	506	430	
2	0	0	0	0	506	428	
3	0	0	0	0	507	428	
4	0	0	0	0	507	429	
5	0	0	0	0	508	428	
6	0	0	0	0	508	428	
7	0	0	0	0	508	428	
8	0	0	0	0	508	428	
9	0	0	0	0	509	429	
10	0	0	0	0	508	428	
11	0	0	0	0	509	428	
12	0	0	0	0	509	428	
13	0	0	0	0	510	428	
14	0	0	0	0	510	427	
15	0	0	0	0	511	428	
0	0	0	0	0	511	428	
1	0	0	0	0	511	428	
2	0	0	0	0	511	427	
3	0	0	0	0	511	428	
4	0	0	0	0	511	427	
5	0	0	0	0	511	428	
6	0	0	0	0	511	427	
7	0	0	0	0	510	428	
8	0	0	0	0	510	428	
9	0	0	0	0	511	429	
10	0	0	0	0	511	428	
11	0	0	0	0	511	427	
12	0	0	0	0	511	427	
13	0	0	0	0	511	427	
14	0	0	0	0	510	427	
15	0	0	0	0	510	428	
0	0	0	0	0	510	428	
1	0	0	0	0	510	428	
2	0	0	0	0	509	428	
3	0	0	0	0	510	428	
4	0	0	0	0	510	428	
5	0	0	0	0	510	428	
6	0	0	0	0	510	428	
7	0	0	0	0	510	428	
8	0	0	0	0	511	428	
9	0	0	0	0	511	429	
10	0	0	0	0	511	428	
11	0	0	0	0	511	428	
12	0	0	0	0	512	428	
13	0	0	0	0	512	428	
14	0	0	0	0	512	428	
15	0	0	0	0	513	428	
0	0	0	0	0	514	429	
1	0	0	0	0	514	429	
2	0	0	0	0	514	429	
3	0	0	0	0	514	429	
4	0	0	0	0	513	429	
5	0	0	0	0	513	429	
6	0	0	0	0	513	429	
7	0	0	0	0	513	429	
8	0	0	0	0	512	430	
9	0	0	0	0	512	431	
10	0	0	0	0	512	430	
11	0	0	0	0	511	430	
12	0	0	0	0	511	430	
13	0	0	0	0	511	430	
14	0	0	0	0	511	431	
15	0	0	0	0	512	431	
0	0	0	0	0	511	431	
1	0	0	0	0	511	431	
2	0	0	0	0	511	430	
3	0	0	0	0	512	430	
4	0	0	0	0	512	431	
5	0	0	0	0	511	430	
6	0	0	0	0	511	430	
7	0	0	0	0	511	431	
8	0	0	0	0	510	431	
9	0	0	0	0	510	432	
10	0	0	0	0	510	431	
11	0	0	0	0	510	431	
12	0	0	0	0	510	431	
13	0	0	0	0	510	430	
14	0	0	0	0	510	431	
15	0	0	0	0	510	431	
0	0	0	0	0	510	431	
1	0	0	0	0	510	432	
2	0	0	0	0	510	432	
3	0	0	0	0	510	432	
4	0	0	0	0	509	431	
5	0	0	0	0	510	432	
6	0	0	0	0	509	433	
7	0	0	0	0	510	432	
8	0	0	0	0	510	432	
9	0	0	0	0	509	433	
10	0	0	0	0	508	432	
11	0	0	0	0	508	432	
12	0	0	0	0	507	432	
13	0	0	0	0	506	432	
14	0	0	0	0	504	432	
15	0	0	0	0	502	432	
0	0	0	0	0	498	432	
1	0	0	0	0	494	433	
2	0	0	0	0	490	432	
3	0	0	0	0	485	432	
4	0	0	0	0	480	432	
5	0	0	0	0	475	431	
6	0	0	0	0	469	432	
7	0	0	0	0	463	432	
8	0	0	0	0	458	431	
9	0	0	0	0	453	432	
10	0	0	0	0	448	431	
11	0	0	0	0	444	431	
12	0	0	0	0	439	431	
13	0	0	0	0	434	430	
14	0	0	0	0	428	431	
15	0	0	0	0	423	430	
0	0	0	0	0	417	430	
1	0	0	0	0	412	431	
2	0	0	0	0	406	431	
3	0	0	0	0	399	430	
4	0	0	0	0	392	430	
5	0	0	0	0	387	431	
6	0	0	0	0	385	431	
7	0	0	0	0	386	431	
8	0	0	0	0	391	430	
9	0	0	0	0	402	430	
10	0	0	0	0	417	429	
11	0	0	0	0	437	430	
12	0	0	0	0	457	430	
13	0	0	0	0	479	430	
14	0	0	0	0	501	430	
15	0	0	0	0	523	429	
0	0	0	0	0	544	430	
1	0	0	0	0	562	430	
2	0	0	0	0	577	430	
3	0	0	0	0	588	429	
4	0	0	0	0	594	429	
5	0	0	0	0	601	429	
6	0	0	0	0	609	430	
7	0	0	0	0	615	429	
8	0	0	0	0	618	429	
9	0	0	0	0	616	430	
10	0	0	0	0	614	429	
11	0	0	0	0	609	429	
12	0	0	0	0	604	429	
13	0	0	0	0	599	428	
14	0	0	0	0	595	428	
15	0	0	0	0	593	428	
0	0	0	0	0	597	429	
1	0	0	0	0	609	429	
2	0	0	0	0	625	428	
3	0	0	0	0	642	428	
4	0	0	0	0	660	428	
5	0	0	0	0	671	428	
6	0	0	0	0	676	428	
7	0	0	0	0	676	428	
8	0	0	0	0	673	428	
9	0	0	0	0	665	429	
10	0	0	0	0	655	428	
11	0	0	0	0	643	428	
12	0	0	0	0	632	428	
13	0	0	0	0	620	428	
14	0	0	0	0	609	429	
15	0	0	0	0	598	429	
0	0	0	0	0	587	429	
1	0	0	0	0	577	429	
2	0	0	0	0	568	428	
3	0	0	0	0	560	429	
4	0	0	0	0	553	428	
5	0	0	0	0	548	428	
6	0	0	0	0	543	429	
7	0	0	0	0	537	429	
8	0	0	0	0	532	429	
9	0	0	0	0	527	430	
10	0	0	0	0	522	430	
11	0	0	0	0	516	430	
12	0	0	0	0	512	429	
13	0	0	0	0	508	429	
14	0	0	0	0	503	430	
15	0	0	0	0	499	429	
0	0	0	0	0	497	430	
1	0	0	0	0	493	430	
2	0	0	0	0	491	430	
3	0	0	0	0	489	429	
4	0	0	0	0	487	430	
5	0	0	0	0	486	429	
6	0	0	0	0	485	430	
7	0	0	0	0	483	430	
8	0	0	0	0	483	430	
9	0	0	0	0	482	430	
10	0	0	0	0	481	430	
11	0	0	0	0	481	430	
12	0	0	0	0	481	431	
13	0	0	0	0	481	430	
14	0	0	0	0	480	430	
15	0	0	0	0	480	430	
0	0	0	0	0	480	430	
1	0	0	0	0	480	432	
2	0	0	0	0	480	431	
3	0	0	0	0	480	431	
4	0	0	0	0	480	431	
5	0	0	0	0	479	431	
6	0	0	0	0	479	431	
7	0	0	0	0	479	431	
8	0	0	0	0	480	431	
9	0	0	0	0	479	432	
10	0	0	0	0	479	431	
11	0	0	0	0	479	432	
12	0	0	0	0	479	431	
13	0	0	0	0	479	431	
14	0	0	0	0	479	431	
15	0	0	0	0	479	431	
0	0	0	0	0	479	432	
1	0	0	0	0	480	432	
2	0	0	0	0	480	431	
3	0	0	0	0	480	430	
4	0	0	0	0	480	431	
5	0	0	0	0	481	431	
6	0	0	0	0	481	431	
7	0	0	0	0	481	430	
8	0	0	0	0	481	431	
9	0	0	0	0	481	431	
10	0	0	0	0	482	430	
11	0	0	0	0	481	430	
12	0	0	0	0	482	431	
13	0	0	0	0	482	430	
14	0	0	0	0	482	430	
15	0	0	0	0	482	431	
0	0	0	0	0	482	430	
1	0	0	0	0	482	431	
2	0	0	0	0	483	430	
3	0	0	0	0	483	430	
4	0	0	0	0	483	431	
5	0	0	0	0	484	430	
6	0	0	0	0	484	429	
7	0	0	0	0	484	429	
8	0	0	0	0	484	429	
9	0	0	0	0	484	429	
10	0	0	0	0	484	430	
11	0	0	0	0	484	430	
12	0	0	0	0	485	429	
13	0	0	0	0	485	429	
14	0	0	0	0	484	429	
15	0	0	0	0	485	429	
0	0	0	0	0	484	429	
1	0	0	0	0	484	430	
2	0	0	0	0	484	429	
3	0	0	0	0	484	429	
4	0	0	0	0	485	430	
5	0	0	0	0	485	429	
6	0	0	0	0	485	429	
7	0	0	0	0	486	430	
8	0	0	0	0	485	428	
9	0	0	0	0	486	430	
10	0	0	0	0	487	429	
11	0	0	0	0	487	429	
12	0	0	0	0	487	429	
13	0	0	0	0	487	428	
14	0	0	0	0	487	429	
15	0	0	0	0	487	428	
0	0	0	0	0	488	428	
1	0	0	0	0	488	429	
2	0	0	0	0	489	428	
3	0	0	0	0	488	428	
4	0	0	0	0	488	428	
5	0	0	0	0	488	427	
6	0	0	0	0	488	428	
7	0	0	0	0	488	429	
8	0	0	0	0	488	429	
9	0	0	0	0	488	429	
10	0	0	0	0	488	428	
11	0	0	0	0	487	428	
12	0	0	0	0	488	429	
13	0	0	0	0	487	428	
14	0	0	0	0	487	429	
15	0	0	0	0	487	429	
0	0	0	0	0	487	430	
1	0	0	0	0	487	431	
2	0	0	0	0	487	430	
3	0	0	0	0	487	430	
4	0	0	0	0	487	429	
5	0	0	0	0	487	430	
6	0	0	0	0	487	430	
7	0	0	0	0	488	430	
8	0	0	0	0	487	430	
9	0	0	0	0	487	431	
10	0	0	0	0	487	430	
11	0	0	0	0	487	430	
12	0	0	0	0	487	430	
13	0	0	0	0	487	430	
14	0	0	0	0	487	430	
15	0	0	0	0	487	430	
0	0	0	0	0	487	431	
1	0	0	0	0	488	431	
2	0	0	0	0	489	431	
3	0	0	0	0	489	430	
4	0	0	0	0	489	431	
5	0	0	0	0	488	430	
6	0	0	0	0	488	431	
7	0	0	0	0	488	432	
8	0	0	0	0	487	431	
9	0	0	0	0	487	432	
10	0	0	0	0	487	432	
11	0	0	0	0	486	432	
12	0	0	0	0	486	432	
13	0	0	0	0	486	432	
14	0	0	0	0	486	432	
15	0	0	0	0	486	432	
0	0	0	0	0	486	432	
1	0	0	0	0	487	433	
2	0	0	0	0	487	432	
3	0	0	0	0	486	432	
4	0	0	0	0	486	432	
5	0	0	0	0	486	432	
6	0	0	0	0	486	433	
7	0	0	0	0	486	432	
8	0	0	0	0	487	432	
9	0	0	0	0	487	432	
10	0	0	0	0	487	432	
11	0	0	0	0	489	432	
12	0	0	0	0	489	432	
13	0	0	0	0	489	432	
14	0	0	0	0	490	432	
15	0	0	0	0	490	431	
0	0	0	0	0	491	431	
1	0	0	0	0	492	432	
2	0	0	0	0	492	431	
3	0	0	0	0	492	431	
4	0	0	0	0	492	430	
5	0	0	0	0	493	430	
6	0	0	0	0	494	430	
7	0	0	0	0	495	430	
8	0	0	0	0	496	430	
9	0	0	0	0	497	430	
10	0	0	0	0	498	429	
11	0	0	0	0	499	430	
12	0	0	0	0	499	429	
13	0	0	0	0	500	429	
14	0	0	0	0	501	429	
15	0	0	0	0	501	429	
0	0	0	0	0	502	429	
1	0	0	0	0	503	430	
2	0	0	0	0	504	429	
3	0	0	0	0	504	429	
4	0	0	0	0	505	429	
5	0	0	0	0	505	428	
6	0	0	0	0	506	429	
7	0	0	0	0	507	429	
8	0	0	0	0	508	429	
9	0	0	0	0	509	429	
10	0	0	0	0	510	428	
11	0	0	0	0	510	428	
12	0	0	0	0	511	429	
13	0	0	0	0	511	428	
14	0	0	0	0	512	428	
15	0	0	0	0	513	428	
0	0	0	0	0	513	428	
1	0	0	0	0	514	428	
2	0	0	0	0	515	428	
3	0	0	0	0	515	428	
4	0	0	0	0	516	428	
5	0	0	0	0	516	427	
6	0	0	0	0	517	428	
7	0	0	0	0	517	428	
8	0	0	0	0	517	428	
9	0	0	0	0	517	429	
10	0	0	0	0	517	428	
11	0	0	0	0	517	428	
12	0	0	0	0	518	428	
13	0	0	0	0	518	428	
14	0	0	0	0	519	428	
15	0	0	0	0	518	428	
0	0	0	0	0	519	428	
1	0	0	0	0	518	429	
2	0	0	0	0	518	428	
3	0	0	0	0	519	428	
4	0	0	0	0	519	429	
5	0	0	0	0	519	428	
6	0	0	0	0	519	429	
7	0	0	0	0	519	429	
8	0	0	0	0	519	428	
9	0	0	0	0	519	430	
10	0	0	0	0	519	429	
11	0	0	0	0	519	430	
12	0	0	0	0	518	430	
13	0	0	0	0	518	429	
14	0	0	0	0	519	430	
15	0	0	0	0	519	430	
0	0	0	0	0	519	430	
1	0	0	0	0	518	431	
2	0	0	0	0	517	430	
3	0	0	0	0	516	431	
4	0	0	0	0	516	431	
5	0	0	0	0	516	431	
6	0	0	0	0	516	431	
7	0	0	0	0	516	431	
8	0	0	0	0	516	431	
9	0	0	0	0	515	432	
10	0	0	0	0	515	431	
11	0	0	0	0	514	432	
12	0	0	0	0	514	432	
13	0	0	0	0	514	431	
14	0	0	0	0	514	432	
15	0	0	0	0	514	432	
0	0	0	0	0	514	431	
1	0	0	0	0	514	432	
2	0	0	0	0	514	431	
3	0	0	0	0	514	432	
4	0	0	0	0	513	431	
5	0	0	0	0	513	432	
6	0	0	0	0	513	432	
7	0	0	0	0	512	432	
8	0	0	0	0	512	432	
9	0	0	0	0	512	433	
10	0	0	0	0	512	432	
11	0	0	0	0	512	432	
12	0	0	0	0	511	432	
13	0	0	0	0	512	433	
14	0	0	0	0	512	432	
15	0	0	0	0	512	433	
0	0	0	0	0	513	432	
1	0	0	0	0	513	433	
2	0	0	0	0	513	433	
3	0	0	0	0	513	432	
4	0	0	0	0	513	432	
5	0	0	0	0	513	432	
6	0	0	0	0	514	432	
7	0	0	0	0	514	432	
8	0	0	0	0	514	432	
9	0	0	0	0	514	432	
10	0	0	0	0	514	432	
11	0	0	0	0	514	432	
12	0	0	0	0	514	432	
13	0	0	0	0	514	431	
14	0	0	0	0	513	431	
15	0	0	0	0	514	431	
0	0	0	0	0	514	431	
1	0	0	0	0	514	431	
2	0	0	0	0	514	431	
3	0	0	0	0	513	431	
4	0	0	0	0	514	431	
5	0	0	0	0	513	430	
6	0	0	0	0	513	430	
7	0	0	0	0	513	430	
8	0	0	0	0	512	431	
9	0	0	0	0	512	431	
10	0	0	0	0	512	430	
11	0	0	0	0	513	430	
12	0	0	0	0	513	429	
13	0	0	0	0	513	429	
14	0	0	0	0	512	430	
15	0	0	0	0	512	430	
0	0	0	0	0	513	429	
1	0	0	0	0	513	430	
2	0	0	0	0	513	429	
3	0	0	0	0	513	428	
4	0	0	0	0	512	429	
5	0	0	0	0	512	428	
6	0	0	0	0	513	428	
7	0	0	0	0	513	428	
8	0	0	0	0	513	429	
9	0	0	0	0	513	429	
10	0	0	0	0	513	428	
11	0	0	0	0	513	428	
12	0	0	0	0	513	428	
13	0	0	0	0	514	428	
14	0	0	0	0	514	428	
15	0	0	0	0	514	427	
0	0	0	0	0	513	428	
1	0	0	0	0	513	428	
2	0	0	0	0	514	427	
3	0	0	0	0	514	427	
4	0	0	0	0	514	428	
5	0	0	0	0	514	427	
6	0	0	0	0	514	427	
7	0	0	0	0	513	428	
8	0	0	0	0	513	428	
9	0	0	0	0	514	428	
10	0	0	0	0	513	428	
11	0	0	0	0	513	428	
12	0	0	0	0	513	427	
13	0	0	0	0	514	427	
14	0	0	0	0	513	428	
15	0	0	0	0	513	428	
0	0	0	0	0	514	428	
1	0	0	0	0	514	429	
2	0	0	0	0	514	429	
3	0	0	0	0	515	428	
4	0	0	0	0	515	428	
5	0	0	0	0	514	428	
6	0	0	0	0	513	428	
7	0	0	0	0	514	428	
8	0	0	0	0	514	428	
9	0	0	0	0	515	430	
10	0	0	0	0	514	429	
11	0	0	0	0	514	429	
12	0	0	0	0	514	429	
13	0	0	0	0	515	429	
14	0	0	0	0	514	428	
15	0	0	0	0	514	429	
0	0	0	0	0	514	430	
1	0	0	0	0	514	430	
2	0	0	0	0	514	429	
3	0	0	0	0	513	429	
4	0	0	0	0	514	430	
5	0	0	0	0	514	430	
6	0	0	0	0	514	430	
7	0	0	0	0	514	430	
8	0	0	0	0	514	430	
9	0	0	0	0	514	431	
10	0	0	0	0	514	431	
11	0	0	0	0	514	431	
12	0	0	0	0	513	432	
13	0	0	0	0	513	431	
14	0	0	0	0	513	432	
15	0	0	0	0	513	432	
0	0	0	0	0	513	431	
1	0	0	0	0	513	433	
2	0	0	0	0	513	432	
3	0	0	0	0	513	431	
4	0	0	0	0	513	432	
5	0	0	0	0	513	431	
6	0	0	0	0	514	432	
7	0	0	0	0	514	432	
8	0	0	0	0	513	432	
9	0	0	0	0	513	433	
10	0	0	0	0	513	432	
11	0	0	0	0	514	433	
12	0	0	0	0	515	432	
13	0	0	0	0	515	432	
14	0	0	0	0	515	432	
15	0	0	0	0	515	432	
0	0	0	0	0	515	432	
1	0	0	0	0	514	433	
2	0	0	0	0	514	433	
3	0	0	0	0	514	432	
4	0	0	0	0	514	433	
5	0	0	0	0	514	432	
6	0	0	0	0	513	432	
7	0	0	0	0	513	432	
8	0	0	0	0	512	432	
9	0	0	0	0	512	433	
10	0	0	0	0	512	432	
11	0	0	0	0	512	432	
12	0	0	0	0	512	433	
13	0	0	0	0	513	432	
14	0	0	0	0	513	433	
15	0	0	0	0	514	433	
0	0	0	0	0	514	433	
1	0	0	0	0	515	432	
2	0	0	0	0	515	432	
3	0	0	0	0	514	432	
4	0	0	0	0	514	433	
5	0	0	0	0	514	432	
6	0	0	0	0	513	432	
7	0	0	0	0	513	432	
8	0	0	0	0	513	432	
9	0	0	0	0	513	432	
10	0	0	0	0	513	432	
11	0	0	0	0	513	431	
12	0	0	0	0	513	432	
13	0	0	0	0	512	431	
14	0	0	0	0	513	430	
15	0	0	0	0	513	430	
0	0	0	0	0	513	430	
1	0	0	0	0	513	430	
2	0	0	0	0	513	430	
3	0	0	0	0	513	430	
4	0	0	0	0	513	429	
5	0	0	0	0	514	430	
6	0	0	0	0	514	430	
7	0	0	0	0	515	429	
8	0	0	0	0	515	430	
9	0	0	0	0	515	430	
10	0	0	0	0	515	429	
11	0	0	0	0	515	429	
12	0	0	0	0	515	429	
13	0	0	0	0	516	428	
14	0	0	0	0	517	429	
15	0	0	0	0	516	428	
0	0	0	0	0	516	428	
1	0	0	0	0	516	429	
2	0	0	0	0	516	428	
3	0	0	0	0	517	427	
4	0	0	0	0	516	428	
5	0	0	0	0	517	428	
6	0	0	0	0	517	427	
7	0	0	0	0	517	428	
8	0	0	0	0	517	427	
9	0	0	0	0	517	428	
10	0	0	0	0	516	428	
11	0	0	0	0	516	427	
12	0	0	0	0	515	427	
13	0	0	0	0	515	427	
14	0	0	0	0	515	427	
15	0	0	0	0	515	428	
0	0	0	0	0	514	427	
1	0	0	0	0	515	428	
2	0	0	0	0	515	427	
3	0	0	0	0	515	427	
4	0	0	0	0	514	427	
5	0	0	0	0	514	427	
6	0	0	0	0	514	428	
7	0	0	0	0	514	428	
8	0	0	0	0	514	428	
9	0	0	0	0	514	428	
10	0	0	0	0	514	427	
11	0	0	0	0	514	427	
12	0	0	0	0	515	427	
13	0	0	0	0	514	428	
14	0	0	0	0	514	428	
15	0	0	0	0	514	428	
0	0	0	0	0	514	428	
1	0	0	0	0	513	429	
2	0	0	0	0	513	428	
3	0	0	0	0	513	429	
4	0	0	0	0	513	429	
5	0	0	0	0	514	429	
6	0	0	0	0	514	429	
7	0	0	0	0	513	429	
8	0	0	0	0	513	430	
9	0	0	0	0	514	431	
10	0	0	0	0	514	430	
11	0	0	0	0	514	430	
12	0	0	0	0	513	431	
13	0	0	0	0	514	430	
14	0	0	0	0	513	430	
15	0	0	0	0	513	431	
0	0	0	0	0	513	430	
1	0	0	0	0	513	431	
2	0	0	0	0	513	430	
3	0	0	0	0	513	431	
4	0	0	0	0	513	432	
5	0	0	0	0	513	431	
6	0	0	0	0	514	431	
7	0	0	0	0	513	432	
8	0	0	0	0	513	432	
9	0	0	0	0	513	432	
10	0	0	0	0	512	432	
11	0	0	0	0	512	432	
12	0	0	0	0	512	432	
13	0	0	0	0	512	432	
14	0	0	0	0	513	433	
15	0	0	0	0	513	432	
0	0	0	0	0	513	433	
1	0	0	0	0	513	433	
2	0	0	0	0	513	432	
3	0	0	0	0	512	432	
4	0	0	0	0	512	433	
5	0	0	0	0	512	433	
6	0	0	0	0	512	433	
7	0	0	0	0	512	433	
8	0	0	0	0	512	433	
9	0	0	0	0	512	433	
10	0	0	0	0	511	432	
11	0	0	0	0	511	433	
12	0	0	0	0	510	432	
13	0	0	0	0	510	432	
14	0	0	0	0	510	433	
15	0	0	0	0	510	432	
0	0	0	0	0	510	433	
1	0	0	0	0	510	433	
2	0	0	0	0	510	433	
3	0	0	0	0	510	433	
4	0	0	0	0	510	433	
5	0	0	0	0	510	432	
6	0	0	0	0	510	432	
7	0	0	0	0	510	432	
8	0	0	0	0	510	432	
9	0	0	0	0	510	433	
10	0	0	0	0	511	432	
11	0	0	0	0	511	432	
12	0	0	0	0	511	432	
13	0	0	0	0	511	432	
14	0	0	0	0	511	432	
15	0	0	0	0	511	432	
0	0	0	0	0	511	431	
1	0	0	0	0	512	432	
2	0	0	0	0	512	431	
3	0	0	0	0	512	431	
4	0	0	0	0	512	431	
5	0	0	0	0	512	431	
6	0	0	0	0	512	430	
7	0	0	0	0	512	430	
8	0	0	0	0	512	430	
9	0	0	0	0	512	430	
10	0	0	0	0	512	430	
11	0	0	0	0	511	429	
12	0	0	0	0	512	429	
13	0	0	0	0	511	429	
14	0	0	0	0	511	429	
15	0	0	0	0	510	429	
0	0	0	0	0	510	428	
1	0	0	0	0	510	429	
2	0	0	0	0	510	429	
3	0	0	0	0	510	428	
4	0	0	0	0	510	428	
5	0	0	0	0	510	428	
6	0	0	0	0	509	429	
7	0	0	0	0	508	428	
8	0	0	0	0	508	428	
9	0	0	0	0	508	429	
10	0	0	0	0	508	428	
11	0	0	0	0	507	428	
12	0	0	0	0	507	428	
13	0	0	0	0	506	428	
14	0	0	0	0	506	427	
15	0	0	0	0	506	428	
0	0	0	0	0	506	427	
1	0	0	0	0	506	428	
2	0	0	0	0	506	428	
3	0	0	0	0	507	427	
4	0	0	0	0	506	427	
5	0	0	0	0	506	427	
6	0	0	0	0	505	427	
7	0	0	0	0	505	427	
8	0	0	0	0	505	427	
9	0	0	0	0	505	428	
10	0	0	0	0	504	427	
11	0	0	0	0	504	427	
12	0	0	0	0	504	427	
13	0	0	0	0	504	427	
14	0	0	0	0	505	427	
15	0	0	0	0	505	427	
0	0	0	0	0	505	428	
1	0	0	0	0	505	428	
2	0	0	0	0	505	427	
3	0	0	0	0	505	428	
4	0	0	0	0	506	427	
5	0	0	0	0	506	427	
6	0	0	0	0	507	428	
7	0	0	0	0	508	428	
8	0	0	0	0	508	428	
9	0	0	0	0	509	428	
10	0	0	0	0	510	428	
11	0	0	0	0	511	429	
12	0	0	0	0	512	428	
13	0	0	0	0	513	428	
14	0	0	0	0	512	429	
15	0	0	0	0	512	429	
0	0	0	0	0	512	429	
1	0	0	0	0	512	429	
2	0	0	0	0	512	428	
3	0	0	0	0	512	429	
4	0	0	0	0	512	429	
5	0	0	0	0	511	429	
6	0	0	0	0	511	429	
7	0	0	0	0	511	429	
8	0	0	0	0	511	429	
9	0	0	0	0	510	430	
10	0	0	0	0	510	430	
11	0	0	0	0	510	429	
12	0	0	0	0	510	430	
13	0	0	0	0	511	430	
14	0	0	0	0	510	431	
15	0	0	0	0	510	431	
0	0	0	0	0	509	431	
1	0	0	0	0	509	432	
2	0	0	0	0	509	431	
3	0	0	0	0	509	432	
4	0	0	0	0	509	432	
5	0	0	0	0	509	432	
6	0	0	0	0	510	432	
7	0	0	0	0	509	432	
8	0	0	0	0	509	432	
9	0	0	0	0	510	433	
10	0	0	0	0	510	432	
11	0	0	0	0	510	433	
12	0	0	0	0	510	433	
13	0	0	0	0	510	432	
14	0	0	0	0	511	433	
15	0	0	0	0	511	432	
0	0	0	0	0	512	433	
1	0	0	0	0	512	434	
2	0	0	0	0	511	432	
3	0	0	0	0	511	433	
4	0	0	0	0	510	433	
5	0	0	0	0	510	432	
6	0	0	0	0	510	433	
7	0	0	0	0	509	433	
8	0	0	0	0	508	433	
9	0	0	0	0	508	433	
10	0	0	0	0	507	433	
11	0	0	0	0	507	433	
12	0	0	0	0	507	433	
13	0	0	0	0	507	432	
14	0	0	0	0	506	432	
15	0	0	0	0	507	432	
0	0	0	0	0	507	432	
1	0	0	0	0	508	432	
2	0	0	0	0	507	432	
3	0	0	0	0	508	432	
4	0	0	0	0	508	431	
5	0	0	0	0	508	431	
6	0	0	0	0	508	431	
7	0	0	0	0	508	431	
8	0	0	0	0	508	431	
9	0	0	0	0	508	432	
10	0	0	0	0	507	431	
11	0	0	0	0	507	430	
12	0	0	0	0	507	430	
13	0	0	0	0	507	430	
14	0	0	0	0	506	430	
15	0	0	0	0	505	430	
0	0	0	0	0	505	429	
1	0	0	0	0	504	430	
2	0	0	0	0	504	429	
3	0	0	0	0	504	429	
