# OpenSignals Text File Format
# {"98:D3:91:FD:58:3A":{"sensor":["ECGBIT","ACCBITREV"],"device name":"98:D3:91:FD:58:3A","column":["nSeq","I1","I2","O1","O2","A2","A5"],"sync interval":2,"time":"21:27:51","comments":"","device connection":"BTH98:D3:91:FD:58:3A","channels":[2,5],"date":"2021-09-06","mode":0,"digital IO":[0,0,1,1],"firmware version":0,"device":"bitalino_rev","position":0,"sampling rate":1000,"label":["A2","A5"],"resolution":[10,10],"special":[{},{}]}}
# EndOfHeader
0	0	0	0	0	507	590
1	0	0	0	0	506	589
2	0	0	0	0	507	589
3	0	0	0	0	507	590
4	0	0	0	0	506	589
5	0	0	0	0	506	590
6	0	0	0	0	506	589
7	0	0	0	0	507	589
8	0	0	0	0	507	589
9	0	0	0	0	507	588
10	0	0	0	0	507	590
11	0	0	0	0	508	589
12	0	0	0	0	508	589
13	0	0	0	0	508	589
14	0	0	0	0	509	589
15	0	0	0	0	509	589
0	0	0	0	0	508	589
1	0	0	0	0	508	588
2	0	0	0	0	508	589
3	0	0	0	0	509	588
4	0	0	0	0	509	589
5	0	0	0	0	508	589
6	0	0	0	0	509	590
7	0	0	0	0	509	590
8	0	0	0	0	510	590
9	0	0	0	0	510	590
10	0	0	0	0	510	590
11	0	0	0	0	511	590
12	0	0	0	0	511	590
13	0	0	0	0	511	590
14	0	0	0	0	511	590
15	0	0	0	0	511	591
0	0	0	0	0	510	591
1	0	0	0	0	511	591
2	0	0	0	0	510	591
3	0	0	0	0	511	591
4	0	0	0	0	512	591
5	0	0	0	0	513	592
6	0	0	0	0	514	592
7	0	0	0	0	514	592
8	0	0	0	0	516	592
9	0	0	0	0	515	592
10	0	0	0	0	517	593
11	0	0	0	0	518	593
12	0	0	0	0	519	593
13	0	0	0	0	519	592
14	0	0	0	0	520	593
15	0	0	0	0	520	592
0	0	0	0	0	520	592
1	0	0	0	0	520	592
2	0	0	0	0	521	592
3	0	0	0	0	521	591
4	0	0	0	0	522	592
5	0	0	0	0	523	592
6	0	0	0	0	524	591
7	0	0	0	0	524	591
8	0	0	0	0	524	590
9	0	0	0	0	525	591
10	0	0	0	0	525	590
11	0	0	0	0	525	590
12	0	0	0	0	525	590
13	0	0	0	0	525	590
14	0	0	0	0	525	590
15	0	0	0	0	525	590
0	0	0	0	0	525	590
1	0	0	0	0	525	590
2	0	0	0	0	525	591
3	0	0	0	0	526	590
4	0	0	0	0	526	590
5	0	0	0	0	527	590
6	0	0	0	0	527	590
7	0	0	0	0	526	589
8	0	0	0	0	526	589
9	0	0	0	0	525	590
10	0	0	0	0	524	590
11	0	0	0	0	523	591
12	0	0	0	0	521	591
13	0	0	0	0	519	591
14	0	0	0	0	518	591
15	0	0	0	0	516	591
0	0	0	0	0	515	591
1	0	0	0	0	515	591
2	0	0	0	0	513	591
3	0	0	0	0	512	591
4	0	0	0	0	511	591
5	0	0	0	0	511	591
6	0	0	0	0	511	591
7	0	0	0	0	512	591
8	0	0	0	0	512	591
9	0	0	0	0	512	590
10	0	0	0	0	512	591
11	0	0	0	0	512	591
12	0	0	0	0	511	591
13	0	0	0	0	511	590
14	0	0	0	0	510	590
15	0	0	0	0	509	590
0	0	0	0	0	509	591
1	0	0	0	0	509	591
2	0	0	0	0	508	591
3	0	0	0	0	507	591
4	0	0	0	0	507	591
5	0	0	0	0	507	590
6	0	0	0	0	507	591
7	0	0	0	0	507	591
8	0	0	0	0	507	591
9	0	0	0	0	507	591
10	0	0	0	0	508	591
11	0	0	0	0	508	592
12	0	0	0	0	508	591
13	0	0	0	0	508	591
14	0	0	0	0	509	591
15	0	0	0	0	508	591
0	0	0	0	0	508	591
1	0	0	0	0	508	591
2	0	0	0	0	508	591
3	0	0	0	0	507	591
4	0	0	0	0	505	591
5	0	0	0	0	505	591
6	0	0	0	0	505	591
7	0	0	0	0	504	591
8	0	0	0	0	503	591
9	0	0	0	0	503	590
10	0	0	0	0	504	590
11	0	0	0	0	504	591
12	0	0	0	0	504	590
13	0	0	0	0	505	590
14	0	0	0	0	505	590
15	0	0	0	0	506	590
0	0	0	0	0	506	590
1	0	0	0	0	506	590
2	0	0	0	0	506	590
3	0	0	0	0	506	590
4	0	0	0	0	506	590
5	0	0	0	0	506	590
6	0	0	0	0	505	590
7	0	0	0	0	505	590
8	0	0	0	0	504	590
9	0	0	0	0	504	590
10	0	0	0	0	503	590
11	0	0	0	0	503	590
12	0	0	0	0	502	591
13	0	0	0	0	502	590
14	0	0	0	0	502	591
15	0	0	0	0	501	590
0	0	0	0	0	502	590
1	0	0	0	0	501	590
2	0	0	0	0	502	590
3	0	0	0	0	502	590
4	0	0	0	0	502	590
5	0	0	0	0	502	590
6	0	0	0	0	502	590
7	0	0	0	0	502	591
8	0	0	0	0	502	590
9	0	0	0	0	501	590
10	0	0	0	0	501	590
11	0	0	0	0	501	590
12	0	0	0	0	501	590
13	0	0	0	0	500	589
14	0	0	0	0	500	590
15	0	0	0	0	499	590
0	0	0	0	0	499	591
1	0	0	0	0	499	591
2	0	0	0	0	499	590
3	0	0	0	0	499	591
4	0	0	0	0	499	590
5	0	0	0	0	499	591
6	0	0	0	0	499	591
7	0	0	0	0	499	591
8	0	0	0	0	499	590
9	0	0	0	0	498	591
10	0	0	0	0	497	591
11	0	0	0	0	496	591
12	0	0	0	0	494	591
13	0	0	0	0	491	591
14	0	0	0	0	487	591
15	0	0	0	0	484	591
0	0	0	0	0	481	591
1	0	0	0	0	478	591
2	0	0	0	0	475	590
3	0	0	0	0	472	591
4	0	0	0	0	470	591
5	0	0	0	0	467	591
6	0	0	0	0	465	591
7	0	0	0	0	462	591
8	0	0	0	0	460	590
9	0	0	0	0	459	590
10	0	0	0	0	457	590
11	0	0	0	0	455	590
12	0	0	0	0	455	590
13	0	0	0	0	454	589
14	0	0	0	0	454	590
15	0	0	0	0	454	590
0	0	0	0	0	455	590
1	0	0	0	0	456	590
2	0	0	0	0	459	590
3	0	0	0	0	462	590
4	0	0	0	0	465	590
5	0	0	0	0	468	590
6	0	0	0	0	472	590
7	0	0	0	0	476	590
8	0	0	0	0	481	590
9	0	0	0	0	488	590
10	0	0	0	0	498	590
11	0	0	0	0	508	590
12	0	0	0	0	521	590
13	0	0	0	0	539	590
14	0	0	0	0	555	590
15	0	0	0	0	570	590
0	0	0	0	0	582	590
1	0	0	0	0	590	590
2	0	0	0	0	597	590
3	0	0	0	0	602	590
4	0	0	0	0	610	590
5	0	0	0	0	621	591
6	0	0	0	0	636	590
7	0	0	0	0	650	591
8	0	0	0	0	665	590
9	0	0	0	0	681	590
10	0	0	0	0	696	590
11	0	0	0	0	710	590
12	0	0	0	0	723	591
13	0	0	0	0	733	590
14	0	0	0	0	737	591
15	0	0	0	0	735	591
0	0	0	0	0	729	591
1	0	0	0	0	721	591
2	0	0	0	0	711	591
3	0	0	0	0	702	590
4	0	0	0	0	692	592
5	0	0	0	0	683	591
6	0	0	0	0	674	591
7	0	0	0	0	664	591
8	0	0	0	0	653	591
9	0	0	0	0	642	591
10	0	0	0	0	630	592
11	0	0	0	0	619	592
12	0	0	0	0	607	591
13	0	0	0	0	596	591
14	0	0	0	0	587	592
15	0	0	0	0	577	592
0	0	0	0	0	568	591
1	0	0	0	0	559	592
2	0	0	0	0	550	591
3	0	0	0	0	542	591
4	0	0	0	0	534	591
5	0	0	0	0	527	591
6	0	0	0	0	519	591
7	0	0	0	0	511	591
8	0	0	0	0	505	591
9	0	0	0	0	498	591
10	0	0	0	0	491	590
11	0	0	0	0	485	590
12	0	0	0	0	479	591
13	0	0	0	0	474	591
14	0	0	0	0	469	591
15	0	0	0	0	464	591
0	0	0	0	0	459	590
1	0	0	0	0	455	590
2	0	0	0	0	453	590
3	0	0	0	0	451	590
4	0	0	0	0	449	591
5	0	0	0	0	448	591
6	0	0	0	0	446	591
7	0	0	0	0	445	591
8	0	0	0	0	444	591
9	0	0	0	0	444	591
10	0	0	0	0	444	590
11	0	0	0	0	444	590
12	0	0	0	0	444	591
13	0	0	0	0	444	590
14	0	0	0	0	443	590
15	0	0	0	0	443	590
0	0	0	0	0	444	590
1	0	0	0	0	444	590
2	0	0	0	0	444	589
3	0	0	0	0	443	589
4	0	0	0	0	443	589
5	0	0	0	0	443	588
6	0	0	0	0	443	589
7	0	0	0	0	444	589
8	0	0	0	0	444	590
9	0	0	0	0	444	589
10	0	0	0	0	445	589
11	0	0	0	0	446	590
12	0	0	0	0	446	590
13	0	0	0	0	447	590
14	0	0	0	0	448	591
15	0	0	0	0	449	590
0	0	0	0	0	449	591
1	0	0	0	0	448	590
2	0	0	0	0	449	591
3	0	0	0	0	450	591
4	0	0	0	0	450	590
5	0	0	0	0	450	591
6	0	0	0	0	449	591
7	0	0	0	0	450	591
8	0	0	0	0	450	590
9	0	0	0	0	451	590
10	0	0	0	0	451	591
11	0	0	0	0	451	591
12	0	0	0	0	452	591
13	0	0	0	0	452	591
14	0	0	0	0	452	591
15	0	0	0	0	452	591
0	0	0	0	0	452	591
1	0	0	0	0	453	591
2	0	0	0	0	454	591
3	0	0	0	0	455	591
4	0	0	0	0	455	591
5	0	0	0	0	457	591
6	0	0	0	0	458	591
7	0	0	0	0	459	591
8	0	0	0	0	460	591
9	0	0	0	0	460	591
10	0	0	0	0	460	591
11	0	0	0	0	461	591
12	0	0	0	0	460	591
13	0	0	0	0	460	591
14	0	0	0	0	460	592
15	0	0	0	0	460	591
0	0	0	0	0	460	591
1	0	0	0	0	460	591
2	0	0	0	0	460	591
3	0	0	0	0	459	591
4	0	0	0	0	459	590
5	0	0	0	0	460	591
6	0	0	0	0	461	590
7	0	0	0	0	461	590
8	0	0	0	0	462	590
9	0	0	0	0	462	590
10	0	0	0	0	463	590
11	0	0	0	0	463	590
12	0	0	0	0	463	590
13	0	0	0	0	463	590
14	0	0	0	0	463	590
15	0	0	0	0	463	589
0	0	0	0	0	463	590
1	0	0	0	0	463	589
2	0	0	0	0	462	589
3	0	0	0	0	462	589
4	0	0	0	0	462	589
5	0	0	0	0	463	589
6	0	0	0	0	463	590
7	0	0	0	0	464	589
8	0	0	0	0	464	589
9	0	0	0	0	464	589
10	0	0	0	0	465	590
11	0	0	0	0	465	590
12	0	0	0	0	464	590
13	0	0	0	0	464	590
14	0	0	0	0	465	590
15	0	0	0	0	464	590
0	0	0	0	0	464	590
1	0	0	0	0	464	590
2	0	0	0	0	465	591
3	0	0	0	0	465	590
4	0	0	0	0	465	590
5	0	0	0	0	464	590
6	0	0	0	0	464	590
7	0	0	0	0	464	589
8	0	0	0	0	463	590
9	0	0	0	0	463	590
10	0	0	0	0	463	590
11	0	0	0	0	463	589
12	0	0	0	0	463	589
13	0	0	0	0	464	590
14	0	0	0	0	464	590
15	0	0	0	0	464	590
0	0	0	0	0	465	590
1	0	0	0	0	465	590
2	0	0	0	0	465	590
3	0	0	0	0	464	590
4	0	0	0	0	464	590
5	0	0	0	0	463	590
6	0	0	0	0	462	591
7	0	0	0	0	462	591
8	0	0	0	0	462	591
9	0	0	0	0	461	590
10	0	0	0	0	460	591
11	0	0	0	0	459	590
12	0	0	0	0	459	591
13	0	0	0	0	459	591
14	0	0	0	0	457	590
15	0	0	0	0	458	590
0	0	0	0	0	458	590
1	0	0	0	0	459	590
2	0	0	0	0	458	590
3	0	0	0	0	458	590
4	0	0	0	0	458	590
5	0	0	0	0	458	591
6	0	0	0	0	459	591
7	0	0	0	0	459	590
8	0	0	0	0	459	590
9	0	0	0	0	458	590
10	0	0	0	0	459	591
11	0	0	0	0	459	591
12	0	0	0	0	459	591
13	0	0	0	0	458	591
14	0	0	0	0	457	592
15	0	0	0	0	457	591
0	0	0	0	0	456	591
1	0	0	0	0	456	591
2	0	0	0	0	457	591
3	0	0	0	0	458	592
4	0	0	0	0	459	591
5	0	0	0	0	460	591
6	0	0	0	0	460	592
7	0	0	0	0	460	592
8	0	0	0	0	460	592
9	0	0	0	0	460	592
10	0	0	0	0	461	592
11	0	0	0	0	462	592
12	0	0	0	0	462	591
13	0	0	0	0	462	591
14	0	0	0	0	463	591
15	0	0	0	0	464	592
0	0	0	0	0	464	591
1	0	0	0	0	465	592
2	0	0	0	0	466	592
3	0	0	0	0	467	592
4	0	0	0	0	467	592
5	0	0	0	0	468	591
6	0	0	0	0	469	592
7	0	0	0	0	470	592
8	0	0	0	0	472	591
9	0	0	0	0	474	591
10	0	0	0	0	475	591
11	0	0	0	0	477	592
12	0	0	0	0	479	591
13	0	0	0	0	480	591
14	0	0	0	0	483	591
15	0	0	0	0	484	591
0	0	0	0	0	486	591
1	0	0	0	0	487	591
2	0	0	0	0	488	591
3	0	0	0	0	490	591
4	0	0	0	0	491	592
5	0	0	0	0	493	591
6	0	0	0	0	494	592
7	0	0	0	0	495	591
8	0	0	0	0	496	591
9	0	0	0	0	498	591
10	0	0	0	0	500	591
11	0	0	0	0	502	590
12	0	0	0	0	504	590
13	0	0	0	0	506	590
14	0	0	0	0	509	590
15	0	0	0	0	512	589
0	0	0	0	0	513	589
1	0	0	0	0	515	590
2	0	0	0	0	518	590
3	0	0	0	0	519	589
4	0	0	0	0	521	590
5	0	0	0	0	523	589
6	0	0	0	0	524	590
7	0	0	0	0	526	590
8	0	0	0	0	527	589
9	0	0	0	0	528	590
10	0	0	0	0	529	590
11	0	0	0	0	530	590
12	0	0	0	0	531	590
13	0	0	0	0	532	590
14	0	0	0	0	534	590
15	0	0	0	0	536	590
0	0	0	0	0	537	589
1	0	0	0	0	539	590
2	0	0	0	0	541	590
3	0	0	0	0	543	589
4	0	0	0	0	543	590
5	0	0	0	0	544	590
6	0	0	0	0	545	591
7	0	0	0	0	545	590
8	0	0	0	0	546	591
9	0	0	0	0	547	590
10	0	0	0	0	547	590
11	0	0	0	0	547	591
12	0	0	0	0	547	590
13	0	0	0	0	548	591
14	0	0	0	0	548	591
15	0	0	0	0	548	590
0	0	0	0	0	548	590
1	0	0	0	0	548	590
2	0	0	0	0	549	590
3	0	0	0	0	549	590
4	0	0	0	0	550	590
5	0	0	0	0	551	590
6	0	0	0	0	551	590
7	0	0	0	0	551	590
8	0	0	0	0	551	589
9	0	0	0	0	550	589
10	0	0	0	0	551	589
11	0	0	0	0	550	590
12	0	0	0	0	549	589
13	0	0	0	0	549	589
14	0	0	0	0	549	590
15	0	0	0	0	548	590
0	0	0	0	0	547	590
1	0	0	0	0	546	590
2	0	0	0	0	546	590
3	0	0	0	0	546	590
4	0	0	0	0	546	590
5	0	0	0	0	546	590
6	0	0	0	0	546	590
7	0	0	0	0	546	590
8	0	0	0	0	546	589
9	0	0	0	0	546	589
10	0	0	0	0	546	590
11	0	0	0	0	546	589
12	0	0	0	0	546	590
13	0	0	0	0	545	589
14	0	0	0	0	546	590
15	0	0	0	0	546	590
0	0	0	0	0	545	589
1	0	0	0	0	545	590
2	0	0	0	0	544	590
3	0	0	0	0	543	590
4	0	0	0	0	543	590
5	0	0	0	0	542	590
6	0	0	0	0	542	591
7	0	0	0	0	541	590
8	0	0	0	0	541	590
9	0	0	0	0	540	590
10	0	0	0	0	540	590
11	0	0	0	0	540	591
12	0	0	0	0	540	591
13	0	0	0	0	541	591
14	0	0	0	0	541	591
15	0	0	0	0	541	591
0	0	0	0	0	542	591
1	0	0	0	0	542	591
2	0	0	0	0	543	591
3	0	0	0	0	543	591
4	0	0	0	0	543	591
5	0	0	0	0	543	591
6	0	0	0	0	543	591
7	0	0	0	0	543	591
8	0	0	0	0	542	591
9	0	0	0	0	541	591
10	0	0	0	0	541	591
11	0	0	0	0	540	591
12	0	0	0	0	539	591
13	0	0	0	0	538	591
14	0	0	0	0	537	591
15	0	0	0	0	538	591
0	0	0	0	0	538	591
1	0	0	0	0	538	591
2	0	0	0	0	537	591
3	0	0	0	0	537	591
4	0	0	0	0	537	591
5	0	0	0	0	537	591
6	0	0	0	0	537	591
7	0	0	0	0	538	591
8	0	0	0	0	537	591
9	0	0	0	0	537	591
10	0	0	0	0	537	591
11	0	0	0	0	537	591
12	0	0	0	0	537	591
13	0	0	0	0	536	591
14	0	0	0	0	536	591
15	0	0	0	0	535	591
0	0	0	0	0	535	592
1	0	0	0	0	535	591
2	0	0	0	0	534	592
3	0	0	0	0	534	591
4	0	0	0	0	534	591
5	0	0	0	0	535	591
6	0	0	0	0	535	591
7	0	0	0	0	536	591
8	0	0	0	0	536	591
9	0	0	0	0	536	590
10	0	0	0	0	537	590
11	0	0	0	0	536	590
12	0	0	0	0	536	590
13	0	0	0	0	536	589
14	0	0	0	0	535	590
15	0	0	0	0	534	590
0	0	0	0	0	534	589
1	0	0	0	0	533	590
2	0	0	0	0	532	589
3	0	0	0	0	532	590
4	0	0	0	0	532	590
5	0	0	0	0	531	589
6	0	0	0	0	531	590
7	0	0	0	0	531	590
8	0	0	0	0	531	590
9	0	0	0	0	531	589
10	0	0	0	0	531	590
11	0	0	0	0	530	590
12	0	0	0	0	529	590
13	0	0	0	0	529	589
14	0	0	0	0	529	591
15	0	0	0	0	528	590
0	0	0	0	0	528	591
1	0	0	0	0	528	590
2	0	0	0	0	528	590
3	0	0	0	0	528	590
4	0	0	0	0	528	590
5	0	0	0	0	528	591
6	0	0	0	0	527	591
7	0	0	0	0	527	590
8	0	0	0	0	526	591
9	0	0	0	0	526	591
10	0	0	0	0	526	590
11	0	0	0	0	526	591
12	0	0	0	0	526	590
13	0	0	0	0	526	590
14	0	0	0	0	526	590
15	0	0	0	0	526	590
0	0	0	0	0	527	590
1	0	0	0	0	527	589
2	0	0	0	0	527	590
3	0	0	0	0	527	590
4	0	0	0	0	527	590
5	0	0	0	0	527	590
6	0	0	0	0	526	590
7	0	0	0	0	526	590
8	0	0	0	0	525	590
9	0	0	0	0	524	590
10	0	0	0	0	524	590
11	0	0	0	0	523	590
12	0	0	0	0	522	590
13	0	0	0	0	522	590
14	0	0	0	0	521	591
15	0	0	0	0	521	590
0	0	0	0	0	520	590
1	0	0	0	0	520	590
2	0	0	0	0	521	590
3	0	0	0	0	521	590
4	0	0	0	0	520	590
5	0	0	0	0	520	590
6	0	0	0	0	521	591
7	0	0	0	0	521	591
8	0	0	0	0	520	590
9	0	0	0	0	519	591
10	0	0	0	0	519	591
11	0	0	0	0	519	591
12	0	0	0	0	518	591
13	0	0	0	0	517	591
14	0	0	0	0	517	590
15	0	0	0	0	517	591
0	0	0	0	0	516	591
1	0	0	0	0	516	591
2	0	0	0	0	516	591
3	0	0	0	0	517	591
4	0	0	0	0	517	591
5	0	0	0	0	516	591
6	0	0	0	0	516	591
7	0	0	0	0	516	591
8	0	0	0	0	517	592
9	0	0	0	0	518	592
10	0	0	0	0	518	591
11	0	0	0	0	518	591
12	0	0	0	0	518	591
13	0	0	0	0	517	591
14	0	0	0	0	517	592
15	0	0	0	0	516	591
0	0	0	0	0	516	591
1	0	0	0	0	515	591
2	0	0	0	0	515	592
3	0	0	0	0	514	591
4	0	0	0	0	513	592
5	0	0	0	0	514	592
6	0	0	0	0	513	592
7	0	0	0	0	513	591
8	0	0	0	0	513	591
9	0	0	0	0	513	592
10	0	0	0	0	513	591
11	0	0	0	0	513	591
12	0	0	0	0	513	591
13	0	0	0	0	515	591
14	0	0	0	0	515	591
15	0	0	0	0	516	591
0	0	0	0	0	515	590
1	0	0	0	0	515	591
2	0	0	0	0	515	590
3	0	0	0	0	514	591
4	0	0	0	0	513	591
5	0	0	0	0	513	591
6	0	0	0	0	513	592
7	0	0	0	0	513	591
8	0	0	0	0	513	591
9	0	0	0	0	512	591
10	0	0	0	0	512	591
11	0	0	0	0	512	591
12	0	0	0	0	512	591
13	0	0	0	0	513	591
14	0	0	0	0	513	591
15	0	0	0	0	514	591
0	0	0	0	0	514	591
1	0	0	0	0	515	590
2	0	0	0	0	515	591
3	0	0	0	0	515	591
4	0	0	0	0	515	590
5	0	0	0	0	515	590
6	0	0	0	0	514	590
7	0	0	0	0	514	589
8	0	0	0	0	513	590
9	0	0	0	0	513	590
10	0	0	0	0	513	590
11	0	0	0	0	512	590
12	0	0	0	0	512	590
13	0	0	0	0	511	589
14	0	0	0	0	511	590
15	0	0	0	0	510	590
0	0	0	0	0	511	589
1	0	0	0	0	511	590
2	0	0	0	0	511	589
3	0	0	0	0	512	590
4	0	0	0	0	513	589
5	0	0	0	0	513	590
6	0	0	0	0	513	591
7	0	0	0	0	514	589
8	0	0	0	0	514	589
9	0	0	0	0	514	590
10	0	0	0	0	514	590
11	0	0	0	0	514	590
12	0	0	0	0	514	590
13	0	0	0	0	514	589
14	0	0	0	0	514	590
15	0	0	0	0	514	590
0	0	0	0	0	514	590
1	0	0	0	0	514	590
2	0	0	0	0	513	590
3	0	0	0	0	513	590
4	0	0	0	0	513	590
5	0	0	0	0	514	590
6	0	0	0	0	514	591
7	0	0	0	0	514	591
8	0	0	0	0	514	590
9	0	0	0	0	514	591
10	0	0	0	0	514	591
11	0	0	0	0	514	591
12	0	0	0	0	514	591
13	0	0	0	0	513	591
14	0	0	0	0	514	591
15	0	0	0	0	513	590
0	0	0	0	0	513	591
1	0	0	0	0	512	590
2	0	0	0	0	512	591
3	0	0	0	0	512	590
4	0	0	0	0	512	590
5	0	0	0	0	512	590
6	0	0	0	0	513	591
7	0	0	0	0	514	591
8	0	0	0	0	514	590
9	0	0	0	0	515	590
10	0	0	0	0	515	590
11	0	0	0	0	516	590
12	0	0	0	0	516	590
13	0	0	0	0	517	590
14	0	0	0	0	517	590
15	0	0	0	0	517	590
0	0	0	0	0	516	590
1	0	0	0	0	517	590
2	0	0	0	0	517	589
3	0	0	0	0	516	589
4	0	0	0	0	515	589
5	0	0	0	0	515	589
6	0	0	0	0	514	590
7	0	0	0	0	513	589
8	0	0	0	0	513	590
9	0	0	0	0	513	590
10	0	0	0	0	513	590
11	0	0	0	0	513	591
12	0	0	0	0	513	591
13	0	0	0	0	513	591
14	0	0	0	0	514	591
15	0	0	0	0	515	591
0	0	0	0	0	515	591
1	0	0	0	0	516	591
2	0	0	0	0	517	592
3	0	0	0	0	517	591
4	0	0	0	0	517	591
5	0	0	0	0	516	591
6	0	0	0	0	516	592
7	0	0	0	0	515	592
8	0	0	0	0	515	592
9	0	0	0	0	515	591
10	0	0	0	0	515	591
11	0	0	0	0	515	591
12	0	0	0	0	515	591
13	0	0	0	0	515	591
14	0	0	0	0	515	591
15	0	0	0	0	515	591
0	0	0	0	0	516	590
1	0	0	0	0	515	591
2	0	0	0	0	516	590
3	0	0	0	0	516	591
4	0	0	0	0	516	591
5	0	0	0	0	517	590
6	0	0	0	0	516	591
7	0	0	0	0	516	590
8	0	0	0	0	516	590
9	0	0	0	0	515	590
10	0	0	0	0	515	590
11	0	0	0	0	515	591
12	0	0	0	0	514	591
13	0	0	0	0	513	591
14	0	0	0	0	513	591
15	0	0	0	0	512	590
0	0	0	0	0	512	590
1	0	0	0	0	511	590
2	0	0	0	0	512	590
3	0	0	0	0	512	590
4	0	0	0	0	512	590
5	0	0	0	0	513	591
6	0	0	0	0	514	591
7	0	0	0	0	514	591
8	0	0	0	0	515	591
9	0	0	0	0	515	590
10	0	0	0	0	516	591
11	0	0	0	0	515	590
12	0	0	0	0	515	590
13	0	0	0	0	515	590
14	0	0	0	0	515	591
15	0	0	0	0	514	590
0	0	0	0	0	514	590
1	0	0	0	0	513	590
2	0	0	0	0	514	591
3	0	0	0	0	513	590
4	0	0	0	0	512	591
5	0	0	0	0	512	591
6	0	0	0	0	512	591
7	0	0	0	0	512	590
8	0	0	0	0	512	590
9	0	0	0	0	512	591
10	0	0	0	0	513	591
11	0	0	0	0	513	590
12	0	0	0	0	513	590
13	0	0	0	0	512	591
14	0	0	0	0	512	591
15	0	0	0	0	512	591
0	0	0	0	0	511	590
1	0	0	0	0	510	590
2	0	0	0	0	510	591
3	0	0	0	0	510	591
4	0	0	0	0	510	591
5	0	0	0	0	510	591
6	0	0	0	0	509	591
7	0	0	0	0	510	591
8	0	0	0	0	510	591
9	0	0	0	0	510	591
10	0	0	0	0	511	591
11	0	0	0	0	511	591
12	0	0	0	0	511	590
13	0	0	0	0	512	590
14	0	0	0	0	513	590
15	0	0	0	0	514	590
0	0	0	0	0	514	590
1	0	0	0	0	514	589
2	0	0	0	0	515	590
3	0	0	0	0	514	590
4	0	0	0	0	514	590
5	0	0	0	0	514	590
6	0	0	0	0	514	590
7	0	0	0	0	514	590
8	0	0	0	0	513	591
9	0	0	0	0	513	590
10	0	0	0	0	512	591
11	0	0	0	0	512	590
12	0	0	0	0	511	591
13	0	0	0	0	511	591
14	0	0	0	0	511	591
15	0	0	0	0	511	590
0	0	0	0	0	511	590
1	0	0	0	0	511	590
2	0	0	0	0	511	590
3	0	0	0	0	512	591
4	0	0	0	0	513	591
5	0	0	0	0	515	590
6	0	0	0	0	516	591
7	0	0	0	0	516	590
8	0	0	0	0	516	590
9	0	0	0	0	516	589
10	0	0	0	0	517	589
11	0	0	0	0	518	590
12	0	0	0	0	518	589
13	0	0	0	0	518	589
14	0	0	0	0	518	590
15	0	0	0	0	518	590
0	0	0	0	0	518	590
1	0	0	0	0	518	590
2	0	0	0	0	518	590
3	0	0	0	0	519	590
4	0	0	0	0	519	590
5	0	0	0	0	519	590
6	0	0	0	0	520	591
7	0	0	0	0	521	590
8	0	0	0	0	522	590
9	0	0	0	0	523	590
10	0	0	0	0	524	591
11	0	0	0	0	524	590
12	0	0	0	0	524	591
13	0	0	0	0	525	590
14	0	0	0	0	524	590
15	0	0	0	0	525	591
0	0	0	0	0	524	590
1	0	0	0	0	524	590
2	0	0	0	0	524	591
3	0	0	0	0	524	591
4	0	0	0	0	525	591
5	0	0	0	0	524	591
6	0	0	0	0	524	591
7	0	0	0	0	524	591
8	0	0	0	0	523	590
9	0	0	0	0	522	591
10	0	0	0	0	522	591
11	0	0	0	0	522	591
12	0	0	0	0	521	591
13	0	0	0	0	521	591
14	0	0	0	0	521	591
15	0	0	0	0	520	590
0	0	0	0	0	519	590
1	0	0	0	0	519	591
2	0	0	0	0	518	590
3	0	0	0	0	517	591
4	0	0	0	0	516	590
5	0	0	0	0	515	590
6	0	0	0	0	515	591
7	0	0	0	0	514	591
8	0	0	0	0	514	591
9	0	0	0	0	513	591
10	0	0	0	0	513	592
11	0	0	0	0	513	591
12	0	0	0	0	513	592
13	0	0	0	0	513	592
14	0	0	0	0	513	592
15	0	0	0	0	513	592
0	0	0	0	0	514	592
1	0	0	0	0	514	592
2	0	0	0	0	514	593
3	0	0	0	0	514	592
4	0	0	0	0	513	593
5	0	0	0	0	512	592
6	0	0	0	0	512	592
7	0	0	0	0	511	591
8	0	0	0	0	511	591
9	0	0	0	0	511	591
10	0	0	0	0	510	591
11	0	0	0	0	510	591
12	0	0	0	0	511	591
13	0	0	0	0	511	591
14	0	0	0	0	510	591
15	0	0	0	0	510	591
0	0	0	0	0	511	591
1	0	0	0	0	512	591
2	0	0	0	0	512	591
3	0	0	0	0	512	591
4	0	0	0	0	512	591
5	0	0	0	0	512	590
6	0	0	0	0	512	591
7	0	0	0	0	512	590
8	0	0	0	0	512	591
9	0	0	0	0	511	591
10	0	0	0	0	510	591
11	0	0	0	0	509	591
12	0	0	0	0	508	591
13	0	0	0	0	508	591
14	0	0	0	0	508	591
15	0	0	0	0	507	591
0	0	0	0	0	507	591
1	0	0	0	0	507	590
2	0	0	0	0	506	591
3	0	0	0	0	507	591
4	0	0	0	0	506	590
5	0	0	0	0	506	590
6	0	0	0	0	507	590
7	0	0	0	0	507	590
8	0	0	0	0	507	590
9	0	0	0	0	507	590
10	0	0	0	0	507	590
11	0	0	0	0	508	590
12	0	0	0	0	508	590
13	0	0	0	0	508	589
14	0	0	0	0	507	590
15	0	0	0	0	507	590
0	0	0	0	0	507	590
1	0	0	0	0	507	590
2	0	0	0	0	506	590
3	0	0	0	0	506	590
4	0	0	0	0	506	590
5	0	0	0	0	506	589
6	0	0	0	0	506	590
7	0	0	0	0	507	590
8	0	0	0	0	507	590
9	0	0	0	0	508	590
10	0	0	0	0	508	590
11	0	0	0	0	509	590
12	0	0	0	0	508	590
13	0	0	0	0	508	590
14	0	0	0	0	509	590
15	0	0	0	0	509	590
0	0	0	0	0	508	589
1	0	0	0	0	507	589
2	0	0	0	0	506	589
3	0	0	0	0	505	589
4	0	0	0	0	504	589
5	0	0	0	0	503	590
6	0	0	0	0	501	590
7	0	0	0	0	500	590
8	0	0	0	0	498	589
9	0	0	0	0	497	590
10	0	0	0	0	496	590
11	0	0	0	0	494	589
12	0	0	0	0	492	589
13	0	0	0	0	489	589
14	0	0	0	0	487	590
15	0	0	0	0	483	590
0	0	0	0	0	481	589
1	0	0	0	0	478	589
2	0	0	0	0	475	589
3	0	0	0	0	472	589
4	0	0	0	0	469	589
5	0	0	0	0	466	589
6	0	0	0	0	463	589
7	0	0	0	0	460	590
8	0	0	0	0	457	590
9	0	0	0	0	455	590
10	0	0	0	0	454	590
11	0	0	0	0	452	589
12	0	0	0	0	451	589
13	0	0	0	0	449	589
14	0	0	0	0	448	591
15	0	0	0	0	448	590
0	0	0	0	0	449	590
1	0	0	0	0	451	590
2	0	0	0	0	453	590
3	0	0	0	0	457	590
4	0	0	0	0	461	590
5	0	0	0	0	464	590
6	0	0	0	0	469	591
7	0	0	0	0	475	590
8	0	0	0	0	483	590
9	0	0	0	0	491	591
10	0	0	0	0	502	590
11	0	0	0	0	515	591
12	0	0	0	0	531	591
13	0	0	0	0	550	591
14	0	0	0	0	566	592
15	0	0	0	0	578	592
0	0	0	0	0	589	592
1	0	0	0	0	598	591
2	0	0	0	0	605	592
3	0	0	0	0	612	592
4	0	0	0	0	623	592
5	0	0	0	0	638	592
6	0	0	0	0	656	593
7	0	0	0	0	674	592
8	0	0	0	0	691	592
9	0	0	0	0	708	592
10	0	0	0	0	725	592
11	0	0	0	0	738	591
12	0	0	0	0	749	592
13	0	0	0	0	754	592
14	0	0	0	0	753	591
15	0	0	0	0	748	590
0	0	0	0	0	740	591
1	0	0	0	0	730	590
2	0	0	0	0	720	591
3	0	0	0	0	709	590
4	0	0	0	0	698	590
5	0	0	0	0	687	590
6	0	0	0	0	675	590
7	0	0	0	0	664	590
8	0	0	0	0	652	590
9	0	0	0	0	639	591
10	0	0	0	0	628	591
11	0	0	0	0	616	590
12	0	0	0	0	604	591
13	0	0	0	0	593	591
14	0	0	0	0	583	591
15	0	0	0	0	575	590
0	0	0	0	0	565	591
1	0	0	0	0	555	591
2	0	0	0	0	545	591
3	0	0	0	0	536	592
4	0	0	0	0	526	591
5	0	0	0	0	516	592
6	0	0	0	0	508	592
7	0	0	0	0	500	591
8	0	0	0	0	493	591
9	0	0	0	0	486	591
10	0	0	0	0	480	592
11	0	0	0	0	473	592
12	0	0	0	0	468	591
13	0	0	0	0	463	591
14	0	0	0	0	458	591
15	0	0	0	0	454	591
0	0	0	0	0	450	591
1	0	0	0	0	448	590
2	0	0	0	0	447	591
3	0	0	0	0	445	591
4	0	0	0	0	444	590
5	0	0	0	0	443	590
6	0	0	0	0	441	590
7	0	0	0	0	441	590
8	0	0	0	0	440	590
9	0	0	0	0	440	589
10	0	0	0	0	440	589
11	0	0	0	0	440	589
12	0	0	0	0	439	590
13	0	0	0	0	439	590
14	0	0	0	0	438	590
15	0	0	0	0	438	590
0	0	0	0	0	439	590
1	0	0	0	0	439	590
2	0	0	0	0	440	590
3	0	0	0	0	441	589
4	0	0	0	0	441	590
5	0	0	0	0	442	589
6	0	0	0	0	443	590
7	0	0	0	0	443	588
8	0	0	0	0	443	589
9	0	0	0	0	444	589
10	0	0	0	0	444	589
11	0	0	0	0	444	589
12	0	0	0	0	444	589
13	0	0	0	0	444	589
14	0	0	0	0	444	589
15	0	0	0	0	444	589
0	0	0	0	0	444	588
1	0	0	0	0	444	589
2	0	0	0	0	444	589
3	0	0	0	0	445	589
4	0	0	0	0	445	589
5	0	0	0	0	446	590
6	0	0	0	0	447	590
7	0	0	0	0	448	590
8	0	0	0	0	449	589
9	0	0	0	0	451	589
10	0	0	0	0	451	590
11	0	0	0	0	452	590
12	0	0	0	0	453	590
13	0	0	0	0	453	590
14	0	0	0	0	453	590
15	0	0	0	0	453	590
0	0	0	0	0	453	590
1	0	0	0	0	452	590
2	0	0	0	0	452	591
3	0	0	0	0	452	590
4	0	0	0	0	453	591
5	0	0	0	0	454	590
6	0	0	0	0	454	590
7	0	0	0	0	454	590
8	0	0	0	0	454	590
9	0	0	0	0	455	590
10	0	0	0	0	455	590
11	0	0	0	0	456	590
12	0	0	0	0	457	591
13	0	0	0	0	458	590
14	0	0	0	0	459	590
15	0	0	0	0	460	590
0	0	0	0	0	459	590
1	0	0	0	0	460	590
2	0	0	0	0	460	590
3	0	0	0	0	460	590
4	0	0	0	0	460	590
5	0	0	0	0	460	590
6	0	0	0	0	459	591
7	0	0	0	0	458	590
8	0	0	0	0	459	591
9	0	0	0	0	459	591
10	0	0	0	0	459	591
11	0	0	0	0	458	591
12	0	0	0	0	458	590
13	0	0	0	0	458	591
14	0	0	0	0	459	591
15	0	0	0	0	459	591
0	0	0	0	0	460	591
1	0	0	0	0	460	591
2	0	0	0	0	460	592
3	0	0	0	0	459	592
4	0	0	0	0	460	591
5	0	0	0	0	460	591
6	0	0	0	0	460	591
7	0	0	0	0	460	592
8	0	0	0	0	459	592
9	0	0	0	0	459	591
10	0	0	0	0	459	591
11	0	0	0	0	459	591
12	0	0	0	0	458	591
13	0	0	0	0	457	590
14	0	0	0	0	457	591
15	0	0	0	0	458	591
0	0	0	0	0	457	591
1	0	0	0	0	458	590
2	0	0	0	0	457	591
3	0	0	0	0	457	590
4	0	0	0	0	457	590
5	0	0	0	0	458	590
6	0	0	0	0	458	591
7	0	0	0	0	457	590
8	0	0	0	0	458	591
9	0	0	0	0	457	591
10	0	0	0	0	458	591
11	0	0	0	0	457	591
12	0	0	0	0	457	590
13	0	0	0	0	457	590
14	0	0	0	0	457	591
15	0	0	0	0	456	590
0	0	0	0	0	455	591
1	0	0	0	0	455	591
2	0	0	0	0	455	591
3	0	0	0	0	455	591
4	0	0	0	0	455	591
5	0	0	0	0	454	591
6	0	0	0	0	455	591
7	0	0	0	0	455	591
8	0	0	0	0	456	591
9	0	0	0	0	456	591
10	0	0	0	0	455	591
11	0	0	0	0	456	590
12	0	0	0	0	455	591
13	0	0	0	0	455	591
14	0	0	0	0	454	590
15	0	0	0	0	454	591
0	0	0	0	0	454	591
1	0	0	0	0	455	591
2	0	0	0	0	455	591
3	0	0	0	0	455	590
4	0	0	0	0	455	591
5	0	0	0	0	455	591
6	0	0	0	0	455	591
7	0	0	0	0	455	591
8	0	0	0	0	456	591
9	0	0	0	0	456	591
10	0	0	0	0	456	591
11	0	0	0	0	456	591
12	0	0	0	0	457	591
13	0	0	0	0	457	591
14	0	0	0	0	457	591
15	0	0	0	0	458	590
0	0	0	0	0	458	590
1	0	0	0	0	459	590
2	0	0	0	0	460	590
3	0	0	0	0	460	590
4	0	0	0	0	460	590
5	0	0	0	0	461	590
6	0	0	0	0	461	590
7	0	0	0	0	461	590
8	0	0	0	0	461	590
9	0	0	0	0	461	590
10	0	0	0	0	462	590
11	0	0	0	0	463	590
12	0	0	0	0	463	591
13	0	0	0	0	463	591
14	0	0	0	0	465	591
15	0	0	0	0	467	591
0	0	0	0	0	468	591
1	0	0	0	0	468	591
2	0	0	0	0	469	591
3	0	0	0	0	470	591
4	0	0	0	0	471	589
5	0	0	0	0	473	590
6	0	0	0	0	475	589
7	0	0	0	0	476	590
8	0	0	0	0	476	589
9	0	0	0	0	478	590
10	0	0	0	0	480	590
11	0	0	0	0	481	589
12	0	0	0	0	482	589
13	0	0	0	0	483	589
14	0	0	0	0	484	589
15	0	0	0	0	486	589
0	0	0	0	0	487	589
1	0	0	0	0	489	590
2	0	0	0	0	491	590
3	0	0	0	0	493	589
4	0	0	0	0	496	589
5	0	0	0	0	498	589
6	0	0	0	0	500	589
7	0	0	0	0	503	589
8	0	0	0	0	505	589
9	0	0	0	0	507	589
10	0	0	0	0	508	589
11	0	0	0	0	510	590
12	0	0	0	0	511	589
13	0	0	0	0	512	589
14	0	0	0	0	513	590
15	0	0	0	0	515	589
0	0	0	0	0	516	590
1	0	0	0	0	519	589
2	0	0	0	0	522	590
3	0	0	0	0	525	590
4	0	0	0	0	527	589
5	0	0	0	0	529	590
6	0	0	0	0	530	591
7	0	0	0	0	533	590
8	0	0	0	0	535	590
9	0	0	0	0	536	589
10	0	0	0	0	537	590
11	0	0	0	0	539	590
12	0	0	0	0	540	590
13	0	0	0	0	542	590
14	0	0	0	0	543	591
15	0	0	0	0	544	590
0	0	0	0	0	546	590
1	0	0	0	0	547	591
2	0	0	0	0	547	590
3	0	0	0	0	547	591
4	0	0	0	0	548	591
5	0	0	0	0	548	591
6	0	0	0	0	550	591
7	0	0	0	0	550	591
8	0	0	0	0	551	590
9	0	0	0	0	552	591
10	0	0	0	0	553	591
11	0	0	0	0	554	592
12	0	0	0	0	555	591
13	0	0	0	0	556	592
14	0	0	0	0	557	592
15	0	0	0	0	558	593
0	0	0	0	0	558	592
1	0	0	0	0	558	592
2	0	0	0	0	558	592
3	0	0	0	0	557	592
4	0	0	0	0	557	592
5	0	0	0	0	556	591
6	0	0	0	0	556	591
7	0	0	0	0	555	591
8	0	0	0	0	556	591
9	0	0	0	0	556	591
10	0	0	0	0	555	591
11	0	0	0	0	556	591
12	0	0	0	0	556	591
13	0	0	0	0	557	590
14	0	0	0	0	557	591
15	0	0	0	0	558	591
0	0	0	0	0	557	590
1	0	0	0	0	558	590
2	0	0	0	0	557	591
3	0	0	0	0	557	590
4	0	0	0	0	557	590
5	0	0	0	0	556	590
6	0	0	0	0	555	591
7	0	0	0	0	554	590
8	0	0	0	0	554	590
9	0	0	0	0	554	590
10	0	0	0	0	554	590
11	0	0	0	0	554	590
12	0	0	0	0	553	591
13	0	0	0	0	553	590
14	0	0	0	0	551	591
15	0	0	0	0	551	590
0	0	0	0	0	551	590
1	0	0	0	0	550	590
2	0	0	0	0	550	590
3	0	0	0	0	550	590
4	0	0	0	0	550	590
5	0	0	0	0	550	590
6	0	0	0	0	550	590
7	0	0	0	0	550	590
8	0	0	0	0	549	590
9	0	0	0	0	549	590
10	0	0	0	0	548	589
11	0	0	0	0	547	589
12	0	0	0	0	547	589
13	0	0	0	0	546	589
14	0	0	0	0	545	589
15	0	0	0	0	544	588
0	0	0	0	0	543	589
1	0	0	0	0	542	589
2	0	0	0	0	542	589
3	0	0	0	0	542	590
4	0	0	0	0	541	589
5	0	0	0	0	541	589
6	0	0	0	0	541	590
7	0	0	0	0	541	589
8	0	0	0	0	541	589
9	0	0	0	0	540	590
10	0	0	0	0	540	590
11	0	0	0	0	540	590
12	0	0	0	0	539	590
13	0	0	0	0	539	590
14	0	0	0	0	538	590
15	0	0	0	0	537	590
0	0	0	0	0	536	589
1	0	0	0	0	536	590
2	0	0	0	0	535	590
3	0	0	0	0	535	590
4	0	0	0	0	535	591
5	0	0	0	0	534	589
6	0	0	0	0	533	590
7	0	0	0	0	534	590
8	0	0	0	0	533	590
9	0	0	0	0	533	591
10	0	0	0	0	532	590
11	0	0	0	0	532	591
12	0	0	0	0	532	590
13	0	0	0	0	533	590
14	0	0	0	0	533	591
15	0	0	0	0	533	590
0	0	0	0	0	533	590
1	0	0	0	0	533	590
2	0	0	0	0	532	590
3	0	0	0	0	531	590
4	0	0	0	0	531	590
5	0	0	0	0	530	590
6	0	0	0	0	529	590
7	0	0	0	0	528	589
8	0	0	0	0	527	589
9	0	0	0	0	527	589
10	0	0	0	0	526	589
11	0	0	0	0	526	589
12	0	0	0	0	526	589
13	0	0	0	0	526	589
14	0	0	0	0	526	590
15	0	0	0	0	526	588
0	0	0	0	0	525	589
1	0	0	0	0	525	589
2	0	0	0	0	525	590
3	0	0	0	0	524	590
4	0	0	0	0	524	589
5	0	0	0	0	524	589
6	0	0	0	0	524	590
7	0	0	0	0	523	590
8	0	0	0	0	523	589
9	0	0	0	0	522	589
10	0	0	0	0	521	589
11	0	0	0	0	520	590
12	0	0	0	0	520	590
13	0	0	0	0	521	590
14	0	0	0	0	520	590
15	0	0	0	0	521	590
0	0	0	0	0	520	589
1	0	0	0	0	522	590
2	0	0	0	0	522	590
3	0	0	0	0	523	590
4	0	0	0	0	523	590
5	0	0	0	0	524	590
6	0	0	0	0	524	590
7	0	0	0	0	524	590
8	0	0	0	0	524	590
9	0	0	0	0	524	590
10	0	0	0	0	523	590
11	0	0	0	0	523	591
12	0	0	0	0	522	591
13	0	0	0	0	522	591
14	0	0	0	0	521	591
15	0	0	0	0	521	591
0	0	0	0	0	521	591
1	0	0	0	0	520	591
2	0	0	0	0	520	591
3	0	0	0	0	520	591
4	0	0	0	0	521	591
5	0	0	0	0	521	592
6	0	0	0	0	521	592
7	0	0	0	0	522	591
8	0	0	0	0	522	592
9	0	0	0	0	521	591
10	0	0	0	0	521	591
11	0	0	0	0	521	591
12	0	0	0	0	521	591
13	0	0	0	0	520	590
14	0	0	0	0	520	590
15	0	0	0	0	519	590
0	0	0	0	0	519	590
1	0	0	0	0	519	589
2	0	0	0	0	519	590
3	0	0	0	0	519	590
4	0	0	0	0	519	590
5	0	0	0	0	519	589
6	0	0	0	0	518	589
7	0	0	0	0	519	589
8	0	0	0	0	519	589
9	0	0	0	0	520	589
10	0	0	0	0	521	589
11	0	0	0	0	521	589
12	0	0	0	0	521	589
13	0	0	0	0	521	589
14	0	0	0	0	521	590
15	0	0	0	0	521	590
0	0	0	0	0	521	590
1	0	0	0	0	520	590
2	0	0	0	0	520	591
3	0	0	0	0	520	591
4	0	0	0	0	520	591
5	0	0	0	0	520	591
6	0	0	0	0	519	591
7	0	0	0	0	519	591
8	0	0	0	0	519	591
9	0	0	0	0	518	591
10	0	0	0	0	518	591
11	0	0	0	0	517	590
12	0	0	0	0	518	591
13	0	0	0	0	518	591
14	0	0	0	0	518	591
15	0	0	0	0	518	591
0	0	0	0	0	518	591
1	0	0	0	0	519	591
2	0	0	0	0	519	591
3	0	0	0	0	519	591
4	0	0	0	0	519	591
5	0	0	0	0	519	591
6	0	0	0	0	519	591
7	0	0	0	0	519	591
8	0	0	0	0	518	591
9	0	0	0	0	517	591
10	0	0	0	0	517	591
11	0	0	0	0	516	591
12	0	0	0	0	516	591
13	0	0	0	0	516	591
14	0	0	0	0	516	591
15	0	0	0	0	516	591
0	0	0	0	0	515	591
1	0	0	0	0	516	592
2	0	0	0	0	516	592
3	0	0	0	0	516	591
4	0	0	0	0	517	591
5	0	0	0	0	517	591
6	0	0	0	0	518	591
7	0	0	0	0	518	591
8	0	0	0	0	518	591
9	0	0	0	0	518	591
10	0	0	0	0	518	591
11	0	0	0	0	517	591
12	0	0	0	0	516	591
13	0	0	0	0	515	591
14	0	0	0	0	515	591
15	0	0	0	0	514	591
0	0	0	0	0	514	591
1	0	0	0	0	513	590
2	0	0	0	0	513	590
3	0	0	0	0	513	590
4	0	0	0	0	513	590
5	0	0	0	0	513	590
6	0	0	0	0	513	590
7	0	0	0	0	514	590
8	0	0	0	0	514	590
9	0	0	0	0	514	590
10	0	0	0	0	514	589
11	0	0	0	0	514	589
12	0	0	0	0	515	589
13	0	0	0	0	515	588
14	0	0	0	0	514	589
15	0	0	0	0	514	588
0	0	0	0	0	513	589
1	0	0	0	0	513	589
2	0	0	0	0	513	589
3	0	0	0	0	513	588
4	0	0	0	0	512	589
5	0	0	0	0	512	588
6	0	0	0	0	512	589
7	0	0	0	0	513	588
8	0	0	0	0	513	588
9	0	0	0	0	514	588
10	0	0	0	0	514	588
11	0	0	0	0	514	588
12	0	0	0	0	515	588
13	0	0	0	0	515	588
14	0	0	0	0	516	588
15	0	0	0	0	516	588
0	0	0	0	0	516	588
1	0	0	0	0	516	588
2	0	0	0	0	516	588
3	0	0	0	0	516	588
4	0	0	0	0	516	588
5	0	0	0	0	515	588
6	0	0	0	0	515	588
7	0	0	0	0	515	588
8	0	0	0	0	515	588
9	0	0	0	0	515	588
10	0	0	0	0	514	588
11	0	0	0	0	515	588
12	0	0	0	0	515	588
13	0	0	0	0	515	588
14	0	0	0	0	515	588
15	0	0	0	0	515	589
0	0	0	0	0	516	589
1	0	0	0	0	516	590
2	0	0	0	0	516	590
3	0	0	0	0	516	590
4	0	0	0	0	517	589
5	0	0	0	0	517	590
6	0	0	0	0	516	590
7	0	0	0	0	516	590
8	0	0	0	0	516	590
9	0	0	0	0	515	590
10	0	0	0	0	515	591
11	0	0	0	0	514	590
12	0	0	0	0	514	591
13	0	0	0	0	514	591
14	0	0	0	0	514	591
15	0	0	0	0	514	591
0	0	0	0	0	515	590
1	0	0	0	0	514	591
2	0	0	0	0	515	591
3	0	0	0	0	514	591
4	0	0	0	0	515	591
5	0	0	0	0	515	591
6	0	0	0	0	515	592
7	0	0	0	0	515	591
8	0	0	0	0	515	591
9	0	0	0	0	515	591
10	0	0	0	0	514	591
11	0	0	0	0	513	592
12	0	0	0	0	514	591
13	0	0	0	0	513	591
14	0	0	0	0	513	592
15	0	0	0	0	512	591
0	0	0	0	0	512	591
1	0	0	0	0	511	591
2	0	0	0	0	511	592
3	0	0	0	0	511	591
4	0	0	0	0	511	591
5	0	0	0	0	511	591
6	0	0	0	0	511	591
7	0	0	0	0	511	591
8	0	0	0	0	511	591
9	0	0	0	0	511	591
10	0	0	0	0	510	591
11	0	0	0	0	510	591
12	0	0	0	0	510	591
13	0	0	0	0	510	591
14	0	0	0	0	510	591
15	0	0	0	0	509	590
0	0	0	0	0	508	591
1	0	0	0	0	508	590
2	0	0	0	0	507	589
3	0	0	0	0	507	590
4	0	0	0	0	507	590
5	0	0	0	0	508	589
6	0	0	0	0	507	589
7	0	0	0	0	507	588
8	0	0	0	0	508	589
9	0	0	0	0	508	589
10	0	0	0	0	508	588
11	0	0	0	0	509	589
12	0	0	0	0	510	589
13	0	0	0	0	509	589
14	0	0	0	0	510	590
15	0	0	0	0	509	589
0	0	0	0	0	509	590
1	0	0	0	0	509	590
2	0	0	0	0	509	590
3	0	0	0	0	509	590
4	0	0	0	0	508	590
5	0	0	0	0	508	591
6	0	0	0	0	508	591
7	0	0	0	0	508	591
8	0	0	0	0	508	591
9	0	0	0	0	508	591
10	0	0	0	0	509	591
11	0	0	0	0	509	591
12	0	0	0	0	510	591
13	0	0	0	0	509	591
14	0	0	0	0	510	592
15	0	0	0	0	510	591
0	0	0	0	0	510	591
1	0	0	0	0	510	591
2	0	0	0	0	510	590
3	0	0	0	0	510	590
4	0	0	0	0	510	591
5	0	0	0	0	511	590
6	0	0	0	0	510	590
7	0	0	0	0	510	591
8	0	0	0	0	510	590
9	0	0	0	0	510	590
10	0	0	0	0	510	591
11	0	0	0	0	510	590
12	0	0	0	0	509	591
13	0	0	0	0	510	590
14	0	0	0	0	509	591
15	0	0	0	0	509	590
0	0	0	0	0	510	589
1	0	0	0	0	510	591
2	0	0	0	0	510	590
3	0	0	0	0	511	590
4	0	0	0	0	511	590
5	0	0	0	0	511	590
6	0	0	0	0	512	590
7	0	0	0	0	512	590
8	0	0	0	0	511	590
9	0	0	0	0	510	590
10	0	0	0	0	510	589
11	0	0	0	0	510	590
12	0	0	0	0	510	589
13	0	0	0	0	509	589
14	0	0	0	0	509	589
15	0	0	0	0	508	589
0	0	0	0	0	508	588
1	0	0	0	0	507	588
2	0	0	0	0	507	588
3	0	0	0	0	507	589
4	0	0	0	0	508	588
5	0	0	0	0	508	588
6	0	0	0	0	508	589
7	0	0	0	0	508	589
8	0	0	0	0	508	589
9	0	0	0	0	508	589
10	0	0	0	0	508	589
11	0	0	0	0	509	588
12	0	0	0	0	508	588
13	0	0	0	0	508	590
14	0	0	0	0	507	590
15	0	0	0	0	507	590
0	0	0	0	0	507	590
1	0	0	0	0	505	590
2	0	0	0	0	505	590
3	0	0	0	0	505	590
4	0	0	0	0	505	590
5	0	0	0	0	504	590
6	0	0	0	0	504	590
7	0	0	0	0	504	591
8	0	0	0	0	504	590
9	0	0	0	0	504	590
10	0	0	0	0	505	590
11	0	0	0	0	507	590
12	0	0	0	0	508	590
13	0	0	0	0	509	590
14	0	0	0	0	510	590
15	0	0	0	0	511	589
0	0	0	0	0	512	589
1	0	0	0	0	513	590
2	0	0	0	0	513	590
3	0	0	0	0	513	590
4	0	0	0	0	512	590
5	0	0	0	0	512	590
6	0	0	0	0	513	590
7	0	0	0	0	512	591
8	0	0	0	0	512	590
9	0	0	0	0	512	590
10	0	0	0	0	513	591
11	0	0	0	0	513	590
12	0	0	0	0	513	591
13	0	0	0	0	514	591
14	0	0	0	0	515	591
15	0	0	0	0	516	591
0	0	0	0	0	516	591
1	0	0	0	0	517	591
2	0	0	0	0	517	591
3	0	0	0	0	517	591
4	0	0	0	0	517	590
5	0	0	0	0	517	591
6	0	0	0	0	517	591
7	0	0	0	0	517	591
8	0	0	0	0	518	591
9	0	0	0	0	517	591
10	0	0	0	0	517	591
11	0	0	0	0	517	591
12	0	0	0	0	516	591
13	0	0	0	0	515	590
14	0	0	0	0	515	591
15	0	0	0	0	515	590
0	0	0	0	0	514	590
1	0	0	0	0	515	590
2	0	0	0	0	515	590
3	0	0	0	0	515	590
4	0	0	0	0	515	590
5	0	0	0	0	515	590
6	0	0	0	0	514	591
7	0	0	0	0	513	591
8	0	0	0	0	512	591
9	0	0	0	0	512	591
10	0	0	0	0	511	591
11	0	0	0	0	510	591
12	0	0	0	0	509	591
13	0	0	0	0	508	591
14	0	0	0	0	508	591
15	0	0	0	0	507	591
0	0	0	0	0	507	592
1	0	0	0	0	507	591
2	0	0	0	0	506	592
3	0	0	0	0	506	591
4	0	0	0	0	507	592
5	0	0	0	0	506	592
6	0	0	0	0	506	592
7	0	0	0	0	506	592
8	0	0	0	0	506	592
9	0	0	0	0	506	592
10	0	0	0	0	506	592
11	0	0	0	0	507	592
12	0	0	0	0	507	592
13	0	0	0	0	507	592
14	0	0	0	0	507	591
15	0	0	0	0	507	591
0	0	0	0	0	506	592
1	0	0	0	0	506	591
2	0	0	0	0	506	591
3	0	0	0	0	505	591
4	0	0	0	0	505	591
5	0	0	0	0	504	590
6	0	0	0	0	505	592
7	0	0	0	0	504	591
8	0	0	0	0	505	591
9	0	0	0	0	505	591
10	0	0	0	0	507	591
11	0	0	0	0	508	591
12	0	0	0	0	508	591
13	0	0	0	0	508	591
14	0	0	0	0	508	592
15	0	0	0	0	507	590
0	0	0	0	0	507	591
1	0	0	0	0	506	591
2	0	0	0	0	507	590
3	0	0	0	0	506	591
4	0	0	0	0	506	590
5	0	0	0	0	505	590
6	0	0	0	0	505	591
7	0	0	0	0	504	590
8	0	0	0	0	504	590
9	0	0	0	0	504	590
10	0	0	0	0	504	590
11	0	0	0	0	504	590
12	0	0	0	0	504	590
13	0	0	0	0	504	589
14	0	0	0	0	504	589
15	0	0	0	0	505	589
0	0	0	0	0	505	588
1	0	0	0	0	505	588
2	0	0	0	0	506	588
3	0	0	0	0	506	588
4	0	0	0	0	506	588
5	0	0	0	0	506	588
6	0	0	0	0	506	589
7	0	0	0	0	506	589
8	0	0	0	0	506	588
9	0	0	0	0	506	589
10	0	0	0	0	506	590
11	0	0	0	0	506	589
12	0	0	0	0	506	589
13	0	0	0	0	507	589
14	0	0	0	0	507	590
15	0	0	0	0	508	590
0	0	0	0	0	508	590
1	0	0	0	0	508	590
2	0	0	0	0	509	590
3	0	0	0	0	510	590
4	0	0	0	0	511	591
5	0	0	0	0	511	590
6	0	0	0	0	512	591
7	0	0	0	0	512	590
8	0	0	0	0	512	590
9	0	0	0	0	512	591
10	0	0	0	0	512	590
11	0	0	0	0	511	591
12	0	0	0	0	510	590
13	0	0	0	0	509	590
14	0	0	0	0	508	590
15	0	0	0	0	506	590
0	0	0	0	0	505	590
1	0	0	0	0	503	590
2	0	0	0	0	501	590
3	0	0	0	0	498	590
4	0	0	0	0	496	590
5	0	0	0	0	494	590
6	0	0	0	0	491	590
7	0	0	0	0	487	590
8	0	0	0	0	484	590
9	0	0	0	0	482	589
10	0	0	0	0	479	590
11	0	0	0	0	477	589
12	0	0	0	0	474	589
13	0	0	0	0	471	590
14	0	0	0	0	468	590
15	0	0	0	0	465	589
0	0	0	0	0	463	590
1	0	0	0	0	462	590
2	0	0	0	0	459	590
3	0	0	0	0	457	590
4	0	0	0	0	456	590
5	0	0	0	0	455	591
6	0	0	0	0	455	591
7	0	0	0	0	456	591
8	0	0	0	0	458	591
9	0	0	0	0	462	591
10	0	0	0	0	466	592
11	0	0	0	0	469	591
12	0	0	0	0	475	591
13	0	0	0	0	481	591
14	0	0	0	0	490	591
15	0	0	0	0	500	591
0	0	0	0	0	512	590
1	0	0	0	0	526	591
2	0	0	0	0	543	590
3	0	0	0	0	560	591
4	0	0	0	0	574	590
5	0	0	0	0	586	591
6	0	0	0	0	595	591
7	0	0	0	0	602	590
8	0	0	0	0	608	591
9	0	0	0	0	616	591
10	0	0	0	0	627	590
11	0	0	0	0	643	591
12	0	0	0	0	662	590
13	0	0	0	0	679	591
14	0	0	0	0	697	591
15	0	0	0	0	715	591
0	0	0	0	0	731	591
1	0	0	0	0	744	591
2	0	0	0	0	755	591
3	0	0	0	0	760	591
4	0	0	0	0	760	591
5	0	0	0	0	755	591
6	0	0	0	0	747	592
7	0	0	0	0	737	591
8	0	0	0	0	728	591
9	0	0	0	0	718	591
10	0	0	0	0	707	591
11	0	0	0	0	695	590
12	0	0	0	0	683	590
13	0	0	0	0	671	590
14	0	0	0	0	659	590
15	0	0	0	0	647	590
0	0	0	0	0	635	590
1	0	0	0	0	624	590
2	0	0	0	0	613	590
3	0	0	0	0	603	590
4	0	0	0	0	592	589
5	0	0	0	0	583	589
6	0	0	0	0	574	590
7	0	0	0	0	563	589
8	0	0	0	0	554	590
9	0	0	0	0	544	589
10	0	0	0	0	535	589
11	0	0	0	0	526	590
12	0	0	0	0	517	589
13	0	0	0	0	509	590
14	0	0	0	0	501	590
15	0	0	0	0	494	589
0	0	0	0	0	487	589
1	0	0	0	0	481	589
2	0	0	0	0	476	589
3	0	0	0	0	471	588
4	0	0	0	0	466	588
5	0	0	0	0	462	589
6	0	0	0	0	459	589
7	0	0	0	0	456	589
8	0	0	0	0	455	589
9	0	0	0	0	453	589
10	0	0	0	0	454	590
11	0	0	0	0	453	590
12	0	0	0	0	453	590
13	0	0	0	0	453	590
14	0	0	0	0	452	590
15	0	0	0	0	451	590
0	0	0	0	0	451	590
1	0	0	0	0	450	591
2	0	0	0	0	450	590
3	0	0	0	0	450	590
4	0	0	0	0	449	591
5	0	0	0	0	449	591
6	0	0	0	0	449	591
7	0	0	0	0	449	591
8	0	0	0	0	448	591
9	0	0	0	0	449	591
10	0	0	0	0	450	591
11	0	0	0	0	450	591
12	0	0	0	0	451	591
13	0	0	0	0	451	591
14	0	0	0	0	452	591
15	0	0	0	0	453	590
0	0	0	0	0	453	591
1	0	0	0	0	454	591
2	0	0	0	0	453	591
3	0	0	0	0	453	590
4	0	0	0	0	452	590
5	0	0	0	0	452	590
6	0	0	0	0	452	590
7	0	0	0	0	452	590
8	0	0	0	0	452	590
9	0	0	0	0	452	590
10	0	0	0	0	452	589
11	0	0	0	0	453	590
12	0	0	0	0	453	590
13	0	0	0	0	454	590
14	0	0	0	0	454	591
15	0	0	0	0	454	591
0	0	0	0	0	455	591
1	0	0	0	0	455	591
2	0	0	0	0	457	591
3	0	0	0	0	457	591
4	0	0	0	0	457	591
5	0	0	0	0	458	591
6	0	0	0	0	458	591
7	0	0	0	0	459	591
8	0	0	0	0	459	590
9	0	0	0	0	460	591
10	0	0	0	0	460	590
11	0	0	0	0	460	591
12	0	0	0	0	461	590
13	0	0	0	0	461	590
14	0	0	0	0	463	590
15	0	0	0	0	463	590
0	0	0	0	0	463	589
1	0	0	0	0	464	590
2	0	0	0	0	464	590
3	0	0	0	0	464	590
4	0	0	0	0	464	590
5	0	0	0	0	464	590
6	0	0	0	0	464	591
7	0	0	0	0	465	589
8	0	0	0	0	465	590
9	0	0	0	0	467	591
10	0	0	0	0	467	589
11	0	0	0	0	467	590
12	0	0	0	0	466	590
13	0	0	0	0	466	590
14	0	0	0	0	465	591
15	0	0	0	0	465	590
0	0	0	0	0	464	591
1	0	0	0	0	464	591
2	0	0	0	0	463	591
3	0	0	0	0	463	591
4	0	0	0	0	464	591
5	0	0	0	0	465	591
6	0	0	0	0	465	591
7	0	0	0	0	465	591
8	0	0	0	0	466	591
9	0	0	0	0	466	590
10	0	0	0	0	466	590
11	0	0	0	0	466	590
12	0	0	0	0	467	590
13	0	0	0	0	467	590
14	0	0	0	0	467	590
15	0	0	0	0	467	590
0	0	0	0	0	466	590
1	0	0	0	0	466	589
2	0	0	0	0	465	589
3	0	0	0	0	465	588
4	0	0	0	0	465	588
5	0	0	0	0	465	588
6	0	0	0	0	465	589
7	0	0	0	0	465	588
8	0	0	0	0	466	588
9	0	0	0	0	466	588
10	0	0	0	0	467	588
11	0	0	0	0	467	589
12	0	0	0	0	466	589
13	0	0	0	0	467	589
14	0	0	0	0	467	589
15	0	0	0	0	467	589
0	0	0	0	0	467	588
1	0	0	0	0	467	589
2	0	0	0	0	467	589
3	0	0	0	0	466	590
4	0	0	0	0	465	589
5	0	0	0	0	465	589
6	0	0	0	0	464	590
7	0	0	0	0	464	589
8	0	0	0	0	463	589
9	0	0	0	0	462	588
10	0	0	0	0	462	589
11	0	0	0	0	462	589
12	0	0	0	0	461	589
13	0	0	0	0	462	589
14	0	0	0	0	463	589
15	0	0	0	0	464	589
0	0	0	0	0	464	590
1	0	0	0	0	465	589
2	0	0	0	0	465	590
3	0	0	0	0	466	589
4	0	0	0	0	465	589
5	0	0	0	0	465	590
6	0	0	0	0	465	590
7	0	0	0	0	465	590
8	0	0	0	0	465	590
9	0	0	0	0	464	591
10	0	0	0	0	464	590
11	0	0	0	0	464	591
12	0	0	0	0	463	590
13	0	0	0	0	463	590
14	0	0	0	0	463	591
15	0	0	0	0	463	590
0	0	0	0	0	464	590
1	0	0	0	0	464	590
2	0	0	0	0	465	590
3	0	0	0	0	466	591
4	0	0	0	0	466	590
5	0	0	0	0	467	591
6	0	0	0	0	467	591
7	0	0	0	0	468	591
8	0	0	0	0	468	591
9	0	0	0	0	468	590
10	0	0	0	0	468	590
11	0	0	0	0	468	590
12	0	0	0	0	468	590
13	0	0	0	0	468	590
14	0	0	0	0	467	590
15	0	0	0	0	468	590
0	0	0	0	0	469	590
1	0	0	0	0	469	589
2	0	0	0	0	470	590
3	0	0	0	0	470	590
4	0	0	0	0	471	589
5	0	0	0	0	472	590
6	0	0	0	0	472	589
7	0	0	0	0	475	589
8	0	0	0	0	475	590
9	0	0	0	0	476	589
10	0	0	0	0	477	590
11	0	0	0	0	478	590
12	0	0	0	0	478	590
13	0	0	0	0	479	591
14	0	0	0	0	479	590
15	0	0	0	0	481	591
0	0	0	0	0	481	591
1	0	0	0	0	482	591
2	0	0	0	0	482	591
3	0	0	0	0	483	591
4	0	0	0	0	484	591
5	0	0	0	0	486	592
6	0	0	0	0	488	593
7	0	0	0	0	491	592
8	0	0	0	0	493	593
9	0	0	0	0	494	593
10	0	0	0	0	497	592
11	0	0	0	0	499	592
12	0	0	0	0	501	592
13	0	0	0	0	503	592
14	0	0	0	0	505	593
15	0	0	0	0	508	592
0	0	0	0	0	510	592
1	0	0	0	0	512	592
2	0	0	0	0	513	592
3	0	0	0	0	515	592
4	0	0	0	0	516	591
5	0	0	0	0	519	592
6	0	0	0	0	520	592
7	0	0	0	0	523	591
8	0	0	0	0	525	591
9	0	0	0	0	527	591
10	0	0	0	0	528	591
11	0	0	0	0	531	591
12	0	0	0	0	532	591
13	0	0	0	0	534	591
14	0	0	0	0	536	591
15	0	0	0	0	538	590
0	0	0	0	0	540	590
1	0	0	0	0	541	591
2	0	0	0	0	543	590
3	0	0	0	0	545	591
4	0	0	0	0	546	590
5	0	0	0	0	547	591
6	0	0	0	0	547	590
7	0	0	0	0	549	591
8	0	0	0	0	549	590
9	0	0	0	0	550	590
10	0	0	0	0	551	590
11	0	0	0	0	551	589
12	0	0	0	0	551	590
13	0	0	0	0	552	589
14	0	0	0	0	551	589
15	0	0	0	0	551	589
0	0	0	0	0	552	589
1	0	0	0	0	552	588
2	0	0	0	0	553	588
3	0	0	0	0	554	588
4	0	0	0	0	554	588
5	0	0	0	0	555	588
6	0	0	0	0	556	589
7	0	0	0	0	557	588
8	0	0	0	0	558	588
9	0	0	0	0	557	588
10	0	0	0	0	557	588
11	0	0	0	0	557	588
12	0	0	0	0	556	588
13	0	0	0	0	556	589
14	0	0	0	0	556	589
15	0	0	0	0	556	589
0	0	0	0	0	555	589
1	0	0	0	0	555	589
2	0	0	0	0	555	589
3	0	0	0	0	554	589
4	0	0	0	0	554	589
5	0	0	0	0	554	590
6	0	0	0	0	553	589
7	0	0	0	0	554	589
8	0	0	0	0	555	590
9	0	0	0	0	555	590
10	0	0	0	0	555	590
11	0	0	0	0	555	590
12	0	0	0	0	555	590
13	0	0	0	0	555	590
14	0	0	0	0	554	590
15	0	0	0	0	554	590
0	0	0	0	0	553	590
1	0	0	0	0	552	590
2	0	0	0	0	551	590
3	0	0	0	0	551	590
4	0	0	0	0	550	590
5	0	0	0	0	549	590
6	0	0	0	0	549	590
7	0	0	0	0	548	590
8	0	0	0	0	548	590
9	0	0	0	0	548	590
10	0	0	0	0	547	590
11	0	0	0	0	548	591
12	0	0	0	0	547	590
13	0	0	0	0	547	590
14	0	0	0	0	547	591
15	0	0	0	0	546	590
0	0	0	0	0	546	590
1	0	0	0	0	546	590
2	0	0	0	0	545	589
3	0	0	0	0	544	590
4	0	0	0	0	543	590
5	0	0	0	0	542	590
6	0	0	0	0	542	590
7	0	0	0	0	541	590
8	0	0	0	0	540	590
9	0	0	0	0	540	591
10	0	0	0	0	540	591
11	0	0	0	0	540	590
12	0	0	0	0	540	590
13	0	0	0	0	539	590
14	0	0	0	0	539	591
15	0	0	0	0	538	590
0	0	0	0	0	539	590
1	0	0	0	0	539	590
2	0	0	0	0	538	590
3	0	0	0	0	537	590
4	0	0	0	0	537	591
5	0	0	0	0	537	590
6	0	0	0	0	536	590
7	0	0	0	0	536	591
8	0	0	0	0	536	590
9	0	0	0	0	535	590
10	0	0	0	0	535	590
11	0	0	0	0	535	590
12	0	0	0	0	535	590
13	0	0	0	0	535	590
14	0	0	0	0	535	591
15	0	0	0	0	535	590
0	0	0	0	0	535	590
1	0	0	0	0	535	590
2	0	0	0	0	536	591
3	0	0	0	0	536	591
4	0	0	0	0	536	591
5	0	0	0	0	536	591
6	0	0	0	0	536	591
7	0	0	0	0	536	590
8	0	0	0	0	535	590
9	0	0	0	0	535	591
10	0	0	0	0	535	590
11	0	0	0	0	534	590
12	0	0	0	0	534	591
13	0	0	0	0	534	591
14	0	0	0	0	533	591
15	0	0	0	0	533	591
0	0	0	0	0	533	591
1	0	0	0	0	532	591
2	0	0	0	0	531	591
3	0	0	0	0	531	591
4	0	0	0	0	531	591
5	0	0	0	0	531	591
6	0	0	0	0	531	591
7	0	0	0	0	531	591
8	0	0	0	0	531	591
9	0	0	0	0	532	591
10	0	0	0	0	532	591
11	0	0	0	0	532	590
12	0	0	0	0	531	591
13	0	0	0	0	531	590
14	0	0	0	0	531	591
15	0	0	0	0	530	590
0	0	0	0	0	530	590
1	0	0	0	0	529	590
2	0	0	0	0	530	590
3	0	0	0	0	528	590
4	0	0	0	0	529	590
5	0	0	0	0	529	589
6	0	0	0	0	528	591
7	0	0	0	0	527	590
8	0	0	0	0	527	590
9	0	0	0	0	527	590
10	0	0	0	0	528	590
11	0	0	0	0	529	590
12	0	0	0	0	529	591
13	0	0	0	0	529	589
14	0	0	0	0	529	591
15	0	0	0	0	529	590
0	0	0	0	0	529	590
1	0	0	0	0	529	590
2	0	0	0	0	529	590
3	0	0	0	0	528	590
4	0	0	0	0	527	590
5	0	0	0	0	526	590
6	0	0	0	0	527	590
7	0	0	0	0	526	589
8	0	0	0	0	526	590
9	0	0	0	0	524	589
10	0	0	0	0	524	589
11	0	0	0	0	524	589
12	0	0	0	0	524	588
13	0	0	0	0	524	589
14	0	0	0	0	524	589
15	0	0	0	0	525	590
0	0	0	0	0	525	590
1	0	0	0	0	526	590
2	0	0	0	0	525	590
3	0	0	0	0	526	591
4	0	0	0	0	526	590
5	0	0	0	0	526	590
6	0	0	0	0	525	590
7	0	0	0	0	525	590
8	0	0	0	0	524	590
9	0	0	0	0	523	590
10	0	0	0	0	522	589
11	0	0	0	0	522	589
12	0	0	0	0	521	590
13	0	0	0	0	520	589
14	0	0	0	0	520	590
15	0	0	0	0	520	589
0	0	0	0	0	520	589
1	0	0	0	0	520	589
2	0	0	0	0	520	589
3	0	0	0	0	520	590
4	0	0	0	0	520	590
5	0	0	0	0	521	589
6	0	0	0	0	521	590
7	0	0	0	0	521	589
8	0	0	0	0	521	590
9	0	0	0	0	520	589
10	0	0	0	0	520	589
11	0	0	0	0	519	589
12	0	0	0	0	519	589
13	0	0	0	0	519	589
14	0	0	0	0	519	589
15	0	0	0	0	518	590
0	0	0	0	0	518	589
1	0	0	0	0	517	590
2	0	0	0	0	517	590
3	0	0	0	0	517	590
4	0	0	0	0	516	590
5	0	0	0	0	516	590
6	0	0	0	0	517	590
7	0	0	0	0	518	590
8	0	0	0	0	518	590
9	0	0	0	0	518	590
10	0	0	0	0	519	590
11	0	0	0	0	519	590
12	0	0	0	0	519	590
13	0	0	0	0	519	590
14	0	0	0	0	519	591
15	0	0	0	0	518	591
0	0	0	0	0	518	591
1	0	0	0	0	517	591
2	0	0	0	0	516	591
3	0	0	0	0	515	591
4	0	0	0	0	515	591
5	0	0	0	0	515	590
6	0	0	0	0	514	591
7	0	0	0	0	514	591
8	0	0	0	0	515	590
9	0	0	0	0	515	590
10	0	0	0	0	515	590
11	0	0	0	0	516	590
12	0	0	0	0	516	590
13	0	0	0	0	517	590
14	0	0	0	0	517	590
15	0	0	0	0	518	590
0	0	0	0	0	517	590
1	0	0	0	0	516	589
2	0	0	0	0	516	589
3	0	0	0	0	516	590
4	0	0	0	0	515	590
5	0	0	0	0	515	590
6	0	0	0	0	515	591
7	0	0	0	0	515	590
8	0	0	0	0	515	590
9	0	0	0	0	515	591
10	0	0	0	0	515	591
11	0	0	0	0	515	590
12	0	0	0	0	516	591
13	0	0	0	0	517	591
14	0	0	0	0	517	591
15	0	0	0	0	518	591
0	0	0	0	0	518	591
1	0	0	0	0	518	591
2	0	0	0	0	518	591
3	0	0	0	0	519	591
4	0	0	0	0	518	590
5	0	0	0	0	518	590
6	0	0	0	0	518	591
7	0	0	0	0	517	590
8	0	0	0	0	516	591
9	0	0	0	0	515	590
10	0	0	0	0	514	590
11	0	0	0	0	513	590
12	0	0	0	0	513	591
13	0	0	0	0	513	590
14	0	0	0	0	513	591
15	0	0	0	0	513	591
0	0	0	0	0	513	591
1	0	0	0	0	513	591
2	0	0	0	0	513	591
3	0	0	0	0	513	591
4	0	0	0	0	513	591
5	0	0	0	0	513	591
6	0	0	0	0	513	591
7	0	0	0	0	513	591
8	0	0	0	0	514	590
9	0	0	0	0	513	590
10	0	0	0	0	513	590
11	0	0	0	0	512	590
12	0	0	0	0	511	590
13	0	0	0	0	510	591
14	0	0	0	0	508	590
15	0	0	0	0	507	590
0	0	0	0	0	506	590
1	0	0	0	0	506	590
2	0	0	0	0	506	590
3	0	0	0	0	505	590
4	0	0	0	0	505	590
5	0	0	0	0	505	590
6	0	0	0	0	507	590
7	0	0	0	0	507	589
8	0	0	0	0	508	590
9	0	0	0	0	508	590
10	0	0	0	0	509	590
11	0	0	0	0	508	590
12	0	0	0	0	508	590
13	0	0	0	0	508	590
14	0	0	0	0	508	590
15	0	0	0	0	507	589
0	0	0	0	0	506	589
1	0	0	0	0	506	589
2	0	0	0	0	505	590
3	0	0	0	0	505	589
4	0	0	0	0	505	589
5	0	0	0	0	505	589
6	0	0	0	0	505	589
7	0	0	0	0	506	590
8	0	0	0	0	506	589
9	0	0	0	0	507	590
10	0	0	0	0	508	589
11	0	0	0	0	508	590
12	0	0	0	0	508	591
13	0	0	0	0	509	590
14	0	0	0	0	510	591
15	0	0	0	0	510	590
0	0	0	0	0	509	590
1	0	0	0	0	509	591
2	0	0	0	0	508	590
3	0	0	0	0	507	591
4	0	0	0	0	507	590
5	0	0	0	0	506	590
6	0	0	0	0	506	591
7	0	0	0	0	506	590
8	0	0	0	0	507	591
9	0	0	0	0	507	591
10	0	0	0	0	507	591
11	0	0	0	0	507	591
12	0	0	0	0	507	591
13	0	0	0	0	508	591
14	0	0	0	0	508	591
15	0	0	0	0	508	591
0	0	0	0	0	509	590
1	0	0	0	0	509	590
2	0	0	0	0	509	590
3	0	0	0	0	509	590
4	0	0	0	0	509	590
5	0	0	0	0	508	590
6	0	0	0	0	508	590
7	0	0	0	0	507	590
8	0	0	0	0	507	589
9	0	0	0	0	507	589
10	0	0	0	0	506	589
11	0	0	0	0	506	589
12	0	0	0	0	507	589
13	0	0	0	0	506	589
14	0	0	0	0	506	589
15	0	0	0	0	506	589
0	0	0	0	0	506	589
1	0	0	0	0	507	589
2	0	0	0	0	508	588
3	0	0	0	0	508	589
4	0	0	0	0	508	589
5	0	0	0	0	510	589
6	0	0	0	0	511	589
7	0	0	0	0	511	589
8	0	0	0	0	512	589
9	0	0	0	0	512	590
10	0	0	0	0	512	589
11	0	0	0	0	512	588
12	0	0	0	0	512	588
13	0	0	0	0	512	588
14	0	0	0	0	511	589
15	0	0	0	0	511	589
0	0	0	0	0	511	589
1	0	0	0	0	511	589
2	0	0	0	0	511	589
3	0	0	0	0	511	589
4	0	0	0	0	511	589
5	0	0	0	0	512	590
6	0	0	0	0	512	590
7	0	0	0	0	512	590
8	0	0	0	0	513	590
9	0	0	0	0	514	590
10	0	0	0	0	514	591
11	0	0	0	0	514	590
12	0	0	0	0	514	590
13	0	0	0	0	514	591
14	0	0	0	0	514	591
15	0	0	0	0	514	591
0	0	0	0	0	514	591
1	0	0	0	0	513	591
2	0	0	0	0	513	591
3	0	0	0	0	512	591
4	0	0	0	0	512	591
5	0	0	0	0	512	590
6	0	0	0	0	512	591
7	0	0	0	0	512	590
8	0	0	0	0	512	590
9	0	0	0	0	512	590
10	0	0	0	0	512	590
11	0	0	0	0	513	590
12	0	0	0	0	513	590
13	0	0	0	0	512	589
14	0	0	0	0	513	590
15	0	0	0	0	512	590
0	0	0	0	0	512	589
1	0	0	0	0	511	589
2	0	0	0	0	511	589
3	0	0	0	0	511	590
4	0	0	0	0	510	590
5	0	0	0	0	510	589
6	0	0	0	0	510	590
7	0	0	0	0	510	589
8	0	0	0	0	510	590
9	0	0	0	0	509	589
10	0	0	0	0	509	590
11	0	0	0	0	508	589
12	0	0	0	0	508	589
13	0	0	0	0	508	590
14	0	0	0	0	509	590
15	0	0	0	0	508	590
0	0	0	0	0	508	591
1	0	0	0	0	508	590
2	0	0	0	0	509	590
3	0	0	0	0	510	591
4	0	0	0	0	510	591
5	0	0	0	0	510	591
6	0	0	0	0	510	592
7	0	0	0	0	509	591
8	0	0	0	0	508	591
9	0	0	0	0	507	592
10	0	0	0	0	506	591
11	0	0	0	0	506	591
12	0	0	0	0	507	591
13	0	0	0	0	507	591
14	0	0	0	0	509	591
15	0	0	0	0	510	591
0	0	0	0	0	512	590
1	0	0	0	0	512	590
2	0	0	0	0	513	590
3	0	0	0	0	515	590
4	0	0	0	0	515	590
5	0	0	0	0	516	590
6	0	0	0	0	516	590
7	0	0	0	0	516	590
8	0	0	0	0	516	590
9	0	0	0	0	515	590
10	0	0	0	0	514	589
11	0	0	0	0	514	590
12	0	0	0	0	514	589
13	0	0	0	0	514	590
14	0	0	0	0	514	590
15	0	0	0	0	514	589
0	0	0	0	0	515	590
1	0	0	0	0	515	590
2	0	0	0	0	515	590
3	0	0	0	0	515	589
4	0	0	0	0	515	590
5	0	0	0	0	516	590
6	0	0	0	0	517	590
7	0	0	0	0	518	590
8	0	0	0	0	518	590
9	0	0	0	0	519	590
10	0	0	0	0	519	590
11	0	0	0	0	519	590
12	0	0	0	0	519	590
13	0	0	0	0	519	590
14	0	0	0	0	519	590
15	0	0	0	0	519	589
0	0	0	0	0	518	590
1	0	0	0	0	516	590
2	0	0	0	0	516	590
3	0	0	0	0	515	590
4	0	0	0	0	514	589
5	0	0	0	0	513	590
6	0	0	0	0	512	590
7	0	0	0	0	512	590
8	0	0	0	0	511	589
9	0	0	0	0	510	590
10	0	0	0	0	510	589
11	0	0	0	0	509	590
12	0	0	0	0	510	590
13	0	0	0	0	510	590
14	0	0	0	0	509	590
15	0	0	0	0	509	590
0	0	0	0	0	509	590
1	0	0	0	0	509	591
2	0	0	0	0	508	591
3	0	0	0	0	508	591
4	0	0	0	0	507	591
5	0	0	0	0	506	591
6	0	0	0	0	505	592
7	0	0	0	0	506	591
8	0	0	0	0	506	591
9	0	0	0	0	506	591
10	0	0	0	0	506	592
11	0	0	0	0	507	591
12	0	0	0	0	508	591
13	0	0	0	0	508	591
14	0	0	0	0	508	591
15	0	0	0	0	508	591
0	0	0	0	0	508	591
1	0	0	0	0	509	591
2	0	0	0	0	509	591
3	0	0	0	0	509	591
4	0	0	0	0	510	591
5	0	0	0	0	510	590
6	0	0	0	0	509	590
7	0	0	0	0	509	590
8	0	0	0	0	510	591
9	0	0	0	0	510	591
10	0	0	0	0	509	590
11	0	0	0	0	509	590
12	0	0	0	0	508	590
13	0	0	0	0	508	589
14	0	0	0	0	508	590
15	0	0	0	0	507	590
0	0	0	0	0	507	590
1	0	0	0	0	508	589
2	0	0	0	0	507	589
3	0	0	0	0	508	590
4	0	0	0	0	508	590
5	0	0	0	0	508	589
6	0	0	0	0	508	590
7	0	0	0	0	508	590
8	0	0	0	0	508	590
9	0	0	0	0	508	590
10	0	0	0	0	508	589
11	0	0	0	0	508	591
12	0	0	0	0	508	589
13	0	0	0	0	507	589
14	0	0	0	0	507	590
15	0	0	0	0	507	589
0	0	0	0	0	507	590
1	0	0	0	0	507	590
2	0	0	0	0	507	590
3	0	0	0	0	507	590
4	0	0	0	0	508	590
5	0	0	0	0	508	590
6	0	0	0	0	508	591
7	0	0	0	0	508	590
8	0	0	0	0	508	591
9	0	0	0	0	508	591
10	0	0	0	0	509	590
11	0	0	0	0	509	590
12	0	0	0	0	509	590
13	0	0	0	0	509	590
14	0	0	0	0	508	591
15	0	0	0	0	508	591
0	0	0	0	0	508	591
1	0	0	0	0	507	591
2	0	0	0	0	506	590
3	0	0	0	0	506	591
4	0	0	0	0	507	591
5	0	0	0	0	507	591
6	0	0	0	0	507	591
7	0	0	0	0	507	591
8	0	0	0	0	507	590
9	0	0	0	0	507	591
10	0	0	0	0	507	590
11	0	0	0	0	508	590
12	0	0	0	0	508	590
13	0	0	0	0	508	590
14	0	0	0	0	508	591
15	0	0	0	0	507	590
0	0	0	0	0	505	590
1	0	0	0	0	503	590
2	0	0	0	0	501	590
3	0	0	0	0	499	590
4	0	0	0	0	496	590
5	0	0	0	0	492	590
6	0	0	0	0	489	591
7	0	0	0	0	485	590
8	0	0	0	0	482	591
9	0	0	0	0	478	590
10	0	0	0	0	476	591
11	0	0	0	0	473	591
12	0	0	0	0	472	591
13	0	0	0	0	469	591
14	0	0	0	0	467	591
15	0	0	0	0	466	591
0	0	0	0	0	464	591
1	0	0	0	0	463	590
2	0	0	0	0	462	591
3	0	0	0	0	461	590
4	0	0	0	0	459	591
5	0	0	0	0	457	591
6	0	0	0	0	457	590
7	0	0	0	0	456	590
8	0	0	0	0	457	591
9	0	0	0	0	458	591
10	0	0	0	0	459	590
11	0	0	0	0	463	591
12	0	0	0	0	466	591
13	0	0	0	0	470	590
14	0	0	0	0	475	591
15	0	0	0	0	482	590
0	0	0	0	0	492	590
1	0	0	0	0	502	591
2	0	0	0	0	514	590
3	0	0	0	0	529	590
4	0	0	0	0	546	590
5	0	0	0	0	563	590
6	0	0	0	0	579	590
7	0	0	0	0	591	589
8	0	0	0	0	601	590
9	0	0	0	0	606	590
10	0	0	0	0	610	589
11	0	0	0	0	616	589
12	0	0	0	0	625	589
13	0	0	0	0	639	589
14	0	0	0	0	656	590
15	0	0	0	0	671	589
0	0	0	0	0	686	590
1	0	0	0	0	701	590
2	0	0	0	0	716	589
3	0	0	0	0	731	589
4	0	0	0	0	742	589
5	0	0	0	0	747	589
6	0	0	0	0	748	590
7	0	0	0	0	743	589
8	0	0	0	0	735	590
9	0	0	0	0	725	589
10	0	0	0	0	716	590
11	0	0	0	0	704	589
12	0	0	0	0	694	590
13	0	0	0	0	683	590
14	0	0	0	0	671	590
15	0	0	0	0	659	590
0	0	0	0	0	647	590
1	0	0	0	0	635	590
2	0	0	0	0	623	590
3	0	0	0	0	611	590
4	0	0	0	0	600	590
5	0	0	0	0	589	590
6	0	0	0	0	579	591
7	0	0	0	0	569	591
8	0	0	0	0	560	591
9	0	0	0	0	551	591
10	0	0	0	0	543	591
11	0	0	0	0	534	591
12	0	0	0	0	526	590
13	0	0	0	0	518	590
14	0	0	0	0	510	591
15	0	0	0	0	504	590
0	0	0	0	0	497	590
1	0	0	0	0	489	590
2	0	0	0	0	483	590
3	0	0	0	0	477	590
4	0	0	0	0	471	590
5	0	0	0	0	465	590
6	0	0	0	0	460	590
7	0	0	0	0	455	590
8	0	0	0	0	451	590
9	0	0	0	0	447	590
10	0	0	0	0	445	589
11	0	0	0	0	443	589
12	0	0	0	0	442	590
13	0	0	0	0	441	589
14	0	0	0	0	440	589
15	0	0	0	0	440	589
0	0	0	0	0	440	589
1	0	0	0	0	440	588
2	0	0	0	0	440	589
3	0	0	0	0	440	589
4	0	0	0	0	439	590
5	0	0	0	0	439	589
6	0	0	0	0	439	590
7	0	0	0	0	439	589
8	0	0	0	0	439	589
9	0	0	0	0	439	590
10	0	0	0	0	439	589
11	0	0	0	0	439	589
12	0	0	0	0	440	590
13	0	0	0	0	440	590
14	0	0	0	0	440	590
15	0	0	0	0	441	590
0	0	0	0	0	441	590
1	0	0	0	0	443	590
2	0	0	0	0	444	590
3	0	0	0	0	445	591
4	0	0	0	0	446	590
5	0	0	0	0	446	591
6	0	0	0	0	446	591
7	0	0	0	0	446	590
8	0	0	0	0	447	591
9	0	0	0	0	446	591
10	0	0	0	0	446	591
11	0	0	0	0	447	591
12	0	0	0	0	447	591
13	0	0	0	0	447	591
14	0	0	0	0	447	591
15	0	0	0	0	446	591
0	0	0	0	0	446	591
1	0	0	0	0	446	590
2	0	0	0	0	447	591
3	0	0	0	0	447	590
4	0	0	0	0	447	590
5	0	0	0	0	448	590
6	0	0	0	0	448	590
7	0	0	0	0	449	590
8	0	0	0	0	450	590
9	0	0	0	0	451	590
10	0	0	0	0	451	590
11	0	0	0	0	452	590
12	0	0	0	0	453	590
13	0	0	0	0	453	590
14	0	0	0	0	452	591
15	0	0	0	0	452	591
0	0	0	0	0	451	591
1	0	0	0	0	451	590
2	0	0	0	0	451	590
3	0	0	0	0	452	591
4	0	0	0	0	451	590
5	0	0	0	0	452	589
6	0	0	0	0	452	590
7	0	0	0	0	452	590
8	0	0	0	0	453	589
9	0	0	0	0	454	589
10	0	0	0	0	455	589
11	0	0	0	0	455	589
12	0	0	0	0	456	589
13	0	0	0	0	457	588
14	0	0	0	0	458	589
15	0	0	0	0	458	588
0	0	0	0	0	458	588
1	0	0	0	0	458	589
2	0	0	0	0	458	588
3	0	0	0	0	458	590
4	0	0	0	0	458	588
5	0	0	0	0	457	589
6	0	0	0	0	457	590
7	0	0	0	0	457	590
8	0	0	0	0	457	590
9	0	0	0	0	457	590
10	0	0	0	0	457	590
11	0	0	0	0	457	590
12	0	0	0	0	458	591
13	0	0	0	0	458	591
14	0	0	0	0	459	591
15	0	0	0	0	460	591
0	0	0	0	0	460	591
1	0	0	0	0	460	591
2	0	0	0	0	460	592
3	0	0	0	0	460	591
4	0	0	0	0	459	591
5	0	0	0	0	459	591
6	0	0	0	0	459	591
7	0	0	0	0	458	591
8	0	0	0	0	459	591
9	0	0	0	0	458	591
10	0	0	0	0	458	590
11	0	0	0	0	458	591
12	0	0	0	0	458	591
13	0	0	0	0	457	591
14	0	0	0	0	457	591
15	0	0	0	0	457	591
0	0	0	0	0	457	590
1	0	0	0	0	457	591
2	0	0	0	0	457	590
3	0	0	0	0	457	590
4	0	0	0	0	458	590
5	0	0	0	0	458	590
6	0	0	0	0	457	591
7	0	0	0	0	457	591
8	0	0	0	0	458	590
9	0	0	0	0	458	590
10	0	0	0	0	458	591
11	0	0	0	0	457	591
12	0	0	0	0	457	590
13	0	0	0	0	456	591
14	0	0	0	0	456	591
15	0	0	0	0	456	591
0	0	0	0	0	456	591
1	0	0	0	0	456	591
2	0	0	0	0	456	591
3	0	0	0	0	457	590
4	0	0	0	0	458	590
5	0	0	0	0	459	591
6	0	0	0	0	460	591
7	0	0	0	0	460	591
8	0	0	0	0	459	591
9	0	0	0	0	459	591
10	0	0	0	0	458	591
11	0	0	0	0	458	591
12	0	0	0	0	457	591
13	0	0	0	0	456	590
14	0	0	0	0	455	591
15	0	0	0	0	455	591
0	0	0	0	0	454	590
1	0	0	0	0	454	591
2	0	0	0	0	455	590
3	0	0	0	0	455	590
4	0	0	0	0	455	590
5	0	0	0	0	455	589
6	0	0	0	0	456	590
7	0	0	0	0	456	589
8	0	0	0	0	457	590
9	0	0	0	0	457	589
10	0	0	0	0	458	589
11	0	0	0	0	459	589
12	0	0	0	0	460	589
13	0	0	0	0	460	589
14	0	0	0	0	460	590
15	0	0	0	0	461	589
0	0	0	0	0	462	589
1	0	0	0	0	462	589
2	0	0	0	0	462	589
3	0	0	0	0	463	589
4	0	0	0	0	463	588
5	0	0	0	0	463	588
6	0	0	0	0	464	588
7	0	0	0	0	465	588
8	0	0	0	0	466	589
9	0	0	0	0	467	588
10	0	0	0	0	468	588
11	0	0	0	0	469	588
12	0	0	0	0	471	588
13	0	0	0	0	472	588
14	0	0	0	0	473	589
15	0	0	0	0	475	589
0	0	0	0	0	476	589
1	0	0	0	0	477	589
2	0	0	0	0	478	589
3	0	0	0	0	478	590
4	0	0	0	0	479	590
5	0	0	0	0	480	589
6	0	0	0	0	480	589
7	0	0	0	0	482	591
8	0	0	0	0	483	590
9	0	0	0	0	484	590
10	0	0	0	0	486	590
11	0	0	0	0	486	590
12	0	0	0	0	487	590
13	0	0	0	0	489	589
14	0	0	0	0	491	590
15	0	0	0	0	493	590
0	0	0	0	0	496	590
1	0	0	0	0	499	590
2	0	0	0	0	501	590
3	0	0	0	0	504	590
4	0	0	0	0	506	591
5	0	0	0	0	508	591
6	0	0	0	0	510	591
7	0	0	0	0	512	591
8	0	0	0	0	513	592
9	0	0	0	0	515	592
10	0	0	0	0	516	592
11	0	0	0	0	518	592
12	0	0	0	0	519	592
13	0	0	0	0	521	593
14	0	0	0	0	522	592
15	0	0	0	0	523	592
0	0	0	0	0	525	591
1	0	0	0	0	527	592
2	0	0	0	0	528	591
3	0	0	0	0	530	591
4	0	0	0	0	531	591
5	0	0	0	0	533	591
6	0	0	0	0	535	591
7	0	0	0	0	536	591
8	0	0	0	0	538	591
9	0	0	0	0	538	590
10	0	0	0	0	540	590
11	0	0	0	0	541	590
12	0	0	0	0	542	590
13	0	0	0	0	543	590
14	0	0	0	0	543	590
15	0	0	0	0	544	589
0	0	0	0	0	545	589
1	0	0	0	0	545	589
2	0	0	0	0	545	590
3	0	0	0	0	545	589
4	0	0	0	0	545	589
5	0	0	0	0	546	588
6	0	0	0	0	547	590
7	0	0	0	0	547	589
8	0	0	0	0	547	589
9	0	0	0	0	547	590
10	0	0	0	0	548	590
11	0	0	0	0	549	590
12	0	0	0	0	550	590
13	0	0	0	0	550	589
14	0	0	0	0	551	590
15	0	0	0	0	551	590
0	0	0	0	0	551	589
1	0	0	0	0	552	589
2	0	0	0	0	553	590
3	0	0	0	0	553	590
4	0	0	0	0	552	590
5	0	0	0	0	551	590
6	0	0	0	0	551	590
7	0	0	0	0	551	590
8	0	0	0	0	550	590
9	0	0	0	0	550	590
10	0	0	0	0	549	590
11	0	0	0	0	549	589
12	0	0	0	0	549	590
13	0	0	0	0	550	590
14	0	0	0	0	550	591
15	0	0	0	0	550	590
0	0	0	0	0	551	590
1	0	0	0	0	550	590
2	0	0	0	0	549	590
3	0	0	0	0	550	590
4	0	0	0	0	549	589
5	0	0	0	0	549	589
6	0	0	0	0	548	590
7	0	0	0	0	547	589
8	0	0	0	0	546	589
9	0	0	0	0	545	589
10	0	0	0	0	545	590
11	0	0	0	0	544	589
12	0	0	0	0	544	589
13	0	0	0	0	544	589
14	0	0	0	0	544	589
15	0	0	0	0	544	589
0	0	0	0	0	545	589
1	0	0	0	0	546	590
2	0	0	0	0	547	590
3	0	0	0	0	547	589
4	0	0	0	0	548	590
5	0	0	0	0	548	590
6	0	0	0	0	549	590
7	0	0	0	0	549	590
8	0	0	0	0	549	589
9	0	0	0	0	548	590
10	0	0	0	0	547	589
11	0	0	0	0	547	589
12	0	0	0	0	546	590
13	0	0	0	0	546	590
14	0	0	0	0	544	590
15	0	0	0	0	543	589
0	0	0	0	0	543	590
1	0	0	0	0	542	590
2	0	0	0	0	542	590
3	0	0	0	0	542	590
4	0	0	0	0	542	589
5	0	0	0	0	542	591
6	0	0	0	0	542	591
7	0	0	0	0	541	590
8	0	0	0	0	541	591
9	0	0	0	0	541	591
10	0	0	0	0	540	591
11	0	0	0	0	540	590
12	0	0	0	0	539	591
13	0	0	0	0	538	591
14	0	0	0	0	537	591
15	0	0	0	0	536	591
0	0	0	0	0	534	591
1	0	0	0	0	533	591
2	0	0	0	0	532	591
3	0	0	0	0	532	591
4	0	0	0	0	532	591
5	0	0	0	0	532	591
6	0	0	0	0	532	591
7	0	0	0	0	532	591
8	0	0	0	0	533	591
9	0	0	0	0	534	591
10	0	0	0	0	534	590
11	0	0	0	0	534	591
12	0	0	0	0	534	591
13	0	0	0	0	534	591
14	0	0	0	0	534	591
15	0	0	0	0	533	591
0	0	0	0	0	532	590
1	0	0	0	0	531	591
2	0	0	0	0	531	590
3	0	0	0	0	531	590
4	0	0	0	0	531	590
5	0	0	0	0	531	590
6	0	0	0	0	530	590
7	0	0	0	0	530	590
8	0	0	0	0	529	591
9	0	0	0	0	529	590
10	0	0	0	0	529	590
11	0	0	0	0	529	590
12	0	0	0	0	530	590
13	0	0	0	0	530	590
14	0	0	0	0	530	591
15	0	0	0	0	529	590
0	0	0	0	0	529	590
1	0	0	0	0	529	590
2	0	0	0	0	529	590
3	0	0	0	0	529	590
4	0	0	0	0	529	590
5	0	0	0	0	528	590
6	0	0	0	0	528	591
7	0	0	0	0	529	590
8	0	0	0	0	528	590
9	0	0	0	0	528	590
10	0	0	0	0	528	590
11	0	0	0	0	528	590
12	0	0	0	0	527	590
13	0	0	0	0	527	591
14	0	0	0	0	527	591
15	0	0	0	0	527	591
0	0	0	0	0	527	590
1	0	0	0	0	527	591
2	0	0	0	0	528	591
3	0	0	0	0	528	591
4	0	0	0	0	528	590
5	0	0	0	0	527	590
6	0	0	0	0	527	591
7	0	0	0	0	528	590
8	0	0	0	0	527	590
9	0	0	0	0	527	589
10	0	0	0	0	526	590
11	0	0	0	0	526	590
12	0	0	0	0	524	589
13	0	0	0	0	524	590
14	0	0	0	0	523	590
15	0	0	0	0	523	589
0	0	0	0	0	523	589
1	0	0	0	0	522	589
2	0	0	0	0	523	590
3	0	0	0	0	523	589
4	0	0	0	0	522	589
5	0	0	0	0	521	589
6	0	0	0	0	521	589
7	0	0	0	0	521	589
8	0	0	0	0	521	589
9	0	0	0	0	521	589
10	0	0	0	0	521	589
11	0	0	0	0	521	589
12	0	0	0	0	520	590
13	0	0	0	0	520	590
14	0	0	0	0	520	590
15	0	0	0	0	519	590
0	0	0	0	0	519	589
1	0	0	0	0	518	589
2	0	0	0	0	518	589
3	0	0	0	0	517	589
4	0	0	0	0	517	589
5	0	0	0	0	517	588
6	0	0	0	0	517	589
7	0	0	0	0	518	589
8	0	0	0	0	519	589
9	0	0	0	0	518	589
10	0	0	0	0	519	589
11	0	0	0	0	519	589
12	0	0	0	0	519	589
13	0	0	0	0	519	589
14	0	0	0	0	519	590
15	0	0	0	0	519	590
0	0	0	0	0	518	590
1	0	0	0	0	518	590
2	0	0	0	0	516	590
3	0	0	0	0	515	591
4	0	0	0	0	515	591
5	0	0	0	0	513	591
6	0	0	0	0	513	591
7	0	0	0	0	512	591
8	0	0	0	0	512	591
9	0	0	0	0	512	591
10	0	0	0	0	511	591
11	0	0	0	0	512	591
12	0	0	0	0	513	590
13	0	0	0	0	513	591
14	0	0	0	0	513	591
15	0	0	0	0	513	591
0	0	0	0	0	512	591
1	0	0	0	0	512	590
2	0	0	0	0	512	591
3	0	0	0	0	512	591
4	0	0	0	0	511	591
5	0	0	0	0	512	590
6	0	0	0	0	511	591
7	0	0	0	0	511	591
8	0	0	0	0	510	591
9	0	0	0	0	510	591
10	0	0	0	0	509	590
11	0	0	0	0	509	591
12	0	0	0	0	509	591
13	0	0	0	0	508	591
14	0	0	0	0	509	591
15	0	0	0	0	510	590
0	0	0	0	0	510	591
1	0	0	0	0	511	591
2	0	0	0	0	512	591
3	0	0	0	0	512	591
4	0	0	0	0	512	591
5	0	0	0	0	512	590
6	0	0	0	0	513	591
7	0	0	0	0	513	590
8	0	0	0	0	513	590
9	0	0	0	0	513	590
10	0	0	0	0	513	591
11	0	0	0	0	512	591
12	0	0	0	0	512	591
13	0	0	0	0	512	590
14	0	0	0	0	511	591
15	0	0	0	0	511	591
0	0	0	0	0	510	591
1	0	0	0	0	510	591
2	0	0	0	0	511	591
3	0	0	0	0	511	591
4	0	0	0	0	512	591
5	0	0	0	0	512	591
6	0	0	0	0	513	591
7	0	0	0	0	512	591
8	0	0	0	0	513	591
9	0	0	0	0	512	591
10	0	0	0	0	511	591
11	0	0	0	0	511	591
12	0	0	0	0	512	591
13	0	0	0	0	511	591
14	0	0	0	0	510	592
15	0	0	0	0	509	591
0	0	0	0	0	509	591
1	0	0	0	0	509	591
2	0	0	0	0	508	591
3	0	0	0	0	508	590
4	0	0	0	0	508	591
5	0	0	0	0	508	590
6	0	0	0	0	508	590
7	0	0	0	0	508	590
8	0	0	0	0	508	589
9	0	0	0	0	509	590
10	0	0	0	0	509	589
11	0	0	0	0	509	590
12	0	0	0	0	509	589
13	0	0	0	0	510	590
14	0	0	0	0	510	590
15	0	0	0	0	510	589
0	0	0	0	0	510	590
1	0	0	0	0	510	590
2	0	0	0	0	509	590
3	0	0	0	0	509	590
4	0	0	0	0	508	589
5	0	0	0	0	508	590
6	0	0	0	0	508	590
7	0	0	0	0	508	590
8	0	0	0	0	508	590
9	0	0	0	0	508	590
10	0	0	0	0	508	591
11	0	0	0	0	508	591
12	0	0	0	0	507	590
13	0	0	0	0	507	590
14	0	0	0	0	508	590
15	0	0	0	0	508	591
0	0	0	0	0	508	591
1	0	0	0	0	509	591
2	0	0	0	0	509	591
3	0	0	0	0	509	591
4	0	0	0	0	508	591
5	0	0	0	0	508	591
6	0	0	0	0	507	591
7	0	0	0	0	506	591
8	0	0	0	0	505	590
9	0	0	0	0	505	591
10	0	0	0	0	505	591
11	0	0	0	0	504	590
12	0	0	0	0	504	591
13	0	0	0	0	505	590
14	0	0	0	0	507	591
15	0	0	0	0	507	590
0	0	0	0	0	508	590
1	0	0	0	0	508	591
2	0	0	0	0	508	590
3	0	0	0	0	508	591
4	0	0	0	0	508	590
5	0	0	0	0	509	590
6	0	0	0	0	509	590
7	0	0	0	0	510	590
8	0	0	0	0	510	591
9	0	0	0	0	510	591
10	0	0	0	0	510	591
11	0	0	0	0	511	591
12	0	0	0	0	510	590
13	0	0	0	0	509	590
14	0	0	0	0	508	591
15	0	0	0	0	507	590
0	0	0	0	0	506	591
1	0	0	0	0	506	590
2	0	0	0	0	507	591
3	0	0	0	0	508	591
4	0	0	0	0	507	590
5	0	0	0	0	508	590
6	0	0	0	0	508	590
7	0	0	0	0	509	590
8	0	0	0	0	509	590
9	0	0	0	0	509	589
10	0	0	0	0	510	589
11	0	0	0	0	510	589
12	0	0	0	0	510	590
13	0	0	0	0	509	590
14	0	0	0	0	508	590
15	0	0	0	0	508	589
0	0	0	0	0	508	590
1	0	0	0	0	508	589
2	0	0	0	0	507	590
3	0	0	0	0	507	590
4	0	0	0	0	507	590
5	0	0	0	0	507	590
6	0	0	0	0	507	590
7	0	0	0	0	507	590
8	0	0	0	0	507	590
9	0	0	0	0	506	590
10	0	0	0	0	506	590
11	0	0	0	0	506	590
12	0	0	0	0	507	590
13	0	0	0	0	506	590
14	0	0	0	0	507	591
15	0	0	0	0	507	590
0	0	0	0	0	506	590
1	0	0	0	0	506	591
2	0	0	0	0	505	591
3	0	0	0	0	504	591
4	0	0	0	0	504	590
5	0	0	0	0	504	591
6	0	0	0	0	504	591
7	0	0	0	0	504	590
8	0	0	0	0	503	590
9	0	0	0	0	503	590
10	0	0	0	0	503	591
11	0	0	0	0	503	591
12	0	0	0	0	503	590
13	0	0	0	0	504	590
14	0	0	0	0	504	590
15	0	0	0	0	504	589
0	0	0	0	0	504	589
1	0	0	0	0	504	589
2	0	0	0	0	504	589
3	0	0	0	0	504	589
4	0	0	0	0	505	589
5	0	0	0	0	505	589
6	0	0	0	0	505	589
7	0	0	0	0	505	589
8	0	0	0	0	505	589
9	0	0	0	0	504	589
10	0	0	0	0	504	589
11	0	0	0	0	503	588
12	0	0	0	0	504	589
13	0	0	0	0	504	589
14	0	0	0	0	505	590
15	0	0	0	0	504	589
0	0	0	0	0	505	589
1	0	0	0	0	507	590
2	0	0	0	0	508	589
3	0	0	0	0	510	590
4	0	0	0	0	511	590
5	0	0	0	0	512	590
6	0	0	0	0	513	590
7	0	0	0	0	513	590
8	0	0	0	0	514	590
9	0	0	0	0	515	590
10	0	0	0	0	515	589
11	0	0	0	0	515	590
12	0	0	0	0	514	590
13	0	0	0	0	514	590
14	0	0	0	0	514	591
15	0	0	0	0	514	590
0	0	0	0	0	513	590
1	0	0	0	0	513	590
2	0	0	0	0	514	590
3	0	0	0	0	514	590
4	0	0	0	0	515	590
5	0	0	0	0	516	589
6	0	0	0	0	518	590
7	0	0	0	0	519	590
8	0	0	0	0	520	589
9	0	0	0	0	522	590
10	0	0	0	0	523	590
11	0	0	0	0	523	590
12	0	0	0	0	522	590
13	0	0	0	0	521	590
14	0	0	0	0	521	591
15	0	0	0	0	520	591
0	0	0	0	0	520	590
1	0	0	0	0	519	591
2	0	0	0	0	519	590
3	0	0	0	0	519	590
4	0	0	0	0	519	591
5	0	0	0	0	518	591
6	0	0	0	0	518	591
7	0	0	0	0	517	591
8	0	0	0	0	516	592
9	0	0	0	0	515	591
10	0	0	0	0	515	592
11	0	0	0	0	513	592
12	0	0	0	0	512	591
13	0	0	0	0	511	591
14	0	0	0	0	511	591
15	0	0	0	0	510	591
0	0	0	0	0	510	591
1	0	0	0	0	510	590
2	0	0	0	0	510	591
3	0	0	0	0	510	591
4	0	0	0	0	510	590
5	0	0	0	0	509	590
6	0	0	0	0	508	590
7	0	0	0	0	508	590
8	0	0	0	0	507	590
9	0	0	0	0	505	590
10	0	0	0	0	505	590
11	0	0	0	0	505	590
12	0	0	0	0	505	591
13	0	0	0	0	506	590
14	0	0	0	0	506	590
15	0	0	0	0	507	590
0	0	0	0	0	508	590
1	0	0	0	0	508	590
2	0	0	0	0	508	591
3	0	0	0	0	509	591
4	0	0	0	0	508	590
5	0	0	0	0	507	591
6	0	0	0	0	508	590
7	0	0	0	0	508	591
8	0	0	0	0	507	590
9	0	0	0	0	507	590
10	0	0	0	0	506	591
11	0	0	0	0	505	590
12	0	0	0	0	505	590
13	0	0	0	0	505	590
14	0	0	0	0	505	590
15	0	0	0	0	505	591
0	0	0	0	0	505	591
1	0	0	0	0	505	591
2	0	0	0	0	505	591
3	0	0	0	0	505	591
4	0	0	0	0	506	591
5	0	0	0	0	507	591
6	0	0	0	0	507	591
7	0	0	0	0	507	591
8	0	0	0	0	507	591
9	0	0	0	0	506	591
10	0	0	0	0	505	591
11	0	0	0	0	505	592
12	0	0	0	0	505	591
13	0	0	0	0	505	591
14	0	0	0	0	504	591
15	0	0	0	0	504	591
0	0	0	0	0	504	591
1	0	0	0	0	504	591
2	0	0	0	0	503	591
3	0	0	0	0	503	591
4	0	0	0	0	503	590
5	0	0	0	0	504	590
6	0	0	0	0	504	590
7	0	0	0	0	504	590
8	0	0	0	0	504	590
9	0	0	0	0	504	589
10	0	0	0	0	505	589
11	0	0	0	0	505	590
12	0	0	0	0	505	590
13	0	0	0	0	505	589
14	0	0	0	0	505	589
15	0	0	0	0	505	589
0	0	0	0	0	505	588
1	0	0	0	0	504	588
2	0	0	0	0	504	589
3	0	0	0	0	504	588
4	0	0	0	0	503	589
5	0	0	0	0	504	588
6	0	0	0	0	504	589
7	0	0	0	0	505	589
8	0	0	0	0	505	590
9	0	0	0	0	505	590
10	0	0	0	0	506	590
11	0	0	0	0	506	590
12	0	0	0	0	506	590
13	0	0	0	0	507	590
14	0	0	0	0	507	591
15	0	0	0	0	507	591
0	0	0	0	0	507	591
1	0	0	0	0	506	590
2	0	0	0	0	505	590
3	0	0	0	0	504	590
4	0	0	0	0	503	590
5	0	0	0	0	503	590
6	0	0	0	0	501	590
7	0	0	0	0	499	590
8	0	0	0	0	497	590
9	0	0	0	0	495	589
10	0	0	0	0	492	589
11	0	0	0	0	489	589
12	0	0	0	0	486	590
13	0	0	0	0	483	589
14	0	0	0	0	482	590
15	0	0	0	0	480	589
0	0	0	0	0	479	590
1	0	0	0	0	477	590
2	0	0	0	0	475	590
3	0	0	0	0	473	590
4	0	0	0	0	471	591
5	0	0	0	0	468	590
6	0	0	0	0	465	591
7	0	0	0	0	463	590
8	0	0	0	0	460	590
9	0	0	0	0	459	590
10	0	0	0	0	457	590
11	0	0	0	0	457	590
12	0	0	0	0	458	591
13	0	0	0	0	460	590
14	0	0	0	0	462	591
15	0	0	0	0	465	591
0	0	0	0	0	469	591
1	0	0	0	0	473	591
2	0	0	0	0	478	591
3	0	0	0	0	483	590
4	0	0	0	0	488	591
5	0	0	0	0	497	590
6	0	0	0	0	508	591
7	0	0	0	0	519	590
8	0	0	0	0	532	591
9	0	0	0	0	550	591
10	0	0	0	0	567	591
11	0	0	0	0	581	591
12	0	0	0	0	593	590
13	0	0	0	0	601	590
14	0	0	0	0	606	589
15	0	0	0	0	609	589
0	0	0	0	0	615	590
1	0	0	0	0	623	590
2	0	0	0	0	634	590
3	0	0	0	0	646	589
4	0	0	0	0	659	590
5	0	0	0	0	674	590
6	0	0	0	0	687	589
7	0	0	0	0	701	590
8	0	0	0	0	715	590
9	0	0	0	0	724	590
10	0	0	0	0	728	590
11	0	0	0	0	725	589
12	0	0	0	0	719	589
13	0	0	0	0	711	590
14	0	0	0	0	701	590
15	0	0	0	0	690	589
0	0	0	0	0	680	589
1	0	0	0	0	670	589
2	0	0	0	0	661	589
3	0	0	0	0	652	590
4	0	0	0	0	641	590
5	0	0	0	0	631	589
6	0	0	0	0	619	589
7	0	0	0	0	609	589
8	0	0	0	0	598	589
9	0	0	0	0	588	590
10	0	0	0	0	579	590
11	0	0	0	0	572	590
12	0	0	0	0	563	590
13	0	0	0	0	556	590
14	0	0	0	0	549	590
15	0	0	0	0	541	590
0	0	0	0	0	534	590
1	0	0	0	0	527	590
2	0	0	0	0	519	590
3	0	0	0	0	512	589
4	0	0	0	0	506	590
5	0	0	0	0	499	589
6	0	0	0	0	493	590
7	0	0	0	0	487	590
8	0	0	0	0	483	590
9	0	0	0	0	478	589
10	0	0	0	0	473	590
11	0	0	0	0	468	590
12	0	0	0	0	465	589
13	0	0	0	0	462	590
14	0	0	0	0	459	590
15	0	0	0	0	456	590
0	0	0	0	0	455	590
1	0	0	0	0	454	590
2	0	0	0	0	452	589
3	0	0	0	0	451	590
4	0	0	0	0	450	590
5	0	0	0	0	450	589
6	0	0	0	0	449	590
7	0	0	0	0	449	590
8	0	0	0	0	448	589
9	0	0	0	0	447	590
10	0	0	0	0	447	590
11	0	0	0	0	447	589
12	0	0	0	0	446	590
13	0	0	0	0	447	589
14	0	0	0	0	448	590
15	0	0	0	0	448	590
0	0	0	0	0	449	590
1	0	0	0	0	449	591
2	0	0	0	0	450	590
3	0	0	0	0	451	591
4	0	0	0	0	451	591
5	0	0	0	0	452	591
6	0	0	0	0	452	591
7	0	0	0	0	452	591
8	0	0	0	0	452	591
9	0	0	0	0	453	591
10	0	0	0	0	452	591
11	0	0	0	0	452	591
12	0	0	0	0	452	590
13	0	0	0	0	452	590
14	0	0	0	0	453	591
15	0	0	0	0	453	591
0	0	0	0	0	453	591
1	0	0	0	0	454	591
2	0	0	0	0	454	591
3	0	0	0	0	455	591
4	0	0	0	0	455	591
5	0	0	0	0	455	591
6	0	0	0	0	455	591
7	0	0	0	0	456	591
8	0	0	0	0	458	591
9	0	0	0	0	459	591
10	0	0	0	0	459	591
11	0	0	0	0	459	591
12	0	0	0	0	458	591
13	0	0	0	0	458	591
14	0	0	0	0	458	591
15	0	0	0	0	458	591
0	0	0	0	0	458	591
1	0	0	0	0	459	590
2	0	0	0	0	459	591
3	0	0	0	0	460	590
4	0	0	0	0	461	590
5	0	0	0	0	461	590
6	0	0	0	0	463	591
7	0	0	0	0	463	590
8	0	0	0	0	464	591
9	0	0	0	0	464	591
10	0	0	0	0	466	591
11	0	0	0	0	466	590
12	0	0	0	0	466	591
13	0	0	0	0	466	591
14	0	0	0	0	465	591
15	0	0	0	0	466	591
0	0	0	0	0	465	591
1	0	0	0	0	464	591
2	0	0	0	0	464	591
3	0	0	0	0	464	591
4	0	0	0	0	464	591
5	0	0	0	0	464	591
6	0	0	0	0	464	591
7	0	0	0	0	463	591
8	0	0	0	0	464	592
9	0	0	0	0	464	591
10	0	0	0	0	464	591
11	0	0	0	0	464	591
12	0	0	0	0	464	591
13	0	0	0	0	465	591
14	0	0	0	0	465	591
15	0	0	0	0	466	591
0	0	0	0	0	467	591
1	0	0	0	0	467	591
2	0	0	0	0	468	590
3	0	0	0	0	468	590
4	0	0	0	0	467	590
5	0	0	0	0	467	589
6	0	0	0	0	467	590
7	0	0	0	0	467	590
8	0	0	0	0	466	589
9	0	0	0	0	466	590
10	0	0	0	0	467	590
11	0	0	0	0	466	590
12	0	0	0	0	466	590
13	0	0	0	0	466	590
14	0	0	0	0	467	591
15	0	0	0	0	467	590
0	0	0	0	0	468	589
1	0	0	0	0	468	590
2	0	0	0	0	470	590
3	0	0	0	0	469	589
4	0	0	0	0	468	590
5	0	0	0	0	468	589
6	0	0	0	0	468	590
7	0	0	0	0	468	589
8	0	0	0	0	468	589
9	0	0	0	0	467	590
10	0	0	0	0	467	590
11	0	0	0	0	466	589
12	0	0	0	0	466	589
13	0	0	0	0	466	589
14	0	0	0	0	465	589
15	0	0	0	0	465	588
0	0	0	0	0	463	588
1	0	0	0	0	463	588
2	0	0	0	0	463	588
3	0	0	0	0	463	588
4	0	0	0	0	464	588
5	0	0	0	0	464	588
6	0	0	0	0	464	589
7	0	0	0	0	465	589
8	0	0	0	0	465	589
9	0	0	0	0	466	589
10	0	0	0	0	466	589
11	0	0	0	0	465	589
12	0	0	0	0	466	589
13	0	0	0	0	465	589
14	0	0	0	0	464	590
15	0	0	0	0	464	589
0	0	0	0	0	463	590
1	0	0	0	0	463	590
2	0	0	0	0	463	590
3	0	0	0	0	463	590
4	0	0	0	0	463	591
5	0	0	0	0	462	590
6	0	0	0	0	463	591
7	0	0	0	0	463	590
8	0	0	0	0	463	590
9	0	0	0	0	464	590
10	0	0	0	0	465	591
11	0	0	0	0	466	591
12	0	0	0	0	466	590
13	0	0	0	0	467	590
14	0	0	0	0	468	591
15	0	0	0	0	468	590
0	0	0	0	0	468	590
1	0	0	0	0	468	590
2	0	0	0	0	468	590
3	0	0	0	0	469	590
4	0	0	0	0	469	590
5	0	0	0	0	470	590
6	0	0	0	0	471	591
7	0	0	0	0	471	590
8	0	0	0	0	472	591
9	0	0	0	0	472	591
10	0	0	0	0	472	591
11	0	0	0	0	473	591
12	0	0	0	0	473	591
13	0	0	0	0	474	591
14	0	0	0	0	474	591
15	0	0	0	0	476	591
0	0	0	0	0	476	592
1	0	0	0	0	477	591
2	0	0	0	0	479	592
3	0	0	0	0	480	592
4	0	0	0	0	480	592
5	0	0	0	0	481	592
6	0	0	0	0	483	592
7	0	0	0	0	483	592
8	0	0	0	0	484	591
9	0	0	0	0	486	591
10	0	0	0	0	487	592
11	0	0	0	0	489	591
12	0	0	0	0	490	592
13	0	0	0	0	492	592
14	0	0	0	0	494	592
15	0	0	0	0	496	592
0	0	0	0	0	498	592
1	0	0	0	0	500	592
2	0	0	0	0	501	591
3	0	0	0	0	503	592
4	0	0	0	0	504	592
5	0	0	0	0	506	591
6	0	0	0	0	507	592
7	0	0	0	0	510	592
8	0	0	0	0	511	592
9	0	0	0	0	512	592
10	0	0	0	0	513	591
11	0	0	0	0	515	592
12	0	0	0	0	516	591
13	0	0	0	0	518	591
14	0	0	0	0	520	591
15	0	0	0	0	522	591
0	0	0	0	0	524	590
1	0	0	0	0	527	590
2	0	0	0	0	528	589
3	0	0	0	0	531	589
4	0	0	0	0	533	589
5	0	0	0	0	535	589
6	0	0	0	0	537	588
7	0	0	0	0	539	588
8	0	0	0	0	540	588
9	0	0	0	0	542	588
10	0	0	0	0	542	588
11	0	0	0	0	543	588
12	0	0	0	0	544	588
13	0	0	0	0	543	589
14	0	0	0	0	543	589
15	0	0	0	0	544	590
0	0	0	0	0	544	589
1	0	0	0	0	544	589
2	0	0	0	0	544	590
3	0	0	0	0	544	589
4	0	0	0	0	545	589
5	0	0	0	0	545	589
6	0	0	0	0	545	589
7	0	0	0	0	547	589
8	0	0	0	0	548	589
9	0	0	0	0	549	589
10	0	0	0	0	550	589
11	0	0	0	0	551	589
12	0	0	0	0	551	589
13	0	0	0	0	551	589
14	0	0	0	0	552	589
15	0	0	0	0	552	589
0	0	0	0	0	551	588
1	0	0	0	0	551	589
2	0	0	0	0	551	588
3	0	0	0	0	550	589
4	0	0	0	0	549	589
5	0	0	0	0	549	589
6	0	0	0	0	548	590
7	0	0	0	0	547	589
8	0	0	0	0	547	590
9	0	0	0	0	547	590
10	0	0	0	0	547	590
11	0	0	0	0	548	590
12	0	0	0	0	547	589
13	0	0	0	0	548	590
14	0	0	0	0	549	590
15	0	0	0	0	549	590
0	0	0	0	0	548	591
1	0	0	0	0	548	591
2	0	0	0	0	547	591
3	0	0	0	0	548	591
4	0	0	0	0	547	591
5	0	0	0	0	547	591
6	0	0	0	0	547	591
7	0	0	0	0	546	591
8	0	0	0	0	546	591
9	0	0	0	0	545	591
10	0	0	0	0	545	591
11	0	0	0	0	544	591
12	0	0	0	0	543	590
13	0	0	0	0	544	591
14	0	0	0	0	544	591
15	0	0	0	0	545	591
0	0	0	0	0	545	590
1	0	0	0	0	545	591
2	0	0	0	0	545	591
3	0	0	0	0	545	590
4	0	0	0	0	545	590
5	0	0	0	0	545	590
6	0	0	0	0	544	590
7	0	0	0	0	543	590
8	0	0	0	0	543	589
9	0	0	0	0	543	589
10	0	0	0	0	542	589
11	0	0	0	0	542	589
12	0	0	0	0	541	589
13	0	0	0	0	541	589
14	0	0	0	0	541	589
15	0	0	0	0	540	590
0	0	0	0	0	541	589
1	0	0	0	0	540	590
2	0	0	0	0	541	590
3	0	0	0	0	540	590
4	0	0	0	0	541	590
5	0	0	0	0	541	590
6	0	0	0	0	541	590
7	0	0	0	0	540	590
8	0	0	0	0	540	590
9	0	0	0	0	539	590
10	0	0	0	0	539	590
11	0	0	0	0	538	589
12	0	0	0	0	538	590
13	0	0	0	0	537	590
14	0	0	0	0	537	590
15	0	0	0	0	536	590
0	0	0	0	0	536	590
1	0	0	0	0	536	590
2	0	0	0	0	537	591
3	0	0	0	0	536	590
4	0	0	0	0	535	590
5	0	0	0	0	535	591
6	0	0	0	0	534	591
7	0	0	0	0	533	590
8	0	0	0	0	533	590
9	0	0	0	0	533	591
10	0	0	0	0	532	590
11	0	0	0	0	533	589
12	0	0	0	0	533	589
13	0	0	0	0	532	589
14	0	0	0	0	532	590
15	0	0	0	0	532	589
0	0	0	0	0	531	590
1	0	0	0	0	531	590
2	0	0	0	0	530	590
3	0	0	0	0	530	590
4	0	0	0	0	529	590
5	0	0	0	0	529	591
6	0	0	0	0	528	591
7	0	0	0	0	528	591
8	0	0	0	0	528	590
9	0	0	0	0	527	590
10	0	0	0	0	528	589
11	0	0	0	0	528	590
12	0	0	0	0	528	590
13	0	0	0	0	529	590
14	0	0	0	0	529	589
15	0	0	0	0	529	588
0	0	0	0	0	529	588
1	0	0	0	0	529	588
2	0	0	0	0	529	588
3	0	0	0	0	528	588
4	0	0	0	0	527	588
5	0	0	0	0	527	588
6	0	0	0	0	526	588
7	0	0	0	0	526	588
8	0	0	0	0	524	588
9	0	0	0	0	524	588
10	0	0	0	0	524	588
11	0	0	0	0	524	588
12	0	0	0	0	524	588
13	0	0	0	0	525	588
14	0	0	0	0	525	589
15	0	0	0	0	525	589
0	0	0	0	0	525	589
1	0	0	0	0	524	590
2	0	0	0	0	524	590
3	0	0	0	0	524	590
4	0	0	0	0	524	590
5	0	0	0	0	524	590
6	0	0	0	0	524	590
7	0	0	0	0	525	590
8	0	0	0	0	525	590
9	0	0	0	0	525	590
10	0	0	0	0	524	590
11	0	0	0	0	524	590
12	0	0	0	0	524	590
13	0	0	0	0	524	589
14	0	0	0	0	524	590
15	0	0	0	0	524	589
0	0	0	0	0	524	589
1	0	0	0	0	524	589
2	0	0	0	0	524	589
3	0	0	0	0	524	589
4	0	0	0	0	523	589
5	0	0	0	0	523	589
6	0	0	0	0	522	589
7	0	0	0	0	522	588
8	0	0	0	0	521	589
9	0	0	0	0	521	589
10	0	0	0	0	521	589
11	0	0	0	0	521	588
12	0	0	0	0	521	589
13	0	0	0	0	520	589
14	0	0	0	0	519	590
15	0	0	0	0	519	590
0	0	0	0	0	519	589
1	0	0	0	0	518	590
2	0	0	0	0	518	590
3	0	0	0	0	519	590
4	0	0	0	0	518	590
5	0	0	0	0	519	590
6	0	0	0	0	519	590
7	0	0	0	0	519	590
8	0	0	0	0	520	590
9	0	0	0	0	520	590
10	0	0	0	0	520	590
11	0	0	0	0	520	590
12	0	0	0	0	520	590
13	0	0	0	0	520	590
14	0	0	0	0	519	590
15	0	0	0	0	519	590
0	0	0	0	0	519	591
1	0	0	0	0	519	591
2	0	0	0	0	518	591
3	0	0	0	0	517	591
4	0	0	0	0	517	591
5	0	0	0	0	516	591
6	0	0	0	0	516	592
7	0	0	0	0	516	591
8	0	0	0	0	516	591
9	0	0	0	0	516	591
10	0	0	0	0	515	591
11	0	0	0	0	515	591
12	0	0	0	0	515	591
13	0	0	0	0	514	591
14	0	0	0	0	514	591
15	0	0	0	0	514	591
0	0	0	0	0	514	591
1	0	0	0	0	514	591
2	0	0	0	0	514	590
3	0	0	0	0	513	591
4	0	0	0	0	512	591
5	0	0	0	0	513	591
6	0	0	0	0	513	591
7	0	0	0	0	512	591
8	0	0	0	0	512	591
9	0	0	0	0	512	591
10	0	0	0	0	512	592
11	0	0	0	0	512	591
12	0	0	0	0	511	591
13	0	0	0	0	511	591
14	0	0	0	0	511	591
15	0	0	0	0	511	590
0	0	0	0	0	511	591
1	0	0	0	0	511	591
2	0	0	0	0	512	591
3	0	0	0	0	512	591
4	0	0	0	0	512	591
5	0	0	0	0	513	591
6	0	0	0	0	513	591
7	0	0	0	0	513	591
8	0	0	0	0	512	591
9	0	0	0	0	512	591
10	0	0	0	0	511	591
11	0	0	0	0	511	590
12	0	0	0	0	510	590
13	0	0	0	0	510	590
14	0	0	0	0	510	590
15	0	0	0	0	511	589
0	0	0	0	0	511	590
1	0	0	0	0	511	589
2	0	0	0	0	512	589
3	0	0	0	0	513	590
4	0	0	0	0	513	589
5	0	0	0	0	513	589
6	0	0	0	0	513	589
7	0	0	0	0	513	589
8	0	0	0	0	514	589
9	0	0	0	0	513	589
10	0	0	0	0	513	589
11	0	0	0	0	513	589
12	0	0	0	0	513	590
13	0	0	0	0	513	589
14	0	0	0	0	513	589
15	0	0	0	0	512	589
0	0	0	0	0	512	590
1	0	0	0	0	512	590
2	0	0	0	0	512	590
3	0	0	0	0	512	589
4	0	0	0	0	513	590
5	0	0	0	0	513	590
6	0	0	0	0	514	591
7	0	0	0	0	515	590
8	0	0	0	0	515	590
9	0	0	0	0	516	590
10	0	0	0	0	516	589
11	0	0	0	0	517	590
12	0	0	0	0	517	589
13	0	0	0	0	518	590
14	0	0	0	0	518	590
15	0	0	0	0	518	589
0	0	0	0	0	518	590
1	0	0	0	0	518	590
2	0	0	0	0	517	589
3	0	0	0	0	516	589
4	0	0	0	0	515	589
5	0	0	0	0	515	589
6	0	0	0	0	515	588
7	0	0	0	0	515	588
8	0	0	0	0	514	589
9	0	0	0	0	514	588
10	0	0	0	0	514	589
11	0	0	0	0	515	590
12	0	0	0	0	515	589
13	0	0	0	0	515	590
14	0	0	0	0	515	590
15	0	0	0	0	515	589
0	0	0	0	0	515	590
1	0	0	0	0	515	590
2	0	0	0	0	515	590
3	0	0	0	0	515	590
4	0	0	0	0	514	590
5	0	0	0	0	513	589
6	0	0	0	0	512	589
7	0	0	0	0	512	589
8	0	0	0	0	511	589
9	0	0	0	0	511	589
10	0	0	0	0	510	589
11	0	0	0	0	510	589
12	0	0	0	0	510	589
13	0	0	0	0	510	589
14	0	0	0	0	510	590
15	0	0	0	0	511	589
0	0	0	0	0	512	590
1	0	0	0	0	512	589
2	0	0	0	0	513	590
3	0	0	0	0	513	590
4	0	0	0	0	513	589
5	0	0	0	0	513	590
6	0	0	0	0	514	590
7	0	0	0	0	513	589
8	0	0	0	0	513	589
9	0	0	0	0	512	589
10	0	0	0	0	512	589
11	0	0	0	0	512	590
12	0	0	0	0	512	589
13	0	0	0	0	512	590
14	0	0	0	0	511	590
15	0	0	0	0	510	590
0	0	0	0	0	510	589
1	0	0	0	0	510	588
2	0	0	0	0	509	589
3	0	0	0	0	510	589
4	0	0	0	0	510	589
5	0	0	0	0	511	590
6	0	0	0	0	511	590
7	0	0	0	0	511	589
8	0	0	0	0	512	589
9	0	0	0	0	512	589
10	0	0	0	0	512	590
11	0	0	0	0	512	589
12	0	0	0	0	512	590
13	0	0	0	0	512	590
14	0	0	0	0	511	591
15	0	0	0	0	510	590
0	0	0	0	0	509	591
1	0	0	0	0	509	591
2	0	0	0	0	510	591
3	0	0	0	0	509	590
4	0	0	0	0	509	591
5	0	0	0	0	508	590
6	0	0	0	0	509	590
7	0	0	0	0	509	591
8	0	0	0	0	510	591
9	0	0	0	0	510	590
10	0	0	0	0	511	590
11	0	0	0	0	511	590
12	0	0	0	0	511	591
13	0	0	0	0	512	590
14	0	0	0	0	512	590
15	0	0	0	0	512	590
0	0	0	0	0	511	590
1	0	0	0	0	511	590
2	0	0	0	0	511	590
3	0	0	0	0	510	590
4	0	0	0	0	510	590
5	0	0	0	0	510	590
6	0	0	0	0	510	591
7	0	0	0	0	510	590
8	0	0	0	0	510	590
9	0	0	0	0	510	591
10	0	0	0	0	511	590
11	0	0	0	0	510	590
12	0	0	0	0	511	590
13	0	0	0	0	511	590
14	0	0	0	0	512	591
15	0	0	0	0	512	590
0	0	0	0	0	512	590
1	0	0	0	0	513	590
2	0	0	0	0	513	590
3	0	0	0	0	513	590
4	0	0	0	0	512	590
5	0	0	0	0	512	589
6	0	0	0	0	512	590
7	0	0	0	0	512	590
8	0	0	0	0	511	589
9	0	0	0	0	511	589
10	0	0	0	0	511	590
11	0	0	0	0	510	590
12	0	0	0	0	510	590
13	0	0	0	0	510	590
14	0	0	0	0	510	591
15	0	0	0	0	510	590
0	0	0	0	0	511	590
1	0	0	0	0	513	590
2	0	0	0	0	515	590
3	0	0	0	0	516	590
4	0	0	0	0	518	590
5	0	0	0	0	518	589
6	0	0	0	0	519	590
7	0	0	0	0	519	590
8	0	0	0	0	520	590
9	0	0	0	0	520	590
10	0	0	0	0	520	590
11	0	0	0	0	520	590
12	0	0	0	0	520	590
13	0	0	0	0	520	590
14	0	0	0	0	520	590
15	0	0	0	0	520	590
0	0	0	0	0	520	590
1	0	0	0	0	520	590
2	0	0	0	0	520	590
3	0	0	0	0	521	590
4	0	0	0	0	521	590
5	0	0	0	0	522	590
6	0	0	0	0	524	590
7	0	0	0	0	524	589
8	0	0	0	0	525	590
9	0	0	0	0	526	590
10	0	0	0	0	527	590
11	0	0	0	0	526	589
12	0	0	0	0	525	589
13	0	0	0	0	524	589
14	0	0	0	0	524	590
15	0	0	0	0	523	590
0	0	0	0	0	521	589
1	0	0	0	0	521	589
2	0	0	0	0	520	590
3	0	0	0	0	519	590
4	0	0	0	0	519	591
5	0	0	0	0	519	590
6	0	0	0	0	518	590
7	0	0	0	0	518	590
8	0	0	0	0	518	590
9	0	0	0	0	517	590
10	0	0	0	0	516	589
11	0	0	0	0	515	590
12	0	0	0	0	514	590
13	0	0	0	0	513	590
14	0	0	0	0	513	590
15	0	0	0	0	512	590
0	0	0	0	0	511	590
1	0	0	0	0	511	590
2	0	0	0	0	510	590
3	0	0	0	0	510	590
4	0	0	0	0	509	590
5	0	0	0	0	509	590
6	0	0	0	0	508	590
7	0	0	0	0	508	590
8	0	0	0	0	508	591
9	0	0	0	0	507	590
10	0	0	0	0	507	590
11	0	0	0	0	507	590
12	0	0	0	0	507	590
13	0	0	0	0	508	590
14	0	0	0	0	508	590
15	0	0	0	0	508	590
0	0	0	0	0	508	590
1	0	0	0	0	508	590
2	0	0	0	0	508	590
3	0	0	0	0	508	590
4	0	0	0	0	508	590
5	0	0	0	0	508	589
6	0	0	0	0	507	590
7	0	0	0	0	507	590
8	0	0	0	0	506	590
9	0	0	0	0	506	590
10	0	0	0	0	507	590
11	0	0	0	0	506	590
12	0	0	0	0	506	591
13	0	0	0	0	507	590
14	0	0	0	0	507	591
15	0	0	0	0	507	591
0	0	0	0	0	507	591
1	0	0	0	0	508	591
2	0	0	0	0	508	590
3	0	0	0	0	508	591
4	0	0	0	0	509	591
5	0	0	0	0	510	590
6	0	0	0	0	509	591
7	0	0	0	0	508	590
8	0	0	0	0	508	590
9	0	0	0	0	508	590
10	0	0	0	0	507	590
11	0	0	0	0	506	590
12	0	0	0	0	506	590
13	0	0	0	0	506	589
14	0	0	0	0	505	589
15	0	0	0	0	506	589
0	0	0	0	0	505	589
1	0	0	0	0	506	589
2	0	0	0	0	506	589
3	0	0	0	0	507	589
4	0	0	0	0	507	588
5	0	0	0	0	508	589
6	0	0	0	0	509	589
7	0	0	0	0	510	588
8	0	0	0	0	510	588
9	0	0	0	0	510	589
10	0	0	0	0	510	588
11	0	0	0	0	509	588
12	0	0	0	0	509	588
13	0	0	0	0	508	588
14	0	0	0	0	508	588
15	0	0	0	0	508	588
0	0	0	0	0	508	588
1	0	0	0	0	508	588
2	0	0	0	0	508	588
3	0	0	0	0	508	588
4	0	0	0	0	508	588
5	0	0	0	0	509	587
6	0	0	0	0	509	588
7	0	0	0	0	509	587
8	0	0	0	0	510	587
9	0	0	0	0	510	586
10	0	0	0	0	510	586
11	0	0	0	0	510	586
12	0	0	0	0	510	587
13	0	0	0	0	510	587
14	0	0	0	0	510	587
15	0	0	0	0	509	587
0	0	0	0	0	508	587
1	0	0	0	0	507	588
2	0	0	0	0	506	588
3	0	0	0	0	505	588
4	0	0	0	0	503	588
5	0	0	0	0	502	588
6	0	0	0	0	500	589
7	0	0	0	0	499	589
8	0	0	0	0	497	589
9	0	0	0	0	494	590
10	0	0	0	0	492	590
11	0	0	0	0	488	590
12	0	0	0	0	485	590
13	0	0	0	0	482	590
14	0	0	0	0	479	591
15	0	0	0	0	476	591
0	0	0	0	0	473	590
1	0	0	0	0	470	591
2	0	0	0	0	467	591
3	0	0	0	0	465	590
4	0	0	0	0	463	590
5	0	0	0	0	460	590
6	0	0	0	0	458	591
7	0	0	0	0	456	590
8	0	0	0	0	454	590
9	0	0	0	0	452	590
10	0	0	0	0	451	590
11	0	0	0	0	450	590
12	0	0	0	0	450	590
13	0	0	0	0	451	590
14	0	0	0	0	451	590
15	0	0	0	0	454	591
0	0	0	0	0	458	591
1	0	0	0	0	462	591
2	0	0	0	0	467	591
3	0	0	0	0	473	591
4	0	0	0	0	481	591
5	0	0	0	0	492	591
6	0	0	0	0	503	591
7	0	0	0	0	516	591
8	0	0	0	0	532	591
9	0	0	0	0	551	591
10	0	0	0	0	569	591
11	0	0	0	0	584	591
12	0	0	0	0	597	591
13	0	0	0	0	606	591
14	0	0	0	0	612	591
15	0	0	0	0	618	591
0	0	0	0	0	626	591
1	0	0	0	0	637	591
2	0	0	0	0	653	590
3	0	0	0	0	671	590
4	0	0	0	0	688	590
5	0	0	0	0	705	590
6	0	0	0	0	721	590
7	0	0	0	0	736	589
8	0	0	0	0	748	589
9	0	0	0	0	755	589
10	0	0	0	0	756	589
11	0	0	0	0	753	589
12	0	0	0	0	745	589
13	0	0	0	0	736	589
14	0	0	0	0	725	589
15	0	0	0	0	714	589
0	0	0	0	0	703	589
1	0	0	0	0	691	590
2	0	0	0	0	680	590
3	0	0	0	0	669	590
4	0	0	0	0	658	590
5	0	0	0	0	646	590
6	0	0	0	0	633	590
7	0	0	0	0	621	590
8	0	0	0	0	609	591
9	0	0	0	0	598	591
10	0	0	0	0	588	591
11	0	0	0	0	579	591
12	0	0	0	0	570	591
13	0	0	0	0	562	591
14	0	0	0	0	553	591
15	0	0	0	0	544	591
0	0	0	0	0	535	591
1	0	0	0	0	525	591
2	0	0	0	0	516	591
3	0	0	0	0	508	591
4	0	0	0	0	500	592
5	0	0	0	0	493	591
6	0	0	0	0	486	592
7	0	0	0	0	480	591
8	0	0	0	0	475	592
9	0	0	0	0	469	592
10	0	0	0	0	464	591
11	0	0	0	0	460	591
12	0	0	0	0	457	592
13	0	0	0	0	454	591
14	0	0	0	0	451	591
15	0	0	0	0	449	591
0	0	0	0	0	448	591
1	0	0	0	0	447	591
2	0	0	0	0	446	591
3	0	0	0	0	445	591
4	0	0	0	0	444	591
5	0	0	0	0	443	590
6	0	0	0	0	442	590
7	0	0	0	0	442	589
8	0	0	0	0	441	589
9	0	0	0	0	441	589
10	0	0	0	0	441	588
11	0	0	0	0	441	588
12	0	0	0	0	441	588
13	0	0	0	0	442	588
14	0	0	0	0	442	588
15	0	0	0	0	443	588
0	0	0	0	0	443	588
1	0	0	0	0	444	588
2	0	0	0	0	445	588
3	0	0	0	0	445	588
4	0	0	0	0	445	589
5	0	0	0	0	446	589
6	0	0	0	0	446	589
7	0	0	0	0	446	589
8	0	0	0	0	446	588
9	0	0	0	0	445	589
10	0	0	0	0	445	589
11	0	0	0	0	444	588
12	0	0	0	0	444	589
13	0	0	0	0	445	588
14	0	0	0	0	446	588
15	0	0	0	0	446	588
0	0	0	0	0	447	588
1	0	0	0	0	448	588
2	0	0	0	0	449	588
3	0	0	0	0	449	588
4	0	0	0	0	451	589
5	0	0	0	0	452	588
6	0	0	0	0	453	589
7	0	0	0	0	454	589
8	0	0	0	0	455	589
9	0	0	0	0	455	589
10	0	0	0	0	456	590
11	0	0	0	0	456	589
12	0	0	0	0	456	589
13	0	0	0	0	456	589
14	0	0	0	0	457	590
15	0	0	0	0	457	589
0	0	0	0	0	456	590
1	0	0	0	0	456	590
2	0	0	0	0	455	590
3	0	0	0	0	456	591
4	0	0	0	0	455	590
5	0	0	0	0	456	591
6	0	0	0	0	456	591
7	0	0	0	0	457	591
8	0	0	0	0	457	591
9	0	0	0	0	458	591
10	0	0	0	0	459	591
11	0	0	0	0	461	591
12	0	0	0	0	462	591
13	0	0	0	0	462	591
14	0	0	0	0	463	591
15	0	0	0	0	462	590
0	0	0	0	0	462	590
1	0	0	0	0	463	590
2	0	0	0	0	463	590
3	0	0	0	0	463	591
4	0	0	0	0	463	590
5	0	0	0	0	462	590
6	0	0	0	0	463	590
7	0	0	0	0	462	590
8	0	0	0	0	462	589
9	0	0	0	0	462	589
10	0	0	0	0	462	589
11	0	0	0	0	462	589
12	0	0	0	0	463	589
13	0	0	0	0	463	589
14	0	0	0	0	464	589
15	0	0	0	0	464	589
0	0	0	0	0	465	589
1	0	0	0	0	465	588
2	0	0	0	0	464	589
3	0	0	0	0	463	588
4	0	0	0	0	463	588
5	0	0	0	0	463	588
6	0	0	0	0	462	589
7	0	0	0	0	461	588
8	0	0	0	0	461	588
9	0	0	0	0	461	588
10	0	0	0	0	461	588
11	0	0	0	0	462	588
12	0	0	0	0	462	588
13	0	0	0	0	462	588
14	0	0	0	0	462	589
15	0	0	0	0	462	588
0	0	0	0	0	462	587
1	0	0	0	0	462	588
2	0	0	0	0	462	588
3	0	0	0	0	463	588
4	0	0	0	0	463	588
5	0	0	0	0	462	587
6	0	0	0	0	462	588
7	0	0	0	0	461	588
8	0	0	0	0	461	588
9	0	0	0	0	461	588
10	0	0	0	0	460	588
11	0	0	0	0	459	588
12	0	0	0	0	458	588
13	0	0	0	0	457	589
14	0	0	0	0	457	589
15	0	0	0	0	456	589
0	0	0	0	0	455	589
1	0	0	0	0	455	589
2	0	0	0	0	455	589
3	0	0	0	0	455	589
4	0	0	0	0	455	589
5	0	0	0	0	455	590
6	0	0	0	0	455	590
7	0	0	0	0	456	590
8	0	0	0	0	456	591
9	0	0	0	0	456	590
10	0	0	0	0	457	591
11	0	0	0	0	456	590
12	0	0	0	0	456	590
13	0	0	0	0	456	590
14	0	0	0	0	456	591
15	0	0	0	0	456	590
0	0	0	0	0	456	590
1	0	0	0	0	455	591
2	0	0	0	0	455	590
3	0	0	0	0	455	591
4	0	0	0	0	456	591
5	0	0	0	0	457	591
6	0	0	0	0	457	591
7	0	0	0	0	458	591
8	0	0	0	0	459	591
9	0	0	0	0	459	591
10	0	0	0	0	459	591
11	0	0	0	0	459	591
12	0	0	0	0	459	591
13	0	0	0	0	459	591
14	0	0	0	0	460	591
15	0	0	0	0	460	591
0	0	0	0	0	460	591
1	0	0	0	0	459	591
2	0	0	0	0	460	592
3	0	0	0	0	460	591
4	0	0	0	0	459	591
5	0	0	0	0	460	591
6	0	0	0	0	460	591
7	0	0	0	0	460	591
8	0	0	0	0	461	590
9	0	0	0	0	462	590
10	0	0	0	0	462	590
11	0	0	0	0	463	590
12	0	0	0	0	464	590
13	0	0	0	0	466	590
14	0	0	0	0	467	590
15	0	0	0	0	468	590
0	0	0	0	0	469	590
1	0	0	0	0	470	589
2	0	0	0	0	470	589
3	0	0	0	0	471	589
4	0	0	0	0	472	589
5	0	0	0	0	473	589
6	0	0	0	0	474	589
7	0	0	0	0	476	588
8	0	0	0	0	477	588
9	0	0	0	0	478	588
10	0	0	0	0	480	589
11	0	0	0	0	481	589
12	0	0	0	0	483	588
13	0	0	0	0	485	588
14	0	0	0	0	486	588
15	0	0	0	0	488	589
0	0	0	0	0	490	589
1	0	0	0	0	492	589
2	0	0	0	0	494	590
3	0	0	0	0	496	590
4	0	0	0	0	499	590
5	0	0	0	0	500	589
6	0	0	0	0	502	590
7	0	0	0	0	503	590
8	0	0	0	0	505	591
9	0	0	0	0	507	591
10	0	0	0	0	510	590
11	0	0	0	0	512	590
12	0	0	0	0	513	590
13	0	0	0	0	515	590
14	0	0	0	0	516	590
15	0	0	0	0	519	590
0	0	0	0	0	520	590
1	0	0	0	0	523	590
2	0	0	0	0	525	589
3	0	0	0	0	527	589
4	0	0	0	0	529	589
5	0	0	0	0	532	589
6	0	0	0	0	534	589
7	0	0	0	0	536	588
8	0	0	0	0	538	588
9	0	0	0	0	539	588
10	0	0	0	0	541	588
11	0	0	0	0	542	588
12	0	0	0	0	543	588
13	0	0	0	0	543	588
14	0	0	0	0	543	589
15	0	0	0	0	543	588
0	0	0	0	0	544	588
1	0	0	0	0	544	589
2	0	0	0	0	545	588
3	0	0	0	0	545	589
4	0	0	0	0	546	589
5	0	0	0	0	547	588
6	0	0	0	0	547	589
7	0	0	0	0	547	589
8	0	0	0	0	548	588
9	0	0	0	0	549	589
10	0	0	0	0	550	588
11	0	0	0	0	551	589
12	0	0	0	0	551	589
13	0	0	0	0	552	589
14	0	0	0	0	552	590
15	0	0	0	0	551	589
0	0	0	0	0	551	590
1	0	0	0	0	551	590
2	0	0	0	0	550	590
3	0	0	0	0	550	590
4	0	0	0	0	549	590
5	0	0	0	0	548	590
6	0	0	0	0	548	591
7	0	0	0	0	548	590
8	0	0	0	0	549	590
9	0	0	0	0	550	590
10	0	0	0	0	550	590
11	0	0	0	0	550	590
12	0	0	0	0	551	589
13	0	0	0	0	551	590
14	0	0	0	0	551	590
15	0	0	0	0	551	589
0	0	0	0	0	551	589
1	0	0	0	0	551	589
2	0	0	0	0	550	590
3	0	0	0	0	550	589
4	0	0	0	0	550	590
5	0	0	0	0	549	590
6	0	0	0	0	549	590
7	0	0	0	0	548	589
8	0	0	0	0	547	589
9	0	0	0	0	547	589
10	0	0	0	0	547	589
11	0	0	0	0	547	590
12	0	0	0	0	546	590
13	0	0	0	0	546	590
14	0	0	0	0	547	590
15	0	0	0	0	547	590
0	0	0	0	0	546	590
1	0	0	0	0	546	589
2	0	0	0	0	546	590
3	0	0	0	0	546	589
4	0	0	0	0	546	590
5	0	0	0	0	546	590
6	0	0	0	0	546	590
7	0	0	0	0	546	591
8	0	0	0	0	545	590
9	0	0	0	0	545	590
10	0	0	0	0	545	591
11	0	0	0	0	545	591
12	0	0	0	0	544	591
13	0	0	0	0	544	591
14	0	0	0	0	543	591
15	0	0	0	0	542	591
0	0	0	0	0	542	591
1	0	0	0	0	542	591
2	0	0	0	0	541	591
3	0	0	0	0	541	591
4	0	0	0	0	541	591
5	0	0	0	0	542	591
6	0	0	0	0	541	591
7	0	0	0	0	542	591
8	0	0	0	0	543	590
9	0	0	0	0	543	590
10	0	0	0	0	542	590
11	0	0	0	0	542	590
12	0	0	0	0	541	590
13	0	0	0	0	540	590
14	0	0	0	0	540	590
15	0	0	0	0	540	589
0	0	0	0	0	539	588
1	0	0	0	0	539	588
2	0	0	0	0	538	588
3	0	0	0	0	538	589
4	0	0	0	0	537	588
5	0	0	0	0	537	588
6	0	0	0	0	536	588
7	0	0	0	0	536	588
8	0	0	0	0	536	587
9	0	0	0	0	536	587
10	0	0	0	0	536	587
11	0	0	0	0	536	588
12	0	0	0	0	536	588
13	0	0	0	0	536	587
14	0	0	0	0	535	588
15	0	0	0	0	535	588
0	0	0	0	0	534	588
1	0	0	0	0	532	588
2	0	0	0	0	532	588
3	0	0	0	0	531	588
4	0	0	0	0	530	588
5	0	0	0	0	530	588
6	0	0	0	0	529	588
7	0	0	0	0	529	588
8	0	0	0	0	529	589
9	0	0	0	0	529	589
10	0	0	0	0	529	589
11	0	0	0	0	529	589
12	0	0	0	0	529	588
13	0	0	0	0	530	588
14	0	0	0	0	531	589
15	0	0	0	0	531	589
0	0	0	0	0	532	590
1	0	0	0	0	532	590
2	0	0	0	0	532	589
3	0	0	0	0	532	589
4	0	0	0	0	531	589
5	0	0	0	0	530	589
6	0	0	0	0	529	590
7	0	0	0	0	528	589
8	0	0	0	0	527	589
9	0	0	0	0	527	589
10	0	0	0	0	527	589
11	0	0	0	0	527	589
12	0	0	0	0	527	589
13	0	0	0	0	527	590
14	0	0	0	0	527	590
15	0	0	0	0	527	590
0	0	0	0	0	528	589
1	0	0	0	0	529	589
2	0	0	0	0	529	589
3	0	0	0	0	529	589
4	0	0	0	0	529	589
5	0	0	0	0	529	589
6	0	0	0	0	529	590
7	0	0	0	0	529	590
8	0	0	0	0	527	590
9	0	0	0	0	526	589
10	0	0	0	0	525	590
11	0	0	0	0	524	590
12	0	0	0	0	523	590
13	0	0	0	0	522	590
14	0	0	0	0	521	590
15	0	0	0	0	521	590
0	0	0	0	0	522	589
1	0	0	0	0	521	590
2	0	0	0	0	523	590
3	0	0	0	0	523	590
4	0	0	0	0	523	590
5	0	0	0	0	524	590
6	0	0	0	0	524	591
7	0	0	0	0	524	590
8	0	0	0	0	525	590
9	0	0	0	0	525	590
10	0	0	0	0	525	590
11	0	0	0	0	524	590
12	0	0	0	0	524	590
13	0	0	0	0	523	591
14	0	0	0	0	522	590
15	0	0	0	0	522	590
0	0	0	0	0	521	590
1	0	0	0	0	520	590
2	0	0	0	0	519	590
3	0	0	0	0	519	590
4	0	0	0	0	519	590
5	0	0	0	0	519	590
6	0	0	0	0	519	590
7	0	0	0	0	519	590
8	0	0	0	0	519	590
9	0	0	0	0	519	591
10	0	0	0	0	519	591
11	0	0	0	0	520	591
12	0	0	0	0	521	591
13	0	0	0	0	521	591
14	0	0	0	0	521	592
15	0	0	0	0	521	591
0	0	0	0	0	520	591
1	0	0	0	0	520	591
2	0	0	0	0	519	591
3	0	0	0	0	519	591
4	0	0	0	0	518	591
5	0	0	0	0	517	591
6	0	0	0	0	516	591
7	0	0	0	0	515	591
8	0	0	0	0	515	591
9	0	0	0	0	514	591
10	0	0	0	0	514	591
11	0	0	0	0	514	591
12	0	0	0	0	513	590
13	0	0	0	0	513	590
14	0	0	0	0	513	591
15	0	0	0	0	513	590
0	0	0	0	0	513	590
1	0	0	0	0	512	591
2	0	0	0	0	512	591
3	0	0	0	0	511	590
4	0	0	0	0	512	591
5	0	0	0	0	511	591
6	0	0	0	0	511	591
7	0	0	0	0	511	591
8	0	0	0	0	511	590
9	0	0	0	0	511	591
10	0	0	0	0	510	590
11	0	0	0	0	510	590
12	0	0	0	0	510	591
13	0	0	0	0	510	590
14	0	0	0	0	510	590
15	0	0	0	0	511	589
0	0	0	0	0	512	590
1	0	0	0	0	512	590
2	0	0	0	0	512	589
3	0	0	0	0	513	589
4	0	0	0	0	513	589
5	0	0	0	0	514	589
6	0	0	0	0	514	590
7	0	0	0	0	514	589
8	0	0	0	0	514	589
9	0	0	0	0	514	590
10	0	0	0	0	514	590
11	0	0	0	0	514	590
12	0	0	0	0	514	589
13	0	0	0	0	513	589
14	0	0	0	0	512	590
15	0	0	0	0	513	590
0	0	0	0	0	512	589
1	0	0	0	0	513	589
2	0	0	0	0	512	589
3	0	0	0	0	513	589
4	0	0	0	0	513	589
5	0	0	0	0	513	589
6	0	0	0	0	514	589
7	0	0	0	0	515	588
8	0	0	0	0	514	588
9	0	0	0	0	514	588
10	0	0	0	0	514	589
11	0	0	0	0	513	588
12	0	0	0	0	513	588
13	0	0	0	0	512	589
14	0	0	0	0	512	589
15	0	0	0	0	512	588
0	0	0	0	0	511	588
1	0	0	0	0	511	588
2	0	0	0	0	510	588
3	0	0	0	0	510	588
4	0	0	0	0	510	588
5	0	0	0	0	510	588
6	0	0	0	0	510	589
7	0	0	0	0	511	588
8	0	0	0	0	511	589
9	0	0	0	0	512	589
10	0	0	0	0	511	588
11	0	0	0	0	511	589
12	0	0	0	0	511	589
13	0	0	0	0	511	589
14	0	0	0	0	511	590
15	0	0	0	0	511	589
0	0	0	0	0	510	590
1	0	0	0	0	509	590
2	0	0	0	0	508	590
3	0	0	0	0	508	590
4	0	0	0	0	508	590
5	0	0	0	0	508	590
6	0	0	0	0	508	591
7	0	0	0	0	507	590
8	0	0	0	0	507	591
9	0	0	0	0	507	591
10	0	0	0	0	507	591
11	0	0	0	0	507	591
12	0	0	0	0	506	591
13	0	0	0	0	506	591
14	0	0	0	0	507	591
15	0	0	0	0	507	592
0	0	0	0	0	507	591
1	0	0	0	0	507	591
2	0	0	0	0	507	591
3	0	0	0	0	507	591
4	0	0	0	0	507	592
5	0	0	0	0	507	591
6	0	0	0	0	506	592
7	0	0	0	0	505	592
8	0	0	0	0	505	591
9	0	0	0	0	504	592
10	0	0	0	0	504	592
11	0	0	0	0	504	591
12	0	0	0	0	504	591
13	0	0	0	0	504	591
14	0	0	0	0	504	591
15	0	0	0	0	504	591
0	0	0	0	0	505	591
1	0	0	0	0	505	590
2	0	0	0	0	506	590
3	0	0	0	0	506	590
4	0	0	0	0	506	590
5	0	0	0	0	506	589
6	0	0	0	0	505	589
7	0	0	0	0	505	588
8	0	0	0	0	505	588
9	0	0	0	0	505	588
10	0	0	0	0	505	588
11	0	0	0	0	504	588
12	0	0	0	0	504	588
13	0	0	0	0	504	588
14	0	0	0	0	503	589
15	0	0	0	0	504	588
0	0	0	0	0	504	588
1	0	0	0	0	504	588
2	0	0	0	0	505	588
3	0	0	0	0	505	588
4	0	0	0	0	506	588
5	0	0	0	0	507	588
6	0	0	0	0	507	589
7	0	0	0	0	507	588
8	0	0	0	0	508	588
9	0	0	0	0	508	588
10	0	0	0	0	508	588
11	0	0	0	0	508	588
12	0	0	0	0	507	588
13	0	0	0	0	507	588
14	0	0	0	0	507	588
15	0	0	0	0	506	588
0	0	0	0	0	507	589
1	0	0	0	0	506	588
2	0	0	0	0	505	588
3	0	0	0	0	506	588
4	0	0	0	0	506	589
5	0	0	0	0	506	589
6	0	0	0	0	506	590
7	0	0	0	0	506	589
8	0	0	0	0	507	589
9	0	0	0	0	507	589
10	0	0	0	0	507	590
11	0	0	0	0	508	590
12	0	0	0	0	508	590
13	0	0	0	0	508	590
14	0	0	0	0	508	590
15	0	0	0	0	508	590
0	0	0	0	0	507	590
1	0	0	0	0	507	589
2	0	0	0	0	507	590
3	0	0	0	0	507	590
4	0	0	0	0	506	591
5	0	0	0	0	506	590
6	0	0	0	0	507	590
7	0	0	0	0	507	591
8	0	0	0	0	507	591
9	0	0	0	0	507	590
10	0	0	0	0	507	590
11	0	0	0	0	508	591
12	0	0	0	0	509	590
13	0	0	0	0	509	590
14	0	0	0	0	510	591
15	0	0	0	0	510	590
0	0	0	0	0	510	590
1	0	0	0	0	510	590
2	0	0	0	0	510	589
3	0	0	0	0	509	590
4	0	0	0	0	509	590
5	0	0	0	0	508	590
6	0	0	0	0	507	590
7	0	0	0	0	508	590
8	0	0	0	0	508	589
9	0	0	0	0	508	590
10	0	0	0	0	508	590
11	0	0	0	0	508	590
12	0	0	0	0	508	590
13	0	0	0	0	509	589
14	0	0	0	0	509	590
15	0	0	0	0	509	589
0	0	0	0	0	510	589
1	0	0	0	0	510	590
2	0	0	0	0	511	589
3	0	0	0	0	511	589
4	0	0	0	0	511	589
5	0	0	0	0	511	590
6	0	0	0	0	511	590
7	0	0	0	0	511	590
8	0	0	0	0	510	589
9	0	0	0	0	510	589
10	0	0	0	0	510	589
11	0	0	0	0	509	589
12	0	0	0	0	509	589
13	0	0	0	0	508	589
14	0	0	0	0	507	589
15	0	0	0	0	507	589
0	0	0	0	0	507	589
1	0	0	0	0	506	590
2	0	0	0	0	506	589
3	0	0	0	0	507	589
4	0	0	0	0	508	589
5	0	0	0	0	510	589
6	0	0	0	0	511	589
7	0	0	0	0	512	590
8	0	0	0	0	513	590
9	0	0	0	0	513	590
10	0	0	0	0	514	590
11	0	0	0	0	514	590
12	0	0	0	0	514	589
13	0	0	0	0	514	589
14	0	0	0	0	514	590
15	0	0	0	0	514	590
0	0	0	0	0	514	590
1	0	0	0	0	514	589
2	0	0	0	0	515	590
3	0	0	0	0	515	589
4	0	0	0	0	515	590
5	0	0	0	0	515	589
6	0	0	0	0	515	589
7	0	0	0	0	515	589
8	0	0	0	0	516	589
9	0	0	0	0	516	589
10	0	0	0	0	518	588
11	0	0	0	0	519	589
12	0	0	0	0	519	589
13	0	0	0	0	521	589
14	0	0	0	0	520	589
15	0	0	0	0	521	588
0	0	0	0	0	520	589
1	0	0	0	0	520	589
2	0	0	0	0	520	590
3	0	0	0	0	520	589
4	0	0	0	0	520	589
5	0	0	0	0	520	590
6	0	0	0	0	520	590
7	0	0	0	0	519	590
8	0	0	0	0	519	590
9	0	0	0	0	518	590
10	0	0	0	0	518	589
11	0	0	0	0	518	590
12	0	0	0	0	519	589
13	0	0	0	0	519	590
14	0	0	0	0	518	590
15	0	0	0	0	517	590
0	0	0	0	0	516	590
1	0	0	0	0	515	590
2	0	0	0	0	514	590
3	0	0	0	0	513	590
4	0	0	0	0	512	590
5	0	0	0	0	511	591
6	0	0	0	0	511	591
7	0	0	0	0	510	590
8	0	0	0	0	510	590
9	0	0	0	0	510	590
10	0	0	0	0	510	591
11	0	0	0	0	509	591
12	0	0	0	0	508	590
13	0	0	0	0	508	591
14	0	0	0	0	508	591
15	0	0	0	0	508	590
0	0	0	0	0	508	591
1	0	0	0	0	507	590
2	0	0	0	0	507	590
3	0	0	0	0	508	590
4	0	0	0	0	507	590
5	0	0	0	0	508	590
6	0	0	0	0	508	591
7	0	0	0	0	508	590
8	0	0	0	0	508	591
9	0	0	0	0	507	590
10	0	0	0	0	507	591
11	0	0	0	0	506	591
12	0	0	0	0	506	590
13	0	0	0	0	506	590
14	0	0	0	0	505	590
15	0	0	0	0	506	590
0	0	0	0	0	506	590
1	0	0	0	0	506	590
2	0	0	0	0	507	590
3	0	0	0	0	507	589
4	0	0	0	0	507	589
5	0	0	0	0	507	589
6	0	0	0	0	507	590
7	0	0	0	0	507	590
8	0	0	0	0	506	589
9	0	0	0	0	505	588
10	0	0	0	0	506	589
11	0	0	0	0	505	589
12	0	0	0	0	505	589
13	0	0	0	0	505	588
14	0	0	0	0	505	589
15	0	0	0	0	505	588
0	0	0	0	0	505	588
1	0	0	0	0	505	588
2	0	0	0	0	505	588
3	0	0	0	0	505	588
4	0	0	0	0	505	589
5	0	0	0	0	504	588
6	0	0	0	0	505	590
7	0	0	0	0	505	589
8	0	0	0	0	505	589
9	0	0	0	0	505	589
10	0	0	0	0	505	589
11	0	0	0	0	505	589
12	0	0	0	0	506	589
13	0	0	0	0	506	590
14	0	0	0	0	505	590
15	0	0	0	0	505	590
0	0	0	0	0	505	590
1	0	0	0	0	505	590
2	0	0	0	0	505	590
3	0	0	0	0	504	589
4	0	0	0	0	504	590
5	0	0	0	0	504	590
6	0	0	0	0	503	591
7	0	0	0	0	502	590
8	0	0	0	0	502	590
9	0	0	0	0	502	590
10	0	0	0	0	502	590
11	0	0	0	0	502	590
12	0	0	0	0	502	590
13	0	0	0	0	503	589
14	0	0	0	0	503	590
15	0	0	0	0	503	589
0	0	0	0	0	503	589
1	0	0	0	0	504	589
2	0	0	0	0	504	589
3	0	0	0	0	503	589
4	0	0	0	0	503	589
5	0	0	0	0	503	590
6	0	0	0	0	502	589
7	0	0	0	0	501	589
8	0	0	0	0	500	588
9	0	0	0	0	499	589
10	0	0	0	0	497	589
11	0	0	0	0	495	589
12	0	0	0	0	493	590
13	0	0	0	0	490	589
14	0	0	0	0	487	590
15	0	0	0	0	484	590
0	0	0	0	0	482	589
1	0	0	0	0	479	590
2	0	0	0	0	476	589
3	0	0	0	0	473	589
4	0	0	0	0	471	589
5	0	0	0	0	468	588
6	0	0	0	0	465	589
7	0	0	0	0	462	588
8	0	0	0	0	460	588
9	0	0	0	0	457	588
10	0	0	0	0	456	589
11	0	0	0	0	455	589
12	0	0	0	0	453	589
13	0	0	0	0	451	589
14	0	0	0	0	449	590
15	0	0	0	0	449	589
0	0	0	0	0	449	590
1	0	0	0	0	451	590
2	0	0	0	0	452	590
3	0	0	0	0	454	590
4	0	0	0	0	458	590
5	0	0	0	0	462	591
6	0	0	0	0	467	591
7	0	0	0	0	473	591
8	0	0	0	0	481	591
9	0	0	0	0	490	591
10	0	0	0	0	501	591
11	0	0	0	0	515	591
12	0	0	0	0	531	591
13	0	0	0	0	547	591
14	0	0	0	0	566	592
15	0	0	0	0	581	591
0	0	0	0	0	594	591
1	0	0	0	0	604	591
2	0	0	0	0	610	590
3	0	0	0	0	616	590
4	0	0	0	0	624	590
5	0	0	0	0	635	590
6	0	0	0	0	652	591
7	0	0	0	0	671	591
8	0	0	0	0	688	591
9	0	0	0	0	704	591
10	0	0	0	0	720	591
11	0	0	0	0	733	590
12	0	0	0	0	744	590
13	0	0	0	0	752	589
14	0	0	0	0	755	590
15	0	0	0	0	753	590
0	0	0	0	0	746	589
1	0	0	0	0	737	589
2	0	0	0	0	727	588
3	0	0	0	0	715	589
4	0	0	0	0	704	589
5	0	0	0	0	691	588
6	0	0	0	0	679	589
7	0	0	0	0	666	588
8	0	0	0	0	654	588
9	0	0	0	0	641	589
10	0	0	0	0	628	589
11	0	0	0	0	616	589
12	0	0	0	0	605	589
13	0	0	0	0	594	590
14	0	0	0	0	583	590
15	0	0	0	0	574	590
0	0	0	0	0	564	590
1	0	0	0	0	554	589
2	0	0	0	0	545	590
3	0	0	0	0	535	590
4	0	0	0	0	525	590
5	0	0	0	0	515	590
6	0	0	0	0	505	590
7	0	0	0	0	497	589
8	0	0	0	0	488	589
9	0	0	0	0	481	590
10	0	0	0	0	473	589
11	0	0	0	0	467	589
12	0	0	0	0	461	589
13	0	0	0	0	456	589
14	0	0	0	0	451	590
15	0	0	0	0	447	590
0	0	0	0	0	444	590
1	0	0	0	0	441	590
2	0	0	0	0	440	590
3	0	0	0	0	437	590
4	0	0	0	0	436	589
5	0	0	0	0	435	590
6	0	0	0	0	434	590
7	0	0	0	0	433	589
8	0	0	0	0	432	589
9	0	0	0	0	432	589
10	0	0	0	0	432	589
11	0	0	0	0	431	589
12	0	0	0	0	431	589
13	0	0	0	0	431	589
14	0	0	0	0	430	588
15	0	0	0	0	430	589
0	0	0	0	0	431	589
1	0	0	0	0	431	588
2	0	0	0	0	432	588
3	0	0	0	0	433	588
4	0	0	0	0	433	588
5	0	0	0	0	434	588
6	0	0	0	0	435	589
7	0	0	0	0	435	588
8	0	0	0	0	435	589
9	0	0	0	0	435	589
10	0	0	0	0	435	589
11	0	0	0	0	435	589
12	0	0	0	0	436	589
13	0	0	0	0	436	589
14	0	0	0	0	436	589
15	0	0	0	0	437	589
0	0	0	0	0	437	590
1	0	0	0	0	438	590
2	0	0	0	0	438	590
3	0	0	0	0	438	590
4	0	0	0	0	438	590
5	0	0	0	0	438	590
6	0	0	0	0	439	590
7	0	0	0	0	440	590
8	0	0	0	0	441	590
9	0	0	0	0	442	590
10	0	0	0	0	443	589
11	0	0	0	0	444	590
12	0	0	0	0	444	591
13	0	0	0	0	445	590
14	0	0	0	0	446	590
15	0	0	0	0	446	590
0	0	0	0	0	446	591
1	0	0	0	0	445	590
2	0	0	0	0	446	590
3	0	0	0	0	447	591
4	0	0	0	0	447	591
5	0	0	0	0	447	591
6	0	0	0	0	447	591
7	0	0	0	0	447	590
8	0	0	0	0	448	591
9	0	0	0	0	448	591
10	0	0	0	0	448	590
11	0	0	0	0	449	591
12	0	0	0	0	450	591
13	0	0	0	0	451	591
14	0	0	0	0	451	591
15	0	0	0	0	452	590
0	0	0	0	0	453	590
1	0	0	0	0	453	590
2	0	0	0	0	454	590
3	0	0	0	0	454	589
4	0	0	0	0	455	589
5	0	0	0	0	454	589
6	0	0	0	0	455	589
7	0	0	0	0	454	588
8	0	0	0	0	455	589
9	0	0	0	0	455	589
10	0	0	0	0	455	589
11	0	0	0	0	455	588
12	0	0	0	0	456	588
13	0	0	0	0	456	588
14	0	0	0	0	457	589
15	0	0	0	0	457	588
0	0	0	0	0	459	588
1	0	0	0	0	459	588
2	0	0	0	0	460	589
3	0	0	0	0	460	588
4	0	0	0	0	461	588
5	0	0	0	0	462	589
6	0	0	0	0	462	590
7	0	0	0	0	462	589
8	0	0	0	0	461	590
9	0	0	0	0	460	590
10	0	0	0	0	460	590
11	0	0	0	0	460	590
12	0	0	0	0	460	590
13	0	0	0	0	460	590
14	0	0	0	0	460	590
15	0	0	0	0	459	590
0	0	0	0	0	460	590
1	0	0	0	0	459	590
2	0	0	0	0	460	589
3	0	0	0	0	460	589
4	0	0	0	0	460	589
5	0	0	0	0	460	590
6	0	0	0	0	461	589
7	0	0	0	0	460	588
8	0	0	0	0	460	588
9	0	0	0	0	461	588
10	0	0	0	0	460	588
11	0	0	0	0	460	588
12	0	0	0	0	460	587
13	0	0	0	0	460	587
14	0	0	0	0	459	588
15	0	0	0	0	459	587
0	0	0	0	0	459	588
1	0	0	0	0	460	588
2	0	0	0	0	460	588
3	0	0	0	0	460	589
4	0	0	0	0	460	590
5	0	0	0	0	460	589
6	0	0	0	0	460	589
7	0	0	0	0	461	590
8	0	0	0	0	462	590
9	0	0	0	0	462	590
10	0	0	0	0	461	591
11	0	0	0	0	461	590
12	0	0	0	0	461	590
13	0	0	0	0	461	591
14	0	0	0	0	461	591
15	0	0	0	0	461	590
0	0	0	0	0	461	591
1	0	0	0	0	460	590
2	0	0	0	0	460	590
3	0	0	0	0	460	590
4	0	0	0	0	460	590
5	0	0	0	0	460	590
6	0	0	0	0	460	590
7	0	0	0	0	459	590
8	0	0	0	0	460	590
9	0	0	0	0	460	590
10	0	0	0	0	460	591
11	0	0	0	0	462	590
12	0	0	0	0	462	590
13	0	0	0	0	463	590
14	0	0	0	0	464	590
15	0	0	0	0	464	590
0	0	0	0	0	464	589
1	0	0	0	0	464	590
2	0	0	0	0	464	590
3	0	0	0	0	465	590
4	0	0	0	0	465	590
5	0	0	0	0	464	590
6	0	0	0	0	464	591
7	0	0	0	0	464	591
8	0	0	0	0	464	591
9	0	0	0	0	464	591
10	0	0	0	0	464	591
11	0	0	0	0	465	591
12	0	0	0	0	465	591
13	0	0	0	0	466	591
14	0	0	0	0	467	591
15	0	0	0	0	468	591
0	0	0	0	0	470	591
1	0	0	0	0	472	591
2	0	0	0	0	473	591
3	0	0	0	0	474	591
4	0	0	0	0	475	591
5	0	0	0	0	476	590
6	0	0	0	0	476	590
7	0	0	0	0	478	591
8	0	0	0	0	479	591
9	0	0	0	0	480	591
10	0	0	0	0	481	591
11	0	0	0	0	481	591
12	0	0	0	0	482	591
13	0	0	0	0	483	591
14	0	0	0	0	485	591
15	0	0	0	0	487	590
0	0	0	0	0	488	590
1	0	0	0	0	489	590
2	0	0	0	0	491	590
3	0	0	0	0	493	590
4	0	0	0	0	496	590
5	0	0	0	0	497	590
6	0	0	0	0	499	590
7	0	0	0	0	501	590
8	0	0	0	0	504	590
9	0	0	0	0	505	590
10	0	0	0	0	507	590
11	0	0	0	0	508	590
12	0	0	0	0	510	590
13	0	0	0	0	511	590
14	0	0	0	0	512	590
15	0	0	0	0	514	590
0	0	0	0	0	516	590
1	0	0	0	0	517	590
2	0	0	0	0	519	590
3	0	0	0	0	521	589
4	0	0	0	0	523	589
5	0	0	0	0	525	589
6	0	0	0	0	527	589
7	0	0	0	0	529	589
8	0	0	0	0	531	589
9	0	0	0	0	533	589
10	0	0	0	0	535	589
11	0	0	0	0	536	589
12	0	0	0	0	537	589
13	0	0	0	0	539	588
14	0	0	0	0	540	589
15	0	0	0	0	540	589
0	0	0	0	0	541	589
1	0	0	0	0	543	588
2	0	0	0	0	543	588
3	0	0	0	0	544	588
4	0	0	0	0	545	588
5	0	0	0	0	546	589
6	0	0	0	0	547	589
7	0	0	0	0	547	589
8	0	0	0	0	548	589
9	0	0	0	0	549	589
10	0	0	0	0	549	589
11	0	0	0	0	550	589
12	0	0	0	0	551	589
13	0	0	0	0	551	589
14	0	0	0	0	552	590
15	0	0	0	0	552	590
0	0	0	0	0	553	590
1	0	0	0	0	553	590
2	0	0	0	0	554	590
3	0	0	0	0	555	590
4	0	0	0	0	555	590
5	0	0	0	0	554	590
6	0	0	0	0	554	590
7	0	0	0	0	554	589
8	0	0	0	0	554	589
9	0	0	0	0	553	589
10	0	0	0	0	553	589
11	0	0	0	0	553	589
12	0	0	0	0	553	589
13	0	0	0	0	552	589
14	0	0	0	0	552	589
15	0	0	0	0	552	589
0	0	0	0	0	552	588
1	0	0	0	0	552	588
2	0	0	0	0	553	588
3	0	0	0	0	552	588
4	0	0	0	0	551	588
5	0	0	0	0	551	588
6	0	0	0	0	550	588
7	0	0	0	0	550	588
8	0	0	0	0	548	588
9	0	0	0	0	548	588
10	0	0	0	0	547	588
11	0	0	0	0	546	588
12	0	0	0	0	546	588
13	0	0	0	0	545	589
14	0	0	0	0	544	589
15	0	0	0	0	543	588
0	0	0	0	0	543	589
1	0	0	0	0	543	588
2	0	0	0	0	543	589
3	0	0	0	0	543	589
4	0	0	0	0	543	588
5	0	0	0	0	543	588
6	0	0	0	0	543	589
7	0	0	0	0	543	589
8	0	0	0	0	543	588
9	0	0	0	0	543	588
10	0	0	0	0	542	589
11	0	0	0	0	542	589
12	0	0	0	0	541	589
13	0	0	0	0	541	589
14	0	0	0	0	540	590
15	0	0	0	0	539	590
0	0	0	0	0	537	590
1	0	0	0	0	537	590
2	0	0	0	0	536	590
3	0	0	0	0	536	590
4	0	0	0	0	536	590
5	0	0	0	0	536	589
6	0	0	0	0	536	590
7	0	0	0	0	535	590
8	0	0	0	0	536	590
9	0	0	0	0	536	590
10	0	0	0	0	536	589
11	0	0	0	0	536	589
12	0	0	0	0	537	588
13	0	0	0	0	537	589
14	0	0	0	0	537	589
15	0	0	0	0	538	589
0	0	0	0	0	537	589
1	0	0	0	0	537	589
2	0	0	0	0	536	590
3	0	0	0	0	536	589
4	0	0	0	0	535	590
5	0	0	0	0	535	589
6	0	0	0	0	535	590
7	0	0	0	0	535	589
8	0	0	0	0	535	589
9	0	0	0	0	535	589
10	0	0	0	0	535	590
11	0	0	0	0	535	589
12	0	0	0	0	535	590
13	0	0	0	0	535	590
14	0	0	0	0	535	591
15	0	0	0	0	536	590
0	0	0	0	0	536	590
1	0	0	0	0	536	591
2	0	0	0	0	535	590
3	0	0	0	0	535	591
4	0	0	0	0	534	591
5	0	0	0	0	534	591
6	0	0	0	0	533	591
7	0	0	0	0	532	591
8	0	0	0	0	533	591
9	0	0	0	0	532	591
10	0	0	0	0	531	590
11	0	0	0	0	532	591
12	0	0	0	0	531	591
13	0	0	0	0	531	590
14	0	0	0	0	530	591
15	0	0	0	0	529	591
0	0	0	0	0	529	590
1	0	0	0	0	529	591
2	0	0	0	0	530	590
3	0	0	0	0	530	590
4	0	0	0	0	530	591
5	0	0	0	0	529	591
6	0	0	0	0	529	591
7	0	0	0	0	529	591
8	0	0	0	0	529	591
9	0	0	0	0	528	590
10	0	0	0	0	527	591
11	0	0	0	0	526	591
12	0	0	0	0	525	590
13	0	0	0	0	525	590
14	0	0	0	0	524	590
15	0	0	0	0	525	590
0	0	0	0	0	524	590
1	0	0	0	0	524	589
2	0	0	0	0	524	590
3	0	0	0	0	525	589
4	0	0	0	0	525	589
5	0	0	0	0	526	589
6	0	0	0	0	526	590
7	0	0	0	0	526	590
8	0	0	0	0	526	589
9	0	0	0	0	526	589
10	0	0	0	0	526	589
11	0	0	0	0	526	589
12	0	0	0	0	525	589
13	0	0	0	0	524	590
14	0	0	0	0	524	590
15	0	0	0	0	523	590
0	0	0	0	0	522	589
1	0	0	0	0	520	589
2	0	0	0	0	520	589
3	0	0	0	0	520	590
4	0	0	0	0	520	590
5	0	0	0	0	520	589
6	0	0	0	0	521	590
7	0	0	0	0	521	589
8	0	0	0	0	523	590
9	0	0	0	0	523	589
10	0	0	0	0	523	589
11	0	0	0	0	523	588
12	0	0	0	0	522	589
13	0	0	0	0	522	588
14	0	0	0	0	522	589
15	0	0	0	0	522	589
0	0	0	0	0	521	589
1	0	0	0	0	521	589
2	0	0	0	0	521	589
3	0	0	0	0	521	589
4	0	0	0	0	520	590
5	0	0	0	0	519	589
6	0	0	0	0	519	590
7	0	0	0	0	519	590
8	0	0	0	0	519	590
9	0	0	0	0	519	590
10	0	0	0	0	520	590
11	0	0	0	0	520	590
12	0	0	0	0	520	589
13	0	0	0	0	520	590
14	0	0	0	0	520	590
15	0	0	0	0	520	590
0	0	0	0	0	521	590
1	0	0	0	0	520	590
2	0	0	0	0	519	590
3	0	0	0	0	520	590
4	0	0	0	0	519	591
5	0	0	0	0	518	591
6	0	0	0	0	518	590
7	0	0	0	0	518	590
8	0	0	0	0	517	590
9	0	0	0	0	516	590
10	0	0	0	0	516	590
11	0	0	0	0	516	590
12	0	0	0	0	516	590
13	0	0	0	0	516	590
14	0	0	0	0	516	590
15	0	0	0	0	516	590
0	0	0	0	0	516	590
1	0	0	0	0	516	590
2	0	0	0	0	518	590
3	0	0	0	0	518	591
4	0	0	0	0	517	590
5	0	0	0	0	516	590
6	0	0	0	0	516	591
7	0	0	0	0	516	590
8	0	0	0	0	516	590
9	0	0	0	0	516	589
10	0	0	0	0	517	590
11	0	0	0	0	516	589
12	0	0	0	0	515	590
13	0	0	0	0	515	590
14	0	0	0	0	514	591
15	0	0	0	0	514	591
0	0	0	0	0	514	590
1	0	0	0	0	514	590
2	0	0	0	0	515	590
3	0	0	0	0	515	590
4	0	0	0	0	515	590
5	0	0	0	0	516	590
6	0	0	0	0	516	591
7	0	0	0	0	516	590
8	0	0	0	0	517	591
9	0	0	0	0	517	591
10	0	0	0	0	517	591
11	0	0	0	0	516	590
12	0	0	0	0	516	590
13	0	0	0	0	515	589
14	0	0	0	0	515	590
15	0	0	0	0	515	589
0	0	0	0	0	515	589
1	0	0	0	0	514	589
2	0	0	0	0	514	588
3	0	0	0	0	513	589
4	0	0	0	0	513	589
5	0	0	0	0	512	588
6	0	0	0	0	512	589
7	0	0	0	0	512	589
8	0	0	0	0	512	588
9	0	0	0	0	512	588
10	0	0	0	0	512	588
11	0	0	0	0	512	588
12	0	0	0	0	513	588
13	0	0	0	0	513	589
14	0	0	0	0	513	589
15	0	0	0	0	512	588
0	0	0	0	0	513	589
1	0	0	0	0	513	589
2	0	0	0	0	513	589
3	0	0	0	0	512	589
4	0	0	0	0	512	589
5	0	0	0	0	512	589
6	0	0	0	0	512	590
7	0	0	0	0	512	590
8	0	0	0	0	512	590
9	0	0	0	0	512	590
10	0	0	0	0	512	590
11	0	0	0	0	512	590
12	0	0	0	0	513	591
13	0	0	0	0	513	590
14	0	0	0	0	513	590
15	0	0	0	0	513	591
0	0	0	0	0	513	590
1	0	0	0	0	513	591
2	0	0	0	0	514	591
3	0	0	0	0	514	591
4	0	0	0	0	513	591
5	0	0	0	0	513	591
6	0	0	0	0	513	591
7	0	0	0	0	512	591
8	0	0	0	0	512	591
9	0	0	0	0	512	591
10	0	0	0	0	511	591
11	0	0	0	0	511	591
12	0	0	0	0	511	591
13	0	0	0	0	512	591
14	0	0	0	0	512	591
15	0	0	0	0	512	591
0	0	0	0	0	513	591
1	0	0	0	0	513	591
2	0	0	0	0	513	590
3	0	0	0	0	513	590
4	0	0	0	0	512	590
5	0	0	0	0	512	590
6	0	0	0	0	512	590
7	0	0	0	0	512	589
8	0	0	0	0	512	589
9	0	0	0	0	511	588
10	0	0	0	0	511	589
11	0	0	0	0	511	589
12	0	0	0	0	511	589
13	0	0	0	0	510	589
14	0	0	0	0	510	589
15	0	0	0	0	510	589
0	0	0	0	0	510	588
1	0	0	0	0	511	589
2	0	0	0	0	512	588
3	0	0	0	0	512	588
4	0	0	0	0	512	588
5	0	0	0	0	513	588
6	0	0	0	0	513	588
7	0	0	0	0	514	588
8	0	0	0	0	515	588
9	0	0	0	0	515	588
10	0	0	0	0	516	588
11	0	0	0	0	516	588
12	0	0	0	0	515	588
13	0	0	0	0	515	588
14	0	0	0	0	515	587
15	0	0	0	0	515	588
0	0	0	0	0	515	588
1	0	0	0	0	514	588
2	0	0	0	0	513	588
3	0	0	0	0	513	588
4	0	0	0	0	512	588
5	0	0	0	0	512	588
6	0	0	0	0	512	588
7	0	0	0	0	513	588
8	0	0	0	0	514	588
9	0	0	0	0	515	588
10	0	0	0	0	515	588
11	0	0	0	0	514	588
12	0	0	0	0	514	588
13	0	0	0	0	514	588
14	0	0	0	0	515	589
15	0	0	0	0	515	588
0	0	0	0	0	514	589
1	0	0	0	0	513	589
2	0	0	0	0	513	589
3	0	0	0	0	513	589
4	0	0	0	0	512	589
5	0	0	0	0	512	589
6	0	0	0	0	512	590
7	0	0	0	0	512	590
8	0	0	0	0	511	590
9	0	0	0	0	512	591
10	0	0	0	0	511	591
11	0	0	0	0	511	591
12	0	0	0	0	512	591
13	0	0	0	0	512	591
14	0	0	0	0	511	591
15	0	0	0	0	511	591
0	0	0	0	0	510	591
1	0	0	0	0	510	591
2	0	0	0	0	510	591
3	0	0	0	0	510	591
4	0	0	0	0	510	591
5	0	0	0	0	509	591
6	0	0	0	0	510	592
7	0	0	0	0	509	592
8	0	0	0	0	508	591
9	0	0	0	0	508	591
10	0	0	0	0	508	591
11	0	0	0	0	508	591
12	0	0	0	0	508	592
13	0	0	0	0	508	592
14	0	0	0	0	508	592
15	0	0	0	0	508	591
0	0	0	0	0	508	592
1	0	0	0	0	508	592
2	0	0	0	0	508	592
3	0	0	0	0	508	592
4	0	0	0	0	509	592
5	0	0	0	0	510	592
6	0	0	0	0	510	592
7	0	0	0	0	510	592
8	0	0	0	0	510	591
9	0	0	0	0	509	592
10	0	0	0	0	508	592
11	0	0	0	0	508	592
12	0	0	0	0	508	592
13	0	0	0	0	507	592
14	0	0	0	0	506	593
15	0	0	0	0	506	593
0	0	0	0	0	505	592
1	0	0	0	0	505	592
2	0	0	0	0	506	592
3	0	0	0	0	506	592
4	0	0	0	0	507	592
5	0	0	0	0	507	592
6	0	0	0	0	507	592
7	0	0	0	0	507	592
8	0	0	0	0	507	592
9	0	0	0	0	506	591
10	0	0	0	0	507	591
11	0	0	0	0	508	591
12	0	0	0	0	507	591
13	0	0	0	0	507	590
14	0	0	0	0	507	590
15	0	0	0	0	507	590
0	0	0	0	0	507	590
1	0	0	0	0	507	589
2	0	0	0	0	506	589
3	0	0	0	0	506	589
4	0	0	0	0	506	589
5	0	0	0	0	507	588
6	0	0	0	0	508	589
7	0	0	0	0	510	588
8	0	0	0	0	511	588
9	0	0	0	0	512	588
10	0	0	0	0	514	588
11	0	0	0	0	515	588
12	0	0	0	0	516	588
13	0	0	0	0	516	587
14	0	0	0	0	517	588
15	0	0	0	0	517	588
0	0	0	0	0	516	588
1	0	0	0	0	516	588
2	0	0	0	0	516	588
3	0	0	0	0	516	588
4	0	0	0	0	516	588
5	0	0	0	0	516	587
6	0	0	0	0	516	588
7	0	0	0	0	516	587
8	0	0	0	0	517	587
9	0	0	0	0	518	587
10	0	0	0	0	519	587
11	0	0	0	0	520	587
12	0	0	0	0	521	587
13	0	0	0	0	522	587
14	0	0	0	0	523	588
15	0	0	0	0	524	588
0	0	0	0	0	524	588
1	0	0	0	0	523	588
2	0	0	0	0	523	588
3	0	0	0	0	523	588
4	0	0	0	0	522	588
5	0	0	0	0	521	588
6	0	0	0	0	520	588
7	0	0	0	0	520	588
8	0	0	0	0	520	587
9	0	0	0	0	519	588
10	0	0	0	0	519	588
11	0	0	0	0	518	588
12	0	0	0	0	518	589
13	0	0	0	0	517	589
14	0	0	0	0	517	590
15	0	0	0	0	517	589
0	0	0	0	0	516	589
1	0	0	0	0	516	589
2	0	0	0	0	515	589
3	0	0	0	0	514	589
4	0	0	0	0	513	590
5	0	0	0	0	513	590
6	0	0	0	0	512	590
7	0	0	0	0	511	590
8	0	0	0	0	510	590
9	0	0	0	0	509	590
10	0	0	0	0	509	590
11	0	0	0	0	509	590
12	0	0	0	0	509	590
13	0	0	0	0	508	590
14	0	0	0	0	508	590
15	0	0	0	0	507	589
0	0	0	0	0	506	589
1	0	0	0	0	505	589
2	0	0	0	0	505	590
3	0	0	0	0	504	589
4	0	0	0	0	504	590
5	0	0	0	0	503	590
6	0	0	0	0	503	590
7	0	0	0	0	504	591
8	0	0	0	0	505	591
9	0	0	0	0	505	590
10	0	0	0	0	507	591
11	0	0	0	0	506	590
12	0	0	0	0	506	590
13	0	0	0	0	506	590
14	0	0	0	0	506	590
15	0	0	0	0	505	590
0	0	0	0	0	505	590
1	0	0	0	0	505	589
2	0	0	0	0	505	590
3	0	0	0	0	504	590
4	0	0	0	0	505	590
5	0	0	0	0	505	590
6	0	0	0	0	504	590
7	0	0	0	0	505	589
8	0	0	0	0	505	589
9	0	0	0	0	505	590
10	0	0	0	0	505	589
11	0	0	0	0	505	590
12	0	0	0	0	506	589
13	0	0	0	0	507	589
14	0	0	0	0	506	590
15	0	0	0	0	506	589
0	0	0	0	0	505	590
1	0	0	0	0	506	590
2	0	0	0	0	506	590
3	0	0	0	0	506	590
4	0	0	0	0	504	590
5	0	0	0	0	504	590
6	0	0	0	0	504	590
7	0	0	0	0	504	591
8	0	0	0	0	503	591
9	0	0	0	0	503	591
10	0	0	0	0	503	590
11	0	0	0	0	504	590
12	0	0	0	0	504	591
13	0	0	0	0	504	590
14	0	0	0	0	505	590
15	0	0	0	0	505	590
0	0	0	0	0	507	591
1	0	0	0	0	507	590
2	0	0	0	0	508	590
3	0	0	0	0	508	591
4	0	0	0	0	508	590
5	0	0	0	0	508	590
6	0	0	0	0	508	591
7	0	0	0	0	508	591
8	0	0	0	0	507	590
9	0	0	0	0	507	591
10	0	0	0	0	507	590
11	0	0	0	0	507	590
12	0	0	0	0	507	590
13	0	0	0	0	507	590
14	0	0	0	0	507	589
15	0	0	0	0	507	589
0	0	0	0	0	508	589
1	0	0	0	0	508	589
2	0	0	0	0	509	591
3	0	0	0	0	509	588
4	0	0	0	0	510	589
5	0	0	0	0	510	589
6	0	0	0	0	511	587
7	0	0	0	0	511	590
8	0	0	0	0	510	590
9	0	0	0	0	510	589
10	0	0	0	0	509	592
11	0	0	0	0	508	590
12	0	0	0	0	506	589
13	0	0	0	0	503	590
14	0	0	0	0	501	587
15	0	0	0	0	499	590
0	0	0	0	0	496	591
1	0	0	0	0	492	590
2	0	0	0	0	489	593
3	0	0	0	0	487	591
4	0	0	0	0	485	591
5	0	0	0	0	483	591
6	0	0	0	0	481	589
7	0	0	0	0	478	591
8	0	0	0	0	476	591
9	0	0	0	0	473	591
10	0	0	0	0	471	594
11	0	0	0	0	470	592
12	0	0	0	0	469	591
13	0	0	0	0	467	591
14	0	0	0	0	466	589
15	0	0	0	0	463	591
0	0	0	0	0	462	591
1	0	0	0	0	461	590
2	0	0	0	0	462	593
3	0	0	0	0	463	590
4	0	0	0	0	466	590
5	0	0	0	0	469	590
6	0	0	0	0	474	588
7	0	0	0	0	479	590
8	0	0	0	0	485	591
9	0	0	0	0	492	591
10	0	0	0	0	502	593
11	0	0	0	0	513	590
12	0	0	0	0	527	591
13	0	0	0	0	543	591
14	0	0	0	0	560	588
15	0	0	0	0	579	589
0	0	0	0	0	593	590
1	0	0	0	0	605	590
2	0	0	0	0	615	592
3	0	0	0	0	621	590
4	0	0	0	0	625	589
5	0	0	0	0	632	589
6	0	0	0	0	643	586
7	0	0	0	0	658	589
8	0	0	0	0	675	589
9	0	0	0	0	691	589
10	0	0	0	0	707	591
11	0	0	0	0	722	588
12	0	0	0	0	736	588
13	0	0	0	0	748	588
14	0	0	0	0	756	584
15	0	0	0	0	758	587
0	0	0	0	0	756	587
1	0	0	0	0	748	586
2	0	0	0	0	739	589
3	0	0	0	0	729	587
4	0	0	0	0	718	587
5	0	0	0	0	706	587
6	0	0	0	0	694	583
7	0	0	0	0	681	587
8	0	0	0	0	670	587
9	0	0	0	0	657	587
10	0	0	0	0	645	590
11	0	0	0	0	632	588
12	0	0	0	0	620	588
13	0	0	0	0	608	588
14	0	0	0	0	596	585
15	0	0	0	0	586	588
0	0	0	0	0	577	589
1	0	0	0	0	568	589
2	0	0	0	0	559	591
3	0	0	0	0	550	588
4	0	0	0	0	540	589
5	0	0	0	0	532	589
6	0	0	0	0	524	586
7	0	0	0	0	515	589
8	0	0	0	0	507	590
9	0	0	0	0	500	589
10	0	0	0	0	493	591
11	0	0	0	0	485	590
12	0	0	0	0	479	590
13	0	0	0	0	473	590
14	0	0	0	0	467	587
15	0	0	0	0	462	590
0	0	0	0	0	458	590
1	0	0	0	0	455	590
2	0	0	0	0	453	592
3	0	0	0	0	450	590
4	0	0	0	0	449	590
5	0	0	0	0	448	590
6	0	0	0	0	447	587
7	0	0	0	0	447	590
8	0	0	0	0	447	590
9	0	0	0	0	446	590
10	0	0	0	0	445	592
11	0	0	0	0	445	590
12	0	0	0	0	444	590
13	0	0	0	0	443	590
14	0	0	0	0	443	587
15	0	0	0	0	442	590
0	0	0	0	0	442	589
1	0	0	0	0	441	590
2	0	0	0	0	441	592
3	0	0	0	0	442	590
4	0	0	0	0	443	589
5	0	0	0	0	442	590
6	0	0	0	0	442	587
7	0	0	0	0	442	589
8	0	0	0	0	443	590
9	0	0	0	0	443	590
10	0	0	0	0	444	592
11	0	0	0	0	445	591
12	0	0	0	0	446	590
13	0	0	0	0	447	591
14	0	0	0	0	447	588
15	0	0	0	0	448	591
0	0	0	0	0	448	591
1	0	0	0	0	448	591
2	0	0	0	0	448	594
3	0	0	0	0	448	591
4	0	0	0	0	448	591
5	0	0	0	0	448	591
6	0	0	0	0	448	589
7	0	0	0	0	449	591
8	0	0	0	0	451	591
9	0	0	0	0	451	591
10	0	0	0	0	452	593
11	0	0	0	0	452	591
12	0	0	0	0	453	591
13	0	0	0	0	453	591
14	0	0	0	0	454	589
15	0	0	0	0	454	591
0	0	0	0	0	454	591
1	0	0	0	0	455	591
2	0	0	0	0	455	593
3	0	0	0	0	455	591
4	0	0	0	0	455	591
5	0	0	0	0	455	591
6	0	0	0	0	454	589
7	0	0	0	0	454	592
8	0	0	0	0	454	591
9	0	0	0	0	454	591
10	0	0	0	0	454	594
11	0	0	0	0	454	591
12	0	0	0	0	455	591
13	0	0	0	0	455	591
14	0	0	0	0	455	588
15	0	0	0	0	456	590
0	0	0	0	0	456	590
1	0	0	0	0	456	590
2	0	0	0	0	457	592
3	0	0	0	0	458	591
4	0	0	0	0	458	590
5	0	0	0	0	459	590
6	0	0	0	0	460	587
7	0	0	0	0	460	590
8	0	0	0	0	461	590
9	0	0	0	0	461	590
10	0	0	0	0	462	592
11	0	0	0	0	462	590
12	0	0	0	0	462	589
13	0	0	0	0	462	590
14	0	0	0	0	462	586
15	0	0	0	0	462	589
0	0	0	0	0	463	589
1	0	0	0	0	463	589
2	0	0	0	0	464	591
3	0	0	0	0	464	589
4	0	0	0	0	464	589
5	0	0	0	0	464	589
6	0	0	0	0	465	586
7	0	0	0	0	465	588
8	0	0	0	0	465	588
9	0	0	0	0	465	589
10	0	0	0	0	465	591
11	0	0	0	0	465	588
12	0	0	0	0	465	588
13	0	0	0	0	465	588
14	0	0	0	0	465	585
15	0	0	0	0	464	588
0	0	0	0	0	464	588
1	0	0	0	0	464	587
2	0	0	0	0	464	590
3	0	0	0	0	464	588
4	0	0	0	0	465	587
5	0	0	0	0	466	588
6	0	0	0	0	466	584
7	0	0	0	0	466	587
8	0	0	0	0	467	587
9	0	0	0	0	467	587
10	0	0	0	0	466	589
11	0	0	0	0	467	587
12	0	0	0	0	467	586
13	0	0	0	0	467	587
14	0	0	0	0	467	584
15	0	0	0	0	467	587
0	0	0	0	0	467	587
1	0	0	0	0	467	587
2	0	0	0	0	467	590
3	0	0	0	0	465	587
4	0	0	0	0	465	588
5	0	0	0	0	465	587
6	0	0	0	0	465	585
7	0	0	0	0	465	587
8	0	0	0	0	465	588
9	0	0	0	0	465	588
10	0	0	0	0	466	590
11	0	0	0	0	466	588
12	0	0	0	0	467	588
13	0	0	0	0	468	589
14	0	0	0	0	468	585
15	0	0	0	0	469	589
0	0	0	0	0	470	589
1	0	0	0	0	469	589
2	0	0	0	0	468	592
3	0	0	0	0	467	589
4	0	0	0	0	467	590
5	0	0	0	0	466	589
6	0	0	0	0	465	587
7	0	0	0	0	464	590
8	0	0	0	0	463	590
9	0	0	0	0	462	590
10	0	0	0	0	462	592
11	0	0	0	0	461	591
12	0	0	0	0	461	591
13	0	0	0	0	461	590
14	0	0	0	0	463	588
15	0	0	0	0	463	591
0	0	0	0	0	464	591
1	0	0	0	0	464	591
2	0	0	0	0	465	593
3	0	0	0	0	466	591
4	0	0	0	0	467	590
5	0	0	0	0	467	591
6	0	0	0	0	467	588
7	0	0	0	0	468	591
8	0	0	0	0	468	590
9	0	0	0	0	468	590
10	0	0	0	0	468	593
11	0	0	0	0	467	591
12	0	0	0	0	467	591
13	0	0	0	0	468	591
14	0	0	0	0	469	589
15	0	0	0	0	469	591
0	0	0	0	0	469	592
1	0	0	0	0	470	591
2	0	0	0	0	471	593
3	0	0	0	0	472	591
4	0	0	0	0	474	591
5	0	0	0	0	475	592
6	0	0	0	0	477	589
7	0	0	0	0	478	591
8	0	0	0	0	479	592
9	0	0	0	0	480	592
10	0	0	0	0	481	594
11	0	0	0	0	483	591
12	0	0	0	0	484	592
13	0	0	0	0	485	591
14	0	0	0	0	487	589
15	0	0	0	0	487	592
0	0	0	0	0	488	591
1	0	0	0	0	490	591
2	0	0	0	0	491	593
3	0	0	0	0	492	591
4	0	0	0	0	493	591
5	0	0	0	0	495	590
6	0	0	0	0	496	588
7	0	0	0	0	497	591
8	0	0	0	0	499	590
9	0	0	0	0	501	590
10	0	0	0	0	503	592
11	0	0	0	0	505	590
12	0	0	0	0	507	589
13	0	0	0	0	509	590
14	0	0	0	0	510	587
15	0	0	0	0	512	590
0	0	0	0	0	513	589
1	0	0	0	0	515	589
2	0	0	0	0	517	591
3	0	0	0	0	518	589
4	0	0	0	0	519	589
5	0	0	0	0	520	588
6	0	0	0	0	521	586
7	0	0	0	0	522	589
8	0	0	0	0	524	589
9	0	0	0	0	525	589
10	0	0	0	0	527	591
11	0	0	0	0	528	590
12	0	0	0	0	530	590
13	0	0	0	0	531	590
14	0	0	0	0	532	587
15	0	0	0	0	534	590
0	0	0	0	0	534	590
1	0	0	0	0	535	590
2	0	0	0	0	536	592
3	0	0	0	0	537	589
4	0	0	0	0	539	590
5	0	0	0	0	540	589
6	0	0	0	0	541	586
7	0	0	0	0	543	589
8	0	0	0	0	543	588
9	0	0	0	0	544	588
10	0	0	0	0	544	591
11	0	0	0	0	545	588
12	0	0	0	0	545	588
13	0	0	0	0	547	588
14	0	0	0	0	547	586
15	0	0	0	0	548	588
0	0	0	0	0	549	589
1	0	0	0	0	549	589
2	0	0	0	0	550	591
3	0	0	0	0	551	589
4	0	0	0	0	551	589
5	0	0	0	0	552	589
6	0	0	0	0	551	587
7	0	0	0	0	552	590
8	0	0	0	0	553	589
9	0	0	0	0	553	589
10	0	0	0	0	553	591
11	0	0	0	0	552	589
12	0	0	0	0	552	589
13	0	0	0	0	552	589
14	0	0	0	0	551	586
15	0	0	0	0	551	589
0	0	0	0	0	551	588
1	0	0	0	0	550	588
2	0	0	0	0	550	591
3	0	0	0	0	549	589
4	0	0	0	0	549	589
5	0	0	0	0	549	588
6	0	0	0	0	549	586
7	0	0	0	0	548	589
8	0	0	0	0	548	588
9	0	0	0	0	547	589
10	0	0	0	0	547	591
11	0	0	0	0	547	588
12	0	0	0	0	547	588
13	0	0	0	0	547	588
14	0	0	0	0	546	586
15	0	0	0	0	546	589
0	0	0	0	0	545	588
1	0	0	0	0	544	588
2	0	0	0	0	544	590
3	0	0	0	0	544	588
4	0	0	0	0	544	588
5	0	0	0	0	544	588
6	0	0	0	0	543	585
7	0	0	0	0	544	588
8	0	0	0	0	544	588
9	0	0	0	0	544	588
10	0	0	0	0	544	591
11	0	0	0	0	545	588
12	0	0	0	0	545	589
13	0	0	0	0	545	589
14	0	0	0	0	545	586
15	0	0	0	0	544	589
0	0	0	0	0	544	589
1	0	0	0	0	543	588
2	0	0	0	0	543	591
3	0	0	0	0	541	589
4	0	0	0	0	540	589
5	0	0	0	0	540	589
6	0	0	0	0	540	587
7	0	0	0	0	540	589
8	0	0	0	0	539	589
9	0	0	0	0	539	589
10	0	0	0	0	539	592
11	0	0	0	0	539	589
12	0	0	0	0	538	590
13	0	0	0	0	538	590
14	0	0	0	0	537	587
15	0	0	0	0	538	590
0	0	0	0	0	537	590
1	0	0	0	0	537	589
2	0	0	0	0	538	592
3	0	0	0	0	538	590
4	0	0	0	0	537	590
5	0	0	0	0	536	590
6	0	0	0	0	536	588
7	0	0	0	0	536	591
8	0	0	0	0	536	591
9	0	0	0	0	535	591
10	0	0	0	0	535	593
11	0	0	0	0	535	591
12	0	0	0	0	533	591
13	0	0	0	0	532	591
14	0	0	0	0	532	588
15	0	0	0	0	532	591
0	0	0	0	0	532	591
1	0	0	0	0	531	591
2	0	0	0	0	531	593
3	0	0	0	0	531	591
4	0	0	0	0	531	590
5	0	0	0	0	532	590
6	0	0	0	0	532	588
7	0	0	0	0	532	590
8	0	0	0	0	532	591
9	0	0	0	0	531	591
10	0	0	0	0	530	593
11	0	0	0	0	530	591
12	0	0	0	0	529	591
13	0	0	0	0	529	591
14	0	0	0	0	529	588
15	0	0	0	0	529	591
0	0	0	0	0	529	591
1	0	0	0	0	528	591
2	0	0	0	0	527	593
3	0	0	0	0	527	591
4	0	0	0	0	528	590
5	0	0	0	0	529	591
6	0	0	0	0	528	588
7	0	0	0	0	527	591
8	0	0	0	0	527	591
9	0	0	0	0	526	590
10	0	0	0	0	525	593
11	0	0	0	0	526	590
12	0	0	0	0	525	590
13	0	0	0	0	524	590
14	0	0	0	0	523	587
15	0	0	0	0	522	590
0	0	0	0	0	522	591
1	0	0	0	0	520	590
2	0	0	0	0	520	593
3	0	0	0	0	520	591
4	0	0	0	0	519	590
5	0	0	0	0	519	591
6	0	0	0	0	519	588
7	0	0	0	0	518	590
8	0	0	0	0	518	591
9	0	0	0	0	517	590
10	0	0	0	0	518	592
11	0	0	0	0	518	590
12	0	0	0	0	518	590
13	0	0	0	0	517	590
14	0	0	0	0	517	588
15	0	0	0	0	517	590
0	0	0	0	0	516	590
1	0	0	0	0	516	589
2	0	0	0	0	516	591
3	0	0	0	0	516	588
4	0	0	0	0	516	588
5	0	0	0	0	515	588
6	0	0	0	0	514	585
7	0	0	0	0	514	588
8	0	0	0	0	513	588
9	0	0	0	0	513	587
10	0	0	0	0	513	589
11	0	0	0	0	514	587
12	0	0	0	0	514	588
13	0	0	0	0	514	587
14	0	0	0	0	513	584
15	0	0	0	0	514	587
0	0	0	0	0	514	587
1	0	0	0	0	513	587
2	0	0	0	0	513	590
3	0	0	0	0	514	587
4	0	0	0	0	514	588
5	0	0	0	0	514	588
6	0	0	0	0	514	585
7	0	0	0	0	513	588
8	0	0	0	0	513	588
9	0	0	0	0	513	588
10	0	0	0	0	512	591
11	0	0	0	0	512	588
12	0	0	0	0	512	588
13	0	0	0	0	512	588
14	0	0	0	0	513	586
15	0	0	0	0	512	588
0	0	0	0	0	513	588
1	0	0	0	0	514	588
2	0	0	0	0	514	590
3	0	0	0	0	514	589
4	0	0	0	0	514	589
5	0	0	0	0	515	588
6	0	0	0	0	515	586
7	0	0	0	0	516	589
8	0	0	0	0	515	589
9	0	0	0	0	515	589
10	0	0	0	0	515	591
11	0	0	0	0	515	589
12	0	0	0	0	515	589
13	0	0	0	0	515	589
14	0	0	0	0	515	587
15	0	0	0	0	515	589
0	0	0	0	0	515	590
1	0	0	0	0	514	589
2	0	0	0	0	515	592
3	0	0	0	0	515	590
4	0	0	0	0	516	591
5	0	0	0	0	516	591
6	0	0	0	0	517	588
7	0	0	0	0	517	590
8	0	0	0	0	517	590
9	0	0	0	0	518	590
10	0	0	0	0	517	592
11	0	0	0	0	518	590
12	0	0	0	0	518	590
13	0	0	0	0	518	590
14	0	0	0	0	516	587
15	0	0	0	0	515	590
0	0	0	0	0	515	590
1	0	0	0	0	514	590
2	0	0	0	0	513	593
3	0	0	0	0	512	590
4	0	0	0	0	511	591
5	0	0	0	0	511	590
6	0	0	0	0	511	587
7	0	0	0	0	511	590
8	0	0	0	0	511	591
9	0	0	0	0	512	591
10	0	0	0	0	513	593
11	0	0	0	0	514	591
12	0	0	0	0	515	591
13	0	0	0	0	516	591
14	0	0	0	0	516	589
15	0	0	0	0	516	591
0	0	0	0	0	517	591
1	0	0	0	0	517	591
2	0	0	0	0	517	594
3	0	0	0	0	515	591
4	0	0	0	0	515	592
5	0	0	0	0	514	591
6	0	0	0	0	514	588
7	0	0	0	0	513	591
8	0	0	0	0	512	591
9	0	0	0	0	513	591
10	0	0	0	0	513	593
11	0	0	0	0	513	591
12	0	0	0	0	513	590
13	0	0	0	0	514	590
14	0	0	0	0	515	588
15	0	0	0	0	516	591
0	0	0	0	0	517	590
1	0	0	0	0	518	590
2	0	0	0	0	519	592
3	0	0	0	0	519	590
4	0	0	0	0	518	588
5	0	0	0	0	518	589
6	0	0	0	0	519	586
7	0	0	0	0	519	588
8	0	0	0	0	519	588
9	0	0	0	0	519	588
10	0	0	0	0	519	590
11	0	0	0	0	519	588
12	0	0	0	0	518	588
13	0	0	0	0	518	588
14	0	0	0	0	518	585
15	0	0	0	0	519	588
0	0	0	0	0	519	589
1	0	0	0	0	519	588
2	0	0	0	0	520	591
3	0	0	0	0	521	590
4	0	0	0	0	521	590
5	0	0	0	0	521	590
6	0	0	0	0	521	586
7	0	0	0	0	522	590
8	0	0	0	0	521	590
9	0	0	0	0	521	590
10	0	0	0	0	521	592
11	0	0	0	0	521	590
12	0	0	0	0	520	589
13	0	0	0	0	520	589
14	0	0	0	0	519	587
15	0	0	0	0	519	590
0	0	0	0	0	519	589
1	0	0	0	0	518	589
2	0	0	0	0	518	591
3	0	0	0	0	519	588
4	0	0	0	0	519	589
5	0	0	0	0	519	588
6	0	0	0	0	519	586
7	0	0	0	0	518	588
8	0	0	0	0	519	589
9	0	0	0	0	518	589
10	0	0	0	0	517	591
11	0	0	0	0	518	590
12	0	0	0	0	517	589
13	0	0	0	0	517	589
14	0	0	0	0	518	587
15	0	0	0	0	518	590
0	0	0	0	0	518	590
1	0	0	0	0	517	590
2	0	0	0	0	516	592
3	0	0	0	0	516	590
4	0	0	0	0	515	591
5	0	0	0	0	515	590
6	0	0	0	0	514	588
7	0	0	0	0	513	590
