# OpenSignals Text File Format
# {"98:D3:91:FD:58:3A":{"sensor":["ECGBIT","ACCBITREV"],"device name":"98:D3:91:FD:58:3A","column":["nSeq","I1","I2","O1","O2","A2","A5"],"sync interval":2,"time":"20:07:44","comments":"","device connection":"BTH98:D3:91:FD:58:3A","channels":[2,5],"date":"2021-09-07","mode":0,"digital IO":[0,0,1,1],"firmware version":0,"device":"bitalino_rev","position":0,"sampling rate":1000,"label":["A2","A5"],"resolution":[10,10],"special":[{},{}]}}
# EndOfHeader
0	0	0	0	0	452	613
1	0	0	0	0	452	612
2	0	0	0	0	453	613
3	0	0	0	0	454	612
4	0	0	0	0	453	612
5	0	0	0	0	452	613
6	0	0	0	0	451	613
7	0	0	0	0	451	614
8	0	0	0	0	450	613
9	0	0	0	0	448	613
10	0	0	0	0	447	613
11	0	0	0	0	446	612
12	0	0	0	0	444	613
13	0	0	0	0	441	613
14	0	0	0	0	439	614
15	0	0	0	0	437	614
0	0	0	0	0	435	614
1	0	0	0	0	431	614
2	0	0	0	0	429	613
3	0	0	0	0	427	612
4	0	0	0	0	425	612
5	0	0	0	0	423	613
6	0	0	0	0	422	613
7	0	0	0	0	419	613
8	0	0	0	0	416	614
9	0	0	0	0	412	613
10	0	0	0	0	409	614
11	0	0	0	0	406	612
12	0	0	0	0	403	614
13	0	0	0	0	399	614
14	0	0	0	0	397	613
15	0	0	0	0	394	612
0	0	0	0	0	391	613
1	0	0	0	0	389	613
2	0	0	0	0	387	613
3	0	0	0	0	386	612
4	0	0	0	0	384	613
5	0	0	0	0	383	613
6	0	0	0	0	382	613
7	0	0	0	0	381	613
8	0	0	0	0	380	612
9	0	0	0	0	378	613
10	0	0	0	0	378	613
11	0	0	0	0	378	612
12	0	0	0	0	376	613
13	0	0	0	0	375	613
14	0	0	0	0	374	613
15	0	0	0	0	373	612
0	0	0	0	0	372	612
1	0	0	0	0	371	612
2	0	0	0	0	370	612
3	0	0	0	0	369	611
4	0	0	0	0	369	613
5	0	0	0	0	369	612
6	0	0	0	0	370	612
7	0	0	0	0	370	612
8	0	0	0	0	370	612
9	0	0	0	0	370	612
10	0	0	0	0	370	612
11	0	0	0	0	370	611
12	0	0	0	0	370	612
13	0	0	0	0	370	612
14	0	0	0	0	370	611
15	0	0	0	0	370	611
0	0	0	0	0	369	611
1	0	0	0	0	369	611
2	0	0	0	0	371	611
3	0	0	0	0	371	610
4	0	0	0	0	372	610
5	0	0	0	0	374	611
6	0	0	0	0	376	611
7	0	0	0	0	378	611
8	0	0	0	0	380	610
9	0	0	0	0	383	610
10	0	0	0	0	385	610
11	0	0	0	0	387	609
12	0	0	0	0	390	610
13	0	0	0	0	391	611
14	0	0	0	0	392	610
15	0	0	0	0	395	611
0	0	0	0	0	396	611
1	0	0	0	0	398	611
2	0	0	0	0	400	611
3	0	0	0	0	402	609
4	0	0	0	0	406	610
5	0	0	0	0	408	610
6	0	0	0	0	410	610
7	0	0	0	0	413	610
8	0	0	0	0	416	610
9	0	0	0	0	419	610
10	0	0	0	0	423	609
11	0	0	0	0	427	609
12	0	0	0	0	429	610
13	0	0	0	0	431	609
14	0	0	0	0	433	610
15	0	0	0	0	435	610
0	0	0	0	0	437	610
1	0	0	0	0	439	611
2	0	0	0	0	441	610
3	0	0	0	0	445	610
4	0	0	0	0	448	610
5	0	0	0	0	451	611
6	0	0	0	0	455	611
7	0	0	0	0	457	611
8	0	0	0	0	461	611
9	0	0	0	0	465	610
10	0	0	0	0	469	610
11	0	0	0	0	472	609
12	0	0	0	0	476	610
13	0	0	0	0	478	611
14	0	0	0	0	480	610
15	0	0	0	0	483	611
0	0	0	0	0	485	611
1	0	0	0	0	487	611
2	0	0	0	0	490	611
3	0	0	0	0	492	609
4	0	0	0	0	495	610
5	0	0	0	0	497	611
6	0	0	0	0	501	611
7	0	0	0	0	504	611
8	0	0	0	0	508	611
9	0	0	0	0	511	611
10	0	0	0	0	513	611
11	0	0	0	0	515	611
12	0	0	0	0	518	611
13	0	0	0	0	519	611
14	0	0	0	0	522	611
15	0	0	0	0	525	611
0	0	0	0	0	527	611
1	0	0	0	0	529	611
2	0	0	0	0	533	611
3	0	0	0	0	536	610
4	0	0	0	0	538	611
5	0	0	0	0	539	611
6	0	0	0	0	540	611
7	0	0	0	0	541	611
8	0	0	0	0	542	611
9	0	0	0	0	544	611
10	0	0	0	0	545	611
11	0	0	0	0	546	611
12	0	0	0	0	548	611
13	0	0	0	0	549	611
14	0	0	0	0	551	611
15	0	0	0	0	551	611
0	0	0	0	0	551	611
1	0	0	0	0	552	612
2	0	0	0	0	552	612
3	0	0	0	0	552	611
4	0	0	0	0	552	612
5	0	0	0	0	553	612
6	0	0	0	0	553	611
7	0	0	0	0	554	611
8	0	0	0	0	555	612
9	0	0	0	0	555	611
10	0	0	0	0	556	612
11	0	0	0	0	556	611
12	0	0	0	0	557	613
13	0	0	0	0	557	613
14	0	0	0	0	556	612
15	0	0	0	0	556	613
0	0	0	0	0	557	612
1	0	0	0	0	557	613
2	0	0	0	0	557	613
3	0	0	0	0	556	612
4	0	0	0	0	556	614
5	0	0	0	0	556	613
6	0	0	0	0	557	613
7	0	0	0	0	556	613
8	0	0	0	0	556	612
9	0	0	0	0	557	613
10	0	0	0	0	557	612
11	0	0	0	0	557	612
12	0	0	0	0	556	613
13	0	0	0	0	556	613
14	0	0	0	0	555	613
15	0	0	0	0	553	612
0	0	0	0	0	551	613
1	0	0	0	0	551	613
2	0	0	0	0	549	614
3	0	0	0	0	547	612
4	0	0	0	0	546	613
5	0	0	0	0	545	613
6	0	0	0	0	544	612
7	0	0	0	0	543	613
8	0	0	0	0	543	613
9	0	0	0	0	543	612
10	0	0	0	0	543	613
11	0	0	0	0	543	611
12	0	0	0	0	542	613
13	0	0	0	0	542	613
14	0	0	0	0	543	613
15	0	0	0	0	543	613
0	0	0	0	0	544	613
1	0	0	0	0	545	613
2	0	0	0	0	547	613
3	0	0	0	0	549	612
4	0	0	0	0	551	613
5	0	0	0	0	551	613
6	0	0	0	0	553	612
7	0	0	0	0	555	613
8	0	0	0	0	555	612
9	0	0	0	0	555	613
10	0	0	0	0	556	612
11	0	0	0	0	557	611
12	0	0	0	0	558	612
13	0	0	0	0	558	612
14	0	0	0	0	558	612
15	0	0	0	0	558	612
0	0	0	0	0	559	611
1	0	0	0	0	560	611
2	0	0	0	0	561	612
3	0	0	0	0	563	611
4	0	0	0	0	564	612
5	0	0	0	0	566	612
6	0	0	0	0	567	612
7	0	0	0	0	567	612
8	0	0	0	0	567	612
9	0	0	0	0	567	612
10	0	0	0	0	567	612
11	0	0	0	0	566	611
12	0	0	0	0	566	611
13	0	0	0	0	567	611
14	0	0	0	0	568	611
15	0	0	0	0	568	611
0	0	0	0	0	568	611
1	0	0	0	0	568	611
2	0	0	0	0	568	611
3	0	0	0	0	569	610
4	0	0	0	0	570	611
5	0	0	0	0	570	611
6	0	0	0	0	570	611
7	0	0	0	0	571	611
8	0	0	0	0	571	611
9	0	0	0	0	571	611
10	0	0	0	0	571	611
11	0	0	0	0	570	610
12	0	0	0	0	570	611
13	0	0	0	0	570	611
14	0	0	0	0	570	611
15	0	0	0	0	570	611
0	0	0	0	0	571	611
1	0	0	0	0	571	611
2	0	0	0	0	571	611
3	0	0	0	0	571	610
4	0	0	0	0	572	611
5	0	0	0	0	571	611
6	0	0	0	0	571	611
7	0	0	0	0	570	611
8	0	0	0	0	570	611
9	0	0	0	0	569	611
10	0	0	0	0	568	611
11	0	0	0	0	568	610
12	0	0	0	0	566	611
13	0	0	0	0	565	610
14	0	0	0	0	563	611
15	0	0	0	0	563	611
0	0	0	0	0	562	610
1	0	0	0	0	561	610
2	0	0	0	0	561	610
3	0	0	0	0	560	610
4	0	0	0	0	559	610
5	0	0	0	0	558	611
6	0	0	0	0	556	611
7	0	0	0	0	554	610
8	0	0	0	0	554	611
9	0	0	0	0	553	611
10	0	0	0	0	555	611
11	0	0	0	0	558	609
12	0	0	0	0	562	611
13	0	0	0	0	566	611
14	0	0	0	0	568	610
15	0	0	0	0	572	611
0	0	0	0	0	576	611
1	0	0	0	0	581	611
2	0	0	0	0	584	611
3	0	0	0	0	588	610
4	0	0	0	0	590	611
5	0	0	0	0	591	611
6	0	0	0	0	594	611
7	0	0	0	0	596	611
8	0	0	0	0	598	611
9	0	0	0	0	601	611
10	0	0	0	0	607	612
11	0	0	0	0	612	611
12	0	0	0	0	617	611
13	0	0	0	0	624	611
14	0	0	0	0	627	611
15	0	0	0	0	632	611
0	0	0	0	0	636	611
1	0	0	0	0	640	612
2	0	0	0	0	646	611
3	0	0	0	0	652	610
4	0	0	0	0	657	611
5	0	0	0	0	662	611
6	0	0	0	0	666	612
7	0	0	0	0	668	612
8	0	0	0	0	670	611
9	0	0	0	0	671	612
10	0	0	0	0	665	612
11	0	0	0	0	656	611
12	0	0	0	0	645	611
13	0	0	0	0	633	611
14	0	0	0	0	623	612
15	0	0	0	0	616	611
0	0	0	0	0	612	611
1	0	0	0	0	612	611
2	0	0	0	0	611	611
3	0	0	0	0	609	611
4	0	0	0	0	609	611
5	0	0	0	0	610	612
6	0	0	0	0	611	611
7	0	0	0	0	613	611
8	0	0	0	0	614	611
9	0	0	0	0	616	612
10	0	0	0	0	620	612
11	0	0	0	0	622	611
12	0	0	0	0	623	612
13	0	0	0	0	623	612
14	0	0	0	0	622	612
15	0	0	0	0	621	612
0	0	0	0	0	620	612
1	0	0	0	0	618	612
2	0	0	0	0	616	612
3	0	0	0	0	614	611
4	0	0	0	0	612	613
5	0	0	0	0	609	612
6	0	0	0	0	606	612
7	0	0	0	0	603	612
8	0	0	0	0	600	612
9	0	0	0	0	597	613
10	0	0	0	0	595	613
11	0	0	0	0	593	612
12	0	0	0	0	591	613
13	0	0	0	0	590	612
14	0	0	0	0	589	613
15	0	0	0	0	588	612
0	0	0	0	0	588	613
1	0	0	0	0	589	613
2	0	0	0	0	590	613
3	0	0	0	0	589	612
4	0	0	0	0	590	612
5	0	0	0	0	590	613
6	0	0	0	0	590	612
7	0	0	0	0	590	612
8	0	0	0	0	589	612
9	0	0	0	0	588	612
10	0	0	0	0	588	612
11	0	0	0	0	586	611
12	0	0	0	0	586	613
13	0	0	0	0	585	613
14	0	0	0	0	584	613
15	0	0	0	0	583	613
0	0	0	0	0	582	613
1	0	0	0	0	582	613
2	0	0	0	0	580	613
3	0	0	0	0	578	612
4	0	0	0	0	576	613
5	0	0	0	0	575	613
6	0	0	0	0	571	613
7	0	0	0	0	568	613
8	0	0	0	0	567	613
9	0	0	0	0	565	613
10	0	0	0	0	563	612
11	0	0	0	0	563	612
12	0	0	0	0	561	613
13	0	0	0	0	560	612
14	0	0	0	0	558	612
15	0	0	0	0	557	613
0	0	0	0	0	555	612
1	0	0	0	0	553	612
2	0	0	0	0	552	612
3	0	0	0	0	551	611
4	0	0	0	0	551	613
5	0	0	0	0	550	612
6	0	0	0	0	548	612
7	0	0	0	0	547	612
8	0	0	0	0	545	612
9	0	0	0	0	544	612
10	0	0	0	0	543	611
11	0	0	0	0	544	611
12	0	0	0	0	544	611
13	0	0	0	0	544	612
14	0	0	0	0	544	612
15	0	0	0	0	543	611
0	0	0	0	0	544	612
1	0	0	0	0	544	611
2	0	0	0	0	545	611
3	0	0	0	0	546	610
4	0	0	0	0	547	611
5	0	0	0	0	548	611
6	0	0	0	0	550	611
7	0	0	0	0	551	611
8	0	0	0	0	552	611
9	0	0	0	0	552	610
10	0	0	0	0	551	611
11	0	0	0	0	552	610
12	0	0	0	0	553	611
13	0	0	0	0	554	611
14	0	0	0	0	555	611
15	0	0	0	0	554	611
0	0	0	0	0	555	611
1	0	0	0	0	555	611
2	0	0	0	0	555	611
3	0	0	0	0	554	609
4	0	0	0	0	554	610
5	0	0	0	0	554	611
6	0	0	0	0	552	611
7	0	0	0	0	551	611
8	0	0	0	0	551	610
9	0	0	0	0	551	611
10	0	0	0	0	551	611
11	0	0	0	0	551	609
12	0	0	0	0	551	610
13	0	0	0	0	552	611
14	0	0	0	0	553	611
15	0	0	0	0	552	611
0	0	0	0	0	553	611
1	0	0	0	0	554	611
2	0	0	0	0	554	610
3	0	0	0	0	552	609
4	0	0	0	0	551	610
5	0	0	0	0	551	610
6	0	0	0	0	551	611
7	0	0	0	0	550	610
8	0	0	0	0	549	611
9	0	0	0	0	549	610
10	0	0	0	0	549	610
11	0	0	0	0	549	609
12	0	0	0	0	550	610
13	0	0	0	0	550	611
14	0	0	0	0	548	611
15	0	0	0	0	547	611
0	0	0	0	0	547	611
1	0	0	0	0	546	611
2	0	0	0	0	546	611
3	0	0	0	0	546	610
4	0	0	0	0	547	611
5	0	0	0	0	547	611
6	0	0	0	0	548	611
7	0	0	0	0	548	611
8	0	0	0	0	549	611
9	0	0	0	0	550	611
10	0	0	0	0	551	611
11	0	0	0	0	552	610
12	0	0	0	0	553	612
13	0	0	0	0	554	611
14	0	0	0	0	553	611
15	0	0	0	0	553	612
0	0	0	0	0	553	611
1	0	0	0	0	553	611
2	0	0	0	0	553	611
3	0	0	0	0	553	610
4	0	0	0	0	554	611
5	0	0	0	0	555	611
6	0	0	0	0	556	611
7	0	0	0	0	557	611
8	0	0	0	0	558	611
9	0	0	0	0	560	611
10	0	0	0	0	560	611
11	0	0	0	0	562	611
12	0	0	0	0	563	611
13	0	0	0	0	564	611
14	0	0	0	0	565	612
15	0	0	0	0	566	611
0	0	0	0	0	567	612
1	0	0	0	0	568	612
2	0	0	0	0	568	611
3	0	0	0	0	569	611
4	0	0	0	0	570	611
5	0	0	0	0	569	611
6	0	0	0	0	568	611
7	0	0	0	0	569	612
8	0	0	0	0	568	612
9	0	0	0	0	568	611
10	0	0	0	0	568	612
11	0	0	0	0	568	611
12	0	0	0	0	567	611
13	0	0	0	0	566	612
14	0	0	0	0	566	612
15	0	0	0	0	566	612
0	0	0	0	0	564	613
1	0	0	0	0	563	613
2	0	0	0	0	561	613
3	0	0	0	0	560	612
4	0	0	0	0	557	613
5	0	0	0	0	556	612
6	0	0	0	0	554	613
7	0	0	0	0	552	614
8	0	0	0	0	551	613
9	0	0	0	0	550	613
10	0	0	0	0	550	613
11	0	0	0	0	550	612
12	0	0	0	0	548	614
13	0	0	0	0	547	613
14	0	0	0	0	546	614
15	0	0	0	0	544	613
0	0	0	0	0	543	614
1	0	0	0	0	542	614
2	0	0	0	0	541	613
3	0	0	0	0	540	613
4	0	0	0	0	540	614
5	0	0	0	0	538	613
6	0	0	0	0	537	614
7	0	0	0	0	537	614
8	0	0	0	0	537	613
9	0	0	0	0	537	613
10	0	0	0	0	537	613
11	0	0	0	0	537	612
12	0	0	0	0	540	613
13	0	0	0	0	541	613
14	0	0	0	0	542	612
15	0	0	0	0	542	613
0	0	0	0	0	543	612
1	0	0	0	0	543	612
2	0	0	0	0	544	613
3	0	0	0	0	545	612
4	0	0	0	0	547	612
5	0	0	0	0	548	613
6	0	0	0	0	549	612
7	0	0	0	0	551	612
8	0	0	0	0	553	612
9	0	0	0	0	554	613
10	0	0	0	0	555	612
11	0	0	0	0	556	611
12	0	0	0	0	557	612
13	0	0	0	0	558	611
14	0	0	0	0	559	611
15	0	0	0	0	561	612
0	0	0	0	0	562	611
1	0	0	0	0	564	612
2	0	0	0	0	565	611
3	0	0	0	0	565	610
4	0	0	0	0	566	611
5	0	0	0	0	567	611
6	0	0	0	0	568	611
7	0	0	0	0	569	611
8	0	0	0	0	569	611
9	0	0	0	0	571	611
10	0	0	0	0	571	611
11	0	0	0	0	572	610
12	0	0	0	0	574	611
13	0	0	0	0	575	610
14	0	0	0	0	575	611
15	0	0	0	0	576	611
0	0	0	0	0	577	611
1	0	0	0	0	578	610
2	0	0	0	0	580	610
3	0	0	0	0	580	609
4	0	0	0	0	581	611
5	0	0	0	0	582	611
6	0	0	0	0	582	611
7	0	0	0	0	583	611
8	0	0	0	0	584	611
9	0	0	0	0	585	611
10	0	0	0	0	585	611
11	0	0	0	0	585	609
12	0	0	0	0	584	611
13	0	0	0	0	583	611
14	0	0	0	0	583	611
15	0	0	0	0	583	611
0	0	0	0	0	583	611
1	0	0	0	0	583	611
2	0	0	0	0	582	611
3	0	0	0	0	581	611
4	0	0	0	0	581	611
5	0	0	0	0	579	611
6	0	0	0	0	579	611
7	0	0	0	0	579	611
8	0	0	0	0	579	611
9	0	0	0	0	578	611
10	0	0	0	0	577	611
11	0	0	0	0	576	610
12	0	0	0	0	576	611
13	0	0	0	0	575	611
14	0	0	0	0	575	611
15	0	0	0	0	574	611
0	0	0	0	0	572	612
1	0	0	0	0	571	611
2	0	0	0	0	569	611
3	0	0	0	0	569	610
4	0	0	0	0	568	611
5	0	0	0	0	567	611
6	0	0	0	0	567	611
7	0	0	0	0	567	611
8	0	0	0	0	566	610
9	0	0	0	0	566	611
10	0	0	0	0	566	611
11	0	0	0	0	566	610
12	0	0	0	0	565	611
13	0	0	0	0	564	611
14	0	0	0	0	563	611
15	0	0	0	0	562	611
0	0	0	0	0	562	611
1	0	0	0	0	561	611
2	0	0	0	0	560	611
3	0	0	0	0	559	610
4	0	0	0	0	558	610
5	0	0	0	0	556	610
6	0	0	0	0	555	611
7	0	0	0	0	554	611
8	0	0	0	0	553	611
9	0	0	0	0	552	611
10	0	0	0	0	551	611
11	0	0	0	0	551	610
12	0	0	0	0	550	611
13	0	0	0	0	548	611
14	0	0	0	0	548	612
15	0	0	0	0	547	611
0	0	0	0	0	547	611
1	0	0	0	0	547	611
2	0	0	0	0	546	612
3	0	0	0	0	546	611
4	0	0	0	0	546	612
5	0	0	0	0	546	611
6	0	0	0	0	545	612
7	0	0	0	0	544	612
8	0	0	0	0	543	611
9	0	0	0	0	542	612
10	0	0	0	0	541	612
11	0	0	0	0	539	611
12	0	0	0	0	537	611
13	0	0	0	0	536	611
14	0	0	0	0	534	611
15	0	0	0	0	532	612
0	0	0	0	0	531	612
1	0	0	0	0	530	611
2	0	0	0	0	529	612
3	0	0	0	0	527	611
4	0	0	0	0	526	611
5	0	0	0	0	524	611
6	0	0	0	0	523	611
7	0	0	0	0	521	612
8	0	0	0	0	520	612
9	0	0	0	0	519	612
10	0	0	0	0	517	612
11	0	0	0	0	514	611
12	0	0	0	0	512	612
13	0	0	0	0	510	612
14	0	0	0	0	508	612
15	0	0	0	0	506	612
0	0	0	0	0	503	612
1	0	0	0	0	501	612
2	0	0	0	0	499	612
3	0	0	0	0	497	611
4	0	0	0	0	496	613
5	0	0	0	0	494	612
6	0	0	0	0	493	612
7	0	0	0	0	493	612
8	0	0	0	0	493	612
9	0	0	0	0	492	612
10	0	0	0	0	492	612
11	0	0	0	0	490	611
12	0	0	0	0	489	612
13	0	0	0	0	489	612
14	0	0	0	0	488	613
15	0	0	0	0	486	612
0	0	0	0	0	484	613
1	0	0	0	0	484	613
2	0	0	0	0	483	613
3	0	0	0	0	483	612
4	0	0	0	0	482	612
5	0	0	0	0	481	612
6	0	0	0	0	480	612
7	0	0	0	0	480	612
8	0	0	0	0	480	613
9	0	0	0	0	479	612
10	0	0	0	0	478	612
11	0	0	0	0	478	611
12	0	0	0	0	478	612
13	0	0	0	0	479	612
14	0	0	0	0	479	612
15	0	0	0	0	479	612
0	0	0	0	0	478	611
1	0	0	0	0	479	612
2	0	0	0	0	479	611
3	0	0	0	0	480	611
4	0	0	0	0	480	611
5	0	0	0	0	479	612
6	0	0	0	0	480	611
7	0	0	0	0	481	611
8	0	0	0	0	481	611
9	0	0	0	0	483	611
10	0	0	0	0	484	611
11	0	0	0	0	486	610
12	0	0	0	0	487	611
13	0	0	0	0	489	611
14	0	0	0	0	490	611
15	0	0	0	0	491	611
0	0	0	0	0	492	610
1	0	0	0	0	494	611
2	0	0	0	0	495	610
3	0	0	0	0	496	610
4	0	0	0	0	497	610
5	0	0	0	0	498	611
6	0	0	0	0	499	611
7	0	0	0	0	499	610
8	0	0	0	0	500	611
9	0	0	0	0	499	611
10	0	0	0	0	498	611
11	0	0	0	0	497	609
12	0	0	0	0	496	611
13	0	0	0	0	495	611
14	0	0	0	0	493	611
15	0	0	0	0	492	611
0	0	0	0	0	492	611
1	0	0	0	0	490	611
2	0	0	0	0	490	611
3	0	0	0	0	490	609
4	0	0	0	0	488	611
5	0	0	0	0	487	611
6	0	0	0	0	486	610
7	0	0	0	0	484	611
8	0	0	0	0	483	611
9	0	0	0	0	482	610
10	0	0	0	0	481	611
11	0	0	0	0	478	609
12	0	0	0	0	477	611
13	0	0	0	0	476	611
14	0	0	0	0	476	611
15	0	0	0	0	476	611
0	0	0	0	0	476	611
1	0	0	0	0	476	611
2	0	0	0	0	475	611
3	0	0	0	0	475	611
4	0	0	0	0	475	611
5	0	0	0	0	476	611
6	0	0	0	0	475	611
7	0	0	0	0	476	612
8	0	0	0	0	475	612
9	0	0	0	0	475	612
10	0	0	0	0	476	612
11	0	0	0	0	476	611
12	0	0	0	0	478	612
13	0	0	0	0	479	611
14	0	0	0	0	481	612
15	0	0	0	0	483	611
0	0	0	0	0	485	611
1	0	0	0	0	488	612
2	0	0	0	0	491	612
3	0	0	0	0	493	611
4	0	0	0	0	496	612
5	0	0	0	0	499	612
6	0	0	0	0	502	612
7	0	0	0	0	505	612
8	0	0	0	0	510	612
9	0	0	0	0	513	611
10	0	0	0	0	517	612
11	0	0	0	0	519	611
12	0	0	0	0	522	612
13	0	0	0	0	525	613
14	0	0	0	0	528	612
15	0	0	0	0	531	613
0	0	0	0	0	536	612
1	0	0	0	0	539	612
2	0	0	0	0	544	612
3	0	0	0	0	550	611
4	0	0	0	0	557	612
5	0	0	0	0	561	612
6	0	0	0	0	565	613
7	0	0	0	0	570	612
8	0	0	0	0	575	612
9	0	0	0	0	582	612
10	0	0	0	0	589	613
11	0	0	0	0	596	612
12	0	0	0	0	604	612
13	0	0	0	0	612	612
14	0	0	0	0	621	612
15	0	0	0	0	630	613
0	0	0	0	0	639	612
1	0	0	0	0	648	612
2	0	0	0	0	657	611
3	0	0	0	0	667	611
4	0	0	0	0	676	612
5	0	0	0	0	685	611
6	0	0	0	0	695	612
7	0	0	0	0	705	611
8	0	0	0	0	713	611
9	0	0	0	0	723	611
10	0	0	0	0	732	611
11	0	0	0	0	740	610
12	0	0	0	0	748	611
13	0	0	0	0	755	611
14	0	0	0	0	761	610
15	0	0	0	0	768	611
0	0	0	0	0	775	611
1	0	0	0	0	781	611
2	0	0	0	0	787	611
3	0	0	0	0	793	610
4	0	0	0	0	799	611
5	0	0	0	0	806	610
6	0	0	0	0	812	611
7	0	0	0	0	817	611
8	0	0	0	0	823	610
9	0	0	0	0	828	610
10	0	0	0	0	833	611
11	0	0	0	0	837	610
12	0	0	0	0	841	611
13	0	0	0	0	845	611
14	0	0	0	0	849	611
15	0	0	0	0	852	611
0	0	0	0	0	856	611
1	0	0	0	0	859	612
2	0	0	0	0	862	612
3	0	0	0	0	865	612
4	0	0	0	0	868	612
5	0	0	0	0	871	612
6	0	0	0	0	873	613
7	0	0	0	0	878	612
8	0	0	0	0	882	612
9	0	0	0	0	887	611
10	0	0	0	0	892	613
11	0	0	0	0	895	612
12	0	0	0	0	897	612
13	0	0	0	0	900	612
14	0	0	0	0	902	612
15	0	0	0	0	904	612
0	0	0	0	0	906	612
1	0	0	0	0	906	611
2	0	0	0	0	907	611
3	0	0	0	0	908	611
4	0	0	0	0	909	611
5	0	0	0	0	910	611
6	0	0	0	0	910	611
7	0	0	0	0	911	612
8	0	0	0	0	910	612
9	0	0	0	0	910	612
10	0	0	0	0	911	612
11	0	0	0	0	910	611
12	0	0	0	0	908	612
13	0	0	0	0	905	612
14	0	0	0	0	902	612
15	0	0	0	0	899	612
0	0	0	0	0	897	612
1	0	0	0	0	895	612
2	0	0	0	0	892	612
3	0	0	0	0	890	611
4	0	0	0	0	888	612
5	0	0	0	0	885	612
6	0	0	0	0	881	612
7	0	0	0	0	878	612
8	0	0	0	0	874	612
9	0	0	0	0	871	612
10	0	0	0	0	867	612
11	0	0	0	0	864	611
12	0	0	0	0	862	612
13	0	0	0	0	859	612
14	0	0	0	0	858	612
15	0	0	0	0	856	612
0	0	0	0	0	854	612
1	0	0	0	0	851	611
2	0	0	0	0	849	611
3	0	0	0	0	847	611
4	0	0	0	0	846	612
5	0	0	0	0	844	612
6	0	0	0	0	842	612
7	0	0	0	0	840	611
8	0	0	0	0	838	611
9	0	0	0	0	835	612
10	0	0	0	0	833	611
11	0	0	0	0	830	611
12	0	0	0	0	828	611
13	0	0	0	0	824	611
14	0	0	0	0	820	612
15	0	0	0	0	816	611
0	0	0	0	0	813	611
1	0	0	0	0	811	612
2	0	0	0	0	807	611
3	0	0	0	0	802	611
4	0	0	0	0	799	611
5	0	0	0	0	798	611
6	0	0	0	0	795	611
7	0	0	0	0	792	612
8	0	0	0	0	789	611
9	0	0	0	0	785	611
10	0	0	0	0	782	612
11	0	0	0	0	779	611
12	0	0	0	0	775	612
13	0	0	0	0	772	611
14	0	0	0	0	769	612
15	0	0	0	0	764	612
0	0	0	0	0	760	612
1	0	0	0	0	756	612
2	0	0	0	0	752	612
3	0	0	0	0	747	610
4	0	0	0	0	743	612
5	0	0	0	0	740	611
6	0	0	0	0	735	611
7	0	0	0	0	732	611
8	0	0	0	0	728	611
9	0	0	0	0	726	611
10	0	0	0	0	723	612
11	0	0	0	0	720	611
12	0	0	0	0	718	611
13	0	0	0	0	715	611
14	0	0	0	0	711	612
15	0	0	0	0	707	612
0	0	0	0	0	704	611
1	0	0	0	0	701	611
2	0	0	0	0	697	611
3	0	0	0	0	694	611
4	0	0	0	0	690	611
5	0	0	0	0	687	611
6	0	0	0	0	684	611
7	0	0	0	0	681	611
8	0	0	0	0	678	611
9	0	0	0	0	675	611
10	0	0	0	0	672	611
11	0	0	0	0	670	610
12	0	0	0	0	668	611
13	0	0	0	0	666	611
14	0	0	0	0	664	611
15	0	0	0	0	661	611
0	0	0	0	0	659	611
1	0	0	0	0	656	611
2	0	0	0	0	654	611
3	0	0	0	0	651	610
4	0	0	0	0	649	611
5	0	0	0	0	647	611
6	0	0	0	0	644	611
7	0	0	0	0	642	611
8	0	0	0	0	639	611
9	0	0	0	0	636	611
10	0	0	0	0	633	611
11	0	0	0	0	631	610
12	0	0	0	0	627	611
13	0	0	0	0	625	611
14	0	0	0	0	623	611
15	0	0	0	0	621	611
0	0	0	0	0	619	612
1	0	0	0	0	617	611
2	0	0	0	0	616	611
3	0	0	0	0	615	611
4	0	0	0	0	614	611
5	0	0	0	0	611	611
6	0	0	0	0	610	612
7	0	0	0	0	607	611
8	0	0	0	0	604	611
9	0	0	0	0	601	611
10	0	0	0	0	598	611
11	0	0	0	0	596	611
12	0	0	0	0	594	611
13	0	0	0	0	592	611
14	0	0	0	0	591	611
15	0	0	0	0	588	611
0	0	0	0	0	585	611
1	0	0	0	0	584	611
2	0	0	0	0	581	611
3	0	0	0	0	578	610
4	0	0	0	0	575	611
5	0	0	0	0	573	611
6	0	0	0	0	570	611
7	0	0	0	0	569	611
8	0	0	0	0	567	611
9	0	0	0	0	566	611
10	0	0	0	0	564	612
11	0	0	0	0	563	610
12	0	0	0	0	563	611
13	0	0	0	0	562	611
14	0	0	0	0	561	611
15	0	0	0	0	560	612
0	0	0	0	0	558	612
1	0	0	0	0	557	611
2	0	0	0	0	556	612
3	0	0	0	0	556	611
4	0	0	0	0	555	612
5	0	0	0	0	554	612
6	0	0	0	0	553	612
7	0	0	0	0	553	612
8	0	0	0	0	552	612
9	0	0	0	0	551	612
10	0	0	0	0	551	612
11	0	0	0	0	550	611
12	0	0	0	0	549	612
13	0	0	0	0	547	612
14	0	0	0	0	546	612
15	0	0	0	0	545	612
0	0	0	0	0	543	612
1	0	0	0	0	541	612
2	0	0	0	0	538	612
3	0	0	0	0	536	611
4	0	0	0	0	535	611
5	0	0	0	0	534	612
6	0	0	0	0	535	611
7	0	0	0	0	536	612
8	0	0	0	0	535	612
9	0	0	0	0	535	611
10	0	0	0	0	536	612
11	0	0	0	0	535	611
12	0	0	0	0	536	612
13	0	0	0	0	535	612
14	0	0	0	0	534	612
15	0	0	0	0	534	611
0	0	0	0	0	535	611
1	0	0	0	0	535	612
2	0	0	0	0	534	611
3	0	0	0	0	533	610
4	0	0	0	0	532	611
5	0	0	0	0	531	611
6	0	0	0	0	530	612
7	0	0	0	0	529	612
8	0	0	0	0	530	611
9	0	0	0	0	529	611
10	0	0	0	0	527	611
11	0	0	0	0	526	610
12	0	0	0	0	524	611
13	0	0	0	0	521	611
14	0	0	0	0	519	611
15	0	0	0	0	517	611
0	0	0	0	0	515	612
1	0	0	0	0	514	611
2	0	0	0	0	512	611
3	0	0	0	0	511	610
4	0	0	0	0	509	611
5	0	0	0	0	507	611
6	0	0	0	0	507	612
7	0	0	0	0	505	611
8	0	0	0	0	505	612
9	0	0	0	0	505	612
10	0	0	0	0	505	611
11	0	0	0	0	505	611
12	0	0	0	0	504	612
13	0	0	0	0	504	612
14	0	0	0	0	503	611
15	0	0	0	0	502	611
0	0	0	0	0	501	611
1	0	0	0	0	499	611
2	0	0	0	0	499	611
3	0	0	0	0	497	611
4	0	0	0	0	496	612
5	0	0	0	0	495	611
6	0	0	0	0	493	611
7	0	0	0	0	492	611
8	0	0	0	0	492	612
9	0	0	0	0	491	612
10	0	0	0	0	490	611
11	0	0	0	0	487	610
12	0	0	0	0	486	611
13	0	0	0	0	484	611
14	0	0	0	0	483	611
15	0	0	0	0	482	611
0	0	0	0	0	481	611
1	0	0	0	0	480	612
2	0	0	0	0	478	611
3	0	0	0	0	476	611
4	0	0	0	0	474	611
5	0	0	0	0	472	612
6	0	0	0	0	472	612
7	0	0	0	0	470	612
8	0	0	0	0	470	612
9	0	0	0	0	469	612
10	0	0	0	0	468	612
11	0	0	0	0	467	611
12	0	0	0	0	467	612
13	0	0	0	0	466	612
14	0	0	0	0	465	612
15	0	0	0	0	464	612
0	0	0	0	0	463	612
1	0	0	0	0	461	612
2	0	0	0	0	459	612
3	0	0	0	0	456	611
4	0	0	0	0	454	611
5	0	0	0	0	451	612
6	0	0	0	0	448	612
7	0	0	0	0	445	612
8	0	0	0	0	441	612
9	0	0	0	0	438	612
10	0	0	0	0	433	611
11	0	0	0	0	430	611
12	0	0	0	0	427	612
13	0	0	0	0	423	612
14	0	0	0	0	420	612
15	0	0	0	0	417	612
0	0	0	0	0	414	612
1	0	0	0	0	412	612
2	0	0	0	0	412	612
3	0	0	0	0	412	611
4	0	0	0	0	414	612
5	0	0	0	0	415	612
6	0	0	0	0	417	612
7	0	0	0	0	419	613
8	0	0	0	0	422	613
9	0	0	0	0	425	612
10	0	0	0	0	427	612
11	0	0	0	0	428	611
12	0	0	0	0	429	612
13	0	0	0	0	428	612
14	0	0	0	0	428	612
15	0	0	0	0	429	612
0	0	0	0	0	431	613
1	0	0	0	0	433	612
2	0	0	0	0	437	612
3	0	0	0	0	441	611
4	0	0	0	0	444	613
5	0	0	0	0	447	612
6	0	0	0	0	450	612
7	0	0	0	0	452	613
8	0	0	0	0	455	613
9	0	0	0	0	458	613
10	0	0	0	0	461	612
11	0	0	0	0	465	611
12	0	0	0	0	469	612
13	0	0	0	0	471	612
14	0	0	0	0	471	612
15	0	0	0	0	470	612
0	0	0	0	0	468	612
1	0	0	0	0	462	612
2	0	0	0	0	451	612
3	0	0	0	0	437	611
4	0	0	0	0	423	612
5	0	0	0	0	409	613
6	0	0	0	0	398	612
7	0	0	0	0	391	612
8	0	0	0	0	387	612
9	0	0	0	0	385	612
10	0	0	0	0	384	612
11	0	0	0	0	383	611
12	0	0	0	0	384	612
13	0	0	0	0	385	611
14	0	0	0	0	388	612
15	0	0	0	0	391	612
0	0	0	0	0	395	611
1	0	0	0	0	398	611
2	0	0	0	0	401	611
3	0	0	0	0	405	611
4	0	0	0	0	407	612
5	0	0	0	0	408	611
6	0	0	0	0	407	611
7	0	0	0	0	406	611
8	0	0	0	0	404	611
9	0	0	0	0	402	611
10	0	0	0	0	399	611
11	0	0	0	0	398	610
12	0	0	0	0	396	611
13	0	0	0	0	396	611
14	0	0	0	0	395	611
15	0	0	0	0	393	611
0	0	0	0	0	392	611
1	0	0	0	0	391	611
2	0	0	0	0	391	611
3	0	0	0	0	391	611
4	0	0	0	0	390	611
5	0	0	0	0	389	611
6	0	0	0	0	388	611
7	0	0	0	0	387	611
8	0	0	0	0	387	611
9	0	0	0	0	386	611
10	0	0	0	0	386	611
11	0	0	0	0	386	610
12	0	0	0	0	387	611
13	0	0	0	0	386	611
14	0	0	0	0	388	611
15	0	0	0	0	388	611
0	0	0	0	0	388	611
1	0	0	0	0	387	611
2	0	0	0	0	385	611
3	0	0	0	0	383	610
4	0	0	0	0	381	611
5	0	0	0	0	378	611
6	0	0	0	0	377	611
7	0	0	0	0	375	611
8	0	0	0	0	374	611
9	0	0	0	0	373	610
10	0	0	0	0	373	611
11	0	0	0	0	374	610
12	0	0	0	0	374	611
13	0	0	0	0	375	610
14	0	0	0	0	375	611
15	0	0	0	0	376	611
0	0	0	0	0	377	611
1	0	0	0	0	378	611
2	0	0	0	0	379	611
3	0	0	0	0	380	610
4	0	0	0	0	381	611
5	0	0	0	0	382	611
6	0	0	0	0	382	611
7	0	0	0	0	383	611
8	0	0	0	0	384	611
9	0	0	0	0	385	611
10	0	0	0	0	387	611
11	0	0	0	0	389	610
12	0	0	0	0	391	611
13	0	0	0	0	393	612
14	0	0	0	0	394	611
15	0	0	0	0	395	611
0	0	0	0	0	396	611
1	0	0	0	0	398	611
2	0	0	0	0	399	611
3	0	0	0	0	400	611
4	0	0	0	0	402	611
5	0	0	0	0	404	612
6	0	0	0	0	405	611
7	0	0	0	0	407	611
8	0	0	0	0	408	611
9	0	0	0	0	408	611
10	0	0	0	0	408	612
11	0	0	0	0	408	610
12	0	0	0	0	408	611
13	0	0	0	0	408	611
14	0	0	0	0	408	611
15	0	0	0	0	408	611
0	0	0	0	0	408	612
1	0	0	0	0	408	611
2	0	0	0	0	408	611
3	0	0	0	0	408	610
4	0	0	0	0	408	611
5	0	0	0	0	408	611
6	0	0	0	0	408	611
7	0	0	0	0	408	611
8	0	0	0	0	407	611
9	0	0	0	0	407	611
10	0	0	0	0	407	611
11	0	0	0	0	406	610
12	0	0	0	0	404	610
13	0	0	0	0	403	611
14	0	0	0	0	403	611
15	0	0	0	0	402	611
0	0	0	0	0	401	611
1	0	0	0	0	401	611
2	0	0	0	0	400	611
3	0	0	0	0	400	610
4	0	0	0	0	400	611
5	0	0	0	0	400	611
6	0	0	0	0	401	611
7	0	0	0	0	402	611
8	0	0	0	0	403	611
9	0	0	0	0	404	611
10	0	0	0	0	404	611
11	0	0	0	0	406	611
12	0	0	0	0	408	611
13	0	0	0	0	409	611
14	0	0	0	0	410	612
15	0	0	0	0	411	612
0	0	0	0	0	413	612
1	0	0	0	0	414	612
2	0	0	0	0	414	611
3	0	0	0	0	414	611
4	0	0	0	0	414	611
5	0	0	0	0	413	612
6	0	0	0	0	412	611
7	0	0	0	0	412	611
8	0	0	0	0	411	611
9	0	0	0	0	411	611
10	0	0	0	0	409	612
11	0	0	0	0	408	611
12	0	0	0	0	408	611
13	0	0	0	0	408	612
14	0	0	0	0	408	612
15	0	0	0	0	407	612
0	0	0	0	0	407	612
1	0	0	0	0	406	612
2	0	0	0	0	407	612
3	0	0	0	0	407	611
4	0	0	0	0	408	612
5	0	0	0	0	408	611
6	0	0	0	0	409	612
7	0	0	0	0	409	612
8	0	0	0	0	410	612
9	0	0	0	0	409	612
10	0	0	0	0	408	612
11	0	0	0	0	408	611
12	0	0	0	0	408	612
13	0	0	0	0	409	612
14	0	0	0	0	410	612
15	0	0	0	0	409	611
0	0	0	0	0	408	611
1	0	0	0	0	406	611
2	0	0	0	0	406	611
3	0	0	0	0	405	611
4	0	0	0	0	405	612
5	0	0	0	0	404	612
6	0	0	0	0	403	612
7	0	0	0	0	402	612
8	0	0	0	0	401	612
9	0	0	0	0	400	612
10	0	0	0	0	399	612
11	0	0	0	0	398	611
12	0	0	0	0	397	613
13	0	0	0	0	397	612
14	0	0	0	0	397	612
15	0	0	0	0	398	613
0	0	0	0	0	397	612
1	0	0	0	0	397	612
2	0	0	0	0	398	612
3	0	0	0	0	398	612
4	0	0	0	0	399	612
5	0	0	0	0	399	613
6	0	0	0	0	399	613
7	0	0	0	0	399	613
8	0	0	0	0	399	613
9	0	0	0	0	399	613
10	0	0	0	0	398	612
11	0	0	0	0	397	611
12	0	0	0	0	396	612
13	0	0	0	0	393	613
14	0	0	0	0	391	612
15	0	0	0	0	389	612
0	0	0	0	0	388	613
1	0	0	0	0	387	613
2	0	0	0	0	387	612
3	0	0	0	0	387	612
4	0	0	0	0	387	612
5	0	0	0	0	387	613
6	0	0	0	0	386	612
7	0	0	0	0	385	612
8	0	0	0	0	384	612
9	0	0	0	0	383	612
10	0	0	0	0	383	613
11	0	0	0	0	383	612
12	0	0	0	0	384	613
13	0	0	0	0	384	613
14	0	0	0	0	385	612
15	0	0	0	0	386	612
0	0	0	0	0	387	612
1	0	0	0	0	390	612
2	0	0	0	0	391	612
3	0	0	0	0	393	611
4	0	0	0	0	395	612
5	0	0	0	0	396	613
6	0	0	0	0	397	613
7	0	0	0	0	398	612
8	0	0	0	0	399	612
9	0	0	0	0	399	612
10	0	0	0	0	399	612
11	0	0	0	0	399	611
12	0	0	0	0	399	613
13	0	0	0	0	399	612
14	0	0	0	0	399	612
15	0	0	0	0	397	612
0	0	0	0	0	396	612
1	0	0	0	0	396	611
2	0	0	0	0	395	611
3	0	0	0	0	395	611
4	0	0	0	0	394	611
5	0	0	0	0	394	611
6	0	0	0	0	394	611
7	0	0	0	0	393	611
8	0	0	0	0	392	611
9	0	0	0	0	393	612
10	0	0	0	0	393	611
11	0	0	0	0	393	611
12	0	0	0	0	393	611
13	0	0	0	0	392	611
14	0	0	0	0	392	611
15	0	0	0	0	392	611
0	0	0	0	0	392	611
1	0	0	0	0	392	611
2	0	0	0	0	393	611
3	0	0	0	0	393	610
4	0	0	0	0	392	611
5	0	0	0	0	392	611
6	0	0	0	0	391	611
7	0	0	0	0	390	611
8	0	0	0	0	388	611
9	0	0	0	0	387	611
10	0	0	0	0	386	611
11	0	0	0	0	386	610
12	0	0	0	0	386	611
13	0	0	0	0	387	611
14	0	0	0	0	388	611
15	0	0	0	0	388	611
0	0	0	0	0	388	611
1	0	0	0	0	388	611
2	0	0	0	0	388	611
3	0	0	0	0	389	609
4	0	0	0	0	389	611
5	0	0	0	0	390	611
6	0	0	0	0	391	611
7	0	0	0	0	392	611
8	0	0	0	0	392	611
9	0	0	0	0	393	611
10	0	0	0	0	394	611
11	0	0	0	0	394	610
12	0	0	0	0	393	611
13	0	0	0	0	393	611
14	0	0	0	0	392	611
15	0	0	0	0	391	611
0	0	0	0	0	390	611
1	0	0	0	0	389	611
2	0	0	0	0	389	611
3	0	0	0	0	388	611
4	0	0	0	0	388	611
5	0	0	0	0	387	611
6	0	0	0	0	386	611
7	0	0	0	0	384	611
8	0	0	0	0	383	611
9	0	0	0	0	381	611
10	0	0	0	0	380	611
11	0	0	0	0	379	611
12	0	0	0	0	379	611
13	0	0	0	0	378	611
14	0	0	0	0	378	611
15	0	0	0	0	379	611
0	0	0	0	0	377	611
1	0	0	0	0	377	610
2	0	0	0	0	377	610
3	0	0	0	0	378	610
4	0	0	0	0	379	610
5	0	0	0	0	378	611
6	0	0	0	0	376	611
7	0	0	0	0	375	611
8	0	0	0	0	376	611
9	0	0	0	0	376	611
10	0	0	0	0	377	611
11	0	0	0	0	378	611
12	0	0	0	0	379	611
13	0	0	0	0	380	611
14	0	0	0	0	383	611
15	0	0	0	0	385	611
0	0	0	0	0	387	611
1	0	0	0	0	388	611
2	0	0	0	0	390	611
3	0	0	0	0	392	610
4	0	0	0	0	394	611
5	0	0	0	0	395	611
6	0	0	0	0	395	611
7	0	0	0	0	395	612
8	0	0	0	0	395	611
9	0	0	0	0	395	612
10	0	0	0	0	396	611
11	0	0	0	0	394	610
12	0	0	0	0	394	611
13	0	0	0	0	393	611
14	0	0	0	0	392	611
15	0	0	0	0	391	611
0	0	0	0	0	390	611
1	0	0	0	0	390	611
2	0	0	0	0	389	611
3	0	0	0	0	389	611
4	0	0	0	0	389	612
5	0	0	0	0	389	611
6	0	0	0	0	390	611
7	0	0	0	0	390	612
8	0	0	0	0	390	611
9	0	0	0	0	389	611
10	0	0	0	0	389	612
11	0	0	0	0	388	611
12	0	0	0	0	387	611
13	0	0	0	0	386	611
14	0	0	0	0	385	611
15	0	0	0	0	385	611
0	0	0	0	0	384	611
1	0	0	0	0	382	611
2	0	0	0	0	381	611
3	0	0	0	0	380	611
4	0	0	0	0	379	612
5	0	0	0	0	378	612
6	0	0	0	0	378	612
7	0	0	0	0	379	612
8	0	0	0	0	380	612
9	0	0	0	0	381	612
10	0	0	0	0	382	612
11	0	0	0	0	384	612
12	0	0	0	0	385	612
13	0	0	0	0	387	612
14	0	0	0	0	387	612
15	0	0	0	0	388	612
0	0	0	0	0	390	612
1	0	0	0	0	391	612
2	0	0	0	0	392	612
3	0	0	0	0	392	611
4	0	0	0	0	393	612
5	0	0	0	0	394	612
6	0	0	0	0	395	612
7	0	0	0	0	396	612
8	0	0	0	0	398	613
9	0	0	0	0	400	612
10	0	0	0	0	401	612
11	0	0	0	0	403	611
12	0	0	0	0	405	612
13	0	0	0	0	406	612
14	0	0	0	0	408	613
15	0	0	0	0	410	612
0	0	0	0	0	411	612
1	0	0	0	0	413	612
2	0	0	0	0	415	613
3	0	0	0	0	417	611
4	0	0	0	0	418	612
5	0	0	0	0	419	612
6	0	0	0	0	419	612
7	0	0	0	0	420	612
8	0	0	0	0	421	612
9	0	0	0	0	420	612
10	0	0	0	0	421	612
11	0	0	0	0	422	611
12	0	0	0	0	424	612
13	0	0	0	0	426	612
14	0	0	0	0	427	612
15	0	0	0	0	427	612
0	0	0	0	0	428	611
1	0	0	0	0	428	612
2	0	0	0	0	429	611
3	0	0	0	0	430	611
4	0	0	0	0	432	611
5	0	0	0	0	432	611
6	0	0	0	0	433	611
7	0	0	0	0	434	611
8	0	0	0	0	435	611
9	0	0	0	0	437	612
10	0	0	0	0	439	612
11	0	0	0	0	440	611
12	0	0	0	0	441	611
13	0	0	0	0	441	611
14	0	0	0	0	441	611
15	0	0	0	0	441	611
0	0	0	0	0	442	612
1	0	0	0	0	443	612
2	0	0	0	0	444	611
3	0	0	0	0	444	611
4	0	0	0	0	444	611
5	0	0	0	0	445	612
6	0	0	0	0	446	612
7	0	0	0	0	447	611
8	0	0	0	0	448	611
9	0	0	0	0	451	612
10	0	0	0	0	454	611
11	0	0	0	0	455	611
12	0	0	0	0	457	611
13	0	0	0	0	459	611
14	0	0	0	0	462	611
15	0	0	0	0	464	611
0	0	0	0	0	467	612
1	0	0	0	0	468	611
2	0	0	0	0	470	611
3	0	0	0	0	471	610
4	0	0	0	0	472	611
5	0	0	0	0	473	611
6	0	0	0	0	474	611
7	0	0	0	0	476	611
8	0	0	0	0	476	611
9	0	0	0	0	478	611
10	0	0	0	0	480	611
11	0	0	0	0	481	611
12	0	0	0	0	483	611
13	0	0	0	0	483	612
14	0	0	0	0	484	611
15	0	0	0	0	485	611
0	0	0	0	0	485	611
1	0	0	0	0	486	611
2	0	0	0	0	486	611
3	0	0	0	0	485	610
4	0	0	0	0	484	611
5	0	0	0	0	483	611
6	0	0	0	0	483	611
7	0	0	0	0	482	611
8	0	0	0	0	481	611
9	0	0	0	0	480	611
10	0	0	0	0	480	611
11	0	0	0	0	480	610
12	0	0	0	0	480	611
13	0	0	0	0	481	611
14	0	0	0	0	482	611
15	0	0	0	0	482	612
0	0	0	0	0	483	611
1	0	0	0	0	483	611
2	0	0	0	0	483	611
3	0	0	0	0	484	610
4	0	0	0	0	484	611
5	0	0	0	0	484	611
6	0	0	0	0	484	611
7	0	0	0	0	484	611
8	0	0	0	0	484	611
9	0	0	0	0	483	611
10	0	0	0	0	483	611
11	0	0	0	0	483	610
12	0	0	0	0	483	611
13	0	0	0	0	483	611
14	0	0	0	0	483	612
15	0	0	0	0	482	612
0	0	0	0	0	482	611
1	0	0	0	0	482	612
2	0	0	0	0	481	611
3	0	0	0	0	482	611
4	0	0	0	0	481	612
5	0	0	0	0	480	612
6	0	0	0	0	480	612
7	0	0	0	0	479	612
8	0	0	0	0	477	613
9	0	0	0	0	476	613
10	0	0	0	0	476	612
11	0	0	0	0	475	612
12	0	0	0	0	473	613
13	0	0	0	0	472	613
14	0	0	0	0	470	613
15	0	0	0	0	469	613
0	0	0	0	0	469	612
1	0	0	0	0	468	612
2	0	0	0	0	468	612
3	0	0	0	0	469	612
4	0	0	0	0	470	612
5	0	0	0	0	470	612
6	0	0	0	0	470	612
7	0	0	0	0	469	612
8	0	0	0	0	468	612
9	0	0	0	0	468	612
10	0	0	0	0	468	612
11	0	0	0	0	467	612
12	0	0	0	0	465	612
13	0	0	0	0	464	612
14	0	0	0	0	464	613
15	0	0	0	0	463	613
0	0	0	0	0	462	612
1	0	0	0	0	461	612
2	0	0	0	0	460	612
3	0	0	0	0	459	611
4	0	0	0	0	457	612
5	0	0	0	0	457	612
6	0	0	0	0	456	612
7	0	0	0	0	456	613
8	0	0	0	0	455	612
9	0	0	0	0	454	612
10	0	0	0	0	454	613
11	0	0	0	0	454	612
12	0	0	0	0	453	612
13	0	0	0	0	451	612
14	0	0	0	0	450	612
15	0	0	0	0	449	612
0	0	0	0	0	449	612
1	0	0	0	0	449	612
2	0	0	0	0	449	612
3	0	0	0	0	450	611
4	0	0	0	0	451	612
5	0	0	0	0	451	612
6	0	0	0	0	452	612
7	0	0	0	0	452	612
8	0	0	0	0	453	612
9	0	0	0	0	454	611
10	0	0	0	0	454	612
11	0	0	0	0	455	611
12	0	0	0	0	454	611
13	0	0	0	0	452	612
14	0	0	0	0	452	612
15	0	0	0	0	451	612
0	0	0	0	0	451	611
1	0	0	0	0	451	612
2	0	0	0	0	451	612
3	0	0	0	0	451	611
4	0	0	0	0	452	612
5	0	0	0	0	454	612
6	0	0	0	0	455	612
7	0	0	0	0	458	612
8	0	0	0	0	460	612
9	0	0	0	0	461	612
10	0	0	0	0	462	612
11	0	0	0	0	464	611
12	0	0	0	0	464	612
13	0	0	0	0	463	612
14	0	0	0	0	463	611
15	0	0	0	0	463	611
0	0	0	0	0	462	611
1	0	0	0	0	462	612
2	0	0	0	0	461	612
3	0	0	0	0	461	611
4	0	0	0	0	461	612
5	0	0	0	0	460	612
6	0	0	0	0	460	612
7	0	0	0	0	460	611
8	0	0	0	0	461	612
9	0	0	0	0	462	612
10	0	0	0	0	463	612
11	0	0	0	0	463	611
12	0	0	0	0	464	612
13	0	0	0	0	464	612
14	0	0	0	0	464	611
15	0	0	0	0	465	610
0	0	0	0	0	466	611
1	0	0	0	0	467	611
2	0	0	0	0	467	611
3	0	0	0	0	468	610
4	0	0	0	0	470	611
5	0	0	0	0	470	611
6	0	0	0	0	471	610
7	0	0	0	0	473	611
8	0	0	0	0	475	611
9	0	0	0	0	477	611
10	0	0	0	0	480	611
11	0	0	0	0	483	609
12	0	0	0	0	484	611
13	0	0	0	0	486	611
14	0	0	0	0	486	611
15	0	0	0	0	485	611
0	0	0	0	0	484	610
1	0	0	0	0	484	611
2	0	0	0	0	484	611
3	0	0	0	0	485	610
4	0	0	0	0	485	611
5	0	0	0	0	485	611
6	0	0	0	0	485	611
7	0	0	0	0	485	611
8	0	0	0	0	485	611
9	0	0	0	0	485	611
10	0	0	0	0	484	611
11	0	0	0	0	485	610
12	0	0	0	0	486	611
13	0	0	0	0	485	611
14	0	0	0	0	484	611
15	0	0	0	0	484	611
0	0	0	0	0	483	612
1	0	0	0	0	482	611
2	0	0	0	0	483	612
3	0	0	0	0	484	611
4	0	0	0	0	483	612
5	0	0	0	0	485	611
6	0	0	0	0	487	611
7	0	0	0	0	487	611
8	0	0	0	0	487	611
9	0	0	0	0	488	611
10	0	0	0	0	488	611
11	0	0	0	0	490	610
12	0	0	0	0	491	611
13	0	0	0	0	491	611
14	0	0	0	0	494	611
15	0	0	0	0	496	611
0	0	0	0	0	497	612
1	0	0	0	0	499	612
2	0	0	0	0	499	611
3	0	0	0	0	499	611
4	0	0	0	0	500	611
5	0	0	0	0	501	612
6	0	0	0	0	502	612
7	0	0	0	0	502	611
8	0	0	0	0	502	611
9	0	0	0	0	503	612
10	0	0	0	0	503	611
11	0	0	0	0	503	611
12	0	0	0	0	504	612
13	0	0	0	0	503	612
14	0	0	0	0	503	612
15	0	0	0	0	503	612
0	0	0	0	0	503	612
1	0	0	0	0	503	612
2	0	0	0	0	504	612
3	0	0	0	0	504	611
4	0	0	0	0	504	611
5	0	0	0	0	505	612
6	0	0	0	0	505	612
7	0	0	0	0	505	612
8	0	0	0	0	505	613
9	0	0	0	0	505	612
10	0	0	0	0	506	612
11	0	0	0	0	505	611
12	0	0	0	0	505	612
13	0	0	0	0	505	611
14	0	0	0	0	505	611
15	0	0	0	0	504	611
0	0	0	0	0	504	612
1	0	0	0	0	503	612
2	0	0	0	0	502	612
3	0	0	0	0	501	611
4	0	0	0	0	500	612
5	0	0	0	0	499	612
6	0	0	0	0	497	612
7	0	0	0	0	496	611
8	0	0	0	0	495	611
9	0	0	0	0	495	612
10	0	0	0	0	495	611
11	0	0	0	0	495	611
12	0	0	0	0	495	612
13	0	0	0	0	495	612
14	0	0	0	0	495	612
15	0	0	0	0	495	612
0	0	0	0	0	494	612
1	0	0	0	0	493	612
2	0	0	0	0	492	612
3	0	0	0	0	490	611
4	0	0	0	0	489	611
5	0	0	0	0	487	612
6	0	0	0	0	485	612
7	0	0	0	0	483	612
8	0	0	0	0	482	612
9	0	0	0	0	480	612
10	0	0	0	0	479	612
11	0	0	0	0	478	611
12	0	0	0	0	476	612
13	0	0	0	0	474	611
14	0	0	0	0	473	612
15	0	0	0	0	471	611
0	0	0	0	0	471	612
1	0	0	0	0	471	611
2	0	0	0	0	470	611
3	0	0	0	0	470	611
4	0	0	0	0	470	612
5	0	0	0	0	469	611
6	0	0	0	0	468	612
7	0	0	0	0	468	611
8	0	0	0	0	468	612
9	0	0	0	0	468	611
10	0	0	0	0	467	612
11	0	0	0	0	467	610
12	0	0	0	0	467	611
13	0	0	0	0	466	612
14	0	0	0	0	467	611
15	0	0	0	0	467	612
0	0	0	0	0	467	611
1	0	0	0	0	467	611
2	0	0	0	0	467	612
3	0	0	0	0	467	611
4	0	0	0	0	468	611
5	0	0	0	0	467	612
6	0	0	0	0	467	612
7	0	0	0	0	468	612
8	0	0	0	0	470	611
9	0	0	0	0	471	612
10	0	0	0	0	472	612
11	0	0	0	0	474	611
12	0	0	0	0	475	611
13	0	0	0	0	475	611
14	0	0	0	0	476	612
15	0	0	0	0	477	612
0	0	0	0	0	477	611
1	0	0	0	0	477	611
2	0	0	0	0	476	611
3	0	0	0	0	476	610
4	0	0	0	0	476	611
5	0	0	0	0	476	611
6	0	0	0	0	477	611
7	0	0	0	0	477	611
8	0	0	0	0	476	611
9	0	0	0	0	475	611
10	0	0	0	0	474	611
11	0	0	0	0	474	610
12	0	0	0	0	475	611
13	0	0	0	0	474	611
14	0	0	0	0	474	610
15	0	0	0	0	474	610
0	0	0	0	0	475	611
1	0	0	0	0	476	611
2	0	0	0	0	477	611
3	0	0	0	0	477	610
4	0	0	0	0	478	611
5	0	0	0	0	478	611
6	0	0	0	0	478	611
7	0	0	0	0	479	611
8	0	0	0	0	478	612
9	0	0	0	0	479	611
10	0	0	0	0	480	611
11	0	0	0	0	481	611
12	0	0	0	0	483	612
13	0	0	0	0	484	612
14	0	0	0	0	485	611
15	0	0	0	0	486	612
0	0	0	0	0	487	612
1	0	0	0	0	487	612
2	0	0	0	0	488	612
3	0	0	0	0	489	611
4	0	0	0	0	489	612
5	0	0	0	0	489	612
6	0	0	0	0	488	611
7	0	0	0	0	487	611
8	0	0	0	0	487	611
9	0	0	0	0	486	611
10	0	0	0	0	486	611
11	0	0	0	0	487	611
12	0	0	0	0	487	611
13	0	0	0	0	488	611
14	0	0	0	0	488	611
15	0	0	0	0	489	611
0	0	0	0	0	489	611
1	0	0	0	0	491	611
2	0	0	0	0	494	611
3	0	0	0	0	499	611
4	0	0	0	0	505	611
5	0	0	0	0	509	611
6	0	0	0	0	514	611
7	0	0	0	0	520	611
8	0	0	0	0	527	611
9	0	0	0	0	533	611
10	0	0	0	0	538	611
11	0	0	0	0	543	611
12	0	0	0	0	546	611
13	0	0	0	0	548	611
14	0	0	0	0	551	612
15	0	0	0	0	555	612
0	0	0	0	0	557	612
1	0	0	0	0	560	612
2	0	0	0	0	564	612
3	0	0	0	0	568	612
4	0	0	0	0	573	612
5	0	0	0	0	574	612
6	0	0	0	0	576	612
7	0	0	0	0	579	613
8	0	0	0	0	583	613
9	0	0	0	0	586	613
10	0	0	0	0	590	613
11	0	0	0	0	592	612
12	0	0	0	0	597	613
13	0	0	0	0	600	612
14	0	0	0	0	602	612
15	0	0	0	0	601	612
0	0	0	0	0	596	612
1	0	0	0	0	588	612
2	0	0	0	0	575	613
3	0	0	0	0	561	611
4	0	0	0	0	548	612
5	0	0	0	0	536	612
6	0	0	0	0	528	612
7	0	0	0	0	523	612
8	0	0	0	0	520	612
9	0	0	0	0	520	612
10	0	0	0	0	521	612
11	0	0	0	0	522	611
12	0	0	0	0	524	612
13	0	0	0	0	527	612
14	0	0	0	0	530	612
15	0	0	0	0	534	612
0	0	0	0	0	536	612
1	0	0	0	0	538	612
2	0	0	0	0	541	612
3	0	0	0	0	543	611
4	0	0	0	0	545	612
5	0	0	0	0	545	612
6	0	0	0	0	546	612
7	0	0	0	0	546	611
8	0	0	0	0	544	612
9	0	0	0	0	542	612
10	0	0	0	0	540	612
11	0	0	0	0	537	611
12	0	0	0	0	535	612
13	0	0	0	0	532	612
14	0	0	0	0	529	612
15	0	0	0	0	526	612
0	0	0	0	0	523	612
1	0	0	0	0	519	612
2	0	0	0	0	518	612
3	0	0	0	0	515	611
4	0	0	0	0	513	612
5	0	0	0	0	512	612
6	0	0	0	0	510	612
7	0	0	0	0	508	612
8	0	0	0	0	507	612
9	0	0	0	0	505	612
10	0	0	0	0	504	612
11	0	0	0	0	504	611
12	0	0	0	0	504	613
13	0	0	0	0	504	613
14	0	0	0	0	504	612
15	0	0	0	0	504	612
0	0	0	0	0	504	612
1	0	0	0	0	505	612
2	0	0	0	0	506	613
3	0	0	0	0	507	611
4	0	0	0	0	507	611
5	0	0	0	0	508	611
6	0	0	0	0	508	612
7	0	0	0	0	510	612
8	0	0	0	0	511	612
9	0	0	0	0	511	611
10	0	0	0	0	511	611
11	0	0	0	0	510	611
12	0	0	0	0	510	611
13	0	0	0	0	509	612
14	0	0	0	0	510	611
15	0	0	0	0	510	611
0	0	0	0	0	511	611
1	0	0	0	0	510	611
2	0	0	0	0	511	612
3	0	0	0	0	512	611
4	0	0	0	0	512	611
5	0	0	0	0	512	611
6	0	0	0	0	513	611
7	0	0	0	0	513	611
8	0	0	0	0	514	611
9	0	0	0	0	516	612
10	0	0	0	0	518	612
11	0	0	0	0	519	611
12	0	0	0	0	519	611
13	0	0	0	0	521	612
14	0	0	0	0	521	612
15	0	0	0	0	522	612
0	0	0	0	0	523	611
1	0	0	0	0	522	611
2	0	0	0	0	522	611
3	0	0	0	0	522	610
4	0	0	0	0	523	611
5	0	0	0	0	522	611
6	0	0	0	0	521	611
7	0	0	0	0	521	611
8	0	0	0	0	522	611
9	0	0	0	0	523	611
10	0	0	0	0	524	611
11	0	0	0	0	526	610
12	0	0	0	0	527	611
13	0	0	0	0	528	611
14	0	0	0	0	529	611
15	0	0	0	0	529	611
0	0	0	0	0	530	611
1	0	0	0	0	531	611
2	0	0	0	0	531	611
3	0	0	0	0	531	610
4	0	0	0	0	531	611
5	0	0	0	0	531	610
6	0	0	0	0	531	611
7	0	0	0	0	530	611
8	0	0	0	0	529	610
9	0	0	0	0	530	611
10	0	0	0	0	531	611
11	0	0	0	0	531	609
12	0	0	0	0	531	610
13	0	0	0	0	532	610
14	0	0	0	0	532	611
15	0	0	0	0	532	611
0	0	0	0	0	533	610
1	0	0	0	0	534	610
2	0	0	0	0	534	610
3	0	0	0	0	534	609
4	0	0	0	0	534	611
5	0	0	0	0	534	610
6	0	0	0	0	535	610
7	0	0	0	0	535	611
8	0	0	0	0	534	610
9	0	0	0	0	535	611
10	0	0	0	0	536	611
11	0	0	0	0	536	610
12	0	0	0	0	536	611
13	0	0	0	0	538	611
14	0	0	0	0	539	611
15	0	0	0	0	540	611
0	0	0	0	0	540	612
1	0	0	0	0	542	612
2	0	0	0	0	543	612
3	0	0	0	0	543	611
4	0	0	0	0	544	612
5	0	0	0	0	543	612
6	0	0	0	0	542	612
7	0	0	0	0	541	612
8	0	0	0	0	541	612
9	0	0	0	0	541	612
10	0	0	0	0	541	612
11	0	0	0	0	540	610
12	0	0	0	0	541	612
13	0	0	0	0	540	612
14	0	0	0	0	541	612
15	0	0	0	0	541	613
0	0	0	0	0	540	612
1	0	0	0	0	539	612
2	0	0	0	0	538	612
3	0	0	0	0	537	611
4	0	0	0	0	537	613
5	0	0	0	0	536	612
6	0	0	0	0	536	613
7	0	0	0	0	536	613
8	0	0	0	0	535	613
9	0	0	0	0	535	613
10	0	0	0	0	533	613
11	0	0	0	0	532	612
12	0	0	0	0	531	613
13	0	0	0	0	531	613
14	0	0	0	0	531	612
15	0	0	0	0	531	612
0	0	0	0	0	531	613
1	0	0	0	0	530	612
2	0	0	0	0	530	612
3	0	0	0	0	529	612
4	0	0	0	0	529	612
5	0	0	0	0	528	612
6	0	0	0	0	528	612
7	0	0	0	0	527	612
8	0	0	0	0	527	612
9	0	0	0	0	527	612
10	0	0	0	0	526	612
11	0	0	0	0	525	611
12	0	0	0	0	525	612
13	0	0	0	0	524	612
14	0	0	0	0	525	613
15	0	0	0	0	525	612
0	0	0	0	0	525	613
1	0	0	0	0	525	613
2	0	0	0	0	525	613
3	0	0	0	0	524	611
4	0	0	0	0	525	612
5	0	0	0	0	524	613
6	0	0	0	0	523	613
7	0	0	0	0	522	613
8	0	0	0	0	521	612
9	0	0	0	0	521	612
10	0	0	0	0	520	613
11	0	0	0	0	519	611
12	0	0	0	0	518	612
13	0	0	0	0	518	613
14	0	0	0	0	520	613
15	0	0	0	0	520	613
0	0	0	0	0	520	613
1	0	0	0	0	521	612
2	0	0	0	0	521	613
3	0	0	0	0	521	612
4	0	0	0	0	523	613
5	0	0	0	0	522	612
6	0	0	0	0	523	612
7	0	0	0	0	523	612
8	0	0	0	0	523	613
9	0	0	0	0	525	613
10	0	0	0	0	526	613
11	0	0	0	0	527	611
12	0	0	0	0	529	612
13	0	0	0	0	529	612
14	0	0	0	0	531	612
15	0	0	0	0	531	612
0	0	0	0	0	532	612
1	0	0	0	0	533	612
2	0	0	0	0	533	612
3	0	0	0	0	534	611
4	0	0	0	0	535	612
5	0	0	0	0	535	611
6	0	0	0	0	535	612
7	0	0	0	0	535	611
8	0	0	0	0	535	611
9	0	0	0	0	536	611
10	0	0	0	0	536	611
11	0	0	0	0	536	611
12	0	0	0	0	536	612
13	0	0	0	0	535	612
14	0	0	0	0	534	612
15	0	0	0	0	533	611
0	0	0	0	0	533	611
1	0	0	0	0	533	612
2	0	0	0	0	533	612
3	0	0	0	0	533	610
4	0	0	0	0	532	611
5	0	0	0	0	533	611
6	0	0	0	0	532	611
7	0	0	0	0	530	611
8	0	0	0	0	529	611
9	0	0	0	0	529	611
10	0	0	0	0	530	611
11	0	0	0	0	529	610
12	0	0	0	0	529	611
13	0	0	0	0	528	611
14	0	0	0	0	527	611
15	0	0	0	0	527	611
0	0	0	0	0	527	611
1	0	0	0	0	527	611
2	0	0	0	0	527	611
3	0	0	0	0	527	610
4	0	0	0	0	527	610
5	0	0	0	0	527	610
6	0	0	0	0	526	611
7	0	0	0	0	526	610
8	0	0	0	0	526	611
9	0	0	0	0	528	611
10	0	0	0	0	529	611
11	0	0	0	0	529	610
12	0	0	0	0	528	611
13	0	0	0	0	527	611
14	0	0	0	0	527	611
15	0	0	0	0	527	611
0	0	0	0	0	526	611
1	0	0	0	0	524	611
2	0	0	0	0	524	611
3	0	0	0	0	524	610
4	0	0	0	0	524	611
5	0	0	0	0	524	611
6	0	0	0	0	524	611
7	0	0	0	0	524	611
8	0	0	0	0	523	611
9	0	0	0	0	521	611
10	0	0	0	0	519	611
11	0	0	0	0	518	610
12	0	0	0	0	517	611
13	0	0	0	0	515	611
14	0	0	0	0	515	611
15	0	0	0	0	514	611
0	0	0	0	0	513	611
1	0	0	0	0	512	611
2	0	0	0	0	510	611
3	0	0	0	0	506	610
4	0	0	0	0	505	611
5	0	0	0	0	504	610
6	0	0	0	0	502	611
7	0	0	0	0	501	611
8	0	0	0	0	499	611
9	0	0	0	0	496	611
10	0	0	0	0	495	610
11	0	0	0	0	493	610
12	0	0	0	0	491	611
13	0	0	0	0	489	611
14	0	0	0	0	487	610
15	0	0	0	0	486	611
0	0	0	0	0	486	611
1	0	0	0	0	486	611
2	0	0	0	0	485	611
3	0	0	0	0	484	610
4	0	0	0	0	483	611
5	0	0	0	0	483	611
6	0	0	0	0	483	611
7	0	0	0	0	482	610
8	0	0	0	0	481	611
9	0	0	0	0	481	611
10	0	0	0	0	482	611
11	0	0	0	0	483	610
12	0	0	0	0	484	611
13	0	0	0	0	484	611
14	0	0	0	0	486	611
15	0	0	0	0	485	611
0	0	0	0	0	484	611
1	0	0	0	0	483	612
2	0	0	0	0	482	612
3	0	0	0	0	481	610
4	0	0	0	0	480	611
5	0	0	0	0	480	611
6	0	0	0	0	481	612
7	0	0	0	0	480	612
8	0	0	0	0	480	612
9	0	0	0	0	480	612
10	0	0	0	0	480	612
11	0	0	0	0	480	611
12	0	0	0	0	481	612
13	0	0	0	0	481	612
14	0	0	0	0	482	612
15	0	0	0	0	484	612
0	0	0	0	0	485	612
1	0	0	0	0	486	612
2	0	0	0	0	487	612
3	0	0	0	0	488	611
4	0	0	0	0	490	612
5	0	0	0	0	492	612
6	0	0	0	0	493	612
7	0	0	0	0	494	612
8	0	0	0	0	495	612
9	0	0	0	0	496	612
10	0	0	0	0	497	612
11	0	0	0	0	499	611
12	0	0	0	0	500	611
13	0	0	0	0	501	612
14	0	0	0	0	502	611
15	0	0	0	0	504	612
0	0	0	0	0	506	612
1	0	0	0	0	507	612
2	0	0	0	0	508	612
3	0	0	0	0	510	611
4	0	0	0	0	511	612
5	0	0	0	0	512	612
6	0	0	0	0	512	612
7	0	0	0	0	513	611
8	0	0	0	0	513	611
9	0	0	0	0	513	611
10	0	0	0	0	515	612
11	0	0	0	0	517	611
12	0	0	0	0	519	612
13	0	0	0	0	520	612
14	0	0	0	0	521	612
15	0	0	0	0	522	612
0	0	0	0	0	522	612
1	0	0	0	0	522	613
2	0	0	0	0	522	612
3	0	0	0	0	521	611
4	0	0	0	0	521	612
5	0	0	0	0	521	612
6	0	0	0	0	521	612
7	0	0	0	0	521	612
8	0	0	0	0	521	612
9	0	0	0	0	523	613
10	0	0	0	0	524	612
11	0	0	0	0	526	612
12	0	0	0	0	527	612
13	0	0	0	0	528	613
14	0	0	0	0	531	613
15	0	0	0	0	533	612
0	0	0	0	0	535	612
1	0	0	0	0	536	612
2	0	0	0	0	538	613
3	0	0	0	0	539	611
4	0	0	0	0	540	612
5	0	0	0	0	541	612
6	0	0	0	0	542	612
7	0	0	0	0	542	612
8	0	0	0	0	542	612
9	0	0	0	0	542	612
10	0	0	0	0	543	612
11	0	0	0	0	544	611
12	0	0	0	0	545	611
13	0	0	0	0	545	611
14	0	0	0	0	547	611
15	0	0	0	0	548	611
0	0	0	0	0	548	611
1	0	0	0	0	548	611
2	0	0	0	0	548	611
3	0	0	0	0	551	610
4	0	0	0	0	552	611
5	0	0	0	0	552	611
6	0	0	0	0	552	611
7	0	0	0	0	553	611
8	0	0	0	0	554	611
9	0	0	0	0	554	611
10	0	0	0	0	554	611
11	0	0	0	0	555	611
12	0	0	0	0	556	611
13	0	0	0	0	557	611
14	0	0	0	0	558	611
15	0	0	0	0	559	611
0	0	0	0	0	560	611
1	0	0	0	0	561	611
2	0	0	0	0	563	611
3	0	0	0	0	563	610
4	0	0	0	0	564	611
5	0	0	0	0	565	611
6	0	0	0	0	566	611
7	0	0	0	0	568	611
8	0	0	0	0	569	612
9	0	0	0	0	569	611
10	0	0	0	0	568	611
11	0	0	0	0	569	611
12	0	0	0	0	569	611
13	0	0	0	0	568	611
14	0	0	0	0	568	611
15	0	0	0	0	569	611
0	0	0	0	0	569	611
1	0	0	0	0	569	611
2	0	0	0	0	570	612
3	0	0	0	0	570	611
4	0	0	0	0	570	611
5	0	0	0	0	570	612
6	0	0	0	0	570	611
7	0	0	0	0	571	612
8	0	0	0	0	571	611
9	0	0	0	0	571	612
10	0	0	0	0	571	611
11	0	0	0	0	571	611
12	0	0	0	0	570	611
13	0	0	0	0	568	611
14	0	0	0	0	568	611
15	0	0	0	0	568	611
0	0	0	0	0	568	611
1	0	0	0	0	569	611
2	0	0	0	0	568	611
3	0	0	0	0	568	610
4	0	0	0	0	569	611
5	0	0	0	0	569	611
6	0	0	0	0	568	611
7	0	0	0	0	569	611
8	0	0	0	0	571	611
9	0	0	0	0	572	611
10	0	0	0	0	572	611
11	0	0	0	0	572	610
12	0	0	0	0	572	611
13	0	0	0	0	572	611
14	0	0	0	0	572	611
15	0	0	0	0	571	611
0	0	0	0	0	570	611
1	0	0	0	0	569	611
2	0	0	0	0	569	611
3	0	0	0	0	568	611
4	0	0	0	0	567	611
5	0	0	0	0	565	611
6	0	0	0	0	564	611
7	0	0	0	0	563	611
8	0	0	0	0	563	611
9	0	0	0	0	561	611
10	0	0	0	0	560	611
11	0	0	0	0	559	611
12	0	0	0	0	556	611
13	0	0	0	0	555	611
14	0	0	0	0	553	611
15	0	0	0	0	551	611
0	0	0	0	0	550	611
1	0	0	0	0	549	611
2	0	0	0	0	547	612
3	0	0	0	0	547	611
4	0	0	0	0	545	611
5	0	0	0	0	544	612
6	0	0	0	0	545	611
7	0	0	0	0	544	612
8	0	0	0	0	544	612
9	0	0	0	0	543	612
10	0	0	0	0	544	611
11	0	0	0	0	544	611
12	0	0	0	0	544	612
13	0	0	0	0	544	612
14	0	0	0	0	543	613
15	0	0	0	0	543	612
0	0	0	0	0	542	612
1	0	0	0	0	541	612
2	0	0	0	0	540	612
3	0	0	0	0	540	612
4	0	0	0	0	539	613
5	0	0	0	0	539	612
6	0	0	0	0	538	612
7	0	0	0	0	539	612
8	0	0	0	0	539	612
9	0	0	0	0	539	613
10	0	0	0	0	537	612
11	0	0	0	0	537	612
12	0	0	0	0	536	612
13	0	0	0	0	536	613
14	0	0	0	0	535	613
15	0	0	0	0	535	612
0	0	0	0	0	534	613
1	0	0	0	0	533	613
2	0	0	0	0	531	613
3	0	0	0	0	531	612
4	0	0	0	0	532	613
5	0	0	0	0	533	613
6	0	0	0	0	534	613
7	0	0	0	0	534	613
8	0	0	0	0	535	613
9	0	0	0	0	536	613
10	0	0	0	0	538	613
11	0	0	0	0	540	611
12	0	0	0	0	542	612
13	0	0	0	0	542	613
14	0	0	0	0	542	613
15	0	0	0	0	543	613
0	0	0	0	0	544	613
1	0	0	0	0	544	613
2	0	0	0	0	545	613
3	0	0	0	0	545	612
4	0	0	0	0	545	612
5	0	0	0	0	546	612
6	0	0	0	0	547	612
7	0	0	0	0	546	612
8	0	0	0	0	545	612
9	0	0	0	0	543	612
10	0	0	0	0	543	612
11	0	0	0	0	543	611
12	0	0	0	0	542	612
13	0	0	0	0	542	612
14	0	0	0	0	541	611
15	0	0	0	0	540	612
0	0	0	0	0	540	613
1	0	0	0	0	539	612
2	0	0	0	0	537	612
3	0	0	0	0	535	611
4	0	0	0	0	536	612
5	0	0	0	0	535	611
6	0	0	0	0	533	612
7	0	0	0	0	534	612
8	0	0	0	0	534	612
9	0	0	0	0	535	611
10	0	0	0	0	536	612
11	0	0	0	0	536	611
12	0	0	0	0	536	611
13	0	0	0	0	536	611
14	0	0	0	0	535	611
15	0	0	0	0	534	611
0	0	0	0	0	533	611
1	0	0	0	0	532	612
2	0	0	0	0	531	612
3	0	0	0	0	530	611
4	0	0	0	0	529	611
5	0	0	0	0	527	611
6	0	0	0	0	526	611
7	0	0	0	0	526	612
8	0	0	0	0	526	612
9	0	0	0	0	527	611
10	0	0	0	0	527	611
11	0	0	0	0	529	611
12	0	0	0	0	529	611
13	0	0	0	0	530	611
14	0	0	0	0	531	611
15	0	0	0	0	531	611
0	0	0	0	0	532	611
1	0	0	0	0	532	612
2	0	0	0	0	532	611
3	0	0	0	0	532	610
4	0	0	0	0	532	611
5	0	0	0	0	531	611
6	0	0	0	0	530	611
7	0	0	0	0	529	610
8	0	0	0	0	528	610
9	0	0	0	0	527	611
10	0	0	0	0	525	611
11	0	0	0	0	523	610
12	0	0	0	0	521	611
13	0	0	0	0	519	611
14	0	0	0	0	518	611
15	0	0	0	0	517	610
0	0	0	0	0	516	611
1	0	0	0	0	515	610
2	0	0	0	0	515	611
3	0	0	0	0	516	610
4	0	0	0	0	516	611
5	0	0	0	0	518	611
6	0	0	0	0	519	611
7	0	0	0	0	519	611
8	0	0	0	0	519	611
9	0	0	0	0	520	611
10	0	0	0	0	522	611
11	0	0	0	0	524	610
12	0	0	0	0	525	611
13	0	0	0	0	527	611
14	0	0	0	0	528	611
15	0	0	0	0	530	611
0	0	0	0	0	531	611
1	0	0	0	0	531	611
2	0	0	0	0	533	611
3	0	0	0	0	535	610
4	0	0	0	0	536	611
5	0	0	0	0	536	611
6	0	0	0	0	536	611
7	0	0	0	0	538	611
8	0	0	0	0	539	611
9	0	0	0	0	540	611
10	0	0	0	0	540	611
11	0	0	0	0	542	611
12	0	0	0	0	542	611
13	0	0	0	0	542	611
14	0	0	0	0	543	611
15	0	0	0	0	544	612
0	0	0	0	0	544	611
1	0	0	0	0	544	611
2	0	0	0	0	544	611
3	0	0	0	0	544	610
4	0	0	0	0	544	611
5	0	0	0	0	544	611
6	0	0	0	0	544	611
7	0	0	0	0	544	610
8	0	0	0	0	543	611
9	0	0	0	0	542	611
10	0	0	0	0	541	612
11	0	0	0	0	540	610
12	0	0	0	0	540	611
13	0	0	0	0	540	611
14	0	0	0	0	539	611
15	0	0	0	0	539	611
0	0	0	0	0	539	612
1	0	0	0	0	540	611
2	0	0	0	0	539	611
3	0	0	0	0	538	611
4	0	0	0	0	537	611
5	0	0	0	0	537	612
6	0	0	0	0	536	612
7	0	0	0	0	536	612
8	0	0	0	0	537	612
9	0	0	0	0	536	612
10	0	0	0	0	535	612
11	0	0	0	0	535	611
12	0	0	0	0	535	611
13	0	0	0	0	534	612
14	0	0	0	0	533	612
15	0	0	0	0	534	612
0	0	0	0	0	533	612
1	0	0	0	0	531	612
2	0	0	0	0	529	612
3	0	0	0	0	527	611
4	0	0	0	0	526	612
5	0	0	0	0	524	612
6	0	0	0	0	524	612
7	0	0	0	0	523	612
8	0	0	0	0	523	612
9	0	0	0	0	523	612
10	0	0	0	0	524	612
11	0	0	0	0	524	611
12	0	0	0	0	523	612
13	0	0	0	0	521	612
14	0	0	0	0	520	612
15	0	0	0	0	520	612
0	0	0	0	0	518	612
1	0	0	0	0	516	612
2	0	0	0	0	516	612
3	0	0	0	0	514	611
4	0	0	0	0	512	612
5	0	0	0	0	510	612
6	0	0	0	0	508	611
7	0	0	0	0	507	612
8	0	0	0	0	505	612
9	0	0	0	0	504	612
10	0	0	0	0	504	612
11	0	0	0	0	503	611
12	0	0	0	0	501	612
13	0	0	0	0	500	612
14	0	0	0	0	499	612
15	0	0	0	0	498	612
0	0	0	0	0	497	612
1	0	0	0	0	496	612
2	0	0	0	0	497	612
3	0	0	0	0	497	611
4	0	0	0	0	497	612
5	0	0	0	0	496	612
6	0	0	0	0	496	612
7	0	0	0	0	496	612
8	0	0	0	0	496	612
9	0	0	0	0	496	612
10	0	0	0	0	496	612
11	0	0	0	0	495	611
12	0	0	0	0	494	612
13	0	0	0	0	494	612
14	0	0	0	0	494	612
15	0	0	0	0	494	612
0	0	0	0	0	493	612
1	0	0	0	0	492	612
2	0	0	0	0	492	612
3	0	0	0	0	492	611
4	0	0	0	0	491	612
5	0	0	0	0	490	611
6	0	0	0	0	489	612
7	0	0	0	0	487	612
8	0	0	0	0	486	612
9	0	0	0	0	484	611
10	0	0	0	0	483	612
11	0	0	0	0	483	611
12	0	0	0	0	481	611
13	0	0	0	0	482	612
14	0	0	0	0	482	612
15	0	0	0	0	483	612
0	0	0	0	0	482	612
1	0	0	0	0	483	611
2	0	0	0	0	483	611
3	0	0	0	0	484	610
4	0	0	0	0	484	611
5	0	0	0	0	484	612
6	0	0	0	0	483	611
7	0	0	0	0	483	612
8	0	0	0	0	484	611
9	0	0	0	0	485	611
10	0	0	0	0	485	612
11	0	0	0	0	484	611
12	0	0	0	0	483	611
13	0	0	0	0	482	611
14	0	0	0	0	481	611
15	0	0	0	0	480	611
0	0	0	0	0	480	611
1	0	0	0	0	479	611
2	0	0	0	0	479	611
3	0	0	0	0	478	611
4	0	0	0	0	478	611
5	0	0	0	0	479	611
6	0	0	0	0	479	611
7	0	0	0	0	480	611
8	0	0	0	0	481	611
9	0	0	0	0	481	611
10	0	0	0	0	481	611
11	0	0	0	0	482	610
12	0	0	0	0	482	611
13	0	0	0	0	482	611
14	0	0	0	0	483	611
15	0	0	0	0	483	611
0	0	0	0	0	484	611
1	0	0	0	0	485	610
2	0	0	0	0	486	611
3	0	0	0	0	487	609
4	0	0	0	0	487	611
5	0	0	0	0	486	611
6	0	0	0	0	486	611
7	0	0	0	0	485	611
8	0	0	0	0	483	611
9	0	0	0	0	482	611
10	0	0	0	0	481	611
11	0	0	0	0	480	609
12	0	0	0	0	478	611
13	0	0	0	0	475	611
14	0	0	0	0	472	611
15	0	0	0	0	469	611
0	0	0	0	0	467	611
1	0	0	0	0	467	611
2	0	0	0	0	467	612
3	0	0	0	0	467	610
4	0	0	0	0	469	611
5	0	0	0	0	470	611
6	0	0	0	0	472	611
7	0	0	0	0	476	612
8	0	0	0	0	480	612
9	0	0	0	0	482	612
10	0	0	0	0	484	612
11	0	0	0	0	486	611
12	0	0	0	0	487	612
13	0	0	0	0	488	611
14	0	0	0	0	492	612
15	0	0	0	0	494	611
0	0	0	0	0	496	611
1	0	0	0	0	500	611
2	0	0	0	0	506	611
3	0	0	0	0	511	611
4	0	0	0	0	515	611
5	0	0	0	0	514	612
6	0	0	0	0	515	612
7	0	0	0	0	516	611
8	0	0	0	0	518	611
9	0	0	0	0	520	612
10	0	0	0	0	522	611
11	0	0	0	0	525	611
12	0	0	0	0	530	612
13	0	0	0	0	534	611
14	0	0	0	0	536	612
15	0	0	0	0	536	612
0	0	0	0	0	533	612
1	0	0	0	0	525	612
2	0	0	0	0	515	612
3	0	0	0	0	502	611
4	0	0	0	0	489	612
5	0	0	0	0	478	611
6	0	0	0	0	468	612
7	0	0	0	0	463	612
8	0	0	0	0	461	612
9	0	0	0	0	460	612
10	0	0	0	0	459	612
11	0	0	0	0	459	611
12	0	0	0	0	460	612
13	0	0	0	0	462	612
14	0	0	0	0	464	611
15	0	0	0	0	467	612
0	0	0	0	0	471	612
1	0	0	0	0	475	612
2	0	0	0	0	479	612
3	0	0	0	0	482	611
4	0	0	0	0	483	612
5	0	0	0	0	483	611
6	0	0	0	0	483	611
7	0	0	0	0	482	611
8	0	0	0	0	480	612
9	0	0	0	0	478	612
10	0	0	0	0	475	612
11	0	0	0	0	472	611
12	0	0	0	0	471	612
13	0	0	0	0	468	612
14	0	0	0	0	465	612
15	0	0	0	0	463	612
0	0	0	0	0	461	612
1	0	0	0	0	458	611
2	0	0	0	0	456	612
3	0	0	0	0	455	611
4	0	0	0	0	454	612
5	0	0	0	0	452	612
6	0	0	0	0	451	612
7	0	0	0	0	451	612
8	0	0	0	0	451	612
9	0	0	0	0	451	612
10	0	0	0	0	451	612
11	0	0	0	0	451	612
12	0	0	0	0	451	612
13	0	0	0	0	451	612
14	0	0	0	0	451	612
15	0	0	0	0	451	612
0	0	0	0	0	451	612
1	0	0	0	0	451	612
2	0	0	0	0	450	611
3	0	0	0	0	451	611
4	0	0	0	0	451	612
5	0	0	0	0	452	611
6	0	0	0	0	453	612
7	0	0	0	0	455	612
8	0	0	0	0	456	612
9	0	0	0	0	456	612
10	0	0	0	0	456	611
11	0	0	0	0	457	611
12	0	0	0	0	458	612
13	0	0	0	0	458	612
14	0	0	0	0	458	612
15	0	0	0	0	457	611
0	0	0	0	0	457	612
1	0	0	0	0	456	612
2	0	0	0	0	455	612
3	0	0	0	0	455	611
4	0	0	0	0	455	611
5	0	0	0	0	456	612
6	0	0	0	0	457	612
7	0	0	0	0	459	611
8	0	0	0	0	460	611
9	0	0	0	0	460	611
10	0	0	0	0	461	612
11	0	0	0	0	461	611
12	0	0	0	0	462	612
13	0	0	0	0	463	611
14	0	0	0	0	463	611
15	0	0	0	0	462	611
0	0	0	0	0	460	611
1	0	0	0	0	460	611
2	0	0	0	0	461	611
3	0	0	0	0	462	610
4	0	0	0	0	462	611
5	0	0	0	0	463	612
6	0	0	0	0	464	611
7	0	0	0	0	464	611
8	0	0	0	0	465	611
9	0	0	0	0	466	611
10	0	0	0	0	467	611
11	0	0	0	0	468	611
12	0	0	0	0	467	611
13	0	0	0	0	467	611
14	0	0	0	0	468	611
15	0	0	0	0	468	611
0	0	0	0	0	470	611
1	0	0	0	0	471	611
2	0	0	0	0	471	611
3	0	0	0	0	472	610
4	0	0	0	0	472	611
5	0	0	0	0	473	611
6	0	0	0	0	475	610
7	0	0	0	0	475	611
8	0	0	0	0	475	611
9	0	0	0	0	474	611
10	0	0	0	0	474	611
11	0	0	0	0	473	610
12	0	0	0	0	474	611
13	0	0	0	0	475	611
14	0	0	0	0	475	611
15	0	0	0	0	474	611
0	0	0	0	0	473	611
1	0	0	0	0	473	611
2	0	0	0	0	474	611
3	0	0	0	0	474	610
4	0	0	0	0	474	611
5	0	0	0	0	476	611
6	0	0	0	0	477	610
7	0	0	0	0	478	611
8	0	0	0	0	479	611
9	0	0	0	0	479	611
10	0	0	0	0	480	611
11	0	0	0	0	481	609
12	0	0	0	0	483	611
13	0	0	0	0	483	611
14	0	0	0	0	485	611
15	0	0	0	0	484	611
0	0	0	0	0	484	611
1	0	0	0	0	483	611
2	0	0	0	0	483	612
3	0	0	0	0	483	611
4	0	0	0	0	483	612
5	0	0	0	0	483	612
6	0	0	0	0	482	612
7	0	0	0	0	481	612
8	0	0	0	0	481	612
9	0	0	0	0	480	612
10	0	0	0	0	479	612
11	0	0	0	0	478	612
12	0	0	0	0	476	613
13	0	0	0	0	476	612
14	0	0	0	0	476	612
15	0	0	0	0	476	612
0	0	0	0	0	476	612
1	0	0	0	0	476	612
2	0	0	0	0	476	612
3	0	0	0	0	475	611
4	0	0	0	0	474	612
5	0	0	0	0	473	612
6	0	0	0	0	472	611
7	0	0	0	0	471	611
8	0	0	0	0	470	611
9	0	0	0	0	469	612
10	0	0	0	0	469	612
11	0	0	0	0	468	611
12	0	0	0	0	467	611
13	0	0	0	0	467	611
14	0	0	0	0	466	611
15	0	0	0	0	465	611
0	0	0	0	0	464	612
1	0	0	0	0	465	612
2	0	0	0	0	465	611
3	0	0	0	0	464	611
4	0	0	0	0	464	611
5	0	0	0	0	463	612
6	0	0	0	0	463	611
7	0	0	0	0	463	612
8	0	0	0	0	463	611
9	0	0	0	0	463	611
10	0	0	0	0	464	611
11	0	0	0	0	465	611
12	0	0	0	0	466	611
13	0	0	0	0	467	612
14	0	0	0	0	468	611
15	0	0	0	0	468	611
0	0	0	0	0	471	612
1	0	0	0	0	472	612
2	0	0	0	0	473	612
3	0	0	0	0	474	611
4	0	0	0	0	475	612
5	0	0	0	0	476	612
6	0	0	0	0	476	613
7	0	0	0	0	476	612
8	0	0	0	0	478	613
9	0	0	0	0	480	612
10	0	0	0	0	481	613
11	0	0	0	0	483	612
12	0	0	0	0	485	613
13	0	0	0	0	487	613
14	0	0	0	0	488	613
15	0	0	0	0	490	612
0	0	0	0	0	491	612
1	0	0	0	0	493	613
2	0	0	0	0	494	612
3	0	0	0	0	494	611
4	0	0	0	0	495	612
5	0	0	0	0	495	612
6	0	0	0	0	495	612
7	0	0	0	0	497	613
8	0	0	0	0	497	612
9	0	0	0	0	496	612
10	0	0	0	0	497	612
11	0	0	0	0	498	612
12	0	0	0	0	498	612
13	0	0	0	0	498	612
14	0	0	0	0	499	612
15	0	0	0	0	500	612
0	0	0	0	0	502	612
1	0	0	0	0	503	612
2	0	0	0	0	503	612
3	0	0	0	0	503	612
4	0	0	0	0	503	612
5	0	0	0	0	503	612
6	0	0	0	0	504	612
7	0	0	0	0	505	612
8	0	0	0	0	506	611
9	0	0	0	0	507	612
10	0	0	0	0	508	612
11	0	0	0	0	509	611
12	0	0	0	0	511	611
13	0	0	0	0	513	612
14	0	0	0	0	515	611
15	0	0	0	0	516	611
0	0	0	0	0	518	612
1	0	0	0	0	520	612
2	0	0	0	0	521	611
3	0	0	0	0	522	611
4	0	0	0	0	521	611
5	0	0	0	0	521	611
6	0	0	0	0	523	611
7	0	0	0	0	522	611
8	0	0	0	0	521	612
9	0	0	0	0	520	611
10	0	0	0	0	519	612
11	0	0	0	0	519	611
12	0	0	0	0	519	611
13	0	0	0	0	520	611
14	0	0	0	0	519	611
15	0	0	0	0	519	611
0	0	0	0	0	519	611
1	0	0	0	0	519	612
2	0	0	0	0	520	611
3	0	0	0	0	519	611
4	0	0	0	0	521	612
5	0	0	0	0	520	611
6	0	0	0	0	521	611
7	0	0	0	0	521	612
8	0	0	0	0	521	611
9	0	0	0	0	522	611
10	0	0	0	0	523	611
11	0	0	0	0	524	611
12	0	0	0	0	524	611
13	0	0	0	0	524	611
14	0	0	0	0	524	611
15	0	0	0	0	523	611
0	0	0	0	0	523	611
1	0	0	0	0	523	611
2	0	0	0	0	522	611
3	0	0	0	0	521	610
4	0	0	0	0	520	611
5	0	0	0	0	520	611
6	0	0	0	0	519	611
7	0	0	0	0	520	611
8	0	0	0	0	519	611
9	0	0	0	0	519	611
10	0	0	0	0	518	611
11	0	0	0	0	516	611
12	0	0	0	0	514	611
13	0	0	0	0	512	611
14	0	0	0	0	511	611
15	0	0	0	0	509	611
0	0	0	0	0	506	611
1	0	0	0	0	503	611
2	0	0	0	0	501	611
3	0	0	0	0	499	611
4	0	0	0	0	497	611
5	0	0	0	0	496	611
6	0	0	0	0	495	611
7	0	0	0	0	493	611
8	0	0	0	0	492	611
9	0	0	0	0	492	611
10	0	0	0	0	491	611
11	0	0	0	0	491	609
12	0	0	0	0	491	611
13	0	0	0	0	489	611
14	0	0	0	0	488	611
15	0	0	0	0	486	611
0	0	0	0	0	484	611
1	0	0	0	0	482	611
2	0	0	0	0	480	611
3	0	0	0	0	478	611
4	0	0	0	0	475	612
5	0	0	0	0	473	612
6	0	0	0	0	472	612
7	0	0	0	0	472	611
8	0	0	0	0	470	612
9	0	0	0	0	468	611
10	0	0	0	0	467	611
11	0	0	0	0	465	611
12	0	0	0	0	463	611
13	0	0	0	0	461	611
14	0	0	0	0	461	611
15	0	0	0	0	460	611
0	0	0	0	0	460	611
1	0	0	0	0	460	611
2	0	0	0	0	460	611
3	0	0	0	0	461	611
4	0	0	0	0	460	612
5	0	0	0	0	460	611
6	0	0	0	0	461	611
7	0	0	0	0	461	612
8	0	0	0	0	460	611
9	0	0	0	0	460	611
10	0	0	0	0	461	612
11	0	0	0	0	460	610
12	0	0	0	0	460	612
13	0	0	0	0	458	611
14	0	0	0	0	458	612
15	0	0	0	0	458	612
0	0	0	0	0	458	612
1	0	0	0	0	458	612
2	0	0	0	0	459	612
3	0	0	0	0	460	611
4	0	0	0	0	460	611
5	0	0	0	0	461	612
6	0	0	0	0	462	611
7	0	0	0	0	462	612
8	0	0	0	0	463	612
9	0	0	0	0	463	612
10	0	0	0	0	464	612
11	0	0	0	0	465	611
12	0	0	0	0	466	611
13	0	0	0	0	467	612
14	0	0	0	0	469	612
15	0	0	0	0	470	611
0	0	0	0	0	471	612
1	0	0	0	0	472	612
2	0	0	0	0	472	611
3	0	0	0	0	473	612
4	0	0	0	0	475	612
5	0	0	0	0	477	612
6	0	0	0	0	477	612
7	0	0	0	0	477	611
8	0	0	0	0	477	612
9	0	0	0	0	477	613
10	0	0	0	0	478	612
11	0	0	0	0	478	611
12	0	0	0	0	479	612
13	0	0	0	0	480	612
14	0	0	0	0	481	612
15	0	0	0	0	482	612
0	0	0	0	0	483	612
1	0	0	0	0	483	612
2	0	0	0	0	483	612
3	0	0	0	0	483	611
4	0	0	0	0	483	612
5	0	0	0	0	482	612
6	0	0	0	0	483	612
7	0	0	0	0	483	612
8	0	0	0	0	483	611
9	0	0	0	0	484	612
10	0	0	0	0	485	612
11	0	0	0	0	484	611
12	0	0	0	0	484	612
13	0	0	0	0	483	612
14	0	0	0	0	482	612
15	0	0	0	0	482	612
0	0	0	0	0	482	612
1	0	0	0	0	483	612
2	0	0	0	0	483	612
3	0	0	0	0	483	611
4	0	0	0	0	482	612
5	0	0	0	0	482	612
6	0	0	0	0	482	611
7	0	0	0	0	482	612
8	0	0	0	0	483	612
9	0	0	0	0	483	612
10	0	0	0	0	483	612
11	0	0	0	0	484	611
12	0	0	0	0	483	611
13	0	0	0	0	483	612
14	0	0	0	0	483	611
15	0	0	0	0	484	612
0	0	0	0	0	484	611
1	0	0	0	0	485	611
2	0	0	0	0	485	611
3	0	0	0	0	487	611
4	0	0	0	0	488	612
5	0	0	0	0	489	611
6	0	0	0	0	490	611
7	0	0	0	0	491	611
8	0	0	0	0	492	611
9	0	0	0	0	492	611
10	0	0	0	0	492	611
11	0	0	0	0	492	611
12	0	0	0	0	492	611
13	0	0	0	0	492	611
14	0	0	0	0	491	611
15	0	0	0	0	489	611
0	0	0	0	0	489	611
1	0	0	0	0	490	612
2	0	0	0	0	489	611
3	0	0	0	0	489	610
4	0	0	0	0	488	611
5	0	0	0	0	487	611
6	0	0	0	0	487	611
7	0	0	0	0	486	611
8	0	0	0	0	486	611
9	0	0	0	0	485	611
10	0	0	0	0	485	612
11	0	0	0	0	485	611
12	0	0	0	0	485	612
13	0	0	0	0	485	612
14	0	0	0	0	486	612
15	0	0	0	0	487	612
0	0	0	0	0	487	611
1	0	0	0	0	489	611
2	0	0	0	0	489	612
3	0	0	0	0	489	611
4	0	0	0	0	490	612
5	0	0	0	0	491	612
6	0	0	0	0	492	612
7	0	0	0	0	492	611
8	0	0	0	0	494	611
9	0	0	0	0	495	611
10	0	0	0	0	496	611
11	0	0	0	0	497	611
12	0	0	0	0	499	611
13	0	0	0	0	500	611
14	0	0	0	0	501	611
15	0	0	0	0	501	611
0	0	0	0	0	502	611
1	0	0	0	0	502	611
2	0	0	0	0	504	611
3	0	0	0	0	504	611
4	0	0	0	0	504	611
5	0	0	0	0	505	611
6	0	0	0	0	505	611
7	0	0	0	0	505	611
8	0	0	0	0	505	611
9	0	0	0	0	505	611
10	0	0	0	0	505	610
11	0	0	0	0	507	609
12	0	0	0	0	508	611
13	0	0	0	0	509	611
14	0	0	0	0	510	611
15	0	0	0	0	511	611
0	0	0	0	0	512	611
1	0	0	0	0	512	611
2	0	0	0	0	513	610
3	0	0	0	0	513	610
4	0	0	0	0	513	610
5	0	0	0	0	513	610
6	0	0	0	0	513	611
7	0	0	0	0	513	611
8	0	0	0	0	512	611
9	0	0	0	0	512	611
10	0	0	0	0	512	611
11	0	0	0	0	511	610
12	0	0	0	0	512	611
13	0	0	0	0	511	611
14	0	0	0	0	512	611
15	0	0	0	0	512	611
0	0	0	0	0	511	611
1	0	0	0	0	512	611
2	0	0	0	0	513	611
3	0	0	0	0	513	611
4	0	0	0	0	514	611
5	0	0	0	0	514	611
6	0	0	0	0	515	612
7	0	0	0	0	515	612
8	0	0	0	0	515	612
9	0	0	0	0	513	612
10	0	0	0	0	511	612
11	0	0	0	0	510	612
12	0	0	0	0	509	612
13	0	0	0	0	507	612
14	0	0	0	0	506	613
15	0	0	0	0	504	613
0	0	0	0	0	503	613
1	0	0	0	0	501	613
2	0	0	0	0	500	612
3	0	0	0	0	499	611
4	0	0	0	0	498	612
5	0	0	0	0	497	612
6	0	0	0	0	496	613
7	0	0	0	0	496	613
8	0	0	0	0	495	613
9	0	0	0	0	495	613
10	0	0	0	0	493	614
11	0	0	0	0	493	612
12	0	0	0	0	493	613
13	0	0	0	0	494	612
14	0	0	0	0	494	613
15	0	0	0	0	494	613
0	0	0	0	0	495	613
1	0	0	0	0	496	613
2	0	0	0	0	497	613
3	0	0	0	0	497	612
4	0	0	0	0	499	613
5	0	0	0	0	500	613
6	0	0	0	0	500	613
7	0	0	0	0	501	613
8	0	0	0	0	503	613
9	0	0	0	0	505	613
10	0	0	0	0	507	613
11	0	0	0	0	508	612
12	0	0	0	0	509	612
13	0	0	0	0	509	612
14	0	0	0	0	510	613
15	0	0	0	0	510	613
0	0	0	0	0	510	613
1	0	0	0	0	510	613
2	0	0	0	0	511	613
3	0	0	0	0	511	612
4	0	0	0	0	512	612
5	0	0	0	0	512	612
6	0	0	0	0	511	612
7	0	0	0	0	510	612
8	0	0	0	0	510	612
9	0	0	0	0	509	612
10	0	0	0	0	508	612
11	0	0	0	0	507	611
12	0	0	0	0	506	612
13	0	0	0	0	506	612
14	0	0	0	0	506	612
15	0	0	0	0	506	612
0	0	0	0	0	508	612
1	0	0	0	0	508	612
2	0	0	0	0	509	612
3	0	0	0	0	509	611
4	0	0	0	0	510	613
5	0	0	0	0	510	612
6	0	0	0	0	511	611
7	0	0	0	0	512	612
8	0	0	0	0	513	612
9	0	0	0	0	515	612
10	0	0	0	0	515	612
11	0	0	0	0	516	611
12	0	0	0	0	516	611
13	0	0	0	0	518	611
14	0	0	0	0	518	611
15	0	0	0	0	519	612
0	0	0	0	0	519	611
1	0	0	0	0	519	611
2	0	0	0	0	518	611
3	0	0	0	0	517	610
4	0	0	0	0	516	611
5	0	0	0	0	515	611
6	0	0	0	0	514	611
7	0	0	0	0	514	611
8	0	0	0	0	513	611
9	0	0	0	0	513	611
10	0	0	0	0	513	611
11	0	0	0	0	513	610
12	0	0	0	0	513	611
13	0	0	0	0	513	611
14	0	0	0	0	513	611
15	0	0	0	0	513	611
0	0	0	0	0	513	611
1	0	0	0	0	513	611
2	0	0	0	0	513	612
3	0	0	0	0	514	610
4	0	0	0	0	514	611
5	0	0	0	0	515	611
6	0	0	0	0	516	611
7	0	0	0	0	518	611
8	0	0	0	0	519	611
9	0	0	0	0	521	611
10	0	0	0	0	522	611
11	0	0	0	0	523	610
12	0	0	0	0	524	611
13	0	0	0	0	524	611
14	0	0	0	0	525	611
15	0	0	0	0	527	611
0	0	0	0	0	527	611
1	0	0	0	0	528	611
2	0	0	0	0	528	611
3	0	0	0	0	530	609
4	0	0	0	0	531	611
5	0	0	0	0	531	611
6	0	0	0	0	531	611
7	0	0	0	0	531	611
8	0	0	0	0	530	611
9	0	0	0	0	529	611
10	0	0	0	0	529	612
11	0	0	0	0	530	610
12	0	0	0	0	531	611
13	0	0	0	0	531	611
14	0	0	0	0	531	611
15	0	0	0	0	531	611
0	0	0	0	0	532	611
1	0	0	0	0	532	611
2	0	0	0	0	532	611
3	0	0	0	0	532	611
4	0	0	0	0	532	611
5	0	0	0	0	533	611
6	0	0	0	0	533	611
7	0	0	0	0	533	611
8	0	0	0	0	534	611
9	0	0	0	0	535	611
10	0	0	0	0	534	611
11	0	0	0	0	534	610
12	0	0	0	0	534	611
13	0	0	0	0	532	612
14	0	0	0	0	532	611
15	0	0	0	0	531	611
0	0	0	0	0	530	612
1	0	0	0	0	530	611
2	0	0	0	0	530	612
3	0	0	0	0	529	610
4	0	0	0	0	529	612
5	0	0	0	0	527	611
6	0	0	0	0	526	611
7	0	0	0	0	527	612
8	0	0	0	0	527	612
9	0	0	0	0	526	611
10	0	0	0	0	525	611
11	0	0	0	0	526	611
12	0	0	0	0	527	611
13	0	0	0	0	529	611
14	0	0	0	0	530	612
15	0	0	0	0	531	612
0	0	0	0	0	532	611
1	0	0	0	0	533	611
2	0	0	0	0	534	611
3	0	0	0	0	534	611
4	0	0	0	0	534	611
5	0	0	0	0	534	612
6	0	0	0	0	534	612
7	0	0	0	0	535	612
8	0	0	0	0	533	612
9	0	0	0	0	532	612
10	0	0	0	0	531	612
11	0	0	0	0	530	611
12	0	0	0	0	530	612
13	0	0	0	0	528	611
14	0	0	0	0	527	612
15	0	0	0	0	524	612
0	0	0	0	0	523	612
1	0	0	0	0	521	612
2	0	0	0	0	520	612
3	0	0	0	0	520	611
4	0	0	0	0	520	612
5	0	0	0	0	521	612
6	0	0	0	0	522	612
7	0	0	0	0	522	612
8	0	0	0	0	522	612
9	0	0	0	0	522	613
10	0	0	0	0	522	613
11	0	0	0	0	522	611
12	0	0	0	0	522	612
13	0	0	0	0	521	612
14	0	0	0	0	522	612
15	0	0	0	0	522	612
0	0	0	0	0	524	612
1	0	0	0	0	524	612
2	0	0	0	0	525	611
3	0	0	0	0	524	611
4	0	0	0	0	524	612
5	0	0	0	0	523	612
6	0	0	0	0	523	612
7	0	0	0	0	524	612
8	0	0	0	0	525	612
9	0	0	0	0	526	611
10	0	0	0	0	527	612
11	0	0	0	0	527	611
12	0	0	0	0	529	612
13	0	0	0	0	531	612
14	0	0	0	0	532	612
15	0	0	0	0	534	612
0	0	0	0	0	536	612
1	0	0	0	0	537	612
2	0	0	0	0	539	612
3	0	0	0	0	539	611
4	0	0	0	0	540	612
5	0	0	0	0	540	612
6	0	0	0	0	541	611
7	0	0	0	0	541	612
8	0	0	0	0	542	612
9	0	0	0	0	542	612
10	0	0	0	0	542	612
11	0	0	0	0	542	611
12	0	0	0	0	541	612
13	0	0	0	0	540	612
14	0	0	0	0	541	612
15	0	0	0	0	541	612
0	0	0	0	0	542	612
1	0	0	0	0	541	612
2	0	0	0	0	540	611
3	0	0	0	0	541	611
4	0	0	0	0	541	612
5	0	0	0	0	541	611
6	0	0	0	0	541	612
7	0	0	0	0	541	612
8	0	0	0	0	541	612
9	0	0	0	0	541	612
10	0	0	0	0	542	612
11	0	0	0	0	542	611
12	0	0	0	0	542	612
13	0	0	0	0	542	612
14	0	0	0	0	542	611
15	0	0	0	0	541	612
0	0	0	0	0	542	612
1	0	0	0	0	541	612
2	0	0	0	0	541	612
3	0	0	0	0	541	611
4	0	0	0	0	541	611
5	0	0	0	0	541	611
6	0	0	0	0	542	612
7	0	0	0	0	543	611
8	0	0	0	0	543	611
9	0	0	0	0	544	611
10	0	0	0	0	546	611
11	0	0	0	0	547	611
12	0	0	0	0	549	611
13	0	0	0	0	549	611
14	0	0	0	0	549	612
15	0	0	0	0	550	612
0	0	0	0	0	550	611
1	0	0	0	0	551	611
2	0	0	0	0	551	611
3	0	0	0	0	552	610
4	0	0	0	0	553	611
5	0	0	0	0	552	611
6	0	0	0	0	551	611
7	0	0	0	0	551	611
8	0	0	0	0	551	611
9	0	0	0	0	551	611
10	0	0	0	0	553	611
11	0	0	0	0	554	610
12	0	0	0	0	553	611
13	0	0	0	0	552	611
14	0	0	0	0	551	611
15	0	0	0	0	551	611
0	0	0	0	0	552	611
1	0	0	0	0	551	611
2	0	0	0	0	551	611
3	0	0	0	0	551	610
4	0	0	0	0	551	611
5	0	0	0	0	552	610
6	0	0	0	0	552	611
7	0	0	0	0	551	611
8	0	0	0	0	551	611
9	0	0	0	0	552	611
10	0	0	0	0	552	611
11	0	0	0	0	552	610
12	0	0	0	0	552	611
13	0	0	0	0	552	611
14	0	0	0	0	552	611
15	0	0	0	0	553	611
0	0	0	0	0	553	611
1	0	0	0	0	554	611
2	0	0	0	0	554	611
3	0	0	0	0	554	610
4	0	0	0	0	555	611
5	0	0	0	0	556	611
6	0	0	0	0	556	611
7	0	0	0	0	556	611
8	0	0	0	0	557	611
9	0	0	0	0	557	612
10	0	0	0	0	556	611
11	0	0	0	0	556	610
12	0	0	0	0	555	611
13	0	0	0	0	553	611
14	0	0	0	0	551	611
15	0	0	0	0	550	611
0	0	0	0	0	548	611
1	0	0	0	0	547	612
2	0	0	0	0	547	611
3	0	0	0	0	545	611
4	0	0	0	0	544	612
5	0	0	0	0	543	611
6	0	0	0	0	544	611
7	0	0	0	0	545	612
8	0	0	0	0	548	612
9	0	0	0	0	551	611
10	0	0	0	0	552	611
11	0	0	0	0	555	611
12	0	0	0	0	559	611
13	0	0	0	0	562	612
14	0	0	0	0	565	611
15	0	0	0	0	567	612
0	0	0	0	0	569	612
1	0	0	0	0	570	612
2	0	0	0	0	573	612
3	0	0	0	0	575	611
4	0	0	0	0	578	612
5	0	0	0	0	583	612
6	0	0	0	0	588	612
7	0	0	0	0	592	612
8	0	0	0	0	597	612
9	0	0	0	0	600	612
10	0	0	0	0	601	612
11	0	0	0	0	604	611
12	0	0	0	0	606	612
13	0	0	0	0	608	612
14	0	0	0	0	611	612
15	0	0	0	0	615	612
0	0	0	0	0	618	612
1	0	0	0	0	621	612
2	0	0	0	0	622	612
3	0	0	0	0	623	611
4	0	0	0	0	621	613
5	0	0	0	0	616	612
6	0	0	0	0	605	612
7	0	0	0	0	591	612
8	0	0	0	0	578	612
9	0	0	0	0	565	612
10	0	0	0	0	555	612
11	0	0	0	0	550	612
12	0	0	0	0	548	612
13	0	0	0	0	547	613
14	0	0	0	0	546	612
15	0	0	0	0	545	612
0	0	0	0	0	546	612
1	0	0	0	0	547	612
2	0	0	0	0	550	612
3	0	0	0	0	551	611
4	0	0	0	0	553	612
5	0	0	0	0	555	612
6	0	0	0	0	557	612
7	0	0	0	0	558	611
8	0	0	0	0	559	611
9	0	0	0	0	559	612
10	0	0	0	0	556	612
11	0	0	0	0	555	611
12	0	0	0	0	553	611
13	0	0	0	0	551	612
14	0	0	0	0	547	612
15	0	0	0	0	544	612
0	0	0	0	0	542	612
1	0	0	0	0	540	612
2	0	0	0	0	537	612
3	0	0	0	0	534	611
4	0	0	0	0	530	612
5	0	0	0	0	527	612
6	0	0	0	0	525	612
7	0	0	0	0	523	612
8	0	0	0	0	520	612
9	0	0	0	0	519	612
10	0	0	0	0	516	611
11	0	0	0	0	515	611
12	0	0	0	0	514	611
13	0	0	0	0	513	611
14	0	0	0	0	513	612
15	0	0	0	0	512	611
0	0	0	0	0	510	612
1	0	0	0	0	508	611
2	0	0	0	0	508	611
3	0	0	0	0	509	611
4	0	0	0	0	509	611
5	0	0	0	0	509	612
6	0	0	0	0	508	611
7	0	0	0	0	508	611
8	0	0	0	0	507	611
9	0	0	0	0	507	612
10	0	0	0	0	507	612
11	0	0	0	0	505	611
12	0	0	0	0	505	611
13	0	0	0	0	505	611
14	0	0	0	0	505	611
15	0	0	0	0	506	611
0	0	0	0	0	507	611
1	0	0	0	0	508	611
2	0	0	0	0	508	611
3	0	0	0	0	509	611
4	0	0	0	0	510	611
5	0	0	0	0	510	611
6	0	0	0	0	510	612
7	0	0	0	0	509	611
8	0	0	0	0	509	612
9	0	0	0	0	509	612
10	0	0	0	0	509	612
11	0	0	0	0	508	611
12	0	0	0	0	508	612
13	0	0	0	0	507	611
14	0	0	0	0	508	611
15	0	0	0	0	508	611
0	0	0	0	0	507	612
1	0	0	0	0	506	612
2	0	0	0	0	506	612
3	0	0	0	0	507	611
4	0	0	0	0	506	611
5	0	0	0	0	507	611
6	0	0	0	0	508	612
7	0	0	0	0	509	611
8	0	0	0	0	510	612
9	0	0	0	0	511	612
10	0	0	0	0	512	612
11	0	0	0	0	513	611
12	0	0	0	0	514	612
13	0	0	0	0	515	612
14	0	0	0	0	514	612
15	0	0	0	0	514	612
0	0	0	0	0	514	612
1	0	0	0	0	514	612
2	0	0	0	0	514	612
3	0	0	0	0	514	611
4	0	0	0	0	514	612
5	0	0	0	0	514	612
6	0	0	0	0	515	612
7	0	0	0	0	514	612
8	0	0	0	0	513	612
9	0	0	0	0	513	612
10	0	0	0	0	513	612
11	0	0	0	0	512	611
12	0	0	0	0	513	611
13	0	0	0	0	512	612
14	0	0	0	0	512	611
15	0	0	0	0	513	612
0	0	0	0	0	514	612
1	0	0	0	0	514	611
2	0	0	0	0	515	611
3	0	0	0	0	515	611
4	0	0	0	0	516	611
5	0	0	0	0	516	611
6	0	0	0	0	517	611
7	0	0	0	0	518	611
8	0	0	0	0	519	612
9	0	0	0	0	520	611
10	0	0	0	0	521	612
11	0	0	0	0	523	610
12	0	0	0	0	524	611
13	0	0	0	0	524	611
14	0	0	0	0	525	611
15	0	0	0	0	526	611
0	0	0	0	0	527	611
1	0	0	0	0	527	612
2	0	0	0	0	527	612
3	0	0	0	0	527	611
4	0	0	0	0	527	612
5	0	0	0	0	527	611
6	0	0	0	0	527	612
7	0	0	0	0	528	612
8	0	0	0	0	527	612
9	0	0	0	0	527	612
10	0	0	0	0	528	612
11	0	0	0	0	528	611
12	0	0	0	0	527	611
13	0	0	0	0	527	612
14	0	0	0	0	527	611
15	0	0	0	0	527	612
0	0	0	0	0	526	611
1	0	0	0	0	526	611
2	0	0	0	0	526	611
3	0	0	0	0	526	611
4	0	0	0	0	526	611
5	0	0	0	0	525	611
6	0	0	0	0	525	612
7	0	0	0	0	525	611
8	0	0	0	0	524	611
9	0	0	0	0	523	611
10	0	0	0	0	521	611
11	0	0	0	0	521	610
12	0	0	0	0	521	611
13	0	0	0	0	520	611
14	0	0	0	0	521	611
15	0	0	0	0	521	611
0	0	0	0	0	520	611
1	0	0	0	0	520	611
2	0	0	0	0	519	611
3	0	0	0	0	519	609
4	0	0	0	0	519	611
5	0	0	0	0	518	611
6	0	0	0	0	518	610
7	0	0	0	0	518	610
8	0	0	0	0	520	611
9	0	0	0	0	521	611
10	0	0	0	0	521	611
11	0	0	0	0	523	610
12	0	0	0	0	524	611
13	0	0	0	0	524	611
14	0	0	0	0	524	611
15	0	0	0	0	524	610
0	0	0	0	0	525	611
1	0	0	0	0	525	611
2	0	0	0	0	525	611
3	0	0	0	0	526	610
4	0	0	0	0	526	611
5	0	0	0	0	527	611
6	0	0	0	0	527	611
7	0	0	0	0	527	611
8	0	0	0	0	527	611
9	0	0	0	0	528	611
10	0	0	0	0	530	611
11	0	0	0	0	531	610
12	0	0	0	0	532	611
13	0	0	0	0	535	611
14	0	0	0	0	536	611
15	0	0	0	0	537	611
0	0	0	0	0	537	612
1	0	0	0	0	539	612
2	0	0	0	0	540	612
3	0	0	0	0	541	611
4	0	0	0	0	542	612
5	0	0	0	0	541	612
6	0	0	0	0	540	612
7	0	0	0	0	540	612
8	0	0	0	0	539	612
9	0	0	0	0	539	613
10	0	0	0	0	540	613
11	0	0	0	0	539	611
12	0	0	0	0	538	613
13	0	0	0	0	537	612
14	0	0	0	0	538	612
15	0	0	0	0	536	612
0	0	0	0	0	535	612
1	0	0	0	0	533	612
2	0	0	0	0	532	613
3	0	0	0	0	531	612
4	0	0	0	0	531	613
5	0	0	0	0	531	613
6	0	0	0	0	531	613
7	0	0	0	0	530	613
8	0	0	0	0	530	613
9	0	0	0	0	530	613
10	0	0	0	0	530	612
11	0	0	0	0	531	611
12	0	0	0	0	532	612
13	0	0	0	0	534	613
14	0	0	0	0	534	612
15	0	0	0	0	535	613
0	0	0	0	0	535	612
1	0	0	0	0	536	612
2	0	0	0	0	537	612
3	0	0	0	0	537	611
4	0	0	0	0	537	613
5	0	0	0	0	536	612
6	0	0	0	0	536	612
7	0	0	0	0	536	612
8	0	0	0	0	536	612
9	0	0	0	0	536	611
10	0	0	0	0	537	612
11	0	0	0	0	538	611
12	0	0	0	0	538	612
13	0	0	0	0	538	612
14	0	0	0	0	540	612
15	0	0	0	0	540	612
0	0	0	0	0	541	613
1	0	0	0	0	541	612
2	0	0	0	0	540	613
3	0	0	0	0	540	611
4	0	0	0	0	540	612
5	0	0	0	0	540	612
6	0	0	0	0	539	613
7	0	0	0	0	539	613
8	0	0	0	0	538	612
9	0	0	0	0	536	612
10	0	0	0	0	536	612
11	0	0	0	0	536	611
12	0	0	0	0	537	612
13	0	0	0	0	537	612
14	0	0	0	0	538	612
15	0	0	0	0	539	612
0	0	0	0	0	540	612
1	0	0	0	0	540	612
2	0	0	0	0	541	612
3	0	0	0	0	542	611
4	0	0	0	0	542	611
5	0	0	0	0	542	611
6	0	0	0	0	542	611
7	0	0	0	0	542	612
8	0	0	0	0	541	611
9	0	0	0	0	539	611
10	0	0	0	0	537	611
11	0	0	0	0	536	610
12	0	0	0	0	536	612
13	0	0	0	0	536	611
14	0	0	0	0	535	611
15	0	0	0	0	535	611
0	0	0	0	0	535	611
1	0	0	0	0	535	611
2	0	0	0	0	535	611
3	0	0	0	0	534	610
4	0	0	0	0	535	611
5	0	0	0	0	533	611
6	0	0	0	0	532	611
7	0	0	0	0	532	611
8	0	0	0	0	532	611
9	0	0	0	0	531	612
10	0	0	0	0	531	611
11	0	0	0	0	530	610
12	0	0	0	0	529	611
13	0	0	0	0	529	611
14	0	0	0	0	527	611
15	0	0	0	0	527	612
0	0	0	0	0	526	611
1	0	0	0	0	526	611
2	0	0	0	0	525	611
3	0	0	0	0	526	610
4	0	0	0	0	526	611
5	0	0	0	0	524	611
6	0	0	0	0	523	611
7	0	0	0	0	520	611
8	0	0	0	0	519	611
9	0	0	0	0	516	611
10	0	0	0	0	515	611
11	0	0	0	0	513	611
12	0	0	0	0	512	612
13	0	0	0	0	511	611
14	0	0	0	0	510	611
15	0	0	0	0	511	611
0	0	0	0	0	510	611
1	0	0	0	0	511	611
2	0	0	0	0	511	612
3	0	0	0	0	511	611
4	0	0	0	0	511	611
5	0	0	0	0	510	611
6	0	0	0	0	510	611
7	0	0	0	0	510	611
8	0	0	0	0	511	611
9	0	0	0	0	512	611
10	0	0	0	0	511	611
11	0	0	0	0	511	611
12	0	0	0	0	511	611
13	0	0	0	0	512	611
14	0	0	0	0	511	611
15	0	0	0	0	511	611
0	0	0	0	0	511	612
1	0	0	0	0	512	611
2	0	0	0	0	512	611
3	0	0	0	0	512	610
4	0	0	0	0	512	611
5	0	0	0	0	511	611
6	0	0	0	0	511	611
7	0	0	0	0	511	611
8	0	0	0	0	511	611
9	0	0	0	0	510	611
10	0	0	0	0	510	611
11	0	0	0	0	510	609
12	0	0	0	0	510	611
13	0	0	0	0	509	611
14	0	0	0	0	508	611
15	0	0	0	0	507	611
0	0	0	0	0	507	611
1	0	0	0	0	507	611
2	0	0	0	0	508	611
3	0	0	0	0	508	611
4	0	0	0	0	509	611
5	0	0	0	0	509	611
6	0	0	0	0	509	611
7	0	0	0	0	508	611
8	0	0	0	0	507	611
9	0	0	0	0	507	611
10	0	0	0	0	505	611
11	0	0	0	0	503	609
12	0	0	0	0	503	611
13	0	0	0	0	502	611
14	0	0	0	0	502	611
15	0	0	0	0	502	611
0	0	0	0	0	501	611
1	0	0	0	0	501	611
2	0	0	0	0	501	611
3	0	0	0	0	501	610
4	0	0	0	0	502	611
5	0	0	0	0	501	611
6	0	0	0	0	502	611
7	0	0	0	0	503	611
8	0	0	0	0	502	611
9	0	0	0	0	502	611
10	0	0	0	0	501	611
11	0	0	0	0	499	610
12	0	0	0	0	499	611
13	0	0	0	0	497	611
14	0	0	0	0	496	610
15	0	0	0	0	495	611
0	0	0	0	0	494	611
1	0	0	0	0	492	611
2	0	0	0	0	491	612
3	0	0	0	0	490	610
4	0	0	0	0	490	611
5	0	0	0	0	490	611
6	0	0	0	0	489	612
7	0	0	0	0	489	611
8	0	0	0	0	490	611
9	0	0	0	0	491	612
10	0	0	0	0	491	611
11	0	0	0	0	491	611
12	0	0	0	0	491	612
13	0	0	0	0	491	612
14	0	0	0	0	492	612
15	0	0	0	0	491	612
0	0	0	0	0	490	612
1	0	0	0	0	489	612
2	0	0	0	0	489	612
3	0	0	0	0	488	611
4	0	0	0	0	489	612
5	0	0	0	0	489	613
6	0	0	0	0	489	612
7	0	0	0	0	489	612
8	0	0	0	0	489	612
9	0	0	0	0	489	612
10	0	0	0	0	489	612
11	0	0	0	0	489	611
12	0	0	0	0	489	612
13	0	0	0	0	488	612
14	0	0	0	0	489	612
15	0	0	0	0	489	612
0	0	0	0	0	489	612
1	0	0	0	0	489	612
2	0	0	0	0	487	612
3	0	0	0	0	487	611
4	0	0	0	0	488	612
5	0	0	0	0	488	612
6	0	0	0	0	488	612
7	0	0	0	0	488	613
8	0	0	0	0	488	612
9	0	0	0	0	490	612
10	0	0	0	0	491	611
11	0	0	0	0	491	611
12	0	0	0	0	489	612
13	0	0	0	0	488	612
14	0	0	0	0	488	613
15	0	0	0	0	488	612
0	0	0	0	0	488	613
1	0	0	0	0	489	612
2	0	0	0	0	489	613
3	0	0	0	0	489	612
4	0	0	0	0	489	612
5	0	0	0	0	489	613
6	0	0	0	0	489	613
7	0	0	0	0	490	613
8	0	0	0	0	491	613
9	0	0	0	0	491	613
10	0	0	0	0	492	613
11	0	0	0	0	492	611
12	0	0	0	0	492	612
13	0	0	0	0	493	613
14	0	0	0	0	492	612
15	0	0	0	0	491	613
0	0	0	0	0	491	612
1	0	0	0	0	492	613
2	0	0	0	0	491	612
3	0	0	0	0	491	612
4	0	0	0	0	491	613
5	0	0	0	0	492	612
6	0	0	0	0	492	612
7	0	0	0	0	493	612
8	0	0	0	0	495	612
9	0	0	0	0	496	612
10	0	0	0	0	497	612
11	0	0	0	0	499	611
12	0	0	0	0	502	611
13	0	0	0	0	502	612
14	0	0	0	0	504	612
15	0	0	0	0	504	612
0	0	0	0	0	505	612
1	0	0	0	0	506	611
2	0	0	0	0	507	612
3	0	0	0	0	507	611
4	0	0	0	0	508	611
5	0	0	0	0	508	611
6	0	0	0	0	509	611
7	0	0	0	0	508	611
8	0	0	0	0	508	611
9	0	0	0	0	508	611
10	0	0	0	0	507	611
11	0	0	0	0	505	610
12	0	0	0	0	503	611
13	0	0	0	0	501	611
14	0	0	0	0	499	611
15	0	0	0	0	498	610
0	0	0	0	0	497	611
1	0	0	0	0	496	611
2	0	0	0	0	496	610
3	0	0	0	0	495	609
4	0	0	0	0	494	610
5	0	0	0	0	494	611
6	0	0	0	0	493	611
7	0	0	0	0	492	610
8	0	0	0	0	492	610
9	0	0	0	0	492	610
10	0	0	0	0	492	611
11	0	0	0	0	492	609
12	0	0	0	0	492	611
13	0	0	0	0	491	611
14	0	0	0	0	490	611
15	0	0	0	0	490	611
0	0	0	0	0	488	611
1	0	0	0	0	487	611
2	0	0	0	0	486	611
3	0	0	0	0	486	611
4	0	0	0	0	485	611
5	0	0	0	0	484	611
6	0	0	0	0	484	611
7	0	0	0	0	484	611
8	0	0	0	0	484	611
9	0	0	0	0	483	611
10	0	0	0	0	482	611
11	0	0	0	0	481	610
12	0	0	0	0	480	611
13	0	0	0	0	478	611
14	0	0	0	0	477	611
15	0	0	0	0	477	611
0	0	0	0	0	476	611
1	0	0	0	0	476	611
2	0	0	0	0	476	612
3	0	0	0	0	476	611
4	0	0	0	0	474	612
5	0	0	0	0	474	612
6	0	0	0	0	473	611
7	0	0	0	0	473	611
8	0	0	0	0	472	611
9	0	0	0	0	472	611
10	0	0	0	0	471	611
11	0	0	0	0	470	611
12	0	0	0	0	468	612
13	0	0	0	0	467	612
14	0	0	0	0	465	612
15	0	0	0	0	464	612
0	0	0	0	0	463	612
1	0	0	0	0	463	612
2	0	0	0	0	463	612
3	0	0	0	0	462	611
4	0	0	0	0	462	612
5	0	0	0	0	462	612
6	0	0	0	0	462	611
7	0	0	0	0	462	612
8	0	0	0	0	463	612
9	0	0	0	0	463	611
10	0	0	0	0	463	612
11	0	0	0	0	464	611
12	0	0	0	0	463	612
13	0	0	0	0	463	612
14	0	0	0	0	463	613
15	0	0	0	0	463	613
0	0	0	0	0	463	612
1	0	0	0	0	463	611
2	0	0	0	0	462	611
3	0	0	0	0	462	611
4	0	0	0	0	462	612
5	0	0	0	0	462	613
6	0	0	0	0	462	612
7	0	0	0	0	461	612
8	0	0	0	0	461	612
9	0	0	0	0	460	612
10	0	0	0	0	459	612
11	0	0	0	0	459	611
12	0	0	0	0	459	613
13	0	0	0	0	459	612
14	0	0	0	0	459	612
15	0	0	0	0	458	612
0	0	0	0	0	457	612
1	0	0	0	0	457	612
2	0	0	0	0	457	612
3	0	0	0	0	457	611
4	0	0	0	0	458	612
5	0	0	0	0	459	612
6	0	0	0	0	459	612
7	0	0	0	0	459	612
8	0	0	0	0	460	612
9	0	0	0	0	460	612
10	0	0	0	0	460	612
11	0	0	0	0	461	611
12	0	0	0	0	462	612
13	0	0	0	0	461	612
14	0	0	0	0	461	612
15	0	0	0	0	460	612
0	0	0	0	0	459	612
1	0	0	0	0	459	613
2	0	0	0	0	458	612
3	0	0	0	0	458	611
4	0	0	0	0	459	612
5	0	0	0	0	459	612
6	0	0	0	0	460	612
7	0	0	0	0	460	612
8	0	0	0	0	460	612
9	0	0	0	0	460	611
10	0	0	0	0	460	612
11	0	0	0	0	460	611
12	0	0	0	0	460	612
13	0	0	0	0	460	613
14	0	0	0	0	460	612
15	0	0	0	0	461	613
0	0	0	0	0	462	612
1	0	0	0	0	462	612
2	0	0	0	0	463	612
3	0	0	0	0	464	611
4	0	0	0	0	465	612
5	0	0	0	0	464	612
6	0	0	0	0	464	612
7	0	0	0	0	464	612
8	0	0	0	0	464	612
9	0	0	0	0	464	612
10	0	0	0	0	465	612
11	0	0	0	0	464	611
12	0	0	0	0	465	612
13	0	0	0	0	465	612
14	0	0	0	0	465	612
15	0	0	0	0	465	612
0	0	0	0	0	465	611
1	0	0	0	0	464	612
2	0	0	0	0	464	611
3	0	0	0	0	464	611
4	0	0	0	0	465	611
5	0	0	0	0	465	611
6	0	0	0	0	465	612
7	0	0	0	0	466	611
8	0	0	0	0	466	611
9	0	0	0	0	466	611
10	0	0	0	0	466	611
11	0	0	0	0	466	611
12	0	0	0	0	467	611
13	0	0	0	0	468	611
14	0	0	0	0	470	612
15	0	0	0	0	472	611
0	0	0	0	0	473	612
1	0	0	0	0	473	612
2	0	0	0	0	475	612
3	0	0	0	0	477	611
4	0	0	0	0	479	612
5	0	0	0	0	480	612
6	0	0	0	0	482	612
7	0	0	0	0	484	612
8	0	0	0	0	486	612
9	0	0	0	0	487	612
10	0	0	0	0	489	612
11	0	0	0	0	489	611
12	0	0	0	0	490	612
13	0	0	0	0	491	611
14	0	0	0	0	492	611
15	0	0	0	0	494	611
0	0	0	0	0	497	612
1	0	0	0	0	500	611
2	0	0	0	0	504	611
3	0	0	0	0	505	611
4	0	0	0	0	505	611
5	0	0	0	0	506	611
6	0	0	0	0	507	611
7	0	0	0	0	508	611
8	0	0	0	0	508	611
9	0	0	0	0	507	611
10	0	0	0	0	507	611
11	0	0	0	0	507	610
12	0	0	0	0	509	611
13	0	0	0	0	509	611
14	0	0	0	0	510	611
15	0	0	0	0	511	611
0	0	0	0	0	511	611
1	0	0	0	0	511	611
2	0	0	0	0	512	611
3	0	0	0	0	512	610
4	0	0	0	0	512	612
5	0	0	0	0	513	611
6	0	0	0	0	515	611
7	0	0	0	0	516	611
8	0	0	0	0	519	611
9	0	0	0	0	519	611
10	0	0	0	0	520	611
11	0	0	0	0	522	611
12	0	0	0	0	523	611
13	0	0	0	0	523	611
14	0	0	0	0	523	611
15	0	0	0	0	522	611
0	0	0	0	0	521	611
1	0	0	0	0	521	611
2	0	0	0	0	520	611
3	0	0	0	0	519	610
4	0	0	0	0	518	611
5	0	0	0	0	517	611
6	0	0	0	0	515	611
7	0	0	0	0	514	611
8	0	0	0	0	513	611
9	0	0	0	0	512	611
10	0	0	0	0	511	611
11	0	0	0	0	511	611
12	0	0	0	0	510	611
13	0	0	0	0	510	611
14	0	0	0	0	512	611
15	0	0	0	0	512	611
0	0	0	0	0	513	611
1	0	0	0	0	513	611
2	0	0	0	0	512	611
3	0	0	0	0	512	610
4	0	0	0	0	512	611
5	0	0	0	0	511	611
6	0	0	0	0	511	611
7	0	0	0	0	511	611
8	0	0	0	0	511	611
9	0	0	0	0	512	611
10	0	0	0	0	512	612
11	0	0	0	0	515	610
12	0	0	0	0	516	611
13	0	0	0	0	517	611
14	0	0	0	0	517	611
15	0	0	0	0	516	611
0	0	0	0	0	516	612
1	0	0	0	0	516	612
2	0	0	0	0	516	612
3	0	0	0	0	516	611
4	0	0	0	0	517	612
5	0	0	0	0	517	611
6	0	0	0	0	517	611
7	0	0	0	0	518	611
8	0	0	0	0	518	612
9	0	0	0	0	517	612
10	0	0	0	0	517	612
11	0	0	0	0	518	611
12	0	0	0	0	516	612
13	0	0	0	0	515	612
14	0	0	0	0	515	612
15	0	0	0	0	514	612
0	0	0	0	0	513	613
1	0	0	0	0	512	613
2	0	0	0	0	511	613
3	0	0	0	0	510	611
4	0	0	0	0	510	613
5	0	0	0	0	508	612
6	0	0	0	0	508	613
7	0	0	0	0	508	613
8	0	0	0	0	508	612
9	0	0	0	0	508	612
10	0	0	0	0	508	612
11	0	0	0	0	507	612
12	0	0	0	0	507	612
13	0	0	0	0	505	612
14	0	0	0	0	505	612
15	0	0	0	0	504	612
0	0	0	0	0	504	612
1	0	0	0	0	502	614
2	0	0	0	0	501	613
3	0	0	0	0	500	612
4	0	0	0	0	499	613
5	0	0	0	0	499	612
6	0	0	0	0	498	612
7	0	0	0	0	499	612
8	0	0	0	0	498	612
9	0	0	0	0	497	612
10	0	0	0	0	498	613
11	0	0	0	0	497	612
12	0	0	0	0	497	613
13	0	0	0	0	495	613
14	0	0	0	0	493	614
15	0	0	0	0	492	613
0	0	0	0	0	490	613
1	0	0	0	0	488	613
2	0	0	0	0	487	613
3	0	0	0	0	487	612
4	0	0	0	0	485	612
5	0	0	0	0	483	612
6	0	0	0	0	482	612
7	0	0	0	0	481	612
8	0	0	0	0	480	612
9	0	0	0	0	480	613
10	0	0	0	0	480	612
11	0	0	0	0	481	611
12	0	0	0	0	482	612
13	0	0	0	0	482	612
14	0	0	0	0	481	612
15	0	0	0	0	482	612
0	0	0	0	0	481	611
1	0	0	0	0	482	611
2	0	0	0	0	480	612
3	0	0	0	0	480	611
4	0	0	0	0	479	611
5	0	0	0	0	477	611
6	0	0	0	0	475	611
7	0	0	0	0	473	611
8	0	0	0	0	471	611
9	0	0	0	0	471	611
10	0	0	0	0	470	611
11	0	0	0	0	468	611
12	0	0	0	0	467	611
13	0	0	0	0	465	611
14	0	0	0	0	464	611
15	0	0	0	0	462	611
0	0	0	0	0	460	611
1	0	0	0	0	457	611
2	0	0	0	0	455	611
3	0	0	0	0	454	610
4	0	0	0	0	452	611
5	0	0	0	0	451	610
6	0	0	0	0	452	611
7	0	0	0	0	454	611
8	0	0	0	0	455	611
9	0	0	0	0	457	611
10	0	0	0	0	459	611
11	0	0	0	0	462	609
12	0	0	0	0	464	611
13	0	0	0	0	468	611
14	0	0	0	0	470	611
15	0	0	0	0	472	611
0	0	0	0	0	473	611
1	0	0	0	0	475	610
2	0	0	0	0	476	611
3	0	0	0	0	478	610
4	0	0	0	0	481	611
5	0	0	0	0	486	611
6	0	0	0	0	489	611
7	0	0	0	0	492	610
8	0	0	0	0	496	610
9	0	0	0	0	499	610
10	0	0	0	0	502	610
11	0	0	0	0	504	609
12	0	0	0	0	508	610
13	0	0	0	0	511	610
14	0	0	0	0	514	610
15	0	0	0	0	518	610
0	0	0	0	0	520	610
1	0	0	0	0	523	611
2	0	0	0	0	523	610
3	0	0	0	0	522	609
4	0	0	0	0	519	610
5	0	0	0	0	511	611
6	0	0	0	0	500	611
7	0	0	0	0	487	611
8	0	0	0	0	473	611
9	0	0	0	0	462	610
10	0	0	0	0	453	610
11	0	0	0	0	449	609
12	0	0	0	0	447	611
13	0	0	0	0	444	611
14	0	0	0	0	443	611
15	0	0	0	0	441	610
0	0	0	0	0	441	610
1	0	0	0	0	443	610
2	0	0	0	0	443	611
3	0	0	0	0	444	610
4	0	0	0	0	445	610
5	0	0	0	0	448	611
6	0	0	0	0	450	611
7	0	0	0	0	450	611
8	0	0	0	0	450	611
9	0	0	0	0	449	611
10	0	0	0	0	448	611
11	0	0	0	0	445	610
12	0	0	0	0	443	611
13	0	0	0	0	440	611
14	0	0	0	0	436	610
15	0	0	0	0	433	610
0	0	0	0	0	431	610
1	0	0	0	0	429	611
2	0	0	0	0	428	611
3	0	0	0	0	425	610
4	0	0	0	0	424	611
5	0	0	0	0	423	611
6	0	0	0	0	423	612
7	0	0	0	0	423	611
8	0	0	0	0	422	611
9	0	0	0	0	422	612
10	0	0	0	0	421	612
11	0	0	0	0	421	611
12	0	0	0	0	420	612
13	0	0	0	0	419	612
14	0	0	0	0	419	613
15	0	0	0	0	419	613
0	0	0	0	0	419	613
1	0	0	0	0	419	613
2	0	0	0	0	419	612
3	0	0	0	0	419	612
4	0	0	0	0	418	613
5	0	0	0	0	417	613
6	0	0	0	0	417	613
7	0	0	0	0	417	613
8	0	0	0	0	417	613
9	0	0	0	0	417	613
10	0	0	0	0	417	612
11	0	0	0	0	417	612
12	0	0	0	0	416	613
13	0	0	0	0	416	612
14	0	0	0	0	416	613
15	0	0	0	0	417	613
0	0	0	0	0	417	613
1	0	0	0	0	417	614
2	0	0	0	0	418	613
3	0	0	0	0	419	612
4	0	0	0	0	419	613
5	0	0	0	0	420	613
6	0	0	0	0	420	613
7	0	0	0	0	421	613
8	0	0	0	0	422	612
9	0	0	0	0	421	613
10	0	0	0	0	422	613
11	0	0	0	0	421	612
12	0	0	0	0	421	612
13	0	0	0	0	419	612
14	0	0	0	0	420	613
15	0	0	0	0	419	612
0	0	0	0	0	419	613
1	0	0	0	0	420	614
2	0	0	0	0	421	613
3	0	0	0	0	422	612
4	0	0	0	0	423	613
5	0	0	0	0	423	614
6	0	0	0	0	424	614
7	0	0	0	0	425	612
8	0	0	0	0	426	613
9	0	0	0	0	427	613
10	0	0	0	0	427	613
11	0	0	0	0	428	613
12	0	0	0	0	428	614
13	0	0	0	0	428	614
14	0	0	0	0	429	614
15	0	0	0	0	429	613
0	0	0	0	0	429	613
1	0	0	0	0	429	614
2	0	0	0	0	430	613
3	0	0	0	0	431	613
4	0	0	0	0	432	613
5	0	0	0	0	432	614
6	0	0	0	0	432	613
7	0	0	0	0	432	612
8	0	0	0	0	433	612
9	0	0	0	0	433	612
10	0	0	0	0	433	612
11	0	0	0	0	434	611
12	0	0	0	0	433	612
13	0	0	0	0	433	612
14	0	0	0	0	433	612
15	0	0	0	0	432	612
0	0	0	0	0	432	611
1	0	0	0	0	432	611
2	0	0	0	0	434	612
3	0	0	0	0	436	611
4	0	0	0	0	437	612
5	0	0	0	0	438	612
6	0	0	0	0	438	611
7	0	0	0	0	437	612
8	0	0	0	0	436	611
9	0	0	0	0	436	611
10	0	0	0	0	438	611
11	0	0	0	0	440	611
12	0	0	0	0	442	611
13	0	0	0	0	443	612
14	0	0	0	0	444	611
15	0	0	0	0	445	612
0	0	0	0	0	446	611
1	0	0	0	0	446	612
2	0	0	0	0	447	611
3	0	0	0	0	447	611
4	0	0	0	0	447	611
5	0	0	0	0	447	611
6	0	0	0	0	446	611
7	0	0	0	0	447	611
8	0	0	0	0	447	611
9	0	0	0	0	446	611
10	0	0	0	0	445	611
11	0	0	0	0	444	611
12	0	0	0	0	445	611
13	0	0	0	0	445	611
14	0	0	0	0	446	610
15	0	0	0	0	447	611
0	0	0	0	0	447	610
1	0	0	0	0	446	611
2	0	0	0	0	446	610
3	0	0	0	0	446	610
4	0	0	0	0	446	611
5	0	0	0	0	445	611
6	0	0	0	0	444	611
7	0	0	0	0	444	610
8	0	0	0	0	443	611
9	0	0	0	0	442	610
10	0	0	0	0	441	610
11	0	0	0	0	441	610
12	0	0	0	0	441	610
13	0	0	0	0	441	610
14	0	0	0	0	441	611
15	0	0	0	0	441	611
0	0	0	0	0	442	610
1	0	0	0	0	442	610
2	0	0	0	0	441	610
3	0	0	0	0	441	610
4	0	0	0	0	441	610
5	0	0	0	0	440	610
6	0	0	0	0	439	610
7	0	0	0	0	438	610
8	0	0	0	0	437	609
9	0	0	0	0	436	609
10	0	0	0	0	437	609
11	0	0	0	0	437	609
12	0	0	0	0	437	610
13	0	0	0	0	436	610
14	0	0	0	0	436	609
15	0	0	0	0	436	610
0	0	0	0	0	435	610
1	0	0	0	0	437	610
2	0	0	0	0	439	610
3	0	0	0	0	440	609
4	0	0	0	0	440	609
5	0	0	0	0	440	610
6	0	0	0	0	440	610
7	0	0	0	0	440	610
8	0	0	0	0	440	611
9	0	0	0	0	440	611
10	0	0	0	0	441	611
11	0	0	0	0	442	610
12	0	0	0	0	442	611
13	0	0	0	0	441	611
14	0	0	0	0	442	611
15	0	0	0	0	442	611
0	0	0	0	0	442	611
1	0	0	0	0	440	611
2	0	0	0	0	440	611
3	0	0	0	0	439	611
4	0	0	0	0	438	612
5	0	0	0	0	436	612
6	0	0	0	0	435	612
7	0	0	0	0	434	612
8	0	0	0	0	432	612
9	0	0	0	0	432	612
10	0	0	0	0	431	612
11	0	0	0	0	430	612
12	0	0	0	0	429	612
13	0	0	0	0	428	612
14	0	0	0	0	427	613
15	0	0	0	0	425	613
0	0	0	0	0	424	613
1	0	0	0	0	422	613
2	0	0	0	0	421	614
3	0	0	0	0	422	612
4	0	0	0	0	422	613
5	0	0	0	0	423	613
6	0	0	0	0	423	613
7	0	0	0	0	424	613
8	0	0	0	0	426	613
9	0	0	0	0	426	613
10	0	0	0	0	425	613
11	0	0	0	0	425	612
12	0	0	0	0	424	613
13	0	0	0	0	424	613
14	0	0	0	0	423	613
15	0	0	0	0	422	612
0	0	0	0	0	423	613
1	0	0	0	0	424	613
2	0	0	0	0	425	614
3	0	0	0	0	428	612
4	0	0	0	0	429	612
5	0	0	0	0	431	613
6	0	0	0	0	433	613
7	0	0	0	0	435	613
8	0	0	0	0	435	612
9	0	0	0	0	436	613
10	0	0	0	0	437	613
11	0	0	0	0	439	612
12	0	0	0	0	440	613
13	0	0	0	0	441	613
14	0	0	0	0	443	612
15	0	0	0	0	445	613
0	0	0	0	0	447	613
1	0	0	0	0	449	612
2	0	0	0	0	450	612
3	0	0	0	0	451	612
4	0	0	0	0	452	612
5	0	0	0	0	454	612
6	0	0	0	0	454	612
7	0	0	0	0	456	612
8	0	0	0	0	456	612
9	0	0	0	0	456	612
10	0	0	0	0	456	613
11	0	0	0	0	456	611
12	0	0	0	0	456	613
13	0	0	0	0	457	612
14	0	0	0	0	458	612
15	0	0	0	0	458	612
0	0	0	0	0	459	612
1	0	0	0	0	459	612
2	0	0	0	0	460	612
3	0	0	0	0	461	611
4	0	0	0	0	462	611
5	0	0	0	0	463	612
6	0	0	0	0	464	613
7	0	0	0	0	465	612
8	0	0	0	0	465	612
9	0	0	0	0	465	612
10	0	0	0	0	467	612
11	0	0	0	0	467	611
12	0	0	0	0	468	612
13	0	0	0	0	468	612
14	0	0	0	0	469	612
15	0	0	0	0	469	612
0	0	0	0	0	469	612
1	0	0	0	0	469	612
2	0	0	0	0	470	612
3	0	0	0	0	471	611
4	0	0	0	0	472	612
5	0	0	0	0	472	611
6	0	0	0	0	472	611
7	0	0	0	0	473	611
8	0	0	0	0	474	612
9	0	0	0	0	475	611
10	0	0	0	0	475	612
11	0	0	0	0	476	610
12	0	0	0	0	476	611
13	0	0	0	0	476	611
14	0	0	0	0	475	611
15	0	0	0	0	474	611
0	0	0	0	0	473	611
1	0	0	0	0	474	611
2	0	0	0	0	473	611
3	0	0	0	0	474	609
4	0	0	0	0	475	611
5	0	0	0	0	475	611
6	0	0	0	0	475	611
7	0	0	0	0	475	611
8	0	0	0	0	475	611
9	0	0	0	0	476	611
10	0	0	0	0	477	611
11	0	0	0	0	478	609
12	0	0	0	0	479	610
13	0	0	0	0	480	610
14	0	0	0	0	480	610
15	0	0	0	0	481	611
0	0	0	0	0	482	611
1	0	0	0	0	484	611
2	0	0	0	0	486	611
3	0	0	0	0	487	609
4	0	0	0	0	490	610
5	0	0	0	0	491	610
6	0	0	0	0	493	611
7	0	0	0	0	495	611
8	0	0	0	0	495	611
9	0	0	0	0	496	610
10	0	0	0	0	496	610
11	0	0	0	0	498	609
12	0	0	0	0	500	610
13	0	0	0	0	502	610
14	0	0	0	0	504	611
15	0	0	0	0	507	611
0	0	0	0	0	508	611
1	0	0	0	0	509	610
2	0	0	0	0	510	611
3	0	0	0	0	511	609
4	0	0	0	0	512	611
5	0	0	0	0	513	611
6	0	0	0	0	515	611
7	0	0	0	0	516	611
8	0	0	0	0	518	610
9	0	0	0	0	519	611
10	0	0	0	0	521	610
11	0	0	0	0	523	610
12	0	0	0	0	522	610
13	0	0	0	0	522	610
14	0	0	0	0	523	610
15	0	0	0	0	524	610
0	0	0	0	0	524	611
1	0	0	0	0	523	610
2	0	0	0	0	524	610
3	0	0	0	0	524	610
4	0	0	0	0	525	611
5	0	0	0	0	526	611
6	0	0	0	0	526	611
7	0	0	0	0	526	611
8	0	0	0	0	527	610
9	0	0	0	0	526	610
10	0	0	0	0	523	611
11	0	0	0	0	519	610
12	0	0	0	0	518	611
13	0	0	0	0	517	611
14	0	0	0	0	516	611
15	0	0	0	0	517	611
0	0	0	0	0	517	611
1	0	0	0	0	517	611
2	0	0	0	0	518	611
3	0	0	0	0	518	610
4	0	0	0	0	519	612
5	0	0	0	0	520	612
6	0	0	0	0	521	612
7	0	0	0	0	521	611
8	0	0	0	0	521	611
9	0	0	0	0	522	611
10	0	0	0	0	523	611
11	0	0	0	0	521	611
12	0	0	0	0	521	611
13	0	0	0	0	521	611
14	0	0	0	0	520	611
15	0	0	0	0	519	611
0	0	0	0	0	519	611
1	0	0	0	0	518	612
2	0	0	0	0	517	612
3	0	0	0	0	516	611
4	0	0	0	0	516	612
5	0	0	0	0	516	612
6	0	0	0	0	516	612
7	0	0	0	0	515	612
8	0	0	0	0	515	612
9	0	0	0	0	514	612
10	0	0	0	0	513	612
11	0	0	0	0	512	611
12	0	0	0	0	512	612
13	0	0	0	0	513	612
14	0	0	0	0	514	612
15	0	0	0	0	515	612
0	0	0	0	0	515	611
1	0	0	0	0	516	612
2	0	0	0	0	518	612
3	0	0	0	0	520	611
4	0	0	0	0	521	611
5	0	0	0	0	521	611
6	0	0	0	0	521	612
7	0	0	0	0	521	611
8	0	0	0	0	520	612
9	0	0	0	0	520	612
10	0	0	0	0	520	612
11	0	0	0	0	520	611
12	0	0	0	0	521	613
13	0	0	0	0	520	612
14	0	0	0	0	519	612
15	0	0	0	0	518	612
0	0	0	0	0	517	612
1	0	0	0	0	516	613
2	0	0	0	0	516	612
3	0	0	0	0	515	611
4	0	0	0	0	515	612
5	0	0	0	0	513	611
6	0	0	0	0	513	612
7	0	0	0	0	513	612
8	0	0	0	0	514	612
9	0	0	0	0	515	612
10	0	0	0	0	514	612
11	0	0	0	0	513	611
12	0	0	0	0	512	612
13	0	0	0	0	512	612
14	0	0	0	0	512	612
15	0	0	0	0	512	612
0	0	0	0	0	513	612
1	0	0	0	0	515	612
2	0	0	0	0	515	612
3	0	0	0	0	515	611
4	0	0	0	0	514	612
5	0	0	0	0	513	612
6	0	0	0	0	512	613
7	0	0	0	0	511	612
8	0	0	0	0	510	613
9	0	0	0	0	509	612
10	0	0	0	0	507	612
11	0	0	0	0	505	611
12	0	0	0	0	504	612
13	0	0	0	0	502	612
14	0	0	0	0	501	613
15	0	0	0	0	499	612
0	0	0	0	0	496	612
1	0	0	0	0	495	612
2	0	0	0	0	495	612
3	0	0	0	0	495	611
4	0	0	0	0	496	612
5	0	0	0	0	497	612
6	0	0	0	0	499	611
7	0	0	0	0	500	612
8	0	0	0	0	501	611
9	0	0	0	0	501	612
10	0	0	0	0	501	612
11	0	0	0	0	502	611
12	0	0	0	0	502	612
13	0	0	0	0	504	612
14	0	0	0	0	504	611
15	0	0	0	0	505	612
0	0	0	0	0	505	611
1	0	0	0	0	506	612
2	0	0	0	0	508	611
3	0	0	0	0	508	611
4	0	0	0	0	509	611
5	0	0	0	0	509	611
6	0	0	0	0	509	612
7	0	0	0	0	509	612
8	0	0	0	0	509	612
9	0	0	0	0	511	612
10	0	0	0	0	513	611
11	0	0	0	0	515	611
12	0	0	0	0	518	611
13	0	0	0	0	520	611
14	0	0	0	0	523	611
15	0	0	0	0	526	611
0	0	0	0	0	528	611
1	0	0	0	0	531	612
2	0	0	0	0	535	612
3	0	0	0	0	537	611
4	0	0	0	0	540	611
5	0	0	0	0	543	612
6	0	0	0	0	545	612
7	0	0	0	0	548	612
8	0	0	0	0	548	612
9	0	0	0	0	550	611
10	0	0	0	0	550	612
11	0	0	0	0	552	611
12	0	0	0	0	553	612
13	0	0	0	0	553	611
14	0	0	0	0	553	612
15	0	0	0	0	552	612
0	0	0	0	0	551	612
1	0	0	0	0	551	612
2	0	0	0	0	551	612
3	0	0	0	0	551	611
4	0	0	0	0	550	612
5	0	0	0	0	550	611
6	0	0	0	0	550	611
7	0	0	0	0	550	611
8	0	0	0	0	551	611
9	0	0	0	0	550	611
10	0	0	0	0	551	611
11	0	0	0	0	552	611
12	0	0	0	0	553	611
13	0	0	0	0	555	611
14	0	0	0	0	557	611
15	0	0	0	0	558	611
0	0	0	0	0	559	611
1	0	0	0	0	559	611
2	0	0	0	0	559	611
3	0	0	0	0	559	610
4	0	0	0	0	559	611
5	0	0	0	0	559	611
6	0	0	0	0	560	611
7	0	0	0	0	560	610
8	0	0	0	0	559	611
9	0	0	0	0	558	611
10	0	0	0	0	559	612
11	0	0	0	0	560	610
12	0	0	0	0	560	611
13	0	0	0	0	561	611
14	0	0	0	0	562	611
15	0	0	0	0	563	611
0	0	0	0	0	563	611
1	0	0	0	0	562	611
2	0	0	0	0	562	611
3	0	0	0	0	562	610
4	0	0	0	0	563	611
5	0	0	0	0	563	611
6	0	0	0	0	563	611
7	0	0	0	0	562	611
8	0	0	0	0	561	611
9	0	0	0	0	559	611
10	0	0	0	0	558	611
11	0	0	0	0	556	611
12	0	0	0	0	555	611
13	0	0	0	0	553	610
14	0	0	0	0	552	611
15	0	0	0	0	551	611
0	0	0	0	0	549	611
1	0	0	0	0	548	611
2	0	0	0	0	546	611
3	0	0	0	0	544	610
4	0	0	0	0	542	611
5	0	0	0	0	539	611
6	0	0	0	0	537	611
7	0	0	0	0	536	611
8	0	0	0	0	535	611
9	0	0	0	0	534	611
10	0	0	0	0	535	611
11	0	0	0	0	534	611
12	0	0	0	0	532	611
13	0	0	0	0	531	611
14	0	0	0	0	531	611
15	0	0	0	0	529	612
0	0	0	0	0	528	612
1	0	0	0	0	527	612
2	0	0	0	0	526	612
3	0	0	0	0	525	611
4	0	0	0	0	525	612
5	0	0	0	0	524	612
6	0	0	0	0	524	612
7	0	0	0	0	524	612
8	0	0	0	0	524	613
9	0	0	0	0	525	612
10	0	0	0	0	526	612
11	0	0	0	0	526	611
12	0	0	0	0	527	613
13	0	0	0	0	527	612
14	0	0	0	0	528	613
15	0	0	0	0	529	612
0	0	0	0	0	530	612
1	0	0	0	0	531	613
2	0	0	0	0	532	613
3	0	0	0	0	533	612
4	0	0	0	0	534	612
5	0	0	0	0	534	612
6	0	0	0	0	534	613
7	0	0	0	0	533	613
8	0	0	0	0	532	612
9	0	0	0	0	531	612
10	0	0	0	0	529	612
11	0	0	0	0	528	612
12	0	0	0	0	527	612
13	0	0	0	0	524	612
14	0	0	0	0	524	612
15	0	0	0	0	524	613
0	0	0	0	0	525	613
1	0	0	0	0	523	613
2	0	0	0	0	523	612
3	0	0	0	0	522	611
4	0	0	0	0	521	612
5	0	0	0	0	521	613
6	0	0	0	0	520	613
7	0	0	0	0	520	613
8	0	0	0	0	520	613
9	0	0	0	0	522	613
10	0	0	0	0	524	613
11	0	0	0	0	524	612
12	0	0	0	0	526	613
13	0	0	0	0	528	612
14	0	0	0	0	529	613
15	0	0	0	0	529	612
0	0	0	0	0	531	612
1	0	0	0	0	531	612
2	0	0	0	0	533	612
3	0	0	0	0	536	611
4	0	0	0	0	539	612
5	0	0	0	0	543	612
6	0	0	0	0	547	613
7	0	0	0	0	549	612
8	0	0	0	0	550	613
9	0	0	0	0	550	612
10	0	0	0	0	551	612
11	0	0	0	0	551	611
12	0	0	0	0	553	612
13	0	0	0	0	554	612
14	0	0	0	0	555	612
15	0	0	0	0	555	612
0	0	0	0	0	555	612
1	0	0	0	0	554	612
2	0	0	0	0	553	612
3	0	0	0	0	553	611
4	0	0	0	0	552	612
5	0	0	0	0	552	611
6	0	0	0	0	553	611
7	0	0	0	0	554	611
8	0	0	0	0	554	611
9	0	0	0	0	554	611
10	0	0	0	0	553	612
11	0	0	0	0	553	611
12	0	0	0	0	551	611
13	0	0	0	0	550	611
14	0	0	0	0	549	611
15	0	0	0	0	548	611
0	0	0	0	0	547	611
1	0	0	0	0	546	611
2	0	0	0	0	546	612
3	0	0	0	0	545	611
4	0	0	0	0	545	612
5	0	0	0	0	545	611
6	0	0	0	0	545	611
7	0	0	0	0	545	611
8	0	0	0	0	544	611
9	0	0	0	0	543	611
10	0	0	0	0	542	611
11	0	0	0	0	540	611
12	0	0	0	0	540	612
13	0	0	0	0	538	611
14	0	0	0	0	537	611
15	0	0	0	0	536	611
0	0	0	0	0	536	611
1	0	0	0	0	536	611
2	0	0	0	0	535	611
3	0	0	0	0	537	611
4	0	0	0	0	538	610
5	0	0	0	0	540	610
6	0	0	0	0	542	611
7	0	0	0	0	543	611
8	0	0	0	0	544	611
9	0	0	0	0	545	610
10	0	0	0	0	547	611
11	0	0	0	0	550	610
12	0	0	0	0	551	611
13	0	0	0	0	552	611
14	0	0	0	0	553	611
15	0	0	0	0	555	611
0	0	0	0	0	556	611
1	0	0	0	0	556	611
2	0	0	0	0	555	611
3	0	0	0	0	555	610
4	0	0	0	0	555	611
5	0	0	0	0	554	611
6	0	0	0	0	555	611
7	0	0	0	0	557	611
8	0	0	0	0	557	611
9	0	0	0	0	557	611
10	0	0	0	0	558	611
11	0	0	0	0	559	610
12	0	0	0	0	560	611
13	0	0	0	0	560	611
14	0	0	0	0	561	611
15	0	0	0	0	561	611
0	0	0	0	0	560	611
1	0	0	0	0	559	611
2	0	0	0	0	558	611
3	0	0	0	0	557	611
4	0	0	0	0	555	611
5	0	0	0	0	553	611
6	0	0	0	0	552	611
7	0	0	0	0	551	611
8	0	0	0	0	549	611
9	0	0	0	0	548	611
10	0	0	0	0	547	611
11	0	0	0	0	546	611
12	0	0	0	0	545	611
13	0	0	0	0	545	611
14	0	0	0	0	544	612
15	0	0	0	0	544	611
0	0	0	0	0	545	612
1	0	0	0	0	544	612
2	0	0	0	0	543	612
3	0	0	0	0	544	611
4	0	0	0	0	544	612
5	0	0	0	0	544	612
6	0	0	0	0	543	612
7	0	0	0	0	543	611
8	0	0	0	0	544	612
9	0	0	0	0	544	612
10	0	0	0	0	545	612
11	0	0	0	0	544	611
12	0	0	0	0	544	612
13	0	0	0	0	544	612
14	0	0	0	0	544	612
15	0	0	0	0	543	612
0	0	0	0	0	543	611
1	0	0	0	0	542	611
2	0	0	0	0	542	612
3	0	0	0	0	542	611
4	0	0	0	0	543	612
5	0	0	0	0	546	612
6	0	0	0	0	547	612
7	0	0	0	0	549	612
8	0	0	0	0	550	612
9	0	0	0	0	551	612
10	0	0	0	0	551	612
11	0	0	0	0	551	611
12	0	0	0	0	552	612
13	0	0	0	0	551	611
14	0	0	0	0	551	611
15	0	0	0	0	549	612
0	0	0	0	0	547	612
1	0	0	0	0	545	612
2	0	0	0	0	544	611
3	0	0	0	0	543	611
4	0	0	0	0	543	611
5	0	0	0	0	543	612
6	0	0	0	0	543	612
7	0	0	0	0	544	612
8	0	0	0	0	544	612
9	0	0	0	0	545	612
10	0	0	0	0	544	612
11	0	0	0	0	544	611
12	0	0	0	0	544	611
13	0	0	0	0	544	612
14	0	0	0	0	545	612
15	0	0	0	0	547	612
0	0	0	0	0	549	612
1	0	0	0	0	549	612
2	0	0	0	0	548	612
3	0	0	0	0	548	611
4	0	0	0	0	548	612
5	0	0	0	0	548	612
6	0	0	0	0	547	612
7	0	0	0	0	547	612
8	0	0	0	0	545	612
9	0	0	0	0	545	612
10	0	0	0	0	543	613
11	0	0	0	0	540	611
12	0	0	0	0	537	612
13	0	0	0	0	535	612
14	0	0	0	0	532	612
15	0	0	0	0	530	612
0	0	0	0	0	528	612
1	0	0	0	0	526	613
2	0	0	0	0	525	613
3	0	0	0	0	525	612
4	0	0	0	0	526	612
5	0	0	0	0	527	612
6	0	0	0	0	530	612
7	0	0	0	0	533	612
8	0	0	0	0	536	612
9	0	0	0	0	540	612
10	0	0	0	0	544	612
11	0	0	0	0	548	611
12	0	0	0	0	554	613
13	0	0	0	0	557	612
14	0	0	0	0	561	612
15	0	0	0	0	563	612
0	0	0	0	0	566	613
1	0	0	0	0	568	612
2	0	0	0	0	572	613
3	0	0	0	0	574	611
4	0	0	0	0	578	613
5	0	0	0	0	583	611
6	0	0	0	0	588	612
7	0	0	0	0	593	612
8	0	0	0	0	593	612
9	0	0	0	0	595	611
10	0	0	0	0	599	612
11	0	0	0	0	600	611
12	0	0	0	0	604	612
13	0	0	0	0	607	612
14	0	0	0	0	609	612
15	0	0	0	0	612	612
0	0	0	0	0	614	611
1	0	0	0	0	615	612
2	0	0	0	0	613	612
3	0	0	0	0	608	611
4	0	0	0	0	599	612
5	0	0	0	0	586	612
6	0	0	0	0	573	611
7	0	0	0	0	559	612
8	0	0	0	0	546	612
9	0	0	0	0	535	611
10	0	0	0	0	527	613
11	0	0	0	0	522	611
12	0	0	0	0	520	611
13	0	0	0	0	517	612
14	0	0	0	0	516	611
15	0	0	0	0	515	611
0	0	0	0	0	516	612
1	0	0	0	0	518	612
2	0	0	0	0	519	612
3	0	0	0	0	521	610
4	0	0	0	0	524	611
5	0	0	0	0	527	611
6	0	0	0	0	532	611
7	0	0	0	0	536	610
8	0	0	0	0	537	611
9	0	0	0	0	538	611
10	0	0	0	0	538	611
11	0	0	0	0	538	611
12	0	0	0	0	537	612
13	0	0	0	0	535	612
14	0	0	0	0	532	611
15	0	0	0	0	529	612
0	0	0	0	0	527	611
1	0	0	0	0	524	611
2	0	0	0	0	519	611
3	0	0	0	0	516	611
4	0	0	0	0	513	611
5	0	0	0	0	511	611
6	0	0	0	0	509	611
7	0	0	0	0	506	611
8	0	0	0	0	504	611
9	0	0	0	0	502	611
10	0	0	0	0	499	611
11	0	0	0	0	497	611
12	0	0	0	0	495	612
13	0	0	0	0	492	611
14	0	0	0	0	488	611
15	0	0	0	0	486	611
0	0	0	0	0	483	611
1	0	0	0	0	481	611
2	0	0	0	0	479	611
3	0	0	0	0	478	611
4	0	0	0	0	477	612
5	0	0	0	0	475	611
6	0	0	0	0	473	612
7	0	0	0	0	471	612
8	0	0	0	0	468	612
9	0	0	0	0	466	611
10	0	0	0	0	465	611
11	0	0	0	0	465	611
12	0	0	0	0	465	611
13	0	0	0	0	464	611
14	0	0	0	0	464	611
15	0	0	0	0	464	611
0	0	0	0	0	463	611
1	0	0	0	0	462	612
2	0	0	0	0	461	612
3	0	0	0	0	462	611
4	0	0	0	0	461	612
5	0	0	0	0	459	612
6	0	0	0	0	456	612
7	0	0	0	0	455	612
8	0	0	0	0	454	612
9	0	0	0	0	451	612
10	0	0	0	0	448	611
11	0	0	0	0	447	610
12	0	0	0	0	445	612
13	0	0	0	0	443	611
14	0	0	0	0	442	611
15	0	0	0	0	441	612
0	0	0	0	0	440	611
1	0	0	0	0	439	612
2	0	0	0	0	438	612
3	0	0	0	0	436	610
4	0	0	0	0	435	611
5	0	0	0	0	433	611
6	0	0	0	0	431	612
7	0	0	0	0	429	611
8	0	0	0	0	426	611
9	0	0	0	0	425	611
10	0	0	0	0	425	611
11	0	0	0	0	424	610
12	0	0	0	0	424	612
13	0	0	0	0	423	611
14	0	0	0	0	423	611
15	0	0	0	0	424	611
0	0	0	0	0	425	611
1	0	0	0	0	426	612
2	0	0	0	0	426	611
3	0	0	0	0	425	610
4	0	0	0	0	425	611
5	0	0	0	0	423	611
6	0	0	0	0	422	611
7	0	0	0	0	421	611
8	0	0	0	0	419	611
9	0	0	0	0	418	611
10	0	0	0	0	417	611
11	0	0	0	0	417	611
12	0	0	0	0	418	611
13	0	0	0	0	418	611
14	0	0	0	0	417	612
15	0	0	0	0	417	611
0	0	0	0	0	417	612
1	0	0	0	0	419	611
2	0	0	0	0	420	612
3	0	0	0	0	420	610
4	0	0	0	0	422	612
5	0	0	0	0	424	612
6	0	0	0	0	427	612
7	0	0	0	0	429	612
8	0	0	0	0	430	612
9	0	0	0	0	432	611
10	0	0	0	0	434	612
11	0	0	0	0	434	611
12	0	0	0	0	435	612
13	0	0	0	0	435	611
14	0	0	0	0	435	612
15	0	0	0	0	434	612
0	0	0	0	0	432	612
1	0	0	0	0	431	612
2	0	0	0	0	430	612
3	0	0	0	0	429	611
4	0	0	0	0	428	612
5	0	0	0	0	427	612
6	0	0	0	0	426	613
7	0	0	0	0	425	612
8	0	0	0	0	425	612
9	0	0	0	0	425	612
10	0	0	0	0	425	613
11	0	0	0	0	426	612
12	0	0	0	0	428	612
13	0	0	0	0	430	612
14	0	0	0	0	431	612
15	0	0	0	0	432	612
0	0	0	0	0	433	612
1	0	0	0	0	435	612
2	0	0	0	0	438	612
3	0	0	0	0	440	612
4	0	0	0	0	441	612
5	0	0	0	0	444	612
6	0	0	0	0	447	612
7	0	0	0	0	450	612
8	0	0	0	0	452	612
9	0	0	0	0	454	612
10	0	0	0	0	457	612
11	0	0	0	0	460	611
12	0	0	0	0	465	612
13	0	0	0	0	468	612
14	0	0	0	0	470	612
15	0	0	0	0	472	612
0	0	0	0	0	475	613
1	0	0	0	0	477	613
2	0	0	0	0	479	612
3	0	0	0	0	480	612
4	0	0	0	0	482	612
5	0	0	0	0	484	612
6	0	0	0	0	487	613
7	0	0	0	0	488	612
8	0	0	0	0	491	612
9	0	0	0	0	492	612
10	0	0	0	0	493	612
11	0	0	0	0	494	611
12	0	0	0	0	496	612
13	0	0	0	0	497	613
14	0	0	0	0	499	613
15	0	0	0	0	500	612
0	0	0	0	0	503	612
1	0	0	0	0	505	612
2	0	0	0	0	508	613
3	0	0	0	0	509	611
4	0	0	0	0	510	612
5	0	0	0	0	511	612
6	0	0	0	0	513	612
7	0	0	0	0	514	612
8	0	0	0	0	516	612
9	0	0	0	0	519	612
10	0	0	0	0	519	612
11	0	0	0	0	521	611
12	0	0	0	0	522	612
13	0	0	0	0	523	612
14	0	0	0	0	525	612
15	0	0	0	0	526	612
0	0	0	0	0	526	612
1	0	0	0	0	527	612
2	0	0	0	0	527	612
3	0	0	0	0	529	611
4	0	0	0	0	531	612
5	0	0	0	0	532	611
6	0	0	0	0	534	612
7	0	0	0	0	536	611
8	0	0	0	0	537	612
9	0	0	0	0	537	612
10	0	0	0	0	539	611
11	0	0	0	0	539	611
12	0	0	0	0	541	612
13	0	0	0	0	541	612
14	0	0	0	0	542	612
15	0	0	0	0	543	612
0	0	0	0	0	545	611
1	0	0	0	0	547	612
2	0	0	0	0	549	612
3	0	0	0	0	550	611
4	0	0	0	0	551	612
5	0	0	0	0	553	612
6	0	0	0	0	555	612
7	0	0	0	0	556	611
8	0	0	0	0	557	611
9	0	0	0	0	558	611
10	0	0	0	0	559	612
11	0	0	0	0	561	610
12	0	0	0	0	562	612
13	0	0	0	0	563	611
14	0	0	0	0	565	612
15	0	0	0	0	568	612
0	0	0	0	0	569	612
1	0	0	0	0	572	612
2	0	0	0	0	574	611
3	0	0	0	0	575	610
4	0	0	0	0	575	611
5	0	0	0	0	575	611
6	0	0	0	0	576	612
7	0	0	0	0	577	612
8	0	0	0	0	577	611
9	0	0	0	0	578	611
10	0	0	0	0	579	611
11	0	0	0	0	580	610
12	0	0	0	0	583	611
13	0	0	0	0	586	611
14	0	0	0	0	589	611
15	0	0	0	0	592	611
0	0	0	0	0	593	611
1	0	0	0	0	595	612
2	0	0	0	0	597	611
3	0	0	0	0	600	610
4	0	0	0	0	602	611
5	0	0	0	0	605	611
6	0	0	0	0	607	611
7	0	0	0	0	610	611
8	0	0	0	0	611	611
9	0	0	0	0	611	611
10	0	0	0	0	612	611
11	0	0	0	0	612	611
12	0	0	0	0	613	611
13	0	0	0	0	614	611
14	0	0	0	0	615	611
15	0	0	0	0	616	611
0	0	0	0	0	617	611
1	0	0	0	0	619	611
2	0	0	0	0	620	611
3	0	0	0	0	620	610
4	0	0	0	0	620	611
5	0	0	0	0	619	611
6	0	0	0	0	619	611
7	0	0	0	0	620	611
8	0	0	0	0	621	611
9	0	0	0	0	620	611
10	0	0	0	0	619	611
11	0	0	0	0	619	611
12	0	0	0	0	620	611
13	0	0	0	0	620	611
14	0	0	0	0	621	610
15	0	0	0	0	622	611
0	0	0	0	0	624	611
1	0	0	0	0	625	611
2	0	0	0	0	627	611
3	0	0	0	0	628	610
4	0	0	0	0	630	611
5	0	0	0	0	630	610
6	0	0	0	0	630	611
7	0	0	0	0	630	611
8	0	0	0	0	628	611
9	0	0	0	0	627	611
10	0	0	0	0	628	611
11	0	0	0	0	628	611
12	0	0	0	0	627	611
13	0	0	0	0	628	611
14	0	0	0	0	628	611
15	0	0	0	0	629	611
0	0	0	0	0	628	610
1	0	0	0	0	627	611
2	0	0	0	0	628	611
3	0	0	0	0	628	610
4	0	0	0	0	628	611
5	0	0	0	0	628	611
6	0	0	0	0	628	611
7	0	0	0	0	628	611
8	0	0	0	0	627	611
9	0	0	0	0	628	610
10	0	0	0	0	627	611
11	0	0	0	0	627	610
12	0	0	0	0	627	611
13	0	0	0	0	626	611
14	0	0	0	0	626	611
15	0	0	0	0	626	611
0	0	0	0	0	625	611
1	0	0	0	0	624	611
2	0	0	0	0	622	612
3	0	0	0	0	623	611
4	0	0	0	0	622	611
5	0	0	0	0	622	611
6	0	0	0	0	622	612
7	0	0	0	0	622	611
8	0	0	0	0	623	611
9	0	0	0	0	623	611
10	0	0	0	0	624	611
11	0	0	0	0	624	611
12	0	0	0	0	625	611
13	0	0	0	0	627	611
14	0	0	0	0	627	611
15	0	0	0	0	629	611
0	0	0	0	0	630	611
1	0	0	0	0	631	612
2	0	0	0	0	632	611
3	0	0	0	0	634	611
4	0	0	0	0	635	611
5	0	0	0	0	635	611
6	0	0	0	0	635	611
7	0	0	0	0	634	612
8	0	0	0	0	633	611
9	0	0	0	0	632	612
10	0	0	0	0	632	612
11	0	0	0	0	632	611
12	0	0	0	0	632	612
13	0	0	0	0	632	612
14	0	0	0	0	632	611
15	0	0	0	0	632	612
0	0	0	0	0	632	612
1	0	0	0	0	632	612
2	0	0	0	0	632	612
3	0	0	0	0	632	611
4	0	0	0	0	632	612
5	0	0	0	0	630	613
6	0	0	0	0	628	613
7	0	0	0	0	629	613
8	0	0	0	0	629	612
9	0	0	0	0	629	613
10	0	0	0	0	630	612
11	0	0	0	0	630	612
12	0	0	0	0	629	613
13	0	0	0	0	629	613
14	0	0	0	0	629	612
15	0	0	0	0	628	613
0	0	0	0	0	627	612
1	0	0	0	0	625	613
2	0	0	0	0	626	613
3	0	0	0	0	625	612
4	0	0	0	0	624	613
5	0	0	0	0	622	613
6	0	0	0	0	621	613
7	0	0	0	0	620	613
8	0	0	0	0	620	613
9	0	0	0	0	619	613
10	0	0	0	0	619	614
11	0	0	0	0	618	612
12	0	0	0	0	616	612
13	0	0	0	0	615	613
14	0	0	0	0	614	612
15	0	0	0	0	613	613
0	0	0	0	0	613	613
1	0	0	0	0	614	613
2	0	0	0	0	612	613
3	0	0	0	0	611	612
4	0	0	0	0	611	613
5	0	0	0	0	610	613
6	0	0	0	0	609	613
7	0	0	0	0	609	613
8	0	0	0	0	608	612
9	0	0	0	0	608	612
10	0	0	0	0	607	613
11	0	0	0	0	607	611
12	0	0	0	0	605	612
13	0	0	0	0	604	612
14	0	0	0	0	604	612
15	0	0	0	0	602	612
0	0	0	0	0	601	612
1	0	0	0	0	600	612
2	0	0	0	0	600	612
3	0	0	0	0	601	611
4	0	0	0	0	599	612
5	0	0	0	0	598	611
6	0	0	0	0	597	612
7	0	0	0	0	596	611
8	0	0	0	0	595	612
9	0	0	0	0	595	612
10	0	0	0	0	595	612
11	0	0	0	0	595	611
12	0	0	0	0	594	611
13	0	0	0	0	595	612
14	0	0	0	0	597	611
15	0	0	0	0	600	611
0	0	0	0	0	601	612
1	0	0	0	0	602	611
2	0	0	0	0	604	612
3	0	0	0	0	605	611
4	0	0	0	0	606	612
5	0	0	0	0	606	612
6	0	0	0	0	606	612
7	0	0	0	0	606	612
8	0	0	0	0	607	612
9	0	0	0	0	609	611
10	0	0	0	0	610	612
11	0	0	0	0	611	611
12	0	0	0	0	611	611
13	0	0	0	0	611	611
14	0	0	0	0	611	612
15	0	0	0	0	611	611
0	0	0	0	0	611	611
1	0	0	0	0	611	611
2	0	0	0	0	610	611
3	0	0	0	0	610	611
4	0	0	0	0	609	611
5	0	0	0	0	610	611
6	0	0	0	0	610	612
7	0	0	0	0	609	612
8	0	0	0	0	609	611
9	0	0	0	0	609	611
10	0	0	0	0	609	611
11	0	0	0	0	608	610
12	0	0	0	0	608	611
13	0	0	0	0	608	612
14	0	0	0	0	608	611
15	0	0	0	0	608	611
0	0	0	0	0	607	611
1	0	0	0	0	607	611
2	0	0	0	0	606	611
3	0	0	0	0	603	610
4	0	0	0	0	601	611
5	0	0	0	0	600	611
6	0	0	0	0	600	611
7	0	0	0	0	599	611
8	0	0	0	0	597	611
9	0	0	0	0	596	611
10	0	0	0	0	595	611
11	0	0	0	0	593	610
12	0	0	0	0	593	611
13	0	0	0	0	594	611
14	0	0	0	0	595	611
15	0	0	0	0	596	611
0	0	0	0	0	597	611
1	0	0	0	0	596	610
2	0	0	0	0	596	611
3	0	0	0	0	597	609
4	0	0	0	0	598	610
5	0	0	0	0	598	610
6	0	0	0	0	599	610
7	0	0	0	0	599	611
8	0	0	0	0	600	610
9	0	0	0	0	601	610
10	0	0	0	0	601	610
11	0	0	0	0	601	609
12	0	0	0	0	602	610
13	0	0	0	0	603	611
14	0	0	0	0	604	611
15	0	0	0	0	605	611
0	0	0	0	0	607	611
1	0	0	0	0	609	611
2	0	0	0	0	611	611
3	0	0	0	0	614	610
4	0	0	0	0	616	611
5	0	0	0	0	618	612
6	0	0	0	0	620	611
7	0	0	0	0	622	611
8	0	0	0	0	624	612
9	0	0	0	0	626	611
10	0	0	0	0	628	612
11	0	0	0	0	630	611
12	0	0	0	0	631	612
13	0	0	0	0	632	612
14	0	0	0	0	633	612
15	0	0	0	0	634	612
0	0	0	0	0	634	612
1	0	0	0	0	635	612
2	0	0	0	0	636	612
3	0	0	0	0	636	611
4	0	0	0	0	637	612
5	0	0	0	0	636	612
6	0	0	0	0	636	612
7	0	0	0	0	636	612
8	0	0	0	0	636	612
9	0	0	0	0	638	612
10	0	0	0	0	640	613
11	0	0	0	0	640	612
12	0	0	0	0	641	612
13	0	0	0	0	641	613
14	0	0	0	0	639	612
15	0	0	0	0	639	612
0	0	0	0	0	639	613
1	0	0	0	0	638	613
2	0	0	0	0	637	613
3	0	0	0	0	636	612
4	0	0	0	0	635	613
5	0	0	0	0	634	613
6	0	0	0	0	633	613
7	0	0	0	0	632	612
8	0	0	0	0	632	613
9	0	0	0	0	631	612
10	0	0	0	0	630	613
11	0	0	0	0	628	612
12	0	0	0	0	627	613
13	0	0	0	0	628	614
14	0	0	0	0	629	613
15	0	0	0	0	630	613
0	0	0	0	0	630	613
1	0	0	0	0	631	613
2	0	0	0	0	631	613
3	0	0	0	0	631	612
4	0	0	0	0	630	613
5	0	0	0	0	628	613
6	0	0	0	0	628	613
7	0	0	0	0	627	613
8	0	0	0	0	625	613
9	0	0	0	0	623	612
10	0	0	0	0	621	612
11	0	0	0	0	620	611
12	0	0	0	0	619	612
13	0	0	0	0	620	612
14	0	0	0	0	620	612
15	0	0	0	0	621	612
0	0	0	0	0	621	612
1	0	0	0	0	622	612
2	0	0	0	0	621	612
3	0	0	0	0	622	611
4	0	0	0	0	622	612
5	0	0	0	0	623	612
6	0	0	0	0	622	612
7	0	0	0	0	620	612
8	0	0	0	0	619	612
9	0	0	0	0	616	613
10	0	0	0	0	613	612
11	0	0	0	0	611	612
12	0	0	0	0	609	612
13	0	0	0	0	606	612
14	0	0	0	0	604	612
15	0	0	0	0	600	612
0	0	0	0	0	598	612
1	0	0	0	0	596	612
2	0	0	0	0	595	612
3	0	0	0	0	593	612
4	0	0	0	0	591	612
5	0	0	0	0	589	612
6	0	0	0	0	588	612
7	0	0	0	0	588	611
8	0	0	0	0	587	612
9	0	0	0	0	586	612
10	0	0	0	0	585	612
11	0	0	0	0	585	611
12	0	0	0	0	586	612
13	0	0	0	0	588	612
14	0	0	0	0	589	612
15	0	0	0	0	590	612
0	0	0	0	0	591	611
1	0	0	0	0	593	611
2	0	0	0	0	593	612
3	0	0	0	0	593	611
4	0	0	0	0	593	612
5	0	0	0	0	593	612
6	0	0	0	0	592	612
7	0	0	0	0	593	612
8	0	0	0	0	592	612
9	0	0	0	0	590	612
10	0	0	0	0	589	612
11	0	0	0	0	589	611
12	0	0	0	0	588	612
13	0	0	0	0	588	611
14	0	0	0	0	587	611
15	0	0	0	0	587	612
0	0	0	0	0	588	611
1	0	0	0	0	587	612
2	0	0	0	0	585	611
3	0	0	0	0	583	611
4	0	0	0	0	582	611
5	0	0	0	0	582	611
6	0	0	0	0	582	612
7	0	0	0	0	582	612
8	0	0	0	0	581	611
9	0	0	0	0	581	612
10	0	0	0	0	580	611
11	0	0	0	0	580	611
12	0	0	0	0	579	611
13	0	0	0	0	579	611
14	0	0	0	0	578	611
15	0	0	0	0	577	611
0	0	0	0	0	576	611
1	0	0	0	0	574	611
2	0	0	0	0	572	611
3	0	0	0	0	571	611
4	0	0	0	0	568	611
5	0	0	0	0	565	611
6	0	0	0	0	563	611
7	0	0	0	0	561	611
8	0	0	0	0	560	611
9	0	0	0	0	560	611
10	0	0	0	0	559	611
11	0	0	0	0	559	609
12	0	0	0	0	558	610
13	0	0	0	0	558	611
14	0	0	0	0	557	611
15	0	0	0	0	556	611
0	0	0	0	0	556	611
1	0	0	0	0	555	611
2	0	0	0	0	554	611
3	0	0	0	0	553	610
4	0	0	0	0	553	611
5	0	0	0	0	551	611
6	0	0	0	0	551	611
7	0	0	0	0	550	610
8	0	0	0	0	548	610
9	0	0	0	0	547	611
10	0	0	0	0	547	611
11	0	0	0	0	545	611
12	0	0	0	0	544	611
13	0	0	0	0	543	611
14	0	0	0	0	543	611
15	0	0	0	0	542	611
0	0	0	0	0	540	611
1	0	0	0	0	539	611
2	0	0	0	0	537	611
3	0	0	0	0	536	610
4	0	0	0	0	535	610
5	0	0	0	0	533	611
6	0	0	0	0	531	611
7	0	0	0	0	529	611
8	0	0	0	0	528	611
9	0	0	0	0	526	611
10	0	0	0	0	524	611
11	0	0	0	0	523	610
12	0	0	0	0	519	611
13	0	0	0	0	518	611
14	0	0	0	0	515	611
15	0	0	0	0	514	611
0	0	0	0	0	512	611
1	0	0	0	0	511	611
2	0	0	0	0	509	611
3	0	0	0	0	508	610
4	0	0	0	0	506	611
5	0	0	0	0	505	611
6	0	0	0	0	504	611
7	0	0	0	0	502	611
8	0	0	0	0	501	611
9	0	0	0	0	500	611
10	0	0	0	0	499	611
11	0	0	0	0	499	610
12	0	0	0	0	499	611
13	0	0	0	0	498	611
14	0	0	0	0	497	611
15	0	0	0	0	496	611
0	0	0	0	0	494	611
1	0	0	0	0	492	611
2	0	0	0	0	491	611
3	0	0	0	0	490	610
4	0	0	0	0	489	611
5	0	0	0	0	489	611
6	0	0	0	0	488	611
7	0	0	0	0	486	612
8	0	0	0	0	484	612
9	0	0	0	0	483	612
10	0	0	0	0	481	612
11	0	0	0	0	481	611
12	0	0	0	0	480	611
13	0	0	0	0	480	612
14	0	0	0	0	480	612
15	0	0	0	0	479	612
0	0	0	0	0	478	613
1	0	0	0	0	478	612
2	0	0	0	0	478	612
3	0	0	0	0	478	612
4	0	0	0	0	478	612
5	0	0	0	0	478	612
6	0	0	0	0	478	613
7	0	0	0	0	478	613
8	0	0	0	0	478	612
9	0	0	0	0	478	612
10	0	0	0	0	477	612
11	0	0	0	0	476	612
12	0	0	0	0	475	612
13	0	0	0	0	472	612
14	0	0	0	0	470	613
15	0	0	0	0	468	613
0	0	0	0	0	467	613
1	0	0	0	0	465	613
2	0	0	0	0	464	612
3	0	0	0	0	462	611
4	0	0	0	0	461	612
5	0	0	0	0	459	612
6	0	0	0	0	457	612
7	0	0	0	0	455	612
8	0	0	0	0	454	612
9	0	0	0	0	451	612
10	0	0	0	0	449	611
11	0	0	0	0	448	611
12	0	0	0	0	447	612
13	0	0	0	0	444	612
14	0	0	0	0	443	612
15	0	0	0	0	443	612
0	0	0	0	0	442	611
1	0	0	0	0	442	612
2	0	0	0	0	441	612
3	0	0	0	0	440	611
4	0	0	0	0	440	612
5	0	0	0	0	439	612
6	0	0	0	0	437	612
7	0	0	0	0	435	612
8	0	0	0	0	432	612
9	0	0	0	0	430	612
10	0	0	0	0	428	612
11	0	0	0	0	427	611
12	0	0	0	0	425	611
13	0	0	0	0	423	612
14	0	0	0	0	422	612
15	0	0	0	0	421	612
0	0	0	0	0	420	611
1	0	0	0	0	419	611
2	0	0	0	0	419	611
3	0	0	0	0	421	611
4	0	0	0	0	421	612
5	0	0	0	0	421	612
6	0	0	0	0	421	612
7	0	0	0	0	421	612
8	0	0	0	0	421	611
9	0	0	0	0	421	612
10	0	0	0	0	422	612
11	0	0	0	0	422	611
12	0	0	0	0	423	611
13	0	0	0	0	423	612
14	0	0	0	0	423	612
15	0	0	0	0	424	611
0	0	0	0	0	423	611
1	0	0	0	0	423	611
2	0	0	0	0	422	611
3	0	0	0	0	420	611
4	0	0	0	0	419	611
5	0	0	0	0	416	611
6	0	0	0	0	415	612
7	0	0	0	0	414	611
8	0	0	0	0	415	611
9	0	0	0	0	416	612
10	0	0	0	0	420	611
11	0	0	0	0	425	611
12	0	0	0	0	429	612
13	0	0	0	0	432	611
14	0	0	0	0	437	611
15	0	0	0	0	442	611
0	0	0	0	0	449	612
1	0	0	0	0	454	611
2	0	0	0	0	459	612
3	0	0	0	0	462	611
4	0	0	0	0	464	611
5	0	0	0	0	468	611
6	0	0	0	0	472	611
7	0	0	0	0	476	611
8	0	0	0	0	480	611
9	0	0	0	0	485	611
10	0	0	0	0	491	611
11	0	0	0	0	496	610
12	0	0	0	0	500	611
13	0	0	0	0	504	612
14	0	0	0	0	507	611
15	0	0	0	0	510	611
0	0	0	0	0	513	611
1	0	0	0	0	516	611
2	0	0	0	0	519	611
3	0	0	0	0	523	610
4	0	0	0	0	527	611
5	0	0	0	0	528	611
6	0	0	0	0	528	610
7	0	0	0	0	527	611
8	0	0	0	0	523	611
9	0	0	0	0	515	611
10	0	0	0	0	503	611
11	0	0	0	0	487	611
12	0	0	0	0	473	612
13	0	0	0	0	461	611
14	0	0	0	0	451	611
15	0	0	0	0	446	611
0	0	0	0	0	442	611
1	0	0	0	0	440	611
2	0	0	0	0	439	611
3	0	0	0	0	438	610
4	0	0	0	0	439	611
5	0	0	0	0	440	610
6	0	0	0	0	442	611
7	0	0	0	0	445	611
8	0	0	0	0	448	611
9	0	0	0	0	452	611
10	0	0	0	0	455	611
11	0	0	0	0	458	609
12	0	0	0	0	460	611
13	0	0	0	0	461	611
14	0	0	0	0	461	611
15	0	0	0	0	461	611
0	0	0	0	0	460	611
1	0	0	0	0	460	611
2	0	0	0	0	460	612
3	0	0	0	0	460	610
4	0	0	0	0	458	611
5	0	0	0	0	457	611
6	0	0	0	0	457	611
7	0	0	0	0	455	612
8	0	0	0	0	453	611
9	0	0	0	0	451	612
10	0	0	0	0	450	612
11	0	0	0	0	449	611
12	0	0	0	0	448	612
13	0	0	0	0	448	612
14	0	0	0	0	447	612
15	0	0	0	0	446	612
0	0	0	0	0	445	612
1	0	0	0	0	445	612
2	0	0	0	0	445	612
3	0	0	0	0	445	611
4	0	0	0	0	445	612
5	0	0	0	0	444	612
6	0	0	0	0	444	612
7	0	0	0	0	444	612
8	0	0	0	0	444	612
9	0	0	0	0	444	612
10	0	0	0	0	444	612
11	0	0	0	0	443	611
12	0	0	0	0	444	612
13	0	0	0	0	444	612
14	0	0	0	0	444	612
15	0	0	0	0	444	612
0	0	0	0	0	445	612
1	0	0	0	0	447	612
2	0	0	0	0	448	612
3	0	0	0	0	449	612
4	0	0	0	0	450	612
5	0	0	0	0	451	613
6	0	0	0	0	451	612
7	0	0	0	0	451	612
8	0	0	0	0	452	613
9	0	0	0	0	454	613
10	0	0	0	0	455	612
11	0	0	0	0	455	611
12	0	0	0	0	456	612
13	0	0	0	0	457	612
14	0	0	0	0	458	612
15	0	0	0	0	460	612
0	0	0	0	0	462	613
1	0	0	0	0	463	612
2	0	0	0	0	464	612
3	0	0	0	0	466	611
4	0	0	0	0	468	612
5	0	0	0	0	470	612
6	0	0	0	0	471	613
7	0	0	0	0	471	612
8	0	0	0	0	471	612
9	0	0	0	0	472	612
10	0	0	0	0	472	612
11	0	0	0	0	471	611
12	0	0	0	0	470	612
13	0	0	0	0	469	612
14	0	0	0	0	468	612
15	0	0	0	0	467	612
0	0	0	0	0	468	612
1	0	0	0	0	467	611
2	0	0	0	0	466	611
3	0	0	0	0	464	611
4	0	0	0	0	463	611
5	0	0	0	0	463	612
6	0	0	0	0	462	611
7	0	0	0	0	462	611
8	0	0	0	0	462	611
9	0	0	0	0	463	612
10	0	0	0	0	463	611
11	0	0	0	0	464	611
12	0	0	0	0	464	611
13	0	0	0	0	465	612
14	0	0	0	0	466	612
15	0	0	0	0	466	611
0	0	0	0	0	466	612
1	0	0	0	0	466	612
2	0	0	0	0	466	612
3	0	0	0	0	466	610
4	0	0	0	0	467	611
5	0	0	0	0	467	611
6	0	0	0	0	467	611
7	0	0	0	0	467	612
8	0	0	0	0	467	611
9	0	0	0	0	466	611
10	0	0	0	0	465	612
11	0	0	0	0	464	610
12	0	0	0	0	464	611
13	0	0	0	0	463	611
14	0	0	0	0	464	611
15	0	0	0	0	463	612
0	0	0	0	0	463	611
1	0	0	0	0	463	611
2	0	0	0	0	463	611
3	0	0	0	0	463	610
4	0	0	0	0	463	611
5	0	0	0	0	463	611
6	0	0	0	0	463	611
7	0	0	0	0	463	612
8	0	0	0	0	462	611
9	0	0	0	0	462	611
10	0	0	0	0	462	612
11	0	0	0	0	461	611
12	0	0	0	0	459	612
13	0	0	0	0	458	612
14	0	0	0	0	456	612
15	0	0	0	0	455	612
0	0	0	0	0	455	612
1	0	0	0	0	453	612
2	0	0	0	0	452	612
3	0	0	0	0	451	611
4	0	0	0	0	450	612
5	0	0	0	0	449	612
6	0	0	0	0	448	612
7	0	0	0	0	447	611
8	0	0	0	0	446	612
9	0	0	0	0	445	611
10	0	0	0	0	444	611
11	0	0	0	0	443	611
12	0	0	0	0	443	612
13	0	0	0	0	442	612
14	0	0	0	0	441	612
15	0	0	0	0	440	612
0	0	0	0	0	440	612
1	0	0	0	0	439	612
2	0	0	0	0	438	611
3	0	0	0	0	437	611
4	0	0	0	0	436	612
5	0	0	0	0	434	612
6	0	0	0	0	433	612
7	0	0	0	0	433	612
8	0	0	0	0	432	612
9	0	0	0	0	431	612
10	0	0	0	0	429	612
11	0	0	0	0	428	611
12	0	0	0	0	427	611
13	0	0	0	0	427	612
14	0	0	0	0	426	612
15	0	0	0	0	427	611
0	0	0	0	0	428	612
1	0	0	0	0	429	612
2	0	0	0	0	429	612
3	0	0	0	0	430	611
4	0	0	0	0	431	611
5	0	0	0	0	431	611
6	0	0	0	0	431	612
7	0	0	0	0	431	612
8	0	0	0	0	432	612
9	0	0	0	0	432	612
10	0	0	0	0	431	611
11	0	0	0	0	431	611
12	0	0	0	0	431	612
13	0	0	0	0	430	611
14	0	0	0	0	431	611
15	0	0	0	0	432	612
0	0	0	0	0	433	612
1	0	0	0	0	433	612
2	0	0	0	0	433	612
3	0	0	0	0	433	611
4	0	0	0	0	434	612
5	0	0	0	0	434	612
6	0	0	0	0	435	611
7	0	0	0	0	436	611
8	0	0	0	0	437	611
9	0	0	0	0	438	612
10	0	0	0	0	439	612
11	0	0	0	0	439	611
12	0	0	0	0	440	612
13	0	0	0	0	439	612
14	0	0	0	0	439	612
15	0	0	0	0	438	612
0	0	0	0	0	438	612
1	0	0	0	0	439	612
2	0	0	0	0	441	612
3	0	0	0	0	442	611
4	0	0	0	0	444	612
5	0	0	0	0	446	612
6	0	0	0	0	449	612
7	0	0	0	0	451	611
8	0	0	0	0	452	612
9	0	0	0	0	454	612
10	0	0	0	0	455	612
11	0	0	0	0	456	611
12	0	0	0	0	457	612
13	0	0	0	0	458	612
14	0	0	0	0	459	611
15	0	0	0	0	458	611
0	0	0	0	0	459	612
1	0	0	0	0	460	612
2	0	0	0	0	460	611
3	0	0	0	0	461	611
4	0	0	0	0	462	611
5	0	0	0	0	463	611
6	0	0	0	0	464	611
7	0	0	0	0	465	611
8	0	0	0	0	466	611
9	0	0	0	0	469	611
10	0	0	0	0	470	611
11	0	0	0	0	472	611
12	0	0	0	0	474	611
13	0	0	0	0	475	611
14	0	0	0	0	475	611
15	0	0	0	0	475	611
0	0	0	0	0	476	611
1	0	0	0	0	475	611
2	0	0	0	0	475	611
3	0	0	0	0	475	611
4	0	0	0	0	474	611
5	0	0	0	0	475	611
6	0	0	0	0	473	611
7	0	0	0	0	474	611
8	0	0	0	0	474	611
9	0	0	0	0	474	611
10	0	0	0	0	473	611
11	0	0	0	0	473	611
12	0	0	0	0	472	612
13	0	0	0	0	472	612
14	0	0	0	0	472	612
15	0	0	0	0	472	612
0	0	0	0	0	473	612
1	0	0	0	0	473	612
2	0	0	0	0	472	612
3	0	0	0	0	471	611
4	0	0	0	0	470	612
5	0	0	0	0	470	612
6	0	0	0	0	470	611
7	0	0	0	0	470	611
8	0	0	0	0	470	611
9	0	0	0	0	468	612
10	0	0	0	0	467	611
11	0	0	0	0	467	611
12	0	0	0	0	467	611
13	0	0	0	0	467	611
14	0	0	0	0	468	611
15	0	0	0	0	468	611
0	0	0	0	0	467	611
1	0	0	0	0	467	611
2	0	0	0	0	466	612
3	0	0	0	0	466	611
4	0	0	0	0	465	612
5	0	0	0	0	465	611
6	0	0	0	0	465	611
7	0	0	0	0	465	611
8	0	0	0	0	464	611
9	0	0	0	0	465	611
10	0	0	0	0	464	611
11	0	0	0	0	463	611
12	0	0	0	0	463	611
13	0	0	0	0	463	612
14	0	0	0	0	463	612
15	0	0	0	0	463	611
0	0	0	0	0	464	611
1	0	0	0	0	465	612
2	0	0	0	0	466	612
3	0	0	0	0	466	611
4	0	0	0	0	466	611
5	0	0	0	0	465	611
6	0	0	0	0	465	611
7	0	0	0	0	466	612
8	0	0	0	0	465	612
9	0	0	0	0	465	611
10	0	0	0	0	464	611
11	0	0	0	0	463	611
12	0	0	0	0	462	612
13	0	0	0	0	460	612
14	0	0	0	0	460	612
15	0	0	0	0	459	612
0	0	0	0	0	459	612
1	0	0	0	0	459	611
2	0	0	0	0	459	611
3	0	0	0	0	460	611
4	0	0	0	0	461	611
5	0	0	0	0	461	611
6	0	0	0	0	462	611
7	0	0	0	0	462	611
8	0	0	0	0	462	611
9	0	0	0	0	462	610
10	0	0	0	0	463	611
11	0	0	0	0	463	610
12	0	0	0	0	464	611
13	0	0	0	0	464	611
14	0	0	0	0	463	611
15	0	0	0	0	463	611
0	0	0	0	0	462	611
1	0	0	0	0	462	611
2	0	0	0	0	463	611
3	0	0	0	0	463	609
4	0	0	0	0	464	611
5	0	0	0	0	464	611
6	0	0	0	0	463	611
7	0	0	0	0	463	611
8	0	0	0	0	463	611
9	0	0	0	0	463	611
10	0	0	0	0	464	611
11	0	0	0	0	465	611
12	0	0	0	0	466	611
13	0	0	0	0	467	611
14	0	0	0	0	467	611
15	0	0	0	0	465	611
0	0	0	0	0	465	611
1	0	0	0	0	465	611
2	0	0	0	0	465	611
3	0	0	0	0	466	610
4	0	0	0	0	465	611
5	0	0	0	0	465	611
6	0	0	0	0	465	611
7	0	0	0	0	465	611
8	0	0	0	0	465	612
9	0	0	0	0	465	611
10	0	0	0	0	466	611
11	0	0	0	0	467	611
12	0	0	0	0	467	611
13	0	0	0	0	466	611
14	0	0	0	0	466	611
15	0	0	0	0	466	612
0	0	0	0	0	467	611
1	0	0	0	0	466	611
2	0	0	0	0	467	611
3	0	0	0	0	467	610
4	0	0	0	0	467	611
5	0	0	0	0	467	611
6	0	0	0	0	467	611
7	0	0	0	0	467	611
8	0	0	0	0	468	611
9	0	0	0	0	469	612
10	0	0	0	0	470	611
11	0	0	0	0	471	610
12	0	0	0	0	471	611
13	0	0	0	0	472	611
14	0	0	0	0	472	612
15	0	0	0	0	472	612
0	0	0	0	0	472	611
1	0	0	0	0	472	612
2	0	0	0	0	471	612
3	0	0	0	0	470	611
4	0	0	0	0	470	612
5	0	0	0	0	470	612
6	0	0	0	0	470	611
7	0	0	0	0	470	612
8	0	0	0	0	471	612
9	0	0	0	0	472	612
10	0	0	0	0	474	612
11	0	0	0	0	476	611
12	0	0	0	0	478	611
13	0	0	0	0	478	612
14	0	0	0	0	479	611
15	0	0	0	0	480	612
0	0	0	0	0	482	612
1	0	0	0	0	484	611
2	0	0	0	0	486	611
3	0	0	0	0	488	611
4	0	0	0	0	491	612
5	0	0	0	0	491	611
6	0	0	0	0	493	612
7	0	0	0	0	494	613
8	0	0	0	0	495	612
9	0	0	0	0	496	613
10	0	0	0	0	497	612
11	0	0	0	0	498	612
12	0	0	0	0	499	612
13	0	0	0	0	500	612
14	0	0	0	0	499	612
15	0	0	0	0	499	613
0	0	0	0	0	498	612
1	0	0	0	0	497	612
2	0	0	0	0	497	612
3	0	0	0	0	497	611
4	0	0	0	0	498	612
5	0	0	0	0	498	612
6	0	0	0	0	498	612
7	0	0	0	0	500	612
8	0	0	0	0	500	612
9	0	0	0	0	500	612
10	0	0	0	0	500	612
11	0	0	0	0	501	612
12	0	0	0	0	501	612
13	0	0	0	0	501	612
14	0	0	0	0	501	613
15	0	0	0	0	501	612
0	0	0	0	0	501	613
1	0	0	0	0	500	614
2	0	0	0	0	499	613
3	0	0	0	0	499	612
4	0	0	0	0	499	613
5	0	0	0	0	499	613
6	0	0	0	0	500	613
7	0	0	0	0	501	613
8	0	0	0	0	502	613
9	0	0	0	0	502	613
10	0	0	0	0	503	613
11	0	0	0	0	504	612
12	0	0	0	0	504	612
13	0	0	0	0	504	612
14	0	0	0	0	504	612
15	0	0	0	0	505	613
0	0	0	0	0	506	613
1	0	0	0	0	507	612
2	0	0	0	0	508	613
3	0	0	0	0	509	611
4	0	0	0	0	510	612
5	0	0	0	0	510	613
6	0	0	0	0	510	612
7	0	0	0	0	511	613
8	0	0	0	0	512	612
9	0	0	0	0	512	612
10	0	0	0	0	512	612
11	0	0	0	0	511	611
12	0	0	0	0	511	612
13	0	0	0	0	509	611
14	0	0	0	0	508	612
15	0	0	0	0	509	612
0	0	0	0	0	508	611
1	0	0	0	0	508	611
2	0	0	0	0	509	611
3	0	0	0	0	510	610
4	0	0	0	0	511	610
5	0	0	0	0	510	610
6	0	0	0	0	510	611
7	0	0	0	0	509	611
8	0	0	0	0	509	611
9	0	0	0	0	509	611
10	0	0	0	0	508	611
11	0	0	0	0	508	609
12	0	0	0	0	507	611
13	0	0	0	0	506	610
14	0	0	0	0	505	610
15	0	0	0	0	504	610
0	0	0	0	0	505	610
1	0	0	0	0	505	610
2	0	0	0	0	505	611
3	0	0	0	0	505	609
4	0	0	0	0	505	610
5	0	0	0	0	507	611
6	0	0	0	0	508	611
7	0	0	0	0	508	611
8	0	0	0	0	509	611
9	0	0	0	0	510	610
10	0	0	0	0	511	611
11	0	0	0	0	511	611
12	0	0	0	0	511	611
13	0	0	0	0	512	611
14	0	0	0	0	512	611
15	0	0	0	0	512	611
0	0	0	0	0	513	611
1	0	0	0	0	514	611
2	0	0	0	0	515	611
3	0	0	0	0	515	610
4	0	0	0	0	516	611
5	0	0	0	0	516	611
6	0	0	0	0	518	611
7	0	0	0	0	518	612
8	0	0	0	0	518	611
9	0	0	0	0	519	611
10	0	0	0	0	519	611
11	0	0	0	0	520	611
12	0	0	0	0	522	611
13	0	0	0	0	522	611
14	0	0	0	0	523	612
15	0	0	0	0	523	611
0	0	0	0	0	523	612
1	0	0	0	0	524	612
2	0	0	0	0	525	611
3	0	0	0	0	526	611
4	0	0	0	0	527	612
5	0	0	0	0	527	612
6	0	0	0	0	528	612
7	0	0	0	0	528	611
8	0	0	0	0	529	612
9	0	0	0	0	529	613
10	0	0	0	0	530	612
11	0	0	0	0	531	611
12	0	0	0	0	531	612
13	0	0	0	0	531	613
14	0	0	0	0	531	612
15	0	0	0	0	531	612
0	0	0	0	0	531	612
1	0	0	0	0	530	611
2	0	0	0	0	531	612
3	0	0	0	0	531	611
4	0	0	0	0	531	612
5	0	0	0	0	531	612
6	0	0	0	0	531	612
7	0	0	0	0	531	613
8	0	0	0	0	531	612
9	0	0	0	0	529	612
10	0	0	0	0	527	612
11	0	0	0	0	525	611
12	0	0	0	0	523	613
13	0	0	0	0	521	612
14	0	0	0	0	520	612
15	0	0	0	0	519	612
0	0	0	0	0	518	612
1	0	0	0	0	517	612
2	0	0	0	0	516	612
3	0	0	0	0	517	611
4	0	0	0	0	517	612
5	0	0	0	0	518	612
6	0	0	0	0	517	612
7	0	0	0	0	517	613
8	0	0	0	0	515	612
9	0	0	0	0	514	612
10	0	0	0	0	513	612
11	0	0	0	0	511	611
12	0	0	0	0	510	612
13	0	0	0	0	509	612
14	0	0	0	0	508	612
15	0	0	0	0	508	612
0	0	0	0	0	508	612
1	0	0	0	0	508	612
2	0	0	0	0	508	612
3	0	0	0	0	507	611
4	0	0	0	0	507	612
5	0	0	0	0	505	612
6	0	0	0	0	504	612
7	0	0	0	0	504	612
8	0	0	0	0	503	611
9	0	0	0	0	502	612
10	0	0	0	0	500	612
11	0	0	0	0	498	611
12	0	0	0	0	496	611
13	0	0	0	0	494	611
14	0	0	0	0	491	612
15	0	0	0	0	487	612
0	0	0	0	0	483	612
1	0	0	0	0	477	611
2	0	0	0	0	472	611
3	0	0	0	0	466	611
4	0	0	0	0	460	611
5	0	0	0	0	454	612
6	0	0	0	0	448	612
7	0	0	0	0	444	612
8	0	0	0	0	439	613
9	0	0	0	0	435	612
10	0	0	0	0	432	612
11	0	0	0	0	428	611
12	0	0	0	0	423	612
13	0	0	0	0	419	611
14	0	0	0	0	416	612
15	0	0	0	0	413	612
0	0	0	0	0	410	611
1	0	0	0	0	408	612
2	0	0	0	0	405	612
3	0	0	0	0	402	611
4	0	0	0	0	399	611
5	0	0	0	0	396	612
6	0	0	0	0	393	611
7	0	0	0	0	390	612
8	0	0	0	0	387	611
9	0	0	0	0	384	611
10	0	0	0	0	382	611
11	0	0	0	0	380	611
12	0	0	0	0	378	612
13	0	0	0	0	377	612
14	0	0	0	0	376	611
15	0	0	0	0	376	611
0	0	0	0	0	376	611
1	0	0	0	0	377	611
2	0	0	0	0	379	611
3	0	0	0	0	380	610
4	0	0	0	0	380	611
5	0	0	0	0	382	611
6	0	0	0	0	382	611
7	0	0	0	0	383	611
8	0	0	0	0	383	611
9	0	0	0	0	383	611
10	0	0	0	0	383	611
11	0	0	0	0	383	610
12	0	0	0	0	383	611
13	0	0	0	0	384	612
14	0	0	0	0	383	612
15	0	0	0	0	383	611
0	0	0	0	0	383	611
1	0	0	0	0	382	611
2	0	0	0	0	383	612
3	0	0	0	0	383	611
4	0	0	0	0	385	611
5	0	0	0	0	387	611
6	0	0	0	0	388	611
7	0	0	0	0	390	611
8	0	0	0	0	392	611
9	0	0	0	0	393	612
10	0	0	0	0	395	612
11	0	0	0	0	396	611
12	0	0	0	0	397	612
13	0	0	0	0	398	612
14	0	0	0	0	400	612
15	0	0	0	0	401	611
0	0	0	0	0	403	612
1	0	0	0	0	404	611
2	0	0	0	0	406	611
3	0	0	0	0	407	611
4	0	0	0	0	408	611
5	0	0	0	0	409	611
6	0	0	0	0	410	611
7	0	0	0	0	410	611
8	0	0	0	0	410	611
9	0	0	0	0	411	611
10	0	0	0	0	412	611
11	0	0	0	0	412	611
12	0	0	0	0	412	611
13	0	0	0	0	411	611
14	0	0	0	0	412	611
15	0	0	0	0	412	611
0	0	0	0	0	412	611
1	0	0	0	0	414	611
2	0	0	0	0	414	611
3	0	0	0	0	415	610
4	0	0	0	0	416	611
5	0	0	0	0	416	611
6	0	0	0	0	416	611
7	0	0	0	0	415	612
8	0	0	0	0	415	611
9	0	0	0	0	415	611
10	0	0	0	0	415	611
11	0	0	0	0	415	611
12	0	0	0	0	416	611
13	0	0	0	0	416	611
14	0	0	0	0	417	612
15	0	0	0	0	417	611
0	0	0	0	0	419	612
1	0	0	0	0	420	612
2	0	0	0	0	421	611
3	0	0	0	0	422	611
4	0	0	0	0	423	612
5	0	0	0	0	425	611
6	0	0	0	0	425	611
7	0	0	0	0	427	611
8	0	0	0	0	429	611
9	0	0	0	0	430	611
10	0	0	0	0	432	611
11	0	0	0	0	434	610
12	0	0	0	0	435	610
13	0	0	0	0	438	611
14	0	0	0	0	440	611
15	0	0	0	0	441	611
0	0	0	0	0	442	612
1	0	0	0	0	444	612
2	0	0	0	0	445	612
3	0	0	0	0	446	611
4	0	0	0	0	447	612
5	0	0	0	0	448	612
6	0	0	0	0	449	612
7	0	0	0	0	451	612
