# OpenSignals Text File Format
# {"98:D3:91:FD:58:3A":{"sensor":["ECGBIT","ACCBITREV"],"device name":"98:D3:91:FD:58:3A","column":["nSeq","I1","I2","O1","O2","A2","A5"],"sync interval":2,"time":"19:41:10","comments":"","device connection":"BTH98:D3:91:FD:58:3A","channels":[2,5],"date":"2021-09-09","mode":0,"digital IO":[0,0,1,1],"firmware version":0,"device":"bitalino_rev","position":0,"sampling rate":1000,"label":["A2","A5"],"resolution":[10,10],"special":[{},{}]}}
# EndOfHeader
0	0	0	0	0	536	623
1	0	0	0	0	536	618
2	0	0	0	0	536	618
3	0	0	0	0	536	618
4	0	0	0	0	535	612
5	0	0	0	0	536	618
6	0	0	0	0	535	617
7	0	0	0	0	535	617
8	0	0	0	0	535	621
9	0	0	0	0	535	616
10	0	0	0	0	534	617
11	0	0	0	0	534	617
12	0	0	0	0	534	612
13	0	0	0	0	534	617
14	0	0	0	0	534	617
15	0	0	0	0	535	617
0	0	0	0	0	534	621
1	0	0	0	0	534	617
2	0	0	0	0	532	617
3	0	0	0	0	532	617
4	0	0	0	0	533	612
5	0	0	0	0	532	617
6	0	0	0	0	532	617
7	0	0	0	0	531	617
8	0	0	0	0	531	621
9	0	0	0	0	531	617
10	0	0	0	0	531	616
11	0	0	0	0	530	617
12	0	0	0	0	531	612
13	0	0	0	0	531	617
14	0	0	0	0	531	617
15	0	0	0	0	531	617
0	0	0	0	0	531	621
1	0	0	0	0	532	616
2	0	0	0	0	531	617
3	0	0	0	0	532	617
4	0	0	0	0	531	612
5	0	0	0	0	531	617
6	0	0	0	0	531	617
7	0	0	0	0	531	618
8	0	0	0	0	530	621
9	0	0	0	0	530	617
10	0	0	0	0	529	617
11	0	0	0	0	529	617
12	0	0	0	0	529	612
13	0	0	0	0	529	617
14	0	0	0	0	528	617
15	0	0	0	0	528	618
0	0	0	0	0	528	621
1	0	0	0	0	529	618
2	0	0	0	0	529	618
3	0	0	0	0	529	618
4	0	0	0	0	529	613
5	0	0	0	0	528	617
6	0	0	0	0	528	618
7	0	0	0	0	528	618
8	0	0	0	0	527	622
9	0	0	0	0	527	618
10	0	0	0	0	527	618
11	0	0	0	0	527	617
12	0	0	0	0	527	613
13	0	0	0	0	526	617
14	0	0	0	0	525	618
15	0	0	0	0	526	618
0	0	0	0	0	526	622
1	0	0	0	0	526	618
2	0	0	0	0	525	618
3	0	0	0	0	525	617
4	0	0	0	0	526	612
5	0	0	0	0	526	617
6	0	0	0	0	525	617
7	0	0	0	0	525	617
8	0	0	0	0	525	622
9	0	0	0	0	525	618
10	0	0	0	0	524	618
11	0	0	0	0	525	617
12	0	0	0	0	524	613
13	0	0	0	0	524	617
14	0	0	0	0	524	618
15	0	0	0	0	524	617
0	0	0	0	0	524	622
1	0	0	0	0	524	617
2	0	0	0	0	523	617
3	0	0	0	0	523	617
4	0	0	0	0	523	612
5	0	0	0	0	523	618
6	0	0	0	0	523	617
7	0	0	0	0	523	617
8	0	0	0	0	523	622
9	0	0	0	0	522	617
10	0	0	0	0	522	617
11	0	0	0	0	521	617
12	0	0	0	0	521	612
13	0	0	0	0	520	616
14	0	0	0	0	519	616
15	0	0	0	0	519	617
0	0	0	0	0	518	622
1	0	0	0	0	518	617
2	0	0	0	0	518	617
3	0	0	0	0	517	616
4	0	0	0	0	516	612
5	0	0	0	0	517	617
6	0	0	0	0	516	617
7	0	0	0	0	515	617
8	0	0	0	0	514	621
9	0	0	0	0	514	617
10	0	0	0	0	513	617
11	0	0	0	0	513	616
12	0	0	0	0	513	612
13	0	0	0	0	513	617
14	0	0	0	0	513	617
15	0	0	0	0	513	617
0	0	0	0	0	512	622
1	0	0	0	0	513	617
2	0	0	0	0	512	617
3	0	0	0	0	513	618
4	0	0	0	0	513	612
5	0	0	0	0	513	617
6	0	0	0	0	513	617
7	0	0	0	0	513	617
8	0	0	0	0	514	622
9	0	0	0	0	514	617
10	0	0	0	0	514	617
11	0	0	0	0	515	617
12	0	0	0	0	516	613
13	0	0	0	0	519	618
14	0	0	0	0	520	617
15	0	0	0	0	522	618
0	0	0	0	0	524	623
1	0	0	0	0	525	617
2	0	0	0	0	525	618
3	0	0	0	0	525	618
4	0	0	0	0	525	613
5	0	0	0	0	525	618
6	0	0	0	0	525	617
7	0	0	0	0	524	618
8	0	0	0	0	524	622
9	0	0	0	0	524	617
10	0	0	0	0	524	617
11	0	0	0	0	523	617
12	0	0	0	0	523	612
13	0	0	0	0	523	617
14	0	0	0	0	522	619
15	0	0	0	0	521	618
0	0	0	0	0	520	622
1	0	0	0	0	519	619
2	0	0	0	0	518	618
3	0	0	0	0	518	619
4	0	0	0	0	516	614
5	0	0	0	0	516	618
6	0	0	0	0	517	619
7	0	0	0	0	518	619
8	0	0	0	0	519	623
9	0	0	0	0	519	618
10	0	0	0	0	520	618
11	0	0	0	0	521	618
12	0	0	0	0	521	613
13	0	0	0	0	520	619
14	0	0	0	0	520	618
15	0	0	0	0	520	619
0	0	0	0	0	519	623
1	0	0	0	0	519	619
2	0	0	0	0	519	619
3	0	0	0	0	518	618
4	0	0	0	0	518	613
5	0	0	0	0	517	619
6	0	0	0	0	517	619
7	0	0	0	0	516	619
8	0	0	0	0	516	623
9	0	0	0	0	516	619
10	0	0	0	0	517	619
11	0	0	0	0	516	619
12	0	0	0	0	517	615
13	0	0	0	0	518	619
14	0	0	0	0	518	619
15	0	0	0	0	518	620
0	0	0	0	0	519	624
1	0	0	0	0	520	619
2	0	0	0	0	520	620
3	0	0	0	0	520	619
4	0	0	0	0	519	615
5	0	0	0	0	519	620
6	0	0	0	0	519	620
7	0	0	0	0	519	620
8	0	0	0	0	518	624
9	0	0	0	0	518	619
10	0	0	0	0	517	619
11	0	0	0	0	517	619
12	0	0	0	0	515	614
13	0	0	0	0	515	619
14	0	0	0	0	514	619
15	0	0	0	0	514	619
0	0	0	0	0	515	623
1	0	0	0	0	515	618
2	0	0	0	0	514	618
3	0	0	0	0	513	618
4	0	0	0	0	512	614
5	0	0	0	0	512	619
6	0	0	0	0	512	618
7	0	0	0	0	511	619
8	0	0	0	0	510	622
9	0	0	0	0	509	617
10	0	0	0	0	509	617
11	0	0	0	0	509	617
12	0	0	0	0	509	612
13	0	0	0	0	509	617
14	0	0	0	0	510	617
15	0	0	0	0	510	617
0	0	0	0	0	511	621
1	0	0	0	0	511	616
2	0	0	0	0	511	617
3	0	0	0	0	511	617
4	0	0	0	0	511	612
5	0	0	0	0	512	616
6	0	0	0	0	512	616
7	0	0	0	0	512	617
8	0	0	0	0	512	621
9	0	0	0	0	513	617
10	0	0	0	0	513	616
11	0	0	0	0	513	616
12	0	0	0	0	513	612
13	0	0	0	0	512	616
14	0	0	0	0	512	617
15	0	0	0	0	512	616
0	0	0	0	0	512	621
1	0	0	0	0	512	616
2	0	0	0	0	512	617
3	0	0	0	0	512	616
4	0	0	0	0	512	611
5	0	0	0	0	510	616
6	0	0	0	0	510	617
7	0	0	0	0	510	617
8	0	0	0	0	510	621
9	0	0	0	0	510	616
10	0	0	0	0	509	616
11	0	0	0	0	508	617
12	0	0	0	0	506	612
13	0	0	0	0	502	617
14	0	0	0	0	496	616
15	0	0	0	0	487	616
0	0	0	0	0	475	621
1	0	0	0	0	462	617
2	0	0	0	0	446	616
3	0	0	0	0	430	616
4	0	0	0	0	415	612
5	0	0	0	0	403	617
6	0	0	0	0	393	616
7	0	0	0	0	383	617
8	0	0	0	0	373	621
9	0	0	0	0	362	617
10	0	0	0	0	352	617
11	0	0	0	0	344	617
12	0	0	0	0	339	613
13	0	0	0	0	333	617
14	0	0	0	0	327	617
15	0	0	0	0	323	618
0	0	0	0	0	321	622
1	0	0	0	0	326	618
2	0	0	0	0	339	618
3	0	0	0	0	357	618
4	0	0	0	0	381	614
5	0	0	0	0	415	619
6	0	0	0	0	458	619
7	0	0	0	0	509	619
8	0	0	0	0	567	623
9	0	0	0	0	631	620
10	0	0	0	0	700	619
11	0	0	0	0	779	619
12	0	0	0	0	862	614
13	0	0	0	0	951	619
14	0	0	0	0	1022	619
15	0	0	0	0	1022	620
0	0	0	0	0	1022	623
1	0	0	0	0	1022	619
2	0	0	0	0	1022	619
3	0	0	0	0	1022	618
4	0	0	0	0	1022	612
5	0	0	0	0	1022	617
6	0	0	0	0	1022	617
7	0	0	0	0	1022	616
8	0	0	0	0	1022	620
9	0	0	0	0	1022	615
10	0	0	0	0	1022	615
11	0	0	0	0	1022	615
12	0	0	0	0	1022	611
13	0	0	0	0	1022	616
14	0	0	0	0	995	615
15	0	0	0	0	967	616
0	0	0	0	0	942	621
1	0	0	0	0	920	617
2	0	0	0	0	900	617
3	0	0	0	0	880	617
4	0	0	0	0	858	613
5	0	0	0	0	833	619
6	0	0	0	0	804	618
7	0	0	0	0	773	620
8	0	0	0	0	738	623
9	0	0	0	0	704	620
10	0	0	0	0	670	620
11	0	0	0	0	640	620
12	0	0	0	0	614	615
13	0	0	0	0	588	620
14	0	0	0	0	564	620
15	0	0	0	0	542	620
0	0	0	0	0	521	623
1	0	0	0	0	504	620
2	0	0	0	0	486	619
3	0	0	0	0	469	619
4	0	0	0	0	454	614
5	0	0	0	0	439	619
6	0	0	0	0	426	618
7	0	0	0	0	414	618
8	0	0	0	0	403	622
9	0	0	0	0	393	618
10	0	0	0	0	383	617
11	0	0	0	0	375	618
12	0	0	0	0	367	613
13	0	0	0	0	360	617
14	0	0	0	0	353	617
15	0	0	0	0	348	617
0	0	0	0	0	342	622
1	0	0	0	0	336	617
2	0	0	0	0	331	618
3	0	0	0	0	327	617
4	0	0	0	0	325	611
5	0	0	0	0	323	618
6	0	0	0	0	321	617
7	0	0	0	0	320	618
8	0	0	0	0	319	622
9	0	0	0	0	318	617
10	0	0	0	0	317	617
11	0	0	0	0	317	617
12	0	0	0	0	317	612
13	0	0	0	0	317	617
14	0	0	0	0	316	617
15	0	0	0	0	316	617
0	0	0	0	0	316	622
1	0	0	0	0	316	617
2	0	0	0	0	316	617
3	0	0	0	0	316	617
4	0	0	0	0	316	612
5	0	0	0	0	316	617
6	0	0	0	0	317	617
7	0	0	0	0	318	617
8	0	0	0	0	319	621
9	0	0	0	0	321	617
10	0	0	0	0	322	617
11	0	0	0	0	323	617
12	0	0	0	0	325	612
13	0	0	0	0	326	618
14	0	0	0	0	327	618
15	0	0	0	0	329	618
0	0	0	0	0	330	622
1	0	0	0	0	331	617
2	0	0	0	0	332	617
3	0	0	0	0	332	618
4	0	0	0	0	334	613
5	0	0	0	0	335	617
6	0	0	0	0	336	618
7	0	0	0	0	337	619
8	0	0	0	0	338	623
9	0	0	0	0	339	618
10	0	0	0	0	340	618
11	0	0	0	0	341	618
12	0	0	0	0	342	612
13	0	0	0	0	344	618
14	0	0	0	0	345	618
15	0	0	0	0	347	617
0	0	0	0	0	348	622
1	0	0	0	0	349	618
2	0	0	0	0	350	618
3	0	0	0	0	351	617
4	0	0	0	0	352	612
5	0	0	0	0	354	617
6	0	0	0	0	354	617
7	0	0	0	0	355	618
8	0	0	0	0	356	622
9	0	0	0	0	357	618
10	0	0	0	0	358	618
11	0	0	0	0	359	618
12	0	0	0	0	359	614
13	0	0	0	0	360	618
14	0	0	0	0	362	619
15	0	0	0	0	363	620
0	0	0	0	0	364	623
1	0	0	0	0	366	619
2	0	0	0	0	366	617
3	0	0	0	0	367	618
4	0	0	0	0	368	613
5	0	0	0	0	369	618
6	0	0	0	0	370	619
7	0	0	0	0	371	618
8	0	0	0	0	372	622
9	0	0	0	0	373	619
10	0	0	0	0	373	618
11	0	0	0	0	374	618
12	0	0	0	0	374	613
13	0	0	0	0	375	618
14	0	0	0	0	375	618
15	0	0	0	0	376	617
0	0	0	0	0	377	622
1	0	0	0	0	378	617
2	0	0	0	0	378	617
3	0	0	0	0	379	617
4	0	0	0	0	380	612
5	0	0	0	0	380	617
6	0	0	0	0	381	617
7	0	0	0	0	382	618
8	0	0	0	0	383	622
9	0	0	0	0	383	618
10	0	0	0	0	383	618
11	0	0	0	0	383	618
12	0	0	0	0	383	614
13	0	0	0	0	383	619
14	0	0	0	0	383	618
15	0	0	0	0	383	618
0	0	0	0	0	383	622
1	0	0	0	0	382	618
2	0	0	0	0	382	618
3	0	0	0	0	382	618
4	0	0	0	0	382	613
5	0	0	0	0	381	618
6	0	0	0	0	381	618
7	0	0	0	0	381	618
8	0	0	0	0	382	622
9	0	0	0	0	382	617
10	0	0	0	0	382	617
11	0	0	0	0	382	617
12	0	0	0	0	382	612
13	0	0	0	0	381	617
14	0	0	0	0	381	617
15	0	0	0	0	381	616
0	0	0	0	0	380	621
1	0	0	0	0	380	617
2	0	0	0	0	380	616
3	0	0	0	0	380	617
4	0	0	0	0	380	612
5	0	0	0	0	380	616
6	0	0	0	0	380	617
7	0	0	0	0	380	617
8	0	0	0	0	379	622
9	0	0	0	0	378	617
10	0	0	0	0	377	617
11	0	0	0	0	377	616
12	0	0	0	0	377	611
13	0	0	0	0	377	617
14	0	0	0	0	376	616
15	0	0	0	0	375	617
0	0	0	0	0	374	621
1	0	0	0	0	374	616
2	0	0	0	0	374	617
3	0	0	0	0	374	617
4	0	0	0	0	374	612
5	0	0	0	0	373	618
6	0	0	0	0	372	617
7	0	0	0	0	373	619
8	0	0	0	0	372	622
9	0	0	0	0	372	618
10	0	0	0	0	372	618
11	0	0	0	0	372	618
12	0	0	0	0	372	614
13	0	0	0	0	372	619
14	0	0	0	0	371	619
15	0	0	0	0	372	619
0	0	0	0	0	372	623
1	0	0	0	0	372	619
2	0	0	0	0	373	619
3	0	0	0	0	374	619
4	0	0	0	0	375	614
5	0	0	0	0	376	619
6	0	0	0	0	377	619
7	0	0	0	0	379	619
8	0	0	0	0	380	623
9	0	0	0	0	383	618
10	0	0	0	0	384	619
11	0	0	0	0	387	618
12	0	0	0	0	390	613
13	0	0	0	0	392	618
14	0	0	0	0	394	618
15	0	0	0	0	396	618
0	0	0	0	0	398	622
1	0	0	0	0	400	618
2	0	0	0	0	402	618
3	0	0	0	0	405	617
4	0	0	0	0	408	612
5	0	0	0	0	410	617
6	0	0	0	0	411	617
7	0	0	0	0	413	617
8	0	0	0	0	416	622
9	0	0	0	0	418	616
10	0	0	0	0	421	617
11	0	0	0	0	423	617
12	0	0	0	0	427	612
13	0	0	0	0	430	617
14	0	0	0	0	432	617
15	0	0	0	0	436	618
0	0	0	0	0	440	621
1	0	0	0	0	443	617
2	0	0	0	0	447	617
3	0	0	0	0	450	617
4	0	0	0	0	454	612
5	0	0	0	0	457	617
6	0	0	0	0	462	617
7	0	0	0	0	465	618
8	0	0	0	0	469	622
9	0	0	0	0	473	618
10	0	0	0	0	478	617
11	0	0	0	0	481	617
12	0	0	0	0	485	611
13	0	0	0	0	489	616
14	0	0	0	0	493	617
15	0	0	0	0	497	617
0	0	0	0	0	501	622
1	0	0	0	0	504	617
2	0	0	0	0	508	616
3	0	0	0	0	512	617
4	0	0	0	0	516	612
5	0	0	0	0	521	617
6	0	0	0	0	524	618
7	0	0	0	0	528	618
8	0	0	0	0	531	622
9	0	0	0	0	534	618
10	0	0	0	0	537	618
11	0	0	0	0	540	618
12	0	0	0	0	543	612
13	0	0	0	0	546	619
14	0	0	0	0	549	618
15	0	0	0	0	551	619
0	0	0	0	0	554	623
1	0	0	0	0	556	618
2	0	0	0	0	558	618
3	0	0	0	0	560	619
4	0	0	0	0	562	614
5	0	0	0	0	564	619
6	0	0	0	0	566	618
7	0	0	0	0	569	619
8	0	0	0	0	571	622
9	0	0	0	0	573	618
10	0	0	0	0	575	618
11	0	0	0	0	577	618
12	0	0	0	0	578	614
13	0	0	0	0	579	618
14	0	0	0	0	580	618
15	0	0	0	0	582	618
0	0	0	0	0	583	622
1	0	0	0	0	583	618
2	0	0	0	0	584	618
3	0	0	0	0	586	618
4	0	0	0	0	587	613
5	0	0	0	0	588	619
6	0	0	0	0	589	619
7	0	0	0	0	589	617
8	0	0	0	0	590	622
9	0	0	0	0	591	618
10	0	0	0	0	591	618
11	0	0	0	0	592	618
12	0	0	0	0	592	614
13	0	0	0	0	592	618
14	0	0	0	0	593	618
15	0	0	0	0	593	617
0	0	0	0	0	593	623
1	0	0	0	0	592	618
2	0	0	0	0	591	617
3	0	0	0	0	592	617
4	0	0	0	0	592	612
5	0	0	0	0	592	617
6	0	0	0	0	591	617
7	0	0	0	0	591	617
8	0	0	0	0	591	622
9	0	0	0	0	591	617
10	0	0	0	0	590	617
11	0	0	0	0	590	617
12	0	0	0	0	589	612
13	0	0	0	0	588	617
14	0	0	0	0	588	617
15	0	0	0	0	588	617
0	0	0	0	0	587	621
1	0	0	0	0	587	618
2	0	0	0	0	587	618
3	0	0	0	0	585	618
4	0	0	0	0	584	613
5	0	0	0	0	583	619
6	0	0	0	0	583	618
7	0	0	0	0	583	619
8	0	0	0	0	582	622
9	0	0	0	0	581	619
10	0	0	0	0	579	618
11	0	0	0	0	579	618
12	0	0	0	0	577	613
13	0	0	0	0	576	618
14	0	0	0	0	575	619
15	0	0	0	0	575	618
0	0	0	0	0	574	623
1	0	0	0	0	574	619
2	0	0	0	0	573	618
3	0	0	0	0	573	618
4	0	0	0	0	573	613
5	0	0	0	0	572	617
6	0	0	0	0	571	618
7	0	0	0	0	571	618
8	0	0	0	0	571	623
9	0	0	0	0	570	617
10	0	0	0	0	568	617
11	0	0	0	0	567	617
12	0	0	0	0	567	612
13	0	0	0	0	566	617
14	0	0	0	0	564	617
15	0	0	0	0	563	618
0	0	0	0	0	562	621
1	0	0	0	0	561	616
2	0	0	0	0	561	616
3	0	0	0	0	560	617
4	0	0	0	0	559	611
5	0	0	0	0	558	617
6	0	0	0	0	557	616
7	0	0	0	0	556	617
8	0	0	0	0	555	621
9	0	0	0	0	553	617
10	0	0	0	0	552	617
11	0	0	0	0	551	616
12	0	0	0	0	550	611
13	0	0	0	0	549	617
14	0	0	0	0	548	617
15	0	0	0	0	547	617
0	0	0	0	0	546	621
1	0	0	0	0	545	617
2	0	0	0	0	544	617
3	0	0	0	0	543	617
4	0	0	0	0	543	613
5	0	0	0	0	543	617
6	0	0	0	0	542	618
7	0	0	0	0	541	618
8	0	0	0	0	540	622
9	0	0	0	0	540	618
10	0	0	0	0	540	618
11	0	0	0	0	539	618
12	0	0	0	0	538	613
13	0	0	0	0	538	618
14	0	0	0	0	537	618
15	0	0	0	0	537	618
0	0	0	0	0	537	623
1	0	0	0	0	536	618
2	0	0	0	0	536	618
3	0	0	0	0	536	619
4	0	0	0	0	534	613
5	0	0	0	0	534	618
6	0	0	0	0	534	618
7	0	0	0	0	533	618
8	0	0	0	0	532	623
9	0	0	0	0	531	618
10	0	0	0	0	531	618
11	0	0	0	0	530	618
12	0	0	0	0	530	613
13	0	0	0	0	528	618
14	0	0	0	0	528	617
15	0	0	0	0	528	618
0	0	0	0	0	527	621
1	0	0	0	0	527	617
2	0	0	0	0	527	617
3	0	0	0	0	526	617
4	0	0	0	0	526	612
5	0	0	0	0	526	617
6	0	0	0	0	526	618
7	0	0	0	0	526	617
8	0	0	0	0	527	622
9	0	0	0	0	527	617
10	0	0	0	0	527	617
11	0	0	0	0	527	617
12	0	0	0	0	527	612
13	0	0	0	0	527	617
14	0	0	0	0	527	617
15	0	0	0	0	527	617
0	0	0	0	0	526	622
1	0	0	0	0	526	617
2	0	0	0	0	526	617
3	0	0	0	0	526	617
4	0	0	0	0	526	612
5	0	0	0	0	527	618
6	0	0	0	0	527	618
7	0	0	0	0	527	618
8	0	0	0	0	527	622
9	0	0	0	0	527	617
10	0	0	0	0	528	617
11	0	0	0	0	528	617
12	0	0	0	0	527	612
13	0	0	0	0	527	617
14	0	0	0	0	527	617
15	0	0	0	0	528	617
0	0	0	0	0	528	622
1	0	0	0	0	528	617
2	0	0	0	0	528	617
3	0	0	0	0	528	618
4	0	0	0	0	528	612
5	0	0	0	0	529	617
6	0	0	0	0	529	617
7	0	0	0	0	529	618
8	0	0	0	0	528	622
9	0	0	0	0	529	618
10	0	0	0	0	528	618
11	0	0	0	0	528	618
12	0	0	0	0	529	613
13	0	0	0	0	528	618
14	0	0	0	0	527	618
15	0	0	0	0	527	619
0	0	0	0	0	527	622
1	0	0	0	0	528	619
2	0	0	0	0	528	619
3	0	0	0	0	528	618
4	0	0	0	0	528	613
5	0	0	0	0	529	619
6	0	0	0	0	528	619
7	0	0	0	0	528	619
8	0	0	0	0	528	622
9	0	0	0	0	527	619
10	0	0	0	0	527	618
11	0	0	0	0	527	619
12	0	0	0	0	527	614
13	0	0	0	0	527	619
14	0	0	0	0	527	618
15	0	0	0	0	527	618
0	0	0	0	0	527	622
1	0	0	0	0	527	617
2	0	0	0	0	527	618
3	0	0	0	0	527	617
4	0	0	0	0	527	612
5	0	0	0	0	528	618
6	0	0	0	0	528	617
7	0	0	0	0	529	618
8	0	0	0	0	528	622
9	0	0	0	0	528	618
10	0	0	0	0	527	619
11	0	0	0	0	527	618
12	0	0	0	0	527	613
13	0	0	0	0	528	617
14	0	0	0	0	529	618
15	0	0	0	0	529	618
0	0	0	0	0	530	622
1	0	0	0	0	530	617
2	0	0	0	0	531	617
3	0	0	0	0	530	617
4	0	0	0	0	530	612
5	0	0	0	0	530	618
6	0	0	0	0	531	617
7	0	0	0	0	530	617
8	0	0	0	0	529	621
9	0	0	0	0	529	617
10	0	0	0	0	529	616
11	0	0	0	0	529	617
12	0	0	0	0	529	612
13	0	0	0	0	528	616
14	0	0	0	0	528	617
15	0	0	0	0	528	617
0	0	0	0	0	528	621
1	0	0	0	0	528	617
2	0	0	0	0	527	617
3	0	0	0	0	528	617
4	0	0	0	0	527	612
5	0	0	0	0	527	617
6	0	0	0	0	527	618
7	0	0	0	0	528	617
8	0	0	0	0	528	622
9	0	0	0	0	528	617
10	0	0	0	0	528	618
11	0	0	0	0	528	617
12	0	0	0	0	528	613
13	0	0	0	0	528	617
14	0	0	0	0	528	617
15	0	0	0	0	529	618
0	0	0	0	0	529	622
1	0	0	0	0	529	618
2	0	0	0	0	528	618
3	0	0	0	0	528	617
4	0	0	0	0	528	613
5	0	0	0	0	527	618
6	0	0	0	0	527	617
7	0	0	0	0	527	618
8	0	0	0	0	526	622
9	0	0	0	0	526	618
10	0	0	0	0	526	618
11	0	0	0	0	526	618
12	0	0	0	0	526	614
13	0	0	0	0	525	619
14	0	0	0	0	526	618
15	0	0	0	0	526	618
0	0	0	0	0	526	622
1	0	0	0	0	527	618
2	0	0	0	0	527	618
3	0	0	0	0	527	619
4	0	0	0	0	527	614
5	0	0	0	0	527	618
6	0	0	0	0	526	619
7	0	0	0	0	526	618
8	0	0	0	0	526	623
9	0	0	0	0	526	617
10	0	0	0	0	526	617
11	0	0	0	0	526	617
12	0	0	0	0	525	612
13	0	0	0	0	525	618
14	0	0	0	0	524	618
15	0	0	0	0	524	618
0	0	0	0	0	524	622
1	0	0	0	0	524	618
2	0	0	0	0	524	618
3	0	0	0	0	523	617
4	0	0	0	0	523	613
5	0	0	0	0	522	618
6	0	0	0	0	521	618
7	0	0	0	0	521	619
8	0	0	0	0	521	623
9	0	0	0	0	520	619
10	0	0	0	0	520	619
11	0	0	0	0	519	618
12	0	0	0	0	519	613
13	0	0	0	0	519	617
14	0	0	0	0	519	618
15	0	0	0	0	519	619
0	0	0	0	0	519	623
1	0	0	0	0	520	618
2	0	0	0	0	521	618
3	0	0	0	0	521	618
4	0	0	0	0	521	613
5	0	0	0	0	522	618
6	0	0	0	0	523	618
7	0	0	0	0	522	617
8	0	0	0	0	522	622
9	0	0	0	0	522	618
10	0	0	0	0	520	618
11	0	0	0	0	521	618
12	0	0	0	0	520	613
13	0	0	0	0	520	618
14	0	0	0	0	519	618
15	0	0	0	0	519	618
0	0	0	0	0	519	622
1	0	0	0	0	519	618
2	0	0	0	0	518	617
3	0	0	0	0	518	619
4	0	0	0	0	518	612
5	0	0	0	0	518	618
6	0	0	0	0	519	618
7	0	0	0	0	518	618
8	0	0	0	0	517	622
9	0	0	0	0	518	618
10	0	0	0	0	518	617
11	0	0	0	0	517	617
12	0	0	0	0	518	612
13	0	0	0	0	518	617
14	0	0	0	0	518	617
15	0	0	0	0	518	617
0	0	0	0	0	518	622
1	0	0	0	0	519	617
2	0	0	0	0	518	617
3	0	0	0	0	518	617
4	0	0	0	0	518	612
5	0	0	0	0	518	617
6	0	0	0	0	518	617
7	0	0	0	0	518	618
8	0	0	0	0	518	621
9	0	0	0	0	519	617
10	0	0	0	0	519	616
11	0	0	0	0	519	617
12	0	0	0	0	518	613
13	0	0	0	0	517	617
14	0	0	0	0	517	617
15	0	0	0	0	516	618
0	0	0	0	0	516	622
1	0	0	0	0	516	617
2	0	0	0	0	516	618
3	0	0	0	0	515	618
4	0	0	0	0	515	612
5	0	0	0	0	515	617
6	0	0	0	0	515	617
7	0	0	0	0	515	618
8	0	0	0	0	515	623
9	0	0	0	0	515	619
10	0	0	0	0	514	619
11	0	0	0	0	513	619
12	0	0	0	0	513	614
13	0	0	0	0	512	619
14	0	0	0	0	512	619
15	0	0	0	0	510	619
0	0	0	0	0	510	623
1	0	0	0	0	509	619
2	0	0	0	0	510	619
3	0	0	0	0	509	619
4	0	0	0	0	509	613
5	0	0	0	0	508	619
6	0	0	0	0	508	618
7	0	0	0	0	508	618
8	0	0	0	0	508	622
9	0	0	0	0	509	617
10	0	0	0	0	508	618
11	0	0	0	0	508	617
12	0	0	0	0	508	612
13	0	0	0	0	508	617
14	0	0	0	0	508	617
15	0	0	0	0	509	618
0	0	0	0	0	510	622
1	0	0	0	0	511	617
2	0	0	0	0	511	617
3	0	0	0	0	512	617
4	0	0	0	0	513	612
5	0	0	0	0	513	616
6	0	0	0	0	514	617
7	0	0	0	0	515	617
8	0	0	0	0	516	621
9	0	0	0	0	518	617
10	0	0	0	0	519	617
11	0	0	0	0	520	617
12	0	0	0	0	521	612
13	0	0	0	0	522	616
14	0	0	0	0	523	617
15	0	0	0	0	523	617
0	0	0	0	0	523	622
1	0	0	0	0	524	617
2	0	0	0	0	524	617
3	0	0	0	0	523	617
4	0	0	0	0	523	612
5	0	0	0	0	523	617
6	0	0	0	0	523	617
7	0	0	0	0	523	617
8	0	0	0	0	523	621
9	0	0	0	0	523	617
10	0	0	0	0	523	617
11	0	0	0	0	523	618
12	0	0	0	0	522	613
13	0	0	0	0	522	618
14	0	0	0	0	521	618
15	0	0	0	0	520	617
0	0	0	0	0	519	622
1	0	0	0	0	517	618
2	0	0	0	0	517	618
3	0	0	0	0	516	619
4	0	0	0	0	517	614
5	0	0	0	0	518	619
6	0	0	0	0	518	618
7	0	0	0	0	519	619
8	0	0	0	0	519	622
9	0	0	0	0	520	619
10	0	0	0	0	520	619
11	0	0	0	0	519	618
12	0	0	0	0	520	614
13	0	0	0	0	519	619
14	0	0	0	0	519	619
15	0	0	0	0	519	619
0	0	0	0	0	519	623
1	0	0	0	0	519	619
2	0	0	0	0	519	619
3	0	0	0	0	519	618
4	0	0	0	0	519	613
5	0	0	0	0	519	618
6	0	0	0	0	519	618
7	0	0	0	0	519	618
8	0	0	0	0	519	622
9	0	0	0	0	519	618
10	0	0	0	0	519	618
11	0	0	0	0	520	618
12	0	0	0	0	519	613
13	0	0	0	0	519	618
14	0	0	0	0	520	617
15	0	0	0	0	519	618
0	0	0	0	0	519	622
1	0	0	0	0	519	618
2	0	0	0	0	518	619
3	0	0	0	0	517	618
4	0	0	0	0	516	613
5	0	0	0	0	515	618
6	0	0	0	0	515	619
7	0	0	0	0	515	619
8	0	0	0	0	515	622
9	0	0	0	0	515	619
10	0	0	0	0	515	618
11	0	0	0	0	514	619
12	0	0	0	0	515	614
13	0	0	0	0	515	618
14	0	0	0	0	515	618
15	0	0	0	0	516	619
0	0	0	0	0	517	622
1	0	0	0	0	516	619
2	0	0	0	0	516	618
3	0	0	0	0	516	617
4	0	0	0	0	516	613
5	0	0	0	0	516	618
6	0	0	0	0	516	618
7	0	0	0	0	516	618
8	0	0	0	0	516	622
9	0	0	0	0	516	617
10	0	0	0	0	516	617
11	0	0	0	0	515	617
12	0	0	0	0	515	612
13	0	0	0	0	514	617
14	0	0	0	0	515	617
15	0	0	0	0	515	617
0	0	0	0	0	515	621
1	0	0	0	0	515	616
2	0	0	0	0	515	617
3	0	0	0	0	514	616
4	0	0	0	0	514	611
5	0	0	0	0	513	616
6	0	0	0	0	513	617
7	0	0	0	0	512	617
8	0	0	0	0	512	621
9	0	0	0	0	512	616
10	0	0	0	0	512	616
11	0	0	0	0	511	616
12	0	0	0	0	511	612
13	0	0	0	0	511	617
14	0	0	0	0	511	617
15	0	0	0	0	510	616
0	0	0	0	0	510	621
1	0	0	0	0	511	617
2	0	0	0	0	511	617
3	0	0	0	0	511	617
4	0	0	0	0	510	611
5	0	0	0	0	510	617
6	0	0	0	0	510	617
7	0	0	0	0	510	619
8	0	0	0	0	508	622
9	0	0	0	0	505	617
10	0	0	0	0	501	618
11	0	0	0	0	495	617
12	0	0	0	0	484	613
13	0	0	0	0	472	617
14	0	0	0	0	457	617
15	0	0	0	0	441	617
0	0	0	0	0	426	622
1	0	0	0	0	412	618
2	0	0	0	0	401	618
3	0	0	0	0	390	617
4	0	0	0	0	380	612
5	0	0	0	0	370	617
6	0	0	0	0	359	618
7	0	0	0	0	348	618
8	0	0	0	0	341	623
9	0	0	0	0	336	618
10	0	0	0	0	330	618
11	0	0	0	0	325	619
12	0	0	0	0	321	613
13	0	0	0	0	320	619
14	0	0	0	0	326	618
15	0	0	0	0	339	619
0	0	0	0	0	357	623
1	0	0	0	0	382	619
2	0	0	0	0	420	618
3	0	0	0	0	467	619
4	0	0	0	0	522	613
5	0	0	0	0	582	618
6	0	0	0	0	647	618
7	0	0	0	0	720	618
8	0	0	0	0	800	622
9	0	0	0	0	886	617
10	0	0	0	0	977	618
11	0	0	0	0	1022	618
12	0	0	0	0	1022	613
13	0	0	0	0	1022	618
14	0	0	0	0	1022	618
15	0	0	0	0	1022	618
0	0	0	0	0	1022	622
1	0	0	0	0	1022	618
2	0	0	0	0	1022	619
3	0	0	0	0	1022	618
4	0	0	0	0	1022	614
5	0	0	0	0	1022	618
6	0	0	0	0	1022	618
7	0	0	0	0	1022	619
8	0	0	0	0	1022	621
9	0	0	0	0	1022	617
10	0	0	0	0	1022	616
11	0	0	0	0	1014	617
12	0	0	0	0	982	612
13	0	0	0	0	957	617
14	0	0	0	0	933	617
15	0	0	0	0	911	617
0	0	0	0	0	891	621
1	0	0	0	0	868	616
2	0	0	0	0	841	616
3	0	0	0	0	811	617
4	0	0	0	0	777	611
5	0	0	0	0	743	617
6	0	0	0	0	707	617
7	0	0	0	0	671	617
8	0	0	0	0	639	621
9	0	0	0	0	612	617
10	0	0	0	0	586	617
11	0	0	0	0	562	617
12	0	0	0	0	540	611
13	0	0	0	0	519	617
14	0	0	0	0	500	617
15	0	0	0	0	482	617
0	0	0	0	0	464	621
1	0	0	0	0	449	617
2	0	0	0	0	434	617
3	0	0	0	0	420	617
4	0	0	0	0	408	613
5	0	0	0	0	398	618
6	0	0	0	0	388	618
7	0	0	0	0	380	619
8	0	0	0	0	371	622
9	0	0	0	0	363	618
10	0	0	0	0	355	618
11	0	0	0	0	349	618
12	0	0	0	0	343	614
13	0	0	0	0	337	619
14	0	0	0	0	332	619
15	0	0	0	0	328	619
0	0	0	0	0	324	622
1	0	0	0	0	321	619
2	0	0	0	0	319	619
3	0	0	0	0	318	619
4	0	0	0	0	317	614
5	0	0	0	0	316	619
6	0	0	0	0	316	619
7	0	0	0	0	316	619
8	0	0	0	0	316	623
9	0	0	0	0	316	618
10	0	0	0	0	315	618
11	0	0	0	0	315	618
12	0	0	0	0	315	612
13	0	0	0	0	315	618
14	0	0	0	0	315	617
15	0	0	0	0	316	618
0	0	0	0	0	316	622
1	0	0	0	0	316	618
2	0	0	0	0	317	618
3	0	0	0	0	318	617
4	0	0	0	0	319	612
5	0	0	0	0	319	618
6	0	0	0	0	321	618
7	0	0	0	0	322	618
8	0	0	0	0	322	622
9	0	0	0	0	323	617
10	0	0	0	0	323	618
11	0	0	0	0	325	618
12	0	0	0	0	326	613
13	0	0	0	0	327	618
14	0	0	0	0	328	618
15	0	0	0	0	329	619
0	0	0	0	0	329	622
1	0	0	0	0	331	618
2	0	0	0	0	332	618
3	0	0	0	0	334	618
4	0	0	0	0	335	613
5	0	0	0	0	337	619
6	0	0	0	0	339	618
7	0	0	0	0	340	618
8	0	0	0	0	341	622
9	0	0	0	0	342	618
10	0	0	0	0	343	618
11	0	0	0	0	345	618
12	0	0	0	0	347	613
13	0	0	0	0	348	618
14	0	0	0	0	349	618
15	0	0	0	0	350	619
0	0	0	0	0	352	622
1	0	0	0	0	352	618
2	0	0	0	0	353	617
3	0	0	0	0	354	617
4	0	0	0	0	355	612
5	0	0	0	0	355	619
6	0	0	0	0	356	619
7	0	0	0	0	358	619
8	0	0	0	0	359	624
9	0	0	0	0	360	618
10	0	0	0	0	361	619
11	0	0	0	0	362	618
12	0	0	0	0	364	614
13	0	0	0	0	364	620
14	0	0	0	0	364	619
15	0	0	0	0	365	620
0	0	0	0	0	366	623
1	0	0	0	0	367	619
2	0	0	0	0	368	619
3	0	0	0	0	369	619
4	0	0	0	0	370	614
5	0	0	0	0	370	619
6	0	0	0	0	371	619
7	0	0	0	0	371	620
8	0	0	0	0	372	623
9	0	0	0	0	372	618
10	0	0	0	0	372	618
11	0	0	0	0	373	617
12	0	0	0	0	373	614
13	0	0	0	0	373	618
14	0	0	0	0	373	617
15	0	0	0	0	373	617
0	0	0	0	0	373	622
1	0	0	0	0	374	617
2	0	0	0	0	374	617
3	0	0	0	0	373	617
4	0	0	0	0	374	612
5	0	0	0	0	373	616
6	0	0	0	0	374	616
7	0	0	0	0	374	617
8	0	0	0	0	374	621
9	0	0	0	0	374	617
10	0	0	0	0	374	617
11	0	0	0	0	375	617
12	0	0	0	0	374	611
13	0	0	0	0	374	616
14	0	0	0	0	374	617
15	0	0	0	0	374	617
0	0	0	0	0	373	621
1	0	0	0	0	373	617
2	0	0	0	0	373	616
3	0	0	0	0	372	618
4	0	0	0	0	372	611
5	0	0	0	0	372	617
6	0	0	0	0	372	617
7	0	0	0	0	372	617
8	0	0	0	0	372	622
9	0	0	0	0	372	617
10	0	0	0	0	372	617
11	0	0	0	0	371	617
12	0	0	0	0	371	613
13	0	0	0	0	371	617
14	0	0	0	0	371	617
15	0	0	0	0	370	618
0	0	0	0	0	369	622
1	0	0	0	0	369	618
2	0	0	0	0	368	618
3	0	0	0	0	367	617
4	0	0	0	0	366	613
5	0	0	0	0	365	618
6	0	0	0	0	365	618
7	0	0	0	0	364	618
8	0	0	0	0	364	622
9	0	0	0	0	364	618
10	0	0	0	0	363	617
11	0	0	0	0	363	618
12	0	0	0	0	362	613
13	0	0	0	0	361	617
14	0	0	0	0	361	618
15	0	0	0	0	360	619
0	0	0	0	0	359	623
1	0	0	0	0	359	618
2	0	0	0	0	358	618
3	0	0	0	0	358	618
4	0	0	0	0	357	614
5	0	0	0	0	356	617
6	0	0	0	0	357	618
7	0	0	0	0	357	617
8	0	0	0	0	357	622
9	0	0	0	0	357	618
10	0	0	0	0	357	617
11	0	0	0	0	357	617
12	0	0	0	0	357	613
13	0	0	0	0	358	618
14	0	0	0	0	359	617
15	0	0	0	0	360	618
0	0	0	0	0	361	622
1	0	0	0	0	363	618
2	0	0	0	0	364	617
3	0	0	0	0	366	617
4	0	0	0	0	368	612
5	0	0	0	0	369	617
6	0	0	0	0	371	617
7	0	0	0	0	372	618
8	0	0	0	0	374	622
9	0	0	0	0	376	617
10	0	0	0	0	378	617
11	0	0	0	0	380	617
12	0	0	0	0	382	613
13	0	0	0	0	385	617
14	0	0	0	0	387	618
15	0	0	0	0	390	618
0	0	0	0	0	392	621
1	0	0	0	0	395	618
2	0	0	0	0	396	617
3	0	0	0	0	399	618
4	0	0	0	0	402	612
5	0	0	0	0	404	617
6	0	0	0	0	407	618
7	0	0	0	0	410	617
8	0	0	0	0	414	622
9	0	0	0	0	417	618
10	0	0	0	0	419	618
11	0	0	0	0	423	619
12	0	0	0	0	427	613
13	0	0	0	0	431	618
14	0	0	0	0	435	618
15	0	0	0	0	439	619
0	0	0	0	0	443	623
1	0	0	0	0	447	619
2	0	0	0	0	451	618
3	0	0	0	0	455	619
4	0	0	0	0	459	614
5	0	0	0	0	463	619
6	0	0	0	0	469	619
7	0	0	0	0	474	619
8	0	0	0	0	479	623
9	0	0	0	0	484	619
10	0	0	0	0	489	619
11	0	0	0	0	493	619
12	0	0	0	0	497	614
13	0	0	0	0	501	618
14	0	0	0	0	505	618
15	0	0	0	0	509	619
0	0	0	0	0	513	622
1	0	0	0	0	516	619
2	0	0	0	0	520	619
3	0	0	0	0	525	618
4	0	0	0	0	529	613
5	0	0	0	0	534	617
6	0	0	0	0	537	617
7	0	0	0	0	541	618
8	0	0	0	0	545	622
9	0	0	0	0	548	617
10	0	0	0	0	552	617
11	0	0	0	0	555	617
12	0	0	0	0	558	612
13	0	0	0	0	561	617
14	0	0	0	0	563	617
15	0	0	0	0	567	617
0	0	0	0	0	569	621
1	0	0	0	0	572	617
2	0	0	0	0	575	617
3	0	0	0	0	577	617
4	0	0	0	0	579	612
5	0	0	0	0	580	617
6	0	0	0	0	582	617
7	0	0	0	0	584	617
8	0	0	0	0	585	621
9	0	0	0	0	588	617
10	0	0	0	0	589	617
11	0	0	0	0	591	617
12	0	0	0	0	591	612
13	0	0	0	0	592	617
14	0	0	0	0	593	616
15	0	0	0	0	594	617
0	0	0	0	0	596	621
1	0	0	0	0	597	617
2	0	0	0	0	598	617
3	0	0	0	0	599	617
4	0	0	0	0	600	612
5	0	0	0	0	601	617
6	0	0	0	0	602	618
7	0	0	0	0	602	618
8	0	0	0	0	603	623
9	0	0	0	0	604	619
10	0	0	0	0	604	619
11	0	0	0	0	604	619
12	0	0	0	0	604	614
13	0	0	0	0	604	619
14	0	0	0	0	605	619
15	0	0	0	0	605	619
0	0	0	0	0	604	624
1	0	0	0	0	604	620
2	0	0	0	0	604	620
3	0	0	0	0	604	619
4	0	0	0	0	604	614
5	0	0	0	0	603	619
6	0	0	0	0	603	619
7	0	0	0	0	603	619
8	0	0	0	0	603	623
9	0	0	0	0	603	620
10	0	0	0	0	602	618
11	0	0	0	0	601	619
12	0	0	0	0	601	614
13	0	0	0	0	600	619
14	0	0	0	0	600	619
15	0	0	0	0	599	619
0	0	0	0	0	598	623
1	0	0	0	0	598	619
2	0	0	0	0	597	618
3	0	0	0	0	597	618
4	0	0	0	0	596	612
5	0	0	0	0	596	618
6	0	0	0	0	595	617
7	0	0	0	0	594	618
8	0	0	0	0	593	622
9	0	0	0	0	592	616
10	0	0	0	0	592	617
11	0	0	0	0	591	617
12	0	0	0	0	591	611
13	0	0	0	0	590	617
14	0	0	0	0	590	616
15	0	0	0	0	589	617
0	0	0	0	0	588	621
1	0	0	0	0	588	617
2	0	0	0	0	587	617
3	0	0	0	0	587	617
4	0	0	0	0	587	612
5	0	0	0	0	586	617
6	0	0	0	0	585	617
7	0	0	0	0	584	617
8	0	0	0	0	583	622
9	0	0	0	0	583	617
10	0	0	0	0	582	617
11	0	0	0	0	581	618
12	0	0	0	0	579	613
13	0	0	0	0	578	617
14	0	0	0	0	576	618
15	0	0	0	0	575	618
0	0	0	0	0	574	622
1	0	0	0	0	573	618
2	0	0	0	0	572	617
3	0	0	0	0	571	618
4	0	0	0	0	570	613
5	0	0	0	0	568	618
6	0	0	0	0	568	617
7	0	0	0	0	566	618
8	0	0	0	0	566	623
9	0	0	0	0	564	618
10	0	0	0	0	564	617
11	0	0	0	0	563	617
12	0	0	0	0	563	612
13	0	0	0	0	562	618
14	0	0	0	0	561	618
15	0	0	0	0	560	618
0	0	0	0	0	560	622
1	0	0	0	0	558	617
2	0	0	0	0	557	617
3	0	0	0	0	556	617
4	0	0	0	0	555	612
5	0	0	0	0	554	617
6	0	0	0	0	552	617
7	0	0	0	0	551	617
8	0	0	0	0	550	621
9	0	0	0	0	549	616
10	0	0	0	0	548	617
11	0	0	0	0	547	617
12	0	0	0	0	547	612
13	0	0	0	0	545	617
14	0	0	0	0	544	618
15	0	0	0	0	544	618
0	0	0	0	0	543	622
1	0	0	0	0	543	617
2	0	0	0	0	542	618
3	0	0	0	0	541	617
4	0	0	0	0	541	613
5	0	0	0	0	540	617
6	0	0	0	0	540	617
7	0	0	0	0	539	618
8	0	0	0	0	538	622
9	0	0	0	0	539	618
10	0	0	0	0	538	618
11	0	0	0	0	539	618
12	0	0	0	0	540	613
13	0	0	0	0	540	617
14	0	0	0	0	540	618
15	0	0	0	0	539	619
0	0	0	0	0	538	622
1	0	0	0	0	537	618
2	0	0	0	0	537	618
3	0	0	0	0	537	619
4	0	0	0	0	536	613
5	0	0	0	0	535	619
6	0	0	0	0	535	619
7	0	0	0	0	534	618
8	0	0	0	0	534	623
9	0	0	0	0	535	618
10	0	0	0	0	535	619
11	0	0	0	0	534	618
12	0	0	0	0	534	613
13	0	0	0	0	535	618
14	0	0	0	0	535	618
15	0	0	0	0	535	619
0	0	0	0	0	535	622
1	0	0	0	0	536	617
2	0	0	0	0	536	617
3	0	0	0	0	536	617
4	0	0	0	0	535	612
5	0	0	0	0	535	617
6	0	0	0	0	534	617
7	0	0	0	0	534	617
8	0	0	0	0	533	621
9	0	0	0	0	533	617
10	0	0	0	0	532	617
11	0	0	0	0	532	617
12	0	0	0	0	532	613
13	0	0	0	0	532	617
14	0	0	0	0	532	617
15	0	0	0	0	532	617
0	0	0	0	0	532	622
1	0	0	0	0	532	617
2	0	0	0	0	532	617
3	0	0	0	0	532	616
4	0	0	0	0	532	612
5	0	0	0	0	532	616
6	0	0	0	0	533	617
7	0	0	0	0	532	617
8	0	0	0	0	533	621
9	0	0	0	0	533	616
10	0	0	0	0	533	617
11	0	0	0	0	533	616
12	0	0	0	0	534	611
13	0	0	0	0	534	617
14	0	0	0	0	535	617
15	0	0	0	0	535	617
0	0	0	0	0	536	622
1	0	0	0	0	536	617
2	0	0	0	0	536	617
3	0	0	0	0	536	618
4	0	0	0	0	537	613
5	0	0	0	0	536	618
6	0	0	0	0	536	618
7	0	0	0	0	536	619
8	0	0	0	0	536	622
9	0	0	0	0	536	619
10	0	0	0	0	536	619
11	0	0	0	0	536	618
12	0	0	0	0	536	614
13	0	0	0	0	536	619
14	0	0	0	0	536	619
15	0	0	0	0	536	619
0	0	0	0	0	536	622
1	0	0	0	0	537	619
2	0	0	0	0	536	618
3	0	0	0	0	536	618
4	0	0	0	0	536	613
5	0	0	0	0	536	618
6	0	0	0	0	536	619
7	0	0	0	0	536	619
8	0	0	0	0	536	623
9	0	0	0	0	536	619
10	0	0	0	0	535	619
11	0	0	0	0	536	619
12	0	0	0	0	535	613
13	0	0	0	0	536	618
14	0	0	0	0	536	618
15	0	0	0	0	536	618
0	0	0	0	0	537	623
1	0	0	0	0	538	618
2	0	0	0	0	538	617
3	0	0	0	0	538	618
4	0	0	0	0	538	612
5	0	0	0	0	539	619
6	0	0	0	0	539	618
7	0	0	0	0	537	618
8	0	0	0	0	537	621
9	0	0	0	0	536	617
10	0	0	0	0	536	618
11	0	0	0	0	535	618
12	0	0	0	0	535	614
13	0	0	0	0	536	618
14	0	0	0	0	535	619
15	0	0	0	0	535	619
0	0	0	0	0	535	623
1	0	0	0	0	535	618
2	0	0	0	0	535	618
3	0	0	0	0	535	618
4	0	0	0	0	535	614
5	0	0	0	0	535	619
6	0	0	0	0	535	619
7	0	0	0	0	535	619
8	0	0	0	0	535	623
9	0	0	0	0	534	619
10	0	0	0	0	534	619
11	0	0	0	0	534	619
12	0	0	0	0	534	614
13	0	0	0	0	534	618
14	0	0	0	0	533	618
15	0	0	0	0	533	618
0	0	0	0	0	532	623
1	0	0	0	0	532	618
2	0	0	0	0	532	619
3	0	0	0	0	532	619
4	0	0	0	0	532	614
5	0	0	0	0	532	619
6	0	0	0	0	531	619
7	0	0	0	0	531	618
8	0	0	0	0	531	623
9	0	0	0	0	531	618
10	0	0	0	0	530	619
11	0	0	0	0	530	619
12	0	0	0	0	530	613
13	0	0	0	0	530	619
14	0	0	0	0	530	618
15	0	0	0	0	529	618
0	0	0	0	0	529	622
1	0	0	0	0	530	618
2	0	0	0	0	529	618
3	0	0	0	0	529	617
4	0	0	0	0	530	612
5	0	0	0	0	530	617
6	0	0	0	0	530	617
7	0	0	0	0	530	618
8	0	0	0	0	530	622
9	0	0	0	0	530	617
10	0	0	0	0	530	617
11	0	0	0	0	529	617
12	0	0	0	0	529	612
13	0	0	0	0	529	618
14	0	0	0	0	530	618
15	0	0	0	0	529	618
0	0	0	0	0	529	622
1	0	0	0	0	529	617
2	0	0	0	0	529	617
3	0	0	0	0	529	617
4	0	0	0	0	529	612
5	0	0	0	0	529	617
6	0	0	0	0	530	618
7	0	0	0	0	530	619
8	0	0	0	0	531	622
9	0	0	0	0	530	617
10	0	0	0	0	531	617
11	0	0	0	0	531	617
12	0	0	0	0	531	612
13	0	0	0	0	531	618
14	0	0	0	0	530	617
15	0	0	0	0	530	618
0	0	0	0	0	530	622
1	0	0	0	0	530	617
2	0	0	0	0	530	617
3	0	0	0	0	530	617
4	0	0	0	0	529	612
5	0	0	0	0	528	618
6	0	0	0	0	528	617
7	0	0	0	0	528	618
8	0	0	0	0	527	622
9	0	0	0	0	527	617
10	0	0	0	0	527	617
11	0	0	0	0	527	618
12	0	0	0	0	527	613
13	0	0	0	0	527	617
14	0	0	0	0	527	617
15	0	0	0	0	526	618
0	0	0	0	0	526	622
1	0	0	0	0	525	619
2	0	0	0	0	525	619
3	0	0	0	0	525	619
4	0	0	0	0	524	614
5	0	0	0	0	524	618
6	0	0	0	0	524	618
7	0	0	0	0	524	619
8	0	0	0	0	524	622
9	0	0	0	0	524	619
10	0	0	0	0	524	619
11	0	0	0	0	524	618
12	0	0	0	0	523	613
13	0	0	0	0	523	619
14	0	0	0	0	523	618
15	0	0	0	0	522	619
0	0	0	0	0	521	622
1	0	0	0	0	521	618
2	0	0	0	0	520	618
3	0	0	0	0	520	618
4	0	0	0	0	521	613
5	0	0	0	0	521	618
6	0	0	0	0	520	618
7	0	0	0	0	520	618
8	0	0	0	0	520	623
9	0	0	0	0	520	617
10	0	0	0	0	521	617
11	0	0	0	0	519	617
12	0	0	0	0	520	612
13	0	0	0	0	520	618
14	0	0	0	0	520	617
15	0	0	0	0	520	618
0	0	0	0	0	520	622
1	0	0	0	0	520	617
2	0	0	0	0	520	617
3	0	0	0	0	520	617
4	0	0	0	0	520	612
5	0	0	0	0	521	617
6	0	0	0	0	520	617
7	0	0	0	0	521	618
8	0	0	0	0	521	622
9	0	0	0	0	521	617
10	0	0	0	0	521	617
11	0	0	0	0	521	617
12	0	0	0	0	522	612
13	0	0	0	0	522	616
14	0	0	0	0	522	617
15	0	0	0	0	522	617
0	0	0	0	0	522	621
1	0	0	0	0	523	617
2	0	0	0	0	521	617
3	0	0	0	0	520	617
4	0	0	0	0	520	611
5	0	0	0	0	520	617
6	0	0	0	0	520	617
7	0	0	0	0	519	617
8	0	0	0	0	519	622
9	0	0	0	0	520	617
10	0	0	0	0	519	617
11	0	0	0	0	519	618
12	0	0	0	0	519	613
13	0	0	0	0	520	618
14	0	0	0	0	520	617
15	0	0	0	0	519	618
0	0	0	0	0	519	623
1	0	0	0	0	519	618
2	0	0	0	0	519	618
3	0	0	0	0	519	618
4	0	0	0	0	519	612
5	0	0	0	0	518	619
6	0	0	0	0	519	618
7	0	0	0	0	518	617
8	0	0	0	0	519	622
9	0	0	0	0	519	618
10	0	0	0	0	519	618
11	0	0	0	0	518	618
12	0	0	0	0	517	613
13	0	0	0	0	517	618
14	0	0	0	0	516	618
15	0	0	0	0	516	618
0	0	0	0	0	515	622
1	0	0	0	0	515	617
2	0	0	0	0	515	617
3	0	0	0	0	515	617
4	0	0	0	0	515	612
5	0	0	0	0	515	618
6	0	0	0	0	515	618
7	0	0	0	0	515	618
8	0	0	0	0	516	622
9	0	0	0	0	515	618
10	0	0	0	0	514	617
11	0	0	0	0	513	618
12	0	0	0	0	513	613
13	0	0	0	0	513	618
14	0	0	0	0	513	618
15	0	0	0	0	514	618
0	0	0	0	0	514	622
1	0	0	0	0	515	618
2	0	0	0	0	515	618
3	0	0	0	0	515	618
4	0	0	0	0	516	613
5	0	0	0	0	515	618
6	0	0	0	0	515	618
7	0	0	0	0	515	618
8	0	0	0	0	515	622
9	0	0	0	0	516	618
10	0	0	0	0	515	618
11	0	0	0	0	515	618
12	0	0	0	0	514	613
13	0	0	0	0	513	618
14	0	0	0	0	513	618
15	0	0	0	0	512	618
0	0	0	0	0	512	622
1	0	0	0	0	513	618
2	0	0	0	0	513	617
3	0	0	0	0	512	618
4	0	0	0	0	512	613
5	0	0	0	0	512	618
6	0	0	0	0	512	618
7	0	0	0	0	512	619
8	0	0	0	0	513	622
9	0	0	0	0	512	618
10	0	0	0	0	511	618
11	0	0	0	0	510	618
12	0	0	0	0	510	613
13	0	0	0	0	509	618
14	0	0	0	0	509	618
15	0	0	0	0	509	618
0	0	0	0	0	509	622
1	0	0	0	0	509	617
2	0	0	0	0	508	618
3	0	0	0	0	509	618
4	0	0	0	0	509	613
5	0	0	0	0	509	617
6	0	0	0	0	509	618
7	0	0	0	0	508	618
8	0	0	0	0	508	622
9	0	0	0	0	507	619
10	0	0	0	0	507	617
11	0	0	0	0	506	617
12	0	0	0	0	505	612
13	0	0	0	0	504	617
14	0	0	0	0	504	618
15	0	0	0	0	504	617
0	0	0	0	0	505	622
1	0	0	0	0	505	618
2	0	0	0	0	505	617
3	0	0	0	0	505	618
4	0	0	0	0	506	613
5	0	0	0	0	506	618
6	0	0	0	0	507	618
7	0	0	0	0	507	618
8	0	0	0	0	506	622
9	0	0	0	0	507	618
10	0	0	0	0	507	617
11	0	0	0	0	508	617
12	0	0	0	0	508	613
13	0	0	0	0	509	617
14	0	0	0	0	510	618
15	0	0	0	0	512	617
0	0	0	0	0	513	623
1	0	0	0	0	514	618
2	0	0	0	0	514	617
3	0	0	0	0	515	618
4	0	0	0	0	516	613
5	0	0	0	0	516	618
6	0	0	0	0	516	618
7	0	0	0	0	517	619
8	0	0	0	0	517	622
9	0	0	0	0	517	618
10	0	0	0	0	516	619
11	0	0	0	0	516	619
12	0	0	0	0	516	612
13	0	0	0	0	515	618
14	0	0	0	0	515	618
15	0	0	0	0	514	618
0	0	0	0	0	513	622
1	0	0	0	0	512	618
2	0	0	0	0	512	617
3	0	0	0	0	511	617
4	0	0	0	0	511	612
5	0	0	0	0	511	617
6	0	0	0	0	511	617
7	0	0	0	0	511	618
8	0	0	0	0	512	622
9	0	0	0	0	512	617
10	0	0	0	0	512	617
11	0	0	0	0	513	617
12	0	0	0	0	513	612
13	0	0	0	0	514	618
14	0	0	0	0	514	617
15	0	0	0	0	514	618
0	0	0	0	0	514	622
1	0	0	0	0	514	617
2	0	0	0	0	513	618
3	0	0	0	0	513	618
4	0	0	0	0	513	613
5	0	0	0	0	513	619
6	0	0	0	0	513	618
7	0	0	0	0	513	619
8	0	0	0	0	513	622
9	0	0	0	0	514	618
10	0	0	0	0	515	618
11	0	0	0	0	515	618
12	0	0	0	0	515	613
13	0	0	0	0	515	618
14	0	0	0	0	516	618
15	0	0	0	0	516	618
0	0	0	0	0	517	622
1	0	0	0	0	517	617
2	0	0	0	0	517	618
3	0	0	0	0	517	617
4	0	0	0	0	516	613
5	0	0	0	0	516	618
6	0	0	0	0	515	618
7	0	0	0	0	513	618
8	0	0	0	0	513	622
9	0	0	0	0	513	619
10	0	0	0	0	512	618
11	0	0	0	0	512	619
12	0	0	0	0	511	614
13	0	0	0	0	511	618
14	0	0	0	0	511	618
15	0	0	0	0	510	617
0	0	0	0	0	510	623
1	0	0	0	0	511	617
2	0	0	0	0	511	617
3	0	0	0	0	511	618
4	0	0	0	0	511	612
5	0	0	0	0	510	618
6	0	0	0	0	510	618
7	0	0	0	0	510	617
8	0	0	0	0	510	621
9	0	0	0	0	510	617
10	0	0	0	0	509	617
11	0	0	0	0	508	617
12	0	0	0	0	508	612
13	0	0	0	0	508	617
14	0	0	0	0	507	617
15	0	0	0	0	508	617
0	0	0	0	0	508	621
1	0	0	0	0	507	616
2	0	0	0	0	507	617
3	0	0	0	0	507	616
4	0	0	0	0	506	611
5	0	0	0	0	506	616
6	0	0	0	0	505	616
7	0	0	0	0	505	616
8	0	0	0	0	504	621
9	0	0	0	0	504	617
10	0	0	0	0	504	617
11	0	0	0	0	504	616
12	0	0	0	0	504	611
13	0	0	0	0	505	616
14	0	0	0	0	506	617
15	0	0	0	0	506	617
0	0	0	0	0	507	621
1	0	0	0	0	506	617
2	0	0	0	0	506	617
3	0	0	0	0	505	618
4	0	0	0	0	505	612
5	0	0	0	0	505	618
6	0	0	0	0	504	618
7	0	0	0	0	504	618
8	0	0	0	0	504	622
9	0	0	0	0	503	618
10	0	0	0	0	502	618
11	0	0	0	0	500	618
12	0	0	0	0	497	613
13	0	0	0	0	492	619
14	0	0	0	0	484	619
15	0	0	0	0	472	619
0	0	0	0	0	459	623
1	0	0	0	0	444	619
2	0	0	0	0	428	619
3	0	0	0	0	413	618
4	0	0	0	0	399	613
5	0	0	0	0	388	618
6	0	0	0	0	377	618
7	0	0	0	0	368	619
8	0	0	0	0	356	622
9	0	0	0	0	345	619
10	0	0	0	0	336	619
11	0	0	0	0	331	617
12	0	0	0	0	325	613
13	0	0	0	0	319	618
14	0	0	0	0	314	618
15	0	0	0	0	312	618
0	0	0	0	0	313	622
1	0	0	0	0	323	618
2	0	0	0	0	339	618
3	0	0	0	0	363	617
4	0	0	0	0	401	614
5	0	0	0	0	450	617
6	0	0	0	0	509	618
7	0	0	0	0	575	618
8	0	0	0	0	645	623
9	0	0	0	0	721	618
10	0	0	0	0	802	618
11	0	0	0	0	893	618
12	0	0	0	0	988	613
13	0	0	0	0	1022	618
14	0	0	0	0	1022	618
15	0	0	0	0	1022	617
0	0	0	0	0	1022	623
1	0	0	0	0	1022	618
2	0	0	0	0	1022	618
3	0	0	0	0	1022	618
4	0	0	0	0	1022	612
5	0	0	0	0	1022	618
6	0	0	0	0	1022	617
7	0	0	0	0	1022	618
8	0	0	0	0	1022	622
9	0	0	0	0	1022	617
10	0	0	0	0	1022	617
11	0	0	0	0	1022	617
12	0	0	0	0	1022	613
13	0	0	0	0	1022	617
14	0	0	0	0	1021	617
15	0	0	0	0	990	618
0	0	0	0	0	959	621
1	0	0	0	0	930	617
2	0	0	0	0	904	617
3	0	0	0	0	878	617
4	0	0	0	0	851	612
5	0	0	0	0	819	617
6	0	0	0	0	784	616
7	0	0	0	0	748	617
8	0	0	0	0	711	621
9	0	0	0	0	675	617
10	0	0	0	0	641	617
11	0	0	0	0	610	617
12	0	0	0	0	582	612
13	0	0	0	0	556	616
14	0	0	0	0	532	617
15	0	0	0	0	511	617
0	0	0	0	0	491	622
1	0	0	0	0	472	617
2	0	0	0	0	454	617
3	0	0	0	0	437	618
4	0	0	0	0	421	612
5	0	0	0	0	406	617
6	0	0	0	0	391	618
7	0	0	0	0	379	617
8	0	0	0	0	368	623
9	0	0	0	0	358	618
10	0	0	0	0	349	618
11	0	0	0	0	341	617
12	0	0	0	0	335	613
13	0	0	0	0	329	618
14	0	0	0	0	323	618
15	0	0	0	0	317	618
0	0	0	0	0	312	622
1	0	0	0	0	309	618
2	0	0	0	0	306	619
3	0	0	0	0	304	617
4	0	0	0	0	302	612
5	0	0	0	0	300	618
6	0	0	0	0	299	617
7	0	0	0	0	298	618
8	0	0	0	0	297	622
9	0	0	0	0	297	617
10	0	0	0	0	297	617
11	0	0	0	0	297	618
12	0	0	0	0	297	613
13	0	0	0	0	296	618
14	0	0	0	0	296	618
15	0	0	0	0	297	619
0	0	0	0	0	297	623
1	0	0	0	0	297	618
2	0	0	0	0	299	618
3	0	0	0	0	299	618
4	0	0	0	0	300	614
5	0	0	0	0	302	618
6	0	0	0	0	304	618
7	0	0	0	0	304	619
8	0	0	0	0	306	622
9	0	0	0	0	308	618
10	0	0	0	0	309	617
11	0	0	0	0	310	618
12	0	0	0	0	312	613
13	0	0	0	0	313	619
14	0	0	0	0	313	618
15	0	0	0	0	314	619
0	0	0	0	0	315	622
1	0	0	0	0	317	619
2	0	0	0	0	318	619
3	0	0	0	0	319	618
4	0	0	0	0	319	613
5	0	0	0	0	320	619
6	0	0	0	0	322	619
7	0	0	0	0	323	619
8	0	0	0	0	325	622
9	0	0	0	0	327	619
10	0	0	0	0	329	618
11	0	0	0	0	330	618
12	0	0	0	0	332	612
13	0	0	0	0	333	618
14	0	0	0	0	334	618
15	0	0	0	0	336	618
0	0	0	0	0	337	622
1	0	0	0	0	338	618
2	0	0	0	0	339	617
3	0	0	0	0	339	617
4	0	0	0	0	340	612
5	0	0	0	0	342	617
6	0	0	0	0	343	618
7	0	0	0	0	344	618
8	0	0	0	0	345	622
9	0	0	0	0	345	618
10	0	0	0	0	347	618
11	0	0	0	0	348	618
12	0	0	0	0	349	613
13	0	0	0	0	350	618
14	0	0	0	0	351	619
15	0	0	0	0	351	619
0	0	0	0	0	351	622
1	0	0	0	0	352	619
2	0	0	0	0	352	619
3	0	0	0	0	352	619
4	0	0	0	0	353	613
5	0	0	0	0	353	618
6	0	0	0	0	355	619
7	0	0	0	0	355	619
8	0	0	0	0	356	623
9	0	0	0	0	357	618
10	0	0	0	0	358	618
11	0	0	0	0	359	619
12	0	0	0	0	360	613
13	0	0	0	0	361	617
14	0	0	0	0	361	618
15	0	0	0	0	362	618
0	0	0	0	0	364	622
1	0	0	0	0	364	618
2	0	0	0	0	365	618
3	0	0	0	0	365	618
4	0	0	0	0	366	612
5	0	0	0	0	366	617
6	0	0	0	0	366	617
7	0	0	0	0	366	617
8	0	0	0	0	367	622
9	0	0	0	0	367	618
10	0	0	0	0	368	618
11	0	0	0	0	368	617
12	0	0	0	0	368	612
13	0	0	0	0	368	617
14	0	0	0	0	368	617
15	0	0	0	0	368	617
0	0	0	0	0	368	622
1	0	0	0	0	368	617
2	0	0	0	0	368	618
3	0	0	0	0	367	618
4	0	0	0	0	368	613
5	0	0	0	0	368	618
6	0	0	0	0	368	618
7	0	0	0	0	368	618
8	0	0	0	0	368	622
9	0	0	0	0	368	617
10	0	0	0	0	367	618
11	0	0	0	0	367	618
12	0	0	0	0	367	612
13	0	0	0	0	366	617
14	0	0	0	0	365	617
15	0	0	0	0	365	618
0	0	0	0	0	364	622
1	0	0	0	0	365	617
2	0	0	0	0	365	618
3	0	0	0	0	364	618
4	0	0	0	0	364	612
5	0	0	0	0	363	618
6	0	0	0	0	362	617
7	0	0	0	0	361	617
8	0	0	0	0	361	622
9	0	0	0	0	361	618
10	0	0	0	0	360	618
11	0	0	0	0	359	618
12	0	0	0	0	359	613
13	0	0	0	0	359	618
14	0	0	0	0	358	618
15	0	0	0	0	357	618
0	0	0	0	0	356	622
1	0	0	0	0	356	618
2	0	0	0	0	355	618
3	0	0	0	0	355	617
4	0	0	0	0	354	612
5	0	0	0	0	353	618
6	0	0	0	0	353	618
7	0	0	0	0	352	618
8	0	0	0	0	352	622
9	0	0	0	0	352	618
10	0	0	0	0	351	617
11	0	0	0	0	351	617
12	0	0	0	0	351	613
13	0	0	0	0	351	617
14	0	0	0	0	352	617
15	0	0	0	0	352	617
0	0	0	0	0	353	621
1	0	0	0	0	354	617
2	0	0	0	0	354	617
3	0	0	0	0	355	616
4	0	0	0	0	355	612
5	0	0	0	0	357	617
6	0	0	0	0	358	616
7	0	0	0	0	360	617
8	0	0	0	0	362	621
9	0	0	0	0	363	617
10	0	0	0	0	364	616
11	0	0	0	0	366	617
12	0	0	0	0	368	612
13	0	0	0	0	369	616
14	0	0	0	0	372	616
15	0	0	0	0	374	616
0	0	0	0	0	377	620
1	0	0	0	0	379	616
2	0	0	0	0	382	616
3	0	0	0	0	385	616
4	0	0	0	0	387	611
5	0	0	0	0	390	616
6	0	0	0	0	392	617
7	0	0	0	0	395	617
8	0	0	0	0	399	621
9	0	0	0	0	402	617
10	0	0	0	0	405	617
11	0	0	0	0	408	617
12	0	0	0	0	412	613
13	0	0	0	0	416	618
14	0	0	0	0	419	617
15	0	0	0	0	423	618
0	0	0	0	0	427	621
1	0	0	0	0	431	618
2	0	0	0	0	434	617
3	0	0	0	0	438	617
4	0	0	0	0	443	613
5	0	0	0	0	447	618
6	0	0	0	0	451	618
7	0	0	0	0	455	618
8	0	0	0	0	460	623
9	0	0	0	0	465	618
10	0	0	0	0	470	619
11	0	0	0	0	475	617
12	0	0	0	0	480	613
13	0	0	0	0	485	618
14	0	0	0	0	490	618
15	0	0	0	0	495	619
0	0	0	0	0	499	623
1	0	0	0	0	505	619
2	0	0	0	0	510	619
3	0	0	0	0	515	618
4	0	0	0	0	519	614
5	0	0	0	0	524	618
6	0	0	0	0	529	619
7	0	0	0	0	533	619
8	0	0	0	0	537	623
9	0	0	0	0	542	619
10	0	0	0	0	546	619
11	0	0	0	0	550	619
12	0	0	0	0	555	614
13	0	0	0	0	558	619
14	0	0	0	0	562	618
15	0	0	0	0	565	619
0	0	0	0	0	568	623
1	0	0	0	0	572	619
2	0	0	0	0	575	619
3	0	0	0	0	578	619
4	0	0	0	0	581	614
5	0	0	0	0	584	619
6	0	0	0	0	586	619
7	0	0	0	0	589	619
8	0	0	0	0	591	623
9	0	0	0	0	593	619
10	0	0	0	0	595	618
11	0	0	0	0	596	617
12	0	0	0	0	598	613
13	0	0	0	0	600	617
14	0	0	0	0	602	618
15	0	0	0	0	604	618
0	0	0	0	0	604	621
1	0	0	0	0	606	618
2	0	0	0	0	607	617
3	0	0	0	0	608	617
4	0	0	0	0	609	612
5	0	0	0	0	610	617
6	0	0	0	0	611	617
7	0	0	0	0	612	617
8	0	0	0	0	613	622
9	0	0	0	0	614	617
10	0	0	0	0	614	617
11	0	0	0	0	615	617
12	0	0	0	0	615	612
13	0	0	0	0	615	617
14	0	0	0	0	615	617
15	0	0	0	0	615	617
0	0	0	0	0	615	622
1	0	0	0	0	615	617
2	0	0	0	0	615	617
3	0	0	0	0	614	617
4	0	0	0	0	614	613
5	0	0	0	0	614	618
6	0	0	0	0	614	617
7	0	0	0	0	613	617
8	0	0	0	0	612	621
9	0	0	0	0	613	617
10	0	0	0	0	613	617
11	0	0	0	0	613	617
12	0	0	0	0	612	612
13	0	0	0	0	612	617
14	0	0	0	0	611	617
15	0	0	0	0	611	617
0	0	0	0	0	610	621
1	0	0	0	0	609	618
2	0	0	0	0	608	617
3	0	0	0	0	607	617
4	0	0	0	0	607	612
5	0	0	0	0	606	617
6	0	0	0	0	606	618
7	0	0	0	0	605	617
8	0	0	0	0	605	622
9	0	0	0	0	604	617
10	0	0	0	0	604	618
11	0	0	0	0	604	618
12	0	0	0	0	603	612
13	0	0	0	0	602	617
14	0	0	0	0	603	619
15	0	0	0	0	602	618
0	0	0	0	0	601	623
1	0	0	0	0	601	618
2	0	0	0	0	601	618
3	0	0	0	0	601	618
4	0	0	0	0	600	613
5	0	0	0	0	599	618
6	0	0	0	0	598	618
7	0	0	0	0	597	618
8	0	0	0	0	596	621
9	0	0	0	0	595	618
10	0	0	0	0	593	618
11	0	0	0	0	592	618
12	0	0	0	0	591	614
13	0	0	0	0	590	619
14	0	0	0	0	589	618
15	0	0	0	0	588	619
0	0	0	0	0	587	623
1	0	0	0	0	587	619
2	0	0	0	0	586	619
3	0	0	0	0	584	618
4	0	0	0	0	583	613
5	0	0	0	0	583	618
6	0	0	0	0	582	618
7	0	0	0	0	580	619
8	0	0	0	0	578	623
9	0	0	0	0	577	619
10	0	0	0	0	576	618
11	0	0	0	0	575	618
12	0	0	0	0	574	613
13	0	0	0	0	573	618
14	0	0	0	0	572	618
15	0	0	0	0	571	619
0	0	0	0	0	569	622
1	0	0	0	0	568	619
2	0	0	0	0	567	618
3	0	0	0	0	566	618
4	0	0	0	0	566	613
5	0	0	0	0	564	619
6	0	0	0	0	563	619
7	0	0	0	0	561	619
8	0	0	0	0	561	623
9	0	0	0	0	560	618
10	0	0	0	0	559	618
11	0	0	0	0	559	618
12	0	0	0	0	558	614
13	0	0	0	0	558	619
14	0	0	0	0	557	618
15	0	0	0	0	557	619
0	0	0	0	0	557	622
1	0	0	0	0	556	618
2	0	0	0	0	555	617
3	0	0	0	0	555	617
4	0	0	0	0	553	612
5	0	0	0	0	553	617
6	0	0	0	0	552	617
7	0	0	0	0	551	617
8	0	0	0	0	551	621
9	0	0	0	0	549	617
10	0	0	0	0	548	617
11	0	0	0	0	547	617
12	0	0	0	0	546	611
13	0	0	0	0	545	617
14	0	0	0	0	544	617
15	0	0	0	0	543	617
0	0	0	0	0	543	622
1	0	0	0	0	543	617
2	0	0	0	0	542	617
3	0	0	0	0	542	617
4	0	0	0	0	541	612
5	0	0	0	0	540	617
6	0	0	0	0	540	617
7	0	0	0	0	540	618
8	0	0	0	0	539	622
9	0	0	0	0	539	617
10	0	0	0	0	539	618
11	0	0	0	0	539	618
12	0	0	0	0	538	613
13	0	0	0	0	538	618
14	0	0	0	0	538	618
15	0	0	0	0	538	619
0	0	0	0	0	538	622
1	0	0	0	0	538	619
2	0	0	0	0	537	619
3	0	0	0	0	537	617
4	0	0	0	0	537	613
5	0	0	0	0	536	619
6	0	0	0	0	536	618
7	0	0	0	0	536	619
8	0	0	0	0	536	623
9	0	0	0	0	537	618
10	0	0	0	0	537	619
11	0	0	0	0	536	617
12	0	0	0	0	535	612
13	0	0	0	0	535	618
14	0	0	0	0	535	617
15	0	0	0	0	536	618
0	0	0	0	0	536	622
1	0	0	0	0	536	617
2	0	0	0	0	535	617
3	0	0	0	0	534	617
4	0	0	0	0	534	612
5	0	0	0	0	534	618
6	0	0	0	0	533	617
7	0	0	0	0	534	618
8	0	0	0	0	533	622
9	0	0	0	0	533	617
10	0	0	0	0	533	618
11	0	0	0	0	534	617
12	0	0	0	0	534	612
13	0	0	0	0	534	617
14	0	0	0	0	535	617
15	0	0	0	0	536	618
0	0	0	0	0	536	622
1	0	0	0	0	536	619
2	0	0	0	0	535	619
3	0	0	0	0	535	619
4	0	0	0	0	535	613
5	0	0	0	0	536	618
6	0	0	0	0	536	619
7	0	0	0	0	535	619
8	0	0	0	0	536	624
9	0	0	0	0	535	620
10	0	0	0	0	535	619
11	0	0	0	0	534	619
12	0	0	0	0	534	614
13	0	0	0	0	535	620
14	0	0	0	0	535	620
15	0	0	0	0	536	620
0	0	0	0	0	536	624
1	0	0	0	0	535	620
2	0	0	0	0	535	619
3	0	0	0	0	535	620
4	0	0	0	0	535	614
5	0	0	0	0	535	619
6	0	0	0	0	535	619
7	0	0	0	0	535	619
8	0	0	0	0	535	623
9	0	0	0	0	536	619
10	0	0	0	0	536	619
11	0	0	0	0	536	618
12	0	0	0	0	535	613
13	0	0	0	0	535	617
14	0	0	0	0	535	618
15	0	0	0	0	535	617
0	0	0	0	0	534	621
1	0	0	0	0	535	617
2	0	0	0	0	534	617
3	0	0	0	0	534	617
4	0	0	0	0	535	612
5	0	0	0	0	534	617
6	0	0	0	0	535	617
7	0	0	0	0	535	616
8	0	0	0	0	535	620
9	0	0	0	0	535	616
10	0	0	0	0	535	616
11	0	0	0	0	534	616
12	0	0	0	0	535	611
13	0	0	0	0	535	616
14	0	0	0	0	535	616
15	0	0	0	0	535	616
0	0	0	0	0	535	620
1	0	0	0	0	535	616
2	0	0	0	0	535	616
3	0	0	0	0	535	616
4	0	0	0	0	536	612
5	0	0	0	0	536	616
6	0	0	0	0	536	616
7	0	0	0	0	536	617
8	0	0	0	0	536	622
9	0	0	0	0	535	617
10	0	0	0	0	536	617
11	0	0	0	0	536	617
12	0	0	0	0	536	613
13	0	0	0	0	536	617
14	0	0	0	0	535	617
15	0	0	0	0	534	618
0	0	0	0	0	534	622
1	0	0	0	0	534	618
2	0	0	0	0	534	618
3	0	0	0	0	533	618
4	0	0	0	0	533	613
5	0	0	0	0	532	619
6	0	0	0	0	533	618
7	0	0	0	0	533	619
8	0	0	0	0	533	623
9	0	0	0	0	534	619
10	0	0	0	0	534	619
11	0	0	0	0	534	619
12	0	0	0	0	534	613
13	0	0	0	0	534	618
14	0	0	0	0	534	618
15	0	0	0	0	534	618
0	0	0	0	0	532	623
1	0	0	0	0	532	618
2	0	0	0	0	532	617
3	0	0	0	0	532	618
4	0	0	0	0	531	613
5	0	0	0	0	531	618
6	0	0	0	0	531	618
7	0	0	0	0	531	619
8	0	0	0	0	531	623
9	0	0	0	0	530	618
10	0	0	0	0	530	618
11	0	0	0	0	530	618
12	0	0	0	0	529	612
13	0	0	0	0	529	618
14	0	0	0	0	529	617
15	0	0	0	0	529	618
0	0	0	0	0	528	622
1	0	0	0	0	528	618
2	0	0	0	0	528	617
3	0	0	0	0	528	617
4	0	0	0	0	528	612
5	0	0	0	0	527	618
6	0	0	0	0	527	617
7	0	0	0	0	526	618
8	0	0	0	0	526	622
9	0	0	0	0	526	619
10	0	0	0	0	526	617
11	0	0	0	0	525	617
12	0	0	0	0	525	612
13	0	0	0	0	525	616
14	0	0	0	0	524	617
15	0	0	0	0	524	617
0	0	0	0	0	524	621
1	0	0	0	0	524	617
2	0	0	0	0	523	617
3	0	0	0	0	523	617
4	0	0	0	0	522	613
5	0	0	0	0	521	617
6	0	0	0	0	521	617
7	0	0	0	0	520	618
8	0	0	0	0	519	623
9	0	0	0	0	519	619
10	0	0	0	0	519	618
11	0	0	0	0	519	618
12	0	0	0	0	519	613
13	0	0	0	0	519	619
14	0	0	0	0	520	619
15	0	0	0	0	520	618
0	0	0	0	0	520	623
1	0	0	0	0	521	619
2	0	0	0	0	521	619
3	0	0	0	0	521	619
4	0	0	0	0	521	614
5	0	0	0	0	520	618
6	0	0	0	0	520	618
7	0	0	0	0	519	619
8	0	0	0	0	520	622
9	0	0	0	0	519	618
10	0	0	0	0	519	618
11	0	0	0	0	519	619
12	0	0	0	0	519	613
13	0	0	0	0	519	618
14	0	0	0	0	518	618
15	0	0	0	0	518	618
0	0	0	0	0	517	622
1	0	0	0	0	518	617
2	0	0	0	0	516	618
3	0	0	0	0	516	617
4	0	0	0	0	516	613
5	0	0	0	0	515	618
6	0	0	0	0	514	618
7	0	0	0	0	514	618
8	0	0	0	0	514	622
9	0	0	0	0	514	618
10	0	0	0	0	513	617
11	0	0	0	0	513	617
12	0	0	0	0	513	612
13	0	0	0	0	513	617
14	0	0	0	0	513	617
15	0	0	0	0	513	617
0	0	0	0	0	513	621
1	0	0	0	0	512	617
2	0	0	0	0	512	617
3	0	0	0	0	512	617
4	0	0	0	0	512	612
5	0	0	0	0	512	617
6	0	0	0	0	512	617
7	0	0	0	0	512	617
8	0	0	0	0	511	622
9	0	0	0	0	511	617
10	0	0	0	0	511	617
11	0	0	0	0	511	618
12	0	0	0	0	511	612
13	0	0	0	0	511	618
14	0	0	0	0	511	618
15	0	0	0	0	511	618
0	0	0	0	0	510	622
1	0	0	0	0	510	618
2	0	0	0	0	510	618
3	0	0	0	0	509	618
4	0	0	0	0	509	613
5	0	0	0	0	509	619
6	0	0	0	0	509	618
7	0	0	0	0	509	619
8	0	0	0	0	508	623
9	0	0	0	0	507	619
10	0	0	0	0	507	619
11	0	0	0	0	506	619
12	0	0	0	0	505	614
13	0	0	0	0	505	620
14	0	0	0	0	506	620
15	0	0	0	0	505	620
0	0	0	0	0	506	624
1	0	0	0	0	506	620
2	0	0	0	0	506	619
3	0	0	0	0	506	618
4	0	0	0	0	506	613
5	0	0	0	0	507	617
6	0	0	0	0	507	619
7	0	0	0	0	507	618
8	0	0	0	0	507	622
9	0	0	0	0	507	618
10	0	0	0	0	507	617
11	0	0	0	0	507	618
12	0	0	0	0	507	612
13	0	0	0	0	506	617
14	0	0	0	0	506	617
15	0	0	0	0	506	617
0	0	0	0	0	507	622
1	0	0	0	0	506	617
2	0	0	0	0	506	617
3	0	0	0	0	505	617
4	0	0	0	0	505	611
5	0	0	0	0	505	616
6	0	0	0	0	506	616
7	0	0	0	0	505	617
8	0	0	0	0	505	621
9	0	0	0	0	505	616
10	0	0	0	0	505	617
11	0	0	0	0	504	617
12	0	0	0	0	504	611
13	0	0	0	0	504	617
14	0	0	0	0	503	617
15	0	0	0	0	503	618
0	0	0	0	0	503	621
1	0	0	0	0	504	617
2	0	0	0	0	504	617
3	0	0	0	0	504	617
4	0	0	0	0	504	612
5	0	0	0	0	504	617
6	0	0	0	0	504	617
7	0	0	0	0	504	617
8	0	0	0	0	504	622
9	0	0	0	0	504	618
10	0	0	0	0	504	617
11	0	0	0	0	503	617
12	0	0	0	0	503	612
13	0	0	0	0	503	617
14	0	0	0	0	503	618
15	0	0	0	0	502	618
0	0	0	0	0	502	622
1	0	0	0	0	502	618
2	0	0	0	0	502	617
3	0	0	0	0	502	617
4	0	0	0	0	501	612
5	0	0	0	0	501	617
6	0	0	0	0	500	617
7	0	0	0	0	499	618
8	0	0	0	0	499	622
9	0	0	0	0	500	617
10	0	0	0	0	499	617
11	0	0	0	0	499	617
12	0	0	0	0	500	613
13	0	0	0	0	499	618
14	0	0	0	0	499	617
15	0	0	0	0	499	618
0	0	0	0	0	499	622
1	0	0	0	0	500	617
2	0	0	0	0	499	618
3	0	0	0	0	498	618
4	0	0	0	0	498	613
5	0	0	0	0	497	618
6	0	0	0	0	496	619
7	0	0	0	0	496	619
8	0	0	0	0	496	623
9	0	0	0	0	496	619
10	0	0	0	0	497	620
11	0	0	0	0	496	619
12	0	0	0	0	497	614
13	0	0	0	0	496	620
14	0	0	0	0	495	619
15	0	0	0	0	494	620
0	0	0	0	0	494	624
1	0	0	0	0	494	619
2	0	0	0	0	494	620
3	0	0	0	0	494	619
4	0	0	0	0	494	614
5	0	0	0	0	494	619
6	0	0	0	0	494	619
7	0	0	0	0	495	619
8	0	0	0	0	496	623
9	0	0	0	0	497	619
10	0	0	0	0	497	619
11	0	0	0	0	497	619
12	0	0	0	0	497	614
13	0	0	0	0	497	620
14	0	0	0	0	497	619
15	0	0	0	0	498	619
0	0	0	0	0	498	622
1	0	0	0	0	499	618
2	0	0	0	0	499	618
3	0	0	0	0	498	618
4	0	0	0	0	499	614
5	0	0	0	0	499	619
6	0	0	0	0	499	618
7	0	0	0	0	500	617
8	0	0	0	0	502	621
9	0	0	0	0	503	616
10	0	0	0	0	503	616
11	0	0	0	0	504	615
12	0	0	0	0	505	609
13	0	0	0	0	506	615
14	0	0	0	0	507	615
15	0	0	0	0	508	615
0	0	0	0	0	508	618
1	0	0	0	0	508	614
2	0	0	0	0	509	615
3	0	0	0	0	508	614
4	0	0	0	0	508	610
5	0	0	0	0	507	615
6	0	0	0	0	505	615
7	0	0	0	0	505	616
8	0	0	0	0	504	621
9	0	0	0	0	503	617
10	0	0	0	0	502	617
11	0	0	0	0	502	618
12	0	0	0	0	502	614
13	0	0	0	0	502	620
14	0	0	0	0	503	620
15	0	0	0	0	503	621
0	0	0	0	0	504	625
1	0	0	0	0	504	622
2	0	0	0	0	505	621
3	0	0	0	0	506	621
4	0	0	0	0	506	616
5	0	0	0	0	506	620
6	0	0	0	0	507	620
7	0	0	0	0	506	620
8	0	0	0	0	506	624
9	0	0	0	0	505	620
10	0	0	0	0	506	620
11	0	0	0	0	506	619
12	0	0	0	0	506	614
13	0	0	0	0	507	619
14	0	0	0	0	507	619
15	0	0	0	0	507	619
0	0	0	0	0	507	622
1	0	0	0	0	507	617
2	0	0	0	0	507	618
3	0	0	0	0	508	617
4	0	0	0	0	508	612
5	0	0	0	0	509	617
6	0	0	0	0	510	617
7	0	0	0	0	510	617
8	0	0	0	0	511	621
9	0	0	0	0	511	618
10	0	0	0	0	510	618
11	0	0	0	0	509	617
12	0	0	0	0	508	613
13	0	0	0	0	508	617
14	0	0	0	0	507	618
15	0	0	0	0	506	619
0	0	0	0	0	505	623
1	0	0	0	0	505	619
2	0	0	0	0	504	618
3	0	0	0	0	504	618
4	0	0	0	0	504	613
5	0	0	0	0	504	618
6	0	0	0	0	505	618
7	0	0	0	0	505	618
8	0	0	0	0	505	622
9	0	0	0	0	505	617
10	0	0	0	0	504	617
11	0	0	0	0	504	617
12	0	0	0	0	504	611
13	0	0	0	0	504	616
14	0	0	0	0	503	617
15	0	0	0	0	503	617
0	0	0	0	0	503	621
1	0	0	0	0	503	616
2	0	0	0	0	502	617
3	0	0	0	0	502	617
4	0	0	0	0	503	612
5	0	0	0	0	503	617
6	0	0	0	0	502	618
7	0	0	0	0	502	618
8	0	0	0	0	503	622
9	0	0	0	0	503	618
10	0	0	0	0	502	618
11	0	0	0	0	501	619
12	0	0	0	0	500	614
13	0	0	0	0	499	619
14	0	0	0	0	499	619
15	0	0	0	0	499	620
0	0	0	0	0	498	624
1	0	0	0	0	499	620
2	0	0	0	0	499	620
3	0	0	0	0	499	619
4	0	0	0	0	499	615
5	0	0	0	0	499	619
6	0	0	0	0	500	620
7	0	0	0	0	500	619
8	0	0	0	0	501	623
9	0	0	0	0	501	619
10	0	0	0	0	502	618
11	0	0	0	0	503	617
12	0	0	0	0	504	613
13	0	0	0	0	504	618
14	0	0	0	0	503	617
15	0	0	0	0	503	617
0	0	0	0	0	503	621
1	0	0	0	0	502	617
2	0	0	0	0	500	617
3	0	0	0	0	497	616
4	0	0	0	0	491	611
5	0	0	0	0	483	616
6	0	0	0	0	472	617
7	0	0	0	0	457	617
8	0	0	0	0	441	621
9	0	0	0	0	425	616
10	0	0	0	0	410	617
11	0	0	0	0	397	617
12	0	0	0	0	387	612
13	0	0	0	0	376	617
14	0	0	0	0	366	617
15	0	0	0	0	355	618
0	0	0	0	0	345	622
1	0	0	0	0	337	617
2	0	0	0	0	331	617
3	0	0	0	0	326	617
4	0	0	0	0	321	612
5	0	0	0	0	316	617
6	0	0	0	0	313	617
7	0	0	0	0	314	617
8	0	0	0	0	323	621
9	0	0	0	0	339	616
10	0	0	0	0	361	617
11	0	0	0	0	394	616
12	0	0	0	0	440	612
13	0	0	0	0	493	616
14	0	0	0	0	555	616
15	0	0	0	0	621	616
0	0	0	0	0	692	620
1	0	0	0	0	773	617
2	0	0	0	0	860	616
3	0	0	0	0	954	616
4	0	0	0	0	1022	611
5	0	0	0	0	1022	616
6	0	0	0	0	1022	617
7	0	0	0	0	1022	618
8	0	0	0	0	1022	622
9	0	0	0	0	1022	618
10	0	0	0	0	1022	617
11	0	0	0	0	1022	618
12	0	0	0	0	1022	613
13	0	0	0	0	1022	620
14	0	0	0	0	1022	619
15	0	0	0	0	1022	620
0	0	0	0	0	1022	624
1	0	0	0	0	1022	620
2	0	0	0	0	1022	620
3	0	0	0	0	1022	620
4	0	0	0	0	1022	615
5	0	0	0	0	1004	620
6	0	0	0	0	972	619
7	0	0	0	0	943	620
8	0	0	0	0	917	624
9	0	0	0	0	893	619
10	0	0	0	0	870	618
11	0	0	0	0	844	618
12	0	0	0	0	815	613
13	0	0	0	0	782	618
14	0	0	0	0	747	618
15	0	0	0	0	711	617
0	0	0	0	0	675	621
1	0	0	0	0	642	617
2	0	0	0	0	612	616
3	0	0	0	0	585	616
4	0	0	0	0	560	612
5	0	0	0	0	537	616
6	0	0	0	0	515	616
7	0	0	0	0	496	617
8	0	0	0	0	478	621
9	0	0	0	0	460	617
10	0	0	0	0	444	616
11	0	0	0	0	428	616
12	0	0	0	0	415	612
13	0	0	0	0	402	617
14	0	0	0	0	391	617
15	0	0	0	0	380	618
0	0	0	0	0	370	622
1	0	0	0	0	362	618
2	0	0	0	0	353	617
3	0	0	0	0	346	618
4	0	0	0	0	339	613
5	0	0	0	0	333	618
6	0	0	0	0	327	618
7	0	0	0	0	321	618
8	0	0	0	0	318	622
9	0	0	0	0	314	618
10	0	0	0	0	311	618
11	0	0	0	0	309	618
12	0	0	0	0	307	613
13	0	0	0	0	307	618
14	0	0	0	0	306	617
15	0	0	0	0	306	618
0	0	0	0	0	305	622
1	0	0	0	0	306	617
2	0	0	0	0	305	617
3	0	0	0	0	304	617
4	0	0	0	0	304	612
5	0	0	0	0	305	616
6	0	0	0	0	305	617
7	0	0	0	0	306	617
8	0	0	0	0	307	620
9	0	0	0	0	307	617
10	0	0	0	0	308	617
11	0	0	0	0	309	617
12	0	0	0	0	310	612
13	0	0	0	0	310	617
14	0	0	0	0	312	617
15	0	0	0	0	312	617
0	0	0	0	0	314	621
1	0	0	0	0	316	617
2	0	0	0	0	316	617
3	0	0	0	0	318	617
4	0	0	0	0	319	612
5	0	0	0	0	320	617
6	0	0	0	0	320	617
7	0	0	0	0	321	617
8	0	0	0	0	322	622
9	0	0	0	0	323	617
10	0	0	0	0	324	616
11	0	0	0	0	327	617
12	0	0	0	0	327	611
13	0	0	0	0	328	616
14	0	0	0	0	330	616
15	0	0	0	0	332	617
0	0	0	0	0	333	622
1	0	0	0	0	335	617
2	0	0	0	0	335	617
3	0	0	0	0	337	617
4	0	0	0	0	339	612
5	0	0	0	0	340	618
6	0	0	0	0	342	617
7	0	0	0	0	343	618
8	0	0	0	0	344	622
9	0	0	0	0	345	618
10	0	0	0	0	346	619
11	0	0	0	0	348	618
12	0	0	0	0	348	613
13	0	0	0	0	348	619
14	0	0	0	0	349	619
15	0	0	0	0	351	619
0	0	0	0	0	352	624
1	0	0	0	0	354	619
2	0	0	0	0	355	620
3	0	0	0	0	356	619
4	0	0	0	0	358	615
5	0	0	0	0	359	620
6	0	0	0	0	360	619
7	0	0	0	0	362	620
8	0	0	0	0	363	624
9	0	0	0	0	364	620
10	0	0	0	0	365	619
11	0	0	0	0	366	619
12	0	0	0	0	367	614
13	0	0	0	0	368	618
14	0	0	0	0	369	619
15	0	0	0	0	369	618
0	0	0	0	0	370	623
1	0	0	0	0	371	618
2	0	0	0	0	372	618
3	0	0	0	0	372	618
4	0	0	0	0	373	612
5	0	0	0	0	374	618
6	0	0	0	0	374	618
7	0	0	0	0	375	618
8	0	0	0	0	375	622
9	0	0	0	0	375	618
10	0	0	0	0	375	618
11	0	0	0	0	376	619
12	0	0	0	0	376	613
13	0	0	0	0	376	619
14	0	0	0	0	376	619
15	0	0	0	0	377	618
0	0	0	0	0	376	622
1	0	0	0	0	377	617
2	0	0	0	0	377	618
3	0	0	0	0	378	617
4	0	0	0	0	379	612
5	0	0	0	0	379	617
6	0	0	0	0	379	617
7	0	0	0	0	379	617
8	0	0	0	0	380	621
9	0	0	0	0	380	617
10	0	0	0	0	380	616
11	0	0	0	0	381	616
12	0	0	0	0	381	611
13	0	0	0	0	382	615
14	0	0	0	0	382	616
15	0	0	0	0	382	617
0	0	0	0	0	382	621
1	0	0	0	0	382	617
2	0	0	0	0	381	618
3	0	0	0	0	380	618
4	0	0	0	0	380	613
5	0	0	0	0	380	618
6	0	0	0	0	380	618
7	0	0	0	0	381	618
8	0	0	0	0	381	623
9	0	0	0	0	380	619
10	0	0	0	0	380	619
11	0	0	0	0	379	619
12	0	0	0	0	378	613
13	0	0	0	0	377	619
14	0	0	0	0	375	618
15	0	0	0	0	373	619
0	0	0	0	0	372	623
1	0	0	0	0	372	619
2	0	0	0	0	371	619
3	0	0	0	0	371	619
4	0	0	0	0	371	614
5	0	0	0	0	371	619
6	0	0	0	0	371	619
7	0	0	0	0	371	619
8	0	0	0	0	371	623
9	0	0	0	0	371	617
10	0	0	0	0	370	618
11	0	0	0	0	369	617
12	0	0	0	0	369	612
13	0	0	0	0	369	617
14	0	0	0	0	369	617
15	0	0	0	0	369	617
0	0	0	0	0	369	622
1	0	0	0	0	369	617
2	0	0	0	0	369	616
3	0	0	0	0	368	617
4	0	0	0	0	368	612
5	0	0	0	0	369	617
6	0	0	0	0	369	617
7	0	0	0	0	370	617
8	0	0	0	0	370	621
9	0	0	0	0	371	617
10	0	0	0	0	371	617
11	0	0	0	0	371	617
12	0	0	0	0	372	613
13	0	0	0	0	372	617
14	0	0	0	0	374	617
15	0	0	0	0	375	617
0	0	0	0	0	377	622
1	0	0	0	0	379	617
2	0	0	0	0	380	617
3	0	0	0	0	383	617
4	0	0	0	0	384	612
5	0	0	0	0	387	617
6	0	0	0	0	390	617
7	0	0	0	0	392	617
8	0	0	0	0	394	622
9	0	0	0	0	396	618
10	0	0	0	0	398	617
11	0	0	0	0	400	618
12	0	0	0	0	403	614
13	0	0	0	0	406	619
14	0	0	0	0	408	619
15	0	0	0	0	410	619
0	0	0	0	0	412	624
1	0	0	0	0	415	620
2	0	0	0	0	417	620
3	0	0	0	0	420	619
4	0	0	0	0	423	614
5	0	0	0	0	427	620
6	0	0	0	0	430	619
7	0	0	0	0	433	620
8	0	0	0	0	437	623
9	0	0	0	0	441	619
10	0	0	0	0	445	620
11	0	0	0	0	449	619
12	0	0	0	0	454	615
13	0	0	0	0	460	619
14	0	0	0	0	464	619
15	0	0	0	0	470	620
0	0	0	0	0	474	623
1	0	0	0	0	478	619
2	0	0	0	0	481	618
3	0	0	0	0	486	618
4	0	0	0	0	491	613
5	0	0	0	0	496	617
6	0	0	0	0	500	617
7	0	0	0	0	505	617
8	0	0	0	0	510	620
9	0	0	0	0	515	615
10	0	0	0	0	519	615
11	0	0	0	0	524	615
12	0	0	0	0	529	611
13	0	0	0	0	533	615
14	0	0	0	0	537	615
15	0	0	0	0	542	615
0	0	0	0	0	547	620
1	0	0	0	0	552	615
2	0	0	0	0	556	615
3	0	0	0	0	560	615
4	0	0	0	0	564	611
5	0	0	0	0	567	616
6	0	0	0	0	571	616
7	0	0	0	0	574	616
8	0	0	0	0	577	621
9	0	0	0	0	580	617
10	0	0	0	0	583	617
11	0	0	0	0	585	617
12	0	0	0	0	589	613
13	0	0	0	0	591	617
14	0	0	0	0	594	617
15	0	0	0	0	597	619
0	0	0	0	0	598	623
1	0	0	0	0	600	619
2	0	0	0	0	602	619
3	0	0	0	0	604	619
4	0	0	0	0	606	614
5	0	0	0	0	608	619
6	0	0	0	0	610	619
7	0	0	0	0	611	620
8	0	0	0	0	611	623
9	0	0	0	0	612	620
10	0	0	0	0	612	619
11	0	0	0	0	614	620
12	0	0	0	0	615	614
13	0	0	0	0	616	619
14	0	0	0	0	617	619
15	0	0	0	0	617	620
0	0	0	0	0	616	623
1	0	0	0	0	617	619
2	0	0	0	0	617	619
3	0	0	0	0	617	618
4	0	0	0	0	617	614
5	0	0	0	0	617	619
6	0	0	0	0	618	619
7	0	0	0	0	618	619
8	0	0	0	0	618	623
9	0	0	0	0	618	619
10	0	0	0	0	618	619
11	0	0	0	0	619	619
12	0	0	0	0	618	613
13	0	0	0	0	618	618
14	0	0	0	0	617	619
15	0	0	0	0	617	619
0	0	0	0	0	617	623
1	0	0	0	0	617	619
2	0	0	0	0	615	619
3	0	0	0	0	615	618
4	0	0	0	0	615	613
5	0	0	0	0	615	617
6	0	0	0	0	615	618
7	0	0	0	0	614	617
8	0	0	0	0	613	621
9	0	0	0	0	614	617
10	0	0	0	0	613	617
11	0	0	0	0	612	616
12	0	0	0	0	611	612
13	0	0	0	0	609	616
14	0	0	0	0	609	617
15	0	0	0	0	608	617
0	0	0	0	0	607	621
1	0	0	0	0	607	617
2	0	0	0	0	607	617
3	0	0	0	0	605	618
4	0	0	0	0	604	613
5	0	0	0	0	603	618
6	0	0	0	0	602	618
7	0	0	0	0	601	619
8	0	0	0	0	600	622
9	0	0	0	0	600	619
10	0	0	0	0	600	618
11	0	0	0	0	599	619
12	0	0	0	0	599	613
13	0	0	0	0	600	619
14	0	0	0	0	599	619
15	0	0	0	0	599	619
0	0	0	0	0	598	623
1	0	0	0	0	597	619
2	0	0	0	0	596	619
3	0	0	0	0	596	619
4	0	0	0	0	594	614
5	0	0	0	0	593	619
6	0	0	0	0	592	619
7	0	0	0	0	591	620
8	0	0	0	0	590	623
9	0	0	0	0	589	619
10	0	0	0	0	588	619
11	0	0	0	0	587	618
12	0	0	0	0	586	613
13	0	0	0	0	585	618
14	0	0	0	0	583	619
15	0	0	0	0	582	618
0	0	0	0	0	580	622
1	0	0	0	0	579	617
2	0	0	0	0	578	618
3	0	0	0	0	576	617
4	0	0	0	0	576	612
5	0	0	0	0	575	617
6	0	0	0	0	574	616
7	0	0	0	0	574	617
8	0	0	0	0	572	620
9	0	0	0	0	571	616
10	0	0	0	0	569	616
11	0	0	0	0	568	616
12	0	0	0	0	567	611
13	0	0	0	0	566	616
14	0	0	0	0	565	616
15	0	0	0	0	564	616
0	0	0	0	0	562	620
1	0	0	0	0	561	616
2	0	0	0	0	560	615
3	0	0	0	0	559	616
4	0	0	0	0	558	611
5	0	0	0	0	557	616
6	0	0	0	0	557	616
7	0	0	0	0	556	617
8	0	0	0	0	555	620
9	0	0	0	0	554	616
10	0	0	0	0	554	616
11	0	0	0	0	553	616
12	0	0	0	0	551	612
13	0	0	0	0	551	618
14	0	0	0	0	551	618
15	0	0	0	0	550	618
0	0	0	0	0	549	623
1	0	0	0	0	548	619
2	0	0	0	0	548	619
3	0	0	0	0	547	619
4	0	0	0	0	546	614
5	0	0	0	0	545	620
6	0	0	0	0	545	620
7	0	0	0	0	545	620
8	0	0	0	0	545	624
9	0	0	0	0	546	620
10	0	0	0	0	545	620
11	0	0	0	0	544	620
12	0	0	0	0	543	615
13	0	0	0	0	541	620
14	0	0	0	0	541	620
15	0	0	0	0	540	619
0	0	0	0	0	540	623
1	0	0	0	0	539	619
2	0	0	0	0	538	620
3	0	0	0	0	539	619
4	0	0	0	0	539	614
5	0	0	0	0	538	619
6	0	0	0	0	538	619
7	0	0	0	0	538	619
8	0	0	0	0	539	622
9	0	0	0	0	539	618
10	0	0	0	0	539	618
11	0	0	0	0	539	618
12	0	0	0	0	539	613
13	0	0	0	0	539	617
14	0	0	0	0	540	617
15	0	0	0	0	539	617
0	0	0	0	0	539	622
1	0	0	0	0	539	617
2	0	0	0	0	540	617
3	0	0	0	0	539	617
4	0	0	0	0	539	612
5	0	0	0	0	539	617
6	0	0	0	0	539	617
7	0	0	0	0	540	617
8	0	0	0	0	539	622
9	0	0	0	0	539	617
10	0	0	0	0	539	618
11	0	0	0	0	539	617
12	0	0	0	0	538	612
13	0	0	0	0	538	618
14	0	0	0	0	537	617
15	0	0	0	0	537	617
0	0	0	0	0	537	622
1	0	0	0	0	538	617
2	0	0	0	0	538	617
3	0	0	0	0	537	617
4	0	0	0	0	537	613
5	0	0	0	0	537	617
6	0	0	0	0	537	616
7	0	0	0	0	537	618
8	0	0	0	0	537	622
9	0	0	0	0	537	618
10	0	0	0	0	537	618
11	0	0	0	0	537	617
12	0	0	0	0	535	612
13	0	0	0	0	535	617
14	0	0	0	0	534	617
15	0	0	0	0	533	618
0	0	0	0	0	534	623
1	0	0	0	0	534	618
2	0	0	0	0	534	618
3	0	0	0	0	535	618
4	0	0	0	0	536	613
5	0	0	0	0	536	618
6	0	0	0	0	536	618
7	0	0	0	0	536	618
8	0	0	0	0	536	623
9	0	0	0	0	536	619
10	0	0	0	0	537	618
11	0	0	0	0	537	618
12	0	0	0	0	537	612
13	0	0	0	0	537	618
14	0	0	0	0	536	618
15	0	0	0	0	536	618
0	0	0	0	0	536	622
1	0	0	0	0	535	617
2	0	0	0	0	535	617
3	0	0	0	0	534	617
4	0	0	0	0	534	612
5	0	0	0	0	534	617
6	0	0	0	0	534	617
7	0	0	0	0	534	617
8	0	0	0	0	534	621
9	0	0	0	0	534	617
10	0	0	0	0	534	617
11	0	0	0	0	534	616
12	0	0	0	0	534	611
13	0	0	0	0	535	616
14	0	0	0	0	536	616
15	0	0	0	0	536	617
0	0	0	0	0	537	620
1	0	0	0	0	536	616
2	0	0	0	0	536	616
3	0	0	0	0	536	616
4	0	0	0	0	536	611
5	0	0	0	0	536	616
6	0	0	0	0	536	616
7	0	0	0	0	535	617
8	0	0	0	0	535	621
9	0	0	0	0	535	617
10	0	0	0	0	534	617
11	0	0	0	0	534	618
12	0	0	0	0	533	612
13	0	0	0	0	533	617
14	0	0	0	0	533	617
15	0	0	0	0	533	618
0	0	0	0	0	532	623
1	0	0	0	0	532	618
2	0	0	0	0	532	619
3	0	0	0	0	531	619
4	0	0	0	0	529	614
5	0	0	0	0	529	619
6	0	0	0	0	529	618
7	0	0	0	0	529	619
8	0	0	0	0	529	623
9	0	0	0	0	529	619
10	0	0	0	0	529	619
11	0	0	0	0	530	618
12	0	0	0	0	530	614
13	0	0	0	0	530	619
14	0	0	0	0	530	619
15	0	0	0	0	531	620
0	0	0	0	0	531	624
1	0	0	0	0	531	619
2	0	0	0	0	531	619
3	0	0	0	0	530	619
4	0	0	0	0	530	614
5	0	0	0	0	530	619
6	0	0	0	0	529	619
7	0	0	0	0	528	618
8	0	0	0	0	528	623
9	0	0	0	0	528	619
10	0	0	0	0	527	618
11	0	0	0	0	527	619
12	0	0	0	0	528	613
13	0	0	0	0	529	618
14	0	0	0	0	528	617
15	0	0	0	0	527	617
0	0	0	0	0	527	622
1	0	0	0	0	527	617
2	0	0	0	0	526	616
3	0	0	0	0	526	617
4	0	0	0	0	527	612
5	0	0	0	0	527	617
6	0	0	0	0	527	617
7	0	0	0	0	527	617
8	0	0	0	0	527	621
9	0	0	0	0	527	617
10	0	0	0	0	526	617
11	0	0	0	0	526	617
12	0	0	0	0	526	612
13	0	0	0	0	526	617
14	0	0	0	0	524	617
15	0	0	0	0	523	617
0	0	0	0	0	523	622
1	0	0	0	0	523	617
2	0	0	0	0	523	617
3	0	0	0	0	523	617
4	0	0	0	0	523	613
5	0	0	0	0	523	618
6	0	0	0	0	522	618
7	0	0	0	0	522	618
8	0	0	0	0	522	622
9	0	0	0	0	522	619
10	0	0	0	0	522	619
11	0	0	0	0	522	619
12	0	0	0	0	520	614
13	0	0	0	0	519	618
14	0	0	0	0	519	619
15	0	0	0	0	519	619
0	0	0	0	0	518	623
1	0	0	0	0	518	619
2	0	0	0	0	518	619
3	0	0	0	0	518	619
4	0	0	0	0	518	613
5	0	0	0	0	519	619
6	0	0	0	0	519	618
7	0	0	0	0	520	618
8	0	0	0	0	520	622
9	0	0	0	0	521	617
10	0	0	0	0	521	617
11	0	0	0	0	522	617
12	0	0	0	0	521	612
13	0	0	0	0	521	617
14	0	0	0	0	521	617
15	0	0	0	0	521	616
0	0	0	0	0	521	621
1	0	0	0	0	521	617
2	0	0	0	0	520	617
3	0	0	0	0	519	617
4	0	0	0	0	519	612
5	0	0	0	0	519	617
6	0	0	0	0	519	617
7	0	0	0	0	519	618
8	0	0	0	0	519	622
9	0	0	0	0	519	618
10	0	0	0	0	519	618
11	0	0	0	0	519	617
12	0	0	0	0	519	612
13	0	0	0	0	520	617
14	0	0	0	0	520	618
15	0	0	0	0	520	619
0	0	0	0	0	520	623
1	0	0	0	0	520	618
2	0	0	0	0	519	618
3	0	0	0	0	518	618
4	0	0	0	0	519	613
5	0	0	0	0	519	618
6	0	0	0	0	519	617
7	0	0	0	0	519	619
8	0	0	0	0	519	623
9	0	0	0	0	519	618
10	0	0	0	0	518	618
11	0	0	0	0	518	618
12	0	0	0	0	517	614
13	0	0	0	0	517	618
14	0	0	0	0	517	618
15	0	0	0	0	517	619
0	0	0	0	0	517	623
1	0	0	0	0	517	619
2	0	0	0	0	517	619
3	0	0	0	0	517	619
4	0	0	0	0	516	614
5	0	0	0	0	516	619
6	0	0	0	0	516	619
7	0	0	0	0	516	618
8	0	0	0	0	516	623
9	0	0	0	0	516	619
10	0	0	0	0	517	618
11	0	0	0	0	517	618
12	0	0	0	0	517	613
13	0	0	0	0	516	618
14	0	0	0	0	516	618
15	0	0	0	0	516	617
0	0	0	0	0	515	621
1	0	0	0	0	515	617
2	0	0	0	0	515	618
3	0	0	0	0	515	617
4	0	0	0	0	515	612
5	0	0	0	0	516	618
6	0	0	0	0	516	617
7	0	0	0	0	515	617
8	0	0	0	0	515	621
9	0	0	0	0	515	617
10	0	0	0	0	515	617
11	0	0	0	0	515	617
12	0	0	0	0	515	612
13	0	0	0	0	515	617
14	0	0	0	0	514	617
15	0	0	0	0	514	617
0	0	0	0	0	514	622
1	0	0	0	0	514	617
2	0	0	0	0	514	617
3	0	0	0	0	513	617
4	0	0	0	0	514	612
5	0	0	0	0	514	618
6	0	0	0	0	514	618
7	0	0	0	0	513	617
8	0	0	0	0	513	622
9	0	0	0	0	513	618
10	0	0	0	0	513	617
11	0	0	0	0	513	617
12	0	0	0	0	512	612
13	0	0	0	0	511	617
14	0	0	0	0	511	617
15	0	0	0	0	512	617
0	0	0	0	0	511	622
1	0	0	0	0	510	617
2	0	0	0	0	509	617
3	0	0	0	0	509	617
4	0	0	0	0	508	612
5	0	0	0	0	508	617
6	0	0	0	0	508	617
7	0	0	0	0	508	618
8	0	0	0	0	508	622
9	0	0	0	0	508	617
10	0	0	0	0	508	618
11	0	0	0	0	508	617
12	0	0	0	0	505	613
13	0	0	0	0	503	618
14	0	0	0	0	501	618
15	0	0	0	0	499	619
0	0	0	0	0	498	622
1	0	0	0	0	497	618
2	0	0	0	0	495	619
3	0	0	0	0	494	618
4	0	0	0	0	492	612
5	0	0	0	0	492	618
6	0	0	0	0	492	618
7	0	0	0	0	492	619
8	0	0	0	0	493	623
9	0	0	0	0	494	619
10	0	0	0	0	494	618
11	0	0	0	0	494	617
12	0	0	0	0	493	613
13	0	0	0	0	493	618
14	0	0	0	0	493	617
15	0	0	0	0	494	618
0	0	0	0	0	495	622
1	0	0	0	0	496	618
2	0	0	0	0	496	617
3	0	0	0	0	497	618
4	0	0	0	0	498	612
5	0	0	0	0	499	617
6	0	0	0	0	500	617
7	0	0	0	0	502	617
8	0	0	0	0	503	621
9	0	0	0	0	504	617
10	0	0	0	0	505	617
11	0	0	0	0	505	617
12	0	0	0	0	506	612
13	0	0	0	0	506	617
14	0	0	0	0	506	617
15	0	0	0	0	507	617
0	0	0	0	0	507	622
1	0	0	0	0	507	618
2	0	0	0	0	507	618
3	0	0	0	0	507	618
4	0	0	0	0	506	614
5	0	0	0	0	506	618
6	0	0	0	0	505	618
7	0	0	0	0	505	619
8	0	0	0	0	504	623
9	0	0	0	0	504	619
10	0	0	0	0	504	618
11	0	0	0	0	503	618
12	0	0	0	0	502	614
13	0	0	0	0	501	619
14	0	0	0	0	499	620
15	0	0	0	0	499	619
0	0	0	0	0	498	623
1	0	0	0	0	499	619
2	0	0	0	0	500	619
3	0	0	0	0	502	618
4	0	0	0	0	502	614
5	0	0	0	0	503	618
6	0	0	0	0	503	619
7	0	0	0	0	503	618
8	0	0	0	0	503	622
9	0	0	0	0	504	618
10	0	0	0	0	503	617
11	0	0	0	0	504	618
12	0	0	0	0	505	612
13	0	0	0	0	505	618
14	0	0	0	0	505	617
15	0	0	0	0	506	618
0	0	0	0	0	507	622
1	0	0	0	0	507	617
2	0	0	0	0	507	617
3	0	0	0	0	507	617
4	0	0	0	0	507	612
5	0	0	0	0	507	617
6	0	0	0	0	507	617
7	0	0	0	0	507	617
8	0	0	0	0	507	621
9	0	0	0	0	507	617
10	0	0	0	0	507	617
11	0	0	0	0	508	617
12	0	0	0	0	508	612
13	0	0	0	0	508	617
14	0	0	0	0	508	618
15	0	0	0	0	507	618
0	0	0	0	0	507	622
1	0	0	0	0	507	618
2	0	0	0	0	507	617
3	0	0	0	0	507	618
4	0	0	0	0	506	612
5	0	0	0	0	506	617
6	0	0	0	0	506	618
7	0	0	0	0	506	619
8	0	0	0	0	506	623
9	0	0	0	0	505	619
10	0	0	0	0	504	619
11	0	0	0	0	504	619
12	0	0	0	0	504	614
13	0	0	0	0	504	619
14	0	0	0	0	503	618
15	0	0	0	0	503	618
0	0	0	0	0	503	622
1	0	0	0	0	504	618
2	0	0	0	0	504	618
3	0	0	0	0	504	618
4	0	0	0	0	505	613
5	0	0	0	0	506	619
6	0	0	0	0	505	618
7	0	0	0	0	505	618
8	0	0	0	0	504	622
9	0	0	0	0	505	618
10	0	0	0	0	504	619
11	0	0	0	0	505	619
12	0	0	0	0	504	614
13	0	0	0	0	504	618
14	0	0	0	0	504	619
15	0	0	0	0	503	619
0	0	0	0	0	503	622
1	0	0	0	0	503	618
2	0	0	0	0	503	617
3	0	0	0	0	503	617
4	0	0	0	0	503	613
5	0	0	0	0	503	618
6	0	0	0	0	504	619
7	0	0	0	0	504	618
8	0	0	0	0	504	622
9	0	0	0	0	504	619
10	0	0	0	0	504	618
11	0	0	0	0	504	618
12	0	0	0	0	504	614
13	0	0	0	0	504	618
14	0	0	0	0	504	618
15	0	0	0	0	503	618
0	0	0	0	0	501	622
1	0	0	0	0	498	617
2	0	0	0	0	493	617
3	0	0	0	0	485	617
4	0	0	0	0	474	613
5	0	0	0	0	462	617
6	0	0	0	0	447	619
7	0	0	0	0	433	617
8	0	0	0	0	419	622
9	0	0	0	0	407	617
10	0	0	0	0	397	617
11	0	0	0	0	387	617
12	0	0	0	0	377	611
13	0	0	0	0	366	617
14	0	0	0	0	356	617
15	0	0	0	0	350	617
0	0	0	0	0	344	621
1	0	0	0	0	338	617
2	0	0	0	0	332	617
3	0	0	0	0	328	617
4	0	0	0	0	326	612
5	0	0	0	0	328	617
6	0	0	0	0	339	617
7	0	0	0	0	355	617
8	0	0	0	0	376	621
9	0	0	0	0	404	617
10	0	0	0	0	440	617
11	0	0	0	0	482	617
12	0	0	0	0	531	612
13	0	0	0	0	586	617
14	0	0	0	0	647	617
15	0	0	0	0	718	617
0	0	0	0	0	795	622
1	0	0	0	0	877	617
2	0	0	0	0	962	617
3	0	0	0	0	1022	617
4	0	0	0	0	1022	612
5	0	0	0	0	1022	617
6	0	0	0	0	1022	617
7	0	0	0	0	1022	617
8	0	0	0	0	1022	621
9	0	0	0	0	1022	617
10	0	0	0	0	1022	617
11	0	0	0	0	1022	617
12	0	0	0	0	1022	612
13	0	0	0	0	1022	617
14	0	0	0	0	1022	617
15	0	0	0	0	1022	617
0	0	0	0	0	1022	622
1	0	0	0	0	1016	617
2	0	0	0	0	982	617
3	0	0	0	0	957	618
4	0	0	0	0	934	613
5	0	0	0	0	916	619
6	0	0	0	0	900	619
7	0	0	0	0	884	620
8	0	0	0	0	866	624
9	0	0	0	0	844	619
10	0	0	0	0	820	619
11	0	0	0	0	792	619
12	0	0	0	0	761	614
13	0	0	0	0	729	619
14	0	0	0	0	696	619
15	0	0	0	0	665	619
0	0	0	0	0	638	623
1	0	0	0	0	613	618
2	0	0	0	0	590	618
3	0	0	0	0	569	617
4	0	0	0	0	549	611
5	0	0	0	0	530	618
6	0	0	0	0	512	617
7	0	0	0	0	494	617
8	0	0	0	0	478	622
9	0	0	0	0	463	617
10	0	0	0	0	450	617
11	0	0	0	0	438	617
12	0	0	0	0	426	611
13	0	0	0	0	416	617
14	0	0	0	0	407	617
15	0	0	0	0	398	616
0	0	0	0	0	391	621
1	0	0	0	0	384	616
2	0	0	0	0	377	616
3	0	0	0	0	371	616
4	0	0	0	0	365	611
5	0	0	0	0	360	617
6	0	0	0	0	355	617
7	0	0	0	0	351	617
8	0	0	0	0	347	621
9	0	0	0	0	344	617
10	0	0	0	0	341	617
11	0	0	0	0	339	617
12	0	0	0	0	337	612
13	0	0	0	0	336	617
14	0	0	0	0	336	618
15	0	0	0	0	335	618
0	0	0	0	0	335	622
1	0	0	0	0	335	618
2	0	0	0	0	336	618
3	0	0	0	0	337	618
4	0	0	0	0	337	613
5	0	0	0	0	337	619
6	0	0	0	0	338	619
7	0	0	0	0	338	618
8	0	0	0	0	338	622
9	0	0	0	0	339	618
10	0	0	0	0	339	619
11	0	0	0	0	340	618
12	0	0	0	0	340	614
13	0	0	0	0	341	619
14	0	0	0	0	342	619
15	0	0	0	0	342	619
0	0	0	0	0	343	623
1	0	0	0	0	344	619
2	0	0	0	0	345	618
3	0	0	0	0	346	618
4	0	0	0	0	347	613
5	0	0	0	0	349	618
6	0	0	0	0	349	617
7	0	0	0	0	351	618
8	0	0	0	0	352	622
9	0	0	0	0	354	618
10	0	0	0	0	355	618
11	0	0	0	0	355	617
12	0	0	0	0	356	613
13	0	0	0	0	357	618
14	0	0	0	0	358	617
15	0	0	0	0	359	617
0	0	0	0	0	360	622
1	0	0	0	0	361	617
2	0	0	0	0	361	618
3	0	0	0	0	363	618
4	0	0	0	0	365	613
5	0	0	0	0	366	618
6	0	0	0	0	367	618
7	0	0	0	0	368	617
8	0	0	0	0	369	622
9	0	0	0	0	371	617
10	0	0	0	0	371	618
11	0	0	0	0	372	618
12	0	0	0	0	374	612
13	0	0	0	0	375	617
14	0	0	0	0	376	617
15	0	0	0	0	376	617
0	0	0	0	0	378	621
1	0	0	0	0	379	617
2	0	0	0	0	379	617
3	0	0	0	0	380	617
4	0	0	0	0	381	612
5	0	0	0	0	382	617
6	0	0	0	0	383	617
7	0	0	0	0	383	617
8	0	0	0	0	383	621
9	0	0	0	0	384	618
10	0	0	0	0	385	617
11	0	0	0	0	386	617
12	0	0	0	0	387	612
13	0	0	0	0	388	618
14	0	0	0	0	389	617
15	0	0	0	0	390	618
0	0	0	0	0	391	622
1	0	0	0	0	391	619
2	0	0	0	0	392	618
3	0	0	0	0	393	618
4	0	0	0	0	393	613
5	0	0	0	0	393	618
6	0	0	0	0	394	620
7	0	0	0	0	395	619
8	0	0	0	0	395	623
9	0	0	0	0	396	619
10	0	0	0	0	397	619
11	0	0	0	0	398	619
12	0	0	0	0	398	614
13	0	0	0	0	398	619
14	0	0	0	0	398	619
15	0	0	0	0	399	618
0	0	0	0	0	399	622
1	0	0	0	0	399	618
2	0	0	0	0	399	618
3	0	0	0	0	399	617
4	0	0	0	0	399	612
5	0	0	0	0	399	618
6	0	0	0	0	399	618
7	0	0	0	0	399	618
8	0	0	0	0	399	622
9	0	0	0	0	399	618
10	0	0	0	0	399	617
11	0	0	0	0	399	616
12	0	0	0	0	399	611
13	0	0	0	0	399	617
14	0	0	0	0	399	616
15	0	0	0	0	400	616
0	0	0	0	0	400	620
1	0	0	0	0	400	616
2	0	0	0	0	399	617
3	0	0	0	0	399	616
4	0	0	0	0	399	611
5	0	0	0	0	398	616
6	0	0	0	0	398	617
7	0	0	0	0	397	617
8	0	0	0	0	396	621
9	0	0	0	0	395	616
10	0	0	0	0	394	617
11	0	0	0	0	393	617
12	0	0	0	0	393	612
13	0	0	0	0	392	617
14	0	0	0	0	391	618
15	0	0	0	0	391	618
0	0	0	0	0	390	622
1	0	0	0	0	390	618
2	0	0	0	0	389	618
3	0	0	0	0	388	619
4	0	0	0	0	388	614
5	0	0	0	0	388	619
6	0	0	0	0	387	619
7	0	0	0	0	387	619
8	0	0	0	0	386	623
9	0	0	0	0	386	619
10	0	0	0	0	386	619
11	0	0	0	0	386	619
12	0	0	0	0	385	615
13	0	0	0	0	386	620
14	0	0	0	0	385	620
15	0	0	0	0	385	620
0	0	0	0	0	385	624
1	0	0	0	0	386	620
2	0	0	0	0	385	619
3	0	0	0	0	385	619
4	0	0	0	0	385	615
5	0	0	0	0	385	620
6	0	0	0	0	385	619
7	0	0	0	0	386	619
8	0	0	0	0	387	623
9	0	0	0	0	387	618
10	0	0	0	0	388	618
11	0	0	0	0	390	618
12	0	0	0	0	390	612
13	0	0	0	0	392	618
14	0	0	0	0	393	618
15	0	0	0	0	394	618
0	0	0	0	0	396	622
1	0	0	0	0	398	618
2	0	0	0	0	399	617
3	0	0	0	0	401	618
4	0	0	0	0	403	613
5	0	0	0	0	404	617
6	0	0	0	0	406	617
7	0	0	0	0	408	618
8	0	0	0	0	411	621
9	0	0	0	0	413	617
10	0	0	0	0	415	617
11	0	0	0	0	417	617
12	0	0	0	0	419	611
13	0	0	0	0	421	617
14	0	0	0	0	423	616
15	0	0	0	0	426	616
0	0	0	0	0	430	620
1	0	0	0	0	432	616
2	0	0	0	0	435	616
3	0	0	0	0	438	616
4	0	0	0	0	442	611
5	0	0	0	0	445	617
6	0	0	0	0	448	617
7	0	0	0	0	452	617
8	0	0	0	0	455	621
9	0	0	0	0	458	617
10	0	0	0	0	461	617
11	0	0	0	0	464	617
12	0	0	0	0	467	612
13	0	0	0	0	471	617
14	0	0	0	0	475	617
15	0	0	0	0	479	617
0	0	0	0	0	483	622
1	0	0	0	0	487	618
2	0	0	0	0	490	617
3	0	0	0	0	494	618
4	0	0	0	0	498	613
5	0	0	0	0	502	617
6	0	0	0	0	506	618
7	0	0	0	0	510	618
8	0	0	0	0	515	621
9	0	0	0	0	519	616
10	0	0	0	0	524	616
11	0	0	0	0	527	616
12	0	0	0	0	531	612
13	0	0	0	0	535	617
14	0	0	0	0	538	617
15	0	0	0	0	542	617
0	0	0	0	0	544	621
1	0	0	0	0	548	616
2	0	0	0	0	551	617
3	0	0	0	0	553	616
4	0	0	0	0	555	612
5	0	0	0	0	557	617
6	0	0	0	0	559	618
7	0	0	0	0	561	619
8	0	0	0	0	562	623
9	0	0	0	0	564	619
10	0	0	0	0	567	619
11	0	0	0	0	569	618
12	0	0	0	0	571	614
13	0	0	0	0	573	619
14	0	0	0	0	575	619
15	0	0	0	0	577	619
0	0	0	0	0	579	623
1	0	0	0	0	580	618
2	0	0	0	0	582	619
3	0	0	0	0	583	618
4	0	0	0	0	584	614
5	0	0	0	0	586	619
6	0	0	0	0	587	619
7	0	0	0	0	588	619
8	0	0	0	0	590	623
9	0	0	0	0	591	619
10	0	0	0	0	592	619
11	0	0	0	0	593	618
12	0	0	0	0	594	613
13	0	0	0	0	595	617
14	0	0	0	0	597	617
15	0	0	0	0	597	618
0	0	0	0	0	597	622
1	0	0	0	0	598	617
2	0	0	0	0	598	616
3	0	0	0	0	599	616
4	0	0	0	0	599	611
5	0	0	0	0	598	617
6	0	0	0	0	599	617
7	0	0	0	0	599	617
8	0	0	0	0	599	621
9	0	0	0	0	600	617
10	0	0	0	0	600	617
11	0	0	0	0	599	617
12	0	0	0	0	598	612
13	0	0	0	0	597	617
14	0	0	0	0	597	617
15	0	0	0	0	596	617
0	0	0	0	0	595	621
1	0	0	0	0	593	618
2	0	0	0	0	592	618
3	0	0	0	0	592	619
4	0	0	0	0	592	613
5	0	0	0	0	591	619
6	0	0	0	0	591	618
7	0	0	0	0	591	619
8	0	0	0	0	591	623
9	0	0	0	0	591	619
10	0	0	0	0	591	618
11	0	0	0	0	591	619
12	0	0	0	0	590	613
13	0	0	0	0	591	618
14	0	0	0	0	591	619
15	0	0	0	0	590	619
0	0	0	0	0	589	622
1	0	0	0	0	589	618
2	0	0	0	0	588	618
3	0	0	0	0	587	619
4	0	0	0	0	587	614
5	0	0	0	0	586	618
6	0	0	0	0	585	618
7	0	0	0	0	584	618
8	0	0	0	0	583	622
9	0	0	0	0	583	618
10	0	0	0	0	582	618
11	0	0	0	0	582	617
12	0	0	0	0	580	613
13	0	0	0	0	579	617
14	0	0	0	0	578	617
15	0	0	0	0	577	617
0	0	0	0	0	576	621
1	0	0	0	0	575	616
2	0	0	0	0	575	616
3	0	0	0	0	574	616
4	0	0	0	0	573	611
5	0	0	0	0	572	615
6	0	0	0	0	572	616
7	0	0	0	0	571	616
8	0	0	0	0	570	620
9	0	0	0	0	570	616
10	0	0	0	0	569	617
11	0	0	0	0	568	616
12	0	0	0	0	567	611
13	0	0	0	0	565	616
14	0	0	0	0	563	617
15	0	0	0	0	562	616
0	0	0	0	0	561	621
1	0	0	0	0	561	616
2	0	0	0	0	560	616
3	0	0	0	0	558	616
4	0	0	0	0	558	611
5	0	0	0	0	556	616
6	0	0	0	0	556	616
7	0	0	0	0	555	617
8	0	0	0	0	553	622
9	0	0	0	0	552	618
10	0	0	0	0	551	619
11	0	0	0	0	551	618
12	0	0	0	0	550	614
13	0	0	0	0	550	619
14	0	0	0	0	549	619
15	0	0	0	0	549	620
0	0	0	0	0	548	623
1	0	0	0	0	548	620
2	0	0	0	0	548	620
3	0	0	0	0	547	619
4	0	0	0	0	546	615
5	0	0	0	0	545	619
6	0	0	0	0	544	619
7	0	0	0	0	543	620
8	0	0	0	0	542	624
9	0	0	0	0	541	619
10	0	0	0	0	540	619
11	0	0	0	0	539	619
12	0	0	0	0	539	613
13	0	0	0	0	539	619
14	0	0	0	0	539	619
15	0	0	0	0	539	619
0	0	0	0	0	538	623
1	0	0	0	0	539	618
2	0	0	0	0	538	618
3	0	0	0	0	538	617
4	0	0	0	0	537	612
5	0	0	0	0	537	618
6	0	0	0	0	536	617
7	0	0	0	0	536	618
8	0	0	0	0	536	622
9	0	0	0	0	536	617
10	0	0	0	0	535	616
11	0	0	0	0	535	616
12	0	0	0	0	536	612
13	0	0	0	0	536	616
14	0	0	0	0	535	616
15	0	0	0	0	535	617
0	0	0	0	0	535	621
1	0	0	0	0	534	616
2	0	0	0	0	534	617
3	0	0	0	0	534	616
4	0	0	0	0	533	612
5	0	0	0	0	532	617
6	0	0	0	0	532	616
7	0	0	0	0	532	617
8	0	0	0	0	532	621
9	0	0	0	0	533	617
10	0	0	0	0	533	616
11	0	0	0	0	533	616
12	0	0	0	0	533	611
13	0	0	0	0	532	617
14	0	0	0	0	532	616
15	0	0	0	0	532	617
0	0	0	0	0	531	621
1	0	0	0	0	531	617
2	0	0	0	0	531	616
3	0	0	0	0	530	617
4	0	0	0	0	531	612
5	0	0	0	0	530	618
6	0	0	0	0	530	618
7	0	0	0	0	530	617
8	0	0	0	0	531	622
9	0	0	0	0	531	617
10	0	0	0	0	531	617
11	0	0	0	0	532	618
12	0	0	0	0	532	612
13	0	0	0	0	532	619
14	0	0	0	0	532	619
15	0	0	0	0	533	619
0	0	0	0	0	533	623
1	0	0	0	0	533	619
2	0	0	0	0	532	619
3	0	0	0	0	532	619
4	0	0	0	0	532	614
5	0	0	0	0	532	618
6	0	0	0	0	532	619
7	0	0	0	0	533	619
8	0	0	0	0	533	622
9	0	0	0	0	534	619
10	0	0	0	0	533	619
11	0	0	0	0	533	618
12	0	0	0	0	532	613
13	0	0	0	0	531	619
14	0	0	0	0	531	619
15	0	0	0	0	530	619
0	0	0	0	0	529	622
1	0	0	0	0	529	618
2	0	0	0	0	529	618
3	0	0	0	0	529	617
4	0	0	0	0	528	612
5	0	0	0	0	529	618
6	0	0	0	0	529	617
7	0	0	0	0	529	617
8	0	0	0	0	530	622
9	0	0	0	0	530	618
10	0	0	0	0	531	618
11	0	0	0	0	531	617
12	0	0	0	0	531	612
13	0	0	0	0	532	617
14	0	0	0	0	532	618
15	0	0	0	0	532	618
0	0	0	0	0	532	622
1	0	0	0	0	532	618
2	0	0	0	0	532	618
3	0	0	0	0	532	618
4	0	0	0	0	532	614
5	0	0	0	0	532	619
6	0	0	0	0	532	618
7	0	0	0	0	532	619
8	0	0	0	0	532	623
9	0	0	0	0	532	619
10	0	0	0	0	531	619
11	0	0	0	0	530	619
12	0	0	0	0	531	614
13	0	0	0	0	530	619
14	0	0	0	0	531	619
15	0	0	0	0	531	619
0	0	0	0	0	531	623
1	0	0	0	0	531	619
2	0	0	0	0	531	618
3	0	0	0	0	531	618
4	0	0	0	0	530	614
5	0	0	0	0	530	618
6	0	0	0	0	530	619
7	0	0	0	0	530	619
8	0	0	0	0	530	622
9	0	0	0	0	531	619
10	0	0	0	0	531	618
11	0	0	0	0	531	618
12	0	0	0	0	531	613
13	0	0	0	0	531	617
14	0	0	0	0	531	617
15	0	0	0	0	531	617
0	0	0	0	0	531	622
1	0	0	0	0	530	617
2	0	0	0	0	530	616
3	0	0	0	0	530	616
4	0	0	0	0	530	611
5	0	0	0	0	529	616
6	0	0	0	0	529	617
7	0	0	0	0	528	617
8	0	0	0	0	528	622
9	0	0	0	0	528	617
10	0	0	0	0	528	617
11	0	0	0	0	528	617
12	0	0	0	0	527	611
13	0	0	0	0	527	616
14	0	0	0	0	527	616
15	0	0	0	0	527	617
0	0	0	0	0	527	621
1	0	0	0	0	527	617
2	0	0	0	0	526	617
3	0	0	0	0	526	616
4	0	0	0	0	526	611
5	0	0	0	0	527	617
6	0	0	0	0	527	616
7	0	0	0	0	526	617
8	0	0	0	0	526	621
9	0	0	0	0	525	617
10	0	0	0	0	525	617
11	0	0	0	0	525	616
12	0	0	0	0	526	612
13	0	0	0	0	526	617
14	0	0	0	0	527	617
15	0	0	0	0	526	617
0	0	0	0	0	526	621
1	0	0	0	0	527	617
2	0	0	0	0	526	617
3	0	0	0	0	526	616
4	0	0	0	0	526	613
5	0	0	0	0	526	617
6	0	0	0	0	526	617
7	0	0	0	0	525	617
8	0	0	0	0	525	622
9	0	0	0	0	525	617
10	0	0	0	0	524	617
11	0	0	0	0	524	617
12	0	0	0	0	524	611
13	0	0	0	0	524	617
14	0	0	0	0	524	618
15	0	0	0	0	523	617
0	0	0	0	0	523	621
1	0	0	0	0	523	617
2	0	0	0	0	523	617
3	0	0	0	0	523	617
4	0	0	0	0	522	613
5	0	0	0	0	522	618
6	0	0	0	0	523	619
7	0	0	0	0	523	619
8	0	0	0	0	523	623
9	0	0	0	0	523	619
10	0	0	0	0	522	619
11	0	0	0	0	522	618
12	0	0	0	0	521	613
13	0	0	0	0	521	618
14	0	0	0	0	521	618
15	0	0	0	0	521	619
0	0	0	0	0	522	622
1	0	0	0	0	521	618
2	0	0	0	0	521	618
3	0	0	0	0	520	618
4	0	0	0	0	519	613
5	0	0	0	0	519	618
6	0	0	0	0	519	618
7	0	0	0	0	519	618
8	0	0	0	0	519	622
9	0	0	0	0	519	619
10	0	0	0	0	520	619
11	0	0	0	0	519	619
12	0	0	0	0	520	614
13	0	0	0	0	520	619
14	0	0	0	0	520	620
15	0	0	0	0	520	619
0	0	0	0	0	520	623
1	0	0	0	0	520	619
2	0	0	0	0	519	619
3	0	0	0	0	519	619
4	0	0	0	0	519	613
5	0	0	0	0	519	619
6	0	0	0	0	519	618
7	0	0	0	0	518	618
8	0	0	0	0	518	622
9	0	0	0	0	518	618
10	0	0	0	0	517	619
11	0	0	0	0	517	618
12	0	0	0	0	517	613
13	0	0	0	0	517	617
14	0	0	0	0	517	618
15	0	0	0	0	518	618
0	0	0	0	0	518	622
1	0	0	0	0	519	617
2	0	0	0	0	519	618
3	0	0	0	0	519	618
4	0	0	0	0	518	612
5	0	0	0	0	518	617
6	0	0	0	0	517	617
7	0	0	0	0	517	618
8	0	0	0	0	517	622
9	0	0	0	0	516	617
10	0	0	0	0	516	618
11	0	0	0	0	516	617
12	0	0	0	0	515	613
13	0	0	0	0	515	618
14	0	0	0	0	514	619
15	0	0	0	0	514	618
0	0	0	0	0	515	623
1	0	0	0	0	514	619
2	0	0	0	0	514	618
3	0	0	0	0	513	618
4	0	0	0	0	514	614
5	0	0	0	0	514	618
6	0	0	0	0	514	618
7	0	0	0	0	513	619
8	0	0	0	0	513	623
9	0	0	0	0	514	618
10	0	0	0	0	513	618
11	0	0	0	0	513	618
12	0	0	0	0	513	614
13	0	0	0	0	513	618
14	0	0	0	0	514	619
15	0	0	0	0	514	617
0	0	0	0	0	514	623
1	0	0	0	0	515	618
2	0	0	0	0	515	618
3	0	0	0	0	514	618
4	0	0	0	0	513	614
5	0	0	0	0	513	619
6	0	0	0	0	514	618
7	0	0	0	0	513	618
8	0	0	0	0	513	622
9	0	0	0	0	513	617
10	0	0	0	0	513	618
11	0	0	0	0	513	617
12	0	0	0	0	513	613
13	0	0	0	0	513	619
14	0	0	0	0	513	618
15	0	0	0	0	513	619
0	0	0	0	0	513	622
1	0	0	0	0	513	618
2	0	0	0	0	512	618
3	0	0	0	0	512	618
4	0	0	0	0	512	612
5	0	0	0	0	512	618
6	0	0	0	0	511	617
7	0	0	0	0	511	618
8	0	0	0	0	510	622
9	0	0	0	0	510	618
10	0	0	0	0	510	618
11	0	0	0	0	510	617
12	0	0	0	0	510	613
13	0	0	0	0	511	618
14	0	0	0	0	511	617
15	0	0	0	0	511	618
0	0	0	0	0	512	622
1	0	0	0	0	511	618
2	0	0	0	0	511	618
3	0	0	0	0	511	618
4	0	0	0	0	511	614
5	0	0	0	0	511	618
6	0	0	0	0	511	618
7	0	0	0	0	510	619
8	0	0	0	0	510	623
9	0	0	0	0	510	617
10	0	0	0	0	509	618
11	0	0	0	0	508	618
12	0	0	0	0	507	612
13	0	0	0	0	506	618
14	0	0	0	0	505	618
15	0	0	0	0	505	618
0	0	0	0	0	505	622
1	0	0	0	0	506	618
2	0	0	0	0	505	619
3	0	0	0	0	505	619
4	0	0	0	0	505	613
5	0	0	0	0	505	618
6	0	0	0	0	505	618
7	0	0	0	0	504	619
8	0	0	0	0	504	623
9	0	0	0	0	504	619
10	0	0	0	0	504	618
11	0	0	0	0	504	618
12	0	0	0	0	504	613
13	0	0	0	0	504	619
14	0	0	0	0	504	618
15	0	0	0	0	503	619
0	0	0	0	0	503	623
1	0	0	0	0	504	619
2	0	0	0	0	504	618
3	0	0	0	0	504	618
4	0	0	0	0	504	613
5	0	0	0	0	504	618
6	0	0	0	0	505	618
7	0	0	0	0	507	617
8	0	0	0	0	508	622
9	0	0	0	0	510	617
10	0	0	0	0	511	617
11	0	0	0	0	512	617
12	0	0	0	0	514	611
13	0	0	0	0	516	616
14	0	0	0	0	516	617
15	0	0	0	0	518	617
0	0	0	0	0	519	621
1	0	0	0	0	520	616
2	0	0	0	0	521	617
3	0	0	0	0	521	617
4	0	0	0	0	522	611
5	0	0	0	0	521	617
6	0	0	0	0	522	616
7	0	0	0	0	523	615
8	0	0	0	0	524	620
9	0	0	0	0	524	616
10	0	0	0	0	523	617
11	0	0	0	0	523	616
12	0	0	0	0	523	612
13	0	0	0	0	523	617
14	0	0	0	0	523	617
15	0	0	0	0	523	617
0	0	0	0	0	522	622
1	0	0	0	0	522	618
2	0	0	0	0	520	618
3	0	0	0	0	519	617
4	0	0	0	0	518	612
5	0	0	0	0	516	617
6	0	0	0	0	515	618
7	0	0	0	0	514	617
8	0	0	0	0	513	623
9	0	0	0	0	512	619
10	0	0	0	0	512	618
11	0	0	0	0	513	619
12	0	0	0	0	514	614
13	0	0	0	0	514	619
14	0	0	0	0	515	619
15	0	0	0	0	515	619
0	0	0	0	0	515	623
1	0	0	0	0	515	619
2	0	0	0	0	515	619
3	0	0	0	0	514	619
4	0	0	0	0	513	614
5	0	0	0	0	513	619
6	0	0	0	0	513	619
7	0	0	0	0	514	619
8	0	0	0	0	515	623
9	0	0	0	0	515	618
10	0	0	0	0	515	619
11	0	0	0	0	516	619
12	0	0	0	0	516	613
13	0	0	0	0	517	619
14	0	0	0	0	518	618
15	0	0	0	0	518	618
0	0	0	0	0	519	621
1	0	0	0	0	519	617
2	0	0	0	0	519	616
3	0	0	0	0	519	617
4	0	0	0	0	518	612
5	0	0	0	0	517	617
6	0	0	0	0	515	617
7	0	0	0	0	515	617
8	0	0	0	0	514	621
9	0	0	0	0	514	617
10	0	0	0	0	513	616
11	0	0	0	0	512	617
12	0	0	0	0	512	611
13	0	0	0	0	511	617
14	0	0	0	0	512	617
15	0	0	0	0	512	617
0	0	0	0	0	511	621
1	0	0	0	0	511	617
2	0	0	0	0	511	617
3	0	0	0	0	511	617
4	0	0	0	0	512	612
5	0	0	0	0	512	617
6	0	0	0	0	512	617
7	0	0	0	0	512	617
8	0	0	0	0	512	622
9	0	0	0	0	512	618
10	0	0	0	0	511	617
11	0	0	0	0	511	617
12	0	0	0	0	511	612
13	0	0	0	0	511	619
14	0	0	0	0	511	618
15	0	0	0	0	511	619
0	0	0	0	0	511	623
1	0	0	0	0	511	618
2	0	0	0	0	510	618
3	0	0	0	0	510	619
4	0	0	0	0	510	613
5	0	0	0	0	509	617
6	0	0	0	0	509	619
7	0	0	0	0	509	618
8	0	0	0	0	509	623
9	0	0	0	0	509	618
10	0	0	0	0	509	618
11	0	0	0	0	508	617
12	0	0	0	0	508	612
13	0	0	0	0	508	617
14	0	0	0	0	507	617
15	0	0	0	0	507	618
0	0	0	0	0	507	622
1	0	0	0	0	506	618
2	0	0	0	0	506	618
3	0	0	0	0	506	618
4	0	0	0	0	505	614
5	0	0	0	0	504	618
6	0	0	0	0	502	618
7	0	0	0	0	497	618
8	0	0	0	0	492	623
9	0	0	0	0	483	619
10	0	0	0	0	472	619
11	0	0	0	0	456	618
12	0	0	0	0	441	612
13	0	0	0	0	426	618
14	0	0	0	0	411	618
15	0	0	0	0	398	618
0	0	0	0	0	387	622
1	0	0	0	0	376	618
2	0	0	0	0	365	618
3	0	0	0	0	353	618
4	0	0	0	0	342	613
5	0	0	0	0	333	617
6	0	0	0	0	327	617
7	0	0	0	0	323	617
8	0	0	0	0	318	622
9	0	0	0	0	313	616
10	0	0	0	0	312	616
11	0	0	0	0	314	617
12	0	0	0	0	322	612
13	0	0	0	0	337	617
14	0	0	0	0	361	616
15	0	0	0	0	399	616
0	0	0	0	0	450	621
1	0	0	0	0	510	617
2	0	0	0	0	576	617
3	0	0	0	0	644	617
4	0	0	0	0	719	611
5	0	0	0	0	800	616
6	0	0	0	0	892	616
7	0	0	0	0	986	617
8	0	0	0	0	1022	620
9	0	0	0	0	1022	616
10	0	0	0	0	1022	616
11	0	0	0	0	1022	616
12	0	0	0	0	1022	612
13	0	0	0	0	1022	617
14	0	0	0	0	1022	617
15	0	0	0	0	1022	618
0	0	0	0	0	1022	621
1	0	0	0	0	1022	617
2	0	0	0	0	1022	617
3	0	0	0	0	1022	618
4	0	0	0	0	1022	613
5	0	0	0	0	1022	618
6	0	0	0	0	1022	618
7	0	0	0	0	1022	618
8	0	0	0	0	1022	623
9	0	0	0	0	1022	619
10	0	0	0	0	1006	619
11	0	0	0	0	975	619
12	0	0	0	0	946	613
13	0	0	0	0	919	618
14	0	0	0	0	892	618
15	0	0	0	0	863	619
0	0	0	0	0	831	623
1	0	0	0	0	796	618
2	0	0	0	0	758	618
3	0	0	0	0	721	617
4	0	0	0	0	685	612
5	0	0	0	0	652	617
6	0	0	0	0	619	617
7	0	0	0	0	589	617
8	0	0	0	0	563	621
9	0	0	0	0	539	616
10	0	0	0	0	517	617
11	0	0	0	0	497	616
12	0	0	0	0	478	612
13	0	0	0	0	459	617
14	0	0	0	0	443	617
15	0	0	0	0	427	617
0	0	0	0	0	412	621
1	0	0	0	0	399	616
2	0	0	0	0	386	617
3	0	0	0	0	375	617
4	0	0	0	0	364	612
5	0	0	0	0	355	616
6	0	0	0	0	347	616
7	0	0	0	0	340	616
8	0	0	0	0	333	621
9	0	0	0	0	327	618
10	0	0	0	0	321	618
11	0	0	0	0	316	617
12	0	0	0	0	312	612
13	0	0	0	0	308	618
14	0	0	0	0	305	617
15	0	0	0	0	303	617
0	0	0	0	0	301	622
1	0	0	0	0	300	617
2	0	0	0	0	300	617
3	0	0	0	0	299	617
4	0	0	0	0	299	612
5	0	0	0	0	299	617
6	0	0	0	0	298	617
7	0	0	0	0	298	617
8	0	0	0	0	299	622
9	0	0	0	0	300	618
10	0	0	0	0	300	618
11	0	0	0	0	300	617
12	0	0	0	0	301	612
13	0	0	0	0	301	617
14	0	0	0	0	302	617
15	0	0	0	0	304	617
0	0	0	0	0	304	621
1	0	0	0	0	304	617
2	0	0	0	0	305	617
3	0	0	0	0	306	617
4	0	0	0	0	306	612
5	0	0	0	0	307	618
6	0	0	0	0	307	618
7	0	0	0	0	308	619
8	0	0	0	0	310	622
9	0	0	0	0	312	618
10	0	0	0	0	313	618
11	0	0	0	0	315	617
12	0	0	0	0	316	613
13	0	0	0	0	317	618
14	0	0	0	0	319	618
15	0	0	0	0	319	618
0	0	0	0	0	321	622
1	0	0	0	0	323	618
2	0	0	0	0	324	618
3	0	0	0	0	326	617
4	0	0	0	0	327	613
5	0	0	0	0	329	618
6	0	0	0	0	330	617
7	0	0	0	0	331	618
8	0	0	0	0	332	622
9	0	0	0	0	333	618
10	0	0	0	0	335	618
11	0	0	0	0	336	618
12	0	0	0	0	337	614
13	0	0	0	0	339	619
14	0	0	0	0	339	618
15	0	0	0	0	341	618
0	0	0	0	0	342	623
1	0	0	0	0	344	618
2	0	0	0	0	344	618
3	0	0	0	0	345	618
4	0	0	0	0	346	613
5	0	0	0	0	348	617
6	0	0	0	0	348	618
7	0	0	0	0	350	619
8	0	0	0	0	351	622
9	0	0	0	0	352	618
10	0	0	0	0	353	618
11	0	0	0	0	354	618
12	0	0	0	0	355	613
13	0	0	0	0	356	618
14	0	0	0	0	356	618
15	0	0	0	0	358	619
0	0	0	0	0	358	623
1	0	0	0	0	359	617
2	0	0	0	0	359	618
3	0	0	0	0	360	617
4	0	0	0	0	361	613
5	0	0	0	0	362	618
6	0	0	0	0	363	618
7	0	0	0	0	363	619
8	0	0	0	0	364	622
9	0	0	0	0	364	617
10	0	0	0	0	364	617
11	0	0	0	0	364	617
12	0	0	0	0	365	612
13	0	0	0	0	366	618
14	0	0	0	0	367	617
15	0	0	0	0	368	618
0	0	0	0	0	367	622
1	0	0	0	0	368	618
2	0	0	0	0	369	618
3	0	0	0	0	369	618
4	0	0	0	0	369	612
5	0	0	0	0	369	618
6	0	0	0	0	370	617
7	0	0	0	0	371	617
8	0	0	0	0	371	622
9	0	0	0	0	371	617
10	0	0	0	0	370	618
11	0	0	0	0	370	618
12	0	0	0	0	370	612
13	0	0	0	0	370	618
14	0	0	0	0	370	618
15	0	0	0	0	369	618
0	0	0	0	0	368	622
1	0	0	0	0	368	617
2	0	0	0	0	368	618
3	0	0	0	0	368	617
4	0	0	0	0	368	613
5	0	0	0	0	369	619
6	0	0	0	0	369	619
7	0	0	0	0	368	619
8	0	0	0	0	366	623
9	0	0	0	0	366	619
10	0	0	0	0	365	619
11	0	0	0	0	364	619
12	0	0	0	0	364	614
13	0	0	0	0	363	618
14	0	0	0	0	362	619
15	0	0	0	0	361	618
0	0	0	0	0	361	622
1	0	0	0	0	360	619
2	0	0	0	0	360	618
3	0	0	0	0	359	618
4	0	0	0	0	359	613
5	0	0	0	0	358	619
6	0	0	0	0	357	618
7	0	0	0	0	356	618
8	0	0	0	0	355	623
9	0	0	0	0	353	618
10	0	0	0	0	353	617
11	0	0	0	0	352	617
12	0	0	0	0	351	612
13	0	0	0	0	351	618
14	0	0	0	0	351	618
15	0	0	0	0	350	618
0	0	0	0	0	349	622
1	0	0	0	0	348	617
2	0	0	0	0	348	617
3	0	0	0	0	347	617
4	0	0	0	0	347	612
5	0	0	0	0	347	618
6	0	0	0	0	348	617
7	0	0	0	0	348	619
8	0	0	0	0	348	622
9	0	0	0	0	348	618
10	0	0	0	0	348	618
11	0	0	0	0	348	618
12	0	0	0	0	349	614
13	0	0	0	0	348	618
14	0	0	0	0	349	619
15	0	0	0	0	351	618
0	0	0	0	0	352	622
1	0	0	0	0	353	619
2	0	0	0	0	354	618
3	0	0	0	0	355	618
4	0	0	0	0	357	613
5	0	0	0	0	358	618
6	0	0	0	0	359	618
7	0	0	0	0	361	618
8	0	0	0	0	362	622
9	0	0	0	0	364	618
10	0	0	0	0	366	617
11	0	0	0	0	368	617
12	0	0	0	0	371	612
13	0	0	0	0	373	617
14	0	0	0	0	376	617
15	0	0	0	0	378	617
0	0	0	0	0	381	621
1	0	0	0	0	384	617
2	0	0	0	0	387	617
3	0	0	0	0	390	617
4	0	0	0	0	393	612
5	0	0	0	0	396	617
6	0	0	0	0	400	616
7	0	0	0	0	403	616
8	0	0	0	0	407	621
9	0	0	0	0	411	616
10	0	0	0	0	414	616
11	0	0	0	0	418	616
12	0	0	0	0	423	612
13	0	0	0	0	427	617
14	0	0	0	0	432	617
15	0	0	0	0	436	617
0	0	0	0	0	441	622
1	0	0	0	0	446	617
2	0	0	0	0	450	617
3	0	0	0	0	455	617
4	0	0	0	0	460	612
5	0	0	0	0	465	617
6	0	0	0	0	470	617
7	0	0	0	0	475	617
8	0	0	0	0	480	621
9	0	0	0	0	486	618
10	0	0	0	0	490	617
11	0	0	0	0	496	617
12	0	0	0	0	500	612
13	0	0	0	0	506	618
14	0	0	0	0	511	617
15	0	0	0	0	516	618
0	0	0	0	0	521	622
1	0	0	0	0	527	618
2	0	0	0	0	532	618
3	0	0	0	0	537	618
4	0	0	0	0	542	614
5	0	0	0	0	547	619
6	0	0	0	0	551	618
7	0	0	0	0	555	618
8	0	0	0	0	559	623
9	0	0	0	0	563	619
10	0	0	0	0	567	619
11	0	0	0	0	570	618
12	0	0	0	0	574	613
13	0	0	0	0	577	619
14	0	0	0	0	582	619
15	0	0	0	0	585	619
0	0	0	0	0	588	624
1	0	0	0	0	591	619
2	0	0	0	0	594	619
3	0	0	0	0	598	619
4	0	0	0	0	600	614
5	0	0	0	0	603	619
6	0	0	0	0	606	619
7	0	0	0	0	608	620
8	0	0	0	0	610	624
9	0	0	0	0	611	619
10	0	0	0	0	612	619
11	0	0	0	0	613	619
12	0	0	0	0	615	614
13	0	0	0	0	615	618
14	0	0	0	0	617	618
15	0	0	0	0	618	619
0	0	0	0	0	620	622
1	0	0	0	0	620	619
2	0	0	0	0	622	619
3	0	0	0	0	623	617
4	0	0	0	0	624	613
5	0	0	0	0	624	617
6	0	0	0	0	624	617
7	0	0	0	0	624	617
8	0	0	0	0	624	621
9	0	0	0	0	624	617
10	0	0	0	0	623	617
11	0	0	0	0	623	617
12	0	0	0	0	623	612
13	0	0	0	0	623	616
14	0	0	0	0	623	616
15	0	0	0	0	622	617
0	0	0	0	0	622	621
1	0	0	0	0	621	617
2	0	0	0	0	620	617
3	0	0	0	0	620	617
4	0	0	0	0	620	612
5	0	0	0	0	619	617
6	0	0	0	0	618	617
7	0	0	0	0	617	617
8	0	0	0	0	617	622
9	0	0	0	0	616	617
10	0	0	0	0	615	618
11	0	0	0	0	615	617
12	0	0	0	0	614	612
13	0	0	0	0	614	618
14	0	0	0	0	614	617
15	0	0	0	0	614	619
0	0	0	0	0	614	623
1	0	0	0	0	614	618
2	0	0	0	0	614	619
3	0	0	0	0	613	618
4	0	0	0	0	613	613
5	0	0	0	0	613	618
6	0	0	0	0	612	617
7	0	0	0	0	612	618
8	0	0	0	0	612	622
9	0	0	0	0	612	618
10	0	0	0	0	611	617
11	0	0	0	0	611	617
12	0	0	0	0	609	612
13	0	0	0	0	608	617
14	0	0	0	0	607	617
15	0	0	0	0	606	617
0	0	0	0	0	606	621
1	0	0	0	0	605	617
2	0	0	0	0	603	617
3	0	0	0	0	602	616
4	0	0	0	0	601	612
5	0	0	0	0	600	617
6	0	0	0	0	598	616
7	0	0	0	0	598	617
8	0	0	0	0	596	622
9	0	0	0	0	595	617
10	0	0	0	0	594	618
11	0	0	0	0	592	617
12	0	0	0	0	591	612
13	0	0	0	0	590	617
14	0	0	0	0	588	617
15	0	0	0	0	588	618
0	0	0	0	0	587	622
1	0	0	0	0	585	617
2	0	0	0	0	584	618
3	0	0	0	0	583	617
4	0	0	0	0	582	613
5	0	0	0	0	580	618
6	0	0	0	0	579	617
7	0	0	0	0	577	618
8	0	0	0	0	576	622
9	0	0	0	0	575	618
10	0	0	0	0	574	618
11	0	0	0	0	573	618
12	0	0	0	0	572	613
13	0	0	0	0	572	618
14	0	0	0	0	571	619
15	0	0	0	0	570	618
0	0	0	0	0	568	623
1	0	0	0	0	568	618
2	0	0	0	0	566	619
3	0	0	0	0	564	618
4	0	0	0	0	563	614
5	0	0	0	0	562	619
6	0	0	0	0	561	618
7	0	0	0	0	560	619
8	0	0	0	0	559	623
9	0	0	0	0	558	618
10	0	0	0	0	558	619
11	0	0	0	0	558	619
12	0	0	0	0	556	614
13	0	0	0	0	556	619
14	0	0	0	0	555	618
15	0	0	0	0	555	619
0	0	0	0	0	554	623
1	0	0	0	0	553	619
2	0	0	0	0	552	618
3	0	0	0	0	551	619
4	0	0	0	0	551	614
5	0	0	0	0	550	618
6	0	0	0	0	550	618
7	0	0	0	0	551	618
8	0	0	0	0	551	623
9	0	0	0	0	551	618
10	0	0	0	0	550	618
11	0	0	0	0	550	617
12	0	0	0	0	549	612
13	0	0	0	0	548	617
14	0	0	0	0	548	617
15	0	0	0	0	548	617
0	0	0	0	0	547	621
1	0	0	0	0	546	617
2	0	0	0	0	546	617
3	0	0	0	0	545	616
4	0	0	0	0	544	611
5	0	0	0	0	543	616
6	0	0	0	0	542	616
7	0	0	0	0	542	617
8	0	0	0	0	541	621
9	0	0	0	0	540	616
10	0	0	0	0	540	617
11	0	0	0	0	540	617
12	0	0	0	0	540	611
13	0	0	0	0	540	617
14	0	0	0	0	540	616
15	0	0	0	0	540	617
0	0	0	0	0	540	621
1	0	0	0	0	539	617
2	0	0	0	0	539	617
3	0	0	0	0	538	616
4	0	0	0	0	537	611
5	0	0	0	0	537	617
6	0	0	0	0	537	617
7	0	0	0	0	536	617
8	0	0	0	0	537	621
9	0	0	0	0	537	617
10	0	0	0	0	536	616
11	0	0	0	0	537	616
12	0	0	0	0	537	611
13	0	0	0	0	538	616
14	0	0	0	0	539	616
15	0	0	0	0	540	617
0	0	0	0	0	541	621
1	0	0	0	0	541	617
2	0	0	0	0	540	617
3	0	0	0	0	540	616
4	0	0	0	0	540	611
5	0	0	0	0	540	617
6	0	0	0	0	540	617
7	0	0	0	0	540	617
8	0	0	0	0	540	622
9	0	0	0	0	540	618
10	0	0	0	0	539	618
11	0	0	0	0	539	617
12	0	0	0	0	538	613
13	0	0	0	0	539	618
14	0	0	0	0	538	618
15	0	0	0	0	537	618
0	0	0	0	0	537	622
1	0	0	0	0	538	618
2	0	0	0	0	537	618
3	0	0	0	0	537	619
4	0	0	0	0	538	614
5	0	0	0	0	538	620
6	0	0	0	0	539	619
7	0	0	0	0	540	619
8	0	0	0	0	540	623
9	0	0	0	0	541	619
10	0	0	0	0	541	619
11	0	0	0	0	540	619
12	0	0	0	0	540	614
13	0	0	0	0	540	618
14	0	0	0	0	540	619
15	0	0	0	0	540	619
0	0	0	0	0	541	623
1	0	0	0	0	540	618
2	0	0	0	0	541	618
3	0	0	0	0	541	618
4	0	0	0	0	541	612
5	0	0	0	0	541	617
6	0	0	0	0	540	617
7	0	0	0	0	540	617
8	0	0	0	0	540	621
9	0	0	0	0	540	617
10	0	0	0	0	540	617
11	0	0	0	0	539	617
12	0	0	0	0	539	611
13	0	0	0	0	539	617
14	0	0	0	0	539	616
15	0	0	0	0	540	617
0	0	0	0	0	540	621
1	0	0	0	0	540	617
2	0	0	0	0	540	616
3	0	0	0	0	540	616
4	0	0	0	0	539	611
5	0	0	0	0	539	617
6	0	0	0	0	539	617
7	0	0	0	0	538	617
8	0	0	0	0	538	621
9	0	0	0	0	538	617
10	0	0	0	0	537	617
11	0	0	0	0	537	617
12	0	0	0	0	537	613
13	0	0	0	0	537	617
14	0	0	0	0	537	618
15	0	0	0	0	537	617
0	0	0	0	0	537	622
1	0	0	0	0	537	617
2	0	0	0	0	536	618
3	0	0	0	0	536	618
4	0	0	0	0	536	612
5	0	0	0	0	536	618
6	0	0	0	0	536	618
7	0	0	0	0	536	618
8	0	0	0	0	536	622
9	0	0	0	0	536	619
10	0	0	0	0	536	619
11	0	0	0	0	536	618
12	0	0	0	0	536	613
13	0	0	0	0	536	619
14	0	0	0	0	535	619
15	0	0	0	0	535	618
0	0	0	0	0	535	622
1	0	0	0	0	535	617
2	0	0	0	0	535	617
3	0	0	0	0	535	617
4	0	0	0	0	535	612
5	0	0	0	0	535	617
6	0	0	0	0	535	618
7	0	0	0	0	535	619
8	0	0	0	0	535	622
9	0	0	0	0	535	617
10	0	0	0	0	534	618
11	0	0	0	0	534	617
12	0	0	0	0	534	613
13	0	0	0	0	534	618
14	0	0	0	0	534	618
15	0	0	0	0	534	619
0	0	0	0	0	534	622
1	0	0	0	0	533	618
2	0	0	0	0	533	618
3	0	0	0	0	532	618
4	0	0	0	0	532	613
5	0	0	0	0	531	618
6	0	0	0	0	531	617
7	0	0	0	0	531	618
8	0	0	0	0	531	622
9	0	0	0	0	531	617
10	0	0	0	0	531	618
11	0	0	0	0	530	618
12	0	0	0	0	530	613
13	0	0	0	0	529	618
14	0	0	0	0	529	619
15	0	0	0	0	529	618
0	0	0	0	0	530	623
1	0	0	0	0	529	619
2	0	0	0	0	529	618
3	0	0	0	0	529	619
4	0	0	0	0	529	614
5	0	0	0	0	529	619
6	0	0	0	0	528	618
7	0	0	0	0	528	618
8	0	0	0	0	528	623
9	0	0	0	0	527	619
10	0	0	0	0	527	619
11	0	0	0	0	527	619
12	0	0	0	0	527	614
13	0	0	0	0	526	619
14	0	0	0	0	525	619
15	0	0	0	0	525	619
0	0	0	0	0	526	623
1	0	0	0	0	526	619
2	0	0	0	0	526	618
3	0	0	0	0	526	617
4	0	0	0	0	525	612
5	0	0	0	0	525	617
6	0	0	0	0	525	617
7	0	0	0	0	525	617
8	0	0	0	0	525	622
9	0	0	0	0	524	618
10	0	0	0	0	524	617
11	0	0	0	0	524	617
12	0	0	0	0	523	612
13	0	0	0	0	523	617
14	0	0	0	0	523	617
15	0	0	0	0	523	618
0	0	0	0	0	523	622
1	0	0	0	0	523	617
2	0	0	0	0	523	618
3	0	0	0	0	522	617
4	0	0	0	0	521	613
5	0	0	0	0	521	618
6	0	0	0	0	521	618
7	0	0	0	0	521	618
8	0	0	0	0	521	623
9	0	0	0	0	520	618
10	0	0	0	0	520	618
11	0	0	0	0	520	618
12	0	0	0	0	519	612
13	0	0	0	0	519	618
14	0	0	0	0	518	618
15	0	0	0	0	518	618
0	0	0	0	0	518	622
1	0	0	0	0	518	618
2	0	0	0	0	518	618
3	0	0	0	0	518	618
4	0	0	0	0	518	613
5	0	0	0	0	517	618
6	0	0	0	0	517	617
7	0	0	0	0	516	618
8	0	0	0	0	516	622
9	0	0	0	0	515	617
10	0	0	0	0	515	617
11	0	0	0	0	515	617
12	0	0	0	0	515	613
13	0	0	0	0	515	617
14	0	0	0	0	515	617
15	0	0	0	0	514	617
0	0	0	0	0	515	621
1	0	0	0	0	515	617
2	0	0	0	0	514	617
3	0	0	0	0	514	617
4	0	0	0	0	514	612
5	0	0	0	0	514	618
6	0	0	0	0	513	617
7	0	0	0	0	513	618
8	0	0	0	0	512	622
9	0	0	0	0	513	617
10	0	0	0	0	512	617
11	0	0	0	0	512	618
12	0	0	0	0	511	613
13	0	0	0	0	512	619
14	0	0	0	0	511	619
15	0	0	0	0	512	619
0	0	0	0	0	512	622
1	0	0	0	0	512	617
2	0	0	0	0	512	618
3	0	0	0	0	512	617
4	0	0	0	0	512	613
5	0	0	0	0	512	617
6	0	0	0	0	513	616
7	0	0	0	0	513	617
8	0	0	0	0	513	621
9	0	0	0	0	513	617
10	0	0	0	0	514	617
11	0	0	0	0	513	617
12	0	0	0	0	513	611
13	0	0	0	0	513	617
14	0	0	0	0	513	617
15	0	0	0	0	513	617
0	0	0	0	0	512	622
1	0	0	0	0	511	617
2	0	0	0	0	512	617
3	0	0	0	0	512	617
4	0	0	0	0	511	612
5	0	0	0	0	511	618
6	0	0	0	0	512	617
7	0	0	0	0	511	618
8	0	0	0	0	511	622
9	0	0	0	0	511	618
10	0	0	0	0	510	618
11	0	0	0	0	510	618
12	0	0	0	0	509	613
13	0	0	0	0	509	617
14	0	0	0	0	509	619
15	0	0	0	0	509	619
0	0	0	0	0	509	622
1	0	0	0	0	509	619
2	0	0	0	0	508	618
3	0	0	0	0	508	618
4	0	0	0	0	508	613
5	0	0	0	0	508	618
6	0	0	0	0	507	618
7	0	0	0	0	507	617
8	0	0	0	0	507	622
9	0	0	0	0	507	618
10	0	0	0	0	506	618
11	0	0	0	0	506	618
12	0	0	0	0	504	612
13	0	0	0	0	504	618
14	0	0	0	0	503	619
15	0	0	0	0	503	619
0	0	0	0	0	503	623
1	0	0	0	0	503	617
2	0	0	0	0	503	617
3	0	0	0	0	503	618
4	0	0	0	0	503	612
5	0	0	0	0	503	617
6	0	0	0	0	502	618
7	0	0	0	0	502	617
8	0	0	0	0	500	622
9	0	0	0	0	501	617
10	0	0	0	0	500	617
11	0	0	0	0	500	617
12	0	0	0	0	499	613
13	0	0	0	0	499	618
14	0	0	0	0	498	617
15	0	0	0	0	499	618
0	0	0	0	0	499	622
1	0	0	0	0	500	617
2	0	0	0	0	501	617
3	0	0	0	0	502	617
4	0	0	0	0	503	612
5	0	0	0	0	504	618
6	0	0	0	0	504	617
7	0	0	0	0	506	618
8	0	0	0	0	508	622
9	0	0	0	0	509	617
10	0	0	0	0	510	618
11	0	0	0	0	512	618
12	0	0	0	0	513	612
13	0	0	0	0	515	617
14	0	0	0	0	515	618
15	0	0	0	0	516	618
0	0	0	0	0	517	622
1	0	0	0	0	518	617
2	0	0	0	0	518	618
3	0	0	0	0	519	617
4	0	0	0	0	519	613
5	0	0	0	0	520	617
6	0	0	0	0	519	617
7	0	0	0	0	519	617
8	0	0	0	0	519	622
9	0	0	0	0	519	617
10	0	0	0	0	518	618
11	0	0	0	0	517	617
12	0	0	0	0	517	612
13	0	0	0	0	516	617
14	0	0	0	0	515	618
15	0	0	0	0	516	618
0	0	0	0	0	515	622
1	0	0	0	0	516	618
2	0	0	0	0	515	618
3	0	0	0	0	515	617
4	0	0	0	0	513	613
5	0	0	0	0	511	618
6	0	0	0	0	511	619
7	0	0	0	0	511	618
8	0	0	0	0	510	622
9	0	0	0	0	509	618
10	0	0	0	0	508	617
11	0	0	0	0	509	617
12	0	0	0	0	510	613
13	0	0	0	0	510	618
14	0	0	0	0	510	617
15	0	0	0	0	511	618
0	0	0	0	0	511	622
1	0	0	0	0	511	617
2	0	0	0	0	510	618
3	0	0	0	0	510	617
4	0	0	0	0	510	612
5	0	0	0	0	509	617
6	0	0	0	0	509	617
7	0	0	0	0	509	617
8	0	0	0	0	509	621
9	0	0	0	0	509	616
10	0	0	0	0	509	617
11	0	0	0	0	510	617
12	0	0	0	0	510	612
13	0	0	0	0	511	617
14	0	0	0	0	511	617
15	0	0	0	0	511	617
0	0	0	0	0	512	621
1	0	0	0	0	512	617
2	0	0	0	0	511	617
3	0	0	0	0	511	617
4	0	0	0	0	510	612
5	0	0	0	0	509	617
6	0	0	0	0	508	617
7	0	0	0	0	508	618
8	0	0	0	0	508	622
9	0	0	0	0	508	618
10	0	0	0	0	508	619
11	0	0	0	0	508	617
12	0	0	0	0	508	613
13	0	0	0	0	507	618
14	0	0	0	0	507	618
15	0	0	0	0	507	619
0	0	0	0	0	507	622
1	0	0	0	0	507	618
2	0	0	0	0	507	618
3	0	0	0	0	506	618
4	0	0	0	0	506	613
5	0	0	0	0	506	618
6	0	0	0	0	507	618
7	0	0	0	0	507	617
8	0	0	0	0	507	622
9	0	0	0	0	507	619
10	0	0	0	0	507	617
11	0	0	0	0	507	618
12	0	0	0	0	508	613
13	0	0	0	0	508	618
14	0	0	0	0	507	619
15	0	0	0	0	507	619
0	0	0	0	0	507	622
1	0	0	0	0	507	618
2	0	0	0	0	507	619
3	0	0	0	0	507	618
4	0	0	0	0	507	612
5	0	0	0	0	507	618
6	0	0	0	0	506	618
7	0	0	0	0	506	618
8	0	0	0	0	505	622
9	0	0	0	0	505	617
10	0	0	0	0	505	618
11	0	0	0	0	505	618
12	0	0	0	0	505	612
13	0	0	0	0	505	617
14	0	0	0	0	505	617
15	0	0	0	0	505	618
0	0	0	0	0	505	621
1	0	0	0	0	505	617
2	0	0	0	0	504	617
3	0	0	0	0	502	617
4	0	0	0	0	498	612
5	0	0	0	0	495	617
6	0	0	0	0	489	617
7	0	0	0	0	480	617
8	0	0	0	0	466	621
9	0	0	0	0	451	616
10	0	0	0	0	434	616
11	0	0	0	0	419	617
12	0	0	0	0	404	611
13	0	0	0	0	392	616
14	0	0	0	0	382	617
15	0	0	0	0	370	617
0	0	0	0	0	359	622
1	0	0	0	0	348	617
2	0	0	0	0	337	617
3	0	0	0	0	329	617
4	0	0	0	0	323	612
5	0	0	0	0	318	617
6	0	0	0	0	312	617
7	0	0	0	0	308	617
8	0	0	0	0	306	622
9	0	0	0	0	311	617
10	0	0	0	0	322	617
11	0	0	0	0	339	617
12	0	0	0	0	366	612
13	0	0	0	0	406	617
14	0	0	0	0	457	617
15	0	0	0	0	518	617
0	0	0	0	0	585	622
1	0	0	0	0	654	618
2	0	0	0	0	731	617
3	0	0	0	0	815	616
4	0	0	0	0	908	612
5	0	0	0	0	1004	617
6	0	0	0	0	1022	617
7	0	0	0	0	1022	617
8	0	0	0	0	1022	622
9	0	0	0	0	1022	617
10	0	0	0	0	1022	617
11	0	0	0	0	1022	616
12	0	0	0	0	1022	612
13	0	0	0	0	1022	617
14	0	0	0	0	1022	617
15	0	0	0	0	1022	617
0	0	0	0	0	1022	621
1	0	0	0	0	1022	616
2	0	0	0	0	1022	616
3	0	0	0	0	1022	617
4	0	0	0	0	1022	611
5	0	0	0	0	1022	616
6	0	0	0	0	1022	617
7	0	0	0	0	1020	617
8	0	0	0	0	987	621
9	0	0	0	0	958	617
10	0	0	0	0	930	617
11	0	0	0	0	905	616
12	0	0	0	0	879	611
13	0	0	0	0	849	616
14	0	0	0	0	817	617
15	0	0	0	0	781	617
0	0	0	0	0	743	622
1	0	0	0	0	705	617
2	0	0	0	0	670	617
3	0	0	0	0	637	617
4	0	0	0	0	607	612
5	0	0	0	0	579	617
6	0	0	0	0	555	617
7	0	0	0	0	532	618
8	0	0	0	0	512	622
9	0	0	0	0	493	617
10	0	0	0	0	475	618
11	0	0	0	0	458	618
12	0	0	0	0	441	613
13	0	0	0	0	426	618
14	0	0	0	0	412	618
15	0	0	0	0	398	618
0	0	0	0	0	385	622
1	0	0	0	0	373	618
2	0	0	0	0	363	619
3	0	0	0	0	354	619
4	0	0	0	0	346	614
5	0	0	0	0	339	619
6	0	0	0	0	333	618
7	0	0	0	0	327	618
8	0	0	0	0	322	622
9	0	0	0	0	318	619
10	0	0	0	0	314	619
11	0	0	0	0	311	619
12	0	0	0	0	308	614
13	0	0	0	0	306	618
14	0	0	0	0	305	618
15	0	0	0	0	304	619
0	0	0	0	0	303	622
1	0	0	0	0	303	618
2	0	0	0	0	302	618
3	0	0	0	0	301	618
4	0	0	0	0	301	612
5	0	0	0	0	301	618
6	0	0	0	0	302	618
7	0	0	0	0	301	618
8	0	0	0	0	302	622
9	0	0	0	0	302	619
10	0	0	0	0	303	618
11	0	0	0	0	303	617
12	0	0	0	0	304	612
13	0	0	0	0	305	617
14	0	0	0	0	307	617
15	0	0	0	0	308	617
0	0	0	0	0	309	621
1	0	0	0	0	311	617
2	0	0	0	0	312	617
3	0	0	0	0	312	617
4	0	0	0	0	314	612
5	0	0	0	0	315	617
6	0	0	0	0	316	618
7	0	0	0	0	318	617
8	0	0	0	0	320	621
9	0	0	0	0	320	617
10	0	0	0	0	322	617
11	0	0	0	0	324	616
12	0	0	0	0	326	611
13	0	0	0	0	327	617
14	0	0	0	0	328	616
15	0	0	0	0	329	617
0	0	0	0	0	331	622
1	0	0	0	0	333	617
2	0	0	0	0	334	617
3	0	0	0	0	335	617
4	0	0	0	0	336	612
5	0	0	0	0	337	618
6	0	0	0	0	339	617
7	0	0	0	0	340	618
8	0	0	0	0	340	622
9	0	0	0	0	342	618
10	0	0	0	0	342	617
11	0	0	0	0	344	618
12	0	0	0	0	345	613
13	0	0	0	0	346	619
14	0	0	0	0	348	618
15	0	0	0	0	349	619
0	0	0	0	0	351	623
1	0	0	0	0	351	618
2	0	0	0	0	353	619
3	0	0	0	0	354	619
4	0	0	0	0	355	614
5	0	0	0	0	357	619
6	0	0	0	0	358	619
7	0	0	0	0	359	619
8	0	0	0	0	360	623
9	0	0	0	0	361	619
10	0	0	0	0	362	620
11	0	0	0	0	363	619
12	0	0	0	0	364	614
13	0	0	0	0	365	619
14	0	0	0	0	366	619
15	0	0	0	0	366	619
0	0	0	0	0	366	623
1	0	0	0	0	367	619
2	0	0	0	0	368	619
3	0	0	0	0	370	618
4	0	0	0	0	371	612
5	0	0	0	0	371	617
6	0	0	0	0	372	618
7	0	0	0	0	372	618
8	0	0	0	0	372	622
9	0	0	0	0	373	617
10	0	0	0	0	373	617
11	0	0	0	0	372	617
12	0	0	0	0	373	612
13	0	0	0	0	373	617
14	0	0	0	0	374	617
15	0	0	0	0	374	617
0	0	0	0	0	375	621
1	0	0	0	0	376	617
2	0	0	0	0	377	617
3	0	0	0	0	376	616
4	0	0	0	0	376	612
5	0	0	0	0	376	617
6	0	0	0	0	376	617
7	0	0	0	0	376	618
8	0	0	0	0	375	622
9	0	0	0	0	376	617
10	0	0	0	0	376	617
11	0	0	0	0	376	617
12	0	0	0	0	375	612
13	0	0	0	0	374	617
14	0	0	0	0	374	617
15	0	0	0	0	374	618
0	0	0	0	0	374	622
1	0	0	0	0	374	617
2	0	0	0	0	374	617
3	0	0	0	0	373	617
4	0	0	0	0	372	613
5	0	0	0	0	372	617
6	0	0	0	0	372	617
7	0	0	0	0	371	617
8	0	0	0	0	370	621
9	0	0	0	0	370	617
10	0	0	0	0	369	616
11	0	0	0	0	369	617
12	0	0	0	0	368	612
13	0	0	0	0	368	617
14	0	0	0	0	367	617
15	0	0	0	0	366	617
0	0	0	0	0	365	621
1	0	0	0	0	364	617
2	0	0	0	0	364	617
3	0	0	0	0	364	617
4	0	0	0	0	363	612
5	0	0	0	0	363	617
6	0	0	0	0	362	617
7	0	0	0	0	361	618
8	0	0	0	0	361	622
9	0	0	0	0	360	617
10	0	0	0	0	359	617
11	0	0	0	0	358	618
12	0	0	0	0	357	613
13	0	0	0	0	357	618
14	0	0	0	0	356	618
15	0	0	0	0	356	618
0	0	0	0	0	356	622
1	0	0	0	0	355	619
2	0	0	0	0	355	618
3	0	0	0	0	355	619
4	0	0	0	0	355	614
5	0	0	0	0	354	619
6	0	0	0	0	354	619
7	0	0	0	0	354	619
8	0	0	0	0	355	623
9	0	0	0	0	355	619
10	0	0	0	0	355	619
11	0	0	0	0	355	619
12	0	0	0	0	356	614
13	0	0	0	0	356	619
14	0	0	0	0	357	619
15	0	0	0	0	358	620
0	0	0	0	0	359	623
1	0	0	0	0	361	619
2	0	0	0	0	362	619
3	0	0	0	0	364	619
4	0	0	0	0	366	613
5	0	0	0	0	368	617
6	0	0	0	0	370	618
7	0	0	0	0	373	618
8	0	0	0	0	376	622
9	0	0	0	0	378	616
10	0	0	0	0	380	617
11	0	0	0	0	383	617
12	0	0	0	0	385	612
13	0	0	0	0	387	617
14	0	0	0	0	390	617
15	0	0	0	0	392	617
0	0	0	0	0	395	621
1	0	0	0	0	397	617
2	0	0	0	0	400	616
3	0	0	0	0	402	616
4	0	0	0	0	406	612
5	0	0	0	0	410	617
6	0	0	0	0	413	617
7	0	0	0	0	416	617
8	0	0	0	0	419	621
9	0	0	0	0	423	617
10	0	0	0	0	427	617
11	0	0	0	0	430	617
12	0	0	0	0	434	613
13	0	0	0	0	439	618
14	0	0	0	0	443	617
15	0	0	0	0	448	617
0	0	0	0	0	451	622
1	0	0	0	0	456	617
2	0	0	0	0	462	617
3	0	0	0	0	467	616
4	0	0	0	0	472	612
5	0	0	0	0	476	617
6	0	0	0	0	481	617
7	0	0	0	0	487	617
8	0	0	0	0	492	622
9	0	0	0	0	497	617
10	0	0	0	0	503	617
11	0	0	0	0	508	617
12	0	0	0	0	513	613
13	0	0	0	0	519	618
14	0	0	0	0	525	618
15	0	0	0	0	531	619
0	0	0	0	0	536	623
1	0	0	0	0	542	618
2	0	0	0	0	545	618
3	0	0	0	0	550	618
4	0	0	0	0	554	614
5	0	0	0	0	559	618
6	0	0	0	0	562	618
7	0	0	0	0	567	619
8	0	0	0	0	570	623
9	0	0	0	0	574	618
10	0	0	0	0	578	618
11	0	0	0	0	581	618
12	0	0	0	0	584	613
13	0	0	0	0	588	618
14	0	0	0	0	590	619
15	0	0	0	0	593	619
0	0	0	0	0	596	623
1	0	0	0	0	600	618
2	0	0	0	0	602	619
3	0	0	0	0	604	618
4	0	0	0	0	606	612
5	0	0	0	0	608	618
6	0	0	0	0	610	618
7	0	0	0	0	611	619
8	0	0	0	0	613	622
9	0	0	0	0	614	617
10	0	0	0	0	615	618
11	0	0	0	0	616	617
12	0	0	0	0	617	612
13	0	0	0	0	618	617
14	0	0	0	0	619	617
15	0	0	0	0	620	618
0	0	0	0	0	620	622
1	0	0	0	0	620	617
2	0	0	0	0	621	617
3	0	0	0	0	622	617
4	0	0	0	0	623	613
5	0	0	0	0	623	618
6	0	0	0	0	623	618
7	0	0	0	0	624	618
8	0	0	0	0	623	623
9	0	0	0	0	623	617
10	0	0	0	0	623	618
11	0	0	0	0	622	617
12	0	0	0	0	622	613
13	0	0	0	0	621	618
14	0	0	0	0	621	619
15	0	0	0	0	621	619
0	0	0	0	0	622	623
1	0	0	0	0	622	620
2	0	0	0	0	622	619
3	0	0	0	0	621	619
4	0	0	0	0	620	614
5	0	0	0	0	620	620
6	0	0	0	0	619	619
7	0	0	0	0	618	619
8	0	0	0	0	617	623
9	0	0	0	0	617	618
10	0	0	0	0	617	618
11	0	0	0	0	615	618
12	0	0	0	0	615	613
13	0	0	0	0	614	618
14	0	0	0	0	614	617
15	0	0	0	0	613	617
0	0	0	0	0	612	621
1	0	0	0	0	611	617
2	0	0	0	0	611	617
3	0	0	0	0	610	616
4	0	0	0	0	609	612
5	0	0	0	0	608	617
6	0	0	0	0	607	616
7	0	0	0	0	606	617
8	0	0	0	0	605	620
9	0	0	0	0	604	616
10	0	0	0	0	604	617
11	0	0	0	0	604	616
12	0	0	0	0	604	611
13	0	0	0	0	603	616
14	0	0	0	0	602	617
15	0	0	0	0	601	616
0	0	0	0	0	600	621
1	0	0	0	0	600	617
2	0	0	0	0	598	617
3	0	0	0	0	596	617
4	0	0	0	0	595	612
5	0	0	0	0	594	617
6	0	0	0	0	593	617
7	0	0	0	0	591	618
8	0	0	0	0	591	622
9	0	0	0	0	590	617
10	0	0	0	0	589	618
11	0	0	0	0	588	619
12	0	0	0	0	587	613
13	0	0	0	0	585	618
14	0	0	0	0	583	618
15	0	0	0	0	582	618
0	0	0	0	0	580	623
1	0	0	0	0	579	618
2	0	0	0	0	578	619
3	0	0	0	0	577	618
4	0	0	0	0	576	613
5	0	0	0	0	574	618
6	0	0	0	0	573	618
7	0	0	0	0	572	618
8	0	0	0	0	572	622
9	0	0	0	0	572	617
10	0	0	0	0	570	618
11	0	0	0	0	569	617
12	0	0	0	0	568	613
13	0	0	0	0	568	618
14	0	0	0	0	567	618
15	0	0	0	0	566	618
0	0	0	0	0	565	622
1	0	0	0	0	564	617
2	0	0	0	0	563	618
3	0	0	0	0	562	617
4	0	0	0	0	560	613
5	0	0	0	0	560	618
6	0	0	0	0	559	618
7	0	0	0	0	558	618
8	0	0	0	0	557	622
9	0	0	0	0	555	618
10	0	0	0	0	554	618
11	0	0	0	0	553	619
12	0	0	0	0	552	612
13	0	0	0	0	551	617
14	0	0	0	0	551	617
15	0	0	0	0	550	617
0	0	0	0	0	549	622
1	0	0	0	0	548	617
2	0	0	0	0	548	618
3	0	0	0	0	547	617
4	0	0	0	0	546	612
5	0	0	0	0	545	617
6	0	0	0	0	545	617
7	0	0	0	0	544	617
8	0	0	0	0	544	622
9	0	0	0	0	543	618
10	0	0	0	0	543	617
11	0	0	0	0	542	617
12	0	0	0	0	541	612
13	0	0	0	0	541	617
14	0	0	0	0	541	617
15	0	0	0	0	541	618
0	0	0	0	0	540	622
1	0	0	0	0	540	617
2	0	0	0	0	539	618
3	0	0	0	0	539	618
4	0	0	0	0	539	613
5	0	0	0	0	538	618
6	0	0	0	0	538	618
7	0	0	0	0	537	618
8	0	0	0	0	537	622
9	0	0	0	0	537	617
10	0	0	0	0	536	617
11	0	0	0	0	536	617
12	0	0	0	0	536	612
13	0	0	0	0	535	617
14	0	0	0	0	536	617
15	0	0	0	0	536	617
0	0	0	0	0	535	621
1	0	0	0	0	536	616
2	0	0	0	0	536	617
3	0	0	0	0	535	617
4	0	0	0	0	535	611
5	0	0	0	0	535	616
6	0	0	0	0	535	616
7	0	0	0	0	535	616
8	0	0	0	0	535	621
9	0	0	0	0	535	616
10	0	0	0	0	534	617
11	0	0	0	0	534	617
12	0	0	0	0	534	611
13	0	0	0	0	533	617
14	0	0	0	0	533	617
15	0	0	0	0	534	617
0	0	0	0	0	534	621
1	0	0	0	0	533	616
2	0	0	0	0	533	617
3	0	0	0	0	532	617
4	0	0	0	0	533	612
5	0	0	0	0	534	617
6	0	0	0	0	535	617
7	0	0	0	0	536	618
8	0	0	0	0	536	622
9	0	0	0	0	536	619
10	0	0	0	0	537	619
11	0	0	0	0	537	619
12	0	0	0	0	538	614
13	0	0	0	0	538	620
14	0	0	0	0	539	619
15	0	0	0	0	540	620
0	0	0	0	0	539	624
1	0	0	0	0	539	620
2	0	0	0	0	539	619
3	0	0	0	0	538	619
4	0	0	0	0	537	615
5	0	0	0	0	537	620
6	0	0	0	0	536	619
7	0	0	0	0	536	619
8	0	0	0	0	536	623
9	0	0	0	0	536	619
10	0	0	0	0	536	619
11	0	0	0	0	535	619
12	0	0	0	0	535	614
13	0	0	0	0	535	619
14	0	0	0	0	535	619
15	0	0	0	0	535	619
0	0	0	0	0	535	623
1	0	0	0	0	535	618
2	0	0	0	0	535	619
3	0	0	0	0	535	619
4	0	0	0	0	534	613
5	0	0	0	0	534	618
6	0	0	0	0	534	619
7	0	0	0	0	535	618
8	0	0	0	0	535	623
9	0	0	0	0	535	618
10	0	0	0	0	535	617
11	0	0	0	0	536	618
12	0	0	0	0	536	613
13	0	0	0	0	536	618
14	0	0	0	0	536	618
15	0	0	0	0	536	618
0	0	0	0	0	535	623
1	0	0	0	0	534	617
2	0	0	0	0	534	617
3	0	0	0	0	534	617
4	0	0	0	0	534	611
5	0	0	0	0	534	617
6	0	0	0	0	534	617
7	0	0	0	0	533	617
8	0	0	0	0	534	621
9	0	0	0	0	534	617
10	0	0	0	0	534	617
11	0	0	0	0	534	617
12	0	0	0	0	533	612
13	0	0	0	0	533	617
14	0	0	0	0	534	617
15	0	0	0	0	534	617
0	0	0	0	0	534	622
1	0	0	0	0	533	617
2	0	0	0	0	533	618
3	0	0	0	0	533	617
4	0	0	0	0	534	612
5	0	0	0	0	533	617
6	0	0	0	0	533	618
7	0	0	0	0	533	618
8	0	0	0	0	533	622
9	0	0	0	0	533	617
10	0	0	0	0	532	617
11	0	0	0	0	532	617
12	0	0	0	0	531	612
13	0	0	0	0	531	618
14	0	0	0	0	530	618
15	0	0	0	0	530	618
0	0	0	0	0	531	622
1	0	0	0	0	531	617
2	0	0	0	0	531	617
3	0	0	0	0	531	617
4	0	0	0	0	531	612
5	0	0	0	0	531	616
6	0	0	0	0	531	616
7	0	0	0	0	531	617
8	0	0	0	0	531	620
9	0	0	0	0	531	616
10	0	0	0	0	531	616
11	0	0	0	0	531	616
12	0	0	0	0	530	611
13	0	0	0	0	530	616
14	0	0	0	0	529	616
15	0	0	0	0	528	616
0	0	0	0	0	528	620
1	0	0	0	0	528	616
2	0	0	0	0	528	616
3	0	0	0	0	528	616
4	0	0	0	0	528	611
5	0	0	0	0	528	616
6	0	0	0	0	527	616
7	0	0	0	0	527	617
8	0	0	0	0	527	621
9	0	0	0	0	527	617
10	0	0	0	0	527	617
11	0	0	0	0	526	618
12	0	0	0	0	526	613
13	0	0	0	0	526	618
14	0	0	0	0	526	618
15	0	0	0	0	526	618
0	0	0	0	0	525	622
1	0	0	0	0	525	618
2	0	0	0	0	525	618
3	0	0	0	0	525	619
4	0	0	0	0	525	613
5	0	0	0	0	525	618
6	0	0	0	0	524	618
7	0	0	0	0	525	619
8	0	0	0	0	525	623
9	0	0	0	0	526	619
10	0	0	0	0	526	619
11	0	0	0	0	525	619
12	0	0	0	0	525	613
13	0	0	0	0	524	619
14	0	0	0	0	524	619
15	0	0	0	0	524	619
0	0	0	0	0	523	623
1	0	0	0	0	523	619
2	0	0	0	0	522	619
3	0	0	0	0	521	619
4	0	0	0	0	520	614
5	0	0	0	0	521	620
6	0	0	0	0	521	620
7	0	0	0	0	520	619
8	0	0	0	0	520	623
9	0	0	0	0	519	620
10	0	0	0	0	519	619
11	0	0	0	0	519	619
12	0	0	0	0	518	614
13	0	0	0	0	518	619
14	0	0	0	0	518	619
15	0	0	0	0	519	619
0	0	0	0	0	519	622
1	0	0	0	0	519	618
2	0	0	0	0	520	618
3	0	0	0	0	520	618
4	0	0	0	0	521	612
5	0	0	0	0	521	617
6	0	0	0	0	521	617
7	0	0	0	0	522	618
8	0	0	0	0	523	622
9	0	0	0	0	523	617
10	0	0	0	0	522	617
11	0	0	0	0	523	617
12	0	0	0	0	521	613
13	0	0	0	0	521	617
14	0	0	0	0	521	617
15	0	0	0	0	521	618
0	0	0	0	0	520	621
1	0	0	0	0	520	618
2	0	0	0	0	520	618
3	0	0	0	0	519	617
4	0	0	0	0	519	613
5	0	0	0	0	518	618
6	0	0	0	0	518	617
7	0	0	0	0	517	617
8	0	0	0	0	516	621
9	0	0	0	0	516	617
10	0	0	0	0	516	617
11	0	0	0	0	516	617
12	0	0	0	0	515	612
13	0	0	0	0	515	618
14	0	0	0	0	515	617
15	0	0	0	0	515	618
0	0	0	0	0	515	622
1	0	0	0	0	515	617
2	0	0	0	0	515	617
3	0	0	0	0	515	617
4	0	0	0	0	514	613
5	0	0	0	0	515	618
6	0	0	0	0	515	618
7	0	0	0	0	515	618
8	0	0	0	0	515	622
9	0	0	0	0	515	618
10	0	0	0	0	514	618
11	0	0	0	0	514	618
12	0	0	0	0	514	612
13	0	0	0	0	514	617
14	0	0	0	0	513	618
15	0	0	0	0	513	618
0	0	0	0	0	513	622
1	0	0	0	0	513	618
2	0	0	0	0	513	618
3	0	0	0	0	513	619
4	0	0	0	0	513	614
5	0	0	0	0	513	618
6	0	0	0	0	513	618
7	0	0	0	0	513	618
8	0	0	0	0	513	622
9	0	0	0	0	513	618
10	0	0	0	0	512	619
11	0	0	0	0	512	618
12	0	0	0	0	512	612
13	0	0	0	0	512	618
14	0	0	0	0	511	618
15	0	0	0	0	510	619
0	0	0	0	0	510	623
1	0	0	0	0	511	618
2	0	0	0	0	509	618
3	0	0	0	0	509	618
4	0	0	0	0	509	614
5	0	0	0	0	508	618
6	0	0	0	0	508	618
7	0	0	0	0	508	618
8	0	0	0	0	508	623
9	0	0	0	0	508	618
10	0	0	0	0	509	618
11	0	0	0	0	508	617
12	0	0	0	0	508	613
13	0	0	0	0	508	618
14	0	0	0	0	508	618
15	0	0	0	0	507	619
0	0	0	0	0	507	622
1	0	0	0	0	506	617
2	0	0	0	0	505	617
3	0	0	0	0	505	617
4	0	0	0	0	504	613
5	0	0	0	0	504	618
6	0	0	0	0	504	618
7	0	0	0	0	503	618
8	0	0	0	0	503	622
9	0	0	0	0	503	618
10	0	0	0	0	502	619
11	0	0	0	0	502	618
12	0	0	0	0	501	613
13	0	0	0	0	501	619
14	0	0	0	0	501	619
15	0	0	0	0	502	619
0	0	0	0	0	502	622
1	0	0	0	0	502	618
2	0	0	0	0	501	618
3	0	0	0	0	502	619
4	0	0	0	0	501	613
5	0	0	0	0	501	618
6	0	0	0	0	501	618
7	0	0	0	0	501	619
8	0	0	0	0	501	622
9	0	0	0	0	501	618
10	0	0	0	0	502	617
11	0	0	0	0	502	617
12	0	0	0	0	503	613
13	0	0	0	0	504	617
14	0	0	0	0	506	618
15	0	0	0	0	508	618
0	0	0	0	0	510	622
1	0	0	0	0	512	618
2	0	0	0	0	513	618
3	0	0	0	0	515	618
4	0	0	0	0	515	613
5	0	0	0	0	517	618
6	0	0	0	0	518	618
7	0	0	0	0	519	618
8	0	0	0	0	519	623
9	0	0	0	0	520	618
10	0	0	0	0	521	617
11	0	0	0	0	521	617
12	0	0	0	0	521	612
13	0	0	0	0	521	617
14	0	0	0	0	521	617
15	0	0	0	0	521	617
0	0	0	0	0	521	621
1	0	0	0	0	520	617
2	0	0	0	0	520	616
3	0	0	0	0	519	616
4	0	0	0	0	518	612
5	0	0	0	0	517	617
6	0	0	0	0	515	617
7	0	0	0	0	514	617
8	0	0	0	0	513	622
9	0	0	0	0	513	617
10	0	0	0	0	512	617
11	0	0	0	0	512	617
12	0	0	0	0	511	612
13	0	0	0	0	511	617
14	0	0	0	0	511	617
15	0	0	0	0	511	617
0	0	0	0	0	511	622
1	0	0	0	0	512	617
2	0	0	0	0	512	618
3	0	0	0	0	513	617
4	0	0	0	0	514	612
5	0	0	0	0	513	617
6	0	0	0	0	514	617
7	0	0	0	0	513	618
8	0	0	0	0	513	622
9	0	0	0	0	512	617
10	0	0	0	0	512	618
11	0	0	0	0	512	617
12	0	0	0	0	513	613
13	0	0	0	0	514	618
14	0	0	0	0	515	618
15	0	0	0	0	515	619
0	0	0	0	0	515	623
1	0	0	0	0	515	618
2	0	0	0	0	515	618
3	0	0	0	0	515	618
4	0	0	0	0	515	614
5	0	0	0	0	514	618
6	0	0	0	0	513	617
7	0	0	0	0	512	618
8	0	0	0	0	511	622
9	0	0	0	0	511	617
10	0	0	0	0	510	618
11	0	0	0	0	510	617
12	0	0	0	0	510	613
13	0	0	0	0	510	618
14	0	0	0	0	510	617
15	0	0	0	0	510	618
0	0	0	0	0	509	621
1	0	0	0	0	509	617
2	0	0	0	0	509	618
3	0	0	0	0	509	618
4	0	0	0	0	508	612
5	0	0	0	0	509	617
6	0	0	0	0	508	617
7	0	0	0	0	509	618
8	0	0	0	0	509	622
9	0	0	0	0	509	617
10	0	0	0	0	510	618
11	0	0	0	0	509	617
12	0	0	0	0	509	613
13	0	0	0	0	509	618
14	0	0	0	0	509	618
15	0	0	0	0	508	618
0	0	0	0	0	507	621
1	0	0	0	0	508	617
2	0	0	0	0	508	617
3	0	0	0	0	508	617
4	0	0	0	0	507	613
5	0	0	0	0	507	618
6	0	0	0	0	507	617
7	0	0	0	0	508	618
8	0	0	0	0	507	622
9	0	0	0	0	507	618
10	0	0	0	0	507	618
11	0	0	0	0	506	618
12	0	0	0	0	507	613
13	0	0	0	0	506	618
14	0	0	0	0	506	618
15	0	0	0	0	507	619
0	0	0	0	0	507	623
1	0	0	0	0	507	618
2	0	0	0	0	507	618
3	0	0	0	0	507	618
4	0	0	0	0	507	613
5	0	0	0	0	507	619
6	0	0	0	0	507	618
7	0	0	0	0	507	619
8	0	0	0	0	506	623
9	0	0	0	0	504	619
10	0	0	0	0	500	618
11	0	0	0	0	495	618
12	0	0	0	0	487	614
13	0	0	0	0	475	617
14	0	0	0	0	461	617
15	0	0	0	0	447	618
0	0	0	0	0	430	622
1	0	0	0	0	415	617
2	0	0	0	0	401	617
3	0	0	0	0	390	617
4	0	0	0	0	379	611
5	0	0	0	0	369	617
6	0	0	0	0	358	617
7	0	0	0	0	346	618
8	0	0	0	0	337	622
9	0	0	0	0	331	617
10	0	0	0	0	327	617
11	0	0	0	0	321	616
12	0	0	0	0	316	612
13	0	0	0	0	313	617
14	0	0	0	0	314	617
15	0	0	0	0	323	617
0	0	0	0	0	338	622
1	0	0	0	0	359	617
2	0	0	0	0	389	617
3	0	0	0	0	432	617
4	0	0	0	0	484	613
5	0	0	0	0	544	617
6	0	0	0	0	609	617
7	0	0	0	0	678	618
8	0	0	0	0	756	622
9	0	0	0	0	842	617
10	0	0	0	0	934	618
11	0	0	0	0	1020	618
12	0	0	0	0	1022	613
13	0	0	0	0	1022	618
14	0	0	0	0	1022	618
15	0	0	0	0	1022	618
0	0	0	0	0	1022	623
1	0	0	0	0	1022	619
2	0	0	0	0	1022	619
3	0	0	0	0	1022	618
4	0	0	0	0	1022	614
5	0	0	0	0	1022	618
6	0	0	0	0	1022	618
7	0	0	0	0	1022	618
8	0	0	0	0	1022	623
9	0	0	0	0	1022	618
10	0	0	0	0	1022	618
11	0	0	0	0	1022	618
12	0	0	0	0	1021	613
13	0	0	0	0	988	617
14	0	0	0	0	959	618
15	0	0	0	0	933	618
0	0	0	0	0	910	621
1	0	0	0	0	888	617
2	0	0	0	0	862	616
3	0	0	0	0	832	616
4	0	0	0	0	799	611
5	0	0	0	0	764	616
6	0	0	0	0	728	617
7	0	0	0	0	691	617
8	0	0	0	0	657	621
9	0	0	0	0	626	616
10	0	0	0	0	598	617
11	0	0	0	0	572	616
12	0	0	0	0	548	611
13	0	0	0	0	527	616
14	0	0	0	0	507	616
15	0	0	0	0	489	617
0	0	0	0	0	472	621
1	0	0	0	0	455	617
2	0	0	0	0	440	617
3	0	0	0	0	424	616
4	0	0	0	0	411	612
5	0	0	0	0	398	617
6	0	0	0	0	386	617
7	0	0	0	0	376	617
8	0	0	0	0	366	621
9	0	0	0	0	357	617
10	0	0	0	0	350	617
11	0	0	0	0	343	617
12	0	0	0	0	335	611
13	0	0	0	0	329	617
14	0	0	0	0	323	617
15	0	0	0	0	318	617
0	0	0	0	0	314	622
1	0	0	0	0	310	617
2	0	0	0	0	307	618
3	0	0	0	0	306	618
4	0	0	0	0	304	612
5	0	0	0	0	303	617
6	0	0	0	0	302	617
7	0	0	0	0	302	617
8	0	0	0	0	301	622
9	0	0	0	0	301	617
10	0	0	0	0	301	618
11	0	0	0	0	302	618
12	0	0	0	0	302	613
13	0	0	0	0	303	618
14	0	0	0	0	304	619
15	0	0	0	0	304	619
0	0	0	0	0	305	623
1	0	0	0	0	305	619
2	0	0	0	0	306	619
3	0	0	0	0	307	619
4	0	0	0	0	308	614
5	0	0	0	0	308	619
6	0	0	0	0	309	618
7	0	0	0	0	310	619
8	0	0	0	0	311	622
9	0	0	0	0	312	617
10	0	0	0	0	313	618
11	0	0	0	0	315	618
12	0	0	0	0	316	613
13	0	0	0	0	317	617
14	0	0	0	0	318	618
15	0	0	0	0	318	618
0	0	0	0	0	319	622
1	0	0	0	0	320	617
2	0	0	0	0	321	618
3	0	0	0	0	323	617
4	0	0	0	0	324	613
5	0	0	0	0	326	618
6	0	0	0	0	327	618
7	0	0	0	0	328	618
8	0	0	0	0	329	621
9	0	0	0	0	331	617
10	0	0	0	0	332	617
11	0	0	0	0	333	617
12	0	0	0	0	334	612
13	0	0	0	0	336	617
14	0	0	0	0	337	617
15	0	0	0	0	338	619
0	0	0	0	0	339	622
1	0	0	0	0	341	618
2	0	0	0	0	342	618
3	0	0	0	0	343	617
4	0	0	0	0	344	613
5	0	0	0	0	344	618
6	0	0	0	0	346	617
7	0	0	0	0	347	617
8	0	0	0	0	348	622
9	0	0	0	0	350	618
10	0	0	0	0	350	618
11	0	0	0	0	351	618
12	0	0	0	0	351	612
13	0	0	0	0	352	617
14	0	0	0	0	352	618
15	0	0	0	0	353	619
0	0	0	0	0	355	622
1	0	0	0	0	355	618
2	0	0	0	0	356	618
3	0	0	0	0	357	617
4	0	0	0	0	358	612
5	0	0	0	0	359	617
6	0	0	0	0	359	618
7	0	0	0	0	359	618
8	0	0	0	0	359	622
9	0	0	0	0	359	617
10	0	0	0	0	359	618
11	0	0	0	0	359	618
12	0	0	0	0	360	613
13	0	0	0	0	360	618
14	0	0	0	0	361	618
15	0	0	0	0	362	619
0	0	0	0	0	362	622
1	0	0	0	0	362	619
2	0	0	0	0	361	618
3	0	0	0	0	362	617
4	0	0	0	0	363	613
5	0	0	0	0	363	619
6	0	0	0	0	364	618
7	0	0	0	0	365	618
8	0	0	0	0	365	622
9	0	0	0	0	366	618
10	0	0	0	0	367	619
11	0	0	0	0	367	617
12	0	0	0	0	368	612
13	0	0	0	0	368	617
14	0	0	0	0	368	617
15	0	0	0	0	368	617
0	0	0	0	0	368	622
1	0	0	0	0	369	617
2	0	0	0	0	368	617
3	0	0	0	0	368	617
4	0	0	0	0	367	612
5	0	0	0	0	367	617
6	0	0	0	0	367	617
7	0	0	0	0	366	617
8	0	0	0	0	366	621
9	0	0	0	0	366	616
10	0	0	0	0	366	616
11	0	0	0	0	364	617
12	0	0	0	0	363	612
13	0	0	0	0	363	617
14	0	0	0	0	362	617
15	0	0	0	0	361	617
0	0	0	0	0	360	621
1	0	0	0	0	359	617
2	0	0	0	0	359	616
3	0	0	0	0	359	617
4	0	0	0	0	358	612
5	0	0	0	0	358	617
6	0	0	0	0	356	617
7	0	0	0	0	356	618
8	0	0	0	0	355	622
9	0	0	0	0	355	618
10	0	0	0	0	354	617
11	0	0	0	0	353	618
12	0	0	0	0	353	613
13	0	0	0	0	352	617
14	0	0	0	0	352	617
15	0	0	0	0	352	618
0	0	0	0	0	351	623
1	0	0	0	0	352	618
2	0	0	0	0	350	619
3	0	0	0	0	349	619
4	0	0	0	0	348	614
5	0	0	0	0	348	620
6	0	0	0	0	348	619
7	0	0	0	0	347	619
8	0	0	0	0	346	624
9	0	0	0	0	345	619
10	0	0	0	0	345	619
11	0	0	0	0	345	619
12	0	0	0	0	345	614
13	0	0	0	0	346	619
14	0	0	0	0	346	619
15	0	0	0	0	346	619
0	0	0	0	0	347	622
1	0	0	0	0	349	618
2	0	0	0	0	350	618
3	0	0	0	0	352	618
4	0	0	0	0	353	613
5	0	0	0	0	355	618
6	0	0	0	0	356	618
7	0	0	0	0	357	617
8	0	0	0	0	358	621
9	0	0	0	0	360	617
10	0	0	0	0	361	617
11	0	0	0	0	363	617
12	0	0	0	0	364	612
13	0	0	0	0	367	616
14	0	0	0	0	369	617
15	0	0	0	0	372	617
0	0	0	0	0	375	621
1	0	0	0	0	377	617
2	0	0	0	0	380	617
3	0	0	0	0	383	617
4	0	0	0	0	386	612
5	0	0	0	0	389	617
6	0	0	0	0	391	617
7	0	0	0	0	393	617
8	0	0	0	0	395	621
9	0	0	0	0	399	617
10	0	0	0	0	401	617
11	0	0	0	0	405	617
12	0	0	0	0	409	611
13	0	0	0	0	412	617
14	0	0	0	0	415	617
15	0	0	0	0	419	618
0	0	0	0	0	422	622
1	0	0	0	0	427	617
2	0	0	0	0	431	617
3	0	0	0	0	436	618
4	0	0	0	0	441	613
5	0	0	0	0	445	618
6	0	0	0	0	450	618
7	0	0	0	0	455	618
8	0	0	0	0	461	622
9	0	0	0	0	465	618
10	0	0	0	0	470	617
11	0	0	0	0	474	618
12	0	0	0	0	478	613
13	0	0	0	0	483	618
14	0	0	0	0	488	619
15	0	0	0	0	492	619
0	0	0	0	0	498	623
1	0	0	0	0	503	619
2	0	0	0	0	508	619
3	0	0	0	0	512	618
4	0	0	0	0	516	614
5	0	0	0	0	521	619
6	0	0	0	0	526	619
7	0	0	0	0	531	619
8	0	0	0	0	535	623
9	0	0	0	0	539	618
10	0	0	0	0	543	617
11	0	0	0	0	547	618
12	0	0	0	0	551	613
13	0	0	0	0	555	619
14	0	0	0	0	558	618
15	0	0	0	0	561	618
0	0	0	0	0	563	622
1	0	0	0	0	567	618
2	0	0	0	0	569	617
3	0	0	0	0	572	617
4	0	0	0	0	575	612
5	0	0	0	0	577	616
6	0	0	0	0	581	616
7	0	0	0	0	584	617
8	0	0	0	0	586	621
9	0	0	0	0	589	617
10	0	0	0	0	591	616
11	0	0	0	0	594	617
12	0	0	0	0	596	612
13	0	0	0	0	597	617
14	0	0	0	0	599	617
15	0	0	0	0	600	618
0	0	0	0	0	602	622
1	0	0	0	0	603	618
2	0	0	0	0	604	618
3	0	0	0	0	604	617
4	0	0	0	0	605	612
5	0	0	0	0	606	619
6	0	0	0	0	606	618
7	0	0	0	0	606	618
8	0	0	0	0	607	623
9	0	0	0	0	606	619
10	0	0	0	0	607	618
11	0	0	0	0	607	618
12	0	0	0	0	607	613
13	0	0	0	0	608	619
14	0	0	0	0	608	618
15	0	0	0	0	608	618
0	0	0	0	0	607	623
1	0	0	0	0	607	618
2	0	0	0	0	607	619
3	0	0	0	0	606	618
4	0	0	0	0	606	614
5	0	0	0	0	606	619
6	0	0	0	0	606	619
7	0	0	0	0	606	619
8	0	0	0	0	606	623
9	0	0	0	0	606	619
10	0	0	0	0	606	618
11	0	0	0	0	605	618
12	0	0	0	0	606	614
13	0	0	0	0	606	618
14	0	0	0	0	606	618
15	0	0	0	0	605	618
0	0	0	0	0	605	622
1	0	0	0	0	605	618
2	0	0	0	0	604	617
3	0	0	0	0	604	617
4	0	0	0	0	603	612
5	0	0	0	0	603	617
6	0	0	0	0	601	617
7	0	0	0	0	600	617
8	0	0	0	0	600	622
9	0	0	0	0	600	617
10	0	0	0	0	599	617
11	0	0	0	0	598	617
12	0	0	0	0	596	612
13	0	0	0	0	595	618
14	0	0	0	0	594	617
15	0	0	0	0	593	618
0	0	0	0	0	592	622
1	0	0	0	0	592	617
2	0	0	0	0	591	617
3	0	0	0	0	590	617
4	0	0	0	0	590	612
5	0	0	0	0	590	617
6	0	0	0	0	589	617
7	0	0	0	0	588	618
8	0	0	0	0	587	622
9	0	0	0	0	586	618
10	0	0	0	0	585	618
11	0	0	0	0	584	618
12	0	0	0	0	583	613
13	0	0	0	0	583	618
14	0	0	0	0	581	618
15	0	0	0	0	581	617
0	0	0	0	0	579	622
1	0	0	0	0	578	618
2	0	0	0	0	577	617
3	0	0	0	0	576	617
4	0	0	0	0	574	612
5	0	0	0	0	572	617
6	0	0	0	0	572	617
7	0	0	0	0	572	618
8	0	0	0	0	571	622
9	0	0	0	0	571	617
10	0	0	0	0	569	617
11	0	0	0	0	568	617
12	0	0	0	0	567	612
13	0	0	0	0	566	617
14	0	0	0	0	565	617
15	0	0	0	0	564	617
0	0	0	0	0	564	622
1	0	0	0	0	563	617
2	0	0	0	0	562	618
3	0	0	0	0	561	618
4	0	0	0	0	560	612
5	0	0	0	0	560	618
6	0	0	0	0	558	618
7	0	0	0	0	558	618
8	0	0	0	0	556	621
9	0	0	0	0	555	618
10	0	0	0	0	553	618
11	0	0	0	0	552	617
12	0	0	0	0	551	613
13	0	0	0	0	549	617
14	0	0	0	0	548	619
15	0	0	0	0	548	619
0	0	0	0	0	548	623
1	0	0	0	0	548	618
2	0	0	0	0	548	618
3	0	0	0	0	547	618
4	0	0	0	0	547	613
5	0	0	0	0	547	618
6	0	0	0	0	546	618
7	0	0	0	0	546	618
8	0	0	0	0	545	622
9	0	0	0	0	545	618
10	0	0	0	0	543	618
11	0	0	0	0	543	618
12	0	0	0	0	542	612
13	0	0	0	0	542	618
14	0	0	0	0	541	617
15	0	0	0	0	541	619
