# OpenSignals Text File Format. Version 1
# {"98:D3:91:FD:59:64": {"position": 0, "device": "bitalino_rev", "device name": "98:D3:91:FD:59:64", "device connection": "BTH98:D3:91:FD:59:64", "sampling rate": 1000, "resolution": [4, 1, 1, 1, 1, 10, 10], "firmware version": 1281, "comments": "", "keywords": "", "mode": 0, "sync interval": 2, "date": "2021-9-5", "time": "15:4:49.469", "channels": [2, 5], "sensor": ["RAW", "RAW"], "label": ["A2", "A5"], "column": ["nSeq", "I1", "I2", "O1", "O2", "A2", "A5"], "special": [{}, {}], "digital IO": [0, 0, 1, 1], "convertedValues": 0}}
# EndOfHeader
0	0	0	0	0	539	624	
1	0	0	0	0	539	623	
2	0	0	0	0	539	623	
3	0	0	0	0	540	623	
4	0	0	0	0	540	623	
5	0	0	0	0	541	623	
6	0	0	0	0	540	624	
7	0	0	0	0	539	624	
8	0	0	0	0	537	624	
9	0	0	0	0	534	624	
10	0	0	0	0	531	624	
11	0	0	0	0	527	624	
12	0	0	0	0	525	624	
13	0	0	0	0	522	624	
14	0	0	0	0	518	624	
15	0	0	0	0	512	624	
0	0	0	0	0	505	624	
1	0	0	0	0	500	624	
2	0	0	0	0	495	624	
3	0	0	0	0	493	624	
4	0	0	0	0	491	624	
5	0	0	0	0	489	624	
6	0	0	0	0	486	624	
7	0	0	0	0	484	624	
8	0	0	0	0	485	624	
9	0	0	0	0	488	624	
10	0	0	0	0	493	624	
11	0	0	0	0	502	624	
12	0	0	0	0	515	624	
13	0	0	0	0	531	624	
14	0	0	0	0	551	624	
15	0	0	0	0	575	624	
0	0	0	0	0	599	623	
1	0	0	0	0	626	624	
2	0	0	0	0	656	624	
3	0	0	0	0	689	624	
4	0	0	0	0	725	624	
5	0	0	0	0	760	624	
6	0	0	0	0	797	624	
7	0	0	0	0	834	624	
8	0	0	0	0	871	624	
9	0	0	0	0	907	624	
10	0	0	0	0	937	624	
11	0	0	0	0	961	624	
12	0	0	0	0	981	624	
13	0	0	0	0	1000	624	
14	0	0	0	0	1013	624	
15	0	0	0	0	1019	624	
0	0	0	0	0	1021	624	
1	0	0	0	0	1022	624	
2	0	0	0	0	1022	624	
3	0	0	0	0	1021	625	
4	0	0	0	0	1015	624	
5	0	0	0	0	1001	624	
6	0	0	0	0	981	624	
7	0	0	0	0	956	625	
8	0	0	0	0	926	625	
9	0	0	0	0	892	625	
10	0	0	0	0	856	625	
11	0	0	0	0	817	625	
12	0	0	0	0	775	624	
13	0	0	0	0	734	625	
14	0	0	0	0	696	625	
15	0	0	0	0	657	625	
0	0	0	0	0	623	625	
1	0	0	0	0	593	625	
2	0	0	0	0	566	625	
3	0	0	0	0	543	625	
4	0	0	0	0	525	624	
5	0	0	0	0	512	625	
6	0	0	0	0	502	624	
7	0	0	0	0	494	624	
8	0	0	0	0	487	625	
9	0	0	0	0	481	624	
10	0	0	0	0	476	625	
11	0	0	0	0	471	625	
12	0	0	0	0	467	625	
13	0	0	0	0	464	624	
14	0	0	0	0	461	624	
15	0	0	0	0	459	625	
0	0	0	0	0	456	625	
1	0	0	0	0	455	625	
2	0	0	0	0	455	625	
3	0	0	0	0	454	625	
4	0	0	0	0	452	625	
5	0	0	0	0	451	625	
6	0	0	0	0	452	625	
7	0	0	0	0	453	625	
8	0	0	0	0	454	624	
9	0	0	0	0	456	625	
10	0	0	0	0	457	625	
11	0	0	0	0	457	625	
12	0	0	0	0	457	625	
13	0	0	0	0	457	625	
14	0	0	0	0	459	625	
15	0	0	0	0	457	624	
0	0	0	0	0	457	625	
1	0	0	0	0	456	625	
2	0	0	0	0	454	625	
3	0	0	0	0	453	624	
4	0	0	0	0	451	625	
5	0	0	0	0	449	625	
6	0	0	0	0	448	625	
7	0	0	0	0	448	624	
8	0	0	0	0	448	625	
9	0	0	0	0	448	624	
10	0	0	0	0	448	624	
11	0	0	0	0	449	624	
12	0	0	0	0	450	625	
13	0	0	0	0	451	624	
14	0	0	0	0	454	624	
15	0	0	0	0	457	624	
0	0	0	0	0	458	624	
1	0	0	0	0	459	624	
2	0	0	0	0	460	625	
3	0	0	0	0	460	624	
4	0	0	0	0	460	624	
5	0	0	0	0	460	624	
6	0	0	0	0	460	624	
7	0	0	0	0	460	624	
8	0	0	0	0	461	624	
9	0	0	0	0	462	624	
10	0	0	0	0	463	624	
11	0	0	0	0	463	624	
12	0	0	0	0	464	624	
13	0	0	0	0	466	624	
14	0	0	0	0	467	624	
15	0	0	0	0	471	624	
0	0	0	0	0	474	624	
1	0	0	0	0	477	624	
2	0	0	0	0	480	625	
3	0	0	0	0	483	624	
4	0	0	0	0	483	624	
5	0	0	0	0	484	624	
6	0	0	0	0	485	624	
7	0	0	0	0	486	624	
8	0	0	0	0	487	624	
9	0	0	0	0	487	624	
10	0	0	0	0	486	624	
11	0	0	0	0	485	624	
12	0	0	0	0	485	624	
13	0	0	0	0	486	624	
14	0	0	0	0	486	623	
15	0	0	0	0	486	623	
0	0	0	0	0	487	623	
1	0	0	0	0	487	623	
2	0	0	0	0	489	623	
3	0	0	0	0	490	623	
4	0	0	0	0	492	622	
5	0	0	0	0	494	622	
6	0	0	0	0	496	622	
7	0	0	0	0	497	622	
8	0	0	0	0	498	622	
9	0	0	0	0	500	621	
10	0	0	0	0	500	622	
11	0	0	0	0	499	621	
12	0	0	0	0	499	621	
13	0	0	0	0	498	620	
14	0	0	0	0	497	619	
15	0	0	0	0	497	620	
0	0	0	0	0	496	620	
1	0	0	0	0	494	620	
2	0	0	0	0	494	620	
3	0	0	0	0	493	620	
4	0	0	0	0	494	620	
5	0	0	0	0	495	619	
6	0	0	0	0	496	620	
7	0	0	0	0	498	620	
8	0	0	0	0	501	620	
9	0	0	0	0	504	620	
10	0	0	0	0	506	620	
11	0	0	0	0	508	620	
12	0	0	0	0	508	620	
13	0	0	0	0	509	620	
14	0	0	0	0	511	620	
15	0	0	0	0	512	619	
0	0	0	0	0	512	620	
1	0	0	0	0	511	620	
2	0	0	0	0	508	620	
3	0	0	0	0	504	620	
4	0	0	0	0	500	620	
5	0	0	0	0	496	621	
6	0	0	0	0	491	620	
7	0	0	0	0	487	621	
8	0	0	0	0	484	622	
9	0	0	0	0	480	622	
10	0	0	0	0	478	622	
11	0	0	0	0	475	622	
12	0	0	0	0	472	622	
13	0	0	0	0	471	622	
14	0	0	0	0	468	623	
15	0	0	0	0	466	623	
0	0	0	0	0	464	623	
1	0	0	0	0	460	623	
2	0	0	0	0	458	623	
3	0	0	0	0	455	623	
4	0	0	0	0	450	623	
5	0	0	0	0	445	622	
6	0	0	0	0	440	623	
7	0	0	0	0	436	622	
8	0	0	0	0	432	623	
9	0	0	0	0	428	623	
10	0	0	0	0	425	623	
11	0	0	0	0	422	623	
12	0	0	0	0	420	623	
13	0	0	0	0	418	623	
14	0	0	0	0	418	624	
15	0	0	0	0	418	623	
0	0	0	0	0	420	623	
1	0	0	0	0	422	624	
2	0	0	0	0	423	624	
3	0	0	0	0	425	624	
4	0	0	0	0	425	623	
5	0	0	0	0	425	624	
6	0	0	0	0	424	624	
7	0	0	0	0	422	623	
8	0	0	0	0	419	623	
9	0	0	0	0	418	623	
10	0	0	0	0	415	623	
11	0	0	0	0	415	623	
12	0	0	0	0	415	623	
13	0	0	0	0	414	623	
14	0	0	0	0	414	623	
15	0	0	0	0	414	624	
0	0	0	0	0	415	624	
1	0	0	0	0	416	623	
2	0	0	0	0	416	623	
3	0	0	0	0	417	623	
4	0	0	0	0	419	623	
5	0	0	0	0	421	623	
6	0	0	0	0	423	623	
7	0	0	0	0	424	622	
8	0	0	0	0	426	622	
9	0	0	0	0	426	623	
10	0	0	0	0	426	622	
11	0	0	0	0	426	622	
12	0	0	0	0	425	622	
13	0	0	0	0	423	622	
14	0	0	0	0	423	622	
15	0	0	0	0	422	622	
0	0	0	0	0	421	622	
1	0	0	0	0	420	622	
2	0	0	0	0	419	622	
3	0	0	0	0	421	622	
4	0	0	0	0	422	621	
5	0	0	0	0	423	621	
6	0	0	0	0	425	621	
7	0	0	0	0	427	621	
8	0	0	0	0	429	621	
9	0	0	0	0	432	621	
10	0	0	0	0	434	620	
11	0	0	0	0	435	620	
12	0	0	0	0	437	620	
13	0	0	0	0	439	621	
14	0	0	0	0	440	620	
15	0	0	0	0	439	621	
0	0	0	0	0	438	620	
1	0	0	0	0	436	620	
2	0	0	0	0	435	620	
3	0	0	0	0	433	620	
4	0	0	0	0	431	620	
5	0	0	0	0	431	620	
6	0	0	0	0	432	619	
7	0	0	0	0	431	620	
8	0	0	0	0	432	620	
9	0	0	0	0	432	620	
10	0	0	0	0	433	621	
11	0	0	0	0	435	620	
12	0	0	0	0	436	620	
13	0	0	0	0	439	621	
14	0	0	0	0	441	621	
15	0	0	0	0	442	621	
0	0	0	0	0	442	621	
1	0	0	0	0	443	620	
2	0	0	0	0	443	621	
3	0	0	0	0	440	621	
4	0	0	0	0	440	621	
5	0	0	0	0	438	622	
6	0	0	0	0	436	621	
7	0	0	0	0	434	622	
8	0	0	0	0	431	622	
9	0	0	0	0	427	622	
10	0	0	0	0	425	622	
11	0	0	0	0	426	622	
12	0	0	0	0	427	622	
13	0	0	0	0	428	623	
14	0	0	0	0	430	623	
15	0	0	0	0	432	622	
0	0	0	0	0	433	623	
1	0	0	0	0	436	623	
2	0	0	0	0	438	623	
3	0	0	0	0	440	623	
4	0	0	0	0	441	623	
5	0	0	0	0	442	623	
6	0	0	0	0	442	624	
7	0	0	0	0	441	623	
8	0	0	0	0	439	624	
9	0	0	0	0	437	624	
10	0	0	0	0	436	624	
11	0	0	0	0	435	624	
12	0	0	0	0	432	624	
13	0	0	0	0	430	624	
14	0	0	0	0	429	624	
15	0	0	0	0	428	625	
0	0	0	0	0	428	624	
1	0	0	0	0	428	624	
2	0	0	0	0	429	624	
3	0	0	0	0	430	624	
4	0	0	0	0	431	624	
5	0	0	0	0	433	624	
6	0	0	0	0	434	624	
7	0	0	0	0	434	624	
8	0	0	0	0	434	624	
9	0	0	0	0	433	624	
10	0	0	0	0	433	625	
11	0	0	0	0	432	625	
12	0	0	0	0	431	624	
13	0	0	0	0	429	624	
14	0	0	0	0	428	624	
15	0	0	0	0	426	624	
0	0	0	0	0	424	624	
1	0	0	0	0	423	624	
2	0	0	0	0	422	624	
3	0	0	0	0	422	624	
4	0	0	0	0	422	625	
5	0	0	0	0	422	624	
6	0	0	0	0	423	625	
7	0	0	0	0	424	625	
8	0	0	0	0	424	624	
9	0	0	0	0	425	625	
10	0	0	0	0	427	625	
11	0	0	0	0	428	625	
12	0	0	0	0	428	625	
13	0	0	0	0	429	625	
14	0	0	0	0	429	625	
15	0	0	0	0	428	625	
0	0	0	0	0	426	624	
1	0	0	0	0	425	624	
2	0	0	0	0	424	624	
3	0	0	0	0	422	625	
4	0	0	0	0	421	624	
5	0	0	0	0	420	625	
6	0	0	0	0	419	624	
7	0	0	0	0	419	625	
8	0	0	0	0	419	625	
9	0	0	0	0	418	625	
10	0	0	0	0	418	625	
11	0	0	0	0	418	625	
12	0	0	0	0	418	625	
13	0	0	0	0	420	625	
14	0	0	0	0	420	624	
15	0	0	0	0	420	624	
0	0	0	0	0	421	624	
1	0	0	0	0	420	624	
2	0	0	0	0	419	624	
3	0	0	0	0	417	624	
4	0	0	0	0	415	624	
5	0	0	0	0	414	624	
6	0	0	0	0	411	624	
7	0	0	0	0	409	624	
8	0	0	0	0	408	624	
9	0	0	0	0	407	624	
10	0	0	0	0	405	624	
11	0	0	0	0	406	623	
12	0	0	0	0	407	623	
13	0	0	0	0	408	623	
14	0	0	0	0	409	623	
15	0	0	0	0	411	624	
0	0	0	0	0	414	623	
1	0	0	0	0	417	624	
2	0	0	0	0	418	624	
3	0	0	0	0	419	624	
4	0	0	0	0	421	623	
5	0	0	0	0	422	623	
6	0	0	0	0	423	623	
7	0	0	0	0	423	623	
8	0	0	0	0	422	623	
9	0	0	0	0	421	622	
10	0	0	0	0	420	623	
11	0	0	0	0	418	623	
12	0	0	0	0	416	623	
13	0	0	0	0	414	623	
14	0	0	0	0	414	622	
15	0	0	0	0	414	622	
0	0	0	0	0	415	622	
1	0	0	0	0	416	622	
2	0	0	0	0	418	622	
3	0	0	0	0	419	621	
4	0	0	0	0	421	622	
5	0	0	0	0	424	621	
6	0	0	0	0	426	622	
7	0	0	0	0	428	621	
8	0	0	0	0	429	622	
9	0	0	0	0	430	621	
10	0	0	0	0	430	622	
11	0	0	0	0	430	622	
12	0	0	0	0	430	621	
13	0	0	0	0	431	621	
14	0	0	0	0	431	621	
15	0	0	0	0	430	621	
0	0	0	0	0	431	622	
1	0	0	0	0	432	621	
2	0	0	0	0	433	621	
3	0	0	0	0	434	621	
4	0	0	0	0	435	622	
5	0	0	0	0	438	622	
6	0	0	0	0	441	622	
7	0	0	0	0	445	622	
8	0	0	0	0	448	622	
9	0	0	0	0	450	622	
10	0	0	0	0	454	622	
11	0	0	0	0	456	621	
12	0	0	0	0	458	621	
13	0	0	0	0	460	621	
14	0	0	0	0	461	620	
15	0	0	0	0	462	621	
0	0	0	0	0	463	621	
1	0	0	0	0	463	620	
2	0	0	0	0	462	620	
3	0	0	0	0	463	620	
4	0	0	0	0	462	620	
5	0	0	0	0	461	620	
6	0	0	0	0	461	621	
7	0	0	0	0	460	621	
8	0	0	0	0	460	621	
9	0	0	0	0	461	621	
10	0	0	0	0	462	622	
11	0	0	0	0	463	621	
12	0	0	0	0	466	622	
13	0	0	0	0	469	622	
14	0	0	0	0	472	622	
15	0	0	0	0	475	623	
0	0	0	0	0	477	622	
1	0	0	0	0	478	623	
2	0	0	0	0	479	623	
3	0	0	0	0	478	623	
4	0	0	0	0	476	623	
5	0	0	0	0	474	624	
6	0	0	0	0	472	624	
7	0	0	0	0	470	623	
8	0	0	0	0	468	624	
9	0	0	0	0	467	624	
10	0	0	0	0	464	625	
11	0	0	0	0	465	624	
12	0	0	0	0	465	625	
13	0	0	0	0	466	624	
14	0	0	0	0	467	625	
15	0	0	0	0	468	625	
0	0	0	0	0	471	625	
1	0	0	0	0	473	626	
2	0	0	0	0	474	625	
3	0	0	0	0	475	626	
4	0	0	0	0	476	626	
5	0	0	0	0	476	626	
6	0	0	0	0	475	626	
7	0	0	0	0	473	626	
8	0	0	0	0	471	626	
9	0	0	0	0	469	626	
10	0	0	0	0	466	626	
11	0	0	0	0	465	626	
12	0	0	0	0	462	626	
13	0	0	0	0	461	625	
14	0	0	0	0	460	626	
15	0	0	0	0	459	625	
0	0	0	0	0	460	625	
1	0	0	0	0	461	626	
2	0	0	0	0	462	626	
3	0	0	0	0	464	626	
4	0	0	0	0	464	625	
5	0	0	0	0	467	625	
6	0	0	0	0	468	625	
7	0	0	0	0	470	625	
8	0	0	0	0	471	625	
9	0	0	0	0	470	626	
10	0	0	0	0	469	625	
11	0	0	0	0	468	625	
12	0	0	0	0	466	624	
13	0	0	0	0	466	625	
14	0	0	0	0	465	624	
15	0	0	0	0	464	625	
0	0	0	0	0	463	624	
1	0	0	0	0	463	624	
2	0	0	0	0	463	624	
3	0	0	0	0	463	624	
4	0	0	0	0	463	625	
5	0	0	0	0	463	625	
6	0	0	0	0	464	624	
7	0	0	0	0	465	625	
8	0	0	0	0	468	625	
9	0	0	0	0	470	625	
10	0	0	0	0	472	625	
11	0	0	0	0	473	624	
12	0	0	0	0	473	624	
13	0	0	0	0	473	625	
14	0	0	0	0	472	624	
15	0	0	0	0	471	624	
0	0	0	0	0	470	625	
1	0	0	0	0	468	624	
2	0	0	0	0	467	625	
3	0	0	0	0	467	625	
4	0	0	0	0	466	624	
5	0	0	0	0	467	624	
6	0	0	0	0	467	625	
7	0	0	0	0	467	625	
8	0	0	0	0	468	625	
9	0	0	0	0	470	625	
10	0	0	0	0	472	625	
11	0	0	0	0	474	625	
12	0	0	0	0	476	625	
13	0	0	0	0	479	625	
14	0	0	0	0	481	625	
15	0	0	0	0	485	625	
0	0	0	0	0	488	625	
1	0	0	0	0	489	625	
2	0	0	0	0	491	625	
3	0	0	0	0	491	625	
4	0	0	0	0	492	624	
5	0	0	0	0	492	624	
6	0	0	0	0	492	625	
7	0	0	0	0	492	624	
8	0	0	0	0	491	624	
9	0	0	0	0	492	625	
10	0	0	0	0	492	624	
11	0	0	0	0	494	624	
12	0	0	0	0	496	624	
13	0	0	0	0	496	624	
14	0	0	0	0	497	624	
15	0	0	0	0	500	625	
0	0	0	0	0	502	625	
1	0	0	0	0	504	624	
2	0	0	0	0	506	625	
3	0	0	0	0	508	624	
4	0	0	0	0	509	624	
5	0	0	0	0	510	624	
6	0	0	0	0	510	624	
7	0	0	0	0	509	623	
8	0	0	0	0	508	624	
9	0	0	0	0	507	623	
10	0	0	0	0	505	624	
11	0	0	0	0	505	624	
12	0	0	0	0	504	624	
13	0	0	0	0	503	624	
14	0	0	0	0	502	623	
15	0	0	0	0	503	624	
0	0	0	0	0	504	624	
1	0	0	0	0	505	623	
2	0	0	0	0	506	623	
3	0	0	0	0	506	624	
4	0	0	0	0	507	624	
5	0	0	0	0	508	624	
6	0	0	0	0	509	624	
7	0	0	0	0	509	624	
8	0	0	0	0	510	624	
9	0	0	0	0	510	624	
10	0	0	0	0	509	624	
11	0	0	0	0	507	623	
12	0	0	0	0	505	623	
13	0	0	0	0	503	624	
14	0	0	0	0	502	623	
15	0	0	0	0	500	623	
0	0	0	0	0	498	623	
1	0	0	0	0	498	624	
2	0	0	0	0	497	623	
3	0	0	0	0	496	623	
4	0	0	0	0	496	624	
5	0	0	0	0	495	623	
6	0	0	0	0	495	624	
7	0	0	0	0	496	623	
8	0	0	0	0	497	623	
9	0	0	0	0	498	623	
10	0	0	0	0	500	624	
11	0	0	0	0	501	623	
12	0	0	0	0	502	623	
13	0	0	0	0	502	623	
14	0	0	0	0	502	624	
15	0	0	0	0	500	624	
0	0	0	0	0	499	624	
1	0	0	0	0	499	624	
2	0	0	0	0	497	624	
3	0	0	0	0	497	624	
4	0	0	0	0	496	624	
5	0	0	0	0	496	624	
6	0	0	0	0	497	624	
7	0	0	0	0	497	624	
8	0	0	0	0	497	625	
9	0	0	0	0	499	624	
10	0	0	0	0	500	624	
11	0	0	0	0	502	624	
12	0	0	0	0	504	624	
13	0	0	0	0	505	624	
14	0	0	0	0	508	625	
15	0	0	0	0	511	624	
0	0	0	0	0	512	625	
1	0	0	0	0	515	625	
2	0	0	0	0	517	625	
3	0	0	0	0	518	625	
4	0	0	0	0	518	625	
5	0	0	0	0	517	625	
6	0	0	0	0	516	625	
7	0	0	0	0	516	625	
8	0	0	0	0	515	625	
9	0	0	0	0	516	625	
10	0	0	0	0	518	625	
11	0	0	0	0	518	625	
12	0	0	0	0	518	625	
13	0	0	0	0	519	625	
14	0	0	0	0	519	625	
15	0	0	0	0	521	625	
0	0	0	0	0	523	625	
1	0	0	0	0	524	625	
2	0	0	0	0	526	625	
3	0	0	0	0	527	625	
4	0	0	0	0	527	625	
5	0	0	0	0	527	625	
6	0	0	0	0	527	625	
7	0	0	0	0	526	625	
8	0	0	0	0	524	625	
9	0	0	0	0	521	625	
10	0	0	0	0	520	625	
11	0	0	0	0	519	625	
12	0	0	0	0	518	625	
13	0	0	0	0	519	625	
14	0	0	0	0	519	624	
15	0	0	0	0	519	625	
0	0	0	0	0	520	624	
1	0	0	0	0	522	624	
2	0	0	0	0	524	624	
3	0	0	0	0	526	623	
4	0	0	0	0	527	623	
5	0	0	0	0	529	623	
6	0	0	0	0	530	624	
7	0	0	0	0	531	623	
8	0	0	0	0	531	623	
9	0	0	0	0	531	623	
10	0	0	0	0	531	623	
11	0	0	0	0	530	623	
12	0	0	0	0	530	623	
13	0	0	0	0	529	623	
14	0	0	0	0	528	623	
15	0	0	0	0	527	623	
0	0	0	0	0	525	623	
1	0	0	0	0	524	623	
2	0	0	0	0	525	623	
3	0	0	0	0	525	622	
4	0	0	0	0	526	622	
5	0	0	0	0	527	623	
6	0	0	0	0	530	623	
7	0	0	0	0	532	623	
8	0	0	0	0	535	623	
9	0	0	0	0	536	623	
10	0	0	0	0	539	623	
11	0	0	0	0	542	622	
12	0	0	0	0	543	623	
13	0	0	0	0	544	623	
14	0	0	0	0	546	623	
15	0	0	0	0	547	623	
0	0	0	0	0	546	624	
1	0	0	0	0	546	624	
2	0	0	0	0	546	623	
3	0	0	0	0	545	623	
4	0	0	0	0	544	623	
5	0	0	0	0	543	624	
6	0	0	0	0	543	623	
7	0	0	0	0	542	624	
8	0	0	0	0	542	624	
9	0	0	0	0	543	623	
10	0	0	0	0	545	624	
11	0	0	0	0	546	623	
12	0	0	0	0	548	624	
13	0	0	0	0	550	624	
14	0	0	0	0	552	624	
15	0	0	0	0	553	624	
0	0	0	0	0	553	624	
1	0	0	0	0	552	624	
2	0	0	0	0	551	625	
3	0	0	0	0	550	624	
4	0	0	0	0	548	625	
5	0	0	0	0	544	624	
6	0	0	0	0	540	624	
7	0	0	0	0	534	624	
8	0	0	0	0	527	624	
9	0	0	0	0	520	624	
10	0	0	0	0	514	624	
11	0	0	0	0	510	624	
12	0	0	0	0	505	624	
13	0	0	0	0	501	624	
14	0	0	0	0	499	624	
15	0	0	0	0	497	624	
0	0	0	0	0	498	624	
1	0	0	0	0	499	624	
2	0	0	0	0	500	625	
3	0	0	0	0	500	625	
4	0	0	0	0	500	625	
5	0	0	0	0	502	625	
6	0	0	0	0	506	625	
7	0	0	0	0	510	625	
8	0	0	0	0	516	625	
9	0	0	0	0	524	625	
10	0	0	0	0	535	625	
11	0	0	0	0	551	624	
12	0	0	0	0	570	624	
13	0	0	0	0	593	624	
14	0	0	0	0	617	624	
15	0	0	0	0	646	624	
0	0	0	0	0	679	624	
1	0	0	0	0	713	624	
2	0	0	0	0	750	625	
3	0	0	0	0	787	624	
4	0	0	0	0	826	624	
5	0	0	0	0	866	624	
6	0	0	0	0	902	624	
7	0	0	0	0	932	623	
8	0	0	0	0	957	623	
9	0	0	0	0	978	623	
10	0	0	0	0	997	623	
11	0	0	0	0	1009	622	
12	0	0	0	0	1014	622	
13	0	0	0	0	1014	622	
14	0	0	0	0	1012	623	
15	0	0	0	0	1008	622	
0	0	0	0	0	1000	623	
1	0	0	0	0	987	622	
2	0	0	0	0	973	623	
3	0	0	0	0	952	622	
4	0	0	0	0	925	622	
5	0	0	0	0	896	622	
6	0	0	0	0	865	622	
7	0	0	0	0	832	622	
8	0	0	0	0	795	622	
9	0	0	0	0	756	622	
10	0	0	0	0	718	623	
11	0	0	0	0	681	622	
12	0	0	0	0	647	622	
13	0	0	0	0	617	622	
14	0	0	0	0	591	623	
15	0	0	0	0	564	623	
0	0	0	0	0	542	622	
1	0	0	0	0	523	622	
2	0	0	0	0	507	622	
3	0	0	0	0	493	622	
4	0	0	0	0	482	622	
5	0	0	0	0	473	622	
6	0	0	0	0	465	622	
7	0	0	0	0	459	622	
8	0	0	0	0	457	623	
9	0	0	0	0	455	622	
10	0	0	0	0	453	622	
11	0	0	0	0	453	622	
12	0	0	0	0	452	622	
13	0	0	0	0	452	622	
14	0	0	0	0	451	622	
15	0	0	0	0	451	623	
0	0	0	0	0	451	623	
1	0	0	0	0	449	622	
2	0	0	0	0	448	623	
3	0	0	0	0	447	622	
4	0	0	0	0	445	622	
5	0	0	0	0	442	623	
6	0	0	0	0	440	622	
7	0	0	0	0	438	623	
8	0	0	0	0	436	623	
9	0	0	0	0	436	623	
10	0	0	0	0	435	623	
11	0	0	0	0	435	624	
12	0	0	0	0	436	623	
13	0	0	0	0	437	623	
14	0	0	0	0	439	623	
15	0	0	0	0	442	623	
0	0	0	0	0	446	623	
1	0	0	0	0	449	623	
2	0	0	0	0	453	623	
3	0	0	0	0	455	623	
4	0	0	0	0	457	623	
5	0	0	0	0	458	623	
6	0	0	0	0	460	623	
7	0	0	0	0	461	623	
8	0	0	0	0	461	623	
9	0	0	0	0	461	622	
10	0	0	0	0	461	623	
11	0	0	0	0	462	622	
12	0	0	0	0	463	623	
13	0	0	0	0	463	623	
14	0	0	0	0	463	623	
15	0	0	0	0	464	623	
0	0	0	0	0	465	623	
1	0	0	0	0	466	623	
2	0	0	0	0	468	623	
3	0	0	0	0	470	622	
4	0	0	0	0	472	623	
5	0	0	0	0	475	623	
6	0	0	0	0	476	622	
7	0	0	0	0	478	622	
8	0	0	0	0	479	622	
9	0	0	0	0	479	622	
10	0	0	0	0	480	623	
11	0	0	0	0	479	623	
12	0	0	0	0	479	623	
13	0	0	0	0	478	623	
14	0	0	0	0	477	623	
15	0	0	0	0	476	623	
0	0	0	0	0	476	623	
1	0	0	0	0	476	623	
2	0	0	0	0	478	624	
3	0	0	0	0	478	623	
4	0	0	0	0	480	624	
5	0	0	0	0	482	623	
6	0	0	0	0	485	624	
7	0	0	0	0	487	623	
8	0	0	0	0	490	623	
9	0	0	0	0	492	623	
10	0	0	0	0	494	624	
11	0	0	0	0	495	624	
12	0	0	0	0	497	623	
13	0	0	0	0	497	623	
14	0	0	0	0	497	624	
15	0	0	0	0	497	624	
0	0	0	0	0	496	623	
1	0	0	0	0	494	623	
2	0	0	0	0	493	624	
3	0	0	0	0	491	623	
4	0	0	0	0	488	623	
5	0	0	0	0	486	623	
6	0	0	0	0	485	623	
7	0	0	0	0	483	623	
8	0	0	0	0	482	623	
9	0	0	0	0	482	623	
10	0	0	0	0	483	623	
11	0	0	0	0	486	622	
12	0	0	0	0	489	622	
13	0	0	0	0	492	622	
14	0	0	0	0	496	623	
15	0	0	0	0	498	623	
0	0	0	0	0	500	623	
1	0	0	0	0	501	623	
2	0	0	0	0	501	624	
3	0	0	0	0	501	623	
4	0	0	0	0	501	623	
5	0	0	0	0	500	623	
6	0	0	0	0	499	623	
7	0	0	0	0	497	624	
8	0	0	0	0	496	624	
9	0	0	0	0	497	624	
10	0	0	0	0	497	624	
11	0	0	0	0	497	623	
12	0	0	0	0	497	624	
13	0	0	0	0	498	623	
14	0	0	0	0	499	623	
15	0	0	0	0	501	624	
0	0	0	0	0	503	624	
1	0	0	0	0	505	624	
2	0	0	0	0	507	624	
3	0	0	0	0	509	624	
4	0	0	0	0	510	624	
5	0	0	0	0	510	624	
6	0	0	0	0	510	624	
7	0	0	0	0	510	624	
8	0	0	0	0	509	624	
9	0	0	0	0	508	624	
10	0	0	0	0	509	624	
11	0	0	0	0	509	624	
12	0	0	0	0	508	624	
13	0	0	0	0	508	624	
14	0	0	0	0	508	624	
15	0	0	0	0	508	624	
0	0	0	0	0	509	624	
1	0	0	0	0	511	624	
2	0	0	0	0	513	624	
3	0	0	0	0	516	624	
4	0	0	0	0	519	624	
5	0	0	0	0	521	624	
6	0	0	0	0	524	624	
7	0	0	0	0	526	624	
8	0	0	0	0	527	624	
9	0	0	0	0	528	624	
10	0	0	0	0	529	624	
11	0	0	0	0	529	624	
12	0	0	0	0	529	624	
13	0	0	0	0	528	624	
14	0	0	0	0	527	625	
15	0	0	0	0	527	625	
0	0	0	0	0	525	625	
1	0	0	0	0	525	625	
2	0	0	0	0	525	625	
3	0	0	0	0	526	625	
4	0	0	0	0	526	625	
5	0	0	0	0	528	625	
6	0	0	0	0	529	625	
7	0	0	0	0	531	625	
8	0	0	0	0	532	624	
9	0	0	0	0	535	625	
10	0	0	0	0	538	625	
11	0	0	0	0	540	625	
12	0	0	0	0	540	625	
13	0	0	0	0	541	626	
14	0	0	0	0	542	625	
15	0	0	0	0	542	625	
0	0	0	0	0	542	625	
1	0	0	0	0	541	625	
2	0	0	0	0	540	626	
3	0	0	0	0	539	625	
4	0	0	0	0	538	625	
5	0	0	0	0	538	625	
6	0	0	0	0	538	625	
7	0	0	0	0	539	625	
8	0	0	0	0	541	626	
9	0	0	0	0	542	625	
10	0	0	0	0	544	625	
11	0	0	0	0	547	625	
12	0	0	0	0	550	625	
13	0	0	0	0	554	625	
14	0	0	0	0	556	625	
15	0	0	0	0	557	625	
0	0	0	0	0	559	624	
1	0	0	0	0	560	624	
2	0	0	0	0	560	625	
3	0	0	0	0	559	624	
4	0	0	0	0	558	624	
5	0	0	0	0	556	624	
6	0	0	0	0	554	624	
7	0	0	0	0	552	624	
8	0	0	0	0	550	624	
9	0	0	0	0	549	624	
10	0	0	0	0	550	625	
11	0	0	0	0	550	624	
12	0	0	0	0	550	624	
13	0	0	0	0	548	624	
14	0	0	0	0	548	624	
15	0	0	0	0	547	623	
0	0	0	0	0	548	623	
1	0	0	0	0	549	623	
2	0	0	0	0	548	623	
3	0	0	0	0	547	623	
4	0	0	0	0	546	622	
5	0	0	0	0	545	623	
6	0	0	0	0	543	622	
7	0	0	0	0	540	623	
8	0	0	0	0	537	623	
9	0	0	0	0	534	622	
10	0	0	0	0	531	623	
11	0	0	0	0	527	623	
12	0	0	0	0	524	622	
13	0	0	0	0	521	622	
14	0	0	0	0	519	622	
15	0	0	0	0	518	622	
0	0	0	0	0	516	622	
1	0	0	0	0	516	623	
2	0	0	0	0	517	623	
3	0	0	0	0	516	622	
4	0	0	0	0	517	623	
5	0	0	0	0	518	623	
6	0	0	0	0	517	623	
7	0	0	0	0	517	623	
8	0	0	0	0	518	623	
9	0	0	0	0	517	622	
10	0	0	0	0	516	623	
11	0	0	0	0	513	622	
12	0	0	0	0	512	622	
13	0	0	0	0	510	622	
14	0	0	0	0	508	622	
15	0	0	0	0	505	622	
0	0	0	0	0	504	622	
1	0	0	0	0	503	622	
2	0	0	0	0	502	623	
3	0	0	0	0	501	622	
4	0	0	0	0	501	623	
5	0	0	0	0	502	622	
6	0	0	0	0	503	622	
7	0	0	0	0	503	623	
8	0	0	0	0	504	622	
9	0	0	0	0	506	622	
10	0	0	0	0	507	623	
11	0	0	0	0	507	622	
12	0	0	0	0	506	622	
13	0	0	0	0	506	622	
14	0	0	0	0	505	622	
15	0	0	0	0	503	623	
0	0	0	0	0	501	622	
1	0	0	0	0	499	622	
2	0	0	0	0	497	623	
3	0	0	0	0	496	622	
4	0	0	0	0	495	622	
5	0	0	0	0	492	622	
6	0	0	0	0	491	622	
7	0	0	0	0	491	622	
8	0	0	0	0	491	622	
9	0	0	0	0	491	623	
10	0	0	0	0	491	623	
11	0	0	0	0	493	623	
12	0	0	0	0	494	623	
13	0	0	0	0	496	623	
14	0	0	0	0	497	623	
15	0	0	0	0	497	623	
0	0	0	0	0	499	622	
1	0	0	0	0	499	622	
2	0	0	0	0	498	623	
3	0	0	0	0	497	623	
4	0	0	0	0	496	623	
5	0	0	0	0	494	623	
6	0	0	0	0	492	623	
7	0	0	0	0	491	623	
8	0	0	0	0	489	622	
9	0	0	0	0	488	622	
10	0	0	0	0	488	622	
11	0	0	0	0	488	622	
12	0	0	0	0	489	622	
13	0	0	0	0	489	622	
14	0	0	0	0	492	622	
15	0	0	0	0	494	622	
0	0	0	0	0	497	621	
1	0	0	0	0	499	622	
2	0	0	0	0	501	622	
3	0	0	0	0	503	622	
4	0	0	0	0	504	621	
5	0	0	0	0	504	621	
6	0	0	0	0	504	622	
7	0	0	0	0	504	621	
8	0	0	0	0	503	621	
9	0	0	0	0	502	621	
10	0	0	0	0	500	621	
11	0	0	0	0	499	620	
12	0	0	0	0	497	620	
13	0	0	0	0	496	621	
14	0	0	0	0	494	620	
15	0	0	0	0	493	620	
0	0	0	0	0	493	620	
1	0	0	0	0	493	621	
2	0	0	0	0	493	621	
3	0	0	0	0	495	621	
4	0	0	0	0	497	620	
5	0	0	0	0	499	621	
6	0	0	0	0	501	620	
7	0	0	0	0	502	620	
8	0	0	0	0	502	620	
9	0	0	0	0	502	620	
10	0	0	0	0	502	621	
11	0	0	0	0	501	620	
12	0	0	0	0	500	621	
13	0	0	0	0	498	621	
14	0	0	0	0	497	620	
15	0	0	0	0	496	621	
0	0	0	0	0	492	621	
1	0	0	0	0	492	622	
2	0	0	0	0	492	622	
3	0	0	0	0	492	622	
4	0	0	0	0	493	622	
5	0	0	0	0	495	622	
6	0	0	0	0	497	622	
7	0	0	0	0	500	623	
8	0	0	0	0	502	622	
9	0	0	0	0	504	623	
10	0	0	0	0	507	623	
11	0	0	0	0	509	623	
12	0	0	0	0	510	623	
13	0	0	0	0	509	623	
14	0	0	0	0	508	624	
15	0	0	0	0	509	624	
0	0	0	0	0	508	624	
1	0	0	0	0	507	624	
2	0	0	0	0	506	624	
3	0	0	0	0	506	624	
4	0	0	0	0	504	624	
5	0	0	0	0	504	623	
6	0	0	0	0	504	624	
7	0	0	0	0	504	624	
8	0	0	0	0	506	624	
9	0	0	0	0	507	624	
10	0	0	0	0	508	625	
11	0	0	0	0	511	624	
12	0	0	0	0	514	623	
13	0	0	0	0	518	625	
14	0	0	0	0	520	624	
15	0	0	0	0	522	624	
0	0	0	0	0	525	624	
1	0	0	0	0	527	624	
2	0	0	0	0	529	625	
3	0	0	0	0	531	624	
4	0	0	0	0	531	624	
5	0	0	0	0	531	624	
6	0	0	0	0	530	624	
7	0	0	0	0	529	624	
8	0	0	0	0	530	624	
9	0	0	0	0	531	624	
10	0	0	0	0	531	624	
11	0	0	0	0	531	624	
12	0	0	0	0	532	624	
13	0	0	0	0	531	624	
14	0	0	0	0	533	624	
15	0	0	0	0	536	624	
0	0	0	0	0	537	624	
1	0	0	0	0	540	624	
2	0	0	0	0	542	624	
3	0	0	0	0	544	624	
4	0	0	0	0	546	624	
5	0	0	0	0	548	624	
6	0	0	0	0	548	624	
7	0	0	0	0	548	624	
8	0	0	0	0	547	625	
9	0	0	0	0	545	624	
10	0	0	0	0	545	625	
11	0	0	0	0	545	625	
12	0	0	0	0	544	625	
13	0	0	0	0	543	625	
14	0	0	0	0	543	625	
15	0	0	0	0	542	625	
0	0	0	0	0	544	625	
1	0	0	0	0	544	625	
2	0	0	0	0	544	626	
3	0	0	0	0	547	625	
4	0	0	0	0	548	625	
5	0	0	0	0	550	625	
6	0	0	0	0	552	625	
7	0	0	0	0	553	625	
8	0	0	0	0	553	625	
9	0	0	0	0	553	625	
10	0	0	0	0	552	626	
11	0	0	0	0	551	626	
12	0	0	0	0	549	625	
13	0	0	0	0	546	625	
14	0	0	0	0	544	625	
15	0	0	0	0	543	625	
0	0	0	0	0	542	624	
1	0	0	0	0	542	625	
2	0	0	0	0	542	625	
3	0	0	0	0	543	624	
4	0	0	0	0	546	625	
5	0	0	0	0	548	625	
6	0	0	0	0	551	624	
7	0	0	0	0	553	625	
8	0	0	0	0	556	624	
9	0	0	0	0	560	624	
10	0	0	0	0	563	625	
11	0	0	0	0	567	624	
12	0	0	0	0	570	625	
13	0	0	0	0	573	624	
14	0	0	0	0	574	624	
15	0	0	0	0	575	624	
0	0	0	0	0	574	624	
1	0	0	0	0	574	623	
2	0	0	0	0	574	624	
3	0	0	0	0	574	623	
4	0	0	0	0	573	623	
5	0	0	0	0	574	623	
6	0	0	0	0	574	623	
7	0	0	0	0	574	623	
8	0	0	0	0	575	623	
9	0	0	0	0	576	624	
10	0	0	0	0	578	624	
11	0	0	0	0	580	623	
12	0	0	0	0	582	623	
13	0	0	0	0	586	624	
14	0	0	0	0	588	623	
15	0	0	0	0	590	624	
0	0	0	0	0	593	624	
1	0	0	0	0	595	623	
2	0	0	0	0	595	624	
3	0	0	0	0	596	623	
4	0	0	0	0	596	624	
5	0	0	0	0	596	623	
6	0	0	0	0	596	623	
7	0	0	0	0	597	623	
8	0	0	0	0	595	623	
9	0	0	0	0	595	624	
10	0	0	0	0	596	624	
11	0	0	0	0	597	623	
12	0	0	0	0	599	624	
13	0	0	0	0	600	624	
14	0	0	0	0	603	624	
15	0	0	0	0	605	623	
0	0	0	0	0	607	623	
1	0	0	0	0	609	623	
2	0	0	0	0	611	623	
3	0	0	0	0	614	623	
4	0	0	0	0	615	624	
5	0	0	0	0	615	623	
6	0	0	0	0	615	623	
7	0	0	0	0	615	623	
8	0	0	0	0	615	623	
9	0	0	0	0	613	623	
10	0	0	0	0	612	623	
11	0	0	0	0	611	622	
12	0	0	0	0	610	622	
13	0	0	0	0	609	622	
14	0	0	0	0	609	622	
15	0	0	0	0	609	622	
0	0	0	0	0	609	622	
1	0	0	0	0	610	622	
2	0	0	0	0	612	623	
3	0	0	0	0	614	622	
4	0	0	0	0	616	622	
5	0	0	0	0	619	623	
6	0	0	0	0	622	622	
7	0	0	0	0	624	623	
8	0	0	0	0	625	623	
9	0	0	0	0	626	623	
10	0	0	0	0	627	624	
11	0	0	0	0	626	623	
12	0	0	0	0	624	622	
13	0	0	0	0	622	623	
14	0	0	0	0	621	623	
15	0	0	0	0	621	623	
0	0	0	0	0	621	623	
1	0	0	0	0	620	623	
2	0	0	0	0	620	624	
3	0	0	0	0	619	624	
4	0	0	0	0	620	624	
5	0	0	0	0	621	624	
6	0	0	0	0	623	623	
7	0	0	0	0	625	623	
8	0	0	0	0	627	624	
9	0	0	0	0	630	624	
10	0	0	0	0	632	624	
11	0	0	0	0	632	624	
12	0	0	0	0	633	623	
13	0	0	0	0	633	623	
14	0	0	0	0	633	623	
15	0	0	0	0	632	624	
0	0	0	0	0	630	624	
1	0	0	0	0	627	623	
2	0	0	0	0	624	623	
3	0	0	0	0	623	623	
4	0	0	0	0	620	623	
5	0	0	0	0	619	623	
6	0	0	0	0	618	623	
7	0	0	0	0	616	623	
8	0	0	0	0	617	623	
9	0	0	0	0	617	623	
10	0	0	0	0	619	624	
11	0	0	0	0	620	623	
12	0	0	0	0	621	624	
13	0	0	0	0	622	623	
14	0	0	0	0	622	624	
15	0	0	0	0	623	623	
0	0	0	0	0	622	623	
1	0	0	0	0	621	623	
2	0	0	0	0	620	624	
3	0	0	0	0	618	623	
4	0	0	0	0	617	623	
5	0	0	0	0	616	623	
6	0	0	0	0	615	623	
7	0	0	0	0	613	623	
8	0	0	0	0	611	623	
9	0	0	0	0	610	623	
10	0	0	0	0	610	622	
11	0	0	0	0	610	622	
12	0	0	0	0	610	623	
13	0	0	0	0	610	622	
14	0	0	0	0	611	622	
15	0	0	0	0	611	622	
0	0	0	0	0	611	622	
1	0	0	0	0	612	623	
2	0	0	0	0	613	622	
3	0	0	0	0	614	622	
4	0	0	0	0	613	623	
5	0	0	0	0	612	622	
6	0	0	0	0	612	623	
7	0	0	0	0	611	623	
8	0	0	0	0	609	623	
9	0	0	0	0	607	622	
10	0	0	0	0	606	623	
11	0	0	0	0	604	624	
12	0	0	0	0	603	623	
13	0	0	0	0	602	624	
14	0	0	0	0	601	623	
15	0	0	0	0	602	623	
0	0	0	0	0	603	623	
1	0	0	0	0	604	624	
2	0	0	0	0	607	624	
3	0	0	0	0	610	624	
4	0	0	0	0	613	624	
5	0	0	0	0	616	624	
6	0	0	0	0	619	624	
7	0	0	0	0	620	624	
8	0	0	0	0	623	624	
9	0	0	0	0	624	624	
10	0	0	0	0	624	625	
11	0	0	0	0	623	624	
12	0	0	0	0	623	624	
13	0	0	0	0	621	624	
14	0	0	0	0	619	624	
15	0	0	0	0	619	624	
0	0	0	0	0	617	624	
1	0	0	0	0	617	624	
2	0	0	0	0	618	624	
3	0	0	0	0	616	624	
4	0	0	0	0	615	624	
5	0	0	0	0	615	624	
6	0	0	0	0	616	624	
7	0	0	0	0	618	625	
8	0	0	0	0	619	624	
9	0	0	0	0	621	624	
10	0	0	0	0	623	624	
11	0	0	0	0	624	624	
12	0	0	0	0	624	623	
13	0	0	0	0	624	624	
14	0	0	0	0	624	624	
15	0	0	0	0	621	624	
0	0	0	0	0	618	624	
1	0	0	0	0	615	624	
2	0	0	0	0	613	624	
3	0	0	0	0	610	624	
4	0	0	0	0	608	624	
5	0	0	0	0	606	624	
6	0	0	0	0	603	623	
7	0	0	0	0	600	623	
8	0	0	0	0	599	624	
9	0	0	0	0	598	623	
10	0	0	0	0	598	623	
11	0	0	0	0	598	623	
12	0	0	0	0	599	622	
13	0	0	0	0	600	623	
14	0	0	0	0	600	623	
15	0	0	0	0	600	623	
0	0	0	0	0	600	623	
1	0	0	0	0	598	623	
2	0	0	0	0	596	624	
3	0	0	0	0	594	624	
4	0	0	0	0	592	624	
5	0	0	0	0	589	624	
6	0	0	0	0	586	623	
7	0	0	0	0	583	624	
8	0	0	0	0	582	624	
9	0	0	0	0	580	623	
10	0	0	0	0	578	623	
11	0	0	0	0	577	624	
12	0	0	0	0	577	624	
13	0	0	0	0	576	624	
14	0	0	0	0	576	623	
15	0	0	0	0	576	624	
0	0	0	0	0	576	623	
1	0	0	0	0	576	624	
2	0	0	0	0	577	624	
3	0	0	0	0	576	624	
4	0	0	0	0	575	624	
5	0	0	0	0	575	624	
6	0	0	0	0	573	624	
7	0	0	0	0	571	623	
8	0	0	0	0	567	624	
9	0	0	0	0	566	624	
10	0	0	0	0	563	624	
11	0	0	0	0	560	624	
12	0	0	0	0	559	624	
13	0	0	0	0	557	623	
14	0	0	0	0	556	623	
15	0	0	0	0	556	623	
0	0	0	0	0	556	623	
1	0	0	0	0	557	624	
2	0	0	0	0	557	623	
3	0	0	0	0	556	623	
4	0	0	0	0	555	623	
5	0	0	0	0	552	623	
6	0	0	0	0	549	623	
7	0	0	0	0	545	623	
8	0	0	0	0	540	623	
9	0	0	0	0	536	623	
10	0	0	0	0	530	623	
11	0	0	0	0	524	623	
12	0	0	0	0	518	623	
13	0	0	0	0	510	623	
14	0	0	0	0	505	623	
15	0	0	0	0	503	623	
0	0	0	0	0	500	623	
1	0	0	0	0	497	623	
2	0	0	0	0	496	623	
3	0	0	0	0	493	623	
4	0	0	0	0	496	623	
5	0	0	0	0	500	623	
6	0	0	0	0	506	623	
7	0	0	0	0	516	623	
8	0	0	0	0	530	623	
9	0	0	0	0	547	623	
10	0	0	0	0	564	623	
11	0	0	0	0	585	623	
12	0	0	0	0	606	623	
13	0	0	0	0	628	623	
14	0	0	0	0	654	623	
15	0	0	0	0	684	623	
0	0	0	0	0	714	623	
1	0	0	0	0	746	623	
2	0	0	0	0	778	623	
3	0	0	0	0	811	623	
4	0	0	0	0	843	623	
5	0	0	0	0	871	623	
6	0	0	0	0	894	622	
7	0	0	0	0	913	622	
8	0	0	0	0	933	623	
9	0	0	0	0	948	622	
10	0	0	0	0	958	623	
11	0	0	0	0	963	622	
12	0	0	0	0	965	622	
13	0	0	0	0	966	623	
14	0	0	0	0	963	623	
15	0	0	0	0	953	623	
0	0	0	0	0	940	623	
1	0	0	0	0	921	623	
2	0	0	0	0	898	624	
3	0	0	0	0	870	623	
4	0	0	0	0	837	624	
5	0	0	0	0	802	624	
6	0	0	0	0	764	623	
7	0	0	0	0	726	624	
8	0	0	0	0	691	624	
9	0	0	0	0	656	624	
10	0	0	0	0	624	624	
11	0	0	0	0	596	624	
12	0	0	0	0	573	624	
13	0	0	0	0	551	624	
14	0	0	0	0	532	624	
15	0	0	0	0	518	624	
0	0	0	0	0	507	624	
1	0	0	0	0	497	624	
2	0	0	0	0	488	624	
3	0	0	0	0	482	625	
4	0	0	0	0	477	624	
5	0	0	0	0	472	624	
6	0	0	0	0	467	624	
7	0	0	0	0	463	625	
8	0	0	0	0	459	624	
9	0	0	0	0	456	624	
10	0	0	0	0	452	624	
11	0	0	0	0	448	624	
12	0	0	0	0	445	624	
13	0	0	0	0	442	624	
14	0	0	0	0	440	624	
15	0	0	0	0	438	624	
0	0	0	0	0	437	624	
1	0	0	0	0	435	624	
2	0	0	0	0	435	624	
3	0	0	0	0	436	624	
4	0	0	0	0	436	624	
5	0	0	0	0	437	623	
6	0	0	0	0	438	623	
7	0	0	0	0	439	623	
8	0	0	0	0	440	624	
9	0	0	0	0	441	623	
10	0	0	0	0	441	623	
11	0	0	0	0	440	622	
12	0	0	0	0	438	622	
13	0	0	0	0	436	621	
14	0	0	0	0	435	621	
15	0	0	0	0	435	621	
0	0	0	0	0	436	621	
1	0	0	0	0	437	621	
2	0	0	0	0	437	622	
3	0	0	0	0	438	620	
4	0	0	0	0	439	621	
5	0	0	0	0	440	621	
6	0	0	0	0	443	621	
7	0	0	0	0	445	621	
8	0	0	0	0	447	621	
9	0	0	0	0	449	621	
10	0	0	0	0	451	621	
11	0	0	0	0	453	621	
12	0	0	0	0	455	621	
13	0	0	0	0	455	621	
14	0	0	0	0	455	621	
15	0	0	0	0	455	621	
0	0	0	0	0	455	621	
1	0	0	0	0	453	621	
2	0	0	0	0	452	622	
3	0	0	0	0	452	622	
4	0	0	0	0	452	622	
5	0	0	0	0	451	622	
6	0	0	0	0	451	622	
7	0	0	0	0	451	622	
8	0	0	0	0	451	623	
9	0	0	0	0	452	623	
10	0	0	0	0	455	624	
11	0	0	0	0	457	624	
12	0	0	0	0	460	623	
13	0	0	0	0	463	624	
14	0	0	0	0	466	624	
15	0	0	0	0	469	624	
0	0	0	0	0	471	624	
1	0	0	0	0	473	624	
2	0	0	0	0	475	624	
3	0	0	0	0	476	624	
4	0	0	0	0	476	624	
5	0	0	0	0	476	624	
6	0	0	0	0	476	624	
7	0	0	0	0	475	624	
8	0	0	0	0	475	624	
9	0	0	0	0	476	623	
10	0	0	0	0	478	624	
11	0	0	0	0	478	623	
12	0	0	0	0	479	624	
13	0	0	0	0	481	623	
14	0	0	0	0	483	622	
15	0	0	0	0	487	623	
0	0	0	0	0	490	622	
1	0	0	0	0	492	622	
2	0	0	0	0	494	623	
3	0	0	0	0	495	621	
4	0	0	0	0	496	622	
5	0	0	0	0	496	621	
6	0	0	0	0	496	622	
7	0	0	0	0	497	621	
8	0	0	0	0	496	621	
9	0	0	0	0	496	622	
10	0	0	0	0	495	622	
11	0	0	0	0	495	621	
12	0	0	0	0	496	620	
13	0	0	0	0	496	620	
14	0	0	0	0	497	621	
15	0	0	0	0	499	621	
0	0	0	0	0	500	621	
1	0	0	0	0	501	621	
2	0	0	0	0	503	622	
3	0	0	0	0	506	621	
4	0	0	0	0	509	621	
5	0	0	0	0	512	622	
6	0	0	0	0	515	622	
7	0	0	0	0	516	622	
8	0	0	0	0	518	622	
9	0	0	0	0	518	622	
10	0	0	0	0	518	623	
11	0	0	0	0	518	622	
12	0	0	0	0	517	623	
13	0	0	0	0	516	623	
14	0	0	0	0	515	623	
15	0	0	0	0	515	624	
0	0	0	0	0	514	624	
1	0	0	0	0	514	624	
2	0	0	0	0	514	625	
3	0	0	0	0	515	624	
4	0	0	0	0	516	625	
5	0	0	0	0	518	624	
6	0	0	0	0	520	625	
7	0	0	0	0	522	625	
8	0	0	0	0	525	625	
9	0	0	0	0	527	625	
10	0	0	0	0	529	625	
11	0	0	0	0	531	625	
12	0	0	0	0	531	625	
13	0	0	0	0	531	625	
14	0	0	0	0	531	625	
15	0	0	0	0	529	626	
0	0	0	0	0	528	625	
1	0	0	0	0	526	626	
2	0	0	0	0	525	626	
3	0	0	0	0	524	625	
4	0	0	0	0	523	625	
5	0	0	0	0	521	626	
6	0	0	0	0	520	626	
7	0	0	0	0	520	625	
8	0	0	0	0	521	626	
9	0	0	0	0	523	626	
10	0	0	0	0	524	626	
11	0	0	0	0	525	625	
12	0	0	0	0	527	626	
13	0	0	0	0	529	626	
14	0	0	0	0	530	625	
15	0	0	0	0	530	625	
0	0	0	0	0	530	625	
1	0	0	0	0	529	625	
2	0	0	0	0	527	625	
3	0	0	0	0	525	624	
4	0	0	0	0	523	624	
5	0	0	0	0	521	624	
6	0	0	0	0	519	624	
7	0	0	0	0	516	624	
8	0	0	0	0	514	624	
9	0	0	0	0	513	624	
10	0	0	0	0	512	624	
11	0	0	0	0	511	623	
12	0	0	0	0	510	624	
13	0	0	0	0	511	623	
14	0	0	0	0	513	623	
15	0	0	0	0	515	623	
0	0	0	0	0	517	623	
1	0	0	0	0	519	623	
2	0	0	0	0	520	623	
3	0	0	0	0	521	623	
4	0	0	0	0	522	623	
5	0	0	0	0	521	624	
6	0	0	0	0	521	623	
7	0	0	0	0	520	623	
8	0	0	0	0	518	624	
9	0	0	0	0	518	624	
10	0	0	0	0	515	624	
11	0	0	0	0	515	624	
12	0	0	0	0	514	624	
13	0	0	0	0	514	623	
14	0	0	0	0	515	624	
15	0	0	0	0	515	624	
0	0	0	0	0	516	624	
1	0	0	0	0	518	624	
2	0	0	0	0	520	625	
3	0	0	0	0	522	624	
4	0	0	0	0	524	624	
5	0	0	0	0	526	624	
6	0	0	0	0	527	625	
7	0	0	0	0	529	625	
8	0	0	0	0	530	625	
9	0	0	0	0	530	625	
10	0	0	0	0	529	625	
11	0	0	0	0	527	625	
12	0	0	0	0	526	625	
13	0	0	0	0	524	625	
14	0	0	0	0	521	625	
15	0	0	0	0	519	625	
0	0	0	0	0	517	625	
1	0	0	0	0	515	625	
2	0	0	0	0	513	626	
3	0	0	0	0	512	625	
4	0	0	0	0	512	626	
5	0	0	0	0	511	625	
6	0	0	0	0	513	625	
7	0	0	0	0	514	625	
8	0	0	0	0	514	624	
9	0	0	0	0	515	625	
10	0	0	0	0	514	626	
11	0	0	0	0	515	625	
12	0	0	0	0	513	625	
13	0	0	0	0	512	625	
14	0	0	0	0	510	625	
15	0	0	0	0	509	624	
0	0	0	0	0	506	625	
1	0	0	0	0	503	625	
2	0	0	0	0	501	625	
3	0	0	0	0	498	625	
4	0	0	0	0	495	625	
5	0	0	0	0	492	625	
6	0	0	0	0	491	624	
7	0	0	0	0	489	625	
8	0	0	0	0	487	625	
9	0	0	0	0	487	624	
10	0	0	0	0	486	624	
11	0	0	0	0	487	624	
12	0	0	0	0	487	624	
13	0	0	0	0	487	624	
14	0	0	0	0	489	624	
15	0	0	0	0	490	624	
0	0	0	0	0	489	625	
1	0	0	0	0	487	624	
2	0	0	0	0	486	624	
3	0	0	0	0	482	624	
4	0	0	0	0	478	625	
5	0	0	0	0	474	624	
6	0	0	0	0	471	624	
7	0	0	0	0	467	624	
8	0	0	0	0	463	624	
9	0	0	0	0	461	624	
10	0	0	0	0	459	624	
11	0	0	0	0	456	623	
12	0	0	0	0	456	623	
13	0	0	0	0	454	624	
14	0	0	0	0	454	624	
15	0	0	0	0	452	623	
0	0	0	0	0	450	623	
1	0	0	0	0	449	624	
2	0	0	0	0	449	624	
3	0	0	0	0	448	623	
4	0	0	0	0	445	623	
5	0	0	0	0	442	623	
6	0	0	0	0	440	623	
7	0	0	0	0	438	623	
8	0	0	0	0	435	623	
9	0	0	0	0	433	623	
10	0	0	0	0	430	623	
11	0	0	0	0	428	623	
12	0	0	0	0	426	623	
13	0	0	0	0	424	623	
14	0	0	0	0	423	623	
15	0	0	0	0	423	623	
0	0	0	0	0	423	622	
1	0	0	0	0	425	623	
2	0	0	0	0	425	624	
3	0	0	0	0	428	622	
4	0	0	0	0	430	623	
5	0	0	0	0	432	623	
6	0	0	0	0	434	623	
7	0	0	0	0	436	623	
8	0	0	0	0	438	623	
9	0	0	0	0	438	623	
10	0	0	0	0	437	623	
11	0	0	0	0	436	623	
12	0	0	0	0	435	622	
13	0	0	0	0	433	622	
14	0	0	0	0	433	623	
15	0	0	0	0	432	623	
0	0	0	0	0	430	623	
1	0	0	0	0	429	623	
2	0	0	0	0	429	623	
3	0	0	0	0	428	623	
4	0	0	0	0	429	623	
5	0	0	0	0	430	623	
6	0	0	0	0	433	623	
7	0	0	0	0	436	623	
8	0	0	0	0	439	623	
9	0	0	0	0	442	623	
10	0	0	0	0	444	623	
11	0	0	0	0	446	623	
12	0	0	0	0	447	623	
13	0	0	0	0	447	623	
14	0	0	0	0	447	623	
15	0	0	0	0	447	623	
0	0	0	0	0	446	623	
1	0	0	0	0	445	623	
2	0	0	0	0	444	622	
3	0	0	0	0	443	623	
4	0	0	0	0	442	623	
5	0	0	0	0	442	622	
6	0	0	0	0	442	623	
7	0	0	0	0	444	624	
8	0	0	0	0	445	623	
9	0	0	0	0	448	623	
10	0	0	0	0	449	624	
11	0	0	0	0	453	624	
12	0	0	0	0	455	623	
13	0	0	0	0	458	624	
14	0	0	0	0	460	624	
15	0	0	0	0	462	623	
0	0	0	0	0	464	623	
1	0	0	0	0	465	623	
2	0	0	0	0	465	623	
3	0	0	0	0	465	623	
4	0	0	0	0	464	622	
5	0	0	0	0	464	623	
6	0	0	0	0	463	623	
7	0	0	0	0	462	623	
8	0	0	0	0	461	623	
9	0	0	0	0	460	624	
10	0	0	0	0	459	624	
11	0	0	0	0	459	623	
12	0	0	0	0	460	623	
13	0	0	0	0	462	624	
14	0	0	0	0	465	623	
15	0	0	0	0	468	623	
0	0	0	0	0	471	623	
1	0	0	0	0	473	624	
2	0	0	0	0	475	624	
3	0	0	0	0	476	623	
4	0	0	0	0	477	624	
5	0	0	0	0	478	623	
6	0	0	0	0	477	623	
7	0	0	0	0	475	624	
8	0	0	0	0	473	624	
9	0	0	0	0	470	623	
10	0	0	0	0	468	623	
11	0	0	0	0	466	623	
12	0	0	0	0	463	623	
13	0	0	0	0	461	623	
14	0	0	0	0	461	623	
15	0	0	0	0	459	623	
0	0	0	0	0	459	623	
1	0	0	0	0	459	623	
2	0	0	0	0	460	623	
3	0	0	0	0	460	622	
4	0	0	0	0	461	622	
5	0	0	0	0	462	622	
6	0	0	0	0	464	623	
7	0	0	0	0	465	622	
8	0	0	0	0	467	622	
9	0	0	0	0	467	622	
10	0	0	0	0	469	622	
11	0	0	0	0	469	622	
12	0	0	0	0	469	622	
13	0	0	0	0	469	622	
14	0	0	0	0	468	621	
15	0	0	0	0	467	622	
0	0	0	0	0	466	622	
1	0	0	0	0	466	622	
2	0	0	0	0	465	622	
3	0	0	0	0	465	622	
4	0	0	0	0	465	623	
5	0	0	0	0	465	622	
6	0	0	0	0	466	621	
7	0	0	0	0	468	622	
8	0	0	0	0	469	622	
9	0	0	0	0	470	622	
10	0	0	0	0	471	623	
11	0	0	0	0	472	622	
12	0	0	0	0	473	622	
13	0	0	0	0	473	622	
14	0	0	0	0	472	622	
15	0	0	0	0	471	622	
0	0	0	0	0	469	622	
1	0	0	0	0	468	622	
2	0	0	0	0	467	623	
3	0	0	0	0	465	623	
4	0	0	0	0	463	623	
5	0	0	0	0	462	622	
6	0	0	0	0	461	622	
7	0	0	0	0	461	622	
8	0	0	0	0	460	622	
9	0	0	0	0	460	622	
10	0	0	0	0	462	623	
11	0	0	0	0	463	623	
12	0	0	0	0	464	622	
13	0	0	0	0	465	622	
14	0	0	0	0	466	622	
15	0	0	0	0	465	623	
0	0	0	0	0	467	622	
1	0	0	0	0	468	623	
2	0	0	0	0	468	624	
3	0	0	0	0	467	623	
4	0	0	0	0	465	623	
5	0	0	0	0	464	624	
6	0	0	0	0	464	624	
7	0	0	0	0	464	624	
8	0	0	0	0	463	623	
9	0	0	0	0	463	624	
10	0	0	0	0	462	624	
11	0	0	0	0	462	624	
12	0	0	0	0	463	624	
13	0	0	0	0	465	624	
14	0	0	0	0	467	624	
15	0	0	0	0	470	624	
0	0	0	0	0	472	624	
1	0	0	0	0	473	625	
2	0	0	0	0	473	625	
3	0	0	0	0	473	625	
4	0	0	0	0	474	624	
5	0	0	0	0	474	624	
6	0	0	0	0	474	625	
7	0	0	0	0	472	624	
8	0	0	0	0	470	624	
9	0	0	0	0	468	624	
10	0	0	0	0	467	624	
11	0	0	0	0	465	624	
12	0	0	0	0	462	625	
13	0	0	0	0	461	625	
14	0	0	0	0	461	625	
15	0	0	0	0	460	624	
0	0	0	0	0	460	625	
1	0	0	0	0	461	624	
2	0	0	0	0	463	624	
3	0	0	0	0	464	624	
4	0	0	0	0	466	624	
5	0	0	0	0	468	624	
6	0	0	0	0	469	624	
7	0	0	0	0	470	624	
8	0	0	0	0	470	624	
9	0	0	0	0	470	624	
10	0	0	0	0	469	623	
11	0	0	0	0	467	623	
12	0	0	0	0	465	624	
13	0	0	0	0	463	623	
14	0	0	0	0	460	624	
15	0	0	0	0	459	624	
0	0	0	0	0	457	624	
1	0	0	0	0	457	624	
2	0	0	0	0	456	624	
3	0	0	0	0	455	624	
4	0	0	0	0	455	624	
5	0	0	0	0	456	624	
6	0	0	0	0	457	624	
7	0	0	0	0	459	624	
8	0	0	0	0	460	624	
9	0	0	0	0	463	624	
10	0	0	0	0	464	624	
11	0	0	0	0	467	624	
12	0	0	0	0	468	623	
13	0	0	0	0	470	623	
14	0	0	0	0	471	624	
15	0	0	0	0	471	623	
0	0	0	0	0	471	624	
1	0	0	0	0	471	624	
2	0	0	0	0	470	624	
3	0	0	0	0	468	623	
4	0	0	0	0	467	623	
5	0	0	0	0	467	623	
6	0	0	0	0	467	624	
7	0	0	0	0	468	623	
8	0	0	0	0	469	624	
9	0	0	0	0	471	624	
10	0	0	0	0	472	624	
11	0	0	0	0	474	623	
12	0	0	0	0	476	624	
13	0	0	0	0	479	624	
14	0	0	0	0	480	624	
15	0	0	0	0	481	624	
0	0	0	0	0	483	624	
1	0	0	0	0	484	624	
2	0	0	0	0	483	625	
3	0	0	0	0	483	625	
4	0	0	0	0	482	625	
5	0	0	0	0	480	625	
6	0	0	0	0	478	625	
7	0	0	0	0	477	625	
8	0	0	0	0	475	625	
9	0	0	0	0	474	626	
10	0	0	0	0	473	626	
11	0	0	0	0	473	626	
12	0	0	0	0	473	626	
13	0	0	0	0	474	626	
14	0	0	0	0	475	627	
15	0	0	0	0	477	626	
0	0	0	0	0	478	626	
1	0	0	0	0	480	626	
2	0	0	0	0	481	626	
3	0	0	0	0	483	626	
4	0	0	0	0	483	626	
5	0	0	0	0	482	625	
6	0	0	0	0	481	625	
7	0	0	0	0	480	626	
8	0	0	0	0	478	626	
9	0	0	0	0	477	625	
10	0	0	0	0	475	625	
11	0	0	0	0	473	624	
12	0	0	0	0	472	624	
13	0	0	0	0	470	624	
14	0	0	0	0	468	625	
15	0	0	0	0	467	625	
0	0	0	0	0	467	625	
1	0	0	0	0	468	624	
2	0	0	0	0	470	624	
3	0	0	0	0	471	624	
4	0	0	0	0	472	624	
5	0	0	0	0	475	624	
6	0	0	0	0	476	624	
7	0	0	0	0	478	624	
8	0	0	0	0	479	624	
9	0	0	0	0	480	624	
10	0	0	0	0	481	625	
11	0	0	0	0	480	624	
12	0	0	0	0	480	624	
13	0	0	0	0	479	624	
14	0	0	0	0	479	624	
15	0	0	0	0	478	623	
0	0	0	0	0	477	624	
1	0	0	0	0	477	624	
2	0	0	0	0	476	624	
3	0	0	0	0	476	624	
4	0	0	0	0	477	624	
5	0	0	0	0	478	624	
6	0	0	0	0	481	624	
7	0	0	0	0	484	624	
8	0	0	0	0	487	624	
9	0	0	0	0	489	624	
10	0	0	0	0	490	623	
11	0	0	0	0	492	623	
12	0	0	0	0	494	624	
13	0	0	0	0	493	623	
14	0	0	0	0	492	623	
15	0	0	0	0	491	623	
0	0	0	0	0	488	624	
1	0	0	0	0	485	623	
2	0	0	0	0	483	623	
3	0	0	0	0	480	623	
4	0	0	0	0	478	622	
5	0	0	0	0	476	622	
6	0	0	0	0	474	622	
7	0	0	0	0	472	623	
8	0	0	0	0	472	623	
9	0	0	0	0	472	623	
10	0	0	0	0	473	622	
11	0	0	0	0	474	623	
12	0	0	0	0	475	623	
13	0	0	0	0	476	623	
14	0	0	0	0	476	623	
15	0	0	0	0	476	623	
0	0	0	0	0	475	623	
1	0	0	0	0	473	623	
2	0	0	0	0	472	623	
3	0	0	0	0	468	622	
4	0	0	0	0	465	622	
5	0	0	0	0	463	622	
6	0	0	0	0	460	623	
7	0	0	0	0	458	623	
8	0	0	0	0	455	622	
9	0	0	0	0	454	623	
10	0	0	0	0	451	623	
11	0	0	0	0	449	623	
12	0	0	0	0	448	623	
13	0	0	0	0	447	623	
14	0	0	0	0	448	623	
15	0	0	0	0	447	622	
0	0	0	0	0	447	622	
1	0	0	0	0	448	623	
2	0	0	0	0	449	623	
3	0	0	0	0	449	622	
4	0	0	0	0	448	623	
5	0	0	0	0	446	622	
6	0	0	0	0	443	623	
7	0	0	0	0	440	623	
8	0	0	0	0	436	623	
9	0	0	0	0	432	623	
10	0	0	0	0	429	623	
11	0	0	0	0	426	623	
12	0	0	0	0	423	623	
13	0	0	0	0	420	623	
14	0	0	0	0	419	623	
15	0	0	0	0	419	623	
0	0	0	0	0	419	624	
1	0	0	0	0	419	623	
2	0	0	0	0	418	623	
3	0	0	0	0	417	623	
4	0	0	0	0	416	623	
5	0	0	0	0	416	624	
6	0	0	0	0	415	623	
7	0	0	0	0	413	623	
8	0	0	0	0	411	623	
9	0	0	0	0	410	623	
10	0	0	0	0	407	624	
11	0	0	0	0	404	623	
12	0	0	0	0	400	623	
13	0	0	0	0	395	623	
14	0	0	0	0	386	623	
15	0	0	0	0	379	623	
0	0	0	0	0	369	623	
1	0	0	0	0	361	622	
2	0	0	0	0	354	623	
3	0	0	0	0	347	623	
4	0	0	0	0	340	623	
5	0	0	0	0	334	623	
6	0	0	0	0	329	623	
7	0	0	0	0	324	623	
8	0	0	0	0	322	623	
9	0	0	0	0	321	623	
10	0	0	0	0	320	623	
11	0	0	0	0	319	622	
12	0	0	0	0	318	622	
13	0	0	0	0	318	622	
14	0	0	0	0	318	623	
15	0	0	0	0	320	624	
0	0	0	0	0	323	622	
1	0	0	0	0	329	622	
2	0	0	0	0	338	623	
3	0	0	0	0	351	623	
4	0	0	0	0	364	622	
5	0	0	0	0	377	622	
6	0	0	0	0	392	622	
7	0	0	0	0	412	622	
8	0	0	0	0	437	622	
9	0	0	0	0	466	622	
10	0	0	0	0	499	622	
11	0	0	0	0	532	622	
12	0	0	0	0	568	622	
13	0	0	0	0	603	622	
14	0	0	0	0	634	622	
15	0	0	0	0	662	622	
0	0	0	0	0	687	622	
1	0	0	0	0	709	622	
2	0	0	0	0	728	622	
3	0	0	0	0	741	622	
4	0	0	0	0	750	622	
5	0	0	0	0	757	622	
6	0	0	0	0	760	622	
7	0	0	0	0	760	622	
8	0	0	0	0	752	622	
9	0	0	0	0	741	622	
10	0	0	0	0	724	623	
11	0	0	0	0	702	622	
12	0	0	0	0	678	622	
13	0	0	0	0	653	623	
14	0	0	0	0	627	622	
15	0	0	0	0	599	622	
0	0	0	0	0	569	622	
1	0	0	0	0	540	623	
2	0	0	0	0	511	623	
3	0	0	0	0	480	623	
4	0	0	0	0	451	623	
5	0	0	0	0	423	623	
6	0	0	0	0	398	623	
7	0	0	0	0	376	623	
8	0	0	0	0	357	622	
9	0	0	0	0	341	623	
10	0	0	0	0	327	622	
11	0	0	0	0	316	622	
12	0	0	0	0	305	623	
13	0	0	0	0	299	622	
14	0	0	0	0	294	622	
15	0	0	0	0	289	622	
0	0	0	0	0	287	623	
1	0	0	0	0	287	622	
2	0	0	0	0	286	622	
3	0	0	0	0	286	622	
4	0	0	0	0	286	622	
5	0	0	0	0	288	621	
6	0	0	0	0	289	621	
7	0	0	0	0	290	622	
8	0	0	0	0	290	621	
9	0	0	0	0	290	621	
10	0	0	0	0	289	622	
11	0	0	0	0	288	621	
12	0	0	0	0	287	622	
13	0	0	0	0	286	622	
14	0	0	0	0	285	622	
15	0	0	0	0	284	622	
0	0	0	0	0	284	622	
1	0	0	0	0	283	622	
2	0	0	0	0	283	623	
3	0	0	0	0	283	622	
4	0	0	0	0	284	622	
5	0	0	0	0	285	622	
6	0	0	0	0	287	622	
7	0	0	0	0	290	622	
8	0	0	0	0	293	623	
9	0	0	0	0	297	623	
10	0	0	0	0	299	623	
11	0	0	0	0	302	623	
12	0	0	0	0	304	623	
13	0	0	0	0	305	623	
14	0	0	0	0	307	623	
15	0	0	0	0	308	624	
0	0	0	0	0	309	624	
1	0	0	0	0	309	624	
2	0	0	0	0	309	624	
3	0	0	0	0	309	625	
4	0	0	0	0	309	624	
5	0	0	0	0	309	624	
6	0	0	0	0	310	624	
7	0	0	0	0	311	624	
8	0	0	0	0	312	624	
9	0	0	0	0	316	624	
10	0	0	0	0	319	624	
11	0	0	0	0	323	624	
12	0	0	0	0	326	624	
13	0	0	0	0	329	624	
14	0	0	0	0	333	624	
15	0	0	0	0	335	624	
0	0	0	0	0	337	624	
1	0	0	0	0	337	624	
2	0	0	0	0	337	624	
3	0	0	0	0	337	625	
4	0	0	0	0	336	624	
5	0	0	0	0	336	624	
6	0	0	0	0	337	625	
7	0	0	0	0	337	624	
8	0	0	0	0	337	625	
9	0	0	0	0	340	625	
10	0	0	0	0	342	625	
11	0	0	0	0	344	625	
12	0	0	0	0	345	624	
13	0	0	0	0	349	624	
14	0	0	0	0	352	624	
15	0	0	0	0	356	624	
0	0	0	0	0	360	624	
1	0	0	0	0	363	624	
2	0	0	0	0	367	624	
3	0	0	0	0	368	623	
4	0	0	0	0	371	623	
5	0	0	0	0	372	622	
6	0	0	0	0	373	622	
7	0	0	0	0	373	622	
8	0	0	0	0	373	622	
9	0	0	0	0	373	621	
10	0	0	0	0	373	622	
11	0	0	0	0	374	621	
12	0	0	0	0	374	621	
13	0	0	0	0	377	621	
14	0	0	0	0	379	621	
15	0	0	0	0	382	621	
0	0	0	0	0	385	621	
1	0	0	0	0	388	621	
2	0	0	0	0	395	622	
3	0	0	0	0	402	621	
4	0	0	0	0	409	621	
5	0	0	0	0	417	621	
6	0	0	0	0	424	621	
7	0	0	0	0	432	622	
8	0	0	0	0	438	622	
9	0	0	0	0	444	622	
10	0	0	0	0	448	622	
11	0	0	0	0	454	622	
12	0	0	0	0	458	622	
13	0	0	0	0	462	622	
14	0	0	0	0	466	622	
15	0	0	0	0	471	622	
0	0	0	0	0	476	622	
1	0	0	0	0	481	622	
2	0	0	0	0	485	622	
3	0	0	0	0	490	622	
4	0	0	0	0	496	622	
5	0	0	0	0	503	622	
6	0	0	0	0	509	623	
7	0	0	0	0	515	623	
8	0	0	0	0	521	623	
9	0	0	0	0	525	623	
10	0	0	0	0	531	623	
11	0	0	0	0	536	624	
12	0	0	0	0	540	623	
13	0	0	0	0	544	624	
14	0	0	0	0	546	624	
15	0	0	0	0	547	624	
0	0	0	0	0	547	624	
1	0	0	0	0	549	625	
2	0	0	0	0	550	625	
3	0	0	0	0	550	625	
4	0	0	0	0	550	625	
5	0	0	0	0	551	625	
6	0	0	0	0	552	625	
7	0	0	0	0	553	625	
8	0	0	0	0	554	625	
9	0	0	0	0	556	625	
10	0	0	0	0	559	626	
11	0	0	0	0	561	625	
12	0	0	0	0	563	625	
13	0	0	0	0	566	626	
14	0	0	0	0	567	626	
15	0	0	0	0	568	626	
0	0	0	0	0	570	626	
1	0	0	0	0	572	625	
2	0	0	0	0	573	626	
3	0	0	0	0	573	626	
4	0	0	0	0	573	626	
5	0	0	0	0	572	627	
6	0	0	0	0	571	626	
7	0	0	0	0	570	626	
8	0	0	0	0	568	625	
9	0	0	0	0	567	626	
10	0	0	0	0	566	626	
11	0	0	0	0	566	626	
12	0	0	0	0	567	625	
13	0	0	0	0	568	626	
14	0	0	0	0	568	627	
15	0	0	0	0	569	627	
0	0	0	0	0	570	626	
1	0	0	0	0	572	627	
2	0	0	0	0	573	626	
3	0	0	0	0	574	626	
4	0	0	0	0	574	626	
5	0	0	0	0	573	626	
6	0	0	0	0	572	627	
7	0	0	0	0	570	625	
8	0	0	0	0	568	625	
9	0	0	0	0	566	625	
10	0	0	0	0	562	626	
11	0	0	0	0	558	625	
12	0	0	0	0	555	625	
13	0	0	0	0	553	625	
14	0	0	0	0	550	625	
15	0	0	0	0	546	625	
0	0	0	0	0	544	625	
1	0	0	0	0	542	624	
2	0	0	0	0	541	625	
3	0	0	0	0	540	624	
4	0	0	0	0	538	625	
5	0	0	0	0	537	625	
6	0	0	0	0	535	624	
7	0	0	0	0	533	625	
8	0	0	0	0	531	625	
9	0	0	0	0	528	625	
10	0	0	0	0	525	625	
11	0	0	0	0	521	625	
12	0	0	0	0	519	625	
13	0	0	0	0	515	625	
14	0	0	0	0	512	625	
15	0	0	0	0	509	625	
0	0	0	0	0	507	625	
1	0	0	0	0	506	626	
2	0	0	0	0	507	626	
3	0	0	0	0	506	625	
4	0	0	0	0	506	625	
5	0	0	0	0	506	626	
6	0	0	0	0	507	626	
7	0	0	0	0	508	625	
8	0	0	0	0	509	626	
9	0	0	0	0	510	625	
10	0	0	0	0	510	626	
11	0	0	0	0	511	625	
12	0	0	0	0	511	624	
13	0	0	0	0	510	624	
14	0	0	0	0	510	624	
15	0	0	0	0	508	624	
0	0	0	0	0	506	624	
1	0	0	0	0	504	624	
2	0	0	0	0	502	623	
3	0	0	0	0	500	624	
4	0	0	0	0	497	623	
5	0	0	0	0	496	624	
6	0	0	0	0	495	623	
7	0	0	0	0	495	623	
8	0	0	0	0	496	624	
9	0	0	0	0	496	623	
10	0	0	0	0	496	623	
11	0	0	0	0	496	623	
12	0	0	0	0	497	623	
13	0	0	0	0	497	622	
14	0	0	0	0	499	622	
15	0	0	0	0	499	622	
0	0	0	0	0	498	622	
1	0	0	0	0	497	622	
2	0	0	0	0	495	623	
3	0	0	0	0	492	621	
4	0	0	0	0	490	622	
5	0	0	0	0	488	622	
6	0	0	0	0	486	622	
7	0	0	0	0	483	622	
8	0	0	0	0	480	622	
9	0	0	0	0	477	622	
10	0	0	0	0	475	622	
11	0	0	0	0	472	622	
12	0	0	0	0	472	622	
13	0	0	0	0	471	622	
14	0	0	0	0	471	622	
15	0	0	0	0	470	622	
0	0	0	0	0	469	622	
1	0	0	0	0	468	622	
2	0	0	0	0	465	623	
3	0	0	0	0	464	623	
4	0	0	0	0	462	623	
5	0	0	0	0	459	623	
6	0	0	0	0	456	623	
7	0	0	0	0	453	622	
8	0	0	0	0	450	623	
9	0	0	0	0	445	622	
10	0	0	0	0	441	623	
11	0	0	0	0	437	623	
12	0	0	0	0	433	622	
13	0	0	0	0	430	623	
14	0	0	0	0	427	622	
15	0	0	0	0	424	622	
0	0	0	0	0	423	623	
1	0	0	0	0	423	623	
2	0	0	0	0	424	623	
3	0	0	0	0	424	623	
4	0	0	0	0	425	622	
5	0	0	0	0	425	623	
6	0	0	0	0	426	622	
7	0	0	0	0	425	622	
8	0	0	0	0	426	622	
9	0	0	0	0	425	622	
10	0	0	0	0	423	623	
11	0	0	0	0	422	623	
12	0	0	0	0	419	623	
13	0	0	0	0	417	623	
14	0	0	0	0	415	622	
15	0	0	0	0	414	622	
0	0	0	0	0	413	622	
1	0	0	0	0	413	622	
2	0	0	0	0	412	623	
3	0	0	0	0	413	623	
4	0	0	0	0	414	622	
5	0	0	0	0	417	623	
6	0	0	0	0	419	622	
7	0	0	0	0	421	622	
8	0	0	0	0	423	622	
9	0	0	0	0	423	622	
10	0	0	0	0	424	623	
11	0	0	0	0	425	622	
12	0	0	0	0	425	622	
13	0	0	0	0	425	622	
14	0	0	0	0	425	622	
15	0	0	0	0	425	622	
0	0	0	0	0	425	622	
1	0	0	0	0	424	623	
2	0	0	0	0	423	623	
3	0	0	0	0	422	623	
4	0	0	0	0	422	623	
5	0	0	0	0	422	623	
6	0	0	0	0	422	623	
7	0	0	0	0	422	623	
8	0	0	0	0	423	623	
9	0	0	0	0	424	623	
10	0	0	0	0	424	623	
11	0	0	0	0	426	623	
12	0	0	0	0	428	623	
13	0	0	0	0	429	624	
14	0	0	0	0	430	623	
15	0	0	0	0	431	624	
0	0	0	0	0	434	623	
1	0	0	0	0	435	624	
2	0	0	0	0	436	624	
3	0	0	0	0	436	623	
4	0	0	0	0	437	624	
5	0	0	0	0	437	624	
6	0	0	0	0	437	623	
7	0	0	0	0	437	623	
8	0	0	0	0	438	623	
9	0	0	0	0	439	622	
10	0	0	0	0	440	623	
11	0	0	0	0	440	622	
12	0	0	0	0	441	623	
13	0	0	0	0	442	622	
14	0	0	0	0	444	622	
15	0	0	0	0	446	621	
0	0	0	0	0	447	621	
1	0	0	0	0	449	622	
2	0	0	0	0	450	622	
3	0	0	0	0	451	622	
4	0	0	0	0	452	621	
5	0	0	0	0	452	621	
6	0	0	0	0	453	620	
7	0	0	0	0	452	621	
8	0	0	0	0	451	621	
9	0	0	0	0	449	621	
10	0	0	0	0	448	622	
11	0	0	0	0	447	621	
12	0	0	0	0	446	620	
13	0	0	0	0	445	621	
14	0	0	0	0	445	621	
15	0	0	0	0	446	621	
0	0	0	0	0	448	621	
1	0	0	0	0	448	621	
2	0	0	0	0	449	621	
3	0	0	0	0	450	622	
4	0	0	0	0	452	621	
5	0	0	0	0	455	621	
6	0	0	0	0	457	621	
7	0	0	0	0	459	621	
8	0	0	0	0	460	621	
9	0	0	0	0	460	621	
10	0	0	0	0	460	622	
11	0	0	0	0	459	622	
12	0	0	0	0	456	621	
13	0	0	0	0	454	622	
14	0	0	0	0	452	621	
15	0	0	0	0	450	622	
0	0	0	0	0	449	622	
1	0	0	0	0	449	622	
2	0	0	0	0	449	623	
3	0	0	0	0	451	622	
4	0	0	0	0	452	623	
5	0	0	0	0	455	623	
6	0	0	0	0	459	623	
7	0	0	0	0	462	623	
8	0	0	0	0	466	623	
9	0	0	0	0	470	623	
10	0	0	0	0	473	623	
11	0	0	0	0	476	623	
12	0	0	0	0	479	623	
13	0	0	0	0	481	623	
14	0	0	0	0	484	623	
15	0	0	0	0	486	623	
0	0	0	0	0	489	623	
1	0	0	0	0	494	623	
2	0	0	0	0	499	623	
3	0	0	0	0	504	623	
4	0	0	0	0	510	623	
5	0	0	0	0	516	623	
6	0	0	0	0	522	623	
7	0	0	0	0	527	623	
8	0	0	0	0	535	623	
9	0	0	0	0	541	623	
10	0	0	0	0	547	624	
11	0	0	0	0	553	622	
12	0	0	0	0	560	623	
13	0	0	0	0	566	623	
14	0	0	0	0	571	623	
15	0	0	0	0	575	623	
0	0	0	0	0	579	623	
1	0	0	0	0	583	622	
2	0	0	0	0	586	623	
3	0	0	0	0	588	623	
4	0	0	0	0	590	623	
5	0	0	0	0	591	624	
6	0	0	0	0	591	623	
7	0	0	0	0	593	624	
8	0	0	0	0	594	623	
9	0	0	0	0	596	623	
10	0	0	0	0	599	624	
11	0	0	0	0	601	624	
12	0	0	0	0	603	624	
13	0	0	0	0	607	624	
14	0	0	0	0	612	624	
15	0	0	0	0	618	624	
0	0	0	0	0	624	623	
1	0	0	0	0	631	624	
2	0	0	0	0	638	624	
3	0	0	0	0	643	623	
4	0	0	0	0	648	624	
5	0	0	0	0	653	623	
6	0	0	0	0	656	624	
7	0	0	0	0	660	623	
8	0	0	0	0	664	623	
9	0	0	0	0	667	624	
10	0	0	0	0	670	623	
11	0	0	0	0	674	623	
12	0	0	0	0	676	623	
13	0	0	0	0	679	623	
14	0	0	0	0	682	623	
15	0	0	0	0	684	623	
0	0	0	0	0	686	623	
1	0	0	0	0	688	623	
2	0	0	0	0	692	623	
3	0	0	0	0	696	623	
4	0	0	0	0	699	623	
5	0	0	0	0	704	624	
6	0	0	0	0	706	623	
7	0	0	0	0	708	623	
8	0	0	0	0	711	622	
9	0	0	0	0	713	623	
10	0	0	0	0	715	624	
11	0	0	0	0	716	623	
12	0	0	0	0	717	623	
13	0	0	0	0	718	623	
14	0	0	0	0	717	623	
15	0	0	0	0	717	623	
0	0	0	0	0	718	623	
1	0	0	0	0	719	623	
2	0	0	0	0	720	624	
3	0	0	0	0	721	623	
4	0	0	0	0	723	624	
5	0	0	0	0	726	624	
6	0	0	0	0	730	624	
7	0	0	0	0	734	624	
8	0	0	0	0	737	624	
9	0	0	0	0	740	624	
10	0	0	0	0	742	625	
11	0	0	0	0	745	625	
12	0	0	0	0	746	625	
13	0	0	0	0	745	625	
14	0	0	0	0	745	625	
15	0	0	0	0	744	625	
0	0	0	0	0	743	625	
1	0	0	0	0	742	626	
2	0	0	0	0	740	626	
3	0	0	0	0	739	625	
4	0	0	0	0	739	625	
5	0	0	0	0	739	625	
6	0	0	0	0	739	625	
7	0	0	0	0	738	624	
8	0	0	0	0	739	626	
9	0	0	0	0	740	626	
10	0	0	0	0	741	626	
11	0	0	0	0	743	625	
12	0	0	0	0	745	625	
13	0	0	0	0	747	625	
14	0	0	0	0	748	625	
15	0	0	0	0	748	625	
0	0	0	0	0	748	624	
1	0	0	0	0	747	624	
2	0	0	0	0	747	625	
3	0	0	0	0	745	625	
4	0	0	0	0	744	625	
5	0	0	0	0	741	624	
6	0	0	0	0	740	624	
7	0	0	0	0	739	624	
8	0	0	0	0	738	624	
9	0	0	0	0	738	623	
10	0	0	0	0	739	623	
11	0	0	0	0	741	623	
12	0	0	0	0	743	622	
13	0	0	0	0	745	622	
14	0	0	0	0	748	622	
15	0	0	0	0	751	622	
0	0	0	0	0	754	622	
1	0	0	0	0	758	622	
2	0	0	0	0	760	622	
3	0	0	0	0	762	622	
4	0	0	0	0	764	622	
5	0	0	0	0	764	622	
6	0	0	0	0	765	622	
7	0	0	0	0	765	622	
8	0	0	0	0	764	622	
9	0	0	0	0	764	621	
10	0	0	0	0	763	621	
11	0	0	0	0	762	621	
12	0	0	0	0	760	621	
13	0	0	0	0	759	622	
14	0	0	0	0	757	621	
15	0	0	0	0	757	621	
0	0	0	0	0	758	621	
1	0	0	0	0	759	621	
2	0	0	0	0	760	621	
3	0	0	0	0	760	621	
4	0	0	0	0	760	621	
5	0	0	0	0	761	621	
6	0	0	0	0	761	620	
7	0	0	0	0	761	621	
8	0	0	0	0	761	620	
9	0	0	0	0	760	621	
10	0	0	0	0	758	622	
11	0	0	0	0	755	620	
12	0	0	0	0	753	621	
13	0	0	0	0	750	621	
14	0	0	0	0	747	620	
15	0	0	0	0	744	621	
0	0	0	0	0	742	621	
1	0	0	0	0	741	622	
2	0	0	0	0	741	622	
3	0	0	0	0	741	621	
4	0	0	0	0	741	622	
5	0	0	0	0	740	621	
6	0	0	0	0	741	622	
7	0	0	0	0	741	622	
8	0	0	0	0	741	622	
9	0	0	0	0	741	621	
10	0	0	0	0	741	622	
11	0	0	0	0	741	622	
12	0	0	0	0	741	623	
13	0	0	0	0	740	623	
14	0	0	0	0	739	623	
15	0	0	0	0	736	623	
0	0	0	0	0	734	622	
1	0	0	0	0	730	623	
2	0	0	0	0	727	623	
3	0	0	0	0	724	623	
4	0	0	0	0	721	623	
5	0	0	0	0	721	623	
6	0	0	0	0	719	623	
7	0	0	0	0	718	622	
8	0	0	0	0	718	623	
9	0	0	0	0	717	623	
10	0	0	0	0	719	624	
11	0	0	0	0	719	623	
12	0	0	0	0	720	623	
13	0	0	0	0	721	623	
14	0	0	0	0	721	623	
15	0	0	0	0	720	622	
0	0	0	0	0	720	623	
1	0	0	0	0	717	622	
2	0	0	0	0	715	624	
3	0	0	0	0	713	623	
4	0	0	0	0	710	623	
5	0	0	0	0	708	624	
6	0	0	0	0	705	623	
7	0	0	0	0	703	622	
8	0	0	0	0	701	623	
9	0	0	0	0	700	623	
10	0	0	0	0	699	624	
11	0	0	0	0	697	623	
12	0	0	0	0	697	623	
13	0	0	0	0	697	624	
14	0	0	0	0	698	624	
15	0	0	0	0	700	623	
0	0	0	0	0	700	624	
1	0	0	0	0	701	624	
2	0	0	0	0	701	624	
3	0	0	0	0	701	623	
4	0	0	0	0	699	623	
5	0	0	0	0	696	624	
6	0	0	0	0	691	624	
7	0	0	0	0	684	624	
8	0	0	0	0	677	624	
9	0	0	0	0	670	624	
10	0	0	0	0	662	624	
11	0	0	0	0	655	624	
12	0	0	0	0	647	624	
13	0	0	0	0	641	624	
14	0	0	0	0	634	624	
15	0	0	0	0	629	624	
0	0	0	0	0	627	624	
1	0	0	0	0	626	625	
2	0	0	0	0	627	624	
3	0	0	0	0	629	624	
4	0	0	0	0	630	624	
5	0	0	0	0	630	624	
6	0	0	0	0	631	624	
7	0	0	0	0	633	623	
8	0	0	0	0	637	624	
9	0	0	0	0	643	624	
10	0	0	0	0	653	624	
11	0	0	0	0	664	624	
12	0	0	0	0	678	624	
13	0	0	0	0	690	623	
14	0	0	0	0	705	623	
15	0	0	0	0	724	623	
0	0	0	0	0	748	622	
1	0	0	0	0	778	623	
2	0	0	0	0	809	622	
3	0	0	0	0	843	622	
4	0	0	0	0	878	623	
5	0	0	0	0	913	623	
6	0	0	0	0	946	622	
7	0	0	0	0	976	622	
8	0	0	0	0	1004	622	
9	0	0	0	0	1022	622	
10	0	0	0	0	1022	623	
11	0	0	0	0	1022	622	
12	0	0	0	0	1022	622	
13	0	0	0	0	1022	622	
14	0	0	0	0	1022	622	
15	0	0	0	0	1022	622	
0	0	0	0	0	1022	622	
1	0	0	0	0	1022	622	
2	0	0	0	0	1022	622	
3	0	0	0	0	1022	622	
4	0	0	0	0	1021	622	
5	0	0	0	0	1000	622	
6	0	0	0	0	972	621	
7	0	0	0	0	942	622	
8	0	0	0	0	910	622	
9	0	0	0	0	878	621	
10	0	0	0	0	846	622	
11	0	0	0	0	812	622	
12	0	0	0	0	778	622	
13	0	0	0	0	747	622	
14	0	0	0	0	716	622	
15	0	0	0	0	690	623	
0	0	0	0	0	669	623	
1	0	0	0	0	652	623	
2	0	0	0	0	636	623	
3	0	0	0	0	623	623	
4	0	0	0	0	612	623	
5	0	0	0	0	603	623	
6	0	0	0	0	594	623	
7	0	0	0	0	589	623	
8	0	0	0	0	583	624	
9	0	0	0	0	580	624	
10	0	0	0	0	577	624	
11	0	0	0	0	574	624	
12	0	0	0	0	573	624	
13	0	0	0	0	573	624	
14	0	0	0	0	573	624	
15	0	0	0	0	574	624	
0	0	0	0	0	574	624	
1	0	0	0	0	574	624	
2	0	0	0	0	574	624	
3	0	0	0	0	575	625	
4	0	0	0	0	575	624	
5	0	0	0	0	574	625	
6	0	0	0	0	573	625	
7	0	0	0	0	570	624	
8	0	0	0	0	568	624	
9	0	0	0	0	567	625	
10	0	0	0	0	566	625	
11	0	0	0	0	564	624	
12	0	0	0	0	563	625	
13	0	0	0	0	563	625	
14	0	0	0	0	564	625	
15	0	0	0	0	564	625	
0	0	0	0	0	567	625	
1	0	0	0	0	569	625	
2	0	0	0	0	570	625	
3	0	0	0	0	572	625	
4	0	0	0	0	574	625	
5	0	0	0	0	576	624	
6	0	0	0	0	579	625	
7	0	0	0	0	579	625	
8	0	0	0	0	580	625	
9	0	0	0	0	579	625	
10	0	0	0	0	578	625	
11	0	0	0	0	576	625	
12	0	0	0	0	575	625	
13	0	0	0	0	573	625	
14	0	0	0	0	572	624	
15	0	0	0	0	570	625	
0	0	0	0	0	568	625	
1	0	0	0	0	567	624	
2	0	0	0	0	566	625	
3	0	0	0	0	565	625	
4	0	0	0	0	565	625	
5	0	0	0	0	564	625	
6	0	0	0	0	564	624	
7	0	0	0	0	565	625	
8	0	0	0	0	565	625	
9	0	0	0	0	567	625	
10	0	0	0	0	567	625	
11	0	0	0	0	568	624	
12	0	0	0	0	567	625	
13	0	0	0	0	566	625	
14	0	0	0	0	564	625	
15	0	0	0	0	563	625	
0	0	0	0	0	560	625	
1	0	0	0	0	558	625	
2	0	0	0	0	555	625	
3	0	0	0	0	552	625	
4	0	0	0	0	550	624	
5	0	0	0	0	548	624	
6	0	0	0	0	548	624	
7	0	0	0	0	547	624	
8	0	0	0	0	545	624	
9	0	0	0	0	543	624	
10	0	0	0	0	543	624	
11	0	0	0	0	543	624	
12	0	0	0	0	543	624	
13	0	0	0	0	543	624	
14	0	0	0	0	542	623	
15	0	0	0	0	540	623	
0	0	0	0	0	539	623	
1	0	0	0	0	536	623	
2	0	0	0	0	534	624	
3	0	0	0	0	531	624	
4	0	0	0	0	529	624	
5	0	0	0	0	526	623	
6	0	0	0	0	523	623	
7	0	0	0	0	521	624	
8	0	0	0	0	519	624	
9	0	0	0	0	518	623	
10	0	0	0	0	516	622	
11	0	0	0	0	516	623	
12	0	0	0	0	516	623	
13	0	0	0	0	516	623	
14	0	0	0	0	516	623	
15	0	0	0	0	517	622	
0	0	0	0	0	517	622	
1	0	0	0	0	518	623	
2	0	0	0	0	518	623	
3	0	0	0	0	518	622	
4	0	0	0	0	517	622	
5	0	0	0	0	515	621	
6	0	0	0	0	514	621	
7	0	0	0	0	512	623	
8	0	0	0	0	510	622	
9	0	0	0	0	508	621	
10	0	0	0	0	505	622	
11	0	0	0	0	504	622	
12	0	0	0	0	501	621	
13	0	0	0	0	499	622	
14	0	0	0	0	497	621	
15	0	0	0	0	496	621	
0	0	0	0	0	495	622	
1	0	0	0	0	495	622	
2	0	0	0	0	496	622	
3	0	0	0	0	496	622	
4	0	0	0	0	497	622	
5	0	0	0	0	498	622	
6	0	0	0	0	498	621	
7	0	0	0	0	497	622	
8	0	0	0	0	497	622	
9	0	0	0	0	496	622	
10	0	0	0	0	495	622	
11	0	0	0	0	493	622	
12	0	0	0	0	490	623	
13	0	0	0	0	487	623	
14	0	0	0	0	484	622	
15	0	0	0	0	481	623	
0	0	0	0	0	479	622	
1	0	0	0	0	478	623	
2	0	0	0	0	477	624	
3	0	0	0	0	476	624	
4	0	0	0	0	475	624	
5	0	0	0	0	475	624	
6	0	0	0	0	475	624	
7	0	0	0	0	476	624	
8	0	0	0	0	476	624	
9	0	0	0	0	476	624	
10	0	0	0	0	476	625	
11	0	0	0	0	476	624	
12	0	0	0	0	475	624	
13	0	0	0	0	473	625	
14	0	0	0	0	471	625	
15	0	0	0	0	469	625	
0	0	0	0	0	466	625	
1	0	0	0	0	463	625	
2	0	0	0	0	460	625	
3	0	0	0	0	458	624	
4	0	0	0	0	457	624	
5	0	0	0	0	457	624	
6	0	0	0	0	456	625	
7	0	0	0	0	455	625	
8	0	0	0	0	454	624	
9	0	0	0	0	455	625	
10	0	0	0	0	454	625	
11	0	0	0	0	455	624	
12	0	0	0	0	456	625	
13	0	0	0	0	457	624	
14	0	0	0	0	457	625	
15	0	0	0	0	456	625	
0	0	0	0	0	456	625	
1	0	0	0	0	455	624	
2	0	0	0	0	454	625	
3	0	0	0	0	452	624	
4	0	0	0	0	451	624	
5	0	0	0	0	449	624	
6	0	0	0	0	448	625	
7	0	0	0	0	448	624	
8	0	0	0	0	446	624	
9	0	0	0	0	446	624	
10	0	0	0	0	447	624	
11	0	0	0	0	448	624	
12	0	0	0	0	450	624	
13	0	0	0	0	451	624	
14	0	0	0	0	453	624	
15	0	0	0	0	455	624	
0	0	0	0	0	456	623	
1	0	0	0	0	457	623	
2	0	0	0	0	459	624	
3	0	0	0	0	459	623	
4	0	0	0	0	459	623	
5	0	0	0	0	458	623	
6	0	0	0	0	456	623	
7	0	0	0	0	454	623	
8	0	0	0	0	453	623	
9	0	0	0	0	451	622	
10	0	0	0	0	448	623	
11	0	0	0	0	445	623	
12	0	0	0	0	443	623	
13	0	0	0	0	441	623	
14	0	0	0	0	440	623	
15	0	0	0	0	439	623	
0	0	0	0	0	439	623	
1	0	0	0	0	440	622	
2	0	0	0	0	441	623	
3	0	0	0	0	444	623	
4	0	0	0	0	445	623	
5	0	0	0	0	447	623	
6	0	0	0	0	449	623	
7	0	0	0	0	449	623	
8	0	0	0	0	448	623	
9	0	0	0	0	446	623	
10	0	0	0	0	444	622	
11	0	0	0	0	442	623	
12	0	0	0	0	440	622	
13	0	0	0	0	437	623	
14	0	0	0	0	435	623	
15	0	0	0	0	433	623	
0	0	0	0	0	431	623	
1	0	0	0	0	429	623	
2	0	0	0	0	427	623	
3	0	0	0	0	427	623	
4	0	0	0	0	426	623	
5	0	0	0	0	427	624	
6	0	0	0	0	427	623	
7	0	0	0	0	428	624	
8	0	0	0	0	428	624	
9	0	0	0	0	428	624	
10	0	0	0	0	428	624	
11	0	0	0	0	427	624	
12	0	0	0	0	425	624	
13	0	0	0	0	423	624	
14	0	0	0	0	419	624	
15	0	0	0	0	416	624	
0	0	0	0	0	414	624	
1	0	0	0	0	411	624	
2	0	0	0	0	408	624	
3	0	0	0	0	406	624	
4	0	0	0	0	404	624	
5	0	0	0	0	402	623	
6	0	0	0	0	400	624	
7	0	0	0	0	399	624	
8	0	0	0	0	397	624	
9	0	0	0	0	397	624	
10	0	0	0	0	397	624	
11	0	0	0	0	397	624	
12	0	0	0	0	396	623	
13	0	0	0	0	396	624	
14	0	0	0	0	395	624	
15	0	0	0	0	395	623	
0	0	0	0	0	393	624	
1	0	0	0	0	389	624	
2	0	0	0	0	386	624	
3	0	0	0	0	383	624	
4	0	0	0	0	380	624	
5	0	0	0	0	378	624	
6	0	0	0	0	376	624	
7	0	0	0	0	374	625	
8	0	0	0	0	371	624	
9	0	0	0	0	370	624	
10	0	0	0	0	368	624	
11	0	0	0	0	368	624	
12	0	0	0	0	368	624	
13	0	0	0	0	369	624	
14	0	0	0	0	370	624	
15	0	0	0	0	371	624	
0	0	0	0	0	373	624	
1	0	0	0	0	376	624	
2	0	0	0	0	377	624	
3	0	0	0	0	377	624	
4	0	0	0	0	376	624	
5	0	0	0	0	376	624	
6	0	0	0	0	375	624	
7	0	0	0	0	374	624	
8	0	0	0	0	372	624	
9	0	0	0	0	371	624	
10	0	0	0	0	369	624	
11	0	0	0	0	369	624	
12	0	0	0	0	368	623	
13	0	0	0	0	370	624	
14	0	0	0	0	371	623	
15	0	0	0	0	371	623	
0	0	0	0	0	373	623	
1	0	0	0	0	375	623	
2	0	0	0	0	377	624	
3	0	0	0	0	380	623	
4	0	0	0	0	382	624	
5	0	0	0	0	385	624	
6	0	0	0	0	387	624	
7	0	0	0	0	388	624	
8	0	0	0	0	390	623	
9	0	0	0	0	391	623	
10	0	0	0	0	391	624	
11	0	0	0	0	391	624	
12	0	0	0	0	391	623	
13	0	0	0	0	390	624	
14	0	0	0	0	389	623	
15	0	0	0	0	389	623	
0	0	0	0	0	389	623	
1	0	0	0	0	388	623	
2	0	0	0	0	391	623	
3	0	0	0	0	391	623	
4	0	0	0	0	394	623	
5	0	0	0	0	396	624	
6	0	0	0	0	399	624	
7	0	0	0	0	401	623	
8	0	0	0	0	403	624	
9	0	0	0	0	405	624	
10	0	0	0	0	407	624	
11	0	0	0	0	408	624	
12	0	0	0	0	408	624	
13	0	0	0	0	407	623	
14	0	0	0	0	408	623	
15	0	0	0	0	407	624	
0	0	0	0	0	407	623	
1	0	0	0	0	406	623	
2	0	0	0	0	405	623	
3	0	0	0	0	403	624	
4	0	0	0	0	402	623	
5	0	0	0	0	402	623	
6	0	0	0	0	403	623	
7	0	0	0	0	404	623	
8	0	0	0	0	406	623	
9	0	0	0	0	408	623	
10	0	0	0	0	411	623	
11	0	0	0	0	414	623	
12	0	0	0	0	418	623	
13	0	0	0	0	420	623	
14	0	0	0	0	422	622	
15	0	0	0	0	423	622	
0	0	0	0	0	423	622	
1	0	0	0	0	423	621	
2	0	0	0	0	422	622	
3	0	0	0	0	420	621	
4	0	0	0	0	419	621	
5	0	0	0	0	418	621	
6	0	0	0	0	416	621	
7	0	0	0	0	415	621	
8	0	0	0	0	414	621	
9	0	0	0	0	413	621	
10	0	0	0	0	413	622	
11	0	0	0	0	412	621	
12	0	0	0	0	414	622	
13	0	0	0	0	415	621	
14	0	0	0	0	417	621	
15	0	0	0	0	419	621	
0	0	0	0	0	423	621	
1	0	0	0	0	425	622	
2	0	0	0	0	426	622	
3	0	0	0	0	427	622	
4	0	0	0	0	428	622	
5	0	0	0	0	427	622	
6	0	0	0	0	427	623	
7	0	0	0	0	425	623	
8	0	0	0	0	423	622	
9	0	0	0	0	422	622	
10	0	0	0	0	421	622	
11	0	0	0	0	420	623	
12	0	0	0	0	419	623	
13	0	0	0	0	418	623	
14	0	0	0	0	419	623	
15	0	0	0	0	420	623	
0	0	0	0	0	422	623	
1	0	0	0	0	423	623	
2	0	0	0	0	426	623	
3	0	0	0	0	427	623	
4	0	0	0	0	429	624	
5	0	0	0	0	431	624	
6	0	0	0	0	433	624	
7	0	0	0	0	434	623	
8	0	0	0	0	435	624	
9	0	0	0	0	435	624	
10	0	0	0	0	435	624	
11	0	0	0	0	433	624	
12	0	0	0	0	431	624	
13	0	0	0	0	430	624	
14	0	0	0	0	428	624	
15	0	0	0	0	427	624	
0	0	0	0	0	427	624	
1	0	0	0	0	426	624	
2	0	0	0	0	425	624	
3	0	0	0	0	426	624	
4	0	0	0	0	427	624	
5	0	0	0	0	428	624	
6	0	0	0	0	431	624	
7	0	0	0	0	432	624	
8	0	0	0	0	435	624	
9	0	0	0	0	437	623	
10	0	0	0	0	439	624	
11	0	0	0	0	438	624	
12	0	0	0	0	438	624	
13	0	0	0	0	437	624	
14	0	0	0	0	436	624	
15	0	0	0	0	435	624	
0	0	0	0	0	434	624	
1	0	0	0	0	432	624	
2	0	0	0	0	430	624	
3	0	0	0	0	429	624	
4	0	0	0	0	427	623	
5	0	0	0	0	427	623	
6	0	0	0	0	427	623	
7	0	0	0	0	427	623	
8	0	0	0	0	427	623	
9	0	0	0	0	428	623	
10	0	0	0	0	429	624	
11	0	0	0	0	431	623	
12	0	0	0	0	433	622	
13	0	0	0	0	435	623	
14	0	0	0	0	436	624	
15	0	0	0	0	436	623	
0	0	0	0	0	437	623	
1	0	0	0	0	436	623	
2	0	0	0	0	436	624	
3	0	0	0	0	435	623	
4	0	0	0	0	434	623	
5	0	0	0	0	432	623	
6	0	0	0	0	432	623	
7	0	0	0	0	431	623	
8	0	0	0	0	431	623	
9	0	0	0	0	431	623	
10	0	0	0	0	432	623	
11	0	0	0	0	432	622	
12	0	0	0	0	433	623	
13	0	0	0	0	434	623	
14	0	0	0	0	436	623	
15	0	0	0	0	438	622	
0	0	0	0	0	440	623	
1	0	0	0	0	442	623	
2	0	0	0	0	442	623	
3	0	0	0	0	443	622	
4	0	0	0	0	443	623	
5	0	0	0	0	442	623	
6	0	0	0	0	442	623	
7	0	0	0	0	440	623	
8	0	0	0	0	439	623	
9	0	0	0	0	438	623	
10	0	0	0	0	436	623	
11	0	0	0	0	435	623	
12	0	0	0	0	435	623	
13	0	0	0	0	435	623	
14	0	0	0	0	435	623	
15	0	0	0	0	436	623	
0	0	0	0	0	438	623	
1	0	0	0	0	440	623	
2	0	0	0	0	443	623	
3	0	0	0	0	445	623	
4	0	0	0	0	447	623	
5	0	0	0	0	448	623	
6	0	0	0	0	449	623	
7	0	0	0	0	450	624	
8	0	0	0	0	450	624	
9	0	0	0	0	450	624	
10	0	0	0	0	449	623	
11	0	0	0	0	448	623	
12	0	0	0	0	447	624	
13	0	0	0	0	446	624	
14	0	0	0	0	445	623	
15	0	0	0	0	444	624	
0	0	0	0	0	444	624	
1	0	0	0	0	443	624	
2	0	0	0	0	444	624	
3	0	0	0	0	444	624	
4	0	0	0	0	445	624	
5	0	0	0	0	447	624	
6	0	0	0	0	448	624	
7	0	0	0	0	451	624	
8	0	0	0	0	453	624	
9	0	0	0	0	455	624	
10	0	0	0	0	456	624	
11	0	0	0	0	457	624	
12	0	0	0	0	457	623	
13	0	0	0	0	457	623	
14	0	0	0	0	456	624	
15	0	0	0	0	455	623	
0	0	0	0	0	455	624	
1	0	0	0	0	454	623	
2	0	0	0	0	452	623	
3	0	0	0	0	451	623	
4	0	0	0	0	449	623	
5	0	0	0	0	449	623	
6	0	0	0	0	449	623	
7	0	0	0	0	449	623	
8	0	0	0	0	451	623	
9	0	0	0	0	452	623	
10	0	0	0	0	454	623	
11	0	0	0	0	455	623	
12	0	0	0	0	457	623	
13	0	0	0	0	459	623	
14	0	0	0	0	459	623	
15	0	0	0	0	460	623	
0	0	0	0	0	460	623	
1	0	0	0	0	458	623	
2	0	0	0	0	456	623	
3	0	0	0	0	455	623	
4	0	0	0	0	454	623	
5	0	0	0	0	453	623	
6	0	0	0	0	452	622	
7	0	0	0	0	452	622	
8	0	0	0	0	452	622	
9	0	0	0	0	451	622	
10	0	0	0	0	451	623	
11	0	0	0	0	452	622	
12	0	0	0	0	455	622	
13	0	0	0	0	458	622	
14	0	0	0	0	461	622	
15	0	0	0	0	463	622	
0	0	0	0	0	466	622	
1	0	0	0	0	471	622	
2	0	0	0	0	473	622	
3	0	0	0	0	475	622	
4	0	0	0	0	476	622	
5	0	0	0	0	477	622	
6	0	0	0	0	478	623	
7	0	0	0	0	478	623	
8	0	0	0	0	477	622	
9	0	0	0	0	477	623	
10	0	0	0	0	476	623	
11	0	0	0	0	476	623	
12	0	0	0	0	475	622	
13	0	0	0	0	475	623	
14	0	0	0	0	476	622	
15	0	0	0	0	476	622	
0	0	0	0	0	477	622	
1	0	0	0	0	478	623	
2	0	0	0	0	480	623	
3	0	0	0	0	482	622	
4	0	0	0	0	485	622	
5	0	0	0	0	486	623	
6	0	0	0	0	486	622	
7	0	0	0	0	486	623	
8	0	0	0	0	486	623	
9	0	0	0	0	484	623	
10	0	0	0	0	482	623	
11	0	0	0	0	480	623	
12	0	0	0	0	479	623	
13	0	0	0	0	478	623	
14	0	0	0	0	476	623	
15	0	0	0	0	475	623	
0	0	0	0	0	473	623	
1	0	0	0	0	472	624	
2	0	0	0	0	472	624	
3	0	0	0	0	472	624	
4	0	0	0	0	474	624	
5	0	0	0	0	475	624	
6	0	0	0	0	477	624	
7	0	0	0	0	478	624	
8	0	0	0	0	480	623	
9	0	0	0	0	481	624	
10	0	0	0	0	482	624	
11	0	0	0	0	483	623	
12	0	0	0	0	483	624	
13	0	0	0	0	483	624	
14	0	0	0	0	483	624	
15	0	0	0	0	481	624	
0	0	0	0	0	479	624	
1	0	0	0	0	477	624	
2	0	0	0	0	475	624	
3	0	0	0	0	474	624	
4	0	0	0	0	473	624	
5	0	0	0	0	472	624	
6	0	0	0	0	473	624	
7	0	0	0	0	474	623	
8	0	0	0	0	476	624	
9	0	0	0	0	477	624	
10	0	0	0	0	478	624	
11	0	0	0	0	480	624	
12	0	0	0	0	481	624	
13	0	0	0	0	482	624	
14	0	0	0	0	482	623	
15	0	0	0	0	482	624	
0	0	0	0	0	482	624	
1	0	0	0	0	480	623	
2	0	0	0	0	478	624	
3	0	0	0	0	476	623	
4	0	0	0	0	474	623	
5	0	0	0	0	473	623	
6	0	0	0	0	473	623	
7	0	0	0	0	472	623	
8	0	0	0	0	472	623	
9	0	0	0	0	472	623	
10	0	0	0	0	472	623	
11	0	0	0	0	472	623	
12	0	0	0	0	473	623	
13	0	0	0	0	473	622	
14	0	0	0	0	473	623	
15	0	0	0	0	472	623	
0	0	0	0	0	469	622	
1	0	0	0	0	467	624	
2	0	0	0	0	464	624	
3	0	0	0	0	462	623	
4	0	0	0	0	458	623	
5	0	0	0	0	454	623	
6	0	0	0	0	449	623	
7	0	0	0	0	444	623	
8	0	0	0	0	440	623	
9	0	0	0	0	438	623	
10	0	0	0	0	438	624	
11	0	0	0	0	438	624	
12	0	0	0	0	435	623	
13	0	0	0	0	435	623	
14	0	0	0	0	435	623	
15	0	0	0	0	438	623	
0	0	0	0	0	443	623	
1	0	0	0	0	451	624	
2	0	0	0	0	462	624	
3	0	0	0	0	476	623	
4	0	0	0	0	492	623	
5	0	0	0	0	511	623	
6	0	0	0	0	533	624	
7	0	0	0	0	556	623	
8	0	0	0	0	583	623	
9	0	0	0	0	613	624	
10	0	0	0	0	646	624	
11	0	0	0	0	681	623	
12	0	0	0	0	716	624	
13	0	0	0	0	752	624	
14	0	0	0	0	789	623	
15	0	0	0	0	824	624	
0	0	0	0	0	856	623	
1	0	0	0	0	880	623	
2	0	0	0	0	902	624	
3	0	0	0	0	921	622	
4	0	0	0	0	937	623	
5	0	0	0	0	948	623	
6	0	0	0	0	955	622	
7	0	0	0	0	958	622	
8	0	0	0	0	959	623	
9	0	0	0	0	956	623	
10	0	0	0	0	946	623	
11	0	0	0	0	934	623	
12	0	0	0	0	915	622	
13	0	0	0	0	892	622	
14	0	0	0	0	863	623	
15	0	0	0	0	830	623	
0	0	0	0	0	796	623	
1	0	0	0	0	759	623	
2	0	0	0	0	719	623	
3	0	0	0	0	680	623	
4	0	0	0	0	641	624	
5	0	0	0	0	604	623	
6	0	0	0	0	570	623	
7	0	0	0	0	540	623	
8	0	0	0	0	511	623	
9	0	0	0	0	488	623	
10	0	0	0	0	470	623	
11	0	0	0	0	455	623	
12	0	0	0	0	444	623	
13	0	0	0	0	434	623	
14	0	0	0	0	427	623	
15	0	0	0	0	422	624	
0	0	0	0	0	416	623	
1	0	0	0	0	412	623	
2	0	0	0	0	408	623	
3	0	0	0	0	404	623	
4	0	0	0	0	401	623	
5	0	0	0	0	399	623	
6	0	0	0	0	396	623	
7	0	0	0	0	395	624	
8	0	0	0	0	394	624	
9	0	0	0	0	394	623	
10	0	0	0	0	393	624	
11	0	0	0	0	395	624	
12	0	0	0	0	396	624	
13	0	0	0	0	399	624	
14	0	0	0	0	401	624	
15	0	0	0	0	403	624	
0	0	0	0	0	406	624	
1	0	0	0	0	408	624	
2	0	0	0	0	410	624	
3	0	0	0	0	411	624	
4	0	0	0	0	412	624	
5	0	0	0	0	412	624	
6	0	0	0	0	412	624	
7	0	0	0	0	411	623	
8	0	0	0	0	410	624	
9	0	0	0	0	410	623	
10	0	0	0	0	409	624	
11	0	0	0	0	409	623	
12	0	0	0	0	409	624	
13	0	0	0	0	410	624	
14	0	0	0	0	412	624	
15	0	0	0	0	412	624	
0	0	0	0	0	414	624	
1	0	0	0	0	417	624	
2	0	0	0	0	420	624	
3	0	0	0	0	423	623	
4	0	0	0	0	425	624	
5	0	0	0	0	428	624	
6	0	0	0	0	430	624	
7	0	0	0	0	431	623	
8	0	0	0	0	432	623	
9	0	0	0	0	433	624	
10	0	0	0	0	433	624	
11	0	0	0	0	432	623	
12	0	0	0	0	431	624	
13	0	0	0	0	431	623	
14	0	0	0	0	430	624	
15	0	0	0	0	430	624	
0	0	0	0	0	429	624	
1	0	0	0	0	430	624	
2	0	0	0	0	431	624	
3	0	0	0	0	432	624	
4	0	0	0	0	434	625	
5	0	0	0	0	435	624	
6	0	0	0	0	438	625	
7	0	0	0	0	440	625	
8	0	0	0	0	442	625	
9	0	0	0	0	444	625	
10	0	0	0	0	446	625	
11	0	0	0	0	447	624	
12	0	0	0	0	448	625	
13	0	0	0	0	447	625	
14	0	0	0	0	447	624	
15	0	0	0	0	446	625	
0	0	0	0	0	445	625	
1	0	0	0	0	444	625	
2	0	0	0	0	443	625	
3	0	0	0	0	442	624	
4	0	0	0	0	442	624	
5	0	0	0	0	442	624	
6	0	0	0	0	442	623	
7	0	0	0	0	444	624	
8	0	0	0	0	445	624	
9	0	0	0	0	446	624	
10	0	0	0	0	448	624	
11	0	0	0	0	451	623	
12	0	0	0	0	452	623	
13	0	0	0	0	455	623	
14	0	0	0	0	456	623	
15	0	0	0	0	457	622	
0	0	0	0	0	459	623	
1	0	0	0	0	459	622	
2	0	0	0	0	459	622	
3	0	0	0	0	458	622	
4	0	0	0	0	457	622	
5	0	0	0	0	457	623	
6	0	0	0	0	457	621	
7	0	0	0	0	456	622	
8	0	0	0	0	457	622	
9	0	0	0	0	456	622	
10	0	0	0	0	455	623	
11	0	0	0	0	455	622	
12	0	0	0	0	456	622	
13	0	0	0	0	457	622	
14	0	0	0	0	459	622	
15	0	0	0	0	460	622	
0	0	0	0	0	463	622	
1	0	0	0	0	465	623	
2	0	0	0	0	464	622	
3	0	0	0	0	465	622	
4	0	0	0	0	465	622	
5	0	0	0	0	465	622	
6	0	0	0	0	464	623	
7	0	0	0	0	463	622	
8	0	0	0	0	463	623	
9	0	0	0	0	463	622	
10	0	0	0	0	463	623	
11	0	0	0	0	463	622	
12	0	0	0	0	463	622	
13	0	0	0	0	464	622	
14	0	0	0	0	464	622	
15	0	0	0	0	465	623	
0	0	0	0	0	467	624	
1	0	0	0	0	469	624	
2	0	0	0	0	471	624	
3	0	0	0	0	471	624	
4	0	0	0	0	473	623	
5	0	0	0	0	475	624	
6	0	0	0	0	475	624	
7	0	0	0	0	476	624	
8	0	0	0	0	476	624	
9	0	0	0	0	476	624	
10	0	0	0	0	476	624	
11	0	0	0	0	475	624	
12	0	0	0	0	473	624	
13	0	0	0	0	472	624	
14	0	0	0	0	472	624	
15	0	0	0	0	472	625	
0	0	0	0	0	471	625	
1	0	0	0	0	472	624	
2	0	0	0	0	473	625	
3	0	0	0	0	473	624	
4	0	0	0	0	473	625	
5	0	0	0	0	475	624	
6	0	0	0	0	477	624	
7	0	0	0	0	479	624	
8	0	0	0	0	480	624	
9	0	0	0	0	483	624	
10	0	0	0	0	483	625	
11	0	0	0	0	483	624	
12	0	0	0	0	483	624	
13	0	0	0	0	481	624	
14	0	0	0	0	480	624	
15	0	0	0	0	478	624	
0	0	0	0	0	476	624	
1	0	0	0	0	474	624	
2	0	0	0	0	472	624	
3	0	0	0	0	470	624	
4	0	0	0	0	470	624	
5	0	0	0	0	470	624	
6	0	0	0	0	471	624	
7	0	0	0	0	471	624	
8	0	0	0	0	472	624	
9	0	0	0	0	474	624	
10	0	0	0	0	477	625	
11	0	0	0	0	479	624	
12	0	0	0	0	481	624	
13	0	0	0	0	483	624	
14	0	0	0	0	486	624	
15	0	0	0	0	487	624	
0	0	0	0	0	489	624	
1	0	0	0	0	489	624	
2	0	0	0	0	490	625	
3	0	0	0	0	489	625	
4	0	0	0	0	489	624	
5	0	0	0	0	488	625	
6	0	0	0	0	488	624	
7	0	0	0	0	487	625	
8	0	0	0	0	487	624	
9	0	0	0	0	488	624	
10	0	0	0	0	488	624	
11	0	0	0	0	489	624	
12	0	0	0	0	491	624	
13	0	0	0	0	493	624	
14	0	0	0	0	495	624	
15	0	0	0	0	497	624	
0	0	0	0	0	498	624	
1	0	0	0	0	499	624	
2	0	0	0	0	500	624	
3	0	0	0	0	501	624	
4	0	0	0	0	501	624	
5	0	0	0	0	500	624	
6	0	0	0	0	499	624	
7	0	0	0	0	498	624	
8	0	0	0	0	496	624	
9	0	0	0	0	495	624	
10	0	0	0	0	495	624	
11	0	0	0	0	495	624	
12	0	0	0	0	494	623	
13	0	0	0	0	495	624	
14	0	0	0	0	495	623	
15	0	0	0	0	496	624	
0	0	0	0	0	498	624	
1	0	0	0	0	500	624	
2	0	0	0	0	504	624	
3	0	0	0	0	506	624	
4	0	0	0	0	508	624	
5	0	0	0	0	511	624	
6	0	0	0	0	512	624	
7	0	0	0	0	512	624	
8	0	0	0	0	512	623	
9	0	0	0	0	511	623	
10	0	0	0	0	510	624	
11	0	0	0	0	508	623	
12	0	0	0	0	508	623	
13	0	0	0	0	506	623	
14	0	0	0	0	503	623	
15	0	0	0	0	501	623	
0	0	0	0	0	498	623	
1	0	0	0	0	496	623	
2	0	0	0	0	495	623	
3	0	0	0	0	493	623	
4	0	0	0	0	494	623	
5	0	0	0	0	494	623	
6	0	0	0	0	496	623	
7	0	0	0	0	496	623	
8	0	0	0	0	496	623	
9	0	0	0	0	496	623	
10	0	0	0	0	495	624	
11	0	0	0	0	494	623	
12	0	0	0	0	492	623	
13	0	0	0	0	489	623	
14	0	0	0	0	487	623	
15	0	0	0	0	485	623	
0	0	0	0	0	482	623	
1	0	0	0	0	479	623	
2	0	0	0	0	476	623	
3	0	0	0	0	473	623	
4	0	0	0	0	471	623	
5	0	0	0	0	470	624	
6	0	0	0	0	467	623	
7	0	0	0	0	466	623	
8	0	0	0	0	465	623	
9	0	0	0	0	465	623	
10	0	0	0	0	466	624	
11	0	0	0	0	467	623	
12	0	0	0	0	467	623	
13	0	0	0	0	469	624	
14	0	0	0	0	469	623	
15	0	0	0	0	469	623	
0	0	0	0	0	468	624	
1	0	0	0	0	467	623	
2	0	0	0	0	465	624	
3	0	0	0	0	463	623	
4	0	0	0	0	462	624	
5	0	0	0	0	460	624	
6	0	0	0	0	457	624	
7	0	0	0	0	456	624	
8	0	0	0	0	456	624	
9	0	0	0	0	456	624	
10	0	0	0	0	456	624	
11	0	0	0	0	456	624	
12	0	0	0	0	457	624	
13	0	0	0	0	457	623	
14	0	0	0	0	458	623	
15	0	0	0	0	460	623	
0	0	0	0	0	461	624	
1	0	0	0	0	463	623	
2	0	0	0	0	464	624	
3	0	0	0	0	466	623	
4	0	0	0	0	467	623	
5	0	0	0	0	466	623	
6	0	0	0	0	465	623	
7	0	0	0	0	464	623	
8	0	0	0	0	463	623	
9	0	0	0	0	461	623	
10	0	0	0	0	460	624	
11	0	0	0	0	460	624	
12	0	0	0	0	459	623	
13	0	0	0	0	460	623	
14	0	0	0	0	460	624	
15	0	0	0	0	461	623	
0	0	0	0	0	463	623	
1	0	0	0	0	464	624	
2	0	0	0	0	466	624	
3	0	0	0	0	468	624	
4	0	0	0	0	471	623	
5	0	0	0	0	473	624	
6	0	0	0	0	476	623	
7	0	0	0	0	477	623	
8	0	0	0	0	478	624	
9	0	0	0	0	477	624	
10	0	0	0	0	475	624	
11	0	0	0	0	473	623	
12	0	0	0	0	471	623	
13	0	0	0	0	468	624	
14	0	0	0	0	467	623	
15	0	0	0	0	465	624	
0	0	0	0	0	465	624	
1	0	0	0	0	465	624	
2	0	0	0	0	465	624	
3	0	0	0	0	466	624	
4	0	0	0	0	467	623	
5	0	0	0	0	468	623	
6	0	0	0	0	470	623	
7	0	0	0	0	472	623	
8	0	0	0	0	474	623	
9	0	0	0	0	476	624	
10	0	0	0	0	477	623	
11	0	0	0	0	478	623	
12	0	0	0	0	478	624	
13	0	0	0	0	478	623	
14	0	0	0	0	477	623	
15	0	0	0	0	477	623	
0	0	0	0	0	477	624	
1	0	0	0	0	476	623	
2	0	0	0	0	474	623	
3	0	0	0	0	474	623	
4	0	0	0	0	473	623	
5	0	0	0	0	473	623	
6	0	0	0	0	474	623	
7	0	0	0	0	475	623	
8	0	0	0	0	476	623	
9	0	0	0	0	477	623	
10	0	0	0	0	478	623	
11	0	0	0	0	480	623	
12	0	0	0	0	482	622	
13	0	0	0	0	484	623	
14	0	0	0	0	485	622	
15	0	0	0	0	486	622	
0	0	0	0	0	485	622	
1	0	0	0	0	484	622	
2	0	0	0	0	483	623	
3	0	0	0	0	481	622	
4	0	0	0	0	479	622	
5	0	0	0	0	478	622	
6	0	0	0	0	477	621	
7	0	0	0	0	476	622	
8	0	0	0	0	474	622	
9	0	0	0	0	473	622	
10	0	0	0	0	473	622	
11	0	0	0	0	473	621	
12	0	0	0	0	475	621	
13	0	0	0	0	476	621	
14	0	0	0	0	478	621	
15	0	0	0	0	481	622	
0	0	0	0	0	483	622	
1	0	0	0	0	485	622	
2	0	0	0	0	486	622	
3	0	0	0	0	487	622	
4	0	0	0	0	487	622	
5	0	0	0	0	487	622	
6	0	0	0	0	485	622	
7	0	0	0	0	483	621	
8	0	0	0	0	482	622	
9	0	0	0	0	481	621	
10	0	0	0	0	480	622	
11	0	0	0	0	479	622	
12	0	0	0	0	478	622	
13	0	0	0	0	478	622	
14	0	0	0	0	478	623	
15	0	0	0	0	478	623	
0	0	0	0	0	480	623	
1	0	0	0	0	481	623	
2	0	0	0	0	483	623	
3	0	0	0	0	484	622	
4	0	0	0	0	485	622	
5	0	0	0	0	487	623	
6	0	0	0	0	487	623	
7	0	0	0	0	487	623	
8	0	0	0	0	487	624	
9	0	0	0	0	487	623	
10	0	0	0	0	485	624	
11	0	0	0	0	483	624	
12	0	0	0	0	481	623	
13	0	0	0	0	481	624	
14	0	0	0	0	480	624	
15	0	0	0	0	478	624	
0	0	0	0	0	478	624	
1	0	0	0	0	478	624	
2	0	0	0	0	478	624	
3	0	0	0	0	479	624	
4	0	0	0	0	480	624	
5	0	0	0	0	482	624	
6	0	0	0	0	484	624	
7	0	0	0	0	486	624	
8	0	0	0	0	487	624	
9	0	0	0	0	488	624	
10	0	0	0	0	489	624	
11	0	0	0	0	489	624	
12	0	0	0	0	489	624	
13	0	0	0	0	489	624	
14	0	0	0	0	488	623	
15	0	0	0	0	486	623	
0	0	0	0	0	484	623	
1	0	0	0	0	482	624	
2	0	0	0	0	480	624	
3	0	0	0	0	480	623	
4	0	0	0	0	479	623	
5	0	0	0	0	479	624	
6	0	0	0	0	479	623	
7	0	0	0	0	480	624	
8	0	0	0	0	481	623	
9	0	0	0	0	483	623	
10	0	0	0	0	485	623	
11	0	0	0	0	487	623	
12	0	0	0	0	489	623	
13	0	0	0	0	490	623	
14	0	0	0	0	491	622	
15	0	0	0	0	491	623	
0	0	0	0	0	490	622	
1	0	0	0	0	489	622	
2	0	0	0	0	487	623	
3	0	0	0	0	486	622	
4	0	0	0	0	485	622	
5	0	0	0	0	483	621	
6	0	0	0	0	481	621	
7	0	0	0	0	480	622	
8	0	0	0	0	480	622	
9	0	0	0	0	480	622	
10	0	0	0	0	480	622	
11	0	0	0	0	481	621	
12	0	0	0	0	483	622	
13	0	0	0	0	485	622	
14	0	0	0	0	487	622	
15	0	0	0	0	490	622	
0	0	0	0	0	492	622	
1	0	0	0	0	495	622	
2	0	0	0	0	496	622	
3	0	0	0	0	496	622	
4	0	0	0	0	496	622	
5	0	0	0	0	494	622	
6	0	0	0	0	494	622	
7	0	0	0	0	492	623	
8	0	0	0	0	491	623	
9	0	0	0	0	490	622	
10	0	0	0	0	488	622	
11	0	0	0	0	488	622	
12	0	0	0	0	488	622	
13	0	0	0	0	489	623	
14	0	0	0	0	489	622	
15	0	0	0	0	490	623	
0	0	0	0	0	492	623	
1	0	0	0	0	494	623	
2	0	0	0	0	495	624	
3	0	0	0	0	496	624	
4	0	0	0	0	497	624	
5	0	0	0	0	498	624	
6	0	0	0	0	499	624	
7	0	0	0	0	500	624	
8	0	0	0	0	499	624	
9	0	0	0	0	497	624	
10	0	0	0	0	496	624	
11	0	0	0	0	493	624	
12	0	0	0	0	491	624	
13	0	0	0	0	488	624	
14	0	0	0	0	486	624	
15	0	0	0	0	486	624	
0	0	0	0	0	485	624	
1	0	0	0	0	485	625	
2	0	0	0	0	486	625	
3	0	0	0	0	487	624	
4	0	0	0	0	489	625	
5	0	0	0	0	491	625	
6	0	0	0	0	494	624	
7	0	0	0	0	496	625	
8	0	0	0	0	498	624	
9	0	0	0	0	500	625	
10	0	0	0	0	502	625	
11	0	0	0	0	502	624	
12	0	0	0	0	502	624	
13	0	0	0	0	502	625	
14	0	0	0	0	501	625	
15	0	0	0	0	499	624	
0	0	0	0	0	498	624	
1	0	0	0	0	497	624	
2	0	0	0	0	496	624	
3	0	0	0	0	494	624	
4	0	0	0	0	494	624	
5	0	0	0	0	494	623	
6	0	0	0	0	493	623	
7	0	0	0	0	493	623	
8	0	0	0	0	495	623	
9	0	0	0	0	496	622	
10	0	0	0	0	499	624	
11	0	0	0	0	502	623	
12	0	0	0	0	503	623	
13	0	0	0	0	504	623	
14	0	0	0	0	504	623	
15	0	0	0	0	504	622	
0	0	0	0	0	504	622	
1	0	0	0	0	503	622	
2	0	0	0	0	501	622	
3	0	0	0	0	499	622	
4	0	0	0	0	497	621	
5	0	0	0	0	496	621	
6	0	0	0	0	495	621	
7	0	0	0	0	495	621	
8	0	0	0	0	494	621	
9	0	0	0	0	494	621	
10	0	0	0	0	494	622	
11	0	0	0	0	494	622	
12	0	0	0	0	495	622	
13	0	0	0	0	496	622	
14	0	0	0	0	499	622	
15	0	0	0	0	501	622	
0	0	0	0	0	503	622	
1	0	0	0	0	505	622	
2	0	0	0	0	507	623	
3	0	0	0	0	507	623	
4	0	0	0	0	506	623	
5	0	0	0	0	505	622	
6	0	0	0	0	504	623	
7	0	0	0	0	501	624	
8	0	0	0	0	499	623	
9	0	0	0	0	498	624	
10	0	0	0	0	496	624	
11	0	0	0	0	496	624	
12	0	0	0	0	495	624	
13	0	0	0	0	494	624	
14	0	0	0	0	494	624	
15	0	0	0	0	494	624	
0	0	0	0	0	496	625	
1	0	0	0	0	497	624	
2	0	0	0	0	498	624	
3	0	0	0	0	499	624	
4	0	0	0	0	501	624	
5	0	0	0	0	503	625	
6	0	0	0	0	504	624	
7	0	0	0	0	504	625	
8	0	0	0	0	504	624	
9	0	0	0	0	504	624	
10	0	0	0	0	504	625	
11	0	0	0	0	503	624	
12	0	0	0	0	502	624	
13	0	0	0	0	501	625	
14	0	0	0	0	499	625	
15	0	0	0	0	498	624	
0	0	0	0	0	498	625	
1	0	0	0	0	498	624	
2	0	0	0	0	497	624	
3	0	0	0	0	498	624	
4	0	0	0	0	499	625	
5	0	0	0	0	500	625	
6	0	0	0	0	501	625	
7	0	0	0	0	503	625	
8	0	0	0	0	504	625	
9	0	0	0	0	505	625	
10	0	0	0	0	505	626	
11	0	0	0	0	506	626	
12	0	0	0	0	506	625	
13	0	0	0	0	505	625	
14	0	0	0	0	504	625	
15	0	0	0	0	502	624	
0	0	0	0	0	501	625	
1	0	0	0	0	499	625	
2	0	0	0	0	497	625	
3	0	0	0	0	497	625	
4	0	0	0	0	496	624	
5	0	0	0	0	496	624	
6	0	0	0	0	496	624	
7	0	0	0	0	497	624	
8	0	0	0	0	499	624	
9	0	0	0	0	501	624	
10	0	0	0	0	503	624	
11	0	0	0	0	505	624	
12	0	0	0	0	506	624	
13	0	0	0	0	508	624	
14	0	0	0	0	508	624	
15	0	0	0	0	508	623	
0	0	0	0	0	507	623	
1	0	0	0	0	506	623	
2	0	0	0	0	505	624	
3	0	0	0	0	504	623	
4	0	0	0	0	502	623	
5	0	0	0	0	500	623	
6	0	0	0	0	499	622	
7	0	0	0	0	497	623	
8	0	0	0	0	497	623	
9	0	0	0	0	497	623	
10	0	0	0	0	497	624	
11	0	0	0	0	498	623	
12	0	0	0	0	500	623	
13	0	0	0	0	502	623	
14	0	0	0	0	504	624	
15	0	0	0	0	506	623	
0	0	0	0	0	508	623	
1	0	0	0	0	508	623	
2	0	0	0	0	509	623	
3	0	0	0	0	509	623	
4	0	0	0	0	509	622	
5	0	0	0	0	508	621	
6	0	0	0	0	507	621	
7	0	0	0	0	505	620	
8	0	0	0	0	504	620	
9	0	0	0	0	501	620	
10	0	0	0	0	499	620	
11	0	0	0	0	497	620	
12	0	0	0	0	496	620	
13	0	0	0	0	495	620	
14	0	0	0	0	494	621	
15	0	0	0	0	494	620	
0	0	0	0	0	496	622	
1	0	0	0	0	496	622	
2	0	0	0	0	497	622	
3	0	0	0	0	497	622	
4	0	0	0	0	498	623	
5	0	0	0	0	498	624	
6	0	0	0	0	497	624	
7	0	0	0	0	497	624	
8	0	0	0	0	496	624	
9	0	0	0	0	495	624	
10	0	0	0	0	492	625	
11	0	0	0	0	491	625	
12	0	0	0	0	487	624	
13	0	0	0	0	487	624	
14	0	0	0	0	484	624	
15	0	0	0	0	483	624	
0	0	0	0	0	481	624	
1	0	0	0	0	480	623	
2	0	0	0	0	480	624	
3	0	0	0	0	479	623	
4	0	0	0	0	481	623	
5	0	0	0	0	482	623	
6	0	0	0	0	483	623	
7	0	0	0	0	485	623	
8	0	0	0	0	487	623	
9	0	0	0	0	487	624	
10	0	0	0	0	489	624	
11	0	0	0	0	491	623	
12	0	0	0	0	490	624	
13	0	0	0	0	489	623	
14	0	0	0	0	489	623	
15	0	0	0	0	488	623	
0	0	0	0	0	487	623	
1	0	0	0	0	486	623	
2	0	0	0	0	484	623	
3	0	0	0	0	484	623	
4	0	0	0	0	483	623	
5	0	0	0	0	483	623	
6	0	0	0	0	482	624	
7	0	0	0	0	481	624	
8	0	0	0	0	480	624	
9	0	0	0	0	478	624	
10	0	0	0	0	475	624	
11	0	0	0	0	473	625	
12	0	0	0	0	471	625	
13	0	0	0	0	468	625	
14	0	0	0	0	464	625	
15	0	0	0	0	461	625	
0	0	0	0	0	458	625	
1	0	0	0	0	455	625	
2	0	0	0	0	453	625	
3	0	0	0	0	451	624	
4	0	0	0	0	449	624	
5	0	0	0	0	446	624	
6	0	0	0	0	442	624	
7	0	0	0	0	441	624	
8	0	0	0	0	443	624	
9	0	0	0	0	447	624	
10	0	0	0	0	453	623	
11	0	0	0	0	463	624	
12	0	0	0	0	478	624	
13	0	0	0	0	495	624	
14	0	0	0	0	517	624	
15	0	0	0	0	541	624	
0	0	0	0	0	566	624	
1	0	0	0	0	595	624	
2	0	0	0	0	627	624	
3	0	0	0	0	660	624	
4	0	0	0	0	696	624	
5	0	0	0	0	731	624	
6	0	0	0	0	766	624	
7	0	0	0	0	802	624	
8	0	0	0	0	836	623	
9	0	0	0	0	864	623	
10	0	0	0	0	885	624	
11	0	0	0	0	904	624	
12	0	0	0	0	922	623	
13	0	0	0	0	935	624	
14	0	0	0	0	941	623	
15	0	0	0	0	945	624	
0	0	0	0	0	946	623	
1	0	0	0	0	945	623	
2	0	0	0	0	940	623	
3	0	0	0	0	932	623	
4	0	0	0	0	921	623	
5	0	0	0	0	903	623	
6	0	0	0	0	880	622	
7	0	0	0	0	852	623	
8	0	0	0	0	820	623	
9	0	0	0	0	783	623	
10	0	0	0	0	745	623	
11	0	0	0	0	704	623	
12	0	0	0	0	664	622	
13	0	0	0	0	625	622	
14	0	0	0	0	588	623	
15	0	0	0	0	553	623	
0	0	0	0	0	524	623	
1	0	0	0	0	496	622	
2	0	0	0	0	472	622	
3	0	0	0	0	453	622	
4	0	0	0	0	439	623	
5	0	0	0	0	427	622	
6	0	0	0	0	419	622	
7	0	0	0	0	411	622	
8	0	0	0	0	406	622	
9	0	0	0	0	403	622	
10	0	0	0	0	399	622	
11	0	0	0	0	396	622	
12	0	0	0	0	393	622	
13	0	0	0	0	390	621	
14	0	0	0	0	387	622	
15	0	0	0	0	385	623	
0	0	0	0	0	383	622	
1	0	0	0	0	380	623	
2	0	0	0	0	379	623	
3	0	0	0	0	378	623	
4	0	0	0	0	378	623	
5	0	0	0	0	378	623	
6	0	0	0	0	377	624	
7	0	0	0	0	378	624	
8	0	0	0	0	379	624	
9	0	0	0	0	380	624	
10	0	0	0	0	382	623	
11	0	0	0	0	385	623	
12	0	0	0	0	388	623	
13	0	0	0	0	390	622	
14	0	0	0	0	391	623	
15	0	0	0	0	391	623	
0	0	0	0	0	391	623	
1	0	0	0	0	391	622	
2	0	0	0	0	391	622	
3	0	0	0	0	390	623	
4	0	0	0	0	390	623	
5	0	0	0	0	388	623	
6	0	0	0	0	387	623	
7	0	0	0	0	386	623	
8	0	0	0	0	386	623	
9	0	0	0	0	387	623	
10	0	0	0	0	388	623	
11	0	0	0	0	390	623	
12	0	0	0	0	393	623	
13	0	0	0	0	395	623	
14	0	0	0	0	398	623	
15	0	0	0	0	400	623	
0	0	0	0	0	402	623	
1	0	0	0	0	405	624	
2	0	0	0	0	407	623	
3	0	0	0	0	409	623	
4	0	0	0	0	411	623	
5	0	0	0	0	413	623	
6	0	0	0	0	414	623	
7	0	0	0	0	414	623	
8	0	0	0	0	414	623	
9	0	0	0	0	415	624	
10	0	0	0	0	415	624	
11	0	0	0	0	416	625	
12	0	0	0	0	416	624	
13	0	0	0	0	418	625	
14	0	0	0	0	419	625	
15	0	0	0	0	420	624	
0	0	0	0	0	424	625	
1	0	0	0	0	427	625	
2	0	0	0	0	430	626	
3	0	0	0	0	433	625	
4	0	0	0	0	436	625	
5	0	0	0	0	439	625	
6	0	0	0	0	440	625	
7	0	0	0	0	441	625	
8	0	0	0	0	441	625	
9	0	0	0	0	441	624	
10	0	0	0	0	440	624	
11	0	0	0	0	439	624	
12	0	0	0	0	437	624	
13	0	0	0	0	435	623	
14	0	0	0	0	433	622	
15	0	0	0	0	433	624	
0	0	0	0	0	433	623	
1	0	0	0	0	433	623	
2	0	0	0	0	433	623	
3	0	0	0	0	434	622	
4	0	0	0	0	435	623	
5	0	0	0	0	436	622	
6	0	0	0	0	438	622	
7	0	0	0	0	439	622	
8	0	0	0	0	440	622	
9	0	0	0	0	442	622	
10	0	0	0	0	444	623	
11	0	0	0	0	445	623	
12	0	0	0	0	444	622	
13	0	0	0	0	442	622	
14	0	0	0	0	442	623	
15	0	0	0	0	439	623	
0	0	0	0	0	437	622	
1	0	0	0	0	436	622	
2	0	0	0	0	435	624	
3	0	0	0	0	435	624	
4	0	0	0	0	435	624	
5	0	0	0	0	435	624	
6	0	0	0	0	436	624	
7	0	0	0	0	437	624	
8	0	0	0	0	440	624	
9	0	0	0	0	442	624	
10	0	0	0	0	444	624	
11	0	0	0	0	448	624	
12	0	0	0	0	450	624	
13	0	0	0	0	452	624	
14	0	0	0	0	454	624	
15	0	0	0	0	455	624	
0	0	0	0	0	455	624	
1	0	0	0	0	455	624	
2	0	0	0	0	455	625	
3	0	0	0	0	455	624	
4	0	0	0	0	455	624	
5	0	0	0	0	455	624	
6	0	0	0	0	455	624	
7	0	0	0	0	455	625	
8	0	0	0	0	456	624	
9	0	0	0	0	457	625	
10	0	0	0	0	457	625	
11	0	0	0	0	459	624	
12	0	0	0	0	462	625	
13	0	0	0	0	464	624	
14	0	0	0	0	468	624	
15	0	0	0	0	472	624	
0	0	0	0	0	474	624	
1	0	0	0	0	477	624	
2	0	0	0	0	480	624	
3	0	0	0	0	481	624	
4	0	0	0	0	481	623	
5	0	0	0	0	481	623	
6	0	0	0	0	480	624	
7	0	0	0	0	480	624	
8	0	0	0	0	479	624	
9	0	0	0	0	479	624	
10	0	0	0	0	478	624	
11	0	0	0	0	478	624	
12	0	0	0	0	479	623	
13	0	0	0	0	479	624	
14	0	0	0	0	480	624	
15	0	0	0	0	481	624	
0	0	0	0	0	483	623	
1	0	0	0	0	485	623	
2	0	0	0	0	488	623	
3	0	0	0	0	491	623	
4	0	0	0	0	493	623	
5	0	0	0	0	495	623	
6	0	0	0	0	497	623	
7	0	0	0	0	498	624	
8	0	0	0	0	499	624	
9	0	0	0	0	498	624	
10	0	0	0	0	496	624	
11	0	0	0	0	497	624	
12	0	0	0	0	496	624	
13	0	0	0	0	494	625	
14	0	0	0	0	494	624	
15	0	0	0	0	493	624	
0	0	0	0	0	493	624	
1	0	0	0	0	493	624	
2	0	0	0	0	494	624	
3	0	0	0	0	494	623	
4	0	0	0	0	496	624	
5	0	0	0	0	497	624	
6	0	0	0	0	499	623	
7	0	0	0	0	502	624	
8	0	0	0	0	504	624	
9	0	0	0	0	505	625	
10	0	0	0	0	506	624	
11	0	0	0	0	507	624	
12	0	0	0	0	508	625	
13	0	0	0	0	507	624	
14	0	0	0	0	506	625	
15	0	0	0	0	504	625	
0	0	0	0	0	504	624	
1	0	0	0	0	504	624	
2	0	0	0	0	504	624	
3	0	0	0	0	506	625	
4	0	0	0	0	509	625	
5	0	0	0	0	512	624	
6	0	0	0	0	513	624	
7	0	0	0	0	516	624	
8	0	0	0	0	517	624	
9	0	0	0	0	519	624	
10	0	0	0	0	522	624	
11	0	0	0	0	525	624	
12	0	0	0	0	527	625	
13	0	0	0	0	528	625	
14	0	0	0	0	529	625	
15	0	0	0	0	531	624	
0	0	0	0	0	531	624	
1	0	0	0	0	530	624	
2	0	0	0	0	529	624	
3	0	0	0	0	528	624	
4	0	0	0	0	528	624	
5	0	0	0	0	527	623	
6	0	0	0	0	526	623	
7	0	0	0	0	526	623	
8	0	0	0	0	526	623	
9	0	0	0	0	526	623	
10	0	0	0	0	526	624	
11	0	0	0	0	527	623	
12	0	0	0	0	527	623	
13	0	0	0	0	529	623	
14	0	0	0	0	531	623	
15	0	0	0	0	533	623	
0	0	0	0	0	535	622	
1	0	0	0	0	537	623	
2	0	0	0	0	536	623	
3	0	0	0	0	536	623	
4	0	0	0	0	537	623	
5	0	0	0	0	537	623	
6	0	0	0	0	536	622	
7	0	0	0	0	534	622	
8	0	0	0	0	532	623	
9	0	0	0	0	531	622	
10	0	0	0	0	531	622	
11	0	0	0	0	531	622	
12	0	0	0	0	531	622	
13	0	0	0	0	530	622	
14	0	0	0	0	530	622	
15	0	0	0	0	530	622	
0	0	0	0	0	531	622	
1	0	0	0	0	532	622	
2	0	0	0	0	534	622	
3	0	0	0	0	536	622	
4	0	0	0	0	537	623	
5	0	0	0	0	537	622	
6	0	0	0	0	537	622	
7	0	0	0	0	536	622	
8	0	0	0	0	534	622	
9	0	0	0	0	533	623	
10	0	0	0	0	530	623	
11	0	0	0	0	526	623	
12	0	0	0	0	524	622	
13	0	0	0	0	521	623	
14	0	0	0	0	517	622	
15	0	0	0	0	514	623	
0	0	0	0	0	513	623	
1	0	0	0	0	511	623	
2	0	0	0	0	510	624	
3	0	0	0	0	508	623	
4	0	0	0	0	507	624	
5	0	0	0	0	507	623	
6	0	0	0	0	508	623	
7	0	0	0	0	508	623	
8	0	0	0	0	507	622	
9	0	0	0	0	507	623	
10	0	0	0	0	506	623	
11	0	0	0	0	505	622	
12	0	0	0	0	504	623	
13	0	0	0	0	502	623	
14	0	0	0	0	500	623	
15	0	0	0	0	498	623	
0	0	0	0	0	495	623	
1	0	0	0	0	492	623	
2	0	0	0	0	490	623	
3	0	0	0	0	488	623	
4	0	0	0	0	487	623	
5	0	0	0	0	487	623	
6	0	0	0	0	486	623	
7	0	0	0	0	487	623	
8	0	0	0	0	488	623	
9	0	0	0	0	489	623	
10	0	0	0	0	490	623	
11	0	0	0	0	492	623	
12	0	0	0	0	493	623	
13	0	0	0	0	495	623	
14	0	0	0	0	497	622	
15	0	0	0	0	497	622	
0	0	0	0	0	496	622	
1	0	0	0	0	494	622	
2	0	0	0	0	493	622	
3	0	0	0	0	492	622	
4	0	0	0	0	490	622	
5	0	0	0	0	487	621	
6	0	0	0	0	485	622	
7	0	0	0	0	484	621	
8	0	0	0	0	483	622	
9	0	0	0	0	482	622	
10	0	0	0	0	482	622	
11	0	0	0	0	482	621	
12	0	0	0	0	483	621	
13	0	0	0	0	485	622	
14	0	0	0	0	487	621	
15	0	0	0	0	488	622	
0	0	0	0	0	489	621	
1	0	0	0	0	490	621	
2	0	0	0	0	491	622	
3	0	0	0	0	490	622	
4	0	0	0	0	489	622	
5	0	0	0	0	487	621	
6	0	0	0	0	486	622	
7	0	0	0	0	484	621	
8	0	0	0	0	481	622	
9	0	0	0	0	479	622	
10	0	0	0	0	476	622	
11	0	0	0	0	475	622	
12	0	0	0	0	475	623	
13	0	0	0	0	474	622	
14	0	0	0	0	474	623	
15	0	0	0	0	473	622	
0	0	0	0	0	472	622	
1	0	0	0	0	473	622	
2	0	0	0	0	474	622	
3	0	0	0	0	475	622	
4	0	0	0	0	476	622	
5	0	0	0	0	477	622	
6	0	0	0	0	477	622	
7	0	0	0	0	476	622	
8	0	0	0	0	475	622	
9	0	0	0	0	472	622	
10	0	0	0	0	470	622	
11	0	0	0	0	467	622	
12	0	0	0	0	465	622	
13	0	0	0	0	463	623	
14	0	0	0	0	461	622	
15	0	0	0	0	458	623	
0	0	0	0	0	456	623	
1	0	0	0	0	456	622	
2	0	0	0	0	456	623	
3	0	0	0	0	456	622	
4	0	0	0	0	457	622	
5	0	0	0	0	457	622	
6	0	0	0	0	459	623	
7	0	0	0	0	460	622	
8	0	0	0	0	461	623	
9	0	0	0	0	462	623	
10	0	0	0	0	461	623	
11	0	0	0	0	462	623	
12	0	0	0	0	462	623	
13	0	0	0	0	460	623	
14	0	0	0	0	459	622	
15	0	0	0	0	457	622	
0	0	0	0	0	455	622	
1	0	0	0	0	453	622	
2	0	0	0	0	451	623	
3	0	0	0	0	451	623	
4	0	0	0	0	451	622	
5	0	0	0	0	451	623	
6	0	0	0	0	451	623	
7	0	0	0	0	451	623	
8	0	0	0	0	452	622	
9	0	0	0	0	455	622	
10	0	0	0	0	456	622	
11	0	0	0	0	458	622	
12	0	0	0	0	459	622	
13	0	0	0	0	460	622	
14	0	0	0	0	460	623	
15	0	0	0	0	459	623	
0	0	0	0	0	459	623	
1	0	0	0	0	457	623	
2	0	0	0	0	456	623	
3	0	0	0	0	454	622	
4	0	0	0	0	453	623	
5	0	0	0	0	451	623	
6	0	0	0	0	449	623	
7	0	0	0	0	447	623	
8	0	0	0	0	447	623	
9	0	0	0	0	447	623	
10	0	0	0	0	447	623	
11	0	0	0	0	449	622	
12	0	0	0	0	450	623	
13	0	0	0	0	452	623	
14	0	0	0	0	455	623	
15	0	0	0	0	457	623	
0	0	0	0	0	459	623	
1	0	0	0	0	460	623	
2	0	0	0	0	461	623	
3	0	0	0	0	462	623	
4	0	0	0	0	462	622	
5	0	0	0	0	462	623	
6	0	0	0	0	462	623	
7	0	0	0	0	460	623	
8	0	0	0	0	459	623	
9	0	0	0	0	459	623	
10	0	0	0	0	458	623	
11	0	0	0	0	456	623	
12	0	0	0	0	456	623	
13	0	0	0	0	457	623	
14	0	0	0	0	458	624	
15	0	0	0	0	459	624	
0	0	0	0	0	460	624	
1	0	0	0	0	462	624	
2	0	0	0	0	465	624	
3	0	0	0	0	469	624	
4	0	0	0	0	471	624	
5	0	0	0	0	472	624	
6	0	0	0	0	472	624	
7	0	0	0	0	471	624	
8	0	0	0	0	470	624	
9	0	0	0	0	467	624	
10	0	0	0	0	466	625	
11	0	0	0	0	465	625	
12	0	0	0	0	463	625	
13	0	0	0	0	461	625	
14	0	0	0	0	460	625	
15	0	0	0	0	459	625	
0	0	0	0	0	458	625	
1	0	0	0	0	457	625	
2	0	0	0	0	456	625	
3	0	0	0	0	458	624	
4	0	0	0	0	460	625	
5	0	0	0	0	462	625	
6	0	0	0	0	463	625	
7	0	0	0	0	465	625	
8	0	0	0	0	468	625	
9	0	0	0	0	470	626	
10	0	0	0	0	471	626	
11	0	0	0	0	471	625	
12	0	0	0	0	470	626	
13	0	0	0	0	468	626	
14	0	0	0	0	465	626	
15	0	0	0	0	464	626	
0	0	0	0	0	462	626	
1	0	0	0	0	460	625	
2	0	0	0	0	460	626	
3	0	0	0	0	459	626	
4	0	0	0	0	457	625	
5	0	0	0	0	458	626	
6	0	0	0	0	459	626	
7	0	0	0	0	460	626	
8	0	0	0	0	462	627	
9	0	0	0	0	463	626	
10	0	0	0	0	465	627	
11	0	0	0	0	468	626	
12	0	0	0	0	469	627	
13	0	0	0	0	470	627	
14	0	0	0	0	470	627	
15	0	0	0	0	470	627	
0	0	0	0	0	470	627	
1	0	0	0	0	468	628	
2	0	0	0	0	467	628	
3	0	0	0	0	465	628	
4	0	0	0	0	464	628	
5	0	0	0	0	460	629	
6	0	0	0	0	458	628	
7	0	0	0	0	457	629	
8	0	0	0	0	456	628	
9	0	0	0	0	457	629	
10	0	0	0	0	457	629	
11	0	0	0	0	458	629	
12	0	0	0	0	460	629	
13	0	0	0	0	462	630	
14	0	0	0	0	464	630	
15	0	0	0	0	465	630	
0	0	0	0	0	467	630	
1	0	0	0	0	469	629	
2	0	0	0	0	470	631	
3	0	0	0	0	470	630	
4	0	0	0	0	468	630	
5	0	0	0	0	466	630	
6	0	0	0	0	464	630	
7	0	0	0	0	462	629	
8	0	0	0	0	460	630	
9	0	0	0	0	458	630	
10	0	0	0	0	456	630	
11	0	0	0	0	456	630	
12	0	0	0	0	455	630	
13	0	0	0	0	454	630	
14	0	0	0	0	454	629	
15	0	0	0	0	454	629	
0	0	0	0	0	455	629	
1	0	0	0	0	456	628	
2	0	0	0	0	458	629	
3	0	0	0	0	460	628	
4	0	0	0	0	463	628	
5	0	0	0	0	465	628	
6	0	0	0	0	466	628	
7	0	0	0	0	467	628	
8	0	0	0	0	466	628	
9	0	0	0	0	465	628	
10	0	0	0	0	463	628	
11	0	0	0	0	461	627	
12	0	0	0	0	460	628	
13	0	0	0	0	457	628	
14	0	0	0	0	456	628	
15	0	0	0	0	456	628	
0	0	0	0	0	456	628	
1	0	0	0	0	457	627	
2	0	0	0	0	457	628	
3	0	0	0	0	457	627	
4	0	0	0	0	459	627	
5	0	0	0	0	461	628	
6	0	0	0	0	463	627	
7	0	0	0	0	465	628	
8	0	0	0	0	467	627	
9	0	0	0	0	469	628	
10	0	0	0	0	469	628	
11	0	0	0	0	469	627	
12	0	0	0	0	469	627	
13	0	0	0	0	470	627	
14	0	0	0	0	469	627	
15	0	0	0	0	468	627	
0	0	0	0	0	467	626	
1	0	0	0	0	466	626	
2	0	0	0	0	465	626	
3	0	0	0	0	464	626	
4	0	0	0	0	463	625	
5	0	0	0	0	464	625	
6	0	0	0	0	465	625	
7	0	0	0	0	466	624	
8	0	0	0	0	468	624	
9	0	0	0	0	472	625	
10	0	0	0	0	474	625	
11	0	0	0	0	475	624	
12	0	0	0	0	478	624	
13	0	0	0	0	481	625	
14	0	0	0	0	481	624	
15	0	0	0	0	482	625	
0	0	0	0	0	483	624	
1	0	0	0	0	481	624	
2	0	0	0	0	481	624	
3	0	0	0	0	479	624	
4	0	0	0	0	478	624	
5	0	0	0	0	477	624	
6	0	0	0	0	476	624	
7	0	0	0	0	475	624	
8	0	0	0	0	475	623	
9	0	0	0	0	475	623	
10	0	0	0	0	477	623	
11	0	0	0	0	479	623	
12	0	0	0	0	481	623	
13	0	0	0	0	483	622	
14	0	0	0	0	486	622	
15	0	0	0	0	488	621	
0	0	0	0	0	489	621	
1	0	0	0	0	492	622	
2	0	0	0	0	493	621	
3	0	0	0	0	494	621	
4	0	0	0	0	494	621	
5	0	0	0	0	493	620	
6	0	0	0	0	492	620	
7	0	0	0	0	489	620	
8	0	0	0	0	488	621	
9	0	0	0	0	488	620	
10	0	0	0	0	487	620	
11	0	0	0	0	486	621	
12	0	0	0	0	486	621	
13	0	0	0	0	486	620	
14	0	0	0	0	486	620	
15	0	0	0	0	487	620	
0	0	0	0	0	489	621	
1	0	0	0	0	491	620	
2	0	0	0	0	493	620	
3	0	0	0	0	495	620	
4	0	0	0	0	498	620	
5	0	0	0	0	499	620	
6	0	0	0	0	500	620	
7	0	0	0	0	501	620	
8	0	0	0	0	501	620	
9	0	0	0	0	499	619	
10	0	0	0	0	498	620	
11	0	0	0	0	497	619	
12	0	0	0	0	495	620	
13	0	0	0	0	494	619	
14	0	0	0	0	493	620	
15	0	0	0	0	492	620	
0	0	0	0	0	492	620	
1	0	0	0	0	493	620	
2	0	0	0	0	493	620	
3	0	0	0	0	496	620	
4	0	0	0	0	498	620	
5	0	0	0	0	500	620	
6	0	0	0	0	502	620	
7	0	0	0	0	505	620	
8	0	0	0	0	508	620	
9	0	0	0	0	511	621	
10	0	0	0	0	512	620	
11	0	0	0	0	513	620	
12	0	0	0	0	513	620	
13	0	0	0	0	512	620	
14	0	0	0	0	512	620	
15	0	0	0	0	511	619	
0	0	0	0	0	509	620	
1	0	0	0	0	509	620	
2	0	0	0	0	508	619	
3	0	0	0	0	507	619	
4	0	0	0	0	506	619	
5	0	0	0	0	507	619	
6	0	0	0	0	508	619	
7	0	0	0	0	510	619	
8	0	0	0	0	512	619	
9	0	0	0	0	513	619	
10	0	0	0	0	514	618	
11	0	0	0	0	516	618	
12	0	0	0	0	519	617	
13	0	0	0	0	521	619	
14	0	0	0	0	521	618	
15	0	0	0	0	522	619	
0	0	0	0	0	521	618	
1	0	0	0	0	520	618	
2	0	0	0	0	519	619	
3	0	0	0	0	516	618	
4	0	0	0	0	516	618	
5	0	0	0	0	516	618	
6	0	0	0	0	515	617	
7	0	0	0	0	514	619	
8	0	0	0	0	513	618	
9	0	0	0	0	512	618	
10	0	0	0	0	513	618	
11	0	0	0	0	513	617	
12	0	0	0	0	514	617	
13	0	0	0	0	515	617	
14	0	0	0	0	518	617	
15	0	0	0	0	519	617	
0	0	0	0	0	520	617	
1	0	0	0	0	520	617	
2	0	0	0	0	520	618	
3	0	0	0	0	520	618	
4	0	0	0	0	520	617	
5	0	0	0	0	518	618	
6	0	0	0	0	516	618	
7	0	0	0	0	514	618	
8	0	0	0	0	512	618	
9	0	0	0	0	510	618	
10	0	0	0	0	508	619	
11	0	0	0	0	507	619	
12	0	0	0	0	505	619	
13	0	0	0	0	504	619	
14	0	0	0	0	504	619	
15	0	0	0	0	505	619	
0	0	0	0	0	505	619	
1	0	0	0	0	507	619	
2	0	0	0	0	510	620	
3	0	0	0	0	512	619	
4	0	0	0	0	513	620	
5	0	0	0	0	515	620	
6	0	0	0	0	516	620	
7	0	0	0	0	516	620	
8	0	0	0	0	515	620	
9	0	0	0	0	514	621	
10	0	0	0	0	513	621	
11	0	0	0	0	511	620	
12	0	0	0	0	508	620	
13	0	0	0	0	505	620	
14	0	0	0	0	504	621	
15	0	0	0	0	504	621	
0	0	0	0	0	504	622	
1	0	0	0	0	504	621	
2	0	0	0	0	504	621	
3	0	0	0	0	505	622	
4	0	0	0	0	508	621	
5	0	0	0	0	509	621	
6	0	0	0	0	512	621	
7	0	0	0	0	513	622	
8	0	0	0	0	516	622	
9	0	0	0	0	518	622	
10	0	0	0	0	518	622	
11	0	0	0	0	518	622	
12	0	0	0	0	517	622	
13	0	0	0	0	516	623	
14	0	0	0	0	515	622	
15	0	0	0	0	513	623	
0	0	0	0	0	510	622	
1	0	0	0	0	508	623	
2	0	0	0	0	507	623	
3	0	0	0	0	505	624	
4	0	0	0	0	504	623	
5	0	0	0	0	503	623	
6	0	0	0	0	504	623	
7	0	0	0	0	504	623	
8	0	0	0	0	506	624	
9	0	0	0	0	508	623	
10	0	0	0	0	509	623	
11	0	0	0	0	509	623	
12	0	0	0	0	510	624	
13	0	0	0	0	511	624	
14	0	0	0	0	510	623	
15	0	0	0	0	509	624	
0	0	0	0	0	507	624	
1	0	0	0	0	504	624	
2	0	0	0	0	503	624	
3	0	0	0	0	499	624	
4	0	0	0	0	497	624	
5	0	0	0	0	494	624	
6	0	0	0	0	492	624	
7	0	0	0	0	489	624	
8	0	0	0	0	488	624	
9	0	0	0	0	487	624	
10	0	0	0	0	486	624	
11	0	0	0	0	486	624	
12	0	0	0	0	487	624	
13	0	0	0	0	489	624	
14	0	0	0	0	490	624	
15	0	0	0	0	490	624	
0	0	0	0	0	490	624	
1	0	0	0	0	489	624	
2	0	0	0	0	489	624	
3	0	0	0	0	488	624	
4	0	0	0	0	487	624	
5	0	0	0	0	484	624	
6	0	0	0	0	483	624	
7	0	0	0	0	481	624	
8	0	0	0	0	480	624	
9	0	0	0	0	477	624	
10	0	0	0	0	475	624	
11	0	0	0	0	473	624	
12	0	0	0	0	472	624	
13	0	0	0	0	471	624	
14	0	0	0	0	471	624	
15	0	0	0	0	471	624	
0	0	0	0	0	472	624	
1	0	0	0	0	474	624	
2	0	0	0	0	476	624	
3	0	0	0	0	479	624	
4	0	0	0	0	479	624	
5	0	0	0	0	480	623	
6	0	0	0	0	479	623	
7	0	0	0	0	479	623	
8	0	0	0	0	478	623	
9	0	0	0	0	476	623	
10	0	0	0	0	475	623	
11	0	0	0	0	473	623	
12	0	0	0	0	471	623	
13	0	0	0	0	470	623	
14	0	0	0	0	467	623	
15	0	0	0	0	467	623	
0	0	0	0	0	466	623	
1	0	0	0	0	467	623	
2	0	0	0	0	467	624	
3	0	0	0	0	467	622	
4	0	0	0	0	470	623	
5	0	0	0	0	472	622	
6	0	0	0	0	473	622	
7	0	0	0	0	473	622	
8	0	0	0	0	473	622	
9	0	0	0	0	474	623	
10	0	0	0	0	473	623	
11	0	0	0	0	468	622	
12	0	0	0	0	463	622	
13	0	0	0	0	455	622	
14	0	0	0	0	448	622	
15	0	0	0	0	442	622	
0	0	0	0	0	437	622	
1	0	0	0	0	432	622	
2	0	0	0	0	425	622	
3	0	0	0	0	421	622	
4	0	0	0	0	418	622	
5	0	0	0	0	415	622	
6	0	0	0	0	414	622	
7	0	0	0	0	413	622	
8	0	0	0	0	414	622	
9	0	0	0	0	416	622	
10	0	0	0	0	419	622	
11	0	0	0	0	423	622	
12	0	0	0	0	428	623	
13	0	0	0	0	435	624	
14	0	0	0	0	443	623	
15	0	0	0	0	455	622	
0	0	0	0	0	468	623	
1	0	0	0	0	486	623	
2	0	0	0	0	504	624	
3	0	0	0	0	525	623	
4	0	0	0	0	548	623	
5	0	0	0	0	576	623	
6	0	0	0	0	608	624	
7	0	0	0	0	642	623	
8	0	0	0	0	676	623	
9	0	0	0	0	711	623	
10	0	0	0	0	748	623	
11	0	0	0	0	782	623	
12	0	0	0	0	812	623	
13	0	0	0	0	833	623	
14	0	0	0	0	854	623	
15	0	0	0	0	872	623	
0	0	0	0	0	886	623	
1	0	0	0	0	892	624	
2	0	0	0	0	895	624	
3	0	0	0	0	893	624	
4	0	0	0	0	889	624	
5	0	0	0	0	880	623	
6	0	0	0	0	866	624	
7	0	0	0	0	850	624	
8	0	0	0	0	829	623	
9	0	0	0	0	803	624	
10	0	0	0	0	774	624	
11	0	0	0	0	743	624	
12	0	0	0	0	709	623	
13	0	0	0	0	674	623	
14	0	0	0	0	637	624	
15	0	0	0	0	600	624	
0	0	0	0	0	565	624	
1	0	0	0	0	533	624	
2	0	0	0	0	502	624	
3	0	0	0	0	478	624	
4	0	0	0	0	453	623	
5	0	0	0	0	433	624	
6	0	0	0	0	415	624	
7	0	0	0	0	400	624	
8	0	0	0	0	386	623	
9	0	0	0	0	375	623	
10	0	0	0	0	366	624	
11	0	0	0	0	357	623	
12	0	0	0	0	351	624	
13	0	0	0	0	344	624	
14	0	0	0	0	342	623	
15	0	0	0	0	339	624	
0	0	0	0	0	335	624	
1	0	0	0	0	334	623	
2	0	0	0	0	334	623	
3	0	0	0	0	334	623	
4	0	0	0	0	335	624	
5	0	0	0	0	337	623	
6	0	0	0	0	339	624	
7	0	0	0	0	340	623	
8	0	0	0	0	342	623	
9	0	0	0	0	344	623	
10	0	0	0	0	345	624	
11	0	0	0	0	345	623	
12	0	0	0	0	347	623	
13	0	0	0	0	346	623	
14	0	0	0	0	347	623	
15	0	0	0	0	346	623	
0	0	0	0	0	345	623	
1	0	0	0	0	344	623	
2	0	0	0	0	345	623	
3	0	0	0	0	346	623	
4	0	0	0	0	345	623	
5	0	0	0	0	345	623	
6	0	0	0	0	347	623	
7	0	0	0	0	349	623	
8	0	0	0	0	352	624	
9	0	0	0	0	357	623	
10	0	0	0	0	359	623	
11	0	0	0	0	362	622	
12	0	0	0	0	365	623	
13	0	0	0	0	367	623	
14	0	0	0	0	368	622	
15	0	0	0	0	368	623	
0	0	0	0	0	369	623	
1	0	0	0	0	372	623	
2	0	0	0	0	371	623	
3	0	0	0	0	371	622	
4	0	0	0	0	370	622	
5	0	0	0	0	370	623	
6	0	0	0	0	369	622	
7	0	0	0	0	369	622	
8	0	0	0	0	370	622	
9	0	0	0	0	371	622	
10	0	0	0	0	372	622	
11	0	0	0	0	375	622	
12	0	0	0	0	377	622	
13	0	0	0	0	381	622	
14	0	0	0	0	384	622	
15	0	0	0	0	386	622	
0	0	0	0	0	388	622	
1	0	0	0	0	391	622	
2	0	0	0	0	395	623	
3	0	0	0	0	396	622	
4	0	0	0	0	398	622	
5	0	0	0	0	398	622	
6	0	0	0	0	398	622	
7	0	0	0	0	397	622	
8	0	0	0	0	396	623	
9	0	0	0	0	395	623	
10	0	0	0	0	396	622	
11	0	0	0	0	396	623	
12	0	0	0	0	398	622	
13	0	0	0	0	400	623	
14	0	0	0	0	401	623	
15	0	0	0	0	401	623	
0	0	0	0	0	402	623	
1	0	0	0	0	405	623	
2	0	0	0	0	407	623	
3	0	0	0	0	409	622	
4	0	0	0	0	409	623	
5	0	0	0	0	407	623	
6	0	0	0	0	407	623	
7	0	0	0	0	405	623	
8	0	0	0	0	402	624	
9	0	0	0	0	399	624	
10	0	0	0	0	396	624	
11	0	0	0	0	393	623	
12	0	0	0	0	392	623	
13	0	0	0	0	391	623	
14	0	0	0	0	391	623	
15	0	0	0	0	391	623	
0	0	0	0	0	391	623	
1	0	0	0	0	391	624	
2	0	0	0	0	392	624	
3	0	0	0	0	395	624	
4	0	0	0	0	398	624	
5	0	0	0	0	400	624	
6	0	0	0	0	403	624	
7	0	0	0	0	407	624	
8	0	0	0	0	408	623	
9	0	0	0	0	410	624	
10	0	0	0	0	410	624	
11	0	0	0	0	411	624	
12	0	0	0	0	411	624	
13	0	0	0	0	409	624	
14	0	0	0	0	408	624	
15	0	0	0	0	406	624	
0	0	0	0	0	403	624	
1	0	0	0	0	403	624	
2	0	0	0	0	402	625	
3	0	0	0	0	401	624	
4	0	0	0	0	401	624	
5	0	0	0	0	401	624	
6	0	0	0	0	402	624	
7	0	0	0	0	402	624	
8	0	0	0	0	404	624	
9	0	0	0	0	407	624	
10	0	0	0	0	410	625	
11	0	0	0	0	412	624	
12	0	0	0	0	415	624	
13	0	0	0	0	416	624	
14	0	0	0	0	417	624	
15	0	0	0	0	417	624	
0	0	0	0	0	416	624	
1	0	0	0	0	415	624	
2	0	0	0	0	413	625	
3	0	0	0	0	412	624	
4	0	0	0	0	411	624	
5	0	0	0	0	409	624	
6	0	0	0	0	407	624	
7	0	0	0	0	407	624	
8	0	0	0	0	407	624	
9	0	0	0	0	408	624	
10	0	0	0	0	408	624	
11	0	0	0	0	410	623	
12	0	0	0	0	412	624	
13	0	0	0	0	415	623	
14	0	0	0	0	420	623	
15	0	0	0	0	425	623	
0	0	0	0	0	426	624	
1	0	0	0	0	429	624	
2	0	0	0	0	430	623	
3	0	0	0	0	431	623	
4	0	0	0	0	431	622	
5	0	0	0	0	431	622	
6	0	0	0	0	431	622	
7	0	0	0	0	430	622	
8	0	0	0	0	428	622	
9	0	0	0	0	426	622	
10	0	0	0	0	423	622	
11	0	0	0	0	423	622	
12	0	0	0	0	422	622	
13	0	0	0	0	421	622	
14	0	0	0	0	422	622	
15	0	0	0	0	423	622	
0	0	0	0	0	425	622	
1	0	0	0	0	428	622	
2	0	0	0	0	430	622	
3	0	0	0	0	433	622	
4	0	0	0	0	435	622	
5	0	0	0	0	437	622	
6	0	0	0	0	439	622	
7	0	0	0	0	440	622	
8	0	0	0	0	440	622	
9	0	0	0	0	441	622	
10	0	0	0	0	440	622	
11	0	0	0	0	440	622	
12	0	0	0	0	439	622	
13	0	0	0	0	438	622	
14	0	0	0	0	437	622	
15	0	0	0	0	437	622	
0	0	0	0	0	436	622	
1	0	0	0	0	436	622	
2	0	0	0	0	437	623	
3	0	0	0	0	439	622	
4	0	0	0	0	441	623	
5	0	0	0	0	444	623	
6	0	0	0	0	445	623	
7	0	0	0	0	447	623	
8	0	0	0	0	450	623	
9	0	0	0	0	452	623	
10	0	0	0	0	454	624	
11	0	0	0	0	455	623	
12	0	0	0	0	456	623	
13	0	0	0	0	456	623	
14	0	0	0	0	456	624	
15	0	0	0	0	456	623	
0	0	0	0	0	453	623	
1	0	0	0	0	451	624	
2	0	0	0	0	450	624	
3	0	0	0	0	451	624	
4	0	0	0	0	450	624	
5	0	0	0	0	450	624	
6	0	0	0	0	452	623	
7	0	0	0	0	454	624	
8	0	0	0	0	458	624	
9	0	0	0	0	461	624	
10	0	0	0	0	463	625	
11	0	0	0	0	465	624	
12	0	0	0	0	468	624	
13	0	0	0	0	472	625	
14	0	0	0	0	472	624	
15	0	0	0	0	473	625	
0	0	0	0	0	472	625	
1	0	0	0	0	472	625	
2	0	0	0	0	470	626	
3	0	0	0	0	467	625	
4	0	0	0	0	467	625	
5	0	0	0	0	465	625	
6	0	0	0	0	463	624	
7	0	0	0	0	463	625	
8	0	0	0	0	463	625	
9	0	0	0	0	463	625	
10	0	0	0	0	463	625	
11	0	0	0	0	466	625	
12	0	0	0	0	467	624	
13	0	0	0	0	470	625	
14	0	0	0	0	473	625	
15	0	0	0	0	475	625	
0	0	0	0	0	477	625	
1	0	0	0	0	479	625	
2	0	0	0	0	480	626	
3	0	0	0	0	480	625	
4	0	0	0	0	479	626	
5	0	0	0	0	478	626	
6	0	0	0	0	477	625	
7	0	0	0	0	476	625	
8	0	0	0	0	476	625	
9	0	0	0	0	475	625	
10	0	0	0	0	473	625	
11	0	0	0	0	472	624	
12	0	0	0	0	472	625	
13	0	0	0	0	472	625	
14	0	0	0	0	471	624	
15	0	0	0	0	472	624	
0	0	0	0	0	472	624	
1	0	0	0	0	472	624	
2	0	0	0	0	472	624	
3	0	0	0	0	473	624	
4	0	0	0	0	474	624	
5	0	0	0	0	473	624	
6	0	0	0	0	473	624	
7	0	0	0	0	472	624	
8	0	0	0	0	469	623	
9	0	0	0	0	466	623	
10	0	0	0	0	464	624	
11	0	0	0	0	461	623	
12	0	0	0	0	460	623	
13	0	0	0	0	458	623	
14	0	0	0	0	456	622	
15	0	0	0	0	456	623	
0	0	0	0	0	455	623	
1	0	0	0	0	455	623	
2	0	0	0	0	457	623	
3	0	0	0	0	459	622	
4	0	0	0	0	460	623	
5	0	0	0	0	461	622	
6	0	0	0	0	462	623	
7	0	0	0	0	464	622	
8	0	0	0	0	465	622	
9	0	0	0	0	466	622	
10	0	0	0	0	468	622	
11	0	0	0	0	469	622	
12	0	0	0	0	468	622	
13	0	0	0	0	467	622	
14	0	0	0	0	465	623	
15	0	0	0	0	465	623	
0	0	0	0	0	465	622	
1	0	0	0	0	465	622	
2	0	0	0	0	463	623	
3	0	0	0	0	464	622	
4	0	0	0	0	464	622	
5	0	0	0	0	464	622	
6	0	0	0	0	465	622	
7	0	0	0	0	467	622	
8	0	0	0	0	471	623	
9	0	0	0	0	473	623	
10	0	0	0	0	475	624	
11	0	0	0	0	477	624	
12	0	0	0	0	478	623	
13	0	0	0	0	479	624	
14	0	0	0	0	481	623	
15	0	0	0	0	483	624	
0	0	0	0	0	483	625	
1	0	0	0	0	482	624	
2	0	0	0	0	482	625	
3	0	0	0	0	480	625	
4	0	0	0	0	478	625	
5	0	0	0	0	476	624	
6	0	0	0	0	475	624	
7	0	0	0	0	475	625	
8	0	0	0	0	474	625	
9	0	0	0	0	475	625	
10	0	0	0	0	476	625	
11	0	0	0	0	477	625	
12	0	0	0	0	479	625	
13	0	0	0	0	481	624	
14	0	0	0	0	484	625	
15	0	0	0	0	487	624	
0	0	0	0	0	488	625	
1	0	0	0	0	490	624	
2	0	0	0	0	492	625	
3	0	0	0	0	492	624	
4	0	0	0	0	492	624	
5	0	0	0	0	491	624	
6	0	0	0	0	491	625	
7	0	0	0	0	490	624	
8	0	0	0	0	489	625	
9	0	0	0	0	488	624	
10	0	0	0	0	487	624	
11	0	0	0	0	488	624	
12	0	0	0	0	488	624	
13	0	0	0	0	489	624	
14	0	0	0	0	490	624	
15	0	0	0	0	491	624	
0	0	0	0	0	492	624	
1	0	0	0	0	495	625	
2	0	0	0	0	497	625	
3	0	0	0	0	500	624	
4	0	0	0	0	503	624	
5	0	0	0	0	505	624	
6	0	0	0	0	505	624	
7	0	0	0	0	504	624	
8	0	0	0	0	504	623	
9	0	0	0	0	503	623	
10	0	0	0	0	502	624	
11	0	0	0	0	501	623	
12	0	0	0	0	498	623	
13	0	0	0	0	496	622	
14	0	0	0	0	496	623	
15	0	0	0	0	496	623	
0	0	0	0	0	496	622	
1	0	0	0	0	496	622	
2	0	0	0	0	498	622	
3	0	0	0	0	499	622	
4	0	0	0	0	503	622	
5	0	0	0	0	504	622	
6	0	0	0	0	508	621	
7	0	0	0	0	511	621	
8	0	0	0	0	515	621	
9	0	0	0	0	518	621	
10	0	0	0	0	520	622	
11	0	0	0	0	520	622	
12	0	0	0	0	521	621	
13	0	0	0	0	522	621	
14	0	0	0	0	524	620	
15	0	0	0	0	524	620	
0	0	0	0	0	524	621	
1	0	0	0	0	524	620	
2	0	0	0	0	524	620	
3	0	0	0	0	526	620	
4	0	0	0	0	526	621	
5	0	0	0	0	527	620	
6	0	0	0	0	528	620	
7	0	0	0	0	530	620	
8	0	0	0	0	533	620	
9	0	0	0	0	535	620	
10	0	0	0	0	538	620	
11	0	0	0	0	539	621	
12	0	0	0	0	542	620	
13	0	0	0	0	544	621	
14	0	0	0	0	546	620	
15	0	0	0	0	547	620	
0	0	0	0	0	547	620	
1	0	0	0	0	547	621	
2	0	0	0	0	546	621	
3	0	0	0	0	544	620	
4	0	0	0	0	543	620	
5	0	0	0	0	541	620	
6	0	0	0	0	540	620	
7	0	0	0	0	541	621	
8	0	0	0	0	540	620	
9	0	0	0	0	542	620	
10	0	0	0	0	543	620	
11	0	0	0	0	545	621	
12	0	0	0	0	548	621	
13	0	0	0	0	551	620	
14	0	0	0	0	554	621	
15	0	0	0	0	557	621	
0	0	0	0	0	560	620	
1	0	0	0	0	562	620	
2	0	0	0	0	563	621	
3	0	0	0	0	565	621	
4	0	0	0	0	566	621	
5	0	0	0	0	565	621	
6	0	0	0	0	566	621	
7	0	0	0	0	565	621	
8	0	0	0	0	564	621	
9	0	0	0	0	563	622	
10	0	0	0	0	562	622	
11	0	0	0	0	562	622	
12	0	0	0	0	561	622	
13	0	0	0	0	562	622	
14	0	0	0	0	563	623	
15	0	0	0	0	564	622	
0	0	0	0	0	568	623	
1	0	0	0	0	572	623	
2	0	0	0	0	574	624	
3	0	0	0	0	577	623	
4	0	0	0	0	580	623	
5	0	0	0	0	582	623	
6	0	0	0	0	583	623	
7	0	0	0	0	585	623	
8	0	0	0	0	586	623	
9	0	0	0	0	586	624	
10	0	0	0	0	584	624	
11	0	0	0	0	583	624	
12	0	0	0	0	583	624	
13	0	0	0	0	584	623	
14	0	0	0	0	585	623	
15	0	0	0	0	585	623	
0	0	0	0	0	584	623	
1	0	0	0	0	584	623	
2	0	0	0	0	585	624	
3	0	0	0	0	588	624	
4	0	0	0	0	592	624	
5	0	0	0	0	596	623	
6	0	0	0	0	600	623	
7	0	0	0	0	604	623	
8	0	0	0	0	606	623	
9	0	0	0	0	608	623	
10	0	0	0	0	609	624	
11	0	0	0	0	610	623	
12	0	0	0	0	610	623	
13	0	0	0	0	609	623	
14	0	0	0	0	608	623	
15	0	0	0	0	608	622	
0	0	0	0	0	608	622	
1	0	0	0	0	606	623	
2	0	0	0	0	605	623	
3	0	0	0	0	605	622	
4	0	0	0	0	605	623	
5	0	0	0	0	605	622	
6	0	0	0	0	606	622	
7	0	0	0	0	608	622	
8	0	0	0	0	611	622	
9	0	0	0	0	614	621	
10	0	0	0	0	616	622	
11	0	0	0	0	618	621	
12	0	0	0	0	619	621	
13	0	0	0	0	620	622	
14	0	0	0	0	620	621	
15	0	0	0	0	621	621	
0	0	0	0	0	621	621	
1	0	0	0	0	620	621	
2	0	0	0	0	619	622	
3	0	0	0	0	618	621	
4	0	0	0	0	617	621	
5	0	0	0	0	616	621	
6	0	0	0	0	615	620	
7	0	0	0	0	615	621	
8	0	0	0	0	615	621	
9	0	0	0	0	614	620	
10	0	0	0	0	614	621	
11	0	0	0	0	615	621	
12	0	0	0	0	619	621	
13	0	0	0	0	620	621	
14	0	0	0	0	623	621	
15	0	0	0	0	625	621	
0	0	0	0	0	627	621	
1	0	0	0	0	627	621	
2	0	0	0	0	627	622	
3	0	0	0	0	627	621	
4	0	0	0	0	625	622	
5	0	0	0	0	624	621	
6	0	0	0	0	623	621	
7	0	0	0	0	620	622	
8	0	0	0	0	619	622	
9	0	0	0	0	616	621	
10	0	0	0	0	615	622	
11	0	0	0	0	615	622	
12	0	0	0	0	614	622	
13	0	0	0	0	614	622	
14	0	0	0	0	614	622	
15	0	0	0	0	615	622	
0	0	0	0	0	617	622	
1	0	0	0	0	619	623	
2	0	0	0	0	621	624	
3	0	0	0	0	624	623	
4	0	0	0	0	625	624	
5	0	0	0	0	625	624	
6	0	0	0	0	625	624	
7	0	0	0	0	624	624	
8	0	0	0	0	624	624	
9	0	0	0	0	625	625	
10	0	0	0	0	624	625	
11	0	0	0	0	622	625	
12	0	0	0	0	621	625	
13	0	0	0	0	620	626	
14	0	0	0	0	620	626	
15	0	0	0	0	620	626	
0	0	0	0	0	619	626	
1	0	0	0	0	619	626	
2	0	0	0	0	620	626	
3	0	0	0	0	621	625	
4	0	0	0	0	623	626	
5	0	0	0	0	624	626	
6	0	0	0	0	626	626	
7	0	0	0	0	627	626	
8	0	0	0	0	629	626	
9	0	0	0	0	632	626	
10	0	0	0	0	631	625	
11	0	0	0	0	631	625	
12	0	0	0	0	632	625	
13	0	0	0	0	633	625	
14	0	0	0	0	632	625	
15	0	0	0	0	630	625	
0	0	0	0	0	629	626	
1	0	0	0	0	628	625	
2	0	0	0	0	628	626	
3	0	0	0	0	628	625	
4	0	0	0	0	630	625	
5	0	0	0	0	630	625	
6	0	0	0	0	631	625	
7	0	0	0	0	632	625	
8	0	0	0	0	636	625	
9	0	0	0	0	640	625	
10	0	0	0	0	644	626	
11	0	0	0	0	647	626	
12	0	0	0	0	649	625	
13	0	0	0	0	651	626	
14	0	0	0	0	651	625	
15	0	0	0	0	649	625	
0	0	0	0	0	649	625	
1	0	0	0	0	649	625	
2	0	0	0	0	647	626	
3	0	0	0	0	646	626	
4	0	0	0	0	645	625	
5	0	0	0	0	644	625	
6	0	0	0	0	644	625	
7	0	0	0	0	643	625	
8	0	0	0	0	643	625	
9	0	0	0	0	643	625	
10	0	0	0	0	644	625	
11	0	0	0	0	645	625	
12	0	0	0	0	645	624	
13	0	0	0	0	646	625	
14	0	0	0	0	646	624	
15	0	0	0	0	649	624	
0	0	0	0	0	652	624	
1	0	0	0	0	652	624	
2	0	0	0	0	652	624	
3	0	0	0	0	652	624	
4	0	0	0	0	650	624	
5	0	0	0	0	648	624	
6	0	0	0	0	647	624	
7	0	0	0	0	644	623	
8	0	0	0	0	643	624	
9	0	0	0	0	639	624	
10	0	0	0	0	639	624	
11	0	0	0	0	638	624	
12	0	0	0	0	637	623	
13	0	0	0	0	638	624	
14	0	0	0	0	638	623	
15	0	0	0	0	641	624	
0	0	0	0	0	643	624	
1	0	0	0	0	645	624	
2	0	0	0	0	650	623	
3	0	0	0	0	652	623	
4	0	0	0	0	652	624	
5	0	0	0	0	654	623	
6	0	0	0	0	653	623	
7	0	0	0	0	653	622	
8	0	0	0	0	653	623	
9	0	0	0	0	653	623	
10	0	0	0	0	650	623	
11	0	0	0	0	649	623	
12	0	0	0	0	649	622	
13	0	0	0	0	648	623	
14	0	0	0	0	647	623	
15	0	0	0	0	648	623	
0	0	0	0	0	647	623	
1	0	0	0	0	648	624	
2	0	0	0	0	649	623	
3	0	0	0	0	652	623	
4	0	0	0	0	655	623	
5	0	0	0	0	655	623	
6	0	0	0	0	657	624	
7	0	0	0	0	658	624	
8	0	0	0	0	658	623	
9	0	0	0	0	658	623	
10	0	0	0	0	659	623	
11	0	0	0	0	659	623	
12	0	0	0	0	658	623	
13	0	0	0	0	657	622	
14	0	0	0	0	656	623	
15	0	0	0	0	654	623	
0	0	0	0	0	651	622	
1	0	0	0	0	649	623	
2	0	0	0	0	647	623	
3	0	0	0	0	646	623	
4	0	0	0	0	644	623	
5	0	0	0	0	644	623	
6	0	0	0	0	646	622	
7	0	0	0	0	648	623	
8	0	0	0	0	651	623	
9	0	0	0	0	651	623	
10	0	0	0	0	653	624	
11	0	0	0	0	655	623	
12	0	0	0	0	658	624	
13	0	0	0	0	661	624	
14	0	0	0	0	660	624	
15	0	0	0	0	660	623	
0	0	0	0	0	660	623	
1	0	0	0	0	659	623	
2	0	0	0	0	658	624	
3	0	0	0	0	657	624	
4	0	0	0	0	655	624	
5	0	0	0	0	652	624	
6	0	0	0	0	652	623	
7	0	0	0	0	651	624	
8	0	0	0	0	650	624	
9	0	0	0	0	649	623	
10	0	0	0	0	650	624	
11	0	0	0	0	651	623	
12	0	0	0	0	651	623	
13	0	0	0	0	652	622	
14	0	0	0	0	655	623	
15	0	0	0	0	658	624	
0	0	0	0	0	658	623	
1	0	0	0	0	659	623	
2	0	0	0	0	659	623	
3	0	0	0	0	658	623	
4	0	0	0	0	657	623	
5	0	0	0	0	655	623	
6	0	0	0	0	651	622	
7	0	0	0	0	649	623	
8	0	0	0	0	649	622	
9	0	0	0	0	647	622	
10	0	0	0	0	647	623	
11	0	0	0	0	646	623	
12	0	0	0	0	646	623	
13	0	0	0	0	645	623	
14	0	0	0	0	647	623	
15	0	0	0	0	647	623	
0	0	0	0	0	649	623	
1	0	0	0	0	651	623	
2	0	0	0	0	654	623	
3	0	0	0	0	656	623	
4	0	0	0	0	659	623	
5	0	0	0	0	660	623	
6	0	0	0	0	660	624	
7	0	0	0	0	660	624	
8	0	0	0	0	661	623	
9	0	0	0	0	659	624	
10	0	0	0	0	659	624	
11	0	0	0	0	657	623	
12	0	0	0	0	655	623	
13	0	0	0	0	654	623	
14	0	0	0	0	655	624	
15	0	0	0	0	655	624	
0	0	0	0	0	655	624	
1	0	0	0	0	655	624	
2	0	0	0	0	656	624	
3	0	0	0	0	657	624	
4	0	0	0	0	659	624	
5	0	0	0	0	660	624	
6	0	0	0	0	662	624	
7	0	0	0	0	663	623	
8	0	0	0	0	663	624	
9	0	0	0	0	664	624	
10	0	0	0	0	665	624	
11	0	0	0	0	665	624	
12	0	0	0	0	663	624	
13	0	0	0	0	659	624	
14	0	0	0	0	659	624	
15	0	0	0	0	656	624	
0	0	0	0	0	654	624	
1	0	0	0	0	652	624	
2	0	0	0	0	650	624	
3	0	0	0	0	649	624	
4	0	0	0	0	647	624	
5	0	0	0	0	646	624	
6	0	0	0	0	646	624	
7	0	0	0	0	647	624	
8	0	0	0	0	647	624	
9	0	0	0	0	649	624	
10	0	0	0	0	649	625	
11	0	0	0	0	651	625	
12	0	0	0	0	652	624	
13	0	0	0	0	652	625	
14	0	0	0	0	653	624	
15	0	0	0	0	654	624	
0	0	0	0	0	652	625	
1	0	0	0	0	651	624	
2	0	0	0	0	651	624	
3	0	0	0	0	649	625	
4	0	0	0	0	647	624	
5	0	0	0	0	646	625	
6	0	0	0	0	643	624	
7	0	0	0	0	642	625	
8	0	0	0	0	642	624	
9	0	0	0	0	642	625	
10	0	0	0	0	643	625	
11	0	0	0	0	643	625	
12	0	0	0	0	646	625	
13	0	0	0	0	647	625	
14	0	0	0	0	648	624	
15	0	0	0	0	650	625	
0	0	0	0	0	650	625	
1	0	0	0	0	651	625	
2	0	0	0	0	651	625	
3	0	0	0	0	649	625	
4	0	0	0	0	648	624	
5	0	0	0	0	647	624	
6	0	0	0	0	645	625	
7	0	0	0	0	643	625	
8	0	0	0	0	641	624	
9	0	0	0	0	639	624	
10	0	0	0	0	637	625	
11	0	0	0	0	636	624	
12	0	0	0	0	636	624	
13	0	0	0	0	638	624	
14	0	0	0	0	638	624	
15	0	0	0	0	638	623	
0	0	0	0	0	639	624	
1	0	0	0	0	640	623	
2	0	0	0	0	640	623	
3	0	0	0	0	638	623	
4	0	0	0	0	635	623	
5	0	0	0	0	630	623	
6	0	0	0	0	626	623	
7	0	0	0	0	621	623	
8	0	0	0	0	615	622	
9	0	0	0	0	610	622	
10	0	0	0	0	603	623	
11	0	0	0	0	595	622	
12	0	0	0	0	589	623	
13	0	0	0	0	582	622	
14	0	0	0	0	579	622	
15	0	0	0	0	577	623	
0	0	0	0	0	575	623	
1	0	0	0	0	574	623	
2	0	0	0	0	574	623	
3	0	0	0	0	575	622	
4	0	0	0	0	578	623	
5	0	0	0	0	582	623	
6	0	0	0	0	587	623	
7	0	0	0	0	595	623	
8	0	0	0	0	604	623	
9	0	0	0	0	618	623	
10	0	0	0	0	634	623	
11	0	0	0	0	653	623	
12	0	0	0	0	670	623	
13	0	0	0	0	691	623	
14	0	0	0	0	714	623	
15	0	0	0	0	742	622	
0	0	0	0	0	773	623	
1	0	0	0	0	805	623	
2	0	0	0	0	836	622	
3	0	0	0	0	869	623	
4	0	0	0	0	900	622	
5	0	0	0	0	928	621	
6	0	0	0	0	952	621	
7	0	0	0	0	972	622	
8	0	0	0	0	992	622	
9	0	0	0	0	1008	621	
10	0	0	0	0	1019	621	
11	0	0	0	0	1021	621	
12	0	0	0	0	1021	621	
13	0	0	0	0	1021	621	
14	0	0	0	0	1019	621	
15	0	0	0	0	1009	621	
0	0	0	0	0	993	620	
1	0	0	0	0	975	621	
2	0	0	0	0	952	621	
3	0	0	0	0	923	620	
4	0	0	0	0	893	620	
5	0	0	0	0	857	621	
6	0	0	0	0	822	621	
7	0	0	0	0	785	621	
8	0	0	0	0	749	621	
9	0	0	0	0	716	621	
10	0	0	0	0	684	621	
11	0	0	0	0	659	620	
12	0	0	0	0	638	621	
13	0	0	0	0	617	621	
14	0	0	0	0	600	620	
15	0	0	0	0	586	620	
0	0	0	0	0	574	620	
1	0	0	0	0	563	621	
2	0	0	0	0	553	620	
3	0	0	0	0	545	620	
4	0	0	0	0	537	620	
5	0	0	0	0	528	619	
6	0	0	0	0	523	620	
7	0	0	0	0	517	620	
8	0	0	0	0	512	620	
9	0	0	0	0	508	620	
10	0	0	0	0	503	620	
11	0	0	0	0	502	620	
12	0	0	0	0	500	620	
13	0	0	0	0	499	620	
14	0	0	0	0	500	620	
15	0	0	0	0	501	621	
0	0	0	0	0	504	621	
1	0	0	0	0	506	622	
2	0	0	0	0	508	622	
3	0	0	0	0	509	622	
4	0	0	0	0	508	622	
5	0	0	0	0	509	622	
6	0	0	0	0	508	622	
7	0	0	0	0	508	623	
8	0	0	0	0	505	622	
9	0	0	0	0	504	622	
10	0	0	0	0	505	623	
11	0	0	0	0	503	622	
12	0	0	0	0	502	623	
13	0	0	0	0	501	623	
14	0	0	0	0	502	623	
15	0	0	0	0	503	623	
0	0	0	0	0	503	623	
1	0	0	0	0	504	623	
2	0	0	0	0	506	624	
3	0	0	0	0	506	623	
4	0	0	0	0	508	623	
5	0	0	0	0	512	623	
6	0	0	0	0	516	623	
7	0	0	0	0	519	624	
8	0	0	0	0	520	623	
9	0	0	0	0	523	624	
10	0	0	0	0	524	623	
11	0	0	0	0	525	623	
12	0	0	0	0	526	624	
13	0	0	0	0	526	624	
14	0	0	0	0	527	624	
15	0	0	0	0	527	624	
0	0	0	0	0	527	624	
1	0	0	0	0	526	624	
2	0	0	0	0	523	624	
3	0	0	0	0	524	624	
4	0	0	0	0	524	624	
5	0	0	0	0	525	624	
6	0	0	0	0	527	624	
7	0	0	0	0	528	624	
8	0	0	0	0	532	624	
9	0	0	0	0	535	624	
10	0	0	0	0	536	624	
11	0	0	0	0	539	624	
12	0	0	0	0	542	624	
13	0	0	0	0	543	624	
14	0	0	0	0	544	623	
15	0	0	0	0	545	623	
0	0	0	0	0	545	623	
1	0	0	0	0	545	623	
2	0	0	0	0	545	624	
3	0	0	0	0	544	623	
4	0	0	0	0	542	623	
5	0	0	0	0	540	623	
6	0	0	0	0	542	623	
7	0	0	0	0	543	623	
8	0	0	0	0	544	622	
9	0	0	0	0	545	623	
10	0	0	0	0	548	623	
11	0	0	0	0	549	622	
12	0	0	0	0	551	622	
13	0	0	0	0	554	623	
14	0	0	0	0	557	622	
15	0	0	0	0	560	622	
0	0	0	0	0	562	622	
1	0	0	0	0	564	622	
2	0	0	0	0	564	622	
3	0	0	0	0	563	621	
4	0	0	0	0	564	622	
5	0	0	0	0	564	622	
6	0	0	0	0	563	622	
7	0	0	0	0	562	622	
8	0	0	0	0	562	622	
9	0	0	0	0	559	623	
10	0	0	0	0	560	622	
11	0	0	0	0	560	622	
12	0	0	0	0	559	622	
13	0	0	0	0	558	622	
14	0	0	0	0	559	622	
15	0	0	0	0	561	622	
0	0	0	0	0	562	623	
1	0	0	0	0	564	622	
2	0	0	0	0	566	623	
3	0	0	0	0	568	623	
4	0	0	0	0	569	623	
5	0	0	0	0	571	623	
6	0	0	0	0	571	623	
7	0	0	0	0	569	624	
8	0	0	0	0	567	624	
9	0	0	0	0	566	624	
10	0	0	0	0	564	625	
11	0	0	0	0	563	625	
12	0	0	0	0	561	624	
13	0	0	0	0	560	625	
14	0	0	0	0	558	624	
15	0	0	0	0	557	625	
0	0	0	0	0	557	625	
1	0	0	0	0	559	625	
2	0	0	0	0	559	625	
3	0	0	0	0	561	625	
4	0	0	0	0	563	625	
5	0	0	0	0	564	625	
6	0	0	0	0	566	625	
7	0	0	0	0	567	625	
8	0	0	0	0	571	625	
9	0	0	0	0	573	625	
10	0	0	0	0	572	625	
11	0	0	0	0	573	625	
12	0	0	0	0	573	624	
13	0	0	0	0	573	624	
14	0	0	0	0	571	625	
15	0	0	0	0	569	624	
0	0	0	0	0	570	624	
1	0	0	0	0	570	625	
2	0	0	0	0	571	625	
3	0	0	0	0	569	625	
4	0	0	0	0	570	624	
5	0	0	0	0	571	624	
6	0	0	0	0	572	624	
7	0	0	0	0	574	624	
8	0	0	0	0	578	624	
9	0	0	0	0	580	624	
10	0	0	0	0	583	624	
11	0	0	0	0	584	623	
12	0	0	0	0	587	623	
13	0	0	0	0	588	624	
14	0	0	0	0	587	623	
15	0	0	0	0	587	624	
0	0	0	0	0	585	623	
1	0	0	0	0	583	623	
2	0	0	0	0	583	624	
3	0	0	0	0	580	623	
4	0	0	0	0	579	623	
5	0	0	0	0	578	623	
6	0	0	0	0	577	623	
7	0	0	0	0	576	623	
8	0	0	0	0	577	624	
9	0	0	0	0	576	624	
10	0	0	0	0	578	624	
11	0	0	0	0	581	623	
12	0	0	0	0	583	623	
13	0	0	0	0	586	623	
14	0	0	0	0	587	623	
15	0	0	0	0	588	623	
0	0	0	0	0	591	623	
1	0	0	0	0	593	623	
2	0	0	0	0	591	623	
3	0	0	0	0	590	623	
4	0	0	0	0	590	623	
5	0	0	0	0	589	623	
6	0	0	0	0	588	623	
7	0	0	0	0	586	623	
8	0	0	0	0	584	623	
9	0	0	0	0	581	623	
10	0	0	0	0	579	623	
11	0	0	0	0	579	623	
12	0	0	0	0	579	623	
13	0	0	0	0	581	623	
14	0	0	0	0	581	622	
15	0	0	0	0	583	623	
0	0	0	0	0	584	623	
1	0	0	0	0	587	623	
2	0	0	0	0	589	623	
3	0	0	0	0	591	623	
4	0	0	0	0	592	623	
5	0	0	0	0	593	622	
6	0	0	0	0	593	622	
7	0	0	0	0	593	622	
8	0	0	0	0	593	622	
9	0	0	0	0	591	623	
10	0	0	0	0	591	623	
11	0	0	0	0	590	622	
12	0	0	0	0	589	622	
13	0	0	0	0	588	622	
14	0	0	0	0	587	623	
15	0	0	0	0	587	623	
0	0	0	0	0	586	623	
1	0	0	0	0	586	623	
2	0	0	0	0	586	623	
3	0	0	0	0	587	622	
4	0	0	0	0	588	622	
5	0	0	0	0	589	623	
6	0	0	0	0	590	622	
7	0	0	0	0	592	622	
8	0	0	0	0	594	623	
9	0	0	0	0	592	623	
10	0	0	0	0	593	623	
11	0	0	0	0	593	623	
12	0	0	0	0	590	622	
13	0	0	0	0	586	623	
14	0	0	0	0	582	623	
15	0	0	0	0	580	623	
0	0	0	0	0	578	623	
1	0	0	0	0	576	623	
2	0	0	0	0	574	623	
3	0	0	0	0	573	623	
4	0	0	0	0	571	623	
5	0	0	0	0	571	623	
6	0	0	0	0	571	623	
7	0	0	0	0	570	623	
8	0	0	0	0	571	624	
9	0	0	0	0	571	623	
10	0	0	0	0	572	624	
11	0	0	0	0	573	623	
12	0	0	0	0	573	623	
13	0	0	0	0	573	624	
14	0	0	0	0	572	624	
15	0	0	0	0	571	624	
0	0	0	0	0	568	624	
1	0	0	0	0	567	624	
2	0	0	0	0	564	625	
3	0	0	0	0	562	625	
4	0	0	0	0	558	624	
5	0	0	0	0	556	625	
6	0	0	0	0	552	625	
7	0	0	0	0	549	625	
8	0	0	0	0	548	624	
9	0	0	0	0	548	625	
10	0	0	0	0	548	625	
11	0	0	0	0	547	625	
12	0	0	0	0	547	625	
13	0	0	0	0	547	625	
14	0	0	0	0	548	625	
15	0	0	0	0	549	625	
0	0	0	0	0	548	625	
1	0	0	0	0	547	625	
2	0	0	0	0	547	625	
3	0	0	0	0	544	625	
4	0	0	0	0	542	624	
5	0	0	0	0	542	625	
6	0	0	0	0	538	625	
7	0	0	0	0	534	625	
8	0	0	0	0	532	624	
9	0	0	0	0	531	624	
10	0	0	0	0	530	625	
11	0	0	0	0	529	624	
12	0	0	0	0	528	624	
13	0	0	0	0	528	624	
14	0	0	0	0	527	624	
15	0	0	0	0	527	624	
0	0	0	0	0	530	624	
1	0	0	0	0	531	624	
2	0	0	0	0	532	624	
3	0	0	0	0	533	624	
4	0	0	0	0	535	624	
5	0	0	0	0	537	624	
6	0	0	0	0	536	623	
7	0	0	0	0	536	623	
8	0	0	0	0	536	623	
9	0	0	0	0	533	622	
10	0	0	0	0	532	623	
11	0	0	0	0	530	622	
12	0	0	0	0	528	622	
13	0	0	0	0	527	622	
14	0	0	0	0	528	622	
15	0	0	0	0	529	622	
0	0	0	0	0	529	622	
1	0	0	0	0	527	623	
2	0	0	0	0	527	623	
3	0	0	0	0	527	623	
4	0	0	0	0	528	623	
5	0	0	0	0	530	623	
6	0	0	0	0	531	623	
7	0	0	0	0	532	623	
8	0	0	0	0	534	622	
9	0	0	0	0	535	622	
10	0	0	0	0	534	622	
11	0	0	0	0	534	622	
12	0	0	0	0	535	622	
13	0	0	0	0	534	622	
14	0	0	0	0	532	622	
15	0	0	0	0	531	622	
0	0	0	0	0	529	622	
1	0	0	0	0	528	622	
