# OpenSignals Text File Format. Version 1
# {"98:D3:91:FD:69:48": {"position": 0, "device": "bitalino_rev", "device name": "98:D3:91:FD:69:48", "device connection": "BTH98:D3:91:FD:69:48", "sampling rate": 1000, "resolution": [4, 1, 1, 1, 1, 10, 10], "firmware version": 1281, "comments": "", "keywords": "", "mode": 0, "sync interval": 2, "date": "2021-9-18", "time": "14:31:31.735", "channels": [2, 5], "sensor": ["RAW", "RAW"], "label": ["A2", "A5"], "column": ["nSeq", "I1", "I2", "O1", "O2", "A2", "A5"], "special": [{}, {}], "digital IO": [0, 0, 1, 1], "convertedValues": 0}}
# EndOfHeader
0	0	0	0	0	548	412	
1	0	0	0	0	548	416	
2	0	0	0	0	548	411	
3	0	0	0	0	549	412	
4	0	0	0	0	550	411	
5	0	0	0	0	551	406	
6	0	0	0	0	552	411	
7	0	0	0	0	552	411	
8	0	0	0	0	552	412	
9	0	0	0	0	552	415	
10	0	0	0	0	552	410	
11	0	0	0	0	551	411	
12	0	0	0	0	551	411	
13	0	0	0	0	550	406	
14	0	0	0	0	547	410	
15	0	0	0	0	546	410	
0	0	0	0	0	546	410	
1	0	0	0	0	547	415	
2	0	0	0	0	548	409	
3	0	0	0	0	548	409	
4	0	0	0	0	549	409	
5	0	0	0	0	549	405	
6	0	0	0	0	549	410	
7	0	0	0	0	549	409	
8	0	0	0	0	548	410	
9	0	0	0	0	547	415	
10	0	0	0	0	546	410	
11	0	0	0	0	545	409	
12	0	0	0	0	544	409	
13	0	0	0	0	543	403	
14	0	0	0	0	543	409	
15	0	0	0	0	544	409	
0	0	0	0	0	543	409	
1	0	0	0	0	541	414	
2	0	0	0	0	540	409	
3	0	0	0	0	540	409	
4	0	0	0	0	537	408	
5	0	0	0	0	539	403	
6	0	0	0	0	540	409	
7	0	0	0	0	540	408	
8	0	0	0	0	542	409	
9	0	0	0	0	543	413	
10	0	0	0	0	545	409	
11	0	0	0	0	546	409	
12	0	0	0	0	546	408	
13	0	0	0	0	545	403	
14	0	0	0	0	544	408	
15	0	0	0	0	545	408	
0	0	0	0	0	545	408	
1	0	0	0	0	545	413	
2	0	0	0	0	545	409	
3	0	0	0	0	544	408	
4	0	0	0	0	545	408	
5	0	0	0	0	543	403	
6	0	0	0	0	542	407	
7	0	0	0	0	543	408	
8	0	0	0	0	543	408	
9	0	0	0	0	544	413	
10	0	0	0	0	544	408	
11	0	0	0	0	544	408	
12	0	0	0	0	545	408	
13	0	0	0	0	545	403	
14	0	0	0	0	546	408	
15	0	0	0	0	546	408	
0	0	0	0	0	546	408	
1	0	0	0	0	545	412	
2	0	0	0	0	546	408	
3	0	0	0	0	546	408	
4	0	0	0	0	547	408	
5	0	0	0	0	547	403	
6	0	0	0	0	546	409	
7	0	0	0	0	544	408	
8	0	0	0	0	544	409	
9	0	0	0	0	543	413	
10	0	0	0	0	543	408	
11	0	0	0	0	544	408	
12	0	0	0	0	543	408	
13	0	0	0	0	542	403	
14	0	0	0	0	541	408	
15	0	0	0	0	540	409	
0	0	0	0	0	540	409	
1	0	0	0	0	539	413	
2	0	0	0	0	536	408	
3	0	0	0	0	531	408	
4	0	0	0	0	523	408	
5	0	0	0	0	511	403	
6	0	0	0	0	496	408	
7	0	0	0	0	477	408	
8	0	0	0	0	455	409	
9	0	0	0	0	428	413	
10	0	0	0	0	400	409	
11	0	0	0	0	371	408	
12	0	0	0	0	344	408	
13	0	0	0	0	320	403	
14	0	0	0	0	297	408	
15	0	0	0	0	275	409	
0	0	0	0	0	257	409	
1	0	0	0	0	240	413	
2	0	0	0	0	229	408	
3	0	0	0	0	222	408	
4	0	0	0	0	221	408	
5	0	0	0	0	230	403	
6	0	0	0	0	245	409	
7	0	0	0	0	271	409	
8	0	0	0	0	316	409	
9	0	0	0	0	375	414	
10	0	0	0	0	444	409	
11	0	0	0	0	521	409	
12	0	0	0	0	596	409	
13	0	0	0	0	668	403	
14	0	0	0	0	730	409	
15	0	0	0	0	783	409	
0	0	0	0	0	828	409	
1	0	0	0	0	866	414	
2	0	0	0	0	897	408	
3	0	0	0	0	922	409	
4	0	0	0	0	939	409	
5	0	0	0	0	956	404	
6	0	0	0	0	976	409	
7	0	0	0	0	1005	409	
8	0	0	0	0	1022	409	
9	0	0	0	0	1022	414	
10	0	0	0	0	1022	409	
11	0	0	0	0	1022	408	
12	0	0	0	0	1022	409	
13	0	0	0	0	1022	404	
14	0	0	0	0	1022	409	
15	0	0	0	0	1022	409	
0	0	0	0	0	995	409	
1	0	0	0	0	960	414	
2	0	0	0	0	924	409	
3	0	0	0	0	887	409	
4	0	0	0	0	852	409	
5	0	0	0	0	820	404	
6	0	0	0	0	789	409	
7	0	0	0	0	759	409	
8	0	0	0	0	728	409	
9	0	0	0	0	700	414	
10	0	0	0	0	673	409	
11	0	0	0	0	646	409	
12	0	0	0	0	621	408	
13	0	0	0	0	596	403	
14	0	0	0	0	576	409	
15	0	0	0	0	557	409	
0	0	0	0	0	539	409	
1	0	0	0	0	522	413	
2	0	0	0	0	509	408	
3	0	0	0	0	497	409	
4	0	0	0	0	487	409	
5	0	0	0	0	479	403	
6	0	0	0	0	472	408	
7	0	0	0	0	465	408	
8	0	0	0	0	460	409	
9	0	0	0	0	456	413	
10	0	0	0	0	455	408	
11	0	0	0	0	450	409	
12	0	0	0	0	447	408	
13	0	0	0	0	446	403	
14	0	0	0	0	446	409	
15	0	0	0	0	444	409	
0	0	0	0	0	443	409	
1	0	0	0	0	443	413	
2	0	0	0	0	442	408	
3	0	0	0	0	441	409	
4	0	0	0	0	442	408	
5	0	0	0	0	443	403	
6	0	0	0	0	444	408	
7	0	0	0	0	444	408	
8	0	0	0	0	445	408	
9	0	0	0	0	445	413	
10	0	0	0	0	445	408	
11	0	0	0	0	444	408	
12	0	0	0	0	443	408	
13	0	0	0	0	443	403	
14	0	0	0	0	442	409	
15	0	0	0	0	443	409	
0	0	0	0	0	443	409	
1	0	0	0	0	443	413	
2	0	0	0	0	444	408	
3	0	0	0	0	445	408	
4	0	0	0	0	446	408	
5	0	0	0	0	448	403	
6	0	0	0	0	448	408	
7	0	0	0	0	449	409	
8	0	0	0	0	451	408	
9	0	0	0	0	452	413	
10	0	0	0	0	452	408	
11	0	0	0	0	452	408	
12	0	0	0	0	451	408	
13	0	0	0	0	451	403	
14	0	0	0	0	450	409	
15	0	0	0	0	450	408	
0	0	0	0	0	451	409	
1	0	0	0	0	452	414	
2	0	0	0	0	455	408	
3	0	0	0	0	455	409	
4	0	0	0	0	454	408	
5	0	0	0	0	453	403	
6	0	0	0	0	454	409	
7	0	0	0	0	454	409	
8	0	0	0	0	455	409	
9	0	0	0	0	455	414	
10	0	0	0	0	456	409	
11	0	0	0	0	455	409	
12	0	0	0	0	455	409	
13	0	0	0	0	455	404	
14	0	0	0	0	454	409	
15	0	0	0	0	454	409	
0	0	0	0	0	453	409	
1	0	0	0	0	452	414	
2	0	0	0	0	452	410	
3	0	0	0	0	449	409	
4	0	0	0	0	449	409	
5	0	0	0	0	448	404	
6	0	0	0	0	446	409	
7	0	0	0	0	445	410	
8	0	0	0	0	445	409	
9	0	0	0	0	445	414	
10	0	0	0	0	443	409	
11	0	0	0	0	441	409	
12	0	0	0	0	441	409	
13	0	0	0	0	440	404	
14	0	0	0	0	440	409	
15	0	0	0	0	441	409	
0	0	0	0	0	440	409	
1	0	0	0	0	440	414	
2	0	0	0	0	440	409	
3	0	0	0	0	439	410	
4	0	0	0	0	438	410	
5	0	0	0	0	439	404	
6	0	0	0	0	438	410	
7	0	0	0	0	438	409	
8	0	0	0	0	439	409	
9	0	0	0	0	439	414	
10	0	0	0	0	440	409	
11	0	0	0	0	440	409	
12	0	0	0	0	442	409	
13	0	0	0	0	441	404	
14	0	0	0	0	442	410	
15	0	0	0	0	442	409	
0	0	0	0	0	442	411	
1	0	0	0	0	440	415	
2	0	0	0	0	440	411	
3	0	0	0	0	438	411	
4	0	0	0	0	438	411	
5	0	0	0	0	440	405	
6	0	0	0	0	440	410	
7	0	0	0	0	440	410	
8	0	0	0	0	441	411	
9	0	0	0	0	441	415	
10	0	0	0	0	441	411	
11	0	0	0	0	440	410	
12	0	0	0	0	440	410	
13	0	0	0	0	441	405	
14	0	0	0	0	442	410	
15	0	0	0	0	443	410	
0	0	0	0	0	444	410	
1	0	0	0	0	443	415	
2	0	0	0	0	443	410	
3	0	0	0	0	441	410	
4	0	0	0	0	440	410	
5	0	0	0	0	440	404	
6	0	0	0	0	440	410	
7	0	0	0	0	442	410	
8	0	0	0	0	443	411	
9	0	0	0	0	443	414	
10	0	0	0	0	445	410	
11	0	0	0	0	444	410	
12	0	0	0	0	444	409	
13	0	0	0	0	442	403	
14	0	0	0	0	442	409	
15	0	0	0	0	440	409	
0	0	0	0	0	437	409	
1	0	0	0	0	435	414	
2	0	0	0	0	434	408	
3	0	0	0	0	434	409	
4	0	0	0	0	434	408	
5	0	0	0	0	435	403	
6	0	0	0	0	435	409	
7	0	0	0	0	435	408	
8	0	0	0	0	435	409	
9	0	0	0	0	433	413	
10	0	0	0	0	433	408	
11	0	0	0	0	432	409	
12	0	0	0	0	431	408	
13	0	0	0	0	430	403	
14	0	0	0	0	429	408	
15	0	0	0	0	430	409	
0	0	0	0	0	430	409	
1	0	0	0	0	430	413	
2	0	0	0	0	430	409	
3	0	0	0	0	429	409	
4	0	0	0	0	428	409	
5	0	0	0	0	428	403	
6	0	0	0	0	427	408	
7	0	0	0	0	426	409	
8	0	0	0	0	426	408	
9	0	0	0	0	426	413	
10	0	0	0	0	426	408	
11	0	0	0	0	425	408	
12	0	0	0	0	425	408	
13	0	0	0	0	425	403	
14	0	0	0	0	426	408	
15	0	0	0	0	427	409	
0	0	0	0	0	427	408	
1	0	0	0	0	427	413	
2	0	0	0	0	427	408	
3	0	0	0	0	428	408	
4	0	0	0	0	430	408	
5	0	0	0	0	430	403	
6	0	0	0	0	431	408	
7	0	0	0	0	432	408	
8	0	0	0	0	432	408	
9	0	0	0	0	433	413	
10	0	0	0	0	434	408	
11	0	0	0	0	436	408	
12	0	0	0	0	437	408	
13	0	0	0	0	438	402	
14	0	0	0	0	439	409	
15	0	0	0	0	438	408	
0	0	0	0	0	438	409	
1	0	0	0	0	440	414	
2	0	0	0	0	441	408	
3	0	0	0	0	442	409	
4	0	0	0	0	441	408	
5	0	0	0	0	440	403	
6	0	0	0	0	442	409	
7	0	0	0	0	443	408	
8	0	0	0	0	443	409	
9	0	0	0	0	443	414	
10	0	0	0	0	444	408	
11	0	0	0	0	443	409	
12	0	0	0	0	444	409	
13	0	0	0	0	445	403	
14	0	0	0	0	445	408	
15	0	0	0	0	445	408	
0	0	0	0	0	445	409	
1	0	0	0	0	445	413	
2	0	0	0	0	447	409	
3	0	0	0	0	446	409	
4	0	0	0	0	446	408	
5	0	0	0	0	446	403	
6	0	0	0	0	448	408	
7	0	0	0	0	449	409	
8	0	0	0	0	450	409	
9	0	0	0	0	451	414	
10	0	0	0	0	452	408	
11	0	0	0	0	452	408	
12	0	0	0	0	453	408	
13	0	0	0	0	452	403	
14	0	0	0	0	453	408	
15	0	0	0	0	451	409	
0	0	0	0	0	451	408	
1	0	0	0	0	449	413	
2	0	0	0	0	448	409	
3	0	0	0	0	446	409	
4	0	0	0	0	442	408	
5	0	0	0	0	439	403	
6	0	0	0	0	438	409	
7	0	0	0	0	436	408	
8	0	0	0	0	435	409	
9	0	0	0	0	434	413	
10	0	0	0	0	431	408	
11	0	0	0	0	426	407	
12	0	0	0	0	423	408	
13	0	0	0	0	420	403	
14	0	0	0	0	419	408	
15	0	0	0	0	416	408	
0	0	0	0	0	412	408	
1	0	0	0	0	409	413	
2	0	0	0	0	406	408	
3	0	0	0	0	401	408	
4	0	0	0	0	396	408	
5	0	0	0	0	392	403	
6	0	0	0	0	389	408	
7	0	0	0	0	386	408	
8	0	0	0	0	383	408	
9	0	0	0	0	380	413	
10	0	0	0	0	379	408	
11	0	0	0	0	376	408	
12	0	0	0	0	373	408	
13	0	0	0	0	371	404	
14	0	0	0	0	369	408	
15	0	0	0	0	368	409	
0	0	0	0	0	368	409	
1	0	0	0	0	365	413	
2	0	0	0	0	364	408	
3	0	0	0	0	361	408	
4	0	0	0	0	359	408	
5	0	0	0	0	358	403	
6	0	0	0	0	358	408	
7	0	0	0	0	357	408	
8	0	0	0	0	356	408	
9	0	0	0	0	356	413	
10	0	0	0	0	355	409	
11	0	0	0	0	355	409	
12	0	0	0	0	355	409	
13	0	0	0	0	355	404	
14	0	0	0	0	355	409	
15	0	0	0	0	355	408	
0	0	0	0	0	355	408	
1	0	0	0	0	354	413	
2	0	0	0	0	355	408	
3	0	0	0	0	355	408	
4	0	0	0	0	355	407	
5	0	0	0	0	355	403	
6	0	0	0	0	356	408	
7	0	0	0	0	355	408	
8	0	0	0	0	356	408	
9	0	0	0	0	355	413	
10	0	0	0	0	357	409	
11	0	0	0	0	359	409	
12	0	0	0	0	359	408	
13	0	0	0	0	359	403	
14	0	0	0	0	358	408	
15	0	0	0	0	358	408	
0	0	0	0	0	357	409	
1	0	0	0	0	356	413	
2	0	0	0	0	356	409	
3	0	0	0	0	356	409	
4	0	0	0	0	358	408	
5	0	0	0	0	358	403	
6	0	0	0	0	359	409	
7	0	0	0	0	358	409	
8	0	0	0	0	359	407	
9	0	0	0	0	361	413	
10	0	0	0	0	361	408	
11	0	0	0	0	361	408	
12	0	0	0	0	361	409	
13	0	0	0	0	361	403	
14	0	0	0	0	361	408	
15	0	0	0	0	361	408	
0	0	0	0	0	361	408	
1	0	0	0	0	361	414	
2	0	0	0	0	361	409	
3	0	0	0	0	361	408	
4	0	0	0	0	361	408	
5	0	0	0	0	362	403	
6	0	0	0	0	363	408	
7	0	0	0	0	364	409	
8	0	0	0	0	365	408	
9	0	0	0	0	365	413	
10	0	0	0	0	366	408	
11	0	0	0	0	367	408	
12	0	0	0	0	367	408	
13	0	0	0	0	368	403	
14	0	0	0	0	367	408	
15	0	0	0	0	365	407	
0	0	0	0	0	364	408	
1	0	0	0	0	366	412	
2	0	0	0	0	364	408	
3	0	0	0	0	362	408	
4	0	0	0	0	362	408	
5	0	0	0	0	363	402	
6	0	0	0	0	363	408	
7	0	0	0	0	364	407	
8	0	0	0	0	365	407	
9	0	0	0	0	366	412	
10	0	0	0	0	367	407	
11	0	0	0	0	367	407	
12	0	0	0	0	365	407	
13	0	0	0	0	363	402	
14	0	0	0	0	361	407	
15	0	0	0	0	361	408	
0	0	0	0	0	361	407	
1	0	0	0	0	360	412	
2	0	0	0	0	359	407	
3	0	0	0	0	358	408	
4	0	0	0	0	358	408	
5	0	0	0	0	357	403	
6	0	0	0	0	357	408	
7	0	0	0	0	357	408	
8	0	0	0	0	356	408	
9	0	0	0	0	356	413	
10	0	0	0	0	355	408	
11	0	0	0	0	355	408	
12	0	0	0	0	353	408	
13	0	0	0	0	352	403	
14	0	0	0	0	352	408	
15	0	0	0	0	352	408	
0	0	0	0	0	350	408	
1	0	0	0	0	348	413	
2	0	0	0	0	347	409	
3	0	0	0	0	347	409	
4	0	0	0	0	347	409	
5	0	0	0	0	346	403	
6	0	0	0	0	347	409	
7	0	0	0	0	345	408	
8	0	0	0	0	345	408	
9	0	0	0	0	345	413	
10	0	0	0	0	345	409	
11	0	0	0	0	345	409	
12	0	0	0	0	344	408	
13	0	0	0	0	344	403	
14	0	0	0	0	344	408	
15	0	0	0	0	344	409	
0	0	0	0	0	345	409	
1	0	0	0	0	346	414	
2	0	0	0	0	346	409	
3	0	0	0	0	347	409	
4	0	0	0	0	348	408	
5	0	0	0	0	350	404	
6	0	0	0	0	351	408	
7	0	0	0	0	351	408	
8	0	0	0	0	351	409	
9	0	0	0	0	352	414	
10	0	0	0	0	353	409	
11	0	0	0	0	354	409	
12	0	0	0	0	355	409	
13	0	0	0	0	355	403	
14	0	0	0	0	356	409	
15	0	0	0	0	356	409	
0	0	0	0	0	356	410	
1	0	0	0	0	356	415	
2	0	0	0	0	355	410	
3	0	0	0	0	356	409	
4	0	0	0	0	356	409	
5	0	0	0	0	355	405	
6	0	0	0	0	356	410	
7	0	0	0	0	356	410	
8	0	0	0	0	356	411	
9	0	0	0	0	357	415	
10	0	0	0	0	357	410	
11	0	0	0	0	355	411	
12	0	0	0	0	353	410	
13	0	0	0	0	351	406	
14	0	0	0	0	349	411	
15	0	0	0	0	349	411	
0	0	0	0	0	349	412	
1	0	0	0	0	347	416	
2	0	0	0	0	347	411	
3	0	0	0	0	347	411	
4	0	0	0	0	349	411	
5	0	0	0	0	347	406	
6	0	0	0	0	345	411	
7	0	0	0	0	345	411	
8	0	0	0	0	345	411	
9	0	0	0	0	347	416	
10	0	0	0	0	347	411	
11	0	0	0	0	347	411	
12	0	0	0	0	347	411	
13	0	0	0	0	347	406	
14	0	0	0	0	347	411	
15	0	0	0	0	347	411	
0	0	0	0	0	346	410	
1	0	0	0	0	346	415	
2	0	0	0	0	346	410	
3	0	0	0	0	345	410	
4	0	0	0	0	346	409	
5	0	0	0	0	347	404	
6	0	0	0	0	347	409	
7	0	0	0	0	348	410	
8	0	0	0	0	348	410	
9	0	0	0	0	348	414	
10	0	0	0	0	350	409	
11	0	0	0	0	350	410	
12	0	0	0	0	349	409	
13	0	0	0	0	350	405	
14	0	0	0	0	351	410	
15	0	0	0	0	352	410	
0	0	0	0	0	351	410	
1	0	0	0	0	350	414	
2	0	0	0	0	355	410	
3	0	0	0	0	355	410	
4	0	0	0	0	357	410	
5	0	0	0	0	359	406	
6	0	0	0	0	359	411	
7	0	0	0	0	358	411	
8	0	0	0	0	360	411	
9	0	0	0	0	361	415	
10	0	0	0	0	363	411	
11	0	0	0	0	365	411	
12	0	0	0	0	367	411	
13	0	0	0	0	368	405	
14	0	0	0	0	368	411	
15	0	0	0	0	369	411	
0	0	0	0	0	367	411	
1	0	0	0	0	366	415	
2	0	0	0	0	365	411	
3	0	0	0	0	363	411	
4	0	0	0	0	363	411	
5	0	0	0	0	364	406	
6	0	0	0	0	364	410	
7	0	0	0	0	364	411	
8	0	0	0	0	363	412	
9	0	0	0	0	361	416	
10	0	0	0	0	360	411	
11	0	0	0	0	360	411	
12	0	0	0	0	360	411	
13	0	0	0	0	359	406	
14	0	0	0	0	359	411	
15	0	0	0	0	359	411	
0	0	0	0	0	361	410	
1	0	0	0	0	361	416	
2	0	0	0	0	361	410	
3	0	0	0	0	362	411	
4	0	0	0	0	363	411	
5	0	0	0	0	364	406	
6	0	0	0	0	364	410	
7	0	0	0	0	365	409	
8	0	0	0	0	365	410	
9	0	0	0	0	367	414	
10	0	0	0	0	368	409	
11	0	0	0	0	370	409	
12	0	0	0	0	371	408	
13	0	0	0	0	372	403	
14	0	0	0	0	374	408	
15	0	0	0	0	374	408	
0	0	0	0	0	376	408	
1	0	0	0	0	380	412	
2	0	0	0	0	383	408	
3	0	0	0	0	384	408	
4	0	0	0	0	387	407	
5	0	0	0	0	390	403	
6	0	0	0	0	391	407	
7	0	0	0	0	393	407	
8	0	0	0	0	395	406	
9	0	0	0	0	397	411	
10	0	0	0	0	399	405	
11	0	0	0	0	401	406	
12	0	0	0	0	401	405	
13	0	0	0	0	403	399	
14	0	0	0	0	403	404	
15	0	0	0	0	403	404	
0	0	0	0	0	403	405	
1	0	0	0	0	404	409	
2	0	0	0	0	405	404	
3	0	0	0	0	405	404	
4	0	0	0	0	406	404	
5	0	0	0	0	403	399	
6	0	0	0	0	404	405	
7	0	0	0	0	407	404	
8	0	0	0	0	407	404	
9	0	0	0	0	407	409	
10	0	0	0	0	407	404	
11	0	0	0	0	407	404	
12	0	0	0	0	406	403	
13	0	0	0	0	406	399	
14	0	0	0	0	408	404	
15	0	0	0	0	408	405	
0	0	0	0	0	409	404	
1	0	0	0	0	411	409	
2	0	0	0	0	413	404	
3	0	0	0	0	415	404	
4	0	0	0	0	415	405	
5	0	0	0	0	413	399	
6	0	0	0	0	414	405	
7	0	0	0	0	415	406	
8	0	0	0	0	417	404	
9	0	0	0	0	418	409	
10	0	0	0	0	419	404	
11	0	0	0	0	422	404	
12	0	0	0	0	424	404	
13	0	0	0	0	427	399	
14	0	0	0	0	427	404	
15	0	0	0	0	430	405	
0	0	0	0	0	431	404	
1	0	0	0	0	432	409	
2	0	0	0	0	433	405	
3	0	0	0	0	431	404	
4	0	0	0	0	430	405	
5	0	0	0	0	431	399	
6	0	0	0	0	434	405	
7	0	0	0	0	437	405	
8	0	0	0	0	440	405	
9	0	0	0	0	443	410	
10	0	0	0	0	447	405	
11	0	0	0	0	448	405	
12	0	0	0	0	449	405	
13	0	0	0	0	451	399	
14	0	0	0	0	452	405	
15	0	0	0	0	454	406	
0	0	0	0	0	456	406	
1	0	0	0	0	458	410	
2	0	0	0	0	458	405	
3	0	0	0	0	459	406	
4	0	0	0	0	461	406	
5	0	0	0	0	463	401	
6	0	0	0	0	463	407	
7	0	0	0	0	466	406	
8	0	0	0	0	468	406	
9	0	0	0	0	469	411	
10	0	0	0	0	468	406	
11	0	0	0	0	469	405	
12	0	0	0	0	469	406	
13	0	0	0	0	470	401	
14	0	0	0	0	471	407	
15	0	0	0	0	472	406	
0	0	0	0	0	472	407	
1	0	0	0	0	473	411	
2	0	0	0	0	475	407	
3	0	0	0	0	475	407	
4	0	0	0	0	476	406	
5	0	0	0	0	475	402	
6	0	0	0	0	476	408	
7	0	0	0	0	478	407	
8	0	0	0	0	480	407	
9	0	0	0	0	480	413	
10	0	0	0	0	479	408	
11	0	0	0	0	479	408	
12	0	0	0	0	480	408	
13	0	0	0	0	480	403	
14	0	0	0	0	480	408	
15	0	0	0	0	480	409	
0	0	0	0	0	480	408	
1	0	0	0	0	481	413	
2	0	0	0	0	480	408	
3	0	0	0	0	476	408	
4	0	0	0	0	470	408	
5	0	0	0	0	460	402	
6	0	0	0	0	448	407	
7	0	0	0	0	431	408	
8	0	0	0	0	409	408	
9	0	0	0	0	387	413	
10	0	0	0	0	363	408	
11	0	0	0	0	336	408	
12	0	0	0	0	309	408	
13	0	0	0	0	282	403	
14	0	0	0	0	257	409	
15	0	0	0	0	234	409	
0	0	0	0	0	213	409	
1	0	0	0	0	195	414	
2	0	0	0	0	178	409	
3	0	0	0	0	165	409	
4	0	0	0	0	160	409	
5	0	0	0	0	163	404	
6	0	0	0	0	175	409	
7	0	0	0	0	195	409	
8	0	0	0	0	228	408	
9	0	0	0	0	277	413	
10	0	0	0	0	341	408	
11	0	0	0	0	417	408	
12	0	0	0	0	496	408	
13	0	0	0	0	570	403	
14	0	0	0	0	640	407	
15	0	0	0	0	702	407	
0	0	0	0	0	755	406	
1	0	0	0	0	799	411	
2	0	0	0	0	837	406	
3	0	0	0	0	870	406	
4	0	0	0	0	891	406	
5	0	0	0	0	909	401	
6	0	0	0	0	928	406	
7	0	0	0	0	952	406	
8	0	0	0	0	981	407	
9	0	0	0	0	1012	411	
10	0	0	0	0	1022	406	
11	0	0	0	0	1022	406	
12	0	0	0	0	1022	406	
13	0	0	0	0	1022	401	
14	0	0	0	0	1021	406	
15	0	0	0	0	998	406	
0	0	0	0	0	969	407	
1	0	0	0	0	936	412	
2	0	0	0	0	902	407	
3	0	0	0	0	868	407	
4	0	0	0	0	832	408	
5	0	0	0	0	798	403	
6	0	0	0	0	766	408	
7	0	0	0	0	736	408	
8	0	0	0	0	707	408	
9	0	0	0	0	677	413	
10	0	0	0	0	650	408	
11	0	0	0	0	624	408	
12	0	0	0	0	600	408	
13	0	0	0	0	576	404	
14	0	0	0	0	552	408	
15	0	0	0	0	531	408	
0	0	0	0	0	512	409	
1	0	0	0	0	494	414	
2	0	0	0	0	478	409	
3	0	0	0	0	465	408	
4	0	0	0	0	454	408	
5	0	0	0	0	443	403	
6	0	0	0	0	436	408	
7	0	0	0	0	432	409	
8	0	0	0	0	427	409	
9	0	0	0	0	423	413	
10	0	0	0	0	422	409	
11	0	0	0	0	420	409	
12	0	0	0	0	418	409	
13	0	0	0	0	417	404	
14	0	0	0	0	414	409	
15	0	0	0	0	414	409	
0	0	0	0	0	414	411	
1	0	0	0	0	414	415	
2	0	0	0	0	413	411	
3	0	0	0	0	413	411	
4	0	0	0	0	413	411	
5	0	0	0	0	413	406	
6	0	0	0	0	412	412	
7	0	0	0	0	411	412	
8	0	0	0	0	411	412	
9	0	0	0	0	411	417	
10	0	0	0	0	411	412	
11	0	0	0	0	411	411	
12	0	0	0	0	410	411	
13	0	0	0	0	409	406	
14	0	0	0	0	411	410	
15	0	0	0	0	411	410	
0	0	0	0	0	412	411	
1	0	0	0	0	412	414	
2	0	0	0	0	413	410	
3	0	0	0	0	412	411	
4	0	0	0	0	412	410	
5	0	0	0	0	413	406	
6	0	0	0	0	414	411	
7	0	0	0	0	415	411	
8	0	0	0	0	413	412	
9	0	0	0	0	413	416	
10	0	0	0	0	414	412	
11	0	0	0	0	412	413	
12	0	0	0	0	411	413	
13	0	0	0	0	410	409	
14	0	0	0	0	409	414	
15	0	0	0	0	409	414	
0	0	0	0	0	409	414	
1	0	0	0	0	410	419	
2	0	0	0	0	411	414	
3	0	0	0	0	411	414	
4	0	0	0	0	412	414	
5	0	0	0	0	414	410	
6	0	0	0	0	416	415	
7	0	0	0	0	417	415	
8	0	0	0	0	418	414	
9	0	0	0	0	418	419	
10	0	0	0	0	416	415	
11	0	0	0	0	417	414	
12	0	0	0	0	419	415	
13	0	0	0	0	419	410	
14	0	0	0	0	420	415	
15	0	0	0	0	422	415	
0	0	0	0	0	421	416	
1	0	0	0	0	421	420	
2	0	0	0	0	423	416	
3	0	0	0	0	423	416	
4	0	0	0	0	424	416	
5	0	0	0	0	426	412	
6	0	0	0	0	426	417	
7	0	0	0	0	426	416	
8	0	0	0	0	427	416	
9	0	0	0	0	428	422	
10	0	0	0	0	430	416	
11	0	0	0	0	430	416	
12	0	0	0	0	432	416	
13	0	0	0	0	432	411	
14	0	0	0	0	434	416	
15	0	0	0	0	435	415	
0	0	0	0	0	437	415	
1	0	0	0	0	438	419	
2	0	0	0	0	440	415	
3	0	0	0	0	443	415	
4	0	0	0	0	445	414	
5	0	0	0	0	447	409	
6	0	0	0	0	450	414	
7	0	0	0	0	452	413	
8	0	0	0	0	453	413	
9	0	0	0	0	455	417	
10	0	0	0	0	456	413	
11	0	0	0	0	456	413	
12	0	0	0	0	458	412	
13	0	0	0	0	459	407	
14	0	0	0	0	459	412	
15	0	0	0	0	460	412	
0	0	0	0	0	460	412	
1	0	0	0	0	459	417	
2	0	0	0	0	462	412	
3	0	0	0	0	463	412	
4	0	0	0	0	464	412	
5	0	0	0	0	465	408	
6	0	0	0	0	467	412	
7	0	0	0	0	469	412	
8	0	0	0	0	470	412	
9	0	0	0	0	473	416	
10	0	0	0	0	476	411	
11	0	0	0	0	477	411	
12	0	0	0	0	480	411	
13	0	0	0	0	481	405	
14	0	0	0	0	482	410	
15	0	0	0	0	482	410	
0	0	0	0	0	483	410	
1	0	0	0	0	483	415	
2	0	0	0	0	483	410	
3	0	0	0	0	484	409	
4	0	0	0	0	487	408	
5	0	0	0	0	486	403	
6	0	0	0	0	487	408	
7	0	0	0	0	488	409	
8	0	0	0	0	488	409	
9	0	0	0	0	489	413	
10	0	0	0	0	490	408	
11	0	0	0	0	490	408	
12	0	0	0	0	490	408	
13	0	0	0	0	490	404	
14	0	0	0	0	492	409	
15	0	0	0	0	493	409	
0	0	0	0	0	493	409	
1	0	0	0	0	494	413	
2	0	0	0	0	496	409	
3	0	0	0	0	496	409	
4	0	0	0	0	496	409	
5	0	0	0	0	496	404	
6	0	0	0	0	497	409	
7	0	0	0	0	495	409	
8	0	0	0	0	495	409	
9	0	0	0	0	494	414	
10	0	0	0	0	494	409	
11	0	0	0	0	493	409	
12	0	0	0	0	495	409	
13	0	0	0	0	496	403	
14	0	0	0	0	496	408	
15	0	0	0	0	496	408	
0	0	0	0	0	498	408	
1	0	0	0	0	499	412	
2	0	0	0	0	502	407	
3	0	0	0	0	505	407	
4	0	0	0	0	505	408	
5	0	0	0	0	504	402	
6	0	0	0	0	505	407	
7	0	0	0	0	507	407	
8	0	0	0	0	508	407	
9	0	0	0	0	507	412	
10	0	0	0	0	508	407	
11	0	0	0	0	510	407	
12	0	0	0	0	511	408	
13	0	0	0	0	513	403	
14	0	0	0	0	515	408	
15	0	0	0	0	516	408	
0	0	0	0	0	514	408	
1	0	0	0	0	515	413	
2	0	0	0	0	515	408	
3	0	0	0	0	515	409	
4	0	0	0	0	516	408	
5	0	0	0	0	517	404	
6	0	0	0	0	517	408	
7	0	0	0	0	518	408	
8	0	0	0	0	519	408	
9	0	0	0	0	519	412	
10	0	0	0	0	522	409	
11	0	0	0	0	523	408	
12	0	0	0	0	524	408	
13	0	0	0	0	525	403	
14	0	0	0	0	526	408	
15	0	0	0	0	527	408	
0	0	0	0	0	528	409	
1	0	0	0	0	530	413	
2	0	0	0	0	531	408	
3	0	0	0	0	532	409	
4	0	0	0	0	532	409	
5	0	0	0	0	531	404	
6	0	0	0	0	532	409	
7	0	0	0	0	533	409	
8	0	0	0	0	533	410	
9	0	0	0	0	532	415	
10	0	0	0	0	531	410	
11	0	0	0	0	531	411	
12	0	0	0	0	531	411	
13	0	0	0	0	532	406	
14	0	0	0	0	532	411	
15	0	0	0	0	532	411	
0	0	0	0	0	535	412	
1	0	0	0	0	538	416	
2	0	0	0	0	541	412	
3	0	0	0	0	541	412	
4	0	0	0	0	542	411	
5	0	0	0	0	543	407	
6	0	0	0	0	543	412	
7	0	0	0	0	543	412	
8	0	0	0	0	543	412	
9	0	0	0	0	543	417	
10	0	0	0	0	543	412	
11	0	0	0	0	540	412	
12	0	0	0	0	538	411	
13	0	0	0	0	537	407	
14	0	0	0	0	537	412	
15	0	0	0	0	536	411	
0	0	0	0	0	535	412	
1	0	0	0	0	534	416	
2	0	0	0	0	533	412	
3	0	0	0	0	530	412	
4	0	0	0	0	529	412	
5	0	0	0	0	527	407	
6	0	0	0	0	525	412	
7	0	0	0	0	522	412	
8	0	0	0	0	517	412	
9	0	0	0	0	512	416	
10	0	0	0	0	511	411	
11	0	0	0	0	510	411	
12	0	0	0	0	506	411	
13	0	0	0	0	502	406	
14	0	0	0	0	495	411	
15	0	0	0	0	490	411	
0	0	0	0	0	487	411	
1	0	0	0	0	483	415	
2	0	0	0	0	480	411	
3	0	0	0	0	478	411	
4	0	0	0	0	476	410	
5	0	0	0	0	474	405	
6	0	0	0	0	472	411	
7	0	0	0	0	470	411	
8	0	0	0	0	467	411	
9	0	0	0	0	466	415	
10	0	0	0	0	464	410	
11	0	0	0	0	462	410	
12	0	0	0	0	460	410	
13	0	0	0	0	457	405	
14	0	0	0	0	456	410	
15	0	0	0	0	455	410	
0	0	0	0	0	453	410	
1	0	0	0	0	453	415	
2	0	0	0	0	452	411	
3	0	0	0	0	450	410	
4	0	0	0	0	447	410	
5	0	0	0	0	447	405	
6	0	0	0	0	446	410	
7	0	0	0	0	444	410	
8	0	0	0	0	444	409	
9	0	0	0	0	444	415	
10	0	0	0	0	444	410	
11	0	0	0	0	444	410	
12	0	0	0	0	444	410	
13	0	0	0	0	446	405	
14	0	0	0	0	444	410	
15	0	0	0	0	445	410	
0	0	0	0	0	449	410	
1	0	0	0	0	448	415	
2	0	0	0	0	449	410	
3	0	0	0	0	450	409	
4	0	0	0	0	451	409	
5	0	0	0	0	450	405	
6	0	0	0	0	450	411	
7	0	0	0	0	449	410	
8	0	0	0	0	447	410	
9	0	0	0	0	449	414	
10	0	0	0	0	451	409	
11	0	0	0	0	451	409	
12	0	0	0	0	451	409	
13	0	0	0	0	454	403	
14	0	0	0	0	455	409	
15	0	0	0	0	455	409	
0	0	0	0	0	455	410	
1	0	0	0	0	455	414	
2	0	0	0	0	456	409	
3	0	0	0	0	455	409	
4	0	0	0	0	457	409	
5	0	0	0	0	459	404	
6	0	0	0	0	460	408	
7	0	0	0	0	460	408	
8	0	0	0	0	460	408	
9	0	0	0	0	459	412	
10	0	0	0	0	459	408	
11	0	0	0	0	459	408	
12	0	0	0	0	457	408	
13	0	0	0	0	455	403	
14	0	0	0	0	455	409	
15	0	0	0	0	455	409	
0	0	0	0	0	455	409	
1	0	0	0	0	456	413	
2	0	0	0	0	458	408	
3	0	0	0	0	460	408	
4	0	0	0	0	460	408	
5	0	0	0	0	460	404	
6	0	0	0	0	461	409	
7	0	0	0	0	460	409	
8	0	0	0	0	461	409	
9	0	0	0	0	461	414	
10	0	0	0	0	462	408	
11	0	0	0	0	463	408	
12	0	0	0	0	464	408	
13	0	0	0	0	463	403	
14	0	0	0	0	463	408	
15	0	0	0	0	465	408	
0	0	0	0	0	467	408	
1	0	0	0	0	467	412	
2	0	0	0	0	468	408	
3	0	0	0	0	469	408	
4	0	0	0	0	470	408	
5	0	0	0	0	469	403	
6	0	0	0	0	468	408	
7	0	0	0	0	467	408	
8	0	0	0	0	467	408	
9	0	0	0	0	467	413	
10	0	0	0	0	467	408	
11	0	0	0	0	467	408	
12	0	0	0	0	466	408	
13	0	0	0	0	466	403	
14	0	0	0	0	465	408	
15	0	0	0	0	465	408	
0	0	0	0	0	465	409	
1	0	0	0	0	465	413	
2	0	0	0	0	465	408	
3	0	0	0	0	465	408	
4	0	0	0	0	463	408	
5	0	0	0	0	462	403	
6	0	0	0	0	462	408	
7	0	0	0	0	463	409	
8	0	0	0	0	462	409	
9	0	0	0	0	460	414	
10	0	0	0	0	462	409	
11	0	0	0	0	462	409	
12	0	0	0	0	463	410	
13	0	0	0	0	463	405	
14	0	0	0	0	463	409	
15	0	0	0	0	464	409	
0	0	0	0	0	463	410	
1	0	0	0	0	462	414	
2	0	0	0	0	462	409	
3	0	0	0	0	462	409	
4	0	0	0	0	461	409	
5	0	0	0	0	460	405	
6	0	0	0	0	460	410	
7	0	0	0	0	459	410	
8	0	0	0	0	460	411	
9	0	0	0	0	460	415	
10	0	0	0	0	459	410	
11	0	0	0	0	461	411	
12	0	0	0	0	462	411	
13	0	0	0	0	463	405	
14	0	0	0	0	464	411	
15	0	0	0	0	464	411	
0	0	0	0	0	465	411	
1	0	0	0	0	467	415	
2	0	0	0	0	467	411	
3	0	0	0	0	467	411	
4	0	0	0	0	468	411	
5	0	0	0	0	468	406	
6	0	0	0	0	466	411	
7	0	0	0	0	467	411	
8	0	0	0	0	468	411	
9	0	0	0	0	468	415	
10	0	0	0	0	468	411	
11	0	0	0	0	467	412	
12	0	0	0	0	471	411	
13	0	0	0	0	471	406	
14	0	0	0	0	472	412	
15	0	0	0	0	473	411	
0	0	0	0	0	473	411	
1	0	0	0	0	473	416	
2	0	0	0	0	476	411	
3	0	0	0	0	476	412	
4	0	0	0	0	477	411	
5	0	0	0	0	478	406	
6	0	0	0	0	479	411	
7	0	0	0	0	480	412	
8	0	0	0	0	481	412	
9	0	0	0	0	480	416	
10	0	0	0	0	484	411	
11	0	0	0	0	486	411	
12	0	0	0	0	485	411	
13	0	0	0	0	483	405	
14	0	0	0	0	481	411	
15	0	0	0	0	480	411	
0	0	0	0	0	482	410	
1	0	0	0	0	482	416	
2	0	0	0	0	481	411	
3	0	0	0	0	483	411	
4	0	0	0	0	484	411	
5	0	0	0	0	486	406	
6	0	0	0	0	487	411	
7	0	0	0	0	486	411	
8	0	0	0	0	487	412	
9	0	0	0	0	486	416	
10	0	0	0	0	485	411	
11	0	0	0	0	485	411	
12	0	0	0	0	485	410	
13	0	0	0	0	483	406	
14	0	0	0	0	485	411	
15	0	0	0	0	482	411	
0	0	0	0	0	482	412	
1	0	0	0	0	481	416	
2	0	0	0	0	484	412	
3	0	0	0	0	487	411	
4	0	0	0	0	487	411	
5	0	0	0	0	487	406	
6	0	0	0	0	488	411	
7	0	0	0	0	488	411	
8	0	0	0	0	488	411	
9	0	0	0	0	489	415	
10	0	0	0	0	487	411	
11	0	0	0	0	486	411	
12	0	0	0	0	486	410	
13	0	0	0	0	487	405	
14	0	0	0	0	489	411	
15	0	0	0	0	492	411	
0	0	0	0	0	494	412	
1	0	0	0	0	496	416	
2	0	0	0	0	497	411	
3	0	0	0	0	499	412	
4	0	0	0	0	503	411	
5	0	0	0	0	504	406	
6	0	0	0	0	505	412	
7	0	0	0	0	506	411	
8	0	0	0	0	508	411	
9	0	0	0	0	510	415	
10	0	0	0	0	512	411	
11	0	0	0	0	513	410	
12	0	0	0	0	515	410	
13	0	0	0	0	518	406	
14	0	0	0	0	519	411	
15	0	0	0	0	520	411	
0	0	0	0	0	520	412	
1	0	0	0	0	519	415	
2	0	0	0	0	521	411	
3	0	0	0	0	523	411	
4	0	0	0	0	524	411	
5	0	0	0	0	525	405	
6	0	0	0	0	526	411	
7	0	0	0	0	527	411	
8	0	0	0	0	528	411	
9	0	0	0	0	529	415	
10	0	0	0	0	528	410	
11	0	0	0	0	529	410	
12	0	0	0	0	530	409	
13	0	0	0	0	528	404	
14	0	0	0	0	526	408	
15	0	0	0	0	527	409	
0	0	0	0	0	527	409	
1	0	0	0	0	527	413	
2	0	0	0	0	527	409	
3	0	0	0	0	531	408	
4	0	0	0	0	532	407	
5	0	0	0	0	532	403	
6	0	0	0	0	530	408	
7	0	0	0	0	532	407	
8	0	0	0	0	535	408	
9	0	0	0	0	537	412	
10	0	0	0	0	538	407	
11	0	0	0	0	537	407	
12	0	0	0	0	535	407	
13	0	0	0	0	534	402	
14	0	0	0	0	534	407	
15	0	0	0	0	535	407	
0	0	0	0	0	535	407	
1	0	0	0	0	535	412	
2	0	0	0	0	536	407	
3	0	0	0	0	537	406	
4	0	0	0	0	538	407	
5	0	0	0	0	537	402	
6	0	0	0	0	534	407	
7	0	0	0	0	533	407	
8	0	0	0	0	534	406	
9	0	0	0	0	536	411	
10	0	0	0	0	537	407	
11	0	0	0	0	539	406	
12	0	0	0	0	541	406	
13	0	0	0	0	543	402	
14	0	0	0	0	545	407	
15	0	0	0	0	547	408	
0	0	0	0	0	550	407	
1	0	0	0	0	551	413	
2	0	0	0	0	551	408	
3	0	0	0	0	551	407	
4	0	0	0	0	553	407	
5	0	0	0	0	554	402	
6	0	0	0	0	554	408	
7	0	0	0	0	554	408	
8	0	0	0	0	554	408	
9	0	0	0	0	555	413	
10	0	0	0	0	554	408	
11	0	0	0	0	554	408	
12	0	0	0	0	555	409	
13	0	0	0	0	555	404	
14	0	0	0	0	552	409	
15	0	0	0	0	553	409	
0	0	0	0	0	556	409	
1	0	0	0	0	553	414	
2	0	0	0	0	553	409	
3	0	0	0	0	554	409	
4	0	0	0	0	552	409	
5	0	0	0	0	550	404	
6	0	0	0	0	547	409	
7	0	0	0	0	546	409	
8	0	0	0	0	548	409	
9	0	0	0	0	550	414	
10	0	0	0	0	550	409	
11	0	0	0	0	549	409	
12	0	0	0	0	550	410	
13	0	0	0	0	550	404	
14	0	0	0	0	551	409	
15	0	0	0	0	552	410	
0	0	0	0	0	551	411	
1	0	0	0	0	550	415	
2	0	0	0	0	551	410	
3	0	0	0	0	551	410	
4	0	0	0	0	551	409	
5	0	0	0	0	549	404	
6	0	0	0	0	545	409	
7	0	0	0	0	543	409	
8	0	0	0	0	538	409	
9	0	0	0	0	530	414	
10	0	0	0	0	516	410	
11	0	0	0	0	497	409	
12	0	0	0	0	479	409	
13	0	0	0	0	457	403	
14	0	0	0	0	433	409	
15	0	0	0	0	408	409	
0	0	0	0	0	382	409	
1	0	0	0	0	356	413	
2	0	0	0	0	335	409	
3	0	0	0	0	313	408	
4	0	0	0	0	292	408	
5	0	0	0	0	272	403	
6	0	0	0	0	256	408	
7	0	0	0	0	246	408	
8	0	0	0	0	241	409	
9	0	0	0	0	243	413	
10	0	0	0	0	252	408	
11	0	0	0	0	270	408	
12	0	0	0	0	298	408	
13	0	0	0	0	341	403	
14	0	0	0	0	400	409	
15	0	0	0	0	468	408	
0	0	0	0	0	543	409	
1	0	0	0	0	613	414	
2	0	0	0	0	677	408	
3	0	0	0	0	735	408	
4	0	0	0	0	783	408	
5	0	0	0	0	824	403	
6	0	0	0	0	861	408	
7	0	0	0	0	891	407	
8	0	0	0	0	912	407	
9	0	0	0	0	932	412	
10	0	0	0	0	956	406	
11	0	0	0	0	986	407	
12	0	0	0	0	1020	407	
13	0	0	0	0	1022	402	
14	0	0	0	0	1022	407	
15	0	0	0	0	1022	407	
0	0	0	0	0	1022	407	
1	0	0	0	0	1022	412	
2	0	0	0	0	1022	407	
3	0	0	0	0	1022	407	
4	0	0	0	0	1021	407	
5	0	0	0	0	988	401	
6	0	0	0	0	953	407	
7	0	0	0	0	918	407	
8	0	0	0	0	884	407	
9	0	0	0	0	851	412	
10	0	0	0	0	819	408	
11	0	0	0	0	788	408	
12	0	0	0	0	760	408	
13	0	0	0	0	732	402	
14	0	0	0	0	702	408	
15	0	0	0	0	675	409	
0	0	0	0	0	648	409	
1	0	0	0	0	624	413	
2	0	0	0	0	601	408	
3	0	0	0	0	578	408	
4	0	0	0	0	561	409	
5	0	0	0	0	546	403	
6	0	0	0	0	532	409	
7	0	0	0	0	519	409	
8	0	0	0	0	509	409	
9	0	0	0	0	501	414	
10	0	0	0	0	494	409	
11	0	0	0	0	487	409	
12	0	0	0	0	481	408	
13	0	0	0	0	476	403	
14	0	0	0	0	471	408	
15	0	0	0	0	465	408	
0	0	0	0	0	463	408	
1	0	0	0	0	463	412	
2	0	0	0	0	462	407	
3	0	0	0	0	463	407	
4	0	0	0	0	463	406	
5	0	0	0	0	462	401	
6	0	0	0	0	464	407	
7	0	0	0	0	464	407	
8	0	0	0	0	465	407	
9	0	0	0	0	467	412	
10	0	0	0	0	467	407	
11	0	0	0	0	468	407	
12	0	0	0	0	468	406	
13	0	0	0	0	467	401	
14	0	0	0	0	468	407	
15	0	0	0	0	469	406	
0	0	0	0	0	469	406	
1	0	0	0	0	469	411	
2	0	0	0	0	470	406	
3	0	0	0	0	470	406	
4	0	0	0	0	469	406	
5	0	0	0	0	472	401	
6	0	0	0	0	475	406	
7	0	0	0	0	477	406	
8	0	0	0	0	479	406	
9	0	0	0	0	478	410	
10	0	0	0	0	480	406	
11	0	0	0	0	480	406	
12	0	0	0	0	480	407	
13	0	0	0	0	480	402	
14	0	0	0	0	481	408	
15	0	0	0	0	483	408	
0	0	0	0	0	484	409	
1	0	0	0	0	485	414	
2	0	0	0	0	484	410	
3	0	0	0	0	484	411	
4	0	0	0	0	487	413	
5	0	0	0	0	487	408	
6	0	0	0	0	488	414	
7	0	0	0	0	489	415	
8	0	0	0	0	491	416	
9	0	0	0	0	491	421	
10	0	0	0	0	492	417	
11	0	0	0	0	491	418	
12	0	0	0	0	491	417	
13	0	0	0	0	491	414	
14	0	0	0	0	491	418	
15	0	0	0	0	491	419	
0	0	0	0	0	493	419	
1	0	0	0	0	496	424	
2	0	0	0	0	497	419	
3	0	0	0	0	498	420	
4	0	0	0	0	499	420	
5	0	0	0	0	499	415	
6	0	0	0	0	497	420	
7	0	0	0	0	496	419	
8	0	0	0	0	496	420	
9	0	0	0	0	499	423	
10	0	0	0	0	501	420	
11	0	0	0	0	502	419	
12	0	0	0	0	503	418	
13	0	0	0	0	504	414	
14	0	0	0	0	506	419	
15	0	0	0	0	508	418	
0	0	0	0	0	509	417	
1	0	0	0	0	510	422	
2	0	0	0	0	511	418	
3	0	0	0	0	512	416	
4	0	0	0	0	513	416	
5	0	0	0	0	513	410	
6	0	0	0	0	513	416	
7	0	0	0	0	514	415	
8	0	0	0	0	515	415	
9	0	0	0	0	515	419	
10	0	0	0	0	516	414	
11	0	0	0	0	519	414	
12	0	0	0	0	520	413	
13	0	0	0	0	522	408	
14	0	0	0	0	524	413	
15	0	0	0	0	524	413	
0	0	0	0	0	526	412	
1	0	0	0	0	528	417	
2	0	0	0	0	529	412	
3	0	0	0	0	531	411	
4	0	0	0	0	532	410	
5	0	0	0	0	533	405	
6	0	0	0	0	535	409	
7	0	0	0	0	537	409	
8	0	0	0	0	537	409	
9	0	0	0	0	537	413	
10	0	0	0	0	538	408	
11	0	0	0	0	539	408	
12	0	0	0	0	539	408	
13	0	0	0	0	535	403	
14	0	0	0	0	534	408	
15	0	0	0	0	537	408	
0	0	0	0	0	535	407	
1	0	0	0	0	533	412	
2	0	0	0	0	534	406	
3	0	0	0	0	535	406	
4	0	0	0	0	536	406	
5	0	0	0	0	537	400	
6	0	0	0	0	540	406	
7	0	0	0	0	539	406	
8	0	0	0	0	540	406	
9	0	0	0	0	543	411	
10	0	0	0	0	544	405	
11	0	0	0	0	545	406	
12	0	0	0	0	544	406	
13	0	0	0	0	544	400	
14	0	0	0	0	544	406	
15	0	0	0	0	544	404	
0	0	0	0	0	545	405	
1	0	0	0	0	544	410	
2	0	0	0	0	545	405	
3	0	0	0	0	546	405	
4	0	0	0	0	547	405	
5	0	0	0	0	548	399	
6	0	0	0	0	547	405	
7	0	0	0	0	546	405	
8	0	0	0	0	547	405	
9	0	0	0	0	549	410	
10	0	0	0	0	550	405	
11	0	0	0	0	551	405	
12	0	0	0	0	551	405	
13	0	0	0	0	553	400	
14	0	0	0	0	553	405	
15	0	0	0	0	553	404	
0	0	0	0	0	555	405	
1	0	0	0	0	555	409	
2	0	0	0	0	556	405	
3	0	0	0	0	557	405	
4	0	0	0	0	558	404	
5	0	0	0	0	559	399	
6	0	0	0	0	560	404	
7	0	0	0	0	562	404	
8	0	0	0	0	563	404	
9	0	0	0	0	565	410	
10	0	0	0	0	567	405	
11	0	0	0	0	566	404	
12	0	0	0	0	567	404	
13	0	0	0	0	568	399	
14	0	0	0	0	570	404	
15	0	0	0	0	570	404	
0	0	0	0	0	570	405	
1	0	0	0	0	572	409	
2	0	0	0	0	574	405	
3	0	0	0	0	575	405	
4	0	0	0	0	575	405	
5	0	0	0	0	576	401	
6	0	0	0	0	577	406	
7	0	0	0	0	578	406	
8	0	0	0	0	579	406	
9	0	0	0	0	580	411	
10	0	0	0	0	583	407	
11	0	0	0	0	584	407	
12	0	0	0	0	586	406	
13	0	0	0	0	585	401	
14	0	0	0	0	585	407	
15	0	0	0	0	585	407	
0	0	0	0	0	586	407	
1	0	0	0	0	587	412	
2	0	0	0	0	590	407	
3	0	0	0	0	589	407	
4	0	0	0	0	588	406	
5	0	0	0	0	588	402	
6	0	0	0	0	590	407	
7	0	0	0	0	590	408	
8	0	0	0	0	590	408	
9	0	0	0	0	591	412	
10	0	0	0	0	592	407	
11	0	0	0	0	591	407	
12	0	0	0	0	591	407	
13	0	0	0	0	592	403	
14	0	0	0	0	592	407	
15	0	0	0	0	593	408	
0	0	0	0	0	593	408	
1	0	0	0	0	592	413	
2	0	0	0	0	592	408	
3	0	0	0	0	592	408	
4	0	0	0	0	593	408	
5	0	0	0	0	594	403	
6	0	0	0	0	595	408	
7	0	0	0	0	596	409	
8	0	0	0	0	598	408	
9	0	0	0	0	598	413	
10	0	0	0	0	596	409	
11	0	0	0	0	597	408	
12	0	0	0	0	597	408	
13	0	0	0	0	595	404	
14	0	0	0	0	593	409	
15	0	0	0	0	594	409	
0	0	0	0	0	594	409	
1	0	0	0	0	594	414	
2	0	0	0	0	593	409	
3	0	0	0	0	590	409	
4	0	0	0	0	589	409	
5	0	0	0	0	587	404	
6	0	0	0	0	583	409	
7	0	0	0	0	580	409	
8	0	0	0	0	577	409	
9	0	0	0	0	574	414	
10	0	0	0	0	572	408	
11	0	0	0	0	571	409	
12	0	0	0	0	569	409	
13	0	0	0	0	567	404	
14	0	0	0	0	565	408	
15	0	0	0	0	563	409	
0	0	0	0	0	559	408	
1	0	0	0	0	554	413	
2	0	0	0	0	552	408	
3	0	0	0	0	549	408	
4	0	0	0	0	547	408	
5	0	0	0	0	543	403	
6	0	0	0	0	540	408	
7	0	0	0	0	537	408	
8	0	0	0	0	533	408	
9	0	0	0	0	530	413	
10	0	0	0	0	529	408	
11	0	0	0	0	526	409	
12	0	0	0	0	523	408	
13	0	0	0	0	521	403	
14	0	0	0	0	519	408	
15	0	0	0	0	517	408	
0	0	0	0	0	515	408	
1	0	0	0	0	512	414	
2	0	0	0	0	510	408	
3	0	0	0	0	509	409	
4	0	0	0	0	509	409	
5	0	0	0	0	509	403	
6	0	0	0	0	509	409	
7	0	0	0	0	508	409	
8	0	0	0	0	507	409	
9	0	0	0	0	506	413	
10	0	0	0	0	507	408	
11	0	0	0	0	506	408	
12	0	0	0	0	505	408	
13	0	0	0	0	503	403	
14	0	0	0	0	504	408	
15	0	0	0	0	504	408	
0	0	0	0	0	505	408	
1	0	0	0	0	507	413	
2	0	0	0	0	510	408	
3	0	0	0	0	511	408	
4	0	0	0	0	510	408	
5	0	0	0	0	510	403	
6	0	0	0	0	509	409	
7	0	0	0	0	508	409	
8	0	0	0	0	509	409	
9	0	0	0	0	511	414	
10	0	0	0	0	511	409	
11	0	0	0	0	510	409	
12	0	0	0	0	510	408	
13	0	0	0	0	511	404	
14	0	0	0	0	513	409	
15	0	0	0	0	515	409	
0	0	0	0	0	517	409	
1	0	0	0	0	518	414	
2	0	0	0	0	519	409	
3	0	0	0	0	521	409	
4	0	0	0	0	522	409	
5	0	0	0	0	524	404	
6	0	0	0	0	524	409	
7	0	0	0	0	526	409	
8	0	0	0	0	527	409	
9	0	0	0	0	527	414	
10	0	0	0	0	529	409	
11	0	0	0	0	529	409	
12	0	0	0	0	529	409	
13	0	0	0	0	530	404	
14	0	0	0	0	529	409	
15	0	0	0	0	529	409	
0	0	0	0	0	528	409	
1	0	0	0	0	529	413	
2	0	0	0	0	529	409	
3	0	0	0	0	530	409	
4	0	0	0	0	531	408	
5	0	0	0	0	531	403	
6	0	0	0	0	532	408	
7	0	0	0	0	533	408	
8	0	0	0	0	534	409	
9	0	0	0	0	536	413	
10	0	0	0	0	537	409	
11	0	0	0	0	538	409	
12	0	0	0	0	537	409	
13	0	0	0	0	539	403	
14	0	0	0	0	542	408	
15	0	0	0	0	542	408	
0	0	0	0	0	542	409	
1	0	0	0	0	543	414	
2	0	0	0	0	543	409	
3	0	0	0	0	543	408	
4	0	0	0	0	543	408	
5	0	0	0	0	544	403	
6	0	0	0	0	543	408	
7	0	0	0	0	543	409	
8	0	0	0	0	545	409	
9	0	0	0	0	548	413	
10	0	0	0	0	550	408	
11	0	0	0	0	550	408	
12	0	0	0	0	551	408	
13	0	0	0	0	551	403	
14	0	0	0	0	552	408	
15	0	0	0	0	552	409	
0	0	0	0	0	553	409	
1	0	0	0	0	551	414	
2	0	0	0	0	551	408	
3	0	0	0	0	548	409	
4	0	0	0	0	548	408	
5	0	0	0	0	547	403	
6	0	0	0	0	547	408	
7	0	0	0	0	547	409	
8	0	0	0	0	546	408	
9	0	0	0	0	547	414	
10	0	0	0	0	550	408	
11	0	0	0	0	551	409	
12	0	0	0	0	553	408	
13	0	0	0	0	553	403	
14	0	0	0	0	554	408	
15	0	0	0	0	556	408	
0	0	0	0	0	556	409	
1	0	0	0	0	556	413	
2	0	0	0	0	558	408	
3	0	0	0	0	560	409	
4	0	0	0	0	560	408	
5	0	0	0	0	560	403	
6	0	0	0	0	560	409	
7	0	0	0	0	560	408	
8	0	0	0	0	560	409	
9	0	0	0	0	559	414	
10	0	0	0	0	559	409	
11	0	0	0	0	560	409	
12	0	0	0	0	562	408	
13	0	0	0	0	562	403	
14	0	0	0	0	561	409	
15	0	0	0	0	563	408	
0	0	0	0	0	564	409	
1	0	0	0	0	566	414	
2	0	0	0	0	567	408	
3	0	0	0	0	568	409	
4	0	0	0	0	568	408	
5	0	0	0	0	570	403	
6	0	0	0	0	570	408	
7	0	0	0	0	572	408	
8	0	0	0	0	573	408	
9	0	0	0	0	574	413	
10	0	0	0	0	575	408	
11	0	0	0	0	575	408	
12	0	0	0	0	575	408	
13	0	0	0	0	575	403	
14	0	0	0	0	577	408	
15	0	0	0	0	578	408	
0	0	0	0	0	578	409	
1	0	0	0	0	578	413	
2	0	0	0	0	579	409	
3	0	0	0	0	578	409	
4	0	0	0	0	578	408	
5	0	0	0	0	579	403	
6	0	0	0	0	580	408	
7	0	0	0	0	582	408	
8	0	0	0	0	584	408	
9	0	0	0	0	585	412	
10	0	0	0	0	587	408	
11	0	0	0	0	590	408	
12	0	0	0	0	590	408	
13	0	0	0	0	589	402	
14	0	0	0	0	589	408	
15	0	0	0	0	590	408	
0	0	0	0	0	589	408	
1	0	0	0	0	587	412	
2	0	0	0	0	588	408	
3	0	0	0	0	589	408	
4	0	0	0	0	590	407	
5	0	0	0	0	592	402	
6	0	0	0	0	592	408	
7	0	0	0	0	593	408	
8	0	0	0	0	595	408	
9	0	0	0	0	595	412	
10	0	0	0	0	595	407	
11	0	0	0	0	595	407	
12	0	0	0	0	598	407	
13	0	0	0	0	599	403	
14	0	0	0	0	599	407	
15	0	0	0	0	598	408	
0	0	0	0	0	598	408	
1	0	0	0	0	598	412	
2	0	0	0	0	598	407	
3	0	0	0	0	596	408	
4	0	0	0	0	594	407	
5	0	0	0	0	592	402	
6	0	0	0	0	590	408	
7	0	0	0	0	590	407	
8	0	0	0	0	590	407	
9	0	0	0	0	589	412	
10	0	0	0	0	589	407	
11	0	0	0	0	589	406	
12	0	0	0	0	587	407	
13	0	0	0	0	587	402	
14	0	0	0	0	586	406	
15	0	0	0	0	586	406	
0	0	0	0	0	585	406	
1	0	0	0	0	586	411	
2	0	0	0	0	587	407	
3	0	0	0	0	585	406	
4	0	0	0	0	586	406	
5	0	0	0	0	587	401	
6	0	0	0	0	586	406	
7	0	0	0	0	585	406	
8	0	0	0	0	586	407	
9	0	0	0	0	588	411	
10	0	0	0	0	589	406	
11	0	0	0	0	590	407	
12	0	0	0	0	592	406	
13	0	0	0	0	594	401	
14	0	0	0	0	595	407	
15	0	0	0	0	595	407	
0	0	0	0	0	596	406	
1	0	0	0	0	597	411	
2	0	0	0	0	598	407	
3	0	0	0	0	600	407	
4	0	0	0	0	600	407	
5	0	0	0	0	601	401	
6	0	0	0	0	604	407	
7	0	0	0	0	606	406	
8	0	0	0	0	607	407	
9	0	0	0	0	608	411	
10	0	0	0	0	609	406	
11	0	0	0	0	610	407	
12	0	0	0	0	610	407	
13	0	0	0	0	611	401	
14	0	0	0	0	610	407	
15	0	0	0	0	611	406	
0	0	0	0	0	612	407	
1	0	0	0	0	613	412	
2	0	0	0	0	612	408	
3	0	0	0	0	611	407	
4	0	0	0	0	611	407	
5	0	0	0	0	612	402	
6	0	0	0	0	612	407	
7	0	0	0	0	613	407	
8	0	0	0	0	613	408	
9	0	0	0	0	613	412	
10	0	0	0	0	612	408	
11	0	0	0	0	612	407	
12	0	0	0	0	612	408	
13	0	0	0	0	612	403	
14	0	0	0	0	612	408	
15	0	0	0	0	612	408	
0	0	0	0	0	612	409	
1	0	0	0	0	612	414	
2	0	0	0	0	611	408	
3	0	0	0	0	610	409	
4	0	0	0	0	609	408	
5	0	0	0	0	606	403	
6	0	0	0	0	605	408	
7	0	0	0	0	603	408	
8	0	0	0	0	602	408	
9	0	0	0	0	601	414	
10	0	0	0	0	601	409	
11	0	0	0	0	602	409	
12	0	0	0	0	604	408	
13	0	0	0	0	604	403	
14	0	0	0	0	604	408	
15	0	0	0	0	606	408	
0	0	0	0	0	606	408	
1	0	0	0	0	604	413	
2	0	0	0	0	603	408	
3	0	0	0	0	603	408	
4	0	0	0	0	602	408	
5	0	0	0	0	601	403	
6	0	0	0	0	601	408	
7	0	0	0	0	601	408	
8	0	0	0	0	600	408	
9	0	0	0	0	599	413	
10	0	0	0	0	597	408	
11	0	0	0	0	594	409	
12	0	0	0	0	595	408	
13	0	0	0	0	597	403	
14	0	0	0	0	596	408	
15	0	0	0	0	596	408	
0	0	0	0	0	596	408	
1	0	0	0	0	595	413	
2	0	0	0	0	595	408	
3	0	0	0	0	594	409	
4	0	0	0	0	594	408	
5	0	0	0	0	594	403	
6	0	0	0	0	594	408	
7	0	0	0	0	592	409	
8	0	0	0	0	591	409	
9	0	0	0	0	591	413	
10	0	0	0	0	591	409	
11	0	0	0	0	590	409	
12	0	0	0	0	589	409	
13	0	0	0	0	588	403	
14	0	0	0	0	586	409	
15	0	0	0	0	585	410	
0	0	0	0	0	585	409	
1	0	0	0	0	584	414	
2	0	0	0	0	585	409	
3	0	0	0	0	585	409	
4	0	0	0	0	584	409	
5	0	0	0	0	584	404	
6	0	0	0	0	583	409	
7	0	0	0	0	583	409	
8	0	0	0	0	583	409	
9	0	0	0	0	584	414	
10	0	0	0	0	584	409	
11	0	0	0	0	583	409	
12	0	0	0	0	582	408	
13	0	0	0	0	582	404	
14	0	0	0	0	582	409	
15	0	0	0	0	581	409	
0	0	0	0	0	579	409	
1	0	0	0	0	577	414	
2	0	0	0	0	574	409	
3	0	0	0	0	567	409	
4	0	0	0	0	557	408	
5	0	0	0	0	543	404	
6	0	0	0	0	525	409	
7	0	0	0	0	506	409	
8	0	0	0	0	483	410	
9	0	0	0	0	458	414	
10	0	0	0	0	432	409	
11	0	0	0	0	407	409	
12	0	0	0	0	383	409	
13	0	0	0	0	360	404	
14	0	0	0	0	338	409	
15	0	0	0	0	316	409	
0	0	0	0	0	297	409	
1	0	0	0	0	283	414	
2	0	0	0	0	272	409	
3	0	0	0	0	268	409	
4	0	0	0	0	273	409	
5	0	0	0	0	286	404	
6	0	0	0	0	305	409	
7	0	0	0	0	337	409	
8	0	0	0	0	382	409	
9	0	0	0	0	443	414	
10	0	0	0	0	514	408	
11	0	0	0	0	588	409	
12	0	0	0	0	656	408	
13	0	0	0	0	719	403	
14	0	0	0	0	775	409	
15	0	0	0	0	821	408	
0	0	0	0	0	861	409	
1	0	0	0	0	897	413	
2	0	0	0	0	924	408	
3	0	0	0	0	945	409	
4	0	0	0	0	964	408	
5	0	0	0	0	987	403	
6	0	0	0	0	1015	408	
7	0	0	0	0	1022	408	
8	0	0	0	0	1022	408	
9	0	0	0	0	1022	413	
10	0	0	0	0	1022	409	
11	0	0	0	0	1022	409	
12	0	0	0	0	1022	408	
13	0	0	0	0	1022	403	
14	0	0	0	0	1022	409	
15	0	0	0	0	1022	408	
0	0	0	0	0	1005	409	
1	0	0	0	0	969	413	
2	0	0	0	0	935	408	
3	0	0	0	0	902	408	
4	0	0	0	0	870	409	
5	0	0	0	0	840	403	
6	0	0	0	0	812	409	
7	0	0	0	0	783	409	
8	0	0	0	0	756	409	
9	0	0	0	0	731	414	
10	0	0	0	0	706	409	
11	0	0	0	0	681	409	
12	0	0	0	0	658	409	
13	0	0	0	0	636	404	
14	0	0	0	0	616	410	
15	0	0	0	0	597	409	
0	0	0	0	0	580	410	
1	0	0	0	0	567	415	
2	0	0	0	0	554	410	
3	0	0	0	0	542	410	
4	0	0	0	0	533	409	
5	0	0	0	0	527	404	
6	0	0	0	0	521	409	
7	0	0	0	0	518	410	
8	0	0	0	0	514	409	
9	0	0	0	0	512	414	
10	0	0	0	0	508	409	
11	0	0	0	0	507	409	
12	0	0	0	0	507	409	
13	0	0	0	0	505	404	
14	0	0	0	0	503	410	
15	0	0	0	0	500	409	
0	0	0	0	0	499	410	
1	0	0	0	0	499	414	
2	0	0	0	0	501	409	
3	0	0	0	0	501	409	
4	0	0	0	0	501	409	
5	0	0	0	0	501	404	
6	0	0	0	0	501	409	
7	0	0	0	0	500	409	
8	0	0	0	0	500	410	
9	0	0	0	0	499	414	
10	0	0	0	0	499	409	
11	0	0	0	0	499	409	
12	0	0	0	0	500	409	
13	0	0	0	0	502	403	
14	0	0	0	0	502	409	
15	0	0	0	0	502	409	
0	0	0	0	0	503	409	
1	0	0	0	0	503	413	
2	0	0	0	0	504	408	
3	0	0	0	0	504	408	
4	0	0	0	0	505	408	
5	0	0	0	0	505	404	
6	0	0	0	0	505	409	
7	0	0	0	0	504	409	
8	0	0	0	0	504	409	
9	0	0	0	0	507	413	
10	0	0	0	0	507	409	
11	0	0	0	0	508	409	
12	0	0	0	0	507	409	
13	0	0	0	0	507	404	
14	0	0	0	0	508	409	
15	0	0	0	0	508	409	
0	0	0	0	0	509	409	
1	0	0	0	0	509	413	
2	0	0	0	0	509	409	
3	0	0	0	0	510	408	
4	0	0	0	0	510	408	
5	0	0	0	0	511	403	
6	0	0	0	0	511	408	
7	0	0	0	0	512	408	
8	0	0	0	0	513	408	
9	0	0	0	0	514	413	
10	0	0	0	0	514	408	
11	0	0	0	0	513	408	
12	0	0	0	0	513	408	
13	0	0	0	0	513	403	
14	0	0	0	0	512	409	
15	0	0	0	0	511	408	
0	0	0	0	0	509	409	
1	0	0	0	0	508	412	
2	0	0	0	0	509	408	
3	0	0	0	0	509	408	
4	0	0	0	0	509	408	
5	0	0	0	0	512	403	
6	0	0	0	0	513	407	
7	0	0	0	0	515	408	
8	0	0	0	0	516	408	
9	0	0	0	0	516	412	
10	0	0	0	0	517	408	
11	0	0	0	0	517	407	
12	0	0	0	0	518	408	
13	0	0	0	0	519	403	
14	0	0	0	0	520	408	
15	0	0	0	0	520	408	
0	0	0	0	0	519	408	
1	0	0	0	0	518	412	
2	0	0	0	0	517	408	
3	0	0	0	0	516	408	
4	0	0	0	0	515	408	
5	0	0	0	0	515	403	
6	0	0	0	0	515	408	
7	0	0	0	0	518	408	
8	0	0	0	0	518	408	
9	0	0	0	0	518	413	
10	0	0	0	0	520	407	
11	0	0	0	0	521	408	
12	0	0	0	0	521	408	
13	0	0	0	0	522	403	
14	0	0	0	0	522	408	
15	0	0	0	0	522	408	
0	0	0	0	0	523	408	
1	0	0	0	0	523	413	
2	0	0	0	0	523	408	
3	0	0	0	0	523	408	
4	0	0	0	0	524	408	
5	0	0	0	0	525	403	
6	0	0	0	0	525	408	
7	0	0	0	0	526	409	
8	0	0	0	0	526	409	
9	0	0	0	0	526	414	
10	0	0	0	0	527	409	
11	0	0	0	0	528	408	
12	0	0	0	0	527	408	
13	0	0	0	0	526	403	
14	0	0	0	0	525	409	
15	0	0	0	0	527	408	
0	0	0	0	0	528	408	
1	0	0	0	0	529	413	
2	0	0	0	0	529	408	
3	0	0	0	0	529	408	
4	0	0	0	0	529	408	
5	0	0	0	0	529	403	
6	0	0	0	0	529	408	
7	0	0	0	0	530	409	
8	0	0	0	0	530	408	
9	0	0	0	0	529	414	
10	0	0	0	0	530	409	
11	0	0	0	0	531	408	
12	0	0	0	0	532	408	
13	0	0	0	0	534	403	
14	0	0	0	0	535	408	
15	0	0	0	0	536	408	
0	0	0	0	0	537	408	
1	0	0	0	0	539	413	
2	0	0	0	0	540	408	
3	0	0	0	0	541	408	
4	0	0	0	0	541	408	
5	0	0	0	0	543	403	
6	0	0	0	0	544	409	
7	0	0	0	0	545	408	
8	0	0	0	0	548	409	
9	0	0	0	0	549	413	
10	0	0	0	0	550	408	
11	0	0	0	0	551	408	
12	0	0	0	0	552	408	
13	0	0	0	0	554	403	
14	0	0	0	0	555	408	
15	0	0	0	0	557	408	
0	0	0	0	0	558	409	
1	0	0	0	0	560	412	
2	0	0	0	0	561	408	
3	0	0	0	0	562	408	
4	0	0	0	0	564	408	
5	0	0	0	0	566	403	
6	0	0	0	0	566	408	
7	0	0	0	0	566	408	
8	0	0	0	0	565	408	
9	0	0	0	0	565	413	
10	0	0	0	0	567	408	
11	0	0	0	0	568	408	
12	0	0	0	0	569	408	
13	0	0	0	0	572	403	
14	0	0	0	0	573	408	
15	0	0	0	0	575	408	
0	0	0	0	0	577	408	
1	0	0	0	0	580	413	
2	0	0	0	0	582	408	
3	0	0	0	0	585	408	
4	0	0	0	0	586	408	
5	0	0	0	0	588	403	
6	0	0	0	0	589	408	
7	0	0	0	0	591	408	
8	0	0	0	0	592	408	
9	0	0	0	0	593	412	
10	0	0	0	0	595	408	
11	0	0	0	0	596	407	
12	0	0	0	0	597	408	
13	0	0	0	0	598	402	
14	0	0	0	0	599	408	
15	0	0	0	0	600	408	
0	0	0	0	0	601	408	
1	0	0	0	0	601	412	
2	0	0	0	0	601	407	
3	0	0	0	0	601	408	
4	0	0	0	0	601	407	
5	0	0	0	0	603	402	
6	0	0	0	0	604	407	
7	0	0	0	0	606	407	
8	0	0	0	0	607	407	
9	0	0	0	0	608	411	
10	0	0	0	0	609	407	
11	0	0	0	0	610	407	
12	0	0	0	0	611	406	
13	0	0	0	0	611	401	
14	0	0	0	0	613	407	
15	0	0	0	0	614	407	
0	0	0	0	0	614	407	
1	0	0	0	0	614	411	
2	0	0	0	0	614	407	
3	0	0	0	0	614	406	
4	0	0	0	0	614	406	
5	0	0	0	0	613	401	
6	0	0	0	0	614	406	
7	0	0	0	0	614	406	
8	0	0	0	0	615	405	
9	0	0	0	0	617	410	
10	0	0	0	0	617	405	
11	0	0	0	0	617	405	
12	0	0	0	0	616	405	
13	0	0	0	0	614	400	
14	0	0	0	0	612	406	
15	0	0	0	0	611	406	
0	0	0	0	0	611	406	
1	0	0	0	0	609	411	
2	0	0	0	0	607	406	
3	0	0	0	0	606	406	
4	0	0	0	0	603	406	
5	0	0	0	0	601	401	
6	0	0	0	0	598	406	
7	0	0	0	0	593	406	
8	0	0	0	0	591	407	
9	0	0	0	0	588	412	
10	0	0	0	0	585	406	
11	0	0	0	0	582	406	
12	0	0	0	0	578	406	
13	0	0	0	0	574	401	
14	0	0	0	0	571	407	
15	0	0	0	0	568	406	
0	0	0	0	0	564	407	
1	0	0	0	0	560	411	
2	0	0	0	0	558	407	
3	0	0	0	0	555	407	
4	0	0	0	0	552	407	
5	0	0	0	0	550	403	
6	0	0	0	0	548	408	
7	0	0	0	0	545	408	
8	0	0	0	0	543	408	
9	0	0	0	0	542	412	
10	0	0	0	0	540	408	
11	0	0	0	0	538	408	
12	0	0	0	0	537	408	
13	0	0	0	0	536	403	
14	0	0	0	0	535	409	
15	0	0	0	0	534	408	
0	0	0	0	0	534	409	
1	0	0	0	0	532	413	
2	0	0	0	0	531	408	
3	0	0	0	0	528	408	
4	0	0	0	0	527	409	
5	0	0	0	0	527	404	
6	0	0	0	0	528	409	
7	0	0	0	0	528	408	
8	0	0	0	0	529	410	
9	0	0	0	0	529	414	
10	0	0	0	0	530	409	
11	0	0	0	0	531	409	
12	0	0	0	0	531	409	
13	0	0	0	0	531	404	
14	0	0	0	0	532	410	
15	0	0	0	0	533	409	
0	0	0	0	0	533	410	
1	0	0	0	0	534	415	
2	0	0	0	0	536	409	
3	0	0	0	0	536	410	
4	0	0	0	0	537	409	
5	0	0	0	0	538	405	
6	0	0	0	0	539	410	
7	0	0	0	0	539	410	
8	0	0	0	0	540	410	
9	0	0	0	0	542	415	
10	0	0	0	0	543	410	
11	0	0	0	0	544	410	
12	0	0	0	0	545	409	
13	0	0	0	0	547	404	
14	0	0	0	0	548	410	
15	0	0	0	0	548	409	
0	0	0	0	0	549	409	
1	0	0	0	0	550	413	
2	0	0	0	0	550	408	
3	0	0	0	0	552	409	
4	0	0	0	0	552	408	
5	0	0	0	0	552	403	
6	0	0	0	0	553	408	
7	0	0	0	0	554	409	
8	0	0	0	0	556	409	
9	0	0	0	0	557	413	
10	0	0	0	0	557	409	
11	0	0	0	0	560	408	
12	0	0	0	0	561	408	
13	0	0	0	0	561	403	
14	0	0	0	0	563	409	
15	0	0	0	0	566	408	
0	0	0	0	0	567	409	
1	0	0	0	0	568	413	
2	0	0	0	0	568	409	
3	0	0	0	0	568	408	
4	0	0	0	0	570	408	
5	0	0	0	0	571	403	
6	0	0	0	0	572	409	
7	0	0	0	0	572	408	
8	0	0	0	0	572	409	
9	0	0	0	0	573	413	
10	0	0	0	0	575	408	
11	0	0	0	0	575	409	
12	0	0	0	0	576	408	
13	0	0	0	0	577	403	
14	0	0	0	0	577	408	
15	0	0	0	0	578	408	
0	0	0	0	0	579	409	
1	0	0	0	0	581	413	
2	0	0	0	0	583	408	
3	0	0	0	0	583	408	
4	0	0	0	0	585	408	
5	0	0	0	0	588	403	
6	0	0	0	0	588	409	
7	0	0	0	0	588	409	
8	0	0	0	0	589	408	
9	0	0	0	0	590	413	
10	0	0	0	0	591	408	
11	0	0	0	0	590	408	
12	0	0	0	0	588	408	
13	0	0	0	0	586	403	
14	0	0	0	0	584	408	
15	0	0	0	0	583	408	
0	0	0	0	0	583	408	
1	0	0	0	0	583	413	
2	0	0	0	0	585	408	
3	0	0	0	0	588	407	
4	0	0	0	0	589	408	
5	0	0	0	0	591	403	
6	0	0	0	0	591	408	
7	0	0	0	0	593	408	
8	0	0	0	0	593	408	
9	0	0	0	0	593	413	
10	0	0	0	0	593	408	
11	0	0	0	0	594	408	
12	0	0	0	0	594	408	
13	0	0	0	0	594	403	
14	0	0	0	0	594	408	
15	0	0	0	0	592	408	
0	0	0	0	0	591	408	
1	0	0	0	0	591	413	
2	0	0	0	0	591	408	
3	0	0	0	0	590	408	
4	0	0	0	0	590	408	
5	0	0	0	0	591	403	
6	0	0	0	0	591	408	
7	0	0	0	0	591	408	
8	0	0	0	0	591	408	
9	0	0	0	0	591	413	
10	0	0	0	0	591	408	
11	0	0	0	0	591	408	
12	0	0	0	0	590	409	
13	0	0	0	0	590	404	
14	0	0	0	0	590	408	
15	0	0	0	0	591	409	
0	0	0	0	0	591	409	
1	0	0	0	0	591	414	
2	0	0	0	0	592	409	
3	0	0	0	0	593	409	
4	0	0	0	0	592	409	
5	0	0	0	0	591	404	
6	0	0	0	0	590	409	
7	0	0	0	0	589	410	
8	0	0	0	0	588	410	
9	0	0	0	0	588	415	
10	0	0	0	0	587	410	
11	0	0	0	0	585	410	
12	0	0	0	0	586	411	
13	0	0	0	0	588	406	
14	0	0	0	0	587	411	
15	0	0	0	0	587	411	
0	0	0	0	0	587	411	
1	0	0	0	0	588	415	
2	0	0	0	0	589	411	
3	0	0	0	0	589	411	
4	0	0	0	0	589	411	
5	0	0	0	0	590	406	
6	0	0	0	0	590	411	
7	0	0	0	0	589	411	
8	0	0	0	0	588	412	
9	0	0	0	0	588	416	
10	0	0	0	0	588	412	
11	0	0	0	0	587	411	
12	0	0	0	0	586	411	
13	0	0	0	0	587	406	
14	0	0	0	0	586	412	
15	0	0	0	0	586	411	
0	0	0	0	0	585	412	
1	0	0	0	0	585	416	
2	0	0	0	0	586	412	
3	0	0	0	0	585	411	
4	0	0	0	0	585	411	
5	0	0	0	0	585	406	
6	0	0	0	0	584	411	
7	0	0	0	0	584	411	
8	0	0	0	0	583	412	
9	0	0	0	0	583	416	
10	0	0	0	0	582	411	
11	0	0	0	0	582	411	
12	0	0	0	0	581	411	
13	0	0	0	0	581	405	
14	0	0	0	0	580	410	
15	0	0	0	0	580	410	
0	0	0	0	0	579	410	
1	0	0	0	0	580	415	
2	0	0	0	0	581	410	
3	0	0	0	0	580	410	
4	0	0	0	0	580	409	
5	0	0	0	0	580	404	
6	0	0	0	0	580	410	
7	0	0	0	0	579	409	
8	0	0	0	0	578	409	
9	0	0	0	0	577	414	
10	0	0	0	0	577	409	
11	0	0	0	0	576	408	
12	0	0	0	0	575	408	
13	0	0	0	0	575	403	
14	0	0	0	0	576	409	
15	0	0	0	0	577	409	
0	0	0	0	0	577	409	
1	0	0	0	0	576	413	
2	0	0	0	0	575	408	
3	0	0	0	0	575	409	
4	0	0	0	0	573	408	
5	0	0	0	0	574	403	
6	0	0	0	0	574	409	
7	0	0	0	0	573	409	
8	0	0	0	0	573	409	
9	0	0	0	0	573	414	
10	0	0	0	0	572	408	
11	0	0	0	0	572	409	
12	0	0	0	0	572	408	
13	0	0	0	0	571	403	
14	0	0	0	0	570	409	
15	0	0	0	0	569	409	
0	0	0	0	0	568	409	
1	0	0	0	0	566	413	
2	0	0	0	0	565	408	
3	0	0	0	0	564	408	
4	0	0	0	0	563	408	
5	0	0	0	0	563	403	
6	0	0	0	0	562	408	
7	0	0	0	0	562	408	
8	0	0	0	0	562	408	
9	0	0	0	0	561	413	
10	0	0	0	0	559	408	
11	0	0	0	0	558	408	
12	0	0	0	0	557	408	
13	0	0	0	0	557	403	
14	0	0	0	0	554	408	
15	0	0	0	0	552	408	
0	0	0	0	0	551	408	
1	0	0	0	0	550	412	
2	0	0	0	0	549	407	
3	0	0	0	0	546	407	
4	0	0	0	0	544	407	
5	0	0	0	0	544	403	
6	0	0	0	0	543	408	
7	0	0	0	0	542	408	
8	0	0	0	0	543	407	
9	0	0	0	0	542	412	
10	0	0	0	0	542	407	
11	0	0	0	0	543	407	
12	0	0	0	0	544	408	
13	0	0	0	0	545	403	
14	0	0	0	0	547	408	
15	0	0	0	0	547	408	
0	0	0	0	0	548	407	
1	0	0	0	0	550	412	
2	0	0	0	0	550	408	
3	0	0	0	0	552	408	
4	0	0	0	0	553	408	
5	0	0	0	0	554	403	
6	0	0	0	0	555	407	
7	0	0	0	0	556	407	
8	0	0	0	0	557	407	
9	0	0	0	0	557	412	
10	0	0	0	0	556	408	
11	0	0	0	0	555	408	
12	0	0	0	0	555	408	
13	0	0	0	0	554	403	
14	0	0	0	0	554	408	
15	0	0	0	0	554	408	
0	0	0	0	0	553	408	
1	0	0	0	0	554	413	
2	0	0	0	0	553	408	
3	0	0	0	0	554	407	
4	0	0	0	0	555	407	
5	0	0	0	0	554	403	
6	0	0	0	0	553	408	
7	0	0	0	0	551	408	
8	0	0	0	0	550	408	
9	0	0	0	0	550	412	
10	0	0	0	0	549	408	
11	0	0	0	0	548	408	
12	0	0	0	0	546	407	
13	0	0	0	0	545	402	
14	0	0	0	0	545	408	
15	0	0	0	0	545	408	
0	0	0	0	0	545	408	
1	0	0	0	0	544	412	
2	0	0	0	0	543	407	
3	0	0	0	0	543	407	
4	0	0	0	0	544	408	
5	0	0	0	0	544	403	
6	0	0	0	0	545	408	
7	0	0	0	0	544	408	
8	0	0	0	0	544	409	
9	0	0	0	0	544	413	
10	0	0	0	0	546	409	
11	0	0	0	0	546	409	
12	0	0	0	0	546	409	
13	0	0	0	0	546	403	
14	0	0	0	0	547	408	
15	0	0	0	0	547	409	
0	0	0	0	0	548	409	
1	0	0	0	0	550	414	
2	0	0	0	0	550	409	
3	0	0	0	0	550	409	
4	0	0	0	0	550	409	
5	0	0	0	0	550	404	
6	0	0	0	0	550	409	
7	0	0	0	0	551	409	
8	0	0	0	0	551	409	
9	0	0	0	0	551	414	
10	0	0	0	0	552	410	
11	0	0	0	0	552	409	
12	0	0	0	0	552	409	
13	0	0	0	0	553	405	
14	0	0	0	0	553	410	
15	0	0	0	0	554	410	
0	0	0	0	0	555	410	
1	0	0	0	0	556	414	
2	0	0	0	0	558	409	
3	0	0	0	0	558	410	
4	0	0	0	0	558	409	
5	0	0	0	0	558	404	
6	0	0	0	0	558	410	
7	0	0	0	0	558	409	
8	0	0	0	0	558	410	
9	0	0	0	0	559	415	
10	0	0	0	0	558	409	
11	0	0	0	0	557	410	
12	0	0	0	0	557	410	
13	0	0	0	0	557	404	
14	0	0	0	0	556	410	
15	0	0	0	0	557	410	
0	0	0	0	0	557	410	
1	0	0	0	0	555	414	
2	0	0	0	0	553	410	
3	0	0	0	0	553	409	
4	0	0	0	0	552	409	
5	0	0	0	0	551	404	
6	0	0	0	0	553	409	
7	0	0	0	0	554	409	
8	0	0	0	0	553	409	
9	0	0	0	0	552	413	
10	0	0	0	0	553	410	
11	0	0	0	0	553	408	
12	0	0	0	0	553	408	
13	0	0	0	0	553	403	
14	0	0	0	0	552	408	
15	0	0	0	0	551	408	
0	0	0	0	0	551	409	
1	0	0	0	0	550	414	
2	0	0	0	0	549	409	
3	0	0	0	0	548	409	
4	0	0	0	0	546	409	
5	0	0	0	0	540	404	
6	0	0	0	0	531	409	
7	0	0	0	0	519	409	
8	0	0	0	0	503	409	
9	0	0	0	0	485	414	
10	0	0	0	0	464	409	
11	0	0	0	0	439	409	
12	0	0	0	0	411	409	
13	0	0	0	0	388	404	
14	0	0	0	0	363	409	
15	0	0	0	0	339	409	
0	0	0	0	0	316	410	
1	0	0	0	0	294	414	
2	0	0	0	0	276	410	
3	0	0	0	0	259	410	
4	0	0	0	0	248	409	
5	0	0	0	0	244	404	
6	0	0	0	0	245	410	
7	0	0	0	0	255	410	
8	0	0	0	0	272	410	
9	0	0	0	0	301	415	
10	0	0	0	0	339	410	
11	0	0	0	0	391	411	
12	0	0	0	0	460	411	
13	0	0	0	0	541	405	
14	0	0	0	0	617	411	
15	0	0	0	0	684	411	
0	0	0	0	0	745	410	
1	0	0	0	0	800	415	
2	0	0	0	0	843	411	
3	0	0	0	0	880	410	
4	0	0	0	0	907	410	
5	0	0	0	0	924	405	
6	0	0	0	0	934	410	
7	0	0	0	0	941	409	
8	0	0	0	0	951	410	
9	0	0	0	0	968	415	
10	0	0	0	0	993	410	
11	0	0	0	0	1016	409	
12	0	0	0	0	1022	410	
13	0	0	0	0	1022	404	
14	0	0	0	0	1022	410	
15	0	0	0	0	1022	410	
0	0	0	0	0	1010	410	
1	0	0	0	0	989	415	
2	0	0	0	0	966	410	
3	0	0	0	0	939	409	
4	0	0	0	0	910	410	
5	0	0	0	0	881	404	
6	0	0	0	0	853	410	
7	0	0	0	0	826	411	
8	0	0	0	0	801	410	
9	0	0	0	0	776	415	
10	0	0	0	0	752	410	
11	0	0	0	0	728	410	
12	0	0	0	0	705	410	
13	0	0	0	0	682	405	
14	0	0	0	0	660	410	
15	0	0	0	0	640	410	
0	0	0	0	0	620	411	
1	0	0	0	0	603	415	
2	0	0	0	0	586	410	
3	0	0	0	0	572	410	
4	0	0	0	0	559	409	
5	0	0	0	0	548	405	
6	0	0	0	0	538	409	
7	0	0	0	0	529	410	
8	0	0	0	0	521	410	
9	0	0	0	0	515	414	
10	0	0	0	0	511	410	
11	0	0	0	0	506	409	
12	0	0	0	0	502	410	
13	0	0	0	0	499	404	
14	0	0	0	0	497	409	
15	0	0	0	0	496	409	
0	0	0	0	0	497	409	
1	0	0	0	0	498	414	
2	0	0	0	0	499	409	
3	0	0	0	0	498	409	
4	0	0	0	0	498	409	
5	0	0	0	0	498	404	
6	0	0	0	0	499	409	
7	0	0	0	0	498	409	
8	0	0	0	0	498	409	
9	0	0	0	0	499	414	
10	0	0	0	0	501	409	
11	0	0	0	0	501	409	
12	0	0	0	0	500	409	
13	0	0	0	0	501	405	
14	0	0	0	0	502	409	
15	0	0	0	0	503	409	
0	0	0	0	0	503	409	
1	0	0	0	0	503	413	
2	0	0	0	0	505	408	
3	0	0	0	0	505	408	
4	0	0	0	0	504	408	
5	0	0	0	0	504	403	
6	0	0	0	0	506	408	
7	0	0	0	0	505	409	
8	0	0	0	0	507	409	
9	0	0	0	0	508	413	
10	0	0	0	0	510	408	
11	0	0	0	0	512	408	
12	0	0	0	0	514	408	
13	0	0	0	0	516	403	
14	0	0	0	0	517	408	
15	0	0	0	0	519	408	
0	0	0	0	0	520	408	
1	0	0	0	0	522	413	
2	0	0	0	0	524	408	
3	0	0	0	0	524	407	
4	0	0	0	0	524	408	
5	0	0	0	0	524	402	
6	0	0	0	0	525	407	
7	0	0	0	0	526	407	
8	0	0	0	0	526	408	
9	0	0	0	0	527	412	
10	0	0	0	0	527	408	
11	0	0	0	0	528	408	
12	0	0	0	0	528	408	
13	0	0	0	0	528	403	
14	0	0	0	0	528	408	
15	0	0	0	0	528	408	
0	0	0	0	0	529	407	
1	0	0	0	0	530	412	
2	0	0	0	0	531	407	
3	0	0	0	0	531	408	
4	0	0	0	0	533	408	
5	0	0	0	0	536	402	
6	0	0	0	0	537	408	
7	0	0	0	0	538	408	
8	0	0	0	0	537	408	
9	0	0	0	0	537	412	
10	0	0	0	0	538	407	
11	0	0	0	0	538	407	
12	0	0	0	0	539	407	
13	0	0	0	0	539	403	
14	0	0	0	0	540	407	
15	0	0	0	0	540	408	
0	0	0	0	0	540	408	
1	0	0	0	0	540	412	
2	0	0	0	0	541	407	
3	0	0	0	0	540	408	
4	0	0	0	0	541	407	
5	0	0	0	0	542	402	
6	0	0	0	0	543	407	
7	0	0	0	0	545	407	
8	0	0	0	0	546	407	
9	0	0	0	0	546	412	
10	0	0	0	0	546	407	
11	0	0	0	0	546	407	
12	0	0	0	0	547	407	
13	0	0	0	0	547	401	
14	0	0	0	0	547	407	
15	0	0	0	0	547	408	
0	0	0	0	0	547	408	
1	0	0	0	0	547	412	
2	0	0	0	0	548	408	
3	0	0	0	0	548	407	
4	0	0	0	0	548	408	
5	0	0	0	0	549	403	
6	0	0	0	0	549	408	
7	0	0	0	0	549	409	
8	0	0	0	0	550	409	
9	0	0	0	0	551	413	
10	0	0	0	0	553	408	
11	0	0	0	0	554	408	
12	0	0	0	0	555	408	
13	0	0	0	0	556	403	
14	0	0	0	0	557	408	
15	0	0	0	0	557	408	
0	0	0	0	0	558	408	
1	0	0	0	0	558	413	
2	0	0	0	0	558	409	
3	0	0	0	0	558	408	
4	0	0	0	0	558	408	
5	0	0	0	0	558	403	
6	0	0	0	0	559	408	
7	0	0	0	0	560	408	
8	0	0	0	0	560	408	
9	0	0	0	0	561	413	
10	0	0	0	0	561	408	
11	0	0	0	0	561	408	
12	0	0	0	0	561	408	
13	0	0	0	0	560	403	
14	0	0	0	0	560	408	
15	0	0	0	0	562	408	
0	0	0	0	0	563	408	
1	0	0	0	0	564	412	
2	0	0	0	0	565	407	
3	0	0	0	0	565	408	
4	0	0	0	0	565	408	
5	0	0	0	0	566	403	
6	0	0	0	0	566	408	
7	0	0	0	0	567	408	
8	0	0	0	0	568	408	
9	0	0	0	0	569	413	
10	0	0	0	0	570	408	
11	0	0	0	0	571	408	
12	0	0	0	0	572	408	
13	0	0	0	0	573	402	
14	0	0	0	0	572	408	
15	0	0	0	0	573	408	
0	0	0	0	0	573	409	
1	0	0	0	0	572	413	
2	0	0	0	0	572	409	
3	0	0	0	0	573	409	
4	0	0	0	0	575	409	
5	0	0	0	0	576	403	
6	0	0	0	0	579	408	
7	0	0	0	0	581	408	
8	0	0	0	0	582	408	
9	0	0	0	0	583	413	
10	0	0	0	0	584	408	
11	0	0	0	0	585	408	
12	0	0	0	0	586	408	
13	0	0	0	0	587	403	
14	0	0	0	0	589	409	
15	0	0	0	0	590	409	
0	0	0	0	0	592	409	
1	0	0	0	0	593	414	
2	0	0	0	0	595	409	
3	0	0	0	0	596	409	
4	0	0	0	0	598	409	
5	0	0	0	0	600	404	
6	0	0	0	0	601	409	
7	0	0	0	0	603	409	
8	0	0	0	0	604	410	
9	0	0	0	0	605	414	
10	0	0	0	0	606	409	
11	0	0	0	0	607	409	
12	0	0	0	0	607	408	
13	0	0	0	0	608	404	
14	0	0	0	0	608	409	
15	0	0	0	0	609	409	
0	0	0	0	0	609	409	
1	0	0	0	0	611	414	
2	0	0	0	0	611	409	
3	0	0	0	0	613	409	
4	0	0	0	0	615	409	
5	0	0	0	0	617	404	
6	0	0	0	0	618	408	
7	0	0	0	0	620	409	
8	0	0	0	0	621	409	
9	0	0	0	0	622	414	
10	0	0	0	0	623	408	
11	0	0	0	0	624	409	
12	0	0	0	0	624	408	
13	0	0	0	0	625	403	
14	0	0	0	0	625	409	
15	0	0	0	0	626	409	
0	0	0	0	0	627	409	
1	0	0	0	0	628	414	
2	0	0	0	0	628	408	
3	0	0	0	0	628	409	
4	0	0	0	0	630	408	
5	0	0	0	0	631	403	
6	0	0	0	0	631	408	
7	0	0	0	0	631	408	
8	0	0	0	0	632	409	
9	0	0	0	0	633	414	
10	0	0	0	0	632	408	
11	0	0	0	0	632	408	
12	0	0	0	0	632	408	
13	0	0	0	0	631	403	
14	0	0	0	0	631	408	
15	0	0	0	0	629	409	
0	0	0	0	0	626	408	
1	0	0	0	0	624	412	
2	0	0	0	0	623	407	
3	0	0	0	0	621	407	
4	0	0	0	0	620	408	
5	0	0	0	0	618	403	
6	0	0	0	0	617	407	
7	0	0	0	0	614	408	
8	0	0	0	0	610	407	
9	0	0	0	0	607	412	
10	0	0	0	0	604	408	
11	0	0	0	0	600	408	
12	0	0	0	0	596	408	
13	0	0	0	0	593	402	
14	0	0	0	0	590	408	
15	0	0	0	0	587	408	
0	0	0	0	0	584	408	
1	0	0	0	0	581	412	
2	0	0	0	0	576	408	
3	0	0	0	0	572	408	
4	0	0	0	0	568	408	
5	0	0	0	0	564	403	
6	0	0	0	0	561	408	
7	0	0	0	0	559	409	
8	0	0	0	0	556	408	
9	0	0	0	0	552	413	
10	0	0	0	0	551	408	
11	0	0	0	0	548	409	
12	0	0	0	0	546	408	
13	0	0	0	0	544	403	
14	0	0	0	0	542	409	
15	0	0	0	0	541	410	
0	0	0	0	0	540	409	
1	0	0	0	0	539	414	
2	0	0	0	0	538	409	
3	0	0	0	0	538	409	
4	0	0	0	0	538	409	
5	0	0	0	0	538	404	
6	0	0	0	0	537	409	
7	0	0	0	0	537	410	
8	0	0	0	0	537	410	
9	0	0	0	0	537	414	
10	0	0	0	0	537	409	
11	0	0	0	0	536	410	
12	0	0	0	0	536	410	
13	0	0	0	0	537	404	
14	0	0	0	0	537	410	
15	0	0	0	0	538	410	
0	0	0	0	0	538	409	
1	0	0	0	0	538	415	
2	0	0	0	0	538	409	
3	0	0	0	0	537	409	
4	0	0	0	0	537	409	
5	0	0	0	0	540	404	
6	0	0	0	0	541	409	
7	0	0	0	0	542	409	
8	0	0	0	0	543	410	
9	0	0	0	0	544	415	
10	0	0	0	0	545	409	
11	0	0	0	0	544	410	
12	0	0	0	0	544	409	
13	0	0	0	0	544	404	
14	0	0	0	0	545	408	
15	0	0	0	0	544	409	
0	0	0	0	0	545	409	
1	0	0	0	0	547	414	
2	0	0	0	0	549	408	
3	0	0	0	0	551	409	
4	0	0	0	0	552	409	
5	0	0	0	0	552	403	
6	0	0	0	0	553	408	
7	0	0	0	0	554	408	
8	0	0	0	0	555	409	
9	0	0	0	0	556	414	
10	0	0	0	0	556	408	
11	0	0	0	0	558	408	
12	0	0	0	0	559	408	
13	0	0	0	0	560	403	
14	0	0	0	0	560	408	
15	0	0	0	0	560	408	
0	0	0	0	0	562	408	
1	0	0	0	0	562	413	
2	0	0	0	0	563	409	
3	0	0	0	0	563	408	
4	0	0	0	0	565	409	
5	0	0	0	0	566	404	
6	0	0	0	0	566	408	
7	0	0	0	0	566	409	
8	0	0	0	0	567	409	
9	0	0	0	0	567	413	
10	0	0	0	0	568	408	
11	0	0	0	0	569	409	
12	0	0	0	0	569	409	
13	0	0	0	0	570	403	
14	0	0	0	0	570	409	
15	0	0	0	0	572	408	
0	0	0	0	0	572	409	
1	0	0	0	0	572	413	
2	0	0	0	0	573	409	
3	0	0	0	0	572	409	
4	0	0	0	0	572	409	
5	0	0	0	0	571	404	
6	0	0	0	0	571	409	
7	0	0	0	0	571	409	
8	0	0	0	0	572	410	
9	0	0	0	0	574	415	
10	0	0	0	0	575	409	
11	0	0	0	0	574	410	
12	0	0	0	0	574	409	
13	0	0	0	0	574	404	
14	0	0	0	0	575	410	
15	0	0	0	0	575	410	
0	0	0	0	0	575	411	
1	0	0	0	0	575	415	
2	0	0	0	0	576	411	
3	0	0	0	0	575	410	
4	0	0	0	0	577	411	
5	0	0	0	0	577	405	
6	0	0	0	0	579	410	
7	0	0	0	0	580	410	
8	0	0	0	0	581	410	
9	0	0	0	0	582	415	
10	0	0	0	0	582	411	
11	0	0	0	0	582	411	
12	0	0	0	0	583	410	
13	0	0	0	0	583	406	
14	0	0	0	0	585	411	
15	0	0	0	0	585	411	
0	0	0	0	0	587	411	
1	0	0	0	0	587	415	
2	0	0	0	0	586	411	
3	0	0	0	0	586	411	
4	0	0	0	0	587	411	
5	0	0	0	0	590	406	
6	0	0	0	0	591	411	
7	0	0	0	0	592	411	
8	0	0	0	0	593	411	
9	0	0	0	0	594	415	
10	0	0	0	0	595	411	
11	0	0	0	0	594	411	
12	0	0	0	0	594	411	
13	0	0	0	0	595	406	
14	0	0	0	0	596	411	
15	0	0	0	0	596	410	
0	0	0	0	0	596	411	
1	0	0	0	0	596	415	
2	0	0	0	0	596	410	
3	0	0	0	0	597	410	
4	0	0	0	0	599	409	
5	0	0	0	0	601	404	
6	0	0	0	0	602	410	
7	0	0	0	0	603	409	
8	0	0	0	0	604	409	
9	0	0	0	0	604	414	
10	0	0	0	0	605	409	
11	0	0	0	0	606	409	
12	0	0	0	0	606	409	
13	0	0	0	0	606	404	
14	0	0	0	0	607	409	
15	0	0	0	0	608	409	
0	0	0	0	0	609	409	
1	0	0	0	0	610	413	
2	0	0	0	0	610	409	
3	0	0	0	0	609	408	
4	0	0	0	0	609	408	
5	0	0	0	0	610	403	
6	0	0	0	0	610	408	
7	0	0	0	0	611	408	
8	0	0	0	0	612	408	
9	0	0	0	0	614	413	
10	0	0	0	0	617	407	
11	0	0	0	0	619	408	
12	0	0	0	0	620	408	
13	0	0	0	0	621	402	
14	0	0	0	0	622	408	
15	0	0	0	0	623	408	
0	0	0	0	0	624	408	
1	0	0	0	0	625	412	
2	0	0	0	0	627	407	
3	0	0	0	0	627	407	
4	0	0	0	0	628	407	
5	0	0	0	0	628	402	
6	0	0	0	0	630	407	
7	0	0	0	0	630	407	
8	0	0	0	0	631	407	
9	0	0	0	0	631	412	
10	0	0	0	0	631	407	
11	0	0	0	0	630	407	
12	0	0	0	0	630	406	
13	0	0	0	0	629	401	
14	0	0	0	0	628	407	
15	0	0	0	0	629	407	
0	0	0	0	0	629	407	
1	0	0	0	0	629	412	
2	0	0	0	0	631	407	
3	0	0	0	0	632	407	
4	0	0	0	0	634	407	
5	0	0	0	0	635	402	
6	0	0	0	0	635	408	
7	0	0	0	0	636	408	
8	0	0	0	0	637	408	
9	0	0	0	0	637	412	
10	0	0	0	0	638	408	
11	0	0	0	0	638	408	
12	0	0	0	0	638	408	
13	0	0	0	0	638	403	
14	0	0	0	0	638	408	
15	0	0	0	0	639	408	
0	0	0	0	0	640	409	
1	0	0	0	0	640	413	
2	0	0	0	0	640	408	
3	0	0	0	0	639	408	
4	0	0	0	0	639	408	
5	0	0	0	0	638	402	
6	0	0	0	0	637	408	
7	0	0	0	0	636	408	
8	0	0	0	0	638	408	
9	0	0	0	0	639	412	
10	0	0	0	0	640	408	
11	0	0	0	0	638	408	
12	0	0	0	0	639	408	
13	0	0	0	0	642	403	
14	0	0	0	0	643	408	
15	0	0	0	0	643	407	
0	0	0	0	0	643	408	
1	0	0	0	0	643	413	
2	0	0	0	0	644	408	
3	0	0	0	0	644	408	
4	0	0	0	0	643	408	
5	0	0	0	0	642	403	
6	0	0	0	0	642	408	
7	0	0	0	0	642	408	
8	0	0	0	0	641	408	
9	0	0	0	0	641	413	
10	0	0	0	0	640	408	
11	0	0	0	0	640	408	
12	0	0	0	0	641	408	
13	0	0	0	0	641	403	
14	0	0	0	0	641	408	
15	0	0	0	0	641	408	
0	0	0	0	0	639	408	
1	0	0	0	0	638	412	
2	0	0	0	0	637	407	
3	0	0	0	0	636	407	
4	0	0	0	0	635	407	
5	0	0	0	0	635	402	
6	0	0	0	0	635	406	
7	0	0	0	0	635	407	
8	0	0	0	0	634	407	
9	0	0	0	0	633	412	
10	0	0	0	0	633	407	
11	0	0	0	0	633	407	
12	0	0	0	0	633	407	
13	0	0	0	0	633	402	
14	0	0	0	0	632	407	
15	0	0	0	0	635	406	
0	0	0	0	0	635	407	
1	0	0	0	0	636	412	
2	0	0	0	0	637	407	
3	0	0	0	0	638	406	
4	0	0	0	0	638	407	
5	0	0	0	0	638	401	
6	0	0	0	0	638	407	
7	0	0	0	0	638	407	
8	0	0	0	0	637	407	
9	0	0	0	0	637	412	
10	0	0	0	0	636	407	
11	0	0	0	0	636	406	
12	0	0	0	0	637	406	
13	0	0	0	0	638	401	
14	0	0	0	0	638	407	
15	0	0	0	0	639	406	
0	0	0	0	0	641	407	
1	0	0	0	0	643	411	
2	0	0	0	0	644	406	
3	0	0	0	0	647	406	
4	0	0	0	0	649	407	
5	0	0	0	0	649	402	
6	0	0	0	0	649	407	
7	0	0	0	0	648	407	
8	0	0	0	0	648	408	
9	0	0	0	0	647	412	
10	0	0	0	0	646	407	
11	0	0	0	0	644	407	
12	0	0	0	0	643	407	
13	0	0	0	0	644	401	
14	0	0	0	0	643	407	
15	0	0	0	0	643	407	
0	0	0	0	0	642	407	
1	0	0	0	0	642	412	
2	0	0	0	0	642	407	
3	0	0	0	0	643	407	
4	0	0	0	0	643	407	
5	0	0	0	0	644	403	
6	0	0	0	0	643	407	
7	0	0	0	0	644	408	
8	0	0	0	0	645	408	
9	0	0	0	0	644	412	
10	0	0	0	0	644	408	
11	0	0	0	0	644	408	
12	0	0	0	0	644	407	
13	0	0	0	0	644	402	
14	0	0	0	0	644	407	
15	0	0	0	0	643	407	
0	0	0	0	0	643	408	
1	0	0	0	0	641	413	
2	0	0	0	0	639	408	
3	0	0	0	0	636	408	
4	0	0	0	0	635	408	
5	0	0	0	0	633	403	
6	0	0	0	0	632	408	
7	0	0	0	0	632	408	
8	0	0	0	0	633	408	
9	0	0	0	0	633	413	
10	0	0	0	0	634	408	
11	0	0	0	0	635	409	
12	0	0	0	0	636	408	
13	0	0	0	0	636	403	
14	0	0	0	0	636	409	
15	0	0	0	0	635	408	
0	0	0	0	0	634	409	
1	0	0	0	0	633	414	
2	0	0	0	0	632	408	
3	0	0	0	0	632	409	
4	0	0	0	0	631	409	
5	0	0	0	0	631	404	
6	0	0	0	0	631	408	
7	0	0	0	0	631	408	
8	0	0	0	0	632	408	
9	0	0	0	0	633	413	
10	0	0	0	0	634	408	
11	0	0	0	0	635	408	
12	0	0	0	0	635	408	
13	0	0	0	0	635	403	
14	0	0	0	0	635	409	
15	0	0	0	0	635	409	
0	0	0	0	0	635	409	
1	0	0	0	0	634	414	
2	0	0	0	0	635	409	
3	0	0	0	0	635	409	
4	0	0	0	0	635	409	
5	0	0	0	0	636	404	
6	0	0	0	0	636	409	
7	0	0	0	0	637	409	
8	0	0	0	0	637	409	
9	0	0	0	0	637	414	
10	0	0	0	0	638	409	
11	0	0	0	0	638	408	
12	0	0	0	0	638	408	
13	0	0	0	0	637	403	
14	0	0	0	0	637	409	
15	0	0	0	0	638	409	
0	0	0	0	0	638	409	
1	0	0	0	0	637	414	
2	0	0	0	0	639	408	
3	0	0	0	0	639	408	
4	0	0	0	0	639	408	
5	0	0	0	0	640	403	
6	0	0	0	0	638	408	
7	0	0	0	0	636	409	
8	0	0	0	0	635	408	
9	0	0	0	0	634	413	
10	0	0	0	0	634	408	
11	0	0	0	0	634	409	
12	0	0	0	0	635	409	
13	0	0	0	0	635	403	
14	0	0	0	0	634	408	
15	0	0	0	0	634	408	
0	0	0	0	0	634	408	
1	0	0	0	0	631	413	
2	0	0	0	0	626	409	
3	0	0	0	0	619	409	
4	0	0	0	0	611	409	
5	0	0	0	0	599	403	
6	0	0	0	0	583	409	
7	0	0	0	0	564	409	
8	0	0	0	0	541	409	
9	0	0	0	0	513	414	
10	0	0	0	0	486	409	
11	0	0	0	0	460	409	
12	0	0	0	0	433	409	
13	0	0	0	0	409	404	
14	0	0	0	0	384	409	
15	0	0	0	0	362	409	
0	0	0	0	0	342	410	
1	0	0	0	0	324	414	
2	0	0	0	0	315	410	
3	0	0	0	0	313	410	
4	0	0	0	0	317	409	
5	0	0	0	0	330	404	
6	0	0	0	0	351	409	
7	0	0	0	0	384	409	
8	0	0	0	0	431	409	
9	0	0	0	0	494	415	
10	0	0	0	0	571	409	
11	0	0	0	0	655	409	
12	0	0	0	0	733	409	
13	0	0	0	0	803	404	
14	0	0	0	0	866	408	
15	0	0	0	0	922	409	
0	0	0	0	0	966	409	
1	0	0	0	0	1003	414	
2	0	0	0	0	1022	409	
3	0	0	0	0	1022	409	
4	0	0	0	0	1022	409	
5	0	0	0	0	1022	404	
6	0	0	0	0	1022	409	
7	0	0	0	0	1022	409	
8	0	0	0	0	1022	409	
9	0	0	0	0	1022	413	
10	0	0	0	0	1022	408	
11	0	0	0	0	1022	408	
12	0	0	0	0	1022	408	
13	0	0	0	0	1022	404	
14	0	0	0	0	1022	408	
15	0	0	0	0	1022	408	
0	0	0	0	0	1022	408	
1	0	0	0	0	1022	413	
2	0	0	0	0	994	408	
3	0	0	0	0	961	409	
4	0	0	0	0	930	408	
5	0	0	0	0	902	403	
6	0	0	0	0	875	408	
7	0	0	0	0	849	408	
8	0	0	0	0	823	409	
9	0	0	0	0	798	414	
10	0	0	0	0	774	409	
11	0	0	0	0	750	409	
12	0	0	0	0	724	409	
13	0	0	0	0	704	404	
14	0	0	0	0	684	409	
15	0	0	0	0	664	409	
0	0	0	0	0	648	410	
1	0	0	0	0	633	414	
2	0	0	0	0	620	409	
3	0	0	0	0	608	409	
4	0	0	0	0	599	409	
5	0	0	0	0	591	404	
6	0	0	0	0	583	409	
7	0	0	0	0	578	409	
8	0	0	0	0	574	410	
9	0	0	0	0	570	415	
10	0	0	0	0	567	409	
11	0	0	0	0	565	409	
12	0	0	0	0	564	409	
13	0	0	0	0	562	404	
14	0	0	0	0	560	409	
15	0	0	0	0	559	409	
0	0	0	0	0	559	409	
1	0	0	0	0	558	414	
2	0	0	0	0	559	409	
3	0	0	0	0	559	409	
4	0	0	0	0	559	409	
5	0	0	0	0	559	404	
6	0	0	0	0	560	409	
7	0	0	0	0	561	409	
8	0	0	0	0	561	410	
9	0	0	0	0	563	414	
10	0	0	0	0	562	409	
11	0	0	0	0	563	409	
12	0	0	0	0	563	409	
13	0	0	0	0	563	405	
14	0	0	0	0	564	410	
15	0	0	0	0	565	410	
0	0	0	0	0	566	410	
1	0	0	0	0	567	414	
2	0	0	0	0	567	410	
3	0	0	0	0	568	409	
4	0	0	0	0	568	409	
5	0	0	0	0	568	404	
6	0	0	0	0	569	409	
7	0	0	0	0	570	409	
8	0	0	0	0	572	410	
9	0	0	0	0	574	414	
10	0	0	0	0	575	409	
11	0	0	0	0	576	409	
12	0	0	0	0	576	408	
13	0	0	0	0	576	403	
14	0	0	0	0	579	409	
15	0	0	0	0	580	409	
0	0	0	0	0	583	409	
1	0	0	0	0	584	413	
2	0	0	0	0	586	409	
3	0	0	0	0	587	409	
4	0	0	0	0	588	408	
5	0	0	0	0	589	403	
6	0	0	0	0	590	408	
7	0	0	0	0	590	409	
8	0	0	0	0	590	408	
9	0	0	0	0	591	413	
10	0	0	0	0	591	408	
11	0	0	0	0	592	408	
12	0	0	0	0	594	408	
13	0	0	0	0	596	402	
14	0	0	0	0	598	408	
15	0	0	0	0	599	408	
0	0	0	0	0	601	408	
1	0	0	0	0	603	413	
2	0	0	0	0	604	408	
3	0	0	0	0	604	408	
4	0	0	0	0	604	408	
5	0	0	0	0	603	403	
6	0	0	0	0	603	408	
7	0	0	0	0	602	408	
8	0	0	0	0	603	408	
9	0	0	0	0	604	412	
10	0	0	0	0	606	408	
11	0	0	0	0	606	408	
12	0	0	0	0	608	408	
13	0	0	0	0	609	403	
14	0	0	0	0	609	408	
15	0	0	0	0	608	408	
0	0	0	0	0	607	408	
1	0	0	0	0	606	413	
2	0	0	0	0	605	408	
3	0	0	0	0	603	408	
4	0	0	0	0	605	408	
5	0	0	0	0	608	403	
6	0	0	0	0	609	408	
7	0	0	0	0	611	408	
8	0	0	0	0	610	408	
9	0	0	0	0	611	413	
10	0	0	0	0	610	408	
11	0	0	0	0	610	408	
12	0	0	0	0	611	408	
13	0	0	0	0	611	403	
14	0	0	0	0	610	409	
15	0	0	0	0	610	409	
0	0	0	0	0	610	408	
1	0	0	0	0	611	413	
2	0	0	0	0	611	408	
3	0	0	0	0	612	408	
4	0	0	0	0	612	408	
5	0	0	0	0	612	403	
6	0	0	0	0	612	408	
7	0	0	0	0	613	409	
8	0	0	0	0	612	409	
9	0	0	0	0	612	413	
10	0	0	0	0	614	408	
11	0	0	0	0	613	409	
12	0	0	0	0	613	408	
13	0	0	0	0	611	403	
14	0	0	0	0	610	408	
15	0	0	0	0	609	408	
0	0	0	0	0	608	407	
1	0	0	0	0	607	412	
2	0	0	0	0	608	407	
3	0	0	0	0	609	407	
4	0	0	0	0	610	407	
5	0	0	0	0	611	402	
6	0	0	0	0	611	407	
7	0	0	0	0	613	407	
8	0	0	0	0	614	407	
9	0	0	0	0	614	411	
10	0	0	0	0	614	407	
11	0	0	0	0	615	406	
12	0	0	0	0	617	407	
13	0	0	0	0	619	401	
14	0	0	0	0	619	407	
15	0	0	0	0	618	407	
0	0	0	0	0	619	408	
1	0	0	0	0	619	412	
2	0	0	0	0	619	407	
3	0	0	0	0	617	407	
4	0	0	0	0	617	407	
5	0	0	0	0	617	402	
6	0	0	0	0	618	407	
7	0	0	0	0	620	407	
8	0	0	0	0	621	407	
9	0	0	0	0	622	413	
10	0	0	0	0	622	407	
11	0	0	0	0	622	408	
12	0	0	0	0	623	408	
13	0	0	0	0	623	403	
14	0	0	0	0	624	408	
15	0	0	0	0	625	408	
0	0	0	0	0	626	408	
1	0	0	0	0	626	413	
2	0	0	0	0	627	408	
3	0	0	0	0	628	408	
4	0	0	0	0	628	408	
5	0	0	0	0	628	403	
6	0	0	0	0	630	408	
7	0	0	0	0	630	408	
8	0	0	0	0	629	408	
9	0	0	0	0	629	413	
10	0	0	0	0	630	408	
11	0	0	0	0	630	409	
12	0	0	0	0	630	409	
13	0	0	0	0	631	404	
14	0	0	0	0	631	408	
15	0	0	0	0	632	409	
0	0	0	0	0	633	409	
1	0	0	0	0	634	414	
2	0	0	0	0	635	408	
3	0	0	0	0	636	409	
4	0	0	0	0	636	409	
5	0	0	0	0	636	404	
6	0	0	0	0	636	409	
7	0	0	0	0	636	408	
8	0	0	0	0	638	409	
9	0	0	0	0	640	414	
10	0	0	0	0	641	408	
11	0	0	0	0	642	409	
12	0	0	0	0	644	408	
13	0	0	0	0	644	404	
14	0	0	0	0	644	408	
15	0	0	0	0	643	408	
0	0	0	0	0	643	409	
1	0	0	0	0	643	413	
2	0	0	0	0	642	408	
3	0	0	0	0	643	408	
4	0	0	0	0	644	409	
5	0	0	0	0	645	403	
6	0	0	0	0	646	408	
7	0	0	0	0	646	408	
8	0	0	0	0	646	409	
9	0	0	0	0	645	413	
10	0	0	0	0	645	408	
11	0	0	0	0	645	408	
12	0	0	0	0	644	408	
13	0	0	0	0	644	403	
14	0	0	0	0	644	408	
15	0	0	0	0	644	408	
0	0	0	0	0	645	408	
1	0	0	0	0	646	413	
2	0	0	0	0	647	408	
3	0	0	0	0	647	408	
4	0	0	0	0	647	408	
5	0	0	0	0	648	403	
6	0	0	0	0	649	409	
7	0	0	0	0	651	408	
8	0	0	0	0	652	408	
9	0	0	0	0	652	413	
10	0	0	0	0	653	408	
11	0	0	0	0	652	408	
12	0	0	0	0	652	408	
13	0	0	0	0	652	403	
14	0	0	0	0	651	408	
15	0	0	0	0	649	408	
0	0	0	0	0	647	408	
1	0	0	0	0	646	413	
2	0	0	0	0	645	408	
3	0	0	0	0	643	408	
4	0	0	0	0	640	408	
5	0	0	0	0	636	403	
6	0	0	0	0	632	408	
7	0	0	0	0	628	409	
8	0	0	0	0	624	408	
9	0	0	0	0	620	414	
10	0	0	0	0	619	409	
11	0	0	0	0	617	409	
12	0	0	0	0	616	409	
13	0	0	0	0	614	404	
14	0	0	0	0	612	408	
15	0	0	0	0	609	408	
0	0	0	0	0	606	409	
1	0	0	0	0	604	414	
2	0	0	0	0	602	409	
3	0	0	0	0	600	409	
4	0	0	0	0	596	409	
5	0	0	0	0	592	404	
6	0	0	0	0	591	409	
7	0	0	0	0	588	409	
8	0	0	0	0	585	410	
9	0	0	0	0	583	415	
10	0	0	0	0	581	410	
11	0	0	0	0	577	409	
12	0	0	0	0	575	410	
13	0	0	0	0	574	404	
14	0	0	0	0	573	410	
15	0	0	0	0	572	410	
0	0	0	0	0	572	411	
1	0	0	0	0	571	415	
2	0	0	0	0	568	410	
3	0	0	0	0	567	411	
4	0	0	0	0	568	411	
5	0	0	0	0	568	406	
6	0	0	0	0	567	411	
7	0	0	0	0	566	411	
8	0	0	0	0	565	410	
9	0	0	0	0	565	415	
10	0	0	0	0	565	410	
11	0	0	0	0	564	410	
12	0	0	0	0	564	410	
13	0	0	0	0	566	406	
14	0	0	0	0	566	411	
15	0	0	0	0	566	411	
0	0	0	0	0	565	411	
1	0	0	0	0	565	415	
2	0	0	0	0	566	410	
3	0	0	0	0	567	410	
4	0	0	0	0	568	410	
5	0	0	0	0	567	405	
6	0	0	0	0	567	410	
7	0	0	0	0	569	410	
8	0	0	0	0	569	410	
9	0	0	0	0	570	415	
10	0	0	0	0	572	410	
11	0	0	0	0	572	410	
12	0	0	0	0	574	411	
13	0	0	0	0	574	405	
14	0	0	0	0	573	410	
15	0	0	0	0	574	410	
0	0	0	0	0	575	409	
1	0	0	0	0	575	413	
2	0	0	0	0	576	408	
3	0	0	0	0	576	409	
4	0	0	0	0	577	409	
5	0	0	0	0	577	403	
6	0	0	0	0	576	408	
7	0	0	0	0	576	409	
8	0	0	0	0	576	409	
9	0	0	0	0	577	413	
10	0	0	0	0	579	409	
11	0	0	0	0	580	409	
12	0	0	0	0	580	409	
13	0	0	0	0	580	403	
14	0	0	0	0	581	409	
15	0	0	0	0	583	409	
0	0	0	0	0	583	409	
1	0	0	0	0	585	413	
2	0	0	0	0	586	408	
3	0	0	0	0	587	408	
4	0	0	0	0	586	408	
5	0	0	0	0	587	403	
6	0	0	0	0	589	409	
7	0	0	0	0	590	408	
8	0	0	0	0	590	408	
9	0	0	0	0	588	413	
10	0	0	0	0	589	409	
11	0	0	0	0	589	408	
12	0	0	0	0	588	409	
13	0	0	0	0	587	403	
14	0	0	0	0	587	408	
15	0	0	0	0	589	408	
0	0	0	0	0	590	409	
1	0	0	0	0	589	413	
2	0	0	0	0	591	408	
3	0	0	0	0	592	408	
4	0	0	0	0	592	409	
5	0	0	0	0	592	403	
6	0	0	0	0	591	408	
7	0	0	0	0	590	408	
8	0	0	0	0	588	409	
9	0	0	0	0	588	413	
10	0	0	0	0	587	409	
11	0	0	0	0	587	409	
12	0	0	0	0	588	409	
13	0	0	0	0	589	404	
14	0	0	0	0	589	408	
15	0	0	0	0	588	408	
0	0	0	0	0	588	409	
1	0	0	0	0	590	413	
2	0	0	0	0	590	409	
3	0	0	0	0	590	409	
4	0	0	0	0	590	409	
5	0	0	0	0	590	404	
6	0	0	0	0	589	409	
7	0	0	0	0	588	409	
8	0	0	0	0	587	410	
9	0	0	0	0	588	414	
10	0	0	0	0	587	409	
11	0	0	0	0	585	409	
12	0	0	0	0	585	409	
13	0	0	0	0	584	405	
14	0	0	0	0	583	410	
15	0	0	0	0	581	408	
0	0	0	0	0	580	409	
1	0	0	0	0	581	414	
2	0	0	0	0	582	409	
3	0	0	0	0	581	409	
4	0	0	0	0	580	409	
5	0	0	0	0	579	403	
6	0	0	0	0	578	408	
7	0	0	0	0	577	409	
8	0	0	0	0	574	409	
9	0	0	0	0	574	413	
10	0	0	0	0	574	408	
11	0	0	0	0	572	408	
12	0	0	0	0	571	407	
13	0	0	0	0	572	403	
14	0	0	0	0	573	408	
15	0	0	0	0	573	408	
0	0	0	0	0	573	408	
1	0	0	0	0	573	412	
2	0	0	0	0	574	407	
3	0	0	0	0	573	407	
4	0	0	0	0	572	408	
5	0	0	0	0	572	403	
6	0	0	0	0	571	408	
7	0	0	0	0	571	408	
8	0	0	0	0	571	408	
9	0	0	0	0	572	413	
10	0	0	0	0	571	408	
11	0	0	0	0	571	408	
12	0	0	0	0	572	408	
13	0	0	0	0	573	403	
14	0	0	0	0	574	408	
15	0	0	0	0	572	408	
0	0	0	0	0	572	408	
1	0	0	0	0	573	413	
2	0	0	0	0	572	408	
3	0	0	0	0	571	408	
4	0	0	0	0	571	408	
5	0	0	0	0	569	403	
6	0	0	0	0	570	409	
7	0	0	0	0	569	409	
8	0	0	0	0	567	409	
9	0	0	0	0	565	414	
10	0	0	0	0	565	409	
11	0	0	0	0	565	409	
12	0	0	0	0	564	408	
13	0	0	0	0	563	403	
14	0	0	0	0	563	409	
15	0	0	0	0	563	409	
0	0	0	0	0	563	409	
1	0	0	0	0	563	414	
2	0	0	0	0	564	409	
3	0	0	0	0	565	410	
4	0	0	0	0	564	409	
5	0	0	0	0	564	404	
6	0	0	0	0	564	409	
7	0	0	0	0	565	409	
8	0	0	0	0	566	409	
9	0	0	0	0	566	414	
10	0	0	0	0	565	409	
11	0	0	0	0	564	410	
12	0	0	0	0	564	409	
13	0	0	0	0	564	404	
14	0	0	0	0	564	409	
15	0	0	0	0	564	410	
0	0	0	0	0	564	410	
1	0	0	0	0	562	414	
2	0	0	0	0	560	409	
3	0	0	0	0	558	409	
4	0	0	0	0	558	409	
5	0	0	0	0	557	404	
6	0	0	0	0	556	409	
7	0	0	0	0	556	409	
8	0	0	0	0	556	409	
9	0	0	0	0	556	413	
10	0	0	0	0	556	409	
11	0	0	0	0	556	409	
12	0	0	0	0	557	409	
13	0	0	0	0	557	404	
14	0	0	0	0	557	408	
15	0	0	0	0	557	409	
0	0	0	0	0	558	409	
1	0	0	0	0	558	413	
2	0	0	0	0	559	409	
3	0	0	0	0	559	408	
4	0	0	0	0	559	408	
5	0	0	0	0	560	403	
6	0	0	0	0	560	408	
7	0	0	0	0	560	408	
8	0	0	0	0	560	408	
9	0	0	0	0	559	412	
10	0	0	0	0	559	408	
11	0	0	0	0	560	408	
12	0	0	0	0	559	408	
13	0	0	0	0	559	402	
14	0	0	0	0	559	408	
15	0	0	0	0	559	407	
0	0	0	0	0	559	407	
1	0	0	0	0	559	412	
2	0	0	0	0	560	408	
3	0	0	0	0	560	407	
4	0	0	0	0	560	407	
5	0	0	0	0	560	403	
6	0	0	0	0	557	408	
7	0	0	0	0	558	408	
8	0	0	0	0	558	408	
9	0	0	0	0	559	412	
10	0	0	0	0	559	408	
11	0	0	0	0	557	408	
12	0	0	0	0	558	407	
13	0	0	0	0	556	402	
14	0	0	0	0	557	408	
15	0	0	0	0	557	408	
0	0	0	0	0	556	408	
1	0	0	0	0	556	412	
2	0	0	0	0	555	408	
3	0	0	0	0	556	408	
4	0	0	0	0	558	408	
5	0	0	0	0	558	402	
6	0	0	0	0	558	408	
7	0	0	0	0	559	408	
8	0	0	0	0	559	408	
9	0	0	0	0	559	412	
10	0	0	0	0	559	407	
11	0	0	0	0	558	407	
12	0	0	0	0	558	408	
13	0	0	0	0	559	403	
14	0	0	0	0	558	408	
15	0	0	0	0	556	408	
0	0	0	0	0	553	408	
1	0	0	0	0	552	412	
2	0	0	0	0	551	408	
3	0	0	0	0	550	408	
4	0	0	0	0	550	408	
5	0	0	0	0	551	403	
6	0	0	0	0	550	408	
7	0	0	0	0	550	408	
8	0	0	0	0	551	408	
9	0	0	0	0	550	413	
10	0	0	0	0	548	409	
11	0	0	0	0	548	408	
12	0	0	0	0	547	408	
13	0	0	0	0	545	403	
14	0	0	0	0	545	409	
15	0	0	0	0	545	409	
0	0	0	0	0	543	409	
1	0	0	0	0	544	414	
2	0	0	0	0	543	409	
3	0	0	0	0	542	409	
4	0	0	0	0	543	408	
5	0	0	0	0	544	403	
6	0	0	0	0	543	409	
7	0	0	0	0	544	409	
8	0	0	0	0	545	409	
9	0	0	0	0	548	414	
10	0	0	0	0	550	409	
11	0	0	0	0	551	408	
12	0	0	0	0	552	409	
13	0	0	0	0	553	403	
14	0	0	0	0	555	409	
15	0	0	0	0	554	408	
0	0	0	0	0	555	408	
1	0	0	0	0	555	413	
2	0	0	0	0	555	408	
3	0	0	0	0	557	408	
4	0	0	0	0	557	408	
5	0	0	0	0	558	403	
6	0	0	0	0	559	408	
7	0	0	0	0	559	408	
8	0	0	0	0	560	408	
9	0	0	0	0	560	413	
10	0	0	0	0	560	408	
11	0	0	0	0	561	408	
12	0	0	0	0	561	407	
13	0	0	0	0	560	403	
14	0	0	0	0	559	408	
15	0	0	0	0	557	408	
0	0	0	0	0	557	408	
1	0	0	0	0	557	412	
2	0	0	0	0	557	408	
3	0	0	0	0	557	408	
4	0	0	0	0	558	407	
5	0	0	0	0	556	402	
6	0	0	0	0	556	408	
7	0	0	0	0	556	407	
8	0	0	0	0	556	407	
9	0	0	0	0	554	412	
10	0	0	0	0	555	406	
11	0	0	0	0	554	406	
12	0	0	0	0	553	406	
13	0	0	0	0	552	401	
14	0	0	0	0	550	407	
15	0	0	0	0	549	406	
0	0	0	0	0	549	406	
1	0	0	0	0	547	410	
2	0	0	0	0	547	406	
3	0	0	0	0	547	406	
4	0	0	0	0	546	406	
5	0	0	0	0	545	401	
6	0	0	0	0	545	406	
7	0	0	0	0	546	406	
8	0	0	0	0	546	406	
9	0	0	0	0	546	411	
10	0	0	0	0	544	407	
11	0	0	0	0	543	406	
12	0	0	0	0	543	407	
13	0	0	0	0	542	401	
14	0	0	0	0	543	407	
15	0	0	0	0	542	407	
0	0	0	0	0	541	408	
1	0	0	0	0	542	412	
2	0	0	0	0	542	407	
3	0	0	0	0	541	408	
4	0	0	0	0	540	408	
5	0	0	0	0	540	404	
6	0	0	0	0	539	409	
7	0	0	0	0	538	410	
8	0	0	0	0	537	411	
9	0	0	0	0	537	415	
10	0	0	0	0	537	411	
11	0	0	0	0	536	412	
12	0	0	0	0	535	412	
13	0	0	0	0	536	407	
14	0	0	0	0	535	412	
15	0	0	0	0	534	412	
0	0	0	0	0	533	412	
1	0	0	0	0	534	417	
2	0	0	0	0	535	412	
3	0	0	0	0	535	412	
4	0	0	0	0	536	412	
5	0	0	0	0	537	407	
6	0	0	0	0	537	413	
7	0	0	0	0	535	412	
8	0	0	0	0	535	412	
9	0	0	0	0	536	416	
10	0	0	0	0	536	412	
11	0	0	0	0	536	412	
12	0	0	0	0	536	412	
13	0	0	0	0	536	408	
14	0	0	0	0	536	412	
15	0	0	0	0	535	412	
0	0	0	0	0	536	413	
1	0	0	0	0	535	417	
2	0	0	0	0	534	412	
3	0	0	0	0	533	412	
4	0	0	0	0	533	412	
5	0	0	0	0	533	407	
6	0	0	0	0	532	412	
7	0	0	0	0	533	412	
8	0	0	0	0	533	412	
9	0	0	0	0	533	416	
10	0	0	0	0	535	412	
11	0	0	0	0	537	412	
12	0	0	0	0	537	411	
13	0	0	0	0	534	405	
14	0	0	0	0	531	411	
15	0	0	0	0	528	411	
0	0	0	0	0	521	411	
1	0	0	0	0	511	414	
2	0	0	0	0	495	409	
3	0	0	0	0	478	409	
4	0	0	0	0	457	409	
5	0	0	0	0	432	404	
6	0	0	0	0	404	409	
7	0	0	0	0	376	409	
8	0	0	0	0	351	409	
9	0	0	0	0	327	413	
10	0	0	0	0	304	408	
11	0	0	0	0	281	407	
12	0	0	0	0	261	407	
13	0	0	0	0	243	402	
14	0	0	0	0	229	408	
15	0	0	0	0	222	407	
0	0	0	0	0	219	407	
1	0	0	0	0	224	412	
2	0	0	0	0	239	407	
3	0	0	0	0	264	406	
4	0	0	0	0	305	406	
5	0	0	0	0	363	401	
6	0	0	0	0	432	407	
7	0	0	0	0	513	406	
8	0	0	0	0	594	407	
9	0	0	0	0	667	411	
10	0	0	0	0	732	407	
11	0	0	0	0	789	406	
12	0	0	0	0	838	406	
13	0	0	0	0	877	401	
14	0	0	0	0	911	405	
15	0	0	0	0	940	406	
0	0	0	0	0	960	406	
1	0	0	0	0	977	411	
2	0	0	0	0	997	406	
3	0	0	0	0	1019	406	
4	0	0	0	0	1022	405	
5	0	0	0	0	1022	400	
6	0	0	0	0	1022	405	
7	0	0	0	0	1022	405	
8	0	0	0	0	1022	405	
9	0	0	0	0	1022	410	
10	0	0	0	0	1022	406	
11	0	0	0	0	1022	405	
12	0	0	0	0	1021	406	
13	0	0	0	0	986	400	
14	0	0	0	0	949	405	
15	0	0	0	0	913	406	
0	0	0	0	0	880	406	
1	0	0	0	0	848	411	
2	0	0	0	0	817	407	
3	0	0	0	0	787	407	
4	0	0	0	0	756	407	
5	0	0	0	0	731	402	
6	0	0	0	0	705	407	
7	0	0	0	0	679	407	
8	0	0	0	0	654	408	
9	0	0	0	0	631	412	
10	0	0	0	0	609	407	
11	0	0	0	0	591	408	
12	0	0	0	0	574	407	
13	0	0	0	0	558	402	
14	0	0	0	0	543	407	
15	0	0	0	0	529	408	
0	0	0	0	0	515	408	
1	0	0	0	0	506	412	
2	0	0	0	0	500	407	
3	0	0	0	0	495	408	
4	0	0	0	0	488	408	
5	0	0	0	0	483	403	
6	0	0	0	0	479	408	
7	0	0	0	0	477	408	
8	0	0	0	0	476	408	
9	0	0	0	0	476	414	
10	0	0	0	0	476	409	
11	0	0	0	0	475	408	
12	0	0	0	0	472	408	
13	0	0	0	0	472	404	
14	0	0	0	0	473	409	
15	0	0	0	0	472	409	
0	0	0	0	0	472	409	
1	0	0	0	0	472	414	
2	0	0	0	0	471	409	
3	0	0	0	0	470	409	
4	0	0	0	0	471	409	
5	0	0	0	0	472	403	
6	0	0	0	0	472	408	
7	0	0	0	0	472	409	
8	0	0	0	0	472	409	
9	0	0	0	0	471	413	
10	0	0	0	0	471	409	
11	0	0	0	0	471	409	
12	0	0	0	0	473	409	
13	0	0	0	0	475	404	
14	0	0	0	0	476	409	
15	0	0	0	0	476	409	
0	0	0	0	0	476	410	
1	0	0	0	0	479	414	
2	0	0	0	0	481	409	
3	0	0	0	0	483	410	
4	0	0	0	0	482	409	
5	0	0	0	0	483	405	
6	0	0	0	0	485	410	
7	0	0	0	0	487	410	
8	0	0	0	0	489	411	
9	0	0	0	0	489	415	
10	0	0	0	0	490	410	
11	0	0	0	0	490	411	
12	0	0	0	0	493	411	
13	0	0	0	0	494	406	
14	0	0	0	0	494	411	
15	0	0	0	0	495	411	
0	0	0	0	0	494	412	
1	0	0	0	0	493	415	
2	0	0	0	0	492	411	
3	0	0	0	0	493	411	
4	0	0	0	0	494	411	
5	0	0	0	0	494	407	
6	0	0	0	0	493	412	
7	0	0	0	0	495	412	
8	0	0	0	0	498	411	
9	0	0	0	0	496	415	
10	0	0	0	0	496	411	
11	0	0	0	0	496	411	
12	0	0	0	0	497	411	
13	0	0	0	0	498	405	
14	0	0	0	0	498	411	
15	0	0	0	0	500	411	
0	0	0	0	0	502	411	
1	0	0	0	0	503	415	
2	0	0	0	0	504	411	
3	0	0	0	0	505	411	
4	0	0	0	0	505	411	
5	0	0	0	0	506	406	
6	0	0	0	0	507	411	
7	0	0	0	0	507	411	
8	0	0	0	0	507	411	
9	0	0	0	0	505	416	
10	0	0	0	0	504	412	
11	0	0	0	0	504	411	
12	0	0	0	0	504	410	
13	0	0	0	0	504	406	
14	0	0	0	0	507	411	
15	0	0	0	0	508	411	
0	0	0	0	0	510	411	
1	0	0	0	0	512	416	
2	0	0	0	0	512	412	
3	0	0	0	0	513	412	
4	0	0	0	0	515	411	
5	0	0	0	0	516	406	
6	0	0	0	0	516	411	
7	0	0	0	0	518	411	
8	0	0	0	0	520	411	
9	0	0	0	0	521	415	
10	0	0	0	0	521	411	
11	0	0	0	0	521	411	
12	0	0	0	0	523	411	
13	0	0	0	0	524	406	
14	0	0	0	0	525	411	
15	0	0	0	0	524	410	
0	0	0	0	0	524	411	
1	0	0	0	0	525	415	
2	0	0	0	0	526	411	
3	0	0	0	0	527	411	
4	0	0	0	0	528	411	
5	0	0	0	0	529	405	
6	0	0	0	0	531	409	
7	0	0	0	0	532	409	
8	0	0	0	0	533	409	
9	0	0	0	0	535	414	
10	0	0	0	0	535	409	
11	0	0	0	0	535	409	
12	0	0	0	0	535	408	
13	0	0	0	0	535	404	
14	0	0	0	0	535	409	
15	0	0	0	0	536	408	
0	0	0	0	0	537	408	
1	0	0	0	0	536	414	
2	0	0	0	0	535	408	
3	0	0	0	0	536	409	
4	0	0	0	0	536	409	
5	0	0	0	0	536	404	
6	0	0	0	0	536	408	
7	0	0	0	0	536	409	
8	0	0	0	0	537	408	
9	0	0	0	0	536	413	
10	0	0	0	0	534	408	
11	0	0	0	0	534	409	
12	0	0	0	0	537	408	
13	0	0	0	0	540	403	
14	0	0	0	0	541	409	
15	0	0	0	0	542	408	
0	0	0	0	0	544	408	
1	0	0	0	0	545	413	
2	0	0	0	0	546	408	
3	0	0	0	0	545	408	
4	0	0	0	0	547	408	
5	0	0	0	0	548	403	
6	0	0	0	0	548	409	
7	0	0	0	0	547	408	
8	0	0	0	0	545	409	
9	0	0	0	0	547	413	
10	0	0	0	0	546	408	
11	0	0	0	0	545	408	
12	0	0	0	0	544	407	
13	0	0	0	0	543	403	
14	0	0	0	0	542	408	
15	0	0	0	0	543	408	
0	0	0	0	0	545	408	
1	0	0	0	0	548	413	
2	0	0	0	0	550	408	
3	0	0	0	0	551	407	
4	0	0	0	0	552	408	
5	0	0	0	0	553	402	
6	0	0	0	0	554	408	
7	0	0	0	0	553	407	
8	0	0	0	0	553	408	
9	0	0	0	0	553	412	
10	0	0	0	0	555	408	
11	0	0	0	0	556	408	
12	0	0	0	0	556	408	
13	0	0	0	0	556	402	
14	0	0	0	0	555	407	
15	0	0	0	0	557	407	
0	0	0	0	0	555	407	
1	0	0	0	0	558	411	
2	0	0	0	0	561	406	
3	0	0	0	0	563	407	
4	0	0	0	0	565	407	
5	0	0	0	0	565	401	
6	0	0	0	0	565	406	
7	0	0	0	0	565	407	
8	0	0	0	0	566	406	
9	0	0	0	0	567	411	
10	0	0	0	0	569	406	
11	0	0	0	0	570	407	
12	0	0	0	0	572	406	
13	0	0	0	0	574	401	
14	0	0	0	0	575	407	
15	0	0	0	0	576	407	
0	0	0	0	0	577	406	
1	0	0	0	0	579	411	
2	0	0	0	0	581	407	
3	0	0	0	0	580	406	
4	0	0	0	0	580	406	
5	0	0	0	0	581	401	
6	0	0	0	0	583	406	
7	0	0	0	0	581	406	
8	0	0	0	0	583	406	
9	0	0	0	0	587	412	
10	0	0	0	0	588	407	
11	0	0	0	0	589	407	
12	0	0	0	0	590	407	
13	0	0	0	0	590	403	
14	0	0	0	0	591	408	
15	0	0	0	0	592	408	
0	0	0	0	0	595	408	
1	0	0	0	0	596	412	
2	0	0	0	0	598	408	
3	0	0	0	0	598	408	
4	0	0	0	0	597	407	
5	0	0	0	0	596	403	
6	0	0	0	0	597	408	
7	0	0	0	0	598	408	
8	0	0	0	0	596	408	
9	0	0	0	0	597	412	
10	0	0	0	0	596	408	
11	0	0	0	0	595	408	
12	0	0	0	0	594	408	
13	0	0	0	0	593	402	
14	0	0	0	0	592	408	
15	0	0	0	0	590	408	
0	0	0	0	0	588	408	
1	0	0	0	0	585	413	
2	0	0	0	0	583	408	
3	0	0	0	0	580	408	
4	0	0	0	0	579	408	
5	0	0	0	0	578	402	
6	0	0	0	0	574	408	
7	0	0	0	0	568	408	
8	0	0	0	0	564	408	
9	0	0	0	0	562	413	
10	0	0	0	0	560	408	
11	0	0	0	0	558	408	
12	0	0	0	0	556	408	
13	0	0	0	0	554	403	
14	0	0	0	0	551	408	
15	0	0	0	0	547	408	
0	0	0	0	0	544	408	
1	0	0	0	0	542	413	
2	0	0	0	0	540	408	
3	0	0	0	0	537	409	
4	0	0	0	0	535	408	
5	0	0	0	0	532	403	
6	0	0	0	0	531	408	
7	0	0	0	0	528	408	
8	0	0	0	0	526	409	
9	0	0	0	0	526	413	
10	0	0	0	0	525	408	
11	0	0	0	0	524	408	
12	0	0	0	0	523	408	
13	0	0	0	0	522	402	
14	0	0	0	0	521	408	
15	0	0	0	0	520	408	
0	0	0	0	0	520	408	
1	0	0	0	0	520	413	
2	0	0	0	0	521	408	
3	0	0	0	0	520	407	
4	0	0	0	0	521	408	
5	0	0	0	0	521	403	
6	0	0	0	0	523	408	
7	0	0	0	0	524	408	
8	0	0	0	0	525	408	
9	0	0	0	0	525	412	
10	0	0	0	0	525	407	
11	0	0	0	0	526	408	
12	0	0	0	0	525	407	
13	0	0	0	0	524	402	
14	0	0	0	0	524	408	
15	0	0	0	0	524	408	
0	0	0	0	0	525	408	
1	0	0	0	0	524	413	
2	0	0	0	0	525	407	
3	0	0	0	0	527	408	
4	0	0	0	0	529	408	
5	0	0	0	0	529	403	
6	0	0	0	0	531	408	
7	0	0	0	0	531	407	
8	0	0	0	0	531	408	
9	0	0	0	0	533	413	
10	0	0	0	0	533	408	
11	0	0	0	0	534	408	
12	0	0	0	0	534	408	
13	0	0	0	0	536	402	
14	0	0	0	0	536	407	
15	0	0	0	0	537	408	
0	0	0	0	0	537	408	
1	0	0	0	0	537	412	
2	0	0	0	0	539	408	
3	0	0	0	0	540	408	
4	0	0	0	0	540	408	
5	0	0	0	0	538	403	
6	0	0	0	0	538	408	
7	0	0	0	0	539	408	
8	0	0	0	0	538	408	
9	0	0	0	0	538	412	
10	0	0	0	0	540	408	
11	0	0	0	0	541	408	
12	0	0	0	0	542	408	
13	0	0	0	0	543	403	
14	0	0	0	0	543	408	
15	0	0	0	0	546	408	
0	0	0	0	0	548	408	
1	0	0	0	0	549	412	
2	0	0	0	0	549	408	
3	0	0	0	0	549	408	
4	0	0	0	0	550	408	
5	0	0	0	0	550	403	
6	0	0	0	0	551	408	
7	0	0	0	0	551	408	
8	0	0	0	0	553	408	
9	0	0	0	0	553	413	
10	0	0	0	0	553	408	
11	0	0	0	0	551	408	
12	0	0	0	0	552	408	
13	0	0	0	0	551	403	
14	0	0	0	0	553	408	
15	0	0	0	0	555	408	
0	0	0	0	0	557	408	
1	0	0	0	0	557	413	
2	0	0	0	0	558	408	
3	0	0	0	0	560	409	
4	0	0	0	0	560	408	
5	0	0	0	0	559	404	
6	0	0	0	0	559	410	
7	0	0	0	0	560	410	
8	0	0	0	0	561	409	
9	0	0	0	0	563	414	
10	0	0	0	0	563	409	
11	0	0	0	0	563	409	
12	0	0	0	0	563	409	
13	0	0	0	0	562	404	
14	0	0	0	0	562	409	
15	0	0	0	0	563	409	
0	0	0	0	0	563	409	
1	0	0	0	0	562	414	
2	0	0	0	0	560	410	
3	0	0	0	0	560	409	
4	0	0	0	0	561	410	
5	0	0	0	0	562	404	
6	0	0	0	0	563	409	
7	0	0	0	0	564	409	
8	0	0	0	0	564	410	
9	0	0	0	0	564	415	
10	0	0	0	0	565	410	
11	0	0	0	0	564	409	
12	0	0	0	0	564	409	
13	0	0	0	0	566	405	
14	0	0	0	0	566	410	
15	0	0	0	0	566	410	
0	0	0	0	0	567	410	
1	0	0	0	0	568	415	
2	0	0	0	0	569	409	
3	0	0	0	0	570	410	
4	0	0	0	0	571	410	
5	0	0	0	0	572	405	
6	0	0	0	0	573	409	
7	0	0	0	0	572	410	
8	0	0	0	0	572	410	
9	0	0	0	0	574	414	
10	0	0	0	0	574	409	
11	0	0	0	0	575	409	
12	0	0	0	0	576	409	
13	0	0	0	0	575	404	
14	0	0	0	0	575	410	
15	0	0	0	0	576	409	
0	0	0	0	0	577	410	
1	0	0	0	0	576	415	
2	0	0	0	0	575	409	
3	0	0	0	0	577	409	
4	0	0	0	0	579	409	
5	0	0	0	0	580	404	
6	0	0	0	0	579	410	
7	0	0	0	0	579	409	
8	0	0	0	0	580	411	
9	0	0	0	0	580	415	
10	0	0	0	0	580	410	
11	0	0	0	0	580	410	
12	0	0	0	0	580	410	
13	0	0	0	0	579	404	
14	0	0	0	0	578	410	
15	0	0	0	0	579	410	
0	0	0	0	0	579	410	
1	0	0	0	0	579	415	
2	0	0	0	0	582	410	
3	0	0	0	0	583	410	
4	0	0	0	0	583	410	
5	0	0	0	0	584	406	
6	0	0	0	0	582	410	
7	0	0	0	0	582	411	
8	0	0	0	0	580	410	
9	0	0	0	0	581	415	
10	0	0	0	0	580	410	
11	0	0	0	0	579	410	
12	0	0	0	0	577	410	
13	0	0	0	0	576	405	
14	0	0	0	0	578	410	
15	0	0	0	0	578	411	
0	0	0	0	0	578	411	
1	0	0	0	0	578	415	
2	0	0	0	0	578	410	
3	0	0	0	0	576	410	
4	0	0	0	0	577	410	
5	0	0	0	0	578	405	
6	0	0	0	0	578	410	
7	0	0	0	0	578	410	
8	0	0	0	0	579	410	
9	0	0	0	0	579	415	
10	0	0	0	0	581	409	
11	0	0	0	0	581	410	
12	0	0	0	0	582	409	
13	0	0	0	0	582	405	
14	0	0	0	0	583	409	
15	0	0	0	0	583	410	
0	0	0	0	0	585	409	
1	0	0	0	0	584	415	
2	0	0	0	0	583	410	
3	0	0	0	0	582	410	
4	0	0	0	0	582	409	
5	0	0	0	0	580	404	
6	0	0	0	0	579	409	
7	0	0	0	0	578	410	
8	0	0	0	0	579	409	
9	0	0	0	0	581	415	
10	0	0	0	0	581	410	
11	0	0	0	0	580	409	
12	0	0	0	0	580	409	
13	0	0	0	0	579	404	
14	0	0	0	0	580	409	
15	0	0	0	0	580	409	
0	0	0	0	0	580	409	
1	0	0	0	0	580	413	
2	0	0	0	0	581	409	
3	0	0	0	0	581	409	
4	0	0	0	0	581	408	
5	0	0	0	0	580	404	
6	0	0	0	0	581	409	
7	0	0	0	0	581	408	
8	0	0	0	0	582	409	
9	0	0	0	0	583	413	
10	0	0	0	0	583	409	
11	0	0	0	0	582	409	
12	0	0	0	0	580	408	
13	0	0	0	0	580	403	
14	0	0	0	0	579	409	
15	0	0	0	0	579	409	
0	0	0	0	0	579	409	
1	0	0	0	0	579	414	
2	0	0	0	0	579	408	
3	0	0	0	0	580	408	
4	0	0	0	0	580	408	
5	0	0	0	0	580	403	
6	0	0	0	0	580	409	
7	0	0	0	0	579	409	
8	0	0	0	0	580	409	
9	0	0	0	0	582	413	
10	0	0	0	0	583	408	
11	0	0	0	0	583	408	
12	0	0	0	0	583	408	
13	0	0	0	0	583	403	
14	0	0	0	0	583	408	
15	0	0	0	0	582	408	
0	0	0	0	0	583	409	
1	0	0	0	0	582	413	
2	0	0	0	0	582	408	
3	0	0	0	0	583	408	
4	0	0	0	0	583	408	
5	0	0	0	0	583	402	
6	0	0	0	0	583	408	
7	0	0	0	0	583	408	
8	0	0	0	0	583	408	
9	0	0	0	0	583	413	
10	0	0	0	0	583	408	
11	0	0	0	0	583	408	
12	0	0	0	0	583	407	
13	0	0	0	0	579	403	
14	0	0	0	0	579	408	
15	0	0	0	0	578	407	
0	0	0	0	0	575	408	
1	0	0	0	0	575	412	
2	0	0	0	0	575	408	
3	0	0	0	0	576	407	
4	0	0	0	0	577	408	
5	0	0	0	0	577	403	
6	0	0	0	0	577	407	
7	0	0	0	0	577	408	
8	0	0	0	0	578	408	
9	0	0	0	0	578	412	
10	0	0	0	0	578	408	
11	0	0	0	0	577	407	
12	0	0	0	0	577	407	
13	0	0	0	0	577	403	
14	0	0	0	0	575	408	
15	0	0	0	0	574	408	
0	0	0	0	0	573	408	
1	0	0	0	0	573	412	
2	0	0	0	0	572	408	
3	0	0	0	0	570	408	
4	0	0	0	0	570	408	
5	0	0	0	0	569	403	
6	0	0	0	0	568	408	
7	0	0	0	0	569	408	
8	0	0	0	0	569	408	
9	0	0	0	0	568	413	
10	0	0	0	0	568	408	
11	0	0	0	0	569	409	
12	0	0	0	0	569	409	
13	0	0	0	0	569	404	
14	0	0	0	0	568	409	
15	0	0	0	0	567	409	
0	0	0	0	0	565	409	
1	0	0	0	0	563	414	
2	0	0	0	0	562	409	
3	0	0	0	0	562	409	
4	0	0	0	0	561	409	
5	0	0	0	0	560	403	
6	0	0	0	0	559	409	
7	0	0	0	0	559	409	
8	0	0	0	0	559	409	
9	0	0	0	0	559	413	
10	0	0	0	0	559	409	
11	0	0	0	0	557	409	
12	0	0	0	0	556	408	
13	0	0	0	0	554	403	
14	0	0	0	0	554	409	
15	0	0	0	0	555	408	
0	0	0	0	0	554	409	
1	0	0	0	0	555	413	
2	0	0	0	0	555	408	
3	0	0	0	0	554	408	
4	0	0	0	0	556	408	
5	0	0	0	0	556	403	
6	0	0	0	0	556	408	
7	0	0	0	0	558	408	
8	0	0	0	0	559	408	
9	0	0	0	0	559	412	
10	0	0	0	0	561	408	
11	0	0	0	0	561	408	
12	0	0	0	0	560	408	
13	0	0	0	0	559	402	
14	0	0	0	0	559	408	
15	0	0	0	0	560	408	
0	0	0	0	0	561	408	
1	0	0	0	0	562	412	
2	0	0	0	0	562	408	
3	0	0	0	0	563	407	
4	0	0	0	0	563	407	
5	0	0	0	0	563	403	
6	0	0	0	0	564	407	
7	0	0	0	0	565	407	
8	0	0	0	0	565	408	
9	0	0	0	0	566	413	
10	0	0	0	0	565	408	
11	0	0	0	0	563	408	
12	0	0	0	0	566	408	
13	0	0	0	0	564	403	
14	0	0	0	0	563	408	
15	0	0	0	0	563	408	
0	0	0	0	0	562	408	
1	0	0	0	0	563	413	
2	0	0	0	0	563	408	
3	0	0	0	0	563	407	
4	0	0	0	0	563	407	
5	0	0	0	0	564	403	
6	0	0	0	0	566	408	
7	0	0	0	0	567	408	
8	0	0	0	0	566	408	
9	0	0	0	0	565	412	
10	0	0	0	0	565	408	
11	0	0	0	0	564	408	
12	0	0	0	0	562	407	
13	0	0	0	0	560	402	
14	0	0	0	0	560	408	
15	0	0	0	0	559	408	
0	0	0	0	0	558	407	
1	0	0	0	0	557	413	
2	0	0	0	0	558	407	
3	0	0	0	0	558	407	
4	0	0	0	0	557	407	
5	0	0	0	0	556	402	
6	0	0	0	0	557	407	
7	0	0	0	0	559	407	
8	0	0	0	0	559	407	
9	0	0	0	0	560	412	
10	0	0	0	0	560	407	
11	0	0	0	0	558	406	
12	0	0	0	0	557	406	
13	0	0	0	0	556	401	
14	0	0	0	0	556	407	
15	0	0	0	0	557	407	
0	0	0	0	0	557	406	
1	0	0	0	0	557	411	
2	0	0	0	0	556	407	
3	0	0	0	0	557	407	
4	0	0	0	0	557	406	
5	0	0	0	0	554	401	
6	0	0	0	0	553	407	
7	0	0	0	0	552	407	
8	0	0	0	0	553	407	
9	0	0	0	0	552	412	
10	0	0	0	0	551	407	
11	0	0	0	0	552	407	
12	0	0	0	0	551	406	
13	0	0	0	0	551	402	
14	0	0	0	0	551	407	
15	0	0	0	0	551	407	
0	0	0	0	0	552	407	
1	0	0	0	0	551	411	
2	0	0	0	0	551	407	
3	0	0	0	0	551	407	
4	0	0	0	0	552	407	
5	0	0	0	0	552	401	
6	0	0	0	0	552	406	
7	0	0	0	0	552	407	
8	0	0	0	0	551	406	
9	0	0	0	0	552	411	
10	0	0	0	0	552	406	
11	0	0	0	0	551	407	
12	0	0	0	0	551	407	
13	0	0	0	0	551	401	
14	0	0	0	0	551	406	
15	0	0	0	0	553	407	
0	0	0	0	0	553	407	
1	0	0	0	0	553	412	
2	0	0	0	0	552	407	
3	0	0	0	0	551	407	
4	0	0	0	0	551	407	
5	0	0	0	0	551	402	
6	0	0	0	0	551	408	
7	0	0	0	0	550	408	
8	0	0	0	0	549	408	
9	0	0	0	0	551	413	
10	0	0	0	0	551	408	
11	0	0	0	0	551	408	
12	0	0	0	0	551	408	
13	0	0	0	0	551	403	
14	0	0	0	0	550	408	
15	0	0	0	0	547	409	
0	0	0	0	0	542	408	
1	0	0	0	0	533	413	
2	0	0	0	0	520	408	
3	0	0	0	0	503	408	
4	0	0	0	0	483	409	
5	0	0	0	0	459	403	
6	0	0	0	0	433	409	
7	0	0	0	0	405	409	
8	0	0	0	0	379	409	
9	0	0	0	0	355	414	
10	0	0	0	0	333	409	
11	0	0	0	0	311	409	
12	0	0	0	0	292	409	
13	0	0	0	0	274	405	
14	0	0	0	0	257	409	
15	0	0	0	0	246	410	
0	0	0	0	0	239	411	
1	0	0	0	0	241	415	
2	0	0	0	0	253	410	
3	0	0	0	0	272	410	
4	0	0	0	0	304	409	
5	0	0	0	0	354	405	
6	0	0	0	0	417	409	
7	0	0	0	0	487	409	
8	0	0	0	0	563	410	
9	0	0	0	0	637	415	
10	0	0	0	0	705	410	
11	0	0	0	0	762	410	
12	0	0	0	0	812	409	
13	0	0	0	0	854	404	
14	0	0	0	0	892	410	
15	0	0	0	0	923	410	
0	0	0	0	0	947	410	
1	0	0	0	0	967	415	
2	0	0	0	0	990	410	
3	0	0	0	0	1017	409	
4	0	0	0	0	1022	409	
5	0	0	0	0	1022	405	
6	0	0	0	0	1022	410	
7	0	0	0	0	1022	410	
8	0	0	0	0	1022	410	
9	0	0	0	0	1022	415	
10	0	0	0	0	1022	409	
11	0	0	0	0	1022	409	
12	0	0	0	0	1022	409	
13	0	0	0	0	1022	404	
14	0	0	0	0	992	409	
15	0	0	0	0	954	409	
0	0	0	0	0	919	410	
1	0	0	0	0	883	414	
2	0	0	0	0	846	409	
3	0	0	0	0	811	408	
4	0	0	0	0	779	408	
5	0	0	0	0	748	403	
6	0	0	0	0	718	408	
7	0	0	0	0	688	409	
8	0	0	0	0	661	409	
9	0	0	0	0	636	414	
10	0	0	0	0	611	408	
11	0	0	0	0	591	408	
12	0	0	0	0	574	408	
13	0	0	0	0	556	403	
14	0	0	0	0	540	408	
15	0	0	0	0	527	408	
0	0	0	0	0	515	408	
1	0	0	0	0	507	412	
2	0	0	0	0	500	408	
3	0	0	0	0	493	408	
4	0	0	0	0	489	407	
5	0	0	0	0	487	403	
6	0	0	0	0	484	408	
7	0	0	0	0	482	408	
8	0	0	0	0	480	408	
9	0	0	0	0	480	412	
10	0	0	0	0	479	408	
11	0	0	0	0	478	408	
12	0	0	0	0	478	407	
13	0	0	0	0	478	402	
14	0	0	0	0	477	408	
15	0	0	0	0	477	408	
0	0	0	0	0	476	408	
1	0	0	0	0	475	413	
2	0	0	0	0	475	408	
3	0	0	0	0	475	407	
4	0	0	0	0	475	408	
5	0	0	0	0	475	402	
6	0	0	0	0	475	408	
7	0	0	0	0	475	408	
8	0	0	0	0	476	409	
9	0	0	0	0	477	414	
10	0	0	0	0	478	409	
11	0	0	0	0	478	409	
12	0	0	0	0	479	409	
13	0	0	0	0	480	404	
14	0	0	0	0	480	409	
15	0	0	0	0	480	409	
0	0	0	0	0	481	408	
1	0	0	0	0	483	413	
2	0	0	0	0	484	409	
3	0	0	0	0	484	409	
4	0	0	0	0	486	409	
5	0	0	0	0	489	404	
6	0	0	0	0	489	409	
7	0	0	0	0	489	409	
8	0	0	0	0	488	409	
9	0	0	0	0	489	414	
10	0	0	0	0	489	409	
11	0	0	0	0	488	410	
12	0	0	0	0	487	409	
13	0	0	0	0	489	405	
14	0	0	0	0	488	410	
15	0	0	0	0	488	410	
0	0	0	0	0	489	410	
1	0	0	0	0	488	415	
2	0	0	0	0	490	410	
3	0	0	0	0	492	410	
4	0	0	0	0	494	409	
5	0	0	0	0	496	405	
6	0	0	0	0	496	410	
7	0	0	0	0	497	411	
8	0	0	0	0	498	410	
9	0	0	0	0	499	415	
10	0	0	0	0	500	411	
11	0	0	0	0	500	411	
12	0	0	0	0	500	410	
13	0	0	0	0	503	406	
14	0	0	0	0	504	410	
15	0	0	0	0	505	411	
0	0	0	0	0	506	410	
1	0	0	0	0	506	415	
2	0	0	0	0	507	410	
3	0	0	0	0	508	411	
4	0	0	0	0	509	411	
5	0	0	0	0	509	405	
6	0	0	0	0	509	411	
7	0	0	0	0	508	411	
8	0	0	0	0	509	411	
9	0	0	0	0	508	415	
10	0	0	0	0	509	411	
11	0	0	0	0	509	411	
12	0	0	0	0	511	410	
13	0	0	0	0	512	405	
14	0	0	0	0	514	411	
15	0	0	0	0	514	410	
0	0	0	0	0	515	411	
1	0	0	0	0	515	415	
2	0	0	0	0	517	411	
3	0	0	0	0	515	411	
4	0	0	0	0	514	411	
5	0	0	0	0	516	406	
6	0	0	0	0	516	411	
7	0	0	0	0	517	411	
8	0	0	0	0	518	411	
9	0	0	0	0	519	416	
10	0	0	0	0	519	412	
11	0	0	0	0	519	412	
12	0	0	0	0	518	411	
13	0	0	0	0	516	406	
14	0	0	0	0	517	412	
15	0	0	0	0	519	412	
0	0	0	0	0	521	411	
1	0	0	0	0	522	415	
2	0	0	0	0	524	412	
3	0	0	0	0	524	412	
4	0	0	0	0	527	411	
5	0	0	0	0	527	406	
6	0	0	0	0	527	411	
7	0	0	0	0	527	411	
8	0	0	0	0	527	411	
9	0	0	0	0	527	416	
10	0	0	0	0	527	411	
11	0	0	0	0	525	411	
12	0	0	0	0	524	411	
13	0	0	0	0	524	406	
14	0	0	0	0	524	411	
15	0	0	0	0	524	411	
0	0	0	0	0	526	412	
1	0	0	0	0	525	416	
2	0	0	0	0	525	412	
3	0	0	0	0	525	411	
4	0	0	0	0	527	411	
5	0	0	0	0	528	407	
6	0	0	0	0	529	411	
7	0	0	0	0	529	411	
8	0	0	0	0	530	411	
9	0	0	0	0	531	416	
10	0	0	0	0	529	411	
11	0	0	0	0	531	412	
12	0	0	0	0	531	411	
13	0	0	0	0	532	406	
14	0	0	0	0	532	410	
15	0	0	0	0	532	411	
0	0	0	0	0	532	412	
1	0	0	0	0	534	416	
2	0	0	0	0	535	412	
3	0	0	0	0	535	411	
4	0	0	0	0	536	411	
5	0	0	0	0	535	406	
6	0	0	0	0	535	411	
7	0	0	0	0	535	411	
8	0	0	0	0	537	410	
9	0	0	0	0	538	415	
10	0	0	0	0	539	409	
11	0	0	0	0	538	409	
12	0	0	0	0	539	409	
13	0	0	0	0	540	404	
14	0	0	0	0	540	408	
15	0	0	0	0	541	409	
0	0	0	0	0	542	408	
1	0	0	0	0	542	413	
2	0	0	0	0	542	408	
3	0	0	0	0	543	408	
4	0	0	0	0	543	408	
5	0	0	0	0	543	403	
6	0	0	0	0	544	408	
7	0	0	0	0	546	407	
8	0	0	0	0	547	408	
9	0	0	0	0	548	412	
10	0	0	0	0	549	408	
11	0	0	0	0	549	408	
12	0	0	0	0	548	408	
13	0	0	0	0	548	402	
14	0	0	0	0	547	408	
15	0	0	0	0	546	407	
0	0	0	0	0	547	407	
1	0	0	0	0	549	412	
2	0	0	0	0	550	408	
3	0	0	0	0	551	407	
4	0	0	0	0	551	407	
5	0	0	0	0	552	402	
6	0	0	0	0	553	407	
7	0	0	0	0	555	407	
8	0	0	0	0	559	408	
9	0	0	0	0	562	412	
10	0	0	0	0	564	408	
11	0	0	0	0	565	408	
12	0	0	0	0	566	407	
13	0	0	0	0	566	402	
14	0	0	0	0	567	408	
15	0	0	0	0	567	408	
0	0	0	0	0	567	408	
1	0	0	0	0	568	414	
2	0	0	0	0	570	408	
3	0	0	0	0	572	408	
4	0	0	0	0	573	408	
5	0	0	0	0	575	404	
6	0	0	0	0	577	409	
7	0	0	0	0	577	409	
8	0	0	0	0	576	409	
9	0	0	0	0	577	414	
10	0	0	0	0	577	408	
11	0	0	0	0	578	408	
12	0	0	0	0	580	409	
13	0	0	0	0	580	403	
14	0	0	0	0	582	409	
15	0	0	0	0	582	409	
0	0	0	0	0	582	409	
1	0	0	0	0	583	414	
2	0	0	0	0	584	409	
3	0	0	0	0	585	408	
4	0	0	0	0	583	408	
5	0	0	0	0	583	404	
6	0	0	0	0	582	409	
7	0	0	0	0	582	409	
8	0	0	0	0	583	409	
9	0	0	0	0	583	414	
10	0	0	0	0	583	409	
11	0	0	0	0	582	409	
12	0	0	0	0	582	409	
13	0	0	0	0	582	404	
14	0	0	0	0	582	408	
15	0	0	0	0	582	408	
0	0	0	0	0	580	408	
1	0	0	0	0	577	412	
2	0	0	0	0	574	408	
3	0	0	0	0	572	407	
4	0	0	0	0	570	407	
5	0	0	0	0	567	402	
6	0	0	0	0	566	407	
7	0	0	0	0	564	407	
8	0	0	0	0	561	407	
9	0	0	0	0	560	412	
10	0	0	0	0	558	407	
11	0	0	0	0	556	407	
12	0	0	0	0	553	407	
13	0	0	0	0	551	401	
14	0	0	0	0	548	407	
15	0	0	0	0	546	407	
0	0	0	0	0	543	407	
1	0	0	0	0	539	411	
2	0	0	0	0	536	406	
3	0	0	0	0	532	406	
4	0	0	0	0	529	406	
5	0	0	0	0	527	400	
6	0	0	0	0	525	406	
7	0	0	0	0	524	407	
8	0	0	0	0	522	406	
9	0	0	0	0	519	410	
10	0	0	0	0	516	406	
11	0	0	0	0	515	406	
12	0	0	0	0	513	405	
13	0	0	0	0	512	400	
14	0	0	0	0	511	406	
15	0	0	0	0	510	406	
0	0	0	0	0	510	406	
1	0	0	0	0	509	410	
2	0	0	0	0	510	406	
3	0	0	0	0	508	406	
4	0	0	0	0	508	406	
5	0	0	0	0	508	401	
6	0	0	0	0	508	406	
7	0	0	0	0	508	406	
8	0	0	0	0	508	406	
9	0	0	0	0	508	410	
10	0	0	0	0	508	406	
11	0	0	0	0	508	405	
12	0	0	0	0	509	406	
13	0	0	0	0	509	400	
14	0	0	0	0	509	406	
15	0	0	0	0	509	407	
0	0	0	0	0	509	406	
1	0	0	0	0	509	412	
2	0	0	0	0	511	407	
3	0	0	0	0	510	406	
4	0	0	0	0	511	406	
5	0	0	0	0	511	402	
6	0	0	0	0	514	407	
7	0	0	0	0	516	407	
8	0	0	0	0	517	407	
9	0	0	0	0	517	412	
10	0	0	0	0	516	407	
11	0	0	0	0	511	407	
12	0	0	0	0	509	407	
13	0	0	0	0	510	402	
14	0	0	0	0	510	407	
15	0	0	0	0	508	408	
0	0	0	0	0	510	408	
1	0	0	0	0	512	412	
2	0	0	0	0	516	407	
3	0	0	0	0	517	408	
4	0	0	0	0	518	408	
5	0	0	0	0	519	402	
6	0	0	0	0	521	408	
7	0	0	0	0	519	408	
8	0	0	0	0	519	408	
9	0	0	0	0	520	413	
10	0	0	0	0	521	408	
11	0	0	0	0	519	408	
12	0	0	0	0	518	408	
13	0	0	0	0	519	403	
14	0	0	0	0	519	408	
15	0	0	0	0	519	408	
0	0	0	0	0	519	408	
1	0	0	0	0	519	413	
2	0	0	0	0	519	408	
3	0	0	0	0	518	409	
4	0	0	0	0	516	409	
5	0	0	0	0	517	403	
6	0	0	0	0	519	408	
7	0	0	0	0	520	408	
8	0	0	0	0	520	409	
9	0	0	0	0	519	413	
10	0	0	0	0	519	408	
11	0	0	0	0	519	408	
12	0	0	0	0	519	408	
13	0	0	0	0	520	403	
14	0	0	0	0	520	408	
15	0	0	0	0	520	408	
0	0	0	0	0	519	408	
1	0	0	0	0	519	412	
2	0	0	0	0	519	408	
3	0	0	0	0	519	408	
4	0	0	0	0	518	408	
5	0	0	0	0	519	402	
6	0	0	0	0	519	408	
7	0	0	0	0	519	408	
8	0	0	0	0	518	408	
9	0	0	0	0	516	413	
10	0	0	0	0	516	407	
11	0	0	0	0	515	408	
12	0	0	0	0	515	408	
13	0	0	0	0	515	402	
14	0	0	0	0	514	408	
15	0	0	0	0	514	408	
0	0	0	0	0	515	409	
1	0	0	0	0	514	413	
2	0	0	0	0	513	408	
3	0	0	0	0	512	408	
4	0	0	0	0	513	408	
5	0	0	0	0	514	403	
6	0	0	0	0	512	408	
7	0	0	0	0	511	408	
8	0	0	0	0	512	409	
9	0	0	0	0	512	413	
10	0	0	0	0	512	408	
11	0	0	0	0	511	408	
12	0	0	0	0	511	408	
13	0	0	0	0	511	403	
14	0	0	0	0	510	408	
15	0	0	0	0	509	408	
0	0	0	0	0	509	408	
1	0	0	0	0	510	413	
2	0	0	0	0	510	408	
3	0	0	0	0	509	408	
4	0	0	0	0	508	408	
5	0	0	0	0	508	402	
6	0	0	0	0	509	408	
7	0	0	0	0	509	408	
8	0	0	0	0	510	408	
9	0	0	0	0	511	412	
10	0	0	0	0	511	407	
11	0	0	0	0	511	407	
12	0	0	0	0	511	407	
13	0	0	0	0	512	402	
14	0	0	0	0	512	407	
15	0	0	0	0	512	407	
0	0	0	0	0	512	408	
1	0	0	0	0	512	412	
2	0	0	0	0	513	407	
3	0	0	0	0	513	407	
4	0	0	0	0	514	408	
5	0	0	0	0	514	402	
6	0	0	0	0	513	408	
7	0	0	0	0	514	408	
8	0	0	0	0	516	407	
9	0	0	0	0	518	412	
10	0	0	0	0	517	408	
11	0	0	0	0	518	407	
12	0	0	0	0	519	408	
13	0	0	0	0	519	403	
14	0	0	0	0	520	408	
15	0	0	0	0	520	408	
0	0	0	0	0	521	408	
1	0	0	0	0	521	413	
2	0	0	0	0	521	408	
3	0	0	0	0	521	408	
4	0	0	0	0	520	408	
5	0	0	0	0	519	403	
6	0	0	0	0	518	408	
7	0	0	0	0	518	408	
8	0	0	0	0	519	409	
9	0	0	0	0	519	413	
10	0	0	0	0	520	408	
11	0	0	0	0	522	408	
12	0	0	0	0	523	408	
13	0	0	0	0	524	403	
14	0	0	0	0	525	409	
15	0	0	0	0	525	408	
0	0	0	0	0	526	409	
1	0	0	0	0	527	414	
2	0	0	0	0	527	408	
3	0	0	0	0	526	409	
4	0	0	0	0	526	408	
5	0	0	0	0	525	403	
6	0	0	0	0	524	409	
7	0	0	0	0	523	409	
8	0	0	0	0	522	408	
9	0	0	0	0	520	413	
10	0	0	0	0	519	408	
11	0	0	0	0	518	408	
12	0	0	0	0	519	407	
13	0	0	0	0	519	403	
14	0	0	0	0	519	407	
15	0	0	0	0	519	407	
0	0	0	0	0	519	408	
1	0	0	0	0	520	412	
2	0	0	0	0	522	408	
3	0	0	0	0	522	408	
4	0	0	0	0	522	408	
5	0	0	0	0	521	403	
6	0	0	0	0	522	407	
7	0	0	0	0	522	408	
8	0	0	0	0	522	408	
9	0	0	0	0	522	413	
10	0	0	0	0	522	408	
11	0	0	0	0	519	408	
12	0	0	0	0	519	409	
13	0	0	0	0	520	404	
14	0	0	0	0	519	409	
15	0	0	0	0	519	409	
0	0	0	0	0	519	409	
1	0	0	0	0	519	414	
2	0	0	0	0	519	409	
3	0	0	0	0	518	408	
4	0	0	0	0	518	409	
5	0	0	0	0	518	403	
6	0	0	0	0	518	408	
7	0	0	0	0	519	409	
8	0	0	0	0	518	408	
9	0	0	0	0	518	412	
10	0	0	0	0	519	408	
11	0	0	0	0	519	408	
12	0	0	0	0	519	408	
13	0	0	0	0	518	403	
14	0	0	0	0	518	408	
15	0	0	0	0	518	408	
0	0	0	0	0	518	408	
1	0	0	0	0	515	413	
2	0	0	0	0	515	408	
3	0	0	0	0	515	409	
4	0	0	0	0	516	408	
5	0	0	0	0	516	404	
6	0	0	0	0	517	409	
7	0	0	0	0	517	408	
8	0	0	0	0	518	409	
9	0	0	0	0	517	413	
10	0	0	0	0	518	409	
11	0	0	0	0	518	409	
12	0	0	0	0	517	409	
13	0	0	0	0	517	403	
14	0	0	0	0	519	408	
15	0	0	0	0	519	408	
0	0	0	0	0	519	408	
1	0	0	0	0	519	413	
2	0	0	0	0	520	408	
3	0	0	0	0	519	409	
4	0	0	0	0	520	408	
5	0	0	0	0	521	403	
6	0	0	0	0	522	409	
7	0	0	0	0	523	408	
8	0	0	0	0	523	409	
9	0	0	0	0	524	414	
10	0	0	0	0	524	409	
11	0	0	0	0	525	409	
12	0	0	0	0	526	409	
13	0	0	0	0	526	405	
14	0	0	0	0	526	410	
15	0	0	0	0	526	411	
0	0	0	0	0	526	410	
1	0	0	0	0	526	415	
2	0	0	0	0	527	411	
3	0	0	0	0	524	411	
4	0	0	0	0	522	412	
5	0	0	0	0	519	407	
6	0	0	0	0	519	414	
7	0	0	0	0	519	414	
8	0	0	0	0	519	415	
9	0	0	0	0	521	419	
10	0	0	0	0	524	415	
11	0	0	0	0	526	416	
12	0	0	0	0	527	415	
13	0	0	0	0	528	410	
14	0	0	0	0	529	416	
15	0	0	0	0	530	415	
0	0	0	0	0	531	416	
1	0	0	0	0	531	419	
2	0	0	0	0	532	415	
3	0	0	0	0	532	414	
4	0	0	0	0	532	414	
5	0	0	0	0	532	409	
6	0	0	0	0	531	414	
7	0	0	0	0	530	414	
8	0	0	0	0	530	413	
9	0	0	0	0	529	418	
10	0	0	0	0	528	412	
11	0	0	0	0	528	413	
12	0	0	0	0	528	413	
13	0	0	0	0	529	408	
14	0	0	0	0	528	412	
15	0	0	0	0	529	412	
0	0	0	0	0	529	412	
1	0	0	0	0	529	416	
2	0	0	0	0	528	412	
3	0	0	0	0	527	412	
4	0	0	0	0	527	411	
5	0	0	0	0	527	406	
6	0	0	0	0	528	411	
7	0	0	0	0	526	411	
8	0	0	0	0	528	410	
9	0	0	0	0	529	414	
10	0	0	0	0	530	410	
11	0	0	0	0	531	409	
12	0	0	0	0	531	408	
13	0	0	0	0	531	403	
14	0	0	0	0	531	409	
15	0	0	0	0	530	408	
0	0	0	0	0	530	408	
1	0	0	0	0	529	412	
2	0	0	0	0	530	407	
3	0	0	0	0	530	407	
4	0	0	0	0	528	407	
5	0	0	0	0	528	402	
6	0	0	0	0	529	406	
7	0	0	0	0	531	407	
8	0	0	0	0	533	407	
9	0	0	0	0	534	411	
10	0	0	0	0	536	406	
11	0	0	0	0	536	406	
12	0	0	0	0	537	406	
13	0	0	0	0	538	401	
14	0	0	0	0	537	406	
15	0	0	0	0	537	406	
0	0	0	0	0	538	406	
1	0	0	0	0	539	411	
2	0	0	0	0	538	406	
3	0	0	0	0	539	406	
4	0	0	0	0	539	406	
5	0	0	0	0	540	400	
6	0	0	0	0	540	405	
7	0	0	0	0	540	406	
8	0	0	0	0	540	406	
9	0	0	0	0	540	410	
10	0	0	0	0	542	406	
11	0	0	0	0	542	405	
12	0	0	0	0	543	406	
13	0	0	0	0	543	401	
14	0	0	0	0	543	407	
15	0	0	0	0	543	407	
0	0	0	0	0	543	407	
1	0	0	0	0	541	412	
2	0	0	0	0	541	407	
3	0	0	0	0	541	407	
4	0	0	0	0	541	407	
5	0	0	0	0	542	402	
6	0	0	0	0	541	408	
7	0	0	0	0	540	407	
8	0	0	0	0	540	408	
9	0	0	0	0	540	412	
10	0	0	0	0	540	408	
11	0	0	0	0	539	408	
12	0	0	0	0	539	408	
13	0	0	0	0	539	403	
14	0	0	0	0	539	409	
15	0	0	0	0	538	408	
0	0	0	0	0	539	409	
1	0	0	0	0	540	414	
2	0	0	0	0	541	410	
3	0	0	0	0	541	409	
4	0	0	0	0	540	409	
5	0	0	0	0	541	404	
6	0	0	0	0	543	411	
7	0	0	0	0	543	410	
8	0	0	0	0	544	411	
9	0	0	0	0	544	415	
10	0	0	0	0	544	411	
11	0	0	0	0	544	410	
12	0	0	0	0	544	411	
13	0	0	0	0	544	406	
14	0	0	0	0	545	411	
15	0	0	0	0	546	411	
0	0	0	0	0	547	411	
1	0	0	0	0	547	415	
2	0	0	0	0	546	411	
3	0	0	0	0	546	411	
4	0	0	0	0	546	411	
5	0	0	0	0	548	407	
6	0	0	0	0	550	412	
7	0	0	0	0	551	412	
8	0	0	0	0	552	412	
9	0	0	0	0	552	416	
10	0	0	0	0	553	412	
11	0	0	0	0	552	411	
12	0	0	0	0	553	412	
13	0	0	0	0	553	406	
14	0	0	0	0	554	411	
15	0	0	0	0	554	411	
0	0	0	0	0	554	411	
1	0	0	0	0	553	416	
2	0	0	0	0	553	411	
3	0	0	0	0	553	411	
4	0	0	0	0	552	410	
5	0	0	0	0	551	406	
6	0	0	0	0	551	411	
7	0	0	0	0	553	411	
8	0	0	0	0	553	411	
9	0	0	0	0	554	416	
10	0	0	0	0	555	411	
11	0	0	0	0	556	410	
12	0	0	0	0	557	411	
13	0	0	0	0	558	405	
14	0	0	0	0	558	411	
15	0	0	0	0	557	410	
0	0	0	0	0	556	410	
1	0	0	0	0	557	415	
2	0	0	0	0	556	410	
3	0	0	0	0	555	410	
4	0	0	0	0	553	410	
5	0	0	0	0	552	405	
6	0	0	0	0	551	410	
7	0	0	0	0	550	411	
8	0	0	0	0	550	410	
9	0	0	0	0	550	415	
10	0	0	0	0	550	410	
11	0	0	0	0	551	410	
12	0	0	0	0	551	409	
13	0	0	0	0	552	404	
14	0	0	0	0	553	410	
15	0	0	0	0	553	409	
0	0	0	0	0	551	409	
1	0	0	0	0	551	414	
2	0	0	0	0	551	409	
3	0	0	0	0	552	409	
4	0	0	0	0	553	410	
5	0	0	0	0	551	404	
6	0	0	0	0	551	408	
7	0	0	0	0	553	409	
8	0	0	0	0	553	409	
9	0	0	0	0	553	414	
10	0	0	0	0	555	408	
11	0	0	0	0	555	409	
12	0	0	0	0	555	409	
13	0	0	0	0	555	403	
14	0	0	0	0	554	409	
15	0	0	0	0	555	409	
0	0	0	0	0	556	409	
1	0	0	0	0	556	414	
2	0	0	0	0	557	409	
3	0	0	0	0	558	408	
4	0	0	0	0	557	409	
5	0	0	0	0	557	404	
6	0	0	0	0	557	409	
7	0	0	0	0	557	409	
8	0	0	0	0	557	409	
9	0	0	0	0	557	412	
10	0	0	0	0	556	409	
11	0	0	0	0	556	409	
12	0	0	0	0	555	408	
13	0	0	0	0	555	403	
14	0	0	0	0	555	408	
15	0	0	0	0	556	408	
0	0	0	0	0	554	408	
1	0	0	0	0	554	412	
2	0	0	0	0	554	408	
3	0	0	0	0	555	408	
4	0	0	0	0	554	408	
5	0	0	0	0	553	403	
6	0	0	0	0	552	408	
7	0	0	0	0	551	409	
8	0	0	0	0	550	408	
9	0	0	0	0	549	413	
10	0	0	0	0	550	409	
11	0	0	0	0	550	408	
12	0	0	0	0	551	408	
13	0	0	0	0	551	403	
14	0	0	0	0	551	408	
15	0	0	0	0	550	408	
0	0	0	0	0	548	408	
1	0	0	0	0	543	413	
2	0	0	0	0	536	408	
3	0	0	0	0	526	408	
4	0	0	0	0	511	408	
5	0	0	0	0	494	403	
6	0	0	0	0	474	408	
7	0	0	0	0	449	408	
8	0	0	0	0	424	408	
9	0	0	0	0	398	413	
10	0	0	0	0	374	408	
11	0	0	0	0	348	408	
12	0	0	0	0	327	408	
13	0	0	0	0	305	403	
14	0	0	0	0	285	408	
15	0	0	0	0	268	408	
0	0	0	0	0	254	408	
1	0	0	0	0	246	413	
2	0	0	0	0	244	408	
3	0	0	0	0	251	408	
4	0	0	0	0	267	407	
5	0	0	0	0	291	402	
6	0	0	0	0	330	407	
7	0	0	0	0	386	407	
8	0	0	0	0	452	407	
9	0	0	0	0	529	412	
10	0	0	0	0	603	407	
11	0	0	0	0	670	406	
12	0	0	0	0	730	405	
13	0	0	0	0	784	400	
14	0	0	0	0	831	406	
15	0	0	0	0	871	405	
0	0	0	0	0	905	405	
1	0	0	0	0	932	410	
2	0	0	0	0	950	405	
3	0	0	0	0	964	405	
4	0	0	0	0	984	404	
5	0	0	0	0	1008	399	
6	0	0	0	0	1022	404	
7	0	0	0	0	1022	405	
8	0	0	0	0	1022	405	
9	0	0	0	0	1022	410	
10	0	0	0	0	1022	406	
11	0	0	0	0	1022	406	
12	0	0	0	0	1022	407	
13	0	0	0	0	1022	401	
14	0	0	0	0	1005	407	
15	0	0	0	0	969	408	
0	0	0	0	0	934	408	
1	0	0	0	0	900	412	
2	0	0	0	0	868	408	
3	0	0	0	0	836	409	
4	0	0	0	0	806	409	
5	0	0	0	0	777	404	
6	0	0	0	0	750	409	
7	0	0	0	0	723	410	
8	0	0	0	0	697	410	
9	0	0	0	0	671	415	
10	0	0	0	0	647	410	
11	0	0	0	0	625	411	
12	0	0	0	0	604	411	
13	0	0	0	0	585	406	
14	0	0	0	0	569	411	
15	0	0	0	0	554	411	
0	0	0	0	0	541	411	
1	0	0	0	0	531	417	
2	0	0	0	0	521	412	
3	0	0	0	0	512	412	
4	0	0	0	0	505	412	
5	0	0	0	0	499	406	
6	0	0	0	0	494	412	
7	0	0	0	0	489	412	
8	0	0	0	0	485	412	
9	0	0	0	0	482	416	
10	0	0	0	0	480	412	
11	0	0	0	0	479	412	
12	0	0	0	0	477	412	
13	0	0	0	0	476	407	
14	0	0	0	0	474	412	
15	0	0	0	0	472	412	
0	0	0	0	0	473	412	
1	0	0	0	0	474	417	
2	0	0	0	0	475	411	
3	0	0	0	0	476	411	
4	0	0	0	0	476	411	
5	0	0	0	0	476	405	
6	0	0	0	0	477	410	
7	0	0	0	0	477	410	
8	0	0	0	0	477	409	
9	0	0	0	0	478	414	
10	0	0	0	0	478	409	
11	0	0	0	0	479	409	
12	0	0	0	0	480	408	
13	0	0	0	0	481	403	
14	0	0	0	0	482	408	
15	0	0	0	0	483	408	
0	0	0	0	0	485	408	
1	0	0	0	0	485	412	
2	0	0	0	0	486	407	
3	0	0	0	0	486	407	
4	0	0	0	0	487	407	
5	0	0	0	0	488	401	
6	0	0	0	0	489	406	
7	0	0	0	0	489	405	
8	0	0	0	0	489	406	
9	0	0	0	0	489	409	
10	0	0	0	0	489	404	
11	0	0	0	0	489	405	
12	0	0	0	0	489	404	
13	0	0	0	0	492	399	
14	0	0	0	0	493	404	
15	0	0	0	0	495	404	
0	0	0	0	0	496	404	
1	0	0	0	0	498	408	
2	0	0	0	0	499	404	
3	0	0	0	0	499	403	
4	0	0	0	0	498	403	
5	0	0	0	0	499	399	
6	0	0	0	0	498	403	
7	0	0	0	0	500	404	
8	0	0	0	0	501	405	
9	0	0	0	0	502	410	
10	0	0	0	0	502	405	
11	0	0	0	0	500	405	
12	0	0	0	0	501	405	
13	0	0	0	0	501	400	
14	0	0	0	0	502	406	
15	0	0	0	0	502	406	
0	0	0	0	0	503	406	
1	0	0	0	0	504	411	
2	0	0	0	0	505	407	
3	0	0	0	0	506	407	
4	0	0	0	0	507	406	
5	0	0	0	0	507	402	
6	0	0	0	0	508	407	
7	0	0	0	0	507	408	
8	0	0	0	0	507	408	
9	0	0	0	0	508	413	
10	0	0	0	0	509	408	
11	0	0	0	0	510	408	
12	0	0	0	0	511	408	
13	0	0	0	0	512	403	
14	0	0	0	0	513	409	
15	0	0	0	0	514	410	
0	0	0	0	0	515	410	
1	0	0	0	0	514	415	
2	0	0	0	0	514	411	
3	0	0	0	0	515	411	
4	0	0	0	0	516	411	
5	0	0	0	0	516	406	
6	0	0	0	0	518	412	
7	0	0	0	0	519	412	
8	0	0	0	0	521	412	
9	0	0	0	0	524	418	
10	0	0	0	0	527	412	
11	0	0	0	0	528	412	
12	0	0	0	0	528	413	
13	0	0	0	0	527	408	
14	0	0	0	0	527	414	
15	0	0	0	0	527	414	
0	0	0	0	0	527	414	
1	0	0	0	0	528	419	
2	0	0	0	0	529	414	
3	0	0	0	0	531	414	
4	0	0	0	0	534	414	
5	0	0	0	0	535	410	
6	0	0	0	0	535	415	
7	0	0	0	0	536	415	
8	0	0	0	0	537	416	
9	0	0	0	0	538	420	
10	0	0	0	0	539	415	
11	0	0	0	0	539	416	
12	0	0	0	0	541	416	
13	0	0	0	0	542	411	
14	0	0	0	0	542	416	
15	0	0	0	0	544	416	
0	0	0	0	0	545	417	
1	0	0	0	0	545	421	
2	0	0	0	0	547	416	
3	0	0	0	0	549	416	
4	0	0	0	0	551	415	
5	0	0	0	0	551	410	
6	0	0	0	0	552	415	
7	0	0	0	0	553	415	
8	0	0	0	0	552	416	
9	0	0	0	0	552	420	
10	0	0	0	0	552	415	
11	0	0	0	0	553	416	
12	0	0	0	0	555	415	
13	0	0	0	0	556	409	
14	0	0	0	0	558	415	
15	0	0	0	0	559	415	
0	0	0	0	0	560	415	
1	0	0	0	0	561	418	
2	0	0	0	0	563	414	
3	0	0	0	0	563	414	
4	0	0	0	0	563	413	
5	0	0	0	0	563	408	
6	0	0	0	0	564	414	
7	0	0	0	0	563	412	
8	0	0	0	0	563	414	
9	0	0	0	0	566	417	
10	0	0	0	0	566	412	
11	0	0	0	0	567	412	
12	0	0	0	0	568	412	
13	0	0	0	0	568	407	
14	0	0	0	0	569	412	
15	0	0	0	0	570	412	
0	0	0	0	0	572	411	
1	0	0	0	0	572	415	
2	0	0	0	0	573	410	
3	0	0	0	0	575	410	
4	0	0	0	0	576	410	
5	0	0	0	0	578	404	
6	0	0	0	0	579	409	
7	0	0	0	0	580	410	
8	0	0	0	0	581	410	
9	0	0	0	0	581	413	
10	0	0	0	0	582	408	
11	0	0	0	0	583	408	
12	0	0	0	0	584	408	
13	0	0	0	0	586	403	
14	0	0	0	0	588	408	
15	0	0	0	0	589	408	
0	0	0	0	0	590	408	
1	0	0	0	0	591	412	
2	0	0	0	0	593	408	
3	0	0	0	0	594	407	
4	0	0	0	0	595	407	
5	0	0	0	0	595	402	
6	0	0	0	0	595	407	
7	0	0	0	0	596	407	
8	0	0	0	0	599	407	
9	0	0	0	0	601	411	
10	0	0	0	0	604	406	
11	0	0	0	0	605	407	
12	0	0	0	0	606	406	
13	0	0	0	0	606	400	
14	0	0	0	0	606	405	
15	0	0	0	0	607	406	
0	0	0	0	0	607	406	
1	0	0	0	0	608	411	
2	0	0	0	0	609	406	
3	0	0	0	0	609	406	
4	0	0	0	0	609	406	
5	0	0	0	0	610	401	
6	0	0	0	0	611	406	
7	0	0	0	0	613	405	
8	0	0	0	0	614	406	
9	0	0	0	0	615	410	
10	0	0	0	0	616	406	
11	0	0	0	0	616	407	
12	0	0	0	0	616	406	
13	0	0	0	0	616	402	
14	0	0	0	0	615	406	
15	0	0	0	0	615	406	
0	0	0	0	0	615	407	
1	0	0	0	0	616	411	
2	0	0	0	0	615	406	
3	0	0	0	0	615	406	
4	0	0	0	0	615	405	
5	0	0	0	0	617	401	
6	0	0	0	0	617	407	
7	0	0	0	0	618	406	
8	0	0	0	0	619	407	
9	0	0	0	0	620	411	
10	0	0	0	0	621	407	
11	0	0	0	0	621	407	
12	0	0	0	0	622	407	
13	0	0	0	0	622	402	
14	0	0	0	0	620	408	
15	0	0	0	0	618	407	
0	0	0	0	0	616	408	
1	0	0	0	0	614	412	
2	0	0	0	0	611	408	
3	0	0	0	0	608	407	
4	0	0	0	0	606	407	
5	0	0	0	0	603	402	
6	0	0	0	0	602	407	
7	0	0	0	0	600	408	
8	0	0	0	0	597	407	
9	0	0	0	0	594	412	
10	0	0	0	0	591	407	
11	0	0	0	0	588	407	
12	0	0	0	0	585	407	
13	0	0	0	0	582	401	
14	0	0	0	0	579	407	
15	0	0	0	0	575	407	
0	0	0	0	0	571	407	
1	0	0	0	0	568	412	
2	0	0	0	0	564	408	
3	0	0	0	0	560	408	
4	0	0	0	0	557	408	
5	0	0	0	0	553	403	
6	0	0	0	0	549	408	
7	0	0	0	0	546	408	
8	0	0	0	0	543	408	
9	0	0	0	0	540	412	
10	0	0	0	0	536	408	
11	0	0	0	0	533	408	
12	0	0	0	0	531	408	
13	0	0	0	0	531	403	
14	0	0	0	0	529	408	
15	0	0	0	0	528	408	
0	0	0	0	0	525	408	
1	0	0	0	0	524	413	
2	0	0	0	0	521	408	
3	0	0	0	0	519	408	
4	0	0	0	0	519	408	
5	0	0	0	0	518	403	
6	0	0	0	0	515	408	
7	0	0	0	0	514	408	
8	0	0	0	0	514	409	
9	0	0	0	0	513	413	
10	0	0	0	0	513	409	
11	0	0	0	0	514	409	
12	0	0	0	0	513	409	
13	0	0	0	0	512	404	
14	0	0	0	0	512	408	
15	0	0	0	0	512	409	
0	0	0	0	0	512	409	
1	0	0	0	0	512	413	
2	0	0	0	0	512	409	
3	0	0	0	0	513	408	
4	0	0	0	0	514	409	
5	0	0	0	0	516	403	
6	0	0	0	0	516	409	
7	0	0	0	0	516	408	
8	0	0	0	0	515	409	
9	0	0	0	0	515	413	
10	0	0	0	0	517	408	
11	0	0	0	0	519	408	
12	0	0	0	0	519	408	
13	0	0	0	0	520	402	
14	0	0	0	0	520	408	
15	0	0	0	0	521	408	
0	0	0	0	0	522	408	
1	0	0	0	0	522	414	
2	0	0	0	0	523	408	
3	0	0	0	0	522	408	
4	0	0	0	0	523	408	
5	0	0	0	0	524	403	
6	0	0	0	0	524	408	
7	0	0	0	0	525	408	
8	0	0	0	0	525	408	
9	0	0	0	0	525	413	
10	0	0	0	0	525	408	
11	0	0	0	0	524	408	
12	0	0	0	0	525	408	
13	0	0	0	0	524	403	
14	0	0	0	0	524	408	
15	0	0	0	0	524	408	
0	0	0	0	0	524	408	
1	0	0	0	0	525	413	
2	0	0	0	0	526	408	
3	0	0	0	0	527	408	
4	0	0	0	0	528	408	
5	0	0	0	0	530	402	
6	0	0	0	0	532	408	
7	0	0	0	0	533	408	
8	0	0	0	0	534	408	
9	0	0	0	0	535	412	
10	0	0	0	0	536	408	
11	0	0	0	0	536	408	
12	0	0	0	0	537	407	
13	0	0	0	0	536	402	
14	0	0	0	0	535	407	
15	0	0	0	0	534	408	
0	0	0	0	0	532	407	
1	0	0	0	0	532	412	
2	0	0	0	0	531	408	
3	0	0	0	0	531	408	
4	0	0	0	0	532	408	
5	0	0	0	0	533	403	
6	0	0	0	0	535	407	
7	0	0	0	0	536	408	
8	0	0	0	0	537	408	
9	0	0	0	0	537	412	
10	0	0	0	0	539	407	
11	0	0	0	0	539	407	
12	0	0	0	0	540	407	
13	0	0	0	0	541	403	
14	0	0	0	0	540	408	
15	0	0	0	0	541	408	
0	0	0	0	0	541	408	
1	0	0	0	0	540	413	
2	0	0	0	0	540	408	
3	0	0	0	0	537	408	
4	0	0	0	0	536	408	
5	0	0	0	0	536	403	
6	0	0	0	0	537	408	
7	0	0	0	0	537	408	
8	0	0	0	0	539	408	
9	0	0	0	0	540	413	
10	0	0	0	0	540	408	
11	0	0	0	0	540	408	
12	0	0	0	0	539	408	
13	0	0	0	0	539	403	
14	0	0	0	0	538	408	
15	0	0	0	0	538	408	
0	0	0	0	0	539	408	
1	0	0	0	0	539	413	
2	0	0	0	0	540	408	
3	0	0	0	0	541	408	
4	0	0	0	0	541	408	
5	0	0	0	0	541	402	
6	0	0	0	0	540	408	
7	0	0	0	0	539	408	
8	0	0	0	0	540	408	
9	0	0	0	0	540	413	
10	0	0	0	0	541	408	
11	0	0	0	0	543	408	
12	0	0	0	0	543	408	
13	0	0	0	0	543	403	
14	0	0	0	0	544	408	
15	0	0	0	0	543	408	
0	0	0	0	0	543	408	
1	0	0	0	0	542	412	
2	0	0	0	0	540	408	
3	0	0	0	0	540	408	
4	0	0	0	0	539	408	
5	0	0	0	0	540	403	
6	0	0	0	0	540	408	
7	0	0	0	0	540	408	
8	0	0	0	0	541	408	
9	0	0	0	0	542	413	
10	0	0	0	0	542	408	
11	0	0	0	0	543	408	
12	0	0	0	0	543	408	
13	0	0	0	0	543	403	
14	0	0	0	0	545	408	
15	0	0	0	0	546	408	
0	0	0	0	0	546	409	
1	0	0	0	0	545	413	
2	0	0	0	0	547	408	
3	0	0	0	0	547	408	
4	0	0	0	0	547	407	
5	0	0	0	0	547	403	
6	0	0	0	0	546	408	
7	0	0	0	0	546	408	
8	0	0	0	0	546	408	
9	0	0	0	0	547	413	
10	0	0	0	0	546	408	
11	0	0	0	0	547	409	
12	0	0	0	0	547	408	
13	0	0	0	0	546	403	
14	0	0	0	0	547	409	
15	0	0	0	0	547	408	
0	0	0	0	0	548	409	
1	0	0	0	0	550	413	
2	0	0	0	0	550	409	
3	0	0	0	0	550	408	
4	0	0	0	0	551	408	
5	0	0	0	0	551	404	
6	0	0	0	0	551	409	
7	0	0	0	0	551	409	
8	0	0	0	0	551	409	
9	0	0	0	0	552	414	
10	0	0	0	0	552	410	
11	0	0	0	0	552	410	
12	0	0	0	0	552	409	
13	0	0	0	0	551	405	
14	0	0	0	0	551	410	
15	0	0	0	0	551	410	
0	0	0	0	0	550	410	
1	0	0	0	0	550	415	
2	0	0	0	0	550	410	
3	0	0	0	0	549	409	
4	0	0	0	0	549	410	
5	0	0	0	0	549	405	
6	0	0	0	0	549	409	
7	0	0	0	0	550	410	
8	0	0	0	0	551	410	
9	0	0	0	0	551	415	
10	0	0	0	0	552	410	
11	0	0	0	0	550	410	
12	0	0	0	0	550	409	
13	0	0	0	0	551	404	
14	0	0	0	0	551	409	
15	0	0	0	0	551	409	
0	0	0	0	0	551	409	
1	0	0	0	0	551	414	
2	0	0	0	0	550	410	
3	0	0	0	0	548	409	
4	0	0	0	0	548	409	
5	0	0	0	0	548	405	
6	0	0	0	0	548	409	
7	0	0	0	0	549	409	
8	0	0	0	0	549	410	
9	0	0	0	0	547	413	
10	0	0	0	0	547	409	
11	0	0	0	0	548	409	
12	0	0	0	0	548	409	
13	0	0	0	0	548	403	
14	0	0	0	0	548	409	
15	0	0	0	0	548	409	
0	0	0	0	0	547	409	
1	0	0	0	0	545	414	
2	0	0	0	0	545	409	
3	0	0	0	0	546	408	
4	0	0	0	0	547	408	
5	0	0	0	0	548	403	
6	0	0	0	0	548	409	
7	0	0	0	0	549	408	
8	0	0	0	0	550	409	
9	0	0	0	0	551	414	
10	0	0	0	0	550	408	
11	0	0	0	0	548	408	
12	0	0	0	0	547	408	
13	0	0	0	0	547	403	
14	0	0	0	0	548	407	
15	0	0	0	0	548	408	
0	0	0	0	0	549	407	
1	0	0	0	0	551	412	
2	0	0	0	0	551	407	
3	0	0	0	0	552	408	
4	0	0	0	0	552	407	
5	0	0	0	0	551	403	
6	0	0	0	0	550	407	
7	0	0	0	0	548	407	
8	0	0	0	0	548	408	
9	0	0	0	0	549	412	
10	0	0	0	0	549	407	
11	0	0	0	0	548	407	
12	0	0	0	0	547	407	
13	0	0	0	0	546	401	
14	0	0	0	0	546	407	
15	0	0	0	0	546	407	
0	0	0	0	0	547	407	
1	0	0	0	0	547	412	
2	0	0	0	0	548	407	
3	0	0	0	0	549	407	
4	0	0	0	0	548	407	
5	0	0	0	0	547	402	
6	0	0	0	0	547	407	
7	0	0	0	0	547	407	
8	0	0	0	0	547	408	
9	0	0	0	0	547	412	
10	0	0	0	0	548	407	
11	0	0	0	0	547	407	
12	0	0	0	0	547	407	
13	0	0	0	0	547	401	
14	0	0	0	0	548	407	
15	0	0	0	0	549	408	
0	0	0	0	0	550	407	
1	0	0	0	0	550	412	
2	0	0	0	0	550	407	
3	0	0	0	0	551	408	
4	0	0	0	0	551	407	
5	0	0	0	0	550	402	
6	0	0	0	0	549	407	
7	0	0	0	0	549	407	
8	0	0	0	0	549	408	
9	0	0	0	0	550	412	
10	0	0	0	0	549	407	
11	0	0	0	0	547	408	
12	0	0	0	0	548	407	
13	0	0	0	0	549	402	
14	0	0	0	0	549	408	
15	0	0	0	0	548	407	
0	0	0	0	0	548	408	
1	0	0	0	0	547	413	
2	0	0	0	0	547	407	
3	0	0	0	0	546	407	
4	0	0	0	0	545	408	
5	0	0	0	0	544	402	
6	0	0	0	0	544	408	
7	0	0	0	0	543	408	
8	0	0	0	0	544	408	
9	0	0	0	0	543	413	
10	0	0	0	0	544	409	
11	0	0	0	0	544	409	
12	0	0	0	0	544	408	
13	0	0	0	0	543	403	
14	0	0	0	0	543	409	
15	0	0	0	0	544	409	
0	0	0	0	0	545	409	
1	0	0	0	0	544	414	
2	0	0	0	0	544	409	
3	0	0	0	0	545	409	
4	0	0	0	0	546	409	
5	0	0	0	0	545	404	
6	0	0	0	0	545	409	
7	0	0	0	0	545	408	
8	0	0	0	0	545	409	
9	0	0	0	0	545	414	
10	0	0	0	0	546	409	
11	0	0	0	0	546	409	
12	0	0	0	0	546	409	
13	0	0	0	0	546	403	
14	0	0	0	0	545	409	
15	0	0	0	0	544	408	
0	0	0	0	0	544	409	
1	0	0	0	0	544	414	
2	0	0	0	0	545	408	
3	0	0	0	0	545	408	
4	0	0	0	0	545	408	
5	0	0	0	0	545	403	
6	0	0	0	0	545	408	
7	0	0	0	0	544	408	
8	0	0	0	0	542	408	
9	0	0	0	0	540	413	
10	0	0	0	0	540	408	
11	0	0	0	0	540	408	
12	0	0	0	0	540	407	
13	0	0	0	0	539	403	
14	0	0	0	0	538	408	
15	0	0	0	0	538	408	
0	0	0	0	0	539	408	
1	0	0	0	0	539	412	
2	0	0	0	0	539	407	
3	0	0	0	0	539	407	
4	0	0	0	0	539	407	
5	0	0	0	0	540	402	
6	0	0	0	0	540	407	
7	0	0	0	0	540	407	
8	0	0	0	0	540	408	
9	0	0	0	0	540	411	
10	0	0	0	0	540	408	
11	0	0	0	0	539	407	
12	0	0	0	0	539	407	
13	0	0	0	0	538	402	
14	0	0	0	0	539	407	
15	0	0	0	0	540	407	
0	0	0	0	0	542	408	
1	0	0	0	0	544	412	
2	0	0	0	0	546	408	
3	0	0	0	0	548	408	
4	0	0	0	0	549	408	
5	0	0	0	0	548	402	
6	0	0	0	0	548	408	
7	0	0	0	0	548	407	
8	0	0	0	0	549	408	
9	0	0	0	0	550	412	
10	0	0	0	0	553	408	
11	0	0	0	0	555	408	
12	0	0	0	0	556	408	
13	0	0	0	0	555	403	
14	0	0	0	0	555	408	
