# OpenSignals Text File Format. Version 1
# {"98:D3:91:FD:69:48": {"position": 0, "device": "bitalino_rev", "device name": "98:D3:91:FD:69:48", "device connection": "BTH98:D3:91:FD:69:48", "sampling rate": 1000, "resolution": [4, 1, 1, 1, 1, 10, 10], "firmware version": 1281, "comments": "", "keywords": "", "mode": 0, "sync interval": 2, "date": "2021-9-9", "time": "10:49:48.84", "channels": [2, 5], "sensor": ["RAW", "RAW"], "label": ["A2", "A5"], "column": ["nSeq", "I1", "I2", "O1", "O2", "A2", "A5"], "special": [{}, {}], "digital IO": [0, 0, 1, 1], "convertedValues": 0}}
# EndOfHeader
0	0	0	0	0	492	409	
1	0	0	0	0	492	409	
2	0	0	0	0	492	409	
3	0	0	0	0	491	409	
4	0	0	0	0	488	409	
5	0	0	0	0	486	410	
6	0	0	0	0	481	410	
7	0	0	0	0	479	410	
8	0	0	0	0	477	410	
9	0	0	0	0	476	409	
10	0	0	0	0	478	410	
11	0	0	0	0	480	409	
12	0	0	0	0	484	409	
13	0	0	0	0	487	411	
14	0	0	0	0	491	409	
15	0	0	0	0	497	409	
0	0	0	0	0	503	409	
1	0	0	0	0	506	408	
2	0	0	0	0	509	409	
3	0	0	0	0	511	408	
4	0	0	0	0	512	409	
5	0	0	0	0	512	409	
6	0	0	0	0	511	409	
7	0	0	0	0	510	409	
8	0	0	0	0	507	409	
9	0	0	0	0	504	409	
10	0	0	0	0	499	409	
11	0	0	0	0	497	409	
12	0	0	0	0	496	409	
13	0	0	0	0	496	410	
14	0	0	0	0	497	409	
15	0	0	0	0	498	409	
0	0	0	0	0	500	409	
1	0	0	0	0	504	409	
2	0	0	0	0	507	409	
3	0	0	0	0	511	409	
4	0	0	0	0	514	408	
5	0	0	0	0	516	410	
6	0	0	0	0	517	409	
7	0	0	0	0	517	410	
8	0	0	0	0	516	409	
9	0	0	0	0	513	409	
10	0	0	0	0	511	408	
11	0	0	0	0	508	409	
12	0	0	0	0	503	408	
13	0	0	0	0	498	410	
14	0	0	0	0	492	409	
15	0	0	0	0	489	409	
0	0	0	0	0	487	409	
1	0	0	0	0	487	409	
2	0	0	0	0	488	409	
3	0	0	0	0	490	408	
4	0	0	0	0	492	409	
5	0	0	0	0	495	411	
6	0	0	0	0	499	409	
7	0	0	0	0	505	409	
8	0	0	0	0	510	409	
9	0	0	0	0	514	409	
10	0	0	0	0	516	409	
11	0	0	0	0	517	409	
12	0	0	0	0	518	408	
13	0	0	0	0	517	409	
14	0	0	0	0	515	409	
15	0	0	0	0	514	409	
0	0	0	0	0	512	408	
1	0	0	0	0	508	408	
2	0	0	0	0	504	409	
3	0	0	0	0	502	409	
4	0	0	0	0	500	408	
5	0	0	0	0	499	408	
6	0	0	0	0	500	408	
7	0	0	0	0	501	408	
8	0	0	0	0	503	408	
9	0	0	0	0	504	408	
10	0	0	0	0	508	408	
11	0	0	0	0	512	408	
12	0	0	0	0	515	408	
13	0	0	0	0	518	409	
14	0	0	0	0	519	408	
15	0	0	0	0	519	408	
0	0	0	0	0	518	409	
1	0	0	0	0	516	408	
2	0	0	0	0	514	409	
3	0	0	0	0	512	408	
4	0	0	0	0	508	408	
5	0	0	0	0	504	410	
6	0	0	0	0	500	408	
7	0	0	0	0	497	409	
8	0	0	0	0	496	409	
9	0	0	0	0	495	409	
10	0	0	0	0	496	409	
11	0	0	0	0	497	409	
12	0	0	0	0	499	409	
13	0	0	0	0	500	409	
14	0	0	0	0	504	409	
15	0	0	0	0	509	409	
0	0	0	0	0	513	409	
1	0	0	0	0	517	408	
2	0	0	0	0	520	409	
3	0	0	0	0	520	408	
4	0	0	0	0	521	409	
5	0	0	0	0	519	410	
6	0	0	0	0	519	409	
7	0	0	0	0	517	409	
8	0	0	0	0	513	408	
9	0	0	0	0	508	408	
10	0	0	0	0	503	409	
11	0	0	0	0	500	408	
12	0	0	0	0	498	408	
13	0	0	0	0	498	409	
14	0	0	0	0	499	408	
15	0	0	0	0	501	408	
0	0	0	0	0	504	408	
1	0	0	0	0	506	408	
2	0	0	0	0	509	408	
3	0	0	0	0	514	408	
4	0	0	0	0	518	408	
5	0	0	0	0	521	409	
6	0	0	0	0	523	408	
7	0	0	0	0	524	408	
8	0	0	0	0	524	408	
9	0	0	0	0	522	408	
10	0	0	0	0	519	409	
11	0	0	0	0	517	408	
12	0	0	0	0	513	408	
13	0	0	0	0	508	409	
14	0	0	0	0	503	408	
15	0	0	0	0	499	408	
0	0	0	0	0	497	409	
1	0	0	0	0	496	408	
2	0	0	0	0	496	409	
3	0	0	0	0	497	409	
4	0	0	0	0	499	409	
5	0	0	0	0	502	411	
6	0	0	0	0	505	409	
7	0	0	0	0	510	409	
8	0	0	0	0	515	409	
9	0	0	0	0	519	408	
10	0	0	0	0	521	409	
11	0	0	0	0	522	409	
12	0	0	0	0	523	409	
13	0	0	0	0	522	409	
14	0	0	0	0	520	409	
15	0	0	0	0	518	409	
0	0	0	0	0	513	409	
1	0	0	0	0	508	409	
2	0	0	0	0	503	408	
3	0	0	0	0	500	410	
4	0	0	0	0	497	409	
5	0	0	0	0	496	411	
6	0	0	0	0	498	409	
7	0	0	0	0	499	409	
8	0	0	0	0	502	409	
9	0	0	0	0	505	409	
10	0	0	0	0	510	409	
11	0	0	0	0	516	410	
12	0	0	0	0	521	409	
13	0	0	0	0	524	410	
14	0	0	0	0	527	409	
15	0	0	0	0	527	408	
0	0	0	0	0	527	409	
1	0	0	0	0	526	409	
2	0	0	0	0	524	409	
3	0	0	0	0	521	409	
4	0	0	0	0	516	409	
5	0	0	0	0	511	410	
6	0	0	0	0	507	409	
7	0	0	0	0	504	408	
8	0	0	0	0	503	409	
9	0	0	0	0	502	409	
10	0	0	0	0	502	409	
11	0	0	0	0	503	409	
12	0	0	0	0	504	408	
13	0	0	0	0	505	409	
14	0	0	0	0	509	408	
15	0	0	0	0	512	408	
0	0	0	0	0	516	409	
1	0	0	0	0	518	408	
2	0	0	0	0	519	409	
3	0	0	0	0	518	409	
4	0	0	0	0	517	408	
5	0	0	0	0	515	409	
6	0	0	0	0	513	409	
7	0	0	0	0	511	408	
8	0	0	0	0	507	408	
9	0	0	0	0	502	408	
10	0	0	0	0	498	409	
11	0	0	0	0	495	409	
12	0	0	0	0	494	409	
13	0	0	0	0	493	409	
14	0	0	0	0	494	409	
15	0	0	0	0	496	409	
0	0	0	0	0	500	409	
1	0	0	0	0	504	408	
2	0	0	0	0	509	409	
3	0	0	0	0	515	409	
4	0	0	0	0	520	409	
5	0	0	0	0	524	410	
6	0	0	0	0	526	409	
7	0	0	0	0	527	409	
8	0	0	0	0	527	409	
9	0	0	0	0	524	409	
10	0	0	0	0	522	409	
11	0	0	0	0	519	409	
12	0	0	0	0	514	408	
13	0	0	0	0	509	409	
14	0	0	0	0	504	409	
15	0	0	0	0	499	408	
0	0	0	0	0	496	409	
1	0	0	0	0	493	408	
2	0	0	0	0	492	409	
3	0	0	0	0	492	408	
4	0	0	0	0	493	408	
5	0	0	0	0	496	409	
6	0	0	0	0	499	408	
7	0	0	0	0	504	408	
8	0	0	0	0	508	409	
9	0	0	0	0	511	408	
10	0	0	0	0	513	409	
11	0	0	0	0	512	408	
12	0	0	0	0	511	409	
13	0	0	0	0	508	410	
14	0	0	0	0	505	408	
15	0	0	0	0	500	408	
0	0	0	0	0	495	408	
1	0	0	0	0	488	408	
2	0	0	0	0	483	409	
3	0	0	0	0	478	408	
4	0	0	0	0	474	408	
5	0	0	0	0	471	409	
6	0	0	0	0	470	408	
7	0	0	0	0	470	408	
8	0	0	0	0	470	408	
9	0	0	0	0	471	408	
10	0	0	0	0	472	408	
11	0	0	0	0	476	408	
12	0	0	0	0	479	408	
13	0	0	0	0	482	408	
14	0	0	0	0	483	409	
15	0	0	0	0	483	408	
0	0	0	0	0	483	408	
1	0	0	0	0	482	408	
2	0	0	0	0	479	408	
3	0	0	0	0	476	408	
4	0	0	0	0	472	408	
5	0	0	0	0	467	409	
6	0	0	0	0	462	408	
7	0	0	0	0	458	408	
8	0	0	0	0	456	407	
9	0	0	0	0	455	408	
10	0	0	0	0	454	408	
11	0	0	0	0	455	408	
12	0	0	0	0	457	408	
13	0	0	0	0	459	409	
14	0	0	0	0	462	408	
15	0	0	0	0	467	408	
0	0	0	0	0	470	408	
1	0	0	0	0	473	409	
2	0	0	0	0	474	409	
3	0	0	0	0	474	409	
4	0	0	0	0	472	409	
5	0	0	0	0	471	410	
6	0	0	0	0	468	409	
7	0	0	0	0	464	410	
8	0	0	0	0	460	410	
9	0	0	0	0	454	409	
10	0	0	0	0	450	409	
11	0	0	0	0	447	410	
12	0	0	0	0	445	410	
13	0	0	0	0	446	411	
14	0	0	0	0	447	410	
15	0	0	0	0	449	410	
0	0	0	0	0	450	410	
1	0	0	0	0	453	409	
2	0	0	0	0	457	410	
3	0	0	0	0	463	410	
4	0	0	0	0	470	410	
5	0	0	0	0	475	411	
6	0	0	0	0	480	411	
7	0	0	0	0	481	410	
8	0	0	0	0	482	411	
9	0	0	0	0	481	410	
10	0	0	0	0	480	410	
11	0	0	0	0	477	410	
12	0	0	0	0	473	410	
13	0	0	0	0	469	411	
14	0	0	0	0	465	410	
15	0	0	0	0	461	410	
0	0	0	0	0	460	410	
1	0	0	0	0	459	409	
2	0	0	0	0	459	411	
3	0	0	0	0	460	410	
4	0	0	0	0	463	410	
5	0	0	0	0	466	410	
6	0	0	0	0	470	410	
7	0	0	0	0	474	410	
8	0	0	0	0	478	410	
9	0	0	0	0	480	409	
10	0	0	0	0	482	410	
11	0	0	0	0	483	410	
12	0	0	0	0	482	409	
13	0	0	0	0	480	410	
14	0	0	0	0	479	409	
15	0	0	0	0	477	410	
0	0	0	0	0	473	409	
1	0	0	0	0	468	409	
2	0	0	0	0	463	410	
3	0	0	0	0	460	408	
4	0	0	0	0	458	409	
5	0	0	0	0	456	410	
6	0	0	0	0	457	409	
7	0	0	0	0	460	409	
8	0	0	0	0	462	408	
9	0	0	0	0	466	409	
10	0	0	0	0	472	408	
11	0	0	0	0	478	408	
12	0	0	0	0	485	408	
13	0	0	0	0	489	409	
14	0	0	0	0	493	408	
15	0	0	0	0	496	408	
0	0	0	0	0	497	408	
1	0	0	0	0	497	408	
2	0	0	0	0	496	409	
3	0	0	0	0	494	409	
4	0	0	0	0	490	409	
5	0	0	0	0	486	409	
6	0	0	0	0	481	409	
7	0	0	0	0	478	409	
8	0	0	0	0	476	409	
9	0	0	0	0	474	409	
10	0	0	0	0	475	409	
11	0	0	0	0	476	409	
12	0	0	0	0	478	409	
13	0	0	0	0	481	409	
14	0	0	0	0	484	409	
15	0	0	0	0	490	409	
0	0	0	0	0	496	409	
1	0	0	0	0	499	409	
2	0	0	0	0	502	408	
3	0	0	0	0	503	409	
4	0	0	0	0	503	409	
5	0	0	0	0	501	410	
6	0	0	0	0	499	409	
7	0	0	0	0	495	409	
8	0	0	0	0	491	409	
9	0	0	0	0	487	409	
10	0	0	0	0	483	409	
11	0	0	0	0	480	409	
12	0	0	0	0	479	409	
13	0	0	0	0	478	410	
14	0	0	0	0	480	410	
15	0	0	0	0	482	409	
0	0	0	0	0	485	409	
1	0	0	0	0	487	409	
2	0	0	0	0	491	409	
3	0	0	0	0	496	409	
4	0	0	0	0	502	408	
5	0	0	0	0	506	410	
6	0	0	0	0	510	409	
7	0	0	0	0	512	409	
8	0	0	0	0	512	409	
9	0	0	0	0	512	409	
10	0	0	0	0	511	409	
11	0	0	0	0	509	409	
12	0	0	0	0	506	409	
13	0	0	0	0	502	410	
14	0	0	0	0	497	409	
15	0	0	0	0	495	409	
0	0	0	0	0	492	409	
1	0	0	0	0	491	408	
2	0	0	0	0	492	409	
3	0	0	0	0	493	408	
4	0	0	0	0	495	409	
5	0	0	0	0	499	409	
6	0	0	0	0	503	408	
7	0	0	0	0	509	409	
8	0	0	0	0	513	408	
9	0	0	0	0	518	408	
10	0	0	0	0	520	408	
11	0	0	0	0	521	408	
12	0	0	0	0	522	408	
13	0	0	0	0	520	409	
14	0	0	0	0	519	408	
15	0	0	0	0	516	408	
0	0	0	0	0	512	408	
1	0	0	0	0	508	408	
2	0	0	0	0	504	408	
3	0	0	0	0	500	408	
4	0	0	0	0	499	408	
5	0	0	0	0	498	408	
6	0	0	0	0	499	408	
7	0	0	0	0	500	408	
8	0	0	0	0	503	408	
9	0	0	0	0	506	407	
10	0	0	0	0	511	408	
11	0	0	0	0	517	408	
12	0	0	0	0	523	407	
13	0	0	0	0	528	409	
14	0	0	0	0	532	408	
15	0	0	0	0	534	408	
0	0	0	0	0	536	408	
1	0	0	0	0	536	407	
2	0	0	0	0	535	408	
3	0	0	0	0	533	408	
4	0	0	0	0	529	408	
5	0	0	0	0	525	409	
6	0	0	0	0	520	408	
7	0	0	0	0	518	408	
8	0	0	0	0	516	408	
9	0	0	0	0	515	407	
10	0	0	0	0	515	408	
11	0	0	0	0	516	408	
12	0	0	0	0	519	408	
13	0	0	0	0	522	409	
14	0	0	0	0	526	409	
15	0	0	0	0	531	408	
0	0	0	0	0	536	409	
1	0	0	0	0	539	408	
2	0	0	0	0	542	409	
3	0	0	0	0	543	408	
4	0	0	0	0	543	409	
5	0	0	0	0	542	409	
6	0	0	0	0	540	409	
7	0	0	0	0	537	409	
8	0	0	0	0	533	408	
9	0	0	0	0	528	408	
10	0	0	0	0	523	409	
11	0	0	0	0	519	409	
12	0	0	0	0	518	408	
13	0	0	0	0	516	410	
14	0	0	0	0	517	409	
15	0	0	0	0	518	409	
0	0	0	0	0	520	409	
1	0	0	0	0	523	408	
2	0	0	0	0	527	408	
3	0	0	0	0	532	409	
4	0	0	0	0	537	409	
5	0	0	0	0	541	410	
6	0	0	0	0	543	409	
7	0	0	0	0	544	409	
8	0	0	0	0	545	409	
9	0	0	0	0	544	409	
10	0	0	0	0	542	409	
11	0	0	0	0	540	409	
12	0	0	0	0	536	409	
13	0	0	0	0	531	410	
14	0	0	0	0	527	409	
15	0	0	0	0	524	409	
0	0	0	0	0	522	409	
1	0	0	0	0	522	408	
2	0	0	0	0	523	410	
3	0	0	0	0	524	410	
4	0	0	0	0	525	409	
5	0	0	0	0	527	410	
6	0	0	0	0	530	409	
7	0	0	0	0	535	410	
8	0	0	0	0	539	409	
9	0	0	0	0	541	409	
10	0	0	0	0	543	410	
11	0	0	0	0	543	410	
12	0	0	0	0	542	410	
13	0	0	0	0	540	411	
14	0	0	0	0	538	410	
15	0	0	0	0	536	410	
0	0	0	0	0	532	409	
1	0	0	0	0	527	410	
2	0	0	0	0	522	410	
3	0	0	0	0	519	409	
4	0	0	0	0	516	410	
5	0	0	0	0	515	410	
6	0	0	0	0	515	409	
7	0	0	0	0	517	409	
8	0	0	0	0	520	409	
9	0	0	0	0	523	409	
10	0	0	0	0	527	409	
11	0	0	0	0	532	410	
12	0	0	0	0	536	409	
13	0	0	0	0	540	411	
14	0	0	0	0	542	410	
15	0	0	0	0	543	410	
0	0	0	0	0	543	410	
1	0	0	0	0	542	409	
2	0	0	0	0	540	409	
3	0	0	0	0	537	409	
4	0	0	0	0	532	409	
5	0	0	0	0	526	410	
6	0	0	0	0	520	409	
7	0	0	0	0	517	410	
8	0	0	0	0	515	410	
9	0	0	0	0	515	409	
10	0	0	0	0	517	409	
11	0	0	0	0	519	409	
12	0	0	0	0	521	409	
13	0	0	0	0	524	410	
14	0	0	0	0	528	409	
15	0	0	0	0	533	409	
0	0	0	0	0	537	410	
1	0	0	0	0	540	409	
2	0	0	0	0	542	409	
3	0	0	0	0	543	409	
4	0	0	0	0	543	409	
5	0	0	0	0	543	410	
6	0	0	0	0	541	409	
7	0	0	0	0	540	409	
8	0	0	0	0	537	409	
9	0	0	0	0	533	408	
10	0	0	0	0	528	409	
11	0	0	0	0	526	409	
12	0	0	0	0	524	408	
13	0	0	0	0	524	409	
14	0	0	0	0	526	409	
15	0	0	0	0	527	408	
0	0	0	0	0	530	408	
1	0	0	0	0	532	408	
2	0	0	0	0	536	408	
3	0	0	0	0	541	408	
4	0	0	0	0	545	408	
5	0	0	0	0	549	409	
6	0	0	0	0	551	408	
7	0	0	0	0	552	408	
8	0	0	0	0	551	408	
9	0	0	0	0	550	407	
10	0	0	0	0	549	408	
11	0	0	0	0	546	408	
12	0	0	0	0	541	408	
13	0	0	0	0	536	408	
14	0	0	0	0	530	408	
15	0	0	0	0	526	408	
0	0	0	0	0	523	408	
1	0	0	0	0	521	408	
2	0	0	0	0	519	408	
3	0	0	0	0	519	407	
4	0	0	0	0	519	407	
5	0	0	0	0	520	408	
6	0	0	0	0	523	407	
7	0	0	0	0	527	407	
8	0	0	0	0	531	407	
9	0	0	0	0	534	407	
10	0	0	0	0	537	408	
11	0	0	0	0	536	407	
12	0	0	0	0	536	408	
13	0	0	0	0	533	408	
14	0	0	0	0	529	407	
15	0	0	0	0	525	407	
0	0	0	0	0	521	407	
1	0	0	0	0	516	408	
2	0	0	0	0	511	408	
3	0	0	0	0	508	408	
4	0	0	0	0	505	408	
5	0	0	0	0	504	409	
6	0	0	0	0	503	408	
7	0	0	0	0	504	408	
8	0	0	0	0	505	408	
9	0	0	0	0	508	408	
10	0	0	0	0	512	408	
11	0	0	0	0	517	408	
12	0	0	0	0	523	408	
13	0	0	0	0	527	409	
14	0	0	0	0	530	408	
15	0	0	0	0	532	408	
0	0	0	0	0	531	408	
1	0	0	0	0	530	408	
2	0	0	0	0	528	409	
3	0	0	0	0	525	408	
4	0	0	0	0	521	408	
5	0	0	0	0	515	410	
6	0	0	0	0	511	408	
7	0	0	0	0	508	409	
8	0	0	0	0	507	408	
9	0	0	0	0	507	408	
10	0	0	0	0	508	409	
11	0	0	0	0	510	409	
12	0	0	0	0	512	409	
13	0	0	0	0	516	409	
14	0	0	0	0	521	409	
15	0	0	0	0	527	408	
0	0	0	0	0	531	408	
1	0	0	0	0	532	408	
2	0	0	0	0	534	409	
3	0	0	0	0	533	409	
4	0	0	0	0	531	409	
5	0	0	0	0	529	409	
6	0	0	0	0	527	409	
7	0	0	0	0	524	409	
8	0	0	0	0	519	409	
9	0	0	0	0	514	409	
10	0	0	0	0	508	410	
11	0	0	0	0	504	410	
12	0	0	0	0	502	410	
13	0	0	0	0	499	411	
14	0	0	0	0	499	410	
15	0	0	0	0	499	410	
0	0	0	0	0	501	411	
1	0	0	0	0	505	410	
2	0	0	0	0	508	411	
3	0	0	0	0	513	411	
4	0	0	0	0	518	411	
5	0	0	0	0	520	411	
6	0	0	0	0	523	411	
7	0	0	0	0	523	411	
8	0	0	0	0	522	411	
9	0	0	0	0	520	410	
10	0	0	0	0	518	412	
11	0	0	0	0	516	410	
12	0	0	0	0	512	411	
13	0	0	0	0	508	412	
14	0	0	0	0	504	411	
15	0	0	0	0	500	411	
0	0	0	0	0	498	410	
1	0	0	0	0	497	410	
2	0	0	0	0	497	410	
3	0	0	0	0	498	410	
4	0	0	0	0	500	410	
5	0	0	0	0	502	411	
6	0	0	0	0	505	410	
7	0	0	0	0	509	410	
8	0	0	0	0	513	409	
9	0	0	0	0	518	409	
10	0	0	0	0	521	409	
11	0	0	0	0	522	409	
12	0	0	0	0	522	409	
13	0	0	0	0	521	410	
14	0	0	0	0	519	409	
15	0	0	0	0	517	409	
0	0	0	0	0	512	408	
1	0	0	0	0	508	409	
2	0	0	0	0	503	408	
3	0	0	0	0	499	409	
4	0	0	0	0	499	408	
5	0	0	0	0	498	408	
6	0	0	0	0	501	409	
7	0	0	0	0	504	408	
8	0	0	0	0	507	407	
9	0	0	0	0	511	408	
10	0	0	0	0	515	408	
11	0	0	0	0	522	409	
12	0	0	0	0	529	409	
13	0	0	0	0	534	409	
14	0	0	0	0	536	408	
15	0	0	0	0	537	408	
0	0	0	0	0	536	409	
1	0	0	0	0	536	408	
2	0	0	0	0	533	409	
3	0	0	0	0	531	408	
4	0	0	0	0	527	409	
5	0	0	0	0	522	409	
6	0	0	0	0	518	409	
7	0	0	0	0	515	408	
8	0	0	0	0	514	408	
9	0	0	0	0	514	408	
10	0	0	0	0	515	409	
11	0	0	0	0	516	409	
12	0	0	0	0	518	409	
13	0	0	0	0	521	409	
14	0	0	0	0	525	408	
15	0	0	0	0	530	408	
0	0	0	0	0	534	408	
1	0	0	0	0	536	408	
2	0	0	0	0	537	408	
3	0	0	0	0	536	409	
4	0	0	0	0	535	409	
5	0	0	0	0	533	410	
6	0	0	0	0	530	409	
7	0	0	0	0	527	409	
8	0	0	0	0	523	409	
9	0	0	0	0	519	409	
10	0	0	0	0	515	409	
11	0	0	0	0	513	409	
12	0	0	0	0	513	409	
13	0	0	0	0	515	410	
14	0	0	0	0	520	409	
15	0	0	0	0	525	409	
0	0	0	0	0	532	408	
1	0	0	0	0	540	408	
2	0	0	0	0	551	409	
3	0	0	0	0	563	409	
4	0	0	0	0	574	408	
5	0	0	0	0	585	409	
6	0	0	0	0	595	408	
7	0	0	0	0	604	408	
8	0	0	0	0	611	408	
9	0	0	0	0	618	408	
10	0	0	0	0	624	409	
11	0	0	0	0	630	408	
12	0	0	0	0	633	409	
13	0	0	0	0	637	410	
14	0	0	0	0	640	409	
15	0	0	0	0	644	410	
0	0	0	0	0	647	410	
1	0	0	0	0	651	409	
2	0	0	0	0	656	408	
3	0	0	0	0	661	409	
4	0	0	0	0	666	408	
5	0	0	0	0	670	409	
6	0	0	0	0	675	408	
7	0	0	0	0	681	408	
8	0	0	0	0	685	409	
9	0	0	0	0	687	409	
10	0	0	0	0	687	409	
11	0	0	0	0	684	409	
12	0	0	0	0	679	408	
13	0	0	0	0	671	409	
14	0	0	0	0	664	408	
15	0	0	0	0	653	408	
0	0	0	0	0	640	408	
1	0	0	0	0	626	408	
2	0	0	0	0	612	407	
3	0	0	0	0	598	408	
4	0	0	0	0	585	407	
5	0	0	0	0	573	407	
6	0	0	0	0	563	407	
7	0	0	0	0	555	407	
8	0	0	0	0	547	407	
9	0	0	0	0	540	406	
10	0	0	0	0	536	406	
11	0	0	0	0	533	407	
12	0	0	0	0	530	407	
13	0	0	0	0	526	408	
14	0	0	0	0	522	407	
15	0	0	0	0	517	407	
0	0	0	0	0	511	408	
1	0	0	0	0	504	407	
2	0	0	0	0	497	408	
3	0	0	0	0	489	408	
4	0	0	0	0	480	408	
5	0	0	0	0	472	409	
6	0	0	0	0	463	408	
7	0	0	0	0	458	408	
8	0	0	0	0	453	409	
9	0	0	0	0	450	409	
10	0	0	0	0	449	409	
11	0	0	0	0	449	409	
12	0	0	0	0	450	410	
13	0	0	0	0	451	409	
14	0	0	0	0	454	409	
15	0	0	0	0	458	410	
0	0	0	0	0	462	410	
1	0	0	0	0	466	409	
2	0	0	0	0	468	410	
3	0	0	0	0	469	410	
4	0	0	0	0	468	410	
5	0	0	0	0	467	411	
6	0	0	0	0	465	410	
7	0	0	0	0	463	410	
8	0	0	0	0	459	410	
9	0	0	0	0	453	409	
10	0	0	0	0	448	410	
11	0	0	0	0	444	410	
12	0	0	0	0	441	410	
13	0	0	0	0	440	410	
14	0	0	0	0	440	410	
15	0	0	0	0	442	409	
0	0	0	0	0	443	410	
1	0	0	0	0	445	409	
2	0	0	0	0	448	409	
3	0	0	0	0	452	410	
4	0	0	0	0	456	409	
5	0	0	0	0	460	411	
6	0	0	0	0	463	409	
7	0	0	0	0	465	409	
8	0	0	0	0	466	411	
9	0	0	0	0	465	409	
10	0	0	0	0	464	410	
11	0	0	0	0	462	410	
12	0	0	0	0	458	410	
13	0	0	0	0	454	411	
14	0	0	0	0	450	410	
15	0	0	0	0	447	410	
0	0	0	0	0	446	410	
1	0	0	0	0	446	409	
2	0	0	0	0	447	409	
3	0	0	0	0	449	409	
4	0	0	0	0	453	410	
5	0	0	0	0	457	411	
6	0	0	0	0	462	410	
7	0	0	0	0	467	411	
8	0	0	0	0	472	410	
9	0	0	0	0	476	410	
10	0	0	0	0	478	410	
11	0	0	0	0	480	411	
12	0	0	0	0	480	410	
13	0	0	0	0	479	411	
14	0	0	0	0	477	409	
15	0	0	0	0	476	410	
0	0	0	0	0	472	409	
1	0	0	0	0	468	409	
2	0	0	0	0	465	409	
3	0	0	0	0	463	410	
4	0	0	0	0	463	410	
5	0	0	0	0	462	411	
6	0	0	0	0	464	410	
7	0	0	0	0	466	410	
8	0	0	0	0	469	409	
9	0	0	0	0	472	409	
10	0	0	0	0	477	409	
11	0	0	0	0	483	409	
12	0	0	0	0	489	409	
13	0	0	0	0	492	410	
14	0	0	0	0	495	409	
15	0	0	0	0	496	408	
0	0	0	0	0	496	409	
1	0	0	0	0	497	408	
2	0	0	0	0	496	409	
3	0	0	0	0	495	409	
4	0	0	0	0	492	409	
5	0	0	0	0	488	409	
6	0	0	0	0	484	408	
7	0	0	0	0	482	409	
8	0	0	0	0	481	409	
9	0	0	0	0	482	408	
10	0	0	0	0	484	408	
11	0	0	0	0	487	408	
12	0	0	0	0	490	408	
13	0	0	0	0	494	409	
14	0	0	0	0	498	408	
15	0	0	0	0	504	408	
0	0	0	0	0	509	408	
1	0	0	0	0	513	408	
2	0	0	0	0	515	408	
3	0	0	0	0	517	408	
4	0	0	0	0	517	408	
5	0	0	0	0	516	408	
6	0	0	0	0	514	408	
7	0	0	0	0	513	408	
8	0	0	0	0	510	407	
9	0	0	0	0	505	407	
10	0	0	0	0	500	407	
11	0	0	0	0	497	407	
12	0	0	0	0	495	407	
13	0	0	0	0	494	407	
14	0	0	0	0	495	407	
15	0	0	0	0	496	406	
0	0	0	0	0	499	406	
1	0	0	0	0	503	406	
2	0	0	0	0	507	407	
3	0	0	0	0	512	407	
4	0	0	0	0	517	407	
5	0	0	0	0	520	408	
6	0	0	0	0	522	408	
7	0	0	0	0	523	407	
8	0	0	0	0	523	408	
9	0	0	0	0	520	408	
10	0	0	0	0	518	408	
11	0	0	0	0	515	408	
12	0	0	0	0	511	408	
13	0	0	0	0	506	409	
14	0	0	0	0	502	408	
15	0	0	0	0	498	409	
0	0	0	0	0	496	408	
1	0	0	0	0	496	408	
2	0	0	0	0	496	408	
3	0	0	0	0	497	408	
4	0	0	0	0	499	409	
5	0	0	0	0	501	409	
6	0	0	0	0	505	409	
7	0	0	0	0	510	409	
8	0	0	0	0	514	409	
9	0	0	0	0	517	409	
10	0	0	0	0	519	409	
11	0	0	0	0	520	409	
12	0	0	0	0	521	409	
13	0	0	0	0	520	410	
14	0	0	0	0	520	409	
15	0	0	0	0	519	410	
0	0	0	0	0	516	409	
1	0	0	0	0	512	409	
2	0	0	0	0	508	409	
3	0	0	0	0	506	409	
4	0	0	0	0	504	409	
5	0	0	0	0	504	410	
6	0	0	0	0	504	409	
7	0	0	0	0	505	409	
8	0	0	0	0	507	410	
9	0	0	0	0	509	409	
10	0	0	0	0	512	410	
11	0	0	0	0	517	410	
12	0	0	0	0	522	410	
13	0	0	0	0	526	411	
14	0	0	0	0	528	410	
15	0	0	0	0	530	409	
0	0	0	0	0	531	410	
1	0	0	0	0	529	410	
2	0	0	0	0	528	410	
3	0	0	0	0	526	410	
4	0	0	0	0	521	411	
5	0	0	0	0	516	411	
6	0	0	0	0	512	410	
7	0	0	0	0	508	410	
8	0	0	0	0	507	410	
9	0	0	0	0	505	410	
10	0	0	0	0	505	410	
11	0	0	0	0	505	409	
12	0	0	0	0	506	410	
13	0	0	0	0	508	411	
14	0	0	0	0	512	410	
15	0	0	0	0	516	410	
0	0	0	0	0	519	410	
1	0	0	0	0	521	410	
2	0	0	0	0	521	410	
3	0	0	0	0	521	411	
4	0	0	0	0	519	411	
5	0	0	0	0	516	411	
6	0	0	0	0	513	410	
7	0	0	0	0	510	410	
8	0	0	0	0	504	411	
9	0	0	0	0	498	410	
10	0	0	0	0	492	410	
11	0	0	0	0	488	410	
12	0	0	0	0	485	410	
13	0	0	0	0	484	410	
14	0	0	0	0	484	410	
15	0	0	0	0	485	409	
0	0	0	0	0	487	409	
1	0	0	0	0	491	409	
2	0	0	0	0	495	409	
3	0	0	0	0	501	410	
4	0	0	0	0	508	410	
5	0	0	0	0	513	410	
6	0	0	0	0	516	409	
7	0	0	0	0	518	409	
8	0	0	0	0	519	409	
9	0	0	0	0	518	409	
10	0	0	0	0	516	408	
11	0	0	0	0	514	409	
12	0	0	0	0	511	409	
13	0	0	0	0	507	410	
14	0	0	0	0	503	408	
15	0	0	0	0	500	409	
0	0	0	0	0	499	408	
1	0	0	0	0	498	408	
2	0	0	0	0	499	408	
3	0	0	0	0	501	408	
4	0	0	0	0	503	408	
5	0	0	0	0	506	409	
6	0	0	0	0	510	408	
7	0	0	0	0	515	408	
8	0	0	0	0	520	407	
9	0	0	0	0	523	407	
10	0	0	0	0	526	407	
11	0	0	0	0	527	407	
12	0	0	0	0	526	407	
13	0	0	0	0	525	408	
14	0	0	0	0	523	408	
15	0	0	0	0	520	407	
0	0	0	0	0	515	408	
1	0	0	0	0	510	407	
2	0	0	0	0	505	408	
3	0	0	0	0	502	408	
4	0	0	0	0	499	408	
5	0	0	0	0	499	409	
6	0	0	0	0	500	408	
7	0	0	0	0	501	408	
8	0	0	0	0	503	408	
9	0	0	0	0	505	407	
10	0	0	0	0	508	408	
11	0	0	0	0	513	408	
12	0	0	0	0	517	408	
13	0	0	0	0	521	409	
14	0	0	0	0	523	408	
15	0	0	0	0	523	408	
0	0	0	0	0	522	408	
1	0	0	0	0	519	407	
2	0	0	0	0	517	408	
3	0	0	0	0	515	407	
4	0	0	0	0	510	407	
5	0	0	0	0	505	408	
6	0	0	0	0	500	408	
7	0	0	0	0	497	407	
8	0	0	0	0	495	407	
9	0	0	0	0	495	407	
10	0	0	0	0	496	408	
11	0	0	0	0	498	408	
12	0	0	0	0	502	408	
13	0	0	0	0	506	408	
14	0	0	0	0	511	407	
15	0	0	0	0	517	407	
0	0	0	0	0	523	407	
1	0	0	0	0	527	407	
2	0	0	0	0	529	408	
3	0	0	0	0	531	407	
4	0	0	0	0	531	408	
5	0	0	0	0	531	409	
6	0	0	0	0	530	408	
7	0	0	0	0	527	408	
8	0	0	0	0	523	408	
9	0	0	0	0	519	408	
10	0	0	0	0	514	409	
11	0	0	0	0	510	408	
12	0	0	0	0	508	409	
13	0	0	0	0	506	409	
14	0	0	0	0	507	408	
15	0	0	0	0	507	409	
0	0	0	0	0	510	410	
1	0	0	0	0	512	409	
2	0	0	0	0	516	409	
3	0	0	0	0	522	410	
4	0	0	0	0	527	410	
5	0	0	0	0	531	410	
6	0	0	0	0	533	410	
7	0	0	0	0	534	410	
8	0	0	0	0	534	410	
9	0	0	0	0	531	410	
10	0	0	0	0	528	410	
11	0	0	0	0	524	410	
12	0	0	0	0	519	410	
13	0	0	0	0	514	410	
14	0	0	0	0	508	410	
15	0	0	0	0	504	409	
0	0	0	0	0	501	410	
1	0	0	0	0	500	409	
2	0	0	0	0	499	410	
3	0	0	0	0	500	410	
4	0	0	0	0	502	410	
5	0	0	0	0	504	411	
6	0	0	0	0	508	410	
7	0	0	0	0	512	411	
8	0	0	0	0	516	410	
9	0	0	0	0	519	410	
10	0	0	0	0	521	410	
11	0	0	0	0	523	410	
12	0	0	0	0	522	410	
13	0	0	0	0	521	411	
14	0	0	0	0	519	410	
15	0	0	0	0	517	409	
0	0	0	0	0	513	410	
1	0	0	0	0	508	410	
2	0	0	0	0	504	409	
3	0	0	0	0	502	410	
4	0	0	0	0	499	410	
5	0	0	0	0	499	411	
6	0	0	0	0	500	410	
7	0	0	0	0	502	410	
8	0	0	0	0	504	410	
9	0	0	0	0	507	409	
10	0	0	0	0	510	409	
11	0	0	0	0	514	409	
12	0	0	0	0	517	410	
13	0	0	0	0	519	411	
14	0	0	0	0	522	410	
15	0	0	0	0	522	410	
0	0	0	0	0	522	410	
1	0	0	0	0	520	409	
2	0	0	0	0	518	409	
3	0	0	0	0	517	410	
4	0	0	0	0	514	409	
5	0	0	0	0	510	411	
6	0	0	0	0	507	409	
7	0	0	0	0	504	410	
8	0	0	0	0	503	410	
9	0	0	0	0	503	409	
10	0	0	0	0	503	409	
11	0	0	0	0	504	409	
12	0	0	0	0	505	410	
13	0	0	0	0	507	411	
14	0	0	0	0	510	409	
15	0	0	0	0	514	409	
0	0	0	0	0	518	409	
1	0	0	0	0	521	409	
2	0	0	0	0	524	409	
3	0	0	0	0	524	410	
4	0	0	0	0	525	410	
5	0	0	0	0	525	410	
6	0	0	0	0	523	409	
7	0	0	0	0	521	409	
8	0	0	0	0	517	408	
9	0	0	0	0	513	408	
10	0	0	0	0	508	408	
11	0	0	0	0	505	408	
12	0	0	0	0	503	409	
13	0	0	0	0	503	409	
14	0	0	0	0	503	408	
15	0	0	0	0	504	409	
0	0	0	0	0	507	408	
1	0	0	0	0	509	407	
2	0	0	0	0	513	408	
3	0	0	0	0	519	408	
4	0	0	0	0	524	408	
5	0	0	0	0	527	409	
6	0	0	0	0	530	408	
7	0	0	0	0	530	408	
8	0	0	0	0	529	408	
9	0	0	0	0	527	408	
10	0	0	0	0	525	408	
11	0	0	0	0	522	408	
12	0	0	0	0	517	408	
13	0	0	0	0	512	408	
14	0	0	0	0	507	408	
15	0	0	0	0	503	408	
0	0	0	0	0	501	408	
1	0	0	0	0	500	408	
2	0	0	0	0	501	408	
3	0	0	0	0	503	407	
4	0	0	0	0	505	408	
5	0	0	0	0	508	409	
6	0	0	0	0	512	408	
7	0	0	0	0	517	408	
8	0	0	0	0	522	409	
9	0	0	0	0	526	408	
10	0	0	0	0	528	408	
11	0	0	0	0	528	408	
12	0	0	0	0	528	408	
13	0	0	0	0	527	409	
14	0	0	0	0	526	408	
15	0	0	0	0	523	408	
0	0	0	0	0	519	408	
1	0	0	0	0	513	408	
2	0	0	0	0	507	408	
3	0	0	0	0	504	408	
4	0	0	0	0	503	408	
5	0	0	0	0	501	408	
6	0	0	0	0	502	408	
7	0	0	0	0	504	408	
8	0	0	0	0	507	408	
9	0	0	0	0	510	408	
10	0	0	0	0	514	408	
11	0	0	0	0	519	408	
12	0	0	0	0	523	408	
13	0	0	0	0	526	409	
14	0	0	0	0	528	408	
15	0	0	0	0	528	408	
0	0	0	0	0	528	409	
1	0	0	0	0	527	408	
2	0	0	0	0	524	408	
3	0	0	0	0	522	409	
4	0	0	0	0	517	408	
5	0	0	0	0	512	409	
6	0	0	0	0	507	409	
7	0	0	0	0	504	408	
8	0	0	0	0	501	409	
9	0	0	0	0	500	409	
10	0	0	0	0	501	409	
11	0	0	0	0	503	409	
12	0	0	0	0	504	409	
13	0	0	0	0	508	411	
14	0	0	0	0	512	409	
15	0	0	0	0	518	409	
0	0	0	0	0	523	409	
1	0	0	0	0	527	409	
2	0	0	0	0	529	409	
3	0	0	0	0	530	409	
4	0	0	0	0	529	409	
5	0	0	0	0	527	410	
6	0	0	0	0	525	409	
7	0	0	0	0	523	410	
8	0	0	0	0	518	410	
9	0	0	0	0	512	409	
10	0	0	0	0	508	409	
11	0	0	0	0	504	409	
12	0	0	0	0	503	409	
13	0	0	0	0	502	410	
14	0	0	0	0	502	409	
15	0	0	0	0	504	409	
0	0	0	0	0	505	409	
1	0	0	0	0	508	409	
2	0	0	0	0	513	409	
3	0	0	0	0	520	409	
4	0	0	0	0	526	409	
5	0	0	0	0	530	411	
6	0	0	0	0	532	409	
7	0	0	0	0	534	409	
8	0	0	0	0	534	409	
9	0	0	0	0	531	409	
10	0	0	0	0	528	409	
11	0	0	0	0	525	409	
12	0	0	0	0	520	410	
13	0	0	0	0	516	410	
14	0	0	0	0	511	409	
15	0	0	0	0	507	409	
0	0	0	0	0	503	409	
1	0	0	0	0	501	409	
2	0	0	0	0	501	409	
3	0	0	0	0	501	410	
4	0	0	0	0	502	409	
5	0	0	0	0	504	410	
6	0	0	0	0	508	409	
7	0	0	0	0	513	410	
8	0	0	0	0	516	409	
9	0	0	0	0	520	409	
10	0	0	0	0	522	409	
11	0	0	0	0	523	409	
12	0	0	0	0	522	409	
13	0	0	0	0	520	410	
14	0	0	0	0	518	410	
15	0	0	0	0	515	410	
0	0	0	0	0	510	409	
1	0	0	0	0	504	410	
2	0	0	0	0	498	409	
3	0	0	0	0	493	410	
4	0	0	0	0	490	409	
5	0	0	0	0	489	410	
6	0	0	0	0	488	409	
7	0	0	0	0	489	410	
8	0	0	0	0	490	410	
9	0	0	0	0	492	409	
10	0	0	0	0	496	409	
11	0	0	0	0	501	409	
12	0	0	0	0	506	410	
13	0	0	0	0	510	411	
14	0	0	0	0	512	409	
15	0	0	0	0	512	409	
0	0	0	0	0	511	409	
1	0	0	0	0	509	409	
2	0	0	0	0	506	409	
3	0	0	0	0	502	409	
4	0	0	0	0	497	409	
5	0	0	0	0	492	410	
6	0	0	0	0	486	408	
7	0	0	0	0	482	409	
8	0	0	0	0	479	409	
9	0	0	0	0	477	408	
10	0	0	0	0	476	408	
11	0	0	0	0	477	408	
12	0	0	0	0	479	408	
13	0	0	0	0	482	409	
14	0	0	0	0	485	408	
15	0	0	0	0	489	408	
0	0	0	0	0	494	408	
1	0	0	0	0	498	407	
2	0	0	0	0	501	408	
3	0	0	0	0	503	407	
4	0	0	0	0	504	408	
5	0	0	0	0	504	408	
6	0	0	0	0	503	408	
7	0	0	0	0	501	408	
8	0	0	0	0	498	408	
9	0	0	0	0	494	408	
10	0	0	0	0	489	408	
11	0	0	0	0	487	408	
12	0	0	0	0	485	408	
13	0	0	0	0	484	408	
14	0	0	0	0	485	408	
15	0	0	0	0	487	408	
0	0	0	0	0	489	408	
1	0	0	0	0	492	407	
2	0	0	0	0	496	408	
3	0	0	0	0	501	408	
4	0	0	0	0	505	408	
5	0	0	0	0	509	409	
6	0	0	0	0	512	408	
7	0	0	0	0	513	408	
8	0	0	0	0	513	408	
9	0	0	0	0	512	408	
10	0	0	0	0	510	408	
11	0	0	0	0	507	408	
12	0	0	0	0	504	408	
13	0	0	0	0	499	409	
14	0	0	0	0	495	408	
15	0	0	0	0	493	409	
0	0	0	0	0	492	408	
1	0	0	0	0	493	408	
2	0	0	0	0	495	409	
3	0	0	0	0	497	408	
4	0	0	0	0	500	409	
5	0	0	0	0	505	411	
6	0	0	0	0	510	409	
7	0	0	0	0	516	409	
8	0	0	0	0	521	409	
9	0	0	0	0	524	408	
10	0	0	0	0	527	409	
11	0	0	0	0	527	409	
12	0	0	0	0	527	410	
13	0	0	0	0	526	410	
14	0	0	0	0	525	409	
15	0	0	0	0	522	410	
0	0	0	0	0	518	410	
1	0	0	0	0	512	409	
2	0	0	0	0	508	410	
3	0	0	0	0	504	409	
4	0	0	0	0	503	410	
5	0	0	0	0	504	411	
6	0	0	0	0	505	409	
7	0	0	0	0	507	410	
8	0	0	0	0	510	410	
9	0	0	0	0	512	410	
10	0	0	0	0	516	409	
11	0	0	0	0	522	410	
12	0	0	0	0	527	410	
13	0	0	0	0	531	410	
14	0	0	0	0	533	409	
15	0	0	0	0	534	409	
0	0	0	0	0	534	409	
1	0	0	0	0	532	409	
2	0	0	0	0	531	410	
3	0	0	0	0	529	409	
4	0	0	0	0	526	410	
5	0	0	0	0	521	411	
6	0	0	0	0	518	410	
7	0	0	0	0	515	410	
8	0	0	0	0	512	410	
9	0	0	0	0	511	410	
10	0	0	0	0	511	410	
11	0	0	0	0	512	410	
12	0	0	0	0	513	410	
13	0	0	0	0	516	411	
14	0	0	0	0	519	410	
15	0	0	0	0	525	410	
0	0	0	0	0	530	410	
1	0	0	0	0	534	410	
2	0	0	0	0	535	410	
3	0	0	0	0	536	410	
4	0	0	0	0	537	411	
5	0	0	0	0	537	411	
6	0	0	0	0	536	411	
7	0	0	0	0	534	410	
8	0	0	0	0	529	410	
9	0	0	0	0	525	411	
10	0	0	0	0	520	410	
11	0	0	0	0	517	410	
12	0	0	0	0	514	410	
13	0	0	0	0	512	409	
14	0	0	0	0	512	409	
15	0	0	0	0	513	409	
0	0	0	0	0	515	409	
1	0	0	0	0	519	409	
2	0	0	0	0	524	408	
3	0	0	0	0	530	409	
4	0	0	0	0	535	409	
5	0	0	0	0	537	409	
6	0	0	0	0	538	408	
7	0	0	0	0	538	407	
8	0	0	0	0	536	408	
9	0	0	0	0	533	408	
10	0	0	0	0	530	408	
11	0	0	0	0	527	408	
12	0	0	0	0	522	408	
13	0	0	0	0	516	409	
14	0	0	0	0	511	408	
15	0	0	0	0	507	408	
0	0	0	0	0	505	408	
1	0	0	0	0	504	408	
2	0	0	0	0	504	408	
3	0	0	0	0	505	408	
4	0	0	0	0	507	408	
5	0	0	0	0	510	409	
6	0	0	0	0	513	408	
7	0	0	0	0	519	409	
8	0	0	0	0	525	408	
9	0	0	0	0	529	408	
10	0	0	0	0	533	408	
11	0	0	0	0	535	408	
12	0	0	0	0	535	408	
13	0	0	0	0	534	409	
14	0	0	0	0	532	408	
15	0	0	0	0	530	408	
0	0	0	0	0	527	408	
1	0	0	0	0	521	408	
2	0	0	0	0	516	408	
3	0	0	0	0	512	408	
4	0	0	0	0	510	408	
5	0	0	0	0	509	409	
6	0	0	0	0	508	409	
7	0	0	0	0	509	409	
8	0	0	0	0	510	410	
9	0	0	0	0	512	409	
10	0	0	0	0	515	409	
11	0	0	0	0	519	409	
12	0	0	0	0	525	409	
13	0	0	0	0	527	410	
14	0	0	0	0	529	409	
15	0	0	0	0	529	409	
0	0	0	0	0	528	409	
1	0	0	0	0	527	409	
2	0	0	0	0	525	409	
3	0	0	0	0	522	409	
4	0	0	0	0	518	409	
5	0	0	0	0	513	409	
6	0	0	0	0	509	408	
7	0	0	0	0	506	408	
8	0	0	0	0	503	409	
9	0	0	0	0	501	408	
10	0	0	0	0	501	408	
11	0	0	0	0	501	409	
12	0	0	0	0	504	408	
13	0	0	0	0	507	408	
14	0	0	0	0	511	407	
15	0	0	0	0	516	408	
0	0	0	0	0	521	408	
1	0	0	0	0	524	408	
2	0	0	0	0	527	408	
3	0	0	0	0	528	408	
4	0	0	0	0	528	408	
5	0	0	0	0	527	409	
6	0	0	0	0	525	408	
7	0	0	0	0	521	409	
8	0	0	0	0	516	409	
9	0	0	0	0	511	408	
10	0	0	0	0	506	408	
11	0	0	0	0	503	409	
12	0	0	0	0	500	409	
13	0	0	0	0	499	410	
14	0	0	0	0	500	409	
15	0	0	0	0	502	409	
0	0	0	0	0	505	408	
1	0	0	0	0	509	408	
2	0	0	0	0	513	408	
3	0	0	0	0	519	409	
4	0	0	0	0	523	409	
5	0	0	0	0	526	410	
6	0	0	0	0	528	408	
7	0	0	0	0	529	408	
8	0	0	0	0	527	408	
9	0	0	0	0	525	407	
10	0	0	0	0	522	408	
11	0	0	0	0	518	408	
12	0	0	0	0	512	408	
13	0	0	0	0	506	408	
14	0	0	0	0	499	408	
15	0	0	0	0	494	408	
0	0	0	0	0	491	407	
1	0	0	0	0	489	407	
2	0	0	0	0	489	408	
3	0	0	0	0	489	408	
4	0	0	0	0	489	408	
5	0	0	0	0	490	408	
6	0	0	0	0	492	408	
7	0	0	0	0	496	407	
8	0	0	0	0	500	408	
9	0	0	0	0	502	407	
10	0	0	0	0	503	408	
11	0	0	0	0	503	408	
12	0	0	0	0	501	408	
13	0	0	0	0	499	409	
14	0	0	0	0	495	408	
15	0	0	0	0	491	408	
0	0	0	0	0	485	408	
1	0	0	0	0	479	408	
2	0	0	0	0	473	408	
3	0	0	0	0	468	409	
4	0	0	0	0	465	409	
5	0	0	0	0	464	409	
6	0	0	0	0	464	409	
7	0	0	0	0	465	409	
8	0	0	0	0	467	410	
9	0	0	0	0	470	408	
10	0	0	0	0	473	410	
11	0	0	0	0	478	409	
12	0	0	0	0	482	409	
13	0	0	0	0	485	410	
14	0	0	0	0	487	409	
15	0	0	0	0	488	409	
0	0	0	0	0	487	410	
1	0	0	0	0	486	410	
2	0	0	0	0	483	410	
3	0	0	0	0	481	410	
4	0	0	0	0	476	410	
5	0	0	0	0	471	411	
6	0	0	0	0	467	410	
7	0	0	0	0	463	410	
8	0	0	0	0	461	411	
9	0	0	0	0	460	410	
10	0	0	0	0	462	411	
11	0	0	0	0	463	411	
12	0	0	0	0	465	410	
13	0	0	0	0	468	411	
14	0	0	0	0	473	410	
15	0	0	0	0	480	410	
0	0	0	0	0	486	410	
1	0	0	0	0	491	410	
2	0	0	0	0	497	410	
3	0	0	0	0	501	410	
4	0	0	0	0	505	410	
5	0	0	0	0	510	411	
6	0	0	0	0	515	410	
7	0	0	0	0	520	410	
8	0	0	0	0	524	410	
9	0	0	0	0	527	410	
10	0	0	0	0	531	410	
11	0	0	0	0	536	410	
12	0	0	0	0	542	409	
13	0	0	0	0	550	409	
14	0	0	0	0	560	410	
15	0	0	0	0	571	409	
0	0	0	0	0	582	408	
1	0	0	0	0	594	408	
2	0	0	0	0	606	408	
3	0	0	0	0	618	409	
4	0	0	0	0	629	408	
5	0	0	0	0	637	410	
6	0	0	0	0	643	409	
7	0	0	0	0	648	409	
8	0	0	0	0	651	409	
9	0	0	0	0	652	408	
10	0	0	0	0	653	409	
11	0	0	0	0	653	408	
12	0	0	0	0	650	409	
13	0	0	0	0	645	410	
14	0	0	0	0	640	409	
15	0	0	0	0	635	408	
0	0	0	0	0	631	409	
1	0	0	0	0	627	408	
2	0	0	0	0	624	409	
3	0	0	0	0	620	409	
4	0	0	0	0	616	408	
5	0	0	0	0	611	409	
6	0	0	0	0	607	409	
7	0	0	0	0	604	408	
8	0	0	0	0	600	409	
9	0	0	0	0	594	408	
10	0	0	0	0	588	409	
11	0	0	0	0	580	409	
12	0	0	0	0	571	408	
13	0	0	0	0	561	409	
14	0	0	0	0	551	408	
15	0	0	0	0	542	408	
0	0	0	0	0	531	408	
1	0	0	0	0	519	408	
2	0	0	0	0	508	408	
3	0	0	0	0	500	408	
4	0	0	0	0	493	408	
5	0	0	0	0	488	409	
6	0	0	0	0	486	408	
7	0	0	0	0	483	407	
8	0	0	0	0	482	407	
9	0	0	0	0	482	408	
10	0	0	0	0	483	408	
11	0	0	0	0	486	408	
12	0	0	0	0	486	408	
13	0	0	0	0	487	409	
14	0	0	0	0	488	409	
15	0	0	0	0	487	408	
0	0	0	0	0	485	409	
1	0	0	0	0	482	408	
2	0	0	0	0	480	409	
3	0	0	0	0	476	408	
4	0	0	0	0	472	409	
5	0	0	0	0	465	409	
6	0	0	0	0	460	408	
7	0	0	0	0	455	409	
8	0	0	0	0	453	409	
9	0	0	0	0	452	408	
10	0	0	0	0	454	409	
11	0	0	0	0	455	409	
12	0	0	0	0	457	408	
13	0	0	0	0	461	409	
14	0	0	0	0	466	409	
15	0	0	0	0	471	408	
0	0	0	0	0	476	409	
1	0	0	0	0	479	409	
2	0	0	0	0	482	409	
3	0	0	0	0	482	408	
4	0	0	0	0	481	409	
5	0	0	0	0	480	410	
6	0	0	0	0	478	409	
7	0	0	0	0	476	409	
8	0	0	0	0	472	409	
9	0	0	0	0	468	409	
10	0	0	0	0	464	409	
11	0	0	0	0	461	410	
12	0	0	0	0	461	409	
13	0	0	0	0	462	409	
14	0	0	0	0	464	409	
15	0	0	0	0	467	409	
0	0	0	0	0	470	409	
1	0	0	0	0	473	409	
2	0	0	0	0	477	410	
3	0	0	0	0	483	408	
4	0	0	0	0	488	409	
5	0	0	0	0	493	409	
6	0	0	0	0	496	408	
7	0	0	0	0	497	408	
8	0	0	0	0	498	408	
9	0	0	0	0	497	408	
10	0	0	0	0	496	408	
11	0	0	0	0	494	408	
12	0	0	0	0	490	408	
13	0	0	0	0	486	409	
14	0	0	0	0	483	408	
15	0	0	0	0	481	408	
0	0	0	0	0	481	408	
1	0	0	0	0	481	409	
2	0	0	0	0	484	408	
3	0	0	0	0	487	408	
4	0	0	0	0	492	408	
5	0	0	0	0	496	409	
6	0	0	0	0	502	408	
7	0	0	0	0	509	409	
8	0	0	0	0	513	408	
9	0	0	0	0	517	409	
10	0	0	0	0	519	409	
11	0	0	0	0	519	408	
12	0	0	0	0	518	409	
13	0	0	0	0	515	409	
14	0	0	0	0	512	408	
15	0	0	0	0	509	409	
0	0	0	0	0	504	408	
1	0	0	0	0	499	409	
2	0	0	0	0	492	409	
3	0	0	0	0	488	410	
4	0	0	0	0	484	409	
5	0	0	0	0	483	411	
6	0	0	0	0	483	410	
7	0	0	0	0	483	410	
8	0	0	0	0	484	409	
9	0	0	0	0	486	409	
10	0	0	0	0	489	410	
11	0	0	0	0	493	409	
12	0	0	0	0	497	409	
13	0	0	0	0	500	410	
14	0	0	0	0	502	409	
15	0	0	0	0	503	409	
0	0	0	0	0	502	409	
1	0	0	0	0	500	409	
2	0	0	0	0	497	409	
3	0	0	0	0	494	411	
4	0	0	0	0	489	409	
5	0	0	0	0	483	411	
6	0	0	0	0	478	410	
7	0	0	0	0	473	410	
8	0	0	0	0	472	411	
9	0	0	0	0	471	411	
10	0	0	0	0	472	411	
11	0	0	0	0	474	410	
12	0	0	0	0	476	411	
13	0	0	0	0	479	412	
14	0	0	0	0	483	410	
15	0	0	0	0	487	410	
0	0	0	0	0	492	411	
1	0	0	0	0	496	410	
2	0	0	0	0	498	411	
3	0	0	0	0	499	410	
4	0	0	0	0	499	411	
5	0	0	0	0	496	411	
6	0	0	0	0	494	411	
7	0	0	0	0	491	411	
8	0	0	0	0	487	410	
9	0	0	0	0	482	410	
10	0	0	0	0	478	410	
11	0	0	0	0	475	410	
12	0	0	0	0	473	410	
13	0	0	0	0	472	410	
14	0	0	0	0	473	410	
15	0	0	0	0	473	409	
0	0	0	0	0	475	411	
1	0	0	0	0	477	409	
2	0	0	0	0	480	409	
3	0	0	0	0	484	410	
4	0	0	0	0	489	409	
5	0	0	0	0	492	410	
6	0	0	0	0	493	409	
7	0	0	0	0	493	409	
8	0	0	0	0	493	408	
9	0	0	0	0	491	408	
10	0	0	0	0	489	409	
11	0	0	0	0	487	408	
12	0	0	0	0	484	408	
13	0	0	0	0	480	409	
14	0	0	0	0	477	408	
15	0	0	0	0	475	408	
0	0	0	0	0	473	408	
1	0	0	0	0	473	408	
2	0	0	0	0	475	408	
3	0	0	0	0	476	408	
4	0	0	0	0	480	408	
5	0	0	0	0	483	408	
6	0	0	0	0	487	407	
7	0	0	0	0	493	408	
8	0	0	0	0	499	407	
9	0	0	0	0	503	407	
10	0	0	0	0	505	408	
11	0	0	0	0	506	407	
12	0	0	0	0	504	408	
13	0	0	0	0	502	408	
14	0	0	0	0	499	408	
15	0	0	0	0	497	407	
0	0	0	0	0	493	407	
1	0	0	0	0	489	407	
2	0	0	0	0	485	407	
3	0	0	0	0	483	408	
4	0	0	0	0	481	408	
5	0	0	0	0	480	409	
6	0	0	0	0	481	407	
7	0	0	0	0	483	408	
8	0	0	0	0	485	408	
9	0	0	0	0	487	408	
10	0	0	0	0	492	408	
11	0	0	0	0	497	408	
12	0	0	0	0	501	409	
13	0	0	0	0	504	409	
14	0	0	0	0	507	408	
15	0	0	0	0	508	409	
0	0	0	0	0	507	409	
1	0	0	0	0	505	408	
2	0	0	0	0	503	409	
3	0	0	0	0	500	409	
4	0	0	0	0	496	408	
5	0	0	0	0	492	410	
6	0	0	0	0	488	409	
7	0	0	0	0	485	409	
8	0	0	0	0	484	409	
9	0	0	0	0	484	408	
10	0	0	0	0	486	409	
11	0	0	0	0	488	409	
12	0	0	0	0	491	408	
13	0	0	0	0	494	409	
14	0	0	0	0	499	409	
15	0	0	0	0	505	409	
0	0	0	0	0	510	409	
1	0	0	0	0	513	409	
2	0	0	0	0	515	409	
3	0	0	0	0	516	409	
4	0	0	0	0	515	410	
5	0	0	0	0	512	410	
6	0	0	0	0	509	410	
7	0	0	0	0	506	410	
8	0	0	0	0	501	409	
9	0	0	0	0	496	410	
10	0	0	0	0	491	409	
11	0	0	0	0	487	410	
12	0	0	0	0	485	409	
13	0	0	0	0	484	410	
14	0	0	0	0	484	409	
15	0	0	0	0	485	409	
0	0	0	0	0	487	409	
1	0	0	0	0	490	408	
2	0	0	0	0	494	409	
3	0	0	0	0	500	409	
4	0	0	0	0	506	409	
5	0	0	0	0	510	409	
6	0	0	0	0	514	409	
7	0	0	0	0	516	409	
8	0	0	0	0	517	409	
9	0	0	0	0	517	409	
10	0	0	0	0	516	410	
11	0	0	0	0	515	409	
12	0	0	0	0	512	409	
13	0	0	0	0	507	410	
14	0	0	0	0	502	409	
15	0	0	0	0	499	409	
0	0	0	0	0	497	409	
1	0	0	0	0	496	408	
2	0	0	0	0	497	409	
3	0	0	0	0	498	409	
4	0	0	0	0	501	409	
5	0	0	0	0	505	410	
6	0	0	0	0	510	409	
7	0	0	0	0	516	409	
8	0	0	0	0	521	409	
9	0	0	0	0	526	409	
10	0	0	0	0	529	409	
11	0	0	0	0	530	409	
12	0	0	0	0	530	410	
13	0	0	0	0	529	410	
14	0	0	0	0	527	409	
15	0	0	0	0	524	409	
0	0	0	0	0	520	409	
1	0	0	0	0	515	410	
2	0	0	0	0	510	409	
3	0	0	0	0	507	409	
4	0	0	0	0	505	410	
5	0	0	0	0	504	411	
6	0	0	0	0	505	410	
7	0	0	0	0	506	410	
8	0	0	0	0	507	410	
9	0	0	0	0	510	410	
10	0	0	0	0	513	410	
11	0	0	0	0	519	410	
12	0	0	0	0	522	411	
13	0	0	0	0	524	411	
14	0	0	0	0	525	410	
15	0	0	0	0	524	410	
0	0	0	0	0	522	410	
1	0	0	0	0	519	409	
2	0	0	0	0	515	409	
3	0	0	0	0	511	409	
4	0	0	0	0	505	409	
5	0	0	0	0	498	409	
6	0	0	0	0	493	409	
7	0	0	0	0	489	409	
8	0	0	0	0	486	410	
9	0	0	0	0	484	409	
10	0	0	0	0	484	409	
11	0	0	0	0	485	410	
12	0	0	0	0	487	409	
13	0	0	0	0	489	409	
14	0	0	0	0	493	408	
15	0	0	0	0	497	408	
0	0	0	0	0	500	408	
1	0	0	0	0	503	408	
2	0	0	0	0	504	409	
3	0	0	0	0	504	408	
4	0	0	0	0	502	408	
5	0	0	0	0	499	409	
6	0	0	0	0	495	408	
7	0	0	0	0	491	407	
8	0	0	0	0	486	408	
9	0	0	0	0	480	408	
10	0	0	0	0	476	408	
11	0	0	0	0	473	408	
12	0	0	0	0	472	408	
13	0	0	0	0	472	409	
14	0	0	0	0	474	408	
15	0	0	0	0	475	408	
0	0	0	0	0	477	408	
1	0	0	0	0	480	408	
2	0	0	0	0	484	408	
3	0	0	0	0	488	408	
4	0	0	0	0	492	409	
5	0	0	0	0	495	409	
6	0	0	0	0	496	409	
7	0	0	0	0	497	408	
8	0	0	0	0	497	408	
9	0	0	0	0	495	407	
10	0	0	0	0	492	408	
11	0	0	0	0	488	407	
12	0	0	0	0	483	407	
13	0	0	0	0	478	408	
14	0	0	0	0	472	407	
15	0	0	0	0	469	408	
0	0	0	0	0	467	408	
1	0	0	0	0	467	408	
2	0	0	0	0	468	408	
3	0	0	0	0	469	408	
4	0	0	0	0	471	408	
5	0	0	0	0	473	408	
6	0	0	0	0	477	408	
7	0	0	0	0	482	408	
8	0	0	0	0	487	408	
9	0	0	0	0	490	408	
10	0	0	0	0	492	408	
11	0	0	0	0	492	408	
12	0	0	0	0	491	408	
13	0	0	0	0	489	409	
14	0	0	0	0	487	408	
15	0	0	0	0	483	408	
0	0	0	0	0	478	408	
1	0	0	0	0	473	408	
2	0	0	0	0	468	408	
3	0	0	0	0	464	408	
4	0	0	0	0	462	408	
5	0	0	0	0	460	409	
6	0	0	0	0	461	408	
7	0	0	0	0	463	408	
8	0	0	0	0	466	408	
9	0	0	0	0	470	408	
10	0	0	0	0	475	408	
11	0	0	0	0	482	408	
12	0	0	0	0	487	407	
13	0	0	0	0	492	409	
14	0	0	0	0	496	408	
15	0	0	0	0	498	408	
0	0	0	0	0	499	408	
1	0	0	0	0	499	408	
2	0	0	0	0	498	408	
3	0	0	0	0	497	408	
4	0	0	0	0	495	408	
5	0	0	0	0	491	409	
6	0	0	0	0	488	409	
7	0	0	0	0	487	409	
8	0	0	0	0	487	409	
9	0	0	0	0	489	409	
10	0	0	0	0	491	409	
11	0	0	0	0	495	410	
12	0	0	0	0	499	410	
13	0	0	0	0	503	409	
14	0	0	0	0	508	409	
15	0	0	0	0	515	409	
0	0	0	0	0	520	409	
1	0	0	0	0	523	409	
2	0	0	0	0	525	410	
3	0	0	0	0	526	409	
4	0	0	0	0	525	409	
5	0	0	0	0	523	409	
6	0	0	0	0	520	409	
7	0	0	0	0	518	409	
8	0	0	0	0	513	409	
9	0	0	0	0	508	409	
10	0	0	0	0	503	409	
11	0	0	0	0	499	409	
12	0	0	0	0	498	409	
13	0	0	0	0	497	409	
14	0	0	0	0	498	409	
15	0	0	0	0	500	409	
0	0	0	0	0	503	409	
1	0	0	0	0	507	408	
2	0	0	0	0	511	409	
3	0	0	0	0	516	410	
4	0	0	0	0	521	409	
5	0	0	0	0	524	410	
6	0	0	0	0	527	409	
7	0	0	0	0	528	409	
8	0	0	0	0	528	410	
9	0	0	0	0	527	409	
10	0	0	0	0	527	409	
11	0	0	0	0	524	410	
12	0	0	0	0	519	409	
13	0	0	0	0	515	411	
14	0	0	0	0	510	410	
15	0	0	0	0	507	409	
0	0	0	0	0	505	410	
1	0	0	0	0	505	410	
2	0	0	0	0	507	410	
3	0	0	0	0	508	410	
4	0	0	0	0	510	409	
5	0	0	0	0	513	411	
6	0	0	0	0	518	409	
7	0	0	0	0	524	410	
8	0	0	0	0	528	409	
9	0	0	0	0	531	409	
10	0	0	0	0	533	409	
11	0	0	0	0	533	409	
12	0	0	0	0	532	410	
13	0	0	0	0	531	410	
14	0	0	0	0	528	410	
15	0	0	0	0	524	410	
0	0	0	0	0	519	409	
1	0	0	0	0	513	409	
2	0	0	0	0	509	409	
3	0	0	0	0	506	409	
4	0	0	0	0	505	409	
5	0	0	0	0	504	410	
6	0	0	0	0	505	409	
7	0	0	0	0	508	409	
8	0	0	0	0	512	409	
9	0	0	0	0	517	409	
10	0	0	0	0	522	409	
11	0	0	0	0	528	409	
12	0	0	0	0	533	409	
13	0	0	0	0	536	410	
14	0	0	0	0	539	409	
15	0	0	0	0	539	409	
0	0	0	0	0	537	409	
1	0	0	0	0	536	408	
2	0	0	0	0	533	409	
3	0	0	0	0	531	409	
4	0	0	0	0	526	409	
5	0	0	0	0	520	410	
6	0	0	0	0	515	409	
7	0	0	0	0	512	409	
8	0	0	0	0	510	408	
9	0	0	0	0	508	409	
10	0	0	0	0	508	409	
11	0	0	0	0	510	408	
12	0	0	0	0	512	408	
13	0	0	0	0	515	409	
14	0	0	0	0	519	408	
15	0	0	0	0	523	408	
0	0	0	0	0	527	408	
1	0	0	0	0	530	408	
2	0	0	0	0	532	408	
3	0	0	0	0	532	409	
4	0	0	0	0	531	408	
5	0	0	0	0	529	409	
6	0	0	0	0	527	407	
7	0	0	0	0	523	408	
8	0	0	0	0	518	408	
9	0	0	0	0	513	407	
10	0	0	0	0	508	408	
11	0	0	0	0	505	408	
12	0	0	0	0	504	408	
13	0	0	0	0	504	409	
14	0	0	0	0	505	409	
15	0	0	0	0	507	408	
0	0	0	0	0	509	408	
1	0	0	0	0	512	408	
2	0	0	0	0	517	409	
3	0	0	0	0	523	409	
4	0	0	0	0	527	409	
5	0	0	0	0	529	410	
6	0	0	0	0	531	409	
7	0	0	0	0	531	409	
8	0	0	0	0	530	409	
9	0	0	0	0	527	408	
10	0	0	0	0	524	409	
11	0	0	0	0	521	410	
12	0	0	0	0	516	409	
13	0	0	0	0	511	410	
14	0	0	0	0	505	409	
15	0	0	0	0	503	409	
0	0	0	0	0	500	409	
1	0	0	0	0	499	408	
2	0	0	0	0	499	409	
3	0	0	0	0	501	409	
4	0	0	0	0	503	408	
5	0	0	0	0	505	409	
6	0	0	0	0	509	408	
7	0	0	0	0	514	408	
8	0	0	0	0	519	408	
9	0	0	0	0	523	408	
10	0	0	0	0	524	408	
11	0	0	0	0	524	408	
12	0	0	0	0	524	408	
13	0	0	0	0	523	409	
14	0	0	0	0	521	408	
15	0	0	0	0	518	408	
0	0	0	0	0	513	408	
1	0	0	0	0	508	408	
2	0	0	0	0	502	409	
3	0	0	0	0	499	408	
4	0	0	0	0	496	408	
5	0	0	0	0	494	410	
6	0	0	0	0	494	408	
7	0	0	0	0	494	408	
8	0	0	0	0	496	409	
9	0	0	0	0	498	408	
10	0	0	0	0	502	408	
11	0	0	0	0	507	409	
12	0	0	0	0	511	409	
13	0	0	0	0	513	409	
14	0	0	0	0	514	409	
15	0	0	0	0	514	409	
0	0	0	0	0	513	409	
1	0	0	0	0	511	408	
2	0	0	0	0	508	409	
3	0	0	0	0	505	409	
4	0	0	0	0	500	409	
5	0	0	0	0	494	410	
6	0	0	0	0	489	409	
7	0	0	0	0	486	408	
8	0	0	0	0	485	408	
9	0	0	0	0	486	408	
10	0	0	0	0	488	408	
11	0	0	0	0	492	408	
12	0	0	0	0	495	409	
13	0	0	0	0	499	409	
14	0	0	0	0	504	408	
15	0	0	0	0	511	408	
0	0	0	0	0	515	408	
1	0	0	0	0	518	408	
2	0	0	0	0	519	409	
3	0	0	0	0	520	408	
4	0	0	0	0	519	409	
5	0	0	0	0	516	408	
6	0	0	0	0	514	408	
7	0	0	0	0	510	408	
8	0	0	0	0	504	408	
9	0	0	0	0	499	408	
10	0	0	0	0	494	409	
11	0	0	0	0	491	409	
12	0	0	0	0	490	409	
13	0	0	0	0	490	410	
14	0	0	0	0	493	409	
15	0	0	0	0	495	409	
0	0	0	0	0	497	409	
1	0	0	0	0	500	409	
2	0	0	0	0	505	409	
3	0	0	0	0	510	409	
4	0	0	0	0	514	410	
5	0	0	0	0	518	411	
6	0	0	0	0	521	409	
7	0	0	0	0	522	408	
8	0	0	0	0	522	410	
9	0	0	0	0	521	408	
10	0	0	0	0	519	410	
11	0	0	0	0	516	409	
12	0	0	0	0	511	409	
13	0	0	0	0	507	411	
14	0	0	0	0	502	410	
15	0	0	0	0	499	410	
0	0	0	0	0	498	410	
1	0	0	0	0	497	410	
2	0	0	0	0	498	410	
3	0	0	0	0	500	410	
4	0	0	0	0	503	410	
5	0	0	0	0	507	410	
6	0	0	0	0	511	409	
7	0	0	0	0	515	410	
8	0	0	0	0	520	410	
9	0	0	0	0	524	409	
10	0	0	0	0	526	410	
11	0	0	0	0	527	409	
12	0	0	0	0	526	409	
13	0	0	0	0	525	410	
14	0	0	0	0	523	409	
15	0	0	0	0	520	410	
0	0	0	0	0	516	410	
1	0	0	0	0	511	409	
2	0	0	0	0	508	409	
3	0	0	0	0	504	409	
4	0	0	0	0	503	409	
5	0	0	0	0	503	409	
6	0	0	0	0	504	409	
7	0	0	0	0	506	410	
8	0	0	0	0	508	409	
9	0	0	0	0	512	409	
10	0	0	0	0	515	409	
11	0	0	0	0	520	410	
12	0	0	0	0	524	410	
13	0	0	0	0	526	410	
14	0	0	0	0	528	409	
15	0	0	0	0	528	409	
0	0	0	0	0	527	409	
1	0	0	0	0	525	409	
2	0	0	0	0	521	408	
3	0	0	0	0	518	408	
4	0	0	0	0	512	408	
5	0	0	0	0	506	409	
6	0	0	0	0	500	409	
7	0	0	0	0	496	408	
8	0	0	0	0	495	409	
9	0	0	0	0	495	408	
10	0	0	0	0	496	408	
11	0	0	0	0	497	408	
12	0	0	0	0	499	408	
13	0	0	0	0	501	409	
14	0	0	0	0	504	408	
15	0	0	0	0	509	408	
0	0	0	0	0	513	408	
1	0	0	0	0	516	408	
2	0	0	0	0	518	408	
3	0	0	0	0	519	408	
4	0	0	0	0	519	408	
5	0	0	0	0	519	408	
6	0	0	0	0	518	407	
7	0	0	0	0	516	407	
8	0	0	0	0	512	408	
9	0	0	0	0	508	408	
10	0	0	0	0	503	408	
11	0	0	0	0	499	408	
12	0	0	0	0	496	408	
13	0	0	0	0	493	409	
14	0	0	0	0	493	408	
15	0	0	0	0	494	408	
0	0	0	0	0	496	408	
1	0	0	0	0	500	408	
2	0	0	0	0	504	408	
3	0	0	0	0	511	408	
4	0	0	0	0	515	409	
5	0	0	0	0	517	409	
6	0	0	0	0	519	408	
7	0	0	0	0	519	408	
8	0	0	0	0	518	409	
9	0	0	0	0	516	408	
10	0	0	0	0	513	408	
11	0	0	0	0	509	408	
12	0	0	0	0	504	409	
13	0	0	0	0	499	410	
14	0	0	0	0	494	408	
15	0	0	0	0	491	409	
0	0	0	0	0	489	409	
1	0	0	0	0	489	408	
2	0	0	0	0	491	409	
3	0	0	0	0	493	408	
4	0	0	0	0	496	409	
5	0	0	0	0	499	410	
6	0	0	0	0	503	408	
7	0	0	0	0	508	409	
8	0	0	0	0	512	408	
9	0	0	0	0	515	408	
10	0	0	0	0	518	408	
11	0	0	0	0	519	408	
12	0	0	0	0	520	409	
13	0	0	0	0	519	409	
14	0	0	0	0	517	409	
15	0	0	0	0	515	409	
0	0	0	0	0	511	409	
1	0	0	0	0	505	408	
2	0	0	0	0	501	408	
3	0	0	0	0	498	408	
4	0	0	0	0	496	408	
5	0	0	0	0	496	409	
6	0	0	0	0	497	409	
7	0	0	0	0	499	409	
8	0	0	0	0	501	408	
9	0	0	0	0	505	408	
10	0	0	0	0	509	409	
11	0	0	0	0	514	409	
12	0	0	0	0	518	409	
13	0	0	0	0	522	410	
14	0	0	0	0	524	409	
15	0	0	0	0	525	409	
0	0	0	0	0	525	409	
1	0	0	0	0	524	409	
2	0	0	0	0	522	409	
3	0	0	0	0	519	409	
4	0	0	0	0	514	409	
5	0	0	0	0	509	411	
6	0	0	0	0	504	409	
7	0	0	0	0	501	410	
8	0	0	0	0	499	410	
9	0	0	0	0	499	409	
10	0	0	0	0	500	410	
11	0	0	0	0	502	410	
12	0	0	0	0	504	409	
13	0	0	0	0	507	410	
14	0	0	0	0	511	409	
15	0	0	0	0	517	410	
0	0	0	0	0	521	409	
1	0	0	0	0	525	409	
2	0	0	0	0	527	409	
3	0	0	0	0	528	409	
4	0	0	0	0	527	409	
5	0	0	0	0	526	410	
6	0	0	0	0	524	410	
7	0	0	0	0	520	410	
8	0	0	0	0	515	410	
9	0	0	0	0	510	409	
10	0	0	0	0	505	410	
11	0	0	0	0	501	410	
12	0	0	0	0	499	409	
13	0	0	0	0	497	410	
14	0	0	0	0	497	410	
15	0	0	0	0	498	410	
0	0	0	0	0	500	410	
1	0	0	0	0	503	409	
2	0	0	0	0	507	410	
3	0	0	0	0	512	410	
4	0	0	0	0	516	410	
5	0	0	0	0	519	411	
6	0	0	0	0	521	409	
7	0	0	0	0	520	410	
8	0	0	0	0	519	410	
9	0	0	0	0	515	410	
10	0	0	0	0	511	410	
11	0	0	0	0	507	409	
12	0	0	0	0	500	409	
13	0	0	0	0	494	410	
14	0	0	0	0	488	409	
15	0	0	0	0	484	409	
0	0	0	0	0	482	409	
1	0	0	0	0	481	409	
2	0	0	0	0	481	409	
3	0	0	0	0	483	410	
4	0	0	0	0	485	409	
5	0	0	0	0	488	410	
6	0	0	0	0	491	409	
7	0	0	0	0	497	410	
8	0	0	0	0	500	409	
9	0	0	0	0	503	408	
10	0	0	0	0	504	409	
11	0	0	0	0	504	409	
12	0	0	0	0	503	408	
13	0	0	0	0	500	409	
14	0	0	0	0	497	409	
15	0	0	0	0	492	408	
0	0	0	0	0	487	408	
1	0	0	0	0	480	409	
2	0	0	0	0	475	409	
3	0	0	0	0	472	409	
4	0	0	0	0	470	408	
5	0	0	0	0	469	409	
6	0	0	0	0	468	409	
7	0	0	0	0	469	408	
8	0	0	0	0	470	409	
9	0	0	0	0	473	409	
10	0	0	0	0	476	409	
11	0	0	0	0	481	408	
12	0	0	0	0	484	408	
13	0	0	0	0	486	410	
14	0	0	0	0	487	408	
15	0	0	0	0	487	408	
0	0	0	0	0	485	408	
1	0	0	0	0	483	407	
2	0	0	0	0	480	408	
3	0	0	0	0	476	408	
4	0	0	0	0	471	408	
5	0	0	0	0	465	409	
6	0	0	0	0	461	408	
7	0	0	0	0	459	408	
8	0	0	0	0	457	408	
9	0	0	0	0	457	408	
10	0	0	0	0	460	408	
11	0	0	0	0	464	408	
12	0	0	0	0	470	408	
13	0	0	0	0	477	409	
14	0	0	0	0	486	408	
15	0	0	0	0	497	408	
0	0	0	0	0	508	408	
1	0	0	0	0	519	407	
2	0	0	0	0	527	408	
3	0	0	0	0	535	408	
4	0	0	0	0	540	408	
5	0	0	0	0	546	409	
6	0	0	0	0	551	408	
7	0	0	0	0	556	409	
8	0	0	0	0	559	407	
9	0	0	0	0	561	408	
10	0	0	0	0	563	408	
11	0	0	0	0	568	408	
12	0	0	0	0	574	408	
13	0	0	0	0	580	409	
14	0	0	0	0	586	409	
15	0	0	0	0	592	409	
0	0	0	0	0	601	409	
1	0	0	0	0	609	409	
2	0	0	0	0	617	409	
3	0	0	0	0	626	409	
4	0	0	0	0	634	409	
5	0	0	0	0	640	410	
6	0	0	0	0	645	409	
7	0	0	0	0	646	409	
8	0	0	0	0	645	410	
9	0	0	0	0	641	409	
10	0	0	0	0	635	409	
11	0	0	0	0	628	409	
12	0	0	0	0	617	409	
13	0	0	0	0	607	410	
14	0	0	0	0	595	408	
15	0	0	0	0	584	409	
0	0	0	0	0	574	409	
1	0	0	0	0	564	408	
2	0	0	0	0	556	408	
3	0	0	0	0	548	409	
4	0	0	0	0	541	409	
5	0	0	0	0	535	409	
6	0	0	0	0	531	409	
7	0	0	0	0	530	409	
8	0	0	0	0	527	408	
9	0	0	0	0	525	408	
10	0	0	0	0	522	409	
11	0	0	0	0	517	409	
12	0	0	0	0	511	409	
13	0	0	0	0	505	410	
14	0	0	0	0	498	409	
15	0	0	0	0	490	409	
0	0	0	0	0	481	408	
1	0	0	0	0	472	408	
2	0	0	0	0	463	408	
3	0	0	0	0	456	409	
4	0	0	0	0	451	409	
5	0	0	0	0	449	410	
6	0	0	0	0	447	409	
7	0	0	0	0	447	409	
8	0	0	0	0	448	409	
9	0	0	0	0	448	409	
10	0	0	0	0	451	409	
11	0	0	0	0	454	409	
12	0	0	0	0	455	409	
13	0	0	0	0	457	410	
14	0	0	0	0	458	408	
15	0	0	0	0	457	409	
0	0	0	0	0	456	409	
1	0	0	0	0	453	409	
2	0	0	0	0	450	409	
3	0	0	0	0	447	409	
4	0	0	0	0	442	408	
5	0	0	0	0	437	410	
6	0	0	0	0	433	409	
7	0	0	0	0	430	409	
8	0	0	0	0	429	409	
9	0	0	0	0	429	408	
10	0	0	0	0	431	409	
11	0	0	0	0	432	409	
12	0	0	0	0	435	409	
13	0	0	0	0	439	410	
14	0	0	0	0	443	408	
15	0	0	0	0	449	409	
0	0	0	0	0	455	409	
1	0	0	0	0	459	408	
2	0	0	0	0	463	409	
3	0	0	0	0	466	409	
4	0	0	0	0	467	408	
5	0	0	0	0	466	410	
6	0	0	0	0	465	409	
7	0	0	0	0	463	408	
8	0	0	0	0	459	409	
9	0	0	0	0	455	408	
10	0	0	0	0	451	409	
11	0	0	0	0	449	409	
12	0	0	0	0	449	409	
13	0	0	0	0	449	410	
14	0	0	0	0	452	409	
15	0	0	0	0	455	409	
0	0	0	0	0	458	408	
1	0	0	0	0	463	408	
2	0	0	0	0	468	408	
3	0	0	0	0	475	408	
4	0	0	0	0	480	408	
5	0	0	0	0	483	409	
6	0	0	0	0	487	409	
7	0	0	0	0	487	409	
8	0	0	0	0	487	409	
9	0	0	0	0	485	408	
10	0	0	0	0	483	409	
11	0	0	0	0	479	409	
12	0	0	0	0	474	408	
13	0	0	0	0	468	409	
14	0	0	0	0	463	409	
15	0	0	0	0	460	409	
0	0	0	0	0	459	409	
1	0	0	0	0	459	408	
2	0	0	0	0	460	409	
3	0	0	0	0	462	408	
4	0	0	0	0	466	408	
5	0	0	0	0	470	410	
6	0	0	0	0	475	409	
7	0	0	0	0	481	409	
8	0	0	0	0	486	409	
9	0	0	0	0	490	408	
10	0	0	0	0	494	409	
11	0	0	0	0	494	409	
12	0	0	0	0	494	410	
13	0	0	0	0	493	410	
14	0	0	0	0	492	409	
15	0	0	0	0	490	409	
0	0	0	0	0	487	409	
1	0	0	0	0	482	408	
2	0	0	0	0	479	408	
3	0	0	0	0	478	409	
4	0	0	0	0	477	408	
5	0	0	0	0	479	409	
6	0	0	0	0	480	408	
7	0	0	0	0	483	408	
8	0	0	0	0	486	408	
9	0	0	0	0	490	408	
10	0	0	0	0	495	408	
11	0	0	0	0	501	408	
12	0	0	0	0	505	408	
13	0	0	0	0	509	408	
14	0	0	0	0	511	409	
15	0	0	0	0	512	408	
0	0	0	0	0	511	409	
1	0	0	0	0	510	408	
2	0	0	0	0	508	408	
3	0	0	0	0	504	408	
4	0	0	0	0	499	408	
5	0	0	0	0	494	409	
6	0	0	0	0	489	408	
7	0	0	0	0	487	409	
8	0	0	0	0	487	409	
9	0	0	0	0	487	408	
10	0	0	0	0	488	409	
11	0	0	0	0	490	409	
12	0	0	0	0	492	409	
13	0	0	0	0	494	410	
14	0	0	0	0	498	409	
15	0	0	0	0	503	409	
0	0	0	0	0	507	409	
1	0	0	0	0	510	409	
2	0	0	0	0	511	409	
3	0	0	0	0	512	410	
4	0	0	0	0	511	410	
5	0	0	0	0	509	411	
6	0	0	0	0	507	410	
7	0	0	0	0	504	409	
8	0	0	0	0	499	410	
9	0	0	0	0	494	410	
10	0	0	0	0	489	409	
11	0	0	0	0	487	409	
12	0	0	0	0	487	409	
13	0	0	0	0	487	409	
14	0	0	0	0	489	409	
15	0	0	0	0	491	409	
0	0	0	0	0	494	409	
1	0	0	0	0	497	409	
2	0	0	0	0	502	408	
3	0	0	0	0	508	409	
4	0	0	0	0	513	408	
5	0	0	0	0	517	409	
6	0	0	0	0	519	409	
7	0	0	0	0	521	409	
8	0	0	0	0	521	408	
9	0	0	0	0	519	408	
10	0	0	0	0	516	408	
11	0	0	0	0	512	408	
12	0	0	0	0	507	409	
13	0	0	0	0	500	410	
14	0	0	0	0	495	408	
15	0	0	0	0	491	409	
0	0	0	0	0	489	409	
1	0	0	0	0	487	408	
2	0	0	0	0	488	408	
3	0	0	0	0	489	409	
4	0	0	0	0	491	409	
5	0	0	0	0	494	410	
6	0	0	0	0	497	409	
7	0	0	0	0	503	409	
8	0	0	0	0	507	409	
9	0	0	0	0	510	409	
10	0	0	0	0	511	409	
11	0	0	0	0	511	409	
12	0	0	0	0	509	409	
13	0	0	0	0	507	409	
14	0	0	0	0	503	409	
15	0	0	0	0	500	408	
0	0	0	0	0	495	408	
1	0	0	0	0	490	407	
2	0	0	0	0	485	408	
3	0	0	0	0	482	408	
4	0	0	0	0	480	408	
5	0	0	0	0	480	408	
6	0	0	0	0	480	407	
7	0	0	0	0	481	407	
8	0	0	0	0	484	408	
9	0	0	0	0	486	407	
10	0	0	0	0	490	407	
11	0	0	0	0	496	408	
12	0	0	0	0	502	407	
13	0	0	0	0	505	408	
14	0	0	0	0	508	407	
15	0	0	0	0	509	407	
0	0	0	0	0	509	408	
1	0	0	0	0	509	408	
2	0	0	0	0	508	408	
3	0	0	0	0	507	408	
4	0	0	0	0	504	408	
5	0	0	0	0	500	409	
6	0	0	0	0	497	409	
7	0	0	0	0	496	408	
8	0	0	0	0	497	409	
9	0	0	0	0	498	408	
10	0	0	0	0	500	408	
11	0	0	0	0	503	409	
12	0	0	0	0	506	409	
13	0	0	0	0	509	409	
14	0	0	0	0	514	408	
15	0	0	0	0	519	409	
0	0	0	0	0	524	409	
1	0	0	0	0	527	409	
2	0	0	0	0	531	409	
3	0	0	0	0	533	409	
4	0	0	0	0	534	409	
5	0	0	0	0	533	410	
6	0	0	0	0	531	409	
7	0	0	0	0	527	409	
8	0	0	0	0	523	409	
9	0	0	0	0	518	409	
10	0	0	0	0	513	409	
11	0	0	0	0	511	409	
12	0	0	0	0	510	409	
13	0	0	0	0	510	409	
14	0	0	0	0	511	409	
15	0	0	0	0	512	409	
0	0	0	0	0	515	409	
1	0	0	0	0	518	408	
2	0	0	0	0	523	408	
3	0	0	0	0	528	409	
4	0	0	0	0	533	409	
5	0	0	0	0	535	410	
6	0	0	0	0	538	409	
7	0	0	0	0	539	409	
8	0	0	0	0	539	410	
9	0	0	0	0	537	409	
10	0	0	0	0	536	409	
11	0	0	0	0	534	409	
12	0	0	0	0	530	409	
13	0	0	0	0	526	411	
14	0	0	0	0	522	409	
15	0	0	0	0	519	410	
0	0	0	0	0	519	410	
1	0	0	0	0	518	410	
2	0	0	0	0	519	410	
3	0	0	0	0	519	410	
4	0	0	0	0	521	410	
5	0	0	0	0	523	411	
6	0	0	0	0	527	411	
7	0	0	0	0	531	411	
8	0	0	0	0	535	411	
9	0	0	0	0	537	410	
10	0	0	0	0	539	411	
11	0	0	0	0	538	410	
12	0	0	0	0	537	411	
13	0	0	0	0	535	411	
14	0	0	0	0	533	410	
15	0	0	0	0	529	409	
0	0	0	0	0	524	410	
1	0	0	0	0	519	409	
2	0	0	0	0	514	410	
3	0	0	0	0	511	410	
4	0	0	0	0	509	409	
5	0	0	0	0	509	410	
6	0	0	0	0	511	409	
7	0	0	0	0	514	409	
8	0	0	0	0	518	409	
9	0	0	0	0	521	409	
10	0	0	0	0	525	408	
11	0	0	0	0	530	408	
12	0	0	0	0	534	408	
13	0	0	0	0	536	409	
14	0	0	0	0	537	408	
15	0	0	0	0	538	408	
0	0	0	0	0	538	408	
1	0	0	0	0	536	407	
2	0	0	0	0	534	408	
3	0	0	0	0	531	408	
4	0	0	0	0	526	408	
5	0	0	0	0	520	409	
6	0	0	0	0	515	408	
7	0	0	0	0	512	407	
8	0	0	0	0	511	407	
9	0	0	0	0	510	407	
10	0	0	0	0	511	408	
11	0	0	0	0	512	408	
12	0	0	0	0	514	408	
13	0	0	0	0	517	408	
14	0	0	0	0	521	408	
15	0	0	0	0	526	408	
0	0	0	0	0	530	408	
1	0	0	0	0	533	408	
2	0	0	0	0	535	409	
3	0	0	0	0	535	408	
4	0	0	0	0	534	408	
5	0	0	0	0	531	409	
6	0	0	0	0	529	409	
7	0	0	0	0	526	409	
8	0	0	0	0	521	409	
9	0	0	0	0	516	409	
10	0	0	0	0	511	409	
11	0	0	0	0	508	409	
12	0	0	0	0	505	409	
13	0	0	0	0	504	410	
14	0	0	0	0	505	409	
15	0	0	0	0	507	409	
0	0	0	0	0	510	409	
1	0	0	0	0	513	409	
2	0	0	0	0	518	409	
3	0	0	0	0	523	409	
4	0	0	0	0	527	409	
5	0	0	0	0	531	409	
6	0	0	0	0	532	409	
7	0	0	0	0	533	409	
8	0	0	0	0	532	410	
9	0	0	0	0	529	409	
10	0	0	0	0	527	409	
11	0	0	0	0	524	410	
12	0	0	0	0	519	409	
13	0	0	0	0	514	410	
14	0	0	0	0	509	409	
15	0	0	0	0	506	409	
0	0	0	0	0	504	409	
1	0	0	0	0	502	409	
2	0	0	0	0	503	409	
3	0	0	0	0	505	409	
4	0	0	0	0	508	409	
5	0	0	0	0	512	410	
6	0	0	0	0	517	409	
7	0	0	0	0	523	409	
8	0	0	0	0	528	409	
9	0	0	0	0	531	408	
10	0	0	0	0	535	409	
11	0	0	0	0	537	409	
12	0	0	0	0	537	410	
13	0	0	0	0	536	411	
14	0	0	0	0	534	409	
15	0	0	0	0	531	408	
0	0	0	0	0	526	409	
1	0	0	0	0	521	408	
2	0	0	0	0	517	409	
3	0	0	0	0	514	410	
4	0	0	0	0	513	409	
5	0	0	0	0	512	410	
6	0	0	0	0	512	410	
7	0	0	0	0	514	409	
8	0	0	0	0	515	409	
9	0	0	0	0	518	409	
10	0	0	0	0	520	409	
11	0	0	0	0	525	409	
12	0	0	0	0	529	409	
13	0	0	0	0	531	409	
14	0	0	0	0	532	408	
15	0	0	0	0	532	408	
0	0	0	0	0	532	409	
1	0	0	0	0	531	408	
2	0	0	0	0	528	408	
3	0	0	0	0	524	408	
4	0	0	0	0	518	408	
5	0	0	0	0	512	409	
6	0	0	0	0	508	408	
7	0	0	0	0	506	409	
8	0	0	0	0	506	408	
9	0	0	0	0	507	407	
10	0	0	0	0	508	408	
11	0	0	0	0	510	408	
12	0	0	0	0	513	408	
13	0	0	0	0	517	409	
14	0	0	0	0	521	408	
15	0	0	0	0	527	408	
0	0	0	0	0	531	408	
1	0	0	0	0	534	408	
2	0	0	0	0	536	408	
3	0	0	0	0	536	409	
4	0	0	0	0	535	408	
5	0	0	0	0	534	410	
6	0	0	0	0	531	409	
7	0	0	0	0	528	409	
8	0	0	0	0	524	409	
9	0	0	0	0	519	409	
10	0	0	0	0	516	409	
11	0	0	0	0	514	408	
12	0	0	0	0	513	408	
13	0	0	0	0	513	410	
14	0	0	0	0	514	409	
15	0	0	0	0	516	409	
0	0	0	0	0	519	409	
1	0	0	0	0	522	408	
2	0	0	0	0	526	408	
3	0	0	0	0	531	408	
4	0	0	0	0	535	409	
5	0	0	0	0	538	409	
6	0	0	0	0	540	408	
7	0	0	0	0	540	409	
8	0	0	0	0	540	409	
9	0	0	0	0	538	408	
10	0	0	0	0	535	409	
11	0	0	0	0	532	409	
12	0	0	0	0	527	409	
13	0	0	0	0	521	409	
14	0	0	0	0	515	409	
15	0	0	0	0	512	409	
0	0	0	0	0	509	409	
1	0	0	0	0	507	408	
2	0	0	0	0	507	409	
3	0	0	0	0	508	409	
4	0	0	0	0	510	408	
5	0	0	0	0	512	409	
6	0	0	0	0	518	408	
7	0	0	0	0	524	409	
8	0	0	0	0	528	408	
9	0	0	0	0	532	409	
10	0	0	0	0	535	409	
11	0	0	0	0	536	409	
12	0	0	0	0	536	410	
13	0	0	0	0	536	410	
14	0	0	0	0	534	409	
15	0	0	0	0	532	410	
0	0	0	0	0	527	409	
1	0	0	0	0	523	409	
2	0	0	0	0	519	409	
3	0	0	0	0	516	409	
4	0	0	0	0	514	409	
5	0	0	0	0	513	409	
6	0	0	0	0	514	408	
7	0	0	0	0	514	409	
8	0	0	0	0	515	409	
9	0	0	0	0	517	409	
10	0	0	0	0	519	409	
11	0	0	0	0	523	409	
12	0	0	0	0	524	409	
13	0	0	0	0	526	410	
14	0	0	0	0	526	410	
15	0	0	0	0	526	409	
0	0	0	0	0	524	409	
1	0	0	0	0	522	409	
2	0	0	0	0	519	409	
3	0	0	0	0	515	409	
4	0	0	0	0	510	409	
5	0	0	0	0	505	411	
6	0	0	0	0	500	410	
7	0	0	0	0	497	410	
8	0	0	0	0	495	410	
9	0	0	0	0	493	409	
10	0	0	0	0	495	410	
11	0	0	0	0	496	410	
12	0	0	0	0	499	409	
13	0	0	0	0	500	411	
14	0	0	0	0	504	410	
15	0	0	0	0	508	410	
0	0	0	0	0	512	409	
1	0	0	0	0	515	409	
2	0	0	0	0	517	409	
3	0	0	0	0	517	410	
4	0	0	0	0	516	409	
5	0	0	0	0	515	410	
6	0	0	0	0	513	409	
7	0	0	0	0	510	409	
8	0	0	0	0	504	409	
9	0	0	0	0	499	410	
10	0	0	0	0	493	410	
11	0	0	0	0	490	410	
12	0	0	0	0	487	409	
13	0	0	0	0	486	410	
14	0	0	0	0	486	409	
15	0	0	0	0	488	409	
0	0	0	0	0	491	409	
1	0	0	0	0	493	409	
2	0	0	0	0	497	409	
3	0	0	0	0	502	409	
4	0	0	0	0	506	410	
5	0	0	0	0	509	409	
6	0	0	0	0	510	409	
7	0	0	0	0	511	410	
8	0	0	0	0	511	409	
9	0	0	0	0	509	409	
10	0	0	0	0	507	409	
11	0	0	0	0	504	409	
12	0	0	0	0	500	408	
13	0	0	0	0	495	410	
14	0	0	0	0	492	408	
15	0	0	0	0	488	408	
0	0	0	0	0	486	410	
1	0	0	0	0	485	408	
2	0	0	0	0	485	409	
3	0	0	0	0	486	409	
4	0	0	0	0	488	409	
5	0	0	0	0	493	410	
6	0	0	0	0	498	408	
7	0	0	0	0	504	409	
8	0	0	0	0	509	409	
9	0	0	0	0	512	408	
10	0	0	0	0	514	408	
11	0	0	0	0	513	409	
12	0	0	0	0	512	409	
13	0	0	0	0	509	409	
14	0	0	0	0	505	408	
15	0	0	0	0	501	408	
0	0	0	0	0	496	408	
1	0	0	0	0	490	408	
2	0	0	0	0	486	408	
3	0	0	0	0	483	408	
4	0	0	0	0	482	408	
5	0	0	0	0	482	409	
6	0	0	0	0	483	408	
7	0	0	0	0	486	408	
8	0	0	0	0	489	408	
9	0	0	0	0	492	408	
10	0	0	0	0	496	408	
11	0	0	0	0	501	408	
12	0	0	0	0	506	408	
13	0	0	0	0	509	409	
14	0	0	0	0	511	408	
15	0	0	0	0	511	408	
0	0	0	0	0	512	408	
1	0	0	0	0	511	408	
2	0	0	0	0	510	408	
3	0	0	0	0	508	408	
4	0	0	0	0	504	408	
5	0	0	0	0	498	409	
6	0	0	0	0	494	408	
7	0	0	0	0	490	408	
8	0	0	0	0	487	408	
9	0	0	0	0	486	409	
10	0	0	0	0	487	409	
11	0	0	0	0	488	409	
12	0	0	0	0	491	408	
13	0	0	0	0	494	409	
14	0	0	0	0	497	408	
15	0	0	0	0	502	408	
0	0	0	0	0	506	408	
1	0	0	0	0	509	408	
2	0	0	0	0	512	409	
3	0	0	0	0	512	409	
4	0	0	0	0	511	409	
5	0	0	0	0	510	410	
6	0	0	0	0	509	409	
7	0	0	0	0	506	409	
8	0	0	0	0	501	409	
9	0	0	0	0	496	409	
10	0	0	0	0	491	409	
11	0	0	0	0	488	409	
12	0	0	0	0	487	409	
13	0	0	0	0	487	410	
14	0	0	0	0	489	410	
15	0	0	0	0	491	408	
0	0	0	0	0	494	408	
1	0	0	0	0	498	409	
2	0	0	0	0	504	409	
3	0	0	0	0	511	409	
4	0	0	0	0	515	409	
5	0	0	0	0	520	410	
6	0	0	0	0	524	409	
7	0	0	0	0	525	409	
8	0	0	0	0	525	409	
9	0	0	0	0	524	409	
10	0	0	0	0	524	409	
11	0	0	0	0	521	409	
12	0	0	0	0	518	409	
13	0	0	0	0	514	409	
14	0	0	0	0	510	409	
15	0	0	0	0	507	410	
0	0	0	0	0	505	409	
1	0	0	0	0	506	409	
2	0	0	0	0	507	410	
3	0	0	0	0	508	409	
4	0	0	0	0	512	410	
5	0	0	0	0	515	410	
6	0	0	0	0	520	409	
7	0	0	0	0	527	410	
8	0	0	0	0	532	409	
9	0	0	0	0	536	409	
10	0	0	0	0	538	409	
11	0	0	0	0	538	409	
12	0	0	0	0	537	410	
13	0	0	0	0	535	411	
14	0	0	0	0	534	409	
15	0	0	0	0	533	409	
0	0	0	0	0	529	409	
1	0	0	0	0	526	409	
2	0	0	0	0	522	409	
3	0	0	0	0	519	410	
4	0	0	0	0	518	409	
5	0	0	0	0	517	410	
6	0	0	0	0	518	410	
7	0	0	0	0	519	409	
8	0	0	0	0	521	409	
9	0	0	0	0	524	409	
10	0	0	0	0	528	408	
11	0	0	0	0	534	409	
12	0	0	0	0	537	409	
13	0	0	0	0	540	410	
14	0	0	0	0	541	409	
15	0	0	0	0	540	409	
0	0	0	0	0	537	409	
1	0	0	0	0	535	408	
2	0	0	0	0	531	409	
3	0	0	0	0	527	409	
4	0	0	0	0	520	409	
5	0	0	0	0	515	410	
6	0	0	0	0	510	409	
7	0	0	0	0	507	409	
8	0	0	0	0	506	409	
9	0	0	0	0	507	408	
10	0	0	0	0	508	409	
11	0	0	0	0	511	408	
12	0	0	0	0	514	408	
13	0	0	0	0	518	409	
14	0	0	0	0	523	407	
15	0	0	0	0	528	408	
0	0	0	0	0	533	408	
1	0	0	0	0	536	408	
2	0	0	0	0	539	408	
3	0	0	0	0	540	408	
4	0	0	0	0	540	408	
5	0	0	0	0	539	408	
6	0	0	0	0	537	408	
7	0	0	0	0	534	408	
8	0	0	0	0	530	408	
9	0	0	0	0	525	408	
10	0	0	0	0	520	408	
11	0	0	0	0	517	408	
12	0	0	0	0	515	408	
13	0	0	0	0	513	409	
14	0	0	0	0	513	408	
15	0	0	0	0	513	408	
0	0	0	0	0	515	408	
1	0	0	0	0	516	407	
2	0	0	0	0	521	408	
3	0	0	0	0	525	408	
4	0	0	0	0	529	408	
5	0	0	0	0	531	409	
6	0	0	0	0	532	409	
7	0	0	0	0	532	409	
8	0	0	0	0	531	409	
9	0	0	0	0	529	409	
10	0	0	0	0	527	409	
11	0	0	0	0	524	409	
12	0	0	0	0	520	409	
13	0	0	0	0	516	410	
14	0	0	0	0	512	409	
15	0	0	0	0	511	409	
0	0	0	0	0	510	409	
1	0	0	0	0	510	409	
2	0	0	0	0	511	409	
3	0	0	0	0	513	409	
4	0	0	0	0	516	409	
5	0	0	0	0	520	410	
6	0	0	0	0	524	409	
7	0	0	0	0	530	409	
8	0	0	0	0	535	409	
9	0	0	0	0	539	409	
10	0	0	0	0	542	409	
11	0	0	0	0	542	409	
12	0	0	0	0	541	408	
13	0	0	0	0	540	409	
14	0	0	0	0	537	408	
15	0	0	0	0	534	409	
0	0	0	0	0	529	409	
1	0	0	0	0	524	409	
2	0	0	0	0	521	410	
3	0	0	0	0	519	409	
4	0	0	0	0	519	409	
5	0	0	0	0	519	409	
6	0	0	0	0	522	409	
7	0	0	0	0	525	408	
8	0	0	0	0	528	408	
9	0	0	0	0	533	408	
10	0	0	0	0	537	408	
11	0	0	0	0	544	408	
12	0	0	0	0	548	408	
13	0	0	0	0	552	408	
14	0	0	0	0	555	408	
15	0	0	0	0	556	408	
0	0	0	0	0	556	408	
1	0	0	0	0	556	408	
2	0	0	0	0	554	408	
3	0	0	0	0	551	408	
4	0	0	0	0	546	408	
5	0	0	0	0	540	409	
6	0	0	0	0	535	408	
7	0	0	0	0	530	409	
8	0	0	0	0	527	409	
9	0	0	0	0	525	408	
10	0	0	0	0	526	409	
11	0	0	0	0	526	408	
12	0	0	0	0	527	409	
13	0	0	0	0	529	410	
14	0	0	0	0	532	409	
15	0	0	0	0	537	409	
0	0	0	0	0	542	408	
1	0	0	0	0	544	409	
2	0	0	0	0	547	409	
3	0	0	0	0	547	409	
4	0	0	0	0	546	410	
5	0	0	0	0	544	410	
6	0	0	0	0	540	409	
7	0	0	0	0	536	409	
8	0	0	0	0	530	409	
9	0	0	0	0	525	409	
10	0	0	0	0	520	409	
11	0	0	0	0	516	410	
12	0	0	0	0	514	409	
13	0	0	0	0	513	410	
14	0	0	0	0	514	409	
15	0	0	0	0	515	408	
0	0	0	0	0	515	408	
1	0	0	0	0	517	408	
2	0	0	0	0	519	408	
3	0	0	0	0	524	409	
4	0	0	0	0	527	409	
5	0	0	0	0	529	410	
6	0	0	0	0	530	409	
7	0	0	0	0	531	409	
8	0	0	0	0	531	408	
9	0	0	0	0	529	408	
10	0	0	0	0	527	408	
11	0	0	0	0	525	408	
12	0	0	0	0	522	408	
13	0	0	0	0	518	409	
14	0	0	0	0	514	408	
15	0	0	0	0	512	408	
0	0	0	0	0	511	408	
1	0	0	0	0	511	408	
2	0	0	0	0	511	408	
3	0	0	0	0	512	408	
4	0	0	0	0	513	408	
5	0	0	0	0	515	409	
6	0	0	0	0	519	408	
7	0	0	0	0	524	408	
8	0	0	0	0	527	409	
9	0	0	0	0	531	408	
10	0	0	0	0	534	409	
11	0	0	0	0	534	409	
12	0	0	0	0	533	409	
13	0	0	0	0	531	410	
14	0	0	0	0	528	409	
15	0	0	0	0	524	409	
0	0	0	0	0	518	409	
1	0	0	0	0	512	409	
2	0	0	0	0	508	409	
3	0	0	0	0	504	410	
4	0	0	0	0	502	409	
5	0	0	0	0	500	411	
6	0	0	0	0	501	409	
7	0	0	0	0	501	410	
8	0	0	0	0	502	410	
9	0	0	0	0	504	410	
10	0	0	0	0	507	410	
11	0	0	0	0	512	411	
12	0	0	0	0	515	410	
13	0	0	0	0	518	411	
14	0	0	0	0	520	410	
15	0	0	0	0	519	411	
0	0	0	0	0	519	410	
1	0	0	0	0	516	410	
2	0	0	0	0	514	411	
3	0	0	0	0	512	410	
4	0	0	0	0	509	411	
5	0	0	0	0	505	411	
6	0	0	0	0	504	410	
7	0	0	0	0	505	410	
8	0	0	0	0	507	410	
9	0	0	0	0	511	410	
10	0	0	0	0	518	410	
11	0	0	0	0	526	410	
12	0	0	0	0	534	410	
13	0	0	0	0	543	410	
14	0	0	0	0	555	409	
15	0	0	0	0	567	410	
0	0	0	0	0	577	409	
1	0	0	0	0	587	409	
2	0	0	0	0	596	409	
3	0	0	0	0	602	409	
4	0	0	0	0	608	409	
5	0	0	0	0	611	411	
6	0	0	0	0	615	409	
7	0	0	0	0	619	409	
8	0	0	0	0	619	409	
9	0	0	0	0	619	409	
10	0	0	0	0	620	409	
11	0	0	0	0	623	409	
12	0	0	0	0	627	409	
13	0	0	0	0	631	410	
14	0	0	0	0	637	409	
15	0	0	0	0	643	408	
0	0	0	0	0	650	408	
1	0	0	0	0	655	408	
2	0	0	0	0	661	409	
3	0	0	0	0	665	408	
4	0	0	0	0	667	408	
5	0	0	0	0	666	409	
6	0	0	0	0	662	409	
7	0	0	0	0	654	408	
8	0	0	0	0	644	409	
9	0	0	0	0	632	408	
10	0	0	0	0	619	409	
11	0	0	0	0	604	409	
12	0	0	0	0	587	408	
13	0	0	0	0	569	409	
14	0	0	0	0	554	409	
15	0	0	0	0	542	408	
0	0	0	0	0	531	408	
1	0	0	0	0	523	408	
2	0	0	0	0	517	408	
3	0	0	0	0	512	409	
4	0	0	0	0	508	408	
5	0	0	0	0	506	409	
6	0	0	0	0	506	408	
7	0	0	0	0	507	408	
8	0	0	0	0	507	408	
9	0	0	0	0	506	408	
10	0	0	0	0	504	408	
11	0	0	0	0	501	408	
12	0	0	0	0	497	408	
13	0	0	0	0	493	409	
14	0	0	0	0	487	408	
15	0	0	0	0	482	408	
0	0	0	0	0	475	408	
1	0	0	0	0	468	408	
2	0	0	0	0	462	408	
3	0	0	0	0	457	409	
4	0	0	0	0	454	408	
5	0	0	0	0	452	408	
6	0	0	0	0	452	408	
7	0	0	0	0	453	408	
8	0	0	0	0	455	408	
9	0	0	0	0	459	408	
10	0	0	0	0	463	408	
11	0	0	0	0	467	409	
12	0	0	0	0	472	408	
13	0	0	0	0	474	410	
14	0	0	0	0	476	408	
15	0	0	0	0	476	409	
0	0	0	0	0	475	409	
1	0	0	0	0	473	408	
2	0	0	0	0	472	409	
3	0	0	0	0	470	409	
4	0	0	0	0	467	409	
5	0	0	0	0	463	410	
6	0	0	0	0	460	410	
7	0	0	0	0	459	409	
8	0	0	0	0	458	409	
9	0	0	0	0	460	408	
10	0	0	0	0	462	408	
11	0	0	0	0	465	408	
12	0	0	0	0	469	408	
13	0	0	0	0	473	410	
14	0	0	0	0	478	408	
15	0	0	0	0	483	409	
0	0	0	0	0	489	409	
1	0	0	0	0	492	409	
2	0	0	0	0	494	409	
3	0	0	0	0	495	409	
4	0	0	0	0	495	409	
5	0	0	0	0	494	410	
6	0	0	0	0	492	410	
7	0	0	0	0	489	410	
8	0	0	0	0	484	410	
9	0	0	0	0	479	410	
10	0	0	0	0	474	410	
11	0	0	0	0	470	409	
12	0	0	0	0	469	410	
13	0	0	0	0	469	410	
14	0	0	0	0	470	409	
15	0	0	0	0	472	409	
0	0	0	0	0	473	409	
1	0	0	0	0	476	409	
2	0	0	0	0	480	409	
3	0	0	0	0	484	409	
4	0	0	0	0	488	409	
5	0	0	0	0	491	410	
6	0	0	0	0	493	409	
7	0	0	0	0	494	409	
8	0	0	0	0	494	408	
9	0	0	0	0	493	408	
10	0	0	0	0	491	409	
11	0	0	0	0	489	408	
12	0	0	0	0	486	409	
13	0	0	0	0	481	409	
14	0	0	0	0	478	408	
15	0	0	0	0	476	409	
0	0	0	0	0	475	408	
1	0	0	0	0	476	408	
2	0	0	0	0	477	408	
3	0	0	0	0	479	409	
4	0	0	0	0	481	408	
5	0	0	0	0	484	409	
6	0	0	0	0	489	408	
7	0	0	0	0	494	409	
8	0	0	0	0	498	408	
9	0	0	0	0	501	408	
10	0	0	0	0	502	408	
11	0	0	0	0	504	408	
12	0	0	0	0	504	409	
13	0	0	0	0	503	409	
14	0	0	0	0	502	408	
15	0	0	0	0	500	409	
0	0	0	0	0	496	408	
1	0	0	0	0	492	408	
2	0	0	0	0	489	409	
3	0	0	0	0	487	409	
4	0	0	0	0	486	408	
5	0	0	0	0	484	409	
6	0	0	0	0	485	408	
7	0	0	0	0	486	408	
8	0	0	0	0	488	408	
9	0	0	0	0	491	409	
10	0	0	0	0	496	409	
11	0	0	0	0	500	409	
12	0	0	0	0	503	409	
13	0	0	0	0	506	409	
14	0	0	0	0	508	409	
15	0	0	0	0	507	409	
0	0	0	0	0	507	409	
1	0	0	0	0	506	409	
2	0	0	0	0	504	409	
3	0	0	0	0	500	409	
4	0	0	0	0	496	409	
5	0	0	0	0	491	410	
6	0	0	0	0	488	409	
7	0	0	0	0	486	408	
8	0	0	0	0	486	408	
9	0	0	0	0	486	409	
10	0	0	0	0	488	409	
11	0	0	0	0	490	409	
12	0	0	0	0	493	409	
13	0	0	0	0	496	409	
14	0	0	0	0	502	409	
15	0	0	0	0	507	408	
0	0	0	0	0	511	409	
1	0	0	0	0	515	409	
2	0	0	0	0	516	409	
3	0	0	0	0	517	409	
4	0	0	0	0	516	409	
5	0	0	0	0	515	409	
6	0	0	0	0	512	408	
7	0	0	0	0	508	408	
8	0	0	0	0	504	409	
9	0	0	0	0	499	409	
10	0	0	0	0	495	409	
11	0	0	0	0	491	409	
12	0	0	0	0	489	409	
13	0	0	0	0	488	409	
14	0	0	0	0	487	409	
15	0	0	0	0	488	409	
0	0	0	0	0	490	409	
1	0	0	0	0	493	409	
2	0	0	0	0	497	409	
3	0	0	0	0	503	410	
4	0	0	0	0	507	409	
5	0	0	0	0	511	410	
6	0	0	0	0	512	409	
7	0	0	0	0	512	408	
8	0	0	0	0	511	408	
9	0	0	0	0	509	408	
10	0	0	0	0	507	409	
11	0	0	0	0	503	409	
12	0	0	0	0	497	409	
13	0	0	0	0	493	411	
14	0	0	0	0	489	409	
15	0	0	0	0	487	409	
0	0	0	0	0	487	409	
1	0	0	0	0	487	408	
2	0	0	0	0	490	409	
3	0	0	0	0	492	410	
4	0	0	0	0	495	409	
5	0	0	0	0	499	409	
6	0	0	0	0	504	408	
7	0	0	0	0	509	408	
8	0	0	0	0	513	409	
9	0	0	0	0	515	408	
10	0	0	0	0	516	408	
11	0	0	0	0	516	409	
12	0	0	0	0	515	409	
13	0	0	0	0	512	409	
14	0	0	0	0	511	409	
15	0	0	0	0	508	409	
0	0	0	0	0	504	408	
1	0	0	0	0	498	408	
2	0	0	0	0	494	409	
3	0	0	0	0	491	409	
4	0	0	0	0	490	408	
5	0	0	0	0	489	409	
6	0	0	0	0	490	408	
7	0	0	0	0	492	409	
8	0	0	0	0	495	409	
9	0	0	0	0	499	409	
10	0	0	0	0	504	409	
11	0	0	0	0	510	409	
12	0	0	0	0	515	408	
13	0	0	0	0	519	409	
14	0	0	0	0	521	409	
15	0	0	0	0	523	409	
0	0	0	0	0	523	409	
1	0	0	0	0	521	408	
2	0	0	0	0	519	410	
3	0	0	0	0	516	409	
4	0	0	0	0	512	409	
5	0	0	0	0	507	411	
6	0	0	0	0	504	409	
7	0	0	0	0	502	409	
8	0	0	0	0	500	410	
9	0	0	0	0	500	409	
10	0	0	0	0	501	409	
11	0	0	0	0	502	409	
12	0	0	0	0	503	410	
13	0	0	0	0	505	410	
14	0	0	0	0	508	409	
15	0	0	0	0	512	409	
0	0	0	0	0	515	408	
1	0	0	0	0	516	409	
2	0	0	0	0	517	409	
3	0	0	0	0	517	410	
4	0	0	0	0	516	409	
5	0	0	0	0	514	410	
6	0	0	0	0	511	409	
7	0	0	0	0	508	409	
8	0	0	0	0	504	409	
9	0	0	0	0	499	409	
10	0	0	0	0	494	409	
11	0	0	0	0	492	409	
12	0	0	0	0	491	409	
13	0	0	0	0	491	410	
14	0	0	0	0	492	408	
15	0	0	0	0	495	408	
0	0	0	0	0	498	409	
1	0	0	0	0	501	408	
2	0	0	0	0	507	408	
3	0	0	0	0	513	409	
4	0	0	0	0	518	408	
5	0	0	0	0	523	409	
6	0	0	0	0	526	408	
7	0	0	0	0	528	408	
8	0	0	0	0	529	408	
9	0	0	0	0	530	408	
10	0	0	0	0	529	408	
11	0	0	0	0	527	408	
12	0	0	0	0	524	408	
13	0	0	0	0	521	409	
14	0	0	0	0	518	408	
15	0	0	0	0	517	408	
0	0	0	0	0	516	409	
1	0	0	0	0	516	409	
2	0	0	0	0	517	408	
3	0	0	0	0	519	408	
4	0	0	0	0	521	409	
5	0	0	0	0	525	409	
6	0	0	0	0	530	408	
7	0	0	0	0	535	408	
8	0	0	0	0	539	408	
9	0	0	0	0	542	408	
10	0	0	0	0	544	407	
11	0	0	0	0	544	408	
12	0	0	0	0	543	408	
13	0	0	0	0	541	409	
14	0	0	0	0	539	408	
15	0	0	0	0	536	408	
0	0	0	0	0	530	408	
1	0	0	0	0	524	408	
2	0	0	0	0	520	407	
3	0	0	0	0	516	408	
4	0	0	0	0	514	408	
5	0	0	0	0	513	408	
6	0	0	0	0	513	408	
7	0	0	0	0	514	408	
8	0	0	0	0	515	408	
9	0	0	0	0	519	408	
10	0	0	0	0	523	408	
11	0	0	0	0	527	408	
12	0	0	0	0	530	408	
13	0	0	0	0	532	409	
14	0	0	0	0	534	408	
15	0	0	0	0	533	408	
0	0	0	0	0	531	408	
1	0	0	0	0	529	408	
2	0	0	0	0	527	408	
3	0	0	0	0	523	408	
4	0	0	0	0	519	409	
5	0	0	0	0	512	409	
6	0	0	0	0	508	409	
7	0	0	0	0	505	409	
8	0	0	0	0	504	409	
9	0	0	0	0	504	408	
10	0	0	0	0	505	409	
11	0	0	0	0	507	409	
12	0	0	0	0	509	409	
13	0	0	0	0	512	410	
14	0	0	0	0	516	409	
15	0	0	0	0	521	409	
0	0	0	0	0	526	409	
1	0	0	0	0	529	409	
2	0	0	0	0	530	409	
3	0	0	0	0	531	409	
4	0	0	0	0	530	410	
5	0	0	0	0	529	411	
6	0	0	0	0	526	409	
7	0	0	0	0	523	410	
8	0	0	0	0	518	409	
9	0	0	0	0	513	410	
10	0	0	0	0	510	410	
11	0	0	0	0	508	410	
12	0	0	0	0	506	410	
13	0	0	0	0	507	411	
14	0	0	0	0	509	409	
15	0	0	0	0	512	409	
0	0	0	0	0	515	409	
1	0	0	0	0	519	409	
2	0	0	0	0	523	409	
3	0	0	0	0	528	409	
4	0	0	0	0	532	409	
5	0	0	0	0	535	410	
6	0	0	0	0	536	409	
7	0	0	0	0	535	409	
8	0	0	0	0	534	409	
9	0	0	0	0	531	408	
10	0	0	0	0	529	409	
11	0	0	0	0	526	409	
12	0	0	0	0	520	408	
13	0	0	0	0	515	410	
14	0	0	0	0	511	409	
15	0	0	0	0	508	409	
0	0	0	0	0	506	409	
1	0	0	0	0	505	409	
2	0	0	0	0	506	408	
3	0	0	0	0	508	408	
4	0	0	0	0	510	409	
5	0	0	0	0	513	409	
6	0	0	0	0	518	409	
7	0	0	0	0	524	409	
8	0	0	0	0	528	408	
9	0	0	0	0	531	409	
10	0	0	0	0	533	409	
11	0	0	0	0	533	409	
12	0	0	0	0	533	409	
13	0	0	0	0	531	410	
14	0	0	0	0	529	409	
15	0	0	0	0	526	410	
0	0	0	0	0	521	409	
1	0	0	0	0	517	409	
2	0	0	0	0	513	409	
3	0	0	0	0	512	410	
4	0	0	0	0	511	410	
5	0	0	0	0	511	410	
6	0	0	0	0	512	409	
7	0	0	0	0	513	410	
8	0	0	0	0	516	409	
9	0	0	0	0	520	409	
10	0	0	0	0	526	410	
11	0	0	0	0	530	410	
12	0	0	0	0	534	409	
13	0	0	0	0	536	411	
14	0	0	0	0	537	410	
15	0	0	0	0	536	409	
0	0	0	0	0	535	410	
1	0	0	0	0	532	410	
2	0	0	0	0	529	410	
3	0	0	0	0	526	410	
4	0	0	0	0	521	410	
5	0	0	0	0	515	411	
6	0	0	0	0	510	410	
7	0	0	0	0	508	410	
8	0	0	0	0	506	410	
9	0	0	0	0	506	410	
10	0	0	0	0	508	410	
11	0	0	0	0	508	409	
12	0	0	0	0	511	410	
13	0	0	0	0	513	411	
14	0	0	0	0	516	409	
15	0	0	0	0	522	409	
0	0	0	0	0	527	410	
1	0	0	0	0	529	408	
2	0	0	0	0	531	409	
3	0	0	0	0	532	409	
4	0	0	0	0	531	410	
5	0	0	0	0	528	410	
6	0	0	0	0	526	410	
7	0	0	0	0	522	409	
8	0	0	0	0	518	410	
9	0	0	0	0	512	410	
10	0	0	0	0	508	410	
11	0	0	0	0	505	409	
12	0	0	0	0	503	408	
13	0	0	0	0	502	409	
14	0	0	0	0	503	408	
15	0	0	0	0	505	408	
0	0	0	0	0	508	409	
1	0	0	0	0	510	408	
2	0	0	0	0	515	408	
3	0	0	0	0	519	408	
4	0	0	0	0	523	408	
5	0	0	0	0	526	409	
6	0	0	0	0	529	408	
7	0	0	0	0	529	407	
8	0	0	0	0	528	407	
9	0	0	0	0	527	407	
10	0	0	0	0	524	408	
11	0	0	0	0	521	408	
12	0	0	0	0	515	407	
13	0	0	0	0	510	408	
14	0	0	0	0	507	408	
15	0	0	0	0	504	408	
0	0	0	0	0	503	407	
1	0	0	0	0	502	407	
2	0	0	0	0	502	408	
3	0	0	0	0	503	408	
4	0	0	0	0	504	408	
5	0	0	0	0	506	408	
6	0	0	0	0	509	408	
7	0	0	0	0	513	407	
8	0	0	0	0	515	407	
9	0	0	0	0	517	408	
10	0	0	0	0	518	408	
11	0	0	0	0	517	408	
12	0	0	0	0	515	409	
13	0	0	0	0	513	409	
14	0	0	0	0	510	408	
15	0	0	0	0	507	408	
0	0	0	0	0	501	408	
1	0	0	0	0	495	408	
2	0	0	0	0	489	409	
3	0	0	0	0	485	408	
4	0	0	0	0	483	408	
5	0	0	0	0	482	408	
6	0	0	0	0	483	408	
7	0	0	0	0	484	408	
8	0	0	0	0	486	408	
9	0	0	0	0	489	408	
10	0	0	0	0	493	408	
11	0	0	0	0	498	408	
12	0	0	0	0	502	409	
13	0	0	0	0	506	409	
14	0	0	0	0	508	409	
15	0	0	0	0	509	408	
0	0	0	0	0	508	408	
1	0	0	0	0	507	409	
2	0	0	0	0	506	408	
3	0	0	0	0	504	408	
4	0	0	0	0	499	408	
5	0	0	0	0	494	409	
6	0	0	0	0	490	408	
7	0	0	0	0	487	409	
8	0	0	0	0	485	409	
9	0	0	0	0	484	409	
10	0	0	0	0	484	409	
11	0	0	0	0	486	409	
12	0	0	0	0	488	409	
13	0	0	0	0	492	409	
14	0	0	0	0	496	409	
15	0	0	0	0	501	409	
0	0	0	0	0	506	410	
1	0	0	0	0	509	409	
2	0	0	0	0	511	409	
3	0	0	0	0	512	409	
4	0	0	0	0	511	410	
5	0	0	0	0	510	410	
6	0	0	0	0	507	409	
7	0	0	0	0	504	409	
8	0	0	0	0	500	409	
9	0	0	0	0	496	409	
10	0	0	0	0	493	409	
11	0	0	0	0	492	410	
12	0	0	0	0	491	409	
13	0	0	0	0	491	410	
14	0	0	0	0	491	410	
15	0	0	0	0	493	410	
0	0	0	0	0	497	410	
1	0	0	0	0	502	409	
2	0	0	0	0	508	409	
3	0	0	0	0	513	409	
4	0	0	0	0	519	409	
5	0	0	0	0	523	409	
6	0	0	0	0	526	408	
7	0	0	0	0	526	408	
8	0	0	0	0	525	409	
9	0	0	0	0	524	408	
10	0	0	0	0	523	408	
11	0	0	0	0	519	408	
12	0	0	0	0	515	409	
13	0	0	0	0	510	409	
14	0	0	0	0	505	409	
15	0	0	0	0	502	409	
0	0	0	0	0	499	408	
1	0	0	0	0	497	408	
2	0	0	0	0	496	409	
3	0	0	0	0	497	409	
4	0	0	0	0	498	408	
5	0	0	0	0	500	409	
6	0	0	0	0	504	408	
7	0	0	0	0	508	409	
8	0	0	0	0	511	408	
9	0	0	0	0	513	408	
10	0	0	0	0	515	408	
11	0	0	0	0	515	408	
12	0	0	0	0	512	409	
13	0	0	0	0	510	410	
14	0	0	0	0	507	408	
15	0	0	0	0	504	408	
0	0	0	0	0	499	409	
1	0	0	0	0	494	408	
2	0	0	0	0	490	408	
3	0	0	0	0	488	409	
4	0	0	0	0	487	409	
5	0	0	0	0	487	409	
6	0	0	0	0	488	409	
7	0	0	0	0	490	409	
8	0	0	0	0	494	409	
9	0	0	0	0	496	408	
10	0	0	0	0	501	409	
11	0	0	0	0	507	409	
12	0	0	0	0	511	409	
13	0	0	0	0	513	411	
14	0	0	0	0	515	409	
15	0	0	0	0	515	409	
0	0	0	0	0	515	409	
1	0	0	0	0	513	409	
2	0	0	0	0	512	409	
3	0	0	0	0	509	409	
4	0	0	0	0	505	409	
5	0	0	0	0	500	411	
6	0	0	0	0	496	409	
7	0	0	0	0	494	410	
8	0	0	0	0	492	409	
9	0	0	0	0	492	409	
10	0	0	0	0	493	409	
11	0	0	0	0	494	409	
12	0	0	0	0	496	409	
13	0	0	0	0	499	410	
14	0	0	0	0	503	409	
15	0	0	0	0	508	410	
0	0	0	0	0	511	410	
1	0	0	0	0	514	409	
2	0	0	0	0	515	409	
3	0	0	0	0	515	409	
4	0	0	0	0	514	409	
5	0	0	0	0	513	410	
6	0	0	0	0	511	409	
7	0	0	0	0	508	409	
8	0	0	0	0	503	409	
9	0	0	0	0	497	409	
10	0	0	0	0	492	409	
11	0	0	0	0	488	409	
12	0	0	0	0	486	408	
13	0	0	0	0	486	409	
14	0	0	0	0	486	409	
15	0	0	0	0	487	409	
0	0	0	0	0	488	409	
1	0	0	0	0	492	408	
2	0	0	0	0	496	408	
3	0	0	0	0	500	408	
4	0	0	0	0	504	409	
5	0	0	0	0	508	409	
6	0	0	0	0	509	408	
7	0	0	0	0	509	408	
8	0	0	0	0	508	409	
9	0	0	0	0	506	408	
10	0	0	0	0	504	408	
11	0	0	0	0	499	409	
12	0	0	0	0	495	408	
13	0	0	0	0	490	410	
14	0	0	0	0	487	409	
15	0	0	0	0	486	409	
0	0	0	0	0	486	409	
1	0	0	0	0	486	408	
2	0	0	0	0	487	409	
3	0	0	0	0	489	409	
4	0	0	0	0	492	409	
5	0	0	0	0	495	409	
6	0	0	0	0	499	408	
7	0	0	0	0	505	409	
8	0	0	0	0	509	409	
9	0	0	0	0	512	408	
10	0	0	0	0	514	409	
11	0	0	0	0	515	409	
12	0	0	0	0	515	409	
13	0	0	0	0	513	409	
14	0	0	0	0	511	409	
15	0	0	0	0	509	408	
0	0	0	0	0	505	409	
1	0	0	0	0	502	409	
2	0	0	0	0	499	409	
3	0	0	0	0	496	409	
4	0	0	0	0	496	409	
5	0	0	0	0	496	409	
6	0	0	0	0	499	409	
7	0	0	0	0	502	409	
8	0	0	0	0	505	408	
9	0	0	0	0	511	409	
10	0	0	0	0	516	409	
11	0	0	0	0	523	409	
12	0	0	0	0	527	409	
13	0	0	0	0	530	410	
14	0	0	0	0	532	409	
15	0	0	0	0	531	409	
0	0	0	0	0	529	409	
1	0	0	0	0	526	409	
2	0	0	0	0	523	409	
3	0	0	0	0	519	409	
4	0	0	0	0	513	408	
5	0	0	0	0	507	409	
6	0	0	0	0	502	409	
7	0	0	0	0	498	409	
8	0	0	0	0	496	409	
9	0	0	0	0	496	408	
10	0	0	0	0	497	409	
11	0	0	0	0	499	408	
12	0	0	0	0	502	408	
13	0	0	0	0	505	409	
14	0	0	0	0	509	408	
15	0	0	0	0	514	408	
0	0	0	0	0	518	408	
1	0	0	0	0	520	408	
2	0	0	0	0	523	409	
3	0	0	0	0	523	408	
4	0	0	0	0	523	409	
5	0	0	0	0	521	408	
6	0	0	0	0	519	408	
7	0	0	0	0	516	408	
8	0	0	0	0	513	408	
9	0	0	0	0	509	408	
10	0	0	0	0	505	408	
11	0	0	0	0	502	409	
12	0	0	0	0	500	409	
13	0	0	0	0	500	409	
14	0	0	0	0	499	409	
15	0	0	0	0	500	409	
0	0	0	0	0	502	409	
1	0	0	0	0	504	409	
2	0	0	0	0	507	409	
3	0	0	0	0	511	409	
4	0	0	0	0	515	409	
5	0	0	0	0	519	410	
6	0	0	0	0	520	409	
7	0	0	0	0	521	409	
8	0	0	0	0	521	409	
9	0	0	0	0	520	408	
10	0	0	0	0	517	409	
11	0	0	0	0	515	408	
12	0	0	0	0	510	409	
13	0	0	0	0	504	409	
14	0	0	0	0	500	410	
15	0	0	0	0	496	410	
0	0	0	0	0	494	409	
1	0	0	0	0	492	408	
2	0	0	0	0	493	409	
3	0	0	0	0	494	409	
4	0	0	0	0	496	409	
5	0	0	0	0	499	410	
6	0	0	0	0	503	409	
7	0	0	0	0	507	410	
8	0	0	0	0	511	409	
9	0	0	0	0	513	409	
10	0	0	0	0	514	409	
11	0	0	0	0	514	410	
12	0	0	0	0	513	409	
13	0	0	0	0	511	411	
14	0	0	0	0	508	410	
15	0	0	0	0	505	410	
0	0	0	0	0	500	409	
1	0	0	0	0	495	408	
2	0	0	0	0	492	408	
3	0	0	0	0	489	409	
4	0	0	0	0	489	409	
5	0	0	0	0	489	410	
6	0	0	0	0	491	409	
7	0	0	0	0	493	409	
8	0	0	0	0	496	409	
9	0	0	0	0	500	409	
10	0	0	0	0	504	409	
11	0	0	0	0	510	409	
12	0	0	0	0	514	409	
13	0	0	0	0	517	410	
14	0	0	0	0	519	408	
15	0	0	0	0	519	408	
0	0	0	0	0	517	408	
1	0	0	0	0	515	408	
2	0	0	0	0	512	409	
3	0	0	0	0	508	408	
4	0	0	0	0	501	409	
5	0	0	0	0	496	410	
6	0	0	0	0	490	409	
7	0	0	0	0	486	409	
8	0	0	0	0	484	409	
9	0	0	0	0	482	408	
10	0	0	0	0	482	409	
11	0	0	0	0	484	409	
12	0	0	0	0	486	409	
13	0	0	0	0	489	409	
14	0	0	0	0	494	409	
15	0	0	0	0	499	409	
0	0	0	0	0	504	409	
1	0	0	0	0	507	408	
2	0	0	0	0	510	409	
3	0	0	0	0	511	408	
4	0	0	0	0	512	409	
5	0	0	0	0	512	409	
6	0	0	0	0	512	409	
7	0	0	0	0	511	409	
8	0	0	0	0	508	409	
9	0	0	0	0	504	408	
10	0	0	0	0	500	409	
11	0	0	0	0	498	409	
12	0	0	0	0	497	409	
13	0	0	0	0	497	410	
14	0	0	0	0	499	409	
15	0	0	0	0	502	408	
0	0	0	0	0	505	409	
1	0	0	0	0	508	408	
2	0	0	0	0	513	409	
3	0	0	0	0	517	408	
4	0	0	0	0	520	409	
5	0	0	0	0	524	409	
6	0	0	0	0	526	408	
7	0	0	0	0	526	408	
8	0	0	0	0	526	409	
9	0	0	0	0	525	408	
10	0	0	0	0	524	409	
11	0	0	0	0	520	408	
12	0	0	0	0	515	408	
13	0	0	0	0	510	409	
14	0	0	0	0	505	408	
15	0	0	0	0	502	408	
0	0	0	0	0	500	408	
1	0	0	0	0	500	408	
2	0	0	0	0	502	409	
3	0	0	0	0	504	408	
4	0	0	0	0	507	408	
5	0	0	0	0	511	409	
6	0	0	0	0	516	408	
7	0	0	0	0	522	408	
8	0	0	0	0	527	409	
9	0	0	0	0	530	408	
10	0	0	0	0	532	408	
11	0	0	0	0	532	408	
12	0	0	0	0	531	408	
13	0	0	0	0	529	409	
14	0	0	0	0	527	409	
15	0	0	0	0	524	408	
0	0	0	0	0	518	409	
1	0	0	0	0	513	409	
2	0	0	0	0	507	409	
3	0	0	0	0	504	409	
4	0	0	0	0	501	409	
5	0	0	0	0	501	409	
6	0	0	0	0	502	409	
7	0	0	0	0	503	409	
8	0	0	0	0	505	409	
9	0	0	0	0	508	409	
10	0	0	0	0	512	410	
11	0	0	0	0	518	409	
12	0	0	0	0	522	409	
13	0	0	0	0	525	410	
14	0	0	0	0	527	409	
15	0	0	0	0	528	409	
0	0	0	0	0	528	409	
1	0	0	0	0	529	409	
2	0	0	0	0	529	410	
3	0	0	0	0	528	409	
4	0	0	0	0	528	410	
5	0	0	0	0	528	410	
6	0	0	0	0	529	409	
7	0	0	0	0	532	409	
8	0	0	0	0	538	408	
9	0	0	0	0	545	408	
10	0	0	0	0	553	409	
11	0	0	0	0	561	408	
12	0	0	0	0	571	409	
13	0	0	0	0	581	409	
14	0	0	0	0	592	408	
15	0	0	0	0	605	408	
0	0	0	0	0	616	409	
1	0	0	0	0	626	408	
2	0	0	0	0	635	408	
3	0	0	0	0	640	408	
4	0	0	0	0	643	408	
5	0	0	0	0	644	409	
6	0	0	0	0	646	408	
7	0	0	0	0	647	408	
8	0	0	0	0	646	408	
9	0	0	0	0	645	408	
10	0	0	0	0	644	408	
11	0	0	0	0	643	409	
12	0	0	0	0	643	408	
13	0	0	0	0	643	408	
14	0	0	0	0	644	408	
15	0	0	0	0	644	409	
0	0	0	0	0	643	408	
1	0	0	0	0	641	408	
2	0	0	0	0	640	408	
3	0	0	0	0	638	409	
4	0	0	0	0	634	409	
5	0	0	0	0	627	410	
6	0	0	0	0	619	408	
7	0	0	0	0	609	408	
8	0	0	0	0	598	409	
9	0	0	0	0	587	408	
10	0	0	0	0	574	408	
11	0	0	0	0	561	408	
12	0	0	0	0	547	408	
13	0	0	0	0	534	410	
14	0	0	0	0	523	409	
15	0	0	0	0	514	409	
0	0	0	0	0	507	409	
1	0	0	0	0	501	409	
2	0	0	0	0	496	409	
3	0	0	0	0	493	409	
4	0	0	0	0	491	409	
5	0	0	0	0	490	409	
6	0	0	0	0	491	408	
7	0	0	0	0	492	409	
8	0	0	0	0	492	409	
9	0	0	0	0	491	409	
10	0	0	0	0	490	409	
11	0	0	0	0	487	408	
12	0	0	0	0	485	409	
13	0	0	0	0	481	409	
14	0	0	0	0	478	409	
15	0	0	0	0	473	409	
0	0	0	0	0	468	408	
1	0	0	0	0	463	408	
2	0	0	0	0	458	409	
3	0	0	0	0	455	409	
4	0	0	0	0	452	409	
5	0	0	0	0	451	409	
6	0	0	0	0	453	409	
7	0	0	0	0	456	409	
8	0	0	0	0	460	408	
9	0	0	0	0	463	408	
10	0	0	0	0	468	409	
11	0	0	0	0	474	409	
12	0	0	0	0	478	409	
13	0	0	0	0	481	410	
14	0	0	0	0	483	409	
15	0	0	0	0	483	409	
0	0	0	0	0	482	410	
1	0	0	0	0	481	409	
2	0	0	0	0	480	409	
3	0	0	0	0	477	409	
4	0	0	0	0	473	409	
5	0	0	0	0	467	410	
6	0	0	0	0	465	410	
7	0	0	0	0	463	410	
8	0	0	0	0	462	410	
9	0	0	0	0	461	409	
10	0	0	0	0	462	409	
11	0	0	0	0	464	409	
12	0	0	0	0	468	410	
13	0	0	0	0	472	411	
14	0	0	0	0	478	410	
15	0	0	0	0	484	409	
0	0	0	0	0	489	409	
1	0	0	0	0	493	408	
2	0	0	0	0	496	408	
3	0	0	0	0	497	409	
4	0	0	0	0	496	409	
5	0	0	0	0	496	409	
6	0	0	0	0	494	409	
7	0	0	0	0	492	409	
8	0	0	0	0	488	409	
9	0	0	0	0	483	408	
10	0	0	0	0	480	409	
11	0	0	0	0	479	409	
12	0	0	0	0	478	409	
13	0	0	0	0	478	410	
14	0	0	0	0	479	409	
15	0	0	0	0	481	408	
0	0	0	0	0	484	409	
1	0	0	0	0	487	409	
2	0	0	0	0	492	409	
3	0	0	0	0	498	409	
4	0	0	0	0	504	408	
5	0	0	0	0	507	409	
6	0	0	0	0	510	409	
7	0	0	0	0	511	408	
8	0	0	0	0	511	409	
9	0	0	0	0	510	409	
10	0	0	0	0	507	409	
11	0	0	0	0	504	409	
12	0	0	0	0	499	410	
13	0	0	0	0	494	409	
14	0	0	0	0	489	409	
15	0	0	0	0	486	408	
0	0	0	0	0	483	409	
1	0	0	0	0	483	408	
2	0	0	0	0	484	408	
3	0	0	0	0	486	408	
4	0	0	0	0	489	409	
5	0	0	0	0	494	409	
6	0	0	0	0	499	408	
7	0	0	0	0	507	408	
8	0	0	0	0	511	408	
9	0	0	0	0	513	407	
10	0	0	0	0	514	407	
11	0	0	0	0	513	408	
12	0	0	0	0	512	407	
13	0	0	0	0	510	408	
14	0	0	0	0	506	407	
15	0	0	0	0	502	407	
0	0	0	0	0	497	407	
1	0	0	0	0	490	407	
2	0	0	0	0	484	407	
3	0	0	0	0	480	407	
4	0	0	0	0	477	407	
5	0	0	0	0	475	408	
6	0	0	0	0	475	408	
7	0	0	0	0	475	408	
8	0	0	0	0	476	408	
9	0	0	0	0	479	407	
10	0	0	0	0	483	408	
11	0	0	0	0	489	408	
12	0	0	0	0	494	407	
13	0	0	0	0	499	409	
14	0	0	0	0	503	408	
15	0	0	0	0	505	408	
0	0	0	0	0	506	409	
1	0	0	0	0	505	408	
2	0	0	0	0	504	409	
3	0	0	0	0	502	409	
4	0	0	0	0	499	409	
5	0	0	0	0	494	409	
6	0	0	0	0	492	409	
7	0	0	0	0	490	409	
8	0	0	0	0	489	409	
9	0	0	0	0	490	409	
10	0	0	0	0	491	410	
11	0	0	0	0	492	409	
12	0	0	0	0	494	410	
13	0	0	0	0	496	410	
14	0	0	0	0	500	409	
15	0	0	0	0	505	410	
0	0	0	0	0	509	410	
1	0	0	0	0	512	409	
2	0	0	0	0	512	409	
3	0	0	0	0	512	409	
4	0	0	0	0	511	409	
5	0	0	0	0	509	410	
6	0	0	0	0	505	409	
7	0	0	0	0	502	409	
8	0	0	0	0	496	409	
9	0	0	0	0	491	409	
10	0	0	0	0	486	409	
11	0	0	0	0	483	409	
12	0	0	0	0	481	409	
13	0	0	0	0	481	410	
14	0	0	0	0	483	409	
15	0	0	0	0	485	409	
0	0	0	0	0	487	408	
1	0	0	0	0	491	408	
2	0	0	0	0	496	408	
3	0	0	0	0	501	409	
4	0	0	0	0	505	409	
5	0	0	0	0	509	410	
6	0	0	0	0	511	409	
7	0	0	0	0	511	409	
8	0	0	0	0	509	409	
9	0	0	0	0	506	409	
10	0	0	0	0	504	410	
11	0	0	0	0	500	409	
12	0	0	0	0	496	409	
13	0	0	0	0	492	411	
14	0	0	0	0	489	410	
15	0	0	0	0	487	410	
0	0	0	0	0	485	409	
1	0	0	0	0	485	409	
2	0	0	0	0	487	409	
3	0	0	0	0	489	409	
4	0	0	0	0	492	409	
5	0	0	0	0	496	409	
6	0	0	0	0	502	409	
7	0	0	0	0	507	409	
8	0	0	0	0	511	409	
9	0	0	0	0	513	409	
10	0	0	0	0	514	409	
11	0	0	0	0	514	409	
12	0	0	0	0	513	409	
13	0	0	0	0	512	409	
14	0	0	0	0	509	409	
15	0	0	0	0	505	408	
0	0	0	0	0	500	409	
1	0	0	0	0	495	409	
2	0	0	0	0	490	409	
3	0	0	0	0	488	409	
4	0	0	0	0	486	409	
5	0	0	0	0	486	410	
6	0	0	0	0	486	410	
7	0	0	0	0	487	409	
8	0	0	0	0	489	410	
9	0	0	0	0	492	409	
10	0	0	0	0	496	410	
11	0	0	0	0	502	409	
12	0	0	0	0	506	410	
13	0	0	0	0	509	410	
14	0	0	0	0	511	410	
15	0	0	0	0	511	409	
0	0	0	0	0	512	410	
1	0	0	0	0	511	409	
2	0	0	0	0	508	410	
3	0	0	0	0	506	409	
4	0	0	0	0	502	409	
5	0	0	0	0	497	410	
6	0	0	0	0	493	408	
7	0	0	0	0	491	409	
8	0	0	0	0	489	409	
9	0	0	0	0	489	409	
10	0	0	0	0	490	410	
11	0	0	0	0	492	409	
12	0	0	0	0	494	409	
13	0	0	0	0	498	410	
14	0	0	0	0	503	409	
15	0	0	0	0	508	410	
0	0	0	0	0	511	410	
1	0	0	0	0	513	409	
2	0	0	0	0	515	409	
3	0	0	0	0	515	409	
4	0	0	0	0	514	409	
5	0	0	0	0	511	411	
6	0	0	0	0	508	410	
7	0	0	0	0	503	409	
8	0	0	0	0	497	410	
9	0	0	0	0	492	409	
10	0	0	0	0	487	409	
11	0	0	0	0	485	409	
12	0	0	0	0	484	409	
13	0	0	0	0	485	409	
14	0	0	0	0	489	409	
15	0	0	0	0	492	408	
0	0	0	0	0	494	408	
1	0	0	0	0	499	408	
2	0	0	0	0	503	408	
3	0	0	0	0	508	408	
4	0	0	0	0	512	408	
5	0	0	0	0	515	409	
6	0	0	0	0	516	409	
7	0	0	0	0	517	409	
8	0	0	0	0	516	409	
9	0	0	0	0	513	408	
10	0	0	0	0	511	408	
11	0	0	0	0	508	408	
12	0	0	0	0	503	408	
13	0	0	0	0	498	409	
14	0	0	0	0	495	408	
15	0	0	0	0	493	408	
0	0	0	0	0	491	408	
1	0	0	0	0	491	408	
2	0	0	0	0	492	408	
3	0	0	0	0	494	409	
4	0	0	0	0	496	409	
5	0	0	0	0	499	410	
6	0	0	0	0	504	408	
7	0	0	0	0	511	409	
8	0	0	0	0	515	409	
9	0	0	0	0	519	409	
10	0	0	0	0	521	409	
11	0	0	0	0	521	409	
12	0	0	0	0	520	409	
13	0	0	0	0	518	410	
14	0	0	0	0	515	409	
15	0	0	0	0	512	409	
0	0	0	0	0	506	409	
1	0	0	0	0	501	409	
2	0	0	0	0	496	409	
3	0	0	0	0	492	409	
4	0	0	0	0	489	409	
5	0	0	0	0	488	410	
6	0	0	0	0	490	409	
7	0	0	0	0	491	408	
8	0	0	0	0	495	408	
9	0	0	0	0	498	409	
10	0	0	0	0	503	409	
11	0	0	0	0	509	408	
12	0	0	0	0	513	408	
13	0	0	0	0	517	409	
14	0	0	0	0	519	409	
15	0	0	0	0	520	409	
0	0	0	0	0	519	409	
1	0	0	0	0	517	408	
2	0	0	0	0	515	408	
3	0	0	0	0	512	408	
4	0	0	0	0	509	407	
5	0	0	0	0	505	408	
6	0	0	0	0	503	408	
7	0	0	0	0	502	408	
8	0	0	0	0	503	408	
9	0	0	0	0	504	408	
10	0	0	0	0	506	409	
11	0	0	0	0	509	408	
12	0	0	0	0	512	408	
13	0	0	0	0	516	410	
14	0	0	0	0	520	408	
15	0	0	0	0	526	409	
0	0	0	0	0	530	408	
1	0	0	0	0	534	408	
2	0	0	0	0	537	408	
3	0	0	0	0	539	408	
4	0	0	0	0	539	408	
5	0	0	0	0	537	409	
6	0	0	0	0	535	408	
7	0	0	0	0	531	408	
8	0	0	0	0	526	409	
9	0	0	0	0	521	408	
10	0	0	0	0	516	408	
11	0	0	0	0	512	408	
12	0	0	0	0	511	408	
13	0	0	0	0	510	409	
14	0	0	0	0	510	408	
15	0	0	0	0	512	409	
0	0	0	0	0	514	408	
1	0	0	0	0	517	408	
2	0	0	0	0	522	408	
3	0	0	0	0	527	409	
4	0	0	0	0	530	408	
5	0	0	0	0	533	409	
6	0	0	0	0	534	408	
7	0	0	0	0	533	409	
8	0	0	0	0	532	409	
9	0	0	0	0	529	408	
10	0	0	0	0	525	408	
11	0	0	0	0	521	408	
12	0	0	0	0	516	408	
13	0	0	0	0	510	409	
14	0	0	0	0	504	409	
15	0	0	0	0	501	408	
0	0	0	0	0	498	408	
1	0	0	0	0	496	408	
2	0	0	0	0	496	408	
3	0	0	0	0	497	408	
4	0	0	0	0	499	409	
5	0	0	0	0	502	409	
6	0	0	0	0	505	409	
7	0	0	0	0	510	409	
8	0	0	0	0	513	409	
9	0	0	0	0	516	408	
10	0	0	0	0	517	409	
11	0	0	0	0	516	409	
12	0	0	0	0	514	409	
13	0	0	0	0	512	410	
14	0	0	0	0	509	409	
15	0	0	0	0	506	409	
0	0	0	0	0	502	409	
1	0	0	0	0	497	409	
2	0	0	0	0	494	409	
3	0	0	0	0	493	409	
4	0	0	0	0	494	409	
5	0	0	0	0	494	410	
6	0	0	0	0	496	410	
7	0	0	0	0	497	409	
8	0	0	0	0	499	409	
9	0	0	0	0	502	409	
10	0	0	0	0	506	409	
11	0	0	0	0	511	410	
12	0	0	0	0	516	409	
13	0	0	0	0	519	410	
14	0	0	0	0	520	410	
15	0	0	0	0	520	409	
0	0	0	0	0	519	410	
1	0	0	0	0	518	410	
2	0	0	0	0	516	409	
3	0	0	0	0	513	410	
4	0	0	0	0	509	410	
5	0	0	0	0	504	411	
6	0	0	0	0	499	409	
7	0	0	0	0	496	409	
8	0	0	0	0	493	410	
9	0	0	0	0	492	410	
10	0	0	0	0	492	409	
11	0	0	0	0	493	410	
12	0	0	0	0	495	409	
13	0	0	0	0	498	410	
14	0	0	0	0	502	409	
15	0	0	0	0	507	409	
0	0	0	0	0	510	409	
1	0	0	0	0	512	409	
2	0	0	0	0	513	409	
3	0	0	0	0	514	409	
4	0	0	0	0	514	408	
5	0	0	0	0	512	409	
6	0	0	0	0	509	408	
7	0	0	0	0	506	408	
8	0	0	0	0	501	409	
9	0	0	0	0	496	409	
10	0	0	0	0	490	409	
11	0	0	0	0	487	409	
12	0	0	0	0	484	409	
13	0	0	0	0	482	409	
14	0	0	0	0	482	409	
15	0	0	0	0	483	409	
0	0	0	0	0	485	408	
1	0	0	0	0	488	408	
2	0	0	0	0	492	409	
3	0	0	0	0	497	409	
4	0	0	0	0	502	409	
5	0	0	0	0	504	410	
6	0	0	0	0	505	409	
7	0	0	0	0	504	409	
8	0	0	0	0	503	409	
9	0	0	0	0	500	409	
10	0	0	0	0	498	409	
11	0	0	0	0	495	409	
12	0	0	0	0	490	409	
13	0	0	0	0	484	410	
14	0	0	0	0	479	409	
15	0	0	0	0	476	408	
0	0	0	0	0	474	409	
1	0	0	0	0	473	408	
2	0	0	0	0	474	409	
3	0	0	0	0	476	408	
4	0	0	0	0	479	408	
5	0	0	0	0	482	409	
6	0	0	0	0	487	408	
7	0	0	0	0	492	408	
8	0	0	0	0	496	408	
9	0	0	0	0	500	408	
10	0	0	0	0	502	409	
11	0	0	0	0	502	409	
12	0	0	0	0	500	409	
13	0	0	0	0	498	409	
14	0	0	0	0	495	409	
15	0	0	0	0	492	409	
0	0	0	0	0	486	409	
1	0	0	0	0	480	408	
2	0	0	0	0	476	409	
3	0	0	0	0	473	409	
4	0	0	0	0	472	409	
5	0	0	0	0	471	409	
6	0	0	0	0	472	409	
7	0	0	0	0	474	409	
8	0	0	0	0	476	409	
9	0	0	0	0	479	409	
10	0	0	0	0	484	409	
11	0	0	0	0	489	409	
12	0	0	0	0	494	409	
13	0	0	0	0	497	410	
14	0	0	0	0	499	409	
15	0	0	0	0	500	409	
0	0	0	0	0	501	409	
1	0	0	0	0	501	409	
2	0	0	0	0	500	409	
3	0	0	0	0	499	409	
4	0	0	0	0	497	409	
5	0	0	0	0	494	410	
6	0	0	0	0	491	409	
7	0	0	0	0	491	409	
8	0	0	0	0	490	409	
9	0	0	0	0	491	408	
10	0	0	0	0	493	409	
11	0	0	0	0	496	409	
12	0	0	0	0	499	408	
13	0	0	0	0	504	409	
14	0	0	0	0	509	408	
15	0	0	0	0	514	409	
0	0	0	0	0	519	408	
1	0	0	0	0	522	408	
2	0	0	0	0	524	409	
3	0	0	0	0	524	409	
4	0	0	0	0	523	408	
5	0	0	0	0	521	409	
6	0	0	0	0	519	409	
7	0	0	0	0	516	409	
8	0	0	0	0	511	409	
9	0	0	0	0	507	408	
10	0	0	0	0	504	408	
11	0	0	0	0	502	409	
12	0	0	0	0	501	408	
13	0	0	0	0	501	410	
14	0	0	0	0	504	409	
15	0	0	0	0	507	409	
0	0	0	0	0	510	409	
1	0	0	0	0	515	408	
2	0	0	0	0	521	409	
3	0	0	0	0	527	409	
4	0	0	0	0	533	409	
5	0	0	0	0	537	409	
6	0	0	0	0	540	408	
7	0	0	0	0	540	408	
8	0	0	0	0	539	408	
9	0	0	0	0	539	408	
10	0	0	0	0	536	408	
11	0	0	0	0	532	408	
12	0	0	0	0	527	408	
13	0	0	0	0	522	409	
14	0	0	0	0	517	408	
15	0	0	0	0	515	408	
0	0	0	0	0	514	408	
1	0	0	0	0	514	408	
2	0	0	0	0	515	408	
3	0	0	0	0	517	408	
4	0	0	0	0	519	408	
5	0	0	0	0	522	408	
6	0	0	0	0	526	408	
7	0	0	0	0	531	408	
8	0	0	0	0	535	407	
9	0	0	0	0	538	407	
10	0	0	0	0	540	408	
11	0	0	0	0	540	408	
12	0	0	0	0	538	408	
13	0	0	0	0	536	408	
14	0	0	0	0	534	408	
15	0	0	0	0	530	409	
0	0	0	0	0	524	408	
1	0	0	0	0	518	408	
2	0	0	0	0	512	409	
3	0	0	0	0	508	409	
4	0	0	0	0	505	409	
5	0	0	0	0	504	409	
6	0	0	0	0	505	409	
7	0	0	0	0	506	409	
8	0	0	0	0	508	408	
9	0	0	0	0	511	408	
10	0	0	0	0	516	408	
11	0	0	0	0	523	408	
12	0	0	0	0	527	409	
13	0	0	0	0	531	410	
14	0	0	0	0	532	408	
15	0	0	0	0	532	409	
0	0	0	0	0	532	409	
1	0	0	0	0	531	409	
2	0	0	0	0	528	410	
3	0	0	0	0	525	409	
4	0	0	0	0	521	409	
5	0	0	0	0	515	410	
6	0	0	0	0	510	409	
7	0	0	0	0	507	409	
8	0	0	0	0	504	408	
9	0	0	0	0	504	408	
10	0	0	0	0	504	409	
11	0	0	0	0	506	409	
12	0	0	0	0	509	409	
13	0	0	0	0	512	410	
14	0	0	0	0	517	409	
15	0	0	0	0	522	409	
0	0	0	0	0	526	409	
1	0	0	0	0	529	409	
2	0	0	0	0	530	410	
3	0	0	0	0	530	409	
4	0	0	0	0	529	409	
5	0	0	0	0	527	410	
6	0	0	0	0	526	409	
7	0	0	0	0	523	409	
8	0	0	0	0	518	409	
9	0	0	0	0	513	409	
10	0	0	0	0	508	409	
11	0	0	0	0	505	409	
12	0	0	0	0	503	409	
13	0	0	0	0	502	410	
14	0	0	0	0	502	409	
15	0	0	0	0	502	409	
0	0	0	0	0	504	408	
1	0	0	0	0	508	409	
2	0	0	0	0	513	409	
3	0	0	0	0	520	409	
4	0	0	0	0	524	409	
5	0	0	0	0	529	410	
6	0	0	0	0	533	409	
7	0	0	0	0	534	409	
8	0	0	0	0	535	409	
9	0	0	0	0	534	409	
10	0	0	0	0	532	409	
11	0	0	0	0	530	409	
12	0	0	0	0	526	409	
13	0	0	0	0	522	410	
14	0	0	0	0	519	409	
15	0	0	0	0	517	409	
0	0	0	0	0	515	409	
1	0	0	0	0	515	408	
2	0	0	0	0	516	408	
3	0	0	0	0	517	408	
4	0	0	0	0	519	408	
5	0	0	0	0	520	409	
6	0	0	0	0	524	409	
7	0	0	0	0	528	408	
8	0	0	0	0	532	408	
9	0	0	0	0	535	408	
10	0	0	0	0	537	408	
11	0	0	0	0	539	408	
12	0	0	0	0	539	408	
13	0	0	0	0	539	409	
14	0	0	0	0	537	409	
15	0	0	0	0	534	409	
0	0	0	0	0	528	408	
1	0	0	0	0	523	409	
2	0	0	0	0	517	410	
3	0	0	0	0	513	409	
4	0	0	0	0	511	409	
5	0	0	0	0	510	410	
6	0	0	0	0	509	410	
7	0	0	0	0	510	409	
8	0	0	0	0	511	409	
9	0	0	0	0	513	409	
10	0	0	0	0	516	409	
11	0	0	0	0	520	410	
12	0	0	0	0	524	409	
13	0	0	0	0	527	410	
14	0	0	0	0	528	408	
15	0	0	0	0	528	409	
0	0	0	0	0	527	409	
1	0	0	0	0	524	408	
2	0	0	0	0	520	409	
3	0	0	0	0	517	409	
4	0	0	0	0	511	408	
5	0	0	0	0	506	411	
6	0	0	0	0	501	410	
7	0	0	0	0	498	410	
8	0	0	0	0	497	410	
9	0	0	0	0	497	409	
10	0	0	0	0	498	409	
11	0	0	0	0	501	409	
12	0	0	0	0	504	410	
13	0	0	0	0	508	410	
14	0	0	0	0	513	409	
15	0	0	0	0	519	409	
0	0	0	0	0	523	410	
1	0	0	0	0	527	409	
2	0	0	0	0	529	409	
3	0	0	0	0	530	409	
4	0	0	0	0	528	408	
5	0	0	0	0	527	410	
6	0	0	0	0	524	409	
7	0	0	0	0	521	409	
8	0	0	0	0	516	409	
9	0	0	0	0	510	409	
10	0	0	0	0	505	409	
11	0	0	0	0	503	410	
12	0	0	0	0	500	409	
13	0	0	0	0	501	410	
14	0	0	0	0	502	409	
15	0	0	0	0	503	409	
0	0	0	0	0	505	409	
1	0	0	0	0	508	410	
2	0	0	0	0	512	409	
3	0	0	0	0	516	409	
4	0	0	0	0	520	408	
5	0	0	0	0	521	409	
6	0	0	0	0	521	408	
7	0	0	0	0	521	408	
8	0	0	0	0	519	409	
9	0	0	0	0	516	408	
10	0	0	0	0	514	409	
11	0	0	0	0	511	409	
12	0	0	0	0	506	408	
13	0	0	0	0	500	409	
14	0	0	0	0	496	408	
15	0	0	0	0	492	409	
0	0	0	0	0	490	409	
1	0	0	0	0	488	408	
2	0	0	0	0	488	409	
3	0	0	0	0	489	409	
4	0	0	0	0	491	408	
5	0	0	0	0	495	409	
6	0	0	0	0	499	409	
7	0	0	0	0	504	409	
8	0	0	0	0	508	409	
9	0	0	0	0	512	409	
10	0	0	0	0	514	409	
11	0	0	0	0	515	408	
12	0	0	0	0	515	409	
13	0	0	0	0	513	409	
14	0	0	0	0	511	408	
15	0	0	0	0	508	408	
0	0	0	0	0	503	408	
1	0	0	0	0	497	408	
2	0	0	0	0	493	408	
3	0	0	0	0	490	408	
4	0	0	0	0	488	408	
5	0	0	0	0	487	409	
6	0	0	0	0	487	408	
7	0	0	0	0	489	408	
8	0	0	0	0	492	408	
9	0	0	0	0	495	408	
10	0	0	0	0	500	408	
11	0	0	0	0	506	408	
12	0	0	0	0	510	407	
13	0	0	0	0	512	408	
14	0	0	0	0	515	408	
15	0	0	0	0	515	408	
0	0	0	0	0	515	408	
1	0	0	0	0	513	408	
2	0	0	0	0	511	408	
3	0	0	0	0	508	408	
4	0	0	0	0	503	408	
5	0	0	0	0	497	409	
6	0	0	0	0	493	409	
7	0	0	0	0	489	408	
8	0	0	0	0	488	408	
9	0	0	0	0	487	408	
10	0	0	0	0	487	408	
11	0	0	0	0	489	409	
12	0	0	0	0	492	408	
13	0	0	0	0	494	409	
14	0	0	0	0	499	408	
15	0	0	0	0	504	408	
0	0	0	0	0	509	408	
1	0	0	0	0	513	408	
2	0	0	0	0	514	408	
3	0	0	0	0	514	409	
4	0	0	0	0	514	408	
5	0	0	0	0	512	409	
6	0	0	0	0	510	409	
7	0	0	0	0	506	409	
8	0	0	0	0	501	409	
9	0	0	0	0	496	409	
10	0	0	0	0	492	409	
11	0	0	0	0	489	409	
12	0	0	0	0	489	408	
13	0	0	0	0	489	410	
14	0	0	0	0	490	409	
15	0	0	0	0	492	409	
0	0	0	0	0	495	409	
1	0	0	0	0	499	408	
2	0	0	0	0	505	408	
3	0	0	0	0	510	409	
4	0	0	0	0	513	409	
5	0	0	0	0	517	409	
6	0	0	0	0	519	408	
7	0	0	0	0	519	409	
8	0	0	0	0	519	408	
9	0	0	0	0	516	408	
10	0	0	0	0	513	409	
11	0	0	0	0	511	409	
12	0	0	0	0	507	409	
13	0	0	0	0	502	409	
14	0	0	0	0	499	409	
15	0	0	0	0	496	409	
0	0	0	0	0	496	409	
1	0	0	0	0	496	409	
2	0	0	0	0	497	409	
3	0	0	0	0	499	409	
4	0	0	0	0	502	410	
5	0	0	0	0	504	410	
6	0	0	0	0	508	409	
7	0	0	0	0	511	409	
8	0	0	0	0	514	409	
9	0	0	0	0	515	409	
10	0	0	0	0	515	409	
11	0	0	0	0	513	409	
12	0	0	0	0	511	410	
13	0	0	0	0	509	410	
14	0	0	0	0	506	409	
15	0	0	0	0	502	409	
0	0	0	0	0	497	410	
1	0	0	0	0	492	409	
2	0	0	0	0	488	410	
3	0	0	0	0	485	409	
4	0	0	0	0	484	409	
5	0	0	0	0	483	410	
6	0	0	0	0	483	409	
7	0	0	0	0	484	409	
8	0	0	0	0	485	409	
9	0	0	0	0	489	409	
10	0	0	0	0	495	409	
11	0	0	0	0	502	409	
12	0	0	0	0	509	409	
13	0	0	0	0	517	410	
14	0	0	0	0	524	409	
15	0	0	0	0	532	410	
0	0	0	0	0	539	409	
1	0	0	0	0	545	409	
2	0	0	0	0	551	409	
3	0	0	0	0	557	409	
4	0	0	0	0	560	410	
5	0	0	0	0	563	410	
6	0	0	0	0	567	409	
7	0	0	0	0	572	409	
8	0	0	0	0	580	409	
9	0	0	0	0	588	409	
10	0	0	0	0	599	409	
11	0	0	0	0	609	410	
12	0	0	0	0	618	410	
13	0	0	0	0	627	410	
14	0	0	0	0	637	409	
15	0	0	0	0	647	409	
0	0	0	0	0	655	409	
1	0	0	0	0	662	409	
2	0	0	0	0	666	409	
3	0	0	0	0	667	409	
4	0	0	0	0	666	409	
5	0	0	0	0	663	410	
6	0	0	0	0	660	409	
7	0	0	0	0	655	409	
8	0	0	0	0	647	408	
9	0	0	0	0	637	409	
10	0	0	0	0	628	409	
11	0	0	0	0	620	409	
12	0	0	0	0	613	409	
13	0	0	0	0	605	409	
14	0	0	0	0	599	409	
15	0	0	0	0	592	409	
0	0	0	0	0	585	409	
1	0	0	0	0	578	409	
2	0	0	0	0	572	409	
3	0	0	0	0	567	409	
4	0	0	0	0	560	409	
5	0	0	0	0	554	409	
6	0	0	0	0	547	408	
7	0	0	0	0	540	409	
8	0	0	0	0	531	408	
9	0	0	0	0	523	408	
10	0	0	0	0	515	409	
11	0	0	0	0	506	409	
12	0	0	0	0	496	409	
13	0	0	0	0	487	409	
14	0	0	0	0	478	408	
15	0	0	0	0	471	408	
0	0	0	0	0	465	408	
1	0	0	0	0	462	408	
2	0	0	0	0	460	409	
3	0	0	0	0	459	409	
4	0	0	0	0	458	409	
5	0	0	0	0	459	408	
6	0	0	0	0	461	408	
7	0	0	0	0	464	408	
8	0	0	0	0	467	408	
9	0	0	0	0	468	408	
10	0	0	0	0	467	408	
11	0	0	0	0	465	408	
12	0	0	0	0	463	408	
13	0	0	0	0	460	408	
14	0	0	0	0	457	408	
15	0	0	0	0	453	408	
0	0	0	0	0	448	408	
1	0	0	0	0	442	408	
2	0	0	0	0	437	408	
3	0	0	0	0	434	408	
4	0	0	0	0	433	408	
5	0	0	0	0	433	408	
6	0	0	0	0	433	407	
7	0	0	0	0	435	407	
8	0	0	0	0	437	407	
9	0	0	0	0	441	407	
10	0	0	0	0	447	408	
11	0	0	0	0	452	408	
12	0	0	0	0	456	408	
13	0	0	0	0	460	408	
14	0	0	0	0	462	408	
15	0	0	0	0	463	407	
0	0	0	0	0	462	407	
1	0	0	0	0	460	408	
2	0	0	0	0	459	408	
3	0	0	0	0	457	408	
4	0	0	0	0	452	408	
5	0	0	0	0	448	409	
6	0	0	0	0	444	408	
7	0	0	0	0	443	408	
8	0	0	0	0	442	408	
9	0	0	0	0	443	408	
10	0	0	0	0	445	409	
11	0	0	0	0	448	408	
12	0	0	0	0	451	408	
13	0	0	0	0	455	409	
14	0	0	0	0	460	408	
15	0	0	0	0	465	408	
0	0	0	0	0	469	408	
1	0	0	0	0	472	408	
2	0	0	0	0	474	408	
3	0	0	0	0	474	408	
4	0	0	0	0	473	408	
5	0	0	0	0	471	408	
6	0	0	0	0	469	408	
7	0	0	0	0	465	408	
8	0	0	0	0	461	409	
9	0	0	0	0	456	408	
10	0	0	0	0	452	408	
11	0	0	0	0	450	408	
12	0	0	0	0	449	408	
13	0	0	0	0	449	409	
14	0	0	0	0	450	408	
15	0	0	0	0	452	408	
0	0	0	0	0	454	409	
1	0	0	0	0	457	408	
2	0	0	0	0	461	408	
3	0	0	0	0	465	408	
4	0	0	0	0	470	408	
5	0	0	0	0	473	409	
6	0	0	0	0	475	408	
7	0	0	0	0	476	408	
8	0	0	0	0	475	408	
9	0	0	0	0	474	408	
10	0	0	0	0	472	408	
11	0	0	0	0	470	409	
12	0	0	0	0	467	409	
13	0	0	0	0	463	409	
14	0	0	0	0	460	408	
15	0	0	0	0	460	408	
0	0	0	0	0	459	408	
1	0	0	0	0	461	408	
2	0	0	0	0	464	408	
3	0	0	0	0	467	408	
4	0	0	0	0	471	409	
5	0	0	0	0	475	409	
6	0	0	0	0	480	408	
7	0	0	0	0	485	409	
8	0	0	0	0	489	408	
9	0	0	0	0	493	408	
10	0	0	0	0	496	409	
11	0	0	0	0	497	409	
12	0	0	0	0	497	408	
13	0	0	0	0	497	409	
14	0	0	0	0	497	409	
15	0	0	0	0	494	409	
0	0	0	0	0	491	409	
1	0	0	0	0	486	409	
2	0	0	0	0	483	409	
3	0	0	0	0	481	409	
4	0	0	0	0	480	409	
5	0	0	0	0	481	410	
6	0	0	0	0	483	409	
7	0	0	0	0	484	408	
8	0	0	0	0	486	409	
9	0	0	0	0	489	409	
10	0	0	0	0	493	409	
11	0	0	0	0	497	411	
12	0	0	0	0	501	410	
13	0	0	0	0	504	411	
14	0	0	0	0	506	411	
15	0	0	0	0	507	410	
0	0	0	0	0	505	410	
1	0	0	0	0	504	410	
2	0	0	0	0	501	411	
3	0	0	0	0	498	411	
4	0	0	0	0	493	411	
5	0	0	0	0	488	412	
6	0	0	0	0	484	411	
7	0	0	0	0	481	411	
8	0	0	0	0	480	411	
9	0	0	0	0	480	410	
10	0	0	0	0	481	411	
11	0	0	0	0	483	411	
12	0	0	0	0	485	410	
13	0	0	0	0	488	411	
14	0	0	0	0	492	410	
15	0	0	0	0	497	410	
0	0	0	0	0	501	409	
1	0	0	0	0	504	409	
2	0	0	0	0	506	410	
3	0	0	0	0	506	409	
4	0	0	0	0	505	409	
5	0	0	0	0	504	410	
6	0	0	0	0	501	409	
7	0	0	0	0	497	409	
8	0	0	0	0	492	409	
9	0	0	0	0	486	409	
10	0	0	0	0	482	409	
11	0	0	0	0	479	408	
12	0	0	0	0	477	408	
13	0	0	0	0	477	409	
14	0	0	0	0	478	409	
15	0	0	0	0	479	409	
0	0	0	0	0	482	409	
1	0	0	0	0	486	409	
2	0	0	0	0	491	409	
3	0	0	0	0	496	409	
4	0	0	0	0	500	409	
5	0	0	0	0	503	410	
6	0	0	0	0	504	409	
7	0	0	0	0	504	409	
8	0	0	0	0	503	409	
9	0	0	0	0	500	409	
10	0	0	0	0	497	409	
11	0	0	0	0	494	409	
12	0	0	0	0	489	409	
13	0	0	0	0	483	410	
14	0	0	0	0	479	409	
15	0	0	0	0	476	409	
0	0	0	0	0	473	409	
1	0	0	0	0	472	408	
2	0	0	0	0	472	409	
3	0	0	0	0	474	408	
4	0	0	0	0	477	409	
5	0	0	0	0	481	409	
6	0	0	0	0	486	408	
7	0	0	0	0	493	409	
8	0	0	0	0	498	409	
9	0	0	0	0	501	408	
10	0	0	0	0	504	408	
11	0	0	0	0	504	408	
12	0	0	0	0	504	408	
13	0	0	0	0	503	409	
14	0	0	0	0	501	408	
15	0	0	0	0	499	408	
0	0	0	0	0	495	408	
1	0	0	0	0	491	408	
2	0	0	0	0	487	408	
3	0	0	0	0	486	408	
4	0	0	0	0	485	408	
5	0	0	0	0	486	409	
6	0	0	0	0	487	408	
7	0	0	0	0	490	408	
8	0	0	0	0	494	408	
9	0	0	0	0	498	407	
10	0	0	0	0	503	408	
11	0	0	0	0	509	408	
12	0	0	0	0	513	407	
13	0	0	0	0	516	408	
14	0	0	0	0	518	408	
15	0	0	0	0	518	408	
0	0	0	0	0	517	408	
1	0	0	0	0	515	408	
2	0	0	0	0	512	409	
3	0	0	0	0	508	408	
4	0	0	0	0	503	409	
5	0	0	0	0	496	410	
6	0	0	0	0	492	408	
7	0	0	0	0	489	409	
8	0	0	0	0	487	409	
9	0	0	0	0	486	408	
10	0	0	0	0	487	409	
11	0	0	0	0	487	409	
12	0	0	0	0	490	409	
13	0	0	0	0	492	410	
14	0	0	0	0	496	410	
15	0	0	0	0	501	409	
0	0	0	0	0	506	410	
1	0	0	0	0	510	409	
2	0	0	0	0	512	409	
3	0	0	0	0	513	409	
4	0	0	0	0	514	410	
5	0	0	0	0	513	411	
6	0	0	0	0	512	410	
7	0	0	0	0	510	410	
8	0	0	0	0	506	411	
9	0	0	0	0	503	410	
10	0	0	0	0	499	410	
11	0	0	0	0	497	410	
12	0	0	0	0	496	409	
13	0	0	0	0	496	410	
14	0	0	0	0	498	410	
15	0	0	0	0	500	410	
0	0	0	0	0	503	410	
1	0	0	0	0	507	409	
2	0	0	0	0	511	409	
3	0	0	0	0	517	410	
4	0	0	0	0	521	409	
5	0	0	0	0	523	410	
6	0	0	0	0	525	409	
7	0	0	0	0	524	409	
8	0	0	0	0	522	408	
9	0	0	0	0	519	408	
10	0	0	0	0	516	409	
11	0	0	0	0	512	409	
12	0	0	0	0	507	409	
13	0	0	0	0	500	409	
14	0	0	0	0	496	408	
15	0	0	0	0	492	408	
0	0	0	0	0	491	408	
1	0	0	0	0	491	408	
2	0	0	0	0	491	409	
3	0	0	0	0	493	408	
4	0	0	0	0	495	408	
5	0	0	0	0	499	408	
6	0	0	0	0	504	408	
7	0	0	0	0	511	408	
8	0	0	0	0	515	408	
9	0	0	0	0	520	407	
10	0	0	0	0	523	408	
11	0	0	0	0	524	407	
12	0	0	0	0	524	408	
13	0	0	0	0	523	408	
14	0	0	0	0	521	408	
15	0	0	0	0	518	407	
0	0	0	0	0	514	408	
1	0	0	0	0	508	408	
2	0	0	0	0	503	407	
3	0	0	0	0	500	408	
4	0	0	0	0	498	407	
5	0	0	0	0	498	408	
6	0	0	0	0	499	407	
7	0	0	0	0	499	407	
8	0	0	0	0	501	408	
9	0	0	0	0	504	407	
10	0	0	0	0	509	408	
11	0	0	0	0	515	408	
12	0	0	0	0	519	408	
13	0	0	0	0	523	409	
14	0	0	0	0	526	408	
15	0	0	0	0	527	408	
0	0	0	0	0	528	408	
1	0	0	0	0	527	408	
2	0	0	0	0	527	408	
3	0	0	0	0	526	408	
4	0	0	0	0	523	409	
5	0	0	0	0	519	409	
6	0	0	0	0	514	409	
7	0	0	0	0	512	409	
8	0	0	0	0	510	408	
9	0	0	0	0	509	408	
10	0	0	0	0	510	409	
11	0	0	0	0	511	408	
12	0	0	0	0	512	409	
13	0	0	0	0	515	410	
14	0	0	0	0	519	409	
15	0	0	0	0	523	409	
0	0	0	0	0	527	408	
1	0	0	0	0	529	408	
2	0	0	0	0	531	409	
3	0	0	0	0	530	408	
4	0	0	0	0	529	408	
5	0	0	0	0	528	409	
6	0	0	0	0	526	409	
7	0	0	0	0	523	408	
8	0	0	0	0	519	409	
9	0	0	0	0	513	408	
10	0	0	0	0	510	408	
11	0	0	0	0	507	408	
12	0	0	0	0	505	409	
13	0	0	0	0	504	409	
14	0	0	0	0	504	409	
15	0	0	0	0	505	409	
0	0	0	0	0	508	409	
1	0	0	0	0	511	408	
2	0	0	0	0	515	409	
3	0	0	0	0	520	409	
4	0	0	0	0	523	409	
5	0	0	0	0	526	409	
6	0	0	0	0	528	409	
7	0	0	0	0	528	408	
8	0	0	0	0	527	408	
9	0	0	0	0	525	408	
10	0	0	0	0	522	409	
11	0	0	0	0	518	409	
12	0	0	0	0	513	409	
13	0	0	0	0	507	409	
14	0	0	0	0	502	408	
15	0	0	0	0	499	408	
0	0	0	0	0	499	409	
1	0	0	0	0	499	409	
2	0	0	0	0	501	409	
3	0	0	0	0	503	409	
4	0	0	0	0	505	409	
5	0	0	0	0	508	410	
6	0	0	0	0	511	409	
7	0	0	0	0	515	409	
8	0	0	0	0	519	409	
9	0	0	0	0	521	409	
10	0	0	0	0	522	409	
11	0	0	0	0	521	409	
12	0	0	0	0	520	409	
13	0	0	0	0	518	409	
14	0	0	0	0	515	409	
15	0	0	0	0	512	409	
0	0	0	0	0	507	409	
1	0	0	0	0	501	409	
2	0	0	0	0	497	409	
3	0	0	0	0	494	409	
4	0	0	0	0	491	409	
5	0	0	0	0	490	410	
6	0	0	0	0	490	409	
7	0	0	0	0	492	409	
8	0	0	0	0	494	409	
9	0	0	0	0	498	408	
10	0	0	0	0	503	409	
11	0	0	0	0	508	409	
12	0	0	0	0	512	409	
13	0	0	0	0	515	410	
14	0	0	0	0	517	408	
15	0	0	0	0	517	409	
0	0	0	0	0	516	409	
1	0	0	0	0	514	409	
2	0	0	0	0	511	409	
3	0	0	0	0	508	409	
4	0	0	0	0	502	408	
5	0	0	0	0	496	409	
6	0	0	0	0	491	408	
7	0	0	0	0	486	408	
8	0	0	0	0	483	408	
9	0	0	0	0	482	408	
10	0	0	0	0	481	409	
11	0	0	0	0	482	408	
12	0	0	0	0	484	409	
13	0	0	0	0	487	409	
14	0	0	0	0	492	408	
15	0	0	0	0	496	409	
0	0	0	0	0	500	408	
1	0	0	0	0	503	408	
2	0	0	0	0	504	409	
3	0	0	0	0	504	409	
4	0	0	0	0	503	409	
5	0	0	0	0	502	410	
6	0	0	0	0	499	409	
7	0	0	0	0	496	409	
8	0	0	0	0	492	410	
9	0	0	0	0	487	409	
10	0	0	0	0	483	410	
11	0	0	0	0	481	409	
12	0	0	0	0	480	409	
13	0	0	0	0	481	410	
14	0	0	0	0	483	410	
15	0	0	0	0	485	409	
0	0	0	0	0	489	409	
1	0	0	0	0	492	409	
2	0	0	0	0	496	410	
3	0	0	0	0	502	410	
4	0	0	0	0	505	410	
5	0	0	0	0	506	410	
6	0	0	0	0	507	410	
7	0	0	0	0	505	410	
8	0	0	0	0	504	411	
9	0	0	0	0	501	410	
10	0	0	0	0	497	410	
11	0	0	0	0	494	410	
12	0	0	0	0	488	409	
13	0	0	0	0	483	410	
14	0	0	0	0	478	409	
15	0	0	0	0	476	409	
0	0	0	0	0	474	409	
1	0	0	0	0	474	408	
2	0	0	0	0	475	409	
3	0	0	0	0	477	408	
4	0	0	0	0	479	409	
5	0	0	0	0	483	409	
6	0	0	0	0	487	408	
7	0	0	0	0	493	409	
8	0	0	0	0	497	408	
9	0	0	0	0	499	408	
10	0	0	0	0	500	408	
11	0	0	0	0	499	408	
12	0	0	0	0	497	408	
13	0	0	0	0	494	408	
14	0	0	0	0	491	408	
15	0	0	0	0	487	408	
0	0	0	0	0	483	408	
1	0	0	0	0	479	408	
2	0	0	0	0	475	408	
3	0	0	0	0	473	409	
4	0	0	0	0	473	408	
5	0	0	0	0	473	409	
6	0	0	0	0	476	409	
7	0	0	0	0	477	409	
8	0	0	0	0	479	409	
9	0	0	0	0	481	409	
10	0	0	0	0	486	409	
11	0	0	0	0	490	409	
12	0	0	0	0	493	409	
13	0	0	0	0	496	411	
14	0	0	0	0	497	409	
15	0	0	0	0	497	409	
0	0	0	0	0	495	409	
1	0	0	0	0	493	409	
2	0	0	0	0	491	409	
3	0	0	0	0	487	409	
4	0	0	0	0	481	410	
5	0	0	0	0	476	411	
6	0	0	0	0	471	410	
7	0	0	0	0	468	410	
8	0	0	0	0	467	410	
9	0	0	0	0	467	410	
10	0	0	0	0	467	410	
11	0	0	0	0	468	410	
12	0	0	0	0	470	410	
13	0	0	0	0	471	411	
14	0	0	0	0	475	409	
15	0	0	0	0	480	410	
0	0	0	0	0	484	410	
1	0	0	0	0	487	409	
2	0	0	0	0	487	409	
3	0	0	0	0	486	409	
4	0	0	0	0	484	409	
5	0	0	0	0	482	410	
6	0	0	0	0	478	409	
7	0	0	0	0	475	409	
8	0	0	0	0	469	409	
9	0	0	0	0	463	409	
10	0	0	0	0	458	408	
11	0	0	0	0	456	409	
12	0	0	0	0	454	409	
13	0	0	0	0	455	409	
14	0	0	0	0	456	408	
15	0	0	0	0	459	408	
0	0	0	0	0	462	408	
1	0	0	0	0	465	407	
2	0	0	0	0	471	408	
3	0	0	0	0	476	407	
4	0	0	0	0	481	407	
5	0	0	0	0	484	408	
6	0	0	0	0	486	407	
7	0	0	0	0	486	407	
8	0	0	0	0	487	408	
9	0	0	0	0	486	407	
10	0	0	0	0	483	408	
11	0	0	0	0	479	408	
12	0	0	0	0	474	408	
13	0	0	0	0	468	409	
14	0	0	0	0	464	408	
15	0	0	0	0	462	408	
0	0	0	0	0	460	408	
1	0	0	0	0	460	408	
2	0	0	0	0	461	409	
3	0	0	0	0	463	409	
4	0	0	0	0	465	409	
5	0	0	0	0	468	410	
6	0	0	0	0	472	409	
7	0	0	0	0	476	409	
8	0	0	0	0	479	409	
9	0	0	0	0	482	409	
10	0	0	0	0	483	409	
11	0	0	0	0	482	409	
12	0	0	0	0	481	409	
13	0	0	0	0	479	410	
14	0	0	0	0	477	409	
15	0	0	0	0	474	410	
0	0	0	0	0	470	409	
1	0	0	0	0	465	409	
2	0	0	0	0	462	409	
3	0	0	0	0	460	409	
4	0	0	0	0	460	409	
5	0	0	0	0	460	409	
6	0	0	0	0	462	409	
7	0	0	0	0	464	409	
8	0	0	0	0	467	409	
9	0	0	0	0	471	408	
10	0	0	0	0	475	410	
11	0	0	0	0	480	409	
12	0	0	0	0	483	409	
13	0	0	0	0	486	411	
14	0	0	0	0	488	409	
15	0	0	0	0	488	409	
0	0	0	0	0	487	409	
1	0	0	0	0	486	409	
2	0	0	0	0	484	409	
3	0	0	0	0	480	408	
4	0	0	0	0	475	409	
5	0	0	0	0	470	410	
6	0	0	0	0	465	409	
7	0	0	0	0	463	409	
8	0	0	0	0	462	409	
9	0	0	0	0	462	408	
10	0	0	0	0	464	409	
11	0	0	0	0	466	409	
12	0	0	0	0	470	409	
13	0	0	0	0	475	409	
14	0	0	0	0	480	408	
15	0	0	0	0	487	408	
0	0	0	0	0	491	408	
1	0	0	0	0	494	408	
2	0	0	0	0	495	408	
3	0	0	0	0	494	408	
4	0	0	0	0	493	408	
5	0	0	0	0	490	408	
6	0	0	0	0	486	408	
7	0	0	0	0	483	408	
8	0	0	0	0	476	407	
9	0	0	0	0	470	407	
10	0	0	0	0	466	407	
11	0	0	0	0	463	407	
12	0	0	0	0	463	407	
13	0	0	0	0	463	408	
14	0	0	0	0	466	408	
15	0	0	0	0	468	407	
0	0	0	0	0	471	407	
1	0	0	0	0	475	407	
2	0	0	0	0	481	407	
3	0	0	0	0	488	408	
4	0	0	0	0	493	407	
5	0	0	0	0	496	408	
6	0	0	0	0	499	408	
7	0	0	0	0	500	408	
8	0	0	0	0	500	408	
9	0	0	0	0	499	407	
10	0	0	0	0	497	408	
11	0	0	0	0	494	408	
12	0	0	0	0	490	408	
13	0	0	0	0	487	409	
14	0	0	0	0	483	408	
15	0	0	0	0	480	408	
0	0	0	0	0	480	408	
1	0	0	0	0	480	408	
2	0	0	0	0	483	408	
3	0	0	0	0	486	409	
4	0	0	0	0	490	408	
5	0	0	0	0	494	409	
6	0	0	0	0	499	408	
7	0	0	0	0	505	409	
8	0	0	0	0	510	409	
9	0	0	0	0	512	408	
10	0	0	0	0	513	409	
11	0	0	0	0	513	409	
12	0	0	0	0	511	409	
13	0	0	0	0	507	410	
14	0	0	0	0	503	409	
15	0	0	0	0	499	410	
0	0	0	0	0	494	409	
1	0	0	0	0	488	409	
2	0	0	0	0	483	410	
3	0	0	0	0	481	410	
4	0	0	0	0	479	410	
5	0	0	0	0	478	410	
6	0	0	0	0	479	410	
7	0	0	0	0	480	410	
8	0	0	0	0	483	410	
9	0	0	0	0	487	410	
10	0	0	0	0	493	411	
11	0	0	0	0	499	410	
12	0	0	0	0	504	410	
13	0	0	0	0	508	411	
14	0	0	0	0	510	410	
15	0	0	0	0	511	409	
0	0	0	0	0	511	409	
1	0	0	0	0	509	409	
2	0	0	0	0	508	409	
3	0	0	0	0	505	410	
4	0	0	0	0	500	410	
5	0	0	0	0	495	411	
6	0	0	0	0	492	410	
7	0	0	0	0	489	410	
8	0	0	0	0	487	410	
9	0	0	0	0	488	409	
10	0	0	0	0	489	410	
11	0	0	0	0	492	410	
12	0	0	0	0	495	410	
13	0	0	0	0	498	411	
14	0	0	0	0	503	411	
15	0	0	0	0	508	411	
0	0	0	0	0	512	411	
1	0	0	0	0	516	410	
2	0	0	0	0	518	411	
3	0	0	0	0	517	410	
4	0	0	0	0	516	411	
5	0	0	0	0	514	411	
6	0	0	0	0	512	411	
7	0	0	0	0	510	411	
8	0	0	0	0	505	411	
9	0	0	0	0	502	410	
10	0	0	0	0	499	411	
11	0	0	0	0	498	410	
12	0	0	0	0	497	411	
13	0	0	0	0	497	411	
14	0	0	0	0	498	410	
15	0	0	0	0	499	410	
0	0	0	0	0	501	411	
1	0	0	0	0	503	410	
2	0	0	0	0	508	411	
3	0	0	0	0	512	410	
4	0	0	0	0	516	411	
5	0	0	0	0	519	411	
6	0	0	0	0	519	410	
7	0	0	0	0	519	410	
8	0	0	0	0	517	410	
9	0	0	0	0	514	410	
10	0	0	0	0	511	410	
11	0	0	0	0	508	410	
12	0	0	0	0	504	410	
13	0	0	0	0	499	411	
14	0	0	0	0	495	410	
15	0	0	0	0	492	410	
0	0	0	0	0	490	409	
1	0	0	0	0	489	409	
2	0	0	0	0	489	409	
3	0	0	0	0	490	409	
4	0	0	0	0	491	409	
5	0	0	0	0	493	410	
6	0	0	0	0	496	408	
7	0	0	0	0	500	409	
8	0	0	0	0	503	408	
9	0	0	0	0	505	408	
10	0	0	0	0	507	408	
11	0	0	0	0	507	408	
12	0	0	0	0	507	408	
13	0	0	0	0	505	409	
14	0	0	0	0	503	408	
15	0	0	0	0	499	408	
0	0	0	0	0	494	407	
1	0	0	0	0	489	407	
2	0	0	0	0	485	408	
3	0	0	0	0	481	407	
4	0	0	0	0	479	407	
5	0	0	0	0	478	407	
6	0	0	0	0	479	407	
7	0	0	0	0	480	407	
8	0	0	0	0	481	406	
9	0	0	0	0	484	406	
10	0	0	0	0	487	406	
11	0	0	0	0	491	407	
12	0	0	0	0	495	407	
13	0	0	0	0	498	408	
14	0	0	0	0	498	407	
15	0	0	0	0	497	406	
0	0	0	0	0	495	407	
1	0	0	0	0	492	406	
2	0	0	0	0	488	407	
3	0	0	0	0	485	407	
4	0	0	0	0	480	407	
5	0	0	0	0	474	408	
6	0	0	0	0	470	407	
7	0	0	0	0	467	408	
8	0	0	0	0	464	407	
9	0	0	0	0	463	407	
10	0	0	0	0	464	408	
11	0	0	0	0	465	408	
12	0	0	0	0	467	408	
13	0	0	0	0	470	409	
14	0	0	0	0	475	408	
15	0	0	0	0	481	408	
0	0	0	0	0	485	408	
1	0	0	0	0	487	408	
2	0	0	0	0	489	408	
3	0	0	0	0	489	408	
4	0	0	0	0	487	408	
5	0	0	0	0	484	408	
6	0	0	0	0	481	407	
7	0	0	0	0	477	408	
8	0	0	0	0	472	408	
9	0	0	0	0	469	408	
10	0	0	0	0	466	408	
11	0	0	0	0	464	408	
12	0	0	0	0	464	408	
13	0	0	0	0	465	409	
14	0	0	0	0	468	409	
15	0	0	0	0	471	408	
0	0	0	0	0	474	408	
1	0	0	0	0	479	408	
2	0	0	0	0	485	408	
3	0	0	0	0	491	409	
4	0	0	0	0	496	409	
5	0	0	0	0	499	409	
6	0	0	0	0	501	408	
7	0	0	0	0	502	408	
8	0	0	0	0	502	408	
9	0	0	0	0	501	408	
10	0	0	0	0	500	409	
11	0	0	0	0	497	409	
12	0	0	0	0	494	409	
13	0	0	0	0	490	410	
14	0	0	0	0	487	409	
15	0	0	0	0	485	410	
0	0	0	0	0	484	410	
1	0	0	0	0	484	409	
2	0	0	0	0	485	411	
3	0	0	0	0	487	410	
4	0	0	0	0	490	410	
5	0	0	0	0	493	411	
6	0	0	0	0	497	410	
7	0	0	0	0	500	410	
8	0	0	0	0	504	410	
9	0	0	0	0	506	410	
10	0	0	0	0	506	411	
11	0	0	0	0	505	411	
12	0	0	0	0	503	410	
13	0	0	0	0	499	411	
14	0	0	0	0	496	410	
15	0	0	0	0	491	411	
0	0	0	0	0	485	410	
1	0	0	0	0	480	411	
2	0	0	0	0	476	412	
3	0	0	0	0	476	412	
4	0	0	0	0	477	411	
5	0	0	0	0	480	411	
6	0	0	0	0	486	411	
7	0	0	0	0	493	411	
8	0	0	0	0	501	410	
9	0	0	0	0	511	409	
10	0	0	0	0	522	410	
11	0	0	0	0	534	411	
12	0	0	0	0	545	409	
13	0	0	0	0	556	411	
14	0	0	0	0	566	410	
15	0	0	0	0	574	410	
0	0	0	0	0	581	410	
1	0	0	0	0	587	410	
2	0	0	0	0	591	410	
3	0	0	0	0	594	410	
4	0	0	0	0	595	410	
5	0	0	0	0	597	411	
6	0	0	0	0	600	410	
7	0	0	0	0	604	410	
8	0	0	0	0	608	410	
9	0	0	0	0	615	409	
10	0	0	0	0	622	409	
11	0	0	0	0	629	409	
12	0	0	0	0	636	409	
13	0	0	0	0	642	410	
14	0	0	0	0	650	409	
15	0	0	0	0	659	409	
0	0	0	0	0	665	410	
1	0	0	0	0	669	409	
2	0	0	0	0	670	409	
3	0	0	0	0	667	409	
4	0	0	0	0	662	409	
5	0	0	0	0	654	410	
6	0	0	0	0	644	409	
7	0	0	0	0	633	409	
8	0	0	0	0	618	408	
9	0	0	0	0	603	408	
10	0	0	0	0	588	409	
11	0	0	0	0	574	409	
12	0	0	0	0	562	409	
13	0	0	0	0	552	409	
14	0	0	0	0	545	409	
15	0	0	0	0	538	409	
0	0	0	0	0	533	408	
1	0	0	0	0	529	408	
2	0	0	0	0	527	408	
3	0	0	0	0	526	409	
4	0	0	0	0	525	409	
5	0	0	0	0	523	409	
6	0	0	0	0	520	408	
7	0	0	0	0	516	408	
8	0	0	0	0	511	408	
9	0	0	0	0	506	408	
10	0	0	0	0	499	408	
11	0	0	0	0	494	408	
12	0	0	0	0	487	408	
13	0	0	0	0	480	409	
14	0	0	0	0	473	409	
15	0	0	0	0	468	409	
0	0	0	0	0	465	409	
1	0	0	0	0	464	408	
2	0	0	0	0	464	408	
3	0	0	0	0	464	409	
4	0	0	0	0	467	408	
5	0	0	0	0	470	409	
6	0	0	0	0	475	408	
7	0	0	0	0	480	409	
8	0	0	0	0	483	408	
9	0	0	0	0	486	408	
10	0	0	0	0	487	409	
11	0	0	0	0	487	409	
12	0	0	0	0	487	409	
13	0	0	0	0	486	410	
14	0	0	0	0	485	408	
15	0	0	0	0	483	408	
0	0	0	0	0	479	408	
1	0	0	0	0	476	408	
2	0	0	0	0	473	409	
3	0	0	0	0	471	408	
4	0	0	0	0	470	408	
5	0	0	0	0	471	409	
6	0	0	0	0	472	409	
7	0	0	0	0	475	408	
8	0	0	0	0	479	408	
9	0	0	0	0	483	408	
10	0	0	0	0	489	408	
11	0	0	0	0	495	408	
12	0	0	0	0	501	408	
13	0	0	0	0	504	409	
14	0	0	0	0	507	408	
15	0	0	0	0	508	408	
0	0	0	0	0	508	408	
1	0	0	0	0	507	407	
2	0	0	0	0	505	408	
3	0	0	0	0	503	408	
4	0	0	0	0	500	408	
5	0	0	0	0	496	408	
6	0	0	0	0	494	408	
7	0	0	0	0	493	407	
8	0	0	0	0	493	407	
9	0	0	0	0	495	407	
10	0	0	0	0	497	407	
11	0	0	0	0	499	407	
12	0	0	0	0	503	408	
13	0	0	0	0	507	408	
14	0	0	0	0	513	408	
15	0	0	0	0	519	408	
0	0	0	0	0	524	408	
1	0	0	0	0	529	408	
2	0	0	0	0	531	408	
3	0	0	0	0	533	408	
4	0	0	0	0	534	408	
5	0	0	0	0	534	408	
6	0	0	0	0	532	409	
7	0	0	0	0	531	409	
8	0	0	0	0	527	408	
9	0	0	0	0	523	408	
10	0	0	0	0	519	408	
11	0	0	0	0	518	408	
12	0	0	0	0	517	408	
13	0	0	0	0	517	408	
14	0	0	0	0	519	409	
15	0	0	0	0	521	409	
0	0	0	0	0	523	408	
1	0	0	0	0	526	409	
2	0	0	0	0	531	409	
3	0	0	0	0	536	409	
4	0	0	0	0	541	409	
5	0	0	0	0	545	408	
6	0	0	0	0	547	408	
7	0	0	0	0	547	408	
8	0	0	0	0	547	408	
9	0	0	0	0	545	408	
10	0	0	0	0	543	408	
11	0	0	0	0	540	408	
12	0	0	0	0	535	408	
13	0	0	0	0	531	409	
14	0	0	0	0	527	408	
15	0	0	0	0	525	408	
0	0	0	0	0	524	409	
1	0	0	0	0	523	408	
2	0	0	0	0	524	408	
3	0	0	0	0	526	408	
4	0	0	0	0	528	409	
5	0	0	0	0	532	408	
6	0	0	0	0	536	408	
7	0	0	0	0	541	408	
8	0	0	0	0	545	408	
9	0	0	0	0	548	408	
10	0	0	0	0	550	409	
11	0	0	0	0	550	408	
12	0	0	0	0	550	409	
13	0	0	0	0	548	409	
14	0	0	0	0	545	408	
15	0	0	0	0	542	409	
0	0	0	0	0	536	408	
1	0	0	0	0	531	409	
2	0	0	0	0	527	408	
3	0	0	0	0	524	408	
4	0	0	0	0	522	408	
5	0	0	0	0	523	409	
6	0	0	0	0	524	409	
7	0	0	0	0	525	409	
8	0	0	0	0	527	409	
9	0	0	0	0	531	409	
10	0	0	0	0	535	409	
11	0	0	0	0	539	409	
12	0	0	0	0	542	409	
13	0	0	0	0	545	410	
14	0	0	0	0	546	410	
15	0	0	0	0	546	409	
0	0	0	0	0	545	409	
1	0	0	0	0	542	409	
2	0	0	0	0	539	410	
3	0	0	0	0	535	410	
4	0	0	0	0	530	409	
5	0	0	0	0	525	411	
6	0	0	0	0	521	410	
7	0	0	0	0	518	410	
8	0	0	0	0	515	410	
9	0	0	0	0	514	409	
10	0	0	0	0	514	411	
11	0	0	0	0	514	409	
12	0	0	0	0	515	410	
13	0	0	0	0	518	411	
14	0	0	0	0	522	410	
15	0	0	0	0	526	411	
0	0	0	0	0	529	409	
1	0	0	0	0	531	410	
2	0	0	0	0	533	410	
3	0	0	0	0	533	410	
4	0	0	0	0	531	410	
5	0	0	0	0	529	411	
6	0	0	0	0	526	410	
7	0	0	0	0	523	411	
8	0	0	0	0	519	411	
9	0	0	0	0	514	410	
10	0	0	0	0	511	411	
11	0	0	0	0	508	410	
12	0	0	0	0	507	411	
13	0	0	0	0	507	412	
14	0	0	0	0	507	410	
15	0	0	0	0	508	411	
0	0	0	0	0	509	410	
1	0	0	0	0	512	411	
2	0	0	0	0	516	411	
3	0	0	0	0	520	411	
4	0	0	0	0	524	411	
5	0	0	0	0	527	411	
6	0	0	0	0	529	410	
7	0	0	0	0	528	411	
8	0	0	0	0	527	411	
9	0	0	0	0	525	411	
10	0	0	0	0	523	411	
11	0	0	0	0	519	410	
12	0	0	0	0	513	410	
13	0	0	0	0	508	410	
14	0	0	0	0	503	410	
15	0	0	0	0	499	409	
0	0	0	0	0	497	409	
1	0	0	0	0	496	409	
2	0	0	0	0	496	409	
3	0	0	0	0	498	409	
4	0	0	0	0	500	410	
5	0	0	0	0	505	410	
6	0	0	0	0	511	409	
7	0	0	0	0	516	409	
8	0	0	0	0	521	408	
9	0	0	0	0	525	408	
10	0	0	0	0	528	409	
11	0	0	0	0	528	408	
12	0	0	0	0	528	408	
13	0	0	0	0	526	409	
14	0	0	0	0	523	408	
15	0	0	0	0	519	408	
0	0	0	0	0	515	407	
1	0	0	0	0	510	407	
2	0	0	0	0	507	408	
3	0	0	0	0	504	408	
4	0	0	0	0	503	409	
5	0	0	0	0	504	408	
6	0	0	0	0	506	409	
7	0	0	0	0	508	408	
8	0	0	0	0	512	408	
9	0	0	0	0	516	408	
10	0	0	0	0	522	408	
11	0	0	0	0	529	408	
12	0	0	0	0	533	408	
13	0	0	0	0	537	409	
14	0	0	0	0	538	408	
15	0	0	0	0	538	408	
0	0	0	0	0	537	409	
1	0	0	0	0	536	408	
2	0	0	0	0	534	408	
3	0	0	0	0	531	409	
4	0	0	0	0	526	408	
5	0	0	0	0	520	409	
6	0	0	0	0	516	408	
7	0	0	0	0	513	408	
8	0	0	0	0	512	408	
9	0	0	0	0	512	408	
10	0	0	0	0	513	409	
11	0	0	0	0	515	408	
12	0	0	0	0	516	408	
13	0	0	0	0	519	409	
14	0	0	0	0	524	408	
15	0	0	0	0	528	408	
0	0	0	0	0	531	408	
1	0	0	0	0	532	408	
2	0	0	0	0	532	408	
3	0	0	0	0	530	408	
4	0	0	0	0	528	408	
5	0	0	0	0	524	409	
6	0	0	0	0	520	409	
7	0	0	0	0	516	408	
8	0	0	0	0	510	408	
9	0	0	0	0	504	408	
10	0	0	0	0	499	408	
11	0	0	0	0	496	408	
12	0	0	0	0	495	408	
13	0	0	0	0	495	409	
14	0	0	0	0	495	408	
15	0	0	0	0	496	408	
0	0	0	0	0	497	408	
1	0	0	0	0	498	408	
2	0	0	0	0	501	408	
3	0	0	0	0	505	408	
4	0	0	0	0	508	408	
5	0	0	0	0	510	409	
6	0	0	0	0	510	408	
7	0	0	0	0	509	409	
8	0	0	0	0	507	409	
9	0	0	0	0	504	408	
10	0	0	0	0	501	408	
11	0	0	0	0	496	408	
12	0	0	0	0	490	408	
13	0	0	0	0	483	409	
14	0	0	0	0	479	408	
15	0	0	0	0	475	408	
0	0	0	0	0	472	408	
1	0	0	0	0	471	408	
2	0	0	0	0	472	409	
3	0	0	0	0	475	409	
4	0	0	0	0	478	408	
5	0	0	0	0	481	409	
6	0	0	0	0	487	408	
7	0	0	0	0	492	409	
8	0	0	0	0	496	409	
9	0	0	0	0	499	408	
10	0	0	0	0	501	408	
11	0	0	0	0	503	409	
12	0	0	0	0	503	409	
13	0	0	0	0	502	410	
14	0	0	0	0	501	409	
15	0	0	0	0	499	409	
0	0	0	0	0	497	409	
1	0	0	0	0	495	409	
2	0	0	0	0	493	409	
3	0	0	0	0	493	409	
4	0	0	0	0	494	408	
5	0	0	0	0	496	410	
6	0	0	0	0	500	409	
7	0	0	0	0	505	410	
8	0	0	0	0	510	410	
9	0	0	0	0	516	409	
10	0	0	0	0	523	409	
11	0	0	0	0	530	409	
12	0	0	0	0	536	409	
13	0	0	0	0	540	410	
14	0	0	0	0	543	409	
15	0	0	0	0	545	409	
0	0	0	0	0	545	409	
1	0	0	0	0	544	409	
2	0	0	0	0	543	409	
3	0	0	0	0	540	409	
4	0	0	0	0	535	408	
5	0	0	0	0	530	409	
6	0	0	0	0	526	409	
7	0	0	0	0	524	408	
8	0	0	0	0	522	409	
9	0	0	0	0	523	408	
10	0	0	0	0	524	409	
11	0	0	0	0	525	408	
12	0	0	0	0	528	409	
13	0	0	0	0	532	409	
14	0	0	0	0	537	408	
15	0	0	0	0	543	409	
0	0	0	0	0	546	408	
1	0	0	0	0	548	408	
2	0	0	0	0	549	408	
3	0	0	0	0	548	409	
4	0	0	0	0	546	408	
5	0	0	0	0	543	409	
6	0	0	0	0	540	409	
7	0	0	0	0	534	409	
8	0	0	0	0	528	409	
9	0	0	0	0	521	409	
10	0	0	0	0	516	409	
11	0	0	0	0	512	409	
12	0	0	0	0	509	409	
13	0	0	0	0	508	410	
14	0	0	0	0	507	409	
15	0	0	0	0	508	410	
0	0	0	0	0	511	410	
1	0	0	0	0	514	410	
2	0	0	0	0	519	409	
3	0	0	0	0	524	409	
4	0	0	0	0	528	409	
5	0	0	0	0	532	410	
6	0	0	0	0	533	410	
7	0	0	0	0	533	409	
8	0	0	0	0	531	410	
9	0	0	0	0	529	409	
10	0	0	0	0	526	409	
11	0	0	0	0	522	410	
12	0	0	0	0	518	409	
13	0	0	0	0	513	410	
14	0	0	0	0	508	409	
15	0	0	0	0	505	410	
0	0	0	0	0	504	410	
1	0	0	0	0	502	409	
2	0	0	0	0	503	409	
3	0	0	0	0	503	409	
4	0	0	0	0	504	409	
5	0	0	0	0	507	409	
6	0	0	0	0	511	408	
7	0	0	0	0	515	408	
8	0	0	0	0	519	408	
9	0	0	0	0	521	408	
10	0	0	0	0	523	408	
11	0	0	0	0	522	408	
12	0	0	0	0	521	408	
13	0	0	0	0	520	409	
14	0	0	0	0	519	409	
15	0	0	0	0	515	408	
0	0	0	0	0	512	408	
1	0	0	0	0	508	408	
2	0	0	0	0	505	408	
3	0	0	0	0	504	408	
4	0	0	0	0	504	409	
5	0	0	0	0	506	409	
6	0	0	0	0	509	408	
7	0	0	0	0	512	409	
8	0	0	0	0	515	409	
9	0	0	0	0	519	408	
10	0	0	0	0	524	409	
11	0	0	0	0	528	409	
12	0	0	0	0	531	408	
13	0	0	0	0	534	410	
14	0	0	0	0	536	409	
15	0	0	0	0	537	408	
0	0	0	0	0	536	409	
1	0	0	0	0	533	408	
2	0	0	0	0	530	408	
3	0	0	0	0	526	409	
4	0	0	0	0	520	408	
5	0	0	0	0	514	409	
6	0	0	0	0	510	408	
7	0	0	0	0	507	408	
8	0	0	0	0	505	408	
9	0	0	0	0	505	407	
10	0	0	0	0	507	408	
11	0	0	0	0	509	408	
12	0	0	0	0	511	407	
13	0	0	0	0	515	408	
14	0	0	0	0	519	408	
15	0	0	0	0	525	408	
0	0	0	0	0	528	408	
1	0	0	0	0	530	407	
2	0	0	0	0	531	408	
3	0	0	0	0	531	407	
