# OpenSignals Text File Format. Version 1
# {"98:D3:91:FD:69:48": {"position": 0, "device": "bitalino_rev", "device name": "98:D3:91:FD:69:48", "device connection": "BTH98:D3:91:FD:69:48", "sampling rate": 1000, "resolution": [4, 1, 1, 1, 1, 10, 10], "firmware version": 1281, "comments": "", "keywords": "", "mode": 0, "sync interval": 2, "date": "2021-9-7", "time": "22:33:5.247", "channels": [2, 5], "sensor": ["RAW", "RAW"], "label": ["A2", "A5"], "column": ["nSeq", "I1", "I2", "O1", "O2", "A2", "A5"], "special": [{}, {}], "digital IO": [0, 0, 1, 1], "convertedValues": 0}}
# EndOfHeader
0	0	0	0	0	410	519	
1	0	0	0	0	403	519	
2	0	0	0	0	395	519	
3	0	0	0	0	387	519	
4	0	0	0	0	382	519	
5	0	0	0	0	382	519	
6	0	0	0	0	386	519	
7	0	0	0	0	392	519	
8	0	0	0	0	398	520	
9	0	0	0	0	406	519	
10	0	0	0	0	414	519	
11	0	0	0	0	421	519	
12	0	0	0	0	431	519	
13	0	0	0	0	443	519	
14	0	0	0	0	460	519	
15	0	0	0	0	486	519	
0	0	0	0	0	520	520	
1	0	0	0	0	562	520	
2	0	0	0	0	610	519	
3	0	0	0	0	665	520	
4	0	0	0	0	722	520	
5	0	0	0	0	774	519	
6	0	0	0	0	824	519	
7	0	0	0	0	868	519	
8	0	0	0	0	911	520	
9	0	0	0	0	948	519	
10	0	0	0	0	982	519	
11	0	0	0	0	1007	519	
12	0	0	0	0	1022	519	
13	0	0	0	0	1022	519	
14	0	0	0	0	1022	519	
15	0	0	0	0	1022	519	
0	0	0	0	0	1022	519	
1	0	0	0	0	1013	519	
2	0	0	0	0	992	519	
3	0	0	0	0	969	519	
4	0	0	0	0	944	519	
5	0	0	0	0	912	519	
6	0	0	0	0	870	519	
7	0	0	0	0	819	519	
8	0	0	0	0	769	519	
9	0	0	0	0	724	519	
10	0	0	0	0	684	519	
11	0	0	0	0	652	519	
12	0	0	0	0	627	519	
13	0	0	0	0	605	519	
14	0	0	0	0	587	519	
15	0	0	0	0	572	519	
0	0	0	0	0	558	519	
1	0	0	0	0	547	519	
2	0	0	0	0	536	518	
3	0	0	0	0	526	519	
4	0	0	0	0	516	519	
5	0	0	0	0	507	519	
6	0	0	0	0	500	519	
7	0	0	0	0	494	518	
8	0	0	0	0	488	519	
9	0	0	0	0	482	519	
10	0	0	0	0	476	518	
11	0	0	0	0	470	518	
12	0	0	0	0	464	519	
13	0	0	0	0	459	519	
14	0	0	0	0	454	519	
15	0	0	0	0	448	518	
0	0	0	0	0	444	519	
1	0	0	0	0	440	519	
2	0	0	0	0	436	519	
3	0	0	0	0	433	518	
4	0	0	0	0	431	518	
5	0	0	0	0	429	519	
6	0	0	0	0	427	519	
7	0	0	0	0	425	519	
8	0	0	0	0	424	519	
9	0	0	0	0	423	519	
10	0	0	0	0	423	519	
11	0	0	0	0	423	519	
12	0	0	0	0	422	519	
13	0	0	0	0	421	519	
14	0	0	0	0	421	519	
15	0	0	0	0	421	519	
0	0	0	0	0	421	519	
1	0	0	0	0	421	519	
2	0	0	0	0	422	519	
3	0	0	0	0	422	519	
4	0	0	0	0	423	519	
5	0	0	0	0	423	519	
6	0	0	0	0	423	519	
7	0	0	0	0	424	519	
8	0	0	0	0	425	519	
9	0	0	0	0	426	519	
10	0	0	0	0	426	519	
11	0	0	0	0	427	519	
12	0	0	0	0	428	520	
13	0	0	0	0	428	519	
14	0	0	0	0	429	519	
15	0	0	0	0	430	519	
0	0	0	0	0	431	519	
1	0	0	0	0	431	519	
2	0	0	0	0	432	519	
3	0	0	0	0	432	518	
4	0	0	0	0	432	519	
5	0	0	0	0	433	519	
6	0	0	0	0	433	519	
7	0	0	0	0	434	518	
8	0	0	0	0	435	519	
9	0	0	0	0	437	519	
10	0	0	0	0	438	519	
11	0	0	0	0	439	519	
12	0	0	0	0	440	519	
13	0	0	0	0	441	518	
14	0	0	0	0	441	519	
15	0	0	0	0	442	519	
0	0	0	0	0	443	519	
1	0	0	0	0	444	519	
2	0	0	0	0	444	519	
3	0	0	0	0	445	518	
4	0	0	0	0	446	519	
5	0	0	0	0	446	519	
6	0	0	0	0	446	519	
7	0	0	0	0	447	519	
8	0	0	0	0	448	519	
9	0	0	0	0	449	518	
10	0	0	0	0	449	519	
11	0	0	0	0	450	519	
12	0	0	0	0	451	519	
13	0	0	0	0	451	518	
14	0	0	0	0	452	519	
15	0	0	0	0	453	518	
0	0	0	0	0	453	519	
1	0	0	0	0	454	519	
2	0	0	0	0	454	519	
3	0	0	0	0	455	519	
4	0	0	0	0	455	519	
5	0	0	0	0	456	519	
6	0	0	0	0	457	519	
7	0	0	0	0	459	519	
8	0	0	0	0	459	519	
9	0	0	0	0	460	519	
10	0	0	0	0	462	519	
11	0	0	0	0	462	519	
12	0	0	0	0	463	519	
13	0	0	0	0	464	519	
14	0	0	0	0	465	519	
15	0	0	0	0	466	519	
0	0	0	0	0	467	519	
1	0	0	0	0	468	519	
2	0	0	0	0	469	518	
3	0	0	0	0	469	519	
4	0	0	0	0	470	519	
5	0	0	0	0	470	519	
6	0	0	0	0	470	519	
7	0	0	0	0	470	519	
8	0	0	0	0	470	519	
9	0	0	0	0	470	519	
10	0	0	0	0	470	519	
11	0	0	0	0	471	519	
12	0	0	0	0	471	519	
13	0	0	0	0	472	519	
14	0	0	0	0	472	519	
15	0	0	0	0	472	519	
0	0	0	0	0	473	519	
1	0	0	0	0	474	519	
2	0	0	0	0	475	519	
3	0	0	0	0	475	518	
4	0	0	0	0	475	518	
5	0	0	0	0	476	519	
6	0	0	0	0	476	519	
7	0	0	0	0	477	519	
8	0	0	0	0	477	519	
9	0	0	0	0	478	519	
10	0	0	0	0	479	519	
11	0	0	0	0	479	519	
12	0	0	0	0	480	519	
13	0	0	0	0	481	519	
14	0	0	0	0	481	519	
15	0	0	0	0	481	519	
0	0	0	0	0	482	519	
1	0	0	0	0	483	519	
2	0	0	0	0	483	519	
3	0	0	0	0	483	519	
4	0	0	0	0	484	519	
5	0	0	0	0	484	519	
6	0	0	0	0	484	519	
7	0	0	0	0	484	519	
8	0	0	0	0	485	519	
9	0	0	0	0	485	519	
10	0	0	0	0	485	519	
11	0	0	0	0	485	519	
12	0	0	0	0	486	519	
13	0	0	0	0	487	519	
14	0	0	0	0	487	519	
15	0	0	0	0	488	519	
0	0	0	0	0	488	519	
1	0	0	0	0	489	519	
2	0	0	0	0	489	519	
3	0	0	0	0	490	519	
4	0	0	0	0	490	519	
5	0	0	0	0	490	519	
6	0	0	0	0	490	518	
7	0	0	0	0	490	519	
8	0	0	0	0	490	519	
9	0	0	0	0	490	519	
10	0	0	0	0	491	518	
11	0	0	0	0	492	519	
12	0	0	0	0	492	518	
13	0	0	0	0	492	519	
14	0	0	0	0	493	519	
15	0	0	0	0	494	519	
0	0	0	0	0	494	519	
1	0	0	0	0	495	518	
2	0	0	0	0	495	518	
3	0	0	0	0	496	518	
4	0	0	0	0	496	518	
5	0	0	0	0	497	519	
6	0	0	0	0	498	519	
7	0	0	0	0	498	518	
8	0	0	0	0	499	519	
9	0	0	0	0	500	518	
10	0	0	0	0	501	519	
11	0	0	0	0	502	519	
12	0	0	0	0	502	519	
13	0	0	0	0	503	519	
14	0	0	0	0	504	519	
15	0	0	0	0	504	519	
0	0	0	0	0	505	519	
1	0	0	0	0	505	518	
2	0	0	0	0	505	519	
3	0	0	0	0	506	519	
4	0	0	0	0	507	518	
5	0	0	0	0	508	519	
6	0	0	0	0	509	519	
7	0	0	0	0	509	519	
8	0	0	0	0	510	519	
9	0	0	0	0	510	519	
10	0	0	0	0	511	519	
11	0	0	0	0	511	520	
12	0	0	0	0	511	519	
13	0	0	0	0	512	519	
14	0	0	0	0	511	519	
15	0	0	0	0	512	519	
0	0	0	0	0	512	519	
1	0	0	0	0	512	519	
2	0	0	0	0	512	519	
3	0	0	0	0	512	519	
4	0	0	0	0	512	520	
5	0	0	0	0	512	519	
6	0	0	0	0	513	519	
7	0	0	0	0	514	519	
8	0	0	0	0	514	519	
9	0	0	0	0	514	519	
10	0	0	0	0	515	520	
11	0	0	0	0	515	519	
12	0	0	0	0	515	518	
13	0	0	0	0	515	519	
14	0	0	0	0	515	518	
15	0	0	0	0	515	518	
0	0	0	0	0	515	519	
1	0	0	0	0	516	519	
2	0	0	0	0	515	519	
3	0	0	0	0	515	519	
4	0	0	0	0	515	519	
5	0	0	0	0	515	519	
6	0	0	0	0	515	519	
7	0	0	0	0	515	519	
8	0	0	0	0	515	520	
9	0	0	0	0	515	519	
10	0	0	0	0	515	519	
11	0	0	0	0	514	520	
12	0	0	0	0	513	519	
13	0	0	0	0	512	519	
14	0	0	0	0	511	518	
15	0	0	0	0	511	519	
0	0	0	0	0	510	519	
1	0	0	0	0	509	519	
2	0	0	0	0	508	519	
3	0	0	0	0	508	519	
4	0	0	0	0	507	519	
5	0	0	0	0	506	519	
6	0	0	0	0	507	519	
7	0	0	0	0	505	518	
8	0	0	0	0	504	519	
9	0	0	0	0	503	519	
10	0	0	0	0	503	519	
11	0	0	0	0	502	519	
12	0	0	0	0	502	519	
13	0	0	0	0	502	518	
14	0	0	0	0	501	519	
15	0	0	0	0	500	519	
0	0	0	0	0	499	519	
1	0	0	0	0	498	519	
2	0	0	0	0	498	519	
3	0	0	0	0	498	519	
4	0	0	0	0	497	519	
5	0	0	0	0	497	519	
6	0	0	0	0	497	518	
7	0	0	0	0	496	518	
8	0	0	0	0	495	519	
9	0	0	0	0	495	519	
10	0	0	0	0	494	519	
11	0	0	0	0	493	519	
12	0	0	0	0	493	518	
13	0	0	0	0	493	519	
14	0	0	0	0	493	519	
15	0	0	0	0	493	519	
0	0	0	0	0	492	519	
1	0	0	0	0	492	519	
2	0	0	0	0	492	519	
3	0	0	0	0	492	519	
4	0	0	0	0	491	519	
5	0	0	0	0	491	519	
6	0	0	0	0	491	519	
7	0	0	0	0	491	518	
8	0	0	0	0	491	519	
9	0	0	0	0	491	519	
10	0	0	0	0	491	519	
11	0	0	0	0	492	519	
12	0	0	0	0	492	519	
13	0	0	0	0	493	518	
14	0	0	0	0	493	519	
15	0	0	0	0	493	519	
0	0	0	0	0	493	519	
1	0	0	0	0	493	519	
2	0	0	0	0	493	518	
3	0	0	0	0	494	518	
4	0	0	0	0	494	518	
5	0	0	0	0	494	519	
6	0	0	0	0	495	519	
7	0	0	0	0	495	519	
8	0	0	0	0	496	519	
9	0	0	0	0	496	519	
10	0	0	0	0	497	519	
11	0	0	0	0	497	519	
12	0	0	0	0	497	519	
13	0	0	0	0	498	519	
14	0	0	0	0	498	519	
15	0	0	0	0	498	519	
0	0	0	0	0	498	519	
1	0	0	0	0	498	519	
2	0	0	0	0	498	519	
3	0	0	0	0	498	519	
4	0	0	0	0	498	519	
5	0	0	0	0	498	519	
6	0	0	0	0	499	518	
7	0	0	0	0	499	519	
8	0	0	0	0	499	519	
9	0	0	0	0	499	518	
10	0	0	0	0	500	519	
11	0	0	0	0	500	519	
12	0	0	0	0	500	519	
13	0	0	0	0	501	519	
14	0	0	0	0	501	518	
15	0	0	0	0	501	519	
0	0	0	0	0	501	519	
1	0	0	0	0	500	518	
2	0	0	0	0	501	519	
3	0	0	0	0	501	518	
4	0	0	0	0	501	519	
5	0	0	0	0	501	518	
6	0	0	0	0	501	518	
7	0	0	0	0	501	518	
8	0	0	0	0	500	518	
9	0	0	0	0	499	518	
10	0	0	0	0	499	518	
11	0	0	0	0	499	517	
12	0	0	0	0	500	517	
13	0	0	0	0	500	518	
14	0	0	0	0	500	518	
15	0	0	0	0	500	518	
0	0	0	0	0	501	519	
1	0	0	0	0	502	518	
2	0	0	0	0	503	517	
3	0	0	0	0	502	517	
4	0	0	0	0	503	518	
5	0	0	0	0	503	517	
6	0	0	0	0	503	517	
7	0	0	0	0	503	517	
8	0	0	0	0	504	517	
9	0	0	0	0	504	518	
10	0	0	0	0	504	518	
11	0	0	0	0	505	518	
12	0	0	0	0	505	517	
13	0	0	0	0	506	517	
14	0	0	0	0	505	518	
15	0	0	0	0	505	518	
0	0	0	0	0	505	518	
1	0	0	0	0	505	518	
2	0	0	0	0	505	517	
3	0	0	0	0	505	518	
4	0	0	0	0	506	518	
5	0	0	0	0	507	518	
6	0	0	0	0	506	518	
7	0	0	0	0	507	518	
8	0	0	0	0	507	519	
9	0	0	0	0	507	519	
10	0	0	0	0	507	519	
11	0	0	0	0	507	518	
12	0	0	0	0	508	519	
13	0	0	0	0	508	519	
14	0	0	0	0	508	519	
15	0	0	0	0	508	519	
0	0	0	0	0	508	519	
1	0	0	0	0	509	519	
2	0	0	0	0	509	519	
3	0	0	0	0	508	519	
4	0	0	0	0	508	518	
5	0	0	0	0	508	518	
6	0	0	0	0	508	518	
7	0	0	0	0	508	519	
8	0	0	0	0	508	519	
9	0	0	0	0	508	518	
10	0	0	0	0	508	519	
11	0	0	0	0	508	518	
12	0	0	0	0	508	518	
13	0	0	0	0	508	519	
14	0	0	0	0	509	519	
15	0	0	0	0	509	518	
0	0	0	0	0	509	519	
1	0	0	0	0	509	519	
2	0	0	0	0	509	519	
3	0	0	0	0	510	519	
4	0	0	0	0	509	519	
5	0	0	0	0	509	518	
6	0	0	0	0	508	518	
7	0	0	0	0	508	518	
8	0	0	0	0	509	518	
9	0	0	0	0	508	518	
10	0	0	0	0	508	519	
11	0	0	0	0	508	518	
12	0	0	0	0	508	518	
13	0	0	0	0	509	519	
14	0	0	0	0	509	519	
15	0	0	0	0	510	519	
0	0	0	0	0	510	519	
1	0	0	0	0	510	518	
2	0	0	0	0	510	519	
3	0	0	0	0	510	518	
4	0	0	0	0	510	518	
5	0	0	0	0	510	518	
6	0	0	0	0	509	519	
7	0	0	0	0	509	518	
8	0	0	0	0	510	519	
9	0	0	0	0	509	519	
10	0	0	0	0	510	518	
11	0	0	0	0	509	518	
12	0	0	0	0	509	518	
13	0	0	0	0	509	519	
14	0	0	0	0	509	519	
15	0	0	0	0	510	518	
0	0	0	0	0	510	518	
1	0	0	0	0	510	519	
2	0	0	0	0	510	519	
3	0	0	0	0	511	519	
4	0	0	0	0	511	519	
5	0	0	0	0	511	519	
6	0	0	0	0	511	519	
7	0	0	0	0	512	518	
8	0	0	0	0	512	519	
9	0	0	0	0	512	518	
10	0	0	0	0	511	519	
11	0	0	0	0	511	519	
12	0	0	0	0	511	519	
13	0	0	0	0	511	519	
14	0	0	0	0	511	519	
15	0	0	0	0	511	519	
0	0	0	0	0	511	519	
1	0	0	0	0	511	519	
2	0	0	0	0	512	519	
3	0	0	0	0	512	519	
4	0	0	0	0	512	519	
5	0	0	0	0	513	519	
6	0	0	0	0	513	519	
7	0	0	0	0	513	519	
8	0	0	0	0	513	519	
9	0	0	0	0	513	519	
10	0	0	0	0	513	519	
11	0	0	0	0	514	519	
12	0	0	0	0	514	519	
13	0	0	0	0	514	519	
14	0	0	0	0	514	519	
15	0	0	0	0	513	519	
0	0	0	0	0	514	519	
1	0	0	0	0	514	519	
2	0	0	0	0	514	519	
3	0	0	0	0	514	519	
4	0	0	0	0	514	519	
5	0	0	0	0	514	519	
6	0	0	0	0	514	519	
7	0	0	0	0	514	519	
8	0	0	0	0	514	519	
9	0	0	0	0	515	519	
10	0	0	0	0	515	519	
11	0	0	0	0	515	519	
12	0	0	0	0	515	519	
13	0	0	0	0	516	519	
14	0	0	0	0	515	519	
15	0	0	0	0	515	519	
0	0	0	0	0	515	520	
1	0	0	0	0	515	519	
2	0	0	0	0	515	519	
3	0	0	0	0	515	519	
4	0	0	0	0	515	519	
5	0	0	0	0	515	519	
6	0	0	0	0	515	518	
7	0	0	0	0	516	519	
8	0	0	0	0	516	519	
9	0	0	0	0	516	518	
10	0	0	0	0	516	519	
11	0	0	0	0	517	518	
12	0	0	0	0	517	519	
13	0	0	0	0	517	519	
14	0	0	0	0	517	519	
15	0	0	0	0	517	518	
0	0	0	0	0	517	519	
1	0	0	0	0	516	519	
2	0	0	0	0	517	518	
3	0	0	0	0	517	518	
4	0	0	0	0	517	518	
5	0	0	0	0	517	519	
6	0	0	0	0	516	519	
7	0	0	0	0	516	519	
8	0	0	0	0	516	518	
9	0	0	0	0	516	519	
10	0	0	0	0	516	518	
11	0	0	0	0	515	518	
12	0	0	0	0	516	519	
13	0	0	0	0	516	518	
14	0	0	0	0	516	518	
15	0	0	0	0	516	519	
0	0	0	0	0	516	519	
1	0	0	0	0	516	518	
2	0	0	0	0	515	518	
3	0	0	0	0	516	518	
4	0	0	0	0	516	518	
5	0	0	0	0	516	518	
6	0	0	0	0	516	519	
7	0	0	0	0	515	518	
8	0	0	0	0	515	519	
9	0	0	0	0	515	518	
10	0	0	0	0	515	518	
11	0	0	0	0	515	518	
12	0	0	0	0	515	518	
13	0	0	0	0	515	518	
14	0	0	0	0	515	519	
15	0	0	0	0	515	519	
0	0	0	0	0	516	519	
1	0	0	0	0	516	519	
2	0	0	0	0	516	519	
3	0	0	0	0	516	518	
4	0	0	0	0	516	519	
5	0	0	0	0	515	518	
6	0	0	0	0	515	518	
7	0	0	0	0	514	519	
8	0	0	0	0	515	519	
9	0	0	0	0	514	519	
10	0	0	0	0	514	518	
11	0	0	0	0	513	518	
12	0	0	0	0	514	519	
13	0	0	0	0	513	518	
14	0	0	0	0	514	518	
15	0	0	0	0	514	518	
0	0	0	0	0	514	518	
1	0	0	0	0	515	518	
2	0	0	0	0	515	518	
3	0	0	0	0	515	518	
4	0	0	0	0	516	518	
5	0	0	0	0	516	518	
6	0	0	0	0	516	519	
7	0	0	0	0	516	519	
8	0	0	0	0	516	518	
9	0	0	0	0	515	517	
10	0	0	0	0	516	517	
11	0	0	0	0	515	518	
12	0	0	0	0	515	518	
13	0	0	0	0	515	518	
14	0	0	0	0	514	518	
15	0	0	0	0	514	518	
0	0	0	0	0	513	518	
1	0	0	0	0	513	518	
2	0	0	0	0	513	518	
3	0	0	0	0	513	518	
4	0	0	0	0	513	517	
5	0	0	0	0	513	518	
6	0	0	0	0	513	518	
7	0	0	0	0	513	518	
8	0	0	0	0	514	518	
9	0	0	0	0	514	518	
10	0	0	0	0	513	518	
11	0	0	0	0	513	518	
12	0	0	0	0	513	517	
13	0	0	0	0	513	518	
14	0	0	0	0	513	519	
15	0	0	0	0	513	518	
0	0	0	0	0	513	519	
1	0	0	0	0	514	518	
2	0	0	0	0	514	518	
3	0	0	0	0	514	518	
4	0	0	0	0	515	518	
5	0	0	0	0	514	518	
6	0	0	0	0	515	518	
7	0	0	0	0	515	519	
8	0	0	0	0	515	519	
9	0	0	0	0	515	518	
10	0	0	0	0	516	518	
11	0	0	0	0	516	518	
12	0	0	0	0	517	519	
13	0	0	0	0	517	519	
14	0	0	0	0	517	518	
15	0	0	0	0	518	519	
0	0	0	0	0	517	519	
1	0	0	0	0	517	519	
2	0	0	0	0	516	518	
3	0	0	0	0	516	518	
4	0	0	0	0	516	518	
5	0	0	0	0	516	518	
6	0	0	0	0	516	518	
7	0	0	0	0	515	518	
8	0	0	0	0	515	518	
9	0	0	0	0	514	519	
10	0	0	0	0	514	518	
11	0	0	0	0	514	518	
12	0	0	0	0	515	518	
13	0	0	0	0	516	518	
14	0	0	0	0	517	518	
15	0	0	0	0	517	518	
0	0	0	0	0	518	518	
1	0	0	0	0	519	518	
2	0	0	0	0	519	519	
3	0	0	0	0	519	518	
4	0	0	0	0	519	518	
5	0	0	0	0	519	518	
6	0	0	0	0	519	518	
7	0	0	0	0	519	518	
8	0	0	0	0	519	515	
9	0	0	0	0	519	519	
10	0	0	0	0	519	518	
11	0	0	0	0	519	518	
12	0	0	0	0	519	521	
13	0	0	0	0	518	518	
14	0	0	0	0	517	519	
15	0	0	0	0	517	519	
0	0	0	0	0	517	515	
1	0	0	0	0	517	518	
2	0	0	0	0	517	519	
3	0	0	0	0	516	518	
4	0	0	0	0	515	521	
5	0	0	0	0	514	519	
6	0	0	0	0	514	519	
7	0	0	0	0	514	519	
8	0	0	0	0	514	516	
9	0	0	0	0	514	519	
10	0	0	0	0	514	519	
11	0	0	0	0	513	519	
12	0	0	0	0	513	521	
13	0	0	0	0	513	519	
14	0	0	0	0	512	518	
15	0	0	0	0	512	519	
0	0	0	0	0	512	516	
1	0	0	0	0	512	519	
2	0	0	0	0	512	518	
3	0	0	0	0	512	519	
4	0	0	0	0	511	521	
5	0	0	0	0	511	519	
6	0	0	0	0	512	518	
7	0	0	0	0	512	518	
8	0	0	0	0	512	516	
9	0	0	0	0	512	519	
10	0	0	0	0	512	519	
11	0	0	0	0	512	519	
12	0	0	0	0	512	521	
13	0	0	0	0	512	519	
14	0	0	0	0	512	519	
15	0	0	0	0	512	519	
0	0	0	0	0	513	516	
1	0	0	0	0	513	519	
2	0	0	0	0	513	519	
3	0	0	0	0	513	519	
4	0	0	0	0	513	521	
5	0	0	0	0	513	519	
6	0	0	0	0	512	519	
7	0	0	0	0	513	519	
8	0	0	0	0	513	515	
9	0	0	0	0	513	519	
10	0	0	0	0	513	519	
11	0	0	0	0	513	519	
12	0	0	0	0	513	521	
13	0	0	0	0	513	519	
14	0	0	0	0	513	519	
15	0	0	0	0	513	519	
0	0	0	0	0	513	516	
1	0	0	0	0	514	518	
2	0	0	0	0	514	519	
3	0	0	0	0	514	518	
4	0	0	0	0	514	521	
5	0	0	0	0	515	518	
6	0	0	0	0	514	519	
7	0	0	0	0	514	518	
8	0	0	0	0	514	516	
9	0	0	0	0	515	518	
10	0	0	0	0	515	518	
11	0	0	0	0	515	518	
12	0	0	0	0	515	521	
13	0	0	0	0	515	518	
14	0	0	0	0	515	518	
15	0	0	0	0	513	519	
0	0	0	0	0	511	516	
1	0	0	0	0	510	518	
2	0	0	0	0	505	518	
3	0	0	0	0	500	518	
4	0	0	0	0	492	520	
5	0	0	0	0	483	519	
6	0	0	0	0	473	519	
7	0	0	0	0	463	518	
8	0	0	0	0	454	515	
9	0	0	0	0	446	518	
10	0	0	0	0	438	518	
11	0	0	0	0	429	518	
12	0	0	0	0	421	520	
13	0	0	0	0	412	518	
14	0	0	0	0	403	518	
15	0	0	0	0	396	518	
0	0	0	0	0	388	515	
1	0	0	0	0	382	518	
2	0	0	0	0	377	519	
3	0	0	0	0	378	518	
4	0	0	0	0	384	521	
5	0	0	0	0	390	519	
6	0	0	0	0	398	518	
7	0	0	0	0	406	518	
8	0	0	0	0	414	516	
9	0	0	0	0	421	519	
10	0	0	0	0	431	518	
11	0	0	0	0	444	518	
12	0	0	0	0	464	521	
13	0	0	0	0	493	519	
14	0	0	0	0	530	518	
15	0	0	0	0	576	518	
0	0	0	0	0	629	515	
1	0	0	0	0	688	518	
2	0	0	0	0	747	518	
3	0	0	0	0	804	518	
4	0	0	0	0	856	520	
5	0	0	0	0	905	518	
6	0	0	0	0	947	518	
7	0	0	0	0	987	518	
8	0	0	0	0	1018	515	
9	0	0	0	0	1022	518	
10	0	0	0	0	1022	519	
11	0	0	0	0	1022	518	
12	0	0	0	0	1022	520	
13	0	0	0	0	1022	519	
14	0	0	0	0	1022	519	
15	0	0	0	0	1022	519	
0	0	0	0	0	999	515	
1	0	0	0	0	970	518	
2	0	0	0	0	938	519	
3	0	0	0	0	898	519	
4	0	0	0	0	847	521	
5	0	0	0	0	794	518	
6	0	0	0	0	743	519	
7	0	0	0	0	699	518	
8	0	0	0	0	661	516	
9	0	0	0	0	631	518	
10	0	0	0	0	608	519	
11	0	0	0	0	589	518	
12	0	0	0	0	574	521	
13	0	0	0	0	560	519	
14	0	0	0	0	548	519	
15	0	0	0	0	537	519	
0	0	0	0	0	527	517	
1	0	0	0	0	519	519	
2	0	0	0	0	510	519	
3	0	0	0	0	502	519	
4	0	0	0	0	495	521	
5	0	0	0	0	488	519	
6	0	0	0	0	482	519	
7	0	0	0	0	477	519	
8	0	0	0	0	472	516	
9	0	0	0	0	466	519	
10	0	0	0	0	461	518	
11	0	0	0	0	455	519	
12	0	0	0	0	449	520	
13	0	0	0	0	444	518	
14	0	0	0	0	439	519	
15	0	0	0	0	435	519	
0	0	0	0	0	432	515	
1	0	0	0	0	429	519	
2	0	0	0	0	426	518	
3	0	0	0	0	424	518	
4	0	0	0	0	423	520	
5	0	0	0	0	421	518	
6	0	0	0	0	419	518	
7	0	0	0	0	419	518	
8	0	0	0	0	418	515	
9	0	0	0	0	417	519	
10	0	0	0	0	417	518	
11	0	0	0	0	416	518	
12	0	0	0	0	415	520	
13	0	0	0	0	416	517	
14	0	0	0	0	416	518	
15	0	0	0	0	416	518	
0	0	0	0	0	417	515	
1	0	0	0	0	417	518	
2	0	0	0	0	418	518	
3	0	0	0	0	419	517	
4	0	0	0	0	419	520	
5	0	0	0	0	420	518	
6	0	0	0	0	420	518	
7	0	0	0	0	421	518	
8	0	0	0	0	422	516	
9	0	0	0	0	423	519	
10	0	0	0	0	424	518	
11	0	0	0	0	425	519	
12	0	0	0	0	426	521	
13	0	0	0	0	426	518	
14	0	0	0	0	428	519	
15	0	0	0	0	429	518	
0	0	0	0	0	430	515	
1	0	0	0	0	431	518	
2	0	0	0	0	432	518	
3	0	0	0	0	432	519	
4	0	0	0	0	432	521	
5	0	0	0	0	433	519	
6	0	0	0	0	433	519	
7	0	0	0	0	434	519	
8	0	0	0	0	435	515	
9	0	0	0	0	435	519	
10	0	0	0	0	436	518	
11	0	0	0	0	437	519	
12	0	0	0	0	439	521	
13	0	0	0	0	440	519	
14	0	0	0	0	441	519	
15	0	0	0	0	442	519	
0	0	0	0	0	443	516	
1	0	0	0	0	443	518	
2	0	0	0	0	444	518	
3	0	0	0	0	446	518	
4	0	0	0	0	447	520	
5	0	0	0	0	448	518	
6	0	0	0	0	448	519	
7	0	0	0	0	448	518	
8	0	0	0	0	449	516	
9	0	0	0	0	449	519	
10	0	0	0	0	449	518	
11	0	0	0	0	450	518	
12	0	0	0	0	451	521	
13	0	0	0	0	451	519	
14	0	0	0	0	452	519	
15	0	0	0	0	453	519	
0	0	0	0	0	454	516	
1	0	0	0	0	455	519	
2	0	0	0	0	456	519	
3	0	0	0	0	457	518	
4	0	0	0	0	458	521	
5	0	0	0	0	459	519	
6	0	0	0	0	460	518	
7	0	0	0	0	461	518	
8	0	0	0	0	461	515	
9	0	0	0	0	462	519	
10	0	0	0	0	462	519	
11	0	0	0	0	463	518	
12	0	0	0	0	463	521	
13	0	0	0	0	464	518	
14	0	0	0	0	464	518	
15	0	0	0	0	464	519	
0	0	0	0	0	465	515	
1	0	0	0	0	466	519	
2	0	0	0	0	467	518	
3	0	0	0	0	468	518	
4	0	0	0	0	468	520	
5	0	0	0	0	469	518	
6	0	0	0	0	468	518	
7	0	0	0	0	469	518	
8	0	0	0	0	469	516	
9	0	0	0	0	470	519	
10	0	0	0	0	471	518	
11	0	0	0	0	471	518	
12	0	0	0	0	472	520	
13	0	0	0	0	472	518	
14	0	0	0	0	473	518	
15	0	0	0	0	474	519	
0	0	0	0	0	475	516	
1	0	0	0	0	476	518	
2	0	0	0	0	478	519	
3	0	0	0	0	480	518	
4	0	0	0	0	480	521	
5	0	0	0	0	480	519	
6	0	0	0	0	479	519	
7	0	0	0	0	480	519	
8	0	0	0	0	479	515	
9	0	0	0	0	479	518	
10	0	0	0	0	480	519	
11	0	0	0	0	480	519	
12	0	0	0	0	480	521	
13	0	0	0	0	480	518	
14	0	0	0	0	481	518	
15	0	0	0	0	482	519	
0	0	0	0	0	482	516	
1	0	0	0	0	483	518	
2	0	0	0	0	483	518	
3	0	0	0	0	483	518	
4	0	0	0	0	483	521	
5	0	0	0	0	483	519	
6	0	0	0	0	484	519	
7	0	0	0	0	485	518	
8	0	0	0	0	485	515	
9	0	0	0	0	485	518	
10	0	0	0	0	485	518	
11	0	0	0	0	486	518	
12	0	0	0	0	486	520	
13	0	0	0	0	487	518	
14	0	0	0	0	487	518	
15	0	0	0	0	487	518	
0	0	0	0	0	488	515	
1	0	0	0	0	489	518	
2	0	0	0	0	490	518	
3	0	0	0	0	491	518	
4	0	0	0	0	492	520	
5	0	0	0	0	492	518	
6	0	0	0	0	493	518	
7	0	0	0	0	494	519	
8	0	0	0	0	494	516	
9	0	0	0	0	495	519	
10	0	0	0	0	495	518	
11	0	0	0	0	495	518	
12	0	0	0	0	496	521	
13	0	0	0	0	496	519	
14	0	0	0	0	497	519	
15	0	0	0	0	496	518	
0	0	0	0	0	496	516	
1	0	0	0	0	497	519	
2	0	0	0	0	498	519	
3	0	0	0	0	498	518	
4	0	0	0	0	499	521	
5	0	0	0	0	499	519	
6	0	0	0	0	500	519	
7	0	0	0	0	501	519	
8	0	0	0	0	501	516	
9	0	0	0	0	502	519	
10	0	0	0	0	502	519	
11	0	0	0	0	502	519	
12	0	0	0	0	502	521	
13	0	0	0	0	502	519	
14	0	0	0	0	503	519	
15	0	0	0	0	503	519	
0	0	0	0	0	504	516	
1	0	0	0	0	505	518	
2	0	0	0	0	507	518	
3	0	0	0	0	508	519	
4	0	0	0	0	509	521	
5	0	0	0	0	510	519	
6	0	0	0	0	510	519	
7	0	0	0	0	510	519	
8	0	0	0	0	511	516	
9	0	0	0	0	511	519	
10	0	0	0	0	511	519	
11	0	0	0	0	511	519	
12	0	0	0	0	511	521	
13	0	0	0	0	511	519	
14	0	0	0	0	512	519	
15	0	0	0	0	512	519	
0	0	0	0	0	512	516	
1	0	0	0	0	512	519	
2	0	0	0	0	512	519	
3	0	0	0	0	513	518	
4	0	0	0	0	513	521	
5	0	0	0	0	513	519	
6	0	0	0	0	513	519	
7	0	0	0	0	514	519	
8	0	0	0	0	514	516	
9	0	0	0	0	514	519	
10	0	0	0	0	515	519	
11	0	0	0	0	515	519	
12	0	0	0	0	516	521	
13	0	0	0	0	517	519	
14	0	0	0	0	517	519	
15	0	0	0	0	517	519	
0	0	0	0	0	518	517	
1	0	0	0	0	517	519	
2	0	0	0	0	515	518	
3	0	0	0	0	515	519	
4	0	0	0	0	515	521	
5	0	0	0	0	515	519	
6	0	0	0	0	515	518	
7	0	0	0	0	515	519	
8	0	0	0	0	514	516	
9	0	0	0	0	514	519	
10	0	0	0	0	513	519	
11	0	0	0	0	513	519	
12	0	0	0	0	513	521	
13	0	0	0	0	513	518	
14	0	0	0	0	512	518	
15	0	0	0	0	511	518	
0	0	0	0	0	510	515	
1	0	0	0	0	509	518	
2	0	0	0	0	509	518	
3	0	0	0	0	508	518	
4	0	0	0	0	506	520	
5	0	0	0	0	505	519	
6	0	0	0	0	504	519	
7	0	0	0	0	503	518	
8	0	0	0	0	502	515	
9	0	0	0	0	502	519	
10	0	0	0	0	501	518	
11	0	0	0	0	501	518	
12	0	0	0	0	501	521	
13	0	0	0	0	500	518	
14	0	0	0	0	499	518	
15	0	0	0	0	499	518	
0	0	0	0	0	498	515	
1	0	0	0	0	497	518	
2	0	0	0	0	496	517	
3	0	0	0	0	495	517	
4	0	0	0	0	494	520	
5	0	0	0	0	494	518	
6	0	0	0	0	494	518	
7	0	0	0	0	494	518	
8	0	0	0	0	495	515	
9	0	0	0	0	494	518	
10	0	0	0	0	494	518	
11	0	0	0	0	494	518	
12	0	0	0	0	494	521	
13	0	0	0	0	494	518	
14	0	0	0	0	495	519	
15	0	0	0	0	494	518	
0	0	0	0	0	494	516	
1	0	0	0	0	493	518	
2	0	0	0	0	492	519	
3	0	0	0	0	492	518	
4	0	0	0	0	493	521	
5	0	0	0	0	492	518	
6	0	0	0	0	492	519	
7	0	0	0	0	492	519	
8	0	0	0	0	491	516	
9	0	0	0	0	491	519	
10	0	0	0	0	491	519	
11	0	0	0	0	491	518	
12	0	0	0	0	491	521	
13	0	0	0	0	492	519	
14	0	0	0	0	492	519	
15	0	0	0	0	492	519	
0	0	0	0	0	492	516	
1	0	0	0	0	493	519	
2	0	0	0	0	493	519	
3	0	0	0	0	493	519	
4	0	0	0	0	494	522	
5	0	0	0	0	494	519	
6	0	0	0	0	494	520	
7	0	0	0	0	494	519	
8	0	0	0	0	494	516	
9	0	0	0	0	495	519	
10	0	0	0	0	496	519	
11	0	0	0	0	496	519	
12	0	0	0	0	496	521	
13	0	0	0	0	496	519	
14	0	0	0	0	497	519	
15	0	0	0	0	497	519	
0	0	0	0	0	497	516	
1	0	0	0	0	497	519	
2	0	0	0	0	498	519	
3	0	0	0	0	498	519	
4	0	0	0	0	498	521	
5	0	0	0	0	499	519	
6	0	0	0	0	499	519	
7	0	0	0	0	499	519	
8	0	0	0	0	499	516	
9	0	0	0	0	499	519	
10	0	0	0	0	500	519	
11	0	0	0	0	500	519	
12	0	0	0	0	500	521	
13	0	0	0	0	501	519	
14	0	0	0	0	501	519	
15	0	0	0	0	501	518	
0	0	0	0	0	502	516	
1	0	0	0	0	501	519	
2	0	0	0	0	501	519	
3	0	0	0	0	501	519	
4	0	0	0	0	501	521	
5	0	0	0	0	502	519	
6	0	0	0	0	501	519	
7	0	0	0	0	501	519	
8	0	0	0	0	501	515	
9	0	0	0	0	501	518	
10	0	0	0	0	502	519	
11	0	0	0	0	502	519	
12	0	0	0	0	503	521	
13	0	0	0	0	503	519	
14	0	0	0	0	502	518	
15	0	0	0	0	502	519	
0	0	0	0	0	502	516	
1	0	0	0	0	502	518	
2	0	0	0	0	502	518	
3	0	0	0	0	503	518	
4	0	0	0	0	502	521	
5	0	0	0	0	503	518	
6	0	0	0	0	502	518	
7	0	0	0	0	501	518	
8	0	0	0	0	501	515	
9	0	0	0	0	500	518	
10	0	0	0	0	501	518	
11	0	0	0	0	501	518	
12	0	0	0	0	501	521	
13	0	0	0	0	501	518	
14	0	0	0	0	502	518	
15	0	0	0	0	502	518	
0	0	0	0	0	502	515	
1	0	0	0	0	502	518	
2	0	0	0	0	502	518	
3	0	0	0	0	502	519	
4	0	0	0	0	502	521	
5	0	0	0	0	503	519	
6	0	0	0	0	503	518	
7	0	0	0	0	503	518	
8	0	0	0	0	503	516	
9	0	0	0	0	503	518	
10	0	0	0	0	504	518	
11	0	0	0	0	505	519	
12	0	0	0	0	505	520	
13	0	0	0	0	506	519	
14	0	0	0	0	505	519	
15	0	0	0	0	506	519	
0	0	0	0	0	506	516	
1	0	0	0	0	507	519	
2	0	0	0	0	508	519	
3	0	0	0	0	508	519	
4	0	0	0	0	507	521	
5	0	0	0	0	508	518	
6	0	0	0	0	507	518	
7	0	0	0	0	507	518	
8	0	0	0	0	508	516	
9	0	0	0	0	508	518	
10	0	0	0	0	508	519	
11	0	0	0	0	508	518	
12	0	0	0	0	508	521	
13	0	0	0	0	508	519	
14	0	0	0	0	508	519	
15	0	0	0	0	508	519	
0	0	0	0	0	508	516	
1	0	0	0	0	508	519	
2	0	0	0	0	508	518	
3	0	0	0	0	509	519	
4	0	0	0	0	508	521	
5	0	0	0	0	508	519	
6	0	0	0	0	508	519	
7	0	0	0	0	509	519	
8	0	0	0	0	510	517	
9	0	0	0	0	510	519	
10	0	0	0	0	510	519	
11	0	0	0	0	511	519	
12	0	0	0	0	510	521	
13	0	0	0	0	511	518	
14	0	0	0	0	511	519	
15	0	0	0	0	511	519	
0	0	0	0	0	511	516	
1	0	0	0	0	511	519	
2	0	0	0	0	511	518	
3	0	0	0	0	511	519	
4	0	0	0	0	510	521	
5	0	0	0	0	511	518	
6	0	0	0	0	512	519	
7	0	0	0	0	512	519	
8	0	0	0	0	512	515	
9	0	0	0	0	512	518	
10	0	0	0	0	512	519	
11	0	0	0	0	512	518	
12	0	0	0	0	513	521	
13	0	0	0	0	513	519	
14	0	0	0	0	515	519	
15	0	0	0	0	515	519	
0	0	0	0	0	515	516	
1	0	0	0	0	515	519	
2	0	0	0	0	515	519	
3	0	0	0	0	514	519	
4	0	0	0	0	513	521	
5	0	0	0	0	513	519	
6	0	0	0	0	513	519	
7	0	0	0	0	513	519	
8	0	0	0	0	513	516	
9	0	0	0	0	513	519	
10	0	0	0	0	513	519	
11	0	0	0	0	513	519	
12	0	0	0	0	513	521	
13	0	0	0	0	514	519	
14	0	0	0	0	514	519	
15	0	0	0	0	514	519	
0	0	0	0	0	514	516	
1	0	0	0	0	514	518	
2	0	0	0	0	514	518	
3	0	0	0	0	514	518	
4	0	0	0	0	514	520	
5	0	0	0	0	514	519	
6	0	0	0	0	513	518	
7	0	0	0	0	513	518	
8	0	0	0	0	513	515	
9	0	0	0	0	512	518	
10	0	0	0	0	512	518	
11	0	0	0	0	512	519	
12	0	0	0	0	512	521	
13	0	0	0	0	512	519	
14	0	0	0	0	513	518	
15	0	0	0	0	514	518	
0	0	0	0	0	515	516	
1	0	0	0	0	514	519	
2	0	0	0	0	514	518	
3	0	0	0	0	514	518	
4	0	0	0	0	515	521	
5	0	0	0	0	515	519	
6	0	0	0	0	515	519	
7	0	0	0	0	516	519	
8	0	0	0	0	516	515	
9	0	0	0	0	516	519	
10	0	0	0	0	516	519	
11	0	0	0	0	516	519	
12	0	0	0	0	515	521	
13	0	0	0	0	515	518	
14	0	0	0	0	515	519	
15	0	0	0	0	515	518	
0	0	0	0	0	515	515	
1	0	0	0	0	515	518	
2	0	0	0	0	515	519	
3	0	0	0	0	515	518	
4	0	0	0	0	515	520	
5	0	0	0	0	515	518	
6	0	0	0	0	515	519	
7	0	0	0	0	515	519	
8	0	0	0	0	515	515	
9	0	0	0	0	514	518	
10	0	0	0	0	515	518	
11	0	0	0	0	515	519	
12	0	0	0	0	515	521	
13	0	0	0	0	515	519	
14	0	0	0	0	515	518	
15	0	0	0	0	515	518	
0	0	0	0	0	515	516	
1	0	0	0	0	515	518	
2	0	0	0	0	515	518	
3	0	0	0	0	515	518	
4	0	0	0	0	514	521	
5	0	0	0	0	514	519	
6	0	0	0	0	514	518	
7	0	0	0	0	514	518	
8	0	0	0	0	514	515	
9	0	0	0	0	514	518	
10	0	0	0	0	514	518	
11	0	0	0	0	515	518	
12	0	0	0	0	515	520	
13	0	0	0	0	515	519	
14	0	0	0	0	515	518	
15	0	0	0	0	516	519	
0	0	0	0	0	515	516	
1	0	0	0	0	516	518	
2	0	0	0	0	515	518	
3	0	0	0	0	515	519	
4	0	0	0	0	515	521	
5	0	0	0	0	515	519	
6	0	0	0	0	515	519	
7	0	0	0	0	515	519	
8	0	0	0	0	515	516	
9	0	0	0	0	514	519	
10	0	0	0	0	513	519	
11	0	0	0	0	513	519	
12	0	0	0	0	512	521	
13	0	0	0	0	512	519	
14	0	0	0	0	512	519	
15	0	0	0	0	512	518	
0	0	0	0	0	513	516	
1	0	0	0	0	513	519	
2	0	0	0	0	514	519	
3	0	0	0	0	514	519	
4	0	0	0	0	514	521	
5	0	0	0	0	514	518	
6	0	0	0	0	515	518	
7	0	0	0	0	515	519	
8	0	0	0	0	515	516	
9	0	0	0	0	515	519	
10	0	0	0	0	516	518	
11	0	0	0	0	516	518	
12	0	0	0	0	516	521	
13	0	0	0	0	515	519	
14	0	0	0	0	515	518	
15	0	0	0	0	516	519	
0	0	0	0	0	515	515	
1	0	0	0	0	515	518	
2	0	0	0	0	514	518	
3	0	0	0	0	513	518	
4	0	0	0	0	513	520	
5	0	0	0	0	512	518	
6	0	0	0	0	512	518	
7	0	0	0	0	513	518	
8	0	0	0	0	513	515	
9	0	0	0	0	513	518	
10	0	0	0	0	512	518	
11	0	0	0	0	512	518	
12	0	0	0	0	512	520	
13	0	0	0	0	512	518	
14	0	0	0	0	512	518	
15	0	0	0	0	512	518	
0	0	0	0	0	512	515	
1	0	0	0	0	512	518	
2	0	0	0	0	512	518	
3	0	0	0	0	513	518	
4	0	0	0	0	514	520	
5	0	0	0	0	514	519	
6	0	0	0	0	515	518	
7	0	0	0	0	515	518	
8	0	0	0	0	516	515	
9	0	0	0	0	516	518	
10	0	0	0	0	516	518	
11	0	0	0	0	516	518	
12	0	0	0	0	516	520	
13	0	0	0	0	516	518	
14	0	0	0	0	515	517	
15	0	0	0	0	515	518	
0	0	0	0	0	514	515	
1	0	0	0	0	514	518	
2	0	0	0	0	513	518	
3	0	0	0	0	513	518	
4	0	0	0	0	513	520	
5	0	0	0	0	514	518	
6	0	0	0	0	514	518	
7	0	0	0	0	514	518	
8	0	0	0	0	514	515	
9	0	0	0	0	515	518	
10	0	0	0	0	515	518	
11	0	0	0	0	515	518	
12	0	0	0	0	515	520	
13	0	0	0	0	515	518	
14	0	0	0	0	516	518	
15	0	0	0	0	517	518	
0	0	0	0	0	518	515	
1	0	0	0	0	518	518	
2	0	0	0	0	518	519	
3	0	0	0	0	518	519	
4	0	0	0	0	518	521	
5	0	0	0	0	518	518	
6	0	0	0	0	519	518	
7	0	0	0	0	519	518	
8	0	0	0	0	519	516	
9	0	0	0	0	519	518	
10	0	0	0	0	520	519	
11	0	0	0	0	520	519	
12	0	0	0	0	519	521	
13	0	0	0	0	519	519	
14	0	0	0	0	519	519	
15	0	0	0	0	517	518	
0	0	0	0	0	517	516	
1	0	0	0	0	516	518	
2	0	0	0	0	515	518	
3	0	0	0	0	514	518	
4	0	0	0	0	512	520	
5	0	0	0	0	512	519	
6	0	0	0	0	511	518	
7	0	0	0	0	510	518	
8	0	0	0	0	510	515	
9	0	0	0	0	510	518	
10	0	0	0	0	510	518	
11	0	0	0	0	510	518	
12	0	0	0	0	511	521	
13	0	0	0	0	511	518	
14	0	0	0	0	511	518	
15	0	0	0	0	512	518	
0	0	0	0	0	511	515	
1	0	0	0	0	511	518	
2	0	0	0	0	511	517	
3	0	0	0	0	511	518	
4	0	0	0	0	512	520	
5	0	0	0	0	512	518	
6	0	0	0	0	512	518	
7	0	0	0	0	512	518	
8	0	0	0	0	512	515	
9	0	0	0	0	512	518	
10	0	0	0	0	512	518	
11	0	0	0	0	512	518	
12	0	0	0	0	512	521	
13	0	0	0	0	513	518	
14	0	0	0	0	512	518	
15	0	0	0	0	513	518	
0	0	0	0	0	512	515	
1	0	0	0	0	512	518	
2	0	0	0	0	512	518	
3	0	0	0	0	512	518	
4	0	0	0	0	513	520	
5	0	0	0	0	512	517	
6	0	0	0	0	512	518	
7	0	0	0	0	512	518	
8	0	0	0	0	512	515	
9	0	0	0	0	512	518	
10	0	0	0	0	512	518	
11	0	0	0	0	512	518	
12	0	0	0	0	512	520	
13	0	0	0	0	512	518	
14	0	0	0	0	512	518	
15	0	0	0	0	512	518	
0	0	0	0	0	513	515	
1	0	0	0	0	513	518	
2	0	0	0	0	513	518	
3	0	0	0	0	513	518	
4	0	0	0	0	513	521	
5	0	0	0	0	513	518	
6	0	0	0	0	513	519	
7	0	0	0	0	513	518	
8	0	0	0	0	513	515	
9	0	0	0	0	513	518	
10	0	0	0	0	513	518	
11	0	0	0	0	513	518	
12	0	0	0	0	512	520	
13	0	0	0	0	512	518	
14	0	0	0	0	512	519	
15	0	0	0	0	512	519	
0	0	0	0	0	510	515	
1	0	0	0	0	507	518	
2	0	0	0	0	502	519	
3	0	0	0	0	495	518	
4	0	0	0	0	487	520	
5	0	0	0	0	478	519	
6	0	0	0	0	469	518	
7	0	0	0	0	459	519	
8	0	0	0	0	451	515	
9	0	0	0	0	442	519	
10	0	0	0	0	434	518	
11	0	0	0	0	425	518	
12	0	0	0	0	416	520	
13	0	0	0	0	408	518	
14	0	0	0	0	400	519	
15	0	0	0	0	392	519	
0	0	0	0	0	385	515	
1	0	0	0	0	377	519	
2	0	0	0	0	375	518	
3	0	0	0	0	377	519	
4	0	0	0	0	383	521	
5	0	0	0	0	388	519	
6	0	0	0	0	395	518	
7	0	0	0	0	404	519	
8	0	0	0	0	414	516	
9	0	0	0	0	423	519	
10	0	0	0	0	433	519	
11	0	0	0	0	448	518	
12	0	0	0	0	470	521	
13	0	0	0	0	499	519	
14	0	0	0	0	536	519	
15	0	0	0	0	582	519	
0	0	0	0	0	633	515	
1	0	0	0	0	689	518	
2	0	0	0	0	746	519	
3	0	0	0	0	801	518	
4	0	0	0	0	855	521	
5	0	0	0	0	900	518	
6	0	0	0	0	939	518	
7	0	0	0	0	972	518	
8	0	0	0	0	1000	515	
9	0	0	0	0	1020	518	
10	0	0	0	0	1022	518	
11	0	0	0	0	1022	518	
12	0	0	0	0	1022	520	
13	0	0	0	0	1021	518	
14	0	0	0	0	1002	518	
15	0	0	0	0	975	518	
0	0	0	0	0	946	516	
1	0	0	0	0	915	518	
2	0	0	0	0	877	518	
3	0	0	0	0	828	518	
4	0	0	0	0	778	521	
5	0	0	0	0	731	519	
6	0	0	0	0	689	519	
7	0	0	0	0	655	518	
8	0	0	0	0	627	515	
9	0	0	0	0	606	518	
10	0	0	0	0	590	518	
11	0	0	0	0	576	519	
12	0	0	0	0	564	521	
13	0	0	0	0	553	518	
14	0	0	0	0	543	518	
15	0	0	0	0	534	518	
0	0	0	0	0	524	515	
1	0	0	0	0	517	518	
2	0	0	0	0	510	518	
3	0	0	0	0	505	518	
4	0	0	0	0	500	521	
5	0	0	0	0	495	517	
6	0	0	0	0	492	518	
7	0	0	0	0	487	518	
8	0	0	0	0	483	515	
9	0	0	0	0	479	518	
10	0	0	0	0	474	518	
11	0	0	0	0	469	518	
12	0	0	0	0	465	521	
13	0	0	0	0	460	518	
14	0	0	0	0	456	519	
15	0	0	0	0	451	518	
0	0	0	0	0	448	515	
1	0	0	0	0	444	518	
2	0	0	0	0	442	518	
3	0	0	0	0	439	517	
4	0	0	0	0	437	520	
5	0	0	0	0	435	518	
6	0	0	0	0	434	518	
7	0	0	0	0	432	517	
8	0	0	0	0	432	515	
9	0	0	0	0	431	518	
10	0	0	0	0	431	517	
11	0	0	0	0	430	518	
12	0	0	0	0	430	520	
13	0	0	0	0	431	518	
14	0	0	0	0	430	518	
15	0	0	0	0	430	517	
0	0	0	0	0	430	515	
1	0	0	0	0	431	518	
2	0	0	0	0	431	517	
3	0	0	0	0	431	518	
4	0	0	0	0	432	520	
5	0	0	0	0	432	518	
6	0	0	0	0	433	517	
7	0	0	0	0	433	518	
8	0	0	0	0	434	515	
9	0	0	0	0	435	518	
10	0	0	0	0	435	518	
11	0	0	0	0	436	518	
12	0	0	0	0	437	520	
13	0	0	0	0	438	518	
14	0	0	0	0	439	518	
15	0	0	0	0	439	518	
0	0	0	0	0	439	515	
1	0	0	0	0	440	518	
2	0	0	0	0	440	518	
3	0	0	0	0	440	518	
4	0	0	0	0	442	520	
5	0	0	0	0	443	518	
6	0	0	0	0	443	518	
7	0	0	0	0	444	518	
8	0	0	0	0	444	515	
9	0	0	0	0	444	519	
10	0	0	0	0	444	518	
11	0	0	0	0	445	518	
12	0	0	0	0	446	520	
13	0	0	0	0	447	519	
14	0	0	0	0	447	518	
15	0	0	0	0	448	518	
0	0	0	0	0	448	515	
1	0	0	0	0	450	518	
2	0	0	0	0	451	518	
3	0	0	0	0	451	518	
4	0	0	0	0	451	521	
5	0	0	0	0	452	518	
6	0	0	0	0	452	518	
7	0	0	0	0	453	519	
8	0	0	0	0	454	516	
9	0	0	0	0	455	518	
10	0	0	0	0	456	518	
11	0	0	0	0	456	518	
12	0	0	0	0	457	521	
13	0	0	0	0	457	519	
14	0	0	0	0	458	518	
15	0	0	0	0	458	518	
0	0	0	0	0	459	515	
1	0	0	0	0	460	518	
2	0	0	0	0	461	518	
3	0	0	0	0	462	519	
4	0	0	0	0	462	520	
5	0	0	0	0	462	517	
6	0	0	0	0	462	518	
7	0	0	0	0	463	518	
8	0	0	0	0	464	515	
9	0	0	0	0	465	518	
10	0	0	0	0	466	518	
11	0	0	0	0	467	518	
12	0	0	0	0	467	520	
13	0	0	0	0	468	518	
14	0	0	0	0	468	518	
15	0	0	0	0	468	518	
0	0	0	0	0	469	515	
1	0	0	0	0	470	518	
2	0	0	0	0	471	519	
3	0	0	0	0	471	519	
4	0	0	0	0	471	520	
5	0	0	0	0	471	517	
6	0	0	0	0	472	518	
7	0	0	0	0	472	518	
8	0	0	0	0	472	515	
9	0	0	0	0	473	517	
10	0	0	0	0	474	518	
11	0	0	0	0	475	517	
12	0	0	0	0	475	520	
13	0	0	0	0	476	518	
14	0	0	0	0	476	518	
15	0	0	0	0	476	518	
0	0	0	0	0	476	515	
1	0	0	0	0	476	518	
2	0	0	0	0	477	518	
3	0	0	0	0	478	518	
4	0	0	0	0	479	520	
5	0	0	0	0	480	518	
6	0	0	0	0	480	518	
7	0	0	0	0	480	518	
8	0	0	0	0	480	515	
9	0	0	0	0	481	519	
10	0	0	0	0	482	518	
11	0	0	0	0	482	518	
12	0	0	0	0	483	520	
13	0	0	0	0	483	517	
14	0	0	0	0	483	517	
15	0	0	0	0	483	518	
0	0	0	0	0	484	515	
1	0	0	0	0	485	518	
2	0	0	0	0	486	518	
3	0	0	0	0	486	518	
4	0	0	0	0	487	520	
5	0	0	0	0	488	518	
6	0	0	0	0	488	518	
7	0	0	0	0	489	518	
8	0	0	0	0	489	515	
9	0	0	0	0	491	519	
10	0	0	0	0	491	518	
11	0	0	0	0	491	518	
12	0	0	0	0	492	520	
13	0	0	0	0	492	518	
14	0	0	0	0	493	518	
15	0	0	0	0	493	518	
0	0	0	0	0	493	515	
1	0	0	0	0	494	518	
2	0	0	0	0	494	518	
3	0	0	0	0	494	517	
4	0	0	0	0	494	521	
5	0	0	0	0	495	517	
6	0	0	0	0	495	517	
7	0	0	0	0	495	518	
8	0	0	0	0	495	515	
9	0	0	0	0	496	518	
10	0	0	0	0	497	519	
11	0	0	0	0	498	518	
12	0	0	0	0	499	521	
13	0	0	0	0	499	519	
14	0	0	0	0	499	519	
15	0	0	0	0	500	518	
0	0	0	0	0	500	515	
1	0	0	0	0	501	518	
2	0	0	0	0	502	519	
3	0	0	0	0	503	519	
4	0	0	0	0	503	520	
5	0	0	0	0	503	519	
6	0	0	0	0	504	518	
7	0	0	0	0	504	518	
8	0	0	0	0	505	515	
9	0	0	0	0	504	518	
10	0	0	0	0	505	518	
11	0	0	0	0	505	519	
12	0	0	0	0	506	521	
13	0	0	0	0	506	518	
14	0	0	0	0	507	518	
15	0	0	0	0	507	517	
0	0	0	0	0	507	515	
1	0	0	0	0	508	518	
2	0	0	0	0	508	518	
3	0	0	0	0	508	518	
4	0	0	0	0	508	520	
5	0	0	0	0	510	518	
6	0	0	0	0	511	518	
7	0	0	0	0	512	518	
8	0	0	0	0	512	515	
9	0	0	0	0	513	518	
10	0	0	0	0	515	518	
11	0	0	0	0	515	518	
12	0	0	0	0	516	520	
13	0	0	0	0	517	518	
14	0	0	0	0	517	518	
15	0	0	0	0	517	517	
0	0	0	0	0	518	515	
1	0	0	0	0	519	518	
2	0	0	0	0	519	518	
3	0	0	0	0	519	517	
4	0	0	0	0	519	520	
5	0	0	0	0	519	519	
6	0	0	0	0	519	518	
7	0	0	0	0	520	518	
8	0	0	0	0	520	515	
9	0	0	0	0	520	518	
10	0	0	0	0	520	517	
11	0	0	0	0	520	517	
12	0	0	0	0	521	520	
13	0	0	0	0	519	518	
14	0	0	0	0	519	518	
15	0	0	0	0	519	518	
0	0	0	0	0	519	515	
1	0	0	0	0	519	518	
2	0	0	0	0	520	518	
3	0	0	0	0	520	518	
4	0	0	0	0	520	520	
5	0	0	0	0	520	518	
6	0	0	0	0	519	518	
7	0	0	0	0	519	518	
8	0	0	0	0	518	515	
9	0	0	0	0	517	518	
10	0	0	0	0	516	518	
11	0	0	0	0	515	518	
12	0	0	0	0	514	520	
13	0	0	0	0	513	518	
14	0	0	0	0	512	518	
15	0	0	0	0	512	518	
0	0	0	0	0	511	515	
1	0	0	0	0	510	519	
2	0	0	0	0	510	518	
3	0	0	0	0	509	518	
4	0	0	0	0	508	520	
5	0	0	0	0	507	518	
6	0	0	0	0	505	519	
7	0	0	0	0	504	519	
8	0	0	0	0	503	515	
9	0	0	0	0	501	518	
10	0	0	0	0	500	519	
11	0	0	0	0	499	518	
12	0	0	0	0	499	521	
13	0	0	0	0	497	518	
14	0	0	0	0	497	519	
15	0	0	0	0	496	518	
0	0	0	0	0	496	515	
1	0	0	0	0	495	518	
2	0	0	0	0	495	518	
3	0	0	0	0	494	517	
4	0	0	0	0	494	519	
5	0	0	0	0	494	518	
6	0	0	0	0	493	517	
7	0	0	0	0	493	518	
8	0	0	0	0	492	515	
9	0	0	0	0	492	517	
10	0	0	0	0	491	517	
11	0	0	0	0	491	518	
12	0	0	0	0	490	520	
13	0	0	0	0	489	517	
14	0	0	0	0	489	518	
15	0	0	0	0	488	518	
0	0	0	0	0	487	515	
1	0	0	0	0	487	517	
2	0	0	0	0	488	518	
3	0	0	0	0	487	518	
4	0	0	0	0	488	520	
5	0	0	0	0	488	518	
6	0	0	0	0	489	518	
7	0	0	0	0	489	518	
8	0	0	0	0	489	515	
9	0	0	0	0	489	518	
10	0	0	0	0	489	518	
11	0	0	0	0	489	518	
12	0	0	0	0	489	520	
13	0	0	0	0	490	518	
14	0	0	0	0	489	517	
15	0	0	0	0	490	517	
0	0	0	0	0	490	515	
1	0	0	0	0	491	517	
2	0	0	0	0	492	517	
3	0	0	0	0	492	518	
4	0	0	0	0	493	519	
5	0	0	0	0	493	518	
6	0	0	0	0	493	517	
7	0	0	0	0	493	519	
8	0	0	0	0	494	515	
9	0	0	0	0	494	517	
10	0	0	0	0	494	518	
11	0	0	0	0	494	518	
12	0	0	0	0	494	520	
13	0	0	0	0	494	518	
14	0	0	0	0	494	519	
15	0	0	0	0	495	518	
0	0	0	0	0	495	515	
1	0	0	0	0	496	518	
2	0	0	0	0	496	518	
3	0	0	0	0	497	518	
4	0	0	0	0	497	520	
5	0	0	0	0	497	518	
6	0	0	0	0	497	518	
7	0	0	0	0	496	518	
8	0	0	0	0	496	515	
9	0	0	0	0	496	518	
10	0	0	0	0	496	518	
11	0	0	0	0	497	518	
12	0	0	0	0	497	520	
13	0	0	0	0	498	518	
14	0	0	0	0	498	519	
15	0	0	0	0	498	518	
0	0	0	0	0	498	515	
1	0	0	0	0	499	519	
2	0	0	0	0	499	518	
3	0	0	0	0	499	518	
4	0	0	0	0	499	521	
5	0	0	0	0	499	519	
6	0	0	0	0	499	519	
7	0	0	0	0	500	519	
8	0	0	0	0	500	516	
9	0	0	0	0	500	519	
10	0	0	0	0	501	519	
11	0	0	0	0	500	519	
12	0	0	0	0	501	521	
13	0	0	0	0	500	519	
14	0	0	0	0	500	519	
15	0	0	0	0	500	519	
0	0	0	0	0	500	516	
1	0	0	0	0	500	519	
2	0	0	0	0	501	519	
3	0	0	0	0	501	518	
4	0	0	0	0	500	521	
5	0	0	0	0	500	518	
6	0	0	0	0	500	519	
7	0	0	0	0	500	519	
8	0	0	0	0	500	516	
9	0	0	0	0	501	519	
10	0	0	0	0	502	518	
11	0	0	0	0	502	518	
12	0	0	0	0	503	520	
13	0	0	0	0	504	518	
14	0	0	0	0	504	518	
15	0	0	0	0	504	518	
0	0	0	0	0	504	515	
1	0	0	0	0	504	518	
2	0	0	0	0	504	518	
3	0	0	0	0	504	518	
4	0	0	0	0	503	521	
5	0	0	0	0	503	518	
6	0	0	0	0	503	518	
7	0	0	0	0	503	519	
8	0	0	0	0	504	515	
9	0	0	0	0	504	518	
10	0	0	0	0	504	517	
11	0	0	0	0	504	517	
12	0	0	0	0	504	520	
13	0	0	0	0	504	518	
14	0	0	0	0	504	518	
15	0	0	0	0	505	518	
0	0	0	0	0	506	515	
1	0	0	0	0	506	518	
2	0	0	0	0	507	518	
3	0	0	0	0	507	517	
4	0	0	0	0	506	520	
5	0	0	0	0	506	518	
6	0	0	0	0	505	518	
7	0	0	0	0	504	518	
8	0	0	0	0	504	515	
9	0	0	0	0	504	518	
10	0	0	0	0	504	518	
11	0	0	0	0	504	518	
12	0	0	0	0	504	520	
13	0	0	0	0	504	518	
14	0	0	0	0	504	518	
15	0	0	0	0	505	518	
0	0	0	0	0	505	514	
1	0	0	0	0	505	518	
2	0	0	0	0	505	518	
3	0	0	0	0	507	518	
4	0	0	0	0	507	520	
5	0	0	0	0	508	518	
6	0	0	0	0	508	518	
7	0	0	0	0	508	517	
8	0	0	0	0	508	515	
9	0	0	0	0	509	518	
10	0	0	0	0	508	518	
11	0	0	0	0	508	517	
12	0	0	0	0	508	520	
13	0	0	0	0	508	518	
14	0	0	0	0	508	517	
15	0	0	0	0	508	518	
0	0	0	0	0	508	515	
1	0	0	0	0	508	518	
2	0	0	0	0	508	517	
3	0	0	0	0	509	518	
4	0	0	0	0	509	520	
5	0	0	0	0	508	518	
6	0	0	0	0	508	518	
7	0	0	0	0	507	518	
8	0	0	0	0	508	515	
9	0	0	0	0	508	518	
10	0	0	0	0	508	518	
11	0	0	0	0	509	519	
12	0	0	0	0	509	520	
13	0	0	0	0	509	518	
14	0	0	0	0	508	518	
15	0	0	0	0	509	518	
0	0	0	0	0	508	515	
1	0	0	0	0	508	518	
2	0	0	0	0	509	518	
3	0	0	0	0	509	517	
4	0	0	0	0	510	519	
5	0	0	0	0	510	518	
6	0	0	0	0	510	518	
7	0	0	0	0	510	518	
8	0	0	0	0	510	514	
9	0	0	0	0	510	518	
10	0	0	0	0	510	518	
11	0	0	0	0	509	518	
12	0	0	0	0	510	520	
13	0	0	0	0	510	518	
14	0	0	0	0	510	518	
15	0	0	0	0	511	518	
0	0	0	0	0	510	515	
1	0	0	0	0	511	519	
2	0	0	0	0	511	517	
3	0	0	0	0	511	518	
4	0	0	0	0	512	519	
5	0	0	0	0	512	518	
6	0	0	0	0	512	518	
7	0	0	0	0	513	518	
8	0	0	0	0	513	515	
9	0	0	0	0	512	518	
10	0	0	0	0	512	518	
11	0	0	0	0	513	517	
12	0	0	0	0	513	520	
13	0	0	0	0	513	518	
14	0	0	0	0	513	518	
15	0	0	0	0	513	518	
0	0	0	0	0	513	515	
1	0	0	0	0	513	517	
2	0	0	0	0	513	517	
3	0	0	0	0	513	518	
4	0	0	0	0	514	520	
5	0	0	0	0	515	518	
6	0	0	0	0	514	518	
7	0	0	0	0	515	517	
8	0	0	0	0	515	516	
9	0	0	0	0	514	518	
10	0	0	0	0	513	518	
11	0	0	0	0	513	518	
12	0	0	0	0	513	520	
13	0	0	0	0	512	518	
14	0	0	0	0	512	518	
15	0	0	0	0	512	518	
0	0	0	0	0	514	515	
1	0	0	0	0	513	518	
2	0	0	0	0	514	518	
3	0	0	0	0	514	519	
4	0	0	0	0	515	521	
5	0	0	0	0	515	519	
6	0	0	0	0	515	518	
7	0	0	0	0	515	518	
8	0	0	0	0	515	516	
9	0	0	0	0	515	518	
10	0	0	0	0	515	518	
11	0	0	0	0	515	518	
12	0	0	0	0	515	520	
13	0	0	0	0	514	518	
14	0	0	0	0	514	519	
15	0	0	0	0	514	518	
0	0	0	0	0	513	515	
1	0	0	0	0	513	518	
2	0	0	0	0	514	519	
3	0	0	0	0	514	519	
4	0	0	0	0	513	520	
5	0	0	0	0	514	518	
6	0	0	0	0	514	518	
7	0	0	0	0	514	519	
8	0	0	0	0	514	515	
9	0	0	0	0	513	519	
10	0	0	0	0	513	518	
11	0	0	0	0	513	518	
12	0	0	0	0	513	520	
13	0	0	0	0	513	518	
14	0	0	0	0	513	518	
15	0	0	0	0	514	518	
0	0	0	0	0	514	515	
1	0	0	0	0	514	518	
2	0	0	0	0	514	518	
3	0	0	0	0	514	518	
4	0	0	0	0	515	520	
5	0	0	0	0	515	518	
6	0	0	0	0	514	518	
7	0	0	0	0	514	518	
8	0	0	0	0	514	515	
9	0	0	0	0	514	518	
10	0	0	0	0	515	518	
11	0	0	0	0	514	518	
12	0	0	0	0	514	520	
13	0	0	0	0	514	518	
14	0	0	0	0	514	518	
15	0	0	0	0	515	517	
0	0	0	0	0	515	515	
1	0	0	0	0	514	518	
2	0	0	0	0	514	518	
3	0	0	0	0	514	517	
4	0	0	0	0	514	521	
5	0	0	0	0	514	517	
6	0	0	0	0	514	518	
7	0	0	0	0	515	518	
8	0	0	0	0	515	515	
9	0	0	0	0	514	518	
10	0	0	0	0	514	518	
11	0	0	0	0	515	518	
12	0	0	0	0	515	520	
13	0	0	0	0	515	518	
14	0	0	0	0	515	517	
15	0	0	0	0	515	518	
0	0	0	0	0	514	515	
1	0	0	0	0	514	518	
2	0	0	0	0	514	518	
3	0	0	0	0	514	518	
4	0	0	0	0	513	520	
5	0	0	0	0	513	518	
6	0	0	0	0	512	518	
7	0	0	0	0	511	518	
8	0	0	0	0	511	515	
9	0	0	0	0	510	518	
10	0	0	0	0	511	518	
11	0	0	0	0	512	518	
12	0	0	0	0	512	520	
13	0	0	0	0	513	518	
14	0	0	0	0	512	518	
15	0	0	0	0	512	518	
0	0	0	0	0	512	515	
1	0	0	0	0	511	518	
2	0	0	0	0	510	518	
3	0	0	0	0	511	518	
4	0	0	0	0	511	520	
5	0	0	0	0	512	518	
6	0	0	0	0	512	518	
7	0	0	0	0	513	518	
8	0	0	0	0	513	515	
9	0	0	0	0	514	517	
10	0	0	0	0	513	518	
11	0	0	0	0	514	518	
12	0	0	0	0	514	520	
13	0	0	0	0	515	518	
14	0	0	0	0	516	518	
15	0	0	0	0	516	518	
0	0	0	0	0	516	515	
1	0	0	0	0	516	518	
2	0	0	0	0	516	518	
3	0	0	0	0	515	518	
4	0	0	0	0	514	520	
5	0	0	0	0	513	518	
6	0	0	0	0	513	518	
7	0	0	0	0	512	518	
8	0	0	0	0	512	515	
9	0	0	0	0	512	518	
10	0	0	0	0	512	518	
11	0	0	0	0	512	518	
12	0	0	0	0	512	520	
13	0	0	0	0	512	518	
14	0	0	0	0	512	517	
15	0	0	0	0	513	518	
0	0	0	0	0	514	515	
1	0	0	0	0	515	518	
2	0	0	0	0	515	518	
3	0	0	0	0	515	517	
4	0	0	0	0	515	520	
5	0	0	0	0	516	518	
6	0	0	0	0	516	517	
7	0	0	0	0	517	517	
8	0	0	0	0	517	515	
9	0	0	0	0	517	517	
10	0	0	0	0	516	518	
11	0	0	0	0	516	517	
12	0	0	0	0	517	520	
13	0	0	0	0	517	518	
14	0	0	0	0	517	518	
15	0	0	0	0	517	518	
0	0	0	0	0	517	514	
1	0	0	0	0	517	518	
2	0	0	0	0	517	518	
3	0	0	0	0	517	518	
4	0	0	0	0	517	519	
5	0	0	0	0	517	517	
6	0	0	0	0	516	518	
7	0	0	0	0	515	517	
8	0	0	0	0	515	514	
9	0	0	0	0	514	518	
10	0	0	0	0	513	518	
11	0	0	0	0	511	518	
12	0	0	0	0	511	520	
13	0	0	0	0	511	518	
14	0	0	0	0	510	518	
15	0	0	0	0	510	517	
0	0	0	0	0	509	515	
1	0	0	0	0	510	518	
2	0	0	0	0	510	518	
3	0	0	0	0	511	517	
4	0	0	0	0	511	519	
5	0	0	0	0	511	517	
6	0	0	0	0	511	518	
7	0	0	0	0	511	518	
8	0	0	0	0	511	514	
9	0	0	0	0	511	518	
10	0	0	0	0	511	517	
11	0	0	0	0	510	517	
12	0	0	0	0	511	519	
13	0	0	0	0	510	518	
14	0	0	0	0	510	518	
15	0	0	0	0	510	518	
0	0	0	0	0	510	515	
1	0	0	0	0	510	518	
2	0	0	0	0	509	518	
3	0	0	0	0	509	518	
4	0	0	0	0	509	520	
5	0	0	0	0	508	517	
6	0	0	0	0	509	518	
7	0	0	0	0	509	517	
8	0	0	0	0	509	515	
9	0	0	0	0	510	518	
10	0	0	0	0	510	518	
11	0	0	0	0	510	518	
12	0	0	0	0	511	519	
13	0	0	0	0	511	518	
14	0	0	0	0	511	518	
15	0	0	0	0	511	519	
0	0	0	0	0	511	515	
1	0	0	0	0	511	518	
2	0	0	0	0	511	517	
3	0	0	0	0	511	518	
4	0	0	0	0	512	520	
5	0	0	0	0	513	518	
6	0	0	0	0	512	518	
7	0	0	0	0	512	518	
8	0	0	0	0	512	515	
9	0	0	0	0	513	518	
10	0	0	0	0	513	518	
11	0	0	0	0	512	518	
12	0	0	0	0	512	520	
13	0	0	0	0	512	518	
14	0	0	0	0	512	518	
15	0	0	0	0	512	518	
0	0	0	0	0	512	515	
1	0	0	0	0	512	518	
2	0	0	0	0	512	518	
3	0	0	0	0	512	518	
4	0	0	0	0	511	519	
5	0	0	0	0	509	517	
6	0	0	0	0	505	517	
7	0	0	0	0	501	517	
8	0	0	0	0	494	514	
9	0	0	0	0	486	518	
10	0	0	0	0	477	517	
11	0	0	0	0	467	518	
12	0	0	0	0	458	519	
13	0	0	0	0	449	518	
14	0	0	0	0	441	518	
15	0	0	0	0	433	518	
0	0	0	0	0	425	515	
1	0	0	0	0	416	518	
2	0	0	0	0	408	518	
3	0	0	0	0	400	518	
4	0	0	0	0	392	520	
5	0	0	0	0	385	518	
6	0	0	0	0	381	518	
7	0	0	0	0	380	518	
8	0	0	0	0	384	515	
9	0	0	0	0	390	518	
10	0	0	0	0	394	517	
11	0	0	0	0	401	517	
12	0	0	0	0	409	520	
13	0	0	0	0	415	518	
14	0	0	0	0	424	518	
15	0	0	0	0	436	518	
0	0	0	0	0	455	515	
1	0	0	0	0	483	518	
2	0	0	0	0	519	518	
3	0	0	0	0	563	517	
4	0	0	0	0	616	519	
5	0	0	0	0	673	517	
6	0	0	0	0	732	518	
7	0	0	0	0	787	518	
8	0	0	0	0	839	515	
9	0	0	0	0	886	517	
10	0	0	0	0	930	516	
11	0	0	0	0	970	518	
12	0	0	0	0	1004	519	
13	0	0	0	0	1022	518	
14	0	0	0	0	1022	518	
15	0	0	0	0	1022	518	
0	0	0	0	0	1022	515	
1	0	0	0	0	1022	518	
2	0	0	0	0	1022	518	
3	0	0	0	0	1022	518	
4	0	0	0	0	1010	521	
5	0	0	0	0	984	518	
6	0	0	0	0	958	518	
7	0	0	0	0	926	518	
8	0	0	0	0	886	516	
9	0	0	0	0	835	518	
10	0	0	0	0	784	518	
11	0	0	0	0	736	518	
12	0	0	0	0	694	520	
13	0	0	0	0	658	518	
14	0	0	0	0	629	518	
15	0	0	0	0	606	518	
0	0	0	0	0	586	515	
1	0	0	0	0	569	518	
2	0	0	0	0	554	518	
3	0	0	0	0	543	518	
4	0	0	0	0	532	521	
5	0	0	0	0	521	518	
6	0	0	0	0	511	518	
7	0	0	0	0	501	519	
8	0	0	0	0	493	515	
9	0	0	0	0	486	518	
10	0	0	0	0	480	518	
11	0	0	0	0	474	518	
12	0	0	0	0	469	520	
13	0	0	0	0	463	519	
14	0	0	0	0	458	518	
15	0	0	0	0	452	518	
0	0	0	0	0	447	515	
1	0	0	0	0	441	518	
2	0	0	0	0	436	519	
3	0	0	0	0	432	518	
4	0	0	0	0	428	520	
5	0	0	0	0	425	517	
6	0	0	0	0	423	517	
7	0	0	0	0	421	518	
8	0	0	0	0	418	514	
9	0	0	0	0	417	518	
10	0	0	0	0	416	518	
11	0	0	0	0	416	517	
12	0	0	0	0	415	520	
13	0	0	0	0	415	517	
14	0	0	0	0	414	518	
15	0	0	0	0	414	517	
0	0	0	0	0	413	515	
1	0	0	0	0	414	518	
2	0	0	0	0	414	518	
3	0	0	0	0	414	518	
4	0	0	0	0	413	520	
5	0	0	0	0	414	518	
6	0	0	0	0	414	518	
7	0	0	0	0	414	518	
8	0	0	0	0	415	515	
9	0	0	0	0	415	518	
10	0	0	0	0	415	518	
11	0	0	0	0	416	518	
12	0	0	0	0	416	521	
13	0	0	0	0	416	518	
14	0	0	0	0	416	518	
15	0	0	0	0	417	518	
0	0	0	0	0	419	515	
1	0	0	0	0	420	518	
2	0	0	0	0	421	518	
3	0	0	0	0	422	517	
4	0	0	0	0	422	520	
5	0	0	0	0	423	518	
6	0	0	0	0	423	518	
7	0	0	0	0	425	518	
8	0	0	0	0	426	515	
9	0	0	0	0	426	518	
10	0	0	0	0	427	518	
11	0	0	0	0	427	518	
12	0	0	0	0	428	521	
13	0	0	0	0	429	518	
14	0	0	0	0	431	518	
15	0	0	0	0	432	518	
0	0	0	0	0	433	515	
1	0	0	0	0	433	518	
2	0	0	0	0	435	518	
3	0	0	0	0	435	518	
4	0	0	0	0	437	520	
5	0	0	0	0	438	518	
6	0	0	0	0	439	518	
7	0	0	0	0	440	518	
8	0	0	0	0	440	515	
9	0	0	0	0	441	518	
10	0	0	0	0	441	518	
11	0	0	0	0	442	518	
12	0	0	0	0	443	520	
13	0	0	0	0	443	518	
14	0	0	0	0	444	518	
15	0	0	0	0	445	518	
0	0	0	0	0	446	515	
1	0	0	0	0	447	518	
2	0	0	0	0	448	517	
3	0	0	0	0	448	518	
4	0	0	0	0	449	520	
5	0	0	0	0	451	518	
6	0	0	0	0	452	518	
7	0	0	0	0	452	518	
8	0	0	0	0	453	515	
9	0	0	0	0	454	518	
10	0	0	0	0	455	518	
11	0	0	0	0	456	518	
12	0	0	0	0	457	520	
13	0	0	0	0	457	518	
14	0	0	0	0	458	519	
15	0	0	0	0	459	518	
0	0	0	0	0	459	515	
1	0	0	0	0	460	518	
2	0	0	0	0	460	518	
3	0	0	0	0	461	517	
4	0	0	0	0	462	520	
5	0	0	0	0	463	518	
6	0	0	0	0	463	518	
7	0	0	0	0	464	518	
8	0	0	0	0	464	515	
9	0	0	0	0	465	517	
10	0	0	0	0	466	517	
11	0	0	0	0	466	518	
12	0	0	0	0	467	520	
13	0	0	0	0	467	518	
14	0	0	0	0	467	518	
15	0	0	0	0	468	517	
0	0	0	0	0	468	515	
1	0	0	0	0	468	518	
2	0	0	0	0	469	518	
3	0	0	0	0	470	518	
4	0	0	0	0	471	519	
5	0	0	0	0	471	517	
6	0	0	0	0	472	518	
7	0	0	0	0	473	517	
8	0	0	0	0	473	514	
9	0	0	0	0	474	518	
10	0	0	0	0	474	517	
11	0	0	0	0	475	517	
12	0	0	0	0	475	520	
13	0	0	0	0	476	518	
14	0	0	0	0	476	518	
15	0	0	0	0	476	518	
0	0	0	0	0	477	515	
1	0	0	0	0	477	517	
2	0	0	0	0	478	518	
3	0	0	0	0	478	518	
4	0	0	0	0	478	521	
5	0	0	0	0	479	518	
6	0	0	0	0	480	518	
7	0	0	0	0	481	518	
8	0	0	0	0	481	515	
9	0	0	0	0	482	517	
10	0	0	0	0	482	518	
11	0	0	0	0	483	518	
12	0	0	0	0	483	519	
13	0	0	0	0	484	517	
14	0	0	0	0	484	518	
15	0	0	0	0	485	518	
0	0	0	0	0	485	515	
1	0	0	0	0	485	518	
2	0	0	0	0	486	517	
3	0	0	0	0	486	517	
4	0	0	0	0	487	520	
5	0	0	0	0	486	517	
6	0	0	0	0	486	518	
7	0	0	0	0	487	518	
8	0	0	0	0	487	515	
9	0	0	0	0	487	518	
10	0	0	0	0	487	518	
11	0	0	0	0	488	518	
12	0	0	0	0	489	520	
13	0	0	0	0	490	518	
14	0	0	0	0	492	518	
15	0	0	0	0	492	518	
0	0	0	0	0	493	515	
1	0	0	0	0	493	518	
2	0	0	0	0	493	518	
3	0	0	0	0	494	517	
4	0	0	0	0	494	520	
5	0	0	0	0	494	518	
6	0	0	0	0	496	518	
7	0	0	0	0	496	517	
8	0	0	0	0	496	515	
9	0	0	0	0	497	518	
10	0	0	0	0	497	518	
11	0	0	0	0	497	518	
12	0	0	0	0	498	520	
13	0	0	0	0	499	517	
14	0	0	0	0	500	518	
15	0	0	0	0	501	518	
0	0	0	0	0	501	515	
1	0	0	0	0	502	518	
2	0	0	0	0	503	518	
3	0	0	0	0	503	518	
4	0	0	0	0	503	520	
5	0	0	0	0	503	518	
6	0	0	0	0	504	518	
7	0	0	0	0	505	518	
8	0	0	0	0	505	515	
9	0	0	0	0	506	518	
10	0	0	0	0	507	518	
11	0	0	0	0	507	517	
12	0	0	0	0	508	520	
13	0	0	0	0	508	518	
14	0	0	0	0	508	518	
15	0	0	0	0	509	518	
0	0	0	0	0	509	515	
1	0	0	0	0	510	518	
2	0	0	0	0	511	518	
3	0	0	0	0	511	518	
4	0	0	0	0	512	519	
5	0	0	0	0	513	517	
6	0	0	0	0	513	518	
7	0	0	0	0	514	518	
8	0	0	0	0	514	515	
9	0	0	0	0	513	518	
10	0	0	0	0	514	517	
11	0	0	0	0	513	518	
12	0	0	0	0	513	519	
13	0	0	0	0	513	518	
14	0	0	0	0	513	518	
15	0	0	0	0	513	518	
0	0	0	0	0	514	515	
1	0	0	0	0	514	517	
2	0	0	0	0	515	517	
3	0	0	0	0	515	517	
4	0	0	0	0	515	519	
5	0	0	0	0	515	518	
6	0	0	0	0	515	518	
7	0	0	0	0	516	517	
8	0	0	0	0	516	514	
9	0	0	0	0	516	517	
10	0	0	0	0	517	517	
11	0	0	0	0	517	518	
12	0	0	0	0	516	519	
13	0	0	0	0	516	518	
14	0	0	0	0	516	517	
15	0	0	0	0	515	518	
0	0	0	0	0	514	515	
1	0	0	0	0	514	518	
2	0	0	0	0	513	518	
3	0	0	0	0	512	518	
4	0	0	0	0	512	521	
5	0	0	0	0	511	518	
6	0	0	0	0	510	518	
7	0	0	0	0	509	518	
8	0	0	0	0	508	515	
9	0	0	0	0	508	518	
10	0	0	0	0	507	517	
11	0	0	0	0	506	517	
12	0	0	0	0	504	520	
13	0	0	0	0	504	518	
14	0	0	0	0	503	517	
15	0	0	0	0	502	518	
0	0	0	0	0	501	515	
1	0	0	0	0	501	518	
2	0	0	0	0	500	518	
3	0	0	0	0	500	518	
4	0	0	0	0	500	520	
5	0	0	0	0	499	518	
6	0	0	0	0	499	518	
7	0	0	0	0	497	518	
8	0	0	0	0	497	515	
9	0	0	0	0	497	518	
10	0	0	0	0	496	518	
11	0	0	0	0	495	518	
12	0	0	0	0	496	520	
13	0	0	0	0	495	518	
14	0	0	0	0	495	518	
15	0	0	0	0	495	518	
0	0	0	0	0	494	515	
1	0	0	0	0	494	518	
2	0	0	0	0	494	518	
3	0	0	0	0	494	517	
4	0	0	0	0	495	520	
5	0	0	0	0	495	518	
6	0	0	0	0	495	518	
7	0	0	0	0	495	518	
8	0	0	0	0	495	515	
9	0	0	0	0	494	518	
10	0	0	0	0	495	518	
11	0	0	0	0	495	517	
12	0	0	0	0	495	520	
13	0	0	0	0	496	517	
14	0	0	0	0	495	518	
15	0	0	0	0	496	518	
0	0	0	0	0	496	515	
1	0	0	0	0	496	518	
2	0	0	0	0	496	518	
3	0	0	0	0	496	517	
4	0	0	0	0	496	520	
5	0	0	0	0	496	518	
6	0	0	0	0	496	518	
7	0	0	0	0	497	518	
8	0	0	0	0	497	515	
9	0	0	0	0	497	518	
10	0	0	0	0	498	518	
11	0	0	0	0	499	519	
12	0	0	0	0	499	521	
13	0	0	0	0	498	519	
14	0	0	0	0	499	519	
15	0	0	0	0	499	518	
0	0	0	0	0	500	515	
1	0	0	0	0	500	518	
2	0	0	0	0	500	518	
3	0	0	0	0	500	518	
4	0	0	0	0	500	520	
5	0	0	0	0	501	519	
6	0	0	0	0	501	519	
7	0	0	0	0	501	518	
8	0	0	0	0	501	515	
9	0	0	0	0	502	518	
10	0	0	0	0	502	519	
11	0	0	0	0	502	519	
12	0	0	0	0	502	520	
13	0	0	0	0	502	518	
14	0	0	0	0	502	519	
15	0	0	0	0	502	518	
0	0	0	0	0	502	515	
1	0	0	0	0	503	518	
2	0	0	0	0	503	518	
3	0	0	0	0	503	518	
4	0	0	0	0	504	519	
5	0	0	0	0	504	518	
6	0	0	0	0	504	518	
7	0	0	0	0	504	518	
8	0	0	0	0	504	515	
9	0	0	0	0	505	517	
10	0	0	0	0	505	518	
11	0	0	0	0	505	517	
12	0	0	0	0	505	520	
13	0	0	0	0	505	517	
14	0	0	0	0	505	517	
15	0	0	0	0	505	517	
0	0	0	0	0	505	514	
1	0	0	0	0	505	517	
2	0	0	0	0	504	517	
3	0	0	0	0	504	517	
4	0	0	0	0	504	519	
5	0	0	0	0	505	518	
6	0	0	0	0	505	517	
7	0	0	0	0	505	517	
8	0	0	0	0	505	514	
9	0	0	0	0	505	517	
10	0	0	0	0	506	517	
11	0	0	0	0	507	517	
12	0	0	0	0	507	520	
13	0	0	0	0	507	518	
14	0	0	0	0	508	517	
15	0	0	0	0	508	517	
0	0	0	0	0	508	514	
1	0	0	0	0	508	516	
2	0	0	0	0	508	517	
3	0	0	0	0	508	516	
4	0	0	0	0	508	519	
5	0	0	0	0	509	518	
6	0	0	0	0	508	517	
7	0	0	0	0	508	518	
8	0	0	0	0	508	515	
9	0	0	0	0	507	517	
10	0	0	0	0	507	518	
11	0	0	0	0	506	517	
12	0	0	0	0	506	519	
13	0	0	0	0	506	517	
14	0	0	0	0	507	518	
15	0	0	0	0	508	517	
0	0	0	0	0	509	514	
1	0	0	0	0	509	518	
2	0	0	0	0	509	518	
3	0	0	0	0	508	518	
4	0	0	0	0	508	520	
5	0	0	0	0	508	518	
6	0	0	0	0	508	518	
7	0	0	0	0	507	517	
8	0	0	0	0	508	514	
9	0	0	0	0	508	517	
10	0	0	0	0	508	517	
11	0	0	0	0	508	516	
12	0	0	0	0	508	519	
13	0	0	0	0	508	518	
14	0	0	0	0	509	518	
15	0	0	0	0	509	518	
0	0	0	0	0	509	515	
1	0	0	0	0	509	517	
2	0	0	0	0	509	518	
3	0	0	0	0	509	518	
4	0	0	0	0	510	520	
5	0	0	0	0	509	517	
6	0	0	0	0	509	518	
7	0	0	0	0	509	518	
8	0	0	0	0	510	515	
9	0	0	0	0	510	518	
10	0	0	0	0	509	518	
11	0	0	0	0	509	517	
12	0	0	0	0	510	519	
13	0	0	0	0	510	517	
14	0	0	0	0	510	516	
15	0	0	0	0	510	518	
0	0	0	0	0	510	515	
1	0	0	0	0	511	517	
2	0	0	0	0	511	518	
3	0	0	0	0	511	517	
4	0	0	0	0	511	519	
5	0	0	0	0	511	518	
6	0	0	0	0	512	517	
7	0	0	0	0	511	518	
8	0	0	0	0	511	514	
9	0	0	0	0	512	517	
10	0	0	0	0	511	517	
11	0	0	0	0	511	517	
12	0	0	0	0	511	520	
13	0	0	0	0	511	518	
14	0	0	0	0	510	517	
15	0	0	0	0	511	517	
0	0	0	0	0	511	515	
1	0	0	0	0	512	518	
2	0	0	0	0	512	517	
3	0	0	0	0	512	518	
4	0	0	0	0	513	520	
5	0	0	0	0	513	517	
6	0	0	0	0	514	517	
7	0	0	0	0	513	518	
8	0	0	0	0	514	515	
9	0	0	0	0	514	518	
10	0	0	0	0	514	518	
11	0	0	0	0	513	518	
12	0	0	0	0	513	520	
13	0	0	0	0	515	517	
14	0	0	0	0	515	518	
15	0	0	0	0	515	517	
0	0	0	0	0	515	515	
1	0	0	0	0	515	518	
2	0	0	0	0	515	519	
3	0	0	0	0	516	518	
4	0	0	0	0	515	520	
5	0	0	0	0	515	518	
6	0	0	0	0	515	518	
7	0	0	0	0	516	518	
8	0	0	0	0	515	515	
9	0	0	0	0	515	518	
10	0	0	0	0	515	518	
11	0	0	0	0	515	518	
12	0	0	0	0	515	520	
13	0	0	0	0	515	517	
14	0	0	0	0	515	519	
15	0	0	0	0	515	519	
0	0	0	0	0	515	515	
1	0	0	0	0	515	518	
2	0	0	0	0	516	518	
3	0	0	0	0	517	518	
4	0	0	0	0	518	521	
5	0	0	0	0	518	518	
6	0	0	0	0	518	518	
7	0	0	0	0	518	519	
8	0	0	0	0	518	515	
9	0	0	0	0	518	518	
10	0	0	0	0	518	518	
11	0	0	0	0	519	518	
12	0	0	0	0	518	520	
13	0	0	0	0	517	518	
14	0	0	0	0	516	519	
15	0	0	0	0	516	518	
0	0	0	0	0	516	515	
1	0	0	0	0	516	518	
2	0	0	0	0	516	517	
3	0	0	0	0	516	517	
4	0	0	0	0	515	520	
5	0	0	0	0	515	519	
6	0	0	0	0	516	518	
7	0	0	0	0	516	518	
8	0	0	0	0	516	514	
9	0	0	0	0	517	518	
10	0	0	0	0	517	518	
11	0	0	0	0	518	518	
12	0	0	0	0	518	520	
13	0	0	0	0	517	518	
14	0	0	0	0	517	518	
15	0	0	0	0	518	517	
0	0	0	0	0	519	514	
1	0	0	0	0	519	517	
2	0	0	0	0	519	518	
3	0	0	0	0	519	517	
4	0	0	0	0	519	519	
5	0	0	0	0	519	517	
6	0	0	0	0	519	516	
7	0	0	0	0	519	517	
8	0	0	0	0	518	515	
9	0	0	0	0	518	517	
10	0	0	0	0	518	518	
11	0	0	0	0	518	518	
12	0	0	0	0	519	520	
13	0	0	0	0	519	518	
14	0	0	0	0	520	518	
15	0	0	0	0	519	518	
0	0	0	0	0	519	515	
1	0	0	0	0	519	518	
2	0	0	0	0	519	517	
3	0	0	0	0	519	517	
4	0	0	0	0	519	519	
5	0	0	0	0	519	518	
6	0	0	0	0	519	518	
7	0	0	0	0	519	518	
8	0	0	0	0	519	516	
9	0	0	0	0	519	518	
10	0	0	0	0	519	518	
11	0	0	0	0	518	517	
12	0	0	0	0	517	519	
13	0	0	0	0	517	518	
14	0	0	0	0	517	518	
15	0	0	0	0	517	517	
0	0	0	0	0	518	514	
1	0	0	0	0	518	518	
2	0	0	0	0	517	517	
3	0	0	0	0	517	517	
4	0	0	0	0	516	520	
5	0	0	0	0	516	517	
6	0	0	0	0	515	517	
7	0	0	0	0	516	518	
8	0	0	0	0	516	515	
9	0	0	0	0	517	518	
10	0	0	0	0	519	518	
11	0	0	0	0	518	518	
12	0	0	0	0	517	520	
13	0	0	0	0	517	518	
14	0	0	0	0	517	518	
15	0	0	0	0	517	517	
0	0	0	0	0	516	515	
1	0	0	0	0	515	517	
2	0	0	0	0	515	517	
3	0	0	0	0	516	517	
4	0	0	0	0	516	519	
5	0	0	0	0	515	518	
6	0	0	0	0	515	518	
7	0	0	0	0	515	517	
8	0	0	0	0	515	514	
9	0	0	0	0	515	517	
10	0	0	0	0	515	517	
11	0	0	0	0	516	518	
12	0	0	0	0	516	520	
13	0	0	0	0	516	518	
14	0	0	0	0	515	517	
15	0	0	0	0	515	517	
0	0	0	0	0	515	515	
1	0	0	0	0	515	517	
2	0	0	0	0	515	518	
3	0	0	0	0	515	516	
4	0	0	0	0	515	519	
5	0	0	0	0	516	518	
6	0	0	0	0	515	517	
7	0	0	0	0	515	518	
8	0	0	0	0	514	515	
9	0	0	0	0	514	518	
10	0	0	0	0	514	518	
11	0	0	0	0	514	517	
12	0	0	0	0	514	520	
13	0	0	0	0	515	518	
14	0	0	0	0	515	517	
15	0	0	0	0	515	518	
0	0	0	0	0	515	515	
1	0	0	0	0	515	518	
2	0	0	0	0	515	517	
3	0	0	0	0	515	517	
4	0	0	0	0	515	520	
5	0	0	0	0	516	518	
6	0	0	0	0	516	518	
7	0	0	0	0	516	518	
8	0	0	0	0	515	515	
9	0	0	0	0	516	518	
10	0	0	0	0	517	518	
11	0	0	0	0	516	518	
12	0	0	0	0	517	520	
13	0	0	0	0	517	518	
14	0	0	0	0	517	518	
15	0	0	0	0	518	517	
0	0	0	0	0	517	515	
1	0	0	0	0	516	517	
2	0	0	0	0	515	517	
3	0	0	0	0	514	518	
4	0	0	0	0	513	520	
5	0	0	0	0	513	517	
6	0	0	0	0	513	518	
7	0	0	0	0	513	518	
8	0	0	0	0	513	515	
9	0	0	0	0	513	518	
10	0	0	0	0	513	517	
11	0	0	0	0	513	518	
12	0	0	0	0	514	520	
13	0	0	0	0	515	518	
14	0	0	0	0	516	518	
15	0	0	0	0	516	517	
0	0	0	0	0	516	515	
1	0	0	0	0	517	518	
2	0	0	0	0	518	518	
3	0	0	0	0	519	518	
4	0	0	0	0	519	520	
5	0	0	0	0	519	517	
6	0	0	0	0	519	518	
7	0	0	0	0	519	518	
8	0	0	0	0	519	515	
9	0	0	0	0	518	518	
10	0	0	0	0	518	517	
11	0	0	0	0	517	517	
12	0	0	0	0	517	520	
13	0	0	0	0	517	518	
14	0	0	0	0	518	517	
15	0	0	0	0	518	518	
0	0	0	0	0	518	514	
1	0	0	0	0	519	518	
2	0	0	0	0	519	518	
3	0	0	0	0	519	518	
4	0	0	0	0	518	520	
5	0	0	0	0	517	517	
6	0	0	0	0	516	517	
7	0	0	0	0	516	517	
8	0	0	0	0	516	514	
9	0	0	0	0	515	517	
10	0	0	0	0	514	518	
11	0	0	0	0	514	517	
12	0	0	0	0	514	519	
13	0	0	0	0	513	517	
14	0	0	0	0	514	517	
15	0	0	0	0	514	517	
0	0	0	0	0	513	515	
1	0	0	0	0	513	517	
2	0	0	0	0	513	518	
3	0	0	0	0	513	518	
4	0	0	0	0	513	519	
5	0	0	0	0	514	518	
6	0	0	0	0	514	517	
7	0	0	0	0	514	518	
8	0	0	0	0	515	514	
9	0	0	0	0	514	517	
10	0	0	0	0	514	517	
11	0	0	0	0	513	517	
12	0	0	0	0	514	520	
13	0	0	0	0	514	518	
14	0	0	0	0	513	517	
15	0	0	0	0	513	517	
0	0	0	0	0	512	515	
1	0	0	0	0	512	518	
2	0	0	0	0	512	518	
3	0	0	0	0	512	517	
4	0	0	0	0	512	520	
5	0	0	0	0	512	517	
6	0	0	0	0	512	518	
7	0	0	0	0	512	517	
8	0	0	0	0	513	515	
9	0	0	0	0	514	518	
10	0	0	0	0	514	517	
11	0	0	0	0	514	517	
12	0	0	0	0	515	520	
13	0	0	0	0	514	517	
14	0	0	0	0	514	517	
15	0	0	0	0	514	517	
0	0	0	0	0	513	515	
1	0	0	0	0	513	517	
2	0	0	0	0	512	518	
3	0	0	0	0	512	517	
4	0	0	0	0	512	519	
5	0	0	0	0	512	517	
6	0	0	0	0	513	517	
7	0	0	0	0	514	517	
8	0	0	0	0	514	514	
9	0	0	0	0	513	517	
10	0	0	0	0	513	517	
11	0	0	0	0	512	517	
12	0	0	0	0	512	519	
13	0	0	0	0	511	518	
14	0	0	0	0	512	518	
15	0	0	0	0	513	517	
0	0	0	0	0	513	515	
1	0	0	0	0	513	517	
2	0	0	0	0	513	518	
3	0	0	0	0	513	518	
4	0	0	0	0	511	520	
5	0	0	0	0	508	517	
6	0	0	0	0	504	518	
7	0	0	0	0	498	518	
8	0	0	0	0	491	515	
9	0	0	0	0	481	518	
10	0	0	0	0	471	517	
11	0	0	0	0	461	518	
12	0	0	0	0	454	520	
13	0	0	0	0	445	518	
14	0	0	0	0	435	517	
15	0	0	0	0	427	517	
0	0	0	0	0	419	515	
1	0	0	0	0	410	517	
2	0	0	0	0	401	518	
3	0	0	0	0	394	517	
4	0	0	0	0	386	519	
5	0	0	0	0	381	517	
6	0	0	0	0	379	518	
7	0	0	0	0	383	517	
8	0	0	0	0	388	515	
9	0	0	0	0	393	517	
10	0	0	0	0	400	517	
11	0	0	0	0	409	517	
12	0	0	0	0	417	519	
13	0	0	0	0	426	518	
14	0	0	0	0	438	517	
15	0	0	0	0	455	517	
0	0	0	0	0	481	515	
1	0	0	0	0	515	518	
2	0	0	0	0	557	518	
3	0	0	0	0	606	517	
4	0	0	0	0	661	519	
5	0	0	0	0	719	517	
6	0	0	0	0	773	517	
7	0	0	0	0	824	517	
8	0	0	0	0	869	515	
9	0	0	0	0	911	517	
10	0	0	0	0	950	518	
11	0	0	0	0	984	517	
12	0	0	0	0	1011	519	
13	0	0	0	0	1022	517	
14	0	0	0	0	1022	517	
15	0	0	0	0	1022	517	
0	0	0	0	0	1022	515	
1	0	0	0	0	1022	517	
2	0	0	0	0	1022	517	
3	0	0	0	0	1008	518	
4	0	0	0	0	987	520	
5	0	0	0	0	962	518	
6	0	0	0	0	934	517	
7	0	0	0	0	899	518	
8	0	0	0	0	851	515	
9	0	0	0	0	800	517	
10	0	0	0	0	752	518	
11	0	0	0	0	708	517	
12	0	0	0	0	670	520	
13	0	0	0	0	639	517	
14	0	0	0	0	615	518	
15	0	0	0	0	595	518	
0	0	0	0	0	577	515	
1	0	0	0	0	563	518	
2	0	0	0	0	550	517	
3	0	0	0	0	538	518	
4	0	0	0	0	526	520	
5	0	0	0	0	516	517	
6	0	0	0	0	506	517	
7	0	0	0	0	496	518	
8	0	0	0	0	489	515	
9	0	0	0	0	483	518	
10	0	0	0	0	477	518	
11	0	0	0	0	471	518	
12	0	0	0	0	465	520	
13	0	0	0	0	460	518	
14	0	0	0	0	455	518	
15	0	0	0	0	450	518	
0	0	0	0	0	445	515	
1	0	0	0	0	440	518	
2	0	0	0	0	436	518	
3	0	0	0	0	433	518	
4	0	0	0	0	430	520	
5	0	0	0	0	428	517	
6	0	0	0	0	426	517	
7	0	0	0	0	425	518	
8	0	0	0	0	423	515	
9	0	0	0	0	422	517	
10	0	0	0	0	421	517	
11	0	0	0	0	420	518	
12	0	0	0	0	420	520	
13	0	0	0	0	420	518	
14	0	0	0	0	419	518	
15	0	0	0	0	419	518	
0	0	0	0	0	418	515	
1	0	0	0	0	418	517	
2	0	0	0	0	419	517	
3	0	0	0	0	417	517	
4	0	0	0	0	416	519	
5	0	0	0	0	417	516	
6	0	0	0	0	417	517	
7	0	0	0	0	418	517	
8	0	0	0	0	419	514	
9	0	0	0	0	419	517	
10	0	0	0	0	420	517	
11	0	0	0	0	421	517	
12	0	0	0	0	422	519	
13	0	0	0	0	422	517	
14	0	0	0	0	421	516	
15	0	0	0	0	422	516	
0	0	0	0	0	423	514	
1	0	0	0	0	424	517	
2	0	0	0	0	425	518	
3	0	0	0	0	425	518	
4	0	0	0	0	426	519	
5	0	0	0	0	427	517	
6	0	0	0	0	427	518	
7	0	0	0	0	428	518	
8	0	0	0	0	429	515	
9	0	0	0	0	430	517	
10	0	0	0	0	432	518	
11	0	0	0	0	432	518	
12	0	0	0	0	432	520	
13	0	0	0	0	433	518	
14	0	0	0	0	434	518	
15	0	0	0	0	436	519	
0	0	0	0	0	437	515	
1	0	0	0	0	438	518	
2	0	0	0	0	439	518	
3	0	0	0	0	439	517	
4	0	0	0	0	440	520	
5	0	0	0	0	441	518	
6	0	0	0	0	441	517	
7	0	0	0	0	443	517	
8	0	0	0	0	444	515	
9	0	0	0	0	445	518	
10	0	0	0	0	446	517	
11	0	0	0	0	446	517	
12	0	0	0	0	447	519	
13	0	0	0	0	448	517	
14	0	0	0	0	448	518	
15	0	0	0	0	449	518	
0	0	0	0	0	449	515	
1	0	0	0	0	449	518	
2	0	0	0	0	449	518	
3	0	0	0	0	450	518	
4	0	0	0	0	451	520	
5	0	0	0	0	452	518	
6	0	0	0	0	452	519	
7	0	0	0	0	453	518	
8	0	0	0	0	455	515	
9	0	0	0	0	456	518	
10	0	0	0	0	457	518	
11	0	0	0	0	458	517	
12	0	0	0	0	458	520	
13	0	0	0	0	459	518	
14	0	0	0	0	459	518	
15	0	0	0	0	460	518	
0	0	0	0	0	461	515	
1	0	0	0	0	461	518	
2	0	0	0	0	461	518	
3	0	0	0	0	462	517	
4	0	0	0	0	463	519	
5	0	0	0	0	464	517	
6	0	0	0	0	464	518	
7	0	0	0	0	465	517	
8	0	0	0	0	465	514	
9	0	0	0	0	465	517	
10	0	0	0	0	465	517	
11	0	0	0	0	466	517	
12	0	0	0	0	467	519	
13	0	0	0	0	468	517	
14	0	0	0	0	469	516	
15	0	0	0	0	470	516	
0	0	0	0	0	471	514	
1	0	0	0	0	472	517	
2	0	0	0	0	473	516	
3	0	0	0	0	474	516	
4	0	0	0	0	474	519	
5	0	0	0	0	475	516	
6	0	0	0	0	475	517	
7	0	0	0	0	476	516	
8	0	0	0	0	476	514	
9	0	0	0	0	476	517	
10	0	0	0	0	477	517	
11	0	0	0	0	477	517	
12	0	0	0	0	478	519	
13	0	0	0	0	478	516	
14	0	0	0	0	479	517	
15	0	0	0	0	480	516	
0	0	0	0	0	480	515	
1	0	0	0	0	481	517	
2	0	0	0	0	481	517	
3	0	0	0	0	480	517	
4	0	0	0	0	480	519	
5	0	0	0	0	481	517	
6	0	0	0	0	482	518	
7	0	0	0	0	483	517	
8	0	0	0	0	483	515	
9	0	0	0	0	484	518	
10	0	0	0	0	485	517	
11	0	0	0	0	486	517	
12	0	0	0	0	486	519	
13	0	0	0	0	487	516	
14	0	0	0	0	487	517	
15	0	0	0	0	488	517	
0	0	0	0	0	489	514	
1	0	0	0	0	489	516	
2	0	0	0	0	489	517	
3	0	0	0	0	490	517	
4	0	0	0	0	491	519	
5	0	0	0	0	491	517	
6	0	0	0	0	491	517	
7	0	0	0	0	491	517	
8	0	0	0	0	492	513	
9	0	0	0	0	493	516	
10	0	0	0	0	493	517	
11	0	0	0	0	494	516	
12	0	0	0	0	494	520	
13	0	0	0	0	495	517	
14	0	0	0	0	495	518	
15	0	0	0	0	494	518	
0	0	0	0	0	495	514	
1	0	0	0	0	495	518	
2	0	0	0	0	496	517	
3	0	0	0	0	496	517	
4	0	0	0	0	497	520	
5	0	0	0	0	498	518	
6	0	0	0	0	499	517	
7	0	0	0	0	501	518	
8	0	0	0	0	502	515	
9	0	0	0	0	503	518	
10	0	0	0	0	503	517	
11	0	0	0	0	504	518	
12	0	0	0	0	505	519	
13	0	0	0	0	505	517	
14	0	0	0	0	506	517	
15	0	0	0	0	507	519	
0	0	0	0	0	507	516	
1	0	0	0	0	507	518	
2	0	0	0	0	508	518	
3	0	0	0	0	508	519	
4	0	0	0	0	508	520	
5	0	0	0	0	509	518	
6	0	0	0	0	510	518	
7	0	0	0	0	511	518	
8	0	0	0	0	512	515	
9	0	0	0	0	512	518	
10	0	0	0	0	513	518	
11	0	0	0	0	514	518	
12	0	0	0	0	514	520	
13	0	0	0	0	514	517	
14	0	0	0	0	515	518	
15	0	0	0	0	516	518	
0	0	0	0	0	516	514	
1	0	0	0	0	517	518	
2	0	0	0	0	517	517	
3	0	0	0	0	517	517	
4	0	0	0	0	518	519	
5	0	0	0	0	518	517	
6	0	0	0	0	518	517	
7	0	0	0	0	518	516	
8	0	0	0	0	518	514	
9	0	0	0	0	518	518	
10	0	0	0	0	518	517	
11	0	0	0	0	519	516	
12	0	0	0	0	520	519	
13	0	0	0	0	520	517	
14	0	0	0	0	520	517	
15	0	0	0	0	520	516	
0	0	0	0	0	521	514	
1	0	0	0	0	521	516	
2	0	0	0	0	521	517	
3	0	0	0	0	521	517	
4	0	0	0	0	521	519	
5	0	0	0	0	521	517	
6	0	0	0	0	521	517	
7	0	0	0	0	521	517	
8	0	0	0	0	522	514	
9	0	0	0	0	522	516	
10	0	0	0	0	521	517	
11	0	0	0	0	520	517	
12	0	0	0	0	519	519	
13	0	0	0	0	518	518	
14	0	0	0	0	517	517	
15	0	0	0	0	517	517	
0	0	0	0	0	516	515	
1	0	0	0	0	516	517	
2	0	0	0	0	515	517	
3	0	0	0	0	514	517	
4	0	0	0	0	513	519	
5	0	0	0	0	512	517	
6	0	0	0	0	511	517	
7	0	0	0	0	510	516	
8	0	0	0	0	509	514	
9	0	0	0	0	508	517	
10	0	0	0	0	507	517	
11	0	0	0	0	506	516	
12	0	0	0	0	505	519	
13	0	0	0	0	504	517	
14	0	0	0	0	504	517	
15	0	0	0	0	502	517	
0	0	0	0	0	500	514	
1	0	0	0	0	500	516	
2	0	0	0	0	500	517	
3	0	0	0	0	499	517	
4	0	0	0	0	499	519	
5	0	0	0	0	499	517	
6	0	0	0	0	497	517	
7	0	0	0	0	497	517	
8	0	0	0	0	496	514	
9	0	0	0	0	496	517	
10	0	0	0	0	496	517	
11	0	0	0	0	495	517	
12	0	0	0	0	495	519	
13	0	0	0	0	494	517	
14	0	0	0	0	493	517	
15	0	0	0	0	492	518	
0	0	0	0	0	492	514	
1	0	0	0	0	491	518	
2	0	0	0	0	491	518	
3	0	0	0	0	491	517	
4	0	0	0	0	490	520	
5	0	0	0	0	491	518	
6	0	0	0	0	491	518	
7	0	0	0	0	490	518	
8	0	0	0	0	490	515	
9	0	0	0	0	489	517	
10	0	0	0	0	489	517	
11	0	0	0	0	489	517	
12	0	0	0	0	490	519	
13	0	0	0	0	490	517	
14	0	0	0	0	490	518	
15	0	0	0	0	491	518	
0	0	0	0	0	491	515	
1	0	0	0	0	492	518	
2	0	0	0	0	493	518	
3	0	0	0	0	494	518	
4	0	0	0	0	494	520	
5	0	0	0	0	494	518	
6	0	0	0	0	494	518	
7	0	0	0	0	494	518	
8	0	0	0	0	494	515	
9	0	0	0	0	494	517	
10	0	0	0	0	495	518	
11	0	0	0	0	495	518	
12	0	0	0	0	495	520	
13	0	0	0	0	496	518	
14	0	0	0	0	496	517	
15	0	0	0	0	496	518	
0	0	0	0	0	497	515	
1	0	0	0	0	497	518	
2	0	0	0	0	497	517	
3	0	0	0	0	497	518	
4	0	0	0	0	497	520	
5	0	0	0	0	499	518	
6	0	0	0	0	499	518	
7	0	0	0	0	498	518	
8	0	0	0	0	498	515	
9	0	0	0	0	499	517	
10	0	0	0	0	499	518	
11	0	0	0	0	498	517	
12	0	0	0	0	499	520	
13	0	0	0	0	499	517	
14	0	0	0	0	499	517	
15	0	0	0	0	499	517	
0	0	0	0	0	499	515	
1	0	0	0	0	499	517	
2	0	0	0	0	500	517	
3	0	0	0	0	500	517	
4	0	0	0	0	500	520	
5	0	0	0	0	500	517	
6	0	0	0	0	500	518	
7	0	0	0	0	500	518	
8	0	0	0	0	499	514	
9	0	0	0	0	500	518	
10	0	0	0	0	500	517	
11	0	0	0	0	501	517	
12	0	0	0	0	501	519	
13	0	0	0	0	500	516	
14	0	0	0	0	500	517	
15	0	0	0	0	501	517	
0	0	0	0	0	501	514	
1	0	0	0	0	502	517	
2	0	0	0	0	502	517	
3	0	0	0	0	503	518	
4	0	0	0	0	503	519	
5	0	0	0	0	503	516	
6	0	0	0	0	503	517	
7	0	0	0	0	503	516	
8	0	0	0	0	503	514	
9	0	0	0	0	502	517	
10	0	0	0	0	502	516	
11	0	0	0	0	502	517	
12	0	0	0	0	503	519	
13	0	0	0	0	503	516	
14	0	0	0	0	503	516	
15	0	0	0	0	503	516	
0	0	0	0	0	503	514	
1	0	0	0	0	503	516	
2	0	0	0	0	503	516	
3	0	0	0	0	502	516	
4	0	0	0	0	502	519	
5	0	0	0	0	502	516	
6	0	0	0	0	502	516	
7	0	0	0	0	503	516	
8	0	0	0	0	504	514	
9	0	0	0	0	504	516	
10	0	0	0	0	504	516	
11	0	0	0	0	504	516	
12	0	0	0	0	504	519	
13	0	0	0	0	504	517	
14	0	0	0	0	504	516	
15	0	0	0	0	504	517	
0	0	0	0	0	504	513	
1	0	0	0	0	504	517	
2	0	0	0	0	504	517	
3	0	0	0	0	504	517	
4	0	0	0	0	504	519	
5	0	0	0	0	504	516	
6	0	0	0	0	505	517	
7	0	0	0	0	505	516	
8	0	0	0	0	506	514	
9	0	0	0	0	505	517	
10	0	0	0	0	505	516	
11	0	0	0	0	506	517	
12	0	0	0	0	506	519	
13	0	0	0	0	506	517	
14	0	0	0	0	506	517	
15	0	0	0	0	507	516	
0	0	0	0	0	506	514	
1	0	0	0	0	506	517	
2	0	0	0	0	507	516	
3	0	0	0	0	507	517	
4	0	0	0	0	506	519	
5	0	0	0	0	507	517	
6	0	0	0	0	506	517	
7	0	0	0	0	506	517	
8	0	0	0	0	506	514	
9	0	0	0	0	505	516	
10	0	0	0	0	507	517	
11	0	0	0	0	507	517	
12	0	0	0	0	507	519	
13	0	0	0	0	508	518	
14	0	0	0	0	508	517	
15	0	0	0	0	508	518	
0	0	0	0	0	508	514	
1	0	0	0	0	508	517	
2	0	0	0	0	508	517	
3	0	0	0	0	508	517	
4	0	0	0	0	509	520	
5	0	0	0	0	509	517	
6	0	0	0	0	509	517	
7	0	0	0	0	510	517	
8	0	0	0	0	510	514	
9	0	0	0	0	511	517	
10	0	0	0	0	511	517	
11	0	0	0	0	511	517	
12	0	0	0	0	511	519	
13	0	0	0	0	511	518	
14	0	0	0	0	511	517	
15	0	0	0	0	511	517	
0	0	0	0	0	511	514	
1	0	0	0	0	511	517	
2	0	0	0	0	511	517	
3	0	0	0	0	511	517	
4	0	0	0	0	511	519	
5	0	0	0	0	511	517	
6	0	0	0	0	512	517	
7	0	0	0	0	512	516	
8	0	0	0	0	512	513	
9	0	0	0	0	512	517	
10	0	0	0	0	512	517	
11	0	0	0	0	512	516	
12	0	0	0	0	512	519	
13	0	0	0	0	512	517	
14	0	0	0	0	512	517	
15	0	0	0	0	513	517	
0	0	0	0	0	513	514	
1	0	0	0	0	513	517	
2	0	0	0	0	513	517	
3	0	0	0	0	513	517	
4	0	0	0	0	513	520	
5	0	0	0	0	514	517	
6	0	0	0	0	514	517	
7	0	0	0	0	515	518	
8	0	0	0	0	515	514	
9	0	0	0	0	514	517	
10	0	0	0	0	514	517	
11	0	0	0	0	514	517	
12	0	0	0	0	514	520	
13	0	0	0	0	514	517	
14	0	0	0	0	515	518	
15	0	0	0	0	515	518	
0	0	0	0	0	515	515	
1	0	0	0	0	516	518	
2	0	0	0	0	517	518	
3	0	0	0	0	516	518	
4	0	0	0	0	517	520	
5	0	0	0	0	517	517	
6	0	0	0	0	518	518	
7	0	0	0	0	518	517	
8	0	0	0	0	518	515	
9	0	0	0	0	517	518	
10	0	0	0	0	517	518	
11	0	0	0	0	518	518	
12	0	0	0	0	517	519	
13	0	0	0	0	518	517	
14	0	0	0	0	517	517	
15	0	0	0	0	516	517	
0	0	0	0	0	516	514	
1	0	0	0	0	515	518	
2	0	0	0	0	516	518	
3	0	0	0	0	516	517	
4	0	0	0	0	516	519	
5	0	0	0	0	516	517	
6	0	0	0	0	516	517	
7	0	0	0	0	516	516	
8	0	0	0	0	516	514	
9	0	0	0	0	516	516	
10	0	0	0	0	516	516	
11	0	0	0	0	516	516	
12	0	0	0	0	516	519	
13	0	0	0	0	517	517	
14	0	0	0	0	516	517	
15	0	0	0	0	517	517	
0	0	0	0	0	517	515	
1	0	0	0	0	517	517	
2	0	0	0	0	517	518	
3	0	0	0	0	518	517	
4	0	0	0	0	518	519	
5	0	0	0	0	518	517	
6	0	0	0	0	517	517	
7	0	0	0	0	517	516	
8	0	0	0	0	516	513	
9	0	0	0	0	516	516	
10	0	0	0	0	516	517	
11	0	0	0	0	516	516	
12	0	0	0	0	516	520	
13	0	0	0	0	516	517	
14	0	0	0	0	517	517	
15	0	0	0	0	516	517	
0	0	0	0	0	515	514	
1	0	0	0	0	516	517	
2	0	0	0	0	516	516	
3	0	0	0	0	517	516	
4	0	0	0	0	517	519	
5	0	0	0	0	517	517	
6	0	0	0	0	518	517	
7	0	0	0	0	518	516	
8	0	0	0	0	518	513	
9	0	0	0	0	518	516	
10	0	0	0	0	518	516	
11	0	0	0	0	518	517	
12	0	0	0	0	518	519	
13	0	0	0	0	519	516	
14	0	0	0	0	519	516	
15	0	0	0	0	518	516	
0	0	0	0	0	518	512	
1	0	0	0	0	518	516	
2	0	0	0	0	518	517	
3	0	0	0	0	518	516	
4	0	0	0	0	517	518	
5	0	0	0	0	518	516	
6	0	0	0	0	517	516	
7	0	0	0	0	517	516	
8	0	0	0	0	516	513	
9	0	0	0	0	516	516	
10	0	0	0	0	516	516	
11	0	0	0	0	515	515	
12	0	0	0	0	515	519	
13	0	0	0	0	515	516	
14	0	0	0	0	516	516	
15	0	0	0	0	515	516	
0	0	0	0	0	516	513	
1	0	0	0	0	516	516	
2	0	0	0	0	516	516	
3	0	0	0	0	516	516	
4	0	0	0	0	516	519	
5	0	0	0	0	516	516	
6	0	0	0	0	517	517	
7	0	0	0	0	516	516	
8	0	0	0	0	516	513	
9	0	0	0	0	516	517	
10	0	0	0	0	516	516	
11	0	0	0	0	516	516	
12	0	0	0	0	516	519	
13	0	0	0	0	516	516	
14	0	0	0	0	515	516	
15	0	0	0	0	515	516	
0	0	0	0	0	516	514	
1	0	0	0	0	516	516	
2	0	0	0	0	516	516	
3	0	0	0	0	516	516	
4	0	0	0	0	517	519	
5	0	0	0	0	518	516	
6	0	0	0	0	518	516	
7	0	0	0	0	517	516	
8	0	0	0	0	517	514	
9	0	0	0	0	517	516	
10	0	0	0	0	516	516	
11	0	0	0	0	517	516	
12	0	0	0	0	516	519	
13	0	0	0	0	517	516	
14	0	0	0	0	517	516	
15	0	0	0	0	517	516	
0	0	0	0	0	518	512	
1	0	0	0	0	518	516	
2	0	0	0	0	518	515	
3	0	0	0	0	518	516	
4	0	0	0	0	517	519	
5	0	0	0	0	517	515	
6	0	0	0	0	518	516	
7	0	0	0	0	518	516	
8	0	0	0	0	518	513	
9	0	0	0	0	518	516	
10	0	0	0	0	517	516	
11	0	0	0	0	517	515	
12	0	0	0	0	517	518	
13	0	0	0	0	516	516	
14	0	0	0	0	516	517	
15	0	0	0	0	517	515	
0	0	0	0	0	518	513	
1	0	0	0	0	518	516	
2	0	0	0	0	518	516	
3	0	0	0	0	518	516	
4	0	0	0	0	518	519	
5	0	0	0	0	518	515	
6	0	0	0	0	519	516	
7	0	0	0	0	518	515	
8	0	0	0	0	519	513	
9	0	0	0	0	519	516	
10	0	0	0	0	519	516	
11	0	0	0	0	519	516	
12	0	0	0	0	519	519	
13	0	0	0	0	518	515	
14	0	0	0	0	517	516	
15	0	0	0	0	516	516	
0	0	0	0	0	515	513	
1	0	0	0	0	514	516	
2	0	0	0	0	514	515	
3	0	0	0	0	514	516	
4	0	0	0	0	514	519	
5	0	0	0	0	514	515	
6	0	0	0	0	515	515	
7	0	0	0	0	516	516	
8	0	0	0	0	516	512	
9	0	0	0	0	518	516	
10	0	0	0	0	518	515	
11	0	0	0	0	519	515	
12	0	0	0	0	520	518	
13	0	0	0	0	520	515	
14	0	0	0	0	520	515	
15	0	0	0	0	520	515	
0	0	0	0	0	520	512	
1	0	0	0	0	521	516	
2	0	0	0	0	521	516	
3	0	0	0	0	521	516	
4	0	0	0	0	521	518	
5	0	0	0	0	521	515	
6	0	0	0	0	521	516	
7	0	0	0	0	521	516	
8	0	0	0	0	520	513	
9	0	0	0	0	520	516	
10	0	0	0	0	519	516	
11	0	0	0	0	520	517	
12	0	0	0	0	519	519	
13	0	0	0	0	519	517	
14	0	0	0	0	519	516	
15	0	0	0	0	519	516	
0	0	0	0	0	519	513	
1	0	0	0	0	519	516	
2	0	0	0	0	518	517	
3	0	0	0	0	518	516	
4	0	0	0	0	515	519	
5	0	0	0	0	514	517	
6	0	0	0	0	512	517	
7	0	0	0	0	512	516	
8	0	0	0	0	512	513	
9	0	0	0	0	512	515	
10	0	0	0	0	512	516	
11	0	0	0	0	512	516	
12	0	0	0	0	512	518	
13	0	0	0	0	513	516	
14	0	0	0	0	513	515	
15	0	0	0	0	513	515	
0	0	0	0	0	513	513	
1	0	0	0	0	513	515	
2	0	0	0	0	513	515	
3	0	0	0	0	512	515	
4	0	0	0	0	513	518	
5	0	0	0	0	513	516	
6	0	0	0	0	513	515	
7	0	0	0	0	514	516	
8	0	0	0	0	514	512	
9	0	0	0	0	514	515	
10	0	0	0	0	514	516	
11	0	0	0	0	514	515	
12	0	0	0	0	514	519	
13	0	0	0	0	513	516	
14	0	0	0	0	513	515	
15	0	0	0	0	513	516	
0	0	0	0	0	512	514	
1	0	0	0	0	512	516	
2	0	0	0	0	512	516	
3	0	0	0	0	512	516	
4	0	0	0	0	513	519	
5	0	0	0	0	513	516	
6	0	0	0	0	513	516	
7	0	0	0	0	513	516	
8	0	0	0	0	514	515	
9	0	0	0	0	514	517	
10	0	0	0	0	513	517	
11	0	0	0	0	513	517	
12	0	0	0	0	513	519	
13	0	0	0	0	512	516	
14	0	0	0	0	512	517	
15	0	0	0	0	512	517	
0	0	0	0	0	512	515	
1	0	0	0	0	511	517	
2	0	0	0	0	511	517	
3	0	0	0	0	511	517	
4	0	0	0	0	511	519	
5	0	0	0	0	511	516	
6	0	0	0	0	511	516	
7	0	0	0	0	511	516	
8	0	0	0	0	511	513	
9	0	0	0	0	511	516	
10	0	0	0	0	511	515	
11	0	0	0	0	511	516	
12	0	0	0	0	512	519	
13	0	0	0	0	511	516	
14	0	0	0	0	511	516	
15	0	0	0	0	511	516	
0	0	0	0	0	510	513	
1	0	0	0	0	509	516	
2	0	0	0	0	507	516	
3	0	0	0	0	503	516	
4	0	0	0	0	496	518	
5	0	0	0	0	488	517	
6	0	0	0	0	479	516	
7	0	0	0	0	470	516	
8	0	0	0	0	460	514	
9	0	0	0	0	451	517	
10	0	0	0	0	443	517	
11	0	0	0	0	435	516	
12	0	0	0	0	426	518	
13	0	0	0	0	417	515	
14	0	0	0	0	409	516	
15	0	0	0	0	400	516	
0	0	0	0	0	392	513	
1	0	0	0	0	385	515	
2	0	0	0	0	379	516	
3	0	0	0	0	378	516	
4	0	0	0	0	380	519	
5	0	0	0	0	386	516	
6	0	0	0	0	391	516	
7	0	0	0	0	398	516	
8	0	0	0	0	406	513	
9	0	0	0	0	412	516	
10	0	0	0	0	421	516	
11	0	0	0	0	432	515	
12	0	0	0	0	449	518	
13	0	0	0	0	474	515	
14	0	0	0	0	508	515	
15	0	0	0	0	550	515	
0	0	0	0	0	598	512	
1	0	0	0	0	654	515	
2	0	0	0	0	712	515	
3	0	0	0	0	768	515	
4	0	0	0	0	820	518	
5	0	0	0	0	867	515	
6	0	0	0	0	909	515	
7	0	0	0	0	947	516	
8	0	0	0	0	981	512	
9	0	0	0	0	1008	515	
10	0	0	0	0	1022	515	
11	0	0	0	0	1022	515	
12	0	0	0	0	1022	518	
13	0	0	0	0	1022	515	
14	0	0	0	0	1022	515	
15	0	0	0	0	1019	515	
0	0	0	0	0	997	512	
1	0	0	0	0	976	514	
2	0	0	0	0	953	514	
3	0	0	0	0	926	515	
4	0	0	0	0	892	518	
5	0	0	0	0	845	515	
6	0	0	0	0	796	515	
7	0	0	0	0	749	514	
8	0	0	0	0	707	511	
9	0	0	0	0	669	515	
10	0	0	0	0	639	515	
11	0	0	0	0	614	514	
12	0	0	0	0	595	516	
13	0	0	0	0	578	514	
14	0	0	0	0	563	514	
15	0	0	0	0	550	514	
0	0	0	0	0	538	511	
1	0	0	0	0	527	513	
2	0	0	0	0	517	514	
3	0	0	0	0	507	514	
4	0	0	0	0	499	516	
5	0	0	0	0	491	513	
6	0	0	0	0	483	514	
7	0	0	0	0	476	514	
8	0	0	0	0	470	511	
9	0	0	0	0	464	514	
10	0	0	0	0	459	514	
11	0	0	0	0	454	514	
12	0	0	0	0	448	517	
13	0	0	0	0	443	513	
14	0	0	0	0	438	514	
15	0	0	0	0	433	515	
0	0	0	0	0	428	512	
1	0	0	0	0	424	514	
2	0	0	0	0	420	514	
3	0	0	0	0	417	514	
4	0	0	0	0	415	517	
5	0	0	0	0	414	514	
6	0	0	0	0	415	514	
7	0	0	0	0	415	515	
8	0	0	0	0	415	512	
9	0	0	0	0	415	515	
10	0	0	0	0	415	515	
11	0	0	0	0	416	515	
12	0	0	0	0	417	517	
13	0	0	0	0	417	515	
14	0	0	0	0	417	515	
15	0	0	0	0	417	515	
0	0	0	0	0	417	511	
1	0	0	0	0	418	515	
2	0	0	0	0	418	515	
3	0	0	0	0	417	515	
4	0	0	0	0	416	516	
5	0	0	0	0	416	515	
6	0	0	0	0	416	515	
7	0	0	0	0	417	515	
8	0	0	0	0	418	511	
9	0	0	0	0	419	514	
10	0	0	0	0	422	514	
11	0	0	0	0	423	515	
12	0	0	0	0	425	518	
13	0	0	0	0	426	515	
14	0	0	0	0	427	515	
15	0	0	0	0	427	515	
0	0	0	0	0	426	512	
1	0	0	0	0	426	515	
2	0	0	0	0	425	514	
3	0	0	0	0	424	514	
4	0	0	0	0	423	517	
5	0	0	0	0	423	514	
6	0	0	0	0	423	515	
7	0	0	0	0	423	515	
8	0	0	0	0	424	511	
9	0	0	0	0	425	515	
10	0	0	0	0	427	514	
11	0	0	0	0	428	514	
12	0	0	0	0	429	516	
13	0	0	0	0	431	514	
14	0	0	0	0	433	515	
15	0	0	0	0	435	514	
0	0	0	0	0	437	511	
1	0	0	0	0	437	514	
2	0	0	0	0	438	514	
3	0	0	0	0	439	514	
4	0	0	0	0	439	516	
5	0	0	0	0	440	515	
6	0	0	0	0	440	515	
7	0	0	0	0	440	515	
8	0	0	0	0	440	511	
9	0	0	0	0	441	514	
10	0	0	0	0	441	514	
11	0	0	0	0	442	514	
12	0	0	0	0	442	516	
13	0	0	0	0	442	514	
14	0	0	0	0	442	514	
15	0	0	0	0	443	513	
0	0	0	0	0	444	511	
1	0	0	0	0	446	514	
2	0	0	0	0	448	515	
3	0	0	0	0	449	514	
4	0	0	0	0	449	517	
5	0	0	0	0	451	514	
6	0	0	0	0	451	514	
7	0	0	0	0	452	515	
8	0	0	0	0	454	511	
9	0	0	0	0	455	514	
10	0	0	0	0	456	514	
11	0	0	0	0	457	514	
12	0	0	0	0	457	516	
13	0	0	0	0	457	514	
14	0	0	0	0	456	514	
15	0	0	0	0	456	514	
0	0	0	0	0	455	511	
1	0	0	0	0	455	515	
2	0	0	0	0	456	514	
3	0	0	0	0	457	514	
4	0	0	0	0	459	516	
5	0	0	0	0	461	514	
6	0	0	0	0	464	514	
7	0	0	0	0	465	514	
8	0	0	0	0	466	511	
9	0	0	0	0	469	514	
10	0	0	0	0	471	514	
11	0	0	0	0	472	513	
12	0	0	0	0	474	516	
13	0	0	0	0	476	513	
14	0	0	0	0	476	514	
15	0	0	0	0	477	514	
0	0	0	0	0	476	512	
1	0	0	0	0	476	514	
2	0	0	0	0	475	513	
3	0	0	0	0	474	513	
4	0	0	0	0	471	516	
5	0	0	0	0	468	514	
6	0	0	0	0	465	514	
7	0	0	0	0	464	514	
8	0	0	0	0	463	511	
9	0	0	0	0	463	514	
10	0	0	0	0	463	514	
11	0	0	0	0	464	514	
12	0	0	0	0	464	517	
13	0	0	0	0	465	514	
14	0	0	0	0	466	514	
15	0	0	0	0	466	515	
0	0	0	0	0	466	511	
1	0	0	0	0	466	514	
2	0	0	0	0	467	515	
3	0	0	0	0	469	513	
4	0	0	0	0	471	516	
5	0	0	0	0	472	515	
6	0	0	0	0	474	514	
7	0	0	0	0	475	513	
8	0	0	0	0	476	511	
9	0	0	0	0	478	514	
10	0	0	0	0	479	514	
11	0	0	0	0	479	513	
12	0	0	0	0	479	516	
13	0	0	0	0	479	513	
14	0	0	0	0	479	514	
15	0	0	0	0	478	514	
0	0	0	0	0	477	510	
1	0	0	0	0	476	513	
2	0	0	0	0	477	513	
3	0	0	0	0	478	514	
4	0	0	0	0	480	516	
5	0	0	0	0	480	514	
6	0	0	0	0	481	513	
7	0	0	0	0	484	513	
8	0	0	0	0	487	510	
9	0	0	0	0	489	513	
10	0	0	0	0	491	513	
11	0	0	0	0	493	513	
12	0	0	0	0	495	515	
13	0	0	0	0	497	513	
14	0	0	0	0	497	513	
15	0	0	0	0	497	513	
0	0	0	0	0	496	510	
1	0	0	0	0	495	512	
2	0	0	0	0	494	513	
3	0	0	0	0	492	513	
4	0	0	0	0	490	515	
5	0	0	0	0	488	513	
6	0	0	0	0	487	513	
7	0	0	0	0	487	513	
8	0	0	0	0	486	510	
9	0	0	0	0	487	512	
10	0	0	0	0	487	513	
11	0	0	0	0	489	512	
12	0	0	0	0	491	515	
13	0	0	0	0	493	513	
14	0	0	0	0	496	514	
15	0	0	0	0	497	513	
0	0	0	0	0	499	510	
1	0	0	0	0	500	513	
2	0	0	0	0	501	513	
3	0	0	0	0	502	512	
4	0	0	0	0	503	515	
5	0	0	0	0	504	513	
6	0	0	0	0	505	513	
7	0	0	0	0	507	513	
8	0	0	0	0	508	510	
9	0	0	0	0	510	513	
10	0	0	0	0	510	513	
11	0	0	0	0	511	513	
12	0	0	0	0	511	515	
13	0	0	0	0	510	513	
14	0	0	0	0	510	513	
15	0	0	0	0	508	513	
0	0	0	0	0	507	510	
1	0	0	0	0	507	513	
2	0	0	0	0	505	513	
3	0	0	0	0	505	513	
4	0	0	0	0	505	516	
5	0	0	0	0	505	513	
6	0	0	0	0	506	513	
7	0	0	0	0	508	513	
8	0	0	0	0	509	510	
9	0	0	0	0	510	513	
10	0	0	0	0	511	513	
11	0	0	0	0	511	513	
12	0	0	0	0	512	516	
13	0	0	0	0	512	513	
14	0	0	0	0	512	513	
15	0	0	0	0	513	513	
0	0	0	0	0	512	511	
1	0	0	0	0	511	513	
2	0	0	0	0	511	513	
3	0	0	0	0	511	514	
4	0	0	0	0	511	516	
5	0	0	0	0	510	514	
6	0	0	0	0	509	514	
7	0	0	0	0	508	514	
8	0	0	0	0	508	511	
9	0	0	0	0	508	514	
10	0	0	0	0	507	514	
11	0	0	0	0	505	514	
12	0	0	0	0	504	516	
13	0	0	0	0	504	515	
14	0	0	0	0	503	515	
15	0	0	0	0	504	515	
0	0	0	0	0	504	512	
1	0	0	0	0	505	514	
2	0	0	0	0	505	515	
3	0	0	0	0	504	515	
4	0	0	0	0	504	518	
5	0	0	0	0	504	515	
6	0	0	0	0	503	515	
7	0	0	0	0	502	515	
8	0	0	0	0	500	512	
9	0	0	0	0	498	515	
10	0	0	0	0	498	515	
11	0	0	0	0	497	515	
12	0	0	0	0	496	518	
13	0	0	0	0	495	515	
14	0	0	0	0	495	514	
15	0	0	0	0	494	515	
0	0	0	0	0	493	512	
1	0	0	0	0	492	515	
2	0	0	0	0	490	515	
3	0	0	0	0	489	515	
4	0	0	0	0	489	517	
5	0	0	0	0	488	515	
6	0	0	0	0	487	514	
7	0	0	0	0	487	515	
8	0	0	0	0	487	511	
9	0	0	0	0	487	514	
10	0	0	0	0	487	514	
11	0	0	0	0	487	515	
12	0	0	0	0	487	516	
13	0	0	0	0	488	514	
14	0	0	0	0	487	513	
15	0	0	0	0	487	514	
0	0	0	0	0	487	511	
1	0	0	0	0	488	514	
2	0	0	0	0	489	515	
3	0	0	0	0	489	514	
4	0	0	0	0	489	518	
5	0	0	0	0	490	515	
6	0	0	0	0	491	515	
7	0	0	0	0	492	514	
8	0	0	0	0	494	512	
9	0	0	0	0	494	515	
10	0	0	0	0	494	515	
11	0	0	0	0	494	515	
12	0	0	0	0	493	518	
13	0	0	0	0	492	515	
14	0	0	0	0	491	515	
15	0	0	0	0	489	514	
0	0	0	0	0	490	512	
1	0	0	0	0	490	515	
2	0	0	0	0	489	515	
3	0	0	0	0	488	515	
4	0	0	0	0	487	518	
5	0	0	0	0	486	515	
6	0	0	0	0	484	515	
7	0	0	0	0	485	515	
8	0	0	0	0	486	512	
9	0	0	0	0	487	515	
10	0	0	0	0	489	515	
11	0	0	0	0	491	516	
12	0	0	0	0	492	517	
13	0	0	0	0	493	515	
14	0	0	0	0	494	515	
15	0	0	0	0	496	515	
0	0	0	0	0	497	511	
1	0	0	0	0	497	514	
2	0	0	0	0	498	514	
3	0	0	0	0	498	514	
4	0	0	0	0	497	517	
5	0	0	0	0	497	514	
6	0	0	0	0	497	513	
7	0	0	0	0	497	514	
8	0	0	0	0	497	511	
9	0	0	0	0	497	513	
10	0	0	0	0	497	513	
11	0	0	0	0	498	514	
12	0	0	0	0	498	516	
13	0	0	0	0	499	514	
14	0	0	0	0	499	514	
15	0	0	0	0	499	514	
0	0	0	0	0	499	511	
1	0	0	0	0	499	514	
2	0	0	0	0	498	513	
3	0	0	0	0	498	513	
4	0	0	0	0	499	515	
5	0	0	0	0	499	513	
6	0	0	0	0	499	513	
7	0	0	0	0	500	513	
8	0	0	0	0	501	511	
9	0	0	0	0	502	514	
10	0	0	0	0	503	514	
11	0	0	0	0	503	513	
12	0	0	0	0	503	516	
13	0	0	0	0	503	514	
14	0	0	0	0	504	514	
15	0	0	0	0	504	514	
0	0	0	0	0	505	511	
1	0	0	0	0	505	513	
2	0	0	0	0	507	514	
3	0	0	0	0	507	513	
4	0	0	0	0	508	516	
5	0	0	0	0	508	514	
6	0	0	0	0	509	513	
7	0	0	0	0	510	513	
8	0	0	0	0	510	511	
9	0	0	0	0	511	513	
10	0	0	0	0	511	513	
11	0	0	0	0	510	513	
12	0	0	0	0	510	515	
13	0	0	0	0	509	513	
14	0	0	0	0	508	513	
15	0	0	0	0	507	513	
0	0	0	0	0	505	510	
1	0	0	0	0	505	513	
2	0	0	0	0	505	513	
3	0	0	0	0	505	513	
4	0	0	0	0	506	515	
5	0	0	0	0	507	512	
6	0	0	0	0	507	512	
7	0	0	0	0	507	513	
8	0	0	0	0	508	510	
9	0	0	0	0	509	513	
10	0	0	0	0	509	512	
11	0	0	0	0	510	512	
12	0	0	0	0	510	515	
13	0	0	0	0	510	512	
14	0	0	0	0	509	512	
15	0	0	0	0	509	512	
0	0	0	0	0	510	510	
1	0	0	0	0	509	512	
2	0	0	0	0	508	513	
3	0	0	0	0	508	513	
4	0	0	0	0	507	515	
5	0	0	0	0	508	513	
6	0	0	0	0	508	513	
7	0	0	0	0	509	512	
8	0	0	0	0	510	509	
9	0	0	0	0	510	513	
10	0	0	0	0	511	513	
11	0	0	0	0	512	512	
12	0	0	0	0	512	515	
13	0	0	0	0	514	512	
14	0	0	0	0	516	513	
15	0	0	0	0	517	513	
0	0	0	0	0	518	510	
1	0	0	0	0	518	512	
2	0	0	0	0	518	512	
3	0	0	0	0	518	512	
4	0	0	0	0	516	515	
5	0	0	0	0	516	512	
6	0	0	0	0	514	513	
7	0	0	0	0	512	512	
8	0	0	0	0	510	510	
9	0	0	0	0	510	513	
10	0	0	0	0	508	512	
11	0	0	0	0	509	512	
12	0	0	0	0	511	514	
13	0	0	0	0	512	512	
14	0	0	0	0	512	512	
15	0	0	0	0	513	511	
0	0	0	0	0	513	508	
1	0	0	0	0	511	511	
2	0	0	0	0	511	511	
3	0	0	0	0	512	511	
4	0	0	0	0	514	514	
5	0	0	0	0	515	511	
6	0	0	0	0	516	512	
7	0	0	0	0	517	511	
8	0	0	0	0	519	508	
9	0	0	0	0	520	512	
10	0	0	0	0	521	512	
11	0	0	0	0	522	511	
12	0	0	0	0	522	514	
13	0	0	0	0	521	511	
14	0	0	0	0	519	511	
15	0	0	0	0	518	511	
0	0	0	0	0	516	509	
1	0	0	0	0	515	511	
2	0	0	0	0	513	511	
3	0	0	0	0	514	511	
4	0	0	0	0	514	514	
5	0	0	0	0	515	512	
6	0	0	0	0	516	512	
7	0	0	0	0	516	512	
8	0	0	0	0	517	510	
9	0	0	0	0	518	512	
10	0	0	0	0	518	512	
11	0	0	0	0	518	512	
12	0	0	0	0	517	515	
13	0	0	0	0	517	512	
14	0	0	0	0	516	513	
15	0	0	0	0	516	512	
0	0	0	0	0	516	509	
1	0	0	0	0	517	512	
2	0	0	0	0	516	512	
3	0	0	0	0	517	512	
4	0	0	0	0	518	515	
5	0	0	0	0	519	512	
6	0	0	0	0	520	512	
7	0	0	0	0	521	512	
8	0	0	0	0	523	509	
9	0	0	0	0	524	512	
10	0	0	0	0	524	512	
11	0	0	0	0	524	513	
12	0	0	0	0	524	515	
13	0	0	0	0	522	512	
14	0	0	0	0	520	512	
15	0	0	0	0	519	512	
0	0	0	0	0	518	509	
1	0	0	0	0	519	512	
2	0	0	0	0	519	512	
3	0	0	0	0	519	512	
4	0	0	0	0	519	515	
5	0	0	0	0	519	512	
6	0	0	0	0	519	513	
7	0	0	0	0	519	513	
8	0	0	0	0	518	510	
9	0	0	0	0	517	512	
10	0	0	0	0	516	513	
11	0	0	0	0	514	512	
12	0	0	0	0	514	515	
13	0	0	0	0	515	513	
14	0	0	0	0	515	513	
15	0	0	0	0	515	512	
0	0	0	0	0	515	510	
1	0	0	0	0	516	512	
2	0	0	0	0	518	513	
3	0	0	0	0	519	512	
4	0	0	0	0	520	515	
5	0	0	0	0	520	513	
6	0	0	0	0	520	513	
7	0	0	0	0	521	513	
8	0	0	0	0	521	510	
9	0	0	0	0	522	513	
10	0	0	0	0	522	513	
11	0	0	0	0	522	513	
12	0	0	0	0	522	515	
13	0	0	0	0	522	512	
14	0	0	0	0	522	513	
15	0	0	0	0	523	512	
0	0	0	0	0	523	510	
1	0	0	0	0	522	512	
2	0	0	0	0	520	513	
3	0	0	0	0	519	513	
4	0	0	0	0	519	515	
5	0	0	0	0	518	512	
6	0	0	0	0	518	512	
7	0	0	0	0	518	513	
8	0	0	0	0	519	510	
9	0	0	0	0	519	513	
10	0	0	0	0	519	512	
11	0	0	0	0	519	512	
12	0	0	0	0	519	515	
13	0	0	0	0	519	513	
14	0	0	0	0	520	512	
15	0	0	0	0	520	513	
0	0	0	0	0	520	510	
1	0	0	0	0	520	513	
2	0	0	0	0	521	513	
3	0	0	0	0	520	513	
4	0	0	0	0	520	514	
5	0	0	0	0	520	512	
6	0	0	0	0	519	513	
7	0	0	0	0	519	513	
8	0	0	0	0	519	509	
9	0	0	0	0	519	512	
10	0	0	0	0	520	512	
11	0	0	0	0	520	512	
12	0	0	0	0	521	515	
13	0	0	0	0	522	513	
14	0	0	0	0	523	513	
15	0	0	0	0	524	512	
0	0	0	0	0	524	510	
1	0	0	0	0	524	512	
2	0	0	0	0	525	512	
3	0	0	0	0	524	512	
4	0	0	0	0	524	515	
5	0	0	0	0	523	513	
6	0	0	0	0	522	512	
7	0	0	0	0	521	513	
8	0	0	0	0	521	511	
9	0	0	0	0	521	513	
10	0	0	0	0	520	513	
11	0	0	0	0	521	512	
12	0	0	0	0	521	515	
13	0	0	0	0	522	513	
14	0	0	0	0	521	513	
15	0	0	0	0	521	513	
0	0	0	0	0	520	510	
1	0	0	0	0	520	512	
2	0	0	0	0	520	512	
3	0	0	0	0	521	512	
4	0	0	0	0	520	515	
5	0	0	0	0	520	513	
6	0	0	0	0	519	513	
7	0	0	0	0	516	513	
8	0	0	0	0	513	510	
9	0	0	0	0	511	513	
10	0	0	0	0	511	514	
11	0	0	0	0	511	513	
12	0	0	0	0	512	515	
13	0	0	0	0	515	513	
14	0	0	0	0	515	513	
15	0	0	0	0	516	513	
0	0	0	0	0	518	511	
1	0	0	0	0	520	513	
2	0	0	0	0	520	515	
3	0	0	0	0	520	514	
4	0	0	0	0	521	517	
5	0	0	0	0	520	514	
6	0	0	0	0	520	514	
7	0	0	0	0	520	513	
8	0	0	0	0	520	511	
9	0	0	0	0	519	514	
10	0	0	0	0	518	514	
11	0	0	0	0	518	514	
12	0	0	0	0	518	516	
13	0	0	0	0	518	514	
14	0	0	0	0	517	515	
15	0	0	0	0	516	514	
0	0	0	0	0	516	512	
1	0	0	0	0	516	514	
2	0	0	0	0	517	514	
3	0	0	0	0	518	514	
4	0	0	0	0	519	517	
5	0	0	0	0	519	514	
6	0	0	0	0	520	515	
7	0	0	0	0	520	515	
8	0	0	0	0	522	511	
9	0	0	0	0	523	514	
10	0	0	0	0	523	514	
11	0	0	0	0	523	514	
12	0	0	0	0	522	516	
13	0	0	0	0	522	513	
14	0	0	0	0	521	513	
15	0	0	0	0	521	513	
0	0	0	0	0	520	511	
1	0	0	0	0	519	514	
2	0	0	0	0	519	513	
3	0	0	0	0	516	513	
4	0	0	0	0	515	515	
5	0	0	0	0	516	513	
6	0	0	0	0	517	513	
7	0	0	0	0	519	513	
8	0	0	0	0	519	510	
9	0	0	0	0	519	513	
10	0	0	0	0	519	513	
11	0	0	0	0	519	512	
12	0	0	0	0	521	515	
13	0	0	0	0	520	513	
14	0	0	0	0	520	513	
15	0	0	0	0	520	513	
0	0	0	0	0	519	510	
1	0	0	0	0	520	513	
2	0	0	0	0	521	513	
3	0	0	0	0	522	513	
4	0	0	0	0	522	515	
5	0	0	0	0	523	513	
6	0	0	0	0	524	513	
7	0	0	0	0	524	513	
8	0	0	0	0	524	510	
9	0	0	0	0	523	513	
10	0	0	0	0	522	513	
11	0	0	0	0	521	513	
12	0	0	0	0	519	516	
13	0	0	0	0	518	513	
14	0	0	0	0	517	513	
15	0	0	0	0	517	513	
0	0	0	0	0	518	510	
1	0	0	0	0	518	513	
2	0	0	0	0	519	513	
3	0	0	0	0	521	513	
4	0	0	0	0	522	515	
5	0	0	0	0	522	513	
6	0	0	0	0	522	513	
7	0	0	0	0	522	513	
8	0	0	0	0	522	510	
9	0	0	0	0	521	513	
10	0	0	0	0	522	514	
11	0	0	0	0	521	514	
12	0	0	0	0	520	516	
13	0	0	0	0	519	514	
14	0	0	0	0	518	513	
15	0	0	0	0	516	514	
0	0	0	0	0	515	511	
1	0	0	0	0	514	514	
2	0	0	0	0	513	514	
3	0	0	0	0	513	514	
4	0	0	0	0	513	517	
5	0	0	0	0	513	514	
6	0	0	0	0	514	514	
7	0	0	0	0	515	513	
8	0	0	0	0	515	511	
9	0	0	0	0	516	514	
10	0	0	0	0	516	514	
11	0	0	0	0	516	513	
12	0	0	0	0	517	516	
13	0	0	0	0	516	514	
14	0	0	0	0	517	514	
15	0	0	0	0	516	513	
0	0	0	0	0	516	511	
1	0	0	0	0	515	514	
2	0	0	0	0	514	513	
3	0	0	0	0	514	514	
4	0	0	0	0	514	516	
5	0	0	0	0	515	513	
6	0	0	0	0	516	513	
7	0	0	0	0	517	512	
8	0	0	0	0	518	510	
9	0	0	0	0	517	512	
10	0	0	0	0	517	513	
11	0	0	0	0	517	513	
12	0	0	0	0	517	515	
13	0	0	0	0	516	513	
14	0	0	0	0	515	513	
15	0	0	0	0	515	513	
0	0	0	0	0	514	510	
1	0	0	0	0	515	512	
2	0	0	0	0	515	513	
3	0	0	0	0	514	512	
4	0	0	0	0	513	515	
5	0	0	0	0	513	512	
6	0	0	0	0	513	513	
7	0	0	0	0	513	512	
8	0	0	0	0	512	509	
9	0	0	0	0	512	512	
10	0	0	0	0	512	512	
11	0	0	0	0	512	512	
12	0	0	0	0	512	515	
13	0	0	0	0	512	512	
14	0	0	0	0	512	512	
15	0	0	0	0	512	512	
0	0	0	0	0	513	510	
1	0	0	0	0	514	513	
2	0	0	0	0	514	513	
3	0	0	0	0	514	512	
4	0	0	0	0	514	515	
5	0	0	0	0	514	511	
6	0	0	0	0	514	513	
7	0	0	0	0	512	512	
8	0	0	0	0	511	510	
9	0	0	0	0	510	513	
10	0	0	0	0	506	512	
11	0	0	0	0	501	512	
12	0	0	0	0	494	515	
13	0	0	0	0	486	513	
14	0	0	0	0	477	513	
15	0	0	0	0	468	514	
0	0	0	0	0	460	510	
1	0	0	0	0	452	513	
2	0	0	0	0	445	513	
3	0	0	0	0	437	513	
4	0	0	0	0	429	515	
5	0	0	0	0	420	513	
6	0	0	0	0	411	512	
7	0	0	0	0	404	513	
8	0	0	0	0	398	511	
9	0	0	0	0	391	513	
10	0	0	0	0	387	513	
11	0	0	0	0	386	513	
12	0	0	0	0	389	515	
13	0	0	0	0	391	513	
14	0	0	0	0	395	512	
15	0	0	0	0	401	512	
0	0	0	0	0	407	510	
1	0	0	0	0	412	512	
2	0	0	0	0	419	512	
3	0	0	0	0	429	513	
4	0	0	0	0	446	515	
5	0	0	0	0	471	512	
6	0	0	0	0	502	513	
7	0	0	0	0	541	512	
8	0	0	0	0	585	510	
9	0	0	0	0	633	512	
10	0	0	0	0	683	511	
11	0	0	0	0	731	512	
12	0	0	0	0	776	513	
13	0	0	0	0	816	511	
14	0	0	0	0	851	512	
15	0	0	0	0	881	511	
0	0	0	0	0	908	508	
1	0	0	0	0	929	511	
2	0	0	0	0	944	511	
3	0	0	0	0	952	512	
4	0	0	0	0	956	513	
5	0	0	0	0	954	511	
6	0	0	0	0	949	511	
7	0	0	0	0	936	510	
8	0	0	0	0	920	507	
9	0	0	0	0	902	511	
10	0	0	0	0	881	510	
11	0	0	0	0	849	510	
12	0	0	0	0	805	513	
13	0	0	0	0	762	510	
14	0	0	0	0	722	510	
15	0	0	0	0	689	511	
0	0	0	0	0	660	508	
1	0	0	0	0	637	511	
2	0	0	0	0	618	510	
3	0	0	0	0	601	511	
4	0	0	0	0	586	512	
5	0	0	0	0	572	510	
6	0	0	0	0	560	510	
7	0	0	0	0	549	510	
8	0	0	0	0	539	507	
9	0	0	0	0	529	510	
10	0	0	0	0	521	509	
11	0	0	0	0	513	510	
12	0	0	0	0	508	512	
13	0	0	0	0	504	509	
14	0	0	0	0	499	510	
15	0	0	0	0	496	510	
0	0	0	0	0	493	507	
1	0	0	0	0	492	510	
2	0	0	0	0	489	510	
3	0	0	0	0	486	510	
4	0	0	0	0	482	512	
5	0	0	0	0	477	510	
6	0	0	0	0	472	509	
7	0	0	0	0	467	509	
8	0	0	0	0	463	507	
9	0	0	0	0	458	509	
10	0	0	0	0	454	510	
11	0	0	0	0	449	510	
12	0	0	0	0	445	512	
13	0	0	0	0	442	510	
14	0	0	0	0	440	510	
15	0	0	0	0	438	509	
0	0	0	0	0	437	507	
1	0	0	0	0	436	510	
2	0	0	0	0	436	509	
3	0	0	0	0	438	511	
4	0	0	0	0	438	513	
5	0	0	0	0	440	510	
6	0	0	0	0	441	510	
7	0	0	0	0	441	510	
8	0	0	0	0	441	508	
9	0	0	0	0	440	510	
10	0	0	0	0	440	511	
11	0	0	0	0	440	511	
12	0	0	0	0	441	514	
13	0	0	0	0	441	511	
14	0	0	0	0	441	511	
15	0	0	0	0	441	511	
0	0	0	0	0	441	508	
1	0	0	0	0	441	511	
2	0	0	0	0	442	511	
3	0	0	0	0	442	510	
4	0	0	0	0	443	513	
5	0	0	0	0	442	510	
6	0	0	0	0	442	511	
7	0	0	0	0	442	511	
8	0	0	0	0	442	508	
9	0	0	0	0	442	511	
10	0	0	0	0	443	510	
11	0	0	0	0	443	510	
12	0	0	0	0	444	512	
13	0	0	0	0	446	510	
14	0	0	0	0	447	510	
15	0	0	0	0	449	509	
0	0	0	0	0	451	507	
1	0	0	0	0	452	509	
2	0	0	0	0	453	509	
3	0	0	0	0	454	510	
4	0	0	0	0	455	512	
5	0	0	0	0	455	510	
6	0	0	0	0	456	509	
7	0	0	0	0	457	510	
8	0	0	0	0	456	508	
9	0	0	0	0	455	510	
10	0	0	0	0	453	511	
11	0	0	0	0	452	511	
12	0	0	0	0	452	513	
13	0	0	0	0	454	511	
14	0	0	0	0	455	511	
15	0	0	0	0	455	511	
0	0	0	0	0	458	508	
1	0	0	0	0	460	511	
2	0	0	0	0	462	511	
3	0	0	0	0	464	511	
4	0	0	0	0	465	514	
5	0	0	0	0	466	511	
6	0	0	0	0	467	511	
7	0	0	0	0	467	512	
8	0	0	0	0	467	508	
9	0	0	0	0	467	512	
10	0	0	0	0	467	511	
11	0	0	0	0	467	511	
12	0	0	0	0	467	515	
13	0	0	0	0	467	512	
14	0	0	0	0	467	511	
15	0	0	0	0	467	511	
0	0	0	0	0	468	508	
1	0	0	0	0	471	511	
2	0	0	0	0	472	511	
3	0	0	0	0	475	511	
4	0	0	0	0	476	514	
5	0	0	0	0	476	511	
6	0	0	0	0	476	512	
7	0	0	0	0	474	512	
8	0	0	0	0	473	509	
9	0	0	0	0	473	512	
10	0	0	0	0	472	512	
11	0	0	0	0	473	512	
12	0	0	0	0	473	514	
13	0	0	0	0	474	511	
14	0	0	0	0	476	511	
15	0	0	0	0	476	512	
0	0	0	0	0	479	508	
1	0	0	0	0	480	512	
2	0	0	0	0	482	511	
3	0	0	0	0	482	511	
4	0	0	0	0	482	514	
5	0	0	0	0	482	512	
6	0	0	0	0	482	511	
7	0	0	0	0	482	512	
8	0	0	0	0	482	509	
9	0	0	0	0	481	512	
10	0	0	0	0	481	511	
11	0	0	0	0	480	511	
12	0	0	0	0	481	515	
13	0	0	0	0	481	512	
14	0	0	0	0	483	511	
15	0	0	0	0	484	512	
0	0	0	0	0	485	509	
1	0	0	0	0	485	512	
2	0	0	0	0	486	512	
3	0	0	0	0	487	511	
4	0	0	0	0	487	514	
5	0	0	0	0	488	511	
6	0	0	0	0	488	511	
7	0	0	0	0	489	512	
8	0	0	0	0	489	509	
9	0	0	0	0	490	512	
10	0	0	0	0	490	512	
11	0	0	0	0	490	512	
12	0	0	0	0	490	514	
13	0	0	0	0	490	512	
14	0	0	0	0	491	512	
15	0	0	0	0	491	512	
0	0	0	0	0	491	509	
1	0	0	0	0	492	511	
2	0	0	0	0	492	512	
3	0	0	0	0	492	512	
4	0	0	0	0	493	514	
5	0	0	0	0	493	512	
6	0	0	0	0	493	512	
7	0	0	0	0	494	512	
8	0	0	0	0	494	509	
9	0	0	0	0	494	512	
10	0	0	0	0	495	511	
11	0	0	0	0	495	511	
12	0	0	0	0	495	514	
13	0	0	0	0	496	512	
14	0	0	0	0	496	512	
15	0	0	0	0	497	512	
0	0	0	0	0	498	509	
1	0	0	0	0	499	512	
2	0	0	0	0	499	512	
3	0	0	0	0	499	512	
4	0	0	0	0	499	514	
5	0	0	0	0	500	511	
6	0	0	0	0	500	512	
7	0	0	0	0	501	513	
8	0	0	0	0	502	509	
9	0	0	0	0	502	512	
10	0	0	0	0	502	513	
11	0	0	0	0	502	512	
12	0	0	0	0	503	515	
13	0	0	0	0	503	512	
14	0	0	0	0	503	511	
15	0	0	0	0	504	511	
0	0	0	0	0	506	509	
1	0	0	0	0	507	512	
2	0	0	0	0	508	512	
3	0	0	0	0	508	511	
4	0	0	0	0	508	514	
5	0	0	0	0	509	512	
6	0	0	0	0	509	512	
7	0	0	0	0	508	511	
8	0	0	0	0	507	509	
9	0	0	0	0	507	511	
10	0	0	0	0	507	512	
11	0	0	0	0	506	512	
12	0	0	0	0	505	514	
13	0	0	0	0	505	511	
14	0	0	0	0	505	511	
15	0	0	0	0	507	512	
0	0	0	0	0	509	509	
1	0	0	0	0	510	511	
2	0	0	0	0	512	511	
3	0	0	0	0	513	511	
4	0	0	0	0	515	513	
5	0	0	0	0	517	511	
6	0	0	0	0	518	511	
7	0	0	0	0	519	511	
8	0	0	0	0	520	508	
9	0	0	0	0	520	510	
10	0	0	0	0	521	510	
11	0	0	0	0	521	510	
12	0	0	0	0	521	513	
13	0	0	0	0	521	510	
14	0	0	0	0	521	510	
15	0	0	0	0	522	510	
0	0	0	0	0	523	508	
1	0	0	0	0	523	510	
2	0	0	0	0	522	510	
3	0	0	0	0	521	509	
4	0	0	0	0	521	512	
5	0	0	0	0	520	510	
6	0	0	0	0	519	510	
7	0	0	0	0	520	509	
8	0	0	0	0	520	506	
9	0	0	0	0	521	508	
10	0	0	0	0	522	509	
11	0	0	0	0	522	510	
12	0	0	0	0	522	512	
13	0	0	0	0	521	509	
14	0	0	0	0	519	509	
15	0	0	0	0	517	509	
0	0	0	0	0	515	507	
1	0	0	0	0	512	509	
2	0	0	0	0	511	510	
3	0	0	0	0	510	509	
4	0	0	0	0	509	512	
5	0	0	0	0	510	509	
6	0	0	0	0	511	509	
7	0	0	0	0	511	509	
8	0	0	0	0	511	507	
9	0	0	0	0	510	509	
10	0	0	0	0	508	508	
11	0	0	0	0	508	508	
12	0	0	0	0	507	511	
13	0	0	0	0	508	508	
14	0	0	0	0	507	508	
15	0	0	0	0	507	508	
0	0	0	0	0	505	505	
1	0	0	0	0	505	508	
2	0	0	0	0	504	508	
3	0	0	0	0	503	508	
4	0	0	0	0	502	510	
5	0	0	0	0	501	508	
6	0	0	0	0	500	507	
7	0	0	0	0	499	507	
8	0	0	0	0	498	504	
9	0	0	0	0	497	507	
10	0	0	0	0	496	508	
11	0	0	0	0	495	507	
12	0	0	0	0	493	510	
13	0	0	0	0	492	507	
14	0	0	0	0	491	507	
15	0	0	0	0	491	507	
0	0	0	0	0	491	504	
1	0	0	0	0	492	507	
2	0	0	0	0	493	507	
3	0	0	0	0	494	507	
4	0	0	0	0	494	509	
5	0	0	0	0	494	507	
6	0	0	0	0	494	508	
7	0	0	0	0	495	507	
8	0	0	0	0	496	504	
9	0	0	0	0	495	507	
10	0	0	0	0	495	507	
11	0	0	0	0	494	507	
12	0	0	0	0	493	510	
13	0	0	0	0	491	507	
14	0	0	0	0	490	507	
15	0	0	0	0	489	508	
0	0	0	0	0	489	505	
1	0	0	0	0	488	508	
2	0	0	0	0	488	507	
3	0	0	0	0	488	507	
4	0	0	0	0	491	509	
5	0	0	0	0	494	508	
6	0	0	0	0	497	507	
7	0	0	0	0	499	507	
8	0	0	0	0	499	504	
9	0	0	0	0	500	507	
10	0	0	0	0	499	508	
11	0	0	0	0	498	507	
12	0	0	0	0	497	510	
13	0	0	0	0	496	507	
14	0	0	0	0	495	507	
15	0	0	0	0	494	507	
0	0	0	0	0	494	505	
1	0	0	0	0	494	507	
2	0	0	0	0	495	507	
3	0	0	0	0	495	507	
4	0	0	0	0	495	509	
5	0	0	0	0	496	507	
6	0	0	0	0	496	506	
7	0	0	0	0	496	506	
8	0	0	0	0	495	503	
9	0	0	0	0	496	507	
10	0	0	0	0	496	506	
11	0	0	0	0	496	506	
12	0	0	0	0	496	508	
13	0	0	0	0	495	506	
14	0	0	0	0	495	507	
15	0	0	0	0	495	506	
0	0	0	0	0	495	504	
1	0	0	0	0	496	507	
2	0	0	0	0	497	507	
3	0	0	0	0	499	507	
4	0	0	0	0	502	509	
5	0	0	0	0	504	507	
6	0	0	0	0	504	507	
7	0	0	0	0	504	507	
8	0	0	0	0	504	504	
9	0	0	0	0	504	508	
10	0	0	0	0	504	507	
11	0	0	0	0	504	508	
12	0	0	0	0	504	509	
13	0	0	0	0	504	508	
14	0	0	0	0	505	507	
15	0	0	0	0	505	507	
0	0	0	0	0	506	504	
1	0	0	0	0	506	507	
2	0	0	0	0	507	507	
3	0	0	0	0	508	507	
4	0	0	0	0	508	509	
5	0	0	0	0	509	507	
6	0	0	0	0	508	508	
7	0	0	0	0	508	508	
8	0	0	0	0	507	505	
9	0	0	0	0	507	508	
10	0	0	0	0	507	508	
11	0	0	0	0	507	508	
12	0	0	0	0	505	511	
13	0	0	0	0	504	508	
14	0	0	0	0	502	508	
15	0	0	0	0	500	507	
0	0	0	0	0	500	504	
1	0	0	0	0	501	507	
2	0	0	0	0	501	507	
3	0	0	0	0	501	507	
4	0	0	0	0	501	510	
5	0	0	0	0	501	508	
6	0	0	0	0	503	508	
7	0	0	0	0	504	508	
8	0	0	0	0	504	505	
9	0	0	0	0	505	508	
10	0	0	0	0	505	508	
11	0	0	0	0	505	508	
12	0	0	0	0	505	511	
13	0	0	0	0	505	508	
14	0	0	0	0	505	508	
15	0	0	0	0	505	507	
0	0	0	0	0	505	504	
1	0	0	0	0	505	508	
2	0	0	0	0	505	508	
3	0	0	0	0	505	507	
4	0	0	0	0	505	510	
5	0	0	0	0	506	508	
6	0	0	0	0	506	508	
7	0	0	0	0	506	508	
8	0	0	0	0	506	504	
9	0	0	0	0	506	508	
10	0	0	0	0	507	508	
11	0	0	0	0	507	508	
12	0	0	0	0	507	510	
13	0	0	0	0	505	508	
14	0	0	0	0	505	508	
15	0	0	0	0	505	508	
0	0	0	0	0	506	505	
1	0	0	0	0	508	508	
2	0	0	0	0	508	508	
3	0	0	0	0	509	508	
4	0	0	0	0	510	511	
5	0	0	0	0	510	508	
6	0	0	0	0	510	508	
7	0	0	0	0	510	508	
8	0	0	0	0	510	505	
9	0	0	0	0	510	508	
10	0	0	0	0	509	507	
11	0	0	0	0	509	508	
12	0	0	0	0	509	510	
13	0	0	0	0	509	509	
14	0	0	0	0	508	508	
15	0	0	0	0	508	508	
0	0	0	0	0	508	506	
1	0	0	0	0	508	508	
2	0	0	0	0	508	509	
3	0	0	0	0	508	509	
4	0	0	0	0	509	511	
5	0	0	0	0	509	509	
6	0	0	0	0	509	509	
7	0	0	0	0	509	509	
8	0	0	0	0	510	507	
9	0	0	0	0	509	509	
10	0	0	0	0	509	509	
11	0	0	0	0	509	508	
12	0	0	0	0	509	511	
13	0	0	0	0	509	510	
14	0	0	0	0	509	509	
15	0	0	0	0	510	509	
0	0	0	0	0	511	507	
1	0	0	0	0	511	509	
2	0	0	0	0	511	510	
3	0	0	0	0	511	509	
4	0	0	0	0	511	512	
5	0	0	0	0	511	509	
6	0	0	0	0	511	509	
7	0	0	0	0	512	510	
8	0	0	0	0	512	506	
9	0	0	0	0	512	510	
10	0	0	0	0	512	510	
11	0	0	0	0	512	509	
12	0	0	0	0	512	512	
13	0	0	0	0	512	510	
14	0	0	0	0	512	510	
15	0	0	0	0	512	509	
0	0	0	0	0	513	507	
1	0	0	0	0	513	510	
2	0	0	0	0	513	510	
3	0	0	0	0	513	510	
4	0	0	0	0	515	512	
5	0	0	0	0	515	510	
6	0	0	0	0	515	510	
7	0	0	0	0	514	509	
8	0	0	0	0	514	506	
9	0	0	0	0	514	510	
10	0	0	0	0	514	509	
11	0	0	0	0	515	509	
12	0	0	0	0	514	512	
13	0	0	0	0	514	509	
14	0	0	0	0	513	509	
15	0	0	0	0	511	509	
0	0	0	0	0	511	506	
1	0	0	0	0	511	509	
2	0	0	0	0	511	510	
3	0	0	0	0	511	509	
4	0	0	0	0	511	512	
5	0	0	0	0	513	510	
6	0	0	0	0	515	509	
7	0	0	0	0	515	509	
8	0	0	0	0	515	506	
9	0	0	0	0	515	509	
10	0	0	0	0	515	509	
11	0	0	0	0	515	509	
12	0	0	0	0	515	512	
13	0	0	0	0	515	509	
14	0	0	0	0	515	509	
15	0	0	0	0	516	509	
0	0	0	0	0	517	506	
1	0	0	0	0	517	509	
2	0	0	0	0	517	508	
3	0	0	0	0	516	509	
4	0	0	0	0	515	511	
5	0	0	0	0	515	509	
6	0	0	0	0	515	509	
7	0	0	0	0	514	508	
8	0	0	0	0	513	505	
9	0	0	0	0	513	509	
10	0	0	0	0	514	508	
11	0	0	0	0	514	508	
12	0	0	0	0	515	511	
13	0	0	0	0	516	508	
14	0	0	0	0	515	509	
15	0	0	0	0	515	509	
0	0	0	0	0	515	505	
1	0	0	0	0	515	509	
2	0	0	0	0	515	508	
3	0	0	0	0	515	508	
4	0	0	0	0	515	510	
5	0	0	0	0	516	508	
6	0	0	0	0	515	508	
7	0	0	0	0	515	508	
8	0	0	0	0	516	505	
9	0	0	0	0	515	508	
10	0	0	0	0	515	508	
11	0	0	0	0	517	508	
12	0	0	0	0	517	511	
13	0	0	0	0	517	508	
14	0	0	0	0	517	508	
15	0	0	0	0	518	508	
0	0	0	0	0	519	505	
1	0	0	0	0	518	508	
2	0	0	0	0	518	508	
3	0	0	0	0	519	508	
4	0	0	0	0	519	510	
5	0	0	0	0	519	508	
6	0	0	0	0	516	508	
7	0	0	0	0	515	508	
8	0	0	0	0	513	505	
9	0	0	0	0	511	507	
10	0	0	0	0	512	508	
11	0	0	0	0	512	507	
12	0	0	0	0	512	510	
13	0	0	0	0	512	508	
14	0	0	0	0	512	508	
15	0	0	0	0	513	507	
0	0	0	0	0	514	504	
1	0	0	0	0	515	507	
2	0	0	0	0	515	507	
3	0	0	0	0	515	507	
4	0	0	0	0	515	510	
5	0	0	0	0	515	506	
6	0	0	0	0	515	507	
7	0	0	0	0	516	507	
8	0	0	0	0	516	503	
9	0	0	0	0	517	506	
10	0	0	0	0	517	507	
11	0	0	0	0	516	507	
12	0	0	0	0	516	510	
13	0	0	0	0	516	506	
14	0	0	0	0	516	507	
15	0	0	0	0	516	507	
0	0	0	0	0	516	504	
1	0	0	0	0	515	506	
2	0	0	0	0	514	507	
3	0	0	0	0	513	506	
4	0	0	0	0	512	509	
5	0	0	0	0	512	506	
6	0	0	0	0	512	506	
7	0	0	0	0	512	507	
8	0	0	0	0	513	503	
9	0	0	0	0	513	506	
10	0	0	0	0	513	507	
11	0	0	0	0	514	507	
12	0	0	0	0	514	509	
13	0	0	0	0	515	507	
14	0	0	0	0	516	506	
15	0	0	0	0	516	507	
0	0	0	0	0	517	504	
1	0	0	0	0	516	506	
2	0	0	0	0	516	505	
3	0	0	0	0	516	505	
4	0	0	0	0	516	509	
5	0	0	0	0	515	506	
6	0	0	0	0	515	506	
7	0	0	0	0	515	507	
8	0	0	0	0	513	504	
9	0	0	0	0	513	506	
10	0	0	0	0	513	506	
11	0	0	0	0	513	506	
12	0	0	0	0	514	508	
13	0	0	0	0	514	506	
14	0	0	0	0	514	506	
15	0	0	0	0	515	505	
0	0	0	0	0	514	503	
1	0	0	0	0	513	506	
2	0	0	0	0	513	506	
3	0	0	0	0	513	506	
4	0	0	0	0	513	508	
5	0	0	0	0	513	506	
6	0	0	0	0	513	506	
7	0	0	0	0	514	505	
8	0	0	0	0	514	504	
9	0	0	0	0	514	505	
10	0	0	0	0	514	506	
11	0	0	0	0	515	506	
12	0	0	0	0	515	508	
13	0	0	0	0	515	507	
14	0	0	0	0	515	505	
15	0	0	0	0	515	505	
0	0	0	0	0	515	503	
1	0	0	0	0	514	506	
2	0	0	0	0	513	507	
3	0	0	0	0	512	506	
4	0	0	0	0	511	508	
5	0	0	0	0	512	506	
6	0	0	0	0	513	506	
7	0	0	0	0	513	505	
8	0	0	0	0	513	503	
9	0	0	0	0	513	506	
10	0	0	0	0	512	505	
11	0	0	0	0	513	505	
12	0	0	0	0	512	508	
13	0	0	0	0	513	506	
14	0	0	0	0	513	506	
15	0	0	0	0	514	506	
0	0	0	0	0	514	503	
1	0	0	0	0	515	506	
2	0	0	0	0	515	506	
3	0	0	0	0	515	506	
4	0	0	0	0	515	509	
5	0	0	0	0	515	506	
6	0	0	0	0	516	506	
7	0	0	0	0	516	506	
8	0	0	0	0	517	504	
9	0	0	0	0	516	506	
10	0	0	0	0	516	506	
11	0	0	0	0	516	506	
12	0	0	0	0	517	508	
13	0	0	0	0	517	507	
14	0	0	0	0	516	506	
15	0	0	0	0	514	506	
0	0	0	0	0	513	504	
1	0	0	0	0	511	506	
2	0	0	0	0	512	506	
3	0	0	0	0	512	506	
4	0	0	0	0	512	508	
5	0	0	0	0	513	507	
6	0	0	0	0	513	507	
7	0	0	0	0	515	506	
8	0	0	0	0	517	504	
9	0	0	0	0	518	507	
10	0	0	0	0	519	507	
11	0	0	0	0	520	507	
12	0	0	0	0	519	509	
13	0	0	0	0	519	507	
14	0	0	0	0	519	507	
15	0	0	0	0	518	507	
0	0	0	0	0	517	504	
1	0	0	0	0	516	507	
2	0	0	0	0	516	507	
3	0	0	0	0	516	507	
4	0	0	0	0	516	510	
5	0	0	0	0	516	506	
6	0	0	0	0	516	507	
7	0	0	0	0	515	508	
8	0	0	0	0	516	504	
9	0	0	0	0	516	507	
10	0	0	0	0	515	508	
11	0	0	0	0	515	507	
12	0	0	0	0	513	510	
13	0	0	0	0	512	507	
14	0	0	0	0	510	507	
15	0	0	0	0	509	507	
0	0	0	0	0	508	504	
1	0	0	0	0	509	507	
2	0	0	0	0	509	507	
3	0	0	0	0	509	508	
4	0	0	0	0	509	510	
5	0	0	0	0	509	508	
6	0	0	0	0	510	508	
7	0	0	0	0	510	508	
8	0	0	0	0	510	504	
9	0	0	0	0	510	508	
10	0	0	0	0	510	507	
11	0	0	0	0	510	507	
12	0	0	0	0	510	510	
13	0	0	0	0	509	507	
14	0	0	0	0	509	508	
15	0	0	0	0	508	507	
0	0	0	0	0	507	504	
1	0	0	0	0	505	507	
2	0	0	0	0	505	508	
3	0	0	0	0	504	508	
4	0	0	0	0	504	511	
5	0	0	0	0	505	508	
6	0	0	0	0	505	508	
7	0	0	0	0	506	508	
8	0	0	0	0	508	505	
9	0	0	0	0	508	508	
10	0	0	0	0	508	508	
11	0	0	0	0	508	508	
12	0	0	0	0	509	510	
13	0	0	0	0	509	508	
14	0	0	0	0	509	508	
15	0	0	0	0	510	508	
0	0	0	0	0	510	505	
1	0	0	0	0	511	508	
2	0	0	0	0	510	508	
3	0	0	0	0	509	508	
4	0	0	0	0	509	511	
5	0	0	0	0	509	508	
6	0	0	0	0	509	508	
7	0	0	0	0	509	509	
8	0	0	0	0	509	506	
9	0	0	0	0	510	508	
10	0	0	0	0	511	509	
11	0	0	0	0	511	509	
12	0	0	0	0	511	511	
13	0	0	0	0	511	509	
14	0	0	0	0	511	508	
15	0	0	0	0	511	509	
0	0	0	0	0	511	506	
1	0	0	0	0	511	509	
2	0	0	0	0	509	509	
3	0	0	0	0	508	509	
4	0	0	0	0	504	511	
5	0	0	0	0	501	510	
6	0	0	0	0	496	509	
7	0	0	0	0	488	509	
8	0	0	0	0	480	506	
9	0	0	0	0	470	509	
10	0	0	0	0	462	509	
11	0	0	0	0	453	509	
12	0	0	0	0	446	512	
13	0	0	0	0	439	509	
14	0	0	0	0	431	508	
15	0	0	0	0	423	508	
0	0	0	0	0	415	506	
1	0	0	0	0	408	509	
2	0	0	0	0	401	508	
3	0	0	0	0	393	508	
4	0	0	0	0	387	511	
5	0	0	0	0	384	509	
6	0	0	0	0	384	508	
7	0	0	0	0	388	509	
8	0	0	0	0	392	506	
9	0	0	0	0	397	509	
10	0	0	0	0	403	509	
11	0	0	0	0	409	508	
12	0	0	0	0	416	511	
13	0	0	0	0	426	508	
14	0	0	0	0	440	509	
15	0	0	0	0	460	508	
0	0	0	0	0	487	506	
1	0	0	0	0	521	508	
2	0	0	0	0	560	508	
3	0	0	0	0	608	509	
4	0	0	0	0	657	510	
5	0	0	0	0	709	509	
6	0	0	0	0	755	509	
7	0	0	0	0	798	508	
8	0	0	0	0	837	506	
9	0	0	0	0	871	508	
10	0	0	0	0	901	508	
11	0	0	0	0	927	508	
12	0	0	0	0	945	510	
13	0	0	0	0	960	508	
14	0	0	0	0	967	508	
15	0	0	0	0	968	508	
0	0	0	0	0	966	505	
1	0	0	0	0	960	508	
2	0	0	0	0	950	508	
3	0	0	0	0	938	507	
4	0	0	0	0	924	510	
5	0	0	0	0	907	508	
6	0	0	0	0	882	507	
7	0	0	0	0	843	507	
8	0	0	0	0	798	505	
9	0	0	0	0	754	508	
10	0	0	0	0	714	508	
11	0	0	0	0	679	507	
12	0	0	0	0	649	510	
13	0	0	0	0	623	508	
14	0	0	0	0	601	508	
15	0	0	0	0	583	507	
0	0	0	0	0	567	505	
1	0	0	0	0	553	508	
2	0	0	0	0	541	508	
3	0	0	0	0	530	507	
4	0	0	0	0	519	509	
5	0	0	0	0	510	506	
6	0	0	0	0	500	507	
7	0	0	0	0	492	507	
8	0	0	0	0	486	504	
9	0	0	0	0	480	508	
10	0	0	0	0	475	507	
11	0	0	0	0	471	507	
12	0	0	0	0	466	509	
13	0	0	0	0	462	507	
14	0	0	0	0	457	507	
15	0	0	0	0	453	506	
0	0	0	0	0	448	504	
1	0	0	0	0	444	506	
2	0	0	0	0	440	507	
3	0	0	0	0	435	507	
4	0	0	0	0	432	509	
5	0	0	0	0	428	506	
6	0	0	0	0	425	506	
7	0	0	0	0	422	506	
8	0	0	0	0	419	503	
9	0	0	0	0	418	506	
10	0	0	0	0	417	507	
11	0	0	0	0	415	506	
12	0	0	0	0	414	509	
13	0	0	0	0	413	506	
14	0	0	0	0	414	506	
15	0	0	0	0	414	506	
0	0	0	0	0	415	503	
1	0	0	0	0	415	505	
2	0	0	0	0	415	506	
3	0	0	0	0	416	505	
4	0	0	0	0	417	508	
5	0	0	0	0	418	506	
6	0	0	0	0	419	506	
7	0	0	0	0	419	506	
8	0	0	0	0	420	503	
9	0	0	0	0	421	506	
10	0	0	0	0	422	505	
11	0	0	0	0	423	506	
12	0	0	0	0	423	508	
13	0	0	0	0	423	506	
14	0	0	0	0	423	506	
15	0	0	0	0	423	506	
0	0	0	0	0	423	503	
1	0	0	0	0	424	507	
2	0	0	0	0	425	506	
3	0	0	0	0	426	506	
4	0	0	0	0	427	508	
5	0	0	0	0	428	506	
6	0	0	0	0	430	506	
7	0	0	0	0	431	506	
8	0	0	0	0	431	504	
9	0	0	0	0	431	507	
10	0	0	0	0	432	506	
11	0	0	0	0	432	506	
12	0	0	0	0	433	508	
13	0	0	0	0	434	506	
14	0	0	0	0	434	507	
15	0	0	0	0	435	506	
0	0	0	0	0	435	504	
1	0	0	0	0	434	507	
2	0	0	0	0	434	507	
3	0	0	0	0	433	507	
4	0	0	0	0	435	509	
5	0	0	0	0	436	506	
6	0	0	0	0	439	506	
7	0	0	0	0	440	506	
8	0	0	0	0	442	504	
9	0	0	0	0	443	506	
10	0	0	0	0	444	505	
11	0	0	0	0	444	506	
12	0	0	0	0	445	509	
13	0	0	0	0	446	506	
14	0	0	0	0	446	507	
15	0	0	0	0	448	506	
0	0	0	0	0	448	504	
1	0	0	0	0	448	506	
2	0	0	0	0	448	506	
3	0	0	0	0	449	507	
4	0	0	0	0	449	509	
5	0	0	0	0	449	507	
6	0	0	0	0	450	507	
7	0	0	0	0	451	507	
8	0	0	0	0	453	504	
9	0	0	0	0	454	507	
10	0	0	0	0	455	507	
11	0	0	0	0	457	507	
12	0	0	0	0	459	510	
13	0	0	0	0	459	508	
14	0	0	0	0	460	507	
15	0	0	0	0	459	507	
0	0	0	0	0	459	504	
1	0	0	0	0	459	507	
2	0	0	0	0	459	507	
3	0	0	0	0	461	506	
4	0	0	0	0	462	509	
5	0	0	0	0	462	507	
6	0	0	0	0	461	507	
7	0	0	0	0	460	507	
8	0	0	0	0	458	504	
9	0	0	0	0	456	507	
10	0	0	0	0	456	507	
11	0	0	0	0	455	507	
12	0	0	0	0	456	510	
13	0	0	0	0	458	507	
14	0	0	0	0	459	507	
15	0	0	0	0	460	508	
0	0	0	0	0	461	504	
1	0	0	0	0	462	507	
2	0	0	0	0	463	508	
3	0	0	0	0	463	507	
4	0	0	0	0	464	510	
5	0	0	0	0	465	507	
6	0	0	0	0	467	507	
7	0	0	0	0	468	507	
8	0	0	0	0	470	504	
9	0	0	0	0	472	508	
10	0	0	0	0	473	508	
11	0	0	0	0	473	507	
12	0	0	0	0	474	510	
13	0	0	0	0	475	507	
14	0	0	0	0	475	508	
15	0	0	0	0	475	508	
0	0	0	0	0	474	505	
1	0	0	0	0	474	507	
2	0	0	0	0	473	508	
3	0	0	0	0	472	508	
4	0	0	0	0	471	510	
5	0	0	0	0	470	508	
6	0	0	0	0	469	508	
7	0	0	0	0	471	507	
8	0	0	0	0	472	504	
9	0	0	0	0	473	508	
10	0	0	0	0	475	507	
11	0	0	0	0	477	508	
12	0	0	0	0	478	510	
13	0	0	0	0	478	507	
14	0	0	0	0	478	508	
15	0	0	0	0	478	507	
0	0	0	0	0	478	505	
1	0	0	0	0	478	507	
2	0	0	0	0	477	508	
3	0	0	0	0	476	508	
4	0	0	0	0	475	510	
5	0	0	0	0	475	507	
6	0	0	0	0	474	507	
7	0	0	0	0	475	507	
8	0	0	0	0	476	505	
9	0	0	0	0	478	508	
10	0	0	0	0	480	508	
11	0	0	0	0	481	507	
12	0	0	0	0	481	510	
13	0	0	0	0	482	508	
14	0	0	0	0	482	508	
15	0	0	0	0	482	508	
0	0	0	0	0	481	505	
1	0	0	0	0	481	508	
2	0	0	0	0	480	508	
3	0	0	0	0	480	508	
4	0	0	0	0	480	511	
5	0	0	0	0	480	508	
6	0	0	0	0	481	508	
7	0	0	0	0	483	508	
8	0	0	0	0	483	506	
9	0	0	0	0	484	508	
10	0	0	0	0	485	508	
11	0	0	0	0	486	509	
12	0	0	0	0	487	511	
13	0	0	0	0	488	509	
14	0	0	0	0	489	508	
15	0	0	0	0	490	508	
0	0	0	0	0	491	506	
1	0	0	0	0	492	508	
2	0	0	0	0	493	509	
3	0	0	0	0	493	508	
4	0	0	0	0	493	510	
5	0	0	0	0	494	508	
6	0	0	0	0	494	508	
7	0	0	0	0	494	508	
8	0	0	0	0	495	505	
9	0	0	0	0	495	508	
10	0	0	0	0	496	508	
11	0	0	0	0	495	508	
12	0	0	0	0	495	510	
13	0	0	0	0	495	508	
14	0	0	0	0	495	508	
15	0	0	0	0	496	508	
0	0	0	0	0	497	507	
1	0	0	0	0	499	508	
2	0	0	0	0	500	508	
3	0	0	0	0	501	508	
4	0	0	0	0	502	511	
5	0	0	0	0	503	508	
6	0	0	0	0	504	508	
7	0	0	0	0	503	507	
8	0	0	0	0	503	505	
9	0	0	0	0	503	509	
10	0	0	0	0	502	508	
11	0	0	0	0	500	508	
12	0	0	0	0	499	510	
13	0	0	0	0	499	508	
14	0	0	0	0	499	508	
15	0	0	0	0	500	508	
0	0	0	0	0	501	505	
1	0	0	0	0	502	508	
2	0	0	0	0	504	508	
3	0	0	0	0	504	508	
4	0	0	0	0	506	510	
5	0	0	0	0	506	508	
6	0	0	0	0	506	508	
7	0	0	0	0	506	508	
8	0	0	0	0	505	505	
9	0	0	0	0	505	508	
10	0	0	0	0	504	508	
11	0	0	0	0	503	507	
12	0	0	0	0	503	509	
13	0	0	0	0	503	507	
14	0	0	0	0	503	507	
15	0	0	0	0	503	508	
0	0	0	0	0	502	505	
1	0	0	0	0	500	507	
2	0	0	0	0	500	507	
3	0	0	0	0	499	507	
4	0	0	0	0	498	510	
5	0	0	0	0	496	507	
6	0	0	0	0	494	507	
7	0	0	0	0	493	507	
8	0	0	0	0	491	503	
9	0	0	0	0	489	507	
10	0	0	0	0	488	506	
11	0	0	0	0	487	507	
12	0	0	0	0	487	510	
13	0	0	0	0	487	507	
14	0	0	0	0	486	507	
15	0	0	0	0	486	507	
0	0	0	0	0	486	504	
1	0	0	0	0	485	508	
2	0	0	0	0	484	507	
3	0	0	0	0	483	506	
4	0	0	0	0	483	510	
5	0	0	0	0	483	507	
6	0	0	0	0	483	507	
7	0	0	0	0	483	507	
8	0	0	0	0	482	504	
9	0	0	0	0	482	507	
10	0	0	0	0	482	507	
11	0	0	0	0	481	507	
12	0	0	0	0	480	509	
13	0	0	0	0	480	506	
14	0	0	0	0	479	507	
15	0	0	0	0	478	507	
0	0	0	0	0	478	504	
1	0	0	0	0	478	507	
2	0	0	0	0	477	507	
3	0	0	0	0	477	507	
4	0	0	0	0	478	510	
5	0	0	0	0	478	507	
6	0	0	0	0	478	508	
7	0	0	0	0	478	507	
8	0	0	0	0	478	504	
9	0	0	0	0	478	507	
10	0	0	0	0	476	507	
11	0	0	0	0	476	507	
12	0	0	0	0	476	509	
13	0	0	0	0	477	507	
14	0	0	0	0	478	507	
15	0	0	0	0	479	507	
0	0	0	0	0	479	504	
1	0	0	0	0	480	507	
2	0	0	0	0	482	507	
3	0	0	0	0	483	507	
4	0	0	0	0	485	509	
5	0	0	0	0	484	506	
6	0	0	0	0	484	507	
7	0	0	0	0	483	507	
8	0	0	0	0	483	504	
9	0	0	0	0	483	507	
10	0	0	0	0	484	507	
11	0	0	0	0	484	507	
12	0	0	0	0	485	509	
13	0	0	0	0	485	506	
14	0	0	0	0	485	507	
15	0	0	0	0	485	506	
0	0	0	0	0	485	504	
1	0	0	0	0	484	506	
2	0	0	0	0	484	506	
3	0	0	0	0	485	507	
4	0	0	0	0	486	508	
5	0	0	0	0	486	507	
6	0	0	0	0	487	506	
7	0	0	0	0	486	506	
8	0	0	0	0	487	504	
9	0	0	0	0	487	506	
10	0	0	0	0	487	506	
11	0	0	0	0	487	506	
12	0	0	0	0	488	509	
13	0	0	0	0	487	506	
14	0	0	0	0	486	507	
15	0	0	0	0	486	506	
0	0	0	0	0	485	503	
1	0	0	0	0	484	505	
2	0	0	0	0	485	506	
3	0	0	0	0	486	505	
4	0	0	0	0	486	508	
5	0	0	0	0	486	506	
6	0	0	0	0	486	505	
7	0	0	0	0	486	506	
8	0	0	0	0	486	503	
9	0	0	0	0	487	505	
10	0	0	0	0	488	505	
11	0	0	0	0	488	506	
12	0	0	0	0	489	508	
13	0	0	0	0	489	506	
14	0	0	0	0	488	506	
15	0	0	0	0	488	505	
0	0	0	0	0	487	503	
1	0	0	0	0	488	505	
2	0	0	0	0	488	505	
3	0	0	0	0	487	506	
4	0	0	0	0	486	508	
5	0	0	0	0	484	505	
6	0	0	0	0	484	506	
7	0	0	0	0	484	506	
8	0	0	0	0	484	503	
9	0	0	0	0	485	507	
10	0	0	0	0	485	507	
11	0	0	0	0	486	506	
12	0	0	0	0	486	508	
13	0	0	0	0	486	507	
14	0	0	0	0	486	507	
15	0	0	0	0	486	507	
0	0	0	0	0	486	504	
1	0	0	0	0	487	507	
2	0	0	0	0	487	507	
3	0	0	0	0	489	506	
4	0	0	0	0	491	509	
5	0	0	0	0	493	507	
6	0	0	0	0	493	506	
7	0	0	0	0	493	506	
8	0	0	0	0	492	503	
9	0	0	0	0	492	506	
10	0	0	0	0	492	505	
11	0	0	0	0	492	507	
12	0	0	0	0	491	508	
13	0	0	0	0	490	507	
14	0	0	0	0	489	507	
15	0	0	0	0	487	506	
0	0	0	0	0	487	503	
1	0	0	0	0	487	506	
2	0	0	0	0	487	506	
3	0	0	0	0	488	506	
4	0	0	0	0	489	509	
5	0	0	0	0	488	506	
6	0	0	0	0	488	506	
7	0	0	0	0	488	506	
8	0	0	0	0	488	503	
9	0	0	0	0	488	507	
10	0	0	0	0	489	506	
11	0	0	0	0	489	506	
12	0	0	0	0	488	509	
13	0	0	0	0	489	506	
14	0	0	0	0	490	506	
15	0	0	0	0	490	505	
0	0	0	0	0	489	502	
1	0	0	0	0	489	505	
2	0	0	0	0	489	505	
3	0	0	0	0	489	505	
4	0	0	0	0	489	508	
5	0	0	0	0	488	506	
6	0	0	0	0	488	506	
7	0	0	0	0	489	506	
8	0	0	0	0	490	504	
9	0	0	0	0	489	507	
10	0	0	0	0	490	507	
11	0	0	0	0	491	507	
12	0	0	0	0	491	509	
13	0	0	0	0	491	507	
14	0	0	0	0	491	508	
15	0	0	0	0	492	506	
0	0	0	0	0	492	504	
1	0	0	0	0	492	507	
2	0	0	0	0	491	507	
3	0	0	0	0	491	507	
4	0	0	0	0	491	510	
5	0	0	0	0	491	508	
6	0	0	0	0	491	507	
7	0	0	0	0	492	507	
8	0	0	0	0	492	504	
9	0	0	0	0	492	508	
10	0	0	0	0	491	508	
11	0	0	0	0	491	508	
12	0	0	0	0	491	510	
13	0	0	0	0	492	508	
14	0	0	0	0	493	508	
15	0	0	0	0	493	508	
0	0	0	0	0	492	505	
1	0	0	0	0	492	507	
2	0	0	0	0	491	508	
3	0	0	0	0	492	508	
4	0	0	0	0	492	511	
5	0	0	0	0	493	508	
6	0	0	0	0	494	508	
7	0	0	0	0	495	508	
8	0	0	0	0	493	505	
9	0	0	0	0	492	508	
10	0	0	0	0	491	508	
11	0	0	0	0	490	509	
12	0	0	0	0	489	510	
13	0	0	0	0	489	508	
14	0	0	0	0	489	508	
15	0	0	0	0	490	509	
0	0	0	0	0	491	506	
1	0	0	0	0	492	509	
2	0	0	0	0	492	509	
3	0	0	0	0	492	508	
4	0	0	0	0	491	510	
5	0	0	0	0	492	509	
6	0	0	0	0	492	508	
7	0	0	0	0	492	508	
8	0	0	0	0	493	505	
9	0	0	0	0	494	508	
10	0	0	0	0	494	509	
11	0	0	0	0	495	509	
12	0	0	0	0	496	511	
13	0	0	0	0	497	508	
14	0	0	0	0	499	508	
15	0	0	0	0	499	508	
0	0	0	0	0	500	505	
1	0	0	0	0	500	508	
2	0	0	0	0	500	508	
3	0	0	0	0	499	508	
4	0	0	0	0	498	511	
5	0	0	0	0	498	509	
6	0	0	0	0	497	508	
7	0	0	0	0	496	508	
8	0	0	0	0	495	505	
9	0	0	0	0	493	508	
10	0	0	0	0	492	508	
11	0	0	0	0	492	508	
12	0	0	0	0	492	511	
13	0	0	0	0	492	508	
14	0	0	0	0	492	508	
15	0	0	0	0	493	508	
0	0	0	0	0	493	505	
1	0	0	0	0	494	508	
2	0	0	0	0	495	508	
3	0	0	0	0	496	508	
4	0	0	0	0	497	510	
5	0	0	0	0	498	508	
6	0	0	0	0	498	507	
7	0	0	0	0	499	508	
8	0	0	0	0	500	504	
9	0	0	0	0	501	508	
10	0	0	0	0	501	508	
11	0	0	0	0	501	507	
12	0	0	0	0	501	510	
13	0	0	0	0	501	508	
14	0	0	0	0	500	507	
15	0	0	0	0	500	507	
0	0	0	0	0	499	504	
1	0	0	0	0	499	507	
2	0	0	0	0	499	507	
3	0	0	0	0	499	507	
4	0	0	0	0	499	509	
5	0	0	0	0	499	506	
6	0	0	0	0	499	506	
7	0	0	0	0	499	507	
8	0	0	0	0	499	504	
9	0	0	0	0	498	507	
10	0	0	0	0	498	507	
11	0	0	0	0	499	507	
12	0	0	0	0	501	509	
13	0	0	0	0	502	507	
14	0	0	0	0	503	506	
15	0	0	0	0	504	507	
0	0	0	0	0	504	503	
1	0	0	0	0	504	505	
2	0	0	0	0	504	505	
3	0	0	0	0	505	506	
4	0	0	0	0	505	508	
5	0	0	0	0	505	506	
6	0	0	0	0	504	505	
7	0	0	0	0	504	506	
8	0	0	0	0	504	503	
9	0	0	0	0	504	506	
10	0	0	0	0	504	506	
11	0	0	0	0	505	506	
12	0	0	0	0	505	508	
13	0	0	0	0	506	506	
14	0	0	0	0	507	507	
15	0	0	0	0	507	506	
0	0	0	0	0	507	503	
1	0	0	0	0	508	506	
2	0	0	0	0	509	506	
3	0	0	0	0	508	506	
4	0	0	0	0	507	508	
5	0	0	0	0	506	506	
6	0	0	0	0	505	505	
7	0	0	0	0	504	506	
8	0	0	0	0	503	503	
9	0	0	0	0	502	505	
10	0	0	0	0	503	506	
11	0	0	0	0	502	506	
12	0	0	0	0	503	508	
13	0	0	0	0	504	505	
14	0	0	0	0	504	506	
15	0	0	0	0	504	506	
0	0	0	0	0	504	503	
1	0	0	0	0	504	506	
2	0	0	0	0	505	506	
3	0	0	0	0	505	506	
4	0	0	0	0	505	509	
5	0	0	0	0	504	506	
6	0	0	0	0	504	506	
7	0	0	0	0	504	506	
8	0	0	0	0	504	503	
9	0	0	0	0	505	505	
10	0	0	0	0	506	505	
11	0	0	0	0	507	506	
12	0	0	0	0	508	508	
13	0	0	0	0	509	505	
14	0	0	0	0	510	505	
15	0	0	0	0	511	505	
0	0	0	0	0	511	503	
1	0	0	0	0	511	505	
2	0	0	0	0	510	505	
3	0	0	0	0	508	505	
4	0	0	0	0	507	507	
5	0	0	0	0	505	505	
6	0	0	0	0	504	505	
7	0	0	0	0	502	505	
8	0	0	0	0	502	503	
9	0	0	0	0	502	505	
10	0	0	0	0	502	505	
11	0	0	0	0	502	505	
12	0	0	0	0	503	508	
13	0	0	0	0	504	505	
14	0	0	0	0	505	505	
15	0	0	0	0	505	505	
0	0	0	0	0	506	502	
1	0	0	0	0	505	505	
2	0	0	0	0	506	505	
3	0	0	0	0	505	505	
4	0	0	0	0	506	508	
5	0	0	0	0	508	505	
6	0	0	0	0	508	505	
7	0	0	0	0	508	505	
8	0	0	0	0	508	502	
9	0	0	0	0	509	506	
10	0	0	0	0	510	506	
11	0	0	0	0	510	505	
12	0	0	0	0	510	508	
13	0	0	0	0	510	506	
14	0	0	0	0	511	505	
15	0	0	0	0	511	506	
0	0	0	0	0	511	503	
1	0	0	0	0	511	506	
2	0	0	0	0	510	505	
3	0	0	0	0	509	506	
4	0	0	0	0	508	508	
5	0	0	0	0	507	505	
6	0	0	0	0	506	506	
7	0	0	0	0	505	506	
8	0	0	0	0	506	503	
9	0	0	0	0	508	506	
10	0	0	0	0	509	507	
11	0	0	0	0	511	507	
12	0	0	0	0	511	509	
13	0	0	0	0	512	506	
14	0	0	0	0	512	506	
15	0	0	0	0	513	506	
0	0	0	0	0	513	504	
1	0	0	0	0	513	506	
2	0	0	0	0	513	507	
3	0	0	0	0	514	505	
4	0	0	0	0	513	509	
5	0	0	0	0	515	506	
6	0	0	0	0	515	506	
7	0	0	0	0	516	506	
8	0	0	0	0	516	504	
9	0	0	0	0	515	507	
10	0	0	0	0	515	507	
11	0	0	0	0	516	507	
12	0	0	0	0	516	509	
13	0	0	0	0	516	507	
14	0	0	0	0	517	507	
15	0	0	0	0	518	507	
0	0	0	0	0	519	504	
1	0	0	0	0	519	506	
2	0	0	0	0	520	507	
3	0	0	0	0	520	506	
4	0	0	0	0	519	509	
5	0	0	0	0	518	507	
6	0	0	0	0	515	507	
7	0	0	0	0	514	506	
8	0	0	0	0	512	504	
9	0	0	0	0	511	507	
10	0	0	0	0	510	507	
11	0	0	0	0	508	507	
12	0	0	0	0	507	509	
13	0	0	0	0	506	507	
14	0	0	0	0	506	506	
15	0	0	0	0	507	507	
0	0	0	0	0	509	504	
1	0	0	0	0	510	507	
2	0	0	0	0	511	507	
3	0	0	0	0	511	506	
4	0	0	0	0	512	509	
5	0	0	0	0	512	507	
6	0	0	0	0	511	507	
7	0	0	0	0	511	506	
8	0	0	0	0	511	504	
9	0	0	0	0	511	507	
10	0	0	0	0	511	507	
11	0	0	0	0	511	506	
12	0	0	0	0	511	509	
13	0	0	0	0	510	507	
14	0	0	0	0	510	507	
15	0	0	0	0	510	507	
0	0	0	0	0	511	504	
1	0	0	0	0	511	507	
2	0	0	0	0	512	508	
3	0	0	0	0	512	507	
4	0	0	0	0	512	510	
5	0	0	0	0	512	507	
6	0	0	0	0	513	508	
7	0	0	0	0	513	507	
8	0	0	0	0	513	504	
9	0	0	0	0	513	507	
10	0	0	0	0	512	507	
11	0	0	0	0	512	507	
12	0	0	0	0	511	510	
13	0	0	0	0	510	507	
14	0	0	0	0	510	507	
15	0	0	0	0	510	508	
0	0	0	0	0	510	504	
1	0	0	0	0	511	507	
2	0	0	0	0	512	507	
3	0	0	0	0	513	507	
4	0	0	0	0	514	509	
5	0	0	0	0	515	507	
6	0	0	0	0	515	507	
7	0	0	0	0	515	506	
8	0	0	0	0	515	504	
9	0	0	0	0	515	507	
10	0	0	0	0	515	507	
11	0	0	0	0	516	507	
12	0	0	0	0	516	509	
13	0	0	0	0	516	507	
14	0	0	0	0	516	507	
15	0	0	0	0	516	507	
0	0	0	0	0	516	504	
1	0	0	0	0	516	508	
2	0	0	0	0	516	507	
3	0	0	0	0	515	507	
4	0	0	0	0	512	509	
5	0	0	0	0	509	507	
6	0	0	0	0	504	507	
7	0	0	0	0	498	507	
8	0	0	0	0	490	505	
9	0	0	0	0	482	507	
10	0	0	0	0	473	507	
11	0	0	0	0	465	507	
12	0	0	0	0	457	510	
13	0	0	0	0	451	507	
14	0	0	0	0	444	506	
15	0	0	0	0	439	506	
0	0	0	0	0	432	504	
1	0	0	0	0	424	506	
2	0	0	0	0	418	506	
3	0	0	0	0	410	507	
4	0	0	0	0	402	509	
5	0	0	0	0	397	506	
6	0	0	0	0	396	507	
7	0	0	0	0	399	507	
8	0	0	0	0	403	504	
9	0	0	0	0	408	507	
10	0	0	0	0	415	506	
11	0	0	0	0	421	507	
12	0	0	0	0	428	509	
13	0	0	0	0	437	506	
14	0	0	0	0	450	507	
15	0	0	0	0	469	506	
0	0	0	0	0	495	504	
1	0	0	0	0	528	506	
2	0	0	0	0	568	506	
3	0	0	0	0	615	507	
4	0	0	0	0	666	509	
5	0	0	0	0	716	506	
6	0	0	0	0	764	505	
7	0	0	0	0	808	505	
8	0	0	0	0	847	503	
9	0	0	0	0	882	505	
10	0	0	0	0	914	506	
11	0	0	0	0	940	506	
12	0	0	0	0	961	508	
13	0	0	0	0	978	505	
14	0	0	0	0	989	505	
15	0	0	0	0	992	506	
0	0	0	0	0	991	504	
1	0	0	0	0	984	506	
2	0	0	0	0	975	506	
3	0	0	0	0	963	505	
4	0	0	0	0	949	508	
5	0	0	0	0	929	505	
6	0	0	0	0	904	505	
7	0	0	0	0	867	505	
8	0	0	0	0	821	503	
9	0	0	0	0	776	505	
10	0	0	0	0	737	505	
11	0	0	0	0	702	505	
12	0	0	0	0	671	508	
13	0	0	0	0	646	505	
14	0	0	0	0	624	505	
15	0	0	0	0	606	506	
0	0	0	0	0	590	502	
1	0	0	0	0	575	505	
2	0	0	0	0	562	505	
3	0	0	0	0	551	506	
4	0	0	0	0	541	508	
5	0	0	0	0	531	504	
6	0	0	0	0	522	506	
7	0	0	0	0	515	505	
8	0	0	0	0	509	502	
9	0	0	0	0	503	505	
10	0	0	0	0	498	505	
11	0	0	0	0	493	506	
12	0	0	0	0	489	508	
13	0	0	0	0	486	505	
14	0	0	0	0	481	505	
15	0	0	0	0	475	505	
0	0	0	0	0	471	502	
1	0	0	0	0	466	506	
2	0	0	0	0	462	504	
3	0	0	0	0	459	505	
4	0	0	0	0	456	508	
5	0	0	0	0	455	505	
6	0	0	0	0	452	505	
7	0	0	0	0	451	505	
8	0	0	0	0	449	503	
9	0	0	0	0	447	505	
10	0	0	0	0	447	504	
11	0	0	0	0	445	505	
12	0	0	0	0	444	507	
13	0	0	0	0	443	505	
14	0	0	0	0	443	505	
15	0	0	0	0	442	505	
0	0	0	0	0	441	503	
1	0	0	0	0	440	506	
2	0	0	0	0	440	505	
3	0	0	0	0	438	505	
4	0	0	0	0	438	508	
5	0	0	0	0	437	505	
6	0	0	0	0	437	505	
7	0	0	0	0	438	505	
8	0	0	0	0	439	503	
9	0	0	0	0	439	505	
10	0	0	0	0	440	505	
11	0	0	0	0	441	505	
12	0	0	0	0	442	508	
13	0	0	0	0	443	505	
14	0	0	0	0	444	506	
15	0	0	0	0	445	505	
0	0	0	0	0	446	503	
1	0	0	0	0	446	505	
