# OpenSignals Text File Format. Version 1
# {"98:D3:91:FD:59:64": {"position": 0, "device": "bitalino_rev", "device name": "98:D3:91:FD:59:64", "device connection": "BTH98:D3:91:FD:59:64", "sampling rate": 1000, "resolution": [4, 1, 1, 1, 1, 10, 10], "firmware version": 1281, "comments": "", "keywords": "", "mode": 0, "sync interval": 2, "date": "2021-9-12", "time": "15:48:56.46", "channels": [2, 5], "sensor": ["RAW", "RAW"], "label": ["A2", "A5"], "column": ["nSeq", "I1", "I2", "O1", "O2", "A2", "A5"], "special": [{}, {}], "digital IO": [0, 0, 1, 1], "convertedValues": 0}}
# EndOfHeader
0	0	0	0	0	484	638	
1	0	0	0	0	484	641	
2	0	0	0	0	484	637	
3	0	0	0	0	484	637	
4	0	0	0	0	484	636	
5	0	0	0	0	483	632	
6	0	0	0	0	483	636	
7	0	0	0	0	482	636	
8	0	0	0	0	480	636	
9	0	0	0	0	477	638	
10	0	0	0	0	473	634	
11	0	0	0	0	468	633	
12	0	0	0	0	463	633	
13	0	0	0	0	457	629	
14	0	0	0	0	449	633	
15	0	0	0	0	441	632	
0	0	0	0	0	434	631	
1	0	0	0	0	427	635	
2	0	0	0	0	422	631	
3	0	0	0	0	417	631	
4	0	0	0	0	414	631	
5	0	0	0	0	414	626	
6	0	0	0	0	416	630	
7	0	0	0	0	419	630	
8	0	0	0	0	425	629	
9	0	0	0	0	434	633	
10	0	0	0	0	443	630	
11	0	0	0	0	452	629	
12	0	0	0	0	464	629	
13	0	0	0	0	477	625	
14	0	0	0	0	494	630	
15	0	0	0	0	512	629	
0	0	0	0	0	533	629	
1	0	0	0	0	555	632	
2	0	0	0	0	576	628	
3	0	0	0	0	598	628	
4	0	0	0	0	620	627	
5	0	0	0	0	640	623	
6	0	0	0	0	661	627	
7	0	0	0	0	681	627	
8	0	0	0	0	702	627	
9	0	0	0	0	722	630	
10	0	0	0	0	745	627	
11	0	0	0	0	767	627	
12	0	0	0	0	788	626	
13	0	0	0	0	803	623	
14	0	0	0	0	811	626	
15	0	0	0	0	812	625	
0	0	0	0	0	806	625	
1	0	0	0	0	793	629	
2	0	0	0	0	777	625	
3	0	0	0	0	759	625	
4	0	0	0	0	739	624	
5	0	0	0	0	717	620	
6	0	0	0	0	691	624	
7	0	0	0	0	666	623	
8	0	0	0	0	643	623	
9	0	0	0	0	622	625	
10	0	0	0	0	605	622	
11	0	0	0	0	591	621	
12	0	0	0	0	578	621	
13	0	0	0	0	567	617	
14	0	0	0	0	556	621	
15	0	0	0	0	547	621	
0	0	0	0	0	539	621	
1	0	0	0	0	531	624	
2	0	0	0	0	523	620	
3	0	0	0	0	514	619	
4	0	0	0	0	508	619	
5	0	0	0	0	500	614	
6	0	0	0	0	494	617	
7	0	0	0	0	487	616	
8	0	0	0	0	480	615	
9	0	0	0	0	475	617	
10	0	0	0	0	471	613	
11	0	0	0	0	467	612	
12	0	0	0	0	463	612	
13	0	0	0	0	459	607	
14	0	0	0	0	455	611	
15	0	0	0	0	451	611	
0	0	0	0	0	448	610	
1	0	0	0	0	445	614	
2	0	0	0	0	442	610	
3	0	0	0	0	439	611	
4	0	0	0	0	437	610	
5	0	0	0	0	435	607	
6	0	0	0	0	433	611	
7	0	0	0	0	432	611	
8	0	0	0	0	431	612	
9	0	0	0	0	431	615	
10	0	0	0	0	431	612	
11	0	0	0	0	431	612	
12	0	0	0	0	431	613	
13	0	0	0	0	432	611	
14	0	0	0	0	432	615	
15	0	0	0	0	432	616	
0	0	0	0	0	432	617	
1	0	0	0	0	433	621	
2	0	0	0	0	433	619	
3	0	0	0	0	432	620	
4	0	0	0	0	432	620	
5	0	0	0	0	432	618	
6	0	0	0	0	431	622	
7	0	0	0	0	432	623	
8	0	0	0	0	432	624	
9	0	0	0	0	432	628	
10	0	0	0	0	431	625	
11	0	0	0	0	431	625	
12	0	0	0	0	430	626	
13	0	0	0	0	430	623	
14	0	0	0	0	430	627	
15	0	0	0	0	430	627	
0	0	0	0	0	430	628	
1	0	0	0	0	430	632	
2	0	0	0	0	430	629	
3	0	0	0	0	431	630	
4	0	0	0	0	432	630	
5	0	0	0	0	433	627	
6	0	0	0	0	435	630	
7	0	0	0	0	437	631	
8	0	0	0	0	437	632	
9	0	0	0	0	438	635	
10	0	0	0	0	440	632	
11	0	0	0	0	441	632	
12	0	0	0	0	441	632	
13	0	0	0	0	441	628	
14	0	0	0	0	441	632	
15	0	0	0	0	441	632	
0	0	0	0	0	442	632	
1	0	0	0	0	442	635	
2	0	0	0	0	442	631	
3	0	0	0	0	441	631	
4	0	0	0	0	442	629	
5	0	0	0	0	441	625	
6	0	0	0	0	441	628	
7	0	0	0	0	441	628	
8	0	0	0	0	440	628	
9	0	0	0	0	441	630	
10	0	0	0	0	441	626	
11	0	0	0	0	441	626	
12	0	0	0	0	442	625	
13	0	0	0	0	443	621	
14	0	0	0	0	444	624	
15	0	0	0	0	446	625	
0	0	0	0	0	447	624	
1	0	0	0	0	448	628	
2	0	0	0	0	449	624	
3	0	0	0	0	450	624	
4	0	0	0	0	451	624	
5	0	0	0	0	451	620	
6	0	0	0	0	452	623	
7	0	0	0	0	452	623	
8	0	0	0	0	453	623	
9	0	0	0	0	452	626	
10	0	0	0	0	451	622	
11	0	0	0	0	451	623	
12	0	0	0	0	451	623	
13	0	0	0	0	451	618	
14	0	0	0	0	451	622	
15	0	0	0	0	451	621	
0	0	0	0	0	451	621	
1	0	0	0	0	451	624	
2	0	0	0	0	451	621	
3	0	0	0	0	452	622	
4	0	0	0	0	453	621	
5	0	0	0	0	453	617	
6	0	0	0	0	454	621	
7	0	0	0	0	455	621	
8	0	0	0	0	456	621	
9	0	0	0	0	456	625	
10	0	0	0	0	457	622	
11	0	0	0	0	457	622	
12	0	0	0	0	457	621	
13	0	0	0	0	457	617	
14	0	0	0	0	457	621	
15	0	0	0	0	457	621	
0	0	0	0	0	457	621	
1	0	0	0	0	457	624	
2	0	0	0	0	458	621	
3	0	0	0	0	459	621	
4	0	0	0	0	459	620	
5	0	0	0	0	460	617	
6	0	0	0	0	461	622	
7	0	0	0	0	461	621	
8	0	0	0	0	462	621	
9	0	0	0	0	463	625	
10	0	0	0	0	463	620	
11	0	0	0	0	464	620	
12	0	0	0	0	465	621	
13	0	0	0	0	466	616	
14	0	0	0	0	466	620	
15	0	0	0	0	467	620	
0	0	0	0	0	467	619	
1	0	0	0	0	467	623	
2	0	0	0	0	467	619	
3	0	0	0	0	467	619	
4	0	0	0	0	468	618	
5	0	0	0	0	469	614	
6	0	0	0	0	469	619	
7	0	0	0	0	469	618	
8	0	0	0	0	470	618	
9	0	0	0	0	470	622	
10	0	0	0	0	470	618	
11	0	0	0	0	470	619	
12	0	0	0	0	470	617	
13	0	0	0	0	470	614	
14	0	0	0	0	471	617	
15	0	0	0	0	471	617	
0	0	0	0	0	472	618	
1	0	0	0	0	472	621	
2	0	0	0	0	472	617	
3	0	0	0	0	473	617	
4	0	0	0	0	473	617	
5	0	0	0	0	474	614	
6	0	0	0	0	474	618	
7	0	0	0	0	475	618	
8	0	0	0	0	476	619	
9	0	0	0	0	476	622	
10	0	0	0	0	476	620	
11	0	0	0	0	478	620	
12	0	0	0	0	479	620	
13	0	0	0	0	480	615	
14	0	0	0	0	481	619	
15	0	0	0	0	483	620	
0	0	0	0	0	483	620	
1	0	0	0	0	485	623	
2	0	0	0	0	486	620	
3	0	0	0	0	486	619	
4	0	0	0	0	487	620	
5	0	0	0	0	487	615	
6	0	0	0	0	487	619	
7	0	0	0	0	487	619	
8	0	0	0	0	487	619	
9	0	0	0	0	487	622	
10	0	0	0	0	487	618	
11	0	0	0	0	487	619	
12	0	0	0	0	487	619	
13	0	0	0	0	487	614	
14	0	0	0	0	487	619	
15	0	0	0	0	488	619	
0	0	0	0	0	488	619	
1	0	0	0	0	488	622	
2	0	0	0	0	488	618	
3	0	0	0	0	488	619	
4	0	0	0	0	488	619	
5	0	0	0	0	488	615	
6	0	0	0	0	488	619	
7	0	0	0	0	487	619	
8	0	0	0	0	487	620	
9	0	0	0	0	488	623	
10	0	0	0	0	488	620	
11	0	0	0	0	489	620	
12	0	0	0	0	489	620	
13	0	0	0	0	490	615	
14	0	0	0	0	490	620	
15	0	0	0	0	490	620	
0	0	0	0	0	490	620	
1	0	0	0	0	491	624	
2	0	0	0	0	490	620	
3	0	0	0	0	490	621	
4	0	0	0	0	491	621	
5	0	0	0	0	492	617	
6	0	0	0	0	491	621	
7	0	0	0	0	491	621	
8	0	0	0	0	491	621	
9	0	0	0	0	490	624	
10	0	0	0	0	490	621	
11	0	0	0	0	490	620	
12	0	0	0	0	489	620	
13	0	0	0	0	488	615	
14	0	0	0	0	488	620	
15	0	0	0	0	487	620	
0	0	0	0	0	487	620	
1	0	0	0	0	487	624	
2	0	0	0	0	486	620	
3	0	0	0	0	486	619	
4	0	0	0	0	484	619	
5	0	0	0	0	483	615	
6	0	0	0	0	483	620	
7	0	0	0	0	483	620	
8	0	0	0	0	483	620	
9	0	0	0	0	482	624	
10	0	0	0	0	482	619	
11	0	0	0	0	482	620	
12	0	0	0	0	482	620	
13	0	0	0	0	482	616	
14	0	0	0	0	482	619	
15	0	0	0	0	481	620	
0	0	0	0	0	480	620	
1	0	0	0	0	480	623	
2	0	0	0	0	480	619	
3	0	0	0	0	480	619	
4	0	0	0	0	479	619	
5	0	0	0	0	478	615	
6	0	0	0	0	476	619	
7	0	0	0	0	475	619	
8	0	0	0	0	474	619	
9	0	0	0	0	473	623	
10	0	0	0	0	473	620	
11	0	0	0	0	472	619	
12	0	0	0	0	471	619	
13	0	0	0	0	471	616	
14	0	0	0	0	471	620	
15	0	0	0	0	471	620	
0	0	0	0	0	471	620	
1	0	0	0	0	470	623	
2	0	0	0	0	470	620	
3	0	0	0	0	470	620	
4	0	0	0	0	470	620	
5	0	0	0	0	469	616	
6	0	0	0	0	470	620	
7	0	0	0	0	471	621	
8	0	0	0	0	472	621	
9	0	0	0	0	472	624	
10	0	0	0	0	473	621	
11	0	0	0	0	474	621	
12	0	0	0	0	475	621	
13	0	0	0	0	475	617	
14	0	0	0	0	475	622	
15	0	0	0	0	476	623	
0	0	0	0	0	476	623	
1	0	0	0	0	475	626	
2	0	0	0	0	474	623	
3	0	0	0	0	473	623	
4	0	0	0	0	473	624	
5	0	0	0	0	473	620	
6	0	0	0	0	472	625	
7	0	0	0	0	472	625	
8	0	0	0	0	473	626	
9	0	0	0	0	473	630	
10	0	0	0	0	474	627	
11	0	0	0	0	475	627	
12	0	0	0	0	476	628	
13	0	0	0	0	476	625	
14	0	0	0	0	476	629	
15	0	0	0	0	476	630	
0	0	0	0	0	476	631	
1	0	0	0	0	476	635	
2	0	0	0	0	476	632	
3	0	0	0	0	475	632	
4	0	0	0	0	476	633	
5	0	0	0	0	476	630	
6	0	0	0	0	477	634	
7	0	0	0	0	477	634	
8	0	0	0	0	477	635	
9	0	0	0	0	478	638	
10	0	0	0	0	479	634	
11	0	0	0	0	478	634	
12	0	0	0	0	479	634	
13	0	0	0	0	479	630	
14	0	0	0	0	479	634	
15	0	0	0	0	480	635	
0	0	0	0	0	481	635	
1	0	0	0	0	481	638	
2	0	0	0	0	482	634	
3	0	0	0	0	482	635	
4	0	0	0	0	482	634	
5	0	0	0	0	482	630	
6	0	0	0	0	482	634	
7	0	0	0	0	483	634	
8	0	0	0	0	484	634	
9	0	0	0	0	484	637	
10	0	0	0	0	484	633	
11	0	0	0	0	483	634	
12	0	0	0	0	482	633	
13	0	0	0	0	482	630	
14	0	0	0	0	482	633	
15	0	0	0	0	481	633	
0	0	0	0	0	481	634	
1	0	0	0	0	481	637	
2	0	0	0	0	482	633	
3	0	0	0	0	482	633	
4	0	0	0	0	483	632	
5	0	0	0	0	484	628	
6	0	0	0	0	485	632	
7	0	0	0	0	485	631	
8	0	0	0	0	486	632	
9	0	0	0	0	487	635	
10	0	0	0	0	488	631	
11	0	0	0	0	488	630	
12	0	0	0	0	489	631	
13	0	0	0	0	489	626	
14	0	0	0	0	489	629	
15	0	0	0	0	489	629	
0	0	0	0	0	488	629	
1	0	0	0	0	488	632	
2	0	0	0	0	487	629	
3	0	0	0	0	487	629	
4	0	0	0	0	487	629	
5	0	0	0	0	487	625	
6	0	0	0	0	487	629	
7	0	0	0	0	486	629	
8	0	0	0	0	486	629	
9	0	0	0	0	486	634	
10	0	0	0	0	486	630	
11	0	0	0	0	487	630	
12	0	0	0	0	488	630	
13	0	0	0	0	488	627	
14	0	0	0	0	489	630	
15	0	0	0	0	490	630	
0	0	0	0	0	491	630	
1	0	0	0	0	492	633	
2	0	0	0	0	493	629	
3	0	0	0	0	494	629	
4	0	0	0	0	494	629	
5	0	0	0	0	494	624	
6	0	0	0	0	495	628	
7	0	0	0	0	495	628	
8	0	0	0	0	495	627	
9	0	0	0	0	495	631	
10	0	0	0	0	495	627	
11	0	0	0	0	495	627	
12	0	0	0	0	495	625	
13	0	0	0	0	496	622	
14	0	0	0	0	495	626	
15	0	0	0	0	495	625	
0	0	0	0	0	495	626	
1	0	0	0	0	495	629	
2	0	0	0	0	495	625	
3	0	0	0	0	495	625	
4	0	0	0	0	494	625	
5	0	0	0	0	494	621	
6	0	0	0	0	495	625	
7	0	0	0	0	496	625	
8	0	0	0	0	496	625	
9	0	0	0	0	496	628	
10	0	0	0	0	496	625	
11	0	0	0	0	496	625	
12	0	0	0	0	496	624	
13	0	0	0	0	496	620	
14	0	0	0	0	496	624	
15	0	0	0	0	496	624	
0	0	0	0	0	496	624	
1	0	0	0	0	497	628	
2	0	0	0	0	497	624	
3	0	0	0	0	496	624	
4	0	0	0	0	497	625	
5	0	0	0	0	497	620	
6	0	0	0	0	497	625	
7	0	0	0	0	496	625	
8	0	0	0	0	497	625	
9	0	0	0	0	496	628	
10	0	0	0	0	496	624	
11	0	0	0	0	496	624	
12	0	0	0	0	495	624	
13	0	0	0	0	495	621	
14	0	0	0	0	495	625	
15	0	0	0	0	494	625	
0	0	0	0	0	495	625	
1	0	0	0	0	495	629	
2	0	0	0	0	495	625	
3	0	0	0	0	495	625	
4	0	0	0	0	496	625	
5	0	0	0	0	497	621	
6	0	0	0	0	497	625	
7	0	0	0	0	497	625	
8	0	0	0	0	497	626	
9	0	0	0	0	497	629	
10	0	0	0	0	497	625	
11	0	0	0	0	497	625	
12	0	0	0	0	497	625	
13	0	0	0	0	498	622	
14	0	0	0	0	497	626	
15	0	0	0	0	497	626	
0	0	0	0	0	497	626	
1	0	0	0	0	496	630	
2	0	0	0	0	498	626	
3	0	0	0	0	497	626	
4	0	0	0	0	497	625	
5	0	0	0	0	497	622	
6	0	0	0	0	498	625	
7	0	0	0	0	498	626	
8	0	0	0	0	498	626	
9	0	0	0	0	499	629	
10	0	0	0	0	498	625	
11	0	0	0	0	498	625	
12	0	0	0	0	498	625	
13	0	0	0	0	497	621	
14	0	0	0	0	497	626	
15	0	0	0	0	497	625	
0	0	0	0	0	497	625	
1	0	0	0	0	497	628	
2	0	0	0	0	497	625	
3	0	0	0	0	498	625	
4	0	0	0	0	498	625	
5	0	0	0	0	498	620	
6	0	0	0	0	498	625	
7	0	0	0	0	498	624	
8	0	0	0	0	498	624	
9	0	0	0	0	498	627	
10	0	0	0	0	497	624	
11	0	0	0	0	496	624	
12	0	0	0	0	496	624	
13	0	0	0	0	496	620	
14	0	0	0	0	496	624	
15	0	0	0	0	496	624	
0	0	0	0	0	496	623	
1	0	0	0	0	496	626	
2	0	0	0	0	497	623	
3	0	0	0	0	497	623	
4	0	0	0	0	498	622	
5	0	0	0	0	498	618	
6	0	0	0	0	498	623	
7	0	0	0	0	499	623	
8	0	0	0	0	499	623	
9	0	0	0	0	500	626	
10	0	0	0	0	500	623	
11	0	0	0	0	499	622	
12	0	0	0	0	499	623	
13	0	0	0	0	499	620	
14	0	0	0	0	499	623	
15	0	0	0	0	499	622	
0	0	0	0	0	499	623	
1	0	0	0	0	498	626	
2	0	0	0	0	497	623	
3	0	0	0	0	496	624	
4	0	0	0	0	496	623	
5	0	0	0	0	495	619	
6	0	0	0	0	495	623	
7	0	0	0	0	495	623	
8	0	0	0	0	495	623	
9	0	0	0	0	495	626	
10	0	0	0	0	495	623	
11	0	0	0	0	494	623	
12	0	0	0	0	494	623	
13	0	0	0	0	493	618	
14	0	0	0	0	494	623	
15	0	0	0	0	495	622	
0	0	0	0	0	495	622	
1	0	0	0	0	495	625	
2	0	0	0	0	496	622	
3	0	0	0	0	496	622	
4	0	0	0	0	497	621	
5	0	0	0	0	498	618	
6	0	0	0	0	498	622	
7	0	0	0	0	498	623	
8	0	0	0	0	498	623	
9	0	0	0	0	498	625	
10	0	0	0	0	498	623	
11	0	0	0	0	497	622	
12	0	0	0	0	497	623	
13	0	0	0	0	498	619	
14	0	0	0	0	497	623	
15	0	0	0	0	497	624	
0	0	0	0	0	496	624	
1	0	0	0	0	496	627	
2	0	0	0	0	496	624	
3	0	0	0	0	496	625	
4	0	0	0	0	498	625	
5	0	0	0	0	498	621	
6	0	0	0	0	498	625	
7	0	0	0	0	499	626	
8	0	0	0	0	499	625	
9	0	0	0	0	500	630	
10	0	0	0	0	500	626	
11	0	0	0	0	500	626	
12	0	0	0	0	500	626	
13	0	0	0	0	499	622	
14	0	0	0	0	499	627	
15	0	0	0	0	499	626	
0	0	0	0	0	498	627	
1	0	0	0	0	498	630	
2	0	0	0	0	497	627	
3	0	0	0	0	496	627	
4	0	0	0	0	496	626	
5	0	0	0	0	495	622	
6	0	0	0	0	494	626	
7	0	0	0	0	494	625	
8	0	0	0	0	494	626	
9	0	0	0	0	493	629	
10	0	0	0	0	495	625	
11	0	0	0	0	496	625	
12	0	0	0	0	497	624	
13	0	0	0	0	497	621	
14	0	0	0	0	498	624	
15	0	0	0	0	499	624	
0	0	0	0	0	500	625	
1	0	0	0	0	500	627	
2	0	0	0	0	501	624	
3	0	0	0	0	501	624	
4	0	0	0	0	501	624	
5	0	0	0	0	500	621	
6	0	0	0	0	500	624	
7	0	0	0	0	500	624	
8	0	0	0	0	500	624	
9	0	0	0	0	500	627	
10	0	0	0	0	500	623	
11	0	0	0	0	500	623	
12	0	0	0	0	500	623	
13	0	0	0	0	499	619	
14	0	0	0	0	500	622	
15	0	0	0	0	500	622	
0	0	0	0	0	499	622	
1	0	0	0	0	499	625	
2	0	0	0	0	498	621	
3	0	0	0	0	497	622	
4	0	0	0	0	496	621	
5	0	0	0	0	495	617	
6	0	0	0	0	495	622	
7	0	0	0	0	495	621	
8	0	0	0	0	495	621	
9	0	0	0	0	495	624	
10	0	0	0	0	495	620	
11	0	0	0	0	495	620	
12	0	0	0	0	496	620	
13	0	0	0	0	497	617	
14	0	0	0	0	497	620	
15	0	0	0	0	497	619	
0	0	0	0	0	497	620	
1	0	0	0	0	497	623	
2	0	0	0	0	497	620	
3	0	0	0	0	497	620	
4	0	0	0	0	497	620	
5	0	0	0	0	498	617	
6	0	0	0	0	499	620	
7	0	0	0	0	499	621	
8	0	0	0	0	499	621	
9	0	0	0	0	499	624	
10	0	0	0	0	499	622	
11	0	0	0	0	499	622	
12	0	0	0	0	499	622	
13	0	0	0	0	499	618	
14	0	0	0	0	499	621	
15	0	0	0	0	500	622	
0	0	0	0	0	501	622	
1	0	0	0	0	502	624	
2	0	0	0	0	502	621	
3	0	0	0	0	502	621	
4	0	0	0	0	502	622	
5	0	0	0	0	501	618	
6	0	0	0	0	500	623	
7	0	0	0	0	500	623	
8	0	0	0	0	500	623	
9	0	0	0	0	500	626	
10	0	0	0	0	499	623	
11	0	0	0	0	499	623	
12	0	0	0	0	499	624	
13	0	0	0	0	498	620	
14	0	0	0	0	498	625	
15	0	0	0	0	498	625	
0	0	0	0	0	497	625	
1	0	0	0	0	496	628	
2	0	0	0	0	496	625	
3	0	0	0	0	495	625	
4	0	0	0	0	495	625	
5	0	0	0	0	494	621	
6	0	0	0	0	495	625	
7	0	0	0	0	495	625	
8	0	0	0	0	496	627	
9	0	0	0	0	496	629	
10	0	0	0	0	496	626	
11	0	0	0	0	496	625	
12	0	0	0	0	497	625	
13	0	0	0	0	498	622	
14	0	0	0	0	498	625	
15	0	0	0	0	498	626	
0	0	0	0	0	499	626	
1	0	0	0	0	499	629	
2	0	0	0	0	499	627	
3	0	0	0	0	499	627	
4	0	0	0	0	499	627	
5	0	0	0	0	499	623	
6	0	0	0	0	499	627	
7	0	0	0	0	498	628	
8	0	0	0	0	498	628	
9	0	0	0	0	498	631	
10	0	0	0	0	498	628	
11	0	0	0	0	497	628	
12	0	0	0	0	497	629	
13	0	0	0	0	497	624	
14	0	0	0	0	496	627	
15	0	0	0	0	496	628	
0	0	0	0	0	496	628	
1	0	0	0	0	496	631	
2	0	0	0	0	496	627	
3	0	0	0	0	496	628	
4	0	0	0	0	496	627	
5	0	0	0	0	496	623	
6	0	0	0	0	496	627	
7	0	0	0	0	497	627	
8	0	0	0	0	497	627	
9	0	0	0	0	498	630	
10	0	0	0	0	499	626	
11	0	0	0	0	500	627	
12	0	0	0	0	502	626	
13	0	0	0	0	504	622	
14	0	0	0	0	506	626	
15	0	0	0	0	508	625	
0	0	0	0	0	509	625	
1	0	0	0	0	510	629	
2	0	0	0	0	510	625	
3	0	0	0	0	510	625	
4	0	0	0	0	510	625	
5	0	0	0	0	510	621	
6	0	0	0	0	510	625	
7	0	0	0	0	509	624	
8	0	0	0	0	509	624	
9	0	0	0	0	508	628	
10	0	0	0	0	509	624	
11	0	0	0	0	508	624	
12	0	0	0	0	508	624	
13	0	0	0	0	508	620	
14	0	0	0	0	507	623	
15	0	0	0	0	507	623	
0	0	0	0	0	508	623	
1	0	0	0	0	508	626	
2	0	0	0	0	508	623	
3	0	0	0	0	507	623	
4	0	0	0	0	506	623	
5	0	0	0	0	506	619	
6	0	0	0	0	505	623	
7	0	0	0	0	504	623	
8	0	0	0	0	503	623	
9	0	0	0	0	503	627	
10	0	0	0	0	502	624	
11	0	0	0	0	502	624	
12	0	0	0	0	501	623	
13	0	0	0	0	501	619	
14	0	0	0	0	500	624	
15	0	0	0	0	500	624	
0	0	0	0	0	499	624	
1	0	0	0	0	499	627	
2	0	0	0	0	498	623	
3	0	0	0	0	498	623	
4	0	0	0	0	498	623	
5	0	0	0	0	498	619	
6	0	0	0	0	498	623	
7	0	0	0	0	498	623	
8	0	0	0	0	498	623	
9	0	0	0	0	499	625	
10	0	0	0	0	500	623	
11	0	0	0	0	500	622	
12	0	0	0	0	501	622	
13	0	0	0	0	502	618	
14	0	0	0	0	502	622	
15	0	0	0	0	502	622	
0	0	0	0	0	502	623	
1	0	0	0	0	502	625	
2	0	0	0	0	503	622	
3	0	0	0	0	503	622	
4	0	0	0	0	502	622	
5	0	0	0	0	501	619	
6	0	0	0	0	500	623	
7	0	0	0	0	499	623	
8	0	0	0	0	499	623	
9	0	0	0	0	499	627	
10	0	0	0	0	500	623	
11	0	0	0	0	500	623	
12	0	0	0	0	501	623	
13	0	0	0	0	501	620	
14	0	0	0	0	503	624	
15	0	0	0	0	502	624	
0	0	0	0	0	503	624	
1	0	0	0	0	503	627	
2	0	0	0	0	504	624	
3	0	0	0	0	504	624	
4	0	0	0	0	504	624	
5	0	0	0	0	504	621	
6	0	0	0	0	504	624	
7	0	0	0	0	504	625	
8	0	0	0	0	503	626	
9	0	0	0	0	504	630	
10	0	0	0	0	504	625	
11	0	0	0	0	503	626	
12	0	0	0	0	500	625	
13	0	0	0	0	498	623	
14	0	0	0	0	494	626	
15	0	0	0	0	490	625	
0	0	0	0	0	486	626	
1	0	0	0	0	481	630	
2	0	0	0	0	475	626	
3	0	0	0	0	467	626	
4	0	0	0	0	459	626	
5	0	0	0	0	451	622	
6	0	0	0	0	445	626	
7	0	0	0	0	441	626	
8	0	0	0	0	438	625	
9	0	0	0	0	435	629	
10	0	0	0	0	436	626	
11	0	0	0	0	437	626	
12	0	0	0	0	440	625	
13	0	0	0	0	445	621	
14	0	0	0	0	451	624	
15	0	0	0	0	459	625	
0	0	0	0	0	468	624	
1	0	0	0	0	479	628	
2	0	0	0	0	493	624	
3	0	0	0	0	509	624	
4	0	0	0	0	528	624	
5	0	0	0	0	548	620	
6	0	0	0	0	568	624	
7	0	0	0	0	591	624	
8	0	0	0	0	613	625	
9	0	0	0	0	635	628	
10	0	0	0	0	656	624	
11	0	0	0	0	676	624	
12	0	0	0	0	696	623	
13	0	0	0	0	715	620	
14	0	0	0	0	735	624	
15	0	0	0	0	756	624	
0	0	0	0	0	777	624	
1	0	0	0	0	796	627	
2	0	0	0	0	809	623	
3	0	0	0	0	817	623	
4	0	0	0	0	819	623	
5	0	0	0	0	816	619	
6	0	0	0	0	806	623	
7	0	0	0	0	791	623	
8	0	0	0	0	774	623	
9	0	0	0	0	755	627	
10	0	0	0	0	735	622	
11	0	0	0	0	712	622	
12	0	0	0	0	691	623	
13	0	0	0	0	671	619	
14	0	0	0	0	652	622	
15	0	0	0	0	636	623	
0	0	0	0	0	622	622	
1	0	0	0	0	611	625	
2	0	0	0	0	600	623	
3	0	0	0	0	589	623	
4	0	0	0	0	579	623	
5	0	0	0	0	569	619	
6	0	0	0	0	559	623	
7	0	0	0	0	551	624	
8	0	0	0	0	541	624	
9	0	0	0	0	532	627	
10	0	0	0	0	524	624	
11	0	0	0	0	515	624	
12	0	0	0	0	507	625	
13	0	0	0	0	498	620	
14	0	0	0	0	492	624	
15	0	0	0	0	487	625	
0	0	0	0	0	481	625	
1	0	0	0	0	477	629	
2	0	0	0	0	472	625	
3	0	0	0	0	467	626	
4	0	0	0	0	464	626	
5	0	0	0	0	460	622	
6	0	0	0	0	457	627	
7	0	0	0	0	454	627	
8	0	0	0	0	451	627	
9	0	0	0	0	448	631	
10	0	0	0	0	446	628	
11	0	0	0	0	445	629	
12	0	0	0	0	444	628	
13	0	0	0	0	443	625	
14	0	0	0	0	442	629	
15	0	0	0	0	442	629	
0	0	0	0	0	443	630	
1	0	0	0	0	442	633	
2	0	0	0	0	443	629	
3	0	0	0	0	444	630	
4	0	0	0	0	444	629	
5	0	0	0	0	445	626	
6	0	0	0	0	445	628	
7	0	0	0	0	446	629	
8	0	0	0	0	447	628	
9	0	0	0	0	447	631	
10	0	0	0	0	447	628	
11	0	0	0	0	448	627	
12	0	0	0	0	448	627	
13	0	0	0	0	449	623	
14	0	0	0	0	449	626	
15	0	0	0	0	449	627	
0	0	0	0	0	449	626	
1	0	0	0	0	448	629	
2	0	0	0	0	449	625	
3	0	0	0	0	448	625	
4	0	0	0	0	449	624	
5	0	0	0	0	451	621	
6	0	0	0	0	453	625	
7	0	0	0	0	454	625	
8	0	0	0	0	454	625	
9	0	0	0	0	455	628	
10	0	0	0	0	455	625	
11	0	0	0	0	455	625	
12	0	0	0	0	455	624	
13	0	0	0	0	456	621	
14	0	0	0	0	456	625	
15	0	0	0	0	456	625	
0	0	0	0	0	456	625	
1	0	0	0	0	457	628	
2	0	0	0	0	457	624	
3	0	0	0	0	458	625	
4	0	0	0	0	458	624	
5	0	0	0	0	459	621	
6	0	0	0	0	460	624	
7	0	0	0	0	460	624	
8	0	0	0	0	461	624	
9	0	0	0	0	460	627	
10	0	0	0	0	460	624	
11	0	0	0	0	460	623	
12	0	0	0	0	460	623	
13	0	0	0	0	460	619	
14	0	0	0	0	461	623	
15	0	0	0	0	462	623	
0	0	0	0	0	462	623	
1	0	0	0	0	463	626	
2	0	0	0	0	463	623	
3	0	0	0	0	463	623	
4	0	0	0	0	464	623	
5	0	0	0	0	465	619	
6	0	0	0	0	465	622	
7	0	0	0	0	466	622	
8	0	0	0	0	466	622	
9	0	0	0	0	466	626	
10	0	0	0	0	467	623	
11	0	0	0	0	467	623	
12	0	0	0	0	467	623	
13	0	0	0	0	468	619	
14	0	0	0	0	469	623	
15	0	0	0	0	469	623	
0	0	0	0	0	469	623	
1	0	0	0	0	468	626	
2	0	0	0	0	468	623	
3	0	0	0	0	468	623	
4	0	0	0	0	468	623	
5	0	0	0	0	468	619	
6	0	0	0	0	469	623	
7	0	0	0	0	470	623	
8	0	0	0	0	471	623	
9	0	0	0	0	471	626	
10	0	0	0	0	471	623	
11	0	0	0	0	471	624	
12	0	0	0	0	472	623	
13	0	0	0	0	472	619	
14	0	0	0	0	473	623	
15	0	0	0	0	474	622	
0	0	0	0	0	475	623	
1	0	0	0	0	476	626	
2	0	0	0	0	476	623	
3	0	0	0	0	477	623	
4	0	0	0	0	477	622	
5	0	0	0	0	478	620	
6	0	0	0	0	479	623	
7	0	0	0	0	479	624	
8	0	0	0	0	479	623	
9	0	0	0	0	479	627	
10	0	0	0	0	480	624	
11	0	0	0	0	480	624	
12	0	0	0	0	481	624	
13	0	0	0	0	482	620	
14	0	0	0	0	482	624	
15	0	0	0	0	483	624	
0	0	0	0	0	485	624	
1	0	0	0	0	487	628	
2	0	0	0	0	488	625	
3	0	0	0	0	488	625	
4	0	0	0	0	490	625	
5	0	0	0	0	490	621	
6	0	0	0	0	490	626	
7	0	0	0	0	490	626	
8	0	0	0	0	489	626	
9	0	0	0	0	489	630	
10	0	0	0	0	489	626	
11	0	0	0	0	488	627	
12	0	0	0	0	489	627	
13	0	0	0	0	489	624	
14	0	0	0	0	490	628	
15	0	0	0	0	489	628	
0	0	0	0	0	490	629	
1	0	0	0	0	491	632	
2	0	0	0	0	491	628	
3	0	0	0	0	492	629	
4	0	0	0	0	493	628	
5	0	0	0	0	494	625	
6	0	0	0	0	495	629	
7	0	0	0	0	495	629	
8	0	0	0	0	495	628	
9	0	0	0	0	495	631	
10	0	0	0	0	495	628	
11	0	0	0	0	496	628	
12	0	0	0	0	497	627	
13	0	0	0	0	497	623	
14	0	0	0	0	497	628	
15	0	0	0	0	497	627	
0	0	0	0	0	497	628	
1	0	0	0	0	497	631	
2	0	0	0	0	498	628	
3	0	0	0	0	497	627	
4	0	0	0	0	497	627	
5	0	0	0	0	496	623	
6	0	0	0	0	497	627	
7	0	0	0	0	498	627	
8	0	0	0	0	499	627	
9	0	0	0	0	499	630	
10	0	0	0	0	498	625	
11	0	0	0	0	498	626	
12	0	0	0	0	499	625	
13	0	0	0	0	500	621	
14	0	0	0	0	500	625	
15	0	0	0	0	502	625	
0	0	0	0	0	503	624	
1	0	0	0	0	503	628	
2	0	0	0	0	503	625	
3	0	0	0	0	502	624	
4	0	0	0	0	503	624	
5	0	0	0	0	504	620	
6	0	0	0	0	504	624	
7	0	0	0	0	503	624	
8	0	0	0	0	504	624	
9	0	0	0	0	504	627	
10	0	0	0	0	505	623	
11	0	0	0	0	507	624	
12	0	0	0	0	508	623	
13	0	0	0	0	510	620	
14	0	0	0	0	510	623	
15	0	0	0	0	511	622	
0	0	0	0	0	512	623	
1	0	0	0	0	511	626	
2	0	0	0	0	511	623	
3	0	0	0	0	511	622	
4	0	0	0	0	511	622	
5	0	0	0	0	512	619	
6	0	0	0	0	512	622	
7	0	0	0	0	512	621	
8	0	0	0	0	511	622	
9	0	0	0	0	510	624	
10	0	0	0	0	510	622	
11	0	0	0	0	509	621	
12	0	0	0	0	508	621	
13	0	0	0	0	507	617	
14	0	0	0	0	506	621	
15	0	0	0	0	506	622	
0	0	0	0	0	506	622	
1	0	0	0	0	507	624	
2	0	0	0	0	507	621	
3	0	0	0	0	506	621	
4	0	0	0	0	507	621	
5	0	0	0	0	507	617	
6	0	0	0	0	507	621	
7	0	0	0	0	506	622	
8	0	0	0	0	506	621	
9	0	0	0	0	506	625	
10	0	0	0	0	507	622	
11	0	0	0	0	507	622	
12	0	0	0	0	507	621	
13	0	0	0	0	507	617	
14	0	0	0	0	508	622	
15	0	0	0	0	507	622	
0	0	0	0	0	508	622	
1	0	0	0	0	508	625	
2	0	0	0	0	508	622	
3	0	0	0	0	508	622	
4	0	0	0	0	508	622	
5	0	0	0	0	508	618	
6	0	0	0	0	507	622	
7	0	0	0	0	507	622	
8	0	0	0	0	506	623	
9	0	0	0	0	505	626	
10	0	0	0	0	505	622	
11	0	0	0	0	504	622	
12	0	0	0	0	504	622	
13	0	0	0	0	504	619	
14	0	0	0	0	502	623	
15	0	0	0	0	501	623	
0	0	0	0	0	501	623	
1	0	0	0	0	501	627	
2	0	0	0	0	501	623	
3	0	0	0	0	500	623	
4	0	0	0	0	500	624	
5	0	0	0	0	499	620	
6	0	0	0	0	499	624	
7	0	0	0	0	499	625	
8	0	0	0	0	499	626	
9	0	0	0	0	499	629	
10	0	0	0	0	499	626	
11	0	0	0	0	499	627	
12	0	0	0	0	500	627	
13	0	0	0	0	501	623	
14	0	0	0	0	501	627	
15	0	0	0	0	500	627	
0	0	0	0	0	499	627	
1	0	0	0	0	499	631	
2	0	0	0	0	498	627	
3	0	0	0	0	498	627	
4	0	0	0	0	498	626	
5	0	0	0	0	498	623	
6	0	0	0	0	498	627	
7	0	0	0	0	498	627	
8	0	0	0	0	498	627	
9	0	0	0	0	497	630	
10	0	0	0	0	497	626	
11	0	0	0	0	498	627	
12	0	0	0	0	498	626	
13	0	0	0	0	498	622	
14	0	0	0	0	497	626	
15	0	0	0	0	497	626	
0	0	0	0	0	497	626	
1	0	0	0	0	496	629	
2	0	0	0	0	496	626	
3	0	0	0	0	496	625	
4	0	0	0	0	496	624	
5	0	0	0	0	497	621	
6	0	0	0	0	497	624	
7	0	0	0	0	498	625	
8	0	0	0	0	499	624	
9	0	0	0	0	501	628	
10	0	0	0	0	502	625	
11	0	0	0	0	502	624	
12	0	0	0	0	502	624	
13	0	0	0	0	502	620	
14	0	0	0	0	502	624	
15	0	0	0	0	502	624	
0	0	0	0	0	502	624	
1	0	0	0	0	502	627	
2	0	0	0	0	502	623	
3	0	0	0	0	501	623	
4	0	0	0	0	500	623	
5	0	0	0	0	499	619	
6	0	0	0	0	499	623	
7	0	0	0	0	499	623	
8	0	0	0	0	499	623	
9	0	0	0	0	499	627	
10	0	0	0	0	499	623	
11	0	0	0	0	499	622	
12	0	0	0	0	500	622	
13	0	0	0	0	499	617	
14	0	0	0	0	500	622	
15	0	0	0	0	501	622	
0	0	0	0	0	502	622	
1	0	0	0	0	503	624	
2	0	0	0	0	505	620	
3	0	0	0	0	506	620	
4	0	0	0	0	505	619	
5	0	0	0	0	505	615	
6	0	0	0	0	506	620	
7	0	0	0	0	507	619	
8	0	0	0	0	508	620	
9	0	0	0	0	508	624	
10	0	0	0	0	507	620	
11	0	0	0	0	507	620	
12	0	0	0	0	507	621	
13	0	0	0	0	507	618	
14	0	0	0	0	508	622	
15	0	0	0	0	510	623	
0	0	0	0	0	510	623	
1	0	0	0	0	511	627	
2	0	0	0	0	511	623	
3	0	0	0	0	510	623	
4	0	0	0	0	510	623	
5	0	0	0	0	510	619	
6	0	0	0	0	509	622	
7	0	0	0	0	510	623	
8	0	0	0	0	511	623	
9	0	0	0	0	511	626	
10	0	0	0	0	510	623	
11	0	0	0	0	510	622	
12	0	0	0	0	509	623	
13	0	0	0	0	509	619	
14	0	0	0	0	510	623	
15	0	0	0	0	510	623	
0	0	0	0	0	510	624	
1	0	0	0	0	509	627	
2	0	0	0	0	509	623	
3	0	0	0	0	509	624	
4	0	0	0	0	509	624	
5	0	0	0	0	509	620	
6	0	0	0	0	509	624	
7	0	0	0	0	510	624	
8	0	0	0	0	509	624	
9	0	0	0	0	509	628	
10	0	0	0	0	509	624	
11	0	0	0	0	509	625	
12	0	0	0	0	509	625	
13	0	0	0	0	510	622	
14	0	0	0	0	510	626	
15	0	0	0	0	511	625	
0	0	0	0	0	511	626	
1	0	0	0	0	511	629	
2	0	0	0	0	512	626	
3	0	0	0	0	512	626	
4	0	0	0	0	512	625	
5	0	0	0	0	512	623	
6	0	0	0	0	512	625	
7	0	0	0	0	512	625	
8	0	0	0	0	511	625	
9	0	0	0	0	510	628	
10	0	0	0	0	510	625	
11	0	0	0	0	509	625	
12	0	0	0	0	510	626	
13	0	0	0	0	510	622	
14	0	0	0	0	508	626	
15	0	0	0	0	507	627	
0	0	0	0	0	507	627	
1	0	0	0	0	507	631	
2	0	0	0	0	505	627	
3	0	0	0	0	505	627	
4	0	0	0	0	507	627	
5	0	0	0	0	507	624	
6	0	0	0	0	508	627	
7	0	0	0	0	508	627	
8	0	0	0	0	509	627	
9	0	0	0	0	510	631	
10	0	0	0	0	511	628	
11	0	0	0	0	512	628	
12	0	0	0	0	512	628	
13	0	0	0	0	513	624	
14	0	0	0	0	514	628	
15	0	0	0	0	514	628	
0	0	0	0	0	514	628	
1	0	0	0	0	514	631	
2	0	0	0	0	514	627	
3	0	0	0	0	513	628	
4	0	0	0	0	513	627	
5	0	0	0	0	513	623	
6	0	0	0	0	513	627	
7	0	0	0	0	512	627	
8	0	0	0	0	512	627	
9	0	0	0	0	512	630	
10	0	0	0	0	512	626	
11	0	0	0	0	512	627	
12	0	0	0	0	513	626	
13	0	0	0	0	513	623	
14	0	0	0	0	514	626	
15	0	0	0	0	515	627	
0	0	0	0	0	515	627	
1	0	0	0	0	514	631	
2	0	0	0	0	515	627	
3	0	0	0	0	515	627	
4	0	0	0	0	515	626	
5	0	0	0	0	516	622	
6	0	0	0	0	516	626	
7	0	0	0	0	517	625	
8	0	0	0	0	517	625	
9	0	0	0	0	517	629	
10	0	0	0	0	517	625	
11	0	0	0	0	517	625	
12	0	0	0	0	517	624	
13	0	0	0	0	517	620	
14	0	0	0	0	517	624	
15	0	0	0	0	516	624	
0	0	0	0	0	516	623	
1	0	0	0	0	516	627	
2	0	0	0	0	516	624	
3	0	0	0	0	515	624	
4	0	0	0	0	515	623	
5	0	0	0	0	514	619	
6	0	0	0	0	514	623	
7	0	0	0	0	514	623	
8	0	0	0	0	513	623	
9	0	0	0	0	512	626	
10	0	0	0	0	512	623	
11	0	0	0	0	513	623	
12	0	0	0	0	513	622	
13	0	0	0	0	512	619	
14	0	0	0	0	511	622	
15	0	0	0	0	511	622	
0	0	0	0	0	510	623	
1	0	0	0	0	510	625	
2	0	0	0	0	510	622	
3	0	0	0	0	510	622	
4	0	0	0	0	510	621	
5	0	0	0	0	510	618	
6	0	0	0	0	510	621	
7	0	0	0	0	510	621	
8	0	0	0	0	509	622	
9	0	0	0	0	510	624	
10	0	0	0	0	511	621	
11	0	0	0	0	512	622	
12	0	0	0	0	512	621	
13	0	0	0	0	513	617	
14	0	0	0	0	513	622	
15	0	0	0	0	512	622	
0	0	0	0	0	512	622	
1	0	0	0	0	510	625	
2	0	0	0	0	509	622	
3	0	0	0	0	508	621	
4	0	0	0	0	508	621	
5	0	0	0	0	507	617	
6	0	0	0	0	506	621	
7	0	0	0	0	506	621	
8	0	0	0	0	505	622	
9	0	0	0	0	505	625	
10	0	0	0	0	505	622	
11	0	0	0	0	505	622	
12	0	0	0	0	506	622	
13	0	0	0	0	506	618	
14	0	0	0	0	506	622	
15	0	0	0	0	507	623	
0	0	0	0	0	508	623	
1	0	0	0	0	508	626	
2	0	0	0	0	508	624	
3	0	0	0	0	508	624	
4	0	0	0	0	508	624	
5	0	0	0	0	508	621	
6	0	0	0	0	508	624	
7	0	0	0	0	508	624	
8	0	0	0	0	509	624	
9	0	0	0	0	509	627	
10	0	0	0	0	510	624	
11	0	0	0	0	510	624	
12	0	0	0	0	511	624	
13	0	0	0	0	511	620	
14	0	0	0	0	511	624	
15	0	0	0	0	511	625	
0	0	0	0	0	510	624	
1	0	0	0	0	509	627	
2	0	0	0	0	508	624	
3	0	0	0	0	508	624	
4	0	0	0	0	507	624	
5	0	0	0	0	507	620	
6	0	0	0	0	507	624	
7	0	0	0	0	508	624	
8	0	0	0	0	509	625	
9	0	0	0	0	509	628	
10	0	0	0	0	510	624	
11	0	0	0	0	509	624	
12	0	0	0	0	508	625	
13	0	0	0	0	507	620	
14	0	0	0	0	507	624	
15	0	0	0	0	507	624	
0	0	0	0	0	507	624	
1	0	0	0	0	508	628	
2	0	0	0	0	509	624	
3	0	0	0	0	508	624	
4	0	0	0	0	508	624	
5	0	0	0	0	507	619	
6	0	0	0	0	506	624	
7	0	0	0	0	507	623	
8	0	0	0	0	507	624	
9	0	0	0	0	507	627	
10	0	0	0	0	507	623	
11	0	0	0	0	506	623	
12	0	0	0	0	506	623	
13	0	0	0	0	506	619	
14	0	0	0	0	507	623	
15	0	0	0	0	506	623	
0	0	0	0	0	506	623	
1	0	0	0	0	506	627	
2	0	0	0	0	507	623	
3	0	0	0	0	506	623	
4	0	0	0	0	507	623	
5	0	0	0	0	507	619	
6	0	0	0	0	506	623	
7	0	0	0	0	504	623	
8	0	0	0	0	504	623	
9	0	0	0	0	504	626	
10	0	0	0	0	504	624	
11	0	0	0	0	503	623	
12	0	0	0	0	503	624	
13	0	0	0	0	503	619	
14	0	0	0	0	503	623	
15	0	0	0	0	504	623	
0	0	0	0	0	504	623	
1	0	0	0	0	505	627	
2	0	0	0	0	505	623	
3	0	0	0	0	505	624	
4	0	0	0	0	504	623	
5	0	0	0	0	504	620	
6	0	0	0	0	503	624	
7	0	0	0	0	503	624	
8	0	0	0	0	503	624	
9	0	0	0	0	502	627	
10	0	0	0	0	501	624	
11	0	0	0	0	500	624	
12	0	0	0	0	499	624	
13	0	0	0	0	499	620	
14	0	0	0	0	500	625	
15	0	0	0	0	501	625	
0	0	0	0	0	501	626	
1	0	0	0	0	501	629	
2	0	0	0	0	501	625	
3	0	0	0	0	501	626	
4	0	0	0	0	502	625	
5	0	0	0	0	504	622	
6	0	0	0	0	505	626	
7	0	0	0	0	505	626	
8	0	0	0	0	504	626	
9	0	0	0	0	504	630	
10	0	0	0	0	504	626	
11	0	0	0	0	503	626	
12	0	0	0	0	502	625	
13	0	0	0	0	503	622	
14	0	0	0	0	502	625	
15	0	0	0	0	502	626	
0	0	0	0	0	502	626	
1	0	0	0	0	502	629	
2	0	0	0	0	503	625	
3	0	0	0	0	503	625	
4	0	0	0	0	504	626	
5	0	0	0	0	504	622	
6	0	0	0	0	505	625	
7	0	0	0	0	505	626	
8	0	0	0	0	505	626	
9	0	0	0	0	505	629	
10	0	0	0	0	506	625	
11	0	0	0	0	506	625	
12	0	0	0	0	506	626	
13	0	0	0	0	507	622	
14	0	0	0	0	507	625	
15	0	0	0	0	507	625	
0	0	0	0	0	506	625	
1	0	0	0	0	506	630	
2	0	0	0	0	508	625	
3	0	0	0	0	508	625	
4	0	0	0	0	507	625	
5	0	0	0	0	506	621	
6	0	0	0	0	505	626	
7	0	0	0	0	504	625	
8	0	0	0	0	503	625	
9	0	0	0	0	504	629	
10	0	0	0	0	503	625	
11	0	0	0	0	503	625	
12	0	0	0	0	502	625	
13	0	0	0	0	502	620	
14	0	0	0	0	501	625	
15	0	0	0	0	501	625	
0	0	0	0	0	499	625	
1	0	0	0	0	498	628	
2	0	0	0	0	498	625	
3	0	0	0	0	499	625	
4	0	0	0	0	498	625	
5	0	0	0	0	498	621	
6	0	0	0	0	498	625	
7	0	0	0	0	497	625	
8	0	0	0	0	498	625	
9	0	0	0	0	498	628	
10	0	0	0	0	498	625	
11	0	0	0	0	498	625	
12	0	0	0	0	498	624	
13	0	0	0	0	498	621	
14	0	0	0	0	499	624	
15	0	0	0	0	500	624	
0	0	0	0	0	501	625	
1	0	0	0	0	502	628	
2	0	0	0	0	503	625	
3	0	0	0	0	503	624	
4	0	0	0	0	504	624	
5	0	0	0	0	504	620	
6	0	0	0	0	504	624	
7	0	0	0	0	505	624	
8	0	0	0	0	505	624	
9	0	0	0	0	506	627	
10	0	0	0	0	505	623	
11	0	0	0	0	505	623	
12	0	0	0	0	506	623	
13	0	0	0	0	506	619	
14	0	0	0	0	507	624	
15	0	0	0	0	506	623	
0	0	0	0	0	505	623	
1	0	0	0	0	504	626	
2	0	0	0	0	503	623	
3	0	0	0	0	503	623	
4	0	0	0	0	502	623	
5	0	0	0	0	501	619	
6	0	0	0	0	500	623	
7	0	0	0	0	500	623	
8	0	0	0	0	499	624	
9	0	0	0	0	499	627	
10	0	0	0	0	500	624	
11	0	0	0	0	499	624	
12	0	0	0	0	499	624	
13	0	0	0	0	500	620	
14	0	0	0	0	500	624	
15	0	0	0	0	500	625	
0	0	0	0	0	500	625	
1	0	0	0	0	501	628	
2	0	0	0	0	501	625	
3	0	0	0	0	501	625	
4	0	0	0	0	501	625	
5	0	0	0	0	501	621	
6	0	0	0	0	501	625	
7	0	0	0	0	501	625	
8	0	0	0	0	502	626	
9	0	0	0	0	502	629	
10	0	0	0	0	503	625	
11	0	0	0	0	503	625	
12	0	0	0	0	504	626	
13	0	0	0	0	504	622	
14	0	0	0	0	504	626	
15	0	0	0	0	504	625	
0	0	0	0	0	503	626	
1	0	0	0	0	503	630	
2	0	0	0	0	503	626	
3	0	0	0	0	504	626	
4	0	0	0	0	503	626	
5	0	0	0	0	503	623	
6	0	0	0	0	502	627	
7	0	0	0	0	501	627	
8	0	0	0	0	501	627	
9	0	0	0	0	501	631	
10	0	0	0	0	500	628	
11	0	0	0	0	500	628	
12	0	0	0	0	499	627	
13	0	0	0	0	500	624	
14	0	0	0	0	500	628	
15	0	0	0	0	501	628	
0	0	0	0	0	503	628	
1	0	0	0	0	504	631	
2	0	0	0	0	504	627	
3	0	0	0	0	503	627	
4	0	0	0	0	503	627	
5	0	0	0	0	502	623	
6	0	0	0	0	503	627	
7	0	0	0	0	502	626	
8	0	0	0	0	501	627	
9	0	0	0	0	501	630	
10	0	0	0	0	501	627	
11	0	0	0	0	501	626	
12	0	0	0	0	501	626	
13	0	0	0	0	502	622	
14	0	0	0	0	503	625	
15	0	0	0	0	504	625	
0	0	0	0	0	504	626	
1	0	0	0	0	504	629	
2	0	0	0	0	505	625	
3	0	0	0	0	505	625	
4	0	0	0	0	505	625	
5	0	0	0	0	505	620	
6	0	0	0	0	506	624	
7	0	0	0	0	506	624	
8	0	0	0	0	506	624	
9	0	0	0	0	506	627	
10	0	0	0	0	507	623	
11	0	0	0	0	507	624	
12	0	0	0	0	507	623	
13	0	0	0	0	506	619	
14	0	0	0	0	505	623	
15	0	0	0	0	504	623	
0	0	0	0	0	503	622	
1	0	0	0	0	504	626	
2	0	0	0	0	504	622	
3	0	0	0	0	505	623	
4	0	0	0	0	505	622	
5	0	0	0	0	505	619	
6	0	0	0	0	505	622	
7	0	0	0	0	505	622	
8	0	0	0	0	507	623	
9	0	0	0	0	509	625	
10	0	0	0	0	510	622	
11	0	0	0	0	511	622	
12	0	0	0	0	511	622	
13	0	0	0	0	511	619	
14	0	0	0	0	510	622	
15	0	0	0	0	510	622	
0	0	0	0	0	509	622	
1	0	0	0	0	508	626	
2	0	0	0	0	508	623	
3	0	0	0	0	508	622	
4	0	0	0	0	508	622	
5	0	0	0	0	508	619	
6	0	0	0	0	507	622	
7	0	0	0	0	506	623	
8	0	0	0	0	505	623	
9	0	0	0	0	506	626	
10	0	0	0	0	506	623	
11	0	0	0	0	506	623	
12	0	0	0	0	506	623	
13	0	0	0	0	506	619	
14	0	0	0	0	506	623	
15	0	0	0	0	507	622	
0	0	0	0	0	507	623	
1	0	0	0	0	507	626	
2	0	0	0	0	507	622	
3	0	0	0	0	505	622	
4	0	0	0	0	504	622	
5	0	0	0	0	503	618	
6	0	0	0	0	503	622	
7	0	0	0	0	503	622	
8	0	0	0	0	504	622	
9	0	0	0	0	503	626	
10	0	0	0	0	502	622	
11	0	0	0	0	502	623	
12	0	0	0	0	501	622	
13	0	0	0	0	500	619	
14	0	0	0	0	499	623	
15	0	0	0	0	499	623	
0	0	0	0	0	499	623	
1	0	0	0	0	499	627	
2	0	0	0	0	500	624	
3	0	0	0	0	501	623	
4	0	0	0	0	501	623	
5	0	0	0	0	501	620	
6	0	0	0	0	501	624	
7	0	0	0	0	502	624	
8	0	0	0	0	504	625	
9	0	0	0	0	505	628	
10	0	0	0	0	506	625	
11	0	0	0	0	506	625	
12	0	0	0	0	507	625	
13	0	0	0	0	507	622	
14	0	0	0	0	505	625	
15	0	0	0	0	505	625	
0	0	0	0	0	506	625	
1	0	0	0	0	506	629	
2	0	0	0	0	505	625	
3	0	0	0	0	505	625	
4	0	0	0	0	504	626	
5	0	0	0	0	504	622	
6	0	0	0	0	502	626	
7	0	0	0	0	497	626	
8	0	0	0	0	493	626	
9	0	0	0	0	487	630	
10	0	0	0	0	481	626	
11	0	0	0	0	474	626	
12	0	0	0	0	467	625	
13	0	0	0	0	459	621	
14	0	0	0	0	453	625	
15	0	0	0	0	449	625	
0	0	0	0	0	446	625	
1	0	0	0	0	445	629	
2	0	0	0	0	447	625	
3	0	0	0	0	450	625	
4	0	0	0	0	454	625	
5	0	0	0	0	460	621	
6	0	0	0	0	467	625	
7	0	0	0	0	474	625	
8	0	0	0	0	482	626	
9	0	0	0	0	491	630	
10	0	0	0	0	503	625	
11	0	0	0	0	516	625	
12	0	0	0	0	533	624	
13	0	0	0	0	550	622	
14	0	0	0	0	568	626	
15	0	0	0	0	586	626	
0	0	0	0	0	606	626	
1	0	0	0	0	624	629	
2	0	0	0	0	642	625	
3	0	0	0	0	660	626	
4	0	0	0	0	678	625	
5	0	0	0	0	695	621	
6	0	0	0	0	713	625	
7	0	0	0	0	732	625	
8	0	0	0	0	752	624	
9	0	0	0	0	770	628	
10	0	0	0	0	783	624	
11	0	0	0	0	790	624	
12	0	0	0	0	791	624	
13	0	0	0	0	786	620	
14	0	0	0	0	776	623	
15	0	0	0	0	763	623	
0	0	0	0	0	748	623	
1	0	0	0	0	733	627	
2	0	0	0	0	714	623	
3	0	0	0	0	693	623	
4	0	0	0	0	673	623	
5	0	0	0	0	654	619	
6	0	0	0	0	638	623	
7	0	0	0	0	624	623	
8	0	0	0	0	612	623	
9	0	0	0	0	601	626	
10	0	0	0	0	592	622	
11	0	0	0	0	583	623	
12	0	0	0	0	574	623	
13	0	0	0	0	567	619	
14	0	0	0	0	559	623	
15	0	0	0	0	551	623	
0	0	0	0	0	543	623	
1	0	0	0	0	535	626	
2	0	0	0	0	528	623	
3	0	0	0	0	520	624	
4	0	0	0	0	514	623	
5	0	0	0	0	508	620	
6	0	0	0	0	502	623	
7	0	0	0	0	497	624	
8	0	0	0	0	492	624	
9	0	0	0	0	488	627	
10	0	0	0	0	483	625	
11	0	0	0	0	479	624	
12	0	0	0	0	476	625	
13	0	0	0	0	472	620	
14	0	0	0	0	469	624	
15	0	0	0	0	466	624	
0	0	0	0	0	464	625	
1	0	0	0	0	462	629	
2	0	0	0	0	460	625	
3	0	0	0	0	459	625	
4	0	0	0	0	458	625	
5	0	0	0	0	458	621	
6	0	0	0	0	456	625	
7	0	0	0	0	455	625	
8	0	0	0	0	453	625	
9	0	0	0	0	452	629	
10	0	0	0	0	451	625	
11	0	0	0	0	451	625	
12	0	0	0	0	451	626	
13	0	0	0	0	451	622	
14	0	0	0	0	452	626	
15	0	0	0	0	452	626	
0	0	0	0	0	453	626	
1	0	0	0	0	454	629	
2	0	0	0	0	455	626	
3	0	0	0	0	455	626	
4	0	0	0	0	455	626	
5	0	0	0	0	456	622	
6	0	0	0	0	457	625	
7	0	0	0	0	457	625	
8	0	0	0	0	457	625	
9	0	0	0	0	458	628	
10	0	0	0	0	460	625	
11	0	0	0	0	459	625	
12	0	0	0	0	459	624	
13	0	0	0	0	459	621	
14	0	0	0	0	458	625	
15	0	0	0	0	457	625	
0	0	0	0	0	457	625	
1	0	0	0	0	457	628	
2	0	0	0	0	457	624	
3	0	0	0	0	457	624	
4	0	0	0	0	459	624	
5	0	0	0	0	459	621	
6	0	0	0	0	460	624	
7	0	0	0	0	461	624	
8	0	0	0	0	462	624	
9	0	0	0	0	462	628	
10	0	0	0	0	462	624	
11	0	0	0	0	462	624	
12	0	0	0	0	463	624	
13	0	0	0	0	464	620	
14	0	0	0	0	464	624	
15	0	0	0	0	465	624	
0	0	0	0	0	465	624	
1	0	0	0	0	465	627	
2	0	0	0	0	465	624	
3	0	0	0	0	465	624	
4	0	0	0	0	465	624	
5	0	0	0	0	465	620	
6	0	0	0	0	465	624	
7	0	0	0	0	465	625	
8	0	0	0	0	465	624	
9	0	0	0	0	465	628	
10	0	0	0	0	466	624	
11	0	0	0	0	466	624	
12	0	0	0	0	466	623	
13	0	0	0	0	467	619	
14	0	0	0	0	469	624	
15	0	0	0	0	470	624	
0	0	0	0	0	471	624	
1	0	0	0	0	472	627	
2	0	0	0	0	473	624	
3	0	0	0	0	473	624	
4	0	0	0	0	475	623	
5	0	0	0	0	474	620	
6	0	0	0	0	474	624	
7	0	0	0	0	474	624	
8	0	0	0	0	474	623	
9	0	0	0	0	474	627	
10	0	0	0	0	475	623	
11	0	0	0	0	475	623	
12	0	0	0	0	476	623	
13	0	0	0	0	476	619	
14	0	0	0	0	475	623	
15	0	0	0	0	475	623	
0	0	0	0	0	474	623	
1	0	0	0	0	474	625	
2	0	0	0	0	473	622	
3	0	0	0	0	473	622	
4	0	0	0	0	473	622	
5	0	0	0	0	473	618	
6	0	0	0	0	472	623	
7	0	0	0	0	472	623	
8	0	0	0	0	473	622	
9	0	0	0	0	473	626	
10	0	0	0	0	474	622	
11	0	0	0	0	474	622	
12	0	0	0	0	474	622	
13	0	0	0	0	474	618	
14	0	0	0	0	474	622	
15	0	0	0	0	473	621	
0	0	0	0	0	473	622	
1	0	0	0	0	473	625	
2	0	0	0	0	473	621	
3	0	0	0	0	473	622	
4	0	0	0	0	473	622	
5	0	0	0	0	474	618	
6	0	0	0	0	474	622	
7	0	0	0	0	474	622	
8	0	0	0	0	475	622	
9	0	0	0	0	475	625	
10	0	0	0	0	476	623	
11	0	0	0	0	477	622	
12	0	0	0	0	478	622	
13	0	0	0	0	479	619	
14	0	0	0	0	480	622	
15	0	0	0	0	480	623	
0	0	0	0	0	481	623	
1	0	0	0	0	482	626	
2	0	0	0	0	482	624	
3	0	0	0	0	482	623	
4	0	0	0	0	482	623	
5	0	0	0	0	482	620	
6	0	0	0	0	482	623	
7	0	0	0	0	483	624	
8	0	0	0	0	483	624	
9	0	0	0	0	482	627	
10	0	0	0	0	483	625	
11	0	0	0	0	482	625	
12	0	0	0	0	483	625	
13	0	0	0	0	483	621	
14	0	0	0	0	484	625	
15	0	0	0	0	484	626	
0	0	0	0	0	485	626	
1	0	0	0	0	486	630	
2	0	0	0	0	487	627	
3	0	0	0	0	487	626	
4	0	0	0	0	487	626	
5	0	0	0	0	487	623	
6	0	0	0	0	488	627	
7	0	0	0	0	489	627	
8	0	0	0	0	489	627	
9	0	0	0	0	489	630	
10	0	0	0	0	490	627	
11	0	0	0	0	490	627	
12	0	0	0	0	491	627	
13	0	0	0	0	492	623	
14	0	0	0	0	493	627	
15	0	0	0	0	493	627	
0	0	0	0	0	493	628	
1	0	0	0	0	494	631	
2	0	0	0	0	495	628	
3	0	0	0	0	495	627	
4	0	0	0	0	495	627	
5	0	0	0	0	496	624	
6	0	0	0	0	495	627	
7	0	0	0	0	496	627	
8	0	0	0	0	496	628	
9	0	0	0	0	496	631	
10	0	0	0	0	497	627	
11	0	0	0	0	497	627	
12	0	0	0	0	497	627	
13	0	0	0	0	497	622	
14	0	0	0	0	497	626	
15	0	0	0	0	498	626	
0	0	0	0	0	498	626	
1	0	0	0	0	499	629	
2	0	0	0	0	499	626	
3	0	0	0	0	498	625	
4	0	0	0	0	498	625	
5	0	0	0	0	498	621	
6	0	0	0	0	497	625	
7	0	0	0	0	497	625	
8	0	0	0	0	496	624	
9	0	0	0	0	496	628	
10	0	0	0	0	496	624	
11	0	0	0	0	496	625	
12	0	0	0	0	496	624	
13	0	0	0	0	496	620	
14	0	0	0	0	495	624	
15	0	0	0	0	495	624	
0	0	0	0	0	494	623	
1	0	0	0	0	495	627	
2	0	0	0	0	494	623	
3	0	0	0	0	495	623	
4	0	0	0	0	495	623	
5	0	0	0	0	495	619	
6	0	0	0	0	495	622	
7	0	0	0	0	495	621	
8	0	0	0	0	496	621	
9	0	0	0	0	496	625	
10	0	0	0	0	496	620	
11	0	0	0	0	495	621	
12	0	0	0	0	494	620	
13	0	0	0	0	494	617	
14	0	0	0	0	493	621	
15	0	0	0	0	492	621	
0	0	0	0	0	492	621	
1	0	0	0	0	491	624	
2	0	0	0	0	491	621	
3	0	0	0	0	489	620	
4	0	0	0	0	487	620	
5	0	0	0	0	486	617	
6	0	0	0	0	485	622	
7	0	0	0	0	484	622	
8	0	0	0	0	483	623	
9	0	0	0	0	483	626	
10	0	0	0	0	482	622	
11	0	0	0	0	482	623	
12	0	0	0	0	482	623	
13	0	0	0	0	483	619	
14	0	0	0	0	484	623	
15	0	0	0	0	483	623	
0	0	0	0	0	483	623	
1	0	0	0	0	484	626	
2	0	0	0	0	483	622	
3	0	0	0	0	483	623	
4	0	0	0	0	483	623	
5	0	0	0	0	483	618	
6	0	0	0	0	483	623	
7	0	0	0	0	481	622	
8	0	0	0	0	481	623	
9	0	0	0	0	481	626	
10	0	0	0	0	480	622	
11	0	0	0	0	478	623	
12	0	0	0	0	476	622	
13	0	0	0	0	475	619	
14	0	0	0	0	473	622	
15	0	0	0	0	472	623	
0	0	0	0	0	472	623	
1	0	0	0	0	471	626	
2	0	0	0	0	470	623	
3	0	0	0	0	470	622	
4	0	0	0	0	470	623	
5	0	0	0	0	471	619	
6	0	0	0	0	471	623	
7	0	0	0	0	472	623	
8	0	0	0	0	471	624	
9	0	0	0	0	471	627	
10	0	0	0	0	472	623	
11	0	0	0	0	471	623	
12	0	0	0	0	471	623	
13	0	0	0	0	472	620	
14	0	0	0	0	472	623	
15	0	0	0	0	471	624	
0	0	0	0	0	472	624	
1	0	0	0	0	471	627	
2	0	0	0	0	472	624	
3	0	0	0	0	472	623	
4	0	0	0	0	473	624	
5	0	0	0	0	473	620	
6	0	0	0	0	473	624	
7	0	0	0	0	473	624	
8	0	0	0	0	473	624	
9	0	0	0	0	473	628	
10	0	0	0	0	473	624	
11	0	0	0	0	472	625	
12	0	0	0	0	472	625	
13	0	0	0	0	471	621	
14	0	0	0	0	471	625	
15	0	0	0	0	471	625	
0	0	0	0	0	470	625	
1	0	0	0	0	470	629	
2	0	0	0	0	470	626	
3	0	0	0	0	470	625	
4	0	0	0	0	470	625	
5	0	0	0	0	469	622	
6	0	0	0	0	470	626	
7	0	0	0	0	470	626	
8	0	0	0	0	472	626	
9	0	0	0	0	471	629	
10	0	0	0	0	471	626	
11	0	0	0	0	471	625	
12	0	0	0	0	472	625	
13	0	0	0	0	473	622	
14	0	0	0	0	473	625	
15	0	0	0	0	474	626	
0	0	0	0	0	474	626	
1	0	0	0	0	475	629	
2	0	0	0	0	476	625	
3	0	0	0	0	476	625	
4	0	0	0	0	476	625	
5	0	0	0	0	475	621	
6	0	0	0	0	475	625	
7	0	0	0	0	475	626	
8	0	0	0	0	475	625	
9	0	0	0	0	474	628	
10	0	0	0	0	474	625	
11	0	0	0	0	474	624	
12	0	0	0	0	474	625	
13	0	0	0	0	474	621	
14	0	0	0	0	475	625	
15	0	0	0	0	475	626	
0	0	0	0	0	475	625	
1	0	0	0	0	475	629	
2	0	0	0	0	476	626	
3	0	0	0	0	476	626	
4	0	0	0	0	477	625	
5	0	0	0	0	476	622	
6	0	0	0	0	476	626	
7	0	0	0	0	475	626	
8	0	0	0	0	476	627	
9	0	0	0	0	476	630	
10	0	0	0	0	476	626	
11	0	0	0	0	477	627	
12	0	0	0	0	476	626	
13	0	0	0	0	476	623	
14	0	0	0	0	477	627	
15	0	0	0	0	476	627	
0	0	0	0	0	476	627	
1	0	0	0	0	477	631	
2	0	0	0	0	478	627	
3	0	0	0	0	478	627	
4	0	0	0	0	480	627	
5	0	0	0	0	480	623	
6	0	0	0	0	481	627	
7	0	0	0	0	481	626	
8	0	0	0	0	481	627	
9	0	0	0	0	481	630	
10	0	0	0	0	481	627	
11	0	0	0	0	481	627	
12	0	0	0	0	482	627	
13	0	0	0	0	482	623	
14	0	0	0	0	483	627	
15	0	0	0	0	483	627	
0	0	0	0	0	484	627	
1	0	0	0	0	485	630	
2	0	0	0	0	487	626	
3	0	0	0	0	487	627	
4	0	0	0	0	487	626	
5	0	0	0	0	487	622	
6	0	0	0	0	487	626	
7	0	0	0	0	486	626	
8	0	0	0	0	485	626	
9	0	0	0	0	485	629	
10	0	0	0	0	485	626	
11	0	0	0	0	485	625	
12	0	0	0	0	485	625	
13	0	0	0	0	484	621	
14	0	0	0	0	484	625	
15	0	0	0	0	482	625	
0	0	0	0	0	482	625	
1	0	0	0	0	481	628	
2	0	0	0	0	480	625	
3	0	0	0	0	480	625	
4	0	0	0	0	480	624	
5	0	0	0	0	479	621	
6	0	0	0	0	480	625	
7	0	0	0	0	480	625	
8	0	0	0	0	481	625	
9	0	0	0	0	482	628	
10	0	0	0	0	483	625	
11	0	0	0	0	484	625	
12	0	0	0	0	483	624	
13	0	0	0	0	484	620	
14	0	0	0	0	484	624	
15	0	0	0	0	485	624	
0	0	0	0	0	485	624	
1	0	0	0	0	486	627	
2	0	0	0	0	486	625	
3	0	0	0	0	486	625	
4	0	0	0	0	486	624	
5	0	0	0	0	486	620	
6	0	0	0	0	486	625	
7	0	0	0	0	486	625	
8	0	0	0	0	485	625	
9	0	0	0	0	486	629	
10	0	0	0	0	486	625	
11	0	0	0	0	486	625	
12	0	0	0	0	486	625	
13	0	0	0	0	486	622	
14	0	0	0	0	486	626	
15	0	0	0	0	487	625	
0	0	0	0	0	487	625	
1	0	0	0	0	486	629	
2	0	0	0	0	487	626	
3	0	0	0	0	486	625	
4	0	0	0	0	487	625	
5	0	0	0	0	487	621	
6	0	0	0	0	487	625	
7	0	0	0	0	487	626	
8	0	0	0	0	487	626	
9	0	0	0	0	487	629	
10	0	0	0	0	486	625	
11	0	0	0	0	486	625	
12	0	0	0	0	485	625	
13	0	0	0	0	485	622	
14	0	0	0	0	484	625	
15	0	0	0	0	482	625	
0	0	0	0	0	481	625	
1	0	0	0	0	481	629	
2	0	0	0	0	480	625	
3	0	0	0	0	480	625	
4	0	0	0	0	480	625	
5	0	0	0	0	480	621	
6	0	0	0	0	480	625	
7	0	0	0	0	479	625	
8	0	0	0	0	479	625	
9	0	0	0	0	480	628	
10	0	0	0	0	481	624	
11	0	0	0	0	481	624	
12	0	0	0	0	481	625	
13	0	0	0	0	482	620	
14	0	0	0	0	482	625	
15	0	0	0	0	482	625	
0	0	0	0	0	483	624	
1	0	0	0	0	483	627	
2	0	0	0	0	485	624	
3	0	0	0	0	485	623	
4	0	0	0	0	485	623	
5	0	0	0	0	486	619	
6	0	0	0	0	486	623	
7	0	0	0	0	486	623	
8	0	0	0	0	486	623	
9	0	0	0	0	486	626	
10	0	0	0	0	486	623	
11	0	0	0	0	486	622	
12	0	0	0	0	487	622	
13	0	0	0	0	486	619	
14	0	0	0	0	486	622	
15	0	0	0	0	485	622	
0	0	0	0	0	484	623	
1	0	0	0	0	483	625	
2	0	0	0	0	483	622	
3	0	0	0	0	483	622	
4	0	0	0	0	483	622	
5	0	0	0	0	483	618	
6	0	0	0	0	482	622	
7	0	0	0	0	482	622	
8	0	0	0	0	482	622	
9	0	0	0	0	482	625	
10	0	0	0	0	483	621	
11	0	0	0	0	482	621	
12	0	0	0	0	481	620	
13	0	0	0	0	481	617	
14	0	0	0	0	480	621	
15	0	0	0	0	480	621	
0	0	0	0	0	481	621	
1	0	0	0	0	480	624	
2	0	0	0	0	481	621	
3	0	0	0	0	481	621	
4	0	0	0	0	481	620	
5	0	0	0	0	481	616	
6	0	0	0	0	482	620	
7	0	0	0	0	483	620	
8	0	0	0	0	483	620	
9	0	0	0	0	484	624	
10	0	0	0	0	485	620	
11	0	0	0	0	485	620	
12	0	0	0	0	486	620	
13	0	0	0	0	486	616	
14	0	0	0	0	487	620	
15	0	0	0	0	487	620	
0	0	0	0	0	487	619	
1	0	0	0	0	487	624	
2	0	0	0	0	487	620	
3	0	0	0	0	487	621	
4	0	0	0	0	488	621	
5	0	0	0	0	488	617	
6	0	0	0	0	488	622	
7	0	0	0	0	487	622	
8	0	0	0	0	487	622	
9	0	0	0	0	487	625	
10	0	0	0	0	487	621	
11	0	0	0	0	488	622	
12	0	0	0	0	488	622	
13	0	0	0	0	487	618	
14	0	0	0	0	488	621	
15	0	0	0	0	488	621	
0	0	0	0	0	488	621	
1	0	0	0	0	487	624	
2	0	0	0	0	487	620	
3	0	0	0	0	488	621	
4	0	0	0	0	488	620	
5	0	0	0	0	489	617	
6	0	0	0	0	488	621	
7	0	0	0	0	488	622	
8	0	0	0	0	488	622	
9	0	0	0	0	487	625	
10	0	0	0	0	487	622	
11	0	0	0	0	487	621	
12	0	0	0	0	487	622	
13	0	0	0	0	488	618	
14	0	0	0	0	489	622	
15	0	0	0	0	490	622	
0	0	0	0	0	491	623	
1	0	0	0	0	493	626	
2	0	0	0	0	493	622	
3	0	0	0	0	493	623	
4	0	0	0	0	494	623	
5	0	0	0	0	495	620	
6	0	0	0	0	496	623	
7	0	0	0	0	496	624	
8	0	0	0	0	496	624	
9	0	0	0	0	497	627	
10	0	0	0	0	496	624	
11	0	0	0	0	496	624	
12	0	0	0	0	496	624	
13	0	0	0	0	496	620	
14	0	0	0	0	496	624	
15	0	0	0	0	495	624	
0	0	0	0	0	495	625	
1	0	0	0	0	495	628	
2	0	0	0	0	495	624	
3	0	0	0	0	494	624	
4	0	0	0	0	493	624	
5	0	0	0	0	493	620	
6	0	0	0	0	494	625	
7	0	0	0	0	494	624	
8	0	0	0	0	494	625	
9	0	0	0	0	494	628	
10	0	0	0	0	495	625	
11	0	0	0	0	494	625	
12	0	0	0	0	494	625	
13	0	0	0	0	495	622	
14	0	0	0	0	496	625	
15	0	0	0	0	496	625	
0	0	0	0	0	497	625	
1	0	0	0	0	498	629	
2	0	0	0	0	499	625	
3	0	0	0	0	500	625	
4	0	0	0	0	502	625	
5	0	0	0	0	504	622	
6	0	0	0	0	504	625	
7	0	0	0	0	505	625	
8	0	0	0	0	505	625	
9	0	0	0	0	504	628	
10	0	0	0	0	504	625	
11	0	0	0	0	504	625	
12	0	0	0	0	504	624	
13	0	0	0	0	503	620	
14	0	0	0	0	502	624	
15	0	0	0	0	502	624	
0	0	0	0	0	502	624	
1	0	0	0	0	503	627	
2	0	0	0	0	503	622	
3	0	0	0	0	502	623	
4	0	0	0	0	502	623	
5	0	0	0	0	502	618	
6	0	0	0	0	504	622	
7	0	0	0	0	504	622	
8	0	0	0	0	504	623	
9	0	0	0	0	504	625	
10	0	0	0	0	505	622	
11	0	0	0	0	506	622	
12	0	0	0	0	505	622	
13	0	0	0	0	506	618	
14	0	0	0	0	507	621	
15	0	0	0	0	507	621	
0	0	0	0	0	507	621	
1	0	0	0	0	507	625	
2	0	0	0	0	506	621	
3	0	0	0	0	506	621	
4	0	0	0	0	507	620	
5	0	0	0	0	507	617	
6	0	0	0	0	506	620	
7	0	0	0	0	505	621	
8	0	0	0	0	505	621	
9	0	0	0	0	504	624	
10	0	0	0	0	504	620	
11	0	0	0	0	504	620	
12	0	0	0	0	505	620	
13	0	0	0	0	505	617	
14	0	0	0	0	506	620	
15	0	0	0	0	506	620	
0	0	0	0	0	507	620	
1	0	0	0	0	507	624	
2	0	0	0	0	507	620	
3	0	0	0	0	506	620	
4	0	0	0	0	507	620	
5	0	0	0	0	508	616	
6	0	0	0	0	509	621	
7	0	0	0	0	510	620	
8	0	0	0	0	511	620	
9	0	0	0	0	512	624	
10	0	0	0	0	512	620	
11	0	0	0	0	513	620	
12	0	0	0	0	514	620	
13	0	0	0	0	514	616	
14	0	0	0	0	515	621	
15	0	0	0	0	515	621	
0	0	0	0	0	515	621	
1	0	0	0	0	515	625	
2	0	0	0	0	515	621	
3	0	0	0	0	515	622	
4	0	0	0	0	515	621	
5	0	0	0	0	515	617	
6	0	0	0	0	515	622	
7	0	0	0	0	516	622	
8	0	0	0	0	517	623	
9	0	0	0	0	518	625	
10	0	0	0	0	520	623	
11	0	0	0	0	521	623	
12	0	0	0	0	521	622	
13	0	0	0	0	521	620	
14	0	0	0	0	521	623	
15	0	0	0	0	521	623	
0	0	0	0	0	520	624	
1	0	0	0	0	520	627	
2	0	0	0	0	519	624	
3	0	0	0	0	518	624	
4	0	0	0	0	517	624	
5	0	0	0	0	516	620	
6	0	0	0	0	516	624	
7	0	0	0	0	516	626	
8	0	0	0	0	515	625	
9	0	0	0	0	516	629	
10	0	0	0	0	516	626	
11	0	0	0	0	515	625	
12	0	0	0	0	515	626	
13	0	0	0	0	515	622	
14	0	0	0	0	515	626	
15	0	0	0	0	515	627	
0	0	0	0	0	515	627	
1	0	0	0	0	515	630	
2	0	0	0	0	515	627	
3	0	0	0	0	515	627	
4	0	0	0	0	515	627	
5	0	0	0	0	515	624	
6	0	0	0	0	515	628	
7	0	0	0	0	515	628	
8	0	0	0	0	515	628	
9	0	0	0	0	516	632	
10	0	0	0	0	518	627	
11	0	0	0	0	519	627	
12	0	0	0	0	519	627	
13	0	0	0	0	520	624	
14	0	0	0	0	520	628	
15	0	0	0	0	519	627	
0	0	0	0	0	519	628	
1	0	0	0	0	519	631	
2	0	0	0	0	518	627	
3	0	0	0	0	518	627	
4	0	0	0	0	517	627	
5	0	0	0	0	518	624	
6	0	0	0	0	517	627	
7	0	0	0	0	517	627	
8	0	0	0	0	517	627	
9	0	0	0	0	518	631	
10	0	0	0	0	517	627	
11	0	0	0	0	516	627	
12	0	0	0	0	515	626	
13	0	0	0	0	516	622	
14	0	0	0	0	516	626	
15	0	0	0	0	516	626	
0	0	0	0	0	515	626	
1	0	0	0	0	515	630	
2	0	0	0	0	516	626	
3	0	0	0	0	517	625	
4	0	0	0	0	518	625	
5	0	0	0	0	519	622	
6	0	0	0	0	521	625	
7	0	0	0	0	523	624	
8	0	0	0	0	523	625	
9	0	0	0	0	523	628	
10	0	0	0	0	524	625	
11	0	0	0	0	524	625	
12	0	0	0	0	525	625	
13	0	0	0	0	526	620	
14	0	0	0	0	527	624	
15	0	0	0	0	528	624	
0	0	0	0	0	529	624	
1	0	0	0	0	530	627	
2	0	0	0	0	531	623	
3	0	0	0	0	532	624	
4	0	0	0	0	533	624	
5	0	0	0	0	532	619	
6	0	0	0	0	531	624	
7	0	0	0	0	531	624	
8	0	0	0	0	530	624	
9	0	0	0	0	530	627	
10	0	0	0	0	530	623	
11	0	0	0	0	529	624	
12	0	0	0	0	528	623	
13	0	0	0	0	527	620	
14	0	0	0	0	527	624	
15	0	0	0	0	528	623	
0	0	0	0	0	528	623	
1	0	0	0	0	529	626	
2	0	0	0	0	529	623	
3	0	0	0	0	529	623	
4	0	0	0	0	529	622	
5	0	0	0	0	529	619	
6	0	0	0	0	529	623	
7	0	0	0	0	529	623	
8	0	0	0	0	530	623	
9	0	0	0	0	530	626	
10	0	0	0	0	530	623	
11	0	0	0	0	531	624	
12	0	0	0	0	530	623	
13	0	0	0	0	530	620	
14	0	0	0	0	530	623	
15	0	0	0	0	530	624	
0	0	0	0	0	528	624	
1	0	0	0	0	529	628	
2	0	0	0	0	529	625	
3	0	0	0	0	528	626	
4	0	0	0	0	527	625	
5	0	0	0	0	526	622	
6	0	0	0	0	526	626	
7	0	0	0	0	526	626	
8	0	0	0	0	527	627	
9	0	0	0	0	527	630	
10	0	0	0	0	527	627	
11	0	0	0	0	528	627	
12	0	0	0	0	527	627	
13	0	0	0	0	527	624	
14	0	0	0	0	528	627	
15	0	0	0	0	529	627	
0	0	0	0	0	528	628	
1	0	0	0	0	529	632	
2	0	0	0	0	528	628	
3	0	0	0	0	527	628	
4	0	0	0	0	526	628	
5	0	0	0	0	527	625	
6	0	0	0	0	526	630	
7	0	0	0	0	526	629	
8	0	0	0	0	526	630	
9	0	0	0	0	527	633	
10	0	0	0	0	527	630	
11	0	0	0	0	527	631	
12	0	0	0	0	527	631	
13	0	0	0	0	527	627	
14	0	0	0	0	527	631	
15	0	0	0	0	527	631	
0	0	0	0	0	527	631	
1	0	0	0	0	526	635	
2	0	0	0	0	526	631	
3	0	0	0	0	525	631	
4	0	0	0	0	524	631	
5	0	0	0	0	524	628	
6	0	0	0	0	525	632	
7	0	0	0	0	526	632	
8	0	0	0	0	526	631	
9	0	0	0	0	527	635	
10	0	0	0	0	528	631	
11	0	0	0	0	529	631	
12	0	0	0	0	529	631	
13	0	0	0	0	529	627	
14	0	0	0	0	527	630	
15	0	0	0	0	525	630	
0	0	0	0	0	520	630	
1	0	0	0	0	516	633	
2	0	0	0	0	512	630	
3	0	0	0	0	508	630	
4	0	0	0	0	503	629	
5	0	0	0	0	495	625	
6	0	0	0	0	487	628	
7	0	0	0	0	480	627	
8	0	0	0	0	474	628	
9	0	0	0	0	469	631	
10	0	0	0	0	465	627	
11	0	0	0	0	463	627	
12	0	0	0	0	462	626	
13	0	0	0	0	463	622	
14	0	0	0	0	467	626	
15	0	0	0	0	473	625	
0	0	0	0	0	480	625	
1	0	0	0	0	488	628	
2	0	0	0	0	497	625	
3	0	0	0	0	508	624	
4	0	0	0	0	521	624	
5	0	0	0	0	538	620	
6	0	0	0	0	556	624	
7	0	0	0	0	577	624	
8	0	0	0	0	600	623	
9	0	0	0	0	620	627	
10	0	0	0	0	641	623	
11	0	0	0	0	659	623	
12	0	0	0	0	678	623	
13	0	0	0	0	694	620	
14	0	0	0	0	711	623	
15	0	0	0	0	728	623	
0	0	0	0	0	748	622	
1	0	0	0	0	768	626	
2	0	0	0	0	786	622	
3	0	0	0	0	799	622	
4	0	0	0	0	804	622	
5	0	0	0	0	805	617	
6	0	0	0	0	799	622	
7	0	0	0	0	786	622	
8	0	0	0	0	771	622	
9	0	0	0	0	754	625	
10	0	0	0	0	736	621	
11	0	0	0	0	717	622	
12	0	0	0	0	695	622	
13	0	0	0	0	672	618	
14	0	0	0	0	651	622	
15	0	0	0	0	633	621	
0	0	0	0	0	619	622	
1	0	0	0	0	607	625	
2	0	0	0	0	597	622	
3	0	0	0	0	589	622	
4	0	0	0	0	580	623	
5	0	0	0	0	572	619	
6	0	0	0	0	564	623	
7	0	0	0	0	557	623	
8	0	0	0	0	552	623	
9	0	0	0	0	545	627	
10	0	0	0	0	540	624	
11	0	0	0	0	533	624	
12	0	0	0	0	527	624	
13	0	0	0	0	522	621	
14	0	0	0	0	517	625	
15	0	0	0	0	512	625	
0	0	0	0	0	509	626	
1	0	0	0	0	506	629	
2	0	0	0	0	503	626	
3	0	0	0	0	501	627	
4	0	0	0	0	499	627	
5	0	0	0	0	497	623	
6	0	0	0	0	495	627	
7	0	0	0	0	493	628	
8	0	0	0	0	490	627	
9	0	0	0	0	488	631	
10	0	0	0	0	487	627	
11	0	0	0	0	486	627	
12	0	0	0	0	484	627	
13	0	0	0	0	483	624	
14	0	0	0	0	482	627	
15	0	0	0	0	481	627	
0	0	0	0	0	480	627	
1	0	0	0	0	479	631	
2	0	0	0	0	479	627	
3	0	0	0	0	479	628	
4	0	0	0	0	479	628	
5	0	0	0	0	479	624	
6	0	0	0	0	478	628	
7	0	0	0	0	477	627	
8	0	0	0	0	476	627	
9	0	0	0	0	476	631	
10	0	0	0	0	476	627	
11	0	0	0	0	476	627	
12	0	0	0	0	475	626	
13	0	0	0	0	475	623	
14	0	0	0	0	475	626	
15	0	0	0	0	475	626	
0	0	0	0	0	475	626	
1	0	0	0	0	476	629	
2	0	0	0	0	476	626	
3	0	0	0	0	476	625	
4	0	0	0	0	477	624	
5	0	0	0	0	478	620	
6	0	0	0	0	478	624	
7	0	0	0	0	478	624	
8	0	0	0	0	479	624	
9	0	0	0	0	479	627	
10	0	0	0	0	480	623	
11	0	0	0	0	480	623	
12	0	0	0	0	481	623	
13	0	0	0	0	482	619	
14	0	0	0	0	482	623	
15	0	0	0	0	482	623	
0	0	0	0	0	482	623	
1	0	0	0	0	482	627	
2	0	0	0	0	482	622	
3	0	0	0	0	481	623	
4	0	0	0	0	482	623	
5	0	0	0	0	483	618	
6	0	0	0	0	483	622	
7	0	0	0	0	483	622	
8	0	0	0	0	483	622	
9	0	0	0	0	483	625	
10	0	0	0	0	483	621	
11	0	0	0	0	484	622	
12	0	0	0	0	484	621	
13	0	0	0	0	485	617	
14	0	0	0	0	485	621	
15	0	0	0	0	486	621	
0	0	0	0	0	487	622	
1	0	0	0	0	487	624	
2	0	0	0	0	488	621	
3	0	0	0	0	488	620	
4	0	0	0	0	487	621	
5	0	0	0	0	487	617	
6	0	0	0	0	488	621	
7	0	0	0	0	489	622	
8	0	0	0	0	490	622	
9	0	0	0	0	491	625	
10	0	0	0	0	491	622	
11	0	0	0	0	491	622	
12	0	0	0	0	492	622	
13	0	0	0	0	492	618	
14	0	0	0	0	492	622	
15	0	0	0	0	492	623	
0	0	0	0	0	491	623	
1	0	0	0	0	492	626	
2	0	0	0	0	493	622	
3	0	0	0	0	493	623	
4	0	0	0	0	494	623	
5	0	0	0	0	494	619	
6	0	0	0	0	495	623	
7	0	0	0	0	496	623	
8	0	0	0	0	496	623	
9	0	0	0	0	496	627	
10	0	0	0	0	497	623	
11	0	0	0	0	497	624	
12	0	0	0	0	498	623	
13	0	0	0	0	497	619	
14	0	0	0	0	498	624	
15	0	0	0	0	499	624	
0	0	0	0	0	499	624	
1	0	0	0	0	499	627	
2	0	0	0	0	499	624	
3	0	0	0	0	499	625	
4	0	0	0	0	499	624	
5	0	0	0	0	500	620	
6	0	0	0	0	500	624	
7	0	0	0	0	499	624	
8	0	0	0	0	499	625	
9	0	0	0	0	498	627	
10	0	0	0	0	499	623	
11	0	0	0	0	499	624	
12	0	0	0	0	500	624	
13	0	0	0	0	501	620	
14	0	0	0	0	500	624	
15	0	0	0	0	500	624	
0	0	0	0	0	500	624	
1	0	0	0	0	500	627	
2	0	0	0	0	502	624	
3	0	0	0	0	502	624	
4	0	0	0	0	503	624	
5	0	0	0	0	504	621	
6	0	0	0	0	504	624	
7	0	0	0	0	505	624	
8	0	0	0	0	504	625	
9	0	0	0	0	504	628	
10	0	0	0	0	504	625	
11	0	0	0	0	504	625	
12	0	0	0	0	504	625	
13	0	0	0	0	504	622	
14	0	0	0	0	504	625	
15	0	0	0	0	503	626	
0	0	0	0	0	502	626	
1	0	0	0	0	502	630	
2	0	0	0	0	502	626	
3	0	0	0	0	502	626	
4	0	0	0	0	504	626	
5	0	0	0	0	504	623	
6	0	0	0	0	505	626	
7	0	0	0	0	505	627	
8	0	0	0	0	505	627	
9	0	0	0	0	504	630	
10	0	0	0	0	505	627	
11	0	0	0	0	508	627	
12	0	0	0	0	510	627	
13	0	0	0	0	511	623	
14	0	0	0	0	512	627	
15	0	0	0	0	512	627	
0	0	0	0	0	512	627	
1	0	0	0	0	512	630	
2	0	0	0	0	513	627	
3	0	0	0	0	512	626	
4	0	0	0	0	512	626	
5	0	0	0	0	512	623	
6	0	0	0	0	511	626	
7	0	0	0	0	510	626	
8	0	0	0	0	511	626	
9	0	0	0	0	512	629	
10	0	0	0	0	512	626	
11	0	0	0	0	513	625	
12	0	0	0	0	513	626	
13	0	0	0	0	515	622	
14	0	0	0	0	516	626	
15	0	0	0	0	517	626	
0	0	0	0	0	517	626	
1	0	0	0	0	518	629	
2	0	0	0	0	519	626	
3	0	0	0	0	519	625	
4	0	0	0	0	520	626	
5	0	0	0	0	519	622	
6	0	0	0	0	519	625	
7	0	0	0	0	519	625	
8	0	0	0	0	518	625	
9	0	0	0	0	518	628	
10	0	0	0	0	516	624	
11	0	0	0	0	515	624	
12	0	0	0	0	514	625	
13	0	0	0	0	513	621	
14	0	0	0	0	513	624	
15	0	0	0	0	512	624	
0	0	0	0	0	511	625	
1	0	0	0	0	510	628	
2	0	0	0	0	509	624	
3	0	0	0	0	509	624	
4	0	0	0	0	509	625	
5	0	0	0	0	509	621	
6	0	0	0	0	509	625	
7	0	0	0	0	509	625	
8	0	0	0	0	510	625	
9	0	0	0	0	509	627	
10	0	0	0	0	510	625	
11	0	0	0	0	509	624	
12	0	0	0	0	509	625	
13	0	0	0	0	509	622	
14	0	0	0	0	508	625	
15	0	0	0	0	508	625	
0	0	0	0	0	508	624	
1	0	0	0	0	508	628	
2	0	0	0	0	508	625	
3	0	0	0	0	507	624	
4	0	0	0	0	504	625	
5	0	0	0	0	502	621	
6	0	0	0	0	501	625	
7	0	0	0	0	502	625	
8	0	0	0	0	501	624	
9	0	0	0	0	501	627	
10	0	0	0	0	500	624	
11	0	0	0	0	499	624	
12	0	0	0	0	499	624	
13	0	0	0	0	499	620	
14	0	0	0	0	500	624	
15	0	0	0	0	500	624	
0	0	0	0	0	500	624	
1	0	0	0	0	500	627	
2	0	0	0	0	499	623	
3	0	0	0	0	498	623	
4	0	0	0	0	495	624	
5	0	0	0	0	494	619	
6	0	0	0	0	493	624	
7	0	0	0	0	492	623	
8	0	0	0	0	492	623	
9	0	0	0	0	491	626	
10	0	0	0	0	491	623	
11	0	0	0	0	490	623	
12	0	0	0	0	490	623	
13	0	0	0	0	490	619	
14	0	0	0	0	490	622	
15	0	0	0	0	490	622	
0	0	0	0	0	489	622	
1	0	0	0	0	489	625	
2	0	0	0	0	490	621	
3	0	0	0	0	491	621	
4	0	0	0	0	490	621	
5	0	0	0	0	490	618	
6	0	0	0	0	489	622	
7	0	0	0	0	489	622	
8	0	0	0	0	487	622	
9	0	0	0	0	487	625	
10	0	0	0	0	487	622	
11	0	0	0	0	486	622	
12	0	0	0	0	485	622	
13	0	0	0	0	485	618	
14	0	0	0	0	484	622	
15	0	0	0	0	485	622	
0	0	0	0	0	485	622	
1	0	0	0	0	484	626	
2	0	0	0	0	484	622	
3	0	0	0	0	484	622	
4	0	0	0	0	485	622	
5	0	0	0	0	486	618	
6	0	0	0	0	487	623	
7	0	0	0	0	487	623	
8	0	0	0	0	487	622	
9	0	0	0	0	488	627	
10	0	0	0	0	487	622	
11	0	0	0	0	488	624	
12	0	0	0	0	489	623	
13	0	0	0	0	490	618	
14	0	0	0	0	491	623	
15	0	0	0	0	490	623	
0	0	0	0	0	490	624	
1	0	0	0	0	489	627	
2	0	0	0	0	489	624	
3	0	0	0	0	489	624	
4	0	0	0	0	488	625	
5	0	0	0	0	487	621	
6	0	0	0	0	487	624	
7	0	0	0	0	485	624	
8	0	0	0	0	484	624	
9	0	0	0	0	483	628	
10	0	0	0	0	483	624	
11	0	0	0	0	483	625	
12	0	0	0	0	483	624	
13	0	0	0	0	483	621	
14	0	0	0	0	483	625	
15	0	0	0	0	484	625	
0	0	0	0	0	485	625	
1	0	0	0	0	486	628	
2	0	0	0	0	487	625	
3	0	0	0	0	487	625	
4	0	0	0	0	488	625	
5	0	0	0	0	489	621	
6	0	0	0	0	489	625	
7	0	0	0	0	489	625	
8	0	0	0	0	489	624	
9	0	0	0	0	489	629	
10	0	0	0	0	489	624	
11	0	0	0	0	488	625	
12	0	0	0	0	487	624	
13	0	0	0	0	487	621	
14	0	0	0	0	486	624	
15	0	0	0	0	486	624	
0	0	0	0	0	486	625	
1	0	0	0	0	486	628	
2	0	0	0	0	487	624	
3	0	0	0	0	488	625	
4	0	0	0	0	489	625	
5	0	0	0	0	491	620	
6	0	0	0	0	491	624	
7	0	0	0	0	491	625	
8	0	0	0	0	491	625	
9	0	0	0	0	491	628	
10	0	0	0	0	491	625	
11	0	0	0	0	492	624	
12	0	0	0	0	493	625	
13	0	0	0	0	494	621	
14	0	0	0	0	495	625	
15	0	0	0	0	494	625	
0	0	0	0	0	494	625	
1	0	0	0	0	493	629	
2	0	0	0	0	494	625	
3	0	0	0	0	493	625	
4	0	0	0	0	493	625	
5	0	0	0	0	492	622	
6	0	0	0	0	491	625	
7	0	0	0	0	491	624	
8	0	0	0	0	492	625	
9	0	0	0	0	493	628	
10	0	0	0	0	494	625	
11	0	0	0	0	496	625	
12	0	0	0	0	497	625	
13	0	0	0	0	498	621	
14	0	0	0	0	499	625	
15	0	0	0	0	501	625	
0	0	0	0	0	501	625	
1	0	0	0	0	502	629	
2	0	0	0	0	501	625	
3	0	0	0	0	501	625	
4	0	0	0	0	501	625	
5	0	0	0	0	501	621	
6	0	0	0	0	502	625	
7	0	0	0	0	502	625	
8	0	0	0	0	504	625	
9	0	0	0	0	504	629	
10	0	0	0	0	504	625	
11	0	0	0	0	504	625	
12	0	0	0	0	504	625	
13	0	0	0	0	504	621	
14	0	0	0	0	504	625	
15	0	0	0	0	504	625	
0	0	0	0	0	505	625	
1	0	0	0	0	506	628	
2	0	0	0	0	506	624	
3	0	0	0	0	507	625	
4	0	0	0	0	507	624	
5	0	0	0	0	507	620	
6	0	0	0	0	507	624	
7	0	0	0	0	508	624	
8	0	0	0	0	508	624	
9	0	0	0	0	509	628	
10	0	0	0	0	510	624	
11	0	0	0	0	510	624	
12	0	0	0	0	510	624	
13	0	0	0	0	510	620	
14	0	0	0	0	510	624	
15	0	0	0	0	510	624	
0	0	0	0	0	509	623	
1	0	0	0	0	510	627	
2	0	0	0	0	509	624	
3	0	0	0	0	508	623	
4	0	0	0	0	507	623	
5	0	0	0	0	506	619	
6	0	0	0	0	506	623	
7	0	0	0	0	505	623	
8	0	0	0	0	506	622	
9	0	0	0	0	506	625	
10	0	0	0	0	506	622	
11	0	0	0	0	507	622	
12	0	0	0	0	507	623	
13	0	0	0	0	508	618	
14	0	0	0	0	508	623	
15	0	0	0	0	509	623	
0	0	0	0	0	509	623	
1	0	0	0	0	510	627	
2	0	0	0	0	509	623	
3	0	0	0	0	508	623	
4	0	0	0	0	507	624	
5	0	0	0	0	506	620	
6	0	0	0	0	505	624	
7	0	0	0	0	504	625	
8	0	0	0	0	504	625	
9	0	0	0	0	505	629	
10	0	0	0	0	507	625	
11	0	0	0	0	508	626	
12	0	0	0	0	508	626	
13	0	0	0	0	509	623	
14	0	0	0	0	511	627	
15	0	0	0	0	513	627	
0	0	0	0	0	515	628	
1	0	0	0	0	516	631	
2	0	0	0	0	517	628	
3	0	0	0	0	517	628	
4	0	0	0	0	516	628	
5	0	0	0	0	516	624	
6	0	0	0	0	516	628	
7	0	0	0	0	515	628	
8	0	0	0	0	515	628	
9	0	0	0	0	514	632	
10	0	0	0	0	515	629	
11	0	0	0	0	514	628	
12	0	0	0	0	514	628	
13	0	0	0	0	513	625	
14	0	0	0	0	513	629	
15	0	0	0	0	513	628	
0	0	0	0	0	513	628	
1	0	0	0	0	514	632	
2	0	0	0	0	514	628	
3	0	0	0	0	515	628	
4	0	0	0	0	516	628	
5	0	0	0	0	516	623	
6	0	0	0	0	516	627	
7	0	0	0	0	515	627	
8	0	0	0	0	515	627	
9	0	0	0	0	514	631	
10	0	0	0	0	513	626	
11	0	0	0	0	512	626	
12	0	0	0	0	512	627	
13	0	0	0	0	511	622	
14	0	0	0	0	510	625	
15	0	0	0	0	509	625	
0	0	0	0	0	508	625	
1	0	0	0	0	507	628	
2	0	0	0	0	505	625	
3	0	0	0	0	504	624	
4	0	0	0	0	504	624	
5	0	0	0	0	505	621	
6	0	0	0	0	504	623	
7	0	0	0	0	504	623	
8	0	0	0	0	505	623	
9	0	0	0	0	505	626	
10	0	0	0	0	505	623	
11	0	0	0	0	505	622	
12	0	0	0	0	507	622	
13	0	0	0	0	507	617	
14	0	0	0	0	508	622	
15	0	0	0	0	509	622	
0	0	0	0	0	510	622	
1	0	0	0	0	510	625	
2	0	0	0	0	510	622	
3	0	0	0	0	510	621	
4	0	0	0	0	510	621	
5	0	0	0	0	510	618	
6	0	0	0	0	510	622	
7	0	0	0	0	510	621	
8	0	0	0	0	508	622	
9	0	0	0	0	508	625	
10	0	0	0	0	508	622	
11	0	0	0	0	506	621	
12	0	0	0	0	507	622	
13	0	0	0	0	508	617	
14	0	0	0	0	508	622	
15	0	0	0	0	508	622	
0	0	0	0	0	509	622	
1	0	0	0	0	509	625	
2	0	0	0	0	509	622	
3	0	0	0	0	509	622	
4	0	0	0	0	509	623	
5	0	0	0	0	509	618	
6	0	0	0	0	509	622	
7	0	0	0	0	510	622	
8	0	0	0	0	510	623	
9	0	0	0	0	509	626	
10	0	0	0	0	509	623	
11	0	0	0	0	508	623	
12	0	0	0	0	508	622	
13	0	0	0	0	508	619	
14	0	0	0	0	508	623	
15	0	0	0	0	507	623	
0	0	0	0	0	507	623	
1	0	0	0	0	507	626	
2	0	0	0	0	507	623	
3	0	0	0	0	507	623	
4	0	0	0	0	508	623	
5	0	0	0	0	509	620	
6	0	0	0	0	510	624	
7	0	0	0	0	511	624	
8	0	0	0	0	512	624	
9	0	0	0	0	512	627	
10	0	0	0	0	512	624	
11	0	0	0	0	513	624	
12	0	0	0	0	514	624	
13	0	0	0	0	515	620	
14	0	0	0	0	515	624	
15	0	0	0	0	515	624	
0	0	0	0	0	515	625	
1	0	0	0	0	516	628	
2	0	0	0	0	517	624	
3	0	0	0	0	516	624	
4	0	0	0	0	517	625	
5	0	0	0	0	517	621	
6	0	0	0	0	518	625	
7	0	0	0	0	519	625	
8	0	0	0	0	519	625	
9	0	0	0	0	519	629	
10	0	0	0	0	518	625	
11	0	0	0	0	518	625	
12	0	0	0	0	516	626	
13	0	0	0	0	516	621	
14	0	0	0	0	516	625	
15	0	0	0	0	516	625	
0	0	0	0	0	516	625	
1	0	0	0	0	515	629	
2	0	0	0	0	515	625	
3	0	0	0	0	515	625	
4	0	0	0	0	515	625	
5	0	0	0	0	515	621	
6	0	0	0	0	515	625	
7	0	0	0	0	515	625	
8	0	0	0	0	515	625	
9	0	0	0	0	515	629	
10	0	0	0	0	515	625	
11	0	0	0	0	515	625	
12	0	0	0	0	514	625	
13	0	0	0	0	515	621	
14	0	0	0	0	514	625	
15	0	0	0	0	515	625	
0	0	0	0	0	514	626	
1	0	0	0	0	514	629	
2	0	0	0	0	514	626	
3	0	0	0	0	512	626	
4	0	0	0	0	512	626	
5	0	0	0	0	513	623	
6	0	0	0	0	513	627	
7	0	0	0	0	513	627	
8	0	0	0	0	513	627	
9	0	0	0	0	512	631	
10	0	0	0	0	512	627	
11	0	0	0	0	511	627	
12	0	0	0	0	511	627	
13	0	0	0	0	511	623	
14	0	0	0	0	510	627	
15	0	0	0	0	510	627	
0	0	0	0	0	511	626	
1	0	0	0	0	511	630	
2	0	0	0	0	512	626	
3	0	0	0	0	513	626	
4	0	0	0	0	514	625	
5	0	0	0	0	514	621	
6	0	0	0	0	515	626	
7	0	0	0	0	514	626	
8	0	0	0	0	514	626	
9	0	0	0	0	514	629	
10	0	0	0	0	515	625	
11	0	0	0	0	515	625	
12	0	0	0	0	515	625	
13	0	0	0	0	515	621	
14	0	0	0	0	516	624	
15	0	0	0	0	517	624	
0	0	0	0	0	517	625	
1	0	0	0	0	516	628	
2	0	0	0	0	516	625	
3	0	0	0	0	516	625	
4	0	0	0	0	516	624	
5	0	0	0	0	516	620	
6	0	0	0	0	516	624	
7	0	0	0	0	516	625	
8	0	0	0	0	516	625	
9	0	0	0	0	515	628	
10	0	0	0	0	515	625	
11	0	0	0	0	515	624	
12	0	0	0	0	515	624	
13	0	0	0	0	515	621	
14	0	0	0	0	515	625	
15	0	0	0	0	515	625	
0	0	0	0	0	515	625	
1	0	0	0	0	515	629	
2	0	0	0	0	515	625	
3	0	0	0	0	516	626	
4	0	0	0	0	516	625	
5	0	0	0	0	516	621	
6	0	0	0	0	516	626	
7	0	0	0	0	515	625	
8	0	0	0	0	515	625	
9	0	0	0	0	515	629	
10	0	0	0	0	514	625	
11	0	0	0	0	513	625	
12	0	0	0	0	512	625	
13	0	0	0	0	512	621	
14	0	0	0	0	512	626	
15	0	0	0	0	511	625	
0	0	0	0	0	511	625	
1	0	0	0	0	511	629	
2	0	0	0	0	511	625	
3	0	0	0	0	510	624	
4	0	0	0	0	510	624	
5	0	0	0	0	510	620	
6	0	0	0	0	511	624	
7	0	0	0	0	511	623	
8	0	0	0	0	511	624	
9	0	0	0	0	511	627	
10	0	0	0	0	512	623	
11	0	0	0	0	512	623	
12	0	0	0	0	512	624	
13	0	0	0	0	513	620	
14	0	0	0	0	513	624	
15	0	0	0	0	514	624	
0	0	0	0	0	514	624	
1	0	0	0	0	513	627	
2	0	0	0	0	514	624	
3	0	0	0	0	513	624	
4	0	0	0	0	513	624	
5	0	0	0	0	513	620	
6	0	0	0	0	512	624	
7	0	0	0	0	511	624	
8	0	0	0	0	511	624	
9	0	0	0	0	510	627	
10	0	0	0	0	511	624	
11	0	0	0	0	511	624	
12	0	0	0	0	511	623	
13	0	0	0	0	512	620	
14	0	0	0	0	513	624	
15	0	0	0	0	513	624	
0	0	0	0	0	513	624	
1	0	0	0	0	513	627	
2	0	0	0	0	514	624	
3	0	0	0	0	515	623	
4	0	0	0	0	516	624	
5	0	0	0	0	518	620	
6	0	0	0	0	519	624	
7	0	0	0	0	519	624	
8	0	0	0	0	520	624	
9	0	0	0	0	521	627	
10	0	0	0	0	520	624	
11	0	0	0	0	519	624	
12	0	0	0	0	520	625	
13	0	0	0	0	520	620	
14	0	0	0	0	519	624	
15	0	0	0	0	518	625	
0	0	0	0	0	518	624	
1	0	0	0	0	518	627	
2	0	0	0	0	518	624	
3	0	0	0	0	518	624	
4	0	0	0	0	518	624	
5	0	0	0	0	519	620	
6	0	0	0	0	520	624	
7	0	0	0	0	520	624	
8	0	0	0	0	520	624	
9	0	0	0	0	520	627	
10	0	0	0	0	522	624	
11	0	0	0	0	523	624	
12	0	0	0	0	524	623	
13	0	0	0	0	524	620	
14	0	0	0	0	524	624	
15	0	0	0	0	523	624	
0	0	0	0	0	523	623	
1	0	0	0	0	523	627	
2	0	0	0	0	522	623	
3	0	0	0	0	521	623	
4	0	0	0	0	520	623	
5	0	0	0	0	520	618	
6	0	0	0	0	519	623	
7	0	0	0	0	519	623	
8	0	0	0	0	518	623	
9	0	0	0	0	517	626	
10	0	0	0	0	516	623	
11	0	0	0	0	515	623	
12	0	0	0	0	513	623	
13	0	0	0	0	512	619	
14	0	0	0	0	512	624	
15	0	0	0	0	513	623	
0	0	0	0	0	514	624	
1	0	0	0	0	514	627	
2	0	0	0	0	514	623	
3	0	0	0	0	515	624	
4	0	0	0	0	514	623	
5	0	0	0	0	514	620	
6	0	0	0	0	515	624	
7	0	0	0	0	515	624	
8	0	0	0	0	515	624	
9	0	0	0	0	515	627	
10	0	0	0	0	515	624	
11	0	0	0	0	515	623	
12	0	0	0	0	515	623	
13	0	0	0	0	515	620	
14	0	0	0	0	515	623	
15	0	0	0	0	515	624	
0	0	0	0	0	515	623	
1	0	0	0	0	515	627	
2	0	0	0	0	515	624	
3	0	0	0	0	515	624	
4	0	0	0	0	514	624	
5	0	0	0	0	513	620	
6	0	0	0	0	514	624	
7	0	0	0	0	513	624	
8	0	0	0	0	513	623	
9	0	0	0	0	513	627	
10	0	0	0	0	513	624	
11	0	0	0	0	512	624	
12	0	0	0	0	513	624	
13	0	0	0	0	513	620	
14	0	0	0	0	513	624	
15	0	0	0	0	512	624	
0	0	0	0	0	511	624	
1	0	0	0	0	512	627	
2	0	0	0	0	512	624	
3	0	0	0	0	512	624	
4	0	0	0	0	511	624	
5	0	0	0	0	511	622	
6	0	0	0	0	511	624	
7	0	0	0	0	512	625	
8	0	0	0	0	512	625	
9	0	0	0	0	512	628	
10	0	0	0	0	510	624	
11	0	0	0	0	507	625	
12	0	0	0	0	503	625	
13	0	0	0	0	499	621	
14	0	0	0	0	495	625	
15	0	0	0	0	488	624	
0	0	0	0	0	480	624	
1	0	0	0	0	473	628	
2	0	0	0	0	466	624	
3	0	0	0	0	462	624	
4	0	0	0	0	456	625	
5	0	0	0	0	452	621	
6	0	0	0	0	451	624	
7	0	0	0	0	451	624	
8	0	0	0	0	454	625	
9	0	0	0	0	458	628	
10	0	0	0	0	465	624	
11	0	0	0	0	472	624	
12	0	0	0	0	480	624	
13	0	0	0	0	490	621	
14	0	0	0	0	502	624	
15	0	0	0	0	519	624	
0	0	0	0	0	538	625	
1	0	0	0	0	560	627	
2	0	0	0	0	583	624	
3	0	0	0	0	606	624	
4	0	0	0	0	627	624	
5	0	0	0	0	648	620	
6	0	0	0	0	668	624	
7	0	0	0	0	688	624	
8	0	0	0	0	706	624	
9	0	0	0	0	724	628	
10	0	0	0	0	743	624	
11	0	0	0	0	765	624	
12	0	0	0	0	786	624	
13	0	0	0	0	804	620	
14	0	0	0	0	819	625	
15	0	0	0	0	827	624	
0	0	0	0	0	828	624	
1	0	0	0	0	823	627	
2	0	0	0	0	812	624	
3	0	0	0	0	795	624	
4	0	0	0	0	777	624	
5	0	0	0	0	759	620	
6	0	0	0	0	737	624	
7	0	0	0	0	712	624	
8	0	0	0	0	686	624	
9	0	0	0	0	661	627	
10	0	0	0	0	639	624	
11	0	0	0	0	621	624	
12	0	0	0	0	604	623	
13	0	0	0	0	591	620	
14	0	0	0	0	579	624	
15	0	0	0	0	568	624	
0	0	0	0	0	559	624	
1	0	0	0	0	551	627	
2	0	0	0	0	544	624	
3	0	0	0	0	537	623	
4	0	0	0	0	531	623	
5	0	0	0	0	524	620	
6	0	0	0	0	518	624	
7	0	0	0	0	512	625	
8	0	0	0	0	507	624	
9	0	0	0	0	502	627	
10	0	0	0	0	497	624	
11	0	0	0	0	493	624	
12	0	0	0	0	490	624	
13	0	0	0	0	487	620	
14	0	0	0	0	483	624	
15	0	0	0	0	481	623	
0	0	0	0	0	479	624	
1	0	0	0	0	477	627	
2	0	0	0	0	475	623	
3	0	0	0	0	472	623	
4	0	0	0	0	470	623	
5	0	0	0	0	467	619	
6	0	0	0	0	466	622	
7	0	0	0	0	464	622	
8	0	0	0	0	462	623	
9	0	0	0	0	461	626	
10	0	0	0	0	461	622	
11	0	0	0	0	461	623	
12	0	0	0	0	461	622	
13	0	0	0	0	462	619	
14	0	0	0	0	462	623	
15	0	0	0	0	462	623	
0	0	0	0	0	462	623	
1	0	0	0	0	463	626	
2	0	0	0	0	463	623	
3	0	0	0	0	464	623	
4	0	0	0	0	464	623	
5	0	0	0	0	464	620	
6	0	0	0	0	464	624	
7	0	0	0	0	464	624	
8	0	0	0	0	464	624	
9	0	0	0	0	463	627	
10	0	0	0	0	463	624	
11	0	0	0	0	463	624	
12	0	0	0	0	463	624	
13	0	0	0	0	464	620	
14	0	0	0	0	465	624	
15	0	0	0	0	465	624	
0	0	0	0	0	465	624	
1	0	0	0	0	465	628	
2	0	0	0	0	466	624	
3	0	0	0	0	465	624	
4	0	0	0	0	466	625	
5	0	0	0	0	467	620	
6	0	0	0	0	467	625	
7	0	0	0	0	468	625	
8	0	0	0	0	468	624	
9	0	0	0	0	467	628	
10	0	0	0	0	469	624	
11	0	0	0	0	469	624	
12	0	0	0	0	470	624	
13	0	0	0	0	469	621	
14	0	0	0	0	470	625	
15	0	0	0	0	470	624	
0	0	0	0	0	470	624	
1	0	0	0	0	470	628	
2	0	0	0	0	471	624	
3	0	0	0	0	472	624	
4	0	0	0	0	472	624	
5	0	0	0	0	473	620	
6	0	0	0	0	473	624	
7	0	0	0	0	473	623	
8	0	0	0	0	474	624	
9	0	0	0	0	474	627	
10	0	0	0	0	475	623	
11	0	0	0	0	476	624	
12	0	0	0	0	477	623	
13	0	0	0	0	478	619	
14	0	0	0	0	479	623	
15	0	0	0	0	479	623	
0	0	0	0	0	480	624	
1	0	0	0	0	481	626	
2	0	0	0	0	482	624	
3	0	0	0	0	483	623	
4	0	0	0	0	484	624	
5	0	0	0	0	485	619	
6	0	0	0	0	485	624	
7	0	0	0	0	486	624	
8	0	0	0	0	487	624	
9	0	0	0	0	487	627	
10	0	0	0	0	488	624	
11	0	0	0	0	488	624	
12	0	0	0	0	488	624	
13	0	0	0	0	488	621	
14	0	0	0	0	488	624	
15	0	0	0	0	489	624	
0	0	0	0	0	488	625	
1	0	0	0	0	488	628	
2	0	0	0	0	488	625	
3	0	0	0	0	488	625	
4	0	0	0	0	489	625	
5	0	0	0	0	489	621	
6	0	0	0	0	491	626	
7	0	0	0	0	491	625	
8	0	0	0	0	491	625	
9	0	0	0	0	491	630	
10	0	0	0	0	491	626	
11	0	0	0	0	492	627	
12	0	0	0	0	492	626	
13	0	0	0	0	492	622	
14	0	0	0	0	492	626	
15	0	0	0	0	492	626	
0	0	0	0	0	492	626	
1	0	0	0	0	492	630	
2	0	0	0	0	492	626	
3	0	0	0	0	493	626	
4	0	0	0	0	493	625	
5	0	0	0	0	493	621	
6	0	0	0	0	494	625	
7	0	0	0	0	494	625	
8	0	0	0	0	495	625	
9	0	0	0	0	496	628	
10	0	0	0	0	496	625	
11	0	0	0	0	497	624	
12	0	0	0	0	497	624	
13	0	0	0	0	497	620	
14	0	0	0	0	496	623	
15	0	0	0	0	496	624	
0	0	0	0	0	497	624	
1	0	0	0	0	497	627	
2	0	0	0	0	498	625	
3	0	0	0	0	498	623	
4	0	0	0	0	499	624	
5	0	0	0	0	500	620	
6	0	0	0	0	500	623	
7	0	0	0	0	500	623	
8	0	0	0	0	501	624	
9	0	0	0	0	501	627	
10	0	0	0	0	503	623	
11	0	0	0	0	503	623	
12	0	0	0	0	504	623	
13	0	0	0	0	504	619	
14	0	0	0	0	506	623	
15	0	0	0	0	506	624	
0	0	0	0	0	506	624	
1	0	0	0	0	507	627	
2	0	0	0	0	508	623	
3	0	0	0	0	509	623	
4	0	0	0	0	510	624	
5	0	0	0	0	510	620	
6	0	0	0	0	511	624	
7	0	0	0	0	512	624	
8	0	0	0	0	512	624	
9	0	0	0	0	513	627	
10	0	0	0	0	513	625	
11	0	0	0	0	513	624	
12	0	0	0	0	513	624	
13	0	0	0	0	514	620	
14	0	0	0	0	515	624	
15	0	0	0	0	516	624	
0	0	0	0	0	517	625	
1	0	0	0	0	518	627	
2	0	0	0	0	519	624	
3	0	0	0	0	519	624	
4	0	0	0	0	519	624	
5	0	0	0	0	519	621	
6	0	0	0	0	520	624	
7	0	0	0	0	520	624	
8	0	0	0	0	521	624	
9	0	0	0	0	521	627	
10	0	0	0	0	522	624	
11	0	0	0	0	521	624	
12	0	0	0	0	522	624	
13	0	0	0	0	521	620	
14	0	0	0	0	521	624	
15	0	0	0	0	521	624	
0	0	0	0	0	521	624	
1	0	0	0	0	521	627	
2	0	0	0	0	521	624	
3	0	0	0	0	521	624	
4	0	0	0	0	521	623	
5	0	0	0	0	521	619	
6	0	0	0	0	522	624	
7	0	0	0	0	521	623	
8	0	0	0	0	522	623	
9	0	0	0	0	522	626	
10	0	0	0	0	523	623	
11	0	0	0	0	524	624	
12	0	0	0	0	524	624	
13	0	0	0	0	524	620	
14	0	0	0	0	524	624	
15	0	0	0	0	523	624	
0	0	0	0	0	522	624	
1	0	0	0	0	522	627	
2	0	0	0	0	521	625	
3	0	0	0	0	520	624	
4	0	0	0	0	519	624	
5	0	0	0	0	519	621	
6	0	0	0	0	519	624	
7	0	0	0	0	519	625	
8	0	0	0	0	519	625	
9	0	0	0	0	519	628	
10	0	0	0	0	519	625	
11	0	0	0	0	518	625	
12	0	0	0	0	519	626	
13	0	0	0	0	518	621	
14	0	0	0	0	518	625	
15	0	0	0	0	518	625	
0	0	0	0	0	518	625	
1	0	0	0	0	518	629	
2	0	0	0	0	518	625	
3	0	0	0	0	517	625	
4	0	0	0	0	516	626	
5	0	0	0	0	516	622	
6	0	0	0	0	516	626	
7	0	0	0	0	516	626	
8	0	0	0	0	516	626	
9	0	0	0	0	515	631	
10	0	0	0	0	514	626	
11	0	0	0	0	512	626	
12	0	0	0	0	511	626	
13	0	0	0	0	510	623	
14	0	0	0	0	510	627	
15	0	0	0	0	509	627	
0	0	0	0	0	508	628	
1	0	0	0	0	508	631	
2	0	0	0	0	507	627	
3	0	0	0	0	507	627	
4	0	0	0	0	507	627	
5	0	0	0	0	506	623	
6	0	0	0	0	506	627	
7	0	0	0	0	505	627	
8	0	0	0	0	505	627	
9	0	0	0	0	504	630	
10	0	0	0	0	504	627	
11	0	0	0	0	504	626	
12	0	0	0	0	502	625	
13	0	0	0	0	502	623	
14	0	0	0	0	500	626	
15	0	0	0	0	500	626	
0	0	0	0	0	500	626	
1	0	0	0	0	499	629	
2	0	0	0	0	499	625	
3	0	0	0	0	498	625	
4	0	0	0	0	498	625	
5	0	0	0	0	498	621	
6	0	0	0	0	498	625	
7	0	0	0	0	498	625	
8	0	0	0	0	497	625	
9	0	0	0	0	496	627	
10	0	0	0	0	496	624	
11	0	0	0	0	495	624	
12	0	0	0	0	495	624	
13	0	0	0	0	494	620	
14	0	0	0	0	493	624	
15	0	0	0	0	493	625	
0	0	0	0	0	492	624	
1	0	0	0	0	492	628	
2	0	0	0	0	492	624	
3	0	0	0	0	493	624	
4	0	0	0	0	493	624	
5	0	0	0	0	494	620	
6	0	0	0	0	495	624	
7	0	0	0	0	495	624	
8	0	0	0	0	497	625	
9	0	0	0	0	497	627	
10	0	0	0	0	498	624	
11	0	0	0	0	499	625	
12	0	0	0	0	499	624	
13	0	0	0	0	499	621	
14	0	0	0	0	499	625	
15	0	0	0	0	499	624	
0	0	0	0	0	499	625	
1	0	0	0	0	499	628	
2	0	0	0	0	499	624	
3	0	0	0	0	499	624	
4	0	0	0	0	499	624	
5	0	0	0	0	499	621	
6	0	0	0	0	498	624	
7	0	0	0	0	497	624	
8	0	0	0	0	496	625	
9	0	0	0	0	496	628	
10	0	0	0	0	496	624	
11	0	0	0	0	495	624	
12	0	0	0	0	495	624	
13	0	0	0	0	494	620	
14	0	0	0	0	494	624	
15	0	0	0	0	495	624	
0	0	0	0	0	496	623	
1	0	0	0	0	496	627	
2	0	0	0	0	496	623	
3	0	0	0	0	496	623	
4	0	0	0	0	497	624	
5	0	0	0	0	497	620	
6	0	0	0	0	497	624	
7	0	0	0	0	499	624	
8	0	0	0	0	500	624	
9	0	0	0	0	500	627	
10	0	0	0	0	501	624	
11	0	0	0	0	502	625	
12	0	0	0	0	502	624	
13	0	0	0	0	503	621	
14	0	0	0	0	504	625	
15	0	0	0	0	504	625	
0	0	0	0	0	504	625	
1	0	0	0	0	505	629	
2	0	0	0	0	505	625	
3	0	0	0	0	506	626	
4	0	0	0	0	506	626	
5	0	0	0	0	506	622	
6	0	0	0	0	505	626	
7	0	0	0	0	505	625	
8	0	0	0	0	506	626	
9	0	0	0	0	506	629	
10	0	0	0	0	506	625	
11	0	0	0	0	506	625	
12	0	0	0	0	506	626	
13	0	0	0	0	506	622	
14	0	0	0	0	505	626	
15	0	0	0	0	506	625	
0	0	0	0	0	506	626	
1	0	0	0	0	505	629	
2	0	0	0	0	507	625	
3	0	0	0	0	507	626	
4	0	0	0	0	508	625	
5	0	0	0	0	508	622	
6	0	0	0	0	509	625	
7	0	0	0	0	510	626	
8	0	0	0	0	510	625	
9	0	0	0	0	511	629	
10	0	0	0	0	512	625	
11	0	0	0	0	511	625	
12	0	0	0	0	511	625	
13	0	0	0	0	511	621	
14	0	0	0	0	511	625	
15	0	0	0	0	510	626	
0	0	0	0	0	509	625	
1	0	0	0	0	509	629	
2	0	0	0	0	509	626	
3	0	0	0	0	509	625	
4	0	0	0	0	509	625	
5	0	0	0	0	509	621	
6	0	0	0	0	509	625	
7	0	0	0	0	509	625	
8	0	0	0	0	510	626	
9	0	0	0	0	510	629	
10	0	0	0	0	512	625	
11	0	0	0	0	513	625	
12	0	0	0	0	514	625	
13	0	0	0	0	515	622	
14	0	0	0	0	515	626	
15	0	0	0	0	516	625	
0	0	0	0	0	517	625	
1	0	0	0	0	518	629	
2	0	0	0	0	518	625	
3	0	0	0	0	518	625	
4	0	0	0	0	518	625	
5	0	0	0	0	517	622	
6	0	0	0	0	517	625	
7	0	0	0	0	516	625	
8	0	0	0	0	515	625	
9	0	0	0	0	515	629	
10	0	0	0	0	515	625	
11	0	0	0	0	515	625	
12	0	0	0	0	515	625	
13	0	0	0	0	515	621	
14	0	0	0	0	515	624	
15	0	0	0	0	515	624	
0	0	0	0	0	516	624	
1	0	0	0	0	516	627	
2	0	0	0	0	516	624	
3	0	0	0	0	517	624	
4	0	0	0	0	517	624	
5	0	0	0	0	518	620	
6	0	0	0	0	517	623	
7	0	0	0	0	516	623	
8	0	0	0	0	516	623	
9	0	0	0	0	516	626	
10	0	0	0	0	515	623	
11	0	0	0	0	516	623	
12	0	0	0	0	516	623	
13	0	0	0	0	517	619	
14	0	0	0	0	518	623	
15	0	0	0	0	519	623	
0	0	0	0	0	519	623	
1	0	0	0	0	519	626	
2	0	0	0	0	520	623	
3	0	0	0	0	520	622	
4	0	0	0	0	519	622	
5	0	0	0	0	519	619	
6	0	0	0	0	518	622	
7	0	0	0	0	517	623	
8	0	0	0	0	517	623	
9	0	0	0	0	516	626	
10	0	0	0	0	516	623	
11	0	0	0	0	515	623	
12	0	0	0	0	515	623	
13	0	0	0	0	516	619	
14	0	0	0	0	515	623	
15	0	0	0	0	515	623	
0	0	0	0	0	515	623	
1	0	0	0	0	515	626	
2	0	0	0	0	515	624	
3	0	0	0	0	515	624	
4	0	0	0	0	516	623	
5	0	0	0	0	516	620	
6	0	0	0	0	515	624	
7	0	0	0	0	515	624	
8	0	0	0	0	515	623	
9	0	0	0	0	514	627	
10	0	0	0	0	513	624	
11	0	0	0	0	512	624	
12	0	0	0	0	512	623	
13	0	0	0	0	512	620	
14	0	0	0	0	512	623	
15	0	0	0	0	512	623	
0	0	0	0	0	512	624	
1	0	0	0	0	512	627	
2	0	0	0	0	513	624	
3	0	0	0	0	513	624	
4	0	0	0	0	513	624	
5	0	0	0	0	513	620	
6	0	0	0	0	513	624	
7	0	0	0	0	513	624	
8	0	0	0	0	513	624	
9	0	0	0	0	513	628	
10	0	0	0	0	513	623	
11	0	0	0	0	513	624	
12	0	0	0	0	513	623	
13	0	0	0	0	512	620	
14	0	0	0	0	512	624	
15	0	0	0	0	512	624	
0	0	0	0	0	512	624	
1	0	0	0	0	511	627	
2	0	0	0	0	511	624	
3	0	0	0	0	512	624	
4	0	0	0	0	512	623	
5	0	0	0	0	512	620	
6	0	0	0	0	511	624	
7	0	0	0	0	511	623	
8	0	0	0	0	511	624	
9	0	0	0	0	511	627	
10	0	0	0	0	511	625	
11	0	0	0	0	511	624	
12	0	0	0	0	511	624	
13	0	0	0	0	512	620	
14	0	0	0	0	512	624	
15	0	0	0	0	512	624	
0	0	0	0	0	513	624	
1	0	0	0	0	513	628	
2	0	0	0	0	514	624	
3	0	0	0	0	514	624	
4	0	0	0	0	514	624	
5	0	0	0	0	514	620	
6	0	0	0	0	514	625	
7	0	0	0	0	514	624	
8	0	0	0	0	515	624	
9	0	0	0	0	515	627	
10	0	0	0	0	514	623	
11	0	0	0	0	514	624	
12	0	0	0	0	513	624	
13	0	0	0	0	513	621	
14	0	0	0	0	512	625	
15	0	0	0	0	512	624	
0	0	0	0	0	512	625	
1	0	0	0	0	512	628	
2	0	0	0	0	511	624	
3	0	0	0	0	511	624	
4	0	0	0	0	510	623	
5	0	0	0	0	511	620	
6	0	0	0	0	510	624	
7	0	0	0	0	510	624	
8	0	0	0	0	510	624	
9	0	0	0	0	510	628	
10	0	0	0	0	510	624	
11	0	0	0	0	510	624	
12	0	0	0	0	510	624	
13	0	0	0	0	511	621	
14	0	0	0	0	510	624	
15	0	0	0	0	509	624	
0	0	0	0	0	508	624	
1	0	0	0	0	508	628	
2	0	0	0	0	508	625	
3	0	0	0	0	507	624	
4	0	0	0	0	507	625	
5	0	0	0	0	507	621	
6	0	0	0	0	508	625	
7	0	0	0	0	508	625	
8	0	0	0	0	509	626	
9	0	0	0	0	510	628	
10	0	0	0	0	510	625	
11	0	0	0	0	510	625	
12	0	0	0	0	511	625	
13	0	0	0	0	511	621	
14	0	0	0	0	512	625	
15	0	0	0	0	512	625	
0	0	0	0	0	511	625	
1	0	0	0	0	512	629	
2	0	0	0	0	512	625	
3	0	0	0	0	511	624	
4	0	0	0	0	511	624	
5	0	0	0	0	510	620	
6	0	0	0	0	510	624	
7	0	0	0	0	509	624	
8	0	0	0	0	509	625	
9	0	0	0	0	510	628	
10	0	0	0	0	510	624	
11	0	0	0	0	510	624	
12	0	0	0	0	510	624	
13	0	0	0	0	511	620	
14	0	0	0	0	511	624	
15	0	0	0	0	511	624	
0	0	0	0	0	511	624	
1	0	0	0	0	512	627	
2	0	0	0	0	511	624	
3	0	0	0	0	510	624	
4	0	0	0	0	510	624	
5	0	0	0	0	510	620	
6	0	0	0	0	511	624	
7	0	0	0	0	511	624	
8	0	0	0	0	511	625	
9	0	0	0	0	510	628	
10	0	0	0	0	510	624	
11	0	0	0	0	509	624	
12	0	0	0	0	510	624	
13	0	0	0	0	509	621	
14	0	0	0	0	510	624	
15	0	0	0	0	511	625	
0	0	0	0	0	512	624	
1	0	0	0	0	511	627	
2	0	0	0	0	512	624	
3	0	0	0	0	513	624	
4	0	0	0	0	514	625	
5	0	0	0	0	514	621	
6	0	0	0	0	515	625	
7	0	0	0	0	515	625	
8	0	0	0	0	515	625	
9	0	0	0	0	515	629	
10	0	0	0	0	515	625	
11	0	0	0	0	515	625	
12	0	0	0	0	514	626	
13	0	0	0	0	513	621	
14	0	0	0	0	512	626	
15	0	0	0	0	512	626	
0	0	0	0	0	512	626	
1	0	0	0	0	512	629	
2	0	0	0	0	511	625	
3	0	0	0	0	510	624	
4	0	0	0	0	509	625	
5	0	0	0	0	509	621	
6	0	0	0	0	510	625	
7	0	0	0	0	510	624	
8	0	0	0	0	511	625	
9	0	0	0	0	510	628	
10	0	0	0	0	510	625	
11	0	0	0	0	510	624	
12	0	0	0	0	510	624	
13	0	0	0	0	510	621	
14	0	0	0	0	510	624	
15	0	0	0	0	511	624	
0	0	0	0	0	512	624	
1	0	0	0	0	513	627	
2	0	0	0	0	513	624	
3	0	0	0	0	514	623	
4	0	0	0	0	514	624	
5	0	0	0	0	513	620	
6	0	0	0	0	513	624	
7	0	0	0	0	513	624	
8	0	0	0	0	512	624	
9	0	0	0	0	511	627	
10	0	0	0	0	510	624	
11	0	0	0	0	510	624	
12	0	0	0	0	510	624	
13	0	0	0	0	508	620	
14	0	0	0	0	508	624	
15	0	0	0	0	508	624	
0	0	0	0	0	508	623	
1	0	0	0	0	509	627	
2	0	0	0	0	510	624	
3	0	0	0	0	511	624	
4	0	0	0	0	511	624	
5	0	0	0	0	511	619	
6	0	0	0	0	512	623	
7	0	0	0	0	512	623	
8	0	0	0	0	512	623	
9	0	0	0	0	512	626	
10	0	0	0	0	512	623	
11	0	0	0	0	512	623	
12	0	0	0	0	511	623	
13	0	0	0	0	511	619	
14	0	0	0	0	510	624	
15	0	0	0	0	510	622	
0	0	0	0	0	510	624	
1	0	0	0	0	510	626	
2	0	0	0	0	510	623	
3	0	0	0	0	511	623	
4	0	0	0	0	511	623	
5	0	0	0	0	511	619	
6	0	0	0	0	511	623	
7	0	0	0	0	510	623	
8	0	0	0	0	509	623	
9	0	0	0	0	509	626	
10	0	0	0	0	508	623	
11	0	0	0	0	508	622	
12	0	0	0	0	508	622	
13	0	0	0	0	508	618	
14	0	0	0	0	507	623	
15	0	0	0	0	507	623	
0	0	0	0	0	507	623	
1	0	0	0	0	507	627	
2	0	0	0	0	506	623	
3	0	0	0	0	505	623	
4	0	0	0	0	504	623	
5	0	0	0	0	503	620	
6	0	0	0	0	502	623	
7	0	0	0	0	502	623	
8	0	0	0	0	501	623	
9	0	0	0	0	501	627	
10	0	0	0	0	501	623	
11	0	0	0	0	501	623	
12	0	0	0	0	502	623	
13	0	0	0	0	501	620	
14	0	0	0	0	501	624	
15	0	0	0	0	502	624	
0	0	0	0	0	503	624	
1	0	0	0	0	504	627	
2	0	0	0	0	504	624	
3	0	0	0	0	505	624	
4	0	0	0	0	505	624	
5	0	0	0	0	506	621	
6	0	0	0	0	508	625	
7	0	0	0	0	508	624	
8	0	0	0	0	509	625	
9	0	0	0	0	511	629	
10	0	0	0	0	512	626	
11	0	0	0	0	513	626	
12	0	0	0	0	514	625	
13	0	0	0	0	515	623	
14	0	0	0	0	515	626	
15	0	0	0	0	515	626	
0	0	0	0	0	516	627	
1	0	0	0	0	516	630	
2	0	0	0	0	517	626	
3	0	0	0	0	517	626	
4	0	0	0	0	518	626	
5	0	0	0	0	517	622	
6	0	0	0	0	518	626	
7	0	0	0	0	517	626	
8	0	0	0	0	516	626	
9	0	0	0	0	516	629	
10	0	0	0	0	515	625	
11	0	0	0	0	514	626	
12	0	0	0	0	514	625	
13	0	0	0	0	514	622	
14	0	0	0	0	515	626	
15	0	0	0	0	515	626	
0	0	0	0	0	514	625	
1	0	0	0	0	513	628	
2	0	0	0	0	513	625	
3	0	0	0	0	512	625	
4	0	0	0	0	511	624	
5	0	0	0	0	511	621	
6	0	0	0	0	511	625	
7	0	0	0	0	510	624	
8	0	0	0	0	509	624	
9	0	0	0	0	509	627	
10	0	0	0	0	508	624	
11	0	0	0	0	509	624	
12	0	0	0	0	508	624	
13	0	0	0	0	508	620	
14	0	0	0	0	507	625	
15	0	0	0	0	507	624	
0	0	0	0	0	507	624	
1	0	0	0	0	507	628	
2	0	0	0	0	507	624	
3	0	0	0	0	506	623	
4	0	0	0	0	505	623	
5	0	0	0	0	505	620	
6	0	0	0	0	505	623	
7	0	0	0	0	504	624	
8	0	0	0	0	504	624	
9	0	0	0	0	504	627	
10	0	0	0	0	505	623	
11	0	0	0	0	504	624	
12	0	0	0	0	505	624	
13	0	0	0	0	505	620	
14	0	0	0	0	505	624	
15	0	0	0	0	505	624	
0	0	0	0	0	505	624	
1	0	0	0	0	504	627	
2	0	0	0	0	504	624	
3	0	0	0	0	505	624	
4	0	0	0	0	505	624	
5	0	0	0	0	505	620	
6	0	0	0	0	506	624	
7	0	0	0	0	506	624	
8	0	0	0	0	507	624	
9	0	0	0	0	506	628	
10	0	0	0	0	506	624	
11	0	0	0	0	506	624	
12	0	0	0	0	506	624	
13	0	0	0	0	505	621	
14	0	0	0	0	506	624	
15	0	0	0	0	506	624	
0	0	0	0	0	504	624	
1	0	0	0	0	504	628	
2	0	0	0	0	503	624	
3	0	0	0	0	504	625	
4	0	0	0	0	503	624	
5	0	0	0	0	504	621	
6	0	0	0	0	504	625	
7	0	0	0	0	505	625	
8	0	0	0	0	505	625	
9	0	0	0	0	504	628	
10	0	0	0	0	502	625	
11	0	0	0	0	498	625	
12	0	0	0	0	495	625	
13	0	0	0	0	491	622	
14	0	0	0	0	486	625	
15	0	0	0	0	480	625	
0	0	0	0	0	472	625	
1	0	0	0	0	465	628	
2	0	0	0	0	459	625	
3	0	0	0	0	453	625	
4	0	0	0	0	449	625	
5	0	0	0	0	446	621	
6	0	0	0	0	444	624	
7	0	0	0	0	445	625	
8	0	0	0	0	446	625	
9	0	0	0	0	450	628	
10	0	0	0	0	456	625	
11	0	0	0	0	463	624	
12	0	0	0	0	470	624	
13	0	0	0	0	480	621	
14	0	0	0	0	493	625	
15	0	0	0	0	508	624	
0	0	0	0	0	525	625	
1	0	0	0	0	545	628	
2	0	0	0	0	566	624	
3	0	0	0	0	588	625	
4	0	0	0	0	610	625	
5	0	0	0	0	633	621	
6	0	0	0	0	654	625	
7	0	0	0	0	675	625	
8	0	0	0	0	696	625	
9	0	0	0	0	716	629	
10	0	0	0	0	737	625	
11	0	0	0	0	759	626	
12	0	0	0	0	782	626	
13	0	0	0	0	804	622	
14	0	0	0	0	823	625	
15	0	0	0	0	835	625	
0	0	0	0	0	841	626	
1	0	0	0	0	841	629	
2	0	0	0	0	835	626	
3	0	0	0	0	822	625	
4	0	0	0	0	805	625	
5	0	0	0	0	786	622	
6	0	0	0	0	765	625	
7	0	0	0	0	741	625	
8	0	0	0	0	713	625	
9	0	0	0	0	687	628	
10	0	0	0	0	664	625	
11	0	0	0	0	643	624	
12	0	0	0	0	626	624	
13	0	0	0	0	610	620	
14	0	0	0	0	597	624	
15	0	0	0	0	584	624	
0	0	0	0	0	572	624	
1	0	0	0	0	562	627	
2	0	0	0	0	553	623	
3	0	0	0	0	544	624	
4	0	0	0	0	535	624	
5	0	0	0	0	526	620	
6	0	0	0	0	518	624	
7	0	0	0	0	511	624	
8	0	0	0	0	503	624	
9	0	0	0	0	496	628	
10	0	0	0	0	490	624	
11	0	0	0	0	483	624	
12	0	0	0	0	478	624	
13	0	0	0	0	474	620	
14	0	0	0	0	470	624	
15	0	0	0	0	465	624	
0	0	0	0	0	461	624	
1	0	0	0	0	458	628	
2	0	0	0	0	455	624	
3	0	0	0	0	452	624	
4	0	0	0	0	450	624	
5	0	0	0	0	449	621	
6	0	0	0	0	448	624	
7	0	0	0	0	448	624	
8	0	0	0	0	448	625	
9	0	0	0	0	448	628	
10	0	0	0	0	448	624	
11	0	0	0	0	449	624	
12	0	0	0	0	448	624	
13	0	0	0	0	448	620	
14	0	0	0	0	448	624	
15	0	0	0	0	449	624	
0	0	0	0	0	449	624	
1	0	0	0	0	448	627	
2	0	0	0	0	448	624	
3	0	0	0	0	448	623	
4	0	0	0	0	447	624	
5	0	0	0	0	447	620	
6	0	0	0	0	448	623	
7	0	0	0	0	447	623	
8	0	0	0	0	446	623	
9	0	0	0	0	445	626	
10	0	0	0	0	446	623	
11	0	0	0	0	447	623	
12	0	0	0	0	448	623	
13	0	0	0	0	448	619	
14	0	0	0	0	449	623	
15	0	0	0	0	451	623	
0	0	0	0	0	453	623	
1	0	0	0	0	454	626	
2	0	0	0	0	455	623	
3	0	0	0	0	457	623	
4	0	0	0	0	457	623	
5	0	0	0	0	458	619	
6	0	0	0	0	458	623	
7	0	0	0	0	459	623	
8	0	0	0	0	459	623	
9	0	0	0	0	458	627	
10	0	0	0	0	459	624	
11	0	0	0	0	459	624	
12	0	0	0	0	459	624	
13	0	0	0	0	458	620	
14	0	0	0	0	458	624	
15	0	0	0	0	459	624	
0	0	0	0	0	459	624	
1	0	0	0	0	459	627	
2	0	0	0	0	460	624	
3	0	0	0	0	460	624	
4	0	0	0	0	461	624	
5	0	0	0	0	462	620	
6	0	0	0	0	462	624	
7	0	0	0	0	463	624	
8	0	0	0	0	464	625	
9	0	0	0	0	465	628	
10	0	0	0	0	465	625	
11	0	0	0	0	465	625	
12	0	0	0	0	465	625	
13	0	0	0	0	465	621	
14	0	0	0	0	465	625	
15	0	0	0	0	464	625	
0	0	0	0	0	464	625	
1	0	0	0	0	464	629	
2	0	0	0	0	465	626	
3	0	0	0	0	464	626	
4	0	0	0	0	465	626	
5	0	0	0	0	465	623	
6	0	0	0	0	466	627	
7	0	0	0	0	466	627	
8	0	0	0	0	467	627	
9	0	0	0	0	467	631	
10	0	0	0	0	467	627	
11	0	0	0	0	467	627	
12	0	0	0	0	468	627	
13	0	0	0	0	469	623	
14	0	0	0	0	470	628	
15	0	0	0	0	470	628	
0	0	0	0	0	470	628	
1	0	0	0	0	470	632	
2	0	0	0	0	471	628	
3	0	0	0	0	472	628	
4	0	0	0	0	472	628	
5	0	0	0	0	472	624	
6	0	0	0	0	473	628	
7	0	0	0	0	473	628	
8	0	0	0	0	474	629	
9	0	0	0	0	474	631	
10	0	0	0	0	474	628	
11	0	0	0	0	473	627	
12	0	0	0	0	473	627	
13	0	0	0	0	473	624	
14	0	0	0	0	473	627	
15	0	0	0	0	475	627	
0	0	0	0	0	475	628	
1	0	0	0	0	475	631	
2	0	0	0	0	476	627	
3	0	0	0	0	477	627	
4	0	0	0	0	478	627	
5	0	0	0	0	479	623	
6	0	0	0	0	480	627	
7	0	0	0	0	479	626	
8	0	0	0	0	480	627	
9	0	0	0	0	481	630	
10	0	0	0	0	482	627	
11	0	0	0	0	483	626	
12	0	0	0	0	484	626	
13	0	0	0	0	484	622	
14	0	0	0	0	485	626	
15	0	0	0	0	486	626	
0	0	0	0	0	486	626	
1	0	0	0	0	487	629	
2	0	0	0	0	487	625	
3	0	0	0	0	487	625	
4	0	0	0	0	488	625	
5	0	0	0	0	488	622	
6	0	0	0	0	489	626	
7	0	0	0	0	489	625	
8	0	0	0	0	490	626	
9	0	0	0	0	491	628	
10	0	0	0	0	492	625	
11	0	0	0	0	492	625	
12	0	0	0	0	493	625	
13	0	0	0	0	493	621	
14	0	0	0	0	493	624	
15	0	0	0	0	494	625	
0	0	0	0	0	494	624	
1	0	0	0	0	494	628	
2	0	0	0	0	494	625	
3	0	0	0	0	494	624	
4	0	0	0	0	494	624	
5	0	0	0	0	494	620	
6	0	0	0	0	495	624	
7	0	0	0	0	495	624	
8	0	0	0	0	495	624	
9	0	0	0	0	495	627	
10	0	0	0	0	495	623	
11	0	0	0	0	495	623	
12	0	0	0	0	494	623	
13	0	0	0	0	495	619	
14	0	0	0	0	495	622	
15	0	0	0	0	496	624	
0	0	0	0	0	496	623	
1	0	0	0	0	496	627	
2	0	0	0	0	497	623	
3	0	0	0	0	497	622	
4	0	0	0	0	497	622	
5	0	0	0	0	498	618	
6	0	0	0	0	499	623	
7	0	0	0	0	500	622	
8	0	0	0	0	501	622	
9	0	0	0	0	502	625	
10	0	0	0	0	503	622	
11	0	0	0	0	503	622	
12	0	0	0	0	504	622	
13	0	0	0	0	503	617	
14	0	0	0	0	503	622	
15	0	0	0	0	503	621	
0	0	0	0	0	504	621	
1	0	0	0	0	505	625	
2	0	0	0	0	505	621	
3	0	0	0	0	506	622	
4	0	0	0	0	507	622	
5	0	0	0	0	508	618	
6	0	0	0	0	510	623	
7	0	0	0	0	511	622	
8	0	0	0	0	512	623	
9	0	0	0	0	512	626	
10	0	0	0	0	513	623	
11	0	0	0	0	515	624	
12	0	0	0	0	515	623	
13	0	0	0	0	515	620	
14	0	0	0	0	515	624	
15	0	0	0	0	515	624	
0	0	0	0	0	514	624	
1	0	0	0	0	514	628	
2	0	0	0	0	513	625	
3	0	0	0	0	513	625	
4	0	0	0	0	513	625	
5	0	0	0	0	512	623	
6	0	0	0	0	512	626	
7	0	0	0	0	511	627	
8	0	0	0	0	511	627	
9	0	0	0	0	512	630	
10	0	0	0	0	513	627	
11	0	0	0	0	514	628	
12	0	0	0	0	514	627	
13	0	0	0	0	514	624	
14	0	0	0	0	514	628	
15	0	0	0	0	514	628	
0	0	0	0	0	514	628	
1	0	0	0	0	514	632	
2	0	0	0	0	513	628	
3	0	0	0	0	513	628	
4	0	0	0	0	513	628	
5	0	0	0	0	512	624	
6	0	0	0	0	511	628	
7	0	0	0	0	510	628	
8	0	0	0	0	509	628	
9	0	0	0	0	509	631	
10	0	0	0	0	508	627	
11	0	0	0	0	507	627	
12	0	0	0	0	506	626	
13	0	0	0	0	505	623	
14	0	0	0	0	504	626	
15	0	0	0	0	503	625	
0	0	0	0	0	503	626	
1	0	0	0	0	502	630	
2	0	0	0	0	501	626	
3	0	0	0	0	501	626	
4	0	0	0	0	500	625	
5	0	0	0	0	500	621	
6	0	0	0	0	500	625	
7	0	0	0	0	500	625	
8	0	0	0	0	499	625	
9	0	0	0	0	499	629	
10	0	0	0	0	500	626	
11	0	0	0	0	500	625	
12	0	0	0	0	500	624	
13	0	0	0	0	501	620	
14	0	0	0	0	500	624	
15	0	0	0	0	501	624	
0	0	0	0	0	502	624	
1	0	0	0	0	502	627	
2	0	0	0	0	502	624	
3	0	0	0	0	501	623	
4	0	0	0	0	500	624	
5	0	0	0	0	500	619	
6	0	0	0	0	499	623	
7	0	0	0	0	499	623	
8	0	0	0	0	499	623	
9	0	0	0	0	499	626	
10	0	0	0	0	498	622	
11	0	0	0	0	497	623	
12	0	0	0	0	496	622	
13	0	0	0	0	495	618	
14	0	0	0	0	495	622	
15	0	0	0	0	494	622	
0	0	0	0	0	493	622	
1	0	0	0	0	493	625	
2	0	0	0	0	493	622	
3	0	0	0	0	492	622	
4	0	0	0	0	493	622	
5	0	0	0	0	493	619	
6	0	0	0	0	493	623	
7	0	0	0	0	494	623	
8	0	0	0	0	494	623	
9	0	0	0	0	495	626	
10	0	0	0	0	495	623	
11	0	0	0	0	496	623	
12	0	0	0	0	496	623	
13	0	0	0	0	497	619	
14	0	0	0	0	498	624	
15	0	0	0	0	499	623	
0	0	0	0	0	499	624	
1	0	0	0	0	500	627	
2	0	0	0	0	501	624	
3	0	0	0	0	500	624	
4	0	0	0	0	500	624	
5	0	0	0	0	500	620	
6	0	0	0	0	500	625	
7	0	0	0	0	500	625	
8	0	0	0	0	500	625	
9	0	0	0	0	500	629	
10	0	0	0	0	499	625	
11	0	0	0	0	499	625	
12	0	0	0	0	498	626	
13	0	0	0	0	497	622	
14	0	0	0	0	497	626	
15	0	0	0	0	496	626	
0	0	0	0	0	495	626	
1	0	0	0	0	495	630	
2	0	0	0	0	494	626	
3	0	0	0	0	493	626	
4	0	0	0	0	493	626	
5	0	0	0	0	493	622	
6	0	0	0	0	494	626	
7	0	0	0	0	494	626	
8	0	0	0	0	496	626	
9	0	0	0	0	497	630	
10	0	0	0	0	498	626	
11	0	0	0	0	499	626	
12	0	0	0	0	500	626	
13	0	0	0	0	502	623	
14	0	0	0	0	503	627	
15	0	0	0	0	504	626	
0	0	0	0	0	504	627	
1	0	0	0	0	504	631	
2	0	0	0	0	504	627	
3	0	0	0	0	504	628	
4	0	0	0	0	504	627	
5	0	0	0	0	504	624	
6	0	0	0	0	504	628	
7	0	0	0	0	504	628	
8	0	0	0	0	503	628	
9	0	0	0	0	502	631	
10	0	0	0	0	502	628	
11	0	0	0	0	501	628	
12	0	0	0	0	501	628	
13	0	0	0	0	501	624	
14	0	0	0	0	500	628	
15	0	0	0	0	499	628	
0	0	0	0	0	499	628	
1	0	0	0	0	499	632	
2	0	0	0	0	499	628	
3	0	0	0	0	499	627	
4	0	0	0	0	499	627	
5	0	0	0	0	498	623	
6	0	0	0	0	499	627	
7	0	0	0	0	500	627	
8	0	0	0	0	501	627	
9	0	0	0	0	501	630	
10	0	0	0	0	500	626	
11	0	0	0	0	501	626	
12	0	0	0	0	501	626	
13	0	0	0	0	502	622	
14	0	0	0	0	502	626	
15	0	0	0	0	502	626	
0	0	0	0	0	504	626	
1	0	0	0	0	504	629	
2	0	0	0	0	504	625	
3	0	0	0	0	504	625	
4	0	0	0	0	504	625	
5	0	0	0	0	504	621	
6	0	0	0	0	504	624	
7	0	0	0	0	504	624	
8	0	0	0	0	504	625	
9	0	0	0	0	504	628	
10	0	0	0	0	503	625	
11	0	0	0	0	504	624	
12	0	0	0	0	504	624	
13	0	0	0	0	505	620	
14	0	0	0	0	506	624	
15	0	0	0	0	506	624	
0	0	0	0	0	507	624	
1	0	0	0	0	507	627	
2	0	0	0	0	508	623	
3	0	0	0	0	508	623	
4	0	0	0	0	508	622	
5	0	0	0	0	508	619	
6	0	0	0	0	507	623	
7	0	0	0	0	507	623	
8	0	0	0	0	507	623	
9	0	0	0	0	507	626	
10	0	0	0	0	508	623	
11	0	0	0	0	507	623	
12	0	0	0	0	508	622	
13	0	0	0	0	509	619	
14	0	0	0	0	509	623	
15	0	0	0	0	510	622	
0	0	0	0	0	511	623	
1	0	0	0	0	511	626	
2	0	0	0	0	511	623	
3	0	0	0	0	511	622	
4	0	0	0	0	511	623	
5	0	0	0	0	510	619	
6	0	0	0	0	510	623	
7	0	0	0	0	509	623	
8	0	0	0	0	508	623	
9	0	0	0	0	507	626	
10	0	0	0	0	507	623	
11	0	0	0	0	507	623	
12	0	0	0	0	506	623	
13	0	0	0	0	506	619	
14	0	0	0	0	505	624	
15	0	0	0	0	504	623	
0	0	0	0	0	504	624	
1	0	0	0	0	504	626	
2	0	0	0	0	503	624	
3	0	0	0	0	503	624	
4	0	0	0	0	502	624	
5	0	0	0	0	502	620	
6	0	0	0	0	502	624	
7	0	0	0	0	502	624	
8	0	0	0	0	501	624	
9	0	0	0	0	501	628	
10	0	0	0	0	502	624	
11	0	0	0	0	502	626	
12	0	0	0	0	503	625	
13	0	0	0	0	503	622	
14	0	0	0	0	504	625	
15	0	0	0	0	504	625	
0	0	0	0	0	503	625	
1	0	0	0	0	503	629	
2	0	0	0	0	504	626	
3	0	0	0	0	504	626	
4	0	0	0	0	505	626	
5	0	0	0	0	505	622	
6	0	0	0	0	505	626	
7	0	0	0	0	505	627	
8	0	0	0	0	505	627	
9	0	0	0	0	505	630	
10	0	0	0	0	505	627	
11	0	0	0	0	505	627	
12	0	0	0	0	504	627	
13	0	0	0	0	504	623	
14	0	0	0	0	504	627	
15	0	0	0	0	504	627	
0	0	0	0	0	503	626	
1	0	0	0	0	502	630	
2	0	0	0	0	502	627	
3	0	0	0	0	501	626	
4	0	0	0	0	500	626	
5	0	0	0	0	500	623	
6	0	0	0	0	500	627	
7	0	0	0	0	500	626	
8	0	0	0	0	500	626	
9	0	0	0	0	499	629	
10	0	0	0	0	499	625	
11	0	0	0	0	500	626	
12	0	0	0	0	499	626	
13	0	0	0	0	500	622	
14	0	0	0	0	500	626	
15	0	0	0	0	500	625	
0	0	0	0	0	500	625	
1	0	0	0	0	500	628	
2	0	0	0	0	500	625	
3	0	0	0	0	499	624	
4	0	0	0	0	499	624	
5	0	0	0	0	499	620	
6	0	0	0	0	498	623	
7	0	0	0	0	497	625	
8	0	0	0	0	496	624	
9	0	0	0	0	495	627	
10	0	0	0	0	495	623	
11	0	0	0	0	494	624	
12	0	0	0	0	495	624	
13	0	0	0	0	495	619	
14	0	0	0	0	495	623	
15	0	0	0	0	495	623	
0	0	0	0	0	494	623	
1	0	0	0	0	494	627	
2	0	0	0	0	493	623	
3	0	0	0	0	494	623	
4	0	0	0	0	494	623	
5	0	0	0	0	494	618	
6	0	0	0	0	495	622	
7	0	0	0	0	497	622	
8	0	0	0	0	496	622	
9	0	0	0	0	497	626	
10	0	0	0	0	497	622	
11	0	0	0	0	497	622	
12	0	0	0	0	497	621	
13	0	0	0	0	497	617	
14	0	0	0	0	496	621	
15	0	0	0	0	496	620	
0	0	0	0	0	495	620	
1	0	0	0	0	495	624	
2	0	0	0	0	495	620	
3	0	0	0	0	495	621	
4	0	0	0	0	495	620	
5	0	0	0	0	495	617	
6	0	0	0	0	494	620	
7	0	0	0	0	494	620	
8	0	0	0	0	494	621	
9	0	0	0	0	494	624	
10	0	0	0	0	495	621	
11	0	0	0	0	495	620	
12	0	0	0	0	496	620	
13	0	0	0	0	497	616	
14	0	0	0	0	498	621	
15	0	0	0	0	499	621	
0	0	0	0	0	499	621	
1	0	0	0	0	500	625	
2	0	0	0	0	500	622	
3	0	0	0	0	499	621	
4	0	0	0	0	498	622	
5	0	0	0	0	497	619	
6	0	0	0	0	497	623	
7	0	0	0	0	497	623	
8	0	0	0	0	497	622	
9	0	0	0	0	496	626	
10	0	0	0	0	497	622	
11	0	0	0	0	497	623	
12	0	0	0	0	496	623	
13	0	0	0	0	495	620	
14	0	0	0	0	495	623	
15	0	0	0	0	494	624	
0	0	0	0	0	493	624	
1	0	0	0	0	492	627	
2	0	0	0	0	493	624	
3	0	0	0	0	493	624	
4	0	0	0	0	493	623	
5	0	0	0	0	494	620	
6	0	0	0	0	494	624	
7	0	0	0	0	494	624	
8	0	0	0	0	495	625	
9	0	0	0	0	496	628	
10	0	0	0	0	496	625	
11	0	0	0	0	496	625	
12	0	0	0	0	496	624	
13	0	0	0	0	496	620	
14	0	0	0	0	496	625	
15	0	0	0	0	496	624	
0	0	0	0	0	496	625	
1	0	0	0	0	496	628	
2	0	0	0	0	496	625	
3	0	0	0	0	495	625	
4	0	0	0	0	494	624	
5	0	0	0	0	495	620	
6	0	0	0	0	494	625	
7	0	0	0	0	493	625	
8	0	0	0	0	493	625	
9	0	0	0	0	492	629	
10	0	0	0	0	492	625	
11	0	0	0	0	492	625	
12	0	0	0	0	492	626	
13	0	0	0	0	492	622	
14	0	0	0	0	492	626	
15	0	0	0	0	492	626	
0	0	0	0	0	492	626	
1	0	0	0	0	493	630	
2	0	0	0	0	493	627	
3	0	0	0	0	493	627	
4	0	0	0	0	494	627	
5	0	0	0	0	495	622	
6	0	0	0	0	495	627	
7	0	0	0	0	496	627	
8	0	0	0	0	496	627	
9	0	0	0	0	497	630	
10	0	0	0	0	497	626	
11	0	0	0	0	497	626	
12	0	0	0	0	497	626	
13	0	0	0	0	496	623	
14	0	0	0	0	496	627	
15	0	0	0	0	496	627	
0	0	0	0	0	496	627	
1	0	0	0	0	496	630	
2	0	0	0	0	496	626	
3	0	0	0	0	495	626	
4	0	0	0	0	495	626	
5	0	0	0	0	495	623	
6	0	0	0	0	494	626	
7	0	0	0	0	494	625	
8	0	0	0	0	494	626	
9	0	0	0	0	494	628	
10	0	0	0	0	494	625	
11	0	0	0	0	494	624	
12	0	0	0	0	494	624	
13	0	0	0	0	494	621	
14	0	0	0	0	494	624	
15	0	0	0	0	494	624	
0	0	0	0	0	494	624	
1	0	0	0	0	494	627	
2	0	0	0	0	494	623	
3	0	0	0	0	494	624	
4	0	0	0	0	494	623	
5	0	0	0	0	494	619	
6	0	0	0	0	494	622	
7	0	0	0	0	494	623	
8	0	0	0	0	494	622	
9	0	0	0	0	494	625	
10	0	0	0	0	493	622	
11	0	0	0	0	493	622	
12	0	0	0	0	494	621	
13	0	0	0	0	493	617	
14	0	0	0	0	493	622	
15	0	0	0	0	492	622	
0	0	0	0	0	491	622	
1	0	0	0	0	491	625	
2	0	0	0	0	491	621	
3	0	0	0	0	491	621	
4	0	0	0	0	491	620	
5	0	0	0	0	492	617	
6	0	0	0	0	492	621	
7	0	0	0	0	492	622	
8	0	0	0	0	492	621	
9	0	0	0	0	493	625	
10	0	0	0	0	493	622	
11	0	0	0	0	493	622	
12	0	0	0	0	493	621	
13	0	0	0	0	493	618	
14	0	0	0	0	493	622	
15	0	0	0	0	493	621	
0	0	0	0	0	492	622	
1	0	0	0	0	492	624	
2	0	0	0	0	492	622	
3	0	0	0	0	491	621	
4	0	0	0	0	491	621	
5	0	0	0	0	491	618	
6	0	0	0	0	491	621	
7	0	0	0	0	491	622	
8	0	0	0	0	491	622	
9	0	0	0	0	492	625	
10	0	0	0	0	494	622	
11	0	0	0	0	494	621	
12	0	0	0	0	495	621	
13	0	0	0	0	495	617	
14	0	0	0	0	495	622	
15	0	0	0	0	496	622	
0	0	0	0	0	495	622	
1	0	0	0	0	496	626	
2	0	0	0	0	496	622	
3	0	0	0	0	497	622	
4	0	0	0	0	497	621	
5	0	0	0	0	497	618	
6	0	0	0	0	497	622	
7	0	0	0	0	497	622	
8	0	0	0	0	497	622	
9	0	0	0	0	498	625	
10	0	0	0	0	497	622	
11	0	0	0	0	497	623	
12	0	0	0	0	497	623	
13	0	0	0	0	498	619	
14	0	0	0	0	498	623	
15	0	0	0	0	498	623	
0	0	0	0	0	498	624	
1	0	0	0	0	497	627	
2	0	0	0	0	497	624	
3	0	0	0	0	496	624	
4	0	0	0	0	496	625	
5	0	0	0	0	496	622	
6	0	0	0	0	496	626	
7	0	0	0	0	496	625	
8	0	0	0	0	497	627	
9	0	0	0	0	497	630	
10	0	0	0	0	497	627	
11	0	0	0	0	496	627	
12	0	0	0	0	496	627	
13	0	0	0	0	496	624	
14	0	0	0	0	495	627	
15	0	0	0	0	495	628	
0	0	0	0	0	494	628	
1	0	0	0	0	494	631	
2	0	0	0	0	494	627	
3	0	0	0	0	494	627	
4	0	0	0	0	494	627	
5	0	0	0	0	494	623	
6	0	0	0	0	494	627	
7	0	0	0	0	494	627	
8	0	0	0	0	494	627	
9	0	0	0	0	494	631	
10	0	0	0	0	493	627	
11	0	0	0	0	492	627	
12	0	0	0	0	494	626	
13	0	0	0	0	495	622	
14	0	0	0	0	495	627	
15	0	0	0	0	495	626	
0	0	0	0	0	495	627	
1	0	0	0	0	495	629	
2	0	0	0	0	495	625	
3	0	0	0	0	496	626	
4	0	0	0	0	496	625	
5	0	0	0	0	496	622	
6	0	0	0	0	496	625	
7	0	0	0	0	496	625	
8	0	0	0	0	498	626	
9	0	0	0	0	499	630	
10	0	0	0	0	500	625	
11	0	0	0	0	502	625	
12	0	0	0	0	504	625	
13	0	0	0	0	504	621	
14	0	0	0	0	505	625	
15	0	0	0	0	506	625	
0	0	0	0	0	507	625	
1	0	0	0	0	507	628	
2	0	0	0	0	508	625	
3	0	0	0	0	507	624	
4	0	0	0	0	507	625	
5	0	0	0	0	506	621	
6	0	0	0	0	505	624	
7	0	0	0	0	504	625	
8	0	0	0	0	503	625	
9	0	0	0	0	502	628	
10	0	0	0	0	502	625	
11	0	0	0	0	501	624	
12	0	0	0	0	502	624	
13	0	0	0	0	502	621	
14	0	0	0	0	501	625	
15	0	0	0	0	502	624	
0	0	0	0	0	503	624	
1	0	0	0	0	504	627	
2	0	0	0	0	506	624	
3	0	0	0	0	508	624	
4	0	0	0	0	508	624	
5	0	0	0	0	508	620	
6	0	0	0	0	508	625	
7	0	0	0	0	508	624	
8	0	0	0	0	508	625	
9	0	0	0	0	508	628	
10	0	0	0	0	508	624	
11	0	0	0	0	508	625	
12	0	0	0	0	507	624	
13	0	0	0	0	506	621	
14	0	0	0	0	506	625	
15	0	0	0	0	505	625	
0	0	0	0	0	505	626	
1	0	0	0	0	504	629	
2	0	0	0	0	504	625	
3	0	0	0	0	504	624	
4	0	0	0	0	503	624	
5	0	0	0	0	503	621	
6	0	0	0	0	502	625	
7	0	0	0	0	501	625	
8	0	0	0	0	501	625	
9	0	0	0	0	501	629	
10	0	0	0	0	502	625	
11	0	0	0	0	502	626	
12	0	0	0	0	501	626	
13	0	0	0	0	501	623	
14	0	0	0	0	500	626	
15	0	0	0	0	500	626	
0	0	0	0	0	500	627	
1	0	0	0	0	500	630	
2	0	0	0	0	500	626	
3	0	0	0	0	500	626	
4	0	0	0	0	500	626	
5	0	0	0	0	500	622	
6	0	0	0	0	500	626	
7	0	0	0	0	500	626	
8	0	0	0	0	499	625	
9	0	0	0	0	500	630	
10	0	0	0	0	500	626	
11	0	0	0	0	500	626	
12	0	0	0	0	501	625	
13	0	0	0	0	500	621	
14	0	0	0	0	501	625	
15	0	0	0	0	501	625	
0	0	0	0	0	501	625	
1	0	0	0	0	501	629	
2	0	0	0	0	502	625	
3	0	0	0	0	502	625	
4	0	0	0	0	504	625	
5	0	0	0	0	504	621	
6	0	0	0	0	505	624	
7	0	0	0	0	506	625	
8	0	0	0	0	507	625	
9	0	0	0	0	508	628	
10	0	0	0	0	507	625	
11	0	0	0	0	507	625	
12	0	0	0	0	506	624	
13	0	0	0	0	504	621	
14	0	0	0	0	501	625	
15	0	0	0	0	497	625	
0	0	0	0	0	494	624	
1	0	0	0	0	488	628	
2	0	0	0	0	482	625	
3	0	0	0	0	474	624	
4	0	0	0	0	467	625	
5	0	0	0	0	460	621	
6	0	0	0	0	456	624	
7	0	0	0	0	453	624	
8	0	0	0	0	450	625	
9	0	0	0	0	449	628	
10	0	0	0	0	450	625	
11	0	0	0	0	451	625	
12	0	0	0	0	455	625	
13	0	0	0	0	461	621	
14	0	0	0	0	468	625	
15	0	0	0	0	475	625	
0	0	0	0	0	483	625	
1	0	0	0	0	495	629	
2	0	0	0	0	509	625	
3	0	0	0	0	524	625	
4	0	0	0	0	542	625	
5	0	0	0	0	561	622	
6	0	0	0	0	582	626	
7	0	0	0	0	603	626	
8	0	0	0	0	624	626	
9	0	0	0	0	645	629	
10	0	0	0	0	664	626	
11	0	0	0	0	684	626	
12	0	0	0	0	702	625	
13	0	0	0	0	720	622	
14	0	0	0	0	741	626	
15	0	0	0	0	760	625	
0	0	0	0	0	780	626	
1	0	0	0	0	797	629	
2	0	0	0	0	807	625	
3	0	0	0	0	811	625	
4	0	0	0	0	809	625	
5	0	0	0	0	802	622	
6	0	0	0	0	788	625	
7	0	0	0	0	772	625	
8	0	0	0	0	755	625	
9	0	0	0	0	736	628	
10	0	0	0	0	714	626	
11	0	0	0	0	688	624	
12	0	0	0	0	667	625	
13	0	0	0	0	647	621	
14	0	0	0	0	629	625	
15	0	0	0	0	616	624	
0	0	0	0	0	603	625	
1	0	0	0	0	592	628	
2	0	0	0	0	582	625	
3	0	0	0	0	573	625	
4	0	0	0	0	564	625	
5	0	0	0	0	554	621	
6	0	0	0	0	546	624	
7	0	0	0	0	538	625	
8	0	0	0	0	529	625	
9	0	0	0	0	522	628	
10	0	0	0	0	514	624	
11	0	0	0	0	507	625	
12	0	0	0	0	501	624	
13	0	0	0	0	496	620	
14	0	0	0	0	489	624	
15	0	0	0	0	485	624	
0	0	0	0	0	481	625	
1	0	0	0	0	478	627	
2	0	0	0	0	474	624	
3	0	0	0	0	470	624	
4	0	0	0	0	466	624	
5	0	0	0	0	463	621	
6	0	0	0	0	461	624	
7	0	0	0	0	459	624	
8	0	0	0	0	457	624	
9	0	0	0	0	455	627	
10	0	0	0	0	454	624	
11	0	0	0	0	453	623	
12	0	0	0	0	451	622	
13	0	0	0	0	450	618	
14	0	0	0	0	450	622	
15	0	0	0	0	450	622	
0	0	0	0	0	450	622	
1	0	0	0	0	451	625	
2	0	0	0	0	451	621	
3	0	0	0	0	451	621	
4	0	0	0	0	451	620	
5	0	0	0	0	451	616	
6	0	0	0	0	451	620	
7	0	0	0	0	450	620	
8	0	0	0	0	450	620	
9	0	0	0	0	450	623	
10	0	0	0	0	451	619	
11	0	0	0	0	451	619	
12	0	0	0	0	452	619	
13	0	0	0	0	451	615	
14	0	0	0	0	451	619	
15	0	0	0	0	452	619	
0	0	0	0	0	451	619	
1	0	0	0	0	450	622	
2	0	0	0	0	451	618	
3	0	0	0	0	452	619	
4	0	0	0	0	452	618	
5	0	0	0	0	453	615	
6	0	0	0	0	454	618	
7	0	0	0	0	455	618	
8	0	0	0	0	456	618	
9	0	0	0	0	457	622	
10	0	0	0	0	458	618	
11	0	0	0	0	459	618	
12	0	0	0	0	460	618	
13	0	0	0	0	459	614	
14	0	0	0	0	460	619	
15	0	0	0	0	460	619	
0	0	0	0	0	460	619	
1	0	0	0	0	461	622	
2	0	0	0	0	462	619	
3	0	0	0	0	462	619	
4	0	0	0	0	462	619	
5	0	0	0	0	462	615	
6	0	0	0	0	462	620	
7	0	0	0	0	462	620	
8	0	0	0	0	462	620	
9	0	0	0	0	463	624	
10	0	0	0	0	463	620	
11	0	0	0	0	461	620	
12	0	0	0	0	461	621	
13	0	0	0	0	462	617	
14	0	0	0	0	462	621	
15	0	0	0	0	462	622	
0	0	0	0	0	461	622	
1	0	0	0	0	461	625	
2	0	0	0	0	462	623	
3	0	0	0	0	461	623	
4	0	0	0	0	463	623	
5	0	0	0	0	463	620	
6	0	0	0	0	464	624	
7	0	0	0	0	465	625	
8	0	0	0	0	465	624	
9	0	0	0	0	467	628	
10	0	0	0	0	469	625	
11	0	0	0	0	469	625	
12	0	0	0	0	469	625	
13	0	0	0	0	470	622	
14	0	0	0	0	470	626	
15	0	0	0	0	470	626	
0	0	0	0	0	470	626	
1	0	0	0	0	471	630	
2	0	0	0	0	472	626	
3	0	0	0	0	473	626	
4	0	0	0	0	473	626	
5	0	0	0	0	473	623	
6	0	0	0	0	473	627	
7	0	0	0	0	474	626	
8	0	0	0	0	474	627	
9	0	0	0	0	474	630	
10	0	0	0	0	473	627	
11	0	0	0	0	474	627	
12	0	0	0	0	475	627	
13	0	0	0	0	475	623	
14	0	0	0	0	476	627	
15	0	0	0	0	475	627	
0	0	0	0	0	475	628	
1	0	0	0	0	476	631	
2	0	0	0	0	476	627	
3	0	0	0	0	477	627	
4	0	0	0	0	478	627	
5	0	0	0	0	478	624	
6	0	0	0	0	478	628	
7	0	0	0	0	477	628	
8	0	0	0	0	477	628	
9	0	0	0	0	478	631	
10	0	0	0	0	478	628	
11	0	0	0	0	478	628	
12	0	0	0	0	477	628	
13	0	0	0	0	477	624	
14	0	0	0	0	477	628	
15	0	0	0	0	477	628	
0	0	0	0	0	477	627	
1	0	0	0	0	477	631	
2	0	0	0	0	478	628	
3	0	0	0	0	479	627	
4	0	0	0	0	479	627	
5	0	0	0	0	479	624	
6	0	0	0	0	480	628	
7	0	0	0	0	480	627	
8	0	0	0	0	480	628	
9	0	0	0	0	481	631	
10	0	0	0	0	480	627	
11	0	0	0	0	480	627	
12	0	0	0	0	481	627	
13	0	0	0	0	481	624	
14	0	0	0	0	481	628	
15	0	0	0	0	482	627	
0	0	0	0	0	483	628	
1	0	0	0	0	484	632	
2	0	0	0	0	485	628	
3	0	0	0	0	487	628	
4	0	0	0	0	488	627	
5	0	0	0	0	488	624	
6	0	0	0	0	489	628	
7	0	0	0	0	489	628	
8	0	0	0	0	491	629	
9	0	0	0	0	492	632	
10	0	0	0	0	492	628	
11	0	0	0	0	494	628	
12	0	0	0	0	495	628	
13	0	0	0	0	495	625	
14	0	0	0	0	496	628	
15	0	0	0	0	497	629	
0	0	0	0	0	497	629	
1	0	0	0	0	496	633	
2	0	0	0	0	496	630	
3	0	0	0	0	495	629	
4	0	0	0	0	495	630	
5	0	0	0	0	495	625	
6	0	0	0	0	495	630	
7	0	0	0	0	495	629	
8	0	0	0	0	495	631	
9	0	0	0	0	494	633	
10	0	0	0	0	495	630	
11	0	0	0	0	496	630	
12	0	0	0	0	497	631	
13	0	0	0	0	499	627	
14	0	0	0	0	499	631	
15	0	0	0	0	500	631	
0	0	0	0	0	502	631	
1	0	0	0	0	503	633	
2	0	0	0	0	504	630	
3	0	0	0	0	505	631	
4	0	0	0	0	506	630	
5	0	0	0	0	507	627	
6	0	0	0	0	506	631	
7	0	0	0	0	505	631	
8	0	0	0	0	505	631	
9	0	0	0	0	505	634	
10	0	0	0	0	504	631	
11	0	0	0	0	505	631	
12	0	0	0	0	504	630	
13	0	0	0	0	503	626	
14	0	0	0	0	502	630	
15	0	0	0	0	501	630	
0	0	0	0	0	500	630	
1	0	0	0	0	499	632	
2	0	0	0	0	499	629	
3	0	0	0	0	500	628	
4	0	0	0	0	500	628	
5	0	0	0	0	501	624	
6	0	0	0	0	501	627	
7	0	0	0	0	502	628	
8	0	0	0	0	501	628	
9	0	0	0	0	502	631	
10	0	0	0	0	503	627	
11	0	0	0	0	504	626	
12	0	0	0	0	504	626	
13	0	0	0	0	505	623	
14	0	0	0	0	505	625	
15	0	0	0	0	506	626	
0	0	0	0	0	506	625	
1	0	0	0	0	506	628	
2	0	0	0	0	505	624	
3	0	0	0	0	504	623	
4	0	0	0	0	503	623	
5	0	0	0	0	503	619	
6	0	0	0	0	501	622	
7	0	0	0	0	500	622	
8	0	0	0	0	499	622	
9	0	0	0	0	498	625	
10	0	0	0	0	497	621	
11	0	0	0	0	496	620	
12	0	0	0	0	496	620	
13	0	0	0	0	495	616	
14	0	0	0	0	494	619	
15	0	0	0	0	493	619	
0	0	0	0	0	492	619	
1	0	0	0	0	492	622	
2	0	0	0	0	491	618	
3	0	0	0	0	491	618	
4	0	0	0	0	491	617	
5	0	0	0	0	491	614	
6	0	0	0	0	491	618	
7	0	0	0	0	491	617	
8	0	0	0	0	491	617	
9	0	0	0	0	489	620	
10	0	0	0	0	489	617	
11	0	0	0	0	489	617	
12	0	0	0	0	488	617	
13	0	0	0	0	487	613	
14	0	0	0	0	486	617	
15	0	0	0	0	485	618	
0	0	0	0	0	483	618	
1	0	0	0	0	482	622	
2	0	0	0	0	481	619	
3	0	0	0	0	480	619	
4	0	0	0	0	479	619	
5	0	0	0	0	478	615	
6	0	0	0	0	477	620	
7	0	0	0	0	477	621	
8	0	0	0	0	477	621	
9	0	0	0	0	477	625	
10	0	0	0	0	476	621	
11	0	0	0	0	477	622	
12	0	0	0	0	478	622	
13	0	0	0	0	479	618	
14	0	0	0	0	479	622	
15	0	0	0	0	479	622	
0	0	0	0	0	479	623	
1	0	0	0	0	480	626	
2	0	0	0	0	481	622	
3	0	0	0	0	482	622	
4	0	0	0	0	481	622	
5	0	0	0	0	481	617	
6	0	0	0	0	481	621	
7	0	0	0	0	480	621	
8	0	0	0	0	480	622	
9	0	0	0	0	479	625	
10	0	0	0	0	479	621	
11	0	0	0	0	478	622	
12	0	0	0	0	476	621	
13	0	0	0	0	477	617	
14	0	0	0	0	477	622	
15	0	0	0	0	478	621	
0	0	0	0	0	477	621	
1	0	0	0	0	476	624	
2	0	0	0	0	476	622	
3	0	0	0	0	476	622	
4	0	0	0	0	475	622	
5	0	0	0	0	474	617	
6	0	0	0	0	473	621	
7	0	0	0	0	472	622	
8	0	0	0	0	472	622	
9	0	0	0	0	472	625	
10	0	0	0	0	472	622	
11	0	0	0	0	473	622	
12	0	0	0	0	474	622	
13	0	0	0	0	475	618	
14	0	0	0	0	476	622	
15	0	0	0	0	476	622	
0	0	0	0	0	476	623	
1	0	0	0	0	477	626	
2	0	0	0	0	477	623	
3	0	0	0	0	477	623	
4	0	0	0	0	477	622	
5	0	0	0	0	477	618	
6	0	0	0	0	477	623	
7	0	0	0	0	477	622	
8	0	0	0	0	477	622	
9	0	0	0	0	477	626	
10	0	0	0	0	477	623	
11	0	0	0	0	477	623	
12	0	0	0	0	477	622	
13	0	0	0	0	477	618	
14	0	0	0	0	478	623	
15	0	0	0	0	478	622	
0	0	0	0	0	479	623	
1	0	0	0	0	478	627	
2	0	0	0	0	480	624	
3	0	0	0	0	480	624	
4	0	0	0	0	481	624	
5	0	0	0	0	481	620	
6	0	0	0	0	481	624	
7	0	0	0	0	481	624	
8	0	0	0	0	481	624	
9	0	0	0	0	481	628	
10	0	0	0	0	481	625	
11	0	0	0	0	481	624	
12	0	0	0	0	480	624	
13	0	0	0	0	479	620	
14	0	0	0	0	478	624	
15	0	0	0	0	478	624	
0	0	0	0	0	477	625	
1	0	0	0	0	478	628	
2	0	0	0	0	477	624	
3	0	0	0	0	476	625	
4	0	0	0	0	476	625	
5	0	0	0	0	476	621	
6	0	0	0	0	476	625	
7	0	0	0	0	476	626	
8	0	0	0	0	476	625	
9	0	0	0	0	476	629	
10	0	0	0	0	476	625	
11	0	0	0	0	476	625	
12	0	0	0	0	476	625	
13	0	0	0	0	477	622	
14	0	0	0	0	478	625	
15	0	0	0	0	478	626	
0	0	0	0	0	479	625	
1	0	0	0	0	480	629	
2	0	0	0	0	480	625	
3	0	0	0	0	480	626	
4	0	0	0	0	480	625	
5	0	0	0	0	480	621	
6	0	0	0	0	479	625	
7	0	0	0	0	478	625	
8	0	0	0	0	478	625	
9	0	0	0	0	478	628	
10	0	0	0	0	479	625	
11	0	0	0	0	478	625	
12	0	0	0	0	479	625	
13	0	0	0	0	479	621	
14	0	0	0	0	479	625	
15	0	0	0	0	478	624	
0	0	0	0	0	479	625	
1	0	0	0	0	479	628	
2	0	0	0	0	480	625	
3	0	0	0	0	480	625	
4	0	0	0	0	481	625	
5	0	0	0	0	482	621	
6	0	0	0	0	483	625	
7	0	0	0	0	484	625	
8	0	0	0	0	484	626	
9	0	0	0	0	485	629	
10	0	0	0	0	486	625	
11	0	0	0	0	486	625	
12	0	0	0	0	486	626	
13	0	0	0	0	485	622	
14	0	0	0	0	485	626	
15	0	0	0	0	485	626	
0	0	0	0	0	486	625	
1	0	0	0	0	487	630	
2	0	0	0	0	487	626	
3	0	0	0	0	486	626	
4	0	0	0	0	487	626	
5	0	0	0	0	487	622	
6	0	0	0	0	487	626	
7	0	0	0	0	487	625	
8	0	0	0	0	488	626	
9	0	0	0	0	489	629	
10	0	0	0	0	490	625	
11	0	0	0	0	490	625	
12	0	0	0	0	490	625	
13	0	0	0	0	489	621	
14	0	0	0	0	489	625	
15	0	0	0	0	490	624	
0	0	0	0	0	490	625	
1	0	0	0	0	489	629	
2	0	0	0	0	488	625	
3	0	0	0	0	489	625	
4	0	0	0	0	489	625	
5	0	0	0	0	489	622	
6	0	0	0	0	489	626	
7	0	0	0	0	489	626	
8	0	0	0	0	488	626	
9	0	0	0	0	488	629	
10	0	0	0	0	488	626	
11	0	0	0	0	488	626	
12	0	0	0	0	487	626	
13	0	0	0	0	487	622	
14	0	0	0	0	487	625	
15	0	0	0	0	489	626	
0	0	0	0	0	489	626	
1	0	0	0	0	488	630	
2	0	0	0	0	489	625	
3	0	0	0	0	489	625	
4	0	0	0	0	489	626	
5	0	0	0	0	488	622	
6	0	0	0	0	488	625	
7	0	0	0	0	488	625	
8	0	0	0	0	490	626	
9	0	0	0	0	491	629	
10	0	0	0	0	492	625	
11	0	0	0	0	493	625	
12	0	0	0	0	494	626	
13	0	0	0	0	495	623	
14	0	0	0	0	495	626	
15	0	0	0	0	495	627	
0	0	0	0	0	494	627	
1	0	0	0	0	494	630	
2	0	0	0	0	494	627	
3	0	0	0	0	494	627	
4	0	0	0	0	494	627	
5	0	0	0	0	494	623	
6	0	0	0	0	494	627	
7	0	0	0	0	494	627	
8	0	0	0	0	494	627	
9	0	0	0	0	494	630	
10	0	0	0	0	494	626	
11	0	0	0	0	494	626	
12	0	0	0	0	493	626	
13	0	0	0	0	492	623	
14	0	0	0	0	492	626	
15	0	0	0	0	492	625	
0	0	0	0	0	492	626	
1	0	0	0	0	492	629	
2	0	0	0	0	492	625	
3	0	0	0	0	492	625	
4	0	0	0	0	492	624	
5	0	0	0	0	491	621	
6	0	0	0	0	491	624	
7	0	0	0	0	492	624	
8	0	0	0	0	494	624	
9	0	0	0	0	495	627	
10	0	0	0	0	495	623	
11	0	0	0	0	495	623	
12	0	0	0	0	495	623	
13	0	0	0	0	494	619	
14	0	0	0	0	495	622	
15	0	0	0	0	495	623	
0	0	0	0	0	495	622	
1	0	0	0	0	495	626	
2	0	0	0	0	495	622	
3	0	0	0	0	495	622	
4	0	0	0	0	495	622	
5	0	0	0	0	495	618	
6	0	0	0	0	494	622	
7	0	0	0	0	494	622	
8	0	0	0	0	494	623	
9	0	0	0	0	495	625	
10	0	0	0	0	496	621	
11	0	0	0	0	496	622	
12	0	0	0	0	496	621	
13	0	0	0	0	496	617	
14	0	0	0	0	496	621	
15	0	0	0	0	496	621	
0	0	0	0	0	496	621	
1	0	0	0	0	497	624	
2	0	0	0	0	497	620	
3	0	0	0	0	498	622	
4	0	0	0	0	497	621	
5	0	0	0	0	498	618	
6	0	0	0	0	499	621	
7	0	0	0	0	498	621	
8	0	0	0	0	498	622	
9	0	0	0	0	498	625	
10	0	0	0	0	498	622	
11	0	0	0	0	499	622	
12	0	0	0	0	500	622	
13	0	0	0	0	500	618	
14	0	0	0	0	500	622	
15	0	0	0	0	500	623	
0	0	0	0	0	501	623	
1	0	0	0	0	502	626	
2	0	0	0	0	501	623	
3	0	0	0	0	500	623	
4	0	0	0	0	499	623	
5	0	0	0	0	499	620	
6	0	0	0	0	499	624	
7	0	0	0	0	499	624	
8	0	0	0	0	500	624	
9	0	0	0	0	501	627	
10	0	0	0	0	501	624	
11	0	0	0	0	501	624	
12	0	0	0	0	501	623	
13	0	0	0	0	502	620	
14	0	0	0	0	503	624	
15	0	0	0	0	503	624	
0	0	0	0	0	504	624	
1	0	0	0	0	505	627	
2	0	0	0	0	505	624	
3	0	0	0	0	506	624	
4	0	0	0	0	505	624	
5	0	0	0	0	505	621	
6	0	0	0	0	505	624	
7	0	0	0	0	506	625	
8	0	0	0	0	507	625	
9	0	0	0	0	508	629	
10	0	0	0	0	508	625	
11	0	0	0	0	508	625	
12	0	0	0	0	509	625	
13	0	0	0	0	510	622	
14	0	0	0	0	511	626	
15	0	0	0	0	511	627	
0	0	0	0	0	511	626	
1	0	0	0	0	511	630	
2	0	0	0	0	511	627	
3	0	0	0	0	510	626	
4	0	0	0	0	510	626	
5	0	0	0	0	509	623	
6	0	0	0	0	509	627	
7	0	0	0	0	510	628	
8	0	0	0	0	510	628	
9	0	0	0	0	509	631	
10	0	0	0	0	510	627	
11	0	0	0	0	510	627	
12	0	0	0	0	510	628	
13	0	0	0	0	511	624	
14	0	0	0	0	511	627	
15	0	0	0	0	510	627	
0	0	0	0	0	510	627	
1	0	0	0	0	510	631	
2	0	0	0	0	510	627	
3	0	0	0	0	510	627	
4	0	0	0	0	509	627	
5	0	0	0	0	509	623	
6	0	0	0	0	510	627	
7	0	0	0	0	510	626	
8	0	0	0	0	510	627	
9	0	0	0	0	510	630	
10	0	0	0	0	511	626	
11	0	0	0	0	511	627	
12	0	0	0	0	511	626	
13	0	0	0	0	511	623	
14	0	0	0	0	511	625	
15	0	0	0	0	511	625	
0	0	0	0	0	510	625	
1	0	0	0	0	510	628	
2	0	0	0	0	511	625	
3	0	0	0	0	511	625	
4	0	0	0	0	510	624	
5	0	0	0	0	511	621	
6	0	0	0	0	511	624	
7	0	0	0	0	511	624	
8	0	0	0	0	511	625	
9	0	0	0	0	511	627	
10	0	0	0	0	512	624	
11	0	0	0	0	512	623	
12	0	0	0	0	513	623	
13	0	0	0	0	513	619	
14	0	0	0	0	512	623	
15	0	0	0	0	512	623	
0	0	0	0	0	513	623	
1	0	0	0	0	513	626	
2	0	0	0	0	515	623	
3	0	0	0	0	515	622	
4	0	0	0	0	516	622	
5	0	0	0	0	516	619	
6	0	0	0	0	516	623	
7	0	0	0	0	516	622	
8	0	0	0	0	516	623	
9	0	0	0	0	516	626	
10	0	0	0	0	516	622	
11	0	0	0	0	516	622	
12	0	0	0	0	515	622	
13	0	0	0	0	515	618	
14	0	0	0	0	514	622	
15	0	0	0	0	513	622	
0	0	0	0	0	513	622	
1	0	0	0	0	512	625	
2	0	0	0	0	512	621	
3	0	0	0	0	512	622	
4	0	0	0	0	512	622	
5	0	0	0	0	512	618	
6	0	0	0	0	512	622	
7	0	0	0	0	512	622	
8	0	0	0	0	512	622	
9	0	0	0	0	512	625	
10	0	0	0	0	512	622	
11	0	0	0	0	511	622	
12	0	0	0	0	510	622	
13	0	0	0	0	510	618	
14	0	0	0	0	511	622	
15	0	0	0	0	511	622	
0	0	0	0	0	511	622	
1	0	0	0	0	511	625	
2	0	0	0	0	511	623	
3	0	0	0	0	511	623	
4	0	0	0	0	512	622	
5	0	0	0	0	513	619	
6	0	0	0	0	513	622	
7	0	0	0	0	514	623	
8	0	0	0	0	513	623	
9	0	0	0	0	514	627	
10	0	0	0	0	514	623	
11	0	0	0	0	514	623	
12	0	0	0	0	515	623	
13	0	0	0	0	515	619	
14	0	0	0	0	515	624	
15	0	0	0	0	515	624	
0	0	0	0	0	515	624	
1	0	0	0	0	515	628	
2	0	0	0	0	515	625	
3	0	0	0	0	515	624	
4	0	0	0	0	515	625	
5	0	0	0	0	514	620	
6	0	0	0	0	512	625	
7	0	0	0	0	512	625	
8	0	0	0	0	511	625	
9	0	0	0	0	511	629	
10	0	0	0	0	511	625	
11	0	0	0	0	511	626	
12	0	0	0	0	509	626	
13	0	0	0	0	509	622	
14	0	0	0	0	509	626	
15	0	0	0	0	508	626	
0	0	0	0	0	508	627	
1	0	0	0	0	508	630	
2	0	0	0	0	508	627	
3	0	0	0	0	508	627	
4	0	0	0	0	509	627	
5	0	0	0	0	510	623	
6	0	0	0	0	510	627	
7	0	0	0	0	511	627	
8	0	0	0	0	513	627	
9	0	0	0	0	514	630	
10	0	0	0	0	515	627	
11	0	0	0	0	516	626	
12	0	0	0	0	516	626	
13	0	0	0	0	517	622	
14	0	0	0	0	517	626	
15	0	0	0	0	517	626	
0	0	0	0	0	518	627	
1	0	0	0	0	519	630	
2	0	0	0	0	521	627	
3	0	0	0	0	523	627	
4	0	0	0	0	524	626	
5	0	0	0	0	523	623	
6	0	0	0	0	524	626	
7	0	0	0	0	524	626	
8	0	0	0	0	524	627	
9	0	0	0	0	525	630	
10	0	0	0	0	524	626	
11	0	0	0	0	523	626	
12	0	0	0	0	524	626	
13	0	0	0	0	524	622	
14	0	0	0	0	524	627	
15	0	0	0	0	524	626	
0	0	0	0	0	524	626	
1	0	0	0	0	522	630	
2	0	0	0	0	522	626	
3	0	0	0	0	521	626	
4	0	0	0	0	520	626	
5	0	0	0	0	519	622	
6	0	0	0	0	520	626	
7	0	0	0	0	520	626	
8	0	0	0	0	519	626	
9	0	0	0	0	519	629	
10	0	0	0	0	519	625	
11	0	0	0	0	519	625	
12	0	0	0	0	520	626	
13	0	0	0	0	520	622	
14	0	0	0	0	520	626	
15	0	0	0	0	520	625	
0	0	0	0	0	520	625	
1	0	0	0	0	520	630	
2	0	0	0	0	520	626	
3	0	0	0	0	521	626	
4	0	0	0	0	521	625	
5	0	0	0	0	520	622	
6	0	0	0	0	520	626	
7	0	0	0	0	520	626	
8	0	0	0	0	519	626	
9	0	0	0	0	519	630	
10	0	0	0	0	519	627	
11	0	0	0	0	520	626	
12	0	0	0	0	520	626	
13	0	0	0	0	520	622	
14	0	0	0	0	520	627	
15	0	0	0	0	520	626	
0	0	0	0	0	519	626	
1	0	0	0	0	519	630	
2	0	0	0	0	518	625	
3	0	0	0	0	519	626	
4	0	0	0	0	518	625	
5	0	0	0	0	518	622	
6	0	0	0	0	518	626	
7	0	0	0	0	518	626	
8	0	0	0	0	518	626	
9	0	0	0	0	518	629	
10	0	0	0	0	518	627	
11	0	0	0	0	518	627	
12	0	0	0	0	518	626	
13	0	0	0	0	518	621	
14	0	0	0	0	517	626	
15	0	0	0	0	518	626	
0	0	0	0	0	518	626	
1	0	0	0	0	517	630	
2	0	0	0	0	517	626	
3	0	0	0	0	517	626	
4	0	0	0	0	516	626	
5	0	0	0	0	517	622	
6	0	0	0	0	517	625	
7	0	0	0	0	516	626	
8	0	0	0	0	516	627	
9	0	0	0	0	515	629	
10	0	0	0	0	515	626	
11	0	0	0	0	515	625	
12	0	0	0	0	515	625	
13	0	0	0	0	516	622	
14	0	0	0	0	515	625	
15	0	0	0	0	515	625	
0	0	0	0	0	515	626	
1	0	0	0	0	515	629	
2	0	0	0	0	515	626	
3	0	0	0	0	513	625	
4	0	0	0	0	512	625	
5	0	0	0	0	512	622	
6	0	0	0	0	509	625	
7	0	0	0	0	507	625	
8	0	0	0	0	504	625	
9	0	0	0	0	501	628	
10	0	0	0	0	499	625	
11	0	0	0	0	495	625	
12	0	0	0	0	489	625	
13	0	0	0	0	483	621	
14	0	0	0	0	477	624	
15	0	0	0	0	472	625	
0	0	0	0	0	467	625	
1	0	0	0	0	463	628	
2	0	0	0	0	460	625	
3	0	0	0	0	459	625	
4	0	0	0	0	461	625	
5	0	0	0	0	463	622	
6	0	0	0	0	466	626	
7	0	0	0	0	472	625	
8	0	0	0	0	477	626	
9	0	0	0	0	483	628	
10	0	0	0	0	491	625	
11	0	0	0	0	501	625	
12	0	0	0	0	515	625	
13	0	0	0	0	533	622	
14	0	0	0	0	551	626	
15	0	0	0	0	572	626	
0	0	0	0	0	591	626	
1	0	0	0	0	610	629	
2	0	0	0	0	630	625	
3	0	0	0	0	648	626	
4	0	0	0	0	667	625	
5	0	0	0	0	686	622	
6	0	0	0	0	704	625	
7	0	0	0	0	723	625	
8	0	0	0	0	743	626	
9	0	0	0	0	762	629	
10	0	0	0	0	780	626	
11	0	0	0	0	793	625	
12	0	0	0	0	801	626	
13	0	0	0	0	801	622	
14	0	0	0	0	796	625	
15	0	0	0	0	785	625	
0	0	0	0	0	770	625	
1	0	0	0	0	753	629	
2	0	0	0	0	735	625	
3	0	0	0	0	715	625	
4	0	0	0	0	693	626	
5	0	0	0	0	671	621	
6	0	0	0	0	652	625	
7	0	0	0	0	635	625	
8	0	0	0	0	620	625	
9	0	0	0	0	608	629	
10	0	0	0	0	598	625	
11	0	0	0	0	587	625	
12	0	0	0	0	577	625	
13	0	0	0	0	568	621	
14	0	0	0	0	561	625	
15	0	0	0	0	556	624	
0	0	0	0	0	549	625	
1	0	0	0	0	542	628	
2	0	0	0	0	536	625	
3	0	0	0	0	530	625	
4	0	0	0	0	523	625	
5	0	0	0	0	515	622	
6	0	0	0	0	509	626	
7	0	0	0	0	504	626	
8	0	0	0	0	500	626	
9	0	0	0	0	497	628	
10	0	0	0	0	495	626	
11	0	0	0	0	492	625	
12	0	0	0	0	489	625	
13	0	0	0	0	486	621	
14	0	0	0	0	483	625	
15	0	0	0	0	481	625	
0	0	0	0	0	480	625	
1	0	0	0	0	478	628	
2	0	0	0	0	476	625	
3	0	0	0	0	474	625	
4	0	0	0	0	472	624	
5	0	0	0	0	471	620	
6	0	0	0	0	470	625	
7	0	0	0	0	470	624	
8	0	0	0	0	470	624	
9	0	0	0	0	468	627	
10	0	0	0	0	468	624	
11	0	0	0	0	468	624	
12	0	0	0	0	469	624	
13	0	0	0	0	470	620	
14	0	0	0	0	471	625	
15	0	0	0	0	471	624	
0	0	0	0	0	472	624	
1	0	0	0	0	473	627	
2	0	0	0	0	473	624	
3	0	0	0	0	473	624	
4	0	0	0	0	473	624	
5	0	0	0	0	473	620	
6	0	0	0	0	473	623	
7	0	0	0	0	473	623	
8	0	0	0	0	475	623	
9	0	0	0	0	476	627	
10	0	0	0	0	476	623	
11	0	0	0	0	477	624	
12	0	0	0	0	477	622	
13	0	0	0	0	477	619	
14	0	0	0	0	478	622	
15	0	0	0	0	479	623	
0	0	0	0	0	480	622	
1	0	0	0	0	482	625	
2	0	0	0	0	483	622	
3	0	0	0	0	482	622	
4	0	0	0	0	481	621	
5	0	0	0	0	482	619	
6	0	0	0	0	484	622	
7	0	0	0	0	484	622	
8	0	0	0	0	484	623	
9	0	0	0	0	484	625	
10	0	0	0	0	484	622	
11	0	0	0	0	484	622	
12	0	0	0	0	486	623	
13	0	0	0	0	487	618	
14	0	0	0	0	487	622	
15	0	0	0	0	487	622	
0	0	0	0	0	487	623	
1	0	0	0	0	488	627	
2	0	0	0	0	487	623	
3	0	0	0	0	487	623	
4	0	0	0	0	487	623	
5	0	0	0	0	487	618	
6	0	0	0	0	487	623	
7	0	0	0	0	487	623	
8	0	0	0	0	488	623	
9	0	0	0	0	488	627	
10	0	0	0	0	489	624	
11	0	0	0	0	491	623	
12	0	0	0	0	492	624	
13	0	0	0	0	493	620	
14	0	0	0	0	493	623	
15	0	0	0	0	494	624	
0	0	0	0	0	495	624	
1	0	0	0	0	495	627	
2	0	0	0	0	496	623	
3	0	0	0	0	496	624	
4	0	0	0	0	496	623	
5	0	0	0	0	497	620	
6	0	0	0	0	498	624	
7	0	0	0	0	499	624	
8	0	0	0	0	499	624	
9	0	0	0	0	499	628	
10	0	0	0	0	500	625	
11	0	0	0	0	500	625	
12	0	0	0	0	500	624	
13	0	0	0	0	501	620	
14	0	0	0	0	500	624	
15	0	0	0	0	501	624	
0	0	0	0	0	502	624	
1	0	0	0	0	503	627	
2	0	0	0	0	503	624	
3	0	0	0	0	504	624	
4	0	0	0	0	504	625	
5	0	0	0	0	505	620	
6	0	0	0	0	506	624	
7	0	0	0	0	507	624	
8	0	0	0	0	507	624	
9	0	0	0	0	507	628	
10	0	0	0	0	507	624	
11	0	0	0	0	507	624	
12	0	0	0	0	507	624	
13	0	0	0	0	508	620	
14	0	0	0	0	508	625	
15	0	0	0	0	508	624	
0	0	0	0	0	509	625	
1	0	0	0	0	510	627	
2	0	0	0	0	511	624	
3	0	0	0	0	511	624	
4	0	0	0	0	512	624	
5	0	0	0	0	513	620	
6	0	0	0	0	514	624	
7	0	0	0	0	515	623	
8	0	0	0	0	516	624	
9	0	0	0	0	517	627	
10	0	0	0	0	517	624	
11	0	0	0	0	518	624	
12	0	0	0	0	519	623	
13	0	0	0	0	519	620	
14	0	0	0	0	520	623	
15	0	0	0	0	520	623	
0	0	0	0	0	520	623	
1	0	0	0	0	519	626	
2	0	0	0	0	519	623	
3	0	0	0	0	519	622	
4	0	0	0	0	519	622	
5	0	0	0	0	520	618	
6	0	0	0	0	521	622	
7	0	0	0	0	522	621	
8	0	0	0	0	522	621	
9	0	0	0	0	523	625	
10	0	0	0	0	523	621	
11	0	0	0	0	524	621	
12	0	0	0	0	524	622	
13	0	0	0	0	525	617	
14	0	0	0	0	525	621	
15	0	0	0	0	524	622	
0	0	0	0	0	525	621	
1	0	0	0	0	525	625	
2	0	0	0	0	525	622	
3	0	0	0	0	525	621	
4	0	0	0	0	526	622	
5	0	0	0	0	526	618	
6	0	0	0	0	526	622	
7	0	0	0	0	527	622	
8	0	0	0	0	527	622	
9	0	0	0	0	527	626	
10	0	0	0	0	528	622	
11	0	0	0	0	529	623	
12	0	0	0	0	529	624	
13	0	0	0	0	530	620	
14	0	0	0	0	531	624	
15	0	0	0	0	532	624	
0	0	0	0	0	532	624	
1	0	0	0	0	533	627	
2	0	0	0	0	533	623	
3	0	0	0	0	534	624	
4	0	0	0	0	536	623	
5	0	0	0	0	537	620	
6	0	0	0	0	539	624	
7	0	0	0	0	540	624	
8	0	0	0	0	540	624	
9	0	0	0	0	541	627	
10	0	0	0	0	540	624	
11	0	0	0	0	540	624	
12	0	0	0	0	541	624	
13	0	0	0	0	541	620	
14	0	0	0	0	542	624	
15	0	0	0	0	542	624	
0	0	0	0	0	542	624	
1	0	0	0	0	543	628	
2	0	0	0	0	543	624	
3	0	0	0	0	543	623	
4	0	0	0	0	544	624	
5	0	0	0	0	544	620	
6	0	0	0	0	543	624	
7	0	0	0	0	543	624	
8	0	0	0	0	544	624	
9	0	0	0	0	544	627	
10	0	0	0	0	544	624	
11	0	0	0	0	544	624	
12	0	0	0	0	545	624	
13	0	0	0	0	545	620	
14	0	0	0	0	546	625	
15	0	0	0	0	547	625	
0	0	0	0	0	547	625	
1	0	0	0	0	548	628	
2	0	0	0	0	548	625	
3	0	0	0	0	548	625	
4	0	0	0	0	548	624	
5	0	0	0	0	548	621	
6	0	0	0	0	548	626	
7	0	0	0	0	547	626	
8	0	0	0	0	548	625	
9	0	0	0	0	547	628	
10	0	0	0	0	547	625	
11	0	0	0	0	547	625	
12	0	0	0	0	547	625	
13	0	0	0	0	547	622	
14	0	0	0	0	547	625	
15	0	0	0	0	547	625	
0	0	0	0	0	547	626	
1	0	0	0	0	546	629	
2	0	0	0	0	546	626	
3	0	0	0	0	545	626	
4	0	0	0	0	544	625	
5	0	0	0	0	544	622	
6	0	0	0	0	543	625	
7	0	0	0	0	542	626	
8	0	0	0	0	540	626	
9	0	0	0	0	539	629	
10	0	0	0	0	538	625	
11	0	0	0	0	537	625	
12	0	0	0	0	538	626	
13	0	0	0	0	537	622	
14	0	0	0	0	537	625	
15	0	0	0	0	537	625	
0	0	0	0	0	537	625	
1	0	0	0	0	536	628	
2	0	0	0	0	536	625	
3	0	0	0	0	536	625	
4	0	0	0	0	536	625	
5	0	0	0	0	536	621	
6	0	0	0	0	535	625	
7	0	0	0	0	535	625	
8	0	0	0	0	535	625	
9	0	0	0	0	534	628	
10	0	0	0	0	533	625	
11	0	0	0	0	533	625	
12	0	0	0	0	532	625	
13	0	0	0	0	532	622	
14	0	0	0	0	532	626	
15	0	0	0	0	531	626	
0	0	0	0	0	531	626	
1	0	0	0	0	530	628	
2	0	0	0	0	530	625	
3	0	0	0	0	531	625	
4	0	0	0	0	531	625	
5	0	0	0	0	530	622	
6	0	0	0	0	531	625	
7	0	0	0	0	532	625	
8	0	0	0	0	532	626	
9	0	0	0	0	533	629	
10	0	0	0	0	534	625	
11	0	0	0	0	534	625	
12	0	0	0	0	534	625	
13	0	0	0	0	533	622	
14	0	0	0	0	532	626	
15	0	0	0	0	532	626	
0	0	0	0	0	532	627	
1	0	0	0	0	532	630	
2	0	0	0	0	533	626	
3	0	0	0	0	532	626	
4	0	0	0	0	531	626	
5	0	0	0	0	531	623	
6	0	0	0	0	530	626	
7	0	0	0	0	530	627	
8	0	0	0	0	530	626	
9	0	0	0	0	529	631	
10	0	0	0	0	529	627	
11	0	0	0	0	529	627	
12	0	0	0	0	529	627	
13	0	0	0	0	529	623	
14	0	0	0	0	529	627	
15	0	0	0	0	529	626	
0	0	0	0	0	529	627	
1	0	0	0	0	529	631	
2	0	0	0	0	529	627	
3	0	0	0	0	531	627	
4	0	0	0	0	531	627	
5	0	0	0	0	531	623	
6	0	0	0	0	531	627	
7	0	0	0	0	532	627	
8	0	0	0	0	532	627	
9	0	0	0	0	532	630	
10	0	0	0	0	532	627	
11	0	0	0	0	533	627	
12	0	0	0	0	533	627	
13	0	0	0	0	533	623	
14	0	0	0	0	532	627	
15	0	0	0	0	533	627	
0	0	0	0	0	534	627	
1	0	0	0	0	534	630	
2	0	0	0	0	534	627	
3	0	0	0	0	534	627	
