# OpenSignals Text File Format. Version 1
# {"98:D3:91:FD:59:64": {"position": 0, "device": "bitalino_rev", "device name": "98:D3:91:FD:59:64", "device connection": "BTH98:D3:91:FD:59:64", "sampling rate": 1000, "resolution": [4, 1, 1, 1, 1, 10, 10], "firmware version": 1281, "comments": "", "keywords": "", "mode": 0, "sync interval": 2, "date": "2021-9-15", "time": "11:2:21.855", "channels": [2, 5], "sensor": ["RAW", "RAW"], "label": ["A2", "A5"], "column": ["nSeq", "I1", "I2", "O1", "O2", "A2", "A5"], "special": [{}, {}], "digital IO": [0, 0, 1, 1], "convertedValues": 0}}
# EndOfHeader
0	0	0	0	0	511	625	
1	0	0	0	0	511	625	
2	0	0	0	0	509	621	
3	0	0	0	0	508	625	
4	0	0	0	0	507	625	
5	0	0	0	0	507	625	
6	0	0	0	0	508	629	
7	0	0	0	0	508	625	
8	0	0	0	0	508	625	
9	0	0	0	0	508	625	
10	0	0	0	0	508	622	
11	0	0	0	0	507	625	
12	0	0	0	0	506	626	
13	0	0	0	0	507	625	
14	0	0	0	0	509	630	
15	0	0	0	0	511	626	
0	0	0	0	0	513	626	
1	0	0	0	0	514	626	
2	0	0	0	0	514	623	
3	0	0	0	0	514	627	
4	0	0	0	0	515	627	
5	0	0	0	0	515	627	
6	0	0	0	0	515	630	
7	0	0	0	0	515	626	
8	0	0	0	0	515	627	
9	0	0	0	0	515	627	
10	0	0	0	0	515	622	
11	0	0	0	0	516	626	
12	0	0	0	0	516	626	
13	0	0	0	0	516	627	
14	0	0	0	0	516	630	
15	0	0	0	0	516	627	
0	0	0	0	0	517	626	
1	0	0	0	0	517	627	
2	0	0	0	0	517	623	
3	0	0	0	0	516	627	
4	0	0	0	0	516	627	
5	0	0	0	0	517	627	
6	0	0	0	0	517	630	
7	0	0	0	0	516	627	
8	0	0	0	0	516	627	
9	0	0	0	0	516	626	
10	0	0	0	0	516	623	
11	0	0	0	0	517	626	
12	0	0	0	0	519	626	
13	0	0	0	0	523	627	
14	0	0	0	0	527	630	
15	0	0	0	0	534	626	
0	0	0	0	0	540	625	
1	0	0	0	0	547	626	
2	0	0	0	0	554	622	
3	0	0	0	0	562	625	
4	0	0	0	0	570	625	
5	0	0	0	0	577	625	
6	0	0	0	0	586	629	
7	0	0	0	0	594	625	
8	0	0	0	0	596	625	
9	0	0	0	0	598	625	
10	0	0	0	0	598	621	
11	0	0	0	0	598	625	
12	0	0	0	0	599	624	
13	0	0	0	0	598	624	
14	0	0	0	0	592	628	
15	0	0	0	0	581	624	
0	0	0	0	0	568	624	
1	0	0	0	0	554	624	
2	0	0	0	0	537	620	
3	0	0	0	0	517	624	
4	0	0	0	0	492	624	
5	0	0	0	0	461	624	
6	0	0	0	0	424	628	
7	0	0	0	0	382	624	
8	0	0	0	0	335	623	
9	0	0	0	0	286	623	
10	0	0	0	0	236	619	
11	0	0	0	0	187	624	
12	0	0	0	0	145	623	
13	0	0	0	0	112	624	
14	0	0	0	0	85	627	
15	0	0	0	0	70	623	
0	0	0	0	0	62	623	
1	0	0	0	0	66	623	
2	0	0	0	0	80	619	
3	0	0	0	0	102	623	
4	0	0	0	0	131	624	
5	0	0	0	0	171	624	
6	0	0	0	0	219	627	
7	0	0	0	0	263	624	
8	0	0	0	0	304	623	
9	0	0	0	0	337	623	
10	0	0	0	0	361	620	
11	0	0	0	0	376	623	
12	0	0	0	0	385	623	
13	0	0	0	0	389	623	
14	0	0	0	0	391	627	
15	0	0	0	0	391	624	
0	0	0	0	0	391	623	
1	0	0	0	0	393	623	
2	0	0	0	0	398	619	
3	0	0	0	0	405	623	
4	0	0	0	0	414	624	
5	0	0	0	0	423	624	
6	0	0	0	0	434	627	
7	0	0	0	0	445	623	
8	0	0	0	0	456	623	
9	0	0	0	0	467	623	
10	0	0	0	0	477	619	
11	0	0	0	0	487	623	
12	0	0	0	0	496	623	
13	0	0	0	0	505	622	
14	0	0	0	0	515	626	
15	0	0	0	0	526	622	
0	0	0	0	0	536	623	
1	0	0	0	0	545	622	
2	0	0	0	0	554	618	
3	0	0	0	0	562	621	
4	0	0	0	0	569	622	
5	0	0	0	0	576	623	
6	0	0	0	0	581	626	
7	0	0	0	0	586	623	
8	0	0	0	0	589	623	
9	0	0	0	0	592	624	
10	0	0	0	0	595	620	
11	0	0	0	0	599	624	
12	0	0	0	0	601	624	
13	0	0	0	0	604	624	
14	0	0	0	0	605	627	
15	0	0	0	0	607	624	
0	0	0	0	0	607	624	
1	0	0	0	0	608	624	
2	0	0	0	0	609	620	
3	0	0	0	0	609	624	
4	0	0	0	0	609	624	
5	0	0	0	0	609	624	
6	0	0	0	0	609	627	
7	0	0	0	0	609	624	
8	0	0	0	0	608	624	
9	0	0	0	0	606	624	
10	0	0	0	0	606	620	
11	0	0	0	0	606	624	
12	0	0	0	0	606	624	
13	0	0	0	0	606	624	
14	0	0	0	0	606	627	
15	0	0	0	0	606	624	
0	0	0	0	0	605	624	
1	0	0	0	0	604	624	
2	0	0	0	0	604	621	
3	0	0	0	0	602	624	
4	0	0	0	0	600	624	
5	0	0	0	0	599	625	
6	0	0	0	0	597	628	
7	0	0	0	0	595	624	
8	0	0	0	0	594	624	
9	0	0	0	0	593	625	
10	0	0	0	0	592	621	
11	0	0	0	0	592	625	
12	0	0	0	0	591	625	
13	0	0	0	0	591	625	
14	0	0	0	0	593	628	
15	0	0	0	0	593	625	
0	0	0	0	0	592	625	
1	0	0	0	0	591	625	
2	0	0	0	0	590	620	
3	0	0	0	0	589	624	
4	0	0	0	0	588	624	
5	0	0	0	0	588	624	
6	0	0	0	0	585	628	
7	0	0	0	0	583	624	
8	0	0	0	0	581	624	
9	0	0	0	0	581	624	
10	0	0	0	0	582	620	
11	0	0	0	0	581	624	
12	0	0	0	0	581	624	
13	0	0	0	0	580	623	
14	0	0	0	0	580	627	
15	0	0	0	0	580	623	
0	0	0	0	0	579	623	
1	0	0	0	0	578	623	
2	0	0	0	0	578	620	
3	0	0	0	0	577	623	
4	0	0	0	0	575	623	
5	0	0	0	0	574	623	
6	0	0	0	0	572	626	
7	0	0	0	0	572	624	
8	0	0	0	0	571	623	
9	0	0	0	0	572	624	
10	0	0	0	0	572	620	
11	0	0	0	0	571	624	
12	0	0	0	0	570	624	
13	0	0	0	0	569	624	
14	0	0	0	0	568	627	
15	0	0	0	0	568	624	
0	0	0	0	0	568	624	
1	0	0	0	0	569	623	
2	0	0	0	0	568	620	
3	0	0	0	0	567	624	
4	0	0	0	0	565	624	
5	0	0	0	0	564	624	
6	0	0	0	0	563	627	
7	0	0	0	0	563	623	
8	0	0	0	0	562	624	
9	0	0	0	0	561	624	
10	0	0	0	0	560	620	
11	0	0	0	0	561	624	
12	0	0	0	0	561	624	
13	0	0	0	0	560	624	
14	0	0	0	0	560	627	
15	0	0	0	0	559	623	
0	0	0	0	0	559	624	
1	0	0	0	0	559	623	
2	0	0	0	0	559	619	
3	0	0	0	0	557	623	
4	0	0	0	0	556	623	
5	0	0	0	0	553	623	
6	0	0	0	0	552	626	
7	0	0	0	0	551	623	
8	0	0	0	0	550	623	
9	0	0	0	0	549	623	
10	0	0	0	0	547	619	
11	0	0	0	0	545	623	
12	0	0	0	0	544	623	
13	0	0	0	0	543	623	
14	0	0	0	0	541	627	
15	0	0	0	0	540	623	
0	0	0	0	0	539	623	
1	0	0	0	0	539	623	
2	0	0	0	0	539	619	
3	0	0	0	0	538	624	
4	0	0	0	0	536	623	
5	0	0	0	0	535	624	
6	0	0	0	0	532	627	
7	0	0	0	0	530	624	
8	0	0	0	0	529	624	
9	0	0	0	0	527	624	
10	0	0	0	0	526	620	
11	0	0	0	0	527	624	
12	0	0	0	0	528	624	
13	0	0	0	0	529	624	
14	0	0	0	0	529	628	
15	0	0	0	0	527	624	
0	0	0	0	0	526	624	
1	0	0	0	0	523	625	
2	0	0	0	0	520	621	
3	0	0	0	0	519	625	
4	0	0	0	0	518	624	
5	0	0	0	0	518	624	
6	0	0	0	0	516	628	
7	0	0	0	0	515	624	
8	0	0	0	0	515	624	
9	0	0	0	0	515	624	
10	0	0	0	0	515	620	
11	0	0	0	0	512	624	
12	0	0	0	0	510	624	
13	0	0	0	0	509	624	
14	0	0	0	0	509	627	
15	0	0	0	0	508	624	
0	0	0	0	0	509	624	
1	0	0	0	0	510	624	
2	0	0	0	0	509	620	
3	0	0	0	0	508	624	
4	0	0	0	0	508	624	
5	0	0	0	0	506	624	
6	0	0	0	0	505	627	
7	0	0	0	0	504	624	
8	0	0	0	0	504	624	
9	0	0	0	0	504	624	
10	0	0	0	0	503	620	
11	0	0	0	0	502	625	
12	0	0	0	0	501	625	
13	0	0	0	0	501	625	
14	0	0	0	0	502	628	
15	0	0	0	0	503	625	
0	0	0	0	0	504	626	
1	0	0	0	0	504	625	
2	0	0	0	0	505	622	
3	0	0	0	0	507	626	
4	0	0	0	0	508	626	
5	0	0	0	0	508	625	
6	0	0	0	0	509	629	
7	0	0	0	0	508	625	
8	0	0	0	0	507	625	
9	0	0	0	0	508	624	
10	0	0	0	0	510	620	
11	0	0	0	0	511	625	
12	0	0	0	0	513	625	
13	0	0	0	0	515	624	
14	0	0	0	0	516	627	
15	0	0	0	0	517	624	
0	0	0	0	0	517	624	
1	0	0	0	0	518	624	
2	0	0	0	0	519	620	
3	0	0	0	0	519	624	
4	0	0	0	0	519	624	
5	0	0	0	0	518	624	
6	0	0	0	0	519	627	
7	0	0	0	0	520	623	
8	0	0	0	0	521	623	
9	0	0	0	0	521	623	
10	0	0	0	0	520	619	
11	0	0	0	0	520	623	
12	0	0	0	0	520	623	
13	0	0	0	0	519	623	
14	0	0	0	0	519	627	
15	0	0	0	0	518	623	
0	0	0	0	0	516	623	
1	0	0	0	0	516	623	
2	0	0	0	0	516	619	
3	0	0	0	0	517	623	
4	0	0	0	0	519	623	
5	0	0	0	0	517	623	
6	0	0	0	0	515	627	
7	0	0	0	0	512	623	
8	0	0	0	0	508	623	
9	0	0	0	0	507	624	
10	0	0	0	0	508	619	
11	0	0	0	0	512	623	
12	0	0	0	0	514	623	
13	0	0	0	0	514	624	
14	0	0	0	0	512	627	
15	0	0	0	0	511	624	
0	0	0	0	0	510	624	
1	0	0	0	0	509	623	
2	0	0	0	0	509	620	
3	0	0	0	0	509	623	
4	0	0	0	0	511	624	
5	0	0	0	0	512	623	
6	0	0	0	0	512	627	
7	0	0	0	0	510	623	
8	0	0	0	0	508	623	
9	0	0	0	0	506	623	
10	0	0	0	0	504	619	
11	0	0	0	0	500	624	
12	0	0	0	0	497	623	
13	0	0	0	0	497	623	
14	0	0	0	0	498	627	
15	0	0	0	0	502	624	
0	0	0	0	0	504	623	
1	0	0	0	0	506	624	
2	0	0	0	0	506	620	
3	0	0	0	0	505	623	
4	0	0	0	0	506	624	
5	0	0	0	0	505	624	
6	0	0	0	0	505	627	
7	0	0	0	0	505	623	
8	0	0	0	0	505	623	
9	0	0	0	0	505	623	
10	0	0	0	0	505	620	
11	0	0	0	0	505	624	
12	0	0	0	0	504	623	
13	0	0	0	0	504	624	
14	0	0	0	0	503	627	
15	0	0	0	0	502	624	
0	0	0	0	0	500	623	
1	0	0	0	0	499	624	
2	0	0	0	0	498	620	
3	0	0	0	0	498	623	
4	0	0	0	0	500	623	
5	0	0	0	0	503	623	
6	0	0	0	0	503	626	
7	0	0	0	0	502	624	
8	0	0	0	0	497	623	
9	0	0	0	0	496	623	
10	0	0	0	0	496	620	
11	0	0	0	0	500	624	
12	0	0	0	0	503	623	
13	0	0	0	0	505	624	
14	0	0	0	0	504	627	
15	0	0	0	0	502	624	
0	0	0	0	0	502	624	
1	0	0	0	0	503	624	
2	0	0	0	0	507	620	
3	0	0	0	0	507	624	
4	0	0	0	0	507	624	
5	0	0	0	0	507	624	
6	0	0	0	0	508	627	
7	0	0	0	0	507	624	
8	0	0	0	0	506	624	
9	0	0	0	0	505	624	
10	0	0	0	0	502	621	
11	0	0	0	0	500	625	
12	0	0	0	0	499	625	
13	0	0	0	0	502	625	
14	0	0	0	0	505	628	
15	0	0	0	0	508	626	
0	0	0	0	0	509	626	
1	0	0	0	0	511	626	
2	0	0	0	0	512	624	
3	0	0	0	0	513	627	
4	0	0	0	0	515	628	
5	0	0	0	0	515	628	
6	0	0	0	0	515	632	
7	0	0	0	0	515	629	
8	0	0	0	0	515	630	
9	0	0	0	0	515	629	
10	0	0	0	0	515	626	
11	0	0	0	0	515	630	
12	0	0	0	0	513	630	
13	0	0	0	0	510	631	
14	0	0	0	0	507	634	
15	0	0	0	0	506	630	
0	0	0	0	0	508	631	
1	0	0	0	0	508	631	
2	0	0	0	0	508	627	
3	0	0	0	0	509	632	
4	0	0	0	0	507	631	
5	0	0	0	0	505	631	
6	0	0	0	0	504	635	
7	0	0	0	0	503	632	
8	0	0	0	0	504	632	
9	0	0	0	0	502	632	
10	0	0	0	0	500	628	
11	0	0	0	0	500	632	
12	0	0	0	0	500	632	
13	0	0	0	0	500	632	
14	0	0	0	0	500	636	
15	0	0	0	0	502	632	
0	0	0	0	0	503	632	
1	0	0	0	0	505	632	
2	0	0	0	0	507	628	
3	0	0	0	0	508	632	
4	0	0	0	0	509	632	
5	0	0	0	0	509	632	
6	0	0	0	0	510	636	
7	0	0	0	0	509	632	
8	0	0	0	0	509	633	
9	0	0	0	0	508	633	
10	0	0	0	0	508	629	
11	0	0	0	0	507	633	
12	0	0	0	0	504	633	
13	0	0	0	0	502	633	
14	0	0	0	0	499	636	
15	0	0	0	0	499	632	
0	0	0	0	0	498	632	
1	0	0	0	0	498	632	
2	0	0	0	0	499	628	
3	0	0	0	0	502	632	
4	0	0	0	0	505	632	
5	0	0	0	0	509	632	
6	0	0	0	0	512	635	
7	0	0	0	0	512	632	
8	0	0	0	0	513	632	
9	0	0	0	0	513	632	
10	0	0	0	0	513	628	
11	0	0	0	0	513	632	
12	0	0	0	0	513	632	
13	0	0	0	0	512	632	
14	0	0	0	0	511	636	
15	0	0	0	0	511	632	
0	0	0	0	0	511	632	
1	0	0	0	0	510	631	
2	0	0	0	0	508	627	
3	0	0	0	0	506	632	
4	0	0	0	0	504	632	
5	0	0	0	0	504	632	
6	0	0	0	0	505	636	
7	0	0	0	0	505	632	
8	0	0	0	0	504	632	
9	0	0	0	0	504	632	
10	0	0	0	0	504	628	
11	0	0	0	0	504	632	
12	0	0	0	0	504	632	
13	0	0	0	0	505	632	
14	0	0	0	0	504	635	
15	0	0	0	0	505	632	
0	0	0	0	0	506	632	
1	0	0	0	0	507	632	
2	0	0	0	0	509	627	
3	0	0	0	0	508	631	
4	0	0	0	0	505	631	
5	0	0	0	0	502	631	
6	0	0	0	0	500	634	
7	0	0	0	0	500	631	
8	0	0	0	0	501	631	
9	0	0	0	0	501	630	
10	0	0	0	0	501	627	
11	0	0	0	0	502	630	
12	0	0	0	0	501	630	
13	0	0	0	0	500	629	
14	0	0	0	0	500	632	
15	0	0	0	0	500	629	
0	0	0	0	0	498	628	
1	0	0	0	0	497	628	
2	0	0	0	0	496	625	
3	0	0	0	0	497	628	
4	0	0	0	0	499	628	
5	0	0	0	0	500	628	
6	0	0	0	0	500	631	
7	0	0	0	0	502	628	
8	0	0	0	0	503	628	
9	0	0	0	0	503	628	
10	0	0	0	0	503	624	
11	0	0	0	0	501	627	
12	0	0	0	0	500	628	
13	0	0	0	0	500	627	
14	0	0	0	0	501	630	
15	0	0	0	0	504	626	
0	0	0	0	0	505	627	
1	0	0	0	0	505	626	
2	0	0	0	0	505	622	
3	0	0	0	0	506	625	
4	0	0	0	0	506	625	
5	0	0	0	0	505	625	
6	0	0	0	0	504	628	
7	0	0	0	0	504	624	
8	0	0	0	0	503	624	
9	0	0	0	0	502	623	
10	0	0	0	0	501	620	
11	0	0	0	0	502	623	
12	0	0	0	0	501	623	
13	0	0	0	0	501	623	
14	0	0	0	0	503	626	
15	0	0	0	0	504	622	
0	0	0	0	0	504	623	
1	0	0	0	0	504	622	
2	0	0	0	0	503	617	
3	0	0	0	0	500	621	
4	0	0	0	0	498	622	
5	0	0	0	0	499	621	
6	0	0	0	0	500	624	
7	0	0	0	0	502	620	
8	0	0	0	0	502	620	
9	0	0	0	0	501	619	
10	0	0	0	0	500	615	
11	0	0	0	0	499	619	
12	0	0	0	0	500	619	
13	0	0	0	0	503	619	
14	0	0	0	0	504	622	
15	0	0	0	0	504	618	
0	0	0	0	0	503	617	
1	0	0	0	0	502	617	
2	0	0	0	0	502	614	
3	0	0	0	0	502	617	
4	0	0	0	0	502	617	
5	0	0	0	0	501	617	
6	0	0	0	0	502	620	
7	0	0	0	0	502	616	
8	0	0	0	0	503	616	
9	0	0	0	0	504	615	
10	0	0	0	0	505	612	
11	0	0	0	0	504	615	
12	0	0	0	0	505	615	
13	0	0	0	0	505	615	
14	0	0	0	0	506	619	
15	0	0	0	0	504	615	
0	0	0	0	0	502	615	
1	0	0	0	0	497	615	
2	0	0	0	0	494	611	
3	0	0	0	0	493	614	
4	0	0	0	0	494	614	
5	0	0	0	0	496	614	
6	0	0	0	0	498	617	
7	0	0	0	0	499	614	
8	0	0	0	0	499	613	
9	0	0	0	0	498	613	
10	0	0	0	0	496	609	
11	0	0	0	0	496	613	
12	0	0	0	0	497	613	
13	0	0	0	0	497	613	
14	0	0	0	0	496	616	
15	0	0	0	0	492	613	
0	0	0	0	0	490	614	
1	0	0	0	0	495	613	
2	0	0	0	0	498	608	
3	0	0	0	0	502	613	
4	0	0	0	0	504	612	
5	0	0	0	0	504	612	
6	0	0	0	0	507	616	
7	0	0	0	0	510	612	
8	0	0	0	0	511	612	
9	0	0	0	0	512	612	
10	0	0	0	0	513	609	
11	0	0	0	0	511	613	
12	0	0	0	0	508	613	
13	0	0	0	0	505	613	
14	0	0	0	0	503	616	
15	0	0	0	0	500	613	
0	0	0	0	0	496	612	
1	0	0	0	0	493	612	
2	0	0	0	0	485	609	
3	0	0	0	0	480	613	
4	0	0	0	0	476	612	
5	0	0	0	0	477	612	
6	0	0	0	0	487	616	
7	0	0	0	0	498	613	
8	0	0	0	0	504	613	
9	0	0	0	0	507	612	
10	0	0	0	0	509	609	
11	0	0	0	0	510	613	
12	0	0	0	0	512	613	
13	0	0	0	0	518	613	
14	0	0	0	0	523	617	
15	0	0	0	0	524	614	
0	0	0	0	0	527	614	
1	0	0	0	0	530	614	
2	0	0	0	0	535	611	
3	0	0	0	0	540	614	
4	0	0	0	0	545	615	
5	0	0	0	0	554	615	
6	0	0	0	0	566	618	
7	0	0	0	0	576	615	
8	0	0	0	0	579	615	
9	0	0	0	0	582	615	
10	0	0	0	0	584	611	
11	0	0	0	0	586	616	
12	0	0	0	0	585	616	
13	0	0	0	0	582	616	
14	0	0	0	0	573	620	
15	0	0	0	0	557	616	
0	0	0	0	0	539	616	
1	0	0	0	0	519	617	
2	0	0	0	0	498	613	
3	0	0	0	0	480	617	
4	0	0	0	0	457	617	
5	0	0	0	0	427	617	
6	0	0	0	0	393	620	
7	0	0	0	0	353	617	
8	0	0	0	0	312	617	
9	0	0	0	0	271	617	
10	0	0	0	0	228	613	
11	0	0	0	0	188	617	
12	0	0	0	0	158	617	
13	0	0	0	0	128	618	
14	0	0	0	0	104	621	
15	0	0	0	0	91	618	
0	0	0	0	0	86	618	
1	0	0	0	0	90	618	
2	0	0	0	0	105	614	
3	0	0	0	0	128	619	
4	0	0	0	0	160	619	
5	0	0	0	0	204	619	
6	0	0	0	0	251	623	
7	0	0	0	0	291	619	
8	0	0	0	0	326	620	
9	0	0	0	0	351	619	
10	0	0	0	0	368	615	
11	0	0	0	0	378	620	
12	0	0	0	0	381	620	
13	0	0	0	0	382	620	
14	0	0	0	0	380	623	
15	0	0	0	0	376	620	
0	0	0	0	0	374	620	
1	0	0	0	0	374	620	
2	0	0	0	0	379	615	
3	0	0	0	0	385	620	
4	0	0	0	0	392	620	
5	0	0	0	0	400	620	
6	0	0	0	0	411	624	
7	0	0	0	0	424	620	
8	0	0	0	0	434	620	
9	0	0	0	0	444	620	
10	0	0	0	0	454	617	
11	0	0	0	0	461	621	
12	0	0	0	0	469	620	
13	0	0	0	0	478	621	
14	0	0	0	0	486	624	
15	0	0	0	0	497	621	
0	0	0	0	0	507	621	
1	0	0	0	0	515	621	
2	0	0	0	0	524	617	
3	0	0	0	0	529	621	
4	0	0	0	0	537	622	
5	0	0	0	0	543	622	
6	0	0	0	0	549	626	
7	0	0	0	0	554	622	
8	0	0	0	0	558	622	
9	0	0	0	0	562	622	
10	0	0	0	0	564	619	
11	0	0	0	0	567	622	
12	0	0	0	0	569	623	
13	0	0	0	0	571	623	
14	0	0	0	0	574	626	
15	0	0	0	0	576	623	
0	0	0	0	0	578	623	
1	0	0	0	0	579	623	
2	0	0	0	0	579	619	
3	0	0	0	0	579	622	
4	0	0	0	0	580	623	
5	0	0	0	0	580	623	
6	0	0	0	0	580	627	
7	0	0	0	0	581	624	
8	0	0	0	0	580	623	
9	0	0	0	0	580	623	
10	0	0	0	0	579	619	
11	0	0	0	0	578	623	
12	0	0	0	0	577	623	
13	0	0	0	0	576	624	
14	0	0	0	0	574	627	
15	0	0	0	0	571	624	
0	0	0	0	0	570	624	
1	0	0	0	0	569	624	
2	0	0	0	0	568	620	
3	0	0	0	0	567	623	
4	0	0	0	0	565	624	
5	0	0	0	0	566	624	
6	0	0	0	0	567	627	
7	0	0	0	0	569	624	
8	0	0	0	0	571	624	
9	0	0	0	0	572	623	
10	0	0	0	0	572	620	
11	0	0	0	0	571	623	
12	0	0	0	0	569	624	
13	0	0	0	0	569	624	
14	0	0	0	0	569	627	
15	0	0	0	0	569	624	
0	0	0	0	0	568	624	
1	0	0	0	0	566	624	
2	0	0	0	0	566	619	
3	0	0	0	0	568	624	
4	0	0	0	0	567	624	
5	0	0	0	0	563	624	
6	0	0	0	0	560	627	
7	0	0	0	0	560	625	
8	0	0	0	0	561	624	
9	0	0	0	0	562	624	
10	0	0	0	0	562	620	
11	0	0	0	0	562	624	
12	0	0	0	0	560	623	
13	0	0	0	0	559	623	
14	0	0	0	0	558	626	
15	0	0	0	0	556	623	
0	0	0	0	0	555	622	
1	0	0	0	0	555	622	
2	0	0	0	0	556	618	
3	0	0	0	0	556	622	
4	0	0	0	0	556	623	
5	0	0	0	0	556	623	
6	0	0	0	0	555	626	
7	0	0	0	0	556	623	
8	0	0	0	0	556	623	
9	0	0	0	0	555	623	
10	0	0	0	0	555	619	
11	0	0	0	0	553	623	
12	0	0	0	0	551	623	
13	0	0	0	0	549	624	
14	0	0	0	0	549	627	
15	0	0	0	0	550	623	
0	0	0	0	0	550	623	
1	0	0	0	0	550	623	
2	0	0	0	0	550	620	
3	0	0	0	0	549	624	
4	0	0	0	0	548	623	
5	0	0	0	0	548	624	
6	0	0	0	0	548	627	
7	0	0	0	0	546	623	
8	0	0	0	0	545	623	
9	0	0	0	0	543	623	
10	0	0	0	0	542	619	
11	0	0	0	0	541	623	
12	0	0	0	0	540	624	
13	0	0	0	0	539	623	
14	0	0	0	0	537	626	
15	0	0	0	0	536	623	
0	0	0	0	0	536	623	
1	0	0	0	0	536	623	
2	0	0	0	0	534	620	
3	0	0	0	0	532	623	
4	0	0	0	0	529	623	
5	0	0	0	0	527	623	
6	0	0	0	0	527	627	
7	0	0	0	0	526	623	
8	0	0	0	0	526	623	
9	0	0	0	0	525	624	
10	0	0	0	0	524	620	
11	0	0	0	0	523	624	
12	0	0	0	0	521	624	
13	0	0	0	0	519	625	
14	0	0	0	0	518	627	
15	0	0	0	0	516	624	
0	0	0	0	0	514	624	
1	0	0	0	0	512	625	
2	0	0	0	0	512	621	
3	0	0	0	0	511	625	
4	0	0	0	0	511	625	
5	0	0	0	0	509	625	
6	0	0	0	0	508	629	
7	0	0	0	0	507	625	
8	0	0	0	0	507	625	
9	0	0	0	0	507	625	
10	0	0	0	0	507	621	
11	0	0	0	0	506	625	
12	0	0	0	0	505	625	
13	0	0	0	0	504	625	
14	0	0	0	0	502	629	
15	0	0	0	0	501	625	
0	0	0	0	0	499	625	
1	0	0	0	0	499	625	
2	0	0	0	0	498	622	
3	0	0	0	0	497	626	
4	0	0	0	0	495	627	
5	0	0	0	0	495	627	
6	0	0	0	0	495	630	
7	0	0	0	0	495	626	
8	0	0	0	0	495	627	
9	0	0	0	0	494	626	
10	0	0	0	0	492	623	
11	0	0	0	0	491	627	
12	0	0	0	0	489	626	
13	0	0	0	0	489	626	
14	0	0	0	0	488	630	
15	0	0	0	0	487	626	
0	0	0	0	0	485	626	
1	0	0	0	0	484	625	
2	0	0	0	0	483	621	
3	0	0	0	0	485	626	
4	0	0	0	0	487	625	
5	0	0	0	0	489	626	
6	0	0	0	0	491	630	
7	0	0	0	0	491	625	
8	0	0	0	0	491	626	
9	0	0	0	0	491	625	
10	0	0	0	0	491	622	
11	0	0	0	0	491	625	
12	0	0	0	0	491	625	
13	0	0	0	0	492	626	
14	0	0	0	0	494	629	
15	0	0	0	0	496	625	
0	0	0	0	0	497	625	
1	0	0	0	0	497	625	
2	0	0	0	0	498	621	
3	0	0	0	0	499	625	
4	0	0	0	0	500	625	
5	0	0	0	0	499	626	
6	0	0	0	0	500	629	
7	0	0	0	0	500	626	
8	0	0	0	0	500	625	
9	0	0	0	0	500	625	
10	0	0	0	0	500	622	
11	0	0	0	0	500	626	
12	0	0	0	0	501	626	
13	0	0	0	0	501	626	
14	0	0	0	0	501	629	
15	0	0	0	0	500	625	
0	0	0	0	0	501	625	
1	0	0	0	0	504	625	
2	0	0	0	0	508	622	
3	0	0	0	0	511	624	
4	0	0	0	0	513	625	
5	0	0	0	0	514	624	
6	0	0	0	0	514	627	
7	0	0	0	0	514	623	
8	0	0	0	0	515	624	
9	0	0	0	0	516	624	
10	0	0	0	0	518	620	
11	0	0	0	0	518	624	
12	0	0	0	0	517	623	
13	0	0	0	0	516	623	
14	0	0	0	0	514	626	
15	0	0	0	0	512	622	
0	0	0	0	0	512	623	
1	0	0	0	0	512	622	
2	0	0	0	0	513	618	
3	0	0	0	0	514	622	
4	0	0	0	0	514	621	
5	0	0	0	0	513	622	
6	0	0	0	0	513	625	
7	0	0	0	0	513	621	
8	0	0	0	0	512	621	
9	0	0	0	0	512	621	
10	0	0	0	0	512	618	
11	0	0	0	0	512	621	
12	0	0	0	0	512	621	
13	0	0	0	0	511	621	
14	0	0	0	0	511	625	
15	0	0	0	0	510	621	
0	0	0	0	0	509	621	
1	0	0	0	0	509	621	
2	0	0	0	0	508	617	
3	0	0	0	0	508	622	
4	0	0	0	0	508	622	
5	0	0	0	0	508	622	
6	0	0	0	0	509	625	
7	0	0	0	0	509	622	
8	0	0	0	0	508	622	
9	0	0	0	0	507	621	
10	0	0	0	0	505	618	
11	0	0	0	0	504	622	
12	0	0	0	0	503	622	
13	0	0	0	0	502	622	
14	0	0	0	0	502	625	
15	0	0	0	0	501	622	
0	0	0	0	0	501	622	
1	0	0	0	0	502	621	
2	0	0	0	0	502	617	
3	0	0	0	0	502	622	
4	0	0	0	0	501	622	
5	0	0	0	0	502	622	
6	0	0	0	0	500	625	
7	0	0	0	0	500	622	
8	0	0	0	0	499	622	
9	0	0	0	0	500	621	
10	0	0	0	0	501	617	
11	0	0	0	0	501	622	
12	0	0	0	0	501	622	
13	0	0	0	0	501	622	
14	0	0	0	0	501	624	
15	0	0	0	0	501	622	
0	0	0	0	0	501	622	
1	0	0	0	0	501	622	
2	0	0	0	0	500	618	
3	0	0	0	0	500	623	
4	0	0	0	0	500	623	
5	0	0	0	0	500	623	
6	0	0	0	0	500	625	
7	0	0	0	0	501	623	
8	0	0	0	0	503	624	
9	0	0	0	0	503	623	
10	0	0	0	0	502	620	
11	0	0	0	0	502	623	
12	0	0	0	0	501	623	
13	0	0	0	0	500	623	
14	0	0	0	0	498	626	
15	0	0	0	0	497	623	
0	0	0	0	0	497	624	
1	0	0	0	0	496	624	
2	0	0	0	0	496	620	
3	0	0	0	0	498	624	
4	0	0	0	0	499	624	
5	0	0	0	0	499	624	
6	0	0	0	0	500	627	
7	0	0	0	0	501	624	
8	0	0	0	0	502	624	
9	0	0	0	0	502	624	
10	0	0	0	0	502	621	
11	0	0	0	0	503	625	
12	0	0	0	0	502	625	
13	0	0	0	0	503	626	
14	0	0	0	0	502	629	
15	0	0	0	0	502	626	
0	0	0	0	0	502	626	
1	0	0	0	0	503	625	
2	0	0	0	0	504	622	
3	0	0	0	0	504	625	
4	0	0	0	0	502	626	
5	0	0	0	0	500	626	
6	0	0	0	0	499	630	
7	0	0	0	0	500	626	
8	0	0	0	0	501	626	
9	0	0	0	0	502	626	
10	0	0	0	0	502	622	
11	0	0	0	0	502	625	
12	0	0	0	0	502	626	
13	0	0	0	0	500	626	
14	0	0	0	0	498	631	
15	0	0	0	0	497	627	
0	0	0	0	0	497	626	
1	0	0	0	0	497	626	
2	0	0	0	0	496	623	
3	0	0	0	0	496	627	
4	0	0	0	0	495	626	
5	0	0	0	0	494	626	
6	0	0	0	0	494	630	
7	0	0	0	0	492	627	
8	0	0	0	0	491	626	
9	0	0	0	0	491	626	
10	0	0	0	0	494	623	
11	0	0	0	0	496	626	
12	0	0	0	0	499	626	
13	0	0	0	0	501	626	
14	0	0	0	0	501	629	
15	0	0	0	0	500	625	
0	0	0	0	0	500	627	
1	0	0	0	0	500	625	
2	0	0	0	0	502	622	
3	0	0	0	0	503	626	
4	0	0	0	0	503	626	
5	0	0	0	0	502	626	
6	0	0	0	0	502	629	
7	0	0	0	0	502	625	
8	0	0	0	0	501	625	
9	0	0	0	0	501	625	
10	0	0	0	0	501	622	
11	0	0	0	0	500	625	
12	0	0	0	0	499	625	
13	0	0	0	0	500	625	
14	0	0	0	0	503	629	
15	0	0	0	0	504	626	
0	0	0	0	0	504	626	
1	0	0	0	0	504	626	
2	0	0	0	0	503	622	
3	0	0	0	0	503	626	
4	0	0	0	0	503	627	
5	0	0	0	0	502	627	
6	0	0	0	0	501	630	
7	0	0	0	0	500	626	
8	0	0	0	0	499	627	
9	0	0	0	0	499	627	
10	0	0	0	0	498	623	
11	0	0	0	0	498	627	
12	0	0	0	0	498	627	
13	0	0	0	0	497	627	
14	0	0	0	0	498	632	
15	0	0	0	0	497	629	
0	0	0	0	0	496	628	
1	0	0	0	0	496	628	
2	0	0	0	0	494	624	
3	0	0	0	0	495	628	
4	0	0	0	0	495	628	
5	0	0	0	0	496	627	
6	0	0	0	0	496	630	
7	0	0	0	0	496	627	
8	0	0	0	0	494	627	
9	0	0	0	0	493	627	
10	0	0	0	0	492	624	
11	0	0	0	0	491	627	
12	0	0	0	0	490	627	
13	0	0	0	0	489	627	
14	0	0	0	0	488	630	
15	0	0	0	0	488	627	
0	0	0	0	0	487	627	
1	0	0	0	0	486	627	
2	0	0	0	0	485	622	
3	0	0	0	0	485	626	
4	0	0	0	0	484	626	
5	0	0	0	0	483	626	
6	0	0	0	0	482	630	
7	0	0	0	0	482	626	
8	0	0	0	0	482	626	
9	0	0	0	0	483	626	
10	0	0	0	0	484	622	
11	0	0	0	0	484	626	
12	0	0	0	0	484	625	
13	0	0	0	0	483	626	
14	0	0	0	0	482	629	
15	0	0	0	0	482	625	
0	0	0	0	0	481	625	
1	0	0	0	0	482	625	
2	0	0	0	0	483	622	
3	0	0	0	0	484	625	
4	0	0	0	0	485	626	
5	0	0	0	0	487	625	
6	0	0	0	0	487	628	
7	0	0	0	0	488	625	
8	0	0	0	0	488	624	
9	0	0	0	0	489	624	
10	0	0	0	0	489	621	
11	0	0	0	0	489	625	
12	0	0	0	0	488	624	
13	0	0	0	0	487	624	
14	0	0	0	0	487	627	
15	0	0	0	0	487	624	
0	0	0	0	0	487	624	
1	0	0	0	0	487	624	
2	0	0	0	0	487	620	
3	0	0	0	0	486	625	
4	0	0	0	0	485	624	
5	0	0	0	0	485	625	
6	0	0	0	0	486	628	
7	0	0	0	0	485	624	
8	0	0	0	0	485	624	
9	0	0	0	0	485	624	
10	0	0	0	0	485	620	
11	0	0	0	0	485	624	
12	0	0	0	0	486	623	
13	0	0	0	0	486	623	
14	0	0	0	0	486	626	
15	0	0	0	0	486	624	
0	0	0	0	0	486	624	
1	0	0	0	0	486	624	
2	0	0	0	0	487	620	
3	0	0	0	0	486	624	
4	0	0	0	0	487	624	
5	0	0	0	0	487	624	
6	0	0	0	0	489	627	
7	0	0	0	0	489	623	
8	0	0	0	0	489	623	
9	0	0	0	0	489	623	
10	0	0	0	0	489	619	
11	0	0	0	0	488	622	
12	0	0	0	0	488	623	
13	0	0	0	0	488	623	
14	0	0	0	0	489	626	
15	0	0	0	0	489	622	
0	0	0	0	0	488	622	
1	0	0	0	0	489	622	
2	0	0	0	0	490	619	
3	0	0	0	0	491	622	
4	0	0	0	0	490	622	
5	0	0	0	0	488	623	
6	0	0	0	0	487	626	
7	0	0	0	0	488	622	
8	0	0	0	0	490	622	
9	0	0	0	0	491	622	
10	0	0	0	0	491	618	
11	0	0	0	0	491	621	
12	0	0	0	0	490	622	
13	0	0	0	0	490	621	
14	0	0	0	0	490	624	
15	0	0	0	0	491	620	
0	0	0	0	0	493	620	
1	0	0	0	0	494	620	
2	0	0	0	0	493	615	
3	0	0	0	0	492	620	
4	0	0	0	0	493	620	
5	0	0	0	0	493	619	
6	0	0	0	0	493	622	
7	0	0	0	0	493	619	
8	0	0	0	0	493	619	
9	0	0	0	0	494	619	
10	0	0	0	0	495	615	
11	0	0	0	0	495	618	
12	0	0	0	0	496	618	
13	0	0	0	0	495	619	
14	0	0	0	0	494	622	
15	0	0	0	0	493	619	
0	0	0	0	0	493	618	
1	0	0	0	0	493	618	
2	0	0	0	0	492	615	
3	0	0	0	0	493	619	
4	0	0	0	0	493	619	
5	0	0	0	0	492	619	
6	0	0	0	0	493	622	
7	0	0	0	0	494	618	
8	0	0	0	0	494	618	
9	0	0	0	0	494	618	
10	0	0	0	0	494	615	
11	0	0	0	0	494	618	
12	0	0	0	0	493	618	
13	0	0	0	0	493	618	
14	0	0	0	0	493	622	
15	0	0	0	0	493	619	
0	0	0	0	0	494	618	
1	0	0	0	0	495	619	
2	0	0	0	0	496	615	
3	0	0	0	0	497	619	
4	0	0	0	0	500	619	
5	0	0	0	0	504	619	
6	0	0	0	0	509	623	
7	0	0	0	0	514	620	
8	0	0	0	0	520	620	
9	0	0	0	0	526	620	
10	0	0	0	0	533	616	
11	0	0	0	0	541	620	
12	0	0	0	0	548	620	
13	0	0	0	0	556	620	
14	0	0	0	0	563	623	
15	0	0	0	0	568	620	
0	0	0	0	0	569	620	
1	0	0	0	0	568	621	
2	0	0	0	0	567	616	
3	0	0	0	0	565	620	
4	0	0	0	0	563	620	
5	0	0	0	0	558	621	
6	0	0	0	0	548	624	
7	0	0	0	0	537	620	
8	0	0	0	0	523	620	
9	0	0	0	0	509	620	
10	0	0	0	0	491	617	
11	0	0	0	0	472	620	
12	0	0	0	0	449	621	
13	0	0	0	0	420	621	
14	0	0	0	0	385	624	
15	0	0	0	0	346	621	
0	0	0	0	0	304	621	
1	0	0	0	0	260	620	
2	0	0	0	0	216	617	
3	0	0	0	0	177	621	
4	0	0	0	0	145	621	
5	0	0	0	0	121	622	
6	0	0	0	0	103	625	
7	0	0	0	0	96	621	
8	0	0	0	0	97	622	
9	0	0	0	0	109	621	
10	0	0	0	0	129	618	
11	0	0	0	0	158	622	
12	0	0	0	0	195	622	
13	0	0	0	0	243	623	
14	0	0	0	0	286	626	
15	0	0	0	0	324	623	
0	0	0	0	0	356	623	
1	0	0	0	0	377	622	
2	0	0	0	0	390	619	
3	0	0	0	0	394	623	
4	0	0	0	0	395	623	
5	0	0	0	0	393	623	
6	0	0	0	0	389	626	
7	0	0	0	0	386	623	
8	0	0	0	0	384	623	
9	0	0	0	0	384	623	
10	0	0	0	0	388	619	
11	0	0	0	0	394	623	
12	0	0	0	0	401	623	
13	0	0	0	0	408	623	
14	0	0	0	0	417	627	
15	0	0	0	0	427	624	
0	0	0	0	0	437	624	
1	0	0	0	0	448	624	
2	0	0	0	0	459	621	
3	0	0	0	0	468	625	
4	0	0	0	0	476	624	
5	0	0	0	0	485	625	
6	0	0	0	0	492	628	
7	0	0	0	0	500	624	
8	0	0	0	0	508	624	
9	0	0	0	0	517	624	
10	0	0	0	0	525	621	
11	0	0	0	0	531	624	
12	0	0	0	0	537	624	
13	0	0	0	0	544	624	
14	0	0	0	0	549	628	
15	0	0	0	0	554	624	
0	0	0	0	0	558	624	
1	0	0	0	0	561	624	
2	0	0	0	0	565	620	
3	0	0	0	0	568	624	
4	0	0	0	0	570	624	
5	0	0	0	0	572	624	
6	0	0	0	0	574	627	
7	0	0	0	0	575	624	
8	0	0	0	0	575	624	
9	0	0	0	0	576	624	
10	0	0	0	0	578	621	
11	0	0	0	0	579	624	
12	0	0	0	0	579	625	
13	0	0	0	0	579	624	
14	0	0	0	0	579	627	
15	0	0	0	0	579	624	
0	0	0	0	0	579	624	
1	0	0	0	0	578	624	
2	0	0	0	0	577	620	
3	0	0	0	0	577	624	
4	0	0	0	0	577	624	
5	0	0	0	0	576	625	
6	0	0	0	0	576	628	
7	0	0	0	0	577	624	
8	0	0	0	0	577	624	
9	0	0	0	0	576	624	
10	0	0	0	0	575	620	
11	0	0	0	0	575	624	
12	0	0	0	0	574	624	
13	0	0	0	0	573	624	
14	0	0	0	0	573	627	
15	0	0	0	0	572	625	
0	0	0	0	0	571	624	
1	0	0	0	0	570	624	
2	0	0	0	0	569	620	
3	0	0	0	0	569	624	
4	0	0	0	0	568	625	
5	0	0	0	0	568	624	
6	0	0	0	0	567	628	
7	0	0	0	0	567	624	
8	0	0	0	0	567	624	
9	0	0	0	0	566	624	
10	0	0	0	0	564	620	
11	0	0	0	0	564	624	
12	0	0	0	0	563	624	
13	0	0	0	0	561	624	
14	0	0	0	0	560	627	
15	0	0	0	0	558	624	
0	0	0	0	0	557	624	
1	0	0	0	0	557	624	
2	0	0	0	0	558	620	
3	0	0	0	0	559	624	
4	0	0	0	0	560	624	
5	0	0	0	0	559	624	
6	0	0	0	0	559	627	
7	0	0	0	0	559	624	
8	0	0	0	0	558	624	
9	0	0	0	0	556	624	
10	0	0	0	0	554	620	
11	0	0	0	0	552	623	
12	0	0	0	0	550	624	
13	0	0	0	0	550	624	
14	0	0	0	0	551	627	
15	0	0	0	0	552	624	
0	0	0	0	0	553	624	
1	0	0	0	0	555	624	
2	0	0	0	0	555	620	
3	0	0	0	0	554	623	
4	0	0	0	0	554	623	
5	0	0	0	0	554	624	
6	0	0	0	0	554	626	
7	0	0	0	0	553	624	
8	0	0	0	0	553	623	
9	0	0	0	0	551	623	
10	0	0	0	0	549	619	
11	0	0	0	0	548	623	
12	0	0	0	0	547	623	
13	0	0	0	0	546	623	
14	0	0	0	0	545	627	
15	0	0	0	0	543	623	
0	0	0	0	0	543	624	
1	0	0	0	0	542	623	
2	0	0	0	0	541	619	
3	0	0	0	0	540	623	
4	0	0	0	0	538	622	
5	0	0	0	0	538	623	
6	0	0	0	0	537	626	
7	0	0	0	0	537	622	
8	0	0	0	0	536	623	
9	0	0	0	0	534	623	
10	0	0	0	0	533	619	
11	0	0	0	0	532	624	
12	0	0	0	0	531	623	
13	0	0	0	0	531	623	
14	0	0	0	0	531	626	
15	0	0	0	0	530	623	
0	0	0	0	0	529	623	
1	0	0	0	0	528	623	
2	0	0	0	0	527	619	
3	0	0	0	0	526	623	
4	0	0	0	0	524	623	
5	0	0	0	0	524	624	
6	0	0	0	0	522	626	
7	0	0	0	0	521	623	
8	0	0	0	0	520	624	
9	0	0	0	0	519	624	
10	0	0	0	0	516	620	
11	0	0	0	0	514	623	
12	0	0	0	0	512	623	
13	0	0	0	0	511	624	
14	0	0	0	0	512	627	
15	0	0	0	0	512	624	
0	0	0	0	0	512	623	
1	0	0	0	0	512	624	
2	0	0	0	0	511	619	
3	0	0	0	0	510	623	
4	0	0	0	0	509	623	
5	0	0	0	0	507	623	
6	0	0	0	0	506	627	
7	0	0	0	0	505	624	
8	0	0	0	0	505	623	
9	0	0	0	0	504	624	
10	0	0	0	0	504	620	
11	0	0	0	0	504	623	
12	0	0	0	0	502	623	
13	0	0	0	0	502	624	
14	0	0	0	0	501	627	
15	0	0	0	0	500	624	
0	0	0	0	0	499	623	
1	0	0	0	0	498	624	
2	0	0	0	0	498	620	
3	0	0	0	0	498	624	
4	0	0	0	0	497	623	
5	0	0	0	0	496	623	
6	0	0	0	0	495	626	
7	0	0	0	0	496	623	
8	0	0	0	0	495	623	
9	0	0	0	0	496	623	
10	0	0	0	0	496	618	
11	0	0	0	0	496	622	
12	0	0	0	0	496	623	
13	0	0	0	0	496	623	
14	0	0	0	0	495	625	
15	0	0	0	0	494	623	
0	0	0	0	0	495	623	
1	0	0	0	0	495	623	
2	0	0	0	0	496	619	
3	0	0	0	0	496	623	
4	0	0	0	0	496	622	
5	0	0	0	0	497	623	
6	0	0	0	0	498	626	
7	0	0	0	0	499	623	
8	0	0	0	0	500	622	
9	0	0	0	0	500	623	
10	0	0	0	0	502	619	
11	0	0	0	0	502	622	
12	0	0	0	0	502	623	
13	0	0	0	0	503	623	
14	0	0	0	0	504	626	
15	0	0	0	0	505	623	
0	0	0	0	0	506	622	
1	0	0	0	0	506	622	
2	0	0	0	0	507	618	
3	0	0	0	0	510	622	
4	0	0	0	0	513	622	
5	0	0	0	0	515	622	
6	0	0	0	0	515	625	
7	0	0	0	0	516	622	
8	0	0	0	0	515	622	
9	0	0	0	0	515	621	
10	0	0	0	0	517	618	
11	0	0	0	0	518	622	
12	0	0	0	0	519	622	
13	0	0	0	0	520	622	
14	0	0	0	0	520	625	
15	0	0	0	0	520	622	
0	0	0	0	0	520	622	
1	0	0	0	0	520	621	
2	0	0	0	0	520	618	
3	0	0	0	0	520	622	
4	0	0	0	0	520	622	
5	0	0	0	0	522	622	
6	0	0	0	0	523	625	
7	0	0	0	0	523	622	
8	0	0	0	0	523	622	
9	0	0	0	0	523	622	
10	0	0	0	0	523	618	
11	0	0	0	0	525	622	
12	0	0	0	0	525	622	
13	0	0	0	0	525	622	
14	0	0	0	0	524	625	
15	0	0	0	0	524	621	
0	0	0	0	0	524	622	
1	0	0	0	0	524	622	
2	0	0	0	0	524	618	
3	0	0	0	0	524	622	
4	0	0	0	0	523	622	
5	0	0	0	0	522	622	
6	0	0	0	0	520	626	
7	0	0	0	0	520	622	
8	0	0	0	0	521	622	
9	0	0	0	0	521	622	
10	0	0	0	0	522	619	
11	0	0	0	0	523	623	
12	0	0	0	0	523	623	
13	0	0	0	0	524	623	
14	0	0	0	0	524	626	
15	0	0	0	0	523	622	
0	0	0	0	0	522	622	
1	0	0	0	0	521	622	
2	0	0	0	0	521	619	
3	0	0	0	0	519	623	
4	0	0	0	0	519	623	
5	0	0	0	0	519	624	
6	0	0	0	0	519	627	
7	0	0	0	0	519	623	
8	0	0	0	0	519	624	
9	0	0	0	0	518	624	
10	0	0	0	0	518	620	
11	0	0	0	0	517	624	
12	0	0	0	0	517	624	
13	0	0	0	0	516	624	
14	0	0	0	0	515	627	
15	0	0	0	0	516	624	
0	0	0	0	0	517	624	
1	0	0	0	0	518	624	
2	0	0	0	0	519	621	
3	0	0	0	0	520	624	
4	0	0	0	0	520	624	
5	0	0	0	0	520	624	
6	0	0	0	0	520	627	
7	0	0	0	0	521	624	
8	0	0	0	0	521	624	
9	0	0	0	0	520	625	
10	0	0	0	0	520	621	
11	0	0	0	0	520	624	
12	0	0	0	0	520	624	
13	0	0	0	0	520	625	
14	0	0	0	0	521	628	
15	0	0	0	0	522	625	
0	0	0	0	0	522	625	
1	0	0	0	0	521	625	
2	0	0	0	0	521	621	
3	0	0	0	0	520	625	
4	0	0	0	0	519	624	
5	0	0	0	0	519	625	
6	0	0	0	0	518	628	
7	0	0	0	0	517	624	
8	0	0	0	0	515	624	
9	0	0	0	0	514	624	
10	0	0	0	0	515	620	
11	0	0	0	0	515	624	
12	0	0	0	0	515	625	
13	0	0	0	0	515	624	
14	0	0	0	0	516	628	
15	0	0	0	0	516	624	
0	0	0	0	0	517	624	
1	0	0	0	0	519	624	
2	0	0	0	0	520	620	
3	0	0	0	0	522	624	
4	0	0	0	0	523	624	
5	0	0	0	0	523	624	
6	0	0	0	0	523	627	
7	0	0	0	0	521	624	
8	0	0	0	0	520	624	
9	0	0	0	0	520	624	
10	0	0	0	0	520	620	
11	0	0	0	0	520	624	
12	0	0	0	0	519	624	
13	0	0	0	0	518	625	
14	0	0	0	0	518	629	
15	0	0	0	0	517	625	
0	0	0	0	0	516	625	
1	0	0	0	0	513	624	
2	0	0	0	0	512	621	
3	0	0	0	0	512	625	
4	0	0	0	0	513	625	
5	0	0	0	0	514	624	
6	0	0	0	0	515	627	
7	0	0	0	0	514	624	
8	0	0	0	0	514	625	
9	0	0	0	0	514	624	
10	0	0	0	0	514	621	
11	0	0	0	0	514	625	
12	0	0	0	0	512	624	
13	0	0	0	0	512	625	
14	0	0	0	0	511	628	
15	0	0	0	0	511	624	
0	0	0	0	0	512	624	
1	0	0	0	0	512	625	
2	0	0	0	0	513	621	
3	0	0	0	0	514	625	
4	0	0	0	0	516	625	
5	0	0	0	0	517	625	
6	0	0	0	0	518	628	
7	0	0	0	0	518	626	
8	0	0	0	0	516	625	
9	0	0	0	0	516	625	
10	0	0	0	0	518	621	
11	0	0	0	0	518	625	
12	0	0	0	0	518	626	
13	0	0	0	0	518	625	
14	0	0	0	0	518	629	
15	0	0	0	0	518	626	
0	0	0	0	0	518	626	
1	0	0	0	0	518	626	
2	0	0	0	0	518	623	
3	0	0	0	0	517	627	
4	0	0	0	0	516	627	
5	0	0	0	0	516	627	
6	0	0	0	0	516	631	
7	0	0	0	0	516	628	
8	0	0	0	0	516	628	
9	0	0	0	0	516	628	
10	0	0	0	0	516	625	
11	0	0	0	0	515	630	
12	0	0	0	0	515	629	
13	0	0	0	0	515	630	
14	0	0	0	0	514	633	
15	0	0	0	0	513	630	
0	0	0	0	0	513	630	
1	0	0	0	0	512	630	
2	0	0	0	0	512	625	
3	0	0	0	0	511	629	
4	0	0	0	0	512	629	
5	0	0	0	0	511	630	
6	0	0	0	0	511	632	
7	0	0	0	0	510	629	
8	0	0	0	0	510	629	
9	0	0	0	0	510	628	
10	0	0	0	0	509	624	
11	0	0	0	0	508	628	
12	0	0	0	0	507	627	
13	0	0	0	0	505	627	
14	0	0	0	0	505	631	
15	0	0	0	0	505	627	
0	0	0	0	0	504	627	
1	0	0	0	0	504	627	
2	0	0	0	0	502	623	
3	0	0	0	0	500	627	
4	0	0	0	0	501	627	
5	0	0	0	0	501	627	
6	0	0	0	0	499	630	
7	0	0	0	0	498	626	
8	0	0	0	0	498	626	
9	0	0	0	0	499	627	
10	0	0	0	0	500	623	
11	0	0	0	0	500	627	
12	0	0	0	0	501	627	
13	0	0	0	0	501	627	
14	0	0	0	0	502	630	
15	0	0	0	0	501	627	
0	0	0	0	0	502	627	
1	0	0	0	0	502	626	
2	0	0	0	0	501	622	
3	0	0	0	0	500	627	
4	0	0	0	0	500	626	
5	0	0	0	0	501	626	
6	0	0	0	0	503	629	
7	0	0	0	0	505	626	
8	0	0	0	0	505	626	
9	0	0	0	0	505	626	
10	0	0	0	0	505	622	
11	0	0	0	0	504	626	
12	0	0	0	0	504	626	
13	0	0	0	0	504	626	
14	0	0	0	0	504	629	
15	0	0	0	0	504	625	
0	0	0	0	0	503	626	
1	0	0	0	0	502	625	
2	0	0	0	0	502	622	
3	0	0	0	0	501	626	
4	0	0	0	0	499	625	
5	0	0	0	0	498	625	
6	0	0	0	0	499	628	
7	0	0	0	0	499	625	
8	0	0	0	0	499	625	
9	0	0	0	0	500	624	
10	0	0	0	0	500	620	
11	0	0	0	0	499	623	
12	0	0	0	0	498	624	
13	0	0	0	0	499	624	
14	0	0	0	0	499	626	
15	0	0	0	0	499	623	
0	0	0	0	0	499	622	
1	0	0	0	0	500	622	
2	0	0	0	0	499	618	
3	0	0	0	0	499	623	
4	0	0	0	0	500	623	
5	0	0	0	0	500	624	
6	0	0	0	0	501	627	
7	0	0	0	0	499	624	
8	0	0	0	0	499	623	
9	0	0	0	0	498	622	
10	0	0	0	0	497	617	
11	0	0	0	0	499	621	
12	0	0	0	0	499	621	
13	0	0	0	0	499	620	
14	0	0	0	0	497	623	
15	0	0	0	0	499	619	
0	0	0	0	0	500	619	
1	0	0	0	0	502	620	
2	0	0	0	0	501	615	
3	0	0	0	0	501	620	
4	0	0	0	0	502	619	
5	0	0	0	0	504	619	
6	0	0	0	0	504	623	
7	0	0	0	0	505	619	
8	0	0	0	0	505	619	
9	0	0	0	0	505	619	
10	0	0	0	0	504	615	
11	0	0	0	0	504	620	
12	0	0	0	0	504	620	
13	0	0	0	0	504	620	
14	0	0	0	0	504	622	
15	0	0	0	0	507	619	
0	0	0	0	0	506	619	
1	0	0	0	0	504	619	
2	0	0	0	0	503	615	
3	0	0	0	0	502	620	
4	0	0	0	0	501	619	
5	0	0	0	0	499	620	
6	0	0	0	0	496	624	
7	0	0	0	0	494	619	
8	0	0	0	0	495	619	
9	0	0	0	0	496	618	
10	0	0	0	0	493	614	
11	0	0	0	0	492	618	
12	0	0	0	0	494	617	
13	0	0	0	0	496	617	
14	0	0	0	0	500	621	
15	0	0	0	0	502	617	
0	0	0	0	0	500	617	
1	0	0	0	0	500	618	
2	0	0	0	0	503	615	
3	0	0	0	0	504	620	
4	0	0	0	0	506	620	
5	0	0	0	0	506	620	
6	0	0	0	0	505	624	
7	0	0	0	0	500	619	
8	0	0	0	0	491	620	
9	0	0	0	0	484	620	
10	0	0	0	0	483	616	
11	0	0	0	0	485	619	
12	0	0	0	0	489	620	
13	0	0	0	0	494	620	
14	0	0	0	0	499	623	
15	0	0	0	0	503	620	
0	0	0	0	0	507	620	
1	0	0	0	0	510	620	
2	0	0	0	0	512	616	
3	0	0	0	0	512	621	
4	0	0	0	0	511	620	
5	0	0	0	0	510	620	
6	0	0	0	0	513	624	
7	0	0	0	0	517	621	
8	0	0	0	0	520	620	
9	0	0	0	0	523	621	
10	0	0	0	0	526	616	
11	0	0	0	0	528	620	
12	0	0	0	0	535	620	
13	0	0	0	0	544	620	
14	0	0	0	0	555	624	
15	0	0	0	0	565	621	
0	0	0	0	0	572	621	
1	0	0	0	0	578	620	
2	0	0	0	0	583	616	
3	0	0	0	0	587	620	
4	0	0	0	0	590	620	
5	0	0	0	0	591	621	
6	0	0	0	0	589	624	
7	0	0	0	0	585	621	
8	0	0	0	0	575	621	
9	0	0	0	0	560	621	
10	0	0	0	0	545	618	
11	0	0	0	0	530	622	
12	0	0	0	0	513	622	
13	0	0	0	0	494	622	
14	0	0	0	0	468	625	
15	0	0	0	0	434	622	
0	0	0	0	0	392	622	
1	0	0	0	0	349	622	
2	0	0	0	0	308	618	
3	0	0	0	0	266	623	
4	0	0	0	0	223	623	
5	0	0	0	0	184	623	
6	0	0	0	0	151	627	
7	0	0	0	0	124	624	
8	0	0	0	0	105	624	
9	0	0	0	0	98	624	
10	0	0	0	0	102	621	
11	0	0	0	0	114	624	
12	0	0	0	0	134	624	
13	0	0	0	0	159	625	
14	0	0	0	0	189	628	
15	0	0	0	0	233	625	
0	0	0	0	0	276	625	
1	0	0	0	0	315	625	
2	0	0	0	0	347	621	
3	0	0	0	0	371	625	
4	0	0	0	0	387	625	
5	0	0	0	0	398	626	
6	0	0	0	0	403	629	
7	0	0	0	0	405	627	
8	0	0	0	0	403	626	
9	0	0	0	0	400	627	
10	0	0	0	0	399	623	
11	0	0	0	0	400	627	
12	0	0	0	0	405	627	
13	0	0	0	0	412	627	
14	0	0	0	0	421	631	
15	0	0	0	0	431	627	
0	0	0	0	0	441	627	
1	0	0	0	0	451	627	
2	0	0	0	0	460	623	
3	0	0	0	0	470	627	
4	0	0	0	0	479	628	
5	0	0	0	0	488	627	
6	0	0	0	0	496	631	
7	0	0	0	0	504	628	
8	0	0	0	0	513	628	
9	0	0	0	0	521	627	
10	0	0	0	0	531	624	
11	0	0	0	0	540	628	
12	0	0	0	0	548	628	
13	0	0	0	0	555	629	
14	0	0	0	0	562	632	
15	0	0	0	0	568	628	
0	0	0	0	0	574	628	
1	0	0	0	0	579	627	
2	0	0	0	0	583	625	
3	0	0	0	0	586	629	
4	0	0	0	0	590	628	
5	0	0	0	0	593	628	
6	0	0	0	0	595	631	
7	0	0	0	0	598	628	
8	0	0	0	0	600	628	
9	0	0	0	0	601	628	
10	0	0	0	0	601	624	
11	0	0	0	0	600	628	
12	0	0	0	0	601	627	
13	0	0	0	0	600	627	
14	0	0	0	0	600	630	
15	0	0	0	0	599	627	
0	0	0	0	0	598	627	
1	0	0	0	0	596	627	
2	0	0	0	0	595	623	
3	0	0	0	0	594	626	
4	0	0	0	0	593	625	
5	0	0	0	0	591	626	
6	0	0	0	0	588	628	
7	0	0	0	0	587	625	
8	0	0	0	0	587	626	
9	0	0	0	0	590	624	
10	0	0	0	0	593	621	
11	0	0	0	0	595	624	
12	0	0	0	0	592	625	
13	0	0	0	0	589	624	
14	0	0	0	0	586	628	
15	0	0	0	0	583	624	
0	0	0	0	0	583	623	
1	0	0	0	0	585	624	
2	0	0	0	0	587	620	
3	0	0	0	0	588	624	
4	0	0	0	0	588	623	
5	0	0	0	0	588	623	
6	0	0	0	0	589	627	
7	0	0	0	0	588	624	
8	0	0	0	0	586	623	
9	0	0	0	0	584	623	
10	0	0	0	0	583	619	
11	0	0	0	0	583	622	
12	0	0	0	0	583	622	
13	0	0	0	0	582	622	
14	0	0	0	0	582	625	
15	0	0	0	0	583	622	
0	0	0	0	0	583	622	
1	0	0	0	0	582	622	
2	0	0	0	0	580	618	
3	0	0	0	0	579	622	
4	0	0	0	0	579	621	
5	0	0	0	0	578	621	
6	0	0	0	0	577	624	
7	0	0	0	0	577	621	
8	0	0	0	0	576	620	
9	0	0	0	0	576	621	
10	0	0	0	0	575	616	
11	0	0	0	0	575	620	
12	0	0	0	0	574	621	
13	0	0	0	0	573	621	
14	0	0	0	0	573	624	
15	0	0	0	0	573	620	
0	0	0	0	0	572	620	
1	0	0	0	0	570	620	
2	0	0	0	0	568	616	
3	0	0	0	0	563	620	
4	0	0	0	0	559	620	
5	0	0	0	0	557	620	
6	0	0	0	0	556	624	
7	0	0	0	0	554	620	
8	0	0	0	0	554	620	
9	0	0	0	0	555	620	
10	0	0	0	0	556	617	
11	0	0	0	0	557	620	
12	0	0	0	0	558	621	
13	0	0	0	0	559	622	
14	0	0	0	0	559	624	
15	0	0	0	0	558	621	
0	0	0	0	0	557	621	
1	0	0	0	0	555	621	
2	0	0	0	0	553	617	
3	0	0	0	0	551	621	
4	0	0	0	0	551	621	
5	0	0	0	0	551	621	
6	0	0	0	0	553	624	
7	0	0	0	0	554	621	
8	0	0	0	0	553	621	
9	0	0	0	0	552	621	
10	0	0	0	0	551	616	
11	0	0	0	0	550	620	
12	0	0	0	0	548	621	
13	0	0	0	0	543	621	
14	0	0	0	0	537	625	
15	0	0	0	0	536	621	
0	0	0	0	0	537	621	
1	0	0	0	0	539	622	
2	0	0	0	0	539	617	
3	0	0	0	0	537	621	
4	0	0	0	0	536	621	
5	0	0	0	0	535	620	
6	0	0	0	0	534	625	
7	0	0	0	0	533	622	
8	0	0	0	0	531	621	
9	0	0	0	0	530	622	
10	0	0	0	0	529	618	
11	0	0	0	0	530	622	
12	0	0	0	0	529	622	
13	0	0	0	0	525	622	
14	0	0	0	0	519	625	
15	0	0	0	0	516	621	
0	0	0	0	0	517	622	
1	0	0	0	0	519	621	
2	0	0	0	0	520	617	
3	0	0	0	0	519	622	
4	0	0	0	0	518	622	
5	0	0	0	0	518	622	
6	0	0	0	0	520	626	
7	0	0	0	0	520	622	
8	0	0	0	0	518	622	
9	0	0	0	0	515	622	
10	0	0	0	0	515	618	
11	0	0	0	0	516	622	
12	0	0	0	0	515	623	
13	0	0	0	0	512	622	
14	0	0	0	0	510	626	
15	0	0	0	0	508	623	
0	0	0	0	0	505	623	
1	0	0	0	0	503	622	
2	0	0	0	0	499	619	
3	0	0	0	0	499	623	
4	0	0	0	0	499	624	
5	0	0	0	0	502	624	
6	0	0	0	0	504	627	
7	0	0	0	0	504	623	
8	0	0	0	0	505	624	
9	0	0	0	0	505	624	
10	0	0	0	0	503	620	
11	0	0	0	0	503	624	
12	0	0	0	0	503	623	
13	0	0	0	0	502	624	
14	0	0	0	0	502	627	
15	0	0	0	0	503	624	
0	0	0	0	0	503	623	
1	0	0	0	0	504	623	
2	0	0	0	0	505	620	
3	0	0	0	0	505	624	
4	0	0	0	0	505	623	
5	0	0	0	0	505	624	
6	0	0	0	0	505	627	
7	0	0	0	0	505	624	
8	0	0	0	0	507	624	
9	0	0	0	0	508	624	
10	0	0	0	0	509	620	
11	0	0	0	0	510	623	
12	0	0	0	0	510	623	
13	0	0	0	0	510	623	
14	0	0	0	0	510	627	
15	0	0	0	0	510	623	
0	0	0	0	0	511	623	
1	0	0	0	0	512	623	
2	0	0	0	0	513	620	
3	0	0	0	0	513	623	
4	0	0	0	0	512	623	
5	0	0	0	0	511	624	
6	0	0	0	0	510	626	
7	0	0	0	0	510	622	
8	0	0	0	0	510	623	
9	0	0	0	0	512	622	
10	0	0	0	0	514	618	
11	0	0	0	0	515	623	
12	0	0	0	0	516	622	
13	0	0	0	0	515	622	
14	0	0	0	0	515	626	
15	0	0	0	0	515	622	
0	0	0	0	0	514	621	
1	0	0	0	0	513	622	
2	0	0	0	0	515	619	
3	0	0	0	0	518	623	
4	0	0	0	0	520	623	
5	0	0	0	0	521	622	
6	0	0	0	0	522	625	
7	0	0	0	0	521	622	
8	0	0	0	0	520	622	
9	0	0	0	0	518	621	
10	0	0	0	0	519	618	
11	0	0	0	0	519	622	
12	0	0	0	0	519	622	
13	0	0	0	0	519	622	
14	0	0	0	0	519	625	
15	0	0	0	0	519	621	
0	0	0	0	0	518	622	
1	0	0	0	0	517	622	
2	0	0	0	0	518	618	
3	0	0	0	0	518	622	
4	0	0	0	0	517	621	
5	0	0	0	0	517	622	
6	0	0	0	0	516	625	
7	0	0	0	0	515	621	
8	0	0	0	0	515	621	
9	0	0	0	0	516	621	
10	0	0	0	0	516	617	
11	0	0	0	0	515	621	
12	0	0	0	0	515	621	
13	0	0	0	0	513	622	
14	0	0	0	0	512	624	
15	0	0	0	0	510	621	
0	0	0	0	0	508	622	
1	0	0	0	0	509	622	
2	0	0	0	0	509	617	
3	0	0	0	0	508	621	
4	0	0	0	0	506	622	
5	0	0	0	0	505	622	
6	0	0	0	0	507	625	
7	0	0	0	0	508	622	
8	0	0	0	0	508	622	
9	0	0	0	0	508	621	
10	0	0	0	0	508	618	
11	0	0	0	0	508	622	
12	0	0	0	0	509	622	
13	0	0	0	0	509	622	
14	0	0	0	0	508	625	
15	0	0	0	0	506	623	
0	0	0	0	0	505	623	
1	0	0	0	0	505	623	
2	0	0	0	0	504	620	
3	0	0	0	0	505	624	
4	0	0	0	0	505	623	
5	0	0	0	0	506	623	
6	0	0	0	0	506	627	
7	0	0	0	0	506	624	
8	0	0	0	0	506	624	
9	0	0	0	0	506	624	
10	0	0	0	0	507	620	
11	0	0	0	0	507	624	
12	0	0	0	0	506	625	
13	0	0	0	0	506	625	
14	0	0	0	0	505	628	
15	0	0	0	0	506	624	
0	0	0	0	0	507	625	
1	0	0	0	0	506	625	
2	0	0	0	0	506	621	
3	0	0	0	0	505	625	
4	0	0	0	0	503	625	
5	0	0	0	0	500	625	
6	0	0	0	0	499	628	
7	0	0	0	0	499	625	
8	0	0	0	0	499	625	
9	0	0	0	0	499	625	
10	0	0	0	0	499	621	
11	0	0	0	0	501	625	
12	0	0	0	0	504	625	
13	0	0	0	0	505	626	
14	0	0	0	0	505	630	
15	0	0	0	0	505	626	
0	0	0	0	0	504	626	
1	0	0	0	0	504	626	
2	0	0	0	0	504	622	
3	0	0	0	0	505	626	
4	0	0	0	0	507	627	
5	0	0	0	0	507	626	
6	0	0	0	0	508	629	
7	0	0	0	0	508	625	
8	0	0	0	0	508	625	
9	0	0	0	0	508	626	
10	0	0	0	0	508	622	
11	0	0	0	0	507	626	
12	0	0	0	0	505	625	
13	0	0	0	0	505	626	
14	0	0	0	0	506	630	
15	0	0	0	0	506	625	
0	0	0	0	0	506	626	
1	0	0	0	0	506	625	
2	0	0	0	0	506	622	
3	0	0	0	0	505	626	
4	0	0	0	0	505	626	
5	0	0	0	0	505	626	
6	0	0	0	0	504	630	
7	0	0	0	0	504	626	
8	0	0	0	0	504	626	
9	0	0	0	0	504	626	
10	0	0	0	0	504	622	
11	0	0	0	0	505	626	
12	0	0	0	0	507	627	
13	0	0	0	0	506	626	
14	0	0	0	0	506	630	
15	0	0	0	0	505	626	
0	0	0	0	0	503	626	
1	0	0	0	0	502	627	
2	0	0	0	0	502	623	
3	0	0	0	0	502	627	
4	0	0	0	0	502	627	
5	0	0	0	0	502	627	
6	0	0	0	0	501	630	
7	0	0	0	0	500	627	
8	0	0	0	0	500	627	
9	0	0	0	0	502	627	
10	0	0	0	0	503	623	
11	0	0	0	0	504	627	
12	0	0	0	0	504	627	
13	0	0	0	0	503	628	
14	0	0	0	0	504	631	
15	0	0	0	0	504	627	
0	0	0	0	0	505	627	
1	0	0	0	0	505	627	
2	0	0	0	0	504	623	
3	0	0	0	0	504	627	
4	0	0	0	0	503	627	
5	0	0	0	0	502	627	
6	0	0	0	0	500	630	
7	0	0	0	0	501	627	
8	0	0	0	0	502	627	
9	0	0	0	0	503	626	
10	0	0	0	0	502	622	
11	0	0	0	0	502	626	
12	0	0	0	0	502	626	
13	0	0	0	0	502	626	
14	0	0	0	0	501	629	
15	0	0	0	0	502	625	
0	0	0	0	0	501	625	
1	0	0	0	0	499	625	
2	0	0	0	0	499	622	
3	0	0	0	0	498	625	
4	0	0	0	0	498	625	
5	0	0	0	0	498	625	
6	0	0	0	0	497	628	
7	0	0	0	0	497	625	
8	0	0	0	0	496	624	
9	0	0	0	0	494	624	
10	0	0	0	0	491	621	
11	0	0	0	0	488	624	
12	0	0	0	0	486	624	
13	0	0	0	0	486	624	
14	0	0	0	0	487	628	
15	0	0	0	0	489	624	
0	0	0	0	0	490	624	
1	0	0	0	0	491	624	
2	0	0	0	0	490	620	
3	0	0	0	0	489	624	
4	0	0	0	0	487	624	
5	0	0	0	0	487	624	
6	0	0	0	0	487	627	
7	0	0	0	0	486	624	
8	0	0	0	0	486	624	
9	0	0	0	0	486	624	
10	0	0	0	0	484	620	
11	0	0	0	0	484	624	
12	0	0	0	0	485	624	
13	0	0	0	0	485	624	
14	0	0	0	0	486	627	
15	0	0	0	0	487	624	
0	0	0	0	0	486	623	
1	0	0	0	0	486	623	
2	0	0	0	0	487	620	
3	0	0	0	0	485	624	
4	0	0	0	0	484	623	
5	0	0	0	0	484	623	
6	0	0	0	0	484	626	
7	0	0	0	0	485	623	
8	0	0	0	0	484	623	
9	0	0	0	0	485	623	
10	0	0	0	0	486	619	
11	0	0	0	0	488	623	
12	0	0	0	0	489	622	
13	0	0	0	0	488	622	
14	0	0	0	0	488	626	
15	0	0	0	0	488	622	
0	0	0	0	0	488	622	
1	0	0	0	0	487	621	
2	0	0	0	0	487	618	
3	0	0	0	0	487	621	
4	0	0	0	0	487	622	
5	0	0	0	0	486	621	
6	0	0	0	0	486	625	
7	0	0	0	0	487	621	
8	0	0	0	0	488	620	
9	0	0	0	0	489	621	
10	0	0	0	0	489	617	
11	0	0	0	0	488	621	
12	0	0	0	0	487	620	
13	0	0	0	0	486	620	
14	0	0	0	0	487	623	
15	0	0	0	0	486	620	
0	0	0	0	0	485	620	
1	0	0	0	0	482	619	
2	0	0	0	0	480	615	
3	0	0	0	0	480	620	
4	0	0	0	0	481	619	
5	0	0	0	0	481	619	
6	0	0	0	0	482	622	
7	0	0	0	0	482	619	
8	0	0	0	0	482	619	
9	0	0	0	0	483	618	
10	0	0	0	0	486	615	
11	0	0	0	0	489	619	
12	0	0	0	0	491	618	
13	0	0	0	0	491	619	
14	0	0	0	0	492	622	
15	0	0	0	0	491	619	
0	0	0	0	0	491	619	
1	0	0	0	0	491	618	
2	0	0	0	0	491	615	
3	0	0	0	0	492	619	
4	0	0	0	0	492	618	
5	0	0	0	0	493	619	
6	0	0	0	0	492	622	
7	0	0	0	0	494	619	
8	0	0	0	0	493	619	
9	0	0	0	0	492	619	
10	0	0	0	0	491	615	
11	0	0	0	0	491	618	
12	0	0	0	0	491	619	
13	0	0	0	0	491	619	
14	0	0	0	0	489	622	
15	0	0	0	0	488	619	
0	0	0	0	0	490	619	
1	0	0	0	0	493	619	
2	0	0	0	0	495	615	
3	0	0	0	0	495	619	
4	0	0	0	0	495	619	
5	0	0	0	0	495	620	
6	0	0	0	0	495	623	
7	0	0	0	0	494	619	
8	0	0	0	0	494	619	
9	0	0	0	0	493	619	
10	0	0	0	0	493	615	
11	0	0	0	0	492	620	
12	0	0	0	0	492	620	
13	0	0	0	0	490	620	
14	0	0	0	0	491	624	
15	0	0	0	0	491	620	
0	0	0	0	0	491	621	
1	0	0	0	0	491	621	
2	0	0	0	0	492	617	
3	0	0	0	0	493	621	
4	0	0	0	0	495	621	
5	0	0	0	0	494	622	
6	0	0	0	0	494	625	
7	0	0	0	0	494	622	
8	0	0	0	0	494	621	
9	0	0	0	0	495	622	
10	0	0	0	0	494	618	
11	0	0	0	0	493	622	
12	0	0	0	0	492	622	
13	0	0	0	0	492	623	
14	0	0	0	0	492	626	
15	0	0	0	0	494	623	
0	0	0	0	0	494	623	
1	0	0	0	0	494	623	
2	0	0	0	0	492	619	
3	0	0	0	0	491	623	
4	0	0	0	0	492	623	
5	0	0	0	0	494	623	
6	0	0	0	0	499	627	
7	0	0	0	0	508	624	
8	0	0	0	0	518	624	
9	0	0	0	0	524	624	
10	0	0	0	0	528	620	
11	0	0	0	0	534	624	
12	0	0	0	0	538	625	
13	0	0	0	0	544	624	
14	0	0	0	0	553	628	
15	0	0	0	0	560	625	
0	0	0	0	0	563	625	
1	0	0	0	0	567	625	
2	0	0	0	0	568	622	
3	0	0	0	0	568	625	
4	0	0	0	0	567	625	
5	0	0	0	0	565	625	
6	0	0	0	0	558	629	
7	0	0	0	0	545	625	
8	0	0	0	0	532	625	
9	0	0	0	0	517	626	
10	0	0	0	0	499	622	
11	0	0	0	0	480	626	
12	0	0	0	0	456	627	
13	0	0	0	0	427	627	
14	0	0	0	0	394	630	
15	0	0	0	0	354	627	
0	0	0	0	0	310	626	
1	0	0	0	0	265	627	
2	0	0	0	0	219	622	
3	0	0	0	0	175	626	
4	0	0	0	0	141	626	
5	0	0	0	0	115	627	
6	0	0	0	0	96	630	
7	0	0	0	0	88	627	
8	0	0	0	0	86	626	
9	0	0	0	0	94	627	
10	0	0	0	0	112	623	
11	0	0	0	0	135	627	
12	0	0	0	0	166	627	
13	0	0	0	0	208	627	
14	0	0	0	0	254	630	
15	0	0	0	0	294	627	
0	0	0	0	0	329	627	
1	0	0	0	0	356	627	
2	0	0	0	0	372	623	
3	0	0	0	0	381	627	
4	0	0	0	0	384	627	
5	0	0	0	0	385	627	
6	0	0	0	0	382	631	
7	0	0	0	0	380	626	
8	0	0	0	0	379	627	
9	0	0	0	0	383	627	
10	0	0	0	0	390	622	
11	0	0	0	0	398	626	
12	0	0	0	0	405	626	
13	0	0	0	0	413	626	
14	0	0	0	0	421	630	
15	0	0	0	0	429	626	
0	0	0	0	0	438	626	
1	0	0	0	0	447	626	
2	0	0	0	0	455	621	
3	0	0	0	0	465	626	
4	0	0	0	0	474	625	
5	0	0	0	0	485	625	
6	0	0	0	0	495	629	
7	0	0	0	0	506	625	
8	0	0	0	0	516	625	
9	0	0	0	0	525	624	
10	0	0	0	0	532	621	
11	0	0	0	0	537	624	
12	0	0	0	0	543	624	
13	0	0	0	0	547	624	
14	0	0	0	0	549	628	
15	0	0	0	0	551	624	
0	0	0	0	0	554	624	
1	0	0	0	0	556	623	
2	0	0	0	0	559	620	
3	0	0	0	0	562	624	
4	0	0	0	0	565	623	
5	0	0	0	0	568	623	
6	0	0	0	0	571	626	
7	0	0	0	0	566	623	
8	0	0	0	0	558	622	
9	0	0	0	0	558	622	
10	0	0	0	0	564	619	
11	0	0	0	0	569	622	
12	0	0	0	0	566	622	
13	0	0	0	0	561	623	
14	0	0	0	0	553	626	
15	0	0	0	0	544	622	
0	0	0	0	0	540	622	
1	0	0	0	0	548	622	
2	0	0	0	0	561	618	
3	0	0	0	0	568	622	
4	0	0	0	0	571	621	
5	0	0	0	0	579	622	
6	0	0	0	0	587	625	
7	0	0	0	0	593	620	
8	0	0	0	0	595	621	
9	0	0	0	0	591	620	
10	0	0	0	0	583	617	
11	0	0	0	0	572	620	
12	0	0	0	0	566	620	
13	0	0	0	0	563	621	
14	0	0	0	0	563	624	
15	0	0	0	0	563	620	
0	0	0	0	0	565	620	
1	0	0	0	0	562	620	
2	0	0	0	0	556	616	
3	0	0	0	0	560	620	
4	0	0	0	0	568	620	
5	0	0	0	0	577	620	
6	0	0	0	0	582	624	
7	0	0	0	0	585	620	
8	0	0	0	0	588	620	
9	0	0	0	0	589	620	
10	0	0	0	0	589	616	
11	0	0	0	0	591	620	
12	0	0	0	0	592	620	
13	0	0	0	0	590	620	
14	0	0	0	0	585	623	
15	0	0	0	0	580	621	
0	0	0	0	0	576	620	
1	0	0	0	0	573	621	
2	0	0	0	0	571	616	
3	0	0	0	0	569	621	
4	0	0	0	0	567	620	
5	0	0	0	0	566	621	
6	0	0	0	0	566	625	
7	0	0	0	0	567	622	
8	0	0	0	0	566	622	
9	0	0	0	0	562	621	
10	0	0	0	0	561	618	
11	0	0	0	0	563	623	
12	0	0	0	0	564	623	
13	0	0	0	0	566	623	
14	0	0	0	0	567	626	
15	0	0	0	0	567	623	
0	0	0	0	0	567	624	
1	0	0	0	0	566	623	
2	0	0	0	0	564	620	
3	0	0	0	0	562	624	
4	0	0	0	0	562	623	
5	0	0	0	0	561	624	
6	0	0	0	0	559	627	
7	0	0	0	0	557	623	
8	0	0	0	0	554	623	
9	0	0	0	0	554	624	
10	0	0	0	0	552	620	
11	0	0	0	0	550	624	
12	0	0	0	0	550	624	
13	0	0	0	0	550	624	
14	0	0	0	0	551	627	
15	0	0	0	0	551	624	
0	0	0	0	0	550	624	
1	0	0	0	0	548	624	
2	0	0	0	0	547	621	
3	0	0	0	0	545	624	
4	0	0	0	0	543	624	
5	0	0	0	0	540	625	
6	0	0	0	0	538	629	
7	0	0	0	0	538	625	
8	0	0	0	0	535	625	
9	0	0	0	0	531	625	
10	0	0	0	0	529	622	
11	0	0	0	0	528	626	
12	0	0	0	0	530	626	
13	0	0	0	0	535	625	
14	0	0	0	0	538	630	
15	0	0	0	0	539	627	
0	0	0	0	0	539	627	
1	0	0	0	0	537	626	
2	0	0	0	0	532	623	
3	0	0	0	0	531	627	
4	0	0	0	0	532	627	
5	0	0	0	0	533	627	
6	0	0	0	0	520	630	
7	0	0	0	0	508	627	
8	0	0	0	0	504	627	
9	0	0	0	0	507	627	
10	0	0	0	0	507	623	
11	0	0	0	0	507	628	
12	0	0	0	0	506	627	
13	0	0	0	0	507	628	
14	0	0	0	0	507	631	
15	0	0	0	0	509	627	
0	0	0	0	0	512	626	
1	0	0	0	0	516	627	
2	0	0	0	0	517	623	
3	0	0	0	0	515	627	
4	0	0	0	0	512	627	
5	0	0	0	0	509	627	
6	0	0	0	0	510	630	
7	0	0	0	0	507	626	
8	0	0	0	0	502	626	
9	0	0	0	0	498	626	
10	0	0	0	0	498	622	
11	0	0	0	0	499	626	
12	0	0	0	0	502	626	
13	0	0	0	0	508	625	
14	0	0	0	0	514	630	
15	0	0	0	0	515	626	
0	0	0	0	0	513	625	
1	0	0	0	0	507	626	
2	0	0	0	0	496	622	
3	0	0	0	0	493	625	
4	0	0	0	0	496	625	
5	0	0	0	0	497	625	
6	0	0	0	0	497	628	
7	0	0	0	0	499	625	
8	0	0	0	0	496	625	
9	0	0	0	0	487	625	
10	0	0	0	0	486	621	
11	0	0	0	0	490	625	
12	0	0	0	0	495	624	
13	0	0	0	0	501	624	
14	0	0	0	0	504	628	
15	0	0	0	0	507	624	
0	0	0	0	0	512	624	
1	0	0	0	0	514	624	
2	0	0	0	0	513	620	
3	0	0	0	0	508	624	
4	0	0	0	0	500	624	
5	0	0	0	0	497	624	
6	0	0	0	0	498	627	
7	0	0	0	0	499	623	
8	0	0	0	0	496	623	
9	0	0	0	0	494	623	
10	0	0	0	0	495	619	
11	0	0	0	0	496	622	
12	0	0	0	0	498	622	
13	0	0	0	0	496	622	
14	0	0	0	0	503	625	
15	0	0	0	0	519	622	
0	0	0	0	0	532	622	
1	0	0	0	0	531	622	
2	0	0	0	0	513	617	
3	0	0	0	0	504	621	
4	0	0	0	0	509	620	
5	0	0	0	0	523	621	
6	0	0	0	0	538	624	
7	0	0	0	0	537	621	
8	0	0	0	0	532	621	
9	0	0	0	0	534	620	
10	0	0	0	0	536	617	
11	0	0	0	0	526	621	
12	0	0	0	0	504	620	
13	0	0	0	0	486	620	
14	0	0	0	0	477	624	
15	0	0	0	0	476	620	
0	0	0	0	0	491	621	
1	0	0	0	0	494	621	
2	0	0	0	0	503	617	
3	0	0	0	0	511	621	
4	0	0	0	0	516	621	
5	0	0	0	0	532	621	
6	0	0	0	0	549	624	
7	0	0	0	0	538	621	
8	0	0	0	0	509	622	
9	0	0	0	0	490	621	
10	0	0	0	0	494	617	
11	0	0	0	0	526	621	
12	0	0	0	0	556	621	
13	0	0	0	0	583	621	
14	0	0	0	0	580	624	
15	0	0	0	0	566	622	
0	0	0	0	0	556	621	
1	0	0	0	0	561	621	
2	0	0	0	0	576	617	
3	0	0	0	0	583	621	
4	0	0	0	0	585	621	
5	0	0	0	0	581	621	
6	0	0	0	0	583	624	
7	0	0	0	0	570	621	
8	0	0	0	0	558	622	
9	0	0	0	0	547	622	
10	0	0	0	0	539	619	
11	0	0	0	0	531	622	
12	0	0	0	0	531	622	
13	0	0	0	0	536	622	
14	0	0	0	0	538	625	
15	0	0	0	0	532	623	
0	0	0	0	0	525	623	
1	0	0	0	0	518	622	
2	0	0	0	0	505	619	
3	0	0	0	0	509	622	
4	0	0	0	0	524	622	
5	0	0	0	0	540	622	
6	0	0	0	0	545	625	
7	0	0	0	0	540	622	
8	0	0	0	0	525	622	
9	0	0	0	0	503	621	
10	0	0	0	0	472	617	
11	0	0	0	0	478	622	
12	0	0	0	0	495	622	
13	0	0	0	0	498	622	
14	0	0	0	0	506	625	
15	0	0	0	0	531	622	
0	0	0	0	0	553	621	
1	0	0	0	0	546	621	
2	0	0	0	0	530	618	
3	0	0	0	0	517	621	
4	0	0	0	0	506	621	
5	0	0	0	0	499	622	
6	0	0	0	0	478	625	
7	0	0	0	0	476	622	
8	0	0	0	0	488	622	
9	0	0	0	0	497	623	
10	0	0	0	0	506	619	
11	0	0	0	0	500	622	
12	0	0	0	0	503	623	
13	0	0	0	0	519	624	
14	0	0	0	0	527	627	
15	0	0	0	0	532	625	
0	0	0	0	0	536	624	
1	0	0	0	0	544	624	
2	0	0	0	0	546	620	
3	0	0	0	0	545	624	
4	0	0	0	0	532	624	
5	0	0	0	0	512	624	
6	0	0	0	0	512	628	
7	0	0	0	0	520	624	
8	0	0	0	0	520	625	
9	0	0	0	0	503	625	
10	0	0	0	0	499	621	
11	0	0	0	0	521	625	
12	0	0	0	0	542	625	
13	0	0	0	0	548	626	
14	0	0	0	0	550	629	
15	0	0	0	0	547	625	
0	0	0	0	0	543	625	
1	0	0	0	0	528	625	
2	0	0	0	0	524	622	
3	0	0	0	0	515	627	
4	0	0	0	0	521	626	
5	0	0	0	0	540	627	
6	0	0	0	0	556	630	
7	0	0	0	0	565	627	
8	0	0	0	0	569	627	
9	0	0	0	0	564	627	
10	0	0	0	0	548	624	
11	0	0	0	0	537	627	
12	0	0	0	0	525	627	
13	0	0	0	0	510	628	
14	0	0	0	0	513	632	
15	0	0	0	0	519	628	
0	0	0	0	0	515	628	
1	0	0	0	0	530	629	
2	0	0	0	0	542	625	
3	0	0	0	0	540	628	
4	0	0	0	0	539	629	
5	0	0	0	0	537	629	
6	0	0	0	0	531	632	
7	0	0	0	0	524	629	
8	0	0	0	0	512	629	
9	0	0	0	0	505	629	
10	0	0	0	0	508	625	
11	0	0	0	0	513	630	
12	0	0	0	0	516	630	
13	0	0	0	0	521	630	
14	0	0	0	0	527	633	
15	0	0	0	0	535	630	
0	0	0	0	0	544	631	
1	0	0	0	0	548	630	
2	0	0	0	0	540	627	
3	0	0	0	0	520	630	
4	0	0	0	0	514	631	
5	0	0	0	0	521	631	
6	0	0	0	0	527	635	
7	0	0	0	0	537	631	
8	0	0	0	0	549	631	
9	0	0	0	0	556	630	
10	0	0	0	0	552	626	
11	0	0	0	0	549	630	
12	0	0	0	0	543	631	
13	0	0	0	0	534	631	
14	0	0	0	0	534	634	
15	0	0	0	0	544	631	
0	0	0	0	0	545	630	
1	0	0	0	0	546	630	
2	0	0	0	0	552	627	
3	0	0	0	0	551	630	
4	0	0	0	0	541	631	
5	0	0	0	0	517	630	
6	0	0	0	0	510	634	
7	0	0	0	0	521	630	
8	0	0	0	0	537	630	
9	0	0	0	0	539	630	
10	0	0	0	0	534	626	
11	0	0	0	0	519	629	
12	0	0	0	0	503	629	
13	0	0	0	0	495	628	
14	0	0	0	0	503	632	
15	0	0	0	0	513	628	
0	0	0	0	0	516	627	
1	0	0	0	0	522	627	
2	0	0	0	0	537	623	
3	0	0	0	0	548	626	
4	0	0	0	0	539	626	
5	0	0	0	0	513	626	
6	0	0	0	0	510	629	
7	0	0	0	0	519	625	
8	0	0	0	0	527	625	
9	0	0	0	0	536	625	
10	0	0	0	0	540	621	
11	0	0	0	0	540	624	
12	0	0	0	0	541	624	
13	0	0	0	0	538	624	
14	0	0	0	0	530	627	
15	0	0	0	0	520	623	
0	0	0	0	0	508	623	
1	0	0	0	0	500	622	
2	0	0	0	0	478	618	
3	0	0	0	0	465	622	
4	0	0	0	0	471	622	
5	0	0	0	0	491	622	
6	0	0	0	0	513	625	
7	0	0	0	0	519	620	
8	0	0	0	0	521	620	
9	0	0	0	0	526	620	
10	0	0	0	0	532	616	
11	0	0	0	0	532	620	
12	0	0	0	0	516	620	
13	0	0	0	0	491	620	
14	0	0	0	0	478	622	
15	0	0	0	0	482	619	
0	0	0	0	0	498	618	
1	0	0	0	0	513	617	
2	0	0	0	0	514	614	
3	0	0	0	0	508	617	
4	0	0	0	0	505	616	
5	0	0	0	0	500	616	
6	0	0	0	0	499	620	
7	0	0	0	0	498	616	
8	0	0	0	0	500	615	
9	0	0	0	0	503	615	
10	0	0	0	0	501	611	
11	0	0	0	0	494	615	
12	0	0	0	0	495	615	
13	0	0	0	0	502	614	
14	0	0	0	0	503	618	
15	0	0	0	0	497	614	
0	0	0	0	0	494	614	
1	0	0	0	0	503	614	
2	0	0	0	0	510	609	
3	0	0	0	0	491	613	
4	0	0	0	0	478	614	
5	0	0	0	0	480	614	
6	0	0	0	0	497	616	
7	0	0	0	0	504	612	
8	0	0	0	0	487	612	
9	0	0	0	0	479	612	
10	0	0	0	0	484	608	
11	0	0	0	0	498	612	
12	0	0	0	0	513	612	
13	0	0	0	0	529	612	
14	0	0	0	0	530	615	
15	0	0	0	0	525	611	
0	0	0	0	0	507	611	
1	0	0	0	0	500	611	
2	0	0	0	0	511	607	
3	0	0	0	0	535	611	
4	0	0	0	0	539	611	
5	0	0	0	0	531	611	
6	0	0	0	0	517	614	
7	0	0	0	0	502	611	
8	0	0	0	0	492	611	
9	0	0	0	0	494	611	
10	0	0	0	0	493	607	
11	0	0	0	0	496	611	
12	0	0	0	0	488	611	
13	0	0	0	0	478	611	
14	0	0	0	0	476	615	
15	0	0	0	0	475	611	
0	0	0	0	0	485	612	
1	0	0	0	0	497	613	
2	0	0	0	0	504	609	
3	0	0	0	0	519	613	
4	0	0	0	0	526	615	
5	0	0	0	0	524	615	
6	0	0	0	0	527	617	
7	0	0	0	0	533	614	
8	0	0	0	0	535	615	
9	0	0	0	0	525	615	
10	0	0	0	0	513	612	
11	0	0	0	0	510	616	
12	0	0	0	0	511	616	
13	0	0	0	0	511	617	
14	0	0	0	0	503	621	
15	0	0	0	0	499	618	
0	0	0	0	0	495	618	
1	0	0	0	0	483	619	
2	0	0	0	0	481	615	
3	0	0	0	0	484	619	
4	0	0	0	0	484	619	
5	0	0	0	0	487	620	
6	0	0	0	0	483	623	
7	0	0	0	0	481	620	
8	0	0	0	0	496	620	
9	0	0	0	0	510	620	
10	0	0	0	0	510	617	
11	0	0	0	0	491	620	
12	0	0	0	0	452	621	
13	0	0	0	0	428	621	
14	0	0	0	0	428	625	
15	0	0	0	0	459	622	
0	0	0	0	0	489	622	
1	0	0	0	0	511	622	
2	0	0	0	0	527	619	
3	0	0	0	0	525	623	
4	0	0	0	0	520	624	
5	0	0	0	0	511	625	
6	0	0	0	0	508	628	
7	0	0	0	0	518	625	
8	0	0	0	0	513	625	
9	0	0	0	0	507	625	
10	0	0	0	0	525	622	
11	0	0	0	0	544	626	
12	0	0	0	0	537	626	
13	0	0	0	0	529	626	
14	0	0	0	0	525	630	
15	0	0	0	0	518	626	
0	0	0	0	0	503	627	
1	0	0	0	0	480	627	
2	0	0	0	0	463	623	
3	0	0	0	0	461	628	
4	0	0	0	0	473	629	
5	0	0	0	0	489	628	
6	0	0	0	0	493	632	
7	0	0	0	0	493	629	
8	0	0	0	0	512	629	
9	0	0	0	0	521	629	
10	0	0	0	0	523	626	
11	0	0	0	0	519	630	
12	0	0	0	0	516	629	
13	0	0	0	0	516	630	
14	0	0	0	0	525	633	
15	0	0	0	0	525	630	
0	0	0	0	0	518	630	
1	0	0	0	0	532	629	
2	0	0	0	0	552	627	
3	0	0	0	0	567	630	
4	0	0	0	0	561	630	
5	0	0	0	0	561	630	
6	0	0	0	0	565	633	
7	0	0	0	0	560	630	
8	0	0	0	0	551	630	
9	0	0	0	0	552	630	
10	0	0	0	0	539	626	
11	0	0	0	0	516	629	
12	0	0	0	0	497	630	
13	0	0	0	0	479	629	
14	0	0	0	0	473	633	
15	0	0	0	0	465	629	
0	0	0	0	0	469	628	
1	0	0	0	0	465	629	
2	0	0	0	0	449	625	
3	0	0	0	0	438	629	
4	0	0	0	0	431	630	
5	0	0	0	0	417	630	
6	0	0	0	0	387	633	
7	0	0	0	0	352	630	
8	0	0	0	0	303	629	
9	0	0	0	0	254	629	
10	0	0	0	0	216	625	
11	0	0	0	0	195	629	
12	0	0	0	0	183	628	
13	0	0	0	0	177	629	
14	0	0	0	0	187	632	
15	0	0	0	0	207	629	
0	0	0	0	0	211	629	
1	0	0	0	0	240	629	
2	0	0	0	0	280	625	
3	0	0	0	0	322	629	
4	0	0	0	0	373	629	
5	0	0	0	0	417	629	
6	0	0	0	0	447	633	
7	0	0	0	0	456	629	
8	0	0	0	0	451	629	
9	0	0	0	0	448	629	
10	0	0	0	0	438	625	
11	0	0	0	0	429	629	
12	0	0	0	0	428	629	
13	0	0	0	0	424	630	
14	0	0	0	0	413	633	
15	0	0	0	0	411	630	
0	0	0	0	0	414	629	
1	0	0	0	0	415	629	
2	0	0	0	0	423	625	
3	0	0	0	0	418	629	
4	0	0	0	0	414	629	
5	0	0	0	0	422	629	
6	0	0	0	0	442	633	
7	0	0	0	0	454	629	
8	0	0	0	0	473	628	
9	0	0	0	0	488	629	
10	0	0	0	0	489	624	
11	0	0	0	0	484	628	
12	0	0	0	0	480	629	
13	0	0	0	0	489	628	
14	0	0	0	0	508	632	
15	0	0	0	0	503	628	
0	0	0	0	0	478	627	
1	0	0	0	0	480	627	
2	0	0	0	0	516	624	
3	0	0	0	0	545	626	
4	0	0	0	0	562	627	
5	0	0	0	0	559	626	
6	0	0	0	0	542	630	
7	0	0	0	0	533	626	
8	0	0	0	0	536	625	
9	0	0	0	0	534	625	
10	0	0	0	0	531	621	
11	0	0	0	0	527	624	
12	0	0	0	0	536	624	
13	0	0	0	0	540	624	
14	0	0	0	0	541	627	
15	0	0	0	0	556	624	
0	0	0	0	0	569	623	
1	0	0	0	0	574	623	
2	0	0	0	0	578	619	
3	0	0	0	0	579	622	
4	0	0	0	0	576	622	
5	0	0	0	0	573	622	
6	0	0	0	0	568	625	
7	0	0	0	0	563	622	
8	0	0	0	0	557	621	
9	0	0	0	0	551	621	
10	0	0	0	0	552	616	
11	0	0	0	0	554	620	
12	0	0	0	0	556	620	
13	0	0	0	0	553	620	
14	0	0	0	0	550	623	
15	0	0	0	0	552	620	
0	0	0	0	0	557	619	
1	0	0	0	0	556	619	
2	0	0	0	0	554	615	
3	0	0	0	0	550	618	
4	0	0	0	0	543	619	
5	0	0	0	0	539	619	
6	0	0	0	0	530	622	
7	0	0	0	0	529	618	
8	0	0	0	0	534	618	
9	0	0	0	0	546	619	
10	0	0	0	0	556	614	
11	0	0	0	0	554	619	
12	0	0	0	0	542	619	
13	0	0	0	0	525	619	
14	0	0	0	0	516	623	
15	0	0	0	0	521	619	
0	0	0	0	0	533	619	
1	0	0	0	0	539	619	
2	0	0	0	0	541	615	
3	0	0	0	0	546	619	
4	0	0	0	0	553	619	
5	0	0	0	0	546	619	
6	0	0	0	0	534	622	
7	0	0	0	0	527	619	
8	0	0	0	0	534	619	
9	0	0	0	0	528	619	
10	0	0	0	0	511	616	
11	0	0	0	0	470	619	
12	0	0	0	0	453	620	
13	0	0	0	0	483	619	
14	0	0	0	0	521	623	
15	0	0	0	0	560	620	
0	0	0	0	0	577	620	
1	0	0	0	0	572	620	
2	0	0	0	0	555	616	
3	0	0	0	0	535	620	
4	0	0	0	0	517	620	
5	0	0	0	0	525	620	
6	0	0	0	0	533	623	
7	0	0	0	0	537	621	
8	0	0	0	0	545	620	
9	0	0	0	0	554	621	
10	0	0	0	0	556	617	
11	0	0	0	0	533	620	
12	0	0	0	0	519	621	
13	0	0	0	0	521	621	
14	0	0	0	0	536	625	
15	0	0	0	0	542	620	
0	0	0	0	0	546	621	
1	0	0	0	0	549	621	
2	0	0	0	0	551	617	
3	0	0	0	0	547	622	
4	0	0	0	0	546	621	
5	0	0	0	0	570	622	
6	0	0	0	0	580	626	
7	0	0	0	0	577	622	
8	0	0	0	0	560	622	
9	0	0	0	0	543	623	
10	0	0	0	0	515	619	
11	0	0	0	0	501	623	
12	0	0	0	0	492	624	
13	0	0	0	0	504	624	
14	0	0	0	0	530	628	
15	0	0	0	0	528	625	
0	0	0	0	0	512	625	
1	0	0	0	0	495	625	
2	0	0	0	0	493	622	
3	0	0	0	0	506	626	
4	0	0	0	0	527	626	
5	0	0	0	0	553	626	
6	0	0	0	0	556	630	
7	0	0	0	0	546	627	
8	0	0	0	0	533	627	
9	0	0	0	0	507	627	
10	0	0	0	0	493	624	
11	0	0	0	0	489	628	
12	0	0	0	0	496	628	
13	0	0	0	0	500	629	
14	0	0	0	0	498	632	
15	0	0	0	0	481	628	
0	0	0	0	0	468	629	
1	0	0	0	0	475	629	
2	0	0	0	0	485	625	
3	0	0	0	0	494	630	
4	0	0	0	0	493	629	
5	0	0	0	0	491	629	
6	0	0	0	0	486	633	
7	0	0	0	0	470	630	
8	0	0	0	0	470	630	
9	0	0	0	0	483	631	
10	0	0	0	0	489	627	
11	0	0	0	0	489	631	
12	0	0	0	0	491	631	
13	0	0	0	0	490	631	
14	0	0	0	0	487	635	
15	0	0	0	0	489	632	
0	0	0	0	0	484	631	
1	0	0	0	0	476	632	
2	0	0	0	0	469	627	
3	0	0	0	0	469	631	
4	0	0	0	0	477	632	
5	0	0	0	0	487	631	
6	0	0	0	0	484	634	
7	0	0	0	0	479	631	
8	0	0	0	0	474	631	
9	0	0	0	0	467	631	
10	0	0	0	0	463	627	
11	0	0	0	0	461	630	
12	0	0	0	0	461	631	
13	0	0	0	0	465	631	
14	0	0	0	0	473	634	
15	0	0	0	0	477	630	
0	0	0	0	0	475	630	
1	0	0	0	0	464	630	
2	0	0	0	0	466	626	
3	0	0	0	0	480	629	
4	0	0	0	0	494	630	
5	0	0	0	0	496	629	
6	0	0	0	0	492	633	
7	0	0	0	0	494	629	
8	0	0	0	0	489	629	
9	0	0	0	0	489	628	
10	0	0	0	0	489	625	
11	0	0	0	0	487	628	
12	0	0	0	0	484	628	
13	0	0	0	0	491	628	
14	0	0	0	0	501	631	
15	0	0	0	0	504	627	
0	0	0	0	0	500	627	
1	0	0	0	0	495	627	
2	0	0	0	0	491	622	
3	0	0	0	0	493	625	
4	0	0	0	0	493	624	
5	0	0	0	0	492	624	
6	0	0	0	0	493	628	
7	0	0	0	0	496	624	
8	0	0	0	0	501	623	
9	0	0	0	0	505	622	
10	0	0	0	0	507	618	
11	0	0	0	0	508	621	
12	0	0	0	0	511	620	
13	0	0	0	0	511	620	
14	0	0	0	0	509	623	
15	0	0	0	0	506	619	
0	0	0	0	0	501	618	
1	0	0	0	0	493	617	
2	0	0	0	0	491	614	
3	0	0	0	0	497	617	
4	0	0	0	0	504	617	
5	0	0	0	0	512	616	
6	0	0	0	0	518	620	
7	0	0	0	0	521	616	
8	0	0	0	0	520	616	
9	0	0	0	0	519	615	
10	0	0	0	0	516	611	
11	0	0	0	0	512	616	
12	0	0	0	0	510	615	
13	0	0	0	0	513	615	
14	0	0	0	0	515	619	
15	0	0	0	0	518	616	
0	0	0	0	0	524	616	
1	0	0	0	0	526	616	
2	0	0	0	0	523	612	
3	0	0	0	0	521	615	
4	0	0	0	0	528	616	
5	0	0	0	0	533	617	
6	0	0	0	0	535	620	
7	0	0	0	0	522	616	
8	0	0	0	0	502	616	
9	0	0	0	0	487	615	
10	0	0	0	0	496	612	
11	0	0	0	0	503	616	
12	0	0	0	0	515	616	
13	0	0	0	0	511	616	
14	0	0	0	0	504	620	
15	0	0	0	0	526	616	
0	0	0	0	0	551	616	
1	0	0	0	0	555	615	
2	0	0	0	0	536	612	
3	0	0	0	0	538	617	
4	0	0	0	0	553	616	
5	0	0	0	0	537	616	
6	0	0	0	0	520	620	
7	0	0	0	0	488	616	
8	0	0	0	0	482	617	
9	0	0	0	0	509	617	
10	0	0	0	0	553	614	
11	0	0	0	0	586	618	
12	0	0	0	0	599	617	
13	0	0	0	0	603	618	
14	0	0	0	0	601	622	
15	0	0	0	0	602	618	
0	0	0	0	0	600	618	
1	0	0	0	0	590	619	
2	0	0	0	0	583	615	
3	0	0	0	0	575	620	
4	0	0	0	0	564	620	
5	0	0	0	0	550	621	
6	0	0	0	0	522	624	
7	0	0	0	0	498	621	
8	0	0	0	0	491	622	
9	0	0	0	0	490	621	
10	0	0	0	0	487	618	
11	0	0	0	0	488	623	
12	0	0	0	0	482	623	
13	0	0	0	0	485	624	
14	0	0	0	0	480	628	
15	0	0	0	0	480	624	
0	0	0	0	0	504	624	
1	0	0	0	0	531	625	
2	0	0	0	0	547	622	
3	0	0	0	0	548	626	
4	0	0	0	0	544	626	
5	0	0	0	0	555	626	
6	0	0	0	0	560	630	
7	0	0	0	0	552	627	
8	0	0	0	0	557	627	
9	0	0	0	0	567	627	
10	0	0	0	0	572	624	
11	0	0	0	0	576	628	
12	0	0	0	0	573	629	
13	0	0	0	0	563	630	
14	0	0	0	0	547	633	
15	0	0	0	0	547	630	
0	0	0	0	0	552	631	
1	0	0	0	0	553	632	
2	0	0	0	0	542	628	
3	0	0	0	0	531	632	
4	0	0	0	0	529	633	
5	0	0	0	0	529	633	
6	0	0	0	0	535	637	
7	0	0	0	0	533	634	
8	0	0	0	0	531	634	
9	0	0	0	0	528	634	
10	0	0	0	0	523	631	
11	0	0	0	0	513	635	
12	0	0	0	0	512	636	
13	0	0	0	0	513	636	
14	0	0	0	0	513	639	
15	0	0	0	0	506	636	
0	0	0	0	0	503	636	
1	0	0	0	0	498	636	
2	0	0	0	0	492	632	
3	0	0	0	0	482	636	
4	0	0	0	0	478	636	
5	0	0	0	0	485	636	
6	0	0	0	0	493	639	
7	0	0	0	0	492	635	
8	0	0	0	0	485	635	
9	0	0	0	0	486	635	
10	0	0	0	0	495	632	
11	0	0	0	0	501	636	
12	0	0	0	0	495	636	
13	0	0	0	0	487	636	
14	0	0	0	0	491	638	
15	0	0	0	0	499	635	
0	0	0	0	0	508	635	
1	0	0	0	0	516	635	
2	0	0	0	0	522	631	
3	0	0	0	0	520	635	
4	0	0	0	0	509	635	
5	0	0	0	0	499	634	
6	0	0	0	0	496	638	
7	0	0	0	0	500	634	
8	0	0	0	0	516	633	
9	0	0	0	0	513	633	
10	0	0	0	0	511	629	
11	0	0	0	0	514	632	
12	0	0	0	0	511	632	
13	0	0	0	0	505	631	
14	0	0	0	0	499	635	
15	0	0	0	0	502	630	
0	0	0	0	0	505	629	
1	0	0	0	0	499	628	
2	0	0	0	0	492	624	
3	0	0	0	0	487	627	
4	0	0	0	0	492	626	
5	0	0	0	0	495	625	
6	0	0	0	0	489	627	
7	0	0	0	0	492	623	
8	0	0	0	0	497	622	
9	0	0	0	0	502	621	
10	0	0	0	0	500	615	
11	0	0	0	0	497	619	
12	0	0	0	0	495	618	
13	0	0	0	0	495	617	
14	0	0	0	0	497	620	
15	0	0	0	0	499	615	
0	0	0	0	0	497	615	
1	0	0	0	0	497	614	
2	0	0	0	0	497	609	
3	0	0	0	0	497	612	
4	0	0	0	0	497	612	
5	0	0	0	0	495	612	
6	0	0	0	0	493	614	
7	0	0	0	0	493	610	
8	0	0	0	0	494	609	
9	0	0	0	0	495	608	
10	0	0	0	0	495	604	
11	0	0	0	0	496	608	
12	0	0	0	0	495	607	
13	0	0	0	0	493	606	
14	0	0	0	0	493	609	
15	0	0	0	0	494	605	
0	0	0	0	0	495	604	
1	0	0	0	0	497	604	
2	0	0	0	0	496	600	
3	0	0	0	0	497	603	
4	0	0	0	0	497	602	
5	0	0	0	0	499	602	
6	0	0	0	0	499	605	
7	0	0	0	0	501	602	
8	0	0	0	0	501	601	
9	0	0	0	0	502	601	
10	0	0	0	0	501	597	
11	0	0	0	0	502	601	
12	0	0	0	0	500	601	
13	0	0	0	0	500	601	
14	0	0	0	0	501	605	
15	0	0	0	0	503	601	
0	0	0	0	0	499	602	
1	0	0	0	0	496	603	
2	0	0	0	0	495	600	
3	0	0	0	0	493	604	
4	0	0	0	0	491	604	
5	0	0	0	0	488	604	
6	0	0	0	0	483	608	
7	0	0	0	0	482	604	
8	0	0	0	0	480	604	
9	0	0	0	0	484	605	
10	0	0	0	0	486	601	
11	0	0	0	0	489	606	
12	0	0	0	0	495	606	
13	0	0	0	0	498	607	
14	0	0	0	0	497	611	
15	0	0	0	0	495	608	
0	0	0	0	0	493	608	
1	0	0	0	0	492	609	
2	0	0	0	0	493	606	
3	0	0	0	0	488	610	
4	0	0	0	0	482	611	
5	0	0	0	0	487	612	
6	0	0	0	0	492	617	
7	0	0	0	0	488	614	
8	0	0	0	0	485	614	
9	0	0	0	0	481	613	
10	0	0	0	0	477	611	
11	0	0	0	0	474	615	
12	0	0	0	0	469	615	
13	0	0	0	0	463	616	
14	0	0	0	0	466	620	
15	0	0	0	0	472	616	
0	0	0	0	0	479	617	
1	0	0	0	0	490	617	
2	0	0	0	0	498	614	
3	0	0	0	0	512	618	
4	0	0	0	0	526	618	
5	0	0	0	0	537	619	
6	0	0	0	0	515	623	
7	0	0	0	0	495	621	
8	0	0	0	0	503	621	
9	0	0	0	0	497	622	
10	0	0	0	0	485	619	
11	0	0	0	0	492	624	
12	0	0	0	0	503	624	
13	0	0	0	0	500	625	
14	0	0	0	0	501	629	
15	0	0	0	0	498	626	
0	0	0	0	0	490	627	
1	0	0	0	0	481	627	
2	0	0	0	0	477	624	
3	0	0	0	0	480	628	
4	0	0	0	0	482	629	
5	0	0	0	0	488	630	
6	0	0	0	0	505	634	
7	0	0	0	0	497	631	
8	0	0	0	0	490	632	
9	0	0	0	0	502	633	
10	0	0	0	0	515	630	
11	0	0	0	0	515	635	
12	0	0	0	0	518	635	
13	0	0	0	0	525	636	
14	0	0	0	0	538	639	
15	0	0	0	0	534	636	
0	0	0	0	0	526	637	
1	0	0	0	0	523	638	
2	0	0	0	0	499	634	
3	0	0	0	0	481	638	
4	0	0	0	0	487	638	
5	0	0	0	0	496	639	
6	0	0	0	0	495	642	
7	0	0	0	0	496	639	
8	0	0	0	0	500	639	
9	0	0	0	0	504	639	
10	0	0	0	0	508	636	
11	0	0	0	0	507	639	
12	0	0	0	0	509	640	
13	0	0	0	0	511	640	
14	0	0	0	0	498	643	
15	0	0	0	0	483	640	
0	0	0	0	0	473	641	
1	0	0	0	0	475	640	
2	0	0	0	0	483	636	
3	0	0	0	0	494	640	
4	0	0	0	0	491	641	
5	0	0	0	0	492	641	
6	0	0	0	0	496	644	
7	0	0	0	0	497	641	
8	0	0	0	0	497	641	
9	0	0	0	0	500	641	
10	0	0	0	0	502	637	
11	0	0	0	0	496	642	
12	0	0	0	0	492	641	
13	0	0	0	0	489	641	
14	0	0	0	0	486	645	
15	0	0	0	0	487	641	
0	0	0	0	0	484	641	
1	0	0	0	0	487	640	
2	0	0	0	0	497	636	
3	0	0	0	0	504	640	
4	0	0	0	0	504	640	
5	0	0	0	0	506	641	
6	0	0	0	0	499	643	
7	0	0	0	0	488	639	
8	0	0	0	0	478	639	
9	0	0	0	0	476	638	
10	0	0	0	0	474	634	
11	0	0	0	0	479	637	
12	0	0	0	0	481	636	
13	0	0	0	0	481	636	
14	0	0	0	0	480	639	
15	0	0	0	0	482	636	
0	0	0	0	0	487	635	
1	0	0	0	0	491	634	
2	0	0	0	0	492	631	
3	0	0	0	0	493	633	
4	0	0	0	0	494	633	
5	0	0	0	0	494	633	
6	0	0	0	0	497	635	
7	0	0	0	0	500	632	
8	0	0	0	0	502	631	
9	0	0	0	0	502	630	
10	0	0	0	0	501	626	
11	0	0	0	0	501	629	
12	0	0	0	0	499	629	
13	0	0	0	0	497	628	
14	0	0	0	0	495	631	
15	0	0	0	0	494	626	
0	0	0	0	0	493	627	
1	0	0	0	0	493	625	
2	0	0	0	0	493	621	
3	0	0	0	0	492	624	
4	0	0	0	0	492	624	
5	0	0	0	0	491	624	
6	0	0	0	0	492	626	
7	0	0	0	0	493	622	
8	0	0	0	0	494	621	
9	0	0	0	0	495	620	
10	0	0	0	0	495	616	
11	0	0	0	0	495	620	
12	0	0	0	0	496	619	
13	0	0	0	0	495	618	
14	0	0	0	0	496	621	
15	0	0	0	0	498	617	
0	0	0	0	0	501	616	
1	0	0	0	0	504	616	
2	0	0	0	0	507	612	
3	0	0	0	0	512	615	
4	0	0	0	0	516	615	
5	0	0	0	0	522	615	
6	0	0	0	0	527	618	
7	0	0	0	0	533	614	
8	0	0	0	0	539	613	
9	0	0	0	0	544	613	
10	0	0	0	0	547	609	
11	0	0	0	0	549	612	
12	0	0	0	0	549	612	
13	0	0	0	0	544	611	
14	0	0	0	0	537	614	
15	0	0	0	0	532	611	
0	0	0	0	0	525	611	
1	0	0	0	0	515	610	
2	0	0	0	0	504	606	
3	0	0	0	0	493	610	
4	0	0	0	0	483	610	
5	0	0	0	0	472	610	
6	0	0	0	0	456	614	
7	0	0	0	0	440	610	
8	0	0	0	0	421	610	
9	0	0	0	0	399	611	
10	0	0	0	0	374	607	
11	0	0	0	0	349	611	
12	0	0	0	0	321	611	
13	0	0	0	0	293	612	
14	0	0	0	0	268	615	
15	0	0	0	0	248	612	
0	0	0	0	0	239	612	
1	0	0	0	0	235	613	
2	0	0	0	0	241	609	
3	0	0	0	0	252	614	
4	0	0	0	0	270	614	
5	0	0	0	0	292	615	
6	0	0	0	0	328	618	
7	0	0	0	0	378	615	
8	0	0	0	0	420	615	
9	0	0	0	0	454	616	
10	0	0	0	0	480	612	
11	0	0	0	0	496	616	
12	0	0	0	0	502	617	
13	0	0	0	0	499	617	
14	0	0	0	0	486	621	
15	0	0	0	0	471	617	
0	0	0	0	0	460	618	
1	0	0	0	0	449	618	
2	0	0	0	0	440	615	
3	0	0	0	0	434	619	
4	0	0	0	0	432	620	
5	0	0	0	0	429	620	
6	0	0	0	0	425	624	
7	0	0	0	0	420	620	
8	0	0	0	0	417	621	
9	0	0	0	0	425	622	
10	0	0	0	0	434	618	
11	0	0	0	0	444	622	
12	0	0	0	0	451	623	
13	0	0	0	0	459	624	
14	0	0	0	0	468	627	
15	0	0	0	0	476	624	
0	0	0	0	0	482	624	
1	0	0	0	0	478	624	
2	0	0	0	0	475	621	
3	0	0	0	0	487	625	
4	0	0	0	0	495	625	
5	0	0	0	0	506	625	
6	0	0	0	0	510	630	
7	0	0	0	0	512	626	
8	0	0	0	0	512	626	
9	0	0	0	0	521	627	
10	0	0	0	0	520	624	
11	0	0	0	0	528	627	
12	0	0	0	0	530	627	
13	0	0	0	0	536	628	
14	0	0	0	0	534	632	
15	0	0	0	0	543	628	
0	0	0	0	0	555	630	
1	0	0	0	0	571	629	
2	0	0	0	0	579	625	
3	0	0	0	0	566	630	
4	0	0	0	0	561	630	
5	0	0	0	0	559	631	
6	0	0	0	0	556	635	
7	0	0	0	0	550	631	
8	0	0	0	0	549	632	
9	0	0	0	0	551	632	
10	0	0	0	0	544	628	
11	0	0	0	0	536	633	
12	0	0	0	0	540	633	
13	0	0	0	0	561	633	
14	0	0	0	0	583	637	
15	0	0	0	0	584	634	
0	0	0	0	0	572	633	
1	0	0	0	0	556	633	
2	0	0	0	0	541	630	
3	0	0	0	0	544	633	
4	0	0	0	0	560	633	
5	0	0	0	0	565	634	
6	0	0	0	0	571	637	
7	0	0	0	0	573	634	
8	0	0	0	0	582	634	
9	0	0	0	0	570	634	
10	0	0	0	0	549	630	
11	0	0	0	0	540	633	
12	0	0	0	0	543	632	
13	0	0	0	0	557	633	
14	0	0	0	0	577	637	
15	0	0	0	0	577	633	
0	0	0	0	0	579	633	
1	0	0	0	0	572	633	
2	0	0	0	0	565	629	
3	0	0	0	0	567	632	
4	0	0	0	0	566	632	
5	0	0	0	0	560	632	
6	0	0	0	0	553	636	
7	0	0	0	0	541	632	
8	0	0	0	0	531	632	
9	0	0	0	0	527	631	
10	0	0	0	0	524	628	
11	0	0	0	0	523	631	
12	0	0	0	0	526	631	
13	0	0	0	0	532	631	
14	0	0	0	0	530	634	
15	0	0	0	0	536	631	
0	0	0	0	0	538	629	
1	0	0	0	0	550	629	
2	0	0	0	0	549	625	
3	0	0	0	0	544	629	
4	0	0	0	0	534	629	
5	0	0	0	0	529	629	
6	0	0	0	0	525	632	
7	0	0	0	0	516	628	
8	0	0	0	0	509	628	
9	0	0	0	0	521	628	
10	0	0	0	0	537	624	
11	0	0	0	0	542	628	
12	0	0	0	0	534	627	
13	0	0	0	0	528	627	
14	0	0	0	0	526	630	
15	0	0	0	0	526	627	
0	0	0	0	0	523	627	
1	0	0	0	0	523	627	
2	0	0	0	0	530	623	
3	0	0	0	0	535	626	
4	0	0	0	0	535	626	
5	0	0	0	0	533	626	
6	0	0	0	0	533	630	
7	0	0	0	0	535	625	
8	0	0	0	0	539	625	
9	0	0	0	0	537	625	
10	0	0	0	0	535	620	
11	0	0	0	0	535	623	
12	0	0	0	0	532	624	
13	0	0	0	0	525	624	
14	0	0	0	0	518	626	
15	0	0	0	0	514	622	
0	0	0	0	0	516	622	
1	0	0	0	0	515	621	
2	0	0	0	0	511	617	
3	0	0	0	0	509	621	
4	0	0	0	0	508	620	
5	0	0	0	0	508	620	
6	0	0	0	0	507	623	
7	0	0	0	0	507	620	
8	0	0	0	0	508	620	
9	0	0	0	0	506	619	
10	0	0	0	0	506	615	
11	0	0	0	0	506	618	
12	0	0	0	0	507	619	
13	0	0	0	0	506	619	
14	0	0	0	0	504	621	
15	0	0	0	0	502	618	
0	0	0	0	0	500	617	
1	0	0	0	0	499	617	
2	0	0	0	0	498	613	
3	0	0	0	0	498	617	
4	0	0	0	0	499	617	
5	0	0	0	0	497	617	
6	0	0	0	0	495	620	
7	0	0	0	0	494	616	
8	0	0	0	0	492	615	
9	0	0	0	0	492	615	
10	0	0	0	0	493	611	
11	0	0	0	0	494	615	
12	0	0	0	0	492	615	
13	0	0	0	0	489	615	
14	0	0	0	0	490	617	
15	0	0	0	0	492	613	
0	0	0	0	0	493	613	
1	0	0	0	0	491	612	
2	0	0	0	0	491	609	
3	0	0	0	0	491	613	
4	0	0	0	0	488	612	
5	0	0	0	0	486	613	
6	0	0	0	0	486	615	
7	0	0	0	0	488	613	
8	0	0	0	0	492	612	
9	0	0	0	0	492	612	
10	0	0	0	0	491	608	
11	0	0	0	0	488	613	
12	0	0	0	0	484	612	
13	0	0	0	0	480	612	
14	0	0	0	0	482	616	
15	0	0	0	0	484	612	
0	0	0	0	0	486	612	
1	0	0	0	0	492	612	
2	0	0	0	0	494	609	
3	0	0	0	0	499	613	
4	0	0	0	0	497	613	
5	0	0	0	0	487	613	
6	0	0	0	0	481	617	
7	0	0	0	0	482	613	
8	0	0	0	0	484	613	
9	0	0	0	0	489	613	
10	0	0	0	0	492	610	
11	0	0	0	0	495	615	
12	0	0	0	0	501	615	
13	0	0	0	0	502	616	
14	0	0	0	0	499	620	
15	0	0	0	0	493	616	
0	0	0	0	0	499	616	
1	0	0	0	0	505	617	
2	0	0	0	0	493	614	
3	0	0	0	0	489	617	
4	0	0	0	0	501	617	
5	0	0	0	0	508	618	
6	0	0	0	0	508	622	
7	0	0	0	0	517	618	
8	0	0	0	0	529	619	
9	0	0	0	0	531	619	
10	0	0	0	0	535	615	
11	0	0	0	0	534	619	
12	0	0	0	0	536	620	
13	0	0	0	0	541	620	
14	0	0	0	0	556	624	
15	0	0	0	0	574	621	
0	0	0	0	0	576	622	
1	0	0	0	0	559	622	
2	0	0	0	0	536	618	
3	0	0	0	0	528	622	
4	0	0	0	0	547	622	
5	0	0	0	0	552	623	
6	0	0	0	0	541	625	
7	0	0	0	0	532	623	
8	0	0	0	0	518	623	
9	0	0	0	0	523	623	
10	0	0	0	0	545	620	
11	0	0	0	0	575	624	
12	0	0	0	0	587	625	
13	0	0	0	0	581	626	
14	0	0	0	0	579	630	
15	0	0	0	0	570	627	
0	0	0	0	0	559	627	
1	0	0	0	0	557	627	
2	0	0	0	0	554	624	
3	0	0	0	0	560	628	
4	0	0	0	0	551	629	
5	0	0	0	0	549	629	
6	0	0	0	0	551	633	
7	0	0	0	0	554	630	
8	0	0	0	0	560	631	
9	0	0	0	0	575	631	
10	0	0	0	0	580	628	
11	0	0	0	0	581	632	
12	0	0	0	0	576	632	
13	0	0	0	0	567	633	
14	0	0	0	0	561	636	
15	0	0	0	0	554	633	
0	0	0	0	0	558	633	
1	0	0	0	0	574	633	
2	0	0	0	0	574	630	
3	0	0	0	0	547	635	
4	0	0	0	0	530	635	
5	0	0	0	0	536	636	
6	0	0	0	0	544	639	
7	0	0	0	0	557	636	
8	0	0	0	0	560	637	
9	0	0	0	0	551	636	
10	0	0	0	0	542	633	
11	0	0	0	0	544	637	
12	0	0	0	0	551	637	
13	0	0	0	0	553	638	
14	0	0	0	0	556	641	
15	0	0	0	0	575	638	
0	0	0	0	0	590	638	
1	0	0	0	0	586	638	
2	0	0	0	0	561	634	
3	0	0	0	0	555	638	
4	0	0	0	0	562	638	
5	0	0	0	0	568	638	
6	0	0	0	0	568	641	
7	0	0	0	0	567	638	
8	0	0	0	0	563	638	
9	0	0	0	0	571	637	
10	0	0	0	0	577	633	
11	0	0	0	0	568	637	
12	0	0	0	0	550	637	
13	0	0	0	0	539	637	
14	0	0	0	0	545	640	
15	0	0	0	0	558	636	
0	0	0	0	0	568	636	
1	0	0	0	0	569	636	
2	0	0	0	0	572	632	
3	0	0	0	0	571	635	
4	0	0	0	0	572	635	
5	0	0	0	0	568	635	
6	0	0	0	0	555	638	
7	0	0	0	0	549	634	
8	0	0	0	0	553	634	
9	0	0	0	0	560	634	
10	0	0	0	0	563	631	
11	0	0	0	0	564	634	
12	0	0	0	0	562	633	
13	0	0	0	0	563	633	
14	0	0	0	0	565	636	
15	0	0	0	0	563	632	
0	0	0	0	0	561	632	
1	0	0	0	0	558	632	
2	0	0	0	0	555	628	
3	0	0	0	0	551	632	
4	0	0	0	0	548	632	
5	0	0	0	0	543	632	
6	0	0	0	0	544	633	
7	0	0	0	0	550	630	
8	0	0	0	0	554	630	
9	0	0	0	0	551	629	
10	0	0	0	0	551	625	
11	0	0	0	0	551	628	
12	0	0	0	0	548	628	
13	0	0	0	0	546	627	
14	0	0	0	0	545	630	
15	0	0	0	0	545	626	
0	0	0	0	0	542	625	
1	0	0	0	0	540	624	
2	0	0	0	0	539	620	
3	0	0	0	0	538	623	
4	0	0	0	0	538	623	
5	0	0	0	0	537	622	
6	0	0	0	0	537	625	
7	0	0	0	0	536	621	
8	0	0	0	0	536	621	
9	0	0	0	0	536	620	
10	0	0	0	0	534	616	
11	0	0	0	0	531	619	
12	0	0	0	0	525	618	
13	0	0	0	0	522	618	
14	0	0	0	0	519	620	
15	0	0	0	0	520	616	
0	0	0	0	0	519	615	
1	0	0	0	0	515	615	
2	0	0	0	0	510	610	
3	0	0	0	0	513	614	
4	0	0	0	0	524	612	
5	0	0	0	0	533	612	
6	0	0	0	0	535	614	
7	0	0	0	0	534	609	
8	0	0	0	0	529	609	
9	0	0	0	0	526	608	
10	0	0	0	0	529	604	
11	0	0	0	0	527	607	
12	0	0	0	0	530	606	
13	0	0	0	0	539	607	
14	0	0	0	0	546	609	
15	0	0	0	0	544	605	
0	0	0	0	0	534	604	
1	0	0	0	0	526	604	
2	0	0	0	0	529	601	
3	0	0	0	0	534	604	
4	0	0	0	0	537	604	
5	0	0	0	0	541	604	
6	0	0	0	0	548	606	
7	0	0	0	0	560	603	
8	0	0	0	0	563	603	
9	0	0	0	0	561	603	
10	0	0	0	0	551	600	
11	0	0	0	0	531	602	
12	0	0	0	0	520	603	
13	0	0	0	0	526	603	
14	0	0	0	0	532	607	
15	0	0	0	0	522	603	
0	0	0	0	0	516	604	
1	0	0	0	0	519	604	
2	0	0	0	0	524	600	
3	0	0	0	0	511	604	
4	0	0	0	0	506	604	
5	0	0	0	0	520	604	
6	0	0	0	0	523	609	
7	0	0	0	0	512	606	
8	0	0	0	0	508	606	
9	0	0	0	0	532	606	
10	0	0	0	0	542	603	
11	0	0	0	0	545	608	
12	0	0	0	0	559	608	
13	0	0	0	0	586	610	
14	0	0	0	0	603	613	
15	0	0	0	0	600	611	
0	0	0	0	0	584	611	
1	0	0	0	0	564	611	
2	0	0	0	0	536	609	
3	0	0	0	0	525	614	
4	0	0	0	0	557	614	
5	0	0	0	0	570	615	
6	0	0	0	0	564	619	
7	0	0	0	0	550	616	
8	0	0	0	0	548	617	
9	0	0	0	0	538	618	
10	0	0	0	0	533	615	
11	0	0	0	0	528	619	
12	0	0	0	0	536	620	
13	0	0	0	0	545	620	
14	0	0	0	0	540	624	
15	0	0	0	0	551	622	
0	0	0	0	0	547	622	
1	0	0	0	0	536	622	
2	0	0	0	0	525	619	
3	0	0	0	0	541	623	
4	0	0	0	0	576	624	
5	0	0	0	0	603	625	
6	0	0	0	0	607	629	
7	0	0	0	0	583	626	
8	0	0	0	0	562	626	
9	0	0	0	0	556	627	
10	0	0	0	0	567	624	
11	0	0	0	0	572	628	
12	0	0	0	0	562	629	
13	0	0	0	0	544	630	
14	0	0	0	0	534	635	
15	0	0	0	0	530	632	
0	0	0	0	0	524	633	
1	0	0	0	0	522	633	
2	0	0	0	0	527	631	
3	0	0	0	0	526	636	
4	0	0	0	0	524	636	
5	0	0	0	0	543	638	
6	0	0	0	0	555	642	
7	0	0	0	0	557	639	
8	0	0	0	0	554	639	
9	0	0	0	0	546	639	
10	0	0	0	0	551	636	
11	0	0	0	0	553	641	
12	0	0	0	0	543	641	
13	0	0	0	0	525	642	
14	0	0	0	0	505	646	
15	0	0	0	0	505	643	
0	0	0	0	0	510	644	
1	0	0	0	0	527	643	
2	0	0	0	0	542	640	
3	0	0	0	0	548	644	
4	0	0	0	0	548	645	
5	0	0	0	0	545	645	
6	0	0	0	0	546	647	
7	0	0	0	0	545	643	
8	0	0	0	0	545	643	
9	0	0	0	0	547	644	
10	0	0	0	0	537	639	
11	0	0	0	0	525	643	
12	0	0	0	0	517	643	
13	0	0	0	0	516	643	
14	0	0	0	0	510	646	
15	0	0	0	0	507	642	
0	0	0	0	0	499	641	
1	0	0	0	0	479	641	
2	0	0	0	0	471	636	
3	0	0	0	0	487	639	
4	0	0	0	0	502	638	
5	0	0	0	0	508	638	
6	0	0	0	0	512	640	
7	0	0	0	0	520	636	
8	0	0	0	0	532	636	
9	0	0	0	0	537	635	
10	0	0	0	0	524	630	
11	0	0	0	0	513	633	
12	0	0	0	0	509	632	
13	0	0	0	0	509	632	
14	0	0	0	0	507	633	
15	0	0	0	0	511	630	
0	0	0	0	0	518	628	
1	0	0	0	0	516	627	
2	0	0	0	0	513	623	
3	0	0	0	0	515	626	
4	0	0	0	0	523	624	
5	0	0	0	0	531	623	
6	0	0	0	0	531	626	
7	0	0	0	0	530	621	
8	0	0	0	0	528	620	
9	0	0	0	0	527	620	
10	0	0	0	0	520	615	
11	0	0	0	0	510	619	
12	0	0	0	0	510	618	
13	0	0	0	0	518	617	
14	0	0	0	0	521	620	
15	0	0	0	0	519	615	
0	0	0	0	0	509	615	
1	0	0	0	0	505	614	
2	0	0	0	0	511	609	
3	0	0	0	0	515	612	
4	0	0	0	0	518	612	
5	0	0	0	0	517	611	
6	0	0	0	0	519	614	
7	0	0	0	0	523	609	
8	0	0	0	0	524	609	
9	0	0	0	0	521	608	
10	0	0	0	0	514	604	
11	0	0	0	0	511	607	
12	0	0	0	0	513	607	
13	0	0	0	0	511	606	
14	0	0	0	0	508	609	
15	0	0	0	0	507	606	
0	0	0	0	0	506	605	
1	0	0	0	0	505	604	
2	0	0	0	0	505	600	
3	0	0	0	0	506	604	
4	0	0	0	0	505	604	
5	0	0	0	0	504	604	
6	0	0	0	0	506	607	
7	0	0	0	0	506	604	
8	0	0	0	0	506	604	
9	0	0	0	0	507	603	
10	0	0	0	0	508	600	
11	0	0	0	0	509	604	
12	0	0	0	0	509	604	
13	0	0	0	0	509	604	
14	0	0	0	0	507	607	
15	0	0	0	0	508	604	
0	0	0	0	0	504	604	
1	0	0	0	0	503	604	
2	0	0	0	0	506	601	
3	0	0	0	0	506	605	
4	0	0	0	0	500	605	
5	0	0	0	0	491	606	
6	0	0	0	0	489	609	
7	0	0	0	0	497	606	
8	0	0	0	0	497	606	
9	0	0	0	0	495	607	
10	0	0	0	0	496	603	
11	0	0	0	0	497	608	
12	0	0	0	0	499	608	
13	0	0	0	0	499	609	
14	0	0	0	0	497	612	
15	0	0	0	0	496	610	
0	0	0	0	0	491	609	
1	0	0	0	0	489	610	
2	0	0	0	0	489	607	
3	0	0	0	0	495	611	
4	0	0	0	0	497	612	
5	0	0	0	0	496	612	
6	0	0	0	0	487	616	
7	0	0	0	0	478	614	
8	0	0	0	0	475	614	
9	0	0	0	0	480	614	
10	0	0	0	0	490	611	
11	0	0	0	0	504	616	
12	0	0	0	0	515	616	
13	0	0	0	0	521	616	
14	0	0	0	0	523	620	
15	0	0	0	0	523	617	
0	0	0	0	0	511	618	
1	0	0	0	0	501	619	
2	0	0	0	0	497	615	
3	0	0	0	0	496	619	
4	0	0	0	0	490	620	
5	0	0	0	0	494	621	
6	0	0	0	0	495	624	
7	0	0	0	0	490	621	
8	0	0	0	0	495	620	
9	0	0	0	0	484	621	
10	0	0	0	0	483	617	
11	0	0	0	0	493	621	
12	0	0	0	0	497	622	
13	0	0	0	0	505	622	
14	0	0	0	0	519	626	
15	0	0	0	0	524	623	
0	0	0	0	0	519	623	
1	0	0	0	0	513	623	
2	0	0	0	0	501	620	
3	0	0	0	0	502	625	
4	0	0	0	0	503	625	
5	0	0	0	0	511	625	
6	0	0	0	0	512	629	
7	0	0	0	0	501	626	
8	0	0	0	0	500	627	
9	0	0	0	0	517	627	
10	0	0	0	0	526	624	
11	0	0	0	0	521	628	
12	0	0	0	0	514	629	
13	0	0	0	0	505	630	
14	0	0	0	0	502	633	
15	0	0	0	0	492	630	
0	0	0	0	0	499	630	
1	0	0	0	0	512	630	
2	0	0	0	0	534	627	
3	0	0	0	0	532	632	
4	0	0	0	0	533	631	
5	0	0	0	0	545	632	
6	0	0	0	0	542	635	
7	0	0	0	0	510	632	
8	0	0	0	0	482	632	
9	0	0	0	0	473	632	
10	0	0	0	0	473	629	
11	0	0	0	0	491	633	
12	0	0	0	0	525	633	
13	0	0	0	0	545	634	
14	0	0	0	0	552	638	
15	0	0	0	0	547	635	
0	0	0	0	0	549	635	
1	0	0	0	0	556	635	
2	0	0	0	0	556	632	
3	0	0	0	0	554	636	
4	0	0	0	0	554	636	
5	0	0	0	0	531	636	
6	0	0	0	0	511	640	
7	0	0	0	0	510	637	
8	0	0	0	0	510	637	
9	0	0	0	0	504	637	
10	0	0	0	0	494	633	
11	0	0	0	0	476	637	
12	0	0	0	0	465	638	
13	0	0	0	0	469	637	
14	0	0	0	0	478	640	
15	0	0	0	0	488	636	
0	0	0	0	0	493	636	
1	0	0	0	0	488	636	
2	0	0	0	0	475	632	
3	0	0	0	0	457	636	
4	0	0	0	0	442	636	
5	0	0	0	0	439	636	
6	0	0	0	0	460	639	
7	0	0	0	0	480	636	
8	0	0	0	0	484	636	
9	0	0	0	0	472	636	
10	0	0	0	0	460	632	
11	0	0	0	0	455	636	
12	0	0	0	0	459	635	
13	0	0	0	0	465	636	
14	0	0	0	0	467	638	
15	0	0	0	0	481	633	
0	0	0	0	0	491	633	
1	0	0	0	0	496	633	
2	0	0	0	0	498	629	
3	0	0	0	0	497	632	
4	0	0	0	0	498	631	
5	0	0	0	0	497	631	
6	0	0	0	0	487	634	
7	0	0	0	0	482	630	
8	0	0	0	0	482	629	
9	0	0	0	0	484	628	
10	0	0	0	0	486	624	
11	0	0	0	0	486	628	
12	0	0	0	0	481	627	
13	0	0	0	0	476	627	
14	0	0	0	0	461	630	
15	0	0	0	0	452	626	
0	0	0	0	0	447	626	
1	0	0	0	0	445	625	
2	0	0	0	0	453	621	
3	0	0	0	0	465	625	
4	0	0	0	0	470	624	
5	0	0	0	0	469	624	
6	0	0	0	0	475	627	
7	0	0	0	0	480	623	
8	0	0	0	0	481	622	
9	0	0	0	0	480	622	
10	0	0	0	0	479	617	
11	0	0	0	0	476	621	
12	0	0	0	0	463	619	
13	0	0	0	0	455	619	
14	0	0	0	0	459	622	
15	0	0	0	0	462	616	
0	0	0	0	0	457	615	
1	0	0	0	0	456	615	
2	0	0	0	0	456	611	
3	0	0	0	0	455	614	
4	0	0	0	0	465	612	
5	0	0	0	0	467	612	
6	0	0	0	0	464	614	
7	0	0	0	0	461	610	
8	0	0	0	0	459	609	
9	0	0	0	0	452	608	
10	0	0	0	0	442	604	
11	0	0	0	0	440	607	
12	0	0	0	0	449	605	
13	0	0	0	0	455	605	
14	0	0	0	0	455	606	
15	0	0	0	0	450	602	
0	0	0	0	0	447	601	
1	0	0	0	0	452	601	
2	0	0	0	0	457	596	
3	0	0	0	0	460	600	
4	0	0	0	0	454	599	
5	0	0	0	0	447	598	
6	0	0	0	0	449	601	
7	0	0	0	0	452	596	
8	0	0	0	0	448	596	
9	0	0	0	0	444	595	
10	0	0	0	0	443	591	
11	0	0	0	0	447	595	
12	0	0	0	0	449	594	
13	0	0	0	0	449	595	
14	0	0	0	0	451	598	
15	0	0	0	0	452	594	
0	0	0	0	0	449	595	
1	0	0	0	0	447	595	
2	0	0	0	0	445	592	
3	0	0	0	0	442	596	
4	0	0	0	0	443	596	
5	0	0	0	0	442	597	
6	0	0	0	0	442	601	
7	0	0	0	0	441	599	
8	0	0	0	0	440	599	
9	0	0	0	0	441	599	
10	0	0	0	0	441	596	
11	0	0	0	0	441	601	
12	0	0	0	0	442	603	
13	0	0	0	0	441	604	
14	0	0	0	0	440	608	
15	0	0	0	0	438	606	
0	0	0	0	0	437	607	
1	0	0	0	0	434	607	
2	0	0	0	0	430	606	
3	0	0	0	0	425	611	
4	0	0	0	0	420	611	
5	0	0	0	0	422	614	
6	0	0	0	0	428	618	
7	0	0	0	0	431	615	
8	0	0	0	0	434	616	
9	0	0	0	0	433	617	
10	0	0	0	0	434	615	
11	0	0	0	0	435	619	
12	0	0	0	0	434	620	
13	0	0	0	0	434	620	
14	0	0	0	0	439	625	
15	0	0	0	0	442	622	
0	0	0	0	0	444	623	
1	0	0	0	0	448	624	
2	0	0	0	0	453	620	
3	0	0	0	0	459	625	
4	0	0	0	0	468	626	
5	0	0	0	0	475	626	
6	0	0	0	0	482	630	
7	0	0	0	0	488	627	
8	0	0	0	0	492	628	
9	0	0	0	0	490	629	
10	0	0	0	0	485	625	
11	0	0	0	0	477	630	
12	0	0	0	0	465	631	
13	0	0	0	0	449	632	
14	0	0	0	0	438	636	
15	0	0	0	0	438	632	
0	0	0	0	0	438	633	
1	0	0	0	0	430	634	
2	0	0	0	0	414	631	
3	0	0	0	0	395	635	
4	0	0	0	0	380	636	
5	0	0	0	0	369	637	
6	0	0	0	0	351	641	
7	0	0	0	0	316	638	
8	0	0	0	0	280	638	
9	0	0	0	0	263	639	
10	0	0	0	0	255	636	
11	0	0	0	0	244	641	
12	0	0	0	0	226	641	
13	0	0	0	0	197	642	
14	0	0	0	0	171	646	
15	0	0	0	0	152	642	
0	0	0	0	0	142	643	
1	0	0	0	0	148	644	
2	0	0	0	0	166	642	
3	0	0	0	0	186	646	
4	0	0	0	0	204	646	
5	0	0	0	0	223	646	
6	0	0	0	0	252	649	
7	0	0	0	0	295	645	
8	0	0	0	0	321	645	
9	0	0	0	0	339	645	
10	0	0	0	0	360	642	
11	0	0	0	0	382	647	
12	0	0	0	0	399	648	
13	0	0	0	0	396	649	
14	0	0	0	0	383	653	
15	0	0	0	0	382	651	
0	0	0	0	0	370	651	
1	0	0	0	0	355	651	
2	0	0	0	0	340	647	
3	0	0	0	0	336	651	
4	0	0	0	0	324	651	
5	0	0	0	0	332	651	
6	0	0	0	0	340	654	
7	0	0	0	0	348	651	
8	0	0	0	0	353	650	
9	0	0	0	0	351	650	
10	0	0	0	0	359	647	
11	0	0	0	0	368	651	
12	0	0	0	0	380	651	
13	0	0	0	0	382	651	
14	0	0	0	0	387	653	
15	0	0	0	0	393	649	
0	0	0	0	0	403	650	
1	0	0	0	0	407	649	
2	0	0	0	0	422	645	
3	0	0	0	0	436	648	
4	0	0	0	0	447	648	
5	0	0	0	0	454	650	
6	0	0	0	0	447	652	
7	0	0	0	0	437	649	
8	0	0	0	0	444	648	
9	0	0	0	0	463	648	
10	0	0	0	0	473	645	
11	0	0	0	0	475	647	
12	0	0	0	0	475	648	
13	0	0	0	0	474	648	
14	0	0	0	0	466	651	
15	0	0	0	0	459	647	
0	0	0	0	0	454	646	
1	0	0	0	0	456	647	
2	0	0	0	0	456	642	
3	0	0	0	0	463	646	
4	0	0	0	0	465	646	
5	0	0	0	0	462	646	
6	0	0	0	0	456	648	
7	0	0	0	0	453	645	
8	0	0	0	0	454	644	
9	0	0	0	0	456	643	
10	0	0	0	0	457	639	
11	0	0	0	0	459	643	
12	0	0	0	0	454	642	
13	0	0	0	0	452	641	
14	0	0	0	0	447	644	
15	0	0	0	0	437	640	
0	0	0	0	0	431	639	
1	0	0	0	0	432	638	
2	0	0	0	0	434	633	
3	0	0	0	0	441	636	
4	0	0	0	0	447	636	
5	0	0	0	0	451	635	
6	0	0	0	0	452	637	
7	0	0	0	0	451	633	
8	0	0	0	0	452	632	
9	0	0	0	0	447	631	
10	0	0	0	0	440	626	
11	0	0	0	0	434	630	
12	0	0	0	0	432	628	
13	0	0	0	0	434	629	
14	0	0	0	0	435	631	
15	0	0	0	0	438	627	
0	0	0	0	0	438	626	
1	0	0	0	0	437	625	
2	0	0	0	0	440	621	
3	0	0	0	0	443	624	
4	0	0	0	0	444	624	
5	0	0	0	0	441	622	
6	0	0	0	0	436	624	
7	0	0	0	0	435	620	
8	0	0	0	0	432	619	
9	0	0	0	0	428	618	
10	0	0	0	0	426	614	
11	0	0	0	0	426	617	
12	0	0	0	0	426	616	
13	0	0	0	0	425	616	
14	0	0	0	0	423	619	
15	0	0	0	0	421	614	
0	0	0	0	0	418	613	
1	0	0	0	0	414	612	
2	0	0	0	0	415	608	
3	0	0	0	0	417	611	
4	0	0	0	0	418	610	
5	0	0	0	0	419	610	
6	0	0	0	0	418	612	
7	0	0	0	0	415	608	
8	0	0	0	0	414	607	
9	0	0	0	0	413	607	
10	0	0	0	0	411	602	
11	0	0	0	0	411	606	
12	0	0	0	0	412	605	
13	0	0	0	0	412	605	
14	0	0	0	0	412	608	
15	0	0	0	0	411	604	
0	0	0	0	0	410	604	
1	0	0	0	0	409	604	
2	0	0	0	0	409	599	
3	0	0	0	0	409	603	
4	0	0	0	0	408	603	
5	0	0	0	0	408	602	
6	0	0	0	0	406	606	
7	0	0	0	0	404	602	
8	0	0	0	0	400	602	
9	0	0	0	0	397	601	
10	0	0	0	0	396	598	
11	0	0	0	0	396	602	
12	0	0	0	0	393	602	
13	0	0	0	0	391	602	
14	0	0	0	0	390	605	
15	0	0	0	0	391	601	
0	0	0	0	0	391	602	
1	0	0	0	0	390	602	
2	0	0	0	0	388	598	
3	0	0	0	0	386	602	
4	0	0	0	0	388	602	
5	0	0	0	0	389	602	
6	0	0	0	0	387	606	
7	0	0	0	0	387	602	
8	0	0	0	0	388	603	
9	0	0	0	0	387	603	
10	0	0	0	0	386	600	
11	0	0	0	0	384	604	
12	0	0	0	0	382	604	
13	0	0	0	0	380	605	
14	0	0	0	0	375	609	
15	0	0	0	0	369	606	
0	0	0	0	0	367	606	
1	0	0	0	0	367	606	
2	0	0	0	0	368	603	
3	0	0	0	0	372	608	
4	0	0	0	0	374	608	
5	0	0	0	0	373	608	
6	0	0	0	0	371	612	
7	0	0	0	0	369	609	
8	0	0	0	0	365	610	
9	0	0	0	0	360	610	
10	0	0	0	0	355	607	
11	0	0	0	0	353	611	
12	0	0	0	0	353	611	
13	0	0	0	0	353	612	
14	0	0	0	0	352	615	
15	0	0	0	0	351	613	
0	0	0	0	0	351	614	
1	0	0	0	0	349	613	
2	0	0	0	0	346	611	
3	0	0	0	0	341	615	
4	0	0	0	0	338	615	
5	0	0	0	0	337	616	
6	0	0	0	0	339	620	
7	0	0	0	0	342	617	
8	0	0	0	0	346	617	
9	0	0	0	0	348	617	
10	0	0	0	0	347	614	
11	0	0	0	0	346	618	
12	0	0	0	0	343	619	
13	0	0	0	0	340	619	
14	0	0	0	0	339	624	
15	0	0	0	0	338	620	
0	0	0	0	0	339	620	
1	0	0	0	0	339	621	
2	0	0	0	0	342	618	
3	0	0	0	0	344	622	
4	0	0	0	0	340	622	
5	0	0	0	0	335	623	
6	0	0	0	0	335	627	
7	0	0	0	0	339	623	
8	0	0	0	0	344	624	
9	0	0	0	0	344	624	
10	0	0	0	0	343	620	
11	0	0	0	0	342	625	
12	0	0	0	0	341	625	
13	0	0	0	0	342	626	
14	0	0	0	0	347	630	
15	0	0	0	0	350	627	
0	0	0	0	0	352	627	
1	0	0	0	0	354	627	
2	0	0	0	0	353	624	
3	0	0	0	0	353	629	
4	0	0	0	0	352	629	
5	0	0	0	0	352	630	
6	0	0	0	0	351	633	
7	0	0	0	0	349	631	
8	0	0	0	0	347	632	
9	0	0	0	0	343	632	
10	0	0	0	0	339	630	
11	0	0	0	0	338	633	
12	0	0	0	0	340	635	
13	0	0	0	0	344	636	
14	0	0	0	0	349	639	
15	0	0	0	0	354	636	
0	0	0	0	0	348	636	
1	0	0	0	0	337	636	
2	0	0	0	0	329	632	
3	0	0	0	0	336	637	
4	0	0	0	0	360	638	
5	0	0	0	0	379	639	
6	0	0	0	0	385	642	
7	0	0	0	0	381	638	
8	0	0	0	0	374	639	
9	0	0	0	0	362	639	
10	0	0	0	0	354	636	
11	0	0	0	0	342	639	
12	0	0	0	0	350	639	
13	0	0	0	0	382	639	
14	0	0	0	0	402	643	
15	0	0	0	0	408	639	
0	0	0	0	0	400	640	
1	0	0	0	0	392	639	
2	0	0	0	0	387	636	
3	0	0	0	0	385	639	
4	0	0	0	0	388	639	
5	0	0	0	0	387	639	
6	0	0	0	0	387	642	
7	0	0	0	0	389	639	
8	0	0	0	0	393	639	
9	0	0	0	0	395	638	
10	0	0	0	0	388	634	
11	0	0	0	0	382	638	
12	0	0	0	0	375	638	
13	0	0	0	0	370	638	
14	0	0	0	0	375	641	
15	0	0	0	0	380	637	
0	0	0	0	0	387	637	
1	0	0	0	0	383	636	
2	0	0	0	0	382	633	
3	0	0	0	0	387	637	
4	0	0	0	0	380	636	
5	0	0	0	0	380	636	
6	0	0	0	0	382	640	
7	0	0	0	0	376	636	
8	0	0	0	0	363	635	
9	0	0	0	0	359	636	
10	0	0	0	0	358	632	
11	0	0	0	0	369	636	
12	0	0	0	0	385	636	
13	0	0	0	0	398	636	
14	0	0	0	0	396	640	
15	0	0	0	0	390	635	
0	0	0	0	0	380	635	
1	0	0	0	0	371	635	
2	0	0	0	0	370	631	
3	0	0	0	0	373	634	
4	0	0	0	0	376	634	
5	0	0	0	0	380	633	
6	0	0	0	0	383	638	
7	0	0	0	0	379	633	
8	0	0	0	0	373	633	
9	0	0	0	0	373	633	
10	0	0	0	0	373	629	
11	0	0	0	0	374	633	
12	0	0	0	0	369	632	
13	0	0	0	0	370	632	
14	0	0	0	0	377	634	
15	0	0	0	0	386	630	
0	0	0	0	0	385	630	
1	0	0	0	0	379	631	
2	0	0	0	0	370	625	
3	0	0	0	0	359	628	
4	0	0	0	0	346	628	
5	0	0	0	0	343	628	
6	0	0	0	0	350	631	
7	0	0	0	0	359	627	
8	0	0	0	0	367	627	
9	0	0	0	0	370	627	
10	0	0	0	0	371	623	
11	0	0	0	0	371	626	
12	0	0	0	0	371	627	
13	0	0	0	0	373	625	
14	0	0	0	0	374	628	
15	0	0	0	0	374	625	
0	0	0	0	0	374	624	
1	0	0	0	0	372	624	
2	0	0	0	0	370	619	
3	0	0	0	0	365	623	
4	0	0	0	0	361	623	
5	0	0	0	0	360	623	
6	0	0	0	0	357	625	
7	0	0	0	0	353	621	
8	0	0	0	0	351	621	
9	0	0	0	0	352	621	
10	0	0	0	0	353	617	
11	0	0	0	0	353	620	
12	0	0	0	0	354	619	
13	0	0	0	0	355	620	
14	0	0	0	0	355	623	
15	0	0	0	0	354	619	
0	0	0	0	0	353	619	
1	0	0	0	0	351	618	
2	0	0	0	0	350	613	
3	0	0	0	0	351	617	
4	0	0	0	0	352	617	
5	0	0	0	0	353	616	
6	0	0	0	0	354	620	
7	0	0	0	0	354	616	
8	0	0	0	0	354	616	
9	0	0	0	0	353	615	
10	0	0	0	0	353	611	
11	0	0	0	0	354	615	
12	0	0	0	0	354	615	
13	0	0	0	0	354	615	
14	0	0	0	0	354	618	
15	0	0	0	0	355	614	
0	0	0	0	0	355	614	
1	0	0	0	0	354	613	
2	0	0	0	0	352	609	
3	0	0	0	0	350	613	
4	0	0	0	0	348	613	
5	0	0	0	0	348	612	
6	0	0	0	0	348	615	
7	0	0	0	0	348	612	
8	0	0	0	0	346	611	
9	0	0	0	0	342	611	
10	0	0	0	0	340	608	
11	0	0	0	0	339	611	
12	0	0	0	0	339	611	
13	0	0	0	0	338	611	
14	0	0	0	0	336	614	
15	0	0	0	0	339	610	
0	0	0	0	0	345	610	
1	0	0	0	0	348	611	
2	0	0	0	0	350	607	
3	0	0	0	0	352	610	
4	0	0	0	0	350	610	
5	0	0	0	0	351	610	
6	0	0	0	0	350	614	
7	0	0	0	0	348	610	
8	0	0	0	0	348	610	
9	0	0	0	0	347	610	
10	0	0	0	0	348	606	
11	0	0	0	0	348	610	
12	0	0	0	0	348	610	
13	0	0	0	0	349	610	
14	0	0	0	0	347	613	
15	0	0	0	0	344	610	
0	0	0	0	0	342	610	
1	0	0	0	0	338	610	
2	0	0	0	0	335	606	
3	0	0	0	0	332	610	
4	0	0	0	0	333	609	
5	0	0	0	0	338	610	
6	0	0	0	0	339	613	
7	0	0	0	0	344	610	
8	0	0	0	0	345	610	
9	0	0	0	0	343	610	
10	0	0	0	0	335	607	
11	0	0	0	0	332	610	
12	0	0	0	0	334	611	
13	0	0	0	0	329	611	
14	0	0	0	0	318	615	
15	0	0	0	0	309	612	
0	0	0	0	0	303	612	
1	0	0	0	0	315	613	
2	0	0	0	0	329	609	
3	0	0	0	0	341	613	
4	0	0	0	0	358	614	
5	0	0	0	0	357	615	
6	0	0	0	0	363	618	
7	0	0	0	0	361	615	
8	0	0	0	0	357	615	
9	0	0	0	0	358	615	
10	0	0	0	0	372	611	
11	0	0	0	0	374	615	
12	0	0	0	0	370	615	
13	0	0	0	0	368	615	
14	0	0	0	0	367	619	
15	0	0	0	0	362	616	
0	0	0	0	0	365	617	
1	0	0	0	0	364	616	
2	0	0	0	0	345	613	
3	0	0	0	0	328	617	
4	0	0	0	0	331	617	
5	0	0	0	0	349	617	
6	0	0	0	0	359	620	
7	0	0	0	0	368	617	
8	0	0	0	0	371	617	
9	0	0	0	0	368	617	
10	0	0	0	0	357	614	
11	0	0	0	0	352	617	
12	0	0	0	0	345	618	
13	0	0	0	0	333	619	
14	0	0	0	0	337	622	
15	0	0	0	0	350	619	
0	0	0	0	0	366	619	
1	0	0	0	0	370	619	
2	0	0	0	0	365	616	
3	0	0	0	0	360	620	
4	0	0	0	0	365	621	
5	0	0	0	0	377	621	
6	0	0	0	0	378	624	
7	0	0	0	0	375	621	
8	0	0	0	0	368	622	
9	0	0	0	0	358	622	
10	0	0	0	0	350	619	
11	0	0	0	0	355	623	
12	0	0	0	0	359	624	
13	0	0	0	0	352	624	
14	0	0	0	0	345	628	
15	0	0	0	0	346	625	
0	0	0	0	0	350	624	
1	0	0	0	0	347	625	
2	0	0	0	0	349	622	
3	0	0	0	0	353	626	
4	0	0	0	0	355	627	
5	0	0	0	0	353	627	
6	0	0	0	0	352	631	
7	0	0	0	0	352	628	
8	0	0	0	0	352	627	
9	0	0	0	0	356	628	
10	0	0	0	0	360	624	
11	0	0	0	0	360	628	
12	0	0	0	0	357	629	
13	0	0	0	0	357	630	
14	0	0	0	0	361	633	
15	0	0	0	0	363	629	
0	0	0	0	0	366	630	
1	0	0	0	0	366	630	
2	0	0	0	0	364	626	
3	0	0	0	0	363	630	
4	0	0	0	0	364	630	
5	0	0	0	0	364	631	
6	0	0	0	0	364	633	
7	0	0	0	0	365	631	
8	0	0	0	0	365	631	
9	0	0	0	0	366	631	
10	0	0	0	0	364	627	
11	0	0	0	0	363	631	
12	0	0	0	0	362	631	
13	0	0	0	0	359	631	
14	0	0	0	0	358	634	
15	0	0	0	0	359	632	
0	0	0	0	0	358	631	
1	0	0	0	0	358	631	
2	0	0	0	0	357	627	
3	0	0	0	0	358	631	
4	0	0	0	0	359	632	
5	0	0	0	0	361	631	
6	0	0	0	0	362	634	
7	0	0	0	0	365	631	
8	0	0	0	0	364	630	
9	0	0	0	0	365	630	
10	0	0	0	0	365	626	
11	0	0	0	0	367	629	
12	0	0	0	0	368	630	
13	0	0	0	0	369	629	
14	0	0	0	0	368	632	
15	0	0	0	0	368	628	
0	0	0	0	0	368	628	
1	0	0	0	0	368	628	
2	0	0	0	0	366	624	
3	0	0	0	0	364	627	
4	0	0	0	0	363	628	
5	0	0	0	0	361	628	
6	0	0	0	0	360	631	
7	0	0	0	0	361	627	
8	0	0	0	0	363	627	
9	0	0	0	0	364	626	
10	0	0	0	0	365	622	
11	0	0	0	0	366	626	
12	0	0	0	0	366	625	
13	0	0	0	0	368	625	
14	0	0	0	0	369	628	
15	0	0	0	0	369	625	
0	0	0	0	0	369	624	
1	0	0	0	0	370	624	
2	0	0	0	0	371	620	
3	0	0	0	0	371	624	
4	0	0	0	0	372	623	
5	0	0	0	0	375	623	
6	0	0	0	0	375	626	
7	0	0	0	0	375	622	
8	0	0	0	0	374	621	
9	0	0	0	0	372	622	
10	0	0	0	0	371	617	
11	0	0	0	0	370	620	
12	0	0	0	0	371	620	
13	0	0	0	0	371	620	
14	0	0	0	0	372	623	
15	0	0	0	0	373	619	
0	0	0	0	0	373	619	
1	0	0	0	0	375	619	
2	0	0	0	0	378	615	
3	0	0	0	0	380	619	
4	0	0	0	0	382	619	
5	0	0	0	0	383	619	
6	0	0	0	0	384	623	
7	0	0	0	0	384	619	
8	0	0	0	0	383	619	
9	0	0	0	0	382	619	
10	0	0	0	0	380	614	
11	0	0	0	0	379	619	
12	0	0	0	0	379	618	
13	0	0	0	0	380	619	
14	0	0	0	0	381	623	
15	0	0	0	0	383	618	
0	0	0	0	0	384	618	
1	0	0	0	0	385	618	
2	0	0	0	0	386	614	
3	0	0	0	0	387	618	
4	0	0	0	0	385	618	
5	0	0	0	0	385	618	
6	0	0	0	0	387	622	
7	0	0	0	0	390	618	
8	0	0	0	0	389	618	
9	0	0	0	0	391	618	
10	0	0	0	0	393	615	
11	0	0	0	0	394	618	
12	0	0	0	0	395	618	
13	0	0	0	0	396	618	
14	0	0	0	0	396	621	
15	0	0	0	0	397	618	
0	0	0	0	0	398	619	
1	0	0	0	0	398	619	
2	0	0	0	0	400	615	
3	0	0	0	0	402	619	
4	0	0	0	0	405	619	
5	0	0	0	0	405	619	
6	0	0	0	0	405	623	
7	0	0	0	0	405	620	
8	0	0	0	0	405	619	
9	0	0	0	0	407	620	
10	0	0	0	0	408	616	
11	0	0	0	0	408	620	
12	0	0	0	0	407	620	
13	0	0	0	0	404	620	
14	0	0	0	0	405	624	
15	0	0	0	0	408	620	
0	0	0	0	0	411	620	
1	0	0	0	0	413	620	
2	0	0	0	0	415	616	
3	0	0	0	0	417	620	
4	0	0	0	0	417	620	
5	0	0	0	0	417	620	
6	0	0	0	0	417	623	
7	0	0	0	0	417	621	
8	0	0	0	0	417	621	
9	0	0	0	0	417	620	
10	0	0	0	0	416	617	
11	0	0	0	0	415	622	
12	0	0	0	0	414	622	
13	0	0	0	0	414	623	
14	0	0	0	0	413	625	
15	0	0	0	0	412	623	
0	0	0	0	0	410	623	
1	0	0	0	0	409	623	
2	0	0	0	0	411	620	
3	0	0	0	0	413	623	
4	0	0	0	0	416	624	
5	0	0	0	0	419	624	
6	0	0	0	0	422	628	
7	0	0	0	0	424	625	
8	0	0	0	0	427	625	
9	0	0	0	0	428	625	
10	0	0	0	0	428	622	
11	0	0	0	0	427	626	
12	0	0	0	0	426	626	
13	0	0	0	0	423	627	
14	0	0	0	0	422	630	
15	0	0	0	0	420	627	
0	0	0	0	0	420	627	
1	0	0	0	0	421	627	
2	0	0	0	0	417	624	
3	0	0	0	0	415	627	
4	0	0	0	0	413	628	
5	0	0	0	0	414	627	
6	0	0	0	0	419	631	
7	0	0	0	0	422	627	
8	0	0	0	0	423	628	
9	0	0	0	0	422	628	
10	0	0	0	0	421	625	
11	0	0	0	0	421	629	
12	0	0	0	0	422	628	
13	0	0	0	0	422	630	
14	0	0	0	0	420	632	
15	0	0	0	0	420	630	
0	0	0	0	0	421	630	
1	0	0	0	0	423	630	
2	0	0	0	0	425	627	
3	0	0	0	0	430	630	
4	0	0	0	0	433	630	
5	0	0	0	0	434	631	
6	0	0	0	0	436	634	
7	0	0	0	0	438	631	
8	0	0	0	0	441	631	
9	0	0	0	0	442	632	
10	0	0	0	0	443	628	
11	0	0	0	0	441	632	
12	0	0	0	0	440	632	
13	0	0	0	0	436	632	
14	0	0	0	0	435	636	
15	0	0	0	0	435	632	
0	0	0	0	0	438	633	
1	0	0	0	0	440	633	
2	0	0	0	0	443	630	
3	0	0	0	0	446	633	
4	0	0	0	0	449	633	
5	0	0	0	0	449	634	
6	0	0	0	0	451	638	
7	0	0	0	0	453	635	
8	0	0	0	0	453	634	
9	0	0	0	0	452	635	
10	0	0	0	0	450	631	
11	0	0	0	0	451	634	
12	0	0	0	0	449	634	
13	0	0	0	0	448	635	
14	0	0	0	0	447	637	
15	0	0	0	0	445	634	
0	0	0	0	0	446	633	
1	0	0	0	0	448	633	
2	0	0	0	0	448	628	
3	0	0	0	0	450	632	
4	0	0	0	0	450	632	
5	0	0	0	0	450	632	
6	0	0	0	0	449	635	
7	0	0	0	0	451	631	
8	0	0	0	0	453	631	
9	0	0	0	0	455	630	
10	0	0	0	0	456	626	
11	0	0	0	0	458	629	
12	0	0	0	0	458	628	
13	0	0	0	0	459	629	
14	0	0	0	0	460	632	
15	0	0	0	0	460	628	
0	0	0	0	0	462	628	
1	0	0	0	0	464	627	
2	0	0	0	0	464	623	
3	0	0	0	0	466	627	
4	0	0	0	0	472	626	
5	0	0	0	0	475	626	
6	0	0	0	0	476	629	
7	0	0	0	0	476	626	
8	0	0	0	0	476	625	
9	0	0	0	0	477	625	
10	0	0	0	0	478	620	
11	0	0	0	0	478	624	
12	0	0	0	0	478	624	
13	0	0	0	0	479	623	
14	0	0	0	0	474	627	
15	0	0	0	0	471	623	
0	0	0	0	0	472	622	
1	0	0	0	0	475	622	
2	0	0	0	0	468	618	
3	0	0	0	0	467	621	
4	0	0	0	0	467	621	
5	0	0	0	0	467	620	
6	0	0	0	0	467	623	
7	0	0	0	0	473	619	
8	0	0	0	0	480	619	
9	0	0	0	0	487	618	
10	0	0	0	0	484	615	
11	0	0	0	0	480	618	
12	0	0	0	0	484	618	
13	0	0	0	0	489	618	
14	0	0	0	0	494	621	
15	0	0	0	0	509	617	
0	0	0	0	0	516	617	
1	0	0	0	0	511	617	
2	0	0	0	0	500	612	
3	0	0	0	0	502	615	
4	0	0	0	0	504	615	
5	0	0	0	0	499	615	
6	0	0	0	0	488	619	
7	0	0	0	0	479	615	
8	0	0	0	0	476	615	
9	0	0	0	0	478	614	
10	0	0	0	0	481	611	
11	0	0	0	0	492	614	
12	0	0	0	0	495	614	
13	0	0	0	0	487	614	
14	0	0	0	0	495	617	
15	0	0	0	0	511	613	
0	0	0	0	0	521	614	
1	0	0	0	0	530	613	
2	0	0	0	0	534	609	
3	0	0	0	0	536	613	
4	0	0	0	0	538	613	
5	0	0	0	0	543	613	
6	0	0	0	0	549	616	
7	0	0	0	0	570	613	
8	0	0	0	0	579	613	
9	0	0	0	0	575	613	
10	0	0	0	0	572	609	
11	0	0	0	0	575	614	
12	0	0	0	0	585	613	
13	0	0	0	0	596	613	
14	0	0	0	0	608	617	
15	0	0	0	0	619	614	
0	0	0	0	0	609	613	
1	0	0	0	0	587	614	
2	0	0	0	0	563	610	
3	0	0	0	0	531	615	
4	0	0	0	0	507	615	
5	0	0	0	0	484	615	
6	0	0	0	0	457	617	
7	0	0	0	0	428	614	
8	0	0	0	0	400	615	
9	0	0	0	0	370	615	
10	0	0	0	0	343	611	
11	0	0	0	0	309	616	
12	0	0	0	0	263	616	
13	0	0	0	0	219	617	
14	0	0	0	0	178	620	
15	0	0	0	0	156	616	
0	0	0	0	0	161	617	
1	0	0	0	0	176	617	
2	0	0	0	0	192	614	
3	0	0	0	0	207	618	
4	0	0	0	0	215	618	
5	0	0	0	0	231	620	
6	0	0	0	0	259	623	
7	0	0	0	0	304	620	
8	0	0	0	0	349	620	
9	0	0	0	0	389	620	
10	0	0	0	0	422	617	
11	0	0	0	0	444	621	
12	0	0	0	0	460	621	
13	0	0	0	0	468	623	
14	0	0	0	0	463	624	
15	0	0	0	0	456	618	
0	0	0	0	0	446	615	
1	0	0	0	0	442	615	
2	0	0	0	0	444	612	
3	0	0	0	0	448	618	
4	0	0	0	0	451	621	
5	0	0	0	0	455	623	
6	0	0	0	0	460	629	
7	0	0	0	0	470	626	
8	0	0	0	0	480	626	
9	0	0	0	0	492	625	
10	0	0	0	0	498	619	
11	0	0	0	0	502	623	
12	0	0	0	0	505	622	
13	0	0	0	0	514	622	
14	0	0	0	0	522	625	
15	0	0	0	0	529	622	
0	0	0	0	0	536	623	
1	0	0	0	0	545	623	
2	0	0	0	0	553	620	
3	0	0	0	0	564	624	
4	0	0	0	0	577	624	
5	0	0	0	0	587	624	
6	0	0	0	0	596	628	
7	0	0	0	0	604	625	
8	0	0	0	0	608	626	
9	0	0	0	0	610	626	
10	0	0	0	0	613	623	
11	0	0	0	0	616	626	
12	0	0	0	0	618	627	
13	0	0	0	0	621	627	
14	0	0	0	0	623	630	
15	0	0	0	0	623	628	
0	0	0	0	0	624	627	
1	0	0	0	0	626	627	
2	0	0	0	0	625	623	
3	0	0	0	0	625	626	
4	0	0	0	0	626	627	
5	0	0	0	0	626	627	
6	0	0	0	0	627	629	
7	0	0	0	0	629	626	
8	0	0	0	0	629	625	
9	0	0	0	0	630	625	
10	0	0	0	0	631	622	
11	0	0	0	0	632	626	
12	0	0	0	0	632	625	
13	0	0	0	0	631	625	
14	0	0	0	0	632	629	
15	0	0	0	0	633	625	
0	0	0	0	0	634	624	
1	0	0	0	0	635	624	
2	0	0	0	0	633	620	
3	0	0	0	0	633	624	
4	0	0	0	0	632	624	
5	0	0	0	0	632	624	
6	0	0	0	0	632	627	
7	0	0	0	0	632	623	
8	0	0	0	0	632	622	
9	0	0	0	0	630	622	
10	0	0	0	0	630	619	
11	0	0	0	0	629	622	
12	0	0	0	0	624	621	
13	0	0	0	0	619	622	
14	0	0	0	0	615	625	
15	0	0	0	0	615	622	
0	0	0	0	0	622	622	
1	0	0	0	0	631	621	
2	0	0	0	0	638	618	
3	0	0	0	0	640	621	
4	0	0	0	0	641	621	
5	0	0	0	0	639	622	
6	0	0	0	0	639	625	
7	0	0	0	0	636	621	
8	0	0	0	0	631	622	
9	0	0	0	0	627	621	
10	0	0	0	0	626	617	
11	0	0	0	0	624	621	
12	0	0	0	0	626	621	
13	0	0	0	0	627	622	
14	0	0	0	0	627	624	
15	0	0	0	0	628	621	
0	0	0	0	0	628	620	
1	0	0	0	0	633	621	
2	0	0	0	0	637	617	
3	0	0	0	0	639	620	
4	0	0	0	0	639	620	
5	0	0	0	0	639	620	
6	0	0	0	0	637	624	
7	0	0	0	0	631	620	
8	0	0	0	0	622	620	
9	0	0	0	0	622	620	
10	0	0	0	0	622	616	
11	0	0	0	0	625	620	
12	0	0	0	0	624	620	
13	0	0	0	0	624	621	
14	0	0	0	0	621	624	
15	0	0	0	0	620	620	
0	0	0	0	0	616	621	
1	0	0	0	0	612	621	
2	0	0	0	0	606	617	
3	0	0	0	0	606	621	
4	0	0	0	0	611	621	
5	0	0	0	0	614	622	
6	0	0	0	0	611	625	
7	0	0	0	0	606	621	
8	0	0	0	0	603	622	
9	0	0	0	0	610	622	
10	0	0	0	0	635	618	
11	0	0	0	0	646	622	
12	0	0	0	0	649	622	
13	0	0	0	0	644	622	
14	0	0	0	0	639	625	
15	0	0	0	0	643	622	
0	0	0	0	0	631	622	
1	0	0	0	0	600	622	
2	0	0	0	0	595	619	
3	0	0	0	0	614	622	
4	0	0	0	0	636	623	
5	0	0	0	0	646	623	
6	0	0	0	0	619	626	
7	0	0	0	0	611	623	
8	0	0	0	0	622	623	
9	0	0	0	0	663	623	
10	0	0	0	0	675	619	
11	0	0	0	0	675	623	
12	0	0	0	0	665	624	
13	0	0	0	0	654	623	
14	0	0	0	0	666	627	
15	0	0	0	0	660	623	
0	0	0	0	0	652	624	
1	0	0	0	0	644	624	
2	0	0	0	0	633	620	
3	0	0	0	0	627	624	
4	0	0	0	0	638	624	
5	0	0	0	0	649	624	
6	0	0	0	0	652	627	
7	0	0	0	0	648	624	
8	0	0	0	0	638	625	
9	0	0	0	0	620	625	
10	0	0	0	0	609	620	
11	0	0	0	0	602	625	
12	0	0	0	0	606	625	
13	0	0	0	0	610	625	
14	0	0	0	0	619	629	
15	0	0	0	0	627	626	
0	0	0	0	0	622	626	
1	0	0	0	0	614	626	
2	0	0	0	0	609	624	
3	0	0	0	0	603	627	
4	0	0	0	0	595	627	
5	0	0	0	0	584	628	
6	0	0	0	0	579	632	
7	0	0	0	0	581	628	
8	0	0	0	0	592	628	
9	0	0	0	0	603	628	
10	0	0	0	0	596	624	
11	0	0	0	0	594	628	
12	0	0	0	0	595	628	
13	0	0	0	0	591	628	
14	0	0	0	0	584	632	
15	0	0	0	0	584	628	
0	0	0	0	0	583	628	
1	0	0	0	0	584	628	
2	0	0	0	0	587	624	
3	0	0	0	0	591	628	
4	0	0	0	0	597	627	
5	0	0	0	0	598	628	
6	0	0	0	0	595	632	
7	0	0	0	0	585	628	
8	0	0	0	0	577	629	
9	0	0	0	0	579	628	
10	0	0	0	0	582	624	
11	0	0	0	0	583	627	
12	0	0	0	0	585	628	
13	0	0	0	0	587	628	
14	0	0	0	0	587	631	
15	0	0	0	0	589	627	
0	0	0	0	0	585	627	
1	0	0	0	0	584	627	
2	0	0	0	0	589	624	
3	0	0	0	0	591	627	
4	0	0	0	0	592	627	
5	0	0	0	0	600	627	
6	0	0	0	0	609	631	
7	0	0	0	0	620	628	
8	0	0	0	0	624	627	
9	0	0	0	0	623	627	
10	0	0	0	0	624	623	
11	0	0	0	0	625	627	
12	0	0	0	0	629	627	
13	0	0	0	0	631	627	
14	0	0	0	0	633	630	
15	0	0	0	0	632	626	
0	0	0	0	0	633	626	
1	0	0	0	0	633	626	
2	0	0	0	0	634	622	
3	0	0	0	0	638	625	
4	0	0	0	0	639	625	
5	0	0	0	0	640	624	
6	0	0	0	0	640	627	
7	0	0	0	0	640	623	
8	0	0	0	0	639	623	
9	0	0	0	0	640	623	
10	0	0	0	0	639	619	
11	0	0	0	0	634	622	
12	0	0	0	0	630	621	
13	0	0	0	0	631	621	
14	0	0	0	0	633	624	
15	0	0	0	0	633	620	
0	0	0	0	0	635	620	
1	0	0	0	0	637	619	
2	0	0	0	0	641	615	
3	0	0	0	0	643	619	
4	0	0	0	0	644	619	
5	0	0	0	0	645	618	
6	0	0	0	0	643	622	
7	0	0	0	0	640	617	
8	0	0	0	0	638	617	
9	0	0	0	0	636	617	
10	0	0	0	0	636	614	
11	0	0	0	0	635	617	
12	0	0	0	0	636	617	
13	0	0	0	0	636	617	
14	0	0	0	0	636	620	
15	0	0	0	0	637	616	
0	0	0	0	0	638	615	
1	0	0	0	0	637	615	
2	0	0	0	0	638	611	
3	0	0	0	0	639	615	
4	0	0	0	0	638	615	
5	0	0	0	0	639	614	
6	0	0	0	0	639	617	
7	0	0	0	0	639	614	
8	0	0	0	0	639	614	
9	0	0	0	0	639	614	
10	0	0	0	0	639	610	
11	0	0	0	0	638	614	
12	0	0	0	0	636	614	
13	0	0	0	0	637	614	
14	0	0	0	0	636	617	
15	0	0	0	0	636	614	
0	0	0	0	0	634	614	
1	0	0	0	0	633	614	
2	0	0	0	0	632	611	
3	0	0	0	0	631	615	
4	0	0	0	0	630	615	
5	0	0	0	0	628	615	
6	0	0	0	0	627	620	
7	0	0	0	0	625	615	
8	0	0	0	0	625	615	
9	0	0	0	0	627	615	
10	0	0	0	0	628	612	
11	0	0	0	0	630	616	
12	0	0	0	0	630	617	
13	0	0	0	0	627	617	
14	0	0	0	0	627	621	
15	0	0	0	0	630	617	
0	0	0	0	0	632	618	
1	0	0	0	0	634	617	
2	0	0	0	0	635	614	
3	0	0	0	0	636	618	
4	0	0	0	0	635	618	
5	0	0	0	0	635	619	
6	0	0	0	0	633	622	
7	0	0	0	0	631	619	
8	0	0	0	0	631	619	
9	0	0	0	0	631	619	
10	0	0	0	0	632	615	
11	0	0	0	0	630	620	
12	0	0	0	0	626	619	
13	0	0	0	0	622	620	
14	0	0	0	0	620	623	
15	0	0	0	0	623	620	
0	0	0	0	0	625	620	
1	0	0	0	0	627	621	
2	0	0	0	0	628	617	
3	0	0	0	0	628	620	
4	0	0	0	0	630	621	
5	0	0	0	0	632	621	
6	0	0	0	0	631	624	
7	0	0	0	0	630	621	
8	0	0	0	0	629	621	
9	0	0	0	0	627	621	
10	0	0	0	0	627	617	
11	0	0	0	0	627	622	
12	0	0	0	0	629	622	
13	0	0	0	0	630	622	
14	0	0	0	0	631	626	
15	0	0	0	0	630	622	
0	0	0	0	0	628	623	
1	0	0	0	0	627	622	
2	0	0	0	0	626	619	
3	0	0	0	0	625	623	
4	0	0	0	0	625	623	
5	0	0	0	0	625	623	
6	0	0	0	0	624	627	
7	0	0	0	0	623	624	
8	0	0	0	0	622	624	
9	0	0	0	0	622	624	
10	0	0	0	0	622	621	
11	0	0	0	0	623	625	
12	0	0	0	0	622	624	
13	0	0	0	0	623	625	
14	0	0	0	0	627	628	
15	0	0	0	0	630	625	
0	0	0	0	0	631	624	
1	0	0	0	0	630	625	
2	0	0	0	0	630	622	
3	0	0	0	0	627	625	
4	0	0	0	0	625	625	
5	0	0	0	0	626	625	
6	0	0	0	0	628	630	
7	0	0	0	0	629	627	
8	0	0	0	0	631	627	
9	0	0	0	0	632	627	
10	0	0	0	0	632	623	
11	0	0	0	0	632	627	
12	0	0	0	0	631	627	
13	0	0	0	0	629	627	
14	0	0	0	0	628	630	
15	0	0	0	0	628	627	
0	0	0	0	0	628	627	
1	0	0	0	0	628	628	
2	0	0	0	0	626	624	
3	0	0	0	0	626	627	
4	0	0	0	0	627	628	
5	0	0	0	0	626	628	
6	0	0	0	0	624	632	
7	0	0	0	0	622	628	
8	0	0	0	0	621	628	
9	0	0	0	0	622	628	
10	0	0	0	0	620	624	
11	0	0	0	0	619	629	
12	0	0	0	0	617	628	
13	0	0	0	0	617	628	
14	0	0	0	0	616	631	
15	0	0	0	0	614	628	
0	0	0	0	0	607	628	
1	0	0	0	0	603	627	
2	0	0	0	0	605	624	
3	0	0	0	0	609	628	
4	0	0	0	0	615	627	
5	0	0	0	0	618	628	
6	0	0	0	0	616	631	
7	0	0	0	0	614	627	
8	0	0	0	0	612	627	
9	0	0	0	0	612	626	
10	0	0	0	0	615	622	
11	0	0	0	0	615	625	
12	0	0	0	0	615	625	
13	0	0	0	0	617	625	
14	0	0	0	0	617	628	
15	0	0	0	0	621	624	
0	0	0	0	0	623	624	
1	0	0	0	0	624	624	
2	0	0	0	0	622	620	
3	0	0	0	0	621	623	
4	0	0	0	0	615	623	
5	0	0	0	0	608	623	
6	0	0	0	0	604	627	
7	0	0	0	0	603	622	
8	0	0	0	0	607	622	
9	0	0	0	0	614	622	
10	0	0	0	0	609	618	
11	0	0	0	0	605	622	
12	0	0	0	0	601	621	
13	0	0	0	0	600	621	
14	0	0	0	0	599	624	
15	0	0	0	0	595	621	
0	0	0	0	0	588	620	
1	0	0	0	0	581	620	
2	0	0	0	0	583	616	
3	0	0	0	0	585	620	
4	0	0	0	0	590	619	
5	0	0	0	0	600	619	
6	0	0	0	0	614	622	
7	0	0	0	0	620	618	
8	0	0	0	0	617	619	
9	0	0	0	0	610	618	
10	0	0	0	0	612	615	
11	0	0	0	0	613	618	
12	0	0	0	0	619	618	
13	0	0	0	0	631	618	
14	0	0	0	0	642	621	
15	0	0	0	0	641	617	
0	0	0	0	0	640	616	
1	0	0	0	0	636	616	
2	0	0	0	0	635	613	
3	0	0	0	0	630	616	
4	0	0	0	0	627	616	
5	0	0	0	0	630	616	
6	0	0	0	0	628	620	
7	0	0	0	0	624	616	
8	0	0	0	0	625	616	
9	0	0	0	0	627	616	
10	0	0	0	0	628	612	
11	0	0	0	0	636	615	
12	0	0	0	0	641	616	
13	0	0	0	0	637	616	
14	0	0	0	0	625	619	
15	0	0	0	0	611	616	
0	0	0	0	0	603	616	
1	0	0	0	0	604	616	
2	0	0	0	0	613	612	
3	0	0	0	0	615	617	
4	0	0	0	0	621	618	
5	0	0	0	0	622	617	
6	0	0	0	0	614	621	
7	0	0	0	0	609	618	
8	0	0	0	0	603	619	
9	0	0	0	0	596	620	
10	0	0	0	0	598	616	
11	0	0	0	0	601	621	
12	0	0	0	0	605	622	
13	0	0	0	0	609	621	
14	0	0	0	0	618	625	
15	0	0	0	0	625	621	
0	0	0	0	0	636	622	
1	0	0	0	0	640	622	
2	0	0	0	0	629	619	
3	0	0	0	0	620	623	
4	0	0	0	0	616	624	
5	0	0	0	0	614	624	
6	0	0	0	0	608	627	
7	0	0	0	0	613	624	
8	0	0	0	0	622	624	
9	0	0	0	0	625	624	
10	0	0	0	0	625	621	
11	0	0	0	0	618	625	
12	0	0	0	0	619	625	
13	0	0	0	0	619	625	
14	0	0	0	0	618	629	
15	0	0	0	0	617	626	
0	0	0	0	0	623	626	
1	0	0	0	0	626	626	
2	0	0	0	0	625	623	
3	0	0	0	0	617	627	
4	0	0	0	0	609	628	
5	0	0	0	0	605	628	
6	0	0	0	0	606	632	
7	0	0	0	0	610	630	
8	0	0	0	0	614	630	
9	0	0	0	0	615	630	
10	0	0	0	0	617	627	
11	0	0	0	0	625	631	
12	0	0	0	0	627	632	
13	0	0	0	0	629	632	
14	0	0	0	0	628	636	
15	0	0	0	0	629	633	
0	0	0	0	0	629	632	
1	0	0	0	0	627	632	
2	0	0	0	0	627	629	
3	0	0	0	0	625	633	
4	0	0	0	0	621	633	
5	0	0	0	0	617	635	
6	0	0	0	0	616	638	
7	0	0	0	0	618	634	
8	0	0	0	0	620	635	
9	0	0	0	0	620	635	
10	0	0	0	0	618	630	
11	0	0	0	0	615	635	
12	0	0	0	0	612	635	
13	0	0	0	0	609	635	
14	0	0	0	0	609	638	
15	0	0	0	0	608	635	
0	0	0	0	0	608	635	
1	0	0	0	0	609	635	
2	0	0	0	0	610	631	
3	0	0	0	0	611	635	
4	0	0	0	0	614	635	
5	0	0	0	0	615	635	
6	0	0	0	0	615	638	
7	0	0	0	0	614	635	
8	0	0	0	0	611	635	
9	0	0	0	0	611	634	
10	0	0	0	0	611	631	
11	0	0	0	0	611	634	
12	0	0	0	0	609	635	
13	0	0	0	0	608	634	
14	0	0	0	0	608	638	
15	0	0	0	0	609	634	
0	0	0	0	0	611	633	
1	0	0	0	0	610	633	
2	0	0	0	0	610	629	
3	0	0	0	0	610	633	
4	0	0	0	0	610	632	
5	0	0	0	0	609	632	
6	0	0	0	0	608	636	
7	0	0	0	0	608	632	
8	0	0	0	0	608	632	
9	0	0	0	0	608	632	
10	0	0	0	0	607	627	
11	0	0	0	0	606	632	
12	0	0	0	0	606	631	
13	0	0	0	0	606	630	
14	0	0	0	0	606	633	
15	0	0	0	0	608	630	
0	0	0	0	0	608	629	
1	0	0	0	0	610	629	
2	0	0	0	0	610	624	
3	0	0	0	0	610	628	
4	0	0	0	0	611	627	
5	0	0	0	0	612	627	
6	0	0	0	0	613	630	
7	0	0	0	0	612	626	
8	0	0	0	0	611	626	
9	0	0	0	0	611	625	
10	0	0	0	0	609	620	
11	0	0	0	0	608	624	
12	0	0	0	0	608	624	
13	0	0	0	0	607	624	
14	0	0	0	0	605	627	
15	0	0	0	0	605	622	
0	0	0	0	0	606	622	
1	0	0	0	0	607	622	
2	0	0	0	0	607	617	
3	0	0	0	0	607	621	
4	0	0	0	0	607	621	
5	0	0	0	0	608	621	
6	0	0	0	0	609	624	
7	0	0	0	0	610	620	
8	0	0	0	0	609	619	
9	0	0	0	0	608	619	
10	0	0	0	0	607	615	
11	0	0	0	0	607	619	
12	0	0	0	0	606	618	
13	0	0	0	0	607	618	
14	0	0	0	0	606	621	
15	0	0	0	0	606	617	
0	0	0	0	0	607	617	
1	0	0	0	0	607	616	
2	0	0	0	0	607	613	
3	0	0	0	0	609	616	
4	0	0	0	0	609	615	
5	0	0	0	0	611	616	
6	0	0	0	0	611	619	
7	0	0	0	0	610	615	
8	0	0	0	0	608	615	
9	0	0	0	0	608	614	
10	0	0	0	0	608	610	
11	0	0	0	0	608	613	
12	0	0	0	0	609	614	
13	0	0	0	0	610	613	
14	0	0	0	0	610	617	
15	0	0	0	0	611	613	
0	0	0	0	0	610	613	
1	0	0	0	0	609	612	
2	0	0	0	0	608	608	
3	0	0	0	0	608	612	
4	0	0	0	0	607	612	
5	0	0	0	0	604	611	
6	0	0	0	0	601	615	
7	0	0	0	0	599	611	
8	0	0	0	0	598	610	
9	0	0	0	0	601	610	
10	0	0	0	0	601	606	
11	0	0	0	0	601	609	
12	0	0	0	0	602	610	
13	0	0	0	0	603	610	
14	0	0	0	0	604	614	
15	0	0	0	0	604	610	
0	0	0	0	0	604	610	
1	0	0	0	0	604	609	
2	0	0	0	0	600	606	
3	0	0	0	0	599	610	
4	0	0	0	0	602	610	
5	0	0	0	0	602	610	
6	0	0	0	0	602	614	
7	0	0	0	0	603	610	
8	0	0	0	0	603	610	
9	0	0	0	0	602	611	
10	0	0	0	0	601	607	
11	0	0	0	0	603	612	
12	0	0	0	0	605	612	
13	0	0	0	0	613	614	
14	0	0	0	0	622	617	
15	0	0	0	0	626	613	
0	0	0	0	0	633	614	
1	0	0	0	0	644	614	
2	0	0	0	0	656	610	
3	0	0	0	0	660	615	
4	0	0	0	0	667	615	
5	0	0	0	0	668	616	
6	0	0	0	0	668	620	
7	0	0	0	0	664	616	
8	0	0	0	0	659	616	
9	0	0	0	0	653	616	
10	0	0	0	0	642	612	
11	0	0	0	0	630	617	
12	0	0	0	0	619	618	
13	0	0	0	0	615	619	
14	0	0	0	0	604	622	
15	0	0	0	0	584	620	
0	0	0	0	0	562	620	
1	0	0	0	0	545	621	
2	0	0	0	0	541	617	
3	0	0	0	0	540	621	
4	0	0	0	0	524	622	
5	0	0	0	0	492	623	
6	0	0	0	0	456	626	
7	0	0	0	0	416	623	
8	0	0	0	0	372	624	
9	0	0	0	0	331	624	
10	0	0	0	0	303	621	
11	0	0	0	0	282	625	
12	0	0	0	0	267	625	
13	0	0	0	0	255	626	
14	0	0	0	0	246	629	
15	0	0	0	0	249	625	
0	0	0	0	0	274	626	
1	0	0	0	0	303	626	
2	0	0	0	0	321	622	
3	0	0	0	0	342	626	
4	0	0	0	0	384	626	
5	0	0	0	0	428	627	
6	0	0	0	0	469	630	
7	0	0	0	0	494	627	
8	0	0	0	0	504	627	
9	0	0	0	0	498	627	
10	0	0	0	0	487	624	
11	0	0	0	0	483	628	
12	0	0	0	0	486	628	
13	0	0	0	0	492	628	
14	0	0	0	0	495	632	
15	0	0	0	0	504	629	
0	0	0	0	0	512	628	
1	0	0	0	0	518	628	
2	0	0	0	0	521	625	
3	0	0	0	0	527	629	
4	0	0	0	0	530	628	
5	0	0	0	0	532	630	
6	0	0	0	0	535	633	
7	0	0	0	0	529	630	
8	0	0	0	0	527	630	
9	0	0	0	0	541	630	
10	0	0	0	0	560	627	
11	0	0	0	0	572	631	
12	0	0	0	0	579	632	
13	0	0	0	0	589	632	
14	0	0	0	0	596	635	
15	0	0	0	0	607	632	
0	0	0	0	0	615	632	
1	0	0	0	0	620	632	
2	0	0	0	0	622	628	
3	0	0	0	0	626	632	
4	0	0	0	0	635	632	
5	0	0	0	0	645	632	
6	0	0	0	0	651	635	
7	0	0	0	0	654	632	
8	0	0	0	0	654	632	
9	0	0	0	0	656	631	
10	0	0	0	0	655	628	
11	0	0	0	0	653	631	
12	0	0	0	0	650	632	
13	0	0	0	0	649	632	
14	0	0	0	0	650	635	
15	0	0	0	0	650	631	
0	0	0	0	0	651	631	
1	0	0	0	0	650	631	
2	0	0	0	0	651	627	
3	0	0	0	0	652	630	
4	0	0	0	0	653	630	
5	0	0	0	0	653	631	
6	0	0	0	0	652	633	
7	0	0	0	0	651	629	
8	0	0	0	0	650	628	
9	0	0	0	0	649	628	
10	0	0	0	0	647	624	
11	0	0	0	0	645	627	
12	0	0	0	0	644	628	
13	0	0	0	0	644	626	
14	0	0	0	0	643	629	
15	0	0	0	0	641	625	
0	0	0	0	0	639	625	
1	0	0	0	0	639	624	
2	0	0	0	0	638	620	
3	0	0	0	0	637	624	
4	0	0	0	0	636	623	
5	0	0	0	0	637	623	
6	0	0	0	0	638	626	
7	0	0	0	0	637	622	
8	0	0	0	0	636	622	
9	0	0	0	0	635	622	
10	0	0	0	0	634	617	
11	0	0	0	0	632	621	
12	0	0	0	0	633	620	
13	0	0	0	0	632	620	
14	0	0	0	0	632	624	
15	0	0	0	0	631	620	
0	0	0	0	0	629	620	
1	0	0	0	0	629	619	
2	0	0	0	0	627	615	
3	0	0	0	0	627	619	
4	0	0	0	0	626	618	
5	0	0	0	0	624	619	
6	0	0	0	0	623	622	
7	0	0	0	0	621	617	
8	0	0	0	0	620	618	
9	0	0	0	0	619	617	
10	0	0	0	0	618	614	
11	0	0	0	0	617	617	
12	0	0	0	0	617	617	
13	0	0	0	0	617	618	
14	0	0	0	0	615	621	
15	0	0	0	0	616	617	
0	0	0	0	0	616	616	
1	0	0	0	0	616	617	
2	0	0	0	0	616	612	
3	0	0	0	0	616	617	
4	0	0	0	0	616	617	
5	0	0	0	0	617	617	
6	0	0	0	0	618	620	
7	0	0	0	0	618	617	
8	0	0	0	0	618	617	
9	0	0	0	0	618	617	
10	0	0	0	0	617	613	
11	0	0	0	0	615	618	
12	0	0	0	0	613	617	
13	0	0	0	0	610	617	
14	0	0	0	0	608	621	
15	0	0	0	0	606	618	
0	0	0	0	0	606	617	
1	0	0	0	0	606	618	
2	0	0	0	0	605	614	
3	0	0	0	0	604	618	
4	0	0	0	0	602	618	
5	0	0	0	0	601	618	
6	0	0	0	0	599	622	
7	0	0	0	0	595	618	
8	0	0	0	0	592	618	
9	0	0	0	0	590	619	
10	0	0	0	0	588	615	
11	0	0	0	0	588	619	
12	0	0	0	0	589	618	
13	0	0	0	0	588	619	
14	0	0	0	0	586	622	
15	0	0	0	0	583	619	
0	0	0	0	0	583	619	
1	0	0	0	0	582	619	
2	0	0	0	0	582	615	
3	0	0	0	0	580	619	
4	0	0	0	0	579	619	
5	0	0	0	0	581	620	
6	0	0	0	0	581	623	
7	0	0	0	0	579	620	
8	0	0	0	0	576	620	
9	0	0	0	0	577	620	
10	0	0	0	0	575	616	
11	0	0	0	0	569	620	
12	0	0	0	0	567	620	
13	0	0	0	0	564	620	
14	0	0	0	0	563	624	
15	0	0	0	0	564	621	
0	0	0	0	0	563	621	
1	0	0	0	0	562	621	
2	0	0	0	0	563	617	
3	0	0	0	0	562	621	
4	0	0	0	0	563	622	
5	0	0	0	0	563	622	
6	0	0	0	0	562	626	
7	0	0	0	0	559	622	
8	0	0	0	0	555	622	
9	0	0	0	0	552	623	
10	0	0	0	0	551	619	
11	0	0	0	0	551	623	
12	0	0	0	0	550	622	
13	0	0	0	0	549	622	
14	0	0	0	0	547	626	
15	0	0	0	0	545	622	
0	0	0	0	0	543	622	
1	0	0	0	0	542	622	
2	0	0	0	0	539	618	
3	0	0	0	0	536	622	
4	0	0	0	0	536	623	
5	0	0	0	0	537	623	
6	0	0	0	0	538	626	
7	0	0	0	0	539	623	
8	0	0	0	0	539	623	
9	0	0	0	0	537	623	
10	0	0	0	0	535	619	
11	0	0	0	0	532	623	
12	0	0	0	0	533	623	
13	0	0	0	0	535	623	
14	0	0	0	0	536	627	
15	0	0	0	0	536	624	
0	0	0	0	0	535	624	
1	0	0	0	0	537	624	
2	0	0	0	0	537	621	
3	0	0	0	0	538	624	
4	0	0	0	0	538	624	
5	0	0	0	0	536	624	
6	0	0	0	0	536	628	
7	0	0	0	0	537	624	
8	0	0	0	0	536	625	
9	0	0	0	0	536	625	
10	0	0	0	0	537	621	
11	0	0	0	0	537	625	
12	0	0	0	0	539	625	
13	0	0	0	0	543	625	
14	0	0	0	0	545	628	
15	0	0	0	0	545	625	
0	0	0	0	0	542	625	
1	0	0	0	0	539	625	
2	0	0	0	0	538	622	
3	0	0	0	0	540	625	
4	0	0	0	0	545	625	
5	0	0	0	0	550	625	
6	0	0	0	0	555	628	
7	0	0	0	0	561	625	
8	0	0	0	0	564	625	
9	0	0	0	0	563	625	
10	0	0	0	0	559	621	
11	0	0	0	0	556	625	
12	0	0	0	0	555	625	
13	0	0	0	0	554	626	
14	0	0	0	0	555	629	
15	0	0	0	0	558	625	
0	0	0	0	0	562	625	
1	0	0	0	0	566	625	
2	0	0	0	0	569	622	
3	0	0	0	0	572	625	
4	0	0	0	0	571	625	
5	0	0	0	0	569	626	
6	0	0	0	0	569	628	
7	0	0	0	0	569	625	
8	0	0	0	0	568	625	
9	0	0	0	0	568	625	
10	0	0	0	0	570	621	
11	0	0	0	0	569	625	
12	0	0	0	0	568	625	
13	0	0	0	0	567	625	
14	0	0	0	0	567	627	
15	0	0	0	0	572	625	
0	0	0	0	0	582	625	
1	0	0	0	0	589	625	
2	0	0	0	0	589	622	
3	0	0	0	0	585	626	
4	0	0	0	0	580	626	
5	0	0	0	0	571	626	
6	0	0	0	0	565	629	
7	0	0	0	0	563	626	
8	0	0	0	0	565	626	
9	0	0	0	0	571	626	
10	0	0	0	0	576	622	
11	0	0	0	0	577	626	
12	0	0	0	0	575	626	
13	0	0	0	0	574	626	
14	0	0	0	0	571	630	
15	0	0	0	0	571	625	
0	0	0	0	0	573	625	
1	0	0	0	0	572	626	
2	0	0	0	0	569	622	
3	0	0	0	0	570	626	
4	0	0	0	0	574	626	
5	0	0	0	0	578	627	
6	0	0	0	0	580	629	
7	0	0	0	0	578	626	
8	0	0	0	0	577	626	
9	0	0	0	0	576	625	
10	0	0	0	0	574	622	
11	0	0	0	0	573	626	
12	0	0	0	0	571	625	
13	0	0	0	0	569	626	
14	0	0	0	0	568	629	
15	0	0	0	0	567	625	
0	0	0	0	0	565	625	
1	0	0	0	0	564	625	
2	0	0	0	0	563	621	
3	0	0	0	0	563	625	
4	0	0	0	0	564	625	
5	0	0	0	0	563	625	
6	0	0	0	0	562	628	
7	0	0	0	0	563	625	
8	0	0	0	0	560	625	
9	0	0	0	0	557	625	
10	0	0	0	0	556	621	
11	0	0	0	0	555	625	
12	0	0	0	0	556	625	
13	0	0	0	0	557	625	
14	0	0	0	0	557	629	
15	0	0	0	0	557	625	
0	0	0	0	0	554	625	
1	0	0	0	0	551	625	
2	0	0	0	0	553	622	
3	0	0	0	0	555	625	
4	0	0	0	0	556	625	
5	0	0	0	0	556	625	
6	0	0	0	0	555	630	
7	0	0	0	0	552	626	
8	0	0	0	0	551	626	
9	0	0	0	0	553	626	
10	0	0	0	0	556	622	
11	0	0	0	0	558	626	
12	0	0	0	0	559	626	
13	0	0	0	0	558	627	
14	0	0	0	0	556	630	
15	0	0	0	0	556	626	
0	0	0	0	0	558	626	
1	0	0	0	0	559	626	
2	0	0	0	0	557	623	
3	0	0	0	0	557	627	
4	0	0	0	0	556	626	
5	0	0	0	0	556	626	
6	0	0	0	0	555	628	
7	0	0	0	0	555	626	
8	0	0	0	0	551	626	
9	0	0	0	0	549	625	
10	0	0	0	0	550	623	
11	0	0	0	0	550	625	
12	0	0	0	0	549	625	
13	0	0	0	0	553	625	
14	0	0	0	0	555	628	
15	0	0	0	0	555	626	
0	0	0	0	0	554	625	
1	0	0	0	0	555	625	
2	0	0	0	0	555	621	
3	0	0	0	0	553	625	
4	0	0	0	0	549	625	
5	0	0	0	0	546	625	
6	0	0	0	0	548	628	
7	0	0	0	0	553	624	
8	0	0	0	0	555	624	
9	0	0	0	0	556	625	
10	0	0	0	0	558	620	
11	0	0	0	0	557	624	
12	0	0	0	0	556	623	
13	0	0	0	0	554	624	
14	0	0	0	0	551	627	
15	0	0	0	0	548	624	
0	0	0	0	0	548	623	
1	0	0	0	0	548	624	
2	0	0	0	0	547	620	
3	0	0	0	0	545	624	
4	0	0	0	0	543	623	
5	0	0	0	0	543	624	
6	0	0	0	0	543	627	
7	0	0	0	0	543	624	
8	0	0	0	0	540	624	
9	0	0	0	0	540	624	
10	0	0	0	0	542	620	
11	0	0	0	0	545	624	
12	0	0	0	0	545	624	
13	0	0	0	0	548	624	
14	0	0	0	0	545	627	
15	0	0	0	0	543	623	
0	0	0	0	0	539	624	
1	0	0	0	0	537	624	
2	0	0	0	0	539	621	
3	0	0	0	0	541	624	
4	0	0	0	0	542	624	
5	0	0	0	0	543	624	
6	0	0	0	0	546	627	
7	0	0	0	0	550	624	
8	0	0	0	0	548	624	
9	0	0	0	0	548	624	
10	0	0	0	0	546	620	
11	0	0	0	0	543	625	
12	0	0	0	0	540	625	
13	0	0	0	0	535	624	
14	0	0	0	0	535	627	
15	0	0	0	0	536	624	
0	0	0	0	0	540	624	
1	0	0	0	0	542	625	
2	0	0	0	0	543	621	
3	0	0	0	0	543	625	
4	0	0	0	0	539	625	
5	0	0	0	0	535	625	
6	0	0	0	0	534	629	
7	0	0	0	0	531	625	
8	0	0	0	0	531	624	
9	0	0	0	0	532	624	
10	0	0	0	0	535	620	
11	0	0	0	0	541	624	
12	0	0	0	0	545	624	
13	0	0	0	0	546	624	
14	0	0	0	0	545	627	
15	0	0	0	0	545	624	
0	0	0	0	0	547	624	
1	0	0	0	0	543	624	
2	0	0	0	0	541	620	
3	0	0	0	0	540	624	
4	0	0	0	0	540	624	
5	0	0	0	0	537	624	
6	0	0	0	0	534	627	
7	0	0	0	0	534	624	
8	0	0	0	0	534	624	
9	0	0	0	0	534	624	
10	0	0	0	0	534	620	
11	0	0	0	0	534	624	
12	0	0	0	0	534	624	
13	0	0	0	0	533	624	
14	0	0	0	0	531	627	
15	0	0	0	0	531	624	
0	0	0	0	0	531	623	
1	0	0	0	0	531	623	
2	0	0	0	0	529	620	
3	0	0	0	0	528	623	
4	0	0	0	0	527	623	
5	0	0	0	0	527	623	
6	0	0	0	0	529	626	
7	0	0	0	0	532	623	
8	0	0	0	0	534	623	
9	0	0	0	0	533	623	
10	0	0	0	0	531	618	
11	0	0	0	0	530	622	
12	0	0	0	0	531	621	
13	0	0	0	0	531	622	
14	0	0	0	0	532	625	
15	0	0	0	0	531	621	
0	0	0	0	0	532	621	
1	0	0	0	0	533	621	
2	0	0	0	0	535	617	
3	0	0	0	0	534	621	
4	0	0	0	0	531	620	
5	0	0	0	0	530	621	
6	0	0	0	0	531	624	
7	0	0	0	0	531	620	
8	0	0	0	0	531	621	
9	0	0	0	0	530	620	
10	0	0	0	0	531	616	
11	0	0	0	0	532	620	
12	0	0	0	0	531	620	
13	0	0	0	0	530	619	
14	0	0	0	0	529	623	
15	0	0	0	0	531	619	
0	0	0	0	0	531	618	
1	0	0	0	0	532	619	
2	0	0	0	0	534	615	
3	0	0	0	0	533	618	
4	0	0	0	0	534	619	
5	0	0	0	0	533	618	
6	0	0	0	0	531	621	
7	0	0	0	0	530	618	
8	0	0	0	0	530	617	
9	0	0	0	0	530	617	
10	0	0	0	0	531	613	
11	0	0	0	0	530	617	
12	0	0	0	0	529	617	
13	0	0	0	0	527	616	
14	0	0	0	0	527	620	
15	0	0	0	0	527	616	
0	0	0	0	0	527	615	
1	0	0	0	0	527	616	
2	0	0	0	0	529	612	
3	0	0	0	0	528	615	
4	0	0	0	0	527	615	
5	0	0	0	0	527	615	
6	0	0	0	0	531	619	
7	0	0	0	0	536	615	
8	0	0	0	0	537	615	
9	0	0	0	0	538	614	
10	0	0	0	0	540	610	
11	0	0	0	0	543	615	
12	0	0	0	0	547	615	
13	0	0	0	0	550	615	
14	0	0	0	0	552	619	
15	0	0	0	0	554	615	
0	0	0	0	0	555	615	
1	0	0	0	0	552	615	
2	0	0	0	0	549	612	
3	0	0	0	0	546	615	
4	0	0	0	0	544	615	
5	0	0	0	0	546	616	
6	0	0	0	0	547	620	
7	0	0	0	0	550	616	
8	0	0	0	0	550	615	
9	0	0	0	0	550	615	
10	0	0	0	0	547	612	
11	0	0	0	0	545	616	
12	0	0	0	0	543	616	
13	0	0	0	0	541	616	
14	0	0	0	0	541	620	
15	0	0	0	0	540	616	
0	0	0	0	0	537	617	
1	0	0	0	0	540	616	
2	0	0	0	0	540	613	
3	0	0	0	0	539	617	
4	0	0	0	0	538	617	
