# OpenSignals Text File Format. Version 1
# {"98:D3:91:FD:69:48": {"position": 0, "device": "bitalino_rev", "device name": "98:D3:91:FD:69:48", "device connection": "BTH98:D3:91:FD:69:48", "sampling rate": 1000, "resolution": [4, 1, 1, 1, 1, 10, 10], "firmware version": 1281, "comments": "", "keywords": "", "mode": 0, "sync interval": 2, "date": "2021-9-5", "time": "14:36:7.832", "channels": [2, 5], "sensor": ["RAW", "RAW"], "label": ["A2", "A5"], "column": ["nSeq", "I1", "I2", "O1", "O2", "A2", "A5"], "special": [{}, {}], "digital IO": [0, 0, 1, 1], "convertedValues": 0}}
# EndOfHeader
0	0	0	0	0	467	409	
1	0	0	0	0	465	409	
2	0	0	0	0	463	409	
3	0	0	0	0	461	409	
4	0	0	0	0	459	411	
5	0	0	0	0	457	409	
6	0	0	0	0	455	409	
7	0	0	0	0	455	409	
8	0	0	0	0	454	410	
9	0	0	0	0	455	409	
10	0	0	0	0	460	409	
11	0	0	0	0	467	409	
12	0	0	0	0	473	410	
13	0	0	0	0	478	409	
14	0	0	0	0	480	409	
15	0	0	0	0	481	409	
0	0	0	0	0	480	409	
1	0	0	0	0	477	409	
2	0	0	0	0	473	409	
3	0	0	0	0	470	409	
4	0	0	0	0	466	409	
5	0	0	0	0	462	408	
6	0	0	0	0	458	409	
7	0	0	0	0	455	409	
8	0	0	0	0	453	408	
9	0	0	0	0	452	408	
10	0	0	0	0	452	408	
11	0	0	0	0	453	409	
12	0	0	0	0	454	408	
13	0	0	0	0	456	408	
14	0	0	0	0	461	408	
15	0	0	0	0	467	408	
0	0	0	0	0	473	408	
1	0	0	0	0	479	408	
2	0	0	0	0	484	408	
3	0	0	0	0	487	408	
4	0	0	0	0	487	409	
5	0	0	0	0	486	408	
6	0	0	0	0	482	408	
7	0	0	0	0	477	407	
8	0	0	0	0	472	408	
9	0	0	0	0	467	408	
10	0	0	0	0	463	407	
11	0	0	0	0	459	408	
12	0	0	0	0	456	408	
13	0	0	0	0	454	408	
14	0	0	0	0	452	408	
15	0	0	0	0	451	408	
0	0	0	0	0	452	408	
1	0	0	0	0	455	408	
2	0	0	0	0	460	408	
3	0	0	0	0	466	408	
4	0	0	0	0	474	409	
5	0	0	0	0	481	408	
6	0	0	0	0	487	408	
7	0	0	0	0	491	409	
8	0	0	0	0	493	408	
9	0	0	0	0	492	408	
10	0	0	0	0	492	408	
11	0	0	0	0	488	409	
12	0	0	0	0	484	409	
13	0	0	0	0	480	408	
14	0	0	0	0	477	409	
15	0	0	0	0	475	408	
0	0	0	0	0	473	408	
1	0	0	0	0	472	408	
2	0	0	0	0	473	408	
3	0	0	0	0	473	408	
4	0	0	0	0	475	409	
5	0	0	0	0	476	408	
6	0	0	0	0	481	409	
7	0	0	0	0	487	409	
8	0	0	0	0	494	409	
9	0	0	0	0	499	408	
10	0	0	0	0	501	408	
11	0	0	0	0	504	409	
12	0	0	0	0	503	410	
13	0	0	0	0	500	408	
14	0	0	0	0	496	408	
15	0	0	0	0	491	408	
0	0	0	0	0	484	408	
1	0	0	0	0	479	408	
2	0	0	0	0	473	408	
3	0	0	0	0	469	407	
4	0	0	0	0	466	408	
5	0	0	0	0	464	407	
6	0	0	0	0	464	408	
7	0	0	0	0	463	407	
8	0	0	0	0	463	408	
9	0	0	0	0	465	408	
10	0	0	0	0	471	408	
11	0	0	0	0	476	407	
12	0	0	0	0	481	408	
13	0	0	0	0	486	407	
14	0	0	0	0	489	407	
15	0	0	0	0	492	407	
0	0	0	0	0	492	408	
1	0	0	0	0	491	408	
2	0	0	0	0	487	407	
3	0	0	0	0	482	408	
4	0	0	0	0	476	408	
5	0	0	0	0	471	407	
6	0	0	0	0	467	407	
7	0	0	0	0	464	408	
8	0	0	0	0	462	407	
9	0	0	0	0	459	408	
10	0	0	0	0	458	407	
11	0	0	0	0	459	407	
12	0	0	0	0	460	409	
13	0	0	0	0	463	408	
14	0	0	0	0	468	408	
15	0	0	0	0	476	408	
0	0	0	0	0	483	408	
1	0	0	0	0	488	408	
2	0	0	0	0	491	408	
3	0	0	0	0	491	408	
4	0	0	0	0	488	409	
5	0	0	0	0	485	408	
6	0	0	0	0	480	408	
7	0	0	0	0	473	408	
8	0	0	0	0	466	408	
9	0	0	0	0	458	409	
10	0	0	0	0	452	409	
11	0	0	0	0	446	409	
12	0	0	0	0	442	410	
13	0	0	0	0	439	409	
14	0	0	0	0	438	409	
15	0	0	0	0	437	409	
0	0	0	0	0	438	409	
1	0	0	0	0	440	409	
2	0	0	0	0	444	408	
3	0	0	0	0	450	409	
4	0	0	0	0	457	410	
5	0	0	0	0	463	408	
6	0	0	0	0	467	409	
7	0	0	0	0	470	409	
8	0	0	0	0	470	409	
9	0	0	0	0	467	408	
10	0	0	0	0	464	409	
11	0	0	0	0	459	408	
12	0	0	0	0	454	409	
13	0	0	0	0	449	408	
14	0	0	0	0	445	408	
15	0	0	0	0	443	408	
0	0	0	0	0	441	408	
1	0	0	0	0	441	408	
2	0	0	0	0	443	409	
3	0	0	0	0	447	408	
4	0	0	0	0	450	410	
5	0	0	0	0	454	408	
6	0	0	0	0	460	409	
7	0	0	0	0	468	408	
8	0	0	0	0	476	408	
9	0	0	0	0	483	409	
10	0	0	0	0	488	409	
11	0	0	0	0	492	409	
12	0	0	0	0	493	410	
13	0	0	0	0	491	409	
14	0	0	0	0	489	409	
15	0	0	0	0	485	409	
0	0	0	0	0	480	409	
1	0	0	0	0	477	409	
2	0	0	0	0	474	409	
3	0	0	0	0	472	409	
4	0	0	0	0	471	410	
5	0	0	0	0	470	409	
6	0	0	0	0	470	409	
7	0	0	0	0	470	409	
8	0	0	0	0	471	410	
9	0	0	0	0	473	409	
10	0	0	0	0	479	409	
11	0	0	0	0	484	409	
12	0	0	0	0	489	411	
13	0	0	0	0	493	409	
14	0	0	0	0	496	410	
15	0	0	0	0	498	409	
0	0	0	0	0	499	409	
1	0	0	0	0	498	408	
2	0	0	0	0	496	409	
3	0	0	0	0	493	409	
4	0	0	0	0	488	409	
5	0	0	0	0	484	409	
6	0	0	0	0	481	408	
7	0	0	0	0	479	409	
8	0	0	0	0	479	409	
9	0	0	0	0	480	408	
10	0	0	0	0	483	409	
11	0	0	0	0	485	409	
12	0	0	0	0	487	409	
13	0	0	0	0	491	408	
14	0	0	0	0	497	409	
15	0	0	0	0	504	408	
0	0	0	0	0	511	408	
1	0	0	0	0	516	408	
2	0	0	0	0	520	408	
3	0	0	0	0	524	408	
4	0	0	0	0	525	408	
5	0	0	0	0	523	408	
6	0	0	0	0	520	408	
7	0	0	0	0	515	408	
8	0	0	0	0	509	408	
9	0	0	0	0	504	408	
10	0	0	0	0	501	408	
11	0	0	0	0	499	408	
12	0	0	0	0	500	408	
13	0	0	0	0	501	408	
14	0	0	0	0	502	408	
15	0	0	0	0	503	408	
0	0	0	0	0	505	408	
1	0	0	0	0	509	408	
2	0	0	0	0	514	408	
3	0	0	0	0	521	408	
4	0	0	0	0	528	409	
5	0	0	0	0	536	409	
6	0	0	0	0	542	409	
7	0	0	0	0	546	408	
8	0	0	0	0	547	408	
9	0	0	0	0	547	408	
10	0	0	0	0	544	408	
11	0	0	0	0	540	409	
12	0	0	0	0	536	409	
13	0	0	0	0	531	408	
14	0	0	0	0	526	409	
15	0	0	0	0	523	409	
0	0	0	0	0	520	410	
1	0	0	0	0	519	409	
2	0	0	0	0	519	409	
3	0	0	0	0	520	409	
4	0	0	0	0	522	411	
5	0	0	0	0	526	409	
6	0	0	0	0	531	410	
7	0	0	0	0	537	409	
8	0	0	0	0	543	409	
9	0	0	0	0	548	409	
10	0	0	0	0	550	409	
11	0	0	0	0	551	409	
12	0	0	0	0	552	410	
13	0	0	0	0	552	408	
14	0	0	0	0	550	408	
15	0	0	0	0	547	409	
0	0	0	0	0	544	409	
1	0	0	0	0	542	409	
2	0	0	0	0	540	409	
3	0	0	0	0	539	409	
4	0	0	0	0	539	410	
5	0	0	0	0	540	408	
6	0	0	0	0	540	408	
7	0	0	0	0	541	408	
8	0	0	0	0	542	409	
9	0	0	0	0	543	408	
10	0	0	0	0	547	408	
11	0	0	0	0	553	408	
12	0	0	0	0	558	409	
13	0	0	0	0	563	408	
14	0	0	0	0	567	408	
15	0	0	0	0	569	408	
0	0	0	0	0	569	408	
1	0	0	0	0	567	408	
2	0	0	0	0	563	408	
3	0	0	0	0	557	408	
4	0	0	0	0	551	409	
5	0	0	0	0	545	408	
6	0	0	0	0	540	408	
7	0	0	0	0	536	408	
8	0	0	0	0	533	408	
9	0	0	0	0	531	408	
10	0	0	0	0	529	408	
11	0	0	0	0	527	408	
12	0	0	0	0	527	409	
13	0	0	0	0	527	408	
14	0	0	0	0	529	407	
15	0	0	0	0	534	408	
0	0	0	0	0	537	408	
1	0	0	0	0	540	407	
2	0	0	0	0	542	408	
3	0	0	0	0	543	408	
4	0	0	0	0	542	408	
5	0	0	0	0	538	407	
6	0	0	0	0	533	408	
7	0	0	0	0	527	408	
8	0	0	0	0	521	408	
9	0	0	0	0	516	408	
10	0	0	0	0	512	408	
11	0	0	0	0	510	408	
12	0	0	0	0	508	410	
13	0	0	0	0	507	408	
14	0	0	0	0	507	408	
15	0	0	0	0	507	408	
0	0	0	0	0	509	408	
1	0	0	0	0	511	408	
2	0	0	0	0	515	408	
3	0	0	0	0	520	408	
4	0	0	0	0	526	409	
5	0	0	0	0	531	408	
6	0	0	0	0	534	408	
7	0	0	0	0	536	409	
8	0	0	0	0	536	409	
9	0	0	0	0	532	409	
10	0	0	0	0	527	409	
11	0	0	0	0	521	409	
12	0	0	0	0	516	411	
13	0	0	0	0	511	409	
14	0	0	0	0	505	410	
15	0	0	0	0	502	409	
0	0	0	0	0	498	409	
1	0	0	0	0	496	409	
2	0	0	0	0	494	408	
3	0	0	0	0	494	409	
4	0	0	0	0	494	409	
5	0	0	0	0	493	408	
6	0	0	0	0	495	408	
7	0	0	0	0	499	408	
8	0	0	0	0	502	409	
9	0	0	0	0	504	408	
10	0	0	0	0	506	408	
11	0	0	0	0	506	408	
12	0	0	0	0	505	409	
13	0	0	0	0	503	408	
14	0	0	0	0	499	407	
15	0	0	0	0	495	407	
0	0	0	0	0	490	408	
1	0	0	0	0	485	407	
2	0	0	0	0	482	407	
3	0	0	0	0	478	407	
4	0	0	0	0	475	407	
5	0	0	0	0	473	406	
6	0	0	0	0	471	407	
7	0	0	0	0	470	406	
8	0	0	0	0	469	406	
9	0	0	0	0	471	406	
10	0	0	0	0	475	407	
11	0	0	0	0	481	407	
12	0	0	0	0	488	407	
13	0	0	0	0	493	406	
14	0	0	0	0	496	406	
15	0	0	0	0	499	406	
0	0	0	0	0	500	406	
1	0	0	0	0	498	407	
2	0	0	0	0	495	407	
3	0	0	0	0	490	407	
4	0	0	0	0	486	408	
5	0	0	0	0	481	407	
6	0	0	0	0	477	407	
7	0	0	0	0	474	407	
8	0	0	0	0	472	407	
9	0	0	0	0	470	407	
10	0	0	0	0	470	408	
11	0	0	0	0	470	407	
12	0	0	0	0	471	409	
13	0	0	0	0	472	407	
14	0	0	0	0	476	407	
15	0	0	0	0	481	408	
0	0	0	0	0	487	408	
1	0	0	0	0	493	408	
2	0	0	0	0	498	408	
3	0	0	0	0	501	408	
4	0	0	0	0	502	409	
5	0	0	0	0	499	409	
6	0	0	0	0	496	408	
7	0	0	0	0	491	408	
8	0	0	0	0	485	409	
9	0	0	0	0	480	408	
10	0	0	0	0	474	409	
11	0	0	0	0	469	409	
12	0	0	0	0	465	409	
13	0	0	0	0	463	409	
14	0	0	0	0	462	409	
15	0	0	0	0	462	409	
0	0	0	0	0	464	409	
1	0	0	0	0	467	409	
2	0	0	0	0	471	408	
3	0	0	0	0	475	409	
4	0	0	0	0	481	409	
5	0	0	0	0	485	409	
6	0	0	0	0	488	409	
7	0	0	0	0	491	409	
8	0	0	0	0	491	409	
9	0	0	0	0	489	408	
10	0	0	0	0	485	408	
11	0	0	0	0	479	409	
12	0	0	0	0	472	410	
13	0	0	0	0	465	409	
14	0	0	0	0	460	409	
15	0	0	0	0	456	409	
0	0	0	0	0	453	408	
1	0	0	0	0	451	408	
2	0	0	0	0	451	408	
3	0	0	0	0	451	409	
4	0	0	0	0	451	410	
5	0	0	0	0	453	408	
6	0	0	0	0	457	408	
7	0	0	0	0	463	409	
8	0	0	0	0	471	408	
9	0	0	0	0	476	408	
10	0	0	0	0	480	408	
11	0	0	0	0	482	408	
12	0	0	0	0	482	410	
13	0	0	0	0	480	408	
14	0	0	0	0	476	409	
15	0	0	0	0	469	408	
0	0	0	0	0	463	408	
1	0	0	0	0	457	408	
2	0	0	0	0	450	408	
3	0	0	0	0	446	409	
4	0	0	0	0	444	410	
5	0	0	0	0	441	409	
6	0	0	0	0	440	408	
7	0	0	0	0	440	408	
8	0	0	0	0	441	409	
9	0	0	0	0	442	409	
10	0	0	0	0	445	409	
11	0	0	0	0	450	409	
12	0	0	0	0	455	410	
13	0	0	0	0	458	409	
14	0	0	0	0	460	409	
15	0	0	0	0	463	409	
0	0	0	0	0	464	409	
1	0	0	0	0	463	409	
2	0	0	0	0	461	409	
3	0	0	0	0	457	409	
4	0	0	0	0	452	410	
5	0	0	0	0	448	409	
6	0	0	0	0	444	409	
7	0	0	0	0	440	409	
8	0	0	0	0	438	409	
9	0	0	0	0	436	409	
10	0	0	0	0	434	409	
11	0	0	0	0	433	409	
12	0	0	0	0	432	410	
13	0	0	0	0	433	409	
14	0	0	0	0	437	409	
15	0	0	0	0	442	408	
0	0	0	0	0	448	409	
1	0	0	0	0	453	409	
2	0	0	0	0	457	409	
3	0	0	0	0	460	409	
4	0	0	0	0	461	410	
5	0	0	0	0	460	409	
6	0	0	0	0	457	409	
7	0	0	0	0	453	409	
8	0	0	0	0	448	408	
9	0	0	0	0	443	409	
10	0	0	0	0	438	408	
11	0	0	0	0	434	408	
12	0	0	0	0	431	409	
13	0	0	0	0	430	408	
14	0	0	0	0	430	409	
15	0	0	0	0	432	408	
0	0	0	0	0	434	409	
1	0	0	0	0	438	408	
2	0	0	0	0	444	409	
3	0	0	0	0	452	410	
4	0	0	0	0	459	410	
5	0	0	0	0	464	409	
6	0	0	0	0	469	409	
7	0	0	0	0	472	408	
8	0	0	0	0	473	409	
9	0	0	0	0	471	409	
10	0	0	0	0	468	409	
11	0	0	0	0	464	409	
12	0	0	0	0	460	410	
13	0	0	0	0	456	409	
14	0	0	0	0	454	409	
15	0	0	0	0	453	409	
0	0	0	0	0	453	408	
1	0	0	0	0	454	408	
2	0	0	0	0	456	409	
3	0	0	0	0	460	408	
4	0	0	0	0	464	410	
5	0	0	0	0	469	409	
6	0	0	0	0	477	409	
7	0	0	0	0	486	409	
8	0	0	0	0	494	408	
9	0	0	0	0	499	409	
10	0	0	0	0	504	408	
11	0	0	0	0	505	409	
12	0	0	0	0	504	409	
13	0	0	0	0	502	408	
14	0	0	0	0	498	409	
15	0	0	0	0	494	409	
0	0	0	0	0	490	408	
1	0	0	0	0	487	408	
2	0	0	0	0	485	409	
3	0	0	0	0	483	409	
4	0	0	0	0	483	410	
5	0	0	0	0	483	409	
6	0	0	0	0	484	409	
7	0	0	0	0	486	409	
8	0	0	0	0	487	409	
9	0	0	0	0	490	409	
10	0	0	0	0	495	409	
11	0	0	0	0	501	409	
12	0	0	0	0	508	410	
13	0	0	0	0	513	408	
14	0	0	0	0	516	408	
15	0	0	0	0	519	408	
0	0	0	0	0	518	408	
1	0	0	0	0	514	408	
2	0	0	0	0	509	409	
3	0	0	0	0	504	408	
4	0	0	0	0	496	409	
5	0	0	0	0	490	408	
6	0	0	0	0	482	408	
7	0	0	0	0	476	408	
8	0	0	0	0	472	408	
9	0	0	0	0	469	408	
10	0	0	0	0	466	408	
11	0	0	0	0	465	408	
12	0	0	0	0	465	409	
13	0	0	0	0	466	409	
14	0	0	0	0	469	408	
15	0	0	0	0	474	408	
0	0	0	0	0	479	408	
1	0	0	0	0	483	408	
2	0	0	0	0	485	408	
3	0	0	0	0	486	408	
4	0	0	0	0	484	409	
5	0	0	0	0	480	408	
6	0	0	0	0	475	409	
7	0	0	0	0	468	409	
8	0	0	0	0	461	409	
9	0	0	0	0	455	408	
10	0	0	0	0	449	408	
11	0	0	0	0	445	408	
12	0	0	0	0	443	409	
13	0	0	0	0	442	408	
14	0	0	0	0	443	408	
15	0	0	0	0	444	408	
0	0	0	0	0	446	409	
1	0	0	0	0	450	408	
2	0	0	0	0	455	408	
3	0	0	0	0	461	408	
4	0	0	0	0	468	409	
5	0	0	0	0	474	408	
6	0	0	0	0	479	408	
7	0	0	0	0	483	408	
8	0	0	0	0	485	408	
9	0	0	0	0	483	408	
10	0	0	0	0	479	409	
11	0	0	0	0	474	408	
12	0	0	0	0	470	409	
13	0	0	0	0	466	408	
14	0	0	0	0	462	408	
15	0	0	0	0	460	408	
0	0	0	0	0	459	408	
1	0	0	0	0	457	408	
2	0	0	0	0	457	408	
3	0	0	0	0	459	408	
4	0	0	0	0	463	409	
5	0	0	0	0	468	408	
6	0	0	0	0	476	407	
7	0	0	0	0	484	408	
8	0	0	0	0	492	408	
9	0	0	0	0	498	409	
10	0	0	0	0	502	408	
11	0	0	0	0	503	408	
12	0	0	0	0	502	409	
13	0	0	0	0	499	408	
14	0	0	0	0	496	408	
15	0	0	0	0	490	408	
0	0	0	0	0	484	408	
1	0	0	0	0	479	408	
2	0	0	0	0	475	408	
3	0	0	0	0	472	409	
4	0	0	0	0	470	410	
5	0	0	0	0	469	409	
6	0	0	0	0	470	408	
7	0	0	0	0	471	409	
8	0	0	0	0	474	409	
9	0	0	0	0	478	409	
10	0	0	0	0	485	409	
11	0	0	0	0	493	409	
12	0	0	0	0	502	411	
13	0	0	0	0	508	409	
14	0	0	0	0	513	409	
15	0	0	0	0	517	409	
0	0	0	0	0	518	409	
1	0	0	0	0	518	409	
2	0	0	0	0	516	409	
3	0	0	0	0	514	409	
4	0	0	0	0	511	411	
5	0	0	0	0	509	409	
6	0	0	0	0	508	409	
7	0	0	0	0	506	409	
8	0	0	0	0	505	408	
9	0	0	0	0	506	409	
10	0	0	0	0	508	409	
11	0	0	0	0	510	409	
12	0	0	0	0	512	410	
13	0	0	0	0	517	409	
14	0	0	0	0	523	408	
15	0	0	0	0	531	409	
0	0	0	0	0	540	409	
1	0	0	0	0	547	409	
2	0	0	0	0	555	408	
3	0	0	0	0	560	408	
4	0	0	0	0	563	409	
5	0	0	0	0	563	409	
6	0	0	0	0	561	409	
7	0	0	0	0	558	409	
8	0	0	0	0	553	409	
9	0	0	0	0	548	409	
10	0	0	0	0	543	409	
11	0	0	0	0	541	409	
12	0	0	0	0	539	410	
13	0	0	0	0	538	409	
14	0	0	0	0	539	409	
15	0	0	0	0	541	408	
0	0	0	0	0	544	409	
1	0	0	0	0	548	409	
2	0	0	0	0	555	409	
3	0	0	0	0	563	409	
4	0	0	0	0	572	409	
5	0	0	0	0	579	409	
6	0	0	0	0	584	409	
7	0	0	0	0	588	410	
8	0	0	0	0	589	410	
9	0	0	0	0	587	409	
10	0	0	0	0	582	410	
11	0	0	0	0	576	409	
12	0	0	0	0	570	410	
13	0	0	0	0	563	410	
14	0	0	0	0	556	410	
15	0	0	0	0	551	409	
0	0	0	0	0	546	409	
1	0	0	0	0	542	409	
2	0	0	0	0	540	410	
3	0	0	0	0	539	410	
4	0	0	0	0	539	411	
5	0	0	0	0	540	410	
6	0	0	0	0	544	410	
7	0	0	0	0	549	410	
8	0	0	0	0	553	411	
9	0	0	0	0	555	411	
10	0	0	0	0	556	410	
11	0	0	0	0	556	409	
12	0	0	0	0	553	410	
13	0	0	0	0	548	409	
14	0	0	0	0	543	409	
15	0	0	0	0	536	410	
0	0	0	0	0	528	409	
1	0	0	0	0	523	409	
2	0	0	0	0	518	409	
3	0	0	0	0	514	408	
4	0	0	0	0	511	409	
5	0	0	0	0	508	409	
6	0	0	0	0	507	409	
7	0	0	0	0	508	408	
8	0	0	0	0	510	409	
9	0	0	0	0	514	408	
10	0	0	0	0	519	408	
11	0	0	0	0	526	409	
12	0	0	0	0	533	409	
13	0	0	0	0	539	408	
14	0	0	0	0	541	409	
15	0	0	0	0	542	408	
0	0	0	0	0	541	409	
1	0	0	0	0	539	409	
2	0	0	0	0	536	408	
3	0	0	0	0	531	408	
4	0	0	0	0	526	409	
5	0	0	0	0	521	409	
6	0	0	0	0	519	408	
7	0	0	0	0	517	409	
8	0	0	0	0	515	409	
9	0	0	0	0	514	408	
10	0	0	0	0	515	409	
11	0	0	0	0	517	409	
12	0	0	0	0	521	409	
13	0	0	0	0	526	408	
14	0	0	0	0	535	409	
15	0	0	0	0	545	409	
0	0	0	0	0	557	409	
1	0	0	0	0	568	409	
2	0	0	0	0	578	409	
3	0	0	0	0	585	408	
4	0	0	0	0	591	409	
5	0	0	0	0	595	409	
6	0	0	0	0	597	408	
7	0	0	0	0	598	409	
8	0	0	0	0	598	409	
9	0	0	0	0	597	409	
10	0	0	0	0	598	408	
11	0	0	0	0	600	408	
12	0	0	0	0	604	409	
13	0	0	0	0	609	409	
14	0	0	0	0	614	409	
15	0	0	0	0	620	409	
0	0	0	0	0	625	410	
1	0	0	0	0	631	409	
2	0	0	0	0	639	409	
3	0	0	0	0	649	408	
4	0	0	0	0	656	409	
5	0	0	0	0	661	409	
6	0	0	0	0	664	409	
7	0	0	0	0	664	409	
8	0	0	0	0	660	409	
9	0	0	0	0	654	409	
10	0	0	0	0	646	409	
11	0	0	0	0	637	409	
12	0	0	0	0	627	409	
13	0	0	0	0	617	408	
14	0	0	0	0	609	408	
15	0	0	0	0	603	408	
0	0	0	0	0	596	408	
1	0	0	0	0	591	408	
2	0	0	0	0	587	408	
3	0	0	0	0	584	407	
4	0	0	0	0	581	408	
5	0	0	0	0	579	407	
6	0	0	0	0	579	408	
7	0	0	0	0	580	406	
8	0	0	0	0	582	407	
9	0	0	0	0	582	407	
10	0	0	0	0	581	407	
11	0	0	0	0	580	407	
12	0	0	0	0	577	407	
13	0	0	0	0	571	407	
14	0	0	0	0	563	407	
15	0	0	0	0	554	406	
0	0	0	0	0	544	407	
1	0	0	0	0	535	407	
2	0	0	0	0	527	407	
3	0	0	0	0	521	407	
4	0	0	0	0	515	408	
5	0	0	0	0	512	407	
6	0	0	0	0	509	407	
7	0	0	0	0	510	407	
8	0	0	0	0	511	408	
9	0	0	0	0	512	407	
10	0	0	0	0	516	407	
11	0	0	0	0	524	408	
12	0	0	0	0	529	408	
13	0	0	0	0	535	408	
14	0	0	0	0	539	408	
15	0	0	0	0	540	408	
0	0	0	0	0	540	409	
1	0	0	0	0	536	408	
2	0	0	0	0	532	408	
3	0	0	0	0	526	408	
4	0	0	0	0	519	408	
5	0	0	0	0	512	408	
6	0	0	0	0	507	408	
7	0	0	0	0	503	408	
8	0	0	0	0	499	408	
9	0	0	0	0	497	408	
10	0	0	0	0	496	409	
11	0	0	0	0	495	409	
12	0	0	0	0	496	409	
13	0	0	0	0	499	409	
14	0	0	0	0	505	409	
15	0	0	0	0	511	410	
0	0	0	0	0	517	409	
1	0	0	0	0	522	410	
2	0	0	0	0	524	409	
3	0	0	0	0	525	409	
4	0	0	0	0	524	410	
5	0	0	0	0	519	409	
6	0	0	0	0	515	409	
7	0	0	0	0	509	409	
8	0	0	0	0	502	410	
9	0	0	0	0	495	409	
10	0	0	0	0	489	409	
11	0	0	0	0	485	409	
12	0	0	0	0	482	409	
13	0	0	0	0	481	408	
14	0	0	0	0	481	408	
15	0	0	0	0	483	408	
0	0	0	0	0	485	408	
1	0	0	0	0	488	408	
2	0	0	0	0	494	408	
3	0	0	0	0	500	408	
4	0	0	0	0	505	408	
5	0	0	0	0	510	408	
6	0	0	0	0	513	408	
7	0	0	0	0	516	408	
8	0	0	0	0	517	408	
9	0	0	0	0	515	408	
10	0	0	0	0	512	407	
11	0	0	0	0	507	408	
12	0	0	0	0	500	408	
13	0	0	0	0	494	408	
14	0	0	0	0	490	408	
15	0	0	0	0	487	408	
0	0	0	0	0	484	409	
1	0	0	0	0	484	408	
2	0	0	0	0	485	407	
3	0	0	0	0	487	408	
4	0	0	0	0	489	408	
5	0	0	0	0	493	408	
6	0	0	0	0	500	408	
7	0	0	0	0	508	408	
8	0	0	0	0	516	409	
9	0	0	0	0	522	408	
10	0	0	0	0	528	408	
11	0	0	0	0	532	409	
12	0	0	0	0	534	409	
13	0	0	0	0	532	409	
14	0	0	0	0	529	409	
15	0	0	0	0	525	409	
0	0	0	0	0	521	409	
1	0	0	0	0	517	409	
2	0	0	0	0	515	409	
3	0	0	0	0	515	410	
4	0	0	0	0	515	411	
5	0	0	0	0	518	410	
6	0	0	0	0	521	410	
7	0	0	0	0	525	409	
8	0	0	0	0	530	410	
9	0	0	0	0	537	410	
10	0	0	0	0	546	409	
11	0	0	0	0	556	409	
12	0	0	0	0	567	411	
13	0	0	0	0	575	410	
14	0	0	0	0	583	410	
15	0	0	0	0	588	411	
0	0	0	0	0	590	410	
1	0	0	0	0	589	410	
2	0	0	0	0	587	410	
3	0	0	0	0	583	410	
4	0	0	0	0	578	411	
5	0	0	0	0	573	410	
6	0	0	0	0	569	410	
7	0	0	0	0	566	409	
8	0	0	0	0	564	409	
9	0	0	0	0	565	409	
10	0	0	0	0	568	409	
11	0	0	0	0	572	409	
12	0	0	0	0	578	410	
13	0	0	0	0	586	409	
14	0	0	0	0	595	409	
15	0	0	0	0	606	409	
0	0	0	0	0	615	409	
1	0	0	0	0	622	408	
2	0	0	0	0	627	409	
3	0	0	0	0	632	408	
4	0	0	0	0	632	409	
5	0	0	0	0	630	409	
6	0	0	0	0	626	409	
7	0	0	0	0	622	409	
8	0	0	0	0	617	409	
9	0	0	0	0	612	408	
10	0	0	0	0	608	408	
11	0	0	0	0	607	408	
12	0	0	0	0	607	409	
13	0	0	0	0	606	409	
14	0	0	0	0	606	408	
15	0	0	0	0	608	408	
0	0	0	0	0	609	408	
1	0	0	0	0	614	408	
2	0	0	0	0	620	408	
3	0	0	0	0	629	408	
4	0	0	0	0	637	408	
5	0	0	0	0	643	408	
6	0	0	0	0	648	408	
7	0	0	0	0	651	408	
8	0	0	0	0	652	409	
9	0	0	0	0	651	409	
10	0	0	0	0	648	408	
11	0	0	0	0	644	408	
12	0	0	0	0	639	409	
13	0	0	0	0	635	408	
14	0	0	0	0	631	408	
15	0	0	0	0	628	407	
0	0	0	0	0	625	408	
1	0	0	0	0	623	408	
2	0	0	0	0	623	408	
3	0	0	0	0	623	408	
4	0	0	0	0	624	408	
5	0	0	0	0	627	407	
6	0	0	0	0	631	408	
7	0	0	0	0	638	407	
8	0	0	0	0	646	408	
9	0	0	0	0	652	407	
10	0	0	0	0	655	407	
11	0	0	0	0	657	407	
12	0	0	0	0	657	407	
13	0	0	0	0	653	406	
14	0	0	0	0	647	407	
15	0	0	0	0	640	407	
0	0	0	0	0	633	408	
1	0	0	0	0	627	407	
2	0	0	0	0	621	407	
3	0	0	0	0	615	407	
4	0	0	0	0	611	408	
5	0	0	0	0	608	407	
6	0	0	0	0	607	407	
7	0	0	0	0	606	407	
8	0	0	0	0	607	407	
9	0	0	0	0	608	407	
10	0	0	0	0	611	407	
11	0	0	0	0	617	407	
12	0	0	0	0	622	407	
13	0	0	0	0	625	408	
14	0	0	0	0	626	408	
15	0	0	0	0	625	407	
0	0	0	0	0	622	407	
1	0	0	0	0	616	407	
2	0	0	0	0	609	408	
3	0	0	0	0	601	407	
4	0	0	0	0	592	408	
5	0	0	0	0	585	406	
6	0	0	0	0	577	407	
7	0	0	0	0	571	407	
8	0	0	0	0	565	407	
9	0	0	0	0	560	407	
10	0	0	0	0	556	406	
11	0	0	0	0	553	407	
12	0	0	0	0	553	407	
13	0	0	0	0	554	407	
14	0	0	0	0	559	406	
15	0	0	0	0	565	407	
0	0	0	0	0	570	407	
1	0	0	0	0	575	407	
2	0	0	0	0	578	408	
3	0	0	0	0	579	407	
4	0	0	0	0	577	408	
5	0	0	0	0	574	408	
6	0	0	0	0	568	407	
7	0	0	0	0	560	407	
8	0	0	0	0	552	407	
9	0	0	0	0	543	406	
10	0	0	0	0	536	407	
11	0	0	0	0	529	407	
12	0	0	0	0	524	407	
13	0	0	0	0	520	408	
14	0	0	0	0	516	407	
15	0	0	0	0	514	407	
0	0	0	0	0	512	407	
1	0	0	0	0	512	407	
2	0	0	0	0	513	407	
3	0	0	0	0	517	407	
4	0	0	0	0	522	407	
5	0	0	0	0	526	406	
6	0	0	0	0	529	406	
7	0	0	0	0	529	406	
8	0	0	0	0	528	406	
9	0	0	0	0	525	406	
10	0	0	0	0	519	406	
11	0	0	0	0	511	407	
12	0	0	0	0	503	407	
13	0	0	0	0	495	407	
14	0	0	0	0	488	407	
15	0	0	0	0	485	406	
0	0	0	0	0	482	407	
1	0	0	0	0	480	407	
2	0	0	0	0	478	406	
3	0	0	0	0	477	406	
4	0	0	0	0	477	408	
5	0	0	0	0	477	406	
6	0	0	0	0	480	406	
7	0	0	0	0	485	407	
8	0	0	0	0	490	407	
9	0	0	0	0	494	407	
10	0	0	0	0	495	407	
11	0	0	0	0	495	407	
12	0	0	0	0	492	408	
13	0	0	0	0	488	408	
14	0	0	0	0	481	408	
15	0	0	0	0	473	408	
0	0	0	0	0	464	409	
1	0	0	0	0	456	409	
2	0	0	0	0	449	409	
3	0	0	0	0	445	409	
4	0	0	0	0	441	409	
5	0	0	0	0	439	409	
6	0	0	0	0	438	409	
7	0	0	0	0	439	409	
8	0	0	0	0	441	410	
9	0	0	0	0	444	410	
10	0	0	0	0	450	410	
11	0	0	0	0	457	411	
12	0	0	0	0	464	410	
13	0	0	0	0	471	410	
14	0	0	0	0	476	410	
15	0	0	0	0	478	410	
0	0	0	0	0	476	410	
1	0	0	0	0	470	411	
2	0	0	0	0	462	410	
3	0	0	0	0	453	410	
4	0	0	0	0	444	410	
5	0	0	0	0	436	410	
6	0	0	0	0	429	410	
7	0	0	0	0	423	410	
8	0	0	0	0	419	411	
9	0	0	0	0	417	410	
10	0	0	0	0	416	410	
11	0	0	0	0	415	410	
12	0	0	0	0	415	410	
13	0	0	0	0	417	409	
14	0	0	0	0	421	409	
15	0	0	0	0	428	409	
0	0	0	0	0	434	409	
1	0	0	0	0	438	409	
2	0	0	0	0	440	409	
3	0	0	0	0	441	408	
4	0	0	0	0	440	409	
5	0	0	0	0	435	408	
6	0	0	0	0	430	408	
7	0	0	0	0	424	408	
8	0	0	0	0	418	409	
9	0	0	0	0	413	409	
10	0	0	0	0	409	408	
11	0	0	0	0	407	409	
12	0	0	0	0	406	409	
13	0	0	0	0	404	409	
14	0	0	0	0	405	408	
15	0	0	0	0	405	408	
0	0	0	0	0	406	409	
1	0	0	0	0	408	409	
2	0	0	0	0	413	409	
3	0	0	0	0	420	409	
4	0	0	0	0	429	408	
5	0	0	0	0	437	409	
6	0	0	0	0	443	408	
7	0	0	0	0	446	409	
8	0	0	0	0	447	408	
9	0	0	0	0	444	409	
10	0	0	0	0	439	409	
11	0	0	0	0	432	409	
12	0	0	0	0	425	409	
13	0	0	0	0	417	408	
14	0	0	0	0	412	409	
15	0	0	0	0	408	409	
0	0	0	0	0	406	410	
1	0	0	0	0	404	410	
2	0	0	0	0	405	409	
3	0	0	0	0	407	409	
4	0	0	0	0	408	410	
5	0	0	0	0	410	409	
6	0	0	0	0	415	410	
7	0	0	0	0	422	409	
8	0	0	0	0	429	410	
9	0	0	0	0	434	410	
10	0	0	0	0	438	409	
11	0	0	0	0	440	410	
12	0	0	0	0	438	410	
13	0	0	0	0	435	409	
14	0	0	0	0	430	410	
15	0	0	0	0	423	410	
0	0	0	0	0	416	411	
1	0	0	0	0	408	411	
2	0	0	0	0	403	411	
3	0	0	0	0	399	410	
4	0	0	0	0	396	411	
5	0	0	0	0	395	410	
6	0	0	0	0	396	410	
7	0	0	0	0	398	410	
8	0	0	0	0	401	411	
9	0	0	0	0	404	410	
10	0	0	0	0	410	410	
11	0	0	0	0	418	410	
12	0	0	0	0	425	411	
13	0	0	0	0	432	410	
14	0	0	0	0	438	410	
15	0	0	0	0	441	409	
0	0	0	0	0	443	409	
1	0	0	0	0	442	409	
2	0	0	0	0	439	409	
3	0	0	0	0	435	409	
4	0	0	0	0	432	409	
5	0	0	0	0	429	408	
6	0	0	0	0	427	408	
7	0	0	0	0	427	408	
8	0	0	0	0	426	408	
9	0	0	0	0	426	408	
10	0	0	0	0	428	408	
11	0	0	0	0	430	408	
12	0	0	0	0	433	409	
13	0	0	0	0	437	407	
14	0	0	0	0	444	408	
15	0	0	0	0	453	408	
0	0	0	0	0	462	408	
1	0	0	0	0	469	408	
2	0	0	0	0	474	408	
3	0	0	0	0	479	408	
4	0	0	0	0	480	409	
5	0	0	0	0	479	408	
6	0	0	0	0	475	408	
7	0	0	0	0	471	408	
8	0	0	0	0	466	408	
9	0	0	0	0	461	408	
10	0	0	0	0	457	408	
11	0	0	0	0	455	409	
12	0	0	0	0	453	410	
13	0	0	0	0	454	409	
14	0	0	0	0	456	408	
15	0	0	0	0	460	408	
0	0	0	0	0	465	409	
1	0	0	0	0	471	408	
2	0	0	0	0	480	408	
3	0	0	0	0	488	408	
4	0	0	0	0	496	409	
5	0	0	0	0	503	409	
6	0	0	0	0	506	409	
7	0	0	0	0	508	409	
8	0	0	0	0	507	409	
9	0	0	0	0	504	409	
10	0	0	0	0	499	409	
11	0	0	0	0	494	408	
12	0	0	0	0	487	409	
13	0	0	0	0	480	409	
14	0	0	0	0	474	408	
15	0	0	0	0	470	409	
0	0	0	0	0	467	409	
1	0	0	0	0	466	408	
2	0	0	0	0	466	409	
3	0	0	0	0	467	409	
4	0	0	0	0	470	409	
5	0	0	0	0	475	409	
6	0	0	0	0	482	408	
7	0	0	0	0	491	409	
8	0	0	0	0	499	409	
9	0	0	0	0	505	408	
10	0	0	0	0	509	408	
11	0	0	0	0	511	408	
12	0	0	0	0	511	409	
13	0	0	0	0	510	408	
14	0	0	0	0	506	408	
15	0	0	0	0	502	408	
0	0	0	0	0	496	408	
1	0	0	0	0	490	408	
2	0	0	0	0	486	407	
3	0	0	0	0	484	407	
4	0	0	0	0	483	408	
5	0	0	0	0	483	408	
6	0	0	0	0	483	408	
7	0	0	0	0	486	408	
8	0	0	0	0	488	408	
9	0	0	0	0	492	408	
10	0	0	0	0	498	407	
11	0	0	0	0	505	408	
12	0	0	0	0	512	408	
13	0	0	0	0	518	408	
14	0	0	0	0	521	408	
15	0	0	0	0	524	408	
0	0	0	0	0	525	408	
1	0	0	0	0	524	407	
2	0	0	0	0	522	408	
3	0	0	0	0	518	408	
4	0	0	0	0	513	408	
5	0	0	0	0	509	408	
6	0	0	0	0	506	407	
7	0	0	0	0	505	407	
8	0	0	0	0	503	408	
9	0	0	0	0	504	408	
10	0	0	0	0	505	408	
11	0	0	0	0	509	408	
12	0	0	0	0	513	408	
13	0	0	0	0	519	407	
14	0	0	0	0	528	408	
15	0	0	0	0	538	408	
0	0	0	0	0	548	408	
1	0	0	0	0	556	408	
2	0	0	0	0	561	409	
3	0	0	0	0	566	408	
4	0	0	0	0	568	409	
5	0	0	0	0	567	408	
6	0	0	0	0	564	408	
7	0	0	0	0	559	408	
8	0	0	0	0	553	409	
9	0	0	0	0	548	408	
10	0	0	0	0	543	408	
11	0	0	0	0	540	407	
12	0	0	0	0	538	409	
13	0	0	0	0	536	408	
14	0	0	0	0	536	408	
15	0	0	0	0	536	407	
0	0	0	0	0	537	408	
1	0	0	0	0	539	407	
2	0	0	0	0	543	408	
3	0	0	0	0	551	408	
4	0	0	0	0	558	408	
5	0	0	0	0	563	407	
6	0	0	0	0	565	407	
7	0	0	0	0	566	408	
8	0	0	0	0	564	408	
9	0	0	0	0	561	407	
10	0	0	0	0	556	408	
11	0	0	0	0	551	408	
12	0	0	0	0	545	408	
13	0	0	0	0	539	408	
14	0	0	0	0	533	408	
15	0	0	0	0	529	408	
0	0	0	0	0	527	408	
1	0	0	0	0	526	407	
2	0	0	0	0	527	408	
3	0	0	0	0	528	408	
4	0	0	0	0	530	408	
5	0	0	0	0	532	408	
6	0	0	0	0	537	408	
7	0	0	0	0	545	408	
8	0	0	0	0	552	408	
9	0	0	0	0	559	408	
10	0	0	0	0	564	408	
11	0	0	0	0	567	408	
12	0	0	0	0	568	409	
13	0	0	0	0	567	408	
14	0	0	0	0	563	408	
15	0	0	0	0	558	409	
0	0	0	0	0	553	408	
1	0	0	0	0	549	408	
2	0	0	0	0	547	409	
3	0	0	0	0	545	408	
4	0	0	0	0	543	409	
5	0	0	0	0	542	408	
6	0	0	0	0	541	408	
7	0	0	0	0	541	409	
8	0	0	0	0	543	408	
9	0	0	0	0	546	408	
10	0	0	0	0	551	408	
11	0	0	0	0	557	408	
12	0	0	0	0	563	409	
13	0	0	0	0	569	409	
14	0	0	0	0	574	408	
15	0	0	0	0	575	408	
0	0	0	0	0	574	408	
1	0	0	0	0	572	408	
2	0	0	0	0	566	408	
3	0	0	0	0	559	408	
4	0	0	0	0	551	408	
5	0	0	0	0	544	408	
6	0	0	0	0	537	409	
7	0	0	0	0	532	408	
8	0	0	0	0	528	408	
9	0	0	0	0	526	408	
10	0	0	0	0	524	409	
11	0	0	0	0	524	408	
12	0	0	0	0	525	409	
13	0	0	0	0	528	408	
14	0	0	0	0	535	408	
15	0	0	0	0	543	409	
0	0	0	0	0	551	408	
1	0	0	0	0	556	409	
2	0	0	0	0	559	408	
3	0	0	0	0	561	408	
4	0	0	0	0	560	408	
5	0	0	0	0	558	408	
6	0	0	0	0	555	408	
7	0	0	0	0	550	408	
8	0	0	0	0	544	408	
9	0	0	0	0	539	408	
10	0	0	0	0	535	408	
11	0	0	0	0	532	408	
12	0	0	0	0	529	408	
13	0	0	0	0	528	408	
14	0	0	0	0	528	409	
15	0	0	0	0	529	408	
0	0	0	0	0	530	409	
1	0	0	0	0	534	409	
2	0	0	0	0	539	408	
3	0	0	0	0	546	408	
4	0	0	0	0	553	409	
5	0	0	0	0	558	408	
6	0	0	0	0	561	408	
7	0	0	0	0	564	408	
8	0	0	0	0	563	408	
9	0	0	0	0	560	409	
10	0	0	0	0	556	409	
11	0	0	0	0	550	409	
12	0	0	0	0	544	409	
13	0	0	0	0	539	409	
14	0	0	0	0	534	409	
15	0	0	0	0	531	409	
0	0	0	0	0	529	410	
1	0	0	0	0	529	410	
2	0	0	0	0	529	409	
3	0	0	0	0	529	409	
4	0	0	0	0	531	409	
5	0	0	0	0	535	409	
6	0	0	0	0	541	409	
7	0	0	0	0	549	409	
8	0	0	0	0	557	410	
9	0	0	0	0	563	409	
10	0	0	0	0	568	409	
11	0	0	0	0	571	409	
12	0	0	0	0	572	410	
13	0	0	0	0	571	409	
14	0	0	0	0	567	410	
15	0	0	0	0	562	409	
0	0	0	0	0	557	409	
1	0	0	0	0	553	409	
2	0	0	0	0	551	409	
3	0	0	0	0	549	410	
4	0	0	0	0	547	410	
5	0	0	0	0	546	410	
6	0	0	0	0	547	409	
7	0	0	0	0	547	409	
8	0	0	0	0	551	409	
9	0	0	0	0	555	409	
10	0	0	0	0	561	409	
11	0	0	0	0	569	409	
12	0	0	0	0	578	410	
13	0	0	0	0	586	410	
14	0	0	0	0	591	409	
15	0	0	0	0	597	410	
0	0	0	0	0	600	409	
1	0	0	0	0	600	409	
2	0	0	0	0	599	409	
3	0	0	0	0	596	409	
4	0	0	0	0	592	410	
5	0	0	0	0	588	409	
6	0	0	0	0	586	409	
7	0	0	0	0	585	410	
8	0	0	0	0	584	409	
9	0	0	0	0	585	409	
10	0	0	0	0	585	409	
11	0	0	0	0	587	408	
12	0	0	0	0	590	409	
13	0	0	0	0	594	409	
14	0	0	0	0	601	408	
15	0	0	0	0	610	409	
0	0	0	0	0	618	409	
1	0	0	0	0	626	408	
2	0	0	0	0	631	408	
3	0	0	0	0	635	408	
4	0	0	0	0	637	409	
5	0	0	0	0	636	408	
6	0	0	0	0	635	409	
7	0	0	0	0	632	409	
8	0	0	0	0	629	409	
9	0	0	0	0	627	409	
10	0	0	0	0	625	409	
11	0	0	0	0	624	408	
12	0	0	0	0	624	409	
13	0	0	0	0	624	408	
14	0	0	0	0	625	408	
15	0	0	0	0	629	408	
0	0	0	0	0	633	409	
1	0	0	0	0	638	408	
2	0	0	0	0	645	408	
3	0	0	0	0	653	408	
4	0	0	0	0	662	409	
5	0	0	0	0	668	408	
6	0	0	0	0	672	409	
7	0	0	0	0	674	409	
8	0	0	0	0	674	410	
9	0	0	0	0	671	408	
10	0	0	0	0	666	409	
11	0	0	0	0	660	409	
12	0	0	0	0	654	409	
13	0	0	0	0	647	409	
14	0	0	0	0	641	409	
15	0	0	0	0	636	409	
0	0	0	0	0	633	409	
1	0	0	0	0	631	408	
2	0	0	0	0	630	409	
3	0	0	0	0	631	408	
4	0	0	0	0	632	409	
5	0	0	0	0	636	408	
6	0	0	0	0	642	409	
7	0	0	0	0	648	408	
8	0	0	0	0	655	409	
9	0	0	0	0	662	408	
10	0	0	0	0	665	409	
11	0	0	0	0	668	408	
12	0	0	0	0	667	409	
13	0	0	0	0	663	409	
14	0	0	0	0	660	409	
15	0	0	0	0	656	409	
0	0	0	0	0	652	409	
1	0	0	0	0	647	409	
2	0	0	0	0	644	408	
3	0	0	0	0	643	408	
4	0	0	0	0	642	409	
5	0	0	0	0	644	408	
6	0	0	0	0	647	408	
7	0	0	0	0	649	408	
8	0	0	0	0	652	408	
9	0	0	0	0	656	408	
10	0	0	0	0	663	408	
11	0	0	0	0	671	408	
12	0	0	0	0	680	409	
13	0	0	0	0	688	408	
14	0	0	0	0	694	408	
15	0	0	0	0	699	408	
0	0	0	0	0	702	408	
1	0	0	0	0	704	408	
2	0	0	0	0	704	408	
3	0	0	0	0	701	407	
4	0	0	0	0	697	408	
5	0	0	0	0	694	408	
6	0	0	0	0	691	408	
7	0	0	0	0	690	408	
8	0	0	0	0	688	408	
9	0	0	0	0	687	408	
10	0	0	0	0	687	408	
11	0	0	0	0	688	408	
12	0	0	0	0	690	409	
13	0	0	0	0	693	408	
14	0	0	0	0	696	408	
15	0	0	0	0	702	408	
0	0	0	0	0	709	408	
1	0	0	0	0	714	407	
2	0	0	0	0	718	407	
3	0	0	0	0	721	408	
4	0	0	0	0	721	408	
5	0	0	0	0	718	407	
6	0	0	0	0	713	408	
7	0	0	0	0	707	408	
8	0	0	0	0	700	408	
9	0	0	0	0	693	408	
10	0	0	0	0	688	408	
11	0	0	0	0	683	408	
12	0	0	0	0	680	408	
13	0	0	0	0	678	407	
14	0	0	0	0	679	408	
15	0	0	0	0	679	408	
0	0	0	0	0	681	408	
1	0	0	0	0	683	407	
2	0	0	0	0	687	407	
3	0	0	0	0	693	407	
4	0	0	0	0	699	408	
5	0	0	0	0	705	408	
6	0	0	0	0	708	408	
7	0	0	0	0	709	408	
8	0	0	0	0	707	408	
9	0	0	0	0	704	408	
10	0	0	0	0	698	408	
11	0	0	0	0	690	408	
12	0	0	0	0	682	408	
13	0	0	0	0	675	408	
14	0	0	0	0	669	408	
15	0	0	0	0	664	408	
0	0	0	0	0	660	408	
1	0	0	0	0	658	408	
2	0	0	0	0	656	408	
3	0	0	0	0	657	408	
4	0	0	0	0	658	409	
5	0	0	0	0	660	408	
6	0	0	0	0	665	408	
7	0	0	0	0	672	408	
8	0	0	0	0	678	407	
9	0	0	0	0	683	408	
10	0	0	0	0	687	408	
11	0	0	0	0	689	408	
12	0	0	0	0	689	408	
13	0	0	0	0	686	408	
14	0	0	0	0	681	408	
15	0	0	0	0	676	408	
0	0	0	0	0	669	408	
1	0	0	0	0	662	408	
2	0	0	0	0	655	408	
3	0	0	0	0	651	408	
4	0	0	0	0	648	409	
5	0	0	0	0	646	409	
6	0	0	0	0	646	408	
7	0	0	0	0	646	408	
8	0	0	0	0	648	409	
9	0	0	0	0	650	408	
10	0	0	0	0	656	408	
11	0	0	0	0	665	408	
12	0	0	0	0	674	409	
13	0	0	0	0	681	409	
14	0	0	0	0	686	409	
15	0	0	0	0	689	409	
0	0	0	0	0	688	409	
1	0	0	0	0	686	408	
2	0	0	0	0	682	409	
3	0	0	0	0	675	408	
4	0	0	0	0	668	409	
5	0	0	0	0	661	409	
6	0	0	0	0	655	408	
7	0	0	0	0	651	409	
8	0	0	0	0	646	409	
9	0	0	0	0	642	409	
10	0	0	0	0	639	409	
11	0	0	0	0	637	409	
12	0	0	0	0	636	409	
13	0	0	0	0	637	408	
14	0	0	0	0	640	409	
15	0	0	0	0	645	409	
0	0	0	0	0	651	409	
1	0	0	0	0	655	408	
2	0	0	0	0	659	409	
3	0	0	0	0	663	409	
4	0	0	0	0	663	409	
5	0	0	0	0	662	408	
6	0	0	0	0	658	408	
7	0	0	0	0	653	408	
8	0	0	0	0	646	408	
9	0	0	0	0	640	408	
10	0	0	0	0	635	408	
11	0	0	0	0	630	408	
12	0	0	0	0	625	409	
13	0	0	0	0	621	408	
14	0	0	0	0	618	408	
15	0	0	0	0	617	408	
0	0	0	0	0	616	408	
1	0	0	0	0	616	408	
2	0	0	0	0	618	408	
3	0	0	0	0	621	408	
4	0	0	0	0	624	409	
5	0	0	0	0	627	408	
6	0	0	0	0	627	408	
7	0	0	0	0	627	408	
8	0	0	0	0	624	409	
9	0	0	0	0	620	408	
10	0	0	0	0	613	409	
11	0	0	0	0	605	408	
12	0	0	0	0	597	409	
13	0	0	0	0	590	408	
14	0	0	0	0	583	409	
15	0	0	0	0	578	409	
0	0	0	0	0	573	409	
1	0	0	0	0	569	409	
2	0	0	0	0	566	409	
3	0	0	0	0	563	410	
4	0	0	0	0	563	410	
5	0	0	0	0	564	409	
6	0	0	0	0	568	410	
7	0	0	0	0	572	409	
8	0	0	0	0	575	410	
9	0	0	0	0	577	409	
10	0	0	0	0	576	409	
11	0	0	0	0	573	409	
12	0	0	0	0	568	410	
13	0	0	0	0	560	409	
14	0	0	0	0	551	409	
15	0	0	0	0	542	408	
0	0	0	0	0	533	409	
1	0	0	0	0	524	408	
2	0	0	0	0	515	409	
3	0	0	0	0	508	409	
4	0	0	0	0	502	409	
5	0	0	0	0	497	408	
6	0	0	0	0	494	409	
7	0	0	0	0	493	408	
8	0	0	0	0	493	410	
9	0	0	0	0	495	409	
10	0	0	0	0	500	409	
11	0	0	0	0	506	408	
12	0	0	0	0	512	409	
13	0	0	0	0	518	409	
14	0	0	0	0	522	409	
15	0	0	0	0	525	409	
0	0	0	0	0	525	409	
1	0	0	0	0	523	408	
2	0	0	0	0	519	409	
3	0	0	0	0	515	409	
4	0	0	0	0	508	409	
5	0	0	0	0	501	409	
6	0	0	0	0	495	408	
7	0	0	0	0	490	408	
8	0	0	0	0	486	408	
9	0	0	0	0	483	408	
10	0	0	0	0	482	408	
11	0	0	0	0	482	408	
12	0	0	0	0	484	409	
13	0	0	0	0	487	409	
14	0	0	0	0	492	409	
15	0	0	0	0	499	409	
0	0	0	0	0	506	409	
1	0	0	0	0	512	409	
2	0	0	0	0	515	409	
3	0	0	0	0	518	409	
4	0	0	0	0	518	410	
5	0	0	0	0	515	409	
6	0	0	0	0	512	408	
7	0	0	0	0	507	409	
8	0	0	0	0	501	409	
9	0	0	0	0	496	408	
10	0	0	0	0	491	409	
11	0	0	0	0	487	408	
12	0	0	0	0	484	409	
13	0	0	0	0	482	409	
14	0	0	0	0	482	408	
15	0	0	0	0	481	408	
0	0	0	0	0	482	408	
1	0	0	0	0	484	408	
2	0	0	0	0	488	408	
3	0	0	0	0	494	408	
4	0	0	0	0	501	408	
5	0	0	0	0	506	408	
6	0	0	0	0	510	408	
7	0	0	0	0	513	409	
8	0	0	0	0	515	409	
9	0	0	0	0	514	409	
10	0	0	0	0	512	408	
11	0	0	0	0	508	408	
12	0	0	0	0	503	409	
13	0	0	0	0	499	408	
14	0	0	0	0	494	408	
15	0	0	0	0	491	408	
0	0	0	0	0	487	409	
1	0	0	0	0	485	408	
2	0	0	0	0	483	408	
3	0	0	0	0	483	408	
4	0	0	0	0	485	409	
5	0	0	0	0	487	408	
6	0	0	0	0	492	408	
7	0	0	0	0	499	408	
8	0	0	0	0	507	408	
9	0	0	0	0	514	408	
10	0	0	0	0	520	408	
11	0	0	0	0	527	408	
12	0	0	0	0	531	408	
13	0	0	0	0	533	408	
14	0	0	0	0	533	408	
15	0	0	0	0	532	408	
0	0	0	0	0	530	408	
1	0	0	0	0	528	408	
2	0	0	0	0	527	408	
3	0	0	0	0	527	408	
4	0	0	0	0	528	409	
5	0	0	0	0	528	408	
6	0	0	0	0	529	407	
7	0	0	0	0	531	408	
8	0	0	0	0	532	408	
9	0	0	0	0	535	408	
10	0	0	0	0	540	408	
11	0	0	0	0	547	408	
12	0	0	0	0	553	409	
13	0	0	0	0	558	408	
14	0	0	0	0	560	408	
15	0	0	0	0	562	408	
0	0	0	0	0	562	408	
1	0	0	0	0	560	408	
2	0	0	0	0	557	408	
3	0	0	0	0	554	408	
4	0	0	0	0	550	408	
5	0	0	0	0	546	408	
6	0	0	0	0	542	408	
7	0	0	0	0	539	408	
8	0	0	0	0	536	408	
9	0	0	0	0	533	408	
10	0	0	0	0	532	408	
11	0	0	0	0	532	408	
12	0	0	0	0	532	408	
13	0	0	0	0	535	408	
14	0	0	0	0	540	407	
15	0	0	0	0	547	408	
0	0	0	0	0	555	408	
1	0	0	0	0	561	407	
2	0	0	0	0	566	407	
3	0	0	0	0	569	408	
4	0	0	0	0	569	408	
5	0	0	0	0	567	408	
6	0	0	0	0	563	408	
7	0	0	0	0	559	408	
8	0	0	0	0	555	408	
9	0	0	0	0	550	407	
10	0	0	0	0	548	408	
11	0	0	0	0	547	407	
12	0	0	0	0	548	409	
13	0	0	0	0	549	408	
14	0	0	0	0	551	408	
15	0	0	0	0	553	408	
0	0	0	0	0	557	408	
1	0	0	0	0	562	408	
2	0	0	0	0	568	408	
3	0	0	0	0	576	408	
4	0	0	0	0	583	409	
5	0	0	0	0	591	408	
6	0	0	0	0	596	408	
7	0	0	0	0	601	409	
8	0	0	0	0	604	409	
9	0	0	0	0	604	408	
10	0	0	0	0	603	408	
11	0	0	0	0	600	408	
12	0	0	0	0	594	410	
13	0	0	0	0	587	409	
14	0	0	0	0	582	409	
15	0	0	0	0	577	409	
0	0	0	0	0	574	410	
1	0	0	0	0	571	409	
2	0	0	0	0	571	409	
3	0	0	0	0	570	408	
4	0	0	0	0	570	409	
5	0	0	0	0	570	408	
6	0	0	0	0	573	409	
7	0	0	0	0	579	408	
8	0	0	0	0	585	409	
9	0	0	0	0	590	409	
10	0	0	0	0	593	408	
11	0	0	0	0	595	408	
12	0	0	0	0	596	409	
13	0	0	0	0	594	408	
14	0	0	0	0	591	409	
15	0	0	0	0	584	409	
0	0	0	0	0	577	409	
1	0	0	0	0	569	408	
2	0	0	0	0	561	408	
3	0	0	0	0	555	408	
4	0	0	0	0	551	409	
5	0	0	0	0	547	408	
6	0	0	0	0	544	408	
7	0	0	0	0	543	408	
8	0	0	0	0	543	408	
9	0	0	0	0	542	408	
10	0	0	0	0	545	408	
11	0	0	0	0	550	408	
12	0	0	0	0	553	408	
13	0	0	0	0	556	408	
14	0	0	0	0	557	408	
15	0	0	0	0	557	408	
0	0	0	0	0	555	408	
1	0	0	0	0	552	408	
2	0	0	0	0	548	408	
3	0	0	0	0	544	407	
4	0	0	0	0	539	409	
5	0	0	0	0	534	408	
6	0	0	0	0	529	408	
7	0	0	0	0	525	408	
8	0	0	0	0	520	408	
9	0	0	0	0	517	409	
10	0	0	0	0	515	408	
11	0	0	0	0	513	408	
12	0	0	0	0	512	409	
13	0	0	0	0	512	409	
14	0	0	0	0	513	408	
15	0	0	0	0	517	409	
0	0	0	0	0	520	409	
1	0	0	0	0	522	409	
2	0	0	0	0	523	409	
3	0	0	0	0	523	408	
4	0	0	0	0	521	409	
5	0	0	0	0	516	408	
6	0	0	0	0	510	409	
7	0	0	0	0	503	409	
8	0	0	0	0	494	409	
9	0	0	0	0	486	409	
10	0	0	0	0	479	409	
11	0	0	0	0	474	409	
12	0	0	0	0	470	411	
13	0	0	0	0	467	410	
14	0	0	0	0	466	409	
15	0	0	0	0	466	408	
0	0	0	0	0	466	409	
1	0	0	0	0	468	409	
2	0	0	0	0	472	409	
3	0	0	0	0	479	408	
4	0	0	0	0	487	409	
5	0	0	0	0	495	408	
6	0	0	0	0	502	409	
7	0	0	0	0	508	409	
8	0	0	0	0	512	409	
9	0	0	0	0	515	409	
10	0	0	0	0	515	409	
11	0	0	0	0	514	408	
12	0	0	0	0	513	408	
13	0	0	0	0	512	408	
14	0	0	0	0	512	408	
15	0	0	0	0	514	408	
0	0	0	0	0	516	409	
1	0	0	0	0	519	408	
2	0	0	0	0	523	407	
3	0	0	0	0	528	408	
4	0	0	0	0	535	408	
5	0	0	0	0	544	408	
6	0	0	0	0	554	408	
7	0	0	0	0	564	407	
8	0	0	0	0	575	408	
9	0	0	0	0	584	408	
10	0	0	0	0	592	408	
11	0	0	0	0	598	408	
12	0	0	0	0	601	408	
13	0	0	0	0	601	408	
14	0	0	0	0	599	408	
15	0	0	0	0	592	407	
0	0	0	0	0	585	409	
1	0	0	0	0	576	409	
2	0	0	0	0	567	408	
3	0	0	0	0	560	408	
4	0	0	0	0	553	409	
5	0	0	0	0	548	408	
6	0	0	0	0	543	408	
7	0	0	0	0	540	408	
8	0	0	0	0	538	408	
9	0	0	0	0	535	408	
10	0	0	0	0	536	408	
11	0	0	0	0	537	408	
12	0	0	0	0	539	409	
13	0	0	0	0	540	408	
14	0	0	0	0	538	408	
15	0	0	0	0	534	408	
0	0	0	0	0	527	408	
1	0	0	0	0	516	408	
2	0	0	0	0	505	408	
3	0	0	0	0	494	408	
4	0	0	0	0	483	409	
5	0	0	0	0	472	409	
6	0	0	0	0	461	408	
7	0	0	0	0	453	408	
8	0	0	0	0	445	409	
9	0	0	0	0	438	408	
10	0	0	0	0	432	408	
11	0	0	0	0	428	408	
12	0	0	0	0	426	409	
13	0	0	0	0	423	408	
14	0	0	0	0	424	408	
15	0	0	0	0	426	408	
0	0	0	0	0	429	409	
1	0	0	0	0	431	408	
2	0	0	0	0	432	408	
3	0	0	0	0	431	408	
4	0	0	0	0	429	408	
5	0	0	0	0	424	408	
6	0	0	0	0	417	408	
7	0	0	0	0	410	408	
8	0	0	0	0	403	408	
9	0	0	0	0	395	407	
10	0	0	0	0	387	408	
11	0	0	0	0	380	408	
12	0	0	0	0	375	409	
13	0	0	0	0	371	408	
14	0	0	0	0	370	408	
15	0	0	0	0	369	408	
0	0	0	0	0	367	408	
1	0	0	0	0	367	408	
2	0	0	0	0	369	408	
3	0	0	0	0	374	408	
4	0	0	0	0	378	409	
5	0	0	0	0	382	408	
6	0	0	0	0	384	408	
7	0	0	0	0	385	408	
8	0	0	0	0	384	408	
9	0	0	0	0	381	408	
10	0	0	0	0	376	408	
11	0	0	0	0	369	408	
12	0	0	0	0	362	409	
13	0	0	0	0	355	408	
14	0	0	0	0	348	409	
15	0	0	0	0	343	408	
0	0	0	0	0	337	408	
1	0	0	0	0	333	408	
2	0	0	0	0	330	408	
3	0	0	0	0	329	408	
4	0	0	0	0	329	409	
5	0	0	0	0	329	408	
6	0	0	0	0	332	408	
7	0	0	0	0	337	408	
8	0	0	0	0	342	408	
9	0	0	0	0	346	408	
10	0	0	0	0	348	408	
11	0	0	0	0	349	408	
12	0	0	0	0	347	408	
13	0	0	0	0	342	408	
14	0	0	0	0	335	408	
15	0	0	0	0	329	408	
0	0	0	0	0	322	408	
1	0	0	0	0	316	408	
2	0	0	0	0	310	407	
3	0	0	0	0	304	408	
4	0	0	0	0	301	409	
5	0	0	0	0	298	408	
6	0	0	0	0	297	408	
7	0	0	0	0	296	408	
8	0	0	0	0	297	408	
9	0	0	0	0	299	408	
10	0	0	0	0	303	408	
11	0	0	0	0	308	408	
12	0	0	0	0	312	408	
13	0	0	0	0	316	408	
14	0	0	0	0	318	408	
15	0	0	0	0	320	408	
0	0	0	0	0	320	409	
1	0	0	0	0	318	408	
2	0	0	0	0	313	408	
3	0	0	0	0	307	408	
4	0	0	0	0	302	409	
5	0	0	0	0	296	409	
6	0	0	0	0	292	409	
7	0	0	0	0	289	409	
8	0	0	0	0	287	409	
9	0	0	0	0	286	410	
10	0	0	0	0	286	409	
11	0	0	0	0	287	409	
12	0	0	0	0	288	410	
13	0	0	0	0	291	410	
14	0	0	0	0	295	409	
15	0	0	0	0	301	409	
0	0	0	0	0	306	409	
1	0	0	0	0	310	409	
2	0	0	0	0	312	409	
3	0	0	0	0	314	409	
4	0	0	0	0	314	410	
5	0	0	0	0	312	409	
6	0	0	0	0	309	410	
7	0	0	0	0	305	410	
8	0	0	0	0	300	410	
9	0	0	0	0	295	410	
10	0	0	0	0	291	410	
11	0	0	0	0	287	410	
12	0	0	0	0	284	410	
13	0	0	0	0	281	409	
14	0	0	0	0	279	410	
15	0	0	0	0	277	410	
0	0	0	0	0	277	410	
1	0	0	0	0	276	410	
2	0	0	0	0	277	411	
3	0	0	0	0	280	411	
4	0	0	0	0	283	411	
5	0	0	0	0	286	410	
6	0	0	0	0	288	410	
7	0	0	0	0	289	411	
8	0	0	0	0	289	410	
9	0	0	0	0	287	410	
10	0	0	0	0	282	410	
11	0	0	0	0	276	410	
12	0	0	0	0	270	411	
13	0	0	0	0	264	410	
14	0	0	0	0	258	409	
15	0	0	0	0	254	411	
0	0	0	0	0	252	410	
1	0	0	0	0	250	410	
2	0	0	0	0	252	410	
3	0	0	0	0	254	409	
4	0	0	0	0	257	410	
5	0	0	0	0	262	408	
6	0	0	0	0	268	409	
7	0	0	0	0	276	409	
8	0	0	0	0	284	409	
9	0	0	0	0	291	409	
10	0	0	0	0	297	409	
11	0	0	0	0	302	409	
12	0	0	0	0	303	409	
13	0	0	0	0	303	408	
14	0	0	0	0	300	409	
15	0	0	0	0	297	408	
0	0	0	0	0	293	409	
1	0	0	0	0	289	408	
2	0	0	0	0	285	408	
3	0	0	0	0	283	408	
4	0	0	0	0	281	409	
5	0	0	0	0	279	408	
6	0	0	0	0	279	408	
7	0	0	0	0	279	408	
8	0	0	0	0	282	408	
9	0	0	0	0	285	408	
10	0	0	0	0	290	408	
11	0	0	0	0	298	407	
12	0	0	0	0	306	408	
13	0	0	0	0	313	408	
14	0	0	0	0	319	407	
15	0	0	0	0	326	408	
0	0	0	0	0	330	407	
1	0	0	0	0	331	407	
2	0	0	0	0	331	407	
3	0	0	0	0	329	407	
4	0	0	0	0	327	407	
5	0	0	0	0	326	406	
6	0	0	0	0	326	407	
7	0	0	0	0	327	407	
8	0	0	0	0	328	407	
9	0	0	0	0	330	407	
10	0	0	0	0	333	406	
11	0	0	0	0	337	406	
12	0	0	0	0	342	407	
13	0	0	0	0	347	406	
14	0	0	0	0	353	407	
15	0	0	0	0	360	407	
0	0	0	0	0	367	407	
1	0	0	0	0	372	407	
2	0	0	0	0	376	407	
3	0	0	0	0	379	406	
4	0	0	0	0	380	407	
5	0	0	0	0	380	407	
6	0	0	0	0	378	407	
7	0	0	0	0	374	407	
8	0	0	0	0	372	407	
9	0	0	0	0	370	406	
10	0	0	0	0	368	407	
11	0	0	0	0	367	406	
12	0	0	0	0	364	408	
13	0	0	0	0	362	407	
14	0	0	0	0	362	407	
15	0	0	0	0	363	407	
0	0	0	0	0	368	407	
1	0	0	0	0	373	408	
2	0	0	0	0	382	408	
3	0	0	0	0	391	407	
4	0	0	0	0	399	408	
5	0	0	0	0	406	407	
6	0	0	0	0	411	407	
7	0	0	0	0	416	408	
8	0	0	0	0	418	408	
9	0	0	0	0	418	407	
10	0	0	0	0	417	407	
11	0	0	0	0	413	407	
12	0	0	0	0	409	408	
13	0	0	0	0	405	407	
14	0	0	0	0	403	407	
15	0	0	0	0	403	408	
0	0	0	0	0	403	407	
1	0	0	0	0	404	408	
2	0	0	0	0	406	408	
3	0	0	0	0	408	407	
4	0	0	0	0	411	408	
5	0	0	0	0	415	407	
6	0	0	0	0	421	407	
7	0	0	0	0	429	407	
8	0	0	0	0	437	407	
9	0	0	0	0	445	407	
10	0	0	0	0	452	407	
11	0	0	0	0	458	407	
12	0	0	0	0	462	407	
13	0	0	0	0	465	407	
14	0	0	0	0	466	406	
15	0	0	0	0	465	407	
0	0	0	0	0	463	407	
1	0	0	0	0	461	407	
2	0	0	0	0	459	407	
3	0	0	0	0	459	407	
4	0	0	0	0	459	408	
5	0	0	0	0	461	407	
6	0	0	0	0	464	408	
7	0	0	0	0	467	408	
8	0	0	0	0	471	407	
9	0	0	0	0	475	407	
10	0	0	0	0	481	407	
11	0	0	0	0	489	407	
12	0	0	0	0	497	408	
13	0	0	0	0	505	407	
14	0	0	0	0	511	408	
15	0	0	0	0	516	408	
0	0	0	0	0	518	408	
1	0	0	0	0	518	408	
2	0	0	0	0	517	409	
3	0	0	0	0	515	409	
4	0	0	0	0	512	408	
5	0	0	0	0	508	408	
6	0	0	0	0	506	409	
7	0	0	0	0	504	409	
8	0	0	0	0	501	409	
9	0	0	0	0	499	409	
10	0	0	0	0	498	409	
11	0	0	0	0	499	410	
12	0	0	0	0	499	409	
13	0	0	0	0	501	410	
14	0	0	0	0	504	409	
15	0	0	0	0	507	409	
0	0	0	0	0	512	410	
1	0	0	0	0	515	410	
2	0	0	0	0	519	409	
3	0	0	0	0	522	409	
4	0	0	0	0	522	409	
5	0	0	0	0	520	409	
6	0	0	0	0	516	409	
7	0	0	0	0	511	409	
8	0	0	0	0	504	409	
9	0	0	0	0	499	409	
10	0	0	0	0	493	409	
11	0	0	0	0	489	409	
12	0	0	0	0	485	409	
13	0	0	0	0	481	408	
14	0	0	0	0	478	409	
15	0	0	0	0	476	409	
0	0	0	0	0	474	409	
1	0	0	0	0	473	409	
2	0	0	0	0	476	409	
3	0	0	0	0	479	409	
4	0	0	0	0	483	409	
5	0	0	0	0	487	409	
6	0	0	0	0	489	409	
7	0	0	0	0	491	409	
8	0	0	0	0	490	409	
9	0	0	0	0	487	408	
10	0	0	0	0	484	408	
11	0	0	0	0	478	409	
12	0	0	0	0	471	410	
13	0	0	0	0	465	409	
14	0	0	0	0	458	409	
15	0	0	0	0	453	409	
0	0	0	0	0	448	410	
1	0	0	0	0	445	409	
2	0	0	0	0	442	409	
3	0	0	0	0	441	409	
4	0	0	0	0	440	410	
5	0	0	0	0	442	409	
6	0	0	0	0	446	409	
7	0	0	0	0	451	409	
8	0	0	0	0	457	410	
9	0	0	0	0	462	409	
10	0	0	0	0	467	409	
11	0	0	0	0	470	410	
12	0	0	0	0	470	411	
13	0	0	0	0	469	410	
14	0	0	0	0	467	410	
15	0	0	0	0	462	410	
0	0	0	0	0	457	411	
1	0	0	0	0	453	410	
2	0	0	0	0	450	411	
3	0	0	0	0	448	411	
4	0	0	0	0	446	411	
5	0	0	0	0	445	410	
6	0	0	0	0	444	411	
7	0	0	0	0	444	411	
8	0	0	0	0	445	411	
9	0	0	0	0	447	411	
10	0	0	0	0	452	411	
11	0	0	0	0	457	410	
12	0	0	0	0	463	411	
13	0	0	0	0	468	411	
14	0	0	0	0	471	411	
15	0	0	0	0	473	411	
0	0	0	0	0	473	412	
1	0	0	0	0	471	411	
2	0	0	0	0	467	411	
3	0	0	0	0	461	411	
4	0	0	0	0	456	411	
5	0	0	0	0	451	410	
6	0	0	0	0	448	410	
7	0	0	0	0	446	410	
8	0	0	0	0	444	411	
9	0	0	0	0	442	410	
10	0	0	0	0	441	409	
11	0	0	0	0	440	409	
12	0	0	0	0	440	409	
13	0	0	0	0	442	409	
14	0	0	0	0	446	409	
15	0	0	0	0	451	408	
0	0	0	0	0	457	409	
1	0	0	0	0	462	409	
2	0	0	0	0	466	409	
3	0	0	0	0	468	409	
4	0	0	0	0	470	409	
5	0	0	0	0	468	408	
6	0	0	0	0	466	409	
7	0	0	0	0	463	409	
8	0	0	0	0	459	409	
9	0	0	0	0	455	409	
10	0	0	0	0	451	409	
11	0	0	0	0	448	408	
12	0	0	0	0	446	408	
13	0	0	0	0	445	408	
14	0	0	0	0	446	408	
15	0	0	0	0	447	409	
0	0	0	0	0	449	409	
1	0	0	0	0	451	409	
2	0	0	0	0	454	409	
3	0	0	0	0	459	409	
4	0	0	0	0	465	409	
5	0	0	0	0	471	409	
6	0	0	0	0	475	408	
7	0	0	0	0	479	408	
8	0	0	0	0	480	409	
9	0	0	0	0	479	409	
10	0	0	0	0	476	409	
11	0	0	0	0	472	408	
12	0	0	0	0	467	409	
13	0	0	0	0	462	409	
14	0	0	0	0	456	409	
15	0	0	0	0	452	409	
0	0	0	0	0	449	409	
1	0	0	0	0	445	408	
2	0	0	0	0	441	409	
3	0	0	0	0	439	408	
4	0	0	0	0	437	409	
5	0	0	0	0	437	408	
6	0	0	0	0	439	408	
7	0	0	0	0	444	409	
8	0	0	0	0	449	408	
9	0	0	0	0	453	408	
10	0	0	0	0	455	408	
11	0	0	0	0	457	408	
12	0	0	0	0	457	410	
13	0	0	0	0	454	409	
14	0	0	0	0	449	408	
15	0	0	0	0	444	408	
0	0	0	0	0	438	408	
1	0	0	0	0	433	408	
2	0	0	0	0	429	408	
3	0	0	0	0	427	408	
4	0	0	0	0	424	409	
5	0	0	0	0	423	409	
6	0	0	0	0	422	409	
7	0	0	0	0	422	408	
8	0	0	0	0	422	408	
9	0	0	0	0	423	408	
10	0	0	0	0	428	408	
11	0	0	0	0	435	408	
12	0	0	0	0	442	408	
13	0	0	0	0	448	408	
14	0	0	0	0	453	408	
15	0	0	0	0	457	408	
0	0	0	0	0	459	408	
1	0	0	0	0	457	407	
2	0	0	0	0	455	408	
3	0	0	0	0	452	408	
4	0	0	0	0	448	408	
5	0	0	0	0	444	409	
6	0	0	0	0	440	408	
7	0	0	0	0	437	407	
8	0	0	0	0	435	408	
9	0	0	0	0	434	408	
10	0	0	0	0	434	408	
11	0	0	0	0	434	408	
12	0	0	0	0	435	409	
13	0	0	0	0	436	408	
14	0	0	0	0	441	408	
15	0	0	0	0	447	408	
0	0	0	0	0	454	408	
1	0	0	0	0	459	408	
2	0	0	0	0	463	408	
3	0	0	0	0	466	407	
4	0	0	0	0	467	408	
5	0	0	0	0	466	407	
6	0	0	0	0	464	408	
7	0	0	0	0	460	408	
8	0	0	0	0	455	408	
9	0	0	0	0	451	408	
10	0	0	0	0	448	408	
11	0	0	0	0	447	408	
12	0	0	0	0	446	409	
13	0	0	0	0	444	408	
14	0	0	0	0	443	408	
15	0	0	0	0	441	408	
0	0	0	0	0	442	408	
1	0	0	0	0	443	408	
2	0	0	0	0	447	408	
3	0	0	0	0	452	408	
4	0	0	0	0	457	409	
5	0	0	0	0	461	408	
6	0	0	0	0	464	408	
7	0	0	0	0	467	408	
8	0	0	0	0	468	408	
9	0	0	0	0	467	408	
10	0	0	0	0	465	408	
11	0	0	0	0	461	408	
12	0	0	0	0	456	409	
13	0	0	0	0	451	408	
14	0	0	0	0	447	408	
15	0	0	0	0	444	408	
0	0	0	0	0	442	408	
1	0	0	0	0	441	408	
2	0	0	0	0	441	408	
3	0	0	0	0	442	408	
4	0	0	0	0	444	409	
5	0	0	0	0	447	408	
6	0	0	0	0	451	408	
7	0	0	0	0	457	408	
8	0	0	0	0	463	408	
9	0	0	0	0	467	408	
10	0	0	0	0	471	407	
11	0	0	0	0	472	407	
12	0	0	0	0	472	408	
13	0	0	0	0	470	407	
14	0	0	0	0	467	408	
15	0	0	0	0	462	408	
0	0	0	0	0	457	408	
1	0	0	0	0	452	407	
2	0	0	0	0	448	408	
3	0	0	0	0	447	408	
4	0	0	0	0	445	408	
5	0	0	0	0	444	407	
6	0	0	0	0	445	408	
7	0	0	0	0	446	408	
8	0	0	0	0	448	408	
9	0	0	0	0	451	408	
10	0	0	0	0	456	408	
11	0	0	0	0	462	408	
12	0	0	0	0	468	409	
13	0	0	0	0	473	409	
14	0	0	0	0	477	408	
15	0	0	0	0	479	408	
0	0	0	0	0	478	410	
1	0	0	0	0	475	409	
2	0	0	0	0	471	409	
3	0	0	0	0	467	409	
4	0	0	0	0	461	409	
5	0	0	0	0	456	409	
6	0	0	0	0	452	409	
7	0	0	0	0	449	409	
8	0	0	0	0	446	409	
9	0	0	0	0	444	409	
10	0	0	0	0	443	409	
11	0	0	0	0	443	408	
12	0	0	0	0	443	409	
13	0	0	0	0	445	408	
14	0	0	0	0	449	408	
15	0	0	0	0	455	408	
0	0	0	0	0	461	409	
1	0	0	0	0	467	408	
2	0	0	0	0	472	408	
3	0	0	0	0	475	408	
4	0	0	0	0	476	409	
5	0	0	0	0	474	408	
6	0	0	0	0	470	408	
7	0	0	0	0	464	409	
8	0	0	0	0	458	409	
9	0	0	0	0	452	408	
10	0	0	0	0	447	408	
11	0	0	0	0	443	408	
12	0	0	0	0	439	409	
13	0	0	0	0	437	408	
14	0	0	0	0	436	408	
15	0	0	0	0	436	408	
0	0	0	0	0	438	409	
1	0	0	0	0	439	408	
2	0	0	0	0	443	408	
3	0	0	0	0	449	408	
4	0	0	0	0	455	409	
5	0	0	0	0	459	408	
6	0	0	0	0	464	408	
7	0	0	0	0	467	408	
8	0	0	0	0	469	408	
9	0	0	0	0	468	407	
10	0	0	0	0	467	408	
11	0	0	0	0	463	408	
12	0	0	0	0	459	408	
13	0	0	0	0	455	408	
14	0	0	0	0	451	407	
15	0	0	0	0	450	408	
0	0	0	0	0	449	408	
1	0	0	0	0	448	408	
2	0	0	0	0	448	408	
3	0	0	0	0	449	408	
4	0	0	0	0	451	409	
5	0	0	0	0	454	408	
6	0	0	0	0	457	408	
7	0	0	0	0	464	408	
8	0	0	0	0	472	409	
9	0	0	0	0	479	408	
10	0	0	0	0	484	408	
11	0	0	0	0	488	408	
12	0	0	0	0	489	409	
13	0	0	0	0	488	409	
14	0	0	0	0	487	408	
15	0	0	0	0	484	409	
0	0	0	0	0	480	409	
1	0	0	0	0	477	409	
2	0	0	0	0	473	408	
3	0	0	0	0	471	408	
4	0	0	0	0	470	409	
5	0	0	0	0	469	409	
6	0	0	0	0	470	408	
7	0	0	0	0	471	408	
8	0	0	0	0	472	409	
9	0	0	0	0	475	408	
10	0	0	0	0	480	408	
11	0	0	0	0	487	408	
12	0	0	0	0	495	409	
13	0	0	0	0	501	409	
14	0	0	0	0	505	408	
15	0	0	0	0	508	409	
0	0	0	0	0	508	409	
1	0	0	0	0	507	408	
2	0	0	0	0	502	409	
3	0	0	0	0	496	408	
4	0	0	0	0	487	409	
5	0	0	0	0	479	408	
6	0	0	0	0	472	408	
7	0	0	0	0	467	409	
8	0	0	0	0	462	409	
9	0	0	0	0	459	408	
10	0	0	0	0	457	409	
11	0	0	0	0	457	408	
12	0	0	0	0	457	408	
13	0	0	0	0	459	408	
14	0	0	0	0	462	408	
15	0	0	0	0	467	408	
0	0	0	0	0	472	408	
1	0	0	0	0	476	408	
2	0	0	0	0	478	408	
3	0	0	0	0	480	408	
4	0	0	0	0	480	409	
5	0	0	0	0	479	408	
6	0	0	0	0	475	408	
7	0	0	0	0	470	409	
8	0	0	0	0	465	408	
9	0	0	0	0	460	409	
10	0	0	0	0	455	408	
11	0	0	0	0	451	409	
12	0	0	0	0	448	409	
13	0	0	0	0	447	409	
14	0	0	0	0	447	409	
15	0	0	0	0	447	410	
0	0	0	0	0	449	409	
1	0	0	0	0	451	409	
2	0	0	0	0	456	409	
3	0	0	0	0	463	409	
4	0	0	0	0	469	409	
5	0	0	0	0	475	409	
6	0	0	0	0	479	409	
7	0	0	0	0	482	409	
8	0	0	0	0	483	409	
9	0	0	0	0	483	409	
10	0	0	0	0	480	409	
11	0	0	0	0	476	408	
12	0	0	0	0	472	409	
13	0	0	0	0	467	409	
14	0	0	0	0	464	409	
15	0	0	0	0	462	408	
0	0	0	0	0	459	410	
1	0	0	0	0	458	409	
2	0	0	0	0	457	409	
3	0	0	0	0	457	409	
4	0	0	0	0	458	410	
5	0	0	0	0	459	409	
6	0	0	0	0	463	409	
7	0	0	0	0	468	409	
8	0	0	0	0	474	409	
9	0	0	0	0	478	410	
10	0	0	0	0	480	409	
11	0	0	0	0	482	409	
12	0	0	0	0	481	409	
13	0	0	0	0	479	409	
14	0	0	0	0	474	409	
15	0	0	0	0	467	409	
0	0	0	0	0	460	410	
1	0	0	0	0	452	409	
2	0	0	0	0	444	408	
3	0	0	0	0	439	409	
4	0	0	0	0	434	410	
5	0	0	0	0	429	409	
6	0	0	0	0	426	409	
7	0	0	0	0	423	409	
8	0	0	0	0	422	409	
9	0	0	0	0	422	409	
10	0	0	0	0	424	409	
11	0	0	0	0	428	409	
12	0	0	0	0	432	410	
13	0	0	0	0	437	408	
14	0	0	0	0	440	408	
15	0	0	0	0	442	408	
0	0	0	0	0	442	409	
1	0	0	0	0	440	409	
2	0	0	0	0	438	409	
3	0	0	0	0	434	409	
4	0	0	0	0	430	410	
5	0	0	0	0	427	409	
6	0	0	0	0	424	409	
7	0	0	0	0	423	409	
8	0	0	0	0	423	409	
9	0	0	0	0	423	409	
10	0	0	0	0	424	409	
11	0	0	0	0	427	409	
12	0	0	0	0	431	410	
13	0	0	0	0	435	409	
14	0	0	0	0	442	409	
15	0	0	0	0	450	409	
0	0	0	0	0	457	409	
1	0	0	0	0	464	409	
2	0	0	0	0	469	409	
3	0	0	0	0	472	409	
4	0	0	0	0	473	410	
5	0	0	0	0	473	409	
6	0	0	0	0	471	408	
7	0	0	0	0	468	408	
8	0	0	0	0	464	409	
9	0	0	0	0	460	409	
10	0	0	0	0	456	409	
11	0	0	0	0	453	408	
12	0	0	0	0	452	408	
13	0	0	0	0	451	408	
14	0	0	0	0	450	409	
15	0	0	0	0	451	408	
0	0	0	0	0	451	409	
1	0	0	0	0	452	409	
2	0	0	0	0	457	409	
3	0	0	0	0	464	408	
4	0	0	0	0	471	409	
5	0	0	0	0	477	408	
6	0	0	0	0	482	408	
7	0	0	0	0	486	408	
8	0	0	0	0	487	408	
9	0	0	0	0	486	409	
10	0	0	0	0	483	408	
11	0	0	0	0	480	409	
12	0	0	0	0	475	409	
13	0	0	0	0	471	408	
14	0	0	0	0	468	408	
15	0	0	0	0	465	408	
0	0	0	0	0	463	408	
1	0	0	0	0	462	409	
2	0	0	0	0	462	408	
3	0	0	0	0	462	408	
4	0	0	0	0	464	409	
5	0	0	0	0	466	408	
6	0	0	0	0	471	408	
7	0	0	0	0	478	408	
8	0	0	0	0	483	408	
9	0	0	0	0	488	408	
10	0	0	0	0	492	408	
11	0	0	0	0	494	408	
12	0	0	0	0	496	409	
13	0	0	0	0	493	408	
14	0	0	0	0	490	408	
15	0	0	0	0	486	408	
0	0	0	0	0	481	408	
1	0	0	0	0	476	408	
2	0	0	0	0	471	408	
3	0	0	0	0	467	408	
4	0	0	0	0	464	408	
5	0	0	0	0	463	407	
6	0	0	0	0	462	407	
7	0	0	0	0	460	407	
8	0	0	0	0	460	408	
9	0	0	0	0	460	408	
10	0	0	0	0	464	408	
11	0	0	0	0	470	408	
12	0	0	0	0	476	408	
13	0	0	0	0	481	408	
14	0	0	0	0	483	408	
15	0	0	0	0	486	408	
0	0	0	0	0	486	408	
1	0	0	0	0	484	408	
2	0	0	0	0	481	408	
3	0	0	0	0	477	408	
4	0	0	0	0	473	408	
5	0	0	0	0	469	408	
6	0	0	0	0	466	408	
7	0	0	0	0	463	408	
8	0	0	0	0	460	408	
9	0	0	0	0	457	408	
10	0	0	0	0	455	408	
11	0	0	0	0	453	408	
12	0	0	0	0	452	409	
13	0	0	0	0	452	408	
14	0	0	0	0	455	407	
15	0	0	0	0	459	408	
0	0	0	0	0	464	408	
1	0	0	0	0	467	408	
2	0	0	0	0	469	408	
3	0	0	0	0	470	408	
4	0	0	0	0	469	408	
5	0	0	0	0	466	408	
6	0	0	0	0	463	408	
7	0	0	0	0	459	408	
8	0	0	0	0	455	408	
9	0	0	0	0	451	408	
10	0	0	0	0	447	408	
11	0	0	0	0	444	408	
12	0	0	0	0	442	409	
13	0	0	0	0	441	408	
14	0	0	0	0	441	408	
15	0	0	0	0	443	408	
0	0	0	0	0	445	408	
1	0	0	0	0	447	407	
2	0	0	0	0	452	407	
3	0	0	0	0	460	407	
4	0	0	0	0	468	408	
5	0	0	0	0	476	407	
6	0	0	0	0	481	407	
7	0	0	0	0	486	408	
8	0	0	0	0	487	407	
9	0	0	0	0	487	408	
10	0	0	0	0	484	407	
11	0	0	0	0	481	406	
12	0	0	0	0	477	408	
13	0	0	0	0	473	408	
14	0	0	0	0	469	408	
15	0	0	0	0	467	407	
0	0	0	0	0	465	408	
1	0	0	0	0	465	408	
2	0	0	0	0	465	408	
3	0	0	0	0	466	407	
4	0	0	0	0	468	408	
5	0	0	0	0	471	408	
6	0	0	0	0	474	408	
7	0	0	0	0	480	408	
8	0	0	0	0	485	408	
9	0	0	0	0	491	408	
10	0	0	0	0	495	408	
11	0	0	0	0	498	408	
12	0	0	0	0	499	409	
13	0	0	0	0	497	408	
14	0	0	0	0	494	408	
15	0	0	0	0	490	408	
0	0	0	0	0	485	408	
1	0	0	0	0	480	408	
2	0	0	0	0	475	408	
3	0	0	0	0	471	408	
4	0	0	0	0	467	409	
5	0	0	0	0	466	409	
6	0	0	0	0	464	410	
7	0	0	0	0	465	409	
8	0	0	0	0	466	410	
9	0	0	0	0	467	409	
10	0	0	0	0	471	409	
11	0	0	0	0	476	409	
12	0	0	0	0	483	409	
13	0	0	0	0	487	408	
14	0	0	0	0	491	409	
15	0	0	0	0	493	409	
0	0	0	0	0	494	409	
1	0	0	0	0	493	409	
2	0	0	0	0	491	409	
3	0	0	0	0	486	409	
4	0	0	0	0	480	410	
5	0	0	0	0	473	409	
6	0	0	0	0	466	409	
7	0	0	0	0	462	409	
8	0	0	0	0	457	410	
9	0	0	0	0	453	409	
10	0	0	0	0	450	409	
11	0	0	0	0	448	408	
12	0	0	0	0	447	410	
13	0	0	0	0	446	409	
14	0	0	0	0	448	409	
15	0	0	0	0	451	409	
0	0	0	0	0	454	409	
1	0	0	0	0	456	409	
2	0	0	0	0	456	409	
3	0	0	0	0	455	409	
4	0	0	0	0	453	410	
5	0	0	0	0	448	409	
6	0	0	0	0	443	409	
7	0	0	0	0	437	409	
8	0	0	0	0	429	409	
9	0	0	0	0	422	409	
10	0	0	0	0	415	410	
11	0	0	0	0	410	409	
12	0	0	0	0	406	410	
13	0	0	0	0	404	410	
14	0	0	0	0	403	409	
15	0	0	0	0	404	409	
0	0	0	0	0	405	410	
1	0	0	0	0	406	409	
2	0	0	0	0	409	409	
3	0	0	0	0	413	409	
4	0	0	0	0	417	410	
5	0	0	0	0	422	409	
6	0	0	0	0	425	409	
7	0	0	0	0	427	409	
8	0	0	0	0	428	410	
9	0	0	0	0	426	410	
10	0	0	0	0	423	409	
11	0	0	0	0	418	409	
12	0	0	0	0	413	409	
13	0	0	0	0	408	408	
14	0	0	0	0	403	408	
15	0	0	0	0	399	408	
0	0	0	0	0	398	408	
1	0	0	0	0	397	408	
2	0	0	0	0	398	408	
3	0	0	0	0	399	408	
4	0	0	0	0	400	410	
5	0	0	0	0	403	408	
6	0	0	0	0	407	408	
7	0	0	0	0	413	408	
8	0	0	0	0	418	409	
9	0	0	0	0	423	408	
10	0	0	0	0	428	409	
11	0	0	0	0	432	408	
12	0	0	0	0	435	409	
13	0	0	0	0	435	409	
14	0	0	0	0	433	408	
15	0	0	0	0	431	408	
0	0	0	0	0	427	408	
1	0	0	0	0	423	409	
2	0	0	0	0	422	408	
3	0	0	0	0	423	408	
4	0	0	0	0	424	409	
5	0	0	0	0	426	408	
6	0	0	0	0	429	409	
7	0	0	0	0	432	408	
8	0	0	0	0	436	409	
9	0	0	0	0	441	408	
10	0	0	0	0	447	408	
11	0	0	0	0	455	408	
12	0	0	0	0	461	409	
13	0	0	0	0	468	409	
14	0	0	0	0	473	409	
15	0	0	0	0	479	409	
0	0	0	0	0	482	409	
1	0	0	0	0	483	409	
2	0	0	0	0	483	408	
3	0	0	0	0	482	408	
4	0	0	0	0	480	409	
5	0	0	0	0	478	408	
6	0	0	0	0	476	409	
7	0	0	0	0	476	408	
8	0	0	0	0	475	409	
9	0	0	0	0	476	409	
10	0	0	0	0	478	408	
11	0	0	0	0	480	408	
12	0	0	0	0	483	409	
13	0	0	0	0	488	409	
14	0	0	0	0	494	408	
15	0	0	0	0	502	409	
0	0	0	0	0	511	409	
1	0	0	0	0	519	409	
2	0	0	0	0	525	408	
3	0	0	0	0	530	408	
4	0	0	0	0	533	409	
5	0	0	0	0	533	408	
6	0	0	0	0	532	409	
7	0	0	0	0	529	408	
8	0	0	0	0	525	409	
9	0	0	0	0	523	408	
10	0	0	0	0	521	408	
11	0	0	0	0	521	408	
12	0	0	0	0	520	409	
13	0	0	0	0	520	409	
14	0	0	0	0	521	409	
15	0	0	0	0	524	409	
0	0	0	0	0	528	409	
1	0	0	0	0	533	408	
2	0	0	0	0	539	409	
3	0	0	0	0	546	408	
4	0	0	0	0	552	409	
5	0	0	0	0	557	408	
6	0	0	0	0	560	408	
7	0	0	0	0	563	408	
8	0	0	0	0	563	409	
9	0	0	0	0	561	408	
10	0	0	0	0	559	408	
11	0	0	0	0	556	409	
12	0	0	0	0	554	409	
13	0	0	0	0	553	409	
14	0	0	0	0	552	408	
15	0	0	0	0	553	408	
0	0	0	0	0	554	408	
1	0	0	0	0	556	408	
2	0	0	0	0	560	408	
3	0	0	0	0	563	408	
4	0	0	0	0	566	409	
5	0	0	0	0	570	408	
6	0	0	0	0	576	408	
7	0	0	0	0	583	408	
8	0	0	0	0	592	408	
9	0	0	0	0	599	408	
10	0	0	0	0	604	409	
11	0	0	0	0	608	408	
12	0	0	0	0	611	409	
13	0	0	0	0	611	408	
14	0	0	0	0	610	408	
15	0	0	0	0	608	408	
0	0	0	0	0	605	409	
1	0	0	0	0	601	408	
2	0	0	0	0	598	408	
3	0	0	0	0	596	409	
4	0	0	0	0	594	409	
5	0	0	0	0	594	409	
6	0	0	0	0	595	409	
7	0	0	0	0	595	409	
8	0	0	0	0	598	409	
9	0	0	0	0	600	409	
10	0	0	0	0	606	409	
11	0	0	0	0	611	408	
12	0	0	0	0	616	409	
13	0	0	0	0	621	409	
14	0	0	0	0	623	408	
15	0	0	0	0	624	409	
0	0	0	0	0	621	409	
1	0	0	0	0	619	409	
2	0	0	0	0	614	409	
3	0	0	0	0	608	409	
4	0	0	0	0	603	409	
5	0	0	0	0	598	409	
6	0	0	0	0	592	409	
7	0	0	0	0	590	409	
8	0	0	0	0	588	409	
9	0	0	0	0	588	409	
10	0	0	0	0	588	409	
11	0	0	0	0	589	409	
12	0	0	0	0	590	410	
13	0	0	0	0	592	409	
14	0	0	0	0	595	409	
15	0	0	0	0	601	409	
0	0	0	0	0	607	409	
1	0	0	0	0	611	408	
2	0	0	0	0	615	409	
3	0	0	0	0	617	409	
4	0	0	0	0	615	410	
5	0	0	0	0	612	409	
6	0	0	0	0	608	409	
7	0	0	0	0	602	409	
8	0	0	0	0	595	408	
9	0	0	0	0	588	408	
10	0	0	0	0	581	408	
11	0	0	0	0	577	408	
12	0	0	0	0	573	409	
13	0	0	0	0	570	408	
14	0	0	0	0	567	408	
15	0	0	0	0	564	409	
0	0	0	0	0	561	409	
1	0	0	0	0	560	409	
2	0	0	0	0	561	409	
3	0	0	0	0	565	408	
4	0	0	0	0	570	409	
5	0	0	0	0	574	409	
6	0	0	0	0	575	409	
7	0	0	0	0	576	409	
8	0	0	0	0	574	409	
9	0	0	0	0	569	408	
10	0	0	0	0	563	409	
11	0	0	0	0	557	409	
12	0	0	0	0	550	409	
13	0	0	0	0	543	408	
14	0	0	0	0	538	408	
15	0	0	0	0	535	408	
0	0	0	0	0	533	408	
1	0	0	0	0	532	408	
2	0	0	0	0	531	408	
3	0	0	0	0	531	408	
4	0	0	0	0	532	409	
5	0	0	0	0	534	408	
6	0	0	0	0	538	408	
7	0	0	0	0	543	408	
8	0	0	0	0	548	409	
9	0	0	0	0	553	408	
10	0	0	0	0	556	408	
11	0	0	0	0	558	408	
12	0	0	0	0	557	409	
13	0	0	0	0	555	408	
14	0	0	0	0	551	408	
15	0	0	0	0	547	408	
0	0	0	0	0	541	409	
1	0	0	0	0	535	408	
2	0	0	0	0	530	408	
3	0	0	0	0	527	408	
4	0	0	0	0	523	409	
5	0	0	0	0	520	409	
6	0	0	0	0	518	408	
7	0	0	0	0	516	408	
8	0	0	0	0	517	408	
9	0	0	0	0	518	408	
10	0	0	0	0	522	407	
11	0	0	0	0	527	408	
12	0	0	0	0	534	408	
13	0	0	0	0	540	408	
14	0	0	0	0	545	408	
15	0	0	0	0	548	408	
0	0	0	0	0	550	408	
1	0	0	0	0	548	408	
2	0	0	0	0	547	408	
3	0	0	0	0	545	408	
4	0	0	0	0	543	408	
5	0	0	0	0	541	408	
6	0	0	0	0	540	408	
7	0	0	0	0	540	407	
8	0	0	0	0	542	408	
9	0	0	0	0	545	408	
10	0	0	0	0	549	408	
11	0	0	0	0	555	408	
12	0	0	0	0	561	409	
13	0	0	0	0	568	408	
14	0	0	0	0	576	408	
15	0	0	0	0	587	408	
0	0	0	0	0	597	408	
1	0	0	0	0	607	408	
2	0	0	0	0	615	408	
3	0	0	0	0	624	408	
4	0	0	0	0	630	409	
5	0	0	0	0	632	409	
6	0	0	0	0	633	408	
7	0	0	0	0	633	408	
8	0	0	0	0	632	408	
9	0	0	0	0	631	408	
10	0	0	0	0	630	408	
11	0	0	0	0	629	408	
12	0	0	0	0	626	408	
13	0	0	0	0	623	407	
14	0	0	0	0	619	408	
15	0	0	0	0	616	407	
0	0	0	0	0	614	408	
1	0	0	0	0	613	408	
2	0	0	0	0	614	408	
3	0	0	0	0	616	407	
4	0	0	0	0	619	408	
5	0	0	0	0	620	408	
6	0	0	0	0	621	408	
7	0	0	0	0	620	408	
8	0	0	0	0	616	408	
9	0	0	0	0	611	408	
10	0	0	0	0	606	408	
11	0	0	0	0	598	408	
12	0	0	0	0	590	409	
13	0	0	0	0	580	408	
14	0	0	0	0	572	407	
15	0	0	0	0	564	408	
0	0	0	0	0	558	408	
1	0	0	0	0	551	408	
2	0	0	0	0	546	407	
3	0	0	0	0	542	408	
4	0	0	0	0	539	409	
5	0	0	0	0	536	408	
6	0	0	0	0	535	408	
7	0	0	0	0	537	408	
8	0	0	0	0	538	408	
9	0	0	0	0	539	408	
10	0	0	0	0	539	407	
11	0	0	0	0	538	408	
12	0	0	0	0	536	408	
13	0	0	0	0	531	408	
14	0	0	0	0	526	408	
15	0	0	0	0	518	408	
0	0	0	0	0	511	409	
1	0	0	0	0	504	408	
2	0	0	0	0	498	408	
3	0	0	0	0	492	408	
4	0	0	0	0	489	409	
5	0	0	0	0	487	408	
6	0	0	0	0	487	408	
7	0	0	0	0	486	408	
8	0	0	0	0	487	409	
9	0	0	0	0	489	408	
10	0	0	0	0	494	408	
11	0	0	0	0	500	408	
12	0	0	0	0	506	409	
13	0	0	0	0	512	408	
14	0	0	0	0	515	408	
15	0	0	0	0	517	408	
0	0	0	0	0	516	408	
1	0	0	0	0	512	408	
2	0	0	0	0	506	408	
3	0	0	0	0	500	408	
4	0	0	0	0	494	408	
5	0	0	0	0	488	408	
6	0	0	0	0	483	408	
7	0	0	0	0	480	408	
8	0	0	0	0	477	408	
9	0	0	0	0	474	408	
10	0	0	0	0	473	408	
11	0	0	0	0	472	408	
12	0	0	0	0	472	409	
13	0	0	0	0	474	408	
14	0	0	0	0	478	408	
15	0	0	0	0	485	408	
0	0	0	0	0	492	408	
1	0	0	0	0	499	409	
2	0	0	0	0	503	408	
3	0	0	0	0	506	408	
4	0	0	0	0	508	409	
5	0	0	0	0	508	408	
6	0	0	0	0	505	409	
7	0	0	0	0	501	409	
8	0	0	0	0	495	409	
9	0	0	0	0	490	409	
10	0	0	0	0	485	409	
11	0	0	0	0	483	409	
12	0	0	0	0	480	409	
13	0	0	0	0	478	409	
14	0	0	0	0	476	409	
15	0	0	0	0	476	409	
0	0	0	0	0	476	409	
1	0	0	0	0	479	409	
2	0	0	0	0	484	410	
3	0	0	0	0	490	410	
4	0	0	0	0	497	411	
5	0	0	0	0	503	411	
6	0	0	0	0	508	411	
7	0	0	0	0	512	410	
8	0	0	0	0	513	411	
9	0	0	0	0	513	411	
10	0	0	0	0	511	410	
11	0	0	0	0	508	410	
12	0	0	0	0	505	411	
13	0	0	0	0	502	411	
14	0	0	0	0	500	411	
15	0	0	0	0	499	411	
0	0	0	0	0	499	411	
1	0	0	0	0	499	411	
2	0	0	0	0	498	411	
3	0	0	0	0	499	410	
4	0	0	0	0	501	411	
5	0	0	0	0	504	410	
6	0	0	0	0	509	411	
7	0	0	0	0	516	410	
8	0	0	0	0	524	410	
9	0	0	0	0	532	410	
10	0	0	0	0	539	410	
11	0	0	0	0	543	409	
12	0	0	0	0	546	410	
13	0	0	0	0	546	409	
14	0	0	0	0	543	409	
15	0	0	0	0	539	410	
0	0	0	0	0	534	410	
1	0	0	0	0	528	409	
2	0	0	0	0	524	409	
3	0	0	0	0	519	408	
4	0	0	0	0	518	409	
5	0	0	0	0	516	408	
6	0	0	0	0	515	409	
7	0	0	0	0	515	409	
8	0	0	0	0	517	409	
9	0	0	0	0	519	409	
10	0	0	0	0	522	408	
11	0	0	0	0	527	408	
12	0	0	0	0	533	409	
13	0	0	0	0	538	409	
14	0	0	0	0	541	409	
15	0	0	0	0	543	409	
0	0	0	0	0	543	409	
1	0	0	0	0	541	408	
2	0	0	0	0	538	409	
3	0	0	0	0	535	409	
4	0	0	0	0	530	409	
5	0	0	0	0	525	408	
6	0	0	0	0	519	408	
7	0	0	0	0	514	408	
8	0	0	0	0	509	408	
9	0	0	0	0	504	409	
10	0	0	0	0	502	408	
11	0	0	0	0	500	408	
12	0	0	0	0	499	410	
13	0	0	0	0	498	409	
14	0	0	0	0	502	409	
15	0	0	0	0	507	408	
0	0	0	0	0	512	409	
1	0	0	0	0	516	408	
2	0	0	0	0	520	408	
3	0	0	0	0	522	408	
4	0	0	0	0	521	409	
5	0	0	0	0	517	408	
6	0	0	0	0	514	409	
7	0	0	0	0	510	408	
8	0	0	0	0	505	408	
9	0	0	0	0	502	409	
10	0	0	0	0	498	408	
11	0	0	0	0	495	408	
12	0	0	0	0	492	409	
13	0	0	0	0	488	407	
14	0	0	0	0	487	407	
15	0	0	0	0	486	408	
0	0	0	0	0	487	407	
1	0	0	0	0	491	406	
2	0	0	0	0	497	406	
3	0	0	0	0	504	407	
4	0	0	0	0	511	407	
5	0	0	0	0	517	408	
6	0	0	0	0	522	407	
7	0	0	0	0	525	407	
8	0	0	0	0	526	407	
9	0	0	0	0	524	406	
10	0	0	0	0	520	407	
11	0	0	0	0	515	406	
12	0	0	0	0	509	407	
13	0	0	0	0	502	406	
14	0	0	0	0	496	406	
15	0	0	0	0	490	406	
0	0	0	0	0	487	407	
1	0	0	0	0	484	407	
2	0	0	0	0	483	406	
3	0	0	0	0	482	407	
4	0	0	0	0	483	407	
5	0	0	0	0	485	406	
6	0	0	0	0	489	406	
7	0	0	0	0	495	406	
8	0	0	0	0	501	407	
9	0	0	0	0	506	407	
10	0	0	0	0	509	406	
11	0	0	0	0	512	406	
12	0	0	0	0	514	407	
13	0	0	0	0	512	406	
14	0	0	0	0	509	407	
15	0	0	0	0	504	407	
0	0	0	0	0	499	407	
1	0	0	0	0	492	407	
2	0	0	0	0	486	407	
3	0	0	0	0	481	407	
4	0	0	0	0	475	408	
5	0	0	0	0	471	407	
6	0	0	0	0	467	407	
7	0	0	0	0	465	406	
8	0	0	0	0	464	408	
9	0	0	0	0	463	407	
10	0	0	0	0	465	407	
11	0	0	0	0	467	407	
12	0	0	0	0	471	408	
13	0	0	0	0	473	407	
14	0	0	0	0	475	407	
15	0	0	0	0	478	407	
0	0	0	0	0	478	407	
1	0	0	0	0	476	407	
2	0	0	0	0	475	407	
3	0	0	0	0	471	407	
4	0	0	0	0	466	408	
5	0	0	0	0	462	407	
6	0	0	0	0	459	407	
7	0	0	0	0	458	407	
8	0	0	0	0	457	408	
9	0	0	0	0	457	407	
10	0	0	0	0	459	407	
11	0	0	0	0	461	407	
12	0	0	0	0	463	408	
13	0	0	0	0	467	407	
14	0	0	0	0	472	407	
15	0	0	0	0	479	407	
0	0	0	0	0	487	407	
1	0	0	0	0	493	407	
2	0	0	0	0	497	407	
3	0	0	0	0	501	407	
4	0	0	0	0	503	407	
5	0	0	0	0	501	407	
6	0	0	0	0	497	408	
7	0	0	0	0	492	407	
8	0	0	0	0	485	408	
9	0	0	0	0	477	408	
10	0	0	0	0	470	408	
11	0	0	0	0	463	408	
12	0	0	0	0	459	408	
13	0	0	0	0	455	407	
14	0	0	0	0	454	407	
15	0	0	0	0	453	408	
0	0	0	0	0	454	408	
1	0	0	0	0	455	408	
2	0	0	0	0	459	408	
3	0	0	0	0	465	408	
4	0	0	0	0	472	409	
5	0	0	0	0	477	409	
6	0	0	0	0	481	409	
7	0	0	0	0	484	409	
8	0	0	0	0	484	409	
9	0	0	0	0	482	408	
10	0	0	0	0	478	409	
11	0	0	0	0	472	409	
12	0	0	0	0	467	409	
13	0	0	0	0	460	409	
14	0	0	0	0	454	409	
15	0	0	0	0	449	409	
0	0	0	0	0	444	409	
1	0	0	0	0	441	409	
2	0	0	0	0	439	409	
3	0	0	0	0	438	408	
4	0	0	0	0	437	410	
5	0	0	0	0	438	409	
6	0	0	0	0	441	409	
7	0	0	0	0	444	409	
8	0	0	0	0	449	409	
9	0	0	0	0	453	409	
10	0	0	0	0	457	409	
11	0	0	0	0	461	409	
12	0	0	0	0	463	410	
13	0	0	0	0	463	409	
14	0	0	0	0	462	409	
15	0	0	0	0	458	409	
0	0	0	0	0	454	409	
1	0	0	0	0	449	409	
2	0	0	0	0	445	408	
3	0	0	0	0	442	408	
4	0	0	0	0	440	409	
5	0	0	0	0	437	408	
6	0	0	0	0	437	408	
7	0	0	0	0	438	408	
8	0	0	0	0	440	409	
9	0	0	0	0	443	409	
10	0	0	0	0	449	409	
11	0	0	0	0	456	408	
12	0	0	0	0	463	409	
13	0	0	0	0	467	408	
14	0	0	0	0	470	408	
15	0	0	0	0	471	409	
0	0	0	0	0	471	409	
1	0	0	0	0	468	409	
2	0	0	0	0	464	409	
3	0	0	0	0	458	409	
4	0	0	0	0	452	410	
5	0	0	0	0	446	408	
6	0	0	0	0	439	409	
7	0	0	0	0	434	409	
8	0	0	0	0	428	409	
9	0	0	0	0	424	409	
10	0	0	0	0	421	408	
11	0	0	0	0	418	409	
12	0	0	0	0	416	410	
13	0	0	0	0	416	409	
14	0	0	0	0	417	409	
15	0	0	0	0	420	410	
0	0	0	0	0	424	409	
1	0	0	0	0	427	409	
2	0	0	0	0	428	409	
3	0	0	0	0	428	409	
4	0	0	0	0	427	409	
5	0	0	0	0	423	409	
6	0	0	0	0	417	410	
7	0	0	0	0	408	410	
8	0	0	0	0	399	409	
9	0	0	0	0	392	409	
10	0	0	0	0	385	409	
11	0	0	0	0	380	410	
12	0	0	0	0	375	410	
13	0	0	0	0	371	409	
14	0	0	0	0	369	409	
15	0	0	0	0	368	409	
0	0	0	0	0	369	409	
1	0	0	0	0	372	409	
2	0	0	0	0	376	409	
3	0	0	0	0	383	409	
4	0	0	0	0	391	409	
5	0	0	0	0	397	408	
6	0	0	0	0	401	408	
7	0	0	0	0	405	408	
8	0	0	0	0	407	409	
9	0	0	0	0	405	408	
10	0	0	0	0	401	409	
11	0	0	0	0	396	409	
12	0	0	0	0	389	408	
13	0	0	0	0	381	408	
14	0	0	0	0	374	408	
15	0	0	0	0	370	408	
0	0	0	0	0	366	408	
1	0	0	0	0	364	408	
2	0	0	0	0	363	408	
3	0	0	0	0	363	408	
4	0	0	0	0	364	409	
5	0	0	0	0	367	408	
6	0	0	0	0	371	409	
7	0	0	0	0	378	409	
8	0	0	0	0	384	409	
9	0	0	0	0	390	409	
10	0	0	0	0	394	409	
11	0	0	0	0	398	409	
12	0	0	0	0	398	409	
13	0	0	0	0	396	409	
14	0	0	0	0	393	408	
15	0	0	0	0	388	409	
0	0	0	0	0	384	409	
1	0	0	0	0	380	408	
2	0	0	0	0	376	408	
3	0	0	0	0	374	408	
4	0	0	0	0	371	408	
5	0	0	0	0	370	408	
6	0	0	0	0	370	409	
7	0	0	0	0	370	408	
8	0	0	0	0	371	409	
9	0	0	0	0	374	408	
10	0	0	0	0	379	408	
11	0	0	0	0	385	408	
12	0	0	0	0	391	409	
13	0	0	0	0	395	408	
14	0	0	0	0	398	408	
15	0	0	0	0	398	408	
0	0	0	0	0	397	408	
1	0	0	0	0	394	408	
2	0	0	0	0	390	408	
3	0	0	0	0	385	408	
4	0	0	0	0	380	409	
5	0	0	0	0	374	408	
6	0	0	0	0	369	408	
7	0	0	0	0	366	408	
8	0	0	0	0	364	409	
9	0	0	0	0	363	408	
10	0	0	0	0	363	408	
11	0	0	0	0	363	408	
12	0	0	0	0	364	409	
13	0	0	0	0	366	409	
14	0	0	0	0	370	408	
15	0	0	0	0	377	408	
0	0	0	0	0	384	408	
1	0	0	0	0	390	408	
2	0	0	0	0	395	408	
3	0	0	0	0	397	408	
4	0	0	0	0	396	409	
5	0	0	0	0	394	408	
6	0	0	0	0	391	408	
7	0	0	0	0	386	408	
8	0	0	0	0	381	408	
9	0	0	0	0	378	408	
10	0	0	0	0	374	408	
11	0	0	0	0	370	409	
12	0	0	0	0	367	409	
13	0	0	0	0	366	408	
14	0	0	0	0	365	408	
15	0	0	0	0	367	408	
0	0	0	0	0	369	408	
1	0	0	0	0	373	408	
2	0	0	0	0	379	409	
3	0	0	0	0	386	408	
4	0	0	0	0	394	409	
5	0	0	0	0	400	409	
6	0	0	0	0	406	409	
7	0	0	0	0	410	408	
8	0	0	0	0	412	409	
9	0	0	0	0	411	408	
10	0	0	0	0	408	408	
11	0	0	0	0	406	408	
12	0	0	0	0	401	409	
13	0	0	0	0	397	408	
14	0	0	0	0	394	408	
15	0	0	0	0	392	408	
0	0	0	0	0	391	409	
1	0	0	0	0	391	408	
2	0	0	0	0	392	408	
3	0	0	0	0	392	408	
4	0	0	0	0	393	408	
5	0	0	0	0	395	408	
6	0	0	0	0	400	408	
7	0	0	0	0	406	408	
8	0	0	0	0	412	409	
9	0	0	0	0	416	408	
10	0	0	0	0	419	408	
11	0	0	0	0	422	408	
12	0	0	0	0	422	408	
13	0	0	0	0	419	408	
14	0	0	0	0	415	408	
15	0	0	0	0	410	408	
0	0	0	0	0	404	408	
1	0	0	0	0	398	408	
2	0	0	0	0	393	408	
3	0	0	0	0	390	408	
4	0	0	0	0	389	408	
5	0	0	0	0	389	408	
6	0	0	0	0	390	408	
7	0	0	0	0	391	408	
8	0	0	0	0	392	408	
9	0	0	0	0	394	408	
10	0	0	0	0	399	408	
11	0	0	0	0	405	408	
12	0	0	0	0	411	409	
13	0	0	0	0	416	408	
14	0	0	0	0	420	407	
15	0	0	0	0	422	408	
0	0	0	0	0	419	408	
1	0	0	0	0	414	408	
2	0	0	0	0	408	408	
3	0	0	0	0	401	407	
4	0	0	0	0	393	408	
5	0	0	0	0	383	408	
6	0	0	0	0	374	408	
7	0	0	0	0	367	408	
8	0	0	0	0	361	408	
9	0	0	0	0	355	408	
10	0	0	0	0	352	408	
11	0	0	0	0	351	408	
12	0	0	0	0	349	409	
13	0	0	0	0	348	408	
14	0	0	0	0	349	408	
15	0	0	0	0	353	408	
0	0	0	0	0	358	408	
1	0	0	0	0	362	409	
2	0	0	0	0	365	408	
3	0	0	0	0	368	408	
4	0	0	0	0	369	409	
5	0	0	0	0	366	408	
6	0	0	0	0	362	409	
7	0	0	0	0	356	409	
8	0	0	0	0	350	408	
9	0	0	0	0	344	409	
10	0	0	0	0	337	409	
11	0	0	0	0	332	409	
12	0	0	0	0	327	410	
13	0	0	0	0	324	409	
14	0	0	0	0	323	409	
15	0	0	0	0	323	409	
0	0	0	0	0	323	409	
1	0	0	0	0	326	408	
2	0	0	0	0	330	408	
3	0	0	0	0	336	408	
4	0	0	0	0	341	409	
5	0	0	0	0	345	409	
6	0	0	0	0	347	409	
7	0	0	0	0	348	409	
8	0	0	0	0	345	409	
9	0	0	0	0	341	409	
10	0	0	0	0	335	409	
11	0	0	0	0	328	409	
12	0	0	0	0	321	409	
13	0	0	0	0	315	409	
14	0	0	0	0	309	408	
15	0	0	0	0	304	409	
0	0	0	0	0	301	409	
1	0	0	0	0	299	409	
2	0	0	0	0	299	408	
3	0	0	0	0	299	408	
4	0	0	0	0	299	409	
5	0	0	0	0	301	408	
6	0	0	0	0	305	408	
7	0	0	0	0	311	409	
8	0	0	0	0	317	409	
9	0	0	0	0	322	408	
10	0	0	0	0	326	409	
11	0	0	0	0	329	408	
12	0	0	0	0	330	409	
13	0	0	0	0	329	408	
14	0	0	0	0	325	409	
15	0	0	0	0	319	409	
0	0	0	0	0	311	409	
1	0	0	0	0	304	409	
2	0	0	0	0	298	408	
3	0	0	0	0	293	409	
4	0	0	0	0	289	409	
5	0	0	0	0	287	409	
6	0	0	0	0	289	408	
7	0	0	0	0	292	408	
8	0	0	0	0	295	409	
9	0	0	0	0	299	409	
10	0	0	0	0	306	409	
11	0	0	0	0	314	409	
12	0	0	0	0	322	410	
13	0	0	0	0	330	409	
14	0	0	0	0	335	410	
15	0	0	0	0	340	409	
0	0	0	0	0	343	410	
1	0	0	0	0	343	409	
2	0	0	0	0	340	409	
3	0	0	0	0	337	410	
4	0	0	0	0	333	410	
5	0	0	0	0	328	409	
6	0	0	0	0	325	409	
7	0	0	0	0	322	410	
8	0	0	0	0	321	410	
9	0	0	0	0	322	410	
10	0	0	0	0	323	410	
11	0	0	0	0	325	409	
12	0	0	0	0	328	410	
13	0	0	0	0	333	409	
14	0	0	0	0	342	409	
15	0	0	0	0	351	409	
0	0	0	0	0	361	409	
1	0	0	0	0	370	410	
2	0	0	0	0	379	409	
3	0	0	0	0	385	409	
4	0	0	0	0	390	411	
5	0	0	0	0	391	410	
6	0	0	0	0	391	410	
7	0	0	0	0	389	410	
8	0	0	0	0	385	410	
9	0	0	0	0	383	409	
10	0	0	0	0	382	409	
11	0	0	0	0	381	410	
12	0	0	0	0	380	410	
13	0	0	0	0	381	409	
14	0	0	0	0	383	409	
15	0	0	0	0	386	409	
0	0	0	0	0	390	409	
1	0	0	0	0	395	409	
2	0	0	0	0	401	409	
3	0	0	0	0	411	409	
4	0	0	0	0	422	410	
5	0	0	0	0	432	409	
6	0	0	0	0	440	409	
7	0	0	0	0	447	409	
8	0	0	0	0	452	410	
9	0	0	0	0	453	409	
10	0	0	0	0	454	410	
11	0	0	0	0	451	409	
12	0	0	0	0	448	410	
13	0	0	0	0	444	409	
14	0	0	0	0	441	409	
15	0	0	0	0	439	410	
0	0	0	0	0	438	410	
1	0	0	0	0	438	409	
2	0	0	0	0	440	409	
3	0	0	0	0	443	409	
4	0	0	0	0	447	411	
5	0	0	0	0	453	409	
6	0	0	0	0	460	410	
7	0	0	0	0	469	410	
8	0	0	0	0	478	411	
9	0	0	0	0	486	410	
10	0	0	0	0	492	409	
11	0	0	0	0	495	409	
12	0	0	0	0	495	410	
13	0	0	0	0	491	409	
14	0	0	0	0	485	410	
15	0	0	0	0	477	409	
0	0	0	0	0	467	410	
1	0	0	0	0	459	410	
2	0	0	0	0	452	410	
3	0	0	0	0	446	410	
4	0	0	0	0	441	411	
5	0	0	0	0	439	411	
6	0	0	0	0	437	411	
7	0	0	0	0	436	410	
8	0	0	0	0	436	411	
9	0	0	0	0	438	410	
10	0	0	0	0	443	410	
11	0	0	0	0	451	410	
12	0	0	0	0	460	411	
13	0	0	0	0	468	410	
14	0	0	0	0	473	410	
15	0	0	0	0	479	410	
0	0	0	0	0	483	411	
1	0	0	0	0	484	410	
2	0	0	0	0	483	411	
3	0	0	0	0	478	410	
4	0	0	0	0	473	411	
5	0	0	0	0	468	410	
6	0	0	0	0	465	410	
7	0	0	0	0	464	410	
8	0	0	0	0	463	411	
9	0	0	0	0	462	409	
10	0	0	0	0	461	410	
11	0	0	0	0	461	409	
12	0	0	0	0	464	410	
13	0	0	0	0	467	410	
14	0	0	0	0	474	410	
15	0	0	0	0	481	410	
0	0	0	0	0	489	410	
1	0	0	0	0	496	410	
2	0	0	0	0	502	410	
3	0	0	0	0	505	409	
4	0	0	0	0	507	410	
5	0	0	0	0	506	409	
6	0	0	0	0	504	409	
7	0	0	0	0	500	409	
8	0	0	0	0	496	409	
9	0	0	0	0	492	410	
10	0	0	0	0	489	409	
11	0	0	0	0	487	410	
12	0	0	0	0	486	411	
13	0	0	0	0	485	411	
14	0	0	0	0	485	409	
15	0	0	0	0	486	409	
0	0	0	0	0	487	410	
1	0	0	0	0	489	409	
2	0	0	0	0	493	409	
3	0	0	0	0	499	409	
4	0	0	0	0	505	411	
5	0	0	0	0	511	409	
6	0	0	0	0	515	409	
7	0	0	0	0	519	409	
8	0	0	0	0	520	409	
9	0	0	0	0	519	409	
10	0	0	0	0	519	409	
11	0	0	0	0	518	408	
12	0	0	0	0	516	409	
13	0	0	0	0	513	409	
14	0	0	0	0	512	408	
15	0	0	0	0	513	409	
0	0	0	0	0	514	409	
1	0	0	0	0	517	408	
2	0	0	0	0	521	409	
3	0	0	0	0	527	409	
4	0	0	0	0	535	410	
5	0	0	0	0	545	410	
6	0	0	0	0	555	409	
7	0	0	0	0	568	409	
8	0	0	0	0	581	409	
9	0	0	0	0	593	409	
10	0	0	0	0	602	409	
11	0	0	0	0	611	409	
12	0	0	0	0	616	410	
13	0	0	0	0	619	409	
14	0	0	0	0	620	410	
15	0	0	0	0	620	410	
0	0	0	0	0	620	409	
1	0	0	0	0	620	409	
2	0	0	0	0	621	409	
3	0	0	0	0	623	409	
4	0	0	0	0	625	410	
5	0	0	0	0	627	409	
6	0	0	0	0	632	409	
7	0	0	0	0	638	409	
8	0	0	0	0	645	409	
9	0	0	0	0	652	409	
10	0	0	0	0	661	409	
11	0	0	0	0	670	409	
12	0	0	0	0	678	409	
13	0	0	0	0	685	409	
14	0	0	0	0	690	408	
15	0	0	0	0	693	408	
0	0	0	0	0	694	408	
1	0	0	0	0	692	409	
2	0	0	0	0	690	408	
3	0	0	0	0	686	409	
4	0	0	0	0	682	410	
5	0	0	0	0	678	409	
6	0	0	0	0	674	409	
7	0	0	0	0	672	409	
8	0	0	0	0	671	409	
9	0	0	0	0	671	409	
10	0	0	0	0	672	409	
11	0	0	0	0	674	408	
12	0	0	0	0	677	409	
13	0	0	0	0	682	408	
14	0	0	0	0	690	408	
15	0	0	0	0	700	408	
0	0	0	0	0	710	407	
1	0	0	0	0	719	407	
2	0	0	0	0	725	407	
3	0	0	0	0	730	407	
4	0	0	0	0	732	407	
5	0	0	0	0	732	407	
6	0	0	0	0	730	407	
7	0	0	0	0	728	407	
8	0	0	0	0	726	407	
9	0	0	0	0	724	407	
10	0	0	0	0	723	408	
11	0	0	0	0	724	408	
12	0	0	0	0	727	409	
13	0	0	0	0	731	408	
14	0	0	0	0	734	409	
15	0	0	0	0	739	409	
0	0	0	0	0	743	409	
1	0	0	0	0	749	409	
2	0	0	0	0	757	409	
3	0	0	0	0	766	409	
4	0	0	0	0	775	409	
5	0	0	0	0	784	409	
6	0	0	0	0	791	409	
7	0	0	0	0	796	409	
8	0	0	0	0	798	409	
9	0	0	0	0	797	409	
10	0	0	0	0	796	409	
11	0	0	0	0	792	409	
12	0	0	0	0	787	409	
13	0	0	0	0	783	408	
14	0	0	0	0	780	408	
15	0	0	0	0	778	409	
0	0	0	0	0	776	409	
1	0	0	0	0	775	409	
2	0	0	0	0	775	409	
3	0	0	0	0	775	409	
4	0	0	0	0	776	409	
5	0	0	0	0	778	409	
6	0	0	0	0	784	409	
7	0	0	0	0	792	409	
8	0	0	0	0	800	408	
9	0	0	0	0	807	408	
10	0	0	0	0	812	408	
11	0	0	0	0	815	408	
12	0	0	0	0	816	409	
13	0	0	0	0	814	408	
14	0	0	0	0	810	408	
15	0	0	0	0	807	408	
0	0	0	0	0	804	408	
1	0	0	0	0	800	408	
2	0	0	0	0	798	408	
3	0	0	0	0	797	407	
4	0	0	0	0	795	408	
5	0	0	0	0	794	408	
6	0	0	0	0	794	407	
7	0	0	0	0	793	408	
8	0	0	0	0	793	408	
9	0	0	0	0	792	407	
10	0	0	0	0	795	407	
11	0	0	0	0	799	407	
12	0	0	0	0	803	408	
13	0	0	0	0	807	407	
14	0	0	0	0	809	407	
15	0	0	0	0	810	407	
0	0	0	0	0	809	408	
1	0	0	0	0	804	407	
2	0	0	0	0	799	407	
3	0	0	0	0	792	407	
4	0	0	0	0	786	408	
5	0	0	0	0	779	406	
6	0	0	0	0	773	408	
7	0	0	0	0	768	408	
8	0	0	0	0	764	408	
9	0	0	0	0	761	408	
10	0	0	0	0	760	408	
11	0	0	0	0	759	408	
12	0	0	0	0	760	408	
13	0	0	0	0	761	408	
14	0	0	0	0	765	407	
15	0	0	0	0	772	407	
0	0	0	0	0	778	408	
1	0	0	0	0	783	408	
2	0	0	0	0	787	408	
3	0	0	0	0	789	407	
4	0	0	0	0	790	408	
5	0	0	0	0	787	407	
6	0	0	0	0	784	407	
7	0	0	0	0	780	408	
8	0	0	0	0	776	407	
9	0	0	0	0	771	407	
10	0	0	0	0	768	407	
11	0	0	0	0	766	408	
12	0	0	0	0	764	408	
13	0	0	0	0	764	407	
14	0	0	0	0	764	408	
15	0	0	0	0	765	407	
0	0	0	0	0	768	408	
1	0	0	0	0	770	408	
2	0	0	0	0	776	407	
3	0	0	0	0	783	407	
4	0	0	0	0	792	408	
5	0	0	0	0	799	407	
6	0	0	0	0	804	407	
7	0	0	0	0	807	407	
8	0	0	0	0	807	408	
9	0	0	0	0	805	407	
10	0	0	0	0	801	407	
11	0	0	0	0	795	407	
12	0	0	0	0	789	408	
13	0	0	0	0	784	407	
14	0	0	0	0	779	407	
15	0	0	0	0	775	407	
0	0	0	0	0	771	407	
1	0	0	0	0	768	407	
2	0	0	0	0	767	407	
3	0	0	0	0	767	406	
4	0	0	0	0	769	407	
5	0	0	0	0	772	408	
6	0	0	0	0	778	407	
7	0	0	0	0	786	407	
8	0	0	0	0	794	407	
9	0	0	0	0	801	406	
10	0	0	0	0	805	407	
11	0	0	0	0	807	407	
12	0	0	0	0	806	407	
13	0	0	0	0	801	407	
14	0	0	0	0	795	406	
15	0	0	0	0	787	407	
0	0	0	0	0	778	407	
1	0	0	0	0	770	407	
2	0	0	0	0	763	407	
3	0	0	0	0	759	407	
4	0	0	0	0	755	408	
5	0	0	0	0	752	407	
6	0	0	0	0	751	407	
7	0	0	0	0	752	408	
8	0	0	0	0	755	408	
9	0	0	0	0	757	408	
10	0	0	0	0	762	407	
11	0	0	0	0	768	408	
12	0	0	0	0	773	408	
13	0	0	0	0	778	408	
14	0	0	0	0	782	408	
15	0	0	0	0	784	408	
0	0	0	0	0	782	408	
1	0	0	0	0	779	408	
2	0	0	0	0	772	408	
3	0	0	0	0	764	408	
4	0	0	0	0	756	409	
5	0	0	0	0	748	408	
6	0	0	0	0	741	409	
7	0	0	0	0	736	408	
8	0	0	0	0	732	409	
9	0	0	0	0	729	408	
10	0	0	0	0	728	408	
11	0	0	0	0	727	408	
12	0	0	0	0	728	409	
13	0	0	0	0	731	409	
14	0	0	0	0	737	409	
15	0	0	0	0	744	408	
0	0	0	0	0	752	409	
1	0	0	0	0	758	408	
2	0	0	0	0	762	409	
3	0	0	0	0	764	408	
4	0	0	0	0	763	409	
5	0	0	0	0	759	408	
6	0	0	0	0	754	408	
7	0	0	0	0	747	408	
8	0	0	0	0	740	409	
9	0	0	0	0	733	408	
10	0	0	0	0	726	409	
11	0	0	0	0	721	408	
12	0	0	0	0	717	409	
13	0	0	0	0	713	408	
14	0	0	0	0	712	408	
15	0	0	0	0	712	408	
0	0	0	0	0	713	409	
1	0	0	0	0	715	408	
2	0	0	0	0	720	409	
3	0	0	0	0	727	409	
4	0	0	0	0	735	409	
5	0	0	0	0	742	408	
6	0	0	0	0	747	408	
7	0	0	0	0	752	408	
8	0	0	0	0	754	408	
9	0	0	0	0	753	408	
10	0	0	0	0	752	408	
11	0	0	0	0	748	408	
12	0	0	0	0	743	408	
13	0	0	0	0	739	408	
14	0	0	0	0	736	409	
15	0	0	0	0	734	408	
0	0	0	0	0	732	409	
1	0	0	0	0	732	409	
2	0	0	0	0	732	409	
3	0	0	0	0	734	408	
4	0	0	0	0	736	409	
5	0	0	0	0	738	409	
6	0	0	0	0	743	409	
7	0	0	0	0	750	409	
8	0	0	0	0	756	410	
9	0	0	0	0	760	409	
10	0	0	0	0	762	409	
11	0	0	0	0	764	408	
12	0	0	0	0	763	410	
13	0	0	0	0	760	409	
14	0	0	0	0	754	409	
15	0	0	0	0	747	409	
0	0	0	0	0	740	409	
1	0	0	0	0	733	409	
2	0	0	0	0	727	409	
3	0	0	0	0	723	409	
4	0	0	0	0	721	410	
5	0	0	0	0	720	409	
6	0	0	0	0	719	409	
7	0	0	0	0	719	409	
8	0	0	0	0	720	410	
9	0	0	0	0	722	410	
10	0	0	0	0	727	409	
11	0	0	0	0	734	410	
12	0	0	0	0	740	409	
13	0	0	0	0	744	410	
14	0	0	0	0	747	409	
15	0	0	0	0	748	410	
0	0	0	0	0	748	409	
1	0	0	0	0	743	409	
2	0	0	0	0	738	409	
3	0	0	0	0	732	409	
4	0	0	0	0	725	411	
5	0	0	0	0	718	409	
6	0	0	0	0	712	409	
7	0	0	0	0	709	409	
8	0	0	0	0	706	409	
9	0	0	0	0	703	409	
10	0	0	0	0	702	410	
11	0	0	0	0	701	409	
12	0	0	0	0	702	410	
13	0	0	0	0	704	409	
14	0	0	0	0	708	409	
15	0	0	0	0	715	408	
0	0	0	0	0	721	408	
1	0	0	0	0	726	409	
2	0	0	0	0	728	409	
3	0	0	0	0	728	408	
4	0	0	0	0	727	409	
5	0	0	0	0	722	408	
6	0	0	0	0	717	409	
7	0	0	0	0	710	408	
8	0	0	0	0	701	409	
9	0	0	0	0	692	408	
10	0	0	0	0	685	408	
11	0	0	0	0	678	409	
12	0	0	0	0	672	409	
13	0	0	0	0	668	408	
14	0	0	0	0	665	408	
15	0	0	0	0	662	408	
0	0	0	0	0	659	408	
1	0	0	0	0	656	408	
2	0	0	0	0	654	409	
3	0	0	0	0	654	408	
4	0	0	0	0	652	408	
5	0	0	0	0	647	408	
6	0	0	0	0	640	408	
7	0	0	0	0	632	408	
8	0	0	0	0	622	409	
9	0	0	0	0	610	408	
10	0	0	0	0	598	408	
11	0	0	0	0	584	408	
12	0	0	0	0	571	409	
13	0	0	0	0	559	408	
14	0	0	0	0	546	408	
15	0	0	0	0	535	408	
0	0	0	0	0	526	409	
1	0	0	0	0	518	408	
2	0	0	0	0	512	408	
3	0	0	0	0	508	408	
4	0	0	0	0	505	409	
5	0	0	0	0	503	409	
6	0	0	0	0	503	408	
7	0	0	0	0	504	409	
8	0	0	0	0	506	408	
9	0	0	0	0	507	408	
10	0	0	0	0	507	408	
11	0	0	0	0	505	408	
12	0	0	0	0	501	408	
13	0	0	0	0	494	408	
14	0	0	0	0	487	407	
15	0	0	0	0	478	408	
0	0	0	0	0	467	408	
1	0	0	0	0	456	408	
2	0	0	0	0	446	408	
3	0	0	0	0	438	408	
4	0	0	0	0	431	408	
5	0	0	0	0	425	407	
6	0	0	0	0	422	407	
7	0	0	0	0	421	407	
8	0	0	0	0	421	408	
9	0	0	0	0	424	407	
10	0	0	0	0	431	408	
11	0	0	0	0	439	407	
12	0	0	0	0	448	407	
13	0	0	0	0	454	407	
14	0	0	0	0	460	407	
15	0	0	0	0	465	408	
0	0	0	0	0	467	407	
1	0	0	0	0	468	408	
2	0	0	0	0	467	408	
3	0	0	0	0	467	407	
4	0	0	0	0	465	407	
5	0	0	0	0	463	407	
6	0	0	0	0	463	407	
7	0	0	0	0	463	407	
8	0	0	0	0	466	408	
9	0	0	0	0	471	407	
10	0	0	0	0	477	407	
11	0	0	0	0	485	407	
12	0	0	0	0	494	408	
13	0	0	0	0	504	407	
14	0	0	0	0	516	407	
15	0	0	0	0	530	408	
0	0	0	0	0	545	407	
1	0	0	0	0	557	407	
2	0	0	0	0	568	407	
3	0	0	0	0	575	407	
4	0	0	0	0	580	408	
5	0	0	0	0	583	407	
6	0	0	0	0	583	407	
7	0	0	0	0	579	408	
8	0	0	0	0	572	408	
9	0	0	0	0	565	408	
10	0	0	0	0	557	408	
11	0	0	0	0	551	408	
12	0	0	0	0	545	408	
13	0	0	0	0	542	408	
14	0	0	0	0	540	409	
15	0	0	0	0	540	407	
0	0	0	0	0	539	409	
1	0	0	0	0	540	408	
2	0	0	0	0	542	408	
3	0	0	0	0	545	408	
4	0	0	0	0	550	409	
5	0	0	0	0	553	408	
6	0	0	0	0	555	408	
7	0	0	0	0	556	409	
8	0	0	0	0	553	409	
9	0	0	0	0	547	408	
10	0	0	0	0	541	409	
11	0	0	0	0	533	409	
12	0	0	0	0	525	408	
13	0	0	0	0	518	408	
14	0	0	0	0	511	408	
15	0	0	0	0	506	408	
0	0	0	0	0	503	409	
1	0	0	0	0	500	408	
2	0	0	0	0	499	408	
3	0	0	0	0	498	409	
4	0	0	0	0	499	409	
5	0	0	0	0	502	408	
6	0	0	0	0	508	408	
7	0	0	0	0	515	408	
8	0	0	0	0	523	407	
9	0	0	0	0	529	408	
10	0	0	0	0	533	408	
11	0	0	0	0	536	408	
12	0	0	0	0	536	408	
13	0	0	0	0	534	407	
14	0	0	0	0	530	407	
15	0	0	0	0	525	408	
0	0	0	0	0	518	408	
1	0	0	0	0	513	407	
2	0	0	0	0	508	408	
3	0	0	0	0	506	408	
4	0	0	0	0	505	408	
5	0	0	0	0	504	407	
6	0	0	0	0	506	408	
7	0	0	0	0	508	407	
8	0	0	0	0	511	408	
9	0	0	0	0	515	408	
10	0	0	0	0	521	407	
11	0	0	0	0	528	407	
12	0	0	0	0	536	409	
13	0	0	0	0	542	408	
14	0	0	0	0	547	408	
15	0	0	0	0	553	408	
0	0	0	0	0	556	408	
1	0	0	0	0	558	408	
2	0	0	0	0	561	409	
3	0	0	0	0	562	408	
4	0	0	0	0	564	409	
5	0	0	0	0	568	409	
6	0	0	0	0	571	408	
7	0	0	0	0	575	409	
8	0	0	0	0	581	410	
9	0	0	0	0	588	409	
10	0	0	0	0	596	410	
11	0	0	0	0	606	410	
12	0	0	0	0	617	410	
13	0	0	0	0	630	410	
14	0	0	0	0	644	410	
15	0	0	0	0	660	410	
0	0	0	0	0	677	410	
1	0	0	0	0	692	410	
2	0	0	0	0	705	410	
3	0	0	0	0	717	410	
4	0	0	0	0	726	411	
5	0	0	0	0	732	410	
6	0	0	0	0	736	411	
7	0	0	0	0	737	410	
8	0	0	0	0	738	411	
9	0	0	0	0	739	410	
10	0	0	0	0	741	410	
11	0	0	0	0	744	410	
12	0	0	0	0	748	411	
13	0	0	0	0	752	410	
14	0	0	0	0	758	410	
15	0	0	0	0	765	410	
0	0	0	0	0	773	410	
1	0	0	0	0	781	410	
2	0	0	0	0	792	410	
3	0	0	0	0	806	411	
4	0	0	0	0	820	411	
5	0	0	0	0	833	411	
6	0	0	0	0	844	410	
7	0	0	0	0	854	409	
8	0	0	0	0	862	410	
9	0	0	0	0	865	410	
10	0	0	0	0	866	410	
11	0	0	0	0	865	410	
12	0	0	0	0	863	411	
13	0	0	0	0	861	409	
14	0	0	0	0	860	409	
15	0	0	0	0	860	410	
0	0	0	0	0	859	410	
1	0	0	0	0	859	409	
2	0	0	0	0	859	410	
3	0	0	0	0	861	409	
4	0	0	0	0	864	411	
5	0	0	0	0	868	409	
6	0	0	0	0	876	409	
7	0	0	0	0	884	409	
8	0	0	0	0	893	410	
9	0	0	0	0	901	410	
10	0	0	0	0	906	410	
11	0	0	0	0	912	410	
12	0	0	0	0	915	411	
13	0	0	0	0	916	411	
14	0	0	0	0	915	411	
15	0	0	0	0	910	411	
0	0	0	0	0	906	412	
1	0	0	0	0	901	411	
2	0	0	0	0	897	411	
3	0	0	0	0	896	412	
4	0	0	0	0	895	412	
5	0	0	0	0	895	411	
6	0	0	0	0	896	411	
7	0	0	0	0	898	412	
8	0	0	0	0	902	412	
9	0	0	0	0	908	411	
10	0	0	0	0	918	411	
11	0	0	0	0	928	412	
12	0	0	0	0	939	412	
13	0	0	0	0	948	412	
14	0	0	0	0	956	412	
15	0	0	0	0	961	412	
0	0	0	0	0	964	412	
1	0	0	0	0	963	412	
2	0	0	0	0	961	412	
3	0	0	0	0	958	412	
4	0	0	0	0	953	412	
5	0	0	0	0	948	412	
6	0	0	0	0	943	412	
7	0	0	0	0	940	412	
8	0	0	0	0	937	412	
9	0	0	0	0	935	412	
10	0	0	0	0	935	411	
11	0	0	0	0	935	411	
12	0	0	0	0	936	413	
13	0	0	0	0	937	411	
14	0	0	0	0	942	412	
15	0	0	0	0	948	411	
0	0	0	0	0	955	411	
1	0	0	0	0	962	411	
2	0	0	0	0	967	411	
3	0	0	0	0	970	410	
4	0	0	0	0	971	411	
5	0	0	0	0	969	410	
6	0	0	0	0	966	410	
7	0	0	0	0	961	410	
8	0	0	0	0	956	411	
9	0	0	0	0	951	410	
10	0	0	0	0	947	410	
11	0	0	0	0	945	410	
12	0	0	0	0	943	411	
13	0	0	0	0	943	409	
14	0	0	0	0	944	409	
15	0	0	0	0	945	409	
0	0	0	0	0	948	409	
1	0	0	0	0	951	409	
2	0	0	0	0	956	408	
3	0	0	0	0	964	409	
4	0	0	0	0	972	409	
5	0	0	0	0	980	409	
6	0	0	0	0	984	408	
7	0	0	0	0	987	408	
8	0	0	0	0	988	409	
9	0	0	0	0	986	408	
10	0	0	0	0	982	408	
11	0	0	0	0	976	407	
12	0	0	0	0	969	408	
13	0	0	0	0	964	407	
14	0	0	0	0	958	407	
15	0	0	0	0	955	407	
0	0	0	0	0	952	408	
1	0	0	0	0	950	406	
2	0	0	0	0	949	406	
3	0	0	0	0	949	407	
4	0	0	0	0	949	407	
5	0	0	0	0	950	406	
6	0	0	0	0	952	406	
7	0	0	0	0	957	406	
8	0	0	0	0	961	406	
9	0	0	0	0	964	406	
10	0	0	0	0	966	406	
11	0	0	0	0	966	406	
12	0	0	0	0	963	407	
13	0	0	0	0	957	406	
14	0	0	0	0	952	406	
15	0	0	0	0	943	406	
0	0	0	0	0	933	406	
1	0	0	0	0	924	405	
2	0	0	0	0	916	405	
3	0	0	0	0	910	405	
4	0	0	0	0	905	405	
5	0	0	0	0	901	405	
6	0	0	0	0	897	405	
7	0	0	0	0	896	405	
8	0	0	0	0	896	406	
9	0	0	0	0	897	405	
10	0	0	0	0	900	404	
11	0	0	0	0	904	404	
12	0	0	0	0	908	405	
13	0	0	0	0	910	404	
14	0	0	0	0	911	404	
15	0	0	0	0	912	404	
0	0	0	0	0	910	405	
1	0	0	0	0	905	404	
2	0	0	0	0	900	404	
3	0	0	0	0	893	404	
4	0	0	0	0	885	405	
5	0	0	0	0	878	404	
6	0	0	0	0	873	404	
7	0	0	0	0	868	404	
8	0	0	0	0	865	404	
9	0	0	0	0	863	404	
10	0	0	0	0	863	404	
11	0	0	0	0	863	404	
12	0	0	0	0	865	404	
13	0	0	0	0	867	403	
14	0	0	0	0	873	403	
15	0	0	0	0	881	403	
0	0	0	0	0	888	405	
1	0	0	0	0	894	403	
2	0	0	0	0	896	403	
3	0	0	0	0	896	403	
4	0	0	0	0	894	405	
5	0	0	0	0	890	404	
6	0	0	0	0	885	404	
7	0	0	0	0	877	404	
8	0	0	0	0	870	403	
9	0	0	0	0	864	403	
10	0	0	0	0	859	403	
11	0	0	0	0	856	403	
12	0	0	0	0	853	403	
13	0	0	0	0	852	403	
14	0	0	0	0	851	403	
15	0	0	0	0	851	403	
0	0	0	0	0	853	403	
1	0	0	0	0	856	403	
2	0	0	0	0	863	403	
3	0	0	0	0	871	403	
4	0	0	0	0	879	403	
5	0	0	0	0	884	403	
6	0	0	0	0	886	403	
7	0	0	0	0	886	403	
8	0	0	0	0	884	403	
9	0	0	0	0	879	403	
10	0	0	0	0	873	403	
11	0	0	0	0	866	403	
12	0	0	0	0	858	403	
13	0	0	0	0	851	403	
14	0	0	0	0	844	403	
15	0	0	0	0	838	403	
0	0	0	0	0	832	403	
1	0	0	0	0	826	403	
2	0	0	0	0	823	403	
3	0	0	0	0	820	403	
4	0	0	0	0	820	404	
5	0	0	0	0	819	403	
6	0	0	0	0	822	404	
7	0	0	0	0	828	404	
8	0	0	0	0	833	404	
9	0	0	0	0	837	404	
10	0	0	0	0	839	404	
11	0	0	0	0	840	403	
12	0	0	0	0	838	405	
13	0	0	0	0	833	404	
14	0	0	0	0	827	405	
15	0	0	0	0	819	405	
0	0	0	0	0	811	406	
1	0	0	0	0	803	405	
2	0	0	0	0	796	405	
3	0	0	0	0	790	406	
4	0	0	0	0	784	406	
5	0	0	0	0	779	406	
6	0	0	0	0	775	406	
7	0	0	0	0	771	406	
8	0	0	0	0	769	407	
9	0	0	0	0	768	407	
10	0	0	0	0	769	407	
11	0	0	0	0	771	406	
12	0	0	0	0	772	407	
13	0	0	0	0	774	407	
14	0	0	0	0	774	407	
15	0	0	0	0	773	407	
0	0	0	0	0	769	408	
1	0	0	0	0	762	407	
2	0	0	0	0	754	407	
3	0	0	0	0	746	407	
4	0	0	0	0	737	408	
5	0	0	0	0	727	408	
6	0	0	0	0	717	408	
7	0	0	0	0	708	408	
8	0	0	0	0	700	409	
9	0	0	0	0	694	408	
10	0	0	0	0	690	408	
11	0	0	0	0	685	408	
12	0	0	0	0	682	409	
13	0	0	0	0	679	409	
14	0	0	0	0	680	408	
15	0	0	0	0	683	409	
0	0	0	0	0	684	409	
1	0	0	0	0	685	409	
2	0	0	0	0	684	409	
3	0	0	0	0	683	409	
4	0	0	0	0	679	410	
5	0	0	0	0	672	409	
6	0	0	0	0	664	409	
7	0	0	0	0	652	409	
8	0	0	0	0	641	409	
9	0	0	0	0	632	409	
10	0	0	0	0	623	409	
11	0	0	0	0	616	409	
12	0	0	0	0	609	410	
13	0	0	0	0	603	409	
14	0	0	0	0	599	409	
15	0	0	0	0	596	409	
0	0	0	0	0	593	410	
1	0	0	0	0	591	410	
2	0	0	0	0	592	409	
3	0	0	0	0	595	409	
4	0	0	0	0	598	410	
5	0	0	0	0	600	409	
6	0	0	0	0	600	410	
7	0	0	0	0	600	410	
8	0	0	0	0	597	411	
9	0	0	0	0	592	410	
10	0	0	0	0	585	410	
11	0	0	0	0	577	410	
12	0	0	0	0	570	410	
13	0	0	0	0	563	411	
14	0	0	0	0	555	409	
15	0	0	0	0	550	410	
0	0	0	0	0	544	411	
1	0	0	0	0	541	411	
2	0	0	0	0	538	411	
3	0	0	0	0	537	411	
4	0	0	0	0	536	412	
5	0	0	0	0	537	411	
6	0	0	0	0	542	411	
7	0	0	0	0	547	411	
8	0	0	0	0	552	411	
9	0	0	0	0	556	412	
10	0	0	0	0	558	411	
11	0	0	0	0	559	411	
12	0	0	0	0	558	412	
13	0	0	0	0	552	411	
14	0	0	0	0	547	412	
15	0	0	0	0	540	412	
0	0	0	0	0	532	412	
1	0	0	0	0	524	411	
2	0	0	0	0	517	411	
3	0	0	0	0	513	411	
4	0	0	0	0	509	412	
5	0	0	0	0	506	412	
6	0	0	0	0	504	411	
7	0	0	0	0	503	412	
8	0	0	0	0	504	412	
9	0	0	0	0	505	412	
10	0	0	0	0	510	412	
11	0	0	0	0	517	411	
12	0	0	0	0	523	412	
13	0	0	0	0	528	411	
14	0	0	0	0	531	412	
15	0	0	0	0	534	412	
0	0	0	0	0	534	411	
1	0	0	0	0	531	412	
2	0	0	0	0	527	412	
3	0	0	0	0	521	412	
4	0	0	0	0	514	412	
5	0	0	0	0	507	412	
6	0	0	0	0	500	411	
7	0	0	0	0	496	412	
8	0	0	0	0	492	412	
9	0	0	0	0	489	412	
10	0	0	0	0	488	412	
11	0	0	0	0	487	411	
12	0	0	0	0	487	412	
13	0	0	0	0	489	411	
14	0	0	0	0	493	411	
15	0	0	0	0	499	412	
0	0	0	0	0	505	412	
1	0	0	0	0	512	411	
2	0	0	0	0	516	411	
3	0	0	0	0	519	412	
4	0	0	0	0	520	412	
5	0	0	0	0	519	412	
6	0	0	0	0	515	411	
7	0	0	0	0	510	411	
8	0	0	0	0	504	411	
9	0	0	0	0	497	411	
10	0	0	0	0	492	411	
11	0	0	0	0	487	411	
12	0	0	0	0	484	411	
13	0	0	0	0	482	410	
14	0	0	0	0	480	411	
15	0	0	0	0	480	411	
0	0	0	0	0	479	411	
1	0	0	0	0	480	410	
2	0	0	0	0	483	411	
3	0	0	0	0	488	410	
4	0	0	0	0	494	411	
5	0	0	0	0	497	410	
6	0	0	0	0	498	410	
7	0	0	0	0	497	409	
8	0	0	0	0	494	409	
9	0	0	0	0	487	409	
10	0	0	0	0	480	410	
11	0	0	0	0	472	410	
12	0	0	0	0	463	411	
13	0	0	0	0	454	409	
14	0	0	0	0	447	409	
15	0	0	0	0	441	409	
0	0	0	0	0	435	409	
1	0	0	0	0	430	410	
2	0	0	0	0	427	409	
3	0	0	0	0	425	408	
4	0	0	0	0	424	410	
5	0	0	0	0	425	408	
6	0	0	0	0	428	409	
7	0	0	0	0	433	409	
8	0	0	0	0	437	409	
9	0	0	0	0	440	408	
10	0	0	0	0	441	409	
11	0	0	0	0	442	409	
12	0	0	0	0	439	410	
13	0	0	0	0	433	409	
14	0	0	0	0	425	409	
15	0	0	0	0	417	409	
0	0	0	0	0	409	409	
1	0	0	0	0	401	409	
2	0	0	0	0	394	408	
3	0	0	0	0	389	409	
4	0	0	0	0	385	410	
5	0	0	0	0	383	408	
6	0	0	0	0	382	408	
7	0	0	0	0	381	408	
8	0	0	0	0	380	409	
9	0	0	0	0	382	409	
10	0	0	0	0	388	408	
11	0	0	0	0	395	408	
12	0	0	0	0	401	409	
13	0	0	0	0	406	408	
14	0	0	0	0	408	408	
15	0	0	0	0	408	408	
0	0	0	0	0	406	409	
1	0	0	0	0	400	408	
2	0	0	0	0	392	409	
3	0	0	0	0	384	409	
4	0	0	0	0	373	409	
5	0	0	0	0	364	409	
6	0	0	0	0	356	408	
7	0	0	0	0	350	408	
8	0	0	0	0	345	408	
9	0	0	0	0	341	408	
10	0	0	0	0	337	408	
11	0	0	0	0	334	408	
12	0	0	0	0	332	409	
13	0	0	0	0	331	408	
14	0	0	0	0	334	409	
15	0	0	0	0	338	409	
0	0	0	0	0	343	408	
1	0	0	0	0	345	408	
2	0	0	0	0	346	408	
3	0	0	0	0	347	408	
4	0	0	0	0	345	408	
5	0	0	0	0	340	408	
6	0	0	0	0	334	408	
7	0	0	0	0	326	408	
8	0	0	0	0	316	408	
9	0	0	0	0	307	408	
10	0	0	0	0	298	408	
11	0	0	0	0	291	408	
12	0	0	0	0	284	408	
13	0	0	0	0	280	408	
14	0	0	0	0	277	409	
15	0	0	0	0	275	408	
0	0	0	0	0	275	408	
1	0	0	0	0	277	408	
2	0	0	0	0	281	408	
3	0	0	0	0	288	408	
4	0	0	0	0	294	409	
5	0	0	0	0	298	408	
6	0	0	0	0	302	408	
7	0	0	0	0	302	408	
8	0	0	0	0	300	408	
9	0	0	0	0	295	408	
10	0	0	0	0	289	408	
11	0	0	0	0	282	408	
12	0	0	0	0	276	409	
13	0	0	0	0	272	408	
14	0	0	0	0	270	409	
15	0	0	0	0	268	408	
0	0	0	0	0	267	408	
1	0	0	0	0	266	408	
2	0	0	0	0	268	408	
3	0	0	0	0	270	408	
4	0	0	0	0	271	408	
5	0	0	0	0	274	408	
6	0	0	0	0	279	408	
7	0	0	0	0	285	408	
8	0	0	0	0	292	408	
9	0	0	0	0	298	408	
10	0	0	0	0	302	407	
11	0	0	0	0	305	407	
12	0	0	0	0	306	408	
13	0	0	0	0	304	407	
14	0	0	0	0	300	407	
15	0	0	0	0	294	408	
0	0	0	0	0	287	407	
1	0	0	0	0	280	408	
2	0	0	0	0	274	407	
3	0	0	0	0	271	407	
4	0	0	0	0	268	407	
5	0	0	0	0	266	407	
6	0	0	0	0	265	407	
7	0	0	0	0	267	407	
8	0	0	0	0	269	407	
9	0	0	0	0	274	407	
10	0	0	0	0	281	406	
11	0	0	0	0	290	406	
12	0	0	0	0	299	407	
13	0	0	0	0	307	406	
14	0	0	0	0	313	407	
15	0	0	0	0	318	406	
0	0	0	0	0	319	407	
1	0	0	0	0	318	406	
2	0	0	0	0	315	407	
3	0	0	0	0	311	406	
4	0	0	0	0	305	407	
5	0	0	0	0	300	407	
6	0	0	0	0	295	407	
7	0	0	0	0	292	407	
8	0	0	0	0	290	408	
9	0	0	0	0	289	407	
10	0	0	0	0	288	407	
11	0	0	0	0	289	407	
12	0	0	0	0	291	408	
13	0	0	0	0	294	407	
14	0	0	0	0	300	407	
15	0	0	0	0	308	408	
0	0	0	0	0	315	408	
1	0	0	0	0	322	407	
2	0	0	0	0	326	408	
3	0	0	0	0	328	407	
4	0	0	0	0	328	408	
5	0	0	0	0	326	407	
6	0	0	0	0	321	407	
7	0	0	0	0	316	407	
8	0	0	0	0	310	407	
9	0	0	0	0	304	407	
10	0	0	0	0	300	407	
11	0	0	0	0	297	407	
12	0	0	0	0	295	407	
13	0	0	0	0	294	407	
14	0	0	0	0	295	407	
15	0	0	0	0	295	406	
0	0	0	0	0	295	407	
1	0	0	0	0	296	407	
2	0	0	0	0	298	407	
3	0	0	0	0	303	407	
4	0	0	0	0	307	407	
5	0	0	0	0	311	407	
6	0	0	0	0	313	407	
7	0	0	0	0	314	407	
8	0	0	0	0	311	407	
9	0	0	0	0	306	407	
10	0	0	0	0	299	407	
11	0	0	0	0	291	406	
12	0	0	0	0	282	407	
13	0	0	0	0	274	406	
14	0	0	0	0	268	406	
15	0	0	0	0	264	407	
0	0	0	0	0	261	407	
1	0	0	0	0	260	408	
2	0	0	0	0	260	407	
3	0	0	0	0	262	407	
4	0	0	0	0	263	408	
5	0	0	0	0	267	408	
6	0	0	0	0	272	408	
7	0	0	0	0	279	408	
8	0	0	0	0	288	408	
9	0	0	0	0	297	408	
10	0	0	0	0	303	408	
11	0	0	0	0	306	408	
12	0	0	0	0	308	408	
13	0	0	0	0	308	408	
14	0	0	0	0	305	408	
15	0	0	0	0	299	408	
0	0	0	0	0	293	408	
1	0	0	0	0	287	408	
2	0	0	0	0	282	408	
3	0	0	0	0	280	409	
4	0	0	0	0	278	409	
5	0	0	0	0	277	409	
6	0	0	0	0	277	409	
7	0	0	0	0	279	409	
8	0	0	0	0	281	410	
9	0	0	0	0	284	409	
10	0	0	0	0	290	409	
11	0	0	0	0	298	410	
12	0	0	0	0	306	411	
13	0	0	0	0	313	410	
14	0	0	0	0	316	409	
15	0	0	0	0	319	410	
0	0	0	0	0	319	411	
1	0	0	0	0	317	410	
2	0	0	0	0	313	410	
3	0	0	0	0	308	411	
4	0	0	0	0	303	411	
5	0	0	0	0	298	411	
6	0	0	0	0	294	411	
7	0	0	0	0	292	411	
8	0	0	0	0	291	412	
9	0	0	0	0	293	411	
10	0	0	0	0	296	412	
11	0	0	0	0	300	411	
12	0	0	0	0	305	412	
13	0	0	0	0	310	411	
14	0	0	0	0	319	411	
15	0	0	0	0	329	411	
0	0	0	0	0	338	411	
1	0	0	0	0	346	410	
2	0	0	0	0	351	410	
3	0	0	0	0	355	411	
4	0	0	0	0	356	411	
5	0	0	0	0	355	409	
6	0	0	0	0	353	410	
7	0	0	0	0	349	409	
8	0	0	0	0	344	409	
9	0	0	0	0	339	409	
10	0	0	0	0	334	409	
11	0	0	0	0	330	410	
12	0	0	0	0	327	410	
13	0	0	0	0	325	409	
14	0	0	0	0	324	409	
15	0	0	0	0	323	409	
0	0	0	0	0	324	410	
1	0	0	0	0	326	409	
2	0	0	0	0	330	409	
3	0	0	0	0	337	409	
4	0	0	0	0	345	410	
5	0	0	0	0	351	409	
6	0	0	0	0	355	410	
7	0	0	0	0	358	410	
8	0	0	0	0	357	410	
9	0	0	0	0	353	409	
10	0	0	0	0	348	410	
11	0	0	0	0	343	410	
12	0	0	0	0	337	410	
13	0	0	0	0	333	410	
14	0	0	0	0	328	410	
15	0	0	0	0	324	410	
0	0	0	0	0	320	410	
1	0	0	0	0	319	410	
2	0	0	0	0	318	410	
3	0	0	0	0	319	410	
4	0	0	0	0	322	411	
5	0	0	0	0	327	410	
6	0	0	0	0	334	410	
7	0	0	0	0	341	410	
8	0	0	0	0	348	411	
9	0	0	0	0	354	410	
10	0	0	0	0	358	411	
11	0	0	0	0	360	411	
12	0	0	0	0	359	411	
13	0	0	0	0	357	411	
14	0	0	0	0	352	411	
15	0	0	0	0	345	411	
0	0	0	0	0	338	411	
1	0	0	0	0	332	411	
2	0	0	0	0	326	411	
3	0	0	0	0	322	410	
4	0	0	0	0	319	411	
5	0	0	0	0	317	411	
6	0	0	0	0	316	411	
7	0	0	0	0	317	410	
8	0	0	0	0	319	412	
9	0	0	0	0	321	412	
10	0	0	0	0	325	411	
11	0	0	0	0	331	411	
12	0	0	0	0	337	411	
13	0	0	0	0	342	410	
14	0	0	0	0	345	410	
15	0	0	0	0	347	410	
0	0	0	0	0	347	411	
1	0	0	0	0	344	410	
2	0	0	0	0	340	410	
3	0	0	0	0	336	410	
4	0	0	0	0	332	411	
5	0	0	0	0	327	410	
6	0	0	0	0	324	409	
7	0	0	0	0	324	410	
8	0	0	0	0	324	410	
9	0	0	0	0	324	410	
10	0	0	0	0	326	409	
11	0	0	0	0	328	409	
12	0	0	0	0	332	410	
13	0	0	0	0	337	408	
14	0	0	0	0	344	408	
15	0	0	0	0	352	408	
0	0	0	0	0	359	408	
1	0	0	0	0	366	408	
2	0	0	0	0	372	409	
3	0	0	0	0	377	408	
4	0	0	0	0	380	409	
5	0	0	0	0	381	409	
6	0	0	0	0	379	409	
7	0	0	0	0	376	408	
8	0	0	0	0	371	408	
9	0	0	0	0	366	408	
10	0	0	0	0	361	407	
11	0	0	0	0	358	408	
12	0	0	0	0	356	408	
13	0	0	0	0	354	408	
14	0	0	0	0	355	408	
15	0	0	0	0	355	408	
0	0	0	0	0	358	408	
1	0	0	0	0	359	408	
2	0	0	0	0	363	408	
3	0	0	0	0	369	408	
4	0	0	0	0	377	409	
5	0	0	0	0	383	408	
6	0	0	0	0	388	408	
7	0	0	0	0	391	408	
8	0	0	0	0	391	409	
9	0	0	0	0	387	408	
10	0	0	0	0	382	409	
11	0	0	0	0	375	409	
12	0	0	0	0	368	409	
13	0	0	0	0	362	409	
14	0	0	0	0	357	408	
15	0	0	0	0	353	408	
0	0	0	0	0	351	409	
1	0	0	0	0	349	409	
2	0	0	0	0	348	408	
3	0	0	0	0	348	408	
4	0	0	0	0	350	410	
5	0	0	0	0	353	409	
6	0	0	0	0	361	409	
7	0	0	0	0	371	409	
8	0	0	0	0	381	409	
9	0	0	0	0	389	409	
10	0	0	0	0	396	408	
11	0	0	0	0	402	408	
12	0	0	0	0	404	409	
13	0	0	0	0	403	408	
14	0	0	0	0	401	408	
15	0	0	0	0	396	409	
0	0	0	0	0	390	409	
1	0	0	0	0	383	408	
2	0	0	0	0	379	408	
3	0	0	0	0	375	409	
4	0	0	0	0	371	409	
5	0	0	0	0	368	409	
6	0	0	0	0	366	409	
7	0	0	0	0	365	408	
8	0	0	0	0	365	409	
9	0	0	0	0	365	409	
10	0	0	0	0	367	409	
11	0	0	0	0	372	408	
12	0	0	0	0	377	409	
13	0	0	0	0	380	409	
14	0	0	0	0	382	409	
15	0	0	0	0	382	409	
0	0	0	0	0	379	409	
1	0	0	0	0	374	409	
2	0	0	0	0	367	409	
3	0	0	0	0	359	408	
4	0	0	0	0	351	409	
5	0	0	0	0	342	409	
6	0	0	0	0	334	408	
7	0	0	0	0	327	408	
8	0	0	0	0	321	408	
9	0	0	0	0	317	408	
10	0	0	0	0	314	408	
11	0	0	0	0	313	408	
12	0	0	0	0	313	409	
13	0	0	0	0	314	408	
14	0	0	0	0	317	409	
15	0	0	0	0	321	408	
0	0	0	0	0	326	409	
1	0	0	0	0	328	408	
2	0	0	0	0	329	408	
3	0	0	0	0	328	408	
4	0	0	0	0	326	409	
5	0	0	0	0	321	409	
6	0	0	0	0	313	409	
7	0	0	0	0	304	409	
8	0	0	0	0	294	409	
9	0	0	0	0	284	408	
10	0	0	0	0	275	409	
11	0	0	0	0	267	409	
12	0	0	0	0	260	410	
13	0	0	0	0	255	408	
14	0	0	0	0	253	409	
15	0	0	0	0	251	409	
0	0	0	0	0	251	409	
1	0	0	0	0	252	409	
2	0	0	0	0	256	409	
3	0	0	0	0	262	409	
4	0	0	0	0	268	410	
5	0	0	0	0	273	409	
6	0	0	0	0	277	409	
7	0	0	0	0	279	410	
8	0	0	0	0	279	409	
9	0	0	0	0	275	409	
10	0	0	0	0	271	409	
11	0	0	0	0	266	409	
12	0	0	0	0	259	410	
13	0	0	0	0	254	409	
14	0	0	0	0	248	410	
15	0	0	0	0	243	409	
0	0	0	0	0	240	409	
1	0	0	0	0	238	409	
2	0	0	0	0	238	409	
3	0	0	0	0	238	409	
4	0	0	0	0	239	410	
5	0	0	0	0	242	409	
6	0	0	0	0	247	409	
7	0	0	0	0	254	409	
8	0	0	0	0	262	409	
9	0	0	0	0	268	409	
10	0	0	0	0	272	410	
11	0	0	0	0	275	409	
12	0	0	0	0	275	410	
13	0	0	0	0	270	410	
14	0	0	0	0	263	410	
15	0	0	0	0	255	410	
0	0	0	0	0	246	410	
1	0	0	0	0	237	411	
2	0	0	0	0	231	410	
3	0	0	0	0	228	411	
4	0	0	0	0	227	411	
5	0	0	0	0	227	410	
6	0	0	0	0	227	410	
7	0	0	0	0	228	410	
8	0	0	0	0	230	410	
9	0	0	0	0	231	411	
10	0	0	0	0	236	410	
11	0	0	0	0	242	410	
12	0	0	0	0	248	411	
13	0	0	0	0	252	410	
14	0	0	0	0	254	410	
15	0	0	0	0	255	409	
0	0	0	0	0	255	410	
1	0	0	0	0	250	409	
2	0	0	0	0	244	409	
3	0	0	0	0	236	410	
4	0	0	0	0	228	411	
5	0	0	0	0	221	410	
6	0	0	0	0	215	410	
7	0	0	0	0	210	410	
8	0	0	0	0	207	411	
9	0	0	0	0	205	410	
10	0	0	0	0	204	409	
11	0	0	0	0	205	409	
12	0	0	0	0	207	410	
13	0	0	0	0	211	409	
14	0	0	0	0	219	409	
15	0	0	0	0	228	410	
0	0	0	0	0	238	410	
1	0	0	0	0	246	410	
2	0	0	0	0	252	409	
3	0	0	0	0	257	409	
4	0	0	0	0	258	410	
5	0	0	0	0	256	409	
6	0	0	0	0	252	409	
7	0	0	0	0	247	409	
8	0	0	0	0	241	409	
9	0	0	0	0	236	409	
10	0	0	0	0	234	408	
11	0	0	0	0	232	409	
12	0	0	0	0	231	410	
13	0	0	0	0	232	409	
14	0	0	0	0	234	409	
15	0	0	0	0	238	409	
0	0	0	0	0	243	409	
1	0	0	0	0	249	408	
2	0	0	0	0	257	408	
3	0	0	0	0	266	408	
4	0	0	0	0	275	409	
5	0	0	0	0	283	408	
6	0	0	0	0	288	408	
7	0	0	0	0	292	408	
8	0	0	0	0	293	408	
9	0	0	0	0	291	408	
10	0	0	0	0	288	408	
11	0	0	0	0	284	408	
12	0	0	0	0	279	408	
13	0	0	0	0	275	408	
14	0	0	0	0	273	408	
15	0	0	0	0	273	408	
0	0	0	0	0	274	408	
1	0	0	0	0	276	408	
2	0	0	0	0	281	408	
3	0	0	0	0	288	408	
4	0	0	0	0	296	409	
5	0	0	0	0	305	408	
6	0	0	0	0	316	408	
7	0	0	0	0	328	408	
8	0	0	0	0	340	408	
9	0	0	0	0	350	408	
10	0	0	0	0	357	408	
11	0	0	0	0	362	408	
12	0	0	0	0	366	409	
13	0	0	0	0	367	408	
14	0	0	0	0	366	408	
15	0	0	0	0	363	408	
0	0	0	0	0	358	409	
1	0	0	0	0	354	408	
2	0	0	0	0	350	407	
3	0	0	0	0	348	408	
4	0	0	0	0	347	408	
5	0	0	0	0	346	408	
6	0	0	0	0	346	407	
7	0	0	0	0	347	408	
8	0	0	0	0	348	408	
9	0	0	0	0	350	408	
10	0	0	0	0	356	408	
11	0	0	0	0	364	408	
12	0	0	0	0	374	409	
13	0	0	0	0	381	408	
14	0	0	0	0	389	408	
15	0	0	0	0	394	408	
0	0	0	0	0	396	409	
1	0	0	0	0	396	408	
2	0	0	0	0	395	408	
3	0	0	0	0	392	408	
4	0	0	0	0	388	410	
5	0	0	0	0	385	408	
6	0	0	0	0	382	408	
7	0	0	0	0	380	408	
8	0	0	0	0	379	408	
9	0	0	0	0	378	408	
10	0	0	0	0	379	408	
11	0	0	0	0	381	408	
12	0	0	0	0	384	409	
13	0	0	0	0	390	409	
14	0	0	0	0	400	409	
15	0	0	0	0	411	409	
0	0	0	0	0	422	409	
1	0	0	0	0	432	409	
2	0	0	0	0	440	409	
3	0	0	0	0	447	408	
4	0	0	0	0	450	410	
5	0	0	0	0	450	409	
6	0	0	0	0	450	409	
7	0	0	0	0	447	409	
8	0	0	0	0	444	409	
9	0	0	0	0	442	409	
10	0	0	0	0	440	408	
11	0	0	0	0	441	408	
12	0	0	0	0	443	410	
13	0	0	0	0	446	409	
14	0	0	0	0	449	409	
15	0	0	0	0	454	409	
0	0	0	0	0	459	409	
1	0	0	0	0	465	408	
2	0	0	0	0	474	409	
3	0	0	0	0	484	409	
4	0	0	0	0	495	410	
5	0	0	0	0	504	409	
6	0	0	0	0	510	409	
7	0	0	0	0	514	409	
8	0	0	0	0	515	409	
9	0	0	0	0	515	408	
10	0	0	0	0	514	408	
11	0	0	0	0	512	408	
12	0	0	0	0	508	409	
13	0	0	0	0	505	408	
14	0	0	0	0	503	408	
15	0	0	0	0	502	408	
0	0	0	0	0	501	408	
1	0	0	0	0	502	408	
2	0	0	0	0	503	408	
3	0	0	0	0	506	408	
4	0	0	0	0	511	409	
5	0	0	0	0	516	408	
6	0	0	0	0	524	408	
7	0	0	0	0	532	408	
8	0	0	0	0	539	408	
9	0	0	0	0	544	408	
10	0	0	0	0	548	408	
11	0	0	0	0	552	408	
12	0	0	0	0	554	409	
13	0	0	0	0	554	408	
14	0	0	0	0	552	409	
15	0	0	0	0	548	408	
0	0	0	0	0	544	409	
1	0	0	0	0	539	408	
2	0	0	0	0	535	408	
3	0	0	0	0	532	408	
4	0	0	0	0	529	409	
5	0	0	0	0	529	408	
6	0	0	0	0	530	408	
7	0	0	0	0	534	408	
8	0	0	0	0	537	408	
9	0	0	0	0	543	408	
10	0	0	0	0	549	408	
11	0	0	0	0	558	408	
12	0	0	0	0	565	408	
13	0	0	0	0	571	408	
14	0	0	0	0	575	408	
15	0	0	0	0	577	409	
0	0	0	0	0	577	409	
1	0	0	0	0	575	408	
2	0	0	0	0	571	409	
3	0	0	0	0	565	408	
4	0	0	0	0	560	409	
5	0	0	0	0	555	409	
6	0	0	0	0	550	409	
7	0	0	0	0	546	409	
8	0	0	0	0	542	408	
9	0	0	0	0	539	408	
10	0	0	0	0	537	408	
11	0	0	0	0	537	408	
12	0	0	0	0	538	409	
13	0	0	0	0	539	408	
14	0	0	0	0	544	408	
15	0	0	0	0	550	409	
0	0	0	0	0	557	409	
1	0	0	0	0	561	409	
2	0	0	0	0	563	409	
3	0	0	0	0	564	409	
4	0	0	0	0	563	410	
5	0	0	0	0	559	410	
6	0	0	0	0	553	409	
7	0	0	0	0	546	409	
8	0	0	0	0	538	409	
9	0	0	0	0	530	409	
10	0	0	0	0	524	409	
11	0	0	0	0	519	409	
12	0	0	0	0	516	409	
13	0	0	0	0	515	408	
14	0	0	0	0	515	409	
15	0	0	0	0	518	409	
0	0	0	0	0	522	409	
1	0	0	0	0	527	409	
2	0	0	0	0	537	409	
3	0	0	0	0	548	409	
4	0	0	0	0	560	410	
5	0	0	0	0	571	409	
6	0	0	0	0	578	409	
7	0	0	0	0	585	408	
8	0	0	0	0	589	409	
9	0	0	0	0	591	409	
10	0	0	0	0	593	408	
11	0	0	0	0	592	408	
12	0	0	0	0	594	409	
13	0	0	0	0	597	408	
14	0	0	0	0	600	409	
15	0	0	0	0	605	408	
0	0	0	0	0	609	408	
1	0	0	0	0	615	408	
2	0	0	0	0	621	408	
3	0	0	0	0	627	408	
4	0	0	0	0	635	409	
5	0	0	0	0	641	408	
6	0	0	0	0	650	409	
7	0	0	0	0	658	408	
8	0	0	0	0	664	408	
9	0	0	0	0	670	408	
10	0	0	0	0	672	408	
11	0	0	0	0	672	408	
12	0	0	0	0	671	409	
13	0	0	0	0	665	408	
14	0	0	0	0	659	408	
15	0	0	0	0	651	409	
0	0	0	0	0	642	409	
1	0	0	0	0	633	408	
2	0	0	0	0	625	409	
3	0	0	0	0	619	408	
4	0	0	0	0	614	409	
5	0	0	0	0	610	408	
6	0	0	0	0	607	408	
7	0	0	0	0	603	409	
8	0	0	0	0	600	409	
9	0	0	0	0	597	408	
10	0	0	0	0	596	409	
11	0	0	0	0	597	408	
12	0	0	0	0	596	409	
13	0	0	0	0	595	409	
14	0	0	0	0	593	408	
15	0	0	0	0	588	408	
0	0	0	0	0	580	408	
1	0	0	0	0	569	408	
2	0	0	0	0	557	408	
3	0	0	0	0	543	408	
4	0	0	0	0	528	409	
5	0	0	0	0	515	409	
6	0	0	0	0	503	409	
7	0	0	0	0	493	408	
8	0	0	0	0	485	409	
9	0	0	0	0	478	408	
10	0	0	0	0	474	409	
11	0	0	0	0	470	408	
12	0	0	0	0	467	409	
13	0	0	0	0	465	409	
14	0	0	0	0	465	409	
15	0	0	0	0	467	409	
0	0	0	0	0	469	409	
1	0	0	0	0	470	409	
2	0	0	0	0	470	409	
3	0	0	0	0	469	408	
4	0	0	0	0	464	409	
5	0	0	0	0	457	409	
6	0	0	0	0	448	408	
7	0	0	0	0	437	409	
8	0	0	0	0	425	409	
9	0	0	0	0	413	409	
10	0	0	0	0	403	409	
11	0	0	0	0	395	409	
12	0	0	0	0	388	409	
13	0	0	0	0	384	409	
14	0	0	0	0	381	409	
15	0	0	0	0	378	409	
0	0	0	0	0	375	410	
1	0	0	0	0	374	409	
2	0	0	0	0	376	409	
3	0	0	0	0	380	409	
4	0	0	0	0	384	410	
5	0	0	0	0	386	410	
6	0	0	0	0	386	410	
7	0	0	0	0	386	409	
8	0	0	0	0	383	410	
9	0	0	0	0	379	409	
10	0	0	0	0	372	409	
11	0	0	0	0	362	410	
12	0	0	0	0	351	411	
13	0	0	0	0	343	409	
14	0	0	0	0	337	409	
15	0	0	0	0	331	409	
0	0	0	0	0	325	409	
1	0	0	0	0	321	410	
2	0	0	0	0	320	409	
3	0	0	0	0	320	408	
4	0	0	0	0	322	409	
5	0	0	0	0	324	409	
6	0	0	0	0	329	409	
7	0	0	0	0	336	409	
8	0	0	0	0	343	410	
9	0	0	0	0	348	410	
10	0	0	0	0	351	409	
11	0	0	0	0	353	409	
12	0	0	0	0	352	410	
13	0	0	0	0	350	410	
14	0	0	0	0	345	410	
15	0	0	0	0	340	409	
0	0	0	0	0	335	410	
1	0	0	0	0	329	410	
2	0	0	0	0	323	409	
3	0	0	0	0	320	410	
4	0	0	0	0	317	410	
5	0	0	0	0	315	410	
6	0	0	0	0	315	410	
7	0	0	0	0	316	409	
8	0	0	0	0	318	409	
9	0	0	0	0	321	409	
10	0	0	0	0	326	409	
11	0	0	0	0	333	409	
12	0	0	0	0	338	410	
13	0	0	0	0	343	409	
14	0	0	0	0	346	408	
15	0	0	0	0	348	409	
0	0	0	0	0	348	409	
1	0	0	0	0	345	409	
2	0	0	0	0	342	409	
3	0	0	0	0	338	409	
4	0	0	0	0	333	409	
5	0	0	0	0	329	409	
6	0	0	0	0	325	409	
7	0	0	0	0	321	409	
8	0	0	0	0	319	409	
9	0	0	0	0	316	410	
10	0	0	0	0	315	410	
11	0	0	0	0	315	410	
12	0	0	0	0	316	411	
13	0	0	0	0	320	409	
14	0	0	0	0	326	410	
15	0	0	0	0	335	410	
0	0	0	0	0	344	410	
1	0	0	0	0	351	412	
2	0	0	0	0	356	411	
3	0	0	0	0	362	410	
4	0	0	0	0	364	411	
5	0	0	0	0	365	410	
6	0	0	0	0	363	410	
7	0	0	0	0	360	410	
8	0	0	0	0	356	410	
9	0	0	0	0	352	410	
10	0	0	0	0	349	410	
11	0	0	0	0	346	409	
12	0	0	0	0	344	410	
13	0	0	0	0	343	409	
14	0	0	0	0	344	409	
15	0	0	0	0	348	409	
0	0	0	0	0	354	409	
1	0	0	0	0	362	409	
2	0	0	0	0	372	409	
3	0	0	0	0	384	409	
4	0	0	0	0	392	410	
5	0	0	0	0	399	409	
6	0	0	0	0	404	409	
7	0	0	0	0	408	410	
8	0	0	0	0	408	409	
9	0	0	0	0	405	409	
10	0	0	0	0	400	410	
11	0	0	0	0	394	409	
12	0	0	0	0	388	410	
13	0	0	0	0	382	409	
14	0	0	0	0	378	408	
15	0	0	0	0	374	409	
0	0	0	0	0	373	409	
1	0	0	0	0	372	408	
2	0	0	0	0	372	409	
3	0	0	0	0	373	408	
4	0	0	0	0	375	409	
5	0	0	0	0	379	408	
6	0	0	0	0	384	409	
7	0	0	0	0	391	408	
8	0	0	0	0	398	408	
9	0	0	0	0	404	408	
10	0	0	0	0	409	408	
11	0	0	0	0	412	408	
12	0	0	0	0	411	408	
13	0	0	0	0	409	408	
14	0	0	0	0	405	408	
15	0	0	0	0	399	407	
0	0	0	0	0	394	408	
1	0	0	0	0	389	408	
2	0	0	0	0	385	408	
3	0	0	0	0	385	407	
4	0	0	0	0	384	409	
5	0	0	0	0	383	408	
6	0	0	0	0	384	408	
7	0	0	0	0	385	408	
8	0	0	0	0	387	408	
9	0	0	0	0	388	408	
10	0	0	0	0	393	408	
11	0	0	0	0	399	408	
12	0	0	0	0	407	408	
13	0	0	0	0	416	408	
14	0	0	0	0	425	408	
15	0	0	0	0	434	408	
0	0	0	0	0	439	408	
1	0	0	0	0	441	408	
2	0	0	0	0	440	408	
3	0	0	0	0	438	408	
4	0	0	0	0	435	408	
5	0	0	0	0	432	407	
6	0	0	0	0	430	408	
7	0	0	0	0	428	408	
8	0	0	0	0	428	408	
9	0	0	0	0	429	407	
10	0	0	0	0	432	407	
11	0	0	0	0	435	407	
12	0	0	0	0	439	408	
13	0	0	0	0	444	407	
14	0	0	0	0	453	407	
15	0	0	0	0	462	407	
0	0	0	0	0	471	407	
1	0	0	0	0	477	407	
2	0	0	0	0	481	407	
3	0	0	0	0	484	406	
4	0	0	0	0	482	407	
5	0	0	0	0	478	407	
6	0	0	0	0	472	407	
7	0	0	0	0	466	407	
8	0	0	0	0	461	407	
9	0	0	0	0	457	407	
10	0	0	0	0	454	406	
11	0	0	0	0	453	407	
12	0	0	0	0	451	408	
13	0	0	0	0	449	407	
14	0	0	0	0	449	407	
15	0	0	0	0	449	407	
0	0	0	0	0	452	407	
1	0	0	0	0	455	407	
2	0	0	0	0	460	407	
3	0	0	0	0	468	407	
4	0	0	0	0	475	408	
5	0	0	0	0	481	407	
6	0	0	0	0	484	407	
7	0	0	0	0	487	407	
8	0	0	0	0	486	407	
9	0	0	0	0	483	407	
10	0	0	0	0	480	407	
11	0	0	0	0	475	407	
12	0	0	0	0	468	407	
13	0	0	0	0	463	406	
14	0	0	0	0	458	407	
15	0	0	0	0	455	407	
0	0	0	0	0	454	407	
1	0	0	0	0	454	407	
2	0	0	0	0	454	406	
3	0	0	0	0	457	407	
4	0	0	0	0	461	407	
5	0	0	0	0	467	406	
6	0	0	0	0	476	406	
7	0	0	0	0	485	406	
8	0	0	0	0	495	406	
9	0	0	0	0	503	407	
10	0	0	0	0	510	406	
11	0	0	0	0	516	407	
12	0	0	0	0	519	407	
13	0	0	0	0	519	407	
14	0	0	0	0	517	406	
15	0	0	0	0	514	406	
0	0	0	0	0	510	406	
1	0	0	0	0	506	406	
2	0	0	0	0	502	405	
3	0	0	0	0	499	405	
4	0	0	0	0	498	406	
5	0	0	0	0	498	405	
6	0	0	0	0	499	406	
7	0	0	0	0	500	406	
8	0	0	0	0	504	408	
9	0	0	0	0	508	407	
10	0	0	0	0	515	408	
11	0	0	0	0	523	408	
12	0	0	0	0	529	409	
13	0	0	0	0	536	408	
14	0	0	0	0	540	408	
15	0	0	0	0	544	409	
0	0	0	0	0	546	408	
1	0	0	0	0	545	408	
2	0	0	0	0	543	407	
3	0	0	0	0	542	408	
4	0	0	0	0	538	408	
5	0	0	0	0	535	407	
6	0	0	0	0	532	408	
7	0	0	0	0	532	407	
8	0	0	0	0	532	407	
9	0	0	0	0	533	408	
10	0	0	0	0	535	408	
11	0	0	0	0	537	408	
12	0	0	0	0	541	409	
13	0	0	0	0	545	408	
14	0	0	0	0	553	409	
15	0	0	0	0	563	409	
0	0	0	0	0	574	409	
1	0	0	0	0	583	408	
2	0	0	0	0	591	409	
3	0	0	0	0	596	409	
4	0	0	0	0	599	410	
5	0	0	0	0	599	409	
6	0	0	0	0	598	409	
7	0	0	0	0	595	409	
8	0	0	0	0	591	410	
9	0	0	0	0	589	409	
10	0	0	0	0	588	409	
11	0	0	0	0	588	409	
12	0	0	0	0	590	410	
13	0	0	0	0	594	410	
14	0	0	0	0	598	410	
15	0	0	0	0	603	410	
0	0	0	0	0	608	409	
1	0	0	0	0	613	410	
2	0	0	0	0	619	409	
3	0	0	0	0	627	409	
4	0	0	0	0	635	410	
5	0	0	0	0	641	410	
6	0	0	0	0	644	409	
7	0	0	0	0	646	409	
8	0	0	0	0	644	409	
9	0	0	0	0	640	410	
10	0	0	0	0	635	409	
11	0	0	0	0	627	409	
12	0	0	0	0	619	411	
13	0	0	0	0	611	410	
14	0	0	0	0	604	411	
15	0	0	0	0	597	410	
0	0	0	0	0	591	411	
1	0	0	0	0	586	410	
2	0	0	0	0	581	410	
3	0	0	0	0	577	411	
4	0	0	0	0	575	412	
5	0	0	0	0	574	410	
6	0	0	0	0	575	410	
7	0	0	0	0	579	410	
8	0	0	0	0	583	411	
9	0	0	0	0	587	410	
10	0	0	0	0	590	410	
11	0	0	0	0	591	409	
12	0	0	0	0	591	410	
13	0	0	0	0	589	409	
14	0	0	0	0	587	409	
15	0	0	0	0	583	409	
0	0	0	0	0	577	409	
1	0	0	0	0	571	410	
2	0	0	0	0	564	409	
3	0	0	0	0	559	410	
4	0	0	0	0	556	411	
5	0	0	0	0	553	409	
6	0	0	0	0	551	409	
7	0	0	0	0	551	410	
8	0	0	0	0	552	410	
9	0	0	0	0	554	410	
10	0	0	0	0	560	409	
11	0	0	0	0	567	410	
12	0	0	0	0	574	410	
13	0	0	0	0	581	409	
14	0	0	0	0	584	409	
15	0	0	0	0	587	409	
0	0	0	0	0	588	409	
1	0	0	0	0	586	409	
2	0	0	0	0	583	408	
3	0	0	0	0	578	408	
4	0	0	0	0	572	409	
5	0	0	0	0	567	408	
6	0	0	0	0	563	409	
7	0	0	0	0	560	409	
8	0	0	0	0	556	409	
9	0	0	0	0	555	409	
10	0	0	0	0	555	409	
11	0	0	0	0	555	409	
12	0	0	0	0	558	410	
13	0	0	0	0	561	408	
14	0	0	0	0	568	409	
15	0	0	0	0	575	409	
0	0	0	0	0	582	409	
1	0	0	0	0	588	409	
2	0	0	0	0	592	409	
3	0	0	0	0	595	409	
4	0	0	0	0	595	410	
5	0	0	0	0	592	409	
6	0	0	0	0	586	409	
7	0	0	0	0	579	408	
8	0	0	0	0	572	409	
9	0	0	0	0	566	409	
10	0	0	0	0	561	409	
11	0	0	0	0	557	409	
12	0	0	0	0	553	410	
13	0	0	0	0	551	409	
14	0	0	0	0	549	409	
15	0	0	0	0	547	410	
0	0	0	0	0	548	410	
1	0	0	0	0	550	409	
2	0	0	0	0	555	409	
3	0	0	0	0	562	410	
4	0	0	0	0	568	409	
5	0	0	0	0	574	409	
6	0	0	0	0	577	409	
7	0	0	0	0	579	409	
8	0	0	0	0	577	410	
9	0	0	0	0	575	408	
10	0	0	0	0	572	409	
11	0	0	0	0	566	409	
12	0	0	0	0	559	410	
13	0	0	0	0	552	409	
14	0	0	0	0	546	409	
15	0	0	0	0	542	410	
0	0	0	0	0	539	409	
1	0	0	0	0	536	409	
2	0	0	0	0	535	409	
3	0	0	0	0	534	409	
4	0	0	0	0	535	410	
5	0	0	0	0	536	409	
6	0	0	0	0	540	409	
7	0	0	0	0	545	409	
8	0	0	0	0	551	410	
9	0	0	0	0	556	409	
10	0	0	0	0	560	409	
11	0	0	0	0	561	408	
12	0	0	0	0	560	410	
13	0	0	0	0	556	410	
14	0	0	0	0	552	410	
15	0	0	0	0	547	409	
0	0	0	0	0	540	409	
1	0	0	0	0	534	409	
2	0	0	0	0	529	409	
3	0	0	0	0	526	408	
4	0	0	0	0	525	409	
5	0	0	0	0	524	409	
6	0	0	0	0	524	408	
7	0	0	0	0	526	408	
8	0	0	0	0	528	409	
9	0	0	0	0	532	408	
10	0	0	0	0	539	408	
11	0	0	0	0	546	408	
12	0	0	0	0	553	408	
13	0	0	0	0	559	408	
14	0	0	0	0	562	408	
15	0	0	0	0	564	408	
0	0	0	0	0	563	408	
1	0	0	0	0	558	408	
2	0	0	0	0	551	408	
3	0	0	0	0	543	408	
4	0	0	0	0	535	409	
5	0	0	0	0	526	408	
6	0	0	0	0	519	408	
7	0	0	0	0	512	408	
8	0	0	0	0	506	408	
9	0	0	0	0	503	408	
10	0	0	0	0	500	408	
11	0	0	0	0	499	408	
12	0	0	0	0	499	409	
13	0	0	0	0	501	408	
14	0	0	0	0	505	408	
15	0	0	0	0	511	409	
0	0	0	0	0	516	409	
1	0	0	0	0	521	408	
2	0	0	0	0	524	408	
3	0	0	0	0	524	408	
4	0	0	0	0	521	408	
5	0	0	0	0	515	408	
6	0	0	0	0	509	409	
7	0	0	0	0	502	408	
8	0	0	0	0	494	409	
9	0	0	0	0	486	409	
10	0	0	0	0	478	408	
11	0	0	0	0	472	408	
12	0	0	0	0	467	409	
13	0	0	0	0	464	408	
14	0	0	0	0	462	409	
15	0	0	0	0	461	409	
0	0	0	0	0	462	409	
1	0	0	0	0	465	408	
2	0	0	0	0	470	408	
3	0	0	0	0	476	409	
4	0	0	0	0	482	408	
5	0	0	0	0	487	408	
6	0	0	0	0	491	408	
7	0	0	0	0	492	408	
8	0	0	0	0	490	409	
9	0	0	0	0	486	408	
10	0	0	0	0	480	408	
11	0	0	0	0	471	408	
12	0	0	0	0	461	409	
13	0	0	0	0	451	408	
14	0	0	0	0	443	408	
15	0	0	0	0	436	408	
0	0	0	0	0	431	408	
1	0	0	0	0	427	408	
2	0	0	0	0	425	408	
3	0	0	0	0	424	408	
4	0	0	0	0	424	409	
5	0	0	0	0	425	409	
6	0	0	0	0	429	409	
7	0	0	0	0	434	408	
8	0	0	0	0	439	408	
9	0	0	0	0	442	408	
10	0	0	0	0	444	408	
11	0	0	0	0	446	408	
12	0	0	0	0	444	409	
13	0	0	0	0	440	408	
14	0	0	0	0	433	408	
15	0	0	0	0	426	408	
0	0	0	0	0	419	408	
1	0	0	0	0	411	408	
2	0	0	0	0	405	408	
3	0	0	0	0	402	408	
4	0	0	0	0	400	409	
5	0	0	0	0	399	408	
6	0	0	0	0	399	409	
7	0	0	0	0	401	408	
8	0	0	0	0	403	408	
9	0	0	0	0	407	408	
10	0	0	0	0	414	408	
11	0	0	0	0	423	408	
12	0	0	0	0	433	409	
13	0	0	0	0	440	408	
14	0	0	0	0	448	408	
15	0	0	0	0	452	408	
0	0	0	0	0	453	409	
1	0	0	0	0	451	409	
2	0	0	0	0	448	409	
3	0	0	0	0	444	408	
4	0	0	0	0	439	409	
5	0	0	0	0	435	408	
6	0	0	0	0	431	408	
7	0	0	0	0	428	408	
8	0	0	0	0	426	409	
9	0	0	0	0	425	408	
10	0	0	0	0	427	409	
11	0	0	0	0	429	408	
12	0	0	0	0	434	410	
13	0	0	0	0	440	409	
14	0	0	0	0	448	409	
15	0	0	0	0	458	409	
0	0	0	0	0	468	409	
1	0	0	0	0	477	409	
2	0	0	0	0	485	409	
3	0	0	0	0	490	408	
4	0	0	0	0	493	409	
5	0	0	0	0	494	409	
6	0	0	0	0	493	410	
7	0	0	0	0	489	409	
8	0	0	0	0	485	409	
9	0	0	0	0	480	409	
10	0	0	0	0	476	408	
11	0	0	0	0	475	409	
12	0	0	0	0	473	409	
13	0	0	0	0	474	409	
14	0	0	0	0	474	409	
15	0	0	0	0	477	409	
0	0	0	0	0	480	408	
1	0	0	0	0	485	409	
2	0	0	0	0	493	408	
3	0	0	0	0	503	409	
4	0	0	0	0	513	410	
5	0	0	0	0	521	409	
6	0	0	0	0	527	409	
7	0	0	0	0	531	409	
8	0	0	0	0	534	409	
9	0	0	0	0	534	408	
10	0	0	0	0	532	409	
11	0	0	0	0	527	408	
12	0	0	0	0	522	409	
13	0	0	0	0	518	408	
14	0	0	0	0	515	409	
15	0	0	0	0	514	409	
0	0	0	0	0	514	409	
1	0	0	0	0	515	409	
2	0	0	0	0	518	409	
3	0	0	0	0	521	409	
4	0	0	0	0	526	409	
5	0	0	0	0	531	409	
6	0	0	0	0	539	409	
7	0	0	0	0	549	409	
8	0	0	0	0	560	409	
9	0	0	0	0	569	409	
10	0	0	0	0	578	409	
11	0	0	0	0	584	409	
12	0	0	0	0	587	410	
13	0	0	0	0	587	409	
14	0	0	0	0	585	409	
15	0	0	0	0	582	409	
0	0	0	0	0	578	409	
1	0	0	0	0	574	409	
2	0	0	0	0	572	409	
3	0	0	0	0	572	409	
4	0	0	0	0	572	410	
5	0	0	0	0	574	409	
6	0	0	0	0	577	410	
7	0	0	0	0	579	410	
8	0	0	0	0	583	411	
9	0	0	0	0	587	409	
10	0	0	0	0	592	409	
11	0	0	0	0	601	409	
12	0	0	0	0	608	410	
13	0	0	0	0	615	410	
14	0	0	0	0	620	410	
15	0	0	0	0	623	410	
0	0	0	0	0	623	409	
1	0	0	0	0	620	409	
2	0	0	0	0	616	410	
3	0	0	0	0	610	409	
4	0	0	0	0	604	409	
5	0	0	0	0	599	409	
6	0	0	0	0	594	408	
7	0	0	0	0	590	408	
8	0	0	0	0	587	409	
9	0	0	0	0	584	409	
10	0	0	0	0	582	409	
11	0	0	0	0	581	408	
12	0	0	0	0	581	409	
13	0	0	0	0	582	408	
14	0	0	0	0	587	409	
15	0	0	0	0	595	409	
0	0	0	0	0	603	409	
1	0	0	0	0	608	409	
2	0	0	0	0	612	408	
3	0	0	0	0	614	408	
4	0	0	0	0	612	408	
5	0	0	0	0	608	408	
6	0	0	0	0	601	408	
7	0	0	0	0	595	408	
8	0	0	0	0	589	409	
9	0	0	0	0	582	409	
10	0	0	0	0	577	408	
11	0	0	0	0	573	408	
12	0	0	0	0	571	410	
13	0	0	0	0	568	409	
14	0	0	0	0	568	409	
15	0	0	0	0	569	409	
0	0	0	0	0	571	409	
1	0	0	0	0	575	409	
2	0	0	0	0	581	409	
3	0	0	0	0	589	409	
4	0	0	0	0	597	409	
5	0	0	0	0	603	409	
6	0	0	0	0	608	409	
7	0	0	0	0	610	409	
8	0	0	0	0	611	409	
9	0	0	0	0	609	409	
10	0	0	0	0	606	409	
11	0	0	0	0	601	409	
12	0	0	0	0	596	410	
13	0	0	0	0	591	409	
14	0	0	0	0	588	409	
15	0	0	0	0	586	409	
0	0	0	0	0	585	410	
1	0	0	0	0	586	410	
2	0	0	0	0	588	410	
3	0	0	0	0	592	410	
4	0	0	0	0	597	410	
5	0	0	0	0	603	409	
6	0	0	0	0	612	409	
7	0	0	0	0	623	409	
8	0	0	0	0	633	409	
9	0	0	0	0	642	409	
10	0	0	0	0	647	408	
11	0	0	0	0	650	409	
12	0	0	0	0	651	409	
13	0	0	0	0	648	409	
14	0	0	0	0	644	409	
15	0	0	0	0	638	409	
0	0	0	0	0	631	409	
1	0	0	0	0	626	409	
2	0	0	0	0	622	408	
3	0	0	0	0	619	408	
4	0	0	0	0	618	409	
5	0	0	0	0	617	409	
6	0	0	0	0	619	408	
7	0	0	0	0	620	409	
8	0	0	0	0	622	409	
9	0	0	0	0	624	409	
10	0	0	0	0	631	409	
11	0	0	0	0	640	408	
12	0	0	0	0	649	409	
13	0	0	0	0	655	409	
14	0	0	0	0	659	409	
15	0	0	0	0	661	409	
0	0	0	0	0	659	408	
1	0	0	0	0	655	408	
2	0	0	0	0	649	408	
3	0	0	0	0	642	408	
4	0	0	0	0	635	409	
5	0	0	0	0	629	407	
6	0	0	0	0	625	408	
7	0	0	0	0	622	408	
8	0	0	0	0	619	407	
9	0	0	0	0	617	407	
10	0	0	0	0	617	407	
11	0	0	0	0	617	407	
12	0	0	0	0	620	407	
13	0	0	0	0	624	407	
14	0	0	0	0	632	407	
15	0	0	0	0	639	407	
0	0	0	0	0	647	408	
1	0	0	0	0	652	408	
2	0	0	0	0	656	408	
3	0	0	0	0	657	408	
4	0	0	0	0	655	408	
5	0	0	0	0	652	408	
6	0	0	0	0	647	408	
7	0	0	0	0	642	408	
8	0	0	0	0	636	408	
9	0	0	0	0	629	408	
10	0	0	0	0	623	408	
11	0	0	0	0	618	407	
12	0	0	0	0	614	408	
13	0	0	0	0	612	408	
14	0	0	0	0	612	408	
15	0	0	0	0	614	408	
0	0	0	0	0	615	408	
1	0	0	0	0	618	408	
2	0	0	0	0	622	408	
3	0	0	0	0	628	408	
4	0	0	0	0	635	409	
5	0	0	0	0	641	408	
6	0	0	0	0	645	408	
7	0	0	0	0	649	408	
8	0	0	0	0	648	408	
9	0	0	0	0	644	408	
10	0	0	0	0	639	408	
11	0	0	0	0	634	408	
12	0	0	0	0	627	409	
13	0	0	0	0	622	407	
14	0	0	0	0	617	407	
15	0	0	0	0	615	408	
0	0	0	0	0	613	408	
1	0	0	0	0	614	408	
2	0	0	0	0	616	408	
3	0	0	0	0	619	407	
4	0	0	0	0	623	409	
5	0	0	0	0	628	408	
6	0	0	0	0	636	408	
7	0	0	0	0	645	408	
8	0	0	0	0	653	408	
9	0	0	0	0	660	408	
10	0	0	0	0	665	408	
11	0	0	0	0	668	408	
12	0	0	0	0	669	409	
13	0	0	0	0	666	408	
14	0	0	0	0	663	408	
15	0	0	0	0	658	408	
0	0	0	0	0	653	408	
1	0	0	0	0	647	408	
2	0	0	0	0	643	408	
3	0	0	0	0	639	408	
4	0	0	0	0	635	409	
5	0	0	0	0	633	408	
6	0	0	0	0	633	408	
7	0	0	0	0	634	408	
8	0	0	0	0	637	409	
9	0	0	0	0	640	408	
10	0	0	0	0	647	408	
11	0	0	0	0	654	408	
12	0	0	0	0	662	409	
13	0	0	0	0	668	408	
14	0	0	0	0	672	408	
15	0	0	0	0	675	408	
0	0	0	0	0	676	408	
1	0	0	0	0	675	408	
2	0	0	0	0	673	408	
3	0	0	0	0	670	409	
4	0	0	0	0	666	408	
5	0	0	0	0	662	408	
6	0	0	0	0	660	408	
7	0	0	0	0	660	408	
8	0	0	0	0	661	408	
9	0	0	0	0	663	408	
10	0	0	0	0	665	408	
11	0	0	0	0	668	408	
12	0	0	0	0	674	409	
13	0	0	0	0	680	408	
14	0	0	0	0	688	408	
15	0	0	0	0	699	407	
0	0	0	0	0	707	408	
1	0	0	0	0	715	408	
2	0	0	0	0	720	408	
3	0	0	0	0	725	408	
4	0	0	0	0	727	408	
5	0	0	0	0	725	408	
6	0	0	0	0	722	408	
7	0	0	0	0	717	408	
8	0	0	0	0	711	408	
9	0	0	0	0	705	408	
10	0	0	0	0	700	408	
11	0	0	0	0	698	408	
12	0	0	0	0	697	409	
13	0	0	0	0	696	408	
14	0	0	0	0	697	408	
15	0	0	0	0	700	409	
0	0	0	0	0	702	409	
1	0	0	0	0	707	409	
2	0	0	0	0	713	408	
3	0	0	0	0	721	408	
4	0	0	0	0	730	408	
5	0	0	0	0	738	408	
6	0	0	0	0	742	408	
7	0	0	0	0	746	409	
8	0	0	0	0	746	408	
9	0	0	0	0	745	408	
10	0	0	0	0	742	408	
11	0	0	0	0	738	408	
12	0	0	0	0	735	409	
13	0	0	0	0	732	408	
14	0	0	0	0	729	408	
15	0	0	0	0	727	408	
0	0	0	0	0	725	409	
1	0	0	0	0	725	409	
2	0	0	0	0	726	409	
3	0	0	0	0	728	408	
4	0	0	0	0	732	409	
5	0	0	0	0	737	408	
6	0	0	0	0	744	409	
7	0	0	0	0	753	409	
8	0	0	0	0	762	410	
9	0	0	0	0	770	409	
10	0	0	0	0	776	409	
11	0	0	0	0	781	409	
12	0	0	0	0	783	409	
13	0	0	0	0	781	408	
14	0	0	0	0	777	408	
15	0	0	0	0	771	408	
0	0	0	0	0	764	408	
1	0	0	0	0	759	409	
2	0	0	0	0	754	408	
3	0	0	0	0	752	409	
4	0	0	0	0	748	409	
5	0	0	0	0	745	408	
6	0	0	0	0	743	408	
7	0	0	0	0	742	409	
8	0	0	0	0	743	409	
9	0	0	0	0	746	409	
10	0	0	0	0	752	409	
11	0	0	0	0	760	409	
12	0	0	0	0	767	409	
13	0	0	0	0	774	409	
14	0	0	0	0	778	409	
15	0	0	0	0	780	409	
0	0	0	0	0	779	409	
1	0	0	0	0	775	408	
2	0	0	0	0	770	409	
3	0	0	0	0	764	409	
4	0	0	0	0	756	410	
5	0	0	0	0	750	409	
6	0	0	0	0	744	409	
7	0	0	0	0	740	409	
8	0	0	0	0	736	409	
9	0	0	0	0	733	409	
10	0	0	0	0	732	409	
11	0	0	0	0	732	409	
12	0	0	0	0	733	409	
13	0	0	0	0	735	408	
14	0	0	0	0	739	408	
15	0	0	0	0	745	409	
0	0	0	0	0	751	409	
1	0	0	0	0	755	409	
2	0	0	0	0	756	408	
3	0	0	0	0	756	408	
4	0	0	0	0	753	409	
5	0	0	0	0	747	408	
6	0	0	0	0	740	409	
7	0	0	0	0	732	408	
8	0	0	0	0	723	409	
9	0	0	0	0	716	409	
10	0	0	0	0	710	408	
11	0	0	0	0	705	408	
12	0	0	0	0	702	409	
13	0	0	0	0	699	408	
14	0	0	0	0	698	408	
15	0	0	0	0	698	408	
0	0	0	0	0	699	408	
1	0	0	0	0	702	408	
2	0	0	0	0	707	408	
3	0	0	0	0	715	407	
4	0	0	0	0	724	409	
5	0	0	0	0	732	408	
6	0	0	0	0	737	408	
7	0	0	0	0	741	408	
8	0	0	0	0	740	408	
9	0	0	0	0	737	409	
10	0	0	0	0	732	408	
11	0	0	0	0	726	408	
12	0	0	0	0	718	408	
13	0	0	0	0	711	408	
14	0	0	0	0	707	408	
15	0	0	0	0	704	409	
0	0	0	0	0	701	408	
1	0	0	0	0	698	408	
2	0	0	0	0	697	409	
3	0	0	0	0	697	408	
4	0	0	0	0	697	409	
5	0	0	0	0	699	408	
6	0	0	0	0	704	408	
7	0	0	0	0	713	408	
8	0	0	0	0	721	408	
9	0	0	0	0	727	408	
10	0	0	0	0	730	408	
11	0	0	0	0	732	408	
12	0	0	0	0	731	409	
13	0	0	0	0	727	408	
14	0	0	0	0	721	408	
15	0	0	0	0	714	407	
0	0	0	0	0	705	408	
1	0	0	0	0	696	408	
2	0	0	0	0	689	408	
3	0	0	0	0	683	408	
4	0	0	0	0	678	408	
5	0	0	0	0	675	408	
6	0	0	0	0	673	408	
7	0	0	0	0	674	408	
8	0	0	0	0	676	408	
9	0	0	0	0	678	408	
10	0	0	0	0	681	408	
11	0	0	0	0	684	408	
12	0	0	0	0	688	408	
13	0	0	0	0	690	408	
14	0	0	0	0	691	408	
15	0	0	0	0	689	407	
0	0	0	0	0	686	408	
1	0	0	0	0	679	408	
2	0	0	0	0	668	408	
3	0	0	0	0	657	408	
