# OpenSignals Text File Format. Version 1
# {"98:D3:11:FD:1E:A8": {"position": 0, "device": "bitalino_rev", "device name": "98:D3:11:FD:1E:A8", "device connection": "BTH98:D3:11:FD:1E:A8", "sampling rate": 1000, "resolution": [4, 1, 1, 1, 1, 10, 10], "firmware version": 1281, "comments": "", "keywords": "", "mode": 0, "sync interval": 2, "date": "2021-9-6", "time": "17:18:10.188", "channels": [2, 5], "sensor": ["RAW", "RAW"], "label": ["A2", "A5"], "column": ["nSeq", "I1", "I2", "O1", "O2", "A2", "A5"], "special": [{}, {}], "digital IO": [0, 0, 1, 1], "convertedValues": 0}}
# EndOfHeader
0	0	0	0	0	516	610	
1	0	0	0	0	515	610	
2	0	0	0	0	514	609	
3	0	0	0	0	514	610	
4	0	0	0	0	514	610	
5	0	0	0	0	513	610	
6	0	0	0	0	514	610	
7	0	0	0	0	514	611	
8	0	0	0	0	515	611	
9	0	0	0	0	516	611	
10	0	0	0	0	517	611	
11	0	0	0	0	518	611	
12	0	0	0	0	518	611	
13	0	0	0	0	518	611	
14	0	0	0	0	518	611	
15	0	0	0	0	518	611	
0	0	0	0	0	517	611	
1	0	0	0	0	517	611	
2	0	0	0	0	516	611	
3	0	0	0	0	516	611	
4	0	0	0	0	515	611	
5	0	0	0	0	514	611	
6	0	0	0	0	514	611	
7	0	0	0	0	514	612	
8	0	0	0	0	514	612	
9	0	0	0	0	515	612	
10	0	0	0	0	514	611	
11	0	0	0	0	515	612	
12	0	0	0	0	516	612	
13	0	0	0	0	517	612	
14	0	0	0	0	518	611	
15	0	0	0	0	519	612	
0	0	0	0	0	518	611	
1	0	0	0	0	519	611	
2	0	0	0	0	519	612	
3	0	0	0	0	519	612	
4	0	0	0	0	518	612	
5	0	0	0	0	519	612	
6	0	0	0	0	518	612	
7	0	0	0	0	516	613	
8	0	0	0	0	516	612	
9	0	0	0	0	516	612	
10	0	0	0	0	515	612	
11	0	0	0	0	515	613	
12	0	0	0	0	517	612	
13	0	0	0	0	517	612	
14	0	0	0	0	517	612	
15	0	0	0	0	517	612	
0	0	0	0	0	517	612	
1	0	0	0	0	518	611	
2	0	0	0	0	518	611	
3	0	0	0	0	518	611	
4	0	0	0	0	518	611	
5	0	0	0	0	518	610	
6	0	0	0	0	517	610	
7	0	0	0	0	517	611	
8	0	0	0	0	515	610	
9	0	0	0	0	515	610	
10	0	0	0	0	515	611	
11	0	0	0	0	515	612	
12	0	0	0	0	514	612	
13	0	0	0	0	513	614	
14	0	0	0	0	512	615	
15	0	0	0	0	512	616	
0	0	0	0	0	513	617	
1	0	0	0	0	513	618	
2	0	0	0	0	513	619	
3	0	0	0	0	512	619	
4	0	0	0	0	512	619	
5	0	0	0	0	512	620	
6	0	0	0	0	512	620	
7	0	0	0	0	511	621	
8	0	0	0	0	512	621	
9	0	0	0	0	512	621	
10	0	0	0	0	512	622	
11	0	0	0	0	512	623	
12	0	0	0	0	512	622	
13	0	0	0	0	512	623	
14	0	0	0	0	512	623	
15	0	0	0	0	511	623	
0	0	0	0	0	511	623	
1	0	0	0	0	510	623	
2	0	0	0	0	509	622	
3	0	0	0	0	510	623	
4	0	0	0	0	510	623	
5	0	0	0	0	510	623	
6	0	0	0	0	511	624	
7	0	0	0	0	511	624	
8	0	0	0	0	512	624	
9	0	0	0	0	513	624	
10	0	0	0	0	512	623	
11	0	0	0	0	513	624	
12	0	0	0	0	512	623	
13	0	0	0	0	512	623	
14	0	0	0	0	512	623	
15	0	0	0	0	511	623	
0	0	0	0	0	511	622	
1	0	0	0	0	512	622	
2	0	0	0	0	511	622	
3	0	0	0	0	512	622	
4	0	0	0	0	512	622	
5	0	0	0	0	512	621	
6	0	0	0	0	512	621	
7	0	0	0	0	512	622	
8	0	0	0	0	513	621	
9	0	0	0	0	514	620	
10	0	0	0	0	515	620	
11	0	0	0	0	515	620	
12	0	0	0	0	516	620	
13	0	0	0	0	517	620	
14	0	0	0	0	517	620	
15	0	0	0	0	519	621	
0	0	0	0	0	519	620	
1	0	0	0	0	519	619	
2	0	0	0	0	520	619	
3	0	0	0	0	519	619	
4	0	0	0	0	519	619	
5	0	0	0	0	519	619	
6	0	0	0	0	518	619	
7	0	0	0	0	518	620	
8	0	0	0	0	518	620	
9	0	0	0	0	518	620	
10	0	0	0	0	518	619	
11	0	0	0	0	518	620	
12	0	0	0	0	519	620	
13	0	0	0	0	519	620	
14	0	0	0	0	519	620	
15	0	0	0	0	520	621	
0	0	0	0	0	520	619	
1	0	0	0	0	521	619	
2	0	0	0	0	522	620	
3	0	0	0	0	523	619	
4	0	0	0	0	522	619	
5	0	0	0	0	523	619	
6	0	0	0	0	523	619	
7	0	0	0	0	521	619	
8	0	0	0	0	520	618	
9	0	0	0	0	519	618	
10	0	0	0	0	518	618	
11	0	0	0	0	517	619	
12	0	0	0	0	515	618	
13	0	0	0	0	515	618	
14	0	0	0	0	515	618	
15	0	0	0	0	514	619	
0	0	0	0	0	513	618	
1	0	0	0	0	514	618	
2	0	0	0	0	515	617	
3	0	0	0	0	515	618	
4	0	0	0	0	515	617	
5	0	0	0	0	515	617	
6	0	0	0	0	516	617	
7	0	0	0	0	516	618	
8	0	0	0	0	516	617	
9	0	0	0	0	517	617	
10	0	0	0	0	517	617	
11	0	0	0	0	517	617	
12	0	0	0	0	517	617	
13	0	0	0	0	517	616	
14	0	0	0	0	516	616	
15	0	0	0	0	515	617	
0	0	0	0	0	515	616	
1	0	0	0	0	515	616	
2	0	0	0	0	515	616	
3	0	0	0	0	515	615	
4	0	0	0	0	515	615	
5	0	0	0	0	515	615	
6	0	0	0	0	516	616	
7	0	0	0	0	516	616	
8	0	0	0	0	516	615	
9	0	0	0	0	517	616	
10	0	0	0	0	517	615	
11	0	0	0	0	517	615	
12	0	0	0	0	516	616	
13	0	0	0	0	516	615	
14	0	0	0	0	516	615	
15	0	0	0	0	516	616	
0	0	0	0	0	516	616	
1	0	0	0	0	516	615	
2	0	0	0	0	517	616	
3	0	0	0	0	516	616	
4	0	0	0	0	515	616	
5	0	0	0	0	515	616	
6	0	0	0	0	514	615	
7	0	0	0	0	514	617	
8	0	0	0	0	515	616	
9	0	0	0	0	515	615	
10	0	0	0	0	515	616	
11	0	0	0	0	515	616	
12	0	0	0	0	515	615	
13	0	0	0	0	515	615	
14	0	0	0	0	516	615	
15	0	0	0	0	516	615	
0	0	0	0	0	517	615	
1	0	0	0	0	516	614	
2	0	0	0	0	517	615	
3	0	0	0	0	517	614	
4	0	0	0	0	516	614	
5	0	0	0	0	515	614	
6	0	0	0	0	515	614	
7	0	0	0	0	514	615	
8	0	0	0	0	512	614	
9	0	0	0	0	511	614	
10	0	0	0	0	510	613	
11	0	0	0	0	508	614	
12	0	0	0	0	506	614	
13	0	0	0	0	504	614	
14	0	0	0	0	502	613	
15	0	0	0	0	500	614	
0	0	0	0	0	497	614	
1	0	0	0	0	495	614	
2	0	0	0	0	492	614	
3	0	0	0	0	489	614	
4	0	0	0	0	487	614	
5	0	0	0	0	485	615	
6	0	0	0	0	483	614	
7	0	0	0	0	480	614	
8	0	0	0	0	475	614	
9	0	0	0	0	471	615	
10	0	0	0	0	465	614	
11	0	0	0	0	460	614	
12	0	0	0	0	454	615	
13	0	0	0	0	449	615	
14	0	0	0	0	445	615	
15	0	0	0	0	442	615	
0	0	0	0	0	440	615	
1	0	0	0	0	441	616	
2	0	0	0	0	441	616	
3	0	0	0	0	441	616	
4	0	0	0	0	443	617	
5	0	0	0	0	447	616	
6	0	0	0	0	452	616	
7	0	0	0	0	458	617	
8	0	0	0	0	464	616	
9	0	0	0	0	471	617	
10	0	0	0	0	478	617	
11	0	0	0	0	483	617	
12	0	0	0	0	489	617	
13	0	0	0	0	496	617	
14	0	0	0	0	506	617	
15	0	0	0	0	519	618	
0	0	0	0	0	535	617	
1	0	0	0	0	553	618	
2	0	0	0	0	570	617	
3	0	0	0	0	590	617	
4	0	0	0	0	612	617	
5	0	0	0	0	639	617	
6	0	0	0	0	668	617	
7	0	0	0	0	698	618	
8	0	0	0	0	731	617	
9	0	0	0	0	759	617	
10	0	0	0	0	776	617	
11	0	0	0	0	785	617	
12	0	0	0	0	785	617	
13	0	0	0	0	779	617	
14	0	0	0	0	768	617	
15	0	0	0	0	752	617	
0	0	0	0	0	734	617	
1	0	0	0	0	716	617	
2	0	0	0	0	696	617	
3	0	0	0	0	679	617	
4	0	0	0	0	661	616	
5	0	0	0	0	644	616	
6	0	0	0	0	628	616	
7	0	0	0	0	613	617	
8	0	0	0	0	600	617	
9	0	0	0	0	587	617	
10	0	0	0	0	575	617	
11	0	0	0	0	564	616	
12	0	0	0	0	555	616	
13	0	0	0	0	546	616	
14	0	0	0	0	537	616	
15	0	0	0	0	529	617	
0	0	0	0	0	521	616	
1	0	0	0	0	514	616	
2	0	0	0	0	508	616	
3	0	0	0	0	502	615	
4	0	0	0	0	496	615	
5	0	0	0	0	492	615	
6	0	0	0	0	489	615	
7	0	0	0	0	486	617	
8	0	0	0	0	482	615	
9	0	0	0	0	480	615	
10	0	0	0	0	478	615	
11	0	0	0	0	476	615	
12	0	0	0	0	476	616	
13	0	0	0	0	475	616	
14	0	0	0	0	475	616	
15	0	0	0	0	475	616	
0	0	0	0	0	475	615	
1	0	0	0	0	474	615	
2	0	0	0	0	474	615	
3	0	0	0	0	474	615	
4	0	0	0	0	473	615	
5	0	0	0	0	473	615	
6	0	0	0	0	473	615	
7	0	0	0	0	474	616	
8	0	0	0	0	473	615	
9	0	0	0	0	473	615	
10	0	0	0	0	472	615	
11	0	0	0	0	472	615	
12	0	0	0	0	472	615	
13	0	0	0	0	471	615	
14	0	0	0	0	471	615	
15	0	0	0	0	471	615	
0	0	0	0	0	471	615	
1	0	0	0	0	472	615	
2	0	0	0	0	472	615	
3	0	0	0	0	473	615	
4	0	0	0	0	474	615	
5	0	0	0	0	475	615	
6	0	0	0	0	475	615	
7	0	0	0	0	475	616	
8	0	0	0	0	476	615	
9	0	0	0	0	476	615	
10	0	0	0	0	476	615	
11	0	0	0	0	476	615	
12	0	0	0	0	475	615	
13	0	0	0	0	476	615	
14	0	0	0	0	475	615	
15	0	0	0	0	474	616	
0	0	0	0	0	474	616	
1	0	0	0	0	475	615	
2	0	0	0	0	474	615	
3	0	0	0	0	474	615	
4	0	0	0	0	475	615	
5	0	0	0	0	475	615	
6	0	0	0	0	477	615	
7	0	0	0	0	478	616	
8	0	0	0	0	479	615	
9	0	0	0	0	480	615	
10	0	0	0	0	480	615	
11	0	0	0	0	480	615	
12	0	0	0	0	480	615	
13	0	0	0	0	481	615	
14	0	0	0	0	481	615	
15	0	0	0	0	482	615	
0	0	0	0	0	481	615	
1	0	0	0	0	480	615	
2	0	0	0	0	480	615	
3	0	0	0	0	480	615	
4	0	0	0	0	480	615	
5	0	0	0	0	480	615	
6	0	0	0	0	479	615	
7	0	0	0	0	480	615	
8	0	0	0	0	480	615	
9	0	0	0	0	480	615	
10	0	0	0	0	480	615	
11	0	0	0	0	481	615	
12	0	0	0	0	482	615	
13	0	0	0	0	483	615	
14	0	0	0	0	484	615	
15	0	0	0	0	484	616	
0	0	0	0	0	486	615	
1	0	0	0	0	486	615	
2	0	0	0	0	485	616	
3	0	0	0	0	486	616	
4	0	0	0	0	485	616	
5	0	0	0	0	485	616	
6	0	0	0	0	484	617	
7	0	0	0	0	484	617	
8	0	0	0	0	483	616	
9	0	0	0	0	483	617	
10	0	0	0	0	483	616	
11	0	0	0	0	483	616	
12	0	0	0	0	483	616	
13	0	0	0	0	483	616	
14	0	0	0	0	484	616	
15	0	0	0	0	484	617	
0	0	0	0	0	485	616	
1	0	0	0	0	486	615	
2	0	0	0	0	486	616	
3	0	0	0	0	486	615	
4	0	0	0	0	487	615	
5	0	0	0	0	487	616	
6	0	0	0	0	487	615	
7	0	0	0	0	487	616	
8	0	0	0	0	487	616	
9	0	0	0	0	487	616	
10	0	0	0	0	486	616	
11	0	0	0	0	486	616	
12	0	0	0	0	486	616	
13	0	0	0	0	486	617	
14	0	0	0	0	485	616	
15	0	0	0	0	484	617	
0	0	0	0	0	485	616	
1	0	0	0	0	485	616	
2	0	0	0	0	486	616	
3	0	0	0	0	487	616	
4	0	0	0	0	487	616	
5	0	0	0	0	487	616	
6	0	0	0	0	487	616	
7	0	0	0	0	487	616	
8	0	0	0	0	488	616	
9	0	0	0	0	488	615	
10	0	0	0	0	488	616	
11	0	0	0	0	487	615	
12	0	0	0	0	487	615	
13	0	0	0	0	487	615	
14	0	0	0	0	486	615	
15	0	0	0	0	485	616	
0	0	0	0	0	485	616	
1	0	0	0	0	485	616	
2	0	0	0	0	484	615	
3	0	0	0	0	484	615	
4	0	0	0	0	485	615	
5	0	0	0	0	484	615	
6	0	0	0	0	484	615	
7	0	0	0	0	485	616	
8	0	0	0	0	486	615	
9	0	0	0	0	487	615	
10	0	0	0	0	487	615	
11	0	0	0	0	487	615	
12	0	0	0	0	487	615	
13	0	0	0	0	486	615	
14	0	0	0	0	486	615	
15	0	0	0	0	486	616	
0	0	0	0	0	485	616	
1	0	0	0	0	484	616	
2	0	0	0	0	484	616	
3	0	0	0	0	483	616	
4	0	0	0	0	482	616	
5	0	0	0	0	481	616	
6	0	0	0	0	481	616	
7	0	0	0	0	480	617	
8	0	0	0	0	480	616	
9	0	0	0	0	480	616	
10	0	0	0	0	480	615	
11	0	0	0	0	480	616	
12	0	0	0	0	480	615	
13	0	0	0	0	481	616	
14	0	0	0	0	481	615	
15	0	0	0	0	481	616	
0	0	0	0	0	481	615	
1	0	0	0	0	481	615	
2	0	0	0	0	481	615	
3	0	0	0	0	481	614	
4	0	0	0	0	480	615	
5	0	0	0	0	480	614	
6	0	0	0	0	480	613	
7	0	0	0	0	479	614	
8	0	0	0	0	479	613	
9	0	0	0	0	479	613	
10	0	0	0	0	478	613	
11	0	0	0	0	478	613	
12	0	0	0	0	478	613	
13	0	0	0	0	478	613	
14	0	0	0	0	478	613	
15	0	0	0	0	479	614	
0	0	0	0	0	479	613	
1	0	0	0	0	480	613	
2	0	0	0	0	480	613	
3	0	0	0	0	481	613	
4	0	0	0	0	481	614	
5	0	0	0	0	481	614	
6	0	0	0	0	481	613	
7	0	0	0	0	481	614	
8	0	0	0	0	481	614	
9	0	0	0	0	481	613	
10	0	0	0	0	481	614	
11	0	0	0	0	481	614	
12	0	0	0	0	481	614	
13	0	0	0	0	481	615	
14	0	0	0	0	481	614	
15	0	0	0	0	481	615	
0	0	0	0	0	482	615	
1	0	0	0	0	482	615	
2	0	0	0	0	483	615	
3	0	0	0	0	484	615	
4	0	0	0	0	484	615	
5	0	0	0	0	485	615	
6	0	0	0	0	486	615	
7	0	0	0	0	487	615	
8	0	0	0	0	487	615	
9	0	0	0	0	488	615	
10	0	0	0	0	488	616	
11	0	0	0	0	489	615	
12	0	0	0	0	490	615	
13	0	0	0	0	489	615	
14	0	0	0	0	489	615	
15	0	0	0	0	489	616	
0	0	0	0	0	489	615	
1	0	0	0	0	490	615	
2	0	0	0	0	490	615	
3	0	0	0	0	492	615	
4	0	0	0	0	493	615	
5	0	0	0	0	494	615	
6	0	0	0	0	497	615	
7	0	0	0	0	499	616	
8	0	0	0	0	500	615	
9	0	0	0	0	502	615	
10	0	0	0	0	504	616	
11	0	0	0	0	505	616	
12	0	0	0	0	508	616	
13	0	0	0	0	509	615	
14	0	0	0	0	510	615	
15	0	0	0	0	512	616	
0	0	0	0	0	513	615	
1	0	0	0	0	514	615	
2	0	0	0	0	515	615	
3	0	0	0	0	517	616	
4	0	0	0	0	518	615	
5	0	0	0	0	519	616	
6	0	0	0	0	520	615	
7	0	0	0	0	521	616	
8	0	0	0	0	522	615	
9	0	0	0	0	524	615	
10	0	0	0	0	526	615	
11	0	0	0	0	527	615	
12	0	0	0	0	529	615	
13	0	0	0	0	530	615	
14	0	0	0	0	531	615	
15	0	0	0	0	533	615	
0	0	0	0	0	533	614	
1	0	0	0	0	534	615	
2	0	0	0	0	534	614	
3	0	0	0	0	536	614	
4	0	0	0	0	536	614	
5	0	0	0	0	536	614	
6	0	0	0	0	536	614	
7	0	0	0	0	536	614	
8	0	0	0	0	536	614	
9	0	0	0	0	536	613	
10	0	0	0	0	536	614	
11	0	0	0	0	536	614	
12	0	0	0	0	537	614	
13	0	0	0	0	538	614	
14	0	0	0	0	538	614	
15	0	0	0	0	539	615	
0	0	0	0	0	539	614	
1	0	0	0	0	540	614	
2	0	0	0	0	541	614	
3	0	0	0	0	541	614	
4	0	0	0	0	542	614	
5	0	0	0	0	542	615	
6	0	0	0	0	542	615	
7	0	0	0	0	542	615	
8	0	0	0	0	542	615	
9	0	0	0	0	542	615	
10	0	0	0	0	542	616	
11	0	0	0	0	541	616	
12	0	0	0	0	540	616	
13	0	0	0	0	540	616	
14	0	0	0	0	539	617	
15	0	0	0	0	539	618	
0	0	0	0	0	539	617	
1	0	0	0	0	540	616	
2	0	0	0	0	540	616	
3	0	0	0	0	541	616	
4	0	0	0	0	541	615	
5	0	0	0	0	542	615	
6	0	0	0	0	542	615	
7	0	0	0	0	542	615	
8	0	0	0	0	542	615	
9	0	0	0	0	541	615	
10	0	0	0	0	542	615	
11	0	0	0	0	541	615	
12	0	0	0	0	540	615	
13	0	0	0	0	541	615	
14	0	0	0	0	540	614	
15	0	0	0	0	540	615	
0	0	0	0	0	540	615	
1	0	0	0	0	539	615	
2	0	0	0	0	539	615	
3	0	0	0	0	538	615	
4	0	0	0	0	538	615	
5	0	0	0	0	538	616	
6	0	0	0	0	538	616	
7	0	0	0	0	539	617	
8	0	0	0	0	539	616	
9	0	0	0	0	537	616	
10	0	0	0	0	538	615	
11	0	0	0	0	538	615	
12	0	0	0	0	538	615	
13	0	0	0	0	538	614	
14	0	0	0	0	538	614	
15	0	0	0	0	538	613	
0	0	0	0	0	537	611	
1	0	0	0	0	537	611	
2	0	0	0	0	536	610	
3	0	0	0	0	536	610	
4	0	0	0	0	536	611	
5	0	0	0	0	536	611	
6	0	0	0	0	535	612	
7	0	0	0	0	535	615	
8	0	0	0	0	535	615	
9	0	0	0	0	534	615	
10	0	0	0	0	534	616	
11	0	0	0	0	533	616	
12	0	0	0	0	533	615	
13	0	0	0	0	534	615	
14	0	0	0	0	534	614	
15	0	0	0	0	535	615	
0	0	0	0	0	535	614	
1	0	0	0	0	535	614	
2	0	0	0	0	535	616	
3	0	0	0	0	534	616	
4	0	0	0	0	534	616	
5	0	0	0	0	532	618	
6	0	0	0	0	531	616	
7	0	0	0	0	531	617	
8	0	0	0	0	531	616	
9	0	0	0	0	530	615	
10	0	0	0	0	530	615	
11	0	0	0	0	529	616	
12	0	0	0	0	529	614	
13	0	0	0	0	529	614	
14	0	0	0	0	529	613	
15	0	0	0	0	529	611	
0	0	0	0	0	530	613	
1	0	0	0	0	531	613	
2	0	0	0	0	531	614	
3	0	0	0	0	531	616	
4	0	0	0	0	531	614	
5	0	0	0	0	532	615	
6	0	0	0	0	532	615	
7	0	0	0	0	532	612	
8	0	0	0	0	531	614	
9	0	0	0	0	531	615	
10	0	0	0	0	530	615	
11	0	0	0	0	528	617	
12	0	0	0	0	528	616	
13	0	0	0	0	527	617	
14	0	0	0	0	527	617	
15	0	0	0	0	527	615	
0	0	0	0	0	527	618	
1	0	0	0	0	528	618	
2	0	0	0	0	527	618	
3	0	0	0	0	528	619	
4	0	0	0	0	528	617	
5	0	0	0	0	528	617	
6	0	0	0	0	528	617	
7	0	0	0	0	528	614	
8	0	0	0	0	528	616	
9	0	0	0	0	529	616	
10	0	0	0	0	527	616	
11	0	0	0	0	527	618	
12	0	0	0	0	527	616	
13	0	0	0	0	526	617	
14	0	0	0	0	525	619	
15	0	0	0	0	526	617	
0	0	0	0	0	526	620	
1	0	0	0	0	526	620	
2	0	0	0	0	526	620	
3	0	0	0	0	525	622	
4	0	0	0	0	525	619	
5	0	0	0	0	526	619	
6	0	0	0	0	527	618	
7	0	0	0	0	527	615	
8	0	0	0	0	527	617	
9	0	0	0	0	527	616	
10	0	0	0	0	527	615	
11	0	0	0	0	527	617	
12	0	0	0	0	527	615	
13	0	0	0	0	527	615	
14	0	0	0	0	527	615	
15	0	0	0	0	526	614	
0	0	0	0	0	525	616	
1	0	0	0	0	524	616	
2	0	0	0	0	523	617	
3	0	0	0	0	523	618	
4	0	0	0	0	523	616	
5	0	0	0	0	522	615	
6	0	0	0	0	521	615	
7	0	0	0	0	520	612	
8	0	0	0	0	521	614	
9	0	0	0	0	521	614	
10	0	0	0	0	521	614	
11	0	0	0	0	522	616	
12	0	0	0	0	523	614	
13	0	0	0	0	524	615	
14	0	0	0	0	523	614	
15	0	0	0	0	524	612	
0	0	0	0	0	524	614	
1	0	0	0	0	523	614	
2	0	0	0	0	524	614	
3	0	0	0	0	523	615	
4	0	0	0	0	523	614	
5	0	0	0	0	523	613	
6	0	0	0	0	522	613	
7	0	0	0	0	522	611	
8	0	0	0	0	521	613	
9	0	0	0	0	521	613	
10	0	0	0	0	521	611	
11	0	0	0	0	520	614	
12	0	0	0	0	521	612	
13	0	0	0	0	521	611	
14	0	0	0	0	521	611	
15	0	0	0	0	521	610	
0	0	0	0	0	522	612	
1	0	0	0	0	522	612	
2	0	0	0	0	522	612	
3	0	0	0	0	523	615	
4	0	0	0	0	523	613	
5	0	0	0	0	523	614	
6	0	0	0	0	522	613	
7	0	0	0	0	522	611	
8	0	0	0	0	521	614	
9	0	0	0	0	521	615	
10	0	0	0	0	520	614	
11	0	0	0	0	519	617	
12	0	0	0	0	519	615	
13	0	0	0	0	519	615	
14	0	0	0	0	519	615	
15	0	0	0	0	519	613	
0	0	0	0	0	519	615	
1	0	0	0	0	519	616	
2	0	0	0	0	519	616	
3	0	0	0	0	519	618	
4	0	0	0	0	520	615	
5	0	0	0	0	521	617	
6	0	0	0	0	521	616	
7	0	0	0	0	521	615	
8	0	0	0	0	521	616	
9	0	0	0	0	521	617	
10	0	0	0	0	521	617	
11	0	0	0	0	520	620	
12	0	0	0	0	519	617	
13	0	0	0	0	519	618	
14	0	0	0	0	519	618	
15	0	0	0	0	518	615	
0	0	0	0	0	518	618	
1	0	0	0	0	518	618	
2	0	0	0	0	518	618	
3	0	0	0	0	518	620	
4	0	0	0	0	518	617	
5	0	0	0	0	518	616	
6	0	0	0	0	518	616	
7	0	0	0	0	519	614	
8	0	0	0	0	520	616	
9	0	0	0	0	520	616	
10	0	0	0	0	521	615	
11	0	0	0	0	522	616	
12	0	0	0	0	522	614	
13	0	0	0	0	522	615	
14	0	0	0	0	522	614	
15	0	0	0	0	522	611	
0	0	0	0	0	522	614	
1	0	0	0	0	521	613	
2	0	0	0	0	519	613	
3	0	0	0	0	519	615	
4	0	0	0	0	518	613	
5	0	0	0	0	518	614	
6	0	0	0	0	518	614	
7	0	0	0	0	517	611	
8	0	0	0	0	517	614	
9	0	0	0	0	516	614	
10	0	0	0	0	517	613	
11	0	0	0	0	518	615	
12	0	0	0	0	518	613	
13	0	0	0	0	519	613	
14	0	0	0	0	519	613	
15	0	0	0	0	519	611	
0	0	0	0	0	519	613	
1	0	0	0	0	520	613	
2	0	0	0	0	520	613	
3	0	0	0	0	519	614	
4	0	0	0	0	518	613	
5	0	0	0	0	517	612	
6	0	0	0	0	516	612	
7	0	0	0	0	516	611	
8	0	0	0	0	515	612	
9	0	0	0	0	515	612	
10	0	0	0	0	515	611	
11	0	0	0	0	515	614	
12	0	0	0	0	516	612	
13	0	0	0	0	516	612	
14	0	0	0	0	517	612	
15	0	0	0	0	518	610	
0	0	0	0	0	518	612	
1	0	0	0	0	518	612	
2	0	0	0	0	519	612	
3	0	0	0	0	519	615	
4	0	0	0	0	519	613	
5	0	0	0	0	519	613	
6	0	0	0	0	519	613	
7	0	0	0	0	519	612	
8	0	0	0	0	519	614	
9	0	0	0	0	519	614	
10	0	0	0	0	519	614	
11	0	0	0	0	519	617	
12	0	0	0	0	518	615	
13	0	0	0	0	517	614	
14	0	0	0	0	516	615	
15	0	0	0	0	517	612	
0	0	0	0	0	517	615	
1	0	0	0	0	518	615	
2	0	0	0	0	517	615	
3	0	0	0	0	517	616	
4	0	0	0	0	517	615	
5	0	0	0	0	518	615	
6	0	0	0	0	518	615	
7	0	0	0	0	518	613	
8	0	0	0	0	518	616	
9	0	0	0	0	518	615	
10	0	0	0	0	518	615	
11	0	0	0	0	518	617	
12	0	0	0	0	518	615	
13	0	0	0	0	517	616	
14	0	0	0	0	515	616	
15	0	0	0	0	515	614	
0	0	0	0	0	514	615	
1	0	0	0	0	513	616	
2	0	0	0	0	512	615	
3	0	0	0	0	512	617	
4	0	0	0	0	512	615	
5	0	0	0	0	512	615	
6	0	0	0	0	512	615	
7	0	0	0	0	513	614	
8	0	0	0	0	514	615	
9	0	0	0	0	515	615	
10	0	0	0	0	515	615	
11	0	0	0	0	515	618	
12	0	0	0	0	515	615	
13	0	0	0	0	515	615	
14	0	0	0	0	515	615	
15	0	0	0	0	515	614	
0	0	0	0	0	515	615	
1	0	0	0	0	514	615	
2	0	0	0	0	513	615	
3	0	0	0	0	513	617	
4	0	0	0	0	513	615	
5	0	0	0	0	514	615	
6	0	0	0	0	514	615	
7	0	0	0	0	514	612	
8	0	0	0	0	515	615	
9	0	0	0	0	515	615	
10	0	0	0	0	515	615	
11	0	0	0	0	516	617	
12	0	0	0	0	516	615	
13	0	0	0	0	517	615	
14	0	0	0	0	517	615	
15	0	0	0	0	518	613	
0	0	0	0	0	518	615	
1	0	0	0	0	518	615	
2	0	0	0	0	518	615	
3	0	0	0	0	517	617	
4	0	0	0	0	517	615	
5	0	0	0	0	516	615	
6	0	0	0	0	515	615	
7	0	0	0	0	514	613	
8	0	0	0	0	513	615	
9	0	0	0	0	512	615	
10	0	0	0	0	512	615	
11	0	0	0	0	512	617	
12	0	0	0	0	511	615	
13	0	0	0	0	511	615	
14	0	0	0	0	512	615	
15	0	0	0	0	512	612	
0	0	0	0	0	513	615	
1	0	0	0	0	513	614	
2	0	0	0	0	514	614	
3	0	0	0	0	514	616	
4	0	0	0	0	514	615	
5	0	0	0	0	513	614	
6	0	0	0	0	512	614	
7	0	0	0	0	511	613	
8	0	0	0	0	511	614	
9	0	0	0	0	510	614	
10	0	0	0	0	510	614	
11	0	0	0	0	509	616	
12	0	0	0	0	508	614	
13	0	0	0	0	508	613	
14	0	0	0	0	507	614	
15	0	0	0	0	506	611	
0	0	0	0	0	506	614	
1	0	0	0	0	506	614	
2	0	0	0	0	506	614	
3	0	0	0	0	506	616	
4	0	0	0	0	506	614	
5	0	0	0	0	507	614	
6	0	0	0	0	508	614	
7	0	0	0	0	508	611	
8	0	0	0	0	509	615	
9	0	0	0	0	508	614	
10	0	0	0	0	508	614	
11	0	0	0	0	509	615	
12	0	0	0	0	509	614	
13	0	0	0	0	509	613	
14	0	0	0	0	508	613	
15	0	0	0	0	508	611	
0	0	0	0	0	508	614	
1	0	0	0	0	508	614	
2	0	0	0	0	508	614	
3	0	0	0	0	508	615	
4	0	0	0	0	508	613	
5	0	0	0	0	509	613	
6	0	0	0	0	510	613	
7	0	0	0	0	511	611	
8	0	0	0	0	511	613	
9	0	0	0	0	512	614	
10	0	0	0	0	512	613	
11	0	0	0	0	513	615	
12	0	0	0	0	513	614	
13	0	0	0	0	513	613	
14	0	0	0	0	513	613	
15	0	0	0	0	514	611	
0	0	0	0	0	514	614	
1	0	0	0	0	513	614	
2	0	0	0	0	513	614	
3	0	0	0	0	513	616	
4	0	0	0	0	512	613	
5	0	0	0	0	512	614	
6	0	0	0	0	512	614	
7	0	0	0	0	512	612	
8	0	0	0	0	512	614	
9	0	0	0	0	513	614	
10	0	0	0	0	514	615	
11	0	0	0	0	515	616	
12	0	0	0	0	515	615	
13	0	0	0	0	516	615	
14	0	0	0	0	517	615	
15	0	0	0	0	517	613	
0	0	0	0	0	517	615	
1	0	0	0	0	517	614	
2	0	0	0	0	517	615	
3	0	0	0	0	517	617	
4	0	0	0	0	517	615	
5	0	0	0	0	517	616	
6	0	0	0	0	516	615	
7	0	0	0	0	515	613	
8	0	0	0	0	513	615	
9	0	0	0	0	513	616	
10	0	0	0	0	512	616	
11	0	0	0	0	512	618	
12	0	0	0	0	512	616	
13	0	0	0	0	512	616	
14	0	0	0	0	513	616	
15	0	0	0	0	513	614	
0	0	0	0	0	514	616	
1	0	0	0	0	515	616	
2	0	0	0	0	515	616	
3	0	0	0	0	515	618	
4	0	0	0	0	516	616	
5	0	0	0	0	516	616	
6	0	0	0	0	516	616	
7	0	0	0	0	516	613	
8	0	0	0	0	515	616	
9	0	0	0	0	515	615	
10	0	0	0	0	515	615	
11	0	0	0	0	515	617	
12	0	0	0	0	514	615	
13	0	0	0	0	513	615	
14	0	0	0	0	513	615	
15	0	0	0	0	513	612	
0	0	0	0	0	513	615	
1	0	0	0	0	513	615	
2	0	0	0	0	514	615	
3	0	0	0	0	515	617	
4	0	0	0	0	515	615	
5	0	0	0	0	515	615	
6	0	0	0	0	515	615	
7	0	0	0	0	515	612	
8	0	0	0	0	515	615	
9	0	0	0	0	516	615	
10	0	0	0	0	516	615	
11	0	0	0	0	515	616	
12	0	0	0	0	515	614	
13	0	0	0	0	515	614	
14	0	0	0	0	514	614	
15	0	0	0	0	513	611	
0	0	0	0	0	512	613	
1	0	0	0	0	512	613	
2	0	0	0	0	511	613	
3	0	0	0	0	511	615	
4	0	0	0	0	512	612	
5	0	0	0	0	512	612	
6	0	0	0	0	512	612	
7	0	0	0	0	512	610	
8	0	0	0	0	513	612	
9	0	0	0	0	514	612	
10	0	0	0	0	515	612	
11	0	0	0	0	515	614	
12	0	0	0	0	515	612	
13	0	0	0	0	514	612	
14	0	0	0	0	514	612	
15	0	0	0	0	514	611	
0	0	0	0	0	513	613	
1	0	0	0	0	512	612	
2	0	0	0	0	512	613	
3	0	0	0	0	511	615	
4	0	0	0	0	510	613	
5	0	0	0	0	509	614	
6	0	0	0	0	508	614	
7	0	0	0	0	508	611	
8	0	0	0	0	507	614	
9	0	0	0	0	506	614	
10	0	0	0	0	506	614	
11	0	0	0	0	504	616	
12	0	0	0	0	503	615	
13	0	0	0	0	501	615	
14	0	0	0	0	498	615	
15	0	0	0	0	496	612	
0	0	0	0	0	492	614	
1	0	0	0	0	489	614	
2	0	0	0	0	487	615	
3	0	0	0	0	484	616	
4	0	0	0	0	483	615	
5	0	0	0	0	480	615	
6	0	0	0	0	476	615	
7	0	0	0	0	472	612	
8	0	0	0	0	468	614	
9	0	0	0	0	463	614	
10	0	0	0	0	457	615	
11	0	0	0	0	452	617	
12	0	0	0	0	447	615	
13	0	0	0	0	443	615	
14	0	0	0	0	441	615	
15	0	0	0	0	440	613	
0	0	0	0	0	441	614	
1	0	0	0	0	441	615	
2	0	0	0	0	440	615	
3	0	0	0	0	441	616	
4	0	0	0	0	444	614	
5	0	0	0	0	448	614	
6	0	0	0	0	452	615	
7	0	0	0	0	457	612	
8	0	0	0	0	464	614	
9	0	0	0	0	468	615	
10	0	0	0	0	473	615	
11	0	0	0	0	479	617	
12	0	0	0	0	485	615	
13	0	0	0	0	495	614	
14	0	0	0	0	509	615	
15	0	0	0	0	525	613	
0	0	0	0	0	543	615	
1	0	0	0	0	560	615	
2	0	0	0	0	577	615	
3	0	0	0	0	599	617	
4	0	0	0	0	625	615	
5	0	0	0	0	652	615	
6	0	0	0	0	680	615	
7	0	0	0	0	709	613	
8	0	0	0	0	735	615	
9	0	0	0	0	753	615	
10	0	0	0	0	761	615	
11	0	0	0	0	760	616	
12	0	0	0	0	754	615	
13	0	0	0	0	742	615	
14	0	0	0	0	727	615	
15	0	0	0	0	712	614	
0	0	0	0	0	695	615	
1	0	0	0	0	679	615	
2	0	0	0	0	664	615	
3	0	0	0	0	648	617	
4	0	0	0	0	634	615	
5	0	0	0	0	620	615	
6	0	0	0	0	608	615	
7	0	0	0	0	597	612	
8	0	0	0	0	587	615	
9	0	0	0	0	578	614	
10	0	0	0	0	568	615	
11	0	0	0	0	560	617	
12	0	0	0	0	552	614	
13	0	0	0	0	543	615	
14	0	0	0	0	536	615	
15	0	0	0	0	529	612	
0	0	0	0	0	522	615	
1	0	0	0	0	515	614	
2	0	0	0	0	508	614	
3	0	0	0	0	502	616	
4	0	0	0	0	496	614	
5	0	0	0	0	492	614	
6	0	0	0	0	489	614	
7	0	0	0	0	486	612	
8	0	0	0	0	484	614	
9	0	0	0	0	483	614	
10	0	0	0	0	482	614	
11	0	0	0	0	481	616	
12	0	0	0	0	480	615	
13	0	0	0	0	480	614	
14	0	0	0	0	480	614	
15	0	0	0	0	479	612	
0	0	0	0	0	479	614	
1	0	0	0	0	477	614	
2	0	0	0	0	477	614	
3	0	0	0	0	476	617	
4	0	0	0	0	475	615	
5	0	0	0	0	474	615	
6	0	0	0	0	473	615	
7	0	0	0	0	473	612	
8	0	0	0	0	472	614	
9	0	0	0	0	473	615	
10	0	0	0	0	473	615	
11	0	0	0	0	473	616	
12	0	0	0	0	473	615	
13	0	0	0	0	473	615	
14	0	0	0	0	473	615	
15	0	0	0	0	474	613	
0	0	0	0	0	475	615	
1	0	0	0	0	476	615	
2	0	0	0	0	476	615	
3	0	0	0	0	476	617	
4	0	0	0	0	476	615	
5	0	0	0	0	477	615	
6	0	0	0	0	478	615	
7	0	0	0	0	478	614	
8	0	0	0	0	478	616	
9	0	0	0	0	477	615	
10	0	0	0	0	476	615	
11	0	0	0	0	476	617	
12	0	0	0	0	475	615	
13	0	0	0	0	475	615	
14	0	0	0	0	474	614	
15	0	0	0	0	474	612	
0	0	0	0	0	473	615	
1	0	0	0	0	474	614	
2	0	0	0	0	475	614	
3	0	0	0	0	475	616	
4	0	0	0	0	476	614	
5	0	0	0	0	477	614	
6	0	0	0	0	478	614	
7	0	0	0	0	478	612	
8	0	0	0	0	479	615	
9	0	0	0	0	479	614	
10	0	0	0	0	479	614	
11	0	0	0	0	478	616	
12	0	0	0	0	478	615	
13	0	0	0	0	478	614	
14	0	0	0	0	477	614	
15	0	0	0	0	477	611	
0	0	0	0	0	477	614	
1	0	0	0	0	476	614	
2	0	0	0	0	476	614	
3	0	0	0	0	476	616	
4	0	0	0	0	476	615	
5	0	0	0	0	477	614	
6	0	0	0	0	478	615	
7	0	0	0	0	479	612	
8	0	0	0	0	480	614	
9	0	0	0	0	482	614	
10	0	0	0	0	482	614	
11	0	0	0	0	483	616	
12	0	0	0	0	483	615	
13	0	0	0	0	484	615	
14	0	0	0	0	483	615	
15	0	0	0	0	483	612	
0	0	0	0	0	482	614	
1	0	0	0	0	482	615	
2	0	0	0	0	481	615	
3	0	0	0	0	481	617	
4	0	0	0	0	480	615	
5	0	0	0	0	481	615	
6	0	0	0	0	481	614	
7	0	0	0	0	481	612	
8	0	0	0	0	481	615	
9	0	0	0	0	481	615	
10	0	0	0	0	483	615	
11	0	0	0	0	483	617	
12	0	0	0	0	484	615	
13	0	0	0	0	485	615	
14	0	0	0	0	485	615	
15	0	0	0	0	485	613	
0	0	0	0	0	486	615	
1	0	0	0	0	485	615	
2	0	0	0	0	484	615	
3	0	0	0	0	484	617	
4	0	0	0	0	484	615	
5	0	0	0	0	483	615	
6	0	0	0	0	483	615	
7	0	0	0	0	482	613	
8	0	0	0	0	481	615	
9	0	0	0	0	481	615	
10	0	0	0	0	481	615	
11	0	0	0	0	482	617	
12	0	0	0	0	482	615	
13	0	0	0	0	482	615	
14	0	0	0	0	483	615	
15	0	0	0	0	484	613	
0	0	0	0	0	486	615	
1	0	0	0	0	487	615	
2	0	0	0	0	487	615	
3	0	0	0	0	487	616	
4	0	0	0	0	487	615	
5	0	0	0	0	487	614	
6	0	0	0	0	487	614	
7	0	0	0	0	487	612	
8	0	0	0	0	487	614	
9	0	0	0	0	485	614	
10	0	0	0	0	484	614	
11	0	0	0	0	484	616	
12	0	0	0	0	483	614	
13	0	0	0	0	483	614	
14	0	0	0	0	482	614	
15	0	0	0	0	482	611	
0	0	0	0	0	482	614	
1	0	0	0	0	482	613	
2	0	0	0	0	483	614	
3	0	0	0	0	483	615	
4	0	0	0	0	484	614	
5	0	0	0	0	485	614	
6	0	0	0	0	486	614	
7	0	0	0	0	486	612	
8	0	0	0	0	486	614	
9	0	0	0	0	486	615	
10	0	0	0	0	486	615	
11	0	0	0	0	485	616	
12	0	0	0	0	484	614	
13	0	0	0	0	483	614	
14	0	0	0	0	482	614	
15	0	0	0	0	481	613	
0	0	0	0	0	480	615	
1	0	0	0	0	480	615	
2	0	0	0	0	480	615	
3	0	0	0	0	479	617	
4	0	0	0	0	479	615	
5	0	0	0	0	479	615	
6	0	0	0	0	479	615	
7	0	0	0	0	479	613	
8	0	0	0	0	479	614	
9	0	0	0	0	480	615	
10	0	0	0	0	480	615	
11	0	0	0	0	480	617	
12	0	0	0	0	480	616	
13	0	0	0	0	480	615	
14	0	0	0	0	480	615	
15	0	0	0	0	479	613	
0	0	0	0	0	479	615	
1	0	0	0	0	478	615	
2	0	0	0	0	478	616	
3	0	0	0	0	477	617	
4	0	0	0	0	476	615	
5	0	0	0	0	476	615	
6	0	0	0	0	476	615	
7	0	0	0	0	476	613	
8	0	0	0	0	476	615	
9	0	0	0	0	476	615	
10	0	0	0	0	477	615	
11	0	0	0	0	478	616	
12	0	0	0	0	479	615	
13	0	0	0	0	479	615	
14	0	0	0	0	479	615	
15	0	0	0	0	479	612	
0	0	0	0	0	479	615	
1	0	0	0	0	479	614	
2	0	0	0	0	479	614	
3	0	0	0	0	479	616	
4	0	0	0	0	479	615	
5	0	0	0	0	479	615	
6	0	0	0	0	478	614	
7	0	0	0	0	479	612	
8	0	0	0	0	479	615	
9	0	0	0	0	478	615	
10	0	0	0	0	478	615	
11	0	0	0	0	478	617	
12	0	0	0	0	478	615	
13	0	0	0	0	478	614	
14	0	0	0	0	479	615	
15	0	0	0	0	479	612	
0	0	0	0	0	480	614	
1	0	0	0	0	481	615	
2	0	0	0	0	482	615	
3	0	0	0	0	483	616	
4	0	0	0	0	483	615	
5	0	0	0	0	483	614	
6	0	0	0	0	483	615	
7	0	0	0	0	483	613	
8	0	0	0	0	483	615	
9	0	0	0	0	483	614	
10	0	0	0	0	482	614	
11	0	0	0	0	482	617	
12	0	0	0	0	483	615	
13	0	0	0	0	483	615	
14	0	0	0	0	484	615	
15	0	0	0	0	485	612	
0	0	0	0	0	486	615	
1	0	0	0	0	488	615	
2	0	0	0	0	490	614	
3	0	0	0	0	492	617	
4	0	0	0	0	494	614	
5	0	0	0	0	496	615	
6	0	0	0	0	497	615	
7	0	0	0	0	499	612	
8	0	0	0	0	501	615	
9	0	0	0	0	503	614	
10	0	0	0	0	504	615	
11	0	0	0	0	506	616	
12	0	0	0	0	507	615	
13	0	0	0	0	508	615	
14	0	0	0	0	509	615	
15	0	0	0	0	510	612	
0	0	0	0	0	511	615	
1	0	0	0	0	512	615	
2	0	0	0	0	514	615	
3	0	0	0	0	515	616	
4	0	0	0	0	516	615	
5	0	0	0	0	518	615	
6	0	0	0	0	519	615	
7	0	0	0	0	521	613	
8	0	0	0	0	523	614	
9	0	0	0	0	525	614	
10	0	0	0	0	527	615	
11	0	0	0	0	528	617	
12	0	0	0	0	530	615	
13	0	0	0	0	530	615	
14	0	0	0	0	532	615	
15	0	0	0	0	532	613	
0	0	0	0	0	534	615	
1	0	0	0	0	534	615	
2	0	0	0	0	534	615	
3	0	0	0	0	536	617	
4	0	0	0	0	536	615	
5	0	0	0	0	536	615	
6	0	0	0	0	536	615	
7	0	0	0	0	537	613	
8	0	0	0	0	538	616	
9	0	0	0	0	539	615	
10	0	0	0	0	540	615	
11	0	0	0	0	542	617	
12	0	0	0	0	543	615	
13	0	0	0	0	544	615	
14	0	0	0	0	544	615	
15	0	0	0	0	545	612	
0	0	0	0	0	545	614	
1	0	0	0	0	545	614	
2	0	0	0	0	545	614	
3	0	0	0	0	546	616	
4	0	0	0	0	546	614	
5	0	0	0	0	545	615	
6	0	0	0	0	544	614	
7	0	0	0	0	544	612	
8	0	0	0	0	543	615	
9	0	0	0	0	543	615	
10	0	0	0	0	543	615	
11	0	0	0	0	543	617	
12	0	0	0	0	543	614	
13	0	0	0	0	543	615	
14	0	0	0	0	543	615	
15	0	0	0	0	544	612	
0	0	0	0	0	545	615	
1	0	0	0	0	547	615	
2	0	0	0	0	547	615	
3	0	0	0	0	547	617	
4	0	0	0	0	547	615	
5	0	0	0	0	547	615	
6	0	0	0	0	546	615	
7	0	0	0	0	545	614	
8	0	0	0	0	545	616	
9	0	0	0	0	545	616	
10	0	0	0	0	544	615	
11	0	0	0	0	543	617	
12	0	0	0	0	542	615	
13	0	0	0	0	542	616	
14	0	0	0	0	541	615	
15	0	0	0	0	541	613	
0	0	0	0	0	541	616	
1	0	0	0	0	542	616	
2	0	0	0	0	541	615	
3	0	0	0	0	542	618	
4	0	0	0	0	542	615	
5	0	0	0	0	543	616	
6	0	0	0	0	544	616	
7	0	0	0	0	544	614	
8	0	0	0	0	543	615	
9	0	0	0	0	543	616	
10	0	0	0	0	542	615	
11	0	0	0	0	542	617	
12	0	0	0	0	541	615	
13	0	0	0	0	540	615	
14	0	0	0	0	540	615	
15	0	0	0	0	539	612	
0	0	0	0	0	538	614	
1	0	0	0	0	537	615	
2	0	0	0	0	536	615	
3	0	0	0	0	535	616	
4	0	0	0	0	536	614	
5	0	0	0	0	536	615	
6	0	0	0	0	537	614	
7	0	0	0	0	537	612	
8	0	0	0	0	537	614	
9	0	0	0	0	539	614	
10	0	0	0	0	538	614	
11	0	0	0	0	539	616	
12	0	0	0	0	539	614	
13	0	0	0	0	538	614	
14	0	0	0	0	537	615	
15	0	0	0	0	536	612	
0	0	0	0	0	536	615	
1	0	0	0	0	535	615	
2	0	0	0	0	534	615	
3	0	0	0	0	533	617	
4	0	0	0	0	532	615	
5	0	0	0	0	532	615	
6	0	0	0	0	532	615	
7	0	0	0	0	532	614	
8	0	0	0	0	532	615	
9	0	0	0	0	531	615	
10	0	0	0	0	531	615	
11	0	0	0	0	531	617	
12	0	0	0	0	532	615	
13	0	0	0	0	533	616	
14	0	0	0	0	532	615	
15	0	0	0	0	533	614	
0	0	0	0	0	533	615	
1	0	0	0	0	533	615	
2	0	0	0	0	532	616	
3	0	0	0	0	532	618	
4	0	0	0	0	532	616	
5	0	0	0	0	532	615	
6	0	0	0	0	531	615	
7	0	0	0	0	530	614	
8	0	0	0	0	529	615	
9	0	0	0	0	528	615	
10	0	0	0	0	527	615	
11	0	0	0	0	527	617	
12	0	0	0	0	527	615	
13	0	0	0	0	527	615	
14	0	0	0	0	528	615	
15	0	0	0	0	528	613	
0	0	0	0	0	529	615	
1	0	0	0	0	529	615	
2	0	0	0	0	530	615	
3	0	0	0	0	530	617	
4	0	0	0	0	529	615	
5	0	0	0	0	529	615	
6	0	0	0	0	529	615	
7	0	0	0	0	529	611	
8	0	0	0	0	528	614	
9	0	0	0	0	527	614	
10	0	0	0	0	527	614	
11	0	0	0	0	527	616	
12	0	0	0	0	526	614	
13	0	0	0	0	525	614	
14	0	0	0	0	524	614	
15	0	0	0	0	524	612	
0	0	0	0	0	524	615	
1	0	0	0	0	524	614	
2	0	0	0	0	524	614	
3	0	0	0	0	524	616	
4	0	0	0	0	524	614	
5	0	0	0	0	525	614	
6	0	0	0	0	526	614	
7	0	0	0	0	526	612	
8	0	0	0	0	526	614	
9	0	0	0	0	526	614	
10	0	0	0	0	527	615	
11	0	0	0	0	526	616	
12	0	0	0	0	526	615	
13	0	0	0	0	526	615	
14	0	0	0	0	525	615	
15	0	0	0	0	525	614	
0	0	0	0	0	524	615	
1	0	0	0	0	523	615	
2	0	0	0	0	523	615	
3	0	0	0	0	522	617	
4	0	0	0	0	522	615	
5	0	0	0	0	521	615	
6	0	0	0	0	523	616	
7	0	0	0	0	523	614	
8	0	0	0	0	523	615	
9	0	0	0	0	524	616	
10	0	0	0	0	524	615	
11	0	0	0	0	524	618	
12	0	0	0	0	524	616	
13	0	0	0	0	524	615	
14	0	0	0	0	524	615	
15	0	0	0	0	523	612	
0	0	0	0	0	523	615	
1	0	0	0	0	522	615	
2	0	0	0	0	521	615	
3	0	0	0	0	521	617	
4	0	0	0	0	520	615	
5	0	0	0	0	519	615	
6	0	0	0	0	519	615	
7	0	0	0	0	519	613	
8	0	0	0	0	519	615	
9	0	0	0	0	520	615	
10	0	0	0	0	521	615	
11	0	0	0	0	522	617	
12	0	0	0	0	522	615	
13	0	0	0	0	523	615	
14	0	0	0	0	522	615	
15	0	0	0	0	523	613	
0	0	0	0	0	522	615	
1	0	0	0	0	522	615	
2	0	0	0	0	522	615	
3	0	0	0	0	521	618	
4	0	0	0	0	521	615	
5	0	0	0	0	520	615	
6	0	0	0	0	519	615	
7	0	0	0	0	519	614	
8	0	0	0	0	519	616	
9	0	0	0	0	519	615	
10	0	0	0	0	518	615	
11	0	0	0	0	518	617	
12	0	0	0	0	519	615	
13	0	0	0	0	519	615	
14	0	0	0	0	519	615	
15	0	0	0	0	520	613	
0	0	0	0	0	520	616	
1	0	0	0	0	521	616	
2	0	0	0	0	521	615	
3	0	0	0	0	522	617	
4	0	0	0	0	521	615	
5	0	0	0	0	521	615	
6	0	0	0	0	521	615	
7	0	0	0	0	520	614	
8	0	0	0	0	519	615	
9	0	0	0	0	519	615	
10	0	0	0	0	518	615	
11	0	0	0	0	517	617	
12	0	0	0	0	516	615	
13	0	0	0	0	516	615	
14	0	0	0	0	516	615	
15	0	0	0	0	516	613	
0	0	0	0	0	516	615	
1	0	0	0	0	516	615	
2	0	0	0	0	517	615	
3	0	0	0	0	517	617	
4	0	0	0	0	518	615	
5	0	0	0	0	519	615	
6	0	0	0	0	520	615	
7	0	0	0	0	520	613	
8	0	0	0	0	520	615	
9	0	0	0	0	520	615	
10	0	0	0	0	519	615	
11	0	0	0	0	519	617	
12	0	0	0	0	519	615	
13	0	0	0	0	518	615	
14	0	0	0	0	517	614	
15	0	0	0	0	517	612	
0	0	0	0	0	516	614	
1	0	0	0	0	516	614	
2	0	0	0	0	515	614	
3	0	0	0	0	515	616	
4	0	0	0	0	515	615	
5	0	0	0	0	516	614	
6	0	0	0	0	517	614	
7	0	0	0	0	518	611	
8	0	0	0	0	519	614	
9	0	0	0	0	519	614	
10	0	0	0	0	519	614	
11	0	0	0	0	520	616	
12	0	0	0	0	520	614	
13	0	0	0	0	520	614	
14	0	0	0	0	519	614	
15	0	0	0	0	518	611	
0	0	0	0	0	518	614	
1	0	0	0	0	518	614	
2	0	0	0	0	517	613	
3	0	0	0	0	517	615	
4	0	0	0	0	516	614	
5	0	0	0	0	515	613	
6	0	0	0	0	515	613	
7	0	0	0	0	515	611	
8	0	0	0	0	515	613	
9	0	0	0	0	515	614	
10	0	0	0	0	515	613	
11	0	0	0	0	516	615	
12	0	0	0	0	516	613	
13	0	0	0	0	518	614	
14	0	0	0	0	518	613	
15	0	0	0	0	518	611	
0	0	0	0	0	519	614	
1	0	0	0	0	519	614	
2	0	0	0	0	518	614	
3	0	0	0	0	517	615	
4	0	0	0	0	516	615	
5	0	0	0	0	515	614	
6	0	0	0	0	515	614	
7	0	0	0	0	514	612	
8	0	0	0	0	513	615	
9	0	0	0	0	513	615	
10	0	0	0	0	512	615	
11	0	0	0	0	512	616	
12	0	0	0	0	513	615	
13	0	0	0	0	513	615	
14	0	0	0	0	514	615	
15	0	0	0	0	515	614	
0	0	0	0	0	516	615	
1	0	0	0	0	516	615	
2	0	0	0	0	516	616	
3	0	0	0	0	516	617	
4	0	0	0	0	516	615	
5	0	0	0	0	516	615	
6	0	0	0	0	516	615	
7	0	0	0	0	516	613	
8	0	0	0	0	515	615	
9	0	0	0	0	515	615	
10	0	0	0	0	513	615	
11	0	0	0	0	513	617	
12	0	0	0	0	513	615	
13	0	0	0	0	513	615	
14	0	0	0	0	513	615	
15	0	0	0	0	513	614	
0	0	0	0	0	513	616	
1	0	0	0	0	514	616	
2	0	0	0	0	515	615	
3	0	0	0	0	515	617	
4	0	0	0	0	516	615	
5	0	0	0	0	517	615	
6	0	0	0	0	518	615	
7	0	0	0	0	518	614	
8	0	0	0	0	519	615	
9	0	0	0	0	518	615	
10	0	0	0	0	518	615	
11	0	0	0	0	517	617	
12	0	0	0	0	516	615	
13	0	0	0	0	515	615	
14	0	0	0	0	514	615	
15	0	0	0	0	513	612	
0	0	0	0	0	512	615	
1	0	0	0	0	512	615	
2	0	0	0	0	511	616	
3	0	0	0	0	510	617	
4	0	0	0	0	510	615	
5	0	0	0	0	510	615	
6	0	0	0	0	509	615	
7	0	0	0	0	509	613	
8	0	0	0	0	510	614	
9	0	0	0	0	510	615	
10	0	0	0	0	510	615	
11	0	0	0	0	510	617	
12	0	0	0	0	510	615	
13	0	0	0	0	510	615	
14	0	0	0	0	510	615	
15	0	0	0	0	509	613	
0	0	0	0	0	509	615	
1	0	0	0	0	508	615	
2	0	0	0	0	508	615	
3	0	0	0	0	508	617	
4	0	0	0	0	507	615	
5	0	0	0	0	507	615	
6	0	0	0	0	505	615	
7	0	0	0	0	506	613	
8	0	0	0	0	505	615	
9	0	0	0	0	506	615	
10	0	0	0	0	507	615	
11	0	0	0	0	507	617	
12	0	0	0	0	508	615	
13	0	0	0	0	508	615	
14	0	0	0	0	508	615	
15	0	0	0	0	508	612	
0	0	0	0	0	509	614	
1	0	0	0	0	510	615	
2	0	0	0	0	510	615	
3	0	0	0	0	511	617	
4	0	0	0	0	511	615	
5	0	0	0	0	511	615	
6	0	0	0	0	510	614	
7	0	0	0	0	510	611	
8	0	0	0	0	510	614	
9	0	0	0	0	509	614	
10	0	0	0	0	509	614	
11	0	0	0	0	509	616	
12	0	0	0	0	509	614	
13	0	0	0	0	509	614	
14	0	0	0	0	510	615	
15	0	0	0	0	511	612	
0	0	0	0	0	512	614	
1	0	0	0	0	512	614	
2	0	0	0	0	513	614	
3	0	0	0	0	514	616	
4	0	0	0	0	514	614	
5	0	0	0	0	514	614	
6	0	0	0	0	514	615	
7	0	0	0	0	514	612	
8	0	0	0	0	513	615	
9	0	0	0	0	513	615	
10	0	0	0	0	513	615	
11	0	0	0	0	514	617	
12	0	0	0	0	514	614	
13	0	0	0	0	514	614	
14	0	0	0	0	513	614	
15	0	0	0	0	513	611	
0	0	0	0	0	514	614	
1	0	0	0	0	514	614	
2	0	0	0	0	515	614	
3	0	0	0	0	516	616	
4	0	0	0	0	517	614	
5	0	0	0	0	518	614	
6	0	0	0	0	518	614	
7	0	0	0	0	518	612	
8	0	0	0	0	519	614	
9	0	0	0	0	519	615	
10	0	0	0	0	519	614	
11	0	0	0	0	518	616	
12	0	0	0	0	516	614	
13	0	0	0	0	515	615	
14	0	0	0	0	513	614	
15	0	0	0	0	514	613	
0	0	0	0	0	514	614	
1	0	0	0	0	514	615	
2	0	0	0	0	513	615	
3	0	0	0	0	512	617	
4	0	0	0	0	512	615	
5	0	0	0	0	512	615	
6	0	0	0	0	512	615	
7	0	0	0	0	513	613	
8	0	0	0	0	513	615	
9	0	0	0	0	515	615	
10	0	0	0	0	515	615	
11	0	0	0	0	515	617	
12	0	0	0	0	515	615	
13	0	0	0	0	515	615	
14	0	0	0	0	517	616	
15	0	0	0	0	516	614	
0	0	0	0	0	516	615	
1	0	0	0	0	515	615	
2	0	0	0	0	515	615	
3	0	0	0	0	515	617	
4	0	0	0	0	515	615	
5	0	0	0	0	514	615	
6	0	0	0	0	513	615	
7	0	0	0	0	513	613	
8	0	0	0	0	514	615	
9	0	0	0	0	514	615	
10	0	0	0	0	515	615	
11	0	0	0	0	515	617	
12	0	0	0	0	516	615	
13	0	0	0	0	516	615	
14	0	0	0	0	517	615	
15	0	0	0	0	517	613	
0	0	0	0	0	516	615	
1	0	0	0	0	516	615	
2	0	0	0	0	516	615	
3	0	0	0	0	516	617	
4	0	0	0	0	516	615	
5	0	0	0	0	515	615	
6	0	0	0	0	515	615	
7	0	0	0	0	515	612	
8	0	0	0	0	514	615	
9	0	0	0	0	513	615	
10	0	0	0	0	513	614	
11	0	0	0	0	514	616	
12	0	0	0	0	514	615	
13	0	0	0	0	514	614	
14	0	0	0	0	514	615	
15	0	0	0	0	514	612	
0	0	0	0	0	515	614	
1	0	0	0	0	515	615	
2	0	0	0	0	515	613	
3	0	0	0	0	515	615	
4	0	0	0	0	515	614	
5	0	0	0	0	515	614	
6	0	0	0	0	515	614	
7	0	0	0	0	515	611	
8	0	0	0	0	515	614	
9	0	0	0	0	513	614	
10	0	0	0	0	512	614	
11	0	0	0	0	510	616	
12	0	0	0	0	508	615	
13	0	0	0	0	505	614	
14	0	0	0	0	504	615	
15	0	0	0	0	501	612	
0	0	0	0	0	498	615	
1	0	0	0	0	496	615	
2	0	0	0	0	492	615	
3	0	0	0	0	489	616	
4	0	0	0	0	487	615	
5	0	0	0	0	484	615	
6	0	0	0	0	483	615	
7	0	0	0	0	480	613	
8	0	0	0	0	479	615	
9	0	0	0	0	477	615	
10	0	0	0	0	474	615	
11	0	0	0	0	470	617	
12	0	0	0	0	466	615	
13	0	0	0	0	461	615	
14	0	0	0	0	455	615	
15	0	0	0	0	449	613	
0	0	0	0	0	444	614	
1	0	0	0	0	440	615	
2	0	0	0	0	437	614	
3	0	0	0	0	436	616	
4	0	0	0	0	436	615	
5	0	0	0	0	436	615	
6	0	0	0	0	438	615	
7	0	0	0	0	441	613	
8	0	0	0	0	446	615	
9	0	0	0	0	451	615	
10	0	0	0	0	456	615	
11	0	0	0	0	463	617	
12	0	0	0	0	470	615	
13	0	0	0	0	475	615	
14	0	0	0	0	482	615	
15	0	0	0	0	489	613	
0	0	0	0	0	500	615	
1	0	0	0	0	515	615	
2	0	0	0	0	531	615	
3	0	0	0	0	549	617	
4	0	0	0	0	566	615	
5	0	0	0	0	581	615	
6	0	0	0	0	600	615	
7	0	0	0	0	623	612	
8	0	0	0	0	648	615	
9	0	0	0	0	675	614	
10	0	0	0	0	703	615	
11	0	0	0	0	729	617	
12	0	0	0	0	749	615	
13	0	0	0	0	758	615	
14	0	0	0	0	760	615	
15	0	0	0	0	756	613	
0	0	0	0	0	747	615	
1	0	0	0	0	734	615	
2	0	0	0	0	720	615	
3	0	0	0	0	704	617	
4	0	0	0	0	688	614	
5	0	0	0	0	672	614	
6	0	0	0	0	656	615	
7	0	0	0	0	641	613	
8	0	0	0	0	626	615	
9	0	0	0	0	612	615	
10	0	0	0	0	600	615	
11	0	0	0	0	588	616	
12	0	0	0	0	578	615	
13	0	0	0	0	569	615	
14	0	0	0	0	561	615	
15	0	0	0	0	553	613	
0	0	0	0	0	545	615	
1	0	0	0	0	539	615	
2	0	0	0	0	532	615	
3	0	0	0	0	525	617	
4	0	0	0	0	518	615	
5	0	0	0	0	512	615	
6	0	0	0	0	507	615	
7	0	0	0	0	501	613	
8	0	0	0	0	496	615	
9	0	0	0	0	492	615	
10	0	0	0	0	488	615	
11	0	0	0	0	486	617	
12	0	0	0	0	483	615	
13	0	0	0	0	480	615	
14	0	0	0	0	479	615	
15	0	0	0	0	478	613	
0	0	0	0	0	477	615	
1	0	0	0	0	476	615	
2	0	0	0	0	476	615	
3	0	0	0	0	476	616	
4	0	0	0	0	476	614	
5	0	0	0	0	477	614	
6	0	0	0	0	478	615	
7	0	0	0	0	478	612	
8	0	0	0	0	479	615	
9	0	0	0	0	479	614	
10	0	0	0	0	479	615	
11	0	0	0	0	478	616	
12	0	0	0	0	478	615	
13	0	0	0	0	477	615	
14	0	0	0	0	476	615	
15	0	0	0	0	476	613	
0	0	0	0	0	476	615	
1	0	0	0	0	475	615	
2	0	0	0	0	474	615	
3	0	0	0	0	474	617	
4	0	0	0	0	475	615	
5	0	0	0	0	476	615	
6	0	0	0	0	476	615	
7	0	0	0	0	477	612	
8	0	0	0	0	478	615	
9	0	0	0	0	479	615	
10	0	0	0	0	480	615	
11	0	0	0	0	480	616	
12	0	0	0	0	481	615	
13	0	0	0	0	481	615	
14	0	0	0	0	481	615	
15	0	0	0	0	480	612	
0	0	0	0	0	481	614	
1	0	0	0	0	481	614	
2	0	0	0	0	480	614	
3	0	0	0	0	480	616	
4	0	0	0	0	479	614	
5	0	0	0	0	479	614	
6	0	0	0	0	479	614	
7	0	0	0	0	478	612	
8	0	0	0	0	478	614	
9	0	0	0	0	479	614	
10	0	0	0	0	479	615	
11	0	0	0	0	481	616	
12	0	0	0	0	482	614	
13	0	0	0	0	483	615	
14	0	0	0	0	483	614	
15	0	0	0	0	483	612	
0	0	0	0	0	483	615	
1	0	0	0	0	483	614	
2	0	0	0	0	483	614	
3	0	0	0	0	483	617	
4	0	0	0	0	483	615	
5	0	0	0	0	483	615	
6	0	0	0	0	483	615	
7	0	0	0	0	483	613	
8	0	0	0	0	483	615	
9	0	0	0	0	483	616	
10	0	0	0	0	482	615	
11	0	0	0	0	482	617	
12	0	0	0	0	482	615	
13	0	0	0	0	482	615	
14	0	0	0	0	483	615	
15	0	0	0	0	484	613	
0	0	0	0	0	484	615	
1	0	0	0	0	486	615	
2	0	0	0	0	487	615	
3	0	0	0	0	487	617	
4	0	0	0	0	487	615	
5	0	0	0	0	488	615	
6	0	0	0	0	489	615	
7	0	0	0	0	489	613	
8	0	0	0	0	489	615	
9	0	0	0	0	489	615	
10	0	0	0	0	489	615	
11	0	0	0	0	488	617	
12	0	0	0	0	487	615	
13	0	0	0	0	487	615	
14	0	0	0	0	486	615	
15	0	0	0	0	486	613	
0	0	0	0	0	486	615	
1	0	0	0	0	487	615	
2	0	0	0	0	487	615	
3	0	0	0	0	487	617	
4	0	0	0	0	487	615	
5	0	0	0	0	489	615	
6	0	0	0	0	489	615	
7	0	0	0	0	489	614	
8	0	0	0	0	489	615	
9	0	0	0	0	490	615	
10	0	0	0	0	490	615	
11	0	0	0	0	489	617	
12	0	0	0	0	489	615	
13	0	0	0	0	489	615	
14	0	0	0	0	488	615	
15	0	0	0	0	488	612	
0	0	0	0	0	487	614	
1	0	0	0	0	487	614	
2	0	0	0	0	487	615	
3	0	0	0	0	487	616	
4	0	0	0	0	487	615	
5	0	0	0	0	487	614	
6	0	0	0	0	487	614	
7	0	0	0	0	487	612	
8	0	0	0	0	487	614	
9	0	0	0	0	488	614	
10	0	0	0	0	489	614	
11	0	0	0	0	488	616	
12	0	0	0	0	487	614	
13	0	0	0	0	487	614	
14	0	0	0	0	487	615	
15	0	0	0	0	487	612	
0	0	0	0	0	487	614	
1	0	0	0	0	487	614	
2	0	0	0	0	487	614	
3	0	0	0	0	487	616	
4	0	0	0	0	486	614	
5	0	0	0	0	485	614	
6	0	0	0	0	486	614	
7	0	0	0	0	486	611	
8	0	0	0	0	486	614	
9	0	0	0	0	485	615	
10	0	0	0	0	485	614	
11	0	0	0	0	486	616	
12	0	0	0	0	486	614	
13	0	0	0	0	487	614	
14	0	0	0	0	487	615	
15	0	0	0	0	487	612	
0	0	0	0	0	487	614	
1	0	0	0	0	487	614	
2	0	0	0	0	487	614	
3	0	0	0	0	487	616	
4	0	0	0	0	486	614	
5	0	0	0	0	485	615	
6	0	0	0	0	484	615	
7	0	0	0	0	483	613	
8	0	0	0	0	482	614	
9	0	0	0	0	481	615	
10	0	0	0	0	480	615	
11	0	0	0	0	480	617	
12	0	0	0	0	479	615	
13	0	0	0	0	480	615	
14	0	0	0	0	480	615	
15	0	0	0	0	480	613	
0	0	0	0	0	479	615	
1	0	0	0	0	480	615	
2	0	0	0	0	480	614	
3	0	0	0	0	480	617	
4	0	0	0	0	480	614	
5	0	0	0	0	480	615	
6	0	0	0	0	480	615	
7	0	0	0	0	480	613	
8	0	0	0	0	480	615	
9	0	0	0	0	480	615	
10	0	0	0	0	479	615	
11	0	0	0	0	479	617	
12	0	0	0	0	477	615	
13	0	0	0	0	476	615	
14	0	0	0	0	476	615	
15	0	0	0	0	476	613	
0	0	0	0	0	476	615	
1	0	0	0	0	477	615	
2	0	0	0	0	478	615	
3	0	0	0	0	478	617	
4	0	0	0	0	479	615	
5	0	0	0	0	480	615	
6	0	0	0	0	481	615	
7	0	0	0	0	482	613	
8	0	0	0	0	482	615	
9	0	0	0	0	482	615	
10	0	0	0	0	483	615	
11	0	0	0	0	483	617	
12	0	0	0	0	482	615	
13	0	0	0	0	482	615	
14	0	0	0	0	481	615	
15	0	0	0	0	481	612	
0	0	0	0	0	481	615	
1	0	0	0	0	481	615	
2	0	0	0	0	481	614	
3	0	0	0	0	481	615	
4	0	0	0	0	483	614	
5	0	0	0	0	483	614	
6	0	0	0	0	484	614	
7	0	0	0	0	486	612	
8	0	0	0	0	486	614	
9	0	0	0	0	487	614	
10	0	0	0	0	487	614	
11	0	0	0	0	488	615	
12	0	0	0	0	489	614	
13	0	0	0	0	490	614	
14	0	0	0	0	491	615	
15	0	0	0	0	491	612	
0	0	0	0	0	491	614	
1	0	0	0	0	491	614	
2	0	0	0	0	492	614	
3	0	0	0	0	492	616	
4	0	0	0	0	493	614	
5	0	0	0	0	494	614	
6	0	0	0	0	495	614	
7	0	0	0	0	497	612	
8	0	0	0	0	499	615	
9	0	0	0	0	500	614	
10	0	0	0	0	502	615	
11	0	0	0	0	504	616	
12	0	0	0	0	506	615	
13	0	0	0	0	508	615	
14	0	0	0	0	509	615	
15	0	0	0	0	511	612	
0	0	0	0	0	513	615	
1	0	0	0	0	515	615	
2	0	0	0	0	516	615	
3	0	0	0	0	518	616	
4	0	0	0	0	519	615	
5	0	0	0	0	520	615	
6	0	0	0	0	521	614	
7	0	0	0	0	522	612	
8	0	0	0	0	523	614	
9	0	0	0	0	523	614	
10	0	0	0	0	523	614	
11	0	0	0	0	525	616	
12	0	0	0	0	526	615	
13	0	0	0	0	527	615	
14	0	0	0	0	529	615	
15	0	0	0	0	531	612	
0	0	0	0	0	532	615	
1	0	0	0	0	534	615	
2	0	0	0	0	536	615	
3	0	0	0	0	537	617	
4	0	0	0	0	538	615	
5	0	0	0	0	539	615	
6	0	0	0	0	539	615	
7	0	0	0	0	540	614	
8	0	0	0	0	540	615	
9	0	0	0	0	540	615	
10	0	0	0	0	540	615	
11	0	0	0	0	540	617	
12	0	0	0	0	540	615	
13	0	0	0	0	540	615	
14	0	0	0	0	541	615	
15	0	0	0	0	541	613	
0	0	0	0	0	542	615	
1	0	0	0	0	543	615	
2	0	0	0	0	544	615	
3	0	0	0	0	546	617	
4	0	0	0	0	547	615	
5	0	0	0	0	549	615	
6	0	0	0	0	550	615	
7	0	0	0	0	550	613	
8	0	0	0	0	550	615	
9	0	0	0	0	550	615	
10	0	0	0	0	549	615	
11	0	0	0	0	548	617	
12	0	0	0	0	548	615	
13	0	0	0	0	547	615	
14	0	0	0	0	546	615	
15	0	0	0	0	545	613	
0	0	0	0	0	545	615	
1	0	0	0	0	544	615	
2	0	0	0	0	544	615	
3	0	0	0	0	544	617	
4	0	0	0	0	544	615	
5	0	0	0	0	544	615	
6	0	0	0	0	545	615	
7	0	0	0	0	547	613	
8	0	0	0	0	547	614	
9	0	0	0	0	547	615	
10	0	0	0	0	547	615	
11	0	0	0	0	548	617	
12	0	0	0	0	548	615	
13	0	0	0	0	548	615	
14	0	0	0	0	547	615	
15	0	0	0	0	547	613	
0	0	0	0	0	546	615	
1	0	0	0	0	545	615	
2	0	0	0	0	543	615	
3	0	0	0	0	543	617	
4	0	0	0	0	543	615	
5	0	0	0	0	543	615	
6	0	0	0	0	543	615	
7	0	0	0	0	543	612	
8	0	0	0	0	543	615	
9	0	0	0	0	543	614	
10	0	0	0	0	543	615	
11	0	0	0	0	544	616	
12	0	0	0	0	544	615	
13	0	0	0	0	544	615	
14	0	0	0	0	544	614	
15	0	0	0	0	543	612	
0	0	0	0	0	543	614	
1	0	0	0	0	543	614	
2	0	0	0	0	543	614	
3	0	0	0	0	542	616	
4	0	0	0	0	542	615	
5	0	0	0	0	541	614	
6	0	0	0	0	540	614	
7	0	0	0	0	539	612	
8	0	0	0	0	538	615	
9	0	0	0	0	537	615	
10	0	0	0	0	536	614	
11	0	0	0	0	536	617	
12	0	0	0	0	536	614	
13	0	0	0	0	536	614	
14	0	0	0	0	536	615	
15	0	0	0	0	537	612	
0	0	0	0	0	537	615	
1	0	0	0	0	537	615	
2	0	0	0	0	537	615	
3	0	0	0	0	537	616	
4	0	0	0	0	536	614	
5	0	0	0	0	536	615	
6	0	0	0	0	535	614	
7	0	0	0	0	535	612	
8	0	0	0	0	534	614	
9	0	0	0	0	534	614	
10	0	0	0	0	532	614	
11	0	0	0	0	532	616	
12	0	0	0	0	531	615	
13	0	0	0	0	531	615	
14	0	0	0	0	531	615	
15	0	0	0	0	529	613	
0	0	0	0	0	529	615	
1	0	0	0	0	529	615	
2	0	0	0	0	529	615	
3	0	0	0	0	530	617	
4	0	0	0	0	530	615	
5	0	0	0	0	531	615	
6	0	0	0	0	531	615	
7	0	0	0	0	532	613	
8	0	0	0	0	532	615	
9	0	0	0	0	532	615	
10	0	0	0	0	533	615	
11	0	0	0	0	532	617	
12	0	0	0	0	532	615	
13	0	0	0	0	531	615	
14	0	0	0	0	530	615	
15	0	0	0	0	529	612	
0	0	0	0	0	528	615	
1	0	0	0	0	527	614	
2	0	0	0	0	527	614	
3	0	0	0	0	526	616	
4	0	0	0	0	526	614	
5	0	0	0	0	526	615	
6	0	0	0	0	526	614	
7	0	0	0	0	527	612	
8	0	0	0	0	527	614	
9	0	0	0	0	527	615	
10	0	0	0	0	527	615	
11	0	0	0	0	528	616	
12	0	0	0	0	528	614	
13	0	0	0	0	527	614	
14	0	0	0	0	527	614	
15	0	0	0	0	527	612	
0	0	0	0	0	527	615	
1	0	0	0	0	526	614	
2	0	0	0	0	525	614	
3	0	0	0	0	524	616	
4	0	0	0	0	524	614	
5	0	0	0	0	523	614	
6	0	0	0	0	523	614	
7	0	0	0	0	523	612	
8	0	0	0	0	523	614	
9	0	0	0	0	524	614	
10	0	0	0	0	524	614	
11	0	0	0	0	525	616	
12	0	0	0	0	526	615	
13	0	0	0	0	526	615	
14	0	0	0	0	526	615	
15	0	0	0	0	527	612	
0	0	0	0	0	527	615	
1	0	0	0	0	527	614	
2	0	0	0	0	527	615	
3	0	0	0	0	526	616	
4	0	0	0	0	526	614	
5	0	0	0	0	525	614	
6	0	0	0	0	524	614	
7	0	0	0	0	523	612	
8	0	0	0	0	522	615	
9	0	0	0	0	521	614	
10	0	0	0	0	521	614	
11	0	0	0	0	521	616	
12	0	0	0	0	521	615	
13	0	0	0	0	521	615	
14	0	0	0	0	521	615	
15	0	0	0	0	522	612	
0	0	0	0	0	523	615	
1	0	0	0	0	523	615	
2	0	0	0	0	524	615	
3	0	0	0	0	524	617	
4	0	0	0	0	524	615	
5	0	0	0	0	524	615	
6	0	0	0	0	523	615	
7	0	0	0	0	522	613	
8	0	0	0	0	521	615	
9	0	0	0	0	521	615	
10	0	0	0	0	519	615	
11	0	0	0	0	519	617	
12	0	0	0	0	519	615	
13	0	0	0	0	519	615	
14	0	0	0	0	518	615	
15	0	0	0	0	519	613	
0	0	0	0	0	519	615	
1	0	0	0	0	519	615	
2	0	0	0	0	519	615	
3	0	0	0	0	519	617	
4	0	0	0	0	521	615	
5	0	0	0	0	521	615	
6	0	0	0	0	522	615	
7	0	0	0	0	522	613	
8	0	0	0	0	521	615	
9	0	0	0	0	522	615	
10	0	0	0	0	521	615	
11	0	0	0	0	521	617	
12	0	0	0	0	521	615	
13	0	0	0	0	521	615	
14	0	0	0	0	520	615	
15	0	0	0	0	519	613	
0	0	0	0	0	518	615	
1	0	0	0	0	518	614	
2	0	0	0	0	517	614	
3	0	0	0	0	517	616	
4	0	0	0	0	516	615	
5	0	0	0	0	516	614	
6	0	0	0	0	518	615	
7	0	0	0	0	518	612	
8	0	0	0	0	519	615	
9	0	0	0	0	519	615	
10	0	0	0	0	519	614	
11	0	0	0	0	520	617	
12	0	0	0	0	520	615	
13	0	0	0	0	520	614	
14	0	0	0	0	521	615	
15	0	0	0	0	521	613	
0	0	0	0	0	520	615	
1	0	0	0	0	519	615	
2	0	0	0	0	518	615	
3	0	0	0	0	518	617	
4	0	0	0	0	517	615	
5	0	0	0	0	517	615	
6	0	0	0	0	517	615	
7	0	0	0	0	516	613	
8	0	0	0	0	516	615	
9	0	0	0	0	517	615	
10	0	0	0	0	517	615	
11	0	0	0	0	518	616	
12	0	0	0	0	519	614	
13	0	0	0	0	520	614	
14	0	0	0	0	520	615	
15	0	0	0	0	522	612	
0	0	0	0	0	522	614	
1	0	0	0	0	522	614	
2	0	0	0	0	522	614	
3	0	0	0	0	521	615	
4	0	0	0	0	521	614	
5	0	0	0	0	521	614	
6	0	0	0	0	519	614	
7	0	0	0	0	519	612	
8	0	0	0	0	518	614	
9	0	0	0	0	518	614	
10	0	0	0	0	516	614	
11	0	0	0	0	516	616	
12	0	0	0	0	516	615	
13	0	0	0	0	516	614	
14	0	0	0	0	516	614	
15	0	0	0	0	516	612	
0	0	0	0	0	516	615	
1	0	0	0	0	517	614	
2	0	0	0	0	518	614	
3	0	0	0	0	518	616	
4	0	0	0	0	519	615	
5	0	0	0	0	519	615	
6	0	0	0	0	519	615	
7	0	0	0	0	518	612	
8	0	0	0	0	518	614	
9	0	0	0	0	518	614	
10	0	0	0	0	517	614	
11	0	0	0	0	517	616	
12	0	0	0	0	516	614	
13	0	0	0	0	515	614	
14	0	0	0	0	515	614	
15	0	0	0	0	514	612	
0	0	0	0	0	514	614	
1	0	0	0	0	514	614	
2	0	0	0	0	515	614	
3	0	0	0	0	516	617	
4	0	0	0	0	516	615	
5	0	0	0	0	517	614	
6	0	0	0	0	517	614	
7	0	0	0	0	518	612	
8	0	0	0	0	518	615	
9	0	0	0	0	518	614	
10	0	0	0	0	518	614	
11	0	0	0	0	518	615	
12	0	0	0	0	517	614	
13	0	0	0	0	516	614	
14	0	0	0	0	515	614	
15	0	0	0	0	515	612	
0	0	0	0	0	514	614	
1	0	0	0	0	513	615	
2	0	0	0	0	513	614	
3	0	0	0	0	513	616	
4	0	0	0	0	514	615	
5	0	0	0	0	514	614	
6	0	0	0	0	516	615	
7	0	0	0	0	517	612	
8	0	0	0	0	517	615	
9	0	0	0	0	518	615	
10	0	0	0	0	518	614	
11	0	0	0	0	519	617	
12	0	0	0	0	519	614	
13	0	0	0	0	519	614	
14	0	0	0	0	518	614	
15	0	0	0	0	518	612	
0	0	0	0	0	517	615	
1	0	0	0	0	516	615	
2	0	0	0	0	515	615	
3	0	0	0	0	515	617	
4	0	0	0	0	515	614	
5	0	0	0	0	514	615	
6	0	0	0	0	514	614	
7	0	0	0	0	514	613	
8	0	0	0	0	514	615	
9	0	0	0	0	515	615	
10	0	0	0	0	515	615	
11	0	0	0	0	516	617	
12	0	0	0	0	516	615	
13	0	0	0	0	517	615	
14	0	0	0	0	516	615	
15	0	0	0	0	517	613	
0	0	0	0	0	518	615	
1	0	0	0	0	518	615	
2	0	0	0	0	517	615	
3	0	0	0	0	516	616	
4	0	0	0	0	516	614	
5	0	0	0	0	515	614	
6	0	0	0	0	515	615	
7	0	0	0	0	515	613	
8	0	0	0	0	514	615	
9	0	0	0	0	514	615	
10	0	0	0	0	514	615	
11	0	0	0	0	513	616	
12	0	0	0	0	514	615	
13	0	0	0	0	514	615	
14	0	0	0	0	514	615	
15	0	0	0	0	515	612	
0	0	0	0	0	515	615	
1	0	0	0	0	515	615	
2	0	0	0	0	516	615	
3	0	0	0	0	515	616	
4	0	0	0	0	516	615	
5	0	0	0	0	516	615	
6	0	0	0	0	516	614	
7	0	0	0	0	516	612	
8	0	0	0	0	515	614	
9	0	0	0	0	514	615	
10	0	0	0	0	512	615	
11	0	0	0	0	512	616	
12	0	0	0	0	512	615	
13	0	0	0	0	511	615	
14	0	0	0	0	511	615	
15	0	0	0	0	510	612	
0	0	0	0	0	510	615	
1	0	0	0	0	510	615	
2	0	0	0	0	510	615	
3	0	0	0	0	510	616	
4	0	0	0	0	510	614	
5	0	0	0	0	510	615	
6	0	0	0	0	510	614	
7	0	0	0	0	510	612	
8	0	0	0	0	509	615	
9	0	0	0	0	509	614	
10	0	0	0	0	509	614	
11	0	0	0	0	508	616	
12	0	0	0	0	509	615	
13	0	0	0	0	510	615	
14	0	0	0	0	508	615	
15	0	0	0	0	508	613	
0	0	0	0	0	507	614	
1	0	0	0	0	507	615	
2	0	0	0	0	507	615	
3	0	0	0	0	506	617	
4	0	0	0	0	507	615	
5	0	0	0	0	506	615	
6	0	0	0	0	507	615	
7	0	0	0	0	508	613	
8	0	0	0	0	509	615	
9	0	0	0	0	510	615	
10	0	0	0	0	511	615	
11	0	0	0	0	511	616	
12	0	0	0	0	510	615	
13	0	0	0	0	509	614	
14	0	0	0	0	509	615	
15	0	0	0	0	509	611	
0	0	0	0	0	509	614	
1	0	0	0	0	510	614	
2	0	0	0	0	510	614	
3	0	0	0	0	510	616	
4	0	0	0	0	510	613	
5	0	0	0	0	510	614	
6	0	0	0	0	510	614	
7	0	0	0	0	510	611	
8	0	0	0	0	510	614	
9	0	0	0	0	510	614	
10	0	0	0	0	511	614	
11	0	0	0	0	512	615	
12	0	0	0	0	513	613	
13	0	0	0	0	514	614	
14	0	0	0	0	515	614	
15	0	0	0	0	516	612	
0	0	0	0	0	516	614	
1	0	0	0	0	516	614	
2	0	0	0	0	517	614	
3	0	0	0	0	517	616	
4	0	0	0	0	517	614	
5	0	0	0	0	516	614	
6	0	0	0	0	516	614	
7	0	0	0	0	516	612	
8	0	0	0	0	515	614	
9	0	0	0	0	515	614	
10	0	0	0	0	515	614	
11	0	0	0	0	515	617	
12	0	0	0	0	515	615	
13	0	0	0	0	515	615	
14	0	0	0	0	515	615	
15	0	0	0	0	516	613	
0	0	0	0	0	516	615	
1	0	0	0	0	517	614	
2	0	0	0	0	518	615	
3	0	0	0	0	519	617	
4	0	0	0	0	519	615	
5	0	0	0	0	519	615	
6	0	0	0	0	520	615	
7	0	0	0	0	520	613	
8	0	0	0	0	518	615	
9	0	0	0	0	517	615	
10	0	0	0	0	516	615	
11	0	0	0	0	515	617	
12	0	0	0	0	513	615	
13	0	0	0	0	513	615	
14	0	0	0	0	512	615	
15	0	0	0	0	512	613	
0	0	0	0	0	512	615	
1	0	0	0	0	512	615	
2	0	0	0	0	512	615	
3	0	0	0	0	514	617	
4	0	0	0	0	514	615	
5	0	0	0	0	515	615	
6	0	0	0	0	515	615	
7	0	0	0	0	515	612	
8	0	0	0	0	516	615	
9	0	0	0	0	515	615	
10	0	0	0	0	515	615	
11	0	0	0	0	516	617	
12	0	0	0	0	516	615	
13	0	0	0	0	515	615	
14	0	0	0	0	515	615	
15	0	0	0	0	514	613	
0	0	0	0	0	514	614	
1	0	0	0	0	514	614	
2	0	0	0	0	514	614	
3	0	0	0	0	515	617	
4	0	0	0	0	515	614	
5	0	0	0	0	515	614	
6	0	0	0	0	516	614	
7	0	0	0	0	516	612	
8	0	0	0	0	517	615	
9	0	0	0	0	518	614	
10	0	0	0	0	517	615	
11	0	0	0	0	518	616	
12	0	0	0	0	518	614	
13	0	0	0	0	517	614	
14	0	0	0	0	517	614	
15	0	0	0	0	517	611	
0	0	0	0	0	517	614	
1	0	0	0	0	517	613	
2	0	0	0	0	516	614	
3	0	0	0	0	516	617	
4	0	0	0	0	515	614	
5	0	0	0	0	514	615	
6	0	0	0	0	514	614	
7	0	0	0	0	514	612	
8	0	0	0	0	515	615	
9	0	0	0	0	515	614	
10	0	0	0	0	515	615	
11	0	0	0	0	516	616	
12	0	0	0	0	517	614	
13	0	0	0	0	518	614	
14	0	0	0	0	518	614	
15	0	0	0	0	518	612	
0	0	0	0	0	518	614	
1	0	0	0	0	519	614	
2	0	0	0	0	518	614	
3	0	0	0	0	518	616	
4	0	0	0	0	517	615	
5	0	0	0	0	516	615	
6	0	0	0	0	515	614	
7	0	0	0	0	515	612	
8	0	0	0	0	513	615	
9	0	0	0	0	511	615	
10	0	0	0	0	509	614	
11	0	0	0	0	507	616	
12	0	0	0	0	504	615	
13	0	0	0	0	502	615	
14	0	0	0	0	499	615	
15	0	0	0	0	496	613	
0	0	0	0	0	494	615	
1	0	0	0	0	491	615	
2	0	0	0	0	488	615	
3	0	0	0	0	486	617	
4	0	0	0	0	485	615	
5	0	0	0	0	482	615	
6	0	0	0	0	480	615	
7	0	0	0	0	476	612	
8	0	0	0	0	472	615	
9	0	0	0	0	467	615	
10	0	0	0	0	461	615	
11	0	0	0	0	456	617	
12	0	0	0	0	450	615	
13	0	0	0	0	446	615	
14	0	0	0	0	442	616	
15	0	0	0	0	440	613	
0	0	0	0	0	440	615	
1	0	0	0	0	439	615	
2	0	0	0	0	438	615	
3	0	0	0	0	439	617	
4	0	0	0	0	441	615	
5	0	0	0	0	445	615	
6	0	0	0	0	448	615	
7	0	0	0	0	453	613	
8	0	0	0	0	459	615	
9	0	0	0	0	463	615	
10	0	0	0	0	467	615	
11	0	0	0	0	472	617	
12	0	0	0	0	478	615	
13	0	0	0	0	487	614	
14	0	0	0	0	501	615	
15	0	0	0	0	518	612	
0	0	0	0	0	536	614	
1	0	0	0	0	555	614	
2	0	0	0	0	573	614	
3	0	0	0	0	595	616	
4	0	0	0	0	622	614	
5	0	0	0	0	649	614	
6	0	0	0	0	679	614	
7	0	0	0	0	709	612	
8	0	0	0	0	738	614	
9	0	0	0	0	759	614	
10	0	0	0	0	769	614	
11	0	0	0	0	771	616	
12	0	0	0	0	766	614	
13	0	0	0	0	756	614	
14	0	0	0	0	741	615	
15	0	0	0	0	725	612	
0	0	0	0	0	708	614	
1	0	0	0	0	691	614	
2	0	0	0	0	673	614	
3	0	0	0	0	657	616	
4	0	0	0	0	641	614	
5	0	0	0	0	626	614	
6	0	0	0	0	612	614	
7	0	0	0	0	599	612	
8	0	0	0	0	587	615	
9	0	0	0	0	576	615	
10	0	0	0	0	567	615	
11	0	0	0	0	559	617	
12	0	0	0	0	550	615	
13	0	0	0	0	543	615	
14	0	0	0	0	536	615	
15	0	0	0	0	529	613	
0	0	0	0	0	522	615	
1	0	0	0	0	516	615	
2	0	0	0	0	511	615	
3	0	0	0	0	506	617	
4	0	0	0	0	501	615	
5	0	0	0	0	496	615	
6	0	0	0	0	492	615	
7	0	0	0	0	489	613	
8	0	0	0	0	487	615	
9	0	0	0	0	484	615	
10	0	0	0	0	482	615	
11	0	0	0	0	481	617	
12	0	0	0	0	480	615	
13	0	0	0	0	480	615	
14	0	0	0	0	480	615	
15	0	0	0	0	480	613	
0	0	0	0	0	480	615	
1	0	0	0	0	479	615	
2	0	0	0	0	479	615	
3	0	0	0	0	480	617	
4	0	0	0	0	480	615	
5	0	0	0	0	480	615	
6	0	0	0	0	479	615	
7	0	0	0	0	479	613	
8	0	0	0	0	478	615	
9	0	0	0	0	477	615	
10	0	0	0	0	476	615	
11	0	0	0	0	475	616	
12	0	0	0	0	475	615	
13	0	0	0	0	474	615	
14	0	0	0	0	474	615	
15	0	0	0	0	474	613	
0	0	0	0	0	474	615	
1	0	0	0	0	475	615	
2	0	0	0	0	476	614	
3	0	0	0	0	476	616	
4	0	0	0	0	477	614	
5	0	0	0	0	478	615	
6	0	0	0	0	478	615	
7	0	0	0	0	479	612	
8	0	0	0	0	479	615	
9	0	0	0	0	480	614	
10	0	0	0	0	480	615	
11	0	0	0	0	480	616	
12	0	0	0	0	480	615	
13	0	0	0	0	480	615	
14	0	0	0	0	479	614	
15	0	0	0	0	479	612	
0	0	0	0	0	478	614	
1	0	0	0	0	478	615	
2	0	0	0	0	478	615	
3	0	0	0	0	479	616	
4	0	0	0	0	480	615	
5	0	0	0	0	480	615	
6	0	0	0	0	480	615	
7	0	0	0	0	480	613	
8	0	0	0	0	481	615	
9	0	0	0	0	482	614	
10	0	0	0	0	482	614	
11	0	0	0	0	483	616	
12	0	0	0	0	484	615	
13	0	0	0	0	484	614	
14	0	0	0	0	484	614	
15	0	0	0	0	484	612	
0	0	0	0	0	483	615	
1	0	0	0	0	483	614	
2	0	0	0	0	482	615	
3	0	0	0	0	483	617	
4	0	0	0	0	482	614	
5	0	0	0	0	482	615	
6	0	0	0	0	482	615	
7	0	0	0	0	483	613	
8	0	0	0	0	483	615	
9	0	0	0	0	484	615	
10	0	0	0	0	484	615	
11	0	0	0	0	484	617	
12	0	0	0	0	485	615	
13	0	0	0	0	486	615	
14	0	0	0	0	487	615	
15	0	0	0	0	487	613	
0	0	0	0	0	487	615	
1	0	0	0	0	487	615	
2	0	0	0	0	487	615	
3	0	0	0	0	487	617	
4	0	0	0	0	486	615	
5	0	0	0	0	485	615	
6	0	0	0	0	484	615	
7	0	0	0	0	483	613	
8	0	0	0	0	483	615	
9	0	0	0	0	483	615	
10	0	0	0	0	484	615	
11	0	0	0	0	484	617	
12	0	0	0	0	485	615	
13	0	0	0	0	486	615	
14	0	0	0	0	487	615	
15	0	0	0	0	487	613	
0	0	0	0	0	488	615	
1	0	0	0	0	489	615	
2	0	0	0	0	489	615	
3	0	0	0	0	490	617	
4	0	0	0	0	490	615	
5	0	0	0	0	490	615	
6	0	0	0	0	490	615	
7	0	0	0	0	489	613	
8	0	0	0	0	489	615	
9	0	0	0	0	489	615	
10	0	0	0	0	488	614	
11	0	0	0	0	487	616	
12	0	0	0	0	487	615	
13	0	0	0	0	487	615	
14	0	0	0	0	487	615	
15	0	0	0	0	487	612	
0	0	0	0	0	487	615	
1	0	0	0	0	488	615	
2	0	0	0	0	488	614	
3	0	0	0	0	489	616	
4	0	0	0	0	489	614	
5	0	0	0	0	491	614	
6	0	0	0	0	491	614	
7	0	0	0	0	491	611	
8	0	0	0	0	492	615	
9	0	0	0	0	492	614	
10	0	0	0	0	491	614	
11	0	0	0	0	491	616	
12	0	0	0	0	491	614	
13	0	0	0	0	489	614	
14	0	0	0	0	489	614	
15	0	0	0	0	488	611	
0	0	0	0	0	488	614	
1	0	0	0	0	487	614	
2	0	0	0	0	487	614	
3	0	0	0	0	487	616	
4	0	0	0	0	488	614	
5	0	0	0	0	488	614	
6	0	0	0	0	489	614	
7	0	0	0	0	490	612	
8	0	0	0	0	490	614	
9	0	0	0	0	491	615	
10	0	0	0	0	491	615	
11	0	0	0	0	491	617	
12	0	0	0	0	492	615	
13	0	0	0	0	491	615	
14	0	0	0	0	491	615	
15	0	0	0	0	489	612	
0	0	0	0	0	488	615	
1	0	0	0	0	487	615	
2	0	0	0	0	486	614	
3	0	0	0	0	486	616	
4	0	0	0	0	485	615	
5	0	0	0	0	485	615	
6	0	0	0	0	485	615	
7	0	0	0	0	484	613	
8	0	0	0	0	484	615	
9	0	0	0	0	483	615	
10	0	0	0	0	484	615	
11	0	0	0	0	484	617	
12	0	0	0	0	486	616	
13	0	0	0	0	487	615	
14	0	0	0	0	487	615	
15	0	0	0	0	487	613	
0	0	0	0	0	486	615	
1	0	0	0	0	486	615	
2	0	0	0	0	486	615	
3	0	0	0	0	485	617	
4	0	0	0	0	485	615	
5	0	0	0	0	484	615	
6	0	0	0	0	483	615	
7	0	0	0	0	483	613	
8	0	0	0	0	482	615	
9	0	0	0	0	481	615	
10	0	0	0	0	481	615	
11	0	0	0	0	481	616	
12	0	0	0	0	481	615	
13	0	0	0	0	481	615	
14	0	0	0	0	481	615	
15	0	0	0	0	482	612	
0	0	0	0	0	483	615	
1	0	0	0	0	483	615	
2	0	0	0	0	483	614	
3	0	0	0	0	483	616	
4	0	0	0	0	484	615	
5	0	0	0	0	483	614	
6	0	0	0	0	483	615	
7	0	0	0	0	483	613	
8	0	0	0	0	483	615	
9	0	0	0	0	483	615	
10	0	0	0	0	483	615	
11	0	0	0	0	482	617	
12	0	0	0	0	482	615	
13	0	0	0	0	481	615	
14	0	0	0	0	482	615	
15	0	0	0	0	482	613	
0	0	0	0	0	482	614	
1	0	0	0	0	483	614	
2	0	0	0	0	484	614	
3	0	0	0	0	485	616	
4	0	0	0	0	486	615	
5	0	0	0	0	487	615	
6	0	0	0	0	488	615	
7	0	0	0	0	489	612	
8	0	0	0	0	490	615	
9	0	0	0	0	490	615	
10	0	0	0	0	491	615	
11	0	0	0	0	490	616	
12	0	0	0	0	491	615	
13	0	0	0	0	491	615	
14	0	0	0	0	492	614	
15	0	0	0	0	492	612	
0	0	0	0	0	492	615	
1	0	0	0	0	493	614	
2	0	0	0	0	494	614	
3	0	0	0	0	495	616	
4	0	0	0	0	496	614	
5	0	0	0	0	498	615	
6	0	0	0	0	499	614	
7	0	0	0	0	501	612	
8	0	0	0	0	503	615	
9	0	0	0	0	505	615	
10	0	0	0	0	506	614	
11	0	0	0	0	507	616	
12	0	0	0	0	509	615	
13	0	0	0	0	510	615	
14	0	0	0	0	512	615	
15	0	0	0	0	512	612	
0	0	0	0	0	513	615	
1	0	0	0	0	514	615	
2	0	0	0	0	515	614	
3	0	0	0	0	515	616	
4	0	0	0	0	516	615	
5	0	0	0	0	518	615	
6	0	0	0	0	519	615	
7	0	0	0	0	519	613	
8	0	0	0	0	521	615	
9	0	0	0	0	523	614	
10	0	0	0	0	526	614	
11	0	0	0	0	527	617	
12	0	0	0	0	529	615	
13	0	0	0	0	530	615	
14	0	0	0	0	532	615	
15	0	0	0	0	534	613	
0	0	0	0	0	534	615	
1	0	0	0	0	535	615	
2	0	0	0	0	536	615	
3	0	0	0	0	537	617	
4	0	0	0	0	537	615	
5	0	0	0	0	536	615	
6	0	0	0	0	537	615	
7	0	0	0	0	536	613	
8	0	0	0	0	536	615	
9	0	0	0	0	536	615	
10	0	0	0	0	536	615	
11	0	0	0	0	536	617	
12	0	0	0	0	536	615	
13	0	0	0	0	536	615	
14	0	0	0	0	538	615	
15	0	0	0	0	540	613	
0	0	0	0	0	541	615	
1	0	0	0	0	542	615	
2	0	0	0	0	543	615	
3	0	0	0	0	544	617	
4	0	0	0	0	544	615	
5	0	0	0	0	545	615	
6	0	0	0	0	545	616	
7	0	0	0	0	545	613	
8	0	0	0	0	545	615	
9	0	0	0	0	544	615	
10	0	0	0	0	544	615	
11	0	0	0	0	544	617	
12	0	0	0	0	543	615	
13	0	0	0	0	543	615	
14	0	0	0	0	542	615	
15	0	0	0	0	542	613	
0	0	0	0	0	542	615	
1	0	0	0	0	543	615	
2	0	0	0	0	543	615	
3	0	0	0	0	543	617	
4	0	0	0	0	543	615	
5	0	0	0	0	544	615	
6	0	0	0	0	543	615	
7	0	0	0	0	543	613	
8	0	0	0	0	543	615	
9	0	0	0	0	543	615	
10	0	0	0	0	542	614	
11	0	0	0	0	541	616	
12	0	0	0	0	541	615	
13	0	0	0	0	541	615	
14	0	0	0	0	540	615	
15	0	0	0	0	540	612	
0	0	0	0	0	540	615	
1	0	0	0	0	540	615	
2	0	0	0	0	539	614	
3	0	0	0	0	539	616	
4	0	0	0	0	539	615	
5	0	0	0	0	539	614	
6	0	0	0	0	540	615	
7	0	0	0	0	540	612	
8	0	0	0	0	540	615	
9	0	0	0	0	541	615	
10	0	0	0	0	540	615	
11	0	0	0	0	540	617	
12	0	0	0	0	541	615	
13	0	0	0	0	540	615	
14	0	0	0	0	540	615	
15	0	0	0	0	540	612	
0	0	0	0	0	539	615	
1	0	0	0	0	538	615	
2	0	0	0	0	537	615	
3	0	0	0	0	537	617	
4	0	0	0	0	537	615	
5	0	0	0	0	536	615	
6	0	0	0	0	535	615	
7	0	0	0	0	536	612	
8	0	0	0	0	535	615	
9	0	0	0	0	535	614	
10	0	0	0	0	536	614	
11	0	0	0	0	536	616	
12	0	0	0	0	536	615	
13	0	0	0	0	536	615	
14	0	0	0	0	537	615	
15	0	0	0	0	537	612	
0	0	0	0	0	537	614	
1	0	0	0	0	537	614	
2	0	0	0	0	537	614	
3	0	0	0	0	536	616	
4	0	0	0	0	536	615	
5	0	0	0	0	534	615	
6	0	0	0	0	534	615	
7	0	0	0	0	533	613	
8	0	0	0	0	531	615	
9	0	0	0	0	530	615	
10	0	0	0	0	530	615	
11	0	0	0	0	530	617	
12	0	0	0	0	530	615	
13	0	0	0	0	531	615	
14	0	0	0	0	531	615	
15	0	0	0	0	530	613	
0	0	0	0	0	530	615	
1	0	0	0	0	531	615	
2	0	0	0	0	531	615	
3	0	0	0	0	531	617	
4	0	0	0	0	531	615	
5	0	0	0	0	531	615	
6	0	0	0	0	531	615	
7	0	0	0	0	530	613	
8	0	0	0	0	530	615	
9	0	0	0	0	529	614	
10	0	0	0	0	528	615	
11	0	0	0	0	528	617	
12	0	0	0	0	527	615	
13	0	0	0	0	527	615	
14	0	0	0	0	527	615	
15	0	0	0	0	527	612	
0	0	0	0	0	527	615	
1	0	0	0	0	527	615	
2	0	0	0	0	528	615	
3	0	0	0	0	529	617	
4	0	0	0	0	529	615	
5	0	0	0	0	529	615	
6	0	0	0	0	529	615	
7	0	0	0	0	530	613	
8	0	0	0	0	529	614	
9	0	0	0	0	529	615	
10	0	0	0	0	529	615	
11	0	0	0	0	529	616	
12	0	0	0	0	527	615	
13	0	0	0	0	526	615	
14	0	0	0	0	526	615	
15	0	0	0	0	525	613	
0	0	0	0	0	524	615	
1	0	0	0	0	524	615	
2	0	0	0	0	523	615	
3	0	0	0	0	523	617	
4	0	0	0	0	523	615	
5	0	0	0	0	523	615	
6	0	0	0	0	523	614	
7	0	0	0	0	523	612	
8	0	0	0	0	524	614	
9	0	0	0	0	524	614	
10	0	0	0	0	524	614	
11	0	0	0	0	524	616	
12	0	0	0	0	525	614	
13	0	0	0	0	524	614	
14	0	0	0	0	524	614	
15	0	0	0	0	524	612	
0	0	0	0	0	524	614	
1	0	0	0	0	523	614	
2	0	0	0	0	523	614	
3	0	0	0	0	523	617	
4	0	0	0	0	521	615	
5	0	0	0	0	521	615	
6	0	0	0	0	521	614	
7	0	0	0	0	521	612	
8	0	0	0	0	521	615	
9	0	0	0	0	520	614	
10	0	0	0	0	520	614	
11	0	0	0	0	520	616	
12	0	0	0	0	521	614	
13	0	0	0	0	522	615	
14	0	0	0	0	521	614	
15	0	0	0	0	521	612	
0	0	0	0	0	520	615	
1	0	0	0	0	520	614	
2	0	0	0	0	520	614	
3	0	0	0	0	520	617	
4	0	0	0	0	520	615	
5	0	0	0	0	519	615	
6	0	0	0	0	518	615	
7	0	0	0	0	518	613	
8	0	0	0	0	517	615	
9	0	0	0	0	517	615	
10	0	0	0	0	517	615	
11	0	0	0	0	517	617	
12	0	0	0	0	517	616	
13	0	0	0	0	518	615	
14	0	0	0	0	518	615	
15	0	0	0	0	519	613	
0	0	0	0	0	519	616	
1	0	0	0	0	520	615	
2	0	0	0	0	520	615	
3	0	0	0	0	520	618	
4	0	0	0	0	520	615	
5	0	0	0	0	520	615	
6	0	0	0	0	519	616	
7	0	0	0	0	519	614	
8	0	0	0	0	518	615	
9	0	0	0	0	518	616	
10	0	0	0	0	517	615	
11	0	0	0	0	517	618	
12	0	0	0	0	516	616	
13	0	0	0	0	515	616	
14	0	0	0	0	515	616	
15	0	0	0	0	515	614	
0	0	0	0	0	515	616	
1	0	0	0	0	515	616	
2	0	0	0	0	515	615	
3	0	0	0	0	516	617	
4	0	0	0	0	517	616	
5	0	0	0	0	518	616	
6	0	0	0	0	519	615	
7	0	0	0	0	519	613	
8	0	0	0	0	519	615	
9	0	0	0	0	519	615	
10	0	0	0	0	519	615	
11	0	0	0	0	518	617	
12	0	0	0	0	518	615	
13	0	0	0	0	518	615	
14	0	0	0	0	516	614	
15	0	0	0	0	516	612	
0	0	0	0	0	515	614	
1	0	0	0	0	515	615	
2	0	0	0	0	515	614	
3	0	0	0	0	515	616	
4	0	0	0	0	515	614	
5	0	0	0	0	515	614	
6	0	0	0	0	515	615	
7	0	0	0	0	516	612	
8	0	0	0	0	516	614	
9	0	0	0	0	518	614	
10	0	0	0	0	518	614	
11	0	0	0	0	519	616	
12	0	0	0	0	519	615	
13	0	0	0	0	518	615	
14	0	0	0	0	519	615	
15	0	0	0	0	518	612	
0	0	0	0	0	517	615	
1	0	0	0	0	517	615	
2	0	0	0	0	517	614	
3	0	0	0	0	516	616	
4	0	0	0	0	515	615	
5	0	0	0	0	515	615	
6	0	0	0	0	515	615	
7	0	0	0	0	515	612	
8	0	0	0	0	515	615	
9	0	0	0	0	515	615	
10	0	0	0	0	515	614	
11	0	0	0	0	515	617	
12	0	0	0	0	516	615	
13	0	0	0	0	517	615	
14	0	0	0	0	517	615	
15	0	0	0	0	517	612	
0	0	0	0	0	517	615	
1	0	0	0	0	518	615	
2	0	0	0	0	519	614	
3	0	0	0	0	519	617	
4	0	0	0	0	518	615	
5	0	0	0	0	518	614	
6	0	0	0	0	517	615	
7	0	0	0	0	517	612	
8	0	0	0	0	516	615	
9	0	0	0	0	516	615	
10	0	0	0	0	516	615	
11	0	0	0	0	516	617	
12	0	0	0	0	516	615	
13	0	0	0	0	517	615	
14	0	0	0	0	518	615	
15	0	0	0	0	518	613	
0	0	0	0	0	519	615	
1	0	0	0	0	519	615	
2	0	0	0	0	519	615	
3	0	0	0	0	519	617	
4	0	0	0	0	519	615	
5	0	0	0	0	518	615	
6	0	0	0	0	519	615	
7	0	0	0	0	518	612	
8	0	0	0	0	517	615	
9	0	0	0	0	516	615	
10	0	0	0	0	516	615	
11	0	0	0	0	516	616	
12	0	0	0	0	515	615	
13	0	0	0	0	514	615	
14	0	0	0	0	514	615	
15	0	0	0	0	514	613	
0	0	0	0	0	515	615	
1	0	0	0	0	515	615	
2	0	0	0	0	515	614	
3	0	0	0	0	516	616	
4	0	0	0	0	515	614	
5	0	0	0	0	515	615	
6	0	0	0	0	515	614	
7	0	0	0	0	516	613	
8	0	0	0	0	515	615	
9	0	0	0	0	515	615	
10	0	0	0	0	515	614	
11	0	0	0	0	515	617	
12	0	0	0	0	515	615	
13	0	0	0	0	514	615	
14	0	0	0	0	513	615	
15	0	0	0	0	513	612	
0	0	0	0	0	513	614	
1	0	0	0	0	513	615	
2	0	0	0	0	512	614	
3	0	0	0	0	512	616	
4	0	0	0	0	512	615	
5	0	0	0	0	512	615	
6	0	0	0	0	512	615	
7	0	0	0	0	513	612	
8	0	0	0	0	514	615	
9	0	0	0	0	514	615	
10	0	0	0	0	515	615	
11	0	0	0	0	515	617	
12	0	0	0	0	515	615	
13	0	0	0	0	514	615	
14	0	0	0	0	514	615	
15	0	0	0	0	514	614	
0	0	0	0	0	514	615	
1	0	0	0	0	514	615	
2	0	0	0	0	513	615	
3	0	0	0	0	513	617	
4	0	0	0	0	512	615	
5	0	0	0	0	512	615	
6	0	0	0	0	512	615	
7	0	0	0	0	513	612	
8	0	0	0	0	512	615	
9	0	0	0	0	512	615	
10	0	0	0	0	512	615	
11	0	0	0	0	512	617	
12	0	0	0	0	512	615	
13	0	0	0	0	513	615	
14	0	0	0	0	514	615	
15	0	0	0	0	514	613	
0	0	0	0	0	515	615	
1	0	0	0	0	514	615	
2	0	0	0	0	514	615	
3	0	0	0	0	513	617	
4	0	0	0	0	513	615	
5	0	0	0	0	513	615	
6	0	0	0	0	512	615	
7	0	0	0	0	512	613	
8	0	0	0	0	511	615	
9	0	0	0	0	511	615	
10	0	0	0	0	510	615	
11	0	0	0	0	510	617	
12	0	0	0	0	510	615	
13	0	0	0	0	510	615	
14	0	0	0	0	510	615	
15	0	0	0	0	511	612	
0	0	0	0	0	512	615	
1	0	0	0	0	513	615	
2	0	0	0	0	513	615	
3	0	0	0	0	513	616	
4	0	0	0	0	513	615	
5	0	0	0	0	513	615	
6	0	0	0	0	512	615	
7	0	0	0	0	511	612	
8	0	0	0	0	511	614	
9	0	0	0	0	511	614	
10	0	0	0	0	510	615	
11	0	0	0	0	510	616	
12	0	0	0	0	510	615	
13	0	0	0	0	509	615	
14	0	0	0	0	508	615	
15	0	0	0	0	509	612	
0	0	0	0	0	509	615	
1	0	0	0	0	509	614	
2	0	0	0	0	510	615	
3	0	0	0	0	511	617	
4	0	0	0	0	511	615	
5	0	0	0	0	511	615	
6	0	0	0	0	511	614	
7	0	0	0	0	512	612	
8	0	0	0	0	512	615	
9	0	0	0	0	512	615	
10	0	0	0	0	512	615	
11	0	0	0	0	511	617	
12	0	0	0	0	511	615	
13	0	0	0	0	510	615	
14	0	0	0	0	509	615	
15	0	0	0	0	508	612	
0	0	0	0	0	507	615	
1	0	0	0	0	506	615	
2	0	0	0	0	505	615	
3	0	0	0	0	504	616	
4	0	0	0	0	505	615	
5	0	0	0	0	505	615	
6	0	0	0	0	505	615	
7	0	0	0	0	505	613	
8	0	0	0	0	507	614	
9	0	0	0	0	508	615	
10	0	0	0	0	508	615	
11	0	0	0	0	508	617	
12	0	0	0	0	508	615	
13	0	0	0	0	508	615	
14	0	0	0	0	508	615	
15	0	0	0	0	507	612	
0	0	0	0	0	506	615	
1	0	0	0	0	505	615	
2	0	0	0	0	504	615	
3	0	0	0	0	504	617	
4	0	0	0	0	504	615	
5	0	0	0	0	503	615	
6	0	0	0	0	504	615	
7	0	0	0	0	503	613	
8	0	0	0	0	503	615	
9	0	0	0	0	504	614	
10	0	0	0	0	504	614	
11	0	0	0	0	505	617	
12	0	0	0	0	507	615	
13	0	0	0	0	508	615	
14	0	0	0	0	510	615	
15	0	0	0	0	510	613	
0	0	0	0	0	510	615	
1	0	0	0	0	510	615	
2	0	0	0	0	510	615	
3	0	0	0	0	510	617	
4	0	0	0	0	510	615	
5	0	0	0	0	509	615	
6	0	0	0	0	508	614	
7	0	0	0	0	508	613	
8	0	0	0	0	507	615	
9	0	0	0	0	508	615	
10	0	0	0	0	508	615	
11	0	0	0	0	508	617	
12	0	0	0	0	508	615	
13	0	0	0	0	509	615	
14	0	0	0	0	511	615	
15	0	0	0	0	512	613	
0	0	0	0	0	512	615	
1	0	0	0	0	513	615	
2	0	0	0	0	513	615	
3	0	0	0	0	513	617	
4	0	0	0	0	513	615	
5	0	0	0	0	512	615	
6	0	0	0	0	512	615	
7	0	0	0	0	512	613	
8	0	0	0	0	513	615	
9	0	0	0	0	512	615	
10	0	0	0	0	512	615	
11	0	0	0	0	512	617	
12	0	0	0	0	511	615	
13	0	0	0	0	511	615	
14	0	0	0	0	510	615	
15	0	0	0	0	510	613	
0	0	0	0	0	510	615	
1	0	0	0	0	511	615	
2	0	0	0	0	512	615	
3	0	0	0	0	513	617	
4	0	0	0	0	512	615	
5	0	0	0	0	512	615	
6	0	0	0	0	513	615	
7	0	0	0	0	512	613	
8	0	0	0	0	512	615	
9	0	0	0	0	512	616	
10	0	0	0	0	511	615	
11	0	0	0	0	510	617	
12	0	0	0	0	510	615	
13	0	0	0	0	509	615	
14	0	0	0	0	508	615	
15	0	0	0	0	509	613	
0	0	0	0	0	508	615	
1	0	0	0	0	508	615	
2	0	0	0	0	508	615	
3	0	0	0	0	508	617	
4	0	0	0	0	509	615	
5	0	0	0	0	510	615	
6	0	0	0	0	511	615	
7	0	0	0	0	512	612	
8	0	0	0	0	513	614	
9	0	0	0	0	514	614	
10	0	0	0	0	515	615	
11	0	0	0	0	515	616	
12	0	0	0	0	515	615	
13	0	0	0	0	515	614	
14	0	0	0	0	516	615	
15	0	0	0	0	516	612	
0	0	0	0	0	515	614	
1	0	0	0	0	515	615	
2	0	0	0	0	515	615	
3	0	0	0	0	513	617	
4	0	0	0	0	513	615	
5	0	0	0	0	512	615	
6	0	0	0	0	512	615	
7	0	0	0	0	512	613	
8	0	0	0	0	513	615	
9	0	0	0	0	513	615	
10	0	0	0	0	513	614	
11	0	0	0	0	514	616	
12	0	0	0	0	515	614	
13	0	0	0	0	515	614	
14	0	0	0	0	515	614	
15	0	0	0	0	515	611	
0	0	0	0	0	515	614	
1	0	0	0	0	515	614	
2	0	0	0	0	515	614	
3	0	0	0	0	515	616	
4	0	0	0	0	514	614	
5	0	0	0	0	514	614	
6	0	0	0	0	513	614	
7	0	0	0	0	512	612	
8	0	0	0	0	512	614	
9	0	0	0	0	512	614	
10	0	0	0	0	511	615	
11	0	0	0	0	511	616	
12	0	0	0	0	511	614	
13	0	0	0	0	511	614	
14	0	0	0	0	512	615	
15	0	0	0	0	512	612	
0	0	0	0	0	513	615	
1	0	0	0	0	513	615	
2	0	0	0	0	513	615	
3	0	0	0	0	512	616	
4	0	0	0	0	511	614	
5	0	0	0	0	510	614	
6	0	0	0	0	510	614	
7	0	0	0	0	508	612	
8	0	0	0	0	505	615	
9	0	0	0	0	503	614	
10	0	0	0	0	500	614	
11	0	0	0	0	497	616	
12	0	0	0	0	494	615	
13	0	0	0	0	489	615	
14	0	0	0	0	486	615	
15	0	0	0	0	484	612	
0	0	0	0	0	483	615	
1	0	0	0	0	481	615	
2	0	0	0	0	479	615	
3	0	0	0	0	476	617	
4	0	0	0	0	473	615	
5	0	0	0	0	469	615	
6	0	0	0	0	464	615	
7	0	0	0	0	459	614	
8	0	0	0	0	454	615	
9	0	0	0	0	449	615	
10	0	0	0	0	445	616	
11	0	0	0	0	442	618	
12	0	0	0	0	440	615	
13	0	0	0	0	438	616	
14	0	0	0	0	437	616	
15	0	0	0	0	436	614	
0	0	0	0	0	436	615	
1	0	0	0	0	440	615	
2	0	0	0	0	445	615	
3	0	0	0	0	449	618	
4	0	0	0	0	454	616	
5	0	0	0	0	460	616	
6	0	0	0	0	465	616	
7	0	0	0	0	472	614	
8	0	0	0	0	477	615	
9	0	0	0	0	482	615	
10	0	0	0	0	492	615	
11	0	0	0	0	505	617	
12	0	0	0	0	521	615	
13	0	0	0	0	539	615	
14	0	0	0	0	558	615	
15	0	0	0	0	580	613	
0	0	0	0	0	604	615	
1	0	0	0	0	631	615	
2	0	0	0	0	657	615	
3	0	0	0	0	687	617	
4	0	0	0	0	718	615	
5	0	0	0	0	748	615	
6	0	0	0	0	768	615	
7	0	0	0	0	779	612	
8	0	0	0	0	781	615	
9	0	0	0	0	775	615	
10	0	0	0	0	764	615	
11	0	0	0	0	750	617	
12	0	0	0	0	733	614	
13	0	0	0	0	715	615	
14	0	0	0	0	697	614	
15	0	0	0	0	679	612	
0	0	0	0	0	662	614	
1	0	0	0	0	646	614	
2	0	0	0	0	630	614	
3	0	0	0	0	614	616	
4	0	0	0	0	600	615	
5	0	0	0	0	585	614	
6	0	0	0	0	572	614	
7	0	0	0	0	562	612	
8	0	0	0	0	551	614	
9	0	0	0	0	541	614	
10	0	0	0	0	531	614	
11	0	0	0	0	523	616	
12	0	0	0	0	515	615	
13	0	0	0	0	508	614	
14	0	0	0	0	503	614	
15	0	0	0	0	499	612	
0	0	0	0	0	496	614	
1	0	0	0	0	493	614	
2	0	0	0	0	490	615	
3	0	0	0	0	487	616	
4	0	0	0	0	485	615	
5	0	0	0	0	483	615	
6	0	0	0	0	481	615	
7	0	0	0	0	479	613	
8	0	0	0	0	478	615	
9	0	0	0	0	477	615	
10	0	0	0	0	475	615	
11	0	0	0	0	474	617	
12	0	0	0	0	473	615	
13	0	0	0	0	473	615	
14	0	0	0	0	472	615	
15	0	0	0	0	471	612	
0	0	0	0	0	471	615	
1	0	0	0	0	471	615	
2	0	0	0	0	471	615	
3	0	0	0	0	471	617	
4	0	0	0	0	472	615	
5	0	0	0	0	472	615	
6	0	0	0	0	472	615	
7	0	0	0	0	473	613	
8	0	0	0	0	473	615	
9	0	0	0	0	472	615	
10	0	0	0	0	472	615	
11	0	0	0	0	472	618	
12	0	0	0	0	472	615	
13	0	0	0	0	471	616	
14	0	0	0	0	470	615	
15	0	0	0	0	470	613	
0	0	0	0	0	470	615	
1	0	0	0	0	470	615	
2	0	0	0	0	470	615	
3	0	0	0	0	470	617	
4	0	0	0	0	470	616	
5	0	0	0	0	470	616	
6	0	0	0	0	472	616	
7	0	0	0	0	473	614	
8	0	0	0	0	475	616	
9	0	0	0	0	475	616	
10	0	0	0	0	475	617	
11	0	0	0	0	476	619	
12	0	0	0	0	476	616	
13	0	0	0	0	476	616	
14	0	0	0	0	476	617	
15	0	0	0	0	477	615	
0	0	0	0	0	477	616	
1	0	0	0	0	477	616	
2	0	0	0	0	476	616	
3	0	0	0	0	475	618	
4	0	0	0	0	475	616	
5	0	0	0	0	475	615	
6	0	0	0	0	474	615	
7	0	0	0	0	474	612	
8	0	0	0	0	475	614	
9	0	0	0	0	476	614	
10	0	0	0	0	476	614	
11	0	0	0	0	477	615	
12	0	0	0	0	477	613	
13	0	0	0	0	478	614	
14	0	0	0	0	478	614	
15	0	0	0	0	478	611	
0	0	0	0	0	478	614	
1	0	0	0	0	479	614	
2	0	0	0	0	479	614	
3	0	0	0	0	479	615	
4	0	0	0	0	479	614	
5	0	0	0	0	478	615	
6	0	0	0	0	477	615	
7	0	0	0	0	477	613	
8	0	0	0	0	477	615	
9	0	0	0	0	476	615	
10	0	0	0	0	476	615	
11	0	0	0	0	476	617	
12	0	0	0	0	478	616	
13	0	0	0	0	478	615	
14	0	0	0	0	479	616	
15	0	0	0	0	480	614	
0	0	0	0	0	480	615	
1	0	0	0	0	481	615	
2	0	0	0	0	481	615	
3	0	0	0	0	482	617	
4	0	0	0	0	482	615	
5	0	0	0	0	482	615	
6	0	0	0	0	482	615	
7	0	0	0	0	483	612	
8	0	0	0	0	483	615	
9	0	0	0	0	482	615	
10	0	0	0	0	482	615	
11	0	0	0	0	482	616	
12	0	0	0	0	481	615	
13	0	0	0	0	480	615	
14	0	0	0	0	481	614	
15	0	0	0	0	480	612	
0	0	0	0	0	481	615	
1	0	0	0	0	481	615	
2	0	0	0	0	482	615	
3	0	0	0	0	483	617	
4	0	0	0	0	483	615	
5	0	0	0	0	484	615	
6	0	0	0	0	484	615	
7	0	0	0	0	484	612	
8	0	0	0	0	484	615	
9	0	0	0	0	485	615	
10	0	0	0	0	485	615	
11	0	0	0	0	484	616	
12	0	0	0	0	485	615	
13	0	0	0	0	484	615	
14	0	0	0	0	483	615	
15	0	0	0	0	482	612	
0	0	0	0	0	481	615	
1	0	0	0	0	481	615	
2	0	0	0	0	482	615	
3	0	0	0	0	482	616	
4	0	0	0	0	483	614	
5	0	0	0	0	483	614	
6	0	0	0	0	484	615	
7	0	0	0	0	485	612	
8	0	0	0	0	486	615	
9	0	0	0	0	486	614	
10	0	0	0	0	486	615	
11	0	0	0	0	486	616	
12	0	0	0	0	486	614	
13	0	0	0	0	486	614	
14	0	0	0	0	486	614	
15	0	0	0	0	485	612	
0	0	0	0	0	484	614	
1	0	0	0	0	484	614	
2	0	0	0	0	483	614	
3	0	0	0	0	482	616	
4	0	0	0	0	482	614	
5	0	0	0	0	481	615	
6	0	0	0	0	481	614	
7	0	0	0	0	481	612	
8	0	0	0	0	482	615	
9	0	0	0	0	482	615	
10	0	0	0	0	482	615	
11	0	0	0	0	482	616	
12	0	0	0	0	482	615	
13	0	0	0	0	482	614	
14	0	0	0	0	483	615	
15	0	0	0	0	483	612	
0	0	0	0	0	483	615	
1	0	0	0	0	482	615	
2	0	0	0	0	483	615	
3	0	0	0	0	483	616	
4	0	0	0	0	482	615	
5	0	0	0	0	483	615	
6	0	0	0	0	482	614	
7	0	0	0	0	481	612	
8	0	0	0	0	481	614	
9	0	0	0	0	480	614	
10	0	0	0	0	480	615	
11	0	0	0	0	480	616	
12	0	0	0	0	480	615	
13	0	0	0	0	480	615	
14	0	0	0	0	481	614	
15	0	0	0	0	481	614	
0	0	0	0	0	482	614	
1	0	0	0	0	482	615	
2	0	0	0	0	482	615	
3	0	0	0	0	482	617	
4	0	0	0	0	482	615	
5	0	0	0	0	481	615	
6	0	0	0	0	480	615	
7	0	0	0	0	480	612	
8	0	0	0	0	480	615	
9	0	0	0	0	480	615	
10	0	0	0	0	480	615	
11	0	0	0	0	479	616	
12	0	0	0	0	479	615	
13	0	0	0	0	479	615	
14	0	0	0	0	479	615	
15	0	0	0	0	479	612	
0	0	0	0	0	479	615	
1	0	0	0	0	479	615	
2	0	0	0	0	480	615	
3	0	0	0	0	481	617	
4	0	0	0	0	481	615	
5	0	0	0	0	482	615	
6	0	0	0	0	482	615	
7	0	0	0	0	483	612	
8	0	0	0	0	483	615	
9	0	0	0	0	483	615	
10	0	0	0	0	483	615	
11	0	0	0	0	483	616	
12	0	0	0	0	483	614	
13	0	0	0	0	483	614	
14	0	0	0	0	483	615	
15	0	0	0	0	482	612	
0	0	0	0	0	481	614	
1	0	0	0	0	482	614	
2	0	0	0	0	482	614	
3	0	0	0	0	482	616	
4	0	0	0	0	482	614	
5	0	0	0	0	483	614	
6	0	0	0	0	484	614	
7	0	0	0	0	486	612	
8	0	0	0	0	487	614	
9	0	0	0	0	488	615	
10	0	0	0	0	488	614	
11	0	0	0	0	490	616	
12	0	0	0	0	491	615	
13	0	0	0	0	492	614	
14	0	0	0	0	493	614	
15	0	0	0	0	494	611	
0	0	0	0	0	494	614	
1	0	0	0	0	494	614	
2	0	0	0	0	495	614	
3	0	0	0	0	496	616	
4	0	0	0	0	496	614	
5	0	0	0	0	497	614	
6	0	0	0	0	498	614	
7	0	0	0	0	499	612	
8	0	0	0	0	500	614	
9	0	0	0	0	502	615	
10	0	0	0	0	503	615	
11	0	0	0	0	505	616	
12	0	0	0	0	507	615	
13	0	0	0	0	509	614	
14	0	0	0	0	511	615	
15	0	0	0	0	512	612	
0	0	0	0	0	513	615	
1	0	0	0	0	514	615	
2	0	0	0	0	515	615	
3	0	0	0	0	516	617	
4	0	0	0	0	517	615	
5	0	0	0	0	517	615	
6	0	0	0	0	518	615	
7	0	0	0	0	519	613	
8	0	0	0	0	519	615	
9	0	0	0	0	520	615	
10	0	0	0	0	521	615	
11	0	0	0	0	523	616	
12	0	0	0	0	525	615	
13	0	0	0	0	527	615	
14	0	0	0	0	528	615	
15	0	0	0	0	529	613	
0	0	0	0	0	530	615	
1	0	0	0	0	531	615	
2	0	0	0	0	532	615	
3	0	0	0	0	534	617	
4	0	0	0	0	534	615	
5	0	0	0	0	535	615	
6	0	0	0	0	536	615	
7	0	0	0	0	536	613	
8	0	0	0	0	535	615	
9	0	0	0	0	535	615	
10	0	0	0	0	535	615	
11	0	0	0	0	535	616	
12	0	0	0	0	535	614	
13	0	0	0	0	534	615	
14	0	0	0	0	535	614	
15	0	0	0	0	535	612	
0	0	0	0	0	536	615	
1	0	0	0	0	536	614	
2	0	0	0	0	537	614	
3	0	0	0	0	538	616	
4	0	0	0	0	539	615	
5	0	0	0	0	540	615	
6	0	0	0	0	540	615	
7	0	0	0	0	541	613	
8	0	0	0	0	542	615	
9	0	0	0	0	541	614	
10	0	0	0	0	541	615	
11	0	0	0	0	540	617	
12	0	0	0	0	540	615	
13	0	0	0	0	539	615	
14	0	0	0	0	538	614	
15	0	0	0	0	537	613	
0	0	0	0	0	536	615	
1	0	0	0	0	536	615	
2	0	0	0	0	535	614	
3	0	0	0	0	535	616	
4	0	0	0	0	535	614	
5	0	0	0	0	536	615	
6	0	0	0	0	537	615	
7	0	0	0	0	537	613	
8	0	0	0	0	537	615	
9	0	0	0	0	539	615	
10	0	0	0	0	539	615	
11	0	0	0	0	539	617	
12	0	0	0	0	539	615	
13	0	0	0	0	539	615	
14	0	0	0	0	538	615	
15	0	0	0	0	538	614	
0	0	0	0	0	537	615	
1	0	0	0	0	536	615	
2	0	0	0	0	536	615	
3	0	0	0	0	535	617	
4	0	0	0	0	535	615	
5	0	0	0	0	535	615	
6	0	0	0	0	535	615	
7	0	0	0	0	534	613	
8	0	0	0	0	535	615	
9	0	0	0	0	535	615	
10	0	0	0	0	534	615	
11	0	0	0	0	534	617	
12	0	0	0	0	535	616	
13	0	0	0	0	535	615	
14	0	0	0	0	536	615	
15	0	0	0	0	536	613	
0	0	0	0	0	536	615	
1	0	0	0	0	536	615	
2	0	0	0	0	536	615	
3	0	0	0	0	535	617	
4	0	0	0	0	535	615	
5	0	0	0	0	534	615	
6	0	0	0	0	533	615	
7	0	0	0	0	532	612	
8	0	0	0	0	531	615	
9	0	0	0	0	531	615	
10	0	0	0	0	531	615	
11	0	0	0	0	531	616	
12	0	0	0	0	530	615	
13	0	0	0	0	530	615	
14	0	0	0	0	531	614	
15	0	0	0	0	531	612	
0	0	0	0	0	530	614	
1	0	0	0	0	531	614	
2	0	0	0	0	531	614	
3	0	0	0	0	531	616	
4	0	0	0	0	531	614	
5	0	0	0	0	531	614	
6	0	0	0	0	531	614	
7	0	0	0	0	530	612	
8	0	0	0	0	530	614	
9	0	0	0	0	529	614	
10	0	0	0	0	528	613	
11	0	0	0	0	527	616	
12	0	0	0	0	526	614	
13	0	0	0	0	526	614	
14	0	0	0	0	525	614	
15	0	0	0	0	525	612	
0	0	0	0	0	525	614	
1	0	0	0	0	526	613	
2	0	0	0	0	526	613	
3	0	0	0	0	526	616	
4	0	0	0	0	527	614	
5	0	0	0	0	527	615	
6	0	0	0	0	527	614	
7	0	0	0	0	527	612	
8	0	0	0	0	528	614	
9	0	0	0	0	528	615	
10	0	0	0	0	528	614	
11	0	0	0	0	527	616	
12	0	0	0	0	527	615	
13	0	0	0	0	526	615	
14	0	0	0	0	525	615	
15	0	0	0	0	525	612	
0	0	0	0	0	524	615	
1	0	0	0	0	524	615	
2	0	0	0	0	524	614	
3	0	0	0	0	524	616	
4	0	0	0	0	524	615	
5	0	0	0	0	525	615	
6	0	0	0	0	526	615	
7	0	0	0	0	525	613	
8	0	0	0	0	526	615	
9	0	0	0	0	526	615	
10	0	0	0	0	527	615	
11	0	0	0	0	527	618	
12	0	0	0	0	527	615	
13	0	0	0	0	526	615	
14	0	0	0	0	526	615	
15	0	0	0	0	525	614	
0	0	0	0	0	524	615	
1	0	0	0	0	524	615	
2	0	0	0	0	523	614	
3	0	0	0	0	522	616	
4	0	0	0	0	522	615	
5	0	0	0	0	521	615	
6	0	0	0	0	521	615	
7	0	0	0	0	521	612	
8	0	0	0	0	521	615	
9	0	0	0	0	521	614	
10	0	0	0	0	521	615	
11	0	0	0	0	522	616	
12	0	0	0	0	523	615	
13	0	0	0	0	523	615	
14	0	0	0	0	524	615	
15	0	0	0	0	524	612	
0	0	0	0	0	524	615	
1	0	0	0	0	524	614	
2	0	0	0	0	524	615	
3	0	0	0	0	523	616	
4	0	0	0	0	523	614	
5	0	0	0	0	523	614	
6	0	0	0	0	521	614	
7	0	0	0	0	520	611	
8	0	0	0	0	520	614	
9	0	0	0	0	519	614	
10	0	0	0	0	519	614	
11	0	0	0	0	519	616	
12	0	0	0	0	519	615	
13	0	0	0	0	520	615	
14	0	0	0	0	520	615	
15	0	0	0	0	520	613	
0	0	0	0	0	520	615	
1	0	0	0	0	521	615	
2	0	0	0	0	521	615	
3	0	0	0	0	522	617	
4	0	0	0	0	521	615	
5	0	0	0	0	522	615	
6	0	0	0	0	521	615	
7	0	0	0	0	521	613	
8	0	0	0	0	520	615	
9	0	0	0	0	520	615	
10	0	0	0	0	519	615	
11	0	0	0	0	519	617	
12	0	0	0	0	518	615	
13	0	0	0	0	517	615	
14	0	0	0	0	517	615	
15	0	0	0	0	516	613	
0	0	0	0	0	517	615	
1	0	0	0	0	518	615	
2	0	0	0	0	519	615	
3	0	0	0	0	519	617	
4	0	0	0	0	519	615	
5	0	0	0	0	520	615	
6	0	0	0	0	520	615	
7	0	0	0	0	521	613	
8	0	0	0	0	521	615	
9	0	0	0	0	520	615	
10	0	0	0	0	520	615	
11	0	0	0	0	520	617	
12	0	0	0	0	519	615	
13	0	0	0	0	519	615	
14	0	0	0	0	519	615	
15	0	0	0	0	518	614	
0	0	0	0	0	518	615	
1	0	0	0	0	517	615	
2	0	0	0	0	517	615	
3	0	0	0	0	516	617	
4	0	0	0	0	517	615	
5	0	0	0	0	517	615	
6	0	0	0	0	518	616	
7	0	0	0	0	519	614	
8	0	0	0	0	519	615	
9	0	0	0	0	521	615	
10	0	0	0	0	520	615	
11	0	0	0	0	520	617	
12	0	0	0	0	520	615	
13	0	0	0	0	520	615	
14	0	0	0	0	520	615	
15	0	0	0	0	520	612	
0	0	0	0	0	519	615	
1	0	0	0	0	519	614	
2	0	0	0	0	518	614	
3	0	0	0	0	518	616	
4	0	0	0	0	517	614	
5	0	0	0	0	517	614	
6	0	0	0	0	516	614	
7	0	0	0	0	516	611	
8	0	0	0	0	516	614	
9	0	0	0	0	516	614	
10	0	0	0	0	517	614	
11	0	0	0	0	518	616	
12	0	0	0	0	518	614	
13	0	0	0	0	518	615	
14	0	0	0	0	519	614	
15	0	0	0	0	519	612	
0	0	0	0	0	519	614	
1	0	0	0	0	518	614	
2	0	0	0	0	518	614	
3	0	0	0	0	518	617	
4	0	0	0	0	518	615	
5	0	0	0	0	518	615	
6	0	0	0	0	517	614	
7	0	0	0	0	517	612	
8	0	0	0	0	516	615	
9	0	0	0	0	515	614	
10	0	0	0	0	514	614	
11	0	0	0	0	513	616	
12	0	0	0	0	514	614	
13	0	0	0	0	514	615	
14	0	0	0	0	515	615	
15	0	0	0	0	515	613	
0	0	0	0	0	516	615	
1	0	0	0	0	517	615	
2	0	0	0	0	517	615	
3	0	0	0	0	518	617	
4	0	0	0	0	519	615	
5	0	0	0	0	519	615	
6	0	0	0	0	519	615	
7	0	0	0	0	519	612	
8	0	0	0	0	518	615	
9	0	0	0	0	518	615	
10	0	0	0	0	517	614	
11	0	0	0	0	517	617	
12	0	0	0	0	516	615	
13	0	0	0	0	516	614	
14	0	0	0	0	515	614	
15	0	0	0	0	515	612	
0	0	0	0	0	515	614	
1	0	0	0	0	515	614	
2	0	0	0	0	515	614	
3	0	0	0	0	515	617	
4	0	0	0	0	517	615	
5	0	0	0	0	517	615	
6	0	0	0	0	517	614	
7	0	0	0	0	517	613	
8	0	0	0	0	517	615	
9	0	0	0	0	517	615	
10	0	0	0	0	516	616	
11	0	0	0	0	516	617	
12	0	0	0	0	516	615	
13	0	0	0	0	515	616	
14	0	0	0	0	515	616	
15	0	0	0	0	514	613	
0	0	0	0	0	514	615	
1	0	0	0	0	513	615	
2	0	0	0	0	513	615	
3	0	0	0	0	513	616	
4	0	0	0	0	513	614	
5	0	0	0	0	513	614	
6	0	0	0	0	514	614	
7	0	0	0	0	515	612	
8	0	0	0	0	516	614	
9	0	0	0	0	517	614	
10	0	0	0	0	517	614	
11	0	0	0	0	518	617	
12	0	0	0	0	518	615	
13	0	0	0	0	518	615	
14	0	0	0	0	518	615	
15	0	0	0	0	517	613	
0	0	0	0	0	516	615	
1	0	0	0	0	515	615	
2	0	0	0	0	515	615	
3	0	0	0	0	515	618	
4	0	0	0	0	515	615	
5	0	0	0	0	514	615	
6	0	0	0	0	514	615	
7	0	0	0	0	514	614	
8	0	0	0	0	514	615	
9	0	0	0	0	515	615	
10	0	0	0	0	515	615	
11	0	0	0	0	516	617	
12	0	0	0	0	516	615	
13	0	0	0	0	516	615	
14	0	0	0	0	516	615	
15	0	0	0	0	516	612	
0	0	0	0	0	516	615	
1	0	0	0	0	516	615	
2	0	0	0	0	516	615	
3	0	0	0	0	515	617	
4	0	0	0	0	514	615	
5	0	0	0	0	515	615	
6	0	0	0	0	514	615	
7	0	0	0	0	515	612	
8	0	0	0	0	514	614	
9	0	0	0	0	513	615	
10	0	0	0	0	513	615	
11	0	0	0	0	514	617	
12	0	0	0	0	514	615	
13	0	0	0	0	514	615	
14	0	0	0	0	514	615	
15	0	0	0	0	514	612	
0	0	0	0	0	515	615	
1	0	0	0	0	516	615	
2	0	0	0	0	516	615	
3	0	0	0	0	517	617	
4	0	0	0	0	517	615	
5	0	0	0	0	517	615	
6	0	0	0	0	517	615	
7	0	0	0	0	516	613	
8	0	0	0	0	516	615	
9	0	0	0	0	515	615	
10	0	0	0	0	515	615	
11	0	0	0	0	515	617	
12	0	0	0	0	514	615	
13	0	0	0	0	513	615	
14	0	0	0	0	512	615	
15	0	0	0	0	512	613	
0	0	0	0	0	513	615	
1	0	0	0	0	514	615	
2	0	0	0	0	513	615	
3	0	0	0	0	514	616	
4	0	0	0	0	514	615	
5	0	0	0	0	515	615	
6	0	0	0	0	515	614	
7	0	0	0	0	515	612	
8	0	0	0	0	516	614	
9	0	0	0	0	516	614	
10	0	0	0	0	516	615	
11	0	0	0	0	515	616	
12	0	0	0	0	515	614	
13	0	0	0	0	515	614	
14	0	0	0	0	514	614	
15	0	0	0	0	513	612	
0	0	0	0	0	512	614	
1	0	0	0	0	512	614	
2	0	0	0	0	512	614	
3	0	0	0	0	511	616	
4	0	0	0	0	511	614	
5	0	0	0	0	511	614	
6	0	0	0	0	512	613	
7	0	0	0	0	512	612	
8	0	0	0	0	513	614	
9	0	0	0	0	513	614	
10	0	0	0	0	514	614	
11	0	0	0	0	514	615	
12	0	0	0	0	515	614	
13	0	0	0	0	515	613	
14	0	0	0	0	514	614	
15	0	0	0	0	513	611	
0	0	0	0	0	513	614	
1	0	0	0	0	512	614	
2	0	0	0	0	511	614	
3	0	0	0	0	510	616	
4	0	0	0	0	509	614	
5	0	0	0	0	508	615	
6	0	0	0	0	508	615	
7	0	0	0	0	508	612	
8	0	0	0	0	507	615	
9	0	0	0	0	508	614	
10	0	0	0	0	508	615	
11	0	0	0	0	508	617	
12	0	0	0	0	509	615	
13	0	0	0	0	509	614	
14	0	0	0	0	510	615	
15	0	0	0	0	509	613	
0	0	0	0	0	510	615	
1	0	0	0	0	510	615	
2	0	0	0	0	509	615	
3	0	0	0	0	509	617	
4	0	0	0	0	508	615	
5	0	0	0	0	508	615	
6	0	0	0	0	507	615	
7	0	0	0	0	506	613	
8	0	0	0	0	506	615	
9	0	0	0	0	505	615	
10	0	0	0	0	505	615	
11	0	0	0	0	504	618	
12	0	0	0	0	505	615	
13	0	0	0	0	505	615	
14	0	0	0	0	507	615	
15	0	0	0	0	507	613	
0	0	0	0	0	507	615	
1	0	0	0	0	507	615	
2	0	0	0	0	508	615	
3	0	0	0	0	509	617	
4	0	0	0	0	509	615	
5	0	0	0	0	509	615	
6	0	0	0	0	510	615	
7	0	0	0	0	510	613	
8	0	0	0	0	510	615	
9	0	0	0	0	510	615	
10	0	0	0	0	510	615	
11	0	0	0	0	510	617	
12	0	0	0	0	509	615	
13	0	0	0	0	509	615	
14	0	0	0	0	510	615	
15	0	0	0	0	510	612	
0	0	0	0	0	511	615	
1	0	0	0	0	512	615	
2	0	0	0	0	512	615	
3	0	0	0	0	513	617	
4	0	0	0	0	515	614	
5	0	0	0	0	515	614	
6	0	0	0	0	516	615	
7	0	0	0	0	516	613	
8	0	0	0	0	516	615	
9	0	0	0	0	516	615	
10	0	0	0	0	516	615	
11	0	0	0	0	515	617	
12	0	0	0	0	515	615	
13	0	0	0	0	515	615	
14	0	0	0	0	515	615	
15	0	0	0	0	515	612	
0	0	0	0	0	515	615	
1	0	0	0	0	514	615	
2	0	0	0	0	515	614	
3	0	0	0	0	515	617	
4	0	0	0	0	515	614	
5	0	0	0	0	515	615	
6	0	0	0	0	515	615	
7	0	0	0	0	516	612	
8	0	0	0	0	517	615	
9	0	0	0	0	518	615	
10	0	0	0	0	518	615	
11	0	0	0	0	518	617	
12	0	0	0	0	518	615	
13	0	0	0	0	517	615	
14	0	0	0	0	516	615	
15	0	0	0	0	516	613	
0	0	0	0	0	515	615	
1	0	0	0	0	515	615	
2	0	0	0	0	514	615	
3	0	0	0	0	513	617	
4	0	0	0	0	513	615	
5	0	0	0	0	512	615	
6	0	0	0	0	512	615	
7	0	0	0	0	511	614	
8	0	0	0	0	512	615	
9	0	0	0	0	513	615	
10	0	0	0	0	514	615	
11	0	0	0	0	514	617	
12	0	0	0	0	515	615	
13	0	0	0	0	516	615	
14	0	0	0	0	516	615	
15	0	0	0	0	517	613	
0	0	0	0	0	517	616	
1	0	0	0	0	516	615	
2	0	0	0	0	517	615	
3	0	0	0	0	516	617	
4	0	0	0	0	516	615	
5	0	0	0	0	515	615	
6	0	0	0	0	515	615	
7	0	0	0	0	514	613	
8	0	0	0	0	514	615	
9	0	0	0	0	513	615	
10	0	0	0	0	513	615	
11	0	0	0	0	513	617	
12	0	0	0	0	515	616	
13	0	0	0	0	515	615	
14	0	0	0	0	516	615	
15	0	0	0	0	517	612	
0	0	0	0	0	518	615	
1	0	0	0	0	518	615	
2	0	0	0	0	519	614	
3	0	0	0	0	519	616	
4	0	0	0	0	519	615	
5	0	0	0	0	518	614	
6	0	0	0	0	518	615	
7	0	0	0	0	517	612	
8	0	0	0	0	516	614	
9	0	0	0	0	516	614	
10	0	0	0	0	515	615	
11	0	0	0	0	514	617	
12	0	0	0	0	513	615	
13	0	0	0	0	514	615	
14	0	0	0	0	512	615	
15	0	0	0	0	512	612	
0	0	0	0	0	512	614	
1	0	0	0	0	513	615	
2	0	0	0	0	513	614	
3	0	0	0	0	514	616	
4	0	0	0	0	514	614	
5	0	0	0	0	515	614	
6	0	0	0	0	515	614	
7	0	0	0	0	515	612	
8	0	0	0	0	514	615	
9	0	0	0	0	513	615	
10	0	0	0	0	512	614	
11	0	0	0	0	511	616	
12	0	0	0	0	510	614	
13	0	0	0	0	508	614	
14	0	0	0	0	505	614	
15	0	0	0	0	502	612	
0	0	0	0	0	498	614	
1	0	0	0	0	495	614	
2	0	0	0	0	492	614	
3	0	0	0	0	488	616	
4	0	0	0	0	486	614	
5	0	0	0	0	483	614	
6	0	0	0	0	482	615	
7	0	0	0	0	481	613	
8	0	0	0	0	478	614	
9	0	0	0	0	475	615	
10	0	0	0	0	472	615	
11	0	0	0	0	468	617	
12	0	0	0	0	464	615	
13	0	0	0	0	459	615	
14	0	0	0	0	454	615	
15	0	0	0	0	449	613	
0	0	0	0	0	447	615	
1	0	0	0	0	444	615	
2	0	0	0	0	444	615	
3	0	0	0	0	443	617	
4	0	0	0	0	441	615	
5	0	0	0	0	442	616	
6	0	0	0	0	445	615	
7	0	0	0	0	451	614	
8	0	0	0	0	457	615	
9	0	0	0	0	464	615	
10	0	0	0	0	471	615	
11	0	0	0	0	478	618	
12	0	0	0	0	484	615	
13	0	0	0	0	491	615	
14	0	0	0	0	497	615	
15	0	0	0	0	505	612	
0	0	0	0	0	519	615	
1	0	0	0	0	533	615	
2	0	0	0	0	550	615	
3	0	0	0	0	567	618	
4	0	0	0	0	585	615	
5	0	0	0	0	606	615	
6	0	0	0	0	629	615	
7	0	0	0	0	655	614	
8	0	0	0	0	682	615	
9	0	0	0	0	711	615	
10	0	0	0	0	741	615	
11	0	0	0	0	763	617	
12	0	0	0	0	775	615	
13	0	0	0	0	778	615	
14	0	0	0	0	775	615	
15	0	0	0	0	765	613	
0	0	0	0	0	752	615	
1	0	0	0	0	736	615	
2	0	0	0	0	718	615	
3	0	0	0	0	700	616	
4	0	0	0	0	682	614	
5	0	0	0	0	665	615	
6	0	0	0	0	649	614	
7	0	0	0	0	632	612	
8	0	0	0	0	617	615	
9	0	0	0	0	603	614	
10	0	0	0	0	589	615	
11	0	0	0	0	575	617	
12	0	0	0	0	564	614	
13	0	0	0	0	553	614	
14	0	0	0	0	544	614	
15	0	0	0	0	535	612	
0	0	0	0	0	527	615	
1	0	0	0	0	519	614	
2	0	0	0	0	513	614	
3	0	0	0	0	508	616	
4	0	0	0	0	503	615	
5	0	0	0	0	498	614	
6	0	0	0	0	494	614	
7	0	0	0	0	491	612	
8	0	0	0	0	488	615	
9	0	0	0	0	486	615	
10	0	0	0	0	483	615	
11	0	0	0	0	481	617	
12	0	0	0	0	479	615	
13	0	0	0	0	478	615	
14	0	0	0	0	476	615	
15	0	0	0	0	473	612	
0	0	0	0	0	473	615	
1	0	0	0	0	472	615	
2	0	0	0	0	471	615	
3	0	0	0	0	471	617	
4	0	0	0	0	470	615	
5	0	0	0	0	469	615	
6	0	0	0	0	470	615	
7	0	0	0	0	470	612	
8	0	0	0	0	471	614	
9	0	0	0	0	471	614	
10	0	0	0	0	471	614	
11	0	0	0	0	472	616	
12	0	0	0	0	471	614	
13	0	0	0	0	471	615	
14	0	0	0	0	471	615	
15	0	0	0	0	471	612	
0	0	0	0	0	472	614	
1	0	0	0	0	472	615	
2	0	0	0	0	471	615	
3	0	0	0	0	471	617	
4	0	0	0	0	470	615	
5	0	0	0	0	468	615	
6	0	0	0	0	469	615	
7	0	0	0	0	469	613	
8	0	0	0	0	470	615	
9	0	0	0	0	471	615	
10	0	0	0	0	472	615	
11	0	0	0	0	473	617	
12	0	0	0	0	472	615	
13	0	0	0	0	473	615	
14	0	0	0	0	473	615	
15	0	0	0	0	474	614	
0	0	0	0	0	474	615	
1	0	0	0	0	474	615	
2	0	0	0	0	475	615	
3	0	0	0	0	475	617	
4	0	0	0	0	476	615	
5	0	0	0	0	475	615	
6	0	0	0	0	474	615	
7	0	0	0	0	475	612	
8	0	0	0	0	475	615	
9	0	0	0	0	475	615	
10	0	0	0	0	475	615	
11	0	0	0	0	474	617	
12	0	0	0	0	475	615	
13	0	0	0	0	474	615	
14	0	0	0	0	476	615	
15	0	0	0	0	476	612	
0	0	0	0	0	477	615	
1	0	0	0	0	478	615	
2	0	0	0	0	478	615	
3	0	0	0	0	478	617	
4	0	0	0	0	478	615	
5	0	0	0	0	478	615	
6	0	0	0	0	479	615	
7	0	0	0	0	478	613	
8	0	0	0	0	478	615	
9	0	0	0	0	478	615	
10	0	0	0	0	477	614	
11	0	0	0	0	477	616	
12	0	0	0	0	477	615	
13	0	0	0	0	477	615	
14	0	0	0	0	477	614	
15	0	0	0	0	477	612	
0	0	0	0	0	477	614	
1	0	0	0	0	477	615	
2	0	0	0	0	478	615	
3	0	0	0	0	479	617	
4	0	0	0	0	479	615	
5	0	0	0	0	480	615	
6	0	0	0	0	480	615	
7	0	0	0	0	480	612	
8	0	0	0	0	480	615	
9	0	0	0	0	480	615	
10	0	0	0	0	480	615	
11	0	0	0	0	480	617	
12	0	0	0	0	480	615	
13	0	0	0	0	479	614	
14	0	0	0	0	479	615	
15	0	0	0	0	478	613	
0	0	0	0	0	478	615	
1	0	0	0	0	477	615	
2	0	0	0	0	477	615	
3	0	0	0	0	477	617	
4	0	0	0	0	478	615	
5	0	0	0	0	478	615	
6	0	0	0	0	479	615	
7	0	0	0	0	479	613	
8	0	0	0	0	479	615	
9	0	0	0	0	480	614	
10	0	0	0	0	481	615	
11	0	0	0	0	481	617	
12	0	0	0	0	480	615	
13	0	0	0	0	480	615	
14	0	0	0	0	480	615	
15	0	0	0	0	480	613	
0	0	0	0	0	479	615	
1	0	0	0	0	479	615	
2	0	0	0	0	478	615	
3	0	0	0	0	478	617	
4	0	0	0	0	477	615	
5	0	0	0	0	476	615	
6	0	0	0	0	477	615	
7	0	0	0	0	477	613	
8	0	0	0	0	478	615	
9	0	0	0	0	479	615	
10	0	0	0	0	480	615	
11	0	0	0	0	480	616	
12	0	0	0	0	480	615	
13	0	0	0	0	480	615	
14	0	0	0	0	481	615	
15	0	0	0	0	481	613	
0	0	0	0	0	481	615	
1	0	0	0	0	481	614	
2	0	0	0	0	481	615	
3	0	0	0	0	481	616	
4	0	0	0	0	481	615	
5	0	0	0	0	481	615	
6	0	0	0	0	480	615	
7	0	0	0	0	480	612	
8	0	0	0	0	480	615	
9	0	0	0	0	479	614	
10	0	0	0	0	479	614	
11	0	0	0	0	479	616	
12	0	0	0	0	479	615	
13	0	0	0	0	479	614	
14	0	0	0	0	480	614	
15	0	0	0	0	480	612	
0	0	0	0	0	480	615	
1	0	0	0	0	480	614	
2	0	0	0	0	481	615	
3	0	0	0	0	481	616	
4	0	0	0	0	481	615	
5	0	0	0	0	480	614	
6	0	0	0	0	480	615	
7	0	0	0	0	480	612	
8	0	0	0	0	479	614	
9	0	0	0	0	478	614	
10	0	0	0	0	477	615	
11	0	0	0	0	476	616	
12	0	0	0	0	476	615	
13	0	0	0	0	475	615	
14	0	0	0	0	475	615	
15	0	0	0	0	475	612	
0	0	0	0	0	477	615	
1	0	0	0	0	477	615	
2	0	0	0	0	478	615	
3	0	0	0	0	479	617	
4	0	0	0	0	479	615	
5	0	0	0	0	480	615	
6	0	0	0	0	480	615	
7	0	0	0	0	481	612	
8	0	0	0	0	482	615	
9	0	0	0	0	481	615	
10	0	0	0	0	481	615	
11	0	0	0	0	480	617	
12	0	0	0	0	480	615	
13	0	0	0	0	479	615	
14	0	0	0	0	478	615	
15	0	0	0	0	478	613	
0	0	0	0	0	478	615	
1	0	0	0	0	478	615	
2	0	0	0	0	478	615	
3	0	0	0	0	478	617	
4	0	0	0	0	478	615	
5	0	0	0	0	479	615	
6	0	0	0	0	479	615	
7	0	0	0	0	479	613	
8	0	0	0	0	480	615	
9	0	0	0	0	480	615	
10	0	0	0	0	480	615	
11	0	0	0	0	481	616	
12	0	0	0	0	481	614	
13	0	0	0	0	482	615	
14	0	0	0	0	483	615	
15	0	0	0	0	482	612	
0	0	0	0	0	482	615	
1	0	0	0	0	481	615	
2	0	0	0	0	481	615	
3	0	0	0	0	482	617	
4	0	0	0	0	482	615	
5	0	0	0	0	481	615	
6	0	0	0	0	481	615	
7	0	0	0	0	481	613	
8	0	0	0	0	482	615	
9	0	0	0	0	483	615	
10	0	0	0	0	484	615	
11	0	0	0	0	485	617	
12	0	0	0	0	486	615	
13	0	0	0	0	487	615	
14	0	0	0	0	488	615	
15	0	0	0	0	489	613	
0	0	0	0	0	490	615	
1	0	0	0	0	491	615	
2	0	0	0	0	491	615	
3	0	0	0	0	491	616	
4	0	0	0	0	491	615	
5	0	0	0	0	492	614	
6	0	0	0	0	493	615	
7	0	0	0	0	494	613	
8	0	0	0	0	494	615	
9	0	0	0	0	494	615	
10	0	0	0	0	495	615	
11	0	0	0	0	496	617	
12	0	0	0	0	497	615	
13	0	0	0	0	499	615	
14	0	0	0	0	500	615	
15	0	0	0	0	502	612	
0	0	0	0	0	504	615	
1	0	0	0	0	506	615	
2	0	0	0	0	507	615	
3	0	0	0	0	508	616	
4	0	0	0	0	509	615	
5	0	0	0	0	510	614	
6	0	0	0	0	512	615	
7	0	0	0	0	513	612	
8	0	0	0	0	514	615	
9	0	0	0	0	514	615	
10	0	0	0	0	514	615	
11	0	0	0	0	514	617	
12	0	0	0	0	515	615	
13	0	0	0	0	516	614	
14	0	0	0	0	517	614	
15	0	0	0	0	518	612	
0	0	0	0	0	519	615	
1	0	0	0	0	520	615	
2	0	0	0	0	522	614	
3	0	0	0	0	523	616	
4	0	0	0	0	524	614	
5	0	0	0	0	526	614	
6	0	0	0	0	527	614	
7	0	0	0	0	528	612	
8	0	0	0	0	529	614	
9	0	0	0	0	530	615	
10	0	0	0	0	531	615	
11	0	0	0	0	531	616	
12	0	0	0	0	531	614	
13	0	0	0	0	531	615	
14	0	0	0	0	531	615	
15	0	0	0	0	532	613	
0	0	0	0	0	531	615	
1	0	0	0	0	531	615	
2	0	0	0	0	531	614	
3	0	0	0	0	532	616	
4	0	0	0	0	532	615	
5	0	0	0	0	533	615	
6	0	0	0	0	534	615	
7	0	0	0	0	535	613	
8	0	0	0	0	535	615	
9	0	0	0	0	536	615	
10	0	0	0	0	536	615	
11	0	0	0	0	536	617	
12	0	0	0	0	536	615	
13	0	0	0	0	536	615	
14	0	0	0	0	536	615	
15	0	0	0	0	536	613	
0	0	0	0	0	536	615	
1	0	0	0	0	536	615	
2	0	0	0	0	535	615	
3	0	0	0	0	534	617	
4	0	0	0	0	534	615	
5	0	0	0	0	534	615	
6	0	0	0	0	533	615	
7	0	0	0	0	532	614	
8	0	0	0	0	532	615	
9	0	0	0	0	532	615	
10	0	0	0	0	533	615	
11	0	0	0	0	534	617	
12	0	0	0	0	534	615	
13	0	0	0	0	534	616	
14	0	0	0	0	534	616	
15	0	0	0	0	533	613	
0	0	0	0	0	534	616	
1	0	0	0	0	533	615	
2	0	0	0	0	533	615	
3	0	0	0	0	533	617	
4	0	0	0	0	532	615	
5	0	0	0	0	531	615	
6	0	0	0	0	530	615	
7	0	0	0	0	529	612	
8	0	0	0	0	528	615	
9	0	0	0	0	528	615	
10	0	0	0	0	527	615	
11	0	0	0	0	527	617	
12	0	0	0	0	527	615	
13	0	0	0	0	527	615	
14	0	0	0	0	528	615	
15	0	0	0	0	528	613	
0	0	0	0	0	528	615	
1	0	0	0	0	528	615	
2	0	0	0	0	528	615	
3	0	0	0	0	528	617	
4	0	0	0	0	528	615	
5	0	0	0	0	527	615	
6	0	0	0	0	527	615	
7	0	0	0	0	527	612	
8	0	0	0	0	526	615	
9	0	0	0	0	525	615	
10	0	0	0	0	524	615	
11	0	0	0	0	523	617	
12	0	0	0	0	523	614	
13	0	0	0	0	522	615	
14	0	0	0	0	522	615	
15	0	0	0	0	522	612	
0	0	0	0	0	523	614	
1	0	0	0	0	523	615	
2	0	0	0	0	523	615	
3	0	0	0	0	524	617	
4	0	0	0	0	524	615	
5	0	0	0	0	524	615	
6	0	0	0	0	524	615	
7	0	0	0	0	524	613	
8	0	0	0	0	524	615	
9	0	0	0	0	524	614	
10	0	0	0	0	524	615	
11	0	0	0	0	523	616	
12	0	0	0	0	522	615	
13	0	0	0	0	522	615	
14	0	0	0	0	521	615	
15	0	0	0	0	520	613	
0	0	0	0	0	519	615	
1	0	0	0	0	519	615	
2	0	0	0	0	518	615	
3	0	0	0	0	517	617	
4	0	0	0	0	518	615	
5	0	0	0	0	518	615	
6	0	0	0	0	517	615	
7	0	0	0	0	516	613	
8	0	0	0	0	517	615	
9	0	0	0	0	519	615	
10	0	0	0	0	518	615	
11	0	0	0	0	519	616	
12	0	0	0	0	518	615	
13	0	0	0	0	518	615	
14	0	0	0	0	518	615	
15	0	0	0	0	518	613	
0	0	0	0	0	517	615	
1	0	0	0	0	516	615	
2	0	0	0	0	516	615	
3	0	0	0	0	515	617	
4	0	0	0	0	514	615	
5	0	0	0	0	513	615	
6	0	0	0	0	513	615	
7	0	0	0	0	512	613	
8	0	0	0	0	513	615	
9	0	0	0	0	513	615	
10	0	0	0	0	513	615	
11	0	0	0	0	513	617	
12	0	0	0	0	514	615	
13	0	0	0	0	515	615	
14	0	0	0	0	515	615	
15	0	0	0	0	515	613	
0	0	0	0	0	515	615	
1	0	0	0	0	515	615	
2	0	0	0	0	515	615	
3	0	0	0	0	514	617	
4	0	0	0	0	514	615	
5	0	0	0	0	513	615	
6	0	0	0	0	512	614	
7	0	0	0	0	512	613	
8	0	0	0	0	511	615	
9	0	0	0	0	511	615	
10	0	0	0	0	511	615	
11	0	0	0	0	511	616	
12	0	0	0	0	511	615	
13	0	0	0	0	511	615	
14	0	0	0	0	511	615	
15	0	0	0	0	512	612	
0	0	0	0	0	513	615	
1	0	0	0	0	513	615	
2	0	0	0	0	513	614	
3	0	0	0	0	514	617	
4	0	0	0	0	513	615	
5	0	0	0	0	513	615	
6	0	0	0	0	512	615	
7	0	0	0	0	512	613	
8	0	0	0	0	512	615	
9	0	0	0	0	511	615	
10	0	0	0	0	510	615	
11	0	0	0	0	509	618	
12	0	0	0	0	508	615	
13	0	0	0	0	507	615	
14	0	0	0	0	507	616	
15	0	0	0	0	507	613	
0	0	0	0	0	507	616	
1	0	0	0	0	507	616	
2	0	0	0	0	506	615	
3	0	0	0	0	507	618	
4	0	0	0	0	508	615	
5	0	0	0	0	508	615	
6	0	0	0	0	508	616	
7	0	0	0	0	509	613	
8	0	0	0	0	510	616	
9	0	0	0	0	510	615	
10	0	0	0	0	509	615	
11	0	0	0	0	509	617	
12	0	0	0	0	508	615	
13	0	0	0	0	508	615	
14	0	0	0	0	506	615	
15	0	0	0	0	506	613	
0	0	0	0	0	505	615	
1	0	0	0	0	505	615	
2	0	0	0	0	505	615	
3	0	0	0	0	505	616	
4	0	0	0	0	505	615	
5	0	0	0	0	505	615	
6	0	0	0	0	506	615	
7	0	0	0	0	507	612	
8	0	0	0	0	507	615	
9	0	0	0	0	507	615	
10	0	0	0	0	506	615	
11	0	0	0	0	506	617	
12	0	0	0	0	507	614	
13	0	0	0	0	507	615	
14	0	0	0	0	506	615	
15	0	0	0	0	506	612	
0	0	0	0	0	506	615	
1	0	0	0	0	505	614	
2	0	0	0	0	505	615	
3	0	0	0	0	505	616	
4	0	0	0	0	505	615	
5	0	0	0	0	505	615	
6	0	0	0	0	504	614	
7	0	0	0	0	503	612	
8	0	0	0	0	504	615	
9	0	0	0	0	504	614	
10	0	0	0	0	504	615	
11	0	0	0	0	506	616	
12	0	0	0	0	506	614	
13	0	0	0	0	506	614	
14	0	0	0	0	506	615	
15	0	0	0	0	505	613	
0	0	0	0	0	505	615	
1	0	0	0	0	506	615	
2	0	0	0	0	506	615	
3	0	0	0	0	505	617	
4	0	0	0	0	505	615	
5	0	0	0	0	504	615	
6	0	0	0	0	504	615	
7	0	0	0	0	503	613	
8	0	0	0	0	503	615	
9	0	0	0	0	503	615	
10	0	0	0	0	503	615	
11	0	0	0	0	502	617	
12	0	0	0	0	503	615	
13	0	0	0	0	504	615	
14	0	0	0	0	505	615	
15	0	0	0	0	505	613	
0	0	0	0	0	505	615	
1	0	0	0	0	506	615	
2	0	0	0	0	506	615	
3	0	0	0	0	506	617	
4	0	0	0	0	506	615	
5	0	0	0	0	506	615	
6	0	0	0	0	505	615	
7	0	0	0	0	505	613	
8	0	0	0	0	504	615	
9	0	0	0	0	503	615	
10	0	0	0	0	502	615	
11	0	0	0	0	501	617	
12	0	0	0	0	499	615	
13	0	0	0	0	499	615	
14	0	0	0	0	499	615	
15	0	0	0	0	498	612	
0	0	0	0	0	499	615	
1	0	0	0	0	500	616	
2	0	0	0	0	500	615	
3	0	0	0	0	501	617	
4	0	0	0	0	502	615	
5	0	0	0	0	503	615	
6	0	0	0	0	503	615	
7	0	0	0	0	503	612	
8	0	0	0	0	503	615	
9	0	0	0	0	503	615	
10	0	0	0	0	503	615	
11	0	0	0	0	502	617	
12	0	0	0	0	502	615	
13	0	0	0	0	502	615	
14	0	0	0	0	500	615	
15	0	0	0	0	500	613	
0	0	0	0	0	499	615	
1	0	0	0	0	499	615	
2	0	0	0	0	499	615	
3	0	0	0	0	499	617	
4	0	0	0	0	500	615	
5	0	0	0	0	499	615	
6	0	0	0	0	499	615	
7	0	0	0	0	500	613	
8	0	0	0	0	500	615	
9	0	0	0	0	501	615	
10	0	0	0	0	502	615	
11	0	0	0	0	502	617	
12	0	0	0	0	502	615	
13	0	0	0	0	501	615	
14	0	0	0	0	501	615	
15	0	0	0	0	500	612	
0	0	0	0	0	499	615	
1	0	0	0	0	499	615	
2	0	0	0	0	498	615	
3	0	0	0	0	498	617	
4	0	0	0	0	498	615	
5	0	0	0	0	498	615	
6	0	0	0	0	498	614	
7	0	0	0	0	498	612	
8	0	0	0	0	498	615	
9	0	0	0	0	498	615	
10	0	0	0	0	499	615	
11	0	0	0	0	499	617	
12	0	0	0	0	499	615	
13	0	0	0	0	500	615	
14	0	0	0	0	500	615	
15	0	0	0	0	500	613	
0	0	0	0	0	500	615	
1	0	0	0	0	500	615	
2	0	0	0	0	500	615	
3	0	0	0	0	499	617	
4	0	0	0	0	499	615	
5	0	0	0	0	499	615	
6	0	0	0	0	499	615	
7	0	0	0	0	498	614	
8	0	0	0	0	497	615	
9	0	0	0	0	497	615	
10	0	0	0	0	496	615	
11	0	0	0	0	496	617	
12	0	0	0	0	496	616	
13	0	0	0	0	496	616	
14	0	0	0	0	497	616	
15	0	0	0	0	499	614	
0	0	0	0	0	499	615	
1	0	0	0	0	500	616	
2	0	0	0	0	500	615	
3	0	0	0	0	500	617	
4	0	0	0	0	500	615	
5	0	0	0	0	499	615	
6	0	0	0	0	499	616	
7	0	0	0	0	499	614	
8	0	0	0	0	499	615	
9	0	0	0	0	498	615	
10	0	0	0	0	497	615	
11	0	0	0	0	497	617	
12	0	0	0	0	496	615	
13	0	0	0	0	496	615	
14	0	0	0	0	496	615	
15	0	0	0	0	496	614	
0	0	0	0	0	496	616	
1	0	0	0	0	496	615	
2	0	0	0	0	496	615	
3	0	0	0	0	498	617	
4	0	0	0	0	499	615	
5	0	0	0	0	499	616	
6	0	0	0	0	499	615	
7	0	0	0	0	499	613	
8	0	0	0	0	498	615	
9	0	0	0	0	497	615	
10	0	0	0	0	498	615	
11	0	0	0	0	498	617	
12	0	0	0	0	498	615	
13	0	0	0	0	498	615	
14	0	0	0	0	498	615	
15	0	0	0	0	498	613	
0	0	0	0	0	497	615	
1	0	0	0	0	497	615	
2	0	0	0	0	497	615	
3	0	0	0	0	496	617	
4	0	0	0	0	497	615	
5	0	0	0	0	497	615	
6	0	0	0	0	498	615	
7	0	0	0	0	499	613	
8	0	0	0	0	499	615	
9	0	0	0	0	499	615	
10	0	0	0	0	500	615	
11	0	0	0	0	499	617	
12	0	0	0	0	499	615	
13	0	0	0	0	499	615	
14	0	0	0	0	498	615	
15	0	0	0	0	497	612	
0	0	0	0	0	496	615	
1	0	0	0	0	496	615	
2	0	0	0	0	495	615	
3	0	0	0	0	495	617	
4	0	0	0	0	494	615	
5	0	0	0	0	494	615	
6	0	0	0	0	494	615	
7	0	0	0	0	494	613	
8	0	0	0	0	494	615	
9	0	0	0	0	496	615	
10	0	0	0	0	496	615	
11	0	0	0	0	497	617	
12	0	0	0	0	497	615	
13	0	0	0	0	497	615	
14	0	0	0	0	497	615	
15	0	0	0	0	497	613	
0	0	0	0	0	497	615	
1	0	0	0	0	497	615	
2	0	0	0	0	496	615	
3	0	0	0	0	496	617	
4	0	0	0	0	495	615	
5	0	0	0	0	494	615	
6	0	0	0	0	494	615	
7	0	0	0	0	494	613	
8	0	0	0	0	494	615	
9	0	0	0	0	494	615	
10	0	0	0	0	493	615	
11	0	0	0	0	494	617	
12	0	0	0	0	496	615	
13	0	0	0	0	496	615	
14	0	0	0	0	497	615	
15	0	0	0	0	499	613	
0	0	0	0	0	499	615	
1	0	0	0	0	500	615	
2	0	0	0	0	500	615	
3	0	0	0	0	502	617	
4	0	0	0	0	502	615	
5	0	0	0	0	502	615	
6	0	0	0	0	502	615	
7	0	0	0	0	502	613	
8	0	0	0	0	502	615	
9	0	0	0	0	502	615	
10	0	0	0	0	501	615	
11	0	0	0	0	501	616	
12	0	0	0	0	500	615	
13	0	0	0	0	500	615	
14	0	0	0	0	500	615	
15	0	0	0	0	500	613	
0	0	0	0	0	500	615	
1	0	0	0	0	501	615	
2	0	0	0	0	502	614	
3	0	0	0	0	503	616	
4	0	0	0	0	504	615	
5	0	0	0	0	504	615	
6	0	0	0	0	505	615	
7	0	0	0	0	505	612	
8	0	0	0	0	505	615	
9	0	0	0	0	505	615	
10	0	0	0	0	504	615	
11	0	0	0	0	504	617	
12	0	0	0	0	503	615	
13	0	0	0	0	502	615	
14	0	0	0	0	502	615	
15	0	0	0	0	502	613	
0	0	0	0	0	501	615	
1	0	0	0	0	500	615	
2	0	0	0	0	501	615	
3	0	0	0	0	501	617	
4	0	0	0	0	502	615	
5	0	0	0	0	501	615	
6	0	0	0	0	501	614	
7	0	0	0	0	501	613	
8	0	0	0	0	501	615	
9	0	0	0	0	501	615	
10	0	0	0	0	502	615	
11	0	0	0	0	503	616	
12	0	0	0	0	503	615	
13	0	0	0	0	503	614	
14	0	0	0	0	504	615	
15	0	0	0	0	503	613	
0	0	0	0	0	503	615	
1	0	0	0	0	502	614	
2	0	0	0	0	502	615	
3	0	0	0	0	501	617	
4	0	0	0	0	501	615	
5	0	0	0	0	501	615	
6	0	0	0	0	501	615	
7	0	0	0	0	500	613	
8	0	0	0	0	501	615	
9	0	0	0	0	502	615	
10	0	0	0	0	503	616	
11	0	0	0	0	504	617	
12	0	0	0	0	505	615	
13	0	0	0	0	505	615	
14	0	0	0	0	506	615	
15	0	0	0	0	505	614	
0	0	0	0	0	506	616	
1	0	0	0	0	506	615	
2	0	0	0	0	506	615	
3	0	0	0	0	507	617	
4	0	0	0	0	506	615	
5	0	0	0	0	505	615	
6	0	0	0	0	504	615	
7	0	0	0	0	504	613	
8	0	0	0	0	504	615	
9	0	0	0	0	504	615	
10	0	0	0	0	503	615	
11	0	0	0	0	503	617	
12	0	0	0	0	503	616	
13	0	0	0	0	504	615	
14	0	0	0	0	505	616	
15	0	0	0	0	505	614	
0	0	0	0	0	505	615	
1	0	0	0	0	507	615	
2	0	0	0	0	507	615	
3	0	0	0	0	508	617	
4	0	0	0	0	508	615	
5	0	0	0	0	507	615	
6	0	0	0	0	508	615	
7	0	0	0	0	507	613	
8	0	0	0	0	506	615	
9	0	0	0	0	505	615	
10	0	0	0	0	505	614	
11	0	0	0	0	504	617	
12	0	0	0	0	503	615	
13	0	0	0	0	502	615	
14	0	0	0	0	502	615	
15	0	0	0	0	501	612	
0	0	0	0	0	502	615	
1	0	0	0	0	502	615	
2	0	0	0	0	502	614	
3	0	0	0	0	503	617	
4	0	0	0	0	503	615	
5	0	0	0	0	502	614	
6	0	0	0	0	500	615	
7	0	0	0	0	499	612	
8	0	0	0	0	497	615	
9	0	0	0	0	494	615	
10	0	0	0	0	491	615	
11	0	0	0	0	487	617	
12	0	0	0	0	483	615	
13	0	0	0	0	479	615	
14	0	0	0	0	476	615	
15	0	0	0	0	474	613	
0	0	0	0	0	471	615	
1	0	0	0	0	468	615	
2	0	0	0	0	465	615	
3	0	0	0	0	462	616	
4	0	0	0	0	459	615	
5	0	0	0	0	455	615	
6	0	0	0	0	451	615	
7	0	0	0	0	447	612	
8	0	0	0	0	442	615	
9	0	0	0	0	439	615	
10	0	0	0	0	438	615	
11	0	0	0	0	437	616	
12	0	0	0	0	438	615	
13	0	0	0	0	437	615	
14	0	0	0	0	437	615	
15	0	0	0	0	439	613	
0	0	0	0	0	442	615	
1	0	0	0	0	447	615	
2	0	0	0	0	453	615	
3	0	0	0	0	460	617	
4	0	0	0	0	465	615	
5	0	0	0	0	472	615	
6	0	0	0	0	477	615	
7	0	0	0	0	484	613	
8	0	0	0	0	492	615	
9	0	0	0	0	502	615	
10	0	0	0	0	516	615	
11	0	0	0	0	532	617	
12	0	0	0	0	550	615	
13	0	0	0	0	566	616	
14	0	0	0	0	583	615	
15	0	0	0	0	604	613	
0	0	0	0	0	629	615	
1	0	0	0	0	654	615	
2	0	0	0	0	683	615	
3	0	0	0	0	712	617	
4	0	0	0	0	739	615	
5	0	0	0	0	758	615	
6	0	0	0	0	767	615	
7	0	0	0	0	768	613	
8	0	0	0	0	761	615	
9	0	0	0	0	751	615	
10	0	0	0	0	737	615	
11	0	0	0	0	721	617	
12	0	0	0	0	704	615	
13	0	0	0	0	688	615	
14	0	0	0	0	671	616	
15	0	0	0	0	655	613	
0	0	0	0	0	639	615	
1	0	0	0	0	625	615	
2	0	0	0	0	611	615	
3	0	0	0	0	597	617	
4	0	0	0	0	585	615	
5	0	0	0	0	574	616	
6	0	0	0	0	563	615	
7	0	0	0	0	553	613	
8	0	0	0	0	544	615	
9	0	0	0	0	535	616	
10	0	0	0	0	526	615	
11	0	0	0	0	518	618	
12	0	0	0	0	510	615	
13	0	0	0	0	504	615	
14	0	0	0	0	498	615	
15	0	0	0	0	493	613	
0	0	0	0	0	489	615	
1	0	0	0	0	485	615	
2	0	0	0	0	483	616	
3	0	0	0	0	481	617	
4	0	0	0	0	479	615	
5	0	0	0	0	478	615	
6	0	0	0	0	477	615	
7	0	0	0	0	476	613	
8	0	0	0	0	476	615	
9	0	0	0	0	476	615	
10	0	0	0	0	475	616	
11	0	0	0	0	474	617	
12	0	0	0	0	473	615	
13	0	0	0	0	471	615	
14	0	0	0	0	470	615	
15	0	0	0	0	471	614	
0	0	0	0	0	470	615	
1	0	0	0	0	470	615	
2	0	0	0	0	470	615	
3	0	0	0	0	470	616	
4	0	0	0	0	471	615	
5	0	0	0	0	471	615	
6	0	0	0	0	472	614	
7	0	0	0	0	472	612	
8	0	0	0	0	473	614	
9	0	0	0	0	474	615	
10	0	0	0	0	475	614	
11	0	0	0	0	475	617	
12	0	0	0	0	475	615	
13	0	0	0	0	475	615	
14	0	0	0	0	475	614	
15	0	0	0	0	475	612	
0	0	0	0	0	475	615	
1	0	0	0	0	475	615	
2	0	0	0	0	473	615	
3	0	0	0	0	474	617	
4	0	0	0	0	474	615	
5	0	0	0	0	474	615	
6	0	0	0	0	474	615	
7	0	0	0	0	474	614	
8	0	0	0	0	475	615	
9	0	0	0	0	476	615	
10	0	0	0	0	476	614	
11	0	0	0	0	477	617	
12	0	0	0	0	479	615	
13	0	0	0	0	479	615	
14	0	0	0	0	479	615	
15	0	0	0	0	480	613	
0	0	0	0	0	481	615	
1	0	0	0	0	481	615	
2	0	0	0	0	480	615	
3	0	0	0	0	480	617	
4	0	0	0	0	479	615	
5	0	0	0	0	480	615	
6	0	0	0	0	480	615	
7	0	0	0	0	479	613	
8	0	0	0	0	478	615	
9	0	0	0	0	479	615	
10	0	0	0	0	479	615	
11	0	0	0	0	480	617	
12	0	0	0	0	480	615	
13	0	0	0	0	480	615	
14	0	0	0	0	481	615	
15	0	0	0	0	482	613	
0	0	0	0	0	483	615	
1	0	0	0	0	485	615	
2	0	0	0	0	485	614	
3	0	0	0	0	487	616	
4	0	0	0	0	487	615	
5	0	0	0	0	486	614	
6	0	0	0	0	485	615	
7	0	0	0	0	485	612	
8	0	0	0	0	486	615	
9	0	0	0	0	486	615	
10	0	0	0	0	485	615	
11	0	0	0	0	486	616	
12	0	0	0	0	485	615	
13	0	0	0	0	485	615	
14	0	0	0	0	485	615	
15	0	0	0	0	486	612	
0	0	0	0	0	487	615	
1	0	0	0	0	487	615	
2	0	0	0	0	487	615	
3	0	0	0	0	489	617	
4	0	0	0	0	489	615	
5	0	0	0	0	489	615	
6	0	0	0	0	491	615	
7	0	0	0	0	491	613	
8	0	0	0	0	492	615	
9	0	0	0	0	492	615	
10	0	0	0	0	491	615	
11	0	0	0	0	491	618	
12	0	0	0	0	491	616	
13	0	0	0	0	490	615	
14	0	0	0	0	489	615	
15	0	0	0	0	489	614	
0	0	0	0	0	489	616	
1	0	0	0	0	489	615	
2	0	0	0	0	489	615	
3	0	0	0	0	489	618	
4	0	0	0	0	489	615	
5	0	0	0	0	490	615	
6	0	0	0	0	491	615	
7	0	0	0	0	492	614	
8	0	0	0	0	492	615	
9	0	0	0	0	492	615	
10	0	0	0	0	492	615	
11	0	0	0	0	493	617	
12	0	0	0	0	493	615	
13	0	0	0	0	492	615	
14	0	0	0	0	493	615	
15	0	0	0	0	493	613	
0	0	0	0	0	492	615	
1	0	0	0	0	491	615	
2	0	0	0	0	491	615	
3	0	0	0	0	490	617	
4	0	0	0	0	490	615	
5	0	0	0	0	490	615	
6	0	0	0	0	490	615	
7	0	0	0	0	489	612	
8	0	0	0	0	490	615	
9	0	0	0	0	490	615	
10	0	0	0	0	490	615	
11	0	0	0	0	490	617	
12	0	0	0	0	489	615	
13	0	0	0	0	490	615	
14	0	0	0	0	491	615	
15	0	0	0	0	492	613	
0	0	0	0	0	492	614	
1	0	0	0	0	491	615	
2	0	0	0	0	491	615	
3	0	0	0	0	490	616	
4	0	0	0	0	489	615	
5	0	0	0	0	489	615	
6	0	0	0	0	488	615	
7	0	0	0	0	488	613	
8	0	0	0	0	488	614	
9	0	0	0	0	488	615	
10	0	0	0	0	487	615	
11	0	0	0	0	487	616	
12	0	0	0	0	487	615	
13	0	0	0	0	487	615	
14	0	0	0	0	488	615	
15	0	0	0	0	489	613	
0	0	0	0	0	489	615	
1	0	0	0	0	490	615	
2	0	0	0	0	491	614	
3	0	0	0	0	491	617	
4	0	0	0	0	492	615	
5	0	0	0	0	492	615	
6	0	0	0	0	493	615	
7	0	0	0	0	492	614	
8	0	0	0	0	491	615	
9	0	0	0	0	491	615	
10	0	0	0	0	490	615	
11	0	0	0	0	490	618	
12	0	0	0	0	488	615	
13	0	0	0	0	487	616	
14	0	0	0	0	487	615	
15	0	0	0	0	487	614	
0	0	0	0	0	487	615	
1	0	0	0	0	487	615	
2	0	0	0	0	488	615	
3	0	0	0	0	488	617	
4	0	0	0	0	489	615	
5	0	0	0	0	490	615	
6	0	0	0	0	490	615	
7	0	0	0	0	490	613	
8	0	0	0	0	490	615	
9	0	0	0	0	489	615	
10	0	0	0	0	489	615	
11	0	0	0	0	489	617	
12	0	0	0	0	489	615	
13	0	0	0	0	488	615	
14	0	0	0	0	488	615	
15	0	0	0	0	488	613	
0	0	0	0	0	488	615	
1	0	0	0	0	487	615	
2	0	0	0	0	488	615	
3	0	0	0	0	488	617	
4	0	0	0	0	489	615	
5	0	0	0	0	490	615	
6	0	0	0	0	491	615	
7	0	0	0	0	492	612	
8	0	0	0	0	493	615	
9	0	0	0	0	494	615	
10	0	0	0	0	494	615	
11	0	0	0	0	495	617	
12	0	0	0	0	495	615	
13	0	0	0	0	495	615	
14	0	0	0	0	496	615	
15	0	0	0	0	496	614	
0	0	0	0	0	496	615	
1	0	0	0	0	496	616	
2	0	0	0	0	497	615	
3	0	0	0	0	496	618	
4	0	0	0	0	496	615	
5	0	0	0	0	497	615	
6	0	0	0	0	497	615	
7	0	0	0	0	498	613	
8	0	0	0	0	499	615	
9	0	0	0	0	499	615	
10	0	0	0	0	501	615	
11	0	0	0	0	502	617	
12	0	0	0	0	503	615	
13	0	0	0	0	504	615	
14	0	0	0	0	505	615	
15	0	0	0	0	506	613	
0	0	0	0	0	508	615	
1	0	0	0	0	509	615	
2	0	0	0	0	510	615	
3	0	0	0	0	511	616	
4	0	0	0	0	511	615	
5	0	0	0	0	511	615	
6	0	0	0	0	512	615	
7	0	0	0	0	513	613	
8	0	0	0	0	513	615	
9	0	0	0	0	514	615	
10	0	0	0	0	515	615	
11	0	0	0	0	517	616	
12	0	0	0	0	519	615	
13	0	0	0	0	519	614	
14	0	0	0	0	521	615	
15	0	0	0	0	523	613	
0	0	0	0	0	525	615	
1	0	0	0	0	526	615	
2	0	0	0	0	528	615	
3	0	0	0	0	529	616	
4	0	0	0	0	531	615	
5	0	0	0	0	531	615	
6	0	0	0	0	532	615	
7	0	0	0	0	533	614	
8	0	0	0	0	533	615	
9	0	0	0	0	535	615	
10	0	0	0	0	535	615	
11	0	0	0	0	536	617	
12	0	0	0	0	536	615	
13	0	0	0	0	536	615	
14	0	0	0	0	537	615	
15	0	0	0	0	538	613	
0	0	0	0	0	539	616	
1	0	0	0	0	540	616	
2	0	0	0	0	541	616	
3	0	0	0	0	543	617	
4	0	0	0	0	544	615	
5	0	0	0	0	545	615	
6	0	0	0	0	546	616	
7	0	0	0	0	547	614	
8	0	0	0	0	547	616	
9	0	0	0	0	548	615	
10	0	0	0	0	548	615	
11	0	0	0	0	548	617	
12	0	0	0	0	548	615	
13	0	0	0	0	548	615	
14	0	0	0	0	548	615	
15	0	0	0	0	548	614	
0	0	0	0	0	548	615	
1	0	0	0	0	548	615	
2	0	0	0	0	549	615	
3	0	0	0	0	549	617	
4	0	0	0	0	550	615	
5	0	0	0	0	550	615	
6	0	0	0	0	550	615	
7	0	0	0	0	551	613	
8	0	0	0	0	552	615	
9	0	0	0	0	553	615	
10	0	0	0	0	552	615	
11	0	0	0	0	553	617	
12	0	0	0	0	553	615	
13	0	0	0	0	553	615	
14	0	0	0	0	553	616	
15	0	0	0	0	553	613	
0	0	0	0	0	552	615	
1	0	0	0	0	552	615	
2	0	0	0	0	551	615	
3	0	0	0	0	551	617	
4	0	0	0	0	550	615	
5	0	0	0	0	550	615	
6	0	0	0	0	550	615	
7	0	0	0	0	551	612	
8	0	0	0	0	550	615	
9	0	0	0	0	551	615	
10	0	0	0	0	551	615	
11	0	0	0	0	552	617	
12	0	0	0	0	552	615	
13	0	0	0	0	553	616	
14	0	0	0	0	553	615	
15	0	0	0	0	553	613	
0	0	0	0	0	552	615	
1	0	0	0	0	551	615	
2	0	0	0	0	551	615	
3	0	0	0	0	551	617	
4	0	0	0	0	551	615	
5	0	0	0	0	550	615	
6	0	0	0	0	550	615	
7	0	0	0	0	549	614	
8	0	0	0	0	548	615	
9	0	0	0	0	548	615	
10	0	0	0	0	547	615	
11	0	0	0	0	548	617	
12	0	0	0	0	548	615	
13	0	0	0	0	547	616	
14	0	0	0	0	547	615	
15	0	0	0	0	547	613	
0	0	0	0	0	547	615	
1	0	0	0	0	547	615	
2	0	0	0	0	546	616	
3	0	0	0	0	546	617	
4	0	0	0	0	546	615	
5	0	0	0	0	545	615	
6	0	0	0	0	545	615	
7	0	0	0	0	544	612	
8	0	0	0	0	543	615	
9	0	0	0	0	542	615	
10	0	0	0	0	542	614	
11	0	0	0	0	541	617	
12	0	0	0	0	540	615	
13	0	0	0	0	540	615	
14	0	0	0	0	540	615	
15	0	0	0	0	539	613	
0	0	0	0	0	539	615	
1	0	0	0	0	539	615	
2	0	0	0	0	540	615	
3	0	0	0	0	540	617	
4	0	0	0	0	540	615	
5	0	0	0	0	540	615	
6	0	0	0	0	539	615	
7	0	0	0	0	539	612	
8	0	0	0	0	539	614	
9	0	0	0	0	538	615	
10	0	0	0	0	537	615	
11	0	0	0	0	537	616	
12	0	0	0	0	536	615	
13	0	0	0	0	535	615	
14	0	0	0	0	534	615	
15	0	0	0	0	534	613	
0	0	0	0	0	532	615	
1	0	0	0	0	532	615	
2	0	0	0	0	532	615	
3	0	0	0	0	532	617	
4	0	0	0	0	532	615	
5	0	0	0	0	531	615	
6	0	0	0	0	531	615	
7	0	0	0	0	531	613	
8	0	0	0	0	531	615	
9	0	0	0	0	531	615	
10	0	0	0	0	531	615	
11	0	0	0	0	531	616	
12	0	0	0	0	531	615	
13	0	0	0	0	531	615	
14	0	0	0	0	530	615	
15	0	0	0	0	530	613	
0	0	0	0	0	530	615	
1	0	0	0	0	529	615	
2	0	0	0	0	527	615	
3	0	0	0	0	527	618	
4	0	0	0	0	526	615	
5	0	0	0	0	526	615	
6	0	0	0	0	525	616	
7	0	0	0	0	524	614	
8	0	0	0	0	524	616	
9	0	0	0	0	524	615	
10	0	0	0	0	524	615	
11	0	0	0	0	525	618	
12	0	0	0	0	525	616	
13	0	0	0	0	526	616	
14	0	0	0	0	526	615	
15	0	0	0	0	526	612	
0	0	0	0	0	527	615	
1	0	0	0	0	526	615	
2	0	0	0	0	526	615	
3	0	0	0	0	526	617	
4	0	0	0	0	526	615	
5	0	0	0	0	525	615	
6	0	0	0	0	524	615	
7	0	0	0	0	524	612	
8	0	0	0	0	524	615	
9	0	0	0	0	524	615	
10	0	0	0	0	523	615	
11	0	0	0	0	522	617	
12	0	0	0	0	523	615	
13	0	0	0	0	523	615	
14	0	0	0	0	523	615	
15	0	0	0	0	523	614	
0	0	0	0	0	524	615	
1	0	0	0	0	524	615	
2	0	0	0	0	524	615	
3	0	0	0	0	524	618	
4	0	0	0	0	525	615	
5	0	0	0	0	524	615	
6	0	0	0	0	524	615	
7	0	0	0	0	523	614	
8	0	0	0	0	523	616	
9	0	0	0	0	522	615	
10	0	0	0	0	521	615	
11	0	0	0	0	521	617	
12	0	0	0	0	520	615	
13	0	0	0	0	520	615	
14	0	0	0	0	520	615	
15	0	0	0	0	520	614	
0	0	0	0	0	520	616	
1	0	0	0	0	521	616	
2	0	0	0	0	521	615	
3	0	0	0	0	522	617	
4	0	0	0	0	522	615	
5	0	0	0	0	523	616	
6	0	0	0	0	524	616	
7	0	0	0	0	524	614	
8	0	0	0	0	524	615	
9	0	0	0	0	524	615	
10	0	0	0	0	525	616	
11	0	0	0	0	524	618	
12	0	0	0	0	523	615	
13	0	0	0	0	523	615	
14	0	0	0	0	522	615	
15	0	0	0	0	521	613	
0	0	0	0	0	521	615	
1	0	0	0	0	521	615	
2	0	0	0	0	521	615	
3	0	0	0	0	521	617	
4	0	0	0	0	521	616	
5	0	0	0	0	521	615	
6	0	0	0	0	522	616	
7	0	0	0	0	523	614	
8	0	0	0	0	523	615	
9	0	0	0	0	524	615	
10	0	0	0	0	524	615	
11	0	0	0	0	524	618	
12	0	0	0	0	524	616	
13	0	0	0	0	523	616	
14	0	0	0	0	522	616	
15	0	0	0	0	522	614	
0	0	0	0	0	522	616	
1	0	0	0	0	521	616	
2	0	0	0	0	520	616	
3	0	0	0	0	520	618	
4	0	0	0	0	519	615	
5	0	0	0	0	519	616	
6	0	0	0	0	519	616	
7	0	0	0	0	519	613	
8	0	0	0	0	519	615	
9	0	0	0	0	519	615	
10	0	0	0	0	520	615	
11	0	0	0	0	521	617	
12	0	0	0	0	522	615	
13	0	0	0	0	523	615	
14	0	0	0	0	523	615	
15	0	0	0	0	523	613	
0	0	0	0	0	524	616	
1	0	0	0	0	524	616	
2	0	0	0	0	524	616	
3	0	0	0	0	524	618	
4	0	0	0	0	524	616	
5	0	0	0	0	524	616	
6	0	0	0	0	523	617	
7	0	0	0	0	522	615	
8	0	0	0	0	521	617	
9	0	0	0	0	521	617	
10	0	0	0	0	520	617	
11	0	0	0	0	520	619	
12	0	0	0	0	520	617	
13	0	0	0	0	520	617	
14	0	0	0	0	521	617	
15	0	0	0	0	521	615	
0	0	0	0	0	523	616	
1	0	0	0	0	523	616	
2	0	0	0	0	523	616	
3	0	0	0	0	524	617	
4	0	0	0	0	523	615	
5	0	0	0	0	522	614	
6	0	0	0	0	522	614	
7	0	0	0	0	521	612	
8	0	0	0	0	521	614	
9	0	0	0	0	520	614	
10	0	0	0	0	520	613	
11	0	0	0	0	521	615	
12	0	0	0	0	521	613	
13	0	0	0	0	520	612	
14	0	0	0	0	520	612	
15	0	0	0	0	520	610	
0	0	0	0	0	520	612	
1	0	0	0	0	521	612	
2	0	0	0	0	521	612	
3	0	0	0	0	521	614	
4	0	0	0	0	522	613	
5	0	0	0	0	523	614	
6	0	0	0	0	522	614	
7	0	0	0	0	522	611	
8	0	0	0	0	523	614	
9	0	0	0	0	523	614	
10	0	0	0	0	523	615	
11	0	0	0	0	522	617	
12	0	0	0	0	522	615	
13	0	0	0	0	521	615	
14	0	0	0	0	520	615	
15	0	0	0	0	520	614	
0	0	0	0	0	519	615	
1	0	0	0	0	519	615	
2	0	0	0	0	519	615	
3	0	0	0	0	519	617	
4	0	0	0	0	519	615	
5	0	0	0	0	519	615	
6	0	0	0	0	520	616	
7	0	0	0	0	521	614	
8	0	0	0	0	521	615	
9	0	0	0	0	522	615	
10	0	0	0	0	523	615	
11	0	0	0	0	523	617	
12	0	0	0	0	522	615	
13	0	0	0	0	522	616	
14	0	0	0	0	521	615	
15	0	0	0	0	521	613	
0	0	0	0	0	520	616	
1	0	0	0	0	519	615	
2	0	0	0	0	519	615	
3	0	0	0	0	519	618	
4	0	0	0	0	518	615	
5	0	0	0	0	517	615	
6	0	0	0	0	517	616	
7	0	0	0	0	517	614	
8	0	0	0	0	517	616	
9	0	0	0	0	518	616	
10	0	0	0	0	519	616	
11	0	0	0	0	519	618	
12	0	0	0	0	519	616	
13	0	0	0	0	520	616	
14	0	0	0	0	520	616	
15	0	0	0	0	520	614	
0	0	0	0	0	520	615	
1	0	0	0	0	520	615	
2	0	0	0	0	519	615	
3	0	0	0	0	519	617	
4	0	0	0	0	519	615	
5	0	0	0	0	519	615	
6	0	0	0	0	519	615	
7	0	0	0	0	519	614	
8	0	0	0	0	519	615	
9	0	0	0	0	519	615	
10	0	0	0	0	518	615	
11	0	0	0	0	518	617	
12	0	0	0	0	518	615	
13	0	0	0	0	519	615	
14	0	0	0	0	519	615	
15	0	0	0	0	519	613	
0	0	0	0	0	519	615	
1	0	0	0	0	519	615	
2	0	0	0	0	519	615	
3	0	0	0	0	519	617	
4	0	0	0	0	519	615	
5	0	0	0	0	519	615	
6	0	0	0	0	519	615	
7	0	0	0	0	519	613	
8	0	0	0	0	519	615	
9	0	0	0	0	519	615	
10	0	0	0	0	518	615	
11	0	0	0	0	517	618	
12	0	0	0	0	516	615	
13	0	0	0	0	515	615	
14	0	0	0	0	515	616	
15	0	0	0	0	514	613	
0	0	0	0	0	514	615	
1	0	0	0	0	515	616	
2	0	0	0	0	515	615	
3	0	0	0	0	515	617	
4	0	0	0	0	515	615	
5	0	0	0	0	515	616	
6	0	0	0	0	515	616	
7	0	0	0	0	515	614	
8	0	0	0	0	515	615	
9	0	0	0	0	514	616	
10	0	0	0	0	515	616	
11	0	0	0	0	514	617	
12	0	0	0	0	514	615	
13	0	0	0	0	514	615	
14	0	0	0	0	512	615	
15	0	0	0	0	512	613	
0	0	0	0	0	512	615	
1	0	0	0	0	511	615	
2	0	0	0	0	511	615	
3	0	0	0	0	511	617	
4	0	0	0	0	511	615	
5	0	0	0	0	512	615	
6	0	0	0	0	512	615	
7	0	0	0	0	513	613	
8	0	0	0	0	514	615	
9	0	0	0	0	515	615	
10	0	0	0	0	515	615	
11	0	0	0	0	516	616	
12	0	0	0	0	516	615	
13	0	0	0	0	516	615	
14	0	0	0	0	516	615	
15	0	0	0	0	516	612	
0	0	0	0	0	516	614	
1	0	0	0	0	516	615	
2	0	0	0	0	515	614	
3	0	0	0	0	515	617	
4	0	0	0	0	515	615	
5	0	0	0	0	515	615	
6	0	0	0	0	514	615	
7	0	0	0	0	513	613	
8	0	0	0	0	514	615	
9	0	0	0	0	515	615	
10	0	0	0	0	516	615	
11	0	0	0	0	516	617	
12	0	0	0	0	517	615	
13	0	0	0	0	518	615	
14	0	0	0	0	519	615	
15	0	0	0	0	520	613	
0	0	0	0	0	520	615	
1	0	0	0	0	520	615	
2	0	0	0	0	520	615	
3	0	0	0	0	519	617	
4	0	0	0	0	519	615	
5	0	0	0	0	519	615	
6	0	0	0	0	519	615	
7	0	0	0	0	519	613	
8	0	0	0	0	519	615	
9	0	0	0	0	519	615	
10	0	0	0	0	518	615	
11	0	0	0	0	518	617	
12	0	0	0	0	518	615	
13	0	0	0	0	519	615	
14	0	0	0	0	519	615	
15	0	0	0	0	520	613	
0	0	0	0	0	521	615	
1	0	0	0	0	521	615	
2	0	0	0	0	521	615	
3	0	0	0	0	520	617	
4	0	0	0	0	520	615	
5	0	0	0	0	519	615	
6	0	0	0	0	519	615	
7	0	0	0	0	518	613	
8	0	0	0	0	518	616	
9	0	0	0	0	517	615	
10	0	0	0	0	516	615	
11	0	0	0	0	516	617	
12	0	0	0	0	515	615	
13	0	0	0	0	516	615	
14	0	0	0	0	516	615	
15	0	0	0	0	516	613	
0	0	0	0	0	517	616	
1	0	0	0	0	517	616	
2	0	0	0	0	518	615	
3	0	0	0	0	519	618	
4	0	0	0	0	519	616	
5	0	0	0	0	520	616	
6	0	0	0	0	521	616	
7	0	0	0	0	521	613	
8	0	0	0	0	522	616	
9	0	0	0	0	522	615	
10	0	0	0	0	522	615	
11	0	0	0	0	521	617	
12	0	0	0	0	521	616	
13	0	0	0	0	521	616	
14	0	0	0	0	520	615	
15	0	0	0	0	519	614	
0	0	0	0	0	519	615	
1	0	0	0	0	519	616	
2	0	0	0	0	519	616	
3	0	0	0	0	519	617	
4	0	0	0	0	519	616	
5	0	0	0	0	519	616	
6	0	0	0	0	520	615	
7	0	0	0	0	522	614	
8	0	0	0	0	522	615	
9	0	0	0	0	522	615	
10	0	0	0	0	522	615	
11	0	0	0	0	522	618	
12	0	0	0	0	522	615	
13	0	0	0	0	522	616	
14	0	0	0	0	522	615	
15	0	0	0	0	521	613	
0	0	0	0	0	521	615	
1	0	0	0	0	521	615	
2	0	0	0	0	520	615	
3	0	0	0	0	520	617	
4	0	0	0	0	519	615	
5	0	0	0	0	519	615	
6	0	0	0	0	519	615	
7	0	0	0	0	519	613	
8	0	0	0	0	520	616	
9	0	0	0	0	521	615	
10	0	0	0	0	521	615	
11	0	0	0	0	522	617	
12	0	0	0	0	522	615	
13	0	0	0	0	522	615	
14	0	0	0	0	522	615	
15	0	0	0	0	523	614	
0	0	0	0	0	523	615	
1	0	0	0	0	523	615	
2	0	0	0	0	523	615	
3	0	0	0	0	521	617	
4	0	0	0	0	520	615	
5	0	0	0	0	518	615	
6	0	0	0	0	515	615	
7	0	0	0	0	513	613	
8	0	0	0	0	509	614	
9	0	0	0	0	505	614	
10	0	0	0	0	501	614	
11	0	0	0	0	498	616	
12	0	0	0	0	495	615	
13	0	0	0	0	492	615	
14	0	0	0	0	490	615	
15	0	0	0	0	488	613	
0	0	0	0	0	486	615	
1	0	0	0	0	483	615	
2	0	0	0	0	480	615	
3	0	0	0	0	476	617	
4	0	0	0	0	472	615	
5	0	0	0	0	467	615	
6	0	0	0	0	461	615	
7	0	0	0	0	456	613	
8	0	0	0	0	451	615	
9	0	0	0	0	448	615	
10	0	0	0	0	447	615	
11	0	0	0	0	447	617	
12	0	0	0	0	446	614	
13	0	0	0	0	445	614	
14	0	0	0	0	446	615	
15	0	0	0	0	449	612	
0	0	0	0	0	455	614	
1	0	0	0	0	460	614	
2	0	0	0	0	466	615	
3	0	0	0	0	474	617	
4	0	0	0	0	480	615	
5	0	0	0	0	487	615	
6	0	0	0	0	494	615	
7	0	0	0	0	502	613	
8	0	0	0	0	513	615	
9	0	0	0	0	527	615	
10	0	0	0	0	542	615	
11	0	0	0	0	558	617	
12	0	0	0	0	573	615	
13	0	0	0	0	588	615	
14	0	0	0	0	607	615	
15	0	0	0	0	631	613	
0	0	0	0	0	657	615	
1	0	0	0	0	686	615	
2	0	0	0	0	714	615	
3	0	0	0	0	740	617	
4	0	0	0	0	757	615	
5	0	0	0	0	765	615	
6	0	0	0	0	766	615	
7	0	0	0	0	760	612	
8	0	0	0	0	749	615	
9	0	0	0	0	737	616	
10	0	0	0	0	721	615	
11	0	0	0	0	706	618	
12	0	0	0	0	690	615	
13	0	0	0	0	675	615	
14	0	0	0	0	659	616	
15	0	0	0	0	644	614	
0	0	0	0	0	629	616	
1	0	0	0	0	616	615	
2	0	0	0	0	603	615	
3	0	0	0	0	591	617	
4	0	0	0	0	580	615	
5	0	0	0	0	571	615	
6	0	0	0	0	561	615	
7	0	0	0	0	553	613	
8	0	0	0	0	546	616	
9	0	0	0	0	539	615	
10	0	0	0	0	532	615	
11	0	0	0	0	526	617	
12	0	0	0	0	520	615	
13	0	0	0	0	514	616	
14	0	0	0	0	510	616	
15	0	0	0	0	505	614	
0	0	0	0	0	501	617	
1	0	0	0	0	497	616	
2	0	0	0	0	495	616	
3	0	0	0	0	492	618	
4	0	0	0	0	490	616	
5	0	0	0	0	487	616	
6	0	0	0	0	486	617	
7	0	0	0	0	484	615	
8	0	0	0	0	482	616	
9	0	0	0	0	481	616	
10	0	0	0	0	480	616	
11	0	0	0	0	480	618	
12	0	0	0	0	480	616	
13	0	0	0	0	480	616	
14	0	0	0	0	480	616	
15	0	0	0	0	481	614	
0	0	0	0	0	481	616	
1	0	0	0	0	481	616	
2	0	0	0	0	482	616	
3	0	0	0	0	481	618	
4	0	0	0	0	481	616	
5	0	0	0	0	480	616	
6	0	0	0	0	480	616	
7	0	0	0	0	480	614	
8	0	0	0	0	480	615	
9	0	0	0	0	480	617	
10	0	0	0	0	480	616	
11	0	0	0	0	480	618	
12	0	0	0	0	480	615	
13	0	0	0	0	480	616	
14	0	0	0	0	480	616	
15	0	0	0	0	481	614	
0	0	0	0	0	481	616	
1	0	0	0	0	482	615	
2	0	0	0	0	483	615	
3	0	0	0	0	484	617	
4	0	0	0	0	484	615	
5	0	0	0	0	485	615	
6	0	0	0	0	486	615	
7	0	0	0	0	486	613	
8	0	0	0	0	487	615	
9	0	0	0	0	488	615	
10	0	0	0	0	489	615	
11	0	0	0	0	489	617	
12	0	0	0	0	488	615	
13	0	0	0	0	487	615	
14	0	0	0	0	487	615	
15	0	0	0	0	487	613	
0	0	0	0	0	487	615	
1	0	0	0	0	488	615	
2	0	0	0	0	488	615	
3	0	0	0	0	488	617	
4	0	0	0	0	489	615	
5	0	0	0	0	489	615	
6	0	0	0	0	490	615	
7	0	0	0	0	490	613	
8	0	0	0	0	490	614	
9	0	0	0	0	491	615	
10	0	0	0	0	491	614	
11	0	0	0	0	491	617	
12	0	0	0	0	491	615	
13	0	0	0	0	491	615	
14	0	0	0	0	492	615	
15	0	0	0	0	492	612	
0	0	0	0	0	492	615	
1	0	0	0	0	492	615	
2	0	0	0	0	493	615	
3	0	0	0	0	493	618	
