# OpenSignals Text File Format. Version 1
# {"98:D3:91:FD:59:64": {"position": 0, "device": "bitalino_rev", "device name": "98:D3:91:FD:59:64", "device connection": "BTH98:D3:91:FD:59:64", "sampling rate": 1000, "resolution": [4, 1, 1, 1, 1, 10, 10], "firmware version": 1281, "comments": "", "keywords": "", "mode": 0, "sync interval": 2, "date": "2021-9-13", "time": "11:50:27.386", "channels": [2, 5], "sensor": ["RAW", "RAW"], "label": ["A2", "A5"], "column": ["nSeq", "I1", "I2", "O1", "O2", "A2", "A5"], "special": [{}, {}], "digital IO": [0, 0, 1, 1], "convertedValues": 0}}
# EndOfHeader
0	0	0	0	0	521	629	
1	0	0	0	0	519	628	
2	0	0	0	0	518	628	
3	0	0	0	0	517	628	
4	0	0	0	0	516	628	
5	0	0	0	0	516	628	
6	0	0	0	0	515	627	
7	0	0	0	0	515	627	
8	0	0	0	0	516	627	
9	0	0	0	0	516	627	
10	0	0	0	0	516	627	
11	0	0	0	0	515	626	
12	0	0	0	0	514	626	
13	0	0	0	0	511	626	
14	0	0	0	0	508	626	
15	0	0	0	0	507	626	
0	0	0	0	0	507	625	
1	0	0	0	0	509	625	
2	0	0	0	0	513	626	
3	0	0	0	0	515	625	
4	0	0	0	0	515	625	
5	0	0	0	0	514	625	
6	0	0	0	0	515	625	
7	0	0	0	0	514	625	
8	0	0	0	0	513	625	
9	0	0	0	0	513	626	
10	0	0	0	0	513	625	
11	0	0	0	0	513	625	
12	0	0	0	0	514	625	
13	0	0	0	0	515	625	
14	0	0	0	0	516	625	
15	0	0	0	0	517	624	
0	0	0	0	0	518	624	
1	0	0	0	0	519	625	
2	0	0	0	0	519	624	
3	0	0	0	0	519	624	
4	0	0	0	0	518	624	
5	0	0	0	0	518	624	
6	0	0	0	0	518	624	
7	0	0	0	0	517	623	
8	0	0	0	0	516	623	
9	0	0	0	0	515	624	
10	0	0	0	0	515	624	
11	0	0	0	0	514	623	
12	0	0	0	0	514	622	
13	0	0	0	0	513	623	
14	0	0	0	0	513	622	
15	0	0	0	0	513	623	
0	0	0	0	0	513	622	
1	0	0	0	0	513	623	
2	0	0	0	0	513	622	
3	0	0	0	0	513	622	
4	0	0	0	0	513	621	
5	0	0	0	0	513	622	
6	0	0	0	0	512	621	
7	0	0	0	0	512	621	
8	0	0	0	0	512	620	
9	0	0	0	0	512	621	
10	0	0	0	0	511	620	
11	0	0	0	0	512	620	
12	0	0	0	0	514	621	
13	0	0	0	0	516	620	
14	0	0	0	0	517	621	
15	0	0	0	0	517	621	
0	0	0	0	0	516	620	
1	0	0	0	0	516	621	
2	0	0	0	0	516	620	
3	0	0	0	0	516	621	
4	0	0	0	0	516	622	
5	0	0	0	0	515	622	
6	0	0	0	0	515	622	
7	0	0	0	0	515	621	
8	0	0	0	0	514	621	
9	0	0	0	0	515	621	
10	0	0	0	0	514	621	
11	0	0	0	0	514	620	
12	0	0	0	0	514	620	
13	0	0	0	0	514	620	
14	0	0	0	0	514	619	
15	0	0	0	0	513	619	
0	0	0	0	0	512	620	
1	0	0	0	0	511	620	
2	0	0	0	0	510	620	
3	0	0	0	0	509	620	
4	0	0	0	0	508	619	
5	0	0	0	0	508	620	
6	0	0	0	0	508	620	
7	0	0	0	0	510	620	
8	0	0	0	0	511	621	
9	0	0	0	0	512	622	
10	0	0	0	0	512	623	
11	0	0	0	0	512	624	
12	0	0	0	0	513	624	
13	0	0	0	0	513	626	
14	0	0	0	0	511	627	
15	0	0	0	0	511	628	
0	0	0	0	0	511	628	
1	0	0	0	0	512	630	
2	0	0	0	0	515	630	
3	0	0	0	0	516	631	
4	0	0	0	0	515	632	
5	0	0	0	0	512	632	
6	0	0	0	0	511	633	
7	0	0	0	0	509	633	
8	0	0	0	0	508	633	
9	0	0	0	0	508	634	
10	0	0	0	0	508	633	
11	0	0	0	0	511	633	
12	0	0	0	0	511	632	
13	0	0	0	0	510	633	
14	0	0	0	0	512	632	
15	0	0	0	0	511	631	
0	0	0	0	0	509	631	
1	0	0	0	0	507	631	
2	0	0	0	0	508	630	
3	0	0	0	0	510	630	
4	0	0	0	0	510	630	
5	0	0	0	0	511	629	
6	0	0	0	0	510	628	
7	0	0	0	0	510	627	
8	0	0	0	0	510	627	
9	0	0	0	0	511	627	
10	0	0	0	0	511	626	
11	0	0	0	0	511	626	
12	0	0	0	0	512	625	
13	0	0	0	0	512	626	
14	0	0	0	0	512	625	
15	0	0	0	0	511	624	
0	0	0	0	0	511	625	
1	0	0	0	0	512	624	
2	0	0	0	0	513	624	
3	0	0	0	0	512	624	
4	0	0	0	0	511	623	
5	0	0	0	0	510	623	
6	0	0	0	0	510	623	
7	0	0	0	0	510	623	
8	0	0	0	0	509	623	
9	0	0	0	0	510	623	
10	0	0	0	0	511	623	
11	0	0	0	0	511	623	
12	0	0	0	0	511	622	
13	0	0	0	0	512	622	
14	0	0	0	0	513	621	
15	0	0	0	0	514	621	
0	0	0	0	0	515	621	
1	0	0	0	0	515	621	
2	0	0	0	0	515	621	
3	0	0	0	0	515	621	
4	0	0	0	0	515	621	
5	0	0	0	0	515	621	
6	0	0	0	0	514	621	
7	0	0	0	0	514	621	
8	0	0	0	0	514	621	
9	0	0	0	0	514	621	
10	0	0	0	0	513	620	
11	0	0	0	0	513	620	
12	0	0	0	0	512	620	
13	0	0	0	0	512	621	
14	0	0	0	0	511	620	
15	0	0	0	0	511	622	
0	0	0	0	0	510	622	
1	0	0	0	0	510	622	
2	0	0	0	0	510	621	
3	0	0	0	0	511	621	
4	0	0	0	0	512	621	
5	0	0	0	0	512	622	
6	0	0	0	0	512	622	
7	0	0	0	0	512	621	
8	0	0	0	0	513	622	
9	0	0	0	0	512	622	
10	0	0	0	0	511	622	
11	0	0	0	0	512	622	
12	0	0	0	0	511	622	
13	0	0	0	0	511	622	
14	0	0	0	0	510	622	
15	0	0	0	0	509	623	
0	0	0	0	0	509	623	
1	0	0	0	0	508	623	
2	0	0	0	0	507	623	
3	0	0	0	0	506	623	
4	0	0	0	0	506	623	
5	0	0	0	0	507	624	
6	0	0	0	0	508	624	
7	0	0	0	0	507	624	
8	0	0	0	0	505	624	
9	0	0	0	0	504	625	
10	0	0	0	0	504	624	
11	0	0	0	0	504	624	
12	0	0	0	0	506	625	
13	0	0	0	0	509	624	
14	0	0	0	0	512	624	
15	0	0	0	0	513	624	
0	0	0	0	0	510	624	
1	0	0	0	0	510	625	
2	0	0	0	0	510	625	
3	0	0	0	0	510	624	
4	0	0	0	0	511	624	
5	0	0	0	0	512	624	
6	0	0	0	0	512	624	
7	0	0	0	0	512	624	
8	0	0	0	0	512	624	
9	0	0	0	0	512	624	
10	0	0	0	0	512	623	
11	0	0	0	0	511	623	
12	0	0	0	0	512	623	
13	0	0	0	0	511	624	
14	0	0	0	0	511	623	
15	0	0	0	0	511	623	
0	0	0	0	0	510	624	
1	0	0	0	0	510	624	
2	0	0	0	0	511	624	
3	0	0	0	0	512	624	
4	0	0	0	0	513	624	
5	0	0	0	0	514	625	
6	0	0	0	0	514	625	
7	0	0	0	0	514	625	
8	0	0	0	0	514	625	
9	0	0	0	0	514	626	
10	0	0	0	0	514	626	
11	0	0	0	0	514	625	
12	0	0	0	0	514	626	
13	0	0	0	0	515	626	
14	0	0	0	0	515	625	
15	0	0	0	0	518	625	
0	0	0	0	0	519	625	
1	0	0	0	0	519	626	
2	0	0	0	0	520	625	
3	0	0	0	0	521	625	
4	0	0	0	0	521	625	
5	0	0	0	0	520	625	
6	0	0	0	0	519	625	
7	0	0	0	0	519	625	
8	0	0	0	0	518	624	
9	0	0	0	0	518	625	
10	0	0	0	0	517	624	
11	0	0	0	0	516	624	
12	0	0	0	0	515	624	
13	0	0	0	0	515	624	
14	0	0	0	0	514	624	
15	0	0	0	0	513	624	
0	0	0	0	0	512	624	
1	0	0	0	0	512	625	
2	0	0	0	0	511	623	
3	0	0	0	0	510	624	
4	0	0	0	0	510	623	
5	0	0	0	0	511	623	
6	0	0	0	0	512	623	
7	0	0	0	0	513	623	
8	0	0	0	0	515	623	
9	0	0	0	0	515	622	
10	0	0	0	0	514	622	
11	0	0	0	0	513	622	
12	0	0	0	0	513	622	
13	0	0	0	0	513	622	
14	0	0	0	0	515	622	
15	0	0	0	0	516	622	
0	0	0	0	0	518	622	
1	0	0	0	0	519	623	
2	0	0	0	0	519	623	
3	0	0	0	0	519	623	
4	0	0	0	0	518	623	
5	0	0	0	0	516	623	
6	0	0	0	0	514	623	
7	0	0	0	0	512	623	
8	0	0	0	0	511	623	
9	0	0	0	0	511	623	
10	0	0	0	0	511	623	
11	0	0	0	0	512	623	
12	0	0	0	0	514	623	
13	0	0	0	0	515	623	
14	0	0	0	0	516	622	
15	0	0	0	0	517	623	
0	0	0	0	0	517	622	
1	0	0	0	0	518	623	
2	0	0	0	0	517	622	
3	0	0	0	0	516	622	
4	0	0	0	0	517	622	
5	0	0	0	0	517	622	
6	0	0	0	0	516	622	
7	0	0	0	0	517	623	
8	0	0	0	0	519	624	
9	0	0	0	0	520	624	
10	0	0	0	0	521	623	
11	0	0	0	0	521	624	
12	0	0	0	0	522	624	
13	0	0	0	0	522	625	
14	0	0	0	0	520	625	
15	0	0	0	0	518	625	
0	0	0	0	0	514	626	
1	0	0	0	0	512	627	
2	0	0	0	0	508	626	
3	0	0	0	0	506	626	
4	0	0	0	0	503	626	
5	0	0	0	0	498	626	
6	0	0	0	0	494	626	
7	0	0	0	0	491	625	
8	0	0	0	0	491	625	
9	0	0	0	0	492	625	
10	0	0	0	0	495	625	
11	0	0	0	0	500	624	
12	0	0	0	0	506	624	
13	0	0	0	0	513	624	
14	0	0	0	0	523	624	
15	0	0	0	0	537	623	
0	0	0	0	0	551	623	
1	0	0	0	0	564	623	
2	0	0	0	0	580	623	
3	0	0	0	0	597	623	
4	0	0	0	0	613	623	
5	0	0	0	0	629	623	
6	0	0	0	0	642	623	
7	0	0	0	0	651	623	
8	0	0	0	0	658	622	
9	0	0	0	0	662	623	
10	0	0	0	0	662	622	
11	0	0	0	0	660	623	
12	0	0	0	0	656	622	
13	0	0	0	0	651	622	
14	0	0	0	0	643	622	
15	0	0	0	0	633	621	
0	0	0	0	0	623	621	
1	0	0	0	0	612	621	
2	0	0	0	0	600	620	
3	0	0	0	0	588	620	
4	0	0	0	0	577	620	
5	0	0	0	0	570	620	
6	0	0	0	0	565	620	
7	0	0	0	0	559	620	
8	0	0	0	0	553	619	
9	0	0	0	0	546	619	
10	0	0	0	0	540	619	
11	0	0	0	0	537	618	
12	0	0	0	0	534	619	
13	0	0	0	0	528	619	
14	0	0	0	0	523	619	
15	0	0	0	0	517	619	
0	0	0	0	0	512	618	
1	0	0	0	0	508	619	
2	0	0	0	0	504	619	
3	0	0	0	0	501	618	
4	0	0	0	0	499	618	
5	0	0	0	0	496	618	
6	0	0	0	0	494	618	
7	0	0	0	0	493	618	
8	0	0	0	0	492	619	
9	0	0	0	0	492	619	
10	0	0	0	0	492	619	
11	0	0	0	0	492	619	
12	0	0	0	0	493	619	
13	0	0	0	0	494	620	
14	0	0	0	0	493	620	
15	0	0	0	0	492	620	
0	0	0	0	0	491	620	
1	0	0	0	0	489	621	
2	0	0	0	0	487	621	
3	0	0	0	0	486	621	
4	0	0	0	0	486	621	
5	0	0	0	0	486	622	
6	0	0	0	0	487	622	
7	0	0	0	0	487	623	
8	0	0	0	0	485	623	
9	0	0	0	0	485	624	
10	0	0	0	0	488	623	
11	0	0	0	0	490	624	
12	0	0	0	0	489	624	
13	0	0	0	0	491	625	
14	0	0	0	0	495	624	
15	0	0	0	0	496	624	
0	0	0	0	0	495	625	
1	0	0	0	0	494	625	
2	0	0	0	0	493	625	
3	0	0	0	0	492	625	
4	0	0	0	0	492	625	
5	0	0	0	0	491	626	
6	0	0	0	0	491	625	
7	0	0	0	0	492	625	
8	0	0	0	0	492	625	
9	0	0	0	0	492	625	
10	0	0	0	0	490	625	
11	0	0	0	0	490	624	
12	0	0	0	0	490	624	
13	0	0	0	0	488	624	
14	0	0	0	0	487	624	
15	0	0	0	0	487	623	
0	0	0	0	0	487	623	
1	0	0	0	0	487	623	
2	0	0	0	0	488	623	
3	0	0	0	0	488	623	
4	0	0	0	0	487	624	
5	0	0	0	0	487	624	
6	0	0	0	0	488	623	
7	0	0	0	0	489	624	
8	0	0	0	0	489	624	
9	0	0	0	0	491	624	
10	0	0	0	0	491	624	
11	0	0	0	0	492	624	
12	0	0	0	0	493	623	
13	0	0	0	0	494	624	
14	0	0	0	0	492	624	
15	0	0	0	0	491	624	
0	0	0	0	0	492	624	
1	0	0	0	0	491	624	
2	0	0	0	0	489	624	
3	0	0	0	0	488	624	
4	0	0	0	0	489	623	
5	0	0	0	0	489	624	
6	0	0	0	0	489	624	
7	0	0	0	0	489	623	
8	0	0	0	0	488	623	
9	0	0	0	0	487	624	
10	0	0	0	0	487	623	
11	0	0	0	0	487	623	
12	0	0	0	0	487	623	
13	0	0	0	0	488	624	
14	0	0	0	0	487	623	
15	0	0	0	0	488	624	
0	0	0	0	0	489	622	
1	0	0	0	0	489	623	
2	0	0	0	0	489	622	
3	0	0	0	0	489	622	
4	0	0	0	0	490	623	
5	0	0	0	0	490	622	
6	0	0	0	0	489	622	
7	0	0	0	0	488	621	
8	0	0	0	0	487	621	
9	0	0	0	0	486	621	
10	0	0	0	0	487	620	
11	0	0	0	0	487	620	
12	0	0	0	0	487	620	
13	0	0	0	0	487	620	
14	0	0	0	0	487	620	
15	0	0	0	0	487	619	
0	0	0	0	0	488	619	
1	0	0	0	0	487	619	
2	0	0	0	0	487	619	
3	0	0	0	0	487	619	
4	0	0	0	0	487	619	
5	0	0	0	0	488	618	
6	0	0	0	0	489	619	
7	0	0	0	0	490	618	
8	0	0	0	0	491	618	
9	0	0	0	0	492	618	
10	0	0	0	0	491	618	
11	0	0	0	0	492	618	
12	0	0	0	0	492	618	
13	0	0	0	0	494	618	
14	0	0	0	0	496	618	
15	0	0	0	0	497	618	
0	0	0	0	0	496	619	
1	0	0	0	0	495	620	
2	0	0	0	0	494	619	
3	0	0	0	0	493	620	
4	0	0	0	0	492	620	
5	0	0	0	0	492	621	
6	0	0	0	0	493	621	
7	0	0	0	0	495	622	
8	0	0	0	0	497	622	
9	0	0	0	0	500	623	
10	0	0	0	0	500	623	
11	0	0	0	0	498	623	
12	0	0	0	0	495	623	
13	0	0	0	0	493	624	
14	0	0	0	0	492	623	
15	0	0	0	0	492	624	
0	0	0	0	0	493	624	
1	0	0	0	0	494	624	
2	0	0	0	0	496	624	
3	0	0	0	0	497	624	
4	0	0	0	0	499	625	
5	0	0	0	0	498	625	
6	0	0	0	0	499	625	
7	0	0	0	0	498	626	
8	0	0	0	0	497	627	
9	0	0	0	0	497	627	
10	0	0	0	0	498	626	
11	0	0	0	0	497	627	
12	0	0	0	0	496	627	
13	0	0	0	0	497	627	
14	0	0	0	0	497	628	
15	0	0	0	0	496	628	
0	0	0	0	0	495	628	
1	0	0	0	0	494	628	
2	0	0	0	0	494	628	
3	0	0	0	0	494	628	
4	0	0	0	0	494	629	
5	0	0	0	0	494	629	
6	0	0	0	0	494	629	
7	0	0	0	0	495	629	
8	0	0	0	0	497	629	
9	0	0	0	0	497	630	
10	0	0	0	0	496	630	
11	0	0	0	0	495	630	
12	0	0	0	0	494	629	
13	0	0	0	0	494	629	
14	0	0	0	0	495	629	
15	0	0	0	0	496	628	
0	0	0	0	0	496	627	
1	0	0	0	0	497	628	
2	0	0	0	0	498	627	
3	0	0	0	0	499	627	
4	0	0	0	0	499	627	
5	0	0	0	0	499	627	
6	0	0	0	0	498	626	
7	0	0	0	0	498	626	
8	0	0	0	0	497	625	
9	0	0	0	0	496	626	
10	0	0	0	0	498	625	
11	0	0	0	0	500	624	
12	0	0	0	0	503	624	
13	0	0	0	0	501	624	
14	0	0	0	0	500	623	
15	0	0	0	0	500	623	
0	0	0	0	0	500	622	
1	0	0	0	0	499	622	
2	0	0	0	0	501	621	
3	0	0	0	0	503	622	
4	0	0	0	0	504	621	
5	0	0	0	0	505	621	
6	0	0	0	0	504	621	
7	0	0	0	0	503	621	
8	0	0	0	0	503	621	
9	0	0	0	0	504	621	
10	0	0	0	0	506	620	
11	0	0	0	0	507	621	
12	0	0	0	0	510	621	
13	0	0	0	0	511	622	
14	0	0	0	0	510	620	
15	0	0	0	0	508	620	
0	0	0	0	0	507	620	
1	0	0	0	0	507	621	
2	0	0	0	0	505	621	
3	0	0	0	0	504	622	
4	0	0	0	0	503	621	
5	0	0	0	0	505	622	
6	0	0	0	0	508	621	
7	0	0	0	0	509	621	
8	0	0	0	0	510	621	
9	0	0	0	0	511	621	
10	0	0	0	0	511	620	
11	0	0	0	0	510	621	
12	0	0	0	0	508	621	
13	0	0	0	0	508	621	
14	0	0	0	0	507	620	
15	0	0	0	0	508	620	
0	0	0	0	0	507	620	
1	0	0	0	0	506	620	
2	0	0	0	0	505	620	
3	0	0	0	0	505	620	
4	0	0	0	0	504	619	
5	0	0	0	0	504	620	
6	0	0	0	0	505	620	
7	0	0	0	0	505	620	
8	0	0	0	0	505	620	
9	0	0	0	0	505	621	
10	0	0	0	0	505	622	
11	0	0	0	0	505	622	
12	0	0	0	0	505	622	
13	0	0	0	0	506	622	
14	0	0	0	0	506	623	
15	0	0	0	0	507	624	
0	0	0	0	0	507	624	
1	0	0	0	0	506	624	
2	0	0	0	0	507	624	
3	0	0	0	0	506	624	
4	0	0	0	0	506	625	
5	0	0	0	0	505	625	
6	0	0	0	0	505	625	
7	0	0	0	0	505	625	
8	0	0	0	0	505	625	
9	0	0	0	0	505	625	
10	0	0	0	0	504	625	
11	0	0	0	0	502	625	
12	0	0	0	0	499	625	
13	0	0	0	0	497	625	
14	0	0	0	0	496	624	
15	0	0	0	0	495	625	
0	0	0	0	0	493	625	
1	0	0	0	0	492	624	
2	0	0	0	0	491	623	
3	0	0	0	0	491	624	
4	0	0	0	0	492	624	
5	0	0	0	0	493	624	
6	0	0	0	0	495	624	
7	0	0	0	0	496	624	
8	0	0	0	0	495	624	
9	0	0	0	0	494	624	
10	0	0	0	0	493	624	
11	0	0	0	0	492	625	
12	0	0	0	0	492	625	
13	0	0	0	0	490	625	
14	0	0	0	0	490	625	
15	0	0	0	0	490	625	
0	0	0	0	0	489	625	
1	0	0	0	0	489	625	
2	0	0	0	0	488	625	
3	0	0	0	0	486	626	
4	0	0	0	0	484	626	
5	0	0	0	0	482	627	
6	0	0	0	0	481	625	
7	0	0	0	0	481	626	
8	0	0	0	0	481	625	
9	0	0	0	0	482	626	
10	0	0	0	0	482	625	
11	0	0	0	0	482	625	
12	0	0	0	0	482	625	
13	0	0	0	0	482	625	
14	0	0	0	0	483	625	
15	0	0	0	0	485	625	
0	0	0	0	0	486	624	
1	0	0	0	0	487	625	
2	0	0	0	0	488	624	
3	0	0	0	0	489	624	
4	0	0	0	0	489	624	
5	0	0	0	0	488	624	
6	0	0	0	0	487	623	
7	0	0	0	0	487	623	
8	0	0	0	0	487	624	
9	0	0	0	0	487	623	
10	0	0	0	0	487	623	
11	0	0	0	0	487	623	
12	0	0	0	0	487	623	
13	0	0	0	0	487	623	
14	0	0	0	0	490	623	
15	0	0	0	0	491	623	
0	0	0	0	0	489	623	
1	0	0	0	0	487	623	
2	0	0	0	0	486	623	
3	0	0	0	0	488	623	
4	0	0	0	0	490	623	
5	0	0	0	0	491	623	
6	0	0	0	0	492	623	
7	0	0	0	0	492	622	
8	0	0	0	0	492	622	
9	0	0	0	0	491	622	
10	0	0	0	0	492	622	
11	0	0	0	0	492	622	
12	0	0	0	0	493	622	
13	0	0	0	0	494	623	
14	0	0	0	0	493	623	
15	0	0	0	0	492	623	
0	0	0	0	0	493	623	
1	0	0	0	0	492	624	
2	0	0	0	0	492	623	
3	0	0	0	0	492	624	
4	0	0	0	0	492	624	
5	0	0	0	0	493	624	
6	0	0	0	0	493	624	
7	0	0	0	0	493	624	
8	0	0	0	0	492	625	
9	0	0	0	0	491	626	
10	0	0	0	0	490	625	
11	0	0	0	0	491	626	
12	0	0	0	0	491	626	
13	0	0	0	0	490	627	
14	0	0	0	0	489	627	
15	0	0	0	0	490	627	
0	0	0	0	0	490	627	
1	0	0	0	0	492	627	
2	0	0	0	0	493	627	
3	0	0	0	0	495	627	
4	0	0	0	0	496	628	
5	0	0	0	0	498	627	
6	0	0	0	0	499	628	
7	0	0	0	0	500	628	
8	0	0	0	0	501	629	
9	0	0	0	0	500	629	
10	0	0	0	0	499	628	
11	0	0	0	0	500	630	
12	0	0	0	0	501	629	
13	0	0	0	0	500	629	
14	0	0	0	0	499	629	
15	0	0	0	0	498	628	
0	0	0	0	0	500	628	
1	0	0	0	0	501	629	
2	0	0	0	0	502	628	
3	0	0	0	0	502	627	
4	0	0	0	0	502	628	
5	0	0	0	0	501	628	
6	0	0	0	0	500	627	
7	0	0	0	0	502	626	
8	0	0	0	0	501	626	
9	0	0	0	0	500	626	
10	0	0	0	0	497	625	
11	0	0	0	0	496	625	
12	0	0	0	0	495	624	
13	0	0	0	0	495	624	
14	0	0	0	0	496	623	
15	0	0	0	0	498	622	
0	0	0	0	0	498	622	
1	0	0	0	0	499	622	
2	0	0	0	0	498	622	
3	0	0	0	0	499	622	
4	0	0	0	0	499	621	
5	0	0	0	0	498	621	
6	0	0	0	0	498	621	
7	0	0	0	0	499	620	
8	0	0	0	0	500	620	
9	0	0	0	0	502	620	
10	0	0	0	0	502	619	
11	0	0	0	0	501	619	
12	0	0	0	0	501	619	
13	0	0	0	0	501	619	
14	0	0	0	0	500	618	
15	0	0	0	0	497	617	
0	0	0	0	0	494	617	
1	0	0	0	0	493	617	
2	0	0	0	0	494	616	
3	0	0	0	0	496	617	
4	0	0	0	0	499	616	
5	0	0	0	0	502	617	
6	0	0	0	0	503	617	
7	0	0	0	0	504	617	
8	0	0	0	0	505	616	
9	0	0	0	0	506	617	
10	0	0	0	0	505	617	
11	0	0	0	0	505	617	
12	0	0	0	0	505	618	
13	0	0	0	0	506	618	
14	0	0	0	0	507	618	
15	0	0	0	0	508	618	
0	0	0	0	0	507	618	
1	0	0	0	0	505	619	
2	0	0	0	0	505	618	
3	0	0	0	0	506	619	
4	0	0	0	0	507	618	
5	0	0	0	0	507	619	
6	0	0	0	0	507	619	
7	0	0	0	0	506	619	
8	0	0	0	0	507	619	
9	0	0	0	0	509	619	
10	0	0	0	0	511	619	
11	0	0	0	0	512	619	
12	0	0	0	0	511	620	
13	0	0	0	0	509	620	
14	0	0	0	0	506	620	
15	0	0	0	0	505	621	
0	0	0	0	0	506	622	
1	0	0	0	0	507	622	
2	0	0	0	0	507	622	
3	0	0	0	0	507	623	
4	0	0	0	0	506	623	
5	0	0	0	0	504	624	
6	0	0	0	0	501	624	
7	0	0	0	0	501	623	
8	0	0	0	0	502	624	
9	0	0	0	0	503	624	
10	0	0	0	0	506	624	
11	0	0	0	0	509	624	
12	0	0	0	0	510	625	
13	0	0	0	0	510	625	
14	0	0	0	0	508	625	
15	0	0	0	0	507	625	
0	0	0	0	0	508	625	
1	0	0	0	0	508	625	
2	0	0	0	0	508	625	
3	0	0	0	0	508	625	
4	0	0	0	0	507	625	
5	0	0	0	0	506	625	
6	0	0	0	0	506	625	
7	0	0	0	0	506	625	
8	0	0	0	0	506	626	
9	0	0	0	0	507	627	
10	0	0	0	0	508	626	
11	0	0	0	0	508	626	
12	0	0	0	0	508	626	
13	0	0	0	0	507	626	
14	0	0	0	0	508	626	
15	0	0	0	0	508	627	
0	0	0	0	0	509	627	
1	0	0	0	0	509	628	
2	0	0	0	0	509	627	
3	0	0	0	0	508	627	
4	0	0	0	0	508	627	
5	0	0	0	0	508	627	
6	0	0	0	0	508	627	
7	0	0	0	0	508	628	
8	0	0	0	0	509	627	
9	0	0	0	0	510	628	
10	0	0	0	0	508	627	
11	0	0	0	0	508	627	
12	0	0	0	0	508	627	
13	0	0	0	0	507	627	
14	0	0	0	0	506	627	
15	0	0	0	0	506	625	
0	0	0	0	0	507	625	
1	0	0	0	0	507	625	
2	0	0	0	0	508	625	
3	0	0	0	0	509	625	
4	0	0	0	0	508	624	
5	0	0	0	0	507	624	
6	0	0	0	0	507	624	
7	0	0	0	0	507	624	
8	0	0	0	0	507	624	
9	0	0	0	0	507	624	
10	0	0	0	0	506	623	
11	0	0	0	0	506	624	
12	0	0	0	0	505	623	
13	0	0	0	0	504	624	
14	0	0	0	0	504	624	
15	0	0	0	0	503	624	
0	0	0	0	0	502	624	
1	0	0	0	0	500	624	
2	0	0	0	0	500	625	
3	0	0	0	0	501	624	
4	0	0	0	0	504	624	
5	0	0	0	0	506	624	
6	0	0	0	0	509	624	
7	0	0	0	0	512	624	
8	0	0	0	0	512	623	
9	0	0	0	0	513	624	
10	0	0	0	0	513	623	
11	0	0	0	0	513	622	
12	0	0	0	0	514	622	
13	0	0	0	0	514	621	
14	0	0	0	0	514	621	
15	0	0	0	0	513	621	
0	0	0	0	0	512	620	
1	0	0	0	0	511	620	
2	0	0	0	0	510	619	
3	0	0	0	0	510	620	
4	0	0	0	0	509	619	
5	0	0	0	0	509	619	
6	0	0	0	0	509	620	
7	0	0	0	0	509	619	
8	0	0	0	0	508	619	
9	0	0	0	0	508	619	
10	0	0	0	0	507	619	
11	0	0	0	0	506	620	
12	0	0	0	0	505	620	
13	0	0	0	0	504	620	
14	0	0	0	0	505	620	
15	0	0	0	0	506	620	
0	0	0	0	0	507	620	
1	0	0	0	0	508	620	
2	0	0	0	0	509	620	
3	0	0	0	0	508	620	
4	0	0	0	0	509	620	
5	0	0	0	0	508	621	
6	0	0	0	0	509	621	
7	0	0	0	0	510	621	
8	0	0	0	0	510	622	
9	0	0	0	0	509	621	
10	0	0	0	0	508	622	
11	0	0	0	0	507	622	
12	0	0	0	0	507	621	
13	0	0	0	0	507	622	
14	0	0	0	0	507	622	
15	0	0	0	0	509	622	
0	0	0	0	0	511	622	
1	0	0	0	0	512	623	
2	0	0	0	0	512	623	
3	0	0	0	0	511	623	
4	0	0	0	0	511	623	
5	0	0	0	0	511	623	
6	0	0	0	0	511	624	
7	0	0	0	0	511	624	
8	0	0	0	0	511	624	
9	0	0	0	0	509	624	
10	0	0	0	0	508	624	
11	0	0	0	0	508	624	
12	0	0	0	0	505	625	
13	0	0	0	0	505	626	
14	0	0	0	0	505	626	
15	0	0	0	0	505	627	
0	0	0	0	0	505	627	
1	0	0	0	0	505	628	
2	0	0	0	0	505	628	
3	0	0	0	0	505	629	
4	0	0	0	0	504	630	
5	0	0	0	0	504	630	
6	0	0	0	0	505	630	
7	0	0	0	0	507	630	
8	0	0	0	0	508	631	
9	0	0	0	0	508	631	
10	0	0	0	0	508	631	
11	0	0	0	0	509	631	
12	0	0	0	0	510	631	
13	0	0	0	0	511	631	
14	0	0	0	0	511	631	
15	0	0	0	0	511	631	
0	0	0	0	0	510	630	
1	0	0	0	0	510	631	
2	0	0	0	0	509	630	
3	0	0	0	0	508	630	
4	0	0	0	0	509	630	
5	0	0	0	0	510	630	
6	0	0	0	0	512	629	
7	0	0	0	0	515	628	
8	0	0	0	0	515	628	
9	0	0	0	0	513	628	
10	0	0	0	0	511	627	
11	0	0	0	0	508	627	
12	0	0	0	0	505	627	
13	0	0	0	0	504	626	
14	0	0	0	0	505	625	
15	0	0	0	0	507	625	
0	0	0	0	0	507	624	
1	0	0	0	0	507	624	
2	0	0	0	0	506	623	
3	0	0	0	0	507	623	
4	0	0	0	0	507	623	
5	0	0	0	0	507	622	
6	0	0	0	0	506	622	
7	0	0	0	0	505	621	
8	0	0	0	0	505	620	
9	0	0	0	0	505	620	
10	0	0	0	0	504	619	
11	0	0	0	0	503	620	
12	0	0	0	0	504	619	
13	0	0	0	0	505	620	
14	0	0	0	0	504	619	
15	0	0	0	0	505	619	
0	0	0	0	0	505	618	
1	0	0	0	0	505	619	
2	0	0	0	0	505	618	
3	0	0	0	0	504	618	
4	0	0	0	0	503	618	
5	0	0	0	0	502	618	
6	0	0	0	0	503	618	
7	0	0	0	0	504	618	
8	0	0	0	0	502	618	
9	0	0	0	0	501	618	
10	0	0	0	0	500	619	
11	0	0	0	0	502	619	
12	0	0	0	0	504	619	
13	0	0	0	0	506	618	
14	0	0	0	0	507	618	
15	0	0	0	0	508	618	
0	0	0	0	0	511	619	
1	0	0	0	0	512	620	
2	0	0	0	0	509	620	
3	0	0	0	0	507	620	
4	0	0	0	0	508	620	
5	0	0	0	0	507	621	
6	0	0	0	0	508	622	
7	0	0	0	0	507	622	
8	0	0	0	0	507	622	
9	0	0	0	0	507	623	
10	0	0	0	0	505	623	
11	0	0	0	0	504	624	
12	0	0	0	0	504	624	
13	0	0	0	0	504	625	
14	0	0	0	0	504	625	
15	0	0	0	0	503	625	
0	0	0	0	0	500	626	
1	0	0	0	0	497	626	
2	0	0	0	0	494	626	
3	0	0	0	0	489	627	
4	0	0	0	0	486	626	
5	0	0	0	0	483	627	
6	0	0	0	0	480	627	
7	0	0	0	0	479	627	
8	0	0	0	0	477	627	
9	0	0	0	0	477	627	
10	0	0	0	0	479	627	
11	0	0	0	0	483	627	
12	0	0	0	0	489	628	
13	0	0	0	0	496	628	
14	0	0	0	0	506	628	
15	0	0	0	0	518	628	
0	0	0	0	0	535	629	
1	0	0	0	0	553	630	
2	0	0	0	0	572	630	
3	0	0	0	0	591	629	
4	0	0	0	0	607	630	
5	0	0	0	0	621	630	
6	0	0	0	0	632	630	
7	0	0	0	0	639	630	
8	0	0	0	0	640	629	
9	0	0	0	0	638	630	
10	0	0	0	0	634	629	
11	0	0	0	0	627	630	
12	0	0	0	0	616	629	
13	0	0	0	0	605	629	
14	0	0	0	0	593	628	
15	0	0	0	0	580	628	
0	0	0	0	0	567	627	
1	0	0	0	0	557	628	
2	0	0	0	0	549	626	
3	0	0	0	0	543	627	
4	0	0	0	0	537	627	
5	0	0	0	0	532	626	
6	0	0	0	0	529	626	
7	0	0	0	0	528	626	
8	0	0	0	0	526	626	
9	0	0	0	0	522	625	
10	0	0	0	0	519	624	
11	0	0	0	0	516	624	
12	0	0	0	0	513	625	
13	0	0	0	0	512	624	
14	0	0	0	0	508	624	
15	0	0	0	0	504	624	
0	0	0	0	0	500	624	
1	0	0	0	0	496	624	
2	0	0	0	0	492	624	
3	0	0	0	0	489	623	
4	0	0	0	0	487	623	
5	0	0	0	0	486	623	
6	0	0	0	0	485	623	
7	0	0	0	0	485	622	
8	0	0	0	0	485	622	
9	0	0	0	0	485	623	
10	0	0	0	0	484	622	
11	0	0	0	0	483	622	
12	0	0	0	0	482	622	
13	0	0	0	0	481	622	
14	0	0	0	0	483	621	
15	0	0	0	0	482	621	
0	0	0	0	0	482	620	
1	0	0	0	0	483	621	
2	0	0	0	0	483	620	
3	0	0	0	0	483	620	
4	0	0	0	0	483	620	
5	0	0	0	0	483	620	
6	0	0	0	0	483	619	
7	0	0	0	0	484	620	
8	0	0	0	0	485	619	
9	0	0	0	0	485	620	
10	0	0	0	0	485	619	
11	0	0	0	0	485	619	
12	0	0	0	0	485	619	
13	0	0	0	0	486	620	
14	0	0	0	0	486	619	
15	0	0	0	0	485	619	
0	0	0	0	0	485	618	
1	0	0	0	0	483	618	
2	0	0	0	0	483	619	
3	0	0	0	0	483	619	
4	0	0	0	0	483	618	
5	0	0	0	0	483	619	
6	0	0	0	0	483	619	
7	0	0	0	0	483	619	
8	0	0	0	0	482	619	
9	0	0	0	0	482	620	
10	0	0	0	0	482	619	
11	0	0	0	0	484	619	
12	0	0	0	0	487	619	
13	0	0	0	0	489	620	
14	0	0	0	0	490	620	
15	0	0	0	0	491	620	
0	0	0	0	0	492	621	
1	0	0	0	0	493	621	
2	0	0	0	0	492	621	
3	0	0	0	0	491	621	
4	0	0	0	0	489	622	
5	0	0	0	0	489	622	
6	0	0	0	0	487	623	
7	0	0	0	0	487	623	
8	0	0	0	0	488	623	
9	0	0	0	0	490	624	
10	0	0	0	0	490	624	
11	0	0	0	0	489	625	
12	0	0	0	0	490	626	
13	0	0	0	0	489	626	
14	0	0	0	0	492	626	
15	0	0	0	0	493	627	
0	0	0	0	0	493	627	
1	0	0	0	0	494	629	
2	0	0	0	0	494	629	
3	0	0	0	0	494	630	
4	0	0	0	0	493	630	
5	0	0	0	0	492	632	
6	0	0	0	0	492	632	
7	0	0	0	0	493	632	
8	0	0	0	0	493	632	
9	0	0	0	0	493	633	
10	0	0	0	0	493	633	
11	0	0	0	0	492	633	
12	0	0	0	0	491	633	
13	0	0	0	0	489	633	
14	0	0	0	0	489	634	
15	0	0	0	0	490	634	
0	0	0	0	0	491	633	
1	0	0	0	0	492	633	
2	0	0	0	0	493	632	
3	0	0	0	0	493	632	
4	0	0	0	0	493	631	
5	0	0	0	0	493	631	
6	0	0	0	0	493	630	
7	0	0	0	0	493	629	
8	0	0	0	0	494	628	
9	0	0	0	0	495	627	
10	0	0	0	0	496	626	
11	0	0	0	0	497	625	
12	0	0	0	0	498	623	
13	0	0	0	0	499	623	
14	0	0	0	0	498	621	
15	0	0	0	0	499	620	
0	0	0	0	0	498	620	
1	0	0	0	0	497	620	
2	0	0	0	0	497	618	
3	0	0	0	0	497	617	
4	0	0	0	0	497	617	
5	0	0	0	0	497	617	
6	0	0	0	0	496	616	
7	0	0	0	0	496	615	
8	0	0	0	0	495	615	
9	0	0	0	0	495	614	
10	0	0	0	0	495	614	
11	0	0	0	0	496	613	
12	0	0	0	0	496	613	
13	0	0	0	0	496	612	
14	0	0	0	0	495	613	
15	0	0	0	0	496	611	
0	0	0	0	0	497	611	
1	0	0	0	0	498	612	
2	0	0	0	0	501	611	
3	0	0	0	0	504	611	
4	0	0	0	0	506	610	
5	0	0	0	0	506	611	
6	0	0	0	0	504	611	
7	0	0	0	0	503	611	
8	0	0	0	0	503	610	
9	0	0	0	0	503	611	
10	0	0	0	0	502	611	
11	0	0	0	0	503	611	
12	0	0	0	0	503	611	
13	0	0	0	0	504	612	
14	0	0	0	0	505	612	
15	0	0	0	0	505	612	
0	0	0	0	0	504	614	
1	0	0	0	0	503	614	
2	0	0	0	0	503	615	
3	0	0	0	0	503	615	
4	0	0	0	0	506	616	
5	0	0	0	0	508	616	
6	0	0	0	0	511	618	
7	0	0	0	0	512	619	
8	0	0	0	0	514	620	
9	0	0	0	0	513	621	
10	0	0	0	0	513	621	
11	0	0	0	0	512	621	
12	0	0	0	0	511	622	
13	0	0	0	0	511	623	
14	0	0	0	0	511	623	
15	0	0	0	0	510	624	
0	0	0	0	0	509	624	
1	0	0	0	0	509	625	
2	0	0	0	0	508	625	
3	0	0	0	0	506	626	
4	0	0	0	0	505	626	
5	0	0	0	0	505	627	
6	0	0	0	0	506	627	
7	0	0	0	0	507	627	
8	0	0	0	0	506	628	
9	0	0	0	0	507	628	
10	0	0	0	0	507	627	
11	0	0	0	0	507	628	
12	0	0	0	0	507	628	
13	0	0	0	0	507	629	
14	0	0	0	0	507	629	
15	0	0	0	0	506	629	
0	0	0	0	0	505	630	
1	0	0	0	0	503	630	
2	0	0	0	0	503	629	
3	0	0	0	0	504	629	
4	0	0	0	0	505	629	
5	0	0	0	0	507	630	
6	0	0	0	0	510	629	
7	0	0	0	0	512	628	
8	0	0	0	0	513	629	
9	0	0	0	0	513	629	
10	0	0	0	0	512	627	
11	0	0	0	0	509	628	
12	0	0	0	0	508	627	
13	0	0	0	0	506	628	
14	0	0	0	0	505	627	
15	0	0	0	0	507	626	
0	0	0	0	0	508	625	
1	0	0	0	0	509	626	
2	0	0	0	0	512	624	
3	0	0	0	0	513	624	
4	0	0	0	0	515	623	
5	0	0	0	0	516	623	
6	0	0	0	0	515	621	
7	0	0	0	0	516	621	
8	0	0	0	0	517	620	
9	0	0	0	0	515	620	
10	0	0	0	0	512	620	
11	0	0	0	0	510	619	
12	0	0	0	0	508	617	
13	0	0	0	0	508	617	
14	0	0	0	0	509	616	
15	0	0	0	0	511	616	
0	0	0	0	0	512	616	
1	0	0	0	0	517	616	
2	0	0	0	0	519	615	
3	0	0	0	0	519	615	
4	0	0	0	0	518	615	
5	0	0	0	0	518	615	
6	0	0	0	0	518	615	
7	0	0	0	0	516	614	
8	0	0	0	0	515	614	
9	0	0	0	0	515	615	
10	0	0	0	0	515	615	
11	0	0	0	0	515	615	
12	0	0	0	0	515	615	
13	0	0	0	0	515	615	
14	0	0	0	0	514	615	
15	0	0	0	0	514	616	
0	0	0	0	0	515	616	
1	0	0	0	0	517	617	
2	0	0	0	0	518	618	
3	0	0	0	0	516	617	
4	0	0	0	0	514	618	
5	0	0	0	0	512	619	
6	0	0	0	0	512	619	
7	0	0	0	0	512	620	
8	0	0	0	0	511	620	
9	0	0	0	0	512	621	
10	0	0	0	0	512	621	
11	0	0	0	0	512	622	
12	0	0	0	0	509	622	
13	0	0	0	0	508	624	
14	0	0	0	0	509	624	
15	0	0	0	0	511	625	
0	0	0	0	0	510	626	
1	0	0	0	0	509	626	
2	0	0	0	0	508	627	
3	0	0	0	0	508	627	
4	0	0	0	0	508	628	
5	0	0	0	0	507	628	
6	0	0	0	0	507	629	
7	0	0	0	0	507	629	
8	0	0	0	0	506	629	
9	0	0	0	0	506	631	
10	0	0	0	0	505	631	
11	0	0	0	0	504	631	
12	0	0	0	0	502	631	
13	0	0	0	0	499	632	
14	0	0	0	0	497	631	
15	0	0	0	0	496	631	
0	0	0	0	0	495	631	
1	0	0	0	0	494	632	
2	0	0	0	0	493	632	
3	0	0	0	0	492	632	
4	0	0	0	0	492	632	
5	0	0	0	0	491	633	
6	0	0	0	0	491	632	
7	0	0	0	0	491	632	
8	0	0	0	0	490	632	
9	0	0	0	0	490	632	
10	0	0	0	0	488	632	
11	0	0	0	0	486	632	
12	0	0	0	0	484	632	
13	0	0	0	0	485	632	
14	0	0	0	0	487	632	
15	0	0	0	0	490	630	
0	0	0	0	0	490	630	
1	0	0	0	0	487	629	
2	0	0	0	0	486	628	
3	0	0	0	0	485	627	
4	0	0	0	0	483	627	
5	0	0	0	0	484	625	
6	0	0	0	0	486	625	
7	0	0	0	0	486	624	
8	0	0	0	0	485	624	
9	0	0	0	0	485	624	
10	0	0	0	0	485	623	
11	0	0	0	0	483	623	
12	0	0	0	0	483	621	
13	0	0	0	0	483	622	
14	0	0	0	0	483	621	
15	0	0	0	0	484	620	
0	0	0	0	0	485	620	
1	0	0	0	0	486	620	
2	0	0	0	0	486	619	
3	0	0	0	0	484	619	
4	0	0	0	0	483	619	
5	0	0	0	0	484	618	
6	0	0	0	0	484	617	
7	0	0	0	0	483	617	
8	0	0	0	0	481	617	
9	0	0	0	0	480	617	
10	0	0	0	0	480	616	
11	0	0	0	0	479	616	
12	0	0	0	0	479	616	
13	0	0	0	0	480	617	
14	0	0	0	0	481	615	
15	0	0	0	0	481	615	
0	0	0	0	0	482	615	
1	0	0	0	0	483	616	
2	0	0	0	0	484	615	
3	0	0	0	0	486	615	
4	0	0	0	0	487	615	
5	0	0	0	0	487	615	
6	0	0	0	0	487	615	
7	0	0	0	0	487	616	
8	0	0	0	0	486	616	
9	0	0	0	0	486	617	
10	0	0	0	0	485	616	
11	0	0	0	0	483	617	
12	0	0	0	0	481	617	
13	0	0	0	0	481	618	
14	0	0	0	0	482	618	
15	0	0	0	0	482	618	
0	0	0	0	0	482	618	
1	0	0	0	0	482	619	
2	0	0	0	0	483	619	
3	0	0	0	0	483	620	
4	0	0	0	0	484	620	
5	0	0	0	0	484	621	
6	0	0	0	0	484	621	
7	0	0	0	0	486	621	
8	0	0	0	0	486	621	
9	0	0	0	0	486	622	
10	0	0	0	0	486	623	
11	0	0	0	0	486	623	
12	0	0	0	0	486	624	
13	0	0	0	0	486	625	
14	0	0	0	0	485	625	
15	0	0	0	0	484	626	
0	0	0	0	0	483	627	
1	0	0	0	0	483	628	
2	0	0	0	0	483	628	
3	0	0	0	0	482	628	
4	0	0	0	0	482	628	
5	0	0	0	0	484	629	
6	0	0	0	0	485	629	
7	0	0	0	0	486	630	
8	0	0	0	0	486	630	
9	0	0	0	0	486	630	
10	0	0	0	0	486	630	
11	0	0	0	0	487	630	
12	0	0	0	0	489	630	
13	0	0	0	0	489	631	
14	0	0	0	0	490	631	
15	0	0	0	0	491	631	
0	0	0	0	0	491	631	
1	0	0	0	0	492	631	
2	0	0	0	0	493	630	
3	0	0	0	0	493	630	
4	0	0	0	0	493	630	
5	0	0	0	0	492	630	
6	0	0	0	0	491	629	
7	0	0	0	0	491	629	
8	0	0	0	0	491	628	
9	0	0	0	0	491	627	
10	0	0	0	0	490	627	
11	0	0	0	0	491	627	
12	0	0	0	0	492	625	
13	0	0	0	0	492	625	
14	0	0	0	0	493	624	
15	0	0	0	0	494	624	
0	0	0	0	0	492	622	
1	0	0	0	0	491	623	
2	0	0	0	0	490	621	
3	0	0	0	0	489	620	
4	0	0	0	0	490	620	
5	0	0	0	0	491	620	
6	0	0	0	0	491	619	
7	0	0	0	0	489	618	
8	0	0	0	0	489	619	
9	0	0	0	0	489	619	
10	0	0	0	0	490	619	
11	0	0	0	0	491	619	
12	0	0	0	0	491	619	
13	0	0	0	0	492	619	
14	0	0	0	0	494	620	
15	0	0	0	0	495	620	
0	0	0	0	0	495	620	
1	0	0	0	0	495	621	
2	0	0	0	0	496	620	
3	0	0	0	0	496	621	
4	0	0	0	0	496	621	
5	0	0	0	0	496	622	
6	0	0	0	0	496	622	
7	0	0	0	0	496	622	
8	0	0	0	0	495	622	
9	0	0	0	0	494	623	
10	0	0	0	0	493	623	
11	0	0	0	0	491	623	
12	0	0	0	0	489	624	
13	0	0	0	0	487	624	
14	0	0	0	0	486	624	
15	0	0	0	0	487	624	
0	0	0	0	0	487	624	
1	0	0	0	0	487	625	
2	0	0	0	0	488	624	
3	0	0	0	0	490	625	
4	0	0	0	0	491	625	
5	0	0	0	0	493	626	
6	0	0	0	0	495	625	
7	0	0	0	0	496	625	
8	0	0	0	0	497	626	
9	0	0	0	0	496	626	
10	0	0	0	0	496	626	
11	0	0	0	0	496	625	
12	0	0	0	0	495	625	
13	0	0	0	0	495	625	
14	0	0	0	0	496	625	
15	0	0	0	0	495	625	
0	0	0	0	0	495	625	
1	0	0	0	0	495	626	
2	0	0	0	0	493	625	
3	0	0	0	0	492	625	
4	0	0	0	0	491	625	
5	0	0	0	0	491	625	
6	0	0	0	0	492	625	
7	0	0	0	0	494	625	
8	0	0	0	0	496	625	
9	0	0	0	0	497	625	
10	0	0	0	0	499	625	
11	0	0	0	0	502	625	
12	0	0	0	0	504	625	
13	0	0	0	0	504	625	
14	0	0	0	0	503	625	
15	0	0	0	0	501	625	
0	0	0	0	0	500	625	
1	0	0	0	0	499	625	
2	0	0	0	0	497	625	
3	0	0	0	0	496	624	
4	0	0	0	0	497	624	
5	0	0	0	0	497	624	
6	0	0	0	0	497	623	
7	0	0	0	0	496	623	
8	0	0	0	0	496	623	
9	0	0	0	0	495	623	
10	0	0	0	0	494	622	
11	0	0	0	0	495	622	
12	0	0	0	0	495	621	
13	0	0	0	0	494	621	
14	0	0	0	0	494	621	
15	0	0	0	0	493	620	
0	0	0	0	0	494	620	
1	0	0	0	0	495	620	
2	0	0	0	0	496	620	
3	0	0	0	0	497	620	
4	0	0	0	0	498	619	
5	0	0	0	0	499	620	
6	0	0	0	0	499	620	
7	0	0	0	0	500	620	
8	0	0	0	0	501	619	
9	0	0	0	0	501	619	
10	0	0	0	0	502	619	
11	0	0	0	0	502	620	
12	0	0	0	0	502	619	
13	0	0	0	0	501	620	
14	0	0	0	0	500	620	
15	0	0	0	0	499	620	
0	0	0	0	0	498	620	
1	0	0	0	0	496	620	
2	0	0	0	0	496	620	
3	0	0	0	0	496	620	
4	0	0	0	0	496	621	
5	0	0	0	0	496	621	
6	0	0	0	0	495	622	
7	0	0	0	0	495	621	
8	0	0	0	0	494	621	
9	0	0	0	0	494	622	
10	0	0	0	0	494	622	
11	0	0	0	0	494	622	
12	0	0	0	0	495	622	
13	0	0	0	0	495	623	
14	0	0	0	0	494	622	
15	0	0	0	0	494	622	
0	0	0	0	0	493	621	
1	0	0	0	0	492	622	
2	0	0	0	0	492	622	
3	0	0	0	0	492	622	
4	0	0	0	0	491	622	
5	0	0	0	0	491	622	
6	0	0	0	0	491	622	
7	0	0	0	0	491	623	
8	0	0	0	0	492	624	
9	0	0	0	0	494	624	
10	0	0	0	0	495	625	
11	0	0	0	0	496	625	
12	0	0	0	0	497	626	
13	0	0	0	0	497	627	
14	0	0	0	0	497	627	
15	0	0	0	0	499	628	
0	0	0	0	0	499	628	
1	0	0	0	0	500	629	
2	0	0	0	0	500	629	
3	0	0	0	0	501	630	
4	0	0	0	0	502	630	
5	0	0	0	0	501	630	
6	0	0	0	0	501	630	
7	0	0	0	0	502	630	
8	0	0	0	0	502	630	
9	0	0	0	0	501	630	
10	0	0	0	0	501	630	
11	0	0	0	0	501	628	
12	0	0	0	0	501	628	
13	0	0	0	0	499	629	
14	0	0	0	0	499	628	
15	0	0	0	0	498	627	
0	0	0	0	0	497	627	
1	0	0	0	0	497	627	
2	0	0	0	0	497	626	
3	0	0	0	0	499	626	
4	0	0	0	0	500	625	
5	0	0	0	0	501	626	
6	0	0	0	0	502	625	
7	0	0	0	0	504	625	
8	0	0	0	0	504	625	
9	0	0	0	0	504	626	
10	0	0	0	0	503	624	
11	0	0	0	0	503	625	
12	0	0	0	0	503	625	
13	0	0	0	0	502	625	
14	0	0	0	0	500	625	
15	0	0	0	0	500	625	
0	0	0	0	0	499	625	
1	0	0	0	0	499	625	
2	0	0	0	0	498	625	
3	0	0	0	0	498	625	
4	0	0	0	0	498	624	
5	0	0	0	0	498	625	
6	0	0	0	0	497	625	
7	0	0	0	0	496	625	
8	0	0	0	0	497	624	
9	0	0	0	0	498	625	
10	0	0	0	0	498	624	
11	0	0	0	0	497	624	
12	0	0	0	0	498	623	
13	0	0	0	0	499	624	
14	0	0	0	0	500	623	
15	0	0	0	0	501	623	
0	0	0	0	0	501	623	
1	0	0	0	0	501	623	
2	0	0	0	0	502	622	
3	0	0	0	0	502	622	
4	0	0	0	0	503	622	
5	0	0	0	0	502	623	
6	0	0	0	0	501	623	
7	0	0	0	0	500	623	
8	0	0	0	0	499	623	
9	0	0	0	0	498	623	
10	0	0	0	0	499	623	
11	0	0	0	0	499	622	
12	0	0	0	0	500	622	
13	0	0	0	0	500	622	
14	0	0	0	0	500	623	
15	0	0	0	0	500	622	
0	0	0	0	0	501	622	
1	0	0	0	0	502	622	
2	0	0	0	0	502	622	
3	0	0	0	0	502	622	
4	0	0	0	0	502	622	
5	0	0	0	0	502	621	
6	0	0	0	0	501	620	
7	0	0	0	0	501	620	
8	0	0	0	0	501	620	
9	0	0	0	0	502	620	
10	0	0	0	0	502	620	
11	0	0	0	0	503	620	
12	0	0	0	0	502	619	
13	0	0	0	0	500	619	
14	0	0	0	0	499	619	
15	0	0	0	0	499	619	
0	0	0	0	0	498	619	
1	0	0	0	0	496	619	
2	0	0	0	0	493	619	
3	0	0	0	0	491	619	
4	0	0	0	0	487	619	
5	0	0	0	0	483	619	
6	0	0	0	0	480	620	
7	0	0	0	0	476	620	
8	0	0	0	0	475	620	
9	0	0	0	0	473	622	
10	0	0	0	0	473	622	
11	0	0	0	0	475	623	
12	0	0	0	0	478	622	
13	0	0	0	0	483	624	
14	0	0	0	0	487	624	
15	0	0	0	0	494	625	
0	0	0	0	0	504	625	
1	0	0	0	0	517	625	
2	0	0	0	0	534	625	
3	0	0	0	0	551	625	
4	0	0	0	0	570	626	
5	0	0	0	0	587	626	
6	0	0	0	0	602	625	
7	0	0	0	0	615	625	
8	0	0	0	0	628	625	
9	0	0	0	0	636	625	
10	0	0	0	0	640	624	
11	0	0	0	0	641	624	
12	0	0	0	0	638	624	
13	0	0	0	0	634	624	
14	0	0	0	0	628	624	
15	0	0	0	0	620	624	
0	0	0	0	0	610	624	
1	0	0	0	0	597	624	
2	0	0	0	0	585	623	
3	0	0	0	0	573	623	
4	0	0	0	0	563	623	
5	0	0	0	0	557	624	
6	0	0	0	0	553	623	
7	0	0	0	0	551	623	
8	0	0	0	0	548	624	
9	0	0	0	0	546	624	
10	0	0	0	0	543	623	
11	0	0	0	0	537	623	
12	0	0	0	0	532	623	
13	0	0	0	0	526	624	
14	0	0	0	0	520	624	
15	0	0	0	0	515	624	
0	0	0	0	0	511	624	
1	0	0	0	0	507	625	
2	0	0	0	0	502	623	
3	0	0	0	0	499	624	
4	0	0	0	0	496	624	
5	0	0	0	0	494	624	
6	0	0	0	0	491	624	
7	0	0	0	0	489	623	
8	0	0	0	0	489	622	
9	0	0	0	0	487	623	
10	0	0	0	0	486	623	
11	0	0	0	0	486	623	
12	0	0	0	0	485	623	
13	0	0	0	0	485	622	
14	0	0	0	0	484	622	
15	0	0	0	0	483	623	
0	0	0	0	0	483	623	
1	0	0	0	0	481	623	
2	0	0	0	0	481	623	
3	0	0	0	0	481	623	
4	0	0	0	0	480	623	
5	0	0	0	0	481	624	
6	0	0	0	0	481	624	
7	0	0	0	0	481	625	
8	0	0	0	0	480	625	
9	0	0	0	0	480	627	
10	0	0	0	0	480	626	
11	0	0	0	0	480	626	
12	0	0	0	0	479	627	
13	0	0	0	0	479	627	
14	0	0	0	0	480	627	
15	0	0	0	0	481	627	
0	0	0	0	0	481	627	
1	0	0	0	0	482	628	
2	0	0	0	0	483	627	
3	0	0	0	0	484	627	
4	0	0	0	0	484	627	
5	0	0	0	0	484	627	
6	0	0	0	0	484	627	
7	0	0	0	0	484	627	
8	0	0	0	0	485	626	
9	0	0	0	0	485	626	
10	0	0	0	0	484	625	
11	0	0	0	0	484	624	
12	0	0	0	0	484	625	
13	0	0	0	0	484	624	
14	0	0	0	0	484	624	
15	0	0	0	0	482	624	
0	0	0	0	0	481	623	
1	0	0	0	0	480	624	
2	0	0	0	0	480	623	
3	0	0	0	0	481	624	
4	0	0	0	0	482	623	
5	0	0	0	0	483	623	
6	0	0	0	0	483	622	
7	0	0	0	0	484	622	
8	0	0	0	0	486	621	
9	0	0	0	0	486	622	
10	0	0	0	0	486	621	
11	0	0	0	0	486	621	
12	0	0	0	0	486	621	
13	0	0	0	0	486	621	
14	0	0	0	0	486	621	
15	0	0	0	0	487	621	
0	0	0	0	0	487	621	
1	0	0	0	0	487	621	
2	0	0	0	0	487	621	
3	0	0	0	0	487	621	
4	0	0	0	0	488	621	
5	0	0	0	0	488	621	
6	0	0	0	0	488	621	
7	0	0	0	0	488	621	
8	0	0	0	0	488	621	
9	0	0	0	0	487	621	
10	0	0	0	0	487	621	
11	0	0	0	0	486	621	
12	0	0	0	0	485	620	
13	0	0	0	0	485	620	
14	0	0	0	0	485	621	
15	0	0	0	0	485	621	
0	0	0	0	0	486	621	
1	0	0	0	0	486	621	
2	0	0	0	0	486	621	
3	0	0	0	0	486	620	
4	0	0	0	0	487	620	
5	0	0	0	0	487	620	
6	0	0	0	0	488	620	
7	0	0	0	0	489	620	
8	0	0	0	0	489	620	
9	0	0	0	0	489	620	
10	0	0	0	0	489	620	
11	0	0	0	0	489	619	
12	0	0	0	0	490	619	
13	0	0	0	0	491	620	
14	0	0	0	0	492	620	
15	0	0	0	0	492	620	
0	0	0	0	0	492	619	
1	0	0	0	0	491	619	
2	0	0	0	0	491	619	
3	0	0	0	0	490	619	
4	0	0	0	0	490	619	
5	0	0	0	0	490	619	
6	0	0	0	0	491	618	
7	0	0	0	0	491	618	
8	0	0	0	0	490	618	
9	0	0	0	0	489	619	
10	0	0	0	0	489	618	
11	0	0	0	0	489	619	
12	0	0	0	0	490	619	
13	0	0	0	0	490	620	
14	0	0	0	0	491	620	
15	0	0	0	0	491	620	
0	0	0	0	0	491	621	
1	0	0	0	0	490	622	
2	0	0	0	0	489	623	
3	0	0	0	0	489	622	
4	0	0	0	0	489	623	
5	0	0	0	0	490	624	
6	0	0	0	0	492	625	
7	0	0	0	0	494	625	
8	0	0	0	0	494	626	
9	0	0	0	0	494	627	
10	0	0	0	0	494	627	
11	0	0	0	0	494	627	
12	0	0	0	0	495	627	
13	0	0	0	0	494	627	
14	0	0	0	0	495	625	
15	0	0	0	0	496	627	
0	0	0	0	0	496	626	
1	0	0	0	0	496	626	
2	0	0	0	0	496	625	
3	0	0	0	0	496	625	
4	0	0	0	0	495	624	
5	0	0	0	0	495	625	
6	0	0	0	0	494	624	
7	0	0	0	0	493	624	
8	0	0	0	0	493	623	
9	0	0	0	0	494	623	
10	0	0	0	0	494	623	
11	0	0	0	0	495	623	
12	0	0	0	0	495	623	
13	0	0	0	0	496	623	
14	0	0	0	0	497	623	
15	0	0	0	0	498	622	
0	0	0	0	0	500	622	
1	0	0	0	0	501	622	
2	0	0	0	0	500	622	
3	0	0	0	0	498	622	
4	0	0	0	0	496	622	
5	0	0	0	0	495	622	
6	0	0	0	0	496	623	
7	0	0	0	0	495	623	
8	0	0	0	0	495	623	
9	0	0	0	0	496	623	
10	0	0	0	0	497	623	
11	0	0	0	0	498	624	
12	0	0	0	0	498	623	
13	0	0	0	0	498	624	
14	0	0	0	0	499	624	
15	0	0	0	0	498	624	
0	0	0	0	0	497	624	
1	0	0	0	0	497	625	
2	0	0	0	0	497	624	
3	0	0	0	0	497	625	
4	0	0	0	0	497	624	
5	0	0	0	0	497	625	
6	0	0	0	0	498	625	
7	0	0	0	0	498	625	
8	0	0	0	0	498	625	
9	0	0	0	0	499	625	
10	0	0	0	0	499	624	
11	0	0	0	0	499	624	
12	0	0	0	0	498	624	
13	0	0	0	0	499	624	
14	0	0	0	0	498	624	
15	0	0	0	0	498	623	
0	0	0	0	0	499	623	
1	0	0	0	0	500	624	
2	0	0	0	0	500	624	
3	0	0	0	0	500	623	
4	0	0	0	0	500	623	
5	0	0	0	0	499	623	
6	0	0	0	0	498	623	
7	0	0	0	0	497	623	
8	0	0	0	0	498	623	
9	0	0	0	0	498	623	
10	0	0	0	0	499	622	
11	0	0	0	0	500	622	
12	0	0	0	0	501	621	
13	0	0	0	0	503	622	
14	0	0	0	0	504	622	
15	0	0	0	0	506	622	
0	0	0	0	0	508	622	
1	0	0	0	0	508	623	
2	0	0	0	0	510	622	
3	0	0	0	0	511	622	
4	0	0	0	0	511	622	
5	0	0	0	0	510	623	
6	0	0	0	0	510	623	
7	0	0	0	0	510	623	
8	0	0	0	0	510	624	
9	0	0	0	0	510	624	
10	0	0	0	0	510	624	
11	0	0	0	0	510	625	
12	0	0	0	0	508	625	
13	0	0	0	0	507	625	
14	0	0	0	0	507	626	
15	0	0	0	0	507	626	
0	0	0	0	0	507	626	
1	0	0	0	0	508	627	
2	0	0	0	0	508	626	
3	0	0	0	0	508	627	
4	0	0	0	0	508	627	
5	0	0	0	0	509	628	
6	0	0	0	0	510	627	
7	0	0	0	0	509	627	
8	0	0	0	0	508	627	
9	0	0	0	0	507	627	
10	0	0	0	0	507	627	
11	0	0	0	0	508	627	
12	0	0	0	0	509	627	
13	0	0	0	0	510	626	
14	0	0	0	0	512	625	
15	0	0	0	0	513	626	
0	0	0	0	0	513	625	
1	0	0	0	0	513	625	
2	0	0	0	0	512	625	
3	0	0	0	0	512	625	
4	0	0	0	0	512	624	
5	0	0	0	0	511	624	
6	0	0	0	0	510	624	
7	0	0	0	0	508	624	
8	0	0	0	0	506	623	
9	0	0	0	0	504	623	
10	0	0	0	0	503	623	
11	0	0	0	0	502	622	
12	0	0	0	0	501	622	
13	0	0	0	0	499	622	
14	0	0	0	0	497	622	
15	0	0	0	0	496	622	
0	0	0	0	0	495	622	
1	0	0	0	0	493	623	
2	0	0	0	0	492	622	
3	0	0	0	0	491	623	
4	0	0	0	0	491	623	
5	0	0	0	0	491	623	
6	0	0	0	0	492	623	
7	0	0	0	0	493	624	
8	0	0	0	0	493	624	
9	0	0	0	0	492	624	
10	0	0	0	0	491	624	
11	0	0	0	0	488	624	
12	0	0	0	0	487	625	
13	0	0	0	0	486	625	
14	0	0	0	0	483	625	
15	0	0	0	0	482	624	
0	0	0	0	0	481	624	
1	0	0	0	0	483	624	
2	0	0	0	0	483	623	
3	0	0	0	0	484	624	
4	0	0	0	0	486	624	
5	0	0	0	0	487	623	
6	0	0	0	0	488	623	
7	0	0	0	0	488	623	
8	0	0	0	0	489	623	
9	0	0	0	0	491	624	
10	0	0	0	0	492	623	
11	0	0	0	0	492	622	
12	0	0	0	0	494	622	
13	0	0	0	0	494	622	
14	0	0	0	0	494	621	
15	0	0	0	0	494	622	
0	0	0	0	0	493	622	
1	0	0	0	0	493	622	
2	0	0	0	0	492	622	
3	0	0	0	0	492	622	
4	0	0	0	0	491	621	
5	0	0	0	0	490	622	
6	0	0	0	0	490	621	
7	0	0	0	0	489	621	
8	0	0	0	0	488	622	
9	0	0	0	0	487	622	
10	0	0	0	0	487	621	
11	0	0	0	0	487	622	
12	0	0	0	0	487	622	
13	0	0	0	0	487	623	
14	0	0	0	0	487	622	
15	0	0	0	0	489	622	
0	0	0	0	0	490	623	
1	0	0	0	0	491	623	
2	0	0	0	0	491	624	
3	0	0	0	0	492	624	
4	0	0	0	0	492	625	
5	0	0	0	0	492	625	
6	0	0	0	0	493	624	
7	0	0	0	0	492	625	
8	0	0	0	0	493	626	
9	0	0	0	0	493	627	
10	0	0	0	0	493	627	
11	0	0	0	0	493	627	
12	0	0	0	0	494	628	
13	0	0	0	0	494	628	
14	0	0	0	0	494	629	
15	0	0	0	0	494	629	
0	0	0	0	0	495	629	
1	0	0	0	0	494	631	
2	0	0	0	0	494	630	
3	0	0	0	0	493	631	
4	0	0	0	0	495	632	
5	0	0	0	0	494	632	
6	0	0	0	0	493	632	
7	0	0	0	0	491	632	
8	0	0	0	0	489	632	
9	0	0	0	0	487	632	
10	0	0	0	0	487	632	
11	0	0	0	0	486	632	
12	0	0	0	0	486	632	
13	0	0	0	0	487	632	
14	0	0	0	0	488	632	
15	0	0	0	0	491	632	
0	0	0	0	0	493	631	
1	0	0	0	0	494	632	
2	0	0	0	0	493	631	
3	0	0	0	0	492	631	
4	0	0	0	0	492	631	
5	0	0	0	0	491	630	
6	0	0	0	0	492	630	
7	0	0	0	0	493	631	
8	0	0	0	0	494	631	
9	0	0	0	0	495	631	
10	0	0	0	0	496	631	
11	0	0	0	0	496	630	
12	0	0	0	0	496	630	
13	0	0	0	0	494	630	
14	0	0	0	0	494	630	
15	0	0	0	0	494	629	
0	0	0	0	0	494	629	
1	0	0	0	0	493	629	
2	0	0	0	0	493	628	
3	0	0	0	0	494	628	
4	0	0	0	0	495	627	
5	0	0	0	0	495	627	
6	0	0	0	0	495	627	
7	0	0	0	0	495	626	
8	0	0	0	0	494	625	
9	0	0	0	0	494	625	
10	0	0	0	0	495	624	
11	0	0	0	0	495	624	
12	0	0	0	0	496	623	
13	0	0	0	0	496	622	
14	0	0	0	0	495	622	
15	0	0	0	0	495	622	
0	0	0	0	0	495	620	
1	0	0	0	0	496	620	
2	0	0	0	0	496	619	
3	0	0	0	0	497	619	
4	0	0	0	0	497	619	
5	0	0	0	0	497	619	
6	0	0	0	0	497	619	
7	0	0	0	0	497	618	
8	0	0	0	0	497	618	
9	0	0	0	0	496	618	
10	0	0	0	0	495	618	
11	0	0	0	0	496	617	
12	0	0	0	0	496	617	
13	0	0	0	0	495	618	
14	0	0	0	0	495	618	
15	0	0	0	0	496	617	
0	0	0	0	0	497	617	
1	0	0	0	0	498	617	
2	0	0	0	0	499	618	
3	0	0	0	0	501	618	
4	0	0	0	0	502	617	
5	0	0	0	0	504	617	
6	0	0	0	0	504	617	
7	0	0	0	0	503	618	
8	0	0	0	0	503	617	
9	0	0	0	0	503	618	
10	0	0	0	0	503	618	
11	0	0	0	0	502	617	
12	0	0	0	0	502	618	
13	0	0	0	0	502	618	
14	0	0	0	0	502	618	
15	0	0	0	0	502	618	
0	0	0	0	0	502	618	
1	0	0	0	0	502	620	
2	0	0	0	0	502	619	
3	0	0	0	0	501	620	
4	0	0	0	0	501	620	
5	0	0	0	0	499	621	
6	0	0	0	0	500	621	
7	0	0	0	0	502	621	
8	0	0	0	0	502	622	
9	0	0	0	0	503	623	
10	0	0	0	0	503	623	
11	0	0	0	0	504	624	
12	0	0	0	0	505	624	
13	0	0	0	0	506	624	
14	0	0	0	0	507	624	
15	0	0	0	0	507	625	
0	0	0	0	0	508	625	
1	0	0	0	0	509	626	
2	0	0	0	0	509	626	
3	0	0	0	0	509	626	
4	0	0	0	0	508	626	
5	0	0	0	0	507	627	
6	0	0	0	0	508	627	
7	0	0	0	0	506	627	
8	0	0	0	0	505	627	
9	0	0	0	0	504	628	
10	0	0	0	0	504	628	
11	0	0	0	0	504	628	
12	0	0	0	0	504	628	
13	0	0	0	0	505	628	
14	0	0	0	0	505	628	
15	0	0	0	0	505	628	
0	0	0	0	0	504	629	
1	0	0	0	0	503	630	
2	0	0	0	0	502	629	
3	0	0	0	0	502	629	
4	0	0	0	0	502	629	
5	0	0	0	0	502	629	
6	0	0	0	0	502	628	
7	0	0	0	0	503	629	
8	0	0	0	0	503	629	
9	0	0	0	0	503	629	
10	0	0	0	0	503	628	
11	0	0	0	0	503	628	
12	0	0	0	0	502	628	
13	0	0	0	0	502	628	
14	0	0	0	0	503	627	
15	0	0	0	0	503	627	
0	0	0	0	0	504	627	
1	0	0	0	0	505	628	
2	0	0	0	0	504	627	
3	0	0	0	0	505	626	
4	0	0	0	0	506	627	
5	0	0	0	0	507	626	
6	0	0	0	0	506	626	
7	0	0	0	0	505	626	
8	0	0	0	0	505	625	
9	0	0	0	0	505	625	
10	0	0	0	0	505	624	
11	0	0	0	0	505	624	
12	0	0	0	0	505	624	
13	0	0	0	0	506	624	
14	0	0	0	0	506	624	
15	0	0	0	0	506	624	
0	0	0	0	0	506	623	
1	0	0	0	0	507	623	
2	0	0	0	0	507	623	
3	0	0	0	0	507	623	
4	0	0	0	0	507	623	
5	0	0	0	0	508	623	
6	0	0	0	0	508	622	
7	0	0	0	0	509	623	
8	0	0	0	0	509	623	
9	0	0	0	0	509	623	
10	0	0	0	0	509	623	
11	0	0	0	0	508	623	
12	0	0	0	0	507	622	
13	0	0	0	0	506	622	
14	0	0	0	0	506	621	
15	0	0	0	0	505	621	
0	0	0	0	0	504	621	
1	0	0	0	0	503	621	
2	0	0	0	0	503	620	
3	0	0	0	0	503	620	
4	0	0	0	0	504	620	
5	0	0	0	0	505	620	
6	0	0	0	0	508	621	
7	0	0	0	0	508	620	
8	0	0	0	0	507	620	
9	0	0	0	0	507	621	
10	0	0	0	0	507	620	
11	0	0	0	0	508	621	
12	0	0	0	0	507	621	
13	0	0	0	0	506	621	
14	0	0	0	0	507	621	
15	0	0	0	0	509	621	
0	0	0	0	0	510	622	
1	0	0	0	0	511	623	
2	0	0	0	0	512	623	
3	0	0	0	0	513	622	
4	0	0	0	0	514	623	
5	0	0	0	0	513	623	
6	0	0	0	0	512	623	
7	0	0	0	0	512	623	
8	0	0	0	0	511	623	
9	0	0	0	0	511	624	
10	0	0	0	0	511	624	
11	0	0	0	0	510	623	
12	0	0	0	0	509	623	
13	0	0	0	0	509	623	
14	0	0	0	0	509	623	
15	0	0	0	0	509	622	
0	0	0	0	0	509	622	
1	0	0	0	0	507	623	
2	0	0	0	0	505	622	
3	0	0	0	0	503	622	
4	0	0	0	0	502	622	
5	0	0	0	0	502	622	
6	0	0	0	0	502	622	
7	0	0	0	0	504	621	
8	0	0	0	0	505	621	
9	0	0	0	0	506	621	
10	0	0	0	0	508	620	
11	0	0	0	0	509	620	
12	0	0	0	0	509	620	
13	0	0	0	0	510	620	
14	0	0	0	0	509	620	
15	0	0	0	0	509	619	
0	0	0	0	0	509	619	
1	0	0	0	0	511	620	
2	0	0	0	0	512	618	
3	0	0	0	0	513	619	
4	0	0	0	0	514	620	
5	0	0	0	0	512	619	
6	0	0	0	0	511	619	
7	0	0	0	0	511	619	
8	0	0	0	0	511	619	
9	0	0	0	0	512	620	
10	0	0	0	0	511	620	
11	0	0	0	0	511	620	
12	0	0	0	0	509	620	
13	0	0	0	0	508	620	
14	0	0	0	0	507	620	
15	0	0	0	0	507	620	
0	0	0	0	0	507	621	
1	0	0	0	0	508	622	
2	0	0	0	0	509	622	
3	0	0	0	0	510	622	
4	0	0	0	0	510	621	
5	0	0	0	0	511	623	
6	0	0	0	0	513	622	
7	0	0	0	0	515	622	
8	0	0	0	0	516	622	
9	0	0	0	0	517	622	
10	0	0	0	0	517	622	
11	0	0	0	0	516	622	
12	0	0	0	0	516	622	
13	0	0	0	0	516	622	
14	0	0	0	0	516	622	
15	0	0	0	0	516	622	
0	0	0	0	0	516	621	
1	0	0	0	0	516	622	
2	0	0	0	0	516	622	
3	0	0	0	0	516	622	
4	0	0	0	0	515	621	
5	0	0	0	0	515	622	
6	0	0	0	0	515	622	
7	0	0	0	0	513	622	
8	0	0	0	0	513	622	
9	0	0	0	0	514	621	
10	0	0	0	0	514	622	
11	0	0	0	0	513	621	
12	0	0	0	0	513	621	
13	0	0	0	0	514	622	
14	0	0	0	0	513	622	
15	0	0	0	0	513	622	
0	0	0	0	0	513	622	
1	0	0	0	0	512	623	
2	0	0	0	0	512	622	
3	0	0	0	0	512	623	
4	0	0	0	0	511	623	
5	0	0	0	0	511	624	
6	0	0	0	0	510	624	
7	0	0	0	0	509	624	
8	0	0	0	0	508	624	
9	0	0	0	0	508	625	
10	0	0	0	0	508	625	
11	0	0	0	0	507	624	
12	0	0	0	0	506	625	
13	0	0	0	0	505	625	
14	0	0	0	0	504	624	
15	0	0	0	0	506	625	
0	0	0	0	0	508	624	
1	0	0	0	0	510	624	
2	0	0	0	0	510	624	
3	0	0	0	0	511	623	
4	0	0	0	0	512	624	
5	0	0	0	0	512	623	
6	0	0	0	0	512	623	
7	0	0	0	0	512	623	
8	0	0	0	0	511	622	
9	0	0	0	0	509	623	
10	0	0	0	0	508	622	
11	0	0	0	0	509	622	
12	0	0	0	0	510	622	
13	0	0	0	0	509	622	
14	0	0	0	0	510	621	
15	0	0	0	0	510	621	
0	0	0	0	0	510	622	
1	0	0	0	0	509	622	
2	0	0	0	0	509	621	
3	0	0	0	0	510	621	
4	0	0	0	0	510	621	
5	0	0	0	0	512	622	
6	0	0	0	0	512	621	
7	0	0	0	0	512	622	
8	0	0	0	0	513	621	
9	0	0	0	0	513	622	
10	0	0	0	0	512	622	
11	0	0	0	0	510	621	
12	0	0	0	0	509	621	
13	0	0	0	0	509	621	
14	0	0	0	0	509	621	
15	0	0	0	0	509	621	
0	0	0	0	0	509	622	
1	0	0	0	0	508	622	
2	0	0	0	0	506	621	
3	0	0	0	0	503	622	
4	0	0	0	0	500	622	
5	0	0	0	0	497	622	
6	0	0	0	0	493	623	
7	0	0	0	0	488	622	
8	0	0	0	0	483	622	
9	0	0	0	0	479	624	
10	0	0	0	0	476	624	
11	0	0	0	0	476	624	
12	0	0	0	0	476	624	
13	0	0	0	0	480	624	
14	0	0	0	0	486	624	
15	0	0	0	0	492	624	
0	0	0	0	0	501	625	
1	0	0	0	0	512	625	
2	0	0	0	0	527	625	
3	0	0	0	0	543	624	
4	0	0	0	0	560	624	
5	0	0	0	0	576	624	
6	0	0	0	0	594	624	
7	0	0	0	0	610	624	
8	0	0	0	0	626	624	
9	0	0	0	0	639	624	
10	0	0	0	0	652	624	
11	0	0	0	0	661	623	
12	0	0	0	0	665	623	
13	0	0	0	0	668	623	
14	0	0	0	0	670	623	
15	0	0	0	0	671	623	
0	0	0	0	0	670	622	
1	0	0	0	0	666	623	
2	0	0	0	0	661	622	
3	0	0	0	0	654	621	
4	0	0	0	0	646	621	
5	0	0	0	0	636	622	
6	0	0	0	0	624	622	
7	0	0	0	0	614	621	
8	0	0	0	0	604	621	
9	0	0	0	0	594	622	
10	0	0	0	0	583	622	
11	0	0	0	0	573	621	
12	0	0	0	0	563	622	
13	0	0	0	0	552	623	
14	0	0	0	0	543	622	
15	0	0	0	0	533	623	
0	0	0	0	0	524	623	
1	0	0	0	0	516	624	
2	0	0	0	0	511	624	
3	0	0	0	0	505	624	
4	0	0	0	0	501	624	
5	0	0	0	0	497	625	
6	0	0	0	0	494	625	
7	0	0	0	0	491	625	
8	0	0	0	0	488	625	
9	0	0	0	0	486	625	
10	0	0	0	0	485	624	
11	0	0	0	0	484	624	
12	0	0	0	0	483	624	
13	0	0	0	0	482	624	
14	0	0	0	0	481	624	
15	0	0	0	0	479	624	
0	0	0	0	0	479	623	
1	0	0	0	0	479	623	
2	0	0	0	0	479	623	
3	0	0	0	0	478	622	
4	0	0	0	0	478	623	
5	0	0	0	0	479	622	
6	0	0	0	0	479	622	
7	0	0	0	0	479	621	
8	0	0	0	0	479	622	
9	0	0	0	0	478	621	
10	0	0	0	0	478	622	
11	0	0	0	0	476	621	
12	0	0	0	0	475	621	
13	0	0	0	0	475	622	
14	0	0	0	0	474	622	
15	0	0	0	0	473	622	
0	0	0	0	0	473	622	
1	0	0	0	0	473	622	
2	0	0	0	0	473	623	
3	0	0	0	0	473	622	
4	0	0	0	0	474	624	
5	0	0	0	0	475	624	
6	0	0	0	0	475	624	
7	0	0	0	0	475	623	
8	0	0	0	0	476	624	
9	0	0	0	0	478	625	
10	0	0	0	0	480	625	
11	0	0	0	0	482	624	
12	0	0	0	0	483	624	
13	0	0	0	0	484	625	
14	0	0	0	0	484	625	
15	0	0	0	0	484	625	
0	0	0	0	0	483	625	
1	0	0	0	0	482	626	
2	0	0	0	0	481	626	
3	0	0	0	0	481	625	
4	0	0	0	0	481	626	
5	0	0	0	0	481	626	
6	0	0	0	0	480	625	
7	0	0	0	0	480	626	
8	0	0	0	0	481	626	
9	0	0	0	0	481	626	
10	0	0	0	0	481	626	
11	0	0	0	0	481	626	
12	0	0	0	0	481	625	
13	0	0	0	0	482	625	
14	0	0	0	0	482	625	
15	0	0	0	0	483	625	
0	0	0	0	0	483	624	
1	0	0	0	0	484	625	
2	0	0	0	0	484	624	
3	0	0	0	0	484	624	
4	0	0	0	0	485	624	
5	0	0	0	0	485	624	
6	0	0	0	0	485	624	
7	0	0	0	0	485	624	
8	0	0	0	0	485	625	
9	0	0	0	0	486	625	
10	0	0	0	0	486	624	
11	0	0	0	0	486	625	
12	0	0	0	0	486	624	
13	0	0	0	0	486	624	
14	0	0	0	0	486	624	
15	0	0	0	0	486	623	
0	0	0	0	0	487	624	
1	0	0	0	0	488	624	
2	0	0	0	0	487	624	
3	0	0	0	0	489	624	
4	0	0	0	0	490	624	
5	0	0	0	0	491	624	
6	0	0	0	0	491	623	
7	0	0	0	0	492	623	
8	0	0	0	0	494	623	
9	0	0	0	0	494	623	
10	0	0	0	0	494	623	
11	0	0	0	0	494	623	
12	0	0	0	0	494	623	
13	0	0	0	0	494	623	
14	0	0	0	0	494	623	
15	0	0	0	0	494	623	
0	0	0	0	0	493	623	
1	0	0	0	0	494	623	
2	0	0	0	0	494	623	
3	0	0	0	0	495	623	
4	0	0	0	0	494	622	
5	0	0	0	0	494	623	
6	0	0	0	0	494	623	
7	0	0	0	0	494	622	
8	0	0	0	0	495	622	
9	0	0	0	0	495	622	
10	0	0	0	0	496	622	
11	0	0	0	0	496	622	
12	0	0	0	0	496	622	
13	0	0	0	0	496	621	
14	0	0	0	0	497	621	
15	0	0	0	0	496	621	
0	0	0	0	0	496	621	
1	0	0	0	0	495	621	
2	0	0	0	0	495	620	
3	0	0	0	0	495	620	
4	0	0	0	0	495	620	
5	0	0	0	0	495	620	
6	0	0	0	0	496	620	
7	0	0	0	0	496	620	
8	0	0	0	0	496	620	
9	0	0	0	0	496	620	
10	0	0	0	0	495	620	
11	0	0	0	0	495	619	
12	0	0	0	0	495	619	
13	0	0	0	0	495	620	
14	0	0	0	0	495	620	
15	0	0	0	0	492	620	
0	0	0	0	0	491	620	
1	0	0	0	0	491	621	
2	0	0	0	0	491	621	
3	0	0	0	0	492	622	
4	0	0	0	0	494	622	
5	0	0	0	0	495	623	
6	0	0	0	0	495	623	
7	0	0	0	0	495	623	
8	0	0	0	0	495	624	
9	0	0	0	0	495	624	
10	0	0	0	0	495	624	
11	0	0	0	0	494	625	
12	0	0	0	0	496	625	
13	0	0	0	0	496	625	
14	0	0	0	0	497	625	
15	0	0	0	0	496	626	
0	0	0	0	0	495	625	
1	0	0	0	0	495	626	
2	0	0	0	0	495	626	
3	0	0	0	0	494	626	
4	0	0	0	0	495	626	
5	0	0	0	0	495	627	
6	0	0	0	0	497	626	
7	0	0	0	0	498	626	
8	0	0	0	0	499	626	
9	0	0	0	0	499	627	
10	0	0	0	0	500	626	
11	0	0	0	0	500	626	
12	0	0	0	0	500	627	
13	0	0	0	0	501	626	
14	0	0	0	0	501	627	
15	0	0	0	0	501	626	
0	0	0	0	0	501	626	
1	0	0	0	0	502	627	
2	0	0	0	0	502	626	
3	0	0	0	0	502	625	
4	0	0	0	0	501	626	
5	0	0	0	0	500	626	
6	0	0	0	0	500	626	
7	0	0	0	0	500	626	
8	0	0	0	0	502	626	
9	0	0	0	0	503	627	
10	0	0	0	0	504	627	
11	0	0	0	0	505	626	
12	0	0	0	0	505	626	
13	0	0	0	0	506	627	
14	0	0	0	0	507	626	
15	0	0	0	0	508	626	
0	0	0	0	0	509	626	
1	0	0	0	0	508	626	
2	0	0	0	0	507	624	
3	0	0	0	0	505	624	
4	0	0	0	0	505	624	
5	0	0	0	0	504	624	
6	0	0	0	0	504	624	
7	0	0	0	0	504	623	
8	0	0	0	0	505	623	
9	0	0	0	0	506	623	
10	0	0	0	0	506	623	
11	0	0	0	0	506	622	
12	0	0	0	0	506	622	
13	0	0	0	0	507	621	
14	0	0	0	0	508	621	
15	0	0	0	0	508	621	
0	0	0	0	0	508	621	
1	0	0	0	0	509	620	
2	0	0	0	0	510	619	
3	0	0	0	0	512	620	
4	0	0	0	0	512	620	
5	0	0	0	0	512	620	
6	0	0	0	0	513	620	
7	0	0	0	0	515	620	
8	0	0	0	0	515	620	
9	0	0	0	0	514	620	
10	0	0	0	0	513	620	
11	0	0	0	0	513	620	
12	0	0	0	0	512	620	
13	0	0	0	0	512	621	
14	0	0	0	0	512	620	
15	0	0	0	0	512	621	
0	0	0	0	0	512	621	
1	0	0	0	0	514	622	
2	0	0	0	0	514	621	
3	0	0	0	0	513	622	
4	0	0	0	0	513	622	
5	0	0	0	0	513	623	
6	0	0	0	0	514	623	
7	0	0	0	0	515	623	
8	0	0	0	0	515	623	
9	0	0	0	0	514	624	
10	0	0	0	0	515	624	
11	0	0	0	0	515	623	
12	0	0	0	0	513	624	
13	0	0	0	0	512	624	
14	0	0	0	0	511	623	
15	0	0	0	0	510	624	
0	0	0	0	0	511	623	
1	0	0	0	0	511	624	
2	0	0	0	0	512	624	
3	0	0	0	0	513	624	
4	0	0	0	0	514	625	
5	0	0	0	0	515	625	
6	0	0	0	0	516	625	
7	0	0	0	0	516	625	
8	0	0	0	0	516	625	
9	0	0	0	0	516	626	
10	0	0	0	0	515	625	
11	0	0	0	0	513	625	
12	0	0	0	0	511	625	
13	0	0	0	0	509	626	
14	0	0	0	0	508	626	
15	0	0	0	0	507	626	
0	0	0	0	0	506	626	
1	0	0	0	0	505	627	
2	0	0	0	0	505	627	
3	0	0	0	0	504	627	
4	0	0	0	0	501	627	
5	0	0	0	0	499	627	
6	0	0	0	0	499	627	
7	0	0	0	0	499	627	
8	0	0	0	0	499	627	
9	0	0	0	0	499	627	
10	0	0	0	0	499	626	
11	0	0	0	0	497	627	
12	0	0	0	0	498	626	
13	0	0	0	0	498	626	
14	0	0	0	0	499	625	
15	0	0	0	0	499	625	
0	0	0	0	0	497	625	
1	0	0	0	0	497	625	
2	0	0	0	0	496	625	
3	0	0	0	0	496	624	
4	0	0	0	0	495	624	
5	0	0	0	0	493	624	
6	0	0	0	0	492	623	
7	0	0	0	0	491	623	
8	0	0	0	0	490	623	
9	0	0	0	0	489	623	
10	0	0	0	0	489	623	
11	0	0	0	0	489	623	
12	0	0	0	0	491	623	
13	0	0	0	0	492	623	
14	0	0	0	0	494	622	
15	0	0	0	0	494	622	
0	0	0	0	0	494	622	
1	0	0	0	0	494	622	
2	0	0	0	0	495	622	
3	0	0	0	0	496	622	
4	0	0	0	0	495	622	
5	0	0	0	0	496	623	
6	0	0	0	0	496	622	
7	0	0	0	0	497	622	
8	0	0	0	0	498	622	
9	0	0	0	0	497	622	
10	0	0	0	0	498	622	
11	0	0	0	0	499	622	
12	0	0	0	0	499	622	
13	0	0	0	0	499	622	
14	0	0	0	0	499	622	
15	0	0	0	0	499	622	
0	0	0	0	0	500	622	
1	0	0	0	0	500	622	
2	0	0	0	0	500	621	
3	0	0	0	0	501	622	
4	0	0	0	0	501	622	
5	0	0	0	0	500	622	
6	0	0	0	0	499	622	
7	0	0	0	0	498	623	
8	0	0	0	0	498	623	
9	0	0	0	0	497	623	
10	0	0	0	0	497	623	
11	0	0	0	0	498	623	
12	0	0	0	0	499	624	
13	0	0	0	0	502	625	
14	0	0	0	0	503	625	
15	0	0	0	0	504	626	
0	0	0	0	0	503	626	
1	0	0	0	0	504	626	
2	0	0	0	0	504	627	
3	0	0	0	0	502	628	
4	0	0	0	0	502	628	
5	0	0	0	0	502	629	
6	0	0	0	0	501	628	
7	0	0	0	0	501	628	
8	0	0	0	0	500	628	
9	0	0	0	0	500	629	
10	0	0	0	0	500	629	
11	0	0	0	0	500	629	
12	0	0	0	0	501	629	
13	0	0	0	0	502	629	
14	0	0	0	0	503	629	
15	0	0	0	0	503	629	
0	0	0	0	0	503	629	
1	0	0	0	0	503	629	
2	0	0	0	0	503	629	
3	0	0	0	0	502	629	
4	0	0	0	0	501	629	
5	0	0	0	0	502	628	
6	0	0	0	0	502	628	
7	0	0	0	0	502	628	
8	0	0	0	0	501	628	
9	0	0	0	0	501	628	
10	0	0	0	0	501	628	
11	0	0	0	0	500	627	
12	0	0	0	0	500	627	
13	0	0	0	0	500	627	
14	0	0	0	0	501	627	
15	0	0	0	0	502	626	
0	0	0	0	0	502	625	
1	0	0	0	0	502	626	
2	0	0	0	0	503	624	
3	0	0	0	0	503	624	
4	0	0	0	0	504	623	
5	0	0	0	0	504	623	
6	0	0	0	0	504	622	
7	0	0	0	0	504	622	
8	0	0	0	0	504	622	
9	0	0	0	0	503	622	
10	0	0	0	0	503	621	
11	0	0	0	0	503	620	
12	0	0	0	0	503	620	
13	0	0	0	0	504	620	
14	0	0	0	0	504	620	
15	0	0	0	0	503	619	
0	0	0	0	0	502	619	
1	0	0	0	0	502	620	
2	0	0	0	0	502	619	
3	0	0	0	0	502	618	
4	0	0	0	0	501	619	
5	0	0	0	0	502	619	
6	0	0	0	0	503	619	
7	0	0	0	0	503	619	
8	0	0	0	0	504	619	
9	0	0	0	0	505	620	
10	0	0	0	0	506	620	
11	0	0	0	0	508	620	
12	0	0	0	0	509	620	
13	0	0	0	0	509	620	
14	0	0	0	0	506	620	
15	0	0	0	0	504	620	
0	0	0	0	0	504	621	
1	0	0	0	0	504	621	
2	0	0	0	0	504	621	
3	0	0	0	0	503	621	
4	0	0	0	0	503	621	
5	0	0	0	0	504	622	
6	0	0	0	0	504	622	
7	0	0	0	0	505	621	
8	0	0	0	0	505	621	
9	0	0	0	0	505	621	
10	0	0	0	0	506	621	
11	0	0	0	0	505	622	
12	0	0	0	0	505	622	
13	0	0	0	0	505	622	
14	0	0	0	0	505	622	
15	0	0	0	0	505	621	
0	0	0	0	0	506	622	
1	0	0	0	0	506	623	
2	0	0	0	0	507	622	
3	0	0	0	0	507	622	
4	0	0	0	0	507	623	
5	0	0	0	0	507	624	
6	0	0	0	0	508	624	
7	0	0	0	0	507	624	
8	0	0	0	0	507	624	
9	0	0	0	0	507	625	
10	0	0	0	0	506	624	
11	0	0	0	0	505	624	
12	0	0	0	0	504	625	
13	0	0	0	0	504	625	
14	0	0	0	0	504	625	
15	0	0	0	0	504	626	
0	0	0	0	0	504	626	
1	0	0	0	0	505	627	
2	0	0	0	0	507	626	
3	0	0	0	0	507	627	
4	0	0	0	0	507	627	
5	0	0	0	0	507	627	
6	0	0	0	0	508	627	
7	0	0	0	0	508	628	
8	0	0	0	0	509	628	
9	0	0	0	0	509	629	
10	0	0	0	0	510	628	
11	0	0	0	0	509	629	
12	0	0	0	0	509	629	
13	0	0	0	0	509	629	
14	0	0	0	0	509	629	
15	0	0	0	0	509	629	
0	0	0	0	0	509	629	
1	0	0	0	0	510	630	
2	0	0	0	0	511	630	
3	0	0	0	0	512	629	
4	0	0	0	0	511	629	
5	0	0	0	0	511	629	
6	0	0	0	0	510	628	
7	0	0	0	0	509	628	
8	0	0	0	0	509	628	
9	0	0	0	0	509	627	
10	0	0	0	0	507	626	
11	0	0	0	0	506	626	
12	0	0	0	0	506	625	
13	0	0	0	0	505	625	
14	0	0	0	0	504	625	
15	0	0	0	0	504	624	
0	0	0	0	0	504	624	
1	0	0	0	0	505	624	
2	0	0	0	0	506	623	
3	0	0	0	0	506	623	
4	0	0	0	0	507	623	
5	0	0	0	0	508	623	
6	0	0	0	0	509	622	
7	0	0	0	0	509	621	
8	0	0	0	0	509	621	
9	0	0	0	0	508	622	
10	0	0	0	0	507	621	
11	0	0	0	0	505	621	
12	0	0	0	0	505	621	
13	0	0	0	0	505	620	
14	0	0	0	0	505	621	
15	0	0	0	0	505	620	
0	0	0	0	0	505	620	
1	0	0	0	0	506	621	
2	0	0	0	0	507	620	
3	0	0	0	0	508	620	
4	0	0	0	0	508	620	
5	0	0	0	0	508	620	
6	0	0	0	0	508	620	
7	0	0	0	0	508	620	
8	0	0	0	0	507	619	
9	0	0	0	0	506	619	
10	0	0	0	0	505	619	
11	0	0	0	0	506	619	
12	0	0	0	0	506	619	
13	0	0	0	0	506	619	
14	0	0	0	0	507	619	
15	0	0	0	0	508	619	
0	0	0	0	0	509	619	
1	0	0	0	0	508	619	
2	0	0	0	0	508	618	
3	0	0	0	0	508	619	
4	0	0	0	0	508	619	
5	0	0	0	0	508	619	
6	0	0	0	0	507	618	
7	0	0	0	0	507	619	
8	0	0	0	0	507	619	
9	0	0	0	0	507	619	
10	0	0	0	0	507	619	
11	0	0	0	0	507	619	
12	0	0	0	0	507	619	
13	0	0	0	0	507	619	
14	0	0	0	0	507	619	
15	0	0	0	0	507	618	
0	0	0	0	0	507	618	
1	0	0	0	0	507	619	
2	0	0	0	0	507	618	
3	0	0	0	0	508	617	
4	0	0	0	0	508	617	
5	0	0	0	0	508	617	
6	0	0	0	0	508	617	
7	0	0	0	0	508	617	
8	0	0	0	0	508	618	
9	0	0	0	0	509	618	
10	0	0	0	0	508	619	
11	0	0	0	0	508	619	
12	0	0	0	0	507	619	
13	0	0	0	0	506	619	
14	0	0	0	0	506	620	
15	0	0	0	0	506	620	
0	0	0	0	0	506	620	
1	0	0	0	0	507	621	
2	0	0	0	0	508	621	
3	0	0	0	0	509	622	
4	0	0	0	0	509	623	
5	0	0	0	0	509	623	
6	0	0	0	0	510	624	
7	0	0	0	0	511	624	
8	0	0	0	0	512	624	
9	0	0	0	0	512	624	
10	0	0	0	0	513	624	
11	0	0	0	0	513	624	
12	0	0	0	0	513	624	
13	0	0	0	0	513	624	
14	0	0	0	0	512	624	
15	0	0	0	0	510	623	
0	0	0	0	0	508	624	
1	0	0	0	0	507	624	
2	0	0	0	0	505	623	
3	0	0	0	0	506	623	
4	0	0	0	0	507	623	
5	0	0	0	0	507	623	
6	0	0	0	0	508	623	
7	0	0	0	0	509	624	
8	0	0	0	0	509	623	
9	0	0	0	0	510	623	
10	0	0	0	0	510	623	
11	0	0	0	0	511	624	
12	0	0	0	0	513	623	
13	0	0	0	0	512	623	
14	0	0	0	0	511	624	
15	0	0	0	0	510	623	
0	0	0	0	0	509	623	
1	0	0	0	0	509	624	
2	0	0	0	0	509	623	
3	0	0	0	0	511	623	
4	0	0	0	0	512	622	
5	0	0	0	0	512	623	
6	0	0	0	0	511	622	
7	0	0	0	0	511	622	
8	0	0	0	0	510	622	
9	0	0	0	0	511	622	
10	0	0	0	0	511	622	
11	0	0	0	0	512	620	
12	0	0	0	0	512	620	
13	0	0	0	0	511	621	
14	0	0	0	0	511	620	
15	0	0	0	0	511	620	
0	0	0	0	0	511	620	
1	0	0	0	0	510	620	
2	0	0	0	0	510	619	
3	0	0	0	0	510	620	
4	0	0	0	0	509	619	
5	0	0	0	0	509	620	
6	0	0	0	0	507	619	
7	0	0	0	0	506	619	
8	0	0	0	0	506	619	
9	0	0	0	0	506	619	
10	0	0	0	0	506	619	
11	0	0	0	0	506	619	
12	0	0	0	0	505	619	
13	0	0	0	0	506	619	
14	0	0	0	0	506	618	
15	0	0	0	0	507	619	
0	0	0	0	0	509	619	
1	0	0	0	0	510	619	
2	0	0	0	0	512	619	
3	0	0	0	0	511	619	
4	0	0	0	0	510	619	
5	0	0	0	0	509	619	
6	0	0	0	0	510	619	
7	0	0	0	0	510	620	
8	0	0	0	0	510	620	
9	0	0	0	0	509	620	
10	0	0	0	0	509	620	
11	0	0	0	0	510	620	
12	0	0	0	0	511	620	
13	0	0	0	0	511	621	
14	0	0	0	0	510	620	
15	0	0	0	0	510	621	
0	0	0	0	0	510	622	
1	0	0	0	0	510	622	
2	0	0	0	0	509	622	
3	0	0	0	0	509	623	
4	0	0	0	0	508	623	
5	0	0	0	0	507	624	
6	0	0	0	0	507	624	
7	0	0	0	0	506	625	
8	0	0	0	0	504	625	
9	0	0	0	0	504	626	
10	0	0	0	0	503	627	
11	0	0	0	0	503	628	
12	0	0	0	0	504	630	
13	0	0	0	0	505	632	
14	0	0	0	0	507	632	
15	0	0	0	0	508	633	
0	0	0	0	0	508	633	
1	0	0	0	0	508	636	
2	0	0	0	0	507	636	
3	0	0	0	0	507	637	
4	0	0	0	0	506	639	
5	0	0	0	0	506	639	
6	0	0	0	0	507	639	
7	0	0	0	0	506	639	
8	0	0	0	0	506	639	
9	0	0	0	0	507	640	
10	0	0	0	0	508	640	
11	0	0	0	0	508	640	
12	0	0	0	0	511	640	
13	0	0	0	0	512	640	
14	0	0	0	0	511	640	
15	0	0	0	0	511	639	
0	0	0	0	0	511	639	
1	0	0	0	0	510	639	
2	0	0	0	0	510	638	
3	0	0	0	0	509	638	
4	0	0	0	0	510	637	
5	0	0	0	0	510	638	
6	0	0	0	0	510	636	
7	0	0	0	0	510	636	
8	0	0	0	0	510	635	
9	0	0	0	0	510	634	
10	0	0	0	0	509	633	
11	0	0	0	0	509	632	
12	0	0	0	0	510	632	
13	0	0	0	0	511	631	
14	0	0	0	0	512	630	
15	0	0	0	0	512	630	
0	0	0	0	0	512	628	
1	0	0	0	0	512	629	
2	0	0	0	0	511	628	
3	0	0	0	0	511	627	
4	0	0	0	0	511	626	
5	0	0	0	0	511	626	
6	0	0	0	0	510	625	
7	0	0	0	0	510	625	
8	0	0	0	0	510	624	
9	0	0	0	0	510	624	
10	0	0	0	0	510	624	
11	0	0	0	0	511	623	
12	0	0	0	0	511	623	
13	0	0	0	0	511	623	
14	0	0	0	0	512	623	
15	0	0	0	0	512	622	
0	0	0	0	0	512	622	
1	0	0	0	0	512	622	
2	0	0	0	0	511	620	
3	0	0	0	0	510	620	
4	0	0	0	0	508	620	
5	0	0	0	0	508	620	
6	0	0	0	0	506	619	
7	0	0	0	0	506	619	
8	0	0	0	0	506	619	
9	0	0	0	0	506	619	
10	0	0	0	0	506	618	
11	0	0	0	0	506	618	
12	0	0	0	0	507	617	
13	0	0	0	0	508	618	
14	0	0	0	0	508	618	
15	0	0	0	0	507	617	
0	0	0	0	0	505	617	
1	0	0	0	0	505	617	
2	0	0	0	0	506	618	
3	0	0	0	0	507	617	
4	0	0	0	0	508	617	
5	0	0	0	0	508	618	
6	0	0	0	0	509	619	
7	0	0	0	0	510	619	
8	0	0	0	0	510	619	
9	0	0	0	0	510	619	
10	0	0	0	0	510	619	
11	0	0	0	0	511	619	
12	0	0	0	0	511	619	
13	0	0	0	0	511	619	
14	0	0	0	0	510	620	
15	0	0	0	0	509	620	
0	0	0	0	0	508	620	
1	0	0	0	0	509	621	
2	0	0	0	0	510	620	
3	0	0	0	0	511	621	
4	0	0	0	0	511	622	
5	0	0	0	0	513	622	
6	0	0	0	0	513	622	
7	0	0	0	0	511	623	
8	0	0	0	0	508	623	
9	0	0	0	0	506	624	
10	0	0	0	0	506	624	
11	0	0	0	0	506	625	
12	0	0	0	0	504	625	
13	0	0	0	0	503	626	
14	0	0	0	0	503	626	
15	0	0	0	0	504	627	
0	0	0	0	0	507	628	
1	0	0	0	0	509	628	
2	0	0	0	0	511	628	
3	0	0	0	0	511	629	
4	0	0	0	0	512	630	
5	0	0	0	0	512	630	
6	0	0	0	0	510	630	
7	0	0	0	0	507	630	
8	0	0	0	0	503	631	
9	0	0	0	0	499	632	
10	0	0	0	0	495	631	
11	0	0	0	0	491	632	
12	0	0	0	0	487	632	
13	0	0	0	0	484	633	
14	0	0	0	0	481	632	
15	0	0	0	0	479	632	
0	0	0	0	0	478	632	
1	0	0	0	0	478	632	
2	0	0	0	0	480	632	
3	0	0	0	0	483	632	
4	0	0	0	0	488	632	
5	0	0	0	0	495	632	
6	0	0	0	0	504	631	
7	0	0	0	0	516	631	
8	0	0	0	0	533	631	
9	0	0	0	0	551	631	
10	0	0	0	0	569	631	
11	0	0	0	0	588	630	
12	0	0	0	0	606	630	
13	0	0	0	0	624	629	
14	0	0	0	0	640	628	
15	0	0	0	0	655	627	
0	0	0	0	0	667	627	
1	0	0	0	0	674	628	
2	0	0	0	0	679	627	
3	0	0	0	0	681	627	
4	0	0	0	0	683	626	
5	0	0	0	0	683	626	
6	0	0	0	0	681	625	
7	0	0	0	0	676	624	
8	0	0	0	0	670	624	
9	0	0	0	0	661	624	
10	0	0	0	0	652	624	
11	0	0	0	0	641	624	
12	0	0	0	0	629	623	
13	0	0	0	0	618	623	
14	0	0	0	0	606	622	
15	0	0	0	0	594	622	
0	0	0	0	0	582	622	
1	0	0	0	0	569	622	
2	0	0	0	0	557	622	
3	0	0	0	0	547	621	
4	0	0	0	0	538	622	
5	0	0	0	0	529	621	
6	0	0	0	0	521	621	
7	0	0	0	0	513	620	
8	0	0	0	0	507	620	
9	0	0	0	0	502	620	
10	0	0	0	0	496	621	
11	0	0	0	0	492	620	
12	0	0	0	0	489	620	
13	0	0	0	0	487	620	
14	0	0	0	0	484	620	
15	0	0	0	0	481	619	
0	0	0	0	0	479	620	
1	0	0	0	0	477	620	
2	0	0	0	0	475	620	
3	0	0	0	0	475	620	
4	0	0	0	0	474	620	
5	0	0	0	0	472	620	
6	0	0	0	0	472	621	
7	0	0	0	0	471	621	
8	0	0	0	0	472	621	
9	0	0	0	0	472	621	
10	0	0	0	0	473	621	
11	0	0	0	0	474	620	
12	0	0	0	0	473	620	
13	0	0	0	0	472	621	
14	0	0	0	0	473	620	
15	0	0	0	0	473	620	
0	0	0	0	0	472	620	
1	0	0	0	0	473	621	
2	0	0	0	0	475	621	
3	0	0	0	0	478	621	
4	0	0	0	0	480	621	
5	0	0	0	0	479	621	
6	0	0	0	0	478	622	
7	0	0	0	0	478	622	
8	0	0	0	0	476	622	
9	0	0	0	0	475	623	
10	0	0	0	0	474	623	
11	0	0	0	0	473	624	
12	0	0	0	0	472	624	
13	0	0	0	0	473	625	
14	0	0	0	0	473	624	
15	0	0	0	0	475	625	
0	0	0	0	0	475	625	
1	0	0	0	0	475	625	
2	0	0	0	0	476	626	
3	0	0	0	0	476	626	
4	0	0	0	0	478	627	
5	0	0	0	0	479	628	
6	0	0	0	0	480	628	
7	0	0	0	0	480	628	
8	0	0	0	0	480	629	
9	0	0	0	0	481	629	
10	0	0	0	0	482	629	
11	0	0	0	0	482	630	
12	0	0	0	0	483	630	
13	0	0	0	0	483	630	
14	0	0	0	0	483	630	
15	0	0	0	0	483	630	
0	0	0	0	0	481	630	
1	0	0	0	0	480	630	
2	0	0	0	0	479	629	
3	0	0	0	0	478	628	
4	0	0	0	0	478	627	
5	0	0	0	0	480	627	
6	0	0	0	0	483	626	
7	0	0	0	0	485	625	
8	0	0	0	0	487	624	
9	0	0	0	0	488	624	
10	0	0	0	0	488	623	
11	0	0	0	0	488	623	
12	0	0	0	0	487	622	
13	0	0	0	0	487	623	
14	0	0	0	0	487	623	
15	0	0	0	0	487	622	
0	0	0	0	0	487	624	
1	0	0	0	0	487	624	
2	0	0	0	0	486	624	
3	0	0	0	0	486	625	
4	0	0	0	0	486	625	
5	0	0	0	0	486	626	
6	0	0	0	0	486	626	
7	0	0	0	0	487	627	
8	0	0	0	0	486	627	
9	0	0	0	0	486	627	
10	0	0	0	0	487	628	
11	0	0	0	0	487	628	
12	0	0	0	0	487	628	
13	0	0	0	0	488	628	
14	0	0	0	0	489	628	
15	0	0	0	0	489	628	
0	0	0	0	0	489	627	
1	0	0	0	0	489	627	
2	0	0	0	0	489	626	
3	0	0	0	0	489	626	
4	0	0	0	0	488	626	
5	0	0	0	0	488	626	
6	0	0	0	0	488	626	
7	0	0	0	0	489	626	
8	0	0	0	0	489	627	
9	0	0	0	0	489	629	
10	0	0	0	0	489	629	
11	0	0	0	0	489	628	
12	0	0	0	0	489	628	
13	0	0	0	0	488	627	
14	0	0	0	0	488	626	
15	0	0	0	0	489	624	
0	0	0	0	0	488	623	
1	0	0	0	0	488	623	
2	0	0	0	0	488	623	
3	0	0	0	0	487	622	
4	0	0	0	0	486	622	
5	0	0	0	0	486	623	
6	0	0	0	0	485	623	
7	0	0	0	0	486	623	
8	0	0	0	0	487	623	
9	0	0	0	0	486	623	
10	0	0	0	0	486	623	
11	0	0	0	0	487	622	
12	0	0	0	0	488	622	
13	0	0	0	0	489	622	
14	0	0	0	0	490	621	
15	0	0	0	0	491	622	
0	0	0	0	0	491	622	
1	0	0	0	0	492	622	
2	0	0	0	0	494	620	
3	0	0	0	0	495	620	
4	0	0	0	0	495	620	
5	0	0	0	0	494	620	
6	0	0	0	0	493	620	
7	0	0	0	0	492	620	
8	0	0	0	0	491	620	
9	0	0	0	0	492	620	
10	0	0	0	0	491	619	
11	0	0	0	0	490	619	
12	0	0	0	0	490	619	
13	0	0	0	0	490	619	
14	0	0	0	0	491	619	
15	0	0	0	0	492	619	
0	0	0	0	0	494	619	
1	0	0	0	0	496	619	
2	0	0	0	0	496	619	
3	0	0	0	0	496	620	
4	0	0	0	0	495	619	
5	0	0	0	0	493	620	
6	0	0	0	0	491	619	
7	0	0	0	0	492	618	
8	0	0	0	0	492	618	
9	0	0	0	0	492	618	
10	0	0	0	0	493	618	
11	0	0	0	0	495	618	
12	0	0	0	0	495	617	
13	0	0	0	0	496	617	
14	0	0	0	0	497	617	
15	0	0	0	0	497	617	
0	0	0	0	0	496	617	
1	0	0	0	0	496	617	
2	0	0	0	0	497	617	
3	0	0	0	0	499	617	
4	0	0	0	0	500	618	
5	0	0	0	0	500	618	
6	0	0	0	0	500	618	
7	0	0	0	0	500	619	
8	0	0	0	0	499	619	
9	0	0	0	0	498	620	
10	0	0	0	0	498	619	
11	0	0	0	0	498	620	
12	0	0	0	0	498	620	
13	0	0	0	0	497	620	
14	0	0	0	0	497	620	
15	0	0	0	0	498	620	
0	0	0	0	0	499	621	
1	0	0	0	0	500	621	
2	0	0	0	0	500	620	
3	0	0	0	0	500	621	
4	0	0	0	0	500	620	
5	0	0	0	0	499	620	
6	0	0	0	0	500	620	
7	0	0	0	0	499	620	
8	0	0	0	0	499	620	
9	0	0	0	0	500	620	
10	0	0	0	0	500	619	
11	0	0	0	0	500	619	
12	0	0	0	0	500	620	
13	0	0	0	0	502	619	
14	0	0	0	0	502	618	
15	0	0	0	0	503	619	
0	0	0	0	0	504	619	
1	0	0	0	0	504	619	
2	0	0	0	0	505	618	
3	0	0	0	0	504	617	
4	0	0	0	0	505	618	
5	0	0	0	0	505	618	
6	0	0	0	0	504	617	
7	0	0	0	0	505	617	
8	0	0	0	0	504	617	
9	0	0	0	0	505	619	
10	0	0	0	0	505	618	
11	0	0	0	0	505	618	
12	0	0	0	0	505	618	
13	0	0	0	0	506	619	
14	0	0	0	0	505	618	
15	0	0	0	0	504	618	
0	0	0	0	0	504	618	
1	0	0	0	0	504	618	
2	0	0	0	0	505	618	
3	0	0	0	0	507	617	
4	0	0	0	0	508	617	
5	0	0	0	0	509	617	
6	0	0	0	0	510	617	
7	0	0	0	0	508	617	
8	0	0	0	0	508	618	
9	0	0	0	0	509	618	
10	0	0	0	0	511	618	
11	0	0	0	0	511	619	
12	0	0	0	0	512	619	
13	0	0	0	0	513	619	
14	0	0	0	0	512	619	
15	0	0	0	0	511	620	
0	0	0	0	0	512	620	
1	0	0	0	0	513	620	
2	0	0	0	0	513	620	
3	0	0	0	0	514	620	
4	0	0	0	0	514	620	
5	0	0	0	0	513	620	
6	0	0	0	0	513	620	
7	0	0	0	0	513	620	
8	0	0	0	0	514	620	
9	0	0	0	0	513	621	
10	0	0	0	0	511	620	
11	0	0	0	0	510	621	
12	0	0	0	0	509	621	
13	0	0	0	0	507	621	
14	0	0	0	0	506	621	
15	0	0	0	0	505	621	
0	0	0	0	0	505	621	
1	0	0	0	0	506	621	
2	0	0	0	0	508	621	
3	0	0	0	0	508	621	
4	0	0	0	0	509	621	
5	0	0	0	0	509	621	
6	0	0	0	0	508	621	
7	0	0	0	0	508	622	
8	0	0	0	0	507	622	
9	0	0	0	0	504	622	
10	0	0	0	0	501	622	
11	0	0	0	0	499	623	
12	0	0	0	0	498	623	
13	0	0	0	0	497	623	
14	0	0	0	0	497	624	
15	0	0	0	0	497	624	
0	0	0	0	0	496	624	
1	0	0	0	0	494	623	
2	0	0	0	0	494	624	
3	0	0	0	0	493	623	
4	0	0	0	0	492	623	
5	0	0	0	0	492	624	
6	0	0	0	0	494	622	
7	0	0	0	0	494	622	
8	0	0	0	0	494	621	
9	0	0	0	0	495	622	
10	0	0	0	0	496	622	
11	0	0	0	0	497	621	
12	0	0	0	0	496	620	
13	0	0	0	0	495	621	
14	0	0	0	0	495	620	
15	0	0	0	0	495	620	
0	0	0	0	0	493	619	
1	0	0	0	0	494	619	
2	0	0	0	0	493	618	
3	0	0	0	0	494	618	
4	0	0	0	0	494	618	
5	0	0	0	0	494	618	
6	0	0	0	0	492	618	
7	0	0	0	0	492	618	
8	0	0	0	0	490	618	
9	0	0	0	0	489	619	
10	0	0	0	0	491	618	
11	0	0	0	0	493	618	
12	0	0	0	0	494	618	
13	0	0	0	0	493	619	
14	0	0	0	0	492	619	
15	0	0	0	0	491	618	
0	0	0	0	0	490	618	
1	0	0	0	0	492	619	
2	0	0	0	0	493	619	
3	0	0	0	0	493	619	
4	0	0	0	0	493	619	
5	0	0	0	0	493	620	
6	0	0	0	0	493	620	
7	0	0	0	0	494	620	
8	0	0	0	0	493	620	
9	0	0	0	0	493	620	
10	0	0	0	0	492	620	
11	0	0	0	0	491	620	
12	0	0	0	0	490	620	
13	0	0	0	0	492	620	
14	0	0	0	0	495	621	
15	0	0	0	0	497	621	
0	0	0	0	0	497	621	
1	0	0	0	0	497	622	
2	0	0	0	0	496	622	
3	0	0	0	0	496	623	
4	0	0	0	0	495	622	
5	0	0	0	0	494	623	
6	0	0	0	0	495	624	
7	0	0	0	0	496	624	
8	0	0	0	0	497	625	
9	0	0	0	0	498	625	
10	0	0	0	0	499	625	
11	0	0	0	0	499	626	
12	0	0	0	0	498	626	
13	0	0	0	0	496	627	
14	0	0	0	0	496	627	
15	0	0	0	0	496	627	
0	0	0	0	0	496	628	
1	0	0	0	0	496	629	
2	0	0	0	0	496	629	
3	0	0	0	0	496	629	
4	0	0	0	0	497	629	
5	0	0	0	0	497	629	
6	0	0	0	0	497	630	
7	0	0	0	0	496	629	
8	0	0	0	0	496	629	
9	0	0	0	0	496	629	
10	0	0	0	0	496	629	
11	0	0	0	0	497	629	
12	0	0	0	0	497	628	
13	0	0	0	0	496	628	
14	0	0	0	0	496	628	
15	0	0	0	0	496	628	
0	0	0	0	0	496	627	
1	0	0	0	0	496	628	
2	0	0	0	0	495	627	
3	0	0	0	0	495	627	
4	0	0	0	0	495	626	
5	0	0	0	0	494	626	
6	0	0	0	0	495	626	
7	0	0	0	0	495	626	
8	0	0	0	0	495	626	
9	0	0	0	0	496	627	
10	0	0	0	0	496	626	
11	0	0	0	0	497	626	
12	0	0	0	0	497	626	
13	0	0	0	0	499	626	
14	0	0	0	0	499	626	
15	0	0	0	0	499	626	
0	0	0	0	0	498	626	
1	0	0	0	0	497	627	
2	0	0	0	0	496	625	
3	0	0	0	0	496	625	
4	0	0	0	0	496	625	
5	0	0	0	0	497	625	
6	0	0	0	0	497	624	
7	0	0	0	0	497	624	
8	0	0	0	0	499	624	
9	0	0	0	0	500	623	
10	0	0	0	0	501	623	
11	0	0	0	0	501	622	
12	0	0	0	0	499	622	
13	0	0	0	0	500	622	
14	0	0	0	0	501	621	
15	0	0	0	0	501	621	
0	0	0	0	0	500	621	
1	0	0	0	0	500	621	
2	0	0	0	0	500	620	
3	0	0	0	0	500	621	
4	0	0	0	0	500	620	
5	0	0	0	0	500	621	
6	0	0	0	0	499	620	
7	0	0	0	0	499	620	
8	0	0	0	0	501	620	
9	0	0	0	0	502	620	
10	0	0	0	0	503	620	
11	0	0	0	0	503	620	
12	0	0	0	0	503	620	
13	0	0	0	0	503	620	
14	0	0	0	0	502	620	
15	0	0	0	0	501	620	
0	0	0	0	0	501	622	
1	0	0	0	0	502	622	
2	0	0	0	0	502	621	
3	0	0	0	0	503	621	
4	0	0	0	0	502	622	
5	0	0	0	0	500	622	
6	0	0	0	0	500	622	
7	0	0	0	0	501	622	
8	0	0	0	0	504	623	
9	0	0	0	0	505	624	
10	0	0	0	0	505	623	
11	0	0	0	0	506	624	
12	0	0	0	0	507	625	
13	0	0	0	0	508	625	
14	0	0	0	0	507	625	
15	0	0	0	0	507	626	
0	0	0	0	0	505	626	
1	0	0	0	0	506	627	
2	0	0	0	0	505	628	
3	0	0	0	0	506	628	
4	0	0	0	0	505	628	
5	0	0	0	0	506	629	
6	0	0	0	0	506	629	
7	0	0	0	0	507	630	
8	0	0	0	0	508	629	
9	0	0	0	0	508	630	
10	0	0	0	0	509	630	
11	0	0	0	0	509	630	
12	0	0	0	0	508	630	
13	0	0	0	0	509	631	
14	0	0	0	0	509	630	
15	0	0	0	0	509	631	
0	0	0	0	0	509	631	
1	0	0	0	0	509	631	
2	0	0	0	0	508	631	
3	0	0	0	0	509	632	
4	0	0	0	0	509	632	
5	0	0	0	0	510	634	
6	0	0	0	0	511	636	
7	0	0	0	0	511	639	
8	0	0	0	0	511	640	
9	0	0	0	0	511	639	
10	0	0	0	0	512	639	
11	0	0	0	0	512	636	
12	0	0	0	0	512	632	
13	0	0	0	0	511	629	
14	0	0	0	0	511	627	
15	0	0	0	0	511	626	
0	0	0	0	0	511	625	
1	0	0	0	0	511	626	
2	0	0	0	0	511	625	
3	0	0	0	0	512	626	
4	0	0	0	0	512	627	
5	0	0	0	0	511	627	
6	0	0	0	0	511	627	
7	0	0	0	0	509	627	
8	0	0	0	0	507	627	
9	0	0	0	0	505	627	
10	0	0	0	0	504	626	
11	0	0	0	0	503	625	
12	0	0	0	0	502	625	
13	0	0	0	0	504	625	
14	0	0	0	0	505	624	
15	0	0	0	0	506	624	
0	0	0	0	0	506	625	
1	0	0	0	0	507	625	
2	0	0	0	0	509	624	
3	0	0	0	0	510	624	
4	0	0	0	0	511	624	
5	0	0	0	0	512	624	
6	0	0	0	0	513	623	
7	0	0	0	0	512	623	
8	0	0	0	0	511	621	
9	0	0	0	0	511	621	
10	0	0	0	0	511	621	
11	0	0	0	0	512	620	
12	0	0	0	0	514	620	
13	0	0	0	0	515	620	
14	0	0	0	0	516	619	
15	0	0	0	0	515	619	
0	0	0	0	0	515	619	
1	0	0	0	0	514	619	
2	0	0	0	0	512	618	
3	0	0	0	0	511	618	
4	0	0	0	0	512	618	
5	0	0	0	0	512	618	
6	0	0	0	0	514	619	
7	0	0	0	0	514	619	
8	0	0	0	0	513	619	
9	0	0	0	0	511	619	
10	0	0	0	0	511	620	
11	0	0	0	0	510	620	
12	0	0	0	0	510	620	
13	0	0	0	0	510	621	
14	0	0	0	0	509	621	
15	0	0	0	0	508	621	
0	0	0	0	0	510	622	
1	0	0	0	0	511	622	
2	0	0	0	0	512	622	
3	0	0	0	0	513	622	
4	0	0	0	0	513	622	
5	0	0	0	0	511	623	
6	0	0	0	0	509	623	
7	0	0	0	0	509	623	
8	0	0	0	0	510	624	
9	0	0	0	0	510	625	
10	0	0	0	0	511	625	
11	0	0	0	0	513	625	
12	0	0	0	0	514	626	
13	0	0	0	0	515	627	
14	0	0	0	0	515	627	
15	0	0	0	0	514	627	
0	0	0	0	0	513	627	
1	0	0	0	0	512	628	
2	0	0	0	0	511	628	
3	0	0	0	0	511	628	
4	0	0	0	0	511	628	
5	0	0	0	0	511	629	
6	0	0	0	0	510	629	
7	0	0	0	0	510	630	
8	0	0	0	0	510	630	
9	0	0	0	0	511	631	
10	0	0	0	0	511	630	
11	0	0	0	0	511	630	
12	0	0	0	0	511	630	
13	0	0	0	0	512	631	
14	0	0	0	0	514	630	
15	0	0	0	0	515	630	
0	0	0	0	0	515	630	
1	0	0	0	0	515	630	
2	0	0	0	0	516	629	
3	0	0	0	0	516	629	
4	0	0	0	0	516	629	
5	0	0	0	0	516	629	
6	0	0	0	0	515	628	
7	0	0	0	0	514	627	
8	0	0	0	0	514	626	
9	0	0	0	0	513	627	
10	0	0	0	0	512	625	
11	0	0	0	0	511	624	
12	0	0	0	0	511	623	
13	0	0	0	0	511	622	
14	0	0	0	0	512	621	
15	0	0	0	0	512	620	
0	0	0	0	0	511	620	
1	0	0	0	0	511	620	
2	0	0	0	0	510	619	
3	0	0	0	0	509	618	
4	0	0	0	0	508	617	
5	0	0	0	0	508	616	
6	0	0	0	0	507	615	
7	0	0	0	0	507	615	
8	0	0	0	0	508	614	
9	0	0	0	0	509	614	
10	0	0	0	0	511	614	
11	0	0	0	0	512	613	
12	0	0	0	0	512	613	
13	0	0	0	0	512	613	
14	0	0	0	0	511	611	
15	0	0	0	0	511	612	
0	0	0	0	0	511	612	
1	0	0	0	0	512	613	
2	0	0	0	0	513	613	
3	0	0	0	0	512	613	
4	0	0	0	0	513	614	
5	0	0	0	0	513	614	
6	0	0	0	0	513	615	
7	0	0	0	0	512	616	
8	0	0	0	0	511	616	
9	0	0	0	0	509	618	
10	0	0	0	0	509	618	
11	0	0	0	0	508	620	
12	0	0	0	0	509	620	
13	0	0	0	0	512	622	
14	0	0	0	0	513	622	
15	0	0	0	0	515	623	
0	0	0	0	0	515	624	
1	0	0	0	0	513	625	
2	0	0	0	0	512	625	
3	0	0	0	0	512	625	
4	0	0	0	0	511	627	
5	0	0	0	0	511	627	
6	0	0	0	0	511	628	
7	0	0	0	0	510	629	
8	0	0	0	0	511	629	
9	0	0	0	0	511	630	
10	0	0	0	0	510	631	
11	0	0	0	0	510	631	
12	0	0	0	0	510	632	
13	0	0	0	0	509	632	
14	0	0	0	0	508	632	
15	0	0	0	0	508	632	
0	0	0	0	0	509	632	
1	0	0	0	0	510	631	
2	0	0	0	0	511	631	
3	0	0	0	0	511	631	
4	0	0	0	0	512	632	
5	0	0	0	0	513	633	
6	0	0	0	0	513	634	
7	0	0	0	0	512	636	
8	0	0	0	0	511	637	
9	0	0	0	0	511	638	
10	0	0	0	0	513	638	
11	0	0	0	0	515	638	
12	0	0	0	0	515	637	
13	0	0	0	0	513	637	
14	0	0	0	0	512	636	
15	0	0	0	0	512	636	
0	0	0	0	0	511	636	
1	0	0	0	0	510	636	
2	0	0	0	0	510	635	
3	0	0	0	0	509	634	
4	0	0	0	0	508	634	
5	0	0	0	0	507	633	
6	0	0	0	0	505	632	
7	0	0	0	0	506	632	
8	0	0	0	0	507	631	
9	0	0	0	0	508	631	
10	0	0	0	0	511	629	
11	0	0	0	0	512	629	
12	0	0	0	0	512	628	
13	0	0	0	0	512	628	
14	0	0	0	0	512	627	
15	0	0	0	0	513	627	
0	0	0	0	0	512	626	
1	0	0	0	0	511	627	
2	0	0	0	0	510	626	
3	0	0	0	0	510	626	
4	0	0	0	0	510	625	
5	0	0	0	0	509	625	
6	0	0	0	0	508	624	
7	0	0	0	0	506	624	
8	0	0	0	0	505	624	
9	0	0	0	0	505	623	
10	0	0	0	0	505	623	
11	0	0	0	0	506	622	
12	0	0	0	0	508	622	
13	0	0	0	0	510	621	
14	0	0	0	0	512	621	
15	0	0	0	0	512	620	
0	0	0	0	0	512	620	
1	0	0	0	0	511	620	
2	0	0	0	0	511	619	
3	0	0	0	0	511	619	
4	0	0	0	0	511	619	
5	0	0	0	0	510	619	
6	0	0	0	0	509	618	
7	0	0	0	0	509	617	
8	0	0	0	0	508	617	
9	0	0	0	0	508	618	
10	0	0	0	0	507	617	
11	0	0	0	0	506	617	
12	0	0	0	0	506	616	
13	0	0	0	0	506	615	
14	0	0	0	0	507	615	
15	0	0	0	0	508	614	
0	0	0	0	0	509	614	
1	0	0	0	0	510	614	
2	0	0	0	0	510	614	
3	0	0	0	0	511	614	
4	0	0	0	0	512	613	
5	0	0	0	0	511	614	
6	0	0	0	0	510	613	
7	0	0	0	0	509	614	
8	0	0	0	0	509	614	
9	0	0	0	0	508	615	
10	0	0	0	0	508	615	
11	0	0	0	0	508	615	
12	0	0	0	0	509	615	
13	0	0	0	0	509	616	
14	0	0	0	0	508	617	
15	0	0	0	0	509	618	
0	0	0	0	0	508	617	
1	0	0	0	0	508	619	
2	0	0	0	0	507	619	
3	0	0	0	0	506	619	
4	0	0	0	0	505	620	
5	0	0	0	0	504	621	
6	0	0	0	0	504	622	
7	0	0	0	0	506	622	
8	0	0	0	0	506	622	
9	0	0	0	0	507	623	
10	0	0	0	0	507	623	
11	0	0	0	0	507	623	
12	0	0	0	0	508	624	
13	0	0	0	0	508	625	
14	0	0	0	0	507	625	
15	0	0	0	0	506	626	
0	0	0	0	0	507	626	
1	0	0	0	0	507	627	
2	0	0	0	0	507	627	
3	0	0	0	0	508	627	
4	0	0	0	0	509	629	
5	0	0	0	0	511	630	
6	0	0	0	0	511	630	
7	0	0	0	0	510	630	
8	0	0	0	0	508	631	
9	0	0	0	0	505	631	
10	0	0	0	0	505	631	
11	0	0	0	0	507	631	
12	0	0	0	0	506	631	
13	0	0	0	0	507	632	
14	0	0	0	0	508	631	
15	0	0	0	0	508	631	
0	0	0	0	0	508	631	
1	0	0	0	0	508	631	
2	0	0	0	0	507	630	
3	0	0	0	0	506	630	
4	0	0	0	0	505	629	
5	0	0	0	0	504	629	
6	0	0	0	0	504	628	
7	0	0	0	0	505	627	
8	0	0	0	0	507	627	
9	0	0	0	0	508	627	
10	0	0	0	0	508	626	
11	0	0	0	0	507	626	
12	0	0	0	0	506	625	
13	0	0	0	0	505	626	
14	0	0	0	0	506	625	
15	0	0	0	0	507	624	
0	0	0	0	0	507	624	
1	0	0	0	0	508	624	
2	0	0	0	0	509	623	
3	0	0	0	0	511	623	
4	0	0	0	0	511	622	
5	0	0	0	0	511	623	
6	0	0	0	0	511	623	
7	0	0	0	0	511	622	
8	0	0	0	0	510	622	
9	0	0	0	0	508	622	
10	0	0	0	0	509	621	
11	0	0	0	0	510	620	
12	0	0	0	0	510	620	
13	0	0	0	0	511	620	
14	0	0	0	0	512	620	
15	0	0	0	0	511	619	
0	0	0	0	0	511	619	
1	0	0	0	0	511	619	
2	0	0	0	0	510	618	
3	0	0	0	0	510	618	
4	0	0	0	0	509	618	
5	0	0	0	0	508	618	
6	0	0	0	0	508	617	
7	0	0	0	0	508	618	
8	0	0	0	0	508	617	
9	0	0	0	0	511	617	
10	0	0	0	0	513	617	
11	0	0	0	0	515	616	
12	0	0	0	0	515	616	
13	0	0	0	0	513	616	
14	0	0	0	0	513	616	
15	0	0	0	0	512	615	
0	0	0	0	0	512	616	
1	0	0	0	0	511	615	
2	0	0	0	0	510	615	
3	0	0	0	0	509	615	
4	0	0	0	0	508	615	
5	0	0	0	0	508	615	
6	0	0	0	0	508	615	
7	0	0	0	0	507	615	
8	0	0	0	0	508	615	
9	0	0	0	0	510	616	
10	0	0	0	0	511	615	
11	0	0	0	0	511	615	
12	0	0	0	0	511	616	
13	0	0	0	0	511	616	
14	0	0	0	0	511	617	
15	0	0	0	0	510	617	
0	0	0	0	0	509	618	
1	0	0	0	0	508	619	
2	0	0	0	0	507	619	
3	0	0	0	0	508	620	
4	0	0	0	0	508	620	
5	0	0	0	0	508	620	
6	0	0	0	0	507	620	
7	0	0	0	0	507	620	
8	0	0	0	0	507	620	
9	0	0	0	0	505	621	
10	0	0	0	0	506	621	
11	0	0	0	0	506	621	
12	0	0	0	0	507	622	
13	0	0	0	0	507	623	
14	0	0	0	0	507	623	
15	0	0	0	0	507	623	
0	0	0	0	0	507	623	
1	0	0	0	0	508	625	
2	0	0	0	0	508	624	
3	0	0	0	0	507	625	
4	0	0	0	0	508	625	
5	0	0	0	0	508	625	
6	0	0	0	0	508	625	
7	0	0	0	0	508	626	
8	0	0	0	0	508	626	
9	0	0	0	0	509	626	
10	0	0	0	0	509	626	
11	0	0	0	0	510	626	
12	0	0	0	0	510	626	
13	0	0	0	0	510	626	
14	0	0	0	0	510	627	
15	0	0	0	0	509	627	
0	0	0	0	0	508	627	
1	0	0	0	0	507	627	
2	0	0	0	0	507	627	
3	0	0	0	0	507	627	
4	0	0	0	0	505	627	
5	0	0	0	0	504	627	
6	0	0	0	0	503	627	
7	0	0	0	0	503	627	
8	0	0	0	0	503	627	
9	0	0	0	0	500	628	
10	0	0	0	0	496	627	
11	0	0	0	0	491	627	
12	0	0	0	0	487	626	
13	0	0	0	0	485	626	
14	0	0	0	0	482	626	
15	0	0	0	0	480	625	
0	0	0	0	0	480	625	
1	0	0	0	0	479	625	
2	0	0	0	0	481	624	
3	0	0	0	0	485	624	
4	0	0	0	0	489	624	
5	0	0	0	0	495	624	
6	0	0	0	0	502	623	
7	0	0	0	0	512	622	
8	0	0	0	0	527	623	
9	0	0	0	0	543	623	
10	0	0	0	0	560	622	
11	0	0	0	0	577	622	
12	0	0	0	0	596	622	
13	0	0	0	0	612	622	
14	0	0	0	0	628	621	
15	0	0	0	0	643	621	
0	0	0	0	0	656	621	
1	0	0	0	0	666	621	
2	0	0	0	0	673	620	
3	0	0	0	0	677	621	
4	0	0	0	0	678	620	
5	0	0	0	0	682	620	
6	0	0	0	0	683	620	
7	0	0	0	0	679	620	
8	0	0	0	0	672	619	
9	0	0	0	0	663	619	
10	0	0	0	0	654	618	
11	0	0	0	0	641	618	
12	0	0	0	0	629	618	
13	0	0	0	0	617	618	
14	0	0	0	0	607	618	
15	0	0	0	0	597	618	
0	0	0	0	0	587	618	
1	0	0	0	0	576	618	
2	0	0	0	0	566	617	
3	0	0	0	0	556	618	
4	0	0	0	0	546	618	
5	0	0	0	0	536	618	
6	0	0	0	0	526	618	
7	0	0	0	0	518	618	
8	0	0	0	0	511	619	
9	0	0	0	0	507	619	
10	0	0	0	0	502	619	
11	0	0	0	0	497	619	
12	0	0	0	0	492	619	
13	0	0	0	0	488	619	
14	0	0	0	0	484	620	
15	0	0	0	0	480	619	
0	0	0	0	0	478	619	
1	0	0	0	0	477	620	
2	0	0	0	0	477	620	
3	0	0	0	0	477	621	
4	0	0	0	0	477	620	
5	0	0	0	0	479	621	
6	0	0	0	0	479	622	
7	0	0	0	0	479	622	
8	0	0	0	0	477	622	
9	0	0	0	0	476	623	
10	0	0	0	0	476	623	
11	0	0	0	0	475	623	
12	0	0	0	0	476	624	
13	0	0	0	0	477	624	
14	0	0	0	0	477	624	
15	0	0	0	0	477	625	
0	0	0	0	0	475	625	
1	0	0	0	0	474	625	
2	0	0	0	0	475	626	
3	0	0	0	0	476	626	
4	0	0	0	0	477	626	
5	0	0	0	0	476	626	
6	0	0	0	0	475	627	
7	0	0	0	0	476	627	
8	0	0	0	0	477	627	
9	0	0	0	0	479	628	
10	0	0	0	0	479	627	
11	0	0	0	0	480	628	
12	0	0	0	0	481	628	
13	0	0	0	0	481	628	
14	0	0	0	0	479	628	
15	0	0	0	0	478	628	
0	0	0	0	0	479	628	
1	0	0	0	0	480	628	
2	0	0	0	0	481	628	
3	0	0	0	0	481	628	
4	0	0	0	0	483	628	
5	0	0	0	0	483	628	
6	0	0	0	0	483	628	
7	0	0	0	0	481	627	
8	0	0	0	0	481	628	
9	0	0	0	0	481	628	
10	0	0	0	0	480	627	
11	0	0	0	0	480	627	
12	0	0	0	0	481	626	
13	0	0	0	0	482	626	
14	0	0	0	0	483	626	
15	0	0	0	0	483	625	
0	0	0	0	0	483	626	
1	0	0	0	0	484	626	
2	0	0	0	0	484	625	
3	0	0	0	0	484	625	
4	0	0	0	0	483	625	
5	0	0	0	0	484	625	
6	0	0	0	0	483	624	
7	0	0	0	0	483	624	
8	0	0	0	0	483	624	
9	0	0	0	0	483	624	
10	0	0	0	0	483	623	
11	0	0	0	0	484	623	
12	0	0	0	0	484	623	
13	0	0	0	0	484	623	
14	0	0	0	0	485	622	
15	0	0	0	0	484	621	
0	0	0	0	0	484	621	
1	0	0	0	0	486	621	
2	0	0	0	0	487	620	
3	0	0	0	0	488	621	
4	0	0	0	0	489	620	
5	0	0	0	0	491	621	
6	0	0	0	0	492	620	
7	0	0	0	0	493	620	
8	0	0	0	0	493	620	
9	0	0	0	0	493	620	
10	0	0	0	0	492	620	
11	0	0	0	0	491	620	
12	0	0	0	0	491	620	
13	0	0	0	0	489	620	
14	0	0	0	0	487	620	
15	0	0	0	0	487	619	
0	0	0	0	0	487	620	
1	0	0	0	0	487	620	
2	0	0	0	0	490	620	
3	0	0	0	0	492	620	
4	0	0	0	0	491	620	
5	0	0	0	0	490	621	
6	0	0	0	0	490	621	
7	0	0	0	0	490	621	
8	0	0	0	0	490	620	
9	0	0	0	0	490	622	
10	0	0	0	0	490	622	
11	0	0	0	0	492	622	
12	0	0	0	0	491	622	
13	0	0	0	0	490	623	
14	0	0	0	0	491	624	
15	0	0	0	0	493	624	
0	0	0	0	0	493	624	
1	0	0	0	0	493	625	
2	0	0	0	0	493	626	
3	0	0	0	0	493	626	
4	0	0	0	0	493	627	
5	0	0	0	0	492	627	
6	0	0	0	0	491	628	
7	0	0	0	0	490	627	
8	0	0	0	0	491	627	
9	0	0	0	0	491	628	
10	0	0	0	0	491	627	
11	0	0	0	0	491	628	
12	0	0	0	0	491	628	
13	0	0	0	0	494	628	
14	0	0	0	0	495	628	
15	0	0	0	0	495	628	
0	0	0	0	0	496	629	
1	0	0	0	0	496	629	
2	0	0	0	0	496	629	
3	0	0	0	0	496	629	
4	0	0	0	0	496	629	
5	0	0	0	0	496	630	
6	0	0	0	0	496	629	
7	0	0	0	0	496	630	
8	0	0	0	0	496	629	
9	0	0	0	0	495	630	
10	0	0	0	0	495	629	
11	0	0	0	0	495	629	
12	0	0	0	0	494	629	
13	0	0	0	0	494	629	
14	0	0	0	0	493	629	
15	0	0	0	0	493	629	
0	0	0	0	0	493	628	
1	0	0	0	0	495	628	
2	0	0	0	0	495	628	
3	0	0	0	0	495	627	
4	0	0	0	0	496	627	
5	0	0	0	0	496	627	
6	0	0	0	0	496	626	
7	0	0	0	0	497	626	
8	0	0	0	0	496	626	
9	0	0	0	0	496	626	
10	0	0	0	0	496	625	
11	0	0	0	0	495	625	
12	0	0	0	0	496	625	
13	0	0	0	0	496	625	
14	0	0	0	0	496	625	
15	0	0	0	0	496	624	
0	0	0	0	0	495	624	
1	0	0	0	0	495	624	
2	0	0	0	0	496	623	
3	0	0	0	0	495	623	
4	0	0	0	0	495	623	
5	0	0	0	0	495	622	
6	0	0	0	0	496	622	
7	0	0	0	0	497	622	
8	0	0	0	0	498	620	
9	0	0	0	0	499	621	
10	0	0	0	0	499	620	
11	0	0	0	0	500	620	
12	0	0	0	0	501	619	
13	0	0	0	0	501	620	
14	0	0	0	0	498	619	
15	0	0	0	0	496	619	
0	0	0	0	0	496	618	
1	0	0	0	0	495	619	
2	0	0	0	0	494	618	
3	0	0	0	0	494	619	
4	0	0	0	0	494	618	
5	0	0	0	0	493	618	
6	0	0	0	0	494	617	
7	0	0	0	0	496	618	
8	0	0	0	0	499	618	
9	0	0	0	0	500	618	
10	0	0	0	0	500	617	
11	0	0	0	0	501	618	
12	0	0	0	0	503	618	
13	0	0	0	0	504	618	
14	0	0	0	0	505	619	
15	0	0	0	0	505	619	
0	0	0	0	0	504	620	
1	0	0	0	0	503	620	
2	0	0	0	0	503	620	
3	0	0	0	0	504	621	
4	0	0	0	0	504	622	
5	0	0	0	0	505	622	
6	0	0	0	0	507	622	
7	0	0	0	0	508	622	
8	0	0	0	0	508	623	
9	0	0	0	0	508	623	
10	0	0	0	0	509	623	
11	0	0	0	0	510	623	
12	0	0	0	0	510	624	
13	0	0	0	0	511	624	
14	0	0	0	0	511	624	
15	0	0	0	0	512	624	
0	0	0	0	0	512	624	
1	0	0	0	0	513	624	
2	0	0	0	0	513	624	
3	0	0	0	0	512	624	
4	0	0	0	0	511	624	
5	0	0	0	0	511	624	
6	0	0	0	0	511	624	
7	0	0	0	0	511	625	
8	0	0	0	0	511	625	
9	0	0	0	0	511	624	
10	0	0	0	0	512	625	
11	0	0	0	0	512	625	
12	0	0	0	0	511	625	
13	0	0	0	0	511	625	
14	0	0	0	0	511	624	
15	0	0	0	0	512	624	
0	0	0	0	0	512	624	
1	0	0	0	0	510	625	
2	0	0	0	0	510	624	
3	0	0	0	0	510	625	
4	0	0	0	0	511	625	
5	0	0	0	0	510	625	
6	0	0	0	0	511	625	
7	0	0	0	0	509	625	
8	0	0	0	0	509	624	
9	0	0	0	0	509	625	
10	0	0	0	0	510	625	
11	0	0	0	0	510	624	
12	0	0	0	0	511	625	
13	0	0	0	0	511	624	
14	0	0	0	0	511	624	
15	0	0	0	0	512	624	
0	0	0	0	0	514	624	
1	0	0	0	0	513	624	
2	0	0	0	0	512	624	
3	0	0	0	0	511	624	
4	0	0	0	0	510	624	
5	0	0	0	0	508	624	
6	0	0	0	0	507	623	
7	0	0	0	0	507	622	
8	0	0	0	0	507	622	
9	0	0	0	0	508	623	
10	0	0	0	0	508	622	
11	0	0	0	0	509	622	
12	0	0	0	0	508	622	
13	0	0	0	0	505	622	
14	0	0	0	0	504	622	
15	0	0	0	0	503	622	
0	0	0	0	0	501	622	
1	0	0	0	0	501	622	
2	0	0	0	0	501	622	
3	0	0	0	0	501	623	
4	0	0	0	0	500	621	
5	0	0	0	0	498	623	
6	0	0	0	0	497	622	
7	0	0	0	0	496	622	
8	0	0	0	0	495	622	
9	0	0	0	0	494	623	
10	0	0	0	0	493	623	
11	0	0	0	0	492	623	
12	0	0	0	0	491	624	
13	0	0	0	0	491	624	
14	0	0	0	0	490	625	
15	0	0	0	0	490	625	
0	0	0	0	0	489	625	
1	0	0	0	0	489	625	
2	0	0	0	0	489	625	
3	0	0	0	0	488	626	
4	0	0	0	0	488	627	
5	0	0	0	0	487	627	
6	0	0	0	0	488	627	
7	0	0	0	0	491	627	
8	0	0	0	0	492	627	
9	0	0	0	0	493	629	
10	0	0	0	0	494	627	
11	0	0	0	0	495	628	
12	0	0	0	0	496	628	
13	0	0	0	0	496	628	
14	0	0	0	0	495	628	
15	0	0	0	0	496	628	
0	0	0	0	0	496	628	
1	0	0	0	0	495	628	
2	0	0	0	0	495	628	
3	0	0	0	0	496	628	
4	0	0	0	0	496	628	
5	0	0	0	0	495	628	
6	0	0	0	0	495	628	
7	0	0	0	0	494	628	
8	0	0	0	0	495	628	
9	0	0	0	0	495	629	
10	0	0	0	0	496	628	
11	0	0	0	0	497	628	
12	0	0	0	0	498	628	
13	0	0	0	0	500	628	
14	0	0	0	0	499	627	
15	0	0	0	0	499	626	
0	0	0	0	0	497	627	
1	0	0	0	0	496	627	
2	0	0	0	0	495	627	
3	0	0	0	0	496	627	
4	0	0	0	0	496	627	
5	0	0	0	0	496	627	
6	0	0	0	0	497	627	
7	0	0	0	0	497	627	
8	0	0	0	0	497	625	
9	0	0	0	0	496	626	
10	0	0	0	0	497	625	
11	0	0	0	0	499	625	
12	0	0	0	0	498	625	
13	0	0	0	0	497	625	
14	0	0	0	0	496	624	
15	0	0	0	0	496	624	
0	0	0	0	0	497	624	
1	0	0	0	0	498	623	
2	0	0	0	0	498	622	
3	0	0	0	0	496	623	
4	0	0	0	0	496	623	
5	0	0	0	0	495	623	
6	0	0	0	0	495	622	
7	0	0	0	0	495	623	
8	0	0	0	0	495	623	
9	0	0	0	0	496	622	
10	0	0	0	0	496	622	
11	0	0	0	0	496	621	
12	0	0	0	0	496	621	
13	0	0	0	0	496	621	
14	0	0	0	0	496	621	
15	0	0	0	0	496	620	
0	0	0	0	0	497	620	
1	0	0	0	0	497	621	
2	0	0	0	0	497	620	
3	0	0	0	0	497	620	
4	0	0	0	0	497	620	
5	0	0	0	0	497	621	
6	0	0	0	0	497	621	
7	0	0	0	0	498	621	
8	0	0	0	0	499	621	
9	0	0	0	0	499	621	
10	0	0	0	0	500	621	
11	0	0	0	0	500	621	
12	0	0	0	0	500	621	
13	0	0	0	0	499	621	
14	0	0	0	0	499	622	
15	0	0	0	0	499	621	
0	0	0	0	0	499	622	
1	0	0	0	0	498	622	
2	0	0	0	0	498	622	
3	0	0	0	0	497	622	
4	0	0	0	0	496	622	
5	0	0	0	0	496	622	
6	0	0	0	0	497	622	
7	0	0	0	0	499	622	
8	0	0	0	0	502	623	
9	0	0	0	0	504	623	
10	0	0	0	0	504	622	
11	0	0	0	0	502	623	
12	0	0	0	0	499	623	
13	0	0	0	0	499	623	
14	0	0	0	0	498	623	
15	0	0	0	0	498	623	
0	0	0	0	0	496	624	
1	0	0	0	0	495	625	
2	0	0	0	0	496	624	
3	0	0	0	0	496	625	
4	0	0	0	0	497	625	
5	0	0	0	0	497	626	
6	0	0	0	0	497	625	
7	0	0	0	0	497	626	
8	0	0	0	0	498	626	
9	0	0	0	0	499	627	
10	0	0	0	0	499	626	
11	0	0	0	0	500	626	
12	0	0	0	0	502	626	
13	0	0	0	0	504	626	
14	0	0	0	0	504	626	
15	0	0	0	0	504	625	
0	0	0	0	0	505	624	
1	0	0	0	0	507	625	
2	0	0	0	0	508	625	
3	0	0	0	0	507	624	
4	0	0	0	0	507	623	
5	0	0	0	0	507	623	
6	0	0	0	0	507	622	
7	0	0	0	0	507	623	
8	0	0	0	0	508	622	
9	0	0	0	0	508	622	
10	0	0	0	0	508	621	
11	0	0	0	0	507	621	
12	0	0	0	0	507	621	
13	0	0	0	0	508	621	
14	0	0	0	0	507	621	
15	0	0	0	0	506	621	
0	0	0	0	0	506	621	
1	0	0	0	0	506	621	
2	0	0	0	0	505	621	
3	0	0	0	0	505	620	
4	0	0	0	0	505	620	
5	0	0	0	0	505	620	
6	0	0	0	0	505	620	
7	0	0	0	0	508	620	
8	0	0	0	0	508	621	
9	0	0	0	0	508	621	
10	0	0	0	0	507	621	
11	0	0	0	0	506	621	
12	0	0	0	0	506	621	
13	0	0	0	0	505	621	
14	0	0	0	0	505	621	
15	0	0	0	0	505	622	
0	0	0	0	0	505	622	
1	0	0	0	0	507	622	
2	0	0	0	0	508	623	
3	0	0	0	0	508	622	
4	0	0	0	0	509	623	
5	0	0	0	0	509	624	
6	0	0	0	0	509	624	
7	0	0	0	0	508	624	
8	0	0	0	0	508	624	
9	0	0	0	0	508	625	
10	0	0	0	0	508	624	
11	0	0	0	0	509	625	
12	0	0	0	0	509	625	
13	0	0	0	0	509	625	
14	0	0	0	0	508	625	
15	0	0	0	0	509	625	
0	0	0	0	0	509	625	
1	0	0	0	0	508	627	
2	0	0	0	0	508	625	
3	0	0	0	0	508	625	
4	0	0	0	0	508	626	
5	0	0	0	0	508	625	
6	0	0	0	0	508	625	
7	0	0	0	0	508	625	
8	0	0	0	0	508	624	
9	0	0	0	0	508	625	
10	0	0	0	0	508	624	
11	0	0	0	0	508	624	
12	0	0	0	0	508	623	
13	0	0	0	0	508	624	
14	0	0	0	0	509	623	
15	0	0	0	0	509	622	
0	0	0	0	0	509	622	
1	0	0	0	0	511	622	
2	0	0	0	0	511	622	
3	0	0	0	0	509	622	
4	0	0	0	0	508	622	
5	0	0	0	0	508	622	
6	0	0	0	0	509	621	
7	0	0	0	0	509	620	
8	0	0	0	0	506	620	
9	0	0	0	0	504	621	
10	0	0	0	0	503	621	
11	0	0	0	0	504	621	
12	0	0	0	0	505	621	
13	0	0	0	0	507	622	
14	0	0	0	0	510	621	
15	0	0	0	0	512	621	
0	0	0	0	0	513	621	
1	0	0	0	0	513	622	
2	0	0	0	0	513	621	
3	0	0	0	0	512	622	
4	0	0	0	0	512	622	
5	0	0	0	0	511	621	
6	0	0	0	0	510	621	
7	0	0	0	0	509	621	
8	0	0	0	0	509	621	
9	0	0	0	0	509	621	
10	0	0	0	0	510	621	
11	0	0	0	0	508	621	
12	0	0	0	0	508	621	
13	0	0	0	0	508	622	
14	0	0	0	0	508	621	
15	0	0	0	0	508	622	
0	0	0	0	0	509	622	
1	0	0	0	0	510	624	
2	0	0	0	0	509	623	
3	0	0	0	0	509	624	
4	0	0	0	0	510	624	
5	0	0	0	0	510	624	
6	0	0	0	0	510	624	
7	0	0	0	0	510	624	
8	0	0	0	0	511	625	
9	0	0	0	0	510	625	
10	0	0	0	0	510	625	
11	0	0	0	0	511	624	
12	0	0	0	0	511	625	
13	0	0	0	0	511	626	
14	0	0	0	0	511	626	
15	0	0	0	0	511	626	
0	0	0	0	0	511	626	
1	0	0	0	0	510	627	
2	0	0	0	0	510	626	
3	0	0	0	0	508	627	
4	0	0	0	0	508	627	
5	0	0	0	0	509	627	
6	0	0	0	0	509	627	
7	0	0	0	0	510	626	
8	0	0	0	0	510	627	
9	0	0	0	0	511	627	
10	0	0	0	0	512	626	
11	0	0	0	0	512	625	
12	0	0	0	0	512	625	
13	0	0	0	0	512	625	
14	0	0	0	0	512	625	
15	0	0	0	0	511	626	
0	0	0	0	0	511	625	
1	0	0	0	0	510	625	
2	0	0	0	0	510	625	
3	0	0	0	0	508	625	
4	0	0	0	0	507	625	
5	0	0	0	0	505	625	
6	0	0	0	0	505	625	
7	0	0	0	0	504	625	
8	0	0	0	0	505	625	
9	0	0	0	0	506	625	
10	0	0	0	0	508	625	
11	0	0	0	0	510	624	
12	0	0	0	0	512	624	
13	0	0	0	0	515	624	
14	0	0	0	0	516	624	
15	0	0	0	0	516	623	
0	0	0	0	0	515	623	
1	0	0	0	0	515	624	
2	0	0	0	0	515	624	
3	0	0	0	0	514	624	
4	0	0	0	0	513	624	
5	0	0	0	0	512	624	
6	0	0	0	0	512	624	
7	0	0	0	0	511	624	
8	0	0	0	0	511	624	
9	0	0	0	0	511	624	
10	0	0	0	0	511	623	
11	0	0	0	0	512	623	
12	0	0	0	0	511	623	
13	0	0	0	0	511	623	
14	0	0	0	0	511	623	
15	0	0	0	0	511	623	
0	0	0	0	0	511	623	
1	0	0	0	0	510	623	
2	0	0	0	0	510	623	
3	0	0	0	0	509	624	
4	0	0	0	0	510	623	
5	0	0	0	0	508	623	
6	0	0	0	0	507	623	
7	0	0	0	0	506	624	
8	0	0	0	0	506	624	
9	0	0	0	0	506	624	
10	0	0	0	0	507	624	
11	0	0	0	0	507	624	
12	0	0	0	0	506	624	
13	0	0	0	0	507	624	
14	0	0	0	0	506	624	
15	0	0	0	0	506	624	
0	0	0	0	0	509	624	
1	0	0	0	0	511	625	
2	0	0	0	0	514	624	
3	0	0	0	0	516	624	
4	0	0	0	0	517	624	
5	0	0	0	0	517	624	
6	0	0	0	0	517	624	
7	0	0	0	0	515	624	
8	0	0	0	0	513	624	
9	0	0	0	0	512	625	
10	0	0	0	0	512	625	
11	0	0	0	0	514	624	
12	0	0	0	0	515	625	
13	0	0	0	0	514	625	
14	0	0	0	0	513	624	
15	0	0	0	0	513	625	
0	0	0	0	0	513	624	
1	0	0	0	0	513	625	
2	0	0	0	0	513	624	
3	0	0	0	0	514	624	
4	0	0	0	0	514	624	
5	0	0	0	0	515	624	
6	0	0	0	0	515	624	
7	0	0	0	0	515	624	
8	0	0	0	0	515	624	
9	0	0	0	0	515	624	
10	0	0	0	0	515	624	
11	0	0	0	0	513	624	
12	0	0	0	0	511	623	
13	0	0	0	0	509	624	
14	0	0	0	0	508	623	
15	0	0	0	0	508	623	
0	0	0	0	0	510	623	
1	0	0	0	0	512	623	
2	0	0	0	0	514	623	
3	0	0	0	0	515	623	
4	0	0	0	0	516	622	
5	0	0	0	0	516	623	
6	0	0	0	0	517	623	
7	0	0	0	0	516	622	
8	0	0	0	0	516	622	
9	0	0	0	0	516	624	
10	0	0	0	0	516	623	
11	0	0	0	0	516	622	
12	0	0	0	0	517	622	
13	0	0	0	0	516	622	
14	0	0	0	0	515	621	
15	0	0	0	0	515	621	
0	0	0	0	0	515	622	
1	0	0	0	0	514	622	
2	0	0	0	0	513	622	
3	0	0	0	0	513	622	
4	0	0	0	0	514	623	
5	0	0	0	0	514	622	
6	0	0	0	0	514	622	
7	0	0	0	0	514	622	
8	0	0	0	0	514	622	
9	0	0	0	0	514	623	
10	0	0	0	0	513	623	
11	0	0	0	0	513	623	
12	0	0	0	0	512	623	
13	0	0	0	0	512	623	
14	0	0	0	0	513	622	
15	0	0	0	0	512	623	
0	0	0	0	0	512	623	
1	0	0	0	0	512	623	
2	0	0	0	0	512	622	
3	0	0	0	0	512	622	
4	0	0	0	0	513	621	
5	0	0	0	0	513	621	
6	0	0	0	0	514	621	
7	0	0	0	0	514	621	
8	0	0	0	0	514	621	
9	0	0	0	0	514	621	
10	0	0	0	0	513	620	
11	0	0	0	0	512	621	
12	0	0	0	0	511	620	
13	0	0	0	0	511	620	
14	0	0	0	0	512	620	
15	0	0	0	0	513	619	
0	0	0	0	0	514	620	
1	0	0	0	0	515	620	
2	0	0	0	0	515	620	
3	0	0	0	0	513	621	
4	0	0	0	0	510	620	
5	0	0	0	0	507	621	
6	0	0	0	0	506	621	
7	0	0	0	0	507	622	
8	0	0	0	0	508	622	
9	0	0	0	0	511	622	
10	0	0	0	0	514	622	
11	0	0	0	0	517	623	
12	0	0	0	0	519	622	
13	0	0	0	0	519	623	
14	0	0	0	0	516	623	
15	0	0	0	0	513	623	
0	0	0	0	0	511	623	
1	0	0	0	0	511	623	
2	0	0	0	0	511	623	
3	0	0	0	0	512	623	
4	0	0	0	0	513	623	
5	0	0	0	0	514	624	
6	0	0	0	0	514	624	
7	0	0	0	0	514	624	
8	0	0	0	0	514	624	
9	0	0	0	0	515	625	
10	0	0	0	0	515	625	
11	0	0	0	0	515	625	
12	0	0	0	0	515	625	
13	0	0	0	0	515	625	
14	0	0	0	0	515	625	
15	0	0	0	0	515	625	
0	0	0	0	0	513	625	
1	0	0	0	0	514	626	
2	0	0	0	0	513	625	
3	0	0	0	0	513	625	
4	0	0	0	0	513	625	
5	0	0	0	0	513	624	
6	0	0	0	0	513	624	
7	0	0	0	0	513	625	
8	0	0	0	0	512	625	
9	0	0	0	0	511	624	
10	0	0	0	0	509	625	
11	0	0	0	0	509	624	
12	0	0	0	0	509	624	
13	0	0	0	0	510	624	
14	0	0	0	0	511	624	
15	0	0	0	0	511	625	
0	0	0	0	0	511	625	
1	0	0	0	0	512	626	
2	0	0	0	0	513	626	
3	0	0	0	0	513	626	
4	0	0	0	0	513	627	
5	0	0	0	0	512	627	
6	0	0	0	0	512	627	
7	0	0	0	0	512	627	
8	0	0	0	0	512	626	
9	0	0	0	0	512	627	
10	0	0	0	0	511	627	
11	0	0	0	0	511	626	
12	0	0	0	0	512	627	
13	0	0	0	0	513	626	
14	0	0	0	0	514	625	
15	0	0	0	0	514	626	
0	0	0	0	0	515	625	
1	0	0	0	0	514	626	
2	0	0	0	0	513	625	
3	0	0	0	0	512	625	
4	0	0	0	0	512	624	
5	0	0	0	0	513	625	
6	0	0	0	0	513	625	
7	0	0	0	0	512	624	
8	0	0	0	0	512	623	
9	0	0	0	0	512	624	
10	0	0	0	0	511	624	
11	0	0	0	0	510	624	
12	0	0	0	0	509	623	
13	0	0	0	0	509	623	
14	0	0	0	0	509	622	
15	0	0	0	0	510	622	
0	0	0	0	0	511	622	
1	0	0	0	0	510	623	
2	0	0	0	0	509	622	
3	0	0	0	0	510	623	
4	0	0	0	0	510	623	
5	0	0	0	0	509	623	
6	0	0	0	0	508	622	
7	0	0	0	0	509	622	
8	0	0	0	0	509	622	
9	0	0	0	0	509	623	
10	0	0	0	0	510	622	
11	0	0	0	0	510	622	
12	0	0	0	0	511	622	
13	0	0	0	0	511	622	
14	0	0	0	0	512	623	
15	0	0	0	0	512	622	
0	0	0	0	0	511	622	
1	0	0	0	0	511	622	
2	0	0	0	0	511	623	
3	0	0	0	0	511	622	
4	0	0	0	0	512	622	
5	0	0	0	0	512	623	
6	0	0	0	0	511	623	
7	0	0	0	0	512	623	
8	0	0	0	0	512	622	
9	0	0	0	0	514	623	
10	0	0	0	0	516	622	
11	0	0	0	0	516	622	
12	0	0	0	0	516	623	
13	0	0	0	0	515	623	
14	0	0	0	0	514	623	
15	0	0	0	0	512	622	
0	0	0	0	0	511	622	
1	0	0	0	0	511	622	
2	0	0	0	0	511	621	
3	0	0	0	0	511	621	
4	0	0	0	0	512	621	
5	0	0	0	0	513	621	
6	0	0	0	0	513	622	
7	0	0	0	0	513	622	
8	0	0	0	0	513	622	
9	0	0	0	0	512	623	
10	0	0	0	0	511	622	
11	0	0	0	0	511	623	
12	0	0	0	0	510	623	
13	0	0	0	0	510	624	
14	0	0	0	0	509	623	
15	0	0	0	0	508	624	
0	0	0	0	0	506	624	
1	0	0	0	0	506	624	
2	0	0	0	0	506	624	
3	0	0	0	0	505	624	
4	0	0	0	0	506	624	
5	0	0	0	0	508	623	
6	0	0	0	0	511	624	
7	0	0	0	0	513	624	
8	0	0	0	0	513	624	
9	0	0	0	0	512	624	
10	0	0	0	0	512	623	
11	0	0	0	0	514	623	
12	0	0	0	0	515	623	
13	0	0	0	0	515	624	
14	0	0	0	0	514	624	
15	0	0	0	0	513	623	
0	0	0	0	0	513	623	
1	0	0	0	0	513	624	
2	0	0	0	0	514	623	
3	0	0	0	0	515	622	
4	0	0	0	0	515	623	
5	0	0	0	0	515	623	
6	0	0	0	0	514	623	
7	0	0	0	0	512	622	
8	0	0	0	0	510	622	
9	0	0	0	0	507	622	
10	0	0	0	0	505	622	
11	0	0	0	0	503	622	
12	0	0	0	0	500	622	
13	0	0	0	0	498	622	
14	0	0	0	0	496	622	
15	0	0	0	0	492	622	
0	0	0	0	0	488	622	
1	0	0	0	0	487	623	
2	0	0	0	0	488	624	
3	0	0	0	0	492	623	
4	0	0	0	0	495	623	
5	0	0	0	0	500	623	
6	0	0	0	0	509	624	
7	0	0	0	0	518	624	
8	0	0	0	0	531	624	
9	0	0	0	0	545	625	
10	0	0	0	0	562	624	
11	0	0	0	0	579	625	
12	0	0	0	0	598	624	
13	0	0	0	0	615	626	
14	0	0	0	0	632	625	
15	0	0	0	0	647	625	
0	0	0	0	0	660	625	
1	0	0	0	0	669	625	
2	0	0	0	0	675	625	
3	0	0	0	0	678	625	
4	0	0	0	0	679	625	
5	0	0	0	0	679	624	
6	0	0	0	0	677	624	
7	0	0	0	0	672	624	
8	0	0	0	0	664	624	
9	0	0	0	0	656	624	
10	0	0	0	0	646	624	
11	0	0	0	0	634	624	
12	0	0	0	0	621	624	
13	0	0	0	0	607	624	
14	0	0	0	0	595	623	
15	0	0	0	0	585	623	
0	0	0	0	0	577	623	
1	0	0	0	0	570	624	
2	0	0	0	0	561	623	
3	0	0	0	0	553	624	
4	0	0	0	0	545	624	
5	0	0	0	0	537	624	
6	0	0	0	0	529	624	
7	0	0	0	0	523	624	
8	0	0	0	0	518	624	
9	0	0	0	0	513	624	
10	0	0	0	0	508	623	
11	0	0	0	0	504	624	
12	0	0	0	0	500	623	
13	0	0	0	0	498	623	
14	0	0	0	0	496	623	
15	0	0	0	0	494	623	
0	0	0	0	0	494	623	
1	0	0	0	0	492	623	
2	0	0	0	0	491	623	
3	0	0	0	0	489	623	
4	0	0	0	0	487	623	
5	0	0	0	0	486	623	
6	0	0	0	0	484	622	
7	0	0	0	0	484	623	
8	0	0	0	0	483	622	
9	0	0	0	0	483	623	
10	0	0	0	0	483	621	
11	0	0	0	0	483	621	
12	0	0	0	0	484	622	
13	0	0	0	0	485	622	
14	0	0	0	0	486	622	
15	0	0	0	0	487	622	
0	0	0	0	0	486	622	
1	0	0	0	0	484	622	
2	0	0	0	0	483	622	
3	0	0	0	0	481	621	
4	0	0	0	0	481	621	
5	0	0	0	0	482	621	
6	0	0	0	0	486	622	
7	0	0	0	0	488	621	
8	0	0	0	0	489	622	
9	0	0	0	0	487	622	
10	0	0	0	0	486	622	
11	0	0	0	0	486	621	
12	0	0	0	0	485	621	
13	0	0	0	0	484	622	
14	0	0	0	0	485	622	
15	0	0	0	0	486	622	
0	0	0	0	0	487	622	
1	0	0	0	0	489	622	
2	0	0	0	0	491	623	
3	0	0	0	0	492	622	
4	0	0	0	0	491	623	
5	0	0	0	0	489	623	
6	0	0	0	0	489	623	
7	0	0	0	0	487	622	
8	0	0	0	0	487	622	
9	0	0	0	0	488	623	
10	0	0	0	0	489	623	
11	0	0	0	0	490	622	
12	0	0	0	0	491	622	
13	0	0	0	0	491	623	
14	0	0	0	0	491	622	
15	0	0	0	0	491	623	
0	0	0	0	0	491	623	
1	0	0	0	0	491	623	
2	0	0	0	0	491	623	
3	0	0	0	0	491	622	
4	0	0	0	0	491	623	
5	0	0	0	0	493	623	
6	0	0	0	0	493	623	
7	0	0	0	0	491	623	
8	0	0	0	0	490	623	
9	0	0	0	0	489	623	
10	0	0	0	0	490	623	
11	0	0	0	0	491	623	
12	0	0	0	0	492	623	
13	0	0	0	0	493	623	
14	0	0	0	0	494	622	
15	0	0	0	0	494	623	
0	0	0	0	0	494	622	
1	0	0	0	0	494	623	
2	0	0	0	0	495	622	
3	0	0	0	0	496	622	
4	0	0	0	0	497	622	
5	0	0	0	0	498	623	
6	0	0	0	0	498	623	
7	0	0	0	0	497	623	
8	0	0	0	0	497	623	
9	0	0	0	0	497	623	
10	0	0	0	0	496	622	
11	0	0	0	0	496	623	
12	0	0	0	0	496	622	
13	0	0	0	0	496	623	
14	0	0	0	0	496	623	
15	0	0	0	0	496	623	
0	0	0	0	0	495	624	
1	0	0	0	0	496	624	
2	0	0	0	0	497	624	
3	0	0	0	0	497	625	
4	0	0	0	0	497	625	
5	0	0	0	0	497	626	
6	0	0	0	0	496	626	
7	0	0	0	0	496	626	
8	0	0	0	0	496	626	
9	0	0	0	0	496	627	
10	0	0	0	0	496	627	
11	0	0	0	0	496	627	
12	0	0	0	0	496	626	
13	0	0	0	0	496	627	
14	0	0	0	0	496	627	
15	0	0	0	0	496	627	
0	0	0	0	0	496	626	
1	0	0	0	0	496	626	
2	0	0	0	0	497	626	
3	0	0	0	0	498	625	
4	0	0	0	0	499	625	
5	0	0	0	0	499	625	
6	0	0	0	0	499	626	
7	0	0	0	0	498	626	
8	0	0	0	0	497	625	
9	0	0	0	0	496	625	
10	0	0	0	0	496	625	
11	0	0	0	0	497	625	
12	0	0	0	0	497	625	
13	0	0	0	0	497	625	
14	0	0	0	0	499	624	
15	0	0	0	0	499	625	
0	0	0	0	0	499	624	
1	0	0	0	0	501	624	
2	0	0	0	0	502	624	
3	0	0	0	0	500	624	
4	0	0	0	0	499	624	
5	0	0	0	0	498	624	
6	0	0	0	0	498	624	
7	0	0	0	0	498	624	
8	0	0	0	0	498	623	
9	0	0	0	0	499	624	
10	0	0	0	0	499	624	
11	0	0	0	0	498	624	
12	0	0	0	0	497	624	
13	0	0	0	0	496	624	
14	0	0	0	0	496	624	
15	0	0	0	0	497	624	
0	0	0	0	0	499	624	
1	0	0	0	0	500	624	
2	0	0	0	0	500	623	
3	0	0	0	0	499	624	
4	0	0	0	0	499	624	
5	0	0	0	0	499	624	
6	0	0	0	0	500	623	
7	0	0	0	0	500	623	
8	0	0	0	0	500	623	
9	0	0	0	0	500	623	
10	0	0	0	0	500	623	
11	0	0	0	0	502	623	
12	0	0	0	0	501	622	
13	0	0	0	0	501	622	
14	0	0	0	0	502	622	
15	0	0	0	0	502	622	
0	0	0	0	0	502	622	
1	0	0	0	0	501	622	
2	0	0	0	0	501	621	
3	0	0	0	0	502	621	
4	0	0	0	0	502	621	
5	0	0	0	0	502	621	
6	0	0	0	0	501	621	
7	0	0	0	0	501	621	
8	0	0	0	0	502	621	
9	0	0	0	0	502	622	
10	0	0	0	0	503	622	
11	0	0	0	0	504	622	
12	0	0	0	0	505	622	
13	0	0	0	0	506	622	
14	0	0	0	0	505	622	
15	0	0	0	0	505	622	
0	0	0	0	0	505	623	
1	0	0	0	0	506	623	
2	0	0	0	0	506	623	
3	0	0	0	0	504	623	
4	0	0	0	0	503	623	
5	0	0	0	0	503	623	
6	0	0	0	0	502	623	
7	0	0	0	0	502	624	
8	0	0	0	0	504	622	
9	0	0	0	0	506	624	
10	0	0	0	0	507	623	
11	0	0	0	0	508	623	
12	0	0	0	0	508	623	
13	0	0	0	0	508	623	
14	0	0	0	0	508	623	
15	0	0	0	0	508	623	
0	0	0	0	0	508	624	
1	0	0	0	0	509	624	
2	0	0	0	0	509	624	
3	0	0	0	0	509	624	
4	0	0	0	0	510	625	
5	0	0	0	0	510	625	
6	0	0	0	0	509	624	
7	0	0	0	0	509	625	
8	0	0	0	0	509	626	
9	0	0	0	0	508	626	
10	0	0	0	0	507	627	
11	0	0	0	0	507	626	
12	0	0	0	0	508	626	
13	0	0	0	0	508	626	
14	0	0	0	0	508	627	
15	0	0	0	0	507	627	
0	0	0	0	0	508	627	
1	0	0	0	0	507	628	
2	0	0	0	0	508	628	
3	0	0	0	0	508	628	
4	0	0	0	0	510	628	
5	0	0	0	0	512	628	
6	0	0	0	0	513	627	
7	0	0	0	0	514	627	
8	0	0	0	0	515	628	
9	0	0	0	0	514	628	
10	0	0	0	0	513	627	
11	0	0	0	0	513	627	
12	0	0	0	0	514	627	
13	0	0	0	0	513	627	
14	0	0	0	0	512	627	
15	0	0	0	0	511	627	
0	0	0	0	0	512	626	
1	0	0	0	0	511	626	
2	0	0	0	0	511	626	
3	0	0	0	0	513	626	
4	0	0	0	0	515	625	
5	0	0	0	0	515	626	
6	0	0	0	0	514	625	
7	0	0	0	0	513	624	
8	0	0	0	0	513	624	
9	0	0	0	0	513	624	
10	0	0	0	0	513	624	
11	0	0	0	0	513	624	
12	0	0	0	0	514	623	
13	0	0	0	0	513	623	
14	0	0	0	0	512	622	
15	0	0	0	0	513	622	
0	0	0	0	0	514	622	
1	0	0	0	0	514	623	
2	0	0	0	0	513	623	
3	0	0	0	0	512	623	
4	0	0	0	0	512	621	
5	0	0	0	0	511	622	
6	0	0	0	0	511	621	
7	0	0	0	0	510	622	
8	0	0	0	0	508	621	
9	0	0	0	0	508	621	
10	0	0	0	0	508	621	
11	0	0	0	0	508	621	
12	0	0	0	0	508	620	
13	0	0	0	0	508	621	
14	0	0	0	0	506	620	
15	0	0	0	0	506	620	
0	0	0	0	0	504	620	
1	0	0	0	0	503	620	
2	0	0	0	0	501	621	
3	0	0	0	0	500	620	
4	0	0	0	0	499	621	
5	0	0	0	0	497	622	
6	0	0	0	0	496	621	
7	0	0	0	0	497	622	
8	0	0	0	0	496	622	
9	0	0	0	0	495	622	
10	0	0	0	0	495	623	
11	0	0	0	0	494	623	
12	0	0	0	0	494	623	
13	0	0	0	0	494	624	
14	0	0	0	0	494	624	
15	0	0	0	0	494	624	
0	0	0	0	0	493	624	
1	0	0	0	0	493	625	
2	0	0	0	0	492	624	
3	0	0	0	0	491	624	
4	0	0	0	0	490	624	
5	0	0	0	0	489	624	
6	0	0	0	0	487	624	
7	0	0	0	0	487	624	
8	0	0	0	0	487	624	
9	0	0	0	0	487	624	
10	0	0	0	0	489	624	
11	0	0	0	0	490	624	
12	0	0	0	0	490	624	
13	0	0	0	0	490	624	
14	0	0	0	0	491	624	
15	0	0	0	0	493	624	
0	0	0	0	0	494	624	
1	0	0	0	0	494	624	
2	0	0	0	0	495	624	
3	0	0	0	0	497	624	
4	0	0	0	0	497	624	
5	0	0	0	0	496	624	
6	0	0	0	0	495	624	
7	0	0	0	0	494	625	
8	0	0	0	0	494	625	
9	0	0	0	0	495	625	
10	0	0	0	0	495	625	
11	0	0	0	0	495	625	
12	0	0	0	0	495	625	
13	0	0	0	0	494	625	
14	0	0	0	0	493	624	
15	0	0	0	0	492	624	
0	0	0	0	0	491	624	
1	0	0	0	0	492	625	
2	0	0	0	0	495	624	
3	0	0	0	0	496	624	
4	0	0	0	0	498	624	
5	0	0	0	0	499	624	
6	0	0	0	0	499	623	
7	0	0	0	0	498	623	
8	0	0	0	0	499	622	
9	0	0	0	0	499	624	
10	0	0	0	0	499	623	
11	0	0	0	0	498	623	
12	0	0	0	0	497	623	
13	0	0	0	0	497	623	
14	0	0	0	0	498	623	
15	0	0	0	0	499	623	
0	0	0	0	0	499	623	
1	0	0	0	0	500	624	
2	0	0	0	0	501	623	
3	0	0	0	0	502	624	
4	0	0	0	0	501	623	
5	0	0	0	0	501	624	
6	0	0	0	0	500	624	
7	0	0	0	0	499	623	
8	0	0	0	0	499	623	
9	0	0	0	0	500	623	
10	0	0	0	0	499	622	
11	0	0	0	0	499	622	
12	0	0	0	0	499	622	
13	0	0	0	0	499	622	
14	0	0	0	0	498	622	
15	0	0	0	0	499	622	
0	0	0	0	0	499	621	
1	0	0	0	0	498	622	
2	0	0	0	0	497	620	
3	0	0	0	0	497	621	
4	0	0	0	0	496	620	
5	0	0	0	0	495	621	
6	0	0	0	0	496	620	
7	0	0	0	0	499	621	
8	0	0	0	0	502	620	
9	0	0	0	0	503	621	
10	0	0	0	0	503	620	
11	0	0	0	0	501	621	
12	0	0	0	0	501	621	
13	0	0	0	0	501	622	
14	0	0	0	0	501	622	
15	0	0	0	0	501	622	
0	0	0	0	0	501	622	
1	0	0	0	0	501	623	
2	0	0	0	0	501	623	
3	0	0	0	0	499	623	
4	0	0	0	0	499	624	
5	0	0	0	0	499	624	
6	0	0	0	0	499	624	
7	0	0	0	0	499	624	
8	0	0	0	0	499	624	
9	0	0	0	0	500	624	
10	0	0	0	0	502	624	
11	0	0	0	0	503	624	
12	0	0	0	0	503	624	
13	0	0	0	0	502	624	
14	0	0	0	0	502	625	
15	0	0	0	0	501	624	
0	0	0	0	0	503	625	
1	0	0	0	0	503	626	
2	0	0	0	0	503	626	
3	0	0	0	0	503	626	
4	0	0	0	0	503	626	
5	0	0	0	0	502	627	
6	0	0	0	0	502	627	
7	0	0	0	0	502	628	
8	0	0	0	0	502	628	
9	0	0	0	0	503	628	
10	0	0	0	0	503	629	
11	0	0	0	0	503	629	
12	0	0	0	0	502	629	
13	0	0	0	0	500	629	
14	0	0	0	0	499	629	
15	0	0	0	0	500	629	
0	0	0	0	0	500	628	
1	0	0	0	0	501	629	
2	0	0	0	0	504	629	
3	0	0	0	0	504	629	
4	0	0	0	0	504	629	
5	0	0	0	0	503	629	
6	0	0	0	0	502	628	
7	0	0	0	0	502	628	
8	0	0	0	0	502	627	
9	0	0	0	0	502	627	
10	0	0	0	0	503	626	
11	0	0	0	0	504	626	
12	0	0	0	0	505	626	
13	0	0	0	0	507	626	
14	0	0	0	0	508	625	
15	0	0	0	0	508	625	
0	0	0	0	0	509	625	
1	0	0	0	0	509	626	
2	0	0	0	0	509	624	
3	0	0	0	0	508	624	
4	0	0	0	0	507	623	
5	0	0	0	0	507	623	
6	0	0	0	0	507	622	
7	0	0	0	0	508	622	
8	0	0	0	0	509	622	
9	0	0	0	0	509	622	
10	0	0	0	0	509	621	
11	0	0	0	0	508	621	
12	0	0	0	0	507	621	
13	0	0	0	0	507	621	
14	0	0	0	0	506	620	
15	0	0	0	0	507	620	
0	0	0	0	0	508	620	
1	0	0	0	0	509	620	
2	0	0	0	0	509	620	
3	0	0	0	0	509	619	
4	0	0	0	0	510	619	
5	0	0	0	0	510	619	
6	0	0	0	0	511	618	
7	0	0	0	0	511	618	
8	0	0	0	0	511	617	
9	0	0	0	0	511	618	
10	0	0	0	0	510	617	
11	0	0	0	0	509	617	
12	0	0	0	0	509	617	
13	0	0	0	0	508	617	
14	0	0	0	0	508	616	
15	0	0	0	0	509	617	
0	0	0	0	0	510	616	
1	0	0	0	0	510	617	
2	0	0	0	0	510	617	
3	0	0	0	0	510	617	
4	0	0	0	0	510	617	
5	0	0	0	0	509	617	
6	0	0	0	0	508	616	
7	0	0	0	0	507	616	
8	0	0	0	0	506	616	
9	0	0	0	0	506	617	
10	0	0	0	0	506	616	
11	0	0	0	0	505	617	
12	0	0	0	0	505	617	
13	0	0	0	0	506	617	
14	0	0	0	0	507	618	
15	0	0	0	0	507	619	
0	0	0	0	0	505	619	
1	0	0	0	0	505	619	
2	0	0	0	0	505	620	
3	0	0	0	0	505	620	
4	0	0	0	0	505	620	
5	0	0	0	0	507	621	
6	0	0	0	0	507	621	
7	0	0	0	0	507	621	
8	0	0	0	0	507	622	
9	0	0	0	0	508	623	
10	0	0	0	0	509	623	
11	0	0	0	0	510	623	
12	0	0	0	0	509	623	
13	0	0	0	0	509	624	
14	0	0	0	0	508	624	
15	0	0	0	0	508	625	
0	0	0	0	0	509	625	
1	0	0	0	0	509	627	
2	0	0	0	0	508	626	
3	0	0	0	0	507	627	
4	0	0	0	0	505	627	
5	0	0	0	0	506	628	
6	0	0	0	0	505	628	
7	0	0	0	0	506	629	
8	0	0	0	0	508	629	
9	0	0	0	0	509	630	
10	0	0	0	0	511	629	
11	0	0	0	0	511	630	
12	0	0	0	0	511	630	
13	0	0	0	0	511	631	
14	0	0	0	0	511	630	
15	0	0	0	0	510	630	
0	0	0	0	0	510	630	
1	0	0	0	0	508	631	
2	0	0	0	0	507	631	
3	0	0	0	0	505	630	
4	0	0	0	0	505	631	
5	0	0	0	0	505	631	
6	0	0	0	0	505	631	
7	0	0	0	0	506	630	
8	0	0	0	0	508	629	
9	0	0	0	0	509	630	
10	0	0	0	0	509	628	
11	0	0	0	0	509	629	
12	0	0	0	0	508	628	
13	0	0	0	0	509	628	
14	0	0	0	0	510	627	
15	0	0	0	0	511	627	
0	0	0	0	0	510	627	
1	0	0	0	0	510	627	
2	0	0	0	0	510	626	
3	0	0	0	0	510	625	
4	0	0	0	0	511	624	
5	0	0	0	0	511	625	
6	0	0	0	0	511	624	
7	0	0	0	0	510	624	
8	0	0	0	0	511	623	
9	0	0	0	0	511	623	
10	0	0	0	0	510	622	
11	0	0	0	0	510	622	
12	0	0	0	0	510	621	
13	0	0	0	0	509	621	
14	0	0	0	0	509	621	
15	0	0	0	0	508	620	
0	0	0	0	0	508	620	
1	0	0	0	0	507	620	
2	0	0	0	0	507	620	
3	0	0	0	0	508	620	
4	0	0	0	0	508	620	
5	0	0	0	0	508	620	
6	0	0	0	0	508	620	
7	0	0	0	0	508	620	
8	0	0	0	0	508	620	
9	0	0	0	0	508	620	
10	0	0	0	0	508	620	
11	0	0	0	0	510	620	
12	0	0	0	0	510	620	
13	0	0	0	0	510	620	
14	0	0	0	0	510	620	
15	0	0	0	0	509	620	
0	0	0	0	0	509	620	
1	0	0	0	0	509	621	
2	0	0	0	0	509	621	
3	0	0	0	0	509	621	
4	0	0	0	0	509	621	
5	0	0	0	0	509	621	
6	0	0	0	0	509	620	
7	0	0	0	0	509	621	
8	0	0	0	0	509	621	
9	0	0	0	0	509	622	
10	0	0	0	0	510	621	
11	0	0	0	0	509	622	
12	0	0	0	0	508	622	
13	0	0	0	0	508	623	
14	0	0	0	0	507	623	
15	0	0	0	0	506	622	
0	0	0	0	0	505	623	
1	0	0	0	0	505	623	
2	0	0	0	0	504	624	
3	0	0	0	0	505	624	
4	0	0	0	0	506	624	
5	0	0	0	0	507	624	
6	0	0	0	0	509	625	
7	0	0	0	0	510	624	
8	0	0	0	0	510	625	
9	0	0	0	0	509	626	
10	0	0	0	0	508	626	
11	0	0	0	0	508	626	
12	0	0	0	0	507	627	
13	0	0	0	0	506	627	
14	0	0	0	0	506	627	
15	0	0	0	0	505	627	
0	0	0	0	0	506	628	
1	0	0	0	0	506	628	
2	0	0	0	0	506	628	
3	0	0	0	0	506	628	
4	0	0	0	0	507	628	
5	0	0	0	0	507	628	
6	0	0	0	0	507	628	
7	0	0	0	0	508	627	
8	0	0	0	0	509	628	
9	0	0	0	0	507	629	
10	0	0	0	0	505	628	
11	0	0	0	0	503	628	
12	0	0	0	0	502	628	
13	0	0	0	0	502	628	
14	0	0	0	0	502	628	
15	0	0	0	0	503	628	
0	0	0	0	0	505	628	
1	0	0	0	0	506	628	
2	0	0	0	0	507	627	
3	0	0	0	0	508	627	
4	0	0	0	0	509	627	
5	0	0	0	0	509	627	
6	0	0	0	0	507	627	
7	0	0	0	0	506	626	
8	0	0	0	0	505	625	
9	0	0	0	0	505	626	
10	0	0	0	0	505	624	
11	0	0	0	0	505	624	
12	0	0	0	0	504	623	
13	0	0	0	0	504	623	
14	0	0	0	0	505	622	
15	0	0	0	0	504	622	
0	0	0	0	0	504	622	
1	0	0	0	0	505	621	
2	0	0	0	0	507	620	
3	0	0	0	0	507	620	
4	0	0	0	0	508	620	
5	0	0	0	0	508	620	
6	0	0	0	0	509	619	
7	0	0	0	0	510	619	
8	0	0	0	0	510	618	
9	0	0	0	0	508	619	
10	0	0	0	0	507	618	
11	0	0	0	0	507	619	
12	0	0	0	0	506	617	
13	0	0	0	0	506	618	
14	0	0	0	0	506	617	
15	0	0	0	0	505	617	
0	0	0	0	0	504	617	
1	0	0	0	0	503	617	
2	0	0	0	0	502	617	
3	0	0	0	0	502	617	
4	0	0	0	0	503	617	
5	0	0	0	0	503	618	
6	0	0	0	0	504	617	
7	0	0	0	0	504	617	
8	0	0	0	0	503	618	
9	0	0	0	0	503	619	
10	0	0	0	0	504	619	
11	0	0	0	0	504	619	
12	0	0	0	0	504	619	
13	0	0	0	0	504	620	
14	0	0	0	0	503	620	
15	0	0	0	0	502	620	
0	0	0	0	0	502	621	
1	0	0	0	0	503	621	
2	0	0	0	0	504	621	
3	0	0	0	0	504	622	
4	0	0	0	0	504	623	
5	0	0	0	0	504	623	
6	0	0	0	0	504	623	
7	0	0	0	0	504	624	
8	0	0	0	0	504	624	
9	0	0	0	0	503	625	
10	0	0	0	0	502	625	
11	0	0	0	0	502	626	
12	0	0	0	0	502	626	
13	0	0	0	0	502	627	
14	0	0	0	0	504	627	
15	0	0	0	0	504	628	
0	0	0	0	0	504	628	
1	0	0	0	0	503	629	
2	0	0	0	0	503	630	
3	0	0	0	0	502	629	
4	0	0	0	0	502	630	
5	0	0	0	0	502	631	
6	0	0	0	0	502	631	
7	0	0	0	0	502	632	
8	0	0	0	0	503	632	
9	0	0	0	0	504	633	
10	0	0	0	0	503	633	
11	0	0	0	0	502	633	
12	0	0	0	0	502	633	
13	0	0	0	0	501	633	
14	0	0	0	0	500	633	
15	0	0	0	0	500	633	
0	0	0	0	0	500	633	
1	0	0	0	0	500	633	
2	0	0	0	0	501	633	
3	0	0	0	0	501	634	
4	0	0	0	0	500	634	
5	0	0	0	0	500	633	
6	0	0	0	0	499	632	
7	0	0	0	0	498	632	
8	0	0	0	0	498	631	
9	0	0	0	0	498	631	
10	0	0	0	0	498	630	
11	0	0	0	0	498	630	
12	0	0	0	0	499	629	
13	0	0	0	0	499	627	
14	0	0	0	0	500	627	
15	0	0	0	0	499	626	
0	0	0	0	0	499	626	
1	0	0	0	0	499	626	
2	0	0	0	0	499	625	
3	0	0	0	0	499	624	
4	0	0	0	0	500	623	
5	0	0	0	0	500	623	
6	0	0	0	0	500	622	
7	0	0	0	0	499	621	
8	0	0	0	0	500	621	
9	0	0	0	0	500	621	
10	0	0	0	0	502	620	
11	0	0	0	0	502	620	
12	0	0	0	0	501	620	
13	0	0	0	0	500	620	
14	0	0	0	0	500	620	
15	0	0	0	0	499	619	
0	0	0	0	0	499	619	
1	0	0	0	0	498	620	
2	0	0	0	0	498	619	
3	0	0	0	0	498	620	
4	0	0	0	0	497	619	
5	0	0	0	0	497	619	
6	0	0	0	0	496	618	
7	0	0	0	0	496	618	
8	0	0	0	0	497	618	
9	0	0	0	0	499	618	
10	0	0	0	0	500	617	
11	0	0	0	0	500	617	
12	0	0	0	0	500	617	
13	0	0	0	0	500	616	
14	0	0	0	0	499	616	
15	0	0	0	0	500	616	
0	0	0	0	0	499	616	
1	0	0	0	0	499	616	
2	0	0	0	0	499	615	
3	0	0	0	0	499	615	
4	0	0	0	0	499	616	
5	0	0	0	0	500	616	
6	0	0	0	0	500	615	
7	0	0	0	0	500	616	
8	0	0	0	0	501	616	
9	0	0	0	0	502	617	
10	0	0	0	0	500	616	
11	0	0	0	0	500	616	
12	0	0	0	0	499	616	
13	0	0	0	0	500	617	
14	0	0	0	0	502	617	
15	0	0	0	0	504	618	
0	0	0	0	0	504	618	
1	0	0	0	0	504	619	
2	0	0	0	0	504	619	
3	0	0	0	0	503	620	
4	0	0	0	0	502	620	
5	0	0	0	0	500	621	
6	0	0	0	0	500	621	
7	0	0	0	0	501	622	
8	0	0	0	0	501	623	
9	0	0	0	0	501	624	
10	0	0	0	0	502	624	
11	0	0	0	0	502	625	
12	0	0	0	0	503	626	
13	0	0	0	0	502	626	
14	0	0	0	0	503	627	
15	0	0	0	0	503	628	
0	0	0	0	0	504	628	
1	0	0	0	0	504	629	
2	0	0	0	0	504	629	
3	0	0	0	0	504	630	
4	0	0	0	0	503	630	
5	0	0	0	0	503	630	
6	0	0	0	0	503	630	
7	0	0	0	0	502	631	
8	0	0	0	0	500	631	
9	0	0	0	0	499	631	
10	0	0	0	0	499	631	
11	0	0	0	0	499	631	
12	0	0	0	0	499	631	
13	0	0	0	0	500	631	
14	0	0	0	0	501	631	
15	0	0	0	0	500	631	
0	0	0	0	0	499	630	
1	0	0	0	0	499	631	
2	0	0	0	0	500	631	
3	0	0	0	0	501	630	
4	0	0	0	0	502	629	
5	0	0	0	0	504	629	
6	0	0	0	0	505	629	
7	0	0	0	0	505	628	
8	0	0	0	0	504	627	
9	0	0	0	0	502	628	
10	0	0	0	0	501	627	
11	0	0	0	0	501	626	
12	0	0	0	0	502	626	
13	0	0	0	0	502	625	
14	0	0	0	0	502	625	
15	0	0	0	0	502	624	
0	0	0	0	0	501	624	
1	0	0	0	0	499	623	
2	0	0	0	0	498	622	
3	0	0	0	0	498	622	
4	0	0	0	0	499	621	
5	0	0	0	0	500	620	
6	0	0	0	0	501	619	
7	0	0	0	0	502	619	
8	0	0	0	0	504	619	
9	0	0	0	0	505	619	
10	0	0	0	0	505	617	
11	0	0	0	0	505	617	
12	0	0	0	0	505	617	
13	0	0	0	0	504	617	
14	0	0	0	0	503	616	
15	0	0	0	0	502	616	
0	0	0	0	0	501	615	
1	0	0	0	0	499	615	
2	0	0	0	0	497	615	
3	0	0	0	0	496	615	
4	0	0	0	0	493	615	
5	0	0	0	0	491	615	
6	0	0	0	0	488	615	
7	0	0	0	0	484	615	
8	0	0	0	0	480	614	
9	0	0	0	0	478	615	
10	0	0	0	0	476	614	
11	0	0	0	0	476	614	
12	0	0	0	0	478	615	
13	0	0	0	0	482	614	
14	0	0	0	0	487	614	
15	0	0	0	0	493	614	
0	0	0	0	0	500	615	
1	0	0	0	0	511	615	
2	0	0	0	0	524	615	
3	0	0	0	0	539	615	
4	0	0	0	0	557	616	
5	0	0	0	0	574	616	
6	0	0	0	0	592	617	
7	0	0	0	0	608	617	
8	0	0	0	0	622	617	
9	0	0	0	0	635	618	
10	0	0	0	0	644	618	
11	0	0	0	0	648	618	
12	0	0	0	0	650	618	
13	0	0	0	0	649	619	
14	0	0	0	0	646	620	
15	0	0	0	0	641	620	
0	0	0	0	0	636	620	
1	0	0	0	0	626	622	
2	0	0	0	0	616	621	
3	0	0	0	0	604	622	
4	0	0	0	0	594	622	
5	0	0	0	0	582	623	
6	0	0	0	0	572	624	
7	0	0	0	0	562	624	
8	0	0	0	0	555	625	
9	0	0	0	0	549	625	
10	0	0	0	0	544	627	
11	0	0	0	0	540	627	
12	0	0	0	0	535	627	
13	0	0	0	0	529	627	
14	0	0	0	0	523	629	
15	0	0	0	0	517	630	
0	0	0	0	0	512	629	
1	0	0	0	0	507	630	
2	0	0	0	0	502	630	
3	0	0	0	0	499	630	
4	0	0	0	0	495	630	
5	0	0	0	0	491	630	
6	0	0	0	0	489	631	
7	0	0	0	0	487	631	
8	0	0	0	0	485	630	
9	0	0	0	0	484	632	
10	0	0	0	0	483	631	
11	0	0	0	0	483	631	
12	0	0	0	0	481	631	
13	0	0	0	0	481	631	
14	0	0	0	0	480	631	
15	0	0	0	0	480	631	
0	0	0	0	0	480	631	
1	0	0	0	0	480	632	
2	0	0	0	0	479	632	
3	0	0	0	0	479	632	
4	0	0	0	0	478	631	
5	0	0	0	0	477	631	
6	0	0	0	0	475	631	
7	0	0	0	0	474	631	
8	0	0	0	0	474	630	
9	0	0	0	0	472	631	
10	0	0	0	0	473	630	
11	0	0	0	0	473	630	
12	0	0	0	0	473	629	
13	0	0	0	0	476	628	
14	0	0	0	0	476	628	
15	0	0	0	0	477	628	
0	0	0	0	0	478	626	
1	0	0	0	0	478	626	
2	0	0	0	0	478	625	
3	0	0	0	0	478	624	
4	0	0	0	0	477	624	
5	0	0	0	0	476	623	
6	0	0	0	0	475	623	
7	0	0	0	0	475	622	
8	0	0	0	0	476	621	
9	0	0	0	0	477	622	
10	0	0	0	0	478	620	
11	0	0	0	0	478	621	
12	0	0	0	0	479	620	
13	0	0	0	0	480	620	
14	0	0	0	0	481	620	
15	0	0	0	0	482	620	
0	0	0	0	0	481	619	
1	0	0	0	0	480	620	
2	0	0	0	0	481	618	
3	0	0	0	0	481	619	
4	0	0	0	0	482	619	
5	0	0	0	0	483	619	
6	0	0	0	0	484	619	
7	0	0	0	0	484	618	
8	0	0	0	0	484	619	
9	0	0	0	0	484	619	
10	0	0	0	0	485	618	
11	0	0	0	0	484	619	
12	0	0	0	0	484	620	
13	0	0	0	0	484	620	
14	0	0	0	0	483	620	
15	0	0	0	0	483	620	
0	0	0	0	0	483	620	
1	0	0	0	0	484	621	
2	0	0	0	0	484	622	
3	0	0	0	0	485	622	
4	0	0	0	0	485	623	
5	0	0	0	0	485	624	
6	0	0	0	0	486	624	
7	0	0	0	0	486	625	
8	0	0	0	0	485	625	
9	0	0	0	0	485	626	
10	0	0	0	0	486	627	
11	0	0	0	0	486	627	
12	0	0	0	0	486	628	
13	0	0	0	0	486	628	
14	0	0	0	0	487	629	
15	0	0	0	0	487	629	
0	0	0	0	0	487	630	
1	0	0	0	0	487	630	
2	0	0	0	0	487	630	
3	0	0	0	0	488	630	
4	0	0	0	0	488	629	
5	0	0	0	0	489	628	
6	0	0	0	0	488	628	
7	0	0	0	0	489	629	
8	0	0	0	0	488	628	
9	0	0	0	0	489	629	
10	0	0	0	0	489	628	
11	0	0	0	0	489	629	
12	0	0	0	0	490	629	
13	0	0	0	0	490	628	
14	0	0	0	0	490	629	
15	0	0	0	0	492	628	
0	0	0	0	0	492	628	
1	0	0	0	0	492	629	
2	0	0	0	0	492	629	
3	0	0	0	0	492	628	
4	0	0	0	0	492	628	
5	0	0	0	0	492	628	
6	0	0	0	0	491	627	
7	0	0	0	0	491	627	
8	0	0	0	0	490	626	
9	0	0	0	0	489	627	
10	0	0	0	0	489	626	
11	0	0	0	0	489	625	
12	0	0	0	0	490	625	
13	0	0	0	0	491	625	
14	0	0	0	0	492	623	
15	0	0	0	0	492	623	
0	0	0	0	0	492	622	
1	0	0	0	0	493	622	
2	0	0	0	0	494	621	
3	0	0	0	0	495	621	
4	0	0	0	0	495	620	
5	0	0	0	0	495	620	
6	0	0	0	0	495	619	
7	0	0	0	0	495	619	
8	0	0	0	0	495	619	
9	0	0	0	0	494	619	
10	0	0	0	0	494	618	
11	0	0	0	0	495	618	
12	0	0	0	0	494	618	
13	0	0	0	0	494	619	
14	0	0	0	0	494	619	
15	0	0	0	0	494	618	
0	0	0	0	0	494	618	
1	0	0	0	0	495	619	
2	0	0	0	0	495	618	
3	0	0	0	0	496	618	
4	0	0	0	0	496	618	
5	0	0	0	0	497	618	
6	0	0	0	0	497	618	
7	0	0	0	0	496	617	
8	0	0	0	0	497	619	
9	0	0	0	0	496	619	
10	0	0	0	0	495	618	
11	0	0	0	0	494	618	
12	0	0	0	0	493	618	
13	0	0	0	0	492	618	
14	0	0	0	0	492	618	
15	0	0	0	0	492	619	
0	0	0	0	0	494	619	
1	0	0	0	0	495	620	
2	0	0	0	0	495	620	
3	0	0	0	0	495	620	
4	0	0	0	0	493	621	
5	0	0	0	0	492	622	
6	0	0	0	0	491	622	
7	0	0	0	0	491	623	
8	0	0	0	0	492	623	
9	0	0	0	0	492	624	
10	0	0	0	0	493	624	
11	0	0	0	0	494	625	
12	0	0	0	0	496	625	
13	0	0	0	0	498	627	
14	0	0	0	0	499	627	
15	0	0	0	0	499	627	
0	0	0	0	0	500	627	
1	0	0	0	0	500	628	
2	0	0	0	0	499	628	
3	0	0	0	0	498	628	
4	0	0	0	0	498	628	
5	0	0	0	0	499	628	
6	0	0	0	0	498	628	
7	0	0	0	0	498	628	
8	0	0	0	0	499	628	
9	0	0	0	0	499	628	
10	0	0	0	0	500	628	
11	0	0	0	0	502	627	
12	0	0	0	0	503	627	
13	0	0	0	0	504	627	
14	0	0	0	0	503	627	
15	0	0	0	0	503	627	
0	0	0	0	0	503	627	
1	0	0	0	0	503	627	
2	0	0	0	0	503	626	
3	0	0	0	0	503	625	
4	0	0	0	0	503	625	
5	0	0	0	0	503	625	
6	0	0	0	0	504	625	
7	0	0	0	0	504	624	
8	0	0	0	0	504	624	
9	0	0	0	0	505	623	
10	0	0	0	0	505	622	
11	0	0	0	0	505	623	
12	0	0	0	0	506	622	
13	0	0	0	0	507	623	
14	0	0	0	0	507	622	
15	0	0	0	0	507	621	
0	0	0	0	0	508	620	
1	0	0	0	0	508	620	
2	0	0	0	0	508	619	
3	0	0	0	0	509	618	
4	0	0	0	0	509	618	
5	0	0	0	0	508	618	
6	0	0	0	0	508	617	
7	0	0	0	0	507	617	
8	0	0	0	0	507	617	
9	0	0	0	0	507	617	
10	0	0	0	0	507	616	
11	0	0	0	0	507	616	
12	0	0	0	0	506	616	
13	0	0	0	0	506	616	
14	0	0	0	0	506	616	
15	0	0	0	0	506	617	
0	0	0	0	0	507	617	
1	0	0	0	0	508	618	
2	0	0	0	0	508	616	
3	0	0	0	0	509	617	
4	0	0	0	0	510	619	
5	0	0	0	0	511	619	
6	0	0	0	0	512	619	
7	0	0	0	0	512	619	
8	0	0	0	0	513	619	
9	0	0	0	0	512	620	
10	0	0	0	0	510	620	
11	0	0	0	0	509	620	
12	0	0	0	0	508	621	
13	0	0	0	0	507	622	
14	0	0	0	0	507	621	
15	0	0	0	0	508	621	
0	0	0	0	0	510	622	
1	0	0	0	0	511	622	
2	0	0	0	0	511	622	
3	0	0	0	0	511	623	
4	0	0	0	0	512	622	
5	0	0	0	0	513	624	
6	0	0	0	0	512	624	
7	0	0	0	0	512	624	
8	0	0	0	0	512	625	
9	0	0	0	0	512	626	
10	0	0	0	0	511	627	
11	0	0	0	0	510	627	
12	0	0	0	0	508	628	
13	0	0	0	0	505	629	
14	0	0	0	0	504	630	
15	0	0	0	0	504	631	
0	0	0	0	0	503	631	
1	0	0	0	0	503	632	
2	0	0	0	0	503	632	
3	0	0	0	0	502	632	
4	0	0	0	0	501	633	
5	0	0	0	0	500	632	
6	0	0	0	0	500	633	
7	0	0	0	0	499	633	
8	0	0	0	0	497	633	
9	0	0	0	0	495	634	
10	0	0	0	0	495	633	
11	0	0	0	0	494	632	
12	0	0	0	0	493	632	
13	0	0	0	0	493	632	
14	0	0	0	0	493	631	
15	0	0	0	0	492	631	
0	0	0	0	0	492	631	
1	0	0	0	0	492	630	
2	0	0	0	0	491	628	
3	0	0	0	0	489	629	
4	0	0	0	0	488	628	
5	0	0	0	0	487	628	
6	0	0	0	0	487	627	
7	0	0	0	0	487	627	
8	0	0	0	0	487	626	
9	0	0	0	0	487	626	
10	0	0	0	0	488	625	
11	0	0	0	0	489	625	
12	0	0	0	0	491	625	
13	0	0	0	0	492	624	
14	0	0	0	0	491	624	
15	0	0	0	0	490	624	
0	0	0	0	0	489	623	
1	0	0	0	0	488	623	
2	0	0	0	0	487	622	
3	0	0	0	0	487	621	
4	0	0	0	0	487	622	
5	0	0	0	0	487	621	
6	0	0	0	0	487	621	
7	0	0	0	0	487	620	
8	0	0	0	0	487	619	
9	0	0	0	0	486	619	
10	0	0	0	0	486	619	
11	0	0	0	0	487	619	
12	0	0	0	0	488	618	
13	0	0	0	0	489	618	
14	0	0	0	0	490	618	
15	0	0	0	0	490	618	
0	0	0	0	0	491	618	
1	0	0	0	0	491	618	
2	0	0	0	0	491	617	
3	0	0	0	0	491	617	
4	0	0	0	0	491	617	
5	0	0	0	0	492	617	
6	0	0	0	0	491	617	
7	0	0	0	0	490	617	
8	0	0	0	0	489	617	
9	0	0	0	0	488	618	
10	0	0	0	0	488	617	
11	0	0	0	0	487	618	
12	0	0	0	0	487	618	
13	0	0	0	0	487	618	
14	0	0	0	0	487	618	
15	0	0	0	0	487	618	
0	0	0	0	0	488	618	
1	0	0	0	0	490	619	
2	0	0	0	0	492	619	
3	0	0	0	0	494	619	
4	0	0	0	0	494	619	
5	0	0	0	0	496	620	
6	0	0	0	0	497	620	
7	0	0	0	0	497	620	
8	0	0	0	0	497	621	
9	0	0	0	0	497	622	
10	0	0	0	0	498	622	
11	0	0	0	0	497	622	
12	0	0	0	0	497	623	
13	0	0	0	0	496	624	
14	0	0	0	0	494	624	
15	0	0	0	0	493	624	
0	0	0	0	0	492	625	
1	0	0	0	0	491	626	
2	0	0	0	0	492	625	
3	0	0	0	0	492	627	
4	0	0	0	0	493	626	
5	0	0	0	0	494	627	
6	0	0	0	0	493	627	
7	0	0	0	0	492	627	
8	0	0	0	0	492	627	
9	0	0	0	0	492	627	
10	0	0	0	0	493	627	
11	0	0	0	0	495	628	
12	0	0	0	0	496	627	
13	0	0	0	0	497	628	
14	0	0	0	0	496	628	
15	0	0	0	0	496	628	
0	0	0	0	0	496	628	
1	0	0	0	0	497	629	
2	0	0	0	0	496	629	
3	0	0	0	0	496	630	
4	0	0	0	0	496	629	
5	0	0	0	0	496	630	
6	0	0	0	0	495	630	
7	0	0	0	0	494	629	
8	0	0	0	0	493	629	
9	0	0	0	0	493	629	
10	0	0	0	0	494	630	
11	0	0	0	0	496	629	
12	0	0	0	0	497	628	
13	0	0	0	0	497	629	
14	0	0	0	0	496	628	
15	0	0	0	0	496	628	
0	0	0	0	0	495	628	
1	0	0	0	0	495	628	
2	0	0	0	0	493	627	
3	0	0	0	0	492	626	
4	0	0	0	0	492	626	
5	0	0	0	0	493	626	
6	0	0	0	0	494	625	
7	0	0	0	0	495	625	
8	0	0	0	0	498	624	
9	0	0	0	0	499	624	
10	0	0	0	0	499	623	
11	0	0	0	0	498	624	
12	0	0	0	0	498	623	
13	0	0	0	0	499	623	
14	0	0	0	0	500	623	
15	0	0	0	0	502	622	
0	0	0	0	0	502	622	
1	0	0	0	0	503	622	
2	0	0	0	0	502	620	
3	0	0	0	0	502	620	
