# OpenSignals Text File Format
# {"98:D3:91:FD:58:3A":{"sensor":["ECGBIT","ACCBITREV"],"device name":"98:D3:91:FD:58:3A","column":["nSeq","I1","I2","O1","O2","A2","A5"],"sync interval":2,"time":"19:18:29","comments":"","device connection":"BTH98:D3:91:FD:58:3A","channels":[2,5],"date":"2021-09-04","mode":0,"digital IO":[0,0,1,1],"firmware version":0,"device":"bitalino_rev","position":0,"sampling rate":1000,"label":["A2","A5"],"resolution":[10,10],"special":[{},{}]}}
# EndOfHeader
0	0	0	0	0	496	615
1	0	0	0	0	496	615
2	0	0	0	0	496	615
3	0	0	0	0	496	616
4	0	0	0	0	496	615
5	0	0	0	0	496	616
6	0	0	0	0	495	615
7	0	0	0	0	495	615
8	0	0	0	0	496	615
9	0	0	0	0	496	615
10	0	0	0	0	495	615
11	0	0	0	0	494	615
12	0	0	0	0	494	615
13	0	0	0	0	493	615
14	0	0	0	0	493	615
15	0	0	0	0	493	616
0	0	0	0	0	492	615
1	0	0	0	0	491	615
2	0	0	0	0	491	615
3	0	0	0	0	491	615
4	0	0	0	0	492	615
5	0	0	0	0	490	615
6	0	0	0	0	488	615
7	0	0	0	0	485	615
8	0	0	0	0	480	615
9	0	0	0	0	475	615
10	0	0	0	0	471	615
11	0	0	0	0	465	615
12	0	0	0	0	460	615
13	0	0	0	0	456	615
14	0	0	0	0	453	615
15	0	0	0	0	453	615
0	0	0	0	0	455	615
1	0	0	0	0	457	615
2	0	0	0	0	462	615
3	0	0	0	0	467	615
4	0	0	0	0	474	614
5	0	0	0	0	480	614
6	0	0	0	0	486	615
7	0	0	0	0	492	615
8	0	0	0	0	500	615
9	0	0	0	0	511	614
10	0	0	0	0	524	615
11	0	0	0	0	541	615
12	0	0	0	0	558	615
13	0	0	0	0	577	615
14	0	0	0	0	594	615
15	0	0	0	0	611	614
0	0	0	0	0	630	614
1	0	0	0	0	650	615
2	0	0	0	0	670	615
3	0	0	0	0	689	615
4	0	0	0	0	708	615
5	0	0	0	0	727	615
6	0	0	0	0	742	615
7	0	0	0	0	754	615
8	0	0	0	0	763	614
9	0	0	0	0	768	615
10	0	0	0	0	766	615
11	0	0	0	0	758	615
12	0	0	0	0	748	615
13	0	0	0	0	733	615
14	0	0	0	0	710	615
15	0	0	0	0	684	615
0	0	0	0	0	659	615
1	0	0	0	0	637	615
2	0	0	0	0	615	615
3	0	0	0	0	595	616
4	0	0	0	0	577	615
5	0	0	0	0	560	615
6	0	0	0	0	545	615
7	0	0	0	0	532	615
8	0	0	0	0	521	615
9	0	0	0	0	512	615
10	0	0	0	0	505	615
11	0	0	0	0	499	615
12	0	0	0	0	493	616
13	0	0	0	0	487	615
14	0	0	0	0	481	616
15	0	0	0	0	477	616
0	0	0	0	0	472	616
1	0	0	0	0	468	615
2	0	0	0	0	466	615
3	0	0	0	0	462	616
4	0	0	0	0	460	616
5	0	0	0	0	457	615
6	0	0	0	0	455	615
7	0	0	0	0	453	616
8	0	0	0	0	451	616
9	0	0	0	0	448	615
10	0	0	0	0	446	615
11	0	0	0	0	445	616
12	0	0	0	0	444	616
13	0	0	0	0	444	616
14	0	0	0	0	444	615
15	0	0	0	0	445	616
0	0	0	0	0	446	616
1	0	0	0	0	447	615
2	0	0	0	0	448	616
3	0	0	0	0	448	617
4	0	0	0	0	447	616
5	0	0	0	0	447	616
6	0	0	0	0	447	616
7	0	0	0	0	447	616
8	0	0	0	0	447	615
9	0	0	0	0	448	615
10	0	0	0	0	448	615
11	0	0	0	0	448	616
12	0	0	0	0	449	615
13	0	0	0	0	450	616
14	0	0	0	0	451	616
15	0	0	0	0	451	616
0	0	0	0	0	451	615
1	0	0	0	0	451	615
2	0	0	0	0	451	615
3	0	0	0	0	451	616
4	0	0	0	0	452	616
5	0	0	0	0	452	616
6	0	0	0	0	452	616
7	0	0	0	0	452	616
8	0	0	0	0	451	616
9	0	0	0	0	451	616
10	0	0	0	0	452	616
11	0	0	0	0	452	616
12	0	0	0	0	453	616
13	0	0	0	0	454	616
14	0	0	0	0	454	615
15	0	0	0	0	454	616
0	0	0	0	0	454	615
1	0	0	0	0	455	615
2	0	0	0	0	454	616
3	0	0	0	0	454	617
4	0	0	0	0	454	616
5	0	0	0	0	454	615
6	0	0	0	0	454	615
7	0	0	0	0	455	616
8	0	0	0	0	455	616
9	0	0	0	0	456	616
10	0	0	0	0	457	616
11	0	0	0	0	458	617
12	0	0	0	0	459	616
13	0	0	0	0	461	616
14	0	0	0	0	462	616
15	0	0	0	0	463	617
0	0	0	0	0	464	616
1	0	0	0	0	464	616
2	0	0	0	0	465	615
3	0	0	0	0	465	616
4	0	0	0	0	465	616
5	0	0	0	0	465	616
6	0	0	0	0	465	616
7	0	0	0	0	465	616
8	0	0	0	0	465	616
9	0	0	0	0	465	616
10	0	0	0	0	464	616
11	0	0	0	0	464	617
12	0	0	0	0	464	616
13	0	0	0	0	465	616
14	0	0	0	0	465	616
15	0	0	0	0	465	616
0	0	0	0	0	466	616
1	0	0	0	0	466	616
2	0	0	0	0	467	617
3	0	0	0	0	468	617
4	0	0	0	0	469	617
5	0	0	0	0	470	617
6	0	0	0	0	470	616
7	0	0	0	0	471	617
8	0	0	0	0	472	617
9	0	0	0	0	473	616
10	0	0	0	0	474	617
11	0	0	0	0	475	617
12	0	0	0	0	474	616
13	0	0	0	0	472	617
14	0	0	0	0	472	616
15	0	0	0	0	473	617
0	0	0	0	0	473	616
1	0	0	0	0	473	616
2	0	0	0	0	475	617
3	0	0	0	0	476	617
4	0	0	0	0	476	617
5	0	0	0	0	476	616
6	0	0	0	0	477	617
7	0	0	0	0	477	617
8	0	0	0	0	478	617
9	0	0	0	0	478	617
10	0	0	0	0	479	617
11	0	0	0	0	479	617
12	0	0	0	0	479	617
13	0	0	0	0	478	617
14	0	0	0	0	477	617
15	0	0	0	0	477	617
0	0	0	0	0	476	616
1	0	0	0	0	476	617
2	0	0	0	0	477	617
3	0	0	0	0	477	617
4	0	0	0	0	476	617
5	0	0	0	0	476	616
6	0	0	0	0	476	616
7	0	0	0	0	476	616
8	0	0	0	0	476	616
9	0	0	0	0	476	616
10	0	0	0	0	476	616
11	0	0	0	0	476	617
12	0	0	0	0	477	616
13	0	0	0	0	477	616
14	0	0	0	0	477	615
15	0	0	0	0	477	616
0	0	0	0	0	477	616
1	0	0	0	0	478	616
2	0	0	0	0	479	616
3	0	0	0	0	479	616
4	0	0	0	0	479	615
5	0	0	0	0	480	616
6	0	0	0	0	481	615
7	0	0	0	0	482	617
8	0	0	0	0	481	615
9	0	0	0	0	482	615
10	0	0	0	0	481	616
11	0	0	0	0	482	616
12	0	0	0	0	482	615
13	0	0	0	0	483	615
14	0	0	0	0	484	616
15	0	0	0	0	484	616
0	0	0	0	0	484	615
1	0	0	0	0	483	615
2	0	0	0	0	482	615
3	0	0	0	0	482	616
4	0	0	0	0	483	616
5	0	0	0	0	483	615
6	0	0	0	0	483	616
7	0	0	0	0	482	616
8	0	0	0	0	482	616
9	0	0	0	0	483	616
10	0	0	0	0	483	616
11	0	0	0	0	483	617
12	0	0	0	0	483	616
13	0	0	0	0	484	616
14	0	0	0	0	484	615
15	0	0	0	0	485	616
0	0	0	0	0	486	616
1	0	0	0	0	487	617
2	0	0	0	0	487	616
3	0	0	0	0	486	617
4	0	0	0	0	486	615
5	0	0	0	0	486	617
6	0	0	0	0	485	616
7	0	0	0	0	485	617
8	0	0	0	0	486	617
9	0	0	0	0	487	616
10	0	0	0	0	488	616
11	0	0	0	0	489	617
12	0	0	0	0	490	617
13	0	0	0	0	489	617
14	0	0	0	0	489	616
15	0	0	0	0	490	617
0	0	0	0	0	491	617
1	0	0	0	0	491	617
2	0	0	0	0	492	617
3	0	0	0	0	493	617
4	0	0	0	0	494	617
5	0	0	0	0	494	617
6	0	0	0	0	494	616
7	0	0	0	0	494	616
8	0	0	0	0	493	616
9	0	0	0	0	494	616
10	0	0	0	0	493	616
11	0	0	0	0	494	617
12	0	0	0	0	495	616
13	0	0	0	0	496	616
14	0	0	0	0	496	616
15	0	0	0	0	495	616
0	0	0	0	0	495	616
1	0	0	0	0	494	616
2	0	0	0	0	494	616
3	0	0	0	0	494	617
4	0	0	0	0	494	616
5	0	0	0	0	493	616
6	0	0	0	0	493	616
7	0	0	0	0	494	616
8	0	0	0	0	495	616
9	0	0	0	0	497	616
10	0	0	0	0	498	616
11	0	0	0	0	500	616
12	0	0	0	0	502	616
13	0	0	0	0	504	616
14	0	0	0	0	505	616
15	0	0	0	0	506	617
0	0	0	0	0	508	616
1	0	0	0	0	510	616
2	0	0	0	0	510	616
3	0	0	0	0	511	616
4	0	0	0	0	511	616
5	0	0	0	0	511	616
6	0	0	0	0	512	616
7	0	0	0	0	512	616
8	0	0	0	0	513	615
9	0	0	0	0	514	616
10	0	0	0	0	515	616
11	0	0	0	0	516	616
12	0	0	0	0	516	616
13	0	0	0	0	517	615
14	0	0	0	0	517	615
15	0	0	0	0	518	615
0	0	0	0	0	518	615
1	0	0	0	0	518	615
2	0	0	0	0	518	615
3	0	0	0	0	519	616
4	0	0	0	0	519	615
5	0	0	0	0	519	615
6	0	0	0	0	518	615
7	0	0	0	0	518	615
8	0	0	0	0	518	615
9	0	0	0	0	518	615
10	0	0	0	0	518	615
11	0	0	0	0	519	615
12	0	0	0	0	518	615
13	0	0	0	0	518	615
14	0	0	0	0	519	615
15	0	0	0	0	519	615
0	0	0	0	0	520	615
1	0	0	0	0	520	615
2	0	0	0	0	521	615
3	0	0	0	0	520	615
4	0	0	0	0	520	615
5	0	0	0	0	519	615
6	0	0	0	0	519	615
7	0	0	0	0	518	615
8	0	0	0	0	517	615
9	0	0	0	0	516	615
10	0	0	0	0	515	615
11	0	0	0	0	513	615
12	0	0	0	0	512	615
13	0	0	0	0	511	615
14	0	0	0	0	510	615
15	0	0	0	0	510	616
0	0	0	0	0	510	615
1	0	0	0	0	510	615
2	0	0	0	0	510	615
3	0	0	0	0	510	615
4	0	0	0	0	508	615
5	0	0	0	0	507	615
6	0	0	0	0	505	615
7	0	0	0	0	502	615
8	0	0	0	0	501	615
9	0	0	0	0	499	615
10	0	0	0	0	498	615
11	0	0	0	0	497	616
12	0	0	0	0	496	615
13	0	0	0	0	494	615
14	0	0	0	0	493	615
15	0	0	0	0	492	615
0	0	0	0	0	491	615
1	0	0	0	0	489	615
2	0	0	0	0	487	615
3	0	0	0	0	486	616
4	0	0	0	0	485	615
5	0	0	0	0	484	617
6	0	0	0	0	482	617
7	0	0	0	0	481	616
8	0	0	0	0	480	616
9	0	0	0	0	479	616
10	0	0	0	0	477	616
11	0	0	0	0	476	617
12	0	0	0	0	476	616
13	0	0	0	0	475	616
14	0	0	0	0	475	616
15	0	0	0	0	475	616
0	0	0	0	0	475	616
1	0	0	0	0	474	616
2	0	0	0	0	473	616
3	0	0	0	0	473	616
4	0	0	0	0	472	616
5	0	0	0	0	471	616
6	0	0	0	0	470	615
7	0	0	0	0	469	616
8	0	0	0	0	467	615
9	0	0	0	0	466	615
10	0	0	0	0	466	616
11	0	0	0	0	465	616
12	0	0	0	0	465	615
13	0	0	0	0	465	615
14	0	0	0	0	464	615
15	0	0	0	0	464	616
0	0	0	0	0	464	616
1	0	0	0	0	464	616
2	0	0	0	0	463	616
3	0	0	0	0	464	616
4	0	0	0	0	463	616
5	0	0	0	0	463	615
6	0	0	0	0	463	616
7	0	0	0	0	463	615
8	0	0	0	0	462	616
9	0	0	0	0	462	615
10	0	0	0	0	462	615
11	0	0	0	0	463	616
12	0	0	0	0	463	616
13	0	0	0	0	463	616
14	0	0	0	0	463	615
15	0	0	0	0	463	616
0	0	0	0	0	462	616
1	0	0	0	0	463	615
2	0	0	0	0	462	615
3	0	0	0	0	462	616
4	0	0	0	0	463	615
5	0	0	0	0	463	615
6	0	0	0	0	463	616
7	0	0	0	0	463	616
8	0	0	0	0	463	615
9	0	0	0	0	463	615
10	0	0	0	0	463	617
11	0	0	0	0	464	616
12	0	0	0	0	464	616
13	0	0	0	0	465	616
14	0	0	0	0	465	616
15	0	0	0	0	465	616
0	0	0	0	0	464	616
1	0	0	0	0	463	616
2	0	0	0	0	463	616
3	0	0	0	0	464	617
4	0	0	0	0	465	616
5	0	0	0	0	466	616
6	0	0	0	0	466	617
7	0	0	0	0	466	616
8	0	0	0	0	466	616
9	0	0	0	0	467	616
10	0	0	0	0	467	616
11	0	0	0	0	467	617
12	0	0	0	0	469	616
13	0	0	0	0	470	616
14	0	0	0	0	472	617
15	0	0	0	0	472	617
0	0	0	0	0	474	616
1	0	0	0	0	474	615
2	0	0	0	0	474	616
3	0	0	0	0	474	617
4	0	0	0	0	474	615
5	0	0	0	0	473	615
6	0	0	0	0	473	616
7	0	0	0	0	472	616
8	0	0	0	0	472	616
9	0	0	0	0	473	616
10	0	0	0	0	473	616
11	0	0	0	0	473	617
12	0	0	0	0	475	616
13	0	0	0	0	476	617
14	0	0	0	0	476	617
15	0	0	0	0	476	617
0	0	0	0	0	476	617
1	0	0	0	0	476	616
2	0	0	0	0	475	617
3	0	0	0	0	475	617
4	0	0	0	0	475	617
5	0	0	0	0	475	616
6	0	0	0	0	474	616
7	0	0	0	0	474	616
8	0	0	0	0	474	616
9	0	0	0	0	475	616
10	0	0	0	0	476	617
11	0	0	0	0	476	617
12	0	0	0	0	477	617
13	0	0	0	0	479	616
14	0	0	0	0	480	616
15	0	0	0	0	481	615
0	0	0	0	0	482	615
1	0	0	0	0	483	615
2	0	0	0	0	483	615
3	0	0	0	0	484	616
4	0	0	0	0	485	615
5	0	0	0	0	486	615
6	0	0	0	0	485	615
7	0	0	0	0	485	615
8	0	0	0	0	484	614
9	0	0	0	0	483	614
10	0	0	0	0	483	614
11	0	0	0	0	483	615
12	0	0	0	0	483	614
13	0	0	0	0	483	615
14	0	0	0	0	483	615
15	0	0	0	0	483	615
0	0	0	0	0	483	615
1	0	0	0	0	483	615
2	0	0	0	0	483	615
3	0	0	0	0	483	615
4	0	0	0	0	484	615
5	0	0	0	0	485	615
6	0	0	0	0	485	615
7	0	0	0	0	486	615
8	0	0	0	0	486	615
9	0	0	0	0	486	615
10	0	0	0	0	485	616
11	0	0	0	0	484	616
12	0	0	0	0	485	616
13	0	0	0	0	484	616
14	0	0	0	0	484	616
15	0	0	0	0	484	617
0	0	0	0	0	485	616
1	0	0	0	0	484	616
2	0	0	0	0	485	616
3	0	0	0	0	484	617
4	0	0	0	0	485	616
5	0	0	0	0	485	617
6	0	0	0	0	485	617
7	0	0	0	0	485	617
8	0	0	0	0	484	617
9	0	0	0	0	484	617
10	0	0	0	0	483	617
11	0	0	0	0	483	618
12	0	0	0	0	483	617
13	0	0	0	0	483	617
14	0	0	0	0	485	617
15	0	0	0	0	486	617
0	0	0	0	0	487	617
1	0	0	0	0	487	617
2	0	0	0	0	487	617
3	0	0	0	0	488	618
4	0	0	0	0	489	617
5	0	0	0	0	491	616
6	0	0	0	0	492	617
7	0	0	0	0	492	617
8	0	0	0	0	493	617
9	0	0	0	0	492	617
10	0	0	0	0	494	617
11	0	0	0	0	494	617
12	0	0	0	0	494	616
13	0	0	0	0	494	616
14	0	0	0	0	494	616
15	0	0	0	0	493	617
0	0	0	0	0	493	616
1	0	0	0	0	492	616
2	0	0	0	0	490	616
3	0	0	0	0	490	616
4	0	0	0	0	489	615
5	0	0	0	0	489	615
6	0	0	0	0	491	616
7	0	0	0	0	492	615
8	0	0	0	0	492	615
9	0	0	0	0	492	615
10	0	0	0	0	492	616
11	0	0	0	0	492	616
12	0	0	0	0	493	616
13	0	0	0	0	494	616
14	0	0	0	0	494	615
15	0	0	0	0	494	616
0	0	0	0	0	494	615
1	0	0	0	0	494	615
2	0	0	0	0	494	615
3	0	0	0	0	494	616
4	0	0	0	0	493	616
5	0	0	0	0	491	615
6	0	0	0	0	491	616
7	0	0	0	0	491	616
8	0	0	0	0	490	616
9	0	0	0	0	490	617
10	0	0	0	0	491	616
11	0	0	0	0	492	617
12	0	0	0	0	493	616
13	0	0	0	0	494	616
14	0	0	0	0	495	616
15	0	0	0	0	494	617
0	0	0	0	0	494	617
1	0	0	0	0	494	617
2	0	0	0	0	494	617
3	0	0	0	0	494	618
4	0	0	0	0	495	617
5	0	0	0	0	495	619
6	0	0	0	0	495	619
7	0	0	0	0	495	619
8	0	0	0	0	496	620
9	0	0	0	0	496	620
10	0	0	0	0	496	620
11	0	0	0	0	496	620
12	0	0	0	0	495	619
13	0	0	0	0	495	619
14	0	0	0	0	495	619
15	0	0	0	0	495	617
0	0	0	0	0	495	617
1	0	0	0	0	495	616
2	0	0	0	0	494	616
3	0	0	0	0	493	615
4	0	0	0	0	493	615
5	0	0	0	0	492	615
6	0	0	0	0	492	614
7	0	0	0	0	492	615
8	0	0	0	0	492	614
9	0	0	0	0	492	613
10	0	0	0	0	492	614
11	0	0	0	0	493	614
12	0	0	0	0	494	613
13	0	0	0	0	494	613
14	0	0	0	0	495	614
15	0	0	0	0	496	614
0	0	0	0	0	496	613
1	0	0	0	0	496	614
2	0	0	0	0	496	614
3	0	0	0	0	495	615
4	0	0	0	0	495	615
5	0	0	0	0	495	615
6	0	0	0	0	495	615
7	0	0	0	0	495	615
8	0	0	0	0	494	616
9	0	0	0	0	493	615
10	0	0	0	0	492	615
11	0	0	0	0	491	616
12	0	0	0	0	490	615
13	0	0	0	0	489	616
14	0	0	0	0	488	616
15	0	0	0	0	488	616
0	0	0	0	0	489	616
1	0	0	0	0	490	616
2	0	0	0	0	491	616
3	0	0	0	0	491	616
4	0	0	0	0	492	616
5	0	0	0	0	493	617
6	0	0	0	0	493	616
7	0	0	0	0	494	617
8	0	0	0	0	494	617
9	0	0	0	0	494	616
10	0	0	0	0	496	616
11	0	0	0	0	497	617
12	0	0	0	0	497	617
13	0	0	0	0	499	617
14	0	0	0	0	499	616
15	0	0	0	0	499	617
0	0	0	0	0	499	616
1	0	0	0	0	500	616
2	0	0	0	0	500	616
3	0	0	0	0	499	616
4	0	0	0	0	500	616
5	0	0	0	0	499	615
6	0	0	0	0	498	616
7	0	0	0	0	498	616
8	0	0	0	0	497	615
9	0	0	0	0	495	615
10	0	0	0	0	494	615
11	0	0	0	0	493	616
12	0	0	0	0	492	616
13	0	0	0	0	492	615
14	0	0	0	0	493	615
15	0	0	0	0	494	615
0	0	0	0	0	495	615
1	0	0	0	0	495	615
2	0	0	0	0	495	615
3	0	0	0	0	495	615
4	0	0	0	0	495	615
5	0	0	0	0	495	615
6	0	0	0	0	495	614
7	0	0	0	0	495	615
8	0	0	0	0	495	615
9	0	0	0	0	496	615
10	0	0	0	0	496	614
11	0	0	0	0	496	616
12	0	0	0	0	496	615
13	0	0	0	0	496	615
14	0	0	0	0	495	615
15	0	0	0	0	496	615
0	0	0	0	0	496	615
1	0	0	0	0	496	615
2	0	0	0	0	496	615
3	0	0	0	0	496	615
4	0	0	0	0	495	615
5	0	0	0	0	494	615
6	0	0	0	0	493	615
7	0	0	0	0	493	615
8	0	0	0	0	492	615
9	0	0	0	0	493	615
10	0	0	0	0	493	615
11	0	0	0	0	492	615
12	0	0	0	0	492	614
13	0	0	0	0	492	614
14	0	0	0	0	492	615
15	0	0	0	0	491	615
0	0	0	0	0	491	614
1	0	0	0	0	491	615
2	0	0	0	0	491	615
3	0	0	0	0	491	615
4	0	0	0	0	491	615
5	0	0	0	0	491	615
6	0	0	0	0	491	615
7	0	0	0	0	491	615
8	0	0	0	0	492	615
9	0	0	0	0	493	615
10	0	0	0	0	495	615
11	0	0	0	0	496	615
12	0	0	0	0	496	615
13	0	0	0	0	496	615
14	0	0	0	0	497	615
15	0	0	0	0	497	615
0	0	0	0	0	498	615
1	0	0	0	0	499	615
2	0	0	0	0	499	615
3	0	0	0	0	500	616
4	0	0	0	0	499	615
5	0	0	0	0	499	616
6	0	0	0	0	500	615
7	0	0	0	0	501	616
8	0	0	0	0	501	615
9	0	0	0	0	501	616
10	0	0	0	0	502	616
11	0	0	0	0	503	616
12	0	0	0	0	503	616
13	0	0	0	0	503	617
14	0	0	0	0	503	617
15	0	0	0	0	504	617
0	0	0	0	0	503	616
1	0	0	0	0	504	617
2	0	0	0	0	504	616
3	0	0	0	0	505	616
4	0	0	0	0	505	615
5	0	0	0	0	506	616
6	0	0	0	0	506	616
7	0	0	0	0	505	615
8	0	0	0	0	505	615
9	0	0	0	0	504	615
10	0	0	0	0	504	615
11	0	0	0	0	504	616
12	0	0	0	0	504	615
13	0	0	0	0	503	615
14	0	0	0	0	504	615
15	0	0	0	0	504	616
0	0	0	0	0	504	616
1	0	0	0	0	505	615
2	0	0	0	0	506	615
3	0	0	0	0	506	615
4	0	0	0	0	507	615
5	0	0	0	0	506	616
6	0	0	0	0	506	615
7	0	0	0	0	507	616
8	0	0	0	0	507	615
9	0	0	0	0	508	615
10	0	0	0	0	508	615
11	0	0	0	0	507	615
12	0	0	0	0	506	615
13	0	0	0	0	505	615
14	0	0	0	0	504	615
15	0	0	0	0	503	616
0	0	0	0	0	502	615
1	0	0	0	0	502	615
2	0	0	0	0	501	615
3	0	0	0	0	500	616
4	0	0	0	0	499	615
5	0	0	0	0	499	615
6	0	0	0	0	499	615
7	0	0	0	0	498	615
8	0	0	0	0	498	616
9	0	0	0	0	498	616
10	0	0	0	0	498	615
11	0	0	0	0	498	617
12	0	0	0	0	497	616
13	0	0	0	0	497	616
14	0	0	0	0	498	616
15	0	0	0	0	499	616
0	0	0	0	0	500	616
1	0	0	0	0	500	616
2	0	0	0	0	502	616
3	0	0	0	0	502	616
4	0	0	0	0	502	616
5	0	0	0	0	501	616
6	0	0	0	0	501	616
7	0	0	0	0	501	616
8	0	0	0	0	502	616
9	0	0	0	0	502	615
10	0	0	0	0	502	616
11	0	0	0	0	502	617
12	0	0	0	0	502	616
13	0	0	0	0	502	616
14	0	0	0	0	502	616
15	0	0	0	0	501	616
0	0	0	0	0	499	616
1	0	0	0	0	498	615
2	0	0	0	0	497	616
3	0	0	0	0	496	616
4	0	0	0	0	495	616
5	0	0	0	0	494	616
6	0	0	0	0	492	616
7	0	0	0	0	491	617
8	0	0	0	0	489	616
9	0	0	0	0	489	616
10	0	0	0	0	488	616
11	0	0	0	0	488	617
12	0	0	0	0	489	616
13	0	0	0	0	492	616
14	0	0	0	0	494	616
15	0	0	0	0	496	616
0	0	0	0	0	498	616
1	0	0	0	0	500	616
2	0	0	0	0	501	616
3	0	0	0	0	503	617
4	0	0	0	0	503	616
5	0	0	0	0	503	616
6	0	0	0	0	502	616
7	0	0	0	0	502	616
8	0	0	0	0	500	616
9	0	0	0	0	499	616
10	0	0	0	0	499	616
11	0	0	0	0	498	617
12	0	0	0	0	498	616
13	0	0	0	0	497	615
14	0	0	0	0	496	616
15	0	0	0	0	496	616
0	0	0	0	0	494	615
1	0	0	0	0	493	615
2	0	0	0	0	492	616
3	0	0	0	0	494	617
4	0	0	0	0	494	616
5	0	0	0	0	496	616
6	0	0	0	0	497	616
7	0	0	0	0	499	616
8	0	0	0	0	500	615
9	0	0	0	0	501	615
10	0	0	0	0	501	615
11	0	0	0	0	502	615
12	0	0	0	0	502	615
13	0	0	0	0	502	615
14	0	0	0	0	501	615
15	0	0	0	0	500	616
0	0	0	0	0	500	615
1	0	0	0	0	498	615
2	0	0	0	0	496	615
3	0	0	0	0	494	616
4	0	0	0	0	490	615
5	0	0	0	0	487	616
6	0	0	0	0	482	615
7	0	0	0	0	479	616
8	0	0	0	0	476	615
9	0	0	0	0	472	615
10	0	0	0	0	467	615
11	0	0	0	0	465	616
12	0	0	0	0	464	615
13	0	0	0	0	466	615
14	0	0	0	0	468	615
15	0	0	0	0	473	615
0	0	0	0	0	479	616
1	0	0	0	0	486	615
2	0	0	0	0	491	615
3	0	0	0	0	496	615
4	0	0	0	0	502	615
5	0	0	0	0	510	615
6	0	0	0	0	519	615
7	0	0	0	0	531	615
8	0	0	0	0	545	616
9	0	0	0	0	560	615
10	0	0	0	0	577	615
11	0	0	0	0	594	616
12	0	0	0	0	611	615
13	0	0	0	0	629	615
14	0	0	0	0	646	615
15	0	0	0	0	663	615
0	0	0	0	0	678	615
1	0	0	0	0	693	615
2	0	0	0	0	708	615
3	0	0	0	0	721	615
4	0	0	0	0	731	615
5	0	0	0	0	736	615
6	0	0	0	0	737	615
7	0	0	0	0	734	615
8	0	0	0	0	728	615
9	0	0	0	0	719	615
10	0	0	0	0	707	615
11	0	0	0	0	687	615
12	0	0	0	0	664	615
13	0	0	0	0	643	615
14	0	0	0	0	624	615
15	0	0	0	0	607	615
0	0	0	0	0	591	615
1	0	0	0	0	577	615
2	0	0	0	0	564	615
3	0	0	0	0	550	616
4	0	0	0	0	537	615
5	0	0	0	0	526	615
6	0	0	0	0	516	615
7	0	0	0	0	508	615
8	0	0	0	0	502	615
9	0	0	0	0	497	616
10	0	0	0	0	494	616
11	0	0	0	0	489	616
12	0	0	0	0	486	615
13	0	0	0	0	482	615
14	0	0	0	0	478	615
15	0	0	0	0	476	616
0	0	0	0	0	474	615
1	0	0	0	0	472	615
2	0	0	0	0	471	616
3	0	0	0	0	468	616
4	0	0	0	0	467	615
5	0	0	0	0	467	615
6	0	0	0	0	465	615
7	0	0	0	0	465	616
8	0	0	0	0	465	616
9	0	0	0	0	463	615
10	0	0	0	0	463	616
11	0	0	0	0	462	615
12	0	0	0	0	461	615
13	0	0	0	0	460	615
14	0	0	0	0	459	615
15	0	0	0	0	457	615
0	0	0	0	0	456	615
1	0	0	0	0	457	615
2	0	0	0	0	457	615
3	0	0	0	0	457	615
4	0	0	0	0	457	615
5	0	0	0	0	456	615
6	0	0	0	0	455	615
7	0	0	0	0	454	615
8	0	0	0	0	454	616
9	0	0	0	0	454	615
10	0	0	0	0	454	615
11	0	0	0	0	453	615
12	0	0	0	0	454	615
13	0	0	0	0	453	615
14	0	0	0	0	453	615
15	0	0	0	0	452	615
0	0	0	0	0	451	615
1	0	0	0	0	451	615
2	0	0	0	0	451	615
3	0	0	0	0	453	615
4	0	0	0	0	455	615
5	0	0	0	0	456	615
6	0	0	0	0	457	614
7	0	0	0	0	460	615
8	0	0	0	0	461	615
9	0	0	0	0	462	614
10	0	0	0	0	463	614
11	0	0	0	0	464	615
12	0	0	0	0	465	615
13	0	0	0	0	465	614
14	0	0	0	0	465	614
15	0	0	0	0	464	615
0	0	0	0	0	463	614
1	0	0	0	0	463	614
2	0	0	0	0	463	614
3	0	0	0	0	464	614
4	0	0	0	0	465	614
5	0	0	0	0	465	615
6	0	0	0	0	466	614
7	0	0	0	0	466	614
8	0	0	0	0	467	614
9	0	0	0	0	467	614
10	0	0	0	0	468	615
11	0	0	0	0	467	615
12	0	0	0	0	468	615
13	0	0	0	0	468	615
14	0	0	0	0	469	615
15	0	0	0	0	469	615
0	0	0	0	0	468	615
1	0	0	0	0	468	615
2	0	0	0	0	467	615
3	0	0	0	0	468	616
4	0	0	0	0	468	615
5	0	0	0	0	469	615
6	0	0	0	0	471	615
7	0	0	0	0	472	615
8	0	0	0	0	473	615
9	0	0	0	0	472	615
10	0	0	0	0	472	615
11	0	0	0	0	472	616
12	0	0	0	0	472	615
13	0	0	0	0	474	615
14	0	0	0	0	475	615
15	0	0	0	0	476	615
0	0	0	0	0	477	615
1	0	0	0	0	478	615
2	0	0	0	0	479	615
3	0	0	0	0	479	616
4	0	0	0	0	480	615
5	0	0	0	0	480	615
6	0	0	0	0	481	616
7	0	0	0	0	481	616
8	0	0	0	0	482	616
9	0	0	0	0	481	615
10	0	0	0	0	481	615
11	0	0	0	0	482	616
12	0	0	0	0	483	615
13	0	0	0	0	484	615
14	0	0	0	0	484	616
15	0	0	0	0	483	616
0	0	0	0	0	483	616
1	0	0	0	0	482	616
2	0	0	0	0	483	615
3	0	0	0	0	483	616
4	0	0	0	0	483	616
5	0	0	0	0	484	616
6	0	0	0	0	484	616
7	0	0	0	0	486	617
8	0	0	0	0	486	615
9	0	0	0	0	486	617
10	0	0	0	0	485	616
11	0	0	0	0	485	616
12	0	0	0	0	485	616
13	0	0	0	0	486	616
14	0	0	0	0	486	615
15	0	0	0	0	486	616
0	0	0	0	0	486	615
1	0	0	0	0	487	616
2	0	0	0	0	487	615
3	0	0	0	0	488	616
4	0	0	0	0	489	615
5	0	0	0	0	489	615
6	0	0	0	0	491	615
7	0	0	0	0	492	615
8	0	0	0	0	492	615
9	0	0	0	0	493	615
10	0	0	0	0	494	615
11	0	0	0	0	494	616
12	0	0	0	0	494	615
13	0	0	0	0	494	615
14	0	0	0	0	494	615
15	0	0	0	0	495	615
0	0	0	0	0	495	615
1	0	0	0	0	495	615
2	0	0	0	0	494	615
3	0	0	0	0	493	615
4	0	0	0	0	493	615
5	0	0	0	0	492	615
6	0	0	0	0	492	615
7	0	0	0	0	492	615
8	0	0	0	0	492	615
9	0	0	0	0	492	615
10	0	0	0	0	492	615
11	0	0	0	0	492	615
12	0	0	0	0	492	615
13	0	0	0	0	492	615
14	0	0	0	0	493	615
15	0	0	0	0	494	615
0	0	0	0	0	495	615
1	0	0	0	0	496	615
2	0	0	0	0	497	615
3	0	0	0	0	497	615
4	0	0	0	0	496	615
5	0	0	0	0	496	615
6	0	0	0	0	496	615
7	0	0	0	0	496	615
8	0	0	0	0	496	615
9	0	0	0	0	495	616
10	0	0	0	0	496	616
11	0	0	0	0	497	617
12	0	0	0	0	497	616
13	0	0	0	0	497	616
14	0	0	0	0	498	616
15	0	0	0	0	498	617
0	0	0	0	0	498	616
1	0	0	0	0	499	616
2	0	0	0	0	499	616
3	0	0	0	0	499	617
4	0	0	0	0	499	616
5	0	0	0	0	499	616
6	0	0	0	0	499	616
7	0	0	0	0	499	616
8	0	0	0	0	499	616
9	0	0	0	0	500	616
10	0	0	0	0	500	617
11	0	0	0	0	501	617
12	0	0	0	0	501	617
13	0	0	0	0	501	617
14	0	0	0	0	503	617
15	0	0	0	0	503	617
0	0	0	0	0	504	617
1	0	0	0	0	505	617
2	0	0	0	0	506	617
3	0	0	0	0	505	617
4	0	0	0	0	506	616
5	0	0	0	0	507	616
6	0	0	0	0	506	617
7	0	0	0	0	506	617
8	0	0	0	0	506	616
9	0	0	0	0	506	616
10	0	0	0	0	505	617
11	0	0	0	0	505	617
12	0	0	0	0	505	616
13	0	0	0	0	507	616
14	0	0	0	0	509	617
15	0	0	0	0	511	616
0	0	0	0	0	512	617
1	0	0	0	0	513	616
2	0	0	0	0	515	616
3	0	0	0	0	515	617
4	0	0	0	0	516	616
5	0	0	0	0	518	615
6	0	0	0	0	518	615
7	0	0	0	0	519	616
8	0	0	0	0	520	615
9	0	0	0	0	521	615
10	0	0	0	0	523	615
11	0	0	0	0	523	615
12	0	0	0	0	523	615
13	0	0	0	0	524	615
14	0	0	0	0	525	615
15	0	0	0	0	528	615
0	0	0	0	0	529	615
1	0	0	0	0	531	615
2	0	0	0	0	532	615
3	0	0	0	0	534	615
4	0	0	0	0	534	615
5	0	0	0	0	534	615
6	0	0	0	0	534	615
7	0	0	0	0	534	616
8	0	0	0	0	534	616
9	0	0	0	0	534	616
10	0	0	0	0	534	616
11	0	0	0	0	535	616
12	0	0	0	0	537	615
13	0	0	0	0	538	615
14	0	0	0	0	539	616
15	0	0	0	0	539	617
0	0	0	0	0	539	616
1	0	0	0	0	539	616
2	0	0	0	0	538	616
3	0	0	0	0	537	616
4	0	0	0	0	536	616
5	0	0	0	0	536	616
6	0	0	0	0	536	616
7	0	0	0	0	535	616
8	0	0	0	0	535	616
9	0	0	0	0	536	615
10	0	0	0	0	536	615
11	0	0	0	0	537	616
12	0	0	0	0	537	615
13	0	0	0	0	538	615
14	0	0	0	0	540	615
15	0	0	0	0	540	615
0	0	0	0	0	540	615
1	0	0	0	0	541	615
2	0	0	0	0	541	615
3	0	0	0	0	541	615
4	0	0	0	0	540	615
5	0	0	0	0	540	615
6	0	0	0	0	539	615
7	0	0	0	0	538	615
8	0	0	0	0	536	615
9	0	0	0	0	535	615
10	0	0	0	0	533	614
11	0	0	0	0	531	615
12	0	0	0	0	529	615
13	0	0	0	0	528	614
14	0	0	0	0	527	614
15	0	0	0	0	525	615
0	0	0	0	0	524	615
1	0	0	0	0	522	614
2	0	0	0	0	521	615
3	0	0	0	0	519	615
4	0	0	0	0	518	615
5	0	0	0	0	516	615
6	0	0	0	0	515	615
7	0	0	0	0	513	615
8	0	0	0	0	512	615
9	0	0	0	0	510	615
10	0	0	0	0	509	615
11	0	0	0	0	508	616
12	0	0	0	0	505	615
13	0	0	0	0	504	615
14	0	0	0	0	503	615
15	0	0	0	0	502	616
0	0	0	0	0	499	615
1	0	0	0	0	497	616
2	0	0	0	0	495	616
3	0	0	0	0	493	616
4	0	0	0	0	491	616
5	0	0	0	0	490	616
6	0	0	0	0	489	615
7	0	0	0	0	487	616
8	0	0	0	0	486	615
9	0	0	0	0	485	616
10	0	0	0	0	483	616
11	0	0	0	0	482	617
12	0	0	0	0	481	617
13	0	0	0	0	480	616
14	0	0	0	0	478	615
15	0	0	0	0	476	616
0	0	0	0	0	474	616
1	0	0	0	0	472	615
2	0	0	0	0	472	615
3	0	0	0	0	472	616
4	0	0	0	0	472	616
5	0	0	0	0	472	615
6	0	0	0	0	470	616
7	0	0	0	0	470	616
8	0	0	0	0	470	616
9	0	0	0	0	470	616
10	0	0	0	0	470	616
11	0	0	0	0	471	617
12	0	0	0	0	471	616
13	0	0	0	0	471	616
14	0	0	0	0	471	616
15	0	0	0	0	470	616
0	0	0	0	0	471	616
1	0	0	0	0	471	615
2	0	0	0	0	471	615
3	0	0	0	0	471	615
4	0	0	0	0	470	615
5	0	0	0	0	470	615
6	0	0	0	0	470	615
7	0	0	0	0	469	615
8	0	0	0	0	468	615
9	0	0	0	0	468	615
10	0	0	0	0	468	615
11	0	0	0	0	468	615
12	0	0	0	0	468	615
13	0	0	0	0	468	615
14	0	0	0	0	468	615
15	0	0	0	0	468	615
0	0	0	0	0	468	615
1	0	0	0	0	468	616
2	0	0	0	0	468	615
3	0	0	0	0	469	615
4	0	0	0	0	469	615
5	0	0	0	0	470	615
6	0	0	0	0	471	615
7	0	0	0	0	470	616
8	0	0	0	0	470	615
9	0	0	0	0	468	615
10	0	0	0	0	467	615
11	0	0	0	0	467	616
12	0	0	0	0	467	615
13	0	0	0	0	468	615
14	0	0	0	0	470	615
15	0	0	0	0	470	616
0	0	0	0	0	472	616
1	0	0	0	0	473	615
2	0	0	0	0	474	615
3	0	0	0	0	475	616
4	0	0	0	0	475	616
5	0	0	0	0	476	616
6	0	0	0	0	477	616
7	0	0	0	0	478	616
8	0	0	0	0	480	617
9	0	0	0	0	480	617
10	0	0	0	0	480	616
11	0	0	0	0	480	617
12	0	0	0	0	479	616
13	0	0	0	0	480	616
14	0	0	0	0	480	616
15	0	0	0	0	479	616
0	0	0	0	0	479	616
1	0	0	0	0	479	616
2	0	0	0	0	479	615
3	0	0	0	0	479	616
4	0	0	0	0	480	616
5	0	0	0	0	480	615
6	0	0	0	0	481	616
7	0	0	0	0	480	616
8	0	0	0	0	481	616
9	0	0	0	0	480	615
10	0	0	0	0	480	615
11	0	0	0	0	480	615
12	0	0	0	0	480	615
13	0	0	0	0	480	615
14	0	0	0	0	481	615
15	0	0	0	0	483	615
0	0	0	0	0	484	615
1	0	0	0	0	485	615
2	0	0	0	0	486	615
3	0	0	0	0	486	615
4	0	0	0	0	486	614
5	0	0	0	0	486	615
6	0	0	0	0	486	614
7	0	0	0	0	487	615
8	0	0	0	0	487	615
9	0	0	0	0	488	615
10	0	0	0	0	488	615
11	0	0	0	0	489	615
12	0	0	0	0	491	615
13	0	0	0	0	491	615
14	0	0	0	0	492	615
15	0	0	0	0	492	615
0	0	0	0	0	492	615
1	0	0	0	0	491	615
2	0	0	0	0	492	615
3	0	0	0	0	494	615
4	0	0	0	0	496	615
5	0	0	0	0	497	615
6	0	0	0	0	497	616
7	0	0	0	0	497	615
8	0	0	0	0	498	615
9	0	0	0	0	498	615
10	0	0	0	0	500	615
11	0	0	0	0	501	616
12	0	0	0	0	502	615
13	0	0	0	0	503	615
14	0	0	0	0	503	615
15	0	0	0	0	503	615
0	0	0	0	0	503	616
1	0	0	0	0	502	615
2	0	0	0	0	502	616
3	0	0	0	0	502	616
4	0	0	0	0	502	615
5	0	0	0	0	501	615
6	0	0	0	0	500	615
7	0	0	0	0	500	616
8	0	0	0	0	500	615
9	0	0	0	0	500	616
10	0	0	0	0	500	615
11	0	0	0	0	499	615
12	0	0	0	0	499	615
13	0	0	0	0	499	616
14	0	0	0	0	499	615
15	0	0	0	0	499	616
0	0	0	0	0	498	615
1	0	0	0	0	498	615
2	0	0	0	0	499	615
3	0	0	0	0	498	616
4	0	0	0	0	499	615
5	0	0	0	0	499	616
6	0	0	0	0	499	615
7	0	0	0	0	498	615
8	0	0	0	0	498	615
9	0	0	0	0	498	615
10	0	0	0	0	498	616
11	0	0	0	0	498	616
12	0	0	0	0	499	615
13	0	0	0	0	500	615
14	0	0	0	0	501	615
15	0	0	0	0	502	615
0	0	0	0	0	503	615
1	0	0	0	0	504	615
2	0	0	0	0	504	615
3	0	0	0	0	504	615
4	0	0	0	0	504	615
5	0	0	0	0	505	615
6	0	0	0	0	505	615
7	0	0	0	0	506	615
8	0	0	0	0	505	615
9	0	0	0	0	504	615
10	0	0	0	0	503	615
11	0	0	0	0	503	616
12	0	0	0	0	502	615
13	0	0	0	0	502	615
14	0	0	0	0	503	615
15	0	0	0	0	503	615
0	0	0	0	0	504	615
1	0	0	0	0	504	615
2	0	0	0	0	504	615
3	0	0	0	0	504	615
4	0	0	0	0	504	615
5	0	0	0	0	504	615
6	0	0	0	0	505	614
7	0	0	0	0	505	615
8	0	0	0	0	506	614
9	0	0	0	0	505	614
10	0	0	0	0	507	615
11	0	0	0	0	506	615
12	0	0	0	0	507	615
13	0	0	0	0	506	614
14	0	0	0	0	507	614
15	0	0	0	0	507	615
0	0	0	0	0	507	615
1	0	0	0	0	507	615
2	0	0	0	0	505	615
3	0	0	0	0	505	615
4	0	0	0	0	505	615
5	0	0	0	0	505	615
6	0	0	0	0	505	615
7	0	0	0	0	506	616
8	0	0	0	0	506	615
9	0	0	0	0	506	615
10	0	0	0	0	505	615
11	0	0	0	0	504	615
12	0	0	0	0	504	615
13	0	0	0	0	503	615
14	0	0	0	0	504	615
15	0	0	0	0	504	615
0	0	0	0	0	505	615
1	0	0	0	0	504	615
2	0	0	0	0	504	615
3	0	0	0	0	504	616
4	0	0	0	0	505	616
5	0	0	0	0	504	616
6	0	0	0	0	504	615
7	0	0	0	0	504	616
8	0	0	0	0	504	617
9	0	0	0	0	504	616
10	0	0	0	0	504	616
11	0	0	0	0	504	617
12	0	0	0	0	504	617
13	0	0	0	0	503	616
14	0	0	0	0	503	616
15	0	0	0	0	503	617
0	0	0	0	0	503	616
1	0	0	0	0	504	616
2	0	0	0	0	504	616
3	0	0	0	0	505	617
4	0	0	0	0	504	616
5	0	0	0	0	504	617
6	0	0	0	0	504	617
7	0	0	0	0	504	617
8	0	0	0	0	503	617
9	0	0	0	0	503	616
10	0	0	0	0	504	616
11	0	0	0	0	504	617
12	0	0	0	0	504	617
13	0	0	0	0	504	616
14	0	0	0	0	504	617
15	0	0	0	0	504	616
0	0	0	0	0	504	616
1	0	0	0	0	503	616
2	0	0	0	0	503	616
3	0	0	0	0	502	617
4	0	0	0	0	501	616
5	0	0	0	0	499	616
6	0	0	0	0	498	617
7	0	0	0	0	497	616
8	0	0	0	0	497	615
9	0	0	0	0	497	616
10	0	0	0	0	498	615
11	0	0	0	0	499	617
12	0	0	0	0	502	616
13	0	0	0	0	503	616
14	0	0	0	0	504	616
15	0	0	0	0	505	617
0	0	0	0	0	507	617
1	0	0	0	0	508	616
2	0	0	0	0	509	616
3	0	0	0	0	509	616
4	0	0	0	0	510	616
5	0	0	0	0	510	617
6	0	0	0	0	510	616
7	0	0	0	0	511	616
8	0	0	0	0	510	616
9	0	0	0	0	510	616
10	0	0	0	0	510	616
11	0	0	0	0	509	617
12	0	0	0	0	510	616
13	0	0	0	0	510	616
14	0	0	0	0	510	616
15	0	0	0	0	510	616
0	0	0	0	0	510	616
1	0	0	0	0	510	616
2	0	0	0	0	509	617
3	0	0	0	0	508	616
4	0	0	0	0	507	616
5	0	0	0	0	506	616
6	0	0	0	0	505	616
7	0	0	0	0	504	617
8	0	0	0	0	504	616
9	0	0	0	0	504	617
10	0	0	0	0	505	617
11	0	0	0	0	505	617
12	0	0	0	0	506	617
13	0	0	0	0	507	616
14	0	0	0	0	507	616
15	0	0	0	0	508	616
0	0	0	0	0	509	616
1	0	0	0	0	510	616
2	0	0	0	0	510	616
3	0	0	0	0	510	617
4	0	0	0	0	511	616
5	0	0	0	0	511	616
6	0	0	0	0	510	616
7	0	0	0	0	509	616
8	0	0	0	0	508	616
9	0	0	0	0	508	616
10	0	0	0	0	507	616
11	0	0	0	0	506	617
12	0	0	0	0	505	616
13	0	0	0	0	504	616
14	0	0	0	0	504	616
15	0	0	0	0	504	616
0	0	0	0	0	504	616
1	0	0	0	0	504	616
2	0	0	0	0	504	617
3	0	0	0	0	505	616
4	0	0	0	0	505	615
5	0	0	0	0	504	615
6	0	0	0	0	505	616
7	0	0	0	0	505	616
8	0	0	0	0	506	616
9	0	0	0	0	506	617
10	0	0	0	0	506	615
11	0	0	0	0	507	616
12	0	0	0	0	507	616
13	0	0	0	0	507	616
14	0	0	0	0	507	616
15	0	0	0	0	507	616
0	0	0	0	0	508	615
1	0	0	0	0	508	615
2	0	0	0	0	509	615
3	0	0	0	0	511	616
4	0	0	0	0	511	615
5	0	0	0	0	512	615
6	0	0	0	0	513	615
7	0	0	0	0	514	616
8	0	0	0	0	514	616
9	0	0	0	0	513	615
10	0	0	0	0	513	615
11	0	0	0	0	512	615
12	0	0	0	0	513	615
13	0	0	0	0	513	615
14	0	0	0	0	512	615
15	0	0	0	0	513	615
0	0	0	0	0	513	615
1	0	0	0	0	514	616
2	0	0	0	0	515	616
3	0	0	0	0	516	616
4	0	0	0	0	516	615
5	0	0	0	0	517	615
6	0	0	0	0	517	616
7	0	0	0	0	517	616
8	0	0	0	0	517	615
9	0	0	0	0	517	615
10	0	0	0	0	518	615
11	0	0	0	0	518	616
12	0	0	0	0	516	615
13	0	0	0	0	515	616
14	0	0	0	0	516	616
15	0	0	0	0	515	616
0	0	0	0	0	515	615
1	0	0	0	0	515	615
2	0	0	0	0	515	615
3	0	0	0	0	515	616
4	0	0	0	0	515	615
5	0	0	0	0	516	615
6	0	0	0	0	515	615
7	0	0	0	0	515	615
8	0	0	0	0	515	615
9	0	0	0	0	514	615
10	0	0	0	0	513	616
11	0	0	0	0	511	616
12	0	0	0	0	510	615
13	0	0	0	0	508	616
14	0	0	0	0	506	615
15	0	0	0	0	505	615
0	0	0	0	0	504	616
1	0	0	0	0	503	615
2	0	0	0	0	503	616
3	0	0	0	0	503	617
4	0	0	0	0	503	617
5	0	0	0	0	504	616
6	0	0	0	0	504	615
7	0	0	0	0	504	616
8	0	0	0	0	505	616
9	0	0	0	0	505	615
10	0	0	0	0	505	615
11	0	0	0	0	506	616
12	0	0	0	0	506	615
13	0	0	0	0	506	615
14	0	0	0	0	506	615
15	0	0	0	0	505	615
0	0	0	0	0	505	616
1	0	0	0	0	505	615
2	0	0	0	0	505	615
3	0	0	0	0	505	616
4	0	0	0	0	505	615
5	0	0	0	0	505	615
6	0	0	0	0	504	616
7	0	0	0	0	504	615
8	0	0	0	0	504	615
9	0	0	0	0	504	615
10	0	0	0	0	504	615
11	0	0	0	0	504	616
12	0	0	0	0	505	615
13	0	0	0	0	505	615
14	0	0	0	0	507	616
15	0	0	0	0	507	615
0	0	0	0	0	507	615
1	0	0	0	0	506	615
2	0	0	0	0	506	615
3	0	0	0	0	507	615
4	0	0	0	0	507	615
5	0	0	0	0	507	615
6	0	0	0	0	507	615
7	0	0	0	0	507	615
8	0	0	0	0	508	615
9	0	0	0	0	507	615
10	0	0	0	0	507	615
11	0	0	0	0	507	616
12	0	0	0	0	507	615
13	0	0	0	0	505	615
14	0	0	0	0	505	615
15	0	0	0	0	505	615
0	0	0	0	0	506	615
1	0	0	0	0	505	615
2	0	0	0	0	505	615
3	0	0	0	0	504	615
4	0	0	0	0	504	615
5	0	0	0	0	504	615
6	0	0	0	0	504	615
7	0	0	0	0	505	615
8	0	0	0	0	506	615
9	0	0	0	0	506	615
10	0	0	0	0	506	615
11	0	0	0	0	506	616
12	0	0	0	0	506	615
13	0	0	0	0	505	616
14	0	0	0	0	505	615
15	0	0	0	0	505	616
0	0	0	0	0	504	615
1	0	0	0	0	504	615
2	0	0	0	0	504	616
3	0	0	0	0	504	617
4	0	0	0	0	503	616
5	0	0	0	0	503	615
6	0	0	0	0	503	616
7	0	0	0	0	504	615
8	0	0	0	0	505	615
9	0	0	0	0	505	615
10	0	0	0	0	506	615
11	0	0	0	0	506	616
12	0	0	0	0	506	615
13	0	0	0	0	506	616
14	0	0	0	0	506	615
15	0	0	0	0	505	615
0	0	0	0	0	504	616
1	0	0	0	0	503	616
2	0	0	0	0	500	615
3	0	0	0	0	497	616
4	0	0	0	0	492	615
5	0	0	0	0	487	615
6	0	0	0	0	482	615
7	0	0	0	0	476	616
8	0	0	0	0	470	615
9	0	0	0	0	464	615
10	0	0	0	0	460	615
11	0	0	0	0	459	616
12	0	0	0	0	460	615
13	0	0	0	0	464	615
14	0	0	0	0	471	615
15	0	0	0	0	477	616
0	0	0	0	0	484	615
1	0	0	0	0	492	615
2	0	0	0	0	498	615
3	0	0	0	0	505	616
4	0	0	0	0	513	616
5	0	0	0	0	524	615
6	0	0	0	0	537	615
7	0	0	0	0	551	615
8	0	0	0	0	567	615
9	0	0	0	0	583	615
10	0	0	0	0	599	615
11	0	0	0	0	614	616
12	0	0	0	0	631	615
13	0	0	0	0	647	615
14	0	0	0	0	664	615
15	0	0	0	0	679	615
0	0	0	0	0	695	615
1	0	0	0	0	712	615
2	0	0	0	0	726	615
3	0	0	0	0	737	616
4	0	0	0	0	746	615
5	0	0	0	0	752	615
6	0	0	0	0	752	615
7	0	0	0	0	748	615
8	0	0	0	0	741	615
9	0	0	0	0	732	615
10	0	0	0	0	714	615
11	0	0	0	0	691	615
12	0	0	0	0	668	615
13	0	0	0	0	646	615
14	0	0	0	0	626	615
15	0	0	0	0	608	615
0	0	0	0	0	591	615
1	0	0	0	0	577	615
2	0	0	0	0	563	615
3	0	0	0	0	549	615
4	0	0	0	0	537	615
5	0	0	0	0	527	616
6	0	0	0	0	519	615
7	0	0	0	0	512	615
8	0	0	0	0	507	615
9	0	0	0	0	501	615
10	0	0	0	0	496	615
11	0	0	0	0	492	616
12	0	0	0	0	489	615
13	0	0	0	0	487	615
14	0	0	0	0	484	615
15	0	0	0	0	481	615
0	0	0	0	0	478	615
1	0	0	0	0	475	615
2	0	0	0	0	473	615
3	0	0	0	0	472	615
4	0	0	0	0	470	616
5	0	0	0	0	469	616
6	0	0	0	0	468	616
7	0	0	0	0	467	615
8	0	0	0	0	465	615
9	0	0	0	0	464	616
10	0	0	0	0	463	615
11	0	0	0	0	461	616
12	0	0	0	0	460	615
13	0	0	0	0	459	615
14	0	0	0	0	459	615
15	0	0	0	0	458	616
0	0	0	0	0	457	615
1	0	0	0	0	457	616
2	0	0	0	0	457	616
3	0	0	0	0	457	616
4	0	0	0	0	457	616
5	0	0	0	0	458	616
6	0	0	0	0	458	616
7	0	0	0	0	459	616
8	0	0	0	0	459	616
9	0	0	0	0	460	616
10	0	0	0	0	461	616
11	0	0	0	0	462	616
12	0	0	0	0	464	615
13	0	0	0	0	465	615
14	0	0	0	0	466	616
15	0	0	0	0	466	616
0	0	0	0	0	466	615
1	0	0	0	0	467	615
2	0	0	0	0	467	615
3	0	0	0	0	467	615
4	0	0	0	0	467	615
5	0	0	0	0	467	615
6	0	0	0	0	467	615
7	0	0	0	0	468	616
8	0	0	0	0	468	616
9	0	0	0	0	468	615
10	0	0	0	0	467	615
11	0	0	0	0	468	616
12	0	0	0	0	468	615
13	0	0	0	0	468	615
14	0	0	0	0	468	615
15	0	0	0	0	467	615
0	0	0	0	0	466	615
1	0	0	0	0	465	615
2	0	0	0	0	465	615
3	0	0	0	0	464	615
4	0	0	0	0	464	615
5	0	0	0	0	465	615
6	0	0	0	0	466	615
7	0	0	0	0	467	615
8	0	0	0	0	468	615
9	0	0	0	0	470	615
10	0	0	0	0	470	615
11	0	0	0	0	471	616
12	0	0	0	0	472	615
13	0	0	0	0	473	615
14	0	0	0	0	474	616
15	0	0	0	0	475	616
0	0	0	0	0	476	615
1	0	0	0	0	476	616
2	0	0	0	0	476	616
3	0	0	0	0	476	616
4	0	0	0	0	476	616
5	0	0	0	0	477	616
6	0	0	0	0	477	616
7	0	0	0	0	477	616
8	0	0	0	0	477	615
9	0	0	0	0	476	616
10	0	0	0	0	475	616
11	0	0	0	0	475	616
12	0	0	0	0	475	616
13	0	0	0	0	477	616
14	0	0	0	0	478	615
15	0	0	0	0	479	616
0	0	0	0	0	479	616
1	0	0	0	0	480	616
2	0	0	0	0	481	616
3	0	0	0	0	482	617
4	0	0	0	0	484	616
5	0	0	0	0	485	616
6	0	0	0	0	484	616
7	0	0	0	0	483	616
8	0	0	0	0	483	617
9	0	0	0	0	483	616
10	0	0	0	0	482	616
11	0	0	0	0	482	617
12	0	0	0	0	482	616
13	0	0	0	0	481	617
14	0	0	0	0	481	616
15	0	0	0	0	482	616
0	0	0	0	0	483	616
1	0	0	0	0	483	616
2	0	0	0	0	483	615
3	0	0	0	0	484	617
4	0	0	0	0	484	616
5	0	0	0	0	484	616
6	0	0	0	0	483	616
7	0	0	0	0	483	616
8	0	0	0	0	483	616
9	0	0	0	0	483	616
10	0	0	0	0	483	616
11	0	0	0	0	484	616
12	0	0	0	0	485	615
13	0	0	0	0	486	616
14	0	0	0	0	487	615
15	0	0	0	0	489	616
0	0	0	0	0	489	616
1	0	0	0	0	490	616
2	0	0	0	0	491	615
3	0	0	0	0	491	616
4	0	0	0	0	491	615
5	0	0	0	0	490	615
6	0	0	0	0	489	616
7	0	0	0	0	489	615
8	0	0	0	0	489	615
9	0	0	0	0	488	615
10	0	0	0	0	489	615
11	0	0	0	0	490	615
12	0	0	0	0	491	615
13	0	0	0	0	491	615
14	0	0	0	0	492	615
15	0	0	0	0	491	615
0	0	0	0	0	491	615
1	0	0	0	0	491	615
2	0	0	0	0	491	615
3	0	0	0	0	492	615
4	0	0	0	0	492	615
5	0	0	0	0	491	615
6	0	0	0	0	492	615
7	0	0	0	0	491	615
8	0	0	0	0	491	615
9	0	0	0	0	492	615
10	0	0	0	0	493	615
11	0	0	0	0	493	616
12	0	0	0	0	492	616
13	0	0	0	0	490	616
14	0	0	0	0	489	616
15	0	0	0	0	489	616
0	0	0	0	0	489	616
1	0	0	0	0	489	616
2	0	0	0	0	489	616
3	0	0	0	0	488	617
4	0	0	0	0	489	616
5	0	0	0	0	489	616
6	0	0	0	0	491	617
7	0	0	0	0	491	617
8	0	0	0	0	492	617
9	0	0	0	0	493	617
10	0	0	0	0	494	617
11	0	0	0	0	494	618
12	0	0	0	0	494	617
13	0	0	0	0	494	617
14	0	0	0	0	494	617
15	0	0	0	0	495	618
0	0	0	0	0	495	617
1	0	0	0	0	497	618
2	0	0	0	0	497	617
3	0	0	0	0	499	619
4	0	0	0	0	499	617
5	0	0	0	0	499	618
6	0	0	0	0	499	617
7	0	0	0	0	499	618
8	0	0	0	0	499	618
9	0	0	0	0	499	617
10	0	0	0	0	498	617
11	0	0	0	0	497	618
12	0	0	0	0	497	617
13	0	0	0	0	497	617
14	0	0	0	0	498	617
15	0	0	0	0	499	617
0	0	0	0	0	499	617
1	0	0	0	0	499	617
2	0	0	0	0	499	617
3	0	0	0	0	499	618
4	0	0	0	0	499	617
5	0	0	0	0	499	617
6	0	0	0	0	500	617
7	0	0	0	0	501	618
8	0	0	0	0	502	617
9	0	0	0	0	502	617
10	0	0	0	0	501	616
11	0	0	0	0	502	617
12	0	0	0	0	503	617
13	0	0	0	0	504	617
14	0	0	0	0	505	617
15	0	0	0	0	505	617
0	0	0	0	0	506	617
1	0	0	0	0	507	616
2	0	0	0	0	507	616
3	0	0	0	0	507	617
4	0	0	0	0	508	616
5	0	0	0	0	510	616
6	0	0	0	0	511	616
7	0	0	0	0	512	616
8	0	0	0	0	513	616
9	0	0	0	0	515	616
10	0	0	0	0	515	616
11	0	0	0	0	515	616
12	0	0	0	0	515	615
13	0	0	0	0	516	616
14	0	0	0	0	518	615
15	0	0	0	0	518	615
0	0	0	0	0	519	615
1	0	0	0	0	519	615
2	0	0	0	0	520	615
3	0	0	0	0	521	617
4	0	0	0	0	520	616
5	0	0	0	0	520	616
6	0	0	0	0	521	615
7	0	0	0	0	521	616
8	0	0	0	0	522	616
9	0	0	0	0	523	615
10	0	0	0	0	524	615
11	0	0	0	0	525	616
12	0	0	0	0	525	615
13	0	0	0	0	526	615
14	0	0	0	0	527	615
15	0	0	0	0	527	615
0	0	0	0	0	527	615
1	0	0	0	0	527	615
2	0	0	0	0	527	615
3	0	0	0	0	527	616
4	0	0	0	0	527	615
5	0	0	0	0	526	615
6	0	0	0	0	525	615
7	0	0	0	0	524	615
8	0	0	0	0	524	615
9	0	0	0	0	525	615
10	0	0	0	0	527	615
11	0	0	0	0	528	615
12	0	0	0	0	529	615
13	0	0	0	0	530	615
14	0	0	0	0	531	614
15	0	0	0	0	530	615
0	0	0	0	0	531	615
1	0	0	0	0	531	615
2	0	0	0	0	530	614
3	0	0	0	0	529	615
4	0	0	0	0	528	614
5	0	0	0	0	527	614
6	0	0	0	0	526	614
7	0	0	0	0	526	614
8	0	0	0	0	526	615
9	0	0	0	0	525	614
10	0	0	0	0	524	614
11	0	0	0	0	523	614
12	0	0	0	0	523	614
13	0	0	0	0	522	614
14	0	0	0	0	522	614
15	0	0	0	0	521	615
0	0	0	0	0	520	614
1	0	0	0	0	519	614
2	0	0	0	0	516	614
3	0	0	0	0	513	615
4	0	0	0	0	511	614
5	0	0	0	0	509	615
6	0	0	0	0	507	615
7	0	0	0	0	504	615
8	0	0	0	0	503	615
9	0	0	0	0	502	614
10	0	0	0	0	500	614
11	0	0	0	0	498	615
12	0	0	0	0	496	614
13	0	0	0	0	494	615
14	0	0	0	0	492	615
15	0	0	0	0	490	616
0	0	0	0	0	488	615
1	0	0	0	0	487	615
2	0	0	0	0	486	615
3	0	0	0	0	484	615
4	0	0	0	0	483	615
5	0	0	0	0	481	615
6	0	0	0	0	481	615
7	0	0	0	0	480	615
8	0	0	0	0	479	615
9	0	0	0	0	478	614
10	0	0	0	0	478	614
11	0	0	0	0	476	615
12	0	0	0	0	474	615
13	0	0	0	0	472	615
14	0	0	0	0	471	615
15	0	0	0	0	470	615
0	0	0	0	0	470	614
1	0	0	0	0	469	615
2	0	0	0	0	468	614
3	0	0	0	0	467	615
4	0	0	0	0	467	615
5	0	0	0	0	465	614
6	0	0	0	0	464	614
7	0	0	0	0	463	615
8	0	0	0	0	462	615
9	0	0	0	0	462	614
10	0	0	0	0	461	614
11	0	0	0	0	461	615
12	0	0	0	0	462	614
13	0	0	0	0	462	613
14	0	0	0	0	461	614
15	0	0	0	0	461	614
0	0	0	0	0	462	614
1	0	0	0	0	463	614
2	0	0	0	0	463	614
3	0	0	0	0	463	615
4	0	0	0	0	464	614
5	0	0	0	0	464	615
6	0	0	0	0	464	615
7	0	0	0	0	464	615
8	0	0	0	0	463	614
9	0	0	0	0	463	615
10	0	0	0	0	463	615
11	0	0	0	0	464	615
12	0	0	0	0	464	614
13	0	0	0	0	464	615
14	0	0	0	0	464	614
15	0	0	0	0	465	615
0	0	0	0	0	465	614
1	0	0	0	0	466	614
2	0	0	0	0	467	615
3	0	0	0	0	468	615
4	0	0	0	0	467	614
5	0	0	0	0	468	614
6	0	0	0	0	468	615
7	0	0	0	0	468	614
8	0	0	0	0	468	614
9	0	0	0	0	468	615
10	0	0	0	0	468	614
11	0	0	0	0	468	615
12	0	0	0	0	469	614
13	0	0	0	0	469	615
14	0	0	0	0	468	615
15	0	0	0	0	468	615
0	0	0	0	0	468	615
1	0	0	0	0	469	615
2	0	0	0	0	468	615
3	0	0	0	0	468	615
4	0	0	0	0	470	615
5	0	0	0	0	471	616
6	0	0	0	0	472	616
7	0	0	0	0	473	616
8	0	0	0	0	474	616
9	0	0	0	0	475	616
10	0	0	0	0	474	615
11	0	0	0	0	474	616
12	0	0	0	0	474	616
13	0	0	0	0	474	616
14	0	0	0	0	475	616
15	0	0	0	0	475	616
0	0	0	0	0	475	616
1	0	0	0	0	473	616
2	0	0	0	0	473	616
3	0	0	0	0	473	616
4	0	0	0	0	474	616
5	0	0	0	0	474	617
6	0	0	0	0	474	615
7	0	0	0	0	474	615
8	0	0	0	0	474	616
9	0	0	0	0	473	615
10	0	0	0	0	473	615
11	0	0	0	0	472	616
12	0	0	0	0	473	615
13	0	0	0	0	473	615
14	0	0	0	0	473	615
15	0	0	0	0	473	615
0	0	0	0	0	473	615
1	0	0	0	0	473	615
2	0	0	0	0	472	615
3	0	0	0	0	472	615
4	0	0	0	0	472	615
5	0	0	0	0	473	615
6	0	0	0	0	474	615
7	0	0	0	0	475	616
8	0	0	0	0	476	615
9	0	0	0	0	478	615
10	0	0	0	0	480	615
11	0	0	0	0	481	615
12	0	0	0	0	482	615
13	0	0	0	0	483	615
14	0	0	0	0	483	616
15	0	0	0	0	484	615
0	0	0	0	0	486	615
1	0	0	0	0	486	616
2	0	0	0	0	486	615
3	0	0	0	0	485	616
4	0	0	0	0	484	615
5	0	0	0	0	483	615
6	0	0	0	0	484	616
7	0	0	0	0	484	617
8	0	0	0	0	483	616
9	0	0	0	0	483	616
10	0	0	0	0	482	615
11	0	0	0	0	483	617
12	0	0	0	0	482	616
13	0	0	0	0	481	617
14	0	0	0	0	482	616
15	0	0	0	0	483	618
0	0	0	0	0	483	617
1	0	0	0	0	483	617
2	0	0	0	0	483	616
3	0	0	0	0	482	617
4	0	0	0	0	483	616
5	0	0	0	0	486	617
6	0	0	0	0	488	616
7	0	0	0	0	489	617
8	0	0	0	0	489	617
9	0	0	0	0	490	617
10	0	0	0	0	491	617
11	0	0	0	0	493	617
12	0	0	0	0	494	617
13	0	0	0	0	494	617
14	0	0	0	0	494	617
15	0	0	0	0	494	617
0	0	0	0	0	493	617
1	0	0	0	0	493	616
2	0	0	0	0	492	616
3	0	0	0	0	493	617
4	0	0	0	0	492	617
5	0	0	0	0	493	616
6	0	0	0	0	494	617
7	0	0	0	0	494	616
8	0	0	0	0	495	617
9	0	0	0	0	495	616
10	0	0	0	0	496	616
11	0	0	0	0	495	617
12	0	0	0	0	495	616
13	0	0	0	0	496	616
14	0	0	0	0	497	616
15	0	0	0	0	497	617
0	0	0	0	0	498	616
1	0	0	0	0	499	616
2	0	0	0	0	498	616
3	0	0	0	0	497	616
4	0	0	0	0	497	616
5	0	0	0	0	496	615
6	0	0	0	0	496	615
7	0	0	0	0	497	616
8	0	0	0	0	497	616
9	0	0	0	0	498	615
10	0	0	0	0	498	615
11	0	0	0	0	499	615
12	0	0	0	0	500	615
13	0	0	0	0	500	615
14	0	0	0	0	499	615
15	0	0	0	0	499	615
0	0	0	0	0	499	615
1	0	0	0	0	499	615
2	0	0	0	0	500	615
3	0	0	0	0	500	615
4	0	0	0	0	501	615
5	0	0	0	0	501	615
6	0	0	0	0	501	615
7	0	0	0	0	501	615
8	0	0	0	0	502	615
9	0	0	0	0	502	615
10	0	0	0	0	502	615
11	0	0	0	0	501	615
12	0	0	0	0	501	615
13	0	0	0	0	501	615
14	0	0	0	0	501	614
15	0	0	0	0	502	615
0	0	0	0	0	501	615
1	0	0	0	0	500	615
2	0	0	0	0	502	615
3	0	0	0	0	503	615
4	0	0	0	0	503	615
5	0	0	0	0	503	615
6	0	0	0	0	503	615
7	0	0	0	0	503	615
8	0	0	0	0	503	614
9	0	0	0	0	504	615
10	0	0	0	0	503	615
11	0	0	0	0	503	616
12	0	0	0	0	503	615
13	0	0	0	0	502	615
14	0	0	0	0	502	615
15	0	0	0	0	501	615
0	0	0	0	0	502	615
1	0	0	0	0	501	615
2	0	0	0	0	501	615
3	0	0	0	0	501	615
4	0	0	0	0	501	615
5	0	0	0	0	502	615
6	0	0	0	0	502	615
7	0	0	0	0	502	616
8	0	0	0	0	503	615
9	0	0	0	0	503	616
10	0	0	0	0	504	616
11	0	0	0	0	504	616
12	0	0	0	0	505	615
13	0	0	0	0	507	616
14	0	0	0	0	507	615
15	0	0	0	0	507	615
0	0	0	0	0	507	615
1	0	0	0	0	507	615
2	0	0	0	0	506	616
3	0	0	0	0	506	616
4	0	0	0	0	506	616
5	0	0	0	0	505	616
6	0	0	0	0	505	615
7	0	0	0	0	504	617
8	0	0	0	0	504	615
9	0	0	0	0	504	616
10	0	0	0	0	504	616
11	0	0	0	0	504	616
12	0	0	0	0	505	616
13	0	0	0	0	506	616
14	0	0	0	0	507	616
15	0	0	0	0	507	616
0	0	0	0	0	508	616
1	0	0	0	0	507	616
2	0	0	0	0	506	616
3	0	0	0	0	505	617
4	0	0	0	0	504	617
5	0	0	0	0	505	616
6	0	0	0	0	505	616
7	0	0	0	0	506	617
8	0	0	0	0	507	616
9	0	0	0	0	508	617
10	0	0	0	0	509	616
11	0	0	0	0	509	617
12	0	0	0	0	508	616
13	0	0	0	0	508	616
14	0	0	0	0	507	616
15	0	0	0	0	507	616
0	0	0	0	0	506	616
1	0	0	0	0	506	616
2	0	0	0	0	506	616
3	0	0	0	0	507	617
4	0	0	0	0	507	615
5	0	0	0	0	507	616
6	0	0	0	0	507	615
7	0	0	0	0	508	616
8	0	0	0	0	508	616
9	0	0	0	0	508	616
10	0	0	0	0	508	616
11	0	0	0	0	509	615
12	0	0	0	0	509	615
13	0	0	0	0	509	615
14	0	0	0	0	509	615
15	0	0	0	0	509	616
0	0	0	0	0	508	615
1	0	0	0	0	507	615
2	0	0	0	0	507	616
3	0	0	0	0	507	616
4	0	0	0	0	507	616
5	0	0	0	0	507	615
6	0	0	0	0	508	616
7	0	0	0	0	508	616
8	0	0	0	0	508	616
9	0	0	0	0	508	616
10	0	0	0	0	508	615
11	0	0	0	0	508	615
12	0	0	0	0	507	615
13	0	0	0	0	507	616
14	0	0	0	0	507	616
15	0	0	0	0	507	616
0	0	0	0	0	507	616
1	0	0	0	0	508	616
2	0	0	0	0	508	616
3	0	0	0	0	509	616
4	0	0	0	0	508	616
5	0	0	0	0	507	616
6	0	0	0	0	507	616
7	0	0	0	0	506	616
8	0	0	0	0	506	616
9	0	0	0	0	506	616
10	0	0	0	0	507	616
11	0	0	0	0	508	616
12	0	0	0	0	508	616
13	0	0	0	0	508	616
14	0	0	0	0	508	616
15	0	0	0	0	508	616
0	0	0	0	0	509	616
1	0	0	0	0	508	616
2	0	0	0	0	509	616
3	0	0	0	0	508	617
4	0	0	0	0	507	615
5	0	0	0	0	507	616
6	0	0	0	0	506	615
7	0	0	0	0	505	616
8	0	0	0	0	505	615
9	0	0	0	0	506	615
10	0	0	0	0	505	615
11	0	0	0	0	505	615
12	0	0	0	0	506	615
13	0	0	0	0	507	615
14	0	0	0	0	507	615
15	0	0	0	0	507	615
0	0	0	0	0	506	615
1	0	0	0	0	507	615
2	0	0	0	0	509	615
3	0	0	0	0	509	615
4	0	0	0	0	510	615
5	0	0	0	0	510	614
6	0	0	0	0	511	615
7	0	0	0	0	512	614
8	0	0	0	0	513	615
9	0	0	0	0	514	615
10	0	0	0	0	514	614
11	0	0	0	0	515	615
12	0	0	0	0	514	614
13	0	0	0	0	515	615
14	0	0	0	0	515	615
15	0	0	0	0	515	615
0	0	0	0	0	515	615
1	0	0	0	0	515	615
2	0	0	0	0	515	615
3	0	0	0	0	515	615
4	0	0	0	0	515	615
5	0	0	0	0	515	615
6	0	0	0	0	517	615
7	0	0	0	0	518	615
8	0	0	0	0	519	615
9	0	0	0	0	522	615
10	0	0	0	0	524	615
11	0	0	0	0	524	615
12	0	0	0	0	524	615
13	0	0	0	0	524	615
14	0	0	0	0	526	615
15	0	0	0	0	528	616
0	0	0	0	0	529	615
1	0	0	0	0	529	615
2	0	0	0	0	529	615
3	0	0	0	0	528	615
4	0	0	0	0	528	615
5	0	0	0	0	529	615
6	0	0	0	0	531	615
7	0	0	0	0	532	615
8	0	0	0	0	533	615
9	0	0	0	0	533	615
10	0	0	0	0	533	616
11	0	0	0	0	532	616
12	0	0	0	0	532	616
13	0	0	0	0	531	615
14	0	0	0	0	531	615
15	0	0	0	0	531	615
0	0	0	0	0	531	615
1	0	0	0	0	531	616
2	0	0	0	0	531	616
3	0	0	0	0	531	616
4	0	0	0	0	531	615
5	0	0	0	0	531	616
6	0	0	0	0	531	615
7	0	0	0	0	529	615
8	0	0	0	0	528	615
9	0	0	0	0	527	615
10	0	0	0	0	526	615
11	0	0	0	0	525	615
12	0	0	0	0	524	615
13	0	0	0	0	524	614
14	0	0	0	0	523	614
15	0	0	0	0	522	615
0	0	0	0	0	522	615
1	0	0	0	0	521	615
2	0	0	0	0	522	615
3	0	0	0	0	523	615
4	0	0	0	0	523	615
5	0	0	0	0	522	615
6	0	0	0	0	521	615
7	0	0	0	0	521	615
8	0	0	0	0	521	615
9	0	0	0	0	522	615
10	0	0	0	0	522	615
11	0	0	0	0	522	615
12	0	0	0	0	521	615
13	0	0	0	0	521	615
14	0	0	0	0	520	615
15	0	0	0	0	519	615
0	0	0	0	0	520	615
1	0	0	0	0	521	615
2	0	0	0	0	521	614
3	0	0	0	0	522	615
4	0	0	0	0	522	615
5	0	0	0	0	523	614
6	0	0	0	0	522	615
7	0	0	0	0	523	615
8	0	0	0	0	524	615
9	0	0	0	0	524	615
10	0	0	0	0	524	615
11	0	0	0	0	524	615
12	0	0	0	0	523	615
13	0	0	0	0	521	615
14	0	0	0	0	520	615
15	0	0	0	0	520	615
0	0	0	0	0	519	615
1	0	0	0	0	519	615
2	0	0	0	0	520	615
3	0	0	0	0	520	615
4	0	0	0	0	520	615
5	0	0	0	0	521	615
6	0	0	0	0	521	615
7	0	0	0	0	521	615
8	0	0	0	0	521	615
9	0	0	0	0	522	615
10	0	0	0	0	522	615
11	0	0	0	0	523	615
12	0	0	0	0	523	615
13	0	0	0	0	521	615
14	0	0	0	0	520	615
15	0	0	0	0	521	616
0	0	0	0	0	521	615
1	0	0	0	0	522	616
2	0	0	0	0	523	615
3	0	0	0	0	522	616
4	0	0	0	0	522	615
5	0	0	0	0	521	615
6	0	0	0	0	522	615
7	0	0	0	0	521	615
8	0	0	0	0	522	616
9	0	0	0	0	522	615
10	0	0	0	0	523	615
11	0	0	0	0	522	615
12	0	0	0	0	522	615
13	0	0	0	0	523	615
14	0	0	0	0	524	615
15	0	0	0	0	524	615
0	0	0	0	0	524	615
1	0	0	0	0	524	615
2	0	0	0	0	525	615
3	0	0	0	0	524	616
4	0	0	0	0	524	615
5	0	0	0	0	524	615
6	0	0	0	0	523	615
7	0	0	0	0	523	615
8	0	0	0	0	522	615
9	0	0	0	0	521	615
10	0	0	0	0	521	615
11	0	0	0	0	522	616
12	0	0	0	0	522	615
13	0	0	0	0	521	615
14	0	0	0	0	519	615
15	0	0	0	0	515	615
0	0	0	0	0	511	615
1	0	0	0	0	507	615
2	0	0	0	0	503	615
3	0	0	0	0	498	615
4	0	0	0	0	493	615
5	0	0	0	0	488	615
6	0	0	0	0	483	615
7	0	0	0	0	481	615
8	0	0	0	0	481	616
9	0	0	0	0	483	616
10	0	0	0	0	486	615
11	0	0	0	0	492	615
12	0	0	0	0	499	615
13	0	0	0	0	506	615
14	0	0	0	0	512	615
15	0	0	0	0	520	615
0	0	0	0	0	528	616
1	0	0	0	0	539	615
2	0	0	0	0	551	615
3	0	0	0	0	568	616
4	0	0	0	0	585	615
5	0	0	0	0	604	615
6	0	0	0	0	621	615
7	0	0	0	0	639	615
8	0	0	0	0	658	615
9	0	0	0	0	679	615
10	0	0	0	0	701	615
11	0	0	0	0	723	615
12	0	0	0	0	743	615
13	0	0	0	0	764	615
14	0	0	0	0	781	615
15	0	0	0	0	796	615
0	0	0	0	0	809	615
1	0	0	0	0	817	615
2	0	0	0	0	820	615
3	0	0	0	0	814	616
4	0	0	0	0	803	615
5	0	0	0	0	791	615
6	0	0	0	0	773	615
7	0	0	0	0	747	615
8	0	0	0	0	721	615
9	0	0	0	0	697	615
10	0	0	0	0	673	616
11	0	0	0	0	649	615
12	0	0	0	0	626	615
13	0	0	0	0	607	615
14	0	0	0	0	589	616
15	0	0	0	0	573	616
0	0	0	0	0	560	615
1	0	0	0	0	550	615
2	0	0	0	0	541	615
3	0	0	0	0	532	616
4	0	0	0	0	524	615
5	0	0	0	0	517	615
6	0	0	0	0	511	616
7	0	0	0	0	505	616
8	0	0	0	0	501	615
9	0	0	0	0	499	616
10	0	0	0	0	494	615
11	0	0	0	0	491	617
12	0	0	0	0	487	616
13	0	0	0	0	486	616
14	0	0	0	0	484	616
15	0	0	0	0	483	616
0	0	0	0	0	481	616
1	0	0	0	0	480	616
2	0	0	0	0	478	615
3	0	0	0	0	476	616
4	0	0	0	0	475	616
5	0	0	0	0	475	615
6	0	0	0	0	473	615
7	0	0	0	0	473	616
8	0	0	0	0	473	615
9	0	0	0	0	474	615
10	0	0	0	0	475	616
11	0	0	0	0	476	616
12	0	0	0	0	477	615
13	0	0	0	0	477	615
14	0	0	0	0	478	615
15	0	0	0	0	478	616
0	0	0	0	0	479	615
1	0	0	0	0	480	615
2	0	0	0	0	480	615
3	0	0	0	0	480	616
4	0	0	0	0	481	615
5	0	0	0	0	481	615
6	0	0	0	0	482	615
7	0	0	0	0	482	615
8	0	0	0	0	482	615
9	0	0	0	0	483	615
10	0	0	0	0	484	615
11	0	0	0	0	484	616
12	0	0	0	0	484	615
13	0	0	0	0	485	615
14	0	0	0	0	485	616
15	0	0	0	0	486	616
0	0	0	0	0	487	615
1	0	0	0	0	487	615
2	0	0	0	0	488	615
3	0	0	0	0	489	615
4	0	0	0	0	489	615
5	0	0	0	0	491	615
6	0	0	0	0	491	616
7	0	0	0	0	492	615
8	0	0	0	0	491	615
9	0	0	0	0	490	615
10	0	0	0	0	491	615
11	0	0	0	0	491	615
12	0	0	0	0	492	615
13	0	0	0	0	492	615
14	0	0	0	0	492	615
15	0	0	0	0	492	615
0	0	0	0	0	493	615
1	0	0	0	0	494	615
2	0	0	0	0	495	615
3	0	0	0	0	496	616
4	0	0	0	0	496	615
5	0	0	0	0	496	615
6	0	0	0	0	496	615
7	0	0	0	0	497	615
8	0	0	0	0	498	615
9	0	0	0	0	500	615
10	0	0	0	0	501	614
11	0	0	0	0	502	615
12	0	0	0	0	502	615
13	0	0	0	0	503	615
14	0	0	0	0	504	615
15	0	0	0	0	503	615
0	0	0	0	0	504	615
1	0	0	0	0	503	615
2	0	0	0	0	502	615
3	0	0	0	0	502	616
4	0	0	0	0	502	615
5	0	0	0	0	501	615
6	0	0	0	0	502	616
7	0	0	0	0	503	616
8	0	0	0	0	504	616
9	0	0	0	0	504	615
10	0	0	0	0	504	615
11	0	0	0	0	504	616
12	0	0	0	0	503	615
13	0	0	0	0	504	616
14	0	0	0	0	505	615
15	0	0	0	0	505	615
0	0	0	0	0	505	615
1	0	0	0	0	506	615
2	0	0	0	0	506	615
3	0	0	0	0	507	616
4	0	0	0	0	507	615
5	0	0	0	0	508	616
6	0	0	0	0	508	615
7	0	0	0	0	509	616
8	0	0	0	0	509	615
9	0	0	0	0	510	615
10	0	0	0	0	511	616
11	0	0	0	0	512	616
12	0	0	0	0	513	615
13	0	0	0	0	514	615
14	0	0	0	0	515	615
15	0	0	0	0	515	616
0	0	0	0	0	515	616
1	0	0	0	0	515	616
2	0	0	0	0	515	616
3	0	0	0	0	515	616
4	0	0	0	0	514	616
5	0	0	0	0	513	616
6	0	0	0	0	513	616
7	0	0	0	0	513	616
8	0	0	0	0	513	615
9	0	0	0	0	513	615
10	0	0	0	0	513	616
11	0	0	0	0	514	616
12	0	0	0	0	514	615
13	0	0	0	0	513	615
14	0	0	0	0	514	615
15	0	0	0	0	515	616
0	0	0	0	0	516	615
1	0	0	0	0	517	615
2	0	0	0	0	518	615
3	0	0	0	0	518	615
4	0	0	0	0	519	615
5	0	0	0	0	519	615
6	0	0	0	0	518	615
7	0	0	0	0	518	615
8	0	0	0	0	518	615
9	0	0	0	0	519	615
10	0	0	0	0	520	615
11	0	0	0	0	520	615
12	0	0	0	0	521	615
13	0	0	0	0	520	615
14	0	0	0	0	520	615
15	0	0	0	0	520	615
0	0	0	0	0	520	615
1	0	0	0	0	520	615
2	0	0	0	0	520	615
3	0	0	0	0	519	615
4	0	0	0	0	519	615
5	0	0	0	0	520	615
6	0	0	0	0	521	615
7	0	0	0	0	521	614
8	0	0	0	0	521	615
9	0	0	0	0	521	614
10	0	0	0	0	521	614
11	0	0	0	0	521	615
12	0	0	0	0	522	614
13	0	0	0	0	523	615
14	0	0	0	0	524	614
15	0	0	0	0	525	615
0	0	0	0	0	525	615
1	0	0	0	0	526	615
2	0	0	0	0	526	615
3	0	0	0	0	527	615
4	0	0	0	0	527	615
5	0	0	0	0	527	615
6	0	0	0	0	526	615
7	0	0	0	0	525	615
8	0	0	0	0	526	615
9	0	0	0	0	525	615
10	0	0	0	0	524	614
11	0	0	0	0	524	615
12	0	0	0	0	524	615
13	0	0	0	0	523	615
14	0	0	0	0	523	615
15	0	0	0	0	524	615
0	0	0	0	0	524	615
1	0	0	0	0	525	615
2	0	0	0	0	526	615
3	0	0	0	0	526	616
4	0	0	0	0	526	615
5	0	0	0	0	525	615
6	0	0	0	0	525	615
7	0	0	0	0	524	616
8	0	0	0	0	525	615
9	0	0	0	0	526	615
10	0	0	0	0	526	615
11	0	0	0	0	527	615
12	0	0	0	0	527	615
13	0	0	0	0	528	615
14	0	0	0	0	528	615
15	0	0	0	0	529	616
0	0	0	0	0	529	616
1	0	0	0	0	530	615
2	0	0	0	0	531	615
3	0	0	0	0	531	615
4	0	0	0	0	532	615
5	0	0	0	0	533	615
6	0	0	0	0	534	615
7	0	0	0	0	535	616
8	0	0	0	0	536	616
9	0	0	0	0	536	616
10	0	0	0	0	536	615
11	0	0	0	0	536	616
12	0	0	0	0	536	616
13	0	0	0	0	536	615
14	0	0	0	0	537	616
15	0	0	0	0	539	616
0	0	0	0	0	540	615
1	0	0	0	0	542	615
2	0	0	0	0	543	615
3	0	0	0	0	544	616
4	0	0	0	0	544	615
5	0	0	0	0	545	616
6	0	0	0	0	546	615
7	0	0	0	0	547	615
8	0	0	0	0	549	615
9	0	0	0	0	550	615
10	0	0	0	0	551	615
11	0	0	0	0	551	616
12	0	0	0	0	552	616
13	0	0	0	0	554	616
14	0	0	0	0	555	616
15	0	0	0	0	555	616
0	0	0	0	0	554	615
1	0	0	0	0	553	615
2	0	0	0	0	553	615
3	0	0	0	0	554	616
4	0	0	0	0	555	615
5	0	0	0	0	555	615
6	0	0	0	0	556	614
7	0	0	0	0	556	615
8	0	0	0	0	556	615
9	0	0	0	0	556	614
10	0	0	0	0	556	615
11	0	0	0	0	556	615
12	0	0	0	0	557	615
13	0	0	0	0	558	615
14	0	0	0	0	559	615
15	0	0	0	0	559	615
0	0	0	0	0	559	615
1	0	0	0	0	559	615
2	0	0	0	0	560	614
3	0	0	0	0	560	615
4	0	0	0	0	560	615
5	0	0	0	0	561	614
6	0	0	0	0	561	615
7	0	0	0	0	562	615
8	0	0	0	0	561	615
9	0	0	0	0	562	614
10	0	0	0	0	563	615
11	0	0	0	0	563	615
12	0	0	0	0	563	615
13	0	0	0	0	563	615
14	0	0	0	0	563	615
15	0	0	0	0	562	615
0	0	0	0	0	561	615
1	0	0	0	0	561	615
2	0	0	0	0	561	615
3	0	0	0	0	560	615
4	0	0	0	0	559	615
5	0	0	0	0	558	615
6	0	0	0	0	556	615
7	0	0	0	0	556	615
8	0	0	0	0	556	615
9	0	0	0	0	556	615
10	0	0	0	0	555	615
11	0	0	0	0	552	615
12	0	0	0	0	550	615
13	0	0	0	0	548	615
14	0	0	0	0	548	615
15	0	0	0	0	546	615
0	0	0	0	0	544	615
1	0	0	0	0	542	615
2	0	0	0	0	540	616
3	0	0	0	0	539	615
4	0	0	0	0	537	615
5	0	0	0	0	535	615
6	0	0	0	0	535	615
7	0	0	0	0	533	616
8	0	0	0	0	532	615
9	0	0	0	0	530	616
10	0	0	0	0	528	616
11	0	0	0	0	526	616
12	0	0	0	0	524	616
13	0	0	0	0	524	616
14	0	0	0	0	523	616
15	0	0	0	0	521	616
0	0	0	0	0	520	616
1	0	0	0	0	519	616
2	0	0	0	0	518	616
3	0	0	0	0	517	616
4	0	0	0	0	516	616
5	0	0	0	0	515	616
6	0	0	0	0	515	616
7	0	0	0	0	515	616
8	0	0	0	0	514	616
9	0	0	0	0	513	615
10	0	0	0	0	513	615
11	0	0	0	0	513	616
12	0	0	0	0	513	616
13	0	0	0	0	513	616
14	0	0	0	0	513	616
15	0	0	0	0	511	616
0	0	0	0	0	511	616
1	0	0	0	0	511	616
2	0	0	0	0	511	615
3	0	0	0	0	511	616
4	0	0	0	0	510	615
5	0	0	0	0	511	615
6	0	0	0	0	511	615
7	0	0	0	0	511	615
8	0	0	0	0	511	615
9	0	0	0	0	511	615
10	0	0	0	0	510	615
11	0	0	0	0	509	616
12	0	0	0	0	508	615
13	0	0	0	0	508	616
14	0	0	0	0	508	615
15	0	0	0	0	508	615
0	0	0	0	0	508	615
1	0	0	0	0	508	615
2	0	0	0	0	508	615
3	0	0	0	0	509	615
4	0	0	0	0	510	615
5	0	0	0	0	511	615
6	0	0	0	0	512	615
7	0	0	0	0	512	615
8	0	0	0	0	512	616
9	0	0	0	0	511	615
10	0	0	0	0	511	615
11	0	0	0	0	510	616
12	0	0	0	0	509	615
13	0	0	0	0	509	616
14	0	0	0	0	510	615
15	0	0	0	0	510	615
0	0	0	0	0	509	615
1	0	0	0	0	509	615
2	0	0	0	0	508	615
3	0	0	0	0	509	616
4	0	0	0	0	510	615
5	0	0	0	0	510	615
6	0	0	0	0	511	615
7	0	0	0	0	512	615
8	0	0	0	0	511	615
9	0	0	0	0	512	615
10	0	0	0	0	512	615
11	0	0	0	0	512	616
12	0	0	0	0	511	615
13	0	0	0	0	512	615
14	0	0	0	0	512	615
15	0	0	0	0	512	615
0	0	0	0	0	512	615
1	0	0	0	0	512	615
2	0	0	0	0	513	615
3	0	0	0	0	513	616
4	0	0	0	0	514	615
5	0	0	0	0	514	615
6	0	0	0	0	514	615
7	0	0	0	0	515	616
8	0	0	0	0	515	615
9	0	0	0	0	515	615
10	0	0	0	0	515	615
11	0	0	0	0	515	615
12	0	0	0	0	516	615
13	0	0	0	0	517	615
14	0	0	0	0	517	616
15	0	0	0	0	516	616
0	0	0	0	0	515	615
1	0	0	0	0	515	615
2	0	0	0	0	515	615
3	0	0	0	0	514	616
4	0	0	0	0	514	615
5	0	0	0	0	513	615
6	0	0	0	0	513	615
7	0	0	0	0	513	615
8	0	0	0	0	513	615
9	0	0	0	0	515	615
10	0	0	0	0	516	615
11	0	0	0	0	517	615
12	0	0	0	0	517	614
13	0	0	0	0	517	615
14	0	0	0	0	518	614
15	0	0	0	0	518	615
0	0	0	0	0	519	614
1	0	0	0	0	518	614
2	0	0	0	0	519	614
3	0	0	0	0	519	614
4	0	0	0	0	519	614
5	0	0	0	0	519	613
6	0	0	0	0	518	613
7	0	0	0	0	517	613
8	0	0	0	0	517	613
9	0	0	0	0	518	613
10	0	0	0	0	518	613
11	0	0	0	0	518	614
12	0	0	0	0	518	613
13	0	0	0	0	517	613
14	0	0	0	0	518	613
15	0	0	0	0	519	613
0	0	0	0	0	520	613
1	0	0	0	0	521	613
2	0	0	0	0	520	612
3	0	0	0	0	520	614
4	0	0	0	0	520	613
5	0	0	0	0	520	614
6	0	0	0	0	520	613
7	0	0	0	0	520	613
8	0	0	0	0	519	614
9	0	0	0	0	520	614
10	0	0	0	0	521	613
11	0	0	0	0	521	614
12	0	0	0	0	522	614
13	0	0	0	0	523	613
14	0	0	0	0	523	614
15	0	0	0	0	524	614
0	0	0	0	0	525	614
1	0	0	0	0	525	614
2	0	0	0	0	524	614
3	0	0	0	0	524	615
4	0	0	0	0	523	615
5	0	0	0	0	522	615
6	0	0	0	0	522	615
7	0	0	0	0	521	614
8	0	0	0	0	521	615
9	0	0	0	0	521	615
10	0	0	0	0	522	615
11	0	0	0	0	523	615
12	0	0	0	0	523	614
13	0	0	0	0	523	615
14	0	0	0	0	523	615
15	0	0	0	0	523	615
0	0	0	0	0	522	615
1	0	0	0	0	521	615
2	0	0	0	0	520	615
3	0	0	0	0	520	615
4	0	0	0	0	519	614
5	0	0	0	0	519	615
6	0	0	0	0	519	615
7	0	0	0	0	518	615
8	0	0	0	0	519	615
9	0	0	0	0	520	615
10	0	0	0	0	521	615
11	0	0	0	0	523	616
12	0	0	0	0	525	615
13	0	0	0	0	526	615
14	0	0	0	0	526	615
15	0	0	0	0	526	615
0	0	0	0	0	527	615
1	0	0	0	0	527	614
2	0	0	0	0	527	615
3	0	0	0	0	527	615
4	0	0	0	0	528	615
5	0	0	0	0	528	615
6	0	0	0	0	528	615
7	0	0	0	0	529	615
8	0	0	0	0	531	615
9	0	0	0	0	531	615
10	0	0	0	0	531	615
11	0	0	0	0	531	615
12	0	0	0	0	531	615
13	0	0	0	0	530	615
14	0	0	0	0	529	615
15	0	0	0	0	528	615
0	0	0	0	0	527	615
1	0	0	0	0	526	615
2	0	0	0	0	524	615
3	0	0	0	0	525	615
4	0	0	0	0	526	615
5	0	0	0	0	527	615
6	0	0	0	0	529	615
7	0	0	0	0	530	615
8	0	0	0	0	529	615
9	0	0	0	0	529	615
10	0	0	0	0	529	614
11	0	0	0	0	529	615
12	0	0	0	0	529	615
13	0	0	0	0	528	615
14	0	0	0	0	527	615
15	0	0	0	0	527	615
0	0	0	0	0	529	615
1	0	0	0	0	530	615
2	0	0	0	0	531	615
3	0	0	0	0	531	616
4	0	0	0	0	531	615
5	0	0	0	0	531	615
6	0	0	0	0	531	615
7	0	0	0	0	531	616
8	0	0	0	0	531	615
9	0	0	0	0	531	616
10	0	0	0	0	531	616
11	0	0	0	0	531	616
12	0	0	0	0	531	615
13	0	0	0	0	531	615
14	0	0	0	0	531	616
15	0	0	0	0	532	616
0	0	0	0	0	532	616
1	0	0	0	0	532	616
2	0	0	0	0	531	616
3	0	0	0	0	531	616
4	0	0	0	0	529	616
5	0	0	0	0	529	616
6	0	0	0	0	528	616
7	0	0	0	0	527	616
8	0	0	0	0	527	616
9	0	0	0	0	526	616
10	0	0	0	0	526	616
11	0	0	0	0	526	617
12	0	0	0	0	527	616
13	0	0	0	0	528	617
14	0	0	0	0	528	616
15	0	0	0	0	529	617
0	0	0	0	0	530	616
1	0	0	0	0	531	616
2	0	0	0	0	532	616
3	0	0	0	0	533	616
4	0	0	0	0	533	616
5	0	0	0	0	532	616
6	0	0	0	0	530	616
7	0	0	0	0	529	617
8	0	0	0	0	528	616
9	0	0	0	0	528	616
10	0	0	0	0	527	616
11	0	0	0	0	527	617
12	0	0	0	0	527	616
13	0	0	0	0	526	616
14	0	0	0	0	527	616
15	0	0	0	0	527	617
0	0	0	0	0	527	616
1	0	0	0	0	527	616
2	0	0	0	0	527	616
3	0	0	0	0	527	617
4	0	0	0	0	527	617
5	0	0	0	0	527	616
6	0	0	0	0	527	616
7	0	0	0	0	526	616
8	0	0	0	0	525	616
9	0	0	0	0	526	616
10	0	0	0	0	526	617
11	0	0	0	0	526	617
12	0	0	0	0	525	616
13	0	0	0	0	524	617
14	0	0	0	0	523	616
15	0	0	0	0	523	616
0	0	0	0	0	524	616
1	0	0	0	0	524	616
2	0	0	0	0	525	616
3	0	0	0	0	525	617
4	0	0	0	0	526	616
5	0	0	0	0	527	615
6	0	0	0	0	527	616
7	0	0	0	0	527	616
8	0	0	0	0	527	616
9	0	0	0	0	527	616
10	0	0	0	0	527	615
11	0	0	0	0	527	617
12	0	0	0	0	527	616
13	0	0	0	0	528	616
14	0	0	0	0	529	616
15	0	0	0	0	528	616
0	0	0	0	0	528	616
1	0	0	0	0	527	616
2	0	0	0	0	527	615
3	0	0	0	0	526	617
4	0	0	0	0	525	616
5	0	0	0	0	524	616
6	0	0	0	0	524	615
7	0	0	0	0	524	616
8	0	0	0	0	523	616
9	0	0	0	0	524	616
10	0	0	0	0	524	616
11	0	0	0	0	524	616
12	0	0	0	0	524	616
13	0	0	0	0	524	617
14	0	0	0	0	524	616
15	0	0	0	0	524	617
0	0	0	0	0	524	616
1	0	0	0	0	524	616
2	0	0	0	0	524	616
3	0	0	0	0	523	617
4	0	0	0	0	523	616
5	0	0	0	0	522	616
6	0	0	0	0	522	615
7	0	0	0	0	522	616
8	0	0	0	0	521	615
9	0	0	0	0	521	616
10	0	0	0	0	521	616
11	0	0	0	0	521	617
12	0	0	0	0	520	615
13	0	0	0	0	519	615
14	0	0	0	0	519	615
15	0	0	0	0	519	616
0	0	0	0	0	519	615
1	0	0	0	0	518	615
2	0	0	0	0	515	615
3	0	0	0	0	514	616
4	0	0	0	0	513	615
5	0	0	0	0	512	615
6	0	0	0	0	512	615
7	0	0	0	0	512	615
8	0	0	0	0	512	615
9	0	0	0	0	511	615
10	0	0	0	0	510	616
11	0	0	0	0	510	616
12	0	0	0	0	510	615
13	0	0	0	0	510	615
14	0	0	0	0	511	615
15	0	0	0	0	512	615
0	0	0	0	0	513	614
1	0	0	0	0	514	615
2	0	0	0	0	515	615
3	0	0	0	0	516	615
4	0	0	0	0	517	615
5	0	0	0	0	519	615
6	0	0	0	0	520	615
7	0	0	0	0	521	615
8	0	0	0	0	522	615
9	0	0	0	0	523	615
10	0	0	0	0	523	615
11	0	0	0	0	524	615
12	0	0	0	0	525	615
13	0	0	0	0	526	615
14	0	0	0	0	527	615
15	0	0	0	0	527	615
0	0	0	0	0	528	615
1	0	0	0	0	529	615
2	0	0	0	0	529	615
3	0	0	0	0	529	615
4	0	0	0	0	530	615
5	0	0	0	0	530	615
6	0	0	0	0	530	615
7	0	0	0	0	530	615
8	0	0	0	0	530	615
9	0	0	0	0	529	614
10	0	0	0	0	529	614
11	0	0	0	0	529	615
12	0	0	0	0	528	614
13	0	0	0	0	528	614
14	0	0	0	0	528	614
15	0	0	0	0	527	615
0	0	0	0	0	527	615
1	0	0	0	0	527	615
2	0	0	0	0	527	615
3	0	0	0	0	528	615
4	0	0	0	0	528	615
5	0	0	0	0	527	615
6	0	0	0	0	528	615
7	0	0	0	0	527	615
8	0	0	0	0	527	615
9	0	0	0	0	525	615
10	0	0	0	0	523	615
11	0	0	0	0	522	616
12	0	0	0	0	522	615
13	0	0	0	0	523	616
14	0	0	0	0	524	616
15	0	0	0	0	526	616
0	0	0	0	0	527	616
1	0	0	0	0	527	615
2	0	0	0	0	528	616
3	0	0	0	0	528	616
4	0	0	0	0	528	616
5	0	0	0	0	527	616
6	0	0	0	0	527	616
7	0	0	0	0	527	617
8	0	0	0	0	526	616
9	0	0	0	0	524	616
10	0	0	0	0	522	616
11	0	0	0	0	520	617
12	0	0	0	0	519	616
13	0	0	0	0	517	616
14	0	0	0	0	515	616
15	0	0	0	0	515	616
0	0	0	0	0	514	616
1	0	0	0	0	514	616
2	0	0	0	0	514	616
3	0	0	0	0	514	616
4	0	0	0	0	513	616
5	0	0	0	0	513	615
6	0	0	0	0	513	615
7	0	0	0	0	513	616
8	0	0	0	0	512	615
9	0	0	0	0	512	616
10	0	0	0	0	511	615
11	0	0	0	0	509	616
12	0	0	0	0	508	615
13	0	0	0	0	507	616
14	0	0	0	0	507	616
15	0	0	0	0	507	616
0	0	0	0	0	508	615
1	0	0	0	0	510	615
2	0	0	0	0	512	615
3	0	0	0	0	513	616
4	0	0	0	0	514	615
5	0	0	0	0	515	616
6	0	0	0	0	515	615
7	0	0	0	0	516	616
8	0	0	0	0	517	616
9	0	0	0	0	517	616
10	0	0	0	0	516	615
11	0	0	0	0	515	615
12	0	0	0	0	513	615
13	0	0	0	0	513	616
14	0	0	0	0	512	616
15	0	0	0	0	512	616
0	0	0	0	0	511	615
1	0	0	0	0	510	615
2	0	0	0	0	509	615
3	0	0	0	0	509	616
4	0	0	0	0	508	615
5	0	0	0	0	508	616
6	0	0	0	0	508	615
7	0	0	0	0	507	617
8	0	0	0	0	507	615
9	0	0	0	0	507	616
10	0	0	0	0	508	615
11	0	0	0	0	509	615
12	0	0	0	0	509	615
13	0	0	0	0	510	615
14	0	0	0	0	510	615
15	0	0	0	0	510	616
0	0	0	0	0	510	615
1	0	0	0	0	510	615
2	0	0	0	0	510	615
3	0	0	0	0	509	616
4	0	0	0	0	508	615
5	0	0	0	0	508	615
6	0	0	0	0	506	615
7	0	0	0	0	506	616
8	0	0	0	0	506	615
9	0	0	0	0	506	616
10	0	0	0	0	507	615
11	0	0	0	0	507	615
12	0	0	0	0	507	615
13	0	0	0	0	506	615
14	0	0	0	0	506	615
15	0	0	0	0	505	615
0	0	0	0	0	505	615
1	0	0	0	0	505	615
2	0	0	0	0	505	615
3	0	0	0	0	506	615
4	0	0	0	0	506	615
5	0	0	0	0	507	615
6	0	0	0	0	507	615
7	0	0	0	0	508	615
8	0	0	0	0	507	615
9	0	0	0	0	507	615
10	0	0	0	0	507	615
11	0	0	0	0	507	616
12	0	0	0	0	506	615
13	0	0	0	0	505	615
14	0	0	0	0	504	615
15	0	0	0	0	502	615
0	0	0	0	0	499	615
1	0	0	0	0	495	615
2	0	0	0	0	492	615
3	0	0	0	0	487	615
4	0	0	0	0	483	615
5	0	0	0	0	476	614
6	0	0	0	0	472	615
7	0	0	0	0	467	615
8	0	0	0	0	465	615
9	0	0	0	0	465	615
10	0	0	0	0	465	615
11	0	0	0	0	470	615
12	0	0	0	0	475	615
13	0	0	0	0	482	615
14	0	0	0	0	488	615
15	0	0	0	0	495	615
0	0	0	0	0	502	615
1	0	0	0	0	510	615
2	0	0	0	0	520	614
3	0	0	0	0	533	615
4	0	0	0	0	548	615
5	0	0	0	0	565	614
6	0	0	0	0	583	614
7	0	0	0	0	600	615
8	0	0	0	0	619	614
9	0	0	0	0	637	614
10	0	0	0	0	658	615
11	0	0	0	0	681	615
12	0	0	0	0	701	615
13	0	0	0	0	723	615
14	0	0	0	0	743	615
15	0	0	0	0	760	615
0	0	0	0	0	775	615
1	0	0	0	0	787	615
2	0	0	0	0	794	614
3	0	0	0	0	793	615
4	0	0	0	0	785	614
5	0	0	0	0	774	615
6	0	0	0	0	761	614
7	0	0	0	0	742	615
8	0	0	0	0	716	615
9	0	0	0	0	691	615
10	0	0	0	0	668	615
11	0	0	0	0	643	615
12	0	0	0	0	621	615
13	0	0	0	0	600	615
14	0	0	0	0	580	615
15	0	0	0	0	563	615
0	0	0	0	0	547	615
1	0	0	0	0	534	615
2	0	0	0	0	521	615
3	0	0	0	0	511	615
4	0	0	0	0	503	615
5	0	0	0	0	496	615
6	0	0	0	0	489	615
7	0	0	0	0	484	615
8	0	0	0	0	480	615
9	0	0	0	0	476	615
10	0	0	0	0	472	615
11	0	0	0	0	470	615
12	0	0	0	0	467	615
13	0	0	0	0	464	615
14	0	0	0	0	461	615
15	0	0	0	0	459	615
0	0	0	0	0	457	615
1	0	0	0	0	456	615
2	0	0	0	0	455	615
3	0	0	0	0	454	616
4	0	0	0	0	452	615
5	0	0	0	0	451	615
6	0	0	0	0	450	615
7	0	0	0	0	449	615
8	0	0	0	0	448	615
9	0	0	0	0	447	615
10	0	0	0	0	447	615
11	0	0	0	0	446	615
12	0	0	0	0	446	615
13	0	0	0	0	446	615
14	0	0	0	0	447	615
15	0	0	0	0	448	615
0	0	0	0	0	447	615
1	0	0	0	0	447	615
2	0	0	0	0	447	615
3	0	0	0	0	447	615
4	0	0	0	0	446	615
5	0	0	0	0	446	615
6	0	0	0	0	447	615
7	0	0	0	0	447	615
8	0	0	0	0	448	615
9	0	0	0	0	448	615
10	0	0	0	0	449	615
11	0	0	0	0	451	615
12	0	0	0	0	451	615
13	0	0	0	0	452	615
14	0	0	0	0	452	615
15	0	0	0	0	453	615
0	0	0	0	0	454	615
1	0	0	0	0	453	615
2	0	0	0	0	452	615
3	0	0	0	0	451	615
4	0	0	0	0	450	615
5	0	0	0	0	450	615
6	0	0	0	0	450	615
7	0	0	0	0	450	615
8	0	0	0	0	451	615
9	0	0	0	0	451	615
10	0	0	0	0	452	615
11	0	0	0	0	454	615
12	0	0	0	0	456	615
13	0	0	0	0	458	615
14	0	0	0	0	459	615
15	0	0	0	0	462	616
0	0	0	0	0	463	615
1	0	0	0	0	465	615
2	0	0	0	0	465	615
3	0	0	0	0	467	616
4	0	0	0	0	467	615
5	0	0	0	0	467	616
6	0	0	0	0	467	615
7	0	0	0	0	467	615
8	0	0	0	0	466	615
9	0	0	0	0	466	615
10	0	0	0	0	465	616
11	0	0	0	0	465	615
12	0	0	0	0	465	615
13	0	0	0	0	466	615
14	0	0	0	0	467	615
15	0	0	0	0	467	615
0	0	0	0	0	468	615
1	0	0	0	0	467	615
2	0	0	0	0	467	615
3	0	0	0	0	467	616
4	0	0	0	0	465	615
5	0	0	0	0	466	615
6	0	0	0	0	466	615
7	0	0	0	0	465	616
8	0	0	0	0	465	615
9	0	0	0	0	464	616
10	0	0	0	0	465	615
11	0	0	0	0	465	616
12	0	0	0	0	465	616
13	0	0	0	0	465	615
14	0	0	0	0	465	615
15	0	0	0	0	466	616
0	0	0	0	0	467	615
1	0	0	0	0	467	615
2	0	0	0	0	467	615
3	0	0	0	0	468	616
4	0	0	0	0	468	615
5	0	0	0	0	467	616
6	0	0	0	0	467	615
7	0	0	0	0	466	616
8	0	0	0	0	467	616
9	0	0	0	0	468	616
10	0	0	0	0	468	615
11	0	0	0	0	468	617
12	0	0	0	0	470	616
13	0	0	0	0	472	616
14	0	0	0	0	472	616
15	0	0	0	0	474	616
0	0	0	0	0	474	617
1	0	0	0	0	475	615
2	0	0	0	0	476	615
3	0	0	0	0	476	616
4	0	0	0	0	477	616
5	0	0	0	0	478	615
6	0	0	0	0	478	615
7	0	0	0	0	477	615
8	0	0	0	0	477	615
9	0	0	0	0	476	615
10	0	0	0	0	475	615
11	0	0	0	0	472	615
12	0	0	0	0	471	615
13	0	0	0	0	471	615
14	0	0	0	0	470	615
15	0	0	0	0	471	615
0	0	0	0	0	472	615
1	0	0	0	0	472	615
2	0	0	0	0	473	615
3	0	0	0	0	474	615
4	0	0	0	0	475	615
5	0	0	0	0	475	615
6	0	0	0	0	475	615
7	0	0	0	0	475	615
8	0	0	0	0	475	614
9	0	0	0	0	473	615
10	0	0	0	0	472	614
11	0	0	0	0	470	615
12	0	0	0	0	469	614
13	0	0	0	0	470	615
14	0	0	0	0	471	614
15	0	0	0	0	473	615
0	0	0	0	0	475	615
1	0	0	0	0	478	615
2	0	0	0	0	480	615
3	0	0	0	0	480	615
4	0	0	0	0	481	615
5	0	0	0	0	482	615
6	0	0	0	0	483	615
7	0	0	0	0	484	615
8	0	0	0	0	484	615
9	0	0	0	0	485	614
10	0	0	0	0	485	615
11	0	0	0	0	484	615
12	0	0	0	0	484	615
13	0	0	0	0	484	615
14	0	0	0	0	484	615
15	0	0	0	0	484	616
0	0	0	0	0	483	615
1	0	0	0	0	483	615
2	0	0	0	0	482	616
3	0	0	0	0	482	616
4	0	0	0	0	482	616
5	0	0	0	0	483	615
6	0	0	0	0	483	616
7	0	0	0	0	484	616
8	0	0	0	0	484	616
9	0	0	0	0	485	616
10	0	0	0	0	484	616
11	0	0	0	0	485	617
12	0	0	0	0	485	616
13	0	0	0	0	485	616
14	0	0	0	0	484	616
15	0	0	0	0	485	616
0	0	0	0	0	486	616
1	0	0	0	0	486	616
2	0	0	0	0	486	616
3	0	0	0	0	487	617
4	0	0	0	0	488	616
5	0	0	0	0	489	616
6	0	0	0	0	488	616
7	0	0	0	0	487	615
8	0	0	0	0	486	615
9	0	0	0	0	486	616
10	0	0	0	0	486	616
11	0	0	0	0	487	616
12	0	0	0	0	488	616
13	0	0	0	0	490	616
14	0	0	0	0	491	617
15	0	0	0	0	493	617
0	0	0	0	0	494	616
1	0	0	0	0	495	616
2	0	0	0	0	496	615
3	0	0	0	0	496	616
4	0	0	0	0	497	615
5	0	0	0	0	498	616
6	0	0	0	0	499	616
7	0	0	0	0	499	616
8	0	0	0	0	500	616
9	0	0	0	0	501	616
10	0	0	0	0	500	615
11	0	0	0	0	500	617
12	0	0	0	0	498	616
13	0	0	0	0	497	616
14	0	0	0	0	496	616
15	0	0	0	0	496	617
0	0	0	0	0	496	616
1	0	0	0	0	497	616
2	0	0	0	0	499	615
3	0	0	0	0	502	617
4	0	0	0	0	504	616
5	0	0	0	0	505	615
6	0	0	0	0	506	616
7	0	0	0	0	507	615
8	0	0	0	0	508	615
9	0	0	0	0	509	616
10	0	0	0	0	509	615
11	0	0	0	0	510	616
12	0	0	0	0	511	616
13	0	0	0	0	511	616
14	0	0	0	0	511	616
15	0	0	0	0	511	616
0	0	0	0	0	511	616
1	0	0	0	0	512	616
2	0	0	0	0	513	615
3	0	0	0	0	513	616
4	0	0	0	0	514	616
5	0	0	0	0	515	615
6	0	0	0	0	515	615
7	0	0	0	0	516	616
8	0	0	0	0	518	615
9	0	0	0	0	519	616
10	0	0	0	0	520	615
11	0	0	0	0	521	616
12	0	0	0	0	522	615
13	0	0	0	0	522	615
14	0	0	0	0	522	615
15	0	0	0	0	521	616
0	0	0	0	0	521	615
1	0	0	0	0	522	615
2	0	0	0	0	521	615
3	0	0	0	0	522	615
4	0	0	0	0	521	615
5	0	0	0	0	522	615
6	0	0	0	0	523	615
7	0	0	0	0	523	616
8	0	0	0	0	521	615
9	0	0	0	0	521	615
10	0	0	0	0	521	615
11	0	0	0	0	521	615
12	0	0	0	0	520	615
13	0	0	0	0	519	615
14	0	0	0	0	518	615
15	0	0	0	0	519	616
0	0	0	0	0	518	615
1	0	0	0	0	518	615
2	0	0	0	0	519	615
3	0	0	0	0	519	615
4	0	0	0	0	519	615
5	0	0	0	0	519	615
6	0	0	0	0	518	615
7	0	0	0	0	518	615
8	0	0	0	0	517	615
9	0	0	0	0	515	616
10	0	0	0	0	514	615
11	0	0	0	0	512	616
12	0	0	0	0	512	615
13	0	0	0	0	510	616
14	0	0	0	0	508	615
15	0	0	0	0	507	616
0	0	0	0	0	505	616
1	0	0	0	0	503	616
2	0	0	0	0	500	615
3	0	0	0	0	499	616
4	0	0	0	0	498	616
5	0	0	0	0	497	616
6	0	0	0	0	496	616
7	0	0	0	0	495	616
8	0	0	0	0	494	616
9	0	0	0	0	492	616
10	0	0	0	0	491	616
11	0	0	0	0	489	617
12	0	0	0	0	488	616
13	0	0	0	0	487	616
14	0	0	0	0	486	616
15	0	0	0	0	485	616
0	0	0	0	0	485	616
1	0	0	0	0	484	615
2	0	0	0	0	483	616
3	0	0	0	0	482	616
4	0	0	0	0	481	616
5	0	0	0	0	480	615
6	0	0	0	0	479	615
7	0	0	0	0	478	615
8	0	0	0	0	476	615
9	0	0	0	0	475	616
10	0	0	0	0	474	615
11	0	0	0	0	472	616
12	0	0	0	0	470	616
13	0	0	0	0	468	615
14	0	0	0	0	467	616
15	0	0	0	0	466	617
0	0	0	0	0	466	616
1	0	0	0	0	467	616
2	0	0	0	0	467	615
3	0	0	0	0	467	616
4	0	0	0	0	467	616
5	0	0	0	0	467	615
6	0	0	0	0	468	615
7	0	0	0	0	468	616
8	0	0	0	0	468	616
9	0	0	0	0	467	615
10	0	0	0	0	466	615
11	0	0	0	0	465	616
12	0	0	0	0	465	615
13	0	0	0	0	465	615
14	0	0	0	0	464	616
15	0	0	0	0	463	616
0	0	0	0	0	462	616
1	0	0	0	0	462	616
2	0	0	0	0	462	616
3	0	0	0	0	463	617
4	0	0	0	0	463	615
5	0	0	0	0	464	615
6	0	0	0	0	464	615
7	0	0	0	0	465	616
8	0	0	0	0	466	615
9	0	0	0	0	466	615
10	0	0	0	0	467	615
11	0	0	0	0	467	616
12	0	0	0	0	468	616
13	0	0	0	0	468	615
14	0	0	0	0	468	615
15	0	0	0	0	468	616
0	0	0	0	0	469	616
1	0	0	0	0	468	616
2	0	0	0	0	467	615
3	0	0	0	0	466	616
4	0	0	0	0	467	615
5	0	0	0	0	468	615
6	0	0	0	0	468	615
7	0	0	0	0	469	615
8	0	0	0	0	471	615
9	0	0	0	0	473	615
10	0	0	0	0	475	615
11	0	0	0	0	476	615
12	0	0	0	0	477	615
13	0	0	0	0	478	615
14	0	0	0	0	478	615
15	0	0	0	0	479	615
0	0	0	0	0	480	615
1	0	0	0	0	480	615
2	0	0	0	0	480	615
3	0	0	0	0	479	616
4	0	0	0	0	478	615
5	0	0	0	0	477	615
6	0	0	0	0	477	615
7	0	0	0	0	478	615
8	0	0	0	0	478	615
9	0	0	0	0	479	615
10	0	0	0	0	480	615
11	0	0	0	0	480	615
12	0	0	0	0	481	615
13	0	0	0	0	482	615
14	0	0	0	0	482	615
15	0	0	0	0	481	615
0	0	0	0	0	481	615
1	0	0	0	0	481	615
2	0	0	0	0	481	615
3	0	0	0	0	481	615
4	0	0	0	0	481	615
5	0	0	0	0	481	615
6	0	0	0	0	481	615
7	0	0	0	0	480	615
8	0	0	0	0	480	616
9	0	0	0	0	480	615
10	0	0	0	0	480	615
11	0	0	0	0	481	616
12	0	0	0	0	483	615
13	0	0	0	0	485	615
14	0	0	0	0	486	616
15	0	0	0	0	487	615
0	0	0	0	0	488	615
1	0	0	0	0	489	615
2	0	0	0	0	490	615
3	0	0	0	0	491	615
4	0	0	0	0	490	615
5	0	0	0	0	491	615
6	0	0	0	0	491	615
7	0	0	0	0	491	615
8	0	0	0	0	491	615
9	0	0	0	0	491	615
10	0	0	0	0	491	615
11	0	0	0	0	491	615
12	0	0	0	0	491	615
13	0	0	0	0	491	615
14	0	0	0	0	491	615
15	0	0	0	0	491	615
0	0	0	0	0	491	615
1	0	0	0	0	492	615
2	0	0	0	0	491	615
3	0	0	0	0	491	615
4	0	0	0	0	492	615
5	0	0	0	0	492	614
6	0	0	0	0	493	614
7	0	0	0	0	493	615
8	0	0	0	0	493	614
9	0	0	0	0	493	614
10	0	0	0	0	494	614
11	0	0	0	0	494	615
12	0	0	0	0	494	614
13	0	0	0	0	494	614
14	0	0	0	0	494	615
15	0	0	0	0	494	615
0	0	0	0	0	494	615
1	0	0	0	0	495	615
2	0	0	0	0	495	615
3	0	0	0	0	495	615
4	0	0	0	0	496	615
5	0	0	0	0	496	615
6	0	0	0	0	497	615
7	0	0	0	0	499	615
8	0	0	0	0	500	615
9	0	0	0	0	501	615
10	0	0	0	0	502	616
11	0	0	0	0	503	616
12	0	0	0	0	504	615
13	0	0	0	0	504	616
14	0	0	0	0	504	616
15	0	0	0	0	504	616
0	0	0	0	0	504	615
1	0	0	0	0	504	615
2	0	0	0	0	503	615
3	0	0	0	0	503	615
4	0	0	0	0	503	615
5	0	0	0	0	504	615
6	0	0	0	0	505	615
7	0	0	0	0	506	615
8	0	0	0	0	507	615
9	0	0	0	0	508	615
10	0	0	0	0	508	615
11	0	0	0	0	509	616
12	0	0	0	0	509	615
13	0	0	0	0	508	615
14	0	0	0	0	508	615
15	0	0	0	0	508	615
0	0	0	0	0	508	615
1	0	0	0	0	508	615
2	0	0	0	0	508	615
3	0	0	0	0	507	615
4	0	0	0	0	507	615
5	0	0	0	0	507	615
6	0	0	0	0	506	615
7	0	0	0	0	506	615
8	0	0	0	0	504	615
9	0	0	0	0	503	615
10	0	0	0	0	501	615
11	0	0	0	0	500	616
12	0	0	0	0	500	615
13	0	0	0	0	499	615
14	0	0	0	0	499	615
15	0	0	0	0	499	615
0	0	0	0	0	500	615
1	0	0	0	0	500	615
2	0	0	0	0	502	615
3	0	0	0	0	504	615
4	0	0	0	0	506	615
5	0	0	0	0	508	615
6	0	0	0	0	510	615
7	0	0	0	0	511	615
8	0	0	0	0	512	615
9	0	0	0	0	511	615
10	0	0	0	0	510	615
11	0	0	0	0	510	616
12	0	0	0	0	511	615
13	0	0	0	0	510	615
14	0	0	0	0	510	616
15	0	0	0	0	510	616
0	0	0	0	0	510	616
1	0	0	0	0	511	615
2	0	0	0	0	511	615
3	0	0	0	0	511	615
4	0	0	0	0	511	615
5	0	0	0	0	511	615
6	0	0	0	0	510	615
7	0	0	0	0	510	616
8	0	0	0	0	510	616
9	0	0	0	0	510	616
10	0	0	0	0	511	615
11	0	0	0	0	512	616
12	0	0	0	0	513	615
13	0	0	0	0	513	616
14	0	0	0	0	513	616
15	0	0	0	0	514	617
0	0	0	0	0	514	615
1	0	0	0	0	513	615
2	0	0	0	0	514	616
3	0	0	0	0	514	616
4	0	0	0	0	514	616
5	0	0	0	0	514	616
6	0	0	0	0	514	615
7	0	0	0	0	514	616
8	0	0	0	0	515	616
9	0	0	0	0	515	616
10	0	0	0	0	516	616
11	0	0	0	0	516	616
12	0	0	0	0	516	615
13	0	0	0	0	515	616
14	0	0	0	0	515	615
15	0	0	0	0	515	616
0	0	0	0	0	515	616
1	0	0	0	0	515	616
2	0	0	0	0	517	616
3	0	0	0	0	517	616
4	0	0	0	0	518	616
5	0	0	0	0	519	616
6	0	0	0	0	519	616
7	0	0	0	0	519	616
8	0	0	0	0	520	616
9	0	0	0	0	520	615
10	0	0	0	0	519	615
11	0	0	0	0	519	617
12	0	0	0	0	519	615
13	0	0	0	0	519	615
14	0	0	0	0	519	615
15	0	0	0	0	518	616
0	0	0	0	0	516	615
1	0	0	0	0	516	615
2	0	0	0	0	516	615
3	0	0	0	0	516	616
4	0	0	0	0	516	616
5	0	0	0	0	516	616
6	0	0	0	0	517	616
7	0	0	0	0	516	616
8	0	0	0	0	517	616
9	0	0	0	0	517	616
10	0	0	0	0	517	616
11	0	0	0	0	516	616
12	0	0	0	0	516	615
13	0	0	0	0	516	616
14	0	0	0	0	516	616
15	0	0	0	0	517	616
0	0	0	0	0	517	615
1	0	0	0	0	518	616
2	0	0	0	0	519	616
3	0	0	0	0	519	617
4	0	0	0	0	519	616
5	0	0	0	0	518	617
6	0	0	0	0	518	616
7	0	0	0	0	518	617
8	0	0	0	0	518	616
9	0	0	0	0	519	616
10	0	0	0	0	519	616
11	0	0	0	0	519	616
12	0	0	0	0	518	616
13	0	0	0	0	519	616
14	0	0	0	0	519	615
15	0	0	0	0	519	615
0	0	0	0	0	519	615
1	0	0	0	0	519	615
2	0	0	0	0	519	615
3	0	0	0	0	519	616
4	0	0	0	0	518	615
5	0	0	0	0	519	615
6	0	0	0	0	518	615
7	0	0	0	0	518	615
8	0	0	0	0	518	615
9	0	0	0	0	518	615
10	0	0	0	0	518	615
11	0	0	0	0	518	615
12	0	0	0	0	519	615
13	0	0	0	0	519	615
14	0	0	0	0	518	615
15	0	0	0	0	517	615
0	0	0	0	0	516	615
1	0	0	0	0	516	615
2	0	0	0	0	515	615
3	0	0	0	0	515	615
4	0	0	0	0	514	615
5	0	0	0	0	514	615
6	0	0	0	0	514	616
7	0	0	0	0	514	616
8	0	0	0	0	514	615
9	0	0	0	0	515	615
10	0	0	0	0	515	615
11	0	0	0	0	517	615
12	0	0	0	0	519	615
13	0	0	0	0	520	615
14	0	0	0	0	521	615
15	0	0	0	0	521	615
0	0	0	0	0	522	615
1	0	0	0	0	523	615
2	0	0	0	0	524	615
3	0	0	0	0	525	616
4	0	0	0	0	526	615
5	0	0	0	0	526	615
6	0	0	0	0	526	615
7	0	0	0	0	526	616
8	0	0	0	0	526	614
9	0	0	0	0	526	614
10	0	0	0	0	525	615
11	0	0	0	0	525	615
12	0	0	0	0	524	615
13	0	0	0	0	525	615
14	0	0	0	0	526	615
15	0	0	0	0	526	615
0	0	0	0	0	526	615
1	0	0	0	0	526	615
2	0	0	0	0	526	615
3	0	0	0	0	527	616
4	0	0	0	0	528	615
5	0	0	0	0	529	615
6	0	0	0	0	530	615
7	0	0	0	0	531	615
8	0	0	0	0	532	615
9	0	0	0	0	533	615
10	0	0	0	0	534	615
11	0	0	0	0	534	616
12	0	0	0	0	534	615
13	0	0	0	0	534	615
14	0	0	0	0	534	615
15	0	0	0	0	534	615
0	0	0	0	0	535	615
1	0	0	0	0	534	615
2	0	0	0	0	534	615
3	0	0	0	0	535	615
4	0	0	0	0	535	615
5	0	0	0	0	534	615
6	0	0	0	0	535	615
7	0	0	0	0	535	616
8	0	0	0	0	535	616
9	0	0	0	0	535	616
10	0	0	0	0	536	615
11	0	0	0	0	536	616
12	0	0	0	0	537	615
13	0	0	0	0	537	615
14	0	0	0	0	537	615
15	0	0	0	0	538	616
0	0	0	0	0	538	615
1	0	0	0	0	538	615
2	0	0	0	0	538	615
3	0	0	0	0	537	615
4	0	0	0	0	536	615
5	0	0	0	0	534	616
6	0	0	0	0	533	616
7	0	0	0	0	531	616
8	0	0	0	0	529	616
9	0	0	0	0	528	616
10	0	0	0	0	527	616
11	0	0	0	0	527	616
12	0	0	0	0	527	615
13	0	0	0	0	527	616
14	0	0	0	0	527	616
15	0	0	0	0	528	616
0	0	0	0	0	528	616
1	0	0	0	0	527	615
2	0	0	0	0	527	616
3	0	0	0	0	528	616
4	0	0	0	0	528	615
5	0	0	0	0	529	615
6	0	0	0	0	529	615
7	0	0	0	0	529	616
8	0	0	0	0	528	615
9	0	0	0	0	528	616
10	0	0	0	0	528	616
11	0	0	0	0	528	616
12	0	0	0	0	528	615
13	0	0	0	0	527	615
14	0	0	0	0	526	616
15	0	0	0	0	524	616
0	0	0	0	0	523	615
1	0	0	0	0	521	615
2	0	0	0	0	521	616
3	0	0	0	0	521	616
4	0	0	0	0	522	615
5	0	0	0	0	523	615
6	0	0	0	0	524	615
7	0	0	0	0	524	615
8	0	0	0	0	524	615
9	0	0	0	0	524	615
10	0	0	0	0	524	615
11	0	0	0	0	525	616
12	0	0	0	0	525	616
13	0	0	0	0	524	615
14	0	0	0	0	524	615
15	0	0	0	0	523	615
0	0	0	0	0	523	615
1	0	0	0	0	524	615
2	0	0	0	0	524	615
3	0	0	0	0	525	615
4	0	0	0	0	526	615
5	0	0	0	0	527	615
6	0	0	0	0	528	615
7	0	0	0	0	528	615
8	0	0	0	0	528	615
9	0	0	0	0	528	614
10	0	0	0	0	528	614
11	0	0	0	0	528	615
12	0	0	0	0	528	615
13	0	0	0	0	529	615
14	0	0	0	0	528	614
15	0	0	0	0	528	615
0	0	0	0	0	527	615
1	0	0	0	0	526	615
2	0	0	0	0	525	614
3	0	0	0	0	525	615
4	0	0	0	0	525	614
5	0	0	0	0	526	614
6	0	0	0	0	526	614
7	0	0	0	0	528	615
8	0	0	0	0	529	614
9	0	0	0	0	531	614
10	0	0	0	0	533	614
11	0	0	0	0	533	615
12	0	0	0	0	532	614
13	0	0	0	0	532	614
14	0	0	0	0	531	614
15	0	0	0	0	530	614
0	0	0	0	0	529	614
1	0	0	0	0	529	614
2	0	0	0	0	527	615
3	0	0	0	0	527	615
4	0	0	0	0	528	614
5	0	0	0	0	528	614
6	0	0	0	0	530	614
7	0	0	0	0	531	615
8	0	0	0	0	533	614
9	0	0	0	0	534	614
10	0	0	0	0	534	615
11	0	0	0	0	535	615
12	0	0	0	0	535	614
13	0	0	0	0	534	614
14	0	0	0	0	531	614
15	0	0	0	0	527	615
0	0	0	0	0	522	615
1	0	0	0	0	516	615
2	0	0	0	0	512	615
3	0	0	0	0	507	615
4	0	0	0	0	501	615
5	0	0	0	0	497	615
6	0	0	0	0	494	615
7	0	0	0	0	494	615
8	0	0	0	0	496	615
9	0	0	0	0	499	614
10	0	0	0	0	505	614
11	0	0	0	0	512	615
12	0	0	0	0	519	614
13	0	0	0	0	527	614
14	0	0	0	0	532	615
15	0	0	0	0	539	615
0	0	0	0	0	548	615
1	0	0	0	0	560	615
2	0	0	0	0	574	615
3	0	0	0	0	588	615
4	0	0	0	0	604	615
5	0	0	0	0	620	616
6	0	0	0	0	637	615
7	0	0	0	0	653	615
8	0	0	0	0	671	616
9	0	0	0	0	689	615
10	0	0	0	0	704	615
11	0	0	0	0	720	615
12	0	0	0	0	736	615
13	0	0	0	0	751	615
14	0	0	0	0	763	615
15	0	0	0	0	771	615
0	0	0	0	0	777	615
1	0	0	0	0	778	615
2	0	0	0	0	775	615
3	0	0	0	0	769	615
4	0	0	0	0	760	615
5	0	0	0	0	745	615
6	0	0	0	0	723	615
7	0	0	0	0	699	615
8	0	0	0	0	677	615
9	0	0	0	0	656	615
10	0	0	0	0	638	615
11	0	0	0	0	621	615
12	0	0	0	0	606	615
13	0	0	0	0	592	615
14	0	0	0	0	578	615
15	0	0	0	0	566	615
0	0	0	0	0	553	615
1	0	0	0	0	544	615
2	0	0	0	0	537	615
3	0	0	0	0	531	616
4	0	0	0	0	526	615
5	0	0	0	0	520	615
6	0	0	0	0	516	615
7	0	0	0	0	513	615
8	0	0	0	0	511	615
9	0	0	0	0	508	615
10	0	0	0	0	506	615
11	0	0	0	0	503	616
12	0	0	0	0	499	615
13	0	0	0	0	497	615
14	0	0	0	0	495	615
15	0	0	0	0	493	615
0	0	0	0	0	492	615
1	0	0	0	0	490	615
2	0	0	0	0	487	615
3	0	0	0	0	485	616
4	0	0	0	0	484	615
5	0	0	0	0	483	615
6	0	0	0	0	483	615
7	0	0	0	0	484	616
8	0	0	0	0	483	616
9	0	0	0	0	483	616
10	0	0	0	0	484	616
11	0	0	0	0	483	617
12	0	0	0	0	484	616
13	0	0	0	0	483	616
14	0	0	0	0	484	616
15	0	0	0	0	484	616
0	0	0	0	0	485	616
1	0	0	0	0	487	616
2	0	0	0	0	487	615
3	0	0	0	0	487	615
4	0	0	0	0	487	615
5	0	0	0	0	488	616
6	0	0	0	0	488	616
7	0	0	0	0	489	616
8	0	0	0	0	490	616
9	0	0	0	0	490	616
10	0	0	0	0	491	615
11	0	0	0	0	491	616
12	0	0	0	0	491	616
13	0	0	0	0	492	615
14	0	0	0	0	492	615
15	0	0	0	0	492	616
0	0	0	0	0	492	615
1	0	0	0	0	492	615
2	0	0	0	0	491	615
3	0	0	0	0	492	615
4	0	0	0	0	493	615
5	0	0	0	0	493	615
6	0	0	0	0	493	615
7	0	0	0	0	493	615
8	0	0	0	0	493	616
9	0	0	0	0	493	615
10	0	0	0	0	494	615
11	0	0	0	0	495	616
12	0	0	0	0	495	615
13	0	0	0	0	496	616
14	0	0	0	0	496	615
15	0	0	0	0	497	616
0	0	0	0	0	497	616
1	0	0	0	0	498	616
2	0	0	0	0	498	615
3	0	0	0	0	497	616
4	0	0	0	0	498	615
5	0	0	0	0	497	616
6	0	0	0	0	497	616
7	0	0	0	0	498	616
8	0	0	0	0	499	616
9	0	0	0	0	499	616
10	0	0	0	0	500	616
11	0	0	0	0	499	616
12	0	0	0	0	500	616
13	0	0	0	0	501	615
14	0	0	0	0	501	616
15	0	0	0	0	501	615
0	0	0	0	0	501	615
1	0	0	0	0	502	615
2	0	0	0	0	503	616
3	0	0	0	0	504	616
4	0	0	0	0	504	615
5	0	0	0	0	506	616
6	0	0	0	0	506	616
7	0	0	0	0	506	616
8	0	0	0	0	506	616
9	0	0	0	0	507	616
10	0	0	0	0	508	616
11	0	0	0	0	509	616
12	0	0	0	0	509	615
13	0	0	0	0	510	616
14	0	0	0	0	510	615
15	0	0	0	0	511	617
0	0	0	0	0	512	616
1	0	0	0	0	512	616
2	0	0	0	0	512	616
3	0	0	0	0	512	616
4	0	0	0	0	512	616
5	0	0	0	0	512	615
6	0	0	0	0	513	615
7	0	0	0	0	513	616
8	0	0	0	0	513	615
9	0	0	0	0	514	615
10	0	0	0	0	513	615
11	0	0	0	0	513	616
12	0	0	0	0	512	615
13	0	0	0	0	512	615
14	0	0	0	0	511	615
15	0	0	0	0	511	616
0	0	0	0	0	511	616
1	0	0	0	0	511	615
2	0	0	0	0	511	615
3	0	0	0	0	511	616
4	0	0	0	0	511	615
5	0	0	0	0	511	615
6	0	0	0	0	511	615
7	0	0	0	0	511	616
8	0	0	0	0	511	615
9	0	0	0	0	511	615
10	0	0	0	0	511	615
11	0	0	0	0	512	616
12	0	0	0	0	514	615
13	0	0	0	0	516	615
14	0	0	0	0	517	615
15	0	0	0	0	519	615
0	0	0	0	0	519	615
1	0	0	0	0	519	615
2	0	0	0	0	519	615
3	0	0	0	0	519	615
4	0	0	0	0	520	615
5	0	0	0	0	520	615
6	0	0	0	0	520	614
7	0	0	0	0	520	615
8	0	0	0	0	520	615
9	0	0	0	0	521	615
10	0	0	0	0	520	615
11	0	0	0	0	519	615
12	0	0	0	0	519	615
13	0	0	0	0	518	614
14	0	0	0	0	518	615
15	0	0	0	0	518	615
0	0	0	0	0	518	615
1	0	0	0	0	517	614
2	0	0	0	0	516	615
3	0	0	0	0	518	615
4	0	0	0	0	518	615
5	0	0	0	0	518	614
6	0	0	0	0	519	615
7	0	0	0	0	520	615
8	0	0	0	0	520	615
9	0	0	0	0	520	615
10	0	0	0	0	520	614
11	0	0	0	0	520	615
12	0	0	0	0	521	615
13	0	0	0	0	521	615
14	0	0	0	0	521	614
15	0	0	0	0	522	615
0	0	0	0	0	523	615
1	0	0	0	0	523	615
2	0	0	0	0	524	615
3	0	0	0	0	525	615
4	0	0	0	0	524	615
5	0	0	0	0	525	616
6	0	0	0	0	525	616
7	0	0	0	0	525	616
8	0	0	0	0	525	617
9	0	0	0	0	525	616
10	0	0	0	0	526	616
11	0	0	0	0	527	616
12	0	0	0	0	527	616
13	0	0	0	0	527	616
14	0	0	0	0	527	616
15	0	0	0	0	526	616
0	0	0	0	0	526	616
1	0	0	0	0	526	617
2	0	0	0	0	525	616
3	0	0	0	0	525	616
4	0	0	0	0	524	615
5	0	0	0	0	524	615
6	0	0	0	0	524	616
7	0	0	0	0	525	616
8	0	0	0	0	526	616
9	0	0	0	0	526	615
10	0	0	0	0	527	615
11	0	0	0	0	527	616
12	0	0	0	0	528	616
13	0	0	0	0	529	615
14	0	0	0	0	530	615
15	0	0	0	0	531	616
0	0	0	0	0	533	615
1	0	0	0	0	534	615
2	0	0	0	0	535	615
3	0	0	0	0	536	616
4	0	0	0	0	537	615
5	0	0	0	0	537	615
6	0	0	0	0	538	615
7	0	0	0	0	539	616
8	0	0	0	0	540	615
9	0	0	0	0	540	615
10	0	0	0	0	540	615
11	0	0	0	0	540	615
12	0	0	0	0	540	615
13	0	0	0	0	542	615
14	0	0	0	0	542	615
15	0	0	0	0	543	615
0	0	0	0	0	544	615
1	0	0	0	0	546	615
2	0	0	0	0	547	615
3	0	0	0	0	547	615
4	0	0	0	0	547	615
5	0	0	0	0	548	615
6	0	0	0	0	549	615
7	0	0	0	0	549	615
8	0	0	0	0	549	615
9	0	0	0	0	549	615
10	0	0	0	0	549	615
11	0	0	0	0	549	615
12	0	0	0	0	550	615
13	0	0	0	0	551	615
14	0	0	0	0	551	615
15	0	0	0	0	552	615
0	0	0	0	0	552	614
1	0	0	0	0	553	614
2	0	0	0	0	554	614
3	0	0	0	0	555	615
4	0	0	0	0	556	614
5	0	0	0	0	556	614
6	0	0	0	0	556	614
7	0	0	0	0	556	615
8	0	0	0	0	556	614
9	0	0	0	0	556	614
10	0	0	0	0	557	614
11	0	0	0	0	557	615
12	0	0	0	0	558	614
13	0	0	0	0	559	614
14	0	0	0	0	559	615
15	0	0	0	0	560	615
0	0	0	0	0	560	615
1	0	0	0	0	560	615
2	0	0	0	0	560	614
3	0	0	0	0	560	615
4	0	0	0	0	561	614
5	0	0	0	0	561	614
6	0	0	0	0	560	614
7	0	0	0	0	559	615
8	0	0	0	0	558	614
9	0	0	0	0	557	614
10	0	0	0	0	557	614
11	0	0	0	0	558	615
12	0	0	0	0	559	614
13	0	0	0	0	559	614
14	0	0	0	0	559	614
15	0	0	0	0	559	615
0	0	0	0	0	559	615
1	0	0	0	0	558	615
2	0	0	0	0	557	615
3	0	0	0	0	556	615
4	0	0	0	0	555	615
5	0	0	0	0	554	614
6	0	0	0	0	553	615
7	0	0	0	0	552	614
8	0	0	0	0	551	614
9	0	0	0	0	549	615
10	0	0	0	0	547	614
11	0	0	0	0	546	614
12	0	0	0	0	544	614
13	0	0	0	0	542	614
14	0	0	0	0	541	614
15	0	0	0	0	539	614
0	0	0	0	0	537	614
1	0	0	0	0	535	614
2	0	0	0	0	531	614
3	0	0	0	0	527	615
4	0	0	0	0	524	614
5	0	0	0	0	522	615
6	0	0	0	0	519	614
7	0	0	0	0	517	615
8	0	0	0	0	514	615
9	0	0	0	0	512	615
10	0	0	0	0	511	615
11	0	0	0	0	510	615
12	0	0	0	0	509	614
13	0	0	0	0	508	615
14	0	0	0	0	508	615
15	0	0	0	0	508	615
0	0	0	0	0	507	615
1	0	0	0	0	506	615
2	0	0	0	0	504	615
3	0	0	0	0	504	615
4	0	0	0	0	502	615
5	0	0	0	0	500	615
6	0	0	0	0	499	615
7	0	0	0	0	498	615
8	0	0	0	0	497	615
9	0	0	0	0	495	615
10	0	0	0	0	492	615
11	0	0	0	0	490	615
12	0	0	0	0	488	614
13	0	0	0	0	485	615
14	0	0	0	0	484	615
15	0	0	0	0	484	615
0	0	0	0	0	485	615
1	0	0	0	0	484	615
2	0	0	0	0	484	615
3	0	0	0	0	485	615
4	0	0	0	0	485	615
5	0	0	0	0	486	615
6	0	0	0	0	486	615
7	0	0	0	0	485	615
8	0	0	0	0	484	615
9	0	0	0	0	483	616
10	0	0	0	0	483	615
11	0	0	0	0	483	616
12	0	0	0	0	483	616
13	0	0	0	0	484	615
14	0	0	0	0	484	615
15	0	0	0	0	483	616
0	0	0	0	0	483	615
1	0	0	0	0	482	615
2	0	0	0	0	481	615
3	0	0	0	0	481	616
4	0	0	0	0	482	616
5	0	0	0	0	483	615
6	0	0	0	0	484	616
7	0	0	0	0	485	615
8	0	0	0	0	485	615
9	0	0	0	0	486	616
10	0	0	0	0	486	615
11	0	0	0	0	487	616
12	0	0	0	0	487	616
13	0	0	0	0	487	615
14	0	0	0	0	487	615
15	0	0	0	0	487	615
0	0	0	0	0	487	615
1	0	0	0	0	488	616
2	0	0	0	0	488	615
3	0	0	0	0	488	616
4	0	0	0	0	488	615
5	0	0	0	0	488	615
6	0	0	0	0	488	615
7	0	0	0	0	487	616
8	0	0	0	0	487	616
9	0	0	0	0	488	615
10	0	0	0	0	490	616
11	0	0	0	0	490	616
12	0	0	0	0	490	615
13	0	0	0	0	491	616
14	0	0	0	0	490	616
15	0	0	0	0	490	616
0	0	0	0	0	490	615
1	0	0	0	0	490	615
2	0	0	0	0	489	616
3	0	0	0	0	490	616
4	0	0	0	0	490	616
5	0	0	0	0	491	616
6	0	0	0	0	491	615
7	0	0	0	0	491	616
8	0	0	0	0	491	615
9	0	0	0	0	491	615
10	0	0	0	0	492	615
11	0	0	0	0	493	616
12	0	0	0	0	494	615
13	0	0	0	0	495	614
14	0	0	0	0	495	615
15	0	0	0	0	496	615
0	0	0	0	0	496	615
1	0	0	0	0	496	615
2	0	0	0	0	496	615
3	0	0	0	0	497	615
4	0	0	0	0	496	615
5	0	0	0	0	496	614
6	0	0	0	0	496	615
7	0	0	0	0	496	615
8	0	0	0	0	496	615
9	0	0	0	0	496	615
10	0	0	0	0	496	615
11	0	0	0	0	497	615
12	0	0	0	0	498	615
13	0	0	0	0	498	615
14	0	0	0	0	499	615
15	0	0	0	0	501	615
0	0	0	0	0	502	615
1	0	0	0	0	503	615
2	0	0	0	0	503	615
3	0	0	0	0	503	616
4	0	0	0	0	504	615
5	0	0	0	0	504	615
6	0	0	0	0	504	615
7	0	0	0	0	504	616
8	0	0	0	0	504	615
9	0	0	0	0	504	615
10	0	0	0	0	505	615
11	0	0	0	0	505	616
12	0	0	0	0	505	616
13	0	0	0	0	506	615
14	0	0	0	0	506	615
15	0	0	0	0	506	616
0	0	0	0	0	506	616
1	0	0	0	0	507	616
2	0	0	0	0	508	616
3	0	0	0	0	508	616
4	0	0	0	0	508	616
5	0	0	0	0	509	615
6	0	0	0	0	509	616
7	0	0	0	0	510	616
8	0	0	0	0	510	616
9	0	0	0	0	511	617
10	0	0	0	0	511	617
11	0	0	0	0	511	617
12	0	0	0	0	511	616
13	0	0	0	0	512	616
14	0	0	0	0	512	617
15	0	0	0	0	512	616
0	0	0	0	0	512	616
1	0	0	0	0	511	616
2	0	0	0	0	510	617
3	0	0	0	0	510	617
4	0	0	0	0	510	616
5	0	0	0	0	510	616
6	0	0	0	0	510	616
7	0	0	0	0	511	616
8	0	0	0	0	511	616
9	0	0	0	0	512	616
10	0	0	0	0	512	616
11	0	0	0	0	513	616
12	0	0	0	0	512	616
13	0	0	0	0	512	616
14	0	0	0	0	513	615
15	0	0	0	0	513	615
0	0	0	0	0	513	615
1	0	0	0	0	514	615
2	0	0	0	0	513	616
3	0	0	0	0	513	616
4	0	0	0	0	513	616
5	0	0	0	0	511	615
6	0	0	0	0	510	615
7	0	0	0	0	510	616
8	0	0	0	0	510	615
9	0	0	0	0	510	615
10	0	0	0	0	509	615
11	0	0	0	0	509	616
12	0	0	0	0	511	615
13	0	0	0	0	512	615
14	0	0	0	0	513	615
15	0	0	0	0	513	615
0	0	0	0	0	513	615
1	0	0	0	0	513	615
2	0	0	0	0	515	615
3	0	0	0	0	515	615
4	0	0	0	0	516	615
5	0	0	0	0	516	615
6	0	0	0	0	517	615
7	0	0	0	0	517	615
8	0	0	0	0	517	615
9	0	0	0	0	518	615
10	0	0	0	0	517	615
11	0	0	0	0	517	615
12	0	0	0	0	517	615
13	0	0	0	0	516	615
14	0	0	0	0	516	615
15	0	0	0	0	515	615
0	0	0	0	0	515	615
1	0	0	0	0	516	615
2	0	0	0	0	516	615
3	0	0	0	0	517	615
4	0	0	0	0	517	615
5	0	0	0	0	518	615
6	0	0	0	0	519	615
7	0	0	0	0	519	616
8	0	0	0	0	519	615
9	0	0	0	0	519	615
10	0	0	0	0	519	615
11	0	0	0	0	520	615
12	0	0	0	0	520	616
13	0	0	0	0	521	616
14	0	0	0	0	521	616
15	0	0	0	0	521	615
0	0	0	0	0	520	616
1	0	0	0	0	519	616
2	0	0	0	0	518	615
3	0	0	0	0	517	616
4	0	0	0	0	516	615
5	0	0	0	0	516	616
6	0	0	0	0	515	615
7	0	0	0	0	515	616
8	0	0	0	0	515	615
9	0	0	0	0	514	615
10	0	0	0	0	514	615
11	0	0	0	0	513	616
12	0	0	0	0	513	616
13	0	0	0	0	512	615
14	0	0	0	0	512	616
15	0	0	0	0	511	616
0	0	0	0	0	511	615
1	0	0	0	0	510	616
2	0	0	0	0	511	615
3	0	0	0	0	511	616
4	0	0	0	0	512	616
5	0	0	0	0	513	616
6	0	0	0	0	514	616
7	0	0	0	0	514	617
8	0	0	0	0	515	616
9	0	0	0	0	516	616
10	0	0	0	0	516	616
11	0	0	0	0	517	617
12	0	0	0	0	518	616
13	0	0	0	0	517	616
14	0	0	0	0	516	616
15	0	0	0	0	516	616
0	0	0	0	0	516	616
1	0	0	0	0	516	616
2	0	0	0	0	515	616
3	0	0	0	0	515	617
4	0	0	0	0	515	615
5	0	0	0	0	515	616
6	0	0	0	0	514	617
7	0	0	0	0	514	616
8	0	0	0	0	515	616
9	0	0	0	0	515	616
10	0	0	0	0	516	617
11	0	0	0	0	515	617
12	0	0	0	0	516	617
13	0	0	0	0	515	616
14	0	0	0	0	516	616
15	0	0	0	0	515	617
0	0	0	0	0	515	616
1	0	0	0	0	516	616
2	0	0	0	0	514	616
3	0	0	0	0	514	617
4	0	0	0	0	514	616
5	0	0	0	0	513	615
6	0	0	0	0	513	616
7	0	0	0	0	513	616
8	0	0	0	0	512	616
9	0	0	0	0	511	615
10	0	0	0	0	511	615
11	0	0	0	0	512	616
12	0	0	0	0	512	615
13	0	0	0	0	512	616
14	0	0	0	0	512	615
15	0	0	0	0	511	616
0	0	0	0	0	510	616
1	0	0	0	0	510	616
2	0	0	0	0	511	616
3	0	0	0	0	511	616
4	0	0	0	0	511	615
5	0	0	0	0	510	615
6	0	0	0	0	510	615
7	0	0	0	0	511	615
8	0	0	0	0	512	616
9	0	0	0	0	513	616
10	0	0	0	0	513	615
11	0	0	0	0	512	616
12	0	0	0	0	513	615
13	0	0	0	0	513	615
14	0	0	0	0	513	615
15	0	0	0	0	512	615
0	0	0	0	0	512	615
1	0	0	0	0	512	615
2	0	0	0	0	512	615
3	0	0	0	0	512	615
4	0	0	0	0	511	615
5	0	0	0	0	511	615
6	0	0	0	0	509	615
7	0	0	0	0	508	615
8	0	0	0	0	507	615
9	0	0	0	0	507	615
10	0	0	0	0	507	615
11	0	0	0	0	508	615
12	0	0	0	0	509	615
13	0	0	0	0	509	615
14	0	0	0	0	511	615
15	0	0	0	0	512	615
0	0	0	0	0	513	615
1	0	0	0	0	514	615
2	0	0	0	0	514	615
3	0	0	0	0	515	615
4	0	0	0	0	515	614
5	0	0	0	0	515	615
6	0	0	0	0	515	615
7	0	0	0	0	514	615
8	0	0	0	0	513	615
9	0	0	0	0	512	615
10	0	0	0	0	512	615
11	0	0	0	0	511	616
12	0	0	0	0	512	615
13	0	0	0	0	512	615
14	0	0	0	0	513	615
15	0	0	0	0	512	616
0	0	0	0	0	512	615
1	0	0	0	0	512	615
2	0	0	0	0	513	615
3	0	0	0	0	514	615
4	0	0	0	0	514	615
5	0	0	0	0	515	615
6	0	0	0	0	513	614
7	0	0	0	0	513	615
8	0	0	0	0	513	615
9	0	0	0	0	514	615
10	0	0	0	0	514	615
11	0	0	0	0	514	615
12	0	0	0	0	514	615
13	0	0	0	0	513	615
14	0	0	0	0	514	615
15	0	0	0	0	513	615
0	0	0	0	0	514	615
1	0	0	0	0	513	615
2	0	0	0	0	513	615
3	0	0	0	0	514	615
4	0	0	0	0	515	615
5	0	0	0	0	515	615
6	0	0	0	0	516	615
7	0	0	0	0	517	615
8	0	0	0	0	518	615
9	0	0	0	0	518	615
10	0	0	0	0	519	615
11	0	0	0	0	519	615
12	0	0	0	0	519	615
13	0	0	0	0	520	615
14	0	0	0	0	521	616
15	0	0	0	0	522	615
0	0	0	0	0	524	615
1	0	0	0	0	525	615
2	0	0	0	0	524	615
3	0	0	0	0	524	615
4	0	0	0	0	523	615
5	0	0	0	0	522	615
6	0	0	0	0	521	615
7	0	0	0	0	520	615
8	0	0	0	0	519	615
9	0	0	0	0	518	615
10	0	0	0	0	518	615
11	0	0	0	0	518	615
12	0	0	0	0	517	615
13	0	0	0	0	518	615
14	0	0	0	0	518	614
15	0	0	0	0	519	615
0	0	0	0	0	519	615
1	0	0	0	0	519	615
2	0	0	0	0	519	615
3	0	0	0	0	519	615
4	0	0	0	0	520	615
5	0	0	0	0	520	615
6	0	0	0	0	520	615
7	0	0	0	0	519	615
8	0	0	0	0	519	615
9	0	0	0	0	518	615
10	0	0	0	0	518	615
11	0	0	0	0	516	615
12	0	0	0	0	515	615
13	0	0	0	0	514	615
14	0	0	0	0	513	615
15	0	0	0	0	511	615
0	0	0	0	0	510	615
1	0	0	0	0	508	615
2	0	0	0	0	505	615
3	0	0	0	0	504	615
4	0	0	0	0	504	615
5	0	0	0	0	504	615
6	0	0	0	0	504	615
7	0	0	0	0	506	615
8	0	0	0	0	506	615
9	0	0	0	0	507	615
10	0	0	0	0	508	615
11	0	0	0	0	510	616
12	0	0	0	0	511	615
13	0	0	0	0	511	615
14	0	0	0	0	512	615
15	0	0	0	0	512	616
0	0	0	0	0	512	616
1	0	0	0	0	511	615
2	0	0	0	0	511	615
3	0	0	0	0	510	615
4	0	0	0	0	510	615
5	0	0	0	0	510	615
6	0	0	0	0	510	615
7	0	0	0	0	511	616
8	0	0	0	0	511	616
9	0	0	0	0	511	615
10	0	0	0	0	511	615
11	0	0	0	0	511	616
12	0	0	0	0	512	616
13	0	0	0	0	512	615
14	0	0	0	0	512	615
15	0	0	0	0	511	615
0	0	0	0	0	510	615
1	0	0	0	0	510	615
2	0	0	0	0	509	615
3	0	0	0	0	509	615
4	0	0	0	0	508	615
5	0	0	0	0	509	615
6	0	0	0	0	509	615
7	0	0	0	0	509	616
8	0	0	0	0	510	615
9	0	0	0	0	511	615
10	0	0	0	0	511	616
11	0	0	0	0	511	616
12	0	0	0	0	511	616
13	0	0	0	0	511	616
14	0	0	0	0	511	616
15	0	0	0	0	511	616
0	0	0	0	0	511	616
1	0	0	0	0	510	616
2	0	0	0	0	510	616
3	0	0	0	0	510	617
4	0	0	0	0	509	616
5	0	0	0	0	509	616
6	0	0	0	0	509	615
7	0	0	0	0	509	615
8	0	0	0	0	508	616
9	0	0	0	0	509	616
10	0	0	0	0	510	616
11	0	0	0	0	510	617
12	0	0	0	0	509	615
13	0	0	0	0	508	616
14	0	0	0	0	508	615
15	0	0	0	0	508	616
0	0	0	0	0	507	615
1	0	0	0	0	507	615
2	0	0	0	0	506	615
3	0	0	0	0	506	615
4	0	0	0	0	506	615
5	0	0	0	0	505	614
6	0	0	0	0	506	615
7	0	0	0	0	506	615
8	0	0	0	0	505	615
9	0	0	0	0	505	615
10	0	0	0	0	505	615
11	0	0	0	0	505	615
12	0	0	0	0	505	615
13	0	0	0	0	504	615
14	0	0	0	0	504	615
15	0	0	0	0	504	615
0	0	0	0	0	504	615
1	0	0	0	0	504	615
2	0	0	0	0	504	615
3	0	0	0	0	504	615
4	0	0	0	0	503	615
5	0	0	0	0	499	614
6	0	0	0	0	496	614
7	0	0	0	0	492	615
8	0	0	0	0	487	615
9	0	0	0	0	483	615
10	0	0	0	0	478	614
11	0	0	0	0	473	615
12	0	0	0	0	468	614
13	0	0	0	0	464	615
14	0	0	0	0	463	615
15	0	0	0	0	464	615
0	0	0	0	0	467	615
1	0	0	0	0	471	615
2	0	0	0	0	476	615
3	0	0	0	0	483	615
4	0	0	0	0	489	615
5	0	0	0	0	496	616
6	0	0	0	0	502	615
7	0	0	0	0	510	615
8	0	0	0	0	521	615
9	0	0	0	0	534	615
10	0	0	0	0	550	615
11	0	0	0	0	567	615
12	0	0	0	0	584	615
13	0	0	0	0	601	614
14	0	0	0	0	619	615
15	0	0	0	0	637	615
0	0	0	0	0	656	615
1	0	0	0	0	675	615
2	0	0	0	0	692	615
3	0	0	0	0	711	615
4	0	0	0	0	728	615
5	0	0	0	0	742	615
6	0	0	0	0	753	615
7	0	0	0	0	761	615
8	0	0	0	0	767	614
9	0	0	0	0	767	615
10	0	0	0	0	761	615
11	0	0	0	0	752	615
12	0	0	0	0	740	614
13	0	0	0	0	719	614
14	0	0	0	0	694	615
15	0	0	0	0	670	615
0	0	0	0	0	647	615
1	0	0	0	0	626	615
2	0	0	0	0	607	614
3	0	0	0	0	590	615
4	0	0	0	0	575	615
5	0	0	0	0	561	615
6	0	0	0	0	548	615
7	0	0	0	0	536	615
8	0	0	0	0	525	615
9	0	0	0	0	516	615
10	0	0	0	0	508	614
11	0	0	0	0	502	615
12	0	0	0	0	498	615
13	0	0	0	0	495	615
14	0	0	0	0	491	615
15	0	0	0	0	487	615
0	0	0	0	0	484	615
1	0	0	0	0	480	616
2	0	0	0	0	478	615
3	0	0	0	0	475	616
4	0	0	0	0	473	615
5	0	0	0	0	471	615
6	0	0	0	0	469	615
7	0	0	0	0	467	615
8	0	0	0	0	466	615
9	0	0	0	0	465	615
10	0	0	0	0	464	615
11	0	0	0	0	463	615
12	0	0	0	0	463	615
13	0	0	0	0	463	614
14	0	0	0	0	464	615
15	0	0	0	0	464	615
0	0	0	0	0	465	614
1	0	0	0	0	466	615
2	0	0	0	0	465	615
3	0	0	0	0	464	615
4	0	0	0	0	463	615
5	0	0	0	0	462	615
6	0	0	0	0	463	615
7	0	0	0	0	463	615
8	0	0	0	0	463	615
9	0	0	0	0	464	615
10	0	0	0	0	463	615
11	0	0	0	0	463	615
12	0	0	0	0	462	614
13	0	0	0	0	463	615
14	0	0	0	0	464	614
15	0	0	0	0	464	615
0	0	0	0	0	464	614
1	0	0	0	0	463	614
2	0	0	0	0	464	614
3	0	0	0	0	464	615
4	0	0	0	0	464	614
5	0	0	0	0	465	614
6	0	0	0	0	465	614
7	0	0	0	0	465	615
8	0	0	0	0	465	614
9	0	0	0	0	465	614
10	0	0	0	0	466	614
11	0	0	0	0	465	615
12	0	0	0	0	466	614
13	0	0	0	0	466	615
14	0	0	0	0	467	615
15	0	0	0	0	467	615
0	0	0	0	0	467	615
1	0	0	0	0	466	615
2	0	0	0	0	467	614
3	0	0	0	0	468	615
4	0	0	0	0	470	615
5	0	0	0	0	470	615
6	0	0	0	0	471	615
7	0	0	0	0	471	616
8	0	0	0	0	471	615
9	0	0	0	0	471	615
10	0	0	0	0	470	615
11	0	0	0	0	470	615
12	0	0	0	0	470	615
13	0	0	0	0	470	615
14	0	0	0	0	470	615
15	0	0	0	0	470	615
0	0	0	0	0	471	616
1	0	0	0	0	470	616
2	0	0	0	0	471	616
3	0	0	0	0	471	617
4	0	0	0	0	472	615
5	0	0	0	0	472	616
6	0	0	0	0	472	616
7	0	0	0	0	473	617
8	0	0	0	0	473	616
9	0	0	0	0	473	616
10	0	0	0	0	473	615
11	0	0	0	0	474	616
12	0	0	0	0	474	615
13	0	0	0	0	474	615
14	0	0	0	0	473	615
15	0	0	0	0	475	615
0	0	0	0	0	476	615
1	0	0	0	0	476	615
2	0	0	0	0	478	615
3	0	0	0	0	478	615
4	0	0	0	0	479	615
5	0	0	0	0	480	615
6	0	0	0	0	481	615
7	0	0	0	0	482	616
8	0	0	0	0	484	615
9	0	0	0	0	485	615
10	0	0	0	0	486	615
11	0	0	0	0	487	616
12	0	0	0	0	487	615
13	0	0	0	0	487	615
14	0	0	0	0	488	615
15	0	0	0	0	488	615
0	0	0	0	0	488	615
1	0	0	0	0	487	615
2	0	0	0	0	487	615
3	0	0	0	0	487	615
4	0	0	0	0	488	615
5	0	0	0	0	488	615
6	0	0	0	0	488	615
7	0	0	0	0	488	615
8	0	0	0	0	487	615
9	0	0	0	0	489	615
10	0	0	0	0	491	615
11	0	0	0	0	491	616
12	0	0	0	0	488	615
13	0	0	0	0	487	615
14	0	0	0	0	486	615
15	0	0	0	0	486	616
0	0	0	0	0	486	616
1	0	0	0	0	487	615
2	0	0	0	0	487	615
3	0	0	0	0	487	616
4	0	0	0	0	488	615
5	0	0	0	0	490	616
6	0	0	0	0	490	615
7	0	0	0	0	491	616
8	0	0	0	0	490	616
9	0	0	0	0	491	615
10	0	0	0	0	492	615
11	0	0	0	0	493	616
12	0	0	0	0	494	615
13	0	0	0	0	494	615
14	0	0	0	0	494	615
15	0	0	0	0	493	616
0	0	0	0	0	493	615
1	0	0	0	0	493	615
2	0	0	0	0	494	615
3	0	0	0	0	494	615
4	0	0	0	0	493	615
5	0	0	0	0	492	615
6	0	0	0	0	492	615
7	0	0	0	0	492	615
8	0	0	0	0	493	615
9	0	0	0	0	493	615
10	0	0	0	0	494	615
11	0	0	0	0	495	615
12	0	0	0	0	496	615
13	0	0	0	0	497	615
14	0	0	0	0	497	615
15	0	0	0	0	498	615
0	0	0	0	0	499	615
1	0	0	0	0	499	615
2	0	0	0	0	499	615
3	0	0	0	0	500	616
4	0	0	0	0	501	615
5	0	0	0	0	500	615
6	0	0	0	0	500	615
7	0	0	0	0	500	615
8	0	0	0	0	499	615
9	0	0	0	0	499	616
10	0	0	0	0	499	615
11	0	0	0	0	499	616
12	0	0	0	0	498	615
13	0	0	0	0	499	616
14	0	0	0	0	499	616
15	0	0	0	0	499	617
0	0	0	0	0	498	616
1	0	0	0	0	498	616
2	0	0	0	0	499	617
3	0	0	0	0	499	617
4	0	0	0	0	499	616
5	0	0	0	0	500	616
6	0	0	0	0	500	617
7	0	0	0	0	501	617
8	0	0	0	0	502	616
9	0	0	0	0	503	616
10	0	0	0	0	504	616
11	0	0	0	0	503	617
12	0	0	0	0	502	616
13	0	0	0	0	502	616
14	0	0	0	0	502	617
15	0	0	0	0	502	617
0	0	0	0	0	503	616
1	0	0	0	0	503	616
2	0	0	0	0	503	616
3	0	0	0	0	503	617
4	0	0	0	0	503	616
5	0	0	0	0	504	617
6	0	0	0	0	504	617
7	0	0	0	0	506	617
8	0	0	0	0	507	617
9	0	0	0	0	508	617
10	0	0	0	0	508	617
11	0	0	0	0	509	617
12	0	0	0	0	508	617
13	0	0	0	0	508	616
14	0	0	0	0	508	617
15	0	0	0	0	509	616
0	0	0	0	0	511	617
1	0	0	0	0	511	616
2	0	0	0	0	512	617
3	0	0	0	0	512	617
4	0	0	0	0	513	616
5	0	0	0	0	514	616
6	0	0	0	0	514	616
7	0	0	0	0	515	616
8	0	0	0	0	516	616
9	0	0	0	0	516	616
10	0	0	0	0	518	616
11	0	0	0	0	519	617
12	0	0	0	0	518	616
13	0	0	0	0	519	616
14	0	0	0	0	519	615
15	0	0	0	0	519	616
0	0	0	0	0	519	616
1	0	0	0	0	519	616
2	0	0	0	0	519	617
3	0	0	0	0	520	616
4	0	0	0	0	522	615
5	0	0	0	0	523	616
6	0	0	0	0	523	616
7	0	0	0	0	525	616
8	0	0	0	0	526	615
9	0	0	0	0	527	615
10	0	0	0	0	527	615
11	0	0	0	0	529	616
12	0	0	0	0	530	616
13	0	0	0	0	530	616
14	0	0	0	0	531	616
15	0	0	0	0	532	616
0	0	0	0	0	532	615
1	0	0	0	0	532	615
2	0	0	0	0	532	615
3	0	0	0	0	532	616
4	0	0	0	0	532	615
5	0	0	0	0	533	615
6	0	0	0	0	533	615
7	0	0	0	0	532	615
8	0	0	0	0	533	615
9	0	0	0	0	532	615
10	0	0	0	0	532	615
11	0	0	0	0	533	616
12	0	0	0	0	533	615
13	0	0	0	0	534	615
14	0	0	0	0	534	615
15	0	0	0	0	534	616
0	0	0	0	0	534	615
1	0	0	0	0	534	615
2	0	0	0	0	534	615
3	0	0	0	0	534	615
4	0	0	0	0	534	615
5	0	0	0	0	533	615
6	0	0	0	0	533	615
7	0	0	0	0	534	615
8	0	0	0	0	534	615
9	0	0	0	0	533	615
10	0	0	0	0	532	615
11	0	0	0	0	531	615
12	0	0	0	0	531	615
13	0	0	0	0	530	615
14	0	0	0	0	529	615
15	0	0	0	0	528	615
0	0	0	0	0	527	615
1	0	0	0	0	524	615
2	0	0	0	0	523	615
3	0	0	0	0	521	615
4	0	0	0	0	519	615
5	0	0	0	0	519	615
6	0	0	0	0	518	615
7	0	0	0	0	517	615
8	0	0	0	0	516	615
9	0	0	0	0	515	615
10	0	0	0	0	513	615
11	0	0	0	0	512	615
12	0	0	0	0	510	614
13	0	0	0	0	508	615
14	0	0	0	0	506	614
15	0	0	0	0	504	615
0	0	0	0	0	502	615
1	0	0	0	0	500	614
2	0	0	0	0	499	615
3	0	0	0	0	497	615
4	0	0	0	0	496	615
5	0	0	0	0	494	615
6	0	0	0	0	492	615
7	0	0	0	0	492	615
8	0	0	0	0	491	615
9	0	0	0	0	489	615
10	0	0	0	0	489	614
11	0	0	0	0	489	615
12	0	0	0	0	488	614
13	0	0	0	0	487	615
14	0	0	0	0	486	615
15	0	0	0	0	484	615
0	0	0	0	0	483	615
1	0	0	0	0	484	615
2	0	0	0	0	483	615
3	0	0	0	0	482	615
4	0	0	0	0	481	615
5	0	0	0	0	481	615
6	0	0	0	0	480	615
7	0	0	0	0	480	615
8	0	0	0	0	480	615
9	0	0	0	0	480	615
10	0	0	0	0	480	615
11	0	0	0	0	480	615
12	0	0	0	0	478	615
13	0	0	0	0	477	615
14	0	0	0	0	477	615
15	0	0	0	0	476	615
0	0	0	0	0	476	615
1	0	0	0	0	475	615
2	0	0	0	0	473	615
3	0	0	0	0	473	615
4	0	0	0	0	472	614
5	0	0	0	0	473	614
6	0	0	0	0	473	614
7	0	0	0	0	473	614
8	0	0	0	0	473	615
9	0	0	0	0	473	614
10	0	0	0	0	473	614
11	0	0	0	0	475	615
12	0	0	0	0	475	614
13	0	0	0	0	476	614
14	0	0	0	0	476	614
15	0	0	0	0	477	615
0	0	0	0	0	477	615
1	0	0	0	0	478	615
2	0	0	0	0	478	615
3	0	0	0	0	478	615
4	0	0	0	0	478	615
5	0	0	0	0	478	614
6	0	0	0	0	478	615
7	0	0	0	0	477	615
8	0	0	0	0	477	615
9	0	0	0	0	477	615
10	0	0	0	0	478	615
11	0	0	0	0	477	615
12	0	0	0	0	478	615
13	0	0	0	0	478	615
14	0	0	0	0	478	614
15	0	0	0	0	478	615
0	0	0	0	0	477	615
1	0	0	0	0	477	615
2	0	0	0	0	476	614
3	0	0	0	0	476	615
4	0	0	0	0	476	615
5	0	0	0	0	477	615
6	0	0	0	0	477	615
7	0	0	0	0	478	615
8	0	0	0	0	479	614
9	0	0	0	0	480	614
10	0	0	0	0	480	614
11	0	0	0	0	480	615
12	0	0	0	0	480	614
13	0	0	0	0	481	614
14	0	0	0	0	483	615
15	0	0	0	0	483	615
0	0	0	0	0	483	615
1	0	0	0	0	483	615
2	0	0	0	0	483	615
3	0	0	0	0	483	615
4	0	0	0	0	483	615
5	0	0	0	0	484	615
6	0	0	0	0	484	615
7	0	0	0	0	484	615
8	0	0	0	0	483	615
9	0	0	0	0	482	615
10	0	0	0	0	482	615
11	0	0	0	0	482	615
12	0	0	0	0	481	614
13	0	0	0	0	481	614
14	0	0	0	0	482	614
15	0	0	0	0	483	615
0	0	0	0	0	483	615
1	0	0	0	0	484	615
2	0	0	0	0	485	615
3	0	0	0	0	485	615
4	0	0	0	0	486	615
5	0	0	0	0	487	615
6	0	0	0	0	487	614
7	0	0	0	0	488	614
8	0	0	0	0	488	614
9	0	0	0	0	489	614
10	0	0	0	0	490	614
11	0	0	0	0	491	615
12	0	0	0	0	491	614
13	0	0	0	0	490	614
14	0	0	0	0	490	614
15	0	0	0	0	490	615
0	0	0	0	0	491	614
1	0	0	0	0	491	614
2	0	0	0	0	492	614
3	0	0	0	0	492	615
4	0	0	0	0	492	614
5	0	0	0	0	493	615
6	0	0	0	0	494	615
7	0	0	0	0	494	615
8	0	0	0	0	494	615
9	0	0	0	0	495	614
10	0	0	0	0	495	614
11	0	0	0	0	496	615
12	0	0	0	0	496	614
13	0	0	0	0	496	614
14	0	0	0	0	496	614
15	0	0	0	0	497	615
0	0	0	0	0	497	615
1	0	0	0	0	496	615
2	0	0	0	0	496	615
3	0	0	0	0	496	615
4	0	0	0	0	495	615
5	0	0	0	0	494	615
6	0	0	0	0	495	615
7	0	0	0	0	495	615
8	0	0	0	0	496	615
9	0	0	0	0	496	616
10	0	0	0	0	496	615
11	0	0	0	0	496	616
12	0	0	0	0	496	615
13	0	0	0	0	496	615
14	0	0	0	0	496	615
15	0	0	0	0	495	615
0	0	0	0	0	495	615
1	0	0	0	0	495	615
2	0	0	0	0	495	615
3	0	0	0	0	495	616
4	0	0	0	0	495	615
5	0	0	0	0	496	615
6	0	0	0	0	497	616
7	0	0	0	0	497	616
8	0	0	0	0	499	616
9	0	0	0	0	499	615
10	0	0	0	0	499	615
11	0	0	0	0	499	616
12	0	0	0	0	499	615
13	0	0	0	0	500	616
14	0	0	0	0	500	616
15	0	0	0	0	501	616
0	0	0	0	0	502	616
1	0	0	0	0	502	615
2	0	0	0	0	501	615
3	0	0	0	0	502	616
4	0	0	0	0	503	616
5	0	0	0	0	504	615
6	0	0	0	0	504	615
7	0	0	0	0	505	616
8	0	0	0	0	505	616
9	0	0	0	0	505	616
10	0	0	0	0	504	615
11	0	0	0	0	504	615
12	0	0	0	0	505	615
13	0	0	0	0	505	615
14	0	0	0	0	504	615
15	0	0	0	0	505	615
0	0	0	0	0	505	615
1	0	0	0	0	505	615
2	0	0	0	0	506	615
3	0	0	0	0	505	615
4	0	0	0	0	505	615
5	0	0	0	0	504	615
6	0	0	0	0	504	615
7	0	0	0	0	504	615
8	0	0	0	0	504	615
9	0	0	0	0	504	615
10	0	0	0	0	503	615
11	0	0	0	0	503	616
12	0	0	0	0	503	615
13	0	0	0	0	502	615
14	0	0	0	0	501	615
15	0	0	0	0	500	615
0	0	0	0	0	501	615
1	0	0	0	0	501	615
2	0	0	0	0	502	616
3	0	0	0	0	502	617
4	0	0	0	0	501	615
5	0	0	0	0	503	616
6	0	0	0	0	503	615
7	0	0	0	0	503	616
8	0	0	0	0	504	615
9	0	0	0	0	504	615
10	0	0	0	0	504	615
11	0	0	0	0	503	616
12	0	0	0	0	503	615
13	0	0	0	0	502	616
14	0	0	0	0	502	615
15	0	0	0	0	502	615
0	0	0	0	0	502	615
1	0	0	0	0	502	615
2	0	0	0	0	502	616
3	0	0	0	0	502	616
4	0	0	0	0	502	616
5	0	0	0	0	503	615
6	0	0	0	0	503	616
7	0	0	0	0	504	616
8	0	0	0	0	504	616
9	0	0	0	0	504	616
10	0	0	0	0	505	615
11	0	0	0	0	504	616
12	0	0	0	0	504	616
13	0	0	0	0	504	615
14	0	0	0	0	505	615
15	0	0	0	0	505	615
0	0	0	0	0	504	615
1	0	0	0	0	504	615
2	0	0	0	0	504	615
3	0	0	0	0	504	616
4	0	0	0	0	505	615
5	0	0	0	0	505	615
6	0	0	0	0	506	615
7	0	0	0	0	506	616
8	0	0	0	0	505	616
9	0	0	0	0	505	616
10	0	0	0	0	505	615
11	0	0	0	0	505	616
12	0	0	0	0	504	615
13	0	0	0	0	504	616
14	0	0	0	0	504	616
15	0	0	0	0	504	616
0	0	0	0	0	504	615
1	0	0	0	0	504	615
2	0	0	0	0	504	615
3	0	0	0	0	503	616
4	0	0	0	0	503	615
5	0	0	0	0	504	616
6	0	0	0	0	505	615
7	0	0	0	0	505	616
8	0	0	0	0	505	616
9	0	0	0	0	505	616
10	0	0	0	0	505	616
11	0	0	0	0	506	616
12	0	0	0	0	507	615
13	0	0	0	0	507	615
14	0	0	0	0	506	615
15	0	0	0	0	505	616
0	0	0	0	0	504	615
1	0	0	0	0	504	615
2	0	0	0	0	504	615
3	0	0	0	0	504	616
4	0	0	0	0	505	615
5	0	0	0	0	505	616
6	0	0	0	0	504	615
7	0	0	0	0	504	615
8	0	0	0	0	504	615
9	0	0	0	0	505	615
10	0	0	0	0	505	615
11	0	0	0	0	504	616
12	0	0	0	0	503	615
13	0	0	0	0	503	615
14	0	0	0	0	503	615
15	0	0	0	0	503	615
0	0	0	0	0	504	615
1	0	0	0	0	504	615
2	0	0	0	0	504	615
3	0	0	0	0	504	615
4	0	0	0	0	504	615
5	0	0	0	0	503	615
6	0	0	0	0	501	615
7	0	0	0	0	502	615
8	0	0	0	0	503	615
9	0	0	0	0	504	616
10	0	0	0	0	504	616
11	0	0	0	0	504	616
12	0	0	0	0	505	615
13	0	0	0	0	505	615
14	0	0	0	0	505	615
15	0	0	0	0	505	616
0	0	0	0	0	505	615
1	0	0	0	0	506	615
2	0	0	0	0	506	615
3	0	0	0	0	507	616
4	0	0	0	0	507	616
5	0	0	0	0	508	616
6	0	0	0	0	508	616
7	0	0	0	0	508	616
8	0	0	0	0	507	615
9	0	0	0	0	507	615
10	0	0	0	0	506	615
11	0	0	0	0	507	615
12	0	0	0	0	507	615
13	0	0	0	0	507	615
14	0	0	0	0	507	615
15	0	0	0	0	507	615
0	0	0	0	0	507	615
1	0	0	0	0	507	616
2	0	0	0	0	508	615
3	0	0	0	0	508	616
4	0	0	0	0	508	615
5	0	0	0	0	508	615
6	0	0	0	0	509	615
7	0	0	0	0	509	615
8	0	0	0	0	509	615
9	0	0	0	0	509	614
10	0	0	0	0	509	615
11	0	0	0	0	510	615
12	0	0	0	0	509	615
13	0	0	0	0	508	615
14	0	0	0	0	508	614
15	0	0	0	0	507	615
0	0	0	0	0	506	614
1	0	0	0	0	506	615
2	0	0	0	0	505	615
3	0	0	0	0	504	615
4	0	0	0	0	504	615
5	0	0	0	0	504	615
6	0	0	0	0	504	615
7	0	0	0	0	504	615
8	0	0	0	0	504	615
9	0	0	0	0	504	615
10	0	0	0	0	504	615
11	0	0	0	0	504	615
12	0	0	0	0	503	615
13	0	0	0	0	501	615
14	0	0	0	0	499	615
15	0	0	0	0	499	616
0	0	0	0	0	498	615
1	0	0	0	0	498	615
2	0	0	0	0	498	615
3	0	0	0	0	498	616
4	0	0	0	0	499	616
5	0	0	0	0	498	616
6	0	0	0	0	499	616
7	0	0	0	0	499	616
8	0	0	0	0	499	615
9	0	0	0	0	499	615
10	0	0	0	0	499	615
11	0	0	0	0	499	617
12	0	0	0	0	500	616
13	0	0	0	0	501	615
14	0	0	0	0	502	616
15	0	0	0	0	504	616
0	0	0	0	0	505	616
1	0	0	0	0	504	615
2	0	0	0	0	503	616
3	0	0	0	0	503	616
4	0	0	0	0	504	615
5	0	0	0	0	504	616
6	0	0	0	0	504	615
7	0	0	0	0	505	615
8	0	0	0	0	506	615
9	0	0	0	0	507	615
10	0	0	0	0	507	615
11	0	0	0	0	509	615
12	0	0	0	0	509	615
13	0	0	0	0	510	615
14	0	0	0	0	511	615
15	0	0	0	0	511	615
0	0	0	0	0	512	615
1	0	0	0	0	514	615
2	0	0	0	0	515	615
3	0	0	0	0	515	615
4	0	0	0	0	515	614
5	0	0	0	0	516	615
6	0	0	0	0	517	614
7	0	0	0	0	518	615
8	0	0	0	0	518	615
9	0	0	0	0	517	615
10	0	0	0	0	517	615
11	0	0	0	0	518	615
12	0	0	0	0	518	615
13	0	0	0	0	516	615
14	0	0	0	0	515	615
15	0	0	0	0	514	615
0	0	0	0	0	513	615
1	0	0	0	0	513	615
2	0	0	0	0	513	615
3	0	0	0	0	513	615
4	0	0	0	0	513	615
5	0	0	0	0	513	615
6	0	0	0	0	513	615
7	0	0	0	0	513	615
8	0	0	0	0	513	615
9	0	0	0	0	514	615
10	0	0	0	0	513	615
11	0	0	0	0	513	616
12	0	0	0	0	512	615
13	0	0	0	0	512	615
14	0	0	0	0	512	615
15	0	0	0	0	512	615
0	0	0	0	0	512	615
1	0	0	0	0	512	615
2	0	0	0	0	512	615
3	0	0	0	0	511	615
4	0	0	0	0	510	614
5	0	0	0	0	509	615
6	0	0	0	0	507	615
7	0	0	0	0	506	615
8	0	0	0	0	505	614
9	0	0	0	0	504	615
10	0	0	0	0	504	614
11	0	0	0	0	504	614
12	0	0	0	0	504	614
13	0	0	0	0	504	614
14	0	0	0	0	504	614
15	0	0	0	0	504	615
0	0	0	0	0	504	615
1	0	0	0	0	503	615
2	0	0	0	0	502	615
3	0	0	0	0	501	615
4	0	0	0	0	501	616
5	0	0	0	0	501	616
6	0	0	0	0	501	615
7	0	0	0	0	500	615
8	0	0	0	0	499	616
9	0	0	0	0	499	616
10	0	0	0	0	499	615
11	0	0	0	0	500	617
12	0	0	0	0	500	615
13	0	0	0	0	500	615
14	0	0	0	0	500	615
15	0	0	0	0	500	615
0	0	0	0	0	500	615
1	0	0	0	0	500	614
2	0	0	0	0	499	615
3	0	0	0	0	499	615
4	0	0	0	0	499	614
5	0	0	0	0	500	615
6	0	0	0	0	499	614
7	0	0	0	0	501	614
8	0	0	0	0	503	614
9	0	0	0	0	504	614
10	0	0	0	0	505	614
11	0	0	0	0	504	615
12	0	0	0	0	504	614
13	0	0	0	0	503	614
14	0	0	0	0	502	614
15	0	0	0	0	502	614
0	0	0	0	0	501	614
1	0	0	0	0	500	614
2	0	0	0	0	500	614
3	0	0	0	0	500	615
4	0	0	0	0	500	614
5	0	0	0	0	501	614
6	0	0	0	0	502	614
7	0	0	0	0	502	615
8	0	0	0	0	502	614
9	0	0	0	0	502	615
10	0	0	0	0	502	613
11	0	0	0	0	502	615
12	0	0	0	0	503	614
13	0	0	0	0	503	614
14	0	0	0	0	503	614
15	0	0	0	0	504	614
0	0	0	0	0	504	614
1	0	0	0	0	504	614
2	0	0	0	0	505	614
3	0	0	0	0	506	615
4	0	0	0	0	506	615
5	0	0	0	0	506	615
6	0	0	0	0	506	615
7	0	0	0	0	505	615
8	0	0	0	0	504	615
9	0	0	0	0	505	615
10	0	0	0	0	504	615
11	0	0	0	0	504	616
12	0	0	0	0	503	615
13	0	0	0	0	504	615
14	0	0	0	0	504	616
15	0	0	0	0	504	616
0	0	0	0	0	504	615
1	0	0	0	0	503	615
2	0	0	0	0	502	615
3	0	0	0	0	502	615
4	0	0	0	0	502	615
5	0	0	0	0	503	615
6	0	0	0	0	504	615
7	0	0	0	0	504	616
8	0	0	0	0	504	615
9	0	0	0	0	504	615
10	0	0	0	0	503	615
11	0	0	0	0	501	615
12	0	0	0	0	498	615
13	0	0	0	0	495	615
14	0	0	0	0	491	615
15	0	0	0	0	487	615
0	0	0	0	0	483	615
1	0	0	0	0	478	615
2	0	0	0	0	472	615
3	0	0	0	0	468	615
4	0	0	0	0	464	615
5	0	0	0	0	463	615
6	0	0	0	0	464	615
7	0	0	0	0	467	615
8	0	0	0	0	472	615
9	0	0	0	0	478	615
10	0	0	0	0	484	615
11	0	0	0	0	489	615
12	0	0	0	0	495	615
13	0	0	0	0	502	614
14	0	0	0	0	511	615
15	0	0	0	0	523	615
0	0	0	0	0	537	615
1	0	0	0	0	553	615
2	0	0	0	0	571	615
3	0	0	0	0	590	615
4	0	0	0	0	607	615
5	0	0	0	0	626	615
6	0	0	0	0	648	615
7	0	0	0	0	671	615
8	0	0	0	0	695	615
9	0	0	0	0	716	615
10	0	0	0	0	738	615
11	0	0	0	0	756	615
12	0	0	0	0	774	614
13	0	0	0	0	788	615
14	0	0	0	0	799	615
15	0	0	0	0	805	615
0	0	0	0	0	802	615
1	0	0	0	0	792	615
2	0	0	0	0	780	615
3	0	0	0	0	765	615
4	0	0	0	0	742	615
5	0	0	0	0	713	615
6	0	0	0	0	687	614
7	0	0	0	0	664	615
8	0	0	0	0	640	615
9	0	0	0	0	616	615
10	0	0	0	0	595	615
11	0	0	0	0	576	616
12	0	0	0	0	558	615
13	0	0	0	0	543	615
14	0	0	0	0	530	615
15	0	0	0	0	518	615
0	0	0	0	0	508	615
1	0	0	0	0	499	615
2	0	0	0	0	492	615
3	0	0	0	0	487	615
4	0	0	0	0	483	616
5	0	0	0	0	479	616
6	0	0	0	0	476	615
7	0	0	0	0	472	615
8	0	0	0	0	469	615
9	0	0	0	0	466	615
10	0	0	0	0	464	615
11	0	0	0	0	462	616
12	0	0	0	0	460	615
13	0	0	0	0	459	615
14	0	0	0	0	457	615
15	0	0	0	0	457	616
0	0	0	0	0	456	615
1	0	0	0	0	455	615
2	0	0	0	0	455	616
3	0	0	0	0	455	616
4	0	0	0	0	454	616
5	0	0	0	0	454	616
6	0	0	0	0	454	616
7	0	0	0	0	455	616
8	0	0	0	0	455	616
9	0	0	0	0	455	616
10	0	0	0	0	454	615
11	0	0	0	0	453	616
12	0	0	0	0	452	615
13	0	0	0	0	452	615
14	0	0	0	0	451	615
15	0	0	0	0	451	615
0	0	0	0	0	451	615
1	0	0	0	0	452	616
2	0	0	0	0	452	615
3	0	0	0	0	452	616
4	0	0	0	0	453	616
5	0	0	0	0	455	615
6	0	0	0	0	457	615
7	0	0	0	0	458	615
8	0	0	0	0	458	615
9	0	0	0	0	458	615
10	0	0	0	0	457	615
11	0	0	0	0	457	616
12	0	0	0	0	457	615
13	0	0	0	0	458	615
14	0	0	0	0	459	615
15	0	0	0	0	459	615
0	0	0	0	0	460	615
1	0	0	0	0	460	615
2	0	0	0	0	460	615
3	0	0	0	0	460	615
4	0	0	0	0	459	614
5	0	0	0	0	459	614
6	0	0	0	0	460	614
7	0	0	0	0	460	615
8	0	0	0	0	460	615
9	0	0	0	0	460	614
10	0	0	0	0	460	615
11	0	0	0	0	461	615
12	0	0	0	0	462	614
13	0	0	0	0	463	615
14	0	0	0	0	464	615
15	0	0	0	0	464	615
0	0	0	0	0	464	615
1	0	0	0	0	465	615
2	0	0	0	0	465	614
3	0	0	0	0	467	615
4	0	0	0	0	467	615
5	0	0	0	0	467	615
6	0	0	0	0	467	615
7	0	0	0	0	468	615
8	0	0	0	0	469	615
9	0	0	0	0	470	615
10	0	0	0	0	469	615
11	0	0	0	0	468	615
12	0	0	0	0	468	615
13	0	0	0	0	468	615
14	0	0	0	0	468	615
15	0	0	0	0	468	615
0	0	0	0	0	468	615
1	0	0	0	0	469	615
2	0	0	0	0	468	615
3	0	0	0	0	469	615
4	0	0	0	0	469	615
5	0	0	0	0	471	615
6	0	0	0	0	472	615
7	0	0	0	0	473	616
8	0	0	0	0	475	615
9	0	0	0	0	475	615
10	0	0	0	0	476	615
11	0	0	0	0	476	616
12	0	0	0	0	477	615
13	0	0	0	0	477	615
14	0	0	0	0	478	615
15	0	0	0	0	479	615
0	0	0	0	0	480	615
1	0	0	0	0	479	616
2	0	0	0	0	479	616
3	0	0	0	0	479	616
4	0	0	0	0	478	615
5	0	0	0	0	479	616
6	0	0	0	0	479	616
7	0	0	0	0	479	616
8	0	0	0	0	479	616
9	0	0	0	0	479	616
10	0	0	0	0	480	616
11	0	0	0	0	480	617
12	0	0	0	0	482	616
13	0	0	0	0	482	616
14	0	0	0	0	483	616
15	0	0	0	0	483	616
0	0	0	0	0	483	616
1	0	0	0	0	484	615
2	0	0	0	0	483	616
3	0	0	0	0	483	616
4	0	0	0	0	483	616
5	0	0	0	0	483	616
6	0	0	0	0	483	616
7	0	0	0	0	484	616
8	0	0	0	0	485	615
9	0	0	0	0	485	615
10	0	0	0	0	485	615
11	0	0	0	0	485	615
12	0	0	0	0	486	615
13	0	0	0	0	486	615
14	0	0	0	0	487	615
15	0	0	0	0	486	615
0	0	0	0	0	487	615
1	0	0	0	0	487	615
2	0	0	0	0	488	615
3	0	0	0	0	488	615
4	0	0	0	0	487	615
5	0	0	0	0	487	615
6	0	0	0	0	487	615
7	0	0	0	0	487	615
8	0	0	0	0	488	615
9	0	0	0	0	488	615
10	0	0	0	0	489	615
11	0	0	0	0	489	615
12	0	0	0	0	489	615
13	0	0	0	0	490	615
14	0	0	0	0	491	615
15	0	0	0	0	492	615
0	0	0	0	0	492	615
1	0	0	0	0	492	615
2	0	0	0	0	492	615
3	0	0	0	0	492	616
4	0	0	0	0	492	615
5	0	0	0	0	491	615
6	0	0	0	0	491	615
7	0	0	0	0	490	616
8	0	0	0	0	490	615
9	0	0	0	0	491	615
10	0	0	0	0	491	615
11	0	0	0	0	491	616
12	0	0	0	0	492	615
13	0	0	0	0	492	616
14	0	0	0	0	492	615
15	0	0	0	0	492	615
0	0	0	0	0	492	616
1	0	0	0	0	492	615
2	0	0	0	0	492	615
3	0	0	0	0	492	616
4	0	0	0	0	492	616
5	0	0	0	0	491	616
6	0	0	0	0	492	615
7	0	0	0	0	492	616
8	0	0	0	0	491	615
9	0	0	0	0	492	616
10	0	0	0	0	492	616
11	0	0	0	0	493	617
12	0	0	0	0	493	616
13	0	0	0	0	494	616
14	0	0	0	0	494	616
15	0	0	0	0	494	616
0	0	0	0	0	494	616
1	0	0	0	0	494	616
2	0	0	0	0	494	616
3	0	0	0	0	495	616
4	0	0	0	0	496	615
5	0	0	0	0	497	616
6	0	0	0	0	497	615
7	0	0	0	0	497	616
8	0	0	0	0	497	615
9	0	0	0	0	497	615
10	0	0	0	0	499	616
11	0	0	0	0	500	616
12	0	0	0	0	502	615
13	0	0	0	0	502	616
14	0	0	0	0	503	615
15	0	0	0	0	504	616
0	0	0	0	0	505	615
1	0	0	0	0	506	615
2	0	0	0	0	505	616
3	0	0	0	0	504	616
4	0	0	0	0	505	615
5	0	0	0	0	506	615
6	0	0	0	0	507	615
7	0	0	0	0	508	615
8	0	0	0	0	509	615
9	0	0	0	0	510	615
10	0	0	0	0	510	615
11	0	0	0	0	510	615
12	0	0	0	0	510	615
13	0	0	0	0	510	616
14	0	0	0	0	510	615
15	0	0	0	0	510	615
0	0	0	0	0	511	615
1	0	0	0	0	512	615
2	0	0	0	0	513	615
3	0	0	0	0	513	616
4	0	0	0	0	514	615
5	0	0	0	0	514	615
6	0	0	0	0	515	615
7	0	0	0	0	516	615
8	0	0	0	0	517	615
9	0	0	0	0	518	615
10	0	0	0	0	519	615
11	0	0	0	0	519	615
12	0	0	0	0	519	615
13	0	0	0	0	519	615
14	0	0	0	0	519	615
15	0	0	0	0	520	615
0	0	0	0	0	520	615
1	0	0	0	0	520	615
2	0	0	0	0	520	615
3	0	0	0	0	520	615
4	0	0	0	0	521	614
5	0	0	0	0	522	615
6	0	0	0	0	523	615
7	0	0	0	0	525	615
8	0	0	0	0	526	615
9	0	0	0	0	527	615
10	0	0	0	0	527	615
11	0	0	0	0	527	615
12	0	0	0	0	529	614
13	0	0	0	0	529	614
14	0	0	0	0	530	614
15	0	0	0	0	530	615
0	0	0	0	0	529	614
1	0	0	0	0	531	614
2	0	0	0	0	530	614
3	0	0	0	0	530	614
4	0	0	0	0	529	614
5	0	0	0	0	529	614
6	0	0	0	0	530	614
7	0	0	0	0	530	614
8	0	0	0	0	530	614
9	0	0	0	0	530	614
10	0	0	0	0	530	614
11	0	0	0	0	530	615
12	0	0	0	0	530	614
13	0	0	0	0	531	614
14	0	0	0	0	531	613
15	0	0	0	0	531	615
0	0	0	0	0	531	614
1	0	0	0	0	531	614
2	0	0	0	0	530	613
3	0	0	0	0	530	615
4	0	0	0	0	529	614
5	0	0	0	0	528	615
6	0	0	0	0	527	615
7	0	0	0	0	526	615
8	0	0	0	0	525	614
9	0	0	0	0	524	615
10	0	0	0	0	523	614
11	0	0	0	0	521	615
12	0	0	0	0	520	615
13	0	0	0	0	518	615
14	0	0	0	0	517	615
15	0	0	0	0	515	615
0	0	0	0	0	511	615
1	0	0	0	0	508	615
2	0	0	0	0	506	615
3	0	0	0	0	504	615
4	0	0	0	0	503	615
5	0	0	0	0	502	615
6	0	0	0	0	501	615
7	0	0	0	0	501	616
8	0	0	0	0	500	615
9	0	0	0	0	499	615
10	0	0	0	0	497	615
11	0	0	0	0	497	616
12	0	0	0	0	496	615
13	0	0	0	0	496	615
14	0	0	0	0	495	615
15	0	0	0	0	494	615
0	0	0	0	0	493	615
1	0	0	0	0	493	615
2	0	0	0	0	492	615
3	0	0	0	0	491	615
4	0	0	0	0	490	615
5	0	0	0	0	490	615
6	0	0	0	0	488	615
7	0	0	0	0	487	616
8	0	0	0	0	486	615
9	0	0	0	0	486	615
10	0	0	0	0	485	615
11	0	0	0	0	484	616
12	0	0	0	0	484	615
13	0	0	0	0	484	615
14	0	0	0	0	484	615
15	0	0	0	0	483	615
0	0	0	0	0	482	615
1	0	0	0	0	481	615
2	0	0	0	0	480	615
3	0	0	0	0	480	615
4	0	0	0	0	478	615
5	0	0	0	0	477	615
6	0	0	0	0	477	615
7	0	0	0	0	478	615
8	0	0	0	0	478	615
9	0	0	0	0	478	615
10	0	0	0	0	478	615
11	0	0	0	0	478	615
12	0	0	0	0	479	615
13	0	0	0	0	480	615
14	0	0	0	0	480	615
15	0	0	0	0	480	615
0	0	0	0	0	480	615
1	0	0	0	0	480	615
2	0	0	0	0	480	615
3	0	0	0	0	480	615
4	0	0	0	0	480	615
5	0	0	0	0	479	615
6	0	0	0	0	479	615
7	0	0	0	0	478	615
8	0	0	0	0	478	615
9	0	0	0	0	477	615
10	0	0	0	0	478	615
11	0	0	0	0	478	616
12	0	0	0	0	478	615
13	0	0	0	0	478	615
14	0	0	0	0	478	615
15	0	0	0	0	479	616
0	0	0	0	0	480	615
1	0	0	0	0	479	615
2	0	0	0	0	479	615
3	0	0	0	0	480	616
4	0	0	0	0	480	615
5	0	0	0	0	481	615
6	0	0	0	0	481	615
7	0	0	0	0	480	615
8	0	0	0	0	481	615
9	0	0	0	0	481	615
10	0	0	0	0	482	615
11	0	0	0	0	483	615
12	0	0	0	0	484	615
13	0	0	0	0	484	615
14	0	0	0	0	483	615
15	0	0	0	0	483	615
0	0	0	0	0	484	615
1	0	0	0	0	484	615
2	0	0	0	0	483	615
3	0	0	0	0	483	615
4	0	0	0	0	484	615
5	0	0	0	0	484	615
6	0	0	0	0	484	615
7	0	0	0	0	485	615
8	0	0	0	0	486	615
9	0	0	0	0	486	615
10	0	0	0	0	487	615
11	0	0	0	0	488	615
12	0	0	0	0	488	614
13	0	0	0	0	488	615
14	0	0	0	0	487	615
15	0	0	0	0	487	615
0	0	0	0	0	485	615
1	0	0	0	0	483	614
2	0	0	0	0	482	614
3	0	0	0	0	482	615
4	0	0	0	0	482	614
5	0	0	0	0	483	614
6	0	0	0	0	484	614
7	0	0	0	0	484	615
8	0	0	0	0	485	615
9	0	0	0	0	485	614
10	0	0	0	0	485	615
11	0	0	0	0	485	615
12	0	0	0	0	484	615
13	0	0	0	0	484	615
14	0	0	0	0	485	615
15	0	0	0	0	486	615
0	0	0	0	0	486	615
1	0	0	0	0	486	614
2	0	0	0	0	487	615
3	0	0	0	0	487	615
4	0	0	0	0	486	615
5	0	0	0	0	486	615
6	0	0	0	0	486	615
7	0	0	0	0	487	615
8	0	0	0	0	488	615
9	0	0	0	0	489	615
10	0	0	0	0	489	615
11	0	0	0	0	488	615
12	0	0	0	0	488	615
13	0	0	0	0	488	614
14	0	0	0	0	489	615
15	0	0	0	0	488	615
0	0	0	0	0	488	614
1	0	0	0	0	487	614
2	0	0	0	0	487	614
3	0	0	0	0	487	615
4	0	0	0	0	487	614
5	0	0	0	0	487	615
6	0	0	0	0	486	614
7	0	0	0	0	487	615
8	0	0	0	0	489	615
9	0	0	0	0	489	615
10	0	0	0	0	491	614
11	0	0	0	0	491	615
12	0	0	0	0	492	614
13	0	0	0	0	492	615
14	0	0	0	0	492	614
15	0	0	0	0	492	615
0	0	0	0	0	492	614
1	0	0	0	0	491	614
2	0	0	0	0	491	615
3	0	0	0	0	491	615
4	0	0	0	0	491	614
5	0	0	0	0	492	615
6	0	0	0	0	491	615
7	0	0	0	0	491	615
8	0	0	0	0	491	615
9	0	0	0	0	492	615
10	0	0	0	0	492	616
11	0	0	0	0	492	615
12	0	0	0	0	492	615
13	0	0	0	0	492	615
14	0	0	0	0	492	615
15	0	0	0	0	492	615
0	0	0	0	0	493	615
1	0	0	0	0	494	615
2	0	0	0	0	494	615
3	0	0	0	0	494	617
4	0	0	0	0	495	616
5	0	0	0	0	495	616
6	0	0	0	0	494	615
7	0	0	0	0	494	615
8	0	0	0	0	494	615
9	0	0	0	0	494	615
10	0	0	0	0	494	615
11	0	0	0	0	493	617
12	0	0	0	0	493	616
13	0	0	0	0	493	616
14	0	0	0	0	494	616
15	0	0	0	0	494	616
0	0	0	0	0	493	616
1	0	0	0	0	494	616
2	0	0	0	0	493	615
3	0	0	0	0	494	616
4	0	0	0	0	493	615
5	0	0	0	0	493	615
6	0	0	0	0	494	615
7	0	0	0	0	494	615
8	0	0	0	0	495	615
9	0	0	0	0	496	615
10	0	0	0	0	497	615
11	0	0	0	0	497	615
12	0	0	0	0	496	615
13	0	0	0	0	496	615
14	0	0	0	0	496	615
15	0	0	0	0	495	616
0	0	0	0	0	494	615
1	0	0	0	0	494	615
2	0	0	0	0	493	615
3	0	0	0	0	492	615
4	0	0	0	0	492	615
5	0	0	0	0	491	614
6	0	0	0	0	491	615
7	0	0	0	0	492	615
8	0	0	0	0	491	615
9	0	0	0	0	492	615
10	0	0	0	0	492	615
11	0	0	0	0	491	615
12	0	0	0	0	492	615
13	0	0	0	0	492	615
14	0	0	0	0	492	615
15	0	0	0	0	493	615
0	0	0	0	0	493	615
1	0	0	0	0	493	615
2	0	0	0	0	493	615
3	0	0	0	0	494	615
4	0	0	0	0	494	614
5	0	0	0	0	495	615
6	0	0	0	0	495	615
7	0	0	0	0	494	615
8	0	0	0	0	494	615
9	0	0	0	0	492	615
10	0	0	0	0	491	614
11	0	0	0	0	490	615
12	0	0	0	0	490	615
13	0	0	0	0	491	615
14	0	0	0	0	491	615
15	0	0	0	0	491	615
0	0	0	0	0	490	615
1	0	0	0	0	489	615
2	0	0	0	0	488	615
3	0	0	0	0	488	615
4	0	0	0	0	488	615
5	0	0	0	0	488	615
6	0	0	0	0	488	615
7	0	0	0	0	489	615
8	0	0	0	0	491	615
9	0	0	0	0	492	615
10	0	0	0	0	493	615
11	0	0	0	0	494	615
12	0	0	0	0	494	615
13	0	0	0	0	495	615
14	0	0	0	0	494	615
15	0	0	0	0	494	615
0	0	0	0	0	494	616
1	0	0	0	0	493	615
2	0	0	0	0	492	615
3	0	0	0	0	491	617
4	0	0	0	0	491	615
5	0	0	0	0	490	616
6	0	0	0	0	491	616
7	0	0	0	0	490	616
8	0	0	0	0	489	616
9	0	0	0	0	489	616
10	0	0	0	0	487	615
11	0	0	0	0	487	616
12	0	0	0	0	488	615
13	0	0	0	0	489	616
14	0	0	0	0	489	616
15	0	0	0	0	488	616
0	0	0	0	0	488	617
1	0	0	0	0	487	616
2	0	0	0	0	488	616
3	0	0	0	0	489	617
4	0	0	0	0	489	616
5	0	0	0	0	489	616
6	0	0	0	0	489	616
7	0	0	0	0	487	616
8	0	0	0	0	487	616
9	0	0	0	0	487	616
10	0	0	0	0	487	616
11	0	0	0	0	486	617
12	0	0	0	0	485	616
13	0	0	0	0	485	616
14	0	0	0	0	484	615
15	0	0	0	0	484	616
0	0	0	0	0	484	615
1	0	0	0	0	484	615
2	0	0	0	0	485	615
3	0	0	0	0	485	616
4	0	0	0	0	485	615
5	0	0	0	0	485	615
6	0	0	0	0	486	615
7	0	0	0	0	486	616
8	0	0	0	0	486	615
9	0	0	0	0	486	615
10	0	0	0	0	486	615
11	0	0	0	0	486	615
12	0	0	0	0	486	615
13	0	0	0	0	485	615
14	0	0	0	0	483	615
15	0	0	0	0	483	615
0	0	0	0	0	483	615
1	0	0	0	0	483	614
2	0	0	0	0	483	615
3	0	0	0	0	482	616
4	0	0	0	0	481	615
5	0	0	0	0	480	615
6	0	0	0	0	480	614
7	0	0	0	0	479	615
8	0	0	0	0	479	615
9	0	0	0	0	479	615
10	0	0	0	0	479	615
11	0	0	0	0	480	615
12	0	0	0	0	481	615
13	0	0	0	0	481	615
14	0	0	0	0	482	615
15	0	0	0	0	483	615
0	0	0	0	0	483	615
1	0	0	0	0	483	615
2	0	0	0	0	483	615
3	0	0	0	0	483	616
4	0	0	0	0	483	615
5	0	0	0	0	483	615
6	0	0	0	0	483	615
7	0	0	0	0	482	615
8	0	0	0	0	481	615
9	0	0	0	0	480	615
10	0	0	0	0	480	615
11	0	0	0	0	480	615
12	0	0	0	0	479	615
13	0	0	0	0	478	615
14	0	0	0	0	477	615
15	0	0	0	0	477	616
0	0	0	0	0	477	615
1	0	0	0	0	476	615
2	0	0	0	0	476	615
3	0	0	0	0	476	616
4	0	0	0	0	476	615
5	0	0	0	0	476	616
6	0	0	0	0	476	616
7	0	0	0	0	476	615
8	0	0	0	0	475	615
9	0	0	0	0	474	615
10	0	0	0	0	473	615
11	0	0	0	0	472	615
12	0	0	0	0	472	615
13	0	0	0	0	472	615
14	0	0	0	0	473	615
15	0	0	0	0	473	616
0	0	0	0	0	473	615
1	0	0	0	0	473	615
2	0	0	0	0	472	615
3	0	0	0	0	472	616
4	0	0	0	0	473	615
5	0	0	0	0	473	615
6	0	0	0	0	474	615
7	0	0	0	0	473	615
8	0	0	0	0	473	615
9	0	0	0	0	472	615
10	0	0	0	0	472	615
11	0	0	0	0	471	615
12	0	0	0	0	471	615
13	0	0	0	0	469	615
14	0	0	0	0	468	615
15	0	0	0	0	468	615
0	0	0	0	0	467	615
1	0	0	0	0	467	615
2	0	0	0	0	467	615
3	0	0	0	0	467	615
4	0	0	0	0	467	615
5	0	0	0	0	467	615
6	0	0	0	0	467	615
7	0	0	0	0	467	615
8	0	0	0	0	468	615
9	0	0	0	0	469	615
10	0	0	0	0	470	615
11	0	0	0	0	470	615
12	0	0	0	0	469	614
13	0	0	0	0	469	614
14	0	0	0	0	469	615
15	0	0	0	0	469	615
0	0	0	0	0	469	615
1	0	0	0	0	469	615
2	0	0	0	0	469	615
3	0	0	0	0	469	615
4	0	0	0	0	469	615
5	0	0	0	0	470	614
6	0	0	0	0	471	615
7	0	0	0	0	472	615
8	0	0	0	0	472	615
9	0	0	0	0	472	615
10	0	0	0	0	472	615
11	0	0	0	0	472	615
12	0	0	0	0	472	614
13	0	0	0	0	472	615
14	0	0	0	0	472	615
15	0	0	0	0	472	615
0	0	0	0	0	472	615
1	0	0	0	0	471	615
2	0	0	0	0	472	615
3	0	0	0	0	472	615
4	0	0	0	0	473	615
5	0	0	0	0	475	615
6	0	0	0	0	476	615
7	0	0	0	0	478	615
8	0	0	0	0	479	615
9	0	0	0	0	480	615
10	0	0	0	0	480	615
11	0	0	0	0	481	615
12	0	0	0	0	481	614
13	0	0	0	0	482	615
14	0	0	0	0	481	615
15	0	0	0	0	481	615
0	0	0	0	0	480	615
1	0	0	0	0	479	615
2	0	0	0	0	479	615
3	0	0	0	0	479	615
4	0	0	0	0	479	615
5	0	0	0	0	479	615
6	0	0	0	0	478	615
7	0	0	0	0	479	615
8	0	0	0	0	479	615
9	0	0	0	0	479	615
10	0	0	0	0	479	614
11	0	0	0	0	478	615
12	0	0	0	0	477	614
13	0	0	0	0	477	614
14	0	0	0	0	477	615
15	0	0	0	0	476	615
0	0	0	0	0	476	615
1	0	0	0	0	476	615
2	0	0	0	0	474	614
3	0	0	0	0	472	614
4	0	0	0	0	470	614
5	0	0	0	0	469	615
6	0	0	0	0	468	615
7	0	0	0	0	468	615
8	0	0	0	0	467	615
9	0	0	0	0	466	615
10	0	0	0	0	464	615
11	0	0	0	0	464	615
12	0	0	0	0	463	615
13	0	0	0	0	463	615
14	0	0	0	0	463	615
15	0	0	0	0	463	615
0	0	0	0	0	463	615
1	0	0	0	0	463	615
2	0	0	0	0	464	615
3	0	0	0	0	465	615
4	0	0	0	0	465	615
5	0	0	0	0	465	615
6	0	0	0	0	464	615
7	0	0	0	0	463	615
8	0	0	0	0	463	615
9	0	0	0	0	463	615
10	0	0	0	0	463	615
11	0	0	0	0	463	616
12	0	0	0	0	464	615
13	0	0	0	0	464	615
14	0	0	0	0	464	615
15	0	0	0	0	465	615
0	0	0	0	0	465	615
1	0	0	0	0	464	615
2	0	0	0	0	464	615
3	0	0	0	0	464	615
4	0	0	0	0	463	615
5	0	0	0	0	464	615
6	0	0	0	0	464	615
7	0	0	0	0	464	615
8	0	0	0	0	465	615
9	0	0	0	0	465	615
10	0	0	0	0	464	615
11	0	0	0	0	463	616
12	0	0	0	0	462	615
13	0	0	0	0	461	615
14	0	0	0	0	459	615
15	0	0	0	0	458	615
0	0	0	0	0	458	615
1	0	0	0	0	458	615
2	0	0	0	0	460	615
3	0	0	0	0	461	615
4	0	0	0	0	462	615
5	0	0	0	0	463	615
6	0	0	0	0	464	615
7	0	0	0	0	464	615
8	0	0	0	0	463	615
9	0	0	0	0	462	615
10	0	0	0	0	460	615
11	0	0	0	0	460	615
12	0	0	0	0	460	615
13	0	0	0	0	462	615
14	0	0	0	0	462	615
15	0	0	0	0	463	615
0	0	0	0	0	463	615
1	0	0	0	0	464	615
2	0	0	0	0	464	615
3	0	0	0	0	463	615
4	0	0	0	0	464	615
5	0	0	0	0	464	615
6	0	0	0	0	464	615
7	0	0	0	0	464	615
8	0	0	0	0	464	615
9	0	0	0	0	464	615
10	0	0	0	0	465	615
11	0	0	0	0	465	615
12	0	0	0	0	466	615
13	0	0	0	0	466	615
14	0	0	0	0	467	615
15	0	0	0	0	467	615
0	0	0	0	0	467	615
1	0	0	0	0	467	614
2	0	0	0	0	466	614
3	0	0	0	0	465	615
4	0	0	0	0	465	614
5	0	0	0	0	464	614
6	0	0	0	0	463	614
7	0	0	0	0	462	615
8	0	0	0	0	462	615
9	0	0	0	0	462	614
10	0	0	0	0	461	615
11	0	0	0	0	459	615
12	0	0	0	0	455	614
13	0	0	0	0	452	615
14	0	0	0	0	446	615
15	0	0	0	0	441	615
0	0	0	0	0	436	614
1	0	0	0	0	431	614
2	0	0	0	0	426	615
3	0	0	0	0	422	615
4	0	0	0	0	419	614
5	0	0	0	0	421	615
6	0	0	0	0	423	614
7	0	0	0	0	428	615
8	0	0	0	0	433	615
9	0	0	0	0	441	615
10	0	0	0	0	447	615
11	0	0	0	0	454	615
12	0	0	0	0	461	615
13	0	0	0	0	468	615
14	0	0	0	0	479	615
15	0	0	0	0	490	615
0	0	0	0	0	505	615
1	0	0	0	0	522	615
2	0	0	0	0	540	615
3	0	0	0	0	557	615
4	0	0	0	0	574	615
5	0	0	0	0	594	615
6	0	0	0	0	615	615
7	0	0	0	0	638	615
8	0	0	0	0	660	615
9	0	0	0	0	681	615
10	0	0	0	0	702	615
11	0	0	0	0	719	616
12	0	0	0	0	736	615
13	0	0	0	0	749	615
14	0	0	0	0	758	615
15	0	0	0	0	760	615
0	0	0	0	0	753	615
1	0	0	0	0	742	616
2	0	0	0	0	730	615
3	0	0	0	0	712	616
4	0	0	0	0	687	615
5	0	0	0	0	660	616
6	0	0	0	0	635	616
7	0	0	0	0	610	616
8	0	0	0	0	586	616
9	0	0	0	0	564	616
10	0	0	0	0	545	616
11	0	0	0	0	527	616
12	0	0	0	0	511	615
13	0	0	0	0	498	615
14	0	0	0	0	486	616
15	0	0	0	0	476	616
0	0	0	0	0	467	615
1	0	0	0	0	459	615
2	0	0	0	0	453	615
3	0	0	0	0	448	616
4	0	0	0	0	443	615
5	0	0	0	0	439	616
6	0	0	0	0	435	615
7	0	0	0	0	432	616
8	0	0	0	0	430	615
9	0	0	0	0	427	614
10	0	0	0	0	424	615
11	0	0	0	0	423	615
12	0	0	0	0	423	615
13	0	0	0	0	422	615
14	0	0	0	0	420	615
15	0	0	0	0	420	615
0	0	0	0	0	419	615
1	0	0	0	0	419	614
2	0	0	0	0	418	614
3	0	0	0	0	418	615
4	0	0	0	0	417	615
5	0	0	0	0	417	615
6	0	0	0	0	416	615
7	0	0	0	0	416	615
