# OpenSignals Text File Format. Version 1
# {"98:D3:91:FD:69:48": {"position": 0, "device": "bitalino_rev", "device name": "98:D3:91:FD:69:48", "device connection": "BTH98:D3:91:FD:69:48", "sampling rate": 1000, "resolution": [4, 1, 1, 1, 1, 10, 10], "firmware version": 1281, "comments": "", "keywords": "", "mode": 0, "sync interval": 2, "date": "2021-9-13", "time": "21:35:15.358", "channels": [2, 5], "sensor": ["RAW", "RAW"], "label": ["A2", "A5"], "column": ["nSeq", "I1", "I2", "O1", "O2", "A2", "A5"], "special": [{}, {}], "digital IO": [0, 0, 1, 1], "convertedValues": 0}}
# EndOfHeader
0	0	0	0	0	507	429	
1	0	0	0	0	506	429	
2	0	0	0	0	506	429	
3	0	0	0	0	505	430	
4	0	0	0	0	505	429	
5	0	0	0	0	504	429	
6	0	0	0	0	504	429	
7	0	0	0	0	504	430	
8	0	0	0	0	504	429	
9	0	0	0	0	503	428	
10	0	0	0	0	503	428	
11	0	0	0	0	503	429	
12	0	0	0	0	502	429	
13	0	0	0	0	503	429	
14	0	0	0	0	503	428	
15	0	0	0	0	503	429	
0	0	0	0	0	504	429	
1	0	0	0	0	504	429	
2	0	0	0	0	504	428	
3	0	0	0	0	504	429	
4	0	0	0	0	504	428	
5	0	0	0	0	504	428	
6	0	0	0	0	505	428	
7	0	0	0	0	505	428	
8	0	0	0	0	505	428	
9	0	0	0	0	505	427	
10	0	0	0	0	505	428	
11	0	0	0	0	505	428	
12	0	0	0	0	505	427	
13	0	0	0	0	504	427	
14	0	0	0	0	504	427	
15	0	0	0	0	504	427	
0	0	0	0	0	504	427	
1	0	0	0	0	504	427	
2	0	0	0	0	504	427	
3	0	0	0	0	504	428	
4	0	0	0	0	504	427	
5	0	0	0	0	504	427	
6	0	0	0	0	504	427	
7	0	0	0	0	505	428	
8	0	0	0	0	505	427	
9	0	0	0	0	505	426	
10	0	0	0	0	504	427	
11	0	0	0	0	504	427	
12	0	0	0	0	505	427	
13	0	0	0	0	504	427	
14	0	0	0	0	504	426	
15	0	0	0	0	504	427	
0	0	0	0	0	504	426	
1	0	0	0	0	503	426	
2	0	0	0	0	503	426	
3	0	0	0	0	502	428	
4	0	0	0	0	502	427	
5	0	0	0	0	502	427	
6	0	0	0	0	502	427	
7	0	0	0	0	502	427	
8	0	0	0	0	502	427	
9	0	0	0	0	502	428	
10	0	0	0	0	502	427	
11	0	0	0	0	502	428	
12	0	0	0	0	503	427	
13	0	0	0	0	503	427	
14	0	0	0	0	503	427	
15	0	0	0	0	504	428	
0	0	0	0	0	504	427	
1	0	0	0	0	504	427	
2	0	0	0	0	505	427	
3	0	0	0	0	505	427	
4	0	0	0	0	505	426	
5	0	0	0	0	505	427	
6	0	0	0	0	505	426	
7	0	0	0	0	505	426	
8	0	0	0	0	505	427	
9	0	0	0	0	504	427	
10	0	0	0	0	504	427	
11	0	0	0	0	504	427	
12	0	0	0	0	504	427	
13	0	0	0	0	504	427	
14	0	0	0	0	504	426	
15	0	0	0	0	504	427	
0	0	0	0	0	504	426	
1	0	0	0	0	504	426	
2	0	0	0	0	503	426	
3	0	0	0	0	503	427	
4	0	0	0	0	501	426	
5	0	0	0	0	499	426	
6	0	0	0	0	498	426	
7	0	0	0	0	497	426	
8	0	0	0	0	495	426	
9	0	0	0	0	494	426	
10	0	0	0	0	493	426	
11	0	0	0	0	492	426	
12	0	0	0	0	492	426	
13	0	0	0	0	492	427	
14	0	0	0	0	492	427	
15	0	0	0	0	492	427	
0	0	0	0	0	492	427	
1	0	0	0	0	491	427	
2	0	0	0	0	491	427	
3	0	0	0	0	492	427	
4	0	0	0	0	494	427	
5	0	0	0	0	496	427	
6	0	0	0	0	501	427	
7	0	0	0	0	507	427	
8	0	0	0	0	512	426	
9	0	0	0	0	519	427	
10	0	0	0	0	527	426	
11	0	0	0	0	535	427	
12	0	0	0	0	543	426	
13	0	0	0	0	553	426	
14	0	0	0	0	563	427	
15	0	0	0	0	573	427	
0	0	0	0	0	583	427	
1	0	0	0	0	593	428	
2	0	0	0	0	603	427	
3	0	0	0	0	613	427	
4	0	0	0	0	623	427	
5	0	0	0	0	632	427	
6	0	0	0	0	639	428	
7	0	0	0	0	645	428	
8	0	0	0	0	649	427	
9	0	0	0	0	651	427	
10	0	0	0	0	653	427	
11	0	0	0	0	653	428	
12	0	0	0	0	651	427	
13	0	0	0	0	647	427	
14	0	0	0	0	641	427	
15	0	0	0	0	633	427	
0	0	0	0	0	623	428	
1	0	0	0	0	613	427	
2	0	0	0	0	602	428	
3	0	0	0	0	591	427	
4	0	0	0	0	580	427	
5	0	0	0	0	568	427	
6	0	0	0	0	558	427	
7	0	0	0	0	548	427	
8	0	0	0	0	539	427	
9	0	0	0	0	531	427	
10	0	0	0	0	524	426	
11	0	0	0	0	519	428	
12	0	0	0	0	514	427	
13	0	0	0	0	510	427	
14	0	0	0	0	505	427	
15	0	0	0	0	502	427	
0	0	0	0	0	499	427	
1	0	0	0	0	497	426	
2	0	0	0	0	495	427	
3	0	0	0	0	492	427	
4	0	0	0	0	491	427	
5	0	0	0	0	490	426	
6	0	0	0	0	489	426	
7	0	0	0	0	487	427	
8	0	0	0	0	486	427	
9	0	0	0	0	486	425	
10	0	0	0	0	485	426	
11	0	0	0	0	484	427	
12	0	0	0	0	483	427	
13	0	0	0	0	482	427	
14	0	0	0	0	481	426	
15	0	0	0	0	481	427	
0	0	0	0	0	480	427	
1	0	0	0	0	480	427	
2	0	0	0	0	480	426	
3	0	0	0	0	480	428	
4	0	0	0	0	479	427	
5	0	0	0	0	479	427	
6	0	0	0	0	478	427	
7	0	0	0	0	478	427	
8	0	0	0	0	479	427	
9	0	0	0	0	479	427	
10	0	0	0	0	479	427	
11	0	0	0	0	480	428	
12	0	0	0	0	481	427	
13	0	0	0	0	481	428	
14	0	0	0	0	481	428	
15	0	0	0	0	483	428	
0	0	0	0	0	483	428	
1	0	0	0	0	483	428	
2	0	0	0	0	483	428	
3	0	0	0	0	483	428	
4	0	0	0	0	483	428	
5	0	0	0	0	483	428	
6	0	0	0	0	483	428	
7	0	0	0	0	483	428	
8	0	0	0	0	483	427	
9	0	0	0	0	483	428	
10	0	0	0	0	483	426	
11	0	0	0	0	483	428	
12	0	0	0	0	483	427	
13	0	0	0	0	484	427	
14	0	0	0	0	484	427	
15	0	0	0	0	485	427	
0	0	0	0	0	485	427	
1	0	0	0	0	485	427	
2	0	0	0	0	485	427	
3	0	0	0	0	487	428	
4	0	0	0	0	487	427	
5	0	0	0	0	489	428	
6	0	0	0	0	489	428	
7	0	0	0	0	490	428	
8	0	0	0	0	492	428	
9	0	0	0	0	492	428	
10	0	0	0	0	494	428	
11	0	0	0	0	495	428	
12	0	0	0	0	495	428	
13	0	0	0	0	496	428	
14	0	0	0	0	495	428	
15	0	0	0	0	495	428	
0	0	0	0	0	495	428	
1	0	0	0	0	495	428	
2	0	0	0	0	495	427	
3	0	0	0	0	495	429	
4	0	0	0	0	495	428	
5	0	0	0	0	495	428	
6	0	0	0	0	495	428	
7	0	0	0	0	495	428	
8	0	0	0	0	495	427	
9	0	0	0	0	495	428	
10	0	0	0	0	496	428	
11	0	0	0	0	496	428	
12	0	0	0	0	497	428	
13	0	0	0	0	497	428	
14	0	0	0	0	497	428	
15	0	0	0	0	498	428	
0	0	0	0	0	498	428	
1	0	0	0	0	498	428	
2	0	0	0	0	498	428	
3	0	0	0	0	499	428	
4	0	0	0	0	499	428	
5	0	0	0	0	499	428	
6	0	0	0	0	500	428	
7	0	0	0	0	500	428	
8	0	0	0	0	500	428	
9	0	0	0	0	500	428	
10	0	0	0	0	501	428	
11	0	0	0	0	501	428	
12	0	0	0	0	502	427	
13	0	0	0	0	502	428	
14	0	0	0	0	502	428	
15	0	0	0	0	503	427	
0	0	0	0	0	502	427	
1	0	0	0	0	502	428	
2	0	0	0	0	502	427	
3	0	0	0	0	502	428	
4	0	0	0	0	502	427	
5	0	0	0	0	502	426	
6	0	0	0	0	502	427	
7	0	0	0	0	503	428	
8	0	0	0	0	503	427	
9	0	0	0	0	502	427	
10	0	0	0	0	502	427	
11	0	0	0	0	502	428	
12	0	0	0	0	502	427	
13	0	0	0	0	502	427	
14	0	0	0	0	503	427	
15	0	0	0	0	504	427	
0	0	0	0	0	503	426	
1	0	0	0	0	503	427	
2	0	0	0	0	504	427	
3	0	0	0	0	504	427	
4	0	0	0	0	503	427	
5	0	0	0	0	503	428	
6	0	0	0	0	502	427	
7	0	0	0	0	501	427	
8	0	0	0	0	501	426	
9	0	0	0	0	500	427	
10	0	0	0	0	500	427	
11	0	0	0	0	500	428	
12	0	0	0	0	499	427	
13	0	0	0	0	499	428	
14	0	0	0	0	500	428	
15	0	0	0	0	499	427	
0	0	0	0	0	499	428	
1	0	0	0	0	499	427	
2	0	0	0	0	500	427	
3	0	0	0	0	501	428	
4	0	0	0	0	502	428	
5	0	0	0	0	502	428	
6	0	0	0	0	502	428	
7	0	0	0	0	503	428	
8	0	0	0	0	503	428	
9	0	0	0	0	504	428	
10	0	0	0	0	504	428	
11	0	0	0	0	504	428	
12	0	0	0	0	505	427	
13	0	0	0	0	505	428	
14	0	0	0	0	505	428	
15	0	0	0	0	505	428	
0	0	0	0	0	505	427	
1	0	0	0	0	505	427	
2	0	0	0	0	506	428	
3	0	0	0	0	506	429	
4	0	0	0	0	506	428	
5	0	0	0	0	506	428	
6	0	0	0	0	504	428	
7	0	0	0	0	502	428	
8	0	0	0	0	500	428	
9	0	0	0	0	499	428	
10	0	0	0	0	499	428	
11	0	0	0	0	498	428	
12	0	0	0	0	497	428	
13	0	0	0	0	497	428	
14	0	0	0	0	497	427	
15	0	0	0	0	497	428	
0	0	0	0	0	496	428	
1	0	0	0	0	496	428	
2	0	0	0	0	496	427	
3	0	0	0	0	496	428	
4	0	0	0	0	496	427	
5	0	0	0	0	496	427	
6	0	0	0	0	496	427	
7	0	0	0	0	496	427	
8	0	0	0	0	496	427	
9	0	0	0	0	496	427	
10	0	0	0	0	497	427	
11	0	0	0	0	497	428	
12	0	0	0	0	498	427	
13	0	0	0	0	499	427	
14	0	0	0	0	500	427	
15	0	0	0	0	500	428	
0	0	0	0	0	500	427	
1	0	0	0	0	501	427	
2	0	0	0	0	502	426	
3	0	0	0	0	502	426	
4	0	0	0	0	502	426	
5	0	0	0	0	502	426	
6	0	0	0	0	502	426	
7	0	0	0	0	503	426	
8	0	0	0	0	503	426	
9	0	0	0	0	504	426	
10	0	0	0	0	505	426	
11	0	0	0	0	505	427	
12	0	0	0	0	507	427	
13	0	0	0	0	507	427	
14	0	0	0	0	508	427	
15	0	0	0	0	508	427	
0	0	0	0	0	508	427	
1	0	0	0	0	508	427	
2	0	0	0	0	508	427	
3	0	0	0	0	508	428	
4	0	0	0	0	508	427	
5	0	0	0	0	508	427	
6	0	0	0	0	509	427	
7	0	0	0	0	509	428	
8	0	0	0	0	509	427	
9	0	0	0	0	509	428	
10	0	0	0	0	510	428	
11	0	0	0	0	510	428	
12	0	0	0	0	511	428	
13	0	0	0	0	511	428	
14	0	0	0	0	511	428	
15	0	0	0	0	512	428	
0	0	0	0	0	512	428	
1	0	0	0	0	513	429	
2	0	0	0	0	513	429	
3	0	0	0	0	513	430	
4	0	0	0	0	513	429	
5	0	0	0	0	513	429	
6	0	0	0	0	513	429	
7	0	0	0	0	513	429	
8	0	0	0	0	514	429	
9	0	0	0	0	513	429	
10	0	0	0	0	513	429	
11	0	0	0	0	513	430	
12	0	0	0	0	513	429	
13	0	0	0	0	513	429	
14	0	0	0	0	512	430	
15	0	0	0	0	513	429	
0	0	0	0	0	513	430	
1	0	0	0	0	514	430	
2	0	0	0	0	514	430	
3	0	0	0	0	515	430	
4	0	0	0	0	514	430	
5	0	0	0	0	514	430	
6	0	0	0	0	514	430	
7	0	0	0	0	515	430	
8	0	0	0	0	515	430	
9	0	0	0	0	515	430	
10	0	0	0	0	515	429	
11	0	0	0	0	515	430	
12	0	0	0	0	515	430	
13	0	0	0	0	515	430	
14	0	0	0	0	515	429	
15	0	0	0	0	515	430	
0	0	0	0	0	514	430	
1	0	0	0	0	514	430	
2	0	0	0	0	513	429	
3	0	0	0	0	513	430	
4	0	0	0	0	513	429	
5	0	0	0	0	513	429	
6	0	0	0	0	512	429	
7	0	0	0	0	512	430	
8	0	0	0	0	512	429	
9	0	0	0	0	512	429	
10	0	0	0	0	512	430	
11	0	0	0	0	511	430	
12	0	0	0	0	510	430	
13	0	0	0	0	510	430	
14	0	0	0	0	510	430	
15	0	0	0	0	509	430	
0	0	0	0	0	508	430	
1	0	0	0	0	507	430	
2	0	0	0	0	505	429	
3	0	0	0	0	504	430	
4	0	0	0	0	504	430	
5	0	0	0	0	503	430	
6	0	0	0	0	502	429	
7	0	0	0	0	501	430	
8	0	0	0	0	500	429	
9	0	0	0	0	499	429	
10	0	0	0	0	499	429	
11	0	0	0	0	498	429	
12	0	0	0	0	497	428	
13	0	0	0	0	497	428	
14	0	0	0	0	497	428	
15	0	0	0	0	496	429	
0	0	0	0	0	496	428	
1	0	0	0	0	496	428	
2	0	0	0	0	496	427	
3	0	0	0	0	496	428	
4	0	0	0	0	496	427	
5	0	0	0	0	495	427	
6	0	0	0	0	495	427	
7	0	0	0	0	495	427	
8	0	0	0	0	495	427	
9	0	0	0	0	495	428	
10	0	0	0	0	495	427	
11	0	0	0	0	494	427	
12	0	0	0	0	494	427	
13	0	0	0	0	494	427	
14	0	0	0	0	495	427	
15	0	0	0	0	495	427	
0	0	0	0	0	494	427	
1	0	0	0	0	495	427	
2	0	0	0	0	494	427	
3	0	0	0	0	494	427	
4	0	0	0	0	494	427	
5	0	0	0	0	493	427	
6	0	0	0	0	493	427	
7	0	0	0	0	494	427	
8	0	0	0	0	494	426	
9	0	0	0	0	494	426	
10	0	0	0	0	494	426	
11	0	0	0	0	493	427	
12	0	0	0	0	493	427	
13	0	0	0	0	492	427	
14	0	0	0	0	492	427	
15	0	0	0	0	493	427	
0	0	0	0	0	493	427	
1	0	0	0	0	492	427	
2	0	0	0	0	493	426	
3	0	0	0	0	493	427	
4	0	0	0	0	494	427	
5	0	0	0	0	494	427	
6	0	0	0	0	494	427	
7	0	0	0	0	494	428	
8	0	0	0	0	494	427	
9	0	0	0	0	494	427	
10	0	0	0	0	493	427	
11	0	0	0	0	493	428	
12	0	0	0	0	493	427	
13	0	0	0	0	492	427	
14	0	0	0	0	493	428	
15	0	0	0	0	493	428	
0	0	0	0	0	493	427	
1	0	0	0	0	494	427	
2	0	0	0	0	494	427	
3	0	0	0	0	494	428	
4	0	0	0	0	495	427	
5	0	0	0	0	495	427	
6	0	0	0	0	495	427	
7	0	0	0	0	496	428	
8	0	0	0	0	496	427	
9	0	0	0	0	496	428	
10	0	0	0	0	496	427	
11	0	0	0	0	496	428	
12	0	0	0	0	496	427	
13	0	0	0	0	496	427	
14	0	0	0	0	496	427	
15	0	0	0	0	497	426	
0	0	0	0	0	498	427	
1	0	0	0	0	499	427	
2	0	0	0	0	499	426	
3	0	0	0	0	499	427	
4	0	0	0	0	499	426	
5	0	0	0	0	499	426	
6	0	0	0	0	499	426	
7	0	0	0	0	499	426	
8	0	0	0	0	499	426	
9	0	0	0	0	498	426	
10	0	0	0	0	499	426	
11	0	0	0	0	499	426	
12	0	0	0	0	499	426	
13	0	0	0	0	499	426	
14	0	0	0	0	500	426	
15	0	0	0	0	499	426	
0	0	0	0	0	499	425	
1	0	0	0	0	499	425	
2	0	0	0	0	500	425	
3	0	0	0	0	500	426	
4	0	0	0	0	500	425	
5	0	0	0	0	501	425	
6	0	0	0	0	501	425	
7	0	0	0	0	502	425	
8	0	0	0	0	503	425	
9	0	0	0	0	502	425	
10	0	0	0	0	502	424	
11	0	0	0	0	502	425	
12	0	0	0	0	503	425	
13	0	0	0	0	503	425	
14	0	0	0	0	504	425	
15	0	0	0	0	504	425	
0	0	0	0	0	504	425	
1	0	0	0	0	505	426	
2	0	0	0	0	506	425	
3	0	0	0	0	506	426	
4	0	0	0	0	506	425	
5	0	0	0	0	506	425	
6	0	0	0	0	506	424	
7	0	0	0	0	505	425	
8	0	0	0	0	505	425	
9	0	0	0	0	505	425	
10	0	0	0	0	505	425	
11	0	0	0	0	504	425	
12	0	0	0	0	504	425	
13	0	0	0	0	505	425	
14	0	0	0	0	505	426	
15	0	0	0	0	506	426	
0	0	0	0	0	506	425	
1	0	0	0	0	506	424	
2	0	0	0	0	506	425	
3	0	0	0	0	507	426	
4	0	0	0	0	507	425	
5	0	0	0	0	507	425	
6	0	0	0	0	507	425	
7	0	0	0	0	507	425	
8	0	0	0	0	507	425	
9	0	0	0	0	507	425	
10	0	0	0	0	507	425	
11	0	0	0	0	508	426	
12	0	0	0	0	508	425	
13	0	0	0	0	508	425	
14	0	0	0	0	509	426	
15	0	0	0	0	509	425	
0	0	0	0	0	508	426	
1	0	0	0	0	508	425	
2	0	0	0	0	509	426	
3	0	0	0	0	509	426	
4	0	0	0	0	510	426	
5	0	0	0	0	509	425	
6	0	0	0	0	510	426	
7	0	0	0	0	510	426	
8	0	0	0	0	509	426	
9	0	0	0	0	509	426	
10	0	0	0	0	508	426	
11	0	0	0	0	508	427	
12	0	0	0	0	508	426	
13	0	0	0	0	508	426	
14	0	0	0	0	508	426	
15	0	0	0	0	509	426	
0	0	0	0	0	509	426	
1	0	0	0	0	509	425	
2	0	0	0	0	509	426	
3	0	0	0	0	509	426	
4	0	0	0	0	510	425	
5	0	0	0	0	509	426	
6	0	0	0	0	509	425	
7	0	0	0	0	510	426	
8	0	0	0	0	509	425	
9	0	0	0	0	509	425	
10	0	0	0	0	510	425	
11	0	0	0	0	510	427	
12	0	0	0	0	510	426	
13	0	0	0	0	509	426	
14	0	0	0	0	510	427	
15	0	0	0	0	510	427	
0	0	0	0	0	509	427	
1	0	0	0	0	510	427	
2	0	0	0	0	510	427	
3	0	0	0	0	510	428	
4	0	0	0	0	511	428	
5	0	0	0	0	512	427	
6	0	0	0	0	512	427	
7	0	0	0	0	513	427	
8	0	0	0	0	513	427	
9	0	0	0	0	512	428	
10	0	0	0	0	512	428	
11	0	0	0	0	512	429	
12	0	0	0	0	511	429	
13	0	0	0	0	511	430	
14	0	0	0	0	511	430	
15	0	0	0	0	511	430	
0	0	0	0	0	511	430	
1	0	0	0	0	512	431	
2	0	0	0	0	512	431	
3	0	0	0	0	512	432	
4	0	0	0	0	512	432	
5	0	0	0	0	512	431	
6	0	0	0	0	512	432	
7	0	0	0	0	512	432	
8	0	0	0	0	512	433	
9	0	0	0	0	512	433	
10	0	0	0	0	511	432	
11	0	0	0	0	511	432	
12	0	0	0	0	510	431	
13	0	0	0	0	510	430	
14	0	0	0	0	511	430	
15	0	0	0	0	511	429	
0	0	0	0	0	511	429	
1	0	0	0	0	512	429	
2	0	0	0	0	512	428	
3	0	0	0	0	512	428	
4	0	0	0	0	511	428	
5	0	0	0	0	511	428	
6	0	0	0	0	511	428	
7	0	0	0	0	511	428	
8	0	0	0	0	511	428	
9	0	0	0	0	511	427	
10	0	0	0	0	510	428	
11	0	0	0	0	509	428	
12	0	0	0	0	509	428	
13	0	0	0	0	510	428	
14	0	0	0	0	510	428	
15	0	0	0	0	511	428	
0	0	0	0	0	511	429	
1	0	0	0	0	512	428	
2	0	0	0	0	512	428	
3	0	0	0	0	512	428	
4	0	0	0	0	512	426	
5	0	0	0	0	513	426	
6	0	0	0	0	513	427	
7	0	0	0	0	512	426	
8	0	0	0	0	513	427	
9	0	0	0	0	512	428	
10	0	0	0	0	512	428	
11	0	0	0	0	513	429	
12	0	0	0	0	512	429	
13	0	0	0	0	513	429	
14	0	0	0	0	512	430	
15	0	0	0	0	512	431	
0	0	0	0	0	512	431	
1	0	0	0	0	512	431	
2	0	0	0	0	511	429	
3	0	0	0	0	511	430	
4	0	0	0	0	511	431	
5	0	0	0	0	511	430	
6	0	0	0	0	511	429	
7	0	0	0	0	511	431	
8	0	0	0	0	512	431	
9	0	0	0	0	512	431	
10	0	0	0	0	513	431	
11	0	0	0	0	512	432	
12	0	0	0	0	513	431	
13	0	0	0	0	513	431	
14	0	0	0	0	512	430	
15	0	0	0	0	512	428	
0	0	0	0	0	512	428	
1	0	0	0	0	512	429	
2	0	0	0	0	512	427	
3	0	0	0	0	513	428	
4	0	0	0	0	512	428	
5	0	0	0	0	512	428	
6	0	0	0	0	512	427	
7	0	0	0	0	513	427	
8	0	0	0	0	513	427	
9	0	0	0	0	513	427	
10	0	0	0	0	513	427	
11	0	0	0	0	513	428	
12	0	0	0	0	513	427	
13	0	0	0	0	513	428	
14	0	0	0	0	513	430	
15	0	0	0	0	513	430	
0	0	0	0	0	512	429	
1	0	0	0	0	512	431	
2	0	0	0	0	513	430	
3	0	0	0	0	513	430	
4	0	0	0	0	513	431	
5	0	0	0	0	513	431	
6	0	0	0	0	513	431	
7	0	0	0	0	513	432	
8	0	0	0	0	514	432	
9	0	0	0	0	514	432	
10	0	0	0	0	514	432	
11	0	0	0	0	515	434	
12	0	0	0	0	515	433	
13	0	0	0	0	515	434	
14	0	0	0	0	515	433	
15	0	0	0	0	514	434	
0	0	0	0	0	514	434	
1	0	0	0	0	514	433	
2	0	0	0	0	515	434	
3	0	0	0	0	515	434	
4	0	0	0	0	515	435	
5	0	0	0	0	514	434	
6	0	0	0	0	515	434	
7	0	0	0	0	514	434	
8	0	0	0	0	514	433	
9	0	0	0	0	514	433	
10	0	0	0	0	514	432	
11	0	0	0	0	514	433	
12	0	0	0	0	513	431	
13	0	0	0	0	513	431	
14	0	0	0	0	513	430	
15	0	0	0	0	513	430	
0	0	0	0	0	513	428	
1	0	0	0	0	513	429	
2	0	0	0	0	512	428	
3	0	0	0	0	513	429	
4	0	0	0	0	512	427	
5	0	0	0	0	512	427	
6	0	0	0	0	512	426	
7	0	0	0	0	512	427	
8	0	0	0	0	512	425	
9	0	0	0	0	512	426	
10	0	0	0	0	512	426	
11	0	0	0	0	512	427	
12	0	0	0	0	512	426	
13	0	0	0	0	513	425	
14	0	0	0	0	513	426	
15	0	0	0	0	513	426	
0	0	0	0	0	513	426	
1	0	0	0	0	513	425	
2	0	0	0	0	515	425	
3	0	0	0	0	515	426	
4	0	0	0	0	515	426	
5	0	0	0	0	515	426	
6	0	0	0	0	515	426	
7	0	0	0	0	515	425	
8	0	0	0	0	515	426	
9	0	0	0	0	515	426	
10	0	0	0	0	515	427	
11	0	0	0	0	515	427	
12	0	0	0	0	515	427	
13	0	0	0	0	515	427	
14	0	0	0	0	515	427	
15	0	0	0	0	515	427	
0	0	0	0	0	516	427	
1	0	0	0	0	516	427	
2	0	0	0	0	516	427	
3	0	0	0	0	516	428	
4	0	0	0	0	516	427	
5	0	0	0	0	516	427	
6	0	0	0	0	515	427	
7	0	0	0	0	515	427	
8	0	0	0	0	514	426	
9	0	0	0	0	514	427	
10	0	0	0	0	514	427	
11	0	0	0	0	516	428	
12	0	0	0	0	518	426	
13	0	0	0	0	520	426	
14	0	0	0	0	523	426	
15	0	0	0	0	525	426	
0	0	0	0	0	527	425	
1	0	0	0	0	527	426	
2	0	0	0	0	528	425	
3	0	0	0	0	529	426	
4	0	0	0	0	531	426	
5	0	0	0	0	532	425	
6	0	0	0	0	533	425	
7	0	0	0	0	533	425	
8	0	0	0	0	534	425	
9	0	0	0	0	535	425	
10	0	0	0	0	535	424	
11	0	0	0	0	535	423	
12	0	0	0	0	535	423	
13	0	0	0	0	535	422	
14	0	0	0	0	535	422	
15	0	0	0	0	535	422	
0	0	0	0	0	535	422	
1	0	0	0	0	534	422	
2	0	0	0	0	534	423	
3	0	0	0	0	535	423	
4	0	0	0	0	535	423	
5	0	0	0	0	535	423	
6	0	0	0	0	534	424	
7	0	0	0	0	534	425	
8	0	0	0	0	535	425	
9	0	0	0	0	535	426	
10	0	0	0	0	535	427	
11	0	0	0	0	535	427	
12	0	0	0	0	536	428	
13	0	0	0	0	536	429	
14	0	0	0	0	536	428	
15	0	0	0	0	536	429	
0	0	0	0	0	536	429	
1	0	0	0	0	536	429	
2	0	0	0	0	536	428	
3	0	0	0	0	536	429	
4	0	0	0	0	536	428	
5	0	0	0	0	536	428	
6	0	0	0	0	536	427	
7	0	0	0	0	535	427	
8	0	0	0	0	535	427	
9	0	0	0	0	534	427	
10	0	0	0	0	533	427	
11	0	0	0	0	532	427	
12	0	0	0	0	533	426	
13	0	0	0	0	533	425	
14	0	0	0	0	533	426	
15	0	0	0	0	532	427	
0	0	0	0	0	533	426	
1	0	0	0	0	533	427	
2	0	0	0	0	534	427	
3	0	0	0	0	533	428	
4	0	0	0	0	533	428	
5	0	0	0	0	534	428	
6	0	0	0	0	534	429	
7	0	0	0	0	535	429	
8	0	0	0	0	535	429	
9	0	0	0	0	536	429	
10	0	0	0	0	536	429	
11	0	0	0	0	536	429	
12	0	0	0	0	536	428	
13	0	0	0	0	536	428	
14	0	0	0	0	535	429	
15	0	0	0	0	534	429	
0	0	0	0	0	533	428	
1	0	0	0	0	532	429	
2	0	0	0	0	532	429	
3	0	0	0	0	532	429	
4	0	0	0	0	532	429	
5	0	0	0	0	532	429	
6	0	0	0	0	531	428	
7	0	0	0	0	530	429	
8	0	0	0	0	530	428	
9	0	0	0	0	529	428	
10	0	0	0	0	529	427	
11	0	0	0	0	529	429	
12	0	0	0	0	529	427	
13	0	0	0	0	529	427	
14	0	0	0	0	528	428	
15	0	0	0	0	527	429	
0	0	0	0	0	527	428	
1	0	0	0	0	527	428	
2	0	0	0	0	527	429	
3	0	0	0	0	527	428	
4	0	0	0	0	527	426	
5	0	0	0	0	527	427	
6	0	0	0	0	527	427	
7	0	0	0	0	526	425	
8	0	0	0	0	526	426	
9	0	0	0	0	526	425	
10	0	0	0	0	525	425	
11	0	0	0	0	525	425	
12	0	0	0	0	525	426	
13	0	0	0	0	525	426	
14	0	0	0	0	525	425	
15	0	0	0	0	524	425	
0	0	0	0	0	523	425	
1	0	0	0	0	523	426	
2	0	0	0	0	522	426	
3	0	0	0	0	522	427	
4	0	0	0	0	522	425	
5	0	0	0	0	522	427	
6	0	0	0	0	522	427	
7	0	0	0	0	522	427	
8	0	0	0	0	522	427	
9	0	0	0	0	523	428	
10	0	0	0	0	523	428	
11	0	0	0	0	523	428	
12	0	0	0	0	523	428	
13	0	0	0	0	522	428	
14	0	0	0	0	522	427	
15	0	0	0	0	521	428	
0	0	0	0	0	520	428	
1	0	0	0	0	520	428	
2	0	0	0	0	520	429	
3	0	0	0	0	520	429	
4	0	0	0	0	519	428	
5	0	0	0	0	519	428	
6	0	0	0	0	519	429	
7	0	0	0	0	519	429	
8	0	0	0	0	519	429	
9	0	0	0	0	519	429	
10	0	0	0	0	519	429	
11	0	0	0	0	519	430	
12	0	0	0	0	519	430	
13	0	0	0	0	519	430	
14	0	0	0	0	519	430	
15	0	0	0	0	519	431	
0	0	0	0	0	518	430	
1	0	0	0	0	517	430	
2	0	0	0	0	517	430	
3	0	0	0	0	516	430	
4	0	0	0	0	515	429	
5	0	0	0	0	515	429	
6	0	0	0	0	515	429	
7	0	0	0	0	515	429	
8	0	0	0	0	515	429	
9	0	0	0	0	515	429	
10	0	0	0	0	515	430	
11	0	0	0	0	515	430	
12	0	0	0	0	515	430	
13	0	0	0	0	515	430	
14	0	0	0	0	515	431	
15	0	0	0	0	514	431	
0	0	0	0	0	513	430	
1	0	0	0	0	513	430	
2	0	0	0	0	513	430	
3	0	0	0	0	513	430	
4	0	0	0	0	513	430	
5	0	0	0	0	514	430	
6	0	0	0	0	514	430	
7	0	0	0	0	514	430	
8	0	0	0	0	514	430	
9	0	0	0	0	513	430	
10	0	0	0	0	514	429	
11	0	0	0	0	514	429	
12	0	0	0	0	513	429	
13	0	0	0	0	513	429	
14	0	0	0	0	513	429	
15	0	0	0	0	513	429	
0	0	0	0	0	513	429	
1	0	0	0	0	512	429	
2	0	0	0	0	513	429	
3	0	0	0	0	512	430	
4	0	0	0	0	512	429	
5	0	0	0	0	512	429	
6	0	0	0	0	512	428	
7	0	0	0	0	512	429	
8	0	0	0	0	512	429	
9	0	0	0	0	512	428	
10	0	0	0	0	512	428	
11	0	0	0	0	512	429	
12	0	0	0	0	513	428	
13	0	0	0	0	512	428	
14	0	0	0	0	513	428	
15	0	0	0	0	512	428	
0	0	0	0	0	512	428	
1	0	0	0	0	512	428	
2	0	0	0	0	511	428	
3	0	0	0	0	511	429	
4	0	0	0	0	511	428	
5	0	0	0	0	510	428	
6	0	0	0	0	509	429	
7	0	0	0	0	508	428	
8	0	0	0	0	507	429	
9	0	0	0	0	505	429	
10	0	0	0	0	503	429	
11	0	0	0	0	501	430	
12	0	0	0	0	498	429	
13	0	0	0	0	496	428	
14	0	0	0	0	496	429	
15	0	0	0	0	496	430	
0	0	0	0	0	495	430	
1	0	0	0	0	495	430	
2	0	0	0	0	494	430	
3	0	0	0	0	494	430	
4	0	0	0	0	494	430	
5	0	0	0	0	494	430	
6	0	0	0	0	494	430	
7	0	0	0	0	495	431	
8	0	0	0	0	497	430	
9	0	0	0	0	500	429	
10	0	0	0	0	504	430	
11	0	0	0	0	509	430	
12	0	0	0	0	515	430	
13	0	0	0	0	523	429	
14	0	0	0	0	530	429	
15	0	0	0	0	538	430	
0	0	0	0	0	547	430	
1	0	0	0	0	556	430	
2	0	0	0	0	566	429	
3	0	0	0	0	575	430	
4	0	0	0	0	586	428	
5	0	0	0	0	595	429	
6	0	0	0	0	605	429	
7	0	0	0	0	616	428	
8	0	0	0	0	626	428	
9	0	0	0	0	636	429	
10	0	0	0	0	644	428	
11	0	0	0	0	651	429	
12	0	0	0	0	655	428	
13	0	0	0	0	658	428	
14	0	0	0	0	659	428	
15	0	0	0	0	659	428	
0	0	0	0	0	658	428	
1	0	0	0	0	654	428	
2	0	0	0	0	648	428	
3	0	0	0	0	639	429	
4	0	0	0	0	627	429	
5	0	0	0	0	614	429	
6	0	0	0	0	601	428	
7	0	0	0	0	589	429	
8	0	0	0	0	577	429	
9	0	0	0	0	565	429	
10	0	0	0	0	555	429	
11	0	0	0	0	545	430	
12	0	0	0	0	536	429	
13	0	0	0	0	529	430	
14	0	0	0	0	523	430	
15	0	0	0	0	519	430	
0	0	0	0	0	515	431	
1	0	0	0	0	512	430	
2	0	0	0	0	509	430	
3	0	0	0	0	506	431	
4	0	0	0	0	504	431	
5	0	0	0	0	502	431	
6	0	0	0	0	500	432	
7	0	0	0	0	498	432	
8	0	0	0	0	496	431	
9	0	0	0	0	494	431	
10	0	0	0	0	493	432	
11	0	0	0	0	491	432	
12	0	0	0	0	490	432	
13	0	0	0	0	489	431	
14	0	0	0	0	487	431	
15	0	0	0	0	487	431	
0	0	0	0	0	486	431	
1	0	0	0	0	485	431	
2	0	0	0	0	485	431	
3	0	0	0	0	485	431	
4	0	0	0	0	484	431	
5	0	0	0	0	483	430	
6	0	0	0	0	483	430	
7	0	0	0	0	483	431	
8	0	0	0	0	483	430	
9	0	0	0	0	483	430	
10	0	0	0	0	483	431	
11	0	0	0	0	483	431	
12	0	0	0	0	482	430	
13	0	0	0	0	482	431	
14	0	0	0	0	482	430	
15	0	0	0	0	483	430	
0	0	0	0	0	482	430	
1	0	0	0	0	483	431	
2	0	0	0	0	483	431	
3	0	0	0	0	483	431	
4	0	0	0	0	483	430	
5	0	0	0	0	483	430	
6	0	0	0	0	483	429	
7	0	0	0	0	483	429	
8	0	0	0	0	483	428	
9	0	0	0	0	483	427	
10	0	0	0	0	484	426	
11	0	0	0	0	485	427	
12	0	0	0	0	485	427	
13	0	0	0	0	486	426	
14	0	0	0	0	486	426	
15	0	0	0	0	486	427	
0	0	0	0	0	487	427	
1	0	0	0	0	486	428	
2	0	0	0	0	486	429	
3	0	0	0	0	486	430	
4	0	0	0	0	486	429	
5	0	0	0	0	486	429	
6	0	0	0	0	486	429	
7	0	0	0	0	487	430	
8	0	0	0	0	487	430	
9	0	0	0	0	487	429	
10	0	0	0	0	488	429	
11	0	0	0	0	488	429	
12	0	0	0	0	489	429	
13	0	0	0	0	489	428	
14	0	0	0	0	489	428	
15	0	0	0	0	490	429	
0	0	0	0	0	490	428	
1	0	0	0	0	490	428	
2	0	0	0	0	490	428	
3	0	0	0	0	490	429	
4	0	0	0	0	491	429	
5	0	0	0	0	490	429	
6	0	0	0	0	490	429	
7	0	0	0	0	491	429	
8	0	0	0	0	491	429	
9	0	0	0	0	490	430	
10	0	0	0	0	491	429	
11	0	0	0	0	491	430	
12	0	0	0	0	491	428	
13	0	0	0	0	492	429	
14	0	0	0	0	492	429	
15	0	0	0	0	492	430	
0	0	0	0	0	492	429	
1	0	0	0	0	493	430	
2	0	0	0	0	493	430	
3	0	0	0	0	494	432	
4	0	0	0	0	493	432	
5	0	0	0	0	494	432	
6	0	0	0	0	494	434	
7	0	0	0	0	494	435	
8	0	0	0	0	494	435	
9	0	0	0	0	494	435	
10	0	0	0	0	494	437	
11	0	0	0	0	494	438	
12	0	0	0	0	494	438	
13	0	0	0	0	495	438	
14	0	0	0	0	495	438	
15	0	0	0	0	495	438	
0	0	0	0	0	495	438	
1	0	0	0	0	495	438	
2	0	0	0	0	494	438	
3	0	0	0	0	494	438	
4	0	0	0	0	494	437	
5	0	0	0	0	494	436	
6	0	0	0	0	494	436	
7	0	0	0	0	494	436	
8	0	0	0	0	494	435	
9	0	0	0	0	493	435	
10	0	0	0	0	493	434	
11	0	0	0	0	493	435	
12	0	0	0	0	494	433	
13	0	0	0	0	494	433	
14	0	0	0	0	494	432	
15	0	0	0	0	494	432	
0	0	0	0	0	495	431	
1	0	0	0	0	496	431	
2	0	0	0	0	496	431	
3	0	0	0	0	496	431	
4	0	0	0	0	496	429	
5	0	0	0	0	497	429	
6	0	0	0	0	497	429	
7	0	0	0	0	497	430	
8	0	0	0	0	497	429	
9	0	0	0	0	497	429	
10	0	0	0	0	497	430	
11	0	0	0	0	497	432	
12	0	0	0	0	497	430	
13	0	0	0	0	497	430	
14	0	0	0	0	498	432	
15	0	0	0	0	498	432	
0	0	0	0	0	499	433	
1	0	0	0	0	499	433	
2	0	0	0	0	499	433	
3	0	0	0	0	499	434	
4	0	0	0	0	499	433	
5	0	0	0	0	499	433	
6	0	0	0	0	500	432	
7	0	0	0	0	499	433	
8	0	0	0	0	500	432	
9	0	0	0	0	499	432	
10	0	0	0	0	500	431	
11	0	0	0	0	500	431	
12	0	0	0	0	500	430	
13	0	0	0	0	500	431	
14	0	0	0	0	500	433	
15	0	0	0	0	500	434	
0	0	0	0	0	500	432	
1	0	0	0	0	500	430	
2	0	0	0	0	500	430	
3	0	0	0	0	501	430	
4	0	0	0	0	502	429	
5	0	0	0	0	501	429	
6	0	0	0	0	502	428	
7	0	0	0	0	502	428	
8	0	0	0	0	502	428	
9	0	0	0	0	503	428	
10	0	0	0	0	502	426	
11	0	0	0	0	502	427	
12	0	0	0	0	502	427	
13	0	0	0	0	502	427	
14	0	0	0	0	502	425	
15	0	0	0	0	503	426	
0	0	0	0	0	502	425	
1	0	0	0	0	503	423	
2	0	0	0	0	503	423	
3	0	0	0	0	503	425	
4	0	0	0	0	504	424	
5	0	0	0	0	504	425	
6	0	0	0	0	504	425	
7	0	0	0	0	504	425	
8	0	0	0	0	504	426	
9	0	0	0	0	504	427	
10	0	0	0	0	504	426	
11	0	0	0	0	504	427	
12	0	0	0	0	504	427	
13	0	0	0	0	505	427	
14	0	0	0	0	506	427	
15	0	0	0	0	505	427	
0	0	0	0	0	506	427	
1	0	0	0	0	506	425	
2	0	0	0	0	506	425	
3	0	0	0	0	506	427	
4	0	0	0	0	506	425	
5	0	0	0	0	506	425	
6	0	0	0	0	506	426	
7	0	0	0	0	507	425	
8	0	0	0	0	507	425	
9	0	0	0	0	508	425	
10	0	0	0	0	508	425	
11	0	0	0	0	507	424	
12	0	0	0	0	508	424	
13	0	0	0	0	508	424	
14	0	0	0	0	508	423	
15	0	0	0	0	508	424	
0	0	0	0	0	508	423	
1	0	0	0	0	508	423	
2	0	0	0	0	509	423	
3	0	0	0	0	509	424	
4	0	0	0	0	509	423	
5	0	0	0	0	510	423	
6	0	0	0	0	510	425	
7	0	0	0	0	511	425	
8	0	0	0	0	511	426	
9	0	0	0	0	510	427	
10	0	0	0	0	511	428	
11	0	0	0	0	511	428	
12	0	0	0	0	512	428	
13	0	0	0	0	513	429	
14	0	0	0	0	513	429	
15	0	0	0	0	514	430	
0	0	0	0	0	514	430	
1	0	0	0	0	515	430	
2	0	0	0	0	515	431	
3	0	0	0	0	515	432	
4	0	0	0	0	515	431	
5	0	0	0	0	515	431	
6	0	0	0	0	516	431	
7	0	0	0	0	516	432	
8	0	0	0	0	517	432	
9	0	0	0	0	517	432	
10	0	0	0	0	518	432	
11	0	0	0	0	519	432	
12	0	0	0	0	519	432	
13	0	0	0	0	520	431	
14	0	0	0	0	520	431	
15	0	0	0	0	521	431	
0	0	0	0	0	521	430	
1	0	0	0	0	522	431	
2	0	0	0	0	521	429	
3	0	0	0	0	522	430	
4	0	0	0	0	522	428	
5	0	0	0	0	522	428	
6	0	0	0	0	523	428	
7	0	0	0	0	523	428	
8	0	0	0	0	523	427	
9	0	0	0	0	524	427	
10	0	0	0	0	523	427	
11	0	0	0	0	523	428	
12	0	0	0	0	523	426	
13	0	0	0	0	522	426	
14	0	0	0	0	522	426	
15	0	0	0	0	521	426	
0	0	0	0	0	521	426	
1	0	0	0	0	521	426	
2	0	0	0	0	520	426	
3	0	0	0	0	519	426	
4	0	0	0	0	519	425	
5	0	0	0	0	519	425	
6	0	0	0	0	517	425	
7	0	0	0	0	517	424	
8	0	0	0	0	516	424	
9	0	0	0	0	516	425	
10	0	0	0	0	515	424	
11	0	0	0	0	515	425	
12	0	0	0	0	515	423	
13	0	0	0	0	515	424	
14	0	0	0	0	514	423	
15	0	0	0	0	514	423	
0	0	0	0	0	513	424	
1	0	0	0	0	512	424	
2	0	0	0	0	512	423	
3	0	0	0	0	511	424	
4	0	0	0	0	510	423	
5	0	0	0	0	510	423	
6	0	0	0	0	509	423	
7	0	0	0	0	508	423	
8	0	0	0	0	507	422	
9	0	0	0	0	506	421	
10	0	0	0	0	505	421	
11	0	0	0	0	504	422	
12	0	0	0	0	503	421	
13	0	0	0	0	503	420	
14	0	0	0	0	503	420	
15	0	0	0	0	503	421	
0	0	0	0	0	503	420	
1	0	0	0	0	503	420	
2	0	0	0	0	502	420	
3	0	0	0	0	501	421	
4	0	0	0	0	500	420	
5	0	0	0	0	500	419	
6	0	0	0	0	499	420	
7	0	0	0	0	499	419	
8	0	0	0	0	498	420	
9	0	0	0	0	497	420	
10	0	0	0	0	497	420	
11	0	0	0	0	496	422	
12	0	0	0	0	496	422	
13	0	0	0	0	496	422	
14	0	0	0	0	496	422	
15	0	0	0	0	496	422	
0	0	0	0	0	495	423	
1	0	0	0	0	495	422	
2	0	0	0	0	495	422	
3	0	0	0	0	494	423	
4	0	0	0	0	494	423	
5	0	0	0	0	493	423	
6	0	0	0	0	493	423	
7	0	0	0	0	492	423	
8	0	0	0	0	491	423	
9	0	0	0	0	491	423	
10	0	0	0	0	490	423	
11	0	0	0	0	489	424	
12	0	0	0	0	489	423	
13	0	0	0	0	489	423	
14	0	0	0	0	489	423	
15	0	0	0	0	489	423	
0	0	0	0	0	489	423	
1	0	0	0	0	489	423	
2	0	0	0	0	490	423	
3	0	0	0	0	490	423	
4	0	0	0	0	490	423	
5	0	0	0	0	490	423	
6	0	0	0	0	491	423	
7	0	0	0	0	492	424	
8	0	0	0	0	492	423	
9	0	0	0	0	492	423	
10	0	0	0	0	492	424	
11	0	0	0	0	492	424	
12	0	0	0	0	492	423	
13	0	0	0	0	492	424	
14	0	0	0	0	492	424	
15	0	0	0	0	492	424	
0	0	0	0	0	491	423	
1	0	0	0	0	491	424	
2	0	0	0	0	491	424	
3	0	0	0	0	490	425	
4	0	0	0	0	490	423	
5	0	0	0	0	490	423	
6	0	0	0	0	490	424	
7	0	0	0	0	490	424	
8	0	0	0	0	489	423	
9	0	0	0	0	489	423	
10	0	0	0	0	490	423	
11	0	0	0	0	490	423	
12	0	0	0	0	490	422	
13	0	0	0	0	490	423	
14	0	0	0	0	490	421	
15	0	0	0	0	490	422	
0	0	0	0	0	489	422	
1	0	0	0	0	490	423	
2	0	0	0	0	490	423	
3	0	0	0	0	491	423	
4	0	0	0	0	491	423	
5	0	0	0	0	492	424	
6	0	0	0	0	493	425	
7	0	0	0	0	493	426	
8	0	0	0	0	493	426	
9	0	0	0	0	493	426	
10	0	0	0	0	493	427	
11	0	0	0	0	494	428	
12	0	0	0	0	493	428	
13	0	0	0	0	494	428	
14	0	0	0	0	494	428	
15	0	0	0	0	493	428	
0	0	0	0	0	492	428	
1	0	0	0	0	492	429	
2	0	0	0	0	492	429	
3	0	0	0	0	492	430	
4	0	0	0	0	492	429	
5	0	0	0	0	493	430	
6	0	0	0	0	493	429	
7	0	0	0	0	493	430	
8	0	0	0	0	495	429	
9	0	0	0	0	495	429	
10	0	0	0	0	496	430	
11	0	0	0	0	496	430	
12	0	0	0	0	496	429	
13	0	0	0	0	496	429	
14	0	0	0	0	496	428	
15	0	0	0	0	497	429	
0	0	0	0	0	498	428	
1	0	0	0	0	500	428	
2	0	0	0	0	502	428	
3	0	0	0	0	503	428	
4	0	0	0	0	504	428	
5	0	0	0	0	504	428	
6	0	0	0	0	505	427	
7	0	0	0	0	505	428	
8	0	0	0	0	506	427	
9	0	0	0	0	507	428	
10	0	0	0	0	507	428	
11	0	0	0	0	507	428	
12	0	0	0	0	507	428	
13	0	0	0	0	507	427	
14	0	0	0	0	508	428	
15	0	0	0	0	508	428	
0	0	0	0	0	509	428	
1	0	0	0	0	509	427	
2	0	0	0	0	510	428	
3	0	0	0	0	510	428	
4	0	0	0	0	510	428	
5	0	0	0	0	510	428	
6	0	0	0	0	511	428	
7	0	0	0	0	511	428	
8	0	0	0	0	512	428	
9	0	0	0	0	512	428	
10	0	0	0	0	512	428	
11	0	0	0	0	511	429	
12	0	0	0	0	511	428	
13	0	0	0	0	512	428	
14	0	0	0	0	512	429	
15	0	0	0	0	512	428	
0	0	0	0	0	512	428	
1	0	0	0	0	511	428	
2	0	0	0	0	512	428	
3	0	0	0	0	511	429	
4	0	0	0	0	512	428	
5	0	0	0	0	511	428	
6	0	0	0	0	510	428	
7	0	0	0	0	510	428	
8	0	0	0	0	509	426	
9	0	0	0	0	509	427	
10	0	0	0	0	509	426	
11	0	0	0	0	510	427	
12	0	0	0	0	510	426	
13	0	0	0	0	510	426	
14	0	0	0	0	510	426	
15	0	0	0	0	509	426	
0	0	0	0	0	509	426	
1	0	0	0	0	509	425	
2	0	0	0	0	509	425	
3	0	0	0	0	509	425	
4	0	0	0	0	508	425	
5	0	0	0	0	508	425	
6	0	0	0	0	508	425	
7	0	0	0	0	508	426	
8	0	0	0	0	508	425	
9	0	0	0	0	508	425	
10	0	0	0	0	508	425	
11	0	0	0	0	508	424	
12	0	0	0	0	507	425	
13	0	0	0	0	507	425	
14	0	0	0	0	507	425	
15	0	0	0	0	506	425	
0	0	0	0	0	506	425	
1	0	0	0	0	506	425	
2	0	0	0	0	506	425	
3	0	0	0	0	506	425	
4	0	0	0	0	505	424	
5	0	0	0	0	505	424	
6	0	0	0	0	505	425	
7	0	0	0	0	505	425	
8	0	0	0	0	505	424	
9	0	0	0	0	505	424	
10	0	0	0	0	505	424	
11	0	0	0	0	505	425	
12	0	0	0	0	505	424	
13	0	0	0	0	506	424	
14	0	0	0	0	506	424	
15	0	0	0	0	507	425	
0	0	0	0	0	506	424	
1	0	0	0	0	506	424	
2	0	0	0	0	506	424	
3	0	0	0	0	506	425	
4	0	0	0	0	506	424	
5	0	0	0	0	506	424	
6	0	0	0	0	506	425	
7	0	0	0	0	506	425	
8	0	0	0	0	506	425	
9	0	0	0	0	505	425	
10	0	0	0	0	507	425	
11	0	0	0	0	507	427	
12	0	0	0	0	507	426	
13	0	0	0	0	507	426	
14	0	0	0	0	506	427	
15	0	0	0	0	505	427	
0	0	0	0	0	505	427	
1	0	0	0	0	506	427	
2	0	0	0	0	506	426	
3	0	0	0	0	505	428	
4	0	0	0	0	505	426	
5	0	0	0	0	506	425	
6	0	0	0	0	506	425	
7	0	0	0	0	506	425	
8	0	0	0	0	505	424	
9	0	0	0	0	506	424	
10	0	0	0	0	505	425	
11	0	0	0	0	506	424	
12	0	0	0	0	506	424	
13	0	0	0	0	507	424	
14	0	0	0	0	507	424	
15	0	0	0	0	507	423	
0	0	0	0	0	507	423	
1	0	0	0	0	507	423	
2	0	0	0	0	508	423	
3	0	0	0	0	508	423	
4	0	0	0	0	508	422	
5	0	0	0	0	508	422	
6	0	0	0	0	508	423	
7	0	0	0	0	507	422	
8	0	0	0	0	507	422	
9	0	0	0	0	507	422	
10	0	0	0	0	507	422	
11	0	0	0	0	506	423	
12	0	0	0	0	507	423	
13	0	0	0	0	506	422	
14	0	0	0	0	506	422	
15	0	0	0	0	506	423	
0	0	0	0	0	506	423	
1	0	0	0	0	505	424	
2	0	0	0	0	505	424	
3	0	0	0	0	504	425	
4	0	0	0	0	504	424	
5	0	0	0	0	505	425	
6	0	0	0	0	504	424	
7	0	0	0	0	504	424	
8	0	0	0	0	504	424	
9	0	0	0	0	504	425	
10	0	0	0	0	504	425	
11	0	0	0	0	504	426	
12	0	0	0	0	504	427	
13	0	0	0	0	504	429	
14	0	0	0	0	505	431	
15	0	0	0	0	505	433	
0	0	0	0	0	504	433	
1	0	0	0	0	504	435	
2	0	0	0	0	504	435	
3	0	0	0	0	504	431	
4	0	0	0	0	505	427	
5	0	0	0	0	505	426	
6	0	0	0	0	506	427	
7	0	0	0	0	506	427	
8	0	0	0	0	506	425	
9	0	0	0	0	507	423	
10	0	0	0	0	507	424	
11	0	0	0	0	507	425	
12	0	0	0	0	507	425	
13	0	0	0	0	508	424	
14	0	0	0	0	508	423	
15	0	0	0	0	507	425	
0	0	0	0	0	507	424	
1	0	0	0	0	507	424	
2	0	0	0	0	507	425	
3	0	0	0	0	507	426	
4	0	0	0	0	506	425	
5	0	0	0	0	506	424	
6	0	0	0	0	506	424	
7	0	0	0	0	505	424	
8	0	0	0	0	505	423	
9	0	0	0	0	505	423	
10	0	0	0	0	506	422	
11	0	0	0	0	506	423	
12	0	0	0	0	506	424	
13	0	0	0	0	506	422	
14	0	0	0	0	507	423	
15	0	0	0	0	507	423	
0	0	0	0	0	507	423	
1	0	0	0	0	508	422	
2	0	0	0	0	508	423	
3	0	0	0	0	508	422	
4	0	0	0	0	509	422	
5	0	0	0	0	509	421	
6	0	0	0	0	509	421	
7	0	0	0	0	508	421	
8	0	0	0	0	508	421	
9	0	0	0	0	508	420	
10	0	0	0	0	508	419	
11	0	0	0	0	507	419	
12	0	0	0	0	507	419	
13	0	0	0	0	507	418	
14	0	0	0	0	507	418	
15	0	0	0	0	507	419	
0	0	0	0	0	507	419	
1	0	0	0	0	507	419	
2	0	0	0	0	506	419	
3	0	0	0	0	507	419	
4	0	0	0	0	507	419	
5	0	0	0	0	507	419	
6	0	0	0	0	507	418	
7	0	0	0	0	506	419	
8	0	0	0	0	506	419	
9	0	0	0	0	506	419	
10	0	0	0	0	506	419	
11	0	0	0	0	505	420	
12	0	0	0	0	505	420	
13	0	0	0	0	505	420	
14	0	0	0	0	505	420	
15	0	0	0	0	505	421	
0	0	0	0	0	505	421	
1	0	0	0	0	505	421	
2	0	0	0	0	505	421	
3	0	0	0	0	505	422	
4	0	0	0	0	504	422	
5	0	0	0	0	504	422	
6	0	0	0	0	504	422	
7	0	0	0	0	504	422	
8	0	0	0	0	504	422	
9	0	0	0	0	504	422	
10	0	0	0	0	503	422	
11	0	0	0	0	504	423	
12	0	0	0	0	504	423	
13	0	0	0	0	505	423	
14	0	0	0	0	505	423	
15	0	0	0	0	505	424	
0	0	0	0	0	506	424	
1	0	0	0	0	506	424	
2	0	0	0	0	506	423	
3	0	0	0	0	506	424	
4	0	0	0	0	505	424	
5	0	0	0	0	505	424	
6	0	0	0	0	505	424	
7	0	0	0	0	504	423	
8	0	0	0	0	504	424	
9	0	0	0	0	504	424	
10	0	0	0	0	504	424	
11	0	0	0	0	505	425	
12	0	0	0	0	505	425	
13	0	0	0	0	506	425	
14	0	0	0	0	506	424	
15	0	0	0	0	505	424	
0	0	0	0	0	505	424	
1	0	0	0	0	505	425	
2	0	0	0	0	505	425	
3	0	0	0	0	505	425	
4	0	0	0	0	504	425	
5	0	0	0	0	504	426	
6	0	0	0	0	504	425	
7	0	0	0	0	504	425	
8	0	0	0	0	504	425	
9	0	0	0	0	505	425	
10	0	0	0	0	505	426	
11	0	0	0	0	505	427	
12	0	0	0	0	506	426	
13	0	0	0	0	507	426	
14	0	0	0	0	507	425	
15	0	0	0	0	508	426	
0	0	0	0	0	508	425	
1	0	0	0	0	509	426	
2	0	0	0	0	509	425	
3	0	0	0	0	509	427	
4	0	0	0	0	509	427	
5	0	0	0	0	509	427	
6	0	0	0	0	509	426	
7	0	0	0	0	508	427	
8	0	0	0	0	508	426	
9	0	0	0	0	508	426	
10	0	0	0	0	508	426	
11	0	0	0	0	508	427	
12	0	0	0	0	508	426	
13	0	0	0	0	508	426	
14	0	0	0	0	508	426	
15	0	0	0	0	508	426	
0	0	0	0	0	508	427	
1	0	0	0	0	508	426	
2	0	0	0	0	508	426	
3	0	0	0	0	508	426	
4	0	0	0	0	508	425	
5	0	0	0	0	508	425	
6	0	0	0	0	508	425	
7	0	0	0	0	508	425	
8	0	0	0	0	508	424	
9	0	0	0	0	508	425	
10	0	0	0	0	508	424	
11	0	0	0	0	508	425	
12	0	0	0	0	508	424	
13	0	0	0	0	508	425	
14	0	0	0	0	508	425	
15	0	0	0	0	508	424	
0	0	0	0	0	508	424	
1	0	0	0	0	508	424	
2	0	0	0	0	508	424	
3	0	0	0	0	508	425	
4	0	0	0	0	509	425	
5	0	0	0	0	509	424	
6	0	0	0	0	509	425	
7	0	0	0	0	509	425	
8	0	0	0	0	510	425	
9	0	0	0	0	510	425	
10	0	0	0	0	510	425	
11	0	0	0	0	510	426	
12	0	0	0	0	509	424	
13	0	0	0	0	510	425	
14	0	0	0	0	510	425	
15	0	0	0	0	510	425	
0	0	0	0	0	510	425	
1	0	0	0	0	511	425	
2	0	0	0	0	511	424	
3	0	0	0	0	510	424	
4	0	0	0	0	510	424	
5	0	0	0	0	510	424	
6	0	0	0	0	510	423	
7	0	0	0	0	510	423	
8	0	0	0	0	509	424	
9	0	0	0	0	509	423	
10	0	0	0	0	508	423	
11	0	0	0	0	507	424	
12	0	0	0	0	507	423	
13	0	0	0	0	507	423	
14	0	0	0	0	508	423	
15	0	0	0	0	508	423	
0	0	0	0	0	508	422	
1	0	0	0	0	508	423	
2	0	0	0	0	508	422	
3	0	0	0	0	508	423	
4	0	0	0	0	508	423	
5	0	0	0	0	507	422	
6	0	0	0	0	508	422	
7	0	0	0	0	508	423	
8	0	0	0	0	509	423	
9	0	0	0	0	509	423	
10	0	0	0	0	510	423	
11	0	0	0	0	511	423	
12	0	0	0	0	511	422	
13	0	0	0	0	511	422	
14	0	0	0	0	510	423	
15	0	0	0	0	510	423	
0	0	0	0	0	510	423	
1	0	0	0	0	510	423	
2	0	0	0	0	510	423	
3	0	0	0	0	510	424	
4	0	0	0	0	511	423	
5	0	0	0	0	511	424	
6	0	0	0	0	511	424	
7	0	0	0	0	511	423	
8	0	0	0	0	510	424	
9	0	0	0	0	510	423	
10	0	0	0	0	510	423	
11	0	0	0	0	510	424	
12	0	0	0	0	510	423	
13	0	0	0	0	509	424	
14	0	0	0	0	510	424	
15	0	0	0	0	511	425	
0	0	0	0	0	511	425	
1	0	0	0	0	510	425	
2	0	0	0	0	510	425	
3	0	0	0	0	511	425	
4	0	0	0	0	511	424	
5	0	0	0	0	511	425	
6	0	0	0	0	511	425	
7	0	0	0	0	511	426	
8	0	0	0	0	512	426	
9	0	0	0	0	512	425	
10	0	0	0	0	512	426	
11	0	0	0	0	512	427	
12	0	0	0	0	512	426	
13	0	0	0	0	512	426	
14	0	0	0	0	512	426	
15	0	0	0	0	511	427	
0	0	0	0	0	512	427	
1	0	0	0	0	510	426	
2	0	0	0	0	511	427	
3	0	0	0	0	510	427	
4	0	0	0	0	509	427	
5	0	0	0	0	509	427	
6	0	0	0	0	508	427	
7	0	0	0	0	508	428	
8	0	0	0	0	508	427	
9	0	0	0	0	508	427	
10	0	0	0	0	508	428	
11	0	0	0	0	509	428	
12	0	0	0	0	509	428	
13	0	0	0	0	509	428	
14	0	0	0	0	509	428	
15	0	0	0	0	509	428	
0	0	0	0	0	508	428	
1	0	0	0	0	508	428	
2	0	0	0	0	508	427	
3	0	0	0	0	508	428	
4	0	0	0	0	508	428	
5	0	0	0	0	508	428	
6	0	0	0	0	508	428	
7	0	0	0	0	508	428	
8	0	0	0	0	508	428	
9	0	0	0	0	508	428	
10	0	0	0	0	508	428	
11	0	0	0	0	509	428	
12	0	0	0	0	509	427	
13	0	0	0	0	509	428	
14	0	0	0	0	509	428	
15	0	0	0	0	509	427	
0	0	0	0	0	509	427	
1	0	0	0	0	509	426	
2	0	0	0	0	509	425	
3	0	0	0	0	509	427	
4	0	0	0	0	509	427	
5	0	0	0	0	509	427	
6	0	0	0	0	509	427	
7	0	0	0	0	509	427	
8	0	0	0	0	509	427	
9	0	0	0	0	509	426	
10	0	0	0	0	509	426	
11	0	0	0	0	509	427	
12	0	0	0	0	508	427	
13	0	0	0	0	508	426	
14	0	0	0	0	508	427	
15	0	0	0	0	508	427	
0	0	0	0	0	507	426	
1	0	0	0	0	506	426	
2	0	0	0	0	506	426	
3	0	0	0	0	507	427	
4	0	0	0	0	506	426	
5	0	0	0	0	507	427	
6	0	0	0	0	506	426	
7	0	0	0	0	506	427	
8	0	0	0	0	507	427	
9	0	0	0	0	507	426	
10	0	0	0	0	507	427	
11	0	0	0	0	507	427	
12	0	0	0	0	507	426	
13	0	0	0	0	508	427	
14	0	0	0	0	509	427	
15	0	0	0	0	509	427	
0	0	0	0	0	509	427	
1	0	0	0	0	509	427	
2	0	0	0	0	509	427	
3	0	0	0	0	508	428	
4	0	0	0	0	509	427	
5	0	0	0	0	509	427	
6	0	0	0	0	509	426	
7	0	0	0	0	508	427	
8	0	0	0	0	508	426	
9	0	0	0	0	508	426	
10	0	0	0	0	508	426	
11	0	0	0	0	508	427	
12	0	0	0	0	508	426	
13	0	0	0	0	507	426	
14	0	0	0	0	507	426	
15	0	0	0	0	507	427	
0	0	0	0	0	506	426	
1	0	0	0	0	507	427	
2	0	0	0	0	506	427	
3	0	0	0	0	506	427	
4	0	0	0	0	505	427	
5	0	0	0	0	505	427	
6	0	0	0	0	505	427	
7	0	0	0	0	504	427	
8	0	0	0	0	503	427	
9	0	0	0	0	502	427	
10	0	0	0	0	500	426	
11	0	0	0	0	499	428	
12	0	0	0	0	498	427	
13	0	0	0	0	496	427	
14	0	0	0	0	494	427	
15	0	0	0	0	493	427	
0	0	0	0	0	492	427	
1	0	0	0	0	491	426	
2	0	0	0	0	492	427	
3	0	0	0	0	492	427	
4	0	0	0	0	491	427	
5	0	0	0	0	490	427	
6	0	0	0	0	489	427	
7	0	0	0	0	489	427	
8	0	0	0	0	490	427	
9	0	0	0	0	492	427	
10	0	0	0	0	495	427	
11	0	0	0	0	499	428	
12	0	0	0	0	505	427	
13	0	0	0	0	512	427	
14	0	0	0	0	519	427	
15	0	0	0	0	528	428	
0	0	0	0	0	538	427	
1	0	0	0	0	547	427	
2	0	0	0	0	558	427	
3	0	0	0	0	568	427	
4	0	0	0	0	579	427	
5	0	0	0	0	590	427	
6	0	0	0	0	600	427	
7	0	0	0	0	611	427	
8	0	0	0	0	622	427	
9	0	0	0	0	632	427	
10	0	0	0	0	642	427	
11	0	0	0	0	651	427	
12	0	0	0	0	659	427	
13	0	0	0	0	664	428	
14	0	0	0	0	668	428	
15	0	0	0	0	669	428	
0	0	0	0	0	669	428	
1	0	0	0	0	668	428	
2	0	0	0	0	663	427	
3	0	0	0	0	657	428	
4	0	0	0	0	649	428	
5	0	0	0	0	639	427	
6	0	0	0	0	627	428	
7	0	0	0	0	614	428	
8	0	0	0	0	601	428	
9	0	0	0	0	589	429	
10	0	0	0	0	576	428	
11	0	0	0	0	566	429	
12	0	0	0	0	554	428	
13	0	0	0	0	544	429	
14	0	0	0	0	535	429	
15	0	0	0	0	527	429	
0	0	0	0	0	519	429	
1	0	0	0	0	514	428	
2	0	0	0	0	509	428	
3	0	0	0	0	505	429	
4	0	0	0	0	501	428	
5	0	0	0	0	498	428	
6	0	0	0	0	495	428	
7	0	0	0	0	492	428	
8	0	0	0	0	489	428	
9	0	0	0	0	488	427	
10	0	0	0	0	486	427	
11	0	0	0	0	484	428	
12	0	0	0	0	483	428	
13	0	0	0	0	481	427	
14	0	0	0	0	479	427	
15	0	0	0	0	477	428	
0	0	0	0	0	475	428	
1	0	0	0	0	473	428	
2	0	0	0	0	471	428	
3	0	0	0	0	470	428	
4	0	0	0	0	468	428	
5	0	0	0	0	467	428	
6	0	0	0	0	465	428	
7	0	0	0	0	463	428	
8	0	0	0	0	462	427	
9	0	0	0	0	461	428	
10	0	0	0	0	460	428	
11	0	0	0	0	460	428	
12	0	0	0	0	459	427	
13	0	0	0	0	458	427	
14	0	0	0	0	458	427	
15	0	0	0	0	457	427	
0	0	0	0	0	457	427	
1	0	0	0	0	456	427	
2	0	0	0	0	455	426	
3	0	0	0	0	456	427	
4	0	0	0	0	455	427	
5	0	0	0	0	455	427	
6	0	0	0	0	455	427	
7	0	0	0	0	455	427	
8	0	0	0	0	455	427	
9	0	0	0	0	455	427	
10	0	0	0	0	455	427	
11	0	0	0	0	455	428	
12	0	0	0	0	455	426	
13	0	0	0	0	456	426	
14	0	0	0	0	456	427	
15	0	0	0	0	457	427	
0	0	0	0	0	456	427	
1	0	0	0	0	456	427	
2	0	0	0	0	456	427	
3	0	0	0	0	457	427	
4	0	0	0	0	457	427	
5	0	0	0	0	457	427	
6	0	0	0	0	458	427	
7	0	0	0	0	458	427	
8	0	0	0	0	459	427	
9	0	0	0	0	460	427	
10	0	0	0	0	460	428	
11	0	0	0	0	461	428	
12	0	0	0	0	462	428	
13	0	0	0	0	462	427	
14	0	0	0	0	463	427	
15	0	0	0	0	464	428	
0	0	0	0	0	464	428	
1	0	0	0	0	465	428	
2	0	0	0	0	466	429	
3	0	0	0	0	466	429	
4	0	0	0	0	467	428	
5	0	0	0	0	467	428	
6	0	0	0	0	468	428	
7	0	0	0	0	468	428	
8	0	0	0	0	468	428	
9	0	0	0	0	469	428	
10	0	0	0	0	469	428	
11	0	0	0	0	470	429	
12	0	0	0	0	471	428	
13	0	0	0	0	472	427	
14	0	0	0	0	473	428	
15	0	0	0	0	473	427	
0	0	0	0	0	475	428	
1	0	0	0	0	476	428	
2	0	0	0	0	476	427	
3	0	0	0	0	477	427	
4	0	0	0	0	478	427	
5	0	0	0	0	479	427	
6	0	0	0	0	479	426	
7	0	0	0	0	480	427	
8	0	0	0	0	480	426	
9	0	0	0	0	480	426	
10	0	0	0	0	480	427	
11	0	0	0	0	480	427	
12	0	0	0	0	480	427	
13	0	0	0	0	480	427	
14	0	0	0	0	480	427	
15	0	0	0	0	481	428	
0	0	0	0	0	481	427	
1	0	0	0	0	481	427	
2	0	0	0	0	481	427	
3	0	0	0	0	482	427	
4	0	0	0	0	482	426	
5	0	0	0	0	483	426	
6	0	0	0	0	483	425	
7	0	0	0	0	482	427	
8	0	0	0	0	483	425	
9	0	0	0	0	483	425	
10	0	0	0	0	483	426	
11	0	0	0	0	483	427	
12	0	0	0	0	483	426	
13	0	0	0	0	483	426	
14	0	0	0	0	483	426	
15	0	0	0	0	483	427	
0	0	0	0	0	484	425	
1	0	0	0	0	484	426	
2	0	0	0	0	485	426	
3	0	0	0	0	486	426	
4	0	0	0	0	486	425	
5	0	0	0	0	487	425	
6	0	0	0	0	488	425	
7	0	0	0	0	489	425	
8	0	0	0	0	490	425	
9	0	0	0	0	490	425	
10	0	0	0	0	490	425	
11	0	0	0	0	491	426	
12	0	0	0	0	491	425	
13	0	0	0	0	491	425	
14	0	0	0	0	491	425	
15	0	0	0	0	492	426	
0	0	0	0	0	492	425	
1	0	0	0	0	492	426	
2	0	0	0	0	492	425	
3	0	0	0	0	492	426	
4	0	0	0	0	493	425	
5	0	0	0	0	493	426	
6	0	0	0	0	494	425	
7	0	0	0	0	495	426	
8	0	0	0	0	495	425	
9	0	0	0	0	495	425	
10	0	0	0	0	496	425	
11	0	0	0	0	496	427	
12	0	0	0	0	497	426	
13	0	0	0	0	497	427	
14	0	0	0	0	497	426	
15	0	0	0	0	497	426	
0	0	0	0	0	497	426	
1	0	0	0	0	497	427	
2	0	0	0	0	497	427	
3	0	0	0	0	497	427	
4	0	0	0	0	498	427	
5	0	0	0	0	498	427	
6	0	0	0	0	498	427	
7	0	0	0	0	499	427	
8	0	0	0	0	499	427	
9	0	0	0	0	499	428	
10	0	0	0	0	499	427	
11	0	0	0	0	499	428	
12	0	0	0	0	500	427	
13	0	0	0	0	500	427	
14	0	0	0	0	500	428	
15	0	0	0	0	500	427	
0	0	0	0	0	501	426	
1	0	0	0	0	501	427	
2	0	0	0	0	502	427	
3	0	0	0	0	502	427	
4	0	0	0	0	503	426	
5	0	0	0	0	503	425	
6	0	0	0	0	504	427	
7	0	0	0	0	504	426	
8	0	0	0	0	504	426	
9	0	0	0	0	504	425	
10	0	0	0	0	504	426	
11	0	0	0	0	504	427	
12	0	0	0	0	504	427	
13	0	0	0	0	504	427	
14	0	0	0	0	505	427	
15	0	0	0	0	504	427	
0	0	0	0	0	504	427	
1	0	0	0	0	504	427	
2	0	0	0	0	505	426	
3	0	0	0	0	505	427	
4	0	0	0	0	505	426	
5	0	0	0	0	505	426	
6	0	0	0	0	505	426	
7	0	0	0	0	506	426	
8	0	0	0	0	506	426	
9	0	0	0	0	507	426	
10	0	0	0	0	507	425	
11	0	0	0	0	507	426	
12	0	0	0	0	507	425	
13	0	0	0	0	508	425	
14	0	0	0	0	508	425	
15	0	0	0	0	509	426	
0	0	0	0	0	510	426	
1	0	0	0	0	510	426	
2	0	0	0	0	511	425	
3	0	0	0	0	511	426	
4	0	0	0	0	512	426	
5	0	0	0	0	513	426	
6	0	0	0	0	514	425	
7	0	0	0	0	515	426	
8	0	0	0	0	515	425	
9	0	0	0	0	515	426	
10	0	0	0	0	516	426	
11	0	0	0	0	517	427	
12	0	0	0	0	517	427	
13	0	0	0	0	517	427	
14	0	0	0	0	517	425	
15	0	0	0	0	518	426	
0	0	0	0	0	518	425	
1	0	0	0	0	519	425	
2	0	0	0	0	519	426	
3	0	0	0	0	519	427	
4	0	0	0	0	520	426	
5	0	0	0	0	521	425	
6	0	0	0	0	521	426	
7	0	0	0	0	522	426	
8	0	0	0	0	522	426	
9	0	0	0	0	523	426	
10	0	0	0	0	524	426	
11	0	0	0	0	524	427	
12	0	0	0	0	525	426	
13	0	0	0	0	525	425	
14	0	0	0	0	525	425	
15	0	0	0	0	525	426	
0	0	0	0	0	525	426	
1	0	0	0	0	525	427	
2	0	0	0	0	525	426	
3	0	0	0	0	525	427	
4	0	0	0	0	525	426	
5	0	0	0	0	526	426	
6	0	0	0	0	525	425	
7	0	0	0	0	526	426	
8	0	0	0	0	526	425	
9	0	0	0	0	526	426	
10	0	0	0	0	527	425	
11	0	0	0	0	527	426	
12	0	0	0	0	527	425	
13	0	0	0	0	528	426	
14	0	0	0	0	527	426	
15	0	0	0	0	528	426	
0	0	0	0	0	527	425	
1	0	0	0	0	527	426	
2	0	0	0	0	527	426	
3	0	0	0	0	526	426	
4	0	0	0	0	526	426	
5	0	0	0	0	526	426	
6	0	0	0	0	527	426	
7	0	0	0	0	526	426	
8	0	0	0	0	527	426	
9	0	0	0	0	527	426	
10	0	0	0	0	527	426	
11	0	0	0	0	527	427	
12	0	0	0	0	527	427	
13	0	0	0	0	527	426	
14	0	0	0	0	526	427	
15	0	0	0	0	525	427	
0	0	0	0	0	525	427	
1	0	0	0	0	524	427	
2	0	0	0	0	524	426	
3	0	0	0	0	524	427	
4	0	0	0	0	522	427	
5	0	0	0	0	522	427	
6	0	0	0	0	521	427	
7	0	0	0	0	520	428	
8	0	0	0	0	520	427	
9	0	0	0	0	519	427	
10	0	0	0	0	519	427	
11	0	0	0	0	518	428	
12	0	0	0	0	516	427	
13	0	0	0	0	515	428	
14	0	0	0	0	514	427	
15	0	0	0	0	513	427	
0	0	0	0	0	513	428	
1	0	0	0	0	512	428	
2	0	0	0	0	511	428	
3	0	0	0	0	511	428	
4	0	0	0	0	511	427	
5	0	0	0	0	511	428	
6	0	0	0	0	510	427	
7	0	0	0	0	509	427	
8	0	0	0	0	509	427	
9	0	0	0	0	508	426	
10	0	0	0	0	508	427	
11	0	0	0	0	508	427	
12	0	0	0	0	507	427	
13	0	0	0	0	506	427	
14	0	0	0	0	505	426	
15	0	0	0	0	505	427	
0	0	0	0	0	505	426	
1	0	0	0	0	505	426	
2	0	0	0	0	505	426	
3	0	0	0	0	505	427	
4	0	0	0	0	505	426	
5	0	0	0	0	505	427	
6	0	0	0	0	504	426	
7	0	0	0	0	504	425	
8	0	0	0	0	504	425	
9	0	0	0	0	505	426	
10	0	0	0	0	504	426	
11	0	0	0	0	504	426	
12	0	0	0	0	504	426	
13	0	0	0	0	504	426	
14	0	0	0	0	505	426	
15	0	0	0	0	505	426	
0	0	0	0	0	506	426	
1	0	0	0	0	506	426	
2	0	0	0	0	506	426	
3	0	0	0	0	505	426	
4	0	0	0	0	506	425	
5	0	0	0	0	507	425	
6	0	0	0	0	507	425	
7	0	0	0	0	507	425	
8	0	0	0	0	507	424	
9	0	0	0	0	507	424	
10	0	0	0	0	507	424	
11	0	0	0	0	507	425	
12	0	0	0	0	507	425	
13	0	0	0	0	508	424	
14	0	0	0	0	507	424	
15	0	0	0	0	507	425	
0	0	0	0	0	507	424	
1	0	0	0	0	507	424	
2	0	0	0	0	506	424	
3	0	0	0	0	507	425	
4	0	0	0	0	507	423	
5	0	0	0	0	507	424	
6	0	0	0	0	508	424	
7	0	0	0	0	508	424	
8	0	0	0	0	508	423	
9	0	0	0	0	508	423	
10	0	0	0	0	508	423	
11	0	0	0	0	508	423	
12	0	0	0	0	508	423	
13	0	0	0	0	508	423	
14	0	0	0	0	508	422	
15	0	0	0	0	508	423	
0	0	0	0	0	508	423	
1	0	0	0	0	508	422	
2	0	0	0	0	508	422	
3	0	0	0	0	509	423	
4	0	0	0	0	508	422	
5	0	0	0	0	509	423	
6	0	0	0	0	509	422	
7	0	0	0	0	509	423	
8	0	0	0	0	509	423	
9	0	0	0	0	509	422	
10	0	0	0	0	509	423	
11	0	0	0	0	509	423	
12	0	0	0	0	509	423	
13	0	0	0	0	509	423	
14	0	0	0	0	509	423	
15	0	0	0	0	509	423	
0	0	0	0	0	508	423	
1	0	0	0	0	508	423	
2	0	0	0	0	508	423	
3	0	0	0	0	508	423	
4	0	0	0	0	508	423	
5	0	0	0	0	508	422	
6	0	0	0	0	508	423	
7	0	0	0	0	508	423	
8	0	0	0	0	508	423	
9	0	0	0	0	509	423	
10	0	0	0	0	509	423	
11	0	0	0	0	509	423	
12	0	0	0	0	510	423	
13	0	0	0	0	510	424	
14	0	0	0	0	510	424	
15	0	0	0	0	510	424	
0	0	0	0	0	510	423	
1	0	0	0	0	509	423	
2	0	0	0	0	510	424	
3	0	0	0	0	510	424	
4	0	0	0	0	510	424	
5	0	0	0	0	510	424	
6	0	0	0	0	510	424	
7	0	0	0	0	511	424	
8	0	0	0	0	510	424	
9	0	0	0	0	510	424	
10	0	0	0	0	509	424	
11	0	0	0	0	509	425	
12	0	0	0	0	510	424	
13	0	0	0	0	510	424	
14	0	0	0	0	510	424	
15	0	0	0	0	511	425	
0	0	0	0	0	511	424	
1	0	0	0	0	511	425	
2	0	0	0	0	511	424	
3	0	0	0	0	512	425	
4	0	0	0	0	511	424	
5	0	0	0	0	511	425	
6	0	0	0	0	511	424	
7	0	0	0	0	511	425	
8	0	0	0	0	511	425	
9	0	0	0	0	511	425	
10	0	0	0	0	511	425	
11	0	0	0	0	512	425	
12	0	0	0	0	511	425	
13	0	0	0	0	512	425	
14	0	0	0	0	512	425	
15	0	0	0	0	512	426	
0	0	0	0	0	512	425	
1	0	0	0	0	512	425	
2	0	0	0	0	512	425	
3	0	0	0	0	513	427	
4	0	0	0	0	513	426	
5	0	0	0	0	513	426	
6	0	0	0	0	513	426	
7	0	0	0	0	513	426	
8	0	0	0	0	514	426	
9	0	0	0	0	513	426	
10	0	0	0	0	513	426	
11	0	0	0	0	513	426	
12	0	0	0	0	513	426	
13	0	0	0	0	513	426	
14	0	0	0	0	513	426	
15	0	0	0	0	514	426	
0	0	0	0	0	513	427	
1	0	0	0	0	514	426	
2	0	0	0	0	514	426	
3	0	0	0	0	514	427	
4	0	0	0	0	514	426	
5	0	0	0	0	513	426	
6	0	0	0	0	514	426	
7	0	0	0	0	514	426	
8	0	0	0	0	514	426	
9	0	0	0	0	515	427	
10	0	0	0	0	515	427	
11	0	0	0	0	516	427	
12	0	0	0	0	516	427	
13	0	0	0	0	516	427	
14	0	0	0	0	517	427	
15	0	0	0	0	518	427	
0	0	0	0	0	518	428	
1	0	0	0	0	518	428	
2	0	0	0	0	518	427	
3	0	0	0	0	519	428	
4	0	0	0	0	519	427	
5	0	0	0	0	519	428	
6	0	0	0	0	518	428	
7	0	0	0	0	518	428	
8	0	0	0	0	517	427	
9	0	0	0	0	516	427	
10	0	0	0	0	516	428	
11	0	0	0	0	516	428	
12	0	0	0	0	516	427	
13	0	0	0	0	516	427	
14	0	0	0	0	516	427	
15	0	0	0	0	516	427	
0	0	0	0	0	516	428	
1	0	0	0	0	515	428	
2	0	0	0	0	516	428	
3	0	0	0	0	516	429	
4	0	0	0	0	516	427	
5	0	0	0	0	515	428	
6	0	0	0	0	515	428	
7	0	0	0	0	515	428	
8	0	0	0	0	515	428	
9	0	0	0	0	515	428	
10	0	0	0	0	516	428	
11	0	0	0	0	515	429	
12	0	0	0	0	515	428	
13	0	0	0	0	516	428	
14	0	0	0	0	516	428	
15	0	0	0	0	515	428	
0	0	0	0	0	516	429	
1	0	0	0	0	516	429	
2	0	0	0	0	515	429	
3	0	0	0	0	515	429	
4	0	0	0	0	515	429	
5	0	0	0	0	515	428	
6	0	0	0	0	515	428	
7	0	0	0	0	515	429	
8	0	0	0	0	515	428	
9	0	0	0	0	516	428	
10	0	0	0	0	516	428	
11	0	0	0	0	517	429	
12	0	0	0	0	516	428	
13	0	0	0	0	516	428	
14	0	0	0	0	517	428	
15	0	0	0	0	517	428	
0	0	0	0	0	517	429	
1	0	0	0	0	517	429	
2	0	0	0	0	517	429	
3	0	0	0	0	518	429	
4	0	0	0	0	519	429	
5	0	0	0	0	519	429	
6	0	0	0	0	519	429	
7	0	0	0	0	519	430	
8	0	0	0	0	519	429	
9	0	0	0	0	519	429	
10	0	0	0	0	518	430	
11	0	0	0	0	518	430	
12	0	0	0	0	518	430	
13	0	0	0	0	518	430	
14	0	0	0	0	518	429	
15	0	0	0	0	518	430	
0	0	0	0	0	518	430	
1	0	0	0	0	517	430	
2	0	0	0	0	517	430	
3	0	0	0	0	517	430	
4	0	0	0	0	517	430	
5	0	0	0	0	518	430	
6	0	0	0	0	518	429	
7	0	0	0	0	518	430	
8	0	0	0	0	518	429	
9	0	0	0	0	518	430	
10	0	0	0	0	518	430	
11	0	0	0	0	518	431	
12	0	0	0	0	517	429	
13	0	0	0	0	518	429	
14	0	0	0	0	518	429	
15	0	0	0	0	518	430	
0	0	0	0	0	518	429	
1	0	0	0	0	518	429	
2	0	0	0	0	518	429	
3	0	0	0	0	518	428	
4	0	0	0	0	518	428	
5	0	0	0	0	519	428	
6	0	0	0	0	519	429	
7	0	0	0	0	519	429	
8	0	0	0	0	519	428	
9	0	0	0	0	519	429	
10	0	0	0	0	519	428	
11	0	0	0	0	519	429	
12	0	0	0	0	519	428	
13	0	0	0	0	520	428	
14	0	0	0	0	520	428	
15	0	0	0	0	520	428	
0	0	0	0	0	519	428	
1	0	0	0	0	519	428	
2	0	0	0	0	519	427	
3	0	0	0	0	518	428	
4	0	0	0	0	518	427	
5	0	0	0	0	517	427	
6	0	0	0	0	517	427	
7	0	0	0	0	517	427	
8	0	0	0	0	516	427	
9	0	0	0	0	516	427	
10	0	0	0	0	515	427	
11	0	0	0	0	515	427	
12	0	0	0	0	515	427	
13	0	0	0	0	516	427	
14	0	0	0	0	517	427	
15	0	0	0	0	516	427	
0	0	0	0	0	516	427	
1	0	0	0	0	515	428	
2	0	0	0	0	515	427	
3	0	0	0	0	515	428	
4	0	0	0	0	515	427	
5	0	0	0	0	515	427	
6	0	0	0	0	514	428	
7	0	0	0	0	514	428	
8	0	0	0	0	514	427	
9	0	0	0	0	515	427	
10	0	0	0	0	515	427	
11	0	0	0	0	515	427	
12	0	0	0	0	515	427	
13	0	0	0	0	515	427	
14	0	0	0	0	515	427	
15	0	0	0	0	515	428	
0	0	0	0	0	516	427	
1	0	0	0	0	516	427	
2	0	0	0	0	516	426	
3	0	0	0	0	517	427	
4	0	0	0	0	518	427	
5	0	0	0	0	518	427	
6	0	0	0	0	519	427	
7	0	0	0	0	519	427	
8	0	0	0	0	519	426	
9	0	0	0	0	519	426	
10	0	0	0	0	518	426	
11	0	0	0	0	518	427	
12	0	0	0	0	518	427	
13	0	0	0	0	518	426	
14	0	0	0	0	517	426	
15	0	0	0	0	517	427	
0	0	0	0	0	516	426	
1	0	0	0	0	516	426	
2	0	0	0	0	515	427	
3	0	0	0	0	515	427	
4	0	0	0	0	515	427	
5	0	0	0	0	515	426	
6	0	0	0	0	515	426	
7	0	0	0	0	515	427	
8	0	0	0	0	515	426	
9	0	0	0	0	515	426	
10	0	0	0	0	514	425	
11	0	0	0	0	515	427	
12	0	0	0	0	515	425	
13	0	0	0	0	514	426	
14	0	0	0	0	514	426	
15	0	0	0	0	514	426	
0	0	0	0	0	515	426	
1	0	0	0	0	515	426	
2	0	0	0	0	515	425	
3	0	0	0	0	515	427	
4	0	0	0	0	515	425	
5	0	0	0	0	514	426	
6	0	0	0	0	514	426	
7	0	0	0	0	514	426	
8	0	0	0	0	514	425	
9	0	0	0	0	514	425	
10	0	0	0	0	514	426	
11	0	0	0	0	514	427	
12	0	0	0	0	514	426	
13	0	0	0	0	514	425	
14	0	0	0	0	514	426	
15	0	0	0	0	514	426	
0	0	0	0	0	514	426	
1	0	0	0	0	513	427	
2	0	0	0	0	513	426	
3	0	0	0	0	513	427	
4	0	0	0	0	513	426	
5	0	0	0	0	513	426	
6	0	0	0	0	513	427	
7	0	0	0	0	514	427	
8	0	0	0	0	513	427	
9	0	0	0	0	513	426	
10	0	0	0	0	513	427	
11	0	0	0	0	513	427	
12	0	0	0	0	513	427	
13	0	0	0	0	514	428	
14	0	0	0	0	514	427	
15	0	0	0	0	514	427	
0	0	0	0	0	515	427	
1	0	0	0	0	515	427	
2	0	0	0	0	514	427	
3	0	0	0	0	514	427	
4	0	0	0	0	514	427	
5	0	0	0	0	514	427	
6	0	0	0	0	514	427	
7	0	0	0	0	514	427	
8	0	0	0	0	514	427	
9	0	0	0	0	514	427	
10	0	0	0	0	514	427	
11	0	0	0	0	513	427	
12	0	0	0	0	513	427	
13	0	0	0	0	513	426	
14	0	0	0	0	513	427	
15	0	0	0	0	513	426	
0	0	0	0	0	513	425	
1	0	0	0	0	513	425	
2	0	0	0	0	514	425	
3	0	0	0	0	514	425	
4	0	0	0	0	515	426	
5	0	0	0	0	515	425	
6	0	0	0	0	515	425	
7	0	0	0	0	515	425	
8	0	0	0	0	514	425	
9	0	0	0	0	514	425	
10	0	0	0	0	513	425	
11	0	0	0	0	513	425	
12	0	0	0	0	513	424	
13	0	0	0	0	512	425	
14	0	0	0	0	512	425	
15	0	0	0	0	512	426	
0	0	0	0	0	512	425	
1	0	0	0	0	512	425	
2	0	0	0	0	511	425	
3	0	0	0	0	511	426	
4	0	0	0	0	511	425	
5	0	0	0	0	511	425	
6	0	0	0	0	511	425	
7	0	0	0	0	511	425	
8	0	0	0	0	511	425	
9	0	0	0	0	511	425	
10	0	0	0	0	511	425	
11	0	0	0	0	511	426	
12	0	0	0	0	511	425	
13	0	0	0	0	510	425	
14	0	0	0	0	510	425	
15	0	0	0	0	511	425	
0	0	0	0	0	511	425	
1	0	0	0	0	511	425	
2	0	0	0	0	511	425	
3	0	0	0	0	511	426	
4	0	0	0	0	511	425	
5	0	0	0	0	511	425	
6	0	0	0	0	511	425	
7	0	0	0	0	512	425	
8	0	0	0	0	511	425	
9	0	0	0	0	512	425	
10	0	0	0	0	511	424	
11	0	0	0	0	512	425	
12	0	0	0	0	512	425	
13	0	0	0	0	511	424	
14	0	0	0	0	512	425	
15	0	0	0	0	511	425	
0	0	0	0	0	511	425	
1	0	0	0	0	511	425	
2	0	0	0	0	511	425	
3	0	0	0	0	511	425	
4	0	0	0	0	511	425	
5	0	0	0	0	511	426	
6	0	0	0	0	511	426	
7	0	0	0	0	511	426	
8	0	0	0	0	511	425	
9	0	0	0	0	511	425	
10	0	0	0	0	511	425	
11	0	0	0	0	511	426	
12	0	0	0	0	511	426	
13	0	0	0	0	511	426	
14	0	0	0	0	511	426	
15	0	0	0	0	511	425	
0	0	0	0	0	511	425	
1	0	0	0	0	510	426	
2	0	0	0	0	511	426	
3	0	0	0	0	511	427	
4	0	0	0	0	511	426	
5	0	0	0	0	511	426	
6	0	0	0	0	511	426	
7	0	0	0	0	511	425	
8	0	0	0	0	511	426	
9	0	0	0	0	511	426	
10	0	0	0	0	511	426	
11	0	0	0	0	511	426	
12	0	0	0	0	511	426	
13	0	0	0	0	510	425	
14	0	0	0	0	510	425	
15	0	0	0	0	510	426	
0	0	0	0	0	511	426	
1	0	0	0	0	512	425	
2	0	0	0	0	512	425	
3	0	0	0	0	511	426	
4	0	0	0	0	511	425	
5	0	0	0	0	511	425	
6	0	0	0	0	511	425	
7	0	0	0	0	511	425	
8	0	0	0	0	511	425	
9	0	0	0	0	511	425	
10	0	0	0	0	512	424	
11	0	0	0	0	512	425	
12	0	0	0	0	512	425	
13	0	0	0	0	513	425	
14	0	0	0	0	514	425	
15	0	0	0	0	515	425	
0	0	0	0	0	515	425	
1	0	0	0	0	516	425	
2	0	0	0	0	516	426	
3	0	0	0	0	516	427	
4	0	0	0	0	516	426	
5	0	0	0	0	516	426	
6	0	0	0	0	516	426	
7	0	0	0	0	515	427	
8	0	0	0	0	515	426	
9	0	0	0	0	515	427	
10	0	0	0	0	514	426	
11	0	0	0	0	513	427	
12	0	0	0	0	514	427	
13	0	0	0	0	514	427	
14	0	0	0	0	514	427	
15	0	0	0	0	514	427	
0	0	0	0	0	514	427	
1	0	0	0	0	514	427	
2	0	0	0	0	514	427	
3	0	0	0	0	513	427	
4	0	0	0	0	512	427	
5	0	0	0	0	512	427	
6	0	0	0	0	512	427	
7	0	0	0	0	512	427	
8	0	0	0	0	512	428	
9	0	0	0	0	512	427	
10	0	0	0	0	512	427	
11	0	0	0	0	512	428	
12	0	0	0	0	512	428	
13	0	0	0	0	512	428	
14	0	0	0	0	512	427	
15	0	0	0	0	512	427	
0	0	0	0	0	512	427	
1	0	0	0	0	512	427	
2	0	0	0	0	511	428	
3	0	0	0	0	511	428	
4	0	0	0	0	510	428	
5	0	0	0	0	510	427	
6	0	0	0	0	509	427	
7	0	0	0	0	509	428	
8	0	0	0	0	508	428	
9	0	0	0	0	508	428	
10	0	0	0	0	508	428	
11	0	0	0	0	508	428	
12	0	0	0	0	509	428	
13	0	0	0	0	508	428	
14	0	0	0	0	508	428	
15	0	0	0	0	509	428	
0	0	0	0	0	509	428	
1	0	0	0	0	509	428	
2	0	0	0	0	509	429	
3	0	0	0	0	509	429	
4	0	0	0	0	509	428	
5	0	0	0	0	510	428	
6	0	0	0	0	510	428	
7	0	0	0	0	511	429	
8	0	0	0	0	511	428	
9	0	0	0	0	511	428	
10	0	0	0	0	511	428	
11	0	0	0	0	511	429	
12	0	0	0	0	511	428	
13	0	0	0	0	511	429	
14	0	0	0	0	511	428	
15	0	0	0	0	511	428	
0	0	0	0	0	511	428	
1	0	0	0	0	511	428	
2	0	0	0	0	511	428	
3	0	0	0	0	511	428	
4	0	0	0	0	510	427	
5	0	0	0	0	510	429	
6	0	0	0	0	510	428	
7	0	0	0	0	510	428	
8	0	0	0	0	510	428	
9	0	0	0	0	510	428	
10	0	0	0	0	509	428	
11	0	0	0	0	509	428	
12	0	0	0	0	509	427	
13	0	0	0	0	509	427	
14	0	0	0	0	509	427	
15	0	0	0	0	509	427	
0	0	0	0	0	509	427	
1	0	0	0	0	509	426	
2	0	0	0	0	509	426	
3	0	0	0	0	509	427	
4	0	0	0	0	510	425	
5	0	0	0	0	509	426	
6	0	0	0	0	509	425	
7	0	0	0	0	509	425	
8	0	0	0	0	509	425	
9	0	0	0	0	509	426	
10	0	0	0	0	508	426	
11	0	0	0	0	509	427	
12	0	0	0	0	509	426	
13	0	0	0	0	509	426	
14	0	0	0	0	509	427	
15	0	0	0	0	509	427	
0	0	0	0	0	510	428	
1	0	0	0	0	510	426	
2	0	0	0	0	510	427	
3	0	0	0	0	510	428	
4	0	0	0	0	511	427	
5	0	0	0	0	511	428	
6	0	0	0	0	511	427	
7	0	0	0	0	511	428	
8	0	0	0	0	511	428	
9	0	0	0	0	511	428	
10	0	0	0	0	511	428	
11	0	0	0	0	512	429	
12	0	0	0	0	512	428	
13	0	0	0	0	511	428	
14	0	0	0	0	511	428	
15	0	0	0	0	511	428	
0	0	0	0	0	510	428	
1	0	0	0	0	510	428	
2	0	0	0	0	508	427	
3	0	0	0	0	508	428	
4	0	0	0	0	509	428	
5	0	0	0	0	509	428	
6	0	0	0	0	509	427	
7	0	0	0	0	508	428	
8	0	0	0	0	506	427	
9	0	0	0	0	505	427	
10	0	0	0	0	504	427	
11	0	0	0	0	503	427	
12	0	0	0	0	501	426	
13	0	0	0	0	500	427	
14	0	0	0	0	499	427	
15	0	0	0	0	497	427	
0	0	0	0	0	496	427	
1	0	0	0	0	494	427	
2	0	0	0	0	493	426	
3	0	0	0	0	493	428	
4	0	0	0	0	493	427	
5	0	0	0	0	493	427	
6	0	0	0	0	492	427	
7	0	0	0	0	492	427	
8	0	0	0	0	493	426	
9	0	0	0	0	494	427	
10	0	0	0	0	496	426	
11	0	0	0	0	498	427	
12	0	0	0	0	502	427	
13	0	0	0	0	508	427	
14	0	0	0	0	514	427	
15	0	0	0	0	521	427	
0	0	0	0	0	529	427	
1	0	0	0	0	539	427	
2	0	0	0	0	548	426	
3	0	0	0	0	558	427	
4	0	0	0	0	568	427	
5	0	0	0	0	578	427	
6	0	0	0	0	588	425	
7	0	0	0	0	598	426	
8	0	0	0	0	608	426	
9	0	0	0	0	618	426	
10	0	0	0	0	628	425	
11	0	0	0	0	638	427	
12	0	0	0	0	647	426	
13	0	0	0	0	654	426	
14	0	0	0	0	660	427	
15	0	0	0	0	664	426	
0	0	0	0	0	665	426	
1	0	0	0	0	665	425	
2	0	0	0	0	664	425	
3	0	0	0	0	661	426	
4	0	0	0	0	655	425	
5	0	0	0	0	648	426	
6	0	0	0	0	639	425	
7	0	0	0	0	628	426	
8	0	0	0	0	616	425	
9	0	0	0	0	604	425	
10	0	0	0	0	592	425	
11	0	0	0	0	581	426	
12	0	0	0	0	569	425	
13	0	0	0	0	558	425	
14	0	0	0	0	549	426	
15	0	0	0	0	540	426	
0	0	0	0	0	532	426	
1	0	0	0	0	526	426	
2	0	0	0	0	519	425	
3	0	0	0	0	515	426	
4	0	0	0	0	511	425	
5	0	0	0	0	508	425	
6	0	0	0	0	505	425	
7	0	0	0	0	502	425	
8	0	0	0	0	499	426	
9	0	0	0	0	496	425	
10	0	0	0	0	494	425	
11	0	0	0	0	492	426	
12	0	0	0	0	491	425	
13	0	0	0	0	489	425	
14	0	0	0	0	487	425	
15	0	0	0	0	486	426	
0	0	0	0	0	485	425	
1	0	0	0	0	484	426	
2	0	0	0	0	483	425	
3	0	0	0	0	482	426	
4	0	0	0	0	481	426	
5	0	0	0	0	480	426	
6	0	0	0	0	479	425	
7	0	0	0	0	479	425	
8	0	0	0	0	479	426	
9	0	0	0	0	478	425	
10	0	0	0	0	478	426	
11	0	0	0	0	478	427	
12	0	0	0	0	478	426	
13	0	0	0	0	477	426	
14	0	0	0	0	477	426	
15	0	0	0	0	477	427	
0	0	0	0	0	478	426	
1	0	0	0	0	477	427	
2	0	0	0	0	477	426	
3	0	0	0	0	477	427	
4	0	0	0	0	476	427	
5	0	0	0	0	477	427	
6	0	0	0	0	477	427	
7	0	0	0	0	476	427	
8	0	0	0	0	477	427	
9	0	0	0	0	477	426	
10	0	0	0	0	478	426	
11	0	0	0	0	478	427	
12	0	0	0	0	479	425	
13	0	0	0	0	479	425	
14	0	0	0	0	479	424	
15	0	0	0	0	480	426	
0	0	0	0	0	480	425	
1	0	0	0	0	480	425	
2	0	0	0	0	480	425	
3	0	0	0	0	481	426	
4	0	0	0	0	481	426	
5	0	0	0	0	482	425	
6	0	0	0	0	482	426	
7	0	0	0	0	482	427	
8	0	0	0	0	482	427	
9	0	0	0	0	483	428	
10	0	0	0	0	483	427	
11	0	0	0	0	483	428	
12	0	0	0	0	483	427	
13	0	0	0	0	484	428	
14	0	0	0	0	485	428	
15	0	0	0	0	486	427	
0	0	0	0	0	486	428	
1	0	0	0	0	486	428	
2	0	0	0	0	486	426	
3	0	0	0	0	486	428	
4	0	0	0	0	487	426	
5	0	0	0	0	487	427	
6	0	0	0	0	488	427	
7	0	0	0	0	489	427	
8	0	0	0	0	489	427	
9	0	0	0	0	489	427	
10	0	0	0	0	489	427	
11	0	0	0	0	489	427	
12	0	0	0	0	489	427	
13	0	0	0	0	489	427	
14	0	0	0	0	490	427	
15	0	0	0	0	491	427	
0	0	0	0	0	491	428	
1	0	0	0	0	492	427	
2	0	0	0	0	492	426	
3	0	0	0	0	493	428	
4	0	0	0	0	492	427	
5	0	0	0	0	492	427	
6	0	0	0	0	492	427	
7	0	0	0	0	492	428	
8	0	0	0	0	493	427	
9	0	0	0	0	492	427	
10	0	0	0	0	492	427	
11	0	0	0	0	492	428	
12	0	0	0	0	492	427	
13	0	0	0	0	492	428	
14	0	0	0	0	493	427	
15	0	0	0	0	493	427	
0	0	0	0	0	493	427	
1	0	0	0	0	493	427	
2	0	0	0	0	493	427	
3	0	0	0	0	494	427	
4	0	0	0	0	494	427	
5	0	0	0	0	494	427	
6	0	0	0	0	494	427	
7	0	0	0	0	495	428	
8	0	0	0	0	495	427	
9	0	0	0	0	496	427	
10	0	0	0	0	497	427	
11	0	0	0	0	497	429	
12	0	0	0	0	498	427	
13	0	0	0	0	497	428	
14	0	0	0	0	497	428	
15	0	0	0	0	498	428	
0	0	0	0	0	498	428	
1	0	0	0	0	498	428	
2	0	0	0	0	498	427	
3	0	0	0	0	499	428	
4	0	0	0	0	499	428	
5	0	0	0	0	499	429	
6	0	0	0	0	499	428	
7	0	0	0	0	500	428	
8	0	0	0	0	500	427	
9	0	0	0	0	500	427	
10	0	0	0	0	501	427	
11	0	0	0	0	501	428	
12	0	0	0	0	501	426	
13	0	0	0	0	501	426	
14	0	0	0	0	501	427	
15	0	0	0	0	501	427	
0	0	0	0	0	500	427	
1	0	0	0	0	500	426	
2	0	0	0	0	500	426	
3	0	0	0	0	500	428	
4	0	0	0	0	500	427	
5	0	0	0	0	501	428	
6	0	0	0	0	501	427	
7	0	0	0	0	501	428	
8	0	0	0	0	502	428	
9	0	0	0	0	502	428	
10	0	0	0	0	502	428	
11	0	0	0	0	502	429	
12	0	0	0	0	502	428	
13	0	0	0	0	502	428	
14	0	0	0	0	502	428	
15	0	0	0	0	503	428	
0	0	0	0	0	503	428	
1	0	0	0	0	503	428	
2	0	0	0	0	503	428	
3	0	0	0	0	503	428	
4	0	0	0	0	503	427	
5	0	0	0	0	502	428	
6	0	0	0	0	503	428	
7	0	0	0	0	504	428	
8	0	0	0	0	504	428	
9	0	0	0	0	505	428	
10	0	0	0	0	505	427	
11	0	0	0	0	506	428	
12	0	0	0	0	506	428	
13	0	0	0	0	508	427	
14	0	0	0	0	508	428	
15	0	0	0	0	508	428	
0	0	0	0	0	508	428	
1	0	0	0	0	507	428	
2	0	0	0	0	508	428	
3	0	0	0	0	508	429	
4	0	0	0	0	508	427	
5	0	0	0	0	508	428	
6	0	0	0	0	508	428	
7	0	0	0	0	508	428	
8	0	0	0	0	508	428	
9	0	0	0	0	509	428	
10	0	0	0	0	510	427	
11	0	0	0	0	510	429	
12	0	0	0	0	511	428	
13	0	0	0	0	511	428	
14	0	0	0	0	511	428	
15	0	0	0	0	511	429	
0	0	0	0	0	511	428	
1	0	0	0	0	511	429	
2	0	0	0	0	511	429	
3	0	0	0	0	510	429	
4	0	0	0	0	510	429	
5	0	0	0	0	510	428	
6	0	0	0	0	511	428	
7	0	0	0	0	511	428	
8	0	0	0	0	511	428	
9	0	0	0	0	511	428	
10	0	0	0	0	511	428	
11	0	0	0	0	511	428	
12	0	0	0	0	511	428	
13	0	0	0	0	511	428	
14	0	0	0	0	512	428	
15	0	0	0	0	512	428	
0	0	0	0	0	512	427	
1	0	0	0	0	513	428	
2	0	0	0	0	513	427	
3	0	0	0	0	514	428	
4	0	0	0	0	514	428	
5	0	0	0	0	515	428	
6	0	0	0	0	516	428	
7	0	0	0	0	516	428	
8	0	0	0	0	516	429	
9	0	0	0	0	516	428	
10	0	0	0	0	517	428	
11	0	0	0	0	516	430	
12	0	0	0	0	516	428	
13	0	0	0	0	517	428	
14	0	0	0	0	517	428	
15	0	0	0	0	517	429	
0	0	0	0	0	517	428	
1	0	0	0	0	518	428	
2	0	0	0	0	518	428	
3	0	0	0	0	519	429	
4	0	0	0	0	519	428	
5	0	0	0	0	520	428	
6	0	0	0	0	521	428	
7	0	0	0	0	521	428	
8	0	0	0	0	522	428	
9	0	0	0	0	522	428	
10	0	0	0	0	521	428	
11	0	0	0	0	521	428	
12	0	0	0	0	522	427	
13	0	0	0	0	523	427	
14	0	0	0	0	524	426	
15	0	0	0	0	524	427	
0	0	0	0	0	524	427	
1	0	0	0	0	524	427	
2	0	0	0	0	524	426	
3	0	0	0	0	524	427	
4	0	0	0	0	524	426	
5	0	0	0	0	525	427	
6	0	0	0	0	525	427	
7	0	0	0	0	525	426	
8	0	0	0	0	525	426	
9	0	0	0	0	526	426	
10	0	0	0	0	526	426	
11	0	0	0	0	526	427	
12	0	0	0	0	526	427	
13	0	0	0	0	526	427	
14	0	0	0	0	526	427	
15	0	0	0	0	526	427	
0	0	0	0	0	526	427	
1	0	0	0	0	527	427	
2	0	0	0	0	526	427	
3	0	0	0	0	527	428	
4	0	0	0	0	526	427	
5	0	0	0	0	526	427	
6	0	0	0	0	526	427	
7	0	0	0	0	526	427	
8	0	0	0	0	526	427	
9	0	0	0	0	526	427	
10	0	0	0	0	526	427	
11	0	0	0	0	526	428	
12	0	0	0	0	525	427	
13	0	0	0	0	525	427	
14	0	0	0	0	525	428	
15	0	0	0	0	524	427	
0	0	0	0	0	524	427	
1	0	0	0	0	523	428	
2	0	0	0	0	523	427	
3	0	0	0	0	523	427	
4	0	0	0	0	522	427	
5	0	0	0	0	521	428	
6	0	0	0	0	521	428	
7	0	0	0	0	520	428	
8	0	0	0	0	519	427	
9	0	0	0	0	519	427	
10	0	0	0	0	518	427	
11	0	0	0	0	518	428	
12	0	0	0	0	517	427	
13	0	0	0	0	516	427	
14	0	0	0	0	515	427	
15	0	0	0	0	514	427	
0	0	0	0	0	513	426	
1	0	0	0	0	512	426	
2	0	0	0	0	512	426	
3	0	0	0	0	511	427	
4	0	0	0	0	510	426	
5	0	0	0	0	509	426	
6	0	0	0	0	509	425	
7	0	0	0	0	508	426	
8	0	0	0	0	508	425	
9	0	0	0	0	508	425	
10	0	0	0	0	507	425	
11	0	0	0	0	507	425	
12	0	0	0	0	507	424	
13	0	0	0	0	507	424	
14	0	0	0	0	506	424	
15	0	0	0	0	506	424	
0	0	0	0	0	505	423	
1	0	0	0	0	504	423	
2	0	0	0	0	504	424	
3	0	0	0	0	504	424	
4	0	0	0	0	504	423	
5	0	0	0	0	503	423	
6	0	0	0	0	503	423	
7	0	0	0	0	503	423	
8	0	0	0	0	504	422	
9	0	0	0	0	503	422	
10	0	0	0	0	503	422	
11	0	0	0	0	503	423	
12	0	0	0	0	503	422	
13	0	0	0	0	503	423	
14	0	0	0	0	503	422	
15	0	0	0	0	502	422	
0	0	0	0	0	502	422	
1	0	0	0	0	502	422	
2	0	0	0	0	502	421	
3	0	0	0	0	503	422	
4	0	0	0	0	502	422	
5	0	0	0	0	502	422	
6	0	0	0	0	501	422	
7	0	0	0	0	501	422	
8	0	0	0	0	501	422	
9	0	0	0	0	502	422	
10	0	0	0	0	502	422	
11	0	0	0	0	503	423	
12	0	0	0	0	503	422	
13	0	0	0	0	503	422	
14	0	0	0	0	502	423	
15	0	0	0	0	502	423	
0	0	0	0	0	502	422	
1	0	0	0	0	501	422	
2	0	0	0	0	501	422	
3	0	0	0	0	500	423	
4	0	0	0	0	501	422	
5	0	0	0	0	501	422	
6	0	0	0	0	502	422	
7	0	0	0	0	503	421	
8	0	0	0	0	504	422	
9	0	0	0	0	504	422	
10	0	0	0	0	505	422	
11	0	0	0	0	506	422	
12	0	0	0	0	507	422	
13	0	0	0	0	507	422	
14	0	0	0	0	507	421	
15	0	0	0	0	507	422	
0	0	0	0	0	506	421	
1	0	0	0	0	505	420	
2	0	0	0	0	505	420	
3	0	0	0	0	506	422	
4	0	0	0	0	506	421	
5	0	0	0	0	506	422	
6	0	0	0	0	506	422	
7	0	0	0	0	506	423	
8	0	0	0	0	506	422	
9	0	0	0	0	506	422	
10	0	0	0	0	506	422	
11	0	0	0	0	506	423	
12	0	0	0	0	505	423	
13	0	0	0	0	505	422	
14	0	0	0	0	506	422	
15	0	0	0	0	506	423	
0	0	0	0	0	507	422	
1	0	0	0	0	507	423	
2	0	0	0	0	507	422	
3	0	0	0	0	508	423	
4	0	0	0	0	508	422	
5	0	0	0	0	509	422	
6	0	0	0	0	509	423	
7	0	0	0	0	509	423	
8	0	0	0	0	510	422	
9	0	0	0	0	509	422	
10	0	0	0	0	509	423	
11	0	0	0	0	509	423	
12	0	0	0	0	509	423	
13	0	0	0	0	509	423	
14	0	0	0	0	509	423	
15	0	0	0	0	508	423	
0	0	0	0	0	509	423	
1	0	0	0	0	509	423	
2	0	0	0	0	509	423	
3	0	0	0	0	509	424	
4	0	0	0	0	509	423	
5	0	0	0	0	510	423	
6	0	0	0	0	510	423	
7	0	0	0	0	510	424	
8	0	0	0	0	510	424	
9	0	0	0	0	511	424	
10	0	0	0	0	511	424	
11	0	0	0	0	511	424	
12	0	0	0	0	511	424	
13	0	0	0	0	511	424	
14	0	0	0	0	511	423	
15	0	0	0	0	511	424	
0	0	0	0	0	511	424	
1	0	0	0	0	511	424	
2	0	0	0	0	512	424	
3	0	0	0	0	512	424	
4	0	0	0	0	511	424	
5	0	0	0	0	511	424	
6	0	0	0	0	511	424	
7	0	0	0	0	510	425	
8	0	0	0	0	510	425	
9	0	0	0	0	510	424	
10	0	0	0	0	510	425	
11	0	0	0	0	510	426	
12	0	0	0	0	511	425	
13	0	0	0	0	511	425	
14	0	0	0	0	511	426	
15	0	0	0	0	511	425	
0	0	0	0	0	511	425	
1	0	0	0	0	511	426	
2	0	0	0	0	511	426	
3	0	0	0	0	511	427	
4	0	0	0	0	512	427	
5	0	0	0	0	512	427	
6	0	0	0	0	512	428	
7	0	0	0	0	512	428	
8	0	0	0	0	512	428	
9	0	0	0	0	512	428	
10	0	0	0	0	512	427	
11	0	0	0	0	512	428	
12	0	0	0	0	511	428	
13	0	0	0	0	512	428	
14	0	0	0	0	511	428	
15	0	0	0	0	512	429	
0	0	0	0	0	512	429	
1	0	0	0	0	512	430	
2	0	0	0	0	512	429	
3	0	0	0	0	512	429	
4	0	0	0	0	514	429	
5	0	0	0	0	514	429	
6	0	0	0	0	515	429	
7	0	0	0	0	515	430	
8	0	0	0	0	515	430	
9	0	0	0	0	515	429	
10	0	0	0	0	515	429	
11	0	0	0	0	516	431	
12	0	0	0	0	516	430	
13	0	0	0	0	516	430	
14	0	0	0	0	516	430	
15	0	0	0	0	516	431	
0	0	0	0	0	515	430	
1	0	0	0	0	516	430	
2	0	0	0	0	516	429	
3	0	0	0	0	515	431	
4	0	0	0	0	515	430	
5	0	0	0	0	515	430	
6	0	0	0	0	514	430	
7	0	0	0	0	515	430	
8	0	0	0	0	515	431	
9	0	0	0	0	515	430	
10	0	0	0	0	515	430	
11	0	0	0	0	515	430	
12	0	0	0	0	515	430	
13	0	0	0	0	514	430	
14	0	0	0	0	514	430	
15	0	0	0	0	514	431	
0	0	0	0	0	513	430	
1	0	0	0	0	513	430	
2	0	0	0	0	513	430	
3	0	0	0	0	513	430	
4	0	0	0	0	513	429	
5	0	0	0	0	513	430	
6	0	0	0	0	513	430	
7	0	0	0	0	513	430	
8	0	0	0	0	514	430	
9	0	0	0	0	514	429	
10	0	0	0	0	514	429	
11	0	0	0	0	515	430	
12	0	0	0	0	515	429	
13	0	0	0	0	515	429	
14	0	0	0	0	515	429	
15	0	0	0	0	515	430	
0	0	0	0	0	515	429	
1	0	0	0	0	515	430	
2	0	0	0	0	515	429	
3	0	0	0	0	514	430	
4	0	0	0	0	514	429	
5	0	0	0	0	514	429	
6	0	0	0	0	514	429	
7	0	0	0	0	515	429	
8	0	0	0	0	515	430	
9	0	0	0	0	514	430	
10	0	0	0	0	514	430	
11	0	0	0	0	514	431	
12	0	0	0	0	513	430	
13	0	0	0	0	513	430	
14	0	0	0	0	513	430	
15	0	0	0	0	513	430	
0	0	0	0	0	513	430	
1	0	0	0	0	514	430	
2	0	0	0	0	514	430	
3	0	0	0	0	514	431	
4	0	0	0	0	514	430	
5	0	0	0	0	515	430	
6	0	0	0	0	514	430	
7	0	0	0	0	514	431	
8	0	0	0	0	514	431	
9	0	0	0	0	514	430	
10	0	0	0	0	514	430	
11	0	0	0	0	514	431	
12	0	0	0	0	514	430	
13	0	0	0	0	514	430	
14	0	0	0	0	515	430	
15	0	0	0	0	515	431	
0	0	0	0	0	515	431	
1	0	0	0	0	515	431	
2	0	0	0	0	515	431	
3	0	0	0	0	514	431	
4	0	0	0	0	514	431	
5	0	0	0	0	514	431	
6	0	0	0	0	513	431	
7	0	0	0	0	513	431	
8	0	0	0	0	513	431	
9	0	0	0	0	513	431	
10	0	0	0	0	513	431	
11	0	0	0	0	514	432	
12	0	0	0	0	514	431	
13	0	0	0	0	514	432	
14	0	0	0	0	514	431	
15	0	0	0	0	513	431	
0	0	0	0	0	514	431	
1	0	0	0	0	514	430	
2	0	0	0	0	515	430	
3	0	0	0	0	515	431	
4	0	0	0	0	515	430	
5	0	0	0	0	515	429	
6	0	0	0	0	515	430	
7	0	0	0	0	515	430	
8	0	0	0	0	515	430	
9	0	0	0	0	514	429	
10	0	0	0	0	514	430	
11	0	0	0	0	514	430	
12	0	0	0	0	514	428	
13	0	0	0	0	514	429	
14	0	0	0	0	514	428	
15	0	0	0	0	515	428	
0	0	0	0	0	514	428	
1	0	0	0	0	514	429	
2	0	0	0	0	514	428	
3	0	0	0	0	514	428	
4	0	0	0	0	514	429	
5	0	0	0	0	515	429	
6	0	0	0	0	514	428	
7	0	0	0	0	514	429	
8	0	0	0	0	514	429	
9	0	0	0	0	514	429	
10	0	0	0	0	513	428	
11	0	0	0	0	514	428	
12	0	0	0	0	513	428	
13	0	0	0	0	513	428	
14	0	0	0	0	512	428	
15	0	0	0	0	512	428	
0	0	0	0	0	512	428	
1	0	0	0	0	511	428	
2	0	0	0	0	511	427	
3	0	0	0	0	511	428	
4	0	0	0	0	511	427	
5	0	0	0	0	511	428	
6	0	0	0	0	510	428	
7	0	0	0	0	510	427	
8	0	0	0	0	510	427	
9	0	0	0	0	510	426	
10	0	0	0	0	509	427	
11	0	0	0	0	508	427	
12	0	0	0	0	508	427	
13	0	0	0	0	509	426	
14	0	0	0	0	509	427	
15	0	0	0	0	510	427	
0	0	0	0	0	510	426	
1	0	0	0	0	510	427	
2	0	0	0	0	510	426	
3	0	0	0	0	510	428	
4	0	0	0	0	510	427	
5	0	0	0	0	510	427	
6	0	0	0	0	511	427	
7	0	0	0	0	511	428	
8	0	0	0	0	511	428	
9	0	0	0	0	511	428	
10	0	0	0	0	512	428	
11	0	0	0	0	511	429	
12	0	0	0	0	511	428	
13	0	0	0	0	511	428	
14	0	0	0	0	510	428	
15	0	0	0	0	511	429	
0	0	0	0	0	511	428	
1	0	0	0	0	512	428	
2	0	0	0	0	512	428	
3	0	0	0	0	512	428	
4	0	0	0	0	512	427	
5	0	0	0	0	512	427	
6	0	0	0	0	512	428	
7	0	0	0	0	512	428	
8	0	0	0	0	512	427	
9	0	0	0	0	512	427	
10	0	0	0	0	511	427	
11	0	0	0	0	511	428	
12	0	0	0	0	511	427	
13	0	0	0	0	511	427	
14	0	0	0	0	511	426	
15	0	0	0	0	511	427	
0	0	0	0	0	511	426	
1	0	0	0	0	511	426	
2	0	0	0	0	511	426	
3	0	0	0	0	511	426	
4	0	0	0	0	511	426	
5	0	0	0	0	511	425	
6	0	0	0	0	512	425	
7	0	0	0	0	512	426	
8	0	0	0	0	512	426	
9	0	0	0	0	512	425	
10	0	0	0	0	512	425	
11	0	0	0	0	512	426	
12	0	0	0	0	512	425	
13	0	0	0	0	512	425	
14	0	0	0	0	512	425	
15	0	0	0	0	512	425	
0	0	0	0	0	512	425	
1	0	0	0	0	512	425	
2	0	0	0	0	511	425	
3	0	0	0	0	512	425	
4	0	0	0	0	511	424	
5	0	0	0	0	511	424	
6	0	0	0	0	511	424	
7	0	0	0	0	511	424	
8	0	0	0	0	510	424	
9	0	0	0	0	510	423	
10	0	0	0	0	510	424	
11	0	0	0	0	510	424	
12	0	0	0	0	510	424	
13	0	0	0	0	510	424	
14	0	0	0	0	510	424	
15	0	0	0	0	510	425	
0	0	0	0	0	510	425	
1	0	0	0	0	509	424	
2	0	0	0	0	508	425	
3	0	0	0	0	508	425	
4	0	0	0	0	508	425	
5	0	0	0	0	508	425	
6	0	0	0	0	509	425	
7	0	0	0	0	508	425	
8	0	0	0	0	508	425	
9	0	0	0	0	508	425	
10	0	0	0	0	508	424	
11	0	0	0	0	508	425	
12	0	0	0	0	508	424	
13	0	0	0	0	508	424	
14	0	0	0	0	508	424	
15	0	0	0	0	508	424	
0	0	0	0	0	508	424	
1	0	0	0	0	509	424	
2	0	0	0	0	510	424	
3	0	0	0	0	510	424	
4	0	0	0	0	509	424	
5	0	0	0	0	509	423	
6	0	0	0	0	509	423	
7	0	0	0	0	509	424	
8	0	0	0	0	510	423	
9	0	0	0	0	509	424	
10	0	0	0	0	510	424	
11	0	0	0	0	509	425	
12	0	0	0	0	509	424	
13	0	0	0	0	509	423	
14	0	0	0	0	510	424	
15	0	0	0	0	510	424	
0	0	0	0	0	510	424	
1	0	0	0	0	510	424	
2	0	0	0	0	510	424	
3	0	0	0	0	510	424	
4	0	0	0	0	511	424	
5	0	0	0	0	510	424	
6	0	0	0	0	510	424	
7	0	0	0	0	510	424	
8	0	0	0	0	510	424	
9	0	0	0	0	510	424	
10	0	0	0	0	509	424	
11	0	0	0	0	510	425	
12	0	0	0	0	510	425	
13	0	0	0	0	509	425	
14	0	0	0	0	509	425	
15	0	0	0	0	508	425	
0	0	0	0	0	509	425	
1	0	0	0	0	509	424	
2	0	0	0	0	509	425	
3	0	0	0	0	509	425	
4	0	0	0	0	510	425	
5	0	0	0	0	510	424	
6	0	0	0	0	510	424	
7	0	0	0	0	511	424	
8	0	0	0	0	511	424	
9	0	0	0	0	510	424	
10	0	0	0	0	510	424	
11	0	0	0	0	510	424	
12	0	0	0	0	510	424	
13	0	0	0	0	510	424	
14	0	0	0	0	510	424	
15	0	0	0	0	510	424	
0	0	0	0	0	511	425	
1	0	0	0	0	510	425	
2	0	0	0	0	510	425	
3	0	0	0	0	508	425	
4	0	0	0	0	508	424	
5	0	0	0	0	507	424	
6	0	0	0	0	507	425	
7	0	0	0	0	507	425	
8	0	0	0	0	507	424	
9	0	0	0	0	507	425	
10	0	0	0	0	507	425	
11	0	0	0	0	507	425	
12	0	0	0	0	507	424	
13	0	0	0	0	507	425	
14	0	0	0	0	507	424	
15	0	0	0	0	508	425	
0	0	0	0	0	508	425	
1	0	0	0	0	509	424	
2	0	0	0	0	509	424	
3	0	0	0	0	509	425	
4	0	0	0	0	510	424	
5	0	0	0	0	510	424	
6	0	0	0	0	510	425	
7	0	0	0	0	511	425	
8	0	0	0	0	512	425	
9	0	0	0	0	513	425	
10	0	0	0	0	514	425	
11	0	0	0	0	515	426	
12	0	0	0	0	515	426	
13	0	0	0	0	515	426	
14	0	0	0	0	515	426	
15	0	0	0	0	515	426	
0	0	0	0	0	515	426	
1	0	0	0	0	514	426	
2	0	0	0	0	514	426	
3	0	0	0	0	514	427	
4	0	0	0	0	514	425	
5	0	0	0	0	515	426	
6	0	0	0	0	514	426	
7	0	0	0	0	514	427	
8	0	0	0	0	513	426	
9	0	0	0	0	513	427	
10	0	0	0	0	513	427	
11	0	0	0	0	513	428	
12	0	0	0	0	513	427	
13	0	0	0	0	513	428	
14	0	0	0	0	512	427	
15	0	0	0	0	512	428	
0	0	0	0	0	512	427	
1	0	0	0	0	512	428	
2	0	0	0	0	512	428	
3	0	0	0	0	512	429	
4	0	0	0	0	512	428	
5	0	0	0	0	513	428	
6	0	0	0	0	513	429	
7	0	0	0	0	513	429	
8	0	0	0	0	513	429	
9	0	0	0	0	513	429	
10	0	0	0	0	512	429	
11	0	0	0	0	512	429	
12	0	0	0	0	512	429	
13	0	0	0	0	512	430	
14	0	0	0	0	512	430	
15	0	0	0	0	512	429	
0	0	0	0	0	512	429	
1	0	0	0	0	512	430	
2	0	0	0	0	511	429	
3	0	0	0	0	511	430	
4	0	0	0	0	510	429	
5	0	0	0	0	510	429	
6	0	0	0	0	510	429	
7	0	0	0	0	510	430	
8	0	0	0	0	510	429	
9	0	0	0	0	510	430	
10	0	0	0	0	510	429	
11	0	0	0	0	510	429	
12	0	0	0	0	510	429	
13	0	0	0	0	510	429	
14	0	0	0	0	510	429	
15	0	0	0	0	510	430	
0	0	0	0	0	509	429	
1	0	0	0	0	509	429	
2	0	0	0	0	509	429	
3	0	0	0	0	510	430	
4	0	0	0	0	509	428	
5	0	0	0	0	508	429	
6	0	0	0	0	509	429	
7	0	0	0	0	508	429	
8	0	0	0	0	509	429	
9	0	0	0	0	509	429	
10	0	0	0	0	508	429	
11	0	0	0	0	508	429	
12	0	0	0	0	508	429	
13	0	0	0	0	509	428	
14	0	0	0	0	509	429	
15	0	0	0	0	509	429	
0	0	0	0	0	509	428	
1	0	0	0	0	510	428	
2	0	0	0	0	510	428	
3	0	0	0	0	510	429	
4	0	0	0	0	509	429	
5	0	0	0	0	509	429	
6	0	0	0	0	509	428	
7	0	0	0	0	510	428	
8	0	0	0	0	510	428	
9	0	0	0	0	510	429	
10	0	0	0	0	510	429	
11	0	0	0	0	510	429	
12	0	0	0	0	510	428	
13	0	0	0	0	510	429	
14	0	0	0	0	510	429	
15	0	0	0	0	509	428	
0	0	0	0	0	509	428	
1	0	0	0	0	509	428	
2	0	0	0	0	510	427	
3	0	0	0	0	510	428	
4	0	0	0	0	510	428	
5	0	0	0	0	510	428	
6	0	0	0	0	509	428	
7	0	0	0	0	509	428	
8	0	0	0	0	509	428	
9	0	0	0	0	509	428	
10	0	0	0	0	509	428	
11	0	0	0	0	510	428	
12	0	0	0	0	510	428	
13	0	0	0	0	511	429	
14	0	0	0	0	511	429	
15	0	0	0	0	511	428	
0	0	0	0	0	511	429	
1	0	0	0	0	512	429	
2	0	0	0	0	512	430	
3	0	0	0	0	512	431	
4	0	0	0	0	512	429	
5	0	0	0	0	513	430	
6	0	0	0	0	512	430	
7	0	0	0	0	512	431	
8	0	0	0	0	512	431	
9	0	0	0	0	512	431	
10	0	0	0	0	512	432	
11	0	0	0	0	512	432	
12	0	0	0	0	512	432	
13	0	0	0	0	511	432	
14	0	0	0	0	511	432	
15	0	0	0	0	512	432	
0	0	0	0	0	512	432	
1	0	0	0	0	512	432	
2	0	0	0	0	512	432	
3	0	0	0	0	511	433	
4	0	0	0	0	512	432	
5	0	0	0	0	512	432	
6	0	0	0	0	512	432	
7	0	0	0	0	512	431	
8	0	0	0	0	513	430	
9	0	0	0	0	512	431	
10	0	0	0	0	511	431	
11	0	0	0	0	509	432	
12	0	0	0	0	508	430	
13	0	0	0	0	505	430	
14	0	0	0	0	503	431	
15	0	0	0	0	501	432	
0	0	0	0	0	498	431	
1	0	0	0	0	496	430	
2	0	0	0	0	495	430	
3	0	0	0	0	495	431	
4	0	0	0	0	494	430	
5	0	0	0	0	494	430	
6	0	0	0	0	494	430	
7	0	0	0	0	494	430	
8	0	0	0	0	494	431	
9	0	0	0	0	494	430	
10	0	0	0	0	494	431	
11	0	0	0	0	496	431	
12	0	0	0	0	498	431	
13	0	0	0	0	502	430	
14	0	0	0	0	507	431	
15	0	0	0	0	513	431	
0	0	0	0	0	520	430	
1	0	0	0	0	527	430	
2	0	0	0	0	535	429	
3	0	0	0	0	544	430	
4	0	0	0	0	554	429	
5	0	0	0	0	564	428	
6	0	0	0	0	575	428	
7	0	0	0	0	584	428	
8	0	0	0	0	595	429	
9	0	0	0	0	605	428	
10	0	0	0	0	615	428	
11	0	0	0	0	626	428	
12	0	0	0	0	636	428	
13	0	0	0	0	646	428	
14	0	0	0	0	655	427	
15	0	0	0	0	662	428	
0	0	0	0	0	666	428	
1	0	0	0	0	668	427	
2	0	0	0	0	668	428	
3	0	0	0	0	667	428	
4	0	0	0	0	664	428	
5	0	0	0	0	660	428	
6	0	0	0	0	653	428	
7	0	0	0	0	643	428	
8	0	0	0	0	631	428	
9	0	0	0	0	618	428	
10	0	0	0	0	604	428	
11	0	0	0	0	591	429	
12	0	0	0	0	579	428	
13	0	0	0	0	567	428	
14	0	0	0	0	556	427	
15	0	0	0	0	546	428	
0	0	0	0	0	537	428	
1	0	0	0	0	530	428	
2	0	0	0	0	523	428	
3	0	0	0	0	517	428	
4	0	0	0	0	512	428	
5	0	0	0	0	508	428	
6	0	0	0	0	505	428	
7	0	0	0	0	502	428	
8	0	0	0	0	499	428	
9	0	0	0	0	496	428	
10	0	0	0	0	494	427	
11	0	0	0	0	492	428	
12	0	0	0	0	490	428	
13	0	0	0	0	488	428	
14	0	0	0	0	487	427	
15	0	0	0	0	486	427	
0	0	0	0	0	483	427	
1	0	0	0	0	482	428	
2	0	0	0	0	481	427	
3	0	0	0	0	480	428	
4	0	0	0	0	479	427	
5	0	0	0	0	479	427	
6	0	0	0	0	479	427	
7	0	0	0	0	479	428	
8	0	0	0	0	478	427	
9	0	0	0	0	478	427	
10	0	0	0	0	478	427	
11	0	0	0	0	479	428	
12	0	0	0	0	479	427	
13	0	0	0	0	479	427	
14	0	0	0	0	479	427	
15	0	0	0	0	479	428	
0	0	0	0	0	479	428	
1	0	0	0	0	479	427	
2	0	0	0	0	479	428	
3	0	0	0	0	479	429	
4	0	0	0	0	479	428	
5	0	0	0	0	479	428	
6	0	0	0	0	478	428	
7	0	0	0	0	478	428	
8	0	0	0	0	478	429	
9	0	0	0	0	478	428	
10	0	0	0	0	478	428	
11	0	0	0	0	478	429	
12	0	0	0	0	478	428	
13	0	0	0	0	478	428	
14	0	0	0	0	478	428	
15	0	0	0	0	478	429	
0	0	0	0	0	478	428	
1	0	0	0	0	478	429	
2	0	0	0	0	478	428	
3	0	0	0	0	479	428	
4	0	0	0	0	479	428	
5	0	0	0	0	479	428	
6	0	0	0	0	479	428	
7	0	0	0	0	480	427	
8	0	0	0	0	480	428	
9	0	0	0	0	480	428	
10	0	0	0	0	480	427	
11	0	0	0	0	480	428	
12	0	0	0	0	480	427	
13	0	0	0	0	481	427	
14	0	0	0	0	481	427	
15	0	0	0	0	482	427	
0	0	0	0	0	482	427	
1	0	0	0	0	482	427	
2	0	0	0	0	482	427	
3	0	0	0	0	482	428	
4	0	0	0	0	483	427	
5	0	0	0	0	483	428	
6	0	0	0	0	483	428	
7	0	0	0	0	484	427	
8	0	0	0	0	484	427	
9	0	0	0	0	484	427	
10	0	0	0	0	484	426	
11	0	0	0	0	484	427	
12	0	0	0	0	484	426	
13	0	0	0	0	484	427	
14	0	0	0	0	485	426	
15	0	0	0	0	486	427	
0	0	0	0	0	486	426	
1	0	0	0	0	486	426	
2	0	0	0	0	486	426	
3	0	0	0	0	486	427	
4	0	0	0	0	486	426	
5	0	0	0	0	486	426	
6	0	0	0	0	486	426	
7	0	0	0	0	486	425	
8	0	0	0	0	487	425	
9	0	0	0	0	487	425	
10	0	0	0	0	487	425	
11	0	0	0	0	487	425	
12	0	0	0	0	487	424	
13	0	0	0	0	487	424	
14	0	0	0	0	486	423	
15	0	0	0	0	486	424	
0	0	0	0	0	487	424	
1	0	0	0	0	487	423	
2	0	0	0	0	487	423	
3	0	0	0	0	487	424	
4	0	0	0	0	487	423	
5	0	0	0	0	488	423	
6	0	0	0	0	488	423	
7	0	0	0	0	489	423	
8	0	0	0	0	490	423	
9	0	0	0	0	490	423	
10	0	0	0	0	491	423	
11	0	0	0	0	491	425	
12	0	0	0	0	490	423	
13	0	0	0	0	490	424	
14	0	0	0	0	490	424	
15	0	0	0	0	490	425	
0	0	0	0	0	491	425	
1	0	0	0	0	491	425	
2	0	0	0	0	492	424	
3	0	0	0	0	492	425	
4	0	0	0	0	492	425	
5	0	0	0	0	492	425	
6	0	0	0	0	492	425	
7	0	0	0	0	493	426	
8	0	0	0	0	493	426	
9	0	0	0	0	493	426	
10	0	0	0	0	493	426	
11	0	0	0	0	494	427	
12	0	0	0	0	494	427	
13	0	0	0	0	495	427	
14	0	0	0	0	495	427	
15	0	0	0	0	495	427	
0	0	0	0	0	495	427	
1	0	0	0	0	494	427	
2	0	0	0	0	495	427	
3	0	0	0	0	495	428	
4	0	0	0	0	495	428	
5	0	0	0	0	495	428	
6	0	0	0	0	496	428	
7	0	0	0	0	496	428	
8	0	0	0	0	496	428	
9	0	0	0	0	496	428	
10	0	0	0	0	496	428	
11	0	0	0	0	496	428	
12	0	0	0	0	496	428	
13	0	0	0	0	496	428	
14	0	0	0	0	496	428	
15	0	0	0	0	497	428	
0	0	0	0	0	497	428	
1	0	0	0	0	497	428	
2	0	0	0	0	497	428	
3	0	0	0	0	497	428	
4	0	0	0	0	497	427	
5	0	0	0	0	498	428	
6	0	0	0	0	498	427	
7	0	0	0	0	499	428	
8	0	0	0	0	499	427	
9	0	0	0	0	499	428	
10	0	0	0	0	499	427	
11	0	0	0	0	499	428	
12	0	0	0	0	499	427	
13	0	0	0	0	499	428	
14	0	0	0	0	500	428	
15	0	0	0	0	501	428	
0	0	0	0	0	501	427	
1	0	0	0	0	501	427	
2	0	0	0	0	501	427	
3	0	0	0	0	501	428	
4	0	0	0	0	501	428	
5	0	0	0	0	501	428	
6	0	0	0	0	501	428	
7	0	0	0	0	501	428	
8	0	0	0	0	501	428	
9	0	0	0	0	501	428	
10	0	0	0	0	502	428	
11	0	0	0	0	502	429	
12	0	0	0	0	502	427	
13	0	0	0	0	502	427	
14	0	0	0	0	502	428	
15	0	0	0	0	502	428	
0	0	0	0	0	502	427	
1	0	0	0	0	503	427	
2	0	0	0	0	503	427	
3	0	0	0	0	504	427	
4	0	0	0	0	505	426	
5	0	0	0	0	505	427	
6	0	0	0	0	505	426	
7	0	0	0	0	506	426	
8	0	0	0	0	507	425	
9	0	0	0	0	506	425	
10	0	0	0	0	507	425	
11	0	0	0	0	507	426	
12	0	0	0	0	507	425	
13	0	0	0	0	507	425	
14	0	0	0	0	508	425	
15	0	0	0	0	508	425	
0	0	0	0	0	508	425	
1	0	0	0	0	508	425	
2	0	0	0	0	509	426	
3	0	0	0	0	510	426	
4	0	0	0	0	510	425	
5	0	0	0	0	511	425	
6	0	0	0	0	511	426	
7	0	0	0	0	511	426	
8	0	0	0	0	512	426	
9	0	0	0	0	513	426	
10	0	0	0	0	513	425	
11	0	0	0	0	514	426	
12	0	0	0	0	514	426	
13	0	0	0	0	515	427	
14	0	0	0	0	515	425	
15	0	0	0	0	516	427	
0	0	0	0	0	516	426	
1	0	0	0	0	516	426	
2	0	0	0	0	516	426	
3	0	0	0	0	517	427	
4	0	0	0	0	517	426	
5	0	0	0	0	518	426	
6	0	0	0	0	518	427	
7	0	0	0	0	518	427	
8	0	0	0	0	518	427	
9	0	0	0	0	519	426	
10	0	0	0	0	520	427	
11	0	0	0	0	520	428	
12	0	0	0	0	520	427	
13	0	0	0	0	521	427	
14	0	0	0	0	521	426	
15	0	0	0	0	522	427	
0	0	0	0	0	523	427	
1	0	0	0	0	524	426	
2	0	0	0	0	524	425	
3	0	0	0	0	525	426	
4	0	0	0	0	524	424	
5	0	0	0	0	525	426	
6	0	0	0	0	525	426	
7	0	0	0	0	525	426	
8	0	0	0	0	526	426	
9	0	0	0	0	526	426	
10	0	0	0	0	526	426	
11	0	0	0	0	527	427	
12	0	0	0	0	527	426	
13	0	0	0	0	527	426	
14	0	0	0	0	527	426	
15	0	0	0	0	527	427	
0	0	0	0	0	527	426	
1	0	0	0	0	527	426	
2	0	0	0	0	526	426	
3	0	0	0	0	525	427	
4	0	0	0	0	525	426	
5	0	0	0	0	525	426	
6	0	0	0	0	525	426	
7	0	0	0	0	524	427	
8	0	0	0	0	524	426	
9	0	0	0	0	524	427	
10	0	0	0	0	523	427	
11	0	0	0	0	523	428	
12	0	0	0	0	522	426	
13	0	0	0	0	521	427	
14	0	0	0	0	521	427	
15	0	0	0	0	520	427	
0	0	0	0	0	519	427	
1	0	0	0	0	519	426	
2	0	0	0	0	518	427	
3	0	0	0	0	518	427	
4	0	0	0	0	517	427	
5	0	0	0	0	517	427	
6	0	0	0	0	516	427	
7	0	0	0	0	515	427	
8	0	0	0	0	515	427	
9	0	0	0	0	514	427	
10	0	0	0	0	514	427	
11	0	0	0	0	513	428	
12	0	0	0	0	511	427	
13	0	0	0	0	510	427	
14	0	0	0	0	509	427	
15	0	0	0	0	508	427	
0	0	0	0	0	507	428	
1	0	0	0	0	506	428	
2	0	0	0	0	505	428	
3	0	0	0	0	505	429	
4	0	0	0	0	504	429	
5	0	0	0	0	504	429	
6	0	0	0	0	504	429	
7	0	0	0	0	503	430	
8	0	0	0	0	503	430	
9	0	0	0	0	502	430	
10	0	0	0	0	502	430	
11	0	0	0	0	501	431	
12	0	0	0	0	500	430	
13	0	0	0	0	500	430	
14	0	0	0	0	499	431	
15	0	0	0	0	498	431	
0	0	0	0	0	498	431	
1	0	0	0	0	497	431	
2	0	0	0	0	497	431	
3	0	0	0	0	496	432	
4	0	0	0	0	496	432	
5	0	0	0	0	496	432	
6	0	0	0	0	496	432	
7	0	0	0	0	497	433	
8	0	0	0	0	496	432	
9	0	0	0	0	496	432	
10	0	0	0	0	496	433	
11	0	0	0	0	496	434	
12	0	0	0	0	496	434	
13	0	0	0	0	496	434	
14	0	0	0	0	496	434	
15	0	0	0	0	496	435	
0	0	0	0	0	496	434	
1	0	0	0	0	497	435	
2	0	0	0	0	497	434	
3	0	0	0	0	497	435	
4	0	0	0	0	497	433	
5	0	0	0	0	497	434	
6	0	0	0	0	496	433	
7	0	0	0	0	496	434	
8	0	0	0	0	496	433	
9	0	0	0	0	496	433	
10	0	0	0	0	496	433	
11	0	0	0	0	496	433	
12	0	0	0	0	496	433	
13	0	0	0	0	496	433	
14	0	0	0	0	496	433	
15	0	0	0	0	496	433	
0	0	0	0	0	496	432	
1	0	0	0	0	497	433	
2	0	0	0	0	496	433	
3	0	0	0	0	496	434	
4	0	0	0	0	496	432	
5	0	0	0	0	496	433	
6	0	0	0	0	496	432	
7	0	0	0	0	497	432	
8	0	0	0	0	497	432	
9	0	0	0	0	497	433	
10	0	0	0	0	497	432	
11	0	0	0	0	497	432	
12	0	0	0	0	497	432	
13	0	0	0	0	497	432	
14	0	0	0	0	496	432	
15	0	0	0	0	496	431	
0	0	0	0	0	497	431	
1	0	0	0	0	497	431	
2	0	0	0	0	498	431	
3	0	0	0	0	498	431	
4	0	0	0	0	497	431	
5	0	0	0	0	497	431	
6	0	0	0	0	498	431	
7	0	0	0	0	498	430	
8	0	0	0	0	498	430	
9	0	0	0	0	499	430	
10	0	0	0	0	499	431	
11	0	0	0	0	498	432	
12	0	0	0	0	497	431	
13	0	0	0	0	498	433	
14	0	0	0	0	498	435	
15	0	0	0	0	498	434	
0	0	0	0	0	498	433	
1	0	0	0	0	498	432	
2	0	0	0	0	499	432	
3	0	0	0	0	500	432	
4	0	0	0	0	500	432	
5	0	0	0	0	500	430	
6	0	0	0	0	500	428	
7	0	0	0	0	501	427	
8	0	0	0	0	501	426	
9	0	0	0	0	502	424	
10	0	0	0	0	503	423	
11	0	0	0	0	503	423	
12	0	0	0	0	503	421	
13	0	0	0	0	503	422	
14	0	0	0	0	503	422	
15	0	0	0	0	503	422	
0	0	0	0	0	503	422	
1	0	0	0	0	503	422	
2	0	0	0	0	503	423	
3	0	0	0	0	503	423	
4	0	0	0	0	503	423	
5	0	0	0	0	502	424	
6	0	0	0	0	503	423	
7	0	0	0	0	503	424	
8	0	0	0	0	503	424	
9	0	0	0	0	503	424	
10	0	0	0	0	503	424	
11	0	0	0	0	504	424	
12	0	0	0	0	504	424	
13	0	0	0	0	504	425	
14	0	0	0	0	504	424	
15	0	0	0	0	504	424	
0	0	0	0	0	504	423	
1	0	0	0	0	503	424	
2	0	0	0	0	503	423	
3	0	0	0	0	503	425	
4	0	0	0	0	503	424	
5	0	0	0	0	503	425	
6	0	0	0	0	503	424	
7	0	0	0	0	503	425	
8	0	0	0	0	504	425	
9	0	0	0	0	503	424	
10	0	0	0	0	503	424	
11	0	0	0	0	503	426	
12	0	0	0	0	504	425	
13	0	0	0	0	504	425	
14	0	0	0	0	504	426	
15	0	0	0	0	504	427	
0	0	0	0	0	504	426	
1	0	0	0	0	504	426	
2	0	0	0	0	504	427	
3	0	0	0	0	504	428	
4	0	0	0	0	504	427	
5	0	0	0	0	504	428	
6	0	0	0	0	504	428	
7	0	0	0	0	504	428	
8	0	0	0	0	504	428	
9	0	0	0	0	504	429	
10	0	0	0	0	504	428	
11	0	0	0	0	505	430	
12	0	0	0	0	505	428	
13	0	0	0	0	506	429	
14	0	0	0	0	507	429	
15	0	0	0	0	507	429	
0	0	0	0	0	507	429	
1	0	0	0	0	507	429	
2	0	0	0	0	507	429	
3	0	0	0	0	506	430	
4	0	0	0	0	506	429	
5	0	0	0	0	506	429	
6	0	0	0	0	505	429	
7	0	0	0	0	505	430	
8	0	0	0	0	505	430	
9	0	0	0	0	505	430	
10	0	0	0	0	505	431	
11	0	0	0	0	505	431	
12	0	0	0	0	506	431	
13	0	0	0	0	505	431	
14	0	0	0	0	505	431	
15	0	0	0	0	506	431	
0	0	0	0	0	506	431	
1	0	0	0	0	506	432	
2	0	0	0	0	507	431	
3	0	0	0	0	507	432	
4	0	0	0	0	508	431	
5	0	0	0	0	508	431	
6	0	0	0	0	508	431	
7	0	0	0	0	508	432	
8	0	0	0	0	509	431	
9	0	0	0	0	509	430	
10	0	0	0	0	509	430	
11	0	0	0	0	509	430	
12	0	0	0	0	510	429	
13	0	0	0	0	510	429	
14	0	0	0	0	511	430	
15	0	0	0	0	511	429	
0	0	0	0	0	510	428	
1	0	0	0	0	510	429	
2	0	0	0	0	509	429	
3	0	0	0	0	509	429	
4	0	0	0	0	509	429	
5	0	0	0	0	509	428	
6	0	0	0	0	509	428	
7	0	0	0	0	509	428	
8	0	0	0	0	508	428	
9	0	0	0	0	508	427	
10	0	0	0	0	508	427	
11	0	0	0	0	508	428	
12	0	0	0	0	509	427	
13	0	0	0	0	509	426	
14	0	0	0	0	508	427	
15	0	0	0	0	508	426	
0	0	0	0	0	509	426	
1	0	0	0	0	509	425	
2	0	0	0	0	509	425	
3	0	0	0	0	508	425	
4	0	0	0	0	508	425	
5	0	0	0	0	508	425	
6	0	0	0	0	509	425	
7	0	0	0	0	509	425	
8	0	0	0	0	510	425	
9	0	0	0	0	511	425	
10	0	0	0	0	511	425	
11	0	0	0	0	511	425	
12	0	0	0	0	511	425	
13	0	0	0	0	510	425	
14	0	0	0	0	510	425	
15	0	0	0	0	509	425	
0	0	0	0	0	509	425	
1	0	0	0	0	509	424	
2	0	0	0	0	508	425	
3	0	0	0	0	508	425	
4	0	0	0	0	508	424	
5	0	0	0	0	508	425	
6	0	0	0	0	509	425	
7	0	0	0	0	510	425	
8	0	0	0	0	511	424	
9	0	0	0	0	511	424	
10	0	0	0	0	512	424	
11	0	0	0	0	512	425	
12	0	0	0	0	511	425	
13	0	0	0	0	512	424	
14	0	0	0	0	512	425	
15	0	0	0	0	511	425	
0	0	0	0	0	511	425	
1	0	0	0	0	511	425	
2	0	0	0	0	510	424	
3	0	0	0	0	510	426	
4	0	0	0	0	510	425	
5	0	0	0	0	510	425	
6	0	0	0	0	510	426	
7	0	0	0	0	510	426	
8	0	0	0	0	509	425	
9	0	0	0	0	509	426	
10	0	0	0	0	509	425	
11	0	0	0	0	509	426	
12	0	0	0	0	509	425	
13	0	0	0	0	509	427	
14	0	0	0	0	508	427	
15	0	0	0	0	508	426	
0	0	0	0	0	508	426	
1	0	0	0	0	508	426	
2	0	0	0	0	508	427	
3	0	0	0	0	508	427	
4	0	0	0	0	508	426	
5	0	0	0	0	507	427	
6	0	0	0	0	508	427	
7	0	0	0	0	508	428	
8	0	0	0	0	508	427	
9	0	0	0	0	508	427	
10	0	0	0	0	507	428	
11	0	0	0	0	507	429	
12	0	0	0	0	507	428	
13	0	0	0	0	507	428	
14	0	0	0	0	507	428	
15	0	0	0	0	507	429	
0	0	0	0	0	507	429	
1	0	0	0	0	507	429	
2	0	0	0	0	506	429	
3	0	0	0	0	506	430	
4	0	0	0	0	506	430	
5	0	0	0	0	506	429	
6	0	0	0	0	506	429	
7	0	0	0	0	507	429	
8	0	0	0	0	508	428	
9	0	0	0	0	508	430	
10	0	0	0	0	509	429	
11	0	0	0	0	510	430	
12	0	0	0	0	510	430	
13	0	0	0	0	511	430	
14	0	0	0	0	511	429	
15	0	0	0	0	511	430	
0	0	0	0	0	511	429	
1	0	0	0	0	511	429	
2	0	0	0	0	511	430	
3	0	0	0	0	511	431	
4	0	0	0	0	511	429	
5	0	0	0	0	512	430	
6	0	0	0	0	512	429	
7	0	0	0	0	512	430	
8	0	0	0	0	512	430	
9	0	0	0	0	512	429	
10	0	0	0	0	512	430	
11	0	0	0	0	512	430	
12	0	0	0	0	512	430	
13	0	0	0	0	511	429	
14	0	0	0	0	511	429	
15	0	0	0	0	511	429	
0	0	0	0	0	511	429	
1	0	0	0	0	511	429	
2	0	0	0	0	510	428	
3	0	0	0	0	510	429	
4	0	0	0	0	510	428	
5	0	0	0	0	510	427	
6	0	0	0	0	511	427	
7	0	0	0	0	510	428	
8	0	0	0	0	511	427	
9	0	0	0	0	511	427	
10	0	0	0	0	510	427	
11	0	0	0	0	510	428	
12	0	0	0	0	510	427	
13	0	0	0	0	509	427	
14	0	0	0	0	510	427	
15	0	0	0	0	509	427	
0	0	0	0	0	509	427	
1	0	0	0	0	510	427	
2	0	0	0	0	510	427	
3	0	0	0	0	510	428	
4	0	0	0	0	510	427	
5	0	0	0	0	511	427	
6	0	0	0	0	511	427	
7	0	0	0	0	512	427	
8	0	0	0	0	512	426	
9	0	0	0	0	512	426	
10	0	0	0	0	512	425	
11	0	0	0	0	511	427	
12	0	0	0	0	512	426	
13	0	0	0	0	512	427	
14	0	0	0	0	512	426	
15	0	0	0	0	511	427	
0	0	0	0	0	511	427	
1	0	0	0	0	511	426	
2	0	0	0	0	512	426	
3	0	0	0	0	512	426	
4	0	0	0	0	512	426	
5	0	0	0	0	512	426	
6	0	0	0	0	512	426	
7	0	0	0	0	511	427	
8	0	0	0	0	511	427	
9	0	0	0	0	511	426	
10	0	0	0	0	511	426	
11	0	0	0	0	512	428	
12	0	0	0	0	512	426	
13	0	0	0	0	512	427	
14	0	0	0	0	512	427	
15	0	0	0	0	512	428	
0	0	0	0	0	512	427	
1	0	0	0	0	512	428	
2	0	0	0	0	511	427	
3	0	0	0	0	511	428	
4	0	0	0	0	510	427	
5	0	0	0	0	509	427	
6	0	0	0	0	509	428	
7	0	0	0	0	508	428	
8	0	0	0	0	508	428	
9	0	0	0	0	508	428	
10	0	0	0	0	507	428	
11	0	0	0	0	507	429	
12	0	0	0	0	507	428	
13	0	0	0	0	507	428	
14	0	0	0	0	508	428	
15	0	0	0	0	508	428	
0	0	0	0	0	508	428	
1	0	0	0	0	509	428	
2	0	0	0	0	508	428	
3	0	0	0	0	509	428	
4	0	0	0	0	509	428	
5	0	0	0	0	510	428	
6	0	0	0	0	510	428	
7	0	0	0	0	510	428	
8	0	0	0	0	510	428	
9	0	0	0	0	510	428	
10	0	0	0	0	511	428	
11	0	0	0	0	510	428	
12	0	0	0	0	510	427	
13	0	0	0	0	510	428	
14	0	0	0	0	510	427	
15	0	0	0	0	510	428	
0	0	0	0	0	510	427	
1	0	0	0	0	510	427	
2	0	0	0	0	510	428	
3	0	0	0	0	510	428	
4	0	0	0	0	510	428	
5	0	0	0	0	510	428	
6	0	0	0	0	510	429	
7	0	0	0	0	509	429	
8	0	0	0	0	508	428	
9	0	0	0	0	508	429	
10	0	0	0	0	508	430	
11	0	0	0	0	508	430	
12	0	0	0	0	507	429	
13	0	0	0	0	508	429	
14	0	0	0	0	508	430	
15	0	0	0	0	508	431	
0	0	0	0	0	508	430	
1	0	0	0	0	509	430	
2	0	0	0	0	508	430	
3	0	0	0	0	508	431	
4	0	0	0	0	508	430	
5	0	0	0	0	509	430	
6	0	0	0	0	510	430	
7	0	0	0	0	510	431	
8	0	0	0	0	510	430	
9	0	0	0	0	510	431	
10	0	0	0	0	510	431	
11	0	0	0	0	510	431	
12	0	0	0	0	510	431	
13	0	0	0	0	510	430	
14	0	0	0	0	511	431	
15	0	0	0	0	511	432	
0	0	0	0	0	511	432	
1	0	0	0	0	511	432	
2	0	0	0	0	511	431	
3	0	0	0	0	512	432	
4	0	0	0	0	512	431	
5	0	0	0	0	512	431	
6	0	0	0	0	512	432	
7	0	0	0	0	512	432	
8	0	0	0	0	512	432	
9	0	0	0	0	512	432	
10	0	0	0	0	512	432	
11	0	0	0	0	512	432	
12	0	0	0	0	511	431	
13	0	0	0	0	512	431	
14	0	0	0	0	511	432	
15	0	0	0	0	511	432	
0	0	0	0	0	511	432	
1	0	0	0	0	511	432	
2	0	0	0	0	511	432	
3	0	0	0	0	511	433	
4	0	0	0	0	512	432	
5	0	0	0	0	512	432	
6	0	0	0	0	513	432	
7	0	0	0	0	513	432	
8	0	0	0	0	513	432	
9	0	0	0	0	513	432	
10	0	0	0	0	512	432	
11	0	0	0	0	512	433	
12	0	0	0	0	511	432	
13	0	0	0	0	511	432	
14	0	0	0	0	511	432	
15	0	0	0	0	511	432	
0	0	0	0	0	511	432	
1	0	0	0	0	510	432	
2	0	0	0	0	510	432	
3	0	0	0	0	510	432	
4	0	0	0	0	510	431	
5	0	0	0	0	510	431	
6	0	0	0	0	510	430	
7	0	0	0	0	510	431	
8	0	0	0	0	509	431	
9	0	0	0	0	509	431	
10	0	0	0	0	509	430	
11	0	0	0	0	508	430	
12	0	0	0	0	508	430	
13	0	0	0	0	508	429	
14	0	0	0	0	508	429	
15	0	0	0	0	509	430	
0	0	0	0	0	509	430	
1	0	0	0	0	508	430	
2	0	0	0	0	508	429	
3	0	0	0	0	507	430	
4	0	0	0	0	507	429	
5	0	0	0	0	507	429	
6	0	0	0	0	506	429	
7	0	0	0	0	505	429	
8	0	0	0	0	505	429	
9	0	0	0	0	505	430	
10	0	0	0	0	505	429	
11	0	0	0	0	505	430	
12	0	0	0	0	505	430	
13	0	0	0	0	506	429	
14	0	0	0	0	506	429	
15	0	0	0	0	506	430	
0	0	0	0	0	505	430	
1	0	0	0	0	505	430	
2	0	0	0	0	505	430	
3	0	0	0	0	505	431	
4	0	0	0	0	505	430	
5	0	0	0	0	505	431	
6	0	0	0	0	506	430	
7	0	0	0	0	506	431	
8	0	0	0	0	505	430	
9	0	0	0	0	505	431	
10	0	0	0	0	505	431	
11	0	0	0	0	505	430	
12	0	0	0	0	504	430	
13	0	0	0	0	504	429	
14	0	0	0	0	503	428	
15	0	0	0	0	503	429	
0	0	0	0	0	504	428	
1	0	0	0	0	504	427	
2	0	0	0	0	504	428	
3	0	0	0	0	504	428	
4	0	0	0	0	505	428	
5	0	0	0	0	505	427	
6	0	0	0	0	505	428	
7	0	0	0	0	506	429	
8	0	0	0	0	507	428	
9	0	0	0	0	507	428	
10	0	0	0	0	507	428	
11	0	0	0	0	507	429	
12	0	0	0	0	508	428	
13	0	0	0	0	508	428	
14	0	0	0	0	508	428	
15	0	0	0	0	507	428	
0	0	0	0	0	507	428	
1	0	0	0	0	508	428	
2	0	0	0	0	508	428	
3	0	0	0	0	507	428	
4	0	0	0	0	507	428	
5	0	0	0	0	508	427	
6	0	0	0	0	508	427	
7	0	0	0	0	509	427	
8	0	0	0	0	509	427	
9	0	0	0	0	508	427	
10	0	0	0	0	508	427	
11	0	0	0	0	508	428	
12	0	0	0	0	508	427	
13	0	0	0	0	508	427	
14	0	0	0	0	507	427	
15	0	0	0	0	507	428	
0	0	0	0	0	506	426	
1	0	0	0	0	505	426	
2	0	0	0	0	505	426	
3	0	0	0	0	505	427	
4	0	0	0	0	505	426	
5	0	0	0	0	504	427	
6	0	0	0	0	505	427	
7	0	0	0	0	505	425	
8	0	0	0	0	506	426	
9	0	0	0	0	506	426	
10	0	0	0	0	506	425	
11	0	0	0	0	505	427	
12	0	0	0	0	505	426	
13	0	0	0	0	505	427	
14	0	0	0	0	504	426	
15	0	0	0	0	503	427	
0	0	0	0	0	502	427	
1	0	0	0	0	500	426	
2	0	0	0	0	498	426	
3	0	0	0	0	496	427	
4	0	0	0	0	493	425	
5	0	0	0	0	492	426	
6	0	0	0	0	491	426	
7	0	0	0	0	490	427	
8	0	0	0	0	489	426	
9	0	0	0	0	489	426	
10	0	0	0	0	489	426	
11	0	0	0	0	488	426	
12	0	0	0	0	488	426	
13	0	0	0	0	487	425	
14	0	0	0	0	487	425	
15	0	0	0	0	487	425	
0	0	0	0	0	487	426	
1	0	0	0	0	489	425	
2	0	0	0	0	492	425	
3	0	0	0	0	497	426	
4	0	0	0	0	503	425	
5	0	0	0	0	509	425	
6	0	0	0	0	516	425	
7	0	0	0	0	525	425	
8	0	0	0	0	534	425	
9	0	0	0	0	543	425	
10	0	0	0	0	554	425	
11	0	0	0	0	565	425	
12	0	0	0	0	575	424	
13	0	0	0	0	587	425	
14	0	0	0	0	598	424	
15	0	0	0	0	609	425	
0	0	0	0	0	620	424	
1	0	0	0	0	632	424	
2	0	0	0	0	642	424	
3	0	0	0	0	652	425	
4	0	0	0	0	660	424	
5	0	0	0	0	667	424	
6	0	0	0	0	670	424	
7	0	0	0	0	672	425	
8	0	0	0	0	673	425	
9	0	0	0	0	671	425	
10	0	0	0	0	668	425	
11	0	0	0	0	661	425	
12	0	0	0	0	652	425	
13	0	0	0	0	641	424	
14	0	0	0	0	630	425	
15	0	0	0	0	617	425	
0	0	0	0	0	603	425	
1	0	0	0	0	591	426	
2	0	0	0	0	578	425	
3	0	0	0	0	566	426	
4	0	0	0	0	554	426	
5	0	0	0	0	543	426	
6	0	0	0	0	534	426	
7	0	0	0	0	526	427	
8	0	0	0	0	519	427	
9	0	0	0	0	513	427	
10	0	0	0	0	508	427	
11	0	0	0	0	504	428	
12	0	0	0	0	500	428	
13	0	0	0	0	497	428	
14	0	0	0	0	494	427	
15	0	0	0	0	491	428	
0	0	0	0	0	489	427	
1	0	0	0	0	487	428	
2	0	0	0	0	486	428	
3	0	0	0	0	484	429	
4	0	0	0	0	482	429	
5	0	0	0	0	481	428	
6	0	0	0	0	480	428	
7	0	0	0	0	478	429	
8	0	0	0	0	477	429	
9	0	0	0	0	476	429	
10	0	0	0	0	476	428	
11	0	0	0	0	475	429	
12	0	0	0	0	474	428	
13	0	0	0	0	474	429	
14	0	0	0	0	474	429	
15	0	0	0	0	475	429	
0	0	0	0	0	475	428	
1	0	0	0	0	474	428	
2	0	0	0	0	473	428	
3	0	0	0	0	473	429	
4	0	0	0	0	473	428	
5	0	0	0	0	473	428	
6	0	0	0	0	473	429	
7	0	0	0	0	473	429	
8	0	0	0	0	473	428	
9	0	0	0	0	473	428	
10	0	0	0	0	473	428	
11	0	0	0	0	473	429	
12	0	0	0	0	472	428	
13	0	0	0	0	472	429	
14	0	0	0	0	472	428	
15	0	0	0	0	472	428	
0	0	0	0	0	471	429	
1	0	0	0	0	470	429	
2	0	0	0	0	470	427	
3	0	0	0	0	471	428	
4	0	0	0	0	471	428	
5	0	0	0	0	471	428	
6	0	0	0	0	472	428	
7	0	0	0	0	472	428	
8	0	0	0	0	473	428	
9	0	0	0	0	474	428	
10	0	0	0	0	475	428	
11	0	0	0	0	475	429	
12	0	0	0	0	476	428	
13	0	0	0	0	477	428	
14	0	0	0	0	478	428	
15	0	0	0	0	478	428	
0	0	0	0	0	478	428	
1	0	0	0	0	478	428	
2	0	0	0	0	478	428	
3	0	0	0	0	478	428	
4	0	0	0	0	478	428	
5	0	0	0	0	479	428	
6	0	0	0	0	479	427	
7	0	0	0	0	479	428	
8	0	0	0	0	478	428	
9	0	0	0	0	479	428	
10	0	0	0	0	478	428	
11	0	0	0	0	479	428	
12	0	0	0	0	479	428	
13	0	0	0	0	479	428	
14	0	0	0	0	479	428	
15	0	0	0	0	480	428	
0	0	0	0	0	480	428	
1	0	0	0	0	481	428	
2	0	0	0	0	481	427	
3	0	0	0	0	482	428	
4	0	0	0	0	483	428	
5	0	0	0	0	483	428	
6	0	0	0	0	484	428	
7	0	0	0	0	484	428	
8	0	0	0	0	484	427	
9	0	0	0	0	485	428	
10	0	0	0	0	485	428	
11	0	0	0	0	486	428	
12	0	0	0	0	486	428	
13	0	0	0	0	487	428	
14	0	0	0	0	487	428	
15	0	0	0	0	487	428	
0	0	0	0	0	487	427	
1	0	0	0	0	488	428	
2	0	0	0	0	488	427	
3	0	0	0	0	488	429	
4	0	0	0	0	488	428	
5	0	0	0	0	488	429	
6	0	0	0	0	488	428	
7	0	0	0	0	488	429	
8	0	0	0	0	489	429	
9	0	0	0	0	488	429	
10	0	0	0	0	489	429	
11	0	0	0	0	489	430	
12	0	0	0	0	489	429	
13	0	0	0	0	490	429	
14	0	0	0	0	490	428	
15	0	0	0	0	491	429	
0	0	0	0	0	491	428	
1	0	0	0	0	491	428	
2	0	0	0	0	491	428	
3	0	0	0	0	492	429	
4	0	0	0	0	492	429	
5	0	0	0	0	492	429	
6	0	0	0	0	493	430	
7	0	0	0	0	493	430	
8	0	0	0	0	494	429	
9	0	0	0	0	494	430	
10	0	0	0	0	493	429	
11	0	0	0	0	494	430	
12	0	0	0	0	493	429	
13	0	0	0	0	493	429	
14	0	0	0	0	493	429	
15	0	0	0	0	493	429	
0	0	0	0	0	494	429	
1	0	0	0	0	494	430	
2	0	0	0	0	494	429	
3	0	0	0	0	495	429	
4	0	0	0	0	495	429	
5	0	0	0	0	495	429	
6	0	0	0	0	495	429	
7	0	0	0	0	496	430	
8	0	0	0	0	496	429	
9	0	0	0	0	496	429	
10	0	0	0	0	496	429	
11	0	0	0	0	496	429	
12	0	0	0	0	496	429	
13	0	0	0	0	496	429	
14	0	0	0	0	496	429	
15	0	0	0	0	497	428	
0	0	0	0	0	497	429	
1	0	0	0	0	497	428	
2	0	0	0	0	497	427	
3	0	0	0	0	497	428	
4	0	0	0	0	497	428	
5	0	0	0	0	497	428	
6	0	0	0	0	498	428	
7	0	0	0	0	498	428	
8	0	0	0	0	498	428	
9	0	0	0	0	499	428	
10	0	0	0	0	499	428	
11	0	0	0	0	499	429	
12	0	0	0	0	499	428	
13	0	0	0	0	499	427	
14	0	0	0	0	498	428	
15	0	0	0	0	497	428	
0	0	0	0	0	497	428	
1	0	0	0	0	496	427	
2	0	0	0	0	497	427	
3	0	0	0	0	498	428	
4	0	0	0	0	499	428	
5	0	0	0	0	499	427	
6	0	0	0	0	500	428	
7	0	0	0	0	501	428	
8	0	0	0	0	502	428	
9	0	0	0	0	502	428	
10	0	0	0	0	502	427	
11	0	0	0	0	502	428	
12	0	0	0	0	502	427	
13	0	0	0	0	503	428	
14	0	0	0	0	504	427	
15	0	0	0	0	504	428	
0	0	0	0	0	505	428	
1	0	0	0	0	505	428	
2	0	0	0	0	505	428	
3	0	0	0	0	505	428	
4	0	0	0	0	506	428	
5	0	0	0	0	506	427	
6	0	0	0	0	507	427	
7	0	0	0	0	507	427	
8	0	0	0	0	507	427	
9	0	0	0	0	506	427	
10	0	0	0	0	506	427	
11	0	0	0	0	506	428	
12	0	0	0	0	505	427	
13	0	0	0	0	506	427	
14	0	0	0	0	506	428	
15	0	0	0	0	507	428	
0	0	0	0	0	507	429	
1	0	0	0	0	507	428	
2	0	0	0	0	507	429	
3	0	0	0	0	507	429	
4	0	0	0	0	507	428	
5	0	0	0	0	507	428	
6	0	0	0	0	508	429	
7	0	0	0	0	508	428	
8	0	0	0	0	508	428	
9	0	0	0	0	508	428	
10	0	0	0	0	509	428	
11	0	0	0	0	509	428	
12	0	0	0	0	510	428	
13	0	0	0	0	510	428	
14	0	0	0	0	511	428	
15	0	0	0	0	510	428	
0	0	0	0	0	511	429	
1	0	0	0	0	512	429	
2	0	0	0	0	512	429	
3	0	0	0	0	512	430	
4	0	0	0	0	513	430	
5	0	0	0	0	514	431	
6	0	0	0	0	515	430	
7	0	0	0	0	515	431	
8	0	0	0	0	515	431	
9	0	0	0	0	516	431	
10	0	0	0	0	516	432	
11	0	0	0	0	517	432	
12	0	0	0	0	517	431	
13	0	0	0	0	517	432	
14	0	0	0	0	518	431	
15	0	0	0	0	519	432	
0	0	0	0	0	519	432	
1	0	0	0	0	519	432	
2	0	0	0	0	520	431	
3	0	0	0	0	521	432	
4	0	0	0	0	521	431	
5	0	0	0	0	521	431	
6	0	0	0	0	521	431	
7	0	0	0	0	521	432	
8	0	0	0	0	521	431	
9	0	0	0	0	521	431	
10	0	0	0	0	521	431	
11	0	0	0	0	522	431	
12	0	0	0	0	521	431	
13	0	0	0	0	521	432	
14	0	0	0	0	521	431	
15	0	0	0	0	521	431	
0	0	0	0	0	521	431	
1	0	0	0	0	521	430	
2	0	0	0	0	521	431	
3	0	0	0	0	523	431	
4	0	0	0	0	523	430	
5	0	0	0	0	523	429	
6	0	0	0	0	524	430	
7	0	0	0	0	524	430	
8	0	0	0	0	523	429	
9	0	0	0	0	523	429	
10	0	0	0	0	522	429	
11	0	0	0	0	523	430	
12	0	0	0	0	523	430	
13	0	0	0	0	522	429	
14	0	0	0	0	523	429	
15	0	0	0	0	523	430	
0	0	0	0	0	523	428	
1	0	0	0	0	523	428	
2	0	0	0	0	523	428	
3	0	0	0	0	523	430	
4	0	0	0	0	522	428	
5	0	0	0	0	521	428	
6	0	0	0	0	520	428	
7	0	0	0	0	519	428	
8	0	0	0	0	519	428	
9	0	0	0	0	519	427	
10	0	0	0	0	519	427	
11	0	0	0	0	518	428	
12	0	0	0	0	518	427	
13	0	0	0	0	517	427	
14	0	0	0	0	517	427	
15	0	0	0	0	516	427	
0	0	0	0	0	515	428	
1	0	0	0	0	513	427	
2	0	0	0	0	512	427	
3	0	0	0	0	511	428	
4	0	0	0	0	511	427	
5	0	0	0	0	510	428	
6	0	0	0	0	509	427	
7	0	0	0	0	508	428	
8	0	0	0	0	508	428	
9	0	0	0	0	507	428	
10	0	0	0	0	506	428	
11	0	0	0	0	505	429	
12	0	0	0	0	504	428	
13	0	0	0	0	503	428	
14	0	0	0	0	502	429	
15	0	0	0	0	501	429	
0	0	0	0	0	501	429	
1	0	0	0	0	500	429	
2	0	0	0	0	499	429	
3	0	0	0	0	499	430	
4	0	0	0	0	499	430	
5	0	0	0	0	498	430	
6	0	0	0	0	498	430	
7	0	0	0	0	498	431	
8	0	0	0	0	498	430	
9	0	0	0	0	497	430	
10	0	0	0	0	497	431	
11	0	0	0	0	496	432	
12	0	0	0	0	496	431	
13	0	0	0	0	496	431	
14	0	0	0	0	496	431	
15	0	0	0	0	496	431	
0	0	0	0	0	495	431	
1	0	0	0	0	495	430	
2	0	0	0	0	496	430	
3	0	0	0	0	496	431	
4	0	0	0	0	496	430	
5	0	0	0	0	496	430	
6	0	0	0	0	495	430	
7	0	0	0	0	495	430	
8	0	0	0	0	495	430	
9	0	0	0	0	495	430	
10	0	0	0	0	495	430	
11	0	0	0	0	495	430	
12	0	0	0	0	495	430	
13	0	0	0	0	495	430	
14	0	0	0	0	495	430	
15	0	0	0	0	495	431	
0	0	0	0	0	495	430	
1	0	0	0	0	496	430	
2	0	0	0	0	496	430	
3	0	0	0	0	497	430	
4	0	0	0	0	497	430	
5	0	0	0	0	497	430	
6	0	0	0	0	496	429	
7	0	0	0	0	496	430	
8	0	0	0	0	496	429	
9	0	0	0	0	496	429	
10	0	0	0	0	496	429	
11	0	0	0	0	497	430	
12	0	0	0	0	497	429	
13	0	0	0	0	497	430	
14	0	0	0	0	497	429	
15	0	0	0	0	497	430	
0	0	0	0	0	497	429	
1	0	0	0	0	498	429	
2	0	0	0	0	498	429	
3	0	0	0	0	498	429	
4	0	0	0	0	498	429	
5	0	0	0	0	498	429	
6	0	0	0	0	498	429	
7	0	0	0	0	499	430	
8	0	0	0	0	499	429	
9	0	0	0	0	499	429	
10	0	0	0	0	499	429	
11	0	0	0	0	499	430	
12	0	0	0	0	499	430	
13	0	0	0	0	499	429	
14	0	0	0	0	499	429	
15	0	0	0	0	499	429	
0	0	0	0	0	499	429	
1	0	0	0	0	499	429	
2	0	0	0	0	498	429	
3	0	0	0	0	499	430	
4	0	0	0	0	499	428	
5	0	0	0	0	499	428	
6	0	0	0	0	500	428	
7	0	0	0	0	500	429	
8	0	0	0	0	500	428	
9	0	0	0	0	499	429	
10	0	0	0	0	499	428	
11	0	0	0	0	500	429	
12	0	0	0	0	500	428	
13	0	0	0	0	500	428	
14	0	0	0	0	500	428	
15	0	0	0	0	501	428	
0	0	0	0	0	502	428	
1	0	0	0	0	502	427	
2	0	0	0	0	502	427	
3	0	0	0	0	502	428	
4	0	0	0	0	502	427	
5	0	0	0	0	502	427	
6	0	0	0	0	502	428	
7	0	0	0	0	503	427	
8	0	0	0	0	503	427	
9	0	0	0	0	503	427	
10	0	0	0	0	504	427	
11	0	0	0	0	504	427	
12	0	0	0	0	504	426	
13	0	0	0	0	504	426	
14	0	0	0	0	504	427	
15	0	0	0	0	504	427	
0	0	0	0	0	504	426	
1	0	0	0	0	504	426	
2	0	0	0	0	505	427	
3	0	0	0	0	504	427	
4	0	0	0	0	505	427	
5	0	0	0	0	505	427	
6	0	0	0	0	504	427	
7	0	0	0	0	504	427	
8	0	0	0	0	504	427	
9	0	0	0	0	504	428	
10	0	0	0	0	504	427	
11	0	0	0	0	504	427	
12	0	0	0	0	504	427	
13	0	0	0	0	505	427	
14	0	0	0	0	505	428	
15	0	0	0	0	505	428	
0	0	0	0	0	505	428	
1	0	0	0	0	506	428	
2	0	0	0	0	505	428	
3	0	0	0	0	505	428	
4	0	0	0	0	505	427	
5	0	0	0	0	505	427	
6	0	0	0	0	505	428	
7	0	0	0	0	505	428	
8	0	0	0	0	505	428	
9	0	0	0	0	506	428	
10	0	0	0	0	506	428	
11	0	0	0	0	506	428	
12	0	0	0	0	506	428	
13	0	0	0	0	505	429	
14	0	0	0	0	505	428	
15	0	0	0	0	504	429	
0	0	0	0	0	505	428	
1	0	0	0	0	505	428	
2	0	0	0	0	504	428	
3	0	0	0	0	504	429	
4	0	0	0	0	504	429	
5	0	0	0	0	504	429	
6	0	0	0	0	504	429	
7	0	0	0	0	504	429	
8	0	0	0	0	504	429	
9	0	0	0	0	505	429	
10	0	0	0	0	504	429	
11	0	0	0	0	505	430	
12	0	0	0	0	505	428	
13	0	0	0	0	505	429	
14	0	0	0	0	505	429	
15	0	0	0	0	505	430	
0	0	0	0	0	506	429	
1	0	0	0	0	507	430	
2	0	0	0	0	507	429	
3	0	0	0	0	507	430	
4	0	0	0	0	507	429	
5	0	0	0	0	507	429	
6	0	0	0	0	507	429	
7	0	0	0	0	507	429	
8	0	0	0	0	507	430	
9	0	0	0	0	507	429	
10	0	0	0	0	506	430	
11	0	0	0	0	506	430	
12	0	0	0	0	506	430	
13	0	0	0	0	507	429	
14	0	0	0	0	506	429	
15	0	0	0	0	506	429	
0	0	0	0	0	506	428	
1	0	0	0	0	507	428	
2	0	0	0	0	508	429	
3	0	0	0	0	508	430	
4	0	0	0	0	507	429	
5	0	0	0	0	508	428	
6	0	0	0	0	508	428	
7	0	0	0	0	508	429	
8	0	0	0	0	508	428	
9	0	0	0	0	507	429	
10	0	0	0	0	508	429	
11	0	0	0	0	509	429	
12	0	0	0	0	508	428	
13	0	0	0	0	509	428	
14	0	0	0	0	509	429	
15	0	0	0	0	509	429	
0	0	0	0	0	509	428	
1	0	0	0	0	509	429	
2	0	0	0	0	509	428	
3	0	0	0	0	508	430	
4	0	0	0	0	509	429	
5	0	0	0	0	508	428	
6	0	0	0	0	509	429	
7	0	0	0	0	508	430	
8	0	0	0	0	508	429	
9	0	0	0	0	508	428	
10	0	0	0	0	508	428	
11	0	0	0	0	507	429	
12	0	0	0	0	508	429	
13	0	0	0	0	508	428	
14	0	0	0	0	508	429	
15	0	0	0	0	508	430	
0	0	0	0	0	508	429	
1	0	0	0	0	508	429	
2	0	0	0	0	508	429	
3	0	0	0	0	508	430	
4	0	0	0	0	508	429	
5	0	0	0	0	508	429	
6	0	0	0	0	508	429	
7	0	0	0	0	508	429	
8	0	0	0	0	508	429	
9	0	0	0	0	509	429	
10	0	0	0	0	509	429	
11	0	0	0	0	509	430	
12	0	0	0	0	509	429	
13	0	0	0	0	509	429	
14	0	0	0	0	509	430	
15	0	0	0	0	509	429	
0	0	0	0	0	509	429	
1	0	0	0	0	510	429	
2	0	0	0	0	510	429	
3	0	0	0	0	509	429	
4	0	0	0	0	509	429	
5	0	0	0	0	509	429	
6	0	0	0	0	508	429	
7	0	0	0	0	508	429	
8	0	0	0	0	508	429	
9	0	0	0	0	508	429	
10	0	0	0	0	508	429	
11	0	0	0	0	508	429	
12	0	0	0	0	508	429	
13	0	0	0	0	508	429	
14	0	0	0	0	508	428	
15	0	0	0	0	508	429	
0	0	0	0	0	508	429	
1	0	0	0	0	509	428	
2	0	0	0	0	509	429	
3	0	0	0	0	510	429	
4	0	0	0	0	510	429	
5	0	0	0	0	509	429	
6	0	0	0	0	509	429	
7	0	0	0	0	508	430	
8	0	0	0	0	508	429	
9	0	0	0	0	508	428	
10	0	0	0	0	508	429	
11	0	0	0	0	507	430	
12	0	0	0	0	507	429	
13	0	0	0	0	507	429	
14	0	0	0	0	506	429	
15	0	0	0	0	506	430	
0	0	0	0	0	506	428	
1	0	0	0	0	506	429	
2	0	0	0	0	506	429	
3	0	0	0	0	506	430	
4	0	0	0	0	505	429	
5	0	0	0	0	505	429	
6	0	0	0	0	504	428	
7	0	0	0	0	504	429	
8	0	0	0	0	505	428	
9	0	0	0	0	505	428	
10	0	0	0	0	506	428	
11	0	0	0	0	506	429	
12	0	0	0	0	506	428	
13	0	0	0	0	507	428	
14	0	0	0	0	507	428	
15	0	0	0	0	507	428	
0	0	0	0	0	508	428	
1	0	0	0	0	509	428	
2	0	0	0	0	509	429	
3	0	0	0	0	509	429	
4	0	0	0	0	509	428	
5	0	0	0	0	509	428	
6	0	0	0	0	509	428	
7	0	0	0	0	509	429	
8	0	0	0	0	509	428	
9	0	0	0	0	508	428	
10	0	0	0	0	508	428	
11	0	0	0	0	508	429	
12	0	0	0	0	508	429	
13	0	0	0	0	507	429	
14	0	0	0	0	508	428	
15	0	0	0	0	508	429	
0	0	0	0	0	508	429	
1	0	0	0	0	508	429	
2	0	0	0	0	508	429	
3	0	0	0	0	508	429	
4	0	0	0	0	508	429	
5	0	0	0	0	508	429	
6	0	0	0	0	508	429	
7	0	0	0	0	508	429	
8	0	0	0	0	508	429	
9	0	0	0	0	508	429	
10	0	0	0	0	508	429	
11	0	0	0	0	507	429	
12	0	0	0	0	507	428	
13	0	0	0	0	507	428	
14	0	0	0	0	507	428	
15	0	0	0	0	507	429	
0	0	0	0	0	506	428	
1	0	0	0	0	506	429	
2	0	0	0	0	506	429	
3	0	0	0	0	506	429	
4	0	0	0	0	506	428	
5	0	0	0	0	506	429	
6	0	0	0	0	506	428	
7	0	0	0	0	506	429	
8	0	0	0	0	507	428	
9	0	0	0	0	507	428	
10	0	0	0	0	508	428	
11	0	0	0	0	508	429	
12	0	0	0	0	508	428	
13	0	0	0	0	508	428	
14	0	0	0	0	508	428	
15	0	0	0	0	508	428	
0	0	0	0	0	508	428	
1	0	0	0	0	508	428	
2	0	0	0	0	508	428	
3	0	0	0	0	507	428	
4	0	0	0	0	507	428	
5	0	0	0	0	507	428	
6	0	0	0	0	507	428	
7	0	0	0	0	508	428	
8	0	0	0	0	508	428	
9	0	0	0	0	508	428	
10	0	0	0	0	508	428	
11	0	0	0	0	508	428	
12	0	0	0	0	508	427	
13	0	0	0	0	508	428	
14	0	0	0	0	508	428	
15	0	0	0	0	508	429	
0	0	0	0	0	508	429	
1	0	0	0	0	508	428	
2	0	0	0	0	508	428	
3	0	0	0	0	508	429	
4	0	0	0	0	508	429	
5	0	0	0	0	508	428	
6	0	0	0	0	508	428	
7	0	0	0	0	508	429	
8	0	0	0	0	508	429	
9	0	0	0	0	508	428	
10	0	0	0	0	508	429	
11	0	0	0	0	508	429	
12	0	0	0	0	508	429	
13	0	0	0	0	509	429	
14	0	0	0	0	509	429	
15	0	0	0	0	509	430	
0	0	0	0	0	508	429	
1	0	0	0	0	508	430	
2	0	0	0	0	508	430	
3	0	0	0	0	508	431	
4	0	0	0	0	508	431	
5	0	0	0	0	508	431	
6	0	0	0	0	508	431	
7	0	0	0	0	508	431	
8	0	0	0	0	508	432	
9	0	0	0	0	508	432	
10	0	0	0	0	507	432	
11	0	0	0	0	507	433	
12	0	0	0	0	507	432	
13	0	0	0	0	506	433	
14	0	0	0	0	506	433	
15	0	0	0	0	506	432	
0	0	0	0	0	506	432	
1	0	0	0	0	507	433	
2	0	0	0	0	506	433	
3	0	0	0	0	506	434	
4	0	0	0	0	505	433	
5	0	0	0	0	506	434	
6	0	0	0	0	507	433	
7	0	0	0	0	506	434	
8	0	0	0	0	506	434	
9	0	0	0	0	506	434	
10	0	0	0	0	506	435	
11	0	0	0	0	506	436	
12	0	0	0	0	505	435	
13	0	0	0	0	506	435	
14	0	0	0	0	505	435	
15	0	0	0	0	505	436	
0	0	0	0	0	506	436	
1	0	0	0	0	505	436	
2	0	0	0	0	505	436	
3	0	0	0	0	505	436	
4	0	0	0	0	505	436	
5	0	0	0	0	505	436	
6	0	0	0	0	504	436	
7	0	0	0	0	504	436	
8	0	0	0	0	504	435	
9	0	0	0	0	504	436	
10	0	0	0	0	504	436	
11	0	0	0	0	505	436	
12	0	0	0	0	505	436	
13	0	0	0	0	505	435	
14	0	0	0	0	505	435	
15	0	0	0	0	505	435	
0	0	0	0	0	506	435	
1	0	0	0	0	506	435	
2	0	0	0	0	507	435	
3	0	0	0	0	507	435	
4	0	0	0	0	506	435	
5	0	0	0	0	506	434	
6	0	0	0	0	506	434	
7	0	0	0	0	506	434	
8	0	0	0	0	506	434	
9	0	0	0	0	506	432	
10	0	0	0	0	505	433	
11	0	0	0	0	505	433	
12	0	0	0	0	505	432	
13	0	0	0	0	505	432	
14	0	0	0	0	504	432	
15	0	0	0	0	504	431	
0	0	0	0	0	505	431	
1	0	0	0	0	505	430	
2	0	0	0	0	504	430	
3	0	0	0	0	505	431	
4	0	0	0	0	505	429	
5	0	0	0	0	505	429	
6	0	0	0	0	506	429	
7	0	0	0	0	506	429	
8	0	0	0	0	507	428	
9	0	0	0	0	507	427	
10	0	0	0	0	507	427	
11	0	0	0	0	507	427	
12	0	0	0	0	507	426	
13	0	0	0	0	507	426	
14	0	0	0	0	507	426	
15	0	0	0	0	506	425	
0	0	0	0	0	507	425	
1	0	0	0	0	507	425	
2	0	0	0	0	507	425	
3	0	0	0	0	507	425	
4	0	0	0	0	506	425	
5	0	0	0	0	506	423	
6	0	0	0	0	505	424	
7	0	0	0	0	505	424	
8	0	0	0	0	505	423	
9	0	0	0	0	505	424	
10	0	0	0	0	506	423	
11	0	0	0	0	505	423	
12	0	0	0	0	505	423	
13	0	0	0	0	505	423	
14	0	0	0	0	506	423	
15	0	0	0	0	505	423	
0	0	0	0	0	506	422	
1	0	0	0	0	506	422	
2	0	0	0	0	505	422	
3	0	0	0	0	505	423	
4	0	0	0	0	504	422	
5	0	0	0	0	504	422	
6	0	0	0	0	504	422	
7	0	0	0	0	504	422	
8	0	0	0	0	504	421	
9	0	0	0	0	504	421	
10	0	0	0	0	504	421	
11	0	0	0	0	504	421	
12	0	0	0	0	504	421	
13	0	0	0	0	504	420	
14	0	0	0	0	505	420	
15	0	0	0	0	504	421	
0	0	0	0	0	504	420	
1	0	0	0	0	504	420	
2	0	0	0	0	504	420	
3	0	0	0	0	504	421	
4	0	0	0	0	505	419	
5	0	0	0	0	505	420	
6	0	0	0	0	504	420	
7	0	0	0	0	505	421	
8	0	0	0	0	506	420	
9	0	0	0	0	507	420	
10	0	0	0	0	508	420	
11	0	0	0	0	508	421	
12	0	0	0	0	508	420	
13	0	0	0	0	508	420	
14	0	0	0	0	509	421	
15	0	0	0	0	510	422	
0	0	0	0	0	510	422	
1	0	0	0	0	510	422	
2	0	0	0	0	510	422	
3	0	0	0	0	510	422	
4	0	0	0	0	510	422	
5	0	0	0	0	511	422	
6	0	0	0	0	511	422	
7	0	0	0	0	510	423	
8	0	0	0	0	509	423	
9	0	0	0	0	509	422	
10	0	0	0	0	509	423	
11	0	0	0	0	509	423	
12	0	0	0	0	509	423	
13	0	0	0	0	509	423	
14	0	0	0	0	509	423	
15	0	0	0	0	508	424	
0	0	0	0	0	508	423	
1	0	0	0	0	508	423	
2	0	0	0	0	508	423	
3	0	0	0	0	508	424	
4	0	0	0	0	508	423	
5	0	0	0	0	508	424	
6	0	0	0	0	509	424	
7	0	0	0	0	509	425	
8	0	0	0	0	510	424	
9	0	0	0	0	510	424	
10	0	0	0	0	509	424	
11	0	0	0	0	509	426	
12	0	0	0	0	509	424	
13	0	0	0	0	508	425	
14	0	0	0	0	508	424	
15	0	0	0	0	507	425	
0	0	0	0	0	506	425	
1	0	0	0	0	506	425	
2	0	0	0	0	506	425	
3	0	0	0	0	505	426	
4	0	0	0	0	506	426	
5	0	0	0	0	505	426	
6	0	0	0	0	505	426	
7	0	0	0	0	505	427	
8	0	0	0	0	504	426	
9	0	0	0	0	505	426	
10	0	0	0	0	505	426	
11	0	0	0	0	505	427	
12	0	0	0	0	505	427	
13	0	0	0	0	506	427	
14	0	0	0	0	506	426	
15	0	0	0	0	505	427	
0	0	0	0	0	505	427	
1	0	0	0	0	505	427	
2	0	0	0	0	505	426	
3	0	0	0	0	505	427	
4	0	0	0	0	505	427	
5	0	0	0	0	505	427	
6	0	0	0	0	505	427	
7	0	0	0	0	505	427	
8	0	0	0	0	505	427	
9	0	0	0	0	506	427	
10	0	0	0	0	505	427	
11	0	0	0	0	506	427	
12	0	0	0	0	505	427	
13	0	0	0	0	504	427	
14	0	0	0	0	504	427	
15	0	0	0	0	504	426	
0	0	0	0	0	504	427	
1	0	0	0	0	504	426	
2	0	0	0	0	505	426	
3	0	0	0	0	504	427	
4	0	0	0	0	505	426	
5	0	0	0	0	505	427	
6	0	0	0	0	505	427	
7	0	0	0	0	505	428	
8	0	0	0	0	506	427	
9	0	0	0	0	505	427	
10	0	0	0	0	506	427	
11	0	0	0	0	506	428	
12	0	0	0	0	506	428	
13	0	0	0	0	507	427	
14	0	0	0	0	506	427	
15	0	0	0	0	506	428	
0	0	0	0	0	506	428	
1	0	0	0	0	506	427	
2	0	0	0	0	506	428	
3	0	0	0	0	506	429	
4	0	0	0	0	507	428	
5	0	0	0	0	506	428	
6	0	0	0	0	506	428	
7	0	0	0	0	506	428	
8	0	0	0	0	505	428	
9	0	0	0	0	506	428	
10	0	0	0	0	506	429	
11	0	0	0	0	507	429	
12	0	0	0	0	507	428	
13	0	0	0	0	508	428	
14	0	0	0	0	508	428	
15	0	0	0	0	509	428	
0	0	0	0	0	510	428	
1	0	0	0	0	510	428	
2	0	0	0	0	510	429	
3	0	0	0	0	510	430	
4	0	0	0	0	511	429	
5	0	0	0	0	511	429	
6	0	0	0	0	511	429	
7	0	0	0	0	512	430	
8	0	0	0	0	512	430	
9	0	0	0	0	512	429	
10	0	0	0	0	511	429	
11	0	0	0	0	511	430	
12	0	0	0	0	510	429	
13	0	0	0	0	510	429	
14	0	0	0	0	510	430	
15	0	0	0	0	509	429	
0	0	0	0	0	509	430	
1	0	0	0	0	509	430	
2	0	0	0	0	509	430	
3	0	0	0	0	509	430	
4	0	0	0	0	508	430	
5	0	0	0	0	509	430	
6	0	0	0	0	509	431	
7	0	0	0	0	508	431	
8	0	0	0	0	507	431	
9	0	0	0	0	506	431	
10	0	0	0	0	504	431	
11	0	0	0	0	503	432	
12	0	0	0	0	502	431	
13	0	0	0	0	500	431	
14	0	0	0	0	499	431	
15	0	0	0	0	498	431	
0	0	0	0	0	496	430	
1	0	0	0	0	496	430	
2	0	0	0	0	496	430	
3	0	0	0	0	495	431	
4	0	0	0	0	495	431	
5	0	0	0	0	495	430	
6	0	0	0	0	494	430	
7	0	0	0	0	494	430	
8	0	0	0	0	494	430	
9	0	0	0	0	495	430	
10	0	0	0	0	496	430	
11	0	0	0	0	499	430	
12	0	0	0	0	504	429	
13	0	0	0	0	509	429	
14	0	0	0	0	515	429	
15	0	0	0	0	522	429	
0	0	0	0	0	531	429	
1	0	0	0	0	540	429	
2	0	0	0	0	548	428	
3	0	0	0	0	558	430	
4	0	0	0	0	568	428	
5	0	0	0	0	578	428	
6	0	0	0	0	589	429	
7	0	0	0	0	600	429	
8	0	0	0	0	610	428	
9	0	0	0	0	620	428	
10	0	0	0	0	632	428	
11	0	0	0	0	642	429	
12	0	0	0	0	652	428	
13	0	0	0	0	661	428	
14	0	0	0	0	667	428	
15	0	0	0	0	671	428	
0	0	0	0	0	673	428	
1	0	0	0	0	674	428	
2	0	0	0	0	673	428	
3	0	0	0	0	669	428	
4	0	0	0	0	664	428	
5	0	0	0	0	656	428	
6	0	0	0	0	646	428	
7	0	0	0	0	636	428	
8	0	0	0	0	624	427	
9	0	0	0	0	611	428	
10	0	0	0	0	599	428	
11	0	0	0	0	586	429	
12	0	0	0	0	574	428	
13	0	0	0	0	563	428	
14	0	0	0	0	551	429	
15	0	0	0	0	542	429	
0	0	0	0	0	534	429	
1	0	0	0	0	525	428	
2	0	0	0	0	519	429	
3	0	0	0	0	513	429	
4	0	0	0	0	509	428	
5	0	0	0	0	506	429	
6	0	0	0	0	502	428	
7	0	0	0	0	499	429	
8	0	0	0	0	496	429	
9	0	0	0	0	493	429	
10	0	0	0	0	490	429	
11	0	0	0	0	488	429	
12	0	0	0	0	486	429	
13	0	0	0	0	484	429	
14	0	0	0	0	482	429	
15	0	0	0	0	480	429	
0	0	0	0	0	480	429	
1	0	0	0	0	479	429	
2	0	0	0	0	478	429	
3	0	0	0	0	477	429	
4	0	0	0	0	476	429	
5	0	0	0	0	475	429	
6	0	0	0	0	474	430	
7	0	0	0	0	474	430	
8	0	0	0	0	474	430	
9	0	0	0	0	475	429	
10	0	0	0	0	475	429	
11	0	0	0	0	475	430	
12	0	0	0	0	474	429	
13	0	0	0	0	473	429	
14	0	0	0	0	473	429	
15	0	0	0	0	474	430	
0	0	0	0	0	474	429	
1	0	0	0	0	475	429	
2	0	0	0	0	475	430	
3	0	0	0	0	475	431	
4	0	0	0	0	474	430	
5	0	0	0	0	474	429	
6	0	0	0	0	475	430	
7	0	0	0	0	475	430	
8	0	0	0	0	475	430	
9	0	0	0	0	475	430	
10	0	0	0	0	475	429	
11	0	0	0	0	476	430	
12	0	0	0	0	476	430	
13	0	0	0	0	476	430	
14	0	0	0	0	477	430	
15	0	0	0	0	476	429	
0	0	0	0	0	476	428	
1	0	0	0	0	477	429	
2	0	0	0	0	477	430	
3	0	0	0	0	478	430	
4	0	0	0	0	478	429	
5	0	0	0	0	478	429	
6	0	0	0	0	478	429	
7	0	0	0	0	478	429	
8	0	0	0	0	477	430	
9	0	0	0	0	478	429	
10	0	0	0	0	479	430	
11	0	0	0	0	480	430	
12	0	0	0	0	481	430	
13	0	0	0	0	482	430	
14	0	0	0	0	483	429	
15	0	0	0	0	483	430	
0	0	0	0	0	483	429	
1	0	0	0	0	484	430	
2	0	0	0	0	484	429	
3	0	0	0	0	484	431	
4	0	0	0	0	484	430	
5	0	0	0	0	484	430	
6	0	0	0	0	485	430	
7	0	0	0	0	485	431	
8	0	0	0	0	486	430	
9	0	0	0	0	487	430	
10	0	0	0	0	487	431	
11	0	0	0	0	487	432	
12	0	0	0	0	487	432	
13	0	0	0	0	487	431	
14	0	0	0	0	488	431	
15	0	0	0	0	489	432	
0	0	0	0	0	490	432	
1	0	0	0	0	490	432	
2	0	0	0	0	491	432	
3	0	0	0	0	491	432	
4	0	0	0	0	491	432	
5	0	0	0	0	490	432	
6	0	0	0	0	491	433	
7	0	0	0	0	491	432	
8	0	0	0	0	491	432	
9	0	0	0	0	492	432	
10	0	0	0	0	492	432	
11	0	0	0	0	492	432	
12	0	0	0	0	492	432	
13	0	0	0	0	492	432	
14	0	0	0	0	492	432	
15	0	0	0	0	492	431	
0	0	0	0	0	492	431	
1	0	0	0	0	493	431	
2	0	0	0	0	493	431	
3	0	0	0	0	494	432	
4	0	0	0	0	494	431	
5	0	0	0	0	494	431	
6	0	0	0	0	494	430	
7	0	0	0	0	495	431	
8	0	0	0	0	494	431	
9	0	0	0	0	494	430	
10	0	0	0	0	494	430	
11	0	0	0	0	494	430	
12	0	0	0	0	495	430	
13	0	0	0	0	495	429	
14	0	0	0	0	495	430	
15	0	0	0	0	495	430	
0	0	0	0	0	496	428	
1	0	0	0	0	496	429	
2	0	0	0	0	496	429	
3	0	0	0	0	497	429	
4	0	0	0	0	497	428	
5	0	0	0	0	498	428	
6	0	0	0	0	498	428	
7	0	0	0	0	499	428	
8	0	0	0	0	499	428	
9	0	0	0	0	499	428	
10	0	0	0	0	498	428	
11	0	0	0	0	499	428	
12	0	0	0	0	498	427	
13	0	0	0	0	498	428	
14	0	0	0	0	498	428	
15	0	0	0	0	497	428	
0	0	0	0	0	497	428	
1	0	0	0	0	498	428	
2	0	0	0	0	498	427	
3	0	0	0	0	498	428	
4	0	0	0	0	497	427	
5	0	0	0	0	498	427	
6	0	0	0	0	497	428	
7	0	0	0	0	497	428	
8	0	0	0	0	497	427	
9	0	0	0	0	497	427	
10	0	0	0	0	497	427	
11	0	0	0	0	497	428	
12	0	0	0	0	497	427	
13	0	0	0	0	497	427	
14	0	0	0	0	498	427	
15	0	0	0	0	499	427	
0	0	0	0	0	500	426	
1	0	0	0	0	500	427	
2	0	0	0	0	500	427	
3	0	0	0	0	501	427	
4	0	0	0	0	501	428	
5	0	0	0	0	502	427	
6	0	0	0	0	501	427	
7	0	0	0	0	501	427	
8	0	0	0	0	501	427	
9	0	0	0	0	502	427	
10	0	0	0	0	502	427	
11	0	0	0	0	503	427	
12	0	0	0	0	503	427	
13	0	0	0	0	503	427	
14	0	0	0	0	503	427	
15	0	0	0	0	504	428	
0	0	0	0	0	504	427	
1	0	0	0	0	504	427	
2	0	0	0	0	504	427	
3	0	0	0	0	504	427	
4	0	0	0	0	504	427	
5	0	0	0	0	504	427	
6	0	0	0	0	504	427	
7	0	0	0	0	504	427	
8	0	0	0	0	504	427	
9	0	0	0	0	503	427	
10	0	0	0	0	502	427	
11	0	0	0	0	501	428	
12	0	0	0	0	501	428	
13	0	0	0	0	500	428	
14	0	0	0	0	499	427	
15	0	0	0	0	499	428	
0	0	0	0	0	501	427	
1	0	0	0	0	502	427	
2	0	0	0	0	502	427	
3	0	0	0	0	502	428	
4	0	0	0	0	503	427	
5	0	0	0	0	503	428	
6	0	0	0	0	503	428	
7	0	0	0	0	503	428	
8	0	0	0	0	504	427	
9	0	0	0	0	505	427	
10	0	0	0	0	505	426	
11	0	0	0	0	505	428	
12	0	0	0	0	505	427	
13	0	0	0	0	505	427	
14	0	0	0	0	505	426	
15	0	0	0	0	505	427	
0	0	0	0	0	505	426	
1	0	0	0	0	505	426	
2	0	0	0	0	505	426	
3	0	0	0	0	506	426	
4	0	0	0	0	506	425	
5	0	0	0	0	506	425	
6	0	0	0	0	506	425	
7	0	0	0	0	507	425	
8	0	0	0	0	507	424	
9	0	0	0	0	507	425	
10	0	0	0	0	508	425	
11	0	0	0	0	509	426	
12	0	0	0	0	508	425	
13	0	0	0	0	508	425	
14	0	0	0	0	509	426	
15	0	0	0	0	509	425	
0	0	0	0	0	511	425	
1	0	0	0	0	511	426	
2	0	0	0	0	511	426	
3	0	0	0	0	512	427	
4	0	0	0	0	512	426	
5	0	0	0	0	511	426	
6	0	0	0	0	511	427	
7	0	0	0	0	511	427	
8	0	0	0	0	512	427	
9	0	0	0	0	512	427	
10	0	0	0	0	513	427	
11	0	0	0	0	514	428	
12	0	0	0	0	514	427	
13	0	0	0	0	515	427	
14	0	0	0	0	515	427	
15	0	0	0	0	516	427	
0	0	0	0	0	516	427	
1	0	0	0	0	516	427	
2	0	0	0	0	517	427	
3	0	0	0	0	518	428	
4	0	0	0	0	518	428	
5	0	0	0	0	518	427	
6	0	0	0	0	517	427	
7	0	0	0	0	517	428	
8	0	0	0	0	518	428	
9	0	0	0	0	518	427	
10	0	0	0	0	518	428	
11	0	0	0	0	518	428	
12	0	0	0	0	519	427	
13	0	0	0	0	519	427	
14	0	0	0	0	518	428	
15	0	0	0	0	518	428	
0	0	0	0	0	519	427	
1	0	0	0	0	519	428	
2	0	0	0	0	520	427	
3	0	0	0	0	520	428	
4	0	0	0	0	520	427	
5	0	0	0	0	520	427	
6	0	0	0	0	520	428	
7	0	0	0	0	519	428	
8	0	0	0	0	520	427	
9	0	0	0	0	520	427	
10	0	0	0	0	520	428	
11	0	0	0	0	519	428	
12	0	0	0	0	520	428	
13	0	0	0	0	521	428	
14	0	0	0	0	521	428	
15	0	0	0	0	520	428	
0	0	0	0	0	519	428	
1	0	0	0	0	519	428	
2	0	0	0	0	519	428	
3	0	0	0	0	518	428	
4	0	0	0	0	518	428	
5	0	0	0	0	517	428	
6	0	0	0	0	516	428	
7	0	0	0	0	516	429	
8	0	0	0	0	515	428	
9	0	0	0	0	515	428	
10	0	0	0	0	514	428	
11	0	0	0	0	512	429	
12	0	0	0	0	511	428	
13	0	0	0	0	510	428	
14	0	0	0	0	509	429	
15	0	0	0	0	508	428	
0	0	0	0	0	508	428	
1	0	0	0	0	507	429	
2	0	0	0	0	507	429	
3	0	0	0	0	506	430	
4	0	0	0	0	506	429	
5	0	0	0	0	506	428	
6	0	0	0	0	505	429	
7	0	0	0	0	504	429	
8	0	0	0	0	504	429	
9	0	0	0	0	505	429	
10	0	0	0	0	504	429	
11	0	0	0	0	504	430	
12	0	0	0	0	503	429	
13	0	0	0	0	503	430	
14	0	0	0	0	502	429	
15	0	0	0	0	502	430	
0	0	0	0	0	502	430	
1	0	0	0	0	502	430	
2	0	0	0	0	502	430	
3	0	0	0	0	502	431	
4	0	0	0	0	502	430	
5	0	0	0	0	501	430	
6	0	0	0	0	501	430	
7	0	0	0	0	501	431	
8	0	0	0	0	501	430	
9	0	0	0	0	501	430	
10	0	0	0	0	501	431	
11	0	0	0	0	500	431	
12	0	0	0	0	501	430	
13	0	0	0	0	501	430	
14	0	0	0	0	500	430	
15	0	0	0	0	500	430	
0	0	0	0	0	500	430	
1	0	0	0	0	500	430	
2	0	0	0	0	500	430	
3	0	0	0	0	499	430	
4	0	0	0	0	500	429	
5	0	0	0	0	499	429	
6	0	0	0	0	499	429	
7	0	0	0	0	499	429	
8	0	0	0	0	499	429	
9	0	0	0	0	499	430	
10	0	0	0	0	499	429	
11	0	0	0	0	499	430	
12	0	0	0	0	499	429	
13	0	0	0	0	499	428	
14	0	0	0	0	499	429	
15	0	0	0	0	499	430	
0	0	0	0	0	500	429	
1	0	0	0	0	500	429	
2	0	0	0	0	499	429	
3	0	0	0	0	498	430	
4	0	0	0	0	498	429	
5	0	0	0	0	498	428	
6	0	0	0	0	498	429	
7	0	0	0	0	498	430	
8	0	0	0	0	498	429	
9	0	0	0	0	499	430	
10	0	0	0	0	499	430	
11	0	0	0	0	499	431	
12	0	0	0	0	500	430	
13	0	0	0	0	500	430	
14	0	0	0	0	500	430	
15	0	0	0	0	500	430	
0	0	0	0	0	500	429	
1	0	0	0	0	499	429	
2	0	0	0	0	499	429	
3	0	0	0	0	500	430	
4	0	0	0	0	500	429	
5	0	0	0	0	500	429	
6	0	0	0	0	500	429	
7	0	0	0	0	500	430	
8	0	0	0	0	500	430	
9	0	0	0	0	500	429	
10	0	0	0	0	501	429	
11	0	0	0	0	501	430	
12	0	0	0	0	502	430	
13	0	0	0	0	503	430	
14	0	0	0	0	502	429	
15	0	0	0	0	503	430	
0	0	0	0	0	503	429	
1	0	0	0	0	503	430	
2	0	0	0	0	503	430	
3	0	0	0	0	503	430	
4	0	0	0	0	502	429	
5	0	0	0	0	503	430	
6	0	0	0	0	503	430	
7	0	0	0	0	502	430	
8	0	0	0	0	502	430	
9	0	0	0	0	502	429	
10	0	0	0	0	502	429	
11	0	0	0	0	502	430	
12	0	0	0	0	503	430	
13	0	0	0	0	503	430	
14	0	0	0	0	503	429	
15	0	0	0	0	503	429	
0	0	0	0	0	504	429	
1	0	0	0	0	504	429	
2	0	0	0	0	504	429	
3	0	0	0	0	505	430	
4	0	0	0	0	506	429	
5	0	0	0	0	506	430	
6	0	0	0	0	506	429	
7	0	0	0	0	506	429	
8	0	0	0	0	507	429	
9	0	0	0	0	507	429	
10	0	0	0	0	507	428	
11	0	0	0	0	507	430	
12	0	0	0	0	506	428	
13	0	0	0	0	506	429	
14	0	0	0	0	506	429	
15	0	0	0	0	507	428	
0	0	0	0	0	507	428	
1	0	0	0	0	507	429	
2	0	0	0	0	507	428	
3	0	0	0	0	507	429	
4	0	0	0	0	508	429	
5	0	0	0	0	508	428	
6	0	0	0	0	508	429	
7	0	0	0	0	508	429	
8	0	0	0	0	508	429	
9	0	0	0	0	509	429	
10	0	0	0	0	509	429	
11	0	0	0	0	509	431	
12	0	0	0	0	509	429	
13	0	0	0	0	509	429	
14	0	0	0	0	510	429	
15	0	0	0	0	510	429	
0	0	0	0	0	510	428	
1	0	0	0	0	509	428	
2	0	0	0	0	510	428	
3	0	0	0	0	510	429	
