# OpenSignals Text File Format. Version 1
# {"98:D3:91:FD:69:48": {"position": 0, "device": "bitalino_rev", "device name": "98:D3:91:FD:69:48", "device connection": "BTH98:D3:91:FD:69:48", "sampling rate": 1000, "resolution": [4, 1, 1, 1, 1, 10, 10], "firmware version": 1281, "comments": "", "keywords": "", "mode": 0, "sync interval": 2, "date": "2021-9-8", "time": "18:52:44.368", "channels": [2, 5], "sensor": ["RAW", "RAW"], "label": ["A2", "A5"], "column": ["nSeq", "I1", "I2", "O1", "O2", "A2", "A5"], "special": [{}, {}], "digital IO": [0, 0, 1, 1], "convertedValues": 0}}
# EndOfHeader
0	0	0	0	0	506	578	
1	0	0	0	0	507	578	
2	0	0	0	0	507	578	
3	0	0	0	0	509	573	
4	0	0	0	0	510	578	
5	0	0	0	0	511	578	
6	0	0	0	0	513	579	
7	0	0	0	0	513	583	
8	0	0	0	0	513	579	
9	0	0	0	0	513	578	
10	0	0	0	0	513	578	
11	0	0	0	0	513	573	
12	0	0	0	0	512	578	
13	0	0	0	0	512	578	
14	0	0	0	0	511	578	
15	0	0	0	0	509	582	
0	0	0	0	0	508	577	
1	0	0	0	0	509	578	
2	0	0	0	0	509	577	
3	0	0	0	0	509	574	
4	0	0	0	0	508	578	
5	0	0	0	0	507	577	
6	0	0	0	0	507	578	
7	0	0	0	0	507	582	
8	0	0	0	0	508	577	
9	0	0	0	0	508	577	
10	0	0	0	0	509	577	
11	0	0	0	0	509	572	
12	0	0	0	0	510	577	
13	0	0	0	0	511	577	
14	0	0	0	0	511	577	
15	0	0	0	0	511	582	
0	0	0	0	0	511	577	
1	0	0	0	0	511	578	
2	0	0	0	0	511	578	
3	0	0	0	0	512	574	
4	0	0	0	0	512	578	
5	0	0	0	0	513	578	
6	0	0	0	0	513	579	
7	0	0	0	0	514	582	
8	0	0	0	0	514	578	
9	0	0	0	0	515	578	
10	0	0	0	0	516	579	
11	0	0	0	0	516	574	
12	0	0	0	0	515	578	
13	0	0	0	0	516	579	
14	0	0	0	0	516	579	
15	0	0	0	0	516	583	
0	0	0	0	0	516	579	
1	0	0	0	0	517	579	
2	0	0	0	0	518	579	
3	0	0	0	0	519	574	
4	0	0	0	0	519	579	
5	0	0	0	0	519	579	
6	0	0	0	0	517	579	
7	0	0	0	0	515	583	
8	0	0	0	0	514	579	
9	0	0	0	0	513	578	
10	0	0	0	0	512	579	
11	0	0	0	0	510	574	
12	0	0	0	0	509	579	
13	0	0	0	0	509	579	
14	0	0	0	0	510	578	
15	0	0	0	0	510	582	
0	0	0	0	0	511	578	
1	0	0	0	0	512	578	
2	0	0	0	0	513	578	
3	0	0	0	0	515	574	
4	0	0	0	0	518	579	
5	0	0	0	0	520	578	
6	0	0	0	0	521	578	
7	0	0	0	0	521	583	
8	0	0	0	0	520	578	
9	0	0	0	0	518	578	
10	0	0	0	0	515	578	
11	0	0	0	0	512	574	
12	0	0	0	0	510	578	
13	0	0	0	0	509	578	
14	0	0	0	0	508	577	
15	0	0	0	0	508	582	
0	0	0	0	0	509	578	
1	0	0	0	0	509	578	
2	0	0	0	0	510	577	
3	0	0	0	0	512	573	
4	0	0	0	0	514	577	
5	0	0	0	0	516	577	
6	0	0	0	0	518	577	
7	0	0	0	0	519	581	
8	0	0	0	0	521	577	
9	0	0	0	0	522	576	
10	0	0	0	0	520	577	
11	0	0	0	0	516	572	
12	0	0	0	0	513	575	
13	0	0	0	0	510	576	
14	0	0	0	0	509	576	
15	0	0	0	0	509	581	
0	0	0	0	0	508	576	
1	0	0	0	0	508	576	
2	0	0	0	0	510	575	
3	0	0	0	0	512	571	
4	0	0	0	0	515	576	
5	0	0	0	0	516	575	
6	0	0	0	0	518	575	
7	0	0	0	0	519	579	
8	0	0	0	0	522	575	
9	0	0	0	0	523	575	
10	0	0	0	0	524	575	
11	0	0	0	0	524	571	
12	0	0	0	0	524	575	
13	0	0	0	0	523	575	
14	0	0	0	0	522	575	
15	0	0	0	0	521	579	
0	0	0	0	0	519	575	
1	0	0	0	0	517	574	
2	0	0	0	0	515	574	
3	0	0	0	0	513	569	
4	0	0	0	0	510	574	
5	0	0	0	0	508	575	
6	0	0	0	0	508	574	
7	0	0	0	0	508	578	
8	0	0	0	0	509	574	
9	0	0	0	0	509	573	
10	0	0	0	0	510	573	
11	0	0	0	0	511	569	
12	0	0	0	0	511	574	
13	0	0	0	0	512	573	
14	0	0	0	0	512	574	
15	0	0	0	0	513	577	
0	0	0	0	0	512	573	
1	0	0	0	0	512	574	
2	0	0	0	0	511	573	
3	0	0	0	0	509	569	
4	0	0	0	0	505	574	
5	0	0	0	0	504	574	
6	0	0	0	0	504	574	
7	0	0	0	0	507	579	
8	0	0	0	0	508	574	
9	0	0	0	0	508	574	
10	0	0	0	0	509	574	
11	0	0	0	0	509	571	
12	0	0	0	0	511	575	
13	0	0	0	0	512	575	
14	0	0	0	0	512	576	
15	0	0	0	0	513	580	
0	0	0	0	0	513	577	
1	0	0	0	0	514	576	
2	0	0	0	0	516	576	
3	0	0	0	0	518	572	
4	0	0	0	0	520	577	
5	0	0	0	0	521	577	
6	0	0	0	0	520	578	
7	0	0	0	0	519	582	
8	0	0	0	0	518	577	
9	0	0	0	0	517	578	
10	0	0	0	0	516	578	
11	0	0	0	0	515	574	
12	0	0	0	0	513	578	
13	0	0	0	0	513	579	
14	0	0	0	0	513	579	
15	0	0	0	0	512	583	
0	0	0	0	0	513	579	
1	0	0	0	0	513	579	
2	0	0	0	0	514	579	
3	0	0	0	0	515	574	
4	0	0	0	0	517	579	
5	0	0	0	0	518	579	
6	0	0	0	0	519	579	
7	0	0	0	0	519	583	
8	0	0	0	0	518	579	
9	0	0	0	0	518	580	
10	0	0	0	0	519	580	
11	0	0	0	0	520	576	
12	0	0	0	0	521	580	
13	0	0	0	0	522	580	
14	0	0	0	0	522	581	
15	0	0	0	0	520	584	
0	0	0	0	0	516	580	
1	0	0	0	0	513	580	
2	0	0	0	0	511	580	
3	0	0	0	0	510	576	
4	0	0	0	0	511	580	
5	0	0	0	0	512	579	
6	0	0	0	0	514	581	
7	0	0	0	0	519	584	
8	0	0	0	0	523	580	
9	0	0	0	0	526	580	
10	0	0	0	0	527	580	
11	0	0	0	0	528	575	
12	0	0	0	0	529	579	
13	0	0	0	0	529	579	
14	0	0	0	0	529	579	
15	0	0	0	0	528	583	
0	0	0	0	0	527	579	
1	0	0	0	0	526	579	
2	0	0	0	0	526	579	
3	0	0	0	0	525	574	
4	0	0	0	0	524	579	
5	0	0	0	0	523	579	
6	0	0	0	0	521	579	
7	0	0	0	0	521	583	
8	0	0	0	0	520	579	
9	0	0	0	0	519	579	
10	0	0	0	0	519	578	
11	0	0	0	0	519	574	
12	0	0	0	0	519	578	
13	0	0	0	0	519	578	
14	0	0	0	0	520	578	
15	0	0	0	0	523	582	
0	0	0	0	0	524	578	
1	0	0	0	0	524	577	
2	0	0	0	0	523	577	
3	0	0	0	0	522	573	
4	0	0	0	0	521	577	
5	0	0	0	0	518	577	
6	0	0	0	0	517	578	
7	0	0	0	0	516	581	
8	0	0	0	0	516	577	
9	0	0	0	0	516	577	
10	0	0	0	0	516	576	
11	0	0	0	0	516	572	
12	0	0	0	0	515	577	
13	0	0	0	0	515	577	
14	0	0	0	0	516	577	
15	0	0	0	0	517	582	
0	0	0	0	0	517	577	
1	0	0	0	0	516	578	
2	0	0	0	0	516	578	
3	0	0	0	0	516	573	
4	0	0	0	0	517	578	
5	0	0	0	0	518	578	
6	0	0	0	0	518	578	
7	0	0	0	0	519	582	
8	0	0	0	0	520	578	
9	0	0	0	0	521	578	
10	0	0	0	0	522	578	
11	0	0	0	0	520	575	
12	0	0	0	0	519	578	
13	0	0	0	0	516	579	
14	0	0	0	0	513	578	
15	0	0	0	0	509	582	
0	0	0	0	0	508	578	
1	0	0	0	0	507	578	
2	0	0	0	0	508	578	
3	0	0	0	0	510	574	
4	0	0	0	0	512	579	
5	0	0	0	0	512	579	
6	0	0	0	0	512	579	
7	0	0	0	0	512	582	
8	0	0	0	0	512	577	
9	0	0	0	0	512	578	
10	0	0	0	0	510	578	
11	0	0	0	0	508	574	
12	0	0	0	0	507	579	
13	0	0	0	0	505	578	
14	0	0	0	0	502	579	
15	0	0	0	0	498	582	
0	0	0	0	0	495	578	
1	0	0	0	0	492	578	
2	0	0	0	0	488	578	
3	0	0	0	0	483	574	
4	0	0	0	0	478	579	
5	0	0	0	0	472	578	
6	0	0	0	0	467	579	
7	0	0	0	0	462	582	
8	0	0	0	0	457	578	
9	0	0	0	0	453	578	
10	0	0	0	0	449	577	
11	0	0	0	0	447	573	
12	0	0	0	0	444	578	
13	0	0	0	0	438	577	
14	0	0	0	0	431	577	
15	0	0	0	0	422	581	
0	0	0	0	0	411	577	
1	0	0	0	0	402	577	
2	0	0	0	0	392	577	
3	0	0	0	0	384	573	
4	0	0	0	0	375	577	
5	0	0	0	0	369	577	
6	0	0	0	0	365	577	
7	0	0	0	0	364	582	
8	0	0	0	0	363	578	
9	0	0	0	0	365	578	
10	0	0	0	0	371	577	
11	0	0	0	0	378	574	
12	0	0	0	0	383	577	
13	0	0	0	0	382	578	
14	0	0	0	0	376	579	
15	0	0	0	0	372	582	
0	0	0	0	0	368	578	
1	0	0	0	0	361	579	
2	0	0	0	0	350	578	
3	0	0	0	0	339	574	
4	0	0	0	0	332	578	
5	0	0	0	0	329	578	
6	0	0	0	0	329	579	
7	0	0	0	0	330	582	
8	0	0	0	0	329	579	
9	0	0	0	0	329	579	
10	0	0	0	0	329	579	
11	0	0	0	0	330	575	
12	0	0	0	0	333	579	
13	0	0	0	0	341	579	
14	0	0	0	0	354	579	
15	0	0	0	0	373	582	
0	0	0	0	0	396	579	
1	0	0	0	0	422	579	
2	0	0	0	0	450	578	
3	0	0	0	0	485	574	
4	0	0	0	0	526	578	
5	0	0	0	0	567	579	
6	0	0	0	0	602	579	
7	0	0	0	0	627	582	
8	0	0	0	0	639	579	
9	0	0	0	0	643	578	
10	0	0	0	0	641	578	
11	0	0	0	0	635	574	
12	0	0	0	0	626	579	
13	0	0	0	0	617	579	
14	0	0	0	0	607	579	
15	0	0	0	0	596	583	
0	0	0	0	0	585	579	
1	0	0	0	0	575	578	
2	0	0	0	0	568	579	
3	0	0	0	0	563	574	
4	0	0	0	0	559	579	
5	0	0	0	0	556	579	
6	0	0	0	0	555	579	
7	0	0	0	0	554	583	
8	0	0	0	0	553	579	
9	0	0	0	0	553	578	
10	0	0	0	0	553	579	
11	0	0	0	0	552	574	
12	0	0	0	0	553	579	
13	0	0	0	0	555	579	
14	0	0	0	0	555	579	
15	0	0	0	0	556	583	
0	0	0	0	0	556	579	
1	0	0	0	0	556	579	
2	0	0	0	0	554	579	
3	0	0	0	0	552	574	
4	0	0	0	0	552	579	
5	0	0	0	0	551	578	
6	0	0	0	0	551	578	
7	0	0	0	0	551	582	
8	0	0	0	0	551	578	
9	0	0	0	0	550	578	
10	0	0	0	0	548	578	
11	0	0	0	0	549	574	
12	0	0	0	0	550	578	
13	0	0	0	0	549	578	
14	0	0	0	0	548	579	
15	0	0	0	0	548	583	
0	0	0	0	0	548	578	
1	0	0	0	0	548	579	
2	0	0	0	0	547	578	
3	0	0	0	0	545	574	
4	0	0	0	0	542	579	
5	0	0	0	0	539	579	
6	0	0	0	0	539	579	
7	0	0	0	0	538	583	
8	0	0	0	0	536	579	
9	0	0	0	0	536	579	
10	0	0	0	0	537	579	
11	0	0	0	0	538	575	
12	0	0	0	0	540	580	
13	0	0	0	0	541	580	
14	0	0	0	0	542	580	
15	0	0	0	0	543	584	
0	0	0	0	0	543	581	
1	0	0	0	0	544	581	
2	0	0	0	0	545	581	
3	0	0	0	0	544	576	
4	0	0	0	0	543	581	
5	0	0	0	0	542	581	
6	0	0	0	0	539	581	
7	0	0	0	0	536	585	
8	0	0	0	0	531	581	
9	0	0	0	0	527	581	
10	0	0	0	0	525	581	
11	0	0	0	0	525	576	
12	0	0	0	0	525	581	
13	0	0	0	0	525	580	
14	0	0	0	0	526	581	
15	0	0	0	0	526	584	
0	0	0	0	0	526	581	
1	0	0	0	0	527	581	
2	0	0	0	0	528	581	
3	0	0	0	0	528	577	
4	0	0	0	0	529	581	
5	0	0	0	0	529	581	
6	0	0	0	0	530	581	
7	0	0	0	0	533	585	
8	0	0	0	0	536	581	
9	0	0	0	0	537	581	
10	0	0	0	0	537	581	
11	0	0	0	0	533	576	
12	0	0	0	0	528	581	
13	0	0	0	0	526	581	
14	0	0	0	0	524	581	
15	0	0	0	0	525	584	
0	0	0	0	0	526	581	
1	0	0	0	0	527	580	
2	0	0	0	0	529	580	
3	0	0	0	0	530	575	
4	0	0	0	0	531	580	
5	0	0	0	0	531	579	
6	0	0	0	0	531	580	
7	0	0	0	0	531	583	
8	0	0	0	0	530	579	
9	0	0	0	0	526	578	
10	0	0	0	0	525	579	
11	0	0	0	0	524	574	
12	0	0	0	0	522	578	
13	0	0	0	0	520	578	
14	0	0	0	0	520	578	
15	0	0	0	0	519	582	
0	0	0	0	0	519	578	
1	0	0	0	0	517	578	
2	0	0	0	0	513	577	
3	0	0	0	0	511	572	
4	0	0	0	0	508	577	
5	0	0	0	0	504	577	
6	0	0	0	0	504	577	
7	0	0	0	0	504	581	
8	0	0	0	0	507	576	
9	0	0	0	0	509	576	
10	0	0	0	0	511	575	
11	0	0	0	0	511	571	
12	0	0	0	0	510	576	
13	0	0	0	0	510	576	
14	0	0	0	0	510	577	
15	0	0	0	0	510	580	
0	0	0	0	0	509	576	
1	0	0	0	0	507	577	
2	0	0	0	0	507	576	
3	0	0	0	0	506	572	
4	0	0	0	0	506	577	
5	0	0	0	0	504	576	
6	0	0	0	0	503	577	
7	0	0	0	0	500	581	
8	0	0	0	0	499	577	
9	0	0	0	0	497	577	
10	0	0	0	0	497	577	
11	0	0	0	0	496	573	
12	0	0	0	0	496	576	
13	0	0	0	0	496	578	
14	0	0	0	0	496	579	
15	0	0	0	0	498	582	
0	0	0	0	0	499	577	
1	0	0	0	0	501	578	
2	0	0	0	0	503	578	
3	0	0	0	0	504	573	
4	0	0	0	0	504	578	
5	0	0	0	0	504	578	
6	0	0	0	0	502	578	
7	0	0	0	0	501	582	
8	0	0	0	0	497	579	
9	0	0	0	0	495	579	
10	0	0	0	0	493	579	
11	0	0	0	0	492	574	
12	0	0	0	0	492	579	
13	0	0	0	0	492	579	
14	0	0	0	0	493	579	
15	0	0	0	0	494	584	
0	0	0	0	0	496	579	
1	0	0	0	0	496	581	
2	0	0	0	0	496	579	
3	0	0	0	0	496	576	
4	0	0	0	0	495	580	
5	0	0	0	0	494	580	
6	0	0	0	0	493	581	
7	0	0	0	0	493	585	
8	0	0	0	0	494	580	
9	0	0	0	0	496	582	
10	0	0	0	0	496	580	
11	0	0	0	0	498	577	
12	0	0	0	0	500	581	
13	0	0	0	0	501	581	
14	0	0	0	0	501	581	
15	0	0	0	0	500	585	
0	0	0	0	0	499	582	
1	0	0	0	0	499	582	
2	0	0	0	0	499	581	
3	0	0	0	0	500	576	
4	0	0	0	0	502	582	
5	0	0	0	0	503	582	
6	0	0	0	0	506	582	
7	0	0	0	0	506	585	
8	0	0	0	0	507	581	
9	0	0	0	0	507	581	
10	0	0	0	0	508	581	
11	0	0	0	0	510	575	
12	0	0	0	0	510	580	
13	0	0	0	0	512	580	
14	0	0	0	0	513	580	
15	0	0	0	0	514	583	
0	0	0	0	0	514	579	
1	0	0	0	0	514	579	
2	0	0	0	0	515	579	
3	0	0	0	0	515	575	
4	0	0	0	0	515	579	
5	0	0	0	0	517	579	
6	0	0	0	0	518	579	
7	0	0	0	0	519	582	
8	0	0	0	0	519	577	
9	0	0	0	0	519	578	
10	0	0	0	0	520	577	
11	0	0	0	0	523	573	
12	0	0	0	0	526	578	
13	0	0	0	0	529	578	
14	0	0	0	0	531	578	
15	0	0	0	0	532	582	
0	0	0	0	0	531	577	
1	0	0	0	0	529	577	
2	0	0	0	0	528	577	
3	0	0	0	0	528	572	
4	0	0	0	0	527	577	
5	0	0	0	0	527	577	
6	0	0	0	0	527	577	
7	0	0	0	0	527	582	
8	0	0	0	0	526	578	
9	0	0	0	0	526	577	
10	0	0	0	0	526	576	
11	0	0	0	0	525	572	
12	0	0	0	0	524	577	
13	0	0	0	0	523	577	
14	0	0	0	0	520	578	
15	0	0	0	0	516	582	
0	0	0	0	0	515	577	
1	0	0	0	0	515	577	
2	0	0	0	0	516	577	
3	0	0	0	0	517	573	
4	0	0	0	0	519	577	
5	0	0	0	0	521	578	
6	0	0	0	0	523	577	
7	0	0	0	0	523	581	
8	0	0	0	0	524	577	
9	0	0	0	0	525	577	
10	0	0	0	0	528	577	
11	0	0	0	0	531	572	
12	0	0	0	0	534	577	
13	0	0	0	0	536	577	
14	0	0	0	0	536	577	
15	0	0	0	0	535	582	
0	0	0	0	0	534	577	
1	0	0	0	0	533	577	
2	0	0	0	0	532	576	
3	0	0	0	0	531	572	
4	0	0	0	0	531	577	
5	0	0	0	0	528	577	
6	0	0	0	0	527	577	
7	0	0	0	0	526	581	
8	0	0	0	0	527	577	
9	0	0	0	0	527	577	
10	0	0	0	0	527	577	
11	0	0	0	0	525	573	
12	0	0	0	0	526	577	
13	0	0	0	0	525	577	
14	0	0	0	0	525	577	
15	0	0	0	0	526	582	
0	0	0	0	0	527	577	
1	0	0	0	0	526	576	
2	0	0	0	0	526	576	
3	0	0	0	0	526	572	
4	0	0	0	0	527	576	
5	0	0	0	0	527	576	
6	0	0	0	0	525	576	
7	0	0	0	0	524	580	
8	0	0	0	0	524	576	
9	0	0	0	0	524	576	
10	0	0	0	0	523	575	
11	0	0	0	0	524	571	
12	0	0	0	0	526	576	
13	0	0	0	0	527	576	
14	0	0	0	0	529	576	
15	0	0	0	0	531	580	
0	0	0	0	0	531	576	
1	0	0	0	0	528	576	
2	0	0	0	0	526	576	
3	0	0	0	0	524	572	
4	0	0	0	0	522	577	
5	0	0	0	0	521	576	
6	0	0	0	0	520	576	
7	0	0	0	0	520	581	
8	0	0	0	0	521	577	
9	0	0	0	0	523	577	
10	0	0	0	0	522	577	
11	0	0	0	0	523	573	
12	0	0	0	0	523	577	
13	0	0	0	0	523	577	
14	0	0	0	0	521	577	
15	0	0	0	0	520	580	
0	0	0	0	0	519	577	
1	0	0	0	0	520	577	
2	0	0	0	0	521	577	
3	0	0	0	0	521	574	
4	0	0	0	0	520	577	
5	0	0	0	0	520	578	
6	0	0	0	0	521	578	
7	0	0	0	0	519	582	
8	0	0	0	0	518	578	
9	0	0	0	0	515	578	
10	0	0	0	0	515	577	
11	0	0	0	0	515	574	
12	0	0	0	0	517	578	
13	0	0	0	0	518	578	
14	0	0	0	0	518	579	
15	0	0	0	0	518	582	
0	0	0	0	0	519	578	
1	0	0	0	0	519	578	
2	0	0	0	0	519	577	
3	0	0	0	0	522	573	
4	0	0	0	0	522	577	
5	0	0	0	0	521	577	
6	0	0	0	0	520	576	
7	0	0	0	0	520	581	
8	0	0	0	0	518	576	
9	0	0	0	0	515	577	
10	0	0	0	0	514	577	
11	0	0	0	0	515	572	
12	0	0	0	0	514	576	
13	0	0	0	0	513	577	
14	0	0	0	0	513	577	
15	0	0	0	0	513	582	
0	0	0	0	0	515	577	
1	0	0	0	0	516	577	
2	0	0	0	0	517	577	
3	0	0	0	0	519	573	
4	0	0	0	0	519	577	
5	0	0	0	0	521	576	
6	0	0	0	0	522	577	
7	0	0	0	0	522	581	
8	0	0	0	0	523	577	
9	0	0	0	0	521	577	
10	0	0	0	0	518	576	
11	0	0	0	0	517	573	
12	0	0	0	0	515	577	
13	0	0	0	0	513	577	
14	0	0	0	0	510	578	
15	0	0	0	0	509	582	
0	0	0	0	0	508	579	
1	0	0	0	0	509	579	
2	0	0	0	0	509	578	
3	0	0	0	0	510	573	
4	0	0	0	0	512	578	
5	0	0	0	0	514	578	
6	0	0	0	0	516	578	
7	0	0	0	0	518	582	
8	0	0	0	0	519	578	
9	0	0	0	0	519	578	
10	0	0	0	0	519	578	
11	0	0	0	0	519	573	
12	0	0	0	0	518	578	
13	0	0	0	0	516	578	
14	0	0	0	0	514	578	
15	0	0	0	0	512	582	
0	0	0	0	0	511	578	
1	0	0	0	0	510	578	
2	0	0	0	0	509	577	
3	0	0	0	0	510	573	
4	0	0	0	0	510	577	
5	0	0	0	0	511	578	
6	0	0	0	0	510	577	
7	0	0	0	0	511	582	
8	0	0	0	0	511	577	
9	0	0	0	0	512	578	
10	0	0	0	0	512	578	
11	0	0	0	0	512	573	
12	0	0	0	0	514	578	
13	0	0	0	0	515	578	
14	0	0	0	0	515	578	
15	0	0	0	0	516	582	
0	0	0	0	0	516	578	
1	0	0	0	0	516	578	
2	0	0	0	0	518	578	
3	0	0	0	0	520	574	
4	0	0	0	0	520	578	
5	0	0	0	0	519	578	
6	0	0	0	0	519	577	
7	0	0	0	0	517	582	
8	0	0	0	0	516	579	
9	0	0	0	0	515	579	
10	0	0	0	0	514	579	
11	0	0	0	0	514	574	
12	0	0	0	0	514	579	
13	0	0	0	0	513	579	
14	0	0	0	0	512	579	
15	0	0	0	0	513	583	
0	0	0	0	0	514	578	
1	0	0	0	0	515	579	
2	0	0	0	0	515	579	
3	0	0	0	0	515	574	
4	0	0	0	0	514	579	
5	0	0	0	0	514	579	
6	0	0	0	0	514	579	
7	0	0	0	0	515	584	
8	0	0	0	0	515	580	
9	0	0	0	0	515	579	
10	0	0	0	0	515	579	
11	0	0	0	0	513	575	
12	0	0	0	0	512	580	
13	0	0	0	0	511	580	
14	0	0	0	0	511	580	
15	0	0	0	0	511	584	
0	0	0	0	0	512	580	
1	0	0	0	0	512	581	
2	0	0	0	0	513	580	
3	0	0	0	0	515	576	
4	0	0	0	0	515	580	
5	0	0	0	0	514	581	
6	0	0	0	0	514	581	
7	0	0	0	0	513	585	
8	0	0	0	0	513	580	
9	0	0	0	0	511	580	
10	0	0	0	0	511	580	
11	0	0	0	0	512	575	
12	0	0	0	0	511	579	
13	0	0	0	0	510	580	
14	0	0	0	0	508	580	
15	0	0	0	0	507	583	
0	0	0	0	0	507	580	
1	0	0	0	0	505	580	
2	0	0	0	0	504	579	
3	0	0	0	0	503	575	
4	0	0	0	0	503	580	
5	0	0	0	0	503	580	
6	0	0	0	0	503	579	
7	0	0	0	0	504	583	
8	0	0	0	0	505	580	
9	0	0	0	0	507	580	
10	0	0	0	0	508	579	
11	0	0	0	0	509	575	
12	0	0	0	0	508	580	
13	0	0	0	0	507	579	
14	0	0	0	0	508	580	
15	0	0	0	0	508	584	
0	0	0	0	0	507	579	
1	0	0	0	0	505	579	
2	0	0	0	0	504	579	
3	0	0	0	0	505	575	
4	0	0	0	0	505	580	
5	0	0	0	0	505	580	
6	0	0	0	0	506	579	
7	0	0	0	0	508	584	
8	0	0	0	0	511	579	
9	0	0	0	0	512	580	
10	0	0	0	0	515	579	
11	0	0	0	0	516	575	
12	0	0	0	0	516	579	
13	0	0	0	0	515	580	
14	0	0	0	0	514	580	
15	0	0	0	0	512	583	
0	0	0	0	0	512	579	
1	0	0	0	0	511	579	
2	0	0	0	0	510	579	
3	0	0	0	0	509	575	
4	0	0	0	0	509	579	
5	0	0	0	0	509	580	
6	0	0	0	0	510	580	
7	0	0	0	0	511	584	
8	0	0	0	0	513	580	
9	0	0	0	0	514	580	
10	0	0	0	0	515	580	
11	0	0	0	0	515	575	
12	0	0	0	0	515	581	
13	0	0	0	0	515	580	
14	0	0	0	0	514	580	
15	0	0	0	0	513	584	
0	0	0	0	0	512	581	
1	0	0	0	0	511	581	
2	0	0	0	0	510	580	
3	0	0	0	0	510	575	
4	0	0	0	0	511	580	
5	0	0	0	0	512	580	
6	0	0	0	0	513	580	
7	0	0	0	0	514	584	
8	0	0	0	0	515	580	
9	0	0	0	0	514	580	
10	0	0	0	0	514	580	
11	0	0	0	0	515	575	
12	0	0	0	0	514	579	
13	0	0	0	0	515	580	
14	0	0	0	0	516	580	
15	0	0	0	0	516	584	
0	0	0	0	0	515	579	
1	0	0	0	0	515	580	
2	0	0	0	0	515	579	
3	0	0	0	0	515	575	
4	0	0	0	0	515	580	
5	0	0	0	0	515	580	
6	0	0	0	0	515	580	
7	0	0	0	0	517	583	
8	0	0	0	0	517	579	
9	0	0	0	0	516	580	
10	0	0	0	0	515	579	
11	0	0	0	0	514	575	
12	0	0	0	0	512	579	
13	0	0	0	0	510	579	
14	0	0	0	0	507	579	
15	0	0	0	0	508	583	
0	0	0	0	0	509	579	
1	0	0	0	0	511	579	
2	0	0	0	0	513	579	
3	0	0	0	0	515	574	
4	0	0	0	0	516	579	
5	0	0	0	0	517	579	
6	0	0	0	0	515	579	
7	0	0	0	0	516	584	
8	0	0	0	0	516	579	
9	0	0	0	0	517	579	
10	0	0	0	0	517	579	
11	0	0	0	0	517	575	
12	0	0	0	0	518	580	
13	0	0	0	0	518	579	
14	0	0	0	0	517	579	
15	0	0	0	0	516	583	
0	0	0	0	0	515	578	
1	0	0	0	0	513	579	
2	0	0	0	0	513	579	
3	0	0	0	0	512	575	
4	0	0	0	0	511	579	
5	0	0	0	0	511	579	
6	0	0	0	0	511	579	
7	0	0	0	0	512	582	
8	0	0	0	0	514	578	
9	0	0	0	0	515	578	
10	0	0	0	0	516	577	
11	0	0	0	0	517	574	
12	0	0	0	0	517	577	
13	0	0	0	0	518	577	
14	0	0	0	0	518	577	
15	0	0	0	0	517	581	
0	0	0	0	0	517	577	
1	0	0	0	0	516	577	
2	0	0	0	0	514	577	
3	0	0	0	0	512	572	
4	0	0	0	0	512	576	
5	0	0	0	0	512	577	
6	0	0	0	0	511	577	
7	0	0	0	0	511	580	
8	0	0	0	0	511	576	
9	0	0	0	0	511	576	
10	0	0	0	0	510	576	
11	0	0	0	0	510	571	
12	0	0	0	0	510	576	
13	0	0	0	0	510	576	
14	0	0	0	0	510	576	
15	0	0	0	0	510	580	
0	0	0	0	0	510	576	
1	0	0	0	0	510	576	
2	0	0	0	0	508	576	
3	0	0	0	0	505	572	
4	0	0	0	0	503	576	
5	0	0	0	0	500	576	
6	0	0	0	0	498	576	
7	0	0	0	0	496	580	
8	0	0	0	0	493	576	
9	0	0	0	0	490	576	
10	0	0	0	0	487	576	
11	0	0	0	0	483	572	
12	0	0	0	0	480	577	
13	0	0	0	0	476	576	
14	0	0	0	0	472	576	
15	0	0	0	0	467	580	
0	0	0	0	0	463	576	
1	0	0	0	0	457	576	
2	0	0	0	0	452	576	
3	0	0	0	0	446	571	
4	0	0	0	0	440	576	
5	0	0	0	0	432	576	
6	0	0	0	0	424	576	
7	0	0	0	0	416	580	
8	0	0	0	0	407	576	
9	0	0	0	0	398	576	
10	0	0	0	0	388	576	
11	0	0	0	0	379	572	
12	0	0	0	0	370	577	
13	0	0	0	0	363	577	
14	0	0	0	0	360	576	
15	0	0	0	0	359	581	
0	0	0	0	0	359	577	
1	0	0	0	0	360	576	
2	0	0	0	0	364	577	
3	0	0	0	0	370	572	
4	0	0	0	0	373	576	
5	0	0	0	0	372	577	
6	0	0	0	0	368	577	
7	0	0	0	0	363	580	
8	0	0	0	0	358	577	
9	0	0	0	0	350	576	
10	0	0	0	0	339	576	
11	0	0	0	0	329	572	
12	0	0	0	0	324	576	
13	0	0	0	0	321	576	
14	0	0	0	0	321	576	
15	0	0	0	0	322	580	
0	0	0	0	0	323	576	
1	0	0	0	0	322	576	
2	0	0	0	0	324	576	
3	0	0	0	0	327	572	
4	0	0	0	0	332	576	
5	0	0	0	0	342	577	
6	0	0	0	0	358	576	
7	0	0	0	0	380	581	
8	0	0	0	0	405	577	
9	0	0	0	0	432	577	
10	0	0	0	0	462	576	
11	0	0	0	0	498	572	
12	0	0	0	0	540	577	
13	0	0	0	0	581	578	
14	0	0	0	0	613	577	
15	0	0	0	0	633	581	
0	0	0	0	0	641	577	
1	0	0	0	0	641	577	
2	0	0	0	0	636	577	
3	0	0	0	0	627	573	
4	0	0	0	0	615	578	
5	0	0	0	0	604	577	
6	0	0	0	0	593	578	
7	0	0	0	0	583	582	
8	0	0	0	0	573	578	
9	0	0	0	0	566	579	
10	0	0	0	0	560	578	
11	0	0	0	0	555	574	
12	0	0	0	0	552	578	
13	0	0	0	0	550	579	
14	0	0	0	0	548	578	
15	0	0	0	0	547	583	
0	0	0	0	0	547	578	
1	0	0	0	0	547	578	
2	0	0	0	0	547	577	
3	0	0	0	0	548	574	
4	0	0	0	0	547	579	
5	0	0	0	0	547	579	
6	0	0	0	0	547	579	
7	0	0	0	0	547	583	
8	0	0	0	0	546	579	
9	0	0	0	0	544	579	
10	0	0	0	0	543	579	
11	0	0	0	0	542	575	
12	0	0	0	0	542	580	
13	0	0	0	0	542	580	
14	0	0	0	0	543	580	
15	0	0	0	0	544	584	
0	0	0	0	0	546	580	
1	0	0	0	0	546	580	
2	0	0	0	0	547	580	
3	0	0	0	0	547	575	
4	0	0	0	0	545	580	
5	0	0	0	0	544	580	
6	0	0	0	0	543	580	
7	0	0	0	0	542	583	
8	0	0	0	0	542	580	
9	0	0	0	0	540	580	
10	0	0	0	0	539	579	
11	0	0	0	0	537	575	
12	0	0	0	0	535	579	
13	0	0	0	0	533	579	
14	0	0	0	0	532	579	
15	0	0	0	0	531	583	
0	0	0	0	0	530	578	
1	0	0	0	0	529	578	
2	0	0	0	0	530	578	
3	0	0	0	0	530	573	
4	0	0	0	0	531	577	
5	0	0	0	0	531	578	
6	0	0	0	0	533	578	
7	0	0	0	0	533	582	
8	0	0	0	0	534	577	
9	0	0	0	0	533	577	
10	0	0	0	0	533	577	
11	0	0	0	0	532	573	
12	0	0	0	0	532	577	
13	0	0	0	0	531	577	
14	0	0	0	0	530	577	
15	0	0	0	0	530	581	
0	0	0	0	0	529	576	
1	0	0	0	0	528	576	
2	0	0	0	0	527	577	
3	0	0	0	0	525	572	
4	0	0	0	0	523	576	
5	0	0	0	0	520	576	
6	0	0	0	0	519	577	
7	0	0	0	0	518	580	
8	0	0	0	0	518	577	
9	0	0	0	0	519	576	
10	0	0	0	0	519	576	
11	0	0	0	0	521	572	
12	0	0	0	0	522	576	
13	0	0	0	0	523	576	
14	0	0	0	0	523	576	
15	0	0	0	0	523	580	
0	0	0	0	0	522	576	
1	0	0	0	0	521	576	
2	0	0	0	0	521	576	
3	0	0	0	0	520	572	
4	0	0	0	0	519	577	
5	0	0	0	0	517	577	
6	0	0	0	0	515	577	
7	0	0	0	0	513	582	
8	0	0	0	0	512	577	
9	0	0	0	0	511	577	
10	0	0	0	0	510	577	
11	0	0	0	0	510	572	
12	0	0	0	0	512	578	
13	0	0	0	0	513	578	
14	0	0	0	0	514	578	
15	0	0	0	0	516	582	
0	0	0	0	0	517	578	
1	0	0	0	0	518	579	
2	0	0	0	0	519	578	
3	0	0	0	0	519	574	
4	0	0	0	0	518	579	
5	0	0	0	0	516	579	
6	0	0	0	0	515	579	
7	0	0	0	0	512	583	
8	0	0	0	0	510	579	
9	0	0	0	0	506	579	
10	0	0	0	0	504	579	
11	0	0	0	0	501	575	
12	0	0	0	0	500	580	
13	0	0	0	0	499	579	
14	0	0	0	0	499	579	
15	0	0	0	0	499	583	
0	0	0	0	0	500	579	
1	0	0	0	0	501	579	
2	0	0	0	0	503	579	
3	0	0	0	0	503	575	
4	0	0	0	0	504	579	
5	0	0	0	0	504	579	
6	0	0	0	0	504	579	
7	0	0	0	0	504	583	
8	0	0	0	0	502	579	
9	0	0	0	0	500	579	
10	0	0	0	0	499	578	
11	0	0	0	0	496	574	
12	0	0	0	0	495	579	
13	0	0	0	0	493	579	
14	0	0	0	0	492	578	
15	0	0	0	0	491	583	
0	0	0	0	0	491	579	
1	0	0	0	0	490	579	
2	0	0	0	0	491	579	
3	0	0	0	0	491	574	
4	0	0	0	0	492	578	
5	0	0	0	0	494	578	
6	0	0	0	0	495	579	
7	0	0	0	0	495	583	
8	0	0	0	0	495	579	
9	0	0	0	0	494	578	
10	0	0	0	0	494	579	
11	0	0	0	0	492	574	
12	0	0	0	0	490	579	
13	0	0	0	0	488	578	
14	0	0	0	0	488	579	
15	0	0	0	0	488	583	
0	0	0	0	0	487	579	
1	0	0	0	0	486	579	
2	0	0	0	0	485	579	
3	0	0	0	0	484	575	
4	0	0	0	0	484	579	
5	0	0	0	0	484	579	
6	0	0	0	0	483	580	
7	0	0	0	0	483	584	
8	0	0	0	0	484	580	
9	0	0	0	0	485	580	
10	0	0	0	0	485	580	
11	0	0	0	0	485	575	
12	0	0	0	0	485	581	
13	0	0	0	0	486	580	
14	0	0	0	0	486	580	
15	0	0	0	0	487	585	
0	0	0	0	0	488	580	
1	0	0	0	0	490	580	
2	0	0	0	0	491	580	
3	0	0	0	0	492	575	
4	0	0	0	0	492	580	
5	0	0	0	0	493	580	
6	0	0	0	0	492	580	
7	0	0	0	0	492	583	
8	0	0	0	0	493	580	
9	0	0	0	0	493	579	
10	0	0	0	0	495	579	
11	0	0	0	0	496	575	
12	0	0	0	0	498	579	
13	0	0	0	0	499	579	
14	0	0	0	0	501	578	
15	0	0	0	0	501	583	
0	0	0	0	0	502	579	
1	0	0	0	0	503	579	
2	0	0	0	0	503	579	
3	0	0	0	0	503	574	
4	0	0	0	0	503	578	
5	0	0	0	0	504	579	
6	0	0	0	0	505	578	
7	0	0	0	0	506	583	
8	0	0	0	0	507	579	
9	0	0	0	0	507	578	
10	0	0	0	0	507	578	
11	0	0	0	0	508	574	
12	0	0	0	0	509	578	
13	0	0	0	0	511	579	
14	0	0	0	0	512	579	
15	0	0	0	0	513	583	
0	0	0	0	0	516	578	
1	0	0	0	0	517	577	
2	0	0	0	0	519	578	
3	0	0	0	0	519	573	
4	0	0	0	0	519	578	
5	0	0	0	0	519	577	
6	0	0	0	0	519	577	
7	0	0	0	0	518	582	
8	0	0	0	0	518	577	
9	0	0	0	0	517	577	
10	0	0	0	0	518	577	
11	0	0	0	0	518	572	
12	0	0	0	0	517	577	
13	0	0	0	0	516	577	
14	0	0	0	0	517	577	
15	0	0	0	0	517	580	
0	0	0	0	0	516	576	
1	0	0	0	0	517	577	
2	0	0	0	0	518	577	
3	0	0	0	0	519	573	
4	0	0	0	0	521	578	
5	0	0	0	0	522	577	
6	0	0	0	0	524	577	
7	0	0	0	0	525	581	
8	0	0	0	0	526	578	
9	0	0	0	0	526	577	
10	0	0	0	0	526	577	
11	0	0	0	0	526	573	
12	0	0	0	0	526	578	
13	0	0	0	0	526	578	
14	0	0	0	0	525	578	
15	0	0	0	0	524	582	
0	0	0	0	0	522	578	
1	0	0	0	0	521	578	
2	0	0	0	0	520	577	
3	0	0	0	0	519	574	
4	0	0	0	0	519	578	
5	0	0	0	0	520	578	
6	0	0	0	0	520	578	
7	0	0	0	0	521	582	
8	0	0	0	0	523	578	
9	0	0	0	0	524	578	
10	0	0	0	0	526	578	
11	0	0	0	0	527	575	
12	0	0	0	0	528	579	
13	0	0	0	0	529	579	
14	0	0	0	0	530	579	
15	0	0	0	0	531	583	
0	0	0	0	0	531	580	
1	0	0	0	0	529	579	
2	0	0	0	0	528	580	
3	0	0	0	0	528	575	
4	0	0	0	0	527	580	
5	0	0	0	0	526	580	
6	0	0	0	0	525	581	
7	0	0	0	0	524	584	
8	0	0	0	0	525	580	
9	0	0	0	0	524	580	
10	0	0	0	0	525	580	
11	0	0	0	0	526	575	
12	0	0	0	0	527	580	
13	0	0	0	0	527	580	
14	0	0	0	0	527	580	
15	0	0	0	0	527	584	
0	0	0	0	0	527	580	
1	0	0	0	0	528	580	
2	0	0	0	0	528	580	
3	0	0	0	0	527	575	
4	0	0	0	0	527	580	
5	0	0	0	0	526	580	
6	0	0	0	0	526	580	
7	0	0	0	0	526	584	
8	0	0	0	0	526	580	
9	0	0	0	0	524	580	
10	0	0	0	0	523	579	
11	0	0	0	0	521	575	
12	0	0	0	0	520	580	
13	0	0	0	0	521	580	
14	0	0	0	0	521	580	
15	0	0	0	0	521	583	
0	0	0	0	0	522	580	
1	0	0	0	0	521	579	
2	0	0	0	0	522	580	
3	0	0	0	0	521	575	
4	0	0	0	0	520	579	
5	0	0	0	0	519	579	
6	0	0	0	0	519	580	
7	0	0	0	0	518	583	
8	0	0	0	0	518	579	
9	0	0	0	0	517	579	
10	0	0	0	0	517	579	
11	0	0	0	0	516	574	
12	0	0	0	0	515	579	
13	0	0	0	0	515	579	
14	0	0	0	0	514	579	
15	0	0	0	0	514	582	
0	0	0	0	0	514	578	
1	0	0	0	0	514	579	
2	0	0	0	0	514	578	
3	0	0	0	0	514	574	
4	0	0	0	0	515	579	
5	0	0	0	0	515	579	
6	0	0	0	0	515	577	
7	0	0	0	0	515	582	
8	0	0	0	0	515	577	
9	0	0	0	0	515	577	
10	0	0	0	0	515	577	
11	0	0	0	0	514	572	
12	0	0	0	0	514	577	
13	0	0	0	0	514	577	
14	0	0	0	0	512	577	
15	0	0	0	0	512	581	
0	0	0	0	0	511	577	
1	0	0	0	0	510	577	
2	0	0	0	0	509	577	
3	0	0	0	0	508	572	
4	0	0	0	0	508	577	
5	0	0	0	0	508	578	
6	0	0	0	0	509	578	
7	0	0	0	0	510	582	
8	0	0	0	0	511	577	
9	0	0	0	0	511	578	
10	0	0	0	0	511	577	
11	0	0	0	0	511	574	
12	0	0	0	0	511	578	
13	0	0	0	0	511	578	
14	0	0	0	0	510	579	
15	0	0	0	0	510	583	
0	0	0	0	0	510	579	
1	0	0	0	0	508	579	
2	0	0	0	0	507	578	
3	0	0	0	0	505	575	
4	0	0	0	0	504	579	
5	0	0	0	0	504	579	
6	0	0	0	0	504	579	
7	0	0	0	0	504	583	
8	0	0	0	0	505	580	
9	0	0	0	0	506	580	
10	0	0	0	0	507	579	
11	0	0	0	0	508	574	
12	0	0	0	0	510	579	
13	0	0	0	0	511	579	
14	0	0	0	0	513	579	
15	0	0	0	0	514	583	
0	0	0	0	0	514	580	
1	0	0	0	0	515	579	
2	0	0	0	0	515	580	
3	0	0	0	0	514	575	
4	0	0	0	0	513	579	
5	0	0	0	0	512	580	
6	0	0	0	0	512	580	
7	0	0	0	0	511	584	
8	0	0	0	0	511	580	
9	0	0	0	0	509	580	
10	0	0	0	0	507	580	
11	0	0	0	0	507	576	
12	0	0	0	0	507	581	
13	0	0	0	0	507	581	
14	0	0	0	0	508	581	
15	0	0	0	0	508	585	
0	0	0	0	0	508	580	
1	0	0	0	0	508	581	
2	0	0	0	0	509	580	
3	0	0	0	0	510	576	
4	0	0	0	0	511	580	
5	0	0	0	0	512	580	
6	0	0	0	0	511	580	
7	0	0	0	0	511	584	
8	0	0	0	0	511	580	
9	0	0	0	0	511	580	
10	0	0	0	0	511	579	
11	0	0	0	0	510	575	
12	0	0	0	0	510	579	
13	0	0	0	0	510	579	
14	0	0	0	0	511	579	
15	0	0	0	0	510	582	
0	0	0	0	0	509	578	
1	0	0	0	0	508	578	
2	0	0	0	0	507	578	
3	0	0	0	0	507	573	
4	0	0	0	0	508	578	
5	0	0	0	0	508	577	
6	0	0	0	0	509	577	
7	0	0	0	0	510	581	
8	0	0	0	0	510	576	
9	0	0	0	0	510	576	
10	0	0	0	0	509	576	
11	0	0	0	0	510	572	
12	0	0	0	0	510	575	
13	0	0	0	0	510	576	
14	0	0	0	0	510	576	
15	0	0	0	0	510	579	
0	0	0	0	0	510	576	
1	0	0	0	0	510	576	
2	0	0	0	0	509	575	
3	0	0	0	0	509	571	
4	0	0	0	0	509	575	
5	0	0	0	0	509	575	
6	0	0	0	0	508	575	
7	0	0	0	0	507	579	
8	0	0	0	0	509	575	
9	0	0	0	0	509	575	
10	0	0	0	0	510	575	
11	0	0	0	0	511	571	
12	0	0	0	0	510	575	
13	0	0	0	0	510	575	
14	0	0	0	0	509	575	
15	0	0	0	0	509	579	
0	0	0	0	0	510	575	
1	0	0	0	0	510	575	
2	0	0	0	0	510	575	
3	0	0	0	0	511	571	
4	0	0	0	0	510	576	
5	0	0	0	0	509	575	
6	0	0	0	0	509	575	
7	0	0	0	0	508	579	
8	0	0	0	0	509	576	
9	0	0	0	0	509	575	
10	0	0	0	0	509	575	
11	0	0	0	0	510	572	
12	0	0	0	0	511	575	
13	0	0	0	0	511	575	
14	0	0	0	0	511	576	
15	0	0	0	0	511	580	
0	0	0	0	0	510	577	
1	0	0	0	0	510	576	
2	0	0	0	0	508	576	
3	0	0	0	0	508	571	
4	0	0	0	0	508	576	
5	0	0	0	0	507	576	
6	0	0	0	0	506	577	
7	0	0	0	0	504	582	
8	0	0	0	0	504	577	
9	0	0	0	0	503	578	
10	0	0	0	0	502	578	
11	0	0	0	0	501	573	
12	0	0	0	0	500	579	
13	0	0	0	0	499	578	
14	0	0	0	0	499	578	
15	0	0	0	0	499	583	
0	0	0	0	0	499	579	
1	0	0	0	0	500	579	
2	0	0	0	0	502	579	
3	0	0	0	0	503	575	
4	0	0	0	0	504	579	
5	0	0	0	0	505	579	
6	0	0	0	0	506	579	
7	0	0	0	0	508	583	
8	0	0	0	0	509	579	
9	0	0	0	0	509	579	
10	0	0	0	0	509	579	
11	0	0	0	0	508	575	
12	0	0	0	0	506	580	
13	0	0	0	0	506	579	
14	0	0	0	0	505	579	
15	0	0	0	0	504	583	
0	0	0	0	0	505	579	
1	0	0	0	0	506	579	
2	0	0	0	0	508	579	
3	0	0	0	0	510	574	
4	0	0	0	0	512	578	
5	0	0	0	0	513	577	
6	0	0	0	0	513	577	
7	0	0	0	0	512	582	
8	0	0	0	0	512	577	
9	0	0	0	0	511	578	
10	0	0	0	0	511	578	
11	0	0	0	0	510	573	
12	0	0	0	0	509	577	
13	0	0	0	0	508	577	
14	0	0	0	0	509	576	
15	0	0	0	0	510	581	
0	0	0	0	0	511	575	
1	0	0	0	0	511	577	
2	0	0	0	0	511	576	
3	0	0	0	0	510	572	
4	0	0	0	0	510	576	
5	0	0	0	0	509	576	
6	0	0	0	0	509	576	
7	0	0	0	0	510	580	
8	0	0	0	0	512	577	
9	0	0	0	0	512	577	
10	0	0	0	0	513	577	
11	0	0	0	0	514	572	
12	0	0	0	0	513	577	
13	0	0	0	0	513	577	
14	0	0	0	0	513	577	
15	0	0	0	0	512	581	
0	0	0	0	0	512	577	
1	0	0	0	0	512	577	
2	0	0	0	0	512	577	
3	0	0	0	0	512	573	
4	0	0	0	0	512	577	
5	0	0	0	0	512	577	
6	0	0	0	0	512	578	
7	0	0	0	0	513	582	
8	0	0	0	0	514	578	
9	0	0	0	0	515	578	
10	0	0	0	0	515	577	
11	0	0	0	0	516	573	
12	0	0	0	0	517	576	
13	0	0	0	0	517	577	
14	0	0	0	0	517	577	
15	0	0	0	0	517	581	
0	0	0	0	0	517	577	
1	0	0	0	0	517	577	
2	0	0	0	0	517	577	
3	0	0	0	0	516	572	
4	0	0	0	0	515	576	
5	0	0	0	0	514	577	
6	0	0	0	0	513	577	
7	0	0	0	0	513	582	
8	0	0	0	0	513	578	
9	0	0	0	0	512	577	
10	0	0	0	0	511	578	
11	0	0	0	0	509	574	
12	0	0	0	0	509	578	
13	0	0	0	0	508	578	
14	0	0	0	0	509	578	
15	0	0	0	0	511	583	
0	0	0	0	0	512	578	
1	0	0	0	0	513	578	
2	0	0	0	0	515	578	
3	0	0	0	0	516	573	
4	0	0	0	0	516	578	
5	0	0	0	0	518	578	
6	0	0	0	0	518	578	
7	0	0	0	0	518	582	
8	0	0	0	0	519	578	
9	0	0	0	0	517	578	
10	0	0	0	0	517	578	
11	0	0	0	0	516	574	
12	0	0	0	0	515	578	
13	0	0	0	0	512	578	
14	0	0	0	0	511	578	
15	0	0	0	0	509	582	
0	0	0	0	0	508	577	
1	0	0	0	0	507	577	
2	0	0	0	0	507	578	
3	0	0	0	0	508	574	
4	0	0	0	0	509	578	
5	0	0	0	0	510	578	
6	0	0	0	0	511	579	
7	0	0	0	0	511	582	
8	0	0	0	0	511	578	
9	0	0	0	0	511	578	
10	0	0	0	0	512	578	
11	0	0	0	0	511	574	
12	0	0	0	0	511	579	
13	0	0	0	0	509	579	
14	0	0	0	0	508	578	
15	0	0	0	0	508	583	
0	0	0	0	0	508	578	
1	0	0	0	0	506	579	
2	0	0	0	0	506	579	
3	0	0	0	0	505	574	
4	0	0	0	0	505	578	
5	0	0	0	0	504	579	
6	0	0	0	0	504	579	
7	0	0	0	0	504	582	
8	0	0	0	0	504	578	
9	0	0	0	0	504	578	
10	0	0	0	0	504	578	
11	0	0	0	0	503	574	
12	0	0	0	0	500	579	
13	0	0	0	0	498	579	
14	0	0	0	0	496	579	
15	0	0	0	0	493	583	
0	0	0	0	0	491	578	
1	0	0	0	0	488	579	
2	0	0	0	0	487	579	
3	0	0	0	0	483	574	
4	0	0	0	0	479	579	
5	0	0	0	0	474	579	
6	0	0	0	0	468	579	
7	0	0	0	0	462	582	
8	0	0	0	0	455	579	
9	0	0	0	0	448	579	
10	0	0	0	0	440	578	
11	0	0	0	0	432	574	
12	0	0	0	0	424	579	
13	0	0	0	0	418	579	
14	0	0	0	0	412	579	
15	0	0	0	0	406	583	
0	0	0	0	0	402	578	
1	0	0	0	0	397	579	
2	0	0	0	0	391	578	
3	0	0	0	0	387	573	
4	0	0	0	0	384	578	
5	0	0	0	0	382	578	
6	0	0	0	0	382	578	
7	0	0	0	0	384	582	
8	0	0	0	0	387	579	
9	0	0	0	0	394	578	
10	0	0	0	0	398	577	
11	0	0	0	0	400	573	
12	0	0	0	0	397	578	
13	0	0	0	0	390	577	
14	0	0	0	0	382	578	
15	0	0	0	0	375	582	
0	0	0	0	0	366	577	
1	0	0	0	0	355	577	
2	0	0	0	0	345	577	
3	0	0	0	0	343	574	
4	0	0	0	0	344	577	
5	0	0	0	0	347	577	
6	0	0	0	0	351	577	
7	0	0	0	0	355	582	
8	0	0	0	0	355	577	
9	0	0	0	0	355	578	
10	0	0	0	0	356	578	
11	0	0	0	0	361	574	
12	0	0	0	0	371	578	
13	0	0	0	0	386	579	
14	0	0	0	0	404	578	
15	0	0	0	0	424	583	
0	0	0	0	0	446	579	
1	0	0	0	0	468	579	
2	0	0	0	0	493	578	
3	0	0	0	0	521	574	
4	0	0	0	0	554	579	
5	0	0	0	0	584	579	
6	0	0	0	0	605	579	
7	0	0	0	0	616	584	
8	0	0	0	0	619	579	
9	0	0	0	0	616	580	
10	0	0	0	0	610	580	
11	0	0	0	0	602	575	
12	0	0	0	0	592	580	
13	0	0	0	0	583	579	
14	0	0	0	0	574	579	
15	0	0	0	0	565	583	
0	0	0	0	0	558	579	
1	0	0	0	0	551	579	
2	0	0	0	0	546	579	
3	0	0	0	0	543	575	
4	0	0	0	0	541	579	
5	0	0	0	0	540	579	
6	0	0	0	0	539	580	
7	0	0	0	0	540	584	
8	0	0	0	0	541	579	
9	0	0	0	0	542	579	
10	0	0	0	0	543	579	
11	0	0	0	0	544	575	
12	0	0	0	0	545	579	
13	0	0	0	0	546	579	
14	0	0	0	0	545	579	
15	0	0	0	0	543	583	
0	0	0	0	0	542	578	
1	0	0	0	0	541	579	
2	0	0	0	0	540	578	
3	0	0	0	0	540	574	
4	0	0	0	0	539	578	
5	0	0	0	0	539	578	
6	0	0	0	0	538	578	
7	0	0	0	0	538	582	
8	0	0	0	0	538	577	
9	0	0	0	0	538	577	
10	0	0	0	0	538	576	
11	0	0	0	0	538	572	
12	0	0	0	0	539	577	
13	0	0	0	0	540	577	
14	0	0	0	0	542	577	
15	0	0	0	0	542	580	
0	0	0	0	0	542	577	
1	0	0	0	0	543	576	
2	0	0	0	0	543	576	
3	0	0	0	0	542	572	
4	0	0	0	0	541	576	
5	0	0	0	0	540	576	
6	0	0	0	0	539	576	
7	0	0	0	0	538	580	
8	0	0	0	0	536	575	
9	0	0	0	0	536	577	
10	0	0	0	0	534	576	
11	0	0	0	0	534	572	
12	0	0	0	0	532	576	
13	0	0	0	0	532	576	
14	0	0	0	0	532	577	
15	0	0	0	0	531	580	
0	0	0	0	0	532	577	
1	0	0	0	0	532	576	
2	0	0	0	0	532	577	
3	0	0	0	0	532	572	
4	0	0	0	0	532	577	
5	0	0	0	0	532	577	
6	0	0	0	0	531	578	
7	0	0	0	0	531	582	
8	0	0	0	0	530	577	
9	0	0	0	0	529	577	
10	0	0	0	0	528	578	
11	0	0	0	0	527	574	
12	0	0	0	0	526	578	
13	0	0	0	0	525	578	
14	0	0	0	0	524	579	
15	0	0	0	0	524	582	
0	0	0	0	0	524	579	
1	0	0	0	0	524	579	
2	0	0	0	0	524	578	
3	0	0	0	0	523	573	
4	0	0	0	0	524	578	
5	0	0	0	0	524	578	
6	0	0	0	0	526	579	
7	0	0	0	0	526	583	
8	0	0	0	0	526	579	
9	0	0	0	0	526	579	
10	0	0	0	0	525	579	
11	0	0	0	0	524	574	
12	0	0	0	0	524	579	
13	0	0	0	0	523	579	
14	0	0	0	0	523	579	
15	0	0	0	0	522	583	
0	0	0	0	0	521	579	
1	0	0	0	0	520	579	
2	0	0	0	0	519	579	
3	0	0	0	0	518	574	
4	0	0	0	0	516	579	
5	0	0	0	0	515	578	
6	0	0	0	0	515	578	
7	0	0	0	0	515	582	
8	0	0	0	0	514	578	
9	0	0	0	0	514	578	
10	0	0	0	0	514	577	
11	0	0	0	0	514	573	
12	0	0	0	0	514	576	
13	0	0	0	0	513	576	
14	0	0	0	0	513	577	
15	0	0	0	0	512	582	
0	0	0	0	0	512	577	
1	0	0	0	0	511	577	
2	0	0	0	0	511	577	
3	0	0	0	0	509	572	
4	0	0	0	0	508	577	
5	0	0	0	0	507	577	
6	0	0	0	0	505	577	
7	0	0	0	0	504	581	
8	0	0	0	0	504	577	
9	0	0	0	0	503	577	
10	0	0	0	0	502	576	
11	0	0	0	0	503	572	
12	0	0	0	0	504	576	
13	0	0	0	0	503	576	
14	0	0	0	0	503	577	
15	0	0	0	0	502	581	
0	0	0	0	0	501	576	
1	0	0	0	0	500	576	
2	0	0	0	0	501	577	
3	0	0	0	0	501	573	
4	0	0	0	0	500	577	
5	0	0	0	0	499	577	
6	0	0	0	0	497	577	
7	0	0	0	0	497	581	
8	0	0	0	0	496	577	
9	0	0	0	0	495	578	
10	0	0	0	0	495	577	
11	0	0	0	0	495	572	
12	0	0	0	0	494	578	
13	0	0	0	0	494	577	
14	0	0	0	0	494	577	
15	0	0	0	0	494	582	
0	0	0	0	0	492	578	
1	0	0	0	0	490	577	
2	0	0	0	0	489	577	
3	0	0	0	0	488	573	
4	0	0	0	0	488	578	
5	0	0	0	0	488	578	
6	0	0	0	0	487	578	
7	0	0	0	0	487	582	
8	0	0	0	0	487	578	
9	0	0	0	0	486	578	
10	0	0	0	0	486	578	
11	0	0	0	0	485	574	
12	0	0	0	0	483	578	
13	0	0	0	0	481	578	
14	0	0	0	0	479	578	
15	0	0	0	0	478	582	
0	0	0	0	0	477	578	
1	0	0	0	0	478	578	
2	0	0	0	0	479	578	
3	0	0	0	0	480	574	
4	0	0	0	0	483	578	
5	0	0	0	0	484	579	
6	0	0	0	0	486	578	
7	0	0	0	0	487	583	
8	0	0	0	0	487	578	
9	0	0	0	0	487	579	
10	0	0	0	0	488	579	
11	0	0	0	0	487	575	
12	0	0	0	0	487	579	
13	0	0	0	0	487	579	
14	0	0	0	0	487	579	
15	0	0	0	0	486	583	
0	0	0	0	0	486	579	
1	0	0	0	0	486	580	
2	0	0	0	0	485	579	
3	0	0	0	0	486	575	
4	0	0	0	0	487	579	
5	0	0	0	0	488	579	
6	0	0	0	0	490	580	
7	0	0	0	0	492	584	
8	0	0	0	0	495	579	
9	0	0	0	0	497	580	
10	0	0	0	0	499	580	
11	0	0	0	0	502	575	
12	0	0	0	0	503	580	
13	0	0	0	0	504	580	
14	0	0	0	0	505	580	
15	0	0	0	0	505	584	
0	0	0	0	0	505	579	
1	0	0	0	0	506	579	
2	0	0	0	0	507	579	
3	0	0	0	0	507	575	
4	0	0	0	0	507	579	
5	0	0	0	0	507	579	
6	0	0	0	0	507	579	
7	0	0	0	0	507	583	
8	0	0	0	0	507	578	
9	0	0	0	0	508	578	
10	0	0	0	0	508	579	
11	0	0	0	0	510	574	
12	0	0	0	0	511	579	
13	0	0	0	0	512	579	
14	0	0	0	0	513	578	
15	0	0	0	0	515	582	
0	0	0	0	0	516	579	
1	0	0	0	0	517	579	
2	0	0	0	0	517	579	
3	0	0	0	0	517	575	
4	0	0	0	0	518	579	
5	0	0	0	0	518	579	
6	0	0	0	0	518	579	
7	0	0	0	0	518	583	
8	0	0	0	0	518	579	
9	0	0	0	0	518	580	
10	0	0	0	0	518	579	
11	0	0	0	0	518	575	
12	0	0	0	0	518	579	
13	0	0	0	0	518	579	
14	0	0	0	0	518	579	
15	0	0	0	0	519	583	
0	0	0	0	0	521	579	
1	0	0	0	0	521	579	
2	0	0	0	0	522	579	
3	0	0	0	0	523	575	
4	0	0	0	0	524	580	
5	0	0	0	0	525	580	
6	0	0	0	0	526	580	
7	0	0	0	0	526	584	
8	0	0	0	0	526	581	
9	0	0	0	0	527	580	
10	0	0	0	0	529	582	
11	0	0	0	0	529	577	
12	0	0	0	0	528	582	
13	0	0	0	0	527	582	
14	0	0	0	0	527	582	
15	0	0	0	0	527	587	
0	0	0	0	0	528	583	
1	0	0	0	0	528	583	
2	0	0	0	0	529	582	
3	0	0	0	0	529	577	
4	0	0	0	0	530	582	
5	0	0	0	0	531	582	
6	0	0	0	0	532	582	
7	0	0	0	0	534	587	
8	0	0	0	0	535	582	
9	0	0	0	0	535	582	
10	0	0	0	0	536	582	
11	0	0	0	0	537	578	
12	0	0	0	0	537	582	
13	0	0	0	0	536	583	
14	0	0	0	0	536	583	
15	0	0	0	0	535	586	
0	0	0	0	0	533	582	
1	0	0	0	0	533	583	
2	0	0	0	0	532	583	
3	0	0	0	0	531	577	
4	0	0	0	0	531	582	
5	0	0	0	0	531	582	
6	0	0	0	0	531	582	
7	0	0	0	0	531	586	
8	0	0	0	0	532	582	
9	0	0	0	0	532	582	
10	0	0	0	0	532	582	
11	0	0	0	0	532	577	
12	0	0	0	0	532	581	
13	0	0	0	0	532	582	
14	0	0	0	0	532	582	
15	0	0	0	0	532	585	
0	0	0	0	0	532	581	
1	0	0	0	0	532	581	
2	0	0	0	0	532	581	
3	0	0	0	0	531	577	
4	0	0	0	0	530	581	
5	0	0	0	0	529	581	
6	0	0	0	0	528	582	
7	0	0	0	0	528	585	
8	0	0	0	0	528	581	
9	0	0	0	0	528	580	
10	0	0	0	0	528	581	
11	0	0	0	0	528	575	
12	0	0	0	0	529	580	
13	0	0	0	0	529	579	
14	0	0	0	0	530	580	
15	0	0	0	0	530	584	
0	0	0	0	0	530	580	
1	0	0	0	0	529	579	
2	0	0	0	0	529	579	
3	0	0	0	0	528	575	
4	0	0	0	0	528	579	
5	0	0	0	0	527	580	
6	0	0	0	0	526	579	
7	0	0	0	0	526	583	
8	0	0	0	0	526	580	
9	0	0	0	0	524	579	
10	0	0	0	0	523	579	
11	0	0	0	0	523	575	
12	0	0	0	0	522	580	
13	0	0	0	0	521	579	
14	0	0	0	0	521	579	
15	0	0	0	0	522	583	
0	0	0	0	0	523	579	
1	0	0	0	0	524	579	
2	0	0	0	0	524	579	
3	0	0	0	0	524	574	
4	0	0	0	0	524	579	
5	0	0	0	0	524	579	
6	0	0	0	0	524	579	
7	0	0	0	0	524	583	
8	0	0	0	0	523	579	
9	0	0	0	0	521	578	
10	0	0	0	0	520	578	
11	0	0	0	0	519	574	
12	0	0	0	0	519	578	
13	0	0	0	0	518	578	
14	0	0	0	0	517	578	
15	0	0	0	0	517	582	
0	0	0	0	0	517	578	
1	0	0	0	0	517	578	
2	0	0	0	0	518	578	
3	0	0	0	0	519	573	
4	0	0	0	0	519	578	
5	0	0	0	0	519	578	
6	0	0	0	0	519	579	
7	0	0	0	0	518	583	
8	0	0	0	0	517	578	
9	0	0	0	0	516	579	
10	0	0	0	0	515	579	
11	0	0	0	0	514	573	
12	0	0	0	0	513	578	
13	0	0	0	0	512	578	
14	0	0	0	0	512	579	
15	0	0	0	0	512	583	
0	0	0	0	0	513	578	
1	0	0	0	0	513	577	
2	0	0	0	0	513	577	
3	0	0	0	0	513	573	
4	0	0	0	0	513	577	
5	0	0	0	0	513	578	
6	0	0	0	0	515	578	
7	0	0	0	0	516	582	
8	0	0	0	0	517	577	
9	0	0	0	0	518	577	
10	0	0	0	0	519	577	
11	0	0	0	0	519	573	
12	0	0	0	0	519	577	
13	0	0	0	0	520	577	
14	0	0	0	0	520	578	
15	0	0	0	0	520	582	
0	0	0	0	0	519	577	
1	0	0	0	0	518	576	
2	0	0	0	0	517	576	
3	0	0	0	0	516	572	
4	0	0	0	0	515	576	
5	0	0	0	0	515	575	
6	0	0	0	0	513	576	
7	0	0	0	0	513	580	
8	0	0	0	0	513	576	
9	0	0	0	0	512	576	
10	0	0	0	0	513	575	
11	0	0	0	0	513	571	
12	0	0	0	0	513	575	
13	0	0	0	0	514	575	
14	0	0	0	0	514	574	
15	0	0	0	0	515	579	
0	0	0	0	0	515	575	
1	0	0	0	0	515	575	
2	0	0	0	0	515	575	
3	0	0	0	0	515	570	
4	0	0	0	0	515	575	
5	0	0	0	0	513	575	
6	0	0	0	0	513	575	
7	0	0	0	0	512	579	
8	0	0	0	0	512	575	
9	0	0	0	0	512	575	
10	0	0	0	0	511	573	
11	0	0	0	0	511	569	
12	0	0	0	0	511	575	
13	0	0	0	0	511	575	
14	0	0	0	0	512	574	
15	0	0	0	0	512	579	
0	0	0	0	0	513	575	
1	0	0	0	0	514	575	
2	0	0	0	0	515	575	
3	0	0	0	0	516	571	
4	0	0	0	0	517	576	
5	0	0	0	0	516	575	
6	0	0	0	0	516	575	
7	0	0	0	0	516	580	
8	0	0	0	0	517	575	
9	0	0	0	0	517	575	
10	0	0	0	0	516	575	
11	0	0	0	0	515	571	
12	0	0	0	0	514	576	
13	0	0	0	0	514	575	
14	0	0	0	0	512	576	
15	0	0	0	0	512	581	
0	0	0	0	0	512	577	
1	0	0	0	0	511	577	
2	0	0	0	0	511	577	
3	0	0	0	0	511	573	
4	0	0	0	0	511	577	
5	0	0	0	0	512	577	
6	0	0	0	0	512	577	
7	0	0	0	0	512	580	
8	0	0	0	0	512	577	
9	0	0	0	0	512	576	
10	0	0	0	0	513	577	
11	0	0	0	0	514	573	
12	0	0	0	0	513	577	
13	0	0	0	0	513	577	
14	0	0	0	0	513	577	
15	0	0	0	0	513	581	
0	0	0	0	0	513	576	
1	0	0	0	0	512	577	
2	0	0	0	0	512	577	
3	0	0	0	0	512	572	
4	0	0	0	0	512	577	
5	0	0	0	0	512	577	
6	0	0	0	0	512	577	
7	0	0	0	0	512	581	
8	0	0	0	0	513	577	
9	0	0	0	0	514	577	
10	0	0	0	0	514	577	
11	0	0	0	0	515	572	
12	0	0	0	0	515	577	
13	0	0	0	0	515	576	
14	0	0	0	0	515	577	
15	0	0	0	0	515	581	
0	0	0	0	0	515	576	
1	0	0	0	0	513	576	
2	0	0	0	0	513	576	
3	0	0	0	0	512	572	
4	0	0	0	0	512	576	
5	0	0	0	0	511	576	
6	0	0	0	0	509	577	
7	0	0	0	0	508	581	
8	0	0	0	0	507	577	
9	0	0	0	0	506	577	
10	0	0	0	0	505	576	
11	0	0	0	0	505	572	
12	0	0	0	0	506	577	
13	0	0	0	0	507	577	
14	0	0	0	0	509	578	
15	0	0	0	0	509	582	
0	0	0	0	0	510	577	
1	0	0	0	0	511	577	
2	0	0	0	0	511	577	
3	0	0	0	0	511	572	
4	0	0	0	0	510	578	
5	0	0	0	0	510	577	
6	0	0	0	0	509	577	
7	0	0	0	0	508	582	
8	0	0	0	0	508	577	
9	0	0	0	0	507	577	
10	0	0	0	0	505	576	
11	0	0	0	0	505	572	
12	0	0	0	0	504	577	
13	0	0	0	0	505	577	
14	0	0	0	0	505	577	
15	0	0	0	0	506	581	
0	0	0	0	0	508	578	
1	0	0	0	0	508	577	
2	0	0	0	0	510	577	
3	0	0	0	0	510	573	
4	0	0	0	0	510	578	
5	0	0	0	0	510	578	
6	0	0	0	0	510	578	
7	0	0	0	0	510	581	
8	0	0	0	0	510	577	
9	0	0	0	0	510	577	
10	0	0	0	0	509	577	
11	0	0	0	0	508	573	
12	0	0	0	0	509	577	
13	0	0	0	0	509	577	
14	0	0	0	0	509	577	
15	0	0	0	0	510	581	
0	0	0	0	0	510	577	
1	0	0	0	0	511	576	
2	0	0	0	0	511	577	
3	0	0	0	0	512	572	
4	0	0	0	0	513	576	
5	0	0	0	0	514	576	
6	0	0	0	0	515	576	
7	0	0	0	0	515	580	
8	0	0	0	0	516	576	
9	0	0	0	0	516	576	
10	0	0	0	0	517	576	
11	0	0	0	0	517	572	
12	0	0	0	0	517	576	
13	0	0	0	0	517	576	
14	0	0	0	0	516	576	
15	0	0	0	0	515	581	
0	0	0	0	0	515	576	
1	0	0	0	0	514	576	
2	0	0	0	0	514	576	
3	0	0	0	0	514	572	
4	0	0	0	0	514	577	
5	0	0	0	0	513	576	
6	0	0	0	0	514	576	
7	0	0	0	0	514	580	
8	0	0	0	0	515	576	
9	0	0	0	0	517	576	
10	0	0	0	0	518	575	
11	0	0	0	0	519	572	
12	0	0	0	0	519	575	
13	0	0	0	0	519	575	
14	0	0	0	0	519	576	
15	0	0	0	0	520	580	
0	0	0	0	0	520	576	
1	0	0	0	0	520	575	
2	0	0	0	0	519	575	
3	0	0	0	0	519	571	
4	0	0	0	0	519	575	
5	0	0	0	0	518	575	
6	0	0	0	0	516	575	
7	0	0	0	0	515	580	
8	0	0	0	0	515	576	
9	0	0	0	0	515	576	
10	0	0	0	0	515	576	
11	0	0	0	0	516	572	
12	0	0	0	0	517	577	
13	0	0	0	0	518	577	
14	0	0	0	0	519	577	
15	0	0	0	0	519	581	
0	0	0	0	0	519	577	
1	0	0	0	0	519	577	
2	0	0	0	0	519	577	
3	0	0	0	0	519	572	
4	0	0	0	0	519	576	
5	0	0	0	0	519	577	
6	0	0	0	0	519	577	
7	0	0	0	0	518	581	
8	0	0	0	0	518	577	
9	0	0	0	0	516	577	
10	0	0	0	0	515	577	
11	0	0	0	0	513	573	
12	0	0	0	0	512	577	
13	0	0	0	0	512	577	
14	0	0	0	0	511	578	
15	0	0	0	0	511	582	
0	0	0	0	0	511	577	
1	0	0	0	0	512	577	
2	0	0	0	0	512	577	
3	0	0	0	0	513	573	
4	0	0	0	0	515	577	
5	0	0	0	0	515	577	
6	0	0	0	0	515	578	
7	0	0	0	0	515	582	
8	0	0	0	0	515	578	
9	0	0	0	0	515	578	
10	0	0	0	0	514	577	
11	0	0	0	0	513	573	
12	0	0	0	0	512	578	
13	0	0	0	0	512	578	
14	0	0	0	0	512	578	
15	0	0	0	0	511	582	
0	0	0	0	0	511	579	
1	0	0	0	0	510	577	
2	0	0	0	0	510	577	
3	0	0	0	0	511	573	
4	0	0	0	0	512	578	
5	0	0	0	0	512	578	
6	0	0	0	0	514	578	
7	0	0	0	0	514	581	
8	0	0	0	0	515	577	
9	0	0	0	0	515	577	
10	0	0	0	0	515	577	
11	0	0	0	0	515	573	
12	0	0	0	0	514	578	
13	0	0	0	0	514	577	
14	0	0	0	0	513	578	
15	0	0	0	0	512	582	
0	0	0	0	0	510	578	
1	0	0	0	0	508	579	
2	0	0	0	0	505	578	
3	0	0	0	0	504	574	
4	0	0	0	0	502	578	
5	0	0	0	0	500	577	
6	0	0	0	0	499	578	
7	0	0	0	0	497	582	
8	0	0	0	0	496	578	
9	0	0	0	0	494	579	
10	0	0	0	0	493	578	
11	0	0	0	0	492	574	
12	0	0	0	0	491	578	
13	0	0	0	0	489	578	
14	0	0	0	0	486	579	
15	0	0	0	0	481	582	
0	0	0	0	0	476	578	
1	0	0	0	0	469	578	
2	0	0	0	0	462	578	
3	0	0	0	0	454	573	
4	0	0	0	0	444	578	
5	0	0	0	0	434	578	
6	0	0	0	0	424	579	
7	0	0	0	0	415	582	
8	0	0	0	0	408	578	
9	0	0	0	0	403	578	
10	0	0	0	0	399	579	
11	0	0	0	0	396	573	
12	0	0	0	0	392	577	
13	0	0	0	0	391	578	
14	0	0	0	0	391	578	
15	0	0	0	0	392	582	
0	0	0	0	0	395	578	
1	0	0	0	0	399	578	
2	0	0	0	0	405	577	
3	0	0	0	0	413	574	
4	0	0	0	0	419	578	
5	0	0	0	0	421	578	
6	0	0	0	0	419	578	
7	0	0	0	0	412	583	
8	0	0	0	0	404	578	
9	0	0	0	0	397	578	
10	0	0	0	0	387	578	
11	0	0	0	0	378	574	
12	0	0	0	0	370	579	
13	0	0	0	0	368	578	
14	0	0	0	0	368	578	
15	0	0	0	0	370	583	
0	0	0	0	0	375	578	
1	0	0	0	0	378	578	
2	0	0	0	0	380	578	
3	0	0	0	0	379	574	
4	0	0	0	0	379	578	
5	0	0	0	0	383	579	
6	0	0	0	0	391	579	
7	0	0	0	0	404	583	
8	0	0	0	0	420	578	
9	0	0	0	0	438	578	
10	0	0	0	0	455	579	
11	0	0	0	0	475	574	
12	0	0	0	0	494	580	
13	0	0	0	0	516	579	
14	0	0	0	0	542	579	
15	0	0	0	0	571	583	
0	0	0	0	0	591	579	
1	0	0	0	0	602	579	
2	0	0	0	0	606	580	
3	0	0	0	0	606	575	
4	0	0	0	0	601	579	
5	0	0	0	0	595	579	
6	0	0	0	0	588	579	
7	0	0	0	0	580	583	
8	0	0	0	0	572	579	
9	0	0	0	0	564	579	
10	0	0	0	0	557	579	
11	0	0	0	0	551	574	
12	0	0	0	0	546	578	
13	0	0	0	0	542	578	
14	0	0	0	0	540	579	
15	0	0	0	0	539	583	
0	0	0	0	0	538	579	
1	0	0	0	0	537	579	
2	0	0	0	0	536	578	
3	0	0	0	0	536	574	
4	0	0	0	0	537	579	
5	0	0	0	0	538	579	
6	0	0	0	0	539	579	
7	0	0	0	0	539	583	
8	0	0	0	0	541	579	
9	0	0	0	0	541	579	
10	0	0	0	0	542	579	
11	0	0	0	0	542	574	
12	0	0	0	0	542	579	
13	0	0	0	0	543	579	
14	0	0	0	0	543	579	
15	0	0	0	0	542	583	
0	0	0	0	0	541	579	
1	0	0	0	0	540	579	
2	0	0	0	0	540	579	
3	0	0	0	0	540	575	
4	0	0	0	0	539	579	
5	0	0	0	0	537	580	
6	0	0	0	0	536	580	
7	0	0	0	0	535	583	
8	0	0	0	0	534	579	
9	0	0	0	0	534	579	
10	0	0	0	0	534	579	
11	0	0	0	0	535	574	
12	0	0	0	0	535	579	
13	0	0	0	0	536	579	
14	0	0	0	0	536	578	
15	0	0	0	0	536	583	
0	0	0	0	0	537	579	
1	0	0	0	0	536	579	
2	0	0	0	0	536	578	
3	0	0	0	0	536	574	
4	0	0	0	0	536	578	
5	0	0	0	0	535	579	
6	0	0	0	0	533	578	
7	0	0	0	0	532	582	
8	0	0	0	0	531	578	
9	0	0	0	0	530	578	
10	0	0	0	0	528	578	
11	0	0	0	0	525	574	
12	0	0	0	0	524	578	
13	0	0	0	0	524	578	
14	0	0	0	0	524	579	
15	0	0	0	0	524	582	
0	0	0	0	0	524	578	
1	0	0	0	0	525	578	
2	0	0	0	0	525	578	
3	0	0	0	0	525	573	
4	0	0	0	0	525	577	
5	0	0	0	0	524	578	
6	0	0	0	0	525	578	
7	0	0	0	0	524	582	
8	0	0	0	0	524	578	
9	0	0	0	0	524	579	
10	0	0	0	0	523	579	
11	0	0	0	0	523	574	
12	0	0	0	0	521	579	
13	0	0	0	0	519	579	
14	0	0	0	0	517	579	
15	0	0	0	0	516	583	
0	0	0	0	0	515	579	
1	0	0	0	0	515	579	
2	0	0	0	0	516	579	
3	0	0	0	0	516	575	
4	0	0	0	0	517	580	
5	0	0	0	0	516	579	
6	0	0	0	0	517	579	
7	0	0	0	0	517	583	
8	0	0	0	0	517	580	
9	0	0	0	0	518	579	
10	0	0	0	0	518	579	
11	0	0	0	0	517	575	
12	0	0	0	0	516	579	
13	0	0	0	0	516	580	
14	0	0	0	0	514	580	
15	0	0	0	0	513	584	
0	0	0	0	0	512	579	
1	0	0	0	0	511	579	
2	0	0	0	0	511	579	
3	0	0	0	0	509	575	
4	0	0	0	0	509	579	
5	0	0	0	0	509	579	
6	0	0	0	0	509	579	
7	0	0	0	0	509	582	
8	0	0	0	0	509	578	
9	0	0	0	0	509	579	
10	0	0	0	0	510	578	
11	0	0	0	0	510	573	
12	0	0	0	0	510	578	
13	0	0	0	0	509	578	
14	0	0	0	0	508	577	
15	0	0	0	0	508	581	
0	0	0	0	0	508	577	
1	0	0	0	0	507	577	
2	0	0	0	0	505	577	
3	0	0	0	0	505	572	
4	0	0	0	0	505	576	
5	0	0	0	0	505	577	
6	0	0	0	0	503	576	
7	0	0	0	0	501	580	
8	0	0	0	0	499	576	
9	0	0	0	0	497	576	
10	0	0	0	0	497	576	
11	0	0	0	0	497	572	
12	0	0	0	0	498	576	
13	0	0	0	0	499	576	
14	0	0	0	0	499	576	
15	0	0	0	0	499	580	
0	0	0	0	0	499	576	
1	0	0	0	0	498	576	
2	0	0	0	0	499	575	
3	0	0	0	0	498	571	
4	0	0	0	0	497	576	
5	0	0	0	0	496	575	
6	0	0	0	0	496	576	
7	0	0	0	0	495	579	
8	0	0	0	0	494	576	
9	0	0	0	0	492	576	
10	0	0	0	0	491	575	
11	0	0	0	0	489	572	
12	0	0	0	0	488	576	
13	0	0	0	0	488	575	
14	0	0	0	0	487	576	
15	0	0	0	0	487	580	
0	0	0	0	0	487	576	
1	0	0	0	0	487	576	
2	0	0	0	0	487	576	
3	0	0	0	0	487	571	
4	0	0	0	0	487	576	
5	0	0	0	0	487	576	
6	0	0	0	0	487	576	
7	0	0	0	0	488	582	
8	0	0	0	0	487	577	
9	0	0	0	0	487	577	
10	0	0	0	0	487	577	
11	0	0	0	0	487	573	
12	0	0	0	0	487	577	
13	0	0	0	0	486	578	
14	0	0	0	0	485	578	
15	0	0	0	0	484	581	
0	0	0	0	0	485	578	
1	0	0	0	0	486	577	
2	0	0	0	0	486	577	
3	0	0	0	0	487	573	
4	0	0	0	0	488	577	
5	0	0	0	0	490	578	
6	0	0	0	0	492	577	
7	0	0	0	0	493	582	
8	0	0	0	0	493	577	
9	0	0	0	0	493	577	
10	0	0	0	0	494	577	
11	0	0	0	0	494	573	
12	0	0	0	0	494	577	
13	0	0	0	0	494	577	
14	0	0	0	0	495	577	
15	0	0	0	0	496	582	
0	0	0	0	0	496	577	
1	0	0	0	0	495	577	
2	0	0	0	0	495	577	
3	0	0	0	0	495	572	
4	0	0	0	0	495	578	
5	0	0	0	0	496	578	
6	0	0	0	0	497	579	
7	0	0	0	0	498	583	
8	0	0	0	0	499	577	
9	0	0	0	0	501	578	
10	0	0	0	0	502	578	
11	0	0	0	0	503	573	
12	0	0	0	0	503	578	
13	0	0	0	0	504	578	
14	0	0	0	0	504	578	
15	0	0	0	0	505	582	
0	0	0	0	0	506	578	
1	0	0	0	0	506	578	
2	0	0	0	0	507	578	
3	0	0	0	0	508	574	
4	0	0	0	0	508	579	
5	0	0	0	0	508	578	
6	0	0	0	0	509	579	
7	0	0	0	0	509	583	
8	0	0	0	0	509	578	
9	0	0	0	0	509	579	
10	0	0	0	0	510	579	
11	0	0	0	0	511	574	
12	0	0	0	0	511	579	
13	0	0	0	0	513	578	
14	0	0	0	0	514	579	
15	0	0	0	0	514	582	
0	0	0	0	0	515	578	
1	0	0	0	0	516	578	
2	0	0	0	0	517	577	
3	0	0	0	0	518	573	
4	0	0	0	0	518	578	
5	0	0	0	0	518	578	
6	0	0	0	0	519	578	
7	0	0	0	0	519	582	
8	0	0	0	0	519	578	
9	0	0	0	0	518	578	
10	0	0	0	0	517	577	
11	0	0	0	0	517	572	
12	0	0	0	0	517	577	
13	0	0	0	0	518	578	
14	0	0	0	0	518	577	
15	0	0	0	0	520	581	
0	0	0	0	0	521	577	
1	0	0	0	0	522	577	
2	0	0	0	0	524	577	
3	0	0	0	0	525	572	
4	0	0	0	0	526	576	
5	0	0	0	0	527	577	
6	0	0	0	0	527	577	
7	0	0	0	0	528	581	
8	0	0	0	0	529	577	
9	0	0	0	0	529	577	
10	0	0	0	0	529	577	
11	0	0	0	0	530	573	
12	0	0	0	0	530	577	
13	0	0	0	0	529	577	
14	0	0	0	0	528	577	
15	0	0	0	0	528	582	
0	0	0	0	0	528	577	
1	0	0	0	0	528	577	
2	0	0	0	0	529	577	
3	0	0	0	0	530	573	
4	0	0	0	0	531	577	
5	0	0	0	0	531	578	
6	0	0	0	0	532	578	
7	0	0	0	0	533	582	
8	0	0	0	0	533	577	
9	0	0	0	0	534	578	
10	0	0	0	0	533	577	
11	0	0	0	0	532	572	
12	0	0	0	0	532	577	
13	0	0	0	0	532	578	
14	0	0	0	0	531	577	
15	0	0	0	0	531	581	
0	0	0	0	0	531	577	
1	0	0	0	0	530	577	
2	0	0	0	0	529	578	
3	0	0	0	0	529	573	
4	0	0	0	0	529	577	
5	0	0	0	0	529	577	
6	0	0	0	0	529	578	
7	0	0	0	0	530	582	
8	0	0	0	0	530	577	
9	0	0	0	0	531	577	
10	0	0	0	0	532	576	
11	0	0	0	0	534	573	
12	0	0	0	0	534	577	
13	0	0	0	0	535	577	
14	0	0	0	0	535	578	
15	0	0	0	0	535	582	
0	0	0	0	0	534	577	
1	0	0	0	0	534	577	
2	0	0	0	0	533	577	
3	0	0	0	0	532	573	
4	0	0	0	0	531	577	
5	0	0	0	0	530	577	
6	0	0	0	0	528	577	
7	0	0	0	0	527	581	
8	0	0	0	0	526	577	
9	0	0	0	0	526	577	
10	0	0	0	0	526	576	
11	0	0	0	0	527	572	
12	0	0	0	0	527	576	
13	0	0	0	0	528	576	
14	0	0	0	0	528	576	
15	0	0	0	0	527	580	
0	0	0	0	0	527	576	
1	0	0	0	0	526	576	
2	0	0	0	0	526	576	
3	0	0	0	0	526	572	
4	0	0	0	0	526	576	
5	0	0	0	0	525	577	
6	0	0	0	0	524	576	
7	0	0	0	0	525	581	
8	0	0	0	0	525	576	
9	0	0	0	0	523	576	
10	0	0	0	0	521	576	
11	0	0	0	0	521	572	
12	0	0	0	0	521	576	
13	0	0	0	0	521	577	
14	0	0	0	0	521	576	
15	0	0	0	0	521	580	
0	0	0	0	0	522	576	
1	0	0	0	0	523	577	
2	0	0	0	0	524	576	
3	0	0	0	0	524	572	
4	0	0	0	0	524	576	
5	0	0	0	0	524	577	
6	0	0	0	0	523	577	
7	0	0	0	0	523	580	
8	0	0	0	0	523	576	
9	0	0	0	0	523	576	
10	0	0	0	0	521	576	
11	0	0	0	0	520	572	
12	0	0	0	0	520	577	
13	0	0	0	0	519	577	
14	0	0	0	0	518	577	
15	0	0	0	0	517	582	
0	0	0	0	0	517	577	
1	0	0	0	0	516	577	
2	0	0	0	0	516	577	
3	0	0	0	0	516	573	
4	0	0	0	0	516	577	
5	0	0	0	0	518	577	
6	0	0	0	0	519	579	
7	0	0	0	0	519	582	
8	0	0	0	0	519	578	
9	0	0	0	0	519	577	
10	0	0	0	0	519	577	
11	0	0	0	0	519	573	
12	0	0	0	0	519	578	
13	0	0	0	0	519	578	
14	0	0	0	0	519	578	
15	0	0	0	0	519	582	
0	0	0	0	0	519	578	
1	0	0	0	0	518	578	
2	0	0	0	0	517	578	
3	0	0	0	0	517	574	
4	0	0	0	0	517	579	
5	0	0	0	0	517	577	
6	0	0	0	0	517	578	
7	0	0	0	0	517	582	
8	0	0	0	0	519	578	
9	0	0	0	0	519	578	
10	0	0	0	0	520	578	
11	0	0	0	0	520	573	
12	0	0	0	0	521	577	
13	0	0	0	0	520	577	
14	0	0	0	0	519	577	
15	0	0	0	0	519	582	
0	0	0	0	0	519	577	
1	0	0	0	0	519	578	
2	0	0	0	0	519	577	
3	0	0	0	0	518	572	
4	0	0	0	0	518	577	
5	0	0	0	0	517	578	
6	0	0	0	0	516	577	
7	0	0	0	0	516	581	
8	0	0	0	0	516	577	
9	0	0	0	0	516	577	
10	0	0	0	0	516	576	
11	0	0	0	0	516	573	
12	0	0	0	0	517	577	
13	0	0	0	0	517	577	
14	0	0	0	0	519	577	
15	0	0	0	0	518	580	
0	0	0	0	0	519	576	
1	0	0	0	0	519	577	
2	0	0	0	0	518	576	
3	0	0	0	0	518	572	
4	0	0	0	0	518	577	
5	0	0	0	0	518	576	
6	0	0	0	0	517	576	
7	0	0	0	0	517	580	
8	0	0	0	0	516	576	
9	0	0	0	0	515	576	
10	0	0	0	0	515	576	
11	0	0	0	0	514	572	
12	0	0	0	0	513	576	
13	0	0	0	0	514	576	
14	0	0	0	0	514	576	
15	0	0	0	0	515	580	
0	0	0	0	0	516	576	
1	0	0	0	0	516	575	
2	0	0	0	0	517	575	
3	0	0	0	0	518	571	
4	0	0	0	0	519	576	
5	0	0	0	0	519	575	
6	0	0	0	0	519	576	
7	0	0	0	0	519	580	
8	0	0	0	0	519	576	
9	0	0	0	0	518	576	
10	0	0	0	0	517	576	
11	0	0	0	0	516	572	
12	0	0	0	0	516	577	
13	0	0	0	0	515	577	
14	0	0	0	0	515	576	
15	0	0	0	0	515	581	
0	0	0	0	0	514	576	
1	0	0	0	0	514	576	
2	0	0	0	0	514	576	
3	0	0	0	0	514	572	
4	0	0	0	0	515	576	
5	0	0	0	0	517	577	
6	0	0	0	0	518	576	
7	0	0	0	0	519	581	
8	0	0	0	0	519	577	
9	0	0	0	0	519	576	
10	0	0	0	0	519	576	
11	0	0	0	0	518	572	
12	0	0	0	0	518	577	
13	0	0	0	0	518	576	
14	0	0	0	0	518	577	
15	0	0	0	0	518	580	
0	0	0	0	0	518	577	
1	0	0	0	0	517	576	
2	0	0	0	0	516	577	
3	0	0	0	0	515	572	
4	0	0	0	0	515	576	
5	0	0	0	0	516	576	
6	0	0	0	0	516	577	
7	0	0	0	0	517	580	
8	0	0	0	0	518	576	
9	0	0	0	0	518	577	
10	0	0	0	0	518	577	
11	0	0	0	0	519	573	
12	0	0	0	0	520	577	
13	0	0	0	0	520	577	
14	0	0	0	0	520	578	
15	0	0	0	0	519	582	
0	0	0	0	0	519	577	
1	0	0	0	0	519	577	
2	0	0	0	0	519	578	
3	0	0	0	0	519	573	
4	0	0	0	0	518	577	
5	0	0	0	0	518	578	
6	0	0	0	0	518	578	
7	0	0	0	0	517	581	
8	0	0	0	0	518	578	
9	0	0	0	0	517	578	
10	0	0	0	0	518	578	
11	0	0	0	0	518	574	
12	0	0	0	0	519	578	
13	0	0	0	0	519	578	
14	0	0	0	0	520	578	
15	0	0	0	0	521	582	
0	0	0	0	0	521	578	
1	0	0	0	0	521	578	
2	0	0	0	0	521	578	
3	0	0	0	0	520	574	
4	0	0	0	0	519	578	
5	0	0	0	0	518	578	
6	0	0	0	0	518	578	
7	0	0	0	0	517	582	
8	0	0	0	0	516	578	
9	0	0	0	0	515	577	
10	0	0	0	0	514	576	
11	0	0	0	0	514	572	
12	0	0	0	0	513	577	
13	0	0	0	0	513	577	
14	0	0	0	0	513	577	
15	0	0	0	0	514	580	
0	0	0	0	0	515	577	
1	0	0	0	0	515	577	
2	0	0	0	0	517	577	
3	0	0	0	0	519	573	
4	0	0	0	0	519	576	
5	0	0	0	0	519	577	
6	0	0	0	0	520	577	
7	0	0	0	0	520	581	
8	0	0	0	0	521	576	
9	0	0	0	0	520	576	
10	0	0	0	0	520	575	
11	0	0	0	0	520	571	
12	0	0	0	0	520	576	
13	0	0	0	0	519	576	
14	0	0	0	0	519	576	
15	0	0	0	0	518	580	
0	0	0	0	0	518	576	
1	0	0	0	0	517	576	
2	0	0	0	0	517	576	
3	0	0	0	0	517	572	
4	0	0	0	0	517	577	
5	0	0	0	0	518	577	
6	0	0	0	0	518	578	
7	0	0	0	0	517	582	
8	0	0	0	0	516	577	
9	0	0	0	0	517	577	
10	0	0	0	0	516	577	
11	0	0	0	0	516	574	
12	0	0	0	0	515	579	
13	0	0	0	0	515	578	
14	0	0	0	0	515	578	
15	0	0	0	0	514	582	
0	0	0	0	0	513	578	
1	0	0	0	0	513	578	
2	0	0	0	0	513	577	
3	0	0	0	0	513	574	
4	0	0	0	0	514	578	
5	0	0	0	0	514	577	
6	0	0	0	0	515	577	
7	0	0	0	0	515	582	
8	0	0	0	0	515	577	
9	0	0	0	0	515	577	
10	0	0	0	0	515	577	
11	0	0	0	0	515	572	
12	0	0	0	0	516	577	
13	0	0	0	0	516	578	
14	0	0	0	0	516	578	
15	0	0	0	0	516	581	
0	0	0	0	0	515	577	
1	0	0	0	0	513	577	
2	0	0	0	0	512	577	
3	0	0	0	0	512	572	
4	0	0	0	0	512	578	
5	0	0	0	0	511	577	
6	0	0	0	0	510	579	
7	0	0	0	0	508	583	
8	0	0	0	0	508	579	
9	0	0	0	0	507	579	
10	0	0	0	0	507	579	
11	0	0	0	0	507	574	
12	0	0	0	0	508	579	
13	0	0	0	0	509	579	
14	0	0	0	0	510	579	
15	0	0	0	0	511	584	
0	0	0	0	0	511	579	
1	0	0	0	0	512	579	
2	0	0	0	0	510	580	
3	0	0	0	0	510	575	
4	0	0	0	0	509	580	
5	0	0	0	0	509	580	
6	0	0	0	0	508	581	
7	0	0	0	0	508	584	
8	0	0	0	0	507	580	
9	0	0	0	0	506	580	
10	0	0	0	0	505	579	
11	0	0	0	0	505	575	
12	0	0	0	0	505	580	
13	0	0	0	0	505	580	
14	0	0	0	0	505	581	
15	0	0	0	0	505	585	
0	0	0	0	0	506	581	
1	0	0	0	0	506	581	
2	0	0	0	0	507	580	
3	0	0	0	0	507	575	
4	0	0	0	0	508	580	
5	0	0	0	0	508	580	
6	0	0	0	0	508	581	
7	0	0	0	0	508	585	
8	0	0	0	0	507	581	
9	0	0	0	0	506	581	
10	0	0	0	0	507	580	
11	0	0	0	0	506	576	
12	0	0	0	0	506	580	
13	0	0	0	0	506	581	
14	0	0	0	0	505	580	
15	0	0	0	0	505	584	
0	0	0	0	0	505	580	
1	0	0	0	0	507	580	
2	0	0	0	0	508	580	
3	0	0	0	0	510	575	
4	0	0	0	0	511	579	
5	0	0	0	0	512	580	
6	0	0	0	0	513	580	
7	0	0	0	0	514	583	
8	0	0	0	0	515	579	
9	0	0	0	0	515	579	
10	0	0	0	0	515	579	
11	0	0	0	0	515	575	
12	0	0	0	0	514	579	
13	0	0	0	0	513	578	
14	0	0	0	0	512	579	
15	0	0	0	0	511	583	
0	0	0	0	0	511	578	
1	0	0	0	0	511	579	
2	0	0	0	0	510	578	
3	0	0	0	0	510	574	
4	0	0	0	0	511	578	
5	0	0	0	0	511	578	
6	0	0	0	0	512	578	
7	0	0	0	0	512	583	
8	0	0	0	0	513	578	
9	0	0	0	0	513	578	
10	0	0	0	0	515	577	
11	0	0	0	0	515	573	
12	0	0	0	0	516	578	
13	0	0	0	0	517	578	
14	0	0	0	0	518	579	
15	0	0	0	0	518	582	
0	0	0	0	0	518	578	
1	0	0	0	0	518	578	
2	0	0	0	0	518	577	
3	0	0	0	0	517	573	
4	0	0	0	0	516	577	
5	0	0	0	0	515	577	
6	0	0	0	0	514	578	
7	0	0	0	0	513	582	
8	0	0	0	0	512	577	
9	0	0	0	0	512	577	
10	0	0	0	0	512	576	
11	0	0	0	0	512	573	
12	0	0	0	0	513	577	
13	0	0	0	0	514	577	
14	0	0	0	0	515	577	
15	0	0	0	0	516	581	
0	0	0	0	0	517	577	
1	0	0	0	0	518	577	
2	0	0	0	0	518	577	
3	0	0	0	0	519	572	
4	0	0	0	0	519	577	
5	0	0	0	0	518	577	
6	0	0	0	0	519	577	
7	0	0	0	0	518	581	
8	0	0	0	0	517	577	
9	0	0	0	0	516	576	
10	0	0	0	0	515	576	
11	0	0	0	0	514	572	
12	0	0	0	0	514	576	
13	0	0	0	0	514	576	
14	0	0	0	0	514	577	
15	0	0	0	0	515	580	
0	0	0	0	0	516	576	
1	0	0	0	0	517	575	
2	0	0	0	0	518	575	
3	0	0	0	0	518	571	
4	0	0	0	0	518	575	
5	0	0	0	0	519	575	
6	0	0	0	0	519	575	
7	0	0	0	0	518	579	
8	0	0	0	0	518	575	
9	0	0	0	0	516	575	
10	0	0	0	0	516	575	
11	0	0	0	0	516	569	
12	0	0	0	0	515	574	
13	0	0	0	0	515	574	
14	0	0	0	0	514	574	
15	0	0	0	0	514	578	
0	0	0	0	0	514	574	
1	0	0	0	0	513	574	
2	0	0	0	0	512	574	
3	0	0	0	0	512	569	
4	0	0	0	0	512	574	
5	0	0	0	0	513	574	
6	0	0	0	0	513	574	
7	0	0	0	0	513	577	
8	0	0	0	0	513	574	
9	0	0	0	0	513	574	
10	0	0	0	0	513	573	
11	0	0	0	0	513	570	
12	0	0	0	0	513	573	
13	0	0	0	0	513	574	
14	0	0	0	0	514	574	
15	0	0	0	0	514	578	
0	0	0	0	0	513	574	
1	0	0	0	0	512	574	
2	0	0	0	0	512	574	
3	0	0	0	0	511	570	
4	0	0	0	0	510	575	
5	0	0	0	0	510	574	
6	0	0	0	0	509	575	
7	0	0	0	0	509	578	
8	0	0	0	0	508	575	
9	0	0	0	0	507	575	
10	0	0	0	0	506	575	
11	0	0	0	0	505	571	
12	0	0	0	0	503	575	
13	0	0	0	0	500	575	
14	0	0	0	0	498	575	
15	0	0	0	0	495	579	
0	0	0	0	0	493	575	
1	0	0	0	0	490	575	
2	0	0	0	0	488	575	
3	0	0	0	0	486	571	
4	0	0	0	0	483	575	
5	0	0	0	0	479	576	
6	0	0	0	0	474	576	
7	0	0	0	0	469	580	
8	0	0	0	0	463	576	
9	0	0	0	0	456	575	
10	0	0	0	0	448	576	
11	0	0	0	0	439	571	
12	0	0	0	0	433	576	
13	0	0	0	0	426	576	
14	0	0	0	0	419	576	
15	0	0	0	0	414	580	
0	0	0	0	0	409	576	
1	0	0	0	0	405	576	
2	0	0	0	0	402	575	
3	0	0	0	0	399	571	
4	0	0	0	0	398	576	
5	0	0	0	0	397	576	
6	0	0	0	0	399	576	
7	0	0	0	0	403	580	
8	0	0	0	0	408	576	
9	0	0	0	0	415	577	
10	0	0	0	0	423	576	
11	0	0	0	0	432	572	
12	0	0	0	0	438	576	
13	0	0	0	0	440	577	
14	0	0	0	0	440	577	
15	0	0	0	0	435	580	
0	0	0	0	0	431	576	
1	0	0	0	0	426	577	
2	0	0	0	0	420	576	
3	0	0	0	0	414	572	
4	0	0	0	0	410	576	
5	0	0	0	0	411	576	
6	0	0	0	0	413	575	
7	0	0	0	0	416	579	
8	0	0	0	0	418	575	
9	0	0	0	0	418	575	
10	0	0	0	0	415	574	
11	0	0	0	0	411	569	
12	0	0	0	0	409	574	
13	0	0	0	0	412	575	
14	0	0	0	0	419	575	
15	0	0	0	0	430	578	
0	0	0	0	0	444	574	
1	0	0	0	0	459	574	
2	0	0	0	0	474	574	
3	0	0	0	0	492	569	
4	0	0	0	0	511	574	
5	0	0	0	0	535	574	
6	0	0	0	0	562	574	
7	0	0	0	0	585	578	
8	0	0	0	0	600	574	
9	0	0	0	0	606	574	
10	0	0	0	0	604	574	
11	0	0	0	0	599	570	
12	0	0	0	0	592	574	
13	0	0	0	0	584	575	
14	0	0	0	0	576	574	
15	0	0	0	0	568	578	
0	0	0	0	0	561	575	
1	0	0	0	0	552	574	
2	0	0	0	0	545	574	
3	0	0	0	0	540	569	
4	0	0	0	0	536	574	
5	0	0	0	0	533	573	
6	0	0	0	0	531	574	
7	0	0	0	0	530	578	
8	0	0	0	0	531	574	
9	0	0	0	0	531	575	
10	0	0	0	0	532	575	
11	0	0	0	0	532	569	
12	0	0	0	0	533	574	
13	0	0	0	0	534	574	
14	0	0	0	0	534	574	
15	0	0	0	0	534	579	
0	0	0	0	0	534	575	
1	0	0	0	0	534	575	
2	0	0	0	0	533	574	
3	0	0	0	0	532	571	
4	0	0	0	0	532	575	
5	0	0	0	0	531	575	
6	0	0	0	0	531	575	
7	0	0	0	0	530	579	
8	0	0	0	0	531	575	
9	0	0	0	0	531	575	
10	0	0	0	0	531	575	
11	0	0	0	0	531	571	
12	0	0	0	0	532	575	
13	0	0	0	0	532	575	
14	0	0	0	0	532	575	
15	0	0	0	0	533	579	
0	0	0	0	0	534	575	
1	0	0	0	0	534	575	
2	0	0	0	0	534	575	
3	0	0	0	0	533	570	
4	0	0	0	0	533	575	
5	0	0	0	0	532	575	
6	0	0	0	0	532	575	
7	0	0	0	0	531	579	
8	0	0	0	0	530	575	
9	0	0	0	0	528	575	
10	0	0	0	0	527	575	
11	0	0	0	0	526	571	
12	0	0	0	0	525	576	
13	0	0	0	0	526	575	
14	0	0	0	0	525	576	
15	0	0	0	0	525	579	
0	0	0	0	0	526	575	
1	0	0	0	0	527	575	
2	0	0	0	0	527	575	
3	0	0	0	0	527	570	
4	0	0	0	0	526	575	
5	0	0	0	0	526	575	
6	0	0	0	0	525	575	
7	0	0	0	0	524	579	
8	0	0	0	0	524	575	
9	0	0	0	0	523	575	
10	0	0	0	0	522	575	
11	0	0	0	0	521	571	
12	0	0	0	0	521	575	
13	0	0	0	0	519	574	
14	0	0	0	0	519	574	
15	0	0	0	0	518	579	
0	0	0	0	0	518	575	
1	0	0	0	0	518	574	
2	0	0	0	0	518	574	
3	0	0	0	0	519	571	
4	0	0	0	0	519	575	
5	0	0	0	0	519	575	
6	0	0	0	0	519	575	
7	0	0	0	0	519	578	
8	0	0	0	0	519	574	
9	0	0	0	0	519	574	
10	0	0	0	0	519	574	
11	0	0	0	0	520	570	
12	0	0	0	0	519	575	
13	0	0	0	0	519	575	
14	0	0	0	0	519	575	
15	0	0	0	0	518	579	
0	0	0	0	0	517	575	
1	0	0	0	0	515	574	
2	0	0	0	0	515	574	
3	0	0	0	0	513	570	
4	0	0	0	0	512	574	
5	0	0	0	0	511	574	
6	0	0	0	0	510	574	
7	0	0	0	0	510	578	
8	0	0	0	0	511	574	
9	0	0	0	0	511	574	
10	0	0	0	0	512	574	
11	0	0	0	0	512	569	
12	0	0	0	0	512	574	
13	0	0	0	0	512	574	
14	0	0	0	0	511	574	
15	0	0	0	0	511	578	
0	0	0	0	0	511	574	
1	0	0	0	0	509	573	
2	0	0	0	0	509	573	
3	0	0	0	0	508	568	
4	0	0	0	0	507	573	
5	0	0	0	0	505	572	
6	0	0	0	0	504	573	
7	0	0	0	0	503	576	
8	0	0	0	0	503	573	
9	0	0	0	0	502	572	
10	0	0	0	0	502	572	
11	0	0	0	0	501	568	
12	0	0	0	0	502	573	
13	0	0	0	0	502	572	
14	0	0	0	0	503	573	
15	0	0	0	0	503	577	
0	0	0	0	0	503	574	
1	0	0	0	0	502	574	
2	0	0	0	0	502	573	
3	0	0	0	0	501	569	
4	0	0	0	0	499	573	
5	0	0	0	0	498	574	
6	0	0	0	0	497	575	
7	0	0	0	0	496	579	
8	0	0	0	0	495	575	
9	0	0	0	0	493	575	
10	0	0	0	0	492	575	
11	0	0	0	0	492	571	
12	0	0	0	0	492	576	
13	0	0	0	0	492	576	
14	0	0	0	0	492	576	
15	0	0	0	0	492	580	
0	0	0	0	0	492	576	
1	0	0	0	0	492	576	
2	0	0	0	0	492	576	
3	0	0	0	0	492	572	
4	0	0	0	0	491	577	
5	0	0	0	0	490	577	
6	0	0	0	0	490	577	
7	0	0	0	0	489	580	
8	0	0	0	0	488	577	
9	0	0	0	0	487	576	
10	0	0	0	0	487	576	
11	0	0	0	0	487	572	
12	0	0	0	0	486	577	
13	0	0	0	0	486	577	
14	0	0	0	0	485	577	
15	0	0	0	0	485	581	
0	0	0	0	0	485	576	
1	0	0	0	0	484	576	
2	0	0	0	0	484	576	
3	0	0	0	0	485	572	
4	0	0	0	0	486	576	
5	0	0	0	0	486	576	
6	0	0	0	0	487	577	
7	0	0	0	0	487	581	
8	0	0	0	0	488	577	
9	0	0	0	0	489	576	
10	0	0	0	0	489	576	
11	0	0	0	0	490	572	
12	0	0	0	0	490	576	
13	0	0	0	0	490	576	
14	0	0	0	0	490	577	
15	0	0	0	0	490	580	
0	0	0	0	0	489	576	
1	0	0	0	0	488	576	
2	0	0	0	0	487	576	
3	0	0	0	0	487	572	
4	0	0	0	0	487	576	
5	0	0	0	0	487	576	
6	0	0	0	0	489	576	
7	0	0	0	0	489	580	
8	0	0	0	0	491	575	
9	0	0	0	0	492	575	
10	0	0	0	0	494	575	
11	0	0	0	0	495	572	
12	0	0	0	0	496	576	
13	0	0	0	0	496	575	
14	0	0	0	0	497	576	
15	0	0	0	0	496	580	
0	0	0	0	0	497	576	
1	0	0	0	0	498	575	
2	0	0	0	0	498	575	
3	0	0	0	0	499	571	
4	0	0	0	0	500	575	
5	0	0	0	0	501	575	
6	0	0	0	0	502	575	
7	0	0	0	0	502	579	
8	0	0	0	0	502	575	
9	0	0	0	0	502	575	
10	0	0	0	0	502	575	
11	0	0	0	0	503	571	
12	0	0	0	0	504	575	
13	0	0	0	0	505	575	
14	0	0	0	0	508	576	
15	0	0	0	0	508	579	
0	0	0	0	0	510	575	
1	0	0	0	0	511	575	
2	0	0	0	0	511	575	
3	0	0	0	0	512	572	
4	0	0	0	0	512	575	
5	0	0	0	0	511	575	
6	0	0	0	0	512	576	
7	0	0	0	0	512	580	
8	0	0	0	0	512	576	
9	0	0	0	0	512	576	
10	0	0	0	0	512	576	
11	0	0	0	0	511	572	
12	0	0	0	0	510	577	
13	0	0	0	0	511	576	
14	0	0	0	0	511	577	
15	0	0	0	0	512	580	
0	0	0	0	0	513	577	
1	0	0	0	0	515	577	
2	0	0	0	0	517	576	
3	0	0	0	0	518	572	
4	0	0	0	0	519	576	
5	0	0	0	0	520	576	
6	0	0	0	0	520	576	
7	0	0	0	0	520	580	
8	0	0	0	0	521	576	
9	0	0	0	0	520	575	
10	0	0	0	0	521	575	
11	0	0	0	0	521	571	
12	0	0	0	0	521	575	
13	0	0	0	0	522	575	
14	0	0	0	0	522	576	
15	0	0	0	0	522	580	
0	0	0	0	0	523	575	
1	0	0	0	0	523	574	
2	0	0	0	0	523	575	
3	0	0	0	0	523	571	
4	0	0	0	0	524	575	
5	0	0	0	0	525	575	
6	0	0	0	0	526	575	
7	0	0	0	0	527	580	
8	0	0	0	0	528	575	
9	0	0	0	0	529	575	
10	0	0	0	0	529	575	
11	0	0	0	0	530	572	
12	0	0	0	0	531	576	
13	0	0	0	0	531	576	
14	0	0	0	0	531	577	
15	0	0	0	0	530	581	
0	0	0	0	0	530	576	
1	0	0	0	0	529	577	
2	0	0	0	0	528	576	
3	0	0	0	0	528	572	
4	0	0	0	0	527	577	
5	0	0	0	0	527	577	
6	0	0	0	0	527	577	
7	0	0	0	0	527	581	
8	0	0	0	0	528	578	
9	0	0	0	0	528	578	
10	0	0	0	0	529	578	
11	0	0	0	0	530	573	
12	0	0	0	0	531	578	
13	0	0	0	0	531	577	
14	0	0	0	0	531	577	
15	0	0	0	0	531	582	
0	0	0	0	0	530	578	
1	0	0	0	0	530	577	
2	0	0	0	0	529	577	
3	0	0	0	0	528	572	
4	0	0	0	0	528	577	
5	0	0	0	0	527	577	
6	0	0	0	0	526	577	
7	0	0	0	0	525	582	
8	0	0	0	0	524	577	
9	0	0	0	0	524	578	
10	0	0	0	0	524	577	
11	0	0	0	0	525	573	
12	0	0	0	0	525	577	
13	0	0	0	0	525	578	
14	0	0	0	0	526	578	
15	0	0	0	0	527	582	
0	0	0	0	0	528	577	
1	0	0	0	0	528	577	
2	0	0	0	0	528	577	
3	0	0	0	0	528	573	
4	0	0	0	0	527	577	
5	0	0	0	0	527	578	
6	0	0	0	0	527	577	
7	0	0	0	0	527	581	
8	0	0	0	0	527	577	
9	0	0	0	0	525	577	
10	0	0	0	0	524	577	
11	0	0	0	0	524	572	
12	0	0	0	0	522	577	
13	0	0	0	0	521	576	
14	0	0	0	0	521	577	
15	0	0	0	0	522	581	
0	0	0	0	0	523	577	
1	0	0	0	0	523	576	
2	0	0	0	0	524	577	
3	0	0	0	0	524	572	
4	0	0	0	0	525	577	
5	0	0	0	0	525	577	
6	0	0	0	0	524	577	
7	0	0	0	0	524	581	
8	0	0	0	0	524	577	
9	0	0	0	0	524	577	
10	0	0	0	0	523	576	
11	0	0	0	0	522	572	
12	0	0	0	0	521	576	
13	0	0	0	0	520	575	
14	0	0	0	0	520	576	
15	0	0	0	0	519	579	
0	0	0	0	0	519	575	
1	0	0	0	0	518	576	
2	0	0	0	0	519	576	
3	0	0	0	0	519	571	
4	0	0	0	0	519	576	
5	0	0	0	0	519	576	
6	0	0	0	0	520	576	
7	0	0	0	0	521	580	
8	0	0	0	0	521	576	
9	0	0	0	0	521	576	
10	0	0	0	0	522	577	
11	0	0	0	0	522	573	
12	0	0	0	0	521	577	
13	0	0	0	0	521	577	
14	0	0	0	0	521	577	
15	0	0	0	0	520	581	
0	0	0	0	0	519	577	
1	0	0	0	0	519	576	
2	0	0	0	0	519	576	
3	0	0	0	0	519	572	
4	0	0	0	0	518	576	
5	0	0	0	0	517	577	
6	0	0	0	0	516	577	
7	0	0	0	0	516	580	
8	0	0	0	0	516	576	
9	0	0	0	0	516	576	
10	0	0	0	0	518	576	
11	0	0	0	0	518	571	
12	0	0	0	0	519	575	
13	0	0	0	0	519	575	
14	0	0	0	0	519	575	
15	0	0	0	0	519	579	
0	0	0	0	0	519	575	
1	0	0	0	0	519	575	
2	0	0	0	0	518	575	
3	0	0	0	0	518	571	
4	0	0	0	0	517	575	
5	0	0	0	0	517	575	
6	0	0	0	0	516	575	
7	0	0	0	0	515	579	
8	0	0	0	0	515	575	
9	0	0	0	0	515	574	
10	0	0	0	0	515	575	
11	0	0	0	0	516	570	
12	0	0	0	0	517	575	
13	0	0	0	0	517	575	
14	0	0	0	0	517	576	
15	0	0	0	0	517	580	
0	0	0	0	0	518	575	
1	0	0	0	0	519	575	
2	0	0	0	0	518	575	
3	0	0	0	0	519	572	
4	0	0	0	0	518	576	
5	0	0	0	0	519	576	
6	0	0	0	0	518	576	
7	0	0	0	0	518	580	
8	0	0	0	0	517	576	
9	0	0	0	0	515	575	
10	0	0	0	0	515	575	
11	0	0	0	0	514	571	
12	0	0	0	0	513	575	
13	0	0	0	0	514	575	
14	0	0	0	0	514	575	
15	0	0	0	0	515	580	
0	0	0	0	0	517	575	
1	0	0	0	0	517	575	
2	0	0	0	0	518	575	
3	0	0	0	0	519	571	
4	0	0	0	0	519	575	
5	0	0	0	0	519	576	
6	0	0	0	0	519	576	
7	0	0	0	0	519	580	
8	0	0	0	0	519	576	
9	0	0	0	0	518	576	
10	0	0	0	0	517	575	
11	0	0	0	0	517	571	
12	0	0	0	0	516	576	
13	0	0	0	0	516	576	
14	0	0	0	0	515	576	
15	0	0	0	0	514	580	
0	0	0	0	0	514	576	
1	0	0	0	0	514	576	
2	0	0	0	0	515	576	
3	0	0	0	0	516	572	
4	0	0	0	0	517	576	
5	0	0	0	0	518	575	
6	0	0	0	0	519	576	
7	0	0	0	0	521	579	
8	0	0	0	0	521	575	
9	0	0	0	0	522	575	
10	0	0	0	0	522	575	
11	0	0	0	0	522	571	
12	0	0	0	0	522	575	
13	0	0	0	0	522	575	
14	0	0	0	0	521	575	
15	0	0	0	0	521	579	
0	0	0	0	0	520	575	
1	0	0	0	0	519	575	
2	0	0	0	0	519	574	
3	0	0	0	0	518	569	
4	0	0	0	0	517	574	
5	0	0	0	0	518	574	
6	0	0	0	0	517	574	
7	0	0	0	0	516	578	
8	0	0	0	0	518	575	
9	0	0	0	0	519	574	
10	0	0	0	0	520	574	
11	0	0	0	0	521	569	
12	0	0	0	0	521	574	
13	0	0	0	0	521	574	
14	0	0	0	0	521	574	
15	0	0	0	0	521	578	
0	0	0	0	0	520	573	
1	0	0	0	0	521	574	
2	0	0	0	0	520	574	
3	0	0	0	0	520	569	
4	0	0	0	0	519	574	
5	0	0	0	0	519	574	
6	0	0	0	0	518	574	
7	0	0	0	0	518	578	
8	0	0	0	0	519	574	
9	0	0	0	0	519	574	
10	0	0	0	0	519	574	
11	0	0	0	0	519	569	
12	0	0	0	0	519	574	
13	0	0	0	0	519	574	
14	0	0	0	0	521	574	
15	0	0	0	0	521	578	
0	0	0	0	0	521	574	
1	0	0	0	0	521	573	
2	0	0	0	0	521	574	
3	0	0	0	0	521	569	
4	0	0	0	0	521	574	
5	0	0	0	0	521	574	
6	0	0	0	0	521	574	
7	0	0	0	0	521	579	
8	0	0	0	0	520	574	
9	0	0	0	0	519	575	
10	0	0	0	0	518	574	
11	0	0	0	0	517	570	
12	0	0	0	0	517	573	
13	0	0	0	0	517	574	
14	0	0	0	0	518	574	
15	0	0	0	0	518	578	
0	0	0	0	0	519	574	
1	0	0	0	0	519	574	
2	0	0	0	0	520	574	
3	0	0	0	0	520	569	
4	0	0	0	0	520	574	
5	0	0	0	0	521	575	
6	0	0	0	0	521	575	
7	0	0	0	0	521	579	
8	0	0	0	0	522	575	
9	0	0	0	0	522	575	
10	0	0	0	0	521	575	
11	0	0	0	0	521	571	
12	0	0	0	0	520	575	
13	0	0	0	0	520	576	
14	0	0	0	0	519	575	
15	0	0	0	0	519	579	
0	0	0	0	0	519	575	
1	0	0	0	0	517	575	
2	0	0	0	0	518	575	
3	0	0	0	0	517	571	
4	0	0	0	0	518	576	
5	0	0	0	0	519	576	
6	0	0	0	0	520	576	
7	0	0	0	0	520	580	
8	0	0	0	0	520	576	
9	0	0	0	0	520	576	
10	0	0	0	0	521	575	
11	0	0	0	0	521	571	
12	0	0	0	0	520	575	
13	0	0	0	0	519	575	
14	0	0	0	0	519	575	
15	0	0	0	0	519	579	
0	0	0	0	0	518	575	
1	0	0	0	0	517	575	
2	0	0	0	0	516	575	
3	0	0	0	0	515	571	
4	0	0	0	0	515	576	
5	0	0	0	0	515	575	
6	0	0	0	0	515	575	
7	0	0	0	0	516	579	
8	0	0	0	0	517	575	
9	0	0	0	0	518	575	
10	0	0	0	0	519	575	
11	0	0	0	0	520	571	
12	0	0	0	0	520	575	
13	0	0	0	0	520	575	
14	0	0	0	0	520	575	
15	0	0	0	0	520	579	
0	0	0	0	0	520	576	
1	0	0	0	0	519	575	
2	0	0	0	0	519	575	
3	0	0	0	0	519	571	
4	0	0	0	0	518	575	
5	0	0	0	0	517	575	
6	0	0	0	0	516	575	
7	0	0	0	0	515	579	
8	0	0	0	0	515	575	
9	0	0	0	0	515	575	
10	0	0	0	0	516	575	
11	0	0	0	0	517	571	
12	0	0	0	0	518	576	
13	0	0	0	0	519	575	
14	0	0	0	0	519	575	
15	0	0	0	0	520	579	
0	0	0	0	0	520	575	
1	0	0	0	0	520	575	
2	0	0	0	0	519	576	
3	0	0	0	0	519	571	
4	0	0	0	0	518	575	
5	0	0	0	0	518	576	
6	0	0	0	0	517	576	
7	0	0	0	0	517	579	
8	0	0	0	0	517	575	
9	0	0	0	0	516	575	
10	0	0	0	0	516	575	
11	0	0	0	0	515	571	
12	0	0	0	0	515	576	
13	0	0	0	0	515	575	
14	0	0	0	0	515	576	
15	0	0	0	0	515	580	
0	0	0	0	0	516	575	
1	0	0	0	0	516	575	
2	0	0	0	0	516	575	
3	0	0	0	0	517	571	
4	0	0	0	0	518	576	
5	0	0	0	0	519	575	
6	0	0	0	0	518	576	
7	0	0	0	0	518	580	
8	0	0	0	0	518	576	
9	0	0	0	0	518	576	
10	0	0	0	0	518	575	
11	0	0	0	0	517	571	
12	0	0	0	0	517	576	
13	0	0	0	0	516	576	
14	0	0	0	0	515	576	
15	0	0	0	0	515	579	
0	0	0	0	0	515	575	
1	0	0	0	0	515	575	
2	0	0	0	0	515	575	
3	0	0	0	0	515	571	
4	0	0	0	0	515	575	
5	0	0	0	0	515	575	
6	0	0	0	0	516	575	
7	0	0	0	0	516	580	
8	0	0	0	0	517	575	
9	0	0	0	0	517	575	
10	0	0	0	0	517	575	
11	0	0	0	0	517	571	
12	0	0	0	0	517	576	
13	0	0	0	0	516	575	
14	0	0	0	0	515	576	
15	0	0	0	0	515	580	
0	0	0	0	0	515	576	
1	0	0	0	0	515	576	
2	0	0	0	0	514	575	
3	0	0	0	0	514	571	
4	0	0	0	0	513	576	
5	0	0	0	0	513	576	
6	0	0	0	0	512	576	
7	0	0	0	0	512	580	
8	0	0	0	0	513	576	
9	0	0	0	0	514	576	
10	0	0	0	0	514	576	
11	0	0	0	0	515	573	
12	0	0	0	0	515	577	
13	0	0	0	0	515	577	
14	0	0	0	0	516	577	
15	0	0	0	0	515	581	
0	0	0	0	0	514	577	
1	0	0	0	0	513	576	
2	0	0	0	0	512	577	
3	0	0	0	0	511	572	
4	0	0	0	0	510	577	
5	0	0	0	0	509	576	
6	0	0	0	0	508	576	
7	0	0	0	0	508	580	
8	0	0	0	0	507	575	
9	0	0	0	0	507	575	
10	0	0	0	0	508	575	
11	0	0	0	0	508	571	
12	0	0	0	0	508	575	
13	0	0	0	0	508	575	
14	0	0	0	0	507	575	
15	0	0	0	0	508	579	
0	0	0	0	0	508	575	
1	0	0	0	0	508	575	
2	0	0	0	0	508	574	
3	0	0	0	0	508	570	
4	0	0	0	0	507	575	
5	0	0	0	0	506	575	
6	0	0	0	0	505	575	
7	0	0	0	0	505	579	
8	0	0	0	0	505	575	
9	0	0	0	0	504	575	
10	0	0	0	0	503	575	
11	0	0	0	0	503	571	
12	0	0	0	0	503	575	
13	0	0	0	0	503	575	
14	0	0	0	0	503	575	
15	0	0	0	0	504	580	
0	0	0	0	0	505	575	
1	0	0	0	0	506	576	
2	0	0	0	0	508	576	
3	0	0	0	0	509	572	
4	0	0	0	0	510	576	
5	0	0	0	0	510	576	
6	0	0	0	0	511	577	
7	0	0	0	0	511	580	
8	0	0	0	0	511	576	
9	0	0	0	0	511	576	
10	0	0	0	0	510	576	
11	0	0	0	0	511	572	
12	0	0	0	0	511	577	
13	0	0	0	0	510	576	
14	0	0	0	0	511	577	
15	0	0	0	0	511	581	
0	0	0	0	0	511	577	
1	0	0	0	0	511	577	
2	0	0	0	0	512	577	
3	0	0	0	0	512	572	
4	0	0	0	0	512	577	
5	0	0	0	0	513	577	
6	0	0	0	0	513	577	
7	0	0	0	0	512	582	
8	0	0	0	0	512	577	
9	0	0	0	0	513	577	
10	0	0	0	0	512	577	
11	0	0	0	0	512	572	
12	0	0	0	0	512	577	
13	0	0	0	0	512	577	
14	0	0	0	0	512	577	
15	0	0	0	0	512	581	
0	0	0	0	0	512	576	
1	0	0	0	0	512	577	
2	0	0	0	0	511	576	
3	0	0	0	0	510	572	
4	0	0	0	0	509	577	
5	0	0	0	0	510	577	
6	0	0	0	0	510	577	
7	0	0	0	0	510	582	
8	0	0	0	0	512	577	
9	0	0	0	0	513	577	
10	0	0	0	0	514	577	
11	0	0	0	0	516	573	
12	0	0	0	0	517	576	
13	0	0	0	0	517	577	
14	0	0	0	0	517	577	
15	0	0	0	0	517	580	
0	0	0	0	0	516	576	
1	0	0	0	0	517	576	
2	0	0	0	0	517	576	
3	0	0	0	0	516	572	
4	0	0	0	0	517	577	
5	0	0	0	0	516	576	
6	0	0	0	0	515	576	
7	0	0	0	0	514	581	
8	0	0	0	0	513	576	
9	0	0	0	0	513	576	
10	0	0	0	0	513	576	
11	0	0	0	0	514	572	
12	0	0	0	0	515	576	
13	0	0	0	0	515	576	
14	0	0	0	0	516	576	
15	0	0	0	0	517	581	
0	0	0	0	0	517	576	
1	0	0	0	0	517	576	
2	0	0	0	0	516	575	
3	0	0	0	0	516	572	
4	0	0	0	0	515	576	
5	0	0	0	0	515	576	
6	0	0	0	0	515	576	
7	0	0	0	0	514	579	
8	0	0	0	0	514	575	
9	0	0	0	0	514	575	
10	0	0	0	0	514	575	
11	0	0	0	0	512	571	
12	0	0	0	0	511	575	
13	0	0	0	0	511	575	
14	0	0	0	0	511	575	
15	0	0	0	0	511	579	
0	0	0	0	0	511	575	
1	0	0	0	0	511	575	
2	0	0	0	0	512	575	
3	0	0	0	0	512	570	
4	0	0	0	0	513	575	
5	0	0	0	0	514	575	
6	0	0	0	0	513	575	
7	0	0	0	0	513	580	
8	0	0	0	0	513	576	
9	0	0	0	0	512	576	
10	0	0	0	0	512	576	
11	0	0	0	0	512	571	
12	0	0	0	0	511	576	
13	0	0	0	0	511	576	
14	0	0	0	0	510	576	
15	0	0	0	0	509	580	
0	0	0	0	0	509	576	
1	0	0	0	0	509	575	
2	0	0	0	0	509	575	
3	0	0	0	0	510	571	
4	0	0	0	0	511	575	
5	0	0	0	0	511	576	
6	0	0	0	0	512	576	
7	0	0	0	0	513	580	
8	0	0	0	0	515	576	
9	0	0	0	0	515	575	
10	0	0	0	0	514	575	
11	0	0	0	0	513	571	
12	0	0	0	0	512	575	
13	0	0	0	0	512	575	
14	0	0	0	0	511	575	
15	0	0	0	0	511	579	
0	0	0	0	0	511	575	
1	0	0	0	0	509	575	
2	0	0	0	0	508	575	
3	0	0	0	0	505	571	
4	0	0	0	0	504	574	
5	0	0	0	0	503	575	
6	0	0	0	0	500	575	
7	0	0	0	0	497	579	
8	0	0	0	0	496	574	
9	0	0	0	0	493	575	
10	0	0	0	0	492	575	
11	0	0	0	0	491	570	
12	0	0	0	0	489	575	
13	0	0	0	0	487	574	
14	0	0	0	0	484	575	
15	0	0	0	0	481	578	
0	0	0	0	0	477	575	
1	0	0	0	0	473	575	
2	0	0	0	0	466	575	
3	0	0	0	0	460	571	
4	0	0	0	0	453	575	
5	0	0	0	0	446	576	
6	0	0	0	0	438	575	
7	0	0	0	0	429	579	
8	0	0	0	0	422	575	
9	0	0	0	0	416	575	
10	0	0	0	0	412	575	
11	0	0	0	0	410	571	
12	0	0	0	0	409	576	
13	0	0	0	0	407	575	
14	0	0	0	0	406	576	
15	0	0	0	0	407	580	
0	0	0	0	0	410	576	
1	0	0	0	0	414	576	
2	0	0	0	0	419	576	
3	0	0	0	0	427	572	
4	0	0	0	0	437	576	
5	0	0	0	0	447	576	
6	0	0	0	0	454	576	
7	0	0	0	0	458	581	
8	0	0	0	0	458	576	
9	0	0	0	0	452	577	
10	0	0	0	0	448	575	
11	0	0	0	0	444	572	
12	0	0	0	0	437	576	
13	0	0	0	0	431	575	
14	0	0	0	0	427	575	
15	0	0	0	0	428	580	
0	0	0	0	0	432	575	
1	0	0	0	0	437	575	
2	0	0	0	0	442	576	
3	0	0	0	0	444	571	
4	0	0	0	0	442	575	
5	0	0	0	0	440	576	
6	0	0	0	0	440	576	
7	0	0	0	0	441	580	
8	0	0	0	0	448	576	
9	0	0	0	0	455	576	
10	0	0	0	0	467	576	
11	0	0	0	0	480	572	
12	0	0	0	0	492	576	
13	0	0	0	0	506	576	
14	0	0	0	0	523	576	
15	0	0	0	0	543	580	
0	0	0	0	0	568	576	
1	0	0	0	0	588	575	
2	0	0	0	0	599	576	
3	0	0	0	0	603	572	
4	0	0	0	0	601	576	
5	0	0	0	0	596	576	
6	0	0	0	0	589	577	
7	0	0	0	0	581	581	
8	0	0	0	0	573	576	
9	0	0	0	0	564	576	
10	0	0	0	0	556	576	
11	0	0	0	0	550	573	
12	0	0	0	0	544	577	
13	0	0	0	0	539	576	
14	0	0	0	0	535	576	
15	0	0	0	0	532	580	
0	0	0	0	0	530	576	
1	0	0	0	0	528	575	
2	0	0	0	0	527	576	
3	0	0	0	0	525	572	
4	0	0	0	0	524	576	
5	0	0	0	0	524	576	
6	0	0	0	0	525	576	
7	0	0	0	0	526	580	
8	0	0	0	0	528	576	
9	0	0	0	0	529	575	
10	0	0	0	0	530	575	
11	0	0	0	0	531	571	
12	0	0	0	0	532	576	
13	0	0	0	0	532	576	
14	0	0	0	0	531	576	
15	0	0	0	0	530	580	
0	0	0	0	0	529	576	
1	0	0	0	0	529	576	
2	0	0	0	0	528	576	
3	0	0	0	0	529	571	
4	0	0	0	0	527	576	
5	0	0	0	0	527	575	
6	0	0	0	0	526	576	
7	0	0	0	0	525	580	
8	0	0	0	0	524	576	
9	0	0	0	0	524	576	
10	0	0	0	0	524	575	
11	0	0	0	0	524	571	
12	0	0	0	0	525	575	
13	0	0	0	0	526	575	
14	0	0	0	0	526	575	
15	0	0	0	0	526	579	
0	0	0	0	0	526	575	
1	0	0	0	0	526	575	
2	0	0	0	0	525	574	
3	0	0	0	0	525	570	
4	0	0	0	0	525	574	
5	0	0	0	0	524	574	
6	0	0	0	0	524	574	
7	0	0	0	0	523	578	
8	0	0	0	0	523	574	
9	0	0	0	0	521	574	
10	0	0	0	0	520	573	
11	0	0	0	0	519	569	
12	0	0	0	0	518	572	
13	0	0	0	0	516	573	
14	0	0	0	0	516	573	
15	0	0	0	0	517	577	
0	0	0	0	0	517	573	
1	0	0	0	0	517	572	
2	0	0	0	0	519	573	
3	0	0	0	0	520	568	
4	0	0	0	0	519	572	
5	0	0	0	0	519	573	
6	0	0	0	0	519	574	
7	0	0	0	0	519	577	
8	0	0	0	0	519	573	
9	0	0	0	0	518	573	
10	0	0	0	0	517	573	
11	0	0	0	0	517	568	
12	0	0	0	0	516	574	
13	0	0	0	0	516	574	
14	0	0	0	0	515	574	
15	0	0	0	0	513	577	
0	0	0	0	0	513	574	
1	0	0	0	0	513	574	
2	0	0	0	0	513	574	
3	0	0	0	0	513	569	
4	0	0	0	0	513	574	
5	0	0	0	0	513	574	
6	0	0	0	0	514	574	
7	0	0	0	0	514	578	
8	0	0	0	0	515	574	
9	0	0	0	0	515	574	
10	0	0	0	0	514	574	
11	0	0	0	0	514	570	
12	0	0	0	0	513	574	
13	0	0	0	0	513	574	
14	0	0	0	0	512	574	
15	0	0	0	0	512	578	
0	0	0	0	0	511	574	
1	0	0	0	0	510	574	
2	0	0	0	0	508	574	
3	0	0	0	0	507	569	
4	0	0	0	0	506	574	
5	0	0	0	0	506	574	
6	0	0	0	0	507	575	
7	0	0	0	0	506	578	
8	0	0	0	0	507	574	
9	0	0	0	0	507	574	
10	0	0	0	0	507	574	
11	0	0	0	0	507	569	
12	0	0	0	0	506	574	
13	0	0	0	0	506	574	
14	0	0	0	0	506	575	
15	0	0	0	0	505	579	
0	0	0	0	0	505	575	
1	0	0	0	0	504	575	
2	0	0	0	0	504	575	
3	0	0	0	0	504	571	
4	0	0	0	0	502	575	
5	0	0	0	0	500	575	
6	0	0	0	0	498	575	
7	0	0	0	0	497	579	
8	0	0	0	0	497	575	
9	0	0	0	0	495	575	
10	0	0	0	0	495	575	
11	0	0	0	0	495	571	
12	0	0	0	0	495	575	
13	0	0	0	0	495	575	
14	0	0	0	0	496	575	
15	0	0	0	0	496	579	
0	0	0	0	0	497	576	
1	0	0	0	0	497	576	
2	0	0	0	0	496	576	
3	0	0	0	0	496	571	
4	0	0	0	0	496	576	
5	0	0	0	0	495	575	
6	0	0	0	0	494	575	
7	0	0	0	0	493	580	
8	0	0	0	0	493	575	
9	0	0	0	0	492	575	
10	0	0	0	0	491	575	
11	0	0	0	0	489	571	
12	0	0	0	0	488	575	
13	0	0	0	0	487	576	
14	0	0	0	0	487	576	
15	0	0	0	0	488	580	
0	0	0	0	0	489	575	
1	0	0	0	0	489	576	
2	0	0	0	0	489	575	
3	0	0	0	0	489	571	
4	0	0	0	0	490	575	
5	0	0	0	0	490	575	
6	0	0	0	0	490	575	
7	0	0	0	0	489	579	
8	0	0	0	0	489	575	
9	0	0	0	0	488	574	
10	0	0	0	0	488	575	
11	0	0	0	0	487	570	
12	0	0	0	0	487	575	
13	0	0	0	0	486	575	
14	0	0	0	0	486	575	
15	0	0	0	0	484	578	
0	0	0	0	0	484	574	
1	0	0	0	0	484	574	
2	0	0	0	0	484	573	
3	0	0	0	0	485	570	
4	0	0	0	0	486	574	
5	0	0	0	0	487	574	
6	0	0	0	0	488	574	
7	0	0	0	0	489	578	
8	0	0	0	0	490	574	
9	0	0	0	0	490	574	
10	0	0	0	0	491	574	
11	0	0	0	0	491	569	
12	0	0	0	0	491	574	
13	0	0	0	0	491	574	
14	0	0	0	0	492	574	
15	0	0	0	0	492	577	
0	0	0	0	0	492	574	
1	0	0	0	0	492	574	
2	0	0	0	0	492	574	
3	0	0	0	0	492	570	
4	0	0	0	0	492	574	
5	0	0	0	0	492	574	
6	0	0	0	0	493	575	
7	0	0	0	0	494	579	
8	0	0	0	0	495	574	
9	0	0	0	0	497	574	
10	0	0	0	0	499	574	
11	0	0	0	0	501	570	
12	0	0	0	0	502	575	
13	0	0	0	0	503	575	
14	0	0	0	0	503	576	
15	0	0	0	0	504	579	
0	0	0	0	0	504	576	
1	0	0	0	0	504	576	
2	0	0	0	0	505	576	
3	0	0	0	0	505	572	
4	0	0	0	0	505	577	
5	0	0	0	0	505	577	
6	0	0	0	0	504	577	
7	0	0	0	0	504	582	
8	0	0	0	0	504	577	
9	0	0	0	0	504	578	
10	0	0	0	0	505	577	
11	0	0	0	0	507	573	
12	0	0	0	0	508	577	
13	0	0	0	0	510	578	
14	0	0	0	0	511	578	
15	0	0	0	0	512	582	
0	0	0	0	0	513	578	
1	0	0	0	0	514	578	
2	0	0	0	0	514	579	
3	0	0	0	0	515	574	
4	0	0	0	0	515	579	
5	0	0	0	0	515	579	
6	0	0	0	0	516	579	
7	0	0	0	0	516	583	
8	0	0	0	0	517	579	
9	0	0	0	0	517	579	
10	0	0	0	0	517	579	
11	0	0	0	0	517	574	
12	0	0	0	0	517	579	
13	0	0	0	0	518	579	
14	0	0	0	0	519	579	
15	0	0	0	0	519	583	
0	0	0	0	0	521	579	
1	0	0	0	0	522	579	
2	0	0	0	0	523	579	
3	0	0	0	0	524	574	
4	0	0	0	0	525	579	
5	0	0	0	0	525	578	
6	0	0	0	0	524	579	
7	0	0	0	0	524	583	
8	0	0	0	0	525	579	
9	0	0	0	0	525	578	
10	0	0	0	0	525	578	
11	0	0	0	0	525	574	
12	0	0	0	0	524	578	
13	0	0	0	0	524	578	
14	0	0	0	0	524	578	
15	0	0	0	0	525	582	
0	0	0	0	0	524	578	
1	0	0	0	0	524	578	
2	0	0	0	0	524	577	
3	0	0	0	0	525	573	
4	0	0	0	0	526	578	
5	0	0	0	0	528	577	
6	0	0	0	0	529	578	
7	0	0	0	0	530	582	
8	0	0	0	0	531	577	
9	0	0	0	0	531	577	
10	0	0	0	0	531	577	
11	0	0	0	0	531	572	
12	0	0	0	0	530	577	
13	0	0	0	0	529	576	
14	0	0	0	0	529	577	
15	0	0	0	0	528	581	
0	0	0	0	0	528	577	
1	0	0	0	0	527	577	
2	0	0	0	0	526	576	
3	0	0	0	0	526	572	
4	0	0	0	0	525	576	
5	0	0	0	0	525	576	
6	0	0	0	0	526	577	
7	0	0	0	0	526	580	
8	0	0	0	0	527	577	
9	0	0	0	0	526	577	
10	0	0	0	0	527	576	
11	0	0	0	0	528	572	
12	0	0	0	0	528	576	
13	0	0	0	0	528	577	
14	0	0	0	0	529	577	
15	0	0	0	0	529	581	
0	0	0	0	0	528	576	
1	0	0	0	0	528	576	
2	0	0	0	0	527	575	
3	0	0	0	0	527	572	
4	0	0	0	0	526	575	
5	0	0	0	0	524	576	
6	0	0	0	0	522	576	
7	0	0	0	0	521	580	
8	0	0	0	0	521	576	
9	0	0	0	0	521	576	
10	0	0	0	0	520	576	
11	0	0	0	0	520	572	
12	0	0	0	0	521	576	
13	0	0	0	0	522	575	
14	0	0	0	0	522	576	
15	0	0	0	0	523	579	
0	0	0	0	0	523	575	
1	0	0	0	0	523	575	
2	0	0	0	0	523	575	
3	0	0	0	0	524	571	
4	0	0	0	0	523	575	
5	0	0	0	0	522	575	
6	0	0	0	0	522	575	
7	0	0	0	0	522	579	
8	0	0	0	0	521	576	
9	0	0	0	0	519	575	
10	0	0	0	0	519	575	
11	0	0	0	0	518	572	
12	0	0	0	0	518	576	
13	0	0	0	0	518	576	
14	0	0	0	0	518	577	
15	0	0	0	0	519	581	
0	0	0	0	0	519	576	
1	0	0	0	0	520	576	
2	0	0	0	0	520	577	
3	0	0	0	0	521	572	
4	0	0	0	0	522	577	
5	0	0	0	0	523	577	
6	0	0	0	0	522	577	
7	0	0	0	0	521	581	
8	0	0	0	0	521	577	
9	0	0	0	0	520	576	
10	0	0	0	0	520	577	
11	0	0	0	0	519	572	
12	0	0	0	0	518	576	
13	0	0	0	0	518	576	
14	0	0	0	0	518	576	
15	0	0	0	0	516	582	
0	0	0	0	0	516	577	
1	0	0	0	0	517	577	
2	0	0	0	0	517	577	
3	0	0	0	0	517	572	
4	0	0	0	0	519	577	
5	0	0	0	0	520	577	
6	0	0	0	0	520	577	
7	0	0	0	0	521	581	
8	0	0	0	0	522	577	
9	0	0	0	0	523	576	
10	0	0	0	0	523	577	
11	0	0	0	0	523	572	
12	0	0	0	0	522	577	
13	0	0	0	0	521	577	
14	0	0	0	0	521	577	
15	0	0	0	0	520	580	
0	0	0	0	0	520	576	
1	0	0	0	0	519	576	
2	0	0	0	0	517	576	
3	0	0	0	0	516	571	
4	0	0	0	0	515	575	
5	0	0	0	0	514	575	
6	0	0	0	0	514	575	
7	0	0	0	0	515	579	
8	0	0	0	0	516	575	
9	0	0	0	0	516	575	
10	0	0	0	0	516	574	
11	0	0	0	0	517	570	
12	0	0	0	0	517	575	
13	0	0	0	0	517	575	
14	0	0	0	0	516	575	
15	0	0	0	0	517	579	
0	0	0	0	0	517	575	
1	0	0	0	0	516	574	
2	0	0	0	0	515	574	
3	0	0	0	0	516	569	
4	0	0	0	0	516	574	
5	0	0	0	0	515	574	
6	0	0	0	0	515	574	
7	0	0	0	0	515	579	
8	0	0	0	0	515	575	
9	0	0	0	0	515	574	
10	0	0	0	0	516	574	
11	0	0	0	0	517	570	
12	0	0	0	0	517	574	
13	0	0	0	0	518	574	
14	0	0	0	0	519	574	
15	0	0	0	0	519	578	
0	0	0	0	0	519	573	
1	0	0	0	0	519	573	
2	0	0	0	0	518	573	
3	0	0	0	0	518	569	
4	0	0	0	0	518	573	
5	0	0	0	0	518	574	
6	0	0	0	0	518	574	
7	0	0	0	0	518	578	
8	0	0	0	0	517	574	
9	0	0	0	0	517	574	
10	0	0	0	0	516	573	
11	0	0	0	0	515	569	
12	0	0	0	0	515	573	
13	0	0	0	0	515	573	
14	0	0	0	0	514	573	
15	0	0	0	0	515	577	
0	0	0	0	0	515	573	
1	0	0	0	0	516	574	
2	0	0	0	0	517	573	
3	0	0	0	0	517	569	
4	0	0	0	0	519	574	
5	0	0	0	0	519	574	
6	0	0	0	0	518	574	
7	0	0	0	0	518	578	
8	0	0	0	0	518	574	
9	0	0	0	0	518	574	
10	0	0	0	0	518	573	
11	0	0	0	0	517	569	
12	0	0	0	0	517	574	
13	0	0	0	0	517	574	
14	0	0	0	0	516	574	
15	0	0	0	0	515	577	
0	0	0	0	0	515	574	
1	0	0	0	0	515	573	
2	0	0	0	0	515	573	
3	0	0	0	0	515	569	
4	0	0	0	0	516	574	
5	0	0	0	0	517	574	
6	0	0	0	0	518	574	
7	0	0	0	0	518	578	
8	0	0	0	0	519	574	
9	0	0	0	0	520	574	
10	0	0	0	0	520	574	
11	0	0	0	0	520	569	
12	0	0	0	0	520	574	
13	0	0	0	0	519	574	
14	0	0	0	0	519	574	
15	0	0	0	0	519	578	
0	0	0	0	0	519	574	
1	0	0	0	0	518	574	
2	0	0	0	0	517	574	
3	0	0	0	0	517	569	
4	0	0	0	0	516	574	
5	0	0	0	0	515	574	
6	0	0	0	0	515	575	
7	0	0	0	0	515	579	
8	0	0	0	0	516	575	
9	0	0	0	0	517	574	
10	0	0	0	0	518	575	
11	0	0	0	0	519	570	
12	0	0	0	0	519	574	
13	0	0	0	0	519	575	
14	0	0	0	0	520	575	
15	0	0	0	0	520	579	
0	0	0	0	0	520	575	
1	0	0	0	0	521	575	
2	0	0	0	0	520	575	
3	0	0	0	0	519	571	
4	0	0	0	0	519	575	
5	0	0	0	0	517	575	
6	0	0	0	0	516	576	
7	0	0	0	0	515	579	
8	0	0	0	0	515	576	
9	0	0	0	0	515	575	
10	0	0	0	0	515	575	
11	0	0	0	0	515	571	
12	0	0	0	0	515	575	
13	0	0	0	0	517	575	
14	0	0	0	0	517	576	
15	0	0	0	0	518	580	
0	0	0	0	0	519	575	
1	0	0	0	0	519	575	
2	0	0	0	0	519	575	
3	0	0	0	0	520	571	
4	0	0	0	0	520	575	
5	0	0	0	0	520	575	
6	0	0	0	0	520	575	
7	0	0	0	0	520	579	
8	0	0	0	0	520	575	
9	0	0	0	0	519	575	
10	0	0	0	0	519	575	
11	0	0	0	0	518	570	
12	0	0	0	0	518	574	
13	0	0	0	0	517	575	
14	0	0	0	0	517	575	
15	0	0	0	0	518	578	
0	0	0	0	0	519	574	
1	0	0	0	0	519	574	
2	0	0	0	0	520	574	
3	0	0	0	0	520	570	
4	0	0	0	0	520	574	
5	0	0	0	0	521	574	
6	0	0	0	0	521	574	
7	0	0	0	0	520	578	
8	0	0	0	0	520	574	
9	0	0	0	0	520	574	
10	0	0	0	0	520	575	
11	0	0	0	0	520	570	
12	0	0	0	0	519	575	
13	0	0	0	0	519	575	
14	0	0	0	0	518	575	
15	0	0	0	0	518	579	
0	0	0	0	0	517	575	
1	0	0	0	0	516	575	
2	0	0	0	0	516	575	
3	0	0	0	0	516	571	
4	0	0	0	0	517	575	
5	0	0	0	0	519	575	
6	0	0	0	0	520	575	
7	0	0	0	0	520	579	
8	0	0	0	0	521	576	
9	0	0	0	0	521	576	
10	0	0	0	0	521	576	
11	0	0	0	0	521	572	
12	0	0	0	0	521	576	
13	0	0	0	0	521	576	
14	0	0	0	0	521	576	
15	0	0	0	0	521	580	
0	0	0	0	0	520	576	
1	0	0	0	0	519	575	
2	0	0	0	0	518	575	
3	0	0	0	0	518	571	
4	0	0	0	0	517	576	
5	0	0	0	0	517	576	
6	0	0	0	0	516	576	
7	0	0	0	0	517	579	
8	0	0	0	0	517	575	
9	0	0	0	0	519	575	
10	0	0	0	0	520	576	
11	0	0	0	0	521	572	
12	0	0	0	0	521	576	
13	0	0	0	0	520	576	
14	0	0	0	0	520	576	
15	0	0	0	0	520	580	
0	0	0	0	0	519	576	
1	0	0	0	0	520	576	
2	0	0	0	0	519	576	
3	0	0	0	0	519	572	
4	0	0	0	0	518	576	
5	0	0	0	0	517	576	
6	0	0	0	0	516	576	
7	0	0	0	0	516	580	
8	0	0	0	0	516	576	
9	0	0	0	0	515	576	
10	0	0	0	0	515	576	
11	0	0	0	0	515	572	
12	0	0	0	0	516	576	
13	0	0	0	0	517	576	
14	0	0	0	0	518	576	
15	0	0	0	0	519	580	
0	0	0	0	0	519	576	
1	0	0	0	0	520	576	
2	0	0	0	0	520	576	
3	0	0	0	0	520	572	
4	0	0	0	0	519	576	
5	0	0	0	0	520	576	
6	0	0	0	0	519	577	
7	0	0	0	0	518	581	
8	0	0	0	0	518	576	
9	0	0	0	0	518	576	
10	0	0	0	0	517	576	
11	0	0	0	0	516	572	
12	0	0	0	0	516	576	
13	0	0	0	0	516	576	
14	0	0	0	0	515	576	
15	0	0	0	0	515	580	
0	0	0	0	0	515	576	
1	0	0	0	0	516	575	
2	0	0	0	0	516	575	
3	0	0	0	0	517	571	
4	0	0	0	0	517	575	
5	0	0	0	0	517	575	
6	0	0	0	0	516	575	
7	0	0	0	0	516	580	
8	0	0	0	0	516	575	
9	0	0	0	0	516	575	
10	0	0	0	0	515	575	
11	0	0	0	0	515	570	
12	0	0	0	0	515	575	
13	0	0	0	0	514	575	
14	0	0	0	0	513	575	
15	0	0	0	0	512	579	
0	0	0	0	0	512	576	
1	0	0	0	0	512	576	
2	0	0	0	0	512	576	
3	0	0	0	0	512	572	
4	0	0	0	0	512	576	
5	0	0	0	0	513	575	
6	0	0	0	0	514	576	
7	0	0	0	0	515	581	
8	0	0	0	0	515	576	
9	0	0	0	0	515	576	
10	0	0	0	0	515	576	
11	0	0	0	0	514	572	
12	0	0	0	0	514	577	
13	0	0	0	0	514	577	
14	0	0	0	0	514	577	
15	0	0	0	0	513	581	
0	0	0	0	0	513	577	
1	0	0	0	0	513	577	
2	0	0	0	0	512	576	
3	0	0	0	0	511	572	
4	0	0	0	0	510	576	
5	0	0	0	0	511	577	
6	0	0	0	0	511	577	
7	0	0	0	0	511	580	
8	0	0	0	0	512	576	
9	0	0	0	0	512	576	
10	0	0	0	0	513	576	
11	0	0	0	0	514	572	
12	0	0	0	0	514	577	
13	0	0	0	0	515	576	
14	0	0	0	0	515	577	
15	0	0	0	0	515	580	
0	0	0	0	0	515	576	
1	0	0	0	0	514	576	
2	0	0	0	0	514	576	
3	0	0	0	0	513	571	
4	0	0	0	0	513	575	
5	0	0	0	0	512	576	
6	0	0	0	0	512	575	
7	0	0	0	0	511	580	
8	0	0	0	0	512	576	
9	0	0	0	0	512	576	
10	0	0	0	0	513	575	
11	0	0	0	0	513	571	
12	0	0	0	0	514	575	
13	0	0	0	0	515	575	
14	0	0	0	0	515	575	
15	0	0	0	0	517	580	
0	0	0	0	0	517	575	
1	0	0	0	0	517	575	
2	0	0	0	0	517	575	
3	0	0	0	0	516	571	
4	0	0	0	0	515	575	
5	0	0	0	0	515	575	
6	0	0	0	0	514	575	
7	0	0	0	0	513	579	
8	0	0	0	0	512	575	
9	0	0	0	0	511	575	
10	0	0	0	0	511	575	
11	0	0	0	0	510	570	
12	0	0	0	0	509	575	
13	0	0	0	0	509	575	
14	0	0	0	0	510	575	
15	0	0	0	0	510	579	
0	0	0	0	0	510	575	
1	0	0	0	0	511	575	
2	0	0	0	0	512	575	
3	0	0	0	0	513	571	
4	0	0	0	0	514	575	
5	0	0	0	0	515	575	
6	0	0	0	0	515	575	
7	0	0	0	0	515	579	
8	0	0	0	0	515	576	
9	0	0	0	0	515	575	
10	0	0	0	0	515	575	
11	0	0	0	0	514	571	
12	0	0	0	0	513	575	
13	0	0	0	0	513	576	
14	0	0	0	0	512	576	
15	0	0	0	0	512	580	
0	0	0	0	0	511	576	
1	0	0	0	0	511	577	
2	0	0	0	0	511	576	
3	0	0	0	0	510	572	
4	0	0	0	0	511	577	
5	0	0	0	0	511	578	
6	0	0	0	0	512	578	
7	0	0	0	0	512	582	
8	0	0	0	0	512	578	
9	0	0	0	0	513	579	
10	0	0	0	0	513	578	
11	0	0	0	0	513	574	
12	0	0	0	0	513	579	
13	0	0	0	0	513	579	
14	0	0	0	0	513	579	
15	0	0	0	0	513	583	
0	0	0	0	0	512	579	
1	0	0	0	0	512	578	
2	0	0	0	0	512	578	
3	0	0	0	0	511	574	
4	0	0	0	0	510	578	
5	0	0	0	0	509	578	
6	0	0	0	0	508	577	
7	0	0	0	0	508	582	
8	0	0	0	0	508	578	
9	0	0	0	0	508	578	
10	0	0	0	0	508	578	
11	0	0	0	0	508	573	
12	0	0	0	0	508	578	
13	0	0	0	0	508	577	
14	0	0	0	0	508	577	
15	0	0	0	0	508	582	
0	0	0	0	0	507	577	
1	0	0	0	0	507	576	
2	0	0	0	0	507	576	
3	0	0	0	0	506	572	
4	0	0	0	0	505	577	
5	0	0	0	0	505	576	
6	0	0	0	0	504	576	
7	0	0	0	0	503	580	
8	0	0	0	0	502	575	
9	0	0	0	0	501	575	
10	0	0	0	0	501	575	
11	0	0	0	0	502	571	
12	0	0	0	0	502	575	
13	0	0	0	0	502	575	
14	0	0	0	0	503	576	
15	0	0	0	0	504	579	
0	0	0	0	0	504	575	
1	0	0	0	0	504	575	
2	0	0	0	0	504	575	
3	0	0	0	0	505	571	
4	0	0	0	0	506	575	
5	0	0	0	0	506	574	
6	0	0	0	0	506	575	
7	0	0	0	0	506	579	
8	0	0	0	0	507	575	
9	0	0	0	0	506	574	
10	0	0	0	0	506	574	
11	0	0	0	0	507	570	
12	0	0	0	0	507	574	
13	0	0	0	0	506	575	
14	0	0	0	0	506	574	
15	0	0	0	0	507	579	
0	0	0	0	0	508	574	
1	0	0	0	0	509	575	
2	0	0	0	0	510	574	
3	0	0	0	0	511	570	
4	0	0	0	0	511	574	
5	0	0	0	0	512	575	
6	0	0	0	0	512	575	
7	0	0	0	0	512	578	
8	0	0	0	0	513	575	
9	0	0	0	0	513	575	
10	0	0	0	0	513	574	
11	0	0	0	0	514	569	
12	0	0	0	0	513	574	
13	0	0	0	0	512	574	
14	0	0	0	0	511	574	
15	0	0	0	0	511	577	
0	0	0	0	0	510	574	
1	0	0	0	0	510	574	
2	0	0	0	0	511	573	
3	0	0	0	0	511	568	
4	0	0	0	0	512	574	
5	0	0	0	0	513	573	
6	0	0	0	0	514	574	
7	0	0	0	0	514	577	
8	0	0	0	0	514	574	
9	0	0	0	0	515	574	
10	0	0	0	0	515	573	
11	0	0	0	0	515	568	
12	0	0	0	0	516	574	
13	0	0	0	0	516	574	
14	0	0	0	0	515	574	
15	0	0	0	0	515	578	
0	0	0	0	0	515	574	
1	0	0	0	0	513	574	
2	0	0	0	0	512	574	
3	0	0	0	0	512	570	
4	0	0	0	0	511	575	
5	0	0	0	0	512	574	
6	0	0	0	0	512	575	
7	0	0	0	0	512	579	
8	0	0	0	0	512	575	
9	0	0	0	0	513	575	
10	0	0	0	0	513	575	
11	0	0	0	0	515	571	
12	0	0	0	0	515	575	
13	0	0	0	0	515	575	
14	0	0	0	0	515	575	
15	0	0	0	0	516	580	
0	0	0	0	0	516	575	
1	0	0	0	0	517	576	
2	0	0	0	0	516	575	
3	0	0	0	0	516	572	
4	0	0	0	0	516	576	
5	0	0	0	0	515	576	
6	0	0	0	0	514	576	
7	0	0	0	0	513	580	
8	0	0	0	0	512	576	
9	0	0	0	0	511	576	
10	0	0	0	0	511	577	
11	0	0	0	0	511	572	
12	0	0	0	0	511	577	
13	0	0	0	0	512	576	
14	0	0	0	0	513	577	
15	0	0	0	0	512	581	
0	0	0	0	0	513	576	
1	0	0	0	0	513	577	
2	0	0	0	0	513	576	
3	0	0	0	0	514	571	
4	0	0	0	0	513	575	
5	0	0	0	0	513	576	
6	0	0	0	0	513	577	
7	0	0	0	0	512	580	
8	0	0	0	0	513	576	
9	0	0	0	0	512	576	
10	0	0	0	0	511	576	
11	0	0	0	0	511	572	
12	0	0	0	0	510	576	
13	0	0	0	0	510	577	
14	0	0	0	0	510	577	
15	0	0	0	0	510	581	
0	0	0	0	0	511	577	
1	0	0	0	0	511	576	
2	0	0	0	0	512	576	
3	0	0	0	0	512	572	
4	0	0	0	0	512	576	
5	0	0	0	0	513	576	
6	0	0	0	0	513	576	
7	0	0	0	0	512	580	
8	0	0	0	0	512	575	
9	0	0	0	0	511	576	
10	0	0	0	0	510	575	
11	0	0	0	0	509	570	
12	0	0	0	0	508	575	
13	0	0	0	0	506	575	
14	0	0	0	0	504	575	
15	0	0	0	0	502	579	
0	0	0	0	0	499	575	
1	0	0	0	0	496	575	
2	0	0	0	0	493	575	
3	0	0	0	0	491	570	
4	0	0	0	0	489	574	
5	0	0	0	0	488	574	
6	0	0	0	0	486	574	
7	0	0	0	0	484	578	
8	0	0	0	0	483	574	
9	0	0	0	0	480	574	
10	0	0	0	0	478	574	
11	0	0	0	0	475	569	
12	0	0	0	0	472	574	
13	0	0	0	0	467	574	
14	0	0	0	0	463	574	
15	0	0	0	0	456	577	
0	0	0	0	0	450	574	
1	0	0	0	0	443	574	
2	0	0	0	0	436	573	
3	0	0	0	0	428	569	
4	0	0	0	0	423	574	
5	0	0	0	0	418	573	
6	0	0	0	0	413	574	
7	0	0	0	0	411	577	
8	0	0	0	0	409	573	
9	0	0	0	0	407	574	
10	0	0	0	0	407	574	
11	0	0	0	0	409	569	
12	0	0	0	0	413	574	
13	0	0	0	0	417	574	
14	0	0	0	0	424	574	
15	0	0	0	0	433	578	
0	0	0	0	0	443	574	
1	0	0	0	0	451	575	
2	0	0	0	0	456	574	
3	0	0	0	0	455	569	
4	0	0	0	0	451	574	
5	0	0	0	0	447	575	
6	0	0	0	0	442	575	
7	0	0	0	0	435	579	
8	0	0	0	0	427	575	
9	0	0	0	0	422	575	
10	0	0	0	0	422	575	
11	0	0	0	0	424	570	
12	0	0	0	0	430	575	
13	0	0	0	0	434	575	
14	0	0	0	0	436	575	
15	0	0	0	0	436	579	
0	0	0	0	0	434	575	
1	0	0	0	0	435	574	
2	0	0	0	0	439	574	
3	0	0	0	0	446	570	
4	0	0	0	0	455	574	
5	0	0	0	0	467	574	
6	0	0	0	0	480	574	
7	0	0	0	0	494	579	
8	0	0	0	0	510	574	
9	0	0	0	0	527	574	
10	0	0	0	0	548	574	
11	0	0	0	0	572	570	
12	0	0	0	0	591	575	
13	0	0	0	0	600	575	
14	0	0	0	0	601	575	
15	0	0	0	0	598	578	
0	0	0	0	0	592	575	
1	0	0	0	0	584	575	
2	0	0	0	0	576	574	
3	0	0	0	0	567	569	
4	0	0	0	0	559	574	
5	0	0	0	0	552	574	
6	0	0	0	0	545	574	
7	0	0	0	0	538	578	
8	0	0	0	0	533	575	
9	0	0	0	0	528	575	
10	0	0	0	0	526	574	
11	0	0	0	0	524	570	
12	0	0	0	0	522	574	
13	0	0	0	0	521	575	
14	0	0	0	0	520	575	
15	0	0	0	0	520	579	
0	0	0	0	0	519	576	
1	0	0	0	0	519	575	
2	0	0	0	0	519	575	
3	0	0	0	0	520	572	
4	0	0	0	0	522	576	
5	0	0	0	0	523	575	
6	0	0	0	0	523	576	
7	0	0	0	0	524	580	
8	0	0	0	0	525	576	
9	0	0	0	0	525	576	
10	0	0	0	0	525	577	
11	0	0	0	0	525	572	
12	0	0	0	0	525	576	
13	0	0	0	0	524	575	
14	0	0	0	0	524	576	
15	0	0	0	0	524	580	
0	0	0	0	0	523	576	
1	0	0	0	0	522	575	
2	0	0	0	0	521	575	
3	0	0	0	0	520	571	
4	0	0	0	0	520	575	
5	0	0	0	0	519	574	
6	0	0	0	0	519	575	
7	0	0	0	0	519	578	
8	0	0	0	0	520	574	
9	0	0	0	0	521	573	
10	0	0	0	0	522	574	
11	0	0	0	0	523	569	
12	0	0	0	0	523	574	
13	0	0	0	0	523	574	
14	0	0	0	0	523	573	
15	0	0	0	0	523	577	
0	0	0	0	0	522	573	
1	0	0	0	0	520	573	
2	0	0	0	0	520	574	
3	0	0	0	0	519	569	
4	0	0	0	0	520	574	
5	0	0	0	0	519	574	
6	0	0	0	0	518	575	
7	0	0	0	0	518	579	
8	0	0	0	0	518	574	
9	0	0	0	0	518	575	
10	0	0	0	0	517	575	
11	0	0	0	0	517	571	
12	0	0	0	0	518	576	
13	0	0	0	0	518	576	
14	0	0	0	0	519	575	
15	0	0	0	0	519	580	
0	0	0	0	0	520	575	
1	0	0	0	0	520	575	
2	0	0	0	0	519	575	
3	0	0	0	0	519	572	
4	0	0	0	0	519	575	
5	0	0	0	0	518	575	
6	0	0	0	0	517	576	
7	0	0	0	0	516	579	
8	0	0	0	0	515	575	
9	0	0	0	0	515	575	
10	0	0	0	0	514	576	
11	0	0	0	0	513	571	
12	0	0	0	0	513	575	
13	0	0	0	0	512	575	
14	0	0	0	0	512	576	
15	0	0	0	0	512	580	
0	0	0	0	0	513	576	
1	0	0	0	0	513	576	
2	0	0	0	0	514	576	
3	0	0	0	0	514	572	
4	0	0	0	0	514	576	
5	0	0	0	0	514	576	
6	0	0	0	0	514	576	
7	0	0	0	0	513	580	
8	0	0	0	0	513	576	
9	0	0	0	0	512	576	
10	0	0	0	0	512	576	
11	0	0	0	0	511	572	
12	0	0	0	0	510	576	
13	0	0	0	0	509	577	
14	0	0	0	0	508	577	
15	0	0	0	0	507	580	
0	0	0	0	0	506	577	
1	0	0	0	0	506	576	
2	0	0	0	0	505	576	
3	0	0	0	0	505	572	
4	0	0	0	0	505	576	
5	0	0	0	0	506	576	
6	0	0	0	0	506	576	
7	0	0	0	0	506	580	
8	0	0	0	0	506	575	
9	0	0	0	0	506	576	
10	0	0	0	0	506	575	
11	0	0	0	0	505	571	
12	0	0	0	0	505	575	
13	0	0	0	0	504	575	
14	0	0	0	0	503	575	
15	0	0	0	0	503	579	
0	0	0	0	0	502	575	
1	0	0	0	0	500	575	
2	0	0	0	0	500	575	
3	0	0	0	0	499	571	
4	0	0	0	0	498	576	
5	0	0	0	0	497	576	
6	0	0	0	0	497	576	
7	0	0	0	0	497	580	
8	0	0	0	0	497	576	
9	0	0	0	0	498	576	
10	0	0	0	0	498	576	
11	0	0	0	0	498	572	
12	0	0	0	0	499	577	
13	0	0	0	0	499	576	
14	0	0	0	0	499	577	
15	0	0	0	0	499	581	
0	0	0	0	0	498	577	
1	0	0	0	0	497	578	
2	0	0	0	0	496	577	
3	0	0	0	0	494	574	
4	0	0	0	0	494	578	
5	0	0	0	0	492	578	
6	0	0	0	0	491	578	
7	0	0	0	0	490	583	
8	0	0	0	0	489	578	
9	0	0	0	0	488	579	
10	0	0	0	0	488	579	
11	0	0	0	0	488	574	
12	0	0	0	0	489	579	
13	0	0	0	0	489	578	
14	0	0	0	0	491	578	
15	0	0	0	0	491	583	
0	0	0	0	0	491	578	
1	0	0	0	0	491	578	
2	0	0	0	0	491	578	
3	0	0	0	0	490	573	
4	0	0	0	0	490	577	
5	0	0	0	0	489	577	
6	0	0	0	0	488	577	
7	0	0	0	0	488	581	
8	0	0	0	0	487	576	
9	0	0	0	0	487	576	
10	0	0	0	0	487	576	
11	0	0	0	0	487	572	
12	0	0	0	0	486	575	
13	0	0	0	0	486	575	
14	0	0	0	0	485	575	
15	0	0	0	0	486	579	
0	0	0	0	0	487	575	
1	0	0	0	0	487	575	
2	0	0	0	0	488	575	
3	0	0	0	0	489	572	
4	0	0	0	0	492	576	
5	0	0	0	0	492	576	
6	0	0	0	0	493	576	
7	0	0	0	0	493	580	
8	0	0	0	0	493	576	
9	0	0	0	0	493	576	
10	0	0	0	0	492	576	
11	0	0	0	0	492	571	
12	0	0	0	0	493	576	
13	0	0	0	0	493	576	
14	0	0	0	0	493	577	
15	0	0	0	0	492	581	
0	0	0	0	0	493	577	
1	0	0	0	0	493	577	
2	0	0	0	0	494	577	
3	0	0	0	0	496	573	
4	0	0	0	0	496	577	
5	0	0	0	0	497	576	
6	0	0	0	0	498	577	
7	0	0	0	0	499	581	
8	0	0	0	0	501	576	
9	0	0	0	0	502	576	
10	0	0	0	0	503	576	
11	0	0	0	0	504	572	
12	0	0	0	0	504	576	
13	0	0	0	0	505	575	
14	0	0	0	0	506	575	
15	0	0	0	0	507	579	
0	0	0	0	0	507	575	
1	0	0	0	0	508	575	
2	0	0	0	0	508	575	
3	0	0	0	0	509	571	
4	0	0	0	0	509	575	
5	0	0	0	0	510	575	
6	0	0	0	0	510	575	
7	0	0	0	0	511	579	
8	0	0	0	0	512	575	
9	0	0	0	0	512	576	
10	0	0	0	0	514	575	
11	0	0	0	0	515	571	
12	0	0	0	0	515	575	
13	0	0	0	0	516	575	
14	0	0	0	0	517	575	
15	0	0	0	0	517	579	
0	0	0	0	0	517	575	
1	0	0	0	0	518	575	
2	0	0	0	0	518	575	
3	0	0	0	0	517	571	
4	0	0	0	0	517	575	
5	0	0	0	0	516	575	
6	0	0	0	0	516	575	
7	0	0	0	0	515	579	
8	0	0	0	0	515	575	
9	0	0	0	0	516	575	
10	0	0	0	0	516	575	
11	0	0	0	0	517	571	
12	0	0	0	0	518	575	
13	0	0	0	0	519	575	
14	0	0	0	0	520	575	
15	0	0	0	0	522	579	
0	0	0	0	0	523	575	
1	0	0	0	0	524	575	
2	0	0	0	0	524	575	
3	0	0	0	0	524	571	
4	0	0	0	0	524	575	
5	0	0	0	0	523	575	
6	0	0	0	0	523	575	
7	0	0	0	0	522	579	
8	0	0	0	0	523	575	
9	0	0	0	0	522	575	
10	0	0	0	0	522	575	
11	0	0	0	0	521	571	
12	0	0	0	0	521	575	
13	0	0	0	0	520	575	
14	0	0	0	0	521	576	
15	0	0	0	0	521	580	
0	0	0	0	0	523	575	
1	0	0	0	0	523	575	
2	0	0	0	0	524	576	
3	0	0	0	0	525	571	
4	0	0	0	0	525	576	
5	0	0	0	0	525	576	
6	0	0	0	0	525	576	
7	0	0	0	0	526	580	
8	0	0	0	0	526	575	
9	0	0	0	0	525	575	
10	0	0	0	0	525	575	
11	0	0	0	0	524	571	
12	0	0	0	0	524	575	
13	0	0	0	0	524	575	
14	0	0	0	0	523	575	
15	0	0	0	0	522	579	
0	0	0	0	0	522	575	
1	0	0	0	0	522	576	
2	0	0	0	0	522	575	
3	0	0	0	0	523	571	
4	0	0	0	0	524	574	
5	0	0	0	0	524	574	
6	0	0	0	0	525	574	
7	0	0	0	0	526	578	
8	0	0	0	0	526	574	
9	0	0	0	0	527	574	
10	0	0	0	0	527	574	
11	0	0	0	0	526	569	
12	0	0	0	0	525	575	
13	0	0	0	0	524	575	
14	0	0	0	0	523	574	
15	0	0	0	0	523	579	
0	0	0	0	0	522	575	
1	0	0	0	0	522	575	
2	0	0	0	0	521	574	
3	0	0	0	0	519	570	
4	0	0	0	0	519	574	
5	0	0	0	0	520	574	
6	0	0	0	0	520	574	
7	0	0	0	0	520	579	
8	0	0	0	0	520	575	
9	0	0	0	0	520	575	
10	0	0	0	0	521	574	
11	0	0	0	0	521	570	
12	0	0	0	0	521	574	
13	0	0	0	0	521	574	
14	0	0	0	0	520	575	
15	0	0	0	0	521	578	
0	0	0	0	0	520	574	
1	0	0	0	0	519	574	
2	0	0	0	0	519	574	
3	0	0	0	0	519	569	
4	0	0	0	0	519	574	
5	0	0	0	0	518	574	
6	0	0	0	0	517	574	
7	0	0	0	0	517	579	
8	0	0	0	0	516	575	
9	0	0	0	0	516	575	
10	0	0	0	0	516	574	
11	0	0	0	0	517	571	
12	0	0	0	0	517	574	
13	0	0	0	0	519	575	
14	0	0	0	0	520	575	
15	0	0	0	0	520	579	
0	0	0	0	0	520	575	
1	0	0	0	0	520	575	
2	0	0	0	0	520	575	
3	0	0	0	0	520	571	
4	0	0	0	0	520	575	
5	0	0	0	0	519	575	
6	0	0	0	0	519	575	
7	0	0	0	0	518	580	
8	0	0	0	0	518	575	
9	0	0	0	0	516	576	
10	0	0	0	0	515	576	
11	0	0	0	0	514	571	
12	0	0	0	0	514	576	
13	0	0	0	0	514	576	
14	0	0	0	0	514	575	
15	0	0	0	0	514	579	
0	0	0	0	0	515	576	
1	0	0	0	0	515	576	
2	0	0	0	0	515	575	
3	0	0	0	0	515	571	
4	0	0	0	0	516	576	
5	0	0	0	0	516	576	
6	0	0	0	0	516	576	
7	0	0	0	0	516	581	
8	0	0	0	0	516	576	
9	0	0	0	0	516	576	
10	0	0	0	0	516	575	
11	0	0	0	0	516	572	
12	0	0	0	0	516	576	
13	0	0	0	0	516	576	
14	0	0	0	0	515	576	
15	0	0	0	0	513	580	
0	0	0	0	0	513	575	
1	0	0	0	0	513	576	
2	0	0	0	0	513	575	
3	0	0	0	0	513	571	
4	0	0	0	0	513	575	
5	0	0	0	0	514	575	
6	0	0	0	0	515	576	
7	0	0	0	0	515	580	
8	0	0	0	0	516	576	
9	0	0	0	0	516	576	
10	0	0	0	0	516	575	
11	0	0	0	0	516	572	
12	0	0	0	0	517	576	
13	0	0	0	0	516	576	
14	0	0	0	0	516	575	
15	0	0	0	0	516	579	
0	0	0	0	0	516	576	
1	0	0	0	0	515	576	
2	0	0	0	0	515	576	
3	0	0	0	0	515	571	
4	0	0	0	0	514	576	
5	0	0	0	0	513	576	
6	0	0	0	0	514	576	
7	0	0	0	0	513	579	
8	0	0	0	0	515	575	
9	0	0	0	0	516	575	
10	0	0	0	0	517	576	
11	0	0	0	0	517	572	
12	0	0	0	0	517	576	
13	0	0	0	0	518	575	
14	0	0	0	0	518	576	
15	0	0	0	0	517	579	
0	0	0	0	0	518	575	
1	0	0	0	0	517	575	
2	0	0	0	0	518	575	
3	0	0	0	0	518	571	
4	0	0	0	0	517	575	
5	0	0	0	0	516	575	
6	0	0	0	0	515	576	
7	0	0	0	0	515	579	
8	0	0	0	0	515	575	
9	0	0	0	0	515	575	
10	0	0	0	0	515	575	
11	0	0	0	0	515	570	
12	0	0	0	0	515	574	
13	0	0	0	0	516	574	
14	0	0	0	0	518	574	
15	0	0	0	0	518	578	
0	0	0	0	0	519	574	
1	0	0	0	0	519	574	
2	0	0	0	0	519	573	
3	0	0	0	0	519	569	
4	0	0	0	0	518	573	
5	0	0	0	0	519	573	
6	0	0	0	0	518	573	
7	0	0	0	0	518	577	
8	0	0	0	0	517	574	
9	0	0	0	0	516	573	
10	0	0	0	0	516	573	
11	0	0	0	0	515	569	
12	0	0	0	0	514	573	
13	0	0	0	0	514	573	
14	0	0	0	0	515	573	
15	0	0	0	0	515	577	
0	0	0	0	0	516	573	
1	0	0	0	0	516	573	
2	0	0	0	0	516	572	
3	0	0	0	0	516	568	
4	0	0	0	0	517	572	
5	0	0	0	0	518	573	
6	0	0	0	0	519	573	
7	0	0	0	0	519	577	
8	0	0	0	0	520	574	
9	0	0	0	0	519	573	
10	0	0	0	0	519	573	
11	0	0	0	0	520	569	
12	0	0	0	0	520	574	
13	0	0	0	0	519	574	
14	0	0	0	0	518	574	
15	0	0	0	0	518	577	
0	0	0	0	0	518	574	
1	0	0	0	0	517	574	
2	0	0	0	0	518	574	
3	0	0	0	0	519	569	
4	0	0	0	0	519	574	
5	0	0	0	0	520	574	
6	0	0	0	0	522	574	
7	0	0	0	0	523	578	
8	0	0	0	0	523	574	
9	0	0	0	0	523	574	
10	0	0	0	0	522	575	
11	0	0	0	0	522	570	
12	0	0	0	0	521	575	
13	0	0	0	0	520	575	
14	0	0	0	0	520	575	
15	0	0	0	0	520	579	
0	0	0	0	0	520	575	
1	0	0	0	0	519	575	
2	0	0	0	0	519	575	
3	0	0	0	0	519	572	
4	0	0	0	0	518	576	
5	0	0	0	0	518	575	
6	0	0	0	0	518	576	
7	0	0	0	0	518	580	
8	0	0	0	0	519	576	
9	0	0	0	0	519	576	
10	0	0	0	0	520	576	
11	0	0	0	0	520	572	
12	0	0	0	0	521	576	
13	0	0	0	0	521	576	
14	0	0	0	0	521	575	
15	0	0	0	0	521	580	
0	0	0	0	0	520	576	
1	0	0	0	0	520	575	
2	0	0	0	0	519	575	
3	0	0	0	0	519	571	
4	0	0	0	0	518	575	
5	0	0	0	0	518	576	
6	0	0	0	0	517	576	
7	0	0	0	0	516	579	
8	0	0	0	0	516	576	
9	0	0	0	0	515	576	
10	0	0	0	0	515	576	
11	0	0	0	0	515	572	
12	0	0	0	0	516	576	
13	0	0	0	0	516	576	
14	0	0	0	0	518	575	
15	0	0	0	0	519	579	
0	0	0	0	0	520	575	
1	0	0	0	0	520	576	
2	0	0	0	0	521	575	
3	0	0	0	0	521	571	
4	0	0	0	0	522	575	
5	0	0	0	0	521	575	
6	0	0	0	0	520	575	
7	0	0	0	0	520	579	
8	0	0	0	0	521	575	
9	0	0	0	0	520	575	
10	0	0	0	0	519	574	
11	0	0	0	0	517	570	
12	0	0	0	0	516	575	
13	0	0	0	0	517	575	
14	0	0	0	0	518	575	
15	0	0	0	0	518	579	
0	0	0	0	0	518	575	
1	0	0	0	0	518	575	
2	0	0	0	0	518	575	
3	0	0	0	0	519	571	
4	0	0	0	0	519	574	
5	0	0	0	0	519	575	
6	0	0	0	0	519	576	
7	0	0	0	0	519	580	
8	0	0	0	0	519	575	
9	0	0	0	0	519	575	
10	0	0	0	0	519	575	
11	0	0	0	0	519	571	
12	0	0	0	0	520	575	
13	0	0	0	0	519	575	
14	0	0	0	0	519	575	
15	0	0	0	0	518	579	
0	0	0	0	0	519	575	
1	0	0	0	0	519	575	
2	0	0	0	0	519	575	
3	0	0	0	0	519	569	
4	0	0	0	0	520	575	
5	0	0	0	0	520	575	
6	0	0	0	0	520	575	
7	0	0	0	0	521	579	
8	0	0	0	0	521	574	
9	0	0	0	0	521	574	
10	0	0	0	0	521	574	
11	0	0	0	0	521	568	
12	0	0	0	0	521	574	
13	0	0	0	0	520	574	
14	0	0	0	0	519	574	
15	0	0	0	0	519	578	
0	0	0	0	0	518	574	
1	0	0	0	0	517	574	
2	0	0	0	0	515	573	
3	0	0	0	0	514	569	
4	0	0	0	0	514	573	
5	0	0	0	0	514	574	
6	0	0	0	0	514	574	
7	0	0	0	0	515	577	
8	0	0	0	0	516	574	
9	0	0	0	0	517	574	
10	0	0	0	0	518	574	
11	0	0	0	0	519	569	
12	0	0	0	0	520	574	
13	0	0	0	0	520	574	
14	0	0	0	0	521	574	
15	0	0	0	0	521	578	
0	0	0	0	0	521	574	
1	0	0	0	0	519	574	
2	0	0	0	0	519	573	
3	0	0	0	0	518	569	
4	0	0	0	0	518	573	
5	0	0	0	0	516	574	
6	0	0	0	0	516	574	
7	0	0	0	0	515	578	
8	0	0	0	0	515	574	
9	0	0	0	0	514	574	
10	0	0	0	0	514	575	
11	0	0	0	0	514	571	
12	0	0	0	0	515	575	
13	0	0	0	0	516	575	
14	0	0	0	0	517	575	
15	0	0	0	0	517	580	
0	0	0	0	0	518	576	
1	0	0	0	0	518	576	
2	0	0	0	0	519	576	
3	0	0	0	0	519	572	
4	0	0	0	0	519	576	
5	0	0	0	0	518	576	
6	0	0	0	0	517	576	
7	0	0	0	0	516	580	
8	0	0	0	0	516	576	
9	0	0	0	0	515	576	
10	0	0	0	0	514	575	
11	0	0	0	0	513	571	
12	0	0	0	0	512	575	
13	0	0	0	0	512	576	
14	0	0	0	0	512	576	
15	0	0	0	0	512	580	
0	0	0	0	0	513	577	
1	0	0	0	0	514	576	
2	0	0	0	0	515	576	
3	0	0	0	0	515	572	
4	0	0	0	0	516	576	
5	0	0	0	0	516	575	
6	0	0	0	0	516	577	
7	0	0	0	0	517	579	
8	0	0	0	0	516	576	
9	0	0	0	0	515	576	
10	0	0	0	0	515	576	
11	0	0	0	0	515	572	
12	0	0	0	0	514	576	
13	0	0	0	0	513	576	
14	0	0	0	0	512	576	
15	0	0	0	0	511	580	
0	0	0	0	0	510	576	
1	0	0	0	0	509	576	
2	0	0	0	0	509	576	
3	0	0	0	0	510	572	
4	0	0	0	0	511	576	
5	0	0	0	0	512	576	
6	0	0	0	0	512	576	
7	0	0	0	0	513	580	
8	0	0	0	0	514	576	
9	0	0	0	0	514	576	
10	0	0	0	0	514	576	
11	0	0	0	0	514	571	
12	0	0	0	0	514	576	
13	0	0	0	0	513	575	
14	0	0	0	0	513	576	
15	0	0	0	0	512	580	
0	0	0	0	0	512	575	
1	0	0	0	0	512	576	
2	0	0	0	0	511	575	
3	0	0	0	0	510	571	
4	0	0	0	0	510	575	
5	0	0	0	0	510	574	
6	0	0	0	0	510	575	
7	0	0	0	0	509	579	
8	0	0	0	0	509	575	
9	0	0	0	0	510	575	
10	0	0	0	0	510	574	
11	0	0	0	0	511	570	
12	0	0	0	0	512	574	
13	0	0	0	0	512	575	
14	0	0	0	0	512	574	
15	0	0	0	0	513	578	
0	0	0	0	0	514	575	
1	0	0	0	0	513	574	
2	0	0	0	0	513	575	
3	0	0	0	0	513	571	
4	0	0	0	0	512	575	
5	0	0	0	0	511	575	
6	0	0	0	0	510	575	
7	0	0	0	0	509	579	
8	0	0	0	0	508	575	
9	0	0	0	0	508	575	
10	0	0	0	0	508	575	
11	0	0	0	0	508	571	
12	0	0	0	0	510	575	
13	0	0	0	0	511	575	
14	0	0	0	0	513	575	
15	0	0	0	0	513	580	
0	0	0	0	0	514	575	
1	0	0	0	0	514	575	
2	0	0	0	0	514	575	
3	0	0	0	0	514	571	
4	0	0	0	0	513	575	
5	0	0	0	0	513	575	
6	0	0	0	0	512	575	
7	0	0	0	0	512	579	
8	0	0	0	0	512	575	
9	0	0	0	0	512	576	
10	0	0	0	0	511	575	
11	0	0	0	0	511	572	
12	0	0	0	0	510	576	
13	0	0	0	0	510	576	
14	0	0	0	0	510	576	
15	0	0	0	0	510	580	
0	0	0	0	0	511	575	
1	0	0	0	0	511	575	
2	0	0	0	0	512	576	
3	0	0	0	0	512	572	
4	0	0	0	0	512	576	
5	0	0	0	0	513	575	
6	0	0	0	0	512	575	
7	0	0	0	0	513	580	
8	0	0	0	0	512	576	
9	0	0	0	0	512	576	
10	0	0	0	0	511	576	
11	0	0	0	0	511	571	
12	0	0	0	0	511	576	
13	0	0	0	0	510	575	
14	0	0	0	0	509	575	
15	0	0	0	0	508	579	
0	0	0	0	0	507	576	
1	0	0	0	0	506	576	
2	0	0	0	0	505	576	
3	0	0	0	0	505	571	
4	0	0	0	0	506	576	
5	0	0	0	0	507	576	
6	0	0	0	0	507	576	
7	0	0	0	0	507	580	
8	0	0	0	0	507	576	
9	0	0	0	0	507	576	
10	0	0	0	0	506	576	
11	0	0	0	0	505	572	
12	0	0	0	0	505	576	
13	0	0	0	0	504	577	
14	0	0	0	0	503	577	
15	0	0	0	0	503	581	
0	0	0	0	0	502	576	
1	0	0	0	0	502	576	
2	0	0	0	0	503	576	
3	0	0	0	0	503	572	
4	0	0	0	0	502	576	
5	0	0	0	0	502	576	
6	0	0	0	0	502	575	
7	0	0	0	0	502	580	
8	0	0	0	0	502	576	
9	0	0	0	0	503	575	
10	0	0	0	0	504	575	
11	0	0	0	0	505	571	
12	0	0	0	0	507	576	
13	0	0	0	0	508	576	
14	0	0	0	0	508	575	
15	0	0	0	0	509	579	
0	0	0	0	0	510	576	
1	0	0	0	0	510	576	
2	0	0	0	0	510	575	
3	0	0	0	0	510	570	
4	0	0	0	0	510	575	
5	0	0	0	0	508	575	
6	0	0	0	0	508	575	
7	0	0	0	0	507	579	
8	0	0	0	0	506	575	
9	0	0	0	0	505	575	
10	0	0	0	0	505	574	
11	0	0	0	0	506	570	
12	0	0	0	0	507	575	
13	0	0	0	0	508	575	
14	0	0	0	0	509	575	
15	0	0	0	0	510	579	
0	0	0	0	0	511	574	
1	0	0	0	0	511	575	
2	0	0	0	0	511	574	
3	0	0	0	0	511	569	
4	0	0	0	0	512	574	
5	0	0	0	0	512	574	
6	0	0	0	0	512	575	
7	0	0	0	0	511	579	
8	0	0	0	0	511	574	
9	0	0	0	0	510	574	
10	0	0	0	0	510	574	
11	0	0	0	0	509	570	
12	0	0	0	0	509	574	
13	0	0	0	0	508	574	
14	0	0	0	0	509	575	
15	0	0	0	0	509	579	
0	0	0	0	0	511	574	
1	0	0	0	0	511	574	
2	0	0	0	0	512	574	
3	0	0	0	0	513	569	
4	0	0	0	0	513	574	
5	0	0	0	0	513	574	
6	0	0	0	0	514	575	
7	0	0	0	0	514	579	
8	0	0	0	0	514	575	
9	0	0	0	0	513	575	
10	0	0	0	0	512	575	
11	0	0	0	0	511	570	
12	0	0	0	0	511	574	
13	0	0	0	0	510	574	
14	0	0	0	0	510	575	
15	0	0	0	0	510	579	
0	0	0	0	0	509	575	
1	0	0	0	0	510	575	
2	0	0	0	0	509	575	
3	0	0	0	0	509	570	
4	0	0	0	0	510	575	
5	0	0	0	0	510	575	
6	0	0	0	0	511	575	
7	0	0	0	0	512	579	
8	0	0	0	0	512	575	
9	0	0	0	0	513	575	
10	0	0	0	0	513	574	
11	0	0	0	0	513	571	
12	0	0	0	0	512	575	
13	0	0	0	0	511	575	
14	0	0	0	0	511	575	
15	0	0	0	0	510	580	
0	0	0	0	0	510	575	
1	0	0	0	0	508	575	
2	0	0	0	0	507	575	
3	0	0	0	0	505	572	
4	0	0	0	0	505	576	
5	0	0	0	0	505	576	
6	0	0	0	0	504	577	
7	0	0	0	0	504	580	
8	0	0	0	0	506	576	
9	0	0	0	0	507	576	
10	0	0	0	0	508	576	
11	0	0	0	0	508	572	
12	0	0	0	0	509	577	
13	0	0	0	0	510	577	
14	0	0	0	0	510	576	
15	0	0	0	0	510	580	
0	0	0	0	0	510	576	
1	0	0	0	0	510	577	
2	0	0	0	0	510	576	
3	0	0	0	0	509	572	
4	0	0	0	0	509	575	
5	0	0	0	0	508	576	
6	0	0	0	0	507	576	
7	0	0	0	0	507	580	
8	0	0	0	0	506	576	
9	0	0	0	0	505	576	
10	0	0	0	0	505	575	
11	0	0	0	0	504	572	
12	0	0	0	0	505	576	
13	0	0	0	0	506	576	
14	0	0	0	0	507	576	
15	0	0	0	0	507	579	
0	0	0	0	0	507	575	
1	0	0	0	0	508	575	
2	0	0	0	0	507	575	
3	0	0	0	0	506	571	
4	0	0	0	0	505	575	
5	0	0	0	0	502	575	
6	0	0	0	0	499	575	
7	0	0	0	0	496	579	
8	0	0	0	0	493	575	
9	0	0	0	0	490	576	
10	0	0	0	0	486	576	
11	0	0	0	0	483	572	
12	0	0	0	0	480	575	
13	0	0	0	0	478	575	
14	0	0	0	0	476	576	
15	0	0	0	0	474	579	
0	0	0	0	0	472	575	
1	0	0	0	0	470	575	
2	0	0	0	0	467	575	
3	0	0	0	0	463	571	
4	0	0	0	0	458	575	
5	0	0	0	0	453	575	
6	0	0	0	0	447	575	
7	0	0	0	0	440	579	
8	0	0	0	0	434	575	
9	0	0	0	0	427	575	
10	0	0	0	0	422	575	
11	0	0	0	0	416	570	
12	0	0	0	0	412	575	
13	0	0	0	0	409	575	
14	0	0	0	0	405	575	
15	0	0	0	0	403	579	
0	0	0	0	0	401	575	
1	0	0	0	0	403	575	
2	0	0	0	0	405	575	
3	0	0	0	0	410	570	
4	0	0	0	0	418	575	
5	0	0	0	0	429	575	
6	0	0	0	0	439	575	
7	0	0	0	0	448	579	
8	0	0	0	0	452	575	
9	0	0	0	0	451	575	
10	0	0	0	0	448	574	
11	0	0	0	0	445	571	
12	0	0	0	0	440	574	
13	0	0	0	0	432	575	
14	0	0	0	0	424	575	
15	0	0	0	0	422	579	
0	0	0	0	0	422	575	
1	0	0	0	0	424	575	
2	0	0	0	0	429	575	
3	0	0	0	0	432	570	
4	0	0	0	0	433	575	
5	0	0	0	0	432	575	
6	0	0	0	0	431	575	
7	0	0	0	0	432	578	
8	0	0	0	0	438	575	
9	0	0	0	0	448	574	
10	0	0	0	0	460	574	
11	0	0	0	0	473	571	
12	0	0	0	0	487	575	
13	0	0	0	0	501	575	
14	0	0	0	0	519	575	
15	0	0	0	0	540	579	
0	0	0	0	0	565	575	
1	0	0	0	0	587	575	
2	0	0	0	0	599	575	
3	0	0	0	0	604	571	
4	0	0	0	0	600	575	
5	0	0	0	0	594	575	
6	0	0	0	0	584	575	
7	0	0	0	0	575	579	
8	0	0	0	0	566	575	
9	0	0	0	0	557	575	
10	0	0	0	0	548	575	
11	0	0	0	0	541	571	
12	0	0	0	0	535	576	
13	0	0	0	0	530	576	
14	0	0	0	0	526	576	
15	0	0	0	0	523	580	
0	0	0	0	0	523	575	
1	0	0	0	0	522	576	
2	0	0	0	0	521	575	
3	0	0	0	0	520	572	
4	0	0	0	0	520	576	
5	0	0	0	0	520	577	
6	0	0	0	0	519	577	
7	0	0	0	0	520	580	
8	0	0	0	0	520	577	
9	0	0	0	0	520	576	
10	0	0	0	0	520	575	
11	0	0	0	0	519	572	
12	0	0	0	0	519	576	
13	0	0	0	0	520	576	
14	0	0	0	0	521	577	
15	0	0	0	0	521	581	
0	0	0	0	0	522	576	
1	0	0	0	0	523	576	
2	0	0	0	0	524	576	
3	0	0	0	0	524	571	
4	0	0	0	0	525	576	
5	0	0	0	0	526	575	
6	0	0	0	0	526	576	
7	0	0	0	0	525	579	
8	0	0	0	0	525	575	
9	0	0	0	0	524	575	
10	0	0	0	0	523	575	
11	0	0	0	0	523	571	
12	0	0	0	0	522	575	
13	0	0	0	0	521	575	
14	0	0	0	0	521	576	
15	0	0	0	0	521	579	
0	0	0	0	0	520	575	
1	0	0	0	0	519	575	
2	0	0	0	0	519	575	
3	0	0	0	0	519	570	
4	0	0	0	0	519	575	
5	0	0	0	0	519	575	
6	0	0	0	0	520	575	
7	0	0	0	0	520	579	
8	0	0	0	0	520	574	
9	0	0	0	0	519	575	
10	0	0	0	0	519	574	
11	0	0	0	0	519	570	
12	0	0	0	0	518	574	
13	0	0	0	0	518	575	
14	0	0	0	0	517	575	
15	0	0	0	0	516	578	
0	0	0	0	0	516	574	
1	0	0	0	0	516	575	
2	0	0	0	0	516	574	
3	0	0	0	0	515	571	
4	0	0	0	0	514	574	
5	0	0	0	0	513	575	
6	0	0	0	0	513	575	
7	0	0	0	0	513	578	
8	0	0	0	0	514	575	
9	0	0	0	0	514	575	
10	0	0	0	0	515	575	
11	0	0	0	0	514	570	
12	0	0	0	0	514	575	
13	0	0	0	0	514	575	
14	0	0	0	0	514	575	
15	0	0	0	0	514	579	
0	0	0	0	0	515	575	
1	0	0	0	0	515	575	
2	0	0	0	0	515	575	
3	0	0	0	0	514	571	
4	0	0	0	0	514	575	
5	0	0	0	0	513	575	
6	0	0	0	0	512	576	
7	0	0	0	0	511	579	
8	0	0	0	0	511	575	
9	0	0	0	0	510	575	
10	0	0	0	0	510	575	
11	0	0	0	0	509	571	
12	0	0	0	0	509	576	
13	0	0	0	0	510	576	
14	0	0	0	0	510	576	
15	0	0	0	0	511	579	
0	0	0	0	0	511	576	
1	0	0	0	0	511	575	
2	0	0	0	0	511	575	
3	0	0	0	0	510	571	
4	0	0	0	0	510	575	
5	0	0	0	0	509	575	
6	0	0	0	0	509	576	
7	0	0	0	0	508	579	
8	0	0	0	0	508	575	
9	0	0	0	0	507	575	
10	0	0	0	0	506	575	
11	0	0	0	0	505	571	
12	0	0	0	0	504	575	
13	0	0	0	0	503	574	
14	0	0	0	0	502	575	
15	0	0	0	0	502	579	
0	0	0	0	0	503	575	
1	0	0	0	0	503	575	
2	0	0	0	0	504	575	
3	0	0	0	0	504	569	
4	0	0	0	0	503	575	
5	0	0	0	0	504	575	
6	0	0	0	0	504	575	
7	0	0	0	0	504	579	
8	0	0	0	0	504	575	
9	0	0	0	0	503	575	
10	0	0	0	0	502	575	
11	0	0	0	0	501	571	
12	0	0	0	0	499	575	
13	0	0	0	0	498	575	
14	0	0	0	0	497	575	
15	0	0	0	0	496	580	
0	0	0	0	0	495	576	
1	0	0	0	0	494	576	
2	0	0	0	0	494	575	
3	0	0	0	0	493	572	
4	0	0	0	0	492	576	
5	0	0	0	0	493	576	
6	0	0	0	0	493	576	
7	0	0	0	0	493	581	
8	0	0	0	0	493	576	
9	0	0	0	0	492	576	
10	0	0	0	0	491	577	
11	0	0	0	0	491	573	
12	0	0	0	0	490	577	
13	0	0	0	0	489	577	
14	0	0	0	0	489	577	
15	0	0	0	0	489	581	
0	0	0	0	0	488	577	
1	0	0	0	0	487	576	
2	0	0	0	0	486	576	
3	0	0	0	0	485	572	
4	0	0	0	0	484	577	
5	0	0	0	0	484	576	
6	0	0	0	0	484	577	
7	0	0	0	0	484	581	
8	0	0	0	0	486	577	
9	0	0	0	0	486	576	
10	0	0	0	0	486	576	
11	0	0	0	0	486	572	
12	0	0	0	0	485	576	
13	0	0	0	0	486	576	
14	0	0	0	0	486	576	
15	0	0	0	0	485	579	
0	0	0	0	0	485	576	
1	0	0	0	0	484	575	
2	0	0	0	0	484	575	
3	0	0	0	0	483	572	
4	0	0	0	0	483	575	
5	0	0	0	0	484	575	
6	0	0	0	0	483	574	
7	0	0	0	0	483	579	
8	0	0	0	0	484	575	
9	0	0	0	0	485	575	
10	0	0	0	0	485	575	
11	0	0	0	0	487	570	
12	0	0	0	0	488	575	
13	0	0	0	0	490	574	
14	0	0	0	0	491	574	
15	0	0	0	0	491	577	
0	0	0	0	0	492	574	
1	0	0	0	0	493	574	
2	0	0	0	0	494	574	
3	0	0	0	0	495	569	
4	0	0	0	0	495	574	
5	0	0	0	0	496	574	
6	0	0	0	0	497	574	
7	0	0	0	0	497	578	
8	0	0	0	0	498	574	
9	0	0	0	0	497	573	
10	0	0	0	0	498	573	
11	0	0	0	0	498	569	
12	0	0	0	0	497	574	
13	0	0	0	0	497	574	
14	0	0	0	0	498	574	
15	0	0	0	0	499	577	
0	0	0	0	0	501	573	
1	0	0	0	0	503	573	
2	0	0	0	0	504	573	
3	0	0	0	0	506	568	
4	0	0	0	0	507	573	
5	0	0	0	0	508	573	
6	0	0	0	0	509	573	
7	0	0	0	0	510	577	
8	0	0	0	0	511	574	
9	0	0	0	0	511	574	
10	0	0	0	0	511	574	
11	0	0	0	0	511	569	
12	0	0	0	0	511	574	
13	0	0	0	0	511	573	
14	0	0	0	0	511	574	
15	0	0	0	0	511	578	
0	0	0	0	0	512	575	
1	0	0	0	0	512	574	
2	0	0	0	0	513	574	
3	0	0	0	0	513	569	
4	0	0	0	0	515	575	
5	0	0	0	0	516	575	
6	0	0	0	0	518	575	
7	0	0	0	0	518	579	
8	0	0	0	0	519	575	
9	0	0	0	0	519	575	
10	0	0	0	0	519	575	
11	0	0	0	0	519	571	
12	0	0	0	0	519	575	
13	0	0	0	0	519	575	
14	0	0	0	0	519	576	
15	0	0	0	0	519	580	
0	0	0	0	0	519	576	
1	0	0	0	0	519	576	
2	0	0	0	0	519	576	
3	0	0	0	0	518	572	
4	0	0	0	0	519	576	
5	0	0	0	0	519	576	
6	0	0	0	0	520	576	
7	0	0	0	0	521	580	
8	0	0	0	0	521	576	
9	0	0	0	0	521	576	
10	0	0	0	0	522	576	
11	0	0	0	0	523	572	
12	0	0	0	0	524	576	
13	0	0	0	0	524	576	
14	0	0	0	0	525	576	
15	0	0	0	0	525	579	
0	0	0	0	0	526	576	
1	0	0	0	0	525	576	
2	0	0	0	0	525	576	
3	0	0	0	0	526	571	
4	0	0	0	0	525	576	
5	0	0	0	0	524	576	
6	0	0	0	0	523	576	
7	0	0	0	0	522	579	
8	0	0	0	0	522	576	
9	0	0	0	0	521	576	
10	0	0	0	0	521	575	
11	0	0	0	0	521	571	
12	0	0	0	0	522	575	
13	0	0	0	0	523	575	
14	0	0	0	0	524	575	
15	0	0	0	0	524	579	
0	0	0	0	0	524	575	
1	0	0	0	0	524	575	
2	0	0	0	0	524	575	
3	0	0	0	0	523	571	
4	0	0	0	0	523	575	
5	0	0	0	0	523	575	
6	0	0	0	0	523	575	
7	0	0	0	0	523	579	
8	0	0	0	0	523	576	
9	0	0	0	0	522	576	
10	0	0	0	0	521	576	
11	0	0	0	0	520	572	
12	0	0	0	0	519	576	
13	0	0	0	0	519	575	
14	0	0	0	0	519	575	
15	0	0	0	0	519	579	
0	0	0	0	0	519	575	
1	0	0	0	0	520	575	
2	0	0	0	0	521	574	
3	0	0	0	0	521	571	
4	0	0	0	0	522	575	
5	0	0	0	0	522	575	
6	0	0	0	0	522	575	
7	0	0	0	0	522	579	
8	0	0	0	0	521	575	
9	0	0	0	0	520	575	
10	0	0	0	0	520	575	
11	0	0	0	0	519	571	
12	0	0	0	0	518	575	
13	0	0	0	0	517	575	
14	0	0	0	0	516	575	
15	0	0	0	0	516	579	
0	0	0	0	0	516	576	
1	0	0	0	0	515	575	
2	0	0	0	0	515	576	
3	0	0	0	0	515	571	
4	0	0	0	0	517	576	
5	0	0	0	0	518	576	
6	0	0	0	0	519	576	
7	0	0	0	0	519	581	
8	0	0	0	0	520	577	
9	0	0	0	0	520	576	
10	0	0	0	0	520	576	
11	0	0	0	0	519	572	
12	0	0	0	0	519	576	
13	0	0	0	0	518	576	
14	0	0	0	0	518	576	
15	0	0	0	0	516	581	
0	0	0	0	0	516	577	
1	0	0	0	0	514	576	
2	0	0	0	0	514	576	
3	0	0	0	0	513	572	
4	0	0	0	0	513	576	
5	0	0	0	0	512	576	
6	0	0	0	0	512	577	
7	0	0	0	0	513	581	
8	0	0	0	0	513	577	
9	0	0	0	0	514	577	
10	0	0	0	0	514	577	
11	0	0	0	0	515	573	
12	0	0	0	0	515	577	
13	0	0	0	0	515	577	
14	0	0	0	0	515	577	
15	0	0	0	0	515	580	
0	0	0	0	0	515	576	
1	0	0	0	0	514	576	
2	0	0	0	0	514	576	
3	0	0	0	0	513	572	
4	0	0	0	0	512	576	
5	0	0	0	0	512	575	
6	0	0	0	0	512	576	
7	0	0	0	0	512	580	
8	0	0	0	0	511	576	
9	0	0	0	0	512	575	
10	0	0	0	0	512	576	
11	0	0	0	0	512	571	
12	0	0	0	0	512	576	
13	0	0	0	0	512	575	
14	0	0	0	0	513	575	
15	0	0	0	0	515	579	
0	0	0	0	0	516	575	
1	0	0	0	0	516	575	
2	0	0	0	0	517	574	
3	0	0	0	0	516	570	
4	0	0	0	0	515	575	
5	0	0	0	0	515	575	
6	0	0	0	0	515	575	
7	0	0	0	0	514	579	
8	0	0	0	0	515	574	
9	0	0	0	0	514	574	
10	0	0	0	0	513	574	
11	0	0	0	0	513	570	
12	0	0	0	0	512	575	
13	0	0	0	0	513	575	
14	0	0	0	0	513	575	
15	0	0	0	0	512	579	
0	0	0	0	0	513	574	
1	0	0	0	0	513	574	
2	0	0	0	0	514	575	
3	0	0	0	0	515	570	
4	0	0	0	0	514	575	
5	0	0	0	0	515	575	
6	0	0	0	0	515	575	
7	0	0	0	0	515	578	
8	0	0	0	0	515	575	
9	0	0	0	0	515	574	
10	0	0	0	0	515	574	
11	0	0	0	0	515	571	
12	0	0	0	0	515	575	
13	0	0	0	0	515	575	
14	0	0	0	0	513	575	
15	0	0	0	0	513	579	
0	0	0	0	0	513	575	
1	0	0	0	0	513	575	
2	0	0	0	0	513	575	
3	0	0	0	0	513	570	
4	0	0	0	0	514	575	
5	0	0	0	0	515	575	
6	0	0	0	0	516	575	
7	0	0	0	0	517	578	
8	0	0	0	0	518	574	
9	0	0	0	0	518	573	
10	0	0	0	0	518	574	
11	0	0	0	0	518	570	
12	0	0	0	0	518	574	
13	0	0	0	0	518	574	
14	0	0	0	0	518	575	
15	0	0	0	0	517	579	
0	0	0	0	0	517	574	
1	0	0	0	0	516	575	
2	0	0	0	0	515	575	
3	0	0	0	0	515	571	
4	0	0	0	0	514	575	
5	0	0	0	0	514	575	
6	0	0	0	0	514	575	
7	0	0	0	0	515	579	
8	0	0	0	0	516	575	
9	0	0	0	0	516	575	
10	0	0	0	0	517	575	
11	0	0	0	0	518	571	
12	0	0	0	0	519	576	
13	0	0	0	0	519	576	
14	0	0	0	0	518	577	
15	0	0	0	0	518	580	
0	0	0	0	0	518	577	
1	0	0	0	0	517	577	
2	0	0	0	0	517	576	
3	0	0	0	0	516	573	
4	0	0	0	0	516	577	
5	0	0	0	0	516	577	
6	0	0	0	0	515	577	
7	0	0	0	0	514	580	
8	0	0	0	0	514	577	
9	0	0	0	0	513	577	
10	0	0	0	0	513	576	
11	0	0	0	0	513	572	
12	0	0	0	0	513	576	
13	0	0	0	0	513	576	
14	0	0	0	0	514	576	
15	0	0	0	0	515	579	
0	0	0	0	0	516	576	
1	0	0	0	0	517	575	
2	0	0	0	0	517	575	
3	0	0	0	0	517	571	
4	0	0	0	0	517	575	
5	0	0	0	0	518	574	
6	0	0	0	0	518	574	
7	0	0	0	0	519	578	
8	0	0	0	0	519	574	
9	0	0	0	0	519	574	
10	0	0	0	0	518	574	
11	0	0	0	0	516	570	
12	0	0	0	0	516	574	
13	0	0	0	0	515	574	
14	0	0	0	0	515	575	
15	0	0	0	0	516	578	
0	0	0	0	0	516	574	
1	0	0	0	0	516	574	
2	0	0	0	0	517	574	
3	0	0	0	0	518	569	
4	0	0	0	0	518	574	
5	0	0	0	0	518	574	
6	0	0	0	0	518	574	
7	0	0	0	0	517	577	
8	0	0	0	0	518	573	
9	0	0	0	0	519	573	
10	0	0	0	0	518	573	
11	0	0	0	0	519	568	
12	0	0	0	0	519	573	
13	0	0	0	0	518	572	
14	0	0	0	0	517	573	
15	0	0	0	0	517	577	
0	0	0	0	0	516	572	
1	0	0	0	0	516	573	
2	0	0	0	0	517	572	
3	0	0	0	0	517	568	
4	0	0	0	0	517	572	
5	0	0	0	0	518	573	
6	0	0	0	0	519	573	
7	0	0	0	0	519	577	
8	0	0	0	0	519	572	
9	0	0	0	0	519	573	
10	0	0	0	0	520	573	
11	0	0	0	0	520	569	
12	0	0	0	0	519	574	
13	0	0	0	0	519	574	
14	0	0	0	0	519	574	
15	0	0	0	0	518	577	
0	0	0	0	0	519	574	
1	0	0	0	0	518	574	
2	0	0	0	0	517	575	
3	0	0	0	0	516	569	
