# OpenSignals Text File Format. Version 1
# {"98:D3:91:FD:69:48": {"position": 0, "device": "bitalino_rev", "device name": "98:D3:91:FD:69:48", "device connection": "BTH98:D3:91:FD:69:48", "sampling rate": 1000, "resolution": [4, 1, 1, 1, 1, 10, 10], "firmware version": 1281, "comments": "", "keywords": "", "mode": 0, "sync interval": 2, "date": "2021-9-5", "time": "15:20:1.842", "channels": [2, 5], "sensor": ["RAW", "RAW"], "label": ["A2", "A5"], "column": ["nSeq", "I1", "I2", "O1", "O2", "A2", "A5"], "special": [{}, {}], "digital IO": [0, 0, 1, 1], "convertedValues": 0}}
# EndOfHeader
0	0	0	0	0	464	410	
1	0	0	0	0	465	415	
2	0	0	0	0	468	410	
3	0	0	0	0	474	410	
4	0	0	0	0	481	409	
5	0	0	0	0	489	405	
6	0	0	0	0	496	410	
7	0	0	0	0	503	409	
8	0	0	0	0	508	409	
9	0	0	0	0	511	414	
10	0	0	0	0	514	409	
11	0	0	0	0	515	409	
12	0	0	0	0	515	409	
13	0	0	0	0	514	404	
14	0	0	0	0	510	409	
15	0	0	0	0	504	410	
0	0	0	0	0	495	410	
1	0	0	0	0	487	414	
2	0	0	0	0	480	409	
3	0	0	0	0	474	409	
4	0	0	0	0	472	409	
5	0	0	0	0	472	404	
6	0	0	0	0	475	409	
7	0	0	0	0	480	409	
8	0	0	0	0	487	409	
9	0	0	0	0	496	414	
10	0	0	0	0	503	410	
11	0	0	0	0	510	409	
12	0	0	0	0	514	408	
13	0	0	0	0	519	404	
14	0	0	0	0	521	409	
15	0	0	0	0	521	409	
0	0	0	0	0	520	409	
1	0	0	0	0	518	414	
2	0	0	0	0	514	409	
3	0	0	0	0	507	409	
4	0	0	0	0	498	409	
5	0	0	0	0	489	403	
6	0	0	0	0	482	409	
7	0	0	0	0	477	409	
8	0	0	0	0	473	409	
9	0	0	0	0	473	414	
10	0	0	0	0	477	409	
11	0	0	0	0	483	409	
12	0	0	0	0	490	409	
13	0	0	0	0	499	403	
14	0	0	0	0	506	409	
15	0	0	0	0	512	409	
0	0	0	0	0	517	409	
1	0	0	0	0	520	414	
2	0	0	0	0	524	409	
3	0	0	0	0	525	409	
4	0	0	0	0	524	409	
5	0	0	0	0	522	404	
6	0	0	0	0	517	409	
7	0	0	0	0	511	408	
8	0	0	0	0	502	409	
9	0	0	0	0	493	414	
10	0	0	0	0	486	409	
11	0	0	0	0	480	409	
12	0	0	0	0	477	408	
13	0	0	0	0	477	404	
14	0	0	0	0	480	409	
15	0	0	0	0	485	410	
0	0	0	0	0	491	409	
1	0	0	0	0	498	415	
2	0	0	0	0	505	410	
3	0	0	0	0	510	410	
4	0	0	0	0	515	409	
5	0	0	0	0	519	405	
6	0	0	0	0	522	410	
7	0	0	0	0	523	410	
8	0	0	0	0	523	411	
9	0	0	0	0	521	415	
10	0	0	0	0	517	411	
11	0	0	0	0	510	411	
12	0	0	0	0	502	411	
13	0	0	0	0	493	406	
14	0	0	0	0	485	411	
15	0	0	0	0	480	411	
0	0	0	0	0	477	412	
1	0	0	0	0	477	416	
2	0	0	0	0	481	411	
3	0	0	0	0	487	411	
4	0	0	0	0	494	411	
5	0	0	0	0	501	407	
6	0	0	0	0	508	412	
7	0	0	0	0	514	412	
8	0	0	0	0	518	412	
9	0	0	0	0	521	416	
10	0	0	0	0	523	411	
11	0	0	0	0	523	411	
12	0	0	0	0	523	412	
13	0	0	0	0	521	407	
14	0	0	0	0	517	411	
15	0	0	0	0	510	412	
0	0	0	0	0	502	411	
1	0	0	0	0	494	415	
2	0	0	0	0	488	410	
3	0	0	0	0	483	410	
4	0	0	0	0	480	411	
5	0	0	0	0	480	405	
6	0	0	0	0	483	411	
7	0	0	0	0	488	411	
8	0	0	0	0	495	411	
9	0	0	0	0	503	415	
10	0	0	0	0	511	410	
11	0	0	0	0	516	410	
12	0	0	0	0	521	410	
13	0	0	0	0	525	404	
14	0	0	0	0	527	410	
15	0	0	0	0	527	409	
0	0	0	0	0	527	410	
1	0	0	0	0	525	415	
2	0	0	0	0	521	410	
3	0	0	0	0	513	410	
4	0	0	0	0	505	409	
5	0	0	0	0	497	404	
6	0	0	0	0	490	409	
7	0	0	0	0	484	409	
8	0	0	0	0	481	410	
9	0	0	0	0	481	414	
10	0	0	0	0	484	409	
11	0	0	0	0	489	409	
12	0	0	0	0	496	409	
13	0	0	0	0	504	403	
14	0	0	0	0	511	409	
15	0	0	0	0	517	409	
0	0	0	0	0	521	409	
1	0	0	0	0	525	413	
2	0	0	0	0	527	409	
3	0	0	0	0	528	408	
4	0	0	0	0	527	408	
5	0	0	0	0	526	403	
6	0	0	0	0	522	408	
7	0	0	0	0	515	408	
8	0	0	0	0	507	408	
9	0	0	0	0	498	412	
10	0	0	0	0	492	408	
11	0	0	0	0	486	408	
12	0	0	0	0	484	407	
13	0	0	0	0	484	402	
14	0	0	0	0	487	408	
15	0	0	0	0	492	408	
0	0	0	0	0	498	408	
1	0	0	0	0	505	413	
2	0	0	0	0	512	408	
3	0	0	0	0	518	407	
4	0	0	0	0	524	408	
5	0	0	0	0	527	402	
6	0	0	0	0	529	408	
7	0	0	0	0	529	407	
8	0	0	0	0	529	408	
9	0	0	0	0	526	413	
10	0	0	0	0	522	408	
11	0	0	0	0	515	408	
12	0	0	0	0	506	408	
13	0	0	0	0	498	403	
14	0	0	0	0	491	408	
15	0	0	0	0	486	408	
0	0	0	0	0	483	408	
1	0	0	0	0	483	413	
2	0	0	0	0	486	408	
3	0	0	0	0	491	408	
4	0	0	0	0	497	407	
5	0	0	0	0	505	403	
6	0	0	0	0	512	408	
7	0	0	0	0	519	408	
8	0	0	0	0	524	408	
9	0	0	0	0	527	414	
10	0	0	0	0	529	408	
11	0	0	0	0	528	409	
12	0	0	0	0	527	408	
13	0	0	0	0	526	404	
14	0	0	0	0	521	409	
15	0	0	0	0	515	409	
0	0	0	0	0	505	409	
1	0	0	0	0	496	414	
2	0	0	0	0	489	409	
3	0	0	0	0	484	409	
4	0	0	0	0	481	409	
5	0	0	0	0	480	404	
6	0	0	0	0	483	410	
7	0	0	0	0	489	410	
8	0	0	0	0	496	411	
9	0	0	0	0	504	415	
10	0	0	0	0	511	410	
11	0	0	0	0	516	409	
12	0	0	0	0	521	409	
13	0	0	0	0	524	404	
14	0	0	0	0	526	410	
15	0	0	0	0	526	410	
0	0	0	0	0	524	410	
1	0	0	0	0	522	415	
2	0	0	0	0	518	410	
3	0	0	0	0	510	411	
4	0	0	0	0	500	410	
5	0	0	0	0	492	405	
6	0	0	0	0	485	411	
7	0	0	0	0	480	410	
8	0	0	0	0	477	411	
9	0	0	0	0	477	415	
10	0	0	0	0	481	411	
11	0	0	0	0	487	410	
12	0	0	0	0	493	410	
13	0	0	0	0	502	405	
14	0	0	0	0	511	411	
15	0	0	0	0	518	411	
0	0	0	0	0	523	411	
1	0	0	0	0	527	415	
2	0	0	0	0	530	410	
3	0	0	0	0	532	411	
4	0	0	0	0	531	410	
5	0	0	0	0	530	405	
6	0	0	0	0	525	410	
7	0	0	0	0	519	409	
8	0	0	0	0	510	410	
9	0	0	0	0	501	414	
10	0	0	0	0	494	410	
11	0	0	0	0	488	410	
12	0	0	0	0	486	410	
13	0	0	0	0	486	405	
14	0	0	0	0	490	410	
15	0	0	0	0	495	410	
0	0	0	0	0	503	410	
1	0	0	0	0	511	415	
2	0	0	0	0	519	411	
3	0	0	0	0	526	411	
4	0	0	0	0	531	410	
5	0	0	0	0	535	405	
6	0	0	0	0	538	410	
7	0	0	0	0	539	410	
8	0	0	0	0	538	409	
9	0	0	0	0	536	415	
10	0	0	0	0	531	410	
11	0	0	0	0	524	410	
12	0	0	0	0	514	410	
13	0	0	0	0	505	404	
14	0	0	0	0	498	411	
15	0	0	0	0	494	410	
0	0	0	0	0	490	411	
1	0	0	0	0	491	415	
2	0	0	0	0	494	410	
3	0	0	0	0	500	412	
4	0	0	0	0	507	410	
5	0	0	0	0	516	406	
6	0	0	0	0	524	411	
7	0	0	0	0	530	411	
8	0	0	0	0	535	412	
9	0	0	0	0	538	416	
10	0	0	0	0	540	412	
11	0	0	0	0	540	412	
12	0	0	0	0	539	411	
13	0	0	0	0	536	406	
14	0	0	0	0	531	412	
15	0	0	0	0	523	412	
0	0	0	0	0	512	412	
1	0	0	0	0	502	417	
2	0	0	0	0	494	412	
3	0	0	0	0	488	411	
4	0	0	0	0	485	412	
5	0	0	0	0	485	407	
6	0	0	0	0	489	412	
7	0	0	0	0	494	412	
8	0	0	0	0	501	412	
9	0	0	0	0	509	416	
10	0	0	0	0	516	412	
11	0	0	0	0	523	410	
12	0	0	0	0	527	410	
13	0	0	0	0	529	405	
14	0	0	0	0	531	410	
15	0	0	0	0	532	410	
0	0	0	0	0	531	410	
1	0	0	0	0	529	415	
2	0	0	0	0	525	409	
3	0	0	0	0	518	409	
4	0	0	0	0	509	409	
5	0	0	0	0	500	404	
6	0	0	0	0	493	410	
7	0	0	0	0	488	409	
8	0	0	0	0	486	410	
9	0	0	0	0	486	414	
10	0	0	0	0	490	408	
11	0	0	0	0	495	409	
12	0	0	0	0	503	408	
13	0	0	0	0	511	403	
14	0	0	0	0	518	409	
15	0	0	0	0	524	409	
0	0	0	0	0	528	409	
1	0	0	0	0	532	414	
2	0	0	0	0	533	409	
3	0	0	0	0	534	409	
4	0	0	0	0	533	408	
5	0	0	0	0	531	403	
6	0	0	0	0	526	409	
7	0	0	0	0	519	409	
8	0	0	0	0	509	409	
9	0	0	0	0	501	415	
10	0	0	0	0	493	410	
11	0	0	0	0	488	410	
12	0	0	0	0	486	409	
13	0	0	0	0	486	404	
14	0	0	0	0	489	409	
15	0	0	0	0	494	409	
0	0	0	0	0	501	410	
1	0	0	0	0	509	414	
2	0	0	0	0	516	410	
3	0	0	0	0	524	411	
4	0	0	0	0	529	410	
5	0	0	0	0	532	405	
6	0	0	0	0	534	410	
7	0	0	0	0	534	410	
8	0	0	0	0	533	411	
9	0	0	0	0	531	415	
10	0	0	0	0	526	410	
11	0	0	0	0	518	411	
12	0	0	0	0	508	411	
13	0	0	0	0	498	406	
14	0	0	0	0	490	411	
15	0	0	0	0	484	410	
0	0	0	0	0	481	412	
1	0	0	0	0	481	416	
2	0	0	0	0	485	411	
3	0	0	0	0	490	412	
4	0	0	0	0	497	411	
5	0	0	0	0	505	406	
6	0	0	0	0	513	412	
7	0	0	0	0	519	411	
8	0	0	0	0	524	412	
9	0	0	0	0	529	416	
10	0	0	0	0	532	411	
11	0	0	0	0	533	410	
12	0	0	0	0	532	410	
13	0	0	0	0	529	406	
14	0	0	0	0	524	410	
15	0	0	0	0	517	409	
0	0	0	0	0	508	410	
1	0	0	0	0	497	415	
2	0	0	0	0	489	409	
3	0	0	0	0	483	410	
4	0	0	0	0	479	409	
5	0	0	0	0	478	404	
6	0	0	0	0	480	409	
7	0	0	0	0	483	408	
8	0	0	0	0	488	409	
9	0	0	0	0	494	414	
10	0	0	0	0	499	408	
11	0	0	0	0	503	408	
12	0	0	0	0	504	409	
13	0	0	0	0	505	403	
14	0	0	0	0	504	409	
15	0	0	0	0	502	409	
0	0	0	0	0	499	408	
1	0	0	0	0	493	414	
2	0	0	0	0	484	408	
3	0	0	0	0	472	409	
4	0	0	0	0	458	408	
5	0	0	0	0	445	403	
6	0	0	0	0	435	408	
7	0	0	0	0	425	408	
8	0	0	0	0	419	409	
9	0	0	0	0	417	414	
10	0	0	0	0	419	408	
11	0	0	0	0	423	409	
12	0	0	0	0	429	409	
13	0	0	0	0	435	403	
14	0	0	0	0	442	408	
15	0	0	0	0	448	409	
0	0	0	0	0	454	409	
1	0	0	0	0	458	413	
2	0	0	0	0	464	409	
3	0	0	0	0	471	409	
4	0	0	0	0	480	408	
5	0	0	0	0	490	403	
6	0	0	0	0	500	408	
7	0	0	0	0	510	409	
8	0	0	0	0	520	409	
9	0	0	0	0	530	414	
10	0	0	0	0	543	409	
11	0	0	0	0	556	409	
12	0	0	0	0	571	409	
13	0	0	0	0	589	405	
14	0	0	0	0	607	410	
15	0	0	0	0	624	410	
0	0	0	0	0	640	410	
1	0	0	0	0	651	415	
2	0	0	0	0	659	410	
3	0	0	0	0	663	409	
4	0	0	0	0	664	410	
5	0	0	0	0	663	405	
6	0	0	0	0	661	411	
7	0	0	0	0	656	411	
8	0	0	0	0	648	411	
9	0	0	0	0	639	415	
10	0	0	0	0	624	411	
11	0	0	0	0	606	412	
12	0	0	0	0	583	410	
13	0	0	0	0	560	407	
14	0	0	0	0	540	411	
15	0	0	0	0	520	411	
0	0	0	0	0	504	412	
1	0	0	0	0	493	416	
2	0	0	0	0	485	411	
3	0	0	0	0	480	411	
4	0	0	0	0	479	410	
5	0	0	0	0	480	405	
6	0	0	0	0	481	411	
7	0	0	0	0	483	409	
8	0	0	0	0	485	411	
9	0	0	0	0	485	415	
10	0	0	0	0	485	410	
11	0	0	0	0	482	410	
12	0	0	0	0	479	409	
13	0	0	0	0	476	404	
14	0	0	0	0	471	409	
15	0	0	0	0	463	410	
0	0	0	0	0	455	410	
1	0	0	0	0	447	414	
2	0	0	0	0	442	409	
3	0	0	0	0	439	408	
4	0	0	0	0	438	408	
5	0	0	0	0	440	403	
6	0	0	0	0	447	408	
7	0	0	0	0	456	409	
8	0	0	0	0	467	408	
9	0	0	0	0	479	413	
10	0	0	0	0	490	408	
11	0	0	0	0	500	409	
12	0	0	0	0	508	408	
13	0	0	0	0	515	403	
14	0	0	0	0	520	409	
15	0	0	0	0	523	409	
0	0	0	0	0	523	409	
1	0	0	0	0	522	414	
2	0	0	0	0	518	409	
3	0	0	0	0	511	409	
4	0	0	0	0	501	408	
5	0	0	0	0	491	403	
6	0	0	0	0	483	409	
7	0	0	0	0	477	409	
8	0	0	0	0	471	409	
9	0	0	0	0	470	414	
10	0	0	0	0	472	408	
11	0	0	0	0	476	408	
12	0	0	0	0	483	409	
13	0	0	0	0	492	404	
14	0	0	0	0	501	409	
15	0	0	0	0	510	409	
0	0	0	0	0	517	409	
1	0	0	0	0	524	414	
2	0	0	0	0	528	409	
3	0	0	0	0	531	410	
4	0	0	0	0	532	410	
5	0	0	0	0	532	404	
6	0	0	0	0	529	410	
7	0	0	0	0	522	411	
8	0	0	0	0	513	411	
9	0	0	0	0	506	415	
10	0	0	0	0	500	410	
11	0	0	0	0	495	411	
12	0	0	0	0	493	411	
13	0	0	0	0	495	405	
14	0	0	0	0	500	411	
15	0	0	0	0	508	411	
0	0	0	0	0	516	411	
1	0	0	0	0	525	415	
2	0	0	0	0	534	411	
3	0	0	0	0	542	410	
4	0	0	0	0	547	411	
5	0	0	0	0	552	406	
6	0	0	0	0	555	411	
7	0	0	0	0	556	411	
8	0	0	0	0	554	411	
9	0	0	0	0	552	416	
10	0	0	0	0	547	411	
11	0	0	0	0	539	411	
12	0	0	0	0	528	410	
13	0	0	0	0	519	406	
14	0	0	0	0	511	412	
15	0	0	0	0	505	412	
0	0	0	0	0	503	412	
1	0	0	0	0	504	416	
2	0	0	0	0	508	411	
3	0	0	0	0	513	411	
4	0	0	0	0	521	410	
5	0	0	0	0	530	405	
6	0	0	0	0	537	410	
7	0	0	0	0	543	410	
8	0	0	0	0	549	410	
9	0	0	0	0	551	415	
10	0	0	0	0	553	410	
11	0	0	0	0	553	409	
12	0	0	0	0	551	409	
13	0	0	0	0	548	403	
14	0	0	0	0	544	409	
15	0	0	0	0	536	409	
0	0	0	0	0	527	409	
1	0	0	0	0	518	414	
2	0	0	0	0	510	408	
3	0	0	0	0	505	408	
4	0	0	0	0	504	408	
5	0	0	0	0	505	403	
6	0	0	0	0	510	408	
7	0	0	0	0	516	408	
8	0	0	0	0	524	408	
9	0	0	0	0	532	413	
10	0	0	0	0	540	408	
11	0	0	0	0	547	408	
12	0	0	0	0	551	408	
13	0	0	0	0	554	403	
14	0	0	0	0	555	409	
15	0	0	0	0	554	408	
0	0	0	0	0	552	408	
1	0	0	0	0	550	413	
2	0	0	0	0	545	408	
3	0	0	0	0	536	409	
4	0	0	0	0	525	408	
5	0	0	0	0	516	403	
6	0	0	0	0	508	409	
7	0	0	0	0	502	409	
8	0	0	0	0	499	409	
9	0	0	0	0	499	415	
10	0	0	0	0	504	410	
11	0	0	0	0	511	409	
12	0	0	0	0	519	409	
13	0	0	0	0	528	404	
14	0	0	0	0	536	410	
15	0	0	0	0	543	410	
0	0	0	0	0	548	410	
1	0	0	0	0	552	415	
2	0	0	0	0	555	410	
3	0	0	0	0	555	410	
4	0	0	0	0	554	410	
5	0	0	0	0	552	406	
6	0	0	0	0	547	410	
7	0	0	0	0	539	411	
8	0	0	0	0	530	410	
9	0	0	0	0	521	415	
10	0	0	0	0	514	410	
11	0	0	0	0	508	409	
12	0	0	0	0	505	410	
13	0	0	0	0	504	405	
14	0	0	0	0	506	410	
15	0	0	0	0	511	410	
0	0	0	0	0	517	410	
1	0	0	0	0	524	414	
2	0	0	0	0	531	409	
3	0	0	0	0	536	409	
4	0	0	0	0	541	409	
5	0	0	0	0	544	404	
6	0	0	0	0	546	410	
7	0	0	0	0	546	409	
8	0	0	0	0	545	409	
9	0	0	0	0	543	414	
10	0	0	0	0	539	408	
11	0	0	0	0	532	408	
12	0	0	0	0	524	407	
13	0	0	0	0	515	402	
14	0	0	0	0	508	408	
15	0	0	0	0	504	408	
0	0	0	0	0	502	408	
1	0	0	0	0	502	412	
2	0	0	0	0	506	408	
3	0	0	0	0	511	408	
4	0	0	0	0	519	408	
5	0	0	0	0	527	402	
6	0	0	0	0	535	407	
7	0	0	0	0	541	407	
8	0	0	0	0	546	407	
9	0	0	0	0	549	412	
10	0	0	0	0	551	408	
11	0	0	0	0	551	407	
12	0	0	0	0	551	408	
13	0	0	0	0	548	402	
14	0	0	0	0	543	408	
15	0	0	0	0	535	407	
0	0	0	0	0	526	408	
1	0	0	0	0	517	412	
2	0	0	0	0	511	408	
3	0	0	0	0	505	408	
4	0	0	0	0	503	407	
5	0	0	0	0	504	402	
6	0	0	0	0	507	408	
7	0	0	0	0	512	408	
8	0	0	0	0	519	408	
9	0	0	0	0	528	413	
10	0	0	0	0	535	408	
11	0	0	0	0	542	408	
12	0	0	0	0	547	408	
13	0	0	0	0	550	403	
14	0	0	0	0	552	409	
15	0	0	0	0	553	409	
0	0	0	0	0	552	409	
1	0	0	0	0	551	414	
2	0	0	0	0	546	408	
3	0	0	0	0	540	409	
4	0	0	0	0	531	409	
5	0	0	0	0	523	404	
6	0	0	0	0	516	409	
7	0	0	0	0	511	409	
8	0	0	0	0	509	409	
9	0	0	0	0	509	414	
10	0	0	0	0	512	409	
11	0	0	0	0	518	409	
12	0	0	0	0	526	410	
13	0	0	0	0	534	405	
14	0	0	0	0	541	410	
15	0	0	0	0	548	410	
0	0	0	0	0	553	410	
1	0	0	0	0	558	415	
2	0	0	0	0	561	409	
3	0	0	0	0	562	409	
4	0	0	0	0	561	410	
5	0	0	0	0	560	405	
6	0	0	0	0	555	409	
7	0	0	0	0	548	410	
8	0	0	0	0	540	410	
9	0	0	0	0	532	415	
10	0	0	0	0	525	410	
11	0	0	0	0	520	411	
12	0	0	0	0	517	411	
13	0	0	0	0	516	405	
14	0	0	0	0	519	410	
15	0	0	0	0	522	410	
0	0	0	0	0	527	410	
1	0	0	0	0	534	415	
2	0	0	0	0	540	411	
3	0	0	0	0	545	411	
4	0	0	0	0	550	410	
5	0	0	0	0	553	405	
6	0	0	0	0	555	411	
7	0	0	0	0	557	410	
8	0	0	0	0	555	411	
9	0	0	0	0	553	415	
10	0	0	0	0	548	411	
11	0	0	0	0	539	410	
12	0	0	0	0	528	410	
13	0	0	0	0	518	404	
14	0	0	0	0	510	410	
15	0	0	0	0	503	410	
0	0	0	0	0	498	410	
1	0	0	0	0	496	415	
2	0	0	0	0	498	410	
3	0	0	0	0	502	410	
4	0	0	0	0	506	409	
5	0	0	0	0	512	404	
6	0	0	0	0	517	409	
7	0	0	0	0	521	409	
8	0	0	0	0	524	409	
9	0	0	0	0	526	414	
10	0	0	0	0	526	409	
11	0	0	0	0	525	409	
12	0	0	0	0	524	409	
13	0	0	0	0	520	404	
14	0	0	0	0	515	409	
15	0	0	0	0	507	410	
0	0	0	0	0	497	410	
1	0	0	0	0	488	414	
2	0	0	0	0	480	409	
3	0	0	0	0	474	409	
4	0	0	0	0	471	409	
5	0	0	0	0	470	404	
6	0	0	0	0	472	410	
7	0	0	0	0	475	410	
8	0	0	0	0	481	410	
9	0	0	0	0	487	415	
10	0	0	0	0	493	411	
11	0	0	0	0	499	411	
12	0	0	0	0	504	410	
13	0	0	0	0	506	405	
14	0	0	0	0	507	410	
15	0	0	0	0	507	411	
0	0	0	0	0	506	411	
1	0	0	0	0	505	415	
2	0	0	0	0	502	411	
3	0	0	0	0	495	411	
4	0	0	0	0	487	411	
5	0	0	0	0	479	405	
6	0	0	0	0	472	411	
7	0	0	0	0	467	411	
8	0	0	0	0	464	412	
9	0	0	0	0	463	415	
10	0	0	0	0	467	412	
11	0	0	0	0	472	412	
12	0	0	0	0	479	411	
13	0	0	0	0	487	406	
14	0	0	0	0	494	411	
15	0	0	0	0	501	412	
0	0	0	0	0	507	412	
1	0	0	0	0	511	416	
2	0	0	0	0	513	412	
3	0	0	0	0	514	411	
4	0	0	0	0	513	412	
5	0	0	0	0	512	406	
6	0	0	0	0	507	411	
7	0	0	0	0	499	411	
8	0	0	0	0	491	411	
9	0	0	0	0	482	415	
10	0	0	0	0	476	411	
11	0	0	0	0	471	412	
12	0	0	0	0	468	412	
13	0	0	0	0	468	407	
14	0	0	0	0	472	412	
15	0	0	0	0	477	411	
0	0	0	0	0	483	412	
1	0	0	0	0	491	416	
2	0	0	0	0	498	411	
3	0	0	0	0	503	411	
4	0	0	0	0	508	411	
5	0	0	0	0	510	406	
6	0	0	0	0	512	411	
7	0	0	0	0	514	411	
8	0	0	0	0	514	411	
9	0	0	0	0	513	415	
10	0	0	0	0	509	411	
11	0	0	0	0	503	410	
12	0	0	0	0	494	410	
13	0	0	0	0	487	404	
14	0	0	0	0	481	410	
15	0	0	0	0	477	410	
0	0	0	0	0	475	410	
1	0	0	0	0	476	414	
2	0	0	0	0	478	409	
3	0	0	0	0	482	409	
4	0	0	0	0	488	408	
5	0	0	0	0	495	404	
6	0	0	0	0	500	410	
7	0	0	0	0	505	409	
8	0	0	0	0	510	409	
9	0	0	0	0	512	414	
10	0	0	0	0	515	409	
11	0	0	0	0	517	408	
12	0	0	0	0	518	409	
13	0	0	0	0	517	403	
14	0	0	0	0	513	408	
15	0	0	0	0	507	409	
0	0	0	0	0	499	408	
1	0	0	0	0	491	414	
2	0	0	0	0	484	408	
3	0	0	0	0	480	408	
4	0	0	0	0	477	408	
5	0	0	0	0	478	403	
6	0	0	0	0	481	409	
7	0	0	0	0	487	408	
8	0	0	0	0	494	409	
9	0	0	0	0	502	414	
10	0	0	0	0	508	409	
11	0	0	0	0	514	409	
12	0	0	0	0	519	409	
13	0	0	0	0	523	404	
14	0	0	0	0	525	409	
15	0	0	0	0	524	410	
0	0	0	0	0	523	410	
1	0	0	0	0	519	415	
2	0	0	0	0	513	410	
3	0	0	0	0	504	410	
4	0	0	0	0	494	410	
5	0	0	0	0	485	405	
6	0	0	0	0	479	410	
7	0	0	0	0	474	411	
8	0	0	0	0	471	411	
9	0	0	0	0	472	415	
10	0	0	0	0	477	412	
11	0	0	0	0	483	411	
12	0	0	0	0	491	411	
13	0	0	0	0	500	406	
14	0	0	0	0	508	412	
15	0	0	0	0	514	412	
0	0	0	0	0	519	412	
1	0	0	0	0	523	416	
2	0	0	0	0	526	412	
3	0	0	0	0	526	412	
4	0	0	0	0	525	412	
5	0	0	0	0	524	406	
6	0	0	0	0	519	411	
7	0	0	0	0	512	412	
8	0	0	0	0	502	412	
9	0	0	0	0	492	417	
10	0	0	0	0	484	412	
11	0	0	0	0	477	412	
12	0	0	0	0	473	412	
13	0	0	0	0	473	406	
14	0	0	0	0	476	411	
15	0	0	0	0	482	411	
0	0	0	0	0	489	411	
1	0	0	0	0	496	416	
2	0	0	0	0	505	411	
3	0	0	0	0	512	411	
4	0	0	0	0	518	410	
5	0	0	0	0	523	405	
6	0	0	0	0	526	411	
7	0	0	0	0	528	411	
8	0	0	0	0	528	411	
9	0	0	0	0	527	416	
10	0	0	0	0	522	410	
11	0	0	0	0	514	411	
12	0	0	0	0	505	410	
13	0	0	0	0	496	405	
14	0	0	0	0	489	410	
15	0	0	0	0	484	410	
0	0	0	0	0	481	409	
1	0	0	0	0	483	415	
2	0	0	0	0	486	410	
3	0	0	0	0	491	410	
4	0	0	0	0	498	409	
5	0	0	0	0	505	404	
6	0	0	0	0	512	409	
7	0	0	0	0	518	409	
8	0	0	0	0	523	410	
9	0	0	0	0	527	414	
10	0	0	0	0	528	409	
11	0	0	0	0	527	408	
12	0	0	0	0	526	408	
13	0	0	0	0	524	403	
14	0	0	0	0	518	408	
15	0	0	0	0	511	408	
0	0	0	0	0	502	408	
1	0	0	0	0	494	413	
2	0	0	0	0	487	408	
3	0	0	0	0	482	408	
4	0	0	0	0	480	408	
5	0	0	0	0	481	403	
6	0	0	0	0	485	408	
7	0	0	0	0	491	408	
8	0	0	0	0	498	408	
9	0	0	0	0	506	414	
10	0	0	0	0	513	408	
11	0	0	0	0	518	408	
12	0	0	0	0	522	408	
13	0	0	0	0	525	403	
14	0	0	0	0	527	408	
15	0	0	0	0	529	408	
0	0	0	0	0	528	408	
1	0	0	0	0	527	414	
2	0	0	0	0	523	408	
3	0	0	0	0	515	408	
4	0	0	0	0	506	408	
5	0	0	0	0	498	403	
6	0	0	0	0	491	408	
7	0	0	0	0	487	409	
8	0	0	0	0	484	408	
9	0	0	0	0	486	413	
10	0	0	0	0	489	408	
11	0	0	0	0	494	408	
12	0	0	0	0	502	408	
13	0	0	0	0	510	403	
14	0	0	0	0	517	409	
15	0	0	0	0	523	408	
0	0	0	0	0	527	409	
1	0	0	0	0	531	413	
2	0	0	0	0	532	408	
3	0	0	0	0	532	408	
4	0	0	0	0	531	408	
5	0	0	0	0	528	403	
6	0	0	0	0	523	409	
7	0	0	0	0	516	409	
8	0	0	0	0	508	409	
9	0	0	0	0	499	414	
10	0	0	0	0	492	409	
11	0	0	0	0	487	409	
12	0	0	0	0	483	409	
13	0	0	0	0	483	404	
14	0	0	0	0	486	409	
15	0	0	0	0	490	409	
0	0	0	0	0	496	409	
1	0	0	0	0	503	414	
2	0	0	0	0	510	409	
3	0	0	0	0	515	409	
4	0	0	0	0	519	409	
5	0	0	0	0	522	404	
6	0	0	0	0	523	409	
7	0	0	0	0	524	409	
8	0	0	0	0	523	410	
9	0	0	0	0	521	415	
10	0	0	0	0	518	410	
11	0	0	0	0	511	411	
12	0	0	0	0	503	410	
13	0	0	0	0	494	405	
14	0	0	0	0	487	410	
15	0	0	0	0	482	410	
0	0	0	0	0	480	411	
1	0	0	0	0	480	415	
2	0	0	0	0	483	410	
3	0	0	0	0	488	410	
4	0	0	0	0	495	410	
5	0	0	0	0	504	405	
6	0	0	0	0	511	410	
7	0	0	0	0	517	411	
8	0	0	0	0	523	411	
9	0	0	0	0	526	416	
10	0	0	0	0	528	411	
11	0	0	0	0	529	410	
12	0	0	0	0	528	411	
13	0	0	0	0	528	406	
14	0	0	0	0	523	410	
15	0	0	0	0	516	411	
0	0	0	0	0	507	410	
1	0	0	0	0	497	415	
2	0	0	0	0	490	410	
3	0	0	0	0	484	410	
4	0	0	0	0	481	411	
5	0	0	0	0	480	405	
6	0	0	0	0	482	411	
7	0	0	0	0	487	410	
8	0	0	0	0	495	411	
9	0	0	0	0	504	416	
10	0	0	0	0	513	411	
11	0	0	0	0	521	410	
12	0	0	0	0	528	411	
13	0	0	0	0	533	405	
14	0	0	0	0	536	411	
15	0	0	0	0	538	412	
0	0	0	0	0	539	412	
1	0	0	0	0	539	416	
2	0	0	0	0	535	411	
3	0	0	0	0	528	412	
4	0	0	0	0	519	412	
5	0	0	0	0	511	406	
6	0	0	0	0	503	411	
7	0	0	0	0	497	412	
8	0	0	0	0	493	411	
9	0	0	0	0	493	415	
10	0	0	0	0	497	411	
11	0	0	0	0	502	411	
12	0	0	0	0	509	410	
13	0	0	0	0	516	406	
14	0	0	0	0	523	411	
15	0	0	0	0	528	411	
0	0	0	0	0	533	411	
1	0	0	0	0	536	416	
2	0	0	0	0	537	411	
3	0	0	0	0	537	411	
4	0	0	0	0	536	410	
5	0	0	0	0	534	406	
6	0	0	0	0	529	410	
7	0	0	0	0	521	411	
8	0	0	0	0	511	410	
9	0	0	0	0	503	415	
10	0	0	0	0	496	411	
11	0	0	0	0	490	410	
12	0	0	0	0	487	410	
13	0	0	0	0	487	405	
14	0	0	0	0	490	410	
15	0	0	0	0	495	410	
0	0	0	0	0	501	410	
1	0	0	0	0	509	414	
2	0	0	0	0	516	410	
3	0	0	0	0	521	410	
4	0	0	0	0	526	409	
5	0	0	0	0	530	404	
6	0	0	0	0	532	409	
7	0	0	0	0	532	409	
8	0	0	0	0	532	410	
9	0	0	0	0	530	415	
10	0	0	0	0	526	410	
11	0	0	0	0	516	409	
12	0	0	0	0	506	409	
13	0	0	0	0	496	404	
14	0	0	0	0	488	409	
15	0	0	0	0	482	409	
0	0	0	0	0	478	409	
1	0	0	0	0	479	415	
2	0	0	0	0	482	410	
3	0	0	0	0	487	409	
4	0	0	0	0	495	409	
5	0	0	0	0	504	404	
6	0	0	0	0	511	409	
7	0	0	0	0	517	409	
8	0	0	0	0	522	410	
9	0	0	0	0	526	415	
10	0	0	0	0	529	410	
11	0	0	0	0	530	410	
12	0	0	0	0	530	410	
13	0	0	0	0	528	405	
14	0	0	0	0	523	410	
15	0	0	0	0	516	410	
0	0	0	0	0	507	411	
1	0	0	0	0	498	415	
2	0	0	0	0	490	411	
3	0	0	0	0	484	410	
4	0	0	0	0	481	410	
5	0	0	0	0	481	405	
6	0	0	0	0	484	411	
7	0	0	0	0	490	411	
8	0	0	0	0	498	410	
9	0	0	0	0	506	415	
10	0	0	0	0	514	411	
11	0	0	0	0	520	411	
12	0	0	0	0	525	411	
13	0	0	0	0	530	405	
14	0	0	0	0	533	411	
15	0	0	0	0	534	411	
0	0	0	0	0	534	411	
1	0	0	0	0	532	415	
2	0	0	0	0	527	411	
3	0	0	0	0	519	411	
4	0	0	0	0	510	410	
5	0	0	0	0	500	404	
6	0	0	0	0	493	410	
7	0	0	0	0	487	410	
8	0	0	0	0	483	411	
9	0	0	0	0	483	415	
10	0	0	0	0	485	410	
11	0	0	0	0	489	410	
12	0	0	0	0	495	409	
13	0	0	0	0	501	404	
14	0	0	0	0	508	410	
15	0	0	0	0	513	410	
0	0	0	0	0	518	410	
1	0	0	0	0	520	414	
2	0	0	0	0	523	409	
3	0	0	0	0	524	409	
4	0	0	0	0	524	408	
5	0	0	0	0	523	404	
6	0	0	0	0	519	409	
7	0	0	0	0	514	409	
8	0	0	0	0	506	409	
9	0	0	0	0	498	414	
10	0	0	0	0	492	408	
11	0	0	0	0	487	408	
12	0	0	0	0	484	408	
13	0	0	0	0	485	403	
14	0	0	0	0	489	408	
15	0	0	0	0	494	409	
0	0	0	0	0	501	408	
1	0	0	0	0	508	414	
2	0	0	0	0	514	408	
3	0	0	0	0	517	408	
4	0	0	0	0	519	409	
5	0	0	0	0	520	403	
6	0	0	0	0	519	409	
7	0	0	0	0	516	409	
8	0	0	0	0	511	409	
9	0	0	0	0	504	413	
10	0	0	0	0	496	408	
11	0	0	0	0	483	409	
12	0	0	0	0	470	409	
13	0	0	0	0	457	403	
14	0	0	0	0	446	409	
15	0	0	0	0	437	408	
0	0	0	0	0	432	409	
1	0	0	0	0	431	414	
2	0	0	0	0	433	409	
3	0	0	0	0	436	408	
4	0	0	0	0	441	409	
5	0	0	0	0	451	404	
6	0	0	0	0	460	409	
7	0	0	0	0	467	409	
8	0	0	0	0	474	410	
9	0	0	0	0	478	414	
10	0	0	0	0	481	409	
11	0	0	0	0	484	409	
12	0	0	0	0	487	410	
13	0	0	0	0	489	404	
14	0	0	0	0	489	410	
15	0	0	0	0	489	410	
0	0	0	0	0	489	410	
1	0	0	0	0	491	415	
2	0	0	0	0	497	410	
3	0	0	0	0	504	410	
4	0	0	0	0	515	410	
5	0	0	0	0	531	405	
6	0	0	0	0	547	410	
7	0	0	0	0	564	410	
8	0	0	0	0	582	410	
9	0	0	0	0	599	415	
10	0	0	0	0	614	409	
11	0	0	0	0	625	409	
12	0	0	0	0	631	410	
13	0	0	0	0	632	404	
14	0	0	0	0	631	410	
15	0	0	0	0	626	410	
0	0	0	0	0	620	410	
1	0	0	0	0	611	415	
2	0	0	0	0	602	411	
3	0	0	0	0	589	411	
4	0	0	0	0	574	410	
5	0	0	0	0	559	405	
6	0	0	0	0	543	410	
7	0	0	0	0	528	410	
8	0	0	0	0	514	411	
9	0	0	0	0	504	415	
10	0	0	0	0	497	410	
11	0	0	0	0	493	411	
12	0	0	0	0	491	410	
13	0	0	0	0	490	406	
14	0	0	0	0	488	411	
15	0	0	0	0	486	411	
0	0	0	0	0	482	411	
1	0	0	0	0	479	415	
2	0	0	0	0	474	411	
3	0	0	0	0	468	410	
4	0	0	0	0	460	410	
5	0	0	0	0	453	406	
6	0	0	0	0	446	409	
7	0	0	0	0	437	410	
8	0	0	0	0	428	410	
9	0	0	0	0	418	415	
10	0	0	0	0	412	410	
11	0	0	0	0	408	410	
12	0	0	0	0	408	410	
13	0	0	0	0	412	404	
14	0	0	0	0	420	410	
15	0	0	0	0	429	410	
0	0	0	0	0	439	409	
1	0	0	0	0	449	415	
2	0	0	0	0	459	409	
3	0	0	0	0	468	409	
4	0	0	0	0	476	409	
5	0	0	0	0	483	403	
6	0	0	0	0	489	410	
7	0	0	0	0	495	410	
8	0	0	0	0	497	409	
9	0	0	0	0	498	415	
10	0	0	0	0	497	409	
11	0	0	0	0	491	410	
12	0	0	0	0	483	409	
13	0	0	0	0	474	404	
14	0	0	0	0	467	409	
15	0	0	0	0	462	410	
0	0	0	0	0	460	411	
1	0	0	0	0	462	415	
2	0	0	0	0	467	410	
3	0	0	0	0	475	410	
4	0	0	0	0	484	410	
5	0	0	0	0	495	405	
6	0	0	0	0	504	411	
7	0	0	0	0	512	410	
8	0	0	0	0	518	411	
9	0	0	0	0	523	415	
10	0	0	0	0	526	410	
11	0	0	0	0	527	410	
12	0	0	0	0	528	410	
13	0	0	0	0	527	404	
14	0	0	0	0	525	410	
15	0	0	0	0	519	411	
0	0	0	0	0	512	410	
1	0	0	0	0	505	415	
2	0	0	0	0	499	410	
3	0	0	0	0	495	410	
4	0	0	0	0	493	409	
5	0	0	0	0	494	405	
6	0	0	0	0	497	410	
7	0	0	0	0	503	410	
8	0	0	0	0	511	409	
9	0	0	0	0	519	414	
10	0	0	0	0	527	409	
11	0	0	0	0	534	409	
12	0	0	0	0	539	409	
13	0	0	0	0	541	403	
14	0	0	0	0	543	409	
15	0	0	0	0	543	410	
0	0	0	0	0	542	409	
1	0	0	0	0	540	415	
2	0	0	0	0	536	410	
3	0	0	0	0	528	411	
4	0	0	0	0	519	410	
5	0	0	0	0	511	405	
6	0	0	0	0	504	411	
7	0	0	0	0	500	411	
8	0	0	0	0	499	411	
9	0	0	0	0	500	416	
10	0	0	0	0	505	411	
11	0	0	0	0	511	411	
12	0	0	0	0	518	411	
13	0	0	0	0	525	406	
14	0	0	0	0	532	411	
15	0	0	0	0	539	411	
0	0	0	0	0	545	411	
1	0	0	0	0	548	416	
2	0	0	0	0	550	411	
3	0	0	0	0	550	411	
4	0	0	0	0	548	411	
5	0	0	0	0	545	406	
6	0	0	0	0	539	412	
7	0	0	0	0	531	411	
8	0	0	0	0	522	412	
9	0	0	0	0	512	416	
10	0	0	0	0	505	411	
11	0	0	0	0	499	411	
12	0	0	0	0	497	411	
13	0	0	0	0	498	405	
14	0	0	0	0	502	411	
15	0	0	0	0	508	410	
0	0	0	0	0	515	411	
1	0	0	0	0	524	415	
2	0	0	0	0	531	410	
3	0	0	0	0	538	410	
4	0	0	0	0	543	410	
5	0	0	0	0	547	405	
6	0	0	0	0	548	410	
7	0	0	0	0	547	410	
8	0	0	0	0	545	409	
9	0	0	0	0	543	414	
10	0	0	0	0	538	410	
11	0	0	0	0	530	409	
12	0	0	0	0	521	410	
13	0	0	0	0	513	405	
14	0	0	0	0	508	410	
15	0	0	0	0	504	409	
0	0	0	0	0	503	409	
1	0	0	0	0	505	415	
2	0	0	0	0	509	410	
3	0	0	0	0	514	410	
4	0	0	0	0	520	409	
5	0	0	0	0	529	404	
6	0	0	0	0	536	410	
7	0	0	0	0	540	410	
8	0	0	0	0	544	409	
9	0	0	0	0	546	415	
10	0	0	0	0	547	410	
11	0	0	0	0	546	409	
12	0	0	0	0	544	410	
13	0	0	0	0	542	405	
14	0	0	0	0	537	410	
15	0	0	0	0	528	410	
0	0	0	0	0	519	411	
1	0	0	0	0	511	415	
2	0	0	0	0	504	411	
3	0	0	0	0	500	410	
4	0	0	0	0	499	410	
5	0	0	0	0	500	404	
6	0	0	0	0	504	410	
7	0	0	0	0	509	411	
8	0	0	0	0	516	411	
9	0	0	0	0	524	415	
10	0	0	0	0	531	410	
11	0	0	0	0	537	410	
12	0	0	0	0	542	410	
13	0	0	0	0	546	405	
14	0	0	0	0	547	410	
15	0	0	0	0	548	410	
0	0	0	0	0	547	411	
1	0	0	0	0	546	415	
2	0	0	0	0	541	410	
3	0	0	0	0	533	411	
4	0	0	0	0	524	411	
5	0	0	0	0	515	405	
6	0	0	0	0	507	411	
7	0	0	0	0	502	410	
8	0	0	0	0	498	411	
9	0	0	0	0	498	415	
10	0	0	0	0	501	410	
11	0	0	0	0	505	411	
12	0	0	0	0	512	410	
13	0	0	0	0	520	405	
14	0	0	0	0	528	410	
15	0	0	0	0	534	411	
0	0	0	0	0	539	411	
1	0	0	0	0	543	415	
2	0	0	0	0	544	411	
3	0	0	0	0	545	410	
4	0	0	0	0	545	410	
5	0	0	0	0	543	405	
6	0	0	0	0	539	410	
7	0	0	0	0	531	411	
8	0	0	0	0	521	412	
9	0	0	0	0	512	416	
10	0	0	0	0	505	410	
11	0	0	0	0	499	411	
12	0	0	0	0	496	410	
13	0	0	0	0	497	406	
14	0	0	0	0	502	410	
15	0	0	0	0	509	410	
0	0	0	0	0	518	411	
1	0	0	0	0	526	416	
2	0	0	0	0	535	411	
3	0	0	0	0	542	411	
4	0	0	0	0	547	411	
5	0	0	0	0	551	406	
6	0	0	0	0	553	411	
7	0	0	0	0	555	411	
8	0	0	0	0	554	411	
9	0	0	0	0	551	415	
10	0	0	0	0	547	410	
11	0	0	0	0	540	411	
12	0	0	0	0	530	411	
13	0	0	0	0	522	405	
14	0	0	0	0	515	411	
15	0	0	0	0	509	411	
0	0	0	0	0	506	412	
1	0	0	0	0	506	415	
2	0	0	0	0	510	411	
3	0	0	0	0	516	411	
4	0	0	0	0	524	411	
5	0	0	0	0	533	406	
6	0	0	0	0	540	411	
7	0	0	0	0	547	411	
8	0	0	0	0	552	411	
9	0	0	0	0	557	415	
10	0	0	0	0	559	412	
11	0	0	0	0	560	411	
12	0	0	0	0	560	411	
13	0	0	0	0	558	406	
14	0	0	0	0	553	412	
15	0	0	0	0	545	411	
0	0	0	0	0	534	412	
1	0	0	0	0	524	416	
2	0	0	0	0	517	412	
3	0	0	0	0	511	411	
4	0	0	0	0	509	411	
5	0	0	0	0	509	406	
6	0	0	0	0	512	412	
7	0	0	0	0	518	412	
8	0	0	0	0	527	412	
9	0	0	0	0	535	417	
10	0	0	0	0	543	412	
11	0	0	0	0	550	412	
12	0	0	0	0	555	412	
13	0	0	0	0	559	407	
14	0	0	0	0	560	412	
15	0	0	0	0	560	412	
0	0	0	0	0	559	412	
1	0	0	0	0	556	416	
2	0	0	0	0	550	412	
3	0	0	0	0	542	412	
4	0	0	0	0	530	412	
5	0	0	0	0	519	407	
6	0	0	0	0	511	412	
7	0	0	0	0	504	412	
8	0	0	0	0	500	411	
9	0	0	0	0	499	416	
10	0	0	0	0	500	411	
11	0	0	0	0	504	411	
12	0	0	0	0	509	412	
13	0	0	0	0	515	407	
14	0	0	0	0	521	412	
15	0	0	0	0	525	412	
0	0	0	0	0	528	412	
1	0	0	0	0	529	416	
2	0	0	0	0	530	412	
3	0	0	0	0	527	412	
4	0	0	0	0	524	412	
5	0	0	0	0	519	407	
6	0	0	0	0	512	412	
7	0	0	0	0	503	412	
8	0	0	0	0	492	413	
9	0	0	0	0	482	417	
10	0	0	0	0	473	411	
11	0	0	0	0	467	412	
12	0	0	0	0	464	411	
13	0	0	0	0	464	407	
14	0	0	0	0	466	411	
15	0	0	0	0	471	411	
0	0	0	0	0	478	411	
1	0	0	0	0	485	415	
2	0	0	0	0	492	411	
3	0	0	0	0	498	410	
4	0	0	0	0	502	411	
5	0	0	0	0	505	405	
6	0	0	0	0	506	411	
7	0	0	0	0	505	411	
8	0	0	0	0	503	411	
9	0	0	0	0	500	415	
10	0	0	0	0	495	409	
11	0	0	0	0	486	409	
12	0	0	0	0	476	409	
13	0	0	0	0	467	404	
14	0	0	0	0	460	410	
15	0	0	0	0	454	410	
0	0	0	0	0	451	410	
1	0	0	0	0	452	415	
2	0	0	0	0	457	411	
3	0	0	0	0	462	410	
4	0	0	0	0	470	410	
5	0	0	0	0	479	405	
6	0	0	0	0	487	410	
7	0	0	0	0	493	411	
8	0	0	0	0	498	411	
9	0	0	0	0	502	415	
10	0	0	0	0	504	411	
11	0	0	0	0	503	411	
12	0	0	0	0	502	411	
13	0	0	0	0	499	406	
14	0	0	0	0	495	411	
15	0	0	0	0	487	411	
0	0	0	0	0	477	411	
1	0	0	0	0	468	416	
2	0	0	0	0	461	411	
3	0	0	0	0	455	411	
4	0	0	0	0	452	411	
5	0	0	0	0	453	406	
6	0	0	0	0	457	411	
7	0	0	0	0	463	411	
8	0	0	0	0	471	411	
9	0	0	0	0	480	416	
10	0	0	0	0	487	411	
11	0	0	0	0	493	411	
12	0	0	0	0	497	411	
13	0	0	0	0	501	406	
14	0	0	0	0	503	411	
15	0	0	0	0	504	411	
0	0	0	0	0	503	412	
1	0	0	0	0	501	417	
2	0	0	0	0	497	412	
3	0	0	0	0	490	412	
4	0	0	0	0	482	412	
5	0	0	0	0	474	407	
6	0	0	0	0	468	412	
7	0	0	0	0	463	412	
8	0	0	0	0	461	412	
9	0	0	0	0	462	417	
10	0	0	0	0	466	412	
11	0	0	0	0	473	412	
12	0	0	0	0	480	411	
13	0	0	0	0	488	407	
14	0	0	0	0	496	411	
15	0	0	0	0	502	411	
0	0	0	0	0	506	412	
1	0	0	0	0	509	416	
2	0	0	0	0	511	411	
3	0	0	0	0	511	411	
4	0	0	0	0	511	411	
5	0	0	0	0	508	405	
6	0	0	0	0	502	410	
7	0	0	0	0	494	410	
8	0	0	0	0	484	410	
9	0	0	0	0	475	415	
10	0	0	0	0	468	410	
11	0	0	0	0	461	411	
12	0	0	0	0	458	410	
13	0	0	0	0	459	405	
14	0	0	0	0	462	410	
15	0	0	0	0	468	411	
0	0	0	0	0	476	410	
1	0	0	0	0	485	415	
2	0	0	0	0	493	410	
3	0	0	0	0	499	410	
4	0	0	0	0	504	410	
5	0	0	0	0	508	404	
6	0	0	0	0	511	410	
7	0	0	0	0	511	409	
8	0	0	0	0	511	410	
9	0	0	0	0	508	414	
10	0	0	0	0	504	409	
11	0	0	0	0	496	409	
12	0	0	0	0	486	409	
13	0	0	0	0	478	403	
14	0	0	0	0	471	409	
15	0	0	0	0	465	409	
0	0	0	0	0	462	409	
1	0	0	0	0	463	414	
2	0	0	0	0	467	409	
3	0	0	0	0	473	409	
4	0	0	0	0	481	409	
5	0	0	0	0	489	404	
6	0	0	0	0	497	408	
7	0	0	0	0	504	409	
8	0	0	0	0	508	409	
9	0	0	0	0	511	414	
10	0	0	0	0	514	409	
11	0	0	0	0	514	409	
12	0	0	0	0	513	409	
13	0	0	0	0	511	404	
14	0	0	0	0	506	409	
15	0	0	0	0	498	409	
0	0	0	0	0	488	409	
1	0	0	0	0	479	415	
2	0	0	0	0	472	409	
3	0	0	0	0	466	409	
4	0	0	0	0	464	409	
5	0	0	0	0	464	404	
6	0	0	0	0	468	409	
7	0	0	0	0	475	410	
8	0	0	0	0	483	410	
9	0	0	0	0	492	415	
10	0	0	0	0	500	410	
11	0	0	0	0	507	410	
12	0	0	0	0	512	409	
13	0	0	0	0	515	404	
14	0	0	0	0	518	410	
15	0	0	0	0	518	409	
0	0	0	0	0	517	409	
1	0	0	0	0	515	414	
2	0	0	0	0	511	409	
3	0	0	0	0	502	410	
4	0	0	0	0	493	409	
5	0	0	0	0	484	405	
6	0	0	0	0	476	409	
7	0	0	0	0	471	409	
8	0	0	0	0	468	409	
9	0	0	0	0	469	414	
10	0	0	0	0	472	409	
11	0	0	0	0	479	409	
12	0	0	0	0	487	409	
13	0	0	0	0	496	404	
14	0	0	0	0	504	409	
15	0	0	0	0	511	409	
0	0	0	0	0	517	409	
1	0	0	0	0	521	414	
2	0	0	0	0	523	408	
3	0	0	0	0	523	409	
4	0	0	0	0	522	409	
5	0	0	0	0	520	403	
6	0	0	0	0	514	408	
7	0	0	0	0	507	409	
8	0	0	0	0	496	409	
9	0	0	0	0	487	414	
10	0	0	0	0	480	408	
11	0	0	0	0	473	409	
12	0	0	0	0	470	408	
13	0	0	0	0	471	403	
14	0	0	0	0	474	408	
15	0	0	0	0	480	408	
0	0	0	0	0	487	408	
1	0	0	0	0	496	412	
2	0	0	0	0	504	408	
3	0	0	0	0	511	408	
4	0	0	0	0	516	407	
5	0	0	0	0	521	402	
6	0	0	0	0	523	408	
7	0	0	0	0	524	407	
8	0	0	0	0	524	407	
9	0	0	0	0	522	412	
10	0	0	0	0	517	407	
11	0	0	0	0	509	408	
12	0	0	0	0	499	407	
13	0	0	0	0	490	401	
14	0	0	0	0	482	408	
15	0	0	0	0	477	408	
0	0	0	0	0	474	409	
1	0	0	0	0	475	412	
2	0	0	0	0	478	407	
3	0	0	0	0	484	408	
4	0	0	0	0	492	407	
5	0	0	0	0	501	403	
6	0	0	0	0	508	408	
7	0	0	0	0	514	408	
8	0	0	0	0	519	408	
9	0	0	0	0	522	413	
10	0	0	0	0	525	408	
11	0	0	0	0	526	408	
12	0	0	0	0	525	408	
13	0	0	0	0	524	403	
14	0	0	0	0	518	409	
15	0	0	0	0	510	409	
0	0	0	0	0	500	409	
1	0	0	0	0	490	414	
2	0	0	0	0	482	409	
3	0	0	0	0	475	409	
4	0	0	0	0	472	409	
5	0	0	0	0	472	404	
6	0	0	0	0	474	409	
7	0	0	0	0	479	409	
8	0	0	0	0	487	411	
9	0	0	0	0	494	415	
10	0	0	0	0	502	410	
11	0	0	0	0	508	411	
12	0	0	0	0	513	410	
13	0	0	0	0	516	405	
14	0	0	0	0	518	411	
15	0	0	0	0	519	411	
0	0	0	0	0	518	411	
1	0	0	0	0	516	415	
2	0	0	0	0	512	410	
3	0	0	0	0	505	411	
4	0	0	0	0	495	410	
5	0	0	0	0	486	405	
6	0	0	0	0	480	411	
7	0	0	0	0	474	410	
8	0	0	0	0	472	411	
9	0	0	0	0	473	415	
10	0	0	0	0	476	411	
11	0	0	0	0	483	411	
12	0	0	0	0	491	411	
13	0	0	0	0	499	406	
14	0	0	0	0	508	411	
15	0	0	0	0	515	411	
0	0	0	0	0	521	411	
1	0	0	0	0	526	416	
2	0	0	0	0	529	411	
3	0	0	0	0	530	411	
4	0	0	0	0	529	411	
5	0	0	0	0	528	406	
6	0	0	0	0	524	411	
7	0	0	0	0	515	411	
8	0	0	0	0	505	411	
9	0	0	0	0	496	415	
10	0	0	0	0	488	411	
11	0	0	0	0	482	410	
12	0	0	0	0	479	410	
13	0	0	0	0	480	405	
14	0	0	0	0	484	410	
15	0	0	0	0	491	410	
0	0	0	0	0	499	410	
1	0	0	0	0	508	415	
2	0	0	0	0	516	410	
3	0	0	0	0	523	410	
4	0	0	0	0	529	410	
5	0	0	0	0	533	404	
6	0	0	0	0	536	410	
7	0	0	0	0	537	410	
8	0	0	0	0	537	410	
9	0	0	0	0	535	415	
10	0	0	0	0	530	410	
11	0	0	0	0	521	410	
12	0	0	0	0	511	409	
13	0	0	0	0	501	405	
14	0	0	0	0	493	409	
15	0	0	0	0	487	409	
0	0	0	0	0	483	410	
1	0	0	0	0	484	415	
2	0	0	0	0	488	411	
3	0	0	0	0	494	411	
4	0	0	0	0	501	410	
5	0	0	0	0	510	405	
6	0	0	0	0	517	410	
7	0	0	0	0	524	410	
8	0	0	0	0	530	411	
9	0	0	0	0	534	415	
10	0	0	0	0	535	410	
11	0	0	0	0	536	411	
12	0	0	0	0	534	410	
13	0	0	0	0	532	405	
14	0	0	0	0	526	411	
15	0	0	0	0	518	410	
0	0	0	0	0	507	411	
1	0	0	0	0	497	415	
2	0	0	0	0	490	411	
3	0	0	0	0	484	411	
4	0	0	0	0	480	411	
5	0	0	0	0	481	405	
6	0	0	0	0	485	411	
7	0	0	0	0	491	412	
8	0	0	0	0	499	411	
9	0	0	0	0	508	416	
10	0	0	0	0	516	412	
11	0	0	0	0	523	412	
12	0	0	0	0	528	412	
13	0	0	0	0	533	406	
14	0	0	0	0	535	412	
15	0	0	0	0	536	412	
0	0	0	0	0	534	412	
1	0	0	0	0	531	417	
2	0	0	0	0	525	412	
3	0	0	0	0	516	412	
4	0	0	0	0	506	412	
5	0	0	0	0	496	407	
6	0	0	0	0	487	411	
7	0	0	0	0	481	412	
8	0	0	0	0	479	412	
9	0	0	0	0	479	416	
10	0	0	0	0	483	412	
11	0	0	0	0	489	411	
12	0	0	0	0	497	411	
13	0	0	0	0	506	406	
14	0	0	0	0	514	412	
15	0	0	0	0	521	412	
0	0	0	0	0	526	412	
1	0	0	0	0	530	416	
2	0	0	0	0	532	412	
3	0	0	0	0	532	411	
4	0	0	0	0	531	411	
5	0	0	0	0	529	406	
6	0	0	0	0	524	411	
7	0	0	0	0	515	411	
8	0	0	0	0	505	412	
9	0	0	0	0	495	415	
10	0	0	0	0	488	411	
11	0	0	0	0	481	411	
12	0	0	0	0	478	410	
13	0	0	0	0	478	405	
14	0	0	0	0	482	409	
15	0	0	0	0	488	409	
0	0	0	0	0	496	410	
1	0	0	0	0	505	414	
2	0	0	0	0	513	409	
3	0	0	0	0	520	409	
4	0	0	0	0	525	409	
5	0	0	0	0	529	404	
6	0	0	0	0	531	409	
7	0	0	0	0	532	408	
8	0	0	0	0	531	408	
9	0	0	0	0	529	414	
10	0	0	0	0	524	408	
11	0	0	0	0	515	408	
12	0	0	0	0	505	407	
13	0	0	0	0	496	403	
14	0	0	0	0	488	408	
15	0	0	0	0	482	409	
0	0	0	0	0	479	408	
1	0	0	0	0	479	413	
2	0	0	0	0	483	408	
3	0	0	0	0	487	409	
4	0	0	0	0	495	408	
5	0	0	0	0	504	403	
6	0	0	0	0	511	408	
7	0	0	0	0	518	408	
8	0	0	0	0	525	409	
9	0	0	0	0	529	413	
10	0	0	0	0	532	409	
11	0	0	0	0	532	409	
12	0	0	0	0	531	409	
13	0	0	0	0	529	405	
14	0	0	0	0	523	410	
15	0	0	0	0	514	410	
0	0	0	0	0	504	410	
1	0	0	0	0	494	415	
2	0	0	0	0	485	410	
3	0	0	0	0	478	410	
4	0	0	0	0	473	409	
5	0	0	0	0	472	404	
6	0	0	0	0	473	410	
7	0	0	0	0	477	410	
8	0	0	0	0	481	410	
9	0	0	0	0	487	415	
10	0	0	0	0	492	410	
11	0	0	0	0	497	410	
12	0	0	0	0	499	411	
13	0	0	0	0	500	405	
14	0	0	0	0	499	410	
15	0	0	0	0	497	411	
0	0	0	0	0	492	411	
1	0	0	0	0	485	415	
2	0	0	0	0	476	411	
3	0	0	0	0	464	411	
4	0	0	0	0	450	410	
5	0	0	0	0	437	405	
6	0	0	0	0	425	411	
7	0	0	0	0	416	410	
8	0	0	0	0	411	411	
9	0	0	0	0	410	415	
10	0	0	0	0	413	410	
11	0	0	0	0	418	410	
12	0	0	0	0	425	410	
13	0	0	0	0	434	405	
14	0	0	0	0	442	410	
15	0	0	0	0	450	409	
0	0	0	0	0	458	409	
1	0	0	0	0	467	415	
2	0	0	0	0	478	410	
3	0	0	0	0	489	409	
4	0	0	0	0	503	411	
5	0	0	0	0	516	404	
6	0	0	0	0	529	410	
7	0	0	0	0	541	409	
8	0	0	0	0	550	409	
9	0	0	0	0	559	414	
10	0	0	0	0	568	409	
11	0	0	0	0	579	409	
12	0	0	0	0	591	409	
13	0	0	0	0	604	403	
14	0	0	0	0	616	409	
15	0	0	0	0	627	409	
0	0	0	0	0	635	409	
1	0	0	0	0	641	414	
2	0	0	0	0	644	409	
3	0	0	0	0	646	409	
4	0	0	0	0	646	408	
5	0	0	0	0	644	403	
6	0	0	0	0	640	408	
7	0	0	0	0	633	408	
8	0	0	0	0	623	408	
9	0	0	0	0	609	414	
10	0	0	0	0	591	409	
11	0	0	0	0	570	409	
12	0	0	0	0	548	408	
13	0	0	0	0	525	404	
14	0	0	0	0	505	409	
15	0	0	0	0	488	410	
0	0	0	0	0	476	409	
1	0	0	0	0	466	414	
2	0	0	0	0	461	409	
3	0	0	0	0	459	409	
4	0	0	0	0	461	409	
5	0	0	0	0	465	404	
6	0	0	0	0	469	410	
7	0	0	0	0	472	410	
8	0	0	0	0	474	409	
9	0	0	0	0	475	415	
10	0	0	0	0	475	409	
11	0	0	0	0	474	411	
12	0	0	0	0	472	410	
13	0	0	0	0	470	404	
14	0	0	0	0	465	409	
15	0	0	0	0	457	409	
0	0	0	0	0	449	411	
1	0	0	0	0	443	415	
2	0	0	0	0	438	409	
3	0	0	0	0	435	410	
4	0	0	0	0	435	409	
5	0	0	0	0	438	405	
6	0	0	0	0	445	410	
7	0	0	0	0	454	410	
8	0	0	0	0	465	410	
9	0	0	0	0	477	415	
10	0	0	0	0	488	410	
11	0	0	0	0	497	409	
12	0	0	0	0	504	409	
13	0	0	0	0	510	404	
14	0	0	0	0	513	409	
15	0	0	0	0	515	410	
0	0	0	0	0	514	409	
1	0	0	0	0	512	414	
2	0	0	0	0	508	409	
3	0	0	0	0	500	409	
4	0	0	0	0	490	409	
5	0	0	0	0	480	403	
6	0	0	0	0	473	409	
7	0	0	0	0	467	409	
8	0	0	0	0	464	410	
9	0	0	0	0	464	414	
10	0	0	0	0	468	410	
11	0	0	0	0	474	410	
12	0	0	0	0	483	409	
13	0	0	0	0	492	404	
14	0	0	0	0	502	410	
15	0	0	0	0	511	409	
0	0	0	0	0	519	410	
1	0	0	0	0	526	414	
2	0	0	0	0	530	410	
3	0	0	0	0	532	410	
4	0	0	0	0	532	410	
5	0	0	0	0	531	405	
6	0	0	0	0	527	409	
7	0	0	0	0	519	410	
8	0	0	0	0	510	410	
9	0	0	0	0	501	415	
10	0	0	0	0	494	410	
11	0	0	0	0	488	410	
12	0	0	0	0	485	411	
13	0	0	0	0	486	405	
14	0	0	0	0	491	411	
15	0	0	0	0	497	410	
0	0	0	0	0	506	411	
1	0	0	0	0	516	415	
2	0	0	0	0	526	410	
3	0	0	0	0	534	410	
4	0	0	0	0	540	409	
5	0	0	0	0	544	405	
6	0	0	0	0	546	410	
7	0	0	0	0	547	410	
8	0	0	0	0	545	410	
9	0	0	0	0	543	415	
10	0	0	0	0	538	411	
11	0	0	0	0	529	410	
12	0	0	0	0	519	409	
13	0	0	0	0	510	405	
14	0	0	0	0	502	410	
15	0	0	0	0	496	410	
0	0	0	0	0	492	410	
1	0	0	0	0	493	415	
2	0	0	0	0	497	410	
3	0	0	0	0	503	410	
4	0	0	0	0	511	409	
5	0	0	0	0	520	404	
6	0	0	0	0	529	410	
7	0	0	0	0	536	409	
8	0	0	0	0	543	409	
9	0	0	0	0	546	414	
10	0	0	0	0	549	409	
11	0	0	0	0	549	409	
12	0	0	0	0	548	409	
13	0	0	0	0	545	404	
14	0	0	0	0	540	409	
15	0	0	0	0	531	409	
0	0	0	0	0	520	409	
1	0	0	0	0	511	414	
2	0	0	0	0	503	409	
3	0	0	0	0	497	409	
4	0	0	0	0	494	408	
5	0	0	0	0	495	403	
6	0	0	0	0	499	408	
7	0	0	0	0	505	409	
8	0	0	0	0	514	408	
9	0	0	0	0	522	413	
10	0	0	0	0	531	408	
11	0	0	0	0	537	409	
12	0	0	0	0	542	408	
13	0	0	0	0	546	403	
14	0	0	0	0	548	408	
15	0	0	0	0	548	409	
0	0	0	0	0	547	409	
1	0	0	0	0	544	414	
2	0	0	0	0	540	409	
3	0	0	0	0	530	409	
4	0	0	0	0	519	408	
5	0	0	0	0	510	403	
6	0	0	0	0	501	409	
7	0	0	0	0	495	409	
8	0	0	0	0	492	409	
9	0	0	0	0	493	415	
10	0	0	0	0	497	409	
11	0	0	0	0	503	409	
12	0	0	0	0	511	409	
13	0	0	0	0	520	405	
14	0	0	0	0	529	410	
15	0	0	0	0	536	410	
0	0	0	0	0	542	410	
1	0	0	0	0	545	415	
2	0	0	0	0	548	410	
3	0	0	0	0	548	410	
4	0	0	0	0	547	410	
5	0	0	0	0	544	405	
6	0	0	0	0	538	410	
7	0	0	0	0	529	411	
8	0	0	0	0	519	410	
9	0	0	0	0	508	415	
10	0	0	0	0	500	411	
11	0	0	0	0	493	411	
12	0	0	0	0	490	411	
13	0	0	0	0	489	406	
14	0	0	0	0	493	411	
15	0	0	0	0	499	411	
0	0	0	0	0	508	411	
1	0	0	0	0	516	416	
2	0	0	0	0	525	411	
3	0	0	0	0	532	412	
4	0	0	0	0	537	411	
5	0	0	0	0	542	406	
6	0	0	0	0	543	412	
7	0	0	0	0	544	411	
8	0	0	0	0	543	411	
9	0	0	0	0	541	416	
10	0	0	0	0	536	411	
11	0	0	0	0	526	411	
12	0	0	0	0	515	411	
13	0	0	0	0	504	406	
14	0	0	0	0	496	411	
15	0	0	0	0	491	411	
0	0	0	0	0	488	412	
1	0	0	0	0	488	416	
2	0	0	0	0	493	411	
3	0	0	0	0	499	411	
4	0	0	0	0	507	411	
5	0	0	0	0	516	406	
6	0	0	0	0	524	411	
7	0	0	0	0	531	411	
8	0	0	0	0	537	411	
9	0	0	0	0	541	416	
10	0	0	0	0	544	411	
11	0	0	0	0	545	411	
12	0	0	0	0	545	411	
13	0	0	0	0	543	406	
14	0	0	0	0	537	411	
15	0	0	0	0	528	411	
0	0	0	0	0	517	411	
1	0	0	0	0	508	416	
2	0	0	0	0	499	410	
3	0	0	0	0	493	411	
4	0	0	0	0	489	410	
5	0	0	0	0	491	405	
6	0	0	0	0	495	411	
7	0	0	0	0	501	411	
8	0	0	0	0	510	411	
9	0	0	0	0	519	415	
10	0	0	0	0	528	411	
11	0	0	0	0	535	411	
12	0	0	0	0	540	411	
13	0	0	0	0	545	406	
14	0	0	0	0	548	411	
15	0	0	0	0	549	411	
0	0	0	0	0	548	410	
1	0	0	0	0	545	415	
2	0	0	0	0	540	410	
3	0	0	0	0	531	410	
4	0	0	0	0	521	409	
5	0	0	0	0	511	404	
6	0	0	0	0	504	410	
7	0	0	0	0	498	410	
8	0	0	0	0	495	411	
9	0	0	0	0	496	415	
10	0	0	0	0	500	409	
11	0	0	0	0	508	410	
12	0	0	0	0	516	410	
13	0	0	0	0	525	405	
14	0	0	0	0	534	410	
15	0	0	0	0	540	410	
0	0	0	0	0	547	411	
1	0	0	0	0	551	415	
2	0	0	0	0	553	410	
3	0	0	0	0	554	411	
4	0	0	0	0	554	411	
5	0	0	0	0	552	405	
6	0	0	0	0	547	411	
7	0	0	0	0	539	411	
8	0	0	0	0	529	411	
9	0	0	0	0	519	416	
10	0	0	0	0	511	411	
11	0	0	0	0	505	411	
12	0	0	0	0	502	410	
13	0	0	0	0	503	406	
14	0	0	0	0	506	411	
15	0	0	0	0	512	412	
0	0	0	0	0	520	412	
1	0	0	0	0	529	416	
2	0	0	0	0	538	411	
3	0	0	0	0	544	411	
4	0	0	0	0	550	411	
5	0	0	0	0	553	406	
6	0	0	0	0	554	411	
7	0	0	0	0	553	411	
8	0	0	0	0	551	412	
9	0	0	0	0	548	416	
10	0	0	0	0	541	412	
11	0	0	0	0	531	412	
12	0	0	0	0	518	411	
13	0	0	0	0	507	405	
14	0	0	0	0	497	411	
15	0	0	0	0	489	411	
0	0	0	0	0	485	411	
1	0	0	0	0	485	415	
2	0	0	0	0	487	411	
3	0	0	0	0	492	411	
4	0	0	0	0	499	410	
5	0	0	0	0	506	405	
6	0	0	0	0	513	410	
7	0	0	0	0	519	410	
8	0	0	0	0	523	410	
9	0	0	0	0	525	414	
10	0	0	0	0	527	410	
11	0	0	0	0	526	409	
12	0	0	0	0	524	409	
13	0	0	0	0	520	404	
14	0	0	0	0	513	408	
15	0	0	0	0	503	410	
0	0	0	0	0	492	409	
1	0	0	0	0	482	414	
2	0	0	0	0	474	409	
3	0	0	0	0	466	408	
4	0	0	0	0	462	408	
5	0	0	0	0	462	403	
6	0	0	0	0	466	408	
7	0	0	0	0	472	409	
8	0	0	0	0	481	408	
9	0	0	0	0	490	414	
10	0	0	0	0	499	408	
11	0	0	0	0	505	408	
12	0	0	0	0	511	408	
13	0	0	0	0	514	402	
14	0	0	0	0	516	408	
15	0	0	0	0	516	408	
0	0	0	0	0	515	408	
1	0	0	0	0	512	412	
2	0	0	0	0	507	407	
3	0	0	0	0	499	408	
4	0	0	0	0	487	408	
5	0	0	0	0	478	403	
6	0	0	0	0	469	408	
7	0	0	0	0	462	407	
8	0	0	0	0	460	407	
9	0	0	0	0	460	412	
10	0	0	0	0	464	407	
11	0	0	0	0	471	408	
12	0	0	0	0	479	407	
13	0	0	0	0	488	402	
14	0	0	0	0	497	407	
15	0	0	0	0	505	408	
0	0	0	0	0	511	408	
1	0	0	0	0	515	412	
2	0	0	0	0	518	408	
3	0	0	0	0	519	408	
4	0	0	0	0	519	408	
5	0	0	0	0	516	402	
6	0	0	0	0	511	408	
7	0	0	0	0	502	408	
8	0	0	0	0	491	408	
9	0	0	0	0	481	413	
10	0	0	0	0	473	409	
11	0	0	0	0	467	408	
12	0	0	0	0	464	409	
13	0	0	0	0	464	403	
14	0	0	0	0	468	409	
15	0	0	0	0	476	409	
0	0	0	0	0	484	409	
1	0	0	0	0	494	414	
2	0	0	0	0	503	409	
3	0	0	0	0	511	409	
4	0	0	0	0	516	409	
5	0	0	0	0	521	404	
6	0	0	0	0	524	410	
7	0	0	0	0	524	410	
8	0	0	0	0	524	410	
9	0	0	0	0	522	414	
10	0	0	0	0	517	409	
11	0	0	0	0	508	409	
12	0	0	0	0	498	409	
13	0	0	0	0	487	404	
14	0	0	0	0	479	410	
15	0	0	0	0	473	410	
0	0	0	0	0	470	411	
1	0	0	0	0	470	415	
2	0	0	0	0	475	410	
3	0	0	0	0	481	409	
4	0	0	0	0	489	409	
5	0	0	0	0	499	404	
6	0	0	0	0	508	410	
7	0	0	0	0	515	409	
8	0	0	0	0	521	410	
9	0	0	0	0	525	414	
10	0	0	0	0	527	409	
11	0	0	0	0	528	409	
12	0	0	0	0	527	409	
13	0	0	0	0	525	403	
14	0	0	0	0	519	408	
15	0	0	0	0	511	409	
0	0	0	0	0	500	408	
1	0	0	0	0	490	414	
2	0	0	0	0	482	409	
3	0	0	0	0	476	409	
4	0	0	0	0	472	409	
5	0	0	0	0	473	403	
6	0	0	0	0	477	409	
7	0	0	0	0	483	409	
8	0	0	0	0	491	409	
9	0	0	0	0	499	415	
10	0	0	0	0	507	410	
11	0	0	0	0	514	410	
12	0	0	0	0	519	410	
13	0	0	0	0	524	405	
14	0	0	0	0	527	410	
15	0	0	0	0	527	410	
0	0	0	0	0	527	411	
1	0	0	0	0	524	415	
2	0	0	0	0	519	411	
3	0	0	0	0	510	410	
4	0	0	0	0	499	410	
5	0	0	0	0	490	406	
6	0	0	0	0	482	411	
7	0	0	0	0	476	410	
8	0	0	0	0	473	411	
9	0	0	0	0	473	415	
10	0	0	0	0	477	411	
11	0	0	0	0	483	411	
12	0	0	0	0	492	411	
13	0	0	0	0	501	406	
14	0	0	0	0	510	411	
15	0	0	0	0	517	412	
0	0	0	0	0	523	412	
1	0	0	0	0	527	416	
2	0	0	0	0	530	411	
3	0	0	0	0	531	411	
4	0	0	0	0	530	411	
5	0	0	0	0	527	406	
6	0	0	0	0	521	412	
7	0	0	0	0	513	412	
8	0	0	0	0	502	412	
9	0	0	0	0	492	416	
10	0	0	0	0	485	411	
11	0	0	0	0	478	412	
12	0	0	0	0	474	411	
13	0	0	0	0	475	406	
14	0	0	0	0	478	411	
15	0	0	0	0	485	412	
0	0	0	0	0	493	412	
1	0	0	0	0	502	416	
2	0	0	0	0	511	412	
3	0	0	0	0	518	411	
4	0	0	0	0	524	411	
5	0	0	0	0	529	406	
6	0	0	0	0	532	411	
7	0	0	0	0	533	411	
8	0	0	0	0	532	412	
9	0	0	0	0	530	416	
10	0	0	0	0	524	411	
11	0	0	0	0	514	411	
12	0	0	0	0	503	411	
13	0	0	0	0	493	406	
14	0	0	0	0	484	412	
15	0	0	0	0	479	411	
0	0	0	0	0	475	412	
1	0	0	0	0	476	415	
2	0	0	0	0	480	411	
3	0	0	0	0	487	411	
4	0	0	0	0	496	411	
5	0	0	0	0	505	406	
6	0	0	0	0	514	411	
7	0	0	0	0	522	411	
8	0	0	0	0	528	411	
9	0	0	0	0	532	416	
10	0	0	0	0	535	411	
11	0	0	0	0	536	411	
12	0	0	0	0	534	410	
13	0	0	0	0	532	405	
14	0	0	0	0	526	411	
15	0	0	0	0	517	410	
0	0	0	0	0	506	411	
1	0	0	0	0	496	415	
2	0	0	0	0	488	410	
3	0	0	0	0	481	411	
4	0	0	0	0	478	410	
5	0	0	0	0	479	405	
6	0	0	0	0	483	409	
7	0	0	0	0	489	410	
8	0	0	0	0	498	410	
9	0	0	0	0	508	415	
10	0	0	0	0	517	410	
11	0	0	0	0	524	410	
12	0	0	0	0	529	410	
13	0	0	0	0	534	404	
14	0	0	0	0	537	410	
15	0	0	0	0	537	409	
0	0	0	0	0	536	410	
1	0	0	0	0	533	415	
2	0	0	0	0	527	409	
3	0	0	0	0	518	409	
4	0	0	0	0	508	409	
5	0	0	0	0	498	405	
6	0	0	0	0	490	410	
7	0	0	0	0	483	409	
8	0	0	0	0	480	410	
9	0	0	0	0	480	415	
10	0	0	0	0	483	410	
11	0	0	0	0	489	409	
12	0	0	0	0	497	409	
13	0	0	0	0	506	403	
14	0	0	0	0	514	409	
15	0	0	0	0	522	409	
0	0	0	0	0	527	409	
1	0	0	0	0	531	414	
2	0	0	0	0	533	409	
3	0	0	0	0	534	409	
4	0	0	0	0	533	409	
5	0	0	0	0	530	404	
6	0	0	0	0	525	409	
7	0	0	0	0	515	408	
8	0	0	0	0	504	409	
9	0	0	0	0	494	414	
10	0	0	0	0	486	409	
11	0	0	0	0	479	409	
12	0	0	0	0	476	409	
13	0	0	0	0	476	403	
14	0	0	0	0	480	409	
15	0	0	0	0	486	409	
0	0	0	0	0	494	409	
1	0	0	0	0	503	414	
2	0	0	0	0	511	409	
3	0	0	0	0	519	410	
4	0	0	0	0	524	409	
5	0	0	0	0	528	404	
6	0	0	0	0	531	409	
7	0	0	0	0	531	410	
8	0	0	0	0	531	409	
9	0	0	0	0	528	414	
10	0	0	0	0	522	410	
11	0	0	0	0	513	410	
12	0	0	0	0	502	409	
13	0	0	0	0	492	404	
14	0	0	0	0	484	410	
15	0	0	0	0	480	410	
0	0	0	0	0	478	410	
1	0	0	0	0	478	415	
2	0	0	0	0	483	410	
3	0	0	0	0	490	409	
4	0	0	0	0	499	409	
5	0	0	0	0	508	405	
6	0	0	0	0	517	410	
7	0	0	0	0	525	410	
8	0	0	0	0	531	410	
9	0	0	0	0	536	415	
10	0	0	0	0	538	410	
11	0	0	0	0	539	410	
12	0	0	0	0	539	410	
13	0	0	0	0	536	405	
14	0	0	0	0	531	410	
15	0	0	0	0	522	410	
0	0	0	0	0	511	410	
1	0	0	0	0	502	415	
2	0	0	0	0	494	410	
3	0	0	0	0	487	411	
4	0	0	0	0	485	410	
5	0	0	0	0	485	405	
6	0	0	0	0	489	410	
7	0	0	0	0	496	411	
8	0	0	0	0	505	410	
9	0	0	0	0	515	415	
10	0	0	0	0	525	410	
11	0	0	0	0	532	411	
12	0	0	0	0	539	410	
13	0	0	0	0	543	405	
14	0	0	0	0	546	410	
15	0	0	0	0	547	410	
0	0	0	0	0	547	411	
1	0	0	0	0	543	416	
2	0	0	0	0	538	411	
3	0	0	0	0	529	411	
4	0	0	0	0	519	411	
5	0	0	0	0	508	406	
6	0	0	0	0	500	412	
7	0	0	0	0	494	412	
8	0	0	0	0	491	412	
9	0	0	0	0	491	417	
10	0	0	0	0	494	412	
11	0	0	0	0	500	412	
12	0	0	0	0	508	412	
13	0	0	0	0	516	407	
14	0	0	0	0	524	412	
15	0	0	0	0	530	412	
0	0	0	0	0	535	412	
1	0	0	0	0	539	417	
2	0	0	0	0	541	412	
3	0	0	0	0	541	412	
4	0	0	0	0	539	411	
5	0	0	0	0	536	406	
6	0	0	0	0	530	411	
7	0	0	0	0	521	411	
8	0	0	0	0	511	411	
9	0	0	0	0	501	416	
10	0	0	0	0	494	410	
11	0	0	0	0	488	411	
12	0	0	0	0	485	410	
13	0	0	0	0	486	405	
14	0	0	0	0	489	410	
15	0	0	0	0	496	411	
0	0	0	0	0	504	411	
1	0	0	0	0	514	415	
2	0	0	0	0	524	410	
3	0	0	0	0	531	410	
4	0	0	0	0	536	410	
5	0	0	0	0	540	405	
6	0	0	0	0	542	410	
7	0	0	0	0	543	409	
8	0	0	0	0	542	409	
9	0	0	0	0	538	414	
10	0	0	0	0	531	409	
11	0	0	0	0	522	409	
12	0	0	0	0	510	409	
13	0	0	0	0	499	404	
14	0	0	0	0	490	409	
15	0	0	0	0	483	410	
0	0	0	0	0	479	410	
1	0	0	0	0	480	414	
2	0	0	0	0	483	409	
3	0	0	0	0	489	409	
4	0	0	0	0	496	409	
5	0	0	0	0	505	404	
6	0	0	0	0	514	409	
7	0	0	0	0	522	410	
8	0	0	0	0	528	411	
9	0	0	0	0	532	415	
10	0	0	0	0	536	411	
11	0	0	0	0	536	410	
12	0	0	0	0	536	410	
13	0	0	0	0	533	406	
14	0	0	0	0	527	410	
15	0	0	0	0	518	411	
0	0	0	0	0	508	411	
1	0	0	0	0	497	415	
2	0	0	0	0	489	411	
3	0	0	0	0	483	411	
4	0	0	0	0	481	410	
5	0	0	0	0	482	405	
6	0	0	0	0	486	411	
7	0	0	0	0	492	411	
8	0	0	0	0	500	410	
9	0	0	0	0	509	415	
10	0	0	0	0	517	410	
11	0	0	0	0	524	409	
12	0	0	0	0	529	410	
13	0	0	0	0	533	404	
14	0	0	0	0	535	410	
15	0	0	0	0	536	409	
0	0	0	0	0	535	410	
1	0	0	0	0	532	415	
2	0	0	0	0	527	409	
3	0	0	0	0	518	409	
4	0	0	0	0	508	409	
5	0	0	0	0	498	404	
6	0	0	0	0	490	409	
7	0	0	0	0	484	409	
8	0	0	0	0	481	409	
9	0	0	0	0	481	414	
10	0	0	0	0	485	409	
11	0	0	0	0	490	409	
12	0	0	0	0	499	409	
13	0	0	0	0	508	404	
14	0	0	0	0	516	408	
15	0	0	0	0	524	408	
0	0	0	0	0	530	409	
1	0	0	0	0	535	413	
2	0	0	0	0	538	408	
3	0	0	0	0	539	408	
4	0	0	0	0	539	408	
5	0	0	0	0	537	402	
6	0	0	0	0	531	408	
7	0	0	0	0	521	408	
8	0	0	0	0	510	408	
9	0	0	0	0	499	413	
10	0	0	0	0	489	408	
11	0	0	0	0	482	408	
12	0	0	0	0	476	408	
13	0	0	0	0	475	403	
14	0	0	0	0	476	409	
15	0	0	0	0	479	408	
0	0	0	0	0	483	408	
1	0	0	0	0	489	413	
2	0	0	0	0	495	409	
3	0	0	0	0	500	408	
4	0	0	0	0	504	409	
5	0	0	0	0	506	403	
6	0	0	0	0	505	408	
7	0	0	0	0	502	408	
8	0	0	0	0	497	409	
9	0	0	0	0	492	414	
10	0	0	0	0	482	409	
11	0	0	0	0	470	409	
12	0	0	0	0	455	409	
13	0	0	0	0	442	404	
14	0	0	0	0	430	409	
15	0	0	0	0	422	409	
0	0	0	0	0	416	409	
1	0	0	0	0	416	414	
2	0	0	0	0	419	410	
3	0	0	0	0	425	410	
4	0	0	0	0	433	410	
5	0	0	0	0	441	405	
6	0	0	0	0	449	410	
7	0	0	0	0	458	411	
8	0	0	0	0	465	410	
9	0	0	0	0	474	414	
10	0	0	0	0	484	410	
11	0	0	0	0	495	410	
12	0	0	0	0	508	408	
13	0	0	0	0	521	404	
14	0	0	0	0	534	409	
15	0	0	0	0	544	408	
0	0	0	0	0	553	409	
1	0	0	0	0	562	413	
2	0	0	0	0	571	408	
3	0	0	0	0	581	408	
4	0	0	0	0	592	408	
5	0	0	0	0	605	403	
6	0	0	0	0	617	408	
7	0	0	0	0	628	408	
8	0	0	0	0	637	408	
9	0	0	0	0	643	412	
10	0	0	0	0	649	408	
11	0	0	0	0	651	408	
12	0	0	0	0	652	408	
13	0	0	0	0	651	402	
14	0	0	0	0	646	408	
15	0	0	0	0	639	408	
0	0	0	0	0	629	408	
1	0	0	0	0	616	413	
2	0	0	0	0	599	408	
3	0	0	0	0	578	409	
4	0	0	0	0	556	408	
5	0	0	0	0	534	404	
6	0	0	0	0	514	409	
7	0	0	0	0	497	409	
8	0	0	0	0	484	410	
9	0	0	0	0	475	415	
10	0	0	0	0	470	410	
11	0	0	0	0	468	410	
12	0	0	0	0	469	410	
13	0	0	0	0	472	405	
14	0	0	0	0	474	410	
15	0	0	0	0	475	410	
0	0	0	0	0	476	411	
1	0	0	0	0	477	415	
2	0	0	0	0	476	410	
3	0	0	0	0	474	411	
4	0	0	0	0	472	411	
5	0	0	0	0	469	406	
6	0	0	0	0	464	412	
7	0	0	0	0	456	411	
8	0	0	0	0	448	412	
9	0	0	0	0	441	416	
10	0	0	0	0	436	410	
11	0	0	0	0	433	411	
12	0	0	0	0	433	411	
13	0	0	0	0	438	406	
14	0	0	0	0	446	411	
15	0	0	0	0	456	411	
0	0	0	0	0	468	411	
1	0	0	0	0	481	416	
2	0	0	0	0	494	411	
3	0	0	0	0	503	411	
4	0	0	0	0	511	411	
5	0	0	0	0	517	406	
6	0	0	0	0	520	412	
7	0	0	0	0	522	411	
8	0	0	0	0	521	411	
9	0	0	0	0	518	416	
10	0	0	0	0	512	411	
11	0	0	0	0	503	410	
12	0	0	0	0	492	410	
13	0	0	0	0	482	405	
14	0	0	0	0	474	411	
15	0	0	0	0	468	410	
0	0	0	0	0	464	411	
1	0	0	0	0	465	415	
2	0	0	0	0	470	411	
3	0	0	0	0	477	411	
4	0	0	0	0	487	411	
5	0	0	0	0	497	405	
6	0	0	0	0	506	411	
7	0	0	0	0	515	411	
8	0	0	0	0	522	411	
9	0	0	0	0	528	415	
10	0	0	0	0	532	411	
11	0	0	0	0	535	410	
12	0	0	0	0	536	410	
13	0	0	0	0	536	405	
14	0	0	0	0	532	410	
15	0	0	0	0	525	410	
0	0	0	0	0	516	410	
1	0	0	0	0	507	415	
2	0	0	0	0	499	410	
3	0	0	0	0	492	411	
4	0	0	0	0	489	410	
5	0	0	0	0	491	405	
6	0	0	0	0	494	411	
7	0	0	0	0	500	410	
8	0	0	0	0	509	411	
9	0	0	0	0	519	415	
10	0	0	0	0	528	411	
11	0	0	0	0	536	411	
12	0	0	0	0	542	411	
13	0	0	0	0	547	406	
14	0	0	0	0	550	412	
15	0	0	0	0	552	411	
0	0	0	0	0	552	412	
1	0	0	0	0	550	416	
2	0	0	0	0	545	411	
3	0	0	0	0	537	411	
4	0	0	0	0	526	411	
5	0	0	0	0	516	406	
6	0	0	0	0	509	411	
7	0	0	0	0	504	411	
8	0	0	0	0	501	412	
9	0	0	0	0	502	417	
10	0	0	0	0	506	412	
11	0	0	0	0	513	412	
12	0	0	0	0	521	412	
13	0	0	0	0	529	407	
14	0	0	0	0	537	412	
15	0	0	0	0	543	413	
0	0	0	0	0	548	413	
1	0	0	0	0	551	417	
2	0	0	0	0	553	413	
3	0	0	0	0	553	412	
4	0	0	0	0	551	412	
5	0	0	0	0	548	407	
6	0	0	0	0	541	412	
7	0	0	0	0	532	413	
8	0	0	0	0	521	413	
9	0	0	0	0	511	417	
10	0	0	0	0	504	412	
11	0	0	0	0	498	412	
12	0	0	0	0	495	412	
13	0	0	0	0	496	407	
14	0	0	0	0	500	412	
15	0	0	0	0	507	412	
0	0	0	0	0	516	412	
1	0	0	0	0	526	416	
2	0	0	0	0	536	411	
3	0	0	0	0	544	411	
4	0	0	0	0	550	411	
5	0	0	0	0	556	406	
6	0	0	0	0	558	411	
7	0	0	0	0	558	410	
8	0	0	0	0	556	411	
9	0	0	0	0	551	415	
10	0	0	0	0	545	411	
11	0	0	0	0	535	410	
12	0	0	0	0	523	410	
13	0	0	0	0	512	405	
14	0	0	0	0	504	410	
15	0	0	0	0	497	410	
0	0	0	0	0	494	410	
1	0	0	0	0	495	415	
2	0	0	0	0	499	409	
3	0	0	0	0	506	409	
4	0	0	0	0	513	409	
5	0	0	0	0	524	404	
6	0	0	0	0	532	408	
7	0	0	0	0	540	408	
8	0	0	0	0	546	408	
9	0	0	0	0	551	413	
10	0	0	0	0	554	408	
11	0	0	0	0	556	408	
12	0	0	0	0	554	408	
13	0	0	0	0	551	403	
14	0	0	0	0	545	408	
15	0	0	0	0	536	408	
0	0	0	0	0	524	409	
1	0	0	0	0	513	413	
2	0	0	0	0	504	408	
3	0	0	0	0	497	409	
4	0	0	0	0	493	409	
5	0	0	0	0	494	403	
6	0	0	0	0	498	408	
7	0	0	0	0	505	409	
8	0	0	0	0	514	410	
9	0	0	0	0	523	414	
10	0	0	0	0	532	410	
11	0	0	0	0	540	410	
12	0	0	0	0	546	409	
13	0	0	0	0	551	404	
14	0	0	0	0	553	410	
15	0	0	0	0	555	410	
0	0	0	0	0	555	411	
1	0	0	0	0	551	415	
2	0	0	0	0	545	409	
3	0	0	0	0	535	411	
4	0	0	0	0	523	410	
5	0	0	0	0	512	404	
6	0	0	0	0	503	410	
7	0	0	0	0	496	411	
8	0	0	0	0	493	411	
9	0	0	0	0	494	415	
10	0	0	0	0	497	411	
11	0	0	0	0	503	411	
12	0	0	0	0	511	410	
13	0	0	0	0	521	405	
14	0	0	0	0	531	410	
15	0	0	0	0	539	410	
0	0	0	0	0	545	410	
1	0	0	0	0	550	414	
2	0	0	0	0	553	410	
3	0	0	0	0	554	409	
4	0	0	0	0	554	409	
5	0	0	0	0	552	404	
6	0	0	0	0	548	409	
7	0	0	0	0	539	410	
8	0	0	0	0	527	410	
9	0	0	0	0	516	415	
10	0	0	0	0	508	409	
11	0	0	0	0	501	409	
12	0	0	0	0	498	409	
13	0	0	0	0	499	404	
14	0	0	0	0	503	409	
15	0	0	0	0	510	409	
0	0	0	0	0	519	410	
1	0	0	0	0	528	414	
2	0	0	0	0	538	409	
3	0	0	0	0	545	409	
4	0	0	0	0	551	409	
5	0	0	0	0	556	403	
6	0	0	0	0	557	409	
7	0	0	0	0	557	409	
8	0	0	0	0	556	409	
9	0	0	0	0	552	414	
10	0	0	0	0	547	409	
11	0	0	0	0	537	409	
12	0	0	0	0	527	409	
13	0	0	0	0	517	403	
14	0	0	0	0	509	409	
15	0	0	0	0	504	408	
0	0	0	0	0	501	409	
1	0	0	0	0	503	414	
2	0	0	0	0	508	409	
3	0	0	0	0	514	409	
4	0	0	0	0	523	409	
5	0	0	0	0	534	404	
6	0	0	0	0	543	410	
7	0	0	0	0	551	409	
8	0	0	0	0	557	410	
9	0	0	0	0	563	414	
10	0	0	0	0	566	411	
11	0	0	0	0	567	410	
12	0	0	0	0	566	410	
13	0	0	0	0	564	404	
14	0	0	0	0	559	411	
15	0	0	0	0	550	410	
0	0	0	0	0	538	411	
1	0	0	0	0	528	415	
2	0	0	0	0	520	410	
3	0	0	0	0	514	410	
4	0	0	0	0	510	410	
5	0	0	0	0	511	404	
6	0	0	0	0	515	410	
7	0	0	0	0	520	409	
8	0	0	0	0	528	409	
9	0	0	0	0	536	414	
10	0	0	0	0	545	409	
11	0	0	0	0	551	409	
12	0	0	0	0	556	408	
13	0	0	0	0	560	403	
14	0	0	0	0	560	409	
15	0	0	0	0	559	409	
0	0	0	0	0	556	409	
1	0	0	0	0	550	414	
2	0	0	0	0	542	409	
3	0	0	0	0	530	409	
4	0	0	0	0	518	409	
5	0	0	0	0	508	404	
6	0	0	0	0	498	409	
7	0	0	0	0	491	410	
8	0	0	0	0	486	410	
9	0	0	0	0	486	415	
10	0	0	0	0	489	410	
11	0	0	0	0	495	411	
12	0	0	0	0	503	410	
13	0	0	0	0	512	405	
14	0	0	0	0	519	411	
15	0	0	0	0	526	411	
0	0	0	0	0	531	411	
1	0	0	0	0	535	416	
2	0	0	0	0	536	411	
3	0	0	0	0	536	411	
4	0	0	0	0	532	411	
5	0	0	0	0	527	406	
6	0	0	0	0	520	412	
7	0	0	0	0	508	411	
8	0	0	0	0	496	411	
9	0	0	0	0	484	416	
10	0	0	0	0	475	411	
11	0	0	0	0	468	412	
12	0	0	0	0	463	411	
13	0	0	0	0	463	406	
14	0	0	0	0	467	412	
15	0	0	0	0	473	411	
0	0	0	0	0	481	411	
1	0	0	0	0	491	415	
2	0	0	0	0	500	410	
3	0	0	0	0	506	411	
4	0	0	0	0	512	410	
5	0	0	0	0	515	404	
6	0	0	0	0	518	410	
7	0	0	0	0	519	409	
8	0	0	0	0	518	410	
9	0	0	0	0	514	414	
10	0	0	0	0	509	410	
11	0	0	0	0	499	410	
12	0	0	0	0	489	409	
13	0	0	0	0	479	404	
14	0	0	0	0	471	409	
15	0	0	0	0	464	410	
0	0	0	0	0	462	410	
1	0	0	0	0	463	415	
2	0	0	0	0	467	409	
3	0	0	0	0	474	409	
4	0	0	0	0	483	409	
5	0	0	0	0	492	404	
6	0	0	0	0	500	409	
7	0	0	0	0	508	409	
8	0	0	0	0	513	409	
9	0	0	0	0	518	414	
10	0	0	0	0	521	409	
11	0	0	0	0	522	409	
12	0	0	0	0	520	408	
13	0	0	0	0	517	404	
14	0	0	0	0	511	409	
15	0	0	0	0	502	409	
0	0	0	0	0	492	409	
1	0	0	0	0	483	414	
2	0	0	0	0	475	409	
3	0	0	0	0	468	409	
4	0	0	0	0	465	409	
5	0	0	0	0	465	404	
6	0	0	0	0	468	409	
7	0	0	0	0	473	409	
8	0	0	0	0	481	409	
9	0	0	0	0	489	415	
10	0	0	0	0	498	409	
11	0	0	0	0	506	409	
12	0	0	0	0	512	409	
13	0	0	0	0	517	404	
14	0	0	0	0	520	410	
15	0	0	0	0	522	410	
0	0	0	0	0	522	410	
1	0	0	0	0	520	415	
2	0	0	0	0	515	410	
3	0	0	0	0	507	410	
4	0	0	0	0	497	410	
5	0	0	0	0	489	406	
6	0	0	0	0	482	411	
7	0	0	0	0	477	411	
8	0	0	0	0	473	412	
9	0	0	0	0	474	415	
10	0	0	0	0	478	410	
11	0	0	0	0	484	411	
12	0	0	0	0	492	411	
13	0	0	0	0	502	406	
14	0	0	0	0	510	411	
15	0	0	0	0	518	411	
0	0	0	0	0	523	412	
1	0	0	0	0	527	416	
2	0	0	0	0	529	412	
3	0	0	0	0	529	411	
4	0	0	0	0	527	411	
5	0	0	0	0	524	406	
6	0	0	0	0	519	412	
7	0	0	0	0	510	412	
8	0	0	0	0	499	412	
9	0	0	0	0	489	416	
10	0	0	0	0	481	411	
11	0	0	0	0	475	412	
12	0	0	0	0	472	412	
13	0	0	0	0	474	407	
14	0	0	0	0	480	412	
15	0	0	0	0	487	412	
0	0	0	0	0	496	412	
1	0	0	0	0	506	417	
2	0	0	0	0	516	412	
3	0	0	0	0	523	412	
4	0	0	0	0	529	412	
5	0	0	0	0	534	407	
6	0	0	0	0	536	412	
7	0	0	0	0	537	412	
8	0	0	0	0	536	412	
9	0	0	0	0	532	416	
10	0	0	0	0	526	412	
11	0	0	0	0	516	412	
12	0	0	0	0	505	412	
13	0	0	0	0	494	407	
14	0	0	0	0	485	412	
15	0	0	0	0	476	412	
0	0	0	0	0	471	412	
1	0	0	0	0	471	416	
2	0	0	0	0	474	412	
3	0	0	0	0	479	412	
4	0	0	0	0	486	412	
5	0	0	0	0	495	407	
6	0	0	0	0	503	412	
7	0	0	0	0	510	412	
8	0	0	0	0	515	412	
9	0	0	0	0	519	417	
10	0	0	0	0	523	412	
11	0	0	0	0	524	411	
12	0	0	0	0	524	411	
13	0	0	0	0	523	407	
14	0	0	0	0	519	411	
15	0	0	0	0	511	411	
0	0	0	0	0	502	411	
1	0	0	0	0	494	416	
2	0	0	0	0	488	412	
3	0	0	0	0	483	411	
4	0	0	0	0	480	411	
5	0	0	0	0	481	406	
6	0	0	0	0	484	411	
7	0	0	0	0	489	410	
8	0	0	0	0	495	411	
9	0	0	0	0	503	415	
10	0	0	0	0	510	411	
11	0	0	0	0	517	411	
12	0	0	0	0	523	411	
13	0	0	0	0	528	405	
14	0	0	0	0	531	410	
15	0	0	0	0	534	411	
0	0	0	0	0	533	410	
1	0	0	0	0	531	415	
2	0	0	0	0	524	410	
3	0	0	0	0	516	410	
4	0	0	0	0	505	410	
5	0	0	0	0	494	405	
6	0	0	0	0	486	410	
7	0	0	0	0	478	410	
8	0	0	0	0	473	411	
9	0	0	0	0	474	415	
10	0	0	0	0	478	411	
11	0	0	0	0	485	409	
12	0	0	0	0	493	410	
13	0	0	0	0	503	405	
14	0	0	0	0	511	409	
15	0	0	0	0	518	409	
0	0	0	0	0	524	410	
1	0	0	0	0	528	414	
2	0	0	0	0	531	409	
3	0	0	0	0	532	410	
4	0	0	0	0	532	409	
5	0	0	0	0	531	404	
6	0	0	0	0	526	409	
7	0	0	0	0	519	410	
8	0	0	0	0	509	409	
9	0	0	0	0	499	414	
10	0	0	0	0	492	409	
11	0	0	0	0	485	409	
12	0	0	0	0	481	409	
13	0	0	0	0	483	403	
14	0	0	0	0	487	408	
15	0	0	0	0	494	408	
0	0	0	0	0	502	409	
1	0	0	0	0	511	414	
2	0	0	0	0	519	408	
3	0	0	0	0	526	408	
4	0	0	0	0	531	408	
5	0	0	0	0	534	403	
6	0	0	0	0	535	408	
7	0	0	0	0	536	408	
8	0	0	0	0	534	408	
9	0	0	0	0	531	413	
10	0	0	0	0	525	408	
11	0	0	0	0	516	408	
12	0	0	0	0	505	408	
13	0	0	0	0	496	403	
14	0	0	0	0	488	408	
15	0	0	0	0	483	408	
0	0	0	0	0	481	409	
1	0	0	0	0	483	413	
2	0	0	0	0	487	409	
3	0	0	0	0	493	409	
4	0	0	0	0	501	409	
5	0	0	0	0	510	403	
6	0	0	0	0	519	409	
7	0	0	0	0	526	409	
8	0	0	0	0	531	409	
9	0	0	0	0	534	414	
10	0	0	0	0	537	409	
11	0	0	0	0	537	409	
12	0	0	0	0	537	409	
13	0	0	0	0	535	404	
14	0	0	0	0	529	410	
15	0	0	0	0	519	411	
0	0	0	0	0	508	411	
1	0	0	0	0	498	415	
2	0	0	0	0	489	411	
3	0	0	0	0	482	411	
4	0	0	0	0	478	411	
5	0	0	0	0	477	406	
6	0	0	0	0	479	411	
7	0	0	0	0	484	411	
8	0	0	0	0	491	412	
9	0	0	0	0	499	416	
10	0	0	0	0	507	412	
11	0	0	0	0	513	412	
12	0	0	0	0	518	411	
13	0	0	0	0	521	407	
14	0	0	0	0	524	412	
15	0	0	0	0	525	412	
0	0	0	0	0	525	411	
1	0	0	0	0	524	416	
2	0	0	0	0	519	411	
3	0	0	0	0	511	412	
4	0	0	0	0	501	410	
5	0	0	0	0	492	405	
6	0	0	0	0	484	411	
7	0	0	0	0	478	411	
8	0	0	0	0	474	410	
9	0	0	0	0	474	415	
10	0	0	0	0	478	410	
11	0	0	0	0	483	409	
12	0	0	0	0	491	409	
13	0	0	0	0	499	404	
14	0	0	0	0	508	409	
15	0	0	0	0	516	409	
0	0	0	0	0	524	409	
1	0	0	0	0	530	413	
2	0	0	0	0	535	408	
3	0	0	0	0	539	408	
4	0	0	0	0	541	408	
5	0	0	0	0	541	403	
6	0	0	0	0	536	408	
7	0	0	0	0	527	408	
8	0	0	0	0	517	407	
9	0	0	0	0	508	412	
10	0	0	0	0	499	408	
11	0	0	0	0	492	408	
12	0	0	0	0	489	408	
13	0	0	0	0	489	403	
14	0	0	0	0	492	409	
15	0	0	0	0	497	409	
0	0	0	0	0	505	409	
1	0	0	0	0	514	414	
2	0	0	0	0	524	410	
3	0	0	0	0	532	410	
4	0	0	0	0	538	410	
5	0	0	0	0	543	404	
6	0	0	0	0	545	409	
7	0	0	0	0	547	410	
8	0	0	0	0	546	411	
9	0	0	0	0	543	415	
10	0	0	0	0	538	411	
11	0	0	0	0	529	411	
12	0	0	0	0	519	411	
13	0	0	0	0	510	406	
14	0	0	0	0	502	411	
15	0	0	0	0	496	412	
0	0	0	0	0	494	413	
1	0	0	0	0	494	417	
2	0	0	0	0	497	412	
3	0	0	0	0	502	412	
4	0	0	0	0	509	412	
5	0	0	0	0	517	407	
6	0	0	0	0	526	412	
7	0	0	0	0	533	412	
8	0	0	0	0	539	413	
9	0	0	0	0	542	418	
10	0	0	0	0	544	412	
11	0	0	0	0	544	412	
12	0	0	0	0	544	412	
13	0	0	0	0	543	407	
14	0	0	0	0	537	412	
15	0	0	0	0	529	412	
0	0	0	0	0	519	413	
1	0	0	0	0	510	417	
2	0	0	0	0	501	413	
3	0	0	0	0	495	412	
4	0	0	0	0	491	412	
5	0	0	0	0	491	407	
6	0	0	0	0	493	412	
7	0	0	0	0	497	412	
8	0	0	0	0	503	413	
9	0	0	0	0	510	416	
10	0	0	0	0	517	412	
11	0	0	0	0	523	412	
12	0	0	0	0	529	412	
13	0	0	0	0	534	407	
14	0	0	0	0	536	412	
15	0	0	0	0	537	412	
0	0	0	0	0	537	412	
1	0	0	0	0	536	416	
2	0	0	0	0	531	411	
3	0	0	0	0	522	412	
4	0	0	0	0	513	412	
5	0	0	0	0	504	406	
6	0	0	0	0	495	412	
7	0	0	0	0	490	411	
8	0	0	0	0	487	412	
9	0	0	0	0	489	417	
10	0	0	0	0	493	412	
11	0	0	0	0	498	412	
12	0	0	0	0	505	412	
13	0	0	0	0	512	407	
14	0	0	0	0	519	412	
15	0	0	0	0	524	412	
0	0	0	0	0	528	412	
1	0	0	0	0	532	416	
2	0	0	0	0	535	412	
3	0	0	0	0	536	412	
4	0	0	0	0	536	412	
5	0	0	0	0	535	407	
6	0	0	0	0	531	412	
7	0	0	0	0	523	412	
8	0	0	0	0	512	411	
9	0	0	0	0	502	416	
10	0	0	0	0	494	411	
11	0	0	0	0	488	411	
12	0	0	0	0	487	411	
13	0	0	0	0	489	406	
14	0	0	0	0	494	412	
15	0	0	0	0	501	411	
0	0	0	0	0	510	411	
1	0	0	0	0	518	416	
2	0	0	0	0	526	411	
3	0	0	0	0	532	411	
4	0	0	0	0	536	411	
5	0	0	0	0	539	405	
6	0	0	0	0	540	410	
7	0	0	0	0	539	410	
8	0	0	0	0	536	410	
9	0	0	0	0	532	415	
10	0	0	0	0	526	410	
11	0	0	0	0	516	410	
12	0	0	0	0	506	409	
13	0	0	0	0	496	404	
14	0	0	0	0	488	409	
15	0	0	0	0	482	409	
0	0	0	0	0	480	409	
1	0	0	0	0	481	414	
2	0	0	0	0	485	409	
3	0	0	0	0	492	411	
4	0	0	0	0	501	411	
5	0	0	0	0	511	405	
6	0	0	0	0	520	410	
7	0	0	0	0	529	411	
8	0	0	0	0	536	411	
9	0	0	0	0	540	416	
10	0	0	0	0	540	411	
11	0	0	0	0	540	411	
12	0	0	0	0	537	411	
13	0	0	0	0	533	406	
14	0	0	0	0	526	411	
15	0	0	0	0	516	411	
0	0	0	0	0	505	411	
1	0	0	0	0	494	416	
2	0	0	0	0	485	411	
3	0	0	0	0	477	411	
4	0	0	0	0	473	411	
5	0	0	0	0	473	405	
6	0	0	0	0	477	411	
7	0	0	0	0	483	411	
8	0	0	0	0	491	411	
9	0	0	0	0	499	415	
10	0	0	0	0	506	411	
11	0	0	0	0	511	411	
12	0	0	0	0	514	410	
13	0	0	0	0	518	406	
14	0	0	0	0	518	411	
15	0	0	0	0	515	410	
0	0	0	0	0	511	411	
1	0	0	0	0	504	415	
2	0	0	0	0	494	410	
3	0	0	0	0	480	411	
4	0	0	0	0	465	411	
5	0	0	0	0	452	405	
6	0	0	0	0	441	411	
7	0	0	0	0	433	411	
8	0	0	0	0	428	411	
9	0	0	0	0	428	416	
10	0	0	0	0	432	411	
11	0	0	0	0	440	411	
12	0	0	0	0	450	411	
13	0	0	0	0	461	405	
14	0	0	0	0	470	411	
15	0	0	0	0	477	411	
0	0	0	0	0	484	410	
1	0	0	0	0	489	415	
2	0	0	0	0	493	410	
3	0	0	0	0	498	410	
4	0	0	0	0	504	409	
5	0	0	0	0	509	405	
6	0	0	0	0	513	410	
7	0	0	0	0	516	410	
8	0	0	0	0	518	410	
9	0	0	0	0	523	415	
10	0	0	0	0	528	410	
11	0	0	0	0	536	410	
12	0	0	0	0	546	409	
13	0	0	0	0	558	404	
14	0	0	0	0	572	409	
15	0	0	0	0	587	410	
0	0	0	0	0	601	410	
1	0	0	0	0	613	415	
2	0	0	0	0	621	409	
3	0	0	0	0	624	409	
4	0	0	0	0	625	409	
5	0	0	0	0	623	403	
6	0	0	0	0	621	409	
7	0	0	0	0	617	409	
8	0	0	0	0	611	409	
9	0	0	0	0	603	415	
10	0	0	0	0	591	409	
11	0	0	0	0	575	409	
12	0	0	0	0	554	409	
13	0	0	0	0	533	405	
14	0	0	0	0	514	410	
15	0	0	0	0	496	410	
0	0	0	0	0	481	411	
1	0	0	0	0	471	415	
2	0	0	0	0	466	410	
3	0	0	0	0	463	410	
4	0	0	0	0	463	411	
5	0	0	0	0	465	405	
6	0	0	0	0	466	411	
7	0	0	0	0	467	410	
8	0	0	0	0	467	411	
9	0	0	0	0	467	416	
10	0	0	0	0	465	411	
11	0	0	0	0	463	411	
12	0	0	0	0	460	410	
13	0	0	0	0	455	406	
14	0	0	0	0	448	411	
15	0	0	0	0	440	411	
0	0	0	0	0	430	411	
1	0	0	0	0	421	416	
2	0	0	0	0	416	411	
3	0	0	0	0	413	411	
4	0	0	0	0	414	411	
5	0	0	0	0	419	406	
6	0	0	0	0	427	411	
7	0	0	0	0	437	412	
8	0	0	0	0	450	412	
9	0	0	0	0	463	417	
10	0	0	0	0	475	411	
11	0	0	0	0	485	411	
12	0	0	0	0	494	411	
13	0	0	0	0	502	406	
14	0	0	0	0	507	412	
15	0	0	0	0	511	411	
0	0	0	0	0	512	412	
1	0	0	0	0	512	417	
2	0	0	0	0	508	411	
3	0	0	0	0	501	412	
4	0	0	0	0	492	411	
5	0	0	0	0	483	406	
6	0	0	0	0	476	412	
7	0	0	0	0	472	412	
8	0	0	0	0	470	412	
9	0	0	0	0	473	416	
10	0	0	0	0	478	412	
11	0	0	0	0	485	412	
12	0	0	0	0	494	411	
13	0	0	0	0	503	407	
14	0	0	0	0	511	411	
15	0	0	0	0	519	412	
0	0	0	0	0	525	412	
1	0	0	0	0	530	416	
2	0	0	0	0	534	411	
3	0	0	0	0	536	412	
4	0	0	0	0	537	411	
5	0	0	0	0	537	406	
6	0	0	0	0	533	412	
7	0	0	0	0	527	411	
8	0	0	0	0	518	412	
9	0	0	0	0	509	417	
10	0	0	0	0	502	411	
11	0	0	0	0	497	412	
12	0	0	0	0	495	412	
13	0	0	0	0	496	407	
14	0	0	0	0	499	412	
15	0	0	0	0	505	411	
0	0	0	0	0	514	412	
1	0	0	0	0	524	416	
2	0	0	0	0	533	411	
3	0	0	0	0	539	411	
4	0	0	0	0	543	411	
5	0	0	0	0	547	405	
6	0	0	0	0	550	412	
7	0	0	0	0	550	411	
8	0	0	0	0	548	411	
9	0	0	0	0	546	416	
10	0	0	0	0	540	411	
11	0	0	0	0	532	411	
12	0	0	0	0	523	410	
13	0	0	0	0	515	406	
14	0	0	0	0	509	412	
15	0	0	0	0	504	411	
0	0	0	0	0	504	411	
1	0	0	0	0	505	417	
2	0	0	0	0	511	411	
3	0	0	0	0	518	411	
4	0	0	0	0	526	412	
5	0	0	0	0	536	407	
6	0	0	0	0	543	411	
7	0	0	0	0	550	411	
8	0	0	0	0	554	413	
9	0	0	0	0	556	417	
10	0	0	0	0	556	413	
11	0	0	0	0	554	413	
12	0	0	0	0	551	413	
13	0	0	0	0	548	407	
14	0	0	0	0	543	413	
15	0	0	0	0	534	413	
0	0	0	0	0	524	414	
1	0	0	0	0	515	418	
2	0	0	0	0	509	414	
3	0	0	0	0	504	413	
4	0	0	0	0	503	413	
5	0	0	0	0	504	409	
6	0	0	0	0	509	414	
7	0	0	0	0	516	413	
8	0	0	0	0	525	414	
9	0	0	0	0	535	419	
10	0	0	0	0	543	415	
11	0	0	0	0	550	415	
12	0	0	0	0	555	414	
13	0	0	0	0	559	408	
14	0	0	0	0	561	414	
15	0	0	0	0	561	414	
0	0	0	0	0	559	414	
1	0	0	0	0	555	419	
2	0	0	0	0	549	413	
3	0	0	0	0	539	413	
4	0	0	0	0	528	413	
5	0	0	0	0	518	408	
6	0	0	0	0	510	413	
7	0	0	0	0	503	412	
8	0	0	0	0	500	413	
9	0	0	0	0	501	418	
10	0	0	0	0	505	413	
11	0	0	0	0	511	412	
12	0	0	0	0	519	413	
13	0	0	0	0	528	408	
14	0	0	0	0	537	413	
15	0	0	0	0	543	413	
0	0	0	0	0	548	413	
1	0	0	0	0	552	418	
2	0	0	0	0	554	413	
3	0	0	0	0	553	413	
4	0	0	0	0	551	413	
5	0	0	0	0	548	408	
6	0	0	0	0	541	413	
7	0	0	0	0	531	414	
8	0	0	0	0	519	414	
9	0	0	0	0	509	418	
10	0	0	0	0	500	413	
11	0	0	0	0	494	413	
12	0	0	0	0	491	413	
13	0	0	0	0	492	408	
14	0	0	0	0	496	413	
15	0	0	0	0	502	413	
0	0	0	0	0	510	412	
1	0	0	0	0	519	417	
2	0	0	0	0	528	412	
3	0	0	0	0	536	412	
4	0	0	0	0	543	412	
5	0	0	0	0	547	407	
6	0	0	0	0	549	412	
7	0	0	0	0	550	412	
8	0	0	0	0	548	412	
9	0	0	0	0	546	417	
10	0	0	0	0	541	412	
11	0	0	0	0	532	412	
12	0	0	0	0	522	412	
13	0	0	0	0	512	407	
14	0	0	0	0	505	412	
15	0	0	0	0	500	412	
0	0	0	0	0	497	413	
1	0	0	0	0	498	417	
2	0	0	0	0	502	413	
3	0	0	0	0	508	412	
4	0	0	0	0	516	413	
5	0	0	0	0	525	407	
6	0	0	0	0	532	413	
7	0	0	0	0	539	413	
8	0	0	0	0	543	412	
9	0	0	0	0	547	417	
10	0	0	0	0	548	413	
11	0	0	0	0	548	413	
12	0	0	0	0	547	412	
13	0	0	0	0	544	407	
14	0	0	0	0	539	413	
15	0	0	0	0	530	413	
0	0	0	0	0	519	413	
1	0	0	0	0	510	417	
2	0	0	0	0	503	413	
3	0	0	0	0	496	413	
4	0	0	0	0	493	413	
5	0	0	0	0	493	408	
6	0	0	0	0	497	413	
7	0	0	0	0	504	414	
8	0	0	0	0	512	413	
9	0	0	0	0	523	418	
10	0	0	0	0	533	412	
11	0	0	0	0	542	413	
12	0	0	0	0	548	413	
13	0	0	0	0	554	408	
14	0	0	0	0	558	413	
15	0	0	0	0	559	413	
0	0	0	0	0	559	413	
1	0	0	0	0	557	417	
2	0	0	0	0	551	413	
3	0	0	0	0	542	412	
4	0	0	0	0	531	413	
5	0	0	0	0	520	407	
6	0	0	0	0	512	412	
7	0	0	0	0	506	412	
8	0	0	0	0	503	412	
9	0	0	0	0	504	416	
10	0	0	0	0	508	412	
11	0	0	0	0	513	412	
12	0	0	0	0	522	412	
13	0	0	0	0	532	407	
14	0	0	0	0	542	412	
15	0	0	0	0	549	412	
0	0	0	0	0	555	412	
1	0	0	0	0	559	416	
2	0	0	0	0	561	411	
3	0	0	0	0	561	412	
4	0	0	0	0	560	411	
5	0	0	0	0	557	406	
6	0	0	0	0	551	411	
7	0	0	0	0	542	411	
8	0	0	0	0	531	411	
9	0	0	0	0	522	415	
10	0	0	0	0	515	411	
11	0	0	0	0	509	411	
12	0	0	0	0	505	410	
13	0	0	0	0	506	405	
14	0	0	0	0	510	411	
15	0	0	0	0	516	411	
0	0	0	0	0	524	411	
1	0	0	0	0	534	415	
2	0	0	0	0	541	410	
3	0	0	0	0	548	410	
4	0	0	0	0	553	410	
5	0	0	0	0	556	405	
6	0	0	0	0	557	410	
7	0	0	0	0	556	410	
8	0	0	0	0	554	411	
9	0	0	0	0	550	415	
10	0	0	0	0	543	409	
11	0	0	0	0	532	410	
12	0	0	0	0	520	409	
13	0	0	0	0	509	404	
14	0	0	0	0	498	409	
15	0	0	0	0	490	409	
0	0	0	0	0	486	410	
1	0	0	0	0	484	414	
2	0	0	0	0	487	409	
3	0	0	0	0	492	409	
4	0	0	0	0	499	409	
5	0	0	0	0	507	404	
6	0	0	0	0	514	409	
7	0	0	0	0	521	409	
8	0	0	0	0	525	408	
9	0	0	0	0	528	413	
10	0	0	0	0	530	409	
11	0	0	0	0	529	408	
12	0	0	0	0	527	408	
13	0	0	0	0	523	403	
14	0	0	0	0	515	409	
15	0	0	0	0	504	408	
0	0	0	0	0	492	409	
1	0	0	0	0	481	413	
2	0	0	0	0	471	408	
3	0	0	0	0	463	408	
4	0	0	0	0	459	408	
5	0	0	0	0	459	403	
6	0	0	0	0	462	408	
7	0	0	0	0	467	408	
8	0	0	0	0	475	409	
9	0	0	0	0	483	413	
10	0	0	0	0	491	408	
11	0	0	0	0	498	408	
12	0	0	0	0	503	409	
13	0	0	0	0	507	403	
14	0	0	0	0	508	408	
15	0	0	0	0	508	409	
0	0	0	0	0	507	408	
1	0	0	0	0	504	414	
2	0	0	0	0	497	409	
3	0	0	0	0	488	409	
4	0	0	0	0	477	409	
5	0	0	0	0	466	403	
6	0	0	0	0	458	409	
7	0	0	0	0	451	409	
8	0	0	0	0	448	409	
9	0	0	0	0	448	415	
10	0	0	0	0	452	409	
11	0	0	0	0	459	409	
12	0	0	0	0	468	409	
13	0	0	0	0	477	404	
14	0	0	0	0	486	410	
15	0	0	0	0	494	409	
0	0	0	0	0	500	410	
1	0	0	0	0	505	414	
2	0	0	0	0	508	409	
3	0	0	0	0	509	410	
4	0	0	0	0	508	410	
5	0	0	0	0	505	405	
6	0	0	0	0	499	410	
7	0	0	0	0	491	410	
8	0	0	0	0	480	410	
9	0	0	0	0	470	415	
10	0	0	0	0	462	410	
11	0	0	0	0	456	410	
12	0	0	0	0	454	410	
13	0	0	0	0	454	404	
14	0	0	0	0	459	409	
15	0	0	0	0	466	409	
0	0	0	0	0	475	411	
1	0	0	0	0	484	415	
2	0	0	0	0	495	410	
3	0	0	0	0	503	410	
4	0	0	0	0	508	410	
5	0	0	0	0	513	405	
6	0	0	0	0	515	409	
7	0	0	0	0	515	409	
8	0	0	0	0	515	410	
9	0	0	0	0	512	414	
10	0	0	0	0	506	410	
11	0	0	0	0	497	409	
12	0	0	0	0	487	409	
13	0	0	0	0	477	404	
14	0	0	0	0	468	409	
15	0	0	0	0	462	409	
0	0	0	0	0	459	410	
1	0	0	0	0	460	415	
2	0	0	0	0	464	409	
3	0	0	0	0	470	410	
4	0	0	0	0	478	410	
5	0	0	0	0	488	405	
6	0	0	0	0	497	410	
7	0	0	0	0	504	409	
8	0	0	0	0	510	410	
9	0	0	0	0	514	415	
10	0	0	0	0	517	409	
11	0	0	0	0	518	409	
12	0	0	0	0	517	410	
13	0	0	0	0	515	405	
14	0	0	0	0	508	410	
15	0	0	0	0	499	410	
0	0	0	0	0	488	411	
1	0	0	0	0	478	415	
2	0	0	0	0	470	410	
3	0	0	0	0	464	410	
4	0	0	0	0	462	409	
5	0	0	0	0	463	405	
6	0	0	0	0	467	410	
7	0	0	0	0	475	410	
8	0	0	0	0	484	411	
9	0	0	0	0	493	415	
10	0	0	0	0	502	411	
11	0	0	0	0	510	411	
12	0	0	0	0	515	410	
13	0	0	0	0	519	406	
14	0	0	0	0	521	411	
15	0	0	0	0	522	410	
0	0	0	0	0	521	411	
1	0	0	0	0	518	416	
2	0	0	0	0	512	411	
3	0	0	0	0	503	411	
4	0	0	0	0	493	411	
5	0	0	0	0	484	406	
6	0	0	0	0	476	411	
7	0	0	0	0	470	411	
8	0	0	0	0	467	412	
9	0	0	0	0	467	417	
10	0	0	0	0	472	412	
11	0	0	0	0	478	412	
12	0	0	0	0	486	411	
13	0	0	0	0	495	406	
14	0	0	0	0	504	412	
15	0	0	0	0	511	412	
0	0	0	0	0	516	412	
1	0	0	0	0	520	416	
2	0	0	0	0	522	412	
3	0	0	0	0	523	412	
4	0	0	0	0	521	412	
5	0	0	0	0	519	407	
6	0	0	0	0	513	412	
7	0	0	0	0	505	412	
8	0	0	0	0	494	412	
9	0	0	0	0	483	417	
10	0	0	0	0	475	413	
11	0	0	0	0	469	412	
12	0	0	0	0	467	412	
13	0	0	0	0	467	407	
14	0	0	0	0	471	413	
15	0	0	0	0	477	412	
0	0	0	0	0	486	412	
1	0	0	0	0	494	416	
2	0	0	0	0	503	412	
3	0	0	0	0	510	412	
4	0	0	0	0	515	412	
5	0	0	0	0	519	407	
6	0	0	0	0	522	412	
7	0	0	0	0	523	411	
8	0	0	0	0	523	411	
9	0	0	0	0	521	416	
10	0	0	0	0	515	412	
11	0	0	0	0	507	411	
12	0	0	0	0	496	411	
13	0	0	0	0	486	405	
14	0	0	0	0	478	410	
15	0	0	0	0	472	410	
0	0	0	0	0	469	411	
1	0	0	0	0	471	415	
2	0	0	0	0	475	411	
3	0	0	0	0	481	410	
4	0	0	0	0	490	410	
5	0	0	0	0	499	405	
6	0	0	0	0	507	411	
7	0	0	0	0	514	411	
8	0	0	0	0	519	411	
9	0	0	0	0	523	415	
10	0	0	0	0	526	410	
11	0	0	0	0	526	410	
12	0	0	0	0	525	410	
13	0	0	0	0	522	405	
14	0	0	0	0	516	411	
15	0	0	0	0	508	411	
0	0	0	0	0	497	411	
1	0	0	0	0	488	415	
2	0	0	0	0	480	411	
3	0	0	0	0	475	411	
4	0	0	0	0	472	410	
5	0	0	0	0	473	405	
6	0	0	0	0	478	411	
7	0	0	0	0	484	411	
8	0	0	0	0	493	411	
9	0	0	0	0	502	415	
10	0	0	0	0	511	411	
11	0	0	0	0	518	411	
12	0	0	0	0	523	411	
13	0	0	0	0	527	405	
14	0	0	0	0	529	411	
15	0	0	0	0	529	411	
0	0	0	0	0	528	411	
1	0	0	0	0	526	416	
2	0	0	0	0	520	411	
3	0	0	0	0	511	410	
4	0	0	0	0	500	410	
5	0	0	0	0	490	405	
6	0	0	0	0	482	410	
7	0	0	0	0	476	410	
8	0	0	0	0	473	410	
9	0	0	0	0	473	415	
10	0	0	0	0	477	411	
11	0	0	0	0	483	410	
12	0	0	0	0	492	411	
13	0	0	0	0	501	405	
14	0	0	0	0	510	411	
15	0	0	0	0	517	410	
0	0	0	0	0	523	411	
1	0	0	0	0	526	415	
2	0	0	0	0	528	411	
3	0	0	0	0	528	411	
4	0	0	0	0	527	410	
5	0	0	0	0	524	405	
6	0	0	0	0	518	410	
7	0	0	0	0	509	411	
8	0	0	0	0	497	410	
9	0	0	0	0	486	415	
10	0	0	0	0	477	410	
11	0	0	0	0	470	409	
12	0	0	0	0	466	410	
13	0	0	0	0	467	405	
14	0	0	0	0	470	410	
15	0	0	0	0	476	410	
0	0	0	0	0	484	410	
1	0	0	0	0	493	415	
2	0	0	0	0	503	410	
3	0	0	0	0	510	411	
4	0	0	0	0	515	411	
5	0	0	0	0	519	405	
6	0	0	0	0	521	411	
7	0	0	0	0	523	411	
8	0	0	0	0	522	411	
9	0	0	0	0	521	415	
10	0	0	0	0	516	411	
11	0	0	0	0	508	412	
12	0	0	0	0	497	410	
13	0	0	0	0	488	406	
14	0	0	0	0	480	411	
15	0	0	0	0	474	411	
0	0	0	0	0	472	411	
1	0	0	0	0	473	416	
2	0	0	0	0	479	411	
3	0	0	0	0	486	411	
4	0	0	0	0	495	411	
5	0	0	0	0	505	406	
6	0	0	0	0	514	412	
7	0	0	0	0	521	411	
8	0	0	0	0	527	412	
9	0	0	0	0	532	416	
10	0	0	0	0	534	411	
11	0	0	0	0	534	411	
12	0	0	0	0	532	411	
13	0	0	0	0	528	406	
14	0	0	0	0	523	412	
15	0	0	0	0	513	411	
0	0	0	0	0	503	412	
1	0	0	0	0	493	416	
2	0	0	0	0	486	412	
3	0	0	0	0	480	412	
4	0	0	0	0	478	410	
5	0	0	0	0	479	406	
6	0	0	0	0	484	411	
7	0	0	0	0	491	411	
8	0	0	0	0	500	410	
9	0	0	0	0	510	415	
10	0	0	0	0	520	410	
11	0	0	0	0	527	410	
12	0	0	0	0	533	410	
13	0	0	0	0	537	405	
14	0	0	0	0	540	411	
15	0	0	0	0	541	410	
0	0	0	0	0	540	411	
1	0	0	0	0	537	415	
2	0	0	0	0	531	410	
3	0	0	0	0	522	410	
4	0	0	0	0	512	410	
5	0	0	0	0	502	405	
6	0	0	0	0	493	411	
7	0	0	0	0	487	410	
8	0	0	0	0	483	410	
9	0	0	0	0	484	415	
10	0	0	0	0	487	410	
11	0	0	0	0	493	411	
12	0	0	0	0	501	410	
13	0	0	0	0	510	405	
14	0	0	0	0	518	411	
15	0	0	0	0	526	410	
0	0	0	0	0	531	411	
1	0	0	0	0	535	415	
2	0	0	0	0	536	410	
3	0	0	0	0	536	410	
4	0	0	0	0	536	410	
5	0	0	0	0	532	405	
6	0	0	0	0	526	410	
7	0	0	0	0	517	410	
8	0	0	0	0	506	411	
9	0	0	0	0	497	415	
10	0	0	0	0	489	410	
11	0	0	0	0	482	411	
12	0	0	0	0	480	409	
13	0	0	0	0	480	406	
14	0	0	0	0	485	410	
15	0	0	0	0	491	410	
0	0	0	0	0	499	410	
1	0	0	0	0	508	415	
2	0	0	0	0	518	411	
3	0	0	0	0	525	412	
4	0	0	0	0	530	411	
5	0	0	0	0	535	406	
6	0	0	0	0	537	411	
7	0	0	0	0	537	411	
8	0	0	0	0	536	411	
9	0	0	0	0	534	416	
10	0	0	0	0	528	411	
11	0	0	0	0	519	411	
12	0	0	0	0	508	411	
13	0	0	0	0	497	406	
14	0	0	0	0	488	411	
15	0	0	0	0	481	411	
0	0	0	0	0	479	411	
1	0	0	0	0	480	416	
2	0	0	0	0	484	411	
3	0	0	0	0	490	412	
4	0	0	0	0	499	412	
5	0	0	0	0	508	407	
6	0	0	0	0	516	412	
7	0	0	0	0	523	411	
8	0	0	0	0	528	411	
9	0	0	0	0	533	416	
10	0	0	0	0	535	411	
11	0	0	0	0	535	412	
12	0	0	0	0	534	411	
13	0	0	0	0	532	406	
14	0	0	0	0	526	412	
15	0	0	0	0	516	411	
0	0	0	0	0	504	411	
1	0	0	0	0	495	415	
2	0	0	0	0	487	411	
3	0	0	0	0	480	410	
4	0	0	0	0	477	410	
5	0	0	0	0	478	405	
6	0	0	0	0	482	410	
7	0	0	0	0	489	410	
8	0	0	0	0	497	411	
9	0	0	0	0	506	415	
10	0	0	0	0	515	409	
11	0	0	0	0	523	410	
12	0	0	0	0	528	409	
13	0	0	0	0	533	404	
14	0	0	0	0	536	409	
15	0	0	0	0	536	409	
0	0	0	0	0	535	410	
1	0	0	0	0	532	415	
2	0	0	0	0	527	409	
3	0	0	0	0	518	409	
4	0	0	0	0	507	409	
5	0	0	0	0	497	404	
6	0	0	0	0	489	409	
7	0	0	0	0	483	410	
8	0	0	0	0	480	409	
9	0	0	0	0	480	415	
10	0	0	0	0	484	409	
11	0	0	0	0	491	409	
12	0	0	0	0	499	409	
13	0	0	0	0	508	404	
14	0	0	0	0	516	409	
15	0	0	0	0	524	410	
0	0	0	0	0	528	410	
1	0	0	0	0	532	415	
2	0	0	0	0	534	409	
3	0	0	0	0	534	410	
4	0	0	0	0	532	409	
5	0	0	0	0	529	404	
6	0	0	0	0	523	409	
7	0	0	0	0	512	410	
8	0	0	0	0	499	410	
9	0	0	0	0	486	415	
10	0	0	0	0	476	410	
11	0	0	0	0	467	410	
12	0	0	0	0	461	411	
13	0	0	0	0	459	405	
14	0	0	0	0	459	410	
15	0	0	0	0	463	411	
0	0	0	0	0	468	411	
1	0	0	0	0	473	415	
2	0	0	0	0	476	410	
3	0	0	0	0	478	410	
4	0	0	0	0	480	410	
5	0	0	0	0	480	406	
6	0	0	0	0	479	411	
7	0	0	0	0	476	411	
8	0	0	0	0	471	411	
9	0	0	0	0	465	415	
10	0	0	0	0	457	411	
11	0	0	0	0	447	410	
12	0	0	0	0	436	410	
13	0	0	0	0	424	405	
14	0	0	0	0	415	410	
15	0	0	0	0	408	410	
0	0	0	0	0	404	410	
1	0	0	0	0	406	415	
2	0	0	0	0	412	409	
3	0	0	0	0	423	410	
4	0	0	0	0	439	409	
5	0	0	0	0	459	404	
6	0	0	0	0	481	409	
7	0	0	0	0	504	409	
8	0	0	0	0	527	410	
9	0	0	0	0	551	414	
10	0	0	0	0	573	409	
11	0	0	0	0	592	410	
12	0	0	0	0	609	409	
13	0	0	0	0	624	404	
14	0	0	0	0	634	409	
15	0	0	0	0	638	409	
0	0	0	0	0	636	409	
1	0	0	0	0	631	414	
2	0	0	0	0	624	409	
3	0	0	0	0	615	411	
4	0	0	0	0	608	410	
5	0	0	0	0	605	405	
6	0	0	0	0	604	411	
7	0	0	0	0	606	410	
8	0	0	0	0	608	411	
9	0	0	0	0	609	415	
10	0	0	0	0	609	410	
11	0	0	0	0	606	411	
12	0	0	0	0	600	411	
13	0	0	0	0	591	405	
14	0	0	0	0	580	410	
15	0	0	0	0	568	411	
0	0	0	0	0	556	411	
1	0	0	0	0	543	416	
2	0	0	0	0	527	411	
3	0	0	0	0	508	411	
4	0	0	0	0	488	411	
5	0	0	0	0	470	406	
6	0	0	0	0	455	412	
7	0	0	0	0	443	412	
8	0	0	0	0	435	412	
9	0	0	0	0	433	416	
10	0	0	0	0	433	412	
11	0	0	0	0	437	412	
12	0	0	0	0	443	411	
13	0	0	0	0	450	406	
14	0	0	0	0	457	411	
15	0	0	0	0	464	412	
0	0	0	0	0	471	412	
1	0	0	0	0	477	415	
2	0	0	0	0	481	411	
3	0	0	0	0	485	411	
4	0	0	0	0	487	411	
5	0	0	0	0	487	406	
6	0	0	0	0	483	411	
7	0	0	0	0	478	411	
8	0	0	0	0	471	411	
9	0	0	0	0	464	415	
10	0	0	0	0	459	410	
11	0	0	0	0	456	410	
12	0	0	0	0	456	411	
13	0	0	0	0	459	405	
14	0	0	0	0	464	411	
15	0	0	0	0	472	410	
0	0	0	0	0	482	411	
1	0	0	0	0	492	415	
2	0	0	0	0	501	410	
3	0	0	0	0	508	410	
4	0	0	0	0	514	409	
5	0	0	0	0	518	404	
6	0	0	0	0	521	410	
7	0	0	0	0	522	410	
8	0	0	0	0	521	410	
9	0	0	0	0	518	415	
10	0	0	0	0	512	410	
11	0	0	0	0	503	410	
12	0	0	0	0	492	410	
13	0	0	0	0	483	405	
14	0	0	0	0	476	410	
15	0	0	0	0	471	410	
0	0	0	0	0	468	411	
1	0	0	0	0	471	415	
2	0	0	0	0	476	410	
3	0	0	0	0	484	410	
4	0	0	0	0	493	410	
5	0	0	0	0	504	404	
6	0	0	0	0	514	411	
7	0	0	0	0	524	411	
8	0	0	0	0	531	411	
9	0	0	0	0	536	416	
10	0	0	0	0	540	411	
11	0	0	0	0	541	411	
12	0	0	0	0	541	410	
13	0	0	0	0	539	406	
14	0	0	0	0	533	411	
15	0	0	0	0	525	412	
0	0	0	0	0	515	412	
1	0	0	0	0	505	416	
2	0	0	0	0	497	412	
3	0	0	0	0	492	412	
4	0	0	0	0	489	411	
5	0	0	0	0	490	407	
6	0	0	0	0	494	412	
7	0	0	0	0	501	412	
8	0	0	0	0	510	412	
9	0	0	0	0	519	417	
10	0	0	0	0	529	412	
11	0	0	0	0	536	412	
12	0	0	0	0	542	412	
13	0	0	0	0	546	407	
14	0	0	0	0	548	412	
15	0	0	0	0	548	412	
0	0	0	0	0	547	412	
1	0	0	0	0	544	417	
2	0	0	0	0	539	412	
3	0	0	0	0	529	412	
4	0	0	0	0	519	411	
5	0	0	0	0	509	406	
6	0	0	0	0	501	412	
7	0	0	0	0	495	412	
8	0	0	0	0	492	412	
9	0	0	0	0	493	416	
10	0	0	0	0	497	411	
11	0	0	0	0	503	411	
12	0	0	0	0	512	410	
13	0	0	0	0	521	406	
14	0	0	0	0	530	411	
15	0	0	0	0	537	411	
0	0	0	0	0	543	411	
1	0	0	0	0	547	415	
2	0	0	0	0	549	411	
3	0	0	0	0	550	410	
4	0	0	0	0	548	410	
5	0	0	0	0	545	406	
6	0	0	0	0	540	411	
7	0	0	0	0	531	411	
8	0	0	0	0	520	412	
9	0	0	0	0	511	416	
10	0	0	0	0	502	412	
11	0	0	0	0	496	412	
12	0	0	0	0	493	411	
13	0	0	0	0	494	406	
14	0	0	0	0	498	411	
15	0	0	0	0	505	411	
0	0	0	0	0	513	412	
1	0	0	0	0	522	416	
2	0	0	0	0	531	411	
3	0	0	0	0	538	412	
4	0	0	0	0	543	411	
5	0	0	0	0	547	406	
6	0	0	0	0	549	411	
7	0	0	0	0	549	411	
8	0	0	0	0	547	411	
9	0	0	0	0	545	417	
10	0	0	0	0	539	411	
11	0	0	0	0	530	411	
12	0	0	0	0	519	411	
13	0	0	0	0	509	405	
14	0	0	0	0	501	411	
15	0	0	0	0	495	411	
0	0	0	0	0	492	411	
1	0	0	0	0	492	416	
2	0	0	0	0	496	411	
3	0	0	0	0	503	411	
4	0	0	0	0	511	410	
5	0	0	0	0	520	406	
6	0	0	0	0	529	410	
7	0	0	0	0	536	411	
8	0	0	0	0	541	411	
9	0	0	0	0	544	416	
10	0	0	0	0	547	412	
11	0	0	0	0	547	411	
12	0	0	0	0	546	411	
13	0	0	0	0	543	406	
14	0	0	0	0	537	411	
15	0	0	0	0	528	411	
0	0	0	0	0	518	411	
1	0	0	0	0	507	415	
2	0	0	0	0	499	411	
3	0	0	0	0	493	411	
4	0	0	0	0	489	411	
5	0	0	0	0	490	406	
6	0	0	0	0	493	410	
7	0	0	0	0	499	411	
8	0	0	0	0	508	411	
9	0	0	0	0	517	415	
10	0	0	0	0	525	411	
11	0	0	0	0	532	410	
12	0	0	0	0	538	411	
13	0	0	0	0	542	405	
14	0	0	0	0	544	410	
15	0	0	0	0	544	409	
0	0	0	0	0	543	410	
1	0	0	0	0	540	415	
2	0	0	0	0	534	410	
3	0	0	0	0	525	410	
4	0	0	0	0	514	410	
5	0	0	0	0	504	405	
6	0	0	0	0	496	411	
7	0	0	0	0	491	411	
8	0	0	0	0	487	411	
9	0	0	0	0	489	415	
10	0	0	0	0	493	411	
11	0	0	0	0	499	411	
12	0	0	0	0	508	411	
13	0	0	0	0	518	406	
14	0	0	0	0	526	411	
15	0	0	0	0	534	411	
0	0	0	0	0	540	411	
1	0	0	0	0	544	415	
2	0	0	0	0	546	411	
3	0	0	0	0	547	411	
4	0	0	0	0	546	411	
5	0	0	0	0	543	406	
6	0	0	0	0	537	411	
7	0	0	0	0	528	411	
8	0	0	0	0	518	412	
9	0	0	0	0	508	415	
10	0	0	0	0	500	411	
11	0	0	0	0	494	411	
12	0	0	0	0	492	411	
13	0	0	0	0	492	406	
14	0	0	0	0	496	411	
15	0	0	0	0	503	411	
0	0	0	0	0	511	411	
1	0	0	0	0	519	415	
2	0	0	0	0	528	410	
3	0	0	0	0	535	411	
4	0	0	0	0	541	410	
5	0	0	0	0	545	405	
6	0	0	0	0	547	409	
7	0	0	0	0	547	411	
8	0	0	0	0	547	410	
9	0	0	0	0	546	414	
10	0	0	0	0	541	410	
11	0	0	0	0	533	410	
12	0	0	0	0	522	410	
13	0	0	0	0	512	405	
14	0	0	0	0	505	411	
15	0	0	0	0	499	411	
0	0	0	0	0	496	411	
1	0	0	0	0	497	416	
2	0	0	0	0	502	410	
3	0	0	0	0	509	410	
4	0	0	0	0	517	410	
5	0	0	0	0	527	405	
6	0	0	0	0	537	410	
7	0	0	0	0	545	411	
8	0	0	0	0	551	411	
9	0	0	0	0	555	415	
10	0	0	0	0	557	410	
11	0	0	0	0	557	411	
12	0	0	0	0	556	411	
13	0	0	0	0	553	406	
14	0	0	0	0	548	411	
15	0	0	0	0	538	410	
0	0	0	0	0	527	411	
1	0	0	0	0	517	416	
2	0	0	0	0	509	410	
3	0	0	0	0	503	410	
4	0	0	0	0	499	411	
5	0	0	0	0	498	406	
6	0	0	0	0	501	412	
7	0	0	0	0	507	411	
8	0	0	0	0	515	411	
9	0	0	0	0	524	416	
10	0	0	0	0	531	411	
11	0	0	0	0	537	410	
12	0	0	0	0	541	410	
13	0	0	0	0	544	405	
14	0	0	0	0	545	411	
15	0	0	0	0	544	411	
0	0	0	0	0	542	411	
1	0	0	0	0	538	415	
2	0	0	0	0	531	411	
3	0	0	0	0	520	411	
4	0	0	0	0	509	411	
5	0	0	0	0	498	406	
6	0	0	0	0	489	410	
7	0	0	0	0	481	411	
8	0	0	0	0	477	412	
9	0	0	0	0	477	415	
10	0	0	0	0	480	410	
11	0	0	0	0	485	411	
12	0	0	0	0	492	410	
13	0	0	0	0	500	405	
14	0	0	0	0	507	409	
15	0	0	0	0	512	411	
0	0	0	0	0	517	411	
1	0	0	0	0	519	415	
2	0	0	0	0	521	409	
3	0	0	0	0	521	409	
4	0	0	0	0	519	409	
5	0	0	0	0	515	404	
6	0	0	0	0	509	409	
7	0	0	0	0	499	409	
8	0	0	0	0	487	408	
9	0	0	0	0	476	414	
10	0	0	0	0	467	409	
11	0	0	0	0	460	409	
12	0	0	0	0	457	408	
13	0	0	0	0	458	403	
14	0	0	0	0	462	409	
15	0	0	0	0	468	409	
0	0	0	0	0	476	408	
1	0	0	0	0	486	414	
2	0	0	0	0	495	409	
3	0	0	0	0	502	409	
4	0	0	0	0	507	408	
5	0	0	0	0	511	404	
6	0	0	0	0	514	409	
7	0	0	0	0	515	408	
8	0	0	0	0	514	409	
9	0	0	0	0	511	414	
10	0	0	0	0	505	408	
11	0	0	0	0	496	409	
12	0	0	0	0	485	409	
13	0	0	0	0	476	403	
14	0	0	0	0	467	409	
15	0	0	0	0	461	409	
0	0	0	0	0	459	410	
1	0	0	0	0	460	414	
2	0	0	0	0	464	410	
3	0	0	0	0	471	410	
4	0	0	0	0	480	409	
5	0	0	0	0	490	405	
6	0	0	0	0	499	411	
7	0	0	0	0	507	410	
8	0	0	0	0	513	411	
9	0	0	0	0	518	415	
10	0	0	0	0	521	410	
11	0	0	0	0	522	410	
12	0	0	0	0	522	410	
13	0	0	0	0	519	405	
14	0	0	0	0	513	409	
15	0	0	0	0	504	410	
0	0	0	0	0	494	410	
1	0	0	0	0	484	415	
2	0	0	0	0	476	410	
3	0	0	0	0	469	410	
4	0	0	0	0	467	410	
5	0	0	0	0	467	404	
6	0	0	0	0	472	410	
7	0	0	0	0	479	410	
8	0	0	0	0	487	410	
9	0	0	0	0	495	415	
10	0	0	0	0	504	410	
11	0	0	0	0	510	410	
12	0	0	0	0	516	409	
13	0	0	0	0	520	404	
14	0	0	0	0	523	409	
15	0	0	0	0	524	410	
0	0	0	0	0	523	410	
1	0	0	0	0	520	415	
2	0	0	0	0	515	409	
3	0	0	0	0	506	409	
4	0	0	0	0	495	409	
5	0	0	0	0	485	404	
6	0	0	0	0	476	410	
7	0	0	0	0	471	410	
8	0	0	0	0	468	411	
9	0	0	0	0	468	415	
10	0	0	0	0	473	410	
11	0	0	0	0	480	410	
12	0	0	0	0	489	410	
13	0	0	0	0	499	405	
14	0	0	0	0	508	410	
15	0	0	0	0	515	410	
0	0	0	0	0	520	411	
1	0	0	0	0	524	415	
2	0	0	0	0	526	411	
3	0	0	0	0	527	411	
4	0	0	0	0	525	411	
5	0	0	0	0	522	405	
6	0	0	0	0	516	410	
7	0	0	0	0	507	411	
8	0	0	0	0	497	412	
9	0	0	0	0	487	416	
10	0	0	0	0	480	411	
11	0	0	0	0	473	410	
12	0	0	0	0	471	411	
13	0	0	0	0	471	406	
14	0	0	0	0	476	411	
15	0	0	0	0	482	411	
0	0	0	0	0	492	411	
1	0	0	0	0	501	415	
2	0	0	0	0	510	411	
3	0	0	0	0	517	411	
4	0	0	0	0	522	411	
5	0	0	0	0	526	406	
6	0	0	0	0	528	412	
7	0	0	0	0	528	412	
8	0	0	0	0	526	412	
9	0	0	0	0	523	416	
10	0	0	0	0	518	412	
11	0	0	0	0	509	412	
12	0	0	0	0	498	411	
13	0	0	0	0	488	407	
14	0	0	0	0	480	412	
15	0	0	0	0	474	412	
0	0	0	0	0	471	413	
1	0	0	0	0	472	417	
2	0	0	0	0	476	412	
3	0	0	0	0	483	413	
4	0	0	0	0	491	412	
5	0	0	0	0	500	408	
6	0	0	0	0	508	413	
7	0	0	0	0	515	413	
8	0	0	0	0	521	412	
9	0	0	0	0	525	417	
10	0	0	0	0	527	413	
11	0	0	0	0	528	413	
12	0	0	0	0	527	413	
13	0	0	0	0	524	408	
14	0	0	0	0	519	413	
15	0	0	0	0	510	413	
0	0	0	0	0	499	413	
1	0	0	0	0	490	418	
2	0	0	0	0	482	413	
3	0	0	0	0	476	413	
4	0	0	0	0	473	414	
5	0	0	0	0	473	408	
6	0	0	0	0	477	414	
7	0	0	0	0	484	414	
8	0	0	0	0	493	415	
9	0	0	0	0	503	419	
10	0	0	0	0	511	414	
11	0	0	0	0	518	414	
12	0	0	0	0	523	413	
13	0	0	0	0	527	408	
14	0	0	0	0	530	414	
15	0	0	0	0	529	413	
0	0	0	0	0	528	413	
1	0	0	0	0	526	418	
2	0	0	0	0	520	412	
3	0	0	0	0	511	413	
4	0	0	0	0	501	413	
5	0	0	0	0	492	407	
6	0	0	0	0	483	412	
7	0	0	0	0	479	412	
8	0	0	0	0	475	413	
9	0	0	0	0	476	416	
10	0	0	0	0	480	412	
11	0	0	0	0	487	412	
12	0	0	0	0	496	411	
13	0	0	0	0	505	406	
14	0	0	0	0	513	412	
15	0	0	0	0	521	412	
0	0	0	0	0	526	411	
1	0	0	0	0	530	416	
2	0	0	0	0	532	411	
3	0	0	0	0	533	411	
4	0	0	0	0	532	410	
5	0	0	0	0	529	405	
6	0	0	0	0	523	411	
7	0	0	0	0	514	412	
8	0	0	0	0	504	411	
9	0	0	0	0	494	415	
10	0	0	0	0	486	411	
11	0	0	0	0	479	411	
12	0	0	0	0	476	410	
13	0	0	0	0	477	405	
14	0	0	0	0	482	411	
15	0	0	0	0	489	410	
0	0	0	0	0	497	411	
1	0	0	0	0	507	415	
2	0	0	0	0	516	410	
3	0	0	0	0	523	409	
4	0	0	0	0	528	410	
5	0	0	0	0	532	405	
6	0	0	0	0	534	410	
7	0	0	0	0	534	410	
8	0	0	0	0	532	411	
9	0	0	0	0	529	415	
10	0	0	0	0	523	409	
11	0	0	0	0	514	410	
12	0	0	0	0	503	409	
13	0	0	0	0	493	404	
14	0	0	0	0	485	409	
15	0	0	0	0	479	409	
0	0	0	0	0	476	409	
1	0	0	0	0	477	414	
2	0	0	0	0	481	409	
3	0	0	0	0	487	409	
4	0	0	0	0	495	410	
5	0	0	0	0	504	405	
6	0	0	0	0	512	409	
7	0	0	0	0	519	410	
8	0	0	0	0	524	410	
9	0	0	0	0	528	415	
10	0	0	0	0	530	410	
11	0	0	0	0	530	409	
12	0	0	0	0	528	409	
13	0	0	0	0	525	404	
14	0	0	0	0	519	410	
15	0	0	0	0	510	410	
0	0	0	0	0	498	410	
1	0	0	0	0	488	415	
2	0	0	0	0	480	410	
3	0	0	0	0	474	410	
4	0	0	0	0	470	409	
5	0	0	0	0	472	405	
6	0	0	0	0	477	410	
7	0	0	0	0	484	410	
8	0	0	0	0	493	410	
9	0	0	0	0	503	415	
10	0	0	0	0	512	410	
11	0	0	0	0	520	410	
12	0	0	0	0	527	410	
13	0	0	0	0	531	405	
14	0	0	0	0	533	410	
15	0	0	0	0	534	410	
0	0	0	0	0	534	411	
1	0	0	0	0	532	415	
2	0	0	0	0	526	410	
3	0	0	0	0	518	410	
4	0	0	0	0	507	411	
5	0	0	0	0	497	405	
6	0	0	0	0	489	411	
7	0	0	0	0	484	412	
8	0	0	0	0	481	411	
9	0	0	0	0	482	416	
10	0	0	0	0	486	411	
11	0	0	0	0	492	411	
12	0	0	0	0	500	411	
13	0	0	0	0	510	406	
14	0	0	0	0	518	411	
15	0	0	0	0	526	411	
0	0	0	0	0	532	411	
1	0	0	0	0	537	415	
2	0	0	0	0	540	411	
3	0	0	0	0	541	412	
4	0	0	0	0	541	411	
5	0	0	0	0	539	405	
6	0	0	0	0	533	411	
7	0	0	0	0	524	411	
8	0	0	0	0	513	411	
9	0	0	0	0	504	415	
10	0	0	0	0	496	411	
11	0	0	0	0	490	411	
12	0	0	0	0	486	411	
13	0	0	0	0	487	405	
14	0	0	0	0	491	411	
15	0	0	0	0	498	411	
0	0	0	0	0	506	410	
1	0	0	0	0	515	416	
2	0	0	0	0	525	411	
3	0	0	0	0	531	411	
4	0	0	0	0	537	410	
5	0	0	0	0	540	405	
6	0	0	0	0	542	411	
7	0	0	0	0	542	411	
8	0	0	0	0	540	412	
9	0	0	0	0	537	415	
10	0	0	0	0	531	411	
11	0	0	0	0	521	411	
12	0	0	0	0	510	411	
13	0	0	0	0	500	406	
14	0	0	0	0	492	411	
15	0	0	0	0	486	411	
0	0	0	0	0	482	412	
1	0	0	0	0	483	416	
2	0	0	0	0	487	412	
3	0	0	0	0	494	411	
4	0	0	0	0	502	411	
5	0	0	0	0	511	406	
6	0	0	0	0	519	411	
7	0	0	0	0	526	411	
8	0	0	0	0	531	411	
9	0	0	0	0	536	416	
10	0	0	0	0	538	412	
11	0	0	0	0	538	412	
12	0	0	0	0	537	412	
13	0	0	0	0	534	407	
14	0	0	0	0	528	412	
15	0	0	0	0	518	412	
0	0	0	0	0	508	412	
1	0	0	0	0	498	417	
2	0	0	0	0	489	413	
3	0	0	0	0	483	412	
4	0	0	0	0	480	412	
5	0	0	0	0	480	407	
6	0	0	0	0	484	413	
7	0	0	0	0	490	413	
8	0	0	0	0	499	412	
9	0	0	0	0	508	417	
10	0	0	0	0	516	412	
11	0	0	0	0	524	412	
12	0	0	0	0	529	412	
13	0	0	0	0	533	407	
14	0	0	0	0	535	413	
15	0	0	0	0	535	413	
0	0	0	0	0	534	412	
1	0	0	0	0	531	417	
2	0	0	0	0	525	412	
3	0	0	0	0	515	412	
4	0	0	0	0	505	412	
5	0	0	0	0	495	407	
6	0	0	0	0	487	412	
7	0	0	0	0	480	412	
8	0	0	0	0	477	412	
9	0	0	0	0	478	417	
10	0	0	0	0	481	412	
11	0	0	0	0	488	412	
12	0	0	0	0	497	411	
13	0	0	0	0	506	405	
14	0	0	0	0	514	411	
15	0	0	0	0	521	411	
0	0	0	0	0	526	412	
1	0	0	0	0	530	416	
2	0	0	0	0	533	412	
3	0	0	0	0	533	411	
4	0	0	0	0	532	411	
5	0	0	0	0	529	406	
6	0	0	0	0	523	411	
7	0	0	0	0	514	412	
8	0	0	0	0	504	412	
9	0	0	0	0	494	416	
10	0	0	0	0	486	411	
11	0	0	0	0	480	412	
12	0	0	0	0	477	411	
13	0	0	0	0	478	406	
14	0	0	0	0	483	411	
15	0	0	0	0	489	411	
0	0	0	0	0	498	410	
1	0	0	0	0	507	415	
2	0	0	0	0	515	411	
3	0	0	0	0	523	411	
4	0	0	0	0	528	411	
5	0	0	0	0	531	405	
6	0	0	0	0	533	410	
7	0	0	0	0	534	410	
8	0	0	0	0	533	410	
9	0	0	0	0	530	415	
10	0	0	0	0	525	410	
11	0	0	0	0	516	409	
12	0	0	0	0	505	409	
13	0	0	0	0	495	405	
14	0	0	0	0	487	411	
15	0	0	0	0	481	411	
0	0	0	0	0	479	411	
1	0	0	0	0	480	415	
2	0	0	0	0	483	411	
3	0	0	0	0	490	411	
4	0	0	0	0	497	411	
5	0	0	0	0	505	405	
6	0	0	0	0	511	410	
7	0	0	0	0	515	411	
8	0	0	0	0	517	411	
9	0	0	0	0	518	416	
10	0	0	0	0	516	410	
11	0	0	0	0	513	410	
12	0	0	0	0	510	411	
13	0	0	0	0	504	405	
14	0	0	0	0	495	410	
15	0	0	0	0	482	410	
0	0	0	0	0	466	411	
1	0	0	0	0	452	416	
2	0	0	0	0	440	411	
3	0	0	0	0	430	411	
4	0	0	0	0	423	411	
5	0	0	0	0	421	406	
6	0	0	0	0	422	411	
7	0	0	0	0	425	412	
8	0	0	0	0	431	412	
9	0	0	0	0	439	417	
10	0	0	0	0	446	411	
11	0	0	0	0	452	412	
12	0	0	0	0	456	412	
13	0	0	0	0	460	407	
14	0	0	0	0	462	412	
15	0	0	0	0	464	413	
0	0	0	0	0	465	412	
1	0	0	0	0	466	417	
2	0	0	0	0	467	412	
3	0	0	0	0	468	412	
4	0	0	0	0	470	412	
5	0	0	0	0	476	407	
6	0	0	0	0	485	412	
7	0	0	0	0	497	411	
8	0	0	0	0	514	412	
9	0	0	0	0	533	416	
10	0	0	0	0	555	411	
11	0	0	0	0	577	411	
12	0	0	0	0	601	411	
13	0	0	0	0	624	406	
14	0	0	0	0	643	412	
15	0	0	0	0	655	411	
0	0	0	0	0	663	411	
1	0	0	0	0	665	416	
2	0	0	0	0	664	411	
3	0	0	0	0	660	411	
4	0	0	0	0	655	411	
5	0	0	0	0	648	406	
6	0	0	0	0	638	411	
7	0	0	0	0	624	411	
8	0	0	0	0	606	411	
9	0	0	0	0	587	416	
10	0	0	0	0	568	411	
11	0	0	0	0	550	411	
12	0	0	0	0	536	411	
13	0	0	0	0	525	405	
14	0	0	0	0	517	411	
15	0	0	0	0	512	410	
0	0	0	0	0	511	410	
1	0	0	0	0	510	415	
2	0	0	0	0	509	410	
3	0	0	0	0	506	410	
4	0	0	0	0	503	410	
5	0	0	0	0	500	405	
6	0	0	0	0	496	410	
7	0	0	0	0	492	409	
8	0	0	0	0	485	410	
9	0	0	0	0	478	414	
10	0	0	0	0	469	409	
11	0	0	0	0	456	409	
12	0	0	0	0	444	409	
13	0	0	0	0	434	403	
14	0	0	0	0	427	409	
15	0	0	0	0	423	410	
0	0	0	0	0	423	409	
1	0	0	0	0	427	414	
2	0	0	0	0	435	409	
3	0	0	0	0	444	409	
4	0	0	0	0	455	409	
5	0	0	0	0	466	404	
6	0	0	0	0	476	409	
7	0	0	0	0	486	409	
8	0	0	0	0	494	409	
9	0	0	0	0	499	414	
10	0	0	0	0	504	409	
11	0	0	0	0	507	409	
12	0	0	0	0	508	409	
13	0	0	0	0	508	405	
14	0	0	0	0	503	410	
15	0	0	0	0	495	411	
0	0	0	0	0	485	412	
1	0	0	0	0	476	416	
2	0	0	0	0	469	411	
3	0	0	0	0	464	411	
4	0	0	0	0	461	411	
5	0	0	0	0	463	406	
6	0	0	0	0	467	411	
7	0	0	0	0	474	412	
8	0	0	0	0	482	412	
9	0	0	0	0	491	416	
10	0	0	0	0	500	412	
11	0	0	0	0	508	412	
12	0	0	0	0	515	412	
13	0	0	0	0	520	407	
14	0	0	0	0	525	413	
15	0	0	0	0	528	413	
0	0	0	0	0	528	413	
1	0	0	0	0	528	417	
2	0	0	0	0	525	413	
3	0	0	0	0	518	413	
4	0	0	0	0	508	413	
5	0	0	0	0	498	408	
6	0	0	0	0	492	412	
7	0	0	0	0	486	413	
8	0	0	0	0	484	412	
9	0	0	0	0	486	418	
10	0	0	0	0	490	413	
11	0	0	0	0	497	413	
12	0	0	0	0	505	413	
13	0	0	0	0	515	408	
14	0	0	0	0	524	413	
15	0	0	0	0	532	413	
0	0	0	0	0	539	413	
1	0	0	0	0	544	417	
2	0	0	0	0	547	413	
3	0	0	0	0	549	412	
4	0	0	0	0	548	412	
5	0	0	0	0	547	408	
6	0	0	0	0	542	412	
7	0	0	0	0	533	412	
8	0	0	0	0	522	412	
9	0	0	0	0	512	417	
10	0	0	0	0	504	412	
11	0	0	0	0	497	412	
12	0	0	0	0	493	411	
13	0	0	0	0	493	406	
14	0	0	0	0	497	412	
15	0	0	0	0	504	411	
0	0	0	0	0	512	411	
1	0	0	0	0	522	416	
2	0	0	0	0	531	411	
3	0	0	0	0	538	410	
4	0	0	0	0	545	410	
5	0	0	0	0	550	404	
6	0	0	0	0	553	410	
7	0	0	0	0	553	409	
8	0	0	0	0	552	409	
9	0	0	0	0	550	414	
10	0	0	0	0	544	409	
11	0	0	0	0	535	409	
12	0	0	0	0	523	408	
13	0	0	0	0	512	403	
14	0	0	0	0	503	408	
15	0	0	0	0	497	408	
0	0	0	0	0	494	409	
1	0	0	0	0	495	413	
2	0	0	0	0	499	408	
3	0	0	0	0	505	409	
4	0	0	0	0	514	408	
5	0	0	0	0	524	404	
6	0	0	0	0	533	409	
7	0	0	0	0	542	409	
8	0	0	0	0	548	409	
9	0	0	0	0	552	414	
10	0	0	0	0	555	409	
11	0	0	0	0	556	410	
12	0	0	0	0	555	409	
13	0	0	0	0	552	405	
14	0	0	0	0	546	411	
15	0	0	0	0	536	411	
0	0	0	0	0	524	411	
1	0	0	0	0	514	416	
2	0	0	0	0	506	411	
3	0	0	0	0	499	411	
4	0	0	0	0	496	411	
5	0	0	0	0	496	406	
6	0	0	0	0	500	412	
7	0	0	0	0	507	412	
8	0	0	0	0	515	412	
9	0	0	0	0	525	417	
10	0	0	0	0	534	413	
11	0	0	0	0	541	412	
12	0	0	0	0	547	412	
13	0	0	0	0	552	407	
14	0	0	0	0	553	412	
15	0	0	0	0	554	412	
0	0	0	0	0	552	413	
1	0	0	0	0	549	417	
2	0	0	0	0	543	413	
3	0	0	0	0	534	412	
4	0	0	0	0	522	412	
5	0	0	0	0	512	408	
6	0	0	0	0	504	412	
7	0	0	0	0	497	413	
8	0	0	0	0	493	413	
9	0	0	0	0	494	417	
10	0	0	0	0	497	412	
11	0	0	0	0	503	412	
12	0	0	0	0	512	411	
13	0	0	0	0	522	407	
14	0	0	0	0	531	411	
15	0	0	0	0	540	411	
0	0	0	0	0	547	411	
1	0	0	0	0	551	415	
2	0	0	0	0	555	412	
3	0	0	0	0	556	411	
4	0	0	0	0	556	411	
5	0	0	0	0	554	405	
6	0	0	0	0	549	411	
7	0	0	0	0	539	411	
8	0	0	0	0	527	410	
9	0	0	0	0	517	415	
10	0	0	0	0	508	410	
11	0	0	0	0	500	411	
12	0	0	0	0	496	410	
13	0	0	0	0	497	404	
14	0	0	0	0	500	410	
15	0	0	0	0	507	410	
0	0	0	0	0	515	410	
1	0	0	0	0	525	414	
2	0	0	0	0	535	409	
3	0	0	0	0	543	409	
4	0	0	0	0	548	409	
5	0	0	0	0	552	405	
6	0	0	0	0	555	409	
7	0	0	0	0	555	410	
8	0	0	0	0	553	410	
9	0	0	0	0	551	414	
10	0	0	0	0	545	410	
11	0	0	0	0	535	409	
12	0	0	0	0	524	409	
13	0	0	0	0	513	404	
14	0	0	0	0	505	409	
15	0	0	0	0	499	409	
0	0	0	0	0	496	409	
1	0	0	0	0	497	415	
2	0	0	0	0	503	410	
3	0	0	0	0	509	410	
4	0	0	0	0	518	409	
5	0	0	0	0	527	404	
6	0	0	0	0	536	410	
7	0	0	0	0	543	409	
8	0	0	0	0	548	411	
9	0	0	0	0	553	415	
10	0	0	0	0	556	411	
11	0	0	0	0	558	411	
12	0	0	0	0	558	411	
13	0	0	0	0	556	406	
14	0	0	0	0	551	411	
15	0	0	0	0	542	411	
0	0	0	0	0	530	412	
1	0	0	0	0	519	416	
2	0	0	0	0	511	411	
3	0	0	0	0	505	411	
4	0	0	0	0	503	411	
5	0	0	0	0	504	406	
6	0	0	0	0	508	411	
7	0	0	0	0	515	411	
8	0	0	0	0	524	412	
9	0	0	0	0	533	417	
10	0	0	0	0	542	411	
11	0	0	0	0	549	411	
12	0	0	0	0	555	412	
13	0	0	0	0	560	406	
14	0	0	0	0	562	412	
15	0	0	0	0	563	412	
0	0	0	0	0	563	411	
1	0	0	0	0	561	416	
2	0	0	0	0	556	411	
3	0	0	0	0	547	412	
4	0	0	0	0	536	411	
5	0	0	0	0	527	406	
6	0	0	0	0	519	411	
7	0	0	0	0	513	412	
8	0	0	0	0	510	412	
9	0	0	0	0	511	416	
10	0	0	0	0	515	411	
11	0	0	0	0	522	411	
12	0	0	0	0	531	411	
13	0	0	0	0	540	406	
14	0	0	0	0	549	411	
15	0	0	0	0	557	411	
0	0	0	0	0	561	411	
1	0	0	0	0	564	415	
2	0	0	0	0	565	411	
3	0	0	0	0	563	411	
4	0	0	0	0	561	410	
5	0	0	0	0	557	405	
6	0	0	0	0	550	411	
7	0	0	0	0	540	411	
8	0	0	0	0	527	411	
9	0	0	0	0	517	415	
10	0	0	0	0	508	410	
11	0	0	0	0	502	411	
12	0	0	0	0	498	409	
13	0	0	0	0	498	404	
14	0	0	0	0	502	409	
15	0	0	0	0	508	410	
0	0	0	0	0	515	410	
1	0	0	0	0	523	415	
2	0	0	0	0	529	409	
3	0	0	0	0	534	409	
4	0	0	0	0	538	409	
5	0	0	0	0	541	405	
6	0	0	0	0	542	410	
7	0	0	0	0	541	410	
8	0	0	0	0	539	410	
9	0	0	0	0	534	414	
10	0	0	0	0	527	409	
11	0	0	0	0	516	409	
12	0	0	0	0	504	408	
13	0	0	0	0	494	403	
14	0	0	0	0	484	409	
15	0	0	0	0	477	409	
0	0	0	0	0	473	409	
1	0	0	0	0	472	414	
2	0	0	0	0	475	409	
3	0	0	0	0	480	409	
4	0	0	0	0	487	409	
5	0	0	0	0	495	404	
6	0	0	0	0	501	409	
7	0	0	0	0	507	409	
8	0	0	0	0	511	410	
9	0	0	0	0	513	415	
10	0	0	0	0	515	410	
11	0	0	0	0	515	410	
12	0	0	0	0	513	410	
13	0	0	0	0	510	405	
14	0	0	0	0	504	411	
15	0	0	0	0	494	410	
0	0	0	0	0	483	410	
1	0	0	0	0	473	415	
2	0	0	0	0	465	410	
3	0	0	0	0	460	410	
4	0	0	0	0	458	411	
5	0	0	0	0	460	405	
6	0	0	0	0	465	411	
7	0	0	0	0	472	410	
8	0	0	0	0	480	410	
9	0	0	0	0	490	415	
10	0	0	0	0	499	411	
11	0	0	0	0	507	411	
12	0	0	0	0	513	411	
13	0	0	0	0	518	405	
14	0	0	0	0	520	410	
15	0	0	0	0	520	410	
0	0	0	0	0	520	410	
1	0	0	0	0	518	415	
2	0	0	0	0	514	410	
3	0	0	0	0	506	410	
4	0	0	0	0	495	410	
5	0	0	0	0	486	406	
6	0	0	0	0	479	411	
7	0	0	0	0	473	410	
8	0	0	0	0	471	411	
9	0	0	0	0	472	415	
10	0	0	0	0	476	411	
11	0	0	0	0	481	411	
12	0	0	0	0	489	411	
13	0	0	0	0	497	406	
14	0	0	0	0	506	412	
15	0	0	0	0	512	412	
0	0	0	0	0	517	412	
1	0	0	0	0	521	416	
2	0	0	0	0	522	411	
3	0	0	0	0	521	412	
4	0	0	0	0	520	412	
5	0	0	0	0	518	407	
6	0	0	0	0	512	412	
7	0	0	0	0	503	412	
8	0	0	0	0	493	412	
9	0	0	0	0	484	417	
10	0	0	0	0	477	412	
11	0	0	0	0	470	412	
12	0	0	0	0	467	412	
13	0	0	0	0	467	407	
14	0	0	0	0	472	412	
15	0	0	0	0	479	412	
0	0	0	0	0	487	412	
1	0	0	0	0	496	418	
2	0	0	0	0	504	412	
3	0	0	0	0	509	412	
4	0	0	0	0	513	411	
5	0	0	0	0	518	406	
6	0	0	0	0	520	412	
7	0	0	0	0	522	412	
8	0	0	0	0	522	412	
9	0	0	0	0	520	417	
10	0	0	0	0	516	412	
11	0	0	0	0	508	412	
12	0	0	0	0	497	412	
13	0	0	0	0	487	406	
14	0	0	0	0	480	411	
15	0	0	0	0	475	411	
0	0	0	0	0	472	411	
1	0	0	0	0	474	415	
2	0	0	0	0	480	410	
3	0	0	0	0	487	411	
4	0	0	0	0	496	411	
5	0	0	0	0	506	406	
6	0	0	0	0	515	411	
7	0	0	0	0	522	410	
8	0	0	0	0	528	411	
9	0	0	0	0	531	415	
10	0	0	0	0	532	411	
11	0	0	0	0	531	410	
12	0	0	0	0	528	411	
13	0	0	0	0	523	406	
14	0	0	0	0	517	411	
15	0	0	0	0	507	411	
0	0	0	0	0	496	411	
1	0	0	0	0	485	415	
2	0	0	0	0	477	410	
3	0	0	0	0	472	411	
4	0	0	0	0	470	411	
5	0	0	0	0	472	406	
6	0	0	0	0	477	412	
7	0	0	0	0	486	411	
8	0	0	0	0	495	411	
9	0	0	0	0	505	415	
10	0	0	0	0	515	410	
11	0	0	0	0	523	411	
12	0	0	0	0	528	410	
13	0	0	0	0	532	406	
14	0	0	0	0	534	411	
15	0	0	0	0	533	411	
0	0	0	0	0	530	411	
1	0	0	0	0	526	416	
2	0	0	0	0	519	411	
3	0	0	0	0	508	412	
4	0	0	0	0	495	412	
5	0	0	0	0	485	407	
6	0	0	0	0	477	412	
7	0	0	0	0	472	412	
8	0	0	0	0	469	413	
9	0	0	0	0	470	417	
10	0	0	0	0	474	412	
11	0	0	0	0	481	412	
12	0	0	0	0	492	412	
13	0	0	0	0	503	407	
14	0	0	0	0	514	412	
15	0	0	0	0	523	412	
0	0	0	0	0	529	412	
1	0	0	0	0	535	417	
2	0	0	0	0	537	412	
3	0	0	0	0	536	413	
4	0	0	0	0	536	412	
5	0	0	0	0	533	408	
6	0	0	0	0	527	413	
7	0	0	0	0	518	413	
8	0	0	0	0	506	413	
9	0	0	0	0	495	418	
10	0	0	0	0	486	413	
11	0	0	0	0	479	414	
12	0	0	0	0	475	412	
13	0	0	0	0	474	407	
14	0	0	0	0	478	412	
15	0	0	0	0	484	412	
0	0	0	0	0	492	412	
1	0	0	0	0	502	417	
2	0	0	0	0	511	411	
3	0	0	0	0	519	412	
4	0	0	0	0	526	411	
5	0	0	0	0	530	406	
6	0	0	0	0	534	411	
7	0	0	0	0	535	411	
8	0	0	0	0	535	411	
9	0	0	0	0	533	415	
10	0	0	0	0	527	411	
11	0	0	0	0	518	410	
12	0	0	0	0	506	409	
13	0	0	0	0	495	404	
14	0	0	0	0	486	409	
15	0	0	0	0	480	409	
0	0	0	0	0	477	409	
1	0	0	0	0	477	414	
2	0	0	0	0	481	409	
3	0	0	0	0	488	409	
4	0	0	0	0	498	408	
5	0	0	0	0	508	403	
6	0	0	0	0	516	408	
7	0	0	0	0	524	409	
8	0	0	0	0	529	409	
9	0	0	0	0	533	413	
10	0	0	0	0	534	408	
11	0	0	0	0	534	408	
12	0	0	0	0	531	408	
13	0	0	0	0	527	403	
14	0	0	0	0	520	408	
15	0	0	0	0	511	408	
0	0	0	0	0	501	409	
1	0	0	0	0	491	413	
2	0	0	0	0	482	408	
3	0	0	0	0	477	409	
4	0	0	0	0	474	408	
5	0	0	0	0	476	403	
6	0	0	0	0	481	409	
7	0	0	0	0	489	408	
8	0	0	0	0	499	409	
9	0	0	0	0	509	414	
10	0	0	0	0	519	409	
11	0	0	0	0	526	409	
12	0	0	0	0	532	409	
13	0	0	0	0	536	404	
14	0	0	0	0	539	409	
15	0	0	0	0	540	409	
0	0	0	0	0	539	410	
1	0	0	0	0	536	415	
2	0	0	0	0	529	410	
3	0	0	0	0	519	410	
4	0	0	0	0	507	410	
5	0	0	0	0	496	405	
6	0	0	0	0	486	410	
7	0	0	0	0	479	411	
8	0	0	0	0	473	411	
9	0	0	0	0	472	416	
10	0	0	0	0	475	411	
11	0	0	0	0	480	411	
12	0	0	0	0	488	411	
13	0	0	0	0	496	406	
14	0	0	0	0	504	411	
15	0	0	0	0	511	411	
0	0	0	0	0	516	412	
1	0	0	0	0	521	416	
2	0	0	0	0	525	411	
3	0	0	0	0	528	412	
4	0	0	0	0	529	411	
5	0	0	0	0	528	406	
6	0	0	0	0	524	411	
7	0	0	0	0	516	411	
8	0	0	0	0	505	412	
9	0	0	0	0	496	417	
10	0	0	0	0	488	411	
11	0	0	0	0	482	411	
12	0	0	0	0	479	411	
13	0	0	0	0	480	406	
14	0	0	0	0	484	411	
15	0	0	0	0	491	411	
0	0	0	0	0	498	412	
1	0	0	0	0	506	415	
2	0	0	0	0	513	410	
3	0	0	0	0	519	410	
4	0	0	0	0	524	410	
5	0	0	0	0	528	405	
6	0	0	0	0	529	410	
7	0	0	0	0	529	411	
8	0	0	0	0	528	411	
9	0	0	0	0	527	415	
10	0	0	0	0	522	411	
11	0	0	0	0	515	411	
12	0	0	0	0	507	411	
13	0	0	0	0	499	406	
14	0	0	0	0	494	411	
15	0	0	0	0	490	411	
0	0	0	0	0	489	411	
1	0	0	0	0	492	415	
2	0	0	0	0	498	411	
3	0	0	0	0	506	411	
4	0	0	0	0	514	411	
5	0	0	0	0	524	405	
6	0	0	0	0	532	411	
7	0	0	0	0	539	411	
8	0	0	0	0	544	411	
9	0	0	0	0	548	415	
10	0	0	0	0	550	411	
11	0	0	0	0	550	411	
12	0	0	0	0	547	411	
13	0	0	0	0	543	406	
14	0	0	0	0	537	412	
15	0	0	0	0	527	412	
0	0	0	0	0	516	412	
1	0	0	0	0	505	416	
2	0	0	0	0	496	412	
3	0	0	0	0	489	411	
4	0	0	0	0	487	411	
5	0	0	0	0	488	407	
6	0	0	0	0	492	412	
7	0	0	0	0	497	412	
8	0	0	0	0	504	412	
9	0	0	0	0	513	417	
10	0	0	0	0	522	413	
11	0	0	0	0	528	413	
12	0	0	0	0	534	412	
13	0	0	0	0	537	407	
14	0	0	0	0	540	412	
15	0	0	0	0	541	413	
0	0	0	0	0	540	413	
1	0	0	0	0	538	418	
2	0	0	0	0	531	413	
3	0	0	0	0	521	413	
4	0	0	0	0	509	413	
5	0	0	0	0	499	408	
6	0	0	0	0	489	412	
7	0	0	0	0	481	412	
8	0	0	0	0	477	413	
9	0	0	0	0	477	417	
10	0	0	0	0	481	413	
11	0	0	0	0	488	412	
12	0	0	0	0	497	411	
13	0	0	0	0	507	407	
14	0	0	0	0	516	412	
15	0	0	0	0	523	412	
0	0	0	0	0	529	412	
1	0	0	0	0	535	416	
2	0	0	0	0	537	411	
3	0	0	0	0	539	411	
4	0	0	0	0	538	410	
5	0	0	0	0	536	406	
6	0	0	0	0	531	411	
7	0	0	0	0	523	411	
8	0	0	0	0	512	411	
9	0	0	0	0	502	415	
10	0	0	0	0	495	411	
11	0	0	0	0	489	410	
12	0	0	0	0	487	410	
13	0	0	0	0	487	405	
14	0	0	0	0	491	410	
15	0	0	0	0	497	410	
0	0	0	0	0	505	410	
1	0	0	0	0	513	415	
2	0	0	0	0	521	411	
3	0	0	0	0	527	411	
4	0	0	0	0	532	411	
5	0	0	0	0	535	405	
6	0	0	0	0	536	410	
7	0	0	0	0	536	411	
8	0	0	0	0	535	411	
9	0	0	0	0	532	415	
10	0	0	0	0	526	411	
11	0	0	0	0	517	411	
12	0	0	0	0	506	411	
13	0	0	0	0	496	407	
14	0	0	0	0	487	411	
15	0	0	0	0	483	411	
0	0	0	0	0	481	411	
1	0	0	0	0	482	417	
2	0	0	0	0	488	412	
3	0	0	0	0	494	412	
4	0	0	0	0	503	412	
5	0	0	0	0	511	406	
6	0	0	0	0	520	412	
7	0	0	0	0	527	412	
8	0	0	0	0	532	412	
9	0	0	0	0	536	417	
10	0	0	0	0	536	412	
11	0	0	0	0	536	412	
12	0	0	0	0	533	412	
13	0	0	0	0	528	407	
14	0	0	0	0	521	412	
15	0	0	0	0	512	412	
0	0	0	0	0	502	413	
1	0	0	0	0	492	417	
2	0	0	0	0	485	413	
3	0	0	0	0	480	413	
4	0	0	0	0	479	413	
5	0	0	0	0	481	408	
6	0	0	0	0	487	412	
7	0	0	0	0	495	412	
8	0	0	0	0	504	413	
9	0	0	0	0	513	417	
10	0	0	0	0	521	413	
11	0	0	0	0	527	413	
12	0	0	0	0	531	412	
13	0	0	0	0	534	408	
14	0	0	0	0	535	413	
15	0	0	0	0	535	413	
0	0	0	0	0	532	412	
1	0	0	0	0	529	417	
2	0	0	0	0	522	413	
3	0	0	0	0	511	412	
4	0	0	0	0	497	412	
5	0	0	0	0	485	408	
6	0	0	0	0	474	412	
7	0	0	0	0	465	412	
8	0	0	0	0	460	413	
9	0	0	0	0	456	417	
10	0	0	0	0	457	413	
11	0	0	0	0	461	413	
12	0	0	0	0	466	412	
13	0	0	0	0	472	408	
14	0	0	0	0	478	412	
15	0	0	0	0	482	412	
0	0	0	0	0	486	412	
1	0	0	0	0	489	416	
2	0	0	0	0	489	412	
3	0	0	0	0	487	412	
4	0	0	0	0	483	411	
5	0	0	0	0	479	405	
6	0	0	0	0	472	411	
7	0	0	0	0	463	411	
8	0	0	0	0	452	411	
9	0	0	0	0	443	415	
10	0	0	0	0	438	411	
11	0	0	0	0	433	410	
12	0	0	0	0	433	410	
13	0	0	0	0	438	404	
14	0	0	0	0	448	410	
15	0	0	0	0	462	410	
0	0	0	0	0	478	409	
1	0	0	0	0	499	414	
2	0	0	0	0	520	408	
3	0	0	0	0	541	409	
4	0	0	0	0	560	408	
5	0	0	0	0	579	403	
6	0	0	0	0	595	409	
7	0	0	0	0	609	409	
8	0	0	0	0	619	408	
9	0	0	0	0	624	414	
10	0	0	0	0	626	410	
11	0	0	0	0	622	409	
12	0	0	0	0	612	409	
13	0	0	0	0	600	403	
14	0	0	0	0	586	409	
15	0	0	0	0	575	409	
0	0	0	0	0	566	410	
1	0	0	0	0	562	415	
2	0	0	0	0	562	410	
3	0	0	0	0	564	410	
4	0	0	0	0	567	410	
5	0	0	0	0	568	405	
6	0	0	0	0	568	410	
7	0	0	0	0	565	411	
8	0	0	0	0	561	411	
9	0	0	0	0	556	416	
10	0	0	0	0	547	411	
11	0	0	0	0	537	411	
12	0	0	0	0	527	411	
13	0	0	0	0	515	406	
14	0	0	0	0	502	411	
15	0	0	0	0	484	411	
0	0	0	0	0	466	411	
1	0	0	0	0	449	417	
2	0	0	0	0	435	412	
3	0	0	0	0	424	412	
4	0	0	0	0	419	411	
5	0	0	0	0	416	407	
6	0	0	0	0	418	411	
7	0	0	0	0	423	412	
8	0	0	0	0	428	412	
9	0	0	0	0	436	417	
10	0	0	0	0	444	412	
11	0	0	0	0	451	413	
12	0	0	0	0	458	413	
13	0	0	0	0	465	408	
14	0	0	0	0	470	414	
15	0	0	0	0	474	413	
0	0	0	0	0	476	413	
1	0	0	0	0	478	417	
2	0	0	0	0	476	413	
3	0	0	0	0	472	413	
4	0	0	0	0	465	412	
5	0	0	0	0	458	407	
6	0	0	0	0	454	412	
7	0	0	0	0	451	413	
8	0	0	0	0	450	413	
9	0	0	0	0	452	417	
10	0	0	0	0	458	412	
11	0	0	0	0	466	412	
12	0	0	0	0	476	412	
13	0	0	0	0	487	407	
14	0	0	0	0	498	412	
15	0	0	0	0	507	412	
0	0	0	0	0	515	412	
1	0	0	0	0	521	416	
2	0	0	0	0	526	411	
3	0	0	0	0	528	411	
4	0	0	0	0	529	411	
5	0	0	0	0	527	406	
6	0	0	0	0	522	412	
7	0	0	0	0	513	412	
8	0	0	0	0	503	411	
9	0	0	0	0	492	417	
10	0	0	0	0	484	411	
11	0	0	0	0	479	412	
12	0	0	0	0	477	411	
13	0	0	0	0	479	406	
14	0	0	0	0	483	411	
15	0	0	0	0	491	411	
0	0	0	0	0	500	412	
1	0	0	0	0	511	416	
2	0	0	0	0	522	411	
3	0	0	0	0	529	412	
4	0	0	0	0	536	411	
5	0	0	0	0	542	407	
6	0	0	0	0	545	411	
7	0	0	0	0	547	411	
8	0	0	0	0	548	412	
9	0	0	0	0	547	417	
10	0	0	0	0	543	412	
11	0	0	0	0	535	412	
12	0	0	0	0	525	412	
13	0	0	0	0	516	406	
14	0	0	0	0	508	412	
15	0	0	0	0	501	412	
0	0	0	0	0	497	412	
1	0	0	0	0	497	417	
2	0	0	0	0	501	412	
3	0	0	0	0	508	412	
4	0	0	0	0	516	412	
5	0	0	0	0	526	407	
6	0	0	0	0	535	412	
7	0	0	0	0	542	412	
8	0	0	0	0	548	413	
9	0	0	0	0	551	417	
10	0	0	0	0	553	412	
11	0	0	0	0	554	412	
12	0	0	0	0	553	412	
13	0	0	0	0	551	406	
14	0	0	0	0	547	412	
15	0	0	0	0	541	411	
0	0	0	0	0	532	412	
1	0	0	0	0	523	417	
2	0	0	0	0	515	411	
3	0	0	0	0	509	411	
4	0	0	0	0	507	412	
5	0	0	0	0	507	407	
6	0	0	0	0	511	412	
7	0	0	0	0	517	412	
8	0	0	0	0	524	412	
9	0	0	0	0	530	417	
10	0	0	0	0	536	412	
11	0	0	0	0	540	412	
12	0	0	0	0	544	411	
13	0	0	0	0	548	407	
14	0	0	0	0	551	412	
15	0	0	0	0	552	411	
0	0	0	0	0	553	412	
1	0	0	0	0	552	417	
2	0	0	0	0	548	412	
3	0	0	0	0	541	412	
4	0	0	0	0	530	412	
5	0	0	0	0	520	407	
6	0	0	0	0	512	413	
7	0	0	0	0	506	412	
8	0	0	0	0	503	412	
9	0	0	0	0	503	417	
10	0	0	0	0	506	413	
11	0	0	0	0	511	412	
12	0	0	0	0	519	412	
13	0	0	0	0	527	407	
14	0	0	0	0	536	412	
15	0	0	0	0	543	413	
0	0	0	0	0	548	413	
1	0	0	0	0	551	417	
2	0	0	0	0	555	413	
3	0	0	0	0	556	412	
4	0	0	0	0	555	412	
5	0	0	0	0	551	408	
6	0	0	0	0	545	412	
7	0	0	0	0	536	413	
8	0	0	0	0	523	413	
9	0	0	0	0	512	417	
10	0	0	0	0	502	412	
11	0	0	0	0	495	413	
12	0	0	0	0	490	412	
13	0	0	0	0	490	407	
14	0	0	0	0	493	412	
15	0	0	0	0	501	412	
0	0	0	0	0	510	412	
1	0	0	0	0	520	418	
2	0	0	0	0	530	413	
3	0	0	0	0	538	412	
4	0	0	0	0	545	412	
5	0	0	0	0	551	407	
6	0	0	0	0	554	413	
7	0	0	0	0	556	412	
8	0	0	0	0	555	412	
9	0	0	0	0	553	417	
10	0	0	0	0	547	412	
11	0	0	0	0	538	412	
12	0	0	0	0	527	412	
13	0	0	0	0	515	407	
14	0	0	0	0	507	412	
15	0	0	0	0	500	412	
0	0	0	0	0	497	412	
1	0	0	0	0	498	416	
2	0	0	0	0	502	412	
3	0	0	0	0	508	411	
4	0	0	0	0	515	411	
5	0	0	0	0	524	406	
6	0	0	0	0	532	411	
7	0	0	0	0	540	411	
8	0	0	0	0	545	411	
9	0	0	0	0	550	415	
10	0	0	0	0	551	410	
11	0	0	0	0	551	411	
12	0	0	0	0	550	410	
13	0	0	0	0	547	405	
14	0	0	0	0	541	410	
15	0	0	0	0	532	410	
0	0	0	0	0	521	410	
1	0	0	0	0	512	415	
2	0	0	0	0	504	410	
3	0	0	0	0	499	410	
4	0	0	0	0	496	410	
5	0	0	0	0	497	405	
6	0	0	0	0	502	410	
7	0	0	0	0	509	410	
8	0	0	0	0	518	411	
9	0	0	0	0	527	415	
10	0	0	0	0	536	411	
11	0	0	0	0	543	411	
12	0	0	0	0	547	411	
13	0	0	0	0	551	405	
14	0	0	0	0	552	410	
15	0	0	0	0	552	411	
0	0	0	0	0	551	411	
1	0	0	0	0	547	415	
2	0	0	0	0	541	410	
3	0	0	0	0	533	411	
4	0	0	0	0	523	411	
5	0	0	0	0	515	406	
6	0	0	0	0	507	411	
7	0	0	0	0	502	412	
8	0	0	0	0	499	412	
9	0	0	0	0	501	416	
10	0	0	0	0	507	412	
11	0	0	0	0	513	412	
12	0	0	0	0	522	413	
13	0	0	0	0	531	407	
14	0	0	0	0	541	412	
15	0	0	0	0	548	412	
0	0	0	0	0	555	412	
1	0	0	0	0	559	417	
2	0	0	0	0	561	412	
3	0	0	0	0	560	412	
4	0	0	0	0	558	412	
5	0	0	0	0	555	407	
6	0	0	0	0	548	413	
7	0	0	0	0	538	413	
8	0	0	0	0	527	413	
9	0	0	0	0	517	417	
10	0	0	0	0	510	413	
11	0	0	0	0	505	412	
12	0	0	0	0	504	413	
13	0	0	0	0	506	408	
14	0	0	0	0	512	413	
15	0	0	0	0	520	412	
0	0	0	0	0	529	413	
1	0	0	0	0	539	417	
2	0	0	0	0	548	412	
3	0	0	0	0	556	412	
4	0	0	0	0	562	412	
5	0	0	0	0	565	407	
6	0	0	0	0	567	412	
7	0	0	0	0	566	412	
8	0	0	0	0	563	412	
9	0	0	0	0	561	416	
10	0	0	0	0	556	412	
11	0	0	0	0	547	412	
12	0	0	0	0	536	412	
13	0	0	0	0	526	406	
14	0	0	0	0	517	411	
15	0	0	0	0	511	411	
0	0	0	0	0	507	411	
1	0	0	0	0	508	416	
2	0	0	0	0	512	411	
3	0	0	0	0	518	411	
4	0	0	0	0	525	411	
5	0	0	0	0	534	406	
6	0	0	0	0	541	411	
7	0	0	0	0	546	412	
8	0	0	0	0	549	412	
9	0	0	0	0	550	417	
10	0	0	0	0	549	411	
11	0	0	0	0	547	412	
12	0	0	0	0	544	411	
13	0	0	0	0	540	406	
14	0	0	0	0	532	412	
15	0	0	0	0	523	412	
0	0	0	0	0	510	412	
1	0	0	0	0	498	417	
2	0	0	0	0	489	412	
3	0	0	0	0	482	412	
4	0	0	0	0	478	412	
5	0	0	0	0	477	407	
6	0	0	0	0	479	412	
7	0	0	0	0	483	412	
8	0	0	0	0	490	412	
9	0	0	0	0	497	417	
10	0	0	0	0	505	413	
11	0	0	0	0	511	413	
12	0	0	0	0	516	413	
13	0	0	0	0	519	408	
14	0	0	0	0	520	413	
15	0	0	0	0	520	413	
0	0	0	0	0	519	413	
1	0	0	0	0	515	418	
2	0	0	0	0	508	412	
3	0	0	0	0	497	413	
4	0	0	0	0	484	412	
5	0	0	0	0	473	408	
6	0	0	0	0	463	413	
7	0	0	0	0	456	412	
8	0	0	0	0	452	413	
9	0	0	0	0	452	417	
10	0	0	0	0	455	413	
11	0	0	0	0	461	413	
12	0	0	0	0	468	412	
13	0	0	0	0	477	407	
14	0	0	0	0	486	412	
15	0	0	0	0	492	411	
0	0	0	0	0	496	412	
1	0	0	0	0	499	416	
2	0	0	0	0	502	412	
3	0	0	0	0	502	412	
4	0	0	0	0	502	411	
5	0	0	0	0	501	406	
6	0	0	0	0	497	411	
7	0	0	0	0	489	412	
8	0	0	0	0	479	412	
9	0	0	0	0	470	416	
10	0	0	0	0	463	411	
11	0	0	0	0	457	411	
12	0	0	0	0	455	411	
13	0	0	0	0	456	406	
14	0	0	0	0	461	411	
15	0	0	0	0	468	411	
0	0	0	0	0	477	412	
1	0	0	0	0	487	416	
2	0	0	0	0	495	411	
3	0	0	0	0	502	411	
4	0	0	0	0	508	410	
5	0	0	0	0	512	406	
6	0	0	0	0	514	411	
7	0	0	0	0	515	411	
8	0	0	0	0	514	412	
9	0	0	0	0	512	416	
10	0	0	0	0	505	411	
11	0	0	0	0	496	412	
12	0	0	0	0	486	412	
13	0	0	0	0	476	407	
14	0	0	0	0	467	412	
15	0	0	0	0	461	412	
0	0	0	0	0	457	412	
1	0	0	0	0	458	416	
2	0	0	0	0	463	412	
3	0	0	0	0	470	411	
4	0	0	0	0	479	412	
5	0	0	0	0	488	406	
6	0	0	0	0	498	412	
7	0	0	0	0	505	412	
8	0	0	0	0	510	412	
9	0	0	0	0	513	416	
10	0	0	0	0	515	412	
11	0	0	0	0	514	412	
12	0	0	0	0	513	412	
13	0	0	0	0	510	407	
14	0	0	0	0	504	412	
15	0	0	0	0	496	412	
0	0	0	0	0	485	413	
1	0	0	0	0	475	417	
2	0	0	0	0	467	412	
3	0	0	0	0	462	412	
4	0	0	0	0	459	412	
5	0	0	0	0	461	407	
6	0	0	0	0	465	413	
7	0	0	0	0	472	413	
8	0	0	0	0	481	413	
9	0	0	0	0	491	418	
10	0	0	0	0	500	413	
11	0	0	0	0	508	413	
12	0	0	0	0	513	412	
13	0	0	0	0	517	407	
14	0	0	0	0	520	412	
15	0	0	0	0	520	413	
0	0	0	0	0	518	413	
1	0	0	0	0	515	417	
2	0	0	0	0	510	413	
3	0	0	0	0	501	413	
4	0	0	0	0	489	412	
5	0	0	0	0	479	407	
6	0	0	0	0	471	413	
7	0	0	0	0	464	412	
8	0	0	0	0	461	412	
9	0	0	0	0	462	418	
10	0	0	0	0	467	413	
11	0	0	0	0	474	413	
12	0	0	0	0	482	412	
13	0	0	0	0	492	408	
14	0	0	0	0	500	413	
15	0	0	0	0	508	412	
0	0	0	0	0	513	413	
1	0	0	0	0	518	417	
2	0	0	0	0	521	413	
3	0	0	0	0	521	412	
4	0	0	0	0	520	412	
5	0	0	0	0	517	407	
6	0	0	0	0	511	412	
7	0	0	0	0	503	413	
8	0	0	0	0	491	412	
9	0	0	0	0	481	417	
10	0	0	0	0	472	413	
11	0	0	0	0	466	413	
12	0	0	0	0	462	412	
13	0	0	0	0	463	408	
14	0	0	0	0	467	413	
15	0	0	0	0	473	413	
0	0	0	0	0	483	413	
1	0	0	0	0	492	418	
2	0	0	0	0	501	413	
3	0	0	0	0	508	413	
4	0	0	0	0	515	413	
5	0	0	0	0	519	407	
6	0	0	0	0	521	413	
7	0	0	0	0	522	413	
8	0	0	0	0	521	412	
9	0	0	0	0	519	417	
10	0	0	0	0	514	412	
11	0	0	0	0	505	412	
12	0	0	0	0	494	412	
13	0	0	0	0	484	407	
14	0	0	0	0	476	412	
15	0	0	0	0	470	412	
0	0	0	0	0	467	412	
1	0	0	0	0	467	417	
2	0	0	0	0	471	412	
3	0	0	0	0	477	412	
4	0	0	0	0	486	411	
5	0	0	0	0	496	407	
6	0	0	0	0	505	412	
7	0	0	0	0	512	412	
8	0	0	0	0	519	412	
9	0	0	0	0	524	416	
10	0	0	0	0	527	412	
11	0	0	0	0	528	412	
12	0	0	0	0	527	410	
13	0	0	0	0	524	405	
14	0	0	0	0	518	411	
15	0	0	0	0	510	411	
0	0	0	0	0	499	411	
1	0	0	0	0	489	415	
2	0	0	0	0	480	410	
3	0	0	0	0	473	410	
4	0	0	0	0	469	411	
5	0	0	0	0	470	404	
6	0	0	0	0	474	410	
7	0	0	0	0	480	410	
8	0	0	0	0	488	410	
9	0	0	0	0	497	414	
10	0	0	0	0	506	409	
11	0	0	0	0	512	409	
12	0	0	0	0	518	409	
13	0	0	0	0	523	403	
14	0	0	0	0	525	409	
15	0	0	0	0	526	409	
0	0	0	0	0	526	409	
1	0	0	0	0	523	414	
2	0	0	0	0	518	409	
3	0	0	0	0	509	409	
4	0	0	0	0	498	408	
5	0	0	0	0	488	403	
6	0	0	0	0	480	409	
7	0	0	0	0	473	409	
8	0	0	0	0	470	410	
9	0	0	0	0	471	415	
10	0	0	0	0	476	409	
11	0	0	0	0	481	409	
12	0	0	0	0	491	410	
13	0	0	0	0	500	405	
14	0	0	0	0	510	411	
15	0	0	0	0	516	410	
0	0	0	0	0	522	410	
1	0	0	0	0	525	415	
2	0	0	0	0	527	411	
3	0	0	0	0	527	411	
4	0	0	0	0	525	412	
5	0	0	0	0	522	406	
6	0	0	0	0	515	411	
7	0	0	0	0	506	412	
8	0	0	0	0	495	411	
9	0	0	0	0	485	416	
10	0	0	0	0	476	412	
11	0	0	0	0	470	412	
12	0	0	0	0	467	412	
13	0	0	0	0	467	407	
14	0	0	0	0	471	412	
15	0	0	0	0	478	412	
0	0	0	0	0	486	413	
1	0	0	0	0	495	417	
2	0	0	0	0	504	412	
3	0	0	0	0	511	412	
4	0	0	0	0	516	412	
5	0	0	0	0	520	407	
6	0	0	0	0	523	412	
7	0	0	0	0	524	412	
8	0	0	0	0	522	412	
9	0	0	0	0	519	417	
10	0	0	0	0	513	412	
11	0	0	0	0	505	412	
12	0	0	0	0	495	412	
13	0	0	0	0	484	407	
14	0	0	0	0	476	412	
15	0	0	0	0	470	413	
0	0	0	0	0	467	412	
1	0	0	0	0	468	417	
2	0	0	0	0	474	412	
3	0	0	0	0	482	412	
4	0	0	0	0	492	411	
5	0	0	0	0	502	407	
6	0	0	0	0	511	412	
7	0	0	0	0	519	412	
8	0	0	0	0	526	412	
9	0	0	0	0	530	416	
10	0	0	0	0	532	411	
11	0	0	0	0	533	411	
12	0	0	0	0	532	411	
13	0	0	0	0	531	406	
14	0	0	0	0	525	411	
15	0	0	0	0	516	412	
0	0	0	0	0	505	412	
1	0	0	0	0	496	416	
2	0	0	0	0	488	412	
3	0	0	0	0	483	412	
4	0	0	0	0	480	412	
5	0	0	0	0	481	406	
6	0	0	0	0	486	412	
7	0	0	0	0	493	411	
8	0	0	0	0	502	412	
9	0	0	0	0	511	416	
10	0	0	0	0	521	411	
11	0	0	0	0	528	411	
12	0	0	0	0	534	410	
13	0	0	0	0	538	405	
14	0	0	0	0	540	410	
15	0	0	0	0	541	411	
0	0	0	0	0	540	411	
1	0	0	0	0	536	416	
2	0	0	0	0	531	411	
3	0	0	0	0	521	411	
4	0	0	0	0	510	410	
5	0	0	0	0	499	406	
6	0	0	0	0	491	412	
7	0	0	0	0	484	411	
8	0	0	0	0	480	411	
9	0	0	0	0	480	416	
10	0	0	0	0	484	412	
11	0	0	0	0	490	412	
12	0	0	0	0	499	412	
13	0	0	0	0	508	406	
14	0	0	0	0	518	412	
15	0	0	0	0	525	412	
0	0	0	0	0	530	412	
1	0	0	0	0	534	417	
2	0	0	0	0	537	412	
3	0	0	0	0	537	412	
4	0	0	0	0	536	412	
5	0	0	0	0	533	407	
6	0	0	0	0	527	412	
7	0	0	0	0	518	412	
8	0	0	0	0	507	412	
9	0	0	0	0	496	417	
10	0	0	0	0	487	412	
11	0	0	0	0	481	413	
12	0	0	0	0	478	412	
13	0	0	0	0	477	407	
14	0	0	0	0	481	413	
15	0	0	0	0	487	413	
0	0	0	0	0	496	413	
1	0	0	0	0	505	417	
2	0	0	0	0	515	413	
3	0	0	0	0	522	413	
4	0	0	0	0	527	412	
5	0	0	0	0	531	407	
6	0	0	0	0	534	413	
7	0	0	0	0	535	412	
8	0	0	0	0	533	413	
9	0	0	0	0	531	417	
10	0	0	0	0	525	413	
11	0	0	0	0	516	412	
12	0	0	0	0	504	412	
13	0	0	0	0	494	407	
14	0	0	0	0	485	413	
15	0	0	0	0	478	413	
0	0	0	0	0	475	413	
1	0	0	0	0	476	417	
2	0	0	0	0	480	413	
3	0	0	0	0	486	412	
4	0	0	0	0	494	412	
5	0	0	0	0	504	407	
6	0	0	0	0	512	412	
7	0	0	0	0	519	412	
8	0	0	0	0	525	412	
9	0	0	0	0	529	417	
10	0	0	0	0	532	412	
11	0	0	0	0	532	412	
12	0	0	0	0	531	412	
13	0	0	0	0	530	407	
14	0	0	0	0	525	412	
15	0	0	0	0	516	412	
0	0	0	0	0	505	412	
1	0	0	0	0	495	416	
2	0	0	0	0	486	412	
3	0	0	0	0	479	412	
4	0	0	0	0	475	412	
5	0	0	0	0	476	407	
6	0	0	0	0	481	412	
7	0	0	0	0	487	412	
8	0	0	0	0	496	411	
9	0	0	0	0	506	416	
10	0	0	0	0	514	411	
11	0	0	0	0	522	411	
12	0	0	0	0	528	411	
13	0	0	0	0	531	406	
14	0	0	0	0	533	411	
15	0	0	0	0	534	411	
0	0	0	0	0	533	411	
1	0	0	0	0	530	414	
2	0	0	0	0	524	409	
3	0	0	0	0	515	409	
4	0	0	0	0	504	409	
5	0	0	0	0	493	404	
6	0	0	0	0	485	409	
7	0	0	0	0	479	408	
8	0	0	0	0	476	409	
9	0	0	0	0	476	413	
10	0	0	0	0	480	408	
11	0	0	0	0	487	409	
12	0	0	0	0	496	408	
13	0	0	0	0	505	403	
14	0	0	0	0	514	408	
15	0	0	0	0	522	408	
0	0	0	0	0	527	408	
1	0	0	0	0	531	412	
2	0	0	0	0	532	408	
3	0	0	0	0	531	408	
4	0	0	0	0	528	408	
5	0	0	0	0	523	403	
6	0	0	0	0	515	408	
7	0	0	0	0	503	409	
8	0	0	0	0	489	409	
9	0	0	0	0	476	414	
10	0	0	0	0	464	408	
11	0	0	0	0	454	409	
12	0	0	0	0	448	409	
13	0	0	0	0	446	404	
14	0	0	0	0	446	410	
15	0	0	0	0	448	411	
0	0	0	0	0	452	410	
1	0	0	0	0	457	415	
2	0	0	0	0	462	410	
3	0	0	0	0	465	411	
4	0	0	0	0	468	411	
5	0	0	0	0	469	406	
6	0	0	0	0	468	412	
7	0	0	0	0	466	412	
8	0	0	0	0	464	412	
9	0	0	0	0	461	417	
10	0	0	0	0	454	412	
11	0	0	0	0	443	412	
12	0	0	0	0	431	412	
13	0	0	0	0	421	407	
14	0	0	0	0	413	412	
15	0	0	0	0	409	413	
0	0	0	0	0	410	413	
1	0	0	0	0	418	418	
2	0	0	0	0	433	413	
3	0	0	0	0	452	413	
4	0	0	0	0	476	413	
5	0	0	0	0	503	407	
6	0	0	0	0	530	412	
7	0	0	0	0	558	413	
8	0	0	0	0	582	413	
9	0	0	0	0	604	417	
10	0	0	0	0	623	412	
11	0	0	0	0	639	412	
12	0	0	0	0	650	412	
13	0	0	0	0	656	407	
14	0	0	0	0	655	411	
15	0	0	0	0	647	411	
0	0	0	0	0	633	411	
1	0	0	0	0	618	416	
2	0	0	0	0	605	411	
3	0	0	0	0	595	411	
4	0	0	0	0	587	410	
5	0	0	0	0	583	405	
6	0	0	0	0	580	410	
7	0	0	0	0	578	410	
8	0	0	0	0	576	410	
9	0	0	0	0	573	415	
10	0	0	0	0	570	410	
11	0	0	0	0	566	410	
12	0	0	0	0	560	410	
13	0	0	0	0	553	405	
14	0	0	0	0	545	410	
15	0	0	0	0	537	409	
0	0	0	0	0	527	409	
1	0	0	0	0	515	414	
2	0	0	0	0	502	409	
3	0	0	0	0	486	408	
4	0	0	0	0	470	408	
5	0	0	0	0	454	403	
6	0	0	0	0	442	409	
7	0	0	0	0	432	408	
8	0	0	0	0	427	409	
9	0	0	0	0	425	413	
10	0	0	0	0	427	409	
11	0	0	0	0	433	409	
12	0	0	0	0	440	408	
13	0	0	0	0	451	403	
14	0	0	0	0	461	408	
15	0	0	0	0	471	408	
0	0	0	0	0	479	408	
1	0	0	0	0	486	413	
2	0	0	0	0	491	409	
3	0	0	0	0	495	408	
4	0	0	0	0	497	409	
5	0	0	0	0	497	404	
6	0	0	0	0	494	409	
7	0	0	0	0	489	409	
8	0	0	0	0	481	410	
9	0	0	0	0	474	415	
10	0	0	0	0	468	410	
11	0	0	0	0	464	409	
12	0	0	0	0	463	410	
13	0	0	0	0	464	405	
14	0	0	0	0	470	410	
15	0	0	0	0	478	411	
0	0	0	0	0	487	411	
1	0	0	0	0	497	416	
2	0	0	0	0	507	411	
3	0	0	0	0	514	412	
4	0	0	0	0	520	410	
5	0	0	0	0	524	406	
6	0	0	0	0	526	412	
7	0	0	0	0	526	412	
8	0	0	0	0	525	412	
9	0	0	0	0	521	417	
10	0	0	0	0	515	412	
11	0	0	0	0	506	413	
12	0	0	0	0	496	412	
13	0	0	0	0	487	408	
14	0	0	0	0	480	413	
15	0	0	0	0	475	414	
0	0	0	0	0	474	414	
1	0	0	0	0	476	418	
2	0	0	0	0	482	414	
3	0	0	0	0	489	413	
4	0	0	0	0	499	413	
5	0	0	0	0	511	408	
6	0	0	0	0	520	414	
7	0	0	0	0	529	414	
8	0	0	0	0	536	414	
9	0	0	0	0	540	419	
10	0	0	0	0	543	414	
11	0	0	0	0	543	413	
12	0	0	0	0	542	413	
13	0	0	0	0	540	408	
14	0	0	0	0	535	414	
15	0	0	0	0	526	414	
0	0	0	0	0	516	414	
1	0	0	0	0	507	418	
2	0	0	0	0	498	413	
3	0	0	0	0	492	414	
