# OpenSignals Text File Format. Version 1
# {"98:D3:91:FD:59:64": {"position": 0, "device": "bitalino_rev", "device name": "98:D3:91:FD:59:64", "device connection": "BTH98:D3:91:FD:59:64", "sampling rate": 1000, "resolution": [4, 1, 1, 1, 1, 10, 10], "firmware version": 1281, "comments": "", "keywords": "", "mode": 0, "sync interval": 2, "date": "2021-9-13", "time": "11:46:8.639", "channels": [2, 5], "sensor": ["RAW", "RAW"], "label": ["A2", "A5"], "column": ["nSeq", "I1", "I2", "O1", "O2", "A2", "A5"], "special": [{}, {}], "digital IO": [0, 0, 1, 1], "convertedValues": 0}}
# EndOfHeader
0	0	0	0	0	528	623	
1	0	0	0	0	527	623	
2	0	0	0	0	527	623	
3	0	0	0	0	526	623	
4	0	0	0	0	523	622	
5	0	0	0	0	522	622	
6	0	0	0	0	520	622	
7	0	0	0	0	520	622	
8	0	0	0	0	520	623	
9	0	0	0	0	518	622	
10	0	0	0	0	516	622	
11	0	0	0	0	516	622	
12	0	0	0	0	516	622	
13	0	0	0	0	513	622	
14	0	0	0	0	510	622	
15	0	0	0	0	506	622	
0	0	0	0	0	504	622	
1	0	0	0	0	502	621	
2	0	0	0	0	501	622	
3	0	0	0	0	499	622	
4	0	0	0	0	498	623	
5	0	0	0	0	498	622	
6	0	0	0	0	497	622	
7	0	0	0	0	496	623	
8	0	0	0	0	495	622	
9	0	0	0	0	494	622	
10	0	0	0	0	494	623	
11	0	0	0	0	494	622	
12	0	0	0	0	493	623	
13	0	0	0	0	494	621	
14	0	0	0	0	495	622	
15	0	0	0	0	496	621	
0	0	0	0	0	496	623	
1	0	0	0	0	495	622	
2	0	0	0	0	495	622	
3	0	0	0	0	494	622	
4	0	0	0	0	492	623	
5	0	0	0	0	492	623	
6	0	0	0	0	493	622	
7	0	0	0	0	496	622	
8	0	0	0	0	500	623	
9	0	0	0	0	502	622	
10	0	0	0	0	502	623	
11	0	0	0	0	502	623	
12	0	0	0	0	502	623	
13	0	0	0	0	506	622	
14	0	0	0	0	511	623	
15	0	0	0	0	515	622	
0	0	0	0	0	515	622	
1	0	0	0	0	515	622	
2	0	0	0	0	513	622	
3	0	0	0	0	509	623	
4	0	0	0	0	503	623	
5	0	0	0	0	498	623	
6	0	0	0	0	492	623	
7	0	0	0	0	485	623	
8	0	0	0	0	479	623	
9	0	0	0	0	476	623	
10	0	0	0	0	472	623	
11	0	0	0	0	467	623	
12	0	0	0	0	462	623	
13	0	0	0	0	455	622	
14	0	0	0	0	450	623	
15	0	0	0	0	446	623	
0	0	0	0	0	442	623	
1	0	0	0	0	437	623	
2	0	0	0	0	432	623	
3	0	0	0	0	430	623	
4	0	0	0	0	433	623	
5	0	0	0	0	439	622	
6	0	0	0	0	446	623	
7	0	0	0	0	452	623	
8	0	0	0	0	461	623	
9	0	0	0	0	474	623	
10	0	0	0	0	489	623	
11	0	0	0	0	504	623	
12	0	0	0	0	518	623	
13	0	0	0	0	532	623	
14	0	0	0	0	547	623	
15	0	0	0	0	561	623	
0	0	0	0	0	573	623	
1	0	0	0	0	584	624	
2	0	0	0	0	597	623	
3	0	0	0	0	609	623	
4	0	0	0	0	623	624	
5	0	0	0	0	637	623	
6	0	0	0	0	646	623	
7	0	0	0	0	650	624	
8	0	0	0	0	654	624	
9	0	0	0	0	656	623	
10	0	0	0	0	656	623	
11	0	0	0	0	652	623	
12	0	0	0	0	647	624	
13	0	0	0	0	641	623	
14	0	0	0	0	638	623	
15	0	0	0	0	633	623	
0	0	0	0	0	628	622	
1	0	0	0	0	625	623	
2	0	0	0	0	623	623	
3	0	0	0	0	615	623	
4	0	0	0	0	607	623	
5	0	0	0	0	600	623	
6	0	0	0	0	592	622	
7	0	0	0	0	586	623	
8	0	0	0	0	579	623	
9	0	0	0	0	573	622	
10	0	0	0	0	566	623	
11	0	0	0	0	560	622	
12	0	0	0	0	552	622	
13	0	0	0	0	544	622	
14	0	0	0	0	539	623	
15	0	0	0	0	536	622	
0	0	0	0	0	535	623	
1	0	0	0	0	535	623	
2	0	0	0	0	534	623	
3	0	0	0	0	534	623	
4	0	0	0	0	532	623	
5	0	0	0	0	530	623	
6	0	0	0	0	527	623	
7	0	0	0	0	521	623	
8	0	0	0	0	513	624	
9	0	0	0	0	505	624	
10	0	0	0	0	496	624	
11	0	0	0	0	486	624	
12	0	0	0	0	474	624	
13	0	0	0	0	463	623	
14	0	0	0	0	454	623	
15	0	0	0	0	446	623	
0	0	0	0	0	441	624	
1	0	0	0	0	436	624	
2	0	0	0	0	433	624	
3	0	0	0	0	437	624	
4	0	0	0	0	446	624	
5	0	0	0	0	454	624	
6	0	0	0	0	463	624	
7	0	0	0	0	473	624	
8	0	0	0	0	483	624	
9	0	0	0	0	495	623	
10	0	0	0	0	506	624	
11	0	0	0	0	516	624	
12	0	0	0	0	524	624	
13	0	0	0	0	527	623	
14	0	0	0	0	529	624	
15	0	0	0	0	530	624	
0	0	0	0	0	531	623	
1	0	0	0	0	528	623	
2	0	0	0	0	526	623	
3	0	0	0	0	521	623	
4	0	0	0	0	515	623	
5	0	0	0	0	510	622	
6	0	0	0	0	503	622	
7	0	0	0	0	497	622	
8	0	0	0	0	493	623	
9	0	0	0	0	490	623	
10	0	0	0	0	487	623	
11	0	0	0	0	484	623	
12	0	0	0	0	480	622	
13	0	0	0	0	478	622	
14	0	0	0	0	478	622	
15	0	0	0	0	478	622	
0	0	0	0	0	480	623	
1	0	0	0	0	482	622	
2	0	0	0	0	481	622	
3	0	0	0	0	480	622	
4	0	0	0	0	478	622	
5	0	0	0	0	478	621	
6	0	0	0	0	480	622	
7	0	0	0	0	484	622	
8	0	0	0	0	487	622	
9	0	0	0	0	490	622	
10	0	0	0	0	493	622	
11	0	0	0	0	496	622	
12	0	0	0	0	497	622	
13	0	0	0	0	499	622	
14	0	0	0	0	499	622	
15	0	0	0	0	498	622	
0	0	0	0	0	497	622	
1	0	0	0	0	494	622	
2	0	0	0	0	492	622	
3	0	0	0	0	489	622	
4	0	0	0	0	489	622	
5	0	0	0	0	488	622	
6	0	0	0	0	487	621	
7	0	0	0	0	486	621	
8	0	0	0	0	483	622	
9	0	0	0	0	480	622	
10	0	0	0	0	475	622	
11	0	0	0	0	471	622	
12	0	0	0	0	468	622	
13	0	0	0	0	470	622	
14	0	0	0	0	473	622	
15	0	0	0	0	476	621	
0	0	0	0	0	478	621	
1	0	0	0	0	482	622	
2	0	0	0	0	485	621	
3	0	0	0	0	488	621	
4	0	0	0	0	486	621	
5	0	0	0	0	482	621	
6	0	0	0	0	478	621	
7	0	0	0	0	474	621	
8	0	0	0	0	471	622	
9	0	0	0	0	470	621	
10	0	0	0	0	470	621	
11	0	0	0	0	473	622	
12	0	0	0	0	479	622	
13	0	0	0	0	487	621	
14	0	0	0	0	496	621	
15	0	0	0	0	501	621	
0	0	0	0	0	506	622	
1	0	0	0	0	508	621	
2	0	0	0	0	507	621	
3	0	0	0	0	506	622	
4	0	0	0	0	507	621	
5	0	0	0	0	510	621	
6	0	0	0	0	511	621	
7	0	0	0	0	514	622	
8	0	0	0	0	515	622	
9	0	0	0	0	516	622	
10	0	0	0	0	517	622	
11	0	0	0	0	518	621	
12	0	0	0	0	520	622	
13	0	0	0	0	522	622	
14	0	0	0	0	523	621	
15	0	0	0	0	522	622	
0	0	0	0	0	518	622	
1	0	0	0	0	515	623	
2	0	0	0	0	513	622	
3	0	0	0	0	512	622	
4	0	0	0	0	511	622	
5	0	0	0	0	508	622	
6	0	0	0	0	506	623	
7	0	0	0	0	503	622	
8	0	0	0	0	497	622	
9	0	0	0	0	490	622	
10	0	0	0	0	485	622	
11	0	0	0	0	483	623	
12	0	0	0	0	483	622	
13	0	0	0	0	487	623	
14	0	0	0	0	492	623	
15	0	0	0	0	498	623	
0	0	0	0	0	503	623	
1	0	0	0	0	506	622	
2	0	0	0	0	508	622	
3	0	0	0	0	510	623	
4	0	0	0	0	509	623	
5	0	0	0	0	508	623	
6	0	0	0	0	504	623	
7	0	0	0	0	499	623	
8	0	0	0	0	497	624	
9	0	0	0	0	499	623	
10	0	0	0	0	501	624	
11	0	0	0	0	504	624	
12	0	0	0	0	509	624	
13	0	0	0	0	514	624	
14	0	0	0	0	518	624	
15	0	0	0	0	519	624	
0	0	0	0	0	520	624	
1	0	0	0	0	520	624	
2	0	0	0	0	521	624	
3	0	0	0	0	521	624	
4	0	0	0	0	521	624	
5	0	0	0	0	518	624	
6	0	0	0	0	516	624	
7	0	0	0	0	514	624	
8	0	0	0	0	513	624	
9	0	0	0	0	512	624	
10	0	0	0	0	511	624	
11	0	0	0	0	509	624	
12	0	0	0	0	506	624	
13	0	0	0	0	505	624	
14	0	0	0	0	502	624	
15	0	0	0	0	499	624	
0	0	0	0	0	498	623	
1	0	0	0	0	499	624	
2	0	0	0	0	500	624	
3	0	0	0	0	501	624	
4	0	0	0	0	502	624	
5	0	0	0	0	504	623	
6	0	0	0	0	506	623	
7	0	0	0	0	508	623	
8	0	0	0	0	511	624	
9	0	0	0	0	513	623	
10	0	0	0	0	517	623	
11	0	0	0	0	521	623	
12	0	0	0	0	525	623	
13	0	0	0	0	527	623	
14	0	0	0	0	526	622	
15	0	0	0	0	522	623	
0	0	0	0	0	519	623	
1	0	0	0	0	519	623	
2	0	0	0	0	519	623	
3	0	0	0	0	522	623	
4	0	0	0	0	525	623	
5	0	0	0	0	527	624	
6	0	0	0	0	528	623	
7	0	0	0	0	531	623	
8	0	0	0	0	533	623	
9	0	0	0	0	533	622	
10	0	0	0	0	533	622	
11	0	0	0	0	534	623	
12	0	0	0	0	535	623	
13	0	0	0	0	536	623	
14	0	0	0	0	538	623	
15	0	0	0	0	538	623	
0	0	0	0	0	537	623	
1	0	0	0	0	536	623	
2	0	0	0	0	534	623	
3	0	0	0	0	532	623	
4	0	0	0	0	533	623	
5	0	0	0	0	533	623	
6	0	0	0	0	531	623	
7	0	0	0	0	529	623	
8	0	0	0	0	525	622	
9	0	0	0	0	520	623	
10	0	0	0	0	518	623	
11	0	0	0	0	517	623	
12	0	0	0	0	521	623	
13	0	0	0	0	527	623	
14	0	0	0	0	535	623	
15	0	0	0	0	542	623	
0	0	0	0	0	547	624	
1	0	0	0	0	551	623	
2	0	0	0	0	552	623	
3	0	0	0	0	553	623	
4	0	0	0	0	554	623	
5	0	0	0	0	554	623	
6	0	0	0	0	552	623	
7	0	0	0	0	551	623	
8	0	0	0	0	550	623	
9	0	0	0	0	548	623	
10	0	0	0	0	545	622	
11	0	0	0	0	540	623	
12	0	0	0	0	533	623	
13	0	0	0	0	528	623	
14	0	0	0	0	525	622	
15	0	0	0	0	523	623	
0	0	0	0	0	523	624	
1	0	0	0	0	521	624	
2	0	0	0	0	521	623	
3	0	0	0	0	522	623	
4	0	0	0	0	521	624	
5	0	0	0	0	521	623	
6	0	0	0	0	522	624	
7	0	0	0	0	522	623	
8	0	0	0	0	520	624	
9	0	0	0	0	518	623	
10	0	0	0	0	513	623	
11	0	0	0	0	510	623	
12	0	0	0	0	507	623	
13	0	0	0	0	505	622	
14	0	0	0	0	504	623	
15	0	0	0	0	503	623	
0	0	0	0	0	502	622	
1	0	0	0	0	502	623	
2	0	0	0	0	503	622	
3	0	0	0	0	506	622	
4	0	0	0	0	507	623	
5	0	0	0	0	508	622	
6	0	0	0	0	509	622	
7	0	0	0	0	508	622	
8	0	0	0	0	508	622	
9	0	0	0	0	505	623	
10	0	0	0	0	502	623	
11	0	0	0	0	499	622	
12	0	0	0	0	494	623	
13	0	0	0	0	487	622	
14	0	0	0	0	478	622	
15	0	0	0	0	470	622	
0	0	0	0	0	464	622	
1	0	0	0	0	461	622	
2	0	0	0	0	460	622	
3	0	0	0	0	463	622	
4	0	0	0	0	463	623	
5	0	0	0	0	464	623	
6	0	0	0	0	463	622	
7	0	0	0	0	465	623	
8	0	0	0	0	470	622	
9	0	0	0	0	477	622	
10	0	0	0	0	484	623	
11	0	0	0	0	491	623	
12	0	0	0	0	497	623	
13	0	0	0	0	504	622	
14	0	0	0	0	509	622	
15	0	0	0	0	514	623	
0	0	0	0	0	518	623	
1	0	0	0	0	518	623	
2	0	0	0	0	514	623	
3	0	0	0	0	511	623	
4	0	0	0	0	511	623	
5	0	0	0	0	512	623	
6	0	0	0	0	511	623	
7	0	0	0	0	507	624	
8	0	0	0	0	502	623	
9	0	0	0	0	497	623	
10	0	0	0	0	493	623	
11	0	0	0	0	488	623	
12	0	0	0	0	486	624	
13	0	0	0	0	483	623	
14	0	0	0	0	483	623	
15	0	0	0	0	483	623	
0	0	0	0	0	485	623	
1	0	0	0	0	487	622	
2	0	0	0	0	491	623	
3	0	0	0	0	492	623	
4	0	0	0	0	494	623	
5	0	0	0	0	496	623	
6	0	0	0	0	497	623	
7	0	0	0	0	498	623	
8	0	0	0	0	497	623	
9	0	0	0	0	493	623	
10	0	0	0	0	488	623	
11	0	0	0	0	483	623	
12	0	0	0	0	480	624	
13	0	0	0	0	477	624	
14	0	0	0	0	476	624	
15	0	0	0	0	476	624	
0	0	0	0	0	478	624	
1	0	0	0	0	479	623	
2	0	0	0	0	482	624	
3	0	0	0	0	487	624	
4	0	0	0	0	490	624	
5	0	0	0	0	492	624	
6	0	0	0	0	494	624	
7	0	0	0	0	496	624	
8	0	0	0	0	499	624	
9	0	0	0	0	500	624	
10	0	0	0	0	500	624	
11	0	0	0	0	501	624	
12	0	0	0	0	500	625	
13	0	0	0	0	499	624	
14	0	0	0	0	499	624	
15	0	0	0	0	499	624	
0	0	0	0	0	498	624	
1	0	0	0	0	498	624	
2	0	0	0	0	497	623	
3	0	0	0	0	497	623	
4	0	0	0	0	498	623	
5	0	0	0	0	498	623	
6	0	0	0	0	497	623	
7	0	0	0	0	497	623	
8	0	0	0	0	495	623	
9	0	0	0	0	492	623	
10	0	0	0	0	488	623	
11	0	0	0	0	484	623	
12	0	0	0	0	479	623	
13	0	0	0	0	472	623	
14	0	0	0	0	467	623	
15	0	0	0	0	466	623	
0	0	0	0	0	467	623	
1	0	0	0	0	469	622	
2	0	0	0	0	474	623	
3	0	0	0	0	480	622	
4	0	0	0	0	484	623	
5	0	0	0	0	489	622	
6	0	0	0	0	492	622	
7	0	0	0	0	496	622	
8	0	0	0	0	502	623	
9	0	0	0	0	506	622	
10	0	0	0	0	509	622	
11	0	0	0	0	510	622	
12	0	0	0	0	511	622	
13	0	0	0	0	512	622	
14	0	0	0	0	512	622	
15	0	0	0	0	510	621	
0	0	0	0	0	508	622	
1	0	0	0	0	506	622	
2	0	0	0	0	504	622	
3	0	0	0	0	504	622	
4	0	0	0	0	505	622	
5	0	0	0	0	506	622	
6	0	0	0	0	508	622	
7	0	0	0	0	508	621	
8	0	0	0	0	509	622	
9	0	0	0	0	509	622	
10	0	0	0	0	507	622	
11	0	0	0	0	506	622	
12	0	0	0	0	504	623	
13	0	0	0	0	504	622	
14	0	0	0	0	504	622	
15	0	0	0	0	505	622	
0	0	0	0	0	505	623	
1	0	0	0	0	504	622	
2	0	0	0	0	504	622	
3	0	0	0	0	504	622	
4	0	0	0	0	504	623	
5	0	0	0	0	502	622	
6	0	0	0	0	501	622	
7	0	0	0	0	500	622	
8	0	0	0	0	499	622	
9	0	0	0	0	498	622	
10	0	0	0	0	496	622	
11	0	0	0	0	494	622	
12	0	0	0	0	492	623	
13	0	0	0	0	490	622	
14	0	0	0	0	491	622	
15	0	0	0	0	489	622	
0	0	0	0	0	488	622	
1	0	0	0	0	489	623	
2	0	0	0	0	489	623	
3	0	0	0	0	489	623	
4	0	0	0	0	489	623	
5	0	0	0	0	488	623	
6	0	0	0	0	490	623	
7	0	0	0	0	494	623	
8	0	0	0	0	496	623	
9	0	0	0	0	496	623	
10	0	0	0	0	495	623	
11	0	0	0	0	493	623	
12	0	0	0	0	490	623	
13	0	0	0	0	488	622	
14	0	0	0	0	488	623	
15	0	0	0	0	487	622	
0	0	0	0	0	488	623	
1	0	0	0	0	489	624	
2	0	0	0	0	492	623	
3	0	0	0	0	494	623	
4	0	0	0	0	496	624	
5	0	0	0	0	499	622	
6	0	0	0	0	502	622	
7	0	0	0	0	504	623	
8	0	0	0	0	507	623	
9	0	0	0	0	510	622	
10	0	0	0	0	512	623	
11	0	0	0	0	512	622	
12	0	0	0	0	512	623	
13	0	0	0	0	511	623	
14	0	0	0	0	511	623	
15	0	0	0	0	511	623	
0	0	0	0	0	511	623	
1	0	0	0	0	509	623	
2	0	0	0	0	507	623	
3	0	0	0	0	500	623	
4	0	0	0	0	494	623	
5	0	0	0	0	491	623	
6	0	0	0	0	489	622	
7	0	0	0	0	489	623	
8	0	0	0	0	489	623	
9	0	0	0	0	490	623	
10	0	0	0	0	492	623	
11	0	0	0	0	495	623	
12	0	0	0	0	499	624	
13	0	0	0	0	503	623	
14	0	0	0	0	508	623	
15	0	0	0	0	511	623	
0	0	0	0	0	513	624	
1	0	0	0	0	516	624	
2	0	0	0	0	518	624	
3	0	0	0	0	519	623	
4	0	0	0	0	519	623	
5	0	0	0	0	518	623	
6	0	0	0	0	515	624	
7	0	0	0	0	513	623	
8	0	0	0	0	513	623	
9	0	0	0	0	512	623	
10	0	0	0	0	510	623	
11	0	0	0	0	512	623	
12	0	0	0	0	511	623	
13	0	0	0	0	511	623	
14	0	0	0	0	510	623	
15	0	0	0	0	509	623	
0	0	0	0	0	508	623	
1	0	0	0	0	507	623	
2	0	0	0	0	504	623	
3	0	0	0	0	500	623	
4	0	0	0	0	497	623	
5	0	0	0	0	496	623	
6	0	0	0	0	493	623	
7	0	0	0	0	488	622	
8	0	0	0	0	485	622	
9	0	0	0	0	484	623	
10	0	0	0	0	487	623	
11	0	0	0	0	492	622	
12	0	0	0	0	498	623	
13	0	0	0	0	505	623	
14	0	0	0	0	511	623	
15	0	0	0	0	514	623	
0	0	0	0	0	516	623	
1	0	0	0	0	517	622	
2	0	0	0	0	517	622	
3	0	0	0	0	518	622	
4	0	0	0	0	516	623	
5	0	0	0	0	512	623	
6	0	0	0	0	507	622	
7	0	0	0	0	503	623	
8	0	0	0	0	499	622	
9	0	0	0	0	496	622	
10	0	0	0	0	495	622	
11	0	0	0	0	495	622	
12	0	0	0	0	496	622	
13	0	0	0	0	496	622	
14	0	0	0	0	497	622	
15	0	0	0	0	498	621	
0	0	0	0	0	502	622	
1	0	0	0	0	507	622	
2	0	0	0	0	510	621	
3	0	0	0	0	511	621	
4	0	0	0	0	511	622	
5	0	0	0	0	512	622	
6	0	0	0	0	513	621	
7	0	0	0	0	515	621	
8	0	0	0	0	515	622	
9	0	0	0	0	515	621	
10	0	0	0	0	514	622	
11	0	0	0	0	513	621	
12	0	0	0	0	511	621	
13	0	0	0	0	510	621	
14	0	0	0	0	508	621	
15	0	0	0	0	507	622	
0	0	0	0	0	505	622	
1	0	0	0	0	504	622	
2	0	0	0	0	502	622	
3	0	0	0	0	499	622	
4	0	0	0	0	497	622	
5	0	0	0	0	494	623	
6	0	0	0	0	493	623	
7	0	0	0	0	493	623	
8	0	0	0	0	493	623	
9	0	0	0	0	493	623	
10	0	0	0	0	495	623	
11	0	0	0	0	497	622	
12	0	0	0	0	500	623	
13	0	0	0	0	501	622	
14	0	0	0	0	502	623	
15	0	0	0	0	501	622	
0	0	0	0	0	498	623	
1	0	0	0	0	497	622	
2	0	0	0	0	497	622	
3	0	0	0	0	498	623	
4	0	0	0	0	497	623	
5	0	0	0	0	499	622	
6	0	0	0	0	502	623	
7	0	0	0	0	506	622	
8	0	0	0	0	512	623	
9	0	0	0	0	519	623	
10	0	0	0	0	521	623	
11	0	0	0	0	522	623	
12	0	0	0	0	522	624	
13	0	0	0	0	521	623	
14	0	0	0	0	520	624	
15	0	0	0	0	516	624	
0	0	0	0	0	511	624	
1	0	0	0	0	504	623	
2	0	0	0	0	499	624	
3	0	0	0	0	497	624	
4	0	0	0	0	498	624	
5	0	0	0	0	499	624	
6	0	0	0	0	502	624	
7	0	0	0	0	506	624	
8	0	0	0	0	509	624	
9	0	0	0	0	512	624	
10	0	0	0	0	514	624	
11	0	0	0	0	514	624	
12	0	0	0	0	513	624	
13	0	0	0	0	514	623	
14	0	0	0	0	516	624	
15	0	0	0	0	518	624	
0	0	0	0	0	519	624	
1	0	0	0	0	519	623	
2	0	0	0	0	519	624	
3	0	0	0	0	519	624	
4	0	0	0	0	518	624	
5	0	0	0	0	516	624	
6	0	0	0	0	514	623	
7	0	0	0	0	511	623	
8	0	0	0	0	508	624	
9	0	0	0	0	504	623	
10	0	0	0	0	502	623	
11	0	0	0	0	500	623	
12	0	0	0	0	501	624	
13	0	0	0	0	502	624	
14	0	0	0	0	501	624	
15	0	0	0	0	502	623	
0	0	0	0	0	503	623	
1	0	0	0	0	503	624	
2	0	0	0	0	505	623	
3	0	0	0	0	505	624	
4	0	0	0	0	505	624	
5	0	0	0	0	506	624	
6	0	0	0	0	507	624	
7	0	0	0	0	506	623	
8	0	0	0	0	507	624	
9	0	0	0	0	509	624	
10	0	0	0	0	509	623	
11	0	0	0	0	507	624	
12	0	0	0	0	505	623	
13	0	0	0	0	502	623	
14	0	0	0	0	500	623	
15	0	0	0	0	498	623	
0	0	0	0	0	496	623	
1	0	0	0	0	495	623	
2	0	0	0	0	494	623	
3	0	0	0	0	493	623	
4	0	0	0	0	492	623	
5	0	0	0	0	494	623	
6	0	0	0	0	497	623	
7	0	0	0	0	501	623	
8	0	0	0	0	502	624	
9	0	0	0	0	504	623	
10	0	0	0	0	504	623	
11	0	0	0	0	504	623	
12	0	0	0	0	504	624	
13	0	0	0	0	503	622	
14	0	0	0	0	504	622	
15	0	0	0	0	504	622	
0	0	0	0	0	504	622	
1	0	0	0	0	506	622	
2	0	0	0	0	508	622	
3	0	0	0	0	510	622	
4	0	0	0	0	512	623	
5	0	0	0	0	513	622	
6	0	0	0	0	515	622	
7	0	0	0	0	517	622	
8	0	0	0	0	515	622	
9	0	0	0	0	514	622	
10	0	0	0	0	511	622	
11	0	0	0	0	508	621	
12	0	0	0	0	506	622	
13	0	0	0	0	505	621	
14	0	0	0	0	506	622	
15	0	0	0	0	506	622	
0	0	0	0	0	505	622	
1	0	0	0	0	504	622	
2	0	0	0	0	504	622	
3	0	0	0	0	504	621	
4	0	0	0	0	503	621	
5	0	0	0	0	503	621	
6	0	0	0	0	504	622	
7	0	0	0	0	505	621	
8	0	0	0	0	505	622	
9	0	0	0	0	506	621	
10	0	0	0	0	508	622	
11	0	0	0	0	510	622	
12	0	0	0	0	508	622	
13	0	0	0	0	506	621	
14	0	0	0	0	504	620	
15	0	0	0	0	502	621	
0	0	0	0	0	499	621	
1	0	0	0	0	497	622	
2	0	0	0	0	495	622	
3	0	0	0	0	495	622	
4	0	0	0	0	497	622	
5	0	0	0	0	498	621	
6	0	0	0	0	500	622	
7	0	0	0	0	502	622	
8	0	0	0	0	504	623	
9	0	0	0	0	506	622	
10	0	0	0	0	508	622	
11	0	0	0	0	510	622	
12	0	0	0	0	512	622	
13	0	0	0	0	515	622	
14	0	0	0	0	517	622	
15	0	0	0	0	518	622	
0	0	0	0	0	517	623	
1	0	0	0	0	516	623	
2	0	0	0	0	513	623	
3	0	0	0	0	511	623	
4	0	0	0	0	508	623	
5	0	0	0	0	505	623	
6	0	0	0	0	502	623	
7	0	0	0	0	500	623	
8	0	0	0	0	497	623	
9	0	0	0	0	493	623	
10	0	0	0	0	490	623	
11	0	0	0	0	488	623	
12	0	0	0	0	486	624	
13	0	0	0	0	486	624	
14	0	0	0	0	487	624	
15	0	0	0	0	487	623	
0	0	0	0	0	490	623	
1	0	0	0	0	494	624	
2	0	0	0	0	496	624	
3	0	0	0	0	499	624	
4	0	0	0	0	502	624	
5	0	0	0	0	504	624	
6	0	0	0	0	507	623	
7	0	0	0	0	509	623	
8	0	0	0	0	511	624	
9	0	0	0	0	514	623	
10	0	0	0	0	516	624	
11	0	0	0	0	519	624	
12	0	0	0	0	519	624	
13	0	0	0	0	520	624	
14	0	0	0	0	520	623	
15	0	0	0	0	520	623	
0	0	0	0	0	520	623	
1	0	0	0	0	519	624	
2	0	0	0	0	519	623	
3	0	0	0	0	518	623	
4	0	0	0	0	517	623	
5	0	0	0	0	515	623	
6	0	0	0	0	514	623	
7	0	0	0	0	512	623	
8	0	0	0	0	511	623	
9	0	0	0	0	511	624	
10	0	0	0	0	511	622	
11	0	0	0	0	509	623	
12	0	0	0	0	507	622	
13	0	0	0	0	506	622	
14	0	0	0	0	503	623	
15	0	0	0	0	502	623	
0	0	0	0	0	502	624	
1	0	0	0	0	503	623	
2	0	0	0	0	504	623	
3	0	0	0	0	506	623	
4	0	0	0	0	509	623	
5	0	0	0	0	508	623	
6	0	0	0	0	507	623	
7	0	0	0	0	503	623	
8	0	0	0	0	499	623	
9	0	0	0	0	495	623	
10	0	0	0	0	493	623	
11	0	0	0	0	490	623	
12	0	0	0	0	489	623	
13	0	0	0	0	492	622	
14	0	0	0	0	494	623	
15	0	0	0	0	497	623	
0	0	0	0	0	499	623	
1	0	0	0	0	500	622	
2	0	0	0	0	502	622	
3	0	0	0	0	506	622	
4	0	0	0	0	509	623	
5	0	0	0	0	511	622	
6	0	0	0	0	512	622	
7	0	0	0	0	513	622	
8	0	0	0	0	515	623	
9	0	0	0	0	516	622	
10	0	0	0	0	516	622	
11	0	0	0	0	513	622	
12	0	0	0	0	511	623	
13	0	0	0	0	507	622	
14	0	0	0	0	503	623	
15	0	0	0	0	502	622	
0	0	0	0	0	501	623	
1	0	0	0	0	502	622	
2	0	0	0	0	502	623	
3	0	0	0	0	502	623	
4	0	0	0	0	502	622	
5	0	0	0	0	505	623	
6	0	0	0	0	508	623	
7	0	0	0	0	509	623	
8	0	0	0	0	510	623	
9	0	0	0	0	509	622	
10	0	0	0	0	510	623	
11	0	0	0	0	511	623	
12	0	0	0	0	510	623	
13	0	0	0	0	510	623	
14	0	0	0	0	511	623	
15	0	0	0	0	511	623	
0	0	0	0	0	510	623	
1	0	0	0	0	510	623	
2	0	0	0	0	509	623	
3	0	0	0	0	508	623	
4	0	0	0	0	506	624	
5	0	0	0	0	504	623	
6	0	0	0	0	503	623	
7	0	0	0	0	503	623	
8	0	0	0	0	500	624	
9	0	0	0	0	498	624	
10	0	0	0	0	497	624	
11	0	0	0	0	496	623	
12	0	0	0	0	496	624	
13	0	0	0	0	495	624	
14	0	0	0	0	493	624	
15	0	0	0	0	490	624	
0	0	0	0	0	487	624	
1	0	0	0	0	486	624	
2	0	0	0	0	482	623	
3	0	0	0	0	479	624	
4	0	0	0	0	476	624	
5	0	0	0	0	474	624	
6	0	0	0	0	472	623	
7	0	0	0	0	470	622	
8	0	0	0	0	468	623	
9	0	0	0	0	465	622	
10	0	0	0	0	463	623	
11	0	0	0	0	459	623	
12	0	0	0	0	455	624	
13	0	0	0	0	448	623	
14	0	0	0	0	439	622	
15	0	0	0	0	430	623	
0	0	0	0	0	423	623	
1	0	0	0	0	418	623	
2	0	0	0	0	415	623	
3	0	0	0	0	415	622	
4	0	0	0	0	417	623	
5	0	0	0	0	422	623	
6	0	0	0	0	428	623	
7	0	0	0	0	438	622	
8	0	0	0	0	452	622	
9	0	0	0	0	467	622	
10	0	0	0	0	488	622	
11	0	0	0	0	511	622	
12	0	0	0	0	533	623	
13	0	0	0	0	552	623	
14	0	0	0	0	568	623	
15	0	0	0	0	581	623	
0	0	0	0	0	591	623	
1	0	0	0	0	598	623	
2	0	0	0	0	604	623	
3	0	0	0	0	612	623	
4	0	0	0	0	618	624	
5	0	0	0	0	622	623	
6	0	0	0	0	625	623	
7	0	0	0	0	627	623	
8	0	0	0	0	625	623	
9	0	0	0	0	622	623	
10	0	0	0	0	616	623	
11	0	0	0	0	610	622	
12	0	0	0	0	605	623	
13	0	0	0	0	601	623	
14	0	0	0	0	598	623	
15	0	0	0	0	596	623	
0	0	0	0	0	596	623	
1	0	0	0	0	598	623	
2	0	0	0	0	600	623	
3	0	0	0	0	598	623	
4	0	0	0	0	597	624	
5	0	0	0	0	596	624	
6	0	0	0	0	594	623	
7	0	0	0	0	594	623	
8	0	0	0	0	591	624	
9	0	0	0	0	584	624	
10	0	0	0	0	575	623	
11	0	0	0	0	568	623	
12	0	0	0	0	559	624	
13	0	0	0	0	549	623	
14	0	0	0	0	540	623	
15	0	0	0	0	532	623	
0	0	0	0	0	526	624	
1	0	0	0	0	519	623	
2	0	0	0	0	512	623	
3	0	0	0	0	509	623	
4	0	0	0	0	506	624	
5	0	0	0	0	502	623	
6	0	0	0	0	500	623	
7	0	0	0	0	499	623	
8	0	0	0	0	497	623	
9	0	0	0	0	497	623	
10	0	0	0	0	498	623	
11	0	0	0	0	499	623	
12	0	0	0	0	497	623	
13	0	0	0	0	494	622	
14	0	0	0	0	490	623	
15	0	0	0	0	484	623	
0	0	0	0	0	479	623	
1	0	0	0	0	476	623	
2	0	0	0	0	477	623	
3	0	0	0	0	478	623	
4	0	0	0	0	477	623	
5	0	0	0	0	477	622	
6	0	0	0	0	475	622	
7	0	0	0	0	472	622	
8	0	0	0	0	472	622	
9	0	0	0	0	472	623	
10	0	0	0	0	475	622	
11	0	0	0	0	479	622	
12	0	0	0	0	482	622	
13	0	0	0	0	485	621	
14	0	0	0	0	488	621	
15	0	0	0	0	491	621	
0	0	0	0	0	494	622	
1	0	0	0	0	496	621	
2	0	0	0	0	494	622	
3	0	0	0	0	491	622	
4	0	0	0	0	487	622	
5	0	0	0	0	481	622	
6	0	0	0	0	476	622	
7	0	0	0	0	470	622	
8	0	0	0	0	464	622	
9	0	0	0	0	460	622	
10	0	0	0	0	456	622	
11	0	0	0	0	456	622	
12	0	0	0	0	460	622	
13	0	0	0	0	467	621	
14	0	0	0	0	475	622	
15	0	0	0	0	482	622	
0	0	0	0	0	488	622	
1	0	0	0	0	494	622	
2	0	0	0	0	498	623	
3	0	0	0	0	501	622	
4	0	0	0	0	504	623	
5	0	0	0	0	506	623	
6	0	0	0	0	507	623	
7	0	0	0	0	506	623	
8	0	0	0	0	504	622	
9	0	0	0	0	503	623	
10	0	0	0	0	502	622	
11	0	0	0	0	500	622	
12	0	0	0	0	499	623	
13	0	0	0	0	498	623	
14	0	0	0	0	496	622	
15	0	0	0	0	494	623	
0	0	0	0	0	491	623	
1	0	0	0	0	488	623	
2	0	0	0	0	487	622	
3	0	0	0	0	483	623	
4	0	0	0	0	480	623	
5	0	0	0	0	479	622	
6	0	0	0	0	480	622	
7	0	0	0	0	482	623	
8	0	0	0	0	485	623	
9	0	0	0	0	488	623	
10	0	0	0	0	490	622	
11	0	0	0	0	491	623	
12	0	0	0	0	487	623	
13	0	0	0	0	480	623	
14	0	0	0	0	472	622	
15	0	0	0	0	467	622	
0	0	0	0	0	466	622	
1	0	0	0	0	466	622	
2	0	0	0	0	469	622	
3	0	0	0	0	472	622	
4	0	0	0	0	475	622	
5	0	0	0	0	483	622	
6	0	0	0	0	490	622	
7	0	0	0	0	497	623	
8	0	0	0	0	501	623	
9	0	0	0	0	504	622	
10	0	0	0	0	508	623	
11	0	0	0	0	512	623	
12	0	0	0	0	514	624	
13	0	0	0	0	517	623	
14	0	0	0	0	518	623	
15	0	0	0	0	517	623	
0	0	0	0	0	516	623	
1	0	0	0	0	515	623	
2	0	0	0	0	513	623	
3	0	0	0	0	511	623	
4	0	0	0	0	507	624	
5	0	0	0	0	504	623	
6	0	0	0	0	499	623	
7	0	0	0	0	496	622	
8	0	0	0	0	493	623	
9	0	0	0	0	491	623	
10	0	0	0	0	491	623	
11	0	0	0	0	491	623	
12	0	0	0	0	493	624	
13	0	0	0	0	496	623	
14	0	0	0	0	498	623	
15	0	0	0	0	500	623	
0	0	0	0	0	500	623	
1	0	0	0	0	498	623	
2	0	0	0	0	494	623	
3	0	0	0	0	488	623	
4	0	0	0	0	482	624	
5	0	0	0	0	477	623	
6	0	0	0	0	474	623	
7	0	0	0	0	474	623	
8	0	0	0	0	477	623	
9	0	0	0	0	483	623	
10	0	0	0	0	488	623	
11	0	0	0	0	495	623	
12	0	0	0	0	500	623	
13	0	0	0	0	505	623	
14	0	0	0	0	510	624	
15	0	0	0	0	513	624	
0	0	0	0	0	516	624	
1	0	0	0	0	517	624	
2	0	0	0	0	516	623	
3	0	0	0	0	514	624	
4	0	0	0	0	510	624	
5	0	0	0	0	506	623	
6	0	0	0	0	501	624	
7	0	0	0	0	497	623	
8	0	0	0	0	496	624	
9	0	0	0	0	496	623	
10	0	0	0	0	496	623	
11	0	0	0	0	496	624	
12	0	0	0	0	498	624	
13	0	0	0	0	502	623	
14	0	0	0	0	506	623	
15	0	0	0	0	509	623	
0	0	0	0	0	511	623	
1	0	0	0	0	512	623	
2	0	0	0	0	513	624	
3	0	0	0	0	513	623	
4	0	0	0	0	509	623	
5	0	0	0	0	505	624	
6	0	0	0	0	502	623	
7	0	0	0	0	498	623	
8	0	0	0	0	496	623	
9	0	0	0	0	494	623	
10	0	0	0	0	493	623	
11	0	0	0	0	493	623	
12	0	0	0	0	494	623	
13	0	0	0	0	496	623	
14	0	0	0	0	498	623	
15	0	0	0	0	502	623	
0	0	0	0	0	507	623	
1	0	0	0	0	512	623	
2	0	0	0	0	516	623	
3	0	0	0	0	520	623	
4	0	0	0	0	524	623	
5	0	0	0	0	526	622	
6	0	0	0	0	525	622	
7	0	0	0	0	523	622	
8	0	0	0	0	519	622	
9	0	0	0	0	517	622	
10	0	0	0	0	515	622	
11	0	0	0	0	516	623	
12	0	0	0	0	518	623	
13	0	0	0	0	518	622	
14	0	0	0	0	518	622	
15	0	0	0	0	519	622	
0	0	0	0	0	520	622	
1	0	0	0	0	521	623	
2	0	0	0	0	524	623	
3	0	0	0	0	525	622	
4	0	0	0	0	526	623	
5	0	0	0	0	524	622	
6	0	0	0	0	523	622	
7	0	0	0	0	522	622	
8	0	0	0	0	523	623	
9	0	0	0	0	524	623	
10	0	0	0	0	526	623	
11	0	0	0	0	525	623	
12	0	0	0	0	527	623	
13	0	0	0	0	529	622	
14	0	0	0	0	531	623	
15	0	0	0	0	533	622	
0	0	0	0	0	534	623	
1	0	0	0	0	531	623	
2	0	0	0	0	529	623	
3	0	0	0	0	527	623	
4	0	0	0	0	526	623	
5	0	0	0	0	526	623	
6	0	0	0	0	526	623	
7	0	0	0	0	527	623	
8	0	0	0	0	528	623	
9	0	0	0	0	530	623	
10	0	0	0	0	532	623	
11	0	0	0	0	537	623	
12	0	0	0	0	540	623	
13	0	0	0	0	541	623	
14	0	0	0	0	541	623	
15	0	0	0	0	542	623	
0	0	0	0	0	542	623	
1	0	0	0	0	541	623	
2	0	0	0	0	542	623	
3	0	0	0	0	542	622	
4	0	0	0	0	541	623	
5	0	0	0	0	539	623	
6	0	0	0	0	537	623	
7	0	0	0	0	535	623	
8	0	0	0	0	531	623	
9	0	0	0	0	528	623	
10	0	0	0	0	526	623	
11	0	0	0	0	523	623	
12	0	0	0	0	521	624	
13	0	0	0	0	518	623	
14	0	0	0	0	517	624	
15	0	0	0	0	516	623	
0	0	0	0	0	514	623	
1	0	0	0	0	510	623	
2	0	0	0	0	507	623	
3	0	0	0	0	503	623	
4	0	0	0	0	501	623	
5	0	0	0	0	500	623	
6	0	0	0	0	500	623	
7	0	0	0	0	503	623	
8	0	0	0	0	504	623	
9	0	0	0	0	506	623	
10	0	0	0	0	508	623	
11	0	0	0	0	510	624	
12	0	0	0	0	508	624	
13	0	0	0	0	504	624	
14	0	0	0	0	499	624	
15	0	0	0	0	496	624	
0	0	0	0	0	496	624	
1	0	0	0	0	496	624	
2	0	0	0	0	494	623	
3	0	0	0	0	493	624	
4	0	0	0	0	494	624	
5	0	0	0	0	495	624	
6	0	0	0	0	496	623	
7	0	0	0	0	497	624	
8	0	0	0	0	498	624	
9	0	0	0	0	497	624	
10	0	0	0	0	497	624	
11	0	0	0	0	496	624	
12	0	0	0	0	492	624	
13	0	0	0	0	489	623	
14	0	0	0	0	486	623	
15	0	0	0	0	483	624	
0	0	0	0	0	481	624	
1	0	0	0	0	480	624	
2	0	0	0	0	478	624	
3	0	0	0	0	476	623	
4	0	0	0	0	473	624	
5	0	0	0	0	472	623	
6	0	0	0	0	474	623	
7	0	0	0	0	476	623	
8	0	0	0	0	478	624	
9	0	0	0	0	481	624	
10	0	0	0	0	485	623	
11	0	0	0	0	488	623	
12	0	0	0	0	491	623	
13	0	0	0	0	493	623	
14	0	0	0	0	496	623	
15	0	0	0	0	496	624	
0	0	0	0	0	496	624	
1	0	0	0	0	495	623	
2	0	0	0	0	491	623	
3	0	0	0	0	486	623	
4	0	0	0	0	482	623	
5	0	0	0	0	476	623	
6	0	0	0	0	469	623	
7	0	0	0	0	463	623	
8	0	0	0	0	460	624	
9	0	0	0	0	458	622	
10	0	0	0	0	457	623	
11	0	0	0	0	457	622	
12	0	0	0	0	458	623	
13	0	0	0	0	460	622	
14	0	0	0	0	464	622	
15	0	0	0	0	468	622	
0	0	0	0	0	473	622	
1	0	0	0	0	479	622	
2	0	0	0	0	481	623	
3	0	0	0	0	482	622	
4	0	0	0	0	481	622	
5	0	0	0	0	479	622	
6	0	0	0	0	476	623	
7	0	0	0	0	473	622	
8	0	0	0	0	475	622	
9	0	0	0	0	476	622	
10	0	0	0	0	479	622	
11	0	0	0	0	483	622	
12	0	0	0	0	488	622	
13	0	0	0	0	492	622	
14	0	0	0	0	494	622	
15	0	0	0	0	497	622	
0	0	0	0	0	499	622	
1	0	0	0	0	500	622	
2	0	0	0	0	499	621	
3	0	0	0	0	499	622	
4	0	0	0	0	498	622	
5	0	0	0	0	496	622	
6	0	0	0	0	494	622	
7	0	0	0	0	492	622	
8	0	0	0	0	491	622	
9	0	0	0	0	487	623	
10	0	0	0	0	482	623	
11	0	0	0	0	476	622	
12	0	0	0	0	472	623	
13	0	0	0	0	469	623	
14	0	0	0	0	468	623	
15	0	0	0	0	467	623	
0	0	0	0	0	469	623	
1	0	0	0	0	472	622	
2	0	0	0	0	476	622	
3	0	0	0	0	481	623	
4	0	0	0	0	486	623	
5	0	0	0	0	491	623	
6	0	0	0	0	495	622	
7	0	0	0	0	498	623	
8	0	0	0	0	498	623	
9	0	0	0	0	499	622	
10	0	0	0	0	500	622	
11	0	0	0	0	500	622	
12	0	0	0	0	500	623	
13	0	0	0	0	501	622	
14	0	0	0	0	500	623	
15	0	0	0	0	499	622	
0	0	0	0	0	498	623	
1	0	0	0	0	496	623	
2	0	0	0	0	496	623	
3	0	0	0	0	497	622	
4	0	0	0	0	498	623	
5	0	0	0	0	496	623	
6	0	0	0	0	493	622	
7	0	0	0	0	491	623	
8	0	0	0	0	489	623	
9	0	0	0	0	487	623	
10	0	0	0	0	485	623	
11	0	0	0	0	483	623	
12	0	0	0	0	481	623	
13	0	0	0	0	477	622	
14	0	0	0	0	475	623	
15	0	0	0	0	474	623	
0	0	0	0	0	473	623	
1	0	0	0	0	474	622	
2	0	0	0	0	477	623	
3	0	0	0	0	480	623	
4	0	0	0	0	483	623	
5	0	0	0	0	483	623	
6	0	0	0	0	483	623	
7	0	0	0	0	484	624	
8	0	0	0	0	487	624	
9	0	0	0	0	489	623	
10	0	0	0	0	490	624	
11	0	0	0	0	491	623	
12	0	0	0	0	493	624	
13	0	0	0	0	495	623	
14	0	0	0	0	495	624	
15	0	0	0	0	494	623	
0	0	0	0	0	492	623	
1	0	0	0	0	489	623	
2	0	0	0	0	487	624	
3	0	0	0	0	486	623	
4	0	0	0	0	483	624	
5	0	0	0	0	481	623	
6	0	0	0	0	480	624	
7	0	0	0	0	481	623	
8	0	0	0	0	483	624	
9	0	0	0	0	485	624	
10	0	0	0	0	485	624	
11	0	0	0	0	485	624	
12	0	0	0	0	486	624	
13	0	0	0	0	486	623	
14	0	0	0	0	488	624	
15	0	0	0	0	492	623	
0	0	0	0	0	497	624	
1	0	0	0	0	502	623	
2	0	0	0	0	506	623	
3	0	0	0	0	508	623	
4	0	0	0	0	511	623	
5	0	0	0	0	512	623	
6	0	0	0	0	513	623	
7	0	0	0	0	515	623	
8	0	0	0	0	514	623	
9	0	0	0	0	514	623	
10	0	0	0	0	515	623	
11	0	0	0	0	518	623	
12	0	0	0	0	519	622	
13	0	0	0	0	519	622	
14	0	0	0	0	519	622	
15	0	0	0	0	519	622	
0	0	0	0	0	517	622	
1	0	0	0	0	516	622	
2	0	0	0	0	515	622	
3	0	0	0	0	515	622	
4	0	0	0	0	513	622	
5	0	0	0	0	510	622	
6	0	0	0	0	507	622	
7	0	0	0	0	504	622	
8	0	0	0	0	502	622	
9	0	0	0	0	500	622	
10	0	0	0	0	499	622	
11	0	0	0	0	496	623	
12	0	0	0	0	494	623	
13	0	0	0	0	493	623	
14	0	0	0	0	494	622	
15	0	0	0	0	496	622	
0	0	0	0	0	497	622	
1	0	0	0	0	498	622	
2	0	0	0	0	499	622	
3	0	0	0	0	500	622	
4	0	0	0	0	500	623	
5	0	0	0	0	499	621	
6	0	0	0	0	499	622	
7	0	0	0	0	497	622	
8	0	0	0	0	494	623	
9	0	0	0	0	494	622	
10	0	0	0	0	494	623	
11	0	0	0	0	492	622	
12	0	0	0	0	489	623	
13	0	0	0	0	485	622	
14	0	0	0	0	482	622	
15	0	0	0	0	481	622	
0	0	0	0	0	482	622	
1	0	0	0	0	484	622	
2	0	0	0	0	485	622	
3	0	0	0	0	487	622	
4	0	0	0	0	490	623	
5	0	0	0	0	491	623	
6	0	0	0	0	495	622	
7	0	0	0	0	499	622	
8	0	0	0	0	504	623	
9	0	0	0	0	506	622	
10	0	0	0	0	508	622	
11	0	0	0	0	510	623	
12	0	0	0	0	512	623	
13	0	0	0	0	512	622	
14	0	0	0	0	512	623	
15	0	0	0	0	512	622	
0	0	0	0	0	512	623	
1	0	0	0	0	511	623	
2	0	0	0	0	510	623	
3	0	0	0	0	509	623	
4	0	0	0	0	511	623	
5	0	0	0	0	512	623	
6	0	0	0	0	515	623	
7	0	0	0	0	515	623	
8	0	0	0	0	515	623	
9	0	0	0	0	516	623	
10	0	0	0	0	515	623	
11	0	0	0	0	514	623	
12	0	0	0	0	514	624	
13	0	0	0	0	511	623	
14	0	0	0	0	509	623	
15	0	0	0	0	507	623	
0	0	0	0	0	504	623	
1	0	0	0	0	503	623	
2	0	0	0	0	503	623	
3	0	0	0	0	503	624	
4	0	0	0	0	503	624	
5	0	0	0	0	504	623	
6	0	0	0	0	506	623	
7	0	0	0	0	508	623	
8	0	0	0	0	510	624	
9	0	0	0	0	511	623	
10	0	0	0	0	511	623	
11	0	0	0	0	510	624	
12	0	0	0	0	509	624	
13	0	0	0	0	508	624	
14	0	0	0	0	507	623	
15	0	0	0	0	508	624	
0	0	0	0	0	509	623	
1	0	0	0	0	508	623	
2	0	0	0	0	506	623	
3	0	0	0	0	505	624	
4	0	0	0	0	504	624	
5	0	0	0	0	504	623	
6	0	0	0	0	504	623	
7	0	0	0	0	504	624	
8	0	0	0	0	503	624	
9	0	0	0	0	503	624	
10	0	0	0	0	503	623	
11	0	0	0	0	502	623	
12	0	0	0	0	501	623	
13	0	0	0	0	499	623	
14	0	0	0	0	499	623	
15	0	0	0	0	500	623	
0	0	0	0	0	501	624	
1	0	0	0	0	499	624	
2	0	0	0	0	497	624	
3	0	0	0	0	496	623	
4	0	0	0	0	494	624	
5	0	0	0	0	491	623	
6	0	0	0	0	488	623	
7	0	0	0	0	486	622	
8	0	0	0	0	485	623	
9	0	0	0	0	487	622	
10	0	0	0	0	490	623	
11	0	0	0	0	492	623	
12	0	0	0	0	495	623	
13	0	0	0	0	499	622	
14	0	0	0	0	503	623	
15	0	0	0	0	506	622	
0	0	0	0	0	508	623	
1	0	0	0	0	510	622	
2	0	0	0	0	511	622	
3	0	0	0	0	511	623	
4	0	0	0	0	509	623	
5	0	0	0	0	509	623	
6	0	0	0	0	509	623	
7	0	0	0	0	507	623	
8	0	0	0	0	506	623	
9	0	0	0	0	506	623	
10	0	0	0	0	506	623	
11	0	0	0	0	505	623	
12	0	0	0	0	505	624	
13	0	0	0	0	504	623	
14	0	0	0	0	503	622	
15	0	0	0	0	502	623	
0	0	0	0	0	503	623	
1	0	0	0	0	505	623	
2	0	0	0	0	507	623	
3	0	0	0	0	511	623	
4	0	0	0	0	515	624	
5	0	0	0	0	519	623	
6	0	0	0	0	522	623	
7	0	0	0	0	524	623	
8	0	0	0	0	525	624	
9	0	0	0	0	526	623	
10	0	0	0	0	526	623	
11	0	0	0	0	525	623	
12	0	0	0	0	523	624	
13	0	0	0	0	520	623	
14	0	0	0	0	517	623	
15	0	0	0	0	515	623	
0	0	0	0	0	512	623	
1	0	0	0	0	510	623	
2	0	0	0	0	506	623	
3	0	0	0	0	502	622	
4	0	0	0	0	496	623	
5	0	0	0	0	492	623	
6	0	0	0	0	489	623	
7	0	0	0	0	487	623	
8	0	0	0	0	485	623	
9	0	0	0	0	485	622	
10	0	0	0	0	488	623	
11	0	0	0	0	493	622	
12	0	0	0	0	498	623	
13	0	0	0	0	500	623	
14	0	0	0	0	504	623	
15	0	0	0	0	508	623	
0	0	0	0	0	511	623	
1	0	0	0	0	513	622	
2	0	0	0	0	515	623	
3	0	0	0	0	518	622	
4	0	0	0	0	519	623	
5	0	0	0	0	519	622	
6	0	0	0	0	519	622	
7	0	0	0	0	517	623	
8	0	0	0	0	515	622	
9	0	0	0	0	512	622	
10	0	0	0	0	510	622	
11	0	0	0	0	508	622	
12	0	0	0	0	506	623	
13	0	0	0	0	501	622	
14	0	0	0	0	496	622	
15	0	0	0	0	492	622	
0	0	0	0	0	491	623	
1	0	0	0	0	491	622	
2	0	0	0	0	492	622	
3	0	0	0	0	493	623	
4	0	0	0	0	497	623	
5	0	0	0	0	503	622	
6	0	0	0	0	507	624	
7	0	0	0	0	508	623	
8	0	0	0	0	508	623	
9	0	0	0	0	508	623	
10	0	0	0	0	509	622	
11	0	0	0	0	511	622	
12	0	0	0	0	514	622	
13	0	0	0	0	517	623	
14	0	0	0	0	519	623	
15	0	0	0	0	521	623	
0	0	0	0	0	524	623	
1	0	0	0	0	525	623	
2	0	0	0	0	526	623	
3	0	0	0	0	526	623	
4	0	0	0	0	523	623	
5	0	0	0	0	519	623	
6	0	0	0	0	515	623	
7	0	0	0	0	513	624	
8	0	0	0	0	511	624	
9	0	0	0	0	509	623	
10	0	0	0	0	507	623	
11	0	0	0	0	504	623	
12	0	0	0	0	502	624	
13	0	0	0	0	502	623	
14	0	0	0	0	502	623	
15	0	0	0	0	503	623	
0	0	0	0	0	503	623	
1	0	0	0	0	504	623	
2	0	0	0	0	504	623	
3	0	0	0	0	504	623	
4	0	0	0	0	505	624	
5	0	0	0	0	506	623	
6	0	0	0	0	507	623	
7	0	0	0	0	507	623	
8	0	0	0	0	506	623	
9	0	0	0	0	507	622	
10	0	0	0	0	510	623	
11	0	0	0	0	512	623	
12	0	0	0	0	514	623	
13	0	0	0	0	515	623	
14	0	0	0	0	515	623	
15	0	0	0	0	515	623	
0	0	0	0	0	515	623	
1	0	0	0	0	515	623	
2	0	0	0	0	514	623	
3	0	0	0	0	512	623	
4	0	0	0	0	512	624	
5	0	0	0	0	512	623	
6	0	0	0	0	512	623	
7	0	0	0	0	511	623	
8	0	0	0	0	512	623	
9	0	0	0	0	512	622	
10	0	0	0	0	511	623	
11	0	0	0	0	510	623	
12	0	0	0	0	508	623	
13	0	0	0	0	505	623	
14	0	0	0	0	503	623	
15	0	0	0	0	500	623	
0	0	0	0	0	498	624	
1	0	0	0	0	496	623	
2	0	0	0	0	496	622	
3	0	0	0	0	495	623	
4	0	0	0	0	493	623	
5	0	0	0	0	491	623	
6	0	0	0	0	489	623	
7	0	0	0	0	489	623	
8	0	0	0	0	492	623	
9	0	0	0	0	495	623	
10	0	0	0	0	500	623	
11	0	0	0	0	505	623	
12	0	0	0	0	510	623	
13	0	0	0	0	513	622	
14	0	0	0	0	515	623	
15	0	0	0	0	515	623	
0	0	0	0	0	518	623	
1	0	0	0	0	521	623	
2	0	0	0	0	523	623	
3	0	0	0	0	523	623	
4	0	0	0	0	522	623	
5	0	0	0	0	521	623	
6	0	0	0	0	520	623	
7	0	0	0	0	520	623	
8	0	0	0	0	520	624	
9	0	0	0	0	520	623	
10	0	0	0	0	519	623	
11	0	0	0	0	518	623	
12	0	0	0	0	515	624	
13	0	0	0	0	511	623	
14	0	0	0	0	509	623	
15	0	0	0	0	508	623	
0	0	0	0	0	508	624	
1	0	0	0	0	507	623	
2	0	0	0	0	505	623	
3	0	0	0	0	504	623	
4	0	0	0	0	504	624	
5	0	0	0	0	506	624	
6	0	0	0	0	508	623	
7	0	0	0	0	508	623	
8	0	0	0	0	508	623	
9	0	0	0	0	507	623	
10	0	0	0	0	508	623	
11	0	0	0	0	508	623	
12	0	0	0	0	508	624	
13	0	0	0	0	507	624	
14	0	0	0	0	507	623	
15	0	0	0	0	508	623	
0	0	0	0	0	508	623	
1	0	0	0	0	509	623	
2	0	0	0	0	509	623	
3	0	0	0	0	510	623	
4	0	0	0	0	512	623	
5	0	0	0	0	512	623	
6	0	0	0	0	513	623	
7	0	0	0	0	512	624	
8	0	0	0	0	510	623	
9	0	0	0	0	509	623	
10	0	0	0	0	509	623	
11	0	0	0	0	508	624	
12	0	0	0	0	509	624	
13	0	0	0	0	511	624	
14	0	0	0	0	512	623	
15	0	0	0	0	512	623	
0	0	0	0	0	512	623	
1	0	0	0	0	512	623	
2	0	0	0	0	512	623	
3	0	0	0	0	512	623	
4	0	0	0	0	511	623	
5	0	0	0	0	510	622	
6	0	0	0	0	507	622	
7	0	0	0	0	502	622	
8	0	0	0	0	496	623	
9	0	0	0	0	488	622	
10	0	0	0	0	482	622	
11	0	0	0	0	476	622	
12	0	0	0	0	470	622	
13	0	0	0	0	465	622	
14	0	0	0	0	462	622	
15	0	0	0	0	461	622	
0	0	0	0	0	460	623	
1	0	0	0	0	460	622	
2	0	0	0	0	458	623	
3	0	0	0	0	456	623	
4	0	0	0	0	457	623	
5	0	0	0	0	459	623	
6	0	0	0	0	463	622	
7	0	0	0	0	467	623	
8	0	0	0	0	468	623	
9	0	0	0	0	468	623	
10	0	0	0	0	465	623	
11	0	0	0	0	461	623	
12	0	0	0	0	457	623	
13	0	0	0	0	453	622	
14	0	0	0	0	450	622	
15	0	0	0	0	449	623	
0	0	0	0	0	452	623	
1	0	0	0	0	457	622	
2	0	0	0	0	464	622	
3	0	0	0	0	473	622	
4	0	0	0	0	483	622	
5	0	0	0	0	496	622	
6	0	0	0	0	513	622	
7	0	0	0	0	532	622	
8	0	0	0	0	550	623	
9	0	0	0	0	568	622	
10	0	0	0	0	583	623	
11	0	0	0	0	596	622	
12	0	0	0	0	606	623	
13	0	0	0	0	616	622	
14	0	0	0	0	625	622	
15	0	0	0	0	636	622	
0	0	0	0	0	647	623	
1	0	0	0	0	657	622	
2	0	0	0	0	665	622	
3	0	0	0	0	671	622	
4	0	0	0	0	673	623	
5	0	0	0	0	671	623	
6	0	0	0	0	667	623	
7	0	0	0	0	660	622	
8	0	0	0	0	652	623	
9	0	0	0	0	643	623	
10	0	0	0	0	632	623	
11	0	0	0	0	624	622	
12	0	0	0	0	614	623	
13	0	0	0	0	607	623	
14	0	0	0	0	600	622	
15	0	0	0	0	595	623	
0	0	0	0	0	590	624	
1	0	0	0	0	586	623	
2	0	0	0	0	583	623	
3	0	0	0	0	580	623	
4	0	0	0	0	575	623	
5	0	0	0	0	571	623	
6	0	0	0	0	564	622	
7	0	0	0	0	556	624	
8	0	0	0	0	546	623	
9	0	0	0	0	536	624	
10	0	0	0	0	526	624	
11	0	0	0	0	515	623	
12	0	0	0	0	507	624	
13	0	0	0	0	501	623	
14	0	0	0	0	497	623	
15	0	0	0	0	494	623	
0	0	0	0	0	491	624	
1	0	0	0	0	487	623	
2	0	0	0	0	486	623	
3	0	0	0	0	484	623	
4	0	0	0	0	484	623	
5	0	0	0	0	486	623	
6	0	0	0	0	488	623	
7	0	0	0	0	491	623	
8	0	0	0	0	493	624	
9	0	0	0	0	494	623	
10	0	0	0	0	495	623	
11	0	0	0	0	497	623	
12	0	0	0	0	497	624	
13	0	0	0	0	494	624	
14	0	0	0	0	490	624	
15	0	0	0	0	484	623	
0	0	0	0	0	479	623	
1	0	0	0	0	474	623	
2	0	0	0	0	470	623	
3	0	0	0	0	467	623	
4	0	0	0	0	469	624	
5	0	0	0	0	472	623	
6	0	0	0	0	475	624	
7	0	0	0	0	476	623	
8	0	0	0	0	478	624	
9	0	0	0	0	480	623	
10	0	0	0	0	481	623	
11	0	0	0	0	481	623	
12	0	0	0	0	480	624	
13	0	0	0	0	479	623	
14	0	0	0	0	479	623	
15	0	0	0	0	480	623	
0	0	0	0	0	480	623	
1	0	0	0	0	480	623	
2	0	0	0	0	480	623	
3	0	0	0	0	480	623	
4	0	0	0	0	478	623	
5	0	0	0	0	477	623	
6	0	0	0	0	475	623	
7	0	0	0	0	474	624	
8	0	0	0	0	475	623	
9	0	0	0	0	475	623	
10	0	0	0	0	476	624	
11	0	0	0	0	478	622	
12	0	0	0	0	480	623	
13	0	0	0	0	481	623	
14	0	0	0	0	482	623	
15	0	0	0	0	483	622	
0	0	0	0	0	484	622	
1	0	0	0	0	486	622	
2	0	0	0	0	488	622	
3	0	0	0	0	489	622	
4	0	0	0	0	489	623	
5	0	0	0	0	489	623	
6	0	0	0	0	489	623	
7	0	0	0	0	490	622	
8	0	0	0	0	491	623	
9	0	0	0	0	492	622	
10	0	0	0	0	492	623	
11	0	0	0	0	490	622	
12	0	0	0	0	489	622	
13	0	0	0	0	489	623	
14	0	0	0	0	488	622	
15	0	0	0	0	487	623	
0	0	0	0	0	486	622	
1	0	0	0	0	486	622	
2	0	0	0	0	486	623	
3	0	0	0	0	486	622	
4	0	0	0	0	485	622	
5	0	0	0	0	483	622	
6	0	0	0	0	483	622	
7	0	0	0	0	481	622	
8	0	0	0	0	476	622	
9	0	0	0	0	472	623	
10	0	0	0	0	470	622	
11	0	0	0	0	466	622	
12	0	0	0	0	463	623	
13	0	0	0	0	457	623	
14	0	0	0	0	452	623	
15	0	0	0	0	447	623	
0	0	0	0	0	445	623	
1	0	0	0	0	445	622	
2	0	0	0	0	449	622	
3	0	0	0	0	455	622	
4	0	0	0	0	462	623	
5	0	0	0	0	470	622	
6	0	0	0	0	480	622	
7	0	0	0	0	489	622	
8	0	0	0	0	493	622	
9	0	0	0	0	496	622	
10	0	0	0	0	500	622	
11	0	0	0	0	505	622	
12	0	0	0	0	509	622	
13	0	0	0	0	508	622	
14	0	0	0	0	506	622	
15	0	0	0	0	505	622	
0	0	0	0	0	501	622	
1	0	0	0	0	499	623	
2	0	0	0	0	497	622	
3	0	0	0	0	495	622	
4	0	0	0	0	492	623	
5	0	0	0	0	486	622	
6	0	0	0	0	482	622	
7	0	0	0	0	482	622	
8	0	0	0	0	483	622	
9	0	0	0	0	485	623	
10	0	0	0	0	487	623	
11	0	0	0	0	492	623	
12	0	0	0	0	496	624	
13	0	0	0	0	500	623	
14	0	0	0	0	504	623	
15	0	0	0	0	507	624	
0	0	0	0	0	510	624	
1	0	0	0	0	511	624	
2	0	0	0	0	511	624	
3	0	0	0	0	510	624	
4	0	0	0	0	507	624	
5	0	0	0	0	504	624	
6	0	0	0	0	500	625	
7	0	0	0	0	495	624	
8	0	0	0	0	489	624	
9	0	0	0	0	483	624	
10	0	0	0	0	479	624	
11	0	0	0	0	475	624	
12	0	0	0	0	475	624	
13	0	0	0	0	478	624	
14	0	0	0	0	481	624	
15	0	0	0	0	484	624	
0	0	0	0	0	485	623	
1	0	0	0	0	485	623	
2	0	0	0	0	485	623	
3	0	0	0	0	485	623	
4	0	0	0	0	485	623	
5	0	0	0	0	483	622	
6	0	0	0	0	484	622	
7	0	0	0	0	484	622	
8	0	0	0	0	485	622	
9	0	0	0	0	489	622	
10	0	0	0	0	494	621	
11	0	0	0	0	498	621	
12	0	0	0	0	502	621	
13	0	0	0	0	507	620	
14	0	0	0	0	510	621	
15	0	0	0	0	510	620	
0	0	0	0	0	508	621	
1	0	0	0	0	505	621	
2	0	0	0	0	502	620	
3	0	0	0	0	496	621	
4	0	0	0	0	492	622	
5	0	0	0	0	489	622	
6	0	0	0	0	487	621	
7	0	0	0	0	486	621	
8	0	0	0	0	486	622	
9	0	0	0	0	488	622	
10	0	0	0	0	493	622	
11	0	0	0	0	497	623	
12	0	0	0	0	502	623	
13	0	0	0	0	505	623	
14	0	0	0	0	508	623	
15	0	0	0	0	509	622	
0	0	0	0	0	509	622	
1	0	0	0	0	508	622	
2	0	0	0	0	507	622	
3	0	0	0	0	509	621	
4	0	0	0	0	510	623	
5	0	0	0	0	512	622	
6	0	0	0	0	513	623	
7	0	0	0	0	515	624	
8	0	0	0	0	515	625	
9	0	0	0	0	513	625	
10	0	0	0	0	511	625	
11	0	0	0	0	511	625	
12	0	0	0	0	512	626	
13	0	0	0	0	511	626	
14	0	0	0	0	508	626	
15	0	0	0	0	505	626	
0	0	0	0	0	504	626	
1	0	0	0	0	502	627	
2	0	0	0	0	501	628	
3	0	0	0	0	499	627	
4	0	0	0	0	496	628	
5	0	0	0	0	496	629	
6	0	0	0	0	496	628	
7	0	0	0	0	501	630	
8	0	0	0	0	507	629	
9	0	0	0	0	517	630	
10	0	0	0	0	526	630	
11	0	0	0	0	533	631	
12	0	0	0	0	536	631	
13	0	0	0	0	539	630	
14	0	0	0	0	541	631	
15	0	0	0	0	544	631	
0	0	0	0	0	547	632	
1	0	0	0	0	547	631	
2	0	0	0	0	546	631	
3	0	0	0	0	544	631	
4	0	0	0	0	537	631	
5	0	0	0	0	531	630	
6	0	0	0	0	527	630	
7	0	0	0	0	523	630	
8	0	0	0	0	522	629	
9	0	0	0	0	520	629	
10	0	0	0	0	519	628	
11	0	0	0	0	518	627	
12	0	0	0	0	518	626	
13	0	0	0	0	519	626	
14	0	0	0	0	518	625	
15	0	0	0	0	515	625	
0	0	0	0	0	515	624	
1	0	0	0	0	515	624	
2	0	0	0	0	512	623	
3	0	0	0	0	509	623	
4	0	0	0	0	506	623	
5	0	0	0	0	508	621	
6	0	0	0	0	514	622	
7	0	0	0	0	519	621	
8	0	0	0	0	521	620	
9	0	0	0	0	525	620	
10	0	0	0	0	528	620	
11	0	0	0	0	529	620	
12	0	0	0	0	527	619	
13	0	0	0	0	525	619	
14	0	0	0	0	521	619	
15	0	0	0	0	521	619	
0	0	0	0	0	521	618	
1	0	0	0	0	524	619	
2	0	0	0	0	526	618	
3	0	0	0	0	526	618	
4	0	0	0	0	527	619	
5	0	0	0	0	528	617	
6	0	0	0	0	530	618	
7	0	0	0	0	530	618	
8	0	0	0	0	528	619	
9	0	0	0	0	526	618	
10	0	0	0	0	523	618	
11	0	0	0	0	519	619	
12	0	0	0	0	515	619	
13	0	0	0	0	512	620	
14	0	0	0	0	510	619	
15	0	0	0	0	506	619	
0	0	0	0	0	504	619	
1	0	0	0	0	501	619	
2	0	0	0	0	500	619	
3	0	0	0	0	499	619	
4	0	0	0	0	498	620	
5	0	0	0	0	497	620	
6	0	0	0	0	494	620	
7	0	0	0	0	491	620	
8	0	0	0	0	489	620	
9	0	0	0	0	488	620	
10	0	0	0	0	484	621	
11	0	0	0	0	475	620	
12	0	0	0	0	468	622	
13	0	0	0	0	463	621	
14	0	0	0	0	461	621	
15	0	0	0	0	464	621	
0	0	0	0	0	470	621	
1	0	0	0	0	479	621	
2	0	0	0	0	488	621	
3	0	0	0	0	492	622	
4	0	0	0	0	496	622	
5	0	0	0	0	500	622	
6	0	0	0	0	504	620	
7	0	0	0	0	508	621	
8	0	0	0	0	512	622	
9	0	0	0	0	512	622	
10	0	0	0	0	508	621	
11	0	0	0	0	502	621	
12	0	0	0	0	498	622	
13	0	0	0	0	496	621	
14	0	0	0	0	494	622	
15	0	0	0	0	493	622	
0	0	0	0	0	491	622	
1	0	0	0	0	487	623	
2	0	0	0	0	483	622	
3	0	0	0	0	483	622	
4	0	0	0	0	486	623	
5	0	0	0	0	487	622	
6	0	0	0	0	487	623	
7	0	0	0	0	488	623	
8	0	0	0	0	492	623	
9	0	0	0	0	496	622	
10	0	0	0	0	496	623	
11	0	0	0	0	494	623	
12	0	0	0	0	494	623	
13	0	0	0	0	494	623	
14	0	0	0	0	496	622	
15	0	0	0	0	502	623	
0	0	0	0	0	503	623	
1	0	0	0	0	503	622	
2	0	0	0	0	505	622	
3	0	0	0	0	505	623	
4	0	0	0	0	507	623	
5	0	0	0	0	509	623	
6	0	0	0	0	512	623	
7	0	0	0	0	512	623	
8	0	0	0	0	511	623	
9	0	0	0	0	508	624	
10	0	0	0	0	505	624	
11	0	0	0	0	503	624	
12	0	0	0	0	499	624	
13	0	0	0	0	496	624	
14	0	0	0	0	492	625	
15	0	0	0	0	489	625	
0	0	0	0	0	487	626	
1	0	0	0	0	488	625	
2	0	0	0	0	490	626	
3	0	0	0	0	491	625	
4	0	0	0	0	494	626	
5	0	0	0	0	499	625	
6	0	0	0	0	504	625	
7	0	0	0	0	508	625	
8	0	0	0	0	514	625	
9	0	0	0	0	521	625	
10	0	0	0	0	525	624	
11	0	0	0	0	526	624	
12	0	0	0	0	524	624	
13	0	0	0	0	520	624	
14	0	0	0	0	515	624	
15	0	0	0	0	509	623	
0	0	0	0	0	504	624	
1	0	0	0	0	501	624	
2	0	0	0	0	499	623	
3	0	0	0	0	497	623	
4	0	0	0	0	495	624	
5	0	0	0	0	491	623	
6	0	0	0	0	487	622	
7	0	0	0	0	484	622	
8	0	0	0	0	485	622	
9	0	0	0	0	487	622	
10	0	0	0	0	489	622	
11	0	0	0	0	492	622	
12	0	0	0	0	499	622	
13	0	0	0	0	505	622	
14	0	0	0	0	510	622	
15	0	0	0	0	516	622	
0	0	0	0	0	519	622	
1	0	0	0	0	519	622	
2	0	0	0	0	520	621	
3	0	0	0	0	520	622	
4	0	0	0	0	520	622	
5	0	0	0	0	519	621	
6	0	0	0	0	517	622	
7	0	0	0	0	512	622	
8	0	0	0	0	510	623	
9	0	0	0	0	507	623	
10	0	0	0	0	505	623	
11	0	0	0	0	505	623	
12	0	0	0	0	508	624	
13	0	0	0	0	509	623	
14	0	0	0	0	511	624	
15	0	0	0	0	511	624	
0	0	0	0	0	513	625	
1	0	0	0	0	515	625	
2	0	0	0	0	515	625	
3	0	0	0	0	511	626	
4	0	0	0	0	506	626	
5	0	0	0	0	501	625	
6	0	0	0	0	496	626	
7	0	0	0	0	492	626	
8	0	0	0	0	490	626	
9	0	0	0	0	486	627	
10	0	0	0	0	483	627	
11	0	0	0	0	482	627	
12	0	0	0	0	482	627	
13	0	0	0	0	483	627	
14	0	0	0	0	486	627	
15	0	0	0	0	491	627	
0	0	0	0	0	498	628	
1	0	0	0	0	506	627	
2	0	0	0	0	514	627	
3	0	0	0	0	521	627	
4	0	0	0	0	524	627	
5	0	0	0	0	523	626	
6	0	0	0	0	520	626	
7	0	0	0	0	517	626	
8	0	0	0	0	514	627	
9	0	0	0	0	511	626	
10	0	0	0	0	505	627	
11	0	0	0	0	501	626	
12	0	0	0	0	498	627	
13	0	0	0	0	496	626	
14	0	0	0	0	496	626	
15	0	0	0	0	498	626	
0	0	0	0	0	504	626	
1	0	0	0	0	509	626	
2	0	0	0	0	511	626	
3	0	0	0	0	512	625	
4	0	0	0	0	513	626	
5	0	0	0	0	515	626	
6	0	0	0	0	515	625	
7	0	0	0	0	516	624	
8	0	0	0	0	517	625	
9	0	0	0	0	517	625	
10	0	0	0	0	516	625	
11	0	0	0	0	515	624	
12	0	0	0	0	513	624	
13	0	0	0	0	512	624	
14	0	0	0	0	511	623	
15	0	0	0	0	511	623	
0	0	0	0	0	511	623	
1	0	0	0	0	515	622	
2	0	0	0	0	521	623	
3	0	0	0	0	527	622	
4	0	0	0	0	529	622	
5	0	0	0	0	527	621	
6	0	0	0	0	526	622	
7	0	0	0	0	525	621	
8	0	0	0	0	527	622	
9	0	0	0	0	529	621	
10	0	0	0	0	531	621	
11	0	0	0	0	529	621	
12	0	0	0	0	530	622	
13	0	0	0	0	530	621	
14	0	0	0	0	530	621	
15	0	0	0	0	529	620	
0	0	0	0	0	529	621	
1	0	0	0	0	529	621	
2	0	0	0	0	529	621	
3	0	0	0	0	527	620	
4	0	0	0	0	526	620	
5	0	0	0	0	523	620	
6	0	0	0	0	518	620	
7	0	0	0	0	515	620	
8	0	0	0	0	511	620	
9	0	0	0	0	506	620	
10	0	0	0	0	501	620	
11	0	0	0	0	499	620	
12	0	0	0	0	497	620	
13	0	0	0	0	496	619	
14	0	0	0	0	495	620	
15	0	0	0	0	495	620	
0	0	0	0	0	499	620	
1	0	0	0	0	504	620	
2	0	0	0	0	507	620	
3	0	0	0	0	510	620	
4	0	0	0	0	510	620	
5	0	0	0	0	508	620	
6	0	0	0	0	507	620	
7	0	0	0	0	510	620	
8	0	0	0	0	510	620	
9	0	0	0	0	510	620	
10	0	0	0	0	508	620	
11	0	0	0	0	505	620	
12	0	0	0	0	505	620	
13	0	0	0	0	508	620	
14	0	0	0	0	511	620	
15	0	0	0	0	513	620	
0	0	0	0	0	516	620	
1	0	0	0	0	519	620	
2	0	0	0	0	522	620	
3	0	0	0	0	524	620	
4	0	0	0	0	526	620	
5	0	0	0	0	526	620	
6	0	0	0	0	527	620	
7	0	0	0	0	525	620	
8	0	0	0	0	524	621	
9	0	0	0	0	524	621	
10	0	0	0	0	523	621	
11	0	0	0	0	520	621	
12	0	0	0	0	517	621	
13	0	0	0	0	513	621	
14	0	0	0	0	508	621	
15	0	0	0	0	504	622	
0	0	0	0	0	501	622	
1	0	0	0	0	498	622	
2	0	0	0	0	495	622	
3	0	0	0	0	491	622	
4	0	0	0	0	489	623	
5	0	0	0	0	493	623	
6	0	0	0	0	499	622	
7	0	0	0	0	508	623	
8	0	0	0	0	512	623	
9	0	0	0	0	515	623	
10	0	0	0	0	519	623	
11	0	0	0	0	522	623	
12	0	0	0	0	522	623	
13	0	0	0	0	519	623	
14	0	0	0	0	514	623	
15	0	0	0	0	511	623	
0	0	0	0	0	508	624	
1	0	0	0	0	505	623	
2	0	0	0	0	505	624	
3	0	0	0	0	508	623	
4	0	0	0	0	511	624	
5	0	0	0	0	514	623	
6	0	0	0	0	514	623	
7	0	0	0	0	515	624	
8	0	0	0	0	515	624	
9	0	0	0	0	516	624	
10	0	0	0	0	518	624	
11	0	0	0	0	520	624	
12	0	0	0	0	521	624	
13	0	0	0	0	523	624	
14	0	0	0	0	523	624	
15	0	0	0	0	524	624	
0	0	0	0	0	524	624	
1	0	0	0	0	524	624	
2	0	0	0	0	522	624	
3	0	0	0	0	519	624	
4	0	0	0	0	516	625	
5	0	0	0	0	514	625	
6	0	0	0	0	513	624	
7	0	0	0	0	512	624	
8	0	0	0	0	511	624	
9	0	0	0	0	509	624	
10	0	0	0	0	506	625	
11	0	0	0	0	503	624	
12	0	0	0	0	499	624	
13	0	0	0	0	497	624	
14	0	0	0	0	495	623	
15	0	0	0	0	495	624	
0	0	0	0	0	495	624	
1	0	0	0	0	496	624	
2	0	0	0	0	496	624	
3	0	0	0	0	497	624	
4	0	0	0	0	498	624	
5	0	0	0	0	499	624	
6	0	0	0	0	500	623	
7	0	0	0	0	501	623	
8	0	0	0	0	502	623	
9	0	0	0	0	504	623	
10	0	0	0	0	505	623	
11	0	0	0	0	508	623	
12	0	0	0	0	511	623	
13	0	0	0	0	513	623	
14	0	0	0	0	515	623	
15	0	0	0	0	516	623	
0	0	0	0	0	516	623	
1	0	0	0	0	515	623	
2	0	0	0	0	515	623	
3	0	0	0	0	513	622	
4	0	0	0	0	511	623	
5	0	0	0	0	509	622	
6	0	0	0	0	508	623	
7	0	0	0	0	504	623	
8	0	0	0	0	500	623	
9	0	0	0	0	495	623	
10	0	0	0	0	491	622	
11	0	0	0	0	490	623	
12	0	0	0	0	491	623	
13	0	0	0	0	494	623	
14	0	0	0	0	497	622	
15	0	0	0	0	501	622	
0	0	0	0	0	500	623	
1	0	0	0	0	500	623	
2	0	0	0	0	501	623	
3	0	0	0	0	502	623	
4	0	0	0	0	504	624	
5	0	0	0	0	507	623	
6	0	0	0	0	509	623	
7	0	0	0	0	510	623	
8	0	0	0	0	510	623	
9	0	0	0	0	511	623	
10	0	0	0	0	513	623	
11	0	0	0	0	513	623	
12	0	0	0	0	514	623	
13	0	0	0	0	517	624	
14	0	0	0	0	519	623	
15	0	0	0	0	520	624	
0	0	0	0	0	522	624	
1	0	0	0	0	524	624	
2	0	0	0	0	524	624	
3	0	0	0	0	524	624	
4	0	0	0	0	519	624	
5	0	0	0	0	514	623	
6	0	0	0	0	511	623	
7	0	0	0	0	507	624	
8	0	0	0	0	505	624	
9	0	0	0	0	502	624	
10	0	0	0	0	495	623	
11	0	0	0	0	491	624	
12	0	0	0	0	486	624	
13	0	0	0	0	483	623	
14	0	0	0	0	481	623	
15	0	0	0	0	482	623	
0	0	0	0	0	483	623	
1	0	0	0	0	483	623	
2	0	0	0	0	481	623	
3	0	0	0	0	479	622	
4	0	0	0	0	478	623	
5	0	0	0	0	477	621	
6	0	0	0	0	478	622	
7	0	0	0	0	482	622	
8	0	0	0	0	490	622	
9	0	0	0	0	497	622	
10	0	0	0	0	500	621	
11	0	0	0	0	501	621	
12	0	0	0	0	503	622	
13	0	0	0	0	504	621	
14	0	0	0	0	504	621	
15	0	0	0	0	503	622	
0	0	0	0	0	502	621	
1	0	0	0	0	502	620	
2	0	0	0	0	501	621	
3	0	0	0	0	500	620	
4	0	0	0	0	499	620	
5	0	0	0	0	495	620	
6	0	0	0	0	489	620	
7	0	0	0	0	484	620	
8	0	0	0	0	481	620	
9	0	0	0	0	477	620	
10	0	0	0	0	472	620	
11	0	0	0	0	471	620	
12	0	0	0	0	471	619	
13	0	0	0	0	473	619	
14	0	0	0	0	475	619	
15	0	0	0	0	478	619	
0	0	0	0	0	480	620	
1	0	0	0	0	484	620	
2	0	0	0	0	490	620	
3	0	0	0	0	493	619	
4	0	0	0	0	496	619	
5	0	0	0	0	500	619	
6	0	0	0	0	504	619	
7	0	0	0	0	506	619	
8	0	0	0	0	507	619	
9	0	0	0	0	507	619	
10	0	0	0	0	507	619	
11	0	0	0	0	507	619	
12	0	0	0	0	507	620	
13	0	0	0	0	505	619	
14	0	0	0	0	504	619	
15	0	0	0	0	504	619	
0	0	0	0	0	503	619	
1	0	0	0	0	503	620	
2	0	0	0	0	502	620	
3	0	0	0	0	500	620	
4	0	0	0	0	496	620	
5	0	0	0	0	493	621	
6	0	0	0	0	493	621	
7	0	0	0	0	491	621	
8	0	0	0	0	488	621	
9	0	0	0	0	486	621	
10	0	0	0	0	486	621	
11	0	0	0	0	487	622	
12	0	0	0	0	489	622	
13	0	0	0	0	496	622	
14	0	0	0	0	502	622	
15	0	0	0	0	505	622	
0	0	0	0	0	503	623	
1	0	0	0	0	502	623	
2	0	0	0	0	504	622	
3	0	0	0	0	508	623	
4	0	0	0	0	511	623	
5	0	0	0	0	513	623	
6	0	0	0	0	515	623	
7	0	0	0	0	520	624	
8	0	0	0	0	521	624	
9	0	0	0	0	518	624	
10	0	0	0	0	513	623	
11	0	0	0	0	512	624	
12	0	0	0	0	511	624	
13	0	0	0	0	509	624	
14	0	0	0	0	505	624	
15	0	0	0	0	502	624	
0	0	0	0	0	496	624	
1	0	0	0	0	492	625	
2	0	0	0	0	488	624	
3	0	0	0	0	487	624	
4	0	0	0	0	486	625	
5	0	0	0	0	485	625	
6	0	0	0	0	484	624	
7	0	0	0	0	486	625	
8	0	0	0	0	491	625	
9	0	0	0	0	496	625	
10	0	0	0	0	502	624	
11	0	0	0	0	507	624	
12	0	0	0	0	506	626	
13	0	0	0	0	504	625	
14	0	0	0	0	502	625	
15	0	0	0	0	500	625	
0	0	0	0	0	500	624	
1	0	0	0	0	499	624	
2	0	0	0	0	496	624	
3	0	0	0	0	491	624	
4	0	0	0	0	484	624	
5	0	0	0	0	476	624	
6	0	0	0	0	465	624	
7	0	0	0	0	456	624	
8	0	0	0	0	453	624	
9	0	0	0	0	453	624	
10	0	0	0	0	458	624	
11	0	0	0	0	466	624	
12	0	0	0	0	475	624	
13	0	0	0	0	485	624	
14	0	0	0	0	494	623	
15	0	0	0	0	500	623	
0	0	0	0	0	501	624	
1	0	0	0	0	502	623	
2	0	0	0	0	503	623	
3	0	0	0	0	503	622	
4	0	0	0	0	501	623	
5	0	0	0	0	501	623	
6	0	0	0	0	500	622	
7	0	0	0	0	498	623	
8	0	0	0	0	498	623	
9	0	0	0	0	500	622	
10	0	0	0	0	500	622	
11	0	0	0	0	500	622	
12	0	0	0	0	503	622	
13	0	0	0	0	506	622	
14	0	0	0	0	510	622	
15	0	0	0	0	514	621	
0	0	0	0	0	517	622	
1	0	0	0	0	519	621	
2	0	0	0	0	521	622	
3	0	0	0	0	520	621	
4	0	0	0	0	516	622	
5	0	0	0	0	513	621	
6	0	0	0	0	511	621	
7	0	0	0	0	510	621	
8	0	0	0	0	507	622	
9	0	0	0	0	505	621	
10	0	0	0	0	504	622	
11	0	0	0	0	503	622	
12	0	0	0	0	500	621	
13	0	0	0	0	498	621	
14	0	0	0	0	496	621	
15	0	0	0	0	495	621	
0	0	0	0	0	490	622	
1	0	0	0	0	484	622	
2	0	0	0	0	479	621	
3	0	0	0	0	478	621	
4	0	0	0	0	478	622	
5	0	0	0	0	479	622	
6	0	0	0	0	480	622	
7	0	0	0	0	483	621	
8	0	0	0	0	486	622	
9	0	0	0	0	487	621	
10	0	0	0	0	483	622	
11	0	0	0	0	477	622	
12	0	0	0	0	472	623	
13	0	0	0	0	470	622	
14	0	0	0	0	469	623	
15	0	0	0	0	470	623	
0	0	0	0	0	471	623	
1	0	0	0	0	471	622	
2	0	0	0	0	468	622	
3	0	0	0	0	466	623	
4	0	0	0	0	461	623	
5	0	0	0	0	453	623	
6	0	0	0	0	446	623	
7	0	0	0	0	436	623	
8	0	0	0	0	428	624	
9	0	0	0	0	425	624	
10	0	0	0	0	427	624	
11	0	0	0	0	433	623	
12	0	0	0	0	440	624	
13	0	0	0	0	448	623	
14	0	0	0	0	463	624	
15	0	0	0	0	483	624	
0	0	0	0	0	505	624	
1	0	0	0	0	528	624	
2	0	0	0	0	551	624	
3	0	0	0	0	572	624	
4	0	0	0	0	592	625	
5	0	0	0	0	610	624	
6	0	0	0	0	624	624	
7	0	0	0	0	633	624	
8	0	0	0	0	639	624	
9	0	0	0	0	648	624	
10	0	0	0	0	659	624	
11	0	0	0	0	668	624	
12	0	0	0	0	672	624	
13	0	0	0	0	672	623	
14	0	0	0	0	668	624	
15	0	0	0	0	663	623	
0	0	0	0	0	656	624	
1	0	0	0	0	649	624	
2	0	0	0	0	643	623	
3	0	0	0	0	636	624	
4	0	0	0	0	623	624	
5	0	0	0	0	612	624	
6	0	0	0	0	605	624	
7	0	0	0	0	602	623	
8	0	0	0	0	598	623	
9	0	0	0	0	592	624	
10	0	0	0	0	588	623	
11	0	0	0	0	588	623	
12	0	0	0	0	587	624	
13	0	0	0	0	583	623	
14	0	0	0	0	579	623	
15	0	0	0	0	572	623	
0	0	0	0	0	561	623	
1	0	0	0	0	551	623	
2	0	0	0	0	543	624	
3	0	0	0	0	535	622	
4	0	0	0	0	526	623	
5	0	0	0	0	517	623	
6	0	0	0	0	511	623	
7	0	0	0	0	506	623	
8	0	0	0	0	502	623	
9	0	0	0	0	496	623	
10	0	0	0	0	489	623	
11	0	0	0	0	481	623	
12	0	0	0	0	479	623	
13	0	0	0	0	478	623	
14	0	0	0	0	479	622	
15	0	0	0	0	477	623	
0	0	0	0	0	477	623	
1	0	0	0	0	479	623	
2	0	0	0	0	481	623	
3	0	0	0	0	483	623	
4	0	0	0	0	484	622	
5	0	0	0	0	484	622	
6	0	0	0	0	481	622	
7	0	0	0	0	476	622	
8	0	0	0	0	470	622	
9	0	0	0	0	464	622	
10	0	0	0	0	462	622	
11	0	0	0	0	464	622	
12	0	0	0	0	468	623	
13	0	0	0	0	472	623	
14	0	0	0	0	477	622	
15	0	0	0	0	483	622	
0	0	0	0	0	489	622	
1	0	0	0	0	495	622	
2	0	0	0	0	499	622	
3	0	0	0	0	504	622	
4	0	0	0	0	508	622	
5	0	0	0	0	509	622	
6	0	0	0	0	510	623	
7	0	0	0	0	510	623	
8	0	0	0	0	507	623	
9	0	0	0	0	505	623	
10	0	0	0	0	505	623	
11	0	0	0	0	505	623	
12	0	0	0	0	504	624	
13	0	0	0	0	504	623	
14	0	0	0	0	506	623	
15	0	0	0	0	508	623	
0	0	0	0	0	506	624	
1	0	0	0	0	502	623	
2	0	0	0	0	497	624	
3	0	0	0	0	493	623	
4	0	0	0	0	489	623	
5	0	0	0	0	485	623	
6	0	0	0	0	484	623	
7	0	0	0	0	484	623	
8	0	0	0	0	486	624	
9	0	0	0	0	484	623	
10	0	0	0	0	483	623	
11	0	0	0	0	483	623	
12	0	0	0	0	486	623	
13	0	0	0	0	489	623	
14	0	0	0	0	492	623	
15	0	0	0	0	492	624	
0	0	0	0	0	491	624	
1	0	0	0	0	491	624	
2	0	0	0	0	491	623	
3	0	0	0	0	493	623	
4	0	0	0	0	493	624	
5	0	0	0	0	491	623	
6	0	0	0	0	490	623	
7	0	0	0	0	490	624	
8	0	0	0	0	489	624	
9	0	0	0	0	486	623	
10	0	0	0	0	479	624	
11	0	0	0	0	470	623	
12	0	0	0	0	464	624	
13	0	0	0	0	460	623	
14	0	0	0	0	456	623	
15	0	0	0	0	454	623	
0	0	0	0	0	454	624	
1	0	0	0	0	456	624	
2	0	0	0	0	461	624	
3	0	0	0	0	467	624	
4	0	0	0	0	476	625	
5	0	0	0	0	484	624	
6	0	0	0	0	487	624	
7	0	0	0	0	487	624	
8	0	0	0	0	486	624	
9	0	0	0	0	484	624	
10	0	0	0	0	481	624	
11	0	0	0	0	479	625	
12	0	0	0	0	479	625	
13	0	0	0	0	481	625	
14	0	0	0	0	488	625	
15	0	0	0	0	495	624	
0	0	0	0	0	501	625	
1	0	0	0	0	509	625	
2	0	0	0	0	517	625	
3	0	0	0	0	520	625	
4	0	0	0	0	519	625	
5	0	0	0	0	518	624	
6	0	0	0	0	519	624	
7	0	0	0	0	518	625	
8	0	0	0	0	516	625	
9	0	0	0	0	513	624	
10	0	0	0	0	511	625	
11	0	0	0	0	508	624	
12	0	0	0	0	507	625	
13	0	0	0	0	505	624	
14	0	0	0	0	502	624	
15	0	0	0	0	496	624	
0	0	0	0	0	493	625	
1	0	0	0	0	491	624	
2	0	0	0	0	492	624	
3	0	0	0	0	496	624	
4	0	0	0	0	499	624	
5	0	0	0	0	502	624	
6	0	0	0	0	503	624	
7	0	0	0	0	501	624	
8	0	0	0	0	497	623	
9	0	0	0	0	493	623	
10	0	0	0	0	492	623	
11	0	0	0	0	488	622	
12	0	0	0	0	486	623	
13	0	0	0	0	486	623	
14	0	0	0	0	486	623	
15	0	0	0	0	488	623	
0	0	0	0	0	489	623	
1	0	0	0	0	494	622	
2	0	0	0	0	499	622	
3	0	0	0	0	504	621	
4	0	0	0	0	509	622	
5	0	0	0	0	512	622	
6	0	0	0	0	511	621	
7	0	0	0	0	509	621	
8	0	0	0	0	511	622	
9	0	0	0	0	510	621	
10	0	0	0	0	512	621	
11	0	0	0	0	513	621	
12	0	0	0	0	513	621	
13	0	0	0	0	512	620	
14	0	0	0	0	509	620	
15	0	0	0	0	507	621	
0	0	0	0	0	502	621	
1	0	0	0	0	496	620	
2	0	0	0	0	495	620	
3	0	0	0	0	495	620	
4	0	0	0	0	495	620	
5	0	0	0	0	496	620	
6	0	0	0	0	499	620	
7	0	0	0	0	501	620	
8	0	0	0	0	502	620	
9	0	0	0	0	500	620	
10	0	0	0	0	499	621	
11	0	0	0	0	499	620	
12	0	0	0	0	498	620	
13	0	0	0	0	500	620	
14	0	0	0	0	502	620	
15	0	0	0	0	503	620	
0	0	0	0	0	502	620	
1	0	0	0	0	503	620	
2	0	0	0	0	506	620	
3	0	0	0	0	510	620	
4	0	0	0	0	512	620	
5	0	0	0	0	513	620	
6	0	0	0	0	517	620	
7	0	0	0	0	518	620	
8	0	0	0	0	521	620	
9	0	0	0	0	521	620	
10	0	0	0	0	516	620	
11	0	0	0	0	511	620	
12	0	0	0	0	505	621	
13	0	0	0	0	500	621	
14	0	0	0	0	496	620	
15	0	0	0	0	492	620	
0	0	0	0	0	492	621	
1	0	0	0	0	493	621	
2	0	0	0	0	496	621	
3	0	0	0	0	497	621	
4	0	0	0	0	500	620	
5	0	0	0	0	504	621	
6	0	0	0	0	510	622	
7	0	0	0	0	515	621	
8	0	0	0	0	519	620	
9	0	0	0	0	524	621	
10	0	0	0	0	525	621	
11	0	0	0	0	525	621	
12	0	0	0	0	525	622	
13	0	0	0	0	525	622	
14	0	0	0	0	525	622	
15	0	0	0	0	524	622	
0	0	0	0	0	524	622	
1	0	0	0	0	525	623	
2	0	0	0	0	526	623	
3	0	0	0	0	526	622	
4	0	0	0	0	528	623	
5	0	0	0	0	531	623	
6	0	0	0	0	533	623	
7	0	0	0	0	533	623	
8	0	0	0	0	532	624	
9	0	0	0	0	532	623	
10	0	0	0	0	534	623	
11	0	0	0	0	536	623	
12	0	0	0	0	538	624	
13	0	0	0	0	538	624	
14	0	0	0	0	537	623	
15	0	0	0	0	538	624	
0	0	0	0	0	536	623	
1	0	0	0	0	536	624	
2	0	0	0	0	535	624	
3	0	0	0	0	531	624	
4	0	0	0	0	529	624	
5	0	0	0	0	528	624	
6	0	0	0	0	527	625	
7	0	0	0	0	527	625	
8	0	0	0	0	529	624	
9	0	0	0	0	530	625	
10	0	0	0	0	529	624	
11	0	0	0	0	529	624	
12	0	0	0	0	527	624	
13	0	0	0	0	527	624	
14	0	0	0	0	526	624	
15	0	0	0	0	526	624	
0	0	0	0	0	524	624	
1	0	0	0	0	524	624	
2	0	0	0	0	524	624	
3	0	0	0	0	526	624	
4	0	0	0	0	530	625	
5	0	0	0	0	531	624	
6	0	0	0	0	527	624	
7	0	0	0	0	525	624	
8	0	0	0	0	523	624	
9	0	0	0	0	520	624	
10	0	0	0	0	519	624	
11	0	0	0	0	519	623	
12	0	0	0	0	519	624	
13	0	0	0	0	518	624	
14	0	0	0	0	517	624	
15	0	0	0	0	518	624	
0	0	0	0	0	517	624	
1	0	0	0	0	515	623	
2	0	0	0	0	512	623	
3	0	0	0	0	509	623	
4	0	0	0	0	508	623	
5	0	0	0	0	505	622	
6	0	0	0	0	502	623	
7	0	0	0	0	502	623	
8	0	0	0	0	502	622	
9	0	0	0	0	504	622	
10	0	0	0	0	503	622	
11	0	0	0	0	502	622	
12	0	0	0	0	500	622	
13	0	0	0	0	502	621	
14	0	0	0	0	503	621	
15	0	0	0	0	502	622	
0	0	0	0	0	502	622	
1	0	0	0	0	500	621	
2	0	0	0	0	499	621	
3	0	0	0	0	498	621	
4	0	0	0	0	497	621	
5	0	0	0	0	496	621	
6	0	0	0	0	494	620	
7	0	0	0	0	493	621	
8	0	0	0	0	490	621	
9	0	0	0	0	486	621	
10	0	0	0	0	481	621	
11	0	0	0	0	476	620	
12	0	0	0	0	475	621	
13	0	0	0	0	473	620	
14	0	0	0	0	472	620	
15	0	0	0	0	473	620	
0	0	0	0	0	474	621	
1	0	0	0	0	474	620	
2	0	0	0	0	475	620	
3	0	0	0	0	477	620	
4	0	0	0	0	480	621	
5	0	0	0	0	482	621	
6	0	0	0	0	485	621	
7	0	0	0	0	487	620	
8	0	0	0	0	489	620	
9	0	0	0	0	491	620	
10	0	0	0	0	492	620	
11	0	0	0	0	491	620	
12	0	0	0	0	489	621	
13	0	0	0	0	489	621	
14	0	0	0	0	488	621	
15	0	0	0	0	489	621	
0	0	0	0	0	489	621	
1	0	0	0	0	486	620	
2	0	0	0	0	481	620	
3	0	0	0	0	476	621	
4	0	0	0	0	474	622	
5	0	0	0	0	475	620	
6	0	0	0	0	475	621	
7	0	0	0	0	475	622	
8	0	0	0	0	476	622	
9	0	0	0	0	477	621	
10	0	0	0	0	478	622	
11	0	0	0	0	480	622	
12	0	0	0	0	480	622	
13	0	0	0	0	479	622	
14	0	0	0	0	482	622	
15	0	0	0	0	488	622	
0	0	0	0	0	495	622	
1	0	0	0	0	501	622	
2	0	0	0	0	508	622	
3	0	0	0	0	514	622	
4	0	0	0	0	519	623	
5	0	0	0	0	523	623	
6	0	0	0	0	526	623	
7	0	0	0	0	527	623	
8	0	0	0	0	525	623	
9	0	0	0	0	521	623	
10	0	0	0	0	516	624	
11	0	0	0	0	512	624	
12	0	0	0	0	507	624	
13	0	0	0	0	502	623	
14	0	0	0	0	496	624	
15	0	0	0	0	491	624	
0	0	0	0	0	485	624	
1	0	0	0	0	480	624	
2	0	0	0	0	479	624	
3	0	0	0	0	480	624	
4	0	0	0	0	480	624	
5	0	0	0	0	481	624	
6	0	0	0	0	481	624	
7	0	0	0	0	481	624	
8	0	0	0	0	480	625	
9	0	0	0	0	480	625	
10	0	0	0	0	483	624	
11	0	0	0	0	488	624	
12	0	0	0	0	492	624	
13	0	0	0	0	496	624	
14	0	0	0	0	500	625	
15	0	0	0	0	505	624	
0	0	0	0	0	508	625	
1	0	0	0	0	508	625	
2	0	0	0	0	509	624	
3	0	0	0	0	509	624	
4	0	0	0	0	508	624	
5	0	0	0	0	506	624	
6	0	0	0	0	504	624	
7	0	0	0	0	502	624	
8	0	0	0	0	500	624	
9	0	0	0	0	499	624	
10	0	0	0	0	499	624	
11	0	0	0	0	498	624	
12	0	0	0	0	497	624	
13	0	0	0	0	495	624	
14	0	0	0	0	493	624	
15	0	0	0	0	492	623	
0	0	0	0	0	492	624	
1	0	0	0	0	492	623	
2	0	0	0	0	494	623	
3	0	0	0	0	496	623	
4	0	0	0	0	496	623	
5	0	0	0	0	497	623	
6	0	0	0	0	497	622	
7	0	0	0	0	498	623	
8	0	0	0	0	499	623	
9	0	0	0	0	499	623	
10	0	0	0	0	500	623	
11	0	0	0	0	500	623	
12	0	0	0	0	496	623	
13	0	0	0	0	493	622	
14	0	0	0	0	491	622	
15	0	0	0	0	490	622	
0	0	0	0	0	489	622	
1	0	0	0	0	487	622	
2	0	0	0	0	484	622	
3	0	0	0	0	485	622	
4	0	0	0	0	486	623	
5	0	0	0	0	488	622	
6	0	0	0	0	492	622	
7	0	0	0	0	495	621	
8	0	0	0	0	495	622	
9	0	0	0	0	496	621	
10	0	0	0	0	499	622	
11	0	0	0	0	502	622	
12	0	0	0	0	505	622	
13	0	0	0	0	509	622	
14	0	0	0	0	512	622	
15	0	0	0	0	515	622	
0	0	0	0	0	517	621	
1	0	0	0	0	519	621	
2	0	0	0	0	520	621	
3	0	0	0	0	521	621	
4	0	0	0	0	523	621	
5	0	0	0	0	522	621	
6	0	0	0	0	520	621	
7	0	0	0	0	520	621	
8	0	0	0	0	519	622	
9	0	0	0	0	518	621	
10	0	0	0	0	517	621	
11	0	0	0	0	516	621	
12	0	0	0	0	514	621	
13	0	0	0	0	512	621	
14	0	0	0	0	511	621	
15	0	0	0	0	510	621	
0	0	0	0	0	509	621	
1	0	0	0	0	508	621	
2	0	0	0	0	505	621	
3	0	0	0	0	502	621	
4	0	0	0	0	498	621	
5	0	0	0	0	496	620	
6	0	0	0	0	497	620	
7	0	0	0	0	494	620	
8	0	0	0	0	492	621	
9	0	0	0	0	492	621	
10	0	0	0	0	489	620	
11	0	0	0	0	487	620	
12	0	0	0	0	487	621	
13	0	0	0	0	489	621	
14	0	0	0	0	491	620	
15	0	0	0	0	494	621	
0	0	0	0	0	496	621	
1	0	0	0	0	498	621	
2	0	0	0	0	501	620	
3	0	0	0	0	504	621	
4	0	0	0	0	507	621	
5	0	0	0	0	509	621	
6	0	0	0	0	512	621	
7	0	0	0	0	512	621	
8	0	0	0	0	512	622	
9	0	0	0	0	511	622	
10	0	0	0	0	508	622	
11	0	0	0	0	507	622	
12	0	0	0	0	505	622	
13	0	0	0	0	501	622	
14	0	0	0	0	498	622	
15	0	0	0	0	496	622	
0	0	0	0	0	497	622	
1	0	0	0	0	499	622	
2	0	0	0	0	501	622	
3	0	0	0	0	504	622	
4	0	0	0	0	506	623	
5	0	0	0	0	509	622	
6	0	0	0	0	510	623	
7	0	0	0	0	509	622	
8	0	0	0	0	509	622	
9	0	0	0	0	508	622	
10	0	0	0	0	504	622	
11	0	0	0	0	500	622	
12	0	0	0	0	498	623	
13	0	0	0	0	497	622	
14	0	0	0	0	495	622	
15	0	0	0	0	493	622	
0	0	0	0	0	494	622	
1	0	0	0	0	496	622	
2	0	0	0	0	497	622	
3	0	0	0	0	498	622	
4	0	0	0	0	500	622	
5	0	0	0	0	502	622	
6	0	0	0	0	503	622	
7	0	0	0	0	502	622	
8	0	0	0	0	501	622	
9	0	0	0	0	503	622	
10	0	0	0	0	505	622	
11	0	0	0	0	507	622	
12	0	0	0	0	506	622	
13	0	0	0	0	506	622	
14	0	0	0	0	505	622	
15	0	0	0	0	504	621	
0	0	0	0	0	504	622	
1	0	0	0	0	504	622	
2	0	0	0	0	504	622	
3	0	0	0	0	504	622	
4	0	0	0	0	503	622	
5	0	0	0	0	503	622	
6	0	0	0	0	502	622	
7	0	0	0	0	503	622	
8	0	0	0	0	503	622	
9	0	0	0	0	504	622	
10	0	0	0	0	504	622	
11	0	0	0	0	504	622	
12	0	0	0	0	506	623	
13	0	0	0	0	508	622	
14	0	0	0	0	508	623	
15	0	0	0	0	506	622	
0	0	0	0	0	502	623	
1	0	0	0	0	499	623	
2	0	0	0	0	498	623	
3	0	0	0	0	498	623	
4	0	0	0	0	501	623	
5	0	0	0	0	505	623	
6	0	0	0	0	511	623	
7	0	0	0	0	518	623	
8	0	0	0	0	522	623	
9	0	0	0	0	524	623	
10	0	0	0	0	525	623	
11	0	0	0	0	527	623	
12	0	0	0	0	527	624	
13	0	0	0	0	527	624	
14	0	0	0	0	527	624	
15	0	0	0	0	522	623	
0	0	0	0	0	518	623	
1	0	0	0	0	515	623	
2	0	0	0	0	514	623	
3	0	0	0	0	512	623	
4	0	0	0	0	511	623	
5	0	0	0	0	511	623	
6	0	0	0	0	511	624	
7	0	0	0	0	510	624	
8	0	0	0	0	510	624	
9	0	0	0	0	510	624	
10	0	0	0	0	509	624	
11	0	0	0	0	509	623	
12	0	0	0	0	510	624	
13	0	0	0	0	511	624	
14	0	0	0	0	511	624	
15	0	0	0	0	511	624	
0	0	0	0	0	509	623	
1	0	0	0	0	506	624	
2	0	0	0	0	503	623	
3	0	0	0	0	500	623	
4	0	0	0	0	498	624	
5	0	0	0	0	499	623	
6	0	0	0	0	499	624	
7	0	0	0	0	499	624	
8	0	0	0	0	502	624	
9	0	0	0	0	504	624	
10	0	0	0	0	506	624	
11	0	0	0	0	507	624	
12	0	0	0	0	507	624	
13	0	0	0	0	509	624	
14	0	0	0	0	510	625	
15	0	0	0	0	513	624	
0	0	0	0	0	512	624	
1	0	0	0	0	510	624	
2	0	0	0	0	510	625	
3	0	0	0	0	510	624	
4	0	0	0	0	509	624	
5	0	0	0	0	507	624	
6	0	0	0	0	504	624	
7	0	0	0	0	504	624	
8	0	0	0	0	504	624	
9	0	0	0	0	503	624	
10	0	0	0	0	502	625	
11	0	0	0	0	502	625	
12	0	0	0	0	500	624	
13	0	0	0	0	497	624	
14	0	0	0	0	492	624	
15	0	0	0	0	490	624	
0	0	0	0	0	489	624	
1	0	0	0	0	489	624	
2	0	0	0	0	491	624	
3	0	0	0	0	494	624	
4	0	0	0	0	496	624	
5	0	0	0	0	499	624	
6	0	0	0	0	503	624	
7	0	0	0	0	508	624	
8	0	0	0	0	511	624	
9	0	0	0	0	512	624	
10	0	0	0	0	513	623	
11	0	0	0	0	515	623	
12	0	0	0	0	514	624	
13	0	0	0	0	516	623	
14	0	0	0	0	518	623	
15	0	0	0	0	518	623	
0	0	0	0	0	519	623	
1	0	0	0	0	522	623	
2	0	0	0	0	526	623	
3	0	0	0	0	530	623	
4	0	0	0	0	531	624	
5	0	0	0	0	532	624	
6	0	0	0	0	530	624	
7	0	0	0	0	527	624	
8	0	0	0	0	523	623	
9	0	0	0	0	517	624	
10	0	0	0	0	511	623	
11	0	0	0	0	508	622	
12	0	0	0	0	506	623	
13	0	0	0	0	503	623	
14	0	0	0	0	501	623	
15	0	0	0	0	500	622	
0	0	0	0	0	501	623	
1	0	0	0	0	503	622	
2	0	0	0	0	507	623	
3	0	0	0	0	511	623	
4	0	0	0	0	514	623	
5	0	0	0	0	516	622	
6	0	0	0	0	519	623	
7	0	0	0	0	523	622	
8	0	0	0	0	525	623	
9	0	0	0	0	526	623	
10	0	0	0	0	527	623	
11	0	0	0	0	525	623	
12	0	0	0	0	524	623	
13	0	0	0	0	523	623	
14	0	0	0	0	522	622	
15	0	0	0	0	519	623	
0	0	0	0	0	516	622	
1	0	0	0	0	514	622	
2	0	0	0	0	510	623	
3	0	0	0	0	507	622	
4	0	0	0	0	506	623	
5	0	0	0	0	502	623	
6	0	0	0	0	497	622	
7	0	0	0	0	495	623	
8	0	0	0	0	492	623	
9	0	0	0	0	488	623	
10	0	0	0	0	486	623	
11	0	0	0	0	482	622	
12	0	0	0	0	481	623	
13	0	0	0	0	482	622	
14	0	0	0	0	483	622	
15	0	0	0	0	486	622	
0	0	0	0	0	490	622	
1	0	0	0	0	496	622	
2	0	0	0	0	501	622	
3	0	0	0	0	504	622	
4	0	0	0	0	506	622	
5	0	0	0	0	509	622	
6	0	0	0	0	512	621	
7	0	0	0	0	516	621	
8	0	0	0	0	519	621	
9	0	0	0	0	523	621	
10	0	0	0	0	526	621	
11	0	0	0	0	527	621	
12	0	0	0	0	529	621	
13	0	0	0	0	530	621	
14	0	0	0	0	529	621	
15	0	0	0	0	528	622	
0	0	0	0	0	525	622	
1	0	0	0	0	522	621	
2	0	0	0	0	520	621	
3	0	0	0	0	519	621	
4	0	0	0	0	518	622	
5	0	0	0	0	516	621	
6	0	0	0	0	514	621	
7	0	0	0	0	512	621	
8	0	0	0	0	509	621	
9	0	0	0	0	508	621	
10	0	0	0	0	508	621	
11	0	0	0	0	508	621	
12	0	0	0	0	503	621	
13	0	0	0	0	500	620	
14	0	0	0	0	499	620	
15	0	0	0	0	498	621	
0	0	0	0	0	499	620	
1	0	0	0	0	497	620	
2	0	0	0	0	497	621	
3	0	0	0	0	500	620	
4	0	0	0	0	501	621	
5	0	0	0	0	504	621	
6	0	0	0	0	511	621	
7	0	0	0	0	518	622	
8	0	0	0	0	524	621	
9	0	0	0	0	526	621	
10	0	0	0	0	527	620	
11	0	0	0	0	527	621	
12	0	0	0	0	527	621	
13	0	0	0	0	529	621	
14	0	0	0	0	527	621	
15	0	0	0	0	524	621	
0	0	0	0	0	518	621	
1	0	0	0	0	514	621	
2	0	0	0	0	509	622	
3	0	0	0	0	504	621	
4	0	0	0	0	501	622	
5	0	0	0	0	501	622	
6	0	0	0	0	502	622	
7	0	0	0	0	501	622	
8	0	0	0	0	500	622	
9	0	0	0	0	500	622	
10	0	0	0	0	500	622	
11	0	0	0	0	502	622	
12	0	0	0	0	505	622	
13	0	0	0	0	508	622	
14	0	0	0	0	509	622	
15	0	0	0	0	512	622	
0	0	0	0	0	515	623	
1	0	0	0	0	518	622	
2	0	0	0	0	519	622	
3	0	0	0	0	519	622	
4	0	0	0	0	518	623	
5	0	0	0	0	517	623	
6	0	0	0	0	518	623	
7	0	0	0	0	517	623	
8	0	0	0	0	518	623	
9	0	0	0	0	519	623	
10	0	0	0	0	519	623	
11	0	0	0	0	519	623	
12	0	0	0	0	519	623	
13	0	0	0	0	519	623	
14	0	0	0	0	519	623	
15	0	0	0	0	518	624	
0	0	0	0	0	514	623	
1	0	0	0	0	510	623	
2	0	0	0	0	503	623	
3	0	0	0	0	498	623	
4	0	0	0	0	495	624	
5	0	0	0	0	493	624	
6	0	0	0	0	493	623	
7	0	0	0	0	494	624	
8	0	0	0	0	496	624	
9	0	0	0	0	497	624	
10	0	0	0	0	502	624	
11	0	0	0	0	507	624	
12	0	0	0	0	511	624	
13	0	0	0	0	512	623	
14	0	0	0	0	513	623	
15	0	0	0	0	515	623	
0	0	0	0	0	517	623	
1	0	0	0	0	519	624	
2	0	0	0	0	520	623	
3	0	0	0	0	519	623	
4	0	0	0	0	517	624	
5	0	0	0	0	515	623	
6	0	0	0	0	513	623	
7	0	0	0	0	512	623	
8	0	0	0	0	510	624	
9	0	0	0	0	508	624	
10	0	0	0	0	507	624	
11	0	0	0	0	507	623	
12	0	0	0	0	506	624	
13	0	0	0	0	505	623	
14	0	0	0	0	506	623	
15	0	0	0	0	508	623	
0	0	0	0	0	508	623	
1	0	0	0	0	506	622	
2	0	0	0	0	502	623	
3	0	0	0	0	497	623	
4	0	0	0	0	495	623	
5	0	0	0	0	493	623	
6	0	0	0	0	492	622	
7	0	0	0	0	490	623	
8	0	0	0	0	492	623	
9	0	0	0	0	494	622	
10	0	0	0	0	495	622	
11	0	0	0	0	496	622	
12	0	0	0	0	498	622	
13	0	0	0	0	499	622	
14	0	0	0	0	497	622	
15	0	0	0	0	493	622	
0	0	0	0	0	486	622	
1	0	0	0	0	479	622	
2	0	0	0	0	475	621	
3	0	0	0	0	471	622	
4	0	0	0	0	465	623	
5	0	0	0	0	458	623	
6	0	0	0	0	450	622	
7	0	0	0	0	444	622	
8	0	0	0	0	438	623	
9	0	0	0	0	435	622	
10	0	0	0	0	432	622	
11	0	0	0	0	433	622	
12	0	0	0	0	436	622	
13	0	0	0	0	441	622	
14	0	0	0	0	448	622	
15	0	0	0	0	456	622	
0	0	0	0	0	465	622	
1	0	0	0	0	474	622	
2	0	0	0	0	486	622	
3	0	0	0	0	499	622	
4	0	0	0	0	514	623	
5	0	0	0	0	531	623	
6	0	0	0	0	547	622	
7	0	0	0	0	561	622	
8	0	0	0	0	574	623	
9	0	0	0	0	587	622	
10	0	0	0	0	598	622	
11	0	0	0	0	607	623	
12	0	0	0	0	614	623	
13	0	0	0	0	618	622	
14	0	0	0	0	625	623	
15	0	0	0	0	631	623	
0	0	0	0	0	637	623	
1	0	0	0	0	642	623	
2	0	0	0	0	644	623	
3	0	0	0	0	645	623	
4	0	0	0	0	643	623	
5	0	0	0	0	638	623	
6	0	0	0	0	631	623	
7	0	0	0	0	625	623	
8	0	0	0	0	620	623	
9	0	0	0	0	615	623	
10	0	0	0	0	609	623	
11	0	0	0	0	600	623	
12	0	0	0	0	592	624	
13	0	0	0	0	588	622	
14	0	0	0	0	585	623	
15	0	0	0	0	582	623	
0	0	0	0	0	578	623	
1	0	0	0	0	573	623	
2	0	0	0	0	568	623	
3	0	0	0	0	562	623	
4	0	0	0	0	557	624	
5	0	0	0	0	553	623	
6	0	0	0	0	550	623	
7	0	0	0	0	544	623	
8	0	0	0	0	539	623	
9	0	0	0	0	534	623	
10	0	0	0	0	529	623	
11	0	0	0	0	525	624	
12	0	0	0	0	519	623	
13	0	0	0	0	514	624	
14	0	0	0	0	508	623	
15	0	0	0	0	502	623	
0	0	0	0	0	494	624	
1	0	0	0	0	483	624	
2	0	0	0	0	473	623	
3	0	0	0	0	466	624	
4	0	0	0	0	459	624	
5	0	0	0	0	453	623	
6	0	0	0	0	450	623	
7	0	0	0	0	449	623	
8	0	0	0	0	451	624	
9	0	0	0	0	457	623	
10	0	0	0	0	464	623	
11	0	0	0	0	473	623	
12	0	0	0	0	482	624	
13	0	0	0	0	488	623	
14	0	0	0	0	495	623	
15	0	0	0	0	502	623	
0	0	0	0	0	509	623	
1	0	0	0	0	513	623	
2	0	0	0	0	515	623	
3	0	0	0	0	513	622	
4	0	0	0	0	512	623	
5	0	0	0	0	511	623	
6	0	0	0	0	508	623	
7	0	0	0	0	504	622	
8	0	0	0	0	500	622	
9	0	0	0	0	493	622	
10	0	0	0	0	487	622	
11	0	0	0	0	479	623	
12	0	0	0	0	473	623	
13	0	0	0	0	467	623	
14	0	0	0	0	463	623	
15	0	0	0	0	460	623	
0	0	0	0	0	460	622	
1	0	0	0	0	462	622	
2	0	0	0	0	467	623	
3	0	0	0	0	473	623	
4	0	0	0	0	479	623	
5	0	0	0	0	482	622	
6	0	0	0	0	486	622	
7	0	0	0	0	491	622	
8	0	0	0	0	493	622	
9	0	0	0	0	495	623	
10	0	0	0	0	496	622	
11	0	0	0	0	496	623	
12	0	0	0	0	496	623	
13	0	0	0	0	494	623	
14	0	0	0	0	491	622	
15	0	0	0	0	487	623	
0	0	0	0	0	483	622	
1	0	0	0	0	477	622	
2	0	0	0	0	472	623	
3	0	0	0	0	470	622	
4	0	0	0	0	469	622	
5	0	0	0	0	470	622	
6	0	0	0	0	472	622	
7	0	0	0	0	475	622	
8	0	0	0	0	477	622	
9	0	0	0	0	477	622	
10	0	0	0	0	480	623	
11	0	0	0	0	483	621	
12	0	0	0	0	487	622	
13	0	0	0	0	491	622	
14	0	0	0	0	493	622	
15	0	0	0	0	495	622	
0	0	0	0	0	497	622	
1	0	0	0	0	497	622	
2	0	0	0	0	495	622	
3	0	0	0	0	490	622	
4	0	0	0	0	484	622	
5	0	0	0	0	478	621	
6	0	0	0	0	473	622	
7	0	0	0	0	471	622	
8	0	0	0	0	472	622	
9	0	0	0	0	474	622	
10	0	0	0	0	476	622	
11	0	0	0	0	482	622	
12	0	0	0	0	487	622	
13	0	0	0	0	492	622	
14	0	0	0	0	498	623	
15	0	0	0	0	504	622	
0	0	0	0	0	508	622	
1	0	0	0	0	511	623	
2	0	0	0	0	511	622	
3	0	0	0	0	509	622	
4	0	0	0	0	506	623	
5	0	0	0	0	502	622	
6	0	0	0	0	498	622	
7	0	0	0	0	495	622	
8	0	0	0	0	493	622	
9	0	0	0	0	491	622	
10	0	0	0	0	490	622	
11	0	0	0	0	491	622	
12	0	0	0	0	493	622	
13	0	0	0	0	497	621	
14	0	0	0	0	499	622	
15	0	0	0	0	501	622	
0	0	0	0	0	500	622	
1	0	0	0	0	501	621	
2	0	0	0	0	502	622	
3	0	0	0	0	501	622	
4	0	0	0	0	500	622	
5	0	0	0	0	500	621	
6	0	0	0	0	498	622	
7	0	0	0	0	496	621	
8	0	0	0	0	495	622	
9	0	0	0	0	495	621	
10	0	0	0	0	495	620	
11	0	0	0	0	494	621	
12	0	0	0	0	494	622	
13	0	0	0	0	493	621	
14	0	0	0	0	493	620	
15	0	0	0	0	492	622	
0	0	0	0	0	490	621	
1	0	0	0	0	487	621	
2	0	0	0	0	483	621	
3	0	0	0	0	480	621	
4	0	0	0	0	478	622	
5	0	0	0	0	475	622	
6	0	0	0	0	470	622	
7	0	0	0	0	464	622	
8	0	0	0	0	461	622	
9	0	0	0	0	463	622	
10	0	0	0	0	469	623	
11	0	0	0	0	476	622	
12	0	0	0	0	482	623	
13	0	0	0	0	489	623	
14	0	0	0	0	496	623	
15	0	0	0	0	503	623	
0	0	0	0	0	508	624	
1	0	0	0	0	516	624	
2	0	0	0	0	523	624	
3	0	0	0	0	527	624	
4	0	0	0	0	530	625	
5	0	0	0	0	531	625	
6	0	0	0	0	530	624	
7	0	0	0	0	529	624	
8	0	0	0	0	527	624	
9	0	0	0	0	524	624	
10	0	0	0	0	520	625	
11	0	0	0	0	517	625	
12	0	0	0	0	514	625	
13	0	0	0	0	510	625	
14	0	0	0	0	505	624	
15	0	0	0	0	502	625	
0	0	0	0	0	499	625	
1	0	0	0	0	498	624	
2	0	0	0	0	497	624	
3	0	0	0	0	497	625	
4	0	0	0	0	499	625	
5	0	0	0	0	502	625	
6	0	0	0	0	507	625	
7	0	0	0	0	510	624	
8	0	0	0	0	512	625	
9	0	0	0	0	515	625	
10	0	0	0	0	518	625	
11	0	0	0	0	519	624	
12	0	0	0	0	521	625	
13	0	0	0	0	523	624	
14	0	0	0	0	524	624	
15	0	0	0	0	524	624	
0	0	0	0	0	524	624	
1	0	0	0	0	524	624	
2	0	0	0	0	524	624	
3	0	0	0	0	524	623	
4	0	0	0	0	523	624	
5	0	0	0	0	523	624	
6	0	0	0	0	524	624	
7	0	0	0	0	523	624	
8	0	0	0	0	522	624	
9	0	0	0	0	522	623	
10	0	0	0	0	521	622	
11	0	0	0	0	520	623	
12	0	0	0	0	519	624	
13	0	0	0	0	519	624	
14	0	0	0	0	519	623	
15	0	0	0	0	519	623	
0	0	0	0	0	516	623	
1	0	0	0	0	515	623	
2	0	0	0	0	514	623	
3	0	0	0	0	513	623	
4	0	0	0	0	514	623	
5	0	0	0	0	513	622	
6	0	0	0	0	512	622	
7	0	0	0	0	513	622	
8	0	0	0	0	513	623	
9	0	0	0	0	511	622	
10	0	0	0	0	508	622	
11	0	0	0	0	502	622	
12	0	0	0	0	496	623	
13	0	0	0	0	492	622	
14	0	0	0	0	489	621	
15	0	0	0	0	488	622	
0	0	0	0	0	489	621	
1	0	0	0	0	492	622	
2	0	0	0	0	498	621	
3	0	0	0	0	503	620	
4	0	0	0	0	508	621	
5	0	0	0	0	517	621	
6	0	0	0	0	524	621	
7	0	0	0	0	527	620	
8	0	0	0	0	529	620	
9	0	0	0	0	528	621	
10	0	0	0	0	525	621	
11	0	0	0	0	523	620	
12	0	0	0	0	521	621	
13	0	0	0	0	521	620	
14	0	0	0	0	525	620	
15	0	0	0	0	525	620	
0	0	0	0	0	526	620	
1	0	0	0	0	529	620	
2	0	0	0	0	531	620	
3	0	0	0	0	535	620	
4	0	0	0	0	540	620	
5	0	0	0	0	543	620	
6	0	0	0	0	544	620	
7	0	0	0	0	545	620	
8	0	0	0	0	545	620	
9	0	0	0	0	543	620	
10	0	0	0	0	541	620	
11	0	0	0	0	537	620	
12	0	0	0	0	531	620	
13	0	0	0	0	523	620	
14	0	0	0	0	515	620	
15	0	0	0	0	509	620	
0	0	0	0	0	504	620	
1	0	0	0	0	502	620	
2	0	0	0	0	501	620	
3	0	0	0	0	502	620	
4	0	0	0	0	504	620	
5	0	0	0	0	505	620	
6	0	0	0	0	505	620	
7	0	0	0	0	505	620	
8	0	0	0	0	503	620	
9	0	0	0	0	501	620	
10	0	0	0	0	499	620	
11	0	0	0	0	496	621	
12	0	0	0	0	493	621	
13	0	0	0	0	491	620	
14	0	0	0	0	488	621	
15	0	0	0	0	487	621	
0	0	0	0	0	485	622	
1	0	0	0	0	483	622	
2	0	0	0	0	483	622	
3	0	0	0	0	485	622	
4	0	0	0	0	487	623	
5	0	0	0	0	488	622	
6	0	0	0	0	491	622	
7	0	0	0	0	492	623	
8	0	0	0	0	494	623	
9	0	0	0	0	496	623	
10	0	0	0	0	496	623	
11	0	0	0	0	494	624	
12	0	0	0	0	491	624	
13	0	0	0	0	488	624	
14	0	0	0	0	485	624	
15	0	0	0	0	482	624	
0	0	0	0	0	479	625	
1	0	0	0	0	477	625	
2	0	0	0	0	476	625	
3	0	0	0	0	473	625	
4	0	0	0	0	469	625	
5	0	0	0	0	465	624	
6	0	0	0	0	461	625	
7	0	0	0	0	458	625	
8	0	0	0	0	457	625	
9	0	0	0	0	457	625	
10	0	0	0	0	461	625	
11	0	0	0	0	467	625	
12	0	0	0	0	475	626	
13	0	0	0	0	480	625	
14	0	0	0	0	483	626	
15	0	0	0	0	482	627	
0	0	0	0	0	479	627	
1	0	0	0	0	478	626	
2	0	0	0	0	475	626	
3	0	0	0	0	473	626	
4	0	0	0	0	472	627	
5	0	0	0	0	473	626	
6	0	0	0	0	476	627	
7	0	0	0	0	478	626	
8	0	0	0	0	481	626	
9	0	0	0	0	485	627	
10	0	0	0	0	488	626	
11	0	0	0	0	489	626	
12	0	0	0	0	490	626	
13	0	0	0	0	491	627	
14	0	0	0	0	493	627	
15	0	0	0	0	496	627	
0	0	0	0	0	499	626	
1	0	0	0	0	502	626	
2	0	0	0	0	502	626	
3	0	0	0	0	503	626	
4	0	0	0	0	503	626	
5	0	0	0	0	503	626	
6	0	0	0	0	501	626	
7	0	0	0	0	498	625	
8	0	0	0	0	494	626	
9	0	0	0	0	488	625	
10	0	0	0	0	484	625	
11	0	0	0	0	480	625	
12	0	0	0	0	476	625	
13	0	0	0	0	472	624	
14	0	0	0	0	469	624	
15	0	0	0	0	468	624	
0	0	0	0	0	468	624	
1	0	0	0	0	470	624	
2	0	0	0	0	471	624	
3	0	0	0	0	472	623	
4	0	0	0	0	473	624	
5	0	0	0	0	475	623	
6	0	0	0	0	476	622	
7	0	0	0	0	478	623	
8	0	0	0	0	479	622	
9	0	0	0	0	480	622	
10	0	0	0	0	478	622	
11	0	0	0	0	475	622	
12	0	0	0	0	474	622	
13	0	0	0	0	473	622	
14	0	0	0	0	472	622	
15	0	0	0	0	473	622	
0	0	0	0	0	476	622	
1	0	0	0	0	478	622	
2	0	0	0	0	479	621	
3	0	0	0	0	478	621	
4	0	0	0	0	476	622	
5	0	0	0	0	476	621	
6	0	0	0	0	480	621	
7	0	0	0	0	481	620	
8	0	0	0	0	483	621	
9	0	0	0	0	482	621	
10	0	0	0	0	484	620	
11	0	0	0	0	486	620	
12	0	0	0	0	487	620	
13	0	0	0	0	487	620	
14	0	0	0	0	486	621	
15	0	0	0	0	483	620	
0	0	0	0	0	481	620	
1	0	0	0	0	479	620	
2	0	0	0	0	478	620	
3	0	0	0	0	478	620	
4	0	0	0	0	477	620	
5	0	0	0	0	476	620	
6	0	0	0	0	476	620	
7	0	0	0	0	475	620	
8	0	0	0	0	475	620	
9	0	0	0	0	476	620	
10	0	0	0	0	477	620	
11	0	0	0	0	480	620	
12	0	0	0	0	485	621	
13	0	0	0	0	493	621	
14	0	0	0	0	501	621	
15	0	0	0	0	507	621	
0	0	0	0	0	510	621	
1	0	0	0	0	512	621	
2	0	0	0	0	515	622	
3	0	0	0	0	516	621	
4	0	0	0	0	517	622	
5	0	0	0	0	518	622	
6	0	0	0	0	517	622	
7	0	0	0	0	516	622	
8	0	0	0	0	515	622	
9	0	0	0	0	512	622	
10	0	0	0	0	510	622	
11	0	0	0	0	507	622	
12	0	0	0	0	503	623	
13	0	0	0	0	498	622	
14	0	0	0	0	492	622	
15	0	0	0	0	488	623	
0	0	0	0	0	487	623	
1	0	0	0	0	487	623	
2	0	0	0	0	486	622	
3	0	0	0	0	486	622	
4	0	0	0	0	486	622	
5	0	0	0	0	487	622	
6	0	0	0	0	489	622	
7	0	0	0	0	491	622	
8	0	0	0	0	492	623	
9	0	0	0	0	492	623	
10	0	0	0	0	492	623	
11	0	0	0	0	492	623	
12	0	0	0	0	494	623	
13	0	0	0	0	495	623	
14	0	0	0	0	495	623	
15	0	0	0	0	492	622	
0	0	0	0	0	490	623	
1	0	0	0	0	492	622	
2	0	0	0	0	494	622	
3	0	0	0	0	494	623	
4	0	0	0	0	492	623	
5	0	0	0	0	490	623	
6	0	0	0	0	490	622	
7	0	0	0	0	491	622	
8	0	0	0	0	491	623	
9	0	0	0	0	488	622	
10	0	0	0	0	486	622	
11	0	0	0	0	485	622	
12	0	0	0	0	485	622	
13	0	0	0	0	486	622	
14	0	0	0	0	489	622	
15	0	0	0	0	493	622	
0	0	0	0	0	494	621	
1	0	0	0	0	494	621	
2	0	0	0	0	494	621	
3	0	0	0	0	494	621	
4	0	0	0	0	495	621	
5	0	0	0	0	495	621	
6	0	0	0	0	496	621	
7	0	0	0	0	495	620	
8	0	0	0	0	491	620	
9	0	0	0	0	487	620	
10	0	0	0	0	481	620	
11	0	0	0	0	473	620	
12	0	0	0	0	462	621	
13	0	0	0	0	454	620	
14	0	0	0	0	450	620	
15	0	0	0	0	449	619	
0	0	0	0	0	450	620	
1	0	0	0	0	452	620	
2	0	0	0	0	458	620	
3	0	0	0	0	467	620	
4	0	0	0	0	480	620	
5	0	0	0	0	490	620	
6	0	0	0	0	501	620	
7	0	0	0	0	510	620	
8	0	0	0	0	516	620	
9	0	0	0	0	521	620	
10	0	0	0	0	527	621	
11	0	0	0	0	530	621	
12	0	0	0	0	530	622	
13	0	0	0	0	529	621	
14	0	0	0	0	527	621	
15	0	0	0	0	523	621	
0	0	0	0	0	518	622	
1	0	0	0	0	513	622	
2	0	0	0	0	509	622	
3	0	0	0	0	504	621	
4	0	0	0	0	498	622	
5	0	0	0	0	494	622	
6	0	0	0	0	492	622	
7	0	0	0	0	490	622	
8	0	0	0	0	490	622	
9	0	0	0	0	493	622	
10	0	0	0	0	498	622	
11	0	0	0	0	503	623	
12	0	0	0	0	507	624	
13	0	0	0	0	509	624	
14	0	0	0	0	510	624	
15	0	0	0	0	510	624	
0	0	0	0	0	512	624	
1	0	0	0	0	513	624	
2	0	0	0	0	512	624	
3	0	0	0	0	510	624	
4	0	0	0	0	508	624	
5	0	0	0	0	506	624	
6	0	0	0	0	502	624	
7	0	0	0	0	497	624	
8	0	0	0	0	492	624	
9	0	0	0	0	489	624	
10	0	0	0	0	489	624	
11	0	0	0	0	487	624	
12	0	0	0	0	486	624	
13	0	0	0	0	485	624	
14	0	0	0	0	484	625	
15	0	0	0	0	486	625	
0	0	0	0	0	488	625	
1	0	0	0	0	491	625	
2	0	0	0	0	493	625	
3	0	0	0	0	495	625	
4	0	0	0	0	499	625	
5	0	0	0	0	504	625	
6	0	0	0	0	507	624	
7	0	0	0	0	507	625	
8	0	0	0	0	507	624	
9	0	0	0	0	509	624	
10	0	0	0	0	511	624	
11	0	0	0	0	510	624	
12	0	0	0	0	506	625	
13	0	0	0	0	499	625	
14	0	0	0	0	491	624	
15	0	0	0	0	485	624	
0	0	0	0	0	482	624	
1	0	0	0	0	481	624	
2	0	0	0	0	483	623	
3	0	0	0	0	487	624	
4	0	0	0	0	491	624	
5	0	0	0	0	493	624	
6	0	0	0	0	494	624	
7	0	0	0	0	496	624	
8	0	0	0	0	499	624	
9	0	0	0	0	500	623	
10	0	0	0	0	502	623	
11	0	0	0	0	505	624	
12	0	0	0	0	508	624	
13	0	0	0	0	512	623	
14	0	0	0	0	515	623	
15	0	0	0	0	517	623	
0	0	0	0	0	518	624	
1	0	0	0	0	517	623	
2	0	0	0	0	516	622	
3	0	0	0	0	515	622	
4	0	0	0	0	514	622	
5	0	0	0	0	513	621	
6	0	0	0	0	512	622	
7	0	0	0	0	510	621	
8	0	0	0	0	510	622	
9	0	0	0	0	509	621	
10	0	0	0	0	509	621	
11	0	0	0	0	509	622	
12	0	0	0	0	508	622	
13	0	0	0	0	506	622	
14	0	0	0	0	506	621	
15	0	0	0	0	508	621	
0	0	0	0	0	509	621	
1	0	0	0	0	511	621	
2	0	0	0	0	513	620	
3	0	0	0	0	513	621	
4	0	0	0	0	511	622	
5	0	0	0	0	509	621	
6	0	0	0	0	506	621	
7	0	0	0	0	504	621	
8	0	0	0	0	505	621	
9	0	0	0	0	506	622	
10	0	0	0	0	505	622	
11	0	0	0	0	505	621	
12	0	0	0	0	506	621	
13	0	0	0	0	509	622	
14	0	0	0	0	511	622	
15	0	0	0	0	512	621	
0	0	0	0	0	515	622	
1	0	0	0	0	516	621	
2	0	0	0	0	516	621	
3	0	0	0	0	516	622	
4	0	0	0	0	516	622	
5	0	0	0	0	515	622	
6	0	0	0	0	514	622	
7	0	0	0	0	513	623	
8	0	0	0	0	511	623	
9	0	0	0	0	511	623	
10	0	0	0	0	510	622	
11	0	0	0	0	508	622	
12	0	0	0	0	507	622	
13	0	0	0	0	504	623	
14	0	0	0	0	503	623	
15	0	0	0	0	502	622	
0	0	0	0	0	499	622	
1	0	0	0	0	497	622	
2	0	0	0	0	496	623	
3	0	0	0	0	493	622	
4	0	0	0	0	489	623	
5	0	0	0	0	484	622	
6	0	0	0	0	481	622	
7	0	0	0	0	481	622	
8	0	0	0	0	484	623	
9	0	0	0	0	489	623	
10	0	0	0	0	495	623	
11	0	0	0	0	500	622	
12	0	0	0	0	506	623	
13	0	0	0	0	511	622	
14	0	0	0	0	514	622	
15	0	0	0	0	516	622	
0	0	0	0	0	517	622	
1	0	0	0	0	516	622	
2	0	0	0	0	516	623	
3	0	0	0	0	516	623	
4	0	0	0	0	517	622	
5	0	0	0	0	520	622	
6	0	0	0	0	523	623	
7	0	0	0	0	526	622	
8	0	0	0	0	529	623	
9	0	0	0	0	532	622	
10	0	0	0	0	534	622	
11	0	0	0	0	536	623	
12	0	0	0	0	536	623	
13	0	0	0	0	534	623	
14	0	0	0	0	530	622	
15	0	0	0	0	524	622	
0	0	0	0	0	515	623	
1	0	0	0	0	506	622	
2	0	0	0	0	500	622	
3	0	0	0	0	498	623	
4	0	0	0	0	498	623	
5	0	0	0	0	502	623	
6	0	0	0	0	507	623	
7	0	0	0	0	510	623	
8	0	0	0	0	514	623	
9	0	0	0	0	519	623	
10	0	0	0	0	524	623	
11	0	0	0	0	526	623	
12	0	0	0	0	527	623	
13	0	0	0	0	528	623	
14	0	0	0	0	528	622	
15	0	0	0	0	528	623	
0	0	0	0	0	528	623	
1	0	0	0	0	529	623	
2	0	0	0	0	530	623	
3	0	0	0	0	532	623	
4	0	0	0	0	534	624	
5	0	0	0	0	535	623	
6	0	0	0	0	534	623	
7	0	0	0	0	531	623	
8	0	0	0	0	531	623	
9	0	0	0	0	531	623	
10	0	0	0	0	531	623	
11	0	0	0	0	530	623	
12	0	0	0	0	529	623	
13	0	0	0	0	528	623	
14	0	0	0	0	525	623	
15	0	0	0	0	522	623	
0	0	0	0	0	519	623	
1	0	0	0	0	514	624	
2	0	0	0	0	510	623	
3	0	0	0	0	506	624	
4	0	0	0	0	505	624	
5	0	0	0	0	505	623	
6	0	0	0	0	505	623	
7	0	0	0	0	506	623	
8	0	0	0	0	508	623	
9	0	0	0	0	511	623	
10	0	0	0	0	512	623	
11	0	0	0	0	514	623	
12	0	0	0	0	515	623	
13	0	0	0	0	513	623	
14	0	0	0	0	512	623	
15	0	0	0	0	510	623	
0	0	0	0	0	508	623	
1	0	0	0	0	507	623	
2	0	0	0	0	505	623	
3	0	0	0	0	504	623	
4	0	0	0	0	504	623	
5	0	0	0	0	505	623	
6	0	0	0	0	508	623	
7	0	0	0	0	511	623	
8	0	0	0	0	514	623	
9	0	0	0	0	517	622	
10	0	0	0	0	518	623	
11	0	0	0	0	519	623	
12	0	0	0	0	521	623	
13	0	0	0	0	520	622	
14	0	0	0	0	518	623	
15	0	0	0	0	515	623	
0	0	0	0	0	512	623	
1	0	0	0	0	508	624	
2	0	0	0	0	504	622	
3	0	0	0	0	502	623	
4	0	0	0	0	500	624	
5	0	0	0	0	501	622	
6	0	0	0	0	502	623	
7	0	0	0	0	506	623	
8	0	0	0	0	510	623	
9	0	0	0	0	513	623	
10	0	0	0	0	516	622	
11	0	0	0	0	519	623	
12	0	0	0	0	521	623	
13	0	0	0	0	523	623	
14	0	0	0	0	523	622	
15	0	0	0	0	522	622	
0	0	0	0	0	519	622	
1	0	0	0	0	517	622	
2	0	0	0	0	515	622	
3	0	0	0	0	511	623	
4	0	0	0	0	506	623	
5	0	0	0	0	501	622	
6	0	0	0	0	494	622	
7	0	0	0	0	487	622	
8	0	0	0	0	479	622	
9	0	0	0	0	471	621	
10	0	0	0	0	464	622	
11	0	0	0	0	460	622	
12	0	0	0	0	459	623	
13	0	0	0	0	460	622	
14	0	0	0	0	462	622	
15	0	0	0	0	464	622	
0	0	0	0	0	462	622	
1	0	0	0	0	461	622	
2	0	0	0	0	460	622	
3	0	0	0	0	460	622	
4	0	0	0	0	462	622	
5	0	0	0	0	461	622	
6	0	0	0	0	459	622	
7	0	0	0	0	456	621	
8	0	0	0	0	458	622	
9	0	0	0	0	462	623	
10	0	0	0	0	466	622	
11	0	0	0	0	473	622	
12	0	0	0	0	483	622	
13	0	0	0	0	495	622	
14	0	0	0	0	513	622	
15	0	0	0	0	534	622	
0	0	0	0	0	555	622	
1	0	0	0	0	575	622	
2	0	0	0	0	593	622	
3	0	0	0	0	608	622	
4	0	0	0	0	620	622	
5	0	0	0	0	630	622	
6	0	0	0	0	638	622	
7	0	0	0	0	646	622	
8	0	0	0	0	655	622	
9	0	0	0	0	665	622	
10	0	0	0	0	673	621	
11	0	0	0	0	676	621	
12	0	0	0	0	677	622	
13	0	0	0	0	674	622	
14	0	0	0	0	668	622	
15	0	0	0	0	660	621	
0	0	0	0	0	651	622	
1	0	0	0	0	641	622	
2	0	0	0	0	630	621	
3	0	0	0	0	618	622	
4	0	0	0	0	608	622	
5	0	0	0	0	600	622	
6	0	0	0	0	593	622	
7	0	0	0	0	588	621	
8	0	0	0	0	582	622	
9	0	0	0	0	576	622	
10	0	0	0	0	570	622	
11	0	0	0	0	566	622	
12	0	0	0	0	563	622	
13	0	0	0	0	558	622	
14	0	0	0	0	552	623	
15	0	0	0	0	547	622	
0	0	0	0	0	543	622	
1	0	0	0	0	539	623	
2	0	0	0	0	535	623	
3	0	0	0	0	532	623	
4	0	0	0	0	529	622	
5	0	0	0	0	527	623	
6	0	0	0	0	524	623	
7	0	0	0	0	521	623	
8	0	0	0	0	518	623	
9	0	0	0	0	515	622	
10	0	0	0	0	513	623	
11	0	0	0	0	511	623	
12	0	0	0	0	507	623	
13	0	0	0	0	504	623	
14	0	0	0	0	499	622	
15	0	0	0	0	495	622	
0	0	0	0	0	490	623	
1	0	0	0	0	485	622	
2	0	0	0	0	481	623	
3	0	0	0	0	476	623	
4	0	0	0	0	471	623	
5	0	0	0	0	466	624	
6	0	0	0	0	463	623	
7	0	0	0	0	461	623	
8	0	0	0	0	461	623	
9	0	0	0	0	463	623	
10	0	0	0	0	463	623	
11	0	0	0	0	465	623	
12	0	0	0	0	468	623	
13	0	0	0	0	472	623	
14	0	0	0	0	476	623	
15	0	0	0	0	481	623	
0	0	0	0	0	484	623	
1	0	0	0	0	489	623	
2	0	0	0	0	493	622	
3	0	0	0	0	495	622	
4	0	0	0	0	496	623	
5	0	0	0	0	497	623	
6	0	0	0	0	499	622	
7	0	0	0	0	500	622	
8	0	0	0	0	500	621	
9	0	0	0	0	499	622	
10	0	0	0	0	499	622	
11	0	0	0	0	498	622	
12	0	0	0	0	496	622	
13	0	0	0	0	494	621	
14	0	0	0	0	491	621	
15	0	0	0	0	487	622	
0	0	0	0	0	486	622	
1	0	0	0	0	484	622	
2	0	0	0	0	482	621	
3	0	0	0	0	480	621	
4	0	0	0	0	477	622	
5	0	0	0	0	474	621	
6	0	0	0	0	472	621	
7	0	0	0	0	472	621	
8	0	0	0	0	472	621	
9	0	0	0	0	471	620	
10	0	0	0	0	470	620	
11	0	0	0	0	472	620	
12	0	0	0	0	474	621	
13	0	0	0	0	476	620	
14	0	0	0	0	478	620	
15	0	0	0	0	480	620	
0	0	0	0	0	481	620	
1	0	0	0	0	485	620	
2	0	0	0	0	487	620	
3	0	0	0	0	487	620	
4	0	0	0	0	486	620	
5	0	0	0	0	486	620	
6	0	0	0	0	485	620	
7	0	0	0	0	484	620	
8	0	0	0	0	483	620	
9	0	0	0	0	481	620	
10	0	0	0	0	481	620	
11	0	0	0	0	484	620	
12	0	0	0	0	486	620	
13	0	0	0	0	490	620	
14	0	0	0	0	494	620	
15	0	0	0	0	497	620	
0	0	0	0	0	499	620	
1	0	0	0	0	500	620	
2	0	0	0	0	500	620	
3	0	0	0	0	498	620	
4	0	0	0	0	496	620	
5	0	0	0	0	494	620	
6	0	0	0	0	493	620	
7	0	0	0	0	492	620	
8	0	0	0	0	492	620	
9	0	0	0	0	493	620	
10	0	0	0	0	492	620	
11	0	0	0	0	493	620	
12	0	0	0	0	492	621	
13	0	0	0	0	492	621	
14	0	0	0	0	492	620	
15	0	0	0	0	493	621	
0	0	0	0	0	494	622	
1	0	0	0	0	496	621	
2	0	0	0	0	496	621	
3	0	0	0	0	497	621	
4	0	0	0	0	498	622	
5	0	0	0	0	498	621	
6	0	0	0	0	497	622	
7	0	0	0	0	497	622	
8	0	0	0	0	497	622	
9	0	0	0	0	497	622	
10	0	0	0	0	497	622	
11	0	0	0	0	499	623	
12	0	0	0	0	499	623	
13	0	0	0	0	499	623	
14	0	0	0	0	500	622	
15	0	0	0	0	499	623	
0	0	0	0	0	497	623	
1	0	0	0	0	495	623	
2	0	0	0	0	492	623	
3	0	0	0	0	490	623	
4	0	0	0	0	488	623	
5	0	0	0	0	487	623	
6	0	0	0	0	487	623	
7	0	0	0	0	488	623	
8	0	0	0	0	489	623	
9	0	0	0	0	489	623	
10	0	0	0	0	490	624	
11	0	0	0	0	490	624	
12	0	0	0	0	491	624	
13	0	0	0	0	492	624	
14	0	0	0	0	494	624	
15	0	0	0	0	496	624	
0	0	0	0	0	498	624	
1	0	0	0	0	501	624	
2	0	0	0	0	503	624	
3	0	0	0	0	503	624	
4	0	0	0	0	504	624	
5	0	0	0	0	505	624	
6	0	0	0	0	507	624	
7	0	0	0	0	507	624	
8	0	0	0	0	507	624	
9	0	0	0	0	505	624	
10	0	0	0	0	504	624	
11	0	0	0	0	503	624	
12	0	0	0	0	502	625	
13	0	0	0	0	503	625	
14	0	0	0	0	503	625	
15	0	0	0	0	504	624	
0	0	0	0	0	503	625	
1	0	0	0	0	500	625	
2	0	0	0	0	494	624	
3	0	0	0	0	488	625	
4	0	0	0	0	483	625	
5	0	0	0	0	481	625	
6	0	0	0	0	483	625	
7	0	0	0	0	487	624	
8	0	0	0	0	491	625	
9	0	0	0	0	495	624	
10	0	0	0	0	499	624	
11	0	0	0	0	505	624	
12	0	0	0	0	511	624	
13	0	0	0	0	513	624	
14	0	0	0	0	513	624	
15	0	0	0	0	513	624	
0	0	0	0	0	511	624	
1	0	0	0	0	509	624	
2	0	0	0	0	507	623	
3	0	0	0	0	505	623	
4	0	0	0	0	504	623	
5	0	0	0	0	502	623	
6	0	0	0	0	499	623	
7	0	0	0	0	496	623	
8	0	0	0	0	496	623	
9	0	0	0	0	498	623	
10	0	0	0	0	499	622	
11	0	0	0	0	501	622	
12	0	0	0	0	503	622	
13	0	0	0	0	505	622	
14	0	0	0	0	508	622	
15	0	0	0	0	512	622	
0	0	0	0	0	516	622	
1	0	0	0	0	520	622	
2	0	0	0	0	524	621	
3	0	0	0	0	528	621	
4	0	0	0	0	531	621	
5	0	0	0	0	534	621	
6	0	0	0	0	534	621	
7	0	0	0	0	534	620	
8	0	0	0	0	532	621	
9	0	0	0	0	531	620	
10	0	0	0	0	529	621	
11	0	0	0	0	527	621	
12	0	0	0	0	527	621	
13	0	0	0	0	527	620	
14	0	0	0	0	529	621	
15	0	0	0	0	529	621	
0	0	0	0	0	528	621	
1	0	0	0	0	527	620	
2	0	0	0	0	526	621	
3	0	0	0	0	526	621	
4	0	0	0	0	525	621	
5	0	0	0	0	527	620	
6	0	0	0	0	529	621	
7	0	0	0	0	530	621	
8	0	0	0	0	531	621	
9	0	0	0	0	533	621	
10	0	0	0	0	534	621	
11	0	0	0	0	536	621	
12	0	0	0	0	536	621	
13	0	0	0	0	537	620	
14	0	0	0	0	539	621	
15	0	0	0	0	540	620	
0	0	0	0	0	540	621	
1	0	0	0	0	539	621	
2	0	0	0	0	538	621	
3	0	0	0	0	538	621	
4	0	0	0	0	540	621	
5	0	0	0	0	543	621	
6	0	0	0	0	543	621	
7	0	0	0	0	542	621	
8	0	0	0	0	542	621	
9	0	0	0	0	541	621	
10	0	0	0	0	539	621	
11	0	0	0	0	535	621	
12	0	0	0	0	531	622	
13	0	0	0	0	526	622	
14	0	0	0	0	520	622	
15	0	0	0	0	516	622	
0	0	0	0	0	514	622	
1	0	0	0	0	514	622	
2	0	0	0	0	518	622	
3	0	0	0	0	520	622	
4	0	0	0	0	523	623	
5	0	0	0	0	523	623	
6	0	0	0	0	525	623	
7	0	0	0	0	528	623	
8	0	0	0	0	530	623	
9	0	0	0	0	532	622	
10	0	0	0	0	532	623	
11	0	0	0	0	529	623	
12	0	0	0	0	526	623	
13	0	0	0	0	521	622	
14	0	0	0	0	516	623	
15	0	0	0	0	511	624	
0	0	0	0	0	507	624	
1	0	0	0	0	503	623	
2	0	0	0	0	501	623	
3	0	0	0	0	500	623	
4	0	0	0	0	499	624	
5	0	0	0	0	497	624	
6	0	0	0	0	496	624	
7	0	0	0	0	496	624	
8	0	0	0	0	497	624	
9	0	0	0	0	498	623	
10	0	0	0	0	498	622	
11	0	0	0	0	499	623	
12	0	0	0	0	498	624	
13	0	0	0	0	496	623	
14	0	0	0	0	492	623	
15	0	0	0	0	489	623	
0	0	0	0	0	486	624	
1	0	0	0	0	483	624	
2	0	0	0	0	481	624	
3	0	0	0	0	480	623	
4	0	0	0	0	480	624	
5	0	0	0	0	481	624	
6	0	0	0	0	482	624	
7	0	0	0	0	484	624	
8	0	0	0	0	485	624	
9	0	0	0	0	487	624	
10	0	0	0	0	489	623	
11	0	0	0	0	493	624	
12	0	0	0	0	494	624	
13	0	0	0	0	494	624	
14	0	0	0	0	491	623	
15	0	0	0	0	487	623	
0	0	0	0	0	483	624	
1	0	0	0	0	478	623	
2	0	0	0	0	475	623	
3	0	0	0	0	471	624	
4	0	0	0	0	468	624	
5	0	0	0	0	463	624	
6	0	0	0	0	461	623	
7	0	0	0	0	463	624	
8	0	0	0	0	468	624	
9	0	0	0	0	472	623	
10	0	0	0	0	479	623	
11	0	0	0	0	486	623	
12	0	0	0	0	492	624	
13	0	0	0	0	495	623	
14	0	0	0	0	497	623	
15	0	0	0	0	499	623	
0	0	0	0	0	501	623	
1	0	0	0	0	504	624	
2	0	0	0	0	508	623	
3	0	0	0	0	510	624	
4	0	0	0	0	510	624	
5	0	0	0	0	511	624	
6	0	0	0	0	508	624	
7	0	0	0	0	506	623	
8	0	0	0	0	501	623	
9	0	0	0	0	498	623	
10	0	0	0	0	498	624	
11	0	0	0	0	496	623	
12	0	0	0	0	494	624	
13	0	0	0	0	491	624	
14	0	0	0	0	487	624	
15	0	0	0	0	482	623	
0	0	0	0	0	479	624	
1	0	0	0	0	475	623	
2	0	0	0	0	475	623	
3	0	0	0	0	475	623	
4	0	0	0	0	479	624	
5	0	0	0	0	482	624	
6	0	0	0	0	486	624	
7	0	0	0	0	491	623	
8	0	0	0	0	496	623	
9	0	0	0	0	500	623	
10	0	0	0	0	503	623	
11	0	0	0	0	504	623	
12	0	0	0	0	505	624	
13	0	0	0	0	507	623	
14	0	0	0	0	509	624	
15	0	0	0	0	511	623	
0	0	0	0	0	511	623	
1	0	0	0	0	509	622	
2	0	0	0	0	506	623	
3	0	0	0	0	501	623	
4	0	0	0	0	499	623	
5	0	0	0	0	497	623	
6	0	0	0	0	494	623	
7	0	0	0	0	492	623	
8	0	0	0	0	491	623	
9	0	0	0	0	491	623	
10	0	0	0	0	491	624	
11	0	0	0	0	491	623	
12	0	0	0	0	491	623	
13	0	0	0	0	489	622	
14	0	0	0	0	488	622	
15	0	0	0	0	487	622	
0	0	0	0	0	486	623	
1	0	0	0	0	485	622	
2	0	0	0	0	484	623	
3	0	0	0	0	485	622	
4	0	0	0	0	487	623	
5	0	0	0	0	489	622	
6	0	0	0	0	491	623	
7	0	0	0	0	494	622	
8	0	0	0	0	498	622	
9	0	0	0	0	503	622	
10	0	0	0	0	508	621	
11	0	0	0	0	510	621	
12	0	0	0	0	511	622	
13	0	0	0	0	508	622	
14	0	0	0	0	504	622	
15	0	0	0	0	500	622	
0	0	0	0	0	496	622	
1	0	0	0	0	490	622	
2	0	0	0	0	485	622	
3	0	0	0	0	480	621	
4	0	0	0	0	478	622	
5	0	0	0	0	475	621	
6	0	0	0	0	474	622	
7	0	0	0	0	475	622	
8	0	0	0	0	477	622	
9	0	0	0	0	480	622	
10	0	0	0	0	487	622	
11	0	0	0	0	496	621	
12	0	0	0	0	503	622	
13	0	0	0	0	508	622	
14	0	0	0	0	512	622	
15	0	0	0	0	517	621	
0	0	0	0	0	520	622	
1	0	0	0	0	523	622	
2	0	0	0	0	524	622	
3	0	0	0	0	524	622	
4	0	0	0	0	521	622	
5	0	0	0	0	518	622	
6	0	0	0	0	513	622	
7	0	0	0	0	510	622	
8	0	0	0	0	506	623	
9	0	0	0	0	504	621	
10	0	0	0	0	504	622	
11	0	0	0	0	507	622	
12	0	0	0	0	507	623	
13	0	0	0	0	507	622	
14	0	0	0	0	507	623	
15	0	0	0	0	508	622	
0	0	0	0	0	510	623	
1	0	0	0	0	510	623	
2	0	0	0	0	508	623	
3	0	0	0	0	503	623	
4	0	0	0	0	498	623	
5	0	0	0	0	494	623	
6	0	0	0	0	494	623	
7	0	0	0	0	492	623	
8	0	0	0	0	491	623	
9	0	0	0	0	492	622	
10	0	0	0	0	491	623	
11	0	0	0	0	492	623	
12	0	0	0	0	495	623	
13	0	0	0	0	496	623	
14	0	0	0	0	496	622	
15	0	0	0	0	496	622	
0	0	0	0	0	498	623	
1	0	0	0	0	500	622	
2	0	0	0	0	501	622	
3	0	0	0	0	501	622	
4	0	0	0	0	501	623	
5	0	0	0	0	502	622	
6	0	0	0	0	503	622	
7	0	0	0	0	502	622	
8	0	0	0	0	500	622	
9	0	0	0	0	499	622	
10	0	0	0	0	499	622	
11	0	0	0	0	499	623	
12	0	0	0	0	498	623	
13	0	0	0	0	500	623	
14	0	0	0	0	502	622	
15	0	0	0	0	502	622	
0	0	0	0	0	503	623	
1	0	0	0	0	504	622	
2	0	0	0	0	505	623	
3	0	0	0	0	505	622	
4	0	0	0	0	505	623	
5	0	0	0	0	506	622	
6	0	0	0	0	508	622	
7	0	0	0	0	510	622	
8	0	0	0	0	511	622	
9	0	0	0	0	512	622	
10	0	0	0	0	515	622	
11	0	0	0	0	515	622	
12	0	0	0	0	515	623	
13	0	0	0	0	516	622	
14	0	0	0	0	515	622	
15	0	0	0	0	512	622	
0	0	0	0	0	511	622	
1	0	0	0	0	510	622	
2	0	0	0	0	510	622	
3	0	0	0	0	509	622	
4	0	0	0	0	508	622	
5	0	0	0	0	504	621	
6	0	0	0	0	500	622	
7	0	0	0	0	497	622	
8	0	0	0	0	496	622	
9	0	0	0	0	494	622	
10	0	0	0	0	492	622	
11	0	0	0	0	491	622	
12	0	0	0	0	494	622	
13	0	0	0	0	497	622	
14	0	0	0	0	500	622	
15	0	0	0	0	503	622	
0	0	0	0	0	505	622	
1	0	0	0	0	506	622	
2	0	0	0	0	508	622	
3	0	0	0	0	509	621	
4	0	0	0	0	512	622	
5	0	0	0	0	513	622	
6	0	0	0	0	513	621	
7	0	0	0	0	512	622	
8	0	0	0	0	512	621	
9	0	0	0	0	512	621	
10	0	0	0	0	513	621	
11	0	0	0	0	513	621	
12	0	0	0	0	514	622	
13	0	0	0	0	514	621	
14	0	0	0	0	515	621	
15	0	0	0	0	514	622	
0	0	0	0	0	514	622	
1	0	0	0	0	512	622	
2	0	0	0	0	511	621	
3	0	0	0	0	508	621	
4	0	0	0	0	505	622	
5	0	0	0	0	504	621	
6	0	0	0	0	505	621	
7	0	0	0	0	504	621	
8	0	0	0	0	502	622	
9	0	0	0	0	500	622	
10	0	0	0	0	499	622	
11	0	0	0	0	500	621	
12	0	0	0	0	503	623	
13	0	0	0	0	504	622	
14	0	0	0	0	504	622	
15	0	0	0	0	504	621	
0	0	0	0	0	504	622	
1	0	0	0	0	505	622	
2	0	0	0	0	505	622	
3	0	0	0	0	507	621	
4	0	0	0	0	510	623	
5	0	0	0	0	511	622	
6	0	0	0	0	510	621	
7	0	0	0	0	509	622	
8	0	0	0	0	508	623	
9	0	0	0	0	506	622	
10	0	0	0	0	506	622	
11	0	0	0	0	505	622	
12	0	0	0	0	504	623	
13	0	0	0	0	504	622	
14	0	0	0	0	502	623	
15	0	0	0	0	499	623	
0	0	0	0	0	497	622	
1	0	0	0	0	496	622	
2	0	0	0	0	497	622	
3	0	0	0	0	496	623	
4	0	0	0	0	496	623	
5	0	0	0	0	498	623	
6	0	0	0	0	500	623	
7	0	0	0	0	502	622	
8	0	0	0	0	504	623	
9	0	0	0	0	505	622	
10	0	0	0	0	506	623	
11	0	0	0	0	506	623	
12	0	0	0	0	506	623	
13	0	0	0	0	505	623	
14	0	0	0	0	504	623	
15	0	0	0	0	504	623	
0	0	0	0	0	506	623	
1	0	0	0	0	509	624	
2	0	0	0	0	512	624	
3	0	0	0	0	516	624	
4	0	0	0	0	518	624	
5	0	0	0	0	522	624	
6	0	0	0	0	527	623	
7	0	0	0	0	530	623	
8	0	0	0	0	531	623	
9	0	0	0	0	529	623	
10	0	0	0	0	526	623	
11	0	0	0	0	519	623	
12	0	0	0	0	512	624	
13	0	0	0	0	508	623	
14	0	0	0	0	506	623	
15	0	0	0	0	503	624	
0	0	0	0	0	498	624	
1	0	0	0	0	495	623	
2	0	0	0	0	494	624	
3	0	0	0	0	492	623	
4	0	0	0	0	493	624	
5	0	0	0	0	494	623	
6	0	0	0	0	496	623	
7	0	0	0	0	498	623	
8	0	0	0	0	499	623	
9	0	0	0	0	501	623	
10	0	0	0	0	502	623	
11	0	0	0	0	503	623	
12	0	0	0	0	506	624	
13	0	0	0	0	507	623	
14	0	0	0	0	505	623	
15	0	0	0	0	504	623	
0	0	0	0	0	501	623	
1	0	0	0	0	499	623	
2	0	0	0	0	497	622	
3	0	0	0	0	495	622	
4	0	0	0	0	494	623	
5	0	0	0	0	494	622	
6	0	0	0	0	495	622	
7	0	0	0	0	495	622	
8	0	0	0	0	496	622	
9	0	0	0	0	496	622	
10	0	0	0	0	494	622	
11	0	0	0	0	492	622	
12	0	0	0	0	491	622	
13	0	0	0	0	490	622	
14	0	0	0	0	491	621	
15	0	0	0	0	495	622	
0	0	0	0	0	498	622	
1	0	0	0	0	502	622	
2	0	0	0	0	508	621	
3	0	0	0	0	516	622	
4	0	0	0	0	525	622	
5	0	0	0	0	532	622	
6	0	0	0	0	537	621	
7	0	0	0	0	536	622	
8	0	0	0	0	532	622	
9	0	0	0	0	528	622	
10	0	0	0	0	526	621	
11	0	0	0	0	523	622	
12	0	0	0	0	522	622	
13	0	0	0	0	524	620	
14	0	0	0	0	524	621	
15	0	0	0	0	523	622	
0	0	0	0	0	523	622	
1	0	0	0	0	524	621	
2	0	0	0	0	522	622	
3	0	0	0	0	521	621	
4	0	0	0	0	521	622	
5	0	0	0	0	520	621	
6	0	0	0	0	519	621	
7	0	0	0	0	518	621	
8	0	0	0	0	516	621	
9	0	0	0	0	515	622	
10	0	0	0	0	514	622	
11	0	0	0	0	513	621	
12	0	0	0	0	512	623	
13	0	0	0	0	512	622	
14	0	0	0	0	513	622	
15	0	0	0	0	512	622	
0	0	0	0	0	511	622	
1	0	0	0	0	511	623	
2	0	0	0	0	511	622	
3	0	0	0	0	508	622	
4	0	0	0	0	506	622	
5	0	0	0	0	505	622	
6	0	0	0	0	505	622	
7	0	0	0	0	504	621	
8	0	0	0	0	501	621	
9	0	0	0	0	501	622	
10	0	0	0	0	502	622	
11	0	0	0	0	504	622	
12	0	0	0	0	503	623	
13	0	0	0	0	500	622	
14	0	0	0	0	497	623	
15	0	0	0	0	494	622	
0	0	0	0	0	492	623	
1	0	0	0	0	493	622	
2	0	0	0	0	495	622	
3	0	0	0	0	497	622	
4	0	0	0	0	503	623	
5	0	0	0	0	510	622	
6	0	0	0	0	514	622	
7	0	0	0	0	514	622	
8	0	0	0	0	513	622	
9	0	0	0	0	515	622	
10	0	0	0	0	517	622	
11	0	0	0	0	519	622	
12	0	0	0	0	521	623	
13	0	0	0	0	521	623	
14	0	0	0	0	522	623	
15	0	0	0	0	521	622	
0	0	0	0	0	518	623	
1	0	0	0	0	515	622	
2	0	0	0	0	511	623	
3	0	0	0	0	508	622	
4	0	0	0	0	508	623	
5	0	0	0	0	508	623	
6	0	0	0	0	508	623	
7	0	0	0	0	509	623	
8	0	0	0	0	510	623	
9	0	0	0	0	514	623	
10	0	0	0	0	518	623	
11	0	0	0	0	521	623	
12	0	0	0	0	523	623	
13	0	0	0	0	522	623	
14	0	0	0	0	520	623	
15	0	0	0	0	517	622	
0	0	0	0	0	515	623	
1	0	0	0	0	511	623	
2	0	0	0	0	507	623	
3	0	0	0	0	503	622	
4	0	0	0	0	497	623	
5	0	0	0	0	492	623	
6	0	0	0	0	489	623	
7	0	0	0	0	489	623	
8	0	0	0	0	492	623	
9	0	0	0	0	497	623	
10	0	0	0	0	503	623	
11	0	0	0	0	504	623	
12	0	0	0	0	505	623	
13	0	0	0	0	505	622	
14	0	0	0	0	505	623	
15	0	0	0	0	507	622	
0	0	0	0	0	508	623	
1	0	0	0	0	511	623	
2	0	0	0	0	512	623	
3	0	0	0	0	511	622	
4	0	0	0	0	508	622	
5	0	0	0	0	504	622	
6	0	0	0	0	499	622	
7	0	0	0	0	495	622	
8	0	0	0	0	489	622	
9	0	0	0	0	484	622	
10	0	0	0	0	480	622	
11	0	0	0	0	476	622	
12	0	0	0	0	473	622	
13	0	0	0	0	472	622	
14	0	0	0	0	471	622	
15	0	0	0	0	472	622	
0	0	0	0	0	472	623	
1	0	0	0	0	471	622	
2	0	0	0	0	469	622	
3	0	0	0	0	465	622	
4	0	0	0	0	460	622	
5	0	0	0	0	453	622	
6	0	0	0	0	449	622	
7	0	0	0	0	447	622	
8	0	0	0	0	448	622	
9	0	0	0	0	451	622	
10	0	0	0	0	458	623	
11	0	0	0	0	463	622	
12	0	0	0	0	472	623	
13	0	0	0	0	483	622	
14	0	0	0	0	497	622	
15	0	0	0	0	512	622	
0	0	0	0	0	529	623	
1	0	0	0	0	547	623	
2	0	0	0	0	566	622	
3	0	0	0	0	583	622	
4	0	0	0	0	596	623	
5	0	0	0	0	606	622	
6	0	0	0	0	615	622	
7	0	0	0	0	625	623	
8	0	0	0	0	634	623	
9	0	0	0	0	644	622	
10	0	0	0	0	652	623	
11	0	0	0	0	657	623	
12	0	0	0	0	660	622	
13	0	0	0	0	661	622	
14	0	0	0	0	658	623	
15	0	0	0	0	653	623	
0	0	0	0	0	644	622	
1	0	0	0	0	637	622	
2	0	0	0	0	630	622	
3	0	0	0	0	622	622	
4	0	0	0	0	615	623	
5	0	0	0	0	614	623	
6	0	0	0	0	614	622	
7	0	0	0	0	614	622	
8	0	0	0	0	613	622	
9	0	0	0	0	611	623	
10	0	0	0	0	606	622	
11	0	0	0	0	599	622	
12	0	0	0	0	592	622	
13	0	0	0	0	584	622	
14	0	0	0	0	575	622	
15	0	0	0	0	565	622	
0	0	0	0	0	553	623	
1	0	0	0	0	542	622	
2	0	0	0	0	532	622	
3	0	0	0	0	524	622	
4	0	0	0	0	515	622	
5	0	0	0	0	509	622	
6	0	0	0	0	504	622	
7	0	0	0	0	502	622	
8	0	0	0	0	500	622	
9	0	0	0	0	499	622	
10	0	0	0	0	495	622	
11	0	0	0	0	496	622	
12	0	0	0	0	498	623	
13	0	0	0	0	498	622	
14	0	0	0	0	499	622	
15	0	0	0	0	499	622	
0	0	0	0	0	498	623	
1	0	0	0	0	499	623	
2	0	0	0	0	498	622	
3	0	0	0	0	497	623	
4	0	0	0	0	494	623	
5	0	0	0	0	491	622	
6	0	0	0	0	487	622	
7	0	0	0	0	483	622	
8	0	0	0	0	477	622	
9	0	0	0	0	472	622	
10	0	0	0	0	465	622	
11	0	0	0	0	460	622	
12	0	0	0	0	456	622	
13	0	0	0	0	458	622	
14	0	0	0	0	460	622	
15	0	0	0	0	461	622	
0	0	0	0	0	461	622	
1	0	0	0	0	462	622	
2	0	0	0	0	465	622	
3	0	0	0	0	468	622	
4	0	0	0	0	472	622	
5	0	0	0	0	475	623	
6	0	0	0	0	478	622	
7	0	0	0	0	482	622	
8	0	0	0	0	483	622	
9	0	0	0	0	483	622	
10	0	0	0	0	485	622	
11	0	0	0	0	487	622	
12	0	0	0	0	489	622	
13	0	0	0	0	490	622	
14	0	0	0	0	492	622	
15	0	0	0	0	493	622	
0	0	0	0	0	494	622	
1	0	0	0	0	492	622	
2	0	0	0	0	489	622	
3	0	0	0	0	487	622	
4	0	0	0	0	486	622	
5	0	0	0	0	484	622	
6	0	0	0	0	482	622	
7	0	0	0	0	482	622	
8	0	0	0	0	482	622	
9	0	0	0	0	482	622	
10	0	0	0	0	483	622	
11	0	0	0	0	483	622	
12	0	0	0	0	484	622	
13	0	0	0	0	483	623	
14	0	0	0	0	482	623	
15	0	0	0	0	480	623	
0	0	0	0	0	475	623	
1	0	0	0	0	471	622	
2	0	0	0	0	467	623	
3	0	0	0	0	467	622	
4	0	0	0	0	466	623	
5	0	0	0	0	468	622	
6	0	0	0	0	471	622	
7	0	0	0	0	475	622	
8	0	0	0	0	476	622	
9	0	0	0	0	479	622	
10	0	0	0	0	481	622	
11	0	0	0	0	482	622	
12	0	0	0	0	482	622	
13	0	0	0	0	482	621	
14	0	0	0	0	483	622	
15	0	0	0	0	486	622	
0	0	0	0	0	489	622	
1	0	0	0	0	490	622	
2	0	0	0	0	490	622	
3	0	0	0	0	489	622	
4	0	0	0	0	488	623	
5	0	0	0	0	487	622	
6	0	0	0	0	486	622	
7	0	0	0	0	485	622	
8	0	0	0	0	488	623	
9	0	0	0	0	491	623	
10	0	0	0	0	493	623	
11	0	0	0	0	495	623	
12	0	0	0	0	495	623	
13	0	0	0	0	494	623	
14	0	0	0	0	493	622	
15	0	0	0	0	494	623	
0	0	0	0	0	496	623	
1	0	0	0	0	496	623	
2	0	0	0	0	495	622	
3	0	0	0	0	492	622	
4	0	0	0	0	491	622	
5	0	0	0	0	487	623	
6	0	0	0	0	486	622	
7	0	0	0	0	485	622	
8	0	0	0	0	489	622	
9	0	0	0	0	491	622	
10	0	0	0	0	495	622	
11	0	0	0	0	496	622	
12	0	0	0	0	495	622	
13	0	0	0	0	493	622	
14	0	0	0	0	491	622	
15	0	0	0	0	488	622	
0	0	0	0	0	485	622	
1	0	0	0	0	483	622	
2	0	0	0	0	483	622	
3	0	0	0	0	484	622	
4	0	0	0	0	486	623	
5	0	0	0	0	489	622	
6	0	0	0	0	494	622	
7	0	0	0	0	497	622	
8	0	0	0	0	497	622	
9	0	0	0	0	495	623	
10	0	0	0	0	492	622	
11	0	0	0	0	489	622	
12	0	0	0	0	489	623	
13	0	0	0	0	488	622	
14	0	0	0	0	488	622	
15	0	0	0	0	488	623	
0	0	0	0	0	487	623	
1	0	0	0	0	488	623	
2	0	0	0	0	492	622	
3	0	0	0	0	496	622	
4	0	0	0	0	500	623	
5	0	0	0	0	504	622	
6	0	0	0	0	506	623	
7	0	0	0	0	508	622	
8	0	0	0	0	511	623	
9	0	0	0	0	514	622	
10	0	0	0	0	515	623	
11	0	0	0	0	515	623	
12	0	0	0	0	514	623	
13	0	0	0	0	509	623	
14	0	0	0	0	504	623	
15	0	0	0	0	500	623	
0	0	0	0	0	499	623	
1	0	0	0	0	500	623	
2	0	0	0	0	501	623	
3	0	0	0	0	505	623	
4	0	0	0	0	508	623	
5	0	0	0	0	509	623	
6	0	0	0	0	509	623	
7	0	0	0	0	504	623	
8	0	0	0	0	499	624	
9	0	0	0	0	495	623	
10	0	0	0	0	492	623	
11	0	0	0	0	488	623	
12	0	0	0	0	484	624	
13	0	0	0	0	482	623	
14	0	0	0	0	480	623	
15	0	0	0	0	480	623	
0	0	0	0	0	480	623	
1	0	0	0	0	480	623	
2	0	0	0	0	483	623	
3	0	0	0	0	486	623	
4	0	0	0	0	489	624	
5	0	0	0	0	491	623	
6	0	0	0	0	493	623	
7	0	0	0	0	497	623	
8	0	0	0	0	502	623	
9	0	0	0	0	506	623	
10	0	0	0	0	509	623	
11	0	0	0	0	511	622	
12	0	0	0	0	512	623	
13	0	0	0	0	511	623	
14	0	0	0	0	511	623	
15	0	0	0	0	511	623	
0	0	0	0	0	509	623	
1	0	0	0	0	508	623	
2	0	0	0	0	508	623	
3	0	0	0	0	511	623	
4	0	0	0	0	514	623	
5	0	0	0	0	515	623	
6	0	0	0	0	516	622	
7	0	0	0	0	520	622	
8	0	0	0	0	523	623	
9	0	0	0	0	524	623	
10	0	0	0	0	524	623	
11	0	0	0	0	527	623	
12	0	0	0	0	529	623	
13	0	0	0	0	532	623	
14	0	0	0	0	533	622	
15	0	0	0	0	534	623	
0	0	0	0	0	536	622	
1	0	0	0	0	538	622	
2	0	0	0	0	539	622	
3	0	0	0	0	537	622	
4	0	0	0	0	534	623	
5	0	0	0	0	532	623	
6	0	0	0	0	531	623	
7	0	0	0	0	531	623	
8	0	0	0	0	531	622	
9	0	0	0	0	532	622	
10	0	0	0	0	534	622	
11	0	0	0	0	533	622	
12	0	0	0	0	531	623	
13	0	0	0	0	532	622	
14	0	0	0	0	531	621	
15	0	0	0	0	532	621	
0	0	0	0	0	534	622	
1	0	0	0	0	535	622	
2	0	0	0	0	534	622	
3	0	0	0	0	529	622	
4	0	0	0	0	527	622	
5	0	0	0	0	526	622	
6	0	0	0	0	525	622	
7	0	0	0	0	526	622	
8	0	0	0	0	527	622	
9	0	0	0	0	526	622	
10	0	0	0	0	525	621	
11	0	0	0	0	526	621	
12	0	0	0	0	526	621	
13	0	0	0	0	529	621	
14	0	0	0	0	532	621	
15	0	0	0	0	535	621	
0	0	0	0	0	535	622	
1	0	0	0	0	535	622	
2	0	0	0	0	535	621	
3	0	0	0	0	533	622	
4	0	0	0	0	532	622	
5	0	0	0	0	528	622	
6	0	0	0	0	524	622	
7	0	0	0	0	520	621	
8	0	0	0	0	516	621	
9	0	0	0	0	511	622	
10	0	0	0	0	507	621	
11	0	0	0	0	503	621	
12	0	0	0	0	497	622	
13	0	0	0	0	489	621	
14	0	0	0	0	480	622	
15	0	0	0	0	472	622	
0	0	0	0	0	466	622	
1	0	0	0	0	464	621	
2	0	0	0	0	466	622	
3	0	0	0	0	471	622	
4	0	0	0	0	478	622	
5	0	0	0	0	485	622	
6	0	0	0	0	491	622	
7	0	0	0	0	497	622	
8	0	0	0	0	502	622	
9	0	0	0	0	505	622	
10	0	0	0	0	507	622	
11	0	0	0	0	509	622	
12	0	0	0	0	512	623	
13	0	0	0	0	515	622	
14	0	0	0	0	516	622	
15	0	0	0	0	517	622	
0	0	0	0	0	518	623	
1	0	0	0	0	516	622	
2	0	0	0	0	513	623	
3	0	0	0	0	508	623	
4	0	0	0	0	504	623	
5	0	0	0	0	498	623	
6	0	0	0	0	494	623	
7	0	0	0	0	492	623	
8	0	0	0	0	491	623	
9	0	0	0	0	490	623	
10	0	0	0	0	491	623	
11	0	0	0	0	494	623	
12	0	0	0	0	494	624	
13	0	0	0	0	495	623	
14	0	0	0	0	496	623	
15	0	0	0	0	498	623	
0	0	0	0	0	497	623	
1	0	0	0	0	496	623	
2	0	0	0	0	494	623	
3	0	0	0	0	493	623	
4	0	0	0	0	492	624	
5	0	0	0	0	492	623	
6	0	0	0	0	493	623	
7	0	0	0	0	495	623	
8	0	0	0	0	495	622	
9	0	0	0	0	496	624	
10	0	0	0	0	497	623	
11	0	0	0	0	497	623	
12	0	0	0	0	496	623	
13	0	0	0	0	495	623	
14	0	0	0	0	491	623	
15	0	0	0	0	489	622	
0	0	0	0	0	489	623	
1	0	0	0	0	491	623	
2	0	0	0	0	491	623	
3	0	0	0	0	490	622	
4	0	0	0	0	489	623	
5	0	0	0	0	490	623	
6	0	0	0	0	491	623	
7	0	0	0	0	490	622	
8	0	0	0	0	489	622	
9	0	0	0	0	488	622	
10	0	0	0	0	487	622	
11	0	0	0	0	487	622	
12	0	0	0	0	487	622	
13	0	0	0	0	487	622	
14	0	0	0	0	486	622	
15	0	0	0	0	484	622	
0	0	0	0	0	482	622	
1	0	0	0	0	480	622	
2	0	0	0	0	477	622	
3	0	0	0	0	475	622	
4	0	0	0	0	475	623	
5	0	0	0	0	475	621	
6	0	0	0	0	475	622	
7	0	0	0	0	479	621	
8	0	0	0	0	482	622	
9	0	0	0	0	485	621	
10	0	0	0	0	488	621	
11	0	0	0	0	491	621	
12	0	0	0	0	494	622	
13	0	0	0	0	495	621	
14	0	0	0	0	498	621	
15	0	0	0	0	501	621	
0	0	0	0	0	503	621	
1	0	0	0	0	502	621	
2	0	0	0	0	502	622	
3	0	0	0	0	501	621	
4	0	0	0	0	502	622	
5	0	0	0	0	503	622	
6	0	0	0	0	505	621	
7	0	0	0	0	506	622	
8	0	0	0	0	508	621	
9	0	0	0	0	509	621	
10	0	0	0	0	509	621	
11	0	0	0	0	509	622	
12	0	0	0	0	508	623	
13	0	0	0	0	507	622	
14	0	0	0	0	507	622	
15	0	0	0	0	505	622	
0	0	0	0	0	502	622	
1	0	0	0	0	496	622	
2	0	0	0	0	490	622	
3	0	0	0	0	484	623	
4	0	0	0	0	481	623	
5	0	0	0	0	478	622	
6	0	0	0	0	475	622	
7	0	0	0	0	473	623	
8	0	0	0	0	473	623	
9	0	0	0	0	476	623	
10	0	0	0	0	480	623	
11	0	0	0	0	483	623	
12	0	0	0	0	490	623	
13	0	0	0	0	497	623	
14	0	0	0	0	503	622	
15	0	0	0	0	507	623	
0	0	0	0	0	508	623	
1	0	0	0	0	508	623	
2	0	0	0	0	506	623	
3	0	0	0	0	506	623	
4	0	0	0	0	505	624	
5	0	0	0	0	505	623	
6	0	0	0	0	505	623	
7	0	0	0	0	504	623	
8	0	0	0	0	504	623	
9	0	0	0	0	501	623	
10	0	0	0	0	499	623	
11	0	0	0	0	497	623	
12	0	0	0	0	495	624	
13	0	0	0	0	492	623	
14	0	0	0	0	490	623	
15	0	0	0	0	488	622	
0	0	0	0	0	487	623	
1	0	0	0	0	487	622	
2	0	0	0	0	488	623	
3	0	0	0	0	491	623	
4	0	0	0	0	495	623	
5	0	0	0	0	499	623	
6	0	0	0	0	503	623	
7	0	0	0	0	505	623	
8	0	0	0	0	505	623	
9	0	0	0	0	505	623	
10	0	0	0	0	504	623	
11	0	0	0	0	505	622	
12	0	0	0	0	504	623	
13	0	0	0	0	503	622	
14	0	0	0	0	500	622	
15	0	0	0	0	498	622	
0	0	0	0	0	496	622	
1	0	0	0	0	495	622	
2	0	0	0	0	496	622	
3	0	0	0	0	498	622	
4	0	0	0	0	498	623	
5	0	0	0	0	496	622	
6	0	0	0	0	494	622	
7	0	0	0	0	493	621	
8	0	0	0	0	493	622	
9	0	0	0	0	495	622	
10	0	0	0	0	496	622	
11	0	0	0	0	499	622	
12	0	0	0	0	505	623	
13	0	0	0	0	512	622	
14	0	0	0	0	517	622	
15	0	0	0	0	517	623	
0	0	0	0	0	517	622	
1	0	0	0	0	518	622	
2	0	0	0	0	519	622	
3	0	0	0	0	516	622	
4	0	0	0	0	513	622	
5	0	0	0	0	514	623	
6	0	0	0	0	512	623	
7	0	0	0	0	510	623	
8	0	0	0	0	508	622	
9	0	0	0	0	505	621	
10	0	0	0	0	502	622	
11	0	0	0	0	497	622	
12	0	0	0	0	494	622	
13	0	0	0	0	491	622	
14	0	0	0	0	490	622	
15	0	0	0	0	489	621	
0	0	0	0	0	490	622	
1	0	0	0	0	493	622	
2	0	0	0	0	495	621	
3	0	0	0	0	497	622	
4	0	0	0	0	497	622	
5	0	0	0	0	497	622	
6	0	0	0	0	497	622	
7	0	0	0	0	495	622	
8	0	0	0	0	492	622	
9	0	0	0	0	492	621	
10	0	0	0	0	495	621	
11	0	0	0	0	499	621	
12	0	0	0	0	502	622	
13	0	0	0	0	503	621	
14	0	0	0	0	503	621	
15	0	0	0	0	502	621	
0	0	0	0	0	502	622	
1	0	0	0	0	499	622	
2	0	0	0	0	495	621	
3	0	0	0	0	493	622	
4	0	0	0	0	494	622	
5	0	0	0	0	496	622	
6	0	0	0	0	500	621	
7	0	0	0	0	504	622	
8	0	0	0	0	507	622	
9	0	0	0	0	507	623	
10	0	0	0	0	508	622	
11	0	0	0	0	512	622	
12	0	0	0	0	515	623	
13	0	0	0	0	516	622	
14	0	0	0	0	517	622	
15	0	0	0	0	517	622	
0	0	0	0	0	518	622	
1	0	0	0	0	520	622	
2	0	0	0	0	523	622	
3	0	0	0	0	521	622	
4	0	0	0	0	521	623	
5	0	0	0	0	521	622	
6	0	0	0	0	523	622	
7	0	0	0	0	524	621	
8	0	0	0	0	524	622	
9	0	0	0	0	521	622	
10	0	0	0	0	519	622	
11	0	0	0	0	512	622	
12	0	0	0	0	508	623	
13	0	0	0	0	504	622	
14	0	0	0	0	501	623	
15	0	0	0	0	499	623	
0	0	0	0	0	498	622	
1	0	0	0	0	498	622	
2	0	0	0	0	499	622	
3	0	0	0	0	500	623	
4	0	0	0	0	501	623	
5	0	0	0	0	502	622	
6	0	0	0	0	501	623	
7	0	0	0	0	499	623	
8	0	0	0	0	499	623	
9	0	0	0	0	499	622	
10	0	0	0	0	501	622	
11	0	0	0	0	503	622	
12	0	0	0	0	504	622	
13	0	0	0	0	504	622	
14	0	0	0	0	503	623	
15	0	0	0	0	503	622	
0	0	0	0	0	505	623	
1	0	0	0	0	508	623	
2	0	0	0	0	510	622	
3	0	0	0	0	510	622	
4	0	0	0	0	510	622	
5	0	0	0	0	509	622	
6	0	0	0	0	507	622	
7	0	0	0	0	508	622	
8	0	0	0	0	510	623	
9	0	0	0	0	511	622	
10	0	0	0	0	511	622	
11	0	0	0	0	511	622	
12	0	0	0	0	510	623	
13	0	0	0	0	509	622	
14	0	0	0	0	507	622	
15	0	0	0	0	504	622	
0	0	0	0	0	501	623	
1	0	0	0	0	499	623	
2	0	0	0	0	498	622	
3	0	0	0	0	499	623	
4	0	0	0	0	500	623	
5	0	0	0	0	500	623	
6	0	0	0	0	501	622	
7	0	0	0	0	502	622	
8	0	0	0	0	501	623	
9	0	0	0	0	502	622	
10	0	0	0	0	503	622	
11	0	0	0	0	499	623	
12	0	0	0	0	495	623	
13	0	0	0	0	492	623	
14	0	0	0	0	491	623	
15	0	0	0	0	491	622	
0	0	0	0	0	492	623	
1	0	0	0	0	495	623	
2	0	0	0	0	497	623	
3	0	0	0	0	501	623	
4	0	0	0	0	506	624	
5	0	0	0	0	510	623	
6	0	0	0	0	513	623	
7	0	0	0	0	517	623	
8	0	0	0	0	524	623	
9	0	0	0	0	532	623	
10	0	0	0	0	536	623	
11	0	0	0	0	535	623	
12	0	0	0	0	530	624	
13	0	0	0	0	525	623	
14	0	0	0	0	523	623	
15	0	0	0	0	523	623	
0	0	0	0	0	523	623	
1	0	0	0	0	520	623	
2	0	0	0	0	515	622	
3	0	0	0	0	513	622	
4	0	0	0	0	510	623	
5	0	0	0	0	510	622	
6	0	0	0	0	509	622	
7	0	0	0	0	508	622	
8	0	0	0	0	508	622	
9	0	0	0	0	508	622	
10	0	0	0	0	507	622	
11	0	0	0	0	505	621	
12	0	0	0	0	504	623	
13	0	0	0	0	503	621	
14	0	0	0	0	500	621	
15	0	0	0	0	490	622	
0	0	0	0	0	479	622	
1	0	0	0	0	470	622	
2	0	0	0	0	464	622	
3	0	0	0	0	461	622	
4	0	0	0	0	463	622	
5	0	0	0	0	468	622	
6	0	0	0	0	477	623	
7	0	0	0	0	489	622	
8	0	0	0	0	501	622	
9	0	0	0	0	516	621	
10	0	0	0	0	527	622	
11	0	0	0	0	531	622	
12	0	0	0	0	532	622	
13	0	0	0	0	531	621	
14	0	0	0	0	532	622	
15	0	0	0	0	533	622	
0	0	0	0	0	534	622	
1	0	0	0	0	534	622	
2	0	0	0	0	533	622	
3	0	0	0	0	531	622	
4	0	0	0	0	529	623	
5	0	0	0	0	524	622	
6	0	0	0	0	521	622	
7	0	0	0	0	518	622	
8	0	0	0	0	515	622	
9	0	0	0	0	511	622	
10	0	0	0	0	508	622	
11	0	0	0	0	505	623	
12	0	0	0	0	501	623	
13	0	0	0	0	498	623	
14	0	0	0	0	498	623	
15	0	0	0	0	499	622	
0	0	0	0	0	502	623	
1	0	0	0	0	504	623	
2	0	0	0	0	507	623	
3	0	0	0	0	510	623	
4	0	0	0	0	512	623	
5	0	0	0	0	514	623	
6	0	0	0	0	515	622	
7	0	0	0	0	514	623	
8	0	0	0	0	511	623	
9	0	0	0	0	508	623	
10	0	0	0	0	507	623	
11	0	0	0	0	507	622	
12	0	0	0	0	506	623	
13	0	0	0	0	505	623	
14	0	0	0	0	503	623	
15	0	0	0	0	503	622	
0	0	0	0	0	505	623	
1	0	0	0	0	507	623	
2	0	0	0	0	508	622	
3	0	0	0	0	512	622	
4	0	0	0	0	516	622	
5	0	0	0	0	518	622	
6	0	0	0	0	520	622	
7	0	0	0	0	521	622	
8	0	0	0	0	523	621	
9	0	0	0	0	523	621	
10	0	0	0	0	523	622	
11	0	0	0	0	527	622	
12	0	0	0	0	530	622	
13	0	0	0	0	532	622	
14	0	0	0	0	529	621	
15	0	0	0	0	524	621	
0	0	0	0	0	519	621	
1	0	0	0	0	513	621	
2	0	0	0	0	510	621	
3	0	0	0	0	508	621	
4	0	0	0	0	505	622	
5	0	0	0	0	502	622	
6	0	0	0	0	498	621	
7	0	0	0	0	496	622	
8	0	0	0	0	493	621	
9	0	0	0	0	489	622	
10	0	0	0	0	485	622	
11	0	0	0	0	482	622	
12	0	0	0	0	482	622	
13	0	0	0	0	484	622	
14	0	0	0	0	487	622	
15	0	0	0	0	494	622	
0	0	0	0	0	502	622	
1	0	0	0	0	509	622	
2	0	0	0	0	514	622	
3	0	0	0	0	518	621	
4	0	0	0	0	520	622	
5	0	0	0	0	521	622	
6	0	0	0	0	521	622	
7	0	0	0	0	520	622	
8	0	0	0	0	519	622	
9	0	0	0	0	514	622	
10	0	0	0	0	510	622	
11	0	0	0	0	505	621	
12	0	0	0	0	502	622	
13	0	0	0	0	500	621	
14	0	0	0	0	502	622	
15	0	0	0	0	504	622	
0	0	0	0	0	507	622	
1	0	0	0	0	508	621	
2	0	0	0	0	511	622	
3	0	0	0	0	512	622	
4	0	0	0	0	513	622	
5	0	0	0	0	516	622	
6	0	0	0	0	518	622	
7	0	0	0	0	519	622	
8	0	0	0	0	519	622	
9	0	0	0	0	518	622	
10	0	0	0	0	517	621	
11	0	0	0	0	515	622	
12	0	0	0	0	513	623	
13	0	0	0	0	510	622	
14	0	0	0	0	508	623	
15	0	0	0	0	507	622	
0	0	0	0	0	504	622	
1	0	0	0	0	501	622	
2	0	0	0	0	500	623	
3	0	0	0	0	498	622	
4	0	0	0	0	496	622	
5	0	0	0	0	492	622	
6	0	0	0	0	489	622	
7	0	0	0	0	489	623	
8	0	0	0	0	491	622	
9	0	0	0	0	494	622	
10	0	0	0	0	496	622	
11	0	0	0	0	500	623	
12	0	0	0	0	506	623	
13	0	0	0	0	512	622	
14	0	0	0	0	518	623	
15	0	0	0	0	522	622	
0	0	0	0	0	524	622	
1	0	0	0	0	524	623	
2	0	0	0	0	521	622	
3	0	0	0	0	519	623	
4	0	0	0	0	519	624	
5	0	0	0	0	518	623	
6	0	0	0	0	515	623	
7	0	0	0	0	512	624	
8	0	0	0	0	508	623	
9	0	0	0	0	505	623	
10	0	0	0	0	505	623	
11	0	0	0	0	507	623	
12	0	0	0	0	511	624	
13	0	0	0	0	514	623	
14	0	0	0	0	512	624	
15	0	0	0	0	506	623	
0	0	0	0	0	501	624	
1	0	0	0	0	497	623	
2	0	0	0	0	492	624	
3	0	0	0	0	486	624	
4	0	0	0	0	480	624	
5	0	0	0	0	471	624	
6	0	0	0	0	462	624	
7	0	0	0	0	458	624	
8	0	0	0	0	459	624	
9	0	0	0	0	462	623	
10	0	0	0	0	465	623	
11	0	0	0	0	467	623	
12	0	0	0	0	467	624	
13	0	0	0	0	466	624	
14	0	0	0	0	465	624	
15	0	0	0	0	465	624	
0	0	0	0	0	464	624	
1	0	0	0	0	462	624	
2	0	0	0	0	463	624	
3	0	0	0	0	465	624	
4	0	0	0	0	468	624	
5	0	0	0	0	472	624	
6	0	0	0	0	475	623	
7	0	0	0	0	478	624	
8	0	0	0	0	481	624	
9	0	0	0	0	489	624	
10	0	0	0	0	498	624	
11	0	0	0	0	510	624	
12	0	0	0	0	524	624	
13	0	0	0	0	539	623	
14	0	0	0	0	555	623	
15	0	0	0	0	569	623	
0	0	0	0	0	583	623	
1	0	0	0	0	594	622	
2	0	0	0	0	605	623	
3	0	0	0	0	617	623	
4	0	0	0	0	626	623	
5	0	0	0	0	635	623	
6	0	0	0	0	643	623	
7	0	0	0	0	650	622	
8	0	0	0	0	653	623	
9	0	0	0	0	649	622	
10	0	0	0	0	642	622	
11	0	0	0	0	635	622	
12	0	0	0	0	630	623	
13	0	0	0	0	627	622	
14	0	0	0	0	625	622	
15	0	0	0	0	625	622	
0	0	0	0	0	621	622	
1	0	0	0	0	620	622	
2	0	0	0	0	620	622	
3	0	0	0	0	620	621	
4	0	0	0	0	619	622	
5	0	0	0	0	617	622	
6	0	0	0	0	614	621	
7	0	0	0	0	609	622	
8	0	0	0	0	603	622	
9	0	0	0	0	597	621	
10	0	0	0	0	591	622	
11	0	0	0	0	582	621	
12	0	0	0	0	569	622	
13	0	0	0	0	556	621	
14	0	0	0	0	544	621	
15	0	0	0	0	534	622	
0	0	0	0	0	524	621	
1	0	0	0	0	517	622	
2	0	0	0	0	512	622	
3	0	0	0	0	509	622	
4	0	0	0	0	507	621	
5	0	0	0	0	504	622	
6	0	0	0	0	500	621	
7	0	0	0	0	497	622	
8	0	0	0	0	492	622	
9	0	0	0	0	486	622	
10	0	0	0	0	480	622	
11	0	0	0	0	475	622	
12	0	0	0	0	471	623	
13	0	0	0	0	467	622	
14	0	0	0	0	465	622	
15	0	0	0	0	466	622	
0	0	0	0	0	470	622	
1	0	0	0	0	473	623	
2	0	0	0	0	476	622	
3	0	0	0	0	478	622	
4	0	0	0	0	480	622	
5	0	0	0	0	483	622	
6	0	0	0	0	486	622	
7	0	0	0	0	487	623	
8	0	0	0	0	487	623	
9	0	0	0	0	485	622	
10	0	0	0	0	483	622	
11	0	0	0	0	480	622	
12	0	0	0	0	478	623	
13	0	0	0	0	476	623	
14	0	0	0	0	473	622	
15	0	0	0	0	472	623	
0	0	0	0	0	472	622	
1	0	0	0	0	473	622	
2	0	0	0	0	476	622	
3	0	0	0	0	479	622	
4	0	0	0	0	483	622	
5	0	0	0	0	487	622	
6	0	0	0	0	488	622	
7	0	0	0	0	491	623	
8	0	0	0	0	496	622	
9	0	0	0	0	499	622	
10	0	0	0	0	499	622	
11	0	0	0	0	499	623	
12	0	0	0	0	494	622	
13	0	0	0	0	489	623	
14	0	0	0	0	486	623	
15	0	0	0	0	483	623	
0	0	0	0	0	481	623	
1	0	0	0	0	481	623	
2	0	0	0	0	483	623	
3	0	0	0	0	487	623	
4	0	0	0	0	488	623	
5	0	0	0	0	489	622	
6	0	0	0	0	490	622	
7	0	0	0	0	491	622	
8	0	0	0	0	492	622	
9	0	0	0	0	494	623	
10	0	0	0	0	496	622	
11	0	0	0	0	498	623	
12	0	0	0	0	498	624	
13	0	0	0	0	498	623	
14	0	0	0	0	497	623	
15	0	0	0	0	497	623	
0	0	0	0	0	496	623	
1	0	0	0	0	496	623	
2	0	0	0	0	494	623	
3	0	0	0	0	489	623	
4	0	0	0	0	486	624	
5	0	0	0	0	485	623	
6	0	0	0	0	487	623	
7	0	0	0	0	488	623	
8	0	0	0	0	490	623	
9	0	0	0	0	491	622	
10	0	0	0	0	490	623	
11	0	0	0	0	490	622	
12	0	0	0	0	489	623	
13	0	0	0	0	488	622	
14	0	0	0	0	488	623	
15	0	0	0	0	490	622	
0	0	0	0	0	492	622	
1	0	0	0	0	493	622	
2	0	0	0	0	494	622	
3	0	0	0	0	494	622	
4	0	0	0	0	494	622	
5	0	0	0	0	496	622	
6	0	0	0	0	495	622	
7	0	0	0	0	495	622	
8	0	0	0	0	495	622	
9	0	0	0	0	495	622	
10	0	0	0	0	495	622	
11	0	0	0	0	496	622	
12	0	0	0	0	498	622	
13	0	0	0	0	500	622	
14	0	0	0	0	502	622	
15	0	0	0	0	503	622	
0	0	0	0	0	504	622	
1	0	0	0	0	504	621	
2	0	0	0	0	504	621	
3	0	0	0	0	504	621	
4	0	0	0	0	503	621	
5	0	0	0	0	500	621	
6	0	0	0	0	497	622	
7	0	0	0	0	494	622	
8	0	0	0	0	489	621	
9	0	0	0	0	484	621	
10	0	0	0	0	481	621	
11	0	0	0	0	480	621	
12	0	0	0	0	479	622	
13	0	0	0	0	477	621	
14	0	0	0	0	475	620	
15	0	0	0	0	473	620	
0	0	0	0	0	472	621	
1	0	0	0	0	471	621	
2	0	0	0	0	472	621	
3	0	0	0	0	473	621	
4	0	0	0	0	475	621	
5	0	0	0	0	476	620	
6	0	0	0	0	481	620	
7	0	0	0	0	487	620	
8	0	0	0	0	491	621	
9	0	0	0	0	496	620	
10	0	0	0	0	504	620	
11	0	0	0	0	510	620	
12	0	0	0	0	516	621	
13	0	0	0	0	521	620	
14	0	0	0	0	524	621	
15	0	0	0	0	524	621	
0	0	0	0	0	521	622	
1	0	0	0	0	516	622	
2	0	0	0	0	511	622	
3	0	0	0	0	505	622	
4	0	0	0	0	500	622	
5	0	0	0	0	495	622	
6	0	0	0	0	492	622	
7	0	0	0	0	491	622	
8	0	0	0	0	491	622	
9	0	0	0	0	493	622	
10	0	0	0	0	497	623	
11	0	0	0	0	501	623	
12	0	0	0	0	504	623	
13	0	0	0	0	508	623	
14	0	0	0	0	513	623	
15	0	0	0	0	519	623	
0	0	0	0	0	522	623	
1	0	0	0	0	522	624	
2	0	0	0	0	522	624	
3	0	0	0	0	523	624	
4	0	0	0	0	522	624	
5	0	0	0	0	520	624	
6	0	0	0	0	519	624	
7	0	0	0	0	518	624	
8	0	0	0	0	516	624	
9	0	0	0	0	513	624	
10	0	0	0	0	510	624	
11	0	0	0	0	508	624	
12	0	0	0	0	507	625	
13	0	0	0	0	506	624	
14	0	0	0	0	508	624	
15	0	0	0	0	510	625	
0	0	0	0	0	511	625	
1	0	0	0	0	512	624	
2	0	0	0	0	512	624	
3	0	0	0	0	512	624	
4	0	0	0	0	511	625	
5	0	0	0	0	512	624	
6	0	0	0	0	513	624	
7	0	0	0	0	513	624	
8	0	0	0	0	514	625	
9	0	0	0	0	516	625	
10	0	0	0	0	518	625	
11	0	0	0	0	519	624	
12	0	0	0	0	519	625	
13	0	0	0	0	516	624	
14	0	0	0	0	511	624	
15	0	0	0	0	507	624	
0	0	0	0	0	503	624	
1	0	0	0	0	499	624	
2	0	0	0	0	497	625	
3	0	0	0	0	497	624	
4	0	0	0	0	498	624	
5	0	0	0	0	499	624	
6	0	0	0	0	502	624	
7	0	0	0	0	504	624	
8	0	0	0	0	506	624	
9	0	0	0	0	508	624	
10	0	0	0	0	512	623	
11	0	0	0	0	516	623	
12	0	0	0	0	520	623	
13	0	0	0	0	525	624	
14	0	0	0	0	530	623	
15	0	0	0	0	536	623	
0	0	0	0	0	541	624	
1	0	0	0	0	544	623	
2	0	0	0	0	546	622	
3	0	0	0	0	549	622	
4	0	0	0	0	552	622	
5	0	0	0	0	553	621	
6	0	0	0	0	554	621	
7	0	0	0	0	556	621	
8	0	0	0	0	556	622	
9	0	0	0	0	556	621	
10	0	0	0	0	555	621	
11	0	0	0	0	553	621	
12	0	0	0	0	551	622	
13	0	0	0	0	548	622	
14	0	0	0	0	547	621	
15	0	0	0	0	543	621	
0	0	0	0	0	540	622	
1	0	0	0	0	535	621	
2	0	0	0	0	531	621	
3	0	0	0	0	529	621	
4	0	0	0	0	528	621	
5	0	0	0	0	526	621	
6	0	0	0	0	523	620	
7	0	0	0	0	520	620	
8	0	0	0	0	519	620	
9	0	0	0	0	519	620	
10	0	0	0	0	519	621	
11	0	0	0	0	518	620	
12	0	0	0	0	518	621	
13	0	0	0	0	516	620	
14	0	0	0	0	515	620	
15	0	0	0	0	512	620	
0	0	0	0	0	508	621	
1	0	0	0	0	504	620	
2	0	0	0	0	501	620	
3	0	0	0	0	500	620	
4	0	0	0	0	501	621	
5	0	0	0	0	502	621	
6	0	0	0	0	502	620	
7	0	0	0	0	505	620	
8	0	0	0	0	509	620	
9	0	0	0	0	509	620	
10	0	0	0	0	510	620	
11	0	0	0	0	510	620	
12	0	0	0	0	510	620	
13	0	0	0	0	508	620	
14	0	0	0	0	504	620	
15	0	0	0	0	501	620	
0	0	0	0	0	500	620	
1	0	0	0	0	502	620	
2	0	0	0	0	503	620	
3	0	0	0	0	505	619	
4	0	0	0	0	505	620	
5	0	0	0	0	504	620	
6	0	0	0	0	505	620	
7	0	0	0	0	505	620	
8	0	0	0	0	506	620	
9	0	0	0	0	505	620	
10	0	0	0	0	503	620	
11	0	0	0	0	501	620	
12	0	0	0	0	499	620	
13	0	0	0	0	497	620	
14	0	0	0	0	492	621	
15	0	0	0	0	484	621	
0	0	0	0	0	477	621	
1	0	0	0	0	470	621	
2	0	0	0	0	464	622	
3	0	0	0	0	457	622	
4	0	0	0	0	453	622	
5	0	0	0	0	452	623	
6	0	0	0	0	454	623	
7	0	0	0	0	459	623	
8	0	0	0	0	468	623	
9	0	0	0	0	478	622	
10	0	0	0	0	488	623	
11	0	0	0	0	496	623	
12	0	0	0	0	504	623	
13	0	0	0	0	510	623	
14	0	0	0	0	512	623	
15	0	0	0	0	515	623	
0	0	0	0	0	512	623	
1	0	0	0	0	510	623	
2	0	0	0	0	507	623	
3	0	0	0	0	503	624	
4	0	0	0	0	500	624	
5	0	0	0	0	498	624	
6	0	0	0	0	496	624	
7	0	0	0	0	492	624	
8	0	0	0	0	489	624	
9	0	0	0	0	487	624	
10	0	0	0	0	487	624	
11	0	0	0	0	487	624	
12	0	0	0	0	487	624	
13	0	0	0	0	488	624	
14	0	0	0	0	488	625	
15	0	0	0	0	488	625	
0	0	0	0	0	489	624	
1	0	0	0	0	489	624	
2	0	0	0	0	491	625	
3	0	0	0	0	492	625	
4	0	0	0	0	491	625	
5	0	0	0	0	490	624	
6	0	0	0	0	489	624	
7	0	0	0	0	488	624	
8	0	0	0	0	487	624	
9	0	0	0	0	486	624	
10	0	0	0	0	484	624	
11	0	0	0	0	482	624	
12	0	0	0	0	479	624	
13	0	0	0	0	478	624	
14	0	0	0	0	478	624	
15	0	0	0	0	478	624	
0	0	0	0	0	478	624	
1	0	0	0	0	479	624	
2	0	0	0	0	480	624	
3	0	0	0	0	480	623	
4	0	0	0	0	480	624	
5	0	0	0	0	479	623	
6	0	0	0	0	477	623	
7	0	0	0	0	476	623	
8	0	0	0	0	476	623	
9	0	0	0	0	476	623	
10	0	0	0	0	476	623	
11	0	0	0	0	478	622	
12	0	0	0	0	480	623	
13	0	0	0	0	483	623	
14	0	0	0	0	486	622	
15	0	0	0	0	490	622	
0	0	0	0	0	494	623	
1	0	0	0	0	497	622	
2	0	0	0	0	500	622	
3	0	0	0	0	500	621	
4	0	0	0	0	500	622	
5	0	0	0	0	500	621	
6	0	0	0	0	501	621	
7	0	0	0	0	499	621	
8	0	0	0	0	496	621	
9	0	0	0	0	493	621	
10	0	0	0	0	491	620	
11	0	0	0	0	488	621	
12	0	0	0	0	486	621	
13	0	0	0	0	485	621	
14	0	0	0	0	486	620	
15	0	0	0	0	490	620	
0	0	0	0	0	493	620	
1	0	0	0	0	494	620	
2	0	0	0	0	496	620	
3	0	0	0	0	497	619	
4	0	0	0	0	498	620	
5	0	0	0	0	498	620	
6	0	0	0	0	496	620	
7	0	0	0	0	495	619	
8	0	0	0	0	492	620	
9	0	0	0	0	488	620	
10	0	0	0	0	485	619	
11	0	0	0	0	481	620	
12	0	0	0	0	473	620	
13	0	0	0	0	467	620	
14	0	0	0	0	463	620	
15	0	0	0	0	461	620	
0	0	0	0	0	463	620	
1	0	0	0	0	466	620	
2	0	0	0	0	472	620	
3	0	0	0	0	480	620	
4	0	0	0	0	486	620	
5	0	0	0	0	492	620	
6	0	0	0	0	497	620	
7	0	0	0	0	501	620	
8	0	0	0	0	503	620	
9	0	0	0	0	504	620	
10	0	0	0	0	506	621	
11	0	0	0	0	507	621	
12	0	0	0	0	508	621	
13	0	0	0	0	508	621	
14	0	0	0	0	508	621	
15	0	0	0	0	508	620	
0	0	0	0	0	508	621	
1	0	0	0	0	507	620	
2	0	0	0	0	505	621	
3	0	0	0	0	504	621	
