# OpenSignals Text File Format. Version 1
# {"98:D3:91:FD:69:48": {"position": 0, "device": "bitalino_rev", "device name": "98:D3:91:FD:69:48", "device connection": "BTH98:D3:91:FD:69:48", "sampling rate": 1000, "resolution": [4, 1, 1, 1, 1, 10, 10], "firmware version": 1281, "comments": "", "keywords": "", "mode": 0, "sync interval": 2, "date": "2021-9-4", "time": "19:1:26.135", "channels": [2, 5], "sensor": ["RAW", "RAW"], "label": ["A2", "A5"], "column": ["nSeq", "I1", "I2", "O1", "O2", "A2", "A5"], "special": [{}, {}], "digital IO": [0, 0, 1, 1], "convertedValues": 0}}
# EndOfHeader
0	0	0	0	0	509	410	
1	0	0	0	0	509	410	
2	0	0	0	0	508	409	
3	0	0	0	0	508	409	
4	0	0	0	0	509	410	
5	0	0	0	0	509	410	
6	0	0	0	0	510	410	
7	0	0	0	0	511	409	
8	0	0	0	0	511	410	
9	0	0	0	0	511	410	
10	0	0	0	0	510	410	
11	0	0	0	0	510	410	
12	0	0	0	0	510	410	
13	0	0	0	0	510	410	
14	0	0	0	0	511	410	
15	0	0	0	0	510	410	
0	0	0	0	0	511	409	
1	0	0	0	0	511	409	
2	0	0	0	0	511	410	
3	0	0	0	0	511	410	
4	0	0	0	0	511	410	
5	0	0	0	0	511	410	
6	0	0	0	0	511	411	
7	0	0	0	0	511	411	
8	0	0	0	0	512	410	
9	0	0	0	0	512	410	
10	0	0	0	0	512	409	
11	0	0	0	0	512	409	
12	0	0	0	0	511	410	
13	0	0	0	0	510	410	
14	0	0	0	0	509	411	
15	0	0	0	0	508	411	
0	0	0	0	0	506	410	
1	0	0	0	0	505	410	
2	0	0	0	0	504	410	
3	0	0	0	0	502	411	
4	0	0	0	0	499	411	
5	0	0	0	0	498	410	
6	0	0	0	0	494	411	
7	0	0	0	0	490	411	
8	0	0	0	0	487	411	
9	0	0	0	0	482	411	
10	0	0	0	0	479	411	
11	0	0	0	0	476	410	
12	0	0	0	0	472	411	
13	0	0	0	0	469	410	
14	0	0	0	0	467	411	
15	0	0	0	0	464	410	
0	0	0	0	0	461	410	
1	0	0	0	0	459	411	
2	0	0	0	0	459	410	
3	0	0	0	0	458	410	
4	0	0	0	0	459	410	
5	0	0	0	0	463	410	
6	0	0	0	0	470	410	
7	0	0	0	0	479	409	
8	0	0	0	0	491	410	
9	0	0	0	0	504	410	
10	0	0	0	0	518	410	
11	0	0	0	0	534	410	
12	0	0	0	0	549	409	
13	0	0	0	0	565	409	
14	0	0	0	0	580	409	
15	0	0	0	0	594	409	
0	0	0	0	0	607	410	
1	0	0	0	0	620	409	
2	0	0	0	0	632	409	
3	0	0	0	0	644	409	
4	0	0	0	0	653	409	
5	0	0	0	0	656	409	
6	0	0	0	0	651	409	
7	0	0	0	0	644	408	
8	0	0	0	0	635	408	
9	0	0	0	0	625	409	
10	0	0	0	0	616	409	
11	0	0	0	0	606	408	
12	0	0	0	0	598	409	
13	0	0	0	0	592	409	
14	0	0	0	0	584	409	
15	0	0	0	0	574	409	
0	0	0	0	0	565	409	
1	0	0	0	0	556	409	
2	0	0	0	0	547	409	
3	0	0	0	0	540	409	
4	0	0	0	0	535	409	
5	0	0	0	0	530	409	
6	0	0	0	0	527	409	
7	0	0	0	0	524	409	
8	0	0	0	0	521	409	
9	0	0	0	0	521	410	
10	0	0	0	0	521	410	
11	0	0	0	0	521	410	
12	0	0	0	0	521	409	
13	0	0	0	0	520	409	
14	0	0	0	0	519	410	
15	0	0	0	0	518	409	
0	0	0	0	0	516	410	
1	0	0	0	0	514	410	
2	0	0	0	0	512	410	
3	0	0	0	0	510	410	
4	0	0	0	0	507	409	
5	0	0	0	0	505	409	
6	0	0	0	0	503	409	
7	0	0	0	0	501	409	
8	0	0	0	0	499	410	
9	0	0	0	0	496	409	
10	0	0	0	0	494	410	
11	0	0	0	0	492	410	
12	0	0	0	0	491	409	
13	0	0	0	0	489	410	
14	0	0	0	0	488	410	
15	0	0	0	0	487	409	
0	0	0	0	0	487	410	
1	0	0	0	0	486	409	
2	0	0	0	0	486	410	
3	0	0	0	0	487	410	
4	0	0	0	0	487	411	
5	0	0	0	0	486	410	
6	0	0	0	0	486	410	
7	0	0	0	0	486	411	
8	0	0	0	0	486	410	
9	0	0	0	0	486	411	
10	0	0	0	0	487	410	
11	0	0	0	0	487	410	
12	0	0	0	0	487	410	
13	0	0	0	0	487	410	
14	0	0	0	0	487	411	
15	0	0	0	0	487	410	
0	0	0	0	0	488	410	
1	0	0	0	0	488	410	
2	0	0	0	0	489	411	
3	0	0	0	0	490	411	
4	0	0	0	0	490	410	
5	0	0	0	0	491	410	
6	0	0	0	0	492	411	
7	0	0	0	0	492	410	
8	0	0	0	0	494	410	
9	0	0	0	0	495	410	
10	0	0	0	0	496	410	
11	0	0	0	0	496	411	
12	0	0	0	0	496	410	
13	0	0	0	0	496	411	
14	0	0	0	0	496	410	
15	0	0	0	0	496	410	
0	0	0	0	0	496	410	
1	0	0	0	0	496	410	
2	0	0	0	0	496	411	
3	0	0	0	0	496	410	
4	0	0	0	0	496	409	
5	0	0	0	0	495	411	
6	0	0	0	0	495	411	
7	0	0	0	0	495	410	
8	0	0	0	0	495	410	
9	0	0	0	0	495	410	
10	0	0	0	0	495	409	
11	0	0	0	0	495	410	
12	0	0	0	0	495	410	
13	0	0	0	0	495	409	
14	0	0	0	0	496	410	
15	0	0	0	0	497	410	
0	0	0	0	0	497	410	
1	0	0	0	0	497	410	
2	0	0	0	0	496	409	
3	0	0	0	0	496	410	
4	0	0	0	0	496	410	
5	0	0	0	0	496	410	
6	0	0	0	0	495	410	
7	0	0	0	0	495	410	
8	0	0	0	0	496	409	
9	0	0	0	0	496	410	
10	0	0	0	0	496	409	
11	0	0	0	0	497	409	
12	0	0	0	0	497	410	
13	0	0	0	0	497	409	
14	0	0	0	0	498	409	
15	0	0	0	0	498	409	
0	0	0	0	0	498	409	
1	0	0	0	0	499	409	
2	0	0	0	0	499	409	
3	0	0	0	0	499	410	
4	0	0	0	0	499	409	
5	0	0	0	0	500	409	
6	0	0	0	0	500	409	
7	0	0	0	0	499	410	
8	0	0	0	0	499	409	
9	0	0	0	0	499	410	
10	0	0	0	0	500	410	
11	0	0	0	0	500	410	
12	0	0	0	0	501	409	
13	0	0	0	0	500	409	
14	0	0	0	0	500	409	
15	0	0	0	0	500	409	
0	0	0	0	0	501	409	
1	0	0	0	0	501	409	
2	0	0	0	0	502	409	
3	0	0	0	0	502	409	
4	0	0	0	0	502	409	
5	0	0	0	0	502	409	
6	0	0	0	0	502	410	
7	0	0	0	0	502	410	
8	0	0	0	0	502	409	
9	0	0	0	0	503	410	
10	0	0	0	0	502	409	
11	0	0	0	0	502	409	
12	0	0	0	0	503	410	
13	0	0	0	0	502	409	
14	0	0	0	0	502	410	
15	0	0	0	0	502	410	
0	0	0	0	0	501	410	
1	0	0	0	0	501	410	
2	0	0	0	0	501	409	
3	0	0	0	0	502	409	
4	0	0	0	0	502	410	
5	0	0	0	0	503	409	
6	0	0	0	0	503	410	
7	0	0	0	0	503	409	
8	0	0	0	0	503	409	
9	0	0	0	0	504	409	
10	0	0	0	0	504	409	
11	0	0	0	0	504	409	
12	0	0	0	0	505	409	
13	0	0	0	0	505	409	
14	0	0	0	0	505	410	
15	0	0	0	0	505	410	
0	0	0	0	0	506	411	
1	0	0	0	0	506	410	
2	0	0	0	0	506	411	
3	0	0	0	0	506	411	
4	0	0	0	0	506	409	
5	0	0	0	0	506	411	
6	0	0	0	0	506	411	
7	0	0	0	0	506	410	
8	0	0	0	0	506	410	
9	0	0	0	0	506	410	
10	0	0	0	0	507	410	
11	0	0	0	0	507	410	
12	0	0	0	0	507	410	
13	0	0	0	0	508	411	
14	0	0	0	0	508	410	
15	0	0	0	0	508	410	
0	0	0	0	0	508	409	
1	0	0	0	0	508	409	
2	0	0	0	0	507	409	
3	0	0	0	0	507	409	
4	0	0	0	0	508	410	
5	0	0	0	0	508	409	
6	0	0	0	0	508	411	
7	0	0	0	0	508	410	
8	0	0	0	0	509	410	
9	0	0	0	0	509	409	
10	0	0	0	0	510	410	
11	0	0	0	0	511	410	
12	0	0	0	0	511	410	
13	0	0	0	0	512	409	
14	0	0	0	0	513	410	
15	0	0	0	0	513	410	
0	0	0	0	0	515	410	
1	0	0	0	0	516	410	
2	0	0	0	0	516	410	
3	0	0	0	0	517	410	
4	0	0	0	0	517	409	
5	0	0	0	0	518	410	
6	0	0	0	0	518	410	
7	0	0	0	0	519	410	
8	0	0	0	0	519	409	
9	0	0	0	0	519	410	
10	0	0	0	0	520	410	
11	0	0	0	0	520	410	
12	0	0	0	0	520	410	
13	0	0	0	0	521	409	
14	0	0	0	0	522	410	
15	0	0	0	0	522	409	
0	0	0	0	0	523	409	
1	0	0	0	0	524	409	
2	0	0	0	0	524	410	
3	0	0	0	0	525	409	
4	0	0	0	0	525	410	
5	0	0	0	0	526	409	
6	0	0	0	0	526	409	
7	0	0	0	0	527	409	
8	0	0	0	0	527	409	
9	0	0	0	0	527	409	
10	0	0	0	0	526	409	
11	0	0	0	0	526	409	
12	0	0	0	0	527	409	
13	0	0	0	0	527	409	
14	0	0	0	0	527	410	
15	0	0	0	0	527	410	
0	0	0	0	0	527	409	
1	0	0	0	0	527	410	
2	0	0	0	0	528	410	
3	0	0	0	0	528	410	
4	0	0	0	0	528	409	
5	0	0	0	0	528	409	
6	0	0	0	0	528	409	
7	0	0	0	0	528	409	
8	0	0	0	0	528	409	
9	0	0	0	0	528	409	
10	0	0	0	0	527	409	
11	0	0	0	0	527	409	
12	0	0	0	0	527	409	
13	0	0	0	0	527	409	
14	0	0	0	0	528	410	
15	0	0	0	0	527	409	
0	0	0	0	0	527	409	
1	0	0	0	0	527	409	
2	0	0	0	0	527	410	
3	0	0	0	0	527	409	
4	0	0	0	0	527	409	
5	0	0	0	0	527	409	
6	0	0	0	0	527	409	
7	0	0	0	0	525	409	
8	0	0	0	0	525	409	
9	0	0	0	0	524	410	
10	0	0	0	0	525	410	
11	0	0	0	0	524	409	
12	0	0	0	0	523	409	
13	0	0	0	0	523	409	
14	0	0	0	0	522	410	
15	0	0	0	0	521	410	
0	0	0	0	0	520	409	
1	0	0	0	0	519	410	
2	0	0	0	0	519	410	
3	0	0	0	0	518	409	
4	0	0	0	0	517	409	
5	0	0	0	0	515	409	
6	0	0	0	0	514	410	
7	0	0	0	0	513	410	
8	0	0	0	0	512	410	
9	0	0	0	0	511	410	
10	0	0	0	0	510	409	
11	0	0	0	0	508	410	
12	0	0	0	0	506	410	
13	0	0	0	0	505	410	
14	0	0	0	0	504	410	
15	0	0	0	0	504	410	
0	0	0	0	0	504	410	
1	0	0	0	0	504	410	
2	0	0	0	0	503	409	
3	0	0	0	0	503	410	
4	0	0	0	0	503	410	
5	0	0	0	0	502	410	
6	0	0	0	0	501	411	
7	0	0	0	0	500	410	
8	0	0	0	0	500	409	
9	0	0	0	0	499	409	
10	0	0	0	0	498	410	
11	0	0	0	0	498	409	
12	0	0	0	0	498	409	
13	0	0	0	0	498	409	
14	0	0	0	0	499	410	
15	0	0	0	0	499	410	
0	0	0	0	0	499	410	
1	0	0	0	0	498	409	
2	0	0	0	0	499	411	
3	0	0	0	0	499	410	
4	0	0	0	0	499	409	
5	0	0	0	0	499	409	
6	0	0	0	0	499	409	
7	0	0	0	0	498	410	
8	0	0	0	0	497	410	
9	0	0	0	0	496	410	
10	0	0	0	0	496	410	
11	0	0	0	0	495	409	
12	0	0	0	0	495	411	
13	0	0	0	0	495	409	
14	0	0	0	0	496	410	
15	0	0	0	0	496	410	
0	0	0	0	0	496	409	
1	0	0	0	0	495	409	
2	0	0	0	0	495	409	
3	0	0	0	0	495	410	
4	0	0	0	0	495	409	
5	0	0	0	0	496	410	
6	0	0	0	0	496	411	
7	0	0	0	0	496	410	
8	0	0	0	0	497	410	
9	0	0	0	0	497	410	
10	0	0	0	0	497	410	
11	0	0	0	0	496	410	
12	0	0	0	0	496	410	
13	0	0	0	0	496	410	
14	0	0	0	0	496	410	
15	0	0	0	0	496	410	
0	0	0	0	0	496	410	
1	0	0	0	0	497	409	
2	0	0	0	0	497	410	
3	0	0	0	0	497	409	
4	0	0	0	0	498	410	
5	0	0	0	0	499	409	
6	0	0	0	0	499	410	
7	0	0	0	0	500	409	
8	0	0	0	0	500	410	
9	0	0	0	0	501	410	
10	0	0	0	0	501	410	
11	0	0	0	0	501	410	
12	0	0	0	0	501	411	
13	0	0	0	0	501	410	
14	0	0	0	0	501	411	
15	0	0	0	0	502	410	
0	0	0	0	0	502	411	
1	0	0	0	0	502	411	
2	0	0	0	0	502	409	
3	0	0	0	0	501	410	
4	0	0	0	0	502	411	
5	0	0	0	0	502	411	
6	0	0	0	0	502	411	
7	0	0	0	0	502	410	
8	0	0	0	0	500	410	
9	0	0	0	0	500	410	
10	0	0	0	0	499	411	
11	0	0	0	0	499	410	
12	0	0	0	0	500	410	
13	0	0	0	0	500	410	
14	0	0	0	0	501	410	
15	0	0	0	0	501	410	
0	0	0	0	0	502	410	
1	0	0	0	0	503	410	
2	0	0	0	0	503	411	
3	0	0	0	0	504	410	
4	0	0	0	0	503	410	
5	0	0	0	0	503	410	
6	0	0	0	0	503	411	
7	0	0	0	0	502	410	
8	0	0	0	0	502	411	
9	0	0	0	0	501	410	
10	0	0	0	0	500	410	
11	0	0	0	0	500	410	
12	0	0	0	0	500	409	
13	0	0	0	0	500	410	
14	0	0	0	0	499	409	
15	0	0	0	0	499	410	
0	0	0	0	0	500	410	
1	0	0	0	0	500	410	
2	0	0	0	0	501	409	
3	0	0	0	0	502	409	
4	0	0	0	0	503	409	
5	0	0	0	0	504	409	
6	0	0	0	0	504	410	
7	0	0	0	0	504	409	
8	0	0	0	0	504	410	
9	0	0	0	0	504	409	
10	0	0	0	0	504	409	
11	0	0	0	0	504	409	
12	0	0	0	0	504	409	
13	0	0	0	0	504	409	
14	0	0	0	0	504	409	
15	0	0	0	0	504	409	
0	0	0	0	0	504	410	
1	0	0	0	0	504	410	
2	0	0	0	0	505	409	
3	0	0	0	0	505	409	
4	0	0	0	0	505	409	
5	0	0	0	0	506	409	
6	0	0	0	0	507	409	
7	0	0	0	0	507	409	
8	0	0	0	0	508	409	
9	0	0	0	0	508	410	
10	0	0	0	0	507	409	
11	0	0	0	0	508	410	
12	0	0	0	0	508	410	
13	0	0	0	0	508	410	
14	0	0	0	0	508	411	
15	0	0	0	0	507	410	
0	0	0	0	0	508	410	
1	0	0	0	0	508	411	
2	0	0	0	0	508	411	
3	0	0	0	0	509	410	
4	0	0	0	0	509	411	
5	0	0	0	0	510	410	
6	0	0	0	0	510	409	
7	0	0	0	0	510	409	
8	0	0	0	0	511	410	
9	0	0	0	0	511	410	
10	0	0	0	0	512	411	
11	0	0	0	0	512	409	
12	0	0	0	0	512	409	
13	0	0	0	0	512	410	
14	0	0	0	0	512	409	
15	0	0	0	0	512	410	
0	0	0	0	0	512	409	
1	0	0	0	0	512	409	
2	0	0	0	0	512	410	
3	0	0	0	0	511	410	
4	0	0	0	0	511	410	
5	0	0	0	0	511	409	
6	0	0	0	0	511	409	
7	0	0	0	0	511	409	
8	0	0	0	0	511	409	
9	0	0	0	0	511	409	
10	0	0	0	0	511	409	
11	0	0	0	0	511	410	
12	0	0	0	0	511	410	
13	0	0	0	0	511	409	
14	0	0	0	0	511	410	
15	0	0	0	0	511	409	
0	0	0	0	0	512	409	
1	0	0	0	0	512	409	
2	0	0	0	0	514	409	
3	0	0	0	0	515	409	
4	0	0	0	0	515	409	
5	0	0	0	0	515	409	
6	0	0	0	0	515	409	
7	0	0	0	0	516	409	
8	0	0	0	0	516	409	
9	0	0	0	0	515	409	
10	0	0	0	0	515	408	
11	0	0	0	0	516	409	
12	0	0	0	0	515	409	
13	0	0	0	0	514	409	
14	0	0	0	0	513	409	
15	0	0	0	0	513	409	
0	0	0	0	0	513	409	
1	0	0	0	0	513	409	
2	0	0	0	0	513	409	
3	0	0	0	0	513	409	
4	0	0	0	0	513	409	
5	0	0	0	0	512	409	
6	0	0	0	0	512	410	
7	0	0	0	0	513	409	
8	0	0	0	0	513	410	
9	0	0	0	0	514	410	
10	0	0	0	0	515	409	
11	0	0	0	0	514	409	
12	0	0	0	0	515	409	
13	0	0	0	0	515	409	
14	0	0	0	0	515	409	
15	0	0	0	0	515	410	
0	0	0	0	0	514	410	
1	0	0	0	0	514	410	
2	0	0	0	0	515	409	
3	0	0	0	0	515	410	
4	0	0	0	0	515	410	
5	0	0	0	0	515	410	
6	0	0	0	0	515	411	
7	0	0	0	0	515	410	
8	0	0	0	0	515	410	
9	0	0	0	0	515	410	
10	0	0	0	0	515	410	
11	0	0	0	0	515	410	
12	0	0	0	0	515	410	
13	0	0	0	0	514	409	
14	0	0	0	0	514	410	
15	0	0	0	0	513	409	
0	0	0	0	0	513	410	
1	0	0	0	0	513	410	
2	0	0	0	0	513	410	
3	0	0	0	0	513	410	
4	0	0	0	0	513	410	
5	0	0	0	0	513	410	
6	0	0	0	0	513	410	
7	0	0	0	0	512	409	
8	0	0	0	0	513	410	
9	0	0	0	0	513	410	
10	0	0	0	0	513	410	
11	0	0	0	0	512	410	
12	0	0	0	0	513	410	
13	0	0	0	0	514	410	
14	0	0	0	0	514	410	
15	0	0	0	0	515	410	
0	0	0	0	0	515	409	
1	0	0	0	0	515	410	
2	0	0	0	0	515	410	
3	0	0	0	0	515	409	
4	0	0	0	0	515	409	
5	0	0	0	0	515	410	
6	0	0	0	0	515	410	
7	0	0	0	0	515	410	
8	0	0	0	0	514	409	
9	0	0	0	0	515	409	
10	0	0	0	0	515	410	
11	0	0	0	0	515	410	
12	0	0	0	0	514	409	
13	0	0	0	0	515	410	
14	0	0	0	0	514	410	
15	0	0	0	0	514	409	
0	0	0	0	0	514	410	
1	0	0	0	0	514	409	
2	0	0	0	0	514	409	
3	0	0	0	0	514	410	
4	0	0	0	0	514	409	
5	0	0	0	0	514	410	
6	0	0	0	0	515	410	
7	0	0	0	0	515	410	
8	0	0	0	0	515	410	
9	0	0	0	0	514	410	
10	0	0	0	0	514	410	
11	0	0	0	0	514	410	
12	0	0	0	0	514	410	
13	0	0	0	0	515	410	
14	0	0	0	0	514	409	
15	0	0	0	0	514	410	
0	0	0	0	0	513	410	
1	0	0	0	0	513	410	
2	0	0	0	0	513	411	
3	0	0	0	0	513	410	
4	0	0	0	0	514	410	
5	0	0	0	0	515	409	
6	0	0	0	0	515	409	
7	0	0	0	0	515	409	
8	0	0	0	0	515	409	
9	0	0	0	0	515	410	
10	0	0	0	0	516	411	
11	0	0	0	0	515	409	
12	0	0	0	0	515	410	
13	0	0	0	0	515	410	
14	0	0	0	0	515	410	
15	0	0	0	0	515	409	
0	0	0	0	0	514	410	
1	0	0	0	0	514	409	
2	0	0	0	0	514	410	
3	0	0	0	0	513	409	
4	0	0	0	0	513	410	
5	0	0	0	0	513	409	
6	0	0	0	0	514	407	
7	0	0	0	0	514	410	
8	0	0	0	0	514	410	
9	0	0	0	0	514	409	
10	0	0	0	0	513	413	
11	0	0	0	0	514	410	
12	0	0	0	0	513	410	
13	0	0	0	0	512	410	
14	0	0	0	0	512	407	
15	0	0	0	0	512	409	
0	0	0	0	0	511	410	
1	0	0	0	0	510	410	
2	0	0	0	0	510	413	
3	0	0	0	0	510	410	
4	0	0	0	0	509	410	
5	0	0	0	0	508	410	
6	0	0	0	0	507	406	
7	0	0	0	0	507	410	
8	0	0	0	0	506	410	
9	0	0	0	0	506	410	
10	0	0	0	0	506	413	
11	0	0	0	0	507	410	
12	0	0	0	0	507	410	
13	0	0	0	0	508	409	
14	0	0	0	0	507	406	
15	0	0	0	0	508	410	
0	0	0	0	0	508	410	
1	0	0	0	0	508	410	
2	0	0	0	0	508	413	
3	0	0	0	0	508	410	
4	0	0	0	0	509	409	
5	0	0	0	0	509	410	
6	0	0	0	0	509	407	
7	0	0	0	0	509	409	
8	0	0	0	0	509	410	
9	0	0	0	0	509	410	
10	0	0	0	0	508	413	
11	0	0	0	0	508	410	
12	0	0	0	0	508	410	
13	0	0	0	0	509	409	
14	0	0	0	0	510	407	
15	0	0	0	0	509	410	
0	0	0	0	0	510	410	
1	0	0	0	0	510	410	
2	0	0	0	0	510	412	
3	0	0	0	0	510	410	
4	0	0	0	0	510	410	
5	0	0	0	0	510	411	
6	0	0	0	0	510	406	
7	0	0	0	0	511	409	
8	0	0	0	0	511	410	
9	0	0	0	0	511	410	
10	0	0	0	0	511	413	
11	0	0	0	0	511	410	
12	0	0	0	0	510	410	
13	0	0	0	0	511	410	
14	0	0	0	0	511	408	
15	0	0	0	0	510	411	
0	0	0	0	0	511	410	
1	0	0	0	0	511	410	
2	0	0	0	0	511	413	
3	0	0	0	0	512	410	
4	0	0	0	0	512	410	
5	0	0	0	0	513	409	
6	0	0	0	0	513	406	
7	0	0	0	0	513	410	
8	0	0	0	0	513	410	
9	0	0	0	0	514	410	
10	0	0	0	0	513	412	
11	0	0	0	0	513	409	
12	0	0	0	0	512	410	
13	0	0	0	0	513	410	
14	0	0	0	0	512	407	
15	0	0	0	0	512	410	
0	0	0	0	0	511	410	
1	0	0	0	0	511	410	
2	0	0	0	0	511	412	
3	0	0	0	0	511	410	
4	0	0	0	0	511	409	
5	0	0	0	0	511	409	
6	0	0	0	0	512	406	
7	0	0	0	0	512	409	
8	0	0	0	0	512	410	
9	0	0	0	0	513	410	
10	0	0	0	0	513	413	
11	0	0	0	0	513	410	
12	0	0	0	0	513	410	
13	0	0	0	0	513	409	
14	0	0	0	0	513	406	
15	0	0	0	0	513	409	
0	0	0	0	0	514	409	
1	0	0	0	0	513	409	
2	0	0	0	0	512	412	
3	0	0	0	0	512	409	
4	0	0	0	0	512	410	
5	0	0	0	0	512	409	
6	0	0	0	0	513	406	
7	0	0	0	0	512	409	
8	0	0	0	0	512	409	
9	0	0	0	0	512	409	
10	0	0	0	0	512	413	
11	0	0	0	0	512	410	
12	0	0	0	0	512	409	
13	0	0	0	0	512	409	
14	0	0	0	0	512	406	
15	0	0	0	0	512	410	
0	0	0	0	0	511	410	
1	0	0	0	0	511	410	
2	0	0	0	0	511	413	
3	0	0	0	0	510	410	
4	0	0	0	0	510	410	
5	0	0	0	0	510	410	
6	0	0	0	0	509	407	
7	0	0	0	0	508	410	
8	0	0	0	0	507	409	
9	0	0	0	0	508	410	
10	0	0	0	0	507	412	
11	0	0	0	0	507	410	
12	0	0	0	0	507	410	
13	0	0	0	0	507	410	
14	0	0	0	0	507	407	
15	0	0	0	0	508	410	
0	0	0	0	0	508	410	
1	0	0	0	0	510	410	
2	0	0	0	0	510	412	
3	0	0	0	0	510	410	
4	0	0	0	0	511	410	
5	0	0	0	0	511	410	
6	0	0	0	0	512	407	
7	0	0	0	0	511	410	
8	0	0	0	0	511	409	
9	0	0	0	0	511	409	
10	0	0	0	0	512	412	
11	0	0	0	0	512	409	
12	0	0	0	0	512	409	
13	0	0	0	0	512	410	
14	0	0	0	0	512	406	
15	0	0	0	0	512	410	
0	0	0	0	0	512	410	
1	0	0	0	0	511	409	
2	0	0	0	0	511	413	
3	0	0	0	0	510	410	
4	0	0	0	0	510	410	
5	0	0	0	0	509	409	
6	0	0	0	0	509	406	
7	0	0	0	0	508	410	
8	0	0	0	0	507	409	
9	0	0	0	0	505	410	
10	0	0	0	0	504	413	
11	0	0	0	0	501	410	
12	0	0	0	0	497	410	
13	0	0	0	0	494	410	
14	0	0	0	0	489	407	
15	0	0	0	0	486	410	
0	0	0	0	0	482	409	
1	0	0	0	0	480	410	
2	0	0	0	0	476	413	
3	0	0	0	0	472	409	
4	0	0	0	0	469	409	
5	0	0	0	0	465	409	
6	0	0	0	0	462	407	
7	0	0	0	0	460	411	
8	0	0	0	0	459	410	
9	0	0	0	0	460	410	
10	0	0	0	0	462	413	
11	0	0	0	0	468	410	
12	0	0	0	0	476	409	
13	0	0	0	0	486	410	
14	0	0	0	0	498	406	
15	0	0	0	0	511	410	
0	0	0	0	0	527	410	
1	0	0	0	0	543	409	
2	0	0	0	0	560	412	
3	0	0	0	0	576	410	
4	0	0	0	0	593	409	
5	0	0	0	0	608	409	
6	0	0	0	0	622	406	
7	0	0	0	0	635	409	
8	0	0	0	0	648	409	
9	0	0	0	0	663	409	
10	0	0	0	0	674	412	
11	0	0	0	0	681	410	
12	0	0	0	0	682	410	
13	0	0	0	0	680	410	
14	0	0	0	0	675	406	
15	0	0	0	0	667	410	
0	0	0	0	0	659	410	
1	0	0	0	0	650	410	
2	0	0	0	0	643	413	
3	0	0	0	0	637	410	
4	0	0	0	0	631	410	
5	0	0	0	0	621	409	
6	0	0	0	0	608	406	
7	0	0	0	0	595	410	
8	0	0	0	0	583	409	
9	0	0	0	0	574	410	
10	0	0	0	0	565	412	
11	0	0	0	0	559	410	
12	0	0	0	0	552	409	
13	0	0	0	0	547	410	
14	0	0	0	0	542	407	
15	0	0	0	0	538	409	
0	0	0	0	0	535	410	
1	0	0	0	0	531	409	
2	0	0	0	0	528	412	
3	0	0	0	0	525	411	
4	0	0	0	0	521	410	
5	0	0	0	0	518	410	
6	0	0	0	0	515	406	
7	0	0	0	0	511	410	
8	0	0	0	0	508	410	
9	0	0	0	0	505	409	
10	0	0	0	0	502	412	
11	0	0	0	0	500	409	
12	0	0	0	0	498	410	
13	0	0	0	0	496	410	
14	0	0	0	0	494	406	
15	0	0	0	0	493	409	
0	0	0	0	0	492	409	
1	0	0	0	0	491	409	
2	0	0	0	0	490	412	
3	0	0	0	0	490	410	
4	0	0	0	0	489	410	
5	0	0	0	0	488	410	
6	0	0	0	0	488	406	
7	0	0	0	0	487	410	
8	0	0	0	0	487	410	
9	0	0	0	0	487	409	
10	0	0	0	0	487	413	
11	0	0	0	0	487	410	
12	0	0	0	0	487	410	
13	0	0	0	0	486	410	
14	0	0	0	0	486	406	
15	0	0	0	0	486	410	
0	0	0	0	0	487	411	
1	0	0	0	0	486	410	
2	0	0	0	0	486	412	
3	0	0	0	0	486	410	
4	0	0	0	0	486	410	
5	0	0	0	0	486	409	
6	0	0	0	0	486	407	
7	0	0	0	0	486	410	
8	0	0	0	0	486	410	
9	0	0	0	0	486	409	
10	0	0	0	0	485	412	
11	0	0	0	0	486	410	
12	0	0	0	0	485	409	
13	0	0	0	0	485	409	
14	0	0	0	0	485	406	
15	0	0	0	0	485	410	
0	0	0	0	0	485	411	
1	0	0	0	0	484	410	
2	0	0	0	0	484	413	
3	0	0	0	0	484	410	
4	0	0	0	0	484	410	
5	0	0	0	0	484	410	
6	0	0	0	0	483	407	
7	0	0	0	0	484	410	
8	0	0	0	0	484	410	
9	0	0	0	0	484	411	
10	0	0	0	0	483	414	
11	0	0	0	0	483	411	
12	0	0	0	0	484	411	
13	0	0	0	0	485	411	
14	0	0	0	0	486	407	
15	0	0	0	0	487	411	
0	0	0	0	0	487	411	
1	0	0	0	0	487	411	
2	0	0	0	0	487	413	
3	0	0	0	0	487	411	
4	0	0	0	0	487	411	
5	0	0	0	0	488	410	
6	0	0	0	0	488	407	
7	0	0	0	0	487	411	
8	0	0	0	0	487	411	
9	0	0	0	0	487	410	
10	0	0	0	0	488	413	
11	0	0	0	0	488	410	
12	0	0	0	0	488	410	
13	0	0	0	0	488	410	
14	0	0	0	0	489	407	
15	0	0	0	0	490	410	
0	0	0	0	0	490	410	
1	0	0	0	0	490	410	
2	0	0	0	0	490	412	
3	0	0	0	0	490	410	
4	0	0	0	0	490	409	
5	0	0	0	0	491	409	
6	0	0	0	0	492	406	
7	0	0	0	0	492	409	
8	0	0	0	0	492	409	
9	0	0	0	0	493	408	
10	0	0	0	0	492	412	
11	0	0	0	0	492	408	
12	0	0	0	0	492	409	
13	0	0	0	0	493	409	
14	0	0	0	0	493	406	
15	0	0	0	0	492	408	
0	0	0	0	0	492	409	
1	0	0	0	0	492	409	
2	0	0	0	0	492	412	
3	0	0	0	0	492	409	
4	0	0	0	0	493	409	
5	0	0	0	0	493	409	
6	0	0	0	0	493	406	
7	0	0	0	0	494	409	
8	0	0	0	0	494	409	
9	0	0	0	0	494	409	
10	0	0	0	0	494	412	
11	0	0	0	0	495	409	
12	0	0	0	0	495	410	
13	0	0	0	0	495	409	
14	0	0	0	0	495	406	
15	0	0	0	0	495	409	
0	0	0	0	0	494	408	
1	0	0	0	0	495	409	
2	0	0	0	0	495	412	
3	0	0	0	0	496	409	
4	0	0	0	0	496	410	
5	0	0	0	0	496	408	
6	0	0	0	0	497	407	
7	0	0	0	0	497	410	
8	0	0	0	0	498	409	
9	0	0	0	0	497	410	
10	0	0	0	0	497	413	
11	0	0	0	0	497	410	
12	0	0	0	0	496	410	
13	0	0	0	0	497	411	
14	0	0	0	0	496	406	
15	0	0	0	0	497	409	
0	0	0	0	0	497	410	
1	0	0	0	0	497	409	
2	0	0	0	0	497	412	
3	0	0	0	0	497	410	
4	0	0	0	0	497	410	
5	0	0	0	0	497	410	
6	0	0	0	0	498	407	
7	0	0	0	0	498	409	
8	0	0	0	0	498	410	
9	0	0	0	0	499	409	
10	0	0	0	0	499	412	
11	0	0	0	0	500	410	
12	0	0	0	0	500	410	
13	0	0	0	0	500	409	
14	0	0	0	0	500	407	
15	0	0	0	0	500	410	
0	0	0	0	0	500	409	
1	0	0	0	0	500	410	
2	0	0	0	0	500	412	
3	0	0	0	0	500	410	
4	0	0	0	0	500	410	
5	0	0	0	0	500	410	
6	0	0	0	0	501	407	
7	0	0	0	0	502	411	
8	0	0	0	0	502	410	
9	0	0	0	0	501	410	
10	0	0	0	0	502	412	
11	0	0	0	0	502	410	
12	0	0	0	0	502	410	
13	0	0	0	0	502	410	
14	0	0	0	0	502	406	
15	0	0	0	0	503	409	
0	0	0	0	0	504	409	
1	0	0	0	0	504	410	
2	0	0	0	0	505	412	
3	0	0	0	0	505	411	
4	0	0	0	0	505	410	
5	0	0	0	0	506	410	
6	0	0	0	0	506	406	
7	0	0	0	0	506	409	
8	0	0	0	0	507	410	
9	0	0	0	0	508	409	
10	0	0	0	0	508	412	
11	0	0	0	0	509	409	
12	0	0	0	0	509	409	
13	0	0	0	0	509	410	
14	0	0	0	0	509	406	
15	0	0	0	0	510	410	
0	0	0	0	0	511	410	
1	0	0	0	0	511	410	
2	0	0	0	0	512	412	
3	0	0	0	0	512	410	
4	0	0	0	0	512	409	
5	0	0	0	0	512	410	
6	0	0	0	0	513	407	
7	0	0	0	0	514	410	
8	0	0	0	0	513	409	
9	0	0	0	0	513	410	
10	0	0	0	0	513	412	
11	0	0	0	0	514	410	
12	0	0	0	0	516	410	
13	0	0	0	0	516	409	
14	0	0	0	0	517	406	
15	0	0	0	0	517	410	
0	0	0	0	0	517	410	
1	0	0	0	0	518	409	
2	0	0	0	0	518	412	
3	0	0	0	0	519	409	
4	0	0	0	0	519	410	
5	0	0	0	0	519	409	
6	0	0	0	0	520	406	
7	0	0	0	0	520	409	
8	0	0	0	0	521	410	
9	0	0	0	0	522	410	
10	0	0	0	0	523	413	
11	0	0	0	0	523	411	
12	0	0	0	0	523	409	
13	0	0	0	0	523	409	
14	0	0	0	0	524	406	
15	0	0	0	0	524	410	
0	0	0	0	0	524	409	
1	0	0	0	0	524	409	
2	0	0	0	0	525	413	
3	0	0	0	0	525	410	
4	0	0	0	0	524	409	
5	0	0	0	0	525	410	
6	0	0	0	0	524	406	
7	0	0	0	0	524	409	
8	0	0	0	0	524	410	
9	0	0	0	0	523	409	
10	0	0	0	0	523	412	
11	0	0	0	0	523	409	
12	0	0	0	0	523	409	
13	0	0	0	0	523	409	
14	0	0	0	0	523	407	
15	0	0	0	0	524	410	
0	0	0	0	0	524	410	
1	0	0	0	0	524	410	
2	0	0	0	0	523	413	
3	0	0	0	0	522	409	
4	0	0	0	0	522	410	
5	0	0	0	0	521	410	
6	0	0	0	0	520	406	
7	0	0	0	0	519	410	
8	0	0	0	0	519	410	
9	0	0	0	0	518	409	
10	0	0	0	0	517	413	
11	0	0	0	0	516	410	
12	0	0	0	0	515	410	
13	0	0	0	0	514	410	
14	0	0	0	0	513	407	
15	0	0	0	0	512	409	
0	0	0	0	0	512	410	
1	0	0	0	0	511	409	
2	0	0	0	0	510	412	
3	0	0	0	0	510	409	
4	0	0	0	0	510	410	
5	0	0	0	0	508	410	
6	0	0	0	0	508	406	
7	0	0	0	0	506	410	
8	0	0	0	0	507	409	
9	0	0	0	0	506	409	
10	0	0	0	0	505	413	
11	0	0	0	0	504	409	
12	0	0	0	0	504	409	
13	0	0	0	0	504	409	
14	0	0	0	0	503	406	
15	0	0	0	0	502	409	
0	0	0	0	0	502	410	
1	0	0	0	0	502	410	
2	0	0	0	0	502	413	
3	0	0	0	0	501	409	
4	0	0	0	0	500	409	
5	0	0	0	0	500	410	
6	0	0	0	0	500	406	
7	0	0	0	0	500	410	
8	0	0	0	0	499	410	
9	0	0	0	0	499	411	
10	0	0	0	0	499	413	
11	0	0	0	0	498	410	
12	0	0	0	0	497	410	
13	0	0	0	0	498	409	
14	0	0	0	0	497	406	
15	0	0	0	0	498	410	
0	0	0	0	0	498	409	
1	0	0	0	0	498	409	
2	0	0	0	0	499	413	
3	0	0	0	0	499	410	
4	0	0	0	0	500	410	
5	0	0	0	0	500	411	
6	0	0	0	0	500	407	
7	0	0	0	0	500	410	
8	0	0	0	0	500	411	
9	0	0	0	0	499	409	
10	0	0	0	0	499	413	
11	0	0	0	0	500	410	
12	0	0	0	0	500	410	
13	0	0	0	0	500	409	
14	0	0	0	0	499	406	
15	0	0	0	0	498	409	
0	0	0	0	0	499	409	
1	0	0	0	0	499	409	
2	0	0	0	0	499	413	
3	0	0	0	0	498	410	
4	0	0	0	0	497	410	
5	0	0	0	0	497	410	
6	0	0	0	0	496	407	
7	0	0	0	0	497	410	
8	0	0	0	0	497	410	
9	0	0	0	0	498	409	
10	0	0	0	0	498	413	
11	0	0	0	0	499	410	
12	0	0	0	0	499	409	
13	0	0	0	0	499	410	
14	0	0	0	0	500	407	
15	0	0	0	0	501	411	
0	0	0	0	0	502	411	
1	0	0	0	0	502	410	
2	0	0	0	0	502	413	
3	0	0	0	0	502	410	
4	0	0	0	0	503	410	
5	0	0	0	0	503	410	
6	0	0	0	0	502	406	
7	0	0	0	0	502	410	
8	0	0	0	0	501	410	
9	0	0	0	0	502	410	
10	0	0	0	0	501	413	
11	0	0	0	0	501	410	
12	0	0	0	0	501	410	
13	0	0	0	0	501	410	
14	0	0	0	0	502	407	
15	0	0	0	0	502	410	
0	0	0	0	0	501	410	
1	0	0	0	0	501	409	
2	0	0	0	0	502	412	
3	0	0	0	0	502	410	
4	0	0	0	0	503	410	
5	0	0	0	0	503	409	
6	0	0	0	0	503	406	
7	0	0	0	0	502	410	
8	0	0	0	0	502	409	
9	0	0	0	0	501	410	
10	0	0	0	0	500	412	
11	0	0	0	0	499	410	
12	0	0	0	0	499	409	
13	0	0	0	0	500	409	
14	0	0	0	0	499	406	
15	0	0	0	0	499	410	
0	0	0	0	0	499	409	
1	0	0	0	0	499	409	
2	0	0	0	0	499	413	
3	0	0	0	0	499	410	
4	0	0	0	0	499	409	
5	0	0	0	0	499	409	
6	0	0	0	0	499	406	
7	0	0	0	0	499	409	
8	0	0	0	0	499	410	
9	0	0	0	0	500	410	
10	0	0	0	0	500	412	
11	0	0	0	0	500	409	
12	0	0	0	0	500	410	
13	0	0	0	0	500	409	
14	0	0	0	0	500	407	
15	0	0	0	0	500	410	
0	0	0	0	0	500	410	
1	0	0	0	0	499	410	
2	0	0	0	0	499	413	
3	0	0	0	0	499	410	
4	0	0	0	0	500	410	
5	0	0	0	0	500	410	
6	0	0	0	0	500	407	
7	0	0	0	0	500	410	
8	0	0	0	0	500	410	
9	0	0	0	0	500	410	
10	0	0	0	0	500	412	
11	0	0	0	0	500	410	
12	0	0	0	0	501	410	
13	0	0	0	0	502	410	
14	0	0	0	0	502	406	
15	0	0	0	0	502	410	
0	0	0	0	0	502	410	
1	0	0	0	0	502	410	
2	0	0	0	0	502	413	
3	0	0	0	0	501	410	
4	0	0	0	0	502	410	
5	0	0	0	0	502	410	
6	0	0	0	0	502	406	
7	0	0	0	0	503	410	
8	0	0	0	0	503	409	
9	0	0	0	0	504	409	
10	0	0	0	0	505	413	
11	0	0	0	0	505	409	
12	0	0	0	0	504	410	
13	0	0	0	0	505	409	
14	0	0	0	0	505	407	
15	0	0	0	0	506	410	
0	0	0	0	0	506	409	
1	0	0	0	0	506	410	
2	0	0	0	0	506	412	
3	0	0	0	0	505	410	
4	0	0	0	0	506	410	
5	0	0	0	0	507	410	
6	0	0	0	0	507	406	
7	0	0	0	0	508	409	
8	0	0	0	0	508	410	
9	0	0	0	0	508	410	
10	0	0	0	0	508	412	
11	0	0	0	0	508	409	
12	0	0	0	0	509	410	
13	0	0	0	0	509	409	
14	0	0	0	0	509	406	
15	0	0	0	0	510	409	
0	0	0	0	0	510	409	
1	0	0	0	0	510	409	
2	0	0	0	0	511	412	
3	0	0	0	0	511	409	
4	0	0	0	0	511	409	
5	0	0	0	0	511	409	
6	0	0	0	0	510	406	
7	0	0	0	0	510	409	
8	0	0	0	0	510	409	
9	0	0	0	0	510	409	
10	0	0	0	0	510	412	
11	0	0	0	0	510	409	
12	0	0	0	0	510	409	
13	0	0	0	0	511	409	
14	0	0	0	0	511	406	
15	0	0	0	0	512	409	
0	0	0	0	0	511	409	
1	0	0	0	0	512	409	
2	0	0	0	0	511	412	
3	0	0	0	0	512	409	
4	0	0	0	0	512	409	
5	0	0	0	0	513	409	
6	0	0	0	0	513	405	
7	0	0	0	0	513	409	
8	0	0	0	0	513	409	
9	0	0	0	0	514	409	
10	0	0	0	0	514	412	
11	0	0	0	0	514	409	
12	0	0	0	0	514	410	
13	0	0	0	0	513	409	
14	0	0	0	0	513	406	
15	0	0	0	0	513	410	
0	0	0	0	0	513	410	
1	0	0	0	0	513	409	
2	0	0	0	0	513	413	
3	0	0	0	0	513	410	
4	0	0	0	0	513	410	
5	0	0	0	0	513	409	
6	0	0	0	0	514	406	
7	0	0	0	0	514	409	
8	0	0	0	0	514	409	
9	0	0	0	0	515	409	
10	0	0	0	0	516	412	
11	0	0	0	0	516	409	
12	0	0	0	0	516	409	
13	0	0	0	0	516	409	
14	0	0	0	0	516	406	
15	0	0	0	0	515	409	
0	0	0	0	0	515	410	
1	0	0	0	0	515	409	
2	0	0	0	0	514	412	
3	0	0	0	0	513	409	
4	0	0	0	0	513	409	
5	0	0	0	0	512	410	
6	0	0	0	0	512	406	
7	0	0	0	0	513	409	
8	0	0	0	0	513	410	
9	0	0	0	0	513	409	
10	0	0	0	0	514	412	
11	0	0	0	0	514	409	
12	0	0	0	0	514	409	
13	0	0	0	0	515	409	
14	0	0	0	0	515	406	
15	0	0	0	0	515	410	
0	0	0	0	0	515	410	
1	0	0	0	0	515	409	
2	0	0	0	0	515	413	
3	0	0	0	0	515	409	
4	0	0	0	0	515	410	
5	0	0	0	0	514	409	
6	0	0	0	0	514	406	
7	0	0	0	0	514	409	
8	0	0	0	0	514	410	
9	0	0	0	0	514	410	
10	0	0	0	0	515	412	
11	0	0	0	0	515	410	
12	0	0	0	0	516	410	
13	0	0	0	0	517	409	
14	0	0	0	0	517	406	
15	0	0	0	0	517	410	
0	0	0	0	0	516	410	
1	0	0	0	0	517	410	
2	0	0	0	0	517	413	
3	0	0	0	0	517	410	
4	0	0	0	0	517	410	
5	0	0	0	0	516	409	
6	0	0	0	0	516	407	
7	0	0	0	0	516	410	
8	0	0	0	0	516	411	
9	0	0	0	0	515	410	
10	0	0	0	0	515	413	
11	0	0	0	0	515	410	
12	0	0	0	0	514	410	
13	0	0	0	0	515	410	
14	0	0	0	0	515	406	
15	0	0	0	0	515	410	
0	0	0	0	0	515	410	
1	0	0	0	0	516	409	
2	0	0	0	0	516	413	
3	0	0	0	0	516	410	
4	0	0	0	0	516	410	
5	0	0	0	0	516	410	
6	0	0	0	0	515	406	
7	0	0	0	0	514	410	
8	0	0	0	0	514	410	
9	0	0	0	0	515	410	
10	0	0	0	0	515	413	
11	0	0	0	0	514	410	
12	0	0	0	0	514	410	
13	0	0	0	0	513	409	
14	0	0	0	0	513	406	
15	0	0	0	0	512	410	
0	0	0	0	0	512	409	
1	0	0	0	0	511	410	
2	0	0	0	0	511	412	
3	0	0	0	0	512	411	
4	0	0	0	0	512	410	
5	0	0	0	0	511	409	
6	0	0	0	0	511	406	
7	0	0	0	0	511	410	
8	0	0	0	0	512	409	
9	0	0	0	0	513	409	
10	0	0	0	0	513	413	
11	0	0	0	0	513	410	
12	0	0	0	0	513	410	
13	0	0	0	0	513	409	
14	0	0	0	0	513	406	
15	0	0	0	0	513	409	
0	0	0	0	0	513	410	
1	0	0	0	0	512	409	
2	0	0	0	0	511	412	
3	0	0	0	0	510	409	
4	0	0	0	0	510	409	
5	0	0	0	0	509	410	
6	0	0	0	0	509	406	
7	0	0	0	0	509	410	
8	0	0	0	0	509	409	
9	0	0	0	0	509	409	
10	0	0	0	0	509	413	
11	0	0	0	0	509	410	
12	0	0	0	0	509	410	
13	0	0	0	0	509	410	
14	0	0	0	0	509	407	
15	0	0	0	0	509	409	
0	0	0	0	0	508	410	
1	0	0	0	0	508	410	
2	0	0	0	0	508	413	
3	0	0	0	0	508	410	
4	0	0	0	0	508	410	
5	0	0	0	0	508	410	
6	0	0	0	0	508	406	
7	0	0	0	0	507	410	
8	0	0	0	0	507	409	
9	0	0	0	0	507	409	
10	0	0	0	0	508	412	
11	0	0	0	0	509	410	
12	0	0	0	0	509	410	
13	0	0	0	0	509	409	
14	0	0	0	0	511	406	
15	0	0	0	0	511	409	
0	0	0	0	0	512	409	
1	0	0	0	0	512	409	
2	0	0	0	0	512	411	
3	0	0	0	0	512	409	
4	0	0	0	0	512	409	
5	0	0	0	0	513	410	
6	0	0	0	0	513	407	
7	0	0	0	0	512	410	
8	0	0	0	0	512	409	
9	0	0	0	0	512	410	
10	0	0	0	0	512	413	
11	0	0	0	0	512	410	
12	0	0	0	0	512	410	
13	0	0	0	0	512	410	
14	0	0	0	0	512	406	
15	0	0	0	0	512	409	
0	0	0	0	0	512	411	
1	0	0	0	0	512	410	
2	0	0	0	0	513	413	
3	0	0	0	0	513	411	
4	0	0	0	0	512	411	
5	0	0	0	0	513	410	
6	0	0	0	0	514	406	
7	0	0	0	0	515	409	
8	0	0	0	0	515	410	
9	0	0	0	0	515	409	
10	0	0	0	0	516	413	
11	0	0	0	0	515	410	
12	0	0	0	0	516	410	
13	0	0	0	0	517	409	
14	0	0	0	0	516	406	
15	0	0	0	0	516	410	
0	0	0	0	0	516	409	
1	0	0	0	0	516	410	
2	0	0	0	0	515	414	
3	0	0	0	0	515	411	
4	0	0	0	0	514	411	
5	0	0	0	0	515	410	
6	0	0	0	0	514	406	
7	0	0	0	0	513	410	
8	0	0	0	0	513	410	
9	0	0	0	0	512	409	
10	0	0	0	0	512	412	
11	0	0	0	0	512	411	
12	0	0	0	0	512	410	
13	0	0	0	0	511	409	
14	0	0	0	0	511	406	
15	0	0	0	0	511	409	
0	0	0	0	0	510	410	
1	0	0	0	0	510	410	
2	0	0	0	0	509	413	
3	0	0	0	0	509	410	
4	0	0	0	0	509	410	
5	0	0	0	0	508	411	
6	0	0	0	0	508	407	
7	0	0	0	0	509	410	
8	0	0	0	0	509	410	
9	0	0	0	0	509	410	
10	0	0	0	0	509	414	
11	0	0	0	0	509	410	
12	0	0	0	0	509	410	
13	0	0	0	0	510	410	
14	0	0	0	0	510	406	
15	0	0	0	0	510	410	
0	0	0	0	0	510	410	
1	0	0	0	0	511	409	
2	0	0	0	0	512	412	
3	0	0	0	0	512	409	
4	0	0	0	0	511	409	
5	0	0	0	0	511	410	
6	0	0	0	0	511	407	
7	0	0	0	0	510	410	
8	0	0	0	0	510	410	
9	0	0	0	0	510	410	
10	0	0	0	0	509	412	
11	0	0	0	0	509	410	
12	0	0	0	0	508	409	
13	0	0	0	0	508	409	
14	0	0	0	0	508	406	
15	0	0	0	0	508	409	
0	0	0	0	0	509	410	
1	0	0	0	0	509	409	
2	0	0	0	0	509	413	
3	0	0	0	0	511	410	
4	0	0	0	0	511	410	
5	0	0	0	0	511	410	
6	0	0	0	0	511	407	
7	0	0	0	0	511	410	
8	0	0	0	0	510	410	
9	0	0	0	0	510	410	
10	0	0	0	0	510	413	
11	0	0	0	0	509	410	
12	0	0	0	0	510	410	
13	0	0	0	0	510	410	
14	0	0	0	0	510	406	
15	0	0	0	0	511	409	
0	0	0	0	0	511	410	
1	0	0	0	0	510	409	
2	0	0	0	0	511	412	
3	0	0	0	0	511	410	
4	0	0	0	0	510	409	
5	0	0	0	0	511	409	
6	0	0	0	0	511	406	
7	0	0	0	0	512	409	
8	0	0	0	0	512	409	
9	0	0	0	0	513	408	
10	0	0	0	0	514	412	
11	0	0	0	0	514	409	
12	0	0	0	0	515	409	
13	0	0	0	0	514	409	
14	0	0	0	0	513	406	
15	0	0	0	0	512	410	
0	0	0	0	0	511	409	
1	0	0	0	0	510	410	
2	0	0	0	0	510	412	
3	0	0	0	0	509	409	
4	0	0	0	0	506	410	
5	0	0	0	0	504	409	
6	0	0	0	0	501	407	
7	0	0	0	0	497	409	
8	0	0	0	0	493	409	
9	0	0	0	0	490	409	
10	0	0	0	0	486	413	
11	0	0	0	0	482	410	
12	0	0	0	0	479	409	
13	0	0	0	0	476	409	
14	0	0	0	0	472	406	
15	0	0	0	0	468	409	
0	0	0	0	0	464	410	
1	0	0	0	0	460	410	
2	0	0	0	0	458	413	
3	0	0	0	0	458	409	
4	0	0	0	0	459	409	
5	0	0	0	0	463	410	
6	0	0	0	0	470	406	
7	0	0	0	0	479	410	
8	0	0	0	0	490	410	
9	0	0	0	0	504	410	
10	0	0	0	0	519	413	
11	0	0	0	0	536	410	
12	0	0	0	0	553	410	
13	0	0	0	0	571	410	
14	0	0	0	0	588	407	
15	0	0	0	0	604	410	
0	0	0	0	0	619	410	
1	0	0	0	0	632	410	
2	0	0	0	0	646	413	
3	0	0	0	0	660	409	
4	0	0	0	0	674	409	
5	0	0	0	0	684	409	
6	0	0	0	0	688	406	
7	0	0	0	0	685	409	
8	0	0	0	0	681	410	
9	0	0	0	0	674	410	
10	0	0	0	0	667	413	
11	0	0	0	0	658	411	
12	0	0	0	0	650	411	
13	0	0	0	0	644	411	
14	0	0	0	0	637	407	
15	0	0	0	0	627	410	
0	0	0	0	0	614	411	
1	0	0	0	0	600	410	
2	0	0	0	0	588	413	
3	0	0	0	0	576	410	
4	0	0	0	0	566	409	
5	0	0	0	0	558	410	
6	0	0	0	0	550	406	
7	0	0	0	0	543	409	
8	0	0	0	0	538	409	
9	0	0	0	0	533	411	
10	0	0	0	0	528	412	
11	0	0	0	0	523	410	
12	0	0	0	0	518	409	
13	0	0	0	0	515	409	
14	0	0	0	0	512	406	
15	0	0	0	0	509	410	
0	0	0	0	0	505	409	
1	0	0	0	0	503	410	
2	0	0	0	0	500	412	
3	0	0	0	0	497	409	
4	0	0	0	0	494	409	
5	0	0	0	0	492	409	
6	0	0	0	0	490	406	
7	0	0	0	0	488	409	
8	0	0	0	0	486	409	
9	0	0	0	0	484	410	
10	0	0	0	0	484	412	
11	0	0	0	0	482	409	
12	0	0	0	0	481	409	
13	0	0	0	0	480	409	
14	0	0	0	0	480	407	
15	0	0	0	0	479	410	
0	0	0	0	0	478	410	
1	0	0	0	0	478	409	
2	0	0	0	0	478	413	
3	0	0	0	0	477	410	
4	0	0	0	0	478	410	
5	0	0	0	0	477	410	
6	0	0	0	0	477	406	
7	0	0	0	0	477	409	
8	0	0	0	0	477	409	
9	0	0	0	0	476	409	
10	0	0	0	0	477	412	
11	0	0	0	0	478	409	
12	0	0	0	0	479	409	
13	0	0	0	0	480	409	
14	0	0	0	0	480	406	
15	0	0	0	0	480	409	
0	0	0	0	0	480	409	
1	0	0	0	0	480	409	
2	0	0	0	0	480	412	
3	0	0	0	0	480	409	
4	0	0	0	0	480	409	
5	0	0	0	0	480	410	
6	0	0	0	0	480	407	
7	0	0	0	0	480	410	
8	0	0	0	0	480	410	
9	0	0	0	0	479	410	
10	0	0	0	0	480	413	
11	0	0	0	0	480	410	
12	0	0	0	0	480	410	
13	0	0	0	0	481	410	
14	0	0	0	0	481	406	
15	0	0	0	0	483	410	
0	0	0	0	0	483	409	
1	0	0	0	0	484	410	
2	0	0	0	0	484	413	
3	0	0	0	0	484	409	
4	0	0	0	0	484	410	
5	0	0	0	0	483	409	
6	0	0	0	0	483	407	
7	0	0	0	0	483	410	
8	0	0	0	0	483	411	
9	0	0	0	0	484	410	
10	0	0	0	0	485	413	
11	0	0	0	0	485	410	
12	0	0	0	0	485	410	
13	0	0	0	0	485	410	
14	0	0	0	0	485	407	
15	0	0	0	0	484	409	
0	0	0	0	0	485	410	
1	0	0	0	0	486	409	
2	0	0	0	0	486	412	
3	0	0	0	0	487	410	
4	0	0	0	0	487	410	
5	0	0	0	0	488	409	
6	0	0	0	0	489	406	
7	0	0	0	0	489	409	
8	0	0	0	0	489	409	
9	0	0	0	0	488	409	
10	0	0	0	0	488	413	
11	0	0	0	0	489	410	
12	0	0	0	0	489	408	
13	0	0	0	0	489	409	
14	0	0	0	0	489	405	
15	0	0	0	0	490	409	
0	0	0	0	0	490	409	
1	0	0	0	0	490	409	
2	0	0	0	0	492	412	
3	0	0	0	0	492	409	
4	0	0	0	0	492	409	
5	0	0	0	0	491	409	
6	0	0	0	0	491	406	
7	0	0	0	0	492	410	
8	0	0	0	0	492	409	
9	0	0	0	0	492	409	
10	0	0	0	0	492	412	
11	0	0	0	0	492	409	
12	0	0	0	0	493	409	
13	0	0	0	0	494	410	
14	0	0	0	0	494	406	
15	0	0	0	0	493	409	
0	0	0	0	0	493	409	
1	0	0	0	0	493	409	
2	0	0	0	0	494	413	
3	0	0	0	0	494	411	
4	0	0	0	0	494	410	
5	0	0	0	0	494	410	
6	0	0	0	0	494	406	
7	0	0	0	0	494	410	
8	0	0	0	0	495	410	
9	0	0	0	0	495	409	
10	0	0	0	0	496	413	
11	0	0	0	0	496	409	
12	0	0	0	0	496	410	
13	0	0	0	0	496	410	
14	0	0	0	0	497	407	
15	0	0	0	0	497	410	
0	0	0	0	0	497	411	
1	0	0	0	0	498	411	
2	0	0	0	0	498	414	
3	0	0	0	0	498	411	
4	0	0	0	0	498	411	
5	0	0	0	0	499	411	
6	0	0	0	0	499	407	
7	0	0	0	0	499	410	
8	0	0	0	0	499	410	
9	0	0	0	0	499	409	
10	0	0	0	0	500	413	
11	0	0	0	0	501	411	
12	0	0	0	0	501	410	
13	0	0	0	0	501	410	
14	0	0	0	0	501	407	
15	0	0	0	0	501	410	
0	0	0	0	0	501	410	
1	0	0	0	0	501	410	
2	0	0	0	0	501	414	
3	0	0	0	0	500	411	
4	0	0	0	0	500	410	
5	0	0	0	0	499	410	
6	0	0	0	0	499	407	
7	0	0	0	0	499	411	
8	0	0	0	0	499	411	
9	0	0	0	0	499	410	
10	0	0	0	0	498	413	
11	0	0	0	0	499	411	
12	0	0	0	0	498	410	
13	0	0	0	0	499	409	
14	0	0	0	0	499	407	
15	0	0	0	0	499	409	
0	0	0	0	0	499	410	
1	0	0	0	0	500	409	
2	0	0	0	0	500	412	
3	0	0	0	0	501	409	
4	0	0	0	0	502	410	
5	0	0	0	0	502	409	
6	0	0	0	0	502	406	
7	0	0	0	0	502	409	
8	0	0	0	0	503	409	
9	0	0	0	0	503	409	
10	0	0	0	0	503	412	
11	0	0	0	0	503	409	
12	0	0	0	0	503	409	
13	0	0	0	0	504	409	
14	0	0	0	0	504	406	
15	0	0	0	0	504	409	
0	0	0	0	0	505	409	
1	0	0	0	0	505	409	
2	0	0	0	0	506	412	
3	0	0	0	0	506	409	
4	0	0	0	0	507	409	
5	0	0	0	0	508	409	
6	0	0	0	0	509	406	
7	0	0	0	0	510	409	
8	0	0	0	0	511	409	
9	0	0	0	0	512	409	
10	0	0	0	0	512	412	
11	0	0	0	0	512	409	
12	0	0	0	0	513	409	
13	0	0	0	0	514	409	
14	0	0	0	0	515	406	
15	0	0	0	0	515	410	
0	0	0	0	0	516	409	
1	0	0	0	0	517	409	
2	0	0	0	0	518	413	
3	0	0	0	0	518	410	
4	0	0	0	0	519	410	
5	0	0	0	0	519	409	
6	0	0	0	0	521	407	
7	0	0	0	0	521	410	
8	0	0	0	0	522	410	
9	0	0	0	0	523	410	
10	0	0	0	0	523	412	
11	0	0	0	0	524	409	
12	0	0	0	0	524	409	
13	0	0	0	0	524	409	
14	0	0	0	0	524	406	
15	0	0	0	0	524	409	
0	0	0	0	0	524	409	
1	0	0	0	0	524	410	
2	0	0	0	0	524	413	
3	0	0	0	0	525	410	
4	0	0	0	0	524	409	
5	0	0	0	0	525	410	
6	0	0	0	0	525	406	
7	0	0	0	0	525	410	
8	0	0	0	0	526	410	
9	0	0	0	0	525	409	
10	0	0	0	0	525	413	
11	0	0	0	0	525	410	
12	0	0	0	0	526	410	
13	0	0	0	0	527	409	
14	0	0	0	0	528	406	
15	0	0	0	0	528	410	
0	0	0	0	0	527	410	
1	0	0	0	0	527	410	
2	0	0	0	0	527	413	
3	0	0	0	0	527	409	
4	0	0	0	0	527	409	
5	0	0	0	0	526	410	
6	0	0	0	0	526	407	
7	0	0	0	0	525	411	
8	0	0	0	0	524	410	
9	0	0	0	0	523	410	
10	0	0	0	0	523	412	
11	0	0	0	0	522	409	
12	0	0	0	0	521	410	
13	0	0	0	0	520	409	
14	0	0	0	0	519	406	
15	0	0	0	0	519	409	
0	0	0	0	0	519	410	
1	0	0	0	0	518	409	
2	0	0	0	0	517	412	
3	0	0	0	0	515	410	
4	0	0	0	0	514	410	
5	0	0	0	0	513	409	
6	0	0	0	0	511	407	
7	0	0	0	0	510	410	
8	0	0	0	0	510	411	
9	0	0	0	0	508	410	
10	0	0	0	0	507	413	
11	0	0	0	0	506	410	
12	0	0	0	0	505	409	
13	0	0	0	0	504	410	
14	0	0	0	0	503	406	
15	0	0	0	0	502	410	
0	0	0	0	0	501	410	
1	0	0	0	0	500	410	
2	0	0	0	0	500	412	
3	0	0	0	0	499	409	
4	0	0	0	0	499	410	
5	0	0	0	0	499	409	
6	0	0	0	0	499	406	
7	0	0	0	0	499	409	
8	0	0	0	0	499	409	
9	0	0	0	0	497	409	
10	0	0	0	0	497	412	
11	0	0	0	0	497	409	
12	0	0	0	0	496	409	
13	0	0	0	0	495	409	
14	0	0	0	0	496	407	
15	0	0	0	0	496	410	
0	0	0	0	0	496	410	
1	0	0	0	0	496	410	
2	0	0	0	0	496	413	
3	0	0	0	0	495	410	
4	0	0	0	0	495	410	
5	0	0	0	0	494	410	
6	0	0	0	0	494	407	
7	0	0	0	0	494	410	
8	0	0	0	0	494	410	
9	0	0	0	0	495	409	
10	0	0	0	0	495	413	
11	0	0	0	0	494	410	
12	0	0	0	0	494	409	
13	0	0	0	0	493	410	
14	0	0	0	0	492	407	
15	0	0	0	0	492	410	
0	0	0	0	0	492	410	
1	0	0	0	0	492	409	
2	0	0	0	0	492	412	
3	0	0	0	0	492	409	
4	0	0	0	0	492	410	
5	0	0	0	0	493	409	
6	0	0	0	0	493	406	
7	0	0	0	0	494	409	
8	0	0	0	0	494	409	
9	0	0	0	0	495	409	
10	0	0	0	0	495	413	
11	0	0	0	0	496	409	
12	0	0	0	0	496	409	
13	0	0	0	0	497	410	
14	0	0	0	0	498	407	
15	0	0	0	0	499	410	
0	0	0	0	0	499	410	
1	0	0	0	0	500	410	
2	0	0	0	0	501	412	
3	0	0	0	0	501	410	
4	0	0	0	0	501	410	
5	0	0	0	0	501	409	
6	0	0	0	0	502	407	
7	0	0	0	0	502	410	
8	0	0	0	0	502	409	
9	0	0	0	0	501	410	
10	0	0	0	0	500	413	
11	0	0	0	0	500	410	
12	0	0	0	0	499	410	
13	0	0	0	0	499	409	
14	0	0	0	0	499	407	
15	0	0	0	0	498	410	
0	0	0	0	0	499	410	
1	0	0	0	0	498	410	
2	0	0	0	0	498	412	
3	0	0	0	0	498	410	
4	0	0	0	0	498	411	
5	0	0	0	0	498	410	
6	0	0	0	0	499	407	
7	0	0	0	0	499	409	
8	0	0	0	0	500	410	
9	0	0	0	0	500	411	
10	0	0	0	0	500	413	
11	0	0	0	0	500	409	
12	0	0	0	0	501	410	
13	0	0	0	0	502	411	
14	0	0	0	0	502	407	
15	0	0	0	0	503	410	
0	0	0	0	0	504	410	
1	0	0	0	0	504	409	
2	0	0	0	0	505	412	
3	0	0	0	0	505	410	
4	0	0	0	0	505	410	
5	0	0	0	0	506	410	
6	0	0	0	0	506	406	
7	0	0	0	0	506	409	
8	0	0	0	0	506	410	
9	0	0	0	0	506	411	
10	0	0	0	0	506	413	
11	0	0	0	0	505	410	
12	0	0	0	0	505	410	
13	0	0	0	0	504	410	
14	0	0	0	0	504	407	
15	0	0	0	0	505	410	
0	0	0	0	0	505	410	
1	0	0	0	0	505	410	
2	0	0	0	0	505	413	
3	0	0	0	0	505	410	
4	0	0	0	0	505	409	
5	0	0	0	0	505	410	
6	0	0	0	0	505	407	
7	0	0	0	0	505	410	
8	0	0	0	0	505	410	
9	0	0	0	0	506	410	
10	0	0	0	0	505	413	
11	0	0	0	0	506	410	
12	0	0	0	0	506	409	
13	0	0	0	0	506	409	
14	0	0	0	0	507	406	
15	0	0	0	0	506	409	
0	0	0	0	0	507	410	
1	0	0	0	0	506	409	
2	0	0	0	0	506	412	
3	0	0	0	0	506	410	
4	0	0	0	0	506	409	
5	0	0	0	0	505	409	
6	0	0	0	0	506	406	
7	0	0	0	0	506	410	
8	0	0	0	0	506	409	
9	0	0	0	0	506	409	
10	0	0	0	0	506	413	
11	0	0	0	0	506	410	
12	0	0	0	0	506	410	
13	0	0	0	0	507	410	
14	0	0	0	0	507	406	
15	0	0	0	0	507	410	
0	0	0	0	0	506	410	
1	0	0	0	0	506	410	
2	0	0	0	0	506	412	
3	0	0	0	0	506	410	
4	0	0	0	0	506	410	
5	0	0	0	0	506	409	
6	0	0	0	0	506	406	
7	0	0	0	0	506	409	
8	0	0	0	0	505	409	
9	0	0	0	0	505	409	
10	0	0	0	0	505	413	
11	0	0	0	0	505	409	
12	0	0	0	0	505	410	
13	0	0	0	0	505	410	
14	0	0	0	0	505	407	
15	0	0	0	0	505	410	
0	0	0	0	0	505	409	
1	0	0	0	0	505	410	
2	0	0	0	0	505	412	
3	0	0	0	0	506	409	
4	0	0	0	0	507	409	
5	0	0	0	0	508	409	
6	0	0	0	0	508	407	
7	0	0	0	0	508	409	
8	0	0	0	0	509	409	
9	0	0	0	0	509	409	
10	0	0	0	0	509	412	
11	0	0	0	0	510	410	
12	0	0	0	0	510	409	
13	0	0	0	0	511	409	
14	0	0	0	0	510	406	
15	0	0	0	0	511	409	
0	0	0	0	0	511	409	
1	0	0	0	0	511	409	
2	0	0	0	0	511	412	
3	0	0	0	0	511	408	
4	0	0	0	0	511	409	
5	0	0	0	0	511	409	
6	0	0	0	0	511	405	
7	0	0	0	0	511	408	
8	0	0	0	0	511	409	
9	0	0	0	0	510	409	
10	0	0	0	0	509	412	
11	0	0	0	0	509	409	
12	0	0	0	0	509	409	
13	0	0	0	0	510	409	
14	0	0	0	0	510	405	
15	0	0	0	0	510	409	
0	0	0	0	0	510	409	
1	0	0	0	0	510	409	
2	0	0	0	0	510	413	
3	0	0	0	0	511	409	
4	0	0	0	0	512	409	
5	0	0	0	0	512	408	
6	0	0	0	0	512	406	
7	0	0	0	0	512	409	
8	0	0	0	0	512	409	
9	0	0	0	0	513	409	
10	0	0	0	0	514	412	
11	0	0	0	0	514	409	
12	0	0	0	0	514	409	
13	0	0	0	0	515	410	
14	0	0	0	0	515	406	
15	0	0	0	0	515	409	
0	0	0	0	0	515	409	
1	0	0	0	0	515	409	
2	0	0	0	0	514	412	
3	0	0	0	0	513	409	
4	0	0	0	0	512	409	
5	0	0	0	0	512	409	
6	0	0	0	0	512	406	
7	0	0	0	0	512	409	
8	0	0	0	0	513	409	
9	0	0	0	0	514	409	
10	0	0	0	0	514	413	
11	0	0	0	0	514	410	
12	0	0	0	0	514	410	
13	0	0	0	0	515	409	
14	0	0	0	0	514	406	
15	0	0	0	0	514	409	
0	0	0	0	0	514	409	
1	0	0	0	0	514	409	
2	0	0	0	0	513	412	
3	0	0	0	0	513	409	
4	0	0	0	0	513	409	
5	0	0	0	0	513	409	
6	0	0	0	0	513	407	
7	0	0	0	0	512	410	
8	0	0	0	0	512	410	
9	0	0	0	0	511	410	
10	0	0	0	0	511	414	
11	0	0	0	0	511	411	
12	0	0	0	0	511	410	
13	0	0	0	0	511	409	
14	0	0	0	0	510	406	
15	0	0	0	0	511	410	
0	0	0	0	0	512	410	
1	0	0	0	0	512	410	
2	0	0	0	0	512	413	
3	0	0	0	0	513	409	
4	0	0	0	0	513	410	
5	0	0	0	0	513	410	
6	0	0	0	0	513	406	
7	0	0	0	0	513	409	
8	0	0	0	0	513	409	
9	0	0	0	0	512	410	
10	0	0	0	0	512	413	
11	0	0	0	0	511	410	
12	0	0	0	0	510	410	
13	0	0	0	0	510	410	
14	0	0	0	0	510	407	
15	0	0	0	0	510	409	
0	0	0	0	0	510	409	
1	0	0	0	0	510	409	
2	0	0	0	0	511	413	
3	0	0	0	0	511	410	
4	0	0	0	0	511	409	
5	0	0	0	0	511	409	
6	0	0	0	0	511	406	
7	0	0	0	0	511	410	
8	0	0	0	0	512	410	
9	0	0	0	0	512	410	
10	0	0	0	0	512	413	
11	0	0	0	0	512	410	
12	0	0	0	0	511	410	
13	0	0	0	0	511	410	
14	0	0	0	0	510	407	
15	0	0	0	0	510	410	
0	0	0	0	0	509	409	
1	0	0	0	0	509	409	
2	0	0	0	0	509	413	
3	0	0	0	0	509	410	
4	0	0	0	0	510	409	
5	0	0	0	0	510	410	
6	0	0	0	0	510	406	
7	0	0	0	0	511	410	
8	0	0	0	0	511	410	
9	0	0	0	0	512	410	
10	0	0	0	0	512	413	
11	0	0	0	0	512	410	
12	0	0	0	0	512	410	
13	0	0	0	0	512	411	
14	0	0	0	0	512	407	
15	0	0	0	0	512	409	
0	0	0	0	0	512	409	
1	0	0	0	0	512	410	
2	0	0	0	0	512	413	
3	0	0	0	0	513	410	
4	0	0	0	0	513	409	
5	0	0	0	0	513	410	
6	0	0	0	0	512	407	
7	0	0	0	0	512	410	
8	0	0	0	0	511	410	
9	0	0	0	0	510	410	
10	0	0	0	0	511	413	
11	0	0	0	0	509	410	
12	0	0	0	0	509	410	
13	0	0	0	0	509	409	
14	0	0	0	0	508	406	
15	0	0	0	0	508	409	
0	0	0	0	0	508	409	
1	0	0	0	0	507	409	
2	0	0	0	0	506	412	
3	0	0	0	0	506	409	
4	0	0	0	0	506	409	
5	0	0	0	0	505	409	
6	0	0	0	0	505	406	
7	0	0	0	0	505	409	
8	0	0	0	0	505	410	
9	0	0	0	0	505	410	
10	0	0	0	0	504	412	
11	0	0	0	0	504	409	
12	0	0	0	0	504	409	
13	0	0	0	0	504	409	
14	0	0	0	0	505	406	
15	0	0	0	0	505	409	
0	0	0	0	0	506	409	
1	0	0	0	0	507	409	
2	0	0	0	0	507	412	
3	0	0	0	0	507	409	
4	0	0	0	0	507	409	
5	0	0	0	0	508	409	
6	0	0	0	0	507	405	
7	0	0	0	0	507	409	
8	0	0	0	0	508	410	
9	0	0	0	0	508	410	
10	0	0	0	0	507	412	
11	0	0	0	0	507	409	
12	0	0	0	0	508	409	
13	0	0	0	0	508	410	
14	0	0	0	0	508	406	
15	0	0	0	0	509	410	
0	0	0	0	0	510	409	
1	0	0	0	0	510	410	
2	0	0	0	0	511	413	
3	0	0	0	0	510	409	
4	0	0	0	0	511	409	
5	0	0	0	0	511	410	
6	0	0	0	0	512	407	
7	0	0	0	0	512	410	
8	0	0	0	0	513	409	
9	0	0	0	0	514	409	
10	0	0	0	0	515	412	
11	0	0	0	0	515	410	
12	0	0	0	0	515	410	
13	0	0	0	0	515	409	
14	0	0	0	0	516	407	
15	0	0	0	0	516	410	
0	0	0	0	0	517	410	
1	0	0	0	0	517	409	
2	0	0	0	0	516	413	
3	0	0	0	0	515	410	
4	0	0	0	0	515	409	
5	0	0	0	0	514	409	
6	0	0	0	0	513	408	
7	0	0	0	0	513	410	
8	0	0	0	0	513	410	
9	0	0	0	0	513	410	
10	0	0	0	0	512	413	
11	0	0	0	0	512	410	
12	0	0	0	0	511	410	
13	0	0	0	0	510	410	
14	0	0	0	0	509	407	
15	0	0	0	0	509	410	
0	0	0	0	0	509	410	
1	0	0	0	0	508	409	
2	0	0	0	0	509	412	
3	0	0	0	0	509	410	
4	0	0	0	0	509	410	
5	0	0	0	0	510	410	
6	0	0	0	0	511	407	
7	0	0	0	0	512	409	
8	0	0	0	0	512	410	
9	0	0	0	0	512	409	
10	0	0	0	0	512	413	
11	0	0	0	0	512	409	
12	0	0	0	0	513	410	
13	0	0	0	0	513	409	
14	0	0	0	0	512	406	
15	0	0	0	0	512	409	
0	0	0	0	0	512	409	
1	0	0	0	0	511	409	
2	0	0	0	0	511	412	
3	0	0	0	0	510	409	
4	0	0	0	0	511	409	
5	0	0	0	0	510	410	
6	0	0	0	0	511	405	
7	0	0	0	0	511	409	
8	0	0	0	0	512	409	
9	0	0	0	0	513	409	
10	0	0	0	0	514	412	
11	0	0	0	0	515	409	
12	0	0	0	0	515	409	
13	0	0	0	0	515	409	
14	0	0	0	0	516	406	
15	0	0	0	0	517	409	
0	0	0	0	0	517	409	
1	0	0	0	0	517	409	
2	0	0	0	0	516	412	
3	0	0	0	0	517	409	
4	0	0	0	0	516	409	
5	0	0	0	0	517	409	
6	0	0	0	0	516	406	
7	0	0	0	0	515	409	
8	0	0	0	0	514	410	
9	0	0	0	0	513	409	
10	0	0	0	0	512	413	
11	0	0	0	0	511	409	
12	0	0	0	0	511	409	
13	0	0	0	0	511	410	
14	0	0	0	0	511	406	
15	0	0	0	0	510	409	
0	0	0	0	0	511	409	
1	0	0	0	0	511	409	
2	0	0	0	0	511	412	
3	0	0	0	0	511	410	
4	0	0	0	0	510	410	
5	0	0	0	0	511	410	
6	0	0	0	0	511	406	
7	0	0	0	0	512	410	
8	0	0	0	0	513	409	
9	0	0	0	0	513	409	
10	0	0	0	0	513	412	
11	0	0	0	0	513	409	
12	0	0	0	0	512	409	
13	0	0	0	0	513	409	
14	0	0	0	0	512	406	
15	0	0	0	0	512	410	
0	0	0	0	0	511	409	
1	0	0	0	0	511	410	
2	0	0	0	0	511	413	
3	0	0	0	0	510	410	
4	0	0	0	0	509	409	
5	0	0	0	0	508	410	
6	0	0	0	0	506	406	
7	0	0	0	0	505	409	
8	0	0	0	0	505	409	
9	0	0	0	0	504	409	
10	0	0	0	0	503	412	
11	0	0	0	0	502	409	
12	0	0	0	0	499	410	
13	0	0	0	0	495	410	
14	0	0	0	0	490	407	
15	0	0	0	0	486	410	
0	0	0	0	0	483	409	
1	0	0	0	0	479	409	
2	0	0	0	0	475	412	
3	0	0	0	0	471	409	
4	0	0	0	0	467	409	
5	0	0	0	0	463	410	
6	0	0	0	0	460	406	
7	0	0	0	0	457	409	
8	0	0	0	0	455	409	
9	0	0	0	0	455	409	
10	0	0	0	0	455	412	
11	0	0	0	0	457	410	
12	0	0	0	0	461	410	
13	0	0	0	0	468	410	
14	0	0	0	0	477	407	
15	0	0	0	0	487	409	
0	0	0	0	0	501	410	
1	0	0	0	0	515	409	
2	0	0	0	0	531	412	
3	0	0	0	0	547	409	
4	0	0	0	0	563	410	
5	0	0	0	0	579	409	
6	0	0	0	0	594	406	
7	0	0	0	0	608	409	
8	0	0	0	0	620	410	
9	0	0	0	0	634	409	
10	0	0	0	0	648	412	
11	0	0	0	0	659	409	
12	0	0	0	0	667	410	
13	0	0	0	0	666	409	
14	0	0	0	0	662	407	
15	0	0	0	0	656	409	
0	0	0	0	0	648	410	
1	0	0	0	0	640	410	
2	0	0	0	0	631	412	
3	0	0	0	0	623	409	
4	0	0	0	0	617	410	
5	0	0	0	0	610	410	
6	0	0	0	0	600	406	
7	0	0	0	0	588	409	
8	0	0	0	0	577	410	
9	0	0	0	0	567	409	
10	0	0	0	0	558	413	
11	0	0	0	0	550	409	
12	0	0	0	0	544	409	
13	0	0	0	0	539	410	
14	0	0	0	0	534	406	
15	0	0	0	0	530	409	
0	0	0	0	0	528	409	
1	0	0	0	0	526	410	
2	0	0	0	0	523	413	
3	0	0	0	0	519	410	
4	0	0	0	0	516	410	
5	0	0	0	0	513	409	
6	0	0	0	0	510	407	
7	0	0	0	0	507	409	
8	0	0	0	0	504	409	
9	0	0	0	0	501	409	
10	0	0	0	0	499	413	
11	0	0	0	0	497	410	
12	0	0	0	0	496	411	
13	0	0	0	0	495	409	
14	0	0	0	0	494	406	
15	0	0	0	0	492	410	
0	0	0	0	0	491	409	
1	0	0	0	0	489	410	
2	0	0	0	0	488	413	
3	0	0	0	0	487	410	
4	0	0	0	0	486	410	
5	0	0	0	0	486	410	
6	0	0	0	0	485	407	
7	0	0	0	0	485	410	
8	0	0	0	0	484	409	
9	0	0	0	0	484	409	
10	0	0	0	0	483	412	
11	0	0	0	0	483	409	
12	0	0	0	0	483	409	
13	0	0	0	0	483	409	
14	0	0	0	0	483	406	
15	0	0	0	0	484	410	
0	0	0	0	0	484	410	
1	0	0	0	0	483	409	
2	0	0	0	0	483	413	
3	0	0	0	0	483	410	
4	0	0	0	0	483	410	
5	0	0	0	0	483	410	
6	0	0	0	0	484	406	
7	0	0	0	0	484	410	
8	0	0	0	0	485	409	
9	0	0	0	0	485	409	
10	0	0	0	0	485	412	
11	0	0	0	0	485	410	
12	0	0	0	0	485	409	
13	0	0	0	0	484	410	
14	0	0	0	0	484	406	
15	0	0	0	0	483	410	
0	0	0	0	0	483	410	
1	0	0	0	0	483	410	
2	0	0	0	0	483	413	
3	0	0	0	0	483	410	
4	0	0	0	0	484	409	
5	0	0	0	0	485	410	
6	0	0	0	0	487	406	
7	0	0	0	0	487	409	
8	0	0	0	0	488	411	
9	0	0	0	0	489	410	
10	0	0	0	0	489	413	
11	0	0	0	0	489	410	
12	0	0	0	0	490	410	
13	0	0	0	0	490	410	
14	0	0	0	0	491	407	
15	0	0	0	0	491	411	
0	0	0	0	0	491	411	
1	0	0	0	0	491	410	
2	0	0	0	0	491	413	
3	0	0	0	0	491	410	
4	0	0	0	0	491	410	
5	0	0	0	0	492	410	
6	0	0	0	0	492	406	
7	0	0	0	0	492	410	
8	0	0	0	0	492	410	
9	0	0	0	0	491	409	
10	0	0	0	0	491	412	
11	0	0	0	0	490	410	
12	0	0	0	0	490	410	
13	0	0	0	0	491	410	
14	0	0	0	0	491	406	
15	0	0	0	0	492	409	
0	0	0	0	0	492	409	
1	0	0	0	0	492	409	
2	0	0	0	0	493	412	
3	0	0	0	0	493	410	
4	0	0	0	0	493	409	
5	0	0	0	0	494	410	
6	0	0	0	0	494	406	
7	0	0	0	0	494	409	
8	0	0	0	0	494	409	
9	0	0	0	0	494	409	
10	0	0	0	0	495	412	
11	0	0	0	0	495	409	
12	0	0	0	0	495	410	
13	0	0	0	0	495	409	
14	0	0	0	0	495	406	
15	0	0	0	0	495	409	
0	0	0	0	0	494	409	
1	0	0	0	0	494	410	
2	0	0	0	0	494	412	
3	0	0	0	0	494	409	
4	0	0	0	0	494	409	
5	0	0	0	0	494	409	
6	0	0	0	0	494	406	
7	0	0	0	0	494	409	
8	0	0	0	0	494	409	
9	0	0	0	0	493	409	
10	0	0	0	0	493	412	
11	0	0	0	0	494	409	
12	0	0	0	0	494	409	
13	0	0	0	0	495	409	
14	0	0	0	0	496	406	
15	0	0	0	0	496	409	
0	0	0	0	0	496	410	
1	0	0	0	0	496	410	
2	0	0	0	0	496	413	
3	0	0	0	0	496	410	
4	0	0	0	0	495	410	
5	0	0	0	0	495	409	
6	0	0	0	0	496	407	
7	0	0	0	0	496	410	
8	0	0	0	0	496	410	
9	0	0	0	0	498	409	
10	0	0	0	0	499	413	
11	0	0	0	0	499	410	
12	0	0	0	0	499	409	
13	0	0	0	0	500	410	
14	0	0	0	0	501	406	
15	0	0	0	0	501	409	
0	0	0	0	0	501	409	
1	0	0	0	0	501	410	
2	0	0	0	0	502	412	
3	0	0	0	0	501	409	
4	0	0	0	0	500	410	
5	0	0	0	0	500	410	
6	0	0	0	0	500	406	
7	0	0	0	0	499	409	
8	0	0	0	0	499	409	
9	0	0	0	0	498	410	
10	0	0	0	0	498	412	
11	0	0	0	0	498	409	
12	0	0	0	0	498	410	
13	0	0	0	0	499	409	
14	0	0	0	0	499	407	
15	0	0	0	0	499	410	
0	0	0	0	0	499	409	
1	0	0	0	0	500	409	
2	0	0	0	0	499	412	
3	0	0	0	0	499	410	
4	0	0	0	0	499	410	
5	0	0	0	0	499	410	
6	0	0	0	0	499	407	
7	0	0	0	0	499	410	
8	0	0	0	0	501	410	
9	0	0	0	0	502	410	
10	0	0	0	0	503	413	
11	0	0	0	0	503	410	
12	0	0	0	0	503	409	
13	0	0	0	0	503	410	
14	0	0	0	0	504	407	
15	0	0	0	0	505	410	
0	0	0	0	0	506	410	
1	0	0	0	0	507	410	
2	0	0	0	0	509	413	
3	0	0	0	0	510	410	
4	0	0	0	0	511	410	
5	0	0	0	0	512	410	
6	0	0	0	0	512	407	
7	0	0	0	0	512	409	
8	0	0	0	0	512	410	
9	0	0	0	0	512	409	
10	0	0	0	0	513	412	
11	0	0	0	0	513	409	
12	0	0	0	0	515	410	
13	0	0	0	0	515	410	
14	0	0	0	0	516	406	
15	0	0	0	0	517	409	
0	0	0	0	0	517	409	
1	0	0	0	0	518	409	
2	0	0	0	0	519	413	
3	0	0	0	0	520	410	
4	0	0	0	0	522	409	
5	0	0	0	0	524	409	
6	0	0	0	0	524	406	
7	0	0	0	0	525	410	
8	0	0	0	0	526	409	
9	0	0	0	0	526	410	
10	0	0	0	0	526	412	
11	0	0	0	0	527	409	
12	0	0	0	0	528	410	
13	0	0	0	0	529	409	
14	0	0	0	0	531	406	
15	0	0	0	0	531	409	
0	0	0	0	0	531	408	
1	0	0	0	0	531	408	
2	0	0	0	0	530	412	
3	0	0	0	0	530	409	
4	0	0	0	0	529	409	
5	0	0	0	0	528	409	
6	0	0	0	0	527	406	
7	0	0	0	0	527	409	
8	0	0	0	0	528	409	
9	0	0	0	0	529	409	
10	0	0	0	0	530	412	
11	0	0	0	0	531	409	
12	0	0	0	0	533	409	
13	0	0	0	0	534	409	
14	0	0	0	0	535	407	
15	0	0	0	0	536	410	
0	0	0	0	0	536	410	
1	0	0	0	0	536	409	
2	0	0	0	0	536	412	
3	0	0	0	0	535	409	
4	0	0	0	0	534	410	
5	0	0	0	0	532	410	
6	0	0	0	0	531	406	
7	0	0	0	0	529	409	
8	0	0	0	0	528	409	
9	0	0	0	0	528	411	
10	0	0	0	0	527	413	
11	0	0	0	0	527	410	
12	0	0	0	0	527	409	
13	0	0	0	0	526	409	
14	0	0	0	0	525	406	
15	0	0	0	0	524	409	
0	0	0	0	0	524	410	
1	0	0	0	0	523	409	
2	0	0	0	0	523	412	
3	0	0	0	0	523	409	
4	0	0	0	0	523	410	
5	0	0	0	0	523	409	
6	0	0	0	0	523	406	
7	0	0	0	0	521	410	
8	0	0	0	0	520	410	
9	0	0	0	0	519	410	
10	0	0	0	0	518	413	
11	0	0	0	0	517	409	
12	0	0	0	0	516	410	
13	0	0	0	0	516	409	
14	0	0	0	0	515	406	
15	0	0	0	0	514	410	
0	0	0	0	0	514	409	
1	0	0	0	0	514	409	
2	0	0	0	0	514	412	
3	0	0	0	0	513	410	
4	0	0	0	0	513	410	
5	0	0	0	0	512	410	
6	0	0	0	0	511	406	
7	0	0	0	0	511	411	
8	0	0	0	0	510	410	
9	0	0	0	0	510	410	
10	0	0	0	0	508	413	
11	0	0	0	0	507	410	
12	0	0	0	0	505	410	
13	0	0	0	0	503	410	
14	0	0	0	0	501	406	
15	0	0	0	0	499	410	
0	0	0	0	0	497	409	
1	0	0	0	0	496	410	
2	0	0	0	0	495	412	
3	0	0	0	0	494	409	
4	0	0	0	0	494	409	
5	0	0	0	0	494	409	
6	0	0	0	0	493	407	
7	0	0	0	0	493	409	
8	0	0	0	0	493	409	
9	0	0	0	0	494	409	
10	0	0	0	0	495	413	
11	0	0	0	0	497	410	
12	0	0	0	0	497	410	
13	0	0	0	0	497	409	
14	0	0	0	0	496	406	
15	0	0	0	0	496	410	
0	0	0	0	0	496	410	
1	0	0	0	0	496	409	
2	0	0	0	0	495	412	
3	0	0	0	0	495	409	
4	0	0	0	0	494	409	
5	0	0	0	0	493	410	
6	0	0	0	0	492	406	
7	0	0	0	0	492	410	
8	0	0	0	0	491	410	
9	0	0	0	0	491	410	
10	0	0	0	0	491	412	
11	0	0	0	0	492	409	
12	0	0	0	0	492	409	
13	0	0	0	0	494	409	
14	0	0	0	0	494	406	
15	0	0	0	0	494	410	
0	0	0	0	0	494	409	
1	0	0	0	0	495	409	
2	0	0	0	0	495	412	
3	0	0	0	0	496	410	
4	0	0	0	0	496	409	
5	0	0	0	0	496	409	
6	0	0	0	0	496	406	
7	0	0	0	0	495	409	
8	0	0	0	0	495	409	
9	0	0	0	0	495	409	
10	0	0	0	0	494	413	
11	0	0	0	0	493	410	
12	0	0	0	0	492	410	
13	0	0	0	0	492	409	
14	0	0	0	0	491	406	
15	0	0	0	0	492	409	
0	0	0	0	0	492	409	
1	0	0	0	0	492	410	
2	0	0	0	0	493	412	
3	0	0	0	0	493	409	
4	0	0	0	0	494	410	
5	0	0	0	0	495	410	
6	0	0	0	0	496	406	
7	0	0	0	0	496	409	
8	0	0	0	0	497	409	
9	0	0	0	0	497	409	
10	0	0	0	0	497	413	
11	0	0	0	0	496	409	
12	0	0	0	0	496	409	
13	0	0	0	0	496	410	
14	0	0	0	0	497	407	
15	0	0	0	0	498	410	
0	0	0	0	0	499	410	
1	0	0	0	0	499	409	
2	0	0	0	0	498	412	
3	0	0	0	0	499	410	
4	0	0	0	0	499	410	
5	0	0	0	0	499	410	
6	0	0	0	0	500	407	
7	0	0	0	0	501	409	
8	0	0	0	0	501	410	
9	0	0	0	0	501	409	
10	0	0	0	0	501	412	
11	0	0	0	0	500	410	
12	0	0	0	0	501	410	
13	0	0	0	0	501	409	
14	0	0	0	0	501	406	
15	0	0	0	0	501	409	
0	0	0	0	0	501	410	
1	0	0	0	0	501	409	
2	0	0	0	0	500	412	
3	0	0	0	0	500	410	
4	0	0	0	0	500	410	
5	0	0	0	0	500	410	
6	0	0	0	0	500	407	
7	0	0	0	0	500	410	
8	0	0	0	0	500	410	
9	0	0	0	0	499	410	
10	0	0	0	0	499	412	
11	0	0	0	0	499	410	
12	0	0	0	0	499	409	
13	0	0	0	0	498	409	
14	0	0	0	0	498	407	
15	0	0	0	0	499	410	
0	0	0	0	0	499	410	
1	0	0	0	0	499	410	
2	0	0	0	0	499	413	
3	0	0	0	0	500	410	
4	0	0	0	0	500	410	
5	0	0	0	0	500	409	
6	0	0	0	0	501	407	
7	0	0	0	0	501	410	
8	0	0	0	0	501	410	
9	0	0	0	0	501	410	
10	0	0	0	0	501	413	
11	0	0	0	0	501	409	
12	0	0	0	0	502	410	
13	0	0	0	0	503	410	
14	0	0	0	0	503	406	
15	0	0	0	0	504	409	
0	0	0	0	0	504	410	
1	0	0	0	0	504	410	
2	0	0	0	0	504	412	
3	0	0	0	0	504	409	
4	0	0	0	0	504	410	
5	0	0	0	0	504	409	
6	0	0	0	0	504	406	
7	0	0	0	0	504	410	
8	0	0	0	0	504	409	
9	0	0	0	0	504	410	
10	0	0	0	0	504	413	
11	0	0	0	0	504	410	
12	0	0	0	0	504	410	
13	0	0	0	0	504	410	
14	0	0	0	0	504	407	
15	0	0	0	0	504	410	
0	0	0	0	0	505	409	
1	0	0	0	0	505	410	
2	0	0	0	0	506	413	
3	0	0	0	0	507	410	
4	0	0	0	0	508	410	
5	0	0	0	0	508	410	
6	0	0	0	0	508	407	
7	0	0	0	0	509	409	
8	0	0	0	0	510	410	
9	0	0	0	0	510	409	
10	0	0	0	0	510	413	
11	0	0	0	0	510	409	
12	0	0	0	0	510	409	
13	0	0	0	0	509	409	
14	0	0	0	0	509	406	
15	0	0	0	0	508	409	
0	0	0	0	0	509	410	
1	0	0	0	0	509	410	
2	0	0	0	0	510	412	
3	0	0	0	0	511	409	
4	0	0	0	0	511	409	
5	0	0	0	0	512	409	
6	0	0	0	0	512	406	
7	0	0	0	0	513	409	
8	0	0	0	0	513	409	
9	0	0	0	0	514	409	
10	0	0	0	0	515	412	
11	0	0	0	0	515	408	
12	0	0	0	0	515	409	
13	0	0	0	0	516	409	
14	0	0	0	0	516	406	
15	0	0	0	0	515	409	
0	0	0	0	0	515	409	
1	0	0	0	0	515	409	
2	0	0	0	0	515	413	
3	0	0	0	0	515	409	
4	0	0	0	0	515	409	
5	0	0	0	0	514	409	
6	0	0	0	0	514	405	
7	0	0	0	0	514	409	
8	0	0	0	0	513	409	
9	0	0	0	0	513	409	
10	0	0	0	0	513	412	
11	0	0	0	0	513	410	
12	0	0	0	0	513	409	
13	0	0	0	0	513	409	
14	0	0	0	0	512	406	
15	0	0	0	0	512	408	
0	0	0	0	0	511	409	
1	0	0	0	0	511	409	
2	0	0	0	0	511	412	
3	0	0	0	0	510	409	
4	0	0	0	0	510	409	
5	0	0	0	0	510	409	
6	0	0	0	0	510	406	
7	0	0	0	0	509	409	
8	0	0	0	0	509	409	
9	0	0	0	0	509	409	
10	0	0	0	0	509	412	
11	0	0	0	0	509	409	
12	0	0	0	0	509	409	
13	0	0	0	0	509	409	
14	0	0	0	0	510	405	
15	0	0	0	0	510	409	
0	0	0	0	0	510	409	
1	0	0	0	0	511	409	
2	0	0	0	0	511	412	
3	0	0	0	0	512	409	
4	0	0	0	0	512	409	
5	0	0	0	0	513	409	
6	0	0	0	0	513	406	
7	0	0	0	0	514	409	
8	0	0	0	0	514	409	
9	0	0	0	0	514	410	
10	0	0	0	0	514	412	
11	0	0	0	0	514	409	
12	0	0	0	0	514	410	
13	0	0	0	0	514	409	
14	0	0	0	0	514	406	
15	0	0	0	0	514	409	
0	0	0	0	0	514	409	
1	0	0	0	0	514	409	
2	0	0	0	0	514	413	
3	0	0	0	0	514	410	
4	0	0	0	0	515	409	
5	0	0	0	0	514	409	
6	0	0	0	0	514	406	
7	0	0	0	0	514	409	
8	0	0	0	0	515	409	
9	0	0	0	0	515	409	
10	0	0	0	0	515	412	
11	0	0	0	0	515	409	
12	0	0	0	0	514	410	
13	0	0	0	0	513	409	
14	0	0	0	0	513	407	
15	0	0	0	0	513	410	
0	0	0	0	0	513	410	
1	0	0	0	0	512	410	
2	0	0	0	0	512	413	
3	0	0	0	0	512	410	
4	0	0	0	0	512	410	
5	0	0	0	0	512	409	
6	0	0	0	0	512	407	
7	0	0	0	0	513	411	
8	0	0	0	0	513	410	
9	0	0	0	0	513	410	
10	0	0	0	0	514	413	
11	0	0	0	0	514	409	
12	0	0	0	0	513	410	
13	0	0	0	0	513	410	
14	0	0	0	0	513	407	
15	0	0	0	0	513	410	
0	0	0	0	0	514	410	
1	0	0	0	0	515	410	
2	0	0	0	0	515	413	
3	0	0	0	0	515	410	
4	0	0	0	0	515	410	
5	0	0	0	0	515	410	
6	0	0	0	0	515	407	
7	0	0	0	0	515	410	
8	0	0	0	0	516	409	
9	0	0	0	0	516	409	
10	0	0	0	0	516	412	
11	0	0	0	0	515	411	
12	0	0	0	0	515	410	
13	0	0	0	0	515	410	
14	0	0	0	0	515	407	
15	0	0	0	0	514	410	
0	0	0	0	0	514	411	
1	0	0	0	0	513	411	
2	0	0	0	0	513	413	
3	0	0	0	0	512	410	
4	0	0	0	0	511	410	
5	0	0	0	0	511	409	
6	0	0	0	0	511	406	
7	0	0	0	0	511	410	
8	0	0	0	0	511	410	
9	0	0	0	0	512	410	
10	0	0	0	0	512	413	
11	0	0	0	0	512	410	
12	0	0	0	0	513	409	
13	0	0	0	0	513	409	
14	0	0	0	0	513	406	
15	0	0	0	0	514	410	
0	0	0	0	0	515	410	
1	0	0	0	0	515	409	
2	0	0	0	0	516	413	
3	0	0	0	0	516	410	
4	0	0	0	0	517	409	
5	0	0	0	0	517	410	
6	0	0	0	0	516	406	
7	0	0	0	0	516	409	
8	0	0	0	0	516	410	
9	0	0	0	0	516	409	
10	0	0	0	0	516	413	
11	0	0	0	0	516	409	
12	0	0	0	0	516	410	
13	0	0	0	0	516	409	
14	0	0	0	0	516	406	
15	0	0	0	0	516	409	
0	0	0	0	0	515	409	
1	0	0	0	0	515	409	
2	0	0	0	0	516	412	
3	0	0	0	0	516	409	
4	0	0	0	0	517	409	
5	0	0	0	0	517	410	
6	0	0	0	0	518	406	
7	0	0	0	0	518	410	
8	0	0	0	0	518	410	
9	0	0	0	0	518	410	
10	0	0	0	0	519	413	
11	0	0	0	0	519	409	
12	0	0	0	0	520	410	
13	0	0	0	0	520	410	
14	0	0	0	0	521	406	
15	0	0	0	0	520	409	
0	0	0	0	0	520	409	
1	0	0	0	0	520	409	
2	0	0	0	0	519	413	
3	0	0	0	0	518	409	
4	0	0	0	0	518	409	
5	0	0	0	0	518	410	
6	0	0	0	0	518	407	
7	0	0	0	0	517	409	
8	0	0	0	0	516	410	
9	0	0	0	0	515	409	
10	0	0	0	0	514	412	
11	0	0	0	0	513	410	
12	0	0	0	0	512	410	
13	0	0	0	0	512	409	
14	0	0	0	0	512	406	
15	0	0	0	0	511	410	
0	0	0	0	0	511	409	
1	0	0	0	0	511	409	
2	0	0	0	0	512	412	
3	0	0	0	0	512	410	
4	0	0	0	0	513	409	
5	0	0	0	0	514	409	
6	0	0	0	0	515	406	
7	0	0	0	0	515	409	
8	0	0	0	0	516	409	
9	0	0	0	0	516	409	
10	0	0	0	0	515	412	
11	0	0	0	0	516	409	
12	0	0	0	0	515	410	
13	0	0	0	0	515	409	
14	0	0	0	0	515	406	
15	0	0	0	0	515	409	
0	0	0	0	0	514	410	
1	0	0	0	0	514	410	
2	0	0	0	0	514	412	
3	0	0	0	0	513	409	
4	0	0	0	0	512	410	
5	0	0	0	0	512	409	
6	0	0	0	0	512	406	
7	0	0	0	0	512	409	
8	0	0	0	0	512	409	
9	0	0	0	0	513	409	
10	0	0	0	0	514	412	
11	0	0	0	0	515	409	
12	0	0	0	0	515	409	
13	0	0	0	0	516	409	
14	0	0	0	0	516	407	
15	0	0	0	0	516	410	
0	0	0	0	0	517	410	
1	0	0	0	0	516	409	
2	0	0	0	0	516	412	
3	0	0	0	0	515	409	
4	0	0	0	0	515	409	
5	0	0	0	0	514	409	
6	0	0	0	0	514	406	
7	0	0	0	0	514	410	
8	0	0	0	0	513	409	
9	0	0	0	0	513	410	
10	0	0	0	0	513	413	
11	0	0	0	0	512	410	
12	0	0	0	0	512	410	
13	0	0	0	0	513	410	
14	0	0	0	0	513	406	
15	0	0	0	0	513	409	
0	0	0	0	0	513	409	
1	0	0	0	0	513	409	
2	0	0	0	0	513	413	
3	0	0	0	0	515	409	
4	0	0	0	0	515	410	
5	0	0	0	0	515	410	
6	0	0	0	0	516	406	
7	0	0	0	0	516	410	
8	0	0	0	0	516	410	
9	0	0	0	0	516	410	
10	0	0	0	0	516	412	
11	0	0	0	0	515	409	
12	0	0	0	0	515	410	
13	0	0	0	0	514	410	
14	0	0	0	0	514	406	
15	0	0	0	0	514	410	
0	0	0	0	0	513	411	
1	0	0	0	0	513	410	
2	0	0	0	0	512	413	
3	0	0	0	0	512	410	
4	0	0	0	0	511	410	
5	0	0	0	0	511	410	
6	0	0	0	0	509	406	
7	0	0	0	0	507	410	
8	0	0	0	0	504	410	
9	0	0	0	0	502	410	
10	0	0	0	0	499	413	
11	0	0	0	0	496	409	
12	0	0	0	0	492	409	
13	0	0	0	0	489	409	
14	0	0	0	0	487	406	
15	0	0	0	0	483	409	
0	0	0	0	0	479	409	
1	0	0	0	0	476	409	
2	0	0	0	0	473	413	
3	0	0	0	0	471	410	
4	0	0	0	0	470	410	
5	0	0	0	0	469	409	
6	0	0	0	0	469	406	
7	0	0	0	0	471	409	
8	0	0	0	0	475	409	
9	0	0	0	0	481	409	
10	0	0	0	0	491	413	
11	0	0	0	0	502	410	
12	0	0	0	0	515	410	
13	0	0	0	0	529	409	
14	0	0	0	0	544	406	
15	0	0	0	0	560	410	
0	0	0	0	0	575	410	
1	0	0	0	0	591	409	
2	0	0	0	0	604	413	
3	0	0	0	0	617	410	
4	0	0	0	0	629	409	
5	0	0	0	0	641	410	
6	0	0	0	0	653	407	
7	0	0	0	0	662	410	
8	0	0	0	0	667	409	
9	0	0	0	0	663	409	
10	0	0	0	0	656	412	
11	0	0	0	0	647	409	
12	0	0	0	0	639	409	
13	0	0	0	0	628	409	
14	0	0	0	0	620	406	
15	0	0	0	0	611	409	
0	0	0	0	0	605	409	
1	0	0	0	0	598	409	
2	0	0	0	0	587	412	
3	0	0	0	0	577	408	
4	0	0	0	0	567	409	
5	0	0	0	0	559	409	
6	0	0	0	0	551	405	
7	0	0	0	0	545	409	
8	0	0	0	0	539	409	
9	0	0	0	0	534	409	
10	0	0	0	0	530	412	
11	0	0	0	0	527	409	
12	0	0	0	0	526	410	
13	0	0	0	0	525	410	
14	0	0	0	0	525	406	
15	0	0	0	0	524	410	
0	0	0	0	0	523	409	
1	0	0	0	0	521	409	
2	0	0	0	0	519	412	
3	0	0	0	0	516	409	
4	0	0	0	0	514	409	
5	0	0	0	0	511	409	
6	0	0	0	0	508	407	
7	0	0	0	0	505	409	
8	0	0	0	0	503	409	
9	0	0	0	0	501	410	
10	0	0	0	0	500	412	
11	0	0	0	0	498	409	
12	0	0	0	0	497	409	
13	0	0	0	0	496	409	
14	0	0	0	0	494	406	
15	0	0	0	0	493	409	
0	0	0	0	0	492	409	
1	0	0	0	0	492	409	
2	0	0	0	0	491	413	
3	0	0	0	0	489	409	
4	0	0	0	0	489	410	
5	0	0	0	0	489	409	
6	0	0	0	0	488	405	
7	0	0	0	0	488	410	
8	0	0	0	0	487	410	
9	0	0	0	0	487	409	
10	0	0	0	0	487	412	
11	0	0	0	0	487	410	
12	0	0	0	0	485	409	
13	0	0	0	0	485	409	
14	0	0	0	0	484	406	
15	0	0	0	0	484	410	
0	0	0	0	0	483	409	
1	0	0	0	0	484	410	
2	0	0	0	0	484	413	
3	0	0	0	0	485	410	
4	0	0	0	0	486	410	
5	0	0	0	0	486	410	
6	0	0	0	0	486	407	
7	0	0	0	0	486	410	
8	0	0	0	0	487	409	
9	0	0	0	0	487	410	
10	0	0	0	0	488	413	
11	0	0	0	0	488	411	
12	0	0	0	0	489	410	
13	0	0	0	0	488	410	
14	0	0	0	0	489	407	
15	0	0	0	0	489	409	
0	0	0	0	0	490	410	
1	0	0	0	0	490	410	
2	0	0	0	0	490	413	
3	0	0	0	0	491	410	
4	0	0	0	0	490	409	
5	0	0	0	0	490	409	
6	0	0	0	0	490	406	
7	0	0	0	0	490	409	
8	0	0	0	0	491	409	
9	0	0	0	0	491	410	
10	0	0	0	0	491	413	
11	0	0	0	0	491	409	
12	0	0	0	0	491	410	
13	0	0	0	0	492	411	
14	0	0	0	0	492	406	
15	0	0	0	0	493	410	
0	0	0	0	0	493	410	
1	0	0	0	0	492	409	
2	0	0	0	0	492	413	
3	0	0	0	0	493	409	
4	0	0	0	0	493	410	
5	0	0	0	0	494	410	
6	0	0	0	0	493	407	
7	0	0	0	0	492	410	
8	0	0	0	0	492	409	
9	0	0	0	0	492	409	
10	0	0	0	0	492	412	
11	0	0	0	0	492	409	
12	0	0	0	0	492	410	
13	0	0	0	0	492	410	
14	0	0	0	0	492	407	
15	0	0	0	0	492	410	
0	0	0	0	0	493	410	
1	0	0	0	0	493	409	
2	0	0	0	0	494	413	
3	0	0	0	0	494	409	
4	0	0	0	0	494	409	
5	0	0	0	0	495	409	
6	0	0	0	0	495	405	
7	0	0	0	0	495	409	
8	0	0	0	0	495	409	
9	0	0	0	0	495	409	
10	0	0	0	0	495	412	
11	0	0	0	0	495	409	
12	0	0	0	0	494	409	
13	0	0	0	0	494	408	
14	0	0	0	0	494	405	
15	0	0	0	0	494	409	
0	0	0	0	0	494	409	
1	0	0	0	0	494	409	
2	0	0	0	0	494	413	
3	0	0	0	0	494	410	
4	0	0	0	0	495	409	
5	0	0	0	0	496	410	
6	0	0	0	0	497	406	
7	0	0	0	0	497	409	
8	0	0	0	0	497	409	
9	0	0	0	0	497	409	
10	0	0	0	0	498	412	
11	0	0	0	0	499	409	
12	0	0	0	0	499	410	
13	0	0	0	0	500	409	
14	0	0	0	0	500	406	
15	0	0	0	0	500	410	
0	0	0	0	0	500	409	
1	0	0	0	0	500	410	
2	0	0	0	0	500	413	
3	0	0	0	0	500	410	
4	0	0	0	0	500	410	
5	0	0	0	0	501	410	
6	0	0	0	0	502	406	
7	0	0	0	0	502	410	
8	0	0	0	0	503	410	
9	0	0	0	0	503	410	
10	0	0	0	0	503	413	
11	0	0	0	0	503	409	
12	0	0	0	0	504	411	
13	0	0	0	0	504	411	
14	0	0	0	0	504	406	
15	0	0	0	0	504	410	
0	0	0	0	0	504	410	
1	0	0	0	0	504	410	
2	0	0	0	0	504	413	
3	0	0	0	0	504	410	
4	0	0	0	0	504	410	
5	0	0	0	0	504	410	
6	0	0	0	0	505	407	
7	0	0	0	0	505	411	
8	0	0	0	0	506	410	
9	0	0	0	0	506	411	
10	0	0	0	0	507	413	
11	0	0	0	0	507	410	
12	0	0	0	0	507	410	
13	0	0	0	0	507	410	
14	0	0	0	0	508	406	
15	0	0	0	0	508	409	
0	0	0	0	0	508	409	
1	0	0	0	0	508	409	
2	0	0	0	0	509	413	
3	0	0	0	0	508	409	
4	0	0	0	0	508	410	
5	0	0	0	0	509	409	
6	0	0	0	0	508	406	
7	0	0	0	0	508	409	
8	0	0	0	0	509	409	
9	0	0	0	0	509	410	
10	0	0	0	0	510	412	
11	0	0	0	0	510	410	
12	0	0	0	0	510	410	
13	0	0	0	0	511	409	
14	0	0	0	0	511	406	
15	0	0	0	0	512	409	
0	0	0	0	0	513	410	
1	0	0	0	0	513	409	
2	0	0	0	0	514	412	
3	0	0	0	0	515	409	
4	0	0	0	0	515	409	
5	0	0	0	0	515	409	
6	0	0	0	0	516	406	
7	0	0	0	0	515	410	
8	0	0	0	0	515	409	
9	0	0	0	0	515	409	
10	0	0	0	0	514	412	
11	0	0	0	0	514	409	
12	0	0	0	0	514	409	
13	0	0	0	0	514	410	
14	0	0	0	0	514	406	
15	0	0	0	0	516	409	
0	0	0	0	0	517	409	
1	0	0	0	0	518	409	
2	0	0	0	0	519	412	
3	0	0	0	0	521	409	
4	0	0	0	0	522	409	
5	0	0	0	0	523	409	
6	0	0	0	0	524	406	
7	0	0	0	0	526	409	
8	0	0	0	0	526	409	
9	0	0	0	0	526	408	
10	0	0	0	0	526	412	
11	0	0	0	0	527	410	
12	0	0	0	0	527	409	
13	0	0	0	0	527	410	
14	0	0	0	0	527	406	
15	0	0	0	0	528	409	
0	0	0	0	0	527	410	
1	0	0	0	0	527	410	
2	0	0	0	0	527	413	
3	0	0	0	0	528	410	
4	0	0	0	0	528	409	
5	0	0	0	0	528	409	
6	0	0	0	0	529	406	
7	0	0	0	0	529	410	
8	0	0	0	0	529	409	
9	0	0	0	0	529	410	
10	0	0	0	0	529	412	
11	0	0	0	0	530	410	
12	0	0	0	0	530	409	
13	0	0	0	0	530	409	
14	0	0	0	0	530	407	
15	0	0	0	0	530	409	
0	0	0	0	0	530	410	
1	0	0	0	0	529	410	
2	0	0	0	0	529	413	
3	0	0	0	0	528	410	
4	0	0	0	0	527	409	
5	0	0	0	0	528	410	
6	0	0	0	0	528	406	
7	0	0	0	0	527	410	
8	0	0	0	0	527	409	
9	0	0	0	0	527	409	
10	0	0	0	0	527	412	
11	0	0	0	0	527	409	
12	0	0	0	0	526	409	
13	0	0	0	0	526	408	
14	0	0	0	0	526	406	
15	0	0	0	0	526	409	
0	0	0	0	0	525	409	
1	0	0	0	0	524	409	
2	0	0	0	0	523	412	
3	0	0	0	0	522	410	
4	0	0	0	0	520	410	
5	0	0	0	0	519	409	
6	0	0	0	0	517	406	
7	0	0	0	0	516	409	
8	0	0	0	0	515	409	
9	0	0	0	0	514	409	
10	0	0	0	0	512	412	
11	0	0	0	0	512	410	
12	0	0	0	0	511	409	
13	0	0	0	0	511	409	
14	0	0	0	0	510	406	
15	0	0	0	0	510	409	
0	0	0	0	0	510	409	
1	0	0	0	0	509	410	
2	0	0	0	0	508	412	
3	0	0	0	0	508	410	
4	0	0	0	0	508	409	
5	0	0	0	0	508	409	
6	0	0	0	0	507	406	
7	0	0	0	0	506	409	
8	0	0	0	0	505	409	
9	0	0	0	0	505	409	
10	0	0	0	0	504	412	
11	0	0	0	0	504	409	
12	0	0	0	0	503	410	
13	0	0	0	0	503	410	
14	0	0	0	0	502	406	
15	0	0	0	0	502	410	
0	0	0	0	0	501	409	
1	0	0	0	0	500	410	
2	0	0	0	0	500	412	
3	0	0	0	0	499	410	
4	0	0	0	0	499	409	
5	0	0	0	0	499	409	
6	0	0	0	0	498	406	
7	0	0	0	0	498	410	
8	0	0	0	0	497	410	
9	0	0	0	0	497	409	
10	0	0	0	0	497	413	
11	0	0	0	0	497	409	
12	0	0	0	0	497	409	
13	0	0	0	0	496	409	
14	0	0	0	0	496	406	
15	0	0	0	0	495	409	
0	0	0	0	0	495	409	
1	0	0	0	0	496	410	
2	0	0	0	0	496	413	
3	0	0	0	0	496	410	
4	0	0	0	0	496	409	
5	0	0	0	0	496	410	
6	0	0	0	0	496	406	
7	0	0	0	0	496	410	
8	0	0	0	0	496	410	
9	0	0	0	0	496	410	
10	0	0	0	0	496	413	
11	0	0	0	0	497	410	
12	0	0	0	0	497	409	
13	0	0	0	0	498	410	
14	0	0	0	0	498	407	
15	0	0	0	0	499	409	
0	0	0	0	0	499	409	
1	0	0	0	0	499	409	
2	0	0	0	0	498	413	
3	0	0	0	0	498	411	
4	0	0	0	0	499	410	
5	0	0	0	0	499	411	
6	0	0	0	0	499	407	
7	0	0	0	0	498	410	
8	0	0	0	0	498	410	
9	0	0	0	0	498	410	
10	0	0	0	0	498	413	
11	0	0	0	0	498	410	
12	0	0	0	0	498	410	
13	0	0	0	0	498	410	
14	0	0	0	0	499	407	
15	0	0	0	0	499	410	
0	0	0	0	0	500	410	
1	0	0	0	0	500	410	
2	0	0	0	0	501	413	
3	0	0	0	0	501	410	
4	0	0	0	0	500	410	
5	0	0	0	0	500	409	
6	0	0	0	0	501	406	
7	0	0	0	0	500	409	
8	0	0	0	0	501	409	
9	0	0	0	0	502	410	
10	0	0	0	0	502	412	
11	0	0	0	0	502	410	
12	0	0	0	0	502	409	
13	0	0	0	0	502	410	
14	0	0	0	0	501	407	
15	0	0	0	0	501	410	
0	0	0	0	0	501	410	
1	0	0	0	0	501	410	
2	0	0	0	0	501	412	
3	0	0	0	0	501	409	
4	0	0	0	0	501	409	
5	0	0	0	0	501	409	
6	0	0	0	0	501	406	
7	0	0	0	0	502	409	
8	0	0	0	0	502	409	
9	0	0	0	0	502	409	
10	0	0	0	0	501	412	
11	0	0	0	0	501	409	
12	0	0	0	0	501	409	
13	0	0	0	0	501	410	
14	0	0	0	0	500	406	
15	0	0	0	0	500	409	
0	0	0	0	0	501	409	
1	0	0	0	0	500	411	
2	0	0	0	0	501	413	
3	0	0	0	0	501	411	
4	0	0	0	0	501	409	
5	0	0	0	0	501	410	
6	0	0	0	0	501	406	
7	0	0	0	0	502	410	
8	0	0	0	0	502	410	
9	0	0	0	0	502	409	
10	0	0	0	0	503	412	
11	0	0	0	0	503	409	
12	0	0	0	0	503	410	
13	0	0	0	0	503	409	
14	0	0	0	0	503	406	
15	0	0	0	0	504	409	
0	0	0	0	0	504	409	
1	0	0	0	0	504	409	
2	0	0	0	0	504	412	
3	0	0	0	0	504	409	
4	0	0	0	0	505	410	
5	0	0	0	0	505	409	
6	0	0	0	0	504	406	
7	0	0	0	0	504	410	
8	0	0	0	0	504	411	
9	0	0	0	0	504	410	
10	0	0	0	0	505	413	
11	0	0	0	0	505	410	
12	0	0	0	0	506	411	
13	0	0	0	0	507	410	
14	0	0	0	0	507	407	
15	0	0	0	0	507	410	
0	0	0	0	0	507	409	
1	0	0	0	0	508	410	
2	0	0	0	0	508	412	
3	0	0	0	0	508	409	
4	0	0	0	0	508	410	
5	0	0	0	0	509	410	
6	0	0	0	0	509	408	
7	0	0	0	0	509	410	
8	0	0	0	0	509	411	
9	0	0	0	0	509	410	
10	0	0	0	0	508	413	
11	0	0	0	0	508	410	
12	0	0	0	0	508	411	
13	0	0	0	0	509	410	
14	0	0	0	0	509	406	
15	0	0	0	0	510	410	
0	0	0	0	0	510	410	
1	0	0	0	0	510	409	
2	0	0	0	0	509	413	
3	0	0	0	0	510	410	
4	0	0	0	0	511	410	
5	0	0	0	0	510	409	
6	0	0	0	0	510	406	
7	0	0	0	0	509	409	
8	0	0	0	0	509	409	
9	0	0	0	0	509	409	
10	0	0	0	0	509	412	
11	0	0	0	0	509	409	
12	0	0	0	0	509	409	
13	0	0	0	0	510	409	
14	0	0	0	0	510	407	
15	0	0	0	0	510	409	
0	0	0	0	0	510	409	
1	0	0	0	0	510	409	
2	0	0	0	0	510	412	
3	0	0	0	0	510	409	
4	0	0	0	0	509	409	
5	0	0	0	0	510	409	
6	0	0	0	0	510	406	
7	0	0	0	0	511	409	
8	0	0	0	0	511	409	
9	0	0	0	0	511	408	
10	0	0	0	0	511	412	
11	0	0	0	0	511	409	
12	0	0	0	0	510	409	
13	0	0	0	0	510	409	
14	0	0	0	0	510	406	
15	0	0	0	0	510	409	
0	0	0	0	0	510	409	
1	0	0	0	0	511	409	
2	0	0	0	0	511	412	
3	0	0	0	0	511	409	
4	0	0	0	0	511	409	
5	0	0	0	0	511	409	
6	0	0	0	0	511	406	
7	0	0	0	0	512	409	
8	0	0	0	0	511	409	
9	0	0	0	0	512	409	
10	0	0	0	0	512	413	
11	0	0	0	0	512	409	
12	0	0	0	0	512	409	
13	0	0	0	0	511	409	
14	0	0	0	0	512	406	
15	0	0	0	0	512	410	
0	0	0	0	0	512	409	
1	0	0	0	0	512	409	
2	0	0	0	0	512	412	
3	0	0	0	0	512	409	
4	0	0	0	0	512	409	
5	0	0	0	0	512	409	
6	0	0	0	0	512	407	
7	0	0	0	0	512	409	
8	0	0	0	0	513	409	
9	0	0	0	0	513	409	
10	0	0	0	0	513	412	
11	0	0	0	0	514	409	
12	0	0	0	0	515	409	
13	0	0	0	0	515	409	
14	0	0	0	0	515	406	
15	0	0	0	0	514	409	
0	0	0	0	0	514	409	
1	0	0	0	0	514	409	
2	0	0	0	0	514	412	
3	0	0	0	0	514	409	
4	0	0	0	0	513	409	
5	0	0	0	0	513	409	
6	0	0	0	0	513	406	
7	0	0	0	0	513	409	
8	0	0	0	0	512	409	
9	0	0	0	0	512	410	
10	0	0	0	0	512	412	
11	0	0	0	0	513	410	
12	0	0	0	0	513	410	
13	0	0	0	0	514	410	
14	0	0	0	0	513	406	
15	0	0	0	0	513	409	
0	0	0	0	0	513	409	
1	0	0	0	0	513	410	
2	0	0	0	0	513	413	
3	0	0	0	0	513	410	
4	0	0	0	0	513	410	
5	0	0	0	0	513	411	
6	0	0	0	0	513	407	
7	0	0	0	0	513	410	
8	0	0	0	0	512	410	
9	0	0	0	0	512	411	
10	0	0	0	0	511	413	
11	0	0	0	0	511	410	
12	0	0	0	0	511	410	
13	0	0	0	0	512	409	
14	0	0	0	0	511	406	
15	0	0	0	0	512	410	
0	0	0	0	0	512	410	
1	0	0	0	0	512	410	
2	0	0	0	0	512	412	
3	0	0	0	0	512	410	
4	0	0	0	0	512	409	
5	0	0	0	0	512	409	
6	0	0	0	0	512	407	
7	0	0	0	0	512	410	
8	0	0	0	0	511	410	
9	0	0	0	0	511	410	
10	0	0	0	0	511	413	
11	0	0	0	0	510	410	
12	0	0	0	0	510	410	
13	0	0	0	0	510	410	
14	0	0	0	0	509	407	
15	0	0	0	0	509	410	
0	0	0	0	0	509	410	
1	0	0	0	0	508	410	
2	0	0	0	0	509	413	
3	0	0	0	0	509	411	
4	0	0	0	0	509	410	
5	0	0	0	0	509	410	
6	0	0	0	0	509	407	
7	0	0	0	0	509	410	
8	0	0	0	0	508	410	
9	0	0	0	0	508	410	
10	0	0	0	0	508	413	
11	0	0	0	0	508	410	
12	0	0	0	0	508	411	
13	0	0	0	0	507	410	
14	0	0	0	0	507	407	
15	0	0	0	0	507	410	
0	0	0	0	0	507	410	
1	0	0	0	0	507	410	
2	0	0	0	0	507	413	
3	0	0	0	0	508	410	
4	0	0	0	0	508	410	
5	0	0	0	0	509	410	
6	0	0	0	0	510	406	
7	0	0	0	0	509	410	
8	0	0	0	0	509	410	
9	0	0	0	0	508	410	
10	0	0	0	0	509	413	
11	0	0	0	0	509	410	
12	0	0	0	0	509	410	
13	0	0	0	0	510	410	
14	0	0	0	0	510	406	
15	0	0	0	0	511	410	
0	0	0	0	0	511	410	
1	0	0	0	0	512	410	
2	0	0	0	0	511	412	
3	0	0	0	0	511	410	
4	0	0	0	0	511	410	
5	0	0	0	0	511	410	
6	0	0	0	0	511	407	
7	0	0	0	0	512	409	
8	0	0	0	0	512	409	
9	0	0	0	0	512	409	
10	0	0	0	0	513	413	
11	0	0	0	0	513	410	
12	0	0	0	0	513	410	
13	0	0	0	0	514	410	
14	0	0	0	0	515	407	
15	0	0	0	0	516	410	
0	0	0	0	0	516	410	
1	0	0	0	0	516	409	
2	0	0	0	0	515	412	
3	0	0	0	0	515	409	
4	0	0	0	0	515	410	
5	0	0	0	0	513	409	
6	0	0	0	0	513	406	
7	0	0	0	0	513	409	
8	0	0	0	0	513	409	
9	0	0	0	0	513	409	
10	0	0	0	0	514	412	
11	0	0	0	0	514	410	
12	0	0	0	0	514	410	
13	0	0	0	0	514	409	
14	0	0	0	0	515	406	
15	0	0	0	0	515	409	
0	0	0	0	0	516	409	
1	0	0	0	0	517	409	
2	0	0	0	0	518	413	
3	0	0	0	0	518	410	
4	0	0	0	0	519	409	
5	0	0	0	0	519	410	
6	0	0	0	0	520	407	
7	0	0	0	0	519	410	
8	0	0	0	0	519	409	
9	0	0	0	0	518	409	
10	0	0	0	0	518	412	
11	0	0	0	0	518	410	
12	0	0	0	0	517	409	
13	0	0	0	0	516	410	
14	0	0	0	0	516	406	
15	0	0	0	0	515	410	
0	0	0	0	0	514	410	
1	0	0	0	0	512	409	
2	0	0	0	0	512	412	
3	0	0	0	0	512	409	
4	0	0	0	0	512	409	
5	0	0	0	0	513	410	
6	0	0	0	0	513	407	
7	0	0	0	0	514	410	
8	0	0	0	0	514	410	
9	0	0	0	0	515	409	
10	0	0	0	0	515	413	
11	0	0	0	0	515	410	
12	0	0	0	0	515	410	
13	0	0	0	0	515	409	
14	0	0	0	0	515	406	
15	0	0	0	0	515	410	
0	0	0	0	0	515	409	
1	0	0	0	0	515	410	
2	0	0	0	0	515	413	
3	0	0	0	0	514	410	
4	0	0	0	0	514	410	
5	0	0	0	0	514	410	
6	0	0	0	0	515	407	
7	0	0	0	0	515	409	
8	0	0	0	0	515	409	
9	0	0	0	0	515	409	
10	0	0	0	0	515	413	
11	0	0	0	0	515	410	
12	0	0	0	0	515	409	
13	0	0	0	0	514	409	
14	0	0	0	0	514	406	
15	0	0	0	0	513	409	
0	0	0	0	0	514	409	
1	0	0	0	0	513	410	
2	0	0	0	0	513	413	
3	0	0	0	0	513	410	
4	0	0	0	0	513	410	
5	0	0	0	0	513	410	
6	0	0	0	0	513	407	
7	0	0	0	0	513	410	
8	0	0	0	0	513	409	
9	0	0	0	0	512	410	
10	0	0	0	0	513	412	
11	0	0	0	0	513	409	
12	0	0	0	0	512	409	
13	0	0	0	0	513	409	
14	0	0	0	0	513	406	
15	0	0	0	0	513	409	
0	0	0	0	0	514	409	
1	0	0	0	0	514	409	
2	0	0	0	0	515	412	
3	0	0	0	0	515	409	
4	0	0	0	0	515	409	
5	0	0	0	0	515	409	
6	0	0	0	0	515	406	
7	0	0	0	0	514	409	
8	0	0	0	0	514	409	
9	0	0	0	0	514	409	
10	0	0	0	0	514	413	
11	0	0	0	0	514	409	
12	0	0	0	0	514	410	
13	0	0	0	0	514	410	
14	0	0	0	0	515	406	
15	0	0	0	0	515	410	
0	0	0	0	0	515	409	
1	0	0	0	0	515	409	
2	0	0	0	0	515	412	
3	0	0	0	0	515	410	
4	0	0	0	0	515	409	
5	0	0	0	0	514	409	
6	0	0	0	0	514	406	
7	0	0	0	0	514	410	
8	0	0	0	0	513	410	
9	0	0	0	0	512	409	
10	0	0	0	0	511	412	
11	0	0	0	0	510	410	
12	0	0	0	0	508	409	
13	0	0	0	0	507	410	
14	0	0	0	0	504	406	
15	0	0	0	0	501	409	
0	0	0	0	0	497	409	
1	0	0	0	0	492	409	
2	0	0	0	0	489	413	
3	0	0	0	0	485	409	
4	0	0	0	0	481	409	
5	0	0	0	0	478	410	
6	0	0	0	0	473	406	
7	0	0	0	0	469	410	
8	0	0	0	0	466	409	
9	0	0	0	0	463	409	
10	0	0	0	0	460	413	
11	0	0	0	0	459	409	
12	0	0	0	0	459	409	
13	0	0	0	0	461	408	
14	0	0	0	0	464	406	
15	0	0	0	0	472	410	
0	0	0	0	0	481	409	
1	0	0	0	0	492	409	
2	0	0	0	0	506	412	
3	0	0	0	0	521	409	
4	0	0	0	0	538	410	
5	0	0	0	0	555	409	
6	0	0	0	0	572	407	
7	0	0	0	0	590	409	
8	0	0	0	0	606	409	
9	0	0	0	0	620	409	
10	0	0	0	0	634	412	
11	0	0	0	0	648	409	
12	0	0	0	0	662	409	
13	0	0	0	0	673	409	
14	0	0	0	0	681	407	
15	0	0	0	0	681	409	
0	0	0	0	0	677	410	
1	0	0	0	0	672	409	
2	0	0	0	0	665	412	
3	0	0	0	0	658	410	
4	0	0	0	0	649	409	
5	0	0	0	0	643	410	
6	0	0	0	0	636	407	
7	0	0	0	0	629	410	
8	0	0	0	0	619	410	
9	0	0	0	0	605	409	
10	0	0	0	0	592	412	
11	0	0	0	0	580	409	
12	0	0	0	0	569	410	
13	0	0	0	0	560	409	
14	0	0	0	0	552	406	
15	0	0	0	0	546	409	
0	0	0	0	0	541	409	
1	0	0	0	0	536	409	
2	0	0	0	0	532	412	
3	0	0	0	0	528	410	
4	0	0	0	0	525	409	
5	0	0	0	0	521	409	
6	0	0	0	0	516	406	
7	0	0	0	0	513	410	
8	0	0	0	0	509	410	
9	0	0	0	0	506	410	
10	0	0	0	0	503	413	
11	0	0	0	0	500	409	
12	0	0	0	0	497	409	
13	0	0	0	0	495	409	
14	0	0	0	0	493	406	
15	0	0	0	0	491	409	
0	0	0	0	0	489	409	
1	0	0	0	0	488	410	
2	0	0	0	0	486	413	
3	0	0	0	0	485	410	
4	0	0	0	0	485	409	
5	0	0	0	0	484	409	
6	0	0	0	0	484	406	
7	0	0	0	0	483	409	
8	0	0	0	0	483	409	
9	0	0	0	0	481	409	
10	0	0	0	0	481	413	
11	0	0	0	0	481	410	
12	0	0	0	0	480	409	
13	0	0	0	0	481	410	
14	0	0	0	0	480	407	
15	0	0	0	0	480	409	
0	0	0	0	0	480	410	
1	0	0	0	0	480	410	
2	0	0	0	0	480	412	
3	0	0	0	0	479	409	
4	0	0	0	0	480	409	
5	0	0	0	0	480	410	
6	0	0	0	0	480	406	
7	0	0	0	0	479	410	
8	0	0	0	0	480	409	
9	0	0	0	0	480	409	
10	0	0	0	0	481	412	
11	0	0	0	0	481	410	
12	0	0	0	0	481	410	
13	0	0	0	0	481	410	
14	0	0	0	0	481	406	
15	0	0	0	0	482	409	
0	0	0	0	0	482	409	
1	0	0	0	0	483	410	
2	0	0	0	0	483	413	
3	0	0	0	0	483	410	
4	0	0	0	0	483	410	
5	0	0	0	0	483	409	
6	0	0	0	0	483	407	
7	0	0	0	0	484	410	
8	0	0	0	0	484	410	
9	0	0	0	0	485	410	
10	0	0	0	0	486	413	
11	0	0	0	0	486	411	
12	0	0	0	0	486	410	
13	0	0	0	0	487	410	
14	0	0	0	0	487	407	
15	0	0	0	0	488	410	
0	0	0	0	0	488	410	
1	0	0	0	0	488	410	
2	0	0	0	0	488	413	
3	0	0	0	0	488	410	
4	0	0	0	0	488	410	
5	0	0	0	0	488	411	
6	0	0	0	0	488	407	
7	0	0	0	0	489	410	
8	0	0	0	0	489	411	
9	0	0	0	0	490	409	
10	0	0	0	0	490	413	
11	0	0	0	0	490	410	
12	0	0	0	0	490	411	
13	0	0	0	0	490	410	
14	0	0	0	0	491	407	
15	0	0	0	0	491	411	
0	0	0	0	0	490	410	
1	0	0	0	0	490	410	
2	0	0	0	0	490	413	
3	0	0	0	0	490	409	
4	0	0	0	0	491	410	
5	0	0	0	0	491	410	
6	0	0	0	0	491	406	
7	0	0	0	0	492	410	
8	0	0	0	0	492	409	
9	0	0	0	0	492	410	
10	0	0	0	0	492	412	
11	0	0	0	0	492	409	
12	0	0	0	0	491	409	
13	0	0	0	0	492	409	
14	0	0	0	0	492	406	
15	0	0	0	0	492	409	
0	0	0	0	0	492	409	
1	0	0	0	0	492	409	
2	0	0	0	0	492	412	
3	0	0	0	0	492	409	
4	0	0	0	0	492	410	
5	0	0	0	0	492	409	
6	0	0	0	0	493	406	
7	0	0	0	0	493	409	
8	0	0	0	0	493	410	
9	0	0	0	0	493	409	
10	0	0	0	0	493	412	
11	0	0	0	0	492	409	
12	0	0	0	0	492	410	
13	0	0	0	0	493	410	
14	0	0	0	0	492	407	
15	0	0	0	0	493	410	
0	0	0	0	0	493	410	
1	0	0	0	0	493	409	
2	0	0	0	0	493	412	
3	0	0	0	0	493	410	
4	0	0	0	0	494	409	
5	0	0	0	0	494	409	
6	0	0	0	0	494	406	
7	0	0	0	0	495	410	
8	0	0	0	0	496	409	
9	0	0	0	0	496	409	
10	0	0	0	0	496	413	
11	0	0	0	0	496	409	
12	0	0	0	0	496	410	
13	0	0	0	0	496	409	
14	0	0	0	0	497	407	
15	0	0	0	0	498	410	
0	0	0	0	0	498	409	
1	0	0	0	0	497	410	
2	0	0	0	0	497	412	
3	0	0	0	0	497	409	
4	0	0	0	0	498	409	
5	0	0	0	0	498	409	
6	0	0	0	0	499	406	
7	0	0	0	0	499	411	
8	0	0	0	0	500	410	
9	0	0	0	0	500	410	
10	0	0	0	0	500	413	
11	0	0	0	0	500	411	
12	0	0	0	0	500	410	
13	0	0	0	0	501	410	
14	0	0	0	0	501	407	
15	0	0	0	0	502	409	
0	0	0	0	0	502	410	
1	0	0	0	0	502	409	
2	0	0	0	0	502	413	
3	0	0	0	0	503	410	
4	0	0	0	0	502	410	
5	0	0	0	0	502	410	
6	0	0	0	0	502	406	
7	0	0	0	0	502	411	
8	0	0	0	0	502	410	
9	0	0	0	0	502	410	
10	0	0	0	0	503	413	
11	0	0	0	0	504	410	
12	0	0	0	0	504	410	
13	0	0	0	0	504	410	
14	0	0	0	0	505	406	
15	0	0	0	0	506	409	
0	0	0	0	0	507	410	
1	0	0	0	0	507	409	
2	0	0	0	0	507	412	
3	0	0	0	0	508	410	
4	0	0	0	0	508	409	
5	0	0	0	0	508	409	
6	0	0	0	0	508	406	
7	0	0	0	0	508	409	
8	0	0	0	0	508	409	
9	0	0	0	0	508	409	
10	0	0	0	0	508	412	
11	0	0	0	0	507	410	
12	0	0	0	0	507	409	
13	0	0	0	0	508	409	
14	0	0	0	0	508	407	
15	0	0	0	0	509	410	
0	0	0	0	0	509	409	
1	0	0	0	0	510	409	
2	0	0	0	0	510	412	
3	0	0	0	0	510	409	
4	0	0	0	0	511	410	
5	0	0	0	0	512	409	
6	0	0	0	0	512	406	
7	0	0	0	0	513	409	
8	0	0	0	0	513	409	
9	0	0	0	0	513	409	
10	0	0	0	0	514	412	
11	0	0	0	0	513	410	
12	0	0	0	0	514	409	
13	0	0	0	0	514	409	
14	0	0	0	0	514	406	
15	0	0	0	0	515	409	
0	0	0	0	0	515	409	
1	0	0	0	0	516	409	
2	0	0	0	0	515	412	
3	0	0	0	0	517	409	
4	0	0	0	0	519	410	
5	0	0	0	0	519	409	
6	0	0	0	0	520	406	
7	0	0	0	0	521	409	
8	0	0	0	0	522	409	
9	0	0	0	0	523	410	
10	0	0	0	0	523	412	
11	0	0	0	0	524	409	
12	0	0	0	0	524	410	
13	0	0	0	0	524	410	
14	0	0	0	0	525	406	
15	0	0	0	0	525	409	
0	0	0	0	0	524	409	
1	0	0	0	0	524	410	
2	0	0	0	0	524	412	
3	0	0	0	0	524	409	
4	0	0	0	0	525	409	
5	0	0	0	0	525	409	
6	0	0	0	0	525	406	
7	0	0	0	0	524	409	
8	0	0	0	0	524	410	
9	0	0	0	0	525	410	
10	0	0	0	0	525	412	
11	0	0	0	0	524	410	
12	0	0	0	0	525	409	
13	0	0	0	0	525	410	
14	0	0	0	0	524	406	
15	0	0	0	0	524	410	
0	0	0	0	0	524	410	
1	0	0	0	0	523	410	
2	0	0	0	0	522	412	
3	0	0	0	0	522	410	
4	0	0	0	0	520	410	
5	0	0	0	0	520	409	
6	0	0	0	0	519	406	
7	0	0	0	0	518	409	
8	0	0	0	0	518	409	
9	0	0	0	0	517	410	
10	0	0	0	0	516	413	
11	0	0	0	0	516	409	
12	0	0	0	0	515	410	
13	0	0	0	0	515	410	
14	0	0	0	0	515	406	
15	0	0	0	0	515	410	
0	0	0	0	0	515	409	
1	0	0	0	0	514	409	
2	0	0	0	0	514	412	
3	0	0	0	0	514	409	
4	0	0	0	0	513	410	
5	0	0	0	0	512	409	
6	0	0	0	0	511	406	
7	0	0	0	0	510	409	
8	0	0	0	0	509	409	
9	0	0	0	0	508	409	
10	0	0	0	0	506	412	
11	0	0	0	0	505	409	
12	0	0	0	0	504	409	
13	0	0	0	0	504	410	
14	0	0	0	0	504	406	
15	0	0	0	0	504	410	
0	0	0	0	0	504	409	
1	0	0	0	0	504	409	
2	0	0	0	0	504	412	
3	0	0	0	0	504	409	
4	0	0	0	0	504	409	
5	0	0	0	0	504	409	
6	0	0	0	0	504	406	
7	0	0	0	0	504	409	
8	0	0	0	0	505	409	
9	0	0	0	0	504	409	
10	0	0	0	0	504	412	
11	0	0	0	0	504	409	
12	0	0	0	0	504	409	
13	0	0	0	0	503	409	
14	0	0	0	0	502	406	
15	0	0	0	0	502	409	
0	0	0	0	0	502	409	
1	0	0	0	0	502	409	
2	0	0	0	0	502	412	
3	0	0	0	0	502	410	
4	0	0	0	0	502	410	
5	0	0	0	0	502	411	
6	0	0	0	0	502	406	
7	0	0	0	0	502	409	
8	0	0	0	0	502	409	
9	0	0	0	0	501	410	
10	0	0	0	0	501	413	
11	0	0	0	0	501	410	
12	0	0	0	0	501	410	
13	0	0	0	0	501	409	
14	0	0	0	0	501	406	
15	0	0	0	0	500	410	
0	0	0	0	0	499	409	
1	0	0	0	0	498	411	
2	0	0	0	0	498	413	
3	0	0	0	0	498	410	
4	0	0	0	0	498	410	
5	0	0	0	0	498	410	
6	0	0	0	0	498	407	
7	0	0	0	0	498	409	
8	0	0	0	0	498	409	
9	0	0	0	0	499	410	
10	0	0	0	0	499	412	
11	0	0	0	0	500	410	
12	0	0	0	0	499	410	
13	0	0	0	0	499	410	
14	0	0	0	0	499	407	
15	0	0	0	0	501	410	
0	0	0	0	0	500	409	
1	0	0	0	0	500	409	
2	0	0	0	0	499	413	
3	0	0	0	0	499	410	
4	0	0	0	0	499	410	
5	0	0	0	0	499	410	
6	0	0	0	0	499	406	
7	0	0	0	0	499	410	
8	0	0	0	0	499	410	
9	0	0	0	0	499	410	
10	0	0	0	0	498	413	
11	0	0	0	0	498	411	
12	0	0	0	0	498	410	
13	0	0	0	0	499	411	
14	0	0	0	0	500	407	
15	0	0	0	0	500	410	
0	0	0	0	0	500	411	
1	0	0	0	0	501	410	
2	0	0	0	0	502	413	
3	0	0	0	0	503	410	
4	0	0	0	0	503	410	
5	0	0	0	0	503	409	
6	0	0	0	0	503	407	
7	0	0	0	0	503	410	
8	0	0	0	0	502	410	
9	0	0	0	0	502	409	
10	0	0	0	0	502	412	
11	0	0	0	0	502	409	
12	0	0	0	0	502	409	
13	0	0	0	0	502	410	
14	0	0	0	0	503	407	
15	0	0	0	0	502	410	
0	0	0	0	0	502	410	
1	0	0	0	0	503	410	
2	0	0	0	0	503	412	
3	0	0	0	0	504	410	
4	0	0	0	0	503	409	
5	0	0	0	0	504	410	
6	0	0	0	0	503	407	
7	0	0	0	0	503	409	
8	0	0	0	0	503	410	
9	0	0	0	0	503	410	
10	0	0	0	0	503	413	
11	0	0	0	0	502	411	
12	0	0	0	0	501	410	
13	0	0	0	0	500	410	
14	0	0	0	0	500	407	
15	0	0	0	0	500	410	
0	0	0	0	0	501	410	
1	0	0	0	0	501	410	
2	0	0	0	0	501	413	
3	0	0	0	0	501	410	
4	0	0	0	0	501	410	
5	0	0	0	0	500	409	
6	0	0	0	0	502	406	
7	0	0	0	0	503	410	
8	0	0	0	0	503	410	
9	0	0	0	0	503	410	
10	0	0	0	0	503	413	
11	0	0	0	0	503	410	
12	0	0	0	0	503	410	
13	0	0	0	0	504	409	
14	0	0	0	0	504	406	
15	0	0	0	0	504	409	
0	0	0	0	0	504	410	
1	0	0	0	0	504	409	
2	0	0	0	0	504	412	
3	0	0	0	0	504	410	
4	0	0	0	0	504	411	
5	0	0	0	0	504	411	
6	0	0	0	0	504	407	
7	0	0	0	0	504	410	
8	0	0	0	0	504	410	
9	0	0	0	0	505	409	
10	0	0	0	0	505	413	
11	0	0	0	0	506	410	
12	0	0	0	0	506	410	
13	0	0	0	0	506	410	
14	0	0	0	0	506	407	
15	0	0	0	0	507	409	
0	0	0	0	0	507	410	
1	0	0	0	0	506	409	
2	0	0	0	0	506	412	
3	0	0	0	0	506	409	
4	0	0	0	0	505	409	
5	0	0	0	0	505	410	
6	0	0	0	0	504	407	
7	0	0	0	0	504	410	
8	0	0	0	0	505	410	
9	0	0	0	0	505	409	
10	0	0	0	0	506	413	
11	0	0	0	0	507	409	
12	0	0	0	0	508	410	
13	0	0	0	0	509	410	
14	0	0	0	0	510	406	
15	0	0	0	0	510	410	
0	0	0	0	0	511	410	
1	0	0	0	0	511	409	
2	0	0	0	0	511	413	
3	0	0	0	0	512	409	
4	0	0	0	0	512	409	
5	0	0	0	0	511	410	
6	0	0	0	0	511	406	
7	0	0	0	0	512	410	
8	0	0	0	0	512	409	
9	0	0	0	0	512	410	
10	0	0	0	0	512	413	
11	0	0	0	0	512	410	
12	0	0	0	0	512	409	
13	0	0	0	0	511	409	
14	0	0	0	0	511	406	
15	0	0	0	0	511	410	
0	0	0	0	0	512	410	
1	0	0	0	0	512	409	
2	0	0	0	0	512	412	
3	0	0	0	0	513	409	
4	0	0	0	0	513	409	
5	0	0	0	0	513	409	
6	0	0	0	0	513	405	
7	0	0	0	0	513	409	
8	0	0	0	0	513	409	
9	0	0	0	0	513	408	
10	0	0	0	0	513	412	
11	0	0	0	0	513	410	
12	0	0	0	0	513	409	
13	0	0	0	0	513	410	
14	0	0	0	0	512	406	
15	0	0	0	0	512	409	
0	0	0	0	0	512	409	
1	0	0	0	0	512	409	
2	0	0	0	0	512	412	
3	0	0	0	0	512	409	
4	0	0	0	0	512	409	
5	0	0	0	0	512	409	
6	0	0	0	0	512	406	
7	0	0	0	0	513	409	
8	0	0	0	0	513	409	
9	0	0	0	0	513	409	
10	0	0	0	0	513	412	
11	0	0	0	0	513	409	
12	0	0	0	0	513	409	
13	0	0	0	0	513	409	
14	0	0	0	0	513	406	
15	0	0	0	0	513	409	
0	0	0	0	0	513	409	
1	0	0	0	0	513	409	
2	0	0	0	0	512	412	
3	0	0	0	0	513	409	
4	0	0	0	0	514	409	
5	0	0	0	0	514	409	
6	0	0	0	0	514	407	
7	0	0	0	0	515	409	
8	0	0	0	0	515	409	
9	0	0	0	0	515	410	
10	0	0	0	0	515	413	
11	0	0	0	0	515	410	
12	0	0	0	0	515	409	
13	0	0	0	0	516	410	
14	0	0	0	0	516	406	
15	0	0	0	0	516	410	
0	0	0	0	0	516	409	
1	0	0	0	0	515	409	
2	0	0	0	0	515	412	
3	0	0	0	0	514	409	
4	0	0	0	0	514	409	
5	0	0	0	0	514	410	
6	0	0	0	0	515	406	
7	0	0	0	0	515	409	
8	0	0	0	0	515	409	
9	0	0	0	0	514	409	
10	0	0	0	0	514	412	
11	0	0	0	0	515	409	
12	0	0	0	0	515	409	
13	0	0	0	0	515	410	
14	0	0	0	0	515	407	
15	0	0	0	0	515	410	
0	0	0	0	0	515	410	
1	0	0	0	0	515	409	
2	0	0	0	0	515	413	
3	0	0	0	0	515	410	
4	0	0	0	0	515	410	
5	0	0	0	0	515	410	
6	0	0	0	0	514	406	
7	0	0	0	0	514	410	
8	0	0	0	0	513	409	
9	0	0	0	0	513	410	
10	0	0	0	0	514	412	
11	0	0	0	0	514	410	
12	0	0	0	0	514	410	
13	0	0	0	0	514	409	
14	0	0	0	0	515	406	
15	0	0	0	0	514	410	
0	0	0	0	0	514	410	
1	0	0	0	0	514	410	
2	0	0	0	0	514	413	
3	0	0	0	0	514	410	
4	0	0	0	0	514	410	
5	0	0	0	0	515	410	
6	0	0	0	0	515	406	
7	0	0	0	0	516	410	
8	0	0	0	0	516	410	
9	0	0	0	0	515	410	
10	0	0	0	0	515	413	
11	0	0	0	0	515	410	
12	0	0	0	0	515	410	
13	0	0	0	0	515	410	
14	0	0	0	0	515	407	
15	0	0	0	0	515	410	
0	0	0	0	0	515	410	
1	0	0	0	0	515	409	
2	0	0	0	0	514	413	
3	0	0	0	0	514	411	
4	0	0	0	0	513	411	
5	0	0	0	0	512	410	
6	0	0	0	0	512	407	
7	0	0	0	0	512	410	
8	0	0	0	0	512	410	
9	0	0	0	0	511	410	
10	0	0	0	0	511	414	
11	0	0	0	0	511	410	
12	0	0	0	0	511	411	
13	0	0	0	0	511	411	
14	0	0	0	0	512	407	
15	0	0	0	0	512	411	
0	0	0	0	0	511	410	
1	0	0	0	0	510	411	
2	0	0	0	0	510	413	
3	0	0	0	0	510	410	
4	0	0	0	0	509	410	
5	0	0	0	0	509	410	
6	0	0	0	0	509	407	
7	0	0	0	0	509	409	
8	0	0	0	0	510	411	
9	0	0	0	0	512	410	
10	0	0	0	0	512	413	
11	0	0	0	0	512	410	
12	0	0	0	0	512	410	
13	0	0	0	0	513	410	
14	0	0	0	0	513	406	
15	0	0	0	0	513	409	
0	0	0	0	0	513	409	
1	0	0	0	0	512	410	
2	0	0	0	0	512	413	
3	0	0	0	0	512	409	
4	0	0	0	0	512	409	
5	0	0	0	0	512	410	
6	0	0	0	0	512	406	
7	0	0	0	0	511	409	
8	0	0	0	0	512	409	
9	0	0	0	0	512	409	
10	0	0	0	0	512	412	
11	0	0	0	0	512	409	
12	0	0	0	0	513	409	
13	0	0	0	0	513	409	
14	0	0	0	0	513	406	
15	0	0	0	0	514	409	
0	0	0	0	0	514	409	
1	0	0	0	0	514	409	
2	0	0	0	0	515	412	
3	0	0	0	0	515	409	
4	0	0	0	0	515	410	
5	0	0	0	0	515	410	
6	0	0	0	0	515	406	
7	0	0	0	0	515	410	
8	0	0	0	0	516	409	
9	0	0	0	0	515	410	
10	0	0	0	0	514	412	
11	0	0	0	0	515	409	
12	0	0	0	0	515	409	
13	0	0	0	0	515	409	
14	0	0	0	0	515	406	
15	0	0	0	0	515	410	
0	0	0	0	0	516	409	
1	0	0	0	0	516	409	
2	0	0	0	0	516	412	
3	0	0	0	0	515	409	
4	0	0	0	0	515	410	
5	0	0	0	0	514	409	
6	0	0	0	0	514	406	
7	0	0	0	0	513	409	
8	0	0	0	0	512	410	
9	0	0	0	0	512	409	
10	0	0	0	0	512	414	
11	0	0	0	0	512	410	
12	0	0	0	0	512	410	
13	0	0	0	0	512	410	
14	0	0	0	0	512	406	
15	0	0	0	0	512	409	
0	0	0	0	0	512	410	
1	0	0	0	0	512	410	
2	0	0	0	0	512	413	
3	0	0	0	0	513	409	
4	0	0	0	0	514	409	
5	0	0	0	0	514	410	
6	0	0	0	0	515	406	
7	0	0	0	0	515	409	
8	0	0	0	0	515	409	
9	0	0	0	0	516	409	
10	0	0	0	0	515	412	
11	0	0	0	0	516	410	
12	0	0	0	0	515	410	
13	0	0	0	0	516	410	
14	0	0	0	0	515	407	
15	0	0	0	0	515	411	
0	0	0	0	0	515	410	
1	0	0	0	0	515	410	
2	0	0	0	0	515	413	
3	0	0	0	0	515	409	
4	0	0	0	0	515	409	
5	0	0	0	0	515	410	
6	0	0	0	0	514	406	
7	0	0	0	0	514	410	
8	0	0	0	0	515	409	
9	0	0	0	0	515	409	
10	0	0	0	0	515	412	
11	0	0	0	0	516	409	
12	0	0	0	0	516	409	
13	0	0	0	0	517	410	
14	0	0	0	0	517	407	
15	0	0	0	0	517	410	
0	0	0	0	0	517	410	
1	0	0	0	0	517	410	
2	0	0	0	0	517	413	
3	0	0	0	0	517	410	
4	0	0	0	0	515	409	
5	0	0	0	0	515	410	
6	0	0	0	0	514	407	
7	0	0	0	0	513	410	
8	0	0	0	0	512	409	
9	0	0	0	0	512	409	
10	0	0	0	0	512	412	
11	0	0	0	0	513	410	
12	0	0	0	0	513	409	
13	0	0	0	0	513	410	
14	0	0	0	0	513	407	
15	0	0	0	0	513	410	
0	0	0	0	0	514	410	
1	0	0	0	0	514	410	
2	0	0	0	0	514	413	
3	0	0	0	0	514	409	
4	0	0	0	0	513	410	
5	0	0	0	0	513	410	
6	0	0	0	0	514	406	
7	0	0	0	0	514	410	
8	0	0	0	0	513	410	
9	0	0	0	0	514	410	
10	0	0	0	0	514	412	
11	0	0	0	0	514	409	
12	0	0	0	0	514	410	
13	0	0	0	0	513	410	
14	0	0	0	0	512	406	
15	0	0	0	0	512	410	
0	0	0	0	0	511	410	
1	0	0	0	0	510	409	
2	0	0	0	0	510	413	
3	0	0	0	0	509	410	
4	0	0	0	0	507	410	
5	0	0	0	0	505	410	
6	0	0	0	0	502	407	
7	0	0	0	0	499	409	
8	0	0	0	0	495	410	
9	0	0	0	0	492	410	
10	0	0	0	0	488	413	
11	0	0	0	0	483	410	
12	0	0	0	0	481	410	
13	0	0	0	0	479	410	
14	0	0	0	0	476	406	
15	0	0	0	0	472	410	
0	0	0	0	0	468	409	
1	0	0	0	0	463	410	
2	0	0	0	0	460	413	
3	0	0	0	0	458	410	
4	0	0	0	0	457	409	
5	0	0	0	0	458	410	
6	0	0	0	0	461	407	
7	0	0	0	0	467	410	
8	0	0	0	0	475	410	
9	0	0	0	0	486	409	
10	0	0	0	0	499	412	
11	0	0	0	0	513	410	
12	0	0	0	0	529	410	
13	0	0	0	0	546	410	
14	0	0	0	0	563	407	
15	0	0	0	0	579	410	
0	0	0	0	0	595	410	
1	0	0	0	0	611	410	
2	0	0	0	0	624	412	
3	0	0	0	0	637	410	
4	0	0	0	0	652	410	
5	0	0	0	0	666	410	
6	0	0	0	0	678	406	
7	0	0	0	0	685	409	
8	0	0	0	0	684	410	
9	0	0	0	0	680	409	
10	0	0	0	0	675	412	
11	0	0	0	0	668	410	
12	0	0	0	0	660	409	
13	0	0	0	0	651	409	
14	0	0	0	0	644	406	
15	0	0	0	0	637	409	
0	0	0	0	0	628	410	
1	0	0	0	0	615	410	
2	0	0	0	0	601	413	
3	0	0	0	0	588	410	
4	0	0	0	0	576	410	
5	0	0	0	0	566	410	
6	0	0	0	0	557	406	
7	0	0	0	0	550	409	
8	0	0	0	0	543	410	
9	0	0	0	0	538	409	
10	0	0	0	0	533	412	
11	0	0	0	0	529	409	
12	0	0	0	0	524	409	
13	0	0	0	0	520	409	
14	0	0	0	0	516	406	
15	0	0	0	0	513	409	
0	0	0	0	0	509	410	
1	0	0	0	0	506	409	
2	0	0	0	0	504	412	
3	0	0	0	0	500	409	
4	0	0	0	0	497	409	
5	0	0	0	0	494	409	
6	0	0	0	0	491	406	
7	0	0	0	0	489	409	
8	0	0	0	0	486	409	
9	0	0	0	0	484	409	
10	0	0	0	0	483	412	
11	0	0	0	0	481	410	
12	0	0	0	0	480	409	
13	0	0	0	0	479	409	
14	0	0	0	0	478	406	
15	0	0	0	0	477	409	
0	0	0	0	0	477	409	
1	0	0	0	0	476	410	
2	0	0	0	0	476	412	
3	0	0	0	0	475	409	
4	0	0	0	0	475	409	
5	0	0	0	0	474	409	
6	0	0	0	0	474	406	
7	0	0	0	0	475	408	
8	0	0	0	0	476	409	
9	0	0	0	0	476	409	
10	0	0	0	0	476	412	
11	0	0	0	0	477	409	
12	0	0	0	0	477	410	
13	0	0	0	0	476	410	
14	0	0	0	0	476	406	
15	0	0	0	0	476	410	
0	0	0	0	0	477	410	
1	0	0	0	0	477	410	
2	0	0	0	0	477	413	
3	0	0	0	0	477	410	
4	0	0	0	0	477	409	
5	0	0	0	0	478	409	
6	0	0	0	0	478	406	
7	0	0	0	0	478	409	
8	0	0	0	0	479	409	
9	0	0	0	0	479	409	
10	0	0	0	0	480	413	
11	0	0	0	0	480	409	
12	0	0	0	0	480	410	
13	0	0	0	0	481	410	
14	0	0	0	0	481	406	
15	0	0	0	0	481	410	
0	0	0	0	0	483	410	
1	0	0	0	0	483	410	
2	0	0	0	0	483	413	
3	0	0	0	0	483	410	
4	0	0	0	0	483	410	
5	0	0	0	0	484	409	
6	0	0	0	0	484	407	
7	0	0	0	0	484	409	
8	0	0	0	0	484	409	
9	0	0	0	0	483	410	
10	0	0	0	0	484	412	
11	0	0	0	0	485	410	
12	0	0	0	0	484	410	
13	0	0	0	0	485	410	
14	0	0	0	0	485	406	
15	0	0	0	0	485	409	
0	0	0	0	0	486	410	
1	0	0	0	0	486	409	
2	0	0	0	0	486	413	
3	0	0	0	0	486	410	
4	0	0	0	0	487	409	
5	0	0	0	0	487	409	
6	0	0	0	0	487	406	
7	0	0	0	0	487	410	
8	0	0	0	0	487	409	
9	0	0	0	0	488	409	
10	0	0	0	0	489	412	
11	0	0	0	0	489	410	
12	0	0	0	0	489	410	
13	0	0	0	0	489	410	
14	0	0	0	0	490	407	
15	0	0	0	0	491	409	
0	0	0	0	0	491	410	
1	0	0	0	0	491	409	
2	0	0	0	0	491	412	
3	0	0	0	0	491	409	
4	0	0	0	0	491	409	
5	0	0	0	0	492	410	
6	0	0	0	0	493	406	
7	0	0	0	0	493	410	
8	0	0	0	0	493	410	
9	0	0	0	0	493	410	
10	0	0	0	0	493	412	
11	0	0	0	0	494	409	
12	0	0	0	0	495	409	
13	0	0	0	0	495	409	
14	0	0	0	0	495	406	
15	0	0	0	0	496	409	
0	0	0	0	0	496	409	
1	0	0	0	0	496	409	
2	0	0	0	0	496	412	
3	0	0	0	0	497	409	
4	0	0	0	0	497	409	
5	0	0	0	0	497	409	
6	0	0	0	0	498	406	
7	0	0	0	0	498	410	
8	0	0	0	0	499	410	
9	0	0	0	0	499	410	
10	0	0	0	0	499	413	
11	0	0	0	0	499	410	
12	0	0	0	0	499	410	
13	0	0	0	0	499	410	
14	0	0	0	0	499	407	
15	0	0	0	0	499	410	
0	0	0	0	0	499	409	
1	0	0	0	0	499	410	
2	0	0	0	0	498	412	
3	0	0	0	0	498	409	
4	0	0	0	0	498	409	
5	0	0	0	0	498	409	
6	0	0	0	0	497	406	
7	0	0	0	0	498	410	
8	0	0	0	0	497	410	
9	0	0	0	0	498	410	
10	0	0	0	0	498	413	
11	0	0	0	0	498	410	
12	0	0	0	0	498	410	
13	0	0	0	0	497	411	
14	0	0	0	0	497	406	
15	0	0	0	0	498	409	
0	0	0	0	0	497	410	
1	0	0	0	0	497	409	
2	0	0	0	0	497	412	
3	0	0	0	0	497	410	
4	0	0	0	0	497	410	
5	0	0	0	0	497	410	
6	0	0	0	0	498	407	
7	0	0	0	0	499	410	
8	0	0	0	0	499	410	
9	0	0	0	0	499	410	
10	0	0	0	0	500	413	
11	0	0	0	0	501	410	
12	0	0	0	0	501	409	
13	0	0	0	0	500	410	
14	0	0	0	0	500	407	
15	0	0	0	0	501	410	
0	0	0	0	0	501	410	
1	0	0	0	0	501	410	
2	0	0	0	0	502	413	
3	0	0	0	0	502	411	
4	0	0	0	0	502	410	
5	0	0	0	0	503	410	
6	0	0	0	0	503	407	
7	0	0	0	0	503	410	
8	0	0	0	0	503	410	
9	0	0	0	0	503	410	
10	0	0	0	0	503	413	
11	0	0	0	0	503	410	
12	0	0	0	0	503	410	
13	0	0	0	0	504	410	
14	0	0	0	0	504	407	
15	0	0	0	0	504	410	
0	0	0	0	0	505	410	
1	0	0	0	0	505	410	
2	0	0	0	0	506	412	
3	0	0	0	0	506	410	
4	0	0	0	0	507	409	
5	0	0	0	0	507	409	
6	0	0	0	0	507	406	
7	0	0	0	0	506	410	
8	0	0	0	0	507	410	
9	0	0	0	0	508	409	
10	0	0	0	0	508	412	
11	0	0	0	0	509	409	
12	0	0	0	0	510	409	
13	0	0	0	0	510	409	
14	0	0	0	0	510	406	
15	0	0	0	0	510	410	
0	0	0	0	0	511	409	
1	0	0	0	0	512	409	
2	0	0	0	0	512	412	
3	0	0	0	0	513	410	
4	0	0	0	0	514	409	
5	0	0	0	0	514	410	
6	0	0	0	0	515	406	
7	0	0	0	0	515	409	
8	0	0	0	0	515	410	
9	0	0	0	0	515	410	
10	0	0	0	0	516	412	
11	0	0	0	0	516	409	
12	0	0	0	0	517	409	
13	0	0	0	0	518	410	
14	0	0	0	0	518	407	
15	0	0	0	0	519	409	
0	0	0	0	0	520	410	
1	0	0	0	0	521	410	
2	0	0	0	0	521	413	
3	0	0	0	0	521	410	
4	0	0	0	0	522	410	
5	0	0	0	0	522	409	
6	0	0	0	0	523	406	
7	0	0	0	0	523	410	
8	0	0	0	0	523	409	
9	0	0	0	0	523	409	
10	0	0	0	0	523	412	
11	0	0	0	0	523	409	
12	0	0	0	0	523	410	
13	0	0	0	0	523	409	
14	0	0	0	0	523	406	
15	0	0	0	0	523	410	
0	0	0	0	0	523	409	
1	0	0	0	0	524	409	
2	0	0	0	0	524	412	
3	0	0	0	0	524	410	
4	0	0	0	0	523	409	
5	0	0	0	0	523	409	
6	0	0	0	0	523	406	
7	0	0	0	0	523	409	
8	0	0	0	0	523	409	
9	0	0	0	0	523	409	
10	0	0	0	0	523	412	
11	0	0	0	0	523	409	
12	0	0	0	0	523	410	
13	0	0	0	0	523	409	
14	0	0	0	0	523	406	
15	0	0	0	0	522	409	
0	0	0	0	0	521	409	
1	0	0	0	0	522	409	
2	0	0	0	0	521	412	
3	0	0	0	0	520	409	
4	0	0	0	0	519	409	
5	0	0	0	0	518	409	
6	0	0	0	0	517	406	
7	0	0	0	0	516	408	
8	0	0	0	0	516	409	
9	0	0	0	0	514	409	
10	0	0	0	0	513	413	
11	0	0	0	0	512	410	
12	0	0	0	0	511	409	
13	0	0	0	0	510	409	
14	0	0	0	0	510	406	
15	0	0	0	0	509	410	
0	0	0	0	0	508	409	
1	0	0	0	0	507	409	
2	0	0	0	0	507	413	
3	0	0	0	0	507	410	
4	0	0	0	0	506	410	
5	0	0	0	0	505	409	
6	0	0	0	0	505	406	
7	0	0	0	0	504	410	
8	0	0	0	0	504	409	
9	0	0	0	0	503	409	
10	0	0	0	0	502	412	
11	0	0	0	0	501	409	
12	0	0	0	0	501	409	
13	0	0	0	0	500	409	
14	0	0	0	0	500	406	
15	0	0	0	0	500	410	
0	0	0	0	0	501	409	
1	0	0	0	0	501	409	
2	0	0	0	0	501	413	
3	0	0	0	0	501	411	
4	0	0	0	0	501	410	
5	0	0	0	0	500	411	
6	0	0	0	0	499	407	
7	0	0	0	0	499	409	
8	0	0	0	0	499	409	
9	0	0	0	0	499	409	
10	0	0	0	0	499	412	
11	0	0	0	0	499	409	
12	0	0	0	0	499	410	
13	0	0	0	0	499	410	
14	0	0	0	0	499	407	
15	0	0	0	0	498	410	
0	0	0	0	0	497	410	
1	0	0	0	0	496	409	
2	0	0	0	0	496	413	
3	0	0	0	0	496	409	
4	0	0	0	0	496	410	
5	0	0	0	0	497	409	
6	0	0	0	0	497	406	
7	0	0	0	0	497	409	
8	0	0	0	0	498	409	
9	0	0	0	0	498	410	
10	0	0	0	0	499	413	
11	0	0	0	0	499	410	
12	0	0	0	0	499	409	
13	0	0	0	0	499	410	
14	0	0	0	0	500	407	
15	0	0	0	0	500	410	
0	0	0	0	0	500	409	
1	0	0	0	0	499	410	
2	0	0	0	0	499	413	
3	0	0	0	0	499	410	
4	0	0	0	0	499	410	
5	0	0	0	0	500	410	
6	0	0	0	0	500	406	
7	0	0	0	0	499	410	
8	0	0	0	0	499	411	
9	0	0	0	0	500	410	
10	0	0	0	0	501	413	
11	0	0	0	0	502	410	
12	0	0	0	0	502	410	
13	0	0	0	0	501	411	
14	0	0	0	0	501	407	
15	0	0	0	0	501	410	
0	0	0	0	0	502	410	
1	0	0	0	0	501	410	
2	0	0	0	0	501	413	
3	0	0	0	0	501	410	
4	0	0	0	0	501	410	
5	0	0	0	0	501	410	
6	0	0	0	0	501	407	
7	0	0	0	0	500	410	
8	0	0	0	0	500	410	
9	0	0	0	0	500	410	
10	0	0	0	0	500	413	
11	0	0	0	0	499	410	
12	0	0	0	0	500	410	
13	0	0	0	0	500	409	
14	0	0	0	0	500	406	
15	0	0	0	0	501	410	
0	0	0	0	0	501	410	
1	0	0	0	0	502	410	
2	0	0	0	0	502	413	
3	0	0	0	0	503	410	
4	0	0	0	0	503	410	
5	0	0	0	0	503	409	
6	0	0	0	0	503	406	
7	0	0	0	0	502	409	
8	0	0	0	0	502	409	
9	0	0	0	0	502	409	
10	0	0	0	0	502	411	
11	0	0	0	0	502	409	
12	0	0	0	0	502	410	
13	0	0	0	0	503	408	
14	0	0	0	0	503	406	
15	0	0	0	0	503	410	
0	0	0	0	0	503	411	
1	0	0	0	0	502	410	
2	0	0	0	0	502	413	
3	0	0	0	0	503	410	
4	0	0	0	0	504	411	
5	0	0	0	0	504	411	
6	0	0	0	0	504	407	
7	0	0	0	0	504	410	
8	0	0	0	0	503	411	
9	0	0	0	0	503	409	
10	0	0	0	0	503	412	
11	0	0	0	0	504	409	
12	0	0	0	0	503	410	
13	0	0	0	0	504	409	
14	0	0	0	0	504	407	
15	0	0	0	0	504	410	
0	0	0	0	0	504	410	
1	0	0	0	0	504	409	
2	0	0	0	0	504	412	
3	0	0	0	0	504	410	
4	0	0	0	0	505	409	
5	0	0	0	0	505	409	
6	0	0	0	0	505	406	
7	0	0	0	0	505	409	
8	0	0	0	0	505	410	
9	0	0	0	0	506	409	
10	0	0	0	0	506	413	
11	0	0	0	0	506	410	
12	0	0	0	0	506	410	
13	0	0	0	0	506	410	
14	0	0	0	0	506	407	
15	0	0	0	0	507	410	
0	0	0	0	0	507	409	
1	0	0	0	0	507	409	
2	0	0	0	0	506	412	
3	0	0	0	0	505	410	
4	0	0	0	0	505	410	
5	0	0	0	0	505	409	
6	0	0	0	0	506	407	
7	0	0	0	0	506	410	
8	0	0	0	0	507	409	
9	0	0	0	0	507	410	
10	0	0	0	0	508	412	
11	0	0	0	0	508	410	
12	0	0	0	0	508	410	
13	0	0	0	0	509	410	
14	0	0	0	0	509	406	
15	0	0	0	0	510	409	
0	0	0	0	0	510	409	
1	0	0	0	0	509	410	
2	0	0	0	0	509	413	
3	0	0	0	0	509	410	
4	0	0	0	0	510	409	
5	0	0	0	0	510	409	
6	0	0	0	0	510	406	
7	0	0	0	0	510	410	
8	0	0	0	0	509	410	
9	0	0	0	0	509	409	
10	0	0	0	0	510	413	
11	0	0	0	0	510	410	
12	0	0	0	0	509	409	
13	0	0	0	0	510	409	
14	0	0	0	0	510	406	
15	0	0	0	0	511	409	
0	0	0	0	0	511	409	
1	0	0	0	0	511	409	
2	0	0	0	0	510	412	
3	0	0	0	0	510	409	
4	0	0	0	0	510	409	
5	0	0	0	0	510	409	
6	0	0	0	0	510	406	
7	0	0	0	0	510	409	
8	0	0	0	0	510	409	
9	0	0	0	0	509	409	
10	0	0	0	0	509	412	
11	0	0	0	0	509	410	
12	0	0	0	0	510	409	
13	0	0	0	0	510	409	
14	0	0	0	0	510	406	
15	0	0	0	0	510	409	
0	0	0	0	0	510	409	
1	0	0	0	0	509	409	
2	0	0	0	0	510	412	
3	0	0	0	0	510	410	
4	0	0	0	0	511	410	
5	0	0	0	0	512	410	
6	0	0	0	0	512	406	
7	0	0	0	0	512	410	
8	0	0	0	0	512	410	
9	0	0	0	0	513	409	
10	0	0	0	0	512	412	
11	0	0	0	0	512	409	
12	0	0	0	0	513	410	
13	0	0	0	0	513	410	
14	0	0	0	0	513	406	
15	0	0	0	0	513	410	
0	0	0	0	0	513	410	
1	0	0	0	0	513	409	
2	0	0	0	0	513	413	
3	0	0	0	0	513	410	
4	0	0	0	0	514	409	
5	0	0	0	0	513	410	
6	0	0	0	0	513	406	
7	0	0	0	0	513	409	
8	0	0	0	0	514	410	
9	0	0	0	0	514	409	
10	0	0	0	0	514	412	
11	0	0	0	0	514	409	
12	0	0	0	0	514	409	
13	0	0	0	0	514	409	
14	0	0	0	0	513	406	
15	0	0	0	0	514	409	
0	0	0	0	0	513	409	
1	0	0	0	0	513	409	
2	0	0	0	0	513	412	
3	0	0	0	0	513	409	
4	0	0	0	0	512	409	
5	0	0	0	0	512	409	
6	0	0	0	0	513	406	
7	0	0	0	0	513	409	
8	0	0	0	0	513	409	
9	0	0	0	0	513	409	
10	0	0	0	0	513	412	
11	0	0	0	0	514	409	
12	0	0	0	0	514	409	
13	0	0	0	0	514	409	
14	0	0	0	0	513	406	
15	0	0	0	0	513	409	
0	0	0	0	0	513	409	
1	0	0	0	0	512	409	
2	0	0	0	0	513	412	
3	0	0	0	0	512	409	
4	0	0	0	0	512	410	
5	0	0	0	0	511	410	
6	0	0	0	0	511	406	
7	0	0	0	0	511	409	
8	0	0	0	0	511	410	
9	0	0	0	0	511	410	
10	0	0	0	0	511	413	
11	0	0	0	0	510	409	
12	0	0	0	0	511	411	
13	0	0	0	0	511	409	
14	0	0	0	0	511	407	
15	0	0	0	0	512	410	
0	0	0	0	0	512	410	
1	0	0	0	0	513	409	
2	0	0	0	0	513	413	
3	0	0	0	0	514	410	
4	0	0	0	0	514	409	
5	0	0	0	0	514	410	
6	0	0	0	0	515	407	
7	0	0	0	0	513	410	
8	0	0	0	0	513	410	
9	0	0	0	0	513	411	
10	0	0	0	0	513	413	
11	0	0	0	0	513	410	
12	0	0	0	0	513	409	
13	0	0	0	0	513	410	
14	0	0	0	0	513	406	
15	0	0	0	0	514	410	
0	0	0	0	0	513	409	
1	0	0	0	0	513	410	
2	0	0	0	0	515	413	
3	0	0	0	0	515	410	
4	0	0	0	0	515	411	
5	0	0	0	0	515	409	
6	0	0	0	0	515	407	
7	0	0	0	0	515	410	
8	0	0	0	0	515	411	
9	0	0	0	0	515	410	
10	0	0	0	0	515	413	
11	0	0	0	0	515	411	
12	0	0	0	0	515	410	
13	0	0	0	0	513	411	
14	0	0	0	0	514	407	
15	0	0	0	0	513	410	
0	0	0	0	0	513	410	
1	0	0	0	0	513	410	
2	0	0	0	0	512	413	
3	0	0	0	0	512	410	
4	0	0	0	0	512	410	
5	0	0	0	0	512	410	
6	0	0	0	0	512	406	
7	0	0	0	0	512	409	
8	0	0	0	0	512	410	
9	0	0	0	0	512	410	
10	0	0	0	0	512	413	
11	0	0	0	0	511	411	
12	0	0	0	0	511	410	
13	0	0	0	0	511	411	
14	0	0	0	0	511	407	
15	0	0	0	0	510	410	
0	0	0	0	0	510	410	
1	0	0	0	0	509	410	
2	0	0	0	0	509	413	
3	0	0	0	0	508	410	
4	0	0	0	0	508	410	
5	0	0	0	0	508	409	
6	0	0	0	0	507	407	
7	0	0	0	0	508	410	
8	0	0	0	0	508	411	
9	0	0	0	0	508	411	
10	0	0	0	0	508	413	
11	0	0	0	0	509	410	
12	0	0	0	0	509	409	
13	0	0	0	0	509	409	
14	0	0	0	0	509	406	
15	0	0	0	0	509	409	
0	0	0	0	0	508	410	
1	0	0	0	0	508	410	
2	0	0	0	0	508	413	
3	0	0	0	0	507	409	
4	0	0	0	0	507	410	
5	0	0	0	0	507	410	
6	0	0	0	0	507	406	
7	0	0	0	0	506	410	
8	0	0	0	0	507	409	
9	0	0	0	0	506	409	
10	0	0	0	0	507	413	
11	0	0	0	0	506	409	
12	0	0	0	0	507	410	
13	0	0	0	0	507	409	
14	0	0	0	0	508	406	
15	0	0	0	0	508	410	
0	0	0	0	0	508	409	
1	0	0	0	0	508	409	
2	0	0	0	0	508	412	
3	0	0	0	0	508	409	
4	0	0	0	0	509	409	
5	0	0	0	0	509	410	
6	0	0	0	0	509	406	
7	0	0	0	0	509	409	
8	0	0	0	0	508	410	
9	0	0	0	0	509	409	
10	0	0	0	0	509	412	
11	0	0	0	0	508	409	
12	0	0	0	0	508	409	
13	0	0	0	0	509	409	
14	0	0	0	0	510	406	
15	0	0	0	0	510	410	
0	0	0	0	0	511	411	
1	0	0	0	0	511	410	
2	0	0	0	0	512	413	
3	0	0	0	0	513	410	
4	0	0	0	0	514	410	
5	0	0	0	0	515	409	
6	0	0	0	0	515	406	
7	0	0	0	0	516	409	
8	0	0	0	0	516	410	
9	0	0	0	0	517	409	
10	0	0	0	0	517	413	
11	0	0	0	0	517	410	
12	0	0	0	0	517	409	
13	0	0	0	0	517	409	
14	0	0	0	0	516	407	
15	0	0	0	0	516	409	
0	0	0	0	0	515	410	
1	0	0	0	0	515	410	
2	0	0	0	0	515	412	
3	0	0	0	0	514	409	
4	0	0	0	0	514	410	
5	0	0	0	0	514	410	
6	0	0	0	0	513	407	
7	0	0	0	0	513	409	
8	0	0	0	0	513	410	
9	0	0	0	0	513	410	
10	0	0	0	0	513	412	
11	0	0	0	0	514	409	
12	0	0	0	0	515	409	
13	0	0	0	0	516	409	
14	0	0	0	0	516	406	
15	0	0	0	0	517	410	
0	0	0	0	0	517	410	
1	0	0	0	0	516	410	
2	0	0	0	0	516	412	
3	0	0	0	0	515	410	
4	0	0	0	0	515	410	
5	0	0	0	0	515	410	
6	0	0	0	0	514	407	
7	0	0	0	0	515	410	
8	0	0	0	0	515	410	
9	0	0	0	0	515	410	
10	0	0	0	0	514	412	
11	0	0	0	0	514	409	
12	0	0	0	0	514	410	
13	0	0	0	0	514	409	
14	0	0	0	0	514	406	
15	0	0	0	0	513	409	
0	0	0	0	0	512	410	
1	0	0	0	0	512	410	
2	0	0	0	0	512	412	
3	0	0	0	0	512	409	
4	0	0	0	0	512	409	
5	0	0	0	0	511	410	
6	0	0	0	0	510	406	
7	0	0	0	0	510	409	
8	0	0	0	0	510	410	
9	0	0	0	0	510	410	
10	0	0	0	0	510	413	
11	0	0	0	0	510	409	
12	0	0	0	0	510	410	
13	0	0	0	0	510	410	
14	0	0	0	0	510	407	
15	0	0	0	0	510	410	
0	0	0	0	0	511	410	
1	0	0	0	0	511	409	
2	0	0	0	0	511	413	
3	0	0	0	0	511	411	
4	0	0	0	0	512	410	
5	0	0	0	0	512	410	
6	0	0	0	0	512	407	
7	0	0	0	0	512	411	
8	0	0	0	0	512	410	
9	0	0	0	0	513	410	
10	0	0	0	0	513	414	
11	0	0	0	0	513	411	
12	0	0	0	0	514	410	
13	0	0	0	0	513	411	
14	0	0	0	0	513	407	
15	0	0	0	0	513	410	
0	0	0	0	0	513	411	
1	0	0	0	0	512	410	
2	0	0	0	0	513	413	
3	0	0	0	0	513	410	
4	0	0	0	0	513	410	
5	0	0	0	0	514	410	
6	0	0	0	0	515	407	
7	0	0	0	0	515	410	
8	0	0	0	0	515	411	
9	0	0	0	0	515	411	
10	0	0	0	0	515	413	
11	0	0	0	0	514	411	
12	0	0	0	0	513	411	
13	0	0	0	0	512	410	
14	0	0	0	0	511	407	
15	0	0	0	0	510	410	
0	0	0	0	0	508	410	
1	0	0	0	0	507	410	
2	0	0	0	0	505	413	
3	0	0	0	0	503	410	
4	0	0	0	0	500	409	
5	0	0	0	0	496	410	
6	0	0	0	0	492	406	
7	0	0	0	0	489	409	
8	0	0	0	0	486	409	
9	0	0	0	0	483	409	
10	0	0	0	0	480	412	
11	0	0	0	0	478	409	
12	0	0	0	0	474	410	
13	0	0	0	0	471	410	
14	0	0	0	0	467	406	
15	0	0	0	0	465	409	
0	0	0	0	0	465	409	
1	0	0	0	0	465	409	
2	0	0	0	0	468	412	
3	0	0	0	0	472	409	
4	0	0	0	0	480	409	
5	0	0	0	0	489	409	
6	0	0	0	0	500	407	
7	0	0	0	0	515	410	
8	0	0	0	0	530	410	
9	0	0	0	0	545	410	
10	0	0	0	0	562	413	
11	0	0	0	0	580	410	
12	0	0	0	0	596	410	
13	0	0	0	0	611	410	
14	0	0	0	0	626	407	
15	0	0	0	0	639	410	
0	0	0	0	0	653	409	
1	0	0	0	0	668	409	
2	0	0	0	0	679	412	
3	0	0	0	0	685	409	
4	0	0	0	0	684	409	
5	0	0	0	0	679	409	
6	0	0	0	0	671	406	
7	0	0	0	0	663	409	
8	0	0	0	0	655	409	
9	0	0	0	0	645	410	
10	0	0	0	0	637	413	
11	0	0	0	0	630	409	
12	0	0	0	0	621	409	
13	0	0	0	0	610	409	
14	0	0	0	0	596	406	
15	0	0	0	0	584	410	
0	0	0	0	0	573	409	
1	0	0	0	0	563	409	
2	0	0	0	0	556	412	
3	0	0	0	0	549	409	
4	0	0	0	0	543	409	
5	0	0	0	0	537	409	
6	0	0	0	0	533	406	
7	0	0	0	0	530	409	
8	0	0	0	0	527	409	
9	0	0	0	0	524	409	
10	0	0	0	0	521	412	
11	0	0	0	0	518	409	
12	0	0	0	0	515	410	
13	0	0	0	0	512	409	
14	0	0	0	0	509	406	
15	0	0	0	0	506	409	
0	0	0	0	0	504	409	
1	0	0	0	0	500	409	
2	0	0	0	0	498	412	
3	0	0	0	0	495	409	
4	0	0	0	0	493	409	
5	0	0	0	0	491	409	
6	0	0	0	0	489	406	
7	0	0	0	0	487	409	
8	0	0	0	0	486	410	
9	0	0	0	0	485	408	
10	0	0	0	0	484	412	
11	0	0	0	0	483	409	
12	0	0	0	0	482	409	
13	0	0	0	0	481	409	
14	0	0	0	0	481	406	
15	0	0	0	0	480	409	
0	0	0	0	0	481	409	
1	0	0	0	0	481	409	
2	0	0	0	0	482	413	
3	0	0	0	0	482	410	
4	0	0	0	0	482	409	
5	0	0	0	0	483	409	
6	0	0	0	0	484	406	
7	0	0	0	0	485	410	
8	0	0	0	0	485	410	
9	0	0	0	0	486	410	
10	0	0	0	0	486	413	
11	0	0	0	0	487	409	
12	0	0	0	0	487	410	
13	0	0	0	0	487	410	
14	0	0	0	0	487	406	
15	0	0	0	0	487	410	
0	0	0	0	0	487	409	
1	0	0	0	0	487	410	
2	0	0	0	0	487	413	
3	0	0	0	0	485	410	
4	0	0	0	0	484	410	
5	0	0	0	0	484	409	
6	0	0	0	0	483	407	
7	0	0	0	0	483	410	
8	0	0	0	0	483	410	
9	0	0	0	0	483	409	
10	0	0	0	0	484	413	
11	0	0	0	0	485	410	
12	0	0	0	0	486	410	
13	0	0	0	0	487	410	
14	0	0	0	0	488	407	
15	0	0	0	0	487	410	
0	0	0	0	0	488	410	
1	0	0	0	0	488	410	
2	0	0	0	0	488	413	
3	0	0	0	0	489	410	
4	0	0	0	0	489	410	
5	0	0	0	0	489	410	
6	0	0	0	0	489	407	
7	0	0	0	0	490	410	
8	0	0	0	0	491	411	
9	0	0	0	0	492	410	
10	0	0	0	0	492	413	
11	0	0	0	0	493	410	
12	0	0	0	0	493	409	
13	0	0	0	0	493	410	
14	0	0	0	0	494	407	
15	0	0	0	0	494	410	
0	0	0	0	0	494	410	
1	0	0	0	0	494	410	
2	0	0	0	0	494	413	
3	0	0	0	0	494	410	
4	0	0	0	0	494	410	
5	0	0	0	0	493	409	
6	0	0	0	0	492	407	
7	0	0	0	0	492	410	
8	0	0	0	0	492	410	
9	0	0	0	0	492	410	
10	0	0	0	0	492	413	
11	0	0	0	0	492	410	
12	0	0	0	0	492	410	
13	0	0	0	0	493	409	
14	0	0	0	0	493	406	
15	0	0	0	0	494	409	
0	0	0	0	0	494	409	
1	0	0	0	0	494	409	
2	0	0	0	0	495	413	
3	0	0	0	0	496	409	
4	0	0	0	0	496	409	
5	0	0	0	0	496	409	
6	0	0	0	0	497	406	
7	0	0	0	0	497	409	
8	0	0	0	0	497	409	
9	0	0	0	0	497	409	
10	0	0	0	0	497	412	
11	0	0	0	0	497	410	
12	0	0	0	0	497	410	
13	0	0	0	0	497	410	
14	0	0	0	0	497	406	
15	0	0	0	0	497	409	
0	0	0	0	0	497	409	
1	0	0	0	0	497	409	
2	0	0	0	0	497	412	
3	0	0	0	0	498	410	
4	0	0	0	0	498	409	
5	0	0	0	0	498	410	
6	0	0	0	0	497	406	
7	0	0	0	0	497	410	
8	0	0	0	0	497	410	
9	0	0	0	0	496	410	
10	0	0	0	0	496	412	
11	0	0	0	0	497	410	
12	0	0	0	0	497	410	
13	0	0	0	0	498	410	
14	0	0	0	0	498	407	
15	0	0	0	0	499	410	
0	0	0	0	0	499	410	
1	0	0	0	0	499	410	
2	0	0	0	0	499	413	
3	0	0	0	0	499	410	
4	0	0	0	0	499	411	
5	0	0	0	0	500	411	
6	0	0	0	0	500	407	
7	0	0	0	0	500	410	
8	0	0	0	0	499	410	
9	0	0	0	0	499	410	
10	0	0	0	0	499	413	
11	0	0	0	0	499	410	
12	0	0	0	0	499	410	
13	0	0	0	0	498	409	
14	0	0	0	0	497	406	
15	0	0	0	0	497	409	
0	0	0	0	0	498	410	
1	0	0	0	0	498	409	
2	0	0	0	0	498	412	
3	0	0	0	0	498	410	
4	0	0	0	0	497	410	
5	0	0	0	0	496	410	
6	0	0	0	0	496	407	
7	0	0	0	0	497	409	
8	0	0	0	0	498	409	
9	0	0	0	0	498	410	
10	0	0	0	0	498	412	
11	0	0	0	0	499	410	
12	0	0	0	0	500	409	
13	0	0	0	0	500	410	
14	0	0	0	0	500	406	
15	0	0	0	0	501	410	
0	0	0	0	0	500	410	
1	0	0	0	0	500	410	
2	0	0	0	0	500	412	
3	0	0	0	0	500	410	
4	0	0	0	0	501	409	
5	0	0	0	0	501	409	
6	0	0	0	0	502	406	
7	0	0	0	0	503	409	
8	0	0	0	0	504	409	
9	0	0	0	0	505	409	
10	0	0	0	0	506	412	
11	0	0	0	0	507	410	
12	0	0	0	0	507	410	
13	0	0	0	0	508	409	
14	0	0	0	0	509	406	
15	0	0	0	0	510	410	
0	0	0	0	0	510	409	
1	0	0	0	0	511	410	
2	0	0	0	0	512	412	
3	0	0	0	0	512	409	
4	0	0	0	0	512	409	
5	0	0	0	0	512	409	
6	0	0	0	0	512	406	
7	0	0	0	0	512	409	
8	0	0	0	0	512	409	
9	0	0	0	0	512	409	
10	0	0	0	0	512	413	
11	0	0	0	0	512	409	
12	0	0	0	0	512	409	
13	0	0	0	0	512	409	
14	0	0	0	0	512	407	
15	0	0	0	0	512	409	
0	0	0	0	0	512	409	
1	0	0	0	0	512	409	
2	0	0	0	0	513	412	
3	0	0	0	0	515	408	
4	0	0	0	0	516	409	
5	0	0	0	0	518	409	
6	0	0	0	0	520	406	
7	0	0	0	0	522	410	
8	0	0	0	0	523	410	
9	0	0	0	0	523	409	
10	0	0	0	0	524	413	
11	0	0	0	0	524	409	
12	0	0	0	0	525	409	
13	0	0	0	0	524	410	
14	0	0	0	0	525	406	
15	0	0	0	0	524	410	
0	0	0	0	0	523	410	
1	0	0	0	0	522	410	
2	0	0	0	0	522	412	
3	0	0	0	0	521	409	
4	0	0	0	0	521	410	
5	0	0	0	0	520	409	
6	0	0	0	0	521	406	
7	0	0	0	0	521	411	
8	0	0	0	0	522	409	
9	0	0	0	0	522	409	
10	0	0	0	0	523	412	
11	0	0	0	0	525	410	
12	0	0	0	0	526	410	
13	0	0	0	0	527	410	
14	0	0	0	0	527	407	
15	0	0	0	0	527	410	
0	0	0	0	0	527	410	
1	0	0	0	0	526	410	
2	0	0	0	0	525	412	
3	0	0	0	0	525	410	
4	0	0	0	0	523	409	
5	0	0	0	0	523	410	
6	0	0	0	0	522	407	
7	0	0	0	0	520	409	
8	0	0	0	0	520	409	
9	0	0	0	0	519	409	
10	0	0	0	0	519	412	
11	0	0	0	0	517	409	
12	0	0	0	0	515	409	
13	0	0	0	0	514	410	
14	0	0	0	0	513	406	
15	0	0	0	0	512	409	
0	0	0	0	0	512	409	
1	0	0	0	0	511	409	
2	0	0	0	0	510	412	
3	0	0	0	0	509	411	
4	0	0	0	0	507	410	
5	0	0	0	0	506	410	
6	0	0	0	0	505	407	
7	0	0	0	0	504	411	
8	0	0	0	0	504	409	
9	0	0	0	0	504	410	
10	0	0	0	0	504	412	
11	0	0	0	0	503	410	
12	0	0	0	0	502	410	
13	0	0	0	0	500	410	
14	0	0	0	0	499	407	
15	0	0	0	0	498	410	
0	0	0	0	0	497	410	
1	0	0	0	0	496	410	
2	0	0	0	0	496	413	
3	0	0	0	0	496	410	
4	0	0	0	0	496	409	
5	0	0	0	0	496	409	
6	0	0	0	0	495	406	
7	0	0	0	0	494	409	
8	0	0	0	0	494	409	
9	0	0	0	0	494	409	
10	0	0	0	0	494	412	
11	0	0	0	0	493	409	
12	0	0	0	0	494	410	
13	0	0	0	0	493	409	
14	0	0	0	0	493	406	
15	0	0	0	0	492	409	
0	0	0	0	0	492	409	
1	0	0	0	0	491	409	
2	0	0	0	0	490	412	
3	0	0	0	0	489	409	
4	0	0	0	0	489	408	
5	0	0	0	0	488	410	
6	0	0	0	0	489	406	
7	0	0	0	0	488	409	
8	0	0	0	0	488	409	
9	0	0	0	0	488	409	
10	0	0	0	0	488	412	
11	0	0	0	0	489	409	
12	0	0	0	0	488	409	
13	0	0	0	0	488	409	
14	0	0	0	0	488	406	
15	0	0	0	0	488	409	
0	0	0	0	0	488	409	
1	0	0	0	0	488	409	
2	0	0	0	0	488	412	
3	0	0	0	0	489	409	
4	0	0	0	0	490	409	
5	0	0	0	0	491	410	
6	0	0	0	0	491	406	
7	0	0	0	0	492	410	
8	0	0	0	0	492	409	
9	0	0	0	0	492	410	
10	0	0	0	0	492	412	
11	0	0	0	0	492	409	
12	0	0	0	0	492	410	
13	0	0	0	0	492	410	
14	0	0	0	0	492	406	
15	0	0	0	0	492	409	
0	0	0	0	0	492	409	
1	0	0	0	0	492	410	
2	0	0	0	0	492	412	
3	0	0	0	0	491	410	
4	0	0	0	0	491	409	
5	0	0	0	0	490	410	
6	0	0	0	0	491	407	
7	0	0	0	0	491	409	
8	0	0	0	0	491	409	
9	0	0	0	0	491	409	
10	0	0	0	0	491	413	
11	0	0	0	0	492	409	
12	0	0	0	0	492	410	
13	0	0	0	0	493	410	
14	0	0	0	0	495	407	
15	0	0	0	0	495	410	
0	0	0	0	0	495	410	
1	0	0	0	0	496	410	
2	0	0	0	0	497	413	
3	0	0	0	0	498	409	
4	0	0	0	0	499	410	
5	0	0	0	0	499	410	
6	0	0	0	0	499	406	
7	0	0	0	0	498	410	
8	0	0	0	0	498	410	
9	0	0	0	0	497	410	
10	0	0	0	0	496	412	
11	0	0	0	0	496	410	
12	0	0	0	0	495	410	
13	0	0	0	0	494	410	
14	0	0	0	0	494	407	
15	0	0	0	0	492	409	
0	0	0	0	0	491	409	
1	0	0	0	0	491	409	
2	0	0	0	0	491	412	
3	0	0	0	0	491	409	
4	0	0	0	0	492	409	
5	0	0	0	0	493	410	
6	0	0	0	0	494	406	
7	0	0	0	0	496	410	
8	0	0	0	0	497	410	
9	0	0	0	0	498	409	
10	0	0	0	0	498	413	
11	0	0	0	0	499	410	
12	0	0	0	0	499	410	
13	0	0	0	0	499	409	
14	0	0	0	0	499	406	
15	0	0	0	0	498	410	
0	0	0	0	0	498	410	
1	0	0	0	0	498	410	
2	0	0	0	0	498	413	
3	0	0	0	0	497	409	
4	0	0	0	0	497	410	
5	0	0	0	0	498	410	
6	0	0	0	0	498	406	
7	0	0	0	0	498	410	
8	0	0	0	0	500	409	
9	0	0	0	0	501	409	
10	0	0	0	0	502	412	
11	0	0	0	0	501	410	
12	0	0	0	0	502	409	
13	0	0	0	0	502	409	
14	0	0	0	0	502	406	
15	0	0	0	0	502	409	
0	0	0	0	0	502	410	
1	0	0	0	0	501	409	
2	0	0	0	0	501	412	
3	0	0	0	0	501	409	
4	0	0	0	0	501	410	
5	0	0	0	0	502	411	
6	0	0	0	0	503	407	
7	0	0	0	0	503	410	
8	0	0	0	0	504	410	
9	0	0	0	0	504	410	
10	0	0	0	0	504	413	
11	0	0	0	0	504	410	
12	0	0	0	0	505	410	
13	0	0	0	0	505	410	
14	0	0	0	0	504	406	
15	0	0	0	0	504	410	
0	0	0	0	0	504	411	
1	0	0	0	0	503	410	
2	0	0	0	0	503	414	
3	0	0	0	0	503	411	
4	0	0	0	0	504	410	
5	0	0	0	0	504	411	
6	0	0	0	0	504	407	
7	0	0	0	0	503	410	
8	0	0	0	0	504	411	
9	0	0	0	0	503	410	
10	0	0	0	0	503	413	
11	0	0	0	0	503	410	
12	0	0	0	0	503	411	
13	0	0	0	0	503	411	
14	0	0	0	0	504	407	
15	0	0	0	0	504	411	
0	0	0	0	0	505	411	
1	0	0	0	0	505	410	
2	0	0	0	0	506	413	
3	0	0	0	0	507	410	
4	0	0	0	0	507	410	
5	0	0	0	0	508	410	
6	0	0	0	0	508	407	
7	0	0	0	0	508	409	
8	0	0	0	0	508	409	
9	0	0	0	0	508	409	
10	0	0	0	0	508	412	
11	0	0	0	0	508	409	
12	0	0	0	0	507	409	
13	0	0	0	0	507	409	
14	0	0	0	0	507	406	
15	0	0	0	0	507	409	
0	0	0	0	0	507	408	
1	0	0	0	0	506	409	
2	0	0	0	0	506	412	
3	0	0	0	0	505	409	
4	0	0	0	0	504	409	
5	0	0	0	0	505	409	
6	0	0	0	0	505	406	
7	0	0	0	0	505	409	
8	0	0	0	0	505	409	
9	0	0	0	0	507	409	
10	0	0	0	0	507	412	
11	0	0	0	0	508	409	
12	0	0	0	0	508	409	
13	0	0	0	0	508	409	
14	0	0	0	0	508	406	
15	0	0	0	0	508	409	
0	0	0	0	0	509	409	
1	0	0	0	0	508	408	
2	0	0	0	0	509	411	
3	0	0	0	0	510	408	
4	0	0	0	0	510	408	
5	0	0	0	0	510	409	
6	0	0	0	0	510	406	
7	0	0	0	0	510	409	
8	0	0	0	0	510	409	
9	0	0	0	0	510	409	
10	0	0	0	0	510	411	
11	0	0	0	0	510	409	
12	0	0	0	0	510	408	
13	0	0	0	0	510	408	
14	0	0	0	0	510	406	
15	0	0	0	0	511	408	
0	0	0	0	0	511	408	
1	0	0	0	0	509	409	
2	0	0	0	0	509	412	
3	0	0	0	0	509	409	
4	0	0	0	0	509	409	
5	0	0	0	0	509	408	
6	0	0	0	0	509	406	
7	0	0	0	0	510	409	
8	0	0	0	0	510	409	
9	0	0	0	0	510	409	
10	0	0	0	0	510	412	
11	0	0	0	0	510	409	
12	0	0	0	0	510	409	
13	0	0	0	0	510	409	
14	0	0	0	0	511	406	
15	0	0	0	0	512	409	
0	0	0	0	0	512	409	
1	0	0	0	0	512	409	
2	0	0	0	0	512	412	
3	0	0	0	0	512	409	
4	0	0	0	0	512	409	
5	0	0	0	0	512	410	
6	0	0	0	0	511	406	
7	0	0	0	0	511	409	
8	0	0	0	0	510	410	
9	0	0	0	0	509	409	
10	0	0	0	0	510	412	
11	0	0	0	0	510	410	
12	0	0	0	0	509	409	
13	0	0	0	0	509	409	
14	0	0	0	0	509	407	
15	0	0	0	0	508	410	
0	0	0	0	0	507	410	
1	0	0	0	0	507	411	
2	0	0	0	0	507	414	
3	0	0	0	0	508	411	
4	0	0	0	0	508	411	
5	0	0	0	0	509	411	
6	0	0	0	0	510	407	
7	0	0	0	0	510	410	
8	0	0	0	0	511	410	
9	0	0	0	0	512	410	
10	0	0	0	0	512	413	
11	0	0	0	0	513	410	
12	0	0	0	0	512	410	
13	0	0	0	0	512	410	
14	0	0	0	0	512	407	
15	0	0	0	0	512	410	
0	0	0	0	0	512	411	
1	0	0	0	0	512	410	
2	0	0	0	0	512	412	
3	0	0	0	0	512	410	
4	0	0	0	0	512	411	
5	0	0	0	0	512	410	
6	0	0	0	0	512	407	
7	0	0	0	0	512	411	
8	0	0	0	0	512	410	
9	0	0	0	0	511	410	
10	0	0	0	0	511	413	
11	0	0	0	0	510	410	
12	0	0	0	0	510	410	
13	0	0	0	0	509	411	
14	0	0	0	0	508	407	
15	0	0	0	0	508	410	
0	0	0	0	0	507	410	
1	0	0	0	0	507	410	
2	0	0	0	0	508	413	
3	0	0	0	0	508	409	
4	0	0	0	0	508	410	
5	0	0	0	0	508	410	
6	0	0	0	0	508	407	
7	0	0	0	0	509	411	
8	0	0	0	0	508	411	
9	0	0	0	0	508	410	
10	0	0	0	0	509	413	
11	0	0	0	0	509	410	
12	0	0	0	0	509	411	
13	0	0	0	0	508	410	
14	0	0	0	0	507	408	
15	0	0	0	0	505	410	
0	0	0	0	0	505	410	
1	0	0	0	0	505	410	
2	0	0	0	0	505	413	
3	0	0	0	0	506	410	
4	0	0	0	0	506	410	
5	0	0	0	0	506	410	
6	0	0	0	0	507	407	
7	0	0	0	0	508	410	
8	0	0	0	0	508	410	
9	0	0	0	0	509	409	
10	0	0	0	0	510	413	
11	0	0	0	0	510	409	
12	0	0	0	0	511	409	
13	0	0	0	0	511	409	
14	0	0	0	0	511	406	
15	0	0	0	0	511	409	
0	0	0	0	0	511	409	
1	0	0	0	0	511	409	
2	0	0	0	0	511	412	
3	0	0	0	0	511	409	
4	0	0	0	0	511	409	
5	0	0	0	0	511	409	
6	0	0	0	0	511	405	
7	0	0	0	0	512	409	
8	0	0	0	0	512	409	
9	0	0	0	0	512	409	
10	0	0	0	0	512	413	
11	0	0	0	0	512	409	
12	0	0	0	0	512	410	
13	0	0	0	0	513	409	
14	0	0	0	0	513	405	
15	0	0	0	0	514	409	
0	0	0	0	0	513	409	
1	0	0	0	0	515	409	
2	0	0	0	0	516	412	
3	0	0	0	0	518	409	
4	0	0	0	0	519	409	
5	0	0	0	0	518	409	
6	0	0	0	0	517	406	
7	0	0	0	0	517	409	
8	0	0	0	0	517	408	
9	0	0	0	0	518	408	
10	0	0	0	0	517	412	
11	0	0	0	0	516	409	
12	0	0	0	0	516	410	
13	0	0	0	0	516	409	
14	0	0	0	0	516	406	
15	0	0	0	0	517	410	
0	0	0	0	0	517	410	
1	0	0	0	0	516	409	
2	0	0	0	0	516	413	
3	0	0	0	0	515	410	
4	0	0	0	0	513	410	
5	0	0	0	0	511	410	
6	0	0	0	0	509	407	
7	0	0	0	0	508	410	
8	0	0	0	0	508	410	
9	0	0	0	0	508	409	
10	0	0	0	0	508	412	
11	0	0	0	0	510	409	
12	0	0	0	0	512	410	
13	0	0	0	0	512	409	
14	0	0	0	0	513	406	
15	0	0	0	0	514	409	
0	0	0	0	0	515	409	
1	0	0	0	0	516	409	
2	0	0	0	0	518	413	
3	0	0	0	0	518	410	
4	0	0	0	0	519	409	
5	0	0	0	0	519	410	
6	0	0	0	0	519	406	
7	0	0	0	0	519	410	
8	0	0	0	0	520	411	
9	0	0	0	0	520	410	
10	0	0	0	0	521	413	
11	0	0	0	0	521	410	
12	0	0	0	0	521	410	
13	0	0	0	0	521	410	
14	0	0	0	0	521	407	
15	0	0	0	0	521	410	
0	0	0	0	0	521	410	
1	0	0	0	0	520	410	
2	0	0	0	0	520	413	
3	0	0	0	0	519	410	
4	0	0	0	0	519	410	
5	0	0	0	0	519	410	
6	0	0	0	0	518	407	
7	0	0	0	0	517	410	
8	0	0	0	0	516	410	
9	0	0	0	0	515	411	
10	0	0	0	0	515	413	
11	0	0	0	0	516	410	
12	0	0	0	0	517	410	
13	0	0	0	0	518	410	
14	0	0	0	0	519	407	
15	0	0	0	0	519	411	
0	0	0	0	0	519	411	
1	0	0	0	0	519	410	
2	0	0	0	0	519	413	
3	0	0	0	0	519	411	
4	0	0	0	0	519	410	
5	0	0	0	0	518	411	
6	0	0	0	0	518	407	
7	0	0	0	0	518	410	
8	0	0	0	0	518	410	
9	0	0	0	0	518	409	
10	0	0	0	0	518	413	
11	0	0	0	0	519	410	
12	0	0	0	0	519	410	
13	0	0	0	0	519	409	
14	0	0	0	0	519	406	
15	0	0	0	0	519	410	
0	0	0	0	0	518	410	
1	0	0	0	0	518	410	
2	0	0	0	0	517	413	
3	0	0	0	0	517	411	
4	0	0	0	0	517	410	
5	0	0	0	0	518	410	
6	0	0	0	0	518	407	
7	0	0	0	0	517	410	
8	0	0	0	0	517	410	
9	0	0	0	0	517	409	
10	0	0	0	0	517	413	
11	0	0	0	0	517	410	
12	0	0	0	0	517	409	
13	0	0	0	0	516	409	
14	0	0	0	0	515	406	
15	0	0	0	0	515	409	
0	0	0	0	0	514	409	
1	0	0	0	0	512	409	
2	0	0	0	0	511	413	
3	0	0	0	0	509	410	
4	0	0	0	0	508	410	
5	0	0	0	0	505	409	
6	0	0	0	0	502	406	
7	0	0	0	0	499	409	
8	0	0	0	0	495	410	
9	0	0	0	0	491	410	
10	0	0	0	0	488	413	
11	0	0	0	0	486	410	
12	0	0	0	0	482	409	
13	0	0	0	0	478	410	
14	0	0	0	0	475	406	
15	0	0	0	0	472	409	
0	0	0	0	0	469	409	
1	0	0	0	0	466	409	
2	0	0	0	0	465	413	
3	0	0	0	0	465	410	
4	0	0	0	0	467	410	
5	0	0	0	0	471	409	
6	0	0	0	0	478	406	
7	0	0	0	0	486	409	
8	0	0	0	0	498	409	
9	0	0	0	0	511	408	
10	0	0	0	0	524	412	
11	0	0	0	0	540	409	
12	0	0	0	0	556	409	
13	0	0	0	0	572	409	
14	0	0	0	0	588	406	
15	0	0	0	0	601	409	
0	0	0	0	0	614	409	
1	0	0	0	0	625	409	
2	0	0	0	0	638	412	
3	0	0	0	0	649	408	
4	0	0	0	0	657	408	
5	0	0	0	0	659	409	
6	0	0	0	0	654	406	
7	0	0	0	0	647	409	
8	0	0	0	0	637	410	
9	0	0	0	0	627	408	
10	0	0	0	0	618	411	
11	0	0	0	0	608	409	
12	0	0	0	0	598	409	
13	0	0	0	0	591	409	
14	0	0	0	0	582	406	
15	0	0	0	0	571	409	
0	0	0	0	0	560	409	
1	0	0	0	0	552	409	
2	0	0	0	0	544	412	
3	0	0	0	0	537	410	
4	0	0	0	0	533	410	
5	0	0	0	0	529	409	
6	0	0	0	0	526	406	
7	0	0	0	0	524	410	
8	0	0	0	0	523	409	
9	0	0	0	0	523	410	
10	0	0	0	0	524	413	
11	0	0	0	0	525	409	
12	0	0	0	0	526	409	
13	0	0	0	0	526	409	
14	0	0	0	0	526	406	
15	0	0	0	0	524	409	
0	0	0	0	0	523	410	
1	0	0	0	0	520	409	
2	0	0	0	0	517	412	
3	0	0	0	0	515	409	
4	0	0	0	0	511	410	
5	0	0	0	0	508	410	
6	0	0	0	0	506	406	
7	0	0	0	0	505	410	
8	0	0	0	0	504	410	
9	0	0	0	0	503	409	
10	0	0	0	0	501	412	
11	0	0	0	0	499	409	
12	0	0	0	0	498	410	
13	0	0	0	0	498	409	
14	0	0	0	0	497	407	
15	0	0	0	0	497	410	
0	0	0	0	0	496	409	
1	0	0	0	0	496	409	
2	0	0	0	0	496	412	
3	0	0	0	0	496	410	
