# OpenSignals Text File Format. Version 1
# {"98:D3:91:FD:59:64": {"position": 0, "device": "bitalino_rev", "device name": "98:D3:91:FD:59:64", "device connection": "BTH98:D3:91:FD:59:64", "sampling rate": 1000, "resolution": [4, 1, 1, 1, 1, 10, 10], "firmware version": 1281, "comments": "", "keywords": "", "mode": 0, "sync interval": 2, "date": "2021-9-5", "time": "17:18:4.16", "channels": [2, 5], "sensor": ["RAW", "RAW"], "label": ["A2", "A5"], "column": ["nSeq", "I1", "I2", "O1", "O2", "A2", "A5"], "special": [{}, {}], "digital IO": [0, 0, 1, 1], "convertedValues": 0}}
# EndOfHeader
0	0	0	0	0	484	604	
1	0	0	0	0	482	605	
2	0	0	0	0	478	604	
3	0	0	0	0	475	605	
4	0	0	0	0	471	605	
5	0	0	0	0	467	604	
6	0	0	0	0	462	605	
7	0	0	0	0	456	605	
8	0	0	0	0	451	605	
9	0	0	0	0	446	605	
10	0	0	0	0	442	604	
11	0	0	0	0	439	604	
12	0	0	0	0	437	604	
13	0	0	0	0	438	605	
14	0	0	0	0	442	605	
15	0	0	0	0	448	605	
0	0	0	0	0	458	605	
1	0	0	0	0	467	605	
2	0	0	0	0	476	605	
3	0	0	0	0	487	605	
4	0	0	0	0	499	605	
5	0	0	0	0	512	605	
6	0	0	0	0	526	604	
7	0	0	0	0	540	605	
8	0	0	0	0	552	605	
9	0	0	0	0	564	605	
10	0	0	0	0	573	604	
11	0	0	0	0	579	604	
12	0	0	0	0	583	604	
13	0	0	0	0	588	604	
14	0	0	0	0	591	604	
15	0	0	0	0	595	606	
0	0	0	0	0	596	606	
1	0	0	0	0	597	605	
2	0	0	0	0	596	604	
3	0	0	0	0	598	605	
4	0	0	0	0	599	604	
5	0	0	0	0	596	604	
6	0	0	0	0	590	604	
7	0	0	0	0	583	604	
8	0	0	0	0	577	605	
9	0	0	0	0	571	604	
10	0	0	0	0	567	604	
11	0	0	0	0	566	605	
12	0	0	0	0	564	604	
13	0	0	0	0	566	604	
14	0	0	0	0	569	604	
15	0	0	0	0	571	604	
0	0	0	0	0	570	605	
1	0	0	0	0	567	604	
2	0	0	0	0	563	604	
3	0	0	0	0	558	604	
4	0	0	0	0	551	604	
5	0	0	0	0	544	605	
6	0	0	0	0	537	604	
7	0	0	0	0	530	604	
8	0	0	0	0	523	605	
9	0	0	0	0	516	604	
10	0	0	0	0	511	605	
11	0	0	0	0	506	604	
12	0	0	0	0	502	604	
13	0	0	0	0	498	604	
14	0	0	0	0	495	604	
15	0	0	0	0	493	604	
0	0	0	0	0	491	604	
1	0	0	0	0	489	604	
2	0	0	0	0	488	604	
3	0	0	0	0	487	604	
4	0	0	0	0	486	604	
5	0	0	0	0	486	604	
6	0	0	0	0	485	604	
7	0	0	0	0	485	604	
8	0	0	0	0	484	604	
9	0	0	0	0	485	604	
10	0	0	0	0	484	604	
11	0	0	0	0	484	604	
12	0	0	0	0	484	604	
13	0	0	0	0	483	604	
14	0	0	0	0	483	604	
15	0	0	0	0	483	604	
0	0	0	0	0	483	604	
1	0	0	0	0	483	604	
2	0	0	0	0	483	604	
3	0	0	0	0	483	604	
4	0	0	0	0	483	604	
5	0	0	0	0	483	604	
6	0	0	0	0	483	604	
7	0	0	0	0	482	604	
8	0	0	0	0	483	604	
9	0	0	0	0	483	604	
10	0	0	0	0	483	604	
11	0	0	0	0	483	604	
12	0	0	0	0	483	604	
13	0	0	0	0	484	604	
14	0	0	0	0	484	604	
15	0	0	0	0	484	603	
0	0	0	0	0	484	604	
1	0	0	0	0	485	603	
2	0	0	0	0	485	604	
3	0	0	0	0	485	604	
4	0	0	0	0	484	604	
5	0	0	0	0	484	604	
6	0	0	0	0	484	604	
7	0	0	0	0	484	604	
8	0	0	0	0	484	604	
9	0	0	0	0	485	604	
10	0	0	0	0	484	604	
11	0	0	0	0	484	604	
12	0	0	0	0	485	604	
13	0	0	0	0	485	604	
14	0	0	0	0	486	604	
15	0	0	0	0	486	604	
0	0	0	0	0	485	604	
1	0	0	0	0	486	604	
2	0	0	0	0	486	604	
3	0	0	0	0	485	604	
4	0	0	0	0	484	604	
5	0	0	0	0	484	604	
6	0	0	0	0	486	604	
7	0	0	0	0	486	604	
8	0	0	0	0	486	604	
9	0	0	0	0	486	604	
10	0	0	0	0	486	604	
11	0	0	0	0	487	604	
12	0	0	0	0	487	604	
13	0	0	0	0	487	604	
14	0	0	0	0	487	604	
15	0	0	0	0	487	604	
0	0	0	0	0	487	605	
1	0	0	0	0	486	604	
2	0	0	0	0	487	604	
3	0	0	0	0	487	605	
4	0	0	0	0	487	605	
5	0	0	0	0	487	604	
6	0	0	0	0	487	604	
7	0	0	0	0	489	605	
8	0	0	0	0	489	605	
9	0	0	0	0	489	604	
10	0	0	0	0	489	605	
11	0	0	0	0	489	604	
12	0	0	0	0	490	604	
13	0	0	0	0	490	604	
14	0	0	0	0	489	604	
15	0	0	0	0	490	604	
0	0	0	0	0	490	604	
1	0	0	0	0	490	604	
2	0	0	0	0	490	604	
3	0	0	0	0	491	604	
4	0	0	0	0	491	604	
5	0	0	0	0	491	605	
6	0	0	0	0	490	604	
7	0	0	0	0	489	604	
8	0	0	0	0	489	605	
9	0	0	0	0	489	604	
10	0	0	0	0	489	604	
11	0	0	0	0	489	605	
12	0	0	0	0	488	604	
13	0	0	0	0	489	604	
14	0	0	0	0	490	604	
15	0	0	0	0	489	605	
0	0	0	0	0	489	605	
1	0	0	0	0	489	605	
2	0	0	0	0	489	604	
3	0	0	0	0	489	604	
4	0	0	0	0	489	604	
5	0	0	0	0	489	604	
6	0	0	0	0	489	604	
7	0	0	0	0	490	604	
8	0	0	0	0	490	605	
9	0	0	0	0	489	604	
10	0	0	0	0	489	604	
11	0	0	0	0	489	604	
12	0	0	0	0	489	604	
13	0	0	0	0	489	604	
14	0	0	0	0	489	604	
15	0	0	0	0	488	604	
0	0	0	0	0	487	604	
1	0	0	0	0	487	604	
2	0	0	0	0	487	604	
3	0	0	0	0	487	604	
4	0	0	0	0	486	604	
5	0	0	0	0	486	604	
6	0	0	0	0	486	604	
7	0	0	0	0	486	604	
8	0	0	0	0	486	604	
9	0	0	0	0	486	604	
10	0	0	0	0	487	604	
11	0	0	0	0	487	604	
12	0	0	0	0	487	604	
13	0	0	0	0	487	604	
14	0	0	0	0	487	604	
15	0	0	0	0	486	605	
0	0	0	0	0	486	605	
1	0	0	0	0	486	605	
2	0	0	0	0	485	605	
3	0	0	0	0	486	604	
4	0	0	0	0	486	604	
5	0	0	0	0	485	604	
6	0	0	0	0	486	605	
7	0	0	0	0	486	604	
8	0	0	0	0	485	605	
9	0	0	0	0	485	604	
10	0	0	0	0	484	604	
11	0	0	0	0	484	605	
12	0	0	0	0	485	605	
13	0	0	0	0	484	605	
14	0	0	0	0	484	605	
15	0	0	0	0	485	604	
0	0	0	0	0	485	606	
1	0	0	0	0	485	604	
2	0	0	0	0	484	605	
3	0	0	0	0	484	605	
4	0	0	0	0	483	604	
5	0	0	0	0	484	605	
6	0	0	0	0	484	604	
7	0	0	0	0	485	605	
8	0	0	0	0	485	604	
9	0	0	0	0	485	604	
10	0	0	0	0	485	604	
11	0	0	0	0	485	605	
12	0	0	0	0	485	604	
13	0	0	0	0	485	605	
14	0	0	0	0	484	604	
15	0	0	0	0	484	605	
0	0	0	0	0	483	605	
1	0	0	0	0	483	605	
2	0	0	0	0	482	604	
3	0	0	0	0	482	605	
4	0	0	0	0	482	605	
5	0	0	0	0	482	605	
6	0	0	0	0	482	604	
7	0	0	0	0	483	604	
8	0	0	0	0	483	605	
9	0	0	0	0	483	605	
10	0	0	0	0	484	604	
11	0	0	0	0	485	604	
12	0	0	0	0	486	604	
13	0	0	0	0	485	604	
14	0	0	0	0	485	604	
15	0	0	0	0	485	604	
0	0	0	0	0	484	605	
1	0	0	0	0	484	605	
2	0	0	0	0	484	604	
3	0	0	0	0	484	604	
4	0	0	0	0	484	604	
5	0	0	0	0	485	605	
6	0	0	0	0	485	604	
7	0	0	0	0	484	604	
8	0	0	0	0	484	604	
9	0	0	0	0	484	604	
10	0	0	0	0	484	604	
11	0	0	0	0	485	604	
12	0	0	0	0	486	604	
13	0	0	0	0	486	604	
14	0	0	0	0	486	604	
15	0	0	0	0	486	604	
0	0	0	0	0	486	604	
1	0	0	0	0	486	604	
2	0	0	0	0	487	604	
3	0	0	0	0	487	604	
4	0	0	0	0	488	604	
5	0	0	0	0	488	604	
6	0	0	0	0	489	603	
7	0	0	0	0	489	604	
8	0	0	0	0	490	604	
9	0	0	0	0	491	604	
10	0	0	0	0	492	603	
11	0	0	0	0	492	603	
12	0	0	0	0	492	604	
13	0	0	0	0	492	603	
14	0	0	0	0	493	604	
15	0	0	0	0	493	604	
0	0	0	0	0	493	604	
1	0	0	0	0	493	603	
2	0	0	0	0	494	603	
3	0	0	0	0	495	604	
4	0	0	0	0	495	603	
5	0	0	0	0	496	604	
6	0	0	0	0	496	604	
7	0	0	0	0	497	604	
8	0	0	0	0	498	604	
9	0	0	0	0	499	604	
10	0	0	0	0	499	604	
11	0	0	0	0	500	604	
12	0	0	0	0	499	604	
13	0	0	0	0	500	604	
14	0	0	0	0	500	604	
15	0	0	0	0	501	604	
0	0	0	0	0	502	604	
1	0	0	0	0	502	604	
2	0	0	0	0	503	604	
3	0	0	0	0	503	604	
4	0	0	0	0	504	604	
5	0	0	0	0	504	604	
6	0	0	0	0	504	604	
7	0	0	0	0	505	604	
8	0	0	0	0	506	604	
9	0	0	0	0	507	604	
10	0	0	0	0	508	604	
11	0	0	0	0	510	604	
12	0	0	0	0	511	604	
13	0	0	0	0	512	604	
14	0	0	0	0	513	604	
15	0	0	0	0	514	604	
0	0	0	0	0	515	604	
1	0	0	0	0	515	604	
2	0	0	0	0	516	604	
3	0	0	0	0	517	604	
4	0	0	0	0	519	604	
5	0	0	0	0	520	604	
6	0	0	0	0	521	604	
7	0	0	0	0	521	604	
8	0	0	0	0	522	604	
9	0	0	0	0	521	605	
10	0	0	0	0	521	604	
11	0	0	0	0	520	604	
12	0	0	0	0	520	604	
13	0	0	0	0	520	604	
14	0	0	0	0	520	605	
15	0	0	0	0	520	604	
0	0	0	0	0	521	604	
1	0	0	0	0	521	604	
2	0	0	0	0	521	604	
3	0	0	0	0	522	605	
4	0	0	0	0	523	604	
5	0	0	0	0	523	604	
6	0	0	0	0	524	604	
7	0	0	0	0	524	604	
8	0	0	0	0	524	604	
9	0	0	0	0	525	604	
10	0	0	0	0	526	604	
11	0	0	0	0	526	604	
12	0	0	0	0	526	604	
13	0	0	0	0	526	605	
14	0	0	0	0	525	604	
15	0	0	0	0	526	604	
0	0	0	0	0	526	604	
1	0	0	0	0	526	604	
2	0	0	0	0	527	604	
3	0	0	0	0	527	604	
4	0	0	0	0	527	604	
5	0	0	0	0	527	605	
6	0	0	0	0	526	604	
7	0	0	0	0	526	604	
8	0	0	0	0	526	604	
9	0	0	0	0	526	604	
10	0	0	0	0	527	604	
11	0	0	0	0	527	604	
12	0	0	0	0	526	604	
13	0	0	0	0	527	605	
14	0	0	0	0	527	605	
15	0	0	0	0	527	604	
0	0	0	0	0	527	605	
1	0	0	0	0	527	605	
2	0	0	0	0	527	605	
3	0	0	0	0	527	605	
4	0	0	0	0	527	605	
5	0	0	0	0	527	606	
6	0	0	0	0	527	605	
7	0	0	0	0	528	604	
8	0	0	0	0	528	605	
9	0	0	0	0	528	605	
10	0	0	0	0	528	605	
11	0	0	0	0	528	605	
12	0	0	0	0	527	605	
13	0	0	0	0	527	605	
14	0	0	0	0	526	605	
15	0	0	0	0	527	605	
0	0	0	0	0	527	605	
1	0	0	0	0	527	604	
2	0	0	0	0	526	605	
3	0	0	0	0	527	604	
4	0	0	0	0	526	604	
5	0	0	0	0	526	605	
6	0	0	0	0	526	604	
7	0	0	0	0	527	604	
8	0	0	0	0	527	604	
9	0	0	0	0	527	604	
10	0	0	0	0	526	604	
11	0	0	0	0	526	604	
12	0	0	0	0	525	604	
13	0	0	0	0	524	604	
14	0	0	0	0	524	603	
15	0	0	0	0	524	605	
0	0	0	0	0	524	605	
1	0	0	0	0	524	605	
2	0	0	0	0	524	605	
3	0	0	0	0	523	604	
4	0	0	0	0	523	604	
5	0	0	0	0	523	604	
6	0	0	0	0	522	604	
7	0	0	0	0	521	604	
8	0	0	0	0	520	605	
9	0	0	0	0	519	605	
10	0	0	0	0	519	605	
11	0	0	0	0	519	604	
12	0	0	0	0	519	605	
13	0	0	0	0	518	605	
14	0	0	0	0	517	605	
15	0	0	0	0	516	605	
0	0	0	0	0	516	605	
1	0	0	0	0	516	604	
2	0	0	0	0	517	604	
3	0	0	0	0	517	604	
4	0	0	0	0	516	604	
5	0	0	0	0	516	605	
6	0	0	0	0	516	605	
7	0	0	0	0	517	604	
8	0	0	0	0	517	605	
9	0	0	0	0	517	605	
10	0	0	0	0	517	605	
11	0	0	0	0	516	604	
12	0	0	0	0	517	605	
13	0	0	0	0	516	605	
14	0	0	0	0	516	604	
15	0	0	0	0	516	606	
0	0	0	0	0	516	605	
1	0	0	0	0	515	605	
2	0	0	0	0	516	605	
3	0	0	0	0	516	605	
4	0	0	0	0	515	605	
5	0	0	0	0	515	604	
6	0	0	0	0	516	604	
7	0	0	0	0	515	605	
8	0	0	0	0	515	605	
9	0	0	0	0	514	604	
10	0	0	0	0	513	604	
11	0	0	0	0	513	605	
12	0	0	0	0	513	605	
13	0	0	0	0	513	605	
14	0	0	0	0	513	604	
15	0	0	0	0	513	605	
0	0	0	0	0	513	605	
1	0	0	0	0	513	604	
2	0	0	0	0	513	604	
3	0	0	0	0	513	604	
4	0	0	0	0	513	604	
5	0	0	0	0	513	604	
6	0	0	0	0	513	604	
7	0	0	0	0	513	604	
8	0	0	0	0	513	604	
9	0	0	0	0	513	604	
10	0	0	0	0	513	604	
11	0	0	0	0	513	605	
12	0	0	0	0	513	605	
13	0	0	0	0	513	605	
14	0	0	0	0	513	604	
15	0	0	0	0	512	604	
0	0	0	0	0	513	605	
1	0	0	0	0	513	604	
2	0	0	0	0	513	604	
3	0	0	0	0	513	604	
4	0	0	0	0	512	604	
5	0	0	0	0	512	605	
6	0	0	0	0	511	604	
7	0	0	0	0	511	604	
8	0	0	0	0	511	605	
9	0	0	0	0	510	604	
10	0	0	0	0	511	605	
11	0	0	0	0	511	604	
12	0	0	0	0	510	605	
13	0	0	0	0	511	604	
14	0	0	0	0	510	604	
15	0	0	0	0	511	604	
0	0	0	0	0	510	604	
1	0	0	0	0	510	604	
2	0	0	0	0	511	603	
3	0	0	0	0	511	603	
4	0	0	0	0	510	603	
5	0	0	0	0	510	603	
6	0	0	0	0	510	603	
7	0	0	0	0	510	604	
8	0	0	0	0	509	604	
9	0	0	0	0	509	604	
10	0	0	0	0	509	604	
11	0	0	0	0	510	604	
12	0	0	0	0	509	604	
13	0	0	0	0	509	603	
14	0	0	0	0	509	604	
15	0	0	0	0	510	604	
0	0	0	0	0	510	604	
1	0	0	0	0	511	604	
2	0	0	0	0	510	604	
3	0	0	0	0	510	604	
4	0	0	0	0	510	604	
5	0	0	0	0	510	604	
6	0	0	0	0	511	604	
7	0	0	0	0	511	604	
8	0	0	0	0	511	605	
9	0	0	0	0	511	604	
10	0	0	0	0	511	604	
11	0	0	0	0	511	604	
12	0	0	0	0	510	604	
13	0	0	0	0	509	604	
14	0	0	0	0	509	604	
15	0	0	0	0	509	604	
0	0	0	0	0	510	604	
1	0	0	0	0	510	604	
2	0	0	0	0	510	604	
3	0	0	0	0	511	604	
4	0	0	0	0	511	604	
5	0	0	0	0	511	604	
6	0	0	0	0	510	604	
7	0	0	0	0	510	605	
8	0	0	0	0	510	605	
9	0	0	0	0	510	604	
10	0	0	0	0	511	604	
11	0	0	0	0	511	604	
12	0	0	0	0	511	604	
13	0	0	0	0	510	604	
14	0	0	0	0	510	604	
15	0	0	0	0	510	605	
0	0	0	0	0	509	605	
1	0	0	0	0	509	605	
2	0	0	0	0	508	604	
3	0	0	0	0	508	604	
4	0	0	0	0	509	604	
5	0	0	0	0	508	604	
6	0	0	0	0	509	604	
7	0	0	0	0	509	604	
8	0	0	0	0	508	604	
9	0	0	0	0	508	604	
10	0	0	0	0	509	604	
11	0	0	0	0	509	605	
12	0	0	0	0	509	604	
13	0	0	0	0	509	604	
14	0	0	0	0	508	604	
15	0	0	0	0	508	604	
0	0	0	0	0	508	605	
1	0	0	0	0	508	604	
2	0	0	0	0	508	604	
3	0	0	0	0	508	604	
4	0	0	0	0	508	604	
5	0	0	0	0	509	604	
6	0	0	0	0	509	604	
7	0	0	0	0	510	604	
8	0	0	0	0	510	605	
9	0	0	0	0	510	604	
10	0	0	0	0	511	603	
11	0	0	0	0	511	604	
12	0	0	0	0	511	604	
13	0	0	0	0	511	604	
14	0	0	0	0	510	604	
15	0	0	0	0	510	604	
0	0	0	0	0	510	604	
1	0	0	0	0	510	604	
2	0	0	0	0	510	604	
3	0	0	0	0	510	604	
4	0	0	0	0	510	604	
5	0	0	0	0	510	604	
6	0	0	0	0	510	604	
7	0	0	0	0	509	604	
8	0	0	0	0	509	604	
9	0	0	0	0	509	604	
10	0	0	0	0	508	604	
11	0	0	0	0	509	604	
12	0	0	0	0	509	604	
13	0	0	0	0	508	604	
14	0	0	0	0	508	604	
15	0	0	0	0	507	604	
0	0	0	0	0	507	604	
1	0	0	0	0	507	604	
2	0	0	0	0	507	604	
3	0	0	0	0	507	605	
4	0	0	0	0	507	605	
5	0	0	0	0	508	604	
6	0	0	0	0	508	604	
7	0	0	0	0	508	604	
8	0	0	0	0	507	604	
9	0	0	0	0	507	604	
10	0	0	0	0	507	604	
11	0	0	0	0	507	604	
12	0	0	0	0	507	604	
13	0	0	0	0	508	604	
14	0	0	0	0	508	604	
15	0	0	0	0	507	604	
0	0	0	0	0	508	604	
1	0	0	0	0	508	604	
2	0	0	0	0	508	604	
3	0	0	0	0	508	604	
4	0	0	0	0	508	605	
5	0	0	0	0	508	605	
6	0	0	0	0	508	604	
7	0	0	0	0	508	605	
8	0	0	0	0	508	604	
9	0	0	0	0	508	604	
10	0	0	0	0	508	605	
11	0	0	0	0	508	604	
12	0	0	0	0	508	605	
13	0	0	0	0	508	604	
14	0	0	0	0	508	605	
15	0	0	0	0	508	605	
0	0	0	0	0	508	604	
1	0	0	0	0	508	605	
2	0	0	0	0	508	605	
3	0	0	0	0	508	605	
4	0	0	0	0	509	605	
5	0	0	0	0	509	604	
6	0	0	0	0	509	605	
7	0	0	0	0	510	604	
8	0	0	0	0	510	605	
9	0	0	0	0	510	605	
10	0	0	0	0	509	605	
11	0	0	0	0	509	605	
12	0	0	0	0	509	605	
13	0	0	0	0	509	605	
14	0	0	0	0	510	605	
15	0	0	0	0	510	605	
0	0	0	0	0	510	605	
1	0	0	0	0	509	605	
2	0	0	0	0	509	605	
3	0	0	0	0	509	604	
4	0	0	0	0	508	604	
5	0	0	0	0	508	605	
6	0	0	0	0	508	605	
7	0	0	0	0	508	605	
8	0	0	0	0	508	605	
9	0	0	0	0	508	604	
10	0	0	0	0	508	605	
11	0	0	0	0	507	604	
12	0	0	0	0	506	604	
13	0	0	0	0	506	604	
14	0	0	0	0	506	605	
15	0	0	0	0	506	605	
0	0	0	0	0	505	606	
1	0	0	0	0	504	605	
2	0	0	0	0	504	604	
3	0	0	0	0	504	605	
4	0	0	0	0	504	605	
5	0	0	0	0	504	604	
6	0	0	0	0	504	604	
7	0	0	0	0	505	604	
8	0	0	0	0	505	604	
9	0	0	0	0	505	604	
10	0	0	0	0	506	604	
11	0	0	0	0	507	604	
12	0	0	0	0	507	604	
13	0	0	0	0	507	604	
14	0	0	0	0	507	604	
15	0	0	0	0	507	604	
0	0	0	0	0	507	605	
1	0	0	0	0	507	604	
2	0	0	0	0	507	604	
3	0	0	0	0	507	604	
4	0	0	0	0	506	604	
5	0	0	0	0	506	604	
6	0	0	0	0	506	604	
7	0	0	0	0	505	604	
8	0	0	0	0	505	604	
9	0	0	0	0	504	604	
10	0	0	0	0	504	604	
11	0	0	0	0	504	604	
12	0	0	0	0	503	604	
13	0	0	0	0	503	604	
14	0	0	0	0	503	603	
15	0	0	0	0	502	603	
0	0	0	0	0	502	604	
1	0	0	0	0	502	603	
2	0	0	0	0	502	604	
3	0	0	0	0	502	603	
4	0	0	0	0	502	604	
5	0	0	0	0	502	603	
6	0	0	0	0	502	603	
7	0	0	0	0	503	604	
8	0	0	0	0	503	603	
9	0	0	0	0	503	604	
10	0	0	0	0	504	603	
11	0	0	0	0	504	604	
12	0	0	0	0	504	604	
13	0	0	0	0	504	604	
14	0	0	0	0	504	604	
15	0	0	0	0	506	604	
0	0	0	0	0	506	604	
1	0	0	0	0	506	604	
2	0	0	0	0	506	603	
3	0	0	0	0	505	603	
4	0	0	0	0	505	604	
5	0	0	0	0	505	604	
6	0	0	0	0	506	604	
7	0	0	0	0	505	604	
8	0	0	0	0	505	604	
9	0	0	0	0	504	604	
10	0	0	0	0	504	604	
11	0	0	0	0	505	604	
12	0	0	0	0	504	604	
13	0	0	0	0	504	604	
14	0	0	0	0	504	604	
15	0	0	0	0	504	604	
0	0	0	0	0	504	604	
1	0	0	0	0	504	604	
2	0	0	0	0	504	604	
3	0	0	0	0	504	604	
4	0	0	0	0	503	604	
5	0	0	0	0	504	605	
6	0	0	0	0	503	604	
7	0	0	0	0	503	604	
8	0	0	0	0	504	605	
9	0	0	0	0	503	604	
10	0	0	0	0	503	604	
11	0	0	0	0	504	604	
12	0	0	0	0	504	605	
13	0	0	0	0	504	605	
14	0	0	0	0	504	604	
15	0	0	0	0	505	604	
0	0	0	0	0	505	604	
1	0	0	0	0	505	604	
2	0	0	0	0	507	604	
3	0	0	0	0	507	604	
4	0	0	0	0	507	605	
5	0	0	0	0	507	604	
6	0	0	0	0	507	604	
7	0	0	0	0	507	604	
8	0	0	0	0	506	605	
9	0	0	0	0	505	605	
10	0	0	0	0	505	605	
11	0	0	0	0	505	604	
12	0	0	0	0	505	604	
13	0	0	0	0	505	604	
14	0	0	0	0	505	604	
15	0	0	0	0	505	605	
0	0	0	0	0	505	604	
1	0	0	0	0	505	604	
2	0	0	0	0	505	604	
3	0	0	0	0	506	604	
4	0	0	0	0	507	604	
5	0	0	0	0	507	604	
6	0	0	0	0	507	604	
7	0	0	0	0	506	604	
8	0	0	0	0	507	605	
9	0	0	0	0	507	605	
10	0	0	0	0	507	604	
11	0	0	0	0	507	604	
12	0	0	0	0	507	605	
13	0	0	0	0	507	604	
14	0	0	0	0	507	605	
15	0	0	0	0	507	605	
0	0	0	0	0	507	605	
1	0	0	0	0	506	604	
2	0	0	0	0	505	604	
3	0	0	0	0	505	604	
4	0	0	0	0	505	605	
5	0	0	0	0	505	604	
6	0	0	0	0	505	605	
7	0	0	0	0	506	604	
8	0	0	0	0	505	604	
9	0	0	0	0	505	604	
10	0	0	0	0	505	604	
11	0	0	0	0	505	604	
12	0	0	0	0	505	605	
13	0	0	0	0	504	604	
14	0	0	0	0	504	604	
15	0	0	0	0	504	605	
0	0	0	0	0	504	605	
1	0	0	0	0	504	605	
2	0	0	0	0	504	604	
3	0	0	0	0	504	604	
4	0	0	0	0	504	604	
5	0	0	0	0	504	604	
6	0	0	0	0	504	604	
7	0	0	0	0	503	604	
8	0	0	0	0	503	604	
9	0	0	0	0	503	604	
10	0	0	0	0	502	604	
11	0	0	0	0	502	604	
12	0	0	0	0	501	604	
13	0	0	0	0	501	604	
14	0	0	0	0	501	604	
15	0	0	0	0	500	604	
0	0	0	0	0	501	604	
1	0	0	0	0	500	604	
2	0	0	0	0	500	604	
3	0	0	0	0	501	604	
4	0	0	0	0	500	603	
5	0	0	0	0	501	604	
6	0	0	0	0	502	604	
7	0	0	0	0	502	603	
8	0	0	0	0	502	603	
9	0	0	0	0	502	603	
10	0	0	0	0	503	603	
11	0	0	0	0	503	604	
12	0	0	0	0	503	603	
13	0	0	0	0	503	604	
14	0	0	0	0	502	603	
15	0	0	0	0	502	603	
0	0	0	0	0	502	604	
1	0	0	0	0	503	604	
2	0	0	0	0	503	604	
3	0	0	0	0	502	604	
4	0	0	0	0	503	604	
5	0	0	0	0	503	604	
6	0	0	0	0	504	604	
7	0	0	0	0	504	603	
8	0	0	0	0	503	604	
9	0	0	0	0	503	604	
10	0	0	0	0	504	604	
11	0	0	0	0	504	604	
12	0	0	0	0	503	604	
13	0	0	0	0	502	603	
14	0	0	0	0	502	604	
15	0	0	0	0	501	604	
0	0	0	0	0	501	604	
1	0	0	0	0	500	603	
2	0	0	0	0	499	603	
3	0	0	0	0	499	604	
4	0	0	0	0	498	604	
5	0	0	0	0	497	603	
6	0	0	0	0	496	604	
7	0	0	0	0	493	604	
8	0	0	0	0	492	604	
9	0	0	0	0	491	604	
10	0	0	0	0	489	604	
11	0	0	0	0	488	604	
12	0	0	0	0	487	604	
13	0	0	0	0	486	604	
14	0	0	0	0	483	604	
15	0	0	0	0	480	604	
0	0	0	0	0	478	604	
1	0	0	0	0	475	604	
2	0	0	0	0	471	604	
3	0	0	0	0	466	604	
4	0	0	0	0	461	604	
5	0	0	0	0	457	604	
6	0	0	0	0	451	604	
7	0	0	0	0	446	604	
8	0	0	0	0	441	604	
9	0	0	0	0	438	604	
10	0	0	0	0	438	604	
11	0	0	0	0	440	604	
12	0	0	0	0	446	604	
13	0	0	0	0	454	604	
14	0	0	0	0	464	605	
15	0	0	0	0	473	604	
0	0	0	0	0	482	604	
1	0	0	0	0	493	604	
2	0	0	0	0	505	604	
3	0	0	0	0	518	605	
4	0	0	0	0	531	604	
5	0	0	0	0	541	604	
6	0	0	0	0	551	605	
7	0	0	0	0	561	604	
8	0	0	0	0	567	605	
9	0	0	0	0	570	604	
10	0	0	0	0	573	605	
11	0	0	0	0	576	605	
12	0	0	0	0	579	605	
13	0	0	0	0	581	605	
14	0	0	0	0	582	605	
15	0	0	0	0	582	605	
0	0	0	0	0	583	605	
1	0	0	0	0	586	605	
2	0	0	0	0	588	606	
3	0	0	0	0	586	605	
4	0	0	0	0	582	605	
5	0	0	0	0	579	605	
6	0	0	0	0	576	605	
7	0	0	0	0	572	605	
8	0	0	0	0	572	606	
9	0	0	0	0	571	605	
10	0	0	0	0	572	605	
11	0	0	0	0	575	605	
12	0	0	0	0	579	605	
13	0	0	0	0	579	606	
14	0	0	0	0	575	605	
15	0	0	0	0	572	606	
0	0	0	0	0	566	605	
1	0	0	0	0	559	606	
2	0	0	0	0	551	605	
3	0	0	0	0	543	605	
4	0	0	0	0	536	605	
5	0	0	0	0	528	605	
6	0	0	0	0	521	605	
7	0	0	0	0	515	605	
8	0	0	0	0	510	606	
9	0	0	0	0	506	605	
10	0	0	0	0	502	605	
11	0	0	0	0	499	605	
12	0	0	0	0	496	604	
13	0	0	0	0	494	604	
14	0	0	0	0	492	604	
15	0	0	0	0	490	604	
0	0	0	0	0	489	605	
1	0	0	0	0	489	605	
2	0	0	0	0	488	604	
3	0	0	0	0	487	604	
4	0	0	0	0	486	604	
5	0	0	0	0	486	605	
6	0	0	0	0	486	604	
7	0	0	0	0	486	604	
8	0	0	0	0	486	606	
9	0	0	0	0	487	604	
10	0	0	0	0	487	604	
11	0	0	0	0	487	604	
12	0	0	0	0	486	604	
13	0	0	0	0	487	605	
14	0	0	0	0	486	604	
15	0	0	0	0	485	604	
0	0	0	0	0	485	604	
1	0	0	0	0	485	603	
2	0	0	0	0	485	604	
3	0	0	0	0	484	604	
4	0	0	0	0	484	604	
5	0	0	0	0	484	604	
6	0	0	0	0	484	604	
7	0	0	0	0	484	605	
8	0	0	0	0	484	604	
9	0	0	0	0	483	604	
10	0	0	0	0	483	604	
11	0	0	0	0	483	603	
12	0	0	0	0	484	603	
13	0	0	0	0	484	604	
14	0	0	0	0	484	603	
15	0	0	0	0	483	603	
0	0	0	0	0	483	604	
1	0	0	0	0	483	604	
2	0	0	0	0	483	604	
3	0	0	0	0	483	603	
4	0	0	0	0	484	604	
5	0	0	0	0	483	603	
6	0	0	0	0	484	604	
7	0	0	0	0	484	604	
8	0	0	0	0	484	604	
9	0	0	0	0	485	604	
10	0	0	0	0	484	604	
11	0	0	0	0	484	604	
12	0	0	0	0	484	604	
13	0	0	0	0	484	604	
14	0	0	0	0	484	604	
15	0	0	0	0	485	604	
0	0	0	0	0	485	604	
1	0	0	0	0	485	603	
2	0	0	0	0	485	604	
3	0	0	0	0	485	604	
4	0	0	0	0	485	603	
5	0	0	0	0	486	603	
6	0	0	0	0	486	603	
7	0	0	0	0	486	604	
8	0	0	0	0	487	604	
9	0	0	0	0	487	603	
10	0	0	0	0	487	604	
11	0	0	0	0	487	603	
12	0	0	0	0	487	604	
13	0	0	0	0	488	604	
14	0	0	0	0	487	604	
15	0	0	0	0	487	604	
0	0	0	0	0	487	604	
1	0	0	0	0	487	603	
2	0	0	0	0	487	603	
3	0	0	0	0	488	604	
4	0	0	0	0	487	604	
5	0	0	0	0	487	604	
6	0	0	0	0	487	604	
7	0	0	0	0	487	605	
8	0	0	0	0	488	604	
9	0	0	0	0	487	604	
10	0	0	0	0	487	604	
11	0	0	0	0	487	604	
12	0	0	0	0	487	604	
13	0	0	0	0	487	604	
14	0	0	0	0	488	604	
15	0	0	0	0	488	604	
0	0	0	0	0	488	604	
1	0	0	0	0	488	605	
2	0	0	0	0	487	604	
3	0	0	0	0	487	604	
4	0	0	0	0	487	604	
5	0	0	0	0	486	605	
6	0	0	0	0	486	604	
7	0	0	0	0	486	605	
8	0	0	0	0	486	605	
9	0	0	0	0	486	604	
10	0	0	0	0	487	605	
11	0	0	0	0	487	605	
12	0	0	0	0	487	605	
13	0	0	0	0	487	605	
14	0	0	0	0	487	605	
15	0	0	0	0	486	604	
0	0	0	0	0	487	605	
1	0	0	0	0	487	604	
2	0	0	0	0	487	605	
3	0	0	0	0	488	604	
4	0	0	0	0	488	604	
5	0	0	0	0	487	605	
6	0	0	0	0	487	604	
7	0	0	0	0	487	605	
8	0	0	0	0	487	605	
9	0	0	0	0	487	605	
10	0	0	0	0	487	604	
11	0	0	0	0	486	605	
12	0	0	0	0	486	605	
13	0	0	0	0	484	606	
14	0	0	0	0	484	605	
15	0	0	0	0	484	605	
0	0	0	0	0	484	606	
1	0	0	0	0	484	606	
2	0	0	0	0	485	605	
3	0	0	0	0	485	605	
4	0	0	0	0	486	604	
5	0	0	0	0	485	604	
6	0	0	0	0	486	605	
7	0	0	0	0	485	604	
8	0	0	0	0	484	604	
9	0	0	0	0	485	605	
10	0	0	0	0	485	605	
11	0	0	0	0	485	605	
12	0	0	0	0	485	605	
13	0	0	0	0	485	604	
14	0	0	0	0	485	604	
15	0	0	0	0	485	604	
0	0	0	0	0	485	605	
1	0	0	0	0	486	605	
2	0	0	0	0	486	605	
3	0	0	0	0	485	604	
4	0	0	0	0	485	605	
5	0	0	0	0	485	605	
6	0	0	0	0	485	604	
7	0	0	0	0	485	604	
8	0	0	0	0	485	605	
9	0	0	0	0	486	604	
10	0	0	0	0	486	604	
11	0	0	0	0	486	604	
12	0	0	0	0	486	605	
13	0	0	0	0	485	605	
14	0	0	0	0	485	604	
15	0	0	0	0	485	605	
0	0	0	0	0	484	605	
1	0	0	0	0	483	604	
2	0	0	0	0	483	604	
3	0	0	0	0	483	604	
4	0	0	0	0	482	604	
5	0	0	0	0	481	604	
6	0	0	0	0	480	604	
7	0	0	0	0	480	604	
8	0	0	0	0	480	605	
9	0	0	0	0	481	604	
10	0	0	0	0	481	604	
11	0	0	0	0	481	604	
12	0	0	0	0	481	604	
13	0	0	0	0	481	603	
14	0	0	0	0	481	604	
15	0	0	0	0	481	604	
0	0	0	0	0	481	604	
1	0	0	0	0	481	604	
2	0	0	0	0	481	603	
3	0	0	0	0	482	604	
4	0	0	0	0	481	604	
5	0	0	0	0	482	604	
6	0	0	0	0	483	603	
7	0	0	0	0	482	603	
8	0	0	0	0	482	604	
9	0	0	0	0	482	604	
10	0	0	0	0	482	603	
11	0	0	0	0	483	604	
12	0	0	0	0	482	603	
13	0	0	0	0	482	604	
14	0	0	0	0	482	604	
15	0	0	0	0	481	604	
0	0	0	0	0	482	604	
1	0	0	0	0	481	603	
2	0	0	0	0	481	604	
3	0	0	0	0	481	604	
4	0	0	0	0	481	604	
5	0	0	0	0	480	604	
6	0	0	0	0	481	604	
7	0	0	0	0	481	604	
8	0	0	0	0	481	604	
9	0	0	0	0	482	604	
10	0	0	0	0	482	604	
11	0	0	0	0	481	604	
12	0	0	0	0	482	604	
13	0	0	0	0	481	604	
14	0	0	0	0	482	604	
15	0	0	0	0	482	604	
0	0	0	0	0	482	603	
1	0	0	0	0	483	604	
2	0	0	0	0	483	603	
3	0	0	0	0	483	604	
4	0	0	0	0	484	604	
5	0	0	0	0	484	603	
6	0	0	0	0	486	604	
7	0	0	0	0	486	604	
8	0	0	0	0	487	604	
9	0	0	0	0	488	603	
10	0	0	0	0	488	604	
11	0	0	0	0	489	604	
12	0	0	0	0	489	604	
13	0	0	0	0	490	604	
14	0	0	0	0	490	604	
15	0	0	0	0	491	605	
0	0	0	0	0	491	605	
1	0	0	0	0	492	605	
2	0	0	0	0	492	605	
3	0	0	0	0	492	604	
4	0	0	0	0	492	605	
5	0	0	0	0	492	604	
6	0	0	0	0	492	604	
7	0	0	0	0	492	604	
8	0	0	0	0	493	605	
9	0	0	0	0	493	605	
10	0	0	0	0	494	604	
11	0	0	0	0	495	604	
12	0	0	0	0	496	604	
13	0	0	0	0	496	604	
14	0	0	0	0	497	604	
15	0	0	0	0	499	605	
0	0	0	0	0	500	605	
1	0	0	0	0	501	605	
2	0	0	0	0	502	604	
3	0	0	0	0	503	604	
4	0	0	0	0	504	605	
5	0	0	0	0	504	605	
6	0	0	0	0	505	604	
7	0	0	0	0	506	604	
8	0	0	0	0	507	604	
9	0	0	0	0	508	604	
10	0	0	0	0	510	604	
11	0	0	0	0	511	604	
12	0	0	0	0	512	604	
13	0	0	0	0	512	605	
14	0	0	0	0	513	605	
15	0	0	0	0	514	605	
0	0	0	0	0	515	605	
1	0	0	0	0	516	604	
2	0	0	0	0	517	604	
3	0	0	0	0	519	605	
4	0	0	0	0	519	605	
5	0	0	0	0	520	605	
6	0	0	0	0	521	605	
7	0	0	0	0	521	604	
8	0	0	0	0	522	605	
9	0	0	0	0	522	605	
10	0	0	0	0	523	605	
11	0	0	0	0	524	605	
12	0	0	0	0	524	605	
13	0	0	0	0	525	606	
14	0	0	0	0	525	605	
15	0	0	0	0	525	605	
0	0	0	0	0	526	606	
1	0	0	0	0	526	604	
2	0	0	0	0	527	604	
3	0	0	0	0	528	605	
4	0	0	0	0	527	604	
5	0	0	0	0	528	604	
6	0	0	0	0	528	605	
7	0	0	0	0	528	605	
8	0	0	0	0	528	606	
9	0	0	0	0	528	604	
10	0	0	0	0	529	605	
11	0	0	0	0	528	604	
12	0	0	0	0	529	605	
13	0	0	0	0	529	605	
14	0	0	0	0	529	606	
15	0	0	0	0	530	605	
0	0	0	0	0	530	605	
1	0	0	0	0	531	604	
2	0	0	0	0	531	604	
3	0	0	0	0	531	604	
4	0	0	0	0	531	604	
5	0	0	0	0	530	604	
6	0	0	0	0	530	605	
7	0	0	0	0	530	604	
8	0	0	0	0	530	605	
9	0	0	0	0	530	604	
10	0	0	0	0	530	605	
11	0	0	0	0	531	605	
12	0	0	0	0	531	604	
13	0	0	0	0	530	604	
14	0	0	0	0	530	604	
15	0	0	0	0	530	604	
0	0	0	0	0	530	605	
1	0	0	0	0	530	604	
2	0	0	0	0	530	604	
3	0	0	0	0	529	604	
4	0	0	0	0	529	603	
5	0	0	0	0	530	604	
6	0	0	0	0	530	604	
7	0	0	0	0	529	603	
8	0	0	0	0	530	604	
9	0	0	0	0	529	604	
10	0	0	0	0	529	603	
11	0	0	0	0	529	603	
12	0	0	0	0	528	604	
13	0	0	0	0	527	603	
14	0	0	0	0	527	603	
15	0	0	0	0	527	604	
0	0	0	0	0	527	604	
1	0	0	0	0	527	603	
2	0	0	0	0	527	604	
3	0	0	0	0	526	604	
4	0	0	0	0	526	604	
5	0	0	0	0	525	604	
6	0	0	0	0	525	604	
7	0	0	0	0	524	604	
8	0	0	0	0	524	604	
9	0	0	0	0	523	604	
10	0	0	0	0	522	604	
11	0	0	0	0	522	604	
12	0	0	0	0	521	604	
13	0	0	0	0	521	604	
14	0	0	0	0	521	604	
15	0	0	0	0	521	604	
0	0	0	0	0	521	604	
1	0	0	0	0	522	603	
2	0	0	0	0	522	603	
3	0	0	0	0	523	604	
4	0	0	0	0	522	603	
5	0	0	0	0	521	603	
6	0	0	0	0	521	603	
7	0	0	0	0	520	604	
8	0	0	0	0	520	604	
9	0	0	0	0	520	604	
10	0	0	0	0	520	604	
11	0	0	0	0	519	604	
12	0	0	0	0	519	604	
13	0	0	0	0	518	604	
14	0	0	0	0	518	604	
15	0	0	0	0	517	604	
0	0	0	0	0	517	604	
1	0	0	0	0	518	604	
2	0	0	0	0	517	604	
3	0	0	0	0	517	604	
4	0	0	0	0	516	604	
5	0	0	0	0	516	604	
6	0	0	0	0	516	604	
7	0	0	0	0	517	605	
8	0	0	0	0	516	604	
9	0	0	0	0	516	604	
10	0	0	0	0	516	604	
11	0	0	0	0	516	605	
12	0	0	0	0	516	604	
13	0	0	0	0	515	604	
14	0	0	0	0	515	604	
15	0	0	0	0	515	604	
0	0	0	0	0	515	605	
1	0	0	0	0	515	604	
2	0	0	0	0	515	604	
3	0	0	0	0	515	604	
4	0	0	0	0	515	605	
5	0	0	0	0	515	604	
6	0	0	0	0	515	605	
7	0	0	0	0	514	605	
8	0	0	0	0	514	605	
9	0	0	0	0	515	605	
10	0	0	0	0	514	606	
11	0	0	0	0	515	605	
12	0	0	0	0	515	605	
13	0	0	0	0	514	604	
14	0	0	0	0	515	604	
15	0	0	0	0	515	605	
0	0	0	0	0	515	605	
1	0	0	0	0	514	604	
2	0	0	0	0	514	605	
3	0	0	0	0	514	605	
4	0	0	0	0	513	604	
5	0	0	0	0	513	605	
6	0	0	0	0	513	606	
7	0	0	0	0	512	605	
8	0	0	0	0	512	606	
9	0	0	0	0	513	605	
10	0	0	0	0	513	605	
11	0	0	0	0	513	605	
12	0	0	0	0	512	605	
13	0	0	0	0	512	605	
14	0	0	0	0	511	605	
15	0	0	0	0	511	606	
0	0	0	0	0	511	605	
1	0	0	0	0	511	605	
2	0	0	0	0	510	605	
3	0	0	0	0	509	605	
4	0	0	0	0	510	605	
5	0	0	0	0	510	605	
6	0	0	0	0	510	605	
7	0	0	0	0	509	605	
8	0	0	0	0	509	605	
9	0	0	0	0	510	605	
10	0	0	0	0	508	605	
11	0	0	0	0	508	605	
12	0	0	0	0	508	604	
13	0	0	0	0	509	604	
14	0	0	0	0	509	604	
15	0	0	0	0	509	604	
0	0	0	0	0	509	604	
1	0	0	0	0	508	604	
2	0	0	0	0	508	604	
3	0	0	0	0	508	604	
4	0	0	0	0	509	604	
5	0	0	0	0	508	604	
6	0	0	0	0	509	604	
7	0	0	0	0	509	603	
8	0	0	0	0	510	604	
9	0	0	0	0	510	604	
10	0	0	0	0	510	604	
11	0	0	0	0	509	604	
12	0	0	0	0	509	604	
13	0	0	0	0	510	604	
14	0	0	0	0	509	604	
15	0	0	0	0	509	604	
0	0	0	0	0	509	604	
1	0	0	0	0	509	604	
2	0	0	0	0	510	604	
3	0	0	0	0	510	604	
4	0	0	0	0	509	604	
5	0	0	0	0	510	604	
6	0	0	0	0	510	604	
7	0	0	0	0	510	604	
8	0	0	0	0	509	604	
9	0	0	0	0	509	604	
10	0	0	0	0	509	604	
11	0	0	0	0	509	603	
12	0	0	0	0	509	604	
13	0	0	0	0	510	604	
14	0	0	0	0	510	604	
15	0	0	0	0	510	604	
0	0	0	0	0	510	604	
1	0	0	0	0	509	604	
2	0	0	0	0	508	604	
3	0	0	0	0	507	603	
4	0	0	0	0	507	604	
5	0	0	0	0	507	604	
6	0	0	0	0	507	604	
7	0	0	0	0	507	604	
8	0	0	0	0	507	604	
9	0	0	0	0	507	604	
10	0	0	0	0	507	603	
11	0	0	0	0	507	604	
12	0	0	0	0	508	604	
13	0	0	0	0	508	604	
14	0	0	0	0	508	604	
15	0	0	0	0	508	604	
0	0	0	0	0	508	605	
1	0	0	0	0	508	604	
2	0	0	0	0	508	604	
3	0	0	0	0	507	603	
4	0	0	0	0	507	604	
5	0	0	0	0	508	604	
6	0	0	0	0	508	604	
7	0	0	0	0	507	604	
8	0	0	0	0	508	605	
9	0	0	0	0	508	604	
10	0	0	0	0	508	604	
11	0	0	0	0	508	604	
12	0	0	0	0	508	604	
13	0	0	0	0	508	604	
14	0	0	0	0	507	604	
15	0	0	0	0	507	604	
0	0	0	0	0	507	604	
1	0	0	0	0	507	603	
2	0	0	0	0	508	604	
3	0	0	0	0	508	604	
4	0	0	0	0	508	604	
5	0	0	0	0	509	604	
6	0	0	0	0	508	604	
7	0	0	0	0	509	604	
8	0	0	0	0	508	604	
9	0	0	0	0	508	604	
10	0	0	0	0	508	604	
11	0	0	0	0	508	604	
12	0	0	0	0	509	604	
13	0	0	0	0	508	604	
14	0	0	0	0	509	604	
15	0	0	0	0	509	604	
0	0	0	0	0	509	605	
1	0	0	0	0	510	604	
2	0	0	0	0	509	604	
3	0	0	0	0	509	605	
4	0	0	0	0	509	604	
5	0	0	0	0	508	605	
6	0	0	0	0	507	605	
7	0	0	0	0	506	604	
8	0	0	0	0	507	605	
9	0	0	0	0	507	604	
10	0	0	0	0	507	604	
11	0	0	0	0	507	604	
12	0	0	0	0	506	604	
13	0	0	0	0	506	604	
14	0	0	0	0	506	604	
15	0	0	0	0	507	604	
0	0	0	0	0	507	605	
1	0	0	0	0	507	604	
2	0	0	0	0	507	605	
3	0	0	0	0	507	605	
4	0	0	0	0	507	604	
5	0	0	0	0	506	604	
6	0	0	0	0	507	605	
7	0	0	0	0	506	606	
8	0	0	0	0	505	605	
9	0	0	0	0	506	605	
10	0	0	0	0	506	605	
11	0	0	0	0	505	605	
12	0	0	0	0	505	605	
13	0	0	0	0	505	605	
14	0	0	0	0	505	605	
15	0	0	0	0	506	605	
0	0	0	0	0	506	605	
1	0	0	0	0	508	605	
2	0	0	0	0	508	604	
3	0	0	0	0	509	605	
4	0	0	0	0	509	604	
5	0	0	0	0	509	604	
6	0	0	0	0	509	604	
7	0	0	0	0	508	604	
8	0	0	0	0	508	606	
9	0	0	0	0	508	604	
10	0	0	0	0	508	605	
11	0	0	0	0	508	605	
12	0	0	0	0	507	604	
13	0	0	0	0	507	604	
14	0	0	0	0	507	604	
15	0	0	0	0	506	604	
0	0	0	0	0	506	604	
1	0	0	0	0	506	604	
2	0	0	0	0	506	604	
3	0	0	0	0	506	604	
4	0	0	0	0	507	604	
5	0	0	0	0	507	604	
6	0	0	0	0	507	604	
7	0	0	0	0	508	604	
8	0	0	0	0	508	604	
9	0	0	0	0	508	604	
10	0	0	0	0	508	604	
11	0	0	0	0	509	604	
12	0	0	0	0	509	604	
13	0	0	0	0	509	604	
14	0	0	0	0	508	603	
15	0	0	0	0	508	604	
0	0	0	0	0	508	604	
1	0	0	0	0	509	604	
2	0	0	0	0	508	604	
3	0	0	0	0	508	604	
4	0	0	0	0	507	604	
5	0	0	0	0	506	604	
6	0	0	0	0	507	604	
7	0	0	0	0	507	604	
8	0	0	0	0	506	604	
9	0	0	0	0	506	604	
10	0	0	0	0	506	604	
11	0	0	0	0	506	604	
12	0	0	0	0	505	604	
13	0	0	0	0	505	603	
14	0	0	0	0	504	604	
15	0	0	0	0	505	604	
0	0	0	0	0	505	604	
1	0	0	0	0	505	604	
2	0	0	0	0	505	604	
3	0	0	0	0	505	604	
4	0	0	0	0	504	604	
5	0	0	0	0	505	604	
6	0	0	0	0	505	604	
7	0	0	0	0	504	604	
8	0	0	0	0	504	604	
9	0	0	0	0	504	604	
10	0	0	0	0	504	604	
11	0	0	0	0	503	604	
12	0	0	0	0	503	603	
13	0	0	0	0	504	604	
14	0	0	0	0	503	604	
15	0	0	0	0	503	603	
0	0	0	0	0	503	604	
1	0	0	0	0	503	604	
2	0	0	0	0	504	604	
3	0	0	0	0	504	604	
4	0	0	0	0	504	604	
5	0	0	0	0	503	604	
6	0	0	0	0	503	604	
7	0	0	0	0	502	604	
8	0	0	0	0	502	604	
9	0	0	0	0	502	604	
10	0	0	0	0	502	603	
11	0	0	0	0	502	604	
12	0	0	0	0	502	604	
13	0	0	0	0	503	604	
14	0	0	0	0	503	604	
15	0	0	0	0	503	604	
0	0	0	0	0	503	604	
1	0	0	0	0	504	604	
2	0	0	0	0	504	604	
3	0	0	0	0	504	604	
4	0	0	0	0	504	604	
5	0	0	0	0	504	604	
6	0	0	0	0	504	604	
7	0	0	0	0	503	604	
8	0	0	0	0	503	604	
9	0	0	0	0	503	604	
10	0	0	0	0	503	603	
11	0	0	0	0	503	604	
12	0	0	0	0	502	604	
13	0	0	0	0	503	604	
14	0	0	0	0	503	604	
15	0	0	0	0	502	604	
0	0	0	0	0	502	604	
1	0	0	0	0	502	604	
2	0	0	0	0	502	604	
3	0	0	0	0	503	604	
4	0	0	0	0	503	604	
5	0	0	0	0	502	604	
6	0	0	0	0	502	604	
7	0	0	0	0	501	604	
8	0	0	0	0	501	604	
9	0	0	0	0	501	604	
10	0	0	0	0	501	604	
11	0	0	0	0	501	604	
12	0	0	0	0	500	604	
13	0	0	0	0	500	604	
14	0	0	0	0	500	604	
15	0	0	0	0	500	604	
0	0	0	0	0	500	604	
1	0	0	0	0	500	604	
2	0	0	0	0	501	604	
3	0	0	0	0	502	604	
4	0	0	0	0	502	604	
5	0	0	0	0	502	604	
6	0	0	0	0	502	604	
7	0	0	0	0	503	604	
8	0	0	0	0	502	604	
9	0	0	0	0	502	604	
10	0	0	0	0	502	604	
11	0	0	0	0	501	604	
12	0	0	0	0	501	604	
13	0	0	0	0	500	604	
14	0	0	0	0	499	604	
15	0	0	0	0	499	605	
0	0	0	0	0	499	604	
1	0	0	0	0	499	604	
2	0	0	0	0	500	604	
3	0	0	0	0	500	605	
4	0	0	0	0	501	604	
5	0	0	0	0	501	605	
6	0	0	0	0	501	604	
7	0	0	0	0	500	605	
8	0	0	0	0	502	605	
9	0	0	0	0	502	604	
10	0	0	0	0	502	605	
11	0	0	0	0	503	604	
12	0	0	0	0	502	605	
13	0	0	0	0	503	605	
14	0	0	0	0	504	605	
15	0	0	0	0	505	605	
0	0	0	0	0	506	605	
1	0	0	0	0	506	605	
2	0	0	0	0	506	605	
3	0	0	0	0	506	605	
4	0	0	0	0	506	604	
5	0	0	0	0	506	605	
6	0	0	0	0	506	604	
7	0	0	0	0	507	605	
8	0	0	0	0	506	604	
9	0	0	0	0	506	605	
10	0	0	0	0	506	605	
11	0	0	0	0	506	604	
12	0	0	0	0	506	605	
13	0	0	0	0	506	604	
14	0	0	0	0	507	604	
15	0	0	0	0	508	604	
0	0	0	0	0	508	605	
1	0	0	0	0	508	604	
2	0	0	0	0	508	604	
3	0	0	0	0	509	604	
4	0	0	0	0	509	605	
5	0	0	0	0	509	604	
6	0	0	0	0	510	605	
7	0	0	0	0	510	604	
8	0	0	0	0	510	605	
9	0	0	0	0	510	605	
10	0	0	0	0	508	604	
11	0	0	0	0	508	605	
12	0	0	0	0	508	605	
13	0	0	0	0	508	605	
14	0	0	0	0	509	605	
15	0	0	0	0	509	604	
0	0	0	0	0	509	605	
1	0	0	0	0	508	605	
2	0	0	0	0	506	604	
3	0	0	0	0	504	604	
4	0	0	0	0	504	604	
5	0	0	0	0	504	605	
6	0	0	0	0	504	604	
7	0	0	0	0	504	604	
8	0	0	0	0	504	604	
9	0	0	0	0	504	604	
10	0	0	0	0	504	604	
11	0	0	0	0	504	604	
12	0	0	0	0	504	604	
13	0	0	0	0	503	604	
14	0	0	0	0	503	604	
15	0	0	0	0	502	604	
0	0	0	0	0	502	604	
1	0	0	0	0	502	604	
2	0	0	0	0	502	604	
3	0	0	0	0	503	604	
4	0	0	0	0	503	604	
5	0	0	0	0	503	604	
6	0	0	0	0	503	604	
7	0	0	0	0	504	604	
8	0	0	0	0	503	604	
9	0	0	0	0	504	604	
10	0	0	0	0	504	605	
11	0	0	0	0	504	604	
12	0	0	0	0	503	604	
13	0	0	0	0	503	604	
14	0	0	0	0	502	605	
15	0	0	0	0	502	604	
0	0	0	0	0	502	605	
1	0	0	0	0	502	604	
2	0	0	0	0	502	604	
3	0	0	0	0	502	604	
4	0	0	0	0	503	604	
5	0	0	0	0	502	604	
6	0	0	0	0	503	604	
7	0	0	0	0	503	605	
8	0	0	0	0	503	605	
9	0	0	0	0	503	604	
10	0	0	0	0	504	605	
11	0	0	0	0	505	604	
12	0	0	0	0	505	605	
13	0	0	0	0	505	604	
14	0	0	0	0	505	604	
15	0	0	0	0	504	605	
0	0	0	0	0	504	604	
1	0	0	0	0	504	604	
2	0	0	0	0	503	605	
3	0	0	0	0	503	605	
4	0	0	0	0	503	605	
5	0	0	0	0	504	604	
6	0	0	0	0	504	604	
7	0	0	0	0	504	605	
8	0	0	0	0	503	605	
9	0	0	0	0	503	605	
10	0	0	0	0	503	605	
11	0	0	0	0	503	604	
12	0	0	0	0	504	604	
13	0	0	0	0	504	604	
14	0	0	0	0	504	605	
15	0	0	0	0	504	604	
0	0	0	0	0	503	605	
1	0	0	0	0	503	605	
2	0	0	0	0	502	605	
3	0	0	0	0	502	605	
4	0	0	0	0	501	605	
5	0	0	0	0	500	605	
6	0	0	0	0	499	605	
7	0	0	0	0	498	605	
8	0	0	0	0	497	605	
9	0	0	0	0	495	604	
10	0	0	0	0	494	604	
11	0	0	0	0	492	605	
12	0	0	0	0	490	604	
13	0	0	0	0	487	604	
14	0	0	0	0	484	604	
15	0	0	0	0	481	604	
0	0	0	0	0	478	604	
1	0	0	0	0	474	604	
2	0	0	0	0	470	604	
3	0	0	0	0	464	604	
4	0	0	0	0	459	604	
5	0	0	0	0	454	604	
6	0	0	0	0	448	604	
7	0	0	0	0	444	604	
8	0	0	0	0	441	604	
9	0	0	0	0	440	604	
10	0	0	0	0	442	604	
11	0	0	0	0	447	604	
12	0	0	0	0	455	603	
13	0	0	0	0	464	604	
14	0	0	0	0	473	603	
15	0	0	0	0	482	604	
0	0	0	0	0	491	604	
1	0	0	0	0	503	603	
2	0	0	0	0	515	603	
3	0	0	0	0	528	603	
4	0	0	0	0	539	603	
5	0	0	0	0	549	603	
6	0	0	0	0	558	603	
7	0	0	0	0	565	603	
8	0	0	0	0	569	604	
9	0	0	0	0	572	604	
10	0	0	0	0	574	603	
11	0	0	0	0	576	604	
12	0	0	0	0	579	603	
13	0	0	0	0	580	604	
14	0	0	0	0	580	603	
15	0	0	0	0	581	603	
0	0	0	0	0	583	604	
1	0	0	0	0	584	604	
2	0	0	0	0	582	603	
3	0	0	0	0	578	604	
4	0	0	0	0	574	603	
5	0	0	0	0	570	604	
6	0	0	0	0	566	604	
7	0	0	0	0	564	603	
8	0	0	0	0	565	604	
9	0	0	0	0	566	604	
10	0	0	0	0	568	604	
11	0	0	0	0	573	604	
12	0	0	0	0	574	604	
13	0	0	0	0	572	604	
14	0	0	0	0	568	603	
15	0	0	0	0	562	604	
0	0	0	0	0	556	604	
1	0	0	0	0	548	603	
2	0	0	0	0	541	605	
3	0	0	0	0	534	604	
4	0	0	0	0	526	604	
5	0	0	0	0	520	604	
6	0	0	0	0	514	604	
7	0	0	0	0	509	604	
8	0	0	0	0	504	605	
9	0	0	0	0	500	604	
10	0	0	0	0	497	605	
11	0	0	0	0	494	605	
12	0	0	0	0	492	605	
13	0	0	0	0	489	605	
14	0	0	0	0	488	605	
15	0	0	0	0	487	605	
0	0	0	0	0	486	605	
1	0	0	0	0	486	605	
2	0	0	0	0	485	605	
3	0	0	0	0	485	604	
4	0	0	0	0	485	604	
5	0	0	0	0	485	605	
6	0	0	0	0	485	605	
7	0	0	0	0	485	605	
8	0	0	0	0	486	605	
9	0	0	0	0	486	605	
10	0	0	0	0	486	604	
11	0	0	0	0	486	606	
12	0	0	0	0	486	605	
13	0	0	0	0	486	604	
14	0	0	0	0	486	605	
15	0	0	0	0	485	605	
0	0	0	0	0	485	606	
1	0	0	0	0	485	605	
2	0	0	0	0	485	605	
3	0	0	0	0	486	604	
4	0	0	0	0	486	604	
5	0	0	0	0	486	605	
6	0	0	0	0	486	604	
7	0	0	0	0	486	605	
8	0	0	0	0	486	605	
9	0	0	0	0	487	604	
10	0	0	0	0	487	604	
11	0	0	0	0	487	604	
12	0	0	0	0	487	605	
13	0	0	0	0	487	604	
14	0	0	0	0	487	604	
15	0	0	0	0	487	604	
0	0	0	0	0	487	605	
1	0	0	0	0	487	605	
2	0	0	0	0	486	604	
3	0	0	0	0	486	604	
4	0	0	0	0	487	604	
5	0	0	0	0	486	604	
6	0	0	0	0	486	604	
7	0	0	0	0	486	604	
8	0	0	0	0	486	604	
9	0	0	0	0	486	604	
10	0	0	0	0	486	603	
11	0	0	0	0	486	603	
12	0	0	0	0	486	603	
13	0	0	0	0	486	603	
14	0	0	0	0	487	603	
15	0	0	0	0	486	603	
0	0	0	0	0	486	604	
1	0	0	0	0	487	603	
2	0	0	0	0	487	604	
3	0	0	0	0	487	604	
4	0	0	0	0	487	604	
5	0	0	0	0	487	604	
6	0	0	0	0	487	604	
7	0	0	0	0	487	603	
8	0	0	0	0	487	604	
9	0	0	0	0	487	603	
10	0	0	0	0	488	604	
11	0	0	0	0	488	604	
12	0	0	0	0	488	603	
13	0	0	0	0	488	604	
14	0	0	0	0	489	603	
15	0	0	0	0	489	604	
0	0	0	0	0	489	604	
1	0	0	0	0	489	604	
2	0	0	0	0	489	604	
3	0	0	0	0	489	604	
4	0	0	0	0	490	603	
5	0	0	0	0	490	604	
6	0	0	0	0	490	604	
7	0	0	0	0	491	604	
8	0	0	0	0	490	604	
9	0	0	0	0	489	604	
10	0	0	0	0	489	604	
11	0	0	0	0	489	604	
12	0	0	0	0	490	604	
13	0	0	0	0	490	604	
14	0	0	0	0	490	604	
15	0	0	0	0	490	604	
0	0	0	0	0	491	604	
1	0	0	0	0	491	604	
2	0	0	0	0	492	604	
3	0	0	0	0	491	604	
4	0	0	0	0	491	604	
5	0	0	0	0	492	604	
6	0	0	0	0	492	604	
7	0	0	0	0	492	604	
8	0	0	0	0	491	604	
9	0	0	0	0	491	604	
10	0	0	0	0	490	604	
11	0	0	0	0	490	605	
12	0	0	0	0	490	605	
13	0	0	0	0	490	604	
14	0	0	0	0	490	605	
15	0	0	0	0	489	604	
0	0	0	0	0	490	605	
1	0	0	0	0	490	604	
2	0	0	0	0	489	604	
3	0	0	0	0	489	604	
4	0	0	0	0	489	603	
5	0	0	0	0	490	604	
6	0	0	0	0	489	604	
7	0	0	0	0	489	604	
8	0	0	0	0	489	604	
9	0	0	0	0	489	603	
10	0	0	0	0	489	604	
11	0	0	0	0	488	604	
12	0	0	0	0	488	604	
13	0	0	0	0	488	604	
14	0	0	0	0	488	603	
15	0	0	0	0	488	604	
0	0	0	0	0	487	604	
1	0	0	0	0	487	603	
2	0	0	0	0	487	604	
3	0	0	0	0	487	603	
4	0	0	0	0	487	603	
5	0	0	0	0	487	603	
6	0	0	0	0	488	604	
7	0	0	0	0	488	604	
8	0	0	0	0	488	604	
9	0	0	0	0	489	605	
10	0	0	0	0	488	604	
11	0	0	0	0	489	604	
12	0	0	0	0	489	604	
13	0	0	0	0	489	604	
14	0	0	0	0	489	604	
15	0	0	0	0	488	604	
0	0	0	0	0	489	605	
1	0	0	0	0	489	604	
2	0	0	0	0	489	604	
3	0	0	0	0	488	605	
4	0	0	0	0	488	605	
5	0	0	0	0	487	606	
6	0	0	0	0	488	605	
7	0	0	0	0	487	604	
8	0	0	0	0	488	605	
9	0	0	0	0	488	604	
10	0	0	0	0	488	604	
11	0	0	0	0	487	604	
12	0	0	0	0	487	604	
13	0	0	0	0	487	604	
14	0	0	0	0	487	604	
15	0	0	0	0	487	605	
0	0	0	0	0	487	605	
1	0	0	0	0	487	605	
2	0	0	0	0	487	605	
3	0	0	0	0	487	605	
4	0	0	0	0	487	604	
5	0	0	0	0	486	605	
6	0	0	0	0	486	605	
7	0	0	0	0	486	605	
8	0	0	0	0	486	605	
9	0	0	0	0	486	605	
10	0	0	0	0	486	605	
11	0	0	0	0	486	605	
12	0	0	0	0	486	605	
13	0	0	0	0	486	605	
14	0	0	0	0	486	605	
15	0	0	0	0	487	604	
0	0	0	0	0	487	604	
1	0	0	0	0	486	605	
2	0	0	0	0	486	604	
3	0	0	0	0	485	605	
4	0	0	0	0	485	604	
5	0	0	0	0	485	604	
6	0	0	0	0	486	604	
7	0	0	0	0	485	604	
8	0	0	0	0	485	605	
9	0	0	0	0	485	604	
10	0	0	0	0	485	605	
11	0	0	0	0	484	605	
12	0	0	0	0	484	605	
13	0	0	0	0	484	604	
14	0	0	0	0	484	604	
15	0	0	0	0	484	604	
0	0	0	0	0	485	605	
1	0	0	0	0	484	604	
2	0	0	0	0	484	604	
3	0	0	0	0	484	604	
4	0	0	0	0	484	603	
5	0	0	0	0	485	604	
6	0	0	0	0	486	604	
7	0	0	0	0	486	604	
8	0	0	0	0	485	604	
9	0	0	0	0	485	604	
10	0	0	0	0	486	604	
11	0	0	0	0	484	604	
12	0	0	0	0	484	604	
13	0	0	0	0	484	604	
14	0	0	0	0	484	604	
15	0	0	0	0	484	604	
0	0	0	0	0	484	604	
1	0	0	0	0	484	604	
2	0	0	0	0	484	603	
3	0	0	0	0	484	603	
4	0	0	0	0	485	604	
5	0	0	0	0	485	604	
6	0	0	0	0	484	603	
7	0	0	0	0	484	603	
8	0	0	0	0	485	604	
9	0	0	0	0	485	604	
10	0	0	0	0	485	604	
11	0	0	0	0	486	604	
12	0	0	0	0	486	604	
13	0	0	0	0	487	604	
14	0	0	0	0	488	604	
15	0	0	0	0	489	604	
0	0	0	0	0	490	604	
1	0	0	0	0	491	604	
2	0	0	0	0	491	604	
3	0	0	0	0	492	604	
4	0	0	0	0	494	604	
5	0	0	0	0	495	604	
6	0	0	0	0	496	604	
7	0	0	0	0	496	604	
8	0	0	0	0	497	604	
9	0	0	0	0	497	604	
10	0	0	0	0	498	605	
11	0	0	0	0	499	604	
12	0	0	0	0	499	604	
13	0	0	0	0	500	605	
14	0	0	0	0	501	604	
15	0	0	0	0	502	604	
0	0	0	0	0	503	604	
1	0	0	0	0	504	604	
2	0	0	0	0	505	604	
3	0	0	0	0	506	604	
4	0	0	0	0	507	604	
5	0	0	0	0	508	604	
6	0	0	0	0	509	604	
7	0	0	0	0	510	604	
8	0	0	0	0	511	604	
9	0	0	0	0	512	604	
10	0	0	0	0	512	604	
11	0	0	0	0	512	604	
12	0	0	0	0	513	604	
13	0	0	0	0	514	604	
14	0	0	0	0	515	604	
15	0	0	0	0	516	604	
0	0	0	0	0	517	604	
1	0	0	0	0	518	604	
2	0	0	0	0	519	604	
3	0	0	0	0	520	604	
4	0	0	0	0	521	604	
5	0	0	0	0	522	604	
6	0	0	0	0	523	604	
7	0	0	0	0	524	604	
8	0	0	0	0	524	604	
9	0	0	0	0	524	604	
10	0	0	0	0	525	604	
11	0	0	0	0	526	605	
12	0	0	0	0	526	604	
13	0	0	0	0	526	604	
14	0	0	0	0	527	604	
15	0	0	0	0	527	604	
0	0	0	0	0	528	604	
1	0	0	0	0	528	604	
2	0	0	0	0	529	604	
3	0	0	0	0	529	604	
4	0	0	0	0	530	604	
5	0	0	0	0	530	605	
6	0	0	0	0	531	605	
7	0	0	0	0	531	605	
8	0	0	0	0	532	605	
9	0	0	0	0	532	604	
10	0	0	0	0	533	605	
11	0	0	0	0	533	604	
12	0	0	0	0	533	604	
13	0	0	0	0	534	604	
14	0	0	0	0	533	604	
15	0	0	0	0	533	604	
0	0	0	0	0	533	605	
1	0	0	0	0	533	604	
2	0	0	0	0	533	605	
3	0	0	0	0	532	604	
4	0	0	0	0	532	604	
5	0	0	0	0	531	604	
6	0	0	0	0	531	604	
7	0	0	0	0	532	605	
8	0	0	0	0	531	605	
9	0	0	0	0	531	605	
10	0	0	0	0	531	604	
11	0	0	0	0	531	604	
12	0	0	0	0	531	605	
13	0	0	0	0	530	604	
14	0	0	0	0	531	605	
15	0	0	0	0	530	605	
0	0	0	0	0	530	604	
1	0	0	0	0	531	604	
2	0	0	0	0	531	604	
3	0	0	0	0	531	604	
4	0	0	0	0	530	605	
5	0	0	0	0	531	604	
6	0	0	0	0	531	604	
7	0	0	0	0	530	604	
8	0	0	0	0	529	604	
9	0	0	0	0	529	604	
10	0	0	0	0	529	604	
11	0	0	0	0	529	604	
12	0	0	0	0	529	604	
13	0	0	0	0	529	604	
14	0	0	0	0	529	604	
15	0	0	0	0	529	604	
0	0	0	0	0	529	604	
1	0	0	0	0	528	603	
2	0	0	0	0	528	604	
3	0	0	0	0	527	604	
4	0	0	0	0	527	604	
5	0	0	0	0	527	604	
6	0	0	0	0	526	604	
7	0	0	0	0	526	604	
8	0	0	0	0	525	604	
9	0	0	0	0	525	604	
10	0	0	0	0	525	604	
11	0	0	0	0	524	604	
12	0	0	0	0	525	604	
13	0	0	0	0	525	604	
14	0	0	0	0	524	604	
15	0	0	0	0	524	605	
0	0	0	0	0	523	605	
1	0	0	0	0	523	604	
2	0	0	0	0	524	604	
3	0	0	0	0	524	604	
4	0	0	0	0	524	604	
5	0	0	0	0	524	604	
6	0	0	0	0	523	605	
7	0	0	0	0	523	604	
8	0	0	0	0	523	605	
9	0	0	0	0	522	604	
10	0	0	0	0	522	604	
11	0	0	0	0	523	604	
12	0	0	0	0	522	604	
13	0	0	0	0	522	604	
14	0	0	0	0	522	604	
15	0	0	0	0	521	604	
0	0	0	0	0	521	605	
1	0	0	0	0	521	604	
2	0	0	0	0	520	605	
3	0	0	0	0	520	606	
4	0	0	0	0	520	604	
5	0	0	0	0	520	605	
6	0	0	0	0	520	605	
7	0	0	0	0	520	604	
8	0	0	0	0	521	605	
9	0	0	0	0	521	605	
10	0	0	0	0	520	605	
11	0	0	0	0	520	604	
12	0	0	0	0	521	605	
13	0	0	0	0	520	604	
14	0	0	0	0	519	604	
15	0	0	0	0	519	604	
0	0	0	0	0	519	605	
1	0	0	0	0	519	604	
2	0	0	0	0	519	604	
3	0	0	0	0	519	604	
4	0	0	0	0	518	604	
5	0	0	0	0	518	604	
6	0	0	0	0	518	604	
7	0	0	0	0	518	604	
8	0	0	0	0	517	604	
9	0	0	0	0	517	604	
10	0	0	0	0	516	604	
11	0	0	0	0	516	604	
12	0	0	0	0	515	604	
13	0	0	0	0	515	604	
14	0	0	0	0	515	605	
15	0	0	0	0	514	604	
0	0	0	0	0	514	605	
1	0	0	0	0	514	604	
2	0	0	0	0	514	605	
3	0	0	0	0	513	605	
4	0	0	0	0	513	604	
5	0	0	0	0	513	604	
6	0	0	0	0	512	604	
7	0	0	0	0	513	604	
8	0	0	0	0	513	604	
9	0	0	0	0	514	604	
10	0	0	0	0	514	604	
11	0	0	0	0	514	604	
12	0	0	0	0	514	603	
13	0	0	0	0	515	604	
14	0	0	0	0	515	604	
15	0	0	0	0	515	604	
0	0	0	0	0	515	604	
1	0	0	0	0	515	604	
2	0	0	0	0	516	604	
3	0	0	0	0	517	604	
4	0	0	0	0	517	604	
5	0	0	0	0	517	604	
6	0	0	0	0	518	604	
7	0	0	0	0	518	604	
8	0	0	0	0	518	604	
9	0	0	0	0	517	604	
10	0	0	0	0	517	604	
11	0	0	0	0	517	604	
12	0	0	0	0	517	604	
13	0	0	0	0	516	604	
14	0	0	0	0	516	604	
15	0	0	0	0	516	604	
0	0	0	0	0	515	604	
1	0	0	0	0	516	604	
2	0	0	0	0	515	604	
3	0	0	0	0	516	604	
4	0	0	0	0	516	604	
5	0	0	0	0	516	604	
6	0	0	0	0	515	604	
7	0	0	0	0	515	604	
8	0	0	0	0	516	604	
9	0	0	0	0	516	604	
10	0	0	0	0	517	604	
11	0	0	0	0	518	605	
12	0	0	0	0	517	604	
13	0	0	0	0	517	604	
14	0	0	0	0	517	604	
15	0	0	0	0	516	604	
0	0	0	0	0	516	604	
1	0	0	0	0	515	604	
2	0	0	0	0	515	604	
3	0	0	0	0	514	604	
4	0	0	0	0	513	604	
5	0	0	0	0	513	604	
6	0	0	0	0	513	604	
7	0	0	0	0	512	604	
8	0	0	0	0	512	604	
9	0	0	0	0	512	604	
10	0	0	0	0	512	604	
11	0	0	0	0	512	604	
12	0	0	0	0	512	604	
13	0	0	0	0	512	605	
14	0	0	0	0	512	604	
15	0	0	0	0	512	605	
0	0	0	0	0	512	605	
1	0	0	0	0	512	604	
2	0	0	0	0	512	604	
3	0	0	0	0	512	604	
4	0	0	0	0	512	604	
5	0	0	0	0	512	604	
6	0	0	0	0	512	604	
7	0	0	0	0	512	604	
8	0	0	0	0	511	604	
9	0	0	0	0	511	604	
10	0	0	0	0	511	604	
11	0	0	0	0	511	604	
12	0	0	0	0	511	604	
13	0	0	0	0	511	604	
14	0	0	0	0	511	605	
15	0	0	0	0	511	604	
0	0	0	0	0	511	605	
1	0	0	0	0	510	604	
2	0	0	0	0	510	604	
3	0	0	0	0	510	604	
4	0	0	0	0	509	604	
5	0	0	0	0	508	604	
6	0	0	0	0	508	604	
7	0	0	0	0	508	604	
8	0	0	0	0	508	605	
9	0	0	0	0	509	604	
10	0	0	0	0	510	604	
11	0	0	0	0	509	605	
12	0	0	0	0	509	604	
13	0	0	0	0	509	604	
14	0	0	0	0	508	604	
15	0	0	0	0	509	604	
0	0	0	0	0	509	604	
1	0	0	0	0	509	604	
2	0	0	0	0	509	604	
3	0	0	0	0	508	604	
4	0	0	0	0	509	604	
5	0	0	0	0	509	605	
6	0	0	0	0	509	604	
7	0	0	0	0	509	605	
8	0	0	0	0	509	604	
9	0	0	0	0	509	605	
10	0	0	0	0	509	604	
11	0	0	0	0	510	604	
12	0	0	0	0	510	604	
13	0	0	0	0	509	604	
14	0	0	0	0	509	604	
15	0	0	0	0	509	604	
0	0	0	0	0	508	604	
1	0	0	0	0	508	604	
2	0	0	0	0	508	604	
3	0	0	0	0	508	605	
4	0	0	0	0	508	604	
5	0	0	0	0	508	604	
6	0	0	0	0	508	605	
7	0	0	0	0	508	604	
8	0	0	0	0	508	604	
9	0	0	0	0	508	604	
10	0	0	0	0	507	604	
11	0	0	0	0	507	604	
12	0	0	0	0	508	604	
13	0	0	0	0	508	605	
14	0	0	0	0	507	605	
15	0	0	0	0	507	605	
0	0	0	0	0	507	604	
1	0	0	0	0	507	604	
2	0	0	0	0	507	604	
3	0	0	0	0	507	604	
4	0	0	0	0	507	604	
5	0	0	0	0	508	604	
6	0	0	0	0	507	605	
7	0	0	0	0	508	605	
8	0	0	0	0	507	604	
9	0	0	0	0	507	604	
10	0	0	0	0	507	604	
11	0	0	0	0	507	604	
12	0	0	0	0	506	604	
13	0	0	0	0	507	605	
14	0	0	0	0	507	604	
15	0	0	0	0	507	605	
0	0	0	0	0	507	605	
1	0	0	0	0	508	604	
2	0	0	0	0	507	604	
3	0	0	0	0	507	604	
4	0	0	0	0	507	604	
5	0	0	0	0	507	604	
6	0	0	0	0	507	604	
7	0	0	0	0	508	604	
8	0	0	0	0	508	605	
9	0	0	0	0	508	604	
10	0	0	0	0	507	604	
11	0	0	0	0	507	604	
12	0	0	0	0	506	604	
13	0	0	0	0	507	604	
14	0	0	0	0	507	604	
15	0	0	0	0	507	604	
0	0	0	0	0	507	605	
1	0	0	0	0	508	604	
2	0	0	0	0	507	604	
3	0	0	0	0	507	605	
4	0	0	0	0	507	604	
5	0	0	0	0	507	605	
6	0	0	0	0	508	605	
7	0	0	0	0	507	604	
8	0	0	0	0	508	605	
9	0	0	0	0	508	604	
10	0	0	0	0	508	604	
11	0	0	0	0	507	604	
12	0	0	0	0	507	604	
13	0	0	0	0	506	604	
14	0	0	0	0	506	604	
15	0	0	0	0	505	604	
0	0	0	0	0	504	604	
1	0	0	0	0	504	604	
2	0	0	0	0	504	604	
3	0	0	0	0	504	604	
4	0	0	0	0	503	604	
5	0	0	0	0	503	604	
6	0	0	0	0	503	604	
7	0	0	0	0	503	604	
8	0	0	0	0	503	604	
9	0	0	0	0	503	604	
10	0	0	0	0	504	604	
11	0	0	0	0	503	604	
12	0	0	0	0	503	605	
13	0	0	0	0	502	604	
14	0	0	0	0	502	604	
15	0	0	0	0	503	604	
0	0	0	0	0	504	604	
1	0	0	0	0	504	604	
2	0	0	0	0	504	604	
3	0	0	0	0	504	605	
4	0	0	0	0	504	604	
5	0	0	0	0	504	604	
6	0	0	0	0	504	605	
7	0	0	0	0	503	605	
8	0	0	0	0	503	605	
9	0	0	0	0	502	605	
10	0	0	0	0	503	605	
11	0	0	0	0	504	604	
12	0	0	0	0	504	604	
13	0	0	0	0	504	604	
14	0	0	0	0	504	605	
15	0	0	0	0	504	604	
0	0	0	0	0	505	605	
1	0	0	0	0	505	604	
2	0	0	0	0	505	604	
3	0	0	0	0	506	605	
4	0	0	0	0	506	604	
5	0	0	0	0	506	605	
6	0	0	0	0	506	604	
7	0	0	0	0	506	604	
8	0	0	0	0	505	605	
9	0	0	0	0	504	604	
10	0	0	0	0	504	605	
11	0	0	0	0	504	605	
12	0	0	0	0	504	604	
13	0	0	0	0	503	604	
14	0	0	0	0	503	604	
15	0	0	0	0	504	604	
0	0	0	0	0	503	605	
1	0	0	0	0	503	604	
2	0	0	0	0	503	604	
3	0	0	0	0	503	605	
4	0	0	0	0	503	605	
5	0	0	0	0	502	604	
6	0	0	0	0	503	604	
7	0	0	0	0	503	604	
8	0	0	0	0	504	604	
9	0	0	0	0	504	604	
10	0	0	0	0	504	604	
11	0	0	0	0	504	604	
12	0	0	0	0	503	604	
13	0	0	0	0	503	604	
14	0	0	0	0	503	604	
15	0	0	0	0	503	604	
0	0	0	0	0	503	604	
1	0	0	0	0	504	604	
2	0	0	0	0	504	604	
3	0	0	0	0	504	604	
4	0	0	0	0	504	604	
5	0	0	0	0	504	604	
6	0	0	0	0	505	604	
7	0	0	0	0	504	604	
8	0	0	0	0	504	605	
9	0	0	0	0	503	604	
10	0	0	0	0	503	604	
11	0	0	0	0	502	604	
12	0	0	0	0	502	604	
13	0	0	0	0	503	604	
14	0	0	0	0	503	604	
15	0	0	0	0	503	605	
0	0	0	0	0	503	604	
1	0	0	0	0	503	605	
2	0	0	0	0	503	605	
3	0	0	0	0	502	604	
4	0	0	0	0	501	604	
5	0	0	0	0	501	604	
6	0	0	0	0	500	604	
7	0	0	0	0	500	605	
8	0	0	0	0	500	604	
9	0	0	0	0	501	604	
10	0	0	0	0	502	604	
11	0	0	0	0	503	603	
12	0	0	0	0	503	604	
13	0	0	0	0	503	604	
14	0	0	0	0	504	604	
15	0	0	0	0	504	604	
0	0	0	0	0	504	604	
1	0	0	0	0	504	604	
2	0	0	0	0	505	605	
3	0	0	0	0	505	604	
4	0	0	0	0	505	604	
5	0	0	0	0	505	604	
6	0	0	0	0	506	604	
7	0	0	0	0	507	604	
8	0	0	0	0	508	605	
9	0	0	0	0	508	604	
10	0	0	0	0	508	604	
11	0	0	0	0	508	605	
12	0	0	0	0	507	604	
13	0	0	0	0	507	604	
14	0	0	0	0	507	604	
15	0	0	0	0	507	604	
0	0	0	0	0	508	604	
1	0	0	0	0	507	604	
2	0	0	0	0	508	604	
3	0	0	0	0	509	604	
4	0	0	0	0	509	604	
5	0	0	0	0	509	604	
6	0	0	0	0	510	604	
7	0	0	0	0	511	604	
8	0	0	0	0	511	604	
9	0	0	0	0	511	604	
10	0	0	0	0	512	604	
11	0	0	0	0	511	605	
12	0	0	0	0	511	604	
13	0	0	0	0	510	605	
14	0	0	0	0	510	604	
15	0	0	0	0	510	605	
0	0	0	0	0	509	604	
1	0	0	0	0	510	604	
2	0	0	0	0	510	604	
3	0	0	0	0	510	604	
4	0	0	0	0	509	604	
5	0	0	0	0	509	604	
6	0	0	0	0	508	605	
7	0	0	0	0	507	604	
8	0	0	0	0	507	605	
9	0	0	0	0	508	604	
10	0	0	0	0	507	604	
11	0	0	0	0	507	605	
12	0	0	0	0	507	604	
13	0	0	0	0	507	604	
14	0	0	0	0	506	605	
15	0	0	0	0	506	605	
0	0	0	0	0	505	605	
1	0	0	0	0	505	604	
2	0	0	0	0	505	604	
3	0	0	0	0	505	604	
4	0	0	0	0	505	604	
5	0	0	0	0	505	604	
6	0	0	0	0	505	604	
7	0	0	0	0	505	604	
8	0	0	0	0	505	605	
9	0	0	0	0	505	604	
10	0	0	0	0	505	604	
11	0	0	0	0	506	605	
12	0	0	0	0	505	604	
13	0	0	0	0	505	605	
14	0	0	0	0	505	604	
15	0	0	0	0	506	605	
0	0	0	0	0	506	605	
1	0	0	0	0	507	604	
2	0	0	0	0	507	605	
3	0	0	0	0	507	604	
4	0	0	0	0	506	604	
5	0	0	0	0	505	604	
6	0	0	0	0	505	604	
7	0	0	0	0	505	605	
8	0	0	0	0	505	604	
9	0	0	0	0	505	605	
10	0	0	0	0	504	605	
11	0	0	0	0	504	604	
12	0	0	0	0	504	604	
13	0	0	0	0	503	604	
14	0	0	0	0	502	604	
15	0	0	0	0	502	604	
0	0	0	0	0	501	604	
1	0	0	0	0	501	604	
2	0	0	0	0	500	604	
3	0	0	0	0	500	604	
4	0	0	0	0	500	604	
5	0	0	0	0	500	604	
6	0	0	0	0	500	604	
7	0	0	0	0	500	604	
8	0	0	0	0	499	604	
9	0	0	0	0	499	604	
10	0	0	0	0	499	604	
11	0	0	0	0	499	604	
12	0	0	0	0	499	604	
13	0	0	0	0	499	604	
14	0	0	0	0	499	604	
15	0	0	0	0	499	604	
0	0	0	0	0	499	604	
1	0	0	0	0	499	604	
2	0	0	0	0	499	605	
3	0	0	0	0	498	604	
4	0	0	0	0	497	604	
5	0	0	0	0	497	604	
6	0	0	0	0	497	605	
7	0	0	0	0	496	605	
8	0	0	0	0	496	605	
9	0	0	0	0	494	604	
10	0	0	0	0	493	604	
11	0	0	0	0	491	604	
12	0	0	0	0	489	604	
13	0	0	0	0	489	604	
14	0	0	0	0	487	604	
15	0	0	0	0	486	605	
0	0	0	0	0	483	605	
1	0	0	0	0	481	604	
2	0	0	0	0	478	604	
3	0	0	0	0	474	605	
4	0	0	0	0	471	604	
5	0	0	0	0	466	604	
6	0	0	0	0	461	604	
7	0	0	0	0	456	604	
8	0	0	0	0	451	604	
9	0	0	0	0	446	605	
10	0	0	0	0	441	605	
11	0	0	0	0	438	604	
12	0	0	0	0	436	604	
13	0	0	0	0	436	604	
14	0	0	0	0	440	604	
15	0	0	0	0	446	605	
0	0	0	0	0	455	604	
1	0	0	0	0	464	604	
2	0	0	0	0	472	604	
3	0	0	0	0	483	604	
4	0	0	0	0	495	604	
5	0	0	0	0	508	604	
6	0	0	0	0	521	604	
7	0	0	0	0	535	604	
8	0	0	0	0	547	605	
9	0	0	0	0	559	604	
10	0	0	0	0	570	604	
11	0	0	0	0	576	604	
12	0	0	0	0	581	604	
13	0	0	0	0	587	604	
14	0	0	0	0	591	605	
15	0	0	0	0	593	604	
0	0	0	0	0	595	605	
1	0	0	0	0	595	604	
2	0	0	0	0	595	604	
3	0	0	0	0	597	604	
4	0	0	0	0	597	604	
5	0	0	0	0	592	604	
6	0	0	0	0	585	604	
7	0	0	0	0	577	604	
8	0	0	0	0	571	604	
9	0	0	0	0	565	604	
10	0	0	0	0	563	605	
11	0	0	0	0	561	604	
12	0	0	0	0	561	604	
13	0	0	0	0	562	605	
14	0	0	0	0	565	604	
15	0	0	0	0	566	604	
0	0	0	0	0	565	605	
1	0	0	0	0	563	604	
2	0	0	0	0	559	605	
3	0	0	0	0	555	605	
4	0	0	0	0	550	605	
5	0	0	0	0	543	605	
6	0	0	0	0	536	605	
7	0	0	0	0	530	605	
8	0	0	0	0	524	605	
9	0	0	0	0	517	605	
10	0	0	0	0	511	604	
11	0	0	0	0	507	605	
12	0	0	0	0	502	605	
13	0	0	0	0	497	605	
14	0	0	0	0	495	604	
15	0	0	0	0	492	604	
0	0	0	0	0	490	605	
1	0	0	0	0	488	605	
2	0	0	0	0	487	604	
3	0	0	0	0	486	605	
4	0	0	0	0	485	604	
5	0	0	0	0	483	605	
6	0	0	0	0	483	605	
7	0	0	0	0	482	605	
8	0	0	0	0	483	605	
9	0	0	0	0	483	604	
10	0	0	0	0	483	604	
11	0	0	0	0	483	604	
12	0	0	0	0	483	604	
13	0	0	0	0	483	605	
14	0	0	0	0	483	604	
15	0	0	0	0	483	604	
0	0	0	0	0	483	604	
1	0	0	0	0	482	605	
2	0	0	0	0	483	604	
3	0	0	0	0	483	604	
4	0	0	0	0	483	604	
5	0	0	0	0	483	604	
6	0	0	0	0	482	604	
7	0	0	0	0	482	604	
8	0	0	0	0	481	604	
9	0	0	0	0	481	604	
10	0	0	0	0	480	604	
11	0	0	0	0	480	604	
12	0	0	0	0	480	604	
13	0	0	0	0	479	604	
14	0	0	0	0	480	604	
15	0	0	0	0	480	604	
0	0	0	0	0	480	605	
1	0	0	0	0	480	604	
2	0	0	0	0	480	604	
3	0	0	0	0	481	604	
4	0	0	0	0	481	604	
5	0	0	0	0	480	604	
6	0	0	0	0	480	604	
7	0	0	0	0	480	604	
8	0	0	0	0	481	604	
9	0	0	0	0	480	604	
10	0	0	0	0	480	604	
11	0	0	0	0	481	604	
12	0	0	0	0	481	604	
13	0	0	0	0	481	604	
14	0	0	0	0	481	604	
15	0	0	0	0	481	604	
0	0	0	0	0	482	604	
1	0	0	0	0	483	604	
2	0	0	0	0	483	604	
3	0	0	0	0	483	604	
4	0	0	0	0	483	604	
5	0	0	0	0	484	604	
6	0	0	0	0	483	603	
7	0	0	0	0	484	604	
8	0	0	0	0	484	604	
9	0	0	0	0	484	604	
10	0	0	0	0	484	604	
11	0	0	0	0	484	603	
12	0	0	0	0	484	604	
13	0	0	0	0	484	604	
14	0	0	0	0	485	604	
15	0	0	0	0	486	604	
0	0	0	0	0	486	604	
1	0	0	0	0	486	604	
2	0	0	0	0	486	604	
3	0	0	0	0	487	604	
4	0	0	0	0	487	605	
5	0	0	0	0	487	605	
6	0	0	0	0	487	605	
7	0	0	0	0	487	605	
8	0	0	0	0	487	606	
9	0	0	0	0	488	604	
10	0	0	0	0	487	605	
11	0	0	0	0	488	605	
12	0	0	0	0	488	604	
13	0	0	0	0	488	605	
14	0	0	0	0	488	605	
15	0	0	0	0	488	604	
0	0	0	0	0	488	606	
1	0	0	0	0	488	605	
2	0	0	0	0	489	605	
3	0	0	0	0	490	605	
4	0	0	0	0	489	604	
5	0	0	0	0	490	605	
6	0	0	0	0	489	605	
7	0	0	0	0	490	604	
8	0	0	0	0	489	605	
9	0	0	0	0	490	604	
10	0	0	0	0	491	604	
11	0	0	0	0	491	605	
12	0	0	0	0	491	604	
13	0	0	0	0	491	605	
14	0	0	0	0	491	604	
15	0	0	0	0	491	604	
0	0	0	0	0	490	605	
1	0	0	0	0	490	605	
2	0	0	0	0	490	605	
3	0	0	0	0	490	604	
4	0	0	0	0	489	604	
5	0	0	0	0	489	604	
6	0	0	0	0	489	604	
7	0	0	0	0	488	605	
8	0	0	0	0	489	605	
9	0	0	0	0	490	605	
10	0	0	0	0	490	604	
11	0	0	0	0	490	604	
12	0	0	0	0	489	604	
13	0	0	0	0	489	604	
14	0	0	0	0	489	604	
15	0	0	0	0	488	604	
0	0	0	0	0	488	604	
1	0	0	0	0	487	604	
2	0	0	0	0	487	604	
3	0	0	0	0	487	604	
4	0	0	0	0	487	604	
5	0	0	0	0	487	604	
6	0	0	0	0	487	604	
7	0	0	0	0	488	604	
8	0	0	0	0	489	604	
9	0	0	0	0	489	604	
10	0	0	0	0	490	604	
11	0	0	0	0	490	604	
12	0	0	0	0	489	604	
13	0	0	0	0	490	604	
14	0	0	0	0	489	604	
15	0	0	0	0	489	605	
0	0	0	0	0	489	605	
1	0	0	0	0	489	605	
2	0	0	0	0	488	605	
3	0	0	0	0	487	605	
4	0	0	0	0	487	604	
5	0	0	0	0	487	604	
6	0	0	0	0	487	604	
7	0	0	0	0	487	604	
8	0	0	0	0	487	605	
9	0	0	0	0	487	604	
10	0	0	0	0	487	604	
11	0	0	0	0	487	604	
12	0	0	0	0	487	604	
13	0	0	0	0	487	604	
14	0	0	0	0	487	604	
15	0	0	0	0	487	604	
0	0	0	0	0	487	604	
1	0	0	0	0	487	604	
2	0	0	0	0	487	604	
3	0	0	0	0	487	604	
4	0	0	0	0	487	605	
5	0	0	0	0	487	604	
6	0	0	0	0	486	605	
7	0	0	0	0	486	604	
8	0	0	0	0	486	604	
9	0	0	0	0	486	604	
10	0	0	0	0	485	605	
11	0	0	0	0	485	604	
12	0	0	0	0	485	604	
13	0	0	0	0	484	604	
14	0	0	0	0	483	605	
15	0	0	0	0	483	604	
0	0	0	0	0	483	605	
1	0	0	0	0	483	604	
2	0	0	0	0	483	604	
3	0	0	0	0	482	604	
4	0	0	0	0	482	604	
5	0	0	0	0	481	604	
6	0	0	0	0	481	604	
7	0	0	0	0	481	604	
8	0	0	0	0	481	605	
9	0	0	0	0	481	604	
10	0	0	0	0	482	605	
11	0	0	0	0	482	604	
12	0	0	0	0	482	604	
13	0	0	0	0	482	603	
14	0	0	0	0	482	603	
15	0	0	0	0	482	604	
0	0	0	0	0	483	604	
1	0	0	0	0	484	603	
2	0	0	0	0	483	604	
3	0	0	0	0	483	604	
4	0	0	0	0	484	604	
5	0	0	0	0	484	604	
6	0	0	0	0	485	604	
7	0	0	0	0	486	604	
8	0	0	0	0	485	604	
9	0	0	0	0	485	604	
10	0	0	0	0	485	603	
11	0	0	0	0	486	604	
12	0	0	0	0	486	604	
13	0	0	0	0	486	604	
14	0	0	0	0	486	603	
15	0	0	0	0	487	604	
0	0	0	0	0	487	604	
1	0	0	0	0	488	604	
2	0	0	0	0	488	604	
3	0	0	0	0	489	604	
4	0	0	0	0	490	604	
5	0	0	0	0	491	604	
6	0	0	0	0	492	604	
7	0	0	0	0	493	605	
8	0	0	0	0	493	605	
9	0	0	0	0	494	604	
10	0	0	0	0	495	604	
11	0	0	0	0	495	604	
12	0	0	0	0	495	605	
13	0	0	0	0	496	605	
14	0	0	0	0	496	605	
15	0	0	0	0	496	605	
0	0	0	0	0	496	606	
1	0	0	0	0	495	605	
2	0	0	0	0	496	605	
3	0	0	0	0	496	605	
4	0	0	0	0	496	605	
5	0	0	0	0	497	605	
6	0	0	0	0	497	604	
7	0	0	0	0	497	605	
8	0	0	0	0	497	605	
9	0	0	0	0	498	605	
10	0	0	0	0	499	606	
11	0	0	0	0	499	604	
12	0	0	0	0	500	605	
13	0	0	0	0	501	605	
14	0	0	0	0	502	605	
15	0	0	0	0	502	604	
0	0	0	0	0	502	605	
1	0	0	0	0	502	605	
2	0	0	0	0	503	604	
3	0	0	0	0	504	604	
4	0	0	0	0	504	604	
5	0	0	0	0	505	604	
6	0	0	0	0	505	604	
7	0	0	0	0	507	604	
8	0	0	0	0	508	605	
9	0	0	0	0	509	605	
10	0	0	0	0	510	604	
11	0	0	0	0	510	604	
12	0	0	0	0	510	604	
13	0	0	0	0	511	604	
14	0	0	0	0	512	604	
15	0	0	0	0	512	603	
0	0	0	0	0	513	604	
1	0	0	0	0	514	604	
2	0	0	0	0	515	603	
3	0	0	0	0	515	604	
4	0	0	0	0	514	603	
5	0	0	0	0	515	604	
6	0	0	0	0	515	603	
7	0	0	0	0	516	604	
8	0	0	0	0	516	604	
9	0	0	0	0	518	604	
10	0	0	0	0	519	604	
11	0	0	0	0	519	604	
12	0	0	0	0	520	604	
13	0	0	0	0	521	604	
14	0	0	0	0	521	604	
15	0	0	0	0	521	603	
0	0	0	0	0	523	604	
1	0	0	0	0	524	604	
2	0	0	0	0	524	604	
3	0	0	0	0	524	603	
4	0	0	0	0	524	604	
5	0	0	0	0	523	604	
6	0	0	0	0	523	604	
7	0	0	0	0	523	604	
8	0	0	0	0	523	604	
9	0	0	0	0	523	604	
10	0	0	0	0	523	604	
11	0	0	0	0	523	604	
12	0	0	0	0	523	605	
13	0	0	0	0	523	604	
14	0	0	0	0	523	604	
15	0	0	0	0	523	604	
0	0	0	0	0	523	605	
1	0	0	0	0	523	604	
2	0	0	0	0	523	605	
3	0	0	0	0	523	605	
4	0	0	0	0	523	604	
5	0	0	0	0	524	604	
6	0	0	0	0	523	605	
7	0	0	0	0	524	604	
8	0	0	0	0	524	605	
9	0	0	0	0	524	604	
10	0	0	0	0	525	605	
11	0	0	0	0	525	605	
12	0	0	0	0	525	605	
13	0	0	0	0	525	605	
14	0	0	0	0	525	604	
15	0	0	0	0	524	605	
0	0	0	0	0	525	605	
1	0	0	0	0	525	605	
2	0	0	0	0	525	605	
3	0	0	0	0	525	605	
4	0	0	0	0	525	605	
5	0	0	0	0	524	605	
6	0	0	0	0	524	604	
7	0	0	0	0	524	606	
8	0	0	0	0	524	605	
9	0	0	0	0	524	605	
10	0	0	0	0	524	605	
11	0	0	0	0	524	605	
12	0	0	0	0	523	605	
13	0	0	0	0	523	605	
14	0	0	0	0	523	606	
15	0	0	0	0	523	605	
0	0	0	0	0	523	606	
1	0	0	0	0	523	605	
2	0	0	0	0	523	605	
3	0	0	0	0	523	605	
4	0	0	0	0	523	606	
5	0	0	0	0	523	605	
6	0	0	0	0	523	605	
7	0	0	0	0	523	605	
8	0	0	0	0	522	606	
9	0	0	0	0	522	606	
10	0	0	0	0	521	605	
11	0	0	0	0	521	606	
12	0	0	0	0	520	605	
13	0	0	0	0	520	606	
14	0	0	0	0	520	605	
15	0	0	0	0	519	605	
0	0	0	0	0	519	605	
1	0	0	0	0	519	604	
2	0	0	0	0	519	604	
3	0	0	0	0	519	604	
4	0	0	0	0	518	604	
5	0	0	0	0	518	604	
6	0	0	0	0	518	604	
7	0	0	0	0	518	604	
8	0	0	0	0	518	605	
9	0	0	0	0	518	605	
10	0	0	0	0	518	605	
11	0	0	0	0	517	605	
12	0	0	0	0	516	605	
13	0	0	0	0	516	605	
14	0	0	0	0	517	605	
15	0	0	0	0	517	605	
0	0	0	0	0	517	604	
1	0	0	0	0	517	604	
2	0	0	0	0	517	604	
3	0	0	0	0	517	604	
4	0	0	0	0	518	604	
5	0	0	0	0	517	604	
6	0	0	0	0	518	604	
7	0	0	0	0	518	604	
8	0	0	0	0	518	604	
9	0	0	0	0	519	604	
10	0	0	0	0	518	603	
11	0	0	0	0	519	604	
12	0	0	0	0	519	604	
13	0	0	0	0	518	604	
14	0	0	0	0	519	604	
15	0	0	0	0	518	603	
0	0	0	0	0	517	604	
1	0	0	0	0	516	604	
2	0	0	0	0	516	604	
3	0	0	0	0	515	604	
4	0	0	0	0	515	604	
5	0	0	0	0	515	604	
6	0	0	0	0	515	604	
7	0	0	0	0	514	603	
8	0	0	0	0	513	604	
9	0	0	0	0	513	604	
10	0	0	0	0	513	604	
11	0	0	0	0	513	604	
12	0	0	0	0	512	604	
13	0	0	0	0	512	604	
14	0	0	0	0	512	604	
15	0	0	0	0	512	604	
0	0	0	0	0	513	604	
1	0	0	0	0	513	604	
2	0	0	0	0	514	604	
3	0	0	0	0	515	604	
4	0	0	0	0	515	604	
5	0	0	0	0	515	604	
6	0	0	0	0	513	603	
7	0	0	0	0	513	604	
8	0	0	0	0	513	604	
9	0	0	0	0	513	604	
10	0	0	0	0	514	604	
11	0	0	0	0	514	604	
12	0	0	0	0	514	604	
13	0	0	0	0	514	604	
14	0	0	0	0	514	605	
15	0	0	0	0	514	605	
0	0	0	0	0	513	605	
1	0	0	0	0	514	605	
2	0	0	0	0	513	605	
3	0	0	0	0	513	605	
4	0	0	0	0	513	605	
5	0	0	0	0	513	605	
6	0	0	0	0	514	606	
7	0	0	0	0	514	604	
8	0	0	0	0	514	605	
9	0	0	0	0	515	604	
10	0	0	0	0	515	605	
11	0	0	0	0	516	606	
12	0	0	0	0	516	605	
13	0	0	0	0	516	605	
14	0	0	0	0	516	605	
15	0	0	0	0	515	605	
0	0	0	0	0	515	606	
1	0	0	0	0	515	605	
2	0	0	0	0	515	605	
3	0	0	0	0	515	606	
4	0	0	0	0	515	606	
5	0	0	0	0	515	606	
6	0	0	0	0	515	605	
7	0	0	0	0	514	605	
8	0	0	0	0	514	606	
9	0	0	0	0	513	605	
10	0	0	0	0	513	606	
11	0	0	0	0	513	605	
12	0	0	0	0	513	605	
13	0	0	0	0	513	605	
14	0	0	0	0	514	605	
15	0	0	0	0	514	605	
0	0	0	0	0	514	605	
1	0	0	0	0	514	604	
2	0	0	0	0	513	605	
3	0	0	0	0	513	605	
4	0	0	0	0	513	605	
5	0	0	0	0	512	605	
6	0	0	0	0	512	604	
7	0	0	0	0	512	604	
8	0	0	0	0	512	605	
9	0	0	0	0	513	604	
10	0	0	0	0	513	604	
11	0	0	0	0	513	604	
12	0	0	0	0	513	605	
13	0	0	0	0	511	604	
14	0	0	0	0	511	604	
15	0	0	0	0	511	604	
0	0	0	0	0	512	605	
1	0	0	0	0	512	604	
2	0	0	0	0	512	604	
3	0	0	0	0	512	605	
4	0	0	0	0	511	604	
5	0	0	0	0	511	604	
6	0	0	0	0	511	604	
7	0	0	0	0	511	604	
8	0	0	0	0	512	605	
9	0	0	0	0	512	604	
10	0	0	0	0	512	604	
11	0	0	0	0	511	604	
12	0	0	0	0	511	604	
13	0	0	0	0	511	604	
14	0	0	0	0	511	604	
15	0	0	0	0	510	604	
0	0	0	0	0	509	604	
1	0	0	0	0	508	605	
2	0	0	0	0	508	604	
3	0	0	0	0	508	604	
4	0	0	0	0	508	604	
5	0	0	0	0	508	604	
6	0	0	0	0	508	604	
7	0	0	0	0	507	604	
8	0	0	0	0	507	604	
9	0	0	0	0	508	604	
10	0	0	0	0	508	604	
11	0	0	0	0	507	604	
12	0	0	0	0	508	604	
13	0	0	0	0	507	604	
14	0	0	0	0	507	604	
15	0	0	0	0	507	604	
0	0	0	0	0	508	604	
1	0	0	0	0	508	604	
2	0	0	0	0	508	604	
3	0	0	0	0	507	604	
4	0	0	0	0	507	603	
5	0	0	0	0	506	604	
6	0	0	0	0	506	604	
7	0	0	0	0	505	604	
8	0	0	0	0	505	604	
9	0	0	0	0	506	604	
10	0	0	0	0	505	604	
11	0	0	0	0	505	604	
12	0	0	0	0	505	604	
13	0	0	0	0	505	604	
14	0	0	0	0	505	604	
15	0	0	0	0	505	604	
0	0	0	0	0	505	604	
1	0	0	0	0	505	604	
2	0	0	0	0	505	605	
3	0	0	0	0	505	604	
4	0	0	0	0	506	604	
5	0	0	0	0	506	604	
6	0	0	0	0	506	604	
7	0	0	0	0	506	604	
8	0	0	0	0	507	605	
9	0	0	0	0	507	604	
10	0	0	0	0	507	604	
11	0	0	0	0	507	604	
12	0	0	0	0	507	604	
13	0	0	0	0	507	604	
14	0	0	0	0	507	604	
15	0	0	0	0	506	604	
0	0	0	0	0	506	604	
1	0	0	0	0	505	604	
2	0	0	0	0	506	605	
3	0	0	0	0	506	604	
4	0	0	0	0	507	605	
5	0	0	0	0	506	605	
6	0	0	0	0	507	605	
7	0	0	0	0	506	605	
8	0	0	0	0	506	605	
9	0	0	0	0	505	604	
10	0	0	0	0	505	605	
11	0	0	0	0	505	605	
12	0	0	0	0	505	605	
13	0	0	0	0	505	605	
14	0	0	0	0	505	605	
15	0	0	0	0	505	605	
0	0	0	0	0	504	605	
1	0	0	0	0	504	605	
2	0	0	0	0	504	605	
3	0	0	0	0	504	605	
4	0	0	0	0	505	605	
5	0	0	0	0	505	605	
6	0	0	0	0	505	605	
7	0	0	0	0	505	605	
8	0	0	0	0	505	606	
9	0	0	0	0	505	605	
10	0	0	0	0	506	605	
11	0	0	0	0	506	606	
12	0	0	0	0	506	606	
13	0	0	0	0	506	606	
14	0	0	0	0	506	605	
15	0	0	0	0	506	605	
0	0	0	0	0	506	605	
1	0	0	0	0	505	605	
2	0	0	0	0	505	605	
3	0	0	0	0	504	605	
4	0	0	0	0	504	604	
5	0	0	0	0	504	605	
6	0	0	0	0	504	604	
7	0	0	0	0	504	604	
8	0	0	0	0	504	605	
9	0	0	0	0	504	604	
10	0	0	0	0	504	605	
11	0	0	0	0	505	605	
12	0	0	0	0	505	605	
13	0	0	0	0	506	604	
14	0	0	0	0	506	604	
15	0	0	0	0	505	605	
0	0	0	0	0	505	605	
1	0	0	0	0	505	605	
2	0	0	0	0	505	605	
3	0	0	0	0	505	605	
4	0	0	0	0	505	604	
5	0	0	0	0	504	604	
6	0	0	0	0	505	604	
7	0	0	0	0	505	605	
8	0	0	0	0	505	605	
9	0	0	0	0	505	605	
10	0	0	0	0	505	605	
11	0	0	0	0	505	605	
12	0	0	0	0	505	604	
13	0	0	0	0	505	604	
14	0	0	0	0	504	604	
15	0	0	0	0	504	604	
0	0	0	0	0	504	605	
1	0	0	0	0	504	604	
2	0	0	0	0	504	605	
3	0	0	0	0	504	605	
4	0	0	0	0	504	604	
5	0	0	0	0	504	604	
6	0	0	0	0	504	604	
7	0	0	0	0	504	604	
8	0	0	0	0	505	604	
9	0	0	0	0	505	604	
10	0	0	0	0	505	604	
11	0	0	0	0	505	604	
12	0	0	0	0	505	604	
13	0	0	0	0	505	604	
14	0	0	0	0	506	604	
15	0	0	0	0	506	604	
0	0	0	0	0	506	604	
1	0	0	0	0	507	604	
2	0	0	0	0	507	604	
3	0	0	0	0	508	603	
4	0	0	0	0	508	604	
5	0	0	0	0	507	604	
6	0	0	0	0	506	604	
7	0	0	0	0	504	604	
8	0	0	0	0	504	604	
9	0	0	0	0	504	605	
10	0	0	0	0	503	604	
11	0	0	0	0	503	604	
12	0	0	0	0	503	604	
13	0	0	0	0	503	604	
14	0	0	0	0	503	604	
15	0	0	0	0	503	604	
0	0	0	0	0	503	604	
1	0	0	0	0	503	604	
2	0	0	0	0	502	604	
3	0	0	0	0	502	604	
4	0	0	0	0	502	604	
5	0	0	0	0	502	605	
6	0	0	0	0	502	605	
7	0	0	0	0	503	605	
8	0	0	0	0	503	605	
9	0	0	0	0	503	604	
10	0	0	0	0	503	604	
11	0	0	0	0	503	605	
12	0	0	0	0	503	604	
13	0	0	0	0	503	605	
14	0	0	0	0	502	605	
15	0	0	0	0	503	604	
0	0	0	0	0	503	604	
1	0	0	0	0	502	604	
2	0	0	0	0	503	604	
3	0	0	0	0	502	604	
4	0	0	0	0	502	604	
5	0	0	0	0	503	605	
6	0	0	0	0	503	604	
7	0	0	0	0	504	604	
8	0	0	0	0	504	604	
9	0	0	0	0	504	604	
10	0	0	0	0	505	604	
11	0	0	0	0	505	604	
12	0	0	0	0	505	604	
13	0	0	0	0	505	604	
14	0	0	0	0	506	604	
15	0	0	0	0	507	604	
0	0	0	0	0	507	604	
1	0	0	0	0	507	604	
2	0	0	0	0	507	604	
3	0	0	0	0	508	604	
4	0	0	0	0	508	603	
5	0	0	0	0	508	604	
6	0	0	0	0	508	604	
7	0	0	0	0	507	604	
8	0	0	0	0	507	604	
9	0	0	0	0	508	604	
10	0	0	0	0	508	604	
11	0	0	0	0	509	604	
12	0	0	0	0	510	604	
13	0	0	0	0	510	604	
14	0	0	0	0	510	604	
15	0	0	0	0	510	604	
0	0	0	0	0	509	604	
1	0	0	0	0	509	604	
2	0	0	0	0	509	604	
3	0	0	0	0	510	604	
4	0	0	0	0	510	604	
5	0	0	0	0	510	604	
6	0	0	0	0	510	604	
7	0	0	0	0	510	604	
8	0	0	0	0	511	604	
9	0	0	0	0	511	604	
10	0	0	0	0	510	604	
11	0	0	0	0	510	605	
12	0	0	0	0	510	605	
13	0	0	0	0	510	605	
14	0	0	0	0	510	604	
15	0	0	0	0	510	604	
0	0	0	0	0	510	604	
1	0	0	0	0	510	604	
2	0	0	0	0	509	604	
3	0	0	0	0	508	605	
4	0	0	0	0	508	605	
5	0	0	0	0	507	604	
6	0	0	0	0	507	605	
7	0	0	0	0	507	605	
8	0	0	0	0	507	605	
9	0	0	0	0	507	605	
10	0	0	0	0	507	605	
11	0	0	0	0	507	605	
12	0	0	0	0	507	605	
13	0	0	0	0	505	605	
14	0	0	0	0	505	605	
15	0	0	0	0	504	605	
0	0	0	0	0	505	605	
1	0	0	0	0	505	604	
2	0	0	0	0	505	604	
3	0	0	0	0	505	605	
4	0	0	0	0	505	605	
5	0	0	0	0	505	605	
6	0	0	0	0	505	605	
7	0	0	0	0	506	605	
8	0	0	0	0	506	606	
9	0	0	0	0	506	605	
10	0	0	0	0	506	605	
11	0	0	0	0	506	606	
12	0	0	0	0	506	605	
13	0	0	0	0	506	605	
14	0	0	0	0	506	605	
15	0	0	0	0	505	605	
0	0	0	0	0	505	605	
1	0	0	0	0	505	604	
2	0	0	0	0	504	605	
3	0	0	0	0	504	604	
4	0	0	0	0	504	605	
5	0	0	0	0	505	604	
6	0	0	0	0	505	604	
7	0	0	0	0	505	605	
8	0	0	0	0	504	606	
9	0	0	0	0	504	605	
10	0	0	0	0	504	605	
11	0	0	0	0	504	605	
12	0	0	0	0	504	605	
13	0	0	0	0	504	605	
14	0	0	0	0	504	604	
15	0	0	0	0	504	605	
0	0	0	0	0	503	605	
1	0	0	0	0	504	605	
2	0	0	0	0	504	605	
3	0	0	0	0	504	605	
4	0	0	0	0	503	605	
5	0	0	0	0	504	604	
6	0	0	0	0	504	604	
7	0	0	0	0	505	605	
8	0	0	0	0	505	606	
9	0	0	0	0	505	604	
10	0	0	0	0	505	604	
11	0	0	0	0	504	605	
12	0	0	0	0	504	604	
13	0	0	0	0	503	605	
14	0	0	0	0	504	604	
15	0	0	0	0	503	603	
0	0	0	0	0	504	605	
1	0	0	0	0	503	604	
2	0	0	0	0	502	604	
3	0	0	0	0	503	604	
4	0	0	0	0	503	604	
5	0	0	0	0	502	604	
6	0	0	0	0	500	604	
7	0	0	0	0	498	604	
8	0	0	0	0	496	604	
9	0	0	0	0	495	604	
10	0	0	0	0	494	604	
11	0	0	0	0	492	604	
12	0	0	0	0	490	604	
13	0	0	0	0	489	604	
14	0	0	0	0	486	604	
15	0	0	0	0	483	604	
0	0	0	0	0	480	604	
1	0	0	0	0	477	604	
2	0	0	0	0	472	604	
3	0	0	0	0	467	603	
4	0	0	0	0	461	604	
5	0	0	0	0	456	604	
6	0	0	0	0	449	604	
7	0	0	0	0	444	604	
8	0	0	0	0	440	604	
9	0	0	0	0	438	604	
10	0	0	0	0	437	603	
11	0	0	0	0	439	604	
12	0	0	0	0	445	604	
13	0	0	0	0	454	604	
14	0	0	0	0	465	604	
15	0	0	0	0	474	604	
0	0	0	0	0	483	604	
1	0	0	0	0	495	604	
2	0	0	0	0	507	604	
3	0	0	0	0	520	604	
4	0	0	0	0	534	604	
5	0	0	0	0	544	604	
6	0	0	0	0	555	604	
7	0	0	0	0	566	604	
8	0	0	0	0	573	605	
9	0	0	0	0	576	604	
10	0	0	0	0	579	604	
11	0	0	0	0	582	604	
12	0	0	0	0	585	604	
13	0	0	0	0	588	605	
14	0	0	0	0	589	605	
15	0	0	0	0	589	605	
0	0	0	0	0	591	605	
1	0	0	0	0	593	604	
2	0	0	0	0	593	605	
3	0	0	0	0	591	605	
4	0	0	0	0	587	605	
5	0	0	0	0	583	604	
6	0	0	0	0	578	604	
7	0	0	0	0	574	605	
8	0	0	0	0	573	604	
9	0	0	0	0	574	604	
10	0	0	0	0	575	604	
11	0	0	0	0	578	604	
12	0	0	0	0	581	605	
13	0	0	0	0	580	604	
14	0	0	0	0	577	604	
15	0	0	0	0	572	605	
0	0	0	0	0	565	605	
1	0	0	0	0	558	604	
2	0	0	0	0	550	605	
3	0	0	0	0	541	605	
4	0	0	0	0	532	604	
5	0	0	0	0	523	605	
6	0	0	0	0	517	605	
7	0	0	0	0	511	605	
8	0	0	0	0	505	605	
9	0	0	0	0	502	605	
10	0	0	0	0	499	605	
11	0	0	0	0	496	605	
12	0	0	0	0	494	605	
13	0	0	0	0	493	605	
14	0	0	0	0	491	605	
15	0	0	0	0	488	605	
0	0	0	0	0	487	605	
1	0	0	0	0	486	605	
2	0	0	0	0	486	605	
3	0	0	0	0	485	605	
4	0	0	0	0	484	604	
5	0	0	0	0	484	605	
6	0	0	0	0	483	604	
7	0	0	0	0	483	604	
8	0	0	0	0	482	604	
9	0	0	0	0	481	604	
10	0	0	0	0	481	604	
11	0	0	0	0	481	604	
12	0	0	0	0	481	604	
13	0	0	0	0	481	604	
14	0	0	0	0	481	604	
15	0	0	0	0	481	604	
0	0	0	0	0	482	604	
1	0	0	0	0	482	603	
2	0	0	0	0	483	604	
3	0	0	0	0	483	604	
4	0	0	0	0	484	604	
5	0	0	0	0	484	604	
6	0	0	0	0	484	604	
7	0	0	0	0	484	604	
8	0	0	0	0	484	604	
9	0	0	0	0	484	604	
10	0	0	0	0	484	604	
11	0	0	0	0	485	605	
12	0	0	0	0	485	604	
13	0	0	0	0	486	604	
14	0	0	0	0	487	604	
15	0	0	0	0	487	604	
0	0	0	0	0	487	604	
1	0	0	0	0	487	604	
2	0	0	0	0	487	603	
3	0	0	0	0	487	604	
4	0	0	0	0	486	604	
5	0	0	0	0	486	604	
6	0	0	0	0	486	604	
7	0	0	0	0	486	604	
8	0	0	0	0	486	605	
9	0	0	0	0	486	604	
10	0	0	0	0	486	605	
11	0	0	0	0	486	605	
12	0	0	0	0	486	604	
13	0	0	0	0	486	604	
14	0	0	0	0	486	604	
15	0	0	0	0	487	604	
0	0	0	0	0	486	604	
1	0	0	0	0	487	604	
2	0	0	0	0	487	605	
3	0	0	0	0	487	604	
4	0	0	0	0	487	604	
5	0	0	0	0	487	604	
6	0	0	0	0	486	604	
7	0	0	0	0	486	604	
8	0	0	0	0	485	604	
9	0	0	0	0	485	604	
10	0	0	0	0	486	604	
11	0	0	0	0	486	604	
12	0	0	0	0	486	604	
13	0	0	0	0	487	604	
14	0	0	0	0	487	604	
15	0	0	0	0	487	605	
0	0	0	0	0	487	604	
1	0	0	0	0	488	605	
2	0	0	0	0	488	604	
3	0	0	0	0	487	604	
4	0	0	0	0	488	604	
5	0	0	0	0	488	604	
6	0	0	0	0	488	604	
7	0	0	0	0	487	604	
8	0	0	0	0	487	604	
9	0	0	0	0	487	604	
10	0	0	0	0	487	604	
11	0	0	0	0	487	605	
12	0	0	0	0	487	604	
13	0	0	0	0	487	605	
14	0	0	0	0	487	605	
15	0	0	0	0	487	604	
0	0	0	0	0	487	605	
1	0	0	0	0	487	604	
2	0	0	0	0	488	604	
3	0	0	0	0	488	604	
4	0	0	0	0	488	604	
5	0	0	0	0	487	604	
6	0	0	0	0	487	604	
7	0	0	0	0	488	605	
8	0	0	0	0	488	604	
9	0	0	0	0	488	604	
10	0	0	0	0	487	604	
11	0	0	0	0	487	604	
12	0	0	0	0	487	604	
13	0	0	0	0	487	604	
14	0	0	0	0	487	604	
15	0	0	0	0	487	605	
0	0	0	0	0	487	604	
1	0	0	0	0	487	604	
2	0	0	0	0	488	604	
3	0	0	0	0	488	604	
4	0	0	0	0	487	604	
5	0	0	0	0	487	604	
6	0	0	0	0	487	604	
7	0	0	0	0	488	604	
8	0	0	0	0	489	605	
9	0	0	0	0	489	605	
10	0	0	0	0	489	604	
11	0	0	0	0	489	605	
12	0	0	0	0	489	604	
13	0	0	0	0	488	604	
14	0	0	0	0	488	604	
15	0	0	0	0	489	604	
0	0	0	0	0	489	604	
1	0	0	0	0	488	605	
2	0	0	0	0	488	604	
3	0	0	0	0	488	605	
4	0	0	0	0	489	604	
5	0	0	0	0	488	604	
6	0	0	0	0	488	604	
7	0	0	0	0	488	604	
8	0	0	0	0	487	605	
9	0	0	0	0	487	604	
10	0	0	0	0	487	604	
11	0	0	0	0	487	604	
12	0	0	0	0	487	605	
13	0	0	0	0	487	604	
14	0	0	0	0	486	604	
15	0	0	0	0	487	605	
0	0	0	0	0	487	605	
1	0	0	0	0	487	604	
2	0	0	0	0	487	604	
3	0	0	0	0	488	605	
4	0	0	0	0	488	605	
5	0	0	0	0	487	604	
6	0	0	0	0	487	604	
7	0	0	0	0	487	605	
8	0	0	0	0	487	604	
9	0	0	0	0	487	604	
10	0	0	0	0	486	604	
11	0	0	0	0	486	604	
12	0	0	0	0	486	604	
13	0	0	0	0	485	604	
14	0	0	0	0	485	605	
15	0	0	0	0	485	604	
0	0	0	0	0	485	605	
1	0	0	0	0	485	604	
2	0	0	0	0	485	604	
3	0	0	0	0	485	604	
4	0	0	0	0	486	604	
5	0	0	0	0	485	604	
6	0	0	0	0	485	605	
7	0	0	0	0	485	604	
8	0	0	0	0	486	605	
9	0	0	0	0	486	604	
10	0	0	0	0	485	604	
11	0	0	0	0	485	604	
12	0	0	0	0	484	604	
13	0	0	0	0	484	605	
14	0	0	0	0	485	605	
15	0	0	0	0	485	604	
0	0	0	0	0	485	606	
1	0	0	0	0	484	604	
2	0	0	0	0	484	605	
3	0	0	0	0	483	604	
4	0	0	0	0	483	604	
5	0	0	0	0	482	605	
6	0	0	0	0	481	604	
7	0	0	0	0	480	604	
8	0	0	0	0	480	605	
9	0	0	0	0	480	604	
10	0	0	0	0	479	604	
11	0	0	0	0	479	604	
12	0	0	0	0	479	604	
13	0	0	0	0	479	604	
14	0	0	0	0	479	604	
15	0	0	0	0	479	604	
0	0	0	0	0	480	605	
1	0	0	0	0	480	604	
2	0	0	0	0	481	604	
3	0	0	0	0	482	604	
4	0	0	0	0	482	604	
5	0	0	0	0	482	604	
6	0	0	0	0	481	604	
7	0	0	0	0	483	604	
8	0	0	0	0	483	604	
9	0	0	0	0	482	604	
10	0	0	0	0	483	605	
11	0	0	0	0	483	604	
12	0	0	0	0	483	604	
13	0	0	0	0	484	604	
14	0	0	0	0	484	605	
15	0	0	0	0	483	605	
0	0	0	0	0	483	604	
1	0	0	0	0	484	604	
2	0	0	0	0	484	603	
3	0	0	0	0	486	604	
4	0	0	0	0	486	604	
5	0	0	0	0	486	604	
6	0	0	0	0	487	604	
7	0	0	0	0	488	604	
8	0	0	0	0	489	605	
9	0	0	0	0	490	604	
10	0	0	0	0	491	604	
11	0	0	0	0	492	605	
12	0	0	0	0	492	604	
13	0	0	0	0	494	605	
14	0	0	0	0	494	604	
15	0	0	0	0	494	604	
0	0	0	0	0	494	604	
1	0	0	0	0	494	604	
2	0	0	0	0	495	604	
3	0	0	0	0	496	604	
4	0	0	0	0	496	604	
5	0	0	0	0	497	604	
6	0	0	0	0	498	604	
7	0	0	0	0	498	604	
8	0	0	0	0	498	605	
9	0	0	0	0	499	604	
10	0	0	0	0	500	604	
11	0	0	0	0	500	604	
12	0	0	0	0	501	604	
13	0	0	0	0	502	604	
14	0	0	0	0	503	604	
15	0	0	0	0	504	604	
0	0	0	0	0	504	604	
1	0	0	0	0	504	604	
2	0	0	0	0	505	604	
3	0	0	0	0	507	604	
4	0	0	0	0	508	605	
5	0	0	0	0	509	605	
6	0	0	0	0	510	604	
7	0	0	0	0	510	604	
8	0	0	0	0	510	605	
9	0	0	0	0	511	604	
10	0	0	0	0	511	604	
11	0	0	0	0	512	604	
12	0	0	0	0	513	604	
13	0	0	0	0	514	604	
14	0	0	0	0	515	604	
15	0	0	0	0	515	604	
0	0	0	0	0	517	605	
1	0	0	0	0	518	604	
2	0	0	0	0	519	604	
3	0	0	0	0	521	604	
4	0	0	0	0	521	605	
5	0	0	0	0	522	605	
6	0	0	0	0	523	604	
7	0	0	0	0	524	604	
8	0	0	0	0	524	604	
9	0	0	0	0	526	604	
10	0	0	0	0	527	604	
11	0	0	0	0	527	604	
12	0	0	0	0	528	604	
13	0	0	0	0	529	604	
14	0	0	0	0	530	604	
15	0	0	0	0	530	604	
0	0	0	0	0	530	604	
1	0	0	0	0	530	604	
2	0	0	0	0	530	604	
3	0	0	0	0	529	604	
4	0	0	0	0	529	604	
5	0	0	0	0	529	604	
6	0	0	0	0	529	604	
7	0	0	0	0	529	604	
8	0	0	0	0	529	604	
9	0	0	0	0	529	604	
10	0	0	0	0	530	604	
11	0	0	0	0	529	604	
12	0	0	0	0	529	604	
13	0	0	0	0	529	604	
14	0	0	0	0	529	604	
15	0	0	0	0	529	604	
0	0	0	0	0	530	604	
1	0	0	0	0	530	604	
2	0	0	0	0	531	604	
3	0	0	0	0	531	604	
4	0	0	0	0	531	604	
5	0	0	0	0	531	604	
6	0	0	0	0	531	604	
7	0	0	0	0	531	604	
8	0	0	0	0	531	605	
9	0	0	0	0	531	604	
10	0	0	0	0	532	604	
11	0	0	0	0	532	604	
12	0	0	0	0	531	604	
13	0	0	0	0	532	605	
14	0	0	0	0	532	605	
15	0	0	0	0	532	604	
0	0	0	0	0	533	605	
1	0	0	0	0	532	604	
2	0	0	0	0	532	604	
3	0	0	0	0	531	604	
4	0	0	0	0	531	604	
5	0	0	0	0	531	605	
6	0	0	0	0	530	605	
7	0	0	0	0	530	605	
8	0	0	0	0	529	606	
9	0	0	0	0	528	605	
10	0	0	0	0	527	605	
11	0	0	0	0	527	604	
12	0	0	0	0	527	604	
13	0	0	0	0	527	604	
14	0	0	0	0	527	604	
15	0	0	0	0	527	605	
0	0	0	0	0	526	605	
1	0	0	0	0	525	605	
2	0	0	0	0	524	605	
3	0	0	0	0	524	604	
4	0	0	0	0	524	605	
5	0	0	0	0	523	605	
6	0	0	0	0	523	605	
7	0	0	0	0	523	604	
8	0	0	0	0	524	605	
9	0	0	0	0	524	605	
10	0	0	0	0	524	604	
11	0	0	0	0	524	605	
12	0	0	0	0	524	605	
13	0	0	0	0	524	605	
14	0	0	0	0	524	604	
15	0	0	0	0	525	604	
0	0	0	0	0	524	605	
1	0	0	0	0	525	604	
2	0	0	0	0	524	605	
3	0	0	0	0	524	604	
4	0	0	0	0	524	604	
5	0	0	0	0	525	605	
6	0	0	0	0	524	604	
7	0	0	0	0	523	604	
8	0	0	0	0	523	605	
9	0	0	0	0	523	604	
10	0	0	0	0	523	604	
11	0	0	0	0	522	604	
12	0	0	0	0	522	604	
13	0	0	0	0	522	604	
14	0	0	0	0	522	604	
15	0	0	0	0	521	604	
0	0	0	0	0	521	604	
1	0	0	0	0	521	604	
2	0	0	0	0	520	604	
3	0	0	0	0	519	604	
4	0	0	0	0	519	604	
5	0	0	0	0	519	604	
6	0	0	0	0	519	604	
7	0	0	0	0	519	604	
8	0	0	0	0	518	604	
9	0	0	0	0	518	604	
10	0	0	0	0	518	604	
11	0	0	0	0	517	604	
12	0	0	0	0	517	604	
13	0	0	0	0	516	604	
14	0	0	0	0	516	604	
15	0	0	0	0	515	604	
0	0	0	0	0	515	604	
1	0	0	0	0	515	603	
2	0	0	0	0	515	603	
3	0	0	0	0	515	603	
4	0	0	0	0	516	603	
5	0	0	0	0	515	603	
6	0	0	0	0	515	604	
7	0	0	0	0	515	603	
8	0	0	0	0	514	604	
9	0	0	0	0	514	603	
10	0	0	0	0	514	604	
11	0	0	0	0	515	604	
12	0	0	0	0	516	603	
13	0	0	0	0	516	604	
14	0	0	0	0	515	604	
15	0	0	0	0	515	603	
0	0	0	0	0	515	604	
1	0	0	0	0	515	603	
2	0	0	0	0	515	604	
3	0	0	0	0	515	604	
4	0	0	0	0	515	604	
5	0	0	0	0	514	604	
6	0	0	0	0	514	604	
7	0	0	0	0	513	604	
8	0	0	0	0	513	604	
9	0	0	0	0	513	604	
10	0	0	0	0	513	604	
11	0	0	0	0	513	604	
12	0	0	0	0	512	605	
13	0	0	0	0	513	605	
14	0	0	0	0	513	604	
15	0	0	0	0	513	605	
0	0	0	0	0	512	605	
1	0	0	0	0	512	605	
2	0	0	0	0	512	605	
3	0	0	0	0	512	604	
4	0	0	0	0	512	605	
5	0	0	0	0	513	605	
6	0	0	0	0	513	605	
7	0	0	0	0	512	605	
8	0	0	0	0	513	605	
9	0	0	0	0	512	606	
10	0	0	0	0	512	605	
11	0	0	0	0	513	606	
12	0	0	0	0	514	606	
13	0	0	0	0	514	605	
14	0	0	0	0	514	605	
15	0	0	0	0	514	605	
0	0	0	0	0	514	605	
1	0	0	0	0	514	605	
2	0	0	0	0	515	606	
3	0	0	0	0	514	605	
4	0	0	0	0	515	605	
5	0	0	0	0	515	606	
6	0	0	0	0	515	606	
7	0	0	0	0	515	605	
8	0	0	0	0	515	606	
9	0	0	0	0	515	605	
10	0	0	0	0	516	606	
11	0	0	0	0	516	605	
12	0	0	0	0	516	605	
13	0	0	0	0	515	605	
14	0	0	0	0	515	605	
15	0	0	0	0	515	604	
0	0	0	0	0	515	605	
1	0	0	0	0	515	604	
2	0	0	0	0	515	605	
3	0	0	0	0	514	604	
4	0	0	0	0	513	605	
5	0	0	0	0	513	604	
6	0	0	0	0	514	604	
7	0	0	0	0	515	604	
8	0	0	0	0	515	604	
9	0	0	0	0	515	604	
10	0	0	0	0	515	604	
11	0	0	0	0	516	604	
12	0	0	0	0	516	604	
13	0	0	0	0	515	604	
14	0	0	0	0	515	604	
15	0	0	0	0	515	604	
0	0	0	0	0	514	604	
1	0	0	0	0	514	604	
2	0	0	0	0	514	604	
3	0	0	0	0	513	604	
4	0	0	0	0	513	604	
5	0	0	0	0	512	604	
6	0	0	0	0	512	604	
7	0	0	0	0	512	604	
8	0	0	0	0	513	604	
9	0	0	0	0	513	604	
10	0	0	0	0	513	603	
11	0	0	0	0	513	603	
12	0	0	0	0	513	603	
13	0	0	0	0	513	603	
14	0	0	0	0	514	604	
15	0	0	0	0	514	604	
0	0	0	0	0	513	604	
1	0	0	0	0	513	604	
2	0	0	0	0	513	603	
3	0	0	0	0	514	603	
4	0	0	0	0	514	604	
5	0	0	0	0	515	604	
6	0	0	0	0	515	604	
7	0	0	0	0	515	604	
8	0	0	0	0	515	604	
9	0	0	0	0	516	604	
10	0	0	0	0	516	604	
11	0	0	0	0	516	604	
12	0	0	0	0	516	604	
13	0	0	0	0	516	604	
14	0	0	0	0	515	604	
15	0	0	0	0	515	604	
0	0	0	0	0	514	604	
1	0	0	0	0	514	604	
2	0	0	0	0	513	604	
3	0	0	0	0	513	603	
4	0	0	0	0	513	604	
5	0	0	0	0	512	604	
6	0	0	0	0	512	604	
7	0	0	0	0	513	604	
8	0	0	0	0	513	604	
9	0	0	0	0	513	604	
10	0	0	0	0	513	603	
11	0	0	0	0	513	603	
12	0	0	0	0	512	604	
13	0	0	0	0	513	604	
14	0	0	0	0	512	604	
15	0	0	0	0	513	604	
0	0	0	0	0	512	604	
1	0	0	0	0	512	604	
2	0	0	0	0	511	604	
3	0	0	0	0	512	604	
4	0	0	0	0	512	603	
5	0	0	0	0	512	604	
6	0	0	0	0	512	603	
7	0	0	0	0	511	603	
8	0	0	0	0	511	604	
9	0	0	0	0	511	603	
10	0	0	0	0	512	604	
11	0	0	0	0	512	604	
12	0	0	0	0	512	603	
13	0	0	0	0	512	604	
14	0	0	0	0	512	603	
15	0	0	0	0	512	604	
0	0	0	0	0	512	604	
1	0	0	0	0	512	603	
2	0	0	0	0	512	604	
3	0	0	0	0	512	604	
4	0	0	0	0	512	604	
5	0	0	0	0	512	604	
6	0	0	0	0	512	604	
7	0	0	0	0	512	604	
8	0	0	0	0	512	605	
9	0	0	0	0	512	604	
10	0	0	0	0	512	604	
11	0	0	0	0	512	605	
12	0	0	0	0	512	604	
13	0	0	0	0	512	604	
14	0	0	0	0	512	604	
15	0	0	0	0	512	604	
0	0	0	0	0	512	605	
1	0	0	0	0	512	605	
2	0	0	0	0	511	604	
3	0	0	0	0	511	605	
4	0	0	0	0	511	605	
5	0	0	0	0	510	605	
6	0	0	0	0	510	605	
7	0	0	0	0	510	604	
8	0	0	0	0	509	605	
9	0	0	0	0	508	605	
10	0	0	0	0	507	604	
11	0	0	0	0	506	604	
12	0	0	0	0	505	604	
13	0	0	0	0	506	605	
14	0	0	0	0	506	604	
15	0	0	0	0	506	604	
0	0	0	0	0	506	605	
1	0	0	0	0	506	604	
2	0	0	0	0	506	604	
3	0	0	0	0	506	604	
4	0	0	0	0	507	605	
5	0	0	0	0	506	605	
6	0	0	0	0	506	604	
7	0	0	0	0	506	605	
8	0	0	0	0	506	606	
9	0	0	0	0	506	604	
10	0	0	0	0	506	605	
11	0	0	0	0	505	605	
12	0	0	0	0	505	605	
13	0	0	0	0	504	604	
14	0	0	0	0	505	604	
15	0	0	0	0	504	604	
0	0	0	0	0	504	605	
1	0	0	0	0	503	604	
2	0	0	0	0	504	604	
3	0	0	0	0	504	604	
4	0	0	0	0	504	604	
5	0	0	0	0	503	604	
6	0	0	0	0	504	605	
7	0	0	0	0	504	604	
8	0	0	0	0	504	605	
9	0	0	0	0	504	605	
10	0	0	0	0	504	605	
11	0	0	0	0	505	605	
12	0	0	0	0	504	605	
13	0	0	0	0	504	604	
14	0	0	0	0	504	604	
15	0	0	0	0	504	604	
0	0	0	0	0	505	605	
1	0	0	0	0	505	604	
2	0	0	0	0	506	604	
3	0	0	0	0	506	604	
4	0	0	0	0	506	604	
5	0	0	0	0	506	604	
6	0	0	0	0	507	604	
7	0	0	0	0	508	604	
8	0	0	0	0	508	605	
9	0	0	0	0	508	604	
10	0	0	0	0	508	604	
11	0	0	0	0	509	604	
12	0	0	0	0	510	604	
13	0	0	0	0	510	604	
14	0	0	0	0	511	604	
15	0	0	0	0	510	604	
0	0	0	0	0	510	604	
1	0	0	0	0	510	604	
2	0	0	0	0	509	604	
3	0	0	0	0	509	604	
4	0	0	0	0	508	604	
5	0	0	0	0	509	604	
6	0	0	0	0	509	604	
7	0	0	0	0	509	604	
8	0	0	0	0	508	605	
9	0	0	0	0	508	604	
10	0	0	0	0	508	604	
11	0	0	0	0	507	603	
12	0	0	0	0	507	604	
13	0	0	0	0	506	604	
14	0	0	0	0	507	604	
15	0	0	0	0	508	604	
0	0	0	0	0	507	604	
1	0	0	0	0	508	604	
2	0	0	0	0	508	604	
3	0	0	0	0	507	604	
4	0	0	0	0	506	604	
5	0	0	0	0	506	604	
6	0	0	0	0	505	604	
7	0	0	0	0	506	604	
8	0	0	0	0	505	605	
9	0	0	0	0	504	604	
10	0	0	0	0	504	604	
11	0	0	0	0	504	604	
12	0	0	0	0	504	604	
13	0	0	0	0	504	604	
14	0	0	0	0	503	604	
15	0	0	0	0	503	603	
0	0	0	0	0	503	604	
1	0	0	0	0	504	603	
2	0	0	0	0	504	603	
3	0	0	0	0	504	603	
4	0	0	0	0	505	604	
5	0	0	0	0	504	604	
6	0	0	0	0	505	604	
7	0	0	0	0	505	604	
8	0	0	0	0	505	604	
9	0	0	0	0	505	604	
10	0	0	0	0	505	604	
11	0	0	0	0	505	603	
12	0	0	0	0	505	603	
13	0	0	0	0	505	604	
14	0	0	0	0	504	604	
15	0	0	0	0	504	603	
0	0	0	0	0	504	604	
1	0	0	0	0	504	603	
2	0	0	0	0	504	603	
3	0	0	0	0	505	604	
4	0	0	0	0	505	604	
5	0	0	0	0	506	603	
6	0	0	0	0	506	604	
7	0	0	0	0	505	603	
8	0	0	0	0	506	603	
9	0	0	0	0	506	603	
10	0	0	0	0	507	603	
11	0	0	0	0	508	603	
12	0	0	0	0	508	603	
13	0	0	0	0	508	603	
14	0	0	0	0	508	604	
15	0	0	0	0	509	603	
0	0	0	0	0	510	604	
1	0	0	0	0	510	604	
2	0	0	0	0	511	603	
3	0	0	0	0	512	604	
4	0	0	0	0	512	603	
5	0	0	0	0	512	603	
6	0	0	0	0	512	603	
7	0	0	0	0	511	604	
8	0	0	0	0	510	604	
9	0	0	0	0	509	603	
10	0	0	0	0	508	604	
11	0	0	0	0	507	604	
12	0	0	0	0	507	604	
13	0	0	0	0	508	604	
14	0	0	0	0	508	603	
15	0	0	0	0	508	604	
0	0	0	0	0	510	604	
1	0	0	0	0	510	604	
2	0	0	0	0	510	604	
3	0	0	0	0	511	604	
4	0	0	0	0	511	604	
5	0	0	0	0	510	604	
6	0	0	0	0	510	604	
7	0	0	0	0	511	604	
8	0	0	0	0	511	604	
9	0	0	0	0	512	604	
10	0	0	0	0	512	604	
11	0	0	0	0	512	605	
12	0	0	0	0	512	604	
13	0	0	0	0	512	605	
14	0	0	0	0	512	605	
15	0	0	0	0	512	605	
0	0	0	0	0	511	605	
1	0	0	0	0	511	605	
2	0	0	0	0	511	604	
3	0	0	0	0	510	605	
4	0	0	0	0	510	605	
5	0	0	0	0	510	605	
6	0	0	0	0	510	605	
7	0	0	0	0	510	605	
8	0	0	0	0	511	605	
9	0	0	0	0	510	604	
10	0	0	0	0	510	604	
11	0	0	0	0	510	605	
12	0	0	0	0	509	604	
13	0	0	0	0	509	605	
14	0	0	0	0	509	605	
15	0	0	0	0	508	606	
0	0	0	0	0	509	606	
1	0	0	0	0	508	604	
2	0	0	0	0	509	605	
3	0	0	0	0	508	604	
4	0	0	0	0	507	604	
5	0	0	0	0	507	603	
6	0	0	0	0	507	604	
7	0	0	0	0	507	604	
8	0	0	0	0	506	604	
9	0	0	0	0	505	604	
10	0	0	0	0	505	604	
11	0	0	0	0	505	604	
12	0	0	0	0	504	604	
13	0	0	0	0	504	604	
14	0	0	0	0	504	604	
15	0	0	0	0	504	604	
0	0	0	0	0	504	604	
1	0	0	0	0	503	604	
2	0	0	0	0	504	604	
3	0	0	0	0	504	604	
4	0	0	0	0	504	604	
5	0	0	0	0	504	603	
6	0	0	0	0	504	604	
7	0	0	0	0	504	604	
8	0	0	0	0	504	604	
9	0	0	0	0	503	603	
10	0	0	0	0	503	603	
11	0	0	0	0	503	604	
12	0	0	0	0	503	604	
13	0	0	0	0	503	604	
14	0	0	0	0	503	604	
15	0	0	0	0	503	604	
0	0	0	0	0	503	604	
1	0	0	0	0	502	604	
2	0	0	0	0	502	604	
3	0	0	0	0	503	604	
4	0	0	0	0	503	604	
5	0	0	0	0	504	603	
6	0	0	0	0	504	604	
7	0	0	0	0	504	604	
8	0	0	0	0	504	604	
9	0	0	0	0	504	603	
10	0	0	0	0	504	604	
11	0	0	0	0	503	604	
12	0	0	0	0	502	604	
13	0	0	0	0	503	604	
14	0	0	0	0	502	603	
15	0	0	0	0	502	604	
0	0	0	0	0	502	604	
1	0	0	0	0	501	604	
2	0	0	0	0	501	604	
3	0	0	0	0	499	604	
4	0	0	0	0	499	604	
5	0	0	0	0	497	604	
6	0	0	0	0	496	604	
7	0	0	0	0	494	604	
8	0	0	0	0	492	603	
9	0	0	0	0	490	603	
10	0	0	0	0	488	604	
11	0	0	0	0	487	603	
12	0	0	0	0	485	603	
13	0	0	0	0	482	603	
14	0	0	0	0	479	604	
15	0	0	0	0	476	603	
0	0	0	0	0	472	604	
1	0	0	0	0	468	604	
2	0	0	0	0	462	604	
3	0	0	0	0	457	604	
4	0	0	0	0	451	604	
5	0	0	0	0	447	604	
6	0	0	0	0	443	604	
7	0	0	0	0	441	604	
8	0	0	0	0	440	605	
9	0	0	0	0	442	604	
10	0	0	0	0	447	604	
11	0	0	0	0	454	604	
12	0	0	0	0	464	604	
13	0	0	0	0	473	604	
14	0	0	0	0	482	604	
15	0	0	0	0	493	604	
0	0	0	0	0	505	605	
1	0	0	0	0	519	604	
2	0	0	0	0	534	605	
3	0	0	0	0	546	605	
4	0	0	0	0	556	604	
5	0	0	0	0	566	604	
6	0	0	0	0	573	605	
7	0	0	0	0	577	605	
8	0	0	0	0	580	605	
9	0	0	0	0	582	604	
10	0	0	0	0	584	604	
11	0	0	0	0	587	605	
12	0	0	0	0	587	605	
13	0	0	0	0	587	604	
14	0	0	0	0	588	605	
15	0	0	0	0	589	605	
0	0	0	0	0	589	604	
1	0	0	0	0	587	604	
2	0	0	0	0	583	604	
3	0	0	0	0	578	604	
4	0	0	0	0	573	603	
5	0	0	0	0	568	604	
6	0	0	0	0	566	604	
7	0	0	0	0	566	604	
8	0	0	0	0	566	604	
9	0	0	0	0	569	604	
10	0	0	0	0	572	604	
11	0	0	0	0	573	604	
12	0	0	0	0	571	604	
13	0	0	0	0	566	604	
14	0	0	0	0	560	604	
15	0	0	0	0	553	604	
0	0	0	0	0	546	604	
1	0	0	0	0	537	604	
2	0	0	0	0	529	604	
3	0	0	0	0	521	604	
4	0	0	0	0	514	604	
5	0	0	0	0	508	604	
6	0	0	0	0	502	604	
7	0	0	0	0	498	604	
8	0	0	0	0	494	605	
9	0	0	0	0	491	604	
10	0	0	0	0	488	604	
11	0	0	0	0	487	604	
12	0	0	0	0	485	604	
13	0	0	0	0	483	604	
14	0	0	0	0	483	604	
15	0	0	0	0	482	604	
0	0	0	0	0	481	604	
1	0	0	0	0	481	604	
2	0	0	0	0	480	604	
3	0	0	0	0	480	604	
4	0	0	0	0	481	604	
5	0	0	0	0	480	604	
6	0	0	0	0	480	604	
7	0	0	0	0	480	604	
8	0	0	0	0	480	604	
9	0	0	0	0	480	604	
10	0	0	0	0	480	604	
11	0	0	0	0	480	603	
12	0	0	0	0	480	604	
13	0	0	0	0	481	604	
14	0	0	0	0	481	604	
15	0	0	0	0	482	604	
0	0	0	0	0	481	604	
1	0	0	0	0	481	604	
2	0	0	0	0	482	604	
3	0	0	0	0	482	604	
4	0	0	0	0	482	604	
5	0	0	0	0	482	604	
6	0	0	0	0	483	604	
7	0	0	0	0	483	604	
8	0	0	0	0	484	605	
9	0	0	0	0	485	604	
10	0	0	0	0	485	605	
11	0	0	0	0	486	604	
12	0	0	0	0	486	604	
13	0	0	0	0	486	604	
14	0	0	0	0	486	604	
15	0	0	0	0	486	604	
0	0	0	0	0	487	605	
1	0	0	0	0	486	604	
2	0	0	0	0	487	604	
3	0	0	0	0	487	604	
4	0	0	0	0	487	604	
5	0	0	0	0	487	604	
6	0	0	0	0	487	604	
7	0	0	0	0	486	604	
8	0	0	0	0	485	604	
9	0	0	0	0	484	604	
10	0	0	0	0	484	604	
11	0	0	0	0	483	603	
12	0	0	0	0	484	604	
13	0	0	0	0	484	603	
14	0	0	0	0	484	604	
15	0	0	0	0	485	604	
0	0	0	0	0	485	604	
1	0	0	0	0	485	604	
2	0	0	0	0	486	604	
3	0	0	0	0	486	604	
4	0	0	0	0	487	604	
5	0	0	0	0	486	603	
6	0	0	0	0	486	604	
7	0	0	0	0	486	604	
8	0	0	0	0	486	604	
9	0	0	0	0	487	605	
10	0	0	0	0	487	604	
11	0	0	0	0	487	605	
12	0	0	0	0	487	604	
13	0	0	0	0	487	604	
14	0	0	0	0	487	605	
15	0	0	0	0	488	604	
0	0	0	0	0	487	604	
1	0	0	0	0	487	604	
2	0	0	0	0	488	604	
3	0	0	0	0	487	604	
4	0	0	0	0	488	604	
5	0	0	0	0	488	604	
6	0	0	0	0	487	604	
7	0	0	0	0	487	605	
8	0	0	0	0	487	606	
9	0	0	0	0	487	604	
10	0	0	0	0	487	605	
11	0	0	0	0	487	605	
12	0	0	0	0	487	605	
13	0	0	0	0	487	605	
14	0	0	0	0	487	604	
15	0	0	0	0	487	605	
0	0	0	0	0	487	605	
1	0	0	0	0	487	605	
2	0	0	0	0	487	605	
3	0	0	0	0	488	604	
4	0	0	0	0	488	604	
5	0	0	0	0	488	604	
6	0	0	0	0	488	604	
7	0	0	0	0	488	604	
8	0	0	0	0	487	604	
9	0	0	0	0	488	604	
10	0	0	0	0	488	605	
11	0	0	0	0	488	604	
12	0	0	0	0	487	604	
13	0	0	0	0	488	604	
14	0	0	0	0	488	605	
15	0	0	0	0	488	604	
0	0	0	0	0	489	605	
1	0	0	0	0	488	604	
2	0	0	0	0	487	603	
3	0	0	0	0	487	604	
4	0	0	0	0	487	604	
5	0	0	0	0	486	604	
6	0	0	0	0	486	604	
7	0	0	0	0	485	604	
8	0	0	0	0	485	604	
9	0	0	0	0	486	604	
10	0	0	0	0	487	604	
11	0	0	0	0	487	604	
12	0	0	0	0	488	604	
13	0	0	0	0	488	604	
14	0	0	0	0	488	604	
15	0	0	0	0	488	604	
0	0	0	0	0	488	604	
1	0	0	0	0	487	604	
2	0	0	0	0	487	604	
3	0	0	0	0	487	604	
4	0	0	0	0	487	604	
5	0	0	0	0	488	604	
6	0	0	0	0	487	603	
7	0	0	0	0	487	604	
8	0	0	0	0	487	604	
9	0	0	0	0	487	603	
10	0	0	0	0	487	603	
11	0	0	0	0	487	603	
12	0	0	0	0	487	603	
13	0	0	0	0	487	604	
14	0	0	0	0	486	604	
15	0	0	0	0	486	604	
0	0	0	0	0	486	604	
1	0	0	0	0	486	604	
2	0	0	0	0	486	604	
3	0	0	0	0	485	604	
4	0	0	0	0	485	604	
5	0	0	0	0	485	604	
6	0	0	0	0	485	604	
7	0	0	0	0	486	604	
8	0	0	0	0	485	604	
9	0	0	0	0	485	604	
10	0	0	0	0	484	604	
11	0	0	0	0	484	604	
12	0	0	0	0	483	604	
13	0	0	0	0	485	604	
14	0	0	0	0	484	605	
15	0	0	0	0	484	604	
0	0	0	0	0	485	605	
1	0	0	0	0	484	605	
2	0	0	0	0	484	605	
3	0	0	0	0	484	604	
4	0	0	0	0	483	604	
5	0	0	0	0	483	604	
6	0	0	0	0	483	604	
7	0	0	0	0	482	604	
8	0	0	0	0	481	604	
9	0	0	0	0	480	604	
10	0	0	0	0	480	604	
11	0	0	0	0	480	604	
12	0	0	0	0	480	604	
13	0	0	0	0	480	604	
14	0	0	0	0	480	604	
15	0	0	0	0	479	604	
0	0	0	0	0	479	604	
1	0	0	0	0	479	604	
2	0	0	0	0	479	604	
3	0	0	0	0	479	604	
4	0	0	0	0	479	604	
5	0	0	0	0	479	604	
6	0	0	0	0	480	604	
7	0	0	0	0	479	604	
8	0	0	0	0	479	604	
9	0	0	0	0	479	604	
10	0	0	0	0	479	604	
11	0	0	0	0	479	604	
12	0	0	0	0	479	604	
13	0	0	0	0	480	604	
14	0	0	0	0	480	604	
15	0	0	0	0	480	604	
0	0	0	0	0	481	603	
1	0	0	0	0	481	603	
2	0	0	0	0	482	603	
3	0	0	0	0	483	604	
4	0	0	0	0	483	603	
5	0	0	0	0	484	604	
6	0	0	0	0	484	604	
7	0	0	0	0	483	604	
8	0	0	0	0	483	604	
9	0	0	0	0	484	603	
10	0	0	0	0	484	603	
11	0	0	0	0	484	604	
12	0	0	0	0	484	603	
13	0	0	0	0	485	604	
14	0	0	0	0	485	604	
15	0	0	0	0	485	603	
0	0	0	0	0	485	604	
1	0	0	0	0	486	603	
2	0	0	0	0	487	604	
3	0	0	0	0	487	603	
4	0	0	0	0	487	604	
5	0	0	0	0	487	603	
6	0	0	0	0	488	603	
7	0	0	0	0	488	604	
8	0	0	0	0	489	604	
9	0	0	0	0	489	604	
10	0	0	0	0	489	603	
11	0	0	0	0	490	603	
12	0	0	0	0	491	604	
13	0	0	0	0	491	604	
14	0	0	0	0	491	603	
15	0	0	0	0	492	604	
0	0	0	0	0	492	603	
1	0	0	0	0	493	604	
2	0	0	0	0	494	603	
3	0	0	0	0	494	603	
4	0	0	0	0	494	604	
5	0	0	0	0	494	603	
6	0	0	0	0	494	603	
7	0	0	0	0	494	603	
8	0	0	0	0	494	603	
9	0	0	0	0	494	603	
10	0	0	0	0	495	603	
11	0	0	0	0	496	604	
12	0	0	0	0	497	604	
13	0	0	0	0	498	604	
14	0	0	0	0	499	604	
15	0	0	0	0	500	603	
0	0	0	0	0	502	604	
1	0	0	0	0	503	604	
2	0	0	0	0	504	603	
3	0	0	0	0	505	603	
4	0	0	0	0	507	603	
5	0	0	0	0	508	604	
6	0	0	0	0	510	604	
7	0	0	0	0	510	604	
8	0	0	0	0	512	604	
9	0	0	0	0	513	604	
10	0	0	0	0	514	604	
11	0	0	0	0	515	603	
12	0	0	0	0	516	604	
13	0	0	0	0	517	604	
14	0	0	0	0	518	604	
15	0	0	0	0	519	604	
0	0	0	0	0	519	604	
1	0	0	0	0	520	604	
2	0	0	0	0	521	604	
3	0	0	0	0	522	604	
4	0	0	0	0	522	604	
5	0	0	0	0	523	604	
6	0	0	0	0	524	604	
7	0	0	0	0	525	604	
8	0	0	0	0	525	605	
9	0	0	0	0	526	604	
10	0	0	0	0	526	604	
11	0	0	0	0	526	604	
12	0	0	0	0	527	604	
13	0	0	0	0	527	605	
14	0	0	0	0	527	604	
15	0	0	0	0	527	604	
0	0	0	0	0	527	604	
1	0	0	0	0	528	604	
2	0	0	0	0	527	604	
3	0	0	0	0	528	604	
4	0	0	0	0	529	604	
5	0	0	0	0	530	604	
6	0	0	0	0	530	605	
7	0	0	0	0	530	604	
8	0	0	0	0	529	605	
9	0	0	0	0	529	604	
10	0	0	0	0	529	604	
11	0	0	0	0	530	604	
12	0	0	0	0	530	604	
13	0	0	0	0	530	605	
14	0	0	0	0	529	604	
15	0	0	0	0	529	604	
0	0	0	0	0	529	604	
1	0	0	0	0	529	604	
2	0	0	0	0	530	604	
3	0	0	0	0	530	604	
4	0	0	0	0	530	604	
5	0	0	0	0	530	604	
6	0	0	0	0	529	603	
7	0	0	0	0	529	604	
8	0	0	0	0	529	604	
9	0	0	0	0	529	603	
10	0	0	0	0	530	603	
11	0	0	0	0	530	603	
12	0	0	0	0	530	604	
13	0	0	0	0	529	603	
14	0	0	0	0	529	604	
15	0	0	0	0	529	603	
0	0	0	0	0	529	604	
1	0	0	0	0	529	603	
2	0	0	0	0	529	604	
3	0	0	0	0	529	604	
4	0	0	0	0	529	604	
5	0	0	0	0	529	603	
6	0	0	0	0	529	603	
7	0	0	0	0	529	603	
8	0	0	0	0	529	603	
9	0	0	0	0	528	602	
10	0	0	0	0	529	603	
11	0	0	0	0	529	603	
12	0	0	0	0	529	603	
13	0	0	0	0	529	603	
14	0	0	0	0	530	603	
15	0	0	0	0	530	603	
0	0	0	0	0	529	604	
1	0	0	0	0	528	603	
2	0	0	0	0	527	603	
3	0	0	0	0	527	603	
4	0	0	0	0	527	603	
5	0	0	0	0	527	604	
6	0	0	0	0	526	604	
7	0	0	0	0	525	603	
8	0	0	0	0	525	604	
9	0	0	0	0	525	603	
10	0	0	0	0	525	603	
11	0	0	0	0	525	603	
12	0	0	0	0	525	603	
13	0	0	0	0	525	604	
14	0	0	0	0	525	603	
15	0	0	0	0	525	604	
0	0	0	0	0	524	603	
1	0	0	0	0	524	603	
2	0	0	0	0	523	604	
3	0	0	0	0	523	603	
4	0	0	0	0	523	603	
5	0	0	0	0	523	603	
6	0	0	0	0	523	603	
7	0	0	0	0	523	604	
8	0	0	0	0	522	604	
9	0	0	0	0	521	604	
10	0	0	0	0	521	604	
11	0	0	0	0	520	604	
12	0	0	0	0	520	604	
13	0	0	0	0	519	604	
14	0	0	0	0	519	604	
15	0	0	0	0	519	604	
0	0	0	0	0	519	604	
1	0	0	0	0	519	603	
2	0	0	0	0	519	604	
3	0	0	0	0	518	604	
4	0	0	0	0	519	604	
5	0	0	0	0	518	604	
6	0	0	0	0	518	604	
7	0	0	0	0	518	603	
8	0	0	0	0	518	604	
9	0	0	0	0	518	604	
10	0	0	0	0	518	604	
11	0	0	0	0	518	603	
12	0	0	0	0	517	604	
13	0	0	0	0	517	604	
14	0	0	0	0	517	604	
15	0	0	0	0	517	604	
0	0	0	0	0	518	604	
1	0	0	0	0	516	604	
2	0	0	0	0	516	604	
3	0	0	0	0	515	604	
4	0	0	0	0	515	604	
5	0	0	0	0	515	604	
6	0	0	0	0	515	603	
7	0	0	0	0	515	604	
8	0	0	0	0	514	604	
9	0	0	0	0	514	604	
10	0	0	0	0	513	604	
11	0	0	0	0	513	604	
12	0	0	0	0	513	604	
13	0	0	0	0	512	604	
14	0	0	0	0	512	604	
15	0	0	0	0	511	604	
0	0	0	0	0	511	604	
1	0	0	0	0	511	604	
2	0	0	0	0	511	605	
3	0	0	0	0	511	604	
4	0	0	0	0	511	604	
5	0	0	0	0	511	603	
6	0	0	0	0	512	604	
7	0	0	0	0	512	604	
8	0	0	0	0	512	604	
9	0	0	0	0	512	604	
10	0	0	0	0	513	604	
11	0	0	0	0	513	604	
12	0	0	0	0	513	604	
13	0	0	0	0	514	604	
14	0	0	0	0	514	604	
15	0	0	0	0	514	604	
0	0	0	0	0	515	604	
1	0	0	0	0	515	604	
2	0	0	0	0	514	604	
3	0	0	0	0	515	604	
4	0	0	0	0	515	604	
5	0	0	0	0	515	604	
6	0	0	0	0	515	604	
7	0	0	0	0	515	604	
8	0	0	0	0	514	605	
9	0	0	0	0	514	604	
10	0	0	0	0	514	604	
11	0	0	0	0	514	604	
12	0	0	0	0	514	604	
13	0	0	0	0	514	604	
14	0	0	0	0	514	604	
15	0	0	0	0	514	604	
0	0	0	0	0	513	604	
1	0	0	0	0	513	604	
2	0	0	0	0	513	604	
3	0	0	0	0	513	604	
4	0	0	0	0	513	604	
5	0	0	0	0	514	604	
6	0	0	0	0	513	604	
7	0	0	0	0	513	604	
8	0	0	0	0	512	604	
9	0	0	0	0	512	604	
10	0	0	0	0	512	604	
11	0	0	0	0	512	604	
12	0	0	0	0	511	605	
13	0	0	0	0	511	604	
14	0	0	0	0	511	604	
15	0	0	0	0	511	604	
0	0	0	0	0	510	605	
1	0	0	0	0	510	604	
2	0	0	0	0	511	603	
3	0	0	0	0	512	604	
4	0	0	0	0	512	603	
5	0	0	0	0	512	603	
6	0	0	0	0	512	604	
7	0	0	0	0	512	603	
8	0	0	0	0	512	604	
9	0	0	0	0	512	603	
10	0	0	0	0	511	604	
11	0	0	0	0	511	603	
12	0	0	0	0	511	603	
13	0	0	0	0	511	604	
14	0	0	0	0	510	603	
15	0	0	0	0	509	603	
0	0	0	0	0	510	604	
1	0	0	0	0	510	603	
2	0	0	0	0	510	603	
3	0	0	0	0	510	602	
4	0	0	0	0	510	603	
5	0	0	0	0	510	603	
6	0	0	0	0	510	604	
7	0	0	0	0	509	603	
8	0	0	0	0	509	604	
9	0	0	0	0	509	603	
10	0	0	0	0	509	603	
11	0	0	0	0	509	603	
12	0	0	0	0	508	604	
13	0	0	0	0	508	603	
14	0	0	0	0	508	603	
15	0	0	0	0	508	604	
0	0	0	0	0	508	604	
1	0	0	0	0	507	603	
2	0	0	0	0	507	603	
3	0	0	0	0	508	603	
4	0	0	0	0	508	603	
5	0	0	0	0	508	603	
6	0	0	0	0	509	603	
7	0	0	0	0	509	604	
8	0	0	0	0	509	603	
9	0	0	0	0	509	602	
10	0	0	0	0	509	602	
11	0	0	0	0	510	604	
12	0	0	0	0	510	603	
13	0	0	0	0	510	603	
14	0	0	0	0	511	603	
15	0	0	0	0	511	602	
0	0	0	0	0	511	604	
1	0	0	0	0	511	603	
2	0	0	0	0	511	602	
3	0	0	0	0	512	602	
4	0	0	0	0	512	602	
5	0	0	0	0	512	603	
6	0	0	0	0	512	603	
7	0	0	0	0	511	603	
8	0	0	0	0	511	603	
9	0	0	0	0	511	602	
10	0	0	0	0	511	603	
11	0	0	0	0	510	603	
12	0	0	0	0	510	603	
13	0	0	0	0	509	603	
14	0	0	0	0	509	603	
15	0	0	0	0	508	603	
0	0	0	0	0	508	604	
1	0	0	0	0	508	603	
2	0	0	0	0	508	604	
3	0	0	0	0	508	603	
4	0	0	0	0	508	604	
5	0	0	0	0	509	604	
6	0	0	0	0	508	604	
7	0	0	0	0	509	604	
8	0	0	0	0	509	603	
9	0	0	0	0	510	604	
10	0	0	0	0	510	604	
11	0	0	0	0	509	603	
12	0	0	0	0	508	604	
13	0	0	0	0	508	604	
14	0	0	0	0	508	605	
15	0	0	0	0	509	604	
0	0	0	0	0	509	604	
1	0	0	0	0	508	605	
2	0	0	0	0	508	604	
3	0	0	0	0	508	604	
4	0	0	0	0	509	604	
5	0	0	0	0	509	604	
6	0	0	0	0	510	604	
7	0	0	0	0	510	604	
8	0	0	0	0	510	604	
9	0	0	0	0	510	604	
10	0	0	0	0	509	604	
11	0	0	0	0	509	605	
12	0	0	0	0	509	604	
13	0	0	0	0	509	604	
14	0	0	0	0	509	604	
15	0	0	0	0	509	604	
0	0	0	0	0	509	604	
1	0	0	0	0	510	605	
2	0	0	0	0	510	605	
3	0	0	0	0	509	604	
4	0	0	0	0	509	605	
5	0	0	0	0	509	605	
6	0	0	0	0	509	604	
7	0	0	0	0	508	605	
8	0	0	0	0	508	605	
9	0	0	0	0	508	604	
10	0	0	0	0	509	604	
11	0	0	0	0	509	605	
12	0	0	0	0	509	604	
13	0	0	0	0	508	604	
14	0	0	0	0	508	604	
15	0	0	0	0	508	604	
0	0	0	0	0	508	604	
1	0	0	0	0	508	604	
2	0	0	0	0	507	604	
3	0	0	0	0	508	604	
4	0	0	0	0	508	605	
5	0	0	0	0	507	604	
6	0	0	0	0	507	605	
7	0	0	0	0	507	604	
8	0	0	0	0	507	604	
9	0	0	0	0	507	604	
10	0	0	0	0	507	604	
11	0	0	0	0	507	604	
12	0	0	0	0	506	603	
13	0	0	0	0	506	604	
14	0	0	0	0	506	603	
15	0	0	0	0	506	604	
0	0	0	0	0	505	604	
1	0	0	0	0	505	604	
2	0	0	0	0	505	604	
3	0	0	0	0	505	604	
4	0	0	0	0	506	604	
5	0	0	0	0	506	604	
6	0	0	0	0	506	604	
7	0	0	0	0	506	604	
8	0	0	0	0	507	604	
9	0	0	0	0	507	603	
10	0	0	0	0	507	604	
11	0	0	0	0	507	604	
12	0	0	0	0	507	603	
13	0	0	0	0	507	603	
14	0	0	0	0	507	603	
15	0	0	0	0	507	603	
0	0	0	0	0	507	603	
1	0	0	0	0	507	603	
2	0	0	0	0	506	603	
3	0	0	0	0	506	603	
4	0	0	0	0	506	603	
5	0	0	0	0	505	604	
6	0	0	0	0	505	604	
7	0	0	0	0	505	603	
8	0	0	0	0	504	603	
9	0	0	0	0	505	603	
10	0	0	0	0	504	603	
11	0	0	0	0	504	603	
12	0	0	0	0	504	604	
13	0	0	0	0	505	603	
14	0	0	0	0	506	604	
15	0	0	0	0	506	604	
0	0	0	0	0	506	604	
1	0	0	0	0	507	604	
2	0	0	0	0	506	603	
3	0	0	0	0	506	604	
4	0	0	0	0	506	603	
5	0	0	0	0	507	603	
6	0	0	0	0	507	603	
7	0	0	0	0	507	603	
8	0	0	0	0	507	603	
9	0	0	0	0	507	603	
10	0	0	0	0	507	603	
11	0	0	0	0	507	604	
12	0	0	0	0	507	603	
13	0	0	0	0	507	603	
14	0	0	0	0	506	604	
15	0	0	0	0	506	604	
0	0	0	0	0	507	604	
1	0	0	0	0	506	603	
2	0	0	0	0	506	604	
3	0	0	0	0	506	603	
4	0	0	0	0	506	604	
5	0	0	0	0	505	604	
6	0	0	0	0	505	604	
7	0	0	0	0	505	604	
8	0	0	0	0	504	604	
9	0	0	0	0	504	603	
10	0	0	0	0	504	604	
11	0	0	0	0	504	604	
12	0	0	0	0	504	603	
13	0	0	0	0	503	604	
14	0	0	0	0	503	603	
15	0	0	0	0	502	603	
0	0	0	0	0	502	604	
1	0	0	0	0	502	604	
2	0	0	0	0	502	603	
3	0	0	0	0	501	603	
4	0	0	0	0	501	604	
5	0	0	0	0	501	603	
6	0	0	0	0	501	603	
7	0	0	0	0	501	603	
8	0	0	0	0	501	603	
9	0	0	0	0	501	603	
10	0	0	0	0	501	603	
11	0	0	0	0	501	603	
12	0	0	0	0	501	603	
13	0	0	0	0	502	603	
14	0	0	0	0	502	603	
15	0	0	0	0	502	602	
0	0	0	0	0	503	603	
1	0	0	0	0	503	603	
2	0	0	0	0	503	603	
3	0	0	0	0	503	603	
4	0	0	0	0	504	603	
5	0	0	0	0	504	603	
6	0	0	0	0	504	603	
7	0	0	0	0	504	603	
8	0	0	0	0	503	603	
9	0	0	0	0	503	603	
10	0	0	0	0	504	604	
11	0	0	0	0	504	603	
12	0	0	0	0	503	603	
13	0	0	0	0	503	604	
14	0	0	0	0	503	604	
15	0	0	0	0	502	604	
0	0	0	0	0	503	604	
1	0	0	0	0	502	604	
2	0	0	0	0	503	604	
3	0	0	0	0	503	604	
4	0	0	0	0	503	604	
5	0	0	0	0	503	604	
6	0	0	0	0	503	604	
7	0	0	0	0	503	604	
8	0	0	0	0	503	604	
9	0	0	0	0	504	604	
10	0	0	0	0	504	604	
11	0	0	0	0	504	604	
12	0	0	0	0	504	604	
13	0	0	0	0	505	604	
14	0	0	0	0	505	604	
15	0	0	0	0	505	604	
0	0	0	0	0	506	604	
1	0	0	0	0	506	604	
2	0	0	0	0	506	604	
3	0	0	0	0	506	604	
4	0	0	0	0	506	604	
5	0	0	0	0	506	604	
6	0	0	0	0	506	604	
7	0	0	0	0	506	604	
8	0	0	0	0	506	604	
9	0	0	0	0	506	604	
10	0	0	0	0	506	604	
11	0	0	0	0	506	604	
12	0	0	0	0	505	604	
13	0	0	0	0	505	605	
14	0	0	0	0	504	604	
15	0	0	0	0	504	604	
0	0	0	0	0	505	604	
1	0	0	0	0	505	604	
2	0	0	0	0	506	604	
3	0	0	0	0	506	604	
4	0	0	0	0	506	603	
5	0	0	0	0	506	604	
6	0	0	0	0	507	604	
7	0	0	0	0	508	604	
8	0	0	0	0	507	603	
9	0	0	0	0	508	604	
10	0	0	0	0	509	604	
11	0	0	0	0	509	604	
12	0	0	0	0	508	604	
13	0	0	0	0	508	604	
14	0	0	0	0	508	604	
15	0	0	0	0	507	604	
0	0	0	0	0	507	604	
1	0	0	0	0	507	605	
2	0	0	0	0	507	604	
3	0	0	0	0	507	604	
4	0	0	0	0	506	604	
5	0	0	0	0	505	604	
6	0	0	0	0	505	604	
7	0	0	0	0	505	604	
8	0	0	0	0	505	604	
9	0	0	0	0	505	604	
10	0	0	0	0	505	604	
11	0	0	0	0	505	604	
12	0	0	0	0	505	604	
13	0	0	0	0	505	604	
14	0	0	0	0	504	604	
15	0	0	0	0	503	604	
0	0	0	0	0	503	604	
1	0	0	0	0	503	603	
2	0	0	0	0	504	603	
3	0	0	0	0	504	604	
4	0	0	0	0	504	603	
5	0	0	0	0	504	603	
6	0	0	0	0	504	604	
7	0	0	0	0	504	603	
8	0	0	0	0	505	604	
9	0	0	0	0	505	603	
10	0	0	0	0	505	603	
11	0	0	0	0	505	603	
12	0	0	0	0	505	604	
13	0	0	0	0	505	604	
14	0	0	0	0	505	603	
15	0	0	0	0	506	604	
0	0	0	0	0	505	604	
1	0	0	0	0	505	603	
2	0	0	0	0	505	604	
3	0	0	0	0	505	603	
4	0	0	0	0	505	603	
5	0	0	0	0	505	603	
6	0	0	0	0	505	603	
7	0	0	0	0	505	604	
8	0	0	0	0	505	603	
9	0	0	0	0	505	603	
10	0	0	0	0	504	603	
11	0	0	0	0	504	603	
12	0	0	0	0	503	603	
13	0	0	0	0	503	603	
14	0	0	0	0	503	604	
15	0	0	0	0	503	603	
0	0	0	0	0	503	604	
1	0	0	0	0	502	603	
2	0	0	0	0	502	603	
3	0	0	0	0	502	604	
4	0	0	0	0	502	603	
5	0	0	0	0	502	604	
6	0	0	0	0	501	604	
7	0	0	0	0	501	603	
8	0	0	0	0	501	604	
9	0	0	0	0	501	603	
10	0	0	0	0	500	604	
11	0	0	0	0	501	604	
12	0	0	0	0	501	604	
13	0	0	0	0	502	604	
14	0	0	0	0	503	603	
15	0	0	0	0	503	604	
0	0	0	0	0	502	604	
1	0	0	0	0	502	603	
2	0	0	0	0	502	604	
3	0	0	0	0	501	604	
4	0	0	0	0	500	604	
5	0	0	0	0	500	604	
6	0	0	0	0	499	604	
7	0	0	0	0	497	604	
8	0	0	0	0	495	604	
9	0	0	0	0	493	604	
10	0	0	0	0	492	604	
11	0	0	0	0	491	604	
12	0	0	0	0	488	604	
13	0	0	0	0	486	604	
14	0	0	0	0	484	604	
15	0	0	0	0	481	604	
0	0	0	0	0	477	604	
1	0	0	0	0	473	604	
2	0	0	0	0	468	604	
3	0	0	0	0	464	604	
4	0	0	0	0	459	603	
5	0	0	0	0	454	603	
6	0	0	0	0	448	604	
7	0	0	0	0	443	603	
8	0	0	0	0	440	604	
9	0	0	0	0	437	604	
10	0	0	0	0	438	604	
11	0	0	0	0	441	604	
12	0	0	0	0	448	604	
13	0	0	0	0	456	604	
14	0	0	0	0	467	603	
15	0	0	0	0	477	604	
0	0	0	0	0	487	604	
1	0	0	0	0	498	603	
2	0	0	0	0	511	604	
3	0	0	0	0	525	604	
4	0	0	0	0	540	604	
5	0	0	0	0	552	604	
6	0	0	0	0	563	604	
7	0	0	0	0	575	603	
8	0	0	0	0	582	604	
9	0	0	0	0	587	603	
10	0	0	0	0	591	604	
11	0	0	0	0	595	604	
12	0	0	0	0	599	604	
13	0	0	0	0	601	604	
14	0	0	0	0	601	604	
15	0	0	0	0	601	604	
0	0	0	0	0	601	604	
1	0	0	0	0	601	604	
2	0	0	0	0	598	604	
3	0	0	0	0	591	603	
4	0	0	0	0	583	604	
5	0	0	0	0	576	603	
6	0	0	0	0	570	603	
7	0	0	0	0	565	603	
8	0	0	0	0	563	603	
9	0	0	0	0	562	604	
10	0	0	0	0	561	603	
11	0	0	0	0	564	604	
12	0	0	0	0	567	604	
13	0	0	0	0	567	603	
14	0	0	0	0	566	604	
15	0	0	0	0	561	604	
0	0	0	0	0	558	604	
1	0	0	0	0	552	604	
2	0	0	0	0	545	604	
3	0	0	0	0	539	604	
4	0	0	0	0	532	604	
5	0	0	0	0	525	604	
6	0	0	0	0	519	604	
7	0	0	0	0	512	604	
8	0	0	0	0	508	605	
9	0	0	0	0	503	604	
10	0	0	0	0	499	605	
11	0	0	0	0	495	604	
12	0	0	0	0	492	604	
13	0	0	0	0	490	604	
14	0	0	0	0	488	604	
15	0	0	0	0	487	604	
0	0	0	0	0	485	605	
1	0	0	0	0	484	604	
2	0	0	0	0	483	605	
3	0	0	0	0	482	604	
4	0	0	0	0	481	604	
5	0	0	0	0	480	604	
6	0	0	0	0	479	604	
7	0	0	0	0	479	604	
8	0	0	0	0	478	604	
9	0	0	0	0	478	604	
10	0	0	0	0	477	604	
11	0	0	0	0	478	604	
12	0	0	0	0	478	604	
13	0	0	0	0	478	604	
14	0	0	0	0	478	604	
15	0	0	0	0	478	604	
0	0	0	0	0	477	604	
1	0	0	0	0	478	604	
2	0	0	0	0	478	604	
3	0	0	0	0	478	604	
4	0	0	0	0	478	604	
5	0	0	0	0	479	604	
6	0	0	0	0	480	604	
7	0	0	0	0	480	603	
8	0	0	0	0	481	604	
9	0	0	0	0	481	604	
10	0	0	0	0	481	604	
11	0	0	0	0	481	605	
12	0	0	0	0	482	604	
13	0	0	0	0	483	604	
14	0	0	0	0	483	604	
15	0	0	0	0	483	604	
0	0	0	0	0	483	604	
1	0	0	0	0	482	603	
2	0	0	0	0	483	603	
3	0	0	0	0	482	603	
4	0	0	0	0	482	604	
5	0	0	0	0	481	604	
6	0	0	0	0	481	603	
7	0	0	0	0	480	602	
8	0	0	0	0	480	603	
9	0	0	0	0	480	603	
10	0	0	0	0	480	603	
11	0	0	0	0	481	603	
12	0	0	0	0	481	603	
13	0	0	0	0	481	603	
14	0	0	0	0	481	603	
15	0	0	0	0	481	604	
0	0	0	0	0	482	604	
1	0	0	0	0	483	603	
2	0	0	0	0	484	603	
3	0	0	0	0	486	604	
4	0	0	0	0	486	603	
5	0	0	0	0	487	604	
6	0	0	0	0	487	603	
7	0	0	0	0	487	604	
8	0	0	0	0	487	604	
9	0	0	0	0	487	604	
10	0	0	0	0	487	604	
11	0	0	0	0	487	604	
12	0	0	0	0	487	603	
13	0	0	0	0	488	603	
14	0	0	0	0	488	604	
15	0	0	0	0	489	603	
0	0	0	0	0	489	604	
1	0	0	0	0	490	604	
2	0	0	0	0	489	604	
3	0	0	0	0	490	604	
4	0	0	0	0	490	604	
5	0	0	0	0	491	605	
6	0	0	0	0	491	604	
7	0	0	0	0	490	604	
8	0	0	0	0	491	605	
9	0	0	0	0	491	604	
10	0	0	0	0	491	604	
11	0	0	0	0	491	604	
12	0	0	0	0	490	604	
13	0	0	0	0	490	604	
14	0	0	0	0	490	604	
15	0	0	0	0	490	605	
0	0	0	0	0	490	604	
1	0	0	0	0	490	604	
2	0	0	0	0	491	604	
3	0	0	0	0	490	604	
4	0	0	0	0	490	604	
5	0	0	0	0	491	604	
6	0	0	0	0	491	604	
7	0	0	0	0	492	605	
8	0	0	0	0	491	604	
9	0	0	0	0	491	604	
10	0	0	0	0	492	604	
11	0	0	0	0	491	604	
12	0	0	0	0	491	604	
13	0	0	0	0	491	604	
14	0	0	0	0	491	605	
15	0	0	0	0	491	605	
0	0	0	0	0	492	605	
1	0	0	0	0	493	604	
2	0	0	0	0	492	604	
3	0	0	0	0	492	604	
4	0	0	0	0	492	604	
5	0	0	0	0	492	604	
6	0	0	0	0	491	604	
7	0	0	0	0	491	604	
8	0	0	0	0	492	604	
9	0	0	0	0	491	604	
10	0	0	0	0	492	604	
11	0	0	0	0	493	604	
12	0	0	0	0	493	604	
13	0	0	0	0	493	604	
14	0	0	0	0	493	605	
15	0	0	0	0	492	604	
0	0	0	0	0	492	604	
1	0	0	0	0	492	604	
2	0	0	0	0	492	604	
3	0	0	0	0	493	604	
4	0	0	0	0	493	604	
5	0	0	0	0	493	604	
6	0	0	0	0	492	603	
7	0	0	0	0	492	604	
8	0	0	0	0	492	605	
9	0	0	0	0	492	604	
10	0	0	0	0	491	604	
11	0	0	0	0	491	604	
12	0	0	0	0	491	604	
13	0	0	0	0	491	604	
14	0	0	0	0	491	604	
15	0	0	0	0	491	604	
0	0	0	0	0	492	604	
1	0	0	0	0	492	604	
2	0	0	0	0	492	604	
3	0	0	0	0	492	604	
4	0	0	0	0	493	604	
5	0	0	0	0	492	603	
6	0	0	0	0	492	604	
7	0	0	0	0	492	604	
8	0	0	0	0	492	604	
9	0	0	0	0	493	604	
10	0	0	0	0	493	604	
11	0	0	0	0	492	604	
12	0	0	0	0	492	603	
13	0	0	0	0	491	604	
14	0	0	0	0	491	604	
15	0	0	0	0	491	604	
0	0	0	0	0	491	604	
1	0	0	0	0	491	604	
2	0	0	0	0	490	603	
3	0	0	0	0	491	604	
4	0	0	0	0	490	604	
5	0	0	0	0	489	603	
6	0	0	0	0	489	604	
7	0	0	0	0	488	604	
8	0	0	0	0	488	604	
9	0	0	0	0	488	604	
10	0	0	0	0	487	604	
11	0	0	0	0	488	604	
12	0	0	0	0	489	604	
13	0	0	0	0	489	603	
14	0	0	0	0	490	603	
15	0	0	0	0	490	604	
0	0	0	0	0	490	604	
1	0	0	0	0	489	604	
2	0	0	0	0	489	604	
3	0	0	0	0	489	604	
4	0	0	0	0	489	604	
5	0	0	0	0	488	604	
6	0	0	0	0	489	604	
7	0	0	0	0	488	604	
8	0	0	0	0	488	604	
9	0	0	0	0	489	604	
10	0	0	0	0	489	604	
11	0	0	0	0	488	604	
12	0	0	0	0	488	604	
13	0	0	0	0	487	604	
14	0	0	0	0	487	603	
15	0	0	0	0	488	604	
0	0	0	0	0	488	604	
1	0	0	0	0	488	604	
2	0	0	0	0	488	604	
3	0	0	0	0	488	604	
4	0	0	0	0	488	604	
5	0	0	0	0	488	604	
6	0	0	0	0	489	604	
7	0	0	0	0	489	604	
8	0	0	0	0	489	605	
9	0	0	0	0	489	604	
10	0	0	0	0	490	604	
11	0	0	0	0	490	604	
12	0	0	0	0	490	604	
13	0	0	0	0	491	604	
14	0	0	0	0	492	604	
15	0	0	0	0	492	604	
0	0	0	0	0	493	604	
1	0	0	0	0	492	604	
2	0	0	0	0	493	604	
3	0	0	0	0	492	604	
4	0	0	0	0	492	603	
5	0	0	0	0	493	604	
6	0	0	0	0	493	604	
7	0	0	0	0	492	604	
8	0	0	0	0	493	604	
9	0	0	0	0	494	604	
10	0	0	0	0	495	604	
11	0	0	0	0	495	604	
12	0	0	0	0	496	604	
13	0	0	0	0	496	604	
14	0	0	0	0	496	604	
15	0	0	0	0	496	604	
0	0	0	0	0	496	604	
1	0	0	0	0	497	604	
2	0	0	0	0	498	604	
3	0	0	0	0	498	604	
4	0	0	0	0	499	604	
5	0	0	0	0	499	604	
6	0	0	0	0	499	604	
7	0	0	0	0	500	604	
8	0	0	0	0	500	603	
9	0	0	0	0	500	603	
10	0	0	0	0	501	604	
11	0	0	0	0	502	604	
12	0	0	0	0	502	604	
13	0	0	0	0	502	604	
14	0	0	0	0	502	604	
15	0	0	0	0	502	604	
0	0	0	0	0	503	604	
1	0	0	0	0	504	604	
2	0	0	0	0	505	603	
3	0	0	0	0	506	604	
4	0	0	0	0	506	604	
5	0	0	0	0	507	604	
6	0	0	0	0	508	603	
7	0	0	0	0	508	604	
8	0	0	0	0	509	603	
9	0	0	0	0	509	604	
10	0	0	0	0	510	604	
11	0	0	0	0	510	603	
12	0	0	0	0	511	603	
13	0	0	0	0	511	603	
14	0	0	0	0	512	603	
15	0	0	0	0	512	603	
0	0	0	0	0	514	604	
1	0	0	0	0	514	603	
2	0	0	0	0	515	603	
3	0	0	0	0	517	603	
4	0	0	0	0	518	603	
5	0	0	0	0	518	603	
6	0	0	0	0	519	603	
7	0	0	0	0	519	604	
8	0	0	0	0	519	604	
9	0	0	0	0	519	603	
10	0	0	0	0	520	604	
11	0	0	0	0	521	604	
12	0	0	0	0	521	604	
13	0	0	0	0	521	604	
14	0	0	0	0	521	604	
15	0	0	0	0	522	604	
0	0	0	0	0	521	604	
1	0	0	0	0	522	603	
2	0	0	0	0	522	604	
3	0	0	0	0	523	604	
4	0	0	0	0	523	603	
5	0	0	0	0	523	604	
6	0	0	0	0	523	604	
7	0	0	0	0	524	604	
8	0	0	0	0	524	604	
9	0	0	0	0	525	604	
10	0	0	0	0	525	604	
11	0	0	0	0	525	604	
12	0	0	0	0	526	604	
13	0	0	0	0	526	604	
14	0	0	0	0	527	604	
15	0	0	0	0	527	604	
0	0	0	0	0	527	604	
1	0	0	0	0	527	603	
2	0	0	0	0	527	604	
3	0	0	0	0	527	604	
4	0	0	0	0	527	605	
5	0	0	0	0	527	604	
6	0	0	0	0	527	604	
7	0	0	0	0	527	604	
8	0	0	0	0	528	605	
9	0	0	0	0	527	605	
10	0	0	0	0	527	605	
11	0	0	0	0	526	604	
12	0	0	0	0	526	604	
13	0	0	0	0	526	604	
14	0	0	0	0	526	604	
15	0	0	0	0	526	604	
0	0	0	0	0	525	605	
1	0	0	0	0	525	604	
2	0	0	0	0	526	605	
3	0	0	0	0	526	605	
4	0	0	0	0	525	605	
5	0	0	0	0	525	604	
6	0	0	0	0	524	604	
7	0	0	0	0	524	605	
8	0	0	0	0	524	605	
9	0	0	0	0	524	604	
10	0	0	0	0	524	605	
11	0	0	0	0	524	604	
12	0	0	0	0	524	604	
13	0	0	0	0	524	605	
14	0	0	0	0	524	605	
15	0	0	0	0	524	604	
0	0	0	0	0	524	604	
1	0	0	0	0	523	604	
2	0	0	0	0	523	604	
3	0	0	0	0	522	604	
4	0	0	0	0	521	604	
5	0	0	0	0	521	604	
6	0	0	0	0	521	604	
7	0	0	0	0	520	604	
8	0	0	0	0	520	605	
9	0	0	0	0	520	605	
10	0	0	0	0	520	605	
11	0	0	0	0	520	605	
12	0	0	0	0	520	605	
13	0	0	0	0	519	605	
14	0	0	0	0	519	605	
15	0	0	0	0	520	605	
0	0	0	0	0	520	606	
1	0	0	0	0	520	605	
2	0	0	0	0	521	604	
3	0	0	0	0	521	604	
4	0	0	0	0	521	604	
5	0	0	0	0	522	604	
6	0	0	0	0	521	604	
7	0	0	0	0	522	604	
8	0	0	0	0	521	604	
9	0	0	0	0	521	604	
10	0	0	0	0	521	604	
11	0	0	0	0	520	604	
12	0	0	0	0	520	604	
13	0	0	0	0	520	604	
14	0	0	0	0	520	604	
15	0	0	0	0	520	604	
0	0	0	0	0	520	604	
1	0	0	0	0	519	604	
2	0	0	0	0	519	603	
3	0	0	0	0	518	604	
4	0	0	0	0	518	604	
5	0	0	0	0	518	604	
6	0	0	0	0	518	604	
7	0	0	0	0	518	603	
8	0	0	0	0	517	604	
9	0	0	0	0	517	604	
10	0	0	0	0	517	603	
11	0	0	0	0	517	604	
12	0	0	0	0	517	603	
13	0	0	0	0	517	604	
14	0	0	0	0	517	603	
15	0	0	0	0	518	604	
0	0	0	0	0	518	604	
1	0	0	0	0	518	603	
2	0	0	0	0	517	604	
3	0	0	0	0	517	603	
4	0	0	0	0	517	603	
5	0	0	0	0	516	604	
6	0	0	0	0	516	603	
7	0	0	0	0	515	603	
8	0	0	0	0	515	604	
9	0	0	0	0	514	602	
10	0	0	0	0	513	603	
11	0	0	0	0	514	603	
12	0	0	0	0	513	603	
13	0	0	0	0	513	603	
14	0	0	0	0	512	603	
15	0	0	0	0	512	603	
0	0	0	0	0	511	603	
1	0	0	0	0	511	603	
2	0	0	0	0	511	603	
3	0	0	0	0	511	604	
4	0	0	0	0	511	604	
5	0	0	0	0	511	604	
6	0	0	0	0	512	604	
7	0	0	0	0	512	603	
8	0	0	0	0	513	604	
9	0	0	0	0	513	604	
10	0	0	0	0	514	604	
11	0	0	0	0	514	604	
12	0	0	0	0	515	604	
13	0	0	0	0	515	604	
14	0	0	0	0	515	604	
15	0	0	0	0	515	604	
0	0	0	0	0	515	604	
1	0	0	0	0	515	605	
2	0	0	0	0	515	604	
3	0	0	0	0	515	604	
4	0	0	0	0	515	604	
5	0	0	0	0	514	605	
6	0	0	0	0	514	604	
7	0	0	0	0	513	604	
8	0	0	0	0	513	605	
9	0	0	0	0	512	604	
10	0	0	0	0	512	604	
11	0	0	0	0	511	604	
12	0	0	0	0	511	604	
13	0	0	0	0	511	604	
14	0	0	0	0	511	604	
15	0	0	0	0	511	604	
0	0	0	0	0	510	604	
1	0	0	0	0	509	604	
2	0	0	0	0	509	603	
3	0	0	0	0	509	603	
4	0	0	0	0	509	604	
5	0	0	0	0	509	603	
6	0	0	0	0	509	604	
7	0	0	0	0	510	604	
8	0	0	0	0	510	604	
9	0	0	0	0	511	604	
10	0	0	0	0	511	604	
11	0	0	0	0	511	604	
12	0	0	0	0	511	604	
13	0	0	0	0	512	604	
14	0	0	0	0	512	604	
15	0	0	0	0	512	604	
0	0	0	0	0	512	604	
1	0	0	0	0	512	604	
2	0	0	0	0	513	604	
3	0	0	0	0	513	603	
4	0	0	0	0	513	603	
5	0	0	0	0	513	604	
6	0	0	0	0	513	604	
7	0	0	0	0	512	603	
8	0	0	0	0	512	604	
9	0	0	0	0	512	603	
10	0	0	0	0	512	603	
11	0	0	0	0	512	604	
12	0	0	0	0	511	604	
13	0	0	0	0	512	604	
14	0	0	0	0	512	604	
15	0	0	0	0	512	604	
0	0	0	0	0	512	604	
1	0	0	0	0	512	604	
2	0	0	0	0	512	603	
3	0	0	0	0	512	604	
4	0	0	0	0	513	603	
5	0	0	0	0	513	604	
6	0	0	0	0	513	604	
7	0	0	0	0	513	604	
8	0	0	0	0	513	604	
9	0	0	0	0	513	603	
10	0	0	0	0	513	603	
11	0	0	0	0	513	603	
12	0	0	0	0	512	603	
13	0	0	0	0	513	604	
14	0	0	0	0	513	603	
15	0	0	0	0	513	604	
0	0	0	0	0	512	604	
1	0	0	0	0	513	603	
2	0	0	0	0	512	604	
3	0	0	0	0	512	603	
4	0	0	0	0	512	603	
5	0	0	0	0	513	604	
6	0	0	0	0	512	604	
7	0	0	0	0	512	603	
8	0	0	0	0	512	604	
9	0	0	0	0	513	604	
10	0	0	0	0	513	604	
11	0	0	0	0	513	604	
12	0	0	0	0	513	604	
13	0	0	0	0	512	604	
14	0	0	0	0	513	604	
15	0	0	0	0	512	604	
0	0	0	0	0	512	604	
1	0	0	0	0	511	604	
2	0	0	0	0	511	604	
3	0	0	0	0	511	604	
4	0	0	0	0	511	604	
5	0	0	0	0	511	604	
6	0	0	0	0	510	604	
7	0	0	0	0	510	604	
8	0	0	0	0	511	605	
9	0	0	0	0	511	604	
10	0	0	0	0	511	604	
11	0	0	0	0	511	604	
12	0	0	0	0	511	603	
13	0	0	0	0	510	604	
14	0	0	0	0	510	604	
15	0	0	0	0	510	604	
0	0	0	0	0	510	604	
1	0	0	0	0	510	603	
2	0	0	0	0	511	604	
3	0	0	0	0	510	604	
4	0	0	0	0	510	604	
5	0	0	0	0	510	604	
6	0	0	0	0	510	604	
7	0	0	0	0	510	604	
8	0	0	0	0	510	604	
9	0	0	0	0	511	604	
10	0	0	0	0	511	603	
11	0	0	0	0	511	603	
12	0	0	0	0	511	604	
13	0	0	0	0	511	604	
14	0	0	0	0	511	605	
15	0	0	0	0	511	604	
0	0	0	0	0	510	604	
1	0	0	0	0	509	604	
2	0	0	0	0	509	604	
3	0	0	0	0	509	604	
4	0	0	0	0	509	604	
5	0	0	0	0	509	604	
6	0	0	0	0	509	604	
7	0	0	0	0	509	604	
8	0	0	0	0	509	604	
9	0	0	0	0	510	604	
10	0	0	0	0	510	604	
11	0	0	0	0	510	604	
12	0	0	0	0	510	604	
13	0	0	0	0	509	603	
14	0	0	0	0	509	604	
15	0	0	0	0	508	603	
0	0	0	0	0	508	604	
1	0	0	0	0	507	603	
2	0	0	0	0	507	604	
3	0	0	0	0	507	604	
4	0	0	0	0	507	604	
5	0	0	0	0	507	603	
6	0	0	0	0	507	603	
7	0	0	0	0	508	603	
8	0	0	0	0	508	604	
9	0	0	0	0	509	603	
10	0	0	0	0	508	603	
11	0	0	0	0	508	603	
12	0	0	0	0	508	603	
13	0	0	0	0	508	603	
14	0	0	0	0	507	603	
15	0	0	0	0	508	604	
0	0	0	0	0	507	604	
1	0	0	0	0	507	603	
2	0	0	0	0	507	603	
3	0	0	0	0	507	603	
4	0	0	0	0	506	603	
5	0	0	0	0	505	603	
6	0	0	0	0	505	603	
7	0	0	0	0	506	603	
8	0	0	0	0	507	603	
9	0	0	0	0	507	603	
10	0	0	0	0	507	602	
11	0	0	0	0	508	603	
12	0	0	0	0	508	604	
13	0	0	0	0	508	604	
14	0	0	0	0	508	604	
15	0	0	0	0	508	604	
0	0	0	0	0	508	604	
1	0	0	0	0	508	603	
2	0	0	0	0	508	603	
3	0	0	0	0	508	603	
4	0	0	0	0	508	603	
5	0	0	0	0	507	603	
6	0	0	0	0	507	603	
7	0	0	0	0	507	603	
8	0	0	0	0	506	604	
9	0	0	0	0	505	604	
10	0	0	0	0	505	604	
11	0	0	0	0	505	604	
12	0	0	0	0	505	604	
13	0	0	0	0	505	604	
14	0	0	0	0	505	604	
15	0	0	0	0	505	604	
0	0	0	0	0	506	604	
1	0	0	0	0	507	604	
2	0	0	0	0	507	604	
3	0	0	0	0	506	604	
4	0	0	0	0	506	604	
5	0	0	0	0	506	604	
6	0	0	0	0	506	604	
7	0	0	0	0	505	604	
8	0	0	0	0	505	604	
9	0	0	0	0	505	604	
10	0	0	0	0	505	604	
11	0	0	0	0	505	604	
12	0	0	0	0	505	604	
13	0	0	0	0	504	604	
14	0	0	0	0	504	604	
15	0	0	0	0	504	604	
0	0	0	0	0	504	604	
1	0	0	0	0	504	604	
2	0	0	0	0	504	603	
3	0	0	0	0	504	604	
4	0	0	0	0	504	604	
5	0	0	0	0	504	604	
6	0	0	0	0	503	604	
7	0	0	0	0	503	604	
8	0	0	0	0	502	604	
9	0	0	0	0	502	604	
10	0	0	0	0	502	603	
11	0	0	0	0	502	604	
12	0	0	0	0	502	604	
13	0	0	0	0	501	604	
14	0	0	0	0	502	604	
15	0	0	0	0	502	603	
0	0	0	0	0	503	604	
1	0	0	0	0	503	604	
2	0	0	0	0	504	604	
3	0	0	0	0	504	604	
4	0	0	0	0	504	603	
5	0	0	0	0	504	603	
6	0	0	0	0	504	604	
7	0	0	0	0	504	603	
8	0	0	0	0	504	604	
9	0	0	0	0	504	603	
10	0	0	0	0	504	604	
11	0	0	0	0	503	603	
12	0	0	0	0	504	603	
13	0	0	0	0	504	603	
14	0	0	0	0	504	603	
15	0	0	0	0	503	603	
0	0	0	0	0	503	603	
1	0	0	0	0	502	603	
2	0	0	0	0	501	603	
3	0	0	0	0	501	603	
4	0	0	0	0	500	603	
5	0	0	0	0	500	604	
6	0	0	0	0	499	603	
7	0	0	0	0	498	603	
8	0	0	0	0	497	604	
9	0	0	0	0	497	603	
10	0	0	0	0	498	603	
11	0	0	0	0	498	604	
12	0	0	0	0	498	604	
13	0	0	0	0	498	603	
14	0	0	0	0	499	603	
15	0	0	0	0	499	602	
0	0	0	0	0	499	603	
1	0	0	0	0	499	603	
2	0	0	0	0	499	603	
3	0	0	0	0	499	603	
4	0	0	0	0	500	603	
5	0	0	0	0	500	603	
6	0	0	0	0	501	603	
7	0	0	0	0	501	604	
8	0	0	0	0	501	604	
9	0	0	0	0	501	603	
10	0	0	0	0	501	604	
11	0	0	0	0	501	603	
12	0	0	0	0	501	603	
13	0	0	0	0	501	603	
14	0	0	0	0	502	603	
15	0	0	0	0	502	603	
0	0	0	0	0	501	604	
1	0	0	0	0	500	603	
2	0	0	0	0	499	603	
3	0	0	0	0	499	603	
4	0	0	0	0	499	603	
5	0	0	0	0	499	604	
6	0	0	0	0	498	604	
7	0	0	0	0	499	604	
8	0	0	0	0	499	604	
9	0	0	0	0	499	604	
10	0	0	0	0	499	604	
11	0	0	0	0	499	604	
12	0	0	0	0	499	604	
13	0	0	0	0	500	604	
14	0	0	0	0	501	604	
15	0	0	0	0	501	604	
0	0	0	0	0	502	604	
1	0	0	0	0	502	604	
2	0	0	0	0	502	604	
3	0	0	0	0	502	604	
4	0	0	0	0	502	603	
5	0	0	0	0	503	603	
6	0	0	0	0	504	604	
7	0	0	0	0	504	603	
8	0	0	0	0	504	604	
9	0	0	0	0	504	604	
10	0	0	0	0	504	604	
11	0	0	0	0	504	604	
12	0	0	0	0	504	604	
13	0	0	0	0	504	604	
14	0	0	0	0	504	603	
15	0	0	0	0	504	604	
0	0	0	0	0	505	604	
1	0	0	0	0	505	603	
2	0	0	0	0	505	603	
3	0	0	0	0	506	603	
4	0	0	0	0	506	603	
5	0	0	0	0	506	604	
6	0	0	0	0	506	603	
7	0	0	0	0	507	604	
8	0	0	0	0	507	604	
9	0	0	0	0	507	604	
10	0	0	0	0	508	604	
11	0	0	0	0	508	604	
12	0	0	0	0	508	604	
13	0	0	0	0	507	604	
14	0	0	0	0	507	604	
15	0	0	0	0	507	604	
0	0	0	0	0	506	604	
1	0	0	0	0	507	604	
2	0	0	0	0	507	604	
3	0	0	0	0	506	604	
4	0	0	0	0	506	604	
5	0	0	0	0	506	604	
6	0	0	0	0	505	604	
7	0	0	0	0	505	604	
8	0	0	0	0	504	604	
9	0	0	0	0	503	604	
10	0	0	0	0	502	604	
11	0	0	0	0	503	603	
12	0	0	0	0	503	604	
13	0	0	0	0	503	604	
14	0	0	0	0	504	603	
15	0	0	0	0	503	604	
0	0	0	0	0	503	604	
1	0	0	0	0	502	604	
2	0	0	0	0	502	604	
3	0	0	0	0	501	604	
4	0	0	0	0	500	604	
5	0	0	0	0	500	604	
6	0	0	0	0	500	604	
7	0	0	0	0	499	604	
8	0	0	0	0	500	604	
9	0	0	0	0	499	604	
10	0	0	0	0	500	604	
11	0	0	0	0	500	604	
12	0	0	0	0	500	603	
13	0	0	0	0	500	604	
14	0	0	0	0	500	604	
15	0	0	0	0	500	604	
0	0	0	0	0	500	604	
1	0	0	0	0	500	604	
2	0	0	0	0	501	604	
3	0	0	0	0	500	604	
4	0	0	0	0	500	604	
5	0	0	0	0	501	604	
6	0	0	0	0	501	604	
7	0	0	0	0	501	604	
8	0	0	0	0	500	604	
9	0	0	0	0	500	604	
10	0	0	0	0	499	604	
11	0	0	0	0	499	604	
12	0	0	0	0	499	604	
13	0	0	0	0	498	603	
14	0	0	0	0	498	603	
15	0	0	0	0	498	603	
0	0	0	0	0	497	604	
1	0	0	0	0	496	603	
2	0	0	0	0	496	604	
3	0	0	0	0	496	604	
4	0	0	0	0	497	604	
5	0	0	0	0	497	604	
6	0	0	0	0	496	604	
7	0	0	0	0	496	604	
8	0	0	0	0	497	604	
9	0	0	0	0	498	603	
10	0	0	0	0	498	604	
11	0	0	0	0	498	604	
12	0	0	0	0	498	604	
13	0	0	0	0	498	604	
14	0	0	0	0	498	603	
15	0	0	0	0	499	603	
0	0	0	0	0	498	604	
1	0	0	0	0	498	604	
2	0	0	0	0	498	603	
3	0	0	0	0	497	604	
4	0	0	0	0	497	604	
5	0	0	0	0	496	604	
6	0	0	0	0	495	603	
7	0	0	0	0	495	604	
8	0	0	0	0	494	604	
9	0	0	0	0	493	604	
10	0	0	0	0	492	603	
11	0	0	0	0	491	603	
12	0	0	0	0	489	603	
13	0	0	0	0	488	604	
14	0	0	0	0	487	604	
15	0	0	0	0	486	604	
0	0	0	0	0	484	604	
1	0	0	0	0	481	604	
2	0	0	0	0	478	604	
3	0	0	0	0	475	603	
4	0	0	0	0	472	604	
5	0	0	0	0	467	604	
6	0	0	0	0	463	604	
7	0	0	0	0	458	604	
8	0	0	0	0	453	604	
9	0	0	0	0	447	604	
10	0	0	0	0	441	603	
11	0	0	0	0	438	604	
12	0	0	0	0	436	604	
13	0	0	0	0	436	604	
14	0	0	0	0	439	604	
15	0	0	0	0	445	604	
0	0	0	0	0	455	604	
1	0	0	0	0	465	604	
2	0	0	0	0	474	604	
3	0	0	0	0	484	604	
4	0	0	0	0	496	604	
5	0	0	0	0	509	604	
6	0	0	0	0	524	604	
7	0	0	0	0	537	603	
8	0	0	0	0	548	604	
9	0	0	0	0	559	604	
10	0	0	0	0	569	604	
11	0	0	0	0	575	604	
12	0	0	0	0	578	604	
13	0	0	0	0	581	604	
14	0	0	0	0	583	604	
15	0	0	0	0	585	604	
0	0	0	0	0	587	604	
1	0	0	0	0	587	604	
2	0	0	0	0	587	604	
3	0	0	0	0	589	604	
4	0	0	0	0	591	604	
5	0	0	0	0	589	604	
6	0	0	0	0	587	603	
7	0	0	0	0	582	603	
8	0	0	0	0	577	604	
9	0	0	0	0	573	604	
10	0	0	0	0	569	604	
11	0	0	0	0	569	604	
12	0	0	0	0	569	604	
13	0	0	0	0	570	604	
14	0	0	0	0	573	604	
15	0	0	0	0	575	603	
0	0	0	0	0	574	604	
1	0	0	0	0	571	604	
2	0	0	0	0	566	603	
3	0	0	0	0	560	604	
4	0	0	0	0	552	604	
5	0	0	0	0	545	603	
6	0	0	0	0	537	603	
7	0	0	0	0	530	603	
8	0	0	0	0	523	604	
9	0	0	0	0	518	604	
10	0	0	0	0	512	603	
11	0	0	0	0	507	604	
12	0	0	0	0	502	604	
13	0	0	0	0	499	604	
14	0	0	0	0	495	604	
15	0	0	0	0	492	604	
0	0	0	0	0	489	604	
1	0	0	0	0	488	604	
2	0	0	0	0	486	604	
3	0	0	0	0	486	604	
4	0	0	0	0	484	603	
5	0	0	0	0	484	604	
6	0	0	0	0	484	604	
7	0	0	0	0	483	604	
8	0	0	0	0	482	604	
9	0	0	0	0	481	603	
10	0	0	0	0	481	604	
11	0	0	0	0	481	604	
12	0	0	0	0	481	604	
13	0	0	0	0	481	604	
14	0	0	0	0	481	603	
15	0	0	0	0	481	604	
0	0	0	0	0	482	604	
1	0	0	0	0	482	604	
2	0	0	0	0	482	603	
3	0	0	0	0	483	603	
4	0	0	0	0	482	603	
5	0	0	0	0	482	604	
6	0	0	0	0	481	604	
7	0	0	0	0	481	604	
8	0	0	0	0	481	604	
9	0	0	0	0	481	604	
10	0	0	0	0	481	602	
11	0	0	0	0	481	603	
12	0	0	0	0	481	603	
13	0	0	0	0	482	603	
14	0	0	0	0	481	603	
15	0	0	0	0	481	603	
0	0	0	0	0	481	604	
1	0	0	0	0	481	603	
2	0	0	0	0	481	603	
3	0	0	0	0	482	603	
4	0	0	0	0	482	603	
5	0	0	0	0	482	603	
6	0	0	0	0	482	603	
7	0	0	0	0	482	603	
8	0	0	0	0	483	603	
9	0	0	0	0	483	603	
10	0	0	0	0	484	603	
11	0	0	0	0	484	604	
12	0	0	0	0	484	603	
13	0	0	0	0	485	603	
14	0	0	0	0	484	603	
15	0	0	0	0	483	603	
0	0	0	0	0	483	603	
1	0	0	0	0	484	603	
2	0	0	0	0	484	604	
3	0	0	0	0	483	604	
