# OpenSignals Text File Format. Version 1
# {"98:D3:91:FD:59:64": {"position": 0, "device": "bitalino_rev", "device name": "98:D3:91:FD:59:64", "device connection": "BTH98:D3:91:FD:59:64", "sampling rate": 1000, "resolution": [4, 1, 1, 1, 1, 10, 10], "firmware version": 1281, "comments": "", "keywords": "", "mode": 0, "sync interval": 2, "date": "2021-9-9", "time": "17:4:43.574", "channels": [2, 5], "sensor": ["RAW", "RAW"], "label": ["A2", "A5"], "column": ["nSeq", "I1", "I2", "O1", "O2", "A2", "A5"], "special": [{}, {}], "digital IO": [0, 0, 1, 1], "convertedValues": 0}}
# EndOfHeader
0	0	0	0	0	490	623	
1	0	0	0	0	490	621	
2	0	0	0	0	490	623	
3	0	0	0	0	491	623	
4	0	0	0	0	492	623	
5	0	0	0	0	492	625	
6	0	0	0	0	492	623	
7	0	0	0	0	491	624	
8	0	0	0	0	492	624	
9	0	0	0	0	493	622	
10	0	0	0	0	493	623	
11	0	0	0	0	494	623	
12	0	0	0	0	494	624	
13	0	0	0	0	495	625	
14	0	0	0	0	496	623	
15	0	0	0	0	496	623	
0	0	0	0	0	496	622	
1	0	0	0	0	496	621	
2	0	0	0	0	496	623	
3	0	0	0	0	497	623	
4	0	0	0	0	497	623	
5	0	0	0	0	497	625	
6	0	0	0	0	497	623	
7	0	0	0	0	497	623	
8	0	0	0	0	497	624	
9	0	0	0	0	498	622	
10	0	0	0	0	499	623	
11	0	0	0	0	499	623	
12	0	0	0	0	498	622	
13	0	0	0	0	499	624	
14	0	0	0	0	499	623	
15	0	0	0	0	499	623	
0	0	0	0	0	499	623	
1	0	0	0	0	500	622	
2	0	0	0	0	500	624	
3	0	0	0	0	501	623	
4	0	0	0	0	501	623	
5	0	0	0	0	502	625	
6	0	0	0	0	503	623	
7	0	0	0	0	503	623	
8	0	0	0	0	504	623	
9	0	0	0	0	504	622	
10	0	0	0	0	504	623	
11	0	0	0	0	504	623	
12	0	0	0	0	505	623	
13	0	0	0	0	505	624	
14	0	0	0	0	505	623	
15	0	0	0	0	504	622	
0	0	0	0	0	504	623	
1	0	0	0	0	505	620	
2	0	0	0	0	505	623	
3	0	0	0	0	505	623	
4	0	0	0	0	506	622	
5	0	0	0	0	507	625	
6	0	0	0	0	507	623	
7	0	0	0	0	508	623	
8	0	0	0	0	509	623	
9	0	0	0	0	509	620	
10	0	0	0	0	509	622	
11	0	0	0	0	510	623	
12	0	0	0	0	510	622	
13	0	0	0	0	511	624	
14	0	0	0	0	512	622	
15	0	0	0	0	512	623	
0	0	0	0	0	512	623	
1	0	0	0	0	513	622	
2	0	0	0	0	513	623	
3	0	0	0	0	514	623	
4	0	0	0	0	515	623	
5	0	0	0	0	515	625	
6	0	0	0	0	515	623	
7	0	0	0	0	515	624	
8	0	0	0	0	515	623	
9	0	0	0	0	515	621	
10	0	0	0	0	517	623	
11	0	0	0	0	518	623	
12	0	0	0	0	518	623	
13	0	0	0	0	518	625	
14	0	0	0	0	518	623	
15	0	0	0	0	519	623	
0	0	0	0	0	518	623	
1	0	0	0	0	518	621	
2	0	0	0	0	518	623	
3	0	0	0	0	517	623	
4	0	0	0	0	517	623	
5	0	0	0	0	518	624	
6	0	0	0	0	519	624	
7	0	0	0	0	519	623	
8	0	0	0	0	518	623	
9	0	0	0	0	518	621	
10	0	0	0	0	518	623	
11	0	0	0	0	518	622	
12	0	0	0	0	517	622	
13	0	0	0	0	517	624	
14	0	0	0	0	516	623	
15	0	0	0	0	515	622	
0	0	0	0	0	515	622	
1	0	0	0	0	515	620	
2	0	0	0	0	514	621	
3	0	0	0	0	515	622	
4	0	0	0	0	513	622	
5	0	0	0	0	513	623	
6	0	0	0	0	512	622	
7	0	0	0	0	512	622	
8	0	0	0	0	511	622	
9	0	0	0	0	511	621	
10	0	0	0	0	510	622	
11	0	0	0	0	509	623	
12	0	0	0	0	508	623	
13	0	0	0	0	508	624	
14	0	0	0	0	507	623	
15	0	0	0	0	507	623	
0	0	0	0	0	507	623	
1	0	0	0	0	506	621	
2	0	0	0	0	506	623	
3	0	0	0	0	505	623	
4	0	0	0	0	505	623	
5	0	0	0	0	504	625	
6	0	0	0	0	504	623	
7	0	0	0	0	504	623	
8	0	0	0	0	503	623	
9	0	0	0	0	502	621	
10	0	0	0	0	502	623	
11	0	0	0	0	501	623	
12	0	0	0	0	501	623	
13	0	0	0	0	501	625	
14	0	0	0	0	500	623	
15	0	0	0	0	499	623	
0	0	0	0	0	498	623	
1	0	0	0	0	497	621	
2	0	0	0	0	496	624	
3	0	0	0	0	496	623	
4	0	0	0	0	495	624	
5	0	0	0	0	496	625	
6	0	0	0	0	497	624	
7	0	0	0	0	497	624	
8	0	0	0	0	497	623	
9	0	0	0	0	496	622	
10	0	0	0	0	495	624	
11	0	0	0	0	495	624	
12	0	0	0	0	494	623	
13	0	0	0	0	494	625	
14	0	0	0	0	494	624	
15	0	0	0	0	492	624	
0	0	0	0	0	492	624	
1	0	0	0	0	490	622	
2	0	0	0	0	489	623	
3	0	0	0	0	488	623	
4	0	0	0	0	487	623	
5	0	0	0	0	487	625	
6	0	0	0	0	486	624	
7	0	0	0	0	485	624	
8	0	0	0	0	484	623	
9	0	0	0	0	483	622	
10	0	0	0	0	482	623	
11	0	0	0	0	482	623	
12	0	0	0	0	482	623	
13	0	0	0	0	481	624	
14	0	0	0	0	481	623	
15	0	0	0	0	482	623	
0	0	0	0	0	482	623	
1	0	0	0	0	482	621	
2	0	0	0	0	482	622	
3	0	0	0	0	483	622	
4	0	0	0	0	483	622	
5	0	0	0	0	483	624	
6	0	0	0	0	484	621	
7	0	0	0	0	483	622	
8	0	0	0	0	483	621	
9	0	0	0	0	484	620	
10	0	0	0	0	484	621	
11	0	0	0	0	485	621	
12	0	0	0	0	485	622	
13	0	0	0	0	486	624	
14	0	0	0	0	487	622	
15	0	0	0	0	487	622	
0	0	0	0	0	487	622	
1	0	0	0	0	487	620	
2	0	0	0	0	487	622	
3	0	0	0	0	487	622	
4	0	0	0	0	487	621	
5	0	0	0	0	487	623	
6	0	0	0	0	487	621	
7	0	0	0	0	487	621	
8	0	0	0	0	487	621	
9	0	0	0	0	487	619	
10	0	0	0	0	487	620	
11	0	0	0	0	488	621	
12	0	0	0	0	489	620	
13	0	0	0	0	489	622	
14	0	0	0	0	489	621	
15	0	0	0	0	489	621	
0	0	0	0	0	489	621	
1	0	0	0	0	489	619	
2	0	0	0	0	489	621	
3	0	0	0	0	489	620	
4	0	0	0	0	491	620	
5	0	0	0	0	491	622	
6	0	0	0	0	491	620	
7	0	0	0	0	491	621	
8	0	0	0	0	491	621	
9	0	0	0	0	490	618	
10	0	0	0	0	490	620	
11	0	0	0	0	490	621	
12	0	0	0	0	491	620	
13	0	0	0	0	491	622	
14	0	0	0	0	491	620	
15	0	0	0	0	491	621	
0	0	0	0	0	491	620	
1	0	0	0	0	492	619	
2	0	0	0	0	491	621	
3	0	0	0	0	492	620	
4	0	0	0	0	492	621	
5	0	0	0	0	492	622	
6	0	0	0	0	493	621	
7	0	0	0	0	493	621	
8	0	0	0	0	492	621	
9	0	0	0	0	492	619	
10	0	0	0	0	491	620	
11	0	0	0	0	491	621	
12	0	0	0	0	491	621	
13	0	0	0	0	491	622	
14	0	0	0	0	491	621	
15	0	0	0	0	492	621	
0	0	0	0	0	492	622	
1	0	0	0	0	493	620	
2	0	0	0	0	494	622	
3	0	0	0	0	494	621	
4	0	0	0	0	494	622	
5	0	0	0	0	495	624	
6	0	0	0	0	494	622	
7	0	0	0	0	493	622	
8	0	0	0	0	493	623	
9	0	0	0	0	493	621	
10	0	0	0	0	493	623	
11	0	0	0	0	493	622	
12	0	0	0	0	492	622	
13	0	0	0	0	492	624	
14	0	0	0	0	493	622	
15	0	0	0	0	493	622	
0	0	0	0	0	494	622	
1	0	0	0	0	494	621	
2	0	0	0	0	494	623	
3	0	0	0	0	493	623	
4	0	0	0	0	494	623	
5	0	0	0	0	494	624	
6	0	0	0	0	494	623	
7	0	0	0	0	494	623	
8	0	0	0	0	494	623	
9	0	0	0	0	494	622	
10	0	0	0	0	494	623	
11	0	0	0	0	494	623	
12	0	0	0	0	493	623	
13	0	0	0	0	493	624	
14	0	0	0	0	494	623	
15	0	0	0	0	493	623	
0	0	0	0	0	493	623	
1	0	0	0	0	492	621	
2	0	0	0	0	492	623	
3	0	0	0	0	492	623	
4	0	0	0	0	492	623	
5	0	0	0	0	492	624	
6	0	0	0	0	493	622	
7	0	0	0	0	493	623	
8	0	0	0	0	493	622	
9	0	0	0	0	494	620	
10	0	0	0	0	494	623	
11	0	0	0	0	494	623	
12	0	0	0	0	493	622	
13	0	0	0	0	492	624	
14	0	0	0	0	492	623	
15	0	0	0	0	492	623	
0	0	0	0	0	491	623	
1	0	0	0	0	491	621	
2	0	0	0	0	491	623	
3	0	0	0	0	492	623	
4	0	0	0	0	491	623	
5	0	0	0	0	491	625	
6	0	0	0	0	491	623	
7	0	0	0	0	491	623	
8	0	0	0	0	491	623	
9	0	0	0	0	490	621	
10	0	0	0	0	489	623	
11	0	0	0	0	490	624	
12	0	0	0	0	490	622	
13	0	0	0	0	489	624	
14	0	0	0	0	489	623	
15	0	0	0	0	489	622	
0	0	0	0	0	488	623	
1	0	0	0	0	488	621	
2	0	0	0	0	488	623	
3	0	0	0	0	488	623	
4	0	0	0	0	488	623	
5	0	0	0	0	489	624	
6	0	0	0	0	490	624	
7	0	0	0	0	489	624	
8	0	0	0	0	490	624	
9	0	0	0	0	491	622	
10	0	0	0	0	491	623	
11	0	0	0	0	491	624	
12	0	0	0	0	491	624	
13	0	0	0	0	492	625	
14	0	0	0	0	492	624	
15	0	0	0	0	493	624	
0	0	0	0	0	493	624	
1	0	0	0	0	493	622	
2	0	0	0	0	494	624	
3	0	0	0	0	494	624	
4	0	0	0	0	493	624	
5	0	0	0	0	493	626	
6	0	0	0	0	493	624	
7	0	0	0	0	493	624	
8	0	0	0	0	492	624	
9	0	0	0	0	492	623	
10	0	0	0	0	493	625	
11	0	0	0	0	493	625	
12	0	0	0	0	493	624	
13	0	0	0	0	492	626	
14	0	0	0	0	491	624	
15	0	0	0	0	491	624	
0	0	0	0	0	491	624	
1	0	0	0	0	492	622	
2	0	0	0	0	491	624	
3	0	0	0	0	491	624	
4	0	0	0	0	491	624	
5	0	0	0	0	490	626	
6	0	0	0	0	489	624	
7	0	0	0	0	489	624	
8	0	0	0	0	488	624	
9	0	0	0	0	488	622	
10	0	0	0	0	487	624	
11	0	0	0	0	487	624	
12	0	0	0	0	487	624	
13	0	0	0	0	487	625	
14	0	0	0	0	487	624	
15	0	0	0	0	487	623	
0	0	0	0	0	487	624	
1	0	0	0	0	487	621	
2	0	0	0	0	487	623	
3	0	0	0	0	487	623	
4	0	0	0	0	487	623	
5	0	0	0	0	487	624	
6	0	0	0	0	487	623	
7	0	0	0	0	486	622	
8	0	0	0	0	486	623	
9	0	0	0	0	486	620	
10	0	0	0	0	485	622	
11	0	0	0	0	485	622	
12	0	0	0	0	484	623	
13	0	0	0	0	484	624	
14	0	0	0	0	484	623	
15	0	0	0	0	485	622	
0	0	0	0	0	486	623	
1	0	0	0	0	487	622	
2	0	0	0	0	487	623	
3	0	0	0	0	489	623	
4	0	0	0	0	489	623	
5	0	0	0	0	491	625	
6	0	0	0	0	491	624	
7	0	0	0	0	493	624	
8	0	0	0	0	494	624	
9	0	0	0	0	495	622	
10	0	0	0	0	496	624	
11	0	0	0	0	495	624	
12	0	0	0	0	495	625	
13	0	0	0	0	495	627	
14	0	0	0	0	496	625	
15	0	0	0	0	496	625	
0	0	0	0	0	496	625	
1	0	0	0	0	496	623	
2	0	0	0	0	496	625	
3	0	0	0	0	496	625	
4	0	0	0	0	496	625	
5	0	0	0	0	496	627	
6	0	0	0	0	496	626	
7	0	0	0	0	496	625	
8	0	0	0	0	496	626	
9	0	0	0	0	496	624	
10	0	0	0	0	496	625	
11	0	0	0	0	496	626	
12	0	0	0	0	497	625	
13	0	0	0	0	496	627	
14	0	0	0	0	496	625	
15	0	0	0	0	494	626	
0	0	0	0	0	494	625	
1	0	0	0	0	494	623	
2	0	0	0	0	494	625	
3	0	0	0	0	495	625	
4	0	0	0	0	495	624	
5	0	0	0	0	496	626	
6	0	0	0	0	496	624	
7	0	0	0	0	498	624	
8	0	0	0	0	498	624	
9	0	0	0	0	498	623	
10	0	0	0	0	498	624	
11	0	0	0	0	497	624	
12	0	0	0	0	497	624	
13	0	0	0	0	498	625	
14	0	0	0	0	499	624	
15	0	0	0	0	499	624	
0	0	0	0	0	500	625	
1	0	0	0	0	501	623	
2	0	0	0	0	502	624	
3	0	0	0	0	502	625	
4	0	0	0	0	501	624	
5	0	0	0	0	500	627	
6	0	0	0	0	499	624	
7	0	0	0	0	499	624	
8	0	0	0	0	499	624	
9	0	0	0	0	500	623	
10	0	0	0	0	500	624	
11	0	0	0	0	500	624	
12	0	0	0	0	501	624	
13	0	0	0	0	501	625	
14	0	0	0	0	502	623	
15	0	0	0	0	502	623	
0	0	0	0	0	501	623	
1	0	0	0	0	500	621	
2	0	0	0	0	500	623	
3	0	0	0	0	501	623	
4	0	0	0	0	501	623	
5	0	0	0	0	500	625	
6	0	0	0	0	500	623	
7	0	0	0	0	500	622	
8	0	0	0	0	501	623	
9	0	0	0	0	501	621	
10	0	0	0	0	501	623	
11	0	0	0	0	501	622	
12	0	0	0	0	501	623	
13	0	0	0	0	501	624	
14	0	0	0	0	500	622	
15	0	0	0	0	500	622	
0	0	0	0	0	500	622	
1	0	0	0	0	501	620	
2	0	0	0	0	501	622	
3	0	0	0	0	501	622	
4	0	0	0	0	501	621	
5	0	0	0	0	501	624	
6	0	0	0	0	501	622	
7	0	0	0	0	502	623	
8	0	0	0	0	502	622	
9	0	0	0	0	502	620	
10	0	0	0	0	500	622	
11	0	0	0	0	498	622	
12	0	0	0	0	496	623	
13	0	0	0	0	491	624	
14	0	0	0	0	487	623	
15	0	0	0	0	482	623	
0	0	0	0	0	478	623	
1	0	0	0	0	475	621	
2	0	0	0	0	473	623	
3	0	0	0	0	472	623	
4	0	0	0	0	471	623	
5	0	0	0	0	471	624	
6	0	0	0	0	469	623	
7	0	0	0	0	468	623	
8	0	0	0	0	468	623	
9	0	0	0	0	470	621	
10	0	0	0	0	475	624	
11	0	0	0	0	486	623	
12	0	0	0	0	496	623	
13	0	0	0	0	511	625	
14	0	0	0	0	529	624	
15	0	0	0	0	548	623	
0	0	0	0	0	568	623	
1	0	0	0	0	586	621	
2	0	0	0	0	604	624	
3	0	0	0	0	621	623	
4	0	0	0	0	638	623	
5	0	0	0	0	652	625	
6	0	0	0	0	663	624	
7	0	0	0	0	674	624	
8	0	0	0	0	682	624	
9	0	0	0	0	688	622	
10	0	0	0	0	693	624	
11	0	0	0	0	696	624	
12	0	0	0	0	696	624	
13	0	0	0	0	691	626	
14	0	0	0	0	681	624	
15	0	0	0	0	671	624	
0	0	0	0	0	659	623	
1	0	0	0	0	644	621	
2	0	0	0	0	627	623	
3	0	0	0	0	608	623	
4	0	0	0	0	588	623	
5	0	0	0	0	570	625	
6	0	0	0	0	556	623	
7	0	0	0	0	545	623	
8	0	0	0	0	536	623	
9	0	0	0	0	527	620	
10	0	0	0	0	518	622	
11	0	0	0	0	511	622	
12	0	0	0	0	504	622	
13	0	0	0	0	498	623	
14	0	0	0	0	494	622	
15	0	0	0	0	489	622	
0	0	0	0	0	486	622	
1	0	0	0	0	483	620	
2	0	0	0	0	480	622	
3	0	0	0	0	478	622	
4	0	0	0	0	475	621	
5	0	0	0	0	473	623	
6	0	0	0	0	472	622	
7	0	0	0	0	471	622	
8	0	0	0	0	470	621	
9	0	0	0	0	469	620	
10	0	0	0	0	468	621	
11	0	0	0	0	467	621	
12	0	0	0	0	466	621	
13	0	0	0	0	465	623	
14	0	0	0	0	464	621	
15	0	0	0	0	465	621	
0	0	0	0	0	465	622	
1	0	0	0	0	465	620	
2	0	0	0	0	464	621	
3	0	0	0	0	463	621	
4	0	0	0	0	464	621	
5	0	0	0	0	464	622	
6	0	0	0	0	465	620	
7	0	0	0	0	465	620	
8	0	0	0	0	466	620	
9	0	0	0	0	466	618	
10	0	0	0	0	466	620	
11	0	0	0	0	466	620	
12	0	0	0	0	466	620	
13	0	0	0	0	467	622	
14	0	0	0	0	467	620	
15	0	0	0	0	467	620	
0	0	0	0	0	467	620	
1	0	0	0	0	468	619	
2	0	0	0	0	468	621	
3	0	0	0	0	467	621	
4	0	0	0	0	468	620	
5	0	0	0	0	468	623	
6	0	0	0	0	468	622	
7	0	0	0	0	468	621	
8	0	0	0	0	468	622	
9	0	0	0	0	469	620	
10	0	0	0	0	469	622	
11	0	0	0	0	469	622	
12	0	0	0	0	470	621	
13	0	0	0	0	471	625	
14	0	0	0	0	471	623	
15	0	0	0	0	472	623	
0	0	0	0	0	472	623	
1	0	0	0	0	473	622	
2	0	0	0	0	473	623	
3	0	0	0	0	473	623	
4	0	0	0	0	473	623	
5	0	0	0	0	474	625	
6	0	0	0	0	473	624	
7	0	0	0	0	474	624	
8	0	0	0	0	475	624	
9	0	0	0	0	474	622	
10	0	0	0	0	473	624	
11	0	0	0	0	475	624	
12	0	0	0	0	475	624	
13	0	0	0	0	475	626	
14	0	0	0	0	474	624	
15	0	0	0	0	473	624	
0	0	0	0	0	473	624	
1	0	0	0	0	474	622	
2	0	0	0	0	475	624	
3	0	0	0	0	475	624	
4	0	0	0	0	475	625	
5	0	0	0	0	476	626	
6	0	0	0	0	476	625	
7	0	0	0	0	476	624	
8	0	0	0	0	478	624	
9	0	0	0	0	478	622	
10	0	0	0	0	478	624	
11	0	0	0	0	477	624	
12	0	0	0	0	478	624	
13	0	0	0	0	478	625	
14	0	0	0	0	478	624	
15	0	0	0	0	479	624	
0	0	0	0	0	480	624	
1	0	0	0	0	480	622	
2	0	0	0	0	481	623	
3	0	0	0	0	482	624	
4	0	0	0	0	483	623	
5	0	0	0	0	483	624	
6	0	0	0	0	484	623	
7	0	0	0	0	484	622	
8	0	0	0	0	484	623	
9	0	0	0	0	484	620	
10	0	0	0	0	484	622	
11	0	0	0	0	485	622	
12	0	0	0	0	485	621	
13	0	0	0	0	486	623	
14	0	0	0	0	486	622	
15	0	0	0	0	487	621	
0	0	0	0	0	487	621	
1	0	0	0	0	488	619	
2	0	0	0	0	489	621	
3	0	0	0	0	490	621	
4	0	0	0	0	491	620	
5	0	0	0	0	491	623	
6	0	0	0	0	491	620	
7	0	0	0	0	492	620	
8	0	0	0	0	491	621	
9	0	0	0	0	491	619	
10	0	0	0	0	491	621	
11	0	0	0	0	490	621	
12	0	0	0	0	490	621	
13	0	0	0	0	489	623	
14	0	0	0	0	489	620	
15	0	0	0	0	489	621	
0	0	0	0	0	489	621	
1	0	0	0	0	489	620	
2	0	0	0	0	489	621	
3	0	0	0	0	490	622	
4	0	0	0	0	490	621	
5	0	0	0	0	491	623	
6	0	0	0	0	492	622	
7	0	0	0	0	492	621	
8	0	0	0	0	493	621	
9	0	0	0	0	494	620	
10	0	0	0	0	494	622	
11	0	0	0	0	495	622	
12	0	0	0	0	495	622	
13	0	0	0	0	495	624	
14	0	0	0	0	495	622	
15	0	0	0	0	496	623	
0	0	0	0	0	496	622	
1	0	0	0	0	496	621	
2	0	0	0	0	496	622	
3	0	0	0	0	496	622	
4	0	0	0	0	496	623	
5	0	0	0	0	496	624	
6	0	0	0	0	496	623	
7	0	0	0	0	497	623	
8	0	0	0	0	499	623	
9	0	0	0	0	499	621	
10	0	0	0	0	499	623	
11	0	0	0	0	499	624	
12	0	0	0	0	500	624	
13	0	0	0	0	501	625	
14	0	0	0	0	501	624	
15	0	0	0	0	501	624	
0	0	0	0	0	501	624	
1	0	0	0	0	503	623	
2	0	0	0	0	503	624	
3	0	0	0	0	504	624	
4	0	0	0	0	505	624	
5	0	0	0	0	506	626	
6	0	0	0	0	507	624	
7	0	0	0	0	507	624	
8	0	0	0	0	507	624	
9	0	0	0	0	507	623	
10	0	0	0	0	507	625	
11	0	0	0	0	507	625	
12	0	0	0	0	508	624	
13	0	0	0	0	509	626	
14	0	0	0	0	509	624	
15	0	0	0	0	509	624	
0	0	0	0	0	509	624	
1	0	0	0	0	509	622	
2	0	0	0	0	509	624	
3	0	0	0	0	508	623	
4	0	0	0	0	508	624	
5	0	0	0	0	509	625	
6	0	0	0	0	509	624	
7	0	0	0	0	509	624	
8	0	0	0	0	509	623	
9	0	0	0	0	509	621	
10	0	0	0	0	508	623	
11	0	0	0	0	509	623	
12	0	0	0	0	508	623	
13	0	0	0	0	508	624	
14	0	0	0	0	508	623	
15	0	0	0	0	508	623	
0	0	0	0	0	508	623	
1	0	0	0	0	508	621	
2	0	0	0	0	507	622	
3	0	0	0	0	506	623	
4	0	0	0	0	506	622	
5	0	0	0	0	506	625	
6	0	0	0	0	506	623	
7	0	0	0	0	506	623	
8	0	0	0	0	505	623	
9	0	0	0	0	505	621	
10	0	0	0	0	505	624	
11	0	0	0	0	506	623	
12	0	0	0	0	505	624	
13	0	0	0	0	505	625	
14	0	0	0	0	505	624	
15	0	0	0	0	505	623	
0	0	0	0	0	504	624	
1	0	0	0	0	504	622	
2	0	0	0	0	503	623	
3	0	0	0	0	503	624	
4	0	0	0	0	502	624	
5	0	0	0	0	501	625	
6	0	0	0	0	501	624	
7	0	0	0	0	501	624	
8	0	0	0	0	502	624	
9	0	0	0	0	502	622	
10	0	0	0	0	501	624	
11	0	0	0	0	500	624	
12	0	0	0	0	499	624	
13	0	0	0	0	499	625	
14	0	0	0	0	499	623	
15	0	0	0	0	498	624	
0	0	0	0	0	498	624	
1	0	0	0	0	497	622	
2	0	0	0	0	496	624	
3	0	0	0	0	496	624	
4	0	0	0	0	494	624	
5	0	0	0	0	494	626	
6	0	0	0	0	494	624	
7	0	0	0	0	493	624	
8	0	0	0	0	493	624	
9	0	0	0	0	492	622	
10	0	0	0	0	492	624	
11	0	0	0	0	490	624	
12	0	0	0	0	489	624	
13	0	0	0	0	489	626	
14	0	0	0	0	488	624	
15	0	0	0	0	487	624	
0	0	0	0	0	486	624	
1	0	0	0	0	486	623	
2	0	0	0	0	485	624	
3	0	0	0	0	485	624	
4	0	0	0	0	486	624	
5	0	0	0	0	485	625	
6	0	0	0	0	486	624	
7	0	0	0	0	485	624	
8	0	0	0	0	485	624	
9	0	0	0	0	485	622	
10	0	0	0	0	484	624	
11	0	0	0	0	484	624	
12	0	0	0	0	484	624	
13	0	0	0	0	484	626	
14	0	0	0	0	484	624	
15	0	0	0	0	483	624	
0	0	0	0	0	483	624	
1	0	0	0	0	482	622	
2	0	0	0	0	481	623	
3	0	0	0	0	482	624	
4	0	0	0	0	481	624	
5	0	0	0	0	482	625	
6	0	0	0	0	482	624	
7	0	0	0	0	483	623	
8	0	0	0	0	483	624	
9	0	0	0	0	483	622	
10	0	0	0	0	482	624	
11	0	0	0	0	483	624	
12	0	0	0	0	483	623	
13	0	0	0	0	484	625	
14	0	0	0	0	484	624	
15	0	0	0	0	484	623	
0	0	0	0	0	484	623	
1	0	0	0	0	485	621	
2	0	0	0	0	486	623	
3	0	0	0	0	485	623	
4	0	0	0	0	486	623	
5	0	0	0	0	486	625	
6	0	0	0	0	486	622	
7	0	0	0	0	486	622	
8	0	0	0	0	486	622	
9	0	0	0	0	486	620	
10	0	0	0	0	487	622	
11	0	0	0	0	488	622	
12	0	0	0	0	488	621	
13	0	0	0	0	489	623	
14	0	0	0	0	490	621	
15	0	0	0	0	490	620	
0	0	0	0	0	490	621	
1	0	0	0	0	489	619	
2	0	0	0	0	489	620	
3	0	0	0	0	490	621	
4	0	0	0	0	491	620	
5	0	0	0	0	491	622	
6	0	0	0	0	491	621	
7	0	0	0	0	491	621	
8	0	0	0	0	491	621	
9	0	0	0	0	491	619	
10	0	0	0	0	492	621	
11	0	0	0	0	492	621	
12	0	0	0	0	493	620	
13	0	0	0	0	494	623	
14	0	0	0	0	494	621	
15	0	0	0	0	493	621	
0	0	0	0	0	493	621	
1	0	0	0	0	493	619	
2	0	0	0	0	494	620	
3	0	0	0	0	494	621	
4	0	0	0	0	494	621	
5	0	0	0	0	495	623	
6	0	0	0	0	495	622	
7	0	0	0	0	496	622	
8	0	0	0	0	495	622	
9	0	0	0	0	494	620	
10	0	0	0	0	494	622	
11	0	0	0	0	494	622	
12	0	0	0	0	495	621	
13	0	0	0	0	495	624	
14	0	0	0	0	496	622	
15	0	0	0	0	496	622	
0	0	0	0	0	497	622	
1	0	0	0	0	496	621	
2	0	0	0	0	496	623	
3	0	0	0	0	496	623	
4	0	0	0	0	497	622	
5	0	0	0	0	497	625	
6	0	0	0	0	498	623	
7	0	0	0	0	498	623	
8	0	0	0	0	499	623	
9	0	0	0	0	499	621	
10	0	0	0	0	499	624	
11	0	0	0	0	499	624	
12	0	0	0	0	499	623	
13	0	0	0	0	499	625	
14	0	0	0	0	498	624	
15	0	0	0	0	498	624	
0	0	0	0	0	497	624	
1	0	0	0	0	497	622	
2	0	0	0	0	498	624	
3	0	0	0	0	497	624	
4	0	0	0	0	497	623	
5	0	0	0	0	497	625	
6	0	0	0	0	497	624	
7	0	0	0	0	498	624	
8	0	0	0	0	498	624	
9	0	0	0	0	499	622	
10	0	0	0	0	500	624	
11	0	0	0	0	501	624	
12	0	0	0	0	501	624	
13	0	0	0	0	502	625	
14	0	0	0	0	502	624	
15	0	0	0	0	501	624	
0	0	0	0	0	500	624	
1	0	0	0	0	500	622	
2	0	0	0	0	499	624	
3	0	0	0	0	500	623	
4	0	0	0	0	500	623	
5	0	0	0	0	500	625	
6	0	0	0	0	499	623	
7	0	0	0	0	498	623	
8	0	0	0	0	498	623	
9	0	0	0	0	499	622	
10	0	0	0	0	500	623	
11	0	0	0	0	501	623	
12	0	0	0	0	501	623	
13	0	0	0	0	501	625	
14	0	0	0	0	501	623	
15	0	0	0	0	500	623	
0	0	0	0	0	500	623	
1	0	0	0	0	500	622	
2	0	0	0	0	500	623	
3	0	0	0	0	499	622	
4	0	0	0	0	499	623	
5	0	0	0	0	499	624	
6	0	0	0	0	499	622	
7	0	0	0	0	500	622	
8	0	0	0	0	500	622	
9	0	0	0	0	500	621	
10	0	0	0	0	499	622	
11	0	0	0	0	500	622	
12	0	0	0	0	500	622	
13	0	0	0	0	501	624	
14	0	0	0	0	502	623	
15	0	0	0	0	502	623	
0	0	0	0	0	502	623	
1	0	0	0	0	503	621	
2	0	0	0	0	503	623	
3	0	0	0	0	504	623	
4	0	0	0	0	503	623	
5	0	0	0	0	503	625	
6	0	0	0	0	501	623	
7	0	0	0	0	501	624	
8	0	0	0	0	501	623	
9	0	0	0	0	501	620	
10	0	0	0	0	502	623	
11	0	0	0	0	501	622	
12	0	0	0	0	501	623	
13	0	0	0	0	501	625	
14	0	0	0	0	501	623	
15	0	0	0	0	502	623	
0	0	0	0	0	503	623	
1	0	0	0	0	503	621	
2	0	0	0	0	503	623	
3	0	0	0	0	502	623	
4	0	0	0	0	502	623	
5	0	0	0	0	501	624	
6	0	0	0	0	501	623	
7	0	0	0	0	501	623	
8	0	0	0	0	501	623	
9	0	0	0	0	501	621	
10	0	0	0	0	500	623	
11	0	0	0	0	500	623	
12	0	0	0	0	499	623	
13	0	0	0	0	499	625	
14	0	0	0	0	499	623	
15	0	0	0	0	498	623	
0	0	0	0	0	497	623	
1	0	0	0	0	496	621	
2	0	0	0	0	495	622	
3	0	0	0	0	495	623	
4	0	0	0	0	494	623	
5	0	0	0	0	495	625	
6	0	0	0	0	495	624	
7	0	0	0	0	495	623	
8	0	0	0	0	496	623	
9	0	0	0	0	495	620	
10	0	0	0	0	494	623	
11	0	0	0	0	495	623	
12	0	0	0	0	495	623	
13	0	0	0	0	495	625	
14	0	0	0	0	494	623	
15	0	0	0	0	492	623	
0	0	0	0	0	491	624	
1	0	0	0	0	490	621	
2	0	0	0	0	490	624	
3	0	0	0	0	490	624	
4	0	0	0	0	490	624	
5	0	0	0	0	491	625	
6	0	0	0	0	491	623	
7	0	0	0	0	492	623	
8	0	0	0	0	493	623	
9	0	0	0	0	494	622	
10	0	0	0	0	494	623	
11	0	0	0	0	495	623	
12	0	0	0	0	496	623	
13	0	0	0	0	497	624	
14	0	0	0	0	497	623	
15	0	0	0	0	499	623	
0	0	0	0	0	499	623	
1	0	0	0	0	500	621	
2	0	0	0	0	502	623	
3	0	0	0	0	503	622	
4	0	0	0	0	504	622	
5	0	0	0	0	504	624	
6	0	0	0	0	504	622	
7	0	0	0	0	504	622	
8	0	0	0	0	505	622	
9	0	0	0	0	504	620	
10	0	0	0	0	504	621	
11	0	0	0	0	504	622	
12	0	0	0	0	503	622	
13	0	0	0	0	504	624	
14	0	0	0	0	504	622	
15	0	0	0	0	504	622	
0	0	0	0	0	504	622	
1	0	0	0	0	504	620	
2	0	0	0	0	504	622	
3	0	0	0	0	503	622	
4	0	0	0	0	503	622	
5	0	0	0	0	503	624	
6	0	0	0	0	502	622	
7	0	0	0	0	503	622	
8	0	0	0	0	503	622	
9	0	0	0	0	504	620	
10	0	0	0	0	504	622	
11	0	0	0	0	505	622	
12	0	0	0	0	507	622	
13	0	0	0	0	507	624	
14	0	0	0	0	507	622	
15	0	0	0	0	508	622	
0	0	0	0	0	508	622	
1	0	0	0	0	509	620	
2	0	0	0	0	510	622	
3	0	0	0	0	511	622	
4	0	0	0	0	511	622	
5	0	0	0	0	510	624	
6	0	0	0	0	510	621	
7	0	0	0	0	510	622	
8	0	0	0	0	510	621	
9	0	0	0	0	509	619	
10	0	0	0	0	510	622	
11	0	0	0	0	510	622	
12	0	0	0	0	510	622	
13	0	0	0	0	511	624	
14	0	0	0	0	510	623	
15	0	0	0	0	510	622	
0	0	0	0	0	510	622	
1	0	0	0	0	510	620	
2	0	0	0	0	510	623	
3	0	0	0	0	510	623	
4	0	0	0	0	510	623	
5	0	0	0	0	510	625	
6	0	0	0	0	510	623	
7	0	0	0	0	510	623	
8	0	0	0	0	510	623	
9	0	0	0	0	510	622	
10	0	0	0	0	510	624	
11	0	0	0	0	511	624	
12	0	0	0	0	511	624	
13	0	0	0	0	511	625	
14	0	0	0	0	511	624	
15	0	0	0	0	510	624	
0	0	0	0	0	509	625	
1	0	0	0	0	509	623	
2	0	0	0	0	509	624	
3	0	0	0	0	509	625	
4	0	0	0	0	509	625	
5	0	0	0	0	509	627	
6	0	0	0	0	509	625	
7	0	0	0	0	510	625	
8	0	0	0	0	510	626	
9	0	0	0	0	510	624	
10	0	0	0	0	510	625	
11	0	0	0	0	511	625	
12	0	0	0	0	511	625	
13	0	0	0	0	511	627	
14	0	0	0	0	512	626	
15	0	0	0	0	511	625	
0	0	0	0	0	511	625	
1	0	0	0	0	510	623	
2	0	0	0	0	508	625	
3	0	0	0	0	505	625	
4	0	0	0	0	503	625	
5	0	0	0	0	498	626	
6	0	0	0	0	493	625	
7	0	0	0	0	487	625	
8	0	0	0	0	483	625	
9	0	0	0	0	479	623	
10	0	0	0	0	476	625	
11	0	0	0	0	474	625	
12	0	0	0	0	472	625	
13	0	0	0	0	472	627	
14	0	0	0	0	472	624	
15	0	0	0	0	471	624	
0	0	0	0	0	471	624	
1	0	0	0	0	474	622	
2	0	0	0	0	479	624	
3	0	0	0	0	487	624	
4	0	0	0	0	499	624	
5	0	0	0	0	515	625	
6	0	0	0	0	532	624	
7	0	0	0	0	553	624	
8	0	0	0	0	575	624	
9	0	0	0	0	596	622	
10	0	0	0	0	617	623	
11	0	0	0	0	637	623	
12	0	0	0	0	656	623	
13	0	0	0	0	671	625	
14	0	0	0	0	685	623	
15	0	0	0	0	697	623	
0	0	0	0	0	708	623	
1	0	0	0	0	718	620	
2	0	0	0	0	725	623	
3	0	0	0	0	729	622	
4	0	0	0	0	731	623	
5	0	0	0	0	726	624	
6	0	0	0	0	717	622	
7	0	0	0	0	707	622	
8	0	0	0	0	695	622	
9	0	0	0	0	679	620	
10	0	0	0	0	659	622	
11	0	0	0	0	637	622	
12	0	0	0	0	613	622	
13	0	0	0	0	592	624	
14	0	0	0	0	573	622	
15	0	0	0	0	558	622	
0	0	0	0	0	545	622	
1	0	0	0	0	534	620	
2	0	0	0	0	523	622	
3	0	0	0	0	513	621	
4	0	0	0	0	507	621	
5	0	0	0	0	500	623	
6	0	0	0	0	495	622	
7	0	0	0	0	491	621	
8	0	0	0	0	487	622	
9	0	0	0	0	483	619	
10	0	0	0	0	480	621	
11	0	0	0	0	477	622	
12	0	0	0	0	474	622	
13	0	0	0	0	472	624	
14	0	0	0	0	470	622	
15	0	0	0	0	470	622	
0	0	0	0	0	468	622	
1	0	0	0	0	468	620	
2	0	0	0	0	467	622	
3	0	0	0	0	466	622	
4	0	0	0	0	467	623	
5	0	0	0	0	466	624	
6	0	0	0	0	465	623	
7	0	0	0	0	465	623	
8	0	0	0	0	465	623	
9	0	0	0	0	465	621	
10	0	0	0	0	465	624	
11	0	0	0	0	465	624	
12	0	0	0	0	466	624	
13	0	0	0	0	465	626	
14	0	0	0	0	466	624	
15	0	0	0	0	466	624	
0	0	0	0	0	465	625	
1	0	0	0	0	466	623	
2	0	0	0	0	467	625	
3	0	0	0	0	467	625	
4	0	0	0	0	467	624	
5	0	0	0	0	468	627	
6	0	0	0	0	469	625	
7	0	0	0	0	468	625	
8	0	0	0	0	468	624	
9	0	0	0	0	468	623	
10	0	0	0	0	468	624	
11	0	0	0	0	469	624	
12	0	0	0	0	470	624	
13	0	0	0	0	471	626	
14	0	0	0	0	470	624	
15	0	0	0	0	471	624	
0	0	0	0	0	471	623	
1	0	0	0	0	471	622	
2	0	0	0	0	470	624	
3	0	0	0	0	471	624	
4	0	0	0	0	471	623	
5	0	0	0	0	471	625	
6	0	0	0	0	471	623	
7	0	0	0	0	472	624	
8	0	0	0	0	473	624	
9	0	0	0	0	473	621	
10	0	0	0	0	473	624	
11	0	0	0	0	474	623	
12	0	0	0	0	475	623	
13	0	0	0	0	476	625	
14	0	0	0	0	477	623	
15	0	0	0	0	478	624	
0	0	0	0	0	477	623	
1	0	0	0	0	479	621	
2	0	0	0	0	479	623	
3	0	0	0	0	479	623	
4	0	0	0	0	480	623	
5	0	0	0	0	480	624	
6	0	0	0	0	480	623	
7	0	0	0	0	481	622	
8	0	0	0	0	480	623	
9	0	0	0	0	480	621	
10	0	0	0	0	481	623	
11	0	0	0	0	482	623	
12	0	0	0	0	482	622	
13	0	0	0	0	482	623	
14	0	0	0	0	483	622	
15	0	0	0	0	482	622	
0	0	0	0	0	483	622	
1	0	0	0	0	483	620	
2	0	0	0	0	484	622	
3	0	0	0	0	485	622	
4	0	0	0	0	485	621	
5	0	0	0	0	484	624	
6	0	0	0	0	484	622	
7	0	0	0	0	484	622	
8	0	0	0	0	485	622	
9	0	0	0	0	485	619	
10	0	0	0	0	484	622	
11	0	0	0	0	484	621	
12	0	0	0	0	484	621	
13	0	0	0	0	484	622	
14	0	0	0	0	485	621	
15	0	0	0	0	486	620	
0	0	0	0	0	487	620	
1	0	0	0	0	487	618	
2	0	0	0	0	487	620	
3	0	0	0	0	487	620	
4	0	0	0	0	489	620	
5	0	0	0	0	490	622	
6	0	0	0	0	491	620	
7	0	0	0	0	492	620	
8	0	0	0	0	492	620	
9	0	0	0	0	492	618	
10	0	0	0	0	492	620	
11	0	0	0	0	492	620	
12	0	0	0	0	492	620	
13	0	0	0	0	491	622	
14	0	0	0	0	490	620	
15	0	0	0	0	491	620	
0	0	0	0	0	491	620	
1	0	0	0	0	492	619	
2	0	0	0	0	492	621	
3	0	0	0	0	492	620	
4	0	0	0	0	492	621	
5	0	0	0	0	492	623	
6	0	0	0	0	493	622	
7	0	0	0	0	493	621	
8	0	0	0	0	494	621	
9	0	0	0	0	495	620	
10	0	0	0	0	495	621	
11	0	0	0	0	495	621	
12	0	0	0	0	494	622	
13	0	0	0	0	496	623	
14	0	0	0	0	496	621	
15	0	0	0	0	496	621	
0	0	0	0	0	497	621	
1	0	0	0	0	497	619	
2	0	0	0	0	497	621	
3	0	0	0	0	497	622	
4	0	0	0	0	499	621	
5	0	0	0	0	499	623	
6	0	0	0	0	501	621	
7	0	0	0	0	501	622	
8	0	0	0	0	500	621	
9	0	0	0	0	501	620	
10	0	0	0	0	502	622	
11	0	0	0	0	503	621	
12	0	0	0	0	503	622	
13	0	0	0	0	504	623	
14	0	0	0	0	503	621	
15	0	0	0	0	503	622	
0	0	0	0	0	503	622	
1	0	0	0	0	503	620	
2	0	0	0	0	504	621	
3	0	0	0	0	504	622	
4	0	0	0	0	505	622	
5	0	0	0	0	505	624	
6	0	0	0	0	506	622	
7	0	0	0	0	507	622	
8	0	0	0	0	508	623	
9	0	0	0	0	509	620	
10	0	0	0	0	509	623	
11	0	0	0	0	509	623	
12	0	0	0	0	509	623	
13	0	0	0	0	508	625	
14	0	0	0	0	509	624	
15	0	0	0	0	509	623	
0	0	0	0	0	508	624	
1	0	0	0	0	508	622	
2	0	0	0	0	508	623	
3	0	0	0	0	509	624	
4	0	0	0	0	510	624	
5	0	0	0	0	511	626	
6	0	0	0	0	512	624	
7	0	0	0	0	512	624	
8	0	0	0	0	512	624	
9	0	0	0	0	511	623	
10	0	0	0	0	512	624	
11	0	0	0	0	512	624	
12	0	0	0	0	511	624	
13	0	0	0	0	511	626	
14	0	0	0	0	510	625	
15	0	0	0	0	511	625	
0	0	0	0	0	511	625	
1	0	0	0	0	510	622	
2	0	0	0	0	511	625	
3	0	0	0	0	511	624	
4	0	0	0	0	511	624	
5	0	0	0	0	511	625	
6	0	0	0	0	510	624	
7	0	0	0	0	510	624	
8	0	0	0	0	510	624	
9	0	0	0	0	509	622	
10	0	0	0	0	509	624	
11	0	0	0	0	509	624	
12	0	0	0	0	509	624	
13	0	0	0	0	509	626	
14	0	0	0	0	508	624	
15	0	0	0	0	508	624	
0	0	0	0	0	508	625	
1	0	0	0	0	508	623	
2	0	0	0	0	508	624	
3	0	0	0	0	507	624	
4	0	0	0	0	507	624	
5	0	0	0	0	507	626	
6	0	0	0	0	507	624	
7	0	0	0	0	507	624	
8	0	0	0	0	507	624	
9	0	0	0	0	507	622	
10	0	0	0	0	507	624	
11	0	0	0	0	507	624	
12	0	0	0	0	507	624	
13	0	0	0	0	507	626	
14	0	0	0	0	506	624	
15	0	0	0	0	505	624	
0	0	0	0	0	505	625	
1	0	0	0	0	505	622	
2	0	0	0	0	504	624	
3	0	0	0	0	504	624	
4	0	0	0	0	503	624	
5	0	0	0	0	504	626	
6	0	0	0	0	503	624	
7	0	0	0	0	503	624	
8	0	0	0	0	502	624	
9	0	0	0	0	501	622	
10	0	0	0	0	501	624	
11	0	0	0	0	500	624	
12	0	0	0	0	500	624	
13	0	0	0	0	499	625	
14	0	0	0	0	500	625	
15	0	0	0	0	499	624	
0	0	0	0	0	499	624	
1	0	0	0	0	499	623	
2	0	0	0	0	499	624	
3	0	0	0	0	498	624	
4	0	0	0	0	497	624	
5	0	0	0	0	497	626	
6	0	0	0	0	497	625	
7	0	0	0	0	496	624	
8	0	0	0	0	496	624	
9	0	0	0	0	496	623	
10	0	0	0	0	496	625	
11	0	0	0	0	495	625	
12	0	0	0	0	494	625	
13	0	0	0	0	495	627	
14	0	0	0	0	494	625	
15	0	0	0	0	494	624	
0	0	0	0	0	495	624	
1	0	0	0	0	495	622	
2	0	0	0	0	494	624	
3	0	0	0	0	494	624	
4	0	0	0	0	493	625	
5	0	0	0	0	494	626	
6	0	0	0	0	493	625	
7	0	0	0	0	492	625	
8	0	0	0	0	492	625	
9	0	0	0	0	493	623	
10	0	0	0	0	493	625	
11	0	0	0	0	492	624	
12	0	0	0	0	493	624	
13	0	0	0	0	494	626	
14	0	0	0	0	494	624	
15	0	0	0	0	494	624	
0	0	0	0	0	493	624	
1	0	0	0	0	493	622	
2	0	0	0	0	494	623	
3	0	0	0	0	494	623	
4	0	0	0	0	494	623	
5	0	0	0	0	494	624	
6	0	0	0	0	493	623	
7	0	0	0	0	493	623	
8	0	0	0	0	493	622	
9	0	0	0	0	493	620	
10	0	0	0	0	494	622	
11	0	0	0	0	494	623	
12	0	0	0	0	494	622	
13	0	0	0	0	494	624	
14	0	0	0	0	494	622	
15	0	0	0	0	494	622	
0	0	0	0	0	492	622	
1	0	0	0	0	492	620	
2	0	0	0	0	493	622	
3	0	0	0	0	493	622	
4	0	0	0	0	493	622	
5	0	0	0	0	494	624	
6	0	0	0	0	495	623	
7	0	0	0	0	494	623	
8	0	0	0	0	495	623	
9	0	0	0	0	495	621	
10	0	0	0	0	494	623	
11	0	0	0	0	495	623	
12	0	0	0	0	494	623	
13	0	0	0	0	494	625	
14	0	0	0	0	494	623	
15	0	0	0	0	494	624	
0	0	0	0	0	494	623	
1	0	0	0	0	495	621	
2	0	0	0	0	495	623	
3	0	0	0	0	496	623	
4	0	0	0	0	495	623	
5	0	0	0	0	496	625	
6	0	0	0	0	496	624	
7	0	0	0	0	496	623	
8	0	0	0	0	496	623	
9	0	0	0	0	496	622	
10	0	0	0	0	496	623	
11	0	0	0	0	497	623	
12	0	0	0	0	497	624	
13	0	0	0	0	497	625	
14	0	0	0	0	497	623	
15	0	0	0	0	497	623	
0	0	0	0	0	497	623	
1	0	0	0	0	497	621	
2	0	0	0	0	497	623	
3	0	0	0	0	497	623	
4	0	0	0	0	496	623	
5	0	0	0	0	496	624	
6	0	0	0	0	496	623	
7	0	0	0	0	497	622	
8	0	0	0	0	496	623	
9	0	0	0	0	495	621	
10	0	0	0	0	495	622	
11	0	0	0	0	495	622	
12	0	0	0	0	496	622	
13	0	0	0	0	497	623	
14	0	0	0	0	497	622	
15	0	0	0	0	497	622	
0	0	0	0	0	497	622	
1	0	0	0	0	499	620	
2	0	0	0	0	499	622	
3	0	0	0	0	499	621	
4	0	0	0	0	499	622	
5	0	0	0	0	499	622	
6	0	0	0	0	499	620	
7	0	0	0	0	499	620	
8	0	0	0	0	499	620	
9	0	0	0	0	499	618	
10	0	0	0	0	498	620	
11	0	0	0	0	499	620	
12	0	0	0	0	498	620	
13	0	0	0	0	498	622	
14	0	0	0	0	498	620	
15	0	0	0	0	498	620	
0	0	0	0	0	497	620	
1	0	0	0	0	498	618	
2	0	0	0	0	497	620	
3	0	0	0	0	497	620	
4	0	0	0	0	498	620	
5	0	0	0	0	498	622	
6	0	0	0	0	498	620	
7	0	0	0	0	499	620	
8	0	0	0	0	499	621	
9	0	0	0	0	499	619	
10	0	0	0	0	500	621	
11	0	0	0	0	500	621	
12	0	0	0	0	500	621	
13	0	0	0	0	499	622	
14	0	0	0	0	499	622	
15	0	0	0	0	499	621	
0	0	0	0	0	499	621	
1	0	0	0	0	499	619	
2	0	0	0	0	500	621	
3	0	0	0	0	500	622	
4	0	0	0	0	499	622	
5	0	0	0	0	499	624	
6	0	0	0	0	499	622	
7	0	0	0	0	499	622	
8	0	0	0	0	499	622	
9	0	0	0	0	499	620	
10	0	0	0	0	498	622	
11	0	0	0	0	498	622	
12	0	0	0	0	498	622	
13	0	0	0	0	499	624	
14	0	0	0	0	497	622	
15	0	0	0	0	497	622	
0	0	0	0	0	497	622	
1	0	0	0	0	497	620	
2	0	0	0	0	496	622	
3	0	0	0	0	496	622	
4	0	0	0	0	496	622	
5	0	0	0	0	496	624	
6	0	0	0	0	496	623	
7	0	0	0	0	495	623	
8	0	0	0	0	496	623	
9	0	0	0	0	496	621	
10	0	0	0	0	496	623	
11	0	0	0	0	496	623	
12	0	0	0	0	496	623	
13	0	0	0	0	496	625	
14	0	0	0	0	496	623	
15	0	0	0	0	496	623	
0	0	0	0	0	496	624	
1	0	0	0	0	495	622	
2	0	0	0	0	494	623	
3	0	0	0	0	494	623	
4	0	0	0	0	494	623	
5	0	0	0	0	494	625	
6	0	0	0	0	494	623	
7	0	0	0	0	494	624	
8	0	0	0	0	493	623	
9	0	0	0	0	493	621	
10	0	0	0	0	493	623	
11	0	0	0	0	492	623	
12	0	0	0	0	492	624	
13	0	0	0	0	492	625	
14	0	0	0	0	492	624	
15	0	0	0	0	492	624	
0	0	0	0	0	491	623	
1	0	0	0	0	490	622	
2	0	0	0	0	489	624	
3	0	0	0	0	490	623	
4	0	0	0	0	490	624	
5	0	0	0	0	490	625	
6	0	0	0	0	491	624	
7	0	0	0	0	491	624	
8	0	0	0	0	492	624	
9	0	0	0	0	491	622	
10	0	0	0	0	492	624	
11	0	0	0	0	492	624	
12	0	0	0	0	493	624	
13	0	0	0	0	494	626	
14	0	0	0	0	494	624	
15	0	0	0	0	495	624	
0	0	0	0	0	496	624	
1	0	0	0	0	497	622	
2	0	0	0	0	498	624	
3	0	0	0	0	499	624	
4	0	0	0	0	500	623	
5	0	0	0	0	501	625	
6	0	0	0	0	501	624	
7	0	0	0	0	501	624	
8	0	0	0	0	502	624	
9	0	0	0	0	501	622	
10	0	0	0	0	500	624	
11	0	0	0	0	500	624	
12	0	0	0	0	500	624	
13	0	0	0	0	499	626	
14	0	0	0	0	499	624	
15	0	0	0	0	499	624	
0	0	0	0	0	499	624	
1	0	0	0	0	499	621	
2	0	0	0	0	498	623	
3	0	0	0	0	498	623	
4	0	0	0	0	499	623	
5	0	0	0	0	499	625	
6	0	0	0	0	499	623	
7	0	0	0	0	500	623	
8	0	0	0	0	499	623	
9	0	0	0	0	499	621	
10	0	0	0	0	498	623	
11	0	0	0	0	497	623	
12	0	0	0	0	497	623	
13	0	0	0	0	497	624	
14	0	0	0	0	497	622	
15	0	0	0	0	497	622	
0	0	0	0	0	497	622	
1	0	0	0	0	499	621	
2	0	0	0	0	499	623	
3	0	0	0	0	500	623	
4	0	0	0	0	500	622	
5	0	0	0	0	500	624	
6	0	0	0	0	499	622	
7	0	0	0	0	499	622	
8	0	0	0	0	499	622	
9	0	0	0	0	499	620	
10	0	0	0	0	500	622	
11	0	0	0	0	499	622	
12	0	0	0	0	500	622	
13	0	0	0	0	500	624	
14	0	0	0	0	500	622	
15	0	0	0	0	501	622	
0	0	0	0	0	501	622	
1	0	0	0	0	502	620	
2	0	0	0	0	501	622	
3	0	0	0	0	500	622	
4	0	0	0	0	500	622	
5	0	0	0	0	500	623	
6	0	0	0	0	501	622	
7	0	0	0	0	501	622	
8	0	0	0	0	501	623	
9	0	0	0	0	502	620	
10	0	0	0	0	501	622	
11	0	0	0	0	501	622	
12	0	0	0	0	501	623	
13	0	0	0	0	501	624	
14	0	0	0	0	502	623	
15	0	0	0	0	502	623	
0	0	0	0	0	500	623	
1	0	0	0	0	500	621	
2	0	0	0	0	500	623	
3	0	0	0	0	501	624	
4	0	0	0	0	502	624	
5	0	0	0	0	502	626	
6	0	0	0	0	502	624	
7	0	0	0	0	501	624	
8	0	0	0	0	502	624	
9	0	0	0	0	502	622	
10	0	0	0	0	502	624	
11	0	0	0	0	502	624	
12	0	0	0	0	502	624	
13	0	0	0	0	502	626	
14	0	0	0	0	501	624	
15	0	0	0	0	502	624	
0	0	0	0	0	501	624	
1	0	0	0	0	501	622	
2	0	0	0	0	501	623	
3	0	0	0	0	501	624	
4	0	0	0	0	499	624	
5	0	0	0	0	496	625	
6	0	0	0	0	491	624	
7	0	0	0	0	485	624	
8	0	0	0	0	480	624	
9	0	0	0	0	475	622	
10	0	0	0	0	472	624	
11	0	0	0	0	469	624	
12	0	0	0	0	467	623	
13	0	0	0	0	465	625	
14	0	0	0	0	464	624	
15	0	0	0	0	463	623	
0	0	0	0	0	463	624	
1	0	0	0	0	463	622	
2	0	0	0	0	464	624	
3	0	0	0	0	468	624	
4	0	0	0	0	476	624	
5	0	0	0	0	486	626	
6	0	0	0	0	499	625	
7	0	0	0	0	515	624	
8	0	0	0	0	535	624	
9	0	0	0	0	556	622	
10	0	0	0	0	576	623	
11	0	0	0	0	597	624	
12	0	0	0	0	617	623	
13	0	0	0	0	637	625	
14	0	0	0	0	653	623	
15	0	0	0	0	668	623	
0	0	0	0	0	682	623	
1	0	0	0	0	694	620	
2	0	0	0	0	703	623	
3	0	0	0	0	710	623	
4	0	0	0	0	715	623	
5	0	0	0	0	719	624	
6	0	0	0	0	717	623	
7	0	0	0	0	710	623	
8	0	0	0	0	701	622	
9	0	0	0	0	689	621	
10	0	0	0	0	673	622	
11	0	0	0	0	655	622	
12	0	0	0	0	633	622	
13	0	0	0	0	610	624	
14	0	0	0	0	588	623	
15	0	0	0	0	569	623	
0	0	0	0	0	552	623	
1	0	0	0	0	539	621	
2	0	0	0	0	527	623	
3	0	0	0	0	516	623	
4	0	0	0	0	507	624	
5	0	0	0	0	499	624	
6	0	0	0	0	493	623	
7	0	0	0	0	487	623	
8	0	0	0	0	484	623	
9	0	0	0	0	480	621	
10	0	0	0	0	476	623	
11	0	0	0	0	473	623	
12	0	0	0	0	470	623	
13	0	0	0	0	467	625	
14	0	0	0	0	466	623	
15	0	0	0	0	464	623	
0	0	0	0	0	463	623	
1	0	0	0	0	462	621	
2	0	0	0	0	462	623	
3	0	0	0	0	462	623	
4	0	0	0	0	461	624	
5	0	0	0	0	460	625	
6	0	0	0	0	460	623	
7	0	0	0	0	459	623	
8	0	0	0	0	458	623	
9	0	0	0	0	457	621	
10	0	0	0	0	457	623	
11	0	0	0	0	457	623	
12	0	0	0	0	457	623	
13	0	0	0	0	456	625	
14	0	0	0	0	457	623	
15	0	0	0	0	458	623	
0	0	0	0	0	458	623	
1	0	0	0	0	457	621	
2	0	0	0	0	457	623	
3	0	0	0	0	458	623	
4	0	0	0	0	458	623	
5	0	0	0	0	458	625	
6	0	0	0	0	458	623	
7	0	0	0	0	459	623	
8	0	0	0	0	459	623	
9	0	0	0	0	459	621	
10	0	0	0	0	459	624	
11	0	0	0	0	459	623	
12	0	0	0	0	459	623	
13	0	0	0	0	459	625	
14	0	0	0	0	460	623	
15	0	0	0	0	462	623	
0	0	0	0	0	463	623	
1	0	0	0	0	463	620	
2	0	0	0	0	463	622	
3	0	0	0	0	464	622	
4	0	0	0	0	465	622	
5	0	0	0	0	465	624	
6	0	0	0	0	465	623	
7	0	0	0	0	465	622	
8	0	0	0	0	465	623	
9	0	0	0	0	465	620	
10	0	0	0	0	466	622	
11	0	0	0	0	465	622	
12	0	0	0	0	465	622	
13	0	0	0	0	466	624	
14	0	0	0	0	466	622	
15	0	0	0	0	467	622	
0	0	0	0	0	467	623	
1	0	0	0	0	468	621	
2	0	0	0	0	469	623	
3	0	0	0	0	471	622	
4	0	0	0	0	472	622	
5	0	0	0	0	472	624	
6	0	0	0	0	473	622	
7	0	0	0	0	472	622	
8	0	0	0	0	473	622	
9	0	0	0	0	473	620	
10	0	0	0	0	474	622	
11	0	0	0	0	474	622	
12	0	0	0	0	476	623	
13	0	0	0	0	476	624	
14	0	0	0	0	476	623	
15	0	0	0	0	477	624	
0	0	0	0	0	478	623	
1	0	0	0	0	478	621	
2	0	0	0	0	478	623	
3	0	0	0	0	478	623	
4	0	0	0	0	479	623	
5	0	0	0	0	479	625	
6	0	0	0	0	479	624	
7	0	0	0	0	478	623	
8	0	0	0	0	478	624	
9	0	0	0	0	478	621	
10	0	0	0	0	479	623	
11	0	0	0	0	479	622	
12	0	0	0	0	480	622	
13	0	0	0	0	480	624	
14	0	0	0	0	480	622	
15	0	0	0	0	481	622	
0	0	0	0	0	481	621	
1	0	0	0	0	482	619	
2	0	0	0	0	483	621	
3	0	0	0	0	484	621	
4	0	0	0	0	484	621	
5	0	0	0	0	485	622	
6	0	0	0	0	486	621	
7	0	0	0	0	487	621	
8	0	0	0	0	487	621	
9	0	0	0	0	487	620	
10	0	0	0	0	487	621	
11	0	0	0	0	488	621	
12	0	0	0	0	488	620	
13	0	0	0	0	489	623	
14	0	0	0	0	489	621	
15	0	0	0	0	490	621	
0	0	0	0	0	491	621	
1	0	0	0	0	491	619	
2	0	0	0	0	492	621	
3	0	0	0	0	492	622	
4	0	0	0	0	492	621	
5	0	0	0	0	493	623	
6	0	0	0	0	494	622	
7	0	0	0	0	494	622	
8	0	0	0	0	494	622	
9	0	0	0	0	494	620	
10	0	0	0	0	494	623	
11	0	0	0	0	494	622	
12	0	0	0	0	494	623	
13	0	0	0	0	494	624	
14	0	0	0	0	494	622	
15	0	0	0	0	494	623	
0	0	0	0	0	494	622	
1	0	0	0	0	495	620	
2	0	0	0	0	495	622	
3	0	0	0	0	496	622	
4	0	0	0	0	496	622	
5	0	0	0	0	497	624	
6	0	0	0	0	498	623	
7	0	0	0	0	498	622	
8	0	0	0	0	499	622	
9	0	0	0	0	500	620	
10	0	0	0	0	502	622	
11	0	0	0	0	504	622	
12	0	0	0	0	504	622	
13	0	0	0	0	505	623	
14	0	0	0	0	506	622	
15	0	0	0	0	507	622	
0	0	0	0	0	509	622	
1	0	0	0	0	509	620	
2	0	0	0	0	509	622	
3	0	0	0	0	509	622	
4	0	0	0	0	509	622	
5	0	0	0	0	510	624	
6	0	0	0	0	511	622	
7	0	0	0	0	511	622	
8	0	0	0	0	512	622	
9	0	0	0	0	512	620	
10	0	0	0	0	512	622	
11	0	0	0	0	512	622	
12	0	0	0	0	513	622	
13	0	0	0	0	513	624	
14	0	0	0	0	513	623	
15	0	0	0	0	513	623	
0	0	0	0	0	513	623	
1	0	0	0	0	512	621	
2	0	0	0	0	512	622	
3	0	0	0	0	512	623	
4	0	0	0	0	513	624	
5	0	0	0	0	514	625	
6	0	0	0	0	514	624	
7	0	0	0	0	514	623	
8	0	0	0	0	513	623	
9	0	0	0	0	514	622	
10	0	0	0	0	513	623	
11	0	0	0	0	513	624	
12	0	0	0	0	514	624	
13	0	0	0	0	514	626	
14	0	0	0	0	515	624	
15	0	0	0	0	515	624	
0	0	0	0	0	515	624	
1	0	0	0	0	515	622	
2	0	0	0	0	515	624	
3	0	0	0	0	516	624	
4	0	0	0	0	515	624	
5	0	0	0	0	515	627	
6	0	0	0	0	515	625	
7	0	0	0	0	515	624	
8	0	0	0	0	515	624	
9	0	0	0	0	515	622	
10	0	0	0	0	515	625	
11	0	0	0	0	516	625	
12	0	0	0	0	515	625	
13	0	0	0	0	515	627	
14	0	0	0	0	515	625	
15	0	0	0	0	515	625	
0	0	0	0	0	516	625	
1	0	0	0	0	516	623	
2	0	0	0	0	516	625	
3	0	0	0	0	516	625	
4	0	0	0	0	517	625	
5	0	0	0	0	516	626	
6	0	0	0	0	516	624	
7	0	0	0	0	516	625	
8	0	0	0	0	516	626	
9	0	0	0	0	516	624	
10	0	0	0	0	515	625	
11	0	0	0	0	515	625	
12	0	0	0	0	515	625	
13	0	0	0	0	515	627	
14	0	0	0	0	515	625	
15	0	0	0	0	515	626	
0	0	0	0	0	515	626	
1	0	0	0	0	515	624	
2	0	0	0	0	514	626	
3	0	0	0	0	514	626	
4	0	0	0	0	515	626	
5	0	0	0	0	514	628	
6	0	0	0	0	514	626	
7	0	0	0	0	514	626	
8	0	0	0	0	513	626	
9	0	0	0	0	512	624	
10	0	0	0	0	512	625	
11	0	0	0	0	512	625	
12	0	0	0	0	511	625	
13	0	0	0	0	511	627	
14	0	0	0	0	511	624	
15	0	0	0	0	510	625	
0	0	0	0	0	510	624	
1	0	0	0	0	510	622	
2	0	0	0	0	510	624	
3	0	0	0	0	509	624	
4	0	0	0	0	509	624	
5	0	0	0	0	508	626	
6	0	0	0	0	508	625	
7	0	0	0	0	507	624	
8	0	0	0	0	507	624	
9	0	0	0	0	506	622	
10	0	0	0	0	506	624	
11	0	0	0	0	506	624	
12	0	0	0	0	506	624	
13	0	0	0	0	507	625	
14	0	0	0	0	508	623	
15	0	0	0	0	508	625	
0	0	0	0	0	508	624	
1	0	0	0	0	509	622	
2	0	0	0	0	509	624	
3	0	0	0	0	509	624	
4	0	0	0	0	509	624	
5	0	0	0	0	509	625	
6	0	0	0	0	509	624	
7	0	0	0	0	510	623	
8	0	0	0	0	510	623	
9	0	0	0	0	511	622	
10	0	0	0	0	511	623	
11	0	0	0	0	511	623	
12	0	0	0	0	511	623	
13	0	0	0	0	511	625	
14	0	0	0	0	511	624	
15	0	0	0	0	511	623	
0	0	0	0	0	511	623	
1	0	0	0	0	511	621	
2	0	0	0	0	510	623	
3	0	0	0	0	510	623	
4	0	0	0	0	510	623	
5	0	0	0	0	510	625	
6	0	0	0	0	510	623	
7	0	0	0	0	510	623	
8	0	0	0	0	510	623	
9	0	0	0	0	509	621	
10	0	0	0	0	509	623	
11	0	0	0	0	510	623	
12	0	0	0	0	511	623	
13	0	0	0	0	511	625	
14	0	0	0	0	511	624	
15	0	0	0	0	511	623	
0	0	0	0	0	511	623	
1	0	0	0	0	510	621	
2	0	0	0	0	510	623	
3	0	0	0	0	510	623	
4	0	0	0	0	511	623	
5	0	0	0	0	511	625	
6	0	0	0	0	510	622	
7	0	0	0	0	510	622	
8	0	0	0	0	510	623	
9	0	0	0	0	512	621	
10	0	0	0	0	512	622	
11	0	0	0	0	513	623	
12	0	0	0	0	514	622	
13	0	0	0	0	515	625	
14	0	0	0	0	515	624	
15	0	0	0	0	515	623	
0	0	0	0	0	513	624	
1	0	0	0	0	514	622	
2	0	0	0	0	514	624	
3	0	0	0	0	514	623	
4	0	0	0	0	514	623	
5	0	0	0	0	514	625	
6	0	0	0	0	514	624	
7	0	0	0	0	514	624	
8	0	0	0	0	515	623	
9	0	0	0	0	515	622	
10	0	0	0	0	515	623	
11	0	0	0	0	517	624	
12	0	0	0	0	517	623	
13	0	0	0	0	518	625	
14	0	0	0	0	518	623	
15	0	0	0	0	519	622	
0	0	0	0	0	519	622	
1	0	0	0	0	519	620	
2	0	0	0	0	520	622	
3	0	0	0	0	520	622	
4	0	0	0	0	520	622	
5	0	0	0	0	520	623	
6	0	0	0	0	520	622	
7	0	0	0	0	520	621	
8	0	0	0	0	520	622	
9	0	0	0	0	520	620	
10	0	0	0	0	519	622	
11	0	0	0	0	518	621	
12	0	0	0	0	519	621	
13	0	0	0	0	518	622	
14	0	0	0	0	518	620	
15	0	0	0	0	519	621	
0	0	0	0	0	520	621	
1	0	0	0	0	521	619	
2	0	0	0	0	522	620	
3	0	0	0	0	523	621	
4	0	0	0	0	524	621	
5	0	0	0	0	524	622	
6	0	0	0	0	524	620	
7	0	0	0	0	524	620	
8	0	0	0	0	525	621	
9	0	0	0	0	525	618	
10	0	0	0	0	526	620	
11	0	0	0	0	526	620	
12	0	0	0	0	526	620	
13	0	0	0	0	526	622	
14	0	0	0	0	526	621	
15	0	0	0	0	526	621	
0	0	0	0	0	525	621	
1	0	0	0	0	524	619	
2	0	0	0	0	524	620	
3	0	0	0	0	524	621	
4	0	0	0	0	523	621	
5	0	0	0	0	524	623	
6	0	0	0	0	524	621	
7	0	0	0	0	524	621	
8	0	0	0	0	524	621	
9	0	0	0	0	524	619	
10	0	0	0	0	524	622	
11	0	0	0	0	523	621	
12	0	0	0	0	523	622	
13	0	0	0	0	523	624	
14	0	0	0	0	524	622	
15	0	0	0	0	524	621	
0	0	0	0	0	524	622	
1	0	0	0	0	524	619	
2	0	0	0	0	523	621	
3	0	0	0	0	523	621	
4	0	0	0	0	523	622	
5	0	0	0	0	523	624	
6	0	0	0	0	522	622	
7	0	0	0	0	522	622	
8	0	0	0	0	522	622	
9	0	0	0	0	522	620	
10	0	0	0	0	521	622	
11	0	0	0	0	521	622	
12	0	0	0	0	520	622	
13	0	0	0	0	520	624	
14	0	0	0	0	520	623	
15	0	0	0	0	520	623	
0	0	0	0	0	521	623	
1	0	0	0	0	520	622	
2	0	0	0	0	520	624	
3	0	0	0	0	520	624	
4	0	0	0	0	519	624	
5	0	0	0	0	520	626	
6	0	0	0	0	520	624	
7	0	0	0	0	520	625	
8	0	0	0	0	520	626	
9	0	0	0	0	522	624	
10	0	0	0	0	522	625	
11	0	0	0	0	522	625	
12	0	0	0	0	522	625	
13	0	0	0	0	521	626	
14	0	0	0	0	521	625	
15	0	0	0	0	520	624	
0	0	0	0	0	520	625	
1	0	0	0	0	520	623	
2	0	0	0	0	520	624	
3	0	0	0	0	520	624	
4	0	0	0	0	520	624	
5	0	0	0	0	521	627	
6	0	0	0	0	522	624	
7	0	0	0	0	522	624	
8	0	0	0	0	522	624	
9	0	0	0	0	522	622	
10	0	0	0	0	522	623	
11	0	0	0	0	523	623	
12	0	0	0	0	523	623	
13	0	0	0	0	525	625	
14	0	0	0	0	525	624	
15	0	0	0	0	526	624	
0	0	0	0	0	527	623	
1	0	0	0	0	527	621	
2	0	0	0	0	528	623	
3	0	0	0	0	529	622	
4	0	0	0	0	530	622	
5	0	0	0	0	531	624	
6	0	0	0	0	530	622	
7	0	0	0	0	530	623	
8	0	0	0	0	530	622	
9	0	0	0	0	531	620	
10	0	0	0	0	531	622	
11	0	0	0	0	531	622	
12	0	0	0	0	531	622	
13	0	0	0	0	531	623	
14	0	0	0	0	531	621	
15	0	0	0	0	530	621	
0	0	0	0	0	530	621	
1	0	0	0	0	529	619	
2	0	0	0	0	528	620	
3	0	0	0	0	528	621	
4	0	0	0	0	528	620	
5	0	0	0	0	528	623	
6	0	0	0	0	528	620	
7	0	0	0	0	529	620	
8	0	0	0	0	529	621	
9	0	0	0	0	530	618	
10	0	0	0	0	530	620	
11	0	0	0	0	530	620	
12	0	0	0	0	531	620	
13	0	0	0	0	532	622	
14	0	0	0	0	532	621	
15	0	0	0	0	533	621	
0	0	0	0	0	534	621	
1	0	0	0	0	534	619	
2	0	0	0	0	534	620	
3	0	0	0	0	534	621	
4	0	0	0	0	533	621	
5	0	0	0	0	533	623	
6	0	0	0	0	532	620	
7	0	0	0	0	533	621	
8	0	0	0	0	532	621	
9	0	0	0	0	532	619	
10	0	0	0	0	532	620	
11	0	0	0	0	532	620	
12	0	0	0	0	531	621	
13	0	0	0	0	531	623	
14	0	0	0	0	531	621	
15	0	0	0	0	531	621	
0	0	0	0	0	530	622	
1	0	0	0	0	530	620	
2	0	0	0	0	530	622	
3	0	0	0	0	531	622	
4	0	0	0	0	531	622	
5	0	0	0	0	532	624	
6	0	0	0	0	533	623	
7	0	0	0	0	533	623	
8	0	0	0	0	534	623	
9	0	0	0	0	534	621	
10	0	0	0	0	534	623	
11	0	0	0	0	534	623	
12	0	0	0	0	534	623	
13	0	0	0	0	534	625	
14	0	0	0	0	534	623	
15	0	0	0	0	534	623	
0	0	0	0	0	535	623	
1	0	0	0	0	535	622	
2	0	0	0	0	535	624	
3	0	0	0	0	536	624	
4	0	0	0	0	535	625	
5	0	0	0	0	535	627	
6	0	0	0	0	535	625	
7	0	0	0	0	535	625	
8	0	0	0	0	535	625	
9	0	0	0	0	534	623	
10	0	0	0	0	534	625	
11	0	0	0	0	534	625	
12	0	0	0	0	534	625	
13	0	0	0	0	534	627	
14	0	0	0	0	533	624	
15	0	0	0	0	531	625	
0	0	0	0	0	529	624	
1	0	0	0	0	526	623	
2	0	0	0	0	522	624	
3	0	0	0	0	518	624	
4	0	0	0	0	513	624	
5	0	0	0	0	508	626	
6	0	0	0	0	506	624	
7	0	0	0	0	504	624	
8	0	0	0	0	502	625	
9	0	0	0	0	499	622	
10	0	0	0	0	497	624	
11	0	0	0	0	497	625	
12	0	0	0	0	497	625	
13	0	0	0	0	496	626	
14	0	0	0	0	499	624	
15	0	0	0	0	505	625	
0	0	0	0	0	515	624	
1	0	0	0	0	527	622	
2	0	0	0	0	543	624	
3	0	0	0	0	562	624	
4	0	0	0	0	581	624	
5	0	0	0	0	601	626	
6	0	0	0	0	621	624	
7	0	0	0	0	639	624	
8	0	0	0	0	658	624	
9	0	0	0	0	675	622	
10	0	0	0	0	688	624	
11	0	0	0	0	700	624	
12	0	0	0	0	711	624	
13	0	0	0	0	721	625	
14	0	0	0	0	728	624	
15	0	0	0	0	733	624	
0	0	0	0	0	736	623	
1	0	0	0	0	737	621	
2	0	0	0	0	732	624	
3	0	0	0	0	724	623	
4	0	0	0	0	714	623	
5	0	0	0	0	701	624	
6	0	0	0	0	684	623	
7	0	0	0	0	666	623	
8	0	0	0	0	644	623	
9	0	0	0	0	622	621	
10	0	0	0	0	604	623	
11	0	0	0	0	588	623	
12	0	0	0	0	576	623	
13	0	0	0	0	566	624	
14	0	0	0	0	556	623	
15	0	0	0	0	547	623	
0	0	0	0	0	539	622	
1	0	0	0	0	532	621	
2	0	0	0	0	526	623	
3	0	0	0	0	522	623	
4	0	0	0	0	518	623	
5	0	0	0	0	514	624	
6	0	0	0	0	512	623	
7	0	0	0	0	509	623	
8	0	0	0	0	508	623	
9	0	0	0	0	506	622	
10	0	0	0	0	504	624	
11	0	0	0	0	502	624	
12	0	0	0	0	501	624	
13	0	0	0	0	500	626	
14	0	0	0	0	499	624	
15	0	0	0	0	497	624	
0	0	0	0	0	496	625	
1	0	0	0	0	494	623	
2	0	0	0	0	493	624	
3	0	0	0	0	493	625	
4	0	0	0	0	493	624	
5	0	0	0	0	493	627	
6	0	0	0	0	493	625	
7	0	0	0	0	492	625	
8	0	0	0	0	491	625	
9	0	0	0	0	491	623	
10	0	0	0	0	490	624	
11	0	0	0	0	491	624	
12	0	0	0	0	492	625	
13	0	0	0	0	491	627	
14	0	0	0	0	491	625	
15	0	0	0	0	491	625	
0	0	0	0	0	490	624	
1	0	0	0	0	490	623	
2	0	0	0	0	490	625	
3	0	0	0	0	491	625	
4	0	0	0	0	491	625	
5	0	0	0	0	491	627	
6	0	0	0	0	492	625	
7	0	0	0	0	492	625	
8	0	0	0	0	493	625	
9	0	0	0	0	494	623	
10	0	0	0	0	495	625	
11	0	0	0	0	495	624	
12	0	0	0	0	497	625	
13	0	0	0	0	497	626	
14	0	0	0	0	498	625	
15	0	0	0	0	498	625	
0	0	0	0	0	499	625	
1	0	0	0	0	500	623	
2	0	0	0	0	500	625	
3	0	0	0	0	500	625	
4	0	0	0	0	501	624	
5	0	0	0	0	501	625	
6	0	0	0	0	502	624	
7	0	0	0	0	502	624	
8	0	0	0	0	502	624	
9	0	0	0	0	502	622	
10	0	0	0	0	503	624	
11	0	0	0	0	503	624	
12	0	0	0	0	503	624	
13	0	0	0	0	504	626	
14	0	0	0	0	504	624	
15	0	0	0	0	504	624	
0	0	0	0	0	505	624	
1	0	0	0	0	507	623	
2	0	0	0	0	507	624	
3	0	0	0	0	507	625	
4	0	0	0	0	507	624	
5	0	0	0	0	508	626	
6	0	0	0	0	508	624	
7	0	0	0	0	508	624	
8	0	0	0	0	508	624	
9	0	0	0	0	508	621	
10	0	0	0	0	508	623	
11	0	0	0	0	508	623	
12	0	0	0	0	508	623	
13	0	0	0	0	508	625	
14	0	0	0	0	509	623	
15	0	0	0	0	509	622	
0	0	0	0	0	510	622	
1	0	0	0	0	511	620	
2	0	0	0	0	511	622	
3	0	0	0	0	512	621	
4	0	0	0	0	511	621	
5	0	0	0	0	512	622	
6	0	0	0	0	513	621	
7	0	0	0	0	513	621	
8	0	0	0	0	513	621	
9	0	0	0	0	514	618	
10	0	0	0	0	514	620	
11	0	0	0	0	514	620	
12	0	0	0	0	514	620	
13	0	0	0	0	514	621	
14	0	0	0	0	514	620	
15	0	0	0	0	514	620	
0	0	0	0	0	515	619	
1	0	0	0	0	515	617	
2	0	0	0	0	515	619	
3	0	0	0	0	515	619	
4	0	0	0	0	515	619	
5	0	0	0	0	515	620	
6	0	0	0	0	515	619	
7	0	0	0	0	515	619	
8	0	0	0	0	515	619	
9	0	0	0	0	515	617	
10	0	0	0	0	516	620	
11	0	0	0	0	516	620	
12	0	0	0	0	517	620	
13	0	0	0	0	517	622	
14	0	0	0	0	517	620	
15	0	0	0	0	518	620	
0	0	0	0	0	518	620	
1	0	0	0	0	519	619	
2	0	0	0	0	519	621	
3	0	0	0	0	520	621	
4	0	0	0	0	521	621	
5	0	0	0	0	521	623	
6	0	0	0	0	521	622	
7	0	0	0	0	522	622	
8	0	0	0	0	522	622	
9	0	0	0	0	522	620	
10	0	0	0	0	522	622	
11	0	0	0	0	523	622	
12	0	0	0	0	524	622	
13	0	0	0	0	524	623	
14	0	0	0	0	524	622	
15	0	0	0	0	524	622	
0	0	0	0	0	525	622	
1	0	0	0	0	526	620	
2	0	0	0	0	526	623	
3	0	0	0	0	527	623	
4	0	0	0	0	526	623	
5	0	0	0	0	527	624	
6	0	0	0	0	527	623	
7	0	0	0	0	527	623	
8	0	0	0	0	529	623	
9	0	0	0	0	529	621	
10	0	0	0	0	529	623	
11	0	0	0	0	530	624	
12	0	0	0	0	531	623	
13	0	0	0	0	532	625	
14	0	0	0	0	532	623	
15	0	0	0	0	532	623	
0	0	0	0	0	532	624	
1	0	0	0	0	532	622	
2	0	0	0	0	533	624	
3	0	0	0	0	533	624	
4	0	0	0	0	533	623	
5	0	0	0	0	532	625	
6	0	0	0	0	533	623	
7	0	0	0	0	534	623	
8	0	0	0	0	534	624	
9	0	0	0	0	534	621	
10	0	0	0	0	535	623	
11	0	0	0	0	534	624	
12	0	0	0	0	535	623	
13	0	0	0	0	535	625	
14	0	0	0	0	534	623	
15	0	0	0	0	533	622	
0	0	0	0	0	534	622	
1	0	0	0	0	534	621	
2	0	0	0	0	535	623	
3	0	0	0	0	535	622	
4	0	0	0	0	535	622	
5	0	0	0	0	535	624	
6	0	0	0	0	536	622	
7	0	0	0	0	536	622	
8	0	0	0	0	535	622	
9	0	0	0	0	535	620	
10	0	0	0	0	534	622	
11	0	0	0	0	534	622	
12	0	0	0	0	533	622	
13	0	0	0	0	532	624	
14	0	0	0	0	532	622	
15	0	0	0	0	531	621	
0	0	0	0	0	531	622	
1	0	0	0	0	531	620	
2	0	0	0	0	530	622	
3	0	0	0	0	529	622	
4	0	0	0	0	529	621	
5	0	0	0	0	528	623	
6	0	0	0	0	527	622	
7	0	0	0	0	526	622	
8	0	0	0	0	525	622	
9	0	0	0	0	524	620	
10	0	0	0	0	524	622	
11	0	0	0	0	524	621	
12	0	0	0	0	524	622	
13	0	0	0	0	524	623	
14	0	0	0	0	524	622	
15	0	0	0	0	525	622	
0	0	0	0	0	525	622	
1	0	0	0	0	524	620	
2	0	0	0	0	524	622	
3	0	0	0	0	524	622	
4	0	0	0	0	524	623	
5	0	0	0	0	524	624	
6	0	0	0	0	524	623	
7	0	0	0	0	524	623	
8	0	0	0	0	524	624	
9	0	0	0	0	524	621	
10	0	0	0	0	523	623	
11	0	0	0	0	521	623	
12	0	0	0	0	520	623	
13	0	0	0	0	520	624	
14	0	0	0	0	520	623	
15	0	0	0	0	518	623	
0	0	0	0	0	518	623	
1	0	0	0	0	518	622	
2	0	0	0	0	518	624	
3	0	0	0	0	518	624	
4	0	0	0	0	517	624	
5	0	0	0	0	516	626	
6	0	0	0	0	515	624	
7	0	0	0	0	515	624	
8	0	0	0	0	515	624	
9	0	0	0	0	513	623	
10	0	0	0	0	512	624	
11	0	0	0	0	512	624	
12	0	0	0	0	511	625	
13	0	0	0	0	511	626	
14	0	0	0	0	510	625	
15	0	0	0	0	509	625	
0	0	0	0	0	509	625	
1	0	0	0	0	509	623	
2	0	0	0	0	508	625	
3	0	0	0	0	507	624	
4	0	0	0	0	507	625	
5	0	0	0	0	507	627	
6	0	0	0	0	506	625	
7	0	0	0	0	506	625	
8	0	0	0	0	505	625	
9	0	0	0	0	504	624	
10	0	0	0	0	504	626	
11	0	0	0	0	504	625	
12	0	0	0	0	504	625	
13	0	0	0	0	504	627	
14	0	0	0	0	504	625	
15	0	0	0	0	504	625	
0	0	0	0	0	504	625	
1	0	0	0	0	504	623	
2	0	0	0	0	504	624	
3	0	0	0	0	504	624	
4	0	0	0	0	504	624	
5	0	0	0	0	504	626	
6	0	0	0	0	504	624	
7	0	0	0	0	503	624	
8	0	0	0	0	503	623	
9	0	0	0	0	503	621	
10	0	0	0	0	502	623	
11	0	0	0	0	503	623	
12	0	0	0	0	503	623	
13	0	0	0	0	504	624	
14	0	0	0	0	504	623	
15	0	0	0	0	504	623	
0	0	0	0	0	503	623	
1	0	0	0	0	502	621	
2	0	0	0	0	501	622	
3	0	0	0	0	499	622	
4	0	0	0	0	498	621	
5	0	0	0	0	498	623	
6	0	0	0	0	498	621	
7	0	0	0	0	498	622	
8	0	0	0	0	499	622	
9	0	0	0	0	499	620	
10	0	0	0	0	500	622	
11	0	0	0	0	500	621	
12	0	0	0	0	500	621	
13	0	0	0	0	500	623	
14	0	0	0	0	501	622	
15	0	0	0	0	502	621	
0	0	0	0	0	503	621	
1	0	0	0	0	504	620	
2	0	0	0	0	504	621	
3	0	0	0	0	504	622	
4	0	0	0	0	504	622	
5	0	0	0	0	503	624	
6	0	0	0	0	505	621	
7	0	0	0	0	506	621	
8	0	0	0	0	507	622	
9	0	0	0	0	508	619	
10	0	0	0	0	508	622	
11	0	0	0	0	509	621	
12	0	0	0	0	508	621	
13	0	0	0	0	508	623	
14	0	0	0	0	508	621	
15	0	0	0	0	509	622	
0	0	0	0	0	509	623	
1	0	0	0	0	509	620	
2	0	0	0	0	509	622	
3	0	0	0	0	509	622	
4	0	0	0	0	509	623	
5	0	0	0	0	511	624	
6	0	0	0	0	511	623	
7	0	0	0	0	510	623	
8	0	0	0	0	510	623	
9	0	0	0	0	509	621	
10	0	0	0	0	509	623	
11	0	0	0	0	510	623	
12	0	0	0	0	509	623	
13	0	0	0	0	509	625	
14	0	0	0	0	509	623	
15	0	0	0	0	509	624	
0	0	0	0	0	509	624	
1	0	0	0	0	508	622	
2	0	0	0	0	508	625	
3	0	0	0	0	508	624	
4	0	0	0	0	508	623	
5	0	0	0	0	509	625	
6	0	0	0	0	509	624	
7	0	0	0	0	509	624	
8	0	0	0	0	509	624	
9	0	0	0	0	509	622	
10	0	0	0	0	508	623	
11	0	0	0	0	508	624	
12	0	0	0	0	508	624	
13	0	0	0	0	509	625	
14	0	0	0	0	509	624	
15	0	0	0	0	510	624	
0	0	0	0	0	510	623	
1	0	0	0	0	510	621	
2	0	0	0	0	509	623	
3	0	0	0	0	508	622	
4	0	0	0	0	508	623	
5	0	0	0	0	508	624	
6	0	0	0	0	508	623	
7	0	0	0	0	507	623	
8	0	0	0	0	508	623	
9	0	0	0	0	508	621	
10	0	0	0	0	508	622	
11	0	0	0	0	507	622	
12	0	0	0	0	507	622	
13	0	0	0	0	507	624	
14	0	0	0	0	507	623	
15	0	0	0	0	506	622	
0	0	0	0	0	506	623	
1	0	0	0	0	506	620	
2	0	0	0	0	506	622	
3	0	0	0	0	506	623	
4	0	0	0	0	506	622	
5	0	0	0	0	506	624	
6	0	0	0	0	505	622	
7	0	0	0	0	505	623	
8	0	0	0	0	504	623	
9	0	0	0	0	504	621	
10	0	0	0	0	503	622	
11	0	0	0	0	502	623	
12	0	0	0	0	502	623	
13	0	0	0	0	502	624	
14	0	0	0	0	502	623	
15	0	0	0	0	502	623	
0	0	0	0	0	501	623	
1	0	0	0	0	500	621	
2	0	0	0	0	500	622	
3	0	0	0	0	499	622	
4	0	0	0	0	499	623	
5	0	0	0	0	499	624	
6	0	0	0	0	499	623	
7	0	0	0	0	499	623	
8	0	0	0	0	498	623	
9	0	0	0	0	499	621	
10	0	0	0	0	499	623	
11	0	0	0	0	500	623	
12	0	0	0	0	501	624	
13	0	0	0	0	501	625	
14	0	0	0	0	502	624	
15	0	0	0	0	502	624	
0	0	0	0	0	502	624	
1	0	0	0	0	501	622	
2	0	0	0	0	502	624	
3	0	0	0	0	504	624	
4	0	0	0	0	504	624	
5	0	0	0	0	505	625	
6	0	0	0	0	505	623	
7	0	0	0	0	506	625	
8	0	0	0	0	507	624	
9	0	0	0	0	508	623	
10	0	0	0	0	508	625	
11	0	0	0	0	508	625	
12	0	0	0	0	507	625	
13	0	0	0	0	506	626	
14	0	0	0	0	506	625	
15	0	0	0	0	506	625	
0	0	0	0	0	506	624	
1	0	0	0	0	505	623	
2	0	0	0	0	506	625	
3	0	0	0	0	506	625	
4	0	0	0	0	505	625	
5	0	0	0	0	505	626	
6	0	0	0	0	505	624	
7	0	0	0	0	505	625	
8	0	0	0	0	505	624	
9	0	0	0	0	505	623	
10	0	0	0	0	505	625	
11	0	0	0	0	505	624	
12	0	0	0	0	505	624	
13	0	0	0	0	505	626	
14	0	0	0	0	505	624	
15	0	0	0	0	505	624	
0	0	0	0	0	505	624	
1	0	0	0	0	505	622	
2	0	0	0	0	505	623	
3	0	0	0	0	506	624	
4	0	0	0	0	506	624	
5	0	0	0	0	507	625	
6	0	0	0	0	507	623	
7	0	0	0	0	508	623	
8	0	0	0	0	508	623	
9	0	0	0	0	508	621	
10	0	0	0	0	508	623	
11	0	0	0	0	509	623	
12	0	0	0	0	508	622	
13	0	0	0	0	508	624	
14	0	0	0	0	507	622	
15	0	0	0	0	507	623	
0	0	0	0	0	506	622	
1	0	0	0	0	507	620	
2	0	0	0	0	507	623	
3	0	0	0	0	506	622	
4	0	0	0	0	506	623	
5	0	0	0	0	505	624	
6	0	0	0	0	506	622	
7	0	0	0	0	507	622	
8	0	0	0	0	508	622	
9	0	0	0	0	509	620	
10	0	0	0	0	510	622	
11	0	0	0	0	509	622	
12	0	0	0	0	508	622	
13	0	0	0	0	508	624	
14	0	0	0	0	508	622	
15	0	0	0	0	509	622	
0	0	0	0	0	509	623	
1	0	0	0	0	508	620	
2	0	0	0	0	508	622	
3	0	0	0	0	508	623	
4	0	0	0	0	508	622	
5	0	0	0	0	507	624	
6	0	0	0	0	508	623	
7	0	0	0	0	508	622	
8	0	0	0	0	507	622	
9	0	0	0	0	507	621	
10	0	0	0	0	507	622	
11	0	0	0	0	507	622	
12	0	0	0	0	507	622	
13	0	0	0	0	506	624	
14	0	0	0	0	507	623	
15	0	0	0	0	507	623	
0	0	0	0	0	507	622	
1	0	0	0	0	507	620	
2	0	0	0	0	507	622	
3	0	0	0	0	508	622	
4	0	0	0	0	508	622	
5	0	0	0	0	506	623	
6	0	0	0	0	504	622	
7	0	0	0	0	500	622	
8	0	0	0	0	497	622	
9	0	0	0	0	492	621	
10	0	0	0	0	487	622	
11	0	0	0	0	483	622	
12	0	0	0	0	480	622	
13	0	0	0	0	479	624	
14	0	0	0	0	476	622	
15	0	0	0	0	475	622	
0	0	0	0	0	474	623	
1	0	0	0	0	472	621	
2	0	0	0	0	471	622	
3	0	0	0	0	471	622	
4	0	0	0	0	472	622	
5	0	0	0	0	477	624	
6	0	0	0	0	486	623	
7	0	0	0	0	497	623	
8	0	0	0	0	511	623	
9	0	0	0	0	529	621	
10	0	0	0	0	548	623	
11	0	0	0	0	567	623	
12	0	0	0	0	585	623	
13	0	0	0	0	604	625	
14	0	0	0	0	622	623	
15	0	0	0	0	640	623	
0	0	0	0	0	655	623	
1	0	0	0	0	665	621	
2	0	0	0	0	675	623	
3	0	0	0	0	683	623	
4	0	0	0	0	688	623	
5	0	0	0	0	691	624	
6	0	0	0	0	694	623	
7	0	0	0	0	693	623	
8	0	0	0	0	687	623	
9	0	0	0	0	679	620	
10	0	0	0	0	670	623	
11	0	0	0	0	659	624	
12	0	0	0	0	643	623	
13	0	0	0	0	627	624	
14	0	0	0	0	608	623	
15	0	0	0	0	590	622	
0	0	0	0	0	574	623	
1	0	0	0	0	561	621	
2	0	0	0	0	550	623	
3	0	0	0	0	541	623	
4	0	0	0	0	532	623	
5	0	0	0	0	525	625	
6	0	0	0	0	519	623	
7	0	0	0	0	512	623	
8	0	0	0	0	508	623	
9	0	0	0	0	503	622	
10	0	0	0	0	498	624	
11	0	0	0	0	494	624	
12	0	0	0	0	491	624	
13	0	0	0	0	488	625	
14	0	0	0	0	486	624	
15	0	0	0	0	483	623	
0	0	0	0	0	481	624	
1	0	0	0	0	479	622	
2	0	0	0	0	478	624	
3	0	0	0	0	476	624	
4	0	0	0	0	475	624	
5	0	0	0	0	474	625	
6	0	0	0	0	473	623	
7	0	0	0	0	473	623	
8	0	0	0	0	472	623	
9	0	0	0	0	473	622	
10	0	0	0	0	472	623	
11	0	0	0	0	472	623	
12	0	0	0	0	472	623	
13	0	0	0	0	473	624	
14	0	0	0	0	473	623	
15	0	0	0	0	473	623	
0	0	0	0	0	473	623	
1	0	0	0	0	473	620	
2	0	0	0	0	473	623	
3	0	0	0	0	474	622	
4	0	0	0	0	475	622	
5	0	0	0	0	476	624	
6	0	0	0	0	476	622	
7	0	0	0	0	476	622	
8	0	0	0	0	477	622	
9	0	0	0	0	479	620	
10	0	0	0	0	479	622	
11	0	0	0	0	480	622	
12	0	0	0	0	479	621	
13	0	0	0	0	479	624	
14	0	0	0	0	478	622	
15	0	0	0	0	479	622	
0	0	0	0	0	479	621	
1	0	0	0	0	478	620	
2	0	0	0	0	479	622	
3	0	0	0	0	479	621	
4	0	0	0	0	479	621	
5	0	0	0	0	479	623	
6	0	0	0	0	479	621	
7	0	0	0	0	480	621	
8	0	0	0	0	480	621	
9	0	0	0	0	480	620	
10	0	0	0	0	480	621	
11	0	0	0	0	480	621	
12	0	0	0	0	479	621	
13	0	0	0	0	479	623	
14	0	0	0	0	479	621	
15	0	0	0	0	480	621	
0	0	0	0	0	480	622	
1	0	0	0	0	480	619	
2	0	0	0	0	480	622	
3	0	0	0	0	481	621	
4	0	0	0	0	481	621	
5	0	0	0	0	482	624	
6	0	0	0	0	483	622	
7	0	0	0	0	482	622	
8	0	0	0	0	482	622	
9	0	0	0	0	483	620	
10	0	0	0	0	483	622	
11	0	0	0	0	484	623	
12	0	0	0	0	484	623	
13	0	0	0	0	486	625	
14	0	0	0	0	486	623	
15	0	0	0	0	486	623	
0	0	0	0	0	486	623	
1	0	0	0	0	486	622	
2	0	0	0	0	486	624	
3	0	0	0	0	487	624	
4	0	0	0	0	487	623	
5	0	0	0	0	487	625	
6	0	0	0	0	487	624	
7	0	0	0	0	487	623	
8	0	0	0	0	487	623	
9	0	0	0	0	487	621	
10	0	0	0	0	487	624	
11	0	0	0	0	487	623	
12	0	0	0	0	487	623	
13	0	0	0	0	487	625	
14	0	0	0	0	487	623	
15	0	0	0	0	487	623	
0	0	0	0	0	487	623	
1	0	0	0	0	488	621	
2	0	0	0	0	488	622	
3	0	0	0	0	488	622	
4	0	0	0	0	488	623	
5	0	0	0	0	488	624	
6	0	0	0	0	488	623	
7	0	0	0	0	488	622	
8	0	0	0	0	489	622	
9	0	0	0	0	489	620	
10	0	0	0	0	490	622	
11	0	0	0	0	490	622	
12	0	0	0	0	491	622	
13	0	0	0	0	491	624	
14	0	0	0	0	491	622	
15	0	0	0	0	491	622	
0	0	0	0	0	492	622	
1	0	0	0	0	494	620	
2	0	0	0	0	494	622	
3	0	0	0	0	494	622	
4	0	0	0	0	494	622	
5	0	0	0	0	494	624	
6	0	0	0	0	494	622	
7	0	0	0	0	495	623	
8	0	0	0	0	496	622	
9	0	0	0	0	496	620	
10	0	0	0	0	496	623	
11	0	0	0	0	496	623	
12	0	0	0	0	496	622	
13	0	0	0	0	496	625	
14	0	0	0	0	497	623	
15	0	0	0	0	497	623	
0	0	0	0	0	497	623	
1	0	0	0	0	498	620	
2	0	0	0	0	498	622	
3	0	0	0	0	499	623	
4	0	0	0	0	499	622	
5	0	0	0	0	499	624	
6	0	0	0	0	500	622	
7	0	0	0	0	500	622	
8	0	0	0	0	500	623	
9	0	0	0	0	500	621	
10	0	0	0	0	501	623	
11	0	0	0	0	501	623	
12	0	0	0	0	501	623	
13	0	0	0	0	502	624	
14	0	0	0	0	502	623	
15	0	0	0	0	503	623	
0	0	0	0	0	504	623	
1	0	0	0	0	504	621	
2	0	0	0	0	505	624	
3	0	0	0	0	505	624	
4	0	0	0	0	506	623	
5	0	0	0	0	506	625	
6	0	0	0	0	507	623	
7	0	0	0	0	507	624	
8	0	0	0	0	508	623	
9	0	0	0	0	508	622	
10	0	0	0	0	509	623	
11	0	0	0	0	510	624	
12	0	0	0	0	511	624	
13	0	0	0	0	511	626	
14	0	0	0	0	511	624	
15	0	0	0	0	512	624	
0	0	0	0	0	512	624	
1	0	0	0	0	511	623	
2	0	0	0	0	511	625	
3	0	0	0	0	511	624	
4	0	0	0	0	511	625	
5	0	0	0	0	511	627	
6	0	0	0	0	510	625	
7	0	0	0	0	509	624	
8	0	0	0	0	509	625	
9	0	0	0	0	509	623	
10	0	0	0	0	508	625	
11	0	0	0	0	508	625	
12	0	0	0	0	508	625	
13	0	0	0	0	508	627	
14	0	0	0	0	508	625	
15	0	0	0	0	507	625	
0	0	0	0	0	508	625	
1	0	0	0	0	508	623	
2	0	0	0	0	508	625	
3	0	0	0	0	508	625	
4	0	0	0	0	508	625	
5	0	0	0	0	507	627	
6	0	0	0	0	506	625	
7	0	0	0	0	506	625	
8	0	0	0	0	505	625	
9	0	0	0	0	505	622	
10	0	0	0	0	505	624	
11	0	0	0	0	504	624	
12	0	0	0	0	503	624	
13	0	0	0	0	503	626	
14	0	0	0	0	504	625	
15	0	0	0	0	503	625	
0	0	0	0	0	502	624	
1	0	0	0	0	501	622	
2	0	0	0	0	500	624	
3	0	0	0	0	499	624	
4	0	0	0	0	498	624	
5	0	0	0	0	498	625	
6	0	0	0	0	498	624	
7	0	0	0	0	497	624	
8	0	0	0	0	498	624	
9	0	0	0	0	497	622	
10	0	0	0	0	497	624	
11	0	0	0	0	497	624	
12	0	0	0	0	496	624	
13	0	0	0	0	496	626	
14	0	0	0	0	496	624	
15	0	0	0	0	496	624	
0	0	0	0	0	495	624	
1	0	0	0	0	495	622	
2	0	0	0	0	494	624	
3	0	0	0	0	494	624	
4	0	0	0	0	494	624	
5	0	0	0	0	493	626	
6	0	0	0	0	492	624	
7	0	0	0	0	491	624	
8	0	0	0	0	490	625	
9	0	0	0	0	489	622	
10	0	0	0	0	488	624	
11	0	0	0	0	487	624	
12	0	0	0	0	487	624	
13	0	0	0	0	486	626	
14	0	0	0	0	486	624	
15	0	0	0	0	484	623	
0	0	0	0	0	484	623	
1	0	0	0	0	484	621	
2	0	0	0	0	484	623	
3	0	0	0	0	484	623	
4	0	0	0	0	485	623	
5	0	0	0	0	484	625	
6	0	0	0	0	484	624	
7	0	0	0	0	483	623	
8	0	0	0	0	483	624	
9	0	0	0	0	482	622	
10	0	0	0	0	482	624	
11	0	0	0	0	481	624	
12	0	0	0	0	481	624	
13	0	0	0	0	480	625	
14	0	0	0	0	480	624	
15	0	0	0	0	480	623	
0	0	0	0	0	479	623	
1	0	0	0	0	479	621	
2	0	0	0	0	479	623	
3	0	0	0	0	479	622	
4	0	0	0	0	478	622	
5	0	0	0	0	479	624	
6	0	0	0	0	478	622	
7	0	0	0	0	479	622	
8	0	0	0	0	479	622	
9	0	0	0	0	479	619	
10	0	0	0	0	479	621	
11	0	0	0	0	478	620	
12	0	0	0	0	478	621	
13	0	0	0	0	478	622	
14	0	0	0	0	478	621	
15	0	0	0	0	478	621	
0	0	0	0	0	477	620	
1	0	0	0	0	477	619	
2	0	0	0	0	477	621	
3	0	0	0	0	478	621	
4	0	0	0	0	477	620	
5	0	0	0	0	477	622	
6	0	0	0	0	477	620	
7	0	0	0	0	477	620	
8	0	0	0	0	478	620	
9	0	0	0	0	479	619	
10	0	0	0	0	480	620	
11	0	0	0	0	480	621	
12	0	0	0	0	481	621	
13	0	0	0	0	483	622	
14	0	0	0	0	483	620	
15	0	0	0	0	483	621	
0	0	0	0	0	484	620	
1	0	0	0	0	484	619	
2	0	0	0	0	485	621	
3	0	0	0	0	486	620	
4	0	0	0	0	486	621	
5	0	0	0	0	486	622	
6	0	0	0	0	486	621	
7	0	0	0	0	485	621	
8	0	0	0	0	486	621	
9	0	0	0	0	486	619	
10	0	0	0	0	486	622	
11	0	0	0	0	486	622	
12	0	0	0	0	486	621	
13	0	0	0	0	486	624	
14	0	0	0	0	485	622	
15	0	0	0	0	484	622	
0	0	0	0	0	484	623	
1	0	0	0	0	485	620	
2	0	0	0	0	486	622	
3	0	0	0	0	486	622	
4	0	0	0	0	486	622	
5	0	0	0	0	486	624	
6	0	0	0	0	487	622	
7	0	0	0	0	487	622	
8	0	0	0	0	487	622	
9	0	0	0	0	488	620	
10	0	0	0	0	489	623	
11	0	0	0	0	489	622	
12	0	0	0	0	489	623	
13	0	0	0	0	489	624	
14	0	0	0	0	489	622	
15	0	0	0	0	488	622	
0	0	0	0	0	488	623	
1	0	0	0	0	488	621	
2	0	0	0	0	488	622	
3	0	0	0	0	488	622	
4	0	0	0	0	488	621	
5	0	0	0	0	488	623	
6	0	0	0	0	488	621	
7	0	0	0	0	488	621	
8	0	0	0	0	488	621	
9	0	0	0	0	489	619	
10	0	0	0	0	490	621	
11	0	0	0	0	491	621	
12	0	0	0	0	490	621	
13	0	0	0	0	489	623	
14	0	0	0	0	489	621	
15	0	0	0	0	489	621	
0	0	0	0	0	488	621	
1	0	0	0	0	488	619	
2	0	0	0	0	489	621	
3	0	0	0	0	488	621	
4	0	0	0	0	488	621	
5	0	0	0	0	488	622	
6	0	0	0	0	488	621	
7	0	0	0	0	487	620	
8	0	0	0	0	487	621	
9	0	0	0	0	488	618	
10	0	0	0	0	488	620	
11	0	0	0	0	489	621	
12	0	0	0	0	489	621	
13	0	0	0	0	489	623	
14	0	0	0	0	489	621	
15	0	0	0	0	489	622	
0	0	0	0	0	489	621	
1	0	0	0	0	488	620	
2	0	0	0	0	487	622	
3	0	0	0	0	487	623	
4	0	0	0	0	487	622	
5	0	0	0	0	487	624	
6	0	0	0	0	487	623	
7	0	0	0	0	487	622	
8	0	0	0	0	487	623	
9	0	0	0	0	486	621	
10	0	0	0	0	486	623	
11	0	0	0	0	485	624	
12	0	0	0	0	485	623	
13	0	0	0	0	484	625	
14	0	0	0	0	484	624	
15	0	0	0	0	484	624	
0	0	0	0	0	483	625	
1	0	0	0	0	483	623	
2	0	0	0	0	483	624	
3	0	0	0	0	482	625	
4	0	0	0	0	482	625	
5	0	0	0	0	482	627	
6	0	0	0	0	482	625	
7	0	0	0	0	482	625	
8	0	0	0	0	483	625	
9	0	0	0	0	483	624	
10	0	0	0	0	483	625	
11	0	0	0	0	483	625	
12	0	0	0	0	484	624	
13	0	0	0	0	485	627	
14	0	0	0	0	486	624	
15	0	0	0	0	486	624	
0	0	0	0	0	486	625	
1	0	0	0	0	486	622	
2	0	0	0	0	487	625	
3	0	0	0	0	487	625	
4	0	0	0	0	488	624	
5	0	0	0	0	488	626	
6	0	0	0	0	488	624	
7	0	0	0	0	489	624	
8	0	0	0	0	490	624	
9	0	0	0	0	490	623	
10	0	0	0	0	490	624	
11	0	0	0	0	489	624	
12	0	0	0	0	490	624	
13	0	0	0	0	489	625	
14	0	0	0	0	490	624	
15	0	0	0	0	489	624	
0	0	0	0	0	490	624	
1	0	0	0	0	491	623	
2	0	0	0	0	491	624	
3	0	0	0	0	492	624	
4	0	0	0	0	492	623	
5	0	0	0	0	491	625	
6	0	0	0	0	491	624	
7	0	0	0	0	491	623	
8	0	0	0	0	491	623	
9	0	0	0	0	490	620	
10	0	0	0	0	490	622	
11	0	0	0	0	490	622	
12	0	0	0	0	491	622	
13	0	0	0	0	492	623	
14	0	0	0	0	492	622	
15	0	0	0	0	494	622	
0	0	0	0	0	495	622	
1	0	0	0	0	495	620	
2	0	0	0	0	495	622	
3	0	0	0	0	496	622	
4	0	0	0	0	496	622	
5	0	0	0	0	496	624	
6	0	0	0	0	497	622	
7	0	0	0	0	498	622	
8	0	0	0	0	498	622	
9	0	0	0	0	497	620	
10	0	0	0	0	498	622	
11	0	0	0	0	497	622	
12	0	0	0	0	497	622	
13	0	0	0	0	497	624	
14	0	0	0	0	497	622	
15	0	0	0	0	497	622	
0	0	0	0	0	497	622	
1	0	0	0	0	497	621	
2	0	0	0	0	497	622	
3	0	0	0	0	496	622	
4	0	0	0	0	497	622	
5	0	0	0	0	497	624	
6	0	0	0	0	498	622	
7	0	0	0	0	498	622	
8	0	0	0	0	499	623	
9	0	0	0	0	500	620	
10	0	0	0	0	500	622	
11	0	0	0	0	500	623	
12	0	0	0	0	501	622	
13	0	0	0	0	500	624	
14	0	0	0	0	500	622	
15	0	0	0	0	499	622	
0	0	0	0	0	499	622	
1	0	0	0	0	499	620	
2	0	0	0	0	499	622	
3	0	0	0	0	499	623	
4	0	0	0	0	499	622	
5	0	0	0	0	499	625	
6	0	0	0	0	499	623	
7	0	0	0	0	498	623	
8	0	0	0	0	498	624	
9	0	0	0	0	498	622	
10	0	0	0	0	498	624	
11	0	0	0	0	498	624	
12	0	0	0	0	497	624	
13	0	0	0	0	497	625	
14	0	0	0	0	498	624	
15	0	0	0	0	498	623	
0	0	0	0	0	498	623	
1	0	0	0	0	498	621	
2	0	0	0	0	498	623	
3	0	0	0	0	498	623	
4	0	0	0	0	497	623	
5	0	0	0	0	496	625	
6	0	0	0	0	494	623	
7	0	0	0	0	491	623	
8	0	0	0	0	487	623	
9	0	0	0	0	482	621	
10	0	0	0	0	478	623	
11	0	0	0	0	473	623	
12	0	0	0	0	469	624	
13	0	0	0	0	467	625	
14	0	0	0	0	465	624	
15	0	0	0	0	464	623	
0	0	0	0	0	462	624	
1	0	0	0	0	461	622	
2	0	0	0	0	459	623	
3	0	0	0	0	458	624	
4	0	0	0	0	459	624	
5	0	0	0	0	464	626	
6	0	0	0	0	473	624	
7	0	0	0	0	485	624	
8	0	0	0	0	499	624	
9	0	0	0	0	517	622	
10	0	0	0	0	537	624	
11	0	0	0	0	558	624	
12	0	0	0	0	577	624	
13	0	0	0	0	596	625	
14	0	0	0	0	615	624	
15	0	0	0	0	632	624	
0	0	0	0	0	646	624	
1	0	0	0	0	658	622	
2	0	0	0	0	669	624	
3	0	0	0	0	679	624	
4	0	0	0	0	687	624	
5	0	0	0	0	692	626	
6	0	0	0	0	697	625	
7	0	0	0	0	697	624	
8	0	0	0	0	693	624	
9	0	0	0	0	685	622	
10	0	0	0	0	675	625	
11	0	0	0	0	662	624	
12	0	0	0	0	646	624	
13	0	0	0	0	628	626	
14	0	0	0	0	609	624	
15	0	0	0	0	589	624	
0	0	0	0	0	571	624	
1	0	0	0	0	557	622	
2	0	0	0	0	545	624	
3	0	0	0	0	535	623	
4	0	0	0	0	525	624	
5	0	0	0	0	516	625	
6	0	0	0	0	508	623	
7	0	0	0	0	501	624	
8	0	0	0	0	496	623	
9	0	0	0	0	492	622	
10	0	0	0	0	488	624	
11	0	0	0	0	485	624	
12	0	0	0	0	481	624	
13	0	0	0	0	478	625	
14	0	0	0	0	476	624	
15	0	0	0	0	474	623	
0	0	0	0	0	472	624	
1	0	0	0	0	471	621	
2	0	0	0	0	468	623	
3	0	0	0	0	467	623	
4	0	0	0	0	466	624	
5	0	0	0	0	465	625	
6	0	0	0	0	464	623	
7	0	0	0	0	463	623	
8	0	0	0	0	463	624	
9	0	0	0	0	463	622	
10	0	0	0	0	463	624	
11	0	0	0	0	463	624	
12	0	0	0	0	463	624	
13	0	0	0	0	464	626	
14	0	0	0	0	465	624	
15	0	0	0	0	465	624	
0	0	0	0	0	465	624	
1	0	0	0	0	464	622	
2	0	0	0	0	464	624	
3	0	0	0	0	463	624	
4	0	0	0	0	463	624	
5	0	0	0	0	463	626	
6	0	0	0	0	463	624	
7	0	0	0	0	464	625	
8	0	0	0	0	465	624	
9	0	0	0	0	466	623	
10	0	0	0	0	467	624	
11	0	0	0	0	468	624	
12	0	0	0	0	469	623	
13	0	0	0	0	470	625	
14	0	0	0	0	470	623	
15	0	0	0	0	471	624	
0	0	0	0	0	470	624	
1	0	0	0	0	470	621	
2	0	0	0	0	470	624	
3	0	0	0	0	471	624	
4	0	0	0	0	472	623	
5	0	0	0	0	471	625	
6	0	0	0	0	471	624	
7	0	0	0	0	471	623	
8	0	0	0	0	472	623	
9	0	0	0	0	473	621	
10	0	0	0	0	473	622	
11	0	0	0	0	474	623	
12	0	0	0	0	475	623	
13	0	0	0	0	475	624	
14	0	0	0	0	475	623	
15	0	0	0	0	475	623	
0	0	0	0	0	475	622	
1	0	0	0	0	476	620	
2	0	0	0	0	477	622	
3	0	0	0	0	477	622	
4	0	0	0	0	477	622	
5	0	0	0	0	478	624	
6	0	0	0	0	478	622	
7	0	0	0	0	478	623	
8	0	0	0	0	478	623	
9	0	0	0	0	478	621	
10	0	0	0	0	478	623	
11	0	0	0	0	478	622	
12	0	0	0	0	478	623	
13	0	0	0	0	477	625	
14	0	0	0	0	478	623	
15	0	0	0	0	478	622	
0	0	0	0	0	479	622	
1	0	0	0	0	478	621	
2	0	0	0	0	478	622	
3	0	0	0	0	478	623	
4	0	0	0	0	479	622	
5	0	0	0	0	479	624	
6	0	0	0	0	480	622	
7	0	0	0	0	480	622	
8	0	0	0	0	481	621	
9	0	0	0	0	481	619	
10	0	0	0	0	481	620	
11	0	0	0	0	481	621	
12	0	0	0	0	481	620	
13	0	0	0	0	482	622	
14	0	0	0	0	483	620	
15	0	0	0	0	483	620	
0	0	0	0	0	483	620	
1	0	0	0	0	483	618	
2	0	0	0	0	484	620	
3	0	0	0	0	484	620	
4	0	0	0	0	485	620	
5	0	0	0	0	486	622	
6	0	0	0	0	486	620	
7	0	0	0	0	487	620	
8	0	0	0	0	487	620	
9	0	0	0	0	488	618	
10	0	0	0	0	487	620	
11	0	0	0	0	487	620	
12	0	0	0	0	487	619	
13	0	0	0	0	488	621	
14	0	0	0	0	489	620	
15	0	0	0	0	489	620	
0	0	0	0	0	489	620	
1	0	0	0	0	488	619	
2	0	0	0	0	489	620	
3	0	0	0	0	489	621	
4	0	0	0	0	491	620	
5	0	0	0	0	491	622	
6	0	0	0	0	491	621	
7	0	0	0	0	492	622	
8	0	0	0	0	493	622	
9	0	0	0	0	494	620	
10	0	0	0	0	494	622	
11	0	0	0	0	494	622	
12	0	0	0	0	494	622	
13	0	0	0	0	494	624	
14	0	0	0	0	494	622	
15	0	0	0	0	495	622	
0	0	0	0	0	495	622	
1	0	0	0	0	495	620	
2	0	0	0	0	495	622	
3	0	0	0	0	496	622	
4	0	0	0	0	497	622	
5	0	0	0	0	498	623	
6	0	0	0	0	498	622	
7	0	0	0	0	499	623	
8	0	0	0	0	500	623	
9	0	0	0	0	499	621	
10	0	0	0	0	501	623	
11	0	0	0	0	500	623	
12	0	0	0	0	500	623	
13	0	0	0	0	501	624	
14	0	0	0	0	501	623	
15	0	0	0	0	500	624	
0	0	0	0	0	500	624	
1	0	0	0	0	501	622	
2	0	0	0	0	502	624	
3	0	0	0	0	502	623	
4	0	0	0	0	502	623	
5	0	0	0	0	503	625	
6	0	0	0	0	504	624	
7	0	0	0	0	505	624	
8	0	0	0	0	505	624	
9	0	0	0	0	505	621	
10	0	0	0	0	506	623	
11	0	0	0	0	507	623	
12	0	0	0	0	508	623	
13	0	0	0	0	508	625	
14	0	0	0	0	509	623	
15	0	0	0	0	509	624	
0	0	0	0	0	509	624	
1	0	0	0	0	509	621	
2	0	0	0	0	509	623	
3	0	0	0	0	509	623	
4	0	0	0	0	510	623	
5	0	0	0	0	510	625	
6	0	0	0	0	511	623	
7	0	0	0	0	511	623	
8	0	0	0	0	510	623	
9	0	0	0	0	510	620	
10	0	0	0	0	510	623	
11	0	0	0	0	510	622	
12	0	0	0	0	510	623	
13	0	0	0	0	510	624	
14	0	0	0	0	510	622	
15	0	0	0	0	510	622	
0	0	0	0	0	509	623	
1	0	0	0	0	510	621	
2	0	0	0	0	510	622	
3	0	0	0	0	509	623	
4	0	0	0	0	510	623	
5	0	0	0	0	510	624	
6	0	0	0	0	510	622	
7	0	0	0	0	510	622	
8	0	0	0	0	509	622	
9	0	0	0	0	508	620	
10	0	0	0	0	508	622	
11	0	0	0	0	508	622	
12	0	0	0	0	508	622	
13	0	0	0	0	508	624	
14	0	0	0	0	508	623	
15	0	0	0	0	508	623	
0	0	0	0	0	508	622	
1	0	0	0	0	507	620	
2	0	0	0	0	507	623	
3	0	0	0	0	507	623	
4	0	0	0	0	506	623	
5	0	0	0	0	506	624	
6	0	0	0	0	506	623	
7	0	0	0	0	507	624	
8	0	0	0	0	507	624	
9	0	0	0	0	507	622	
10	0	0	0	0	506	624	
11	0	0	0	0	506	624	
12	0	0	0	0	506	624	
13	0	0	0	0	505	625	
14	0	0	0	0	505	624	
15	0	0	0	0	505	624	
0	0	0	0	0	504	624	
1	0	0	0	0	504	622	
2	0	0	0	0	504	624	
3	0	0	0	0	503	625	
4	0	0	0	0	502	624	
5	0	0	0	0	501	626	
6	0	0	0	0	500	624	
7	0	0	0	0	499	625	
8	0	0	0	0	499	624	
9	0	0	0	0	498	623	
10	0	0	0	0	497	625	
11	0	0	0	0	496	625	
12	0	0	0	0	496	625	
13	0	0	0	0	495	627	
14	0	0	0	0	495	625	
15	0	0	0	0	494	625	
0	0	0	0	0	494	625	
1	0	0	0	0	493	624	
2	0	0	0	0	493	625	
3	0	0	0	0	493	625	
4	0	0	0	0	492	625	
5	0	0	0	0	492	627	
6	0	0	0	0	491	625	
7	0	0	0	0	491	625	
8	0	0	0	0	490	625	
9	0	0	0	0	490	623	
10	0	0	0	0	488	625	
11	0	0	0	0	488	625	
12	0	0	0	0	488	625	
13	0	0	0	0	488	627	
14	0	0	0	0	488	625	
15	0	0	0	0	487	625	
0	0	0	0	0	487	625	
1	0	0	0	0	487	623	
2	0	0	0	0	487	624	
3	0	0	0	0	487	623	
4	0	0	0	0	487	624	
5	0	0	0	0	487	626	
6	0	0	0	0	487	624	
7	0	0	0	0	487	624	
8	0	0	0	0	487	623	
9	0	0	0	0	487	622	
10	0	0	0	0	486	624	
11	0	0	0	0	487	624	
12	0	0	0	0	487	624	
13	0	0	0	0	486	625	
14	0	0	0	0	487	624	
15	0	0	0	0	487	623	
0	0	0	0	0	487	623	
1	0	0	0	0	487	621	
2	0	0	0	0	487	624	
3	0	0	0	0	488	623	
4	0	0	0	0	489	623	
5	0	0	0	0	489	624	
6	0	0	0	0	489	623	
7	0	0	0	0	490	622	
8	0	0	0	0	489	622	
9	0	0	0	0	488	620	
10	0	0	0	0	488	622	
11	0	0	0	0	489	622	
12	0	0	0	0	488	622	
13	0	0	0	0	489	624	
14	0	0	0	0	489	622	
15	0	0	0	0	489	622	
0	0	0	0	0	488	622	
1	0	0	0	0	488	620	
2	0	0	0	0	489	623	
3	0	0	0	0	489	623	
4	0	0	0	0	489	623	
5	0	0	0	0	490	624	
6	0	0	0	0	489	622	
7	0	0	0	0	490	623	
8	0	0	0	0	490	623	
9	0	0	0	0	491	620	
10	0	0	0	0	492	622	
11	0	0	0	0	492	623	
12	0	0	0	0	492	623	
13	0	0	0	0	492	625	
14	0	0	0	0	492	623	
15	0	0	0	0	491	623	
0	0	0	0	0	492	623	
1	0	0	0	0	492	621	
2	0	0	0	0	492	623	
3	0	0	0	0	493	623	
4	0	0	0	0	493	623	
5	0	0	0	0	493	625	
6	0	0	0	0	494	623	
7	0	0	0	0	494	623	
8	0	0	0	0	493	623	
9	0	0	0	0	494	620	
10	0	0	0	0	495	622	
11	0	0	0	0	496	623	
12	0	0	0	0	496	622	
13	0	0	0	0	496	624	
14	0	0	0	0	496	622	
15	0	0	0	0	496	621	
0	0	0	0	0	497	622	
1	0	0	0	0	498	620	
2	0	0	0	0	497	622	
3	0	0	0	0	498	622	
4	0	0	0	0	498	622	
5	0	0	0	0	499	623	
6	0	0	0	0	499	622	
7	0	0	0	0	498	622	
8	0	0	0	0	498	623	
9	0	0	0	0	498	620	
10	0	0	0	0	499	622	
11	0	0	0	0	499	622	
12	0	0	0	0	499	623	
13	0	0	0	0	498	624	
14	0	0	0	0	497	623	
15	0	0	0	0	498	622	
0	0	0	0	0	499	621	
1	0	0	0	0	498	620	
2	0	0	0	0	498	622	
3	0	0	0	0	499	622	
4	0	0	0	0	499	622	
5	0	0	0	0	499	623	
6	0	0	0	0	498	622	
7	0	0	0	0	498	622	
8	0	0	0	0	497	621	
9	0	0	0	0	498	619	
10	0	0	0	0	498	621	
11	0	0	0	0	499	621	
12	0	0	0	0	498	621	
13	0	0	0	0	497	623	
14	0	0	0	0	497	621	
15	0	0	0	0	496	621	
0	0	0	0	0	496	622	
1	0	0	0	0	496	620	
2	0	0	0	0	496	622	
3	0	0	0	0	496	622	
4	0	0	0	0	496	622	
5	0	0	0	0	496	624	
6	0	0	0	0	495	622	
7	0	0	0	0	496	623	
8	0	0	0	0	496	623	
9	0	0	0	0	496	620	
10	0	0	0	0	496	623	
11	0	0	0	0	496	623	
12	0	0	0	0	495	624	
13	0	0	0	0	494	625	
14	0	0	0	0	494	623	
15	0	0	0	0	494	623	
0	0	0	0	0	494	623	
1	0	0	0	0	494	621	
2	0	0	0	0	495	623	
3	0	0	0	0	495	623	
4	0	0	0	0	495	622	
5	0	0	0	0	495	625	
6	0	0	0	0	495	622	
7	0	0	0	0	495	623	
8	0	0	0	0	496	623	
9	0	0	0	0	496	621	
10	0	0	0	0	496	623	
11	0	0	0	0	496	623	
12	0	0	0	0	496	623	
13	0	0	0	0	496	626	
14	0	0	0	0	495	624	
15	0	0	0	0	496	624	
0	0	0	0	0	496	624	
1	0	0	0	0	497	622	
2	0	0	0	0	498	625	
3	0	0	0	0	499	624	
4	0	0	0	0	499	625	
5	0	0	0	0	499	626	
6	0	0	0	0	499	625	
7	0	0	0	0	499	624	
8	0	0	0	0	498	624	
9	0	0	0	0	498	622	
10	0	0	0	0	498	624	
11	0	0	0	0	499	624	
12	0	0	0	0	499	624	
13	0	0	0	0	499	626	
14	0	0	0	0	499	624	
15	0	0	0	0	499	623	
0	0	0	0	0	500	624	
1	0	0	0	0	500	622	
2	0	0	0	0	500	624	
3	0	0	0	0	500	624	
4	0	0	0	0	500	624	
5	0	0	0	0	500	625	
6	0	0	0	0	500	624	
7	0	0	0	0	499	623	
8	0	0	0	0	499	623	
9	0	0	0	0	499	622	
10	0	0	0	0	499	623	
11	0	0	0	0	498	623	
12	0	0	0	0	499	624	
13	0	0	0	0	499	625	
14	0	0	0	0	499	623	
15	0	0	0	0	499	623	
0	0	0	0	0	500	622	
1	0	0	0	0	500	621	
2	0	0	0	0	502	623	
3	0	0	0	0	502	622	
4	0	0	0	0	503	623	
5	0	0	0	0	504	624	
6	0	0	0	0	504	622	
7	0	0	0	0	504	622	
8	0	0	0	0	504	621	
9	0	0	0	0	504	620	
10	0	0	0	0	504	621	
11	0	0	0	0	505	622	
12	0	0	0	0	504	622	
13	0	0	0	0	504	623	
14	0	0	0	0	504	621	
15	0	0	0	0	504	621	
0	0	0	0	0	505	621	
1	0	0	0	0	505	619	
2	0	0	0	0	505	621	
3	0	0	0	0	505	621	
4	0	0	0	0	505	621	
5	0	0	0	0	506	623	
6	0	0	0	0	506	622	
7	0	0	0	0	507	622	
8	0	0	0	0	507	622	
9	0	0	0	0	506	620	
10	0	0	0	0	506	623	
11	0	0	0	0	506	623	
12	0	0	0	0	505	623	
13	0	0	0	0	505	624	
14	0	0	0	0	505	623	
15	0	0	0	0	505	623	
0	0	0	0	0	505	623	
1	0	0	0	0	505	622	
2	0	0	0	0	505	623	
3	0	0	0	0	505	623	
4	0	0	0	0	504	623	
5	0	0	0	0	505	625	
6	0	0	0	0	504	623	
7	0	0	0	0	505	623	
8	0	0	0	0	505	623	
9	0	0	0	0	505	621	
10	0	0	0	0	505	623	
11	0	0	0	0	505	623	
12	0	0	0	0	504	622	
13	0	0	0	0	505	624	
14	0	0	0	0	506	623	
15	0	0	0	0	507	623	
0	0	0	0	0	505	623	
1	0	0	0	0	505	622	
2	0	0	0	0	505	624	
3	0	0	0	0	505	623	
4	0	0	0	0	504	623	
5	0	0	0	0	502	625	
6	0	0	0	0	500	623	
7	0	0	0	0	496	623	
8	0	0	0	0	491	623	
9	0	0	0	0	485	621	
10	0	0	0	0	481	623	
11	0	0	0	0	478	623	
12	0	0	0	0	476	624	
13	0	0	0	0	474	625	
14	0	0	0	0	472	624	
15	0	0	0	0	471	624	
0	0	0	0	0	471	624	
1	0	0	0	0	468	622	
2	0	0	0	0	469	623	
3	0	0	0	0	472	623	
4	0	0	0	0	478	623	
5	0	0	0	0	487	625	
6	0	0	0	0	499	623	
7	0	0	0	0	515	623	
8	0	0	0	0	535	623	
9	0	0	0	0	557	621	
10	0	0	0	0	579	623	
11	0	0	0	0	600	623	
12	0	0	0	0	620	623	
13	0	0	0	0	639	625	
14	0	0	0	0	657	623	
15	0	0	0	0	672	623	
0	0	0	0	0	686	623	
1	0	0	0	0	697	621	
2	0	0	0	0	708	623	
3	0	0	0	0	716	623	
4	0	0	0	0	721	623	
5	0	0	0	0	725	625	
6	0	0	0	0	725	624	
7	0	0	0	0	720	623	
8	0	0	0	0	711	623	
9	0	0	0	0	700	621	
10	0	0	0	0	686	624	
11	0	0	0	0	667	623	
12	0	0	0	0	647	623	
13	0	0	0	0	626	625	
14	0	0	0	0	603	623	
15	0	0	0	0	582	623	
0	0	0	0	0	565	624	
1	0	0	0	0	551	621	
2	0	0	0	0	538	623	
3	0	0	0	0	528	624	
4	0	0	0	0	518	623	
5	0	0	0	0	510	625	
6	0	0	0	0	503	623	
7	0	0	0	0	497	622	
8	0	0	0	0	492	623	
9	0	0	0	0	488	621	
10	0	0	0	0	484	622	
11	0	0	0	0	481	623	
12	0	0	0	0	478	622	
13	0	0	0	0	476	624	
14	0	0	0	0	474	623	
15	0	0	0	0	472	622	
0	0	0	0	0	471	623	
1	0	0	0	0	469	621	
2	0	0	0	0	468	623	
3	0	0	0	0	467	623	
4	0	0	0	0	467	623	
5	0	0	0	0	466	624	
6	0	0	0	0	465	623	
7	0	0	0	0	466	623	
8	0	0	0	0	467	623	
9	0	0	0	0	466	621	
10	0	0	0	0	464	623	
11	0	0	0	0	464	623	
12	0	0	0	0	464	623	
13	0	0	0	0	463	624	
14	0	0	0	0	463	623	
15	0	0	0	0	462	623	
0	0	0	0	0	462	623	
1	0	0	0	0	463	620	
2	0	0	0	0	463	623	
3	0	0	0	0	463	622	
4	0	0	0	0	463	623	
5	0	0	0	0	463	624	
6	0	0	0	0	464	623	
7	0	0	0	0	465	623	
8	0	0	0	0	465	623	
9	0	0	0	0	465	621	
10	0	0	0	0	465	623	
11	0	0	0	0	465	623	
12	0	0	0	0	465	623	
13	0	0	0	0	466	624	
14	0	0	0	0	466	623	
15	0	0	0	0	466	623	
0	0	0	0	0	467	623	
1	0	0	0	0	467	620	
2	0	0	0	0	467	622	
3	0	0	0	0	467	622	
4	0	0	0	0	468	622	
5	0	0	0	0	469	624	
6	0	0	0	0	469	622	
7	0	0	0	0	470	622	
8	0	0	0	0	470	623	
9	0	0	0	0	470	621	
10	0	0	0	0	471	622	
11	0	0	0	0	471	622	
12	0	0	0	0	472	622	
13	0	0	0	0	472	624	
14	0	0	0	0	473	622	
15	0	0	0	0	473	623	
0	0	0	0	0	474	622	
1	0	0	0	0	475	620	
2	0	0	0	0	475	622	
3	0	0	0	0	475	622	
4	0	0	0	0	476	622	
5	0	0	0	0	475	624	
6	0	0	0	0	475	622	
7	0	0	0	0	475	623	
8	0	0	0	0	476	623	
9	0	0	0	0	476	621	
10	0	0	0	0	476	623	
11	0	0	0	0	478	623	
12	0	0	0	0	477	623	
13	0	0	0	0	478	625	
14	0	0	0	0	479	624	
15	0	0	0	0	478	624	
0	0	0	0	0	478	624	
1	0	0	0	0	477	622	
2	0	0	0	0	476	623	
3	0	0	0	0	476	623	
4	0	0	0	0	476	623	
5	0	0	0	0	477	624	
6	0	0	0	0	476	623	
7	0	0	0	0	477	623	
8	0	0	0	0	478	623	
9	0	0	0	0	479	620	
10	0	0	0	0	480	622	
11	0	0	0	0	480	622	
12	0	0	0	0	480	622	
13	0	0	0	0	480	624	
14	0	0	0	0	480	622	
15	0	0	0	0	480	622	
0	0	0	0	0	481	622	
1	0	0	0	0	480	619	
2	0	0	0	0	482	622	
3	0	0	0	0	482	622	
4	0	0	0	0	483	622	
5	0	0	0	0	483	623	
6	0	0	0	0	483	621	
7	0	0	0	0	483	621	
8	0	0	0	0	483	622	
9	0	0	0	0	483	620	
10	0	0	0	0	483	622	
11	0	0	0	0	482	621	
12	0	0	0	0	482	622	
13	0	0	0	0	483	623	
14	0	0	0	0	483	622	
15	0	0	0	0	483	622	
0	0	0	0	0	483	622	
1	0	0	0	0	484	620	
2	0	0	0	0	485	622	
3	0	0	0	0	484	622	
4	0	0	0	0	484	622	
5	0	0	0	0	484	624	
6	0	0	0	0	484	623	
7	0	0	0	0	484	622	
8	0	0	0	0	484	623	
9	0	0	0	0	485	620	
10	0	0	0	0	485	622	
11	0	0	0	0	486	622	
12	0	0	0	0	486	623	
13	0	0	0	0	487	624	
14	0	0	0	0	487	623	
15	0	0	0	0	488	622	
0	0	0	0	0	488	623	
1	0	0	0	0	489	622	
2	0	0	0	0	489	623	
3	0	0	0	0	489	623	
4	0	0	0	0	489	623	
5	0	0	0	0	490	625	
6	0	0	0	0	490	623	
7	0	0	0	0	490	624	
8	0	0	0	0	491	623	
9	0	0	0	0	491	622	
10	0	0	0	0	491	623	
11	0	0	0	0	491	623	
12	0	0	0	0	491	624	
13	0	0	0	0	492	624	
14	0	0	0	0	492	623	
15	0	0	0	0	492	624	
0	0	0	0	0	494	624	
1	0	0	0	0	494	622	
2	0	0	0	0	494	623	
3	0	0	0	0	494	623	
4	0	0	0	0	494	624	
5	0	0	0	0	495	625	
6	0	0	0	0	496	624	
7	0	0	0	0	496	623	
8	0	0	0	0	496	624	
9	0	0	0	0	497	622	
10	0	0	0	0	497	623	
11	0	0	0	0	498	624	
12	0	0	0	0	498	623	
13	0	0	0	0	499	625	
14	0	0	0	0	499	624	
15	0	0	0	0	500	623	
0	0	0	0	0	500	623	
1	0	0	0	0	500	622	
2	0	0	0	0	500	624	
3	0	0	0	0	501	623	
4	0	0	0	0	502	623	
5	0	0	0	0	502	625	
6	0	0	0	0	503	623	
7	0	0	0	0	502	624	
8	0	0	0	0	502	623	
9	0	0	0	0	502	621	
10	0	0	0	0	503	623	
11	0	0	0	0	501	623	
12	0	0	0	0	500	623	
13	0	0	0	0	501	625	
14	0	0	0	0	501	623	
15	0	0	0	0	500	624	
0	0	0	0	0	500	624	
1	0	0	0	0	500	622	
2	0	0	0	0	500	624	
3	0	0	0	0	500	624	
4	0	0	0	0	500	624	
5	0	0	0	0	500	626	
6	0	0	0	0	500	624	
7	0	0	0	0	499	624	
8	0	0	0	0	500	625	
9	0	0	0	0	500	622	
10	0	0	0	0	500	624	
11	0	0	0	0	500	624	
12	0	0	0	0	499	624	
13	0	0	0	0	500	625	
14	0	0	0	0	499	624	
15	0	0	0	0	498	623	
0	0	0	0	0	498	623	
1	0	0	0	0	497	621	
2	0	0	0	0	496	623	
3	0	0	0	0	495	622	
4	0	0	0	0	495	622	
5	0	0	0	0	495	624	
6	0	0	0	0	494	623	
7	0	0	0	0	494	623	
8	0	0	0	0	493	623	
9	0	0	0	0	493	620	
10	0	0	0	0	493	623	
11	0	0	0	0	493	622	
12	0	0	0	0	492	623	
13	0	0	0	0	491	624	
14	0	0	0	0	492	623	
15	0	0	0	0	492	623	
0	0	0	0	0	492	623	
1	0	0	0	0	491	621	
2	0	0	0	0	491	623	
3	0	0	0	0	490	622	
4	0	0	0	0	490	623	
5	0	0	0	0	490	625	
6	0	0	0	0	489	623	
7	0	0	0	0	488	623	
8	0	0	0	0	487	623	
9	0	0	0	0	487	621	
10	0	0	0	0	487	624	
11	0	0	0	0	486	623	
12	0	0	0	0	486	623	
13	0	0	0	0	485	625	
14	0	0	0	0	486	624	
15	0	0	0	0	486	624	
0	0	0	0	0	485	624	
1	0	0	0	0	484	622	
2	0	0	0	0	483	623	
3	0	0	0	0	483	623	
4	0	0	0	0	483	623	
5	0	0	0	0	483	625	
6	0	0	0	0	482	624	
7	0	0	0	0	481	623	
8	0	0	0	0	481	623	
9	0	0	0	0	481	622	
10	0	0	0	0	481	623	
11	0	0	0	0	482	623	
12	0	0	0	0	482	623	
13	0	0	0	0	481	625	
14	0	0	0	0	482	624	
15	0	0	0	0	482	624	
0	0	0	0	0	482	624	
1	0	0	0	0	481	622	
2	0	0	0	0	481	624	
3	0	0	0	0	480	624	
4	0	0	0	0	481	624	
5	0	0	0	0	480	625	
6	0	0	0	0	479	623	
7	0	0	0	0	479	623	
8	0	0	0	0	479	623	
9	0	0	0	0	480	620	
10	0	0	0	0	480	623	
11	0	0	0	0	480	623	
12	0	0	0	0	480	622	
13	0	0	0	0	480	624	
14	0	0	0	0	480	622	
15	0	0	0	0	480	622	
0	0	0	0	0	480	622	
1	0	0	0	0	479	620	
2	0	0	0	0	479	623	
3	0	0	0	0	480	622	
4	0	0	0	0	480	622	
5	0	0	0	0	480	623	
6	0	0	0	0	480	622	
7	0	0	0	0	480	621	
8	0	0	0	0	480	621	
9	0	0	0	0	480	620	
10	0	0	0	0	480	621	
11	0	0	0	0	480	621	
12	0	0	0	0	480	622	
13	0	0	0	0	480	624	
14	0	0	0	0	479	621	
15	0	0	0	0	480	621	
0	0	0	0	0	480	621	
1	0	0	0	0	480	619	
2	0	0	0	0	480	621	
3	0	0	0	0	480	621	
4	0	0	0	0	480	622	
5	0	0	0	0	480	623	
6	0	0	0	0	481	622	
7	0	0	0	0	481	621	
8	0	0	0	0	481	621	
9	0	0	0	0	481	620	
10	0	0	0	0	481	622	
11	0	0	0	0	481	622	
12	0	0	0	0	482	622	
13	0	0	0	0	481	624	
14	0	0	0	0	481	622	
15	0	0	0	0	481	622	
0	0	0	0	0	481	622	
1	0	0	0	0	480	621	
2	0	0	0	0	480	623	
3	0	0	0	0	481	622	
4	0	0	0	0	482	623	
5	0	0	0	0	482	624	
6	0	0	0	0	481	623	
7	0	0	0	0	482	623	
8	0	0	0	0	483	623	
9	0	0	0	0	484	620	
10	0	0	0	0	485	623	
11	0	0	0	0	485	623	
12	0	0	0	0	484	623	
13	0	0	0	0	483	625	
14	0	0	0	0	483	623	
15	0	0	0	0	484	623	
0	0	0	0	0	485	623	
1	0	0	0	0	485	622	
2	0	0	0	0	486	623	
3	0	0	0	0	486	622	
4	0	0	0	0	487	623	
5	0	0	0	0	487	625	
6	0	0	0	0	487	623	
7	0	0	0	0	486	623	
8	0	0	0	0	486	623	
9	0	0	0	0	485	621	
10	0	0	0	0	485	623	
11	0	0	0	0	485	623	
12	0	0	0	0	484	623	
13	0	0	0	0	483	624	
14	0	0	0	0	484	623	
15	0	0	0	0	484	623	
0	0	0	0	0	484	623	
1	0	0	0	0	485	621	
2	0	0	0	0	485	623	
3	0	0	0	0	486	623	
4	0	0	0	0	485	622	
5	0	0	0	0	486	624	
6	0	0	0	0	485	622	
7	0	0	0	0	486	623	
8	0	0	0	0	487	623	
9	0	0	0	0	487	620	
10	0	0	0	0	487	622	
11	0	0	0	0	487	622	
12	0	0	0	0	487	622	
13	0	0	0	0	487	624	
14	0	0	0	0	487	622	
15	0	0	0	0	487	623	
0	0	0	0	0	488	622	
1	0	0	0	0	488	620	
2	0	0	0	0	489	623	
3	0	0	0	0	489	623	
4	0	0	0	0	489	622	
5	0	0	0	0	488	624	
6	0	0	0	0	488	622	
7	0	0	0	0	488	622	
8	0	0	0	0	487	622	
9	0	0	0	0	487	621	
10	0	0	0	0	486	623	
11	0	0	0	0	486	623	
12	0	0	0	0	485	623	
13	0	0	0	0	485	624	
14	0	0	0	0	486	623	
15	0	0	0	0	486	622	
0	0	0	0	0	486	623	
1	0	0	0	0	486	621	
2	0	0	0	0	486	623	
3	0	0	0	0	486	623	
4	0	0	0	0	486	623	
5	0	0	0	0	486	625	
6	0	0	0	0	486	623	
7	0	0	0	0	485	623	
8	0	0	0	0	485	624	
9	0	0	0	0	485	622	
10	0	0	0	0	486	623	
11	0	0	0	0	487	623	
12	0	0	0	0	486	624	
13	0	0	0	0	487	625	
14	0	0	0	0	487	623	
15	0	0	0	0	487	623	
0	0	0	0	0	487	624	
1	0	0	0	0	487	622	
2	0	0	0	0	487	624	
3	0	0	0	0	487	624	
4	0	0	0	0	488	624	
5	0	0	0	0	489	627	
6	0	0	0	0	490	624	
7	0	0	0	0	490	625	
8	0	0	0	0	489	624	
9	0	0	0	0	489	623	
10	0	0	0	0	491	625	
11	0	0	0	0	491	625	
12	0	0	0	0	492	625	
13	0	0	0	0	492	627	
14	0	0	0	0	494	625	
15	0	0	0	0	495	625	
0	0	0	0	0	496	625	
1	0	0	0	0	497	623	
2	0	0	0	0	497	624	
3	0	0	0	0	497	625	
4	0	0	0	0	497	625	
5	0	0	0	0	496	626	
6	0	0	0	0	496	624	
7	0	0	0	0	495	624	
8	0	0	0	0	494	624	
9	0	0	0	0	494	623	
10	0	0	0	0	495	624	
11	0	0	0	0	496	625	
12	0	0	0	0	495	624	
13	0	0	0	0	496	627	
14	0	0	0	0	496	624	
15	0	0	0	0	496	624	
0	0	0	0	0	496	625	
1	0	0	0	0	496	622	
2	0	0	0	0	496	624	
3	0	0	0	0	495	624	
4	0	0	0	0	496	624	
5	0	0	0	0	496	625	
6	0	0	0	0	496	624	
7	0	0	0	0	497	624	
8	0	0	0	0	497	624	
9	0	0	0	0	497	622	
10	0	0	0	0	497	623	
11	0	0	0	0	498	623	
12	0	0	0	0	498	623	
13	0	0	0	0	497	624	
14	0	0	0	0	497	623	
15	0	0	0	0	497	623	
0	0	0	0	0	496	623	
1	0	0	0	0	496	621	
2	0	0	0	0	496	623	
3	0	0	0	0	496	623	
4	0	0	0	0	497	623	
5	0	0	0	0	497	625	
6	0	0	0	0	497	624	
7	0	0	0	0	497	623	
8	0	0	0	0	496	623	
9	0	0	0	0	497	621	
10	0	0	0	0	497	623	
11	0	0	0	0	496	623	
12	0	0	0	0	497	623	
13	0	0	0	0	496	625	
14	0	0	0	0	496	623	
15	0	0	0	0	497	623	
0	0	0	0	0	497	623	
1	0	0	0	0	497	622	
2	0	0	0	0	497	624	
3	0	0	0	0	497	623	
4	0	0	0	0	499	623	
5	0	0	0	0	498	625	
6	0	0	0	0	498	624	
7	0	0	0	0	498	623	
8	0	0	0	0	498	622	
9	0	0	0	0	498	620	
10	0	0	0	0	499	622	
11	0	0	0	0	499	622	
12	0	0	0	0	498	622	
13	0	0	0	0	498	624	
14	0	0	0	0	498	622	
15	0	0	0	0	498	622	
0	0	0	0	0	498	622	
1	0	0	0	0	498	620	
2	0	0	0	0	499	622	
3	0	0	0	0	499	622	
4	0	0	0	0	498	622	
5	0	0	0	0	498	624	
6	0	0	0	0	498	622	
7	0	0	0	0	498	622	
8	0	0	0	0	499	623	
9	0	0	0	0	500	620	
10	0	0	0	0	501	622	
11	0	0	0	0	502	621	
12	0	0	0	0	502	622	
13	0	0	0	0	501	623	
14	0	0	0	0	500	621	
15	0	0	0	0	498	621	
0	0	0	0	0	494	621	
1	0	0	0	0	491	620	
2	0	0	0	0	486	621	
3	0	0	0	0	480	621	
4	0	0	0	0	476	622	
5	0	0	0	0	474	623	
6	0	0	0	0	472	622	
7	0	0	0	0	470	621	
8	0	0	0	0	467	622	
9	0	0	0	0	466	620	
10	0	0	0	0	466	621	
11	0	0	0	0	465	621	
12	0	0	0	0	464	621	
13	0	0	0	0	467	623	
14	0	0	0	0	473	622	
15	0	0	0	0	482	622	
0	0	0	0	0	493	622	
1	0	0	0	0	509	620	
2	0	0	0	0	527	622	
3	0	0	0	0	549	621	
4	0	0	0	0	570	621	
5	0	0	0	0	591	624	
6	0	0	0	0	611	622	
7	0	0	0	0	630	622	
8	0	0	0	0	648	622	
9	0	0	0	0	662	620	
10	0	0	0	0	675	622	
11	0	0	0	0	687	622	
12	0	0	0	0	697	621	
13	0	0	0	0	706	623	
14	0	0	0	0	711	622	
15	0	0	0	0	716	622	
0	0	0	0	0	716	622	
1	0	0	0	0	712	619	
2	0	0	0	0	705	622	
3	0	0	0	0	694	622	
4	0	0	0	0	680	622	
5	0	0	0	0	662	623	
6	0	0	0	0	641	622	
7	0	0	0	0	620	622	
8	0	0	0	0	597	622	
9	0	0	0	0	576	620	
10	0	0	0	0	559	622	
11	0	0	0	0	544	622	
12	0	0	0	0	532	622	
13	0	0	0	0	521	624	
14	0	0	0	0	510	622	
15	0	0	0	0	502	622	
0	0	0	0	0	495	622	
1	0	0	0	0	490	621	
2	0	0	0	0	484	622	
3	0	0	0	0	480	623	
4	0	0	0	0	476	622	
5	0	0	0	0	473	624	
6	0	0	0	0	471	622	
7	0	0	0	0	470	622	
8	0	0	0	0	469	621	
9	0	0	0	0	467	620	
10	0	0	0	0	467	622	
11	0	0	0	0	466	622	
12	0	0	0	0	464	622	
13	0	0	0	0	463	624	
14	0	0	0	0	463	622	
15	0	0	0	0	462	622	
0	0	0	0	0	461	622	
1	0	0	0	0	460	620	
2	0	0	0	0	460	622	
3	0	0	0	0	460	621	
4	0	0	0	0	461	621	
5	0	0	0	0	461	623	
6	0	0	0	0	460	622	
7	0	0	0	0	460	622	
8	0	0	0	0	460	622	
9	0	0	0	0	460	621	
10	0	0	0	0	461	623	
11	0	0	0	0	461	623	
12	0	0	0	0	461	623	
13	0	0	0	0	462	624	
14	0	0	0	0	462	623	
15	0	0	0	0	462	623	
0	0	0	0	0	462	622	
1	0	0	0	0	462	621	
2	0	0	0	0	462	622	
3	0	0	0	0	462	623	
4	0	0	0	0	463	623	
5	0	0	0	0	463	624	
6	0	0	0	0	463	622	
7	0	0	0	0	463	622	
8	0	0	0	0	463	622	
9	0	0	0	0	464	620	
10	0	0	0	0	464	622	
11	0	0	0	0	465	622	
12	0	0	0	0	465	622	
13	0	0	0	0	466	623	
14	0	0	0	0	467	623	
15	0	0	0	0	468	623	
0	0	0	0	0	469	622	
1	0	0	0	0	470	621	
2	0	0	0	0	471	622	
3	0	0	0	0	471	623	
4	0	0	0	0	471	623	
5	0	0	0	0	472	625	
6	0	0	0	0	473	623	
7	0	0	0	0	474	623	
8	0	0	0	0	474	624	
9	0	0	0	0	474	622	
10	0	0	0	0	475	624	
11	0	0	0	0	474	624	
12	0	0	0	0	475	624	
13	0	0	0	0	476	625	
14	0	0	0	0	476	624	
15	0	0	0	0	477	625	
0	0	0	0	0	477	624	
1	0	0	0	0	477	623	
2	0	0	0	0	478	624	
3	0	0	0	0	478	624	
4	0	0	0	0	479	624	
5	0	0	0	0	479	625	
6	0	0	0	0	478	624	
7	0	0	0	0	479	624	
8	0	0	0	0	480	624	
9	0	0	0	0	480	622	
10	0	0	0	0	480	624	
11	0	0	0	0	480	624	
12	0	0	0	0	481	624	
13	0	0	0	0	481	625	
14	0	0	0	0	481	623	
15	0	0	0	0	480	623	
0	0	0	0	0	480	623	
1	0	0	0	0	479	620	
2	0	0	0	0	480	623	
3	0	0	0	0	480	622	
4	0	0	0	0	480	622	
5	0	0	0	0	480	623	
6	0	0	0	0	481	622	
7	0	0	0	0	482	622	
8	0	0	0	0	483	621	
9	0	0	0	0	484	619	
10	0	0	0	0	484	620	
11	0	0	0	0	485	621	
12	0	0	0	0	485	620	
13	0	0	0	0	486	622	
14	0	0	0	0	487	621	
15	0	0	0	0	487	621	
0	0	0	0	0	488	621	
1	0	0	0	0	488	619	
2	0	0	0	0	489	620	
3	0	0	0	0	489	621	
4	0	0	0	0	490	621	
5	0	0	0	0	491	622	
6	0	0	0	0	491	620	
7	0	0	0	0	492	621	
8	0	0	0	0	493	621	
9	0	0	0	0	493	619	
10	0	0	0	0	494	621	
11	0	0	0	0	494	621	
12	0	0	0	0	494	621	
13	0	0	0	0	495	622	
14	0	0	0	0	495	621	
15	0	0	0	0	494	621	
0	0	0	0	0	494	620	
1	0	0	0	0	495	620	
2	0	0	0	0	496	621	
3	0	0	0	0	495	620	
4	0	0	0	0	495	621	
5	0	0	0	0	495	623	
6	0	0	0	0	496	622	
7	0	0	0	0	496	622	
8	0	0	0	0	496	622	
9	0	0	0	0	497	620	
10	0	0	0	0	497	622	
11	0	0	0	0	498	623	
12	0	0	0	0	498	622	
13	0	0	0	0	498	623	
14	0	0	0	0	499	623	
15	0	0	0	0	498	622	
0	0	0	0	0	499	622	
1	0	0	0	0	499	621	
2	0	0	0	0	500	622	
3	0	0	0	0	499	623	
4	0	0	0	0	500	623	
5	0	0	0	0	499	625	
6	0	0	0	0	500	623	
7	0	0	0	0	501	623	
8	0	0	0	0	502	624	
9	0	0	0	0	502	622	
10	0	0	0	0	503	624	
11	0	0	0	0	504	624	
12	0	0	0	0	504	624	
13	0	0	0	0	504	626	
14	0	0	0	0	505	625	
15	0	0	0	0	506	624	
0	0	0	0	0	507	624	
1	0	0	0	0	507	623	
2	0	0	0	0	508	625	
3	0	0	0	0	507	624	
4	0	0	0	0	508	625	
5	0	0	0	0	508	627	
6	0	0	0	0	508	625	
7	0	0	0	0	508	626	
8	0	0	0	0	509	625	
9	0	0	0	0	509	623	
10	0	0	0	0	510	625	
11	0	0	0	0	511	624	
12	0	0	0	0	512	625	
13	0	0	0	0	512	626	
14	0	0	0	0	514	625	
15	0	0	0	0	514	625	
0	0	0	0	0	514	626	
1	0	0	0	0	514	624	
2	0	0	0	0	515	625	
3	0	0	0	0	515	626	
4	0	0	0	0	515	625	
5	0	0	0	0	516	628	
6	0	0	0	0	517	626	
7	0	0	0	0	517	625	
8	0	0	0	0	516	626	
9	0	0	0	0	515	624	
10	0	0	0	0	515	626	
11	0	0	0	0	516	626	
12	0	0	0	0	516	626	
13	0	0	0	0	516	627	
14	0	0	0	0	516	626	
15	0	0	0	0	516	625	
0	0	0	0	0	516	626	
1	0	0	0	0	515	622	
2	0	0	0	0	515	625	
3	0	0	0	0	515	625	
4	0	0	0	0	513	624	
5	0	0	0	0	513	626	
6	0	0	0	0	513	624	
7	0	0	0	0	513	624	
8	0	0	0	0	513	624	
9	0	0	0	0	513	622	
10	0	0	0	0	512	624	
11	0	0	0	0	512	624	
12	0	0	0	0	511	623	
13	0	0	0	0	511	625	
14	0	0	0	0	510	623	
15	0	0	0	0	510	623	
0	0	0	0	0	511	623	
1	0	0	0	0	511	622	
2	0	0	0	0	511	623	
3	0	0	0	0	510	623	
4	0	0	0	0	509	624	
5	0	0	0	0	509	625	
6	0	0	0	0	509	624	
7	0	0	0	0	508	623	
8	0	0	0	0	507	623	
9	0	0	0	0	507	622	
10	0	0	0	0	505	624	
11	0	0	0	0	505	624	
12	0	0	0	0	505	624	
13	0	0	0	0	504	625	
14	0	0	0	0	504	624	
15	0	0	0	0	502	623	
0	0	0	0	0	502	624	
1	0	0	0	0	500	622	
2	0	0	0	0	500	624	
3	0	0	0	0	500	625	
4	0	0	0	0	499	624	
5	0	0	0	0	500	626	
6	0	0	0	0	500	624	
7	0	0	0	0	499	623	
8	0	0	0	0	500	624	
9	0	0	0	0	499	621	
10	0	0	0	0	499	624	
11	0	0	0	0	499	624	
12	0	0	0	0	499	624	
13	0	0	0	0	500	625	
14	0	0	0	0	500	624	
15	0	0	0	0	499	624	
0	0	0	0	0	499	624	
1	0	0	0	0	499	623	
2	0	0	0	0	499	624	
3	0	0	0	0	499	624	
4	0	0	0	0	500	625	
5	0	0	0	0	499	626	
6	0	0	0	0	499	624	
7	0	0	0	0	499	624	
8	0	0	0	0	497	623	
9	0	0	0	0	497	622	
10	0	0	0	0	497	624	
11	0	0	0	0	496	624	
12	0	0	0	0	495	624	
13	0	0	0	0	494	626	
14	0	0	0	0	493	624	
15	0	0	0	0	493	624	
0	0	0	0	0	492	623	
1	0	0	0	0	493	621	
2	0	0	0	0	492	623	
3	0	0	0	0	492	623	
4	0	0	0	0	491	623	
5	0	0	0	0	491	624	
6	0	0	0	0	491	623	
7	0	0	0	0	490	622	
8	0	0	0	0	491	623	
9	0	0	0	0	491	620	
10	0	0	0	0	491	622	
11	0	0	0	0	493	622	
12	0	0	0	0	493	622	
13	0	0	0	0	494	624	
14	0	0	0	0	494	622	
15	0	0	0	0	494	622	
0	0	0	0	0	495	623	
1	0	0	0	0	495	621	
2	0	0	0	0	496	622	
3	0	0	0	0	496	622	
4	0	0	0	0	496	622	
5	0	0	0	0	496	624	
6	0	0	0	0	496	622	
7	0	0	0	0	496	622	
8	0	0	0	0	496	621	
9	0	0	0	0	497	619	
10	0	0	0	0	497	622	
11	0	0	0	0	496	622	
12	0	0	0	0	495	621	
13	0	0	0	0	495	623	
14	0	0	0	0	496	622	
15	0	0	0	0	496	622	
0	0	0	0	0	496	622	
1	0	0	0	0	496	620	
2	0	0	0	0	497	621	
3	0	0	0	0	497	621	
4	0	0	0	0	497	621	
5	0	0	0	0	498	623	
6	0	0	0	0	499	621	
7	0	0	0	0	500	621	
8	0	0	0	0	499	620	
9	0	0	0	0	499	618	
10	0	0	0	0	499	621	
11	0	0	0	0	500	621	
12	0	0	0	0	501	621	
13	0	0	0	0	501	622	
14	0	0	0	0	500	621	
15	0	0	0	0	500	620	
0	0	0	0	0	500	621	
1	0	0	0	0	500	619	
2	0	0	0	0	501	621	
3	0	0	0	0	502	621	
4	0	0	0	0	502	622	
5	0	0	0	0	503	623	
6	0	0	0	0	503	621	
7	0	0	0	0	503	621	
8	0	0	0	0	504	621	
9	0	0	0	0	504	619	
10	0	0	0	0	505	621	
11	0	0	0	0	506	621	
12	0	0	0	0	507	621	
13	0	0	0	0	508	623	
14	0	0	0	0	508	622	
15	0	0	0	0	508	621	
0	0	0	0	0	509	621	
1	0	0	0	0	509	620	
2	0	0	0	0	509	621	
3	0	0	0	0	510	622	
4	0	0	0	0	509	621	
5	0	0	0	0	510	624	
6	0	0	0	0	510	622	
7	0	0	0	0	510	621	
8	0	0	0	0	510	622	
9	0	0	0	0	510	620	
10	0	0	0	0	511	621	
11	0	0	0	0	512	622	
12	0	0	0	0	512	622	
13	0	0	0	0	513	624	
14	0	0	0	0	512	622	
15	0	0	0	0	512	622	
0	0	0	0	0	511	622	
1	0	0	0	0	511	621	
2	0	0	0	0	511	622	
3	0	0	0	0	511	622	
4	0	0	0	0	511	623	
5	0	0	0	0	511	624	
6	0	0	0	0	511	622	
7	0	0	0	0	511	623	
8	0	0	0	0	511	623	
9	0	0	0	0	511	621	
10	0	0	0	0	511	623	
11	0	0	0	0	512	622	
12	0	0	0	0	513	622	
13	0	0	0	0	513	624	
14	0	0	0	0	514	623	
15	0	0	0	0	515	623	
0	0	0	0	0	515	623	
1	0	0	0	0	516	620	
2	0	0	0	0	516	623	
3	0	0	0	0	517	623	
4	0	0	0	0	517	623	
5	0	0	0	0	518	624	
6	0	0	0	0	518	623	
7	0	0	0	0	518	623	
8	0	0	0	0	518	622	
9	0	0	0	0	519	620	
10	0	0	0	0	519	623	
11	0	0	0	0	519	623	
12	0	0	0	0	520	623	
13	0	0	0	0	520	624	
14	0	0	0	0	519	623	
15	0	0	0	0	519	623	
0	0	0	0	0	519	623	
1	0	0	0	0	518	620	
2	0	0	0	0	518	622	
3	0	0	0	0	517	623	
4	0	0	0	0	516	622	
5	0	0	0	0	516	624	
6	0	0	0	0	516	623	
7	0	0	0	0	517	622	
8	0	0	0	0	516	623	
9	0	0	0	0	517	620	
10	0	0	0	0	517	622	
11	0	0	0	0	517	623	
12	0	0	0	0	516	621	
13	0	0	0	0	516	624	
14	0	0	0	0	516	622	
15	0	0	0	0	516	622	
0	0	0	0	0	516	622	
1	0	0	0	0	516	620	
2	0	0	0	0	517	622	
3	0	0	0	0	516	622	
4	0	0	0	0	516	622	
5	0	0	0	0	516	624	
6	0	0	0	0	515	622	
7	0	0	0	0	515	623	
8	0	0	0	0	515	622	
9	0	0	0	0	515	621	
10	0	0	0	0	514	622	
11	0	0	0	0	514	622	
12	0	0	0	0	514	622	
13	0	0	0	0	513	624	
14	0	0	0	0	513	623	
15	0	0	0	0	513	623	
0	0	0	0	0	514	623	
1	0	0	0	0	515	621	
2	0	0	0	0	515	623	
3	0	0	0	0	516	624	
4	0	0	0	0	516	623	
5	0	0	0	0	515	624	
6	0	0	0	0	516	623	
7	0	0	0	0	517	624	
8	0	0	0	0	518	623	
9	0	0	0	0	519	622	
10	0	0	0	0	520	624	
11	0	0	0	0	520	623	
12	0	0	0	0	521	624	
13	0	0	0	0	521	625	
14	0	0	0	0	522	624	
15	0	0	0	0	522	623	
0	0	0	0	0	523	624	
1	0	0	0	0	523	622	
2	0	0	0	0	523	624	
3	0	0	0	0	523	624	
4	0	0	0	0	522	623	
5	0	0	0	0	521	625	
6	0	0	0	0	521	624	
7	0	0	0	0	522	624	
8	0	0	0	0	522	624	
9	0	0	0	0	522	622	
10	0	0	0	0	522	624	
11	0	0	0	0	522	624	
12	0	0	0	0	522	624	
13	0	0	0	0	522	625	
14	0	0	0	0	523	624	
15	0	0	0	0	523	624	
0	0	0	0	0	524	624	
1	0	0	0	0	525	622	
2	0	0	0	0	525	624	
3	0	0	0	0	526	623	
4	0	0	0	0	526	624	
5	0	0	0	0	527	625	
6	0	0	0	0	527	623	
7	0	0	0	0	527	624	
8	0	0	0	0	527	623	
9	0	0	0	0	528	621	
10	0	0	0	0	528	623	
11	0	0	0	0	529	623	
12	0	0	0	0	529	623	
13	0	0	0	0	529	625	
14	0	0	0	0	528	623	
15	0	0	0	0	529	623	
0	0	0	0	0	528	622	
1	0	0	0	0	528	621	
2	0	0	0	0	528	623	
3	0	0	0	0	528	623	
4	0	0	0	0	529	623	
5	0	0	0	0	530	625	
6	0	0	0	0	529	624	
7	0	0	0	0	529	623	
8	0	0	0	0	529	623	
9	0	0	0	0	529	621	
10	0	0	0	0	529	623	
11	0	0	0	0	529	623	
12	0	0	0	0	529	623	
13	0	0	0	0	529	624	
14	0	0	0	0	528	623	
15	0	0	0	0	528	623	
0	0	0	0	0	529	623	
1	0	0	0	0	529	621	
2	0	0	0	0	529	622	
3	0	0	0	0	528	622	
4	0	0	0	0	527	622	
5	0	0	0	0	527	624	
6	0	0	0	0	527	623	
7	0	0	0	0	527	623	
8	0	0	0	0	527	622	
9	0	0	0	0	527	621	
10	0	0	0	0	527	623	
11	0	0	0	0	527	622	
12	0	0	0	0	527	622	
13	0	0	0	0	527	624	
14	0	0	0	0	527	623	
15	0	0	0	0	527	623	
0	0	0	0	0	526	623	
1	0	0	0	0	526	621	
2	0	0	0	0	527	623	
3	0	0	0	0	527	622	
4	0	0	0	0	528	623	
5	0	0	0	0	528	624	
6	0	0	0	0	528	622	
7	0	0	0	0	528	623	
8	0	0	0	0	528	623	
9	0	0	0	0	528	621	
10	0	0	0	0	527	622	
11	0	0	0	0	526	623	
12	0	0	0	0	524	622	
13	0	0	0	0	520	625	
14	0	0	0	0	516	623	
15	0	0	0	0	511	622	
0	0	0	0	0	506	623	
1	0	0	0	0	503	620	
2	0	0	0	0	499	622	
3	0	0	0	0	497	623	
4	0	0	0	0	495	622	
5	0	0	0	0	493	624	
6	0	0	0	0	492	623	
7	0	0	0	0	491	622	
8	0	0	0	0	490	622	
9	0	0	0	0	490	620	
10	0	0	0	0	494	623	
11	0	0	0	0	502	623	
12	0	0	0	0	512	622	
13	0	0	0	0	524	624	
14	0	0	0	0	541	623	
15	0	0	0	0	560	623	
0	0	0	0	0	580	623	
1	0	0	0	0	600	621	
2	0	0	0	0	620	624	
3	0	0	0	0	640	624	
4	0	0	0	0	660	624	
5	0	0	0	0	678	626	
6	0	0	0	0	691	624	
7	0	0	0	0	704	624	
8	0	0	0	0	716	624	
9	0	0	0	0	725	623	
10	0	0	0	0	731	625	
11	0	0	0	0	736	624	
12	0	0	0	0	739	624	
13	0	0	0	0	737	626	
14	0	0	0	0	730	625	
15	0	0	0	0	720	625	
0	0	0	0	0	708	625	
1	0	0	0	0	694	623	
2	0	0	0	0	676	625	
3	0	0	0	0	656	624	
4	0	0	0	0	635	625	
5	0	0	0	0	614	626	
6	0	0	0	0	595	624	
7	0	0	0	0	581	624	
8	0	0	0	0	568	624	
9	0	0	0	0	558	622	
10	0	0	0	0	548	624	
11	0	0	0	0	540	624	
12	0	0	0	0	532	624	
13	0	0	0	0	524	625	
14	0	0	0	0	520	624	
15	0	0	0	0	515	624	
0	0	0	0	0	512	624	
1	0	0	0	0	509	622	
2	0	0	0	0	506	623	
3	0	0	0	0	504	623	
4	0	0	0	0	500	624	
5	0	0	0	0	499	624	
6	0	0	0	0	497	623	
7	0	0	0	0	496	622	
8	0	0	0	0	494	623	
9	0	0	0	0	492	620	
10	0	0	0	0	492	622	
11	0	0	0	0	491	622	
12	0	0	0	0	489	622	
13	0	0	0	0	489	624	
14	0	0	0	0	488	622	
15	0	0	0	0	488	622	
0	0	0	0	0	487	622	
1	0	0	0	0	488	620	
2	0	0	0	0	488	622	
3	0	0	0	0	488	621	
4	0	0	0	0	487	621	
5	0	0	0	0	487	624	
6	0	0	0	0	487	622	
7	0	0	0	0	487	623	
8	0	0	0	0	487	622	
9	0	0	0	0	487	621	
10	0	0	0	0	487	623	
11	0	0	0	0	487	623	
12	0	0	0	0	487	622	
13	0	0	0	0	487	624	
14	0	0	0	0	488	623	
15	0	0	0	0	488	622	
0	0	0	0	0	488	623	
1	0	0	0	0	487	621	
2	0	0	0	0	487	623	
3	0	0	0	0	487	623	
4	0	0	0	0	487	623	
5	0	0	0	0	487	624	
6	0	0	0	0	488	623	
7	0	0	0	0	489	622	
8	0	0	0	0	490	622	
9	0	0	0	0	491	620	
10	0	0	0	0	491	622	
11	0	0	0	0	492	623	
12	0	0	0	0	492	622	
13	0	0	0	0	493	624	
14	0	0	0	0	495	622	
15	0	0	0	0	496	622	
0	0	0	0	0	496	622	
1	0	0	0	0	497	621	
2	0	0	0	0	497	623	
3	0	0	0	0	497	623	
4	0	0	0	0	496	623	
5	0	0	0	0	495	624	
6	0	0	0	0	495	623	
7	0	0	0	0	495	623	
8	0	0	0	0	495	623	
9	0	0	0	0	495	621	
10	0	0	0	0	495	622	
11	0	0	0	0	495	622	
12	0	0	0	0	496	623	
13	0	0	0	0	496	624	
14	0	0	0	0	496	623	
15	0	0	0	0	498	623	
0	0	0	0	0	498	623	
1	0	0	0	0	499	621	
2	0	0	0	0	499	622	
3	0	0	0	0	500	622	
4	0	0	0	0	500	623	
5	0	0	0	0	500	624	
6	0	0	0	0	501	622	
7	0	0	0	0	502	622	
8	0	0	0	0	503	622	
9	0	0	0	0	503	620	
10	0	0	0	0	503	622	
11	0	0	0	0	504	622	
12	0	0	0	0	503	622	
13	0	0	0	0	504	623	
14	0	0	0	0	504	621	
15	0	0	0	0	505	621	
0	0	0	0	0	505	621	
1	0	0	0	0	505	619	
2	0	0	0	0	505	621	
3	0	0	0	0	504	621	
4	0	0	0	0	504	620	
5	0	0	0	0	505	622	
6	0	0	0	0	505	620	
7	0	0	0	0	505	620	
8	0	0	0	0	506	620	
9	0	0	0	0	507	618	
10	0	0	0	0	508	620	
11	0	0	0	0	510	620	
12	0	0	0	0	510	620	
13	0	0	0	0	510	621	
14	0	0	0	0	510	620	
15	0	0	0	0	511	619	
0	0	0	0	0	510	619	
1	0	0	0	0	510	617	
2	0	0	0	0	510	619	
3	0	0	0	0	510	620	
4	0	0	0	0	511	619	
5	0	0	0	0	511	622	
6	0	0	0	0	511	619	
7	0	0	0	0	512	620	
8	0	0	0	0	512	620	
9	0	0	0	0	511	618	
10	0	0	0	0	512	620	
11	0	0	0	0	512	620	
12	0	0	0	0	513	620	
13	0	0	0	0	513	622	
14	0	0	0	0	514	621	
15	0	0	0	0	514	621	
0	0	0	0	0	515	621	
1	0	0	0	0	516	620	
2	0	0	0	0	516	621	
3	0	0	0	0	518	621	
4	0	0	0	0	519	621	
5	0	0	0	0	520	623	
6	0	0	0	0	521	622	
7	0	0	0	0	521	621	
8	0	0	0	0	521	622	
9	0	0	0	0	520	620	
10	0	0	0	0	521	622	
11	0	0	0	0	521	622	
12	0	0	0	0	522	622	
13	0	0	0	0	521	624	
14	0	0	0	0	521	623	
15	0	0	0	0	521	623	
0	0	0	0	0	522	624	
1	0	0	0	0	523	622	
2	0	0	0	0	524	624	
3	0	0	0	0	524	624	
4	0	0	0	0	524	624	
5	0	0	0	0	524	627	
6	0	0	0	0	524	625	
7	0	0	0	0	524	625	
8	0	0	0	0	525	625	
9	0	0	0	0	525	623	
10	0	0	0	0	526	626	
11	0	0	0	0	525	626	
12	0	0	0	0	526	626	
13	0	0	0	0	527	627	
14	0	0	0	0	527	625	
15	0	0	0	0	528	626	
0	0	0	0	0	529	626	
1	0	0	0	0	529	625	
2	0	0	0	0	531	626	
3	0	0	0	0	530	626	
4	0	0	0	0	531	627	
5	0	0	0	0	531	628	
6	0	0	0	0	531	627	
7	0	0	0	0	530	627	
8	0	0	0	0	530	627	
9	0	0	0	0	529	625	
10	0	0	0	0	529	627	
11	0	0	0	0	529	626	
12	0	0	0	0	529	626	
13	0	0	0	0	529	628	
14	0	0	0	0	530	626	
15	0	0	0	0	530	626	
0	0	0	0	0	530	626	
1	0	0	0	0	530	624	
2	0	0	0	0	530	625	
3	0	0	0	0	530	626	
4	0	0	0	0	530	625	
5	0	0	0	0	529	628	
6	0	0	0	0	529	626	
7	0	0	0	0	528	626	
8	0	0	0	0	528	627	
9	0	0	0	0	528	625	
10	0	0	0	0	528	627	
11	0	0	0	0	528	626	
12	0	0	0	0	527	627	
13	0	0	0	0	527	628	
14	0	0	0	0	527	627	
15	0	0	0	0	527	626	
0	0	0	0	0	526	627	
1	0	0	0	0	526	625	
2	0	0	0	0	526	626	
3	0	0	0	0	526	626	
4	0	0	0	0	525	626	
5	0	0	0	0	525	628	
6	0	0	0	0	524	627	
7	0	0	0	0	524	627	
8	0	0	0	0	523	626	
9	0	0	0	0	522	624	
10	0	0	0	0	520	626	
11	0	0	0	0	519	626	
12	0	0	0	0	518	627	
13	0	0	0	0	518	628	
14	0	0	0	0	517	626	
15	0	0	0	0	518	626	
0	0	0	0	0	517	625	
1	0	0	0	0	516	624	
2	0	0	0	0	515	625	
3	0	0	0	0	515	625	
4	0	0	0	0	516	625	
5	0	0	0	0	516	627	
6	0	0	0	0	515	626	
7	0	0	0	0	515	626	
8	0	0	0	0	515	626	
9	0	0	0	0	514	624	
10	0	0	0	0	513	626	
11	0	0	0	0	512	626	
12	0	0	0	0	511	625	
13	0	0	0	0	511	627	
14	0	0	0	0	511	625	
15	0	0	0	0	510	625	
0	0	0	0	0	509	625	
1	0	0	0	0	509	624	
2	0	0	0	0	508	625	
3	0	0	0	0	508	625	
4	0	0	0	0	508	625	
5	0	0	0	0	507	627	
6	0	0	0	0	507	625	
7	0	0	0	0	506	624	
8	0	0	0	0	506	625	
9	0	0	0	0	506	623	
10	0	0	0	0	506	625	
11	0	0	0	0	506	625	
12	0	0	0	0	506	624	
13	0	0	0	0	505	626	
14	0	0	0	0	506	624	
15	0	0	0	0	505	624	
0	0	0	0	0	505	624	
1	0	0	0	0	505	623	
2	0	0	0	0	504	624	
3	0	0	0	0	503	624	
4	0	0	0	0	502	624	
5	0	0	0	0	502	626	
6	0	0	0	0	502	624	
7	0	0	0	0	502	624	
8	0	0	0	0	502	623	
9	0	0	0	0	502	621	
10	0	0	0	0	502	623	
11	0	0	0	0	502	623	
12	0	0	0	0	502	623	
13	0	0	0	0	503	624	
14	0	0	0	0	503	623	
15	0	0	0	0	503	622	
0	0	0	0	0	503	622	
1	0	0	0	0	503	620	
2	0	0	0	0	503	622	
3	0	0	0	0	504	622	
4	0	0	0	0	503	621	
5	0	0	0	0	503	623	
6	0	0	0	0	503	621	
7	0	0	0	0	503	620	
8	0	0	0	0	503	621	
9	0	0	0	0	503	618	
10	0	0	0	0	502	620	
11	0	0	0	0	502	620	
12	0	0	0	0	502	620	
13	0	0	0	0	501	622	
14	0	0	0	0	500	620	
15	0	0	0	0	499	620	
0	0	0	0	0	499	619	
1	0	0	0	0	500	618	
2	0	0	0	0	501	620	
3	0	0	0	0	502	620	
4	0	0	0	0	503	620	
5	0	0	0	0	504	622	
6	0	0	0	0	504	620	
7	0	0	0	0	504	620	
8	0	0	0	0	503	620	
9	0	0	0	0	504	618	
10	0	0	0	0	505	620	
11	0	0	0	0	505	620	
12	0	0	0	0	505	621	
13	0	0	0	0	505	623	
14	0	0	0	0	505	620	
15	0	0	0	0	505	621	
0	0	0	0	0	505	621	
1	0	0	0	0	505	619	
2	0	0	0	0	505	622	
3	0	0	0	0	505	621	
4	0	0	0	0	505	622	
5	0	0	0	0	505	624	
6	0	0	0	0	505	622	
7	0	0	0	0	505	622	
8	0	0	0	0	504	623	
9	0	0	0	0	504	620	
10	0	0	0	0	504	622	
11	0	0	0	0	505	623	
12	0	0	0	0	505	622	
13	0	0	0	0	506	624	
14	0	0	0	0	506	622	
15	0	0	0	0	505	622	
0	0	0	0	0	505	623	
1	0	0	0	0	506	620	
2	0	0	0	0	506	622	
3	0	0	0	0	506	622	
4	0	0	0	0	505	622	
5	0	0	0	0	506	624	
6	0	0	0	0	505	622	
7	0	0	0	0	505	622	
8	0	0	0	0	506	622	
9	0	0	0	0	505	620	
10	0	0	0	0	506	622	
11	0	0	0	0	506	622	
12	0	0	0	0	506	620	
13	0	0	0	0	507	623	
14	0	0	0	0	507	621	
15	0	0	0	0	507	621	
0	0	0	0	0	507	620	
1	0	0	0	0	507	619	
2	0	0	0	0	508	621	
3	0	0	0	0	508	621	
4	0	0	0	0	508	621	
5	0	0	0	0	508	623	
6	0	0	0	0	510	621	
7	0	0	0	0	509	621	
8	0	0	0	0	509	621	
9	0	0	0	0	509	620	
10	0	0	0	0	509	622	
11	0	0	0	0	510	621	
12	0	0	0	0	509	621	
13	0	0	0	0	510	623	
14	0	0	0	0	510	622	
15	0	0	0	0	508	622	
0	0	0	0	0	510	622	
1	0	0	0	0	510	619	
2	0	0	0	0	510	621	
3	0	0	0	0	510	621	
4	0	0	0	0	510	621	
5	0	0	0	0	509	623	
6	0	0	0	0	509	621	
7	0	0	0	0	509	621	
8	0	0	0	0	510	621	
9	0	0	0	0	510	619	
10	0	0	0	0	510	621	
11	0	0	0	0	509	621	
12	0	0	0	0	508	621	
13	0	0	0	0	508	623	
14	0	0	0	0	507	621	
15	0	0	0	0	507	620	
0	0	0	0	0	507	621	
1	0	0	0	0	505	619	
2	0	0	0	0	506	621	
3	0	0	0	0	505	621	
4	0	0	0	0	506	621	
5	0	0	0	0	506	622	
6	0	0	0	0	505	621	
7	0	0	0	0	505	621	
8	0	0	0	0	505	621	
9	0	0	0	0	505	619	
10	0	0	0	0	505	621	
11	0	0	0	0	504	621	
12	0	0	0	0	504	621	
13	0	0	0	0	505	623	
14	0	0	0	0	504	622	
15	0	0	0	0	503	621	
0	0	0	0	0	504	622	
1	0	0	0	0	505	620	
2	0	0	0	0	505	622	
3	0	0	0	0	505	622	
4	0	0	0	0	505	622	
5	0	0	0	0	505	624	
6	0	0	0	0	505	623	
7	0	0	0	0	505	622	
8	0	0	0	0	505	623	
9	0	0	0	0	505	621	
10	0	0	0	0	504	623	
11	0	0	0	0	503	623	
12	0	0	0	0	502	623	
13	0	0	0	0	501	624	
14	0	0	0	0	501	623	
15	0	0	0	0	501	623	
0	0	0	0	0	502	623	
1	0	0	0	0	501	620	
2	0	0	0	0	501	622	
3	0	0	0	0	501	623	
4	0	0	0	0	500	623	
5	0	0	0	0	500	624	
6	0	0	0	0	500	623	
7	0	0	0	0	499	622	
8	0	0	0	0	498	622	
9	0	0	0	0	497	620	
10	0	0	0	0	498	623	
11	0	0	0	0	498	623	
12	0	0	0	0	498	623	
13	0	0	0	0	497	625	
14	0	0	0	0	498	623	
15	0	0	0	0	499	623	
0	0	0	0	0	500	623	
1	0	0	0	0	501	621	
2	0	0	0	0	502	622	
3	0	0	0	0	503	622	
4	0	0	0	0	503	623	
5	0	0	0	0	503	624	
6	0	0	0	0	503	622	
7	0	0	0	0	503	623	
8	0	0	0	0	504	622	
9	0	0	0	0	505	620	
10	0	0	0	0	506	622	
11	0	0	0	0	507	622	
12	0	0	0	0	506	622	
13	0	0	0	0	507	624	
14	0	0	0	0	507	623	
15	0	0	0	0	506	622	
0	0	0	0	0	505	622	
1	0	0	0	0	504	620	
2	0	0	0	0	504	622	
3	0	0	0	0	504	621	
4	0	0	0	0	503	621	
5	0	0	0	0	504	623	
6	0	0	0	0	504	621	
7	0	0	0	0	504	621	
8	0	0	0	0	505	620	
9	0	0	0	0	505	619	
10	0	0	0	0	506	621	
11	0	0	0	0	505	620	
12	0	0	0	0	504	620	
13	0	0	0	0	505	622	
14	0	0	0	0	505	620	
15	0	0	0	0	504	620	
0	0	0	0	0	504	621	
1	0	0	0	0	504	619	
2	0	0	0	0	503	621	
3	0	0	0	0	502	620	
4	0	0	0	0	503	620	
5	0	0	0	0	503	622	
6	0	0	0	0	502	620	
7	0	0	0	0	503	620	
8	0	0	0	0	503	620	
9	0	0	0	0	503	620	
10	0	0	0	0	504	622	
11	0	0	0	0	504	621	
12	0	0	0	0	504	621	
13	0	0	0	0	504	623	
14	0	0	0	0	505	621	
15	0	0	0	0	505	622	
0	0	0	0	0	504	621	
1	0	0	0	0	504	619	
2	0	0	0	0	504	622	
3	0	0	0	0	504	622	
4	0	0	0	0	504	622	
5	0	0	0	0	505	623	
6	0	0	0	0	505	622	
7	0	0	0	0	506	622	
8	0	0	0	0	507	622	
9	0	0	0	0	507	620	
10	0	0	0	0	508	621	
11	0	0	0	0	508	621	
12	0	0	0	0	508	621	
13	0	0	0	0	509	624	
14	0	0	0	0	510	622	
15	0	0	0	0	509	621	
0	0	0	0	0	508	622	
1	0	0	0	0	508	620	
2	0	0	0	0	508	622	
3	0	0	0	0	509	622	
4	0	0	0	0	509	622	
5	0	0	0	0	510	624	
6	0	0	0	0	510	622	
7	0	0	0	0	510	622	
8	0	0	0	0	511	622	
9	0	0	0	0	511	620	
10	0	0	0	0	511	622	
11	0	0	0	0	511	622	
12	0	0	0	0	511	622	
13	0	0	0	0	512	624	
14	0	0	0	0	512	622	
15	0	0	0	0	512	622	
0	0	0	0	0	512	622	
1	0	0	0	0	512	620	
2	0	0	0	0	512	622	
3	0	0	0	0	511	622	
4	0	0	0	0	511	622	
5	0	0	0	0	509	624	
6	0	0	0	0	508	622	
7	0	0	0	0	505	623	
8	0	0	0	0	503	622	
9	0	0	0	0	499	620	
10	0	0	0	0	495	622	
11	0	0	0	0	491	622	
12	0	0	0	0	486	622	
13	0	0	0	0	482	624	
14	0	0	0	0	479	623	
15	0	0	0	0	476	622	
0	0	0	0	0	475	622	
1	0	0	0	0	474	620	
2	0	0	0	0	473	622	
3	0	0	0	0	473	622	
4	0	0	0	0	473	622	
5	0	0	0	0	473	624	
6	0	0	0	0	475	622	
7	0	0	0	0	481	622	
8	0	0	0	0	492	622	
9	0	0	0	0	504	620	
10	0	0	0	0	519	622	
11	0	0	0	0	537	622	
12	0	0	0	0	555	622	
13	0	0	0	0	574	624	
14	0	0	0	0	593	623	
15	0	0	0	0	611	622	
0	0	0	0	0	629	622	
1	0	0	0	0	646	621	
2	0	0	0	0	659	623	
3	0	0	0	0	669	623	
4	0	0	0	0	678	623	
5	0	0	0	0	685	625	
6	0	0	0	0	691	623	
7	0	0	0	0	695	623	
8	0	0	0	0	696	623	
9	0	0	0	0	694	622	
10	0	0	0	0	686	624	
11	0	0	0	0	677	623	
12	0	0	0	0	667	623	
13	0	0	0	0	654	625	
14	0	0	0	0	639	624	
15	0	0	0	0	623	623	
0	0	0	0	0	604	623	
1	0	0	0	0	585	622	
2	0	0	0	0	570	623	
3	0	0	0	0	559	622	
4	0	0	0	0	550	623	
5	0	0	0	0	541	624	
6	0	0	0	0	533	623	
7	0	0	0	0	526	623	
8	0	0	0	0	520	623	
9	0	0	0	0	515	621	
10	0	0	0	0	510	624	
11	0	0	0	0	506	624	
12	0	0	0	0	503	623	
13	0	0	0	0	499	625	
14	0	0	0	0	496	624	
15	0	0	0	0	493	623	
0	0	0	0	0	490	623	
1	0	0	0	0	488	622	
2	0	0	0	0	486	624	
3	0	0	0	0	485	623	
4	0	0	0	0	484	623	
5	0	0	0	0	484	625	
6	0	0	0	0	484	624	
7	0	0	0	0	484	624	
8	0	0	0	0	483	624	
9	0	0	0	0	482	622	
10	0	0	0	0	481	624	
11	0	0	0	0	480	625	
12	0	0	0	0	480	624	
13	0	0	0	0	480	626	
14	0	0	0	0	480	624	
15	0	0	0	0	480	624	
0	0	0	0	0	480	625	
1	0	0	0	0	480	623	
2	0	0	0	0	480	624	
3	0	0	0	0	480	624	
4	0	0	0	0	479	625	
5	0	0	0	0	478	626	
6	0	0	0	0	479	625	
7	0	0	0	0	480	625	
8	0	0	0	0	480	625	
9	0	0	0	0	480	624	
10	0	0	0	0	480	625	
11	0	0	0	0	481	625	
12	0	0	0	0	481	624	
13	0	0	0	0	481	627	
14	0	0	0	0	482	626	
15	0	0	0	0	481	625	
0	0	0	0	0	482	625	
1	0	0	0	0	482	624	
2	0	0	0	0	482	625	
3	0	0	0	0	483	625	
4	0	0	0	0	483	625	
5	0	0	0	0	484	627	
6	0	0	0	0	485	625	
7	0	0	0	0	484	625	
8	0	0	0	0	484	625	
9	0	0	0	0	484	623	
10	0	0	0	0	485	624	
11	0	0	0	0	485	624	
12	0	0	0	0	486	624	
13	0	0	0	0	486	626	
14	0	0	0	0	485	624	
15	0	0	0	0	486	625	
0	0	0	0	0	487	624	
1	0	0	0	0	487	623	
2	0	0	0	0	486	625	
3	0	0	0	0	486	625	
4	0	0	0	0	486	625	
5	0	0	0	0	485	627	
6	0	0	0	0	484	625	
7	0	0	0	0	485	625	
8	0	0	0	0	486	625	
9	0	0	0	0	487	624	
10	0	0	0	0	487	625	
11	0	0	0	0	487	625	
12	0	0	0	0	487	625	
13	0	0	0	0	488	627	
14	0	0	0	0	490	625	
15	0	0	0	0	491	625	
0	0	0	0	0	492	625	
1	0	0	0	0	494	623	
2	0	0	0	0	494	625	
3	0	0	0	0	494	625	
4	0	0	0	0	494	624	
5	0	0	0	0	493	626	
6	0	0	0	0	493	625	
7	0	0	0	0	493	624	
8	0	0	0	0	493	624	
9	0	0	0	0	494	622	
10	0	0	0	0	493	624	
11	0	0	0	0	493	623	
12	0	0	0	0	493	623	
13	0	0	0	0	494	625	
14	0	0	0	0	495	622	
15	0	0	0	0	496	623	
0	0	0	0	0	496	623	
1	0	0	0	0	495	620	
2	0	0	0	0	495	622	
3	0	0	0	0	495	622	
4	0	0	0	0	495	622	
5	0	0	0	0	495	624	
6	0	0	0	0	496	622	
7	0	0	0	0	496	622	
8	0	0	0	0	497	621	
9	0	0	0	0	498	619	
10	0	0	0	0	498	622	
11	0	0	0	0	498	621	
12	0	0	0	0	498	620	
13	0	0	0	0	498	622	
14	0	0	0	0	498	620	
15	0	0	0	0	499	620	
0	0	0	0	0	499	620	
1	0	0	0	0	500	619	
2	0	0	0	0	500	620	
3	0	0	0	0	501	620	
4	0	0	0	0	501	620	
5	0	0	0	0	501	622	
6	0	0	0	0	503	620	
7	0	0	0	0	503	621	
8	0	0	0	0	503	621	
9	0	0	0	0	504	619	
10	0	0	0	0	505	621	
11	0	0	0	0	505	622	
12	0	0	0	0	506	621	
13	0	0	0	0	507	623	
14	0	0	0	0	508	623	
15	0	0	0	0	508	622	
0	0	0	0	0	508	622	
1	0	0	0	0	508	620	
2	0	0	0	0	508	622	
3	0	0	0	0	508	623	
4	0	0	0	0	508	624	
5	0	0	0	0	506	624	
6	0	0	0	0	507	623	
7	0	0	0	0	508	624	
8	0	0	0	0	509	624	
9	0	0	0	0	510	622	
10	0	0	0	0	511	624	
11	0	0	0	0	511	624	
12	0	0	0	0	512	624	
13	0	0	0	0	513	626	
14	0	0	0	0	514	624	
15	0	0	0	0	514	625	
0	0	0	0	0	514	625	
1	0	0	0	0	514	623	
2	0	0	0	0	514	625	
3	0	0	0	0	514	625	
4	0	0	0	0	514	624	
5	0	0	0	0	515	626	
6	0	0	0	0	515	624	
7	0	0	0	0	515	624	
8	0	0	0	0	515	625	
9	0	0	0	0	516	623	
10	0	0	0	0	516	624	
11	0	0	0	0	517	624	
12	0	0	0	0	517	625	
13	0	0	0	0	518	626	
14	0	0	0	0	518	625	
15	0	0	0	0	519	624	
0	0	0	0	0	519	624	
1	0	0	0	0	520	622	
2	0	0	0	0	520	624	
3	0	0	0	0	520	624	
4	0	0	0	0	520	624	
5	0	0	0	0	521	625	
6	0	0	0	0	521	623	
7	0	0	0	0	522	623	
8	0	0	0	0	522	623	
9	0	0	0	0	524	622	
10	0	0	0	0	523	623	
11	0	0	0	0	524	624	
12	0	0	0	0	524	623	
13	0	0	0	0	524	625	
14	0	0	0	0	524	623	
15	0	0	0	0	524	624	
0	0	0	0	0	524	623	
1	0	0	0	0	523	621	
2	0	0	0	0	521	623	
3	0	0	0	0	521	623	
4	0	0	0	0	520	623	
5	0	0	0	0	520	625	
6	0	0	0	0	519	623	
7	0	0	0	0	520	623	
8	0	0	0	0	520	623	
9	0	0	0	0	519	620	
10	0	0	0	0	520	622	
11	0	0	0	0	520	622	
12	0	0	0	0	520	622	
13	0	0	0	0	520	624	
14	0	0	0	0	521	622	
15	0	0	0	0	521	622	
0	0	0	0	0	520	621	
1	0	0	0	0	520	620	
2	0	0	0	0	520	622	
3	0	0	0	0	520	621	
4	0	0	0	0	520	622	
5	0	0	0	0	519	624	
6	0	0	0	0	518	622	
7	0	0	0	0	518	623	
8	0	0	0	0	517	623	
9	0	0	0	0	516	621	
10	0	0	0	0	515	623	
11	0	0	0	0	515	623	
12	0	0	0	0	515	623	
13	0	0	0	0	515	625	
14	0	0	0	0	514	623	
15	0	0	0	0	513	623	
0	0	0	0	0	513	624	
1	0	0	0	0	512	622	
2	0	0	0	0	512	624	
3	0	0	0	0	512	624	
4	0	0	0	0	512	623	
5	0	0	0	0	512	625	
6	0	0	0	0	512	623	
7	0	0	0	0	511	623	
8	0	0	0	0	511	624	
9	0	0	0	0	511	623	
10	0	0	0	0	511	624	
11	0	0	0	0	512	624	
12	0	0	0	0	512	624	
13	0	0	0	0	511	625	
14	0	0	0	0	511	624	
15	0	0	0	0	511	625	
0	0	0	0	0	509	625	
1	0	0	0	0	508	622	
2	0	0	0	0	506	624	
3	0	0	0	0	505	624	
4	0	0	0	0	504	625	
5	0	0	0	0	504	626	
6	0	0	0	0	503	625	
7	0	0	0	0	503	625	
8	0	0	0	0	503	625	
9	0	0	0	0	502	623	
10	0	0	0	0	500	625	
11	0	0	0	0	499	625	
12	0	0	0	0	499	625	
13	0	0	0	0	498	627	
14	0	0	0	0	497	624	
15	0	0	0	0	497	625	
0	0	0	0	0	497	625	
1	0	0	0	0	497	623	
2	0	0	0	0	497	625	
3	0	0	0	0	496	624	
4	0	0	0	0	496	624	
5	0	0	0	0	496	626	
6	0	0	0	0	496	625	
7	0	0	0	0	496	625	
8	0	0	0	0	496	625	
9	0	0	0	0	496	624	
10	0	0	0	0	496	624	
11	0	0	0	0	496	625	
12	0	0	0	0	496	624	
13	0	0	0	0	496	625	
14	0	0	0	0	497	624	
15	0	0	0	0	498	624	
0	0	0	0	0	498	623	
1	0	0	0	0	498	621	
2	0	0	0	0	498	623	
3	0	0	0	0	499	623	
4	0	0	0	0	499	623	
5	0	0	0	0	499	624	
6	0	0	0	0	499	622	
7	0	0	0	0	499	622	
8	0	0	0	0	499	622	
9	0	0	0	0	498	619	
10	0	0	0	0	498	622	
11	0	0	0	0	499	622	
12	0	0	0	0	499	622	
13	0	0	0	0	499	623	
14	0	0	0	0	499	621	
15	0	0	0	0	499	622	
0	0	0	0	0	499	621	
1	0	0	0	0	500	620	
2	0	0	0	0	500	621	
3	0	0	0	0	500	621	
4	0	0	0	0	501	621	
5	0	0	0	0	500	622	
6	0	0	0	0	500	621	
7	0	0	0	0	500	621	
8	0	0	0	0	500	621	
9	0	0	0	0	500	619	
10	0	0	0	0	500	621	
11	0	0	0	0	500	621	
12	0	0	0	0	501	621	
13	0	0	0	0	501	623	
14	0	0	0	0	502	622	
15	0	0	0	0	502	622	
0	0	0	0	0	502	622	
1	0	0	0	0	503	620	
2	0	0	0	0	503	622	
3	0	0	0	0	504	622	
4	0	0	0	0	504	622	
5	0	0	0	0	504	624	
6	0	0	0	0	504	622	
7	0	0	0	0	504	622	
8	0	0	0	0	504	622	
9	0	0	0	0	505	620	
10	0	0	0	0	505	622	
11	0	0	0	0	506	623	
12	0	0	0	0	507	623	
13	0	0	0	0	508	625	
14	0	0	0	0	508	623	
15	0	0	0	0	508	623	
0	0	0	0	0	508	623	
1	0	0	0	0	507	621	
2	0	0	0	0	506	624	
3	0	0	0	0	505	624	
4	0	0	0	0	505	624	
5	0	0	0	0	504	626	
6	0	0	0	0	503	624	
7	0	0	0	0	502	624	
8	0	0	0	0	502	624	
9	0	0	0	0	503	622	
10	0	0	0	0	502	623	
11	0	0	0	0	502	623	
12	0	0	0	0	502	623	
13	0	0	0	0	502	624	
14	0	0	0	0	502	623	
15	0	0	0	0	502	623	
0	0	0	0	0	502	622	
1	0	0	0	0	503	621	
2	0	0	0	0	503	623	
3	0	0	0	0	504	622	
4	0	0	0	0	505	622	
5	0	0	0	0	505	624	
6	0	0	0	0	505	623	
7	0	0	0	0	505	623	
8	0	0	0	0	506	622	
9	0	0	0	0	505	621	
10	0	0	0	0	505	623	
11	0	0	0	0	506	623	
12	0	0	0	0	505	622	
13	0	0	0	0	504	624	
14	0	0	0	0	504	623	
15	0	0	0	0	504	623	
0	0	0	0	0	503	623	
1	0	0	0	0	502	620	
2	0	0	0	0	503	623	
3	0	0	0	0	503	622	
4	0	0	0	0	503	622	
5	0	0	0	0	504	624	
6	0	0	0	0	503	622	
7	0	0	0	0	503	622	
8	0	0	0	0	504	622	
9	0	0	0	0	503	620	
10	0	0	0	0	504	622	
11	0	0	0	0	504	622	
12	0	0	0	0	504	621	
13	0	0	0	0	504	623	
14	0	0	0	0	504	622	
15	0	0	0	0	505	622	
0	0	0	0	0	505	621	
1	0	0	0	0	505	620	
2	0	0	0	0	505	622	
3	0	0	0	0	506	621	
4	0	0	0	0	505	621	
5	0	0	0	0	504	624	
6	0	0	0	0	503	621	
7	0	0	0	0	501	622	
8	0	0	0	0	500	621	
9	0	0	0	0	499	619	
10	0	0	0	0	499	621	
11	0	0	0	0	499	621	
12	0	0	0	0	499	622	
13	0	0	0	0	499	624	
14	0	0	0	0	499	622	
15	0	0	0	0	499	621	
0	0	0	0	0	499	622	
1	0	0	0	0	499	619	
2	0	0	0	0	499	622	
3	0	0	0	0	499	622	
4	0	0	0	0	499	621	
5	0	0	0	0	500	623	
6	0	0	0	0	500	621	
7	0	0	0	0	499	621	
8	0	0	0	0	499	622	
9	0	0	0	0	498	620	
10	0	0	0	0	498	621	
11	0	0	0	0	497	621	
12	0	0	0	0	497	621	
13	0	0	0	0	497	623	
14	0	0	0	0	496	621	
15	0	0	0	0	496	620	
0	0	0	0	0	497	621	
1	0	0	0	0	497	619	
2	0	0	0	0	497	621	
3	0	0	0	0	498	621	
4	0	0	0	0	498	622	
5	0	0	0	0	499	624	
6	0	0	0	0	499	622	
7	0	0	0	0	500	621	
8	0	0	0	0	501	621	
9	0	0	0	0	501	620	
10	0	0	0	0	501	622	
11	0	0	0	0	501	622	
12	0	0	0	0	502	622	
13	0	0	0	0	503	623	
14	0	0	0	0	504	622	
15	0	0	0	0	505	622	
0	0	0	0	0	504	622	
1	0	0	0	0	504	619	
2	0	0	0	0	505	621	
3	0	0	0	0	505	622	
4	0	0	0	0	506	621	
5	0	0	0	0	505	622	
6	0	0	0	0	505	621	
7	0	0	0	0	505	621	
8	0	0	0	0	505	620	
9	0	0	0	0	504	619	
10	0	0	0	0	504	621	
11	0	0	0	0	504	621	
12	0	0	0	0	504	622	
13	0	0	0	0	506	623	
14	0	0	0	0	506	621	
15	0	0	0	0	505	621	
0	0	0	0	0	505	621	
1	0	0	0	0	506	619	
2	0	0	0	0	506	621	
3	0	0	0	0	505	621	
4	0	0	0	0	505	622	
5	0	0	0	0	505	624	
6	0	0	0	0	505	622	
7	0	0	0	0	505	622	
8	0	0	0	0	506	622	
9	0	0	0	0	506	620	
10	0	0	0	0	506	622	
11	0	0	0	0	507	622	
12	0	0	0	0	508	622	
13	0	0	0	0	508	624	
14	0	0	0	0	508	622	
15	0	0	0	0	508	622	
0	0	0	0	0	509	622	
1	0	0	0	0	509	620	
2	0	0	0	0	509	622	
3	0	0	0	0	509	622	
4	0	0	0	0	509	622	
5	0	0	0	0	509	624	
6	0	0	0	0	508	623	
7	0	0	0	0	507	622	
8	0	0	0	0	507	622	
9	0	0	0	0	508	621	
10	0	0	0	0	508	623	
11	0	0	0	0	508	623	
12	0	0	0	0	508	622	
13	0	0	0	0	509	624	
14	0	0	0	0	509	623	
15	0	0	0	0	509	622	
0	0	0	0	0	509	623	
1	0	0	0	0	509	620	
2	0	0	0	0	509	622	
3	0	0	0	0	509	623	
4	0	0	0	0	509	622	
5	0	0	0	0	508	624	
6	0	0	0	0	508	623	
7	0	0	0	0	507	622	
8	0	0	0	0	506	622	
9	0	0	0	0	506	620	
10	0	0	0	0	507	622	
11	0	0	0	0	507	623	
12	0	0	0	0	507	623	
13	0	0	0	0	508	625	
14	0	0	0	0	507	622	
15	0	0	0	0	507	623	
0	0	0	0	0	506	623	
1	0	0	0	0	507	621	
2	0	0	0	0	507	622	
3	0	0	0	0	507	623	
4	0	0	0	0	507	623	
5	0	0	0	0	507	625	
6	0	0	0	0	507	622	
7	0	0	0	0	507	623	
8	0	0	0	0	506	623	
9	0	0	0	0	506	622	
10	0	0	0	0	506	624	
11	0	0	0	0	506	624	
12	0	0	0	0	505	624	
13	0	0	0	0	503	625	
14	0	0	0	0	499	624	
15	0	0	0	0	495	623	
0	0	0	0	0	489	623	
1	0	0	0	0	484	622	
2	0	0	0	0	479	624	
3	0	0	0	0	476	624	
4	0	0	0	0	474	623	
5	0	0	0	0	472	625	
6	0	0	0	0	470	624	
7	0	0	0	0	469	624	
8	0	0	0	0	468	624	
9	0	0	0	0	467	622	
10	0	0	0	0	467	624	
11	0	0	0	0	469	625	
12	0	0	0	0	473	623	
13	0	0	0	0	482	625	
14	0	0	0	0	494	624	
15	0	0	0	0	507	624	
0	0	0	0	0	524	624	
1	0	0	0	0	543	622	
2	0	0	0	0	561	625	
3	0	0	0	0	579	624	
4	0	0	0	0	598	624	
5	0	0	0	0	615	626	
6	0	0	0	0	631	625	
7	0	0	0	0	646	625	
8	0	0	0	0	658	624	
9	0	0	0	0	668	623	
10	0	0	0	0	678	625	
11	0	0	0	0	685	625	
12	0	0	0	0	691	624	
13	0	0	0	0	694	626	
14	0	0	0	0	694	625	
15	0	0	0	0	690	625	
0	0	0	0	0	681	625	
1	0	0	0	0	671	623	
2	0	0	0	0	660	625	
3	0	0	0	0	646	625	
4	0	0	0	0	631	625	
5	0	0	0	0	612	626	
6	0	0	0	0	593	624	
7	0	0	0	0	575	624	
8	0	0	0	0	560	624	
9	0	0	0	0	549	622	
10	0	0	0	0	540	623	
11	0	0	0	0	532	623	
12	0	0	0	0	524	623	
13	0	0	0	0	516	624	
14	0	0	0	0	511	623	
15	0	0	0	0	505	623	
0	0	0	0	0	500	623	
1	0	0	0	0	496	621	
2	0	0	0	0	492	623	
3	0	0	0	0	488	623	
4	0	0	0	0	485	623	
5	0	0	0	0	483	625	
6	0	0	0	0	480	622	
7	0	0	0	0	479	622	
8	0	0	0	0	476	623	
9	0	0	0	0	475	621	
10	0	0	0	0	474	623	
11	0	0	0	0	472	622	
12	0	0	0	0	471	622	
13	0	0	0	0	471	624	
14	0	0	0	0	471	622	
15	0	0	0	0	470	623	
0	0	0	0	0	470	622	
1	0	0	0	0	469	620	
2	0	0	0	0	470	622	
3	0	0	0	0	470	622	
4	0	0	0	0	469	622	
5	0	0	0	0	470	624	
6	0	0	0	0	469	622	
7	0	0	0	0	470	623	
8	0	0	0	0	470	622	
9	0	0	0	0	470	621	
10	0	0	0	0	469	622	
11	0	0	0	0	470	622	
12	0	0	0	0	469	622	
13	0	0	0	0	470	624	
14	0	0	0	0	471	623	
15	0	0	0	0	471	622	
0	0	0	0	0	471	623	
1	0	0	0	0	472	622	
2	0	0	0	0	472	624	
3	0	0	0	0	472	623	
4	0	0	0	0	472	623	
5	0	0	0	0	472	624	
6	0	0	0	0	472	623	
7	0	0	0	0	472	624	
8	0	0	0	0	473	624	
9	0	0	0	0	473	621	
10	0	0	0	0	473	623	
11	0	0	0	0	473	623	
12	0	0	0	0	473	623	
13	0	0	0	0	473	625	
14	0	0	0	0	473	623	
15	0	0	0	0	473	622	
0	0	0	0	0	475	623	
1	0	0	0	0	475	620	
2	0	0	0	0	476	623	
3	0	0	0	0	476	622	
4	0	0	0	0	476	622	
5	0	0	0	0	476	625	
6	0	0	0	0	476	623	
7	0	0	0	0	476	623	
8	0	0	0	0	476	622	
9	0	0	0	0	477	620	
10	0	0	0	0	477	623	
11	0	0	0	0	477	622	
12	0	0	0	0	478	623	
13	0	0	0	0	479	625	
14	0	0	0	0	479	623	
15	0	0	0	0	479	623	
0	0	0	0	0	479	624	
1	0	0	0	0	480	622	
2	0	0	0	0	480	624	
3	0	0	0	0	480	624	
4	0	0	0	0	480	624	
5	0	0	0	0	481	625	
6	0	0	0	0	481	624	
7	0	0	0	0	482	624	
8	0	0	0	0	483	624	
9	0	0	0	0	483	622	
10	0	0	0	0	483	623	
11	0	0	0	0	483	623	
12	0	0	0	0	484	624	
13	0	0	0	0	484	625	
14	0	0	0	0	484	623	
15	0	0	0	0	485	623	
0	0	0	0	0	486	622	
1	0	0	0	0	486	620	
2	0	0	0	0	487	622	
3	0	0	0	0	486	622	
4	0	0	0	0	487	621	
5	0	0	0	0	488	623	
6	0	0	0	0	488	621	
7	0	0	0	0	487	621	
8	0	0	0	0	487	622	
9	0	0	0	0	487	620	
10	0	0	0	0	487	622	
11	0	0	0	0	488	622	
12	0	0	0	0	489	622	
13	0	0	0	0	489	623	
14	0	0	0	0	489	622	
15	0	0	0	0	490	622	
0	0	0	0	0	490	622	
1	0	0	0	0	489	620	
2	0	0	0	0	489	621	
3	0	0	0	0	489	621	
4	0	0	0	0	490	621	
5	0	0	0	0	490	622	
6	0	0	0	0	490	621	
7	0	0	0	0	491	621	
8	0	0	0	0	490	620	
9	0	0	0	0	491	618	
10	0	0	0	0	491	620	
11	0	0	0	0	492	620	
12	0	0	0	0	492	620	
13	0	0	0	0	492	622	
14	0	0	0	0	492	620	
15	0	0	0	0	492	620	
0	0	0	0	0	492	620	
1	0	0	0	0	493	618	
2	0	0	0	0	493	620	
3	0	0	0	0	493	621	
4	0	0	0	0	493	620	
5	0	0	0	0	493	623	
6	0	0	0	0	494	620	
7	0	0	0	0	494	621	
8	0	0	0	0	495	621	
9	0	0	0	0	495	619	
10	0	0	0	0	495	621	
11	0	0	0	0	496	621	
12	0	0	0	0	496	621	
13	0	0	0	0	496	623	
14	0	0	0	0	497	621	
15	0	0	0	0	497	622	
0	0	0	0	0	498	622	
1	0	0	0	0	498	620	
2	0	0	0	0	499	622	
3	0	0	0	0	500	622	
4	0	0	0	0	502	622	
5	0	0	0	0	503	624	
6	0	0	0	0	503	623	
7	0	0	0	0	503	622	
8	0	0	0	0	503	623	
9	0	0	0	0	504	621	
10	0	0	0	0	504	622	
11	0	0	0	0	504	622	
12	0	0	0	0	505	623	
13	0	0	0	0	505	625	
14	0	0	0	0	505	623	
15	0	0	0	0	505	623	
0	0	0	0	0	505	623	
1	0	0	0	0	506	622	
2	0	0	0	0	507	623	
3	0	0	0	0	507	623	
4	0	0	0	0	508	623	
5	0	0	0	0	510	626	
6	0	0	0	0	511	623	
7	0	0	0	0	511	623	
8	0	0	0	0	512	624	
9	0	0	0	0	513	622	
10	0	0	0	0	512	624	
11	0	0	0	0	512	624	
12	0	0	0	0	512	624	
13	0	0	0	0	512	625	
14	0	0	0	0	513	624	
15	0	0	0	0	512	623	
0	0	0	0	0	512	624	
1	0	0	0	0	512	621	
2	0	0	0	0	513	624	
3	0	0	0	0	513	623	
