# OpenSignals Text File Format. Version 1
# {"98:D3:91:FD:69:48": {"position": 0, "device": "bitalino_rev", "device name": "98:D3:91:FD:69:48", "device connection": "BTH98:D3:91:FD:69:48", "sampling rate": 1000, "resolution": [4, 1, 1, 1, 1, 10, 10], "firmware version": 1281, "comments": "", "keywords": "", "mode": 0, "sync interval": 2, "date": "2021-9-8", "time": "19:1:26.266", "channels": [2, 5], "sensor": ["RAW", "RAW"], "label": ["A2", "A5"], "column": ["nSeq", "I1", "I2", "O1", "O2", "A2", "A5"], "special": [{}, {}], "digital IO": [0, 0, 1, 1], "convertedValues": 0}}
# EndOfHeader
0	0	0	0	0	515	595	
1	0	0	0	0	515	596	
2	0	0	0	0	514	595	
3	0	0	0	0	513	595	
4	0	0	0	0	512	596	
5	0	0	0	0	512	595	
6	0	0	0	0	513	595	
7	0	0	0	0	513	596	
8	0	0	0	0	513	595	
9	0	0	0	0	514	596	
10	0	0	0	0	514	596	
11	0	0	0	0	514	596	
12	0	0	0	0	514	595	
13	0	0	0	0	514	595	
14	0	0	0	0	514	595	
15	0	0	0	0	514	596	
0	0	0	0	0	513	595	
1	0	0	0	0	513	595	
2	0	0	0	0	511	595	
3	0	0	0	0	512	595	
4	0	0	0	0	513	595	
5	0	0	0	0	513	595	
6	0	0	0	0	513	595	
7	0	0	0	0	513	595	
8	0	0	0	0	513	595	
9	0	0	0	0	513	595	
10	0	0	0	0	513	595	
11	0	0	0	0	514	595	
12	0	0	0	0	515	595	
13	0	0	0	0	515	595	
14	0	0	0	0	516	595	
15	0	0	0	0	516	596	
0	0	0	0	0	515	595	
1	0	0	0	0	515	595	
2	0	0	0	0	514	595	
3	0	0	0	0	513	595	
4	0	0	0	0	512	595	
5	0	0	0	0	512	595	
6	0	0	0	0	512	595	
7	0	0	0	0	511	595	
8	0	0	0	0	512	595	
9	0	0	0	0	513	595	
10	0	0	0	0	512	595	
11	0	0	0	0	512	595	
12	0	0	0	0	513	595	
13	0	0	0	0	513	595	
14	0	0	0	0	513	595	
15	0	0	0	0	514	595	
0	0	0	0	0	515	595	
1	0	0	0	0	515	595	
2	0	0	0	0	516	595	
3	0	0	0	0	517	595	
4	0	0	0	0	518	595	
5	0	0	0	0	518	595	
6	0	0	0	0	518	595	
7	0	0	0	0	518	595	
8	0	0	0	0	517	595	
9	0	0	0	0	516	595	
10	0	0	0	0	515	595	
11	0	0	0	0	515	595	
12	0	0	0	0	515	595	
13	0	0	0	0	515	595	
14	0	0	0	0	514	595	
15	0	0	0	0	513	596	
0	0	0	0	0	512	595	
1	0	0	0	0	512	595	
2	0	0	0	0	512	596	
3	0	0	0	0	512	595	
4	0	0	0	0	512	595	
5	0	0	0	0	512	595	
6	0	0	0	0	512	595	
7	0	0	0	0	513	596	
8	0	0	0	0	513	596	
9	0	0	0	0	512	596	
10	0	0	0	0	513	596	
11	0	0	0	0	513	596	
12	0	0	0	0	513	596	
13	0	0	0	0	513	596	
14	0	0	0	0	514	596	
15	0	0	0	0	514	596	
0	0	0	0	0	514	596	
1	0	0	0	0	514	595	
2	0	0	0	0	514	596	
3	0	0	0	0	514	596	
4	0	0	0	0	513	596	
5	0	0	0	0	513	596	
6	0	0	0	0	513	596	
7	0	0	0	0	512	596	
8	0	0	0	0	511	596	
9	0	0	0	0	510	596	
10	0	0	0	0	510	596	
11	0	0	0	0	510	596	
12	0	0	0	0	510	596	
13	0	0	0	0	510	596	
14	0	0	0	0	512	597	
15	0	0	0	0	512	597	
0	0	0	0	0	512	596	
1	0	0	0	0	512	596	
2	0	0	0	0	511	596	
3	0	0	0	0	511	597	
4	0	0	0	0	510	597	
5	0	0	0	0	510	598	
6	0	0	0	0	509	596	
7	0	0	0	0	508	598	
8	0	0	0	0	508	597	
9	0	0	0	0	508	597	
10	0	0	0	0	507	597	
11	0	0	0	0	507	597	
12	0	0	0	0	507	597	
13	0	0	0	0	506	598	
14	0	0	0	0	506	598	
15	0	0	0	0	508	598	
0	0	0	0	0	508	597	
1	0	0	0	0	508	598	
2	0	0	0	0	508	598	
3	0	0	0	0	508	598	
4	0	0	0	0	508	598	
5	0	0	0	0	507	598	
6	0	0	0	0	506	598	
7	0	0	0	0	505	598	
8	0	0	0	0	505	597	
9	0	0	0	0	505	597	
10	0	0	0	0	504	597	
11	0	0	0	0	505	598	
12	0	0	0	0	505	597	
13	0	0	0	0	505	598	
14	0	0	0	0	505	597	
15	0	0	0	0	506	598	
0	0	0	0	0	506	598	
1	0	0	0	0	507	598	
2	0	0	0	0	507	598	
3	0	0	0	0	507	598	
4	0	0	0	0	507	597	
5	0	0	0	0	508	597	
6	0	0	0	0	508	597	
7	0	0	0	0	511	598	
8	0	0	0	0	512	597	
9	0	0	0	0	513	597	
10	0	0	0	0	513	597	
11	0	0	0	0	514	598	
12	0	0	0	0	514	596	
13	0	0	0	0	514	597	
14	0	0	0	0	514	596	
15	0	0	0	0	513	597	
0	0	0	0	0	512	596	
1	0	0	0	0	511	596	
2	0	0	0	0	511	596	
3	0	0	0	0	511	597	
4	0	0	0	0	511	597	
5	0	0	0	0	511	597	
6	0	0	0	0	512	596	
7	0	0	0	0	513	597	
8	0	0	0	0	515	596	
9	0	0	0	0	515	596	
10	0	0	0	0	515	597	
11	0	0	0	0	516	597	
12	0	0	0	0	516	596	
13	0	0	0	0	516	596	
14	0	0	0	0	515	595	
15	0	0	0	0	514	596	
0	0	0	0	0	513	596	
1	0	0	0	0	512	595	
2	0	0	0	0	512	596	
3	0	0	0	0	512	595	
4	0	0	0	0	512	596	
5	0	0	0	0	511	595	
6	0	0	0	0	511	596	
7	0	0	0	0	511	596	
8	0	0	0	0	511	595	
9	0	0	0	0	512	595	
10	0	0	0	0	512	595	
11	0	0	0	0	513	596	
12	0	0	0	0	513	595	
13	0	0	0	0	513	595	
14	0	0	0	0	513	595	
15	0	0	0	0	513	596	
0	0	0	0	0	512	595	
1	0	0	0	0	512	595	
2	0	0	0	0	512	595	
3	0	0	0	0	512	596	
4	0	0	0	0	511	596	
5	0	0	0	0	511	596	
6	0	0	0	0	511	595	
7	0	0	0	0	511	597	
8	0	0	0	0	512	595	
9	0	0	0	0	511	596	
10	0	0	0	0	511	596	
11	0	0	0	0	511	596	
12	0	0	0	0	511	595	
13	0	0	0	0	511	595	
14	0	0	0	0	511	596	
15	0	0	0	0	511	596	
0	0	0	0	0	511	596	
1	0	0	0	0	511	595	
2	0	0	0	0	510	595	
3	0	0	0	0	509	595	
4	0	0	0	0	509	596	
5	0	0	0	0	508	596	
6	0	0	0	0	508	595	
7	0	0	0	0	508	596	
8	0	0	0	0	508	595	
9	0	0	0	0	508	595	
10	0	0	0	0	508	595	
11	0	0	0	0	508	595	
12	0	0	0	0	508	595	
13	0	0	0	0	508	595	
14	0	0	0	0	507	596	
15	0	0	0	0	506	596	
0	0	0	0	0	504	596	
1	0	0	0	0	503	595	
2	0	0	0	0	501	595	
3	0	0	0	0	498	595	
4	0	0	0	0	496	595	
5	0	0	0	0	492	595	
6	0	0	0	0	488	595	
7	0	0	0	0	483	596	
8	0	0	0	0	479	595	
9	0	0	0	0	475	595	
10	0	0	0	0	470	595	
11	0	0	0	0	467	596	
12	0	0	0	0	464	596	
13	0	0	0	0	461	595	
14	0	0	0	0	459	596	
15	0	0	0	0	457	596	
0	0	0	0	0	457	595	
1	0	0	0	0	456	595	
2	0	0	0	0	456	596	
3	0	0	0	0	457	596	
4	0	0	0	0	461	595	
5	0	0	0	0	466	595	
6	0	0	0	0	475	595	
7	0	0	0	0	485	597	
8	0	0	0	0	496	595	
9	0	0	0	0	510	596	
10	0	0	0	0	525	596	
11	0	0	0	0	540	596	
12	0	0	0	0	556	596	
13	0	0	0	0	572	595	
14	0	0	0	0	584	595	
15	0	0	0	0	596	596	
0	0	0	0	0	606	595	
1	0	0	0	0	615	595	
2	0	0	0	0	623	595	
3	0	0	0	0	630	595	
4	0	0	0	0	636	595	
5	0	0	0	0	641	595	
6	0	0	0	0	643	595	
7	0	0	0	0	644	595	
8	0	0	0	0	643	595	
9	0	0	0	0	643	595	
10	0	0	0	0	639	595	
11	0	0	0	0	636	595	
12	0	0	0	0	631	595	
13	0	0	0	0	626	595	
14	0	0	0	0	620	594	
15	0	0	0	0	612	595	
0	0	0	0	0	604	595	
1	0	0	0	0	596	595	
2	0	0	0	0	588	595	
3	0	0	0	0	579	596	
4	0	0	0	0	571	595	
5	0	0	0	0	563	595	
6	0	0	0	0	555	596	
7	0	0	0	0	547	595	
8	0	0	0	0	539	595	
9	0	0	0	0	532	596	
10	0	0	0	0	526	595	
11	0	0	0	0	520	595	
12	0	0	0	0	515	595	
13	0	0	0	0	512	595	
14	0	0	0	0	510	596	
15	0	0	0	0	508	596	
0	0	0	0	0	505	595	
1	0	0	0	0	503	596	
2	0	0	0	0	501	595	
3	0	0	0	0	498	596	
4	0	0	0	0	495	596	
5	0	0	0	0	494	595	
6	0	0	0	0	492	595	
7	0	0	0	0	492	596	
8	0	0	0	0	492	596	
9	0	0	0	0	491	595	
10	0	0	0	0	490	595	
11	0	0	0	0	489	596	
12	0	0	0	0	488	596	
13	0	0	0	0	488	595	
14	0	0	0	0	488	595	
15	0	0	0	0	488	596	
0	0	0	0	0	488	596	
1	0	0	0	0	488	596	
2	0	0	0	0	488	596	
3	0	0	0	0	487	596	
4	0	0	0	0	487	596	
5	0	0	0	0	487	596	
6	0	0	0	0	487	596	
7	0	0	0	0	487	596	
8	0	0	0	0	487	596	
9	0	0	0	0	487	595	
10	0	0	0	0	487	596	
11	0	0	0	0	487	595	
12	0	0	0	0	487	595	
13	0	0	0	0	488	595	
14	0	0	0	0	487	595	
15	0	0	0	0	487	596	
0	0	0	0	0	487	596	
1	0	0	0	0	486	595	
2	0	0	0	0	487	595	
3	0	0	0	0	488	596	
4	0	0	0	0	489	595	
5	0	0	0	0	489	595	
6	0	0	0	0	489	595	
7	0	0	0	0	490	595	
8	0	0	0	0	490	595	
9	0	0	0	0	491	595	
10	0	0	0	0	492	596	
11	0	0	0	0	492	595	
12	0	0	0	0	492	595	
13	0	0	0	0	492	595	
14	0	0	0	0	492	595	
15	0	0	0	0	493	596	
0	0	0	0	0	493	595	
1	0	0	0	0	493	595	
2	0	0	0	0	493	595	
3	0	0	0	0	492	595	
4	0	0	0	0	493	595	
5	0	0	0	0	492	595	
6	0	0	0	0	492	595	
7	0	0	0	0	492	596	
8	0	0	0	0	492	595	
9	0	0	0	0	493	596	
10	0	0	0	0	493	595	
11	0	0	0	0	493	596	
12	0	0	0	0	493	596	
13	0	0	0	0	494	595	
14	0	0	0	0	495	596	
15	0	0	0	0	496	596	
0	0	0	0	0	497	596	
1	0	0	0	0	498	596	
2	0	0	0	0	499	595	
3	0	0	0	0	499	596	
4	0	0	0	0	498	596	
5	0	0	0	0	499	596	
6	0	0	0	0	499	596	
7	0	0	0	0	498	596	
8	0	0	0	0	498	595	
9	0	0	0	0	498	596	
10	0	0	0	0	497	596	
11	0	0	0	0	497	596	
12	0	0	0	0	496	595	
13	0	0	0	0	496	595	
14	0	0	0	0	496	595	
15	0	0	0	0	495	596	
0	0	0	0	0	494	595	
1	0	0	0	0	494	595	
2	0	0	0	0	493	595	
3	0	0	0	0	493	596	
4	0	0	0	0	495	595	
5	0	0	0	0	496	595	
6	0	0	0	0	496	595	
7	0	0	0	0	497	596	
8	0	0	0	0	497	595	
9	0	0	0	0	498	595	
10	0	0	0	0	498	595	
11	0	0	0	0	499	595	
12	0	0	0	0	499	595	
13	0	0	0	0	500	594	
14	0	0	0	0	500	594	
15	0	0	0	0	502	595	
0	0	0	0	0	502	594	
1	0	0	0	0	502	595	
2	0	0	0	0	502	595	
3	0	0	0	0	501	595	
4	0	0	0	0	501	595	
5	0	0	0	0	500	594	
6	0	0	0	0	499	594	
7	0	0	0	0	498	595	
8	0	0	0	0	497	594	
9	0	0	0	0	497	594	
10	0	0	0	0	496	594	
11	0	0	0	0	497	595	
12	0	0	0	0	497	594	
13	0	0	0	0	497	594	
14	0	0	0	0	498	594	
15	0	0	0	0	499	595	
0	0	0	0	0	499	595	
1	0	0	0	0	499	595	
2	0	0	0	0	500	594	
3	0	0	0	0	501	595	
4	0	0	0	0	501	594	
5	0	0	0	0	502	594	
6	0	0	0	0	502	594	
7	0	0	0	0	503	595	
8	0	0	0	0	503	595	
9	0	0	0	0	503	594	
10	0	0	0	0	503	595	
11	0	0	0	0	503	595	
12	0	0	0	0	504	595	
13	0	0	0	0	503	595	
14	0	0	0	0	503	595	
15	0	0	0	0	503	596	
0	0	0	0	0	503	595	
1	0	0	0	0	503	595	
2	0	0	0	0	504	596	
3	0	0	0	0	504	596	
4	0	0	0	0	504	596	
5	0	0	0	0	504	596	
6	0	0	0	0	505	596	
7	0	0	0	0	506	597	
8	0	0	0	0	507	596	
9	0	0	0	0	508	598	
10	0	0	0	0	508	597	
11	0	0	0	0	508	598	
12	0	0	0	0	508	598	
13	0	0	0	0	509	598	
14	0	0	0	0	509	598	
15	0	0	0	0	509	598	
0	0	0	0	0	509	598	
1	0	0	0	0	510	598	
2	0	0	0	0	510	597	
3	0	0	0	0	510	598	
4	0	0	0	0	510	598	
5	0	0	0	0	509	598	
6	0	0	0	0	509	598	
7	0	0	0	0	509	599	
8	0	0	0	0	508	598	
9	0	0	0	0	508	598	
10	0	0	0	0	508	598	
11	0	0	0	0	508	598	
12	0	0	0	0	508	597	
13	0	0	0	0	509	598	
14	0	0	0	0	510	598	
15	0	0	0	0	510	598	
0	0	0	0	0	510	598	
1	0	0	0	0	511	598	
2	0	0	0	0	511	598	
3	0	0	0	0	510	599	
4	0	0	0	0	510	599	
5	0	0	0	0	510	598	
6	0	0	0	0	509	598	
7	0	0	0	0	510	599	
8	0	0	0	0	509	598	
9	0	0	0	0	509	598	
10	0	0	0	0	509	598	
11	0	0	0	0	509	598	
12	0	0	0	0	509	598	
13	0	0	0	0	508	598	
14	0	0	0	0	508	598	
15	0	0	0	0	508	599	
0	0	0	0	0	509	598	
1	0	0	0	0	510	598	
2	0	0	0	0	510	598	
3	0	0	0	0	510	598	
4	0	0	0	0	511	598	
5	0	0	0	0	512	598	
6	0	0	0	0	512	598	
7	0	0	0	0	513	598	
8	0	0	0	0	513	597	
9	0	0	0	0	514	597	
10	0	0	0	0	514	597	
11	0	0	0	0	514	598	
12	0	0	0	0	514	597	
13	0	0	0	0	514	597	
14	0	0	0	0	514	597	
15	0	0	0	0	515	597	
0	0	0	0	0	516	596	
1	0	0	0	0	516	597	
2	0	0	0	0	516	596	
3	0	0	0	0	518	597	
4	0	0	0	0	518	596	
5	0	0	0	0	519	596	
6	0	0	0	0	519	596	
7	0	0	0	0	519	596	
8	0	0	0	0	519	595	
9	0	0	0	0	518	595	
10	0	0	0	0	517	596	
11	0	0	0	0	515	595	
12	0	0	0	0	514	595	
13	0	0	0	0	513	595	
14	0	0	0	0	513	595	
15	0	0	0	0	513	596	
0	0	0	0	0	513	594	
1	0	0	0	0	512	594	
2	0	0	0	0	511	594	
3	0	0	0	0	511	594	
4	0	0	0	0	511	594	
5	0	0	0	0	510	594	
6	0	0	0	0	509	594	
7	0	0	0	0	510	595	
8	0	0	0	0	511	595	
9	0	0	0	0	512	595	
10	0	0	0	0	512	594	
11	0	0	0	0	512	594	
12	0	0	0	0	513	594	
13	0	0	0	0	513	594	
14	0	0	0	0	514	594	
15	0	0	0	0	514	595	
0	0	0	0	0	515	593	
1	0	0	0	0	515	593	
2	0	0	0	0	516	594	
3	0	0	0	0	517	594	
4	0	0	0	0	517	595	
5	0	0	0	0	517	594	
6	0	0	0	0	517	594	
7	0	0	0	0	516	595	
8	0	0	0	0	515	595	
9	0	0	0	0	515	595	
10	0	0	0	0	515	595	
11	0	0	0	0	515	594	
12	0	0	0	0	514	595	
13	0	0	0	0	514	595	
14	0	0	0	0	514	594	
15	0	0	0	0	514	595	
0	0	0	0	0	514	594	
1	0	0	0	0	515	595	
2	0	0	0	0	515	595	
3	0	0	0	0	515	595	
4	0	0	0	0	515	595	
5	0	0	0	0	515	595	
6	0	0	0	0	515	595	
7	0	0	0	0	515	595	
8	0	0	0	0	515	595	
9	0	0	0	0	516	595	
10	0	0	0	0	515	595	
11	0	0	0	0	515	596	
12	0	0	0	0	515	596	
13	0	0	0	0	515	596	
14	0	0	0	0	515	595	
15	0	0	0	0	515	597	
0	0	0	0	0	514	596	
1	0	0	0	0	513	596	
2	0	0	0	0	513	595	
3	0	0	0	0	513	596	
4	0	0	0	0	513	596	
5	0	0	0	0	513	596	
6	0	0	0	0	513	597	
7	0	0	0	0	514	596	
8	0	0	0	0	514	596	
9	0	0	0	0	514	597	
10	0	0	0	0	514	596	
11	0	0	0	0	514	597	
12	0	0	0	0	514	596	
13	0	0	0	0	513	596	
14	0	0	0	0	513	596	
15	0	0	0	0	513	597	
0	0	0	0	0	512	597	
1	0	0	0	0	512	597	
2	0	0	0	0	512	597	
3	0	0	0	0	512	597	
4	0	0	0	0	512	597	
5	0	0	0	0	511	597	
6	0	0	0	0	511	597	
7	0	0	0	0	512	597	
8	0	0	0	0	512	596	
9	0	0	0	0	514	596	
10	0	0	0	0	514	597	
11	0	0	0	0	514	597	
12	0	0	0	0	515	598	
13	0	0	0	0	515	597	
14	0	0	0	0	516	597	
15	0	0	0	0	517	598	
0	0	0	0	0	517	598	
1	0	0	0	0	517	597	
2	0	0	0	0	517	596	
3	0	0	0	0	517	596	
4	0	0	0	0	517	596	
5	0	0	0	0	517	596	
6	0	0	0	0	516	596	
7	0	0	0	0	517	596	
8	0	0	0	0	517	596	
9	0	0	0	0	517	596	
10	0	0	0	0	517	596	
11	0	0	0	0	517	596	
12	0	0	0	0	516	596	
13	0	0	0	0	515	596	
14	0	0	0	0	515	597	
15	0	0	0	0	514	598	
0	0	0	0	0	513	597	
1	0	0	0	0	512	597	
2	0	0	0	0	512	598	
3	0	0	0	0	512	597	
4	0	0	0	0	511	597	
5	0	0	0	0	511	596	
6	0	0	0	0	512	596	
7	0	0	0	0	513	597	
8	0	0	0	0	514	596	
9	0	0	0	0	514	596	
10	0	0	0	0	515	596	
11	0	0	0	0	515	597	
12	0	0	0	0	516	596	
13	0	0	0	0	516	598	
14	0	0	0	0	515	597	
15	0	0	0	0	516	598	
0	0	0	0	0	516	596	
1	0	0	0	0	517	596	
2	0	0	0	0	518	597	
3	0	0	0	0	519	596	
4	0	0	0	0	519	596	
5	0	0	0	0	519	596	
6	0	0	0	0	518	596	
7	0	0	0	0	518	596	
8	0	0	0	0	517	596	
9	0	0	0	0	516	596	
10	0	0	0	0	515	596	
11	0	0	0	0	514	596	
12	0	0	0	0	515	596	
13	0	0	0	0	514	596	
14	0	0	0	0	513	596	
15	0	0	0	0	514	597	
0	0	0	0	0	514	597	
1	0	0	0	0	514	597	
2	0	0	0	0	514	597	
3	0	0	0	0	513	597	
4	0	0	0	0	513	597	
5	0	0	0	0	513	597	
6	0	0	0	0	513	597	
7	0	0	0	0	513	597	
8	0	0	0	0	513	597	
9	0	0	0	0	512	597	
10	0	0	0	0	511	596	
11	0	0	0	0	511	598	
12	0	0	0	0	511	597	
13	0	0	0	0	512	597	
14	0	0	0	0	512	597	
15	0	0	0	0	512	598	
0	0	0	0	0	512	598	
1	0	0	0	0	511	597	
2	0	0	0	0	512	597	
3	0	0	0	0	513	598	
4	0	0	0	0	514	596	
5	0	0	0	0	515	597	
6	0	0	0	0	515	596	
7	0	0	0	0	515	597	
8	0	0	0	0	515	597	
9	0	0	0	0	515	596	
10	0	0	0	0	514	596	
11	0	0	0	0	514	597	
12	0	0	0	0	514	596	
13	0	0	0	0	515	597	
14	0	0	0	0	515	597	
15	0	0	0	0	515	598	
0	0	0	0	0	516	598	
1	0	0	0	0	516	597	
2	0	0	0	0	516	597	
3	0	0	0	0	515	598	
4	0	0	0	0	515	598	
5	0	0	0	0	514	598	
6	0	0	0	0	514	597	
7	0	0	0	0	514	598	
8	0	0	0	0	514	597	
9	0	0	0	0	515	597	
10	0	0	0	0	515	597	
11	0	0	0	0	515	598	
12	0	0	0	0	515	597	
13	0	0	0	0	515	596	
14	0	0	0	0	515	596	
15	0	0	0	0	515	597	
0	0	0	0	0	515	596	
1	0	0	0	0	515	596	
2	0	0	0	0	515	597	
3	0	0	0	0	514	597	
4	0	0	0	0	514	597	
5	0	0	0	0	514	597	
6	0	0	0	0	513	597	
7	0	0	0	0	513	597	
8	0	0	0	0	512	596	
9	0	0	0	0	512	597	
10	0	0	0	0	512	597	
11	0	0	0	0	512	596	
12	0	0	0	0	512	597	
13	0	0	0	0	512	597	
14	0	0	0	0	512	596	
15	0	0	0	0	512	596	
0	0	0	0	0	512	596	
1	0	0	0	0	511	596	
2	0	0	0	0	512	596	
3	0	0	0	0	511	597	
4	0	0	0	0	511	596	
5	0	0	0	0	511	596	
6	0	0	0	0	511	595	
7	0	0	0	0	511	596	
8	0	0	0	0	511	595	
9	0	0	0	0	512	596	
10	0	0	0	0	512	596	
11	0	0	0	0	512	596	
12	0	0	0	0	512	596	
13	0	0	0	0	512	596	
14	0	0	0	0	512	595	
15	0	0	0	0	512	596	
0	0	0	0	0	511	595	
1	0	0	0	0	510	595	
2	0	0	0	0	510	595	
3	0	0	0	0	510	595	
4	0	0	0	0	511	595	
5	0	0	0	0	511	595	
6	0	0	0	0	512	595	
7	0	0	0	0	512	595	
8	0	0	0	0	513	594	
9	0	0	0	0	514	595	
10	0	0	0	0	514	595	
11	0	0	0	0	514	596	
12	0	0	0	0	514	595	
13	0	0	0	0	515	595	
14	0	0	0	0	515	595	
15	0	0	0	0	515	596	
0	0	0	0	0	515	595	
1	0	0	0	0	515	596	
2	0	0	0	0	515	595	
3	0	0	0	0	515	596	
4	0	0	0	0	513	595	
5	0	0	0	0	513	595	
6	0	0	0	0	512	596	
7	0	0	0	0	513	596	
8	0	0	0	0	513	596	
9	0	0	0	0	513	595	
10	0	0	0	0	514	596	
11	0	0	0	0	514	596	
12	0	0	0	0	513	596	
13	0	0	0	0	512	596	
14	0	0	0	0	512	595	
15	0	0	0	0	512	596	
0	0	0	0	0	512	596	
1	0	0	0	0	511	596	
2	0	0	0	0	512	596	
3	0	0	0	0	512	597	
4	0	0	0	0	513	596	
5	0	0	0	0	514	596	
6	0	0	0	0	515	597	
7	0	0	0	0	515	597	
8	0	0	0	0	516	596	
9	0	0	0	0	516	597	
10	0	0	0	0	517	597	
11	0	0	0	0	517	597	
12	0	0	0	0	517	596	
13	0	0	0	0	517	597	
14	0	0	0	0	516	597	
15	0	0	0	0	516	598	
0	0	0	0	0	516	597	
1	0	0	0	0	516	597	
2	0	0	0	0	516	598	
3	0	0	0	0	516	598	
4	0	0	0	0	515	598	
5	0	0	0	0	515	598	
6	0	0	0	0	514	597	
7	0	0	0	0	513	598	
8	0	0	0	0	513	598	
9	0	0	0	0	512	598	
10	0	0	0	0	512	598	
11	0	0	0	0	512	599	
12	0	0	0	0	512	598	
13	0	0	0	0	513	598	
14	0	0	0	0	513	598	
15	0	0	0	0	513	598	
0	0	0	0	0	514	597	
1	0	0	0	0	514	597	
2	0	0	0	0	515	597	
3	0	0	0	0	514	597	
4	0	0	0	0	514	597	
5	0	0	0	0	514	597	
6	0	0	0	0	514	597	
7	0	0	0	0	515	598	
8	0	0	0	0	515	596	
9	0	0	0	0	514	596	
10	0	0	0	0	514	597	
11	0	0	0	0	514	597	
12	0	0	0	0	515	596	
13	0	0	0	0	515	596	
14	0	0	0	0	516	597	
15	0	0	0	0	516	597	
0	0	0	0	0	517	596	
1	0	0	0	0	518	596	
2	0	0	0	0	519	596	
3	0	0	0	0	519	597	
4	0	0	0	0	519	596	
5	0	0	0	0	519	596	
6	0	0	0	0	520	597	
7	0	0	0	0	519	597	
8	0	0	0	0	520	597	
9	0	0	0	0	521	596	
10	0	0	0	0	521	596	
11	0	0	0	0	522	596	
12	0	0	0	0	522	596	
13	0	0	0	0	522	596	
14	0	0	0	0	521	596	
15	0	0	0	0	521	597	
0	0	0	0	0	520	596	
1	0	0	0	0	520	597	
2	0	0	0	0	519	597	
3	0	0	0	0	519	597	
4	0	0	0	0	520	596	
5	0	0	0	0	521	597	
6	0	0	0	0	521	597	
7	0	0	0	0	521	598	
8	0	0	0	0	522	597	
9	0	0	0	0	522	597	
10	0	0	0	0	522	597	
11	0	0	0	0	523	598	
12	0	0	0	0	523	598	
13	0	0	0	0	523	597	
14	0	0	0	0	523	597	
15	0	0	0	0	524	598	
0	0	0	0	0	524	597	
1	0	0	0	0	524	598	
2	0	0	0	0	524	598	
3	0	0	0	0	524	597	
4	0	0	0	0	524	599	
5	0	0	0	0	523	598	
6	0	0	0	0	522	597	
7	0	0	0	0	521	598	
8	0	0	0	0	520	598	
9	0	0	0	0	519	598	
10	0	0	0	0	519	598	
11	0	0	0	0	519	598	
12	0	0	0	0	519	598	
13	0	0	0	0	518	598	
14	0	0	0	0	518	598	
15	0	0	0	0	518	598	
0	0	0	0	0	518	598	
1	0	0	0	0	519	598	
2	0	0	0	0	520	598	
3	0	0	0	0	520	598	
4	0	0	0	0	520	597	
5	0	0	0	0	521	598	
6	0	0	0	0	522	598	
7	0	0	0	0	522	598	
8	0	0	0	0	522	598	
9	0	0	0	0	522	598	
10	0	0	0	0	522	598	
11	0	0	0	0	522	598	
12	0	0	0	0	522	597	
13	0	0	0	0	522	597	
14	0	0	0	0	521	597	
15	0	0	0	0	520	597	
0	0	0	0	0	520	596	
1	0	0	0	0	519	596	
2	0	0	0	0	519	597	
3	0	0	0	0	519	597	
4	0	0	0	0	519	596	
5	0	0	0	0	518	596	
6	0	0	0	0	518	596	
7	0	0	0	0	518	597	
8	0	0	0	0	517	596	
9	0	0	0	0	518	596	
10	0	0	0	0	518	596	
11	0	0	0	0	518	596	
12	0	0	0	0	518	596	
13	0	0	0	0	517	596	
14	0	0	0	0	516	596	
15	0	0	0	0	516	597	
0	0	0	0	0	515	596	
1	0	0	0	0	514	596	
2	0	0	0	0	512	596	
3	0	0	0	0	510	596	
4	0	0	0	0	508	595	
5	0	0	0	0	504	596	
6	0	0	0	0	501	596	
7	0	0	0	0	496	596	
8	0	0	0	0	491	595	
9	0	0	0	0	486	596	
10	0	0	0	0	482	595	
11	0	0	0	0	479	597	
12	0	0	0	0	476	596	
13	0	0	0	0	473	596	
14	0	0	0	0	471	596	
15	0	0	0	0	467	596	
0	0	0	0	0	466	597	
1	0	0	0	0	465	596	
2	0	0	0	0	465	595	
3	0	0	0	0	465	596	
4	0	0	0	0	468	596	
5	0	0	0	0	473	597	
6	0	0	0	0	480	596	
7	0	0	0	0	487	597	
8	0	0	0	0	498	596	
9	0	0	0	0	511	596	
10	0	0	0	0	523	596	
11	0	0	0	0	537	596	
12	0	0	0	0	551	596	
13	0	0	0	0	567	596	
14	0	0	0	0	581	596	
15	0	0	0	0	595	597	
0	0	0	0	0	608	596	
1	0	0	0	0	620	596	
2	0	0	0	0	630	596	
3	0	0	0	0	639	597	
4	0	0	0	0	647	596	
5	0	0	0	0	654	596	
6	0	0	0	0	658	596	
7	0	0	0	0	660	596	
8	0	0	0	0	662	595	
9	0	0	0	0	662	595	
10	0	0	0	0	661	595	
11	0	0	0	0	658	596	
12	0	0	0	0	652	596	
13	0	0	0	0	646	596	
14	0	0	0	0	638	595	
15	0	0	0	0	628	596	
0	0	0	0	0	618	596	
1	0	0	0	0	608	596	
2	0	0	0	0	598	595	
3	0	0	0	0	588	596	
4	0	0	0	0	578	596	
5	0	0	0	0	568	595	
6	0	0	0	0	558	595	
7	0	0	0	0	550	596	
8	0	0	0	0	542	596	
9	0	0	0	0	534	596	
10	0	0	0	0	527	595	
11	0	0	0	0	521	596	
12	0	0	0	0	516	596	
13	0	0	0	0	512	596	
14	0	0	0	0	509	595	
15	0	0	0	0	505	596	
0	0	0	0	0	503	595	
1	0	0	0	0	501	595	
2	0	0	0	0	499	595	
3	0	0	0	0	497	596	
4	0	0	0	0	496	596	
5	0	0	0	0	494	596	
6	0	0	0	0	494	596	
7	0	0	0	0	494	596	
8	0	0	0	0	493	596	
9	0	0	0	0	493	596	
10	0	0	0	0	493	595	
11	0	0	0	0	492	596	
12	0	0	0	0	492	596	
13	0	0	0	0	492	596	
14	0	0	0	0	491	595	
15	0	0	0	0	491	596	
0	0	0	0	0	491	596	
1	0	0	0	0	490	596	
2	0	0	0	0	491	596	
3	0	0	0	0	490	595	
4	0	0	0	0	489	595	
5	0	0	0	0	489	596	
6	0	0	0	0	488	595	
7	0	0	0	0	487	595	
8	0	0	0	0	487	595	
9	0	0	0	0	487	596	
10	0	0	0	0	487	595	
11	0	0	0	0	488	596	
12	0	0	0	0	489	596	
13	0	0	0	0	488	596	
14	0	0	0	0	488	596	
15	0	0	0	0	487	596	
0	0	0	0	0	487	596	
1	0	0	0	0	487	595	
2	0	0	0	0	487	596	
3	0	0	0	0	486	596	
4	0	0	0	0	487	596	
5	0	0	0	0	487	596	
6	0	0	0	0	487	595	
7	0	0	0	0	487	596	
8	0	0	0	0	488	596	
9	0	0	0	0	488	596	
10	0	0	0	0	488	596	
11	0	0	0	0	488	596	
12	0	0	0	0	488	597	
13	0	0	0	0	489	596	
14	0	0	0	0	490	596	
15	0	0	0	0	491	597	
0	0	0	0	0	491	596	
1	0	0	0	0	491	597	
2	0	0	0	0	491	597	
3	0	0	0	0	491	597	
4	0	0	0	0	492	597	
5	0	0	0	0	492	597	
6	0	0	0	0	492	597	
7	0	0	0	0	492	598	
8	0	0	0	0	492	597	
9	0	0	0	0	493	598	
10	0	0	0	0	493	598	
11	0	0	0	0	492	598	
12	0	0	0	0	492	598	
13	0	0	0	0	491	598	
14	0	0	0	0	490	599	
15	0	0	0	0	489	598	
0	0	0	0	0	488	599	
1	0	0	0	0	489	599	
2	0	0	0	0	489	598	
3	0	0	0	0	489	599	
4	0	0	0	0	488	598	
5	0	0	0	0	488	598	
6	0	0	0	0	489	598	
7	0	0	0	0	489	599	
8	0	0	0	0	489	599	
9	0	0	0	0	490	598	
10	0	0	0	0	491	598	
11	0	0	0	0	492	598	
12	0	0	0	0	492	597	
13	0	0	0	0	492	597	
14	0	0	0	0	493	596	
15	0	0	0	0	493	598	
0	0	0	0	0	494	597	
1	0	0	0	0	494	597	
2	0	0	0	0	495	597	
3	0	0	0	0	495	597	
4	0	0	0	0	495	597	
5	0	0	0	0	494	597	
6	0	0	0	0	494	596	
7	0	0	0	0	494	597	
8	0	0	0	0	494	596	
9	0	0	0	0	493	597	
10	0	0	0	0	494	596	
11	0	0	0	0	494	596	
12	0	0	0	0	494	597	
13	0	0	0	0	495	596	
14	0	0	0	0	495	597	
15	0	0	0	0	495	597	
0	0	0	0	0	495	596	
1	0	0	0	0	495	595	
2	0	0	0	0	495	596	
3	0	0	0	0	494	596	
4	0	0	0	0	494	596	
5	0	0	0	0	495	596	
6	0	0	0	0	495	597	
7	0	0	0	0	495	596	
8	0	0	0	0	496	596	
9	0	0	0	0	496	596	
10	0	0	0	0	496	596	
11	0	0	0	0	497	597	
12	0	0	0	0	496	596	
13	0	0	0	0	496	596	
14	0	0	0	0	497	596	
15	0	0	0	0	497	596	
0	0	0	0	0	497	596	
1	0	0	0	0	497	596	
2	0	0	0	0	497	596	
3	0	0	0	0	499	596	
4	0	0	0	0	499	595	
5	0	0	0	0	498	596	
6	0	0	0	0	498	596	
7	0	0	0	0	497	597	
8	0	0	0	0	497	596	
9	0	0	0	0	497	596	
10	0	0	0	0	498	597	
11	0	0	0	0	499	597	
12	0	0	0	0	499	596	
13	0	0	0	0	500	596	
14	0	0	0	0	500	596	
15	0	0	0	0	500	598	
0	0	0	0	0	499	596	
1	0	0	0	0	500	596	
2	0	0	0	0	500	597	
3	0	0	0	0	501	597	
4	0	0	0	0	500	597	
5	0	0	0	0	500	597	
6	0	0	0	0	499	597	
7	0	0	0	0	500	598	
8	0	0	0	0	500	597	
9	0	0	0	0	500	598	
10	0	0	0	0	500	598	
11	0	0	0	0	499	598	
12	0	0	0	0	498	598	
13	0	0	0	0	498	598	
14	0	0	0	0	498	598	
15	0	0	0	0	498	599	
0	0	0	0	0	498	598	
1	0	0	0	0	498	598	
2	0	0	0	0	499	598	
3	0	0	0	0	499	598	
4	0	0	0	0	499	599	
5	0	0	0	0	499	598	
6	0	0	0	0	499	598	
7	0	0	0	0	499	599	
8	0	0	0	0	499	598	
9	0	0	0	0	499	598	
10	0	0	0	0	499	598	
11	0	0	0	0	500	598	
12	0	0	0	0	500	598	
13	0	0	0	0	500	598	
14	0	0	0	0	501	598	
15	0	0	0	0	501	598	
0	0	0	0	0	501	598	
1	0	0	0	0	501	598	
2	0	0	0	0	502	598	
3	0	0	0	0	503	598	
4	0	0	0	0	503	597	
5	0	0	0	0	503	597	
6	0	0	0	0	504	597	
7	0	0	0	0	504	598	
8	0	0	0	0	504	596	
9	0	0	0	0	504	597	
10	0	0	0	0	505	597	
11	0	0	0	0	505	597	
12	0	0	0	0	505	597	
13	0	0	0	0	505	597	
14	0	0	0	0	506	596	
15	0	0	0	0	507	596	
0	0	0	0	0	508	597	
1	0	0	0	0	509	596	
2	0	0	0	0	510	596	
3	0	0	0	0	509	597	
4	0	0	0	0	510	596	
5	0	0	0	0	510	595	
6	0	0	0	0	511	596	
7	0	0	0	0	512	596	
8	0	0	0	0	513	596	
9	0	0	0	0	513	596	
10	0	0	0	0	514	596	
11	0	0	0	0	515	596	
12	0	0	0	0	515	596	
13	0	0	0	0	515	595	
14	0	0	0	0	515	596	
15	0	0	0	0	515	596	
0	0	0	0	0	514	596	
1	0	0	0	0	513	596	
2	0	0	0	0	512	596	
3	0	0	0	0	512	596	
4	0	0	0	0	512	595	
5	0	0	0	0	512	595	
6	0	0	0	0	513	596	
7	0	0	0	0	513	596	
8	0	0	0	0	513	596	
9	0	0	0	0	513	595	
10	0	0	0	0	515	595	
11	0	0	0	0	515	595	
12	0	0	0	0	515	595	
13	0	0	0	0	515	595	
14	0	0	0	0	515	595	
15	0	0	0	0	515	596	
0	0	0	0	0	515	595	
1	0	0	0	0	516	595	
2	0	0	0	0	517	595	
3	0	0	0	0	517	596	
4	0	0	0	0	517	595	
5	0	0	0	0	517	595	
6	0	0	0	0	517	595	
7	0	0	0	0	516	597	
8	0	0	0	0	515	596	
9	0	0	0	0	516	596	
10	0	0	0	0	516	595	
11	0	0	0	0	516	596	
12	0	0	0	0	516	595	
13	0	0	0	0	516	596	
14	0	0	0	0	516	596	
15	0	0	0	0	515	596	
0	0	0	0	0	515	596	
1	0	0	0	0	515	596	
2	0	0	0	0	515	595	
3	0	0	0	0	515	596	
4	0	0	0	0	515	596	
5	0	0	0	0	516	596	
6	0	0	0	0	517	596	
7	0	0	0	0	516	596	
8	0	0	0	0	516	596	
9	0	0	0	0	516	596	
10	0	0	0	0	515	596	
11	0	0	0	0	515	596	
12	0	0	0	0	514	596	
13	0	0	0	0	515	597	
14	0	0	0	0	515	597	
15	0	0	0	0	516	597	
0	0	0	0	0	516	597	
1	0	0	0	0	515	597	
2	0	0	0	0	516	597	
3	0	0	0	0	517	597	
4	0	0	0	0	517	598	
5	0	0	0	0	517	597	
6	0	0	0	0	517	598	
7	0	0	0	0	517	598	
8	0	0	0	0	517	597	
9	0	0	0	0	518	597	
10	0	0	0	0	518	598	
11	0	0	0	0	517	597	
12	0	0	0	0	518	597	
13	0	0	0	0	517	597	
14	0	0	0	0	517	597	
15	0	0	0	0	516	598	
0	0	0	0	0	515	598	
1	0	0	0	0	515	598	
2	0	0	0	0	515	598	
3	0	0	0	0	515	598	
4	0	0	0	0	515	598	
5	0	0	0	0	516	598	
6	0	0	0	0	517	598	
7	0	0	0	0	518	598	
8	0	0	0	0	519	598	
9	0	0	0	0	520	598	
10	0	0	0	0	520	598	
11	0	0	0	0	521	599	
12	0	0	0	0	520	598	
13	0	0	0	0	520	598	
14	0	0	0	0	520	598	
15	0	0	0	0	520	599	
0	0	0	0	0	521	598	
1	0	0	0	0	520	598	
2	0	0	0	0	521	599	
3	0	0	0	0	521	599	
4	0	0	0	0	521	598	
5	0	0	0	0	521	599	
6	0	0	0	0	521	598	
7	0	0	0	0	520	599	
8	0	0	0	0	519	598	
9	0	0	0	0	518	598	
10	0	0	0	0	519	599	
11	0	0	0	0	518	598	
12	0	0	0	0	517	599	
13	0	0	0	0	516	598	
14	0	0	0	0	515	598	
15	0	0	0	0	515	598	
0	0	0	0	0	516	598	
1	0	0	0	0	516	598	
2	0	0	0	0	516	597	
3	0	0	0	0	516	598	
4	0	0	0	0	516	598	
5	0	0	0	0	516	597	
6	0	0	0	0	516	597	
7	0	0	0	0	517	598	
8	0	0	0	0	517	597	
9	0	0	0	0	517	597	
10	0	0	0	0	517	596	
11	0	0	0	0	517	597	
12	0	0	0	0	517	596	
13	0	0	0	0	517	597	
14	0	0	0	0	516	596	
15	0	0	0	0	516	597	
0	0	0	0	0	516	596	
1	0	0	0	0	517	596	
2	0	0	0	0	516	596	
3	0	0	0	0	516	597	
4	0	0	0	0	515	596	
5	0	0	0	0	514	596	
6	0	0	0	0	513	596	
7	0	0	0	0	514	597	
8	0	0	0	0	515	596	
9	0	0	0	0	515	595	
10	0	0	0	0	515	596	
11	0	0	0	0	515	596	
12	0	0	0	0	515	596	
13	0	0	0	0	515	596	
14	0	0	0	0	515	596	
15	0	0	0	0	516	597	
0	0	0	0	0	516	596	
1	0	0	0	0	516	595	
2	0	0	0	0	516	596	
3	0	0	0	0	515	596	
4	0	0	0	0	515	596	
5	0	0	0	0	514	595	
6	0	0	0	0	513	596	
7	0	0	0	0	513	597	
8	0	0	0	0	512	596	
9	0	0	0	0	512	596	
10	0	0	0	0	512	596	
11	0	0	0	0	511	596	
12	0	0	0	0	512	596	
13	0	0	0	0	512	596	
14	0	0	0	0	511	595	
15	0	0	0	0	510	596	
0	0	0	0	0	510	596	
1	0	0	0	0	511	596	
2	0	0	0	0	512	596	
3	0	0	0	0	512	596	
4	0	0	0	0	512	596	
5	0	0	0	0	512	596	
6	0	0	0	0	512	596	
7	0	0	0	0	512	596	
8	0	0	0	0	512	596	
9	0	0	0	0	512	596	
10	0	0	0	0	511	596	
11	0	0	0	0	511	597	
12	0	0	0	0	510	596	
13	0	0	0	0	510	596	
14	0	0	0	0	510	596	
15	0	0	0	0	509	596	
0	0	0	0	0	509	596	
1	0	0	0	0	509	596	
2	0	0	0	0	509	596	
3	0	0	0	0	509	597	
4	0	0	0	0	510	595	
5	0	0	0	0	509	596	
6	0	0	0	0	509	596	
7	0	0	0	0	510	597	
8	0	0	0	0	510	596	
9	0	0	0	0	509	596	
10	0	0	0	0	510	596	
11	0	0	0	0	509	596	
12	0	0	0	0	509	596	
13	0	0	0	0	510	596	
14	0	0	0	0	510	596	
15	0	0	0	0	508	597	
0	0	0	0	0	508	596	
1	0	0	0	0	508	596	
2	0	0	0	0	509	596	
3	0	0	0	0	509	596	
4	0	0	0	0	509	596	
5	0	0	0	0	509	596	
6	0	0	0	0	509	596	
7	0	0	0	0	509	597	
8	0	0	0	0	509	596	
9	0	0	0	0	510	596	
10	0	0	0	0	509	596	
11	0	0	0	0	510	596	
12	0	0	0	0	510	596	
13	0	0	0	0	510	595	
14	0	0	0	0	510	597	
15	0	0	0	0	511	597	
0	0	0	0	0	511	596	
1	0	0	0	0	511	595	
2	0	0	0	0	510	596	
3	0	0	0	0	510	597	
4	0	0	0	0	511	596	
5	0	0	0	0	511	595	
6	0	0	0	0	510	595	
7	0	0	0	0	510	596	
8	0	0	0	0	509	595	
9	0	0	0	0	509	596	
10	0	0	0	0	508	596	
11	0	0	0	0	509	596	
12	0	0	0	0	509	596	
13	0	0	0	0	510	596	
14	0	0	0	0	510	596	
15	0	0	0	0	510	597	
0	0	0	0	0	510	597	
1	0	0	0	0	509	596	
2	0	0	0	0	508	596	
3	0	0	0	0	509	597	
4	0	0	0	0	509	596	
5	0	0	0	0	509	596	
6	0	0	0	0	508	596	
7	0	0	0	0	509	598	
8	0	0	0	0	508	597	
9	0	0	0	0	509	598	
10	0	0	0	0	509	597	
11	0	0	0	0	508	597	
12	0	0	0	0	509	598	
13	0	0	0	0	509	597	
14	0	0	0	0	509	597	
15	0	0	0	0	510	598	
0	0	0	0	0	509	597	
1	0	0	0	0	509	596	
2	0	0	0	0	508	597	
3	0	0	0	0	508	597	
4	0	0	0	0	508	596	
5	0	0	0	0	507	597	
6	0	0	0	0	507	596	
7	0	0	0	0	507	597	
8	0	0	0	0	507	596	
9	0	0	0	0	508	597	
10	0	0	0	0	508	597	
11	0	0	0	0	508	596	
12	0	0	0	0	508	597	
13	0	0	0	0	508	596	
14	0	0	0	0	507	596	
15	0	0	0	0	507	597	
0	0	0	0	0	506	597	
1	0	0	0	0	506	596	
2	0	0	0	0	506	596	
3	0	0	0	0	506	596	
4	0	0	0	0	505	595	
5	0	0	0	0	505	595	
6	0	0	0	0	505	595	
7	0	0	0	0	505	596	
8	0	0	0	0	504	596	
9	0	0	0	0	505	596	
10	0	0	0	0	505	596	
11	0	0	0	0	505	595	
12	0	0	0	0	505	595	
13	0	0	0	0	506	595	
14	0	0	0	0	507	595	
15	0	0	0	0	507	596	
0	0	0	0	0	508	595	
1	0	0	0	0	509	595	
2	0	0	0	0	509	595	
3	0	0	0	0	509	596	
4	0	0	0	0	509	596	
5	0	0	0	0	509	596	
6	0	0	0	0	508	595	
7	0	0	0	0	508	596	
8	0	0	0	0	508	595	
9	0	0	0	0	508	596	
10	0	0	0	0	508	595	
11	0	0	0	0	508	595	
12	0	0	0	0	508	595	
13	0	0	0	0	508	595	
14	0	0	0	0	508	595	
15	0	0	0	0	508	595	
0	0	0	0	0	508	595	
1	0	0	0	0	508	596	
2	0	0	0	0	507	595	
3	0	0	0	0	507	596	
4	0	0	0	0	506	596	
5	0	0	0	0	506	596	
6	0	0	0	0	506	595	
7	0	0	0	0	506	597	
8	0	0	0	0	506	596	
9	0	0	0	0	505	596	
10	0	0	0	0	505	596	
11	0	0	0	0	504	596	
12	0	0	0	0	504	596	
13	0	0	0	0	504	597	
14	0	0	0	0	504	596	
15	0	0	0	0	504	597	
0	0	0	0	0	504	596	
1	0	0	0	0	504	596	
2	0	0	0	0	503	596	
3	0	0	0	0	502	595	
4	0	0	0	0	502	596	
5	0	0	0	0	501	596	
6	0	0	0	0	501	595	
7	0	0	0	0	502	597	
8	0	0	0	0	503	596	
9	0	0	0	0	503	597	
10	0	0	0	0	503	596	
11	0	0	0	0	504	596	
12	0	0	0	0	504	596	
13	0	0	0	0	504	596	
14	0	0	0	0	505	597	
15	0	0	0	0	505	597	
0	0	0	0	0	505	597	
1	0	0	0	0	504	597	
2	0	0	0	0	504	598	
3	0	0	0	0	505	598	
4	0	0	0	0	505	598	
5	0	0	0	0	505	597	
6	0	0	0	0	506	598	
7	0	0	0	0	506	598	
8	0	0	0	0	506	598	
9	0	0	0	0	507	598	
10	0	0	0	0	506	598	
11	0	0	0	0	507	599	
12	0	0	0	0	507	598	
13	0	0	0	0	507	597	
14	0	0	0	0	508	598	
15	0	0	0	0	508	598	
0	0	0	0	0	508	598	
1	0	0	0	0	508	598	
2	0	0	0	0	508	598	
3	0	0	0	0	508	598	
4	0	0	0	0	508	598	
5	0	0	0	0	509	598	
6	0	0	0	0	509	597	
7	0	0	0	0	509	598	
8	0	0	0	0	508	597	
9	0	0	0	0	507	598	
10	0	0	0	0	506	597	
11	0	0	0	0	506	597	
12	0	0	0	0	505	597	
13	0	0	0	0	504	597	
14	0	0	0	0	504	597	
15	0	0	0	0	503	598	
0	0	0	0	0	502	596	
1	0	0	0	0	501	597	
2	0	0	0	0	500	597	
3	0	0	0	0	499	597	
4	0	0	0	0	498	597	
5	0	0	0	0	498	597	
6	0	0	0	0	497	597	
7	0	0	0	0	497	598	
8	0	0	0	0	497	597	
9	0	0	0	0	497	597	
10	0	0	0	0	498	597	
11	0	0	0	0	499	597	
12	0	0	0	0	500	596	
13	0	0	0	0	502	596	
14	0	0	0	0	502	596	
15	0	0	0	0	502	596	
0	0	0	0	0	502	596	
1	0	0	0	0	503	596	
2	0	0	0	0	503	596	
3	0	0	0	0	503	596	
4	0	0	0	0	503	596	
5	0	0	0	0	504	596	
6	0	0	0	0	503	596	
7	0	0	0	0	502	597	
8	0	0	0	0	501	597	
9	0	0	0	0	501	596	
10	0	0	0	0	501	597	
11	0	0	0	0	501	597	
12	0	0	0	0	501	596	
13	0	0	0	0	502	597	
14	0	0	0	0	503	596	
15	0	0	0	0	504	597	
0	0	0	0	0	505	597	
1	0	0	0	0	505	597	
2	0	0	0	0	505	597	
3	0	0	0	0	504	597	
4	0	0	0	0	504	597	
5	0	0	0	0	505	597	
6	0	0	0	0	505	597	
7	0	0	0	0	504	598	
8	0	0	0	0	505	598	
9	0	0	0	0	505	598	
10	0	0	0	0	506	598	
11	0	0	0	0	506	597	
12	0	0	0	0	507	598	
13	0	0	0	0	507	598	
14	0	0	0	0	507	598	
15	0	0	0	0	506	598	
0	0	0	0	0	505	598	
1	0	0	0	0	506	598	
2	0	0	0	0	506	598	
3	0	0	0	0	506	598	
4	0	0	0	0	506	598	
5	0	0	0	0	505	597	
6	0	0	0	0	505	598	
7	0	0	0	0	505	599	
8	0	0	0	0	506	598	
9	0	0	0	0	506	598	
10	0	0	0	0	506	597	
11	0	0	0	0	506	598	
12	0	0	0	0	505	598	
13	0	0	0	0	505	598	
14	0	0	0	0	505	597	
15	0	0	0	0	506	599	
0	0	0	0	0	506	598	
1	0	0	0	0	506	598	
2	0	0	0	0	506	597	
3	0	0	0	0	506	597	
4	0	0	0	0	506	596	
5	0	0	0	0	505	598	
6	0	0	0	0	504	597	
7	0	0	0	0	504	598	
8	0	0	0	0	504	597	
9	0	0	0	0	504	597	
10	0	0	0	0	504	597	
11	0	0	0	0	504	598	
12	0	0	0	0	504	597	
13	0	0	0	0	505	597	
14	0	0	0	0	505	597	
15	0	0	0	0	505	597	
0	0	0	0	0	506	596	
1	0	0	0	0	506	596	
2	0	0	0	0	507	596	
3	0	0	0	0	507	596	
4	0	0	0	0	507	596	
5	0	0	0	0	507	596	
6	0	0	0	0	507	596	
7	0	0	0	0	506	597	
8	0	0	0	0	505	596	
9	0	0	0	0	505	596	
10	0	0	0	0	504	595	
11	0	0	0	0	503	596	
12	0	0	0	0	502	595	
13	0	0	0	0	501	595	
14	0	0	0	0	500	595	
15	0	0	0	0	499	595	
0	0	0	0	0	499	595	
1	0	0	0	0	499	595	
2	0	0	0	0	498	594	
3	0	0	0	0	499	595	
4	0	0	0	0	499	594	
5	0	0	0	0	499	594	
6	0	0	0	0	498	594	
7	0	0	0	0	498	595	
8	0	0	0	0	499	594	
9	0	0	0	0	499	594	
10	0	0	0	0	499	594	
11	0	0	0	0	499	594	
12	0	0	0	0	499	594	
13	0	0	0	0	499	595	
14	0	0	0	0	498	595	
15	0	0	0	0	497	595	
0	0	0	0	0	496	594	
1	0	0	0	0	493	594	
2	0	0	0	0	489	595	
3	0	0	0	0	485	595	
4	0	0	0	0	480	594	
5	0	0	0	0	475	595	
6	0	0	0	0	471	594	
7	0	0	0	0	467	595	
8	0	0	0	0	463	594	
9	0	0	0	0	461	595	
10	0	0	0	0	459	595	
11	0	0	0	0	457	595	
12	0	0	0	0	456	595	
13	0	0	0	0	454	595	
14	0	0	0	0	454	595	
15	0	0	0	0	455	595	
0	0	0	0	0	457	595	
1	0	0	0	0	460	595	
2	0	0	0	0	465	595	
3	0	0	0	0	471	595	
4	0	0	0	0	479	595	
5	0	0	0	0	487	595	
6	0	0	0	0	495	595	
7	0	0	0	0	505	595	
8	0	0	0	0	517	596	
9	0	0	0	0	528	596	
10	0	0	0	0	541	596	
11	0	0	0	0	554	596	
12	0	0	0	0	568	596	
13	0	0	0	0	579	596	
14	0	0	0	0	591	595	
15	0	0	0	0	601	597	
0	0	0	0	0	611	596	
1	0	0	0	0	619	596	
2	0	0	0	0	625	596	
3	0	0	0	0	631	596	
4	0	0	0	0	636	596	
5	0	0	0	0	638	596	
6	0	0	0	0	640	596	
7	0	0	0	0	639	597	
8	0	0	0	0	636	596	
9	0	0	0	0	632	596	
10	0	0	0	0	626	596	
11	0	0	0	0	617	597	
12	0	0	0	0	608	598	
13	0	0	0	0	598	597	
14	0	0	0	0	587	596	
15	0	0	0	0	575	598	
0	0	0	0	0	563	597	
1	0	0	0	0	553	597	
2	0	0	0	0	543	597	
3	0	0	0	0	533	597	
4	0	0	0	0	524	598	
5	0	0	0	0	517	598	
6	0	0	0	0	510	597	
7	0	0	0	0	503	598	
8	0	0	0	0	496	598	
9	0	0	0	0	492	597	
10	0	0	0	0	487	597	
11	0	0	0	0	483	597	
12	0	0	0	0	481	597	
13	0	0	0	0	478	597	
14	0	0	0	0	476	596	
15	0	0	0	0	476	597	
0	0	0	0	0	474	597	
1	0	0	0	0	473	598	
2	0	0	0	0	471	597	
3	0	0	0	0	471	597	
4	0	0	0	0	470	597	
5	0	0	0	0	470	597	
6	0	0	0	0	469	597	
7	0	0	0	0	468	597	
8	0	0	0	0	469	597	
9	0	0	0	0	469	597	
10	0	0	0	0	469	597	
11	0	0	0	0	469	597	
12	0	0	0	0	469	597	
13	0	0	0	0	469	596	
14	0	0	0	0	469	597	
15	0	0	0	0	469	597	
0	0	0	0	0	469	597	
1	0	0	0	0	469	596	
2	0	0	0	0	468	597	
3	0	0	0	0	467	597	
4	0	0	0	0	467	597	
5	0	0	0	0	467	596	
6	0	0	0	0	467	596	
7	0	0	0	0	467	597	
8	0	0	0	0	467	596	
9	0	0	0	0	466	597	
10	0	0	0	0	467	596	
11	0	0	0	0	466	596	
12	0	0	0	0	466	596	
13	0	0	0	0	466	596	
14	0	0	0	0	467	596	
15	0	0	0	0	468	596	
0	0	0	0	0	469	596	
1	0	0	0	0	469	596	
2	0	0	0	0	470	595	
3	0	0	0	0	471	595	
4	0	0	0	0	471	595	
5	0	0	0	0	471	595	
6	0	0	0	0	471	596	
7	0	0	0	0	472	596	
8	0	0	0	0	472	595	
9	0	0	0	0	472	596	
10	0	0	0	0	472	595	
11	0	0	0	0	472	596	
12	0	0	0	0	472	596	
13	0	0	0	0	472	595	
14	0	0	0	0	472	595	
15	0	0	0	0	472	596	
0	0	0	0	0	472	596	
1	0	0	0	0	471	595	
2	0	0	0	0	470	596	
3	0	0	0	0	471	596	
4	0	0	0	0	470	595	
5	0	0	0	0	471	596	
6	0	0	0	0	471	595	
7	0	0	0	0	472	596	
8	0	0	0	0	472	595	
9	0	0	0	0	472	596	
10	0	0	0	0	474	596	
11	0	0	0	0	475	596	
12	0	0	0	0	475	596	
13	0	0	0	0	476	596	
14	0	0	0	0	478	596	
15	0	0	0	0	479	597	
0	0	0	0	0	479	597	
1	0	0	0	0	480	598	
2	0	0	0	0	480	597	
3	0	0	0	0	480	596	
4	0	0	0	0	481	597	
5	0	0	0	0	481	597	
6	0	0	0	0	482	597	
7	0	0	0	0	482	598	
8	0	0	0	0	482	597	
9	0	0	0	0	482	597	
10	0	0	0	0	482	597	
11	0	0	0	0	483	597	
12	0	0	0	0	482	597	
13	0	0	0	0	482	597	
14	0	0	0	0	482	597	
15	0	0	0	0	482	598	
0	0	0	0	0	482	597	
1	0	0	0	0	482	597	
2	0	0	0	0	482	597	
3	0	0	0	0	483	598	
4	0	0	0	0	483	597	
5	0	0	0	0	483	598	
6	0	0	0	0	483	597	
7	0	0	0	0	483	598	
8	0	0	0	0	484	597	
9	0	0	0	0	484	596	
10	0	0	0	0	484	596	
11	0	0	0	0	485	597	
12	0	0	0	0	484	596	
13	0	0	0	0	484	596	
14	0	0	0	0	483	597	
15	0	0	0	0	483	597	
0	0	0	0	0	483	596	
1	0	0	0	0	482	596	
2	0	0	0	0	482	596	
3	0	0	0	0	481	595	
4	0	0	0	0	481	596	
5	0	0	0	0	482	596	
6	0	0	0	0	483	595	
7	0	0	0	0	485	596	
8	0	0	0	0	487	595	
9	0	0	0	0	489	595	
10	0	0	0	0	490	595	
11	0	0	0	0	491	595	
12	0	0	0	0	492	595	
13	0	0	0	0	492	594	
14	0	0	0	0	491	595	
15	0	0	0	0	491	595	
0	0	0	0	0	491	594	
1	0	0	0	0	490	595	
2	0	0	0	0	489	595	
3	0	0	0	0	489	595	
4	0	0	0	0	489	595	
5	0	0	0	0	489	595	
6	0	0	0	0	489	596	
7	0	0	0	0	489	595	
8	0	0	0	0	490	595	
9	0	0	0	0	491	595	
10	0	0	0	0	491	595	
11	0	0	0	0	492	596	
12	0	0	0	0	492	595	
13	0	0	0	0	492	596	
14	0	0	0	0	492	595	
15	0	0	0	0	491	595	
0	0	0	0	0	491	595	
1	0	0	0	0	491	595	
2	0	0	0	0	490	595	
3	0	0	0	0	491	596	
4	0	0	0	0	491	595	
5	0	0	0	0	490	596	
6	0	0	0	0	491	596	
7	0	0	0	0	492	597	
8	0	0	0	0	493	596	
9	0	0	0	0	493	596	
10	0	0	0	0	493	596	
11	0	0	0	0	493	597	
12	0	0	0	0	494	597	
13	0	0	0	0	495	596	
14	0	0	0	0	495	596	
15	0	0	0	0	496	597	
0	0	0	0	0	495	597	
1	0	0	0	0	496	596	
2	0	0	0	0	496	596	
3	0	0	0	0	496	596	
4	0	0	0	0	497	596	
5	0	0	0	0	497	596	
6	0	0	0	0	498	597	
7	0	0	0	0	498	597	
8	0	0	0	0	498	596	
9	0	0	0	0	498	597	
10	0	0	0	0	498	596	
11	0	0	0	0	499	596	
12	0	0	0	0	500	596	
13	0	0	0	0	501	596	
14	0	0	0	0	503	597	
15	0	0	0	0	504	597	
0	0	0	0	0	505	596	
1	0	0	0	0	505	596	
2	0	0	0	0	506	596	
3	0	0	0	0	506	597	
4	0	0	0	0	506	597	
5	0	0	0	0	506	597	
6	0	0	0	0	506	596	
7	0	0	0	0	506	598	
8	0	0	0	0	507	597	
9	0	0	0	0	507	597	
10	0	0	0	0	508	597	
11	0	0	0	0	508	597	
12	0	0	0	0	508	597	
13	0	0	0	0	508	597	
14	0	0	0	0	508	597	
15	0	0	0	0	508	598	
0	0	0	0	0	508	596	
1	0	0	0	0	508	596	
2	0	0	0	0	509	596	
3	0	0	0	0	510	597	
4	0	0	0	0	510	597	
5	0	0	0	0	510	597	
6	0	0	0	0	510	596	
7	0	0	0	0	511	598	
8	0	0	0	0	512	597	
9	0	0	0	0	512	597	
10	0	0	0	0	512	596	
11	0	0	0	0	513	596	
12	0	0	0	0	513	597	
13	0	0	0	0	514	596	
14	0	0	0	0	514	596	
15	0	0	0	0	514	597	
0	0	0	0	0	514	596	
1	0	0	0	0	515	597	
2	0	0	0	0	515	596	
3	0	0	0	0	515	597	
4	0	0	0	0	515	597	
5	0	0	0	0	515	596	
6	0	0	0	0	516	596	
7	0	0	0	0	516	597	
8	0	0	0	0	517	597	
9	0	0	0	0	517	597	
10	0	0	0	0	517	596	
11	0	0	0	0	517	597	
12	0	0	0	0	516	597	
13	0	0	0	0	517	598	
14	0	0	0	0	517	598	
15	0	0	0	0	516	598	
0	0	0	0	0	516	598	
1	0	0	0	0	516	596	
2	0	0	0	0	516	598	
3	0	0	0	0	516	597	
4	0	0	0	0	516	597	
5	0	0	0	0	517	597	
6	0	0	0	0	516	597	
7	0	0	0	0	516	598	
8	0	0	0	0	516	597	
9	0	0	0	0	516	597	
10	0	0	0	0	516	597	
11	0	0	0	0	516	598	
12	0	0	0	0	517	597	
13	0	0	0	0	517	597	
14	0	0	0	0	518	597	
15	0	0	0	0	519	598	
0	0	0	0	0	520	598	
1	0	0	0	0	520	597	
2	0	0	0	0	520	598	
3	0	0	0	0	521	598	
4	0	0	0	0	523	598	
5	0	0	0	0	523	597	
6	0	0	0	0	522	598	
7	0	0	0	0	522	598	
8	0	0	0	0	523	597	
9	0	0	0	0	523	598	
10	0	0	0	0	523	597	
11	0	0	0	0	523	598	
12	0	0	0	0	523	596	
13	0	0	0	0	523	597	
14	0	0	0	0	523	597	
15	0	0	0	0	524	598	
0	0	0	0	0	524	597	
1	0	0	0	0	523	598	
2	0	0	0	0	524	598	
3	0	0	0	0	524	598	
4	0	0	0	0	525	598	
5	0	0	0	0	525	598	
6	0	0	0	0	526	598	
7	0	0	0	0	526	598	
8	0	0	0	0	527	598	
9	0	0	0	0	527	597	
10	0	0	0	0	528	598	
11	0	0	0	0	529	598	
12	0	0	0	0	529	598	
13	0	0	0	0	529	597	
14	0	0	0	0	530	597	
15	0	0	0	0	531	598	
0	0	0	0	0	531	598	
1	0	0	0	0	531	598	
2	0	0	0	0	531	598	
3	0	0	0	0	531	598	
4	0	0	0	0	532	598	
5	0	0	0	0	532	598	
6	0	0	0	0	532	597	
7	0	0	0	0	533	598	
8	0	0	0	0	533	598	
9	0	0	0	0	533	598	
10	0	0	0	0	532	598	
11	0	0	0	0	531	598	
12	0	0	0	0	531	598	
13	0	0	0	0	532	598	
14	0	0	0	0	532	598	
15	0	0	0	0	533	598	
0	0	0	0	0	534	598	
1	0	0	0	0	534	598	
2	0	0	0	0	535	597	
3	0	0	0	0	536	597	
4	0	0	0	0	536	597	
5	0	0	0	0	535	597	
6	0	0	0	0	536	597	
7	0	0	0	0	536	597	
8	0	0	0	0	536	597	
9	0	0	0	0	536	596	
10	0	0	0	0	537	596	
11	0	0	0	0	538	597	
12	0	0	0	0	538	596	
13	0	0	0	0	538	596	
14	0	0	0	0	538	596	
15	0	0	0	0	538	597	
0	0	0	0	0	538	596	
1	0	0	0	0	537	596	
2	0	0	0	0	537	596	
3	0	0	0	0	536	596	
4	0	0	0	0	535	596	
5	0	0	0	0	534	596	
6	0	0	0	0	533	595	
7	0	0	0	0	534	596	
8	0	0	0	0	534	595	
9	0	0	0	0	533	595	
10	0	0	0	0	532	595	
11	0	0	0	0	532	595	
12	0	0	0	0	533	595	
13	0	0	0	0	532	595	
14	0	0	0	0	532	594	
15	0	0	0	0	532	595	
0	0	0	0	0	532	595	
1	0	0	0	0	531	595	
2	0	0	0	0	531	595	
3	0	0	0	0	531	594	
4	0	0	0	0	532	595	
5	0	0	0	0	532	594	
6	0	0	0	0	531	594	
7	0	0	0	0	532	595	
8	0	0	0	0	532	594	
9	0	0	0	0	532	595	
10	0	0	0	0	532	595	
11	0	0	0	0	532	595	
12	0	0	0	0	534	594	
13	0	0	0	0	533	594	
14	0	0	0	0	533	594	
15	0	0	0	0	533	595	
0	0	0	0	0	533	595	
1	0	0	0	0	532	594	
2	0	0	0	0	532	595	
3	0	0	0	0	531	595	
4	0	0	0	0	531	595	
5	0	0	0	0	531	595	
6	0	0	0	0	531	595	
7	0	0	0	0	532	596	
8	0	0	0	0	533	595	
9	0	0	0	0	534	595	
10	0	0	0	0	533	595	
11	0	0	0	0	532	595	
12	0	0	0	0	532	595	
13	0	0	0	0	533	595	
14	0	0	0	0	534	595	
15	0	0	0	0	534	596	
0	0	0	0	0	534	596	
1	0	0	0	0	534	595	
2	0	0	0	0	534	596	
3	0	0	0	0	534	596	
4	0	0	0	0	533	596	
5	0	0	0	0	533	596	
6	0	0	0	0	532	596	
7	0	0	0	0	532	596	
8	0	0	0	0	532	596	
9	0	0	0	0	533	596	
10	0	0	0	0	533	596	
11	0	0	0	0	533	596	
12	0	0	0	0	533	596	
13	0	0	0	0	533	596	
14	0	0	0	0	534	596	
15	0	0	0	0	534	596	
0	0	0	0	0	534	595	
1	0	0	0	0	534	596	
2	0	0	0	0	534	596	
3	0	0	0	0	534	596	
4	0	0	0	0	535	596	
5	0	0	0	0	534	596	
6	0	0	0	0	534	596	
7	0	0	0	0	534	596	
8	0	0	0	0	534	596	
9	0	0	0	0	534	596	
10	0	0	0	0	534	596	
11	0	0	0	0	534	596	
12	0	0	0	0	534	596	
13	0	0	0	0	534	596	
14	0	0	0	0	534	596	
15	0	0	0	0	534	596	
0	0	0	0	0	534	596	
1	0	0	0	0	533	596	
2	0	0	0	0	533	596	
3	0	0	0	0	533	596	
4	0	0	0	0	534	596	
5	0	0	0	0	535	596	
6	0	0	0	0	534	596	
7	0	0	0	0	535	598	
8	0	0	0	0	535	596	
9	0	0	0	0	536	596	
10	0	0	0	0	536	596	
11	0	0	0	0	536	597	
12	0	0	0	0	536	597	
13	0	0	0	0	536	597	
14	0	0	0	0	536	597	
15	0	0	0	0	536	597	
0	0	0	0	0	535	596	
1	0	0	0	0	535	596	
2	0	0	0	0	534	596	
3	0	0	0	0	534	597	
4	0	0	0	0	534	597	
5	0	0	0	0	533	597	
6	0	0	0	0	533	597	
7	0	0	0	0	534	598	
8	0	0	0	0	534	598	
9	0	0	0	0	535	598	
10	0	0	0	0	535	598	
11	0	0	0	0	535	598	
12	0	0	0	0	535	597	
13	0	0	0	0	535	597	
14	0	0	0	0	536	598	
15	0	0	0	0	537	598	
0	0	0	0	0	536	598	
1	0	0	0	0	536	598	
2	0	0	0	0	536	598	
3	0	0	0	0	535	598	
4	0	0	0	0	536	598	
5	0	0	0	0	536	598	
6	0	0	0	0	537	598	
7	0	0	0	0	536	599	
8	0	0	0	0	537	598	
9	0	0	0	0	537	598	
10	0	0	0	0	537	598	
11	0	0	0	0	538	598	
12	0	0	0	0	539	598	
13	0	0	0	0	538	598	
14	0	0	0	0	538	598	
15	0	0	0	0	538	598	
0	0	0	0	0	538	598	
1	0	0	0	0	537	598	
2	0	0	0	0	537	598	
3	0	0	0	0	536	598	
4	0	0	0	0	537	598	
5	0	0	0	0	537	598	
6	0	0	0	0	536	598	
7	0	0	0	0	537	599	
8	0	0	0	0	537	598	
9	0	0	0	0	537	598	
10	0	0	0	0	538	598	
11	0	0	0	0	538	598	
12	0	0	0	0	538	599	
13	0	0	0	0	538	599	
14	0	0	0	0	539	598	
15	0	0	0	0	539	600	
0	0	0	0	0	539	599	
1	0	0	0	0	539	598	
2	0	0	0	0	538	598	
3	0	0	0	0	537	599	
4	0	0	0	0	537	599	
5	0	0	0	0	537	598	
6	0	0	0	0	537	597	
7	0	0	0	0	537	598	
8	0	0	0	0	537	597	
9	0	0	0	0	538	598	
10	0	0	0	0	537	597	
11	0	0	0	0	537	598	
12	0	0	0	0	537	596	
13	0	0	0	0	537	597	
14	0	0	0	0	537	597	
15	0	0	0	0	537	597	
0	0	0	0	0	537	597	
1	0	0	0	0	536	597	
2	0	0	0	0	536	597	
3	0	0	0	0	537	597	
4	0	0	0	0	536	596	
5	0	0	0	0	537	597	
6	0	0	0	0	537	596	
7	0	0	0	0	537	598	
8	0	0	0	0	537	597	
9	0	0	0	0	536	596	
10	0	0	0	0	535	596	
11	0	0	0	0	535	597	
12	0	0	0	0	536	597	
13	0	0	0	0	536	597	
14	0	0	0	0	536	596	
15	0	0	0	0	536	597	
0	0	0	0	0	536	596	
1	0	0	0	0	536	595	
2	0	0	0	0	536	595	
3	0	0	0	0	536	595	
4	0	0	0	0	537	596	
5	0	0	0	0	536	595	
6	0	0	0	0	536	595	
7	0	0	0	0	537	595	
8	0	0	0	0	537	595	
9	0	0	0	0	537	595	
10	0	0	0	0	536	595	
11	0	0	0	0	536	595	
12	0	0	0	0	536	595	
13	0	0	0	0	536	595	
14	0	0	0	0	538	595	
15	0	0	0	0	537	596	
0	0	0	0	0	537	595	
1	0	0	0	0	537	595	
2	0	0	0	0	536	595	
3	0	0	0	0	536	595	
4	0	0	0	0	536	595	
5	0	0	0	0	536	596	
6	0	0	0	0	536	595	
7	0	0	0	0	536	595	
8	0	0	0	0	536	595	
9	0	0	0	0	536	595	
10	0	0	0	0	536	595	
11	0	0	0	0	536	595	
12	0	0	0	0	536	595	
13	0	0	0	0	536	595	
14	0	0	0	0	536	595	
15	0	0	0	0	536	595	
0	0	0	0	0	536	595	
1	0	0	0	0	536	595	
2	0	0	0	0	536	596	
3	0	0	0	0	536	595	
4	0	0	0	0	536	595	
5	0	0	0	0	536	595	
6	0	0	0	0	535	595	
7	0	0	0	0	535	597	
8	0	0	0	0	535	595	
9	0	0	0	0	535	596	
10	0	0	0	0	536	596	
11	0	0	0	0	536	596	
12	0	0	0	0	537	596	
13	0	0	0	0	539	596	
14	0	0	0	0	540	596	
15	0	0	0	0	540	596	
0	0	0	0	0	541	596	
1	0	0	0	0	541	596	
2	0	0	0	0	542	596	
3	0	0	0	0	542	596	
4	0	0	0	0	542	596	
5	0	0	0	0	543	596	
6	0	0	0	0	543	596	
7	0	0	0	0	545	598	
8	0	0	0	0	545	596	
9	0	0	0	0	545	596	
10	0	0	0	0	545	597	
11	0	0	0	0	545	597	
12	0	0	0	0	545	597	
13	0	0	0	0	545	597	
14	0	0	0	0	545	597	
15	0	0	0	0	546	598	
0	0	0	0	0	545	597	
1	0	0	0	0	543	598	
2	0	0	0	0	543	597	
3	0	0	0	0	543	597	
4	0	0	0	0	542	597	
5	0	0	0	0	542	597	
6	0	0	0	0	542	597	
7	0	0	0	0	542	598	
8	0	0	0	0	542	597	
9	0	0	0	0	541	597	
10	0	0	0	0	542	597	
11	0	0	0	0	542	597	
12	0	0	0	0	542	597	
13	0	0	0	0	542	596	
14	0	0	0	0	543	597	
15	0	0	0	0	544	598	
0	0	0	0	0	543	598	
1	0	0	0	0	544	596	
2	0	0	0	0	544	597	
3	0	0	0	0	545	597	
4	0	0	0	0	546	597	
5	0	0	0	0	546	597	
6	0	0	0	0	547	597	
7	0	0	0	0	547	597	
8	0	0	0	0	547	596	
9	0	0	0	0	547	596	
10	0	0	0	0	547	595	
11	0	0	0	0	546	596	
12	0	0	0	0	545	596	
13	0	0	0	0	544	596	
14	0	0	0	0	544	596	
15	0	0	0	0	543	597	
0	0	0	0	0	544	595	
1	0	0	0	0	545	595	
2	0	0	0	0	545	595	
3	0	0	0	0	545	596	
4	0	0	0	0	545	595	
5	0	0	0	0	545	595	
6	0	0	0	0	544	595	
7	0	0	0	0	543	596	
8	0	0	0	0	543	595	
9	0	0	0	0	543	595	
10	0	0	0	0	543	595	
11	0	0	0	0	542	595	
12	0	0	0	0	541	595	
13	0	0	0	0	541	595	
14	0	0	0	0	540	595	
15	0	0	0	0	540	595	
0	0	0	0	0	539	595	
1	0	0	0	0	538	595	
2	0	0	0	0	537	594	
3	0	0	0	0	537	595	
4	0	0	0	0	537	595	
5	0	0	0	0	536	595	
6	0	0	0	0	536	595	
7	0	0	0	0	535	595	
8	0	0	0	0	533	595	
9	0	0	0	0	531	595	
10	0	0	0	0	529	595	
11	0	0	0	0	526	595	
12	0	0	0	0	522	595	
13	0	0	0	0	518	596	
14	0	0	0	0	513	595	
15	0	0	0	0	510	596	
0	0	0	0	0	506	596	
1	0	0	0	0	503	596	
2	0	0	0	0	500	595	
3	0	0	0	0	498	596	
4	0	0	0	0	496	595	
5	0	0	0	0	494	595	
6	0	0	0	0	493	596	
7	0	0	0	0	492	597	
8	0	0	0	0	494	596	
9	0	0	0	0	498	596	
10	0	0	0	0	502	596	
11	0	0	0	0	508	597	
12	0	0	0	0	515	597	
13	0	0	0	0	524	597	
14	0	0	0	0	534	597	
15	0	0	0	0	544	597	
0	0	0	0	0	555	596	
1	0	0	0	0	569	596	
2	0	0	0	0	583	597	
3	0	0	0	0	597	597	
4	0	0	0	0	611	597	
5	0	0	0	0	624	598	
6	0	0	0	0	636	597	
7	0	0	0	0	647	598	
8	0	0	0	0	656	598	
9	0	0	0	0	665	597	
10	0	0	0	0	671	598	
11	0	0	0	0	676	598	
12	0	0	0	0	681	597	
13	0	0	0	0	684	598	
14	0	0	0	0	684	597	
15	0	0	0	0	684	598	
0	0	0	0	0	681	597	
1	0	0	0	0	677	598	
2	0	0	0	0	671	598	
3	0	0	0	0	664	598	
4	0	0	0	0	655	598	
5	0	0	0	0	646	598	
6	0	0	0	0	636	598	
7	0	0	0	0	625	598	
8	0	0	0	0	615	598	
9	0	0	0	0	606	598	
10	0	0	0	0	595	598	
11	0	0	0	0	586	598	
12	0	0	0	0	577	598	
13	0	0	0	0	568	598	
14	0	0	0	0	560	598	
15	0	0	0	0	554	599	
0	0	0	0	0	548	597	
1	0	0	0	0	544	598	
2	0	0	0	0	541	598	
3	0	0	0	0	538	599	
4	0	0	0	0	535	598	
5	0	0	0	0	531	597	
6	0	0	0	0	529	598	
7	0	0	0	0	525	598	
8	0	0	0	0	523	598	
9	0	0	0	0	520	598	
10	0	0	0	0	519	598	
11	0	0	0	0	518	599	
12	0	0	0	0	516	598	
13	0	0	0	0	516	598	
14	0	0	0	0	516	598	
15	0	0	0	0	515	599	
0	0	0	0	0	515	598	
1	0	0	0	0	514	599	
2	0	0	0	0	513	598	
3	0	0	0	0	513	598	
4	0	0	0	0	514	598	
5	0	0	0	0	514	598	
6	0	0	0	0	515	597	
7	0	0	0	0	515	598	
8	0	0	0	0	515	597	
9	0	0	0	0	515	597	
10	0	0	0	0	514	598	
11	0	0	0	0	513	597	
12	0	0	0	0	511	596	
13	0	0	0	0	511	596	
14	0	0	0	0	511	596	
15	0	0	0	0	511	597	
0	0	0	0	0	511	596	
1	0	0	0	0	512	597	
2	0	0	0	0	512	596	
3	0	0	0	0	512	596	
4	0	0	0	0	513	596	
5	0	0	0	0	513	596	
6	0	0	0	0	512	596	
7	0	0	0	0	512	596	
8	0	0	0	0	512	595	
9	0	0	0	0	512	595	
10	0	0	0	0	512	595	
11	0	0	0	0	512	596	
12	0	0	0	0	512	595	
13	0	0	0	0	512	595	
14	0	0	0	0	512	595	
15	0	0	0	0	510	596	
0	0	0	0	0	510	595	
1	0	0	0	0	511	595	
2	0	0	0	0	512	595	
3	0	0	0	0	513	596	
4	0	0	0	0	513	595	
5	0	0	0	0	513	595	
6	0	0	0	0	513	595	
7	0	0	0	0	513	596	
8	0	0	0	0	515	595	
9	0	0	0	0	515	595	
10	0	0	0	0	515	595	
11	0	0	0	0	515	596	
12	0	0	0	0	516	596	
13	0	0	0	0	516	595	
14	0	0	0	0	517	595	
15	0	0	0	0	519	596	
0	0	0	0	0	519	595	
1	0	0	0	0	519	595	
2	0	0	0	0	520	595	
3	0	0	0	0	520	595	
4	0	0	0	0	521	595	
5	0	0	0	0	521	596	
6	0	0	0	0	522	595	
7	0	0	0	0	521	595	
8	0	0	0	0	521	595	
9	0	0	0	0	520	596	
10	0	0	0	0	520	595	
11	0	0	0	0	519	596	
12	0	0	0	0	519	596	
13	0	0	0	0	519	596	
14	0	0	0	0	518	596	
15	0	0	0	0	517	597	
0	0	0	0	0	517	595	
1	0	0	0	0	518	596	
2	0	0	0	0	518	596	
3	0	0	0	0	519	596	
4	0	0	0	0	519	596	
5	0	0	0	0	520	596	
6	0	0	0	0	520	596	
7	0	0	0	0	519	597	
8	0	0	0	0	520	597	
9	0	0	0	0	520	597	
10	0	0	0	0	521	597	
11	0	0	0	0	521	597	
12	0	0	0	0	523	597	
13	0	0	0	0	523	597	
14	0	0	0	0	524	596	
15	0	0	0	0	524	598	
0	0	0	0	0	524	597	
1	0	0	0	0	524	596	
2	0	0	0	0	523	596	
3	0	0	0	0	524	596	
4	0	0	0	0	523	596	
5	0	0	0	0	523	597	
6	0	0	0	0	521	596	
7	0	0	0	0	521	598	
8	0	0	0	0	520	597	
9	0	0	0	0	520	596	
10	0	0	0	0	520	596	
11	0	0	0	0	519	596	
12	0	0	0	0	518	597	
13	0	0	0	0	519	596	
14	0	0	0	0	520	596	
15	0	0	0	0	521	597	
0	0	0	0	0	521	596	
1	0	0	0	0	523	596	
2	0	0	0	0	523	596	
3	0	0	0	0	524	596	
4	0	0	0	0	524	595	
5	0	0	0	0	524	596	
6	0	0	0	0	524	596	
7	0	0	0	0	526	596	
8	0	0	0	0	525	596	
9	0	0	0	0	526	595	
10	0	0	0	0	526	595	
11	0	0	0	0	526	596	
12	0	0	0	0	526	596	
13	0	0	0	0	525	596	
14	0	0	0	0	525	596	
15	0	0	0	0	524	596	
0	0	0	0	0	524	595	
1	0	0	0	0	523	595	
2	0	0	0	0	522	595	
3	0	0	0	0	521	596	
4	0	0	0	0	521	595	
5	0	0	0	0	520	595	
6	0	0	0	0	519	595	
7	0	0	0	0	520	595	
8	0	0	0	0	521	595	
9	0	0	0	0	521	595	
10	0	0	0	0	521	596	
11	0	0	0	0	521	595	
12	0	0	0	0	521	596	
13	0	0	0	0	521	596	
14	0	0	0	0	521	595	
15	0	0	0	0	520	596	
0	0	0	0	0	520	595	
1	0	0	0	0	519	596	
2	0	0	0	0	519	595	
3	0	0	0	0	519	596	
4	0	0	0	0	519	596	
5	0	0	0	0	520	596	
6	0	0	0	0	519	596	
7	0	0	0	0	520	597	
8	0	0	0	0	521	597	
9	0	0	0	0	522	597	
10	0	0	0	0	523	597	
11	0	0	0	0	524	597	
12	0	0	0	0	524	598	
13	0	0	0	0	524	596	
14	0	0	0	0	524	597	
15	0	0	0	0	524	598	
0	0	0	0	0	524	596	
1	0	0	0	0	524	597	
2	0	0	0	0	524	596	
3	0	0	0	0	524	597	
4	0	0	0	0	525	597	
5	0	0	0	0	526	597	
6	0	0	0	0	526	597	
7	0	0	0	0	527	597	
8	0	0	0	0	528	596	
9	0	0	0	0	528	596	
10	0	0	0	0	529	596	
11	0	0	0	0	530	597	
12	0	0	0	0	530	597	
13	0	0	0	0	531	597	
14	0	0	0	0	531	597	
15	0	0	0	0	531	598	
0	0	0	0	0	531	598	
1	0	0	0	0	532	597	
2	0	0	0	0	530	597	
3	0	0	0	0	530	597	
4	0	0	0	0	531	597	
5	0	0	0	0	531	597	
6	0	0	0	0	530	597	
7	0	0	0	0	529	597	
8	0	0	0	0	528	597	
9	0	0	0	0	528	596	
10	0	0	0	0	528	597	
11	0	0	0	0	527	597	
12	0	0	0	0	526	597	
13	0	0	0	0	526	596	
14	0	0	0	0	525	596	
15	0	0	0	0	526	598	
0	0	0	0	0	525	596	
1	0	0	0	0	526	597	
2	0	0	0	0	526	597	
3	0	0	0	0	527	598	
4	0	0	0	0	526	597	
5	0	0	0	0	526	597	
6	0	0	0	0	526	597	
7	0	0	0	0	526	598	
8	0	0	0	0	525	597	
9	0	0	0	0	524	596	
10	0	0	0	0	524	596	
11	0	0	0	0	525	597	
12	0	0	0	0	525	596	
13	0	0	0	0	525	597	
14	0	0	0	0	525	597	
15	0	0	0	0	525	597	
0	0	0	0	0	526	597	
1	0	0	0	0	525	597	
2	0	0	0	0	524	597	
3	0	0	0	0	524	597	
4	0	0	0	0	524	596	
5	0	0	0	0	524	597	
6	0	0	0	0	522	596	
7	0	0	0	0	521	598	
8	0	0	0	0	520	596	
9	0	0	0	0	521	596	
10	0	0	0	0	520	596	
11	0	0	0	0	519	597	
12	0	0	0	0	519	597	
13	0	0	0	0	519	597	
14	0	0	0	0	518	597	
15	0	0	0	0	518	598	
0	0	0	0	0	517	597	
1	0	0	0	0	516	596	
2	0	0	0	0	516	597	
3	0	0	0	0	515	596	
4	0	0	0	0	515	596	
5	0	0	0	0	514	596	
6	0	0	0	0	514	596	
7	0	0	0	0	513	597	
8	0	0	0	0	513	596	
9	0	0	0	0	514	596	
10	0	0	0	0	513	596	
11	0	0	0	0	513	596	
12	0	0	0	0	513	597	
13	0	0	0	0	513	596	
14	0	0	0	0	513	597	
15	0	0	0	0	513	596	
0	0	0	0	0	512	596	
1	0	0	0	0	512	596	
2	0	0	0	0	511	596	
3	0	0	0	0	511	596	
4	0	0	0	0	510	596	
5	0	0	0	0	510	595	
6	0	0	0	0	509	596	
7	0	0	0	0	508	596	
8	0	0	0	0	507	596	
9	0	0	0	0	506	596	
10	0	0	0	0	505	596	
11	0	0	0	0	505	596	
12	0	0	0	0	505	596	
13	0	0	0	0	504	596	
14	0	0	0	0	504	596	
15	0	0	0	0	505	597	
0	0	0	0	0	504	596	
1	0	0	0	0	505	596	
2	0	0	0	0	505	596	
3	0	0	0	0	505	598	
4	0	0	0	0	506	597	
5	0	0	0	0	506	597	
6	0	0	0	0	506	597	
7	0	0	0	0	505	598	
8	0	0	0	0	505	596	
9	0	0	0	0	505	596	
10	0	0	0	0	506	596	
11	0	0	0	0	508	596	
12	0	0	0	0	511	596	
13	0	0	0	0	512	596	
14	0	0	0	0	513	596	
15	0	0	0	0	515	598	
0	0	0	0	0	516	596	
1	0	0	0	0	518	596	
2	0	0	0	0	518	596	
3	0	0	0	0	519	597	
4	0	0	0	0	520	596	
5	0	0	0	0	521	596	
6	0	0	0	0	523	595	
7	0	0	0	0	523	596	
8	0	0	0	0	522	597	
9	0	0	0	0	522	597	
10	0	0	0	0	522	596	
11	0	0	0	0	521	598	
12	0	0	0	0	522	597	
13	0	0	0	0	521	597	
14	0	0	0	0	520	597	
15	0	0	0	0	520	598	
0	0	0	0	0	520	597	
1	0	0	0	0	520	597	
2	0	0	0	0	521	597	
3	0	0	0	0	521	597	
4	0	0	0	0	520	596	
5	0	0	0	0	521	597	
6	0	0	0	0	520	597	
7	0	0	0	0	519	598	
8	0	0	0	0	520	596	
9	0	0	0	0	519	596	
10	0	0	0	0	520	597	
11	0	0	0	0	520	597	
12	0	0	0	0	520	597	
13	0	0	0	0	520	596	
14	0	0	0	0	520	596	
15	0	0	0	0	520	597	
0	0	0	0	0	519	596	
1	0	0	0	0	519	596	
2	0	0	0	0	519	596	
3	0	0	0	0	519	597	
4	0	0	0	0	520	596	
5	0	0	0	0	520	596	
6	0	0	0	0	521	597	
7	0	0	0	0	523	598	
8	0	0	0	0	524	597	
9	0	0	0	0	526	596	
10	0	0	0	0	528	596	
11	0	0	0	0	529	596	
12	0	0	0	0	531	595	
13	0	0	0	0	532	596	
14	0	0	0	0	534	596	
15	0	0	0	0	535	596	
0	0	0	0	0	536	596	
1	0	0	0	0	536	596	
2	0	0	0	0	536	596	
3	0	0	0	0	536	595	
4	0	0	0	0	536	596	
5	0	0	0	0	536	596	
6	0	0	0	0	536	596	
7	0	0	0	0	536	597	
8	0	0	0	0	536	595	
9	0	0	0	0	536	596	
10	0	0	0	0	537	596	
11	0	0	0	0	536	596	
12	0	0	0	0	537	596	
13	0	0	0	0	538	596	
14	0	0	0	0	539	596	
15	0	0	0	0	539	596	
0	0	0	0	0	539	596	
1	0	0	0	0	539	596	
2	0	0	0	0	539	596	
3	0	0	0	0	537	595	
4	0	0	0	0	537	596	
5	0	0	0	0	537	596	
6	0	0	0	0	537	596	
7	0	0	0	0	536	598	
8	0	0	0	0	536	596	
9	0	0	0	0	536	597	
10	0	0	0	0	536	596	
11	0	0	0	0	537	596	
12	0	0	0	0	538	596	
13	0	0	0	0	539	596	
14	0	0	0	0	539	596	
15	0	0	0	0	539	597	
0	0	0	0	0	540	596	
1	0	0	0	0	540	597	
2	0	0	0	0	540	597	
3	0	0	0	0	541	597	
4	0	0	0	0	541	597	
5	0	0	0	0	540	598	
6	0	0	0	0	539	598	
7	0	0	0	0	538	598	
8	0	0	0	0	536	598	
9	0	0	0	0	536	597	
10	0	0	0	0	536	598	
11	0	0	0	0	536	598	
12	0	0	0	0	535	598	
13	0	0	0	0	536	597	
14	0	0	0	0	536	597	
15	0	0	0	0	536	598	
0	0	0	0	0	535	597	
1	0	0	0	0	534	598	
2	0	0	0	0	533	598	
3	0	0	0	0	532	598	
4	0	0	0	0	531	598	
5	0	0	0	0	530	598	
6	0	0	0	0	529	598	
7	0	0	0	0	530	599	
8	0	0	0	0	529	597	
9	0	0	0	0	529	597	
10	0	0	0	0	529	597	
11	0	0	0	0	529	598	
12	0	0	0	0	529	598	
13	0	0	0	0	529	598	
14	0	0	0	0	529	598	
15	0	0	0	0	529	598	
0	0	0	0	0	528	598	
1	0	0	0	0	528	598	
2	0	0	0	0	527	598	
3	0	0	0	0	528	598	
4	0	0	0	0	527	598	
5	0	0	0	0	527	598	
6	0	0	0	0	526	597	
7	0	0	0	0	526	599	
8	0	0	0	0	526	598	
9	0	0	0	0	525	598	
10	0	0	0	0	524	598	
11	0	0	0	0	524	599	
12	0	0	0	0	524	599	
13	0	0	0	0	524	598	
14	0	0	0	0	524	598	
15	0	0	0	0	523	598	
0	0	0	0	0	523	598	
1	0	0	0	0	522	598	
2	0	0	0	0	522	598	
3	0	0	0	0	522	598	
4	0	0	0	0	521	598	
5	0	0	0	0	520	598	
6	0	0	0	0	519	598	
7	0	0	0	0	517	598	
8	0	0	0	0	516	598	
9	0	0	0	0	515	598	
10	0	0	0	0	515	598	
11	0	0	0	0	513	598	
12	0	0	0	0	512	597	
13	0	0	0	0	509	598	
14	0	0	0	0	507	598	
15	0	0	0	0	507	598	
0	0	0	0	0	507	597	
1	0	0	0	0	508	597	
2	0	0	0	0	508	596	
3	0	0	0	0	508	596	
4	0	0	0	0	508	597	
5	0	0	0	0	508	596	
6	0	0	0	0	508	596	
7	0	0	0	0	508	597	
8	0	0	0	0	508	596	
9	0	0	0	0	508	597	
10	0	0	0	0	507	596	
11	0	0	0	0	506	596	
12	0	0	0	0	506	596	
13	0	0	0	0	506	595	
14	0	0	0	0	506	595	
15	0	0	0	0	507	596	
0	0	0	0	0	506	595	
1	0	0	0	0	505	595	
2	0	0	0	0	504	595	
3	0	0	0	0	504	596	
4	0	0	0	0	503	596	
5	0	0	0	0	503	596	
6	0	0	0	0	503	595	
7	0	0	0	0	504	596	
8	0	0	0	0	505	595	
9	0	0	0	0	505	595	
10	0	0	0	0	505	595	
11	0	0	0	0	505	596	
12	0	0	0	0	505	595	
13	0	0	0	0	506	596	
14	0	0	0	0	507	595	
15	0	0	0	0	506	596	
0	0	0	0	0	505	595	
1	0	0	0	0	505	595	
2	0	0	0	0	506	595	
3	0	0	0	0	506	596	
4	0	0	0	0	505	595	
5	0	0	0	0	506	595	
6	0	0	0	0	505	596	
7	0	0	0	0	505	596	
8	0	0	0	0	505	596	
9	0	0	0	0	505	596	
10	0	0	0	0	505	597	
11	0	0	0	0	504	596	
12	0	0	0	0	504	596	
13	0	0	0	0	503	596	
14	0	0	0	0	503	596	
15	0	0	0	0	503	597	
0	0	0	0	0	502	595	
1	0	0	0	0	502	596	
2	0	0	0	0	502	596	
3	0	0	0	0	501	596	
4	0	0	0	0	501	596	
5	0	0	0	0	499	596	
6	0	0	0	0	498	595	
7	0	0	0	0	497	596	
8	0	0	0	0	496	596	
9	0	0	0	0	496	596	
10	0	0	0	0	497	596	
11	0	0	0	0	497	596	
12	0	0	0	0	498	596	
13	0	0	0	0	498	595	
14	0	0	0	0	497	596	
15	0	0	0	0	496	596	
0	0	0	0	0	495	595	
1	0	0	0	0	493	595	
2	0	0	0	0	492	596	
3	0	0	0	0	492	596	
4	0	0	0	0	491	596	
5	0	0	0	0	491	596	
6	0	0	0	0	492	596	
7	0	0	0	0	493	596	
8	0	0	0	0	494	595	
9	0	0	0	0	495	596	
10	0	0	0	0	495	595	
11	0	0	0	0	495	595	
12	0	0	0	0	496	595	
13	0	0	0	0	496	595	
14	0	0	0	0	495	596	
15	0	0	0	0	495	597	
0	0	0	0	0	494	596	
1	0	0	0	0	494	596	
2	0	0	0	0	494	596	
3	0	0	0	0	494	596	
4	0	0	0	0	494	596	
5	0	0	0	0	492	595	
6	0	0	0	0	492	595	
7	0	0	0	0	492	596	
8	0	0	0	0	491	596	
9	0	0	0	0	492	595	
10	0	0	0	0	492	595	
11	0	0	0	0	492	596	
12	0	0	0	0	492	596	
13	0	0	0	0	492	595	
14	0	0	0	0	492	595	
15	0	0	0	0	492	596	
0	0	0	0	0	492	595	
1	0	0	0	0	492	595	
2	0	0	0	0	492	595	
3	0	0	0	0	491	596	
4	0	0	0	0	491	595	
5	0	0	0	0	491	595	
6	0	0	0	0	490	596	
7	0	0	0	0	491	596	
8	0	0	0	0	490	596	
9	0	0	0	0	490	595	
10	0	0	0	0	489	595	
11	0	0	0	0	488	596	
12	0	0	0	0	487	596	
13	0	0	0	0	485	596	
14	0	0	0	0	483	596	
15	0	0	0	0	480	597	
0	0	0	0	0	479	597	
1	0	0	0	0	475	596	
2	0	0	0	0	471	596	
3	0	0	0	0	466	596	
4	0	0	0	0	462	596	
5	0	0	0	0	457	596	
6	0	0	0	0	454	596	
7	0	0	0	0	451	598	
8	0	0	0	0	448	596	
9	0	0	0	0	445	596	
10	0	0	0	0	443	597	
11	0	0	0	0	441	597	
12	0	0	0	0	440	596	
13	0	0	0	0	439	596	
14	0	0	0	0	440	597	
15	0	0	0	0	441	597	
0	0	0	0	0	444	596	
1	0	0	0	0	449	597	
2	0	0	0	0	455	597	
3	0	0	0	0	463	597	
4	0	0	0	0	473	597	
5	0	0	0	0	483	597	
6	0	0	0	0	495	598	
7	0	0	0	0	508	598	
8	0	0	0	0	521	597	
9	0	0	0	0	535	598	
10	0	0	0	0	548	596	
11	0	0	0	0	562	598	
12	0	0	0	0	574	598	
13	0	0	0	0	585	598	
14	0	0	0	0	596	597	
15	0	0	0	0	604	598	
0	0	0	0	0	612	597	
1	0	0	0	0	617	597	
2	0	0	0	0	622	597	
3	0	0	0	0	625	598	
4	0	0	0	0	627	598	
5	0	0	0	0	627	598	
6	0	0	0	0	625	598	
7	0	0	0	0	622	598	
8	0	0	0	0	617	598	
9	0	0	0	0	609	598	
10	0	0	0	0	601	597	
11	0	0	0	0	592	598	
12	0	0	0	0	581	598	
13	0	0	0	0	571	598	
14	0	0	0	0	561	598	
15	0	0	0	0	551	598	
0	0	0	0	0	541	597	
1	0	0	0	0	531	598	
2	0	0	0	0	523	597	
3	0	0	0	0	515	598	
4	0	0	0	0	508	598	
5	0	0	0	0	502	598	
6	0	0	0	0	495	597	
7	0	0	0	0	491	598	
8	0	0	0	0	487	598	
9	0	0	0	0	484	598	
10	0	0	0	0	482	598	
11	0	0	0	0	480	598	
12	0	0	0	0	479	598	
13	0	0	0	0	478	598	
14	0	0	0	0	477	597	
15	0	0	0	0	476	599	
0	0	0	0	0	476	598	
1	0	0	0	0	477	598	
2	0	0	0	0	477	597	
3	0	0	0	0	476	597	
4	0	0	0	0	476	598	
5	0	0	0	0	476	597	
6	0	0	0	0	476	597	
7	0	0	0	0	476	597	
8	0	0	0	0	477	597	
9	0	0	0	0	478	597	
10	0	0	0	0	477	597	
11	0	0	0	0	478	597	
12	0	0	0	0	479	597	
13	0	0	0	0	479	596	
14	0	0	0	0	479	597	
15	0	0	0	0	479	598	
0	0	0	0	0	479	597	
1	0	0	0	0	478	597	
2	0	0	0	0	478	596	
3	0	0	0	0	478	596	
4	0	0	0	0	477	596	
5	0	0	0	0	476	596	
6	0	0	0	0	476	596	
7	0	0	0	0	476	597	
8	0	0	0	0	476	596	
9	0	0	0	0	476	596	
10	0	0	0	0	477	596	
11	0	0	0	0	476	596	
12	0	0	0	0	475	596	
13	0	0	0	0	475	596	
14	0	0	0	0	476	595	
15	0	0	0	0	475	596	
0	0	0	0	0	474	595	
1	0	0	0	0	473	595	
2	0	0	0	0	472	596	
3	0	0	0	0	472	596	
4	0	0	0	0	471	595	
5	0	0	0	0	471	595	
6	0	0	0	0	472	595	
7	0	0	0	0	473	595	
8	0	0	0	0	473	595	
9	0	0	0	0	474	595	
10	0	0	0	0	474	595	
11	0	0	0	0	474	595	
12	0	0	0	0	473	595	
13	0	0	0	0	473	595	
14	0	0	0	0	472	595	
15	0	0	0	0	472	596	
0	0	0	0	0	471	595	
1	0	0	0	0	471	595	
2	0	0	0	0	469	595	
3	0	0	0	0	469	596	
4	0	0	0	0	469	596	
5	0	0	0	0	470	595	
6	0	0	0	0	470	595	
7	0	0	0	0	470	596	
8	0	0	0	0	471	596	
9	0	0	0	0	471	595	
10	0	0	0	0	472	596	
11	0	0	0	0	472	595	
12	0	0	0	0	472	595	
13	0	0	0	0	473	595	
14	0	0	0	0	472	596	
15	0	0	0	0	473	596	
0	0	0	0	0	473	596	
1	0	0	0	0	472	595	
2	0	0	0	0	472	596	
3	0	0	0	0	472	597	
4	0	0	0	0	471	596	
5	0	0	0	0	471	596	
6	0	0	0	0	471	596	
7	0	0	0	0	471	597	
8	0	0	0	0	471	596	
9	0	0	0	0	472	596	
10	0	0	0	0	472	596	
11	0	0	0	0	472	596	
12	0	0	0	0	472	596	
13	0	0	0	0	472	596	
14	0	0	0	0	472	597	
15	0	0	0	0	472	597	
0	0	0	0	0	472	596	
1	0	0	0	0	473	596	
2	0	0	0	0	472	596	
3	0	0	0	0	471	596	
4	0	0	0	0	471	596	
5	0	0	0	0	471	596	
6	0	0	0	0	471	596	
7	0	0	0	0	472	597	
8	0	0	0	0	472	596	
9	0	0	0	0	472	596	
10	0	0	0	0	473	596	
11	0	0	0	0	473	597	
12	0	0	0	0	474	596	
13	0	0	0	0	475	596	
14	0	0	0	0	475	596	
15	0	0	0	0	476	596	
0	0	0	0	0	475	597	
1	0	0	0	0	475	597	
2	0	0	0	0	475	596	
3	0	0	0	0	475	597	
4	0	0	0	0	474	596	
5	0	0	0	0	474	596	
6	0	0	0	0	474	596	
7	0	0	0	0	473	597	
8	0	0	0	0	472	596	
9	0	0	0	0	472	596	
10	0	0	0	0	472	596	
11	0	0	0	0	472	596	
12	0	0	0	0	471	596	
13	0	0	0	0	470	595	
14	0	0	0	0	469	595	
15	0	0	0	0	470	596	
0	0	0	0	0	469	595	
1	0	0	0	0	468	595	
2	0	0	0	0	467	595	
3	0	0	0	0	465	595	
4	0	0	0	0	464	596	
5	0	0	0	0	464	595	
6	0	0	0	0	464	595	
7	0	0	0	0	464	596	
8	0	0	0	0	464	595	
9	0	0	0	0	464	595	
10	0	0	0	0	464	596	
11	0	0	0	0	464	596	
12	0	0	0	0	464	595	
13	0	0	0	0	464	595	
14	0	0	0	0	464	595	
15	0	0	0	0	463	596	
0	0	0	0	0	464	596	
1	0	0	0	0	464	596	
2	0	0	0	0	463	596	
3	0	0	0	0	464	596	
4	0	0	0	0	464	596	
5	0	0	0	0	463	596	
6	0	0	0	0	463	596	
7	0	0	0	0	462	597	
8	0	0	0	0	463	596	
9	0	0	0	0	464	597	
10	0	0	0	0	464	596	
11	0	0	0	0	464	597	
12	0	0	0	0	464	597	
13	0	0	0	0	465	597	
14	0	0	0	0	465	597	
15	0	0	0	0	465	598	
0	0	0	0	0	464	597	
1	0	0	0	0	464	597	
2	0	0	0	0	465	597	
3	0	0	0	0	465	598	
4	0	0	0	0	466	598	
5	0	0	0	0	467	596	
6	0	0	0	0	467	598	
7	0	0	0	0	469	598	
8	0	0	0	0	469	597	
9	0	0	0	0	470	598	
10	0	0	0	0	470	597	
11	0	0	0	0	470	598	
12	0	0	0	0	470	597	
13	0	0	0	0	469	597	
14	0	0	0	0	468	597	
15	0	0	0	0	468	598	
0	0	0	0	0	468	597	
1	0	0	0	0	470	597	
2	0	0	0	0	471	597	
3	0	0	0	0	472	598	
4	0	0	0	0	472	598	
5	0	0	0	0	473	597	
6	0	0	0	0	474	598	
7	0	0	0	0	474	598	
8	0	0	0	0	474	597	
9	0	0	0	0	475	597	
10	0	0	0	0	476	597	
11	0	0	0	0	476	597	
12	0	0	0	0	475	596	
13	0	0	0	0	475	597	
14	0	0	0	0	475	597	
15	0	0	0	0	476	597	
0	0	0	0	0	476	597	
1	0	0	0	0	476	596	
2	0	0	0	0	476	596	
3	0	0	0	0	477	596	
4	0	0	0	0	476	596	
5	0	0	0	0	476	596	
6	0	0	0	0	476	596	
7	0	0	0	0	476	596	
8	0	0	0	0	476	595	
9	0	0	0	0	477	595	
10	0	0	0	0	478	595	
11	0	0	0	0	479	595	
12	0	0	0	0	479	595	
13	0	0	0	0	480	595	
14	0	0	0	0	480	595	
15	0	0	0	0	480	596	
0	0	0	0	0	480	595	
1	0	0	0	0	480	595	
2	0	0	0	0	479	595	
3	0	0	0	0	480	595	
4	0	0	0	0	480	596	
5	0	0	0	0	482	595	
6	0	0	0	0	482	595	
7	0	0	0	0	483	596	
8	0	0	0	0	484	595	
9	0	0	0	0	484	595	
10	0	0	0	0	484	595	
11	0	0	0	0	483	595	
12	0	0	0	0	483	594	
13	0	0	0	0	483	594	
14	0	0	0	0	483	595	
15	0	0	0	0	484	595	
0	0	0	0	0	485	595	
1	0	0	0	0	486	595	
2	0	0	0	0	487	595	
3	0	0	0	0	487	596	
4	0	0	0	0	487	595	
5	0	0	0	0	488	595	
6	0	0	0	0	489	595	
7	0	0	0	0	489	596	
8	0	0	0	0	489	595	
9	0	0	0	0	489	595	
10	0	0	0	0	489	596	
11	0	0	0	0	489	596	
12	0	0	0	0	489	595	
13	0	0	0	0	490	596	
14	0	0	0	0	489	595	
15	0	0	0	0	489	597	
0	0	0	0	0	488	596	
1	0	0	0	0	488	596	
2	0	0	0	0	488	596	
3	0	0	0	0	487	596	
4	0	0	0	0	486	596	
5	0	0	0	0	486	596	
6	0	0	0	0	487	596	
7	0	0	0	0	487	597	
8	0	0	0	0	487	596	
9	0	0	0	0	487	597	
10	0	0	0	0	487	596	
11	0	0	0	0	487	596	
12	0	0	0	0	487	597	
13	0	0	0	0	488	596	
14	0	0	0	0	489	596	
15	0	0	0	0	490	597	
0	0	0	0	0	492	596	
1	0	0	0	0	493	596	
2	0	0	0	0	494	597	
3	0	0	0	0	494	597	
4	0	0	0	0	495	597	
5	0	0	0	0	495	596	
6	0	0	0	0	495	598	
7	0	0	0	0	496	598	
8	0	0	0	0	496	597	
9	0	0	0	0	497	597	
10	0	0	0	0	497	596	
11	0	0	0	0	498	597	
12	0	0	0	0	498	597	
13	0	0	0	0	498	597	
14	0	0	0	0	499	597	
15	0	0	0	0	499	598	
0	0	0	0	0	499	597	
1	0	0	0	0	499	597	
2	0	0	0	0	499	597	
3	0	0	0	0	499	597	
4	0	0	0	0	499	597	
5	0	0	0	0	500	597	
6	0	0	0	0	500	597	
7	0	0	0	0	500	598	
8	0	0	0	0	499	597	
9	0	0	0	0	499	597	
10	0	0	0	0	500	597	
11	0	0	0	0	501	597	
12	0	0	0	0	501	597	
13	0	0	0	0	501	598	
14	0	0	0	0	500	597	
15	0	0	0	0	500	598	
0	0	0	0	0	498	598	
1	0	0	0	0	498	597	
2	0	0	0	0	498	597	
3	0	0	0	0	498	598	
4	0	0	0	0	497	597	
5	0	0	0	0	496	597	
6	0	0	0	0	495	597	
7	0	0	0	0	495	598	
8	0	0	0	0	494	597	
9	0	0	0	0	494	597	
10	0	0	0	0	494	596	
11	0	0	0	0	494	597	
12	0	0	0	0	495	597	
13	0	0	0	0	496	597	
14	0	0	0	0	497	597	
15	0	0	0	0	499	598	
0	0	0	0	0	500	597	
1	0	0	0	0	501	597	
2	0	0	0	0	502	596	
3	0	0	0	0	503	597	
4	0	0	0	0	504	597	
5	0	0	0	0	504	596	
6	0	0	0	0	504	597	
7	0	0	0	0	504	597	
8	0	0	0	0	503	597	
9	0	0	0	0	503	597	
10	0	0	0	0	503	598	
11	0	0	0	0	502	598	
12	0	0	0	0	501	597	
13	0	0	0	0	501	597	
14	0	0	0	0	501	597	
15	0	0	0	0	501	598	
0	0	0	0	0	502	597	
1	0	0	0	0	502	598	
2	0	0	0	0	501	597	
3	0	0	0	0	499	598	
4	0	0	0	0	499	597	
5	0	0	0	0	499	598	
6	0	0	0	0	499	597	
7	0	0	0	0	499	598	
8	0	0	0	0	498	598	
9	0	0	0	0	497	598	
10	0	0	0	0	496	597	
11	0	0	0	0	497	598	
12	0	0	0	0	497	598	
13	0	0	0	0	497	597	
14	0	0	0	0	498	597	
15	0	0	0	0	499	598	
0	0	0	0	0	500	597	
1	0	0	0	0	502	597	
2	0	0	0	0	503	597	
3	0	0	0	0	504	597	
4	0	0	0	0	503	597	
5	0	0	0	0	503	596	
6	0	0	0	0	503	597	
7	0	0	0	0	504	598	
8	0	0	0	0	504	597	
9	0	0	0	0	504	597	
10	0	0	0	0	504	597	
11	0	0	0	0	504	597	
12	0	0	0	0	503	596	
13	0	0	0	0	503	597	
14	0	0	0	0	503	596	
15	0	0	0	0	502	597	
0	0	0	0	0	503	597	
1	0	0	0	0	502	597	
2	0	0	0	0	503	596	
3	0	0	0	0	503	597	
4	0	0	0	0	502	596	
5	0	0	0	0	503	597	
6	0	0	0	0	503	596	
7	0	0	0	0	503	597	
8	0	0	0	0	505	596	
9	0	0	0	0	506	596	
10	0	0	0	0	508	596	
11	0	0	0	0	509	596	
12	0	0	0	0	510	596	
13	0	0	0	0	511	596	
14	0	0	0	0	511	596	
15	0	0	0	0	512	597	
0	0	0	0	0	512	596	
1	0	0	0	0	512	596	
2	0	0	0	0	512	596	
3	0	0	0	0	512	596	
4	0	0	0	0	511	596	
5	0	0	0	0	512	596	
6	0	0	0	0	511	596	
7	0	0	0	0	511	597	
8	0	0	0	0	512	597	
9	0	0	0	0	512	597	
10	0	0	0	0	515	596	
11	0	0	0	0	516	596	
12	0	0	0	0	518	596	
13	0	0	0	0	519	596	
14	0	0	0	0	521	597	
15	0	0	0	0	522	597	
0	0	0	0	0	523	596	
1	0	0	0	0	523	597	
2	0	0	0	0	524	596	
3	0	0	0	0	524	597	
4	0	0	0	0	524	596	
5	0	0	0	0	523	596	
6	0	0	0	0	524	597	
7	0	0	0	0	524	596	
8	0	0	0	0	525	596	
9	0	0	0	0	526	596	
10	0	0	0	0	527	597	
11	0	0	0	0	527	597	
12	0	0	0	0	526	596	
13	0	0	0	0	525	597	
14	0	0	0	0	525	596	
15	0	0	0	0	526	598	
0	0	0	0	0	526	597	
1	0	0	0	0	525	597	
2	0	0	0	0	524	596	
3	0	0	0	0	523	597	
4	0	0	0	0	523	596	
5	0	0	0	0	522	596	
6	0	0	0	0	522	596	
7	0	0	0	0	521	598	
8	0	0	0	0	521	597	
9	0	0	0	0	521	598	
10	0	0	0	0	521	597	
11	0	0	0	0	521	597	
12	0	0	0	0	522	597	
13	0	0	0	0	522	596	
14	0	0	0	0	523	597	
15	0	0	0	0	523	597	
0	0	0	0	0	524	597	
1	0	0	0	0	525	597	
2	0	0	0	0	525	597	
3	0	0	0	0	526	597	
4	0	0	0	0	527	596	
5	0	0	0	0	527	596	
6	0	0	0	0	527	597	
7	0	0	0	0	527	598	
8	0	0	0	0	527	597	
9	0	0	0	0	527	597	
10	0	0	0	0	526	597	
11	0	0	0	0	526	597	
12	0	0	0	0	525	597	
13	0	0	0	0	524	596	
14	0	0	0	0	523	596	
15	0	0	0	0	522	597	
0	0	0	0	0	522	597	
1	0	0	0	0	521	597	
2	0	0	0	0	520	597	
3	0	0	0	0	520	597	
4	0	0	0	0	520	596	
5	0	0	0	0	520	596	
6	0	0	0	0	520	596	
7	0	0	0	0	520	597	
8	0	0	0	0	520	597	
9	0	0	0	0	521	596	
10	0	0	0	0	520	596	
11	0	0	0	0	518	597	
12	0	0	0	0	518	596	
13	0	0	0	0	517	596	
14	0	0	0	0	517	597	
15	0	0	0	0	516	597	
0	0	0	0	0	516	596	
1	0	0	0	0	515	596	
2	0	0	0	0	515	596	
3	0	0	0	0	514	596	
4	0	0	0	0	514	596	
5	0	0	0	0	513	596	
6	0	0	0	0	513	596	
7	0	0	0	0	513	597	
8	0	0	0	0	512	595	
9	0	0	0	0	512	595	
10	0	0	0	0	512	595	
11	0	0	0	0	513	596	
12	0	0	0	0	513	596	
13	0	0	0	0	514	595	
14	0	0	0	0	515	596	
15	0	0	0	0	515	596	
0	0	0	0	0	516	596	
1	0	0	0	0	515	596	
2	0	0	0	0	516	595	
3	0	0	0	0	517	596	
4	0	0	0	0	517	596	
5	0	0	0	0	518	595	
6	0	0	0	0	518	595	
7	0	0	0	0	518	596	
8	0	0	0	0	518	596	
9	0	0	0	0	519	596	
10	0	0	0	0	520	595	
11	0	0	0	0	520	596	
12	0	0	0	0	521	596	
13	0	0	0	0	521	596	
14	0	0	0	0	522	595	
15	0	0	0	0	523	596	
0	0	0	0	0	524	595	
1	0	0	0	0	524	596	
2	0	0	0	0	525	595	
3	0	0	0	0	524	595	
4	0	0	0	0	524	595	
5	0	0	0	0	524	595	
6	0	0	0	0	522	595	
7	0	0	0	0	522	596	
8	0	0	0	0	522	595	
9	0	0	0	0	522	595	
10	0	0	0	0	521	595	
11	0	0	0	0	520	595	
12	0	0	0	0	519	596	
13	0	0	0	0	518	595	
14	0	0	0	0	517	595	
15	0	0	0	0	516	596	
0	0	0	0	0	515	595	
1	0	0	0	0	514	596	
2	0	0	0	0	513	595	
3	0	0	0	0	513	595	
4	0	0	0	0	512	596	
5	0	0	0	0	511	596	
6	0	0	0	0	511	596	
7	0	0	0	0	510	597	
8	0	0	0	0	510	596	
9	0	0	0	0	510	595	
10	0	0	0	0	511	596	
11	0	0	0	0	512	596	
12	0	0	0	0	512	596	
13	0	0	0	0	513	596	
14	0	0	0	0	513	596	
15	0	0	0	0	514	597	
0	0	0	0	0	513	597	
1	0	0	0	0	513	597	
2	0	0	0	0	512	597	
3	0	0	0	0	512	597	
4	0	0	0	0	512	596	
5	0	0	0	0	512	598	
6	0	0	0	0	512	597	
7	0	0	0	0	512	598	
8	0	0	0	0	512	597	
9	0	0	0	0	512	597	
10	0	0	0	0	511	597	
11	0	0	0	0	511	598	
12	0	0	0	0	510	598	
13	0	0	0	0	510	598	
14	0	0	0	0	508	597	
15	0	0	0	0	507	598	
0	0	0	0	0	504	598	
1	0	0	0	0	503	597	
2	0	0	0	0	500	597	
3	0	0	0	0	496	597	
4	0	0	0	0	492	597	
5	0	0	0	0	489	598	
6	0	0	0	0	487	597	
7	0	0	0	0	486	598	
8	0	0	0	0	485	597	
9	0	0	0	0	484	598	
10	0	0	0	0	483	596	
11	0	0	0	0	483	597	
12	0	0	0	0	481	597	
13	0	0	0	0	479	597	
14	0	0	0	0	476	597	
15	0	0	0	0	473	598	
0	0	0	0	0	470	597	
1	0	0	0	0	465	597	
2	0	0	0	0	461	597	
3	0	0	0	0	457	598	
4	0	0	0	0	452	597	
5	0	0	0	0	448	597	
6	0	0	0	0	444	598	
7	0	0	0	0	441	598	
8	0	0	0	0	438	597	
9	0	0	0	0	435	598	
10	0	0	0	0	432	597	
11	0	0	0	0	430	598	
12	0	0	0	0	430	597	
13	0	0	0	0	430	597	
14	0	0	0	0	432	597	
15	0	0	0	0	435	599	
0	0	0	0	0	441	598	
1	0	0	0	0	449	596	
2	0	0	0	0	457	598	
3	0	0	0	0	467	597	
4	0	0	0	0	479	597	
5	0	0	0	0	491	597	
6	0	0	0	0	505	597	
7	0	0	0	0	519	598	
8	0	0	0	0	533	598	
9	0	0	0	0	546	597	
10	0	0	0	0	559	597	
11	0	0	0	0	569	597	
12	0	0	0	0	579	597	
13	0	0	0	0	589	597	
14	0	0	0	0	598	597	
15	0	0	0	0	606	598	
0	0	0	0	0	611	597	
1	0	0	0	0	616	597	
2	0	0	0	0	619	597	
3	0	0	0	0	620	598	
4	0	0	0	0	620	597	
5	0	0	0	0	618	597	
6	0	0	0	0	614	598	
7	0	0	0	0	609	598	
8	0	0	0	0	604	597	
9	0	0	0	0	595	597	
10	0	0	0	0	585	597	
11	0	0	0	0	575	597	
12	0	0	0	0	563	597	
13	0	0	0	0	553	597	
14	0	0	0	0	543	598	
15	0	0	0	0	532	598	
0	0	0	0	0	523	597	
1	0	0	0	0	515	597	
2	0	0	0	0	508	597	
3	0	0	0	0	502	598	
4	0	0	0	0	496	597	
5	0	0	0	0	491	597	
6	0	0	0	0	486	597	
7	0	0	0	0	483	598	
8	0	0	0	0	481	598	
9	0	0	0	0	479	597	
10	0	0	0	0	477	598	
11	0	0	0	0	475	598	
12	0	0	0	0	474	596	
13	0	0	0	0	473	596	
14	0	0	0	0	473	596	
15	0	0	0	0	472	597	
0	0	0	0	0	471	598	
1	0	0	0	0	471	597	
2	0	0	0	0	472	598	
3	0	0	0	0	472	597	
4	0	0	0	0	472	597	
5	0	0	0	0	472	597	
6	0	0	0	0	472	597	
7	0	0	0	0	474	597	
8	0	0	0	0	475	597	
9	0	0	0	0	476	596	
10	0	0	0	0	477	597	
11	0	0	0	0	477	596	
12	0	0	0	0	478	596	
13	0	0	0	0	479	596	
14	0	0	0	0	479	596	
15	0	0	0	0	480	596	
0	0	0	0	0	481	596	
1	0	0	0	0	481	596	
2	0	0	0	0	482	595	
3	0	0	0	0	483	597	
4	0	0	0	0	483	596	
5	0	0	0	0	483	596	
6	0	0	0	0	483	595	
7	0	0	0	0	483	596	
8	0	0	0	0	483	596	
9	0	0	0	0	483	596	
10	0	0	0	0	482	596	
11	0	0	0	0	482	596	
12	0	0	0	0	483	595	
13	0	0	0	0	483	596	
14	0	0	0	0	482	595	
15	0	0	0	0	481	596	
0	0	0	0	0	481	595	
1	0	0	0	0	480	595	
2	0	0	0	0	480	596	
3	0	0	0	0	480	596	
4	0	0	0	0	480	596	
5	0	0	0	0	480	595	
6	0	0	0	0	481	596	
7	0	0	0	0	481	597	
8	0	0	0	0	482	596	
9	0	0	0	0	482	596	
10	0	0	0	0	483	596	
11	0	0	0	0	483	596	
12	0	0	0	0	484	596	
13	0	0	0	0	483	596	
14	0	0	0	0	483	596	
15	0	0	0	0	483	596	
0	0	0	0	0	483	596	
1	0	0	0	0	483	595	
2	0	0	0	0	483	596	
3	0	0	0	0	483	596	
4	0	0	0	0	483	596	
5	0	0	0	0	482	596	
6	0	0	0	0	481	596	
7	0	0	0	0	481	597	
8	0	0	0	0	480	596	
9	0	0	0	0	480	597	
10	0	0	0	0	480	596	
11	0	0	0	0	480	598	
12	0	0	0	0	480	596	
13	0	0	0	0	480	597	
14	0	0	0	0	479	597	
15	0	0	0	0	478	597	
0	0	0	0	0	478	597	
1	0	0	0	0	477	596	
2	0	0	0	0	476	596	
3	0	0	0	0	476	597	
4	0	0	0	0	477	596	
5	0	0	0	0	478	598	
6	0	0	0	0	479	596	
7	0	0	0	0	480	597	
8	0	0	0	0	482	597	
9	0	0	0	0	483	596	
10	0	0	0	0	484	597	
11	0	0	0	0	485	597	
12	0	0	0	0	487	596	
13	0	0	0	0	489	597	
14	0	0	0	0	489	597	
15	0	0	0	0	491	598	
0	0	0	0	0	492	597	
1	0	0	0	0	493	596	
2	0	0	0	0	494	597	
3	0	0	0	0	493	596	
4	0	0	0	0	493	597	
5	0	0	0	0	493	597	
6	0	0	0	0	492	597	
7	0	0	0	0	492	596	
8	0	0	0	0	491	596	
9	0	0	0	0	490	596	
10	0	0	0	0	490	597	
11	0	0	0	0	489	597	
12	0	0	0	0	489	597	
13	0	0	0	0	488	597	
14	0	0	0	0	487	596	
15	0	0	0	0	488	596	
0	0	0	0	0	488	597	
1	0	0	0	0	488	596	
2	0	0	0	0	489	596	
3	0	0	0	0	490	596	
4	0	0	0	0	491	596	
5	0	0	0	0	492	596	
6	0	0	0	0	492	596	
7	0	0	0	0	493	597	
8	0	0	0	0	493	596	
9	0	0	0	0	493	596	
10	0	0	0	0	494	596	
11	0	0	0	0	495	596	
12	0	0	0	0	495	596	
13	0	0	0	0	495	595	
14	0	0	0	0	494	596	
15	0	0	0	0	493	596	
0	0	0	0	0	493	596	
1	0	0	0	0	492	596	
2	0	0	0	0	492	596	
3	0	0	0	0	493	597	
4	0	0	0	0	493	596	
5	0	0	0	0	494	596	
6	0	0	0	0	496	596	
7	0	0	0	0	496	597	
8	0	0	0	0	496	596	
9	0	0	0	0	496	596	
10	0	0	0	0	497	596	
11	0	0	0	0	497	596	
12	0	0	0	0	496	596	
13	0	0	0	0	497	596	
14	0	0	0	0	497	596	
15	0	0	0	0	497	597	
0	0	0	0	0	498	596	
1	0	0	0	0	498	597	
2	0	0	0	0	498	596	
3	0	0	0	0	499	597	
4	0	0	0	0	498	597	
5	0	0	0	0	497	596	
6	0	0	0	0	497	596	
7	0	0	0	0	497	597	
8	0	0	0	0	497	596	
9	0	0	0	0	497	596	
10	0	0	0	0	496	597	
11	0	0	0	0	496	598	
12	0	0	0	0	495	598	
13	0	0	0	0	495	597	
14	0	0	0	0	495	597	
15	0	0	0	0	495	598	
0	0	0	0	0	495	597	
1	0	0	0	0	494	597	
2	0	0	0	0	494	597	
3	0	0	0	0	493	597	
4	0	0	0	0	492	597	
5	0	0	0	0	492	597	
6	0	0	0	0	491	597	
7	0	0	0	0	491	598	
8	0	0	0	0	489	596	
9	0	0	0	0	489	597	
10	0	0	0	0	488	597	
11	0	0	0	0	487	598	
12	0	0	0	0	486	597	
13	0	0	0	0	486	596	
14	0	0	0	0	486	597	
15	0	0	0	0	487	597	
0	0	0	0	0	487	595	
1	0	0	0	0	487	596	
2	0	0	0	0	486	597	
3	0	0	0	0	486	596	
4	0	0	0	0	486	597	
5	0	0	0	0	486	596	
6	0	0	0	0	486	596	
7	0	0	0	0	486	596	
8	0	0	0	0	486	596	
9	0	0	0	0	486	597	
10	0	0	0	0	487	596	
11	0	0	0	0	488	596	
12	0	0	0	0	489	595	
13	0	0	0	0	489	595	
14	0	0	0	0	490	596	
15	0	0	0	0	490	596	
0	0	0	0	0	490	596	
1	0	0	0	0	491	595	
2	0	0	0	0	491	595	
3	0	0	0	0	492	596	
4	0	0	0	0	494	596	
5	0	0	0	0	495	595	
6	0	0	0	0	495	595	
7	0	0	0	0	496	595	
8	0	0	0	0	495	595	
9	0	0	0	0	495	595	
10	0	0	0	0	495	596	
11	0	0	0	0	494	596	
12	0	0	0	0	494	596	
13	0	0	0	0	493	596	
14	0	0	0	0	492	595	
15	0	0	0	0	492	596	
0	0	0	0	0	491	596	
1	0	0	0	0	491	595	
2	0	0	0	0	491	595	
3	0	0	0	0	491	596	
4	0	0	0	0	491	595	
5	0	0	0	0	491	596	
6	0	0	0	0	492	595	
7	0	0	0	0	492	596	
8	0	0	0	0	492	597	
9	0	0	0	0	492	596	
10	0	0	0	0	492	596	
11	0	0	0	0	492	596	
12	0	0	0	0	492	596	
13	0	0	0	0	491	596	
14	0	0	0	0	491	596	
15	0	0	0	0	491	597	
0	0	0	0	0	492	596	
1	0	0	0	0	493	596	
2	0	0	0	0	494	596	
3	0	0	0	0	494	596	
4	0	0	0	0	494	596	
5	0	0	0	0	493	597	
6	0	0	0	0	493	597	
7	0	0	0	0	494	597	
8	0	0	0	0	495	597	
9	0	0	0	0	496	597	
10	0	0	0	0	496	597	
11	0	0	0	0	497	598	
12	0	0	0	0	497	597	
13	0	0	0	0	497	597	
14	0	0	0	0	497	597	
15	0	0	0	0	498	597	
0	0	0	0	0	498	597	
1	0	0	0	0	499	597	
2	0	0	0	0	501	598	
3	0	0	0	0	502	598	
4	0	0	0	0	502	598	
5	0	0	0	0	502	598	
6	0	0	0	0	502	597	
7	0	0	0	0	502	599	
8	0	0	0	0	502	598	
9	0	0	0	0	502	598	
10	0	0	0	0	502	598	
11	0	0	0	0	502	598	
12	0	0	0	0	502	598	
13	0	0	0	0	502	598	
14	0	0	0	0	502	598	
15	0	0	0	0	502	599	
0	0	0	0	0	502	598	
1	0	0	0	0	502	597	
2	0	0	0	0	502	598	
3	0	0	0	0	502	598	
4	0	0	0	0	502	597	
5	0	0	0	0	502	598	
6	0	0	0	0	502	598	
7	0	0	0	0	502	598	
8	0	0	0	0	502	598	
9	0	0	0	0	503	598	
10	0	0	0	0	503	598	
11	0	0	0	0	503	598	
12	0	0	0	0	502	597	
13	0	0	0	0	502	598	
14	0	0	0	0	502	598	
15	0	0	0	0	502	598	
0	0	0	0	0	502	597	
1	0	0	0	0	502	597	
2	0	0	0	0	502	597	
3	0	0	0	0	500	597	
4	0	0	0	0	499	598	
5	0	0	0	0	500	598	
6	0	0	0	0	500	598	
7	0	0	0	0	500	598	
8	0	0	0	0	500	597	
9	0	0	0	0	501	597	
10	0	0	0	0	502	597	
11	0	0	0	0	502	597	
12	0	0	0	0	503	597	
13	0	0	0	0	503	598	
14	0	0	0	0	502	597	
15	0	0	0	0	502	598	
0	0	0	0	0	502	598	
1	0	0	0	0	502	597	
2	0	0	0	0	503	597	
3	0	0	0	0	503	597	
4	0	0	0	0	502	597	
5	0	0	0	0	502	597	
6	0	0	0	0	501	597	
7	0	0	0	0	500	598	
8	0	0	0	0	501	596	
9	0	0	0	0	501	597	
10	0	0	0	0	500	596	
11	0	0	0	0	499	597	
12	0	0	0	0	499	596	
13	0	0	0	0	499	596	
14	0	0	0	0	499	596	
15	0	0	0	0	498	597	
0	0	0	0	0	497	596	
1	0	0	0	0	496	597	
2	0	0	0	0	496	596	
3	0	0	0	0	496	597	
4	0	0	0	0	496	597	
5	0	0	0	0	496	597	
6	0	0	0	0	497	597	
7	0	0	0	0	496	596	
8	0	0	0	0	496	596	
9	0	0	0	0	497	597	
10	0	0	0	0	498	596	
11	0	0	0	0	499	597	
12	0	0	0	0	500	596	
13	0	0	0	0	500	596	
14	0	0	0	0	499	597	
15	0	0	0	0	500	597	
0	0	0	0	0	500	597	
1	0	0	0	0	500	596	
2	0	0	0	0	500	596	
3	0	0	0	0	501	597	
4	0	0	0	0	501	596	
5	0	0	0	0	502	597	
6	0	0	0	0	502	596	
7	0	0	0	0	501	597	
8	0	0	0	0	501	596	
9	0	0	0	0	502	596	
10	0	0	0	0	502	597	
11	0	0	0	0	503	597	
12	0	0	0	0	502	596	
13	0	0	0	0	502	597	
14	0	0	0	0	501	597	
15	0	0	0	0	500	598	
0	0	0	0	0	500	598	
1	0	0	0	0	499	598	
2	0	0	0	0	498	598	
3	0	0	0	0	497	597	
4	0	0	0	0	497	598	
5	0	0	0	0	497	598	
6	0	0	0	0	497	598	
7	0	0	0	0	497	598	
8	0	0	0	0	497	597	
9	0	0	0	0	497	597	
10	0	0	0	0	497	596	
11	0	0	0	0	497	597	
12	0	0	0	0	496	596	
13	0	0	0	0	496	596	
14	0	0	0	0	495	597	
15	0	0	0	0	495	598	
0	0	0	0	0	495	596	
1	0	0	0	0	496	596	
2	0	0	0	0	495	597	
3	0	0	0	0	495	597	
4	0	0	0	0	495	597	
5	0	0	0	0	495	596	
6	0	0	0	0	495	596	
7	0	0	0	0	495	597	
8	0	0	0	0	496	597	
9	0	0	0	0	497	596	
10	0	0	0	0	498	597	
11	0	0	0	0	499	596	
12	0	0	0	0	500	596	
13	0	0	0	0	503	596	
14	0	0	0	0	504	596	
15	0	0	0	0	505	597	
0	0	0	0	0	505	596	
1	0	0	0	0	505	596	
2	0	0	0	0	505	597	
3	0	0	0	0	505	597	
4	0	0	0	0	505	597	
5	0	0	0	0	505	596	
6	0	0	0	0	504	596	
7	0	0	0	0	504	599	
8	0	0	0	0	504	598	
9	0	0	0	0	503	597	
10	0	0	0	0	503	597	
11	0	0	0	0	502	598	
12	0	0	0	0	502	598	
13	0	0	0	0	502	597	
14	0	0	0	0	501	597	
15	0	0	0	0	501	598	
0	0	0	0	0	501	597	
1	0	0	0	0	501	597	
2	0	0	0	0	501	597	
3	0	0	0	0	501	598	
4	0	0	0	0	501	598	
5	0	0	0	0	501	597	
6	0	0	0	0	501	597	
7	0	0	0	0	500	598	
8	0	0	0	0	501	597	
9	0	0	0	0	501	598	
10	0	0	0	0	500	597	
11	0	0	0	0	500	599	
12	0	0	0	0	500	598	
13	0	0	0	0	499	598	
14	0	0	0	0	499	598	
15	0	0	0	0	498	598	
0	0	0	0	0	497	598	
1	0	0	0	0	498	598	
2	0	0	0	0	498	597	
3	0	0	0	0	498	598	
4	0	0	0	0	499	598	
5	0	0	0	0	499	598	
6	0	0	0	0	499	598	
7	0	0	0	0	499	599	
8	0	0	0	0	499	598	
9	0	0	0	0	499	598	
10	0	0	0	0	500	597	
11	0	0	0	0	500	598	
12	0	0	0	0	500	597	
13	0	0	0	0	499	598	
14	0	0	0	0	499	597	
15	0	0	0	0	499	598	
0	0	0	0	0	499	597	
1	0	0	0	0	500	598	
2	0	0	0	0	500	598	
3	0	0	0	0	500	598	
4	0	0	0	0	501	598	
5	0	0	0	0	501	597	
6	0	0	0	0	500	597	
7	0	0	0	0	499	599	
8	0	0	0	0	498	597	
9	0	0	0	0	499	597	
10	0	0	0	0	499	598	
11	0	0	0	0	498	598	
12	0	0	0	0	499	598	
13	0	0	0	0	499	598	
14	0	0	0	0	499	598	
15	0	0	0	0	499	598	
0	0	0	0	0	499	597	
1	0	0	0	0	498	598	
2	0	0	0	0	498	597	
3	0	0	0	0	497	598	
4	0	0	0	0	498	597	
5	0	0	0	0	497	597	
6	0	0	0	0	497	596	
7	0	0	0	0	497	597	
8	0	0	0	0	497	597	
9	0	0	0	0	497	597	
10	0	0	0	0	497	597	
11	0	0	0	0	497	597	
12	0	0	0	0	496	597	
13	0	0	0	0	495	597	
14	0	0	0	0	495	597	
15	0	0	0	0	494	597	
0	0	0	0	0	494	596	
1	0	0	0	0	495	596	
2	0	0	0	0	494	596	
3	0	0	0	0	494	597	
4	0	0	0	0	494	596	
5	0	0	0	0	494	596	
6	0	0	0	0	494	596	
7	0	0	0	0	493	598	
8	0	0	0	0	492	596	
9	0	0	0	0	492	596	
10	0	0	0	0	492	596	
11	0	0	0	0	493	596	
12	0	0	0	0	494	596	
13	0	0	0	0	494	596	
14	0	0	0	0	495	596	
15	0	0	0	0	494	598	
0	0	0	0	0	495	597	
1	0	0	0	0	495	596	
2	0	0	0	0	495	596	
3	0	0	0	0	496	597	
4	0	0	0	0	496	596	
5	0	0	0	0	496	596	
6	0	0	0	0	496	596	
7	0	0	0	0	496	597	
8	0	0	0	0	496	596	
9	0	0	0	0	496	596	
10	0	0	0	0	497	596	
11	0	0	0	0	497	597	
12	0	0	0	0	498	596	
13	0	0	0	0	499	597	
14	0	0	0	0	500	596	
15	0	0	0	0	500	597	
0	0	0	0	0	501	596	
1	0	0	0	0	500	597	
2	0	0	0	0	501	596	
3	0	0	0	0	501	596	
4	0	0	0	0	500	596	
5	0	0	0	0	500	596	
6	0	0	0	0	500	595	
7	0	0	0	0	500	596	
8	0	0	0	0	501	596	
9	0	0	0	0	500	595	
10	0	0	0	0	500	596	
11	0	0	0	0	500	596	
12	0	0	0	0	500	596	
13	0	0	0	0	500	595	
14	0	0	0	0	499	595	
15	0	0	0	0	499	596	
0	0	0	0	0	499	596	
1	0	0	0	0	499	596	
2	0	0	0	0	499	596	
3	0	0	0	0	500	596	
4	0	0	0	0	501	596	
5	0	0	0	0	501	595	
6	0	0	0	0	501	595	
7	0	0	0	0	501	596	
8	0	0	0	0	501	595	
9	0	0	0	0	501	595	
10	0	0	0	0	500	595	
11	0	0	0	0	500	596	
12	0	0	0	0	500	596	
13	0	0	0	0	500	595	
14	0	0	0	0	499	595	
15	0	0	0	0	500	596	
0	0	0	0	0	499	595	
1	0	0	0	0	499	596	
2	0	0	0	0	499	595	
3	0	0	0	0	499	596	
4	0	0	0	0	498	596	
5	0	0	0	0	499	596	
6	0	0	0	0	499	596	
7	0	0	0	0	499	596	
8	0	0	0	0	498	595	
9	0	0	0	0	498	595	
10	0	0	0	0	498	595	
11	0	0	0	0	497	596	
12	0	0	0	0	497	595	
13	0	0	0	0	497	595	
14	0	0	0	0	497	595	
15	0	0	0	0	497	596	
0	0	0	0	0	496	595	
1	0	0	0	0	496	595	
2	0	0	0	0	496	596	
3	0	0	0	0	496	596	
4	0	0	0	0	495	596	
5	0	0	0	0	495	595	
6	0	0	0	0	496	595	
7	0	0	0	0	497	597	
8	0	0	0	0	497	596	
9	0	0	0	0	498	595	
10	0	0	0	0	497	596	
11	0	0	0	0	497	596	
12	0	0	0	0	496	595	
13	0	0	0	0	496	596	
14	0	0	0	0	496	596	
15	0	0	0	0	496	596	
0	0	0	0	0	496	596	
1	0	0	0	0	494	596	
2	0	0	0	0	493	595	
3	0	0	0	0	492	596	
4	0	0	0	0	491	596	
5	0	0	0	0	489	596	
6	0	0	0	0	487	595	
7	0	0	0	0	485	596	
8	0	0	0	0	483	595	
9	0	0	0	0	480	595	
10	0	0	0	0	477	596	
11	0	0	0	0	472	596	
12	0	0	0	0	467	595	
13	0	0	0	0	462	595	
14	0	0	0	0	457	596	
15	0	0	0	0	453	596	
0	0	0	0	0	449	596	
1	0	0	0	0	446	596	
2	0	0	0	0	444	596	
3	0	0	0	0	442	597	
4	0	0	0	0	440	596	
5	0	0	0	0	438	595	
6	0	0	0	0	437	596	
7	0	0	0	0	437	597	
8	0	0	0	0	439	595	
9	0	0	0	0	442	596	
10	0	0	0	0	448	596	
11	0	0	0	0	456	596	
12	0	0	0	0	465	596	
13	0	0	0	0	478	596	
14	0	0	0	0	490	596	
15	0	0	0	0	504	597	
0	0	0	0	0	518	596	
1	0	0	0	0	531	596	
2	0	0	0	0	544	596	
3	0	0	0	0	557	597	
4	0	0	0	0	569	598	
5	0	0	0	0	579	597	
6	0	0	0	0	589	596	
7	0	0	0	0	597	598	
8	0	0	0	0	604	598	
9	0	0	0	0	610	598	
10	0	0	0	0	614	597	
11	0	0	0	0	616	597	
12	0	0	0	0	617	597	
13	0	0	0	0	617	597	
14	0	0	0	0	616	597	
15	0	0	0	0	614	598	
0	0	0	0	0	611	597	
1	0	0	0	0	605	597	
2	0	0	0	0	598	598	
3	0	0	0	0	590	599	
4	0	0	0	0	582	597	
5	0	0	0	0	574	598	
6	0	0	0	0	566	598	
7	0	0	0	0	558	599	
8	0	0	0	0	550	598	
9	0	0	0	0	542	597	
10	0	0	0	0	535	598	
11	0	0	0	0	528	598	
12	0	0	0	0	521	597	
13	0	0	0	0	513	598	
14	0	0	0	0	505	598	
15	0	0	0	0	498	598	
0	0	0	0	0	492	598	
1	0	0	0	0	488	597	
2	0	0	0	0	485	597	
3	0	0	0	0	483	597	
4	0	0	0	0	480	596	
5	0	0	0	0	479	597	
6	0	0	0	0	478	597	
7	0	0	0	0	477	598	
8	0	0	0	0	476	597	
9	0	0	0	0	476	597	
10	0	0	0	0	475	597	
11	0	0	0	0	475	597	
12	0	0	0	0	475	597	
13	0	0	0	0	473	596	
14	0	0	0	0	472	596	
15	0	0	0	0	472	597	
0	0	0	0	0	472	596	
1	0	0	0	0	472	597	
2	0	0	0	0	471	596	
3	0	0	0	0	471	597	
4	0	0	0	0	470	597	
5	0	0	0	0	470	596	
6	0	0	0	0	470	597	
7	0	0	0	0	470	597	
8	0	0	0	0	471	596	
9	0	0	0	0	471	597	
10	0	0	0	0	471	597	
11	0	0	0	0	472	597	
12	0	0	0	0	472	597	
13	0	0	0	0	473	596	
14	0	0	0	0	474	597	
15	0	0	0	0	475	597	
0	0	0	0	0	476	596	
1	0	0	0	0	476	596	
2	0	0	0	0	475	596	
3	0	0	0	0	475	596	
4	0	0	0	0	474	596	
5	0	0	0	0	472	596	
6	0	0	0	0	472	595	
7	0	0	0	0	471	596	
8	0	0	0	0	469	596	
9	0	0	0	0	469	595	
10	0	0	0	0	468	596	
11	0	0	0	0	467	596	
12	0	0	0	0	467	595	
13	0	0	0	0	467	597	
14	0	0	0	0	468	595	
15	0	0	0	0	467	596	
0	0	0	0	0	468	596	
1	0	0	0	0	469	595	
2	0	0	0	0	470	596	
3	0	0	0	0	470	597	
4	0	0	0	0	471	596	
5	0	0	0	0	472	596	
6	0	0	0	0	473	596	
7	0	0	0	0	474	597	
8	0	0	0	0	474	596	
9	0	0	0	0	474	597	
10	0	0	0	0	473	596	
11	0	0	0	0	473	597	
12	0	0	0	0	472	597	
13	0	0	0	0	472	597	
14	0	0	0	0	473	598	
15	0	0	0	0	473	598	
0	0	0	0	0	473	598	
1	0	0	0	0	474	598	
2	0	0	0	0	475	598	
3	0	0	0	0	477	598	
4	0	0	0	0	479	598	
5	0	0	0	0	480	598	
6	0	0	0	0	481	597	
7	0	0	0	0	483	598	
8	0	0	0	0	483	598	
9	0	0	0	0	483	597	
10	0	0	0	0	483	598	
11	0	0	0	0	483	597	
12	0	0	0	0	483	598	
13	0	0	0	0	483	597	
14	0	0	0	0	483	597	
15	0	0	0	0	483	598	
0	0	0	0	0	482	598	
1	0	0	0	0	482	597	
2	0	0	0	0	482	598	
3	0	0	0	0	483	597	
4	0	0	0	0	481	597	
5	0	0	0	0	481	597	
6	0	0	0	0	481	598	
7	0	0	0	0	481	598	
8	0	0	0	0	481	597	
9	0	0	0	0	481	597	
10	0	0	0	0	480	596	
11	0	0	0	0	481	597	
12	0	0	0	0	481	597	
13	0	0	0	0	481	596	
14	0	0	0	0	482	596	
15	0	0	0	0	482	597	
0	0	0	0	0	481	596	
1	0	0	0	0	481	595	
2	0	0	0	0	481	595	
3	0	0	0	0	482	596	
4	0	0	0	0	482	596	
5	0	0	0	0	482	595	
6	0	0	0	0	482	596	
7	0	0	0	0	483	595	
8	0	0	0	0	484	595	
9	0	0	0	0	485	595	
10	0	0	0	0	486	595	
11	0	0	0	0	487	595	
12	0	0	0	0	487	595	
13	0	0	0	0	488	595	
14	0	0	0	0	489	595	
15	0	0	0	0	489	595	
0	0	0	0	0	489	595	
1	0	0	0	0	487	595	
2	0	0	0	0	486	595	
3	0	0	0	0	485	595	
4	0	0	0	0	484	595	
5	0	0	0	0	483	595	
6	0	0	0	0	482	595	
7	0	0	0	0	482	596	
8	0	0	0	0	481	595	
9	0	0	0	0	481	595	
10	0	0	0	0	482	595	
11	0	0	0	0	482	596	
12	0	0	0	0	483	595	
13	0	0	0	0	483	596	
14	0	0	0	0	484	595	
15	0	0	0	0	484	596	
0	0	0	0	0	484	596	
1	0	0	0	0	485	597	
2	0	0	0	0	485	596	
3	0	0	0	0	486	596	
4	0	0	0	0	485	597	
5	0	0	0	0	485	596	
6	0	0	0	0	484	596	
7	0	0	0	0	484	597	
8	0	0	0	0	484	596	
9	0	0	0	0	484	597	
10	0	0	0	0	485	597	
11	0	0	0	0	486	597	
12	0	0	0	0	487	597	
13	0	0	0	0	487	598	
14	0	0	0	0	487	597	
15	0	0	0	0	487	598	
0	0	0	0	0	487	597	
1	0	0	0	0	487	598	
2	0	0	0	0	487	597	
3	0	0	0	0	487	598	
4	0	0	0	0	487	598	
5	0	0	0	0	487	597	
6	0	0	0	0	487	597	
7	0	0	0	0	488	598	
8	0	0	0	0	488	598	
9	0	0	0	0	489	598	
10	0	0	0	0	490	597	
11	0	0	0	0	491	598	
12	0	0	0	0	492	597	
13	0	0	0	0	492	598	
14	0	0	0	0	492	598	
15	0	0	0	0	492	599	
0	0	0	0	0	492	598	
1	0	0	0	0	492	597	
2	0	0	0	0	493	598	
3	0	0	0	0	494	598	
4	0	0	0	0	493	597	
5	0	0	0	0	495	598	
6	0	0	0	0	495	597	
7	0	0	0	0	495	598	
8	0	0	0	0	496	598	
9	0	0	0	0	496	596	
10	0	0	0	0	497	597	
11	0	0	0	0	497	597	
12	0	0	0	0	497	596	
13	0	0	0	0	497	597	
14	0	0	0	0	497	596	
15	0	0	0	0	497	597	
0	0	0	0	0	496	596	
1	0	0	0	0	496	595	
2	0	0	0	0	496	596	
3	0	0	0	0	496	596	
4	0	0	0	0	496	596	
5	0	0	0	0	496	597	
6	0	0	0	0	496	596	
7	0	0	0	0	496	596	
8	0	0	0	0	496	596	
9	0	0	0	0	497	596	
10	0	0	0	0	497	596	
11	0	0	0	0	498	597	
12	0	0	0	0	499	595	
13	0	0	0	0	499	597	
14	0	0	0	0	499	596	
15	0	0	0	0	499	596	
0	0	0	0	0	499	596	
1	0	0	0	0	499	596	
2	0	0	0	0	499	596	
3	0	0	0	0	499	596	
4	0	0	0	0	499	596	
5	0	0	0	0	499	596	
6	0	0	0	0	498	596	
7	0	0	0	0	498	596	
8	0	0	0	0	499	596	
9	0	0	0	0	499	596	
10	0	0	0	0	498	596	
11	0	0	0	0	499	596	
12	0	0	0	0	500	596	
13	0	0	0	0	501	596	
14	0	0	0	0	502	596	
15	0	0	0	0	503	597	
0	0	0	0	0	504	596	
1	0	0	0	0	505	596	
2	0	0	0	0	506	596	
3	0	0	0	0	507	596	
4	0	0	0	0	508	596	
5	0	0	0	0	508	595	
6	0	0	0	0	508	596	
7	0	0	0	0	508	596	
8	0	0	0	0	507	595	
9	0	0	0	0	508	595	
10	0	0	0	0	508	595	
11	0	0	0	0	508	595	
12	0	0	0	0	508	595	
13	0	0	0	0	508	595	
14	0	0	0	0	508	595	
15	0	0	0	0	508	596	
0	0	0	0	0	508	595	
1	0	0	0	0	510	595	
2	0	0	0	0	511	595	
3	0	0	0	0	511	595	
4	0	0	0	0	511	595	
5	0	0	0	0	511	595	
6	0	0	0	0	511	595	
7	0	0	0	0	512	595	
8	0	0	0	0	513	595	
9	0	0	0	0	513	595	
10	0	0	0	0	514	595	
11	0	0	0	0	513	595	
12	0	0	0	0	513	595	
13	0	0	0	0	513	596	
14	0	0	0	0	513	595	
15	0	0	0	0	513	596	
0	0	0	0	0	514	595	
1	0	0	0	0	515	595	
2	0	0	0	0	515	595	
3	0	0	0	0	515	595	
4	0	0	0	0	515	596	
5	0	0	0	0	515	596	
6	0	0	0	0	516	596	
7	0	0	0	0	517	597	
8	0	0	0	0	516	596	
9	0	0	0	0	517	596	
10	0	0	0	0	517	596	
11	0	0	0	0	517	596	
12	0	0	0	0	516	595	
13	0	0	0	0	516	596	
14	0	0	0	0	516	595	
15	0	0	0	0	515	597	
0	0	0	0	0	515	595	
1	0	0	0	0	515	596	
2	0	0	0	0	513	596	
3	0	0	0	0	513	597	
4	0	0	0	0	513	596	
5	0	0	0	0	513	596	
6	0	0	0	0	512	596	
7	0	0	0	0	512	597	
8	0	0	0	0	512	596	
9	0	0	0	0	512	596	
10	0	0	0	0	512	596	
11	0	0	0	0	511	596	
12	0	0	0	0	511	596	
13	0	0	0	0	511	597	
14	0	0	0	0	512	596	
15	0	0	0	0	512	598	
0	0	0	0	0	512	596	
1	0	0	0	0	512	597	
2	0	0	0	0	512	597	
3	0	0	0	0	511	597	
4	0	0	0	0	512	596	
5	0	0	0	0	512	596	
6	0	0	0	0	513	597	
7	0	0	0	0	514	598	
8	0	0	0	0	515	597	
9	0	0	0	0	515	598	
10	0	0	0	0	516	598	
11	0	0	0	0	518	598	
12	0	0	0	0	519	598	
13	0	0	0	0	521	598	
14	0	0	0	0	521	598	
15	0	0	0	0	521	598	
0	0	0	0	0	521	598	
1	0	0	0	0	521	597	
2	0	0	0	0	522	598	
3	0	0	0	0	523	598	
4	0	0	0	0	523	598	
5	0	0	0	0	522	596	
6	0	0	0	0	522	597	
7	0	0	0	0	522	599	
8	0	0	0	0	521	597	
9	0	0	0	0	521	598	
10	0	0	0	0	520	598	
11	0	0	0	0	519	598	
12	0	0	0	0	519	599	
13	0	0	0	0	519	598	
14	0	0	0	0	519	599	
15	0	0	0	0	519	599	
0	0	0	0	0	519	598	
1	0	0	0	0	519	599	
2	0	0	0	0	519	598	
3	0	0	0	0	519	599	
4	0	0	0	0	519	598	
5	0	0	0	0	519	599	
6	0	0	0	0	519	598	
7	0	0	0	0	519	599	
8	0	0	0	0	518	598	
9	0	0	0	0	517	598	
10	0	0	0	0	517	598	
11	0	0	0	0	517	598	
12	0	0	0	0	517	598	
13	0	0	0	0	515	598	
14	0	0	0	0	515	598	
15	0	0	0	0	515	599	
0	0	0	0	0	515	598	
1	0	0	0	0	515	598	
2	0	0	0	0	515	597	
3	0	0	0	0	515	598	
4	0	0	0	0	516	598	
5	0	0	0	0	516	598	
6	0	0	0	0	515	597	
7	0	0	0	0	515	598	
8	0	0	0	0	515	597	
9	0	0	0	0	515	597	
10	0	0	0	0	515	597	
11	0	0	0	0	516	597	
12	0	0	0	0	516	597	
13	0	0	0	0	515	596	
14	0	0	0	0	514	596	
15	0	0	0	0	514	597	
0	0	0	0	0	514	597	
1	0	0	0	0	513	597	
2	0	0	0	0	514	596	
3	0	0	0	0	514	597	
4	0	0	0	0	515	597	
5	0	0	0	0	515	596	
6	0	0	0	0	516	597	
7	0	0	0	0	516	597	
8	0	0	0	0	516	596	
9	0	0	0	0	515	596	
10	0	0	0	0	515	596	
11	0	0	0	0	515	597	
12	0	0	0	0	515	596	
13	0	0	0	0	515	596	
14	0	0	0	0	515	596	
15	0	0	0	0	515	596	
0	0	0	0	0	516	597	
1	0	0	0	0	517	596	
2	0	0	0	0	517	597	
3	0	0	0	0	518	597	
4	0	0	0	0	519	596	
5	0	0	0	0	518	596	
6	0	0	0	0	519	596	
7	0	0	0	0	519	597	
8	0	0	0	0	519	597	
9	0	0	0	0	519	596	
10	0	0	0	0	518	595	
11	0	0	0	0	517	596	
12	0	0	0	0	518	596	
13	0	0	0	0	517	596	
14	0	0	0	0	517	596	
15	0	0	0	0	517	597	
0	0	0	0	0	516	597	
1	0	0	0	0	516	596	
2	0	0	0	0	516	595	
3	0	0	0	0	516	597	
4	0	0	0	0	516	596	
5	0	0	0	0	516	596	
6	0	0	0	0	516	597	
7	0	0	0	0	515	597	
8	0	0	0	0	514	597	
9	0	0	0	0	514	596	
10	0	0	0	0	513	597	
11	0	0	0	0	512	597	
12	0	0	0	0	512	596	
13	0	0	0	0	512	596	
14	0	0	0	0	512	596	
15	0	0	0	0	511	597	
0	0	0	0	0	511	596	
1	0	0	0	0	512	595	
2	0	0	0	0	513	595	
3	0	0	0	0	512	596	
4	0	0	0	0	513	595	
5	0	0	0	0	512	595	
6	0	0	0	0	512	596	
7	0	0	0	0	511	596	
8	0	0	0	0	510	596	
9	0	0	0	0	510	596	
10	0	0	0	0	510	596	
11	0	0	0	0	509	596	
12	0	0	0	0	509	595	
13	0	0	0	0	509	595	
14	0	0	0	0	508	595	
15	0	0	0	0	508	596	
0	0	0	0	0	508	595	
1	0	0	0	0	508	595	
2	0	0	0	0	508	595	
3	0	0	0	0	508	595	
4	0	0	0	0	507	595	
5	0	0	0	0	507	595	
6	0	0	0	0	507	595	
7	0	0	0	0	508	596	
8	0	0	0	0	508	595	
9	0	0	0	0	508	595	
10	0	0	0	0	508	595	
11	0	0	0	0	508	595	
12	0	0	0	0	510	595	
13	0	0	0	0	510	595	
14	0	0	0	0	510	595	
15	0	0	0	0	510	596	
0	0	0	0	0	509	595	
1	0	0	0	0	508	595	
2	0	0	0	0	508	596	
3	0	0	0	0	506	595	
4	0	0	0	0	505	595	
5	0	0	0	0	505	595	
6	0	0	0	0	505	595	
7	0	0	0	0	506	596	
8	0	0	0	0	507	595	
9	0	0	0	0	507	595	
10	0	0	0	0	506	596	
11	0	0	0	0	506	596	
12	0	0	0	0	506	596	
13	0	0	0	0	505	595	
14	0	0	0	0	505	596	
15	0	0	0	0	504	596	
0	0	0	0	0	504	596	
1	0	0	0	0	504	596	
2	0	0	0	0	503	596	
3	0	0	0	0	503	597	
4	0	0	0	0	503	596	
5	0	0	0	0	503	597	
6	0	0	0	0	503	596	
7	0	0	0	0	501	597	
8	0	0	0	0	501	596	
9	0	0	0	0	500	596	
10	0	0	0	0	500	597	
11	0	0	0	0	500	596	
12	0	0	0	0	500	596	
13	0	0	0	0	501	597	
14	0	0	0	0	501	596	
15	0	0	0	0	501	598	
0	0	0	0	0	501	596	
1	0	0	0	0	502	597	
2	0	0	0	0	502	597	
3	0	0	0	0	502	597	
4	0	0	0	0	502	597	
5	0	0	0	0	502	597	
6	0	0	0	0	503	598	
7	0	0	0	0	503	598	
8	0	0	0	0	502	597	
9	0	0	0	0	500	596	
10	0	0	0	0	499	596	
11	0	0	0	0	499	597	
12	0	0	0	0	499	596	
13	0	0	0	0	499	596	
14	0	0	0	0	497	597	
15	0	0	0	0	497	598	
0	0	0	0	0	497	597	
1	0	0	0	0	497	597	
2	0	0	0	0	497	596	
3	0	0	0	0	497	597	
4	0	0	0	0	497	596	
5	0	0	0	0	497	597	
6	0	0	0	0	498	596	
7	0	0	0	0	499	597	
8	0	0	0	0	500	597	
9	0	0	0	0	502	596	
10	0	0	0	0	502	596	
11	0	0	0	0	503	596	
12	0	0	0	0	504	596	
13	0	0	0	0	504	596	
14	0	0	0	0	505	597	
15	0	0	0	0	505	597	
0	0	0	0	0	506	596	
1	0	0	0	0	507	597	
2	0	0	0	0	508	596	
3	0	0	0	0	508	596	
4	0	0	0	0	508	596	
5	0	0	0	0	509	596	
6	0	0	0	0	510	595	
7	0	0	0	0	510	597	
8	0	0	0	0	510	595	
9	0	0	0	0	510	596	
10	0	0	0	0	510	596	
11	0	0	0	0	509	595	
12	0	0	0	0	509	596	
13	0	0	0	0	508	596	
14	0	0	0	0	509	596	
15	0	0	0	0	509	597	
0	0	0	0	0	509	596	
1	0	0	0	0	510	596	
2	0	0	0	0	510	596	
3	0	0	0	0	510	596	
4	0	0	0	0	510	596	
5	0	0	0	0	510	596	
6	0	0	0	0	510	596	
7	0	0	0	0	508	597	
8	0	0	0	0	509	596	
9	0	0	0	0	510	596	
10	0	0	0	0	510	597	
11	0	0	0	0	510	597	
12	0	0	0	0	510	596	
13	0	0	0	0	510	597	
14	0	0	0	0	509	596	
15	0	0	0	0	509	597	
0	0	0	0	0	509	596	
1	0	0	0	0	508	596	
2	0	0	0	0	508	596	
3	0	0	0	0	507	597	
4	0	0	0	0	505	596	
5	0	0	0	0	505	597	
6	0	0	0	0	504	596	
7	0	0	0	0	503	598	
8	0	0	0	0	503	597	
9	0	0	0	0	504	597	
10	0	0	0	0	504	596	
11	0	0	0	0	505	597	
12	0	0	0	0	505	596	
13	0	0	0	0	507	596	
14	0	0	0	0	508	597	
15	0	0	0	0	508	597	
0	0	0	0	0	508	596	
1	0	0	0	0	508	596	
2	0	0	0	0	508	597	
3	0	0	0	0	508	597	
4	0	0	0	0	507	598	
5	0	0	0	0	506	597	
6	0	0	0	0	507	597	
7	0	0	0	0	506	598	
8	0	0	0	0	505	597	
9	0	0	0	0	504	598	
10	0	0	0	0	504	597	
11	0	0	0	0	505	598	
12	0	0	0	0	505	598	
13	0	0	0	0	505	598	
14	0	0	0	0	505	598	
15	0	0	0	0	505	598	
0	0	0	0	0	506	598	
1	0	0	0	0	508	598	
2	0	0	0	0	508	598	
3	0	0	0	0	507	599	
4	0	0	0	0	506	598	
5	0	0	0	0	504	598	
6	0	0	0	0	503	597	
7	0	0	0	0	503	598	
8	0	0	0	0	502	598	
9	0	0	0	0	501	598	
10	0	0	0	0	499	598	
11	0	0	0	0	497	598	
12	0	0	0	0	494	598	
13	0	0	0	0	490	598	
14	0	0	0	0	486	598	
15	0	0	0	0	481	599	
0	0	0	0	0	476	598	
1	0	0	0	0	472	597	
2	0	0	0	0	469	598	
3	0	0	0	0	466	598	
4	0	0	0	0	464	598	
5	0	0	0	0	461	598	
6	0	0	0	0	459	598	
7	0	0	0	0	457	599	
8	0	0	0	0	456	598	
9	0	0	0	0	457	598	
10	0	0	0	0	458	599	
11	0	0	0	0	460	598	
12	0	0	0	0	464	598	
13	0	0	0	0	471	598	
14	0	0	0	0	480	598	
15	0	0	0	0	489	599	
0	0	0	0	0	500	598	
1	0	0	0	0	514	598	
2	0	0	0	0	527	598	
3	0	0	0	0	542	598	
4	0	0	0	0	556	597	
5	0	0	0	0	570	598	
6	0	0	0	0	583	597	
7	0	0	0	0	595	598	
8	0	0	0	0	606	598	
9	0	0	0	0	615	598	
10	0	0	0	0	624	598	
11	0	0	0	0	631	598	
12	0	0	0	0	637	597	
13	0	0	0	0	641	598	
14	0	0	0	0	644	598	
15	0	0	0	0	644	599	
0	0	0	0	0	644	598	
1	0	0	0	0	642	598	
2	0	0	0	0	638	598	
3	0	0	0	0	633	598	
4	0	0	0	0	627	598	
5	0	0	0	0	620	598	
6	0	0	0	0	612	597	
7	0	0	0	0	604	598	
8	0	0	0	0	596	598	
9	0	0	0	0	588	598	
10	0	0	0	0	579	598	
11	0	0	0	0	571	598	
12	0	0	0	0	563	597	
13	0	0	0	0	554	599	
14	0	0	0	0	546	598	
15	0	0	0	0	539	598	
0	0	0	0	0	532	597	
1	0	0	0	0	525	597	
2	0	0	0	0	519	597	
3	0	0	0	0	515	598	
4	0	0	0	0	511	597	
5	0	0	0	0	508	597	
6	0	0	0	0	506	597	
7	0	0	0	0	504	598	
8	0	0	0	0	501	597	
9	0	0	0	0	499	597	
10	0	0	0	0	499	596	
11	0	0	0	0	497	597	
12	0	0	0	0	496	597	
13	0	0	0	0	495	597	
14	0	0	0	0	494	597	
15	0	0	0	0	493	597	
0	0	0	0	0	492	597	
1	0	0	0	0	491	597	
2	0	0	0	0	491	597	
3	0	0	0	0	491	597	
4	0	0	0	0	490	597	
5	0	0	0	0	489	596	
6	0	0	0	0	489	596	
7	0	0	0	0	488	596	
8	0	0	0	0	488	596	
9	0	0	0	0	489	596	
10	0	0	0	0	490	596	
11	0	0	0	0	490	597	
12	0	0	0	0	490	596	
13	0	0	0	0	489	597	
14	0	0	0	0	489	596	
15	0	0	0	0	489	596	
0	0	0	0	0	489	596	
1	0	0	0	0	489	595	
2	0	0	0	0	488	596	
3	0	0	0	0	488	595	
4	0	0	0	0	487	596	
5	0	0	0	0	485	596	
6	0	0	0	0	484	595	
7	0	0	0	0	483	596	
8	0	0	0	0	482	595	
9	0	0	0	0	481	596	
10	0	0	0	0	480	596	
11	0	0	0	0	481	596	
12	0	0	0	0	481	596	
13	0	0	0	0	481	596	
14	0	0	0	0	481	596	
15	0	0	0	0	481	597	
0	0	0	0	0	482	596	
1	0	0	0	0	482	595	
2	0	0	0	0	481	596	
3	0	0	0	0	481	595	
4	0	0	0	0	480	595	
5	0	0	0	0	479	595	
6	0	0	0	0	479	595	
7	0	0	0	0	479	596	
8	0	0	0	0	479	596	
9	0	0	0	0	479	596	
10	0	0	0	0	479	596	
11	0	0	0	0	480	597	
12	0	0	0	0	481	596	
13	0	0	0	0	481	597	
14	0	0	0	0	481	596	
15	0	0	0	0	482	598	
0	0	0	0	0	483	597	
1	0	0	0	0	484	597	
2	0	0	0	0	485	597	
3	0	0	0	0	484	596	
4	0	0	0	0	484	597	
5	0	0	0	0	485	597	
6	0	0	0	0	486	598	
7	0	0	0	0	486	598	
8	0	0	0	0	486	598	
9	0	0	0	0	486	597	
10	0	0	0	0	486	597	
11	0	0	0	0	486	598	
12	0	0	0	0	485	597	
13	0	0	0	0	485	598	
14	0	0	0	0	485	597	
15	0	0	0	0	484	598	
0	0	0	0	0	483	597	
1	0	0	0	0	484	596	
2	0	0	0	0	484	597	
3	0	0	0	0	485	597	
4	0	0	0	0	486	597	
5	0	0	0	0	487	597	
6	0	0	0	0	487	597	
7	0	0	0	0	488	598	
8	0	0	0	0	489	597	
9	0	0	0	0	490	597	
10	0	0	0	0	491	597	
11	0	0	0	0	490	596	
12	0	0	0	0	490	597	
13	0	0	0	0	489	596	
14	0	0	0	0	490	596	
15	0	0	0	0	492	597	
0	0	0	0	0	493	595	
1	0	0	0	0	494	596	
2	0	0	0	0	496	596	
3	0	0	0	0	498	596	
4	0	0	0	0	499	596	
5	0	0	0	0	499	596	
6	0	0	0	0	499	595	
7	0	0	0	0	500	596	
8	0	0	0	0	501	596	
9	0	0	0	0	502	595	
10	0	0	0	0	503	595	
11	0	0	0	0	504	595	
12	0	0	0	0	504	595	
13	0	0	0	0	504	595	
14	0	0	0	0	504	595	
15	0	0	0	0	505	596	
0	0	0	0	0	504	595	
1	0	0	0	0	504	595	
2	0	0	0	0	504	596	
3	0	0	0	0	504	595	
4	0	0	0	0	504	596	
5	0	0	0	0	504	595	
6	0	0	0	0	505	596	
7	0	0	0	0	504	596	
8	0	0	0	0	504	595	
9	0	0	0	0	503	595	
10	0	0	0	0	502	595	
11	0	0	0	0	502	596	
12	0	0	0	0	501	595	
13	0	0	0	0	501	595	
14	0	0	0	0	501	595	
15	0	0	0	0	501	596	
0	0	0	0	0	501	595	
1	0	0	0	0	501	596	
2	0	0	0	0	502	596	
3	0	0	0	0	502	596	
4	0	0	0	0	502	596	
5	0	0	0	0	503	595	
6	0	0	0	0	503	596	
7	0	0	0	0	504	596	
8	0	0	0	0	505	595	
9	0	0	0	0	506	596	
10	0	0	0	0	506	596	
11	0	0	0	0	507	597	
12	0	0	0	0	507	596	
13	0	0	0	0	507	597	
14	0	0	0	0	507	597	
15	0	0	0	0	506	597	
0	0	0	0	0	505	596	
1	0	0	0	0	505	597	
2	0	0	0	0	505	596	
3	0	0	0	0	504	597	
4	0	0	0	0	503	596	
5	0	0	0	0	502	596	
6	0	0	0	0	502	596	
7	0	0	0	0	501	598	
8	0	0	0	0	501	597	
9	0	0	0	0	501	596	
10	0	0	0	0	501	597	
11	0	0	0	0	501	597	
12	0	0	0	0	500	597	
13	0	0	0	0	502	597	
14	0	0	0	0	503	597	
15	0	0	0	0	504	598	
0	0	0	0	0	504	597	
1	0	0	0	0	505	597	
2	0	0	0	0	506	597	
3	0	0	0	0	507	597	
4	0	0	0	0	507	597	
5	0	0	0	0	507	597	
6	0	0	0	0	508	597	
7	0	0	0	0	509	597	
8	0	0	0	0	509	596	
9	0	0	0	0	509	597	
10	0	0	0	0	510	596	
11	0	0	0	0	510	596	
12	0	0	0	0	510	596	
13	0	0	0	0	510	597	
14	0	0	0	0	510	597	
15	0	0	0	0	509	598	
0	0	0	0	0	508	596	
1	0	0	0	0	508	597	
2	0	0	0	0	508	596	
3	0	0	0	0	508	597	
4	0	0	0	0	508	596	
5	0	0	0	0	508	596	
6	0	0	0	0	508	597	
7	0	0	0	0	508	597	
8	0	0	0	0	507	597	
9	0	0	0	0	508	597	
10	0	0	0	0	509	596	
11	0	0	0	0	510	597	
12	0	0	0	0	510	597	
13	0	0	0	0	511	597	
14	0	0	0	0	511	596	
15	0	0	0	0	511	596	
0	0	0	0	0	511	597	
1	0	0	0	0	512	596	
2	0	0	0	0	512	597	
3	0	0	0	0	513	596	
4	0	0	0	0	514	596	
5	0	0	0	0	514	596	
6	0	0	0	0	514	596	
7	0	0	0	0	515	596	
8	0	0	0	0	515	596	
9	0	0	0	0	514	596	
10	0	0	0	0	515	596	
11	0	0	0	0	516	597	
12	0	0	0	0	518	596	
13	0	0	0	0	518	596	
14	0	0	0	0	519	595	
15	0	0	0	0	519	597	
0	0	0	0	0	519	596	
1	0	0	0	0	519	596	
2	0	0	0	0	519	595	
3	0	0	0	0	519	596	
4	0	0	0	0	519	595	
5	0	0	0	0	519	595	
6	0	0	0	0	519	595	
7	0	0	0	0	519	596	
8	0	0	0	0	518	595	
9	0	0	0	0	517	595	
10	0	0	0	0	516	596	
11	0	0	0	0	515	596	
12	0	0	0	0	514	596	
13	0	0	0	0	513	595	
14	0	0	0	0	512	596	
15	0	0	0	0	511	597	
0	0	0	0	0	511	596	
1	0	0	0	0	511	596	
2	0	0	0	0	510	596	
3	0	0	0	0	511	597	
4	0	0	0	0	511	596	
5	0	0	0	0	511	596	
6	0	0	0	0	512	596	
7	0	0	0	0	512	597	
8	0	0	0	0	513	596	
9	0	0	0	0	513	596	
10	0	0	0	0	513	597	
11	0	0	0	0	514	597	
12	0	0	0	0	514	596	
13	0	0	0	0	515	597	
14	0	0	0	0	515	597	
15	0	0	0	0	516	598	
0	0	0	0	0	517	598	
1	0	0	0	0	518	597	
2	0	0	0	0	518	598	
3	0	0	0	0	517	598	
4	0	0	0	0	515	597	
5	0	0	0	0	515	597	
6	0	0	0	0	515	597	
7	0	0	0	0	514	598	
8	0	0	0	0	513	598	
9	0	0	0	0	513	598	
10	0	0	0	0	512	598	
11	0	0	0	0	511	598	
12	0	0	0	0	511	598	
13	0	0	0	0	510	598	
14	0	0	0	0	510	598	
15	0	0	0	0	510	598	
0	0	0	0	0	511	599	
1	0	0	0	0	511	599	
2	0	0	0	0	511	598	
3	0	0	0	0	510	599	
4	0	0	0	0	509	599	
5	0	0	0	0	509	599	
6	0	0	0	0	509	599	
7	0	0	0	0	509	599	
8	0	0	0	0	509	600	
9	0	0	0	0	509	599	
10	0	0	0	0	509	599	
11	0	0	0	0	510	599	
12	0	0	0	0	511	598	
13	0	0	0	0	512	599	
14	0	0	0	0	512	599	
15	0	0	0	0	513	600	
0	0	0	0	0	514	599	
1	0	0	0	0	515	598	
2	0	0	0	0	515	599	
3	0	0	0	0	515	599	
4	0	0	0	0	515	599	
5	0	0	0	0	515	599	
6	0	0	0	0	513	598	
7	0	0	0	0	514	600	
8	0	0	0	0	513	599	
9	0	0	0	0	513	599	
10	0	0	0	0	512	598	
11	0	0	0	0	512	598	
12	0	0	0	0	512	599	
13	0	0	0	0	511	599	
14	0	0	0	0	510	599	
15	0	0	0	0	509	600	
0	0	0	0	0	509	599	
1	0	0	0	0	509	599	
2	0	0	0	0	509	599	
3	0	0	0	0	509	599	
4	0	0	0	0	509	599	
5	0	0	0	0	509	599	
6	0	0	0	0	509	599	
7	0	0	0	0	509	599	
8	0	0	0	0	510	599	
9	0	0	0	0	511	599	
10	0	0	0	0	512	599	
11	0	0	0	0	511	599	
12	0	0	0	0	511	599	
13	0	0	0	0	510	599	
14	0	0	0	0	511	598	
15	0	0	0	0	511	599	
0	0	0	0	0	510	598	
1	0	0	0	0	509	598	
2	0	0	0	0	510	598	
3	0	0	0	0	509	598	
4	0	0	0	0	509	598	
5	0	0	0	0	509	598	
6	0	0	0	0	510	598	
7	0	0	0	0	511	599	
8	0	0	0	0	511	598	
9	0	0	0	0	510	599	
10	0	0	0	0	511	598	
11	0	0	0	0	512	598	
12	0	0	0	0	513	598	
13	0	0	0	0	514	598	
14	0	0	0	0	514	597	
15	0	0	0	0	513	598	
0	0	0	0	0	514	597	
1	0	0	0	0	516	597	
2	0	0	0	0	518	597	
3	0	0	0	0	518	598	
4	0	0	0	0	518	598	
5	0	0	0	0	518	597	
6	0	0	0	0	517	598	
7	0	0	0	0	516	598	
8	0	0	0	0	516	598	
9	0	0	0	0	516	597	
10	0	0	0	0	514	597	
11	0	0	0	0	515	598	
12	0	0	0	0	515	597	
13	0	0	0	0	516	598	
14	0	0	0	0	516	597	
15	0	0	0	0	515	599	
0	0	0	0	0	515	598	
1	0	0	0	0	515	598	
2	0	0	0	0	515	597	
3	0	0	0	0	515	598	
4	0	0	0	0	515	598	
5	0	0	0	0	515	597	
6	0	0	0	0	516	598	
7	0	0	0	0	517	598	
8	0	0	0	0	516	598	
9	0	0	0	0	516	597	
10	0	0	0	0	516	597	
11	0	0	0	0	517	598	
12	0	0	0	0	516	598	
13	0	0	0	0	516	597	
14	0	0	0	0	518	597	
15	0	0	0	0	518	598	
0	0	0	0	0	518	597	
1	0	0	0	0	518	596	
2	0	0	0	0	518	597	
3	0	0	0	0	518	597	
4	0	0	0	0	517	596	
5	0	0	0	0	517	597	
6	0	0	0	0	516	598	
7	0	0	0	0	516	599	
8	0	0	0	0	515	597	
9	0	0	0	0	515	597	
10	0	0	0	0	515	597	
11	0	0	0	0	515	598	
12	0	0	0	0	514	597	
13	0	0	0	0	513	598	
14	0	0	0	0	513	597	
15	0	0	0	0	512	598	
0	0	0	0	0	512	596	
1	0	0	0	0	512	597	
2	0	0	0	0	511	597	
3	0	0	0	0	511	597	
4	0	0	0	0	511	597	
5	0	0	0	0	512	597	
6	0	0	0	0	512	597	
7	0	0	0	0	511	598	
8	0	0	0	0	511	597	
9	0	0	0	0	512	597	
10	0	0	0	0	512	597	
11	0	0	0	0	512	597	
12	0	0	0	0	513	598	
13	0	0	0	0	512	597	
14	0	0	0	0	511	597	
15	0	0	0	0	511	598	
0	0	0	0	0	511	597	
1	0	0	0	0	511	597	
2	0	0	0	0	512	597	
3	0	0	0	0	512	598	
4	0	0	0	0	512	597	
5	0	0	0	0	514	597	
6	0	0	0	0	515	597	
7	0	0	0	0	516	598	
8	0	0	0	0	518	597	
9	0	0	0	0	519	596	
10	0	0	0	0	519	597	
11	0	0	0	0	520	597	
12	0	0	0	0	521	597	
13	0	0	0	0	521	597	
14	0	0	0	0	522	597	
15	0	0	0	0	522	597	
0	0	0	0	0	522	597	
1	0	0	0	0	522	596	
2	0	0	0	0	521	596	
3	0	0	0	0	521	596	
4	0	0	0	0	521	596	
5	0	0	0	0	521	596	
6	0	0	0	0	520	596	
7	0	0	0	0	519	597	
8	0	0	0	0	519	596	
9	0	0	0	0	519	597	
10	0	0	0	0	518	596	
11	0	0	0	0	517	596	
12	0	0	0	0	516	596	
13	0	0	0	0	515	596	
14	0	0	0	0	515	597	
15	0	0	0	0	514	597	
0	0	0	0	0	514	596	
1	0	0	0	0	514	596	
2	0	0	0	0	515	596	
3	0	0	0	0	514	595	
4	0	0	0	0	514	596	
5	0	0	0	0	514	596	
6	0	0	0	0	513	596	
7	0	0	0	0	513	597	
8	0	0	0	0	513	596	
9	0	0	0	0	514	596	
10	0	0	0	0	514	596	
11	0	0	0	0	514	596	
12	0	0	0	0	514	595	
13	0	0	0	0	512	596	
14	0	0	0	0	512	595	
15	0	0	0	0	511	596	
0	0	0	0	0	509	596	
1	0	0	0	0	508	596	
2	0	0	0	0	507	596	
3	0	0	0	0	507	596	
4	0	0	0	0	508	596	
5	0	0	0	0	508	596	
6	0	0	0	0	509	596	
7	0	0	0	0	510	597	
8	0	0	0	0	510	596	
9	0	0	0	0	511	596	
10	0	0	0	0	511	596	
11	0	0	0	0	512	596	
12	0	0	0	0	513	596	
13	0	0	0	0	515	596	
14	0	0	0	0	515	596	
15	0	0	0	0	515	597	
0	0	0	0	0	514	596	
1	0	0	0	0	513	596	
2	0	0	0	0	513	596	
3	0	0	0	0	513	596	
4	0	0	0	0	513	596	
5	0	0	0	0	513	595	
6	0	0	0	0	513	596	
7	0	0	0	0	513	597	
8	0	0	0	0	513	596	
9	0	0	0	0	513	596	
10	0	0	0	0	514	596	
11	0	0	0	0	514	597	
12	0	0	0	0	514	596	
13	0	0	0	0	514	596	
14	0	0	0	0	515	596	
15	0	0	0	0	515	597	
0	0	0	0	0	515	597	
1	0	0	0	0	515	596	
2	0	0	0	0	515	596	
3	0	0	0	0	515	596	
4	0	0	0	0	515	596	
5	0	0	0	0	515	597	
6	0	0	0	0	515	597	
7	0	0	0	0	514	597	
8	0	0	0	0	514	597	
9	0	0	0	0	514	597	
10	0	0	0	0	515	597	
11	0	0	0	0	516	597	
12	0	0	0	0	516	597	
13	0	0	0	0	516	597	
14	0	0	0	0	516	597	
15	0	0	0	0	516	598	
0	0	0	0	0	516	597	
1	0	0	0	0	516	598	
2	0	0	0	0	516	597	
3	0	0	0	0	515	597	
4	0	0	0	0	513	597	
5	0	0	0	0	513	597	
6	0	0	0	0	513	597	
7	0	0	0	0	512	598	
8	0	0	0	0	512	597	
9	0	0	0	0	512	597	
10	0	0	0	0	511	597	
11	0	0	0	0	511	598	
12	0	0	0	0	511	597	
13	0	0	0	0	512	597	
14	0	0	0	0	511	597	
15	0	0	0	0	511	598	
0	0	0	0	0	510	597	
1	0	0	0	0	510	596	
2	0	0	0	0	510	597	
3	0	0	0	0	510	598	
4	0	0	0	0	510	597	
5	0	0	0	0	511	597	
6	0	0	0	0	512	597	
7	0	0	0	0	511	598	
8	0	0	0	0	511	597	
9	0	0	0	0	512	597	
10	0	0	0	0	511	597	
11	0	0	0	0	512	598	
12	0	0	0	0	513	597	
13	0	0	0	0	513	597	
14	0	0	0	0	514	597	
15	0	0	0	0	514	598	
0	0	0	0	0	515	596	
1	0	0	0	0	515	597	
2	0	0	0	0	514	597	
3	0	0	0	0	513	597	
4	0	0	0	0	513	597	
5	0	0	0	0	513	597	
6	0	0	0	0	513	596	
7	0	0	0	0	513	598	
8	0	0	0	0	514	597	
9	0	0	0	0	514	597	
10	0	0	0	0	515	596	
11	0	0	0	0	516	597	
12	0	0	0	0	518	596	
13	0	0	0	0	519	597	
14	0	0	0	0	519	596	
15	0	0	0	0	518	598	
0	0	0	0	0	518	597	
1	0	0	0	0	519	597	
2	0	0	0	0	519	596	
3	0	0	0	0	520	597	
4	0	0	0	0	520	597	
5	0	0	0	0	521	597	
6	0	0	0	0	519	598	
7	0	0	0	0	519	597	
8	0	0	0	0	518	597	
9	0	0	0	0	516	598	
10	0	0	0	0	516	598	
11	0	0	0	0	515	598	
12	0	0	0	0	513	597	
13	0	0	0	0	513	597	
14	0	0	0	0	513	597	
15	0	0	0	0	512	597	
0	0	0	0	0	512	598	
1	0	0	0	0	513	597	
2	0	0	0	0	514	596	
3	0	0	0	0	515	598	
4	0	0	0	0	516	598	
5	0	0	0	0	517	597	
6	0	0	0	0	517	598	
7	0	0	0	0	519	598	
8	0	0	0	0	519	598	
9	0	0	0	0	521	598	
10	0	0	0	0	522	598	
11	0	0	0	0	523	598	
12	0	0	0	0	523	598	
13	0	0	0	0	523	597	
14	0	0	0	0	524	598	
15	0	0	0	0	524	598	
0	0	0	0	0	523	598	
1	0	0	0	0	522	598	
2	0	0	0	0	521	598	
3	0	0	0	0	520	598	
4	0	0	0	0	519	598	
5	0	0	0	0	518	598	
6	0	0	0	0	518	598	
7	0	0	0	0	518	598	
8	0	0	0	0	517	597	
9	0	0	0	0	517	598	
10	0	0	0	0	517	598	
11	0	0	0	0	518	598	
12	0	0	0	0	518	599	
13	0	0	0	0	519	598	
14	0	0	0	0	520	598	
15	0	0	0	0	521	599	
0	0	0	0	0	523	598	
1	0	0	0	0	523	598	
2	0	0	0	0	524	597	
3	0	0	0	0	524	597	
4	0	0	0	0	524	597	
5	0	0	0	0	523	597	
6	0	0	0	0	523	598	
7	0	0	0	0	522	598	
8	0	0	0	0	522	597	
9	0	0	0	0	523	597	
10	0	0	0	0	523	597	
11	0	0	0	0	523	598	
12	0	0	0	0	523	597	
13	0	0	0	0	523	597	
14	0	0	0	0	523	597	
15	0	0	0	0	521	598	
0	0	0	0	0	520	597	
1	0	0	0	0	520	597	
2	0	0	0	0	519	597	
3	0	0	0	0	519	597	
4	0	0	0	0	518	597	
5	0	0	0	0	516	597	
6	0	0	0	0	514	597	
7	0	0	0	0	512	597	
8	0	0	0	0	511	597	
9	0	0	0	0	511	596	
10	0	0	0	0	510	596	
11	0	0	0	0	509	596	
12	0	0	0	0	507	596	
13	0	0	0	0	505	596	
14	0	0	0	0	502	597	
15	0	0	0	0	498	598	
0	0	0	0	0	495	597	
1	0	0	0	0	492	597	
2	0	0	0	0	487	596	
3	0	0	0	0	483	597	
4	0	0	0	0	481	596	
5	0	0	0	0	478	596	
6	0	0	0	0	476	596	
7	0	0	0	0	475	596	
8	0	0	0	0	474	596	
9	0	0	0	0	473	596	
10	0	0	0	0	473	596	
11	0	0	0	0	474	596	
12	0	0	0	0	477	597	
13	0	0	0	0	480	596	
14	0	0	0	0	483	596	
15	0	0	0	0	489	597	
0	0	0	0	0	497	597	
1	0	0	0	0	504	597	
2	0	0	0	0	513	596	
3	0	0	0	0	524	596	
4	0	0	0	0	535	596	
5	0	0	0	0	548	596	
6	0	0	0	0	560	596	
7	0	0	0	0	573	597	
8	0	0	0	0	585	596	
9	0	0	0	0	599	597	
10	0	0	0	0	609	597	
11	0	0	0	0	619	596	
12	0	0	0	0	629	596	
13	0	0	0	0	637	596	
14	0	0	0	0	643	596	
15	0	0	0	0	648	597	
0	0	0	0	0	653	597	
1	0	0	0	0	655	596	
2	0	0	0	0	656	597	
3	0	0	0	0	657	597	
4	0	0	0	0	655	597	
5	0	0	0	0	651	596	
6	0	0	0	0	644	597	
7	0	0	0	0	637	598	
8	0	0	0	0	628	596	
9	0	0	0	0	619	596	
10	0	0	0	0	609	596	
11	0	0	0	0	599	596	
12	0	0	0	0	589	595	
13	0	0	0	0	579	596	
14	0	0	0	0	569	597	
15	0	0	0	0	560	597	
0	0	0	0	0	551	596	
1	0	0	0	0	543	597	
2	0	0	0	0	536	596	
3	0	0	0	0	529	596	
4	0	0	0	0	523	596	
5	0	0	0	0	518	596	
6	0	0	0	0	513	596	
7	0	0	0	0	510	596	
8	0	0	0	0	505	596	
9	0	0	0	0	502	597	
10	0	0	0	0	500	596	
11	0	0	0	0	499	597	
12	0	0	0	0	497	597	
13	0	0	0	0	496	597	
14	0	0	0	0	495	597	
15	0	0	0	0	493	597	
0	0	0	0	0	492	596	
1	0	0	0	0	489	596	
2	0	0	0	0	489	596	
3	0	0	0	0	489	597	
4	0	0	0	0	489	596	
5	0	0	0	0	488	596	
6	0	0	0	0	489	596	
7	0	0	0	0	489	598	
8	0	0	0	0	489	596	
9	0	0	0	0	488	595	
10	0	0	0	0	488	596	
11	0	0	0	0	487	596	
12	0	0	0	0	487	596	
13	0	0	0	0	487	595	
14	0	0	0	0	487	596	
15	0	0	0	0	487	597	
0	0	0	0	0	487	595	
1	0	0	0	0	487	596	
2	0	0	0	0	486	596	
3	0	0	0	0	485	596	
4	0	0	0	0	485	596	
5	0	0	0	0	485	596	
6	0	0	0	0	485	596	
7	0	0	0	0	485	597	
8	0	0	0	0	485	596	
9	0	0	0	0	485	596	
10	0	0	0	0	485	596	
11	0	0	0	0	485	597	
12	0	0	0	0	484	596	
13	0	0	0	0	485	596	
14	0	0	0	0	485	596	
15	0	0	0	0	485	597	
0	0	0	0	0	486	597	
1	0	0	0	0	486	596	
2	0	0	0	0	486	596	
3	0	0	0	0	486	597	
4	0	0	0	0	487	596	
5	0	0	0	0	487	597	
6	0	0	0	0	486	596	
7	0	0	0	0	486	597	
8	0	0	0	0	485	597	
9	0	0	0	0	485	596	
10	0	0	0	0	486	597	
11	0	0	0	0	487	597	
12	0	0	0	0	487	596	
13	0	0	0	0	487	596	
14	0	0	0	0	488	596	
15	0	0	0	0	489	597	
0	0	0	0	0	488	596	
1	0	0	0	0	489	596	
2	0	0	0	0	490	597	
3	0	0	0	0	490	596	
4	0	0	0	0	491	597	
5	0	0	0	0	491	596	
6	0	0	0	0	492	597	
7	0	0	0	0	492	598	
8	0	0	0	0	494	596	
9	0	0	0	0	495	598	
10	0	0	0	0	496	597	
11	0	0	0	0	496	597	
12	0	0	0	0	495	597	
13	0	0	0	0	496	596	
14	0	0	0	0	497	597	
15	0	0	0	0	497	597	
0	0	0	0	0	498	597	
1	0	0	0	0	499	597	
2	0	0	0	0	499	597	
3	0	0	0	0	498	597	
4	0	0	0	0	498	597	
5	0	0	0	0	498	597	
6	0	0	0	0	497	597	
7	0	0	0	0	497	597	
8	0	0	0	0	496	596	
9	0	0	0	0	494	596	
10	0	0	0	0	494	596	
11	0	0	0	0	493	597	
12	0	0	0	0	493	597	
13	0	0	0	0	493	597	
14	0	0	0	0	493	596	
15	0	0	0	0	494	598	
0	0	0	0	0	494	597	
1	0	0	0	0	494	596	
2	0	0	0	0	494	597	
3	0	0	0	0	495	597	
4	0	0	0	0	496	596	
5	0	0	0	0	496	596	
6	0	0	0	0	496	596	
7	0	0	0	0	496	598	
8	0	0	0	0	496	596	
9	0	0	0	0	496	596	
10	0	0	0	0	496	597	
11	0	0	0	0	496	596	
12	0	0	0	0	496	597	
13	0	0	0	0	496	597	
14	0	0	0	0	496	597	
15	0	0	0	0	497	598	
0	0	0	0	0	497	596	
1	0	0	0	0	498	597	
2	0	0	0	0	499	596	
3	0	0	0	0	499	597	
4	0	0	0	0	498	596	
5	0	0	0	0	498	596	
6	0	0	0	0	498	597	
7	0	0	0	0	499	598	
8	0	0	0	0	499	596	
9	0	0	0	0	499	597	
10	0	0	0	0	499	597	
11	0	0	0	0	499	598	
12	0	0	0	0	499	598	
13	0	0	0	0	499	598	
14	0	0	0	0	499	598	
15	0	0	0	0	498	598	
0	0	0	0	0	497	597	
1	0	0	0	0	497	597	
2	0	0	0	0	497	597	
3	0	0	0	0	498	598	
4	0	0	0	0	499	598	
5	0	0	0	0	500	598	
6	0	0	0	0	500	597	
7	0	0	0	0	500	598	
8	0	0	0	0	500	597	
9	0	0	0	0	500	598	
10	0	0	0	0	500	598	
11	0	0	0	0	500	598	
12	0	0	0	0	501	598	
13	0	0	0	0	502	598	
14	0	0	0	0	502	598	
15	0	0	0	0	504	599	
0	0	0	0	0	504	598	
1	0	0	0	0	504	597	
2	0	0	0	0	504	598	
3	0	0	0	0	505	599	
4	0	0	0	0	505	598	
5	0	0	0	0	505	598	
6	0	0	0	0	505	598	
7	0	0	0	0	505	599	
8	0	0	0	0	505	599	
9	0	0	0	0	505	599	
10	0	0	0	0	504	599	
11	0	0	0	0	504	599	
12	0	0	0	0	504	599	
13	0	0	0	0	504	599	
14	0	0	0	0	504	599	
15	0	0	0	0	504	599	
0	0	0	0	0	504	599	
1	0	0	0	0	505	598	
2	0	0	0	0	505	598	
3	0	0	0	0	505	598	
4	0	0	0	0	504	598	
5	0	0	0	0	504	598	
6	0	0	0	0	503	597	
7	0	0	0	0	504	598	
8	0	0	0	0	503	598	
9	0	0	0	0	502	598	
10	0	0	0	0	502	597	
11	0	0	0	0	502	597	
12	0	0	0	0	503	597	
13	0	0	0	0	503	596	
14	0	0	0	0	503	596	
15	0	0	0	0	502	597	
0	0	0	0	0	501	597	
1	0	0	0	0	500	596	
2	0	0	0	0	500	596	
3	0	0	0	0	501	596	
4	0	0	0	0	501	596	
5	0	0	0	0	501	595	
6	0	0	0	0	501	596	
7	0	0	0	0	500	597	
8	0	0	0	0	500	595	
9	0	0	0	0	500	595	
10	0	0	0	0	500	595	
11	0	0	0	0	500	595	
12	0	0	0	0	500	594	
13	0	0	0	0	501	595	
14	0	0	0	0	502	595	
15	0	0	0	0	503	595	
0	0	0	0	0	503	595	
1	0	0	0	0	504	594	
2	0	0	0	0	504	595	
3	0	0	0	0	505	595	
4	0	0	0	0	504	595	
5	0	0	0	0	504	594	
6	0	0	0	0	505	595	
7	0	0	0	0	506	595	
8	0	0	0	0	507	594	
9	0	0	0	0	508	594	
10	0	0	0	0	508	595	
11	0	0	0	0	507	595	
12	0	0	0	0	507	594	
13	0	0	0	0	506	595	
14	0	0	0	0	507	595	
15	0	0	0	0	507	595	
0	0	0	0	0	507	595	
1	0	0	0	0	506	595	
2	0	0	0	0	507	595	
3	0	0	0	0	506	595	
4	0	0	0	0	506	595	
5	0	0	0	0	506	595	
6	0	0	0	0	506	594	
7	0	0	0	0	505	596	
8	0	0	0	0	505	596	
9	0	0	0	0	505	595	
10	0	0	0	0	505	595	
11	0	0	0	0	507	596	
12	0	0	0	0	507	596	
13	0	0	0	0	508	595	
14	0	0	0	0	508	596	
15	0	0	0	0	509	597	
0	0	0	0	0	509	596	
1	0	0	0	0	510	596	
2	0	0	0	0	510	596	
3	0	0	0	0	510	596	
4	0	0	0	0	510	596	
5	0	0	0	0	510	596	
6	0	0	0	0	509	597	
7	0	0	0	0	509	597	
8	0	0	0	0	508	597	
9	0	0	0	0	508	597	
10	0	0	0	0	507	597	
11	0	0	0	0	507	597	
12	0	0	0	0	507	597	
13	0	0	0	0	507	598	
14	0	0	0	0	508	597	
15	0	0	0	0	509	598	
0	0	0	0	0	510	597	
1	0	0	0	0	511	597	
2	0	0	0	0	511	598	
3	0	0	0	0	512	598	
4	0	0	0	0	513	598	
5	0	0	0	0	513	598	
6	0	0	0	0	514	598	
7	0	0	0	0	514	599	
8	0	0	0	0	514	599	
9	0	0	0	0	516	598	
10	0	0	0	0	517	598	
11	0	0	0	0	517	599	
12	0	0	0	0	517	599	
13	0	0	0	0	518	598	
14	0	0	0	0	518	598	
15	0	0	0	0	518	599	
0	0	0	0	0	519	599	
1	0	0	0	0	521	599	
2	0	0	0	0	522	599	
3	0	0	0	0	524	599	
4	0	0	0	0	526	598	
5	0	0	0	0	527	599	
6	0	0	0	0	527	598	
7	0	0	0	0	527	600	
8	0	0	0	0	527	599	
9	0	0	0	0	527	599	
10	0	0	0	0	527	599	
11	0	0	0	0	527	599	
12	0	0	0	0	528	600	
13	0	0	0	0	528	598	
14	0	0	0	0	529	598	
15	0	0	0	0	531	599	
0	0	0	0	0	530	599	
1	0	0	0	0	530	599	
2	0	0	0	0	529	598	
3	0	0	0	0	529	599	
4	0	0	0	0	528	599	
5	0	0	0	0	527	599	
6	0	0	0	0	525	599	
7	0	0	0	0	524	599	
8	0	0	0	0	523	599	
9	0	0	0	0	522	599	
10	0	0	0	0	521	599	
11	0	0	0	0	521	599	
12	0	0	0	0	519	598	
13	0	0	0	0	519	599	
14	0	0	0	0	520	598	
15	0	0	0	0	520	599	
0	0	0	0	0	521	598	
1	0	0	0	0	521	598	
2	0	0	0	0	520	598	
3	0	0	0	0	520	598	
4	0	0	0	0	520	598	
5	0	0	0	0	520	598	
6	0	0	0	0	520	598	
7	0	0	0	0	521	598	
8	0	0	0	0	521	598	
9	0	0	0	0	521	598	
10	0	0	0	0	522	598	
11	0	0	0	0	523	598	
12	0	0	0	0	524	598	
13	0	0	0	0	525	598	
14	0	0	0	0	525	598	
15	0	0	0	0	525	599	
0	0	0	0	0	525	598	
1	0	0	0	0	525	597	
2	0	0	0	0	525	597	
3	0	0	0	0	525	597	
4	0	0	0	0	524	597	
5	0	0	0	0	524	597	
6	0	0	0	0	524	597	
7	0	0	0	0	524	597	
8	0	0	0	0	524	596	
9	0	0	0	0	525	597	
10	0	0	0	0	525	596	
11	0	0	0	0	526	596	
12	0	0	0	0	526	596	
13	0	0	0	0	526	596	
14	0	0	0	0	527	596	
15	0	0	0	0	527	596	
0	0	0	0	0	527	596	
1	0	0	0	0	526	595	
2	0	0	0	0	526	596	
3	0	0	0	0	525	596	
4	0	0	0	0	526	596	
5	0	0	0	0	525	596	
6	0	0	0	0	526	597	
7	0	0	0	0	525	597	
8	0	0	0	0	524	596	
9	0	0	0	0	524	596	
10	0	0	0	0	523	596	
11	0	0	0	0	523	597	
12	0	0	0	0	523	597	
13	0	0	0	0	523	596	
14	0	0	0	0	523	596	
15	0	0	0	0	522	597	
0	0	0	0	0	521	596	
1	0	0	0	0	523	597	
2	0	0	0	0	523	596	
3	0	0	0	0	523	597	
4	0	0	0	0	523	597	
5	0	0	0	0	522	597	
6	0	0	0	0	523	598	
7	0	0	0	0	523	597	
8	0	0	0	0	523	597	
9	0	0	0	0	523	597	
10	0	0	0	0	521	597	
11	0	0	0	0	520	596	
12	0	0	0	0	519	597	
13	0	0	0	0	518	597	
14	0	0	0	0	516	596	
15	0	0	0	0	515	598	
0	0	0	0	0	515	596	
1	0	0	0	0	515	597	
2	0	0	0	0	515	597	
3	0	0	0	0	515	597	
4	0	0	0	0	513	597	
5	0	0	0	0	514	596	
6	0	0	0	0	515	597	
7	0	0	0	0	516	597	
8	0	0	0	0	517	596	
9	0	0	0	0	517	596	
10	0	0	0	0	517	596	
11	0	0	0	0	517	597	
12	0	0	0	0	516	596	
13	0	0	0	0	517	597	
14	0	0	0	0	519	596	
15	0	0	0	0	520	597	
0	0	0	0	0	520	597	
1	0	0	0	0	519	596	
2	0	0	0	0	519	596	
3	0	0	0	0	520	596	
4	0	0	0	0	520	596	
5	0	0	0	0	521	596	
6	0	0	0	0	521	596	
7	0	0	0	0	520	597	
8	0	0	0	0	519	596	
9	0	0	0	0	519	596	
10	0	0	0	0	519	597	
11	0	0	0	0	519	597	
12	0	0	0	0	520	596	
13	0	0	0	0	520	596	
14	0	0	0	0	521	595	
15	0	0	0	0	523	596	
0	0	0	0	0	523	596	
1	0	0	0	0	524	596	
2	0	0	0	0	525	595	
3	0	0	0	0	526	596	
4	0	0	0	0	527	596	
5	0	0	0	0	527	596	
6	0	0	0	0	527	596	
7	0	0	0	0	528	596	
8	0	0	0	0	527	595	
9	0	0	0	0	525	595	
10	0	0	0	0	523	595	
11	0	0	0	0	523	595	
12	0	0	0	0	522	595	
13	0	0	0	0	521	596	
14	0	0	0	0	522	595	
15	0	0	0	0	522	596	
0	0	0	0	0	521	596	
1	0	0	0	0	521	595	
2	0	0	0	0	522	595	
3	0	0	0	0	522	596	
4	0	0	0	0	521	595	
5	0	0	0	0	523	596	
6	0	0	0	0	523	596	
7	0	0	0	0	523	596	
8	0	0	0	0	524	596	
9	0	0	0	0	524	596	
10	0	0	0	0	525	596	
11	0	0	0	0	526	597	
12	0	0	0	0	527	596	
13	0	0	0	0	527	596	
14	0	0	0	0	528	596	
15	0	0	0	0	528	596	
0	0	0	0	0	528	595	
1	0	0	0	0	528	596	
2	0	0	0	0	527	596	
3	0	0	0	0	527	596	
4	0	0	0	0	528	595	
5	0	0	0	0	528	595	
6	0	0	0	0	527	595	
7	0	0	0	0	528	597	
8	0	0	0	0	527	596	
9	0	0	0	0	528	597	
10	0	0	0	0	528	597	
11	0	0	0	0	529	596	
12	0	0	0	0	530	596	
13	0	0	0	0	529	596	
14	0	0	0	0	528	596	
15	0	0	0	0	527	597	
0	0	0	0	0	528	596	
1	0	0	0	0	528	596	
2	0	0	0	0	528	596	
3	0	0	0	0	529	597	
4	0	0	0	0	529	596	
5	0	0	0	0	528	597	
6	0	0	0	0	527	597	
7	0	0	0	0	527	597	
8	0	0	0	0	527	597	
9	0	0	0	0	527	598	
10	0	0	0	0	527	597	
11	0	0	0	0	527	598	
12	0	0	0	0	528	597	
13	0	0	0	0	528	596	
14	0	0	0	0	528	597	
15	0	0	0	0	528	598	
0	0	0	0	0	529	597	
1	0	0	0	0	529	597	
2	0	0	0	0	528	597	
3	0	0	0	0	529	597	
4	0	0	0	0	530	597	
5	0	0	0	0	531	598	
6	0	0	0	0	530	596	
7	0	0	0	0	531	598	
8	0	0	0	0	531	597	
9	0	0	0	0	530	597	
10	0	0	0	0	530	598	
11	0	0	0	0	530	598	
12	0	0	0	0	529	598	
13	0	0	0	0	528	598	
14	0	0	0	0	528	598	
15	0	0	0	0	528	598	
0	0	0	0	0	530	597	
1	0	0	0	0	531	598	
2	0	0	0	0	531	597	
3	0	0	0	0	531	598	
4	0	0	0	0	530	598	
5	0	0	0	0	529	597	
6	0	0	0	0	528	598	
7	0	0	0	0	527	599	
8	0	0	0	0	527	598	
9	0	0	0	0	527	598	
10	0	0	0	0	527	597	
11	0	0	0	0	527	598	
12	0	0	0	0	527	598	
13	0	0	0	0	527	598	
14	0	0	0	0	526	598	
15	0	0	0	0	526	598	
0	0	0	0	0	526	597	
1	0	0	0	0	526	597	
2	0	0	0	0	527	597	
3	0	0	0	0	528	598	
4	0	0	0	0	528	598	
5	0	0	0	0	528	597	
6	0	0	0	0	528	597	
7	0	0	0	0	527	598	
8	0	0	0	0	527	598	
9	0	0	0	0	527	598	
10	0	0	0	0	527	598	
11	0	0	0	0	527	598	
12	0	0	0	0	526	597	
13	0	0	0	0	527	598	
14	0	0	0	0	527	598	
15	0	0	0	0	527	598	
0	0	0	0	0	527	599	
1	0	0	0	0	527	598	
2	0	0	0	0	526	598	
3	0	0	0	0	524	598	
4	0	0	0	0	524	598	
5	0	0	0	0	524	598	
6	0	0	0	0	524	598	
7	0	0	0	0	524	598	
8	0	0	0	0	524	598	
9	0	0	0	0	524	598	
10	0	0	0	0	524	598	
11	0	0	0	0	523	598	
12	0	0	0	0	523	597	
13	0	0	0	0	522	598	
14	0	0	0	0	523	597	
15	0	0	0	0	524	598	
0	0	0	0	0	525	598	
1	0	0	0	0	525	598	
2	0	0	0	0	526	598	
3	0	0	0	0	526	598	
4	0	0	0	0	526	598	
5	0	0	0	0	526	598	
6	0	0	0	0	526	598	
7	0	0	0	0	527	598	
8	0	0	0	0	527	598	
9	0	0	0	0	526	598	
10	0	0	0	0	525	598	
11	0	0	0	0	524	599	
12	0	0	0	0	523	598	
13	0	0	0	0	523	599	
14	0	0	0	0	523	598	
15	0	0	0	0	524	598	
0	0	0	0	0	524	598	
1	0	0	0	0	524	598	
2	0	0	0	0	523	597	
3	0	0	0	0	521	598	
4	0	0	0	0	520	598	
5	0	0	0	0	520	598	
6	0	0	0	0	519	598	
7	0	0	0	0	519	598	
8	0	0	0	0	518	598	
9	0	0	0	0	518	597	
10	0	0	0	0	517	597	
11	0	0	0	0	518	597	
12	0	0	0	0	519	597	
13	0	0	0	0	521	597	
14	0	0	0	0	523	597	
15	0	0	0	0	524	598	
0	0	0	0	0	526	597	
1	0	0	0	0	526	597	
2	0	0	0	0	525	597	
3	0	0	0	0	526	597	
4	0	0	0	0	527	596	
5	0	0	0	0	528	596	
6	0	0	0	0	529	596	
7	0	0	0	0	529	597	
8	0	0	0	0	530	597	
9	0	0	0	0	530	597	
10	0	0	0	0	531	596	
11	0	0	0	0	531	596	
12	0	0	0	0	532	596	
13	0	0	0	0	532	596	
14	0	0	0	0	531	596	
15	0	0	0	0	531	596	
0	0	0	0	0	530	596	
1	0	0	0	0	530	596	
2	0	0	0	0	531	596	
3	0	0	0	0	531	596	
