# OpenSignals Text File Format
# {"98:D3:C1:FD:2F:E5":{"sensor":["RAW","RAW"],"device name":"98:D3:C1:FD:2F:E5","column":["nSeq","I1","I2","O1","O2","A2","A5"],"sync interval":2,"time":"16:33:08","comments":"","device connection":"BTH98:D3:C1:FD:2F:E5","channels":[2,5],"date":"2021-09-26","mode":0,"digital IO":[0,0,1,1],"firmware version":0,"device":"bitalino_rev","position":0,"sampling rate":1000,"label":["A2","A5"],"resolution":[10,10],"special":[{},{}]}}
# EndOfHeader
0	0	0	0	0	515	615
1	0	0	0	0	516	615
2	0	0	0	0	518	615
3	0	0	0	0	519	615
4	0	0	0	0	521	614
5	0	0	0	0	523	615
6	0	0	0	0	524	615
7	0	0	0	0	526	615
8	0	0	0	0	526	615
9	0	0	0	0	526	615
10	0	0	0	0	526	615
11	0	0	0	0	524	615
12	0	0	0	0	523	615
13	0	0	0	0	520	615
14	0	0	0	0	519	615
15	0	0	0	0	516	615
0	0	0	0	0	514	616
1	0	0	0	0	513	616
2	0	0	0	0	512	615
3	0	0	0	0	512	616
4	0	0	0	0	512	615
5	0	0	0	0	513	615
6	0	0	0	0	514	615
7	0	0	0	0	515	615
8	0	0	0	0	518	616
9	0	0	0	0	519	615
10	0	0	0	0	521	615
11	0	0	0	0	523	616
12	0	0	0	0	524	616
13	0	0	0	0	524	615
14	0	0	0	0	524	615
15	0	0	0	0	523	615
0	0	0	0	0	520	615
1	0	0	0	0	519	616
2	0	0	0	0	516	615
3	0	0	0	0	514	615
4	0	0	0	0	512	615
5	0	0	0	0	511	615
6	0	0	0	0	510	615
7	0	0	0	0	510	615
8	0	0	0	0	510	615
9	0	0	0	0	511	615
10	0	0	0	0	512	615
11	0	0	0	0	513	615
12	0	0	0	0	516	615
13	0	0	0	0	518	615
14	0	0	0	0	520	615
15	0	0	0	0	521	616
0	0	0	0	0	522	615
1	0	0	0	0	523	616
2	0	0	0	0	522	616
3	0	0	0	0	521	615
4	0	0	0	0	519	615
5	0	0	0	0	518	615
6	0	0	0	0	515	615
7	0	0	0	0	513	615
8	0	0	0	0	512	615
9	0	0	0	0	511	616
10	0	0	0	0	510	615
11	0	0	0	0	510	616
12	0	0	0	0	510	615
13	0	0	0	0	510	615
14	0	0	0	0	511	616
15	0	0	0	0	512	615
0	0	0	0	0	514	615
1	0	0	0	0	515	615
2	0	0	0	0	518	615
3	0	0	0	0	519	616
4	0	0	0	0	519	615
5	0	0	0	0	519	615
6	0	0	0	0	519	615
7	0	0	0	0	518	615
8	0	0	0	0	516	615
9	0	0	0	0	513	615
10	0	0	0	0	512	615
11	0	0	0	0	509	615
12	0	0	0	0	507	615
13	0	0	0	0	505	615
14	0	0	0	0	504	615
15	0	0	0	0	503	615
0	0	0	0	0	503	615
1	0	0	0	0	503	615
2	0	0	0	0	504	615
3	0	0	0	0	505	616
4	0	0	0	0	507	615
5	0	0	0	0	510	615
6	0	0	0	0	511	615
7	0	0	0	0	513	615
8	0	0	0	0	513	615
9	0	0	0	0	514	615
10	0	0	0	0	513	615
11	0	0	0	0	512	616
12	0	0	0	0	511	615
13	0	0	0	0	508	615
14	0	0	0	0	506	615
15	0	0	0	0	504	615
0	0	0	0	0	504	615
1	0	0	0	0	503	616
2	0	0	0	0	502	616
3	0	0	0	0	502	616
4	0	0	0	0	504	615
5	0	0	0	0	505	615
6	0	0	0	0	508	615
7	0	0	0	0	510	615
8	0	0	0	0	511	615
9	0	0	0	0	515	615
10	0	0	0	0	516	615
11	0	0	0	0	519	615
12	0	0	0	0	520	615
13	0	0	0	0	521	615
14	0	0	0	0	521	615
15	0	0	0	0	520	615
0	0	0	0	0	519	615
1	0	0	0	0	518	615
2	0	0	0	0	515	615
3	0	0	0	0	513	615
4	0	0	0	0	511	615
5	0	0	0	0	510	615
6	0	0	0	0	509	615
7	0	0	0	0	509	615
8	0	0	0	0	509	615
9	0	0	0	0	510	615
10	0	0	0	0	511	615
11	0	0	0	0	512	615
12	0	0	0	0	514	616
13	0	0	0	0	516	615
14	0	0	0	0	518	616
15	0	0	0	0	521	616
0	0	0	0	0	521	616
1	0	0	0	0	521	615
2	0	0	0	0	520	615
3	0	0	0	0	519	615
4	0	0	0	0	518	615
5	0	0	0	0	516	616
6	0	0	0	0	514	615
7	0	0	0	0	512	615
8	0	0	0	0	510	616
9	0	0	0	0	508	615
10	0	0	0	0	507	615
11	0	0	0	0	507	616
12	0	0	0	0	508	615
13	0	0	0	0	509	615
14	0	0	0	0	511	616
15	0	0	0	0	512	615
0	0	0	0	0	513	615
1	0	0	0	0	515	615
2	0	0	0	0	517	615
3	0	0	0	0	519	615
4	0	0	0	0	519	615
5	0	0	0	0	520	615
6	0	0	0	0	520	615
7	0	0	0	0	519	615
8	0	0	0	0	518	615
9	0	0	0	0	516	615
10	0	0	0	0	514	615
11	0	0	0	0	512	615
12	0	0	0	0	509	615
13	0	0	0	0	508	615
14	0	0	0	0	507	615
15	0	0	0	0	507	615
0	0	0	0	0	507	615
1	0	0	0	0	508	615
2	0	0	0	0	510	615
3	0	0	0	0	511	616
4	0	0	0	0	512	615
5	0	0	0	0	514	616
6	0	0	0	0	516	615
7	0	0	0	0	518	616
8	0	0	0	0	519	616
9	0	0	0	0	519	615
10	0	0	0	0	519	615
11	0	0	0	0	518	615
12	0	0	0	0	516	615
13	0	0	0	0	514	615
14	0	0	0	0	511	615
15	0	0	0	0	509	615
0	0	0	0	0	507	615
1	0	0	0	0	506	615
2	0	0	0	0	505	615
3	0	0	0	0	505	616
4	0	0	0	0	506	616
5	0	0	0	0	507	615
6	0	0	0	0	508	615
7	0	0	0	0	510	615
8	0	0	0	0	512	615
9	0	0	0	0	514	615
10	0	0	0	0	515	615
11	0	0	0	0	517	615
12	0	0	0	0	518	615
13	0	0	0	0	518	615
14	0	0	0	0	517	615
15	0	0	0	0	515	615
0	0	0	0	0	513	615
1	0	0	0	0	510	615
2	0	0	0	0	507	615
3	0	0	0	0	504	615
4	0	0	0	0	501	615
5	0	0	0	0	497	615
6	0	0	0	0	492	615
7	0	0	0	0	487	615
8	0	0	0	0	481	615
9	0	0	0	0	474	615
10	0	0	0	0	466	616
11	0	0	0	0	457	615
12	0	0	0	0	448	615
13	0	0	0	0	439	615
14	0	0	0	0	430	615
15	0	0	0	0	422	615
0	0	0	0	0	414	615
1	0	0	0	0	407	615
2	0	0	0	0	402	615
3	0	0	0	0	398	615
4	0	0	0	0	396	615
5	0	0	0	0	395	615
6	0	0	0	0	396	615
7	0	0	0	0	399	615
8	0	0	0	0	404	615
9	0	0	0	0	410	615
10	0	0	0	0	418	615
11	0	0	0	0	425	615
12	0	0	0	0	431	615
13	0	0	0	0	438	615
14	0	0	0	0	448	615
15	0	0	0	0	460	615
0	0	0	0	0	480	615
1	0	0	0	0	506	615
2	0	0	0	0	534	615
3	0	0	0	0	567	615
4	0	0	0	0	607	615
5	0	0	0	0	654	615
6	0	0	0	0	703	616
7	0	0	0	0	754	616
8	0	0	0	0	807	616
9	0	0	0	0	857	615
10	0	0	0	0	902	615
11	0	0	0	0	941	615
12	0	0	0	0	972	616
13	0	0	0	0	998	616
14	0	0	0	0	1016	615
15	0	0	0	0	1022	615
0	0	0	0	0	1022	615
1	0	0	0	0	1022	615
2	0	0	0	0	1022	615
3	0	0	0	0	1022	615
4	0	0	0	0	1021	615
5	0	0	0	0	1004	615
6	0	0	0	0	983	616
7	0	0	0	0	958	615
8	0	0	0	0	926	615
9	0	0	0	0	892	615
10	0	0	0	0	855	615
11	0	0	0	0	817	615
12	0	0	0	0	783	615
13	0	0	0	0	752	615
14	0	0	0	0	723	615
15	0	0	0	0	696	615
0	0	0	0	0	672	615
1	0	0	0	0	651	615
2	0	0	0	0	632	615
3	0	0	0	0	615	616
4	0	0	0	0	600	615
5	0	0	0	0	587	615
6	0	0	0	0	573	615
7	0	0	0	0	561	615
8	0	0	0	0	548	615
9	0	0	0	0	536	615
10	0	0	0	0	524	615
11	0	0	0	0	511	615
12	0	0	0	0	499	615
13	0	0	0	0	486	615
14	0	0	0	0	475	615
15	0	0	0	0	463	615
0	0	0	0	0	452	616
1	0	0	0	0	441	615
2	0	0	0	0	430	615
3	0	0	0	0	419	615
4	0	0	0	0	411	615
5	0	0	0	0	405	615
6	0	0	0	0	399	615
7	0	0	0	0	394	615
8	0	0	0	0	391	615
9	0	0	0	0	388	615
10	0	0	0	0	387	615
11	0	0	0	0	388	615
12	0	0	0	0	388	615
13	0	0	0	0	389	615
14	0	0	0	0	389	615
15	0	0	0	0	390	615
0	0	0	0	0	391	615
1	0	0	0	0	390	615
2	0	0	0	0	389	615
3	0	0	0	0	388	615
4	0	0	0	0	386	615
5	0	0	0	0	384	615
6	0	0	0	0	382	615
7	0	0	0	0	380	615
8	0	0	0	0	378	615
9	0	0	0	0	377	615
10	0	0	0	0	377	615
11	0	0	0	0	378	616
12	0	0	0	0	379	615
13	0	0	0	0	381	615
14	0	0	0	0	383	615
15	0	0	0	0	385	615
0	0	0	0	0	389	615
1	0	0	0	0	391	615
2	0	0	0	0	394	615
3	0	0	0	0	397	616
4	0	0	0	0	399	615
5	0	0	0	0	400	615
6	0	0	0	0	401	615
7	0	0	0	0	400	615
8	0	0	0	0	399	615
9	0	0	0	0	398	615
10	0	0	0	0	397	615
11	0	0	0	0	396	616
12	0	0	0	0	395	615
13	0	0	0	0	395	615
14	0	0	0	0	396	615
15	0	0	0	0	397	615
0	0	0	0	0	398	616
1	0	0	0	0	399	615
2	0	0	0	0	402	615
3	0	0	0	0	404	615
4	0	0	0	0	407	615
5	0	0	0	0	410	615
6	0	0	0	0	412	615
7	0	0	0	0	414	615
8	0	0	0	0	416	615
9	0	0	0	0	417	615
10	0	0	0	0	417	615
11	0	0	0	0	417	615
12	0	0	0	0	416	615
13	0	0	0	0	415	615
14	0	0	0	0	414	615
15	0	0	0	0	412	615
0	0	0	0	0	412	615
1	0	0	0	0	411	615
2	0	0	0	0	411	615
3	0	0	0	0	412	615
4	0	0	0	0	413	615
5	0	0	0	0	415	616
6	0	0	0	0	416	615
7	0	0	0	0	419	615
8	0	0	0	0	422	616
9	0	0	0	0	424	615
10	0	0	0	0	427	615
11	0	0	0	0	430	615
12	0	0	0	0	432	615
13	0	0	0	0	433	615
14	0	0	0	0	433	616
15	0	0	0	0	432	615
0	0	0	0	0	430	615
1	0	0	0	0	428	615
2	0	0	0	0	427	615
3	0	0	0	0	425	615
4	0	0	0	0	423	615
5	0	0	0	0	423	615
6	0	0	0	0	423	615
7	0	0	0	0	423	615
8	0	0	0	0	424	615
9	0	0	0	0	425	615
10	0	0	0	0	427	615
11	0	0	0	0	428	615
12	0	0	0	0	430	615
13	0	0	0	0	432	615
14	0	0	0	0	435	615
15	0	0	0	0	437	615
0	0	0	0	0	439	615
1	0	0	0	0	439	615
2	0	0	0	0	440	615
3	0	0	0	0	440	616
4	0	0	0	0	439	616
5	0	0	0	0	436	615
6	0	0	0	0	435	615
7	0	0	0	0	434	615
8	0	0	0	0	432	615
9	0	0	0	0	432	615
10	0	0	0	0	431	615
11	0	0	0	0	431	616
12	0	0	0	0	432	616
13	0	0	0	0	433	615
14	0	0	0	0	434	615
15	0	0	0	0	436	615
0	0	0	0	0	438	615
1	0	0	0	0	441	615
2	0	0	0	0	443	615
3	0	0	0	0	446	616
4	0	0	0	0	447	615
5	0	0	0	0	448	615
6	0	0	0	0	448	615
7	0	0	0	0	448	616
8	0	0	0	0	447	615
9	0	0	0	0	444	615
10	0	0	0	0	444	615
11	0	0	0	0	441	615
12	0	0	0	0	440	615
13	0	0	0	0	439	615
14	0	0	0	0	439	615
15	0	0	0	0	439	615
0	0	0	0	0	440	615
1	0	0	0	0	441	614
2	0	0	0	0	443	615
3	0	0	0	0	445	615
4	0	0	0	0	447	615
5	0	0	0	0	450	615
6	0	0	0	0	452	615
7	0	0	0	0	454	615
8	0	0	0	0	455	616
9	0	0	0	0	455	615
10	0	0	0	0	455	615
11	0	0	0	0	455	616
12	0	0	0	0	454	615
13	0	0	0	0	451	615
14	0	0	0	0	449	615
15	0	0	0	0	448	615
0	0	0	0	0	446	615
1	0	0	0	0	445	615
2	0	0	0	0	444	615
3	0	0	0	0	444	615
4	0	0	0	0	445	615
5	0	0	0	0	447	615
6	0	0	0	0	449	615
7	0	0	0	0	452	615
8	0	0	0	0	455	615
9	0	0	0	0	457	615
10	0	0	0	0	461	615
11	0	0	0	0	464	615
12	0	0	0	0	465	614
13	0	0	0	0	467	614
14	0	0	0	0	467	615
15	0	0	0	0	467	615
0	0	0	0	0	466	615
1	0	0	0	0	465	615
2	0	0	0	0	464	615
3	0	0	0	0	463	615
4	0	0	0	0	463	615
5	0	0	0	0	462	615
6	0	0	0	0	462	615
7	0	0	0	0	463	615
8	0	0	0	0	465	615
9	0	0	0	0	468	615
10	0	0	0	0	470	615
11	0	0	0	0	473	616
12	0	0	0	0	476	616
13	0	0	0	0	480	616
14	0	0	0	0	483	616
15	0	0	0	0	486	616
0	0	0	0	0	487	616
1	0	0	0	0	489	616
2	0	0	0	0	490	616
3	0	0	0	0	489	616
4	0	0	0	0	488	615
5	0	0	0	0	488	616
6	0	0	0	0	487	616
7	0	0	0	0	487	615
8	0	0	0	0	487	616
9	0	0	0	0	487	616
10	0	0	0	0	487	616
11	0	0	0	0	487	615
12	0	0	0	0	488	615
13	0	0	0	0	491	615
14	0	0	0	0	493	615
15	0	0	0	0	496	615
0	0	0	0	0	499	615
1	0	0	0	0	502	615
2	0	0	0	0	505	615
3	0	0	0	0	508	615
4	0	0	0	0	510	615
5	0	0	0	0	510	615
6	0	0	0	0	511	615
7	0	0	0	0	511	614
8	0	0	0	0	510	615
9	0	0	0	0	509	615
10	0	0	0	0	507	615
11	0	0	0	0	506	615
12	0	0	0	0	505	615
13	0	0	0	0	504	615
14	0	0	0	0	504	615
15	0	0	0	0	505	615
0	0	0	0	0	507	615
1	0	0	0	0	510	615
2	0	0	0	0	512	615
3	0	0	0	0	514	615
4	0	0	0	0	518	616
5	0	0	0	0	520	615
6	0	0	0	0	523	615
7	0	0	0	0	525	615
8	0	0	0	0	527	616
9	0	0	0	0	527	615
10	0	0	0	0	526	615
11	0	0	0	0	525	616
12	0	0	0	0	524	615
13	0	0	0	0	522	615
14	0	0	0	0	521	614
15	0	0	0	0	520	615
0	0	0	0	0	518	615
1	0	0	0	0	518	615
2	0	0	0	0	518	615
3	0	0	0	0	519	615
4	0	0	0	0	520	615
5	0	0	0	0	523	615
6	0	0	0	0	525	615
7	0	0	0	0	527	615
8	0	0	0	0	529	615
9	0	0	0	0	532	615
10	0	0	0	0	534	615
11	0	0	0	0	536	615
12	0	0	0	0	538	615
13	0	0	0	0	538	615
14	0	0	0	0	538	615
15	0	0	0	0	537	615
0	0	0	0	0	535	615
1	0	0	0	0	534	615
2	0	0	0	0	531	615
3	0	0	0	0	529	615
4	0	0	0	0	528	615
5	0	0	0	0	527	616
6	0	0	0	0	527	615
7	0	0	0	0	527	615
8	0	0	0	0	528	616
9	0	0	0	0	529	615
10	0	0	0	0	530	616
11	0	0	0	0	532	616
12	0	0	0	0	535	616
13	0	0	0	0	536	616
14	0	0	0	0	538	615
15	0	0	0	0	540	615
0	0	0	0	0	541	615
1	0	0	0	0	541	615
2	0	0	0	0	540	615
3	0	0	0	0	540	615
4	0	0	0	0	538	615
5	0	0	0	0	536	615
6	0	0	0	0	534	615
7	0	0	0	0	532	615
8	0	0	0	0	531	615
9	0	0	0	0	530	615
10	0	0	0	0	529	615
11	0	0	0	0	529	615
12	0	0	0	0	530	615
13	0	0	0	0	531	615
14	0	0	0	0	532	615
15	0	0	0	0	534	615
0	0	0	0	0	535	615
1	0	0	0	0	537	615
2	0	0	0	0	538	615
3	0	0	0	0	540	615
4	0	0	0	0	540	615
5	0	0	0	0	540	615
6	0	0	0	0	540	615
7	0	0	0	0	539	615
8	0	0	0	0	538	615
9	0	0	0	0	536	615
10	0	0	0	0	534	616
11	0	0	0	0	531	616
12	0	0	0	0	529	615
13	0	0	0	0	528	616
14	0	0	0	0	528	616
15	0	0	0	0	527	615
0	0	0	0	0	527	615
1	0	0	0	0	529	616
2	0	0	0	0	530	616
3	0	0	0	0	531	616
4	0	0	0	0	532	615
5	0	0	0	0	534	615
6	0	0	0	0	535	615
7	0	0	0	0	536	615
8	0	0	0	0	536	615
9	0	0	0	0	537	615
10	0	0	0	0	536	615
11	0	0	0	0	535	615
12	0	0	0	0	533	615
13	0	0	0	0	530	614
14	0	0	0	0	527	615
15	0	0	0	0	524	615
0	0	0	0	0	523	614
1	0	0	0	0	522	615
2	0	0	0	0	521	615
3	0	0	0	0	522	615
4	0	0	0	0	523	614
5	0	0	0	0	523	614
6	0	0	0	0	524	614
7	0	0	0	0	525	615
8	0	0	0	0	527	614
9	0	0	0	0	528	615
10	0	0	0	0	530	615
11	0	0	0	0	532	615
12	0	0	0	0	533	615
13	0	0	0	0	533	615
14	0	0	0	0	531	615
15	0	0	0	0	530	615
0	0	0	0	0	527	615
1	0	0	0	0	526	616
2	0	0	0	0	524	616
3	0	0	0	0	521	616
4	0	0	0	0	520	616
5	0	0	0	0	519	615
6	0	0	0	0	519	616
7	0	0	0	0	519	615
8	0	0	0	0	519	616
9	0	0	0	0	520	615
10	0	0	0	0	521	615
11	0	0	0	0	523	616
12	0	0	0	0	525	615
13	0	0	0	0	527	615
14	0	0	0	0	529	615
15	0	0	0	0	532	615
0	0	0	0	0	532	615
1	0	0	0	0	531	615
2	0	0	0	0	531	615
3	0	0	0	0	529	615
4	0	0	0	0	528	615
5	0	0	0	0	526	615
6	0	0	0	0	524	615
7	0	0	0	0	521	615
8	0	0	0	0	519	615
9	0	0	0	0	518	615
10	0	0	0	0	518	615
11	0	0	0	0	517	615
12	0	0	0	0	518	615
13	0	0	0	0	519	615
14	0	0	0	0	520	615
15	0	0	0	0	521	616
0	0	0	0	0	524	616
1	0	0	0	0	526	615
2	0	0	0	0	528	616
3	0	0	0	0	529	616
4	0	0	0	0	530	617
5	0	0	0	0	529	616
6	0	0	0	0	529	616
7	0	0	0	0	527	616
8	0	0	0	0	526	616
9	0	0	0	0	523	616
10	0	0	0	0	521	616
11	0	0	0	0	520	616
12	0	0	0	0	518	616
13	0	0	0	0	517	616
14	0	0	0	0	516	616
15	0	0	0	0	517	615
0	0	0	0	0	518	615
1	0	0	0	0	519	615
2	0	0	0	0	521	615
3	0	0	0	0	522	615
4	0	0	0	0	524	615
5	0	0	0	0	526	615
6	0	0	0	0	527	615
7	0	0	0	0	529	615
8	0	0	0	0	530	615
9	0	0	0	0	530	615
10	0	0	0	0	529	614
11	0	0	0	0	528	615
12	0	0	0	0	527	615
13	0	0	0	0	525	615
14	0	0	0	0	523	615
15	0	0	0	0	521	615
0	0	0	0	0	519	615
1	0	0	0	0	519	615
2	0	0	0	0	518	615
3	0	0	0	0	518	615
4	0	0	0	0	518	615
5	0	0	0	0	519	615
6	0	0	0	0	521	616
7	0	0	0	0	523	615
8	0	0	0	0	524	616
9	0	0	0	0	527	616
10	0	0	0	0	529	616
11	0	0	0	0	530	616
12	0	0	0	0	531	616
13	0	0	0	0	531	616
14	0	0	0	0	531	616
15	0	0	0	0	530	616
0	0	0	0	0	528	616
1	0	0	0	0	526	616
2	0	0	0	0	523	616
3	0	0	0	0	521	615
4	0	0	0	0	519	615
5	0	0	0	0	518	616
6	0	0	0	0	518	615
7	0	0	0	0	518	615
8	0	0	0	0	518	615
9	0	0	0	0	519	615
10	0	0	0	0	520	615
11	0	0	0	0	522	615
12	0	0	0	0	524	615
13	0	0	0	0	527	615
14	0	0	0	0	529	615
15	0	0	0	0	531	615
0	0	0	0	0	531	615
1	0	0	0	0	531	615
2	0	0	0	0	531	615
3	0	0	0	0	529	614
4	0	0	0	0	527	615
5	0	0	0	0	525	615
6	0	0	0	0	522	615
7	0	0	0	0	519	615
8	0	0	0	0	518	615
9	0	0	0	0	517	615
10	0	0	0	0	515	615
11	0	0	0	0	515	615
12	0	0	0	0	515	616
13	0	0	0	0	516	616
14	0	0	0	0	517	616
15	0	0	0	0	519	615
0	0	0	0	0	521	616
1	0	0	0	0	522	616
2	0	0	0	0	524	616
3	0	0	0	0	527	617
4	0	0	0	0	529	617
5	0	0	0	0	529	616
6	0	0	0	0	528	616
7	0	0	0	0	527	616
8	0	0	0	0	525	616
9	0	0	0	0	523	616
10	0	0	0	0	520	615
11	0	0	0	0	518	616
12	0	0	0	0	515	615
13	0	0	0	0	514	615
14	0	0	0	0	513	615
15	0	0	0	0	513	615
0	0	0	0	0	513	614
1	0	0	0	0	513	615
2	0	0	0	0	515	614
3	0	0	0	0	516	615
4	0	0	0	0	519	615
5	0	0	0	0	521	614
6	0	0	0	0	523	614
7	0	0	0	0	525	615
8	0	0	0	0	525	614
9	0	0	0	0	526	615
10	0	0	0	0	525	615
11	0	0	0	0	524	615
12	0	0	0	0	522	615
13	0	0	0	0	520	615
14	0	0	0	0	518	615
15	0	0	0	0	515	616
0	0	0	0	0	513	615
1	0	0	0	0	512	616
2	0	0	0	0	511	616
3	0	0	0	0	511	616
4	0	0	0	0	512	616
5	0	0	0	0	512	616
6	0	0	0	0	515	616
7	0	0	0	0	516	616
8	0	0	0	0	517	616
9	0	0	0	0	519	616
10	0	0	0	0	521	615
11	0	0	0	0	523	616
12	0	0	0	0	524	616
13	0	0	0	0	524	616
14	0	0	0	0	523	615
15	0	0	0	0	522	615
0	0	0	0	0	520	615
1	0	0	0	0	518	615
2	0	0	0	0	515	615
3	0	0	0	0	513	615
4	0	0	0	0	512	615
5	0	0	0	0	511	615
6	0	0	0	0	510	615
7	0	0	0	0	509	615
8	0	0	0	0	509	614
9	0	0	0	0	510	615
10	0	0	0	0	511	614
11	0	0	0	0	512	615
12	0	0	0	0	514	615
13	0	0	0	0	515	615
14	0	0	0	0	517	615
15	0	0	0	0	519	615
0	0	0	0	0	520	615
1	0	0	0	0	519	615
2	0	0	0	0	519	615
3	0	0	0	0	518	615
4	0	0	0	0	516	615
5	0	0	0	0	514	615
6	0	0	0	0	512	615
7	0	0	0	0	510	615
8	0	0	0	0	508	616
9	0	0	0	0	507	616
10	0	0	0	0	506	616
11	0	0	0	0	505	616
12	0	0	0	0	504	616
13	0	0	0	0	504	616
14	0	0	0	0	505	616
15	0	0	0	0	506	616
0	0	0	0	0	508	616
1	0	0	0	0	511	615
2	0	0	0	0	512	615
3	0	0	0	0	514	615
4	0	0	0	0	515	616
5	0	0	0	0	515	615
6	0	0	0	0	514	616
7	0	0	0	0	513	616
8	0	0	0	0	511	615
9	0	0	0	0	508	615
10	0	0	0	0	505	615
11	0	0	0	0	503	615
12	0	0	0	0	502	615
13	0	0	0	0	501	615
14	0	0	0	0	500	614
15	0	0	0	0	501	615
0	0	0	0	0	501	615
1	0	0	0	0	502	615
2	0	0	0	0	504	615
3	0	0	0	0	505	615
4	0	0	0	0	508	615
5	0	0	0	0	511	615
6	0	0	0	0	512	615
7	0	0	0	0	515	615
8	0	0	0	0	515	615
9	0	0	0	0	516	616
10	0	0	0	0	516	616
11	0	0	0	0	515	616
12	0	0	0	0	513	616
13	0	0	0	0	512	615
14	0	0	0	0	511	616
15	0	0	0	0	510	616
0	0	0	0	0	509	616
1	0	0	0	0	508	616
2	0	0	0	0	508	616
3	0	0	0	0	508	616
4	0	0	0	0	509	616
5	0	0	0	0	511	615
6	0	0	0	0	512	616
7	0	0	0	0	515	616
8	0	0	0	0	517	616
9	0	0	0	0	519	616
10	0	0	0	0	522	615
11	0	0	0	0	523	615
12	0	0	0	0	524	615
13	0	0	0	0	524	615
14	0	0	0	0	523	615
15	0	0	0	0	521	615
0	0	0	0	0	519	615
1	0	0	0	0	516	614
2	0	0	0	0	514	615
3	0	0	0	0	511	614
4	0	0	0	0	510	615
5	0	0	0	0	509	615
6	0	0	0	0	508	614
7	0	0	0	0	508	614
8	0	0	0	0	509	615
9	0	0	0	0	510	615
10	0	0	0	0	512	615
11	0	0	0	0	513	615
12	0	0	0	0	516	615
13	0	0	0	0	518	615
14	0	0	0	0	519	615
15	0	0	0	0	521	615
0	0	0	0	0	522	615
1	0	0	0	0	521	616
2	0	0	0	0	521	615
3	0	0	0	0	519	616
4	0	0	0	0	517	616
5	0	0	0	0	515	616
6	0	0	0	0	512	616
7	0	0	0	0	511	616
8	0	0	0	0	509	616
9	0	0	0	0	507	616
10	0	0	0	0	506	616
11	0	0	0	0	507	617
12	0	0	0	0	506	616
13	0	0	0	0	507	616
14	0	0	0	0	508	615
15	0	0	0	0	511	615
0	0	0	0	0	513	615
1	0	0	0	0	515	615
2	0	0	0	0	516	615
3	0	0	0	0	518	615
4	0	0	0	0	519	615
5	0	0	0	0	519	615
6	0	0	0	0	519	615
7	0	0	0	0	519	615
8	0	0	0	0	517	615
9	0	0	0	0	515	615
10	0	0	0	0	512	615
11	0	0	0	0	510	615
12	0	0	0	0	508	614
13	0	0	0	0	507	615
14	0	0	0	0	507	615
15	0	0	0	0	507	615
0	0	0	0	0	507	615
1	0	0	0	0	508	615
2	0	0	0	0	510	615
3	0	0	0	0	512	615
4	0	0	0	0	513	616
5	0	0	0	0	515	616
6	0	0	0	0	516	616
7	0	0	0	0	518	616
8	0	0	0	0	518	616
9	0	0	0	0	518	616
10	0	0	0	0	516	616
11	0	0	0	0	515	616
12	0	0	0	0	514	616
13	0	0	0	0	512	616
14	0	0	0	0	511	616
15	0	0	0	0	508	616
0	0	0	0	0	507	616
1	0	0	0	0	505	616
2	0	0	0	0	504	615
3	0	0	0	0	504	615
4	0	0	0	0	504	615
5	0	0	0	0	504	615
6	0	0	0	0	506	615
7	0	0	0	0	507	615
8	0	0	0	0	508	615
9	0	0	0	0	509	615
10	0	0	0	0	509	615
11	0	0	0	0	509	615
12	0	0	0	0	507	615
13	0	0	0	0	504	615
14	0	0	0	0	498	615
15	0	0	0	0	490	615
0	0	0	0	0	480	615
1	0	0	0	0	467	615
2	0	0	0	0	454	615
3	0	0	0	0	441	615
4	0	0	0	0	428	615
5	0	0	0	0	417	615
6	0	0	0	0	407	615
7	0	0	0	0	397	615
8	0	0	0	0	390	616
9	0	0	0	0	386	616
10	0	0	0	0	385	616
11	0	0	0	0	387	616
12	0	0	0	0	390	615
13	0	0	0	0	396	616
14	0	0	0	0	402	616
15	0	0	0	0	411	616
0	0	0	0	0	421	616
1	0	0	0	0	430	615
2	0	0	0	0	437	615
3	0	0	0	0	443	615
4	0	0	0	0	448	615
5	0	0	0	0	452	615
6	0	0	0	0	457	615
7	0	0	0	0	471	615
8	0	0	0	0	491	615
9	0	0	0	0	515	615
10	0	0	0	0	542	615
11	0	0	0	0	575	615
12	0	0	0	0	617	614
13	0	0	0	0	665	614
14	0	0	0	0	717	615
15	0	0	0	0	772	615
0	0	0	0	0	825	614
1	0	0	0	0	873	615
2	0	0	0	0	917	614
3	0	0	0	0	955	615
4	0	0	0	0	985	615
5	0	0	0	0	1006	615
6	0	0	0	0	1017	615
7	0	0	0	0	1021	615
8	0	0	0	0	1021	615
9	0	0	0	0	1017	615
10	0	0	0	0	1004	615
11	0	0	0	0	986	616
12	0	0	0	0	964	615
13	0	0	0	0	940	615
14	0	0	0	0	912	615
15	0	0	0	0	881	615
0	0	0	0	0	846	615
1	0	0	0	0	812	615
2	0	0	0	0	780	615
3	0	0	0	0	750	615
4	0	0	0	0	723	615
5	0	0	0	0	700	615
6	0	0	0	0	679	615
7	0	0	0	0	661	615
8	0	0	0	0	645	615
9	0	0	0	0	630	615
10	0	0	0	0	616	615
11	0	0	0	0	603	615
12	0	0	0	0	589	615
13	0	0	0	0	574	615
14	0	0	0	0	559	615
15	0	0	0	0	546	615
0	0	0	0	0	532	615
1	0	0	0	0	519	615
2	0	0	0	0	507	615
3	0	0	0	0	496	615
4	0	0	0	0	484	615
5	0	0	0	0	474	615
6	0	0	0	0	466	615
7	0	0	0	0	459	614
8	0	0	0	0	453	615
9	0	0	0	0	448	615
10	0	0	0	0	443	615
11	0	0	0	0	439	615
12	0	0	0	0	433	615
13	0	0	0	0	428	615
14	0	0	0	0	423	615
15	0	0	0	0	417	615
0	0	0	0	0	412	615
1	0	0	0	0	407	615
2	0	0	0	0	402	615
3	0	0	0	0	397	615
4	0	0	0	0	393	615
5	0	0	0	0	390	615
6	0	0	0	0	387	615
7	0	0	0	0	386	615
8	0	0	0	0	386	615
9	0	0	0	0	387	616
10	0	0	0	0	389	616
11	0	0	0	0	391	616
12	0	0	0	0	393	615
13	0	0	0	0	396	615
14	0	0	0	0	398	615
15	0	0	0	0	399	615
0	0	0	0	0	401	615
1	0	0	0	0	401	615
2	0	0	0	0	401	615
3	0	0	0	0	400	615
4	0	0	0	0	399	616
5	0	0	0	0	398	615
6	0	0	0	0	396	615
7	0	0	0	0	395	615
8	0	0	0	0	394	615
9	0	0	0	0	393	615
10	0	0	0	0	393	615
11	0	0	0	0	394	615
12	0	0	0	0	396	615
13	0	0	0	0	398	615
14	0	0	0	0	400	615
15	0	0	0	0	403	615
0	0	0	0	0	407	615
1	0	0	0	0	409	615
2	0	0	0	0	412	615
3	0	0	0	0	415	616
4	0	0	0	0	417	615
5	0	0	0	0	418	615
6	0	0	0	0	418	615
7	0	0	0	0	418	615
8	0	0	0	0	417	616
9	0	0	0	0	415	616
10	0	0	0	0	414	615
11	0	0	0	0	412	616
12	0	0	0	0	412	615
13	0	0	0	0	411	616
14	0	0	0	0	411	615
15	0	0	0	0	412	616
0	0	0	0	0	414	615
1	0	0	0	0	415	616
2	0	0	0	0	417	616
3	0	0	0	0	420	616
4	0	0	0	0	423	615
5	0	0	0	0	425	615
6	0	0	0	0	428	615
7	0	0	0	0	430	615
8	0	0	0	0	432	615
9	0	0	0	0	432	615
10	0	0	0	0	433	615
11	0	0	0	0	432	615
12	0	0	0	0	431	615
13	0	0	0	0	430	615
14	0	0	0	0	428	615
15	0	0	0	0	427	615
0	0	0	0	0	425	615
1	0	0	0	0	425	616
2	0	0	0	0	425	615
3	0	0	0	0	425	616
4	0	0	0	0	426	615
5	0	0	0	0	428	615
6	0	0	0	0	430	616
7	0	0	0	0	432	615
8	0	0	0	0	435	615
9	0	0	0	0	438	615
10	0	0	0	0	440	615
11	0	0	0	0	443	615
12	0	0	0	0	445	615
13	0	0	0	0	445	615
14	0	0	0	0	445	616
15	0	0	0	0	444	616
0	0	0	0	0	443	616
1	0	0	0	0	441	616
2	0	0	0	0	439	615
3	0	0	0	0	437	615
4	0	0	0	0	436	615
5	0	0	0	0	436	615
6	0	0	0	0	436	615
7	0	0	0	0	437	615
8	0	0	0	0	438	615
9	0	0	0	0	440	615
10	0	0	0	0	441	615
11	0	0	0	0	443	615
12	0	0	0	0	446	615
13	0	0	0	0	448	615
14	0	0	0	0	450	615
15	0	0	0	0	452	615
0	0	0	0	0	453	615
1	0	0	0	0	453	615
2	0	0	0	0	452	615
3	0	0	0	0	451	615
4	0	0	0	0	450	615
5	0	0	0	0	449	615
6	0	0	0	0	448	615
7	0	0	0	0	446	615
8	0	0	0	0	445	615
9	0	0	0	0	444	615
10	0	0	0	0	444	615
11	0	0	0	0	444	615
12	0	0	0	0	445	616
13	0	0	0	0	446	615
14	0	0	0	0	448	615
15	0	0	0	0	450	616
0	0	0	0	0	452	616
1	0	0	0	0	454	615
2	0	0	0	0	456	615
3	0	0	0	0	459	615
4	0	0	0	0	460	615
5	0	0	0	0	460	615
6	0	0	0	0	460	615
7	0	0	0	0	459	615
8	0	0	0	0	457	615
9	0	0	0	0	455	616
10	0	0	0	0	453	615
11	0	0	0	0	451	616
12	0	0	0	0	450	615
13	0	0	0	0	448	616
14	0	0	0	0	448	615
15	0	0	0	0	448	615
0	0	0	0	0	449	616
1	0	0	0	0	451	616
2	0	0	0	0	452	616
3	0	0	0	0	455	615
4	0	0	0	0	457	615
5	0	0	0	0	460	615
6	0	0	0	0	462	615
7	0	0	0	0	465	615
8	0	0	0	0	466	615
9	0	0	0	0	467	615
10	0	0	0	0	467	615
11	0	0	0	0	467	615
12	0	0	0	0	466	615
13	0	0	0	0	464	615
14	0	0	0	0	463	615
15	0	0	0	0	462	615
0	0	0	0	0	461	615
1	0	0	0	0	460	615
2	0	0	0	0	461	615
3	0	0	0	0	462	615
4	0	0	0	0	464	615
5	0	0	0	0	465	615
6	0	0	0	0	467	615
7	0	0	0	0	470	615
8	0	0	0	0	472	616
9	0	0	0	0	475	615
10	0	0	0	0	478	615
11	0	0	0	0	480	616
12	0	0	0	0	483	615
13	0	0	0	0	484	615
14	0	0	0	0	485	615
15	0	0	0	0	485	615
0	0	0	0	0	486	615
1	0	0	0	0	484	616
2	0	0	0	0	483	615
3	0	0	0	0	482	616
4	0	0	0	0	481	616
5	0	0	0	0	481	615
6	0	0	0	0	482	615
7	0	0	0	0	483	615
8	0	0	0	0	484	615
9	0	0	0	0	486	615
10	0	0	0	0	488	615
11	0	0	0	0	492	615
12	0	0	0	0	495	615
13	0	0	0	0	499	615
14	0	0	0	0	502	615
15	0	0	0	0	505	615
0	0	0	0	0	506	615
1	0	0	0	0	507	615
2	0	0	0	0	507	615
3	0	0	0	0	506	615
4	0	0	0	0	505	615
5	0	0	0	0	504	615
6	0	0	0	0	503	615
7	0	0	0	0	502	615
8	0	0	0	0	502	615
9	0	0	0	0	502	615
10	0	0	0	0	502	615
11	0	0	0	0	503	615
12	0	0	0	0	504	615
13	0	0	0	0	507	615
14	0	0	0	0	509	616
15	0	0	0	0	512	615
0	0	0	0	0	514	615
1	0	0	0	0	517	615
2	0	0	0	0	519	615
3	0	0	0	0	521	615
4	0	0	0	0	523	615
5	0	0	0	0	523	615
6	0	0	0	0	524	615
7	0	0	0	0	524	616
8	0	0	0	0	523	615
9	0	0	0	0	521	615
10	0	0	0	0	519	615
11	0	0	0	0	518	616
12	0	0	0	0	516	615
13	0	0	0	0	515	615
14	0	0	0	0	515	615
15	0	0	0	0	516	615
0	0	0	0	0	516	616
1	0	0	0	0	518	615
2	0	0	0	0	519	615
3	0	0	0	0	520	615
4	0	0	0	0	522	615
5	0	0	0	0	525	615
6	0	0	0	0	527	615
7	0	0	0	0	529	615
8	0	0	0	0	530	615
9	0	0	0	0	530	615
10	0	0	0	0	530	615
11	0	0	0	0	529	615
12	0	0	0	0	528	615
13	0	0	0	0	525	615
14	0	0	0	0	524	615
15	0	0	0	0	522	615
0	0	0	0	0	521	615
1	0	0	0	0	521	615
2	0	0	0	0	520	615
3	0	0	0	0	521	615
4	0	0	0	0	521	615
5	0	0	0	0	523	615
6	0	0	0	0	525	615
7	0	0	0	0	526	615
8	0	0	0	0	528	615
9	0	0	0	0	530	615
10	0	0	0	0	532	615
11	0	0	0	0	534	616
12	0	0	0	0	534	616
13	0	0	0	0	534	616
14	0	0	0	0	534	615
15	0	0	0	0	533	616
0	0	0	0	0	531	616
1	0	0	0	0	529	615
2	0	0	0	0	527	615
3	0	0	0	0	524	616
4	0	0	0	0	523	615
5	0	0	0	0	522	616
6	0	0	0	0	521	615
7	0	0	0	0	521	616
8	0	0	0	0	523	615
9	0	0	0	0	524	616
10	0	0	0	0	526	615
11	0	0	0	0	528	615
12	0	0	0	0	529	615
13	0	0	0	0	531	615
14	0	0	0	0	533	615
15	0	0	0	0	534	616
0	0	0	0	0	535	616
1	0	0	0	0	536	616
2	0	0	0	0	535	615
3	0	0	0	0	534	616
4	0	0	0	0	531	615
5	0	0	0	0	529	615
6	0	0	0	0	527	615
7	0	0	0	0	524	615
8	0	0	0	0	523	615
9	0	0	0	0	521	615
10	0	0	0	0	521	615
11	0	0	0	0	521	615
12	0	0	0	0	521	615
13	0	0	0	0	521	615
14	0	0	0	0	522	615
15	0	0	0	0	523	615
0	0	0	0	0	525	615
1	0	0	0	0	527	615
2	0	0	0	0	528	615
3	0	0	0	0	530	616
4	0	0	0	0	531	615
5	0	0	0	0	531	616
6	0	0	0	0	531	615
7	0	0	0	0	529	615
8	0	0	0	0	528	615
9	0	0	0	0	525	615
10	0	0	0	0	522	615
11	0	0	0	0	519	615
12	0	0	0	0	517	615
13	0	0	0	0	515	615
14	0	0	0	0	514	615
15	0	0	0	0	513	615
0	0	0	0	0	513	615
1	0	0	0	0	515	615
2	0	0	0	0	516	615
3	0	0	0	0	518	616
4	0	0	0	0	520	615
5	0	0	0	0	522	615
6	0	0	0	0	524	615
7	0	0	0	0	527	615
8	0	0	0	0	527	615
9	0	0	0	0	527	615
10	0	0	0	0	527	615
11	0	0	0	0	525	615
12	0	0	0	0	523	615
13	0	0	0	0	521	615
14	0	0	0	0	520	615
15	0	0	0	0	518	616
0	0	0	0	0	516	615
1	0	0	0	0	516	615
2	0	0	0	0	515	615
3	0	0	0	0	515	615
4	0	0	0	0	515	615
5	0	0	0	0	517	615
6	0	0	0	0	519	615
7	0	0	0	0	520	615
8	0	0	0	0	522	615
9	0	0	0	0	524	615
10	0	0	0	0	525	615
11	0	0	0	0	527	616
12	0	0	0	0	527	615
13	0	0	0	0	527	616
14	0	0	0	0	526	615
15	0	0	0	0	525	615
0	0	0	0	0	523	615
1	0	0	0	0	521	615
2	0	0	0	0	519	615
3	0	0	0	0	517	615
4	0	0	0	0	515	615
5	0	0	0	0	515	615
6	0	0	0	0	514	615
7	0	0	0	0	514	615
8	0	0	0	0	515	615
9	0	0	0	0	516	615
10	0	0	0	0	517	615
11	0	0	0	0	519	615
12	0	0	0	0	521	615
13	0	0	0	0	522	614
14	0	0	0	0	524	615
15	0	0	0	0	525	615
0	0	0	0	0	526	615
1	0	0	0	0	526	615
2	0	0	0	0	526	615
3	0	0	0	0	525	615
4	0	0	0	0	523	615
5	0	0	0	0	521	615
6	0	0	0	0	519	615
7	0	0	0	0	518	615
8	0	0	0	0	516	615
9	0	0	0	0	515	615
10	0	0	0	0	513	615
11	0	0	0	0	513	615
12	0	0	0	0	513	615
13	0	0	0	0	515	615
14	0	0	0	0	515	615
15	0	0	0	0	517	615
0	0	0	0	0	519	615
1	0	0	0	0	521	615
2	0	0	0	0	523	615
3	0	0	0	0	525	615
4	0	0	0	0	526	615
5	0	0	0	0	527	616
6	0	0	0	0	527	616
7	0	0	0	0	526	615
8	0	0	0	0	524	616
9	0	0	0	0	521	616
10	0	0	0	0	519	615
11	0	0	0	0	517	615
12	0	0	0	0	515	615
13	0	0	0	0	514	616
14	0	0	0	0	514	615
15	0	0	0	0	515	616
0	0	0	0	0	515	615
1	0	0	0	0	516	615
2	0	0	0	0	518	615
3	0	0	0	0	519	616
4	0	0	0	0	522	615
5	0	0	0	0	523	615
6	0	0	0	0	525	616
7	0	0	0	0	527	615
8	0	0	0	0	527	616
9	0	0	0	0	527	615
10	0	0	0	0	527	616
11	0	0	0	0	526	616
12	0	0	0	0	525	615
13	0	0	0	0	523	616
14	0	0	0	0	520	615
15	0	0	0	0	518	615
0	0	0	0	0	516	615
1	0	0	0	0	515	616
2	0	0	0	0	515	615
3	0	0	0	0	515	616
4	0	0	0	0	515	615
5	0	0	0	0	516	615
6	0	0	0	0	519	615
7	0	0	0	0	520	615
8	0	0	0	0	523	615
9	0	0	0	0	524	615
10	0	0	0	0	527	615
11	0	0	0	0	528	615
12	0	0	0	0	529	615
13	0	0	0	0	529	615
14	0	0	0	0	529	615
15	0	0	0	0	527	615
0	0	0	0	0	526	615
1	0	0	0	0	524	615
2	0	0	0	0	522	615
3	0	0	0	0	519	616
4	0	0	0	0	518	615
5	0	0	0	0	516	615
6	0	0	0	0	516	615
7	0	0	0	0	516	616
8	0	0	0	0	517	616
9	0	0	0	0	519	616
10	0	0	0	0	521	616
11	0	0	0	0	522	616
12	0	0	0	0	524	616
13	0	0	0	0	526	616
14	0	0	0	0	527	616
15	0	0	0	0	529	616
0	0	0	0	0	529	615
1	0	0	0	0	529	616
2	0	0	0	0	528	615
3	0	0	0	0	527	615
4	0	0	0	0	525	615
5	0	0	0	0	523	615
6	0	0	0	0	520	615
7	0	0	0	0	518	615
8	0	0	0	0	515	615
9	0	0	0	0	515	615
10	0	0	0	0	514	615
11	0	0	0	0	514	615
12	0	0	0	0	514	615
13	0	0	0	0	515	615
14	0	0	0	0	516	615
15	0	0	0	0	518	615
0	0	0	0	0	519	615
1	0	0	0	0	521	615
2	0	0	0	0	523	615
3	0	0	0	0	525	615
4	0	0	0	0	526	615
5	0	0	0	0	526	615
6	0	0	0	0	526	615
7	0	0	0	0	525	615
8	0	0	0	0	523	616
9	0	0	0	0	520	615
10	0	0	0	0	517	616
11	0	0	0	0	515	616
12	0	0	0	0	514	616
13	0	0	0	0	513	617
14	0	0	0	0	512	616
15	0	0	0	0	512	616
0	0	0	0	0	512	616
1	0	0	0	0	513	615
2	0	0	0	0	515	616
3	0	0	0	0	517	617
4	0	0	0	0	519	616
5	0	0	0	0	520	616
6	0	0	0	0	521	616
7	0	0	0	0	523	616
8	0	0	0	0	523	616
9	0	0	0	0	524	615
10	0	0	0	0	524	615
11	0	0	0	0	523	616
12	0	0	0	0	521	615
13	0	0	0	0	519	615
14	0	0	0	0	516	615
15	0	0	0	0	514	615
0	0	0	0	0	512	615
1	0	0	0	0	511	615
2	0	0	0	0	510	615
3	0	0	0	0	510	615
4	0	0	0	0	511	614
5	0	0	0	0	512	615
6	0	0	0	0	513	615
7	0	0	0	0	515	615
8	0	0	0	0	516	615
9	0	0	0	0	518	615
10	0	0	0	0	520	615
11	0	0	0	0	522	615
12	0	0	0	0	523	615
13	0	0	0	0	524	615
14	0	0	0	0	524	615
15	0	0	0	0	523	615
0	0	0	0	0	521	616
1	0	0	0	0	519	616
2	0	0	0	0	517	616
3	0	0	0	0	514	616
4	0	0	0	0	512	616
5	0	0	0	0	511	616
6	0	0	0	0	509	617
7	0	0	0	0	509	616
8	0	0	0	0	510	615
9	0	0	0	0	510	616
10	0	0	0	0	511	616
11	0	0	0	0	512	616
12	0	0	0	0	513	616
13	0	0	0	0	514	615
14	0	0	0	0	516	615
15	0	0	0	0	518	615
0	0	0	0	0	519	616
1	0	0	0	0	519	615
2	0	0	0	0	518	615
3	0	0	0	0	517	616
4	0	0	0	0	515	615
5	0	0	0	0	512	615
6	0	0	0	0	509	615
7	0	0	0	0	507	615
8	0	0	0	0	504	615
9	0	0	0	0	503	615
10	0	0	0	0	503	615
11	0	0	0	0	502	615
12	0	0	0	0	502	615
13	0	0	0	0	502	615
14	0	0	0	0	504	615
15	0	0	0	0	505	615
0	0	0	0	0	507	615
1	0	0	0	0	510	615
2	0	0	0	0	511	615
3	0	0	0	0	512	615
4	0	0	0	0	512	615
5	0	0	0	0	512	615
6	0	0	0	0	512	616
7	0	0	0	0	511	615
8	0	0	0	0	510	616
9	0	0	0	0	508	615
10	0	0	0	0	506	615
11	0	0	0	0	504	616
12	0	0	0	0	503	616
13	0	0	0	0	502	616
14	0	0	0	0	502	616
15	0	0	0	0	502	616
0	0	0	0	0	503	616
1	0	0	0	0	505	616
2	0	0	0	0	508	616
3	0	0	0	0	510	616
4	0	0	0	0	513	615
5	0	0	0	0	516	615
6	0	0	0	0	518	615
7	0	0	0	0	520	615
8	0	0	0	0	522	615
9	0	0	0	0	523	615
10	0	0	0	0	523	615
11	0	0	0	0	521	615
12	0	0	0	0	519	615
13	0	0	0	0	517	615
14	0	0	0	0	514	615
15	0	0	0	0	512	615
0	0	0	0	0	510	615
1	0	0	0	0	508	615
2	0	0	0	0	507	615
3	0	0	0	0	506	616
4	0	0	0	0	507	615
5	0	0	0	0	509	615
6	0	0	0	0	511	616
7	0	0	0	0	512	616
8	0	0	0	0	514	616
9	0	0	0	0	516	616
10	0	0	0	0	518	616
11	0	0	0	0	519	616
12	0	0	0	0	521	616
13	0	0	0	0	521	615
14	0	0	0	0	520	615
15	0	0	0	0	519	616
0	0	0	0	0	516	615
1	0	0	0	0	514	616
2	0	0	0	0	512	616
3	0	0	0	0	510	616
4	0	0	0	0	508	616
5	0	0	0	0	507	616
6	0	0	0	0	506	616
7	0	0	0	0	505	615
8	0	0	0	0	506	616
9	0	0	0	0	507	615
10	0	0	0	0	509	615
11	0	0	0	0	511	615
12	0	0	0	0	513	615
13	0	0	0	0	516	615
14	0	0	0	0	518	615
15	0	0	0	0	520	615
0	0	0	0	0	521	615
1	0	0	0	0	521	615
2	0	0	0	0	521	615
3	0	0	0	0	520	615
4	0	0	0	0	518	615
5	0	0	0	0	516	615
6	0	0	0	0	513	615
7	0	0	0	0	511	615
8	0	0	0	0	509	615
9	0	0	0	0	508	615
10	0	0	0	0	507	615
11	0	0	0	0	507	615
12	0	0	0	0	507	615
13	0	0	0	0	508	615
14	0	0	0	0	510	615
15	0	0	0	0	511	615
0	0	0	0	0	513	615
1	0	0	0	0	515	615
2	0	0	0	0	518	616
3	0	0	0	0	519	617
4	0	0	0	0	520	616
5	0	0	0	0	521	616
6	0	0	0	0	520	616
7	0	0	0	0	519	616
8	0	0	0	0	517	616
9	0	0	0	0	515	616
10	0	0	0	0	513	616
11	0	0	0	0	511	616
12	0	0	0	0	509	616
13	0	0	0	0	508	616
14	0	0	0	0	507	615
15	0	0	0	0	506	616
0	0	0	0	0	507	616
1	0	0	0	0	508	615
2	0	0	0	0	510	616
3	0	0	0	0	511	616
4	0	0	0	0	512	615
5	0	0	0	0	514	615
6	0	0	0	0	516	615
7	0	0	0	0	516	615
8	0	0	0	0	516	615
9	0	0	0	0	515	615
10	0	0	0	0	514	615
11	0	0	0	0	512	615
12	0	0	0	0	508	615
13	0	0	0	0	503	615
14	0	0	0	0	498	615
15	0	0	0	0	491	615
0	0	0	0	0	483	615
1	0	0	0	0	475	615
2	0	0	0	0	465	615
3	0	0	0	0	455	615
4	0	0	0	0	444	615
5	0	0	0	0	434	615
6	0	0	0	0	425	615
7	0	0	0	0	418	616
8	0	0	0	0	412	616
9	0	0	0	0	407	616
10	0	0	0	0	403	615
11	0	0	0	0	402	616
12	0	0	0	0	401	616
13	0	0	0	0	401	616
14	0	0	0	0	403	615
15	0	0	0	0	406	615
0	0	0	0	0	410	615
1	0	0	0	0	415	615
2	0	0	0	0	422	615
3	0	0	0	0	427	616
4	0	0	0	0	432	615
5	0	0	0	0	436	615
6	0	0	0	0	443	615
7	0	0	0	0	454	615
8	0	0	0	0	471	615
9	0	0	0	0	495	615
10	0	0	0	0	521	615
11	0	0	0	0	553	616
12	0	0	0	0	593	615
13	0	0	0	0	641	615
14	0	0	0	0	691	615
15	0	0	0	0	746	615
0	0	0	0	0	803	615
1	0	0	0	0	856	615
2	0	0	0	0	904	615
3	0	0	0	0	945	615
4	0	0	0	0	978	615
5	0	0	0	0	1004	615
6	0	0	0	0	1020	615
7	0	0	0	0	1022	616
8	0	0	0	0	1022	616
9	0	0	0	0	1022	616
10	0	0	0	0	1022	616
11	0	0	0	0	1022	617
12	0	0	0	0	1012	616
13	0	0	0	0	994	615
14	0	0	0	0	974	616
15	0	0	0	0	949	616
0	0	0	0	0	921	616
1	0	0	0	0	889	616
2	0	0	0	0	854	616
3	0	0	0	0	820	616
4	0	0	0	0	789	615
5	0	0	0	0	760	615
6	0	0	0	0	733	615
7	0	0	0	0	706	615
8	0	0	0	0	682	615
9	0	0	0	0	659	615
10	0	0	0	0	639	615
11	0	0	0	0	620	615
12	0	0	0	0	604	615
13	0	0	0	0	588	615
14	0	0	0	0	572	615
15	0	0	0	0	558	615
0	0	0	0	0	544	615
1	0	0	0	0	531	615
2	0	0	0	0	519	615
3	0	0	0	0	508	615
4	0	0	0	0	496	615
5	0	0	0	0	485	615
6	0	0	0	0	476	615
7	0	0	0	0	466	615
8	0	0	0	0	457	615
9	0	0	0	0	448	615
10	0	0	0	0	439	615
11	0	0	0	0	430	616
12	0	0	0	0	422	615
13	0	0	0	0	414	615
14	0	0	0	0	406	615
15	0	0	0	0	400	615
0	0	0	0	0	395	615
1	0	0	0	0	390	615
2	0	0	0	0	387	616
3	0	0	0	0	385	616
4	0	0	0	0	383	615
5	0	0	0	0	382	615
6	0	0	0	0	382	615
7	0	0	0	0	383	615
8	0	0	0	0	384	615
9	0	0	0	0	386	615
10	0	0	0	0	387	615
11	0	0	0	0	388	616
12	0	0	0	0	389	615
13	0	0	0	0	389	615
14	0	0	0	0	388	615
15	0	0	0	0	388	615
0	0	0	0	0	387	615
1	0	0	0	0	384	615
2	0	0	0	0	382	615
3	0	0	0	0	381	615
4	0	0	0	0	380	615
5	0	0	0	0	380	615
6	0	0	0	0	380	615
7	0	0	0	0	380	615
8	0	0	0	0	380	615
9	0	0	0	0	383	615
10	0	0	0	0	384	615
11	0	0	0	0	387	615
12	0	0	0	0	391	615
13	0	0	0	0	394	615
14	0	0	0	0	397	615
15	0	0	0	0	400	615
0	0	0	0	0	401	615
1	0	0	0	0	402	615
2	0	0	0	0	401	615
3	0	0	0	0	401	615
4	0	0	0	0	400	615
5	0	0	0	0	399	615
6	0	0	0	0	399	615
7	0	0	0	0	397	615
8	0	0	0	0	396	615
9	0	0	0	0	397	615
10	0	0	0	0	397	615
11	0	0	0	0	399	615
12	0	0	0	0	400	615
13	0	0	0	0	402	615
14	0	0	0	0	404	615
15	0	0	0	0	407	615
0	0	0	0	0	409	615
1	0	0	0	0	412	615
2	0	0	0	0	414	615
3	0	0	0	0	417	616
4	0	0	0	0	418	615
5	0	0	0	0	419	615
6	0	0	0	0	419	615
7	0	0	0	0	419	615
8	0	0	0	0	418	616
9	0	0	0	0	416	616
10	0	0	0	0	415	616
11	0	0	0	0	414	615
12	0	0	0	0	412	615
13	0	0	0	0	412	616
14	0	0	0	0	413	615
15	0	0	0	0	414	615
0	0	0	0	0	415	615
1	0	0	0	0	416	615
2	0	0	0	0	418	616
3	0	0	0	0	421	616
4	0	0	0	0	423	615
5	0	0	0	0	427	615
6	0	0	0	0	429	615
7	0	0	0	0	431	615
8	0	0	0	0	432	616
9	0	0	0	0	432	615
10	0	0	0	0	432	615
11	0	0	0	0	432	615
12	0	0	0	0	431	615
13	0	0	0	0	430	615
14	0	0	0	0	427	615
15	0	0	0	0	426	615
0	0	0	0	0	425	615
1	0	0	0	0	424	615
2	0	0	0	0	423	615
3	0	0	0	0	424	615
4	0	0	0	0	424	615
5	0	0	0	0	426	615
6	0	0	0	0	430	615
7	0	0	0	0	432	615
8	0	0	0	0	435	615
9	0	0	0	0	438	615
10	0	0	0	0	440	615
11	0	0	0	0	442	615
12	0	0	0	0	442	615
13	0	0	0	0	441	615
14	0	0	0	0	441	615
15	0	0	0	0	440	615
0	0	0	0	0	439	615
1	0	0	0	0	436	615
2	0	0	0	0	435	615
3	0	0	0	0	434	616
4	0	0	0	0	433	615
5	0	0	0	0	433	616
6	0	0	0	0	432	616
7	0	0	0	0	433	615
8	0	0	0	0	434	615
9	0	0	0	0	436	615
10	0	0	0	0	439	615
11	0	0	0	0	440	615
12	0	0	0	0	443	615
13	0	0	0	0	445	615
14	0	0	0	0	447	615
15	0	0	0	0	448	615
0	0	0	0	0	449	615
1	0	0	0	0	449	615
2	0	0	0	0	449	615
3	0	0	0	0	448	615
4	0	0	0	0	447	615
5	0	0	0	0	445	615
6	0	0	0	0	443	615
7	0	0	0	0	441	615
8	0	0	0	0	440	615
9	0	0	0	0	439	615
10	0	0	0	0	439	615
11	0	0	0	0	439	615
12	0	0	0	0	440	615
13	0	0	0	0	440	615
14	0	0	0	0	443	615
15	0	0	0	0	445	615
0	0	0	0	0	447	615
1	0	0	0	0	449	615
2	0	0	0	0	452	615
3	0	0	0	0	454	615
4	0	0	0	0	455	615
5	0	0	0	0	455	615
6	0	0	0	0	455	615
7	0	0	0	0	454	615
8	0	0	0	0	453	615
9	0	0	0	0	452	615
10	0	0	0	0	451	615
11	0	0	0	0	450	616
12	0	0	0	0	449	615
13	0	0	0	0	449	616
14	0	0	0	0	449	615
15	0	0	0	0	450	615
0	0	0	0	0	451	615
1	0	0	0	0	453	615
2	0	0	0	0	455	615
3	0	0	0	0	457	615
4	0	0	0	0	460	615
5	0	0	0	0	463	615
6	0	0	0	0	466	615
7	0	0	0	0	468	615
8	0	0	0	0	469	616
9	0	0	0	0	471	615
10	0	0	0	0	472	615
11	0	0	0	0	472	616
12	0	0	0	0	471	615
13	0	0	0	0	469	615
14	0	0	0	0	467	615
15	0	0	0	0	467	616
0	0	0	0	0	467	615
1	0	0	0	0	466	616
2	0	0	0	0	467	615
3	0	0	0	0	468	615
4	0	0	0	0	469	615
5	0	0	0	0	472	615
6	0	0	0	0	474	615
7	0	0	0	0	477	615
8	0	0	0	0	480	615
9	0	0	0	0	483	615
10	0	0	0	0	487	615
11	0	0	0	0	490	615
12	0	0	0	0	492	615
13	0	0	0	0	493	615
14	0	0	0	0	494	615
15	0	0	0	0	494	615
0	0	0	0	0	492	615
1	0	0	0	0	492	615
2	0	0	0	0	490	615
3	0	0	0	0	490	615
4	0	0	0	0	489	615
5	0	0	0	0	489	615
6	0	0	0	0	489	615
7	0	0	0	0	491	615
8	0	0	0	0	493	615
9	0	0	0	0	495	615
10	0	0	0	0	497	615
11	0	0	0	0	500	615
12	0	0	0	0	504	615
13	0	0	0	0	507	615
14	0	0	0	0	510	615
15	0	0	0	0	512	615
0	0	0	0	0	514	615
1	0	0	0	0	515	615
2	0	0	0	0	516	615
3	0	0	0	0	516	615
4	0	0	0	0	515	615
5	0	0	0	0	514	615
6	0	0	0	0	513	615
7	0	0	0	0	512	615
8	0	0	0	0	512	615
9	0	0	0	0	511	616
10	0	0	0	0	512	615
11	0	0	0	0	513	615
12	0	0	0	0	514	615
13	0	0	0	0	516	615
14	0	0	0	0	519	615
15	0	0	0	0	521	615
0	0	0	0	0	524	615
1	0	0	0	0	527	615
2	0	0	0	0	529	616
3	0	0	0	0	532	616
4	0	0	0	0	532	616
5	0	0	0	0	533	616
6	0	0	0	0	532	616
7	0	0	0	0	531	616
8	0	0	0	0	530	615
9	0	0	0	0	528	615
10	0	0	0	0	526	615
11	0	0	0	0	524	615
12	0	0	0	0	523	615
13	0	0	0	0	522	615
14	0	0	0	0	522	615
15	0	0	0	0	523	615
0	0	0	0	0	523	615
1	0	0	0	0	525	615
2	0	0	0	0	527	615
3	0	0	0	0	529	616
4	0	0	0	0	531	615
5	0	0	0	0	534	615
6	0	0	0	0	536	615
7	0	0	0	0	537	615
8	0	0	0	0	538	615
9	0	0	0	0	538	615
10	0	0	0	0	537	615
11	0	0	0	0	537	615
12	0	0	0	0	535	615
13	0	0	0	0	534	615
14	0	0	0	0	532	615
15	0	0	0	0	530	615
0	0	0	0	0	529	615
1	0	0	0	0	528	615
2	0	0	0	0	527	615
3	0	0	0	0	527	615
4	0	0	0	0	527	616
5	0	0	0	0	529	615
6	0	0	0	0	531	615
7	0	0	0	0	532	615
8	0	0	0	0	534	616
9	0	0	0	0	536	616
10	0	0	0	0	538	616
11	0	0	0	0	540	616
12	0	0	0	0	541	615
13	0	0	0	0	542	616
14	0	0	0	0	542	615
15	0	0	0	0	540	615
0	0	0	0	0	538	615
1	0	0	0	0	535	616
2	0	0	0	0	533	616
3	0	0	0	0	531	616
4	0	0	0	0	529	615
5	0	0	0	0	528	615
6	0	0	0	0	527	615
7	0	0	0	0	527	615
8	0	0	0	0	527	616
9	0	0	0	0	527	615
10	0	0	0	0	529	615
11	0	0	0	0	531	615
12	0	0	0	0	532	615
13	0	0	0	0	535	615
14	0	0	0	0	537	615
15	0	0	0	0	539	615
0	0	0	0	0	540	615
1	0	0	0	0	540	615
2	0	0	0	0	540	615
3	0	0	0	0	538	615
4	0	0	0	0	536	615
5	0	0	0	0	534	615
6	0	0	0	0	531	615
7	0	0	0	0	528	615
8	0	0	0	0	526	615
9	0	0	0	0	524	615
10	0	0	0	0	524	615
11	0	0	0	0	524	616
12	0	0	0	0	524	615
13	0	0	0	0	525	615
14	0	0	0	0	526	615
15	0	0	0	0	527	616
0	0	0	0	0	529	615
1	0	0	0	0	530	615
2	0	0	0	0	531	616
3	0	0	0	0	534	616
4	0	0	0	0	534	615
5	0	0	0	0	534	615
6	0	0	0	0	534	615
7	0	0	0	0	532	615
8	0	0	0	0	530	615
9	0	0	0	0	528	615
10	0	0	0	0	526	615
11	0	0	0	0	524	615
12	0	0	0	0	521	616
13	0	0	0	0	520	615
14	0	0	0	0	519	615
15	0	0	0	0	518	615
0	0	0	0	0	519	615
1	0	0	0	0	519	615
2	0	0	0	0	521	615
3	0	0	0	0	521	615
4	0	0	0	0	523	615
5	0	0	0	0	525	615
6	0	0	0	0	526	615
7	0	0	0	0	527	616
8	0	0	0	0	528	615
9	0	0	0	0	528	615
10	0	0	0	0	528	615
11	0	0	0	0	527	615
12	0	0	0	0	526	615
13	0	0	0	0	524	615
14	0	0	0	0	523	615
15	0	0	0	0	520	616
0	0	0	0	0	519	615
1	0	0	0	0	519	615
2	0	0	0	0	518	615
3	0	0	0	0	518	615
4	0	0	0	0	518	615
5	0	0	0	0	519	615
6	0	0	0	0	520	615
7	0	0	0	0	522	615
8	0	0	0	0	525	615
9	0	0	0	0	526	615
10	0	0	0	0	528	615
11	0	0	0	0	529	615
12	0	0	0	0	529	615
13	0	0	0	0	529	616
14	0	0	0	0	528	615
15	0	0	0	0	526	615
0	0	0	0	0	524	615
1	0	0	0	0	521	615
2	0	0	0	0	520	615
3	0	0	0	0	519	615
4	0	0	0	0	518	615
5	0	0	0	0	517	615
6	0	0	0	0	517	614
7	0	0	0	0	517	615
8	0	0	0	0	518	615
9	0	0	0	0	519	615
10	0	0	0	0	521	615
11	0	0	0	0	523	615
12	0	0	0	0	525	615
13	0	0	0	0	526	615
14	0	0	0	0	527	615
15	0	0	0	0	529	615
0	0	0	0	0	529	616
1	0	0	0	0	530	615
2	0	0	0	0	530	615
3	0	0	0	0	528	616
4	0	0	0	0	526	615
5	0	0	0	0	524	615
6	0	0	0	0	522	615
7	0	0	0	0	519	615
8	0	0	0	0	518	615
9	0	0	0	0	517	616
10	0	0	0	0	517	616
11	0	0	0	0	518	616
12	0	0	0	0	519	615
13	0	0	0	0	519	615
14	0	0	0	0	521	616
15	0	0	0	0	523	616
0	0	0	0	0	524	615
1	0	0	0	0	525	616
2	0	0	0	0	527	615
3	0	0	0	0	529	615
4	0	0	0	0	529	615
5	0	0	0	0	530	615
6	0	0	0	0	530	615
7	0	0	0	0	529	615
8	0	0	0	0	527	615
9	0	0	0	0	525	615
10	0	0	0	0	523	615
11	0	0	0	0	521	615
12	0	0	0	0	519	615
13	0	0	0	0	518	615
14	0	0	0	0	518	615
15	0	0	0	0	517	615
0	0	0	0	0	517	615
1	0	0	0	0	518	615
2	0	0	0	0	520	615
3	0	0	0	0	521	615
4	0	0	0	0	523	615
5	0	0	0	0	525	615
6	0	0	0	0	527	615
7	0	0	0	0	529	615
8	0	0	0	0	529	615
9	0	0	0	0	530	615
10	0	0	0	0	530	615
11	0	0	0	0	529	616
12	0	0	0	0	527	616
13	0	0	0	0	525	616
14	0	0	0	0	524	615
15	0	0	0	0	522	615
0	0	0	0	0	521	615
1	0	0	0	0	519	615
2	0	0	0	0	519	615
3	0	0	0	0	519	615
4	0	0	0	0	518	615
5	0	0	0	0	519	615
6	0	0	0	0	520	615
7	0	0	0	0	521	615
8	0	0	0	0	523	615
9	0	0	0	0	524	616
10	0	0	0	0	527	615
11	0	0	0	0	529	616
12	0	0	0	0	530	615
13	0	0	0	0	531	615
14	0	0	0	0	531	615
15	0	0	0	0	530	615
0	0	0	0	0	529	615
1	0	0	0	0	527	615
2	0	0	0	0	525	615
3	0	0	0	0	523	615
4	0	0	0	0	520	615
5	0	0	0	0	518	615
6	0	0	0	0	515	615
7	0	0	0	0	515	615
8	0	0	0	0	514	615
9	0	0	0	0	515	615
10	0	0	0	0	516	615
11	0	0	0	0	517	615
12	0	0	0	0	519	615
13	0	0	0	0	520	615
14	0	0	0	0	522	615
15	0	0	0	0	524	615
0	0	0	0	0	525	615
1	0	0	0	0	526	615
2	0	0	0	0	527	616
3	0	0	0	0	526	615
4	0	0	0	0	526	615
5	0	0	0	0	524	615
6	0	0	0	0	522	615
7	0	0	0	0	520	615
8	0	0	0	0	518	615
9	0	0	0	0	517	615
10	0	0	0	0	516	615
11	0	0	0	0	515	615
12	0	0	0	0	515	615
13	0	0	0	0	515	615
14	0	0	0	0	516	615
15	0	0	0	0	518	616
0	0	0	0	0	520	616
1	0	0	0	0	523	616
2	0	0	0	0	524	616
3	0	0	0	0	526	615
4	0	0	0	0	527	615
5	0	0	0	0	527	615
6	0	0	0	0	526	615
7	0	0	0	0	525	615
8	0	0	0	0	523	615
9	0	0	0	0	521	615
10	0	0	0	0	519	615
11	0	0	0	0	516	615
12	0	0	0	0	515	615
13	0	0	0	0	514	615
14	0	0	0	0	513	615
15	0	0	0	0	512	615
0	0	0	0	0	513	615
1	0	0	0	0	514	616
2	0	0	0	0	515	615
3	0	0	0	0	518	616
4	0	0	0	0	520	616
5	0	0	0	0	523	615
6	0	0	0	0	524	615
7	0	0	0	0	525	616
8	0	0	0	0	524	615
9	0	0	0	0	524	616
10	0	0	0	0	523	616
11	0	0	0	0	521	616
12	0	0	0	0	519	616
13	0	0	0	0	517	615
14	0	0	0	0	515	615
15	0	0	0	0	513	615
0	0	0	0	0	512	615
1	0	0	0	0	510	616
2	0	0	0	0	508	615
3	0	0	0	0	508	616
4	0	0	0	0	507	615
5	0	0	0	0	508	615
6	0	0	0	0	509	616
7	0	0	0	0	511	615
8	0	0	0	0	512	615
9	0	0	0	0	514	615
10	0	0	0	0	516	615
11	0	0	0	0	518	615
12	0	0	0	0	518	615
13	0	0	0	0	518	615
14	0	0	0	0	518	615
15	0	0	0	0	516	615
0	0	0	0	0	514	615
1	0	0	0	0	512	615
2	0	0	0	0	509	615
3	0	0	0	0	507	615
4	0	0	0	0	505	615
5	0	0	0	0	503	615
6	0	0	0	0	503	616
7	0	0	0	0	503	615
8	0	0	0	0	503	615
9	0	0	0	0	504	615
10	0	0	0	0	506	615
11	0	0	0	0	508	615
12	0	0	0	0	509	616
13	0	0	0	0	511	616
14	0	0	0	0	513	615
15	0	0	0	0	515	615
0	0	0	0	0	515	616
1	0	0	0	0	515	616
2	0	0	0	0	515	615
3	0	0	0	0	513	615
4	0	0	0	0	512	616
5	0	0	0	0	509	615
6	0	0	0	0	506	615
7	0	0	0	0	504	615
8	0	0	0	0	503	615
9	0	0	0	0	502	615
10	0	0	0	0	502	615
11	0	0	0	0	502	616
12	0	0	0	0	503	615
13	0	0	0	0	504	615
14	0	0	0	0	506	615
15	0	0	0	0	509	615
0	0	0	0	0	512	615
1	0	0	0	0	514	615
2	0	0	0	0	517	615
3	0	0	0	0	519	615
4	0	0	0	0	521	615
5	0	0	0	0	521	615
6	0	0	0	0	522	615
7	0	0	0	0	521	615
8	0	0	0	0	519	615
9	0	0	0	0	516	615
10	0	0	0	0	514	615
11	0	0	0	0	512	615
12	0	0	0	0	511	615
13	0	0	0	0	510	615
14	0	0	0	0	508	615
15	0	0	0	0	509	615
0	0	0	0	0	509	615
1	0	0	0	0	510	615
2	0	0	0	0	511	615
3	0	0	0	0	512	616
4	0	0	0	0	515	616
5	0	0	0	0	517	616
6	0	0	0	0	519	615
7	0	0	0	0	522	615
8	0	0	0	0	523	615
9	0	0	0	0	522	615
10	0	0	0	0	522	616
11	0	0	0	0	521	616
12	0	0	0	0	519	615
13	0	0	0	0	518	615
14	0	0	0	0	515	615
15	0	0	0	0	513	616
0	0	0	0	0	511	615
1	0	0	0	0	510	615
2	0	0	0	0	510	615
3	0	0	0	0	510	615
4	0	0	0	0	511	615
5	0	0	0	0	512	615
6	0	0	0	0	513	615
7	0	0	0	0	515	615
8	0	0	0	0	516	615
9	0	0	0	0	518	615
10	0	0	0	0	519	615
11	0	0	0	0	522	615
12	0	0	0	0	522	615
13	0	0	0	0	521	615
14	0	0	0	0	520	615
15	0	0	0	0	519	615
0	0	0	0	0	517	615
1	0	0	0	0	515	615
2	0	0	0	0	512	615
3	0	0	0	0	511	615
4	0	0	0	0	508	615
5	0	0	0	0	508	616
6	0	0	0	0	507	615
7	0	0	0	0	508	615
8	0	0	0	0	508	616
9	0	0	0	0	509	616
10	0	0	0	0	511	615
11	0	0	0	0	512	615
12	0	0	0	0	514	615
13	0	0	0	0	515	616
14	0	0	0	0	517	615
15	0	0	0	0	519	615
0	0	0	0	0	519	615
1	0	0	0	0	519	615
2	0	0	0	0	520	615
3	0	0	0	0	518	615
4	0	0	0	0	516	615
5	0	0	0	0	514	615
6	0	0	0	0	511	615
7	0	0	0	0	508	615
8	0	0	0	0	506	615
9	0	0	0	0	504	615
10	0	0	0	0	503	615
11	0	0	0	0	503	615
12	0	0	0	0	503	615
13	0	0	0	0	504	615
14	0	0	0	0	506	615
15	0	0	0	0	508	615
0	0	0	0	0	510	615
1	0	0	0	0	512	615
2	0	0	0	0	514	615
3	0	0	0	0	516	615
4	0	0	0	0	516	615
5	0	0	0	0	515	615
6	0	0	0	0	515	615
7	0	0	0	0	514	615
8	0	0	0	0	511	615
9	0	0	0	0	508	615
10	0	0	0	0	505	615
11	0	0	0	0	500	616
12	0	0	0	0	494	615
13	0	0	0	0	488	615
14	0	0	0	0	481	615
15	0	0	0	0	473	615
0	0	0	0	0	465	616
1	0	0	0	0	455	615
2	0	0	0	0	447	615
3	0	0	0	0	438	616
4	0	0	0	0	429	615
5	0	0	0	0	421	615
6	0	0	0	0	415	615
7	0	0	0	0	409	615
8	0	0	0	0	405	615
9	0	0	0	0	402	615
10	0	0	0	0	401	615
11	0	0	0	0	400	615
12	0	0	0	0	402	615
13	0	0	0	0	404	615
14	0	0	0	0	407	615
15	0	0	0	0	413	616
0	0	0	0	0	419	616
1	0	0	0	0	425	616
2	0	0	0	0	431	615
3	0	0	0	0	435	615
4	0	0	0	0	441	615
5	0	0	0	0	450	615
6	0	0	0	0	464	615
7	0	0	0	0	486	615
8	0	0	0	0	512	616
9	0	0	0	0	542	615
10	0	0	0	0	577	615
11	0	0	0	0	619	616
12	0	0	0	0	665	615
13	0	0	0	0	715	615
14	0	0	0	0	768	615
15	0	0	0	0	817	615
0	0	0	0	0	863	615
1	0	0	0	0	903	615
2	0	0	0	0	938	615
3	0	0	0	0	966	616
4	0	0	0	0	987	616
5	0	0	0	0	1000	615
6	0	0	0	0	1007	615
7	0	0	0	0	1010	615
8	0	0	0	0	1008	615
9	0	0	0	0	1001	615
10	0	0	0	0	989	615
11	0	0	0	0	973	616
12	0	0	0	0	953	615
13	0	0	0	0	929	615
14	0	0	0	0	901	615
15	0	0	0	0	869	615
0	0	0	0	0	834	615
1	0	0	0	0	798	615
2	0	0	0	0	765	615
3	0	0	0	0	735	616
4	0	0	0	0	707	615
5	0	0	0	0	682	615
6	0	0	0	0	659	615
7	0	0	0	0	638	615
8	0	0	0	0	620	615
9	0	0	0	0	606	615
10	0	0	0	0	593	615
11	0	0	0	0	582	615
12	0	0	0	0	569	615
13	0	0	0	0	558	615
14	0	0	0	0	548	615
15	0	0	0	0	538	615
0	0	0	0	0	528	615
1	0	0	0	0	518	615
2	0	0	0	0	508	615
3	0	0	0	0	499	615
4	0	0	0	0	489	615
5	0	0	0	0	479	615
6	0	0	0	0	469	615
7	0	0	0	0	459	615
8	0	0	0	0	448	615
9	0	0	0	0	437	615
10	0	0	0	0	428	615
11	0	0	0	0	420	616
12	0	0	0	0	412	615
13	0	0	0	0	407	615
14	0	0	0	0	402	615
15	0	0	0	0	399	615
0	0	0	0	0	396	615
1	0	0	0	0	396	615
2	0	0	0	0	396	615
3	0	0	0	0	396	616
4	0	0	0	0	398	615
5	0	0	0	0	398	615
6	0	0	0	0	399	615
7	0	0	0	0	400	616
8	0	0	0	0	399	616
9	0	0	0	0	399	615
10	0	0	0	0	398	615
11	0	0	0	0	396	616
12	0	0	0	0	395	616
13	0	0	0	0	393	615
14	0	0	0	0	391	615
15	0	0	0	0	391	615
0	0	0	0	0	390	615
1	0	0	0	0	389	615
2	0	0	0	0	390	615
3	0	0	0	0	390	616
4	0	0	0	0	391	615
5	0	0	0	0	392	615
6	0	0	0	0	395	616
7	0	0	0	0	397	616
8	0	0	0	0	399	615
9	0	0	0	0	402	615
10	0	0	0	0	404	615
11	0	0	0	0	406	615
12	0	0	0	0	407	615
13	0	0	0	0	407	615
14	0	0	0	0	408	615
15	0	0	0	0	407	615
0	0	0	0	0	406	615
1	0	0	0	0	405	615
2	0	0	0	0	404	615
3	0	0	0	0	403	615
4	0	0	0	0	402	615
5	0	0	0	0	402	615
6	0	0	0	0	403	615
7	0	0	0	0	404	615
8	0	0	0	0	406	615
9	0	0	0	0	409	615
10	0	0	0	0	413	615
11	0	0	0	0	416	616
12	0	0	0	0	419	615
13	0	0	0	0	422	615
14	0	0	0	0	425	615
15	0	0	0	0	427	615
0	0	0	0	0	428	615
1	0	0	0	0	428	615
2	0	0	0	0	426	615
3	0	0	0	0	424	616
4	0	0	0	0	423	615
5	0	0	0	0	420	615
6	0	0	0	0	419	615
7	0	0	0	0	417	615
8	0	0	0	0	417	615
9	0	0	0	0	417	615
10	0	0	0	0	419	615
11	0	0	0	0	420	615
12	0	0	0	0	421	615
13	0	0	0	0	424	615
14	0	0	0	0	427	615
15	0	0	0	0	429	615
0	0	0	0	0	431	615
1	0	0	0	0	434	615
2	0	0	0	0	436	615
3	0	0	0	0	438	615
4	0	0	0	0	439	615
5	0	0	0	0	439	615
6	0	0	0	0	439	615
7	0	0	0	0	439	615
8	0	0	0	0	438	615
9	0	0	0	0	436	615
10	0	0	0	0	435	615
11	0	0	0	0	434	615
12	0	0	0	0	433	615
13	0	0	0	0	433	615
14	0	0	0	0	433	615
15	0	0	0	0	433	615
0	0	0	0	0	434	615
1	0	0	0	0	435	615
2	0	0	0	0	437	615
3	0	0	0	0	440	615
4	0	0	0	0	442	615
5	0	0	0	0	444	615
6	0	0	0	0	446	615
7	0	0	0	0	448	615
8	0	0	0	0	449	615
9	0	0	0	0	450	615
10	0	0	0	0	449	615
11	0	0	0	0	448	615
12	0	0	0	0	446	615
13	0	0	0	0	444	615
14	0	0	0	0	443	615
15	0	0	0	0	440	615
0	0	0	0	0	440	616
1	0	0	0	0	440	615
2	0	0	0	0	439	615
3	0	0	0	0	440	616
4	0	0	0	0	441	616
5	0	0	0	0	442	615
6	0	0	0	0	443	616
7	0	0	0	0	444	616
8	0	0	0	0	447	615
9	0	0	0	0	449	615
10	0	0	0	0	451	615
11	0	0	0	0	452	615
12	0	0	0	0	453	615
13	0	0	0	0	453	615
14	0	0	0	0	453	615
15	0	0	0	0	452	615
0	0	0	0	0	451	615
1	0	0	0	0	450	615
2	0	0	0	0	448	616
3	0	0	0	0	447	615
4	0	0	0	0	445	615
5	0	0	0	0	444	615
6	0	0	0	0	444	615
7	0	0	0	0	444	615
8	0	0	0	0	444	615
9	0	0	0	0	446	615
10	0	0	0	0	448	615
11	0	0	0	0	450	615
12	0	0	0	0	452	615
13	0	0	0	0	455	616
14	0	0	0	0	456	615
15	0	0	0	0	458	615
0	0	0	0	0	459	615
1	0	0	0	0	459	615
2	0	0	0	0	460	615
3	0	0	0	0	458	616
4	0	0	0	0	457	615
5	0	0	0	0	455	615
6	0	0	0	0	454	615
7	0	0	0	0	452	615
8	0	0	0	0	451	615
9	0	0	0	0	451	615
10	0	0	0	0	451	615
11	0	0	0	0	452	615
12	0	0	0	0	454	615
13	0	0	0	0	456	615
14	0	0	0	0	458	615
15	0	0	0	0	460	615
0	0	0	0	0	463	615
1	0	0	0	0	464	615
2	0	0	0	0	467	615
3	0	0	0	0	468	615
4	0	0	0	0	470	615
5	0	0	0	0	471	615
6	0	0	0	0	471	615
7	0	0	0	0	471	615
8	0	0	0	0	470	615
9	0	0	0	0	469	615
10	0	0	0	0	468	615
11	0	0	0	0	468	615
12	0	0	0	0	468	615
13	0	0	0	0	468	616
14	0	0	0	0	470	616
15	0	0	0	0	471	616
0	0	0	0	0	473	615
1	0	0	0	0	475	615
2	0	0	0	0	477	615
3	0	0	0	0	479	616
4	0	0	0	0	482	615
5	0	0	0	0	485	615
6	0	0	0	0	488	616
7	0	0	0	0	490	616
8	0	0	0	0	492	616
9	0	0	0	0	492	616
10	0	0	0	0	492	615
11	0	0	0	0	492	616
12	0	0	0	0	492	616
13	0	0	0	0	491	616
14	0	0	0	0	489	615
15	0	0	0	0	489	615
0	0	0	0	0	488	615
1	0	0	0	0	488	615
2	0	0	0	0	488	615
3	0	0	0	0	489	615
4	0	0	0	0	491	615
5	0	0	0	0	493	615
6	0	0	0	0	495	615
7	0	0	0	0	498	615
8	0	0	0	0	501	615
9	0	0	0	0	504	615
10	0	0	0	0	507	615
11	0	0	0	0	510	615
12	0	0	0	0	512	615
13	0	0	0	0	512	615
14	0	0	0	0	512	615
15	0	0	0	0	512	616
0	0	0	0	0	510	616
1	0	0	0	0	509	616
2	0	0	0	0	507	615
3	0	0	0	0	506	616
4	0	0	0	0	505	615
5	0	0	0	0	505	616
6	0	0	0	0	506	616
7	0	0	0	0	508	615
8	0	0	0	0	509	616
9	0	0	0	0	511	615
10	0	0	0	0	514	616
11	0	0	0	0	517	616
12	0	0	0	0	519	616
13	0	0	0	0	522	615
14	0	0	0	0	526	615
15	0	0	0	0	528	616
0	0	0	0	0	528	615
1	0	0	0	0	528	616
2	0	0	0	0	528	615
3	0	0	0	0	527	616
4	0	0	0	0	525	616
5	0	0	0	0	523	616
6	0	0	0	0	520	615
7	0	0	0	0	519	615
8	0	0	0	0	518	615
9	0	0	0	0	518	615
10	0	0	0	0	518	615
11	0	0	0	0	519	615
12	0	0	0	0	521	615
13	0	0	0	0	522	615
14	0	0	0	0	525	615
15	0	0	0	0	527	615
0	0	0	0	0	529	615
1	0	0	0	0	531	615
2	0	0	0	0	533	615
3	0	0	0	0	534	616
4	0	0	0	0	536	615
5	0	0	0	0	536	615
6	0	0	0	0	535	615
7	0	0	0	0	534	615
8	0	0	0	0	533	615
9	0	0	0	0	531	615
10	0	0	0	0	529	616
11	0	0	0	0	527	616
12	0	0	0	0	527	616
13	0	0	0	0	527	615
14	0	0	0	0	527	616
15	0	0	0	0	527	616
0	0	0	0	0	528	616
1	0	0	0	0	528	615
2	0	0	0	0	529	615
3	0	0	0	0	530	616
4	0	0	0	0	531	615
5	0	0	0	0	532	615
6	0	0	0	0	533	615
7	0	0	0	0	535	615
8	0	0	0	0	534	615
9	0	0	0	0	534	615
10	0	0	0	0	534	615
11	0	0	0	0	532	615
12	0	0	0	0	531	615
13	0	0	0	0	531	615
14	0	0	0	0	530	615
15	0	0	0	0	529	615
0	0	0	0	0	527	615
1	0	0	0	0	527	615
2	0	0	0	0	526	615
3	0	0	0	0	526	616
4	0	0	0	0	526	616
5	0	0	0	0	527	616
6	0	0	0	0	528	616
7	0	0	0	0	530	616
8	0	0	0	0	531	616
9	0	0	0	0	533	616
10	0	0	0	0	535	616
11	0	0	0	0	536	617
12	0	0	0	0	536	616
13	0	0	0	0	536	616
14	0	0	0	0	536	617
15	0	0	0	0	534	617
0	0	0	0	0	532	617
1	0	0	0	0	530	615
2	0	0	0	0	527	616
3	0	0	0	0	525	616
4	0	0	0	0	522	616
5	0	0	0	0	521	616
6	0	0	0	0	520	616
7	0	0	0	0	519	616
8	0	0	0	0	520	615
9	0	0	0	0	520	615
10	0	0	0	0	521	615
11	0	0	0	0	522	615
12	0	0	0	0	524	615
13	0	0	0	0	526	615
14	0	0	0	0	528	614
15	0	0	0	0	529	614
0	0	0	0	0	529	614
1	0	0	0	0	529	614
2	0	0	0	0	528	614
3	0	0	0	0	528	614
4	0	0	0	0	527	615
5	0	0	0	0	526	615
6	0	0	0	0	524	615
7	0	0	0	0	523	615
8	0	0	0	0	521	615
9	0	0	0	0	519	616
10	0	0	0	0	518	615
11	0	0	0	0	518	615
12	0	0	0	0	518	615
13	0	0	0	0	519	615
14	0	0	0	0	521	615
15	0	0	0	0	523	616
0	0	0	0	0	526	615
1	0	0	0	0	528	615
2	0	0	0	0	530	615
3	0	0	0	0	532	616
4	0	0	0	0	532	616
5	0	0	0	0	532	616
6	0	0	0	0	532	616
7	0	0	0	0	531	616
8	0	0	0	0	527	615
9	0	0	0	0	525	615
10	0	0	0	0	521	616
11	0	0	0	0	519	616
12	0	0	0	0	516	616
13	0	0	0	0	515	615
14	0	0	0	0	514	615
15	0	0	0	0	514	615
0	0	0	0	0	514	615
1	0	0	0	0	515	615
2	0	0	0	0	519	615
3	0	0	0	0	521	615
4	0	0	0	0	524	615
5	0	0	0	0	526	615
6	0	0	0	0	527	615
7	0	0	0	0	530	615
8	0	0	0	0	531	615
9	0	0	0	0	531	615
10	0	0	0	0	532	615
11	0	0	0	0	530	615
12	0	0	0	0	528	615
13	0	0	0	0	527	615
14	0	0	0	0	526	615
15	0	0	0	0	524	615
0	0	0	0	0	521	615
1	0	0	0	0	520	615
2	0	0	0	0	520	615
3	0	0	0	0	520	615
4	0	0	0	0	520	615
5	0	0	0	0	521	615
6	0	0	0	0	524	615
7	0	0	0	0	525	614
8	0	0	0	0	527	615
9	0	0	0	0	528	615
10	0	0	0	0	528	615
11	0	0	0	0	529	616
12	0	0	0	0	529	615
13	0	0	0	0	529	615
14	0	0	0	0	527	615
15	0	0	0	0	526	615
0	0	0	0	0	525	615
1	0	0	0	0	524	615
2	0	0	0	0	522	615
3	0	0	0	0	521	615
4	0	0	0	0	520	615
5	0	0	0	0	520	615
6	0	0	0	0	520	615
7	0	0	0	0	521	615
8	0	0	0	0	521	615
9	0	0	0	0	523	615
10	0	0	0	0	526	615
11	0	0	0	0	527	615
12	0	0	0	0	530	615
13	0	0	0	0	531	615
14	0	0	0	0	532	615
15	0	0	0	0	534	615
0	0	0	0	0	534	615
1	0	0	0	0	535	615
2	0	0	0	0	534	615
3	0	0	0	0	532	615
4	0	0	0	0	531	616
5	0	0	0	0	528	616
6	0	0	0	0	526	616
7	0	0	0	0	524	616
8	0	0	0	0	522	616
9	0	0	0	0	521	615
10	0	0	0	0	520	616
11	0	0	0	0	521	616
12	0	0	0	0	520	616
13	0	0	0	0	521	616
14	0	0	0	0	523	615
15	0	0	0	0	524	616
0	0	0	0	0	525	615
1	0	0	0	0	526	615
2	0	0	0	0	528	617
3	0	0	0	0	527	616
4	0	0	0	0	528	617
5	0	0	0	0	529	616
6	0	0	0	0	529	616
7	0	0	0	0	527	616
8	0	0	0	0	526	616
9	0	0	0	0	524	616
10	0	0	0	0	523	616
11	0	0	0	0	522	616
12	0	0	0	0	519	616
13	0	0	0	0	518	615
14	0	0	0	0	516	615
15	0	0	0	0	515	615
0	0	0	0	0	516	615
1	0	0	0	0	516	615
2	0	0	0	0	517	615
3	0	0	0	0	518	615
4	0	0	0	0	520	615
5	0	0	0	0	522	615
6	0	0	0	0	523	615
7	0	0	0	0	524	615
8	0	0	0	0	525	614
9	0	0	0	0	526	614
10	0	0	0	0	526	615
11	0	0	0	0	525	615
12	0	0	0	0	524	615
13	0	0	0	0	521	615
14	0	0	0	0	519	615
15	0	0	0	0	518	615
0	0	0	0	0	516	615
1	0	0	0	0	515	615
2	0	0	0	0	515	615
3	0	0	0	0	516	616
4	0	0	0	0	516	616
5	0	0	0	0	517	615
6	0	0	0	0	518	616
7	0	0	0	0	520	616
8	0	0	0	0	520	616
9	0	0	0	0	521	616
10	0	0	0	0	523	615
11	0	0	0	0	524	615
12	0	0	0	0	524	616
13	0	0	0	0	524	616
14	0	0	0	0	524	615
15	0	0	0	0	521	615
0	0	0	0	0	519	615
1	0	0	0	0	516	615
2	0	0	0	0	513	615
3	0	0	0	0	511	615
4	0	0	0	0	509	616
5	0	0	0	0	508	615
6	0	0	0	0	507	615
7	0	0	0	0	508	615
8	0	0	0	0	507	615
9	0	0	0	0	508	615
10	0	0	0	0	510	615
11	0	0	0	0	512	615
12	0	0	0	0	514	615
13	0	0	0	0	517	615
14	0	0	0	0	519	615
15	0	0	0	0	521	615
0	0	0	0	0	522	615
1	0	0	0	0	523	615
2	0	0	0	0	522	615
3	0	0	0	0	521	615
4	0	0	0	0	520	615
5	0	0	0	0	519	615
6	0	0	0	0	516	615
7	0	0	0	0	513	615
8	0	0	0	0	511	615
9	0	0	0	0	509	615
10	0	0	0	0	508	615
11	0	0	0	0	509	616
12	0	0	0	0	510	615
13	0	0	0	0	512	615
14	0	0	0	0	514	615
15	0	0	0	0	516	615
0	0	0	0	0	519	615
1	0	0	0	0	521	616
2	0	0	0	0	523	616
3	0	0	0	0	524	616
4	0	0	0	0	524	615
5	0	0	0	0	524	615
6	0	0	0	0	523	615
7	0	0	0	0	521	614
8	0	0	0	0	519	615
9	0	0	0	0	518	615
10	0	0	0	0	516	615
11	0	0	0	0	515	615
12	0	0	0	0	515	615
13	0	0	0	0	515	615
14	0	0	0	0	516	615
15	0	0	0	0	517	615
0	0	0	0	0	518	615
1	0	0	0	0	519	614
2	0	0	0	0	520	615
3	0	0	0	0	522	615
4	0	0	0	0	524	614
5	0	0	0	0	525	615
6	0	0	0	0	527	615
7	0	0	0	0	529	615
8	0	0	0	0	529	615
9	0	0	0	0	529	615
10	0	0	0	0	528	615
11	0	0	0	0	527	615
12	0	0	0	0	524	615
13	0	0	0	0	523	615
14	0	0	0	0	521	615
15	0	0	0	0	519	615
0	0	0	0	0	517	616
1	0	0	0	0	515	615
2	0	0	0	0	513	615
3	0	0	0	0	512	616
4	0	0	0	0	512	615
5	0	0	0	0	512	615
6	0	0	0	0	514	615
7	0	0	0	0	515	615
8	0	0	0	0	516	615
9	0	0	0	0	518	616
10	0	0	0	0	519	615
11	0	0	0	0	520	616
12	0	0	0	0	520	615
13	0	0	0	0	521	615
14	0	0	0	0	521	615
15	0	0	0	0	519	615
0	0	0	0	0	518	615
1	0	0	0	0	517	615
2	0	0	0	0	515	615
3	0	0	0	0	513	615
4	0	0	0	0	511	615
5	0	0	0	0	510	615
6	0	0	0	0	510	615
7	0	0	0	0	510	615
8	0	0	0	0	509	615
9	0	0	0	0	510	615
10	0	0	0	0	511	615
11	0	0	0	0	512	615
12	0	0	0	0	515	615
13	0	0	0	0	517	615
14	0	0	0	0	519	615
15	0	0	0	0	521	615
0	0	0	0	0	521	615
1	0	0	0	0	521	615
2	0	0	0	0	521	615
3	0	0	0	0	520	615
4	0	0	0	0	518	616
5	0	0	0	0	515	616
6	0	0	0	0	513	615
7	0	0	0	0	512	615
8	0	0	0	0	510	615
9	0	0	0	0	508	615
10	0	0	0	0	507	615
11	0	0	0	0	507	616
12	0	0	0	0	507	615
13	0	0	0	0	508	615
14	0	0	0	0	510	615
15	0	0	0	0	512	615
0	0	0	0	0	514	616
1	0	0	0	0	516	615
2	0	0	0	0	518	615
3	0	0	0	0	519	616
4	0	0	0	0	520	616
5	0	0	0	0	520	615
6	0	0	0	0	519	615
7	0	0	0	0	518	615
8	0	0	0	0	516	615
9	0	0	0	0	515	616
10	0	0	0	0	513	616
11	0	0	0	0	512	616
12	0	0	0	0	511	616
13	0	0	0	0	510	615
14	0	0	0	0	509	615
15	0	0	0	0	508	615
0	0	0	0	0	508	615
1	0	0	0	0	509	615
2	0	0	0	0	509	615
3	0	0	0	0	510	616
4	0	0	0	0	510	615
5	0	0	0	0	510	615
6	0	0	0	0	508	615
7	0	0	0	0	504	615
8	0	0	0	0	499	615
9	0	0	0	0	490	615
10	0	0	0	0	480	615
11	0	0	0	0	467	615
12	0	0	0	0	453	615
13	0	0	0	0	439	614
14	0	0	0	0	425	615
15	0	0	0	0	412	615
0	0	0	0	0	400	615
1	0	0	0	0	391	615
2	0	0	0	0	384	615
3	0	0	0	0	380	615
4	0	0	0	0	380	615
5	0	0	0	0	380	616
6	0	0	0	0	385	615
7	0	0	0	0	391	615
8	0	0	0	0	399	616
9	0	0	0	0	410	615
10	0	0	0	0	420	615
11	0	0	0	0	431	616
12	0	0	0	0	438	615
13	0	0	0	0	445	615
14	0	0	0	0	451	615
15	0	0	0	0	456	616
0	0	0	0	0	465	615
1	0	0	0	0	481	616
2	0	0	0	0	503	615
3	0	0	0	0	528	615
4	0	0	0	0	558	615
5	0	0	0	0	592	615
6	0	0	0	0	634	615
7	0	0	0	0	682	615
8	0	0	0	0	733	615
9	0	0	0	0	785	615
10	0	0	0	0	833	615
11	0	0	0	0	876	615
12	0	0	0	0	916	615
13	0	0	0	0	949	615
14	0	0	0	0	974	615
15	0	0	0	0	992	615
0	0	0	0	0	998	615
1	0	0	0	0	998	615
2	0	0	0	0	992	615
3	0	0	0	0	978	615
4	0	0	0	0	960	615
5	0	0	0	0	938	615
6	0	0	0	0	913	615
7	0	0	0	0	884	615
8	0	0	0	0	851	615
9	0	0	0	0	818	615
10	0	0	0	0	785	615
11	0	0	0	0	755	616
12	0	0	0	0	728	616
13	0	0	0	0	703	616
14	0	0	0	0	682	616
15	0	0	0	0	664	616
0	0	0	0	0	648	616
1	0	0	0	0	635	616
2	0	0	0	0	624	616
3	0	0	0	0	614	616
4	0	0	0	0	602	616
5	0	0	0	0	591	616
6	0	0	0	0	579	616
7	0	0	0	0	568	616
8	0	0	0	0	556	616
9	0	0	0	0	545	616
10	0	0	0	0	533	616
11	0	0	0	0	522	615
12	0	0	0	0	510	615
13	0	0	0	0	500	615
14	0	0	0	0	491	615
15	0	0	0	0	482	615
0	0	0	0	0	474	615
1	0	0	0	0	467	615
2	0	0	0	0	462	615
3	0	0	0	0	457	615
4	0	0	0	0	452	615
5	0	0	0	0	448	615
6	0	0	0	0	444	615
7	0	0	0	0	441	615
8	0	0	0	0	437	615
9	0	0	0	0	433	615
10	0	0	0	0	430	615
11	0	0	0	0	426	615
12	0	0	0	0	422	615
13	0	0	0	0	417	615
14	0	0	0	0	413	615
15	0	0	0	0	410	615
0	0	0	0	0	407	615
1	0	0	0	0	405	615
2	0	0	0	0	403	616
3	0	0	0	0	403	616
4	0	0	0	0	402	615
5	0	0	0	0	403	615
6	0	0	0	0	404	615
7	0	0	0	0	405	615
8	0	0	0	0	407	615
9	0	0	0	0	409	615
10	0	0	0	0	411	615
11	0	0	0	0	413	616
12	0	0	0	0	414	615
13	0	0	0	0	414	615
14	0	0	0	0	415	615
15	0	0	0	0	414	615
0	0	0	0	0	413	615
1	0	0	0	0	412	615
2	0	0	0	0	410	615
3	0	0	0	0	409	615
4	0	0	0	0	409	615
5	0	0	0	0	409	615
6	0	0	0	0	409	615
7	0	0	0	0	411	615
8	0	0	0	0	413	615
9	0	0	0	0	415	615
10	0	0	0	0	417	616
11	0	0	0	0	419	615
12	0	0	0	0	422	615
13	0	0	0	0	424	615
14	0	0	0	0	426	615
15	0	0	0	0	428	615
0	0	0	0	0	428	615
1	0	0	0	0	429	615
2	0	0	0	0	428	615
3	0	0	0	0	427	616
4	0	0	0	0	426	615
5	0	0	0	0	425	615
6	0	0	0	0	423	615
7	0	0	0	0	423	615
8	0	0	0	0	422	616
9	0	0	0	0	422	615
10	0	0	0	0	423	615
11	0	0	0	0	423	616
12	0	0	0	0	426	616
13	0	0	0	0	428	616
14	0	0	0	0	430	616
15	0	0	0	0	432	616
0	0	0	0	0	435	615
1	0	0	0	0	437	616
2	0	0	0	0	439	615
3	0	0	0	0	440	615
4	0	0	0	0	441	615
5	0	0	0	0	442	615
6	0	0	0	0	443	615
7	0	0	0	0	442	615
8	0	0	0	0	441	615
9	0	0	0	0	440	615
10	0	0	0	0	438	615
11	0	0	0	0	437	615
12	0	0	0	0	436	615
13	0	0	0	0	435	615
14	0	0	0	0	436	615
15	0	0	0	0	436	615
0	0	0	0	0	438	614
1	0	0	0	0	439	614
2	0	0	0	0	441	615
3	0	0	0	0	442	615
4	0	0	0	0	444	614
5	0	0	0	0	447	615
6	0	0	0	0	448	615
7	0	0	0	0	450	615
8	0	0	0	0	450	615
9	0	0	0	0	450	615
10	0	0	0	0	449	615
11	0	0	0	0	448	615
12	0	0	0	0	448	615
13	0	0	0	0	446	615
14	0	0	0	0	444	615
15	0	0	0	0	443	615
0	0	0	0	0	441	616
1	0	0	0	0	440	616
2	0	0	0	0	440	616
3	0	0	0	0	441	616
4	0	0	0	0	443	616
5	0	0	0	0	444	616
6	0	0	0	0	446	616
7	0	0	0	0	448	616
8	0	0	0	0	449	616
9	0	0	0	0	451	616
10	0	0	0	0	454	616
11	0	0	0	0	455	616
12	0	0	0	0	456	616
13	0	0	0	0	456	616
14	0	0	0	0	455	616
15	0	0	0	0	454	616
0	0	0	0	0	452	616
1	0	0	0	0	451	615
2	0	0	0	0	449	615
3	0	0	0	0	447	615
4	0	0	0	0	446	615
5	0	0	0	0	445	615
6	0	0	0	0	445	615
7	0	0	0	0	445	615
8	0	0	0	0	445	615
9	0	0	0	0	446	615
10	0	0	0	0	447	615
11	0	0	0	0	448	615
12	0	0	0	0	450	615
13	0	0	0	0	451	615
14	0	0	0	0	453	615
15	0	0	0	0	455	615
0	0	0	0	0	455	616
1	0	0	0	0	455	616
2	0	0	0	0	456	615
3	0	0	0	0	455	616
4	0	0	0	0	455	615
5	0	0	0	0	454	615
6	0	0	0	0	454	616
7	0	0	0	0	453	615
8	0	0	0	0	452	616
9	0	0	0	0	452	616
10	0	0	0	0	453	616
11	0	0	0	0	454	615
12	0	0	0	0	454	616
13	0	0	0	0	455	615
14	0	0	0	0	456	615
15	0	0	0	0	457	616
0	0	0	0	0	460	616
1	0	0	0	0	461	616
2	0	0	0	0	462	616
3	0	0	0	0	463	616
4	0	0	0	0	464	615
5	0	0	0	0	465	615
6	0	0	0	0	465	615
7	0	0	0	0	464	615
8	0	0	0	0	464	615
9	0	0	0	0	463	615
10	0	0	0	0	462	615
11	0	0	0	0	461	615
12	0	0	0	0	461	615
13	0	0	0	0	461	615
14	0	0	0	0	462	615
15	0	0	0	0	463	615
0	0	0	0	0	463	615
1	0	0	0	0	466	615
2	0	0	0	0	468	615
3	0	0	0	0	471	615
4	0	0	0	0	474	615
5	0	0	0	0	476	615
6	0	0	0	0	479	615
7	0	0	0	0	480	615
8	0	0	0	0	482	616
9	0	0	0	0	483	615
10	0	0	0	0	483	615
11	0	0	0	0	483	616
12	0	0	0	0	483	615
13	0	0	0	0	483	616
14	0	0	0	0	483	615
15	0	0	0	0	483	615
0	0	0	0	0	483	615
1	0	0	0	0	484	615
2	0	0	0	0	485	615
3	0	0	0	0	487	616
4	0	0	0	0	488	615
5	0	0	0	0	490	615
6	0	0	0	0	492	615
7	0	0	0	0	494	615
8	0	0	0	0	497	615
9	0	0	0	0	500	615
10	0	0	0	0	502	615
11	0	0	0	0	504	615
12	0	0	0	0	505	615
13	0	0	0	0	507	615
14	0	0	0	0	507	614
15	0	0	0	0	507	614
0	0	0	0	0	506	615
1	0	0	0	0	505	615
2	0	0	0	0	506	615
3	0	0	0	0	506	615
4	0	0	0	0	506	615
5	0	0	0	0	507	616
6	0	0	0	0	507	616
7	0	0	0	0	509	617
8	0	0	0	0	510	616
9	0	0	0	0	512	617
10	0	0	0	0	514	617
11	0	0	0	0	515	618
12	0	0	0	0	518	617
13	0	0	0	0	520	617
14	0	0	0	0	522	617
15	0	0	0	0	524	616
0	0	0	0	0	526	617
1	0	0	0	0	526	617
2	0	0	0	0	526	617
3	0	0	0	0	525	617
4	0	0	0	0	525	616
5	0	0	0	0	524	616
6	0	0	0	0	522	615
7	0	0	0	0	520	615
8	0	0	0	0	519	616
9	0	0	0	0	519	616
10	0	0	0	0	519	616
11	0	0	0	0	519	615
12	0	0	0	0	520	615
13	0	0	0	0	521	615
14	0	0	0	0	523	615
15	0	0	0	0	524	615
0	0	0	0	0	526	615
1	0	0	0	0	527	615
2	0	0	0	0	529	615
3	0	0	0	0	531	615
4	0	0	0	0	532	614
5	0	0	0	0	531	614
6	0	0	0	0	531	614
7	0	0	0	0	529	613
8	0	0	0	0	528	614
9	0	0	0	0	526	613
10	0	0	0	0	524	613
11	0	0	0	0	521	614
12	0	0	0	0	520	614
13	0	0	0	0	519	615
14	0	0	0	0	519	616
15	0	0	0	0	520	616
0	0	0	0	0	520	617
1	0	0	0	0	521	617
2	0	0	0	0	521	618
3	0	0	0	0	523	619
4	0	0	0	0	523	619
5	0	0	0	0	525	619
6	0	0	0	0	526	619
7	0	0	0	0	527	619
8	0	0	0	0	528	618
9	0	0	0	0	527	617
10	0	0	0	0	526	617
11	0	0	0	0	525	616
12	0	0	0	0	524	616
13	0	0	0	0	524	615
14	0	0	0	0	522	616
15	0	0	0	0	520	616
0	0	0	0	0	519	615
1	0	0	0	0	518	616
2	0	0	0	0	518	615
3	0	0	0	0	518	616
4	0	0	0	0	519	615
5	0	0	0	0	519	615
6	0	0	0	0	520	614
7	0	0	0	0	522	614
8	0	0	0	0	523	613
9	0	0	0	0	524	613
10	0	0	0	0	525	613
11	0	0	0	0	526	614
12	0	0	0	0	526	614
13	0	0	0	0	524	615
14	0	0	0	0	523	615
15	0	0	0	0	521	615
0	0	0	0	0	519	615
1	0	0	0	0	518	615
2	0	0	0	0	516	615
3	0	0	0	0	515	615
4	0	0	0	0	515	615
5	0	0	0	0	516	615
6	0	0	0	0	516	615
7	0	0	0	0	517	616
8	0	0	0	0	517	616
9	0	0	0	0	518	616
10	0	0	0	0	519	617
11	0	0	0	0	520	617
12	0	0	0	0	521	617
13	0	0	0	0	522	619
14	0	0	0	0	523	617
15	0	0	0	0	524	616
0	0	0	0	0	525	615
1	0	0	0	0	526	615
2	0	0	0	0	526	613
3	0	0	0	0	524	614
4	0	0	0	0	523	613
5	0	0	0	0	521	613
6	0	0	0	0	519	613
7	0	0	0	0	517	611
8	0	0	0	0	515	613
9	0	0	0	0	515	613
10	0	0	0	0	514	613
11	0	0	0	0	513	613
12	0	0	0	0	514	613
13	0	0	0	0	515	613
14	0	0	0	0	516	613
15	0	0	0	0	517	615
0	0	0	0	0	519	614
1	0	0	0	0	519	615
2	0	0	0	0	521	615
3	0	0	0	0	522	615
4	0	0	0	0	523	616
5	0	0	0	0	522	617
6	0	0	0	0	521	619
7	0	0	0	0	520	618
8	0	0	0	0	518	619
9	0	0	0	0	517	619
10	0	0	0	0	515	620
11	0	0	0	0	513	619
12	0	0	0	0	512	620
13	0	0	0	0	512	621
14	0	0	0	0	511	620
15	0	0	0	0	511	617
0	0	0	0	0	511	618
1	0	0	0	0	512	618
2	0	0	0	0	513	617
3	0	0	0	0	515	618
4	0	0	0	0	515	618
5	0	0	0	0	517	617
6	0	0	0	0	518	616
7	0	0	0	0	519	616
8	0	0	0	0	519	617
9	0	0	0	0	519	616
10	0	0	0	0	519	615
11	0	0	0	0	517	615
12	0	0	0	0	517	614
13	0	0	0	0	516	614
14	0	0	0	0	516	614
15	0	0	0	0	515	614
0	0	0	0	0	515	614
1	0	0	0	0	514	615
2	0	0	0	0	514	615
3	0	0	0	0	515	614
4	0	0	0	0	515	614
5	0	0	0	0	516	614
6	0	0	0	0	518	613
7	0	0	0	0	519	612
8	0	0	0	0	521	611
9	0	0	0	0	522	611
10	0	0	0	0	524	610
11	0	0	0	0	524	610
12	0	0	0	0	525	611
13	0	0	0	0	525	613
14	0	0	0	0	524	614
15	0	0	0	0	523	614
0	0	0	0	0	521	615
1	0	0	0	0	519	616
2	0	0	0	0	518	618
3	0	0	0	0	516	619
4	0	0	0	0	515	619
5	0	0	0	0	515	619
6	0	0	0	0	516	617
7	0	0	0	0	516	617
8	0	0	0	0	516	616
9	0	0	0	0	517	616
10	0	0	0	0	518	615
11	0	0	0	0	519	615
12	0	0	0	0	520	615
13	0	0	0	0	521	615
14	0	0	0	0	523	616
15	0	0	0	0	524	616
0	0	0	0	0	525	616
1	0	0	0	0	524	615
2	0	0	0	0	523	617
3	0	0	0	0	522	617
4	0	0	0	0	521	616
5	0	0	0	0	520	615
6	0	0	0	0	518	615
7	0	0	0	0	517	614
8	0	0	0	0	516	614
9	0	0	0	0	515	615
10	0	0	0	0	515	615
11	0	0	0	0	515	614
12	0	0	0	0	516	615
13	0	0	0	0	517	614
14	0	0	0	0	519	614
15	0	0	0	0	520	615
0	0	0	0	0	521	615
1	0	0	0	0	523	616
2	0	0	0	0	524	615
3	0	0	0	0	524	616
4	0	0	0	0	525	616
5	0	0	0	0	526	616
6	0	0	0	0	525	615
7	0	0	0	0	523	616
8	0	0	0	0	521	616
9	0	0	0	0	520	616
10	0	0	0	0	519	615
11	0	0	0	0	518	615
12	0	0	0	0	516	615
13	0	0	0	0	516	615
14	0	0	0	0	515	615
15	0	0	0	0	516	615
0	0	0	0	0	516	614
1	0	0	0	0	517	615
2	0	0	0	0	519	615
3	0	0	0	0	520	615
4	0	0	0	0	521	615
5	0	0	0	0	523	615
6	0	0	0	0	525	615
7	0	0	0	0	526	615
8	0	0	0	0	527	615
9	0	0	0	0	526	615
10	0	0	0	0	526	615
11	0	0	0	0	524	615
12	0	0	0	0	523	615
13	0	0	0	0	521	615
14	0	0	0	0	519	615
15	0	0	0	0	518	615
0	0	0	0	0	516	614
1	0	0	0	0	515	614
2	0	0	0	0	515	614
3	0	0	0	0	515	615
4	0	0	0	0	516	615
5	0	0	0	0	517	615
6	0	0	0	0	519	615
7	0	0	0	0	520	615
8	0	0	0	0	522	615
9	0	0	0	0	523	615
10	0	0	0	0	524	616
11	0	0	0	0	526	616
12	0	0	0	0	526	616
13	0	0	0	0	526	616
14	0	0	0	0	526	616
15	0	0	0	0	525	616
0	0	0	0	0	523	617
1	0	0	0	0	522	617
2	0	0	0	0	520	617
3	0	0	0	0	519	617
4	0	0	0	0	518	617
5	0	0	0	0	517	617
6	0	0	0	0	517	617
7	0	0	0	0	517	618
8	0	0	0	0	518	617
9	0	0	0	0	518	616
10	0	0	0	0	519	617
11	0	0	0	0	519	617
12	0	0	0	0	521	615
13	0	0	0	0	522	615
14	0	0	0	0	523	616
15	0	0	0	0	525	616
0	0	0	0	0	525	615
1	0	0	0	0	525	614
2	0	0	0	0	524	614
3	0	0	0	0	522	615
4	0	0	0	0	521	614
5	0	0	0	0	519	614
6	0	0	0	0	518	614
7	0	0	0	0	516	613
8	0	0	0	0	515	613
9	0	0	0	0	514	613
10	0	0	0	0	514	614
11	0	0	0	0	514	614
12	0	0	0	0	515	613
13	0	0	0	0	516	614
14	0	0	0	0	517	614
15	0	0	0	0	518	615
0	0	0	0	0	519	615
1	0	0	0	0	520	615
2	0	0	0	0	522	615
3	0	0	0	0	523	615
4	0	0	0	0	523	615
5	0	0	0	0	524	615
6	0	0	0	0	523	616
7	0	0	0	0	521	617
8	0	0	0	0	520	616
9	0	0	0	0	518	616
10	0	0	0	0	515	617
11	0	0	0	0	513	617
12	0	0	0	0	512	616
13	0	0	0	0	511	617
14	0	0	0	0	511	617
15	0	0	0	0	511	617
0	0	0	0	0	511	616
1	0	0	0	0	511	617
2	0	0	0	0	512	616
3	0	0	0	0	513	616
4	0	0	0	0	514	615
5	0	0	0	0	515	615
6	0	0	0	0	515	615
7	0	0	0	0	516	615
8	0	0	0	0	515	615
9	0	0	0	0	514	615
10	0	0	0	0	513	614
11	0	0	0	0	512	614
12	0	0	0	0	510	615
13	0	0	0	0	508	615
14	0	0	0	0	507	614
15	0	0	0	0	505	615
0	0	0	0	0	505	614
1	0	0	0	0	506	615
2	0	0	0	0	505	615
3	0	0	0	0	507	615
4	0	0	0	0	507	615
5	0	0	0	0	508	615
6	0	0	0	0	509	615
7	0	0	0	0	510	615
8	0	0	0	0	510	615
9	0	0	0	0	511	616
10	0	0	0	0	512	615
11	0	0	0	0	513	616
12	0	0	0	0	513	616
13	0	0	0	0	513	615
14	0	0	0	0	513	616
15	0	0	0	0	513	616
0	0	0	0	0	512	616
1	0	0	0	0	512	616
2	0	0	0	0	510	616
3	0	0	0	0	510	616
4	0	0	0	0	509	615
5	0	0	0	0	509	616
6	0	0	0	0	510	615
7	0	0	0	0	511	615
8	0	0	0	0	512	615
9	0	0	0	0	513	615
10	0	0	0	0	515	615
11	0	0	0	0	516	615
12	0	0	0	0	518	614
13	0	0	0	0	519	615
14	0	0	0	0	521	615
15	0	0	0	0	522	615
0	0	0	0	0	522	615
1	0	0	0	0	522	615
2	0	0	0	0	521	614
3	0	0	0	0	519	615
4	0	0	0	0	518	615
5	0	0	0	0	516	615
6	0	0	0	0	514	615
7	0	0	0	0	513	615
8	0	0	0	0	513	615
9	0	0	0	0	513	615
10	0	0	0	0	514	615
11	0	0	0	0	514	616
12	0	0	0	0	515	615
13	0	0	0	0	516	616
14	0	0	0	0	518	616
15	0	0	0	0	519	616
0	0	0	0	0	520	615
1	0	0	0	0	521	616
2	0	0	0	0	521	616
3	0	0	0	0	521	616
4	0	0	0	0	521	616
5	0	0	0	0	520	616
6	0	0	0	0	519	616
7	0	0	0	0	518	615
8	0	0	0	0	516	615
9	0	0	0	0	515	615
10	0	0	0	0	513	615
11	0	0	0	0	512	615
12	0	0	0	0	511	615
13	0	0	0	0	511	615
14	0	0	0	0	511	615
15	0	0	0	0	512	615
0	0	0	0	0	513	615
1	0	0	0	0	514	615
2	0	0	0	0	515	615
3	0	0	0	0	517	614
4	0	0	0	0	519	614
5	0	0	0	0	520	614
6	0	0	0	0	521	614
7	0	0	0	0	523	615
8	0	0	0	0	523	615
9	0	0	0	0	522	615
10	0	0	0	0	521	615
11	0	0	0	0	520	615
12	0	0	0	0	519	615
13	0	0	0	0	517	615
14	0	0	0	0	515	615
15	0	0	0	0	514	615
0	0	0	0	0	513	615
1	0	0	0	0	512	616
2	0	0	0	0	511	616
3	0	0	0	0	511	615
4	0	0	0	0	512	615
5	0	0	0	0	513	615
6	0	0	0	0	514	615
7	0	0	0	0	515	616
8	0	0	0	0	516	616
9	0	0	0	0	517	615
10	0	0	0	0	517	615
11	0	0	0	0	518	615
12	0	0	0	0	517	615
13	0	0	0	0	517	615
14	0	0	0	0	516	615
15	0	0	0	0	515	615
0	0	0	0	0	513	615
1	0	0	0	0	511	615
2	0	0	0	0	510	615
3	0	0	0	0	508	615
4	0	0	0	0	507	615
5	0	0	0	0	507	615
6	0	0	0	0	507	615
7	0	0	0	0	507	615
8	0	0	0	0	507	615
9	0	0	0	0	507	615
10	0	0	0	0	509	615
11	0	0	0	0	509	615
12	0	0	0	0	508	615
13	0	0	0	0	507	615
14	0	0	0	0	505	615
15	0	0	0	0	501	615
0	0	0	0	0	495	616
1	0	0	0	0	486	616
2	0	0	0	0	476	615
3	0	0	0	0	463	615
4	0	0	0	0	450	615
5	0	0	0	0	438	615
6	0	0	0	0	426	616
7	0	0	0	0	415	616
8	0	0	0	0	404	616
9	0	0	0	0	396	616
10	0	0	0	0	390	616
11	0	0	0	0	387	616
12	0	0	0	0	386	615
13	0	0	0	0	387	615
14	0	0	0	0	390	615
15	0	0	0	0	395	615
0	0	0	0	0	402	615
1	0	0	0	0	409	615
2	0	0	0	0	417	615
3	0	0	0	0	424	615
4	0	0	0	0	429	615
5	0	0	0	0	433	615
6	0	0	0	0	440	615
7	0	0	0	0	454	615
8	0	0	0	0	474	615
9	0	0	0	0	499	615
10	0	0	0	0	530	615
11	0	0	0	0	569	615
12	0	0	0	0	617	615
13	0	0	0	0	670	615
14	0	0	0	0	724	615
15	0	0	0	0	783	616
0	0	0	0	0	841	615
1	0	0	0	0	896	615
2	0	0	0	0	943	615
3	0	0	0	0	982	616
4	0	0	0	0	1011	615
5	0	0	0	0	1022	615
6	0	0	0	0	1022	615
7	0	0	0	0	1022	615
8	0	0	0	0	1022	615
9	0	0	0	0	1022	615
10	0	0	0	0	1022	615
11	0	0	0	0	1022	615
12	0	0	0	0	1022	615
13	0	0	0	0	1003	615
14	0	0	0	0	975	615
15	0	0	0	0	944	615
0	0	0	0	0	910	615
1	0	0	0	0	873	615
2	0	0	0	0	835	615
3	0	0	0	0	801	615
4	0	0	0	0	770	615
5	0	0	0	0	743	615
6	0	0	0	0	718	615
7	0	0	0	0	696	615
8	0	0	0	0	676	615
9	0	0	0	0	657	615
10	0	0	0	0	641	616
11	0	0	0	0	627	616
12	0	0	0	0	612	615
13	0	0	0	0	596	615
14	0	0	0	0	580	615
15	0	0	0	0	563	615
0	0	0	0	0	547	616
1	0	0	0	0	530	615
2	0	0	0	0	514	615
3	0	0	0	0	498	615
4	0	0	0	0	483	615
5	0	0	0	0	471	615
6	0	0	0	0	458	615
7	0	0	0	0	447	615
8	0	0	0	0	437	615
9	0	0	0	0	428	615
10	0	0	0	0	422	615
11	0	0	0	0	416	616
12	0	0	0	0	411	615
13	0	0	0	0	406	615
14	0	0	0	0	402	615
15	0	0	0	0	399	616
0	0	0	0	0	395	615
1	0	0	0	0	391	616
2	0	0	0	0	388	616
3	0	0	0	0	384	616
4	0	0	0	0	380	616
5	0	0	0	0	377	616
6	0	0	0	0	376	615
7	0	0	0	0	374	616
8	0	0	0	0	372	616
9	0	0	0	0	371	616
10	0	0	0	0	370	616
11	0	0	0	0	370	616
12	0	0	0	0	371	616
13	0	0	0	0	371	615
14	0	0	0	0	373	615
15	0	0	0	0	375	614
0	0	0	0	0	377	615
1	0	0	0	0	380	615
2	0	0	0	0	382	615
3	0	0	0	0	384	615
4	0	0	0	0	384	615
5	0	0	0	0	385	614
6	0	0	0	0	385	615
7	0	0	0	0	385	615
8	0	0	0	0	384	615
9	0	0	0	0	384	614
10	0	0	0	0	383	615
11	0	0	0	0	383	615
12	0	0	0	0	382	615
13	0	0	0	0	382	615
14	0	0	0	0	384	615
15	0	0	0	0	384	615
0	0	0	0	0	385	614
1	0	0	0	0	387	614
2	0	0	0	0	389	615
3	0	0	0	0	391	615
4	0	0	0	0	394	615
5	0	0	0	0	397	614
6	0	0	0	0	400	615
7	0	0	0	0	402	615
8	0	0	0	0	403	615
9	0	0	0	0	405	615
10	0	0	0	0	405	616
11	0	0	0	0	404	616
12	0	0	0	0	403	616
13	0	0	0	0	402	616
14	0	0	0	0	400	616
15	0	0	0	0	399	617
0	0	0	0	0	399	616
1	0	0	0	0	399	616
2	0	0	0	0	399	616
3	0	0	0	0	401	617
4	0	0	0	0	403	616
5	0	0	0	0	406	616
6	0	0	0	0	408	615
7	0	0	0	0	411	616
8	0	0	0	0	413	615
9	0	0	0	0	415	615
10	0	0	0	0	417	615
11	0	0	0	0	419	615
12	0	0	0	0	419	615
13	0	0	0	0	420	614
14	0	0	0	0	420	614
15	0	0	0	0	419	614
0	0	0	0	0	419	615
1	0	0	0	0	418	615
2	0	0	0	0	417	615
3	0	0	0	0	416	615
4	0	0	0	0	415	614
5	0	0	0	0	415	615
6	0	0	0	0	415	615
7	0	0	0	0	416	615
8	0	0	0	0	417	615
9	0	0	0	0	418	615
10	0	0	0	0	420	615
11	0	0	0	0	422	615
12	0	0	0	0	424	616
13	0	0	0	0	426	616
14	0	0	0	0	428	615
15	0	0	0	0	430	616
0	0	0	0	0	431	615
1	0	0	0	0	431	615
2	0	0	0	0	431	615
3	0	0	0	0	430	616
4	0	0	0	0	428	616
5	0	0	0	0	427	615
6	0	0	0	0	425	615
7	0	0	0	0	423	615
8	0	0	0	0	422	615
9	0	0	0	0	422	615
10	0	0	0	0	422	614
11	0	0	0	0	423	614
12	0	0	0	0	424	615
13	0	0	0	0	425	615
14	0	0	0	0	427	615
15	0	0	0	0	428	615
0	0	0	0	0	431	615
1	0	0	0	0	433	614
2	0	0	0	0	435	615
3	0	0	0	0	436	615
4	0	0	0	0	437	616
5	0	0	0	0	437	615
6	0	0	0	0	436	615
7	0	0	0	0	435	615
8	0	0	0	0	433	615
9	0	0	0	0	431	615
10	0	0	0	0	429	616
11	0	0	0	0	428	617
12	0	0	0	0	427	617
13	0	0	0	0	427	615
14	0	0	0	0	427	615
15	0	0	0	0	428	616
0	0	0	0	0	429	617
1	0	0	0	0	431	615
2	0	0	0	0	432	615
3	0	0	0	0	434	615
4	0	0	0	0	435	615
5	0	0	0	0	437	615
6	0	0	0	0	438	614
7	0	0	0	0	439	615
8	0	0	0	0	440	615
9	0	0	0	0	439	614
10	0	0	0	0	438	614
11	0	0	0	0	436	615
12	0	0	0	0	434	615
13	0	0	0	0	433	615
14	0	0	0	0	431	615
15	0	0	0	0	430	615
0	0	0	0	0	430	615
1	0	0	0	0	429	615
2	0	0	0	0	430	615
3	0	0	0	0	430	616
4	0	0	0	0	431	615
5	0	0	0	0	432	615
6	0	0	0	0	434	616
7	0	0	0	0	435	616
8	0	0	0	0	438	616
9	0	0	0	0	440	616
10	0	0	0	0	441	616
11	0	0	0	0	443	616
12	0	0	0	0	444	616
13	0	0	0	0	444	615
14	0	0	0	0	445	616
15	0	0	0	0	444	616
0	0	0	0	0	444	616
1	0	0	0	0	443	615
2	0	0	0	0	443	616
3	0	0	0	0	442	615
4	0	0	0	0	442	615
5	0	0	0	0	442	616
6	0	0	0	0	442	616
7	0	0	0	0	443	615
8	0	0	0	0	445	614
9	0	0	0	0	447	615
10	0	0	0	0	449	615
11	0	0	0	0	451	615
12	0	0	0	0	454	615
13	0	0	0	0	457	615
14	0	0	0	0	459	614
15	0	0	0	0	462	615
0	0	0	0	0	463	615
1	0	0	0	0	464	615
2	0	0	0	0	464	615
3	0	0	0	0	464	615
4	0	0	0	0	464	615
5	0	0	0	0	463	615
6	0	0	0	0	463	615
7	0	0	0	0	463	615
8	0	0	0	0	463	615
9	0	0	0	0	464	615
10	0	0	0	0	465	615
11	0	0	0	0	467	616
12	0	0	0	0	470	615
13	0	0	0	0	472	616
14	0	0	0	0	475	615
15	0	0	0	0	478	615
0	0	0	0	0	482	616
1	0	0	0	0	484	616
2	0	0	0	0	487	616
3	0	0	0	0	489	616
4	0	0	0	0	491	616
5	0	0	0	0	493	616
6	0	0	0	0	494	615
7	0	0	0	0	494	615
8	0	0	0	0	495	616
9	0	0	0	0	494	616
10	0	0	0	0	494	616
11	0	0	0	0	494	615
12	0	0	0	0	494	615
13	0	0	0	0	495	615
14	0	0	0	0	496	616
15	0	0	0	0	497	616
0	0	0	0	0	499	616
1	0	0	0	0	502	615
2	0	0	0	0	505	615
3	0	0	0	0	508	615
4	0	0	0	0	511	615
5	0	0	0	0	514	615
6	0	0	0	0	517	615
7	0	0	0	0	519	615
8	0	0	0	0	520	615
9	0	0	0	0	521	615
10	0	0	0	0	523	615
11	0	0	0	0	522	616
12	0	0	0	0	522	615
13	0	0	0	0	521	616
14	0	0	0	0	521	616
15	0	0	0	0	521	616
0	0	0	0	0	521	616
1	0	0	0	0	521	616
2	0	0	0	0	522	616
3	0	0	0	0	524	616
4	0	0	0	0	526	616
5	0	0	0	0	528	616
6	0	0	0	0	531	615
7	0	0	0	0	534	615
8	0	0	0	0	536	615
9	0	0	0	0	540	615
10	0	0	0	0	542	615
11	0	0	0	0	544	615
12	0	0	0	0	546	615
13	0	0	0	0	548	615
14	0	0	0	0	548	615
15	0	0	0	0	547	615
0	0	0	0	0	547	615
1	0	0	0	0	545	615
2	0	0	0	0	544	615
3	0	0	0	0	542	615
4	0	0	0	0	541	615
5	0	0	0	0	541	615
6	0	0	0	0	540	615
7	0	0	0	0	541	615
8	0	0	0	0	542	615
9	0	0	0	0	544	615
10	0	0	0	0	547	615
11	0	0	0	0	549	615
12	0	0	0	0	552	615
13	0	0	0	0	555	615
14	0	0	0	0	556	615
15	0	0	0	0	558	615
0	0	0	0	0	559	615
1	0	0	0	0	559	615
2	0	0	0	0	558	616
3	0	0	0	0	557	615
4	0	0	0	0	556	616
5	0	0	0	0	553	616
6	0	0	0	0	551	615
7	0	0	0	0	550	616
8	0	0	0	0	549	615
9	0	0	0	0	548	616
10	0	0	0	0	548	616
11	0	0	0	0	549	616
12	0	0	0	0	550	615
13	0	0	0	0	551	616
14	0	0	0	0	552	616
15	0	0	0	0	553	615
0	0	0	0	0	555	616
1	0	0	0	0	556	616
2	0	0	0	0	557	616
3	0	0	0	0	559	616
4	0	0	0	0	559	615
5	0	0	0	0	558	615
6	0	0	0	0	557	615
7	0	0	0	0	555	615
8	0	0	0	0	553	615
9	0	0	0	0	551	615
10	0	0	0	0	549	615
11	0	0	0	0	546	616
12	0	0	0	0	543	615
13	0	0	0	0	543	615
14	0	0	0	0	542	615
15	0	0	0	0	541	615
0	0	0	0	0	541	615
1	0	0	0	0	542	615
2	0	0	0	0	543	615
3	0	0	0	0	544	615
4	0	0	0	0	546	615
5	0	0	0	0	548	615
6	0	0	0	0	550	615
7	0	0	0	0	550	615
8	0	0	0	0	550	615
9	0	0	0	0	549	615
10	0	0	0	0	547	615
11	0	0	0	0	545	615
12	0	0	0	0	543	615
13	0	0	0	0	540	615
14	0	0	0	0	537	615
15	0	0	0	0	535	615
0	0	0	0	0	532	615
1	0	0	0	0	531	615
2	0	0	0	0	530	616
3	0	0	0	0	530	615
4	0	0	0	0	531	616
5	0	0	0	0	532	615
6	0	0	0	0	533	615
7	0	0	0	0	535	615
8	0	0	0	0	536	615
9	0	0	0	0	537	615
10	0	0	0	0	537	615
11	0	0	0	0	539	615
12	0	0	0	0	539	615
13	0	0	0	0	539	616
14	0	0	0	0	539	615
15	0	0	0	0	536	615
0	0	0	0	0	534	615
1	0	0	0	0	532	615
2	0	0	0	0	530	616
3	0	0	0	0	528	616
4	0	0	0	0	526	615
5	0	0	0	0	525	615
6	0	0	0	0	525	616
7	0	0	0	0	525	615
8	0	0	0	0	525	616
9	0	0	0	0	526	615
10	0	0	0	0	527	616
11	0	0	0	0	529	616
12	0	0	0	0	530	615
13	0	0	0	0	532	615
14	0	0	0	0	534	615
15	0	0	0	0	535	616
0	0	0	0	0	535	616
1	0	0	0	0	535	615
2	0	0	0	0	534	615
3	0	0	0	0	532	615
4	0	0	0	0	531	615
5	0	0	0	0	528	615
6	0	0	0	0	526	615
7	0	0	0	0	524	615
8	0	0	0	0	523	615
9	0	0	0	0	523	615
10	0	0	0	0	522	615
11	0	0	0	0	522	615
12	0	0	0	0	522	615
13	0	0	0	0	524	615
14	0	0	0	0	526	615
15	0	0	0	0	527	615
0	0	0	0	0	529	615
1	0	0	0	0	531	615
2	0	0	0	0	532	615
3	0	0	0	0	534	615
4	0	0	0	0	535	615
5	0	0	0	0	535	615
6	0	0	0	0	535	615
7	0	0	0	0	533	615
8	0	0	0	0	531	615
9	0	0	0	0	529	615
10	0	0	0	0	527	615
11	0	0	0	0	525	615
12	0	0	0	0	524	615
13	0	0	0	0	523	615
14	0	0	0	0	522	615
15	0	0	0	0	523	615
0	0	0	0	0	524	615
1	0	0	0	0	526	615
2	0	0	0	0	527	615
3	0	0	0	0	528	616
4	0	0	0	0	530	615
5	0	0	0	0	532	615
6	0	0	0	0	534	615
7	0	0	0	0	535	615
8	0	0	0	0	535	616
9	0	0	0	0	535	615
10	0	0	0	0	534	616
11	0	0	0	0	532	616
12	0	0	0	0	530	615
13	0	0	0	0	527	615
14	0	0	0	0	525	615
15	0	0	0	0	524	615
0	0	0	0	0	523	615
1	0	0	0	0	523	615
2	0	0	0	0	523	615
3	0	0	0	0	524	615
4	0	0	0	0	525	616
5	0	0	0	0	526	615
6	0	0	0	0	527	615
7	0	0	0	0	529	615
8	0	0	0	0	531	615
9	0	0	0	0	532	615
10	0	0	0	0	534	615
11	0	0	0	0	535	615
12	0	0	0	0	535	615
13	0	0	0	0	535	615
14	0	0	0	0	535	615
15	0	0	0	0	533	615
0	0	0	0	0	532	615
1	0	0	0	0	530	615
2	0	0	0	0	527	615
3	0	0	0	0	525	615
4	0	0	0	0	524	615
5	0	0	0	0	523	616
6	0	0	0	0	522	615
7	0	0	0	0	523	616
8	0	0	0	0	524	616
9	0	0	0	0	525	616
10	0	0	0	0	526	616
11	0	0	0	0	527	616
12	0	0	0	0	529	615
13	0	0	0	0	531	616
14	0	0	0	0	533	615
15	0	0	0	0	534	616
0	0	0	0	0	535	615
1	0	0	0	0	535	616
2	0	0	0	0	535	615
3	0	0	0	0	533	615
4	0	0	0	0	531	615
5	0	0	0	0	529	615
6	0	0	0	0	527	616
7	0	0	0	0	525	615
8	0	0	0	0	524	615
9	0	0	0	0	523	615
10	0	0	0	0	523	615
11	0	0	0	0	523	615
12	0	0	0	0	524	615
13	0	0	0	0	526	615
14	0	0	0	0	527	615
15	0	0	0	0	529	615
0	0	0	0	0	531	615
1	0	0	0	0	532	615
2	0	0	0	0	533	615
3	0	0	0	0	534	615
4	0	0	0	0	534	615
5	0	0	0	0	534	615
6	0	0	0	0	533	616
7	0	0	0	0	531	615
8	0	0	0	0	529	616
9	0	0	0	0	526	615
10	0	0	0	0	524	615
11	0	0	0	0	523	616
12	0	0	0	0	521	615
13	0	0	0	0	521	615
14	0	0	0	0	519	615
15	0	0	0	0	519	615
0	0	0	0	0	519	615
1	0	0	0	0	520	615
2	0	0	0	0	521	616
3	0	0	0	0	523	615
4	0	0	0	0	525	615
5	0	0	0	0	526	615
6	0	0	0	0	528	615
7	0	0	0	0	529	615
8	0	0	0	0	530	615
9	0	0	0	0	529	615
10	0	0	0	0	528	615
11	0	0	0	0	527	615
12	0	0	0	0	526	615
13	0	0	0	0	524	615
14	0	0	0	0	521	615
15	0	0	0	0	519	615
0	0	0	0	0	516	615
1	0	0	0	0	515	616
2	0	0	0	0	513	615
3	0	0	0	0	513	615
4	0	0	0	0	513	615
5	0	0	0	0	515	615
6	0	0	0	0	516	615
7	0	0	0	0	518	615
8	0	0	0	0	519	615
9	0	0	0	0	521	615
10	0	0	0	0	523	615
11	0	0	0	0	523	616
12	0	0	0	0	522	615
13	0	0	0	0	522	615
14	0	0	0	0	521	615
15	0	0	0	0	519	615
0	0	0	0	0	518	616
1	0	0	0	0	515	615
2	0	0	0	0	513	615
3	0	0	0	0	511	615
4	0	0	0	0	509	615
5	0	0	0	0	508	615
6	0	0	0	0	508	615
7	0	0	0	0	507	615
8	0	0	0	0	507	615
9	0	0	0	0	508	615
10	0	0	0	0	510	615
11	0	0	0	0	512	615
12	0	0	0	0	514	615
13	0	0	0	0	515	615
14	0	0	0	0	516	615
15	0	0	0	0	517	615
0	0	0	0	0	518	615
1	0	0	0	0	517	615
2	0	0	0	0	516	615
3	0	0	0	0	515	615
4	0	0	0	0	513	615
5	0	0	0	0	511	615
6	0	0	0	0	509	615
7	0	0	0	0	508	615
8	0	0	0	0	507	615
9	0	0	0	0	507	615
10	0	0	0	0	507	615
11	0	0	0	0	508	615
12	0	0	0	0	509	616
13	0	0	0	0	511	615
14	0	0	0	0	514	616
15	0	0	0	0	516	615
0	0	0	0	0	519	615
1	0	0	0	0	521	615
2	0	0	0	0	524	615
3	0	0	0	0	525	615
4	0	0	0	0	525	615
5	0	0	0	0	525	615
6	0	0	0	0	525	615
7	0	0	0	0	524	615
8	0	0	0	0	522	616
9	0	0	0	0	520	615
10	0	0	0	0	518	615
11	0	0	0	0	516	615
12	0	0	0	0	514	615
13	0	0	0	0	513	616
14	0	0	0	0	512	615
15	0	0	0	0	512	616
0	0	0	0	0	512	615
1	0	0	0	0	514	615
2	0	0	0	0	515	615
3	0	0	0	0	516	615
4	0	0	0	0	519	615
5	0	0	0	0	521	615
6	0	0	0	0	522	615
7	0	0	0	0	523	614
8	0	0	0	0	523	614
9	0	0	0	0	523	615
10	0	0	0	0	522	615
11	0	0	0	0	520	615
12	0	0	0	0	519	615
13	0	0	0	0	517	615
14	0	0	0	0	515	615
15	0	0	0	0	513	615
0	0	0	0	0	512	615
1	0	0	0	0	512	615
2	0	0	0	0	511	615
3	0	0	0	0	512	616
4	0	0	0	0	512	615
5	0	0	0	0	513	615
6	0	0	0	0	515	616
7	0	0	0	0	517	616
8	0	0	0	0	518	616
9	0	0	0	0	520	615
10	0	0	0	0	522	616
11	0	0	0	0	523	616
12	0	0	0	0	523	615
13	0	0	0	0	523	616
14	0	0	0	0	521	615
15	0	0	0	0	519	615
0	0	0	0	0	518	616
1	0	0	0	0	515	615
2	0	0	0	0	514	615
3	0	0	0	0	512	615
4	0	0	0	0	511	615
5	0	0	0	0	510	615
6	0	0	0	0	509	615
7	0	0	0	0	510	615
8	0	0	0	0	510	615
9	0	0	0	0	511	615
10	0	0	0	0	512	615
11	0	0	0	0	513	615
12	0	0	0	0	514	615
13	0	0	0	0	516	615
14	0	0	0	0	518	614
15	0	0	0	0	519	614
0	0	0	0	0	519	615
1	0	0	0	0	518	615
2	0	0	0	0	518	615
3	0	0	0	0	516	615
4	0	0	0	0	514	615
5	0	0	0	0	512	615
6	0	0	0	0	511	615
7	0	0	0	0	509	616
8	0	0	0	0	507	616
9	0	0	0	0	507	616
10	0	0	0	0	507	616
11	0	0	0	0	508	617
12	0	0	0	0	508	616
13	0	0	0	0	508	616
14	0	0	0	0	510	616
15	0	0	0	0	512	616
0	0	0	0	0	512	616
1	0	0	0	0	513	616
2	0	0	0	0	514	615
3	0	0	0	0	515	616
4	0	0	0	0	514	616
5	0	0	0	0	512	616
6	0	0	0	0	509	616
7	0	0	0	0	503	616
8	0	0	0	0	497	616
9	0	0	0	0	487	615
10	0	0	0	0	477	615
11	0	0	0	0	465	615
12	0	0	0	0	454	614
13	0	0	0	0	441	615
14	0	0	0	0	430	615
15	0	0	0	0	420	615
0	0	0	0	0	410	614
1	0	0	0	0	402	615
2	0	0	0	0	397	615
3	0	0	0	0	394	615
4	0	0	0	0	393	615
5	0	0	0	0	394	615
6	0	0	0	0	396	615
7	0	0	0	0	399	615
8	0	0	0	0	404	615
9	0	0	0	0	410	615
10	0	0	0	0	417	615
11	0	0	0	0	422	616
12	0	0	0	0	426	616
13	0	0	0	0	429	615
14	0	0	0	0	432	616
15	0	0	0	0	438	616
0	0	0	0	0	452	616
1	0	0	0	0	475	616
2	0	0	0	0	502	616
3	0	0	0	0	535	616
4	0	0	0	0	576	615
5	0	0	0	0	626	616
6	0	0	0	0	681	616
7	0	0	0	0	738	616
8	0	0	0	0	798	616
9	0	0	0	0	857	616
10	0	0	0	0	910	615
11	0	0	0	0	954	615
12	0	0	0	0	989	615
13	0	0	0	0	1016	615
14	0	0	0	0	1022	615
15	0	0	0	0	1022	615
0	0	0	0	0	1022	615
1	0	0	0	0	1022	615
2	0	0	0	0	1022	615
3	0	0	0	0	1022	615
4	0	0	0	0	1021	615
5	0	0	0	0	1003	615
6	0	0	0	0	979	615
7	0	0	0	0	953	615
8	0	0	0	0	923	615
9	0	0	0	0	889	615
10	0	0	0	0	854	615
11	0	0	0	0	821	615
12	0	0	0	0	790	615
13	0	0	0	0	762	615
14	0	0	0	0	737	615
15	0	0	0	0	713	615
0	0	0	0	0	691	615
1	0	0	0	0	670	615
2	0	0	0	0	651	616
3	0	0	0	0	633	615
4	0	0	0	0	616	615
5	0	0	0	0	599	616
6	0	0	0	0	581	616
7	0	0	0	0	564	616
8	0	0	0	0	549	616
9	0	0	0	0	533	616
10	0	0	0	0	518	616
11	0	0	0	0	505	616
12	0	0	0	0	492	615
13	0	0	0	0	480	615
14	0	0	0	0	470	616
15	0	0	0	0	460	615
0	0	0	0	0	451	615
1	0	0	0	0	443	615
2	0	0	0	0	436	615
3	0	0	0	0	429	615
4	0	0	0	0	423	615
5	0	0	0	0	417	615
6	0	0	0	0	411	615
7	0	0	0	0	404	615
8	0	0	0	0	398	615
9	0	0	0	0	391	615
10	0	0	0	0	386	615
11	0	0	0	0	383	615
12	0	0	0	0	379	614
13	0	0	0	0	377	615
14	0	0	0	0	376	615
15	0	0	0	0	375	615
0	0	0	0	0	374	615
1	0	0	0	0	375	615
2	0	0	0	0	376	615
3	0	0	0	0	376	615
4	0	0	0	0	379	615
5	0	0	0	0	380	615
6	0	0	0	0	382	615
7	0	0	0	0	384	615
8	0	0	0	0	384	616
9	0	0	0	0	385	615
10	0	0	0	0	384	615
11	0	0	0	0	383	615
12	0	0	0	0	382	616
13	0	0	0	0	381	616
14	0	0	0	0	379	616
15	0	0	0	0	377	616
0	0	0	0	0	376	615
1	0	0	0	0	377	616
2	0	0	0	0	379	615
3	0	0	0	0	380	615
4	0	0	0	0	380	616
5	0	0	0	0	383	615
6	0	0	0	0	385	615
7	0	0	0	0	388	616
8	0	0	0	0	391	616
9	0	0	0	0	393	615
10	0	0	0	0	396	615
11	0	0	0	0	399	616
12	0	0	0	0	400	615
13	0	0	0	0	400	616
14	0	0	0	0	400	615
15	0	0	0	0	399	615
0	0	0	0	0	398	615
1	0	0	0	0	397	615
2	0	0	0	0	396	615
3	0	0	0	0	396	615
4	0	0	0	0	396	615
5	0	0	0	0	396	615
6	0	0	0	0	396	615
7	0	0	0	0	397	615
8	0	0	0	0	399	615
9	0	0	0	0	401	615
10	0	0	0	0	403	615
11	0	0	0	0	406	615
12	0	0	0	0	409	615
13	0	0	0	0	411	615
14	0	0	0	0	414	615
15	0	0	0	0	416	615
0	0	0	0	0	417	615
1	0	0	0	0	418	615
2	0	0	0	0	418	615
3	0	0	0	0	418	616
4	0	0	0	0	417	616
5	0	0	0	0	415	616
6	0	0	0	0	414	616
7	0	0	0	0	412	616
8	0	0	0	0	412	616
9	0	0	0	0	412	616
10	0	0	0	0	412	616
11	0	0	0	0	413	615
12	0	0	0	0	414	615
13	0	0	0	0	417	616
14	0	0	0	0	419	616
15	0	0	0	0	422	615
0	0	0	0	0	424	615
1	0	0	0	0	427	615
2	0	0	0	0	430	615
3	0	0	0	0	432	615
4	0	0	0	0	433	614
5	0	0	0	0	433	615
6	0	0	0	0	433	615
7	0	0	0	0	432	615
8	0	0	0	0	430	615
9	0	0	0	0	428	615
10	0	0	0	0	426	615
11	0	0	0	0	425	615
12	0	0	0	0	424	615
13	0	0	0	0	424	615
14	0	0	0	0	424	615
15	0	0	0	0	425	615
0	0	0	0	0	426	615
1	0	0	0	0	428	615
2	0	0	0	0	429	615
3	0	0	0	0	431	616
4	0	0	0	0	433	615
5	0	0	0	0	435	615
6	0	0	0	0	437	615
7	0	0	0	0	439	615
8	0	0	0	0	439	615
9	0	0	0	0	439	615
10	0	0	0	0	438	615
11	0	0	0	0	437	616
12	0	0	0	0	436	616
13	0	0	0	0	434	616
14	0	0	0	0	432	616
15	0	0	0	0	431	616
0	0	0	0	0	430	616
1	0	0	0	0	430	616
2	0	0	0	0	430	616
3	0	0	0	0	430	616
4	0	0	0	0	431	616
5	0	0	0	0	432	616
6	0	0	0	0	434	616
7	0	0	0	0	435	616
8	0	0	0	0	438	616
9	0	0	0	0	440	615
10	0	0	0	0	441	615
11	0	0	0	0	443	615
12	0	0	0	0	444	616
13	0	0	0	0	444	615
14	0	0	0	0	444	615
15	0	0	0	0	441	615
0	0	0	0	0	439	615
1	0	0	0	0	437	615
2	0	0	0	0	435	615
3	0	0	0	0	433	615
4	0	0	0	0	431	615
5	0	0	0	0	430	615
6	0	0	0	0	429	615
7	0	0	0	0	430	615
8	0	0	0	0	431	615
9	0	0	0	0	432	615
10	0	0	0	0	435	615
11	0	0	0	0	437	615
12	0	0	0	0	440	615
13	0	0	0	0	442	615
14	0	0	0	0	444	615
15	0	0	0	0	445	615
0	0	0	0	0	446	616
1	0	0	0	0	445	615
2	0	0	0	0	444	616
3	0	0	0	0	442	615
4	0	0	0	0	441	615
5	0	0	0	0	440	616
6	0	0	0	0	438	615
7	0	0	0	0	437	615
8	0	0	0	0	436	616
9	0	0	0	0	436	616
10	0	0	0	0	436	616
11	0	0	0	0	438	616
12	0	0	0	0	440	615
13	0	0	0	0	442	615
14	0	0	0	0	445	615
15	0	0	0	0	448	615
0	0	0	0	0	450	615
1	0	0	0	0	453	615
2	0	0	0	0	456	615
3	0	0	0	0	459	615
4	0	0	0	0	460	615
5	0	0	0	0	461	615
6	0	0	0	0	462	615
7	0	0	0	0	461	615
8	0	0	0	0	461	615
9	0	0	0	0	460	615
10	0	0	0	0	460	615
11	0	0	0	0	460	615
12	0	0	0	0	459	615
13	0	0	0	0	460	615
14	0	0	0	0	460	615
15	0	0	0	0	462	615
0	0	0	0	0	465	616
1	0	0	0	0	467	615
2	0	0	0	0	470	615
3	0	0	0	0	473	616
4	0	0	0	0	477	615
5	0	0	0	0	481	616
6	0	0	0	0	484	616
7	0	0	0	0	487	616
8	0	0	0	0	487	615
9	0	0	0	0	488	616
10	0	0	0	0	489	616
11	0	0	0	0	489	616
12	0	0	0	0	488	616
13	0	0	0	0	488	616
14	0	0	0	0	487	616
15	0	0	0	0	487	616
0	0	0	0	0	487	615
1	0	0	0	0	487	616
2	0	0	0	0	489	616
3	0	0	0	0	491	615
4	0	0	0	0	493	615
5	0	0	0	0	496	615
6	0	0	0	0	498	615
7	0	0	0	0	501	615
8	0	0	0	0	505	615
9	0	0	0	0	509	615
10	0	0	0	0	512	615
11	0	0	0	0	515	615
12	0	0	0	0	516	615
13	0	0	0	0	517	615
14	0	0	0	0	517	615
15	0	0	0	0	515	615
0	0	0	0	0	515	615
1	0	0	0	0	515	615
2	0	0	0	0	514	615
3	0	0	0	0	514	615
4	0	0	0	0	514	615
5	0	0	0	0	515	615
6	0	0	0	0	515	615
7	0	0	0	0	517	615
8	0	0	0	0	519	615
9	0	0	0	0	520	616
10	0	0	0	0	524	616
11	0	0	0	0	526	616
12	0	0	0	0	529	615
13	0	0	0	0	532	615
14	0	0	0	0	535	615
15	0	0	0	0	537	615
0	0	0	0	0	538	615
1	0	0	0	0	539	615
2	0	0	0	0	540	615
3	0	0	0	0	539	615
4	0	0	0	0	537	615
5	0	0	0	0	536	615
6	0	0	0	0	534	615
7	0	0	0	0	534	615
8	0	0	0	0	533	615
9	0	0	0	0	532	615
10	0	0	0	0	533	615
11	0	0	0	0	534	616
12	0	0	0	0	535	615
13	0	0	0	0	536	615
14	0	0	0	0	539	615
15	0	0	0	0	541	615
0	0	0	0	0	543	615
1	0	0	0	0	545	615
2	0	0	0	0	548	615
3	0	0	0	0	549	615
4	0	0	0	0	550	615
5	0	0	0	0	550	615
6	0	0	0	0	550	615
7	0	0	0	0	548	615
8	0	0	0	0	547	615
9	0	0	0	0	546	615
10	0	0	0	0	544	615
11	0	0	0	0	542	615
12	0	0	0	0	540	615
13	0	0	0	0	540	615
14	0	0	0	0	540	615
15	0	0	0	0	540	615
0	0	0	0	0	541	615
1	0	0	0	0	543	615
2	0	0	0	0	543	615
3	0	0	0	0	545	616
4	0	0	0	0	548	615
5	0	0	0	0	549	616
6	0	0	0	0	551	615
7	0	0	0	0	551	615
8	0	0	0	0	552	615
9	0	0	0	0	551	616
10	0	0	0	0	551	615
11	0	0	0	0	548	615
12	0	0	0	0	547	616
13	0	0	0	0	545	615
14	0	0	0	0	543	615
15	0	0	0	0	540	615
0	0	0	0	0	538	616
1	0	0	0	0	537	615
2	0	0	0	0	537	616
3	0	0	0	0	537	616
4	0	0	0	0	536	615
5	0	0	0	0	537	615
6	0	0	0	0	539	615
7	0	0	0	0	540	616
8	0	0	0	0	542	615
9	0	0	0	0	543	615
10	0	0	0	0	543	615
11	0	0	0	0	545	616
12	0	0	0	0	545	615
13	0	0	0	0	544	615
14	0	0	0	0	543	615
15	0	0	0	0	542	615
0	0	0	0	0	540	615
1	0	0	0	0	537	615
2	0	0	0	0	535	615
3	0	0	0	0	533	616
4	0	0	0	0	531	615
5	0	0	0	0	530	615
6	0	0	0	0	530	615
7	0	0	0	0	530	616
8	0	0	0	0	530	615
9	0	0	0	0	531	615
10	0	0	0	0	532	616
11	0	0	0	0	534	616
12	0	0	0	0	536	615
13	0	0	0	0	537	615
14	0	0	0	0	538	615
15	0	0	0	0	538	616
0	0	0	0	0	538	616
1	0	0	0	0	538	616
2	0	0	0	0	536	616
3	0	0	0	0	534	616
4	0	0	0	0	532	615
5	0	0	0	0	530	615
6	0	0	0	0	527	615
7	0	0	0	0	525	615
8	0	0	0	0	524	615
9	0	0	0	0	523	615
10	0	0	0	0	523	616
11	0	0	0	0	523	616
12	0	0	0	0	524	615
13	0	0	0	0	525	615
14	0	0	0	0	526	615
15	0	0	0	0	528	615
0	0	0	0	0	529	615
1	0	0	0	0	531	615
2	0	0	0	0	532	615
3	0	0	0	0	534	615
4	0	0	0	0	535	615
5	0	0	0	0	536	615
6	0	0	0	0	535	615
7	0	0	0	0	534	615
8	0	0	0	0	532	615
9	0	0	0	0	530	615
10	0	0	0	0	527	615
11	0	0	0	0	526	615
12	0	0	0	0	524	615
13	0	0	0	0	523	616
14	0	0	0	0	523	615
15	0	0	0	0	522	616
0	0	0	0	0	523	615
1	0	0	0	0	524	615
2	0	0	0	0	526	615
3	0	0	0	0	527	616
4	0	0	0	0	528	615
5	0	0	0	0	529	615
6	0	0	0	0	530	615
7	0	0	0	0	531	615
8	0	0	0	0	532	615
9	0	0	0	0	533	615
10	0	0	0	0	532	616
11	0	0	0	0	531	616
12	0	0	0	0	529	616
13	0	0	0	0	527	615
14	0	0	0	0	526	615
15	0	0	0	0	524	615
0	0	0	0	0	523	616
1	0	0	0	0	523	616
2	0	0	0	0	523	616
3	0	0	0	0	523	616
4	0	0	0	0	524	615
5	0	0	0	0	525	616
6	0	0	0	0	527	615
7	0	0	0	0	527	615
8	0	0	0	0	529	615
9	0	0	0	0	531	615
10	0	0	0	0	532	615
11	0	0	0	0	534	615
12	0	0	0	0	534	615
13	0	0	0	0	535	615
14	0	0	0	0	534	615
15	0	0	0	0	532	615
0	0	0	0	0	530	615
1	0	0	0	0	527	616
2	0	0	0	0	524	615
3	0	0	0	0	523	615
4	0	0	0	0	522	615
5	0	0	0	0	520	616
6	0	0	0	0	519	616
7	0	0	0	0	520	615
8	0	0	0	0	521	616
9	0	0	0	0	523	616
10	0	0	0	0	524	615
11	0	0	0	0	525	616
12	0	0	0	0	527	616
13	0	0	0	0	528	615
14	0	0	0	0	531	616
15	0	0	0	0	532	615
0	0	0	0	0	532	615
1	0	0	0	0	532	615
2	0	0	0	0	531	615
3	0	0	0	0	529	616
4	0	0	0	0	527	616
5	0	0	0	0	525	616
6	0	0	0	0	524	616
7	0	0	0	0	523	616
8	0	0	0	0	522	615
9	0	0	0	0	522	616
10	0	0	0	0	521	616
11	0	0	0	0	521	616
12	0	0	0	0	523	616
13	0	0	0	0	524	615
14	0	0	0	0	525	616
15	0	0	0	0	527	615
0	0	0	0	0	528	615
1	0	0	0	0	530	615
2	0	0	0	0	531	616
3	0	0	0	0	533	616
4	0	0	0	0	533	615
5	0	0	0	0	532	615
6	0	0	0	0	531	615
7	0	0	0	0	529	615
8	0	0	0	0	527	615
9	0	0	0	0	526	615
10	0	0	0	0	524	615
11	0	0	0	0	522	615
12	0	0	0	0	520	615
13	0	0	0	0	519	615
14	0	0	0	0	519	616
15	0	0	0	0	519	616
0	0	0	0	0	520	615
1	0	0	0	0	522	615
2	0	0	0	0	524	615
3	0	0	0	0	525	615
4	0	0	0	0	527	615
5	0	0	0	0	529	615
6	0	0	0	0	531	615
7	0	0	0	0	532	615
8	0	0	0	0	533	615
9	0	0	0	0	534	615
10	0	0	0	0	533	615
11	0	0	0	0	531	616
12	0	0	0	0	529	616
13	0	0	0	0	527	615
14	0	0	0	0	524	616
15	0	0	0	0	522	616
0	0	0	0	0	520	616
1	0	0	0	0	519	615
2	0	0	0	0	519	616
3	0	0	0	0	519	616
4	0	0	0	0	519	615
5	0	0	0	0	520	615
6	0	0	0	0	522	616
7	0	0	0	0	524	615
8	0	0	0	0	525	615
9	0	0	0	0	527	615
10	0	0	0	0	529	616
11	0	0	0	0	531	615
12	0	0	0	0	531	615
13	0	0	0	0	531	615
14	0	0	0	0	530	615
15	0	0	0	0	528	615
0	0	0	0	0	526	615
1	0	0	0	0	524	616
2	0	0	0	0	521	615
3	0	0	0	0	519	616
4	0	0	0	0	518	615
5	0	0	0	0	518	615
6	0	0	0	0	517	615
7	0	0	0	0	517	615
8	0	0	0	0	518	616
9	0	0	0	0	519	615
10	0	0	0	0	520	615
11	0	0	0	0	521	616
12	0	0	0	0	523	616
13	0	0	0	0	526	616
14	0	0	0	0	527	616
15	0	0	0	0	527	616
0	0	0	0	0	527	615
1	0	0	0	0	527	615
2	0	0	0	0	525	615
3	0	0	0	0	523	616
4	0	0	0	0	521	616
5	0	0	0	0	519	616
6	0	0	0	0	516	615
7	0	0	0	0	513	615
8	0	0	0	0	512	615
9	0	0	0	0	511	615
10	0	0	0	0	510	615
11	0	0	0	0	509	616
12	0	0	0	0	509	615
13	0	0	0	0	511	615
14	0	0	0	0	512	615
15	0	0	0	0	513	615
0	0	0	0	0	515	615
1	0	0	0	0	517	615
2	0	0	0	0	519	615
3	0	0	0	0	520	615
4	0	0	0	0	520	615
5	0	0	0	0	520	615
6	0	0	0	0	519	615
7	0	0	0	0	518	615
8	0	0	0	0	516	615
9	0	0	0	0	514	615
10	0	0	0	0	512	616
11	0	0	0	0	510	616
12	0	0	0	0	508	615
13	0	0	0	0	507	615
14	0	0	0	0	506	616
15	0	0	0	0	506	615
0	0	0	0	0	508	616
1	0	0	0	0	510	616
2	0	0	0	0	511	615
3	0	0	0	0	513	616
4	0	0	0	0	515	615
5	0	0	0	0	518	616
6	0	0	0	0	521	615
7	0	0	0	0	524	615
8	0	0	0	0	525	615
9	0	0	0	0	526	615
10	0	0	0	0	524	616
11	0	0	0	0	523	615
12	0	0	0	0	521	616
13	0	0	0	0	519	616
14	0	0	0	0	517	616
15	0	0	0	0	516	616
0	0	0	0	0	515	616
1	0	0	0	0	514	616
2	0	0	0	0	514	616
3	0	0	0	0	515	617
4	0	0	0	0	516	617
5	0	0	0	0	517	617
6	0	0	0	0	519	617
7	0	0	0	0	520	617
8	0	0	0	0	523	617
9	0	0	0	0	525	617
10	0	0	0	0	526	618
11	0	0	0	0	527	619
12	0	0	0	0	527	618
13	0	0	0	0	526	618
14	0	0	0	0	525	617
15	0	0	0	0	522	616
0	0	0	0	0	519	616
1	0	0	0	0	516	617
2	0	0	0	0	512	616
3	0	0	0	0	510	616
4	0	0	0	0	509	615
5	0	0	0	0	510	615
6	0	0	0	0	511	615
7	0	0	0	0	512	615
8	0	0	0	0	513	615
9	0	0	0	0	515	614
10	0	0	0	0	517	614
11	0	0	0	0	519	614
12	0	0	0	0	522	614
13	0	0	0	0	523	614
14	0	0	0	0	525	613
15	0	0	0	0	526	613
0	0	0	0	0	526	613
1	0	0	0	0	525	613
2	0	0	0	0	524	612
3	0	0	0	0	521	613
4	0	0	0	0	519	613
5	0	0	0	0	517	612
6	0	0	0	0	515	614
7	0	0	0	0	513	613
8	0	0	0	0	512	613
9	0	0	0	0	512	613
10	0	0	0	0	511	614
11	0	0	0	0	511	615
12	0	0	0	0	511	615
13	0	0	0	0	512	615
14	0	0	0	0	513	616
15	0	0	0	0	514	617
0	0	0	0	0	516	616
1	0	0	0	0	517	617
2	0	0	0	0	519	617
3	0	0	0	0	520	617
4	0	0	0	0	520	617
5	0	0	0	0	520	617
6	0	0	0	0	519	617
7	0	0	0	0	516	617
8	0	0	0	0	515	617
9	0	0	0	0	513	618
10	0	0	0	0	511	617
11	0	0	0	0	508	617
12	0	0	0	0	507	617
13	0	0	0	0	507	617
14	0	0	0	0	507	616
15	0	0	0	0	508	616
0	0	0	0	0	509	616
1	0	0	0	0	510	615
2	0	0	0	0	512	615
3	0	0	0	0	513	615
4	0	0	0	0	515	614
5	0	0	0	0	516	615
6	0	0	0	0	518	615
7	0	0	0	0	519	614
8	0	0	0	0	519	613
9	0	0	0	0	519	613
10	0	0	0	0	517	613
11	0	0	0	0	515	613
12	0	0	0	0	513	613
13	0	0	0	0	509	614
14	0	0	0	0	505	614
15	0	0	0	0	501	614
0	0	0	0	0	495	614
1	0	0	0	0	489	614
2	0	0	0	0	481	615
3	0	0	0	0	473	615
4	0	0	0	0	463	615
5	0	0	0	0	453	615
6	0	0	0	0	443	615
7	0	0	0	0	433	615
8	0	0	0	0	425	616
9	0	0	0	0	417	616
10	0	0	0	0	410	616
11	0	0	0	0	404	617
12	0	0	0	0	399	617
13	0	0	0	0	396	616
14	0	0	0	0	395	616
15	0	0	0	0	394	617
0	0	0	0	0	395	617
1	0	0	0	0	398	617
2	0	0	0	0	401	617
3	0	0	0	0	405	617
4	0	0	0	0	409	616
5	0	0	0	0	413	616
6	0	0	0	0	417	616
7	0	0	0	0	423	616
8	0	0	0	0	435	615
9	0	0	0	0	454	615
10	0	0	0	0	480	615
11	0	0	0	0	509	615
12	0	0	0	0	547	615
13	0	0	0	0	593	615
14	0	0	0	0	645	615
15	0	0	0	0	700	614
0	0	0	0	0	756	614
1	0	0	0	0	814	614
2	0	0	0	0	869	614
3	0	0	0	0	917	615
4	0	0	0	0	956	614
5	0	0	0	0	987	615
6	0	0	0	0	1009	615
7	0	0	0	0	1021	615
8	0	0	0	0	1022	615
9	0	0	0	0	1022	615
10	0	0	0	0	1022	615
11	0	0	0	0	1022	616
12	0	0	0	0	1022	616
13	0	0	0	0	1020	616
14	0	0	0	0	1001	616
15	0	0	0	0	979	615
0	0	0	0	0	956	616
1	0	0	0	0	927	616
2	0	0	0	0	894	616
3	0	0	0	0	860	617
4	0	0	0	0	825	617
5	0	0	0	0	794	617
6	0	0	0	0	766	616
7	0	0	0	0	737	616
8	0	0	0	0	710	616
9	0	0	0	0	684	615
10	0	0	0	0	661	615
11	0	0	0	0	640	616
12	0	0	0	0	621	615
13	0	0	0	0	603	615
14	0	0	0	0	586	615
15	0	0	0	0	569	615
0	0	0	0	0	554	615
1	0	0	0	0	540	615
2	0	0	0	0	527	615
3	0	0	0	0	515	615
4	0	0	0	0	502	614
5	0	0	0	0	491	614
6	0	0	0	0	480	614
7	0	0	0	0	468	615
8	0	0	0	0	457	615
9	0	0	0	0	447	615
10	0	0	0	0	436	616
11	0	0	0	0	427	615
12	0	0	0	0	417	615
13	0	0	0	0	408	615
14	0	0	0	0	399	616
15	0	0	0	0	392	615
0	0	0	0	0	386	616
1	0	0	0	0	382	616
2	0	0	0	0	380	617
3	0	0	0	0	377	616
4	0	0	0	0	375	616
5	0	0	0	0	375	616
6	0	0	0	0	375	617
7	0	0	0	0	376	616
8	0	0	0	0	378	616
9	0	0	0	0	379	616
10	0	0	0	0	380	616
11	0	0	0	0	381	616
12	0	0	0	0	381	616
13	0	0	0	0	380	616
14	0	0	0	0	379	615
15	0	0	0	0	378	615
0	0	0	0	0	376	616
1	0	0	0	0	375	615
2	0	0	0	0	373	615
3	0	0	0	0	372	615
4	0	0	0	0	371	615
5	0	0	0	0	372	615
6	0	0	0	0	373	615
7	0	0	0	0	375	615
8	0	0	0	0	376	615
9	0	0	0	0	379	615
10	0	0	0	0	381	615
11	0	0	0	0	384	615
12	0	0	0	0	387	615
13	0	0	0	0	390	615
14	0	0	0	0	392	615
15	0	0	0	0	393	615
0	0	0	0	0	394	615
1	0	0	0	0	395	616
2	0	0	0	0	396	617
3	0	0	0	0	395	616
4	0	0	0	0	394	616
5	0	0	0	0	393	616
6	0	0	0	0	392	616
7	0	0	0	0	392	616
8	0	0	0	0	391	616
9	0	0	0	0	392	616
10	0	0	0	0	393	616
11	0	0	0	0	394	616
12	0	0	0	0	396	615
13	0	0	0	0	398	617
14	0	0	0	0	401	616
15	0	0	0	0	404	616
0	0	0	0	0	406	615
1	0	0	0	0	408	615
2	0	0	0	0	411	615
3	0	0	0	0	414	615
4	0	0	0	0	415	615
5	0	0	0	0	416	615
6	0	0	0	0	416	615
7	0	0	0	0	415	615
8	0	0	0	0	415	615
9	0	0	0	0	414	615
10	0	0	0	0	413	615
11	0	0	0	0	412	615
12	0	0	0	0	412	615
13	0	0	0	0	411	615
14	0	0	0	0	412	615
15	0	0	0	0	412	615
0	0	0	0	0	414	615
1	0	0	0	0	415	615
2	0	0	0	0	418	615
3	0	0	0	0	420	616
4	0	0	0	0	422	616
5	0	0	0	0	424	615
6	0	0	0	0	426	616
7	0	0	0	0	428	616
8	0	0	0	0	429	616
9	0	0	0	0	430	616
10	0	0	0	0	429	616
11	0	0	0	0	428	616
12	0	0	0	0	427	616
13	0	0	0	0	424	616
14	0	0	0	0	423	616
15	0	0	0	0	422	615
0	0	0	0	0	421	616
1	0	0	0	0	421	616
2	0	0	0	0	422	615
3	0	0	0	0	422	615
4	0	0	0	0	423	615
5	0	0	0	0	425	615
6	0	0	0	0	427	615
7	0	0	0	0	429	615
8	0	0	0	0	431	615
9	0	0	0	0	433	615
10	0	0	0	0	435	615
11	0	0	0	0	435	615
12	0	0	0	0	436	615
13	0	0	0	0	435	615
14	0	0	0	0	435	615
15	0	0	0	0	433	614
0	0	0	0	0	432	615
1	0	0	0	0	430	615
2	0	0	0	0	428	615
3	0	0	0	0	427	615
4	0	0	0	0	425	615
5	0	0	0	0	425	615
6	0	0	0	0	425	615
7	0	0	0	0	425	615
8	0	0	0	0	426	615
9	0	0	0	0	427	615
10	0	0	0	0	428	615
11	0	0	0	0	430	615
12	0	0	0	0	432	615
13	0	0	0	0	434	615
14	0	0	0	0	436	615
15	0	0	0	0	437	616
0	0	0	0	0	437	616
1	0	0	0	0	437	616
2	0	0	0	0	436	616
3	0	0	0	0	435	616
4	0	0	0	0	433	615
5	0	0	0	0	431	616
6	0	0	0	0	429	616
7	0	0	0	0	427	616
8	0	0	0	0	426	615
9	0	0	0	0	426	615
10	0	0	0	0	426	615
11	0	0	0	0	426	615
12	0	0	0	0	427	615
13	0	0	0	0	429	615
14	0	0	0	0	431	615
15	0	0	0	0	433	615
0	0	0	0	0	435	615
1	0	0	0	0	436	615
2	0	0	0	0	439	615
3	0	0	0	0	440	615
4	0	0	0	0	440	615
5	0	0	0	0	441	615
6	0	0	0	0	440	615
7	0	0	0	0	439	615
8	0	0	0	0	437	615
9	0	0	0	0	436	615
10	0	0	0	0	433	615
11	0	0	0	0	432	616
12	0	0	0	0	431	615
13	0	0	0	0	431	615
14	0	0	0	0	431	615
15	0	0	0	0	432	616
0	0	0	0	0	434	616
1	0	0	0	0	436	616
2	0	0	0	0	439	616
3	0	0	0	0	441	616
4	0	0	0	0	444	616
5	0	0	0	0	447	616
6	0	0	0	0	451	616
7	0	0	0	0	453	616
8	0	0	0	0	454	616
9	0	0	0	0	455	616
10	0	0	0	0	455	616
11	0	0	0	0	455	616
12	0	0	0	0	454	616
13	0	0	0	0	453	616
14	0	0	0	0	451	616
15	0	0	0	0	451	615
0	0	0	0	0	450	615
1	0	0	0	0	451	615
2	0	0	0	0	452	616
3	0	0	0	0	454	616
4	0	0	0	0	456	615
5	0	0	0	0	459	615
6	0	0	0	0	461	615
7	0	0	0	0	465	615
8	0	0	0	0	468	615
9	0	0	0	0	471	615
10	0	0	0	0	474	615
11	0	0	0	0	477	615
12	0	0	0	0	479	615
13	0	0	0	0	480	615
14	0	0	0	0	481	615
15	0	0	0	0	481	615
0	0	0	0	0	480	615
1	0	0	0	0	480	616
2	0	0	0	0	480	616
3	0	0	0	0	479	616
4	0	0	0	0	479	615
5	0	0	0	0	480	616
6	0	0	0	0	481	615
7	0	0	0	0	483	616
8	0	0	0	0	485	616
9	0	0	0	0	488	615
10	0	0	0	0	491	615
11	0	0	0	0	494	616
12	0	0	0	0	498	616
13	0	0	0	0	502	615
14	0	0	0	0	505	616
15	0	0	0	0	508	616
0	0	0	0	0	510	616
1	0	0	0	0	512	616
2	0	0	0	0	512	616
3	0	0	0	0	511	616
4	0	0	0	0	511	616
5	0	0	0	0	511	615
6	0	0	0	0	511	615
7	0	0	0	0	511	615
8	0	0	0	0	511	616
9	0	0	0	0	512	616
10	0	0	0	0	513	616
11	0	0	0	0	515	616
12	0	0	0	0	516	615
13	0	0	0	0	519	615
14	0	0	0	0	522	615
15	0	0	0	0	525	615
0	0	0	0	0	527	615
1	0	0	0	0	530	615
2	0	0	0	0	532	616
3	0	0	0	0	534	615
4	0	0	0	0	535	616
5	0	0	0	0	536	615
6	0	0	0	0	536	616
7	0	0	0	0	536	615
8	0	0	0	0	535	615
9	0	0	0	0	534	616
10	0	0	0	0	533	616
11	0	0	0	0	532	616
12	0	0	0	0	531	615
13	0	0	0	0	531	616
14	0	0	0	0	532	616
15	0	0	0	0	533	616
0	0	0	0	0	534	616
1	0	0	0	0	536	616
2	0	0	0	0	538	616
3	0	0	0	0	540	617
4	0	0	0	0	542	616
5	0	0	0	0	545	615
6	0	0	0	0	548	616
7	0	0	0	0	550	615
8	0	0	0	0	551	615
9	0	0	0	0	551	615
10	0	0	0	0	551	615
11	0	0	0	0	550	615
12	0	0	0	0	549	615
13	0	0	0	0	547	615
14	0	0	0	0	545	615
15	0	0	0	0	543	615
0	0	0	0	0	542	615
1	0	0	0	0	540	615
2	0	0	0	0	540	614
3	0	0	0	0	540	615
4	0	0	0	0	541	615
5	0	0	0	0	543	615
6	0	0	0	0	545	615
7	0	0	0	0	547	615
8	0	0	0	0	550	615
9	0	0	0	0	552	615
10	0	0	0	0	554	615
11	0	0	0	0	555	615
12	0	0	0	0	556	615
13	0	0	0	0	555	616
14	0	0	0	0	554	616
15	0	0	0	0	552	616
0	0	0	0	0	550	616
1	0	0	0	0	547	616
2	0	0	0	0	545	616
3	0	0	0	0	543	616
4	0	0	0	0	541	616
5	0	0	0	0	540	616
6	0	0	0	0	539	616
7	0	0	0	0	539	616
8	0	0	0	0	539	616
9	0	0	0	0	539	616
10	0	0	0	0	540	616
11	0	0	0	0	541	616
12	0	0	0	0	543	615
13	0	0	0	0	545	616
14	0	0	0	0	546	616
15	0	0	0	0	547	615
0	0	0	0	0	547	616
1	0	0	0	0	546	615
2	0	0	0	0	545	615
3	0	0	0	0	543	615
4	0	0	0	0	541	615
5	0	0	0	0	539	615
6	0	0	0	0	536	615
7	0	0	0	0	535	615
8	0	0	0	0	533	615
9	0	0	0	0	532	615
10	0	0	0	0	532	615
11	0	0	0	0	532	615
12	0	0	0	0	533	615
13	0	0	0	0	534	615
14	0	0	0	0	536	615
15	0	0	0	0	536	615
0	0	0	0	0	537	615
1	0	0	0	0	539	616
2	0	0	0	0	540	615
3	0	0	0	0	542	616
4	0	0	0	0	541	615
5	0	0	0	0	541	615
6	0	0	0	0	540	615
7	0	0	0	0	539	616
8	0	0	0	0	537	616
9	0	0	0	0	534	615
10	0	0	0	0	532	616
11	0	0	0	0	530	616
12	0	0	0	0	528	616
13	0	0	0	0	528	615
14	0	0	0	0	527	615
15	0	0	0	0	527	615
0	0	0	0	0	527	615
1	0	0	0	0	529	615
2	0	0	0	0	531	615
3	0	0	0	0	532	616
4	0	0	0	0	534	615
5	0	0	0	0	536	615
6	0	0	0	0	537	615
7	0	0	0	0	538	615
8	0	0	0	0	539	615
9	0	0	0	0	539	615
10	0	0	0	0	537	615
11	0	0	0	0	536	615
12	0	0	0	0	534	615
13	0	0	0	0	531	615
14	0	0	0	0	529	615
15	0	0	0	0	527	615
0	0	0	0	0	526	615
1	0	0	0	0	524	615
2	0	0	0	0	524	615
3	0	0	0	0	524	615
4	0	0	0	0	526	615
5	0	0	0	0	527	616
6	0	0	0	0	528	616
7	0	0	0	0	530	616
8	0	0	0	0	532	615
9	0	0	0	0	534	616
10	0	0	0	0	536	616
11	0	0	0	0	536	616
12	0	0	0	0	536	616
13	0	0	0	0	536	616
14	0	0	0	0	535	615
15	0	0	0	0	533	615
0	0	0	0	0	531	616
1	0	0	0	0	528	616
2	0	0	0	0	527	616
3	0	0	0	0	525	616
4	0	0	0	0	524	615
5	0	0	0	0	522	616
6	0	0	0	0	522	615
7	0	0	0	0	522	616
8	0	0	0	0	523	616
9	0	0	0	0	524	616
10	0	0	0	0	526	615
11	0	0	0	0	527	616
12	0	0	0	0	529	615
13	0	0	0	0	531	615
14	0	0	0	0	532	615
15	0	0	0	0	534	615
0	0	0	0	0	534	615
1	0	0	0	0	534	615
2	0	0	0	0	533	615
3	0	0	0	0	531	615
4	0	0	0	0	530	615
5	0	0	0	0	528	616
6	0	0	0	0	526	615
7	0	0	0	0	524	615
8	0	0	0	0	523	615
9	0	0	0	0	522	615
10	0	0	0	0	522	616
11	0	0	0	0	522	615
12	0	0	0	0	523	615
13	0	0	0	0	524	615
14	0	0	0	0	526	615
15	0	0	0	0	527	615
0	0	0	0	0	529	615
1	0	0	0	0	531	616
2	0	0	0	0	532	616
3	0	0	0	0	534	616
4	0	0	0	0	534	616
5	0	0	0	0	534	615
6	0	0	0	0	533	616
7	0	0	0	0	531	616
8	0	0	0	0	529	616
9	0	0	0	0	527	616
10	0	0	0	0	525	616
11	0	0	0	0	523	616
12	0	0	0	0	521	615
13	0	0	0	0	521	616
14	0	0	0	0	520	615
15	0	0	0	0	521	615
0	0	0	0	0	522	615
1	0	0	0	0	523	615
2	0	0	0	0	526	615
3	0	0	0	0	527	616
4	0	0	0	0	529	616
5	0	0	0	0	531	616
6	0	0	0	0	532	616
7	0	0	0	0	533	615
8	0	0	0	0	532	615
9	0	0	0	0	532	616
10	0	0	0	0	531	616
11	0	0	0	0	528	615
12	0	0	0	0	526	615
13	0	0	0	0	523	615
14	0	0	0	0	521	615
15	0	0	0	0	519	615
0	0	0	0	0	518	615
1	0	0	0	0	516	615
2	0	0	0	0	517	615
3	0	0	0	0	518	616
4	0	0	0	0	520	615
5	0	0	0	0	521	615
6	0	0	0	0	523	616
7	0	0	0	0	525	615
8	0	0	0	0	527	616
9	0	0	0	0	528	615
10	0	0	0	0	529	616
11	0	0	0	0	531	616
12	0	0	0	0	531	616
13	0	0	0	0	531	615
14	0	0	0	0	530	615
15	0	0	0	0	528	615
0	0	0	0	0	526	616
1	0	0	0	0	524	616
2	0	0	0	0	521	616
3	0	0	0	0	520	616
4	0	0	0	0	519	615
5	0	0	0	0	518	616
6	0	0	0	0	518	615
7	0	0	0	0	519	615
8	0	0	0	0	518	615
9	0	0	0	0	519	616
10	0	0	0	0	521	615
11	0	0	0	0	522	615
12	0	0	0	0	524	615
13	0	0	0	0	525	615
14	0	0	0	0	526	615
15	0	0	0	0	527	615
0	0	0	0	0	527	615
1	0	0	0	0	527	615
2	0	0	0	0	527	615
3	0	0	0	0	525	615
4	0	0	0	0	524	615
5	0	0	0	0	521	615
6	0	0	0	0	520	615
7	0	0	0	0	517	615
8	0	0	0	0	516	615
9	0	0	0	0	515	615
10	0	0	0	0	515	615
11	0	0	0	0	515	616
12	0	0	0	0	516	615
13	0	0	0	0	518	615
14	0	0	0	0	519	615
15	0	0	0	0	520	615
0	0	0	0	0	522	615
1	0	0	0	0	524	615
2	0	0	0	0	525	615
3	0	0	0	0	526	616
4	0	0	0	0	526	616
5	0	0	0	0	526	615
6	0	0	0	0	525	615
7	0	0	0	0	523	615
8	0	0	0	0	522	615
9	0	0	0	0	519	615
10	0	0	0	0	518	615
11	0	0	0	0	516	616
12	0	0	0	0	515	615
13	0	0	0	0	514	615
14	0	0	0	0	513	615
15	0	0	0	0	513	615
0	0	0	0	0	513	615
1	0	0	0	0	514	615
2	0	0	0	0	515	615
3	0	0	0	0	516	615
4	0	0	0	0	518	615
5	0	0	0	0	519	615
6	0	0	0	0	520	615
7	0	0	0	0	521	615
8	0	0	0	0	521	615
9	0	0	0	0	521	615
10	0	0	0	0	519	615
11	0	0	0	0	518	615
12	0	0	0	0	515	615
13	0	0	0	0	513	615
14	0	0	0	0	510	615
15	0	0	0	0	508	615
0	0	0	0	0	505	615
1	0	0	0	0	504	615
2	0	0	0	0	503	615
3	0	0	0	0	504	615
4	0	0	0	0	504	615
5	0	0	0	0	504	615
6	0	0	0	0	506	615
7	0	0	0	0	508	615
8	0	0	0	0	510	615
9	0	0	0	0	512	615
10	0	0	0	0	513	615
11	0	0	0	0	513	616
12	0	0	0	0	513	615
13	0	0	0	0	513	615
14	0	0	0	0	512	615
15	0	0	0	0	511	615
0	0	0	0	0	509	616
1	0	0	0	0	507	615
2	0	0	0	0	504	615
3	0	0	0	0	502	615
4	0	0	0	0	501	616
5	0	0	0	0	500	616
6	0	0	0	0	500	616
7	0	0	0	0	501	616
8	0	0	0	0	503	615
9	0	0	0	0	505	615
10	0	0	0	0	508	615
11	0	0	0	0	511	615
12	0	0	0	0	513	615
13	0	0	0	0	515	616
14	0	0	0	0	517	615
15	0	0	0	0	519	615
0	0	0	0	0	519	615
1	0	0	0	0	519	615
2	0	0	0	0	518	615
3	0	0	0	0	516	615
4	0	0	0	0	515	615
5	0	0	0	0	512	616
6	0	0	0	0	511	615
7	0	0	0	0	508	615
8	0	0	0	0	506	616
9	0	0	0	0	505	616
10	0	0	0	0	504	616
11	0	0	0	0	504	616
12	0	0	0	0	505	616
13	0	0	0	0	507	615
14	0	0	0	0	510	615
15	0	0	0	0	512	615
0	0	0	0	0	513	615
1	0	0	0	0	515	615
2	0	0	0	0	517	615
3	0	0	0	0	518	615
4	0	0	0	0	518	615
5	0	0	0	0	518	615
6	0	0	0	0	516	615
7	0	0	0	0	514	615
8	0	0	0	0	512	615
9	0	0	0	0	510	615
10	0	0	0	0	508	615
11	0	0	0	0	506	615
12	0	0	0	0	505	615
13	0	0	0	0	504	615
14	0	0	0	0	505	615
15	0	0	0	0	506	615
0	0	0	0	0	507	615
1	0	0	0	0	508	614
2	0	0	0	0	510	615
3	0	0	0	0	512	615
4	0	0	0	0	514	615
5	0	0	0	0	516	615
6	0	0	0	0	517	615
7	0	0	0	0	519	615
8	0	0	0	0	519	615
9	0	0	0	0	518	615
10	0	0	0	0	517	615
11	0	0	0	0	515	616
12	0	0	0	0	514	615
13	0	0	0	0	512	616
14	0	0	0	0	510	616
15	0	0	0	0	508	615
0	0	0	0	0	507	615
1	0	0	0	0	506	616
2	0	0	0	0	505	615
3	0	0	0	0	505	616
4	0	0	0	0	507	616
5	0	0	0	0	508	615
6	0	0	0	0	510	616
7	0	0	0	0	512	616
8	0	0	0	0	513	616
9	0	0	0	0	515	615
10	0	0	0	0	517	615
11	0	0	0	0	519	616
12	0	0	0	0	519	615
13	0	0	0	0	519	615
14	0	0	0	0	517	615
15	0	0	0	0	515	615
0	0	0	0	0	512	616
1	0	0	0	0	510	615
2	0	0	0	0	509	615
3	0	0	0	0	507	615
4	0	0	0	0	505	616
5	0	0	0	0	504	616
6	0	0	0	0	504	615
7	0	0	0	0	504	615
8	0	0	0	0	505	615
9	0	0	0	0	505	615
10	0	0	0	0	508	615
11	0	0	0	0	510	616
12	0	0	0	0	511	615
13	0	0	0	0	513	615
14	0	0	0	0	514	615
15	0	0	0	0	515	615
0	0	0	0	0	515	616
1	0	0	0	0	513	616
2	0	0	0	0	512	616
3	0	0	0	0	508	616
4	0	0	0	0	503	616
5	0	0	0	0	497	616
6	0	0	0	0	489	616
7	0	0	0	0	479	616
8	0	0	0	0	468	615
9	0	0	0	0	458	615
10	0	0	0	0	447	616
11	0	0	0	0	437	616
12	0	0	0	0	428	616
13	0	0	0	0	420	616
14	0	0	0	0	413	616
15	0	0	0	0	408	616
0	0	0	0	0	404	615
1	0	0	0	0	403	615
2	0	0	0	0	403	615
3	0	0	0	0	405	615
4	0	0	0	0	408	615
5	0	0	0	0	411	615
6	0	0	0	0	415	615
7	0	0	0	0	420	615
8	0	0	0	0	424	615
9	0	0	0	0	427	615
10	0	0	0	0	429	614
11	0	0	0	0	432	615
12	0	0	0	0	439	614
13	0	0	0	0	453	614
14	0	0	0	0	475	615
15	0	0	0	0	501	615
0	0	0	0	0	533	615
1	0	0	0	0	574	614
2	0	0	0	0	623	615
3	0	0	0	0	676	615
4	0	0	0	0	732	615
5	0	0	0	0	790	615
6	0	0	0	0	849	615
7	0	0	0	0	902	615
8	0	0	0	0	946	615
9	0	0	0	0	981	615
10	0	0	0	0	1007	616
11	0	0	0	0	1022	615
12	0	0	0	0	1022	616
13	0	0	0	0	1022	616
14	0	0	0	0	1022	616
15	0	0	0	0	1022	616
0	0	0	0	0	1022	616
1	0	0	0	0	1021	617
2	0	0	0	0	1002	616
3	0	0	0	0	981	617
4	0	0	0	0	958	617
5	0	0	0	0	931	617
6	0	0	0	0	899	617
7	0	0	0	0	866	616
8	0	0	0	0	833	616
9	0	0	0	0	803	616
10	0	0	0	0	776	616
11	0	0	0	0	751	616
12	0	0	0	0	725	616
13	0	0	0	0	702	616
14	0	0	0	0	679	616
15	0	0	0	0	658	616
0	0	0	0	0	638	616
1	0	0	0	0	619	616
2	0	0	0	0	600	615
3	0	0	0	0	580	615
4	0	0	0	0	563	615
5	0	0	0	0	547	615
6	0	0	0	0	531	615
7	0	0	0	0	516	615
8	0	0	0	0	503	615
9	0	0	0	0	490	615
10	0	0	0	0	478	615
11	0	0	0	0	467	615
12	0	0	0	0	459	615
13	0	0	0	0	450	615
14	0	0	0	0	441	615
15	0	0	0	0	434	615
0	0	0	0	0	426	615
1	0	0	0	0	419	615
2	0	0	0	0	412	615
3	0	0	0	0	406	615
4	0	0	0	0	400	615
5	0	0	0	0	393	615
6	0	0	0	0	388	615
7	0	0	0	0	384	615
8	0	0	0	0	380	615
9	0	0	0	0	378	615
10	0	0	0	0	378	615
11	0	0	0	0	378	615
12	0	0	0	0	378	615
13	0	0	0	0	379	615
14	0	0	0	0	380	616
15	0	0	0	0	381	615
0	0	0	0	0	383	615
1	0	0	0	0	385	615
2	0	0	0	0	386	615
3	0	0	0	0	387	615
4	0	0	0	0	388	615
5	0	0	0	0	388	615
6	0	0	0	0	388	615
7	0	0	0	0	387	615
8	0	0	0	0	385	615
9	0	0	0	0	383	615
10	0	0	0	0	381	615
11	0	0	0	0	380	616
12	0	0	0	0	379	615
13	0	0	0	0	378	615
14	0	0	0	0	379	615
15	0	0	0	0	380	615
0	0	0	0	0	381	615
1	0	0	0	0	384	615
2	0	0	0	0	387	615
3	0	0	0	0	390	616
4	0	0	0	0	393	615
5	0	0	0	0	396	615
6	0	0	0	0	398	616
7	0	0	0	0	401	616
8	0	0	0	0	401	615
9	0	0	0	0	402	616
10	0	0	0	0	402	615
11	0	0	0	0	401	615
12	0	0	0	0	401	615
13	0	0	0	0	400	615
14	0	0	0	0	399	616
15	0	0	0	0	399	616
0	0	0	0	0	398	615
1	0	0	0	0	398	616
2	0	0	0	0	399	616
3	0	0	0	0	399	615
4	0	0	0	0	401	615
5	0	0	0	0	404	615
6	0	0	0	0	407	616
7	0	0	0	0	410	615
8	0	0	0	0	413	615
9	0	0	0	0	415	615
10	0	0	0	0	418	615
11	0	0	0	0	420	615
12	0	0	0	0	421	615
13	0	0	0	0	421	615
14	0	0	0	0	421	615
15	0	0	0	0	420	615
0	0	0	0	0	419	615
1	0	0	0	0	417	615
2	0	0	0	0	416	615
3	0	0	0	0	415	615
4	0	0	0	0	414	615
5	0	0	0	0	414	615
6	0	0	0	0	415	615
7	0	0	0	0	415	615
8	0	0	0	0	416	615
9	0	0	0	0	419	615
10	0	0	0	0	422	615
11	0	0	0	0	424	615
12	0	0	0	0	427	615
13	0	0	0	0	428	615
14	0	0	0	0	431	615
15	0	0	0	0	433	615
0	0	0	0	0	433	615
1	0	0	0	0	434	615
2	0	0	0	0	433	616
3	0	0	0	0	432	616
4	0	0	0	0	431	615
5	0	0	0	0	429	616
6	0	0	0	0	426	615
7	0	0	0	0	424	616
8	0	0	0	0	423	615
9	0	0	0	0	424	615
10	0	0	0	0	424	615
11	0	0	0	0	425	615
12	0	0	0	0	427	616
13	0	0	0	0	428	615
14	0	0	0	0	430	616
15	0	0	0	0	432	616
0	0	0	0	0	434	615
1	0	0	0	0	437	615
2	0	0	0	0	439	615
3	0	0	0	0	440	616
4	0	0	0	0	440	615
5	0	0	0	0	440	615
6	0	0	0	0	440	615
7	0	0	0	0	439	615
8	0	0	0	0	438	615
9	0	0	0	0	435	615
10	0	0	0	0	434	615
11	0	0	0	0	432	616
12	0	0	0	0	431	615
13	0	0	0	0	431	615
14	0	0	0	0	432	615
15	0	0	0	0	432	615
0	0	0	0	0	432	615
1	0	0	0	0	434	615
2	0	0	0	0	436	616
3	0	0	0	0	438	616
4	0	0	0	0	440	615
5	0	0	0	0	441	615
6	0	0	0	0	442	615
7	0	0	0	0	444	616
8	0	0	0	0	444	615
9	0	0	0	0	443	615
10	0	0	0	0	443	615
11	0	0	0	0	441	615
12	0	0	0	0	440	615
13	0	0	0	0	438	615
14	0	0	0	0	437	615
15	0	0	0	0	435	615
0	0	0	0	0	434	615
1	0	0	0	0	433	615
2	0	0	0	0	433	615
3	0	0	0	0	433	615
4	0	0	0	0	434	615
5	0	0	0	0	436	615
6	0	0	0	0	439	616
7	0	0	0	0	441	616
8	0	0	0	0	443	615
9	0	0	0	0	445	615
10	0	0	0	0	447	615
11	0	0	0	0	448	616
12	0	0	0	0	448	616
13	0	0	0	0	448	616
14	0	0	0	0	448	616
15	0	0	0	0	447	615
0	0	0	0	0	446	616
1	0	0	0	0	444	616
2	0	0	0	0	443	616
3	0	0	0	0	442	616
4	0	0	0	0	442	615
5	0	0	0	0	442	615
6	0	0	0	0	442	615
7	0	0	0	0	443	615
8	0	0	0	0	445	615
9	0	0	0	0	447	615
10	0	0	0	0	449	616
11	0	0	0	0	451	616
12	0	0	0	0	454	615
13	0	0	0	0	457	615
14	0	0	0	0	460	615
15	0	0	0	0	461	615
0	0	0	0	0	462	615
1	0	0	0	0	463	615
2	0	0	0	0	462	615
3	0	0	0	0	462	615
4	0	0	0	0	460	615
5	0	0	0	0	460	615
6	0	0	0	0	459	615
7	0	0	0	0	459	615
8	0	0	0	0	459	615
9	0	0	0	0	460	615
10	0	0	0	0	460	615
11	0	0	0	0	462	616
12	0	0	0	0	464	616
13	0	0	0	0	467	615
14	0	0	0	0	470	615
15	0	0	0	0	473	615
0	0	0	0	0	477	615
1	0	0	0	0	480	615
2	0	0	0	0	483	615
3	0	0	0	0	485	616
4	0	0	0	0	487	615
5	0	0	0	0	488	616
6	0	0	0	0	488	615
7	0	0	0	0	488	615
8	0	0	0	0	487	615
9	0	0	0	0	486	615
10	0	0	0	0	486	616
11	0	0	0	0	485	616
12	0	0	0	0	486	615
13	0	0	0	0	487	615
14	0	0	0	0	487	616
15	0	0	0	0	489	615
0	0	0	0	0	490	615
1	0	0	0	0	494	615
2	0	0	0	0	497	616
3	0	0	0	0	500	616
4	0	0	0	0	502	616
5	0	0	0	0	505	615
6	0	0	0	0	507	615
7	0	0	0	0	510	615
8	0	0	0	0	511	615
9	0	0	0	0	512	615
10	0	0	0	0	512	615
11	0	0	0	0	512	616
12	0	0	0	0	511	615
13	0	0	0	0	510	615
14	0	0	0	0	510	616
15	0	0	0	0	509	616
0	0	0	0	0	509	615
1	0	0	0	0	510	616
2	0	0	0	0	511	615
3	0	0	0	0	512	615
4	0	0	0	0	514	615
5	0	0	0	0	516	615
6	0	0	0	0	518	615
7	0	0	0	0	521	616
8	0	0	0	0	524	615
9	0	0	0	0	526	615
10	0	0	0	0	529	615
11	0	0	0	0	531	616
12	0	0	0	0	533	615
13	0	0	0	0	533	616
14	0	0	0	0	533	615
15	0	0	0	0	532	615
0	0	0	0	0	531	615
1	0	0	0	0	530	615
2	0	0	0	0	529	615
3	0	0	0	0	528	615
4	0	0	0	0	527	615
5	0	0	0	0	528	616
6	0	0	0	0	528	616
7	0	0	0	0	529	615
8	0	0	0	0	531	615
9	0	0	0	0	532	616
10	0	0	0	0	535	616
11	0	0	0	0	537	616
12	0	0	0	0	540	616
13	0	0	0	0	541	616
14	0	0	0	0	543	615
15	0	0	0	0	546	615
0	0	0	0	0	546	615
1	0	0	0	0	546	616
2	0	0	0	0	545	615
3	0	0	0	0	544	616
4	0	0	0	0	542	615
5	0	0	0	0	540	615
6	0	0	0	0	539	616
7	0	0	0	0	537	615
8	0	0	0	0	536	615
9	0	0	0	0	536	615
10	0	0	0	0	536	615
11	0	0	0	0	536	616
12	0	0	0	0	536	615
13	0	0	0	0	538	615
14	0	0	0	0	539	615
15	0	0	0	0	540	615
0	0	0	0	0	543	615
1	0	0	0	0	545	615
2	0	0	0	0	547	615
3	0	0	0	0	549	616
4	0	0	0	0	549	616
5	0	0	0	0	548	616
6	0	0	0	0	547	615
7	0	0	0	0	546	615
8	0	0	0	0	543	615
9	0	0	0	0	541	615
10	0	0	0	0	539	616
11	0	0	0	0	536	615
12	0	0	0	0	535	615
13	0	0	0	0	534	615
14	0	0	0	0	533	615
15	0	0	0	0	533	615
0	0	0	0	0	533	615
1	0	0	0	0	535	615
2	0	0	0	0	536	615
3	0	0	0	0	536	615
4	0	0	0	0	537	615
5	0	0	0	0	539	615
6	0	0	0	0	541	615
7	0	0	0	0	541	615
8	0	0	0	0	542	615
9	0	0	0	0	542	615
10	0	0	0	0	542	615
11	0	0	0	0	540	615
12	0	0	0	0	537	615
13	0	0	0	0	535	615
14	0	0	0	0	532	615
15	0	0	0	0	530	615
0	0	0	0	0	528	615
1	0	0	0	0	527	615
2	0	0	0	0	527	615
3	0	0	0	0	528	615
4	0	0	0	0	528	615
5	0	0	0	0	529	615
6	0	0	0	0	530	616
7	0	0	0	0	532	615
8	0	0	0	0	534	615
9	0	0	0	0	536	615
10	0	0	0	0	537	615
11	0	0	0	0	538	615
12	0	0	0	0	538	615
13	0	0	0	0	538	615
14	0	0	0	0	537	615
15	0	0	0	0	536	615
0	0	0	0	0	535	615
1	0	0	0	0	532	615
2	0	0	0	0	529	615
3	0	0	0	0	527	616
4	0	0	0	0	526	615
5	0	0	0	0	525	615
6	0	0	0	0	525	615
7	0	0	0	0	525	615
8	0	0	0	0	525	616
9	0	0	0	0	526	616
10	0	0	0	0	528	616
11	0	0	0	0	529	616
12	0	0	0	0	531	615
13	0	0	0	0	532	615
14	0	0	0	0	534	615
15	0	0	0	0	536	616
0	0	0	0	0	536	616
1	0	0	0	0	536	616
2	0	0	0	0	535	616
3	0	0	0	0	534	616
4	0	0	0	0	531	616
5	0	0	0	0	529	615
6	0	0	0	0	527	616
7	0	0	0	0	525	616
8	0	0	0	0	524	615
9	0	0	0	0	524	616
10	0	0	0	0	523	615
11	0	0	0	0	524	616
12	0	0	0	0	525	615
13	0	0	0	0	526	615
14	0	0	0	0	527	615
15	0	0	0	0	528	615
0	0	0	0	0	531	615
1	0	0	0	0	533	615
2	0	0	0	0	535	615
3	0	0	0	0	536	616
4	0	0	0	0	536	615
5	0	0	0	0	535	615
6	0	0	0	0	535	615
7	0	0	0	0	533	615
8	0	0	0	0	531	615
9	0	0	0	0	529	615
10	0	0	0	0	527	615
11	0	0	0	0	526	615
12	0	0	0	0	525	615
13	0	0	0	0	524	615
14	0	0	0	0	524	615
15	0	0	0	0	524	615
0	0	0	0	0	525	616
1	0	0	0	0	527	616
2	0	0	0	0	529	615
3	0	0	0	0	530	616
4	0	0	0	0	532	616
5	0	0	0	0	534	616
6	0	0	0	0	535	615
7	0	0	0	0	536	615
8	0	0	0	0	536	615
9	0	0	0	0	535	615
10	0	0	0	0	534	615
11	0	0	0	0	532	615
12	0	0	0	0	530	615
13	0	0	0	0	528	615
14	0	0	0	0	527	615
15	0	0	0	0	526	615
0	0	0	0	0	524	615
1	0	0	0	0	524	616
2	0	0	0	0	523	616
3	0	0	0	0	523	617
4	0	0	0	0	523	618
5	0	0	0	0	524	617
6	0	0	0	0	526	617
7	0	0	0	0	527	617
8	0	0	0	0	529	616
9	0	0	0	0	531	616
10	0	0	0	0	532	616
11	0	0	0	0	533	615
12	0	0	0	0	532	615
13	0	0	0	0	532	615
14	0	0	0	0	531	614
15	0	0	0	0	529	614
0	0	0	0	0	527	615
1	0	0	0	0	526	615
2	0	0	0	0	525	615
3	0	0	0	0	523	616
4	0	0	0	0	522	615
5	0	0	0	0	521	615
6	0	0	0	0	521	616
7	0	0	0	0	520	615
8	0	0	0	0	521	615
9	0	0	0	0	521	615
10	0	0	0	0	523	615
11	0	0	0	0	525	615
12	0	0	0	0	527	615
13	0	0	0	0	529	615
14	0	0	0	0	530	615
15	0	0	0	0	531	615
0	0	0	0	0	532	615
1	0	0	0	0	532	615
2	0	0	0	0	531	615
3	0	0	0	0	530	616
4	0	0	0	0	529	616
5	0	0	0	0	526	615
6	0	0	0	0	525	616
7	0	0	0	0	523	615
8	0	0	0	0	521	615
9	0	0	0	0	521	615
10	0	0	0	0	521	616
11	0	0	0	0	522	616
12	0	0	0	0	523	615
13	0	0	0	0	524	616
14	0	0	0	0	525	616
15	0	0	0	0	526	616
0	0	0	0	0	528	615
1	0	0	0	0	529	615
2	0	0	0	0	531	615
3	0	0	0	0	531	615
4	0	0	0	0	531	615
5	0	0	0	0	531	615
6	0	0	0	0	530	614
7	0	0	0	0	528	615
8	0	0	0	0	526	614
9	0	0	0	0	524	615
10	0	0	0	0	523	614
11	0	0	0	0	521	615
12	0	0	0	0	519	615
13	0	0	0	0	519	615
14	0	0	0	0	518	615
15	0	0	0	0	518	614
0	0	0	0	0	519	615
1	0	0	0	0	520	614
2	0	0	0	0	522	615
3	0	0	0	0	523	615
4	0	0	0	0	525	615
5	0	0	0	0	527	615
6	0	0	0	0	528	615
7	0	0	0	0	529	616
8	0	0	0	0	529	616
9	0	0	0	0	529	616
10	0	0	0	0	528	616
11	0	0	0	0	526	617
12	0	0	0	0	524	616
13	0	0	0	0	522	616
14	0	0	0	0	519	617
15	0	0	0	0	518	616
0	0	0	0	0	516	616
1	0	0	0	0	516	616
2	0	0	0	0	515	615
3	0	0	0	0	515	616
4	0	0	0	0	516	616
5	0	0	0	0	516	616
6	0	0	0	0	518	617
7	0	0	0	0	520	616
8	0	0	0	0	522	616
9	0	0	0	0	524	616
10	0	0	0	0	526	616
11	0	0	0	0	527	616
12	0	0	0	0	527	616
13	0	0	0	0	526	616
14	0	0	0	0	526	615
15	0	0	0	0	524	615
0	0	0	0	0	521	615
1	0	0	0	0	519	615
2	0	0	0	0	517	615
3	0	0	0	0	515	616
4	0	0	0	0	513	615
5	0	0	0	0	513	615
6	0	0	0	0	513	616
7	0	0	0	0	513	615
8	0	0	0	0	513	615
9	0	0	0	0	514	615
10	0	0	0	0	516	615
11	0	0	0	0	517	615
12	0	0	0	0	518	614
13	0	0	0	0	519	614
14	0	0	0	0	521	614
15	0	0	0	0	521	615
0	0	0	0	0	521	615
1	0	0	0	0	520	615
2	0	0	0	0	519	615
3	0	0	0	0	517	615
4	0	0	0	0	515	615
5	0	0	0	0	513	615
6	0	0	0	0	511	615
7	0	0	0	0	508	615
8	0	0	0	0	506	615
9	0	0	0	0	505	615
10	0	0	0	0	505	616
11	0	0	0	0	504	616
12	0	0	0	0	504	616
13	0	0	0	0	505	615
14	0	0	0	0	507	616
15	0	0	0	0	509	616
0	0	0	0	0	511	617
1	0	0	0	0	513	617
2	0	0	0	0	515	616
3	0	0	0	0	515	616
4	0	0	0	0	515	616
5	0	0	0	0	514	616
6	0	0	0	0	512	615
7	0	0	0	0	511	616
8	0	0	0	0	508	616
9	0	0	0	0	507	615
10	0	0	0	0	504	615
11	0	0	0	0	503	616
12	0	0	0	0	501	615
13	0	0	0	0	501	615
14	0	0	0	0	501	615
15	0	0	0	0	503	615
0	0	0	0	0	504	615
1	0	0	0	0	506	615
2	0	0	0	0	508	615
3	0	0	0	0	511	615
4	0	0	0	0	513	615
5	0	0	0	0	516	614
6	0	0	0	0	518	614
7	0	0	0	0	519	615
8	0	0	0	0	520	615
9	0	0	0	0	520	615
10	0	0	0	0	520	615
11	0	0	0	0	519	615
12	0	0	0	0	518	615
13	0	0	0	0	516	615
14	0	0	0	0	514	615
15	0	0	0	0	512	615
0	0	0	0	0	511	616
1	0	0	0	0	511	616
2	0	0	0	0	511	616
3	0	0	0	0	511	617
4	0	0	0	0	511	616
5	0	0	0	0	512	616
6	0	0	0	0	513	616
7	0	0	0	0	514	616
8	0	0	0	0	516	616
9	0	0	0	0	518	616
10	0	0	0	0	519	616
11	0	0	0	0	520	616
12	0	0	0	0	521	616
13	0	0	0	0	521	615
14	0	0	0	0	519	615
15	0	0	0	0	518	615
0	0	0	0	0	517	616
1	0	0	0	0	514	615
2	0	0	0	0	512	615
3	0	0	0	0	510	615
4	0	0	0	0	509	615
5	0	0	0	0	508	615
6	0	0	0	0	508	614
7	0	0	0	0	508	614
8	0	0	0	0	509	615
9	0	0	0	0	511	615
10	0	0	0	0	513	615
11	0	0	0	0	515	615
12	0	0	0	0	517	615
13	0	0	0	0	519	615
14	0	0	0	0	520	615
15	0	0	0	0	520	615
0	0	0	0	0	521	615
1	0	0	0	0	521	616
2	0	0	0	0	520	615
3	0	0	0	0	519	615
4	0	0	0	0	516	616
5	0	0	0	0	514	616
6	0	0	0	0	512	616
7	0	0	0	0	510	616
8	0	0	0	0	508	616
9	0	0	0	0	507	616
10	0	0	0	0	507	616
11	0	0	0	0	508	617
12	0	0	0	0	508	616
13	0	0	0	0	508	617
14	0	0	0	0	510	616
15	0	0	0	0	512	615
0	0	0	0	0	513	615
1	0	0	0	0	515	616
2	0	0	0	0	516	615
3	0	0	0	0	517	616
4	0	0	0	0	517	615
5	0	0	0	0	517	615
6	0	0	0	0	516	615
7	0	0	0	0	514	615
8	0	0	0	0	512	615
9	0	0	0	0	510	614
10	0	0	0	0	508	615
11	0	0	0	0	506	615
12	0	0	0	0	505	614
13	0	0	0	0	504	615
14	0	0	0	0	504	615
15	0	0	0	0	504	614
0	0	0	0	0	505	614
1	0	0	0	0	507	615
2	0	0	0	0	508	615
3	0	0	0	0	510	615
4	0	0	0	0	511	615
5	0	0	0	0	513	615
6	0	0	0	0	514	615
7	0	0	0	0	515	616
8	0	0	0	0	515	615
9	0	0	0	0	514	616
10	0	0	0	0	513	616
11	0	0	0	0	510	616
12	0	0	0	0	507	616
13	0	0	0	0	503	616
14	0	0	0	0	499	617
15	0	0	0	0	494	617
0	0	0	0	0	488	617
1	0	0	0	0	482	617
2	0	0	0	0	475	617
3	0	0	0	0	466	618
4	0	0	0	0	456	616
5	0	0	0	0	447	616
6	0	0	0	0	437	616
7	0	0	0	0	428	616
8	0	0	0	0	421	617
9	0	0	0	0	414	616
10	0	0	0	0	408	616
11	0	0	0	0	404	616
12	0	0	0	0	401	616
13	0	0	0	0	399	615
14	0	0	0	0	399	615
15	0	0	0	0	400	615
0	0	0	0	0	402	615
1	0	0	0	0	406	615
2	0	0	0	0	412	615
3	0	0	0	0	417	615
4	0	0	0	0	422	615
5	0	0	0	0	427	615
6	0	0	0	0	433	615
7	0	0	0	0	441	614
8	0	0	0	0	454	614
9	0	0	0	0	476	614
10	0	0	0	0	502	615
11	0	0	0	0	531	615
12	0	0	0	0	568	615
13	0	0	0	0	614	615
14	0	0	0	0	664	614
15	0	0	0	0	717	615
0	0	0	0	0	772	615
1	0	0	0	0	828	615
2	0	0	0	0	880	615
3	0	0	0	0	923	615
4	0	0	0	0	959	615
5	0	0	0	0	988	615
6	0	0	0	0	1008	616
7	0	0	0	0	1020	616
8	0	0	0	0	1022	617
9	0	0	0	0	1022	616
10	0	0	0	0	1022	616
11	0	0	0	0	1022	616
12	0	0	0	0	1014	616
13	0	0	0	0	998	617
14	0	0	0	0	978	617
15	0	0	0	0	955	616
0	0	0	0	0	928	616
1	0	0	0	0	897	616
2	0	0	0	0	864	616
3	0	0	0	0	830	616
4	0	0	0	0	798	615
5	0	0	0	0	768	616
6	0	0	0	0	739	615
7	0	0	0	0	711	615
8	0	0	0	0	686	615
9	0	0	0	0	663	615
10	0	0	0	0	643	615
11	0	0	0	0	624	615
12	0	0	0	0	608	615
13	0	0	0	0	591	615
14	0	0	0	0	575	615
15	0	0	0	0	560	615
0	0	0	0	0	547	615
1	0	0	0	0	533	615
2	0	0	0	0	519	614
3	0	0	0	0	507	615
4	0	0	0	0	495	615
5	0	0	0	0	484	615
6	0	0	0	0	473	615
7	0	0	0	0	464	615
8	0	0	0	0	454	615
9	0	0	0	0	444	615
10	0	0	0	0	434	615
11	0	0	0	0	424	616
12	0	0	0	0	416	616
13	0	0	0	0	408	616
14	0	0	0	0	400	616
15	0	0	0	0	394	616
0	0	0	0	0	390	616
1	0	0	0	0	386	616
2	0	0	0	0	383	615
3	0	0	0	0	381	616
4	0	0	0	0	380	615
5	0	0	0	0	381	616
6	0	0	0	0	381	615
7	0	0	0	0	382	615
8	0	0	0	0	384	615
9	0	0	0	0	385	615
10	0	0	0	0	386	615
11	0	0	0	0	388	615
12	0	0	0	0	388	615
13	0	0	0	0	388	615
14	0	0	0	0	388	615
15	0	0	0	0	386	615
0	0	0	0	0	384	615
1	0	0	0	0	382	615
2	0	0	0	0	381	615
3	0	0	0	0	380	615
4	0	0	0	0	379	614
5	0	0	0	0	379	614
6	0	0	0	0	380	615
7	0	0	0	0	381	615
8	0	0	0	0	383	615
9	0	0	0	0	385	615
10	0	0	0	0	388	615
11	0	0	0	0	391	615
12	0	0	0	0	395	616
13	0	0	0	0	398	615
14	0	0	0	0	400	616
15	0	0	0	0	402	616
0	0	0	0	0	402	616
1	0	0	0	0	403	616
2	0	0	0	0	403	616
3	0	0	0	0	402	617
4	0	0	0	0	401	616
5	0	0	0	0	399	616
6	0	0	0	0	398	616
7	0	0	0	0	397	616
8	0	0	0	0	397	616
9	0	0	0	0	398	616
10	0	0	0	0	399	616
11	0	0	0	0	400	616
12	0	0	0	0	402	616
13	0	0	0	0	405	615
14	0	0	0	0	407	616
15	0	0	0	0	409	615
0	0	0	0	0	412	615
1	0	0	0	0	415	615
2	0	0	0	0	417	615
3	0	0	0	0	419	615
4	0	0	0	0	420	614
5	0	0	0	0	420	615
6	0	0	0	0	421	615
7	0	0	0	0	420	615
8	0	0	0	0	419	615
9	0	0	0	0	417	615
10	0	0	0	0	416	615
11	0	0	0	0	415	615
12	0	0	0	0	414	615
13	0	0	0	0	414	615
14	0	0	0	0	415	615
15	0	0	0	0	416	615
0	0	0	0	0	417	615
1	0	0	0	0	419	615
2	0	0	0	0	421	615
3	0	0	0	0	423	616
4	0	0	0	0	426	615
5	0	0	0	0	429	616
6	0	0	0	0	432	616
7	0	0	0	0	433	616
8	0	0	0	0	435	616
9	0	0	0	0	435	616
10	0	0	0	0	436	616
11	0	0	0	0	434	616
12	0	0	0	0	433	616
13	0	0	0	0	431	616
14	0	0	0	0	429	616
15	0	0	0	0	428	615
0	0	0	0	0	426	616
1	0	0	0	0	426	616
2	0	0	0	0	426	615
3	0	0	0	0	427	616
