# OpenSignals Text File Format
# {"98:D3:91:FD:58:3A":{"sensor":["ECGBIT","ACCBITREV"],"device name":"98:D3:91:FD:58:3A","column":["nSeq","I1","I2","O1","O2","A2","A5"],"sync interval":2,"time":"11:42:18","comments":"","device connection":"BTH98:D3:91:FD:58:3A","channels":[2,5],"date":"2021-09-13","mode":0,"digital IO":[0,0,1,1],"firmware version":0,"device":"bitalino_rev","position":0,"sampling rate":1000,"label":["A2","A5"],"resolution":[10,10],"special":[{},{}]}}
# EndOfHeader
0	0	0	0	0	521	614
1	0	0	0	0	525	613
2	0	0	0	0	531	614
3	0	0	0	0	536	613
4	0	0	0	0	542	614
5	0	0	0	0	548	614
6	0	0	0	0	555	614
7	0	0	0	0	563	614
8	0	0	0	0	572	614
9	0	0	0	0	582	613
10	0	0	0	0	593	613
11	0	0	0	0	605	613
12	0	0	0	0	616	614
13	0	0	0	0	625	614
14	0	0	0	0	632	614
15	0	0	0	0	636	614
0	0	0	0	0	640	614
1	0	0	0	0	644	614
2	0	0	0	0	647	614
3	0	0	0	0	645	614
4	0	0	0	0	639	615
5	0	0	0	0	628	615
6	0	0	0	0	611	615
7	0	0	0	0	590	615
8	0	0	0	0	566	615
9	0	0	0	0	535	615
10	0	0	0	0	502	615
11	0	0	0	0	462	615
12	0	0	0	0	418	616
13	0	0	0	0	367	616
14	0	0	0	0	310	616
15	0	0	0	0	248	616
0	0	0	0	0	179	616
1	0	0	0	0	110	615
2	0	0	0	0	39	616
3	0	0	0	0	0	617
4	0	0	0	0	0	617
5	0	0	0	0	0	617
6	0	0	0	0	0	617
7	0	0	0	0	0	617
8	0	0	0	0	0	617
9	0	0	0	0	0	616
10	0	0	0	0	0	617
11	0	0	0	0	0	617
12	0	0	0	0	0	617
13	0	0	0	0	0	617
14	0	0	0	0	0	617
15	0	0	0	0	0	617
0	0	0	0	0	0	616
1	0	0	0	0	0	616
2	0	0	0	0	0	617
3	0	0	0	0	0	617
4	0	0	0	0	0	617
5	0	0	0	0	0	616
6	0	0	0	0	0	616
7	0	0	0	0	0	617
8	0	0	0	0	0	616
9	0	0	0	0	0	616
10	0	0	0	0	0	616
11	0	0	0	0	90	617
12	0	0	0	0	192	617
13	0	0	0	0	287	616
14	0	0	0	0	365	616
15	0	0	0	0	424	616
0	0	0	0	0	472	615
1	0	0	0	0	511	615
2	0	0	0	0	542	616
3	0	0	0	0	566	616
4	0	0	0	0	587	616
5	0	0	0	0	605	615
6	0	0	0	0	622	615
7	0	0	0	0	636	615
8	0	0	0	0	651	614
9	0	0	0	0	663	614
10	0	0	0	0	673	615
11	0	0	0	0	682	614
12	0	0	0	0	690	614
13	0	0	0	0	698	614
14	0	0	0	0	704	614
15	0	0	0	0	710	614
0	0	0	0	0	715	614
1	0	0	0	0	719	612
2	0	0	0	0	723	613
3	0	0	0	0	725	613
4	0	0	0	0	728	613
5	0	0	0	0	730	613
6	0	0	0	0	732	613
7	0	0	0	0	733	613
8	0	0	0	0	735	614
9	0	0	0	0	736	613
10	0	0	0	0	736	614
11	0	0	0	0	736	614
12	0	0	0	0	736	614
13	0	0	0	0	737	614
14	0	0	0	0	737	613
15	0	0	0	0	737	614
0	0	0	0	0	737	614
1	0	0	0	0	737	613
2	0	0	0	0	737	614
3	0	0	0	0	737	613
4	0	0	0	0	736	613
5	0	0	0	0	735	612
6	0	0	0	0	735	612
7	0	0	0	0	733	613
8	0	0	0	0	732	613
9	0	0	0	0	731	613
10	0	0	0	0	729	613
11	0	0	0	0	728	613
12	0	0	0	0	727	614
13	0	0	0	0	726	614
14	0	0	0	0	725	614
15	0	0	0	0	723	614
0	0	0	0	0	722	614
1	0	0	0	0	720	613
2	0	0	0	0	719	615
3	0	0	0	0	717	615
4	0	0	0	0	716	615
5	0	0	0	0	713	615
6	0	0	0	0	711	616
7	0	0	0	0	710	616
8	0	0	0	0	708	616
9	0	0	0	0	707	616
10	0	0	0	0	705	616
11	0	0	0	0	703	617
12	0	0	0	0	701	616
13	0	0	0	0	700	616
14	0	0	0	0	697	616
15	0	0	0	0	695	616
0	0	0	0	0	693	616
1	0	0	0	0	691	615
2	0	0	0	0	690	616
3	0	0	0	0	688	616
4	0	0	0	0	686	615
5	0	0	0	0	685	616
6	0	0	0	0	683	616
7	0	0	0	0	681	616
8	0	0	0	0	680	615
9	0	0	0	0	679	615
10	0	0	0	0	678	616
11	0	0	0	0	676	616
12	0	0	0	0	675	615
13	0	0	0	0	673	615
14	0	0	0	0	671	615
15	0	0	0	0	670	615
0	0	0	0	0	668	615
1	0	0	0	0	666	613
2	0	0	0	0	665	614
3	0	0	0	0	663	614
4	0	0	0	0	662	614
5	0	0	0	0	660	614
6	0	0	0	0	659	614
7	0	0	0	0	657	613
8	0	0	0	0	657	613
9	0	0	0	0	655	612
10	0	0	0	0	654	613
11	0	0	0	0	652	613
12	0	0	0	0	651	612
13	0	0	0	0	649	613
14	0	0	0	0	648	613
15	0	0	0	0	647	613
0	0	0	0	0	645	613
1	0	0	0	0	644	612
2	0	0	0	0	642	612
3	0	0	0	0	641	613
4	0	0	0	0	639	613
5	0	0	0	0	639	612
6	0	0	0	0	637	612
7	0	0	0	0	636	612
8	0	0	0	0	634	612
9	0	0	0	0	633	611
10	0	0	0	0	632	612
11	0	0	0	0	632	612
12	0	0	0	0	630	613
13	0	0	0	0	629	612
14	0	0	0	0	627	612
15	0	0	0	0	625	613
0	0	0	0	0	624	613
1	0	0	0	0	622	612
2	0	0	0	0	621	614
3	0	0	0	0	620	613
4	0	0	0	0	619	614
5	0	0	0	0	618	613
6	0	0	0	0	617	613
7	0	0	0	0	617	613
8	0	0	0	0	616	613
9	0	0	0	0	615	612
10	0	0	0	0	614	614
11	0	0	0	0	612	614
12	0	0	0	0	612	615
13	0	0	0	0	611	615
14	0	0	0	0	609	615
15	0	0	0	0	608	615
0	0	0	0	0	607	615
1	0	0	0	0	607	614
2	0	0	0	0	606	615
3	0	0	0	0	604	616
4	0	0	0	0	603	615
5	0	0	0	0	602	616
6	0	0	0	0	601	616
7	0	0	0	0	600	616
8	0	0	0	0	600	617
9	0	0	0	0	600	615
10	0	0	0	0	599	616
11	0	0	0	0	597	616
12	0	0	0	0	596	616
13	0	0	0	0	595	617
14	0	0	0	0	593	616
15	0	0	0	0	592	616
0	0	0	0	0	592	616
1	0	0	0	0	591	615
2	0	0	0	0	591	617
3	0	0	0	0	590	616
4	0	0	0	0	589	616
5	0	0	0	0	588	616
6	0	0	0	0	588	616
7	0	0	0	0	587	616
8	0	0	0	0	587	616
9	0	0	0	0	587	614
10	0	0	0	0	587	615
11	0	0	0	0	586	615
12	0	0	0	0	585	615
13	0	0	0	0	585	615
14	0	0	0	0	584	615
15	0	0	0	0	583	614
0	0	0	0	0	583	614
1	0	0	0	0	583	613
2	0	0	0	0	582	613
3	0	0	0	0	580	613
4	0	0	0	0	580	614
5	0	0	0	0	580	613
6	0	0	0	0	580	613
7	0	0	0	0	579	613
8	0	0	0	0	578	614
9	0	0	0	0	577	613
10	0	0	0	0	577	614
11	0	0	0	0	576	614
12	0	0	0	0	575	613
13	0	0	0	0	574	613
14	0	0	0	0	574	613
15	0	0	0	0	575	613
0	0	0	0	0	574	613
1	0	0	0	0	574	612
2	0	0	0	0	574	612
3	0	0	0	0	574	612
4	0	0	0	0	573	612
5	0	0	0	0	573	612
6	0	0	0	0	572	612
7	0	0	0	0	571	612
8	0	0	0	0	570	613
9	0	0	0	0	571	612
10	0	0	0	0	570	612
11	0	0	0	0	570	613
12	0	0	0	0	569	613
13	0	0	0	0	568	613
14	0	0	0	0	567	613
15	0	0	0	0	566	614
0	0	0	0	0	565	614
1	0	0	0	0	564	613
2	0	0	0	0	564	614
3	0	0	0	0	563	615
4	0	0	0	0	562	614
5	0	0	0	0	561	615
6	0	0	0	0	560	615
7	0	0	0	0	560	615
8	0	0	0	0	558	615
9	0	0	0	0	557	614
10	0	0	0	0	556	614
11	0	0	0	0	554	615
12	0	0	0	0	553	615
13	0	0	0	0	551	615
14	0	0	0	0	551	615
15	0	0	0	0	550	615
0	0	0	0	0	548	616
1	0	0	0	0	546	615
2	0	0	0	0	545	615
3	0	0	0	0	544	615
4	0	0	0	0	543	615
5	0	0	0	0	542	615
6	0	0	0	0	541	615
7	0	0	0	0	539	615
8	0	0	0	0	538	615
9	0	0	0	0	536	615
10	0	0	0	0	535	616
11	0	0	0	0	534	616
12	0	0	0	0	532	616
13	0	0	0	0	531	616
14	0	0	0	0	529	616
15	0	0	0	0	527	616
0	0	0	0	0	526	616
1	0	0	0	0	524	615
2	0	0	0	0	522	616
3	0	0	0	0	520	615
4	0	0	0	0	519	615
5	0	0	0	0	517	615
6	0	0	0	0	516	615
7	0	0	0	0	513	615
8	0	0	0	0	512	615
9	0	0	0	0	511	615
10	0	0	0	0	509	615
11	0	0	0	0	507	615
12	0	0	0	0	505	615
13	0	0	0	0	504	615
14	0	0	0	0	503	614
15	0	0	0	0	500	614
0	0	0	0	0	499	614
1	0	0	0	0	497	613
2	0	0	0	0	495	613
3	0	0	0	0	494	614
4	0	0	0	0	492	614
5	0	0	0	0	491	613
6	0	0	0	0	489	613
7	0	0	0	0	487	614
8	0	0	0	0	487	614
9	0	0	0	0	486	612
10	0	0	0	0	484	614
11	0	0	0	0	483	615
12	0	0	0	0	482	615
13	0	0	0	0	481	614
14	0	0	0	0	481	615
15	0	0	0	0	480	614
0	0	0	0	0	479	615
1	0	0	0	0	478	614
2	0	0	0	0	478	615
3	0	0	0	0	478	615
4	0	0	0	0	478	615
5	0	0	0	0	478	615
6	0	0	0	0	478	615
7	0	0	0	0	478	615
8	0	0	0	0	478	615
9	0	0	0	0	478	614
10	0	0	0	0	479	615
11	0	0	0	0	478	615
12	0	0	0	0	478	615
13	0	0	0	0	478	615
14	0	0	0	0	478	615
15	0	0	0	0	478	615
0	0	0	0	0	479	615
1	0	0	0	0	479	615
2	0	0	0	0	480	616
3	0	0	0	0	479	615
4	0	0	0	0	479	615
5	0	0	0	0	480	615
6	0	0	0	0	480	615
7	0	0	0	0	480	616
8	0	0	0	0	480	616
9	0	0	0	0	481	615
10	0	0	0	0	481	616
11	0	0	0	0	480	616
12	0	0	0	0	480	615
13	0	0	0	0	480	616
14	0	0	0	0	481	616
15	0	0	0	0	481	616
0	0	0	0	0	480	615
1	0	0	0	0	480	616
2	0	0	0	0	481	617
3	0	0	0	0	481	617
4	0	0	0	0	481	617
5	0	0	0	0	481	617
6	0	0	0	0	482	617
7	0	0	0	0	483	617
8	0	0	0	0	483	618
9	0	0	0	0	483	617
10	0	0	0	0	483	617
11	0	0	0	0	483	617
12	0	0	0	0	483	617
13	0	0	0	0	484	617
14	0	0	0	0	485	618
15	0	0	0	0	485	617
0	0	0	0	0	486	618
1	0	0	0	0	486	617
2	0	0	0	0	487	617
3	0	0	0	0	486	617
4	0	0	0	0	486	617
5	0	0	0	0	487	617
6	0	0	0	0	487	617
7	0	0	0	0	487	617
8	0	0	0	0	488	617
9	0	0	0	0	487	616
10	0	0	0	0	488	617
11	0	0	0	0	487	617
12	0	0	0	0	487	617
13	0	0	0	0	488	617
14	0	0	0	0	489	616
15	0	0	0	0	488	617
0	0	0	0	0	489	616
1	0	0	0	0	489	615
2	0	0	0	0	490	616
3	0	0	0	0	491	616
4	0	0	0	0	491	615
5	0	0	0	0	491	616
6	0	0	0	0	490	615
7	0	0	0	0	490	615
8	0	0	0	0	490	615
9	0	0	0	0	491	614
10	0	0	0	0	491	615
11	0	0	0	0	491	615
12	0	0	0	0	491	615
13	0	0	0	0	492	615
14	0	0	0	0	492	614
15	0	0	0	0	492	614
0	0	0	0	0	492	614
1	0	0	0	0	492	613
2	0	0	0	0	492	613
3	0	0	0	0	492	613
4	0	0	0	0	493	612
5	0	0	0	0	493	612
6	0	0	0	0	494	612
7	0	0	0	0	494	612
8	0	0	0	0	495	611
9	0	0	0	0	496	610
10	0	0	0	0	496	611
11	0	0	0	0	496	611
12	0	0	0	0	496	611
13	0	0	0	0	496	611
14	0	0	0	0	495	611
15	0	0	0	0	496	611
0	0	0	0	0	496	611
1	0	0	0	0	496	610
2	0	0	0	0	496	611
3	0	0	0	0	495	611
4	0	0	0	0	495	611
5	0	0	0	0	495	611
6	0	0	0	0	495	612
7	0	0	0	0	495	611
8	0	0	0	0	496	611
9	0	0	0	0	497	611
10	0	0	0	0	497	611
11	0	0	0	0	497	611
12	0	0	0	0	497	612
13	0	0	0	0	498	612
14	0	0	0	0	499	612
15	0	0	0	0	499	612
0	0	0	0	0	498	612
1	0	0	0	0	498	611
2	0	0	0	0	498	612
3	0	0	0	0	497	612
4	0	0	0	0	497	612
5	0	0	0	0	497	612
6	0	0	0	0	497	612
7	0	0	0	0	498	613
8	0	0	0	0	499	613
9	0	0	0	0	499	612
10	0	0	0	0	499	613
11	0	0	0	0	498	614
12	0	0	0	0	498	614
13	0	0	0	0	498	614
14	0	0	0	0	498	614
15	0	0	0	0	498	614
0	0	0	0	0	498	615
1	0	0	0	0	498	614
2	0	0	0	0	498	615
3	0	0	0	0	498	614
4	0	0	0	0	498	614
5	0	0	0	0	498	615
6	0	0	0	0	498	614
7	0	0	0	0	499	615
8	0	0	0	0	499	615
9	0	0	0	0	499	614
10	0	0	0	0	499	615
11	0	0	0	0	499	615
12	0	0	0	0	499	615
13	0	0	0	0	499	616
14	0	0	0	0	499	616
15	0	0	0	0	499	616
0	0	0	0	0	499	615
1	0	0	0	0	499	615
2	0	0	0	0	499	615
3	0	0	0	0	499	615
4	0	0	0	0	499	615
5	0	0	0	0	499	615
6	0	0	0	0	499	615
7	0	0	0	0	499	616
8	0	0	0	0	499	616
9	0	0	0	0	499	615
10	0	0	0	0	498	617
11	0	0	0	0	499	617
12	0	0	0	0	499	617
13	0	0	0	0	499	617
14	0	0	0	0	499	618
15	0	0	0	0	499	618
0	0	0	0	0	499	617
1	0	0	0	0	499	617
2	0	0	0	0	499	617
3	0	0	0	0	499	618
4	0	0	0	0	499	618
5	0	0	0	0	499	618
6	0	0	0	0	499	618
7	0	0	0	0	500	618
8	0	0	0	0	500	619
9	0	0	0	0	501	617
10	0	0	0	0	501	618
11	0	0	0	0	501	617
12	0	0	0	0	501	618
13	0	0	0	0	500	618
14	0	0	0	0	500	617
15	0	0	0	0	500	618
0	0	0	0	0	500	619
1	0	0	0	0	500	617
2	0	0	0	0	499	618
3	0	0	0	0	499	618
4	0	0	0	0	499	618
5	0	0	0	0	499	618
6	0	0	0	0	499	618
7	0	0	0	0	499	617
8	0	0	0	0	499	617
9	0	0	0	0	499	617
10	0	0	0	0	498	617
11	0	0	0	0	498	616
12	0	0	0	0	498	616
13	0	0	0	0	497	617
14	0	0	0	0	497	616
15	0	0	0	0	498	615
0	0	0	0	0	499	616
1	0	0	0	0	499	615
2	0	0	0	0	499	615
3	0	0	0	0	500	615
4	0	0	0	0	500	615
5	0	0	0	0	500	615
6	0	0	0	0	500	614
7	0	0	0	0	500	614
8	0	0	0	0	500	614
9	0	0	0	0	500	613
10	0	0	0	0	501	614
11	0	0	0	0	502	614
12	0	0	0	0	501	614
13	0	0	0	0	500	614
14	0	0	0	0	500	613
15	0	0	0	0	500	613
0	0	0	0	0	500	613
1	0	0	0	0	499	613
2	0	0	0	0	499	613
3	0	0	0	0	500	614
4	0	0	0	0	500	613
5	0	0	0	0	499	612
6	0	0	0	0	499	613
7	0	0	0	0	499	612
8	0	0	0	0	499	612
9	0	0	0	0	499	612
10	0	0	0	0	499	611
11	0	0	0	0	499	612
12	0	0	0	0	499	612
13	0	0	0	0	499	612
14	0	0	0	0	499	611
15	0	0	0	0	499	612
0	0	0	0	0	498	612
1	0	0	0	0	498	611
2	0	0	0	0	498	612
3	0	0	0	0	499	611
4	0	0	0	0	499	611
5	0	0	0	0	499	611
6	0	0	0	0	500	611
7	0	0	0	0	501	611
8	0	0	0	0	501	611
9	0	0	0	0	502	611
10	0	0	0	0	503	611
11	0	0	0	0	503	611
12	0	0	0	0	503	611
13	0	0	0	0	502	612
14	0	0	0	0	503	612
15	0	0	0	0	503	612
0	0	0	0	0	502	612
1	0	0	0	0	502	611
2	0	0	0	0	502	612
3	0	0	0	0	502	612
4	0	0	0	0	502	612
5	0	0	0	0	503	613
6	0	0	0	0	503	612
7	0	0	0	0	503	612
8	0	0	0	0	503	612
9	0	0	0	0	503	611
10	0	0	0	0	503	612
11	0	0	0	0	503	612
12	0	0	0	0	502	613
13	0	0	0	0	502	612
14	0	0	0	0	502	612
15	0	0	0	0	501	612
0	0	0	0	0	501	613
1	0	0	0	0	501	612
2	0	0	0	0	501	614
3	0	0	0	0	501	613
4	0	0	0	0	502	614
5	0	0	0	0	502	614
6	0	0	0	0	502	613
7	0	0	0	0	502	614
8	0	0	0	0	503	614
9	0	0	0	0	503	614
10	0	0	0	0	503	614
11	0	0	0	0	503	615
12	0	0	0	0	503	615
13	0	0	0	0	502	615
14	0	0	0	0	502	615
15	0	0	0	0	502	615
0	0	0	0	0	502	615
1	0	0	0	0	502	615
2	0	0	0	0	502	616
3	0	0	0	0	503	616
4	0	0	0	0	503	616
5	0	0	0	0	503	616
6	0	0	0	0	502	617
7	0	0	0	0	502	616
8	0	0	0	0	503	616
9	0	0	0	0	503	616
10	0	0	0	0	503	617
11	0	0	0	0	503	617
12	0	0	0	0	503	617
13	0	0	0	0	503	617
14	0	0	0	0	503	617
15	0	0	0	0	503	617
0	0	0	0	0	503	617
1	0	0	0	0	503	617
2	0	0	0	0	503	617
3	0	0	0	0	503	618
4	0	0	0	0	503	618
5	0	0	0	0	503	617
6	0	0	0	0	503	617
7	0	0	0	0	503	617
8	0	0	0	0	503	618
9	0	0	0	0	503	617
10	0	0	0	0	503	618
11	0	0	0	0	503	618
12	0	0	0	0	503	619
13	0	0	0	0	503	618
14	0	0	0	0	503	619
15	0	0	0	0	502	619
0	0	0	0	0	502	619
1	0	0	0	0	503	619
2	0	0	0	0	504	620
3	0	0	0	0	504	620
4	0	0	0	0	504	620
5	0	0	0	0	505	620
6	0	0	0	0	505	620
7	0	0	0	0	506	619
8	0	0	0	0	507	619
9	0	0	0	0	507	619
10	0	0	0	0	506	620
11	0	0	0	0	506	619
12	0	0	0	0	506	619
13	0	0	0	0	506	619
14	0	0	0	0	506	619
15	0	0	0	0	506	619
0	0	0	0	0	506	619
1	0	0	0	0	506	618
2	0	0	0	0	506	619
3	0	0	0	0	506	618
4	0	0	0	0	507	618
5	0	0	0	0	507	617
6	0	0	0	0	506	618
7	0	0	0	0	505	618
8	0	0	0	0	505	617
9	0	0	0	0	505	617
10	0	0	0	0	505	617
11	0	0	0	0	504	617
12	0	0	0	0	505	617
13	0	0	0	0	504	618
14	0	0	0	0	504	618
15	0	0	0	0	504	618
0	0	0	0	0	505	618
1	0	0	0	0	505	617
2	0	0	0	0	506	617
3	0	0	0	0	505	617
4	0	0	0	0	505	616
5	0	0	0	0	505	615
6	0	0	0	0	505	615
7	0	0	0	0	505	614
8	0	0	0	0	504	613
9	0	0	0	0	505	612
10	0	0	0	0	505	611
11	0	0	0	0	506	611
12	0	0	0	0	506	611
13	0	0	0	0	506	610
14	0	0	0	0	506	610
15	0	0	0	0	507	609
0	0	0	0	0	507	608
1	0	0	0	0	508	608
2	0	0	0	0	508	608
3	0	0	0	0	507	608
4	0	0	0	0	507	608
5	0	0	0	0	507	608
6	0	0	0	0	507	608
7	0	0	0	0	507	608
8	0	0	0	0	506	608
9	0	0	0	0	505	606
10	0	0	0	0	505	608
11	0	0	0	0	505	608
12	0	0	0	0	505	608
13	0	0	0	0	505	608
14	0	0	0	0	505	608
15	0	0	0	0	506	608
0	0	0	0	0	506	608
1	0	0	0	0	506	608
2	0	0	0	0	505	609
3	0	0	0	0	506	608
4	0	0	0	0	506	608
5	0	0	0	0	506	609
6	0	0	0	0	506	609
7	0	0	0	0	506	609
8	0	0	0	0	506	609
9	0	0	0	0	506	608
10	0	0	0	0	506	609
11	0	0	0	0	507	609
12	0	0	0	0	507	609
13	0	0	0	0	508	609
14	0	0	0	0	508	609
15	0	0	0	0	508	610
0	0	0	0	0	508	610
1	0	0	0	0	508	609
2	0	0	0	0	508	611
3	0	0	0	0	508	611
4	0	0	0	0	508	611
5	0	0	0	0	508	611
6	0	0	0	0	508	611
7	0	0	0	0	507	612
8	0	0	0	0	508	612
9	0	0	0	0	508	612
10	0	0	0	0	508	613
11	0	0	0	0	508	614
12	0	0	0	0	507	614
13	0	0	0	0	508	614
14	0	0	0	0	508	614
15	0	0	0	0	507	615
0	0	0	0	0	508	615
1	0	0	0	0	507	615
2	0	0	0	0	508	616
3	0	0	0	0	508	616
4	0	0	0	0	508	616
5	0	0	0	0	509	617
6	0	0	0	0	509	617
7	0	0	0	0	508	617
8	0	0	0	0	508	618
9	0	0	0	0	509	617
10	0	0	0	0	509	618
11	0	0	0	0	509	619
12	0	0	0	0	509	619
13	0	0	0	0	510	620
14	0	0	0	0	510	620
15	0	0	0	0	510	620
0	0	0	0	0	510	620
1	0	0	0	0	511	619
2	0	0	0	0	510	620
3	0	0	0	0	510	620
4	0	0	0	0	510	620
5	0	0	0	0	510	621
6	0	0	0	0	510	620
7	0	0	0	0	510	620
8	0	0	0	0	510	621
9	0	0	0	0	510	619
10	0	0	0	0	510	620
11	0	0	0	0	509	620
12	0	0	0	0	510	620
13	0	0	0	0	510	619
14	0	0	0	0	510	620
15	0	0	0	0	509	619
0	0	0	0	0	508	619
1	0	0	0	0	508	618
2	0	0	0	0	508	619
3	0	0	0	0	508	618
4	0	0	0	0	508	618
5	0	0	0	0	508	619
6	0	0	0	0	508	618
7	0	0	0	0	509	618
8	0	0	0	0	509	619
9	0	0	0	0	510	617
10	0	0	0	0	510	617
11	0	0	0	0	509	617
12	0	0	0	0	509	617
13	0	0	0	0	509	617
14	0	0	0	0	509	616
15	0	0	0	0	508	616
0	0	0	0	0	508	616
1	0	0	0	0	508	615
2	0	0	0	0	508	616
3	0	0	0	0	507	615
4	0	0	0	0	507	615
5	0	0	0	0	507	615
6	0	0	0	0	507	615
7	0	0	0	0	508	614
8	0	0	0	0	507	614
9	0	0	0	0	507	613
10	0	0	0	0	508	614
11	0	0	0	0	508	614
12	0	0	0	0	508	613
13	0	0	0	0	509	613
14	0	0	0	0	509	613
15	0	0	0	0	509	613
0	0	0	0	0	509	613
1	0	0	0	0	509	612
2	0	0	0	0	509	613
3	0	0	0	0	509	612
4	0	0	0	0	508	612
5	0	0	0	0	508	612
6	0	0	0	0	508	612
7	0	0	0	0	508	613
8	0	0	0	0	508	613
9	0	0	0	0	508	612
10	0	0	0	0	509	613
11	0	0	0	0	510	613
12	0	0	0	0	510	613
13	0	0	0	0	511	613
14	0	0	0	0	511	612
15	0	0	0	0	511	613
0	0	0	0	0	510	613
1	0	0	0	0	511	611
2	0	0	0	0	511	612
3	0	0	0	0	511	613
4	0	0	0	0	511	612
5	0	0	0	0	511	612
6	0	0	0	0	511	612
7	0	0	0	0	511	612
8	0	0	0	0	511	612
9	0	0	0	0	511	611
10	0	0	0	0	510	612
11	0	0	0	0	510	611
12	0	0	0	0	510	612
13	0	0	0	0	510	612
14	0	0	0	0	511	612
15	0	0	0	0	511	612
0	0	0	0	0	510	613
1	0	0	0	0	510	611
2	0	0	0	0	510	612
3	0	0	0	0	510	613
4	0	0	0	0	510	612
5	0	0	0	0	511	612
6	0	0	0	0	510	612
7	0	0	0	0	511	612
8	0	0	0	0	511	612
9	0	0	0	0	511	612
10	0	0	0	0	512	612
11	0	0	0	0	512	613
12	0	0	0	0	512	612
13	0	0	0	0	511	613
14	0	0	0	0	511	613
15	0	0	0	0	511	613
0	0	0	0	0	511	613
1	0	0	0	0	511	612
2	0	0	0	0	511	612
3	0	0	0	0	511	612
4	0	0	0	0	511	612
5	0	0	0	0	511	612
6	0	0	0	0	511	612
7	0	0	0	0	511	613
8	0	0	0	0	511	613
9	0	0	0	0	511	612
10	0	0	0	0	512	612
11	0	0	0	0	512	613
12	0	0	0	0	512	613
13	0	0	0	0	512	614
14	0	0	0	0	512	613
15	0	0	0	0	511	614
0	0	0	0	0	511	614
1	0	0	0	0	512	614
2	0	0	0	0	512	615
3	0	0	0	0	512	615
4	0	0	0	0	512	615
5	0	0	0	0	513	615
6	0	0	0	0	512	614
7	0	0	0	0	513	615
8	0	0	0	0	513	615
9	0	0	0	0	513	614
10	0	0	0	0	512	615
11	0	0	0	0	512	615
12	0	0	0	0	512	615
13	0	0	0	0	512	615
14	0	0	0	0	513	615
15	0	0	0	0	513	615
0	0	0	0	0	514	615
1	0	0	0	0	514	615
2	0	0	0	0	514	615
3	0	0	0	0	515	615
4	0	0	0	0	515	615
5	0	0	0	0	515	616
6	0	0	0	0	515	615
7	0	0	0	0	516	615
8	0	0	0	0	516	615
9	0	0	0	0	516	615
10	0	0	0	0	517	615
11	0	0	0	0	516	615
12	0	0	0	0	517	615
13	0	0	0	0	517	615
14	0	0	0	0	517	615
15	0	0	0	0	517	615
0	0	0	0	0	517	615
1	0	0	0	0	518	615
2	0	0	0	0	518	615
3	0	0	0	0	517	615
4	0	0	0	0	517	615
5	0	0	0	0	517	615
6	0	0	0	0	517	615
7	0	0	0	0	517	615
8	0	0	0	0	518	616
9	0	0	0	0	518	615
10	0	0	0	0	518	615
11	0	0	0	0	518	616
12	0	0	0	0	516	615
13	0	0	0	0	516	616
14	0	0	0	0	515	616
15	0	0	0	0	515	616
0	0	0	0	0	514	616
1	0	0	0	0	513	615
2	0	0	0	0	512	617
3	0	0	0	0	511	616
4	0	0	0	0	510	617
5	0	0	0	0	508	616
6	0	0	0	0	508	615
7	0	0	0	0	508	615
8	0	0	0	0	508	615
9	0	0	0	0	507	615
10	0	0	0	0	507	615
11	0	0	0	0	507	615
12	0	0	0	0	506	616
13	0	0	0	0	507	615
14	0	0	0	0	507	615
15	0	0	0	0	507	615
0	0	0	0	0	506	615
1	0	0	0	0	506	614
2	0	0	0	0	505	615
3	0	0	0	0	504	615
4	0	0	0	0	504	615
5	0	0	0	0	504	615
6	0	0	0	0	504	615
7	0	0	0	0	504	615
8	0	0	0	0	504	616
9	0	0	0	0	503	615
10	0	0	0	0	503	615
11	0	0	0	0	502	615
12	0	0	0	0	503	615
13	0	0	0	0	503	615
14	0	0	0	0	503	615
15	0	0	0	0	503	615
0	0	0	0	0	503	616
1	0	0	0	0	503	615
2	0	0	0	0	504	615
3	0	0	0	0	505	615
4	0	0	0	0	505	615
5	0	0	0	0	505	615
6	0	0	0	0	506	615
7	0	0	0	0	506	615
8	0	0	0	0	507	615
9	0	0	0	0	507	614
10	0	0	0	0	508	614
11	0	0	0	0	507	614
12	0	0	0	0	508	614
13	0	0	0	0	508	614
14	0	0	0	0	508	614
15	0	0	0	0	509	613
0	0	0	0	0	509	613
1	0	0	0	0	510	612
2	0	0	0	0	511	612
3	0	0	0	0	511	612
4	0	0	0	0	511	611
5	0	0	0	0	511	612
6	0	0	0	0	512	612
7	0	0	0	0	512	611
8	0	0	0	0	512	611
9	0	0	0	0	512	611
10	0	0	0	0	512	611
11	0	0	0	0	512	611
12	0	0	0	0	512	610
13	0	0	0	0	513	611
14	0	0	0	0	513	611
15	0	0	0	0	512	610
0	0	0	0	0	512	611
1	0	0	0	0	512	611
2	0	0	0	0	511	612
3	0	0	0	0	511	611
4	0	0	0	0	511	611
5	0	0	0	0	510	612
6	0	0	0	0	511	612
7	0	0	0	0	511	612
8	0	0	0	0	510	612
9	0	0	0	0	510	612
10	0	0	0	0	510	612
11	0	0	0	0	509	612
12	0	0	0	0	509	612
13	0	0	0	0	508	613
14	0	0	0	0	508	613
15	0	0	0	0	509	614
0	0	0	0	0	510	614
1	0	0	0	0	509	613
2	0	0	0	0	510	614
3	0	0	0	0	509	614
4	0	0	0	0	509	615
5	0	0	0	0	509	615
6	0	0	0	0	509	615
7	0	0	0	0	509	615
8	0	0	0	0	509	615
9	0	0	0	0	509	615
10	0	0	0	0	509	615
11	0	0	0	0	509	615
12	0	0	0	0	509	616
13	0	0	0	0	510	615
14	0	0	0	0	511	616
15	0	0	0	0	513	616
0	0	0	0	0	516	616
1	0	0	0	0	519	615
2	0	0	0	0	524	616
3	0	0	0	0	530	617
4	0	0	0	0	536	616
5	0	0	0	0	542	617
6	0	0	0	0	548	616
7	0	0	0	0	556	616
8	0	0	0	0	564	617
9	0	0	0	0	573	616
10	0	0	0	0	583	617
11	0	0	0	0	593	617
12	0	0	0	0	603	617
13	0	0	0	0	611	617
14	0	0	0	0	619	617
15	0	0	0	0	624	617
0	0	0	0	0	629	617
1	0	0	0	0	633	616
2	0	0	0	0	636	617
3	0	0	0	0	637	617
4	0	0	0	0	636	617
5	0	0	0	0	628	617
6	0	0	0	0	618	616
7	0	0	0	0	604	616
8	0	0	0	0	587	616
9	0	0	0	0	563	615
10	0	0	0	0	535	615
11	0	0	0	0	503	616
12	0	0	0	0	463	615
13	0	0	0	0	416	615
14	0	0	0	0	362	615
15	0	0	0	0	306	615
0	0	0	0	0	241	615
1	0	0	0	0	169	614
2	0	0	0	0	96	614
3	0	0	0	0	24	615
4	0	0	0	0	0	615
5	0	0	0	0	0	614
6	0	0	0	0	0	614
7	0	0	0	0	0	614
8	0	0	0	0	0	614
9	0	0	0	0	0	613
10	0	0	0	0	0	614
11	0	0	0	0	0	615
12	0	0	0	0	0	614
13	0	0	0	0	0	614
14	0	0	0	0	0	614
15	0	0	0	0	0	613
0	0	0	0	0	0	613
1	0	0	0	0	0	612
2	0	0	0	0	0	614
3	0	0	0	0	0	613
4	0	0	0	0	0	614
5	0	0	0	0	0	614
6	0	0	0	0	0	613
7	0	0	0	0	0	613
8	0	0	0	0	0	613
9	0	0	0	0	0	612
10	0	0	0	0	66	612
11	0	0	0	0	169	613
12	0	0	0	0	266	612
13	0	0	0	0	344	612
14	0	0	0	0	404	613
15	0	0	0	0	450	612
0	0	0	0	0	488	612
1	0	0	0	0	519	612
2	0	0	0	0	544	614
3	0	0	0	0	565	613
4	0	0	0	0	583	612
5	0	0	0	0	601	613
6	0	0	0	0	616	613
7	0	0	0	0	630	613
8	0	0	0	0	643	613
9	0	0	0	0	655	612
10	0	0	0	0	665	614
11	0	0	0	0	673	614
12	0	0	0	0	681	614
13	0	0	0	0	689	614
14	0	0	0	0	695	614
15	0	0	0	0	700	615
0	0	0	0	0	705	614
1	0	0	0	0	708	614
2	0	0	0	0	712	615
3	0	0	0	0	715	615
4	0	0	0	0	718	615
5	0	0	0	0	720	615
6	0	0	0	0	721	615
7	0	0	0	0	723	615
8	0	0	0	0	723	615
9	0	0	0	0	723	615
10	0	0	0	0	725	616
11	0	0	0	0	725	616
12	0	0	0	0	725	616
13	0	0	0	0	724	616
14	0	0	0	0	724	616
15	0	0	0	0	724	616
0	0	0	0	0	723	615
1	0	0	0	0	723	615
2	0	0	0	0	723	615
3	0	0	0	0	723	615
4	0	0	0	0	723	615
5	0	0	0	0	721	615
6	0	0	0	0	720	616
7	0	0	0	0	719	615
8	0	0	0	0	717	616
9	0	0	0	0	716	615
10	0	0	0	0	715	615
11	0	0	0	0	713	615
12	0	0	0	0	711	616
13	0	0	0	0	710	615
14	0	0	0	0	709	615
15	0	0	0	0	707	615
0	0	0	0	0	706	615
1	0	0	0	0	704	614
2	0	0	0	0	702	615
3	0	0	0	0	701	615
4	0	0	0	0	699	615
5	0	0	0	0	697	614
6	0	0	0	0	696	614
7	0	0	0	0	694	614
8	0	0	0	0	692	614
9	0	0	0	0	691	613
10	0	0	0	0	689	613
11	0	0	0	0	688	614
12	0	0	0	0	687	614
13	0	0	0	0	686	614
14	0	0	0	0	684	614
15	0	0	0	0	683	614
0	0	0	0	0	681	613
1	0	0	0	0	680	612
2	0	0	0	0	679	614
3	0	0	0	0	678	614
4	0	0	0	0	676	614
5	0	0	0	0	675	614
6	0	0	0	0	672	613
7	0	0	0	0	671	613
8	0	0	0	0	670	613
9	0	0	0	0	668	612
10	0	0	0	0	666	613
11	0	0	0	0	665	613
12	0	0	0	0	663	613
13	0	0	0	0	662	613
14	0	0	0	0	660	614
15	0	0	0	0	659	614
0	0	0	0	0	657	614
1	0	0	0	0	655	614
2	0	0	0	0	653	614
3	0	0	0	0	652	615
4	0	0	0	0	652	615
5	0	0	0	0	649	614
6	0	0	0	0	648	615
7	0	0	0	0	647	615
8	0	0	0	0	646	615
9	0	0	0	0	645	615
10	0	0	0	0	643	615
11	0	0	0	0	642	615
12	0	0	0	0	641	616
13	0	0	0	0	639	615
14	0	0	0	0	638	616
15	0	0	0	0	637	615
0	0	0	0	0	636	616
1	0	0	0	0	635	615
2	0	0	0	0	633	615
3	0	0	0	0	632	616
4	0	0	0	0	631	616
5	0	0	0	0	630	616
6	0	0	0	0	628	616
7	0	0	0	0	626	615
8	0	0	0	0	625	615
9	0	0	0	0	623	614
10	0	0	0	0	622	615
11	0	0	0	0	621	615
12	0	0	0	0	619	615
13	0	0	0	0	618	615
14	0	0	0	0	616	615
15	0	0	0	0	615	615
0	0	0	0	0	614	615
1	0	0	0	0	614	615
2	0	0	0	0	613	616
3	0	0	0	0	612	615
4	0	0	0	0	611	615
5	0	0	0	0	609	615
6	0	0	0	0	608	615
7	0	0	0	0	607	615
8	0	0	0	0	607	615
9	0	0	0	0	606	615
10	0	0	0	0	605	615
11	0	0	0	0	604	615
12	0	0	0	0	602	615
13	0	0	0	0	602	615
14	0	0	0	0	600	615
15	0	0	0	0	599	615
0	0	0	0	0	598	614
1	0	0	0	0	596	614
2	0	0	0	0	595	614
3	0	0	0	0	594	614
4	0	0	0	0	592	614
5	0	0	0	0	592	614
6	0	0	0	0	591	614
7	0	0	0	0	590	613
8	0	0	0	0	590	613
9	0	0	0	0	589	612
10	0	0	0	0	588	612
11	0	0	0	0	587	612
12	0	0	0	0	586	612
13	0	0	0	0	585	613
14	0	0	0	0	584	612
15	0	0	0	0	583	612
0	0	0	0	0	583	612
1	0	0	0	0	583	611
2	0	0	0	0	583	611
3	0	0	0	0	583	612
4	0	0	0	0	583	611
5	0	0	0	0	582	612
6	0	0	0	0	582	612
7	0	0	0	0	581	612
8	0	0	0	0	580	612
9	0	0	0	0	580	611
10	0	0	0	0	579	612
11	0	0	0	0	579	612
12	0	0	0	0	577	612
13	0	0	0	0	576	613
14	0	0	0	0	576	613
15	0	0	0	0	576	613
0	0	0	0	0	576	613
1	0	0	0	0	575	612
2	0	0	0	0	575	614
3	0	0	0	0	575	613
4	0	0	0	0	575	613
5	0	0	0	0	575	613
6	0	0	0	0	574	613
7	0	0	0	0	574	613
8	0	0	0	0	573	613
9	0	0	0	0	572	612
10	0	0	0	0	571	612
11	0	0	0	0	571	612
12	0	0	0	0	571	613
13	0	0	0	0	570	614
14	0	0	0	0	569	614
15	0	0	0	0	569	614
0	0	0	0	0	568	615
1	0	0	0	0	568	615
2	0	0	0	0	567	615
3	0	0	0	0	567	615
4	0	0	0	0	566	615
5	0	0	0	0	565	616
6	0	0	0	0	564	616
7	0	0	0	0	564	616
8	0	0	0	0	564	616
9	0	0	0	0	563	616
10	0	0	0	0	563	617
11	0	0	0	0	563	617
12	0	0	0	0	563	617
13	0	0	0	0	562	617
14	0	0	0	0	561	616
15	0	0	0	0	561	617
0	0	0	0	0	560	617
1	0	0	0	0	559	616
2	0	0	0	0	559	617
3	0	0	0	0	559	617
4	0	0	0	0	558	617
5	0	0	0	0	558	617
6	0	0	0	0	557	617
7	0	0	0	0	556	617
8	0	0	0	0	554	617
9	0	0	0	0	553	616
10	0	0	0	0	551	617
11	0	0	0	0	549	617
12	0	0	0	0	548	617
13	0	0	0	0	547	617
14	0	0	0	0	546	617
15	0	0	0	0	544	617
0	0	0	0	0	543	617
1	0	0	0	0	543	615
2	0	0	0	0	541	617
3	0	0	0	0	540	616
4	0	0	0	0	538	616
5	0	0	0	0	537	616
6	0	0	0	0	536	616
7	0	0	0	0	534	616
8	0	0	0	0	532	615
9	0	0	0	0	531	614
10	0	0	0	0	529	615
11	0	0	0	0	527	615
12	0	0	0	0	526	615
13	0	0	0	0	525	615
14	0	0	0	0	524	614
15	0	0	0	0	521	615
0	0	0	0	0	520	614
1	0	0	0	0	518	614
2	0	0	0	0	517	614
3	0	0	0	0	515	614
4	0	0	0	0	513	614
5	0	0	0	0	511	614
6	0	0	0	0	509	614
7	0	0	0	0	507	614
8	0	0	0	0	505	614
9	0	0	0	0	503	613
10	0	0	0	0	501	614
11	0	0	0	0	499	613
12	0	0	0	0	497	613
13	0	0	0	0	496	614
14	0	0	0	0	495	613
15	0	0	0	0	493	613
0	0	0	0	0	491	613
1	0	0	0	0	489	612
2	0	0	0	0	488	613
3	0	0	0	0	486	614
4	0	0	0	0	486	614
5	0	0	0	0	484	613
6	0	0	0	0	483	613
7	0	0	0	0	482	613
8	0	0	0	0	481	614
9	0	0	0	0	480	613
10	0	0	0	0	480	614
11	0	0	0	0	479	614
12	0	0	0	0	479	615
13	0	0	0	0	479	614
14	0	0	0	0	479	614
15	0	0	0	0	479	615
0	0	0	0	0	479	614
1	0	0	0	0	480	614
2	0	0	0	0	480	615
3	0	0	0	0	480	614
4	0	0	0	0	481	614
5	0	0	0	0	481	614
6	0	0	0	0	481	614
7	0	0	0	0	482	615
8	0	0	0	0	482	615
9	0	0	0	0	481	614
10	0	0	0	0	482	615
11	0	0	0	0	482	614
12	0	0	0	0	482	614
13	0	0	0	0	482	615
14	0	0	0	0	482	614
15	0	0	0	0	483	615
0	0	0	0	0	483	614
1	0	0	0	0	484	614
2	0	0	0	0	484	615
3	0	0	0	0	485	615
4	0	0	0	0	484	615
5	0	0	0	0	484	614
6	0	0	0	0	486	615
7	0	0	0	0	486	615
8	0	0	0	0	486	614
9	0	0	0	0	486	614
10	0	0	0	0	486	614
11	0	0	0	0	486	614
12	0	0	0	0	487	614
13	0	0	0	0	487	614
14	0	0	0	0	487	615
15	0	0	0	0	487	614
0	0	0	0	0	487	614
1	0	0	0	0	487	613
2	0	0	0	0	487	614
3	0	0	0	0	488	614
4	0	0	0	0	488	614
5	0	0	0	0	489	613
6	0	0	0	0	489	614
7	0	0	0	0	490	614
8	0	0	0	0	490	614
9	0	0	0	0	491	613
10	0	0	0	0	492	614
11	0	0	0	0	492	613
12	0	0	0	0	492	612
13	0	0	0	0	493	614
14	0	0	0	0	493	613
15	0	0	0	0	493	614
0	0	0	0	0	493	614
1	0	0	0	0	493	612
2	0	0	0	0	492	612
3	0	0	0	0	493	612
4	0	0	0	0	494	612
5	0	0	0	0	494	612
6	0	0	0	0	494	612
7	0	0	0	0	495	613
8	0	0	0	0	495	612
9	0	0	0	0	496	612
10	0	0	0	0	496	612
11	0	0	0	0	496	612
12	0	0	0	0	496	613
13	0	0	0	0	496	613
14	0	0	0	0	497	613
15	0	0	0	0	497	613
0	0	0	0	0	497	613
1	0	0	0	0	497	612
2	0	0	0	0	497	613
3	0	0	0	0	496	614
4	0	0	0	0	497	614
5	0	0	0	0	497	614
6	0	0	0	0	498	614
7	0	0	0	0	498	614
8	0	0	0	0	498	614
9	0	0	0	0	498	613
10	0	0	0	0	499	613
11	0	0	0	0	498	614
12	0	0	0	0	499	614
13	0	0	0	0	498	615
14	0	0	0	0	499	615
15	0	0	0	0	498	615
0	0	0	0	0	498	615
1	0	0	0	0	499	614
2	0	0	0	0	499	615
3	0	0	0	0	499	614
4	0	0	0	0	499	614
5	0	0	0	0	500	615
6	0	0	0	0	499	615
7	0	0	0	0	500	614
8	0	0	0	0	500	615
9	0	0	0	0	500	614
10	0	0	0	0	501	615
11	0	0	0	0	500	615
12	0	0	0	0	501	615
13	0	0	0	0	502	615
14	0	0	0	0	502	615
15	0	0	0	0	502	615
0	0	0	0	0	502	616
1	0	0	0	0	503	615
2	0	0	0	0	503	616
3	0	0	0	0	503	616
4	0	0	0	0	502	616
5	0	0	0	0	502	616
6	0	0	0	0	503	616
7	0	0	0	0	503	616
8	0	0	0	0	503	616
9	0	0	0	0	504	616
10	0	0	0	0	504	616
11	0	0	0	0	504	617
12	0	0	0	0	504	617
13	0	0	0	0	504	616
14	0	0	0	0	504	616
15	0	0	0	0	504	618
0	0	0	0	0	504	617
1	0	0	0	0	504	617
2	0	0	0	0	504	617
3	0	0	0	0	504	617
4	0	0	0	0	504	617
5	0	0	0	0	504	617
6	0	0	0	0	504	617
7	0	0	0	0	504	617
8	0	0	0	0	504	617
9	0	0	0	0	504	616
10	0	0	0	0	505	616
11	0	0	0	0	504	617
12	0	0	0	0	504	617
13	0	0	0	0	504	615
14	0	0	0	0	504	616
15	0	0	0	0	504	616
0	0	0	0	0	504	616
1	0	0	0	0	504	615
2	0	0	0	0	504	615
3	0	0	0	0	503	615
4	0	0	0	0	503	615
5	0	0	0	0	503	615
6	0	0	0	0	503	615
7	0	0	0	0	503	615
8	0	0	0	0	503	615
9	0	0	0	0	503	613
10	0	0	0	0	502	615
11	0	0	0	0	502	614
12	0	0	0	0	502	614
13	0	0	0	0	502	613
14	0	0	0	0	502	613
15	0	0	0	0	502	613
0	0	0	0	0	503	613
1	0	0	0	0	503	612
2	0	0	0	0	503	612
3	0	0	0	0	503	613
4	0	0	0	0	503	612
5	0	0	0	0	503	612
6	0	0	0	0	503	612
7	0	0	0	0	503	613
8	0	0	0	0	504	612
9	0	0	0	0	503	611
10	0	0	0	0	504	611
11	0	0	0	0	503	611
12	0	0	0	0	502	611
13	0	0	0	0	503	612
14	0	0	0	0	503	611
15	0	0	0	0	503	611
0	0	0	0	0	502	611
1	0	0	0	0	501	611
2	0	0	0	0	501	611
3	0	0	0	0	501	612
4	0	0	0	0	501	613
5	0	0	0	0	500	611
6	0	0	0	0	501	612
7	0	0	0	0	501	613
8	0	0	0	0	501	612
9	0	0	0	0	500	612
10	0	0	0	0	501	613
11	0	0	0	0	501	613
12	0	0	0	0	501	613
13	0	0	0	0	500	613
14	0	0	0	0	500	613
15	0	0	0	0	500	614
0	0	0	0	0	499	614
1	0	0	0	0	499	612
2	0	0	0	0	499	613
3	0	0	0	0	499	613
4	0	0	0	0	499	614
5	0	0	0	0	499	614
6	0	0	0	0	499	614
7	0	0	0	0	499	614
8	0	0	0	0	499	613
9	0	0	0	0	499	613
10	0	0	0	0	500	614
11	0	0	0	0	500	614
12	0	0	0	0	500	614
13	0	0	0	0	499	614
14	0	0	0	0	499	613
15	0	0	0	0	499	614
0	0	0	0	0	499	614
1	0	0	0	0	499	613
2	0	0	0	0	499	614
3	0	0	0	0	499	614
4	0	0	0	0	499	615
5	0	0	0	0	499	615
6	0	0	0	0	499	615
7	0	0	0	0	499	615
8	0	0	0	0	499	615
9	0	0	0	0	499	615
10	0	0	0	0	498	615
11	0	0	0	0	498	615
12	0	0	0	0	498	615
13	0	0	0	0	499	615
14	0	0	0	0	499	615
15	0	0	0	0	499	615
0	0	0	0	0	499	615
1	0	0	0	0	499	614
2	0	0	0	0	499	615
3	0	0	0	0	499	615
4	0	0	0	0	499	615
5	0	0	0	0	499	616
6	0	0	0	0	499	615
7	0	0	0	0	499	615
8	0	0	0	0	500	615
9	0	0	0	0	499	615
10	0	0	0	0	499	615
11	0	0	0	0	499	615
12	0	0	0	0	499	615
13	0	0	0	0	500	615
14	0	0	0	0	499	615
15	0	0	0	0	499	615
0	0	0	0	0	499	615
1	0	0	0	0	499	614
2	0	0	0	0	499	614
3	0	0	0	0	499	614
4	0	0	0	0	499	614
5	0	0	0	0	499	614
6	0	0	0	0	499	614
7	0	0	0	0	499	614
8	0	0	0	0	499	613
9	0	0	0	0	499	613
10	0	0	0	0	500	614
11	0	0	0	0	500	614
12	0	0	0	0	499	614
13	0	0	0	0	500	614
14	0	0	0	0	500	614
15	0	0	0	0	500	614
0	0	0	0	0	500	613
1	0	0	0	0	500	613
2	0	0	0	0	499	614
3	0	0	0	0	499	614
4	0	0	0	0	500	614
5	0	0	0	0	500	614
6	0	0	0	0	500	614
7	0	0	0	0	500	613
8	0	0	0	0	500	614
9	0	0	0	0	500	613
10	0	0	0	0	499	614
11	0	0	0	0	499	614
12	0	0	0	0	499	614
13	0	0	0	0	500	614
14	0	0	0	0	500	614
15	0	0	0	0	500	615
0	0	0	0	0	501	614
1	0	0	0	0	501	614
2	0	0	0	0	501	615
3	0	0	0	0	501	614
4	0	0	0	0	501	615
5	0	0	0	0	501	615
6	0	0	0	0	502	615
7	0	0	0	0	502	615
8	0	0	0	0	502	616
9	0	0	0	0	502	615
10	0	0	0	0	502	616
11	0	0	0	0	502	616
12	0	0	0	0	502	616
13	0	0	0	0	502	616
14	0	0	0	0	502	616
15	0	0	0	0	502	616
0	0	0	0	0	502	616
1	0	0	0	0	501	616
2	0	0	0	0	502	617
3	0	0	0	0	501	617
4	0	0	0	0	502	617
5	0	0	0	0	501	616
6	0	0	0	0	501	617
7	0	0	0	0	502	616
8	0	0	0	0	501	617
9	0	0	0	0	502	616
10	0	0	0	0	501	617
11	0	0	0	0	501	617
12	0	0	0	0	501	617
13	0	0	0	0	501	617
14	0	0	0	0	500	616
15	0	0	0	0	500	616
0	0	0	0	0	500	616
1	0	0	0	0	500	615
2	0	0	0	0	501	615
3	0	0	0	0	500	616
4	0	0	0	0	500	616
5	0	0	0	0	500	616
6	0	0	0	0	500	615
7	0	0	0	0	501	615
8	0	0	0	0	501	615
9	0	0	0	0	502	614
10	0	0	0	0	502	614
11	0	0	0	0	502	614
12	0	0	0	0	502	614
13	0	0	0	0	503	614
14	0	0	0	0	503	614
15	0	0	0	0	503	614
0	0	0	0	0	504	614
1	0	0	0	0	504	613
2	0	0	0	0	504	613
3	0	0	0	0	504	613
4	0	0	0	0	503	614
5	0	0	0	0	503	614
6	0	0	0	0	503	613
7	0	0	0	0	503	613
8	0	0	0	0	503	613
9	0	0	0	0	503	612
10	0	0	0	0	503	613
11	0	0	0	0	503	613
12	0	0	0	0	503	613
13	0	0	0	0	502	613
14	0	0	0	0	502	613
15	0	0	0	0	502	613
0	0	0	0	0	501	613
1	0	0	0	0	502	613
2	0	0	0	0	502	614
3	0	0	0	0	502	614
4	0	0	0	0	502	614
5	0	0	0	0	502	614
6	0	0	0	0	502	614
7	0	0	0	0	502	615
8	0	0	0	0	503	614
9	0	0	0	0	503	614
10	0	0	0	0	503	615
11	0	0	0	0	502	615
12	0	0	0	0	502	615
13	0	0	0	0	501	615
14	0	0	0	0	502	615
15	0	0	0	0	502	614
0	0	0	0	0	502	614
1	0	0	0	0	503	613
2	0	0	0	0	503	614
3	0	0	0	0	504	614
4	0	0	0	0	503	614
5	0	0	0	0	504	614
6	0	0	0	0	504	614
7	0	0	0	0	504	614
8	0	0	0	0	504	614
9	0	0	0	0	504	613
10	0	0	0	0	504	614
11	0	0	0	0	504	614
12	0	0	0	0	504	614
13	0	0	0	0	504	614
14	0	0	0	0	504	614
15	0	0	0	0	504	614
0	0	0	0	0	504	614
1	0	0	0	0	504	613
2	0	0	0	0	505	614
3	0	0	0	0	505	614
4	0	0	0	0	504	613
5	0	0	0	0	505	613
6	0	0	0	0	504	613
7	0	0	0	0	504	613
8	0	0	0	0	504	613
9	0	0	0	0	504	612
10	0	0	0	0	505	614
11	0	0	0	0	505	614
12	0	0	0	0	504	614
13	0	0	0	0	504	614
14	0	0	0	0	504	614
15	0	0	0	0	504	614
0	0	0	0	0	504	613
1	0	0	0	0	504	612
2	0	0	0	0	504	614
3	0	0	0	0	503	614
4	0	0	0	0	503	614
5	0	0	0	0	504	614
6	0	0	0	0	504	613
7	0	0	0	0	504	613
8	0	0	0	0	504	613
9	0	0	0	0	504	612
10	0	0	0	0	504	613
11	0	0	0	0	504	613
12	0	0	0	0	504	613
13	0	0	0	0	503	613
14	0	0	0	0	504	612
15	0	0	0	0	504	613
0	0	0	0	0	504	612
1	0	0	0	0	504	612
2	0	0	0	0	505	612
3	0	0	0	0	504	612
4	0	0	0	0	504	613
5	0	0	0	0	504	613
6	0	0	0	0	504	613
7	0	0	0	0	504	613
8	0	0	0	0	504	613
9	0	0	0	0	504	613
10	0	0	0	0	503	613
11	0	0	0	0	503	614
12	0	0	0	0	503	614
13	0	0	0	0	503	614
14	0	0	0	0	503	614
15	0	0	0	0	503	615
0	0	0	0	0	503	614
1	0	0	0	0	503	614
2	0	0	0	0	503	615
3	0	0	0	0	503	615
4	0	0	0	0	503	615
5	0	0	0	0	503	615
6	0	0	0	0	503	615
7	0	0	0	0	504	615
8	0	0	0	0	504	615
9	0	0	0	0	504	614
10	0	0	0	0	504	615
11	0	0	0	0	503	615
12	0	0	0	0	503	615
13	0	0	0	0	503	615
14	0	0	0	0	504	615
15	0	0	0	0	504	615
0	0	0	0	0	504	615
1	0	0	0	0	504	615
2	0	0	0	0	504	615
3	0	0	0	0	504	615
4	0	0	0	0	504	615
5	0	0	0	0	504	616
6	0	0	0	0	504	616
7	0	0	0	0	505	616
8	0	0	0	0	505	616
9	0	0	0	0	505	615
10	0	0	0	0	505	615
11	0	0	0	0	504	615
12	0	0	0	0	504	616
13	0	0	0	0	504	615
14	0	0	0	0	503	615
15	0	0	0	0	503	615
0	0	0	0	0	503	615
1	0	0	0	0	503	614
2	0	0	0	0	503	615
3	0	0	0	0	503	615
4	0	0	0	0	502	615
5	0	0	0	0	502	615
6	0	0	0	0	502	615
7	0	0	0	0	502	615
8	0	0	0	0	503	614
9	0	0	0	0	502	614
10	0	0	0	0	502	614
11	0	0	0	0	503	615
12	0	0	0	0	503	615
13	0	0	0	0	503	615
14	0	0	0	0	503	615
15	0	0	0	0	503	615
0	0	0	0	0	503	616
1	0	0	0	0	503	615
2	0	0	0	0	503	615
3	0	0	0	0	502	615
4	0	0	0	0	503	615
5	0	0	0	0	504	616
6	0	0	0	0	504	616
7	0	0	0	0	504	615
8	0	0	0	0	505	616
9	0	0	0	0	505	615
10	0	0	0	0	505	616
11	0	0	0	0	504	616
12	0	0	0	0	504	616
13	0	0	0	0	504	616
14	0	0	0	0	504	616
15	0	0	0	0	504	616
0	0	0	0	0	505	616
1	0	0	0	0	505	615
2	0	0	0	0	505	616
3	0	0	0	0	505	616
4	0	0	0	0	505	615
5	0	0	0	0	505	616
6	0	0	0	0	505	615
7	0	0	0	0	505	615
8	0	0	0	0	505	615
9	0	0	0	0	505	614
10	0	0	0	0	505	614
11	0	0	0	0	506	615
12	0	0	0	0	506	614
13	0	0	0	0	506	614
14	0	0	0	0	506	615
15	0	0	0	0	506	614
0	0	0	0	0	506	614
1	0	0	0	0	506	614
2	0	0	0	0	506	614
3	0	0	0	0	506	613
4	0	0	0	0	506	613
5	0	0	0	0	506	612
6	0	0	0	0	506	613
7	0	0	0	0	506	613
8	0	0	0	0	506	612
9	0	0	0	0	505	612
10	0	0	0	0	505	613
11	0	0	0	0	506	613
12	0	0	0	0	506	612
13	0	0	0	0	506	612
14	0	0	0	0	506	613
15	0	0	0	0	506	613
0	0	0	0	0	506	613
1	0	0	0	0	507	612
2	0	0	0	0	506	613
3	0	0	0	0	505	614
4	0	0	0	0	505	614
5	0	0	0	0	504	614
6	0	0	0	0	504	614
7	0	0	0	0	504	615
8	0	0	0	0	505	615
9	0	0	0	0	504	614
10	0	0	0	0	505	615
11	0	0	0	0	505	615
12	0	0	0	0	505	616
13	0	0	0	0	505	615
14	0	0	0	0	505	616
15	0	0	0	0	505	616
0	0	0	0	0	505	615
1	0	0	0	0	505	615
2	0	0	0	0	505	615
3	0	0	0	0	505	615
4	0	0	0	0	505	615
5	0	0	0	0	504	615
6	0	0	0	0	505	615
7	0	0	0	0	506	615
8	0	0	0	0	506	615
9	0	0	0	0	506	615
10	0	0	0	0	506	615
11	0	0	0	0	506	614
12	0	0	0	0	507	614
13	0	0	0	0	507	614
14	0	0	0	0	507	614
15	0	0	0	0	507	614
0	0	0	0	0	506	613
1	0	0	0	0	505	613
2	0	0	0	0	506	613
3	0	0	0	0	505	613
4	0	0	0	0	505	613
5	0	0	0	0	506	613
6	0	0	0	0	506	613
7	0	0	0	0	506	612
8	0	0	0	0	507	612
9	0	0	0	0	507	611
10	0	0	0	0	507	611
11	0	0	0	0	507	611
12	0	0	0	0	506	611
13	0	0	0	0	506	611
14	0	0	0	0	507	611
15	0	0	0	0	507	611
0	0	0	0	0	508	611
1	0	0	0	0	507	609
2	0	0	0	0	507	610
3	0	0	0	0	507	610
4	0	0	0	0	507	609
5	0	0	0	0	507	610
6	0	0	0	0	506	609
7	0	0	0	0	507	610
8	0	0	0	0	506	610
9	0	0	0	0	506	609
10	0	0	0	0	507	611
11	0	0	0	0	507	611
12	0	0	0	0	507	611
13	0	0	0	0	507	611
14	0	0	0	0	506	612
15	0	0	0	0	507	612
0	0	0	0	0	507	612
1	0	0	0	0	507	612
2	0	0	0	0	507	614
3	0	0	0	0	507	614
4	0	0	0	0	507	614
5	0	0	0	0	507	614
6	0	0	0	0	507	615
7	0	0	0	0	507	615
8	0	0	0	0	507	615
9	0	0	0	0	507	615
10	0	0	0	0	507	615
11	0	0	0	0	507	615
12	0	0	0	0	507	616
13	0	0	0	0	507	616
14	0	0	0	0	507	616
15	0	0	0	0	507	616
0	0	0	0	0	507	616
1	0	0	0	0	508	616
2	0	0	0	0	508	616
3	0	0	0	0	508	616
4	0	0	0	0	509	616
5	0	0	0	0	509	616
6	0	0	0	0	510	617
7	0	0	0	0	510	616
8	0	0	0	0	510	617
9	0	0	0	0	511	616
10	0	0	0	0	512	616
11	0	0	0	0	512	617
12	0	0	0	0	513	617
13	0	0	0	0	513	617
14	0	0	0	0	513	617
15	0	0	0	0	513	617
0	0	0	0	0	513	617
1	0	0	0	0	513	616
2	0	0	0	0	514	616
3	0	0	0	0	513	616
4	0	0	0	0	514	615
5	0	0	0	0	514	615
6	0	0	0	0	514	615
7	0	0	0	0	514	615
8	0	0	0	0	514	615
9	0	0	0	0	513	614
10	0	0	0	0	514	614
11	0	0	0	0	515	614
12	0	0	0	0	515	614
13	0	0	0	0	514	614
14	0	0	0	0	514	613
15	0	0	0	0	514	613
0	0	0	0	0	515	613
1	0	0	0	0	514	612
2	0	0	0	0	513	612
3	0	0	0	0	512	613
4	0	0	0	0	512	613
5	0	0	0	0	511	613
6	0	0	0	0	510	612
7	0	0	0	0	509	613
8	0	0	0	0	508	613
9	0	0	0	0	506	611
10	0	0	0	0	505	612
11	0	0	0	0	504	612
12	0	0	0	0	504	613
13	0	0	0	0	504	614
14	0	0	0	0	503	614
15	0	0	0	0	503	614
0	0	0	0	0	503	614
1	0	0	0	0	503	614
2	0	0	0	0	503	615
3	0	0	0	0	503	615
4	0	0	0	0	502	615
5	0	0	0	0	503	615
6	0	0	0	0	503	615
7	0	0	0	0	503	615
8	0	0	0	0	503	615
9	0	0	0	0	503	615
10	0	0	0	0	502	616
11	0	0	0	0	502	616
12	0	0	0	0	501	616
13	0	0	0	0	501	616
14	0	0	0	0	501	616
15	0	0	0	0	501	617
0	0	0	0	0	500	617
1	0	0	0	0	501	615
2	0	0	0	0	501	617
3	0	0	0	0	501	617
4	0	0	0	0	501	617
5	0	0	0	0	501	617
6	0	0	0	0	502	616
7	0	0	0	0	502	616
8	0	0	0	0	502	617
9	0	0	0	0	503	615
10	0	0	0	0	503	616
11	0	0	0	0	503	616
12	0	0	0	0	503	616
13	0	0	0	0	504	616
14	0	0	0	0	504	617
15	0	0	0	0	504	616
0	0	0	0	0	504	616
1	0	0	0	0	504	615
2	0	0	0	0	505	616
3	0	0	0	0	505	615
4	0	0	0	0	506	616
5	0	0	0	0	506	615
6	0	0	0	0	507	615
7	0	0	0	0	507	615
8	0	0	0	0	508	615
9	0	0	0	0	508	615
10	0	0	0	0	509	615
11	0	0	0	0	509	614
12	0	0	0	0	509	614
13	0	0	0	0	510	614
14	0	0	0	0	510	614
15	0	0	0	0	510	614
0	0	0	0	0	511	613
1	0	0	0	0	511	611
2	0	0	0	0	510	612
3	0	0	0	0	510	612
4	0	0	0	0	510	612
5	0	0	0	0	510	612
6	0	0	0	0	510	612
7	0	0	0	0	510	612
8	0	0	0	0	510	612
9	0	0	0	0	510	611
10	0	0	0	0	510	612
11	0	0	0	0	511	612
12	0	0	0	0	511	612
13	0	0	0	0	510	612
14	0	0	0	0	510	612
15	0	0	0	0	510	612
0	0	0	0	0	511	612
1	0	0	0	0	510	611
2	0	0	0	0	510	612
3	0	0	0	0	510	612
4	0	0	0	0	510	612
5	0	0	0	0	509	612
6	0	0	0	0	509	612
7	0	0	0	0	509	612
8	0	0	0	0	509	612
9	0	0	0	0	510	611
10	0	0	0	0	510	612
11	0	0	0	0	509	612
12	0	0	0	0	509	612
13	0	0	0	0	509	612
14	0	0	0	0	509	612
15	0	0	0	0	509	612
0	0	0	0	0	509	612
1	0	0	0	0	509	611
2	0	0	0	0	510	612
3	0	0	0	0	510	611
4	0	0	0	0	511	612
5	0	0	0	0	511	612
6	0	0	0	0	514	612
7	0	0	0	0	516	612
8	0	0	0	0	520	613
9	0	0	0	0	525	612
10	0	0	0	0	531	613
11	0	0	0	0	536	612
12	0	0	0	0	543	612
13	0	0	0	0	550	613
14	0	0	0	0	558	613
15	0	0	0	0	567	613
0	0	0	0	0	576	613
1	0	0	0	0	585	612
2	0	0	0	0	598	614
3	0	0	0	0	609	614
4	0	0	0	0	620	614
5	0	0	0	0	630	614
6	0	0	0	0	638	613
7	0	0	0	0	642	614
8	0	0	0	0	647	614
9	0	0	0	0	652	614
10	0	0	0	0	654	614
11	0	0	0	0	651	615
12	0	0	0	0	644	615
13	0	0	0	0	631	615
14	0	0	0	0	612	615
15	0	0	0	0	590	616
0	0	0	0	0	562	616
1	0	0	0	0	530	615
2	0	0	0	0	494	616
3	0	0	0	0	451	616
4	0	0	0	0	405	616
5	0	0	0	0	352	616
6	0	0	0	0	293	617
7	0	0	0	0	226	616
8	0	0	0	0	156	616
9	0	0	0	0	85	615
10	0	0	0	0	15	616
11	0	0	0	0	0	616
12	0	0	0	0	0	616
13	0	0	0	0	0	616
14	0	0	0	0	0	616
15	0	0	0	0	0	616
0	0	0	0	0	0	616
1	0	0	0	0	0	615
2	0	0	0	0	0	616
3	0	0	0	0	0	616
4	0	0	0	0	0	615
5	0	0	0	0	0	615
6	0	0	0	0	0	616
7	0	0	0	0	0	615
8	0	0	0	0	0	615
9	0	0	0	0	0	615
10	0	0	0	0	0	615
11	0	0	0	0	0	615
12	0	0	0	0	0	615
13	0	0	0	0	0	615
14	0	0	0	0	0	615
15	0	0	0	0	0	615
0	0	0	0	0	0	615
1	0	0	0	0	0	614
2	0	0	0	0	0	614
3	0	0	0	0	104	615
4	0	0	0	0	208	614
5	0	0	0	0	301	614
6	0	0	0	0	377	615
7	0	0	0	0	437	615
8	0	0	0	0	484	614
9	0	0	0	0	523	613
10	0	0	0	0	553	614
11	0	0	0	0	578	614
12	0	0	0	0	599	615
13	0	0	0	0	617	614
14	0	0	0	0	635	614
15	0	0	0	0	649	614
0	0	0	0	0	662	614
1	0	0	0	0	672	614
2	0	0	0	0	682	614
3	0	0	0	0	690	614
4	0	0	0	0	698	614
5	0	0	0	0	705	614
6	0	0	0	0	711	613
7	0	0	0	0	716	613
8	0	0	0	0	721	614
9	0	0	0	0	724	613
10	0	0	0	0	728	614
11	0	0	0	0	731	614
12	0	0	0	0	734	614
13	0	0	0	0	736	614
14	0	0	0	0	737	614
15	0	0	0	0	739	615
0	0	0	0	0	740	614
1	0	0	0	0	741	614
2	0	0	0	0	741	614
3	0	0	0	0	742	614
4	0	0	0	0	742	614
5	0	0	0	0	743	614
6	0	0	0	0	743	614
7	0	0	0	0	743	613
8	0	0	0	0	742	614
9	0	0	0	0	741	612
10	0	0	0	0	741	614
11	0	0	0	0	739	614
12	0	0	0	0	738	613
13	0	0	0	0	738	614
14	0	0	0	0	736	614
15	0	0	0	0	735	613
0	0	0	0	0	734	614
1	0	0	0	0	732	612
2	0	0	0	0	732	614
3	0	0	0	0	730	613
4	0	0	0	0	728	614
5	0	0	0	0	726	614
6	0	0	0	0	725	614
7	0	0	0	0	722	614
8	0	0	0	0	721	614
9	0	0	0	0	719	613
10	0	0	0	0	718	614
11	0	0	0	0	716	615
12	0	0	0	0	714	614
13	0	0	0	0	712	614
14	0	0	0	0	711	614
15	0	0	0	0	708	615
0	0	0	0	0	707	615
1	0	0	0	0	705	614
2	0	0	0	0	704	614
3	0	0	0	0	702	614
4	0	0	0	0	700	615
5	0	0	0	0	700	615
6	0	0	0	0	698	615
7	0	0	0	0	696	615
8	0	0	0	0	695	614
9	0	0	0	0	692	613
10	0	0	0	0	691	614
11	0	0	0	0	689	613
12	0	0	0	0	688	614
13	0	0	0	0	686	614
14	0	0	0	0	685	614
15	0	0	0	0	683	613
0	0	0	0	0	682	613
1	0	0	0	0	680	612
2	0	0	0	0	679	612
3	0	0	0	0	677	613
4	0	0	0	0	676	614
5	0	0	0	0	674	614
6	0	0	0	0	673	613
7	0	0	0	0	671	613
8	0	0	0	0	671	613
9	0	0	0	0	670	612
10	0	0	0	0	668	613
11	0	0	0	0	667	613
12	0	0	0	0	665	613
13	0	0	0	0	663	614
14	0	0	0	0	662	613
15	0	0	0	0	660	614
0	0	0	0	0	659	614
1	0	0	0	0	657	613
2	0	0	0	0	657	613
3	0	0	0	0	655	613
4	0	0	0	0	654	614
5	0	0	0	0	652	614
6	0	0	0	0	650	614
7	0	0	0	0	648	615
8	0	0	0	0	647	614
9	0	0	0	0	645	614
10	0	0	0	0	644	615
11	0	0	0	0	643	615
12	0	0	0	0	641	615
13	0	0	0	0	640	614
14	0	0	0	0	639	615
15	0	0	0	0	638	615
0	0	0	0	0	636	615
1	0	0	0	0	634	614
2	0	0	0	0	633	615
3	0	0	0	0	632	615
4	0	0	0	0	632	615
5	0	0	0	0	630	615
6	0	0	0	0	629	615
7	0	0	0	0	627	615
8	0	0	0	0	627	615
9	0	0	0	0	625	615
10	0	0	0	0	624	616
11	0	0	0	0	622	616
12	0	0	0	0	621	616
13	0	0	0	0	620	616
14	0	0	0	0	619	616
15	0	0	0	0	617	616
0	0	0	0	0	615	615
1	0	0	0	0	615	615
2	0	0	0	0	613	615
3	0	0	0	0	612	615
4	0	0	0	0	611	615
5	0	0	0	0	611	615
6	0	0	0	0	609	615
7	0	0	0	0	608	615
8	0	0	0	0	607	615
9	0	0	0	0	606	614
10	0	0	0	0	605	615
11	0	0	0	0	604	615
12	0	0	0	0	603	614
13	0	0	0	0	602	615
14	0	0	0	0	601	615
15	0	0	0	0	600	615
0	0	0	0	0	600	614
1	0	0	0	0	599	613
2	0	0	0	0	598	614
3	0	0	0	0	597	614
4	0	0	0	0	595	614
5	0	0	0	0	595	615
6	0	0	0	0	593	614
7	0	0	0	0	593	614
8	0	0	0	0	593	614
9	0	0	0	0	592	613
10	0	0	0	0	592	614
11	0	0	0	0	591	614
12	0	0	0	0	591	615
13	0	0	0	0	590	615
14	0	0	0	0	589	615
15	0	0	0	0	589	615
0	0	0	0	0	588	615
1	0	0	0	0	588	614
2	0	0	0	0	587	615
3	0	0	0	0	587	615
4	0	0	0	0	586	615
5	0	0	0	0	586	615
6	0	0	0	0	585	614
7	0	0	0	0	585	614
8	0	0	0	0	584	615
9	0	0	0	0	584	614
10	0	0	0	0	583	615
11	0	0	0	0	583	615
12	0	0	0	0	583	615
13	0	0	0	0	582	615
14	0	0	0	0	582	615
15	0	0	0	0	581	615
0	0	0	0	0	581	615
1	0	0	0	0	581	615
2	0	0	0	0	580	616
3	0	0	0	0	579	616
4	0	0	0	0	580	616
5	0	0	0	0	580	616
6	0	0	0	0	580	616
7	0	0	0	0	579	616
8	0	0	0	0	579	616
9	0	0	0	0	578	615
10	0	0	0	0	578	615
11	0	0	0	0	578	616
12	0	0	0	0	577	616
13	0	0	0	0	577	615
14	0	0	0	0	577	615
15	0	0	0	0	577	615
0	0	0	0	0	576	615
1	0	0	0	0	576	615
2	0	0	0	0	575	615
3	0	0	0	0	575	615
4	0	0	0	0	573	615
5	0	0	0	0	573	615
6	0	0	0	0	572	615
7	0	0	0	0	572	615
8	0	0	0	0	571	615
9	0	0	0	0	571	614
10	0	0	0	0	570	615
11	0	0	0	0	569	615
12	0	0	0	0	568	615
13	0	0	0	0	568	615
14	0	0	0	0	567	615
15	0	0	0	0	566	614
0	0	0	0	0	564	614
1	0	0	0	0	563	613
2	0	0	0	0	562	614
3	0	0	0	0	560	614
4	0	0	0	0	559	614
5	0	0	0	0	558	614
6	0	0	0	0	557	614
7	0	0	0	0	557	614
8	0	0	0	0	555	614
9	0	0	0	0	554	613
10	0	0	0	0	553	613
11	0	0	0	0	552	613
12	0	0	0	0	550	613
13	0	0	0	0	548	613
14	0	0	0	0	547	613
15	0	0	0	0	546	613
0	0	0	0	0	545	612
1	0	0	0	0	543	612
2	0	0	0	0	541	612
3	0	0	0	0	540	613
4	0	0	0	0	539	613
5	0	0	0	0	538	613
6	0	0	0	0	536	612
7	0	0	0	0	534	612
8	0	0	0	0	532	612
9	0	0	0	0	530	611
10	0	0	0	0	528	612
11	0	0	0	0	526	612
12	0	0	0	0	524	613
13	0	0	0	0	522	613
14	0	0	0	0	519	613
15	0	0	0	0	518	613
0	0	0	0	0	515	613
1	0	0	0	0	513	612
2	0	0	0	0	511	613
3	0	0	0	0	508	613
4	0	0	0	0	505	614
5	0	0	0	0	504	614
6	0	0	0	0	501	614
7	0	0	0	0	498	613
8	0	0	0	0	496	613
9	0	0	0	0	495	612
10	0	0	0	0	493	614
11	0	0	0	0	491	614
12	0	0	0	0	490	614
13	0	0	0	0	487	614
14	0	0	0	0	486	614
15	0	0	0	0	484	614
0	0	0	0	0	482	613
1	0	0	0	0	480	612
2	0	0	0	0	479	614
3	0	0	0	0	478	614
4	0	0	0	0	477	614
5	0	0	0	0	476	614
6	0	0	0	0	475	614
7	0	0	0	0	474	614
8	0	0	0	0	474	614
9	0	0	0	0	473	613
10	0	0	0	0	473	614
11	0	0	0	0	473	615
12	0	0	0	0	473	615
13	0	0	0	0	473	615
14	0	0	0	0	473	615
15	0	0	0	0	473	615
0	0	0	0	0	473	615
1	0	0	0	0	473	615
2	0	0	0	0	473	616
3	0	0	0	0	472	615
4	0	0	0	0	472	615
5	0	0	0	0	472	615
6	0	0	0	0	472	616
7	0	0	0	0	472	616
8	0	0	0	0	471	616
9	0	0	0	0	472	615
10	0	0	0	0	471	616
11	0	0	0	0	472	616
12	0	0	0	0	472	617
13	0	0	0	0	472	618
14	0	0	0	0	473	617
15	0	0	0	0	472	617
0	0	0	0	0	473	617
1	0	0	0	0	473	616
2	0	0	0	0	473	617
3	0	0	0	0	473	617
4	0	0	0	0	473	617
5	0	0	0	0	473	617
6	0	0	0	0	473	617
7	0	0	0	0	474	617
8	0	0	0	0	474	617
9	0	0	0	0	474	616
10	0	0	0	0	474	616
11	0	0	0	0	475	617
12	0	0	0	0	475	617
13	0	0	0	0	475	617
14	0	0	0	0	474	617
15	0	0	0	0	475	616
0	0	0	0	0	474	615
1	0	0	0	0	475	615
2	0	0	0	0	475	616
3	0	0	0	0	475	615
4	0	0	0	0	475	615
5	0	0	0	0	475	615
6	0	0	0	0	475	615
7	0	0	0	0	475	615
8	0	0	0	0	475	615
9	0	0	0	0	476	614
10	0	0	0	0	477	615
11	0	0	0	0	477	615
12	0	0	0	0	478	615
13	0	0	0	0	478	615
14	0	0	0	0	479	615
15	0	0	0	0	479	615
0	0	0	0	0	480	615
1	0	0	0	0	480	613
2	0	0	0	0	480	614
3	0	0	0	0	480	614
4	0	0	0	0	480	614
5	0	0	0	0	480	614
6	0	0	0	0	480	613
7	0	0	0	0	481	613
8	0	0	0	0	481	613
9	0	0	0	0	482	612
10	0	0	0	0	483	613
11	0	0	0	0	483	613
12	0	0	0	0	485	613
13	0	0	0	0	485	612
14	0	0	0	0	486	614
15	0	0	0	0	486	614
0	0	0	0	0	486	613
1	0	0	0	0	487	612
2	0	0	0	0	487	612
3	0	0	0	0	487	612
4	0	0	0	0	487	612
5	0	0	0	0	487	613
6	0	0	0	0	487	613
7	0	0	0	0	487	613
8	0	0	0	0	486	612
9	0	0	0	0	486	611
10	0	0	0	0	487	613
11	0	0	0	0	487	613
12	0	0	0	0	487	612
13	0	0	0	0	487	612
14	0	0	0	0	487	612
15	0	0	0	0	488	612
0	0	0	0	0	487	612
1	0	0	0	0	487	612
2	0	0	0	0	487	613
3	0	0	0	0	487	612
4	0	0	0	0	488	611
5	0	0	0	0	489	611
6	0	0	0	0	489	612
7	0	0	0	0	489	612
8	0	0	0	0	489	612
9	0	0	0	0	490	611
10	0	0	0	0	490	611
11	0	0	0	0	490	612
12	0	0	0	0	490	611
13	0	0	0	0	491	611
14	0	0	0	0	491	611
15	0	0	0	0	491	611
0	0	0	0	0	491	612
1	0	0	0	0	491	611
2	0	0	0	0	492	612
3	0	0	0	0	492	611
4	0	0	0	0	492	612
5	0	0	0	0	492	611
6	0	0	0	0	492	612
7	0	0	0	0	492	612
8	0	0	0	0	492	613
9	0	0	0	0	492	612
10	0	0	0	0	493	613
11	0	0	0	0	493	613
12	0	0	0	0	493	613
13	0	0	0	0	493	613
14	0	0	0	0	494	614
15	0	0	0	0	494	614
0	0	0	0	0	495	614
1	0	0	0	0	496	613
2	0	0	0	0	496	614
3	0	0	0	0	496	614
4	0	0	0	0	496	614
5	0	0	0	0	496	614
6	0	0	0	0	496	614
7	0	0	0	0	496	614
8	0	0	0	0	496	614
9	0	0	0	0	496	613
10	0	0	0	0	496	615
11	0	0	0	0	496	615
12	0	0	0	0	496	615
13	0	0	0	0	496	615
14	0	0	0	0	496	615
15	0	0	0	0	496	615
0	0	0	0	0	496	615
1	0	0	0	0	496	615
2	0	0	0	0	496	615
3	0	0	0	0	496	615
4	0	0	0	0	496	615
5	0	0	0	0	496	615
6	0	0	0	0	496	615
7	0	0	0	0	496	616
8	0	0	0	0	496	616
9	0	0	0	0	496	615
10	0	0	0	0	496	616
11	0	0	0	0	497	616
12	0	0	0	0	496	616
13	0	0	0	0	497	616
14	0	0	0	0	497	616
15	0	0	0	0	497	616
0	0	0	0	0	498	615
1	0	0	0	0	498	615
2	0	0	0	0	497	616
3	0	0	0	0	497	616
4	0	0	0	0	497	616
5	0	0	0	0	497	616
6	0	0	0	0	497	616
7	0	0	0	0	497	616
8	0	0	0	0	497	616
9	0	0	0	0	496	615
10	0	0	0	0	497	616
11	0	0	0	0	497	617
12	0	0	0	0	497	615
13	0	0	0	0	498	616
14	0	0	0	0	498	616
15	0	0	0	0	498	616
0	0	0	0	0	498	616
1	0	0	0	0	497	615
2	0	0	0	0	498	616
3	0	0	0	0	498	617
4	0	0	0	0	498	616
5	0	0	0	0	498	617
6	0	0	0	0	498	616
7	0	0	0	0	499	616
8	0	0	0	0	498	616
9	0	0	0	0	497	615
10	0	0	0	0	497	615
11	0	0	0	0	496	615
12	0	0	0	0	496	616
13	0	0	0	0	496	615
14	0	0	0	0	496	615
15	0	0	0	0	495	615
0	0	0	0	0	495	615
1	0	0	0	0	495	614
2	0	0	0	0	495	615
3	0	0	0	0	495	614
4	0	0	0	0	496	614
5	0	0	0	0	495	615
6	0	0	0	0	496	615
7	0	0	0	0	496	614
8	0	0	0	0	495	614
9	0	0	0	0	496	613
10	0	0	0	0	496	613
11	0	0	0	0	496	612
12	0	0	0	0	495	612
13	0	0	0	0	495	612
14	0	0	0	0	495	612
15	0	0	0	0	495	612
0	0	0	0	0	495	612
1	0	0	0	0	496	611
2	0	0	0	0	496	613
3	0	0	0	0	496	612
4	0	0	0	0	497	612
5	0	0	0	0	497	612
6	0	0	0	0	496	612
7	0	0	0	0	496	612
8	0	0	0	0	496	612
9	0	0	0	0	497	612
10	0	0	0	0	496	612
11	0	0	0	0	496	613
12	0	0	0	0	496	613
13	0	0	0	0	497	614
14	0	0	0	0	497	612
15	0	0	0	0	497	612
0	0	0	0	0	497	612
1	0	0	0	0	498	611
2	0	0	0	0	498	613
3	0	0	0	0	498	613
4	0	0	0	0	498	613
5	0	0	0	0	497	613
6	0	0	0	0	497	612
7	0	0	0	0	497	613
8	0	0	0	0	496	613
9	0	0	0	0	496	612
10	0	0	0	0	496	613
11	0	0	0	0	496	613
12	0	0	0	0	497	614
13	0	0	0	0	497	613
14	0	0	0	0	497	614
15	0	0	0	0	497	614
0	0	0	0	0	498	614
1	0	0	0	0	498	612
2	0	0	0	0	498	613
3	0	0	0	0	499	613
4	0	0	0	0	498	614
5	0	0	0	0	498	613
6	0	0	0	0	498	613
7	0	0	0	0	499	613
8	0	0	0	0	499	613
9	0	0	0	0	498	613
10	0	0	0	0	498	614
11	0	0	0	0	497	614
12	0	0	0	0	498	614
13	0	0	0	0	498	614
14	0	0	0	0	498	614
15	0	0	0	0	497	614
0	0	0	0	0	497	614
1	0	0	0	0	497	614
2	0	0	0	0	497	615
3	0	0	0	0	497	614
4	0	0	0	0	497	614
5	0	0	0	0	497	615
6	0	0	0	0	497	615
7	0	0	0	0	497	615
8	0	0	0	0	497	615
9	0	0	0	0	498	614
10	0	0	0	0	499	615
11	0	0	0	0	499	616
12	0	0	0	0	500	615
13	0	0	0	0	500	616
14	0	0	0	0	500	617
15	0	0	0	0	500	616
0	0	0	0	0	501	616
1	0	0	0	0	500	616
2	0	0	0	0	500	617
3	0	0	0	0	500	617
4	0	0	0	0	500	617
5	0	0	0	0	500	617
6	0	0	0	0	501	617
7	0	0	0	0	501	616
8	0	0	0	0	500	616
9	0	0	0	0	499	616
10	0	0	0	0	500	617
11	0	0	0	0	500	616
12	0	0	0	0	499	616
13	0	0	0	0	500	616
14	0	0	0	0	500	617
15	0	0	0	0	500	617
0	0	0	0	0	501	617
1	0	0	0	0	501	615
2	0	0	0	0	501	617
3	0	0	0	0	501	616
4	0	0	0	0	501	617
5	0	0	0	0	501	617
6	0	0	0	0	500	617
7	0	0	0	0	500	617
8	0	0	0	0	500	618
9	0	0	0	0	500	616
10	0	0	0	0	499	616
11	0	0	0	0	499	617
12	0	0	0	0	499	617
13	0	0	0	0	500	617
14	0	0	0	0	500	616
15	0	0	0	0	500	616
0	0	0	0	0	501	616
1	0	0	0	0	501	615
2	0	0	0	0	502	616
3	0	0	0	0	501	616
4	0	0	0	0	501	616
5	0	0	0	0	501	615
6	0	0	0	0	501	615
7	0	0	0	0	502	615
8	0	0	0	0	502	616
9	0	0	0	0	503	614
10	0	0	0	0	502	615
11	0	0	0	0	503	614
12	0	0	0	0	502	614
13	0	0	0	0	503	614
14	0	0	0	0	502	615
15	0	0	0	0	502	614
0	0	0	0	0	502	614
1	0	0	0	0	502	612
2	0	0	0	0	502	613
3	0	0	0	0	502	614
4	0	0	0	0	502	614
5	0	0	0	0	502	614
6	0	0	0	0	502	614
7	0	0	0	0	502	614
8	0	0	0	0	502	614
9	0	0	0	0	501	612
10	0	0	0	0	501	613
11	0	0	0	0	500	613
12	0	0	0	0	500	612
13	0	0	0	0	500	612
14	0	0	0	0	500	612
15	0	0	0	0	500	612
0	0	0	0	0	500	611
1	0	0	0	0	501	611
2	0	0	0	0	501	612
3	0	0	0	0	501	612
4	0	0	0	0	502	612
5	0	0	0	0	501	612
6	0	0	0	0	502	612
7	0	0	0	0	501	612
8	0	0	0	0	501	612
9	0	0	0	0	501	611
10	0	0	0	0	501	611
11	0	0	0	0	502	612
12	0	0	0	0	502	612
13	0	0	0	0	502	612
14	0	0	0	0	502	612
15	0	0	0	0	502	612
0	0	0	0	0	502	612
1	0	0	0	0	503	611
2	0	0	0	0	503	612
3	0	0	0	0	504	613
4	0	0	0	0	504	613
5	0	0	0	0	504	612
6	0	0	0	0	504	613
7	0	0	0	0	503	613
8	0	0	0	0	503	613
9	0	0	0	0	503	612
10	0	0	0	0	503	613
11	0	0	0	0	503	613
12	0	0	0	0	502	613
13	0	0	0	0	502	613
14	0	0	0	0	503	613
15	0	0	0	0	503	612
0	0	0	0	0	504	613
1	0	0	0	0	504	612
2	0	0	0	0	504	613
3	0	0	0	0	504	613
4	0	0	0	0	504	612
5	0	0	0	0	504	612
6	0	0	0	0	504	613
7	0	0	0	0	504	612
8	0	0	0	0	504	612
9	0	0	0	0	505	612
10	0	0	0	0	505	612
11	0	0	0	0	505	613
12	0	0	0	0	505	612
13	0	0	0	0	505	613
14	0	0	0	0	505	613
15	0	0	0	0	505	613
0	0	0	0	0	505	614
1	0	0	0	0	506	613
2	0	0	0	0	506	614
3	0	0	0	0	506	614
4	0	0	0	0	506	614
5	0	0	0	0	506	614
6	0	0	0	0	506	614
7	0	0	0	0	506	615
8	0	0	0	0	506	615
9	0	0	0	0	507	614
10	0	0	0	0	507	615
11	0	0	0	0	506	615
12	0	0	0	0	507	615
13	0	0	0	0	506	615
14	0	0	0	0	506	615
15	0	0	0	0	507	615
0	0	0	0	0	507	615
1	0	0	0	0	507	615
2	0	0	0	0	507	616
3	0	0	0	0	507	616
4	0	0	0	0	507	616
5	0	0	0	0	506	616
6	0	0	0	0	506	616
7	0	0	0	0	505	616
8	0	0	0	0	505	616
9	0	0	0	0	505	615
10	0	0	0	0	505	616
11	0	0	0	0	505	617
12	0	0	0	0	505	616
13	0	0	0	0	505	616
14	0	0	0	0	505	616
15	0	0	0	0	505	616
0	0	0	0	0	505	616
1	0	0	0	0	505	615
2	0	0	0	0	505	616
3	0	0	0	0	505	616
4	0	0	0	0	505	617
5	0	0	0	0	505	616
6	0	0	0	0	505	616
7	0	0	0	0	504	616
8	0	0	0	0	504	616
9	0	0	0	0	505	615
10	0	0	0	0	505	616
11	0	0	0	0	505	616
12	0	0	0	0	506	615
13	0	0	0	0	506	616
14	0	0	0	0	505	616
15	0	0	0	0	505	615
0	0	0	0	0	506	616
1	0	0	0	0	505	615
2	0	0	0	0	505	615
3	0	0	0	0	504	615
4	0	0	0	0	504	615
5	0	0	0	0	503	615
6	0	0	0	0	503	615
7	0	0	0	0	503	615
8	0	0	0	0	503	615
9	0	0	0	0	504	614
10	0	0	0	0	504	614
11	0	0	0	0	504	614
12	0	0	0	0	505	614
13	0	0	0	0	505	614
14	0	0	0	0	505	614
15	0	0	0	0	504	614
0	0	0	0	0	504	614
1	0	0	0	0	505	613
2	0	0	0	0	506	614
3	0	0	0	0	506	614
4	0	0	0	0	506	613
5	0	0	0	0	505	613
6	0	0	0	0	506	612
7	0	0	0	0	507	612
8	0	0	0	0	507	613
9	0	0	0	0	507	612
10	0	0	0	0	506	613
11	0	0	0	0	506	613
12	0	0	0	0	507	613
13	0	0	0	0	507	613
14	0	0	0	0	507	613
15	0	0	0	0	507	613
0	0	0	0	0	507	613
1	0	0	0	0	507	612
2	0	0	0	0	507	613
3	0	0	0	0	507	612
4	0	0	0	0	507	612
5	0	0	0	0	506	612
6	0	0	0	0	506	613
7	0	0	0	0	505	612
8	0	0	0	0	505	612
9	0	0	0	0	505	612
10	0	0	0	0	505	613
11	0	0	0	0	505	612
12	0	0	0	0	504	612
13	0	0	0	0	504	612
14	0	0	0	0	504	612
15	0	0	0	0	504	612
0	0	0	0	0	504	612
1	0	0	0	0	504	611
2	0	0	0	0	505	612
3	0	0	0	0	505	612
4	0	0	0	0	505	612
5	0	0	0	0	505	613
6	0	0	0	0	505	612
7	0	0	0	0	506	612
8	0	0	0	0	506	613
9	0	0	0	0	506	611
10	0	0	0	0	507	612
11	0	0	0	0	507	612
12	0	0	0	0	507	614
13	0	0	0	0	507	614
14	0	0	0	0	508	614
15	0	0	0	0	508	615
0	0	0	0	0	507	614
1	0	0	0	0	507	614
2	0	0	0	0	507	615
3	0	0	0	0	506	615
4	0	0	0	0	506	615
5	0	0	0	0	506	615
6	0	0	0	0	506	615
7	0	0	0	0	507	615
8	0	0	0	0	507	615
9	0	0	0	0	508	615
10	0	0	0	0	508	616
11	0	0	0	0	508	616
12	0	0	0	0	508	616
13	0	0	0	0	509	616
14	0	0	0	0	509	616
15	0	0	0	0	508	617
0	0	0	0	0	508	616
1	0	0	0	0	508	616
2	0	0	0	0	508	616
3	0	0	0	0	508	617
4	0	0	0	0	508	617
5	0	0	0	0	509	616
6	0	0	0	0	509	617
7	0	0	0	0	509	617
8	0	0	0	0	509	617
9	0	0	0	0	509	616
10	0	0	0	0	509	616
11	0	0	0	0	509	617
12	0	0	0	0	509	617
13	0	0	0	0	509	617
14	0	0	0	0	508	617
15	0	0	0	0	509	617
0	0	0	0	0	509	616
1	0	0	0	0	508	616
2	0	0	0	0	508	617
3	0	0	0	0	508	617
4	0	0	0	0	508	615
5	0	0	0	0	508	616
6	0	0	0	0	507	616
7	0	0	0	0	507	616
8	0	0	0	0	508	616
9	0	0	0	0	508	615
10	0	0	0	0	508	615
11	0	0	0	0	508	615
12	0	0	0	0	508	616
13	0	0	0	0	508	616
14	0	0	0	0	509	616
15	0	0	0	0	509	616
0	0	0	0	0	510	616
1	0	0	0	0	510	615
2	0	0	0	0	509	615
3	0	0	0	0	510	615
4	0	0	0	0	510	615
5	0	0	0	0	510	616
6	0	0	0	0	510	615
7	0	0	0	0	510	615
8	0	0	0	0	510	615
9	0	0	0	0	510	615
10	0	0	0	0	509	615
11	0	0	0	0	509	615
12	0	0	0	0	509	615
13	0	0	0	0	509	615
14	0	0	0	0	509	615
15	0	0	0	0	508	615
0	0	0	0	0	508	615
1	0	0	0	0	508	614
2	0	0	0	0	507	614
3	0	0	0	0	507	615
4	0	0	0	0	508	614
5	0	0	0	0	508	614
6	0	0	0	0	507	614
7	0	0	0	0	507	614
8	0	0	0	0	507	613
9	0	0	0	0	507	612
10	0	0	0	0	507	612
11	0	0	0	0	508	613
12	0	0	0	0	508	612
13	0	0	0	0	508	612
14	0	0	0	0	508	612
15	0	0	0	0	508	612
0	0	0	0	0	508	612
1	0	0	0	0	508	611
2	0	0	0	0	509	612
3	0	0	0	0	508	612
4	0	0	0	0	508	612
5	0	0	0	0	508	612
6	0	0	0	0	508	612
7	0	0	0	0	509	612
8	0	0	0	0	508	612
9	0	0	0	0	509	611
10	0	0	0	0	509	612
11	0	0	0	0	508	612
12	0	0	0	0	509	612
13	0	0	0	0	509	612
14	0	0	0	0	508	612
15	0	0	0	0	509	612
0	0	0	0	0	509	612
1	0	0	0	0	509	611
2	0	0	0	0	509	612
3	0	0	0	0	508	612
4	0	0	0	0	508	613
5	0	0	0	0	508	612
6	0	0	0	0	508	612
7	0	0	0	0	508	612
8	0	0	0	0	509	613
9	0	0	0	0	508	612
10	0	0	0	0	509	612
11	0	0	0	0	509	613
12	0	0	0	0	508	612
13	0	0	0	0	509	613
14	0	0	0	0	509	613
15	0	0	0	0	508	613
0	0	0	0	0	509	613
1	0	0	0	0	508	613
2	0	0	0	0	508	613
3	0	0	0	0	508	613
4	0	0	0	0	508	614
5	0	0	0	0	508	613
6	0	0	0	0	508	613
7	0	0	0	0	508	614
8	0	0	0	0	507	614
9	0	0	0	0	508	613
10	0	0	0	0	508	613
11	0	0	0	0	507	614
12	0	0	0	0	508	614
13	0	0	0	0	508	614
14	0	0	0	0	508	614
15	0	0	0	0	508	614
0	0	0	0	0	508	614
1	0	0	0	0	508	614
2	0	0	0	0	509	615
3	0	0	0	0	508	615
4	0	0	0	0	508	615
5	0	0	0	0	509	615
6	0	0	0	0	509	615
7	0	0	0	0	509	615
8	0	0	0	0	509	615
9	0	0	0	0	510	615
10	0	0	0	0	510	616
11	0	0	0	0	510	615
12	0	0	0	0	510	615
13	0	0	0	0	510	615
14	0	0	0	0	510	616
15	0	0	0	0	510	615
0	0	0	0	0	510	615
1	0	0	0	0	510	615
2	0	0	0	0	511	616
3	0	0	0	0	510	615
4	0	0	0	0	511	615
5	0	0	0	0	510	616
6	0	0	0	0	509	616
7	0	0	0	0	510	616
8	0	0	0	0	511	616
9	0	0	0	0	511	615
10	0	0	0	0	511	616
11	0	0	0	0	511	616
12	0	0	0	0	511	617
13	0	0	0	0	512	616
14	0	0	0	0	511	616
15	0	0	0	0	511	616
0	0	0	0	0	511	617
1	0	0	0	0	511	617
2	0	0	0	0	511	618
3	0	0	0	0	511	617
4	0	0	0	0	511	618
5	0	0	0	0	511	617
6	0	0	0	0	510	617
7	0	0	0	0	510	617
8	0	0	0	0	510	618
9	0	0	0	0	511	616
10	0	0	0	0	511	617
11	0	0	0	0	511	617
12	0	0	0	0	511	616
13	0	0	0	0	511	616
14	0	0	0	0	511	616
15	0	0	0	0	511	616
0	0	0	0	0	510	616
1	0	0	0	0	509	615
2	0	0	0	0	509	616
3	0	0	0	0	509	616
4	0	0	0	0	510	616
5	0	0	0	0	510	616
6	0	0	0	0	510	615
7	0	0	0	0	510	616
8	0	0	0	0	510	615
9	0	0	0	0	510	615
10	0	0	0	0	511	615
11	0	0	0	0	511	615
12	0	0	0	0	511	615
13	0	0	0	0	511	614
14	0	0	0	0	511	615
15	0	0	0	0	510	615
0	0	0	0	0	510	615
1	0	0	0	0	510	614
2	0	0	0	0	510	614
3	0	0	0	0	511	614
4	0	0	0	0	511	615
5	0	0	0	0	511	615
6	0	0	0	0	511	614
7	0	0	0	0	511	614
8	0	0	0	0	511	614
9	0	0	0	0	511	613
10	0	0	0	0	511	614
11	0	0	0	0	510	614
12	0	0	0	0	510	614
13	0	0	0	0	510	613
14	0	0	0	0	510	613
15	0	0	0	0	511	613
0	0	0	0	0	512	612
1	0	0	0	0	512	611
2	0	0	0	0	513	612
3	0	0	0	0	513	612
4	0	0	0	0	513	611
5	0	0	0	0	513	611
6	0	0	0	0	513	612
7	0	0	0	0	513	611
8	0	0	0	0	514	611
9	0	0	0	0	514	611
10	0	0	0	0	515	611
11	0	0	0	0	515	611
12	0	0	0	0	515	611
13	0	0	0	0	515	611
14	0	0	0	0	515	611
15	0	0	0	0	515	611
0	0	0	0	0	515	611
1	0	0	0	0	516	610
2	0	0	0	0	516	611
3	0	0	0	0	516	611
4	0	0	0	0	516	611
5	0	0	0	0	516	611
6	0	0	0	0	516	611
7	0	0	0	0	515	611
8	0	0	0	0	515	612
9	0	0	0	0	513	611
10	0	0	0	0	512	611
11	0	0	0	0	511	611
12	0	0	0	0	510	611
13	0	0	0	0	510	612
14	0	0	0	0	509	611
15	0	0	0	0	508	612
0	0	0	0	0	507	612
1	0	0	0	0	506	611
2	0	0	0	0	506	613
3	0	0	0	0	505	613
4	0	0	0	0	505	613
5	0	0	0	0	504	614
6	0	0	0	0	504	614
7	0	0	0	0	503	614
8	0	0	0	0	503	615
9	0	0	0	0	503	614
10	0	0	0	0	503	615
11	0	0	0	0	503	615
12	0	0	0	0	504	616
13	0	0	0	0	503	616
14	0	0	0	0	504	616
15	0	0	0	0	503	616
0	0	0	0	0	503	616
1	0	0	0	0	504	615
2	0	0	0	0	503	616
3	0	0	0	0	503	616
4	0	0	0	0	502	616
5	0	0	0	0	501	616
6	0	0	0	0	501	616
7	0	0	0	0	500	616
8	0	0	0	0	501	616
9	0	0	0	0	502	616
10	0	0	0	0	503	617
11	0	0	0	0	502	616
12	0	0	0	0	503	616
13	0	0	0	0	503	616
14	0	0	0	0	503	617
15	0	0	0	0	503	617
0	0	0	0	0	503	617
1	0	0	0	0	504	616
2	0	0	0	0	505	616
3	0	0	0	0	505	617
4	0	0	0	0	506	617
5	0	0	0	0	506	617
6	0	0	0	0	506	617
7	0	0	0	0	507	617
8	0	0	0	0	508	616
9	0	0	0	0	508	616
10	0	0	0	0	508	617
11	0	0	0	0	507	615
12	0	0	0	0	507	615
13	0	0	0	0	507	616
14	0	0	0	0	507	616
15	0	0	0	0	507	616
0	0	0	0	0	508	615
1	0	0	0	0	508	615
2	0	0	0	0	509	616
3	0	0	0	0	509	616
4	0	0	0	0	509	616
5	0	0	0	0	510	617
6	0	0	0	0	510	616
7	0	0	0	0	510	616
8	0	0	0	0	510	616
9	0	0	0	0	510	616
10	0	0	0	0	510	616
11	0	0	0	0	510	616
12	0	0	0	0	510	616
13	0	0	0	0	509	615
14	0	0	0	0	509	616
15	0	0	0	0	509	615
0	0	0	0	0	509	615
1	0	0	0	0	508	615
2	0	0	0	0	510	615
3	0	0	0	0	509	615
4	0	0	0	0	509	615
5	0	0	0	0	509	615
6	0	0	0	0	509	615
7	0	0	0	0	508	615
8	0	0	0	0	508	615
9	0	0	0	0	507	614
10	0	0	0	0	507	615
11	0	0	0	0	507	615
12	0	0	0	0	506	614
13	0	0	0	0	507	614
14	0	0	0	0	508	614
15	0	0	0	0	508	613
0	0	0	0	0	507	614
1	0	0	0	0	507	613
2	0	0	0	0	508	613
3	0	0	0	0	508	613
4	0	0	0	0	507	614
5	0	0	0	0	508	613
6	0	0	0	0	508	613
7	0	0	0	0	508	612
8	0	0	0	0	508	613
9	0	0	0	0	510	612
10	0	0	0	0	512	612
11	0	0	0	0	514	613
12	0	0	0	0	518	613
13	0	0	0	0	522	613
14	0	0	0	0	526	612
15	0	0	0	0	532	613
0	0	0	0	0	538	612
1	0	0	0	0	545	611
2	0	0	0	0	552	611
3	0	0	0	0	560	612
4	0	0	0	0	569	612
5	0	0	0	0	578	612
6	0	0	0	0	589	612
7	0	0	0	0	600	611
8	0	0	0	0	610	612
9	0	0	0	0	620	611
10	0	0	0	0	628	612
11	0	0	0	0	633	611
12	0	0	0	0	638	612
13	0	0	0	0	640	612
14	0	0	0	0	642	612
15	0	0	0	0	642	611
0	0	0	0	0	640	612
1	0	0	0	0	634	612
2	0	0	0	0	622	612
3	0	0	0	0	603	612
4	0	0	0	0	582	613
5	0	0	0	0	556	612
6	0	0	0	0	521	613
7	0	0	0	0	483	613
8	0	0	0	0	441	613
9	0	0	0	0	392	612
10	0	0	0	0	339	612
11	0	0	0	0	280	613
12	0	0	0	0	220	612
13	0	0	0	0	154	614
14	0	0	0	0	86	613
15	0	0	0	0	18	614
0	0	0	0	0	0	613
1	0	0	0	0	0	612
2	0	0	0	0	0	613
3	0	0	0	0	0	613
4	0	0	0	0	0	614
5	0	0	0	0	0	614
6	0	0	0	0	0	614
7	0	0	0	0	0	615
8	0	0	0	0	0	614
9	0	0	0	0	0	614
10	0	0	0	0	0	615
11	0	0	0	0	0	615
12	0	0	0	0	0	615
13	0	0	0	0	0	615
14	0	0	0	0	0	615
15	0	0	0	0	0	615
0	0	0	0	0	0	615
1	0	0	0	0	0	615
2	0	0	0	0	0	615
3	0	0	0	0	0	615
4	0	0	0	0	0	615
5	0	0	0	0	0	616
6	0	0	0	0	0	615
7	0	0	0	0	75	615
8	0	0	0	0	178	616
9	0	0	0	0	273	616
10	0	0	0	0	351	617
11	0	0	0	0	409	616
12	0	0	0	0	455	616
13	0	0	0	0	492	616
14	0	0	0	0	522	616
15	0	0	0	0	546	616
0	0	0	0	0	566	616
1	0	0	0	0	584	615
2	0	0	0	0	601	616
3	0	0	0	0	616	616
4	0	0	0	0	631	616
5	0	0	0	0	645	615
6	0	0	0	0	657	615
7	0	0	0	0	668	615
8	0	0	0	0	677	615
9	0	0	0	0	685	615
10	0	0	0	0	692	615
11	0	0	0	0	699	615
12	0	0	0	0	705	615
13	0	0	0	0	710	615
14	0	0	0	0	713	615
15	0	0	0	0	716	615
0	0	0	0	0	719	615
1	0	0	0	0	721	614
2	0	0	0	0	724	615
3	0	0	0	0	725	615
4	0	0	0	0	726	615
5	0	0	0	0	727	615
6	0	0	0	0	727	615
7	0	0	0	0	728	615
8	0	0	0	0	728	615
9	0	0	0	0	728	614
10	0	0	0	0	728	615
11	0	0	0	0	728	615
12	0	0	0	0	728	615
13	0	0	0	0	728	615
14	0	0	0	0	728	615
15	0	0	0	0	727	615
0	0	0	0	0	726	615
1	0	0	0	0	725	614
2	0	0	0	0	724	615
3	0	0	0	0	723	614
4	0	0	0	0	723	614
5	0	0	0	0	722	614
6	0	0	0	0	721	614
7	0	0	0	0	720	614
8	0	0	0	0	719	614
9	0	0	0	0	718	613
10	0	0	0	0	717	614
11	0	0	0	0	715	613
12	0	0	0	0	714	614
13	0	0	0	0	712	614
14	0	0	0	0	711	614
15	0	0	0	0	710	614
0	0	0	0	0	708	614
1	0	0	0	0	706	613
2	0	0	0	0	704	614
3	0	0	0	0	703	614
4	0	0	0	0	701	614
5	0	0	0	0	699	614
6	0	0	0	0	697	614
7	0	0	0	0	696	614
8	0	0	0	0	695	613
9	0	0	0	0	693	612
10	0	0	0	0	691	614
11	0	0	0	0	689	614
12	0	0	0	0	688	613
13	0	0	0	0	686	614
14	0	0	0	0	685	613
15	0	0	0	0	684	614
0	0	0	0	0	683	613
1	0	0	0	0	681	612
2	0	0	0	0	680	613
3	0	0	0	0	679	613
4	0	0	0	0	677	613
5	0	0	0	0	675	613
6	0	0	0	0	673	614
7	0	0	0	0	671	614
8	0	0	0	0	670	613
9	0	0	0	0	668	612
10	0	0	0	0	667	613
11	0	0	0	0	665	613
12	0	0	0	0	664	613
13	0	0	0	0	663	613
14	0	0	0	0	661	613
15	0	0	0	0	660	613
0	0	0	0	0	658	613
1	0	0	0	0	656	611
2	0	0	0	0	655	612
3	0	0	0	0	653	612
4	0	0	0	0	652	612
5	0	0	0	0	650	612
6	0	0	0	0	649	613
7	0	0	0	0	647	613
8	0	0	0	0	646	613
9	0	0	0	0	644	613
10	0	0	0	0	642	614
11	0	0	0	0	640	614
12	0	0	0	0	639	614
13	0	0	0	0	638	615
14	0	0	0	0	637	615
15	0	0	0	0	635	615
0	0	0	0	0	634	615
1	0	0	0	0	632	614
2	0	0	0	0	631	615
3	0	0	0	0	629	615
4	0	0	0	0	628	615
5	0	0	0	0	627	615
6	0	0	0	0	626	615
7	0	0	0	0	624	615
8	0	0	0	0	624	615
9	0	0	0	0	622	614
10	0	0	0	0	622	615
11	0	0	0	0	620	615
12	0	0	0	0	619	615
13	0	0	0	0	618	615
14	0	0	0	0	617	615
15	0	0	0	0	615	615
0	0	0	0	0	614	615
1	0	0	0	0	612	615
2	0	0	0	0	611	615
3	0	0	0	0	611	616
4	0	0	0	0	609	615
5	0	0	0	0	608	615
6	0	0	0	0	607	615
7	0	0	0	0	605	616
8	0	0	0	0	604	616
9	0	0	0	0	603	615
10	0	0	0	0	602	617
11	0	0	0	0	600	616
12	0	0	0	0	600	617
13	0	0	0	0	599	617
14	0	0	0	0	598	616
15	0	0	0	0	597	616
0	0	0	0	0	596	616
1	0	0	0	0	595	615
2	0	0	0	0	595	615
3	0	0	0	0	594	615
4	0	0	0	0	594	615
5	0	0	0	0	593	615
6	0	0	0	0	592	615
7	0	0	0	0	591	615
8	0	0	0	0	590	615
9	0	0	0	0	589	614
10	0	0	0	0	589	615
11	0	0	0	0	587	615
12	0	0	0	0	587	615
13	0	0	0	0	585	614
14	0	0	0	0	585	614
15	0	0	0	0	584	614
0	0	0	0	0	583	614
1	0	0	0	0	583	613
2	0	0	0	0	582	614
3	0	0	0	0	581	614
4	0	0	0	0	581	614
5	0	0	0	0	580	614
6	0	0	0	0	580	614
7	0	0	0	0	579	614
8	0	0	0	0	578	614
9	0	0	0	0	578	613
10	0	0	0	0	578	614
11	0	0	0	0	578	613
12	0	0	0	0	577	614
13	0	0	0	0	577	614
14	0	0	0	0	577	614
15	0	0	0	0	576	614
0	0	0	0	0	575	614
1	0	0	0	0	575	614
2	0	0	0	0	573	614
3	0	0	0	0	572	614
4	0	0	0	0	572	615
5	0	0	0	0	571	615
6	0	0	0	0	571	615
7	0	0	0	0	571	615
8	0	0	0	0	571	615
9	0	0	0	0	571	614
10	0	0	0	0	571	615
11	0	0	0	0	571	615
12	0	0	0	0	570	615
13	0	0	0	0	569	615
14	0	0	0	0	568	615
15	0	0	0	0	568	615
0	0	0	0	0	568	615
1	0	0	0	0	568	615
2	0	0	0	0	566	615
3	0	0	0	0	565	615
4	0	0	0	0	564	615
5	0	0	0	0	564	615
6	0	0	0	0	563	615
7	0	0	0	0	562	615
8	0	0	0	0	561	615
9	0	0	0	0	560	615
10	0	0	0	0	559	615
11	0	0	0	0	558	615
12	0	0	0	0	556	616
13	0	0	0	0	556	616
14	0	0	0	0	555	616
15	0	0	0	0	555	616
0	0	0	0	0	554	616
1	0	0	0	0	553	615
2	0	0	0	0	551	615
3	0	0	0	0	550	616
4	0	0	0	0	548	615
5	0	0	0	0	547	615
6	0	0	0	0	548	615
7	0	0	0	0	547	615
8	0	0	0	0	547	615
9	0	0	0	0	545	614
10	0	0	0	0	544	615
11	0	0	0	0	543	615
12	0	0	0	0	542	615
13	0	0	0	0	541	615
14	0	0	0	0	540	615
15	0	0	0	0	539	615
0	0	0	0	0	538	615
1	0	0	0	0	537	614
2	0	0	0	0	536	615
3	0	0	0	0	535	614
4	0	0	0	0	535	614
5	0	0	0	0	534	614
6	0	0	0	0	532	614
7	0	0	0	0	530	614
8	0	0	0	0	528	613
9	0	0	0	0	527	614
10	0	0	0	0	526	614
11	0	0	0	0	524	614
12	0	0	0	0	522	614
13	0	0	0	0	521	615
14	0	0	0	0	519	615
15	0	0	0	0	517	614
0	0	0	0	0	516	615
1	0	0	0	0	515	614
2	0	0	0	0	513	615
3	0	0	0	0	511	614
4	0	0	0	0	510	615
5	0	0	0	0	509	614
6	0	0	0	0	508	614
7	0	0	0	0	506	614
8	0	0	0	0	504	615
9	0	0	0	0	503	614
10	0	0	0	0	500	615
11	0	0	0	0	497	614
12	0	0	0	0	495	614
13	0	0	0	0	494	614
14	0	0	0	0	492	614
15	0	0	0	0	491	614
0	0	0	0	0	489	614
1	0	0	0	0	488	613
2	0	0	0	0	487	613
3	0	0	0	0	487	613
4	0	0	0	0	487	614
5	0	0	0	0	486	614
6	0	0	0	0	486	613
7	0	0	0	0	484	613
8	0	0	0	0	483	613
9	0	0	0	0	482	612
10	0	0	0	0	482	613
11	0	0	0	0	480	613
12	0	0	0	0	479	614
13	0	0	0	0	479	613
14	0	0	0	0	479	614
15	0	0	0	0	479	613
0	0	0	0	0	479	612
1	0	0	0	0	479	612
2	0	0	0	0	479	613
3	0	0	0	0	479	612
4	0	0	0	0	480	613
5	0	0	0	0	480	612
6	0	0	0	0	481	612
7	0	0	0	0	482	613
8	0	0	0	0	482	612
9	0	0	0	0	481	611
10	0	0	0	0	482	612
11	0	0	0	0	483	612
12	0	0	0	0	482	612
13	0	0	0	0	483	612
14	0	0	0	0	483	613
15	0	0	0	0	483	612
0	0	0	0	0	483	613
1	0	0	0	0	484	612
2	0	0	0	0	484	612
3	0	0	0	0	484	613
4	0	0	0	0	484	613
5	0	0	0	0	484	614
6	0	0	0	0	485	613
7	0	0	0	0	484	614
8	0	0	0	0	485	614
9	0	0	0	0	485	612
10	0	0	0	0	486	614
11	0	0	0	0	486	614
12	0	0	0	0	487	614
13	0	0	0	0	487	614
14	0	0	0	0	487	615
15	0	0	0	0	488	614
0	0	0	0	0	489	614
1	0	0	0	0	489	614
2	0	0	0	0	489	615
3	0	0	0	0	491	615
4	0	0	0	0	492	615
5	0	0	0	0	492	615
6	0	0	0	0	492	615
7	0	0	0	0	493	614
8	0	0	0	0	494	615
9	0	0	0	0	494	614
10	0	0	0	0	493	615
11	0	0	0	0	492	615
12	0	0	0	0	492	614
13	0	0	0	0	492	615
14	0	0	0	0	492	615
15	0	0	0	0	493	615
0	0	0	0	0	493	615
1	0	0	0	0	494	615
2	0	0	0	0	494	615
3	0	0	0	0	493	615
4	0	0	0	0	493	615
5	0	0	0	0	494	615
6	0	0	0	0	494	615
7	0	0	0	0	494	616
8	0	0	0	0	494	615
9	0	0	0	0	494	615
10	0	0	0	0	494	615
11	0	0	0	0	494	616
12	0	0	0	0	494	615
13	0	0	0	0	495	615
14	0	0	0	0	496	615
15	0	0	0	0	497	616
0	0	0	0	0	497	615
1	0	0	0	0	497	615
2	0	0	0	0	498	615
3	0	0	0	0	497	615
4	0	0	0	0	497	616
5	0	0	0	0	498	615
6	0	0	0	0	498	615
7	0	0	0	0	498	614
8	0	0	0	0	498	615
9	0	0	0	0	498	614
10	0	0	0	0	499	615
11	0	0	0	0	499	615
12	0	0	0	0	499	615
13	0	0	0	0	499	615
14	0	0	0	0	499	615
15	0	0	0	0	499	615
0	0	0	0	0	499	615
1	0	0	0	0	499	615
2	0	0	0	0	500	616
3	0	0	0	0	500	615
4	0	0	0	0	500	615
5	0	0	0	0	500	615
6	0	0	0	0	500	616
7	0	0	0	0	502	615
8	0	0	0	0	502	615
9	0	0	0	0	501	615
10	0	0	0	0	501	615
11	0	0	0	0	501	615
12	0	0	0	0	502	615
13	0	0	0	0	503	615
14	0	0	0	0	503	615
15	0	0	0	0	503	615
0	0	0	0	0	502	614
1	0	0	0	0	502	614
2	0	0	0	0	501	614
3	0	0	0	0	501	614
4	0	0	0	0	502	614
5	0	0	0	0	503	614
6	0	0	0	0	503	614
7	0	0	0	0	503	614
8	0	0	0	0	504	614
9	0	0	0	0	504	613
10	0	0	0	0	504	614
11	0	0	0	0	504	614
12	0	0	0	0	504	614
13	0	0	0	0	504	613
14	0	0	0	0	504	614
15	0	0	0	0	504	613
0	0	0	0	0	504	613
1	0	0	0	0	504	613
2	0	0	0	0	504	612
3	0	0	0	0	505	613
4	0	0	0	0	506	613
5	0	0	0	0	505	612
6	0	0	0	0	505	613
7	0	0	0	0	505	613
8	0	0	0	0	505	612
9	0	0	0	0	504	611
10	0	0	0	0	505	613
11	0	0	0	0	505	612
12	0	0	0	0	504	612
13	0	0	0	0	504	612
14	0	0	0	0	504	613
15	0	0	0	0	504	613
0	0	0	0	0	503	613
1	0	0	0	0	502	612
2	0	0	0	0	503	613
3	0	0	0	0	504	613
4	0	0	0	0	504	613
5	0	0	0	0	504	613
6	0	0	0	0	503	613
7	0	0	0	0	503	613
8	0	0	0	0	503	614
9	0	0	0	0	503	612
10	0	0	0	0	504	614
11	0	0	0	0	503	615
12	0	0	0	0	502	614
13	0	0	0	0	502	614
14	0	0	0	0	502	614
15	0	0	0	0	501	614
0	0	0	0	0	501	615
1	0	0	0	0	500	614
2	0	0	0	0	500	615
3	0	0	0	0	500	615
4	0	0	0	0	500	615
5	0	0	0	0	500	615
6	0	0	0	0	500	616
7	0	0	0	0	500	616
8	0	0	0	0	500	615
9	0	0	0	0	501	615
10	0	0	0	0	502	616
11	0	0	0	0	502	615
12	0	0	0	0	503	615
13	0	0	0	0	502	615
14	0	0	0	0	502	616
15	0	0	0	0	502	615
0	0	0	0	0	502	615
1	0	0	0	0	502	614
2	0	0	0	0	502	615
3	0	0	0	0	501	615
4	0	0	0	0	500	614
5	0	0	0	0	500	614
6	0	0	0	0	502	614
7	0	0	0	0	501	614
8	0	0	0	0	501	614
9	0	0	0	0	501	613
10	0	0	0	0	501	614
11	0	0	0	0	500	614
12	0	0	0	0	500	614
13	0	0	0	0	501	614
14	0	0	0	0	501	615
15	0	0	0	0	501	614
0	0	0	0	0	501	614
1	0	0	0	0	501	614
2	0	0	0	0	502	614
3	0	0	0	0	502	614
4	0	0	0	0	502	614
5	0	0	0	0	503	614
6	0	0	0	0	503	615
7	0	0	0	0	503	614
8	0	0	0	0	503	614
9	0	0	0	0	504	613
10	0	0	0	0	503	614
11	0	0	0	0	503	614
12	0	0	0	0	504	615
13	0	0	0	0	503	615
14	0	0	0	0	502	614
15	0	0	0	0	502	614
0	0	0	0	0	502	615
1	0	0	0	0	503	613
2	0	0	0	0	503	614
3	0	0	0	0	504	614
4	0	0	0	0	504	614
5	0	0	0	0	504	614
6	0	0	0	0	504	614
7	0	0	0	0	503	615
8	0	0	0	0	503	614
9	0	0	0	0	503	614
10	0	0	0	0	504	614
11	0	0	0	0	504	614
12	0	0	0	0	504	615
13	0	0	0	0	504	614
14	0	0	0	0	504	615
15	0	0	0	0	504	615
0	0	0	0	0	503	615
1	0	0	0	0	502	614
2	0	0	0	0	502	615
3	0	0	0	0	502	615
4	0	0	0	0	501	615
5	0	0	0	0	501	615
6	0	0	0	0	501	615
7	0	0	0	0	502	615
8	0	0	0	0	502	615
9	0	0	0	0	503	615
10	0	0	0	0	503	615
11	0	0	0	0	502	615
12	0	0	0	0	503	615
13	0	0	0	0	503	615
14	0	0	0	0	503	615
15	0	0	0	0	503	615
0	0	0	0	0	503	614
1	0	0	0	0	503	614
2	0	0	0	0	504	615
3	0	0	0	0	503	614
4	0	0	0	0	503	615
5	0	0	0	0	504	615
6	0	0	0	0	504	615
7	0	0	0	0	504	614
8	0	0	0	0	503	615
9	0	0	0	0	504	614
10	0	0	0	0	504	615
11	0	0	0	0	504	615
12	0	0	0	0	504	614
13	0	0	0	0	503	615
14	0	0	0	0	504	615
15	0	0	0	0	505	615
0	0	0	0	0	505	615
1	0	0	0	0	505	615
2	0	0	0	0	505	615
3	0	0	0	0	505	615
4	0	0	0	0	504	615
5	0	0	0	0	504	615
6	0	0	0	0	505	615
7	0	0	0	0	505	616
8	0	0	0	0	505	615
9	0	0	0	0	505	615
10	0	0	0	0	505	615
11	0	0	0	0	505	615
12	0	0	0	0	505	615
13	0	0	0	0	505	615
14	0	0	0	0	505	615
15	0	0	0	0	505	615
0	0	0	0	0	506	615
1	0	0	0	0	505	614
2	0	0	0	0	505	615
3	0	0	0	0	504	616
4	0	0	0	0	504	615
5	0	0	0	0	504	615
6	0	0	0	0	505	615
7	0	0	0	0	505	616
8	0	0	0	0	505	616
9	0	0	0	0	504	615
10	0	0	0	0	504	616
11	0	0	0	0	504	615
12	0	0	0	0	504	615
13	0	0	0	0	504	615
14	0	0	0	0	503	615
15	0	0	0	0	504	615
0	0	0	0	0	505	615
1	0	0	0	0	505	615
2	0	0	0	0	505	615
3	0	0	0	0	505	615
4	0	0	0	0	505	615
5	0	0	0	0	504	615
6	0	0	0	0	504	614
7	0	0	0	0	504	615
8	0	0	0	0	505	614
9	0	0	0	0	504	614
10	0	0	0	0	504	614
11	0	0	0	0	504	614
12	0	0	0	0	505	614
13	0	0	0	0	505	614
14	0	0	0	0	506	613
15	0	0	0	0	506	614
0	0	0	0	0	506	614
1	0	0	0	0	506	612
2	0	0	0	0	506	613
3	0	0	0	0	507	613
4	0	0	0	0	506	613
5	0	0	0	0	505	613
6	0	0	0	0	505	613
7	0	0	0	0	505	613
8	0	0	0	0	504	613
9	0	0	0	0	504	612
10	0	0	0	0	504	612
11	0	0	0	0	503	613
12	0	0	0	0	504	613
13	0	0	0	0	504	613
14	0	0	0	0	505	613
15	0	0	0	0	505	612
0	0	0	0	0	505	613
1	0	0	0	0	505	612
2	0	0	0	0	505	613
3	0	0	0	0	505	613
4	0	0	0	0	505	613
5	0	0	0	0	506	614
6	0	0	0	0	506	614
7	0	0	0	0	507	614
8	0	0	0	0	507	614
9	0	0	0	0	507	613
10	0	0	0	0	507	614
11	0	0	0	0	507	613
12	0	0	0	0	506	613
13	0	0	0	0	505	614
14	0	0	0	0	505	615
15	0	0	0	0	504	614
0	0	0	0	0	503	614
1	0	0	0	0	503	614
2	0	0	0	0	504	615
3	0	0	0	0	503	615
4	0	0	0	0	504	615
5	0	0	0	0	503	615
6	0	0	0	0	504	615
7	0	0	0	0	504	615
8	0	0	0	0	505	616
9	0	0	0	0	505	615
10	0	0	0	0	506	616
11	0	0	0	0	506	615
12	0	0	0	0	506	616
13	0	0	0	0	506	615
14	0	0	0	0	505	615
15	0	0	0	0	505	615
0	0	0	0	0	506	615
1	0	0	0	0	506	615
2	0	0	0	0	507	615
3	0	0	0	0	507	615
4	0	0	0	0	507	615
5	0	0	0	0	507	615
6	0	0	0	0	507	615
7	0	0	0	0	507	615
8	0	0	0	0	506	615
9	0	0	0	0	506	614
10	0	0	0	0	506	615
11	0	0	0	0	507	615
12	0	0	0	0	507	615
13	0	0	0	0	507	615
14	0	0	0	0	507	615
15	0	0	0	0	507	615
0	0	0	0	0	506	615
1	0	0	0	0	506	614
2	0	0	0	0	506	615
3	0	0	0	0	505	615
4	0	0	0	0	505	615
5	0	0	0	0	505	615
6	0	0	0	0	505	615
7	0	0	0	0	504	615
8	0	0	0	0	505	615
9	0	0	0	0	505	614
10	0	0	0	0	505	615
11	0	0	0	0	506	615
12	0	0	0	0	507	615
13	0	0	0	0	507	615
14	0	0	0	0	508	614
15	0	0	0	0	508	615
0	0	0	0	0	507	615
1	0	0	0	0	506	614
2	0	0	0	0	506	614
3	0	0	0	0	507	615
4	0	0	0	0	506	614
5	0	0	0	0	504	615
6	0	0	0	0	505	614
7	0	0	0	0	506	614
8	0	0	0	0	507	615
9	0	0	0	0	508	613
10	0	0	0	0	508	614
11	0	0	0	0	508	614
12	0	0	0	0	508	614
13	0	0	0	0	509	614
14	0	0	0	0	509	613
15	0	0	0	0	509	614
0	0	0	0	0	509	613
1	0	0	0	0	509	613
2	0	0	0	0	510	613
3	0	0	0	0	509	613
4	0	0	0	0	508	613
5	0	0	0	0	508	613
6	0	0	0	0	507	613
7	0	0	0	0	508	613
8	0	0	0	0	507	612
9	0	0	0	0	507	611
10	0	0	0	0	506	613
11	0	0	0	0	506	612
12	0	0	0	0	506	611
13	0	0	0	0	505	612
14	0	0	0	0	505	612
15	0	0	0	0	505	613
0	0	0	0	0	505	612
1	0	0	0	0	504	612
2	0	0	0	0	504	612
3	0	0	0	0	505	613
4	0	0	0	0	505	613
5	0	0	0	0	506	612
6	0	0	0	0	507	613
7	0	0	0	0	508	612
8	0	0	0	0	509	612
9	0	0	0	0	508	612
10	0	0	0	0	509	613
11	0	0	0	0	508	613
12	0	0	0	0	508	612
13	0	0	0	0	508	613
14	0	0	0	0	508	614
15	0	0	0	0	508	614
0	0	0	0	0	508	613
1	0	0	0	0	508	612
2	0	0	0	0	508	614
3	0	0	0	0	508	614
4	0	0	0	0	508	614
5	0	0	0	0	508	614
6	0	0	0	0	507	615
7	0	0	0	0	506	614
8	0	0	0	0	506	615
9	0	0	0	0	505	614
10	0	0	0	0	506	614
11	0	0	0	0	506	615
12	0	0	0	0	505	614
13	0	0	0	0	505	614
14	0	0	0	0	505	614
15	0	0	0	0	506	615
0	0	0	0	0	506	615
1	0	0	0	0	507	614
2	0	0	0	0	508	615
3	0	0	0	0	508	615
4	0	0	0	0	508	615
5	0	0	0	0	508	615
6	0	0	0	0	507	615
7	0	0	0	0	506	615
8	0	0	0	0	507	615
9	0	0	0	0	508	615
10	0	0	0	0	508	615
11	0	0	0	0	508	615
12	0	0	0	0	508	615
13	0	0	0	0	508	615
14	0	0	0	0	508	615
15	0	0	0	0	509	615
0	0	0	0	0	508	616
1	0	0	0	0	508	615
2	0	0	0	0	508	615
3	0	0	0	0	509	615
4	0	0	0	0	509	615
5	0	0	0	0	508	615
6	0	0	0	0	508	615
7	0	0	0	0	507	614
8	0	0	0	0	507	615
9	0	0	0	0	507	614
10	0	0	0	0	508	615
11	0	0	0	0	507	615
12	0	0	0	0	507	614
13	0	0	0	0	507	614
14	0	0	0	0	507	615
15	0	0	0	0	508	614
0	0	0	0	0	509	614
1	0	0	0	0	508	613
2	0	0	0	0	508	613
3	0	0	0	0	508	614
4	0	0	0	0	509	613
5	0	0	0	0	509	614
6	0	0	0	0	508	613
7	0	0	0	0	508	613
8	0	0	0	0	508	613
9	0	0	0	0	509	612
10	0	0	0	0	509	612
11	0	0	0	0	508	613
12	0	0	0	0	507	612
13	0	0	0	0	508	612
14	0	0	0	0	508	612
15	0	0	0	0	508	613
0	0	0	0	0	508	612
1	0	0	0	0	508	611
2	0	0	0	0	508	613
3	0	0	0	0	507	613
4	0	0	0	0	507	614
5	0	0	0	0	507	614
6	0	0	0	0	507	614
7	0	0	0	0	507	614
8	0	0	0	0	508	613
9	0	0	0	0	508	613
10	0	0	0	0	508	614
11	0	0	0	0	507	614
12	0	0	0	0	507	614
13	0	0	0	0	507	614
14	0	0	0	0	507	614
15	0	0	0	0	507	614
0	0	0	0	0	507	614
1	0	0	0	0	507	613
2	0	0	0	0	508	614
3	0	0	0	0	508	614
4	0	0	0	0	508	613
5	0	0	0	0	508	614
6	0	0	0	0	507	614
7	0	0	0	0	507	614
8	0	0	0	0	507	614
9	0	0	0	0	508	613
10	0	0	0	0	508	615
11	0	0	0	0	508	615
12	0	0	0	0	510	615
13	0	0	0	0	510	615
14	0	0	0	0	510	614
15	0	0	0	0	510	615
0	0	0	0	0	511	615
1	0	0	0	0	510	615
2	0	0	0	0	509	615
3	0	0	0	0	509	616
4	0	0	0	0	509	615
5	0	0	0	0	509	616
6	0	0	0	0	508	615
7	0	0	0	0	508	615
8	0	0	0	0	508	615
9	0	0	0	0	508	615
10	0	0	0	0	508	615
11	0	0	0	0	508	615
12	0	0	0	0	508	615
13	0	0	0	0	508	616
14	0	0	0	0	508	616
15	0	0	0	0	507	616
0	0	0	0	0	507	616
1	0	0	0	0	507	616
2	0	0	0	0	508	616
3	0	0	0	0	508	616
4	0	0	0	0	508	616
5	0	0	0	0	507	616
6	0	0	0	0	508	616
7	0	0	0	0	508	617
8	0	0	0	0	508	617
9	0	0	0	0	508	616
10	0	0	0	0	508	617
11	0	0	0	0	508	616
12	0	0	0	0	508	617
13	0	0	0	0	508	617
14	0	0	0	0	508	617
15	0	0	0	0	507	616
0	0	0	0	0	507	616
1	0	0	0	0	507	616
2	0	0	0	0	508	616
3	0	0	0	0	507	616
4	0	0	0	0	507	617
5	0	0	0	0	508	617
6	0	0	0	0	508	617
7	0	0	0	0	508	617
8	0	0	0	0	509	617
9	0	0	0	0	508	616
10	0	0	0	0	509	617
11	0	0	0	0	509	617
12	0	0	0	0	509	617
13	0	0	0	0	509	616
14	0	0	0	0	509	616
15	0	0	0	0	508	616
0	0	0	0	0	508	616
1	0	0	0	0	509	615
2	0	0	0	0	510	616
3	0	0	0	0	510	615
4	0	0	0	0	510	616
5	0	0	0	0	510	615
6	0	0	0	0	510	615
7	0	0	0	0	510	615
8	0	0	0	0	510	615
9	0	0	0	0	511	614
10	0	0	0	0	511	614
11	0	0	0	0	512	614
12	0	0	0	0	512	615
13	0	0	0	0	512	614
14	0	0	0	0	513	614
15	0	0	0	0	513	614
0	0	0	0	0	513	614
1	0	0	0	0	512	613
2	0	0	0	0	512	614
3	0	0	0	0	512	613
4	0	0	0	0	512	613
5	0	0	0	0	512	614
6	0	0	0	0	513	614
7	0	0	0	0	513	614
8	0	0	0	0	515	613
9	0	0	0	0	515	612
10	0	0	0	0	515	612
11	0	0	0	0	515	612
12	0	0	0	0	514	612
13	0	0	0	0	513	612
14	0	0	0	0	513	612
15	0	0	0	0	514	612
0	0	0	0	0	515	612
1	0	0	0	0	514	611
2	0	0	0	0	514	612
3	0	0	0	0	513	612
4	0	0	0	0	512	611
5	0	0	0	0	512	612
6	0	0	0	0	512	611
7	0	0	0	0	511	612
8	0	0	0	0	510	611
9	0	0	0	0	509	611
10	0	0	0	0	507	611
11	0	0	0	0	507	611
12	0	0	0	0	505	612
13	0	0	0	0	504	612
14	0	0	0	0	504	612
15	0	0	0	0	504	612
0	0	0	0	0	505	613
1	0	0	0	0	504	612
2	0	0	0	0	503	613
3	0	0	0	0	502	613
4	0	0	0	0	502	613
5	0	0	0	0	501	612
6	0	0	0	0	501	613
7	0	0	0	0	502	612
8	0	0	0	0	504	613
9	0	0	0	0	504	612
10	0	0	0	0	504	613
11	0	0	0	0	505	614
12	0	0	0	0	504	613
13	0	0	0	0	504	612
14	0	0	0	0	503	613
15	0	0	0	0	503	614
0	0	0	0	0	502	613
1	0	0	0	0	501	612
2	0	0	0	0	501	613
3	0	0	0	0	502	613
4	0	0	0	0	503	614
5	0	0	0	0	503	614
6	0	0	0	0	504	613
7	0	0	0	0	504	614
8	0	0	0	0	504	613
9	0	0	0	0	504	612
10	0	0	0	0	504	613
11	0	0	0	0	504	614
12	0	0	0	0	504	614
13	0	0	0	0	504	613
14	0	0	0	0	506	614
15	0	0	0	0	507	614
0	0	0	0	0	507	614
1	0	0	0	0	508	613
2	0	0	0	0	509	614
3	0	0	0	0	509	614
4	0	0	0	0	510	614
5	0	0	0	0	510	614
6	0	0	0	0	510	614
7	0	0	0	0	509	614
8	0	0	0	0	509	614
9	0	0	0	0	509	613
10	0	0	0	0	510	614
11	0	0	0	0	509	614
12	0	0	0	0	509	614
13	0	0	0	0	511	615
14	0	0	0	0	511	615
15	0	0	0	0	512	614
0	0	0	0	0	512	615
1	0	0	0	0	513	615
2	0	0	0	0	513	615
3	0	0	0	0	513	615
4	0	0	0	0	512	615
5	0	0	0	0	512	615
6	0	0	0	0	512	616
7	0	0	0	0	513	616
8	0	0	0	0	513	616
9	0	0	0	0	513	615
10	0	0	0	0	513	616
11	0	0	0	0	514	616
12	0	0	0	0	514	615
13	0	0	0	0	514	616
14	0	0	0	0	513	615
15	0	0	0	0	513	616
0	0	0	0	0	512	616
1	0	0	0	0	512	615
2	0	0	0	0	511	615
3	0	0	0	0	510	616
4	0	0	0	0	511	616
5	0	0	0	0	510	616
6	0	0	0	0	511	616
7	0	0	0	0	511	616
8	0	0	0	0	512	617
9	0	0	0	0	512	615
10	0	0	0	0	511	616
11	0	0	0	0	511	617
12	0	0	0	0	512	616
13	0	0	0	0	512	617
14	0	0	0	0	512	617
15	0	0	0	0	511	617
0	0	0	0	0	511	617
1	0	0	0	0	510	616
2	0	0	0	0	509	617
3	0	0	0	0	509	616
4	0	0	0	0	509	616
5	0	0	0	0	510	617
6	0	0	0	0	511	617
7	0	0	0	0	513	617
8	0	0	0	0	515	616
9	0	0	0	0	517	616
10	0	0	0	0	519	617
11	0	0	0	0	524	616
12	0	0	0	0	529	616
13	0	0	0	0	535	616
14	0	0	0	0	541	616
15	0	0	0	0	547	616
0	0	0	0	0	554	616
1	0	0	0	0	562	615
2	0	0	0	0	572	616
3	0	0	0	0	581	616
4	0	0	0	0	590	617
5	0	0	0	0	601	616
6	0	0	0	0	613	616
7	0	0	0	0	624	617
8	0	0	0	0	632	616
9	0	0	0	0	638	615
10	0	0	0	0	642	615
11	0	0	0	0	644	615
12	0	0	0	0	645	615
13	0	0	0	0	644	615
14	0	0	0	0	643	615
15	0	0	0	0	639	614
0	0	0	0	0	629	614
1	0	0	0	0	612	612
2	0	0	0	0	592	614
3	0	0	0	0	567	613
4	0	0	0	0	534	613
5	0	0	0	0	493	613
6	0	0	0	0	449	612
7	0	0	0	0	399	612
8	0	0	0	0	345	612
9	0	0	0	0	288	611
10	0	0	0	0	231	612
11	0	0	0	0	172	611
12	0	0	0	0	107	611
13	0	0	0	0	41	611
14	0	0	0	0	0	611
15	0	0	0	0	0	611
0	0	0	0	0	0	611
1	0	0	0	0	0	609
2	0	0	0	0	0	611
3	0	0	0	0	0	610
4	0	0	0	0	0	610
5	0	0	0	0	0	610
6	0	0	0	0	0	611
7	0	0	0	0	0	611
8	0	0	0	0	0	610
9	0	0	0	0	0	610
10	0	0	0	0	0	611
11	0	0	0	0	0	611
12	0	0	0	0	0	610
13	0	0	0	0	0	610
14	0	0	0	0	0	611
15	0	0	0	0	0	610
0	0	0	0	0	0	611
1	0	0	0	0	0	610
2	0	0	0	0	0	611
3	0	0	0	0	0	611
4	0	0	0	0	25	611
5	0	0	0	0	115	611
6	0	0	0	0	214	611
7	0	0	0	0	301	611
8	0	0	0	0	370	612
9	0	0	0	0	421	611
10	0	0	0	0	460	612
11	0	0	0	0	492	613
12	0	0	0	0	519	613
13	0	0	0	0	542	613
14	0	0	0	0	562	614
15	0	0	0	0	578	613
0	0	0	0	0	593	614
1	0	0	0	0	608	614
2	0	0	0	0	623	614
3	0	0	0	0	637	615
4	0	0	0	0	650	615
5	0	0	0	0	661	615
6	0	0	0	0	670	614
7	0	0	0	0	678	615
8	0	0	0	0	684	614
9	0	0	0	0	690	614
10	0	0	0	0	696	614
11	0	0	0	0	700	614
12	0	0	0	0	704	614
13	0	0	0	0	707	615
14	0	0	0	0	710	615
15	0	0	0	0	711	615
0	0	0	0	0	714	615
1	0	0	0	0	716	614
2	0	0	0	0	718	615
3	0	0	0	0	719	615
4	0	0	0	0	719	615
5	0	0	0	0	719	615
6	0	0	0	0	719	615
7	0	0	0	0	719	616
8	0	0	0	0	719	615
9	0	0	0	0	719	615
10	0	0	0	0	720	615
11	0	0	0	0	719	615
12	0	0	0	0	719	615
13	0	0	0	0	719	616
14	0	0	0	0	718	615
15	0	0	0	0	717	615
0	0	0	0	0	716	615
1	0	0	0	0	716	615
2	0	0	0	0	714	615
3	0	0	0	0	713	615
4	0	0	0	0	712	615
5	0	0	0	0	711	615
6	0	0	0	0	711	615
7	0	0	0	0	709	615
8	0	0	0	0	707	615
9	0	0	0	0	706	615
10	0	0	0	0	704	615
11	0	0	0	0	703	615
12	0	0	0	0	701	615
13	0	0	0	0	699	615
14	0	0	0	0	697	615
15	0	0	0	0	695	615
0	0	0	0	0	693	616
1	0	0	0	0	692	615
2	0	0	0	0	691	615
3	0	0	0	0	689	616
4	0	0	0	0	688	616
5	0	0	0	0	686	616
6	0	0	0	0	685	615
7	0	0	0	0	683	615
8	0	0	0	0	681	616
9	0	0	0	0	679	615
10	0	0	0	0	678	615
11	0	0	0	0	676	615
12	0	0	0	0	675	615
13	0	0	0	0	673	615
14	0	0	0	0	672	615
15	0	0	0	0	670	615
0	0	0	0	0	669	615
1	0	0	0	0	667	614
2	0	0	0	0	666	615
3	0	0	0	0	664	615
4	0	0	0	0	663	614
5	0	0	0	0	662	614
6	0	0	0	0	662	614
7	0	0	0	0	659	614
8	0	0	0	0	657	614
9	0	0	0	0	656	613
10	0	0	0	0	655	614
11	0	0	0	0	654	614
12	0	0	0	0	652	614
13	0	0	0	0	649	614
14	0	0	0	0	648	614
15	0	0	0	0	647	615
0	0	0	0	0	645	614
1	0	0	0	0	644	614
2	0	0	0	0	643	615
3	0	0	0	0	641	614
4	0	0	0	0	640	614
5	0	0	0	0	638	614
6	0	0	0	0	637	614
7	0	0	0	0	636	614
8	0	0	0	0	634	614
9	0	0	0	0	633	613
10	0	0	0	0	631	614
11	0	0	0	0	630	614
12	0	0	0	0	629	613
13	0	0	0	0	628	614
14	0	0	0	0	627	614
15	0	0	0	0	625	614
0	0	0	0	0	624	614
1	0	0	0	0	622	613
2	0	0	0	0	621	614
3	0	0	0	0	620	614
4	0	0	0	0	618	614
5	0	0	0	0	616	614
6	0	0	0	0	615	615
7	0	0	0	0	614	615
8	0	0	0	0	613	615
9	0	0	0	0	611	614
10	0	0	0	0	611	614
11	0	0	0	0	609	614
12	0	0	0	0	609	614
13	0	0	0	0	607	614
14	0	0	0	0	606	614
15	0	0	0	0	604	613
0	0	0	0	0	603	614
1	0	0	0	0	603	614
2	0	0	0	0	601	614
3	0	0	0	0	600	614
4	0	0	0	0	598	613
5	0	0	0	0	596	613
6	0	0	0	0	596	613
7	0	0	0	0	595	613
8	0	0	0	0	594	613
9	0	0	0	0	593	612
10	0	0	0	0	593	613
11	0	0	0	0	591	612
12	0	0	0	0	591	613
13	0	0	0	0	589	613
14	0	0	0	0	588	613
15	0	0	0	0	588	613
0	0	0	0	0	587	613
1	0	0	0	0	586	612
2	0	0	0	0	585	613
3	0	0	0	0	585	613
4	0	0	0	0	584	614
5	0	0	0	0	583	613
6	0	0	0	0	583	614
7	0	0	0	0	582	614
8	0	0	0	0	582	614
9	0	0	0	0	581	612
10	0	0	0	0	580	614
11	0	0	0	0	579	614
12	0	0	0	0	578	614
13	0	0	0	0	577	613
14	0	0	0	0	577	614
15	0	0	0	0	576	614
0	0	0	0	0	575	614
1	0	0	0	0	574	613
2	0	0	0	0	574	613
3	0	0	0	0	573	614
4	0	0	0	0	572	615
5	0	0	0	0	572	615
6	0	0	0	0	572	615
7	0	0	0	0	572	615
8	0	0	0	0	571	615
9	0	0	0	0	571	615
10	0	0	0	0	569	615
11	0	0	0	0	569	615
12	0	0	0	0	569	615
13	0	0	0	0	569	615
14	0	0	0	0	569	616
15	0	0	0	0	569	616
0	0	0	0	0	568	616
1	0	0	0	0	568	615
2	0	0	0	0	567	617
3	0	0	0	0	566	617
4	0	0	0	0	565	617
5	0	0	0	0	564	617
6	0	0	0	0	564	617
7	0	0	0	0	563	617
8	0	0	0	0	564	617
9	0	0	0	0	563	616
10	0	0	0	0	563	617
11	0	0	0	0	563	617
12	0	0	0	0	564	617
13	0	0	0	0	563	617
14	0	0	0	0	562	617
15	0	0	0	0	560	617
0	0	0	0	0	560	617
1	0	0	0	0	559	615
2	0	0	0	0	559	617
3	0	0	0	0	557	615
4	0	0	0	0	556	616
5	0	0	0	0	556	615
6	0	0	0	0	556	615
7	0	0	0	0	554	615
8	0	0	0	0	553	615
9	0	0	0	0	553	615
10	0	0	0	0	552	615
11	0	0	0	0	551	616
12	0	0	0	0	551	615
13	0	0	0	0	550	615
14	0	0	0	0	549	615
15	0	0	0	0	549	615
0	0	0	0	0	548	615
1	0	0	0	0	548	614
2	0	0	0	0	547	614
3	0	0	0	0	546	615
4	0	0	0	0	544	615
5	0	0	0	0	543	615
6	0	0	0	0	543	615
7	0	0	0	0	542	615
8	0	0	0	0	541	615
9	0	0	0	0	539	613
10	0	0	0	0	539	614
11	0	0	0	0	538	614
12	0	0	0	0	537	614
13	0	0	0	0	536	614
14	0	0	0	0	536	614
15	0	0	0	0	534	613
0	0	0	0	0	534	614
1	0	0	0	0	531	612
2	0	0	0	0	530	614
3	0	0	0	0	529	613
4	0	0	0	0	528	614
5	0	0	0	0	527	614
6	0	0	0	0	526	613
7	0	0	0	0	524	614
8	0	0	0	0	523	614
9	0	0	0	0	521	613
10	0	0	0	0	520	614
11	0	0	0	0	519	614
12	0	0	0	0	517	614
13	0	0	0	0	515	615
14	0	0	0	0	514	614
15	0	0	0	0	512	614
0	0	0	0	0	512	614
1	0	0	0	0	511	612
2	0	0	0	0	510	614
3	0	0	0	0	508	614
4	0	0	0	0	507	614
5	0	0	0	0	505	613
6	0	0	0	0	504	614
7	0	0	0	0	503	614
8	0	0	0	0	501	614
9	0	0	0	0	500	613
10	0	0	0	0	498	614
11	0	0	0	0	497	614
12	0	0	0	0	496	614
13	0	0	0	0	495	614
14	0	0	0	0	494	614
15	0	0	0	0	491	614
0	0	0	0	0	490	614
1	0	0	0	0	489	612
2	0	0	0	0	488	612
3	0	0	0	0	488	613
4	0	0	0	0	487	613
5	0	0	0	0	487	612
6	0	0	0	0	487	613
7	0	0	0	0	487	613
8	0	0	0	0	487	613
9	0	0	0	0	487	612
10	0	0	0	0	487	614
11	0	0	0	0	488	612
12	0	0	0	0	487	613
13	0	0	0	0	488	613
14	0	0	0	0	488	613
15	0	0	0	0	488	614
0	0	0	0	0	488	613
1	0	0	0	0	488	613
2	0	0	0	0	489	614
3	0	0	0	0	489	614
4	0	0	0	0	490	614
5	0	0	0	0	491	614
6	0	0	0	0	491	614
7	0	0	0	0	491	614
8	0	0	0	0	491	614
9	0	0	0	0	491	614
10	0	0	0	0	490	614
11	0	0	0	0	490	613
12	0	0	0	0	490	614
13	0	0	0	0	490	614
14	0	0	0	0	490	614
15	0	0	0	0	491	614
0	0	0	0	0	491	614
1	0	0	0	0	491	613
2	0	0	0	0	492	615
3	0	0	0	0	492	614
4	0	0	0	0	492	615
5	0	0	0	0	492	614
6	0	0	0	0	492	615
7	0	0	0	0	493	615
8	0	0	0	0	493	615
9	0	0	0	0	494	615
10	0	0	0	0	494	615
11	0	0	0	0	494	615
12	0	0	0	0	494	615
13	0	0	0	0	494	615
14	0	0	0	0	494	615
15	0	0	0	0	494	615
0	0	0	0	0	495	615
1	0	0	0	0	496	614
2	0	0	0	0	496	615
3	0	0	0	0	496	615
4	0	0	0	0	497	614
5	0	0	0	0	497	614
6	0	0	0	0	498	614
7	0	0	0	0	498	614
8	0	0	0	0	499	614
9	0	0	0	0	499	613
10	0	0	0	0	500	614
11	0	0	0	0	500	613
12	0	0	0	0	501	614
13	0	0	0	0	500	614
14	0	0	0	0	499	613
15	0	0	0	0	500	614
0	0	0	0	0	500	614
1	0	0	0	0	500	613
2	0	0	0	0	500	614
3	0	0	0	0	500	614
4	0	0	0	0	500	614
5	0	0	0	0	501	614
6	0	0	0	0	501	614
7	0	0	0	0	502	614
8	0	0	0	0	502	614
9	0	0	0	0	502	613
10	0	0	0	0	502	614
11	0	0	0	0	502	614
12	0	0	0	0	502	614
13	0	0	0	0	501	614
14	0	0	0	0	501	614
15	0	0	0	0	500	615
0	0	0	0	0	501	615
1	0	0	0	0	501	614
2	0	0	0	0	502	614
3	0	0	0	0	502	615
4	0	0	0	0	502	615
5	0	0	0	0	503	615
6	0	0	0	0	503	615
7	0	0	0	0	504	615
8	0	0	0	0	504	616
9	0	0	0	0	504	615
10	0	0	0	0	504	616
11	0	0	0	0	504	615
12	0	0	0	0	504	616
13	0	0	0	0	504	615
14	0	0	0	0	505	615
15	0	0	0	0	505	615
0	0	0	0	0	505	616
1	0	0	0	0	504	615
2	0	0	0	0	505	615
3	0	0	0	0	505	616
4	0	0	0	0	505	616
5	0	0	0	0	504	616
6	0	0	0	0	504	616
7	0	0	0	0	504	616
8	0	0	0	0	505	616
9	0	0	0	0	505	615
10	0	0	0	0	506	616
11	0	0	0	0	505	616
12	0	0	0	0	505	615
13	0	0	0	0	505	615
14	0	0	0	0	505	615
15	0	0	0	0	505	615
0	0	0	0	0	505	615
1	0	0	0	0	505	614
2	0	0	0	0	505	614
3	0	0	0	0	506	615
4	0	0	0	0	506	614
5	0	0	0	0	506	614
6	0	0	0	0	507	614
7	0	0	0	0	507	613
8	0	0	0	0	507	614
9	0	0	0	0	507	612
10	0	0	0	0	506	613
11	0	0	0	0	506	613
12	0	0	0	0	505	614
13	0	0	0	0	506	613
14	0	0	0	0	505	612
15	0	0	0	0	505	612
0	0	0	0	0	506	613
1	0	0	0	0	505	611
2	0	0	0	0	505	612
3	0	0	0	0	506	612
4	0	0	0	0	505	612
5	0	0	0	0	505	612
6	0	0	0	0	505	611
7	0	0	0	0	505	612
8	0	0	0	0	506	611
9	0	0	0	0	505	611
10	0	0	0	0	507	611
11	0	0	0	0	507	612
12	0	0	0	0	507	611
13	0	0	0	0	507	612
14	0	0	0	0	507	611
15	0	0	0	0	507	611
0	0	0	0	0	507	611
1	0	0	0	0	507	611
2	0	0	0	0	507	612
3	0	0	0	0	506	611
4	0	0	0	0	505	613
5	0	0	0	0	505	613
6	0	0	0	0	505	612
7	0	0	0	0	505	613
8	0	0	0	0	505	613
9	0	0	0	0	505	612
10	0	0	0	0	505	612
11	0	0	0	0	505	613
12	0	0	0	0	505	613
13	0	0	0	0	505	613
14	0	0	0	0	505	614
15	0	0	0	0	506	614
0	0	0	0	0	506	614
1	0	0	0	0	506	614
2	0	0	0	0	505	615
3	0	0	0	0	505	615
4	0	0	0	0	505	615
5	0	0	0	0	505	616
6	0	0	0	0	504	615
7	0	0	0	0	504	615
8	0	0	0	0	504	616
9	0	0	0	0	504	615
10	0	0	0	0	505	616
11	0	0	0	0	504	617
12	0	0	0	0	504	617
13	0	0	0	0	504	617
14	0	0	0	0	504	617
15	0	0	0	0	503	617
0	0	0	0	0	503	617
1	0	0	0	0	503	616
2	0	0	0	0	503	617
3	0	0	0	0	503	617
4	0	0	0	0	504	617
5	0	0	0	0	503	617
6	0	0	0	0	503	617
7	0	0	0	0	504	617
8	0	0	0	0	504	617
9	0	0	0	0	504	616
10	0	0	0	0	504	617
11	0	0	0	0	504	617
12	0	0	0	0	504	616
13	0	0	0	0	504	616
14	0	0	0	0	504	617
15	0	0	0	0	504	617
0	0	0	0	0	504	617
1	0	0	0	0	503	615
2	0	0	0	0	503	617
3	0	0	0	0	502	617
4	0	0	0	0	503	617
5	0	0	0	0	502	617
6	0	0	0	0	502	616
7	0	0	0	0	502	616
8	0	0	0	0	501	616
9	0	0	0	0	501	615
10	0	0	0	0	501	615
11	0	0	0	0	500	615
12	0	0	0	0	500	615
13	0	0	0	0	501	615
14	0	0	0	0	501	614
15	0	0	0	0	501	614
0	0	0	0	0	502	614
1	0	0	0	0	502	614
2	0	0	0	0	502	613
3	0	0	0	0	503	614
4	0	0	0	0	503	613
5	0	0	0	0	502	613
6	0	0	0	0	502	613
7	0	0	0	0	502	612
8	0	0	0	0	503	613
9	0	0	0	0	502	611
10	0	0	0	0	502	613
11	0	0	0	0	501	612
12	0	0	0	0	502	612
13	0	0	0	0	502	612
14	0	0	0	0	503	612
15	0	0	0	0	503	612
0	0	0	0	0	502	613
1	0	0	0	0	502	612
2	0	0	0	0	502	613
3	0	0	0	0	502	612
4	0	0	0	0	502	613
5	0	0	0	0	503	612
6	0	0	0	0	503	613
7	0	0	0	0	503	612
8	0	0	0	0	503	612
9	0	0	0	0	504	611
10	0	0	0	0	504	612
11	0	0	0	0	504	612
12	0	0	0	0	504	613
13	0	0	0	0	503	612
14	0	0	0	0	503	612
15	0	0	0	0	504	612
0	0	0	0	0	504	612
1	0	0	0	0	504	612
2	0	0	0	0	504	612
3	0	0	0	0	504	613
4	0	0	0	0	504	612
5	0	0	0	0	504	613
6	0	0	0	0	504	614
7	0	0	0	0	504	614
8	0	0	0	0	504	614
9	0	0	0	0	505	614
10	0	0	0	0	506	614
11	0	0	0	0	507	615
12	0	0	0	0	507	615
13	0	0	0	0	507	615
14	0	0	0	0	506	615
15	0	0	0	0	506	615
0	0	0	0	0	506	615
1	0	0	0	0	506	615
2	0	0	0	0	506	615
3	0	0	0	0	506	615
4	0	0	0	0	506	615
5	0	0	0	0	505	615
6	0	0	0	0	505	615
7	0	0	0	0	505	615
8	0	0	0	0	505	615
9	0	0	0	0	504	614
10	0	0	0	0	505	614
11	0	0	0	0	505	615
12	0	0	0	0	505	614
13	0	0	0	0	506	615
14	0	0	0	0	506	615
15	0	0	0	0	506	615
0	0	0	0	0	506	615
1	0	0	0	0	505	614
2	0	0	0	0	505	615
3	0	0	0	0	504	615
4	0	0	0	0	505	615
5	0	0	0	0	504	615
6	0	0	0	0	505	615
7	0	0	0	0	505	614
8	0	0	0	0	504	615
9	0	0	0	0	504	613
10	0	0	0	0	504	614
11	0	0	0	0	504	614
12	0	0	0	0	504	614
13	0	0	0	0	505	615
14	0	0	0	0	505	614
15	0	0	0	0	505	615
0	0	0	0	0	505	615
1	0	0	0	0	504	614
2	0	0	0	0	505	615
3	0	0	0	0	505	614
4	0	0	0	0	505	615
5	0	0	0	0	505	615
6	0	0	0	0	506	615
7	0	0	0	0	506	615
8	0	0	0	0	505	615
9	0	0	0	0	505	614
10	0	0	0	0	505	615
11	0	0	0	0	505	614
12	0	0	0	0	504	615
13	0	0	0	0	504	615
14	0	0	0	0	503	615
15	0	0	0	0	503	615
0	0	0	0	0	503	615
1	0	0	0	0	504	614
2	0	0	0	0	504	615
3	0	0	0	0	504	614
4	0	0	0	0	504	615
5	0	0	0	0	504	615
6	0	0	0	0	504	615
7	0	0	0	0	505	615
8	0	0	0	0	505	615
9	0	0	0	0	505	615
10	0	0	0	0	505	615
11	0	0	0	0	505	615
12	0	0	0	0	504	615
13	0	0	0	0	504	616
14	0	0	0	0	504	615
15	0	0	0	0	504	615
0	0	0	0	0	504	616
1	0	0	0	0	504	615
2	0	0	0	0	504	616
3	0	0	0	0	504	615
4	0	0	0	0	504	616
5	0	0	0	0	504	616
6	0	0	0	0	504	616
7	0	0	0	0	504	616
8	0	0	0	0	505	617
9	0	0	0	0	505	615
10	0	0	0	0	505	616
11	0	0	0	0	506	616
12	0	0	0	0	506	616
13	0	0	0	0	505	616
14	0	0	0	0	505	615
15	0	0	0	0	505	615
0	0	0	0	0	505	615
1	0	0	0	0	505	615
2	0	0	0	0	506	615
3	0	0	0	0	506	615
4	0	0	0	0	505	615
5	0	0	0	0	504	615
6	0	0	0	0	504	615
7	0	0	0	0	504	615
8	0	0	0	0	503	615
9	0	0	0	0	503	614
10	0	0	0	0	504	615
11	0	0	0	0	504	615
12	0	0	0	0	504	615
13	0	0	0	0	504	614
14	0	0	0	0	504	614
15	0	0	0	0	504	615
0	0	0	0	0	504	614
1	0	0	0	0	504	613
2	0	0	0	0	504	614
3	0	0	0	0	504	615
4	0	0	0	0	504	613
5	0	0	0	0	504	613
6	0	0	0	0	504	613
7	0	0	0	0	504	614
8	0	0	0	0	505	614
9	0	0	0	0	505	612
10	0	0	0	0	505	613
11	0	0	0	0	505	612
12	0	0	0	0	505	612
13	0	0	0	0	504	612
14	0	0	0	0	504	612
15	0	0	0	0	504	612
0	0	0	0	0	504	612
1	0	0	0	0	504	612
2	0	0	0	0	504	612
3	0	0	0	0	504	611
4	0	0	0	0	504	611
5	0	0	0	0	504	611
6	0	0	0	0	504	611
7	0	0	0	0	504	611
8	0	0	0	0	504	611
9	0	0	0	0	504	610
10	0	0	0	0	504	612
11	0	0	0	0	504	611
12	0	0	0	0	504	611
13	0	0	0	0	504	611
14	0	0	0	0	504	612
15	0	0	0	0	505	612
0	0	0	0	0	504	612
1	0	0	0	0	504	611
2	0	0	0	0	505	612
3	0	0	0	0	505	613
4	0	0	0	0	505	612
5	0	0	0	0	506	612
6	0	0	0	0	506	612
7	0	0	0	0	506	612
8	0	0	0	0	506	612
9	0	0	0	0	506	612
10	0	0	0	0	505	613
11	0	0	0	0	504	613
12	0	0	0	0	505	614
13	0	0	0	0	504	613
14	0	0	0	0	505	614
15	0	0	0	0	505	614
0	0	0	0	0	505	614
1	0	0	0	0	505	613
2	0	0	0	0	504	614
3	0	0	0	0	505	614
4	0	0	0	0	504	614
5	0	0	0	0	505	614
6	0	0	0	0	505	615
7	0	0	0	0	505	614
8	0	0	0	0	506	614
9	0	0	0	0	507	614
10	0	0	0	0	506	615
11	0	0	0	0	506	615
12	0	0	0	0	507	615
13	0	0	0	0	507	615
14	0	0	0	0	508	615
15	0	0	0	0	507	615
0	0	0	0	0	507	615
1	0	0	0	0	507	614
2	0	0	0	0	507	616
3	0	0	0	0	506	616
4	0	0	0	0	506	616
5	0	0	0	0	505	616
6	0	0	0	0	505	616
7	0	0	0	0	505	616
8	0	0	0	0	504	617
9	0	0	0	0	504	616
10	0	0	0	0	504	617
11	0	0	0	0	504	617
12	0	0	0	0	504	616
13	0	0	0	0	505	617
14	0	0	0	0	505	617
15	0	0	0	0	506	617
0	0	0	0	0	506	617
1	0	0	0	0	506	615
2	0	0	0	0	507	616
3	0	0	0	0	507	617
4	0	0	0	0	506	617
5	0	0	0	0	506	617
6	0	0	0	0	506	616
7	0	0	0	0	507	617
8	0	0	0	0	507	616
9	0	0	0	0	507	616
10	0	0	0	0	507	616
11	0	0	0	0	508	617
12	0	0	0	0	507	616
13	0	0	0	0	507	616
14	0	0	0	0	507	615
15	0	0	0	0	507	615
0	0	0	0	0	507	615
1	0	0	0	0	507	615
2	0	0	0	0	506	615
3	0	0	0	0	506	615
4	0	0	0	0	506	615
5	0	0	0	0	507	614
6	0	0	0	0	507	614
7	0	0	0	0	507	614
8	0	0	0	0	507	614
9	0	0	0	0	507	613
10	0	0	0	0	507	612
11	0	0	0	0	507	613
12	0	0	0	0	507	612
13	0	0	0	0	506	612
14	0	0	0	0	507	613
15	0	0	0	0	506	612
0	0	0	0	0	506	612
1	0	0	0	0	506	611
2	0	0	0	0	506	612
3	0	0	0	0	506	612
4	0	0	0	0	506	612
5	0	0	0	0	505	612
6	0	0	0	0	505	612
7	0	0	0	0	505	611
8	0	0	0	0	505	612
9	0	0	0	0	506	611
10	0	0	0	0	507	612
11	0	0	0	0	507	612
12	0	0	0	0	507	612
13	0	0	0	0	507	612
14	0	0	0	0	507	613
15	0	0	0	0	507	613
0	0	0	0	0	507	613
1	0	0	0	0	508	613
2	0	0	0	0	508	614
3	0	0	0	0	508	614
4	0	0	0	0	507	615
5	0	0	0	0	507	614
6	0	0	0	0	507	615
7	0	0	0	0	506	615
8	0	0	0	0	507	615
9	0	0	0	0	506	614
10	0	0	0	0	507	615
11	0	0	0	0	507	616
12	0	0	0	0	507	616
13	0	0	0	0	507	616
14	0	0	0	0	507	616
15	0	0	0	0	508	617
0	0	0	0	0	508	617
1	0	0	0	0	508	616
2	0	0	0	0	508	617
3	0	0	0	0	508	617
4	0	0	0	0	508	617
5	0	0	0	0	508	617
6	0	0	0	0	508	616
7	0	0	0	0	508	617
8	0	0	0	0	509	616
9	0	0	0	0	508	616
10	0	0	0	0	508	616
11	0	0	0	0	508	616
12	0	0	0	0	509	617
13	0	0	0	0	509	617
14	0	0	0	0	509	616
15	0	0	0	0	509	616
0	0	0	0	0	509	616
1	0	0	0	0	509	615
2	0	0	0	0	509	616
3	0	0	0	0	508	616
4	0	0	0	0	508	615
5	0	0	0	0	507	615
6	0	0	0	0	508	615
7	0	0	0	0	508	615
8	0	0	0	0	508	615
9	0	0	0	0	508	614
10	0	0	0	0	508	615
11	0	0	0	0	508	615
12	0	0	0	0	508	615
13	0	0	0	0	509	614
14	0	0	0	0	510	614
15	0	0	0	0	510	614
0	0	0	0	0	510	614
1	0	0	0	0	510	612
2	0	0	0	0	511	614
3	0	0	0	0	510	614
4	0	0	0	0	510	613
5	0	0	0	0	509	613
6	0	0	0	0	510	613
7	0	0	0	0	510	613
8	0	0	0	0	509	612
9	0	0	0	0	509	611
10	0	0	0	0	509	612
11	0	0	0	0	509	613
12	0	0	0	0	509	613
13	0	0	0	0	509	613
14	0	0	0	0	509	612
15	0	0	0	0	510	612
0	0	0	0	0	510	612
1	0	0	0	0	510	611
2	0	0	0	0	510	612
3	0	0	0	0	510	611
4	0	0	0	0	511	612
5	0	0	0	0	510	611
6	0	0	0	0	510	612
7	0	0	0	0	510	611
8	0	0	0	0	510	612
9	0	0	0	0	510	611
10	0	0	0	0	510	612
11	0	0	0	0	510	612
12	0	0	0	0	511	612
13	0	0	0	0	512	613
14	0	0	0	0	512	613
15	0	0	0	0	512	614
0	0	0	0	0	512	614
1	0	0	0	0	512	612
2	0	0	0	0	512	614
3	0	0	0	0	513	614
4	0	0	0	0	513	614
5	0	0	0	0	513	614
6	0	0	0	0	513	614
7	0	0	0	0	513	614
8	0	0	0	0	512	614
9	0	0	0	0	512	614
10	0	0	0	0	512	615
11	0	0	0	0	512	615
12	0	0	0	0	510	615
13	0	0	0	0	510	615
14	0	0	0	0	508	615
15	0	0	0	0	507	615
0	0	0	0	0	505	615
1	0	0	0	0	504	614
2	0	0	0	0	504	615
3	0	0	0	0	503	615
4	0	0	0	0	503	616
5	0	0	0	0	502	615
6	0	0	0	0	502	615
7	0	0	0	0	502	615
8	0	0	0	0	502	615
9	0	0	0	0	503	615
10	0	0	0	0	504	615
11	0	0	0	0	503	615
12	0	0	0	0	503	615
13	0	0	0	0	503	615
14	0	0	0	0	502	614
15	0	0	0	0	503	615
0	0	0	0	0	503	615
1	0	0	0	0	503	614
2	0	0	0	0	503	614
3	0	0	0	0	503	613
4	0	0	0	0	502	614
5	0	0	0	0	502	614
6	0	0	0	0	502	614
7	0	0	0	0	502	614
8	0	0	0	0	501	614
9	0	0	0	0	501	613
10	0	0	0	0	501	614
11	0	0	0	0	501	614
12	0	0	0	0	501	614
13	0	0	0	0	502	614
14	0	0	0	0	502	614
15	0	0	0	0	503	613
0	0	0	0	0	503	614
1	0	0	0	0	503	613
2	0	0	0	0	504	614
3	0	0	0	0	504	614
4	0	0	0	0	504	614
5	0	0	0	0	505	614
6	0	0	0	0	505	614
7	0	0	0	0	505	615
8	0	0	0	0	505	614
9	0	0	0	0	505	613
10	0	0	0	0	505	614
11	0	0	0	0	504	614
12	0	0	0	0	505	615
13	0	0	0	0	505	614
14	0	0	0	0	505	614
15	0	0	0	0	505	614
0	0	0	0	0	505	614
1	0	0	0	0	505	613
2	0	0	0	0	505	615
3	0	0	0	0	506	614
4	0	0	0	0	507	615
5	0	0	0	0	507	615
6	0	0	0	0	507	615
7	0	0	0	0	508	615
8	0	0	0	0	508	615
9	0	0	0	0	508	614
10	0	0	0	0	508	614
11	0	0	0	0	508	615
12	0	0	0	0	509	614
13	0	0	0	0	510	614
14	0	0	0	0	510	615
15	0	0	0	0	509	614
0	0	0	0	0	508	615
1	0	0	0	0	508	614
2	0	0	0	0	508	615
3	0	0	0	0	508	615
4	0	0	0	0	507	615
5	0	0	0	0	507	614
6	0	0	0	0	507	614
7	0	0	0	0	507	614
8	0	0	0	0	507	615
9	0	0	0	0	507	614
10	0	0	0	0	507	615
11	0	0	0	0	507	615
12	0	0	0	0	507	615
13	0	0	0	0	508	615
14	0	0	0	0	509	615
15	0	0	0	0	508	615
0	0	0	0	0	508	615
1	0	0	0	0	508	614
2	0	0	0	0	508	615
3	0	0	0	0	508	615
4	0	0	0	0	509	615
5	0	0	0	0	509	615
6	0	0	0	0	509	616
7	0	0	0	0	509	616
8	0	0	0	0	509	616
9	0	0	0	0	509	615
10	0	0	0	0	508	616
11	0	0	0	0	508	615
12	0	0	0	0	508	615
13	0	0	0	0	510	615
14	0	0	0	0	511	615
15	0	0	0	0	512	615
0	0	0	0	0	513	615
1	0	0	0	0	514	615
2	0	0	0	0	517	615
3	0	0	0	0	521	615
4	0	0	0	0	526	615
5	0	0	0	0	531	614
6	0	0	0	0	538	614
7	0	0	0	0	544	614
8	0	0	0	0	550	614
9	0	0	0	0	557	613
10	0	0	0	0	565	614
11	0	0	0	0	574	614
12	0	0	0	0	583	614
13	0	0	0	0	594	613
14	0	0	0	0	607	613
15	0	0	0	0	617	614
0	0	0	0	0	627	614
1	0	0	0	0	633	612
2	0	0	0	0	638	613
3	0	0	0	0	643	613
4	0	0	0	0	647	614
5	0	0	0	0	648	613
6	0	0	0	0	647	612
7	0	0	0	0	642	613
8	0	0	0	0	632	612
9	0	0	0	0	614	611
10	0	0	0	0	592	612
11	0	0	0	0	565	612
12	0	0	0	0	531	612
13	0	0	0	0	491	611
14	0	0	0	0	447	611
15	0	0	0	0	398	612
0	0	0	0	0	344	612
1	0	0	0	0	285	611
2	0	0	0	0	224	612
3	0	0	0	0	156	611
4	0	0	0	0	87	612
5	0	0	0	0	17	611
6	0	0	0	0	0	611
7	0	0	0	0	0	611
8	0	0	0	0	0	611
9	0	0	0	0	0	611
10	0	0	0	0	0	611
11	0	0	0	0	0	612
12	0	0	0	0	0	612
13	0	0	0	0	0	611
14	0	0	0	0	0	612
15	0	0	0	0	0	612
0	0	0	0	0	0	612
1	0	0	0	0	0	611
2	0	0	0	0	0	612
3	0	0	0	0	0	613
4	0	0	0	0	0	612
5	0	0	0	0	0	613
6	0	0	0	0	0	614
7	0	0	0	0	0	614
8	0	0	0	0	0	613
9	0	0	0	0	0	613
10	0	0	0	0	0	614
11	0	0	0	0	0	615
12	0	0	0	0	0	615
13	0	0	0	0	0	615
14	0	0	0	0	77	615
15	0	0	0	0	182	615
0	0	0	0	0	278	615
1	0	0	0	0	357	615
2	0	0	0	0	417	615
3	0	0	0	0	467	616
4	0	0	0	0	507	616
5	0	0	0	0	538	615
6	0	0	0	0	563	615
7	0	0	0	0	585	616
8	0	0	0	0	604	615
9	0	0	0	0	622	615
10	0	0	0	0	638	616
11	0	0	0	0	653	615
12	0	0	0	0	666	616
13	0	0	0	0	676	615
14	0	0	0	0	686	617
15	0	0	0	0	694	616
0	0	0	0	0	701	615
1	0	0	0	0	708	615
2	0	0	0	0	714	615
3	0	0	0	0	719	615
4	0	0	0	0	723	615
5	0	0	0	0	727	615
6	0	0	0	0	731	615
7	0	0	0	0	732	615
8	0	0	0	0	736	615
9	0	0	0	0	737	613
10	0	0	0	0	738	614
11	0	0	0	0	739	614
12	0	0	0	0	739	613
13	0	0	0	0	740	614
14	0	0	0	0	740	613
15	0	0	0	0	740	613
0	0	0	0	0	741	613
1	0	0	0	0	741	612
2	0	0	0	0	741	612
3	0	0	0	0	740	613
4	0	0	0	0	740	612
5	0	0	0	0	740	613
6	0	0	0	0	740	613
7	0	0	0	0	739	614
8	0	0	0	0	738	613
9	0	0	0	0	737	612
10	0	0	0	0	735	613
11	0	0	0	0	734	614
12	0	0	0	0	732	614
13	0	0	0	0	730	614
14	0	0	0	0	728	614
15	0	0	0	0	727	614
0	0	0	0	0	725	614
1	0	0	0	0	724	613
2	0	0	0	0	723	614
3	0	0	0	0	722	615
4	0	0	0	0	721	615
5	0	0	0	0	719	615
6	0	0	0	0	718	615
7	0	0	0	0	716	615
8	0	0	0	0	714	615
9	0	0	0	0	712	614
10	0	0	0	0	711	615
11	0	0	0	0	709	615
12	0	0	0	0	707	615
13	0	0	0	0	706	615
14	0	0	0	0	704	616
15	0	0	0	0	703	615
0	0	0	0	0	702	616
1	0	0	0	0	700	615
2	0	0	0	0	698	616
3	0	0	0	0	697	616
4	0	0	0	0	694	616
5	0	0	0	0	692	616
6	0	0	0	0	691	615
7	0	0	0	0	690	616
8	0	0	0	0	689	616
9	0	0	0	0	688	615
10	0	0	0	0	686	616
11	0	0	0	0	684	616
12	0	0	0	0	683	616
13	0	0	0	0	681	616
14	0	0	0	0	679	616
15	0	0	0	0	677	616
0	0	0	0	0	675	616
1	0	0	0	0	674	615
2	0	0	0	0	673	617
3	0	0	0	0	671	616
4	0	0	0	0	670	616
5	0	0	0	0	669	616
6	0	0	0	0	667	615
7	0	0	0	0	666	616
8	0	0	0	0	664	616
9	0	0	0	0	663	615
10	0	0	0	0	662	616
11	0	0	0	0	659	615
12	0	0	0	0	659	615
13	0	0	0	0	656	615
14	0	0	0	0	655	615
15	0	0	0	0	652	615
0	0	0	0	0	652	615
1	0	0	0	0	650	614
2	0	0	0	0	649	615
3	0	0	0	0	648	614
4	0	0	0	0	646	614
5	0	0	0	0	645	614
6	0	0	0	0	643	614
7	0	0	0	0	641	614
8	0	0	0	0	640	614
9	0	0	0	0	639	612
10	0	0	0	0	638	613
11	0	0	0	0	636	613
12	0	0	0	0	635	613
13	0	0	0	0	634	613
14	0	0	0	0	632	613
15	0	0	0	0	631	614
0	0	0	0	0	630	613
1	0	0	0	0	629	612
2	0	0	0	0	628	612
3	0	0	0	0	626	612
4	0	0	0	0	625	612
5	0	0	0	0	624	613
6	0	0	0	0	623	613
7	0	0	0	0	621	612
8	0	0	0	0	620	613
9	0	0	0	0	619	611
10	0	0	0	0	618	612
11	0	0	0	0	616	612
12	0	0	0	0	615	613
13	0	0	0	0	614	612
14	0	0	0	0	612	612
15	0	0	0	0	611	613
0	0	0	0	0	611	613
1	0	0	0	0	610	612
2	0	0	0	0	609	614
3	0	0	0	0	608	614
4	0	0	0	0	607	613
5	0	0	0	0	607	613
6	0	0	0	0	606	614
7	0	0	0	0	605	614
8	0	0	0	0	604	614
9	0	0	0	0	603	613
10	0	0	0	0	601	613
11	0	0	0	0	601	614
12	0	0	0	0	601	613
13	0	0	0	0	600	614
14	0	0	0	0	600	614
15	0	0	0	0	599	614
0	0	0	0	0	598	613
1	0	0	0	0	597	613
2	0	0	0	0	596	614
3	0	0	0	0	596	614
4	0	0	0	0	595	614
5	0	0	0	0	594	614
6	0	0	0	0	593	615
7	0	0	0	0	592	615
8	0	0	0	0	591	614
9	0	0	0	0	591	614
10	0	0	0	0	591	614
11	0	0	0	0	590	614
12	0	0	0	0	590	614
13	0	0	0	0	589	614
14	0	0	0	0	588	614
15	0	0	0	0	588	614
0	0	0	0	0	588	614
1	0	0	0	0	587	613
2	0	0	0	0	587	614
3	0	0	0	0	587	614
4	0	0	0	0	586	614
5	0	0	0	0	585	613
6	0	0	0	0	585	614
7	0	0	0	0	585	613
8	0	0	0	0	585	614
9	0	0	0	0	585	613
10	0	0	0	0	584	613
11	0	0	0	0	583	614
12	0	0	0	0	583	614
13	0	0	0	0	582	614
14	0	0	0	0	582	614
15	0	0	0	0	582	614
0	0	0	0	0	581	614
1	0	0	0	0	582	614
2	0	0	0	0	582	613
3	0	0	0	0	581	614
4	0	0	0	0	580	614
5	0	0	0	0	580	614
6	0	0	0	0	579	614
7	0	0	0	0	579	614
8	0	0	0	0	578	613
9	0	0	0	0	578	613
10	0	0	0	0	577	614
11	0	0	0	0	577	615
12	0	0	0	0	576	614
13	0	0	0	0	575	614
14	0	0	0	0	575	614
15	0	0	0	0	575	614
0	0	0	0	0	574	614
1	0	0	0	0	574	613
2	0	0	0	0	573	614
3	0	0	0	0	572	614
4	0	0	0	0	571	615
5	0	0	0	0	570	615
6	0	0	0	0	568	615
7	0	0	0	0	567	615
8	0	0	0	0	566	615
9	0	0	0	0	564	615
10	0	0	0	0	563	616
11	0	0	0	0	562	617
12	0	0	0	0	561	616
13	0	0	0	0	560	616
14	0	0	0	0	557	616
15	0	0	0	0	556	617
0	0	0	0	0	555	617
1	0	0	0	0	553	615
2	0	0	0	0	553	617
3	0	0	0	0	551	617
4	0	0	0	0	549	617
5	0	0	0	0	548	617
6	0	0	0	0	546	617
7	0	0	0	0	545	616
8	0	0	0	0	544	617
9	0	0	0	0	543	615
10	0	0	0	0	541	616
11	0	0	0	0	540	616
12	0	0	0	0	537	616
13	0	0	0	0	535	615
14	0	0	0	0	533	615
15	0	0	0	0	531	615
0	0	0	0	0	530	615
1	0	0	0	0	528	615
2	0	0	0	0	525	615
3	0	0	0	0	523	615
4	0	0	0	0	520	615
5	0	0	0	0	519	615
6	0	0	0	0	516	615
7	0	0	0	0	514	615
8	0	0	0	0	512	615
9	0	0	0	0	510	613
10	0	0	0	0	508	614
11	0	0	0	0	505	614
12	0	0	0	0	503	613
13	0	0	0	0	500	613
14	0	0	0	0	498	613
15	0	0	0	0	496	613
0	0	0	0	0	494	613
1	0	0	0	0	491	613
2	0	0	0	0	489	614
3	0	0	0	0	487	613
4	0	0	0	0	485	613
5	0	0	0	0	483	613
6	0	0	0	0	481	613
7	0	0	0	0	480	613
8	0	0	0	0	478	613
9	0	0	0	0	476	611
10	0	0	0	0	475	612
11	0	0	0	0	473	612
12	0	0	0	0	473	613
13	0	0	0	0	472	612
14	0	0	0	0	470	612
15	0	0	0	0	470	612
0	0	0	0	0	469	612
1	0	0	0	0	469	611
2	0	0	0	0	468	612
3	0	0	0	0	469	612
4	0	0	0	0	468	612
5	0	0	0	0	468	612
6	0	0	0	0	469	612
7	0	0	0	0	468	612
8	0	0	0	0	468	612
9	0	0	0	0	468	611
10	0	0	0	0	469	612
11	0	0	0	0	469	613
12	0	0	0	0	469	613
13	0	0	0	0	469	612
14	0	0	0	0	469	612
15	0	0	0	0	470	613
0	0	0	0	0	470	614
1	0	0	0	0	471	613
2	0	0	0	0	471	614
3	0	0	0	0	472	614
4	0	0	0	0	472	614
5	0	0	0	0	472	615
6	0	0	0	0	473	615
7	0	0	0	0	473	615
8	0	0	0	0	474	615
9	0	0	0	0	473	614
10	0	0	0	0	474	615
11	0	0	0	0	474	615
12	0	0	0	0	475	615
13	0	0	0	0	475	615
14	0	0	0	0	476	615
15	0	0	0	0	476	615
0	0	0	0	0	476	614
1	0	0	0	0	476	614
2	0	0	0	0	478	615
3	0	0	0	0	477	615
4	0	0	0	0	477	615
5	0	0	0	0	477	615
6	0	0	0	0	478	615
7	0	0	0	0	478	615
8	0	0	0	0	478	615
9	0	0	0	0	479	615
10	0	0	0	0	480	615
11	0	0	0	0	480	615
12	0	0	0	0	479	615
13	0	0	0	0	480	615
14	0	0	0	0	480	615
15	0	0	0	0	480	615
0	0	0	0	0	480	615
1	0	0	0	0	481	615
2	0	0	0	0	480	615
3	0	0	0	0	480	615
4	0	0	0	0	480	615
5	0	0	0	0	481	615
6	0	0	0	0	481	615
7	0	0	0	0	481	616
8	0	0	0	0	481	615
9	0	0	0	0	482	615
10	0	0	0	0	483	615
11	0	0	0	0	483	615
12	0	0	0	0	483	615
13	0	0	0	0	483	615
14	0	0	0	0	484	615
15	0	0	0	0	484	615
0	0	0	0	0	485	615
1	0	0	0	0	485	615
2	0	0	0	0	486	615
3	0	0	0	0	485	615
4	0	0	0	0	485	615
5	0	0	0	0	486	615
6	0	0	0	0	485	615
7	0	0	0	0	486	615
8	0	0	0	0	486	616
9	0	0	0	0	486	615
10	0	0	0	0	487	615
11	0	0	0	0	486	615
12	0	0	0	0	486	616
13	0	0	0	0	485	616
14	0	0	0	0	486	616
15	0	0	0	0	486	616
0	0	0	0	0	487	615
1	0	0	0	0	487	615
2	0	0	0	0	487	615
3	0	0	0	0	487	616
4	0	0	0	0	488	615
5	0	0	0	0	488	615
6	0	0	0	0	489	615
7	0	0	0	0	490	615
8	0	0	0	0	491	616
9	0	0	0	0	491	615
10	0	0	0	0	492	615
11	0	0	0	0	492	615
12	0	0	0	0	492	615
13	0	0	0	0	492	616
14	0	0	0	0	493	615
15	0	0	0	0	493	615
0	0	0	0	0	494	615
1	0	0	0	0	494	614
2	0	0	0	0	494	615
3	0	0	0	0	495	615
4	0	0	0	0	495	615
5	0	0	0	0	495	615
6	0	0	0	0	496	615
7	0	0	0	0	496	615
8	0	0	0	0	497	615
9	0	0	0	0	497	614
10	0	0	0	0	497	615
11	0	0	0	0	497	615
12	0	0	0	0	498	615
13	0	0	0	0	498	615
14	0	0	0	0	498	615
15	0	0	0	0	498	615
0	0	0	0	0	498	615
1	0	0	0	0	498	614
2	0	0	0	0	499	614
3	0	0	0	0	499	614
4	0	0	0	0	500	614
5	0	0	0	0	500	614
6	0	0	0	0	501	614
7	0	0	0	0	501	614
8	0	0	0	0	501	614
9	0	0	0	0	501	612
10	0	0	0	0	501	613
11	0	0	0	0	501	613
12	0	0	0	0	501	613
13	0	0	0	0	501	613
14	0	0	0	0	502	613
15	0	0	0	0	501	613
0	0	0	0	0	501	613
1	0	0	0	0	501	611
2	0	0	0	0	502	613
3	0	0	0	0	502	613
4	0	0	0	0	502	612
5	0	0	0	0	502	612
6	0	0	0	0	503	612
7	0	0	0	0	503	612
8	0	0	0	0	502	612
9	0	0	0	0	503	611
10	0	0	0	0	503	611
11	0	0	0	0	503	612
12	0	0	0	0	502	612
13	0	0	0	0	502	611
14	0	0	0	0	502	612
15	0	0	0	0	502	612
0	0	0	0	0	502	611
1	0	0	0	0	503	610
2	0	0	0	0	503	611
3	0	0	0	0	503	611
4	0	0	0	0	503	611
5	0	0	0	0	503	611
6	0	0	0	0	503	611
7	0	0	0	0	503	611
8	0	0	0	0	503	611
9	0	0	0	0	503	611
10	0	0	0	0	504	611
11	0	0	0	0	503	611
12	0	0	0	0	503	611
13	0	0	0	0	503	611
14	0	0	0	0	502	611
15	0	0	0	0	502	611
0	0	0	0	0	502	611
1	0	0	0	0	502	611
2	0	0	0	0	501	611
3	0	0	0	0	501	612
4	0	0	0	0	501	612
5	0	0	0	0	501	612
6	0	0	0	0	501	612
7	0	0	0	0	501	613
8	0	0	0	0	501	613
9	0	0	0	0	502	612
10	0	0	0	0	502	613
11	0	0	0	0	501	614
12	0	0	0	0	501	614
13	0	0	0	0	501	614
14	0	0	0	0	500	614
15	0	0	0	0	499	614
0	0	0	0	0	500	614
1	0	0	0	0	499	614
2	0	0	0	0	499	615
3	0	0	0	0	499	615
4	0	0	0	0	499	615
5	0	0	0	0	499	615
6	0	0	0	0	498	616
7	0	0	0	0	498	615
8	0	0	0	0	498	615
9	0	0	0	0	498	615
10	0	0	0	0	497	616
11	0	0	0	0	497	616
12	0	0	0	0	496	616
13	0	0	0	0	496	617
14	0	0	0	0	496	617
15	0	0	0	0	497	616
0	0	0	0	0	497	617
1	0	0	0	0	496	617
2	0	0	0	0	496	617
3	0	0	0	0	496	617
4	0	0	0	0	497	617
5	0	0	0	0	496	617
6	0	0	0	0	496	618
7	0	0	0	0	497	618
8	0	0	0	0	497	617
9	0	0	0	0	497	617
10	0	0	0	0	497	617
11	0	0	0	0	496	617
12	0	0	0	0	497	617
13	0	0	0	0	497	616
14	0	0	0	0	497	617
15	0	0	0	0	497	617
0	0	0	0	0	497	617
1	0	0	0	0	498	615
2	0	0	0	0	498	617
3	0	0	0	0	498	617
4	0	0	0	0	497	617
5	0	0	0	0	497	617
6	0	0	0	0	497	617
7	0	0	0	0	497	616
8	0	0	0	0	497	617
9	0	0	0	0	497	616
10	0	0	0	0	497	617
11	0	0	0	0	497	616
12	0	0	0	0	497	616
13	0	0	0	0	497	616
14	0	0	0	0	497	617
15	0	0	0	0	497	616
0	0	0	0	0	498	615
1	0	0	0	0	498	615
2	0	0	0	0	498	616
3	0	0	0	0	498	616
4	0	0	0	0	498	616
5	0	0	0	0	497	615
6	0	0	0	0	497	615
7	0	0	0	0	497	615
8	0	0	0	0	497	614
9	0	0	0	0	497	614
10	0	0	0	0	497	615
11	0	0	0	0	497	614
12	0	0	0	0	497	614
13	0	0	0	0	497	614
14	0	0	0	0	497	614
15	0	0	0	0	497	613
0	0	0	0	0	497	614
1	0	0	0	0	497	612
2	0	0	0	0	498	613
3	0	0	0	0	497	612
4	0	0	0	0	497	612
5	0	0	0	0	497	613
6	0	0	0	0	499	613
7	0	0	0	0	499	613
8	0	0	0	0	499	612
9	0	0	0	0	499	612
10	0	0	0	0	499	612
11	0	0	0	0	500	612
12	0	0	0	0	501	612
13	0	0	0	0	500	612
14	0	0	0	0	500	611
15	0	0	0	0	501	612
0	0	0	0	0	500	611
1	0	0	0	0	500	611
2	0	0	0	0	500	611
3	0	0	0	0	500	611
4	0	0	0	0	500	612
5	0	0	0	0	500	612
6	0	0	0	0	500	611
7	0	0	0	0	501	611
8	0	0	0	0	501	611
9	0	0	0	0	500	611
10	0	0	0	0	502	612
11	0	0	0	0	501	611
12	0	0	0	0	501	611
13	0	0	0	0	501	611
14	0	0	0	0	502	611
15	0	0	0	0	502	612
0	0	0	0	0	502	611
1	0	0	0	0	503	611
2	0	0	0	0	502	611
3	0	0	0	0	502	612
4	0	0	0	0	502	612
5	0	0	0	0	502	612
6	0	0	0	0	502	612
7	0	0	0	0	502	613
8	0	0	0	0	502	613
9	0	0	0	0	502	612
10	0	0	0	0	502	614
11	0	0	0	0	502	614
12	0	0	0	0	502	614
13	0	0	0	0	502	614
14	0	0	0	0	502	615
15	0	0	0	0	502	615
0	0	0	0	0	502	615
1	0	0	0	0	503	614
2	0	0	0	0	503	614
3	0	0	0	0	503	615
4	0	0	0	0	503	615
5	0	0	0	0	503	615
6	0	0	0	0	503	615
7	0	0	0	0	503	615
8	0	0	0	0	503	615
9	0	0	0	0	503	614
10	0	0	0	0	504	615
11	0	0	0	0	503	615
12	0	0	0	0	502	615
13	0	0	0	0	503	616
14	0	0	0	0	503	615
15	0	0	0	0	503	616
0	0	0	0	0	502	617
1	0	0	0	0	503	615
2	0	0	0	0	503	615
3	0	0	0	0	503	615
4	0	0	0	0	502	616
5	0	0	0	0	502	616
6	0	0	0	0	502	617
7	0	0	0	0	502	617
8	0	0	0	0	501	616
9	0	0	0	0	502	615
10	0	0	0	0	502	616
11	0	0	0	0	502	616
12	0	0	0	0	503	616
13	0	0	0	0	502	616
14	0	0	0	0	502	616
15	0	0	0	0	502	617
0	0	0	0	0	502	616
1	0	0	0	0	503	616
2	0	0	0	0	503	616
3	0	0	0	0	503	617
4	0	0	0	0	503	616
5	0	0	0	0	503	617
6	0	0	0	0	503	617
7	0	0	0	0	503	616
8	0	0	0	0	503	616
9	0	0	0	0	502	615
10	0	0	0	0	502	615
11	0	0	0	0	502	615
12	0	0	0	0	502	615
13	0	0	0	0	502	615
14	0	0	0	0	502	615
15	0	0	0	0	501	615
0	0	0	0	0	501	615
1	0	0	0	0	501	614
2	0	0	0	0	502	615
3	0	0	0	0	501	615
4	0	0	0	0	501	615
5	0	0	0	0	502	615
6	0	0	0	0	502	615
7	0	0	0	0	502	615
8	0	0	0	0	502	615
9	0	0	0	0	502	613
10	0	0	0	0	502	614
11	0	0	0	0	502	614
12	0	0	0	0	503	614
13	0	0	0	0	503	614
14	0	0	0	0	503	614
15	0	0	0	0	502	613
0	0	0	0	0	502	614
1	0	0	0	0	502	612
2	0	0	0	0	503	614
3	0	0	0	0	503	614
4	0	0	0	0	503	615
5	0	0	0	0	503	614
6	0	0	0	0	503	614
7	0	0	0	0	502	615
8	0	0	0	0	502	614
9	0	0	0	0	503	614
10	0	0	0	0	504	615
11	0	0	0	0	504	614
12	0	0	0	0	503	615
13	0	0	0	0	503	615
14	0	0	0	0	503	615
15	0	0	0	0	503	615
0	0	0	0	0	504	615
1	0	0	0	0	504	613
2	0	0	0	0	504	614
3	0	0	0	0	504	615
4	0	0	0	0	504	614
5	0	0	0	0	504	614
6	0	0	0	0	505	615
7	0	0	0	0	505	615
8	0	0	0	0	505	615
9	0	0	0	0	505	613
10	0	0	0	0	506	614
11	0	0	0	0	506	614
12	0	0	0	0	506	613
13	0	0	0	0	506	613
14	0	0	0	0	506	613
15	0	0	0	0	506	613
0	0	0	0	0	505	613
1	0	0	0	0	505	612
2	0	0	0	0	506	613
3	0	0	0	0	505	613
4	0	0	0	0	505	613
5	0	0	0	0	504	613
6	0	0	0	0	504	613
7	0	0	0	0	504	613
8	0	0	0	0	504	612
9	0	0	0	0	504	612
10	0	0	0	0	504	612
11	0	0	0	0	504	612
12	0	0	0	0	504	612
13	0	0	0	0	504	613
14	0	0	0	0	504	614
15	0	0	0	0	504	613
0	0	0	0	0	504	612
1	0	0	0	0	504	612
2	0	0	0	0	504	613
3	0	0	0	0	504	613
4	0	0	0	0	504	612
5	0	0	0	0	504	613
6	0	0	0	0	505	613
7	0	0	0	0	505	614
8	0	0	0	0	505	614
9	0	0	0	0	505	613
10	0	0	0	0	505	614
11	0	0	0	0	506	614
12	0	0	0	0	506	614
13	0	0	0	0	507	614
14	0	0	0	0	507	614
15	0	0	0	0	507	614
0	0	0	0	0	507	614
1	0	0	0	0	507	613
2	0	0	0	0	507	614
3	0	0	0	0	507	614
4	0	0	0	0	507	614
5	0	0	0	0	507	614
6	0	0	0	0	507	614
7	0	0	0	0	507	614
8	0	0	0	0	507	615
9	0	0	0	0	507	613
10	0	0	0	0	507	614
11	0	0	0	0	506	614
12	0	0	0	0	507	614
13	0	0	0	0	506	615
14	0	0	0	0	506	615
15	0	0	0	0	506	615
0	0	0	0	0	506	615
1	0	0	0	0	506	615
2	0	0	0	0	506	615
3	0	0	0	0	506	615
4	0	0	0	0	506	616
5	0	0	0	0	507	616
6	0	0	0	0	507	616
7	0	0	0	0	507	615
8	0	0	0	0	507	616
9	0	0	0	0	508	615
10	0	0	0	0	508	616
11	0	0	0	0	508	616
12	0	0	0	0	508	616
13	0	0	0	0	508	616
14	0	0	0	0	508	615
15	0	0	0	0	508	616
0	0	0	0	0	508	616
1	0	0	0	0	508	615
2	0	0	0	0	508	615
3	0	0	0	0	508	615
4	0	0	0	0	508	615
5	0	0	0	0	508	615
6	0	0	0	0	508	615
7	0	0	0	0	508	615
8	0	0	0	0	509	616
9	0	0	0	0	508	614
10	0	0	0	0	508	615
11	0	0	0	0	508	614
12	0	0	0	0	508	615
13	0	0	0	0	508	614
14	0	0	0	0	508	614
15	0	0	0	0	508	614
0	0	0	0	0	508	614
1	0	0	0	0	508	613
2	0	0	0	0	508	614
3	0	0	0	0	507	614
4	0	0	0	0	507	614
5	0	0	0	0	507	614
6	0	0	0	0	507	614
7	0	0	0	0	507	614
8	0	0	0	0	507	614
9	0	0	0	0	507	613
10	0	0	0	0	507	613
11	0	0	0	0	507	613
12	0	0	0	0	508	614
13	0	0	0	0	508	614
14	0	0	0	0	507	613
15	0	0	0	0	507	614
0	0	0	0	0	506	613
1	0	0	0	0	507	612
2	0	0	0	0	507	613
3	0	0	0	0	507	614
4	0	0	0	0	506	613
5	0	0	0	0	506	613
6	0	0	0	0	507	613
7	0	0	0	0	507	613
8	0	0	0	0	507	613
9	0	0	0	0	507	612
10	0	0	0	0	507	613
11	0	0	0	0	506	612
12	0	0	0	0	507	612
13	0	0	0	0	507	614
14	0	0	0	0	507	613
15	0	0	0	0	507	614
0	0	0	0	0	508	614
1	0	0	0	0	508	613
2	0	0	0	0	508	614
3	0	0	0	0	508	614
4	0	0	0	0	508	614
5	0	0	0	0	508	614
6	0	0	0	0	508	614
7	0	0	0	0	509	614
8	0	0	0	0	509	614
9	0	0	0	0	508	613
10	0	0	0	0	509	614
11	0	0	0	0	508	614
12	0	0	0	0	509	614
13	0	0	0	0	508	614
14	0	0	0	0	508	614
15	0	0	0	0	508	615
0	0	0	0	0	509	615
1	0	0	0	0	509	613
2	0	0	0	0	509	614
3	0	0	0	0	508	614
4	0	0	0	0	509	614
5	0	0	0	0	510	614
6	0	0	0	0	509	614
7	0	0	0	0	510	614
8	0	0	0	0	510	614
9	0	0	0	0	511	614
10	0	0	0	0	511	614
11	0	0	0	0	511	614
12	0	0	0	0	511	614
13	0	0	0	0	511	613
14	0	0	0	0	511	613
15	0	0	0	0	510	612
0	0	0	0	0	510	613
1	0	0	0	0	510	612
2	0	0	0	0	510	613
3	0	0	0	0	510	613
4	0	0	0	0	510	613
5	0	0	0	0	510	613
6	0	0	0	0	510	613
7	0	0	0	0	510	613
8	0	0	0	0	510	613
9	0	0	0	0	509	612
10	0	0	0	0	510	613
11	0	0	0	0	509	614
12	0	0	0	0	509	612
13	0	0	0	0	509	613
14	0	0	0	0	509	612
15	0	0	0	0	510	613
0	0	0	0	0	510	613
1	0	0	0	0	510	613
2	0	0	0	0	511	614
3	0	0	0	0	511	613
4	0	0	0	0	511	614
5	0	0	0	0	511	614
6	0	0	0	0	510	614
7	0	0	0	0	510	614
8	0	0	0	0	511	614
9	0	0	0	0	511	614
10	0	0	0	0	511	615
11	0	0	0	0	510	615
12	0	0	0	0	511	615
13	0	0	0	0	510	615
14	0	0	0	0	510	615
15	0	0	0	0	510	615
0	0	0	0	0	510	615
1	0	0	0	0	510	615
2	0	0	0	0	510	615
3	0	0	0	0	511	616
4	0	0	0	0	510	615
5	0	0	0	0	510	616
6	0	0	0	0	510	615
7	0	0	0	0	510	616
8	0	0	0	0	510	616
9	0	0	0	0	510	615
10	0	0	0	0	510	615
11	0	0	0	0	510	616
12	0	0	0	0	510	616
13	0	0	0	0	509	616
14	0	0	0	0	510	616
15	0	0	0	0	510	615
0	0	0	0	0	510	615
1	0	0	0	0	509	615
2	0	0	0	0	510	616
3	0	0	0	0	510	615
4	0	0	0	0	510	615
5	0	0	0	0	510	616
6	0	0	0	0	510	615
7	0	0	0	0	510	615
8	0	0	0	0	509	616
9	0	0	0	0	509	615
10	0	0	0	0	509	616
11	0	0	0	0	509	616
12	0	0	0	0	509	616
13	0	0	0	0	510	610
14	0	0	0	0	510	615
15	0	0	0	0	510	615
0	0	0	0	0	509	615
1	0	0	0	0	508	619
2	0	0	0	0	509	615
3	0	0	0	0	509	615
4	0	0	0	0	509	615
5	0	0	0	0	509	610
6	0	0	0	0	508	614
7	0	0	0	0	509	614
8	0	0	0	0	508	614
9	0	0	0	0	509	618
10	0	0	0	0	508	614
11	0	0	0	0	509	614
12	0	0	0	0	508	613
13	0	0	0	0	508	608
14	0	0	0	0	508	613
15	0	0	0	0	508	614
0	0	0	0	0	509	613
1	0	0	0	0	508	617
2	0	0	0	0	508	614
3	0	0	0	0	508	614
4	0	0	0	0	508	613
5	0	0	0	0	508	608
6	0	0	0	0	508	613
7	0	0	0	0	507	613
8	0	0	0	0	507	614
9	0	0	0	0	508	617
10	0	0	0	0	508	613
11	0	0	0	0	507	613
12	0	0	0	0	507	613
13	0	0	0	0	507	609
14	0	0	0	0	507	614
15	0	0	0	0	507	613
0	0	0	0	0	508	614
1	0	0	0	0	508	618
2	0	0	0	0	508	615
3	0	0	0	0	508	614
4	0	0	0	0	508	614
5	0	0	0	0	508	609
6	0	0	0	0	507	615
7	0	0	0	0	507	615
8	0	0	0	0	507	615
9	0	0	0	0	507	619
10	0	0	0	0	508	614
11	0	0	0	0	507	614
12	0	0	0	0	508	614
13	0	0	0	0	508	610
14	0	0	0	0	508	614
15	0	0	0	0	508	614
0	0	0	0	0	508	614
1	0	0	0	0	508	618
2	0	0	0	0	508	614
3	0	0	0	0	508	614
4	0	0	0	0	508	614
5	0	0	0	0	507	609
6	0	0	0	0	508	614
7	0	0	0	0	508	614
8	0	0	0	0	508	614
9	0	0	0	0	508	617
10	0	0	0	0	508	613
11	0	0	0	0	509	614
12	0	0	0	0	509	614
13	0	0	0	0	509	609
14	0	0	0	0	509	613
15	0	0	0	0	509	614
0	0	0	0	0	509	614
1	0	0	0	0	509	617
2	0	0	0	0	509	613
3	0	0	0	0	509	613
4	0	0	0	0	510	614
5	0	0	0	0	510	609
6	0	0	0	0	510	614
7	0	0	0	0	511	613
8	0	0	0	0	510	614
9	0	0	0	0	511	618
10	0	0	0	0	511	614
11	0	0	0	0	511	614
12	0	0	0	0	511	614
13	0	0	0	0	510	609
14	0	0	0	0	510	613
15	0	0	0	0	510	613
0	0	0	0	0	510	614
1	0	0	0	0	510	618
2	0	0	0	0	511	614
3	0	0	0	0	510	614
4	0	0	0	0	510	615
5	0	0	0	0	510	609
6	0	0	0	0	510	615
7	0	0	0	0	511	615
8	0	0	0	0	511	615
9	0	0	0	0	511	619
10	0	0	0	0	512	615
11	0	0	0	0	512	615
12	0	0	0	0	513	615
13	0	0	0	0	513	610
14	0	0	0	0	513	615
15	0	0	0	0	514	615
0	0	0	0	0	514	615
1	0	0	0	0	514	619
2	0	0	0	0	514	615
3	0	0	0	0	515	615
4	0	0	0	0	514	615
5	0	0	0	0	513	611
6	0	0	0	0	513	615
7	0	0	0	0	513	615
8	0	0	0	0	514	616
9	0	0	0	0	514	620
10	0	0	0	0	515	615
11	0	0	0	0	515	615
12	0	0	0	0	515	615
13	0	0	0	0	515	610
14	0	0	0	0	515	615
15	0	0	0	0	515	615
0	0	0	0	0	516	615
1	0	0	0	0	516	618
2	0	0	0	0	516	615
3	0	0	0	0	515	615
4	0	0	0	0	515	615
5	0	0	0	0	514	610
6	0	0	0	0	513	615
7	0	0	0	0	512	615
8	0	0	0	0	511	615
9	0	0	0	0	510	619
10	0	0	0	0	509	615
11	0	0	0	0	507	615
12	0	0	0	0	506	615
13	0	0	0	0	505	610
14	0	0	0	0	504	615
15	0	0	0	0	504	615
0	0	0	0	0	504	615
1	0	0	0	0	504	619
2	0	0	0	0	504	615
3	0	0	0	0	504	615
4	0	0	0	0	503	614
5	0	0	0	0	503	610
6	0	0	0	0	502	615
7	0	0	0	0	502	614
8	0	0	0	0	503	614
9	0	0	0	0	503	618
10	0	0	0	0	504	615
11	0	0	0	0	504	614
12	0	0	0	0	504	614
13	0	0	0	0	503	609
14	0	0	0	0	502	614
15	0	0	0	0	502	614
0	0	0	0	0	503	614
1	0	0	0	0	502	618
2	0	0	0	0	503	614
3	0	0	0	0	502	614
4	0	0	0	0	502	613
5	0	0	0	0	502	608
6	0	0	0	0	502	613
7	0	0	0	0	502	613
8	0	0	0	0	502	614
9	0	0	0	0	502	617
10	0	0	0	0	502	614
11	0	0	0	0	502	614
12	0	0	0	0	503	613
13	0	0	0	0	503	608
14	0	0	0	0	503	613
15	0	0	0	0	504	613
0	0	0	0	0	504	613
1	0	0	0	0	504	617
2	0	0	0	0	504	612
3	0	0	0	0	504	612
4	0	0	0	0	506	612
5	0	0	0	0	506	607
6	0	0	0	0	507	612
7	0	0	0	0	508	612
8	0	0	0	0	508	612
9	0	0	0	0	508	616
10	0	0	0	0	509	612
11	0	0	0	0	509	613
12	0	0	0	0	508	612
13	0	0	0	0	508	608
14	0	0	0	0	509	612
15	0	0	0	0	509	613
0	0	0	0	0	509	613
1	0	0	0	0	509	617
2	0	0	0	0	510	612
3	0	0	0	0	510	613
4	0	0	0	0	511	612
5	0	0	0	0	511	608
6	0	0	0	0	511	613
7	0	0	0	0	511	612
8	0	0	0	0	512	612
9	0	0	0	0	512	617
10	0	0	0	0	512	612
11	0	0	0	0	513	613
12	0	0	0	0	512	612
13	0	0	0	0	512	608
14	0	0	0	0	513	613
15	0	0	0	0	512	613
0	0	0	0	0	512	613
1	0	0	0	0	512	617
2	0	0	0	0	512	614
3	0	0	0	0	511	614
4	0	0	0	0	512	614
5	0	0	0	0	511	609
6	0	0	0	0	511	613
7	0	0	0	0	511	614
8	0	0	0	0	512	614
9	0	0	0	0	512	619
10	0	0	0	0	512	614
11	0	0	0	0	511	614
12	0	0	0	0	511	614
13	0	0	0	0	511	609
14	0	0	0	0	511	615
15	0	0	0	0	511	615
0	0	0	0	0	511	615
1	0	0	0	0	511	619
2	0	0	0	0	511	615
3	0	0	0	0	511	615
4	0	0	0	0	511	616
5	0	0	0	0	511	611
6	0	0	0	0	511	615
7	0	0	0	0	511	615
8	0	0	0	0	511	616
9	0	0	0	0	512	620
10	0	0	0	0	512	616
11	0	0	0	0	513	616
12	0	0	0	0	515	616
13	0	0	0	0	518	612
14	0	0	0	0	522	617
15	0	0	0	0	527	616
0	0	0	0	0	533	617
1	0	0	0	0	540	621
2	0	0	0	0	546	617
3	0	0	0	0	552	617
4	0	0	0	0	559	616
5	0	0	0	0	568	612
6	0	0	0	0	577	616
7	0	0	0	0	588	616
8	0	0	0	0	598	616
9	0	0	0	0	611	620
10	0	0	0	0	622	616
11	0	0	0	0	632	616
12	0	0	0	0	638	616
13	0	0	0	0	642	611
14	0	0	0	0	648	615
15	0	0	0	0	654	617
0	0	0	0	0	655	616
1	0	0	0	0	650	620
2	0	0	0	0	639	615
3	0	0	0	0	625	616
4	0	0	0	0	604	616
5	0	0	0	0	577	611
6	0	0	0	0	546	615
7	0	0	0	0	512	615
8	0	0	0	0	472	616
9	0	0	0	0	425	619
10	0	0	0	0	374	615
11	0	0	0	0	316	615
12	0	0	0	0	252	615
13	0	0	0	0	181	610
14	0	0	0	0	108	615
15	0	0	0	0	36	615
0	0	0	0	0	0	614
1	0	0	0	0	0	618
2	0	0	0	0	0	615
3	0	0	0	0	0	615
4	0	0	0	0	0	615
5	0	0	0	0	0	609
6	0	0	0	0	0	614
7	0	0	0	0	0	614
8	0	0	0	0	0	614
9	0	0	0	0	0	617
10	0	0	0	0	0	614
11	0	0	0	0	0	614
12	0	0	0	0	0	613
13	0	0	0	0	0	608
14	0	0	0	0	0	612
15	0	0	0	0	0	613
0	0	0	0	0	0	613
1	0	0	0	0	0	617
2	0	0	0	0	0	614
3	0	0	0	0	0	613
4	0	0	0	0	0	613
5	0	0	0	0	0	608
6	0	0	0	0	0	613
7	0	0	0	0	0	614
8	0	0	0	0	0	613
9	0	0	0	0	53	618
10	0	0	0	0	151	614
11	0	0	0	0	254	613
12	0	0	0	0	344	613
13	0	0	0	0	417	608
14	0	0	0	0	473	613
15	0	0	0	0	519	613
0	0	0	0	0	555	613
1	0	0	0	0	583	617
2	0	0	0	0	607	612
3	0	0	0	0	628	612
4	0	0	0	0	646	612
5	0	0	0	0	661	608
6	0	0	0	0	673	612
7	0	0	0	0	684	612
8	0	0	0	0	693	612
9	0	0	0	0	703	616
10	0	0	0	0	711	611
11	0	0	0	0	718	611
12	0	0	0	0	724	611
13	0	0	0	0	730	607
14	0	0	0	0	734	613
15	0	0	0	0	738	612
0	0	0	0	0	741	613
1	0	0	0	0	744	616
2	0	0	0	0	746	613
3	0	0	0	0	748	613
4	0	0	0	0	750	612
5	0	0	0	0	752	608
6	0	0	0	0	752	613
7	0	0	0	0	753	613
8	0	0	0	0	754	612
9	0	0	0	0	755	617
10	0	0	0	0	755	613
11	0	0	0	0	755	612
12	0	0	0	0	756	612
13	0	0	0	0	756	609
14	0	0	0	0	755	613
15	0	0	0	0	755	613
0	0	0	0	0	755	614
1	0	0	0	0	754	617
2	0	0	0	0	753	612
3	0	0	0	0	752	612
4	0	0	0	0	751	613
5	0	0	0	0	749	609
6	0	0	0	0	749	614
7	0	0	0	0	747	613
8	0	0	0	0	745	614
9	0	0	0	0	744	617
10	0	0	0	0	743	614
11	0	0	0	0	740	614
12	0	0	0	0	739	613
13	0	0	0	0	738	609
14	0	0	0	0	736	614
15	0	0	0	0	735	614
0	0	0	0	0	733	614
1	0	0	0	0	731	617
2	0	0	0	0	729	614
3	0	0	0	0	727	614
4	0	0	0	0	726	615
5	0	0	0	0	724	609
6	0	0	0	0	722	614
7	0	0	0	0	720	615
8	0	0	0	0	719	615
9	0	0	0	0	717	619
10	0	0	0	0	716	615
11	0	0	0	0	713	615
12	0	0	0	0	712	615
13	0	0	0	0	710	611
14	0	0	0	0	708	616
15	0	0	0	0	707	616
0	0	0	0	0	705	616
1	0	0	0	0	702	620
2	0	0	0	0	701	616
3	0	0	0	0	699	615
4	0	0	0	0	697	616
5	0	0	0	0	696	612
6	0	0	0	0	694	617
7	0	0	0	0	693	617
8	0	0	0	0	691	617
9	0	0	0	0	689	622
10	0	0	0	0	688	617
11	0	0	0	0	686	617
12	0	0	0	0	684	617
13	0	0	0	0	682	613
14	0	0	0	0	680	617
15	0	0	0	0	679	617
0	0	0	0	0	678	617
1	0	0	0	0	676	621
2	0	0	0	0	675	616
3	0	0	0	0	674	617
4	0	0	0	0	671	617
5	0	0	0	0	671	611
6	0	0	0	0	669	616
7	0	0	0	0	667	616
8	0	0	0	0	665	617
9	0	0	0	0	664	620
10	0	0	0	0	662	616
11	0	0	0	0	661	616
12	0	0	0	0	659	616
13	0	0	0	0	658	611
14	0	0	0	0	656	616
15	0	0	0	0	654	616
0	0	0	0	0	653	615
1	0	0	0	0	652	620
2	0	0	0	0	650	615
3	0	0	0	0	648	614
4	0	0	0	0	648	614
5	0	0	0	0	647	610
6	0	0	0	0	646	614
7	0	0	0	0	645	615
8	0	0	0	0	643	615
9	0	0	0	0	641	618
10	0	0	0	0	641	614
11	0	0	0	0	639	615
12	0	0	0	0	638	613
13	0	0	0	0	637	608
14	0	0	0	0	635	613
15	0	0	0	0	634	613
0	0	0	0	0	633	614
1	0	0	0	0	631	618
2	0	0	0	0	630	614
3	0	0	0	0	628	613
4	0	0	0	0	627	613
5	0	0	0	0	625	609
6	0	0	0	0	625	613
7	0	0	0	0	623	613
8	0	0	0	0	622	612
9	0	0	0	0	621	617
10	0	0	0	0	619	613
11	0	0	0	0	617	613
12	0	0	0	0	616	613
13	0	0	0	0	615	608
14	0	0	0	0	615	613
15	0	0	0	0	614	613
0	0	0	0	0	614	613
1	0	0	0	0	613	616
2	0	0	0	0	612	613
3	0	0	0	0	611	613
4	0	0	0	0	609	612
5	0	0	0	0	608	608
6	0	0	0	0	608	613
7	0	0	0	0	607	613
8	0	0	0	0	606	614
9	0	0	0	0	604	618
10	0	0	0	0	604	614
11	0	0	0	0	602	614
12	0	0	0	0	601	614
13	0	0	0	0	601	609
14	0	0	0	0	600	615
15	0	0	0	0	600	615
0	0	0	0	0	599	614
1	0	0	0	0	599	618
2	0	0	0	0	599	615
3	0	0	0	0	598	614
4	0	0	0	0	598	614
5	0	0	0	0	597	609
6	0	0	0	0	596	615
7	0	0	0	0	596	615
8	0	0	0	0	595	615
9	0	0	0	0	595	619
10	0	0	0	0	595	615
