# OpenSignals Text File Format
# {"98:D3:91:FD:58:3A":{"sensor":["ECGBIT","ACCBITREV"],"device name":"98:D3:91:FD:58:3A","column":["nSeq","I1","I2","O1","O2","A2","A5"],"sync interval":2,"time":"19:33:25","comments":"","device connection":"BTH98:D3:91:FD:58:3A","channels":[2,5],"date":"2021-09-09","mode":0,"digital IO":[0,0,1,1],"firmware version":0,"device":"bitalino_rev","position":0,"sampling rate":1000,"label":["A2","A5"],"resolution":[10,10],"special":[{},{}]}}
# EndOfHeader
0	0	0	0	0	457	615
1	0	0	0	0	454	615
2	0	0	0	0	451	615
3	0	0	0	0	451	615
4	0	0	0	0	450	615
5	0	0	0	0	450	615
6	0	0	0	0	450	615
7	0	0	0	0	450	615
8	0	0	0	0	449	615
9	0	0	0	0	448	615
10	0	0	0	0	447	615
11	0	0	0	0	446	615
12	0	0	0	0	445	615
13	0	0	0	0	443	614
14	0	0	0	0	441	614
15	0	0	0	0	441	615
0	0	0	0	0	440	615
1	0	0	0	0	440	614
2	0	0	0	0	441	614
3	0	0	0	0	443	614
4	0	0	0	0	444	615
5	0	0	0	0	446	615
6	0	0	0	0	447	614
7	0	0	0	0	448	615
8	0	0	0	0	449	615
9	0	0	0	0	451	615
10	0	0	0	0	452	615
11	0	0	0	0	452	615
12	0	0	0	0	453	615
13	0	0	0	0	453	615
14	0	0	0	0	454	615
15	0	0	0	0	456	615
0	0	0	0	0	457	615
1	0	0	0	0	459	615
2	0	0	0	0	461	615
3	0	0	0	0	461	615
4	0	0	0	0	461	615
5	0	0	0	0	460	615
6	0	0	0	0	460	615
7	0	0	0	0	460	615
8	0	0	0	0	459	617
9	0	0	0	0	460	615
10	0	0	0	0	462	615
11	0	0	0	0	463	616
12	0	0	0	0	465	615
13	0	0	0	0	465	616
14	0	0	0	0	465	615
15	0	0	0	0	465	615
0	0	0	0	0	466	616
1	0	0	0	0	466	615
2	0	0	0	0	467	615
3	0	0	0	0	467	615
4	0	0	0	0	466	615
5	0	0	0	0	465	615
6	0	0	0	0	464	615
7	0	0	0	0	463	615
8	0	0	0	0	462	615
9	0	0	0	0	461	615
10	0	0	0	0	462	615
11	0	0	0	0	464	616
12	0	0	0	0	466	615
13	0	0	0	0	467	615
14	0	0	0	0	470	614
15	0	0	0	0	472	615
0	0	0	0	0	473	615
1	0	0	0	0	476	615
2	0	0	0	0	480	615
3	0	0	0	0	483	615
4	0	0	0	0	487	615
5	0	0	0	0	487	614
6	0	0	0	0	487	615
7	0	0	0	0	487	614
8	0	0	0	0	487	615
9	0	0	0	0	486	614
10	0	0	0	0	487	614
11	0	0	0	0	487	615
12	0	0	0	0	486	615
13	0	0	0	0	485	615
14	0	0	0	0	484	615
15	0	0	0	0	484	615
0	0	0	0	0	484	615
1	0	0	0	0	486	615
2	0	0	0	0	487	615
3	0	0	0	0	488	615
4	0	0	0	0	489	615
5	0	0	0	0	491	616
6	0	0	0	0	492	615
7	0	0	0	0	493	616
8	0	0	0	0	494	616
9	0	0	0	0	495	616
10	0	0	0	0	496	616
11	0	0	0	0	497	616
12	0	0	0	0	497	616
13	0	0	0	0	497	617
14	0	0	0	0	497	617
15	0	0	0	0	496	618
0	0	0	0	0	494	618
1	0	0	0	0	493	617
2	0	0	0	0	492	617
3	0	0	0	0	491	618
4	0	0	0	0	490	617
5	0	0	0	0	490	618
6	0	0	0	0	489	618
7	0	0	0	0	489	618
8	0	0	0	0	489	620
9	0	0	0	0	489	619
10	0	0	0	0	490	619
11	0	0	0	0	493	619
12	0	0	0	0	495	620
13	0	0	0	0	496	619
14	0	0	0	0	497	620
15	0	0	0	0	497	620
0	0	0	0	0	498	620
1	0	0	0	0	497	620
2	0	0	0	0	498	620
3	0	0	0	0	498	620
4	0	0	0	0	499	620
5	0	0	0	0	499	620
6	0	0	0	0	499	620
7	0	0	0	0	499	620
8	0	0	0	0	499	620
9	0	0	0	0	501	619
10	0	0	0	0	503	620
11	0	0	0	0	505	620
12	0	0	0	0	505	620
13	0	0	0	0	505	620
14	0	0	0	0	505	620
15	0	0	0	0	505	620
0	0	0	0	0	504	621
1	0	0	0	0	504	620
2	0	0	0	0	504	620
3	0	0	0	0	504	620
4	0	0	0	0	502	619
5	0	0	0	0	501	620
6	0	0	0	0	499	619
7	0	0	0	0	499	619
8	0	0	0	0	499	619
9	0	0	0	0	500	618
10	0	0	0	0	501	618
11	0	0	0	0	502	617
12	0	0	0	0	502	618
13	0	0	0	0	501	617
14	0	0	0	0	502	617
15	0	0	0	0	504	617
0	0	0	0	0	506	618
1	0	0	0	0	508	617
2	0	0	0	0	510	617
3	0	0	0	0	512	617
4	0	0	0	0	516	617
5	0	0	0	0	519	617
6	0	0	0	0	521	617
7	0	0	0	0	522	617
8	0	0	0	0	523	617
9	0	0	0	0	523	617
10	0	0	0	0	523	616
11	0	0	0	0	524	616
12	0	0	0	0	524	615
13	0	0	0	0	523	615
14	0	0	0	0	523	615
15	0	0	0	0	522	615
0	0	0	0	0	523	616
1	0	0	0	0	522	615
2	0	0	0	0	522	615
3	0	0	0	0	522	615
4	0	0	0	0	522	615
5	0	0	0	0	521	615
6	0	0	0	0	523	614
7	0	0	0	0	523	614
8	0	0	0	0	524	615
9	0	0	0	0	524	614
10	0	0	0	0	525	614
11	0	0	0	0	525	614
12	0	0	0	0	525	614
13	0	0	0	0	524	614
14	0	0	0	0	523	614
15	0	0	0	0	522	613
0	0	0	0	0	521	614
1	0	0	0	0	519	613
2	0	0	0	0	519	614
3	0	0	0	0	518	614
4	0	0	0	0	518	614
5	0	0	0	0	518	613
6	0	0	0	0	518	614
7	0	0	0	0	517	613
8	0	0	0	0	516	614
9	0	0	0	0	516	614
10	0	0	0	0	516	614
11	0	0	0	0	516	614
12	0	0	0	0	517	615
13	0	0	0	0	517	615
14	0	0	0	0	518	615
15	0	0	0	0	518	615
0	0	0	0	0	519	616
1	0	0	0	0	518	616
2	0	0	0	0	519	616
3	0	0	0	0	520	616
4	0	0	0	0	521	616
5	0	0	0	0	522	617
6	0	0	0	0	522	616
7	0	0	0	0	523	616
8	0	0	0	0	523	617
9	0	0	0	0	523	616
10	0	0	0	0	523	617
11	0	0	0	0	524	617
12	0	0	0	0	524	617
13	0	0	0	0	524	617
14	0	0	0	0	524	618
15	0	0	0	0	523	618
0	0	0	0	0	522	617
1	0	0	0	0	521	617
2	0	0	0	0	519	617
3	0	0	0	0	519	617
4	0	0	0	0	519	618
5	0	0	0	0	518	618
6	0	0	0	0	519	618
7	0	0	0	0	518	618
8	0	0	0	0	516	619
9	0	0	0	0	515	618
10	0	0	0	0	515	618
11	0	0	0	0	514	618
12	0	0	0	0	514	618
13	0	0	0	0	515	618
14	0	0	0	0	516	619
15	0	0	0	0	519	619
0	0	0	0	0	519	619
1	0	0	0	0	521	618
2	0	0	0	0	523	618
3	0	0	0	0	525	618
4	0	0	0	0	526	619
5	0	0	0	0	527	619
6	0	0	0	0	529	618
7	0	0	0	0	533	618
8	0	0	0	0	536	619
9	0	0	0	0	538	618
10	0	0	0	0	539	618
11	0	0	0	0	540	618
12	0	0	0	0	542	618
13	0	0	0	0	541	618
14	0	0	0	0	541	618
15	0	0	0	0	541	617
0	0	0	0	0	540	618
1	0	0	0	0	538	617
2	0	0	0	0	536	617
3	0	0	0	0	534	618
4	0	0	0	0	534	618
5	0	0	0	0	534	618
6	0	0	0	0	534	618
7	0	0	0	0	534	618
8	0	0	0	0	532	619
9	0	0	0	0	532	618
10	0	0	0	0	531	618
11	0	0	0	0	531	618
12	0	0	0	0	530	618
13	0	0	0	0	529	617
14	0	0	0	0	529	618
15	0	0	0	0	529	617
0	0	0	0	0	527	618
1	0	0	0	0	527	617
2	0	0	0	0	527	618
3	0	0	0	0	526	617
4	0	0	0	0	526	617
5	0	0	0	0	525	617
6	0	0	0	0	524	617
7	0	0	0	0	524	617
8	0	0	0	0	523	617
9	0	0	0	0	523	617
10	0	0	0	0	522	616
11	0	0	0	0	522	617
12	0	0	0	0	521	616
13	0	0	0	0	520	616
14	0	0	0	0	520	616
15	0	0	0	0	521	615
0	0	0	0	0	521	616
1	0	0	0	0	521	616
2	0	0	0	0	521	615
3	0	0	0	0	520	615
4	0	0	0	0	521	615
5	0	0	0	0	522	615
6	0	0	0	0	522	615
7	0	0	0	0	521	615
8	0	0	0	0	521	616
9	0	0	0	0	521	615
10	0	0	0	0	521	615
11	0	0	0	0	522	615
12	0	0	0	0	522	615
13	0	0	0	0	524	615
14	0	0	0	0	525	615
15	0	0	0	0	526	615
0	0	0	0	0	528	615
1	0	0	0	0	529	615
2	0	0	0	0	529	615
3	0	0	0	0	529	615
4	0	0	0	0	530	615
5	0	0	0	0	530	615
6	0	0	0	0	529	615
7	0	0	0	0	528	615
8	0	0	0	0	528	615
9	0	0	0	0	528	615
10	0	0	0	0	526	615
11	0	0	0	0	526	615
12	0	0	0	0	526	615
13	0	0	0	0	526	615
14	0	0	0	0	525	615
15	0	0	0	0	525	615
0	0	0	0	0	525	615
1	0	0	0	0	525	615
2	0	0	0	0	525	615
3	0	0	0	0	526	616
4	0	0	0	0	526	615
5	0	0	0	0	526	615
6	0	0	0	0	525	615
7	0	0	0	0	524	615
8	0	0	0	0	525	616
9	0	0	0	0	527	615
10	0	0	0	0	530	615
11	0	0	0	0	531	615
12	0	0	0	0	532	615
13	0	0	0	0	535	615
14	0	0	0	0	536	615
15	0	0	0	0	536	615
0	0	0	0	0	537	616
1	0	0	0	0	538	615
2	0	0	0	0	539	616
3	0	0	0	0	540	616
4	0	0	0	0	541	615
5	0	0	0	0	541	616
6	0	0	0	0	541	616
7	0	0	0	0	541	615
8	0	0	0	0	540	616
9	0	0	0	0	540	616
10	0	0	0	0	538	615
11	0	0	0	0	536	616
12	0	0	0	0	533	616
13	0	0	0	0	530	616
14	0	0	0	0	527	616
15	0	0	0	0	524	616
0	0	0	0	0	523	617
1	0	0	0	0	522	616
2	0	0	0	0	523	616
3	0	0	0	0	524	616
4	0	0	0	0	526	616
5	0	0	0	0	526	616
6	0	0	0	0	528	616
7	0	0	0	0	530	616
8	0	0	0	0	532	616
9	0	0	0	0	532	616
10	0	0	0	0	533	616
11	0	0	0	0	534	615
12	0	0	0	0	533	616
13	0	0	0	0	532	616
14	0	0	0	0	531	616
15	0	0	0	0	530	616
0	0	0	0	0	529	617
1	0	0	0	0	529	616
2	0	0	0	0	530	616
3	0	0	0	0	530	617
4	0	0	0	0	529	616
5	0	0	0	0	529	616
6	0	0	0	0	528	616
7	0	0	0	0	527	616
8	0	0	0	0	526	617
9	0	0	0	0	525	616
10	0	0	0	0	524	616
11	0	0	0	0	523	616
12	0	0	0	0	523	616
13	0	0	0	0	524	617
14	0	0	0	0	526	616
15	0	0	0	0	527	616
0	0	0	0	0	527	617
1	0	0	0	0	526	616
2	0	0	0	0	526	617
3	0	0	0	0	525	616
4	0	0	0	0	525	616
5	0	0	0	0	526	617
6	0	0	0	0	525	617
7	0	0	0	0	524	617
8	0	0	0	0	523	617
9	0	0	0	0	523	617
10	0	0	0	0	523	617
11	0	0	0	0	521	617
12	0	0	0	0	521	617
13	0	0	0	0	520	617
14	0	0	0	0	520	617
15	0	0	0	0	519	617
0	0	0	0	0	519	618
1	0	0	0	0	519	618
2	0	0	0	0	518	618
3	0	0	0	0	519	617
4	0	0	0	0	519	618
5	0	0	0	0	519	617
6	0	0	0	0	521	618
7	0	0	0	0	522	618
8	0	0	0	0	523	619
9	0	0	0	0	524	618
10	0	0	0	0	523	617
11	0	0	0	0	523	618
12	0	0	0	0	522	617
13	0	0	0	0	520	617
14	0	0	0	0	520	617
15	0	0	0	0	520	617
0	0	0	0	0	520	619
1	0	0	0	0	519	617
2	0	0	0	0	518	618
3	0	0	0	0	516	617
4	0	0	0	0	515	617
5	0	0	0	0	515	617
6	0	0	0	0	513	617
7	0	0	0	0	512	617
8	0	0	0	0	511	617
9	0	0	0	0	510	617
10	0	0	0	0	508	618
11	0	0	0	0	507	616
12	0	0	0	0	505	617
13	0	0	0	0	503	617
14	0	0	0	0	500	617
15	0	0	0	0	497	616
0	0	0	0	0	496	616
1	0	0	0	0	494	616
2	0	0	0	0	494	616
3	0	0	0	0	493	616
4	0	0	0	0	493	616
5	0	0	0	0	494	616
6	0	0	0	0	494	616
7	0	0	0	0	494	616
8	0	0	0	0	494	617
9	0	0	0	0	493	617
10	0	0	0	0	493	616
11	0	0	0	0	492	616
12	0	0	0	0	492	616
13	0	0	0	0	494	616
14	0	0	0	0	498	617
15	0	0	0	0	503	616
0	0	0	0	0	510	617
1	0	0	0	0	519	617
2	0	0	0	0	529	616
3	0	0	0	0	541	616
4	0	0	0	0	555	616
5	0	0	0	0	571	617
6	0	0	0	0	586	617
7	0	0	0	0	601	617
8	0	0	0	0	618	618
9	0	0	0	0	635	616
10	0	0	0	0	651	617
11	0	0	0	0	665	617
12	0	0	0	0	676	617
13	0	0	0	0	684	617
14	0	0	0	0	687	617
15	0	0	0	0	686	617
0	0	0	0	0	683	619
1	0	0	0	0	677	617
2	0	0	0	0	671	618
3	0	0	0	0	663	618
4	0	0	0	0	654	618
5	0	0	0	0	646	617
6	0	0	0	0	638	617
7	0	0	0	0	629	618
8	0	0	0	0	620	619
9	0	0	0	0	611	618
10	0	0	0	0	602	617
11	0	0	0	0	594	618
12	0	0	0	0	587	618
13	0	0	0	0	580	618
14	0	0	0	0	574	618
15	0	0	0	0	567	618
0	0	0	0	0	561	618
1	0	0	0	0	556	618
2	0	0	0	0	549	618
3	0	0	0	0	543	618
4	0	0	0	0	537	618
5	0	0	0	0	532	618
6	0	0	0	0	527	619
7	0	0	0	0	522	618
8	0	0	0	0	518	618
9	0	0	0	0	514	618
10	0	0	0	0	512	618
11	0	0	0	0	509	618
12	0	0	0	0	507	617
13	0	0	0	0	505	617
14	0	0	0	0	504	617
15	0	0	0	0	503	617
0	0	0	0	0	503	618
1	0	0	0	0	500	617
2	0	0	0	0	498	617
3	0	0	0	0	496	617
4	0	0	0	0	494	617
5	0	0	0	0	491	618
6	0	0	0	0	489	617
7	0	0	0	0	487	617
8	0	0	0	0	486	618
9	0	0	0	0	483	617
10	0	0	0	0	481	617
11	0	0	0	0	480	617
12	0	0	0	0	478	616
13	0	0	0	0	476	616
14	0	0	0	0	475	616
15	0	0	0	0	475	616
0	0	0	0	0	476	616
1	0	0	0	0	478	616
2	0	0	0	0	480	615
3	0	0	0	0	481	615
4	0	0	0	0	482	616
5	0	0	0	0	483	615
6	0	0	0	0	484	615
7	0	0	0	0	485	615
8	0	0	0	0	485	615
9	0	0	0	0	486	615
10	0	0	0	0	485	615
11	0	0	0	0	484	614
12	0	0	0	0	484	615
13	0	0	0	0	484	615
14	0	0	0	0	484	615
15	0	0	0	0	484	614
0	0	0	0	0	484	615
1	0	0	0	0	484	615
2	0	0	0	0	483	615
3	0	0	0	0	482	615
4	0	0	0	0	481	614
5	0	0	0	0	480	615
6	0	0	0	0	480	615
7	0	0	0	0	481	615
8	0	0	0	0	482	615
9	0	0	0	0	481	614
10	0	0	0	0	482	615
11	0	0	0	0	485	615
12	0	0	0	0	487	615
13	0	0	0	0	488	615
14	0	0	0	0	488	615
15	0	0	0	0	488	615
0	0	0	0	0	487	615
1	0	0	0	0	487	616
2	0	0	0	0	487	616
3	0	0	0	0	487	616
4	0	0	0	0	486	616
5	0	0	0	0	486	616
6	0	0	0	0	487	616
7	0	0	0	0	487	616
8	0	0	0	0	487	617
9	0	0	0	0	487	617
10	0	0	0	0	486	617
11	0	0	0	0	484	617
12	0	0	0	0	482	617
13	0	0	0	0	480	617
14	0	0	0	0	478	618
15	0	0	0	0	478	618
0	0	0	0	0	480	619
1	0	0	0	0	481	618
2	0	0	0	0	484	618
3	0	0	0	0	488	618
4	0	0	0	0	491	619
5	0	0	0	0	494	619
6	0	0	0	0	496	619
7	0	0	0	0	497	619
8	0	0	0	0	499	619
9	0	0	0	0	499	619
10	0	0	0	0	500	619
11	0	0	0	0	501	619
12	0	0	0	0	502	619
13	0	0	0	0	502	619
14	0	0	0	0	501	619
15	0	0	0	0	500	619
0	0	0	0	0	500	619
1	0	0	0	0	499	619
2	0	0	0	0	497	619
3	0	0	0	0	497	619
4	0	0	0	0	496	618
5	0	0	0	0	495	619
6	0	0	0	0	494	618
7	0	0	0	0	493	618
8	0	0	0	0	492	618
9	0	0	0	0	491	617
10	0	0	0	0	490	618
11	0	0	0	0	489	617
12	0	0	0	0	488	618
13	0	0	0	0	488	618
14	0	0	0	0	487	618
15	0	0	0	0	487	618
0	0	0	0	0	487	618
1	0	0	0	0	487	618
2	0	0	0	0	488	617
3	0	0	0	0	488	616
4	0	0	0	0	489	617
5	0	0	0	0	489	617
6	0	0	0	0	489	617
7	0	0	0	0	490	616
8	0	0	0	0	490	617
9	0	0	0	0	491	617
10	0	0	0	0	492	615
11	0	0	0	0	493	615
12	0	0	0	0	493	616
13	0	0	0	0	492	615
14	0	0	0	0	492	615
15	0	0	0	0	492	615
0	0	0	0	0	491	615
1	0	0	0	0	491	615
2	0	0	0	0	490	615
3	0	0	0	0	489	614
4	0	0	0	0	488	614
5	0	0	0	0	488	614
6	0	0	0	0	488	614
7	0	0	0	0	487	614
8	0	0	0	0	487	615
9	0	0	0	0	487	614
10	0	0	0	0	489	614
11	0	0	0	0	491	614
12	0	0	0	0	493	613
13	0	0	0	0	494	614
14	0	0	0	0	494	613
15	0	0	0	0	494	614
0	0	0	0	0	495	615
1	0	0	0	0	496	614
2	0	0	0	0	496	613
3	0	0	0	0	496	613
4	0	0	0	0	496	614
5	0	0	0	0	496	614
6	0	0	0	0	495	613
7	0	0	0	0	495	614
8	0	0	0	0	493	614
9	0	0	0	0	491	614
10	0	0	0	0	489	614
11	0	0	0	0	487	614
12	0	0	0	0	486	614
13	0	0	0	0	485	614
14	0	0	0	0	485	614
15	0	0	0	0	484	614
0	0	0	0	0	485	615
1	0	0	0	0	485	615
2	0	0	0	0	486	615
3	0	0	0	0	488	615
4	0	0	0	0	491	615
5	0	0	0	0	494	615
6	0	0	0	0	496	615
7	0	0	0	0	498	615
8	0	0	0	0	498	615
9	0	0	0	0	499	615
10	0	0	0	0	499	616
11	0	0	0	0	501	615
12	0	0	0	0	502	615
13	0	0	0	0	503	616
14	0	0	0	0	504	616
15	0	0	0	0	504	616
0	0	0	0	0	506	617
1	0	0	0	0	505	616
2	0	0	0	0	505	616
3	0	0	0	0	506	616
4	0	0	0	0	507	616
5	0	0	0	0	507	616
6	0	0	0	0	506	616
7	0	0	0	0	504	616
8	0	0	0	0	502	617
9	0	0	0	0	502	617
10	0	0	0	0	503	617
11	0	0	0	0	503	616
12	0	0	0	0	504	617
13	0	0	0	0	504	617
14	0	0	0	0	504	617
15	0	0	0	0	502	617
0	0	0	0	0	501	618
1	0	0	0	0	498	617
2	0	0	0	0	497	617
3	0	0	0	0	497	617
4	0	0	0	0	499	619
5	0	0	0	0	499	617
6	0	0	0	0	500	618
7	0	0	0	0	503	618
8	0	0	0	0	505	619
9	0	0	0	0	508	618
10	0	0	0	0	510	618
11	0	0	0	0	513	619
12	0	0	0	0	515	620
13	0	0	0	0	517	619
14	0	0	0	0	518	619
15	0	0	0	0	519	619
0	0	0	0	0	519	619
1	0	0	0	0	520	618
2	0	0	0	0	521	617
3	0	0	0	0	522	617
4	0	0	0	0	523	617
5	0	0	0	0	523	617
6	0	0	0	0	523	617
7	0	0	0	0	521	616
8	0	0	0	0	519	617
9	0	0	0	0	519	616
10	0	0	0	0	517	616
11	0	0	0	0	516	616
12	0	0	0	0	516	616
13	0	0	0	0	516	616
14	0	0	0	0	518	616
15	0	0	0	0	519	616
0	0	0	0	0	519	616
1	0	0	0	0	519	615
2	0	0	0	0	518	615
3	0	0	0	0	517	615
4	0	0	0	0	517	615
5	0	0	0	0	517	615
6	0	0	0	0	517	615
7	0	0	0	0	518	615
8	0	0	0	0	518	615
9	0	0	0	0	519	615
10	0	0	0	0	519	615
11	0	0	0	0	519	615
12	0	0	0	0	519	615
13	0	0	0	0	519	615
14	0	0	0	0	519	615
15	0	0	0	0	518	615
0	0	0	0	0	517	616
1	0	0	0	0	515	616
2	0	0	0	0	514	615
3	0	0	0	0	513	615
4	0	0	0	0	512	615
5	0	0	0	0	512	615
6	0	0	0	0	511	615
7	0	0	0	0	511	616
8	0	0	0	0	509	617
9	0	0	0	0	507	616
10	0	0	0	0	505	617
11	0	0	0	0	505	617
12	0	0	0	0	504	616
13	0	0	0	0	502	616
14	0	0	0	0	500	616
15	0	0	0	0	499	616
0	0	0	0	0	497	617
1	0	0	0	0	495	616
2	0	0	0	0	493	616
3	0	0	0	0	490	616
4	0	0	0	0	489	616
5	0	0	0	0	487	616
6	0	0	0	0	485	616
7	0	0	0	0	483	616
8	0	0	0	0	481	617
9	0	0	0	0	479	616
10	0	0	0	0	479	616
11	0	0	0	0	478	617
12	0	0	0	0	478	617
13	0	0	0	0	478	617
14	0	0	0	0	477	617
15	0	0	0	0	477	617
0	0	0	0	0	478	618
1	0	0	0	0	477	617
2	0	0	0	0	476	617
3	0	0	0	0	475	617
4	0	0	0	0	473	617
5	0	0	0	0	471	617
6	0	0	0	0	468	617
7	0	0	0	0	464	618
8	0	0	0	0	462	618
9	0	0	0	0	460	617
10	0	0	0	0	459	617
11	0	0	0	0	461	618
12	0	0	0	0	465	618
13	0	0	0	0	468	617
14	0	0	0	0	470	617
15	0	0	0	0	472	617
0	0	0	0	0	474	617
1	0	0	0	0	476	617
2	0	0	0	0	478	617
3	0	0	0	0	481	617
4	0	0	0	0	482	617
5	0	0	0	0	483	617
6	0	0	0	0	482	617
7	0	0	0	0	481	617
8	0	0	0	0	481	618
9	0	0	0	0	479	616
10	0	0	0	0	478	616
11	0	0	0	0	477	616
12	0	0	0	0	476	617
13	0	0	0	0	475	616
14	0	0	0	0	473	616
15	0	0	0	0	471	616
0	0	0	0	0	468	617
1	0	0	0	0	466	616
2	0	0	0	0	465	616
3	0	0	0	0	465	615
4	0	0	0	0	465	615
5	0	0	0	0	468	615
6	0	0	0	0	472	616
7	0	0	0	0	474	616
8	0	0	0	0	474	616
9	0	0	0	0	476	615
10	0	0	0	0	478	616
11	0	0	0	0	480	615
12	0	0	0	0	483	616
13	0	0	0	0	485	615
14	0	0	0	0	486	616
15	0	0	0	0	486	616
0	0	0	0	0	484	617
1	0	0	0	0	484	616
2	0	0	0	0	484	617
3	0	0	0	0	484	616
4	0	0	0	0	483	616
5	0	0	0	0	483	616
6	0	0	0	0	482	616
7	0	0	0	0	480	616
8	0	0	0	0	480	617
9	0	0	0	0	479	616
10	0	0	0	0	480	616
11	0	0	0	0	480	616
12	0	0	0	0	481	616
13	0	0	0	0	481	616
14	0	0	0	0	481	615
15	0	0	0	0	482	615
0	0	0	0	0	483	616
1	0	0	0	0	483	616
2	0	0	0	0	483	615
3	0	0	0	0	484	616
4	0	0	0	0	483	616
5	0	0	0	0	483	616
6	0	0	0	0	483	615
7	0	0	0	0	483	616
8	0	0	0	0	482	617
9	0	0	0	0	482	616
10	0	0	0	0	482	616
11	0	0	0	0	481	616
12	0	0	0	0	482	616
13	0	0	0	0	482	616
14	0	0	0	0	481	617
15	0	0	0	0	481	617
0	0	0	0	0	480	617
1	0	0	0	0	479	617
2	0	0	0	0	480	617
3	0	0	0	0	479	617
4	0	0	0	0	480	617
5	0	0	0	0	480	616
6	0	0	0	0	481	617
7	0	0	0	0	481	617
8	0	0	0	0	481	618
9	0	0	0	0	481	617
10	0	0	0	0	481	617
11	0	0	0	0	481	618
12	0	0	0	0	482	618
13	0	0	0	0	482	618
14	0	0	0	0	482	618
15	0	0	0	0	481	617
0	0	0	0	0	480	619
1	0	0	0	0	480	619
2	0	0	0	0	479	619
3	0	0	0	0	476	619
4	0	0	0	0	473	618
5	0	0	0	0	472	619
6	0	0	0	0	472	619
7	0	0	0	0	472	618
8	0	0	0	0	472	619
9	0	0	0	0	472	618
10	0	0	0	0	472	618
11	0	0	0	0	472	618
12	0	0	0	0	472	618
13	0	0	0	0	473	618
14	0	0	0	0	474	618
15	0	0	0	0	475	618
0	0	0	0	0	477	619
1	0	0	0	0	480	618
2	0	0	0	0	482	618
3	0	0	0	0	484	619
4	0	0	0	0	485	618
5	0	0	0	0	484	617
6	0	0	0	0	484	617
7	0	0	0	0	483	618
8	0	0	0	0	483	618
9	0	0	0	0	483	617
10	0	0	0	0	484	618
11	0	0	0	0	485	617
12	0	0	0	0	486	618
13	0	0	0	0	487	618
14	0	0	0	0	487	618
15	0	0	0	0	488	617
0	0	0	0	0	489	618
1	0	0	0	0	490	617
2	0	0	0	0	491	617
3	0	0	0	0	492	617
4	0	0	0	0	493	616
5	0	0	0	0	493	617
6	0	0	0	0	493	617
7	0	0	0	0	493	617
8	0	0	0	0	493	617
9	0	0	0	0	492	617
10	0	0	0	0	491	617
11	0	0	0	0	489	617
12	0	0	0	0	488	616
13	0	0	0	0	487	616
14	0	0	0	0	488	616
15	0	0	0	0	487	616
0	0	0	0	0	487	616
1	0	0	0	0	486	615
2	0	0	0	0	484	616
3	0	0	0	0	483	617
4	0	0	0	0	483	616
5	0	0	0	0	482	615
6	0	0	0	0	482	616
7	0	0	0	0	481	616
8	0	0	0	0	480	616
9	0	0	0	0	480	615
10	0	0	0	0	481	616
11	0	0	0	0	481	615
12	0	0	0	0	484	615
13	0	0	0	0	485	615
14	0	0	0	0	486	616
15	0	0	0	0	487	616
0	0	0	0	0	487	617
1	0	0	0	0	487	615
2	0	0	0	0	487	615
3	0	0	0	0	487	615
4	0	0	0	0	486	615
5	0	0	0	0	486	616
6	0	0	0	0	486	615
7	0	0	0	0	486	615
8	0	0	0	0	486	616
9	0	0	0	0	486	615
10	0	0	0	0	486	615
11	0	0	0	0	486	615
12	0	0	0	0	486	615
13	0	0	0	0	487	615
14	0	0	0	0	487	616
15	0	0	0	0	488	615
0	0	0	0	0	487	616
1	0	0	0	0	487	616
2	0	0	0	0	487	615
3	0	0	0	0	488	615
4	0	0	0	0	489	616
5	0	0	0	0	489	616
6	0	0	0	0	490	616
7	0	0	0	0	490	616
8	0	0	0	0	489	617
9	0	0	0	0	490	615
10	0	0	0	0	490	616
11	0	0	0	0	490	615
12	0	0	0	0	490	616
13	0	0	0	0	490	616
14	0	0	0	0	489	616
15	0	0	0	0	490	616
0	0	0	0	0	489	616
1	0	0	0	0	489	615
2	0	0	0	0	489	615
3	0	0	0	0	490	616
4	0	0	0	0	490	616
5	0	0	0	0	489	616
6	0	0	0	0	488	616
7	0	0	0	0	487	616
8	0	0	0	0	487	617
9	0	0	0	0	487	616
10	0	0	0	0	486	616
11	0	0	0	0	485	615
12	0	0	0	0	485	616
13	0	0	0	0	485	615
14	0	0	0	0	486	615
15	0	0	0	0	487	615
0	0	0	0	0	487	616
1	0	0	0	0	487	616
2	0	0	0	0	487	616
3	0	0	0	0	487	616
4	0	0	0	0	488	615
5	0	0	0	0	489	615
6	0	0	0	0	490	616
7	0	0	0	0	490	616
8	0	0	0	0	491	616
9	0	0	0	0	492	616
10	0	0	0	0	492	616
11	0	0	0	0	493	616
12	0	0	0	0	494	616
13	0	0	0	0	494	616
14	0	0	0	0	492	616
15	0	0	0	0	491	617
0	0	0	0	0	489	617
1	0	0	0	0	487	616
2	0	0	0	0	484	616
3	0	0	0	0	482	616
4	0	0	0	0	481	616
5	0	0	0	0	482	616
6	0	0	0	0	484	616
7	0	0	0	0	486	616
8	0	0	0	0	488	617
9	0	0	0	0	490	616
10	0	0	0	0	494	616
11	0	0	0	0	498	616
12	0	0	0	0	500	616
13	0	0	0	0	502	616
14	0	0	0	0	503	616
15	0	0	0	0	504	617
0	0	0	0	0	504	618
1	0	0	0	0	504	616
2	0	0	0	0	504	616
3	0	0	0	0	504	617
4	0	0	0	0	504	617
5	0	0	0	0	504	616
6	0	0	0	0	504	616
7	0	0	0	0	504	616
8	0	0	0	0	504	617
9	0	0	0	0	504	617
10	0	0	0	0	504	616
11	0	0	0	0	504	617
12	0	0	0	0	504	617
13	0	0	0	0	504	617
14	0	0	0	0	503	617
15	0	0	0	0	502	618
0	0	0	0	0	501	618
1	0	0	0	0	500	618
2	0	0	0	0	500	618
3	0	0	0	0	499	618
4	0	0	0	0	500	618
5	0	0	0	0	500	617
6	0	0	0	0	501	617
7	0	0	0	0	500	618
8	0	0	0	0	501	619
9	0	0	0	0	501	618
10	0	0	0	0	502	618
11	0	0	0	0	503	619
12	0	0	0	0	503	618
13	0	0	0	0	504	619
14	0	0	0	0	504	619
15	0	0	0	0	504	619
0	0	0	0	0	504	619
1	0	0	0	0	504	619
2	0	0	0	0	504	619
3	0	0	0	0	504	618
4	0	0	0	0	503	619
5	0	0	0	0	503	618
6	0	0	0	0	503	618
7	0	0	0	0	503	618
8	0	0	0	0	503	619
9	0	0	0	0	502	617
10	0	0	0	0	502	618
11	0	0	0	0	501	618
12	0	0	0	0	501	618
13	0	0	0	0	501	618
14	0	0	0	0	499	618
15	0	0	0	0	496	617
0	0	0	0	0	495	618
1	0	0	0	0	493	617
2	0	0	0	0	493	617
3	0	0	0	0	492	617
4	0	0	0	0	492	617
5	0	0	0	0	494	616
6	0	0	0	0	497	617
7	0	0	0	0	499	616
8	0	0	0	0	501	617
9	0	0	0	0	503	617
10	0	0	0	0	505	617
11	0	0	0	0	506	617
12	0	0	0	0	505	617
13	0	0	0	0	506	617
14	0	0	0	0	507	617
15	0	0	0	0	508	616
0	0	0	0	0	508	617
1	0	0	0	0	507	616
2	0	0	0	0	505	616
3	0	0	0	0	504	616
4	0	0	0	0	502	616
5	0	0	0	0	499	617
6	0	0	0	0	497	616
7	0	0	0	0	496	616
8	0	0	0	0	497	617
9	0	0	0	0	500	616
10	0	0	0	0	502	616
11	0	0	0	0	504	616
12	0	0	0	0	508	617
13	0	0	0	0	511	616
14	0	0	0	0	512	617
15	0	0	0	0	513	616
0	0	0	0	0	515	618
1	0	0	0	0	516	616
2	0	0	0	0	517	617
3	0	0	0	0	517	617
4	0	0	0	0	518	617
5	0	0	0	0	517	617
6	0	0	0	0	516	616
7	0	0	0	0	516	617
8	0	0	0	0	515	617
9	0	0	0	0	514	617
10	0	0	0	0	515	616
11	0	0	0	0	515	616
12	0	0	0	0	513	616
13	0	0	0	0	513	616
14	0	0	0	0	512	616
15	0	0	0	0	511	616
0	0	0	0	0	510	617
1	0	0	0	0	508	616
2	0	0	0	0	506	616
3	0	0	0	0	503	617
4	0	0	0	0	500	616
5	0	0	0	0	498	616
6	0	0	0	0	499	616
7	0	0	0	0	499	616
8	0	0	0	0	499	617
9	0	0	0	0	499	616
10	0	0	0	0	500	616
11	0	0	0	0	499	616
12	0	0	0	0	500	616
13	0	0	0	0	500	616
14	0	0	0	0	500	616
15	0	0	0	0	501	617
0	0	0	0	0	502	616
1	0	0	0	0	501	616
2	0	0	0	0	499	616
3	0	0	0	0	499	615
4	0	0	0	0	498	616
5	0	0	0	0	497	615
6	0	0	0	0	497	615
7	0	0	0	0	499	615
8	0	0	0	0	503	616
9	0	0	0	0	506	616
10	0	0	0	0	506	615
11	0	0	0	0	504	615
12	0	0	0	0	500	615
13	0	0	0	0	498	615
14	0	0	0	0	495	615
15	0	0	0	0	495	615
0	0	0	0	0	496	616
1	0	0	0	0	496	615
2	0	0	0	0	498	615
3	0	0	0	0	502	616
4	0	0	0	0	505	616
5	0	0	0	0	508	616
6	0	0	0	0	511	615
7	0	0	0	0	514	616
8	0	0	0	0	518	617
9	0	0	0	0	521	616
10	0	0	0	0	524	616
11	0	0	0	0	528	616
12	0	0	0	0	529	616
13	0	0	0	0	531	616
14	0	0	0	0	532	615
15	0	0	0	0	533	615
0	0	0	0	0	533	616
1	0	0	0	0	532	616
2	0	0	0	0	531	615
3	0	0	0	0	530	616
4	0	0	0	0	531	616
5	0	0	0	0	531	616
6	0	0	0	0	531	615
7	0	0	0	0	531	616
8	0	0	0	0	531	616
9	0	0	0	0	530	615
10	0	0	0	0	530	616
11	0	0	0	0	529	616
12	0	0	0	0	528	616
13	0	0	0	0	527	616
14	0	0	0	0	526	616
15	0	0	0	0	526	616
0	0	0	0	0	525	617
1	0	0	0	0	524	616
2	0	0	0	0	523	616
3	0	0	0	0	522	616
4	0	0	0	0	520	616
5	0	0	0	0	519	617
6	0	0	0	0	519	616
7	0	0	0	0	519	616
8	0	0	0	0	518	617
9	0	0	0	0	518	616
10	0	0	0	0	517	616
11	0	0	0	0	516	616
12	0	0	0	0	515	616
13	0	0	0	0	515	616
14	0	0	0	0	515	616
15	0	0	0	0	516	615
0	0	0	0	0	516	616
1	0	0	0	0	516	615
2	0	0	0	0	516	615
3	0	0	0	0	515	616
4	0	0	0	0	515	616
5	0	0	0	0	516	616
6	0	0	0	0	516	616
7	0	0	0	0	516	615
8	0	0	0	0	516	616
9	0	0	0	0	515	616
10	0	0	0	0	514	616
11	0	0	0	0	513	615
12	0	0	0	0	512	615
13	0	0	0	0	511	615
14	0	0	0	0	511	615
15	0	0	0	0	512	616
0	0	0	0	0	512	617
1	0	0	0	0	512	616
2	0	0	0	0	512	617
3	0	0	0	0	513	617
4	0	0	0	0	514	617
5	0	0	0	0	513	617
6	0	0	0	0	512	617
7	0	0	0	0	511	617
8	0	0	0	0	508	617
9	0	0	0	0	506	617
10	0	0	0	0	505	617
11	0	0	0	0	506	616
12	0	0	0	0	507	616
13	0	0	0	0	507	616
14	0	0	0	0	507	616
15	0	0	0	0	507	617
0	0	0	0	0	507	617
1	0	0	0	0	508	616
2	0	0	0	0	509	616
3	0	0	0	0	511	617
4	0	0	0	0	511	616
5	0	0	0	0	512	617
6	0	0	0	0	511	617
7	0	0	0	0	511	616
8	0	0	0	0	511	617
9	0	0	0	0	512	617
10	0	0	0	0	513	617
11	0	0	0	0	516	617
12	0	0	0	0	516	617
13	0	0	0	0	516	617
14	0	0	0	0	517	618
15	0	0	0	0	518	617
0	0	0	0	0	519	618
1	0	0	0	0	520	617
2	0	0	0	0	519	617
3	0	0	0	0	519	617
4	0	0	0	0	519	617
5	0	0	0	0	518	617
6	0	0	0	0	517	617
7	0	0	0	0	515	617
8	0	0	0	0	513	618
9	0	0	0	0	512	618
10	0	0	0	0	512	618
11	0	0	0	0	513	617
12	0	0	0	0	514	617
13	0	0	0	0	514	617
14	0	0	0	0	514	617
15	0	0	0	0	513	617
0	0	0	0	0	513	617
1	0	0	0	0	513	616
2	0	0	0	0	514	617
3	0	0	0	0	515	617
4	0	0	0	0	516	617
5	0	0	0	0	516	616
6	0	0	0	0	515	616
7	0	0	0	0	516	616
8	0	0	0	0	516	617
9	0	0	0	0	518	616
10	0	0	0	0	519	616
11	0	0	0	0	519	617
12	0	0	0	0	519	616
13	0	0	0	0	519	616
14	0	0	0	0	519	615
15	0	0	0	0	518	616
0	0	0	0	0	516	616
1	0	0	0	0	516	615
2	0	0	0	0	515	615
3	0	0	0	0	513	616
4	0	0	0	0	514	615
5	0	0	0	0	515	615
6	0	0	0	0	516	616
7	0	0	0	0	516	616
8	0	0	0	0	516	616
9	0	0	0	0	517	615
10	0	0	0	0	518	615
11	0	0	0	0	517	615
12	0	0	0	0	516	615
13	0	0	0	0	514	615
14	0	0	0	0	513	615
15	0	0	0	0	512	616
0	0	0	0	0	512	615
1	0	0	0	0	512	615
2	0	0	0	0	511	615
3	0	0	0	0	510	616
4	0	0	0	0	507	616
5	0	0	0	0	506	616
6	0	0	0	0	504	616
7	0	0	0	0	503	615
8	0	0	0	0	500	616
9	0	0	0	0	497	616
10	0	0	0	0	496	616
11	0	0	0	0	495	616
12	0	0	0	0	492	616
13	0	0	0	0	490	616
14	0	0	0	0	488	616
15	0	0	0	0	487	617
0	0	0	0	0	486	617
1	0	0	0	0	485	617
2	0	0	0	0	484	617
3	0	0	0	0	483	617
4	0	0	0	0	482	616
5	0	0	0	0	483	617
6	0	0	0	0	483	617
7	0	0	0	0	486	617
8	0	0	0	0	491	619
9	0	0	0	0	495	619
10	0	0	0	0	502	618
11	0	0	0	0	508	618
12	0	0	0	0	517	617
13	0	0	0	0	527	619
14	0	0	0	0	541	618
15	0	0	0	0	557	619
0	0	0	0	0	574	619
1	0	0	0	0	590	619
2	0	0	0	0	606	618
3	0	0	0	0	622	619
4	0	0	0	0	637	619
5	0	0	0	0	651	619
6	0	0	0	0	662	619
7	0	0	0	0	670	619
8	0	0	0	0	673	620
9	0	0	0	0	674	619
10	0	0	0	0	671	619
11	0	0	0	0	666	618
12	0	0	0	0	660	619
13	0	0	0	0	652	619
14	0	0	0	0	644	619
15	0	0	0	0	635	619
0	0	0	0	0	622	619
1	0	0	0	0	607	618
2	0	0	0	0	593	618
3	0	0	0	0	580	618
4	0	0	0	0	570	618
5	0	0	0	0	563	618
6	0	0	0	0	557	617
7	0	0	0	0	550	617
8	0	0	0	0	543	617
9	0	0	0	0	536	616
10	0	0	0	0	532	616
11	0	0	0	0	531	616
12	0	0	0	0	529	616
13	0	0	0	0	529	617
14	0	0	0	0	530	616
15	0	0	0	0	531	616
0	0	0	0	0	532	616
1	0	0	0	0	531	617
2	0	0	0	0	530	617
3	0	0	0	0	529	617
4	0	0	0	0	528	616
5	0	0	0	0	526	617
6	0	0	0	0	523	617
7	0	0	0	0	521	617
8	0	0	0	0	519	618
9	0	0	0	0	516	617
10	0	0	0	0	514	617
11	0	0	0	0	511	617
12	0	0	0	0	509	617
13	0	0	0	0	508	617
14	0	0	0	0	505	617
15	0	0	0	0	504	617
0	0	0	0	0	502	618
1	0	0	0	0	500	616
2	0	0	0	0	498	617
3	0	0	0	0	497	617
4	0	0	0	0	497	617
5	0	0	0	0	496	617
6	0	0	0	0	494	617
7	0	0	0	0	493	617
8	0	0	0	0	492	617
9	0	0	0	0	490	616
10	0	0	0	0	488	617
11	0	0	0	0	487	616
12	0	0	0	0	488	617
13	0	0	0	0	491	617
14	0	0	0	0	492	616
15	0	0	0	0	493	617
0	0	0	0	0	494	618
1	0	0	0	0	494	616
2	0	0	0	0	492	616
3	0	0	0	0	489	616
4	0	0	0	0	487	616
5	0	0	0	0	487	616
6	0	0	0	0	488	616
7	0	0	0	0	490	616
8	0	0	0	0	492	616
9	0	0	0	0	494	615
10	0	0	0	0	496	615
11	0	0	0	0	498	615
12	0	0	0	0	499	615
13	0	0	0	0	502	615
14	0	0	0	0	504	615
15	0	0	0	0	505	615
0	0	0	0	0	507	615
1	0	0	0	0	508	615
2	0	0	0	0	510	615
3	0	0	0	0	509	615
4	0	0	0	0	508	615
5	0	0	0	0	506	615
6	0	0	0	0	505	615
7	0	0	0	0	503	615
8	0	0	0	0	502	615
9	0	0	0	0	501	615
10	0	0	0	0	499	615
11	0	0	0	0	497	615
12	0	0	0	0	495	615
13	0	0	0	0	493	615
14	0	0	0	0	492	615
15	0	0	0	0	493	616
0	0	0	0	0	495	616
1	0	0	0	0	497	615
2	0	0	0	0	498	616
3	0	0	0	0	499	615
4	0	0	0	0	500	616
5	0	0	0	0	501	616
6	0	0	0	0	502	615
7	0	0	0	0	502	616
8	0	0	0	0	502	616
9	0	0	0	0	503	616
10	0	0	0	0	504	616
11	0	0	0	0	504	615
12	0	0	0	0	505	616
13	0	0	0	0	505	616
14	0	0	0	0	504	616
15	0	0	0	0	505	616
0	0	0	0	0	506	617
1	0	0	0	0	506	616
2	0	0	0	0	507	616
3	0	0	0	0	507	616
4	0	0	0	0	507	616
5	0	0	0	0	508	615
6	0	0	0	0	508	616
7	0	0	0	0	509	616
8	0	0	0	0	509	616
9	0	0	0	0	510	615
10	0	0	0	0	510	616
11	0	0	0	0	510	615
12	0	0	0	0	509	616
13	0	0	0	0	509	616
14	0	0	0	0	509	615
15	0	0	0	0	509	615
0	0	0	0	0	508	616
1	0	0	0	0	508	616
2	0	0	0	0	508	615
3	0	0	0	0	507	615
4	0	0	0	0	507	615
5	0	0	0	0	505	615
6	0	0	0	0	504	615
7	0	0	0	0	503	615
8	0	0	0	0	503	615
9	0	0	0	0	503	615
10	0	0	0	0	503	615
11	0	0	0	0	504	615
12	0	0	0	0	505	615
13	0	0	0	0	506	615
14	0	0	0	0	506	615
15	0	0	0	0	506	615
0	0	0	0	0	507	616
1	0	0	0	0	507	615
2	0	0	0	0	507	615
3	0	0	0	0	507	615
4	0	0	0	0	507	614
5	0	0	0	0	508	614
6	0	0	0	0	506	614
7	0	0	0	0	505	614
8	0	0	0	0	504	615
9	0	0	0	0	504	615
10	0	0	0	0	503	614
11	0	0	0	0	504	614
12	0	0	0	0	505	614
13	0	0	0	0	505	614
14	0	0	0	0	504	614
15	0	0	0	0	505	614
0	0	0	0	0	505	615
1	0	0	0	0	505	614
2	0	0	0	0	506	614
3	0	0	0	0	507	614
4	0	0	0	0	507	614
5	0	0	0	0	506	614
6	0	0	0	0	507	615
7	0	0	0	0	506	615
8	0	0	0	0	504	615
9	0	0	0	0	504	615
10	0	0	0	0	503	615
11	0	0	0	0	503	615
12	0	0	0	0	505	615
13	0	0	0	0	507	615
14	0	0	0	0	508	615
15	0	0	0	0	509	616
0	0	0	0	0	510	617
1	0	0	0	0	510	616
2	0	0	0	0	512	616
3	0	0	0	0	511	616
4	0	0	0	0	511	616
5	0	0	0	0	510	616
6	0	0	0	0	510	617
7	0	0	0	0	510	617
8	0	0	0	0	512	617
9	0	0	0	0	513	617
10	0	0	0	0	514	617
11	0	0	0	0	515	618
12	0	0	0	0	516	618
13	0	0	0	0	516	618
14	0	0	0	0	518	618
15	0	0	0	0	519	617
0	0	0	0	0	520	619
1	0	0	0	0	519	619
2	0	0	0	0	520	619
3	0	0	0	0	520	619
4	0	0	0	0	520	619
5	0	0	0	0	519	619
6	0	0	0	0	519	620
7	0	0	0	0	519	619
8	0	0	0	0	518	620
9	0	0	0	0	518	619
10	0	0	0	0	519	620
11	0	0	0	0	519	619
12	0	0	0	0	520	620
13	0	0	0	0	522	620
14	0	0	0	0	524	620
15	0	0	0	0	525	620
0	0	0	0	0	526	621
1	0	0	0	0	526	620
2	0	0	0	0	526	619
3	0	0	0	0	526	619
4	0	0	0	0	526	620
5	0	0	0	0	526	620
6	0	0	0	0	526	619
7	0	0	0	0	527	620
8	0	0	0	0	527	620
9	0	0	0	0	527	619
10	0	0	0	0	527	620
11	0	0	0	0	528	619
12	0	0	0	0	529	619
13	0	0	0	0	530	618
14	0	0	0	0	531	619
15	0	0	0	0	533	619
0	0	0	0	0	533	620
1	0	0	0	0	533	619
2	0	0	0	0	533	619
3	0	0	0	0	534	618
4	0	0	0	0	534	618
5	0	0	0	0	534	617
6	0	0	0	0	534	617
7	0	0	0	0	534	617
8	0	0	0	0	534	617
9	0	0	0	0	534	616
10	0	0	0	0	535	616
11	0	0	0	0	535	616
12	0	0	0	0	535	616
13	0	0	0	0	536	616
14	0	0	0	0	535	616
15	0	0	0	0	535	616
0	0	0	0	0	534	617
1	0	0	0	0	534	615
2	0	0	0	0	534	615
3	0	0	0	0	535	615
4	0	0	0	0	535	615
5	0	0	0	0	536	615
6	0	0	0	0	536	615
7	0	0	0	0	536	615
8	0	0	0	0	535	616
9	0	0	0	0	536	615
10	0	0	0	0	535	615
11	0	0	0	0	533	615
12	0	0	0	0	532	616
13	0	0	0	0	531	615
14	0	0	0	0	529	615
15	0	0	0	0	527	615
0	0	0	0	0	527	615
1	0	0	0	0	529	615
2	0	0	0	0	532	615
3	0	0	0	0	534	614
4	0	0	0	0	536	615
5	0	0	0	0	537	615
6	0	0	0	0	536	615
7	0	0	0	0	535	615
8	0	0	0	0	532	616
9	0	0	0	0	529	615
10	0	0	0	0	528	615
11	0	0	0	0	526	616
12	0	0	0	0	525	615
13	0	0	0	0	524	615
14	0	0	0	0	524	615
15	0	0	0	0	524	615
0	0	0	0	0	522	616
1	0	0	0	0	520	615
2	0	0	0	0	518	616
3	0	0	0	0	516	616
4	0	0	0	0	515	615
5	0	0	0	0	513	616
6	0	0	0	0	512	616
7	0	0	0	0	513	616
8	0	0	0	0	513	616
9	0	0	0	0	513	616
10	0	0	0	0	513	616
11	0	0	0	0	514	616
12	0	0	0	0	514	616
13	0	0	0	0	514	617
14	0	0	0	0	514	617
15	0	0	0	0	514	616
0	0	0	0	0	513	617
1	0	0	0	0	512	617
2	0	0	0	0	510	616
3	0	0	0	0	508	616
4	0	0	0	0	504	615
5	0	0	0	0	503	616
6	0	0	0	0	500	617
7	0	0	0	0	499	617
8	0	0	0	0	498	617
9	0	0	0	0	497	616
10	0	0	0	0	496	616
11	0	0	0	0	495	616
12	0	0	0	0	493	616
13	0	0	0	0	492	617
14	0	0	0	0	492	616
15	0	0	0	0	492	617
0	0	0	0	0	492	618
1	0	0	0	0	491	617
2	0	0	0	0	490	617
3	0	0	0	0	490	618
4	0	0	0	0	489	617
5	0	0	0	0	488	617
6	0	0	0	0	488	618
7	0	0	0	0	488	617
8	0	0	0	0	489	618
9	0	0	0	0	490	618
10	0	0	0	0	491	617
11	0	0	0	0	492	617
12	0	0	0	0	492	617
13	0	0	0	0	492	617
14	0	0	0	0	492	617
15	0	0	0	0	492	618
0	0	0	0	0	492	619
1	0	0	0	0	492	618
2	0	0	0	0	492	617
3	0	0	0	0	492	618
4	0	0	0	0	491	618
5	0	0	0	0	490	618
6	0	0	0	0	490	619
7	0	0	0	0	489	619
8	0	0	0	0	489	619
9	0	0	0	0	489	618
10	0	0	0	0	488	619
11	0	0	0	0	488	619
12	0	0	0	0	489	619
13	0	0	0	0	489	618
14	0	0	0	0	489	619
15	0	0	0	0	490	619
0	0	0	0	0	490	620
1	0	0	0	0	490	619
2	0	0	0	0	491	619
3	0	0	0	0	491	619
4	0	0	0	0	491	620
5	0	0	0	0	492	620
6	0	0	0	0	492	620
7	0	0	0	0	493	620
8	0	0	0	0	493	620
9	0	0	0	0	493	620
10	0	0	0	0	493	619
11	0	0	0	0	493	619
12	0	0	0	0	494	618
13	0	0	0	0	494	618
14	0	0	0	0	494	618
15	0	0	0	0	493	618
0	0	0	0	0	491	618
1	0	0	0	0	490	617
2	0	0	0	0	488	617
3	0	0	0	0	487	617
4	0	0	0	0	486	618
5	0	0	0	0	486	617
6	0	0	0	0	487	618
7	0	0	0	0	487	618
8	0	0	0	0	487	619
9	0	0	0	0	487	617
10	0	0	0	0	491	618
11	0	0	0	0	494	618
12	0	0	0	0	496	618
13	0	0	0	0	497	618
14	0	0	0	0	499	617
15	0	0	0	0	501	617
0	0	0	0	0	502	618
1	0	0	0	0	502	617
2	0	0	0	0	502	617
3	0	0	0	0	502	617
4	0	0	0	0	500	617
5	0	0	0	0	499	617
6	0	0	0	0	498	617
7	0	0	0	0	497	617
8	0	0	0	0	497	617
9	0	0	0	0	498	616
10	0	0	0	0	500	617
11	0	0	0	0	502	617
12	0	0	0	0	504	617
13	0	0	0	0	505	616
14	0	0	0	0	505	617
15	0	0	0	0	505	617
0	0	0	0	0	505	618
1	0	0	0	0	505	617
2	0	0	0	0	506	617
3	0	0	0	0	506	617
4	0	0	0	0	507	617
5	0	0	0	0	508	616
6	0	0	0	0	510	616
7	0	0	0	0	510	616
8	0	0	0	0	510	617
9	0	0	0	0	509	617
10	0	0	0	0	509	616
11	0	0	0	0	509	616
12	0	0	0	0	508	616
13	0	0	0	0	508	616
14	0	0	0	0	507	616
15	0	0	0	0	506	616
0	0	0	0	0	505	617
1	0	0	0	0	504	616
2	0	0	0	0	503	616
3	0	0	0	0	503	616
4	0	0	0	0	502	615
5	0	0	0	0	503	615
6	0	0	0	0	504	615
7	0	0	0	0	505	615
8	0	0	0	0	504	616
9	0	0	0	0	504	615
10	0	0	0	0	504	615
11	0	0	0	0	503	615
12	0	0	0	0	502	615
13	0	0	0	0	502	615
14	0	0	0	0	502	615
15	0	0	0	0	501	615
0	0	0	0	0	500	615
1	0	0	0	0	499	615
2	0	0	0	0	499	614
3	0	0	0	0	499	615
4	0	0	0	0	498	615
5	0	0	0	0	499	615
6	0	0	0	0	500	615
7	0	0	0	0	501	615
8	0	0	0	0	502	615
9	0	0	0	0	503	615
10	0	0	0	0	504	615
11	0	0	0	0	504	615
12	0	0	0	0	504	615
13	0	0	0	0	503	615
14	0	0	0	0	503	616
15	0	0	0	0	504	615
0	0	0	0	0	503	616
1	0	0	0	0	503	616
2	0	0	0	0	504	616
3	0	0	0	0	505	616
4	0	0	0	0	505	616
5	0	0	0	0	507	616
6	0	0	0	0	508	616
7	0	0	0	0	508	615
8	0	0	0	0	509	616
9	0	0	0	0	510	615
10	0	0	0	0	512	616
11	0	0	0	0	513	615
12	0	0	0	0	514	615
13	0	0	0	0	514	615
14	0	0	0	0	513	615
15	0	0	0	0	512	615
0	0	0	0	0	511	616
1	0	0	0	0	510	615
2	0	0	0	0	508	615
3	0	0	0	0	507	616
4	0	0	0	0	505	615
5	0	0	0	0	506	615
6	0	0	0	0	505	615
7	0	0	0	0	505	616
8	0	0	0	0	505	616
9	0	0	0	0	506	615
10	0	0	0	0	508	616
11	0	0	0	0	509	616
12	0	0	0	0	510	615
13	0	0	0	0	510	615
14	0	0	0	0	510	616
15	0	0	0	0	510	615
0	0	0	0	0	508	616
1	0	0	0	0	507	615
2	0	0	0	0	506	616
3	0	0	0	0	504	616
4	0	0	0	0	504	616
5	0	0	0	0	506	616
6	0	0	0	0	508	616
7	0	0	0	0	509	616
8	0	0	0	0	509	617
9	0	0	0	0	510	615
10	0	0	0	0	512	616
11	0	0	0	0	513	616
12	0	0	0	0	514	616
13	0	0	0	0	516	615
14	0	0	0	0	517	615
15	0	0	0	0	517	615
0	0	0	0	0	517	615
1	0	0	0	0	516	615
2	0	0	0	0	514	615
3	0	0	0	0	513	615
4	0	0	0	0	511	616
5	0	0	0	0	510	615
6	0	0	0	0	510	616
7	0	0	0	0	510	615
8	0	0	0	0	512	616
9	0	0	0	0	513	615
10	0	0	0	0	514	616
11	0	0	0	0	514	615
12	0	0	0	0	515	616
13	0	0	0	0	516	616
14	0	0	0	0	516	615
15	0	0	0	0	516	616
0	0	0	0	0	516	617
1	0	0	0	0	517	616
2	0	0	0	0	518	616
3	0	0	0	0	518	617
4	0	0	0	0	517	617
5	0	0	0	0	516	616
6	0	0	0	0	516	616
7	0	0	0	0	516	617
8	0	0	0	0	518	618
9	0	0	0	0	519	617
10	0	0	0	0	520	617
11	0	0	0	0	520	617
12	0	0	0	0	519	618
13	0	0	0	0	519	617
14	0	0	0	0	519	618
15	0	0	0	0	517	617
0	0	0	0	0	516	618
1	0	0	0	0	515	617
2	0	0	0	0	515	617
3	0	0	0	0	515	617
4	0	0	0	0	515	617
5	0	0	0	0	516	617
6	0	0	0	0	517	617
7	0	0	0	0	518	617
8	0	0	0	0	518	618
9	0	0	0	0	518	617
10	0	0	0	0	517	617
11	0	0	0	0	517	617
12	0	0	0	0	518	617
13	0	0	0	0	517	617
14	0	0	0	0	516	617
15	0	0	0	0	516	617
0	0	0	0	0	515	617
1	0	0	0	0	515	617
2	0	0	0	0	515	616
3	0	0	0	0	515	617
4	0	0	0	0	516	617
5	0	0	0	0	517	617
6	0	0	0	0	518	617
7	0	0	0	0	519	617
8	0	0	0	0	520	617
9	0	0	0	0	520	617
10	0	0	0	0	520	617
11	0	0	0	0	521	617
12	0	0	0	0	522	617
13	0	0	0	0	523	617
14	0	0	0	0	524	616
15	0	0	0	0	524	617
0	0	0	0	0	524	617
1	0	0	0	0	525	616
2	0	0	0	0	524	616
3	0	0	0	0	524	616
4	0	0	0	0	523	615
5	0	0	0	0	520	616
6	0	0	0	0	518	616
7	0	0	0	0	515	616
8	0	0	0	0	515	617
9	0	0	0	0	515	616
10	0	0	0	0	515	615
11	0	0	0	0	515	616
12	0	0	0	0	514	615
13	0	0	0	0	512	616
14	0	0	0	0	510	616
15	0	0	0	0	509	616
0	0	0	0	0	508	616
1	0	0	0	0	507	616
2	0	0	0	0	505	616
3	0	0	0	0	506	616
4	0	0	0	0	506	616
5	0	0	0	0	507	616
6	0	0	0	0	510	616
7	0	0	0	0	512	616
8	0	0	0	0	517	617
9	0	0	0	0	521	616
10	0	0	0	0	526	616
11	0	0	0	0	530	616
12	0	0	0	0	532	616
13	0	0	0	0	533	616
14	0	0	0	0	534	615
15	0	0	0	0	536	616
0	0	0	0	0	536	617
1	0	0	0	0	535	615
2	0	0	0	0	533	616
3	0	0	0	0	532	616
4	0	0	0	0	530	616
5	0	0	0	0	528	616
6	0	0	0	0	527	616
7	0	0	0	0	526	615
8	0	0	0	0	527	617
9	0	0	0	0	527	616
10	0	0	0	0	527	616
11	0	0	0	0	527	616
12	0	0	0	0	527	616
13	0	0	0	0	526	616
14	0	0	0	0	526	616
15	0	0	0	0	525	616
0	0	0	0	0	524	617
1	0	0	0	0	523	616
2	0	0	0	0	522	616
3	0	0	0	0	521	616
4	0	0	0	0	520	616
5	0	0	0	0	519	617
6	0	0	0	0	518	616
7	0	0	0	0	517	616
8	0	0	0	0	517	616
9	0	0	0	0	517	616
10	0	0	0	0	518	616
11	0	0	0	0	517	616
12	0	0	0	0	516	616
13	0	0	0	0	516	617
14	0	0	0	0	516	616
15	0	0	0	0	517	616
0	0	0	0	0	519	617
1	0	0	0	0	520	617
2	0	0	0	0	520	616
3	0	0	0	0	521	617
4	0	0	0	0	523	616
5	0	0	0	0	524	616
6	0	0	0	0	525	617
7	0	0	0	0	525	617
8	0	0	0	0	525	617
9	0	0	0	0	525	616
10	0	0	0	0	524	616
11	0	0	0	0	524	615
12	0	0	0	0	524	615
13	0	0	0	0	524	615
14	0	0	0	0	524	616
15	0	0	0	0	522	616
0	0	0	0	0	521	616
1	0	0	0	0	520	616
2	0	0	0	0	520	616
3	0	0	0	0	519	616
4	0	0	0	0	519	616
5	0	0	0	0	517	616
6	0	0	0	0	516	617
7	0	0	0	0	515	616
8	0	0	0	0	515	617
9	0	0	0	0	515	616
10	0	0	0	0	515	616
11	0	0	0	0	515	616
12	0	0	0	0	515	616
13	0	0	0	0	515	616
14	0	0	0	0	514	617
15	0	0	0	0	513	617
0	0	0	0	0	512	618
1	0	0	0	0	509	617
2	0	0	0	0	508	617
3	0	0	0	0	507	617
4	0	0	0	0	508	617
5	0	0	0	0	509	617
6	0	0	0	0	510	617
7	0	0	0	0	512	617
8	0	0	0	0	514	618
9	0	0	0	0	516	617
10	0	0	0	0	519	617
11	0	0	0	0	520	617
12	0	0	0	0	523	617
13	0	0	0	0	524	617
14	0	0	0	0	526	617
15	0	0	0	0	527	617
0	0	0	0	0	528	618
1	0	0	0	0	527	617
2	0	0	0	0	527	617
3	0	0	0	0	528	618
4	0	0	0	0	528	617
5	0	0	0	0	527	617
6	0	0	0	0	526	617
7	0	0	0	0	526	617
8	0	0	0	0	527	617
9	0	0	0	0	528	617
10	0	0	0	0	530	617
11	0	0	0	0	531	617
12	0	0	0	0	532	617
13	0	0	0	0	533	617
14	0	0	0	0	534	617
15	0	0	0	0	535	617
0	0	0	0	0	536	617
1	0	0	0	0	536	617
2	0	0	0	0	536	616
3	0	0	0	0	536	616
4	0	0	0	0	536	616
5	0	0	0	0	535	616
6	0	0	0	0	534	617
7	0	0	0	0	531	616
8	0	0	0	0	531	617
9	0	0	0	0	531	616
10	0	0	0	0	529	616
11	0	0	0	0	529	616
12	0	0	0	0	528	617
13	0	0	0	0	529	617
14	0	0	0	0	529	617
15	0	0	0	0	527	616
0	0	0	0	0	525	618
1	0	0	0	0	524	617
2	0	0	0	0	522	618
3	0	0	0	0	520	618
4	0	0	0	0	519	617
5	0	0	0	0	519	617
6	0	0	0	0	520	617
7	0	0	0	0	522	617
8	0	0	0	0	523	618
9	0	0	0	0	524	618
10	0	0	0	0	524	618
11	0	0	0	0	524	617
12	0	0	0	0	524	617
13	0	0	0	0	524	617
14	0	0	0	0	524	618
15	0	0	0	0	525	618
0	0	0	0	0	526	619
1	0	0	0	0	526	618
2	0	0	0	0	526	618
3	0	0	0	0	526	618
4	0	0	0	0	527	617
5	0	0	0	0	527	618
6	0	0	0	0	527	618
7	0	0	0	0	527	618
8	0	0	0	0	526	618
9	0	0	0	0	526	617
10	0	0	0	0	525	617
11	0	0	0	0	524	617
12	0	0	0	0	523	617
13	0	0	0	0	523	617
14	0	0	0	0	523	617
15	0	0	0	0	522	617
0	0	0	0	0	521	618
1	0	0	0	0	520	617
2	0	0	0	0	521	617
3	0	0	0	0	521	617
4	0	0	0	0	521	617
5	0	0	0	0	521	617
6	0	0	0	0	520	617
7	0	0	0	0	519	616
8	0	0	0	0	519	617
9	0	0	0	0	522	616
10	0	0	0	0	523	617
11	0	0	0	0	524	617
12	0	0	0	0	524	616
13	0	0	0	0	525	617
14	0	0	0	0	526	616
15	0	0	0	0	527	615
0	0	0	0	0	528	616
1	0	0	0	0	528	616
2	0	0	0	0	528	615
3	0	0	0	0	528	615
4	0	0	0	0	529	615
5	0	0	0	0	529	616
6	0	0	0	0	530	615
7	0	0	0	0	530	615
8	0	0	0	0	529	616
9	0	0	0	0	529	615
10	0	0	0	0	528	615
11	0	0	0	0	527	615
12	0	0	0	0	526	615
13	0	0	0	0	526	615
14	0	0	0	0	524	615
15	0	0	0	0	522	615
0	0	0	0	0	522	616
1	0	0	0	0	523	615
2	0	0	0	0	524	615
3	0	0	0	0	524	615
4	0	0	0	0	524	615
5	0	0	0	0	524	615
6	0	0	0	0	524	615
7	0	0	0	0	524	615
8	0	0	0	0	523	615
9	0	0	0	0	522	615
10	0	0	0	0	521	615
11	0	0	0	0	520	615
12	0	0	0	0	520	615
13	0	0	0	0	519	615
14	0	0	0	0	516	615
15	0	0	0	0	513	615
0	0	0	0	0	510	615
1	0	0	0	0	507	615
2	0	0	0	0	504	615
3	0	0	0	0	502	615
4	0	0	0	0	500	615
5	0	0	0	0	500	615
6	0	0	0	0	500	615
7	0	0	0	0	499	615
8	0	0	0	0	497	615
9	0	0	0	0	496	615
10	0	0	0	0	496	615
11	0	0	0	0	494	615
12	0	0	0	0	493	615
13	0	0	0	0	494	616
14	0	0	0	0	493	616
15	0	0	0	0	493	615
0	0	0	0	0	495	616
1	0	0	0	0	500	615
2	0	0	0	0	506	615
3	0	0	0	0	513	615
4	0	0	0	0	521	616
5	0	0	0	0	531	616
6	0	0	0	0	541	615
7	0	0	0	0	551	615
8	0	0	0	0	563	616
9	0	0	0	0	576	616
10	0	0	0	0	590	616
11	0	0	0	0	605	616
12	0	0	0	0	619	616
13	0	0	0	0	632	616
14	0	0	0	0	645	616
15	0	0	0	0	657	617
0	0	0	0	0	667	617
1	0	0	0	0	673	617
2	0	0	0	0	675	616
3	0	0	0	0	673	617
4	0	0	0	0	670	617
5	0	0	0	0	664	617
6	0	0	0	0	656	617
7	0	0	0	0	649	617
8	0	0	0	0	642	618
9	0	0	0	0	633	618
10	0	0	0	0	619	618
11	0	0	0	0	603	617
12	0	0	0	0	589	618
13	0	0	0	0	577	619
14	0	0	0	0	569	618
15	0	0	0	0	563	618
0	0	0	0	0	557	618
1	0	0	0	0	552	618
2	0	0	0	0	546	619
3	0	0	0	0	542	618
4	0	0	0	0	537	619
5	0	0	0	0	534	619
6	0	0	0	0	533	619
7	0	0	0	0	533	619
8	0	0	0	0	533	619
9	0	0	0	0	533	619
10	0	0	0	0	533	618
11	0	0	0	0	532	619
12	0	0	0	0	530	618
13	0	0	0	0	529	618
14	0	0	0	0	529	618
15	0	0	0	0	528	619
0	0	0	0	0	527	620
1	0	0	0	0	525	618
2	0	0	0	0	524	619
3	0	0	0	0	522	619
4	0	0	0	0	520	619
5	0	0	0	0	519	619
6	0	0	0	0	517	619
7	0	0	0	0	515	619
8	0	0	0	0	513	619
9	0	0	0	0	512	618
10	0	0	0	0	511	618
11	0	0	0	0	509	618
12	0	0	0	0	507	618
13	0	0	0	0	504	618
14	0	0	0	0	502	618
15	0	0	0	0	500	619
0	0	0	0	0	498	619
1	0	0	0	0	496	617
2	0	0	0	0	494	618
3	0	0	0	0	492	618
4	0	0	0	0	491	617
5	0	0	0	0	491	618
6	0	0	0	0	490	618
7	0	0	0	0	489	618
8	0	0	0	0	489	618
9	0	0	0	0	489	617
10	0	0	0	0	489	618
11	0	0	0	0	488	617
12	0	0	0	0	489	618
13	0	0	0	0	491	617
14	0	0	0	0	493	618
15	0	0	0	0	496	617
0	0	0	0	0	498	619
1	0	0	0	0	499	618
2	0	0	0	0	500	617
3	0	0	0	0	500	617
4	0	0	0	0	501	617
5	0	0	0	0	501	617
6	0	0	0	0	500	617
7	0	0	0	0	500	617
8	0	0	0	0	500	617
9	0	0	0	0	499	617
10	0	0	0	0	499	616
11	0	0	0	0	499	616
12	0	0	0	0	498	616
13	0	0	0	0	499	616
14	0	0	0	0	500	616
15	0	0	0	0	500	615
0	0	0	0	0	500	616
1	0	0	0	0	500	615
2	0	0	0	0	499	615
3	0	0	0	0	499	615
4	0	0	0	0	500	615
5	0	0	0	0	501	615
6	0	0	0	0	502	615
7	0	0	0	0	502	615
8	0	0	0	0	500	615
9	0	0	0	0	499	614
10	0	0	0	0	499	615
11	0	0	0	0	500	614
12	0	0	0	0	500	614
13	0	0	0	0	500	614
14	0	0	0	0	501	614
15	0	0	0	0	501	615
0	0	0	0	0	501	614
1	0	0	0	0	501	613
2	0	0	0	0	501	614
3	0	0	0	0	502	614
4	0	0	0	0	500	614
5	0	0	0	0	501	614
6	0	0	0	0	501	614
7	0	0	0	0	501	615
8	0	0	0	0	500	615
9	0	0	0	0	499	615
10	0	0	0	0	497	615
11	0	0	0	0	497	615
12	0	0	0	0	498	615
13	0	0	0	0	499	615
14	0	0	0	0	499	615
15	0	0	0	0	500	616
0	0	0	0	0	500	616
1	0	0	0	0	500	615
2	0	0	0	0	501	616
3	0	0	0	0	501	616
4	0	0	0	0	502	616
5	0	0	0	0	502	616
6	0	0	0	0	503	616
7	0	0	0	0	504	615
8	0	0	0	0	505	616
9	0	0	0	0	506	615
10	0	0	0	0	507	615
11	0	0	0	0	508	615
12	0	0	0	0	509	615
13	0	0	0	0	510	615
14	0	0	0	0	511	615
15	0	0	0	0	512	615
0	0	0	0	0	512	615
1	0	0	0	0	511	615
2	0	0	0	0	509	615
3	0	0	0	0	508	615
4	0	0	0	0	507	615
5	0	0	0	0	507	615
6	0	0	0	0	505	615
7	0	0	0	0	505	615
8	0	0	0	0	505	616
9	0	0	0	0	505	615
10	0	0	0	0	506	615
11	0	0	0	0	508	615
12	0	0	0	0	509	615
13	0	0	0	0	509	614
14	0	0	0	0	510	615
15	0	0	0	0	509	615
0	0	0	0	0	508	615
1	0	0	0	0	508	615
2	0	0	0	0	509	615
3	0	0	0	0	509	615
4	0	0	0	0	510	615
5	0	0	0	0	511	616
6	0	0	0	0	511	616
7	0	0	0	0	512	615
8	0	0	0	0	512	616
9	0	0	0	0	512	615
10	0	0	0	0	513	615
11	0	0	0	0	512	616
12	0	0	0	0	512	615
13	0	0	0	0	512	615
14	0	0	0	0	511	615
15	0	0	0	0	512	615
0	0	0	0	0	512	616
1	0	0	0	0	512	615
2	0	0	0	0	512	616
3	0	0	0	0	512	615
4	0	0	0	0	512	616
5	0	0	0	0	511	616
6	0	0	0	0	511	616
7	0	0	0	0	510	616
8	0	0	0	0	508	617
9	0	0	0	0	505	616
10	0	0	0	0	503	616
11	0	0	0	0	501	617
12	0	0	0	0	500	617
13	0	0	0	0	500	617
14	0	0	0	0	500	617
15	0	0	0	0	501	617
0	0	0	0	0	503	617
1	0	0	0	0	505	617
2	0	0	0	0	508	618
3	0	0	0	0	511	618
4	0	0	0	0	514	618
5	0	0	0	0	515	619
6	0	0	0	0	517	618
7	0	0	0	0	519	619
8	0	0	0	0	521	620
9	0	0	0	0	523	620
10	0	0	0	0	523	619
11	0	0	0	0	524	619
12	0	0	0	0	524	620
13	0	0	0	0	524	620
14	0	0	0	0	523	620
15	0	0	0	0	522	620
0	0	0	0	0	521	621
1	0	0	0	0	520	620
2	0	0	0	0	520	620
3	0	0	0	0	520	620
4	0	0	0	0	520	620
5	0	0	0	0	519	619
6	0	0	0	0	519	619
7	0	0	0	0	517	619
8	0	0	0	0	516	620
9	0	0	0	0	516	619
10	0	0	0	0	518	619
11	0	0	0	0	520	619
12	0	0	0	0	524	619
13	0	0	0	0	526	619
14	0	0	0	0	527	618
15	0	0	0	0	527	619
0	0	0	0	0	528	619
1	0	0	0	0	527	618
2	0	0	0	0	526	618
3	0	0	0	0	527	617
4	0	0	0	0	526	618
5	0	0	0	0	527	617
6	0	0	0	0	528	617
7	0	0	0	0	530	617
8	0	0	0	0	532	617
9	0	0	0	0	535	617
10	0	0	0	0	536	617
11	0	0	0	0	537	617
12	0	0	0	0	539	616
13	0	0	0	0	540	616
14	0	0	0	0	540	616
15	0	0	0	0	540	616
0	0	0	0	0	539	616
1	0	0	0	0	538	616
2	0	0	0	0	538	616
3	0	0	0	0	537	617
4	0	0	0	0	537	616
5	0	0	0	0	539	616
6	0	0	0	0	540	617
7	0	0	0	0	540	617
8	0	0	0	0	539	617
9	0	0	0	0	538	616
10	0	0	0	0	538	616
11	0	0	0	0	539	616
12	0	0	0	0	539	615
13	0	0	0	0	539	615
14	0	0	0	0	538	615
15	0	0	0	0	539	616
0	0	0	0	0	539	617
1	0	0	0	0	539	616
2	0	0	0	0	539	616
3	0	0	0	0	539	616
4	0	0	0	0	540	616
5	0	0	0	0	540	616
6	0	0	0	0	541	616
7	0	0	0	0	541	616
8	0	0	0	0	542	616
9	0	0	0	0	542	616
10	0	0	0	0	541	616
11	0	0	0	0	540	615
12	0	0	0	0	540	616
13	0	0	0	0	540	615
14	0	0	0	0	540	615
15	0	0	0	0	539	615
0	0	0	0	0	536	616
1	0	0	0	0	534	615
2	0	0	0	0	532	615
3	0	0	0	0	530	616
4	0	0	0	0	529	615
5	0	0	0	0	528	616
6	0	0	0	0	526	615
7	0	0	0	0	524	615
8	0	0	0	0	523	616
9	0	0	0	0	522	615
10	0	0	0	0	523	615
11	0	0	0	0	523	615
12	0	0	0	0	523	615
13	0	0	0	0	522	615
14	0	0	0	0	521	616
15	0	0	0	0	521	615
0	0	0	0	0	520	616
1	0	0	0	0	520	615
2	0	0	0	0	518	616
3	0	0	0	0	517	616
4	0	0	0	0	515	616
5	0	0	0	0	512	616
6	0	0	0	0	509	616
7	0	0	0	0	507	616
8	0	0	0	0	505	616
9	0	0	0	0	503	616
10	0	0	0	0	500	617
11	0	0	0	0	497	617
12	0	0	0	0	496	617
13	0	0	0	0	495	617
14	0	0	0	0	495	617
15	0	0	0	0	495	617
0	0	0	0	0	492	617
1	0	0	0	0	490	617
2	0	0	0	0	489	616
3	0	0	0	0	488	616
4	0	0	0	0	488	616
5	0	0	0	0	489	617
6	0	0	0	0	491	617
7	0	0	0	0	493	617
8	0	0	0	0	495	617
9	0	0	0	0	496	616
10	0	0	0	0	496	617
11	0	0	0	0	495	616
12	0	0	0	0	494	616
13	0	0	0	0	494	617
14	0	0	0	0	493	616
15	0	0	0	0	493	617
0	0	0	0	0	493	617
1	0	0	0	0	492	616
2	0	0	0	0	492	617
3	0	0	0	0	492	617
4	0	0	0	0	492	617
5	0	0	0	0	491	617
6	0	0	0	0	490	617
7	0	0	0	0	489	616
8	0	0	0	0	489	617
9	0	0	0	0	490	617
10	0	0	0	0	492	617
11	0	0	0	0	492	616
12	0	0	0	0	492	617
13	0	0	0	0	492	617
14	0	0	0	0	492	617
15	0	0	0	0	491	617
0	0	0	0	0	489	618
1	0	0	0	0	491	617
2	0	0	0	0	492	617
3	0	0	0	0	492	617
4	0	0	0	0	492	617
5	0	0	0	0	492	617
6	0	0	0	0	491	617
7	0	0	0	0	491	617
8	0	0	0	0	491	618
9	0	0	0	0	490	617
10	0	0	0	0	491	617
11	0	0	0	0	492	617
12	0	0	0	0	492	617
13	0	0	0	0	492	618
14	0	0	0	0	492	617
15	0	0	0	0	492	617
0	0	0	0	0	492	618
1	0	0	0	0	492	617
2	0	0	0	0	492	617
3	0	0	0	0	492	617
4	0	0	0	0	493	617
5	0	0	0	0	493	618
6	0	0	0	0	493	617
7	0	0	0	0	493	617
8	0	0	0	0	493	618
9	0	0	0	0	494	616
10	0	0	0	0	494	617
11	0	0	0	0	495	617
12	0	0	0	0	495	617
13	0	0	0	0	495	617
14	0	0	0	0	495	618
15	0	0	0	0	495	617
0	0	0	0	0	495	617
1	0	0	0	0	494	617
2	0	0	0	0	495	616
3	0	0	0	0	494	616
4	0	0	0	0	494	616
5	0	0	0	0	493	616
6	0	0	0	0	492	616
7	0	0	0	0	493	616
8	0	0	0	0	493	616
9	0	0	0	0	492	616
10	0	0	0	0	492	616
11	0	0	0	0	491	615
12	0	0	0	0	489	615
13	0	0	0	0	489	615
14	0	0	0	0	489	615
15	0	0	0	0	489	615
0	0	0	0	0	489	615
1	0	0	0	0	490	615
2	0	0	0	0	492	615
3	0	0	0	0	493	615
4	0	0	0	0	495	615
5	0	0	0	0	496	615
6	0	0	0	0	497	615
7	0	0	0	0	498	615
8	0	0	0	0	499	615
9	0	0	0	0	501	616
10	0	0	0	0	501	615
11	0	0	0	0	501	616
12	0	0	0	0	499	616
13	0	0	0	0	498	616
14	0	0	0	0	496	616
15	0	0	0	0	495	616
0	0	0	0	0	495	617
1	0	0	0	0	496	617
2	0	0	0	0	497	617
3	0	0	0	0	498	617
4	0	0	0	0	499	617
5	0	0	0	0	501	617
6	0	0	0	0	502	617
7	0	0	0	0	504	616
8	0	0	0	0	505	617
9	0	0	0	0	507	617
10	0	0	0	0	509	616
11	0	0	0	0	510	617
12	0	0	0	0	509	617
13	0	0	0	0	508	617
14	0	0	0	0	508	617
15	0	0	0	0	508	618
0	0	0	0	0	508	617
1	0	0	0	0	507	617
2	0	0	0	0	505	617
3	0	0	0	0	506	616
4	0	0	0	0	505	617
5	0	0	0	0	504	617
6	0	0	0	0	504	616
7	0	0	0	0	503	616
8	0	0	0	0	502	617
9	0	0	0	0	501	616
10	0	0	0	0	501	616
11	0	0	0	0	500	615
12	0	0	0	0	501	616
13	0	0	0	0	500	615
14	0	0	0	0	499	616
15	0	0	0	0	499	616
0	0	0	0	0	500	616
1	0	0	0	0	501	615
2	0	0	0	0	502	615
3	0	0	0	0	504	616
4	0	0	0	0	505	615
5	0	0	0	0	506	615
6	0	0	0	0	506	615
7	0	0	0	0	507	615
8	0	0	0	0	508	616
9	0	0	0	0	507	615
10	0	0	0	0	506	615
11	0	0	0	0	506	616
12	0	0	0	0	505	615
13	0	0	0	0	506	615
14	0	0	0	0	506	615
15	0	0	0	0	507	615
0	0	0	0	0	507	615
1	0	0	0	0	507	615
2	0	0	0	0	506	615
3	0	0	0	0	505	615
4	0	0	0	0	504	616
5	0	0	0	0	504	616
6	0	0	0	0	504	615
7	0	0	0	0	503	615
8	0	0	0	0	503	616
9	0	0	0	0	504	615
10	0	0	0	0	504	615
11	0	0	0	0	506	616
12	0	0	0	0	506	617
13	0	0	0	0	507	616
14	0	0	0	0	508	616
15	0	0	0	0	508	615
0	0	0	0	0	508	616
1	0	0	0	0	508	616
2	0	0	0	0	508	616
3	0	0	0	0	509	616
4	0	0	0	0	508	616
5	0	0	0	0	508	616
6	0	0	0	0	509	616
7	0	0	0	0	509	616
8	0	0	0	0	510	616
9	0	0	0	0	511	616
10	0	0	0	0	512	615
11	0	0	0	0	513	615
12	0	0	0	0	513	615
13	0	0	0	0	513	615
14	0	0	0	0	514	615
15	0	0	0	0	515	615
0	0	0	0	0	515	615
1	0	0	0	0	516	615
2	0	0	0	0	516	615
3	0	0	0	0	515	615
4	0	0	0	0	513	615
5	0	0	0	0	511	615
6	0	0	0	0	510	615
7	0	0	0	0	508	615
8	0	0	0	0	507	615
9	0	0	0	0	506	615
10	0	0	0	0	506	615
11	0	0	0	0	507	615
12	0	0	0	0	507	615
13	0	0	0	0	507	615
14	0	0	0	0	506	615
15	0	0	0	0	507	615
0	0	0	0	0	507	615
1	0	0	0	0	508	615
2	0	0	0	0	509	615
3	0	0	0	0	509	615
4	0	0	0	0	509	615
5	0	0	0	0	510	615
6	0	0	0	0	509	614
7	0	0	0	0	509	615
8	0	0	0	0	509	615
9	0	0	0	0	510	615
10	0	0	0	0	513	614
11	0	0	0	0	515	615
12	0	0	0	0	517	615
13	0	0	0	0	519	615
14	0	0	0	0	518	615
15	0	0	0	0	517	615
0	0	0	0	0	516	616
1	0	0	0	0	515	616
2	0	0	0	0	514	616
3	0	0	0	0	514	616
4	0	0	0	0	513	615
5	0	0	0	0	513	615
6	0	0	0	0	514	615
7	0	0	0	0	514	615
8	0	0	0	0	515	616
9	0	0	0	0	514	615
10	0	0	0	0	513	615
11	0	0	0	0	512	615
12	0	0	0	0	512	616
13	0	0	0	0	510	617
14	0	0	0	0	508	616
15	0	0	0	0	506	616
0	0	0	0	0	503	617
1	0	0	0	0	500	616
2	0	0	0	0	499	616
3	0	0	0	0	498	617
4	0	0	0	0	497	616
5	0	0	0	0	498	616
6	0	0	0	0	500	617
7	0	0	0	0	502	617
8	0	0	0	0	504	617
9	0	0	0	0	507	617
10	0	0	0	0	509	617
11	0	0	0	0	511	616
12	0	0	0	0	512	617
13	0	0	0	0	514	616
14	0	0	0	0	517	617
15	0	0	0	0	519	617
0	0	0	0	0	521	617
1	0	0	0	0	521	617
2	0	0	0	0	520	616
3	0	0	0	0	520	617
4	0	0	0	0	519	616
5	0	0	0	0	518	617
6	0	0	0	0	517	617
7	0	0	0	0	517	616
8	0	0	0	0	517	617
9	0	0	0	0	518	617
10	0	0	0	0	518	617
11	0	0	0	0	518	617
12	0	0	0	0	518	617
13	0	0	0	0	518	618
14	0	0	0	0	518	617
15	0	0	0	0	518	617
0	0	0	0	0	518	619
1	0	0	0	0	518	617
2	0	0	0	0	518	618
3	0	0	0	0	518	618
4	0	0	0	0	517	618
5	0	0	0	0	517	618
6	0	0	0	0	516	618
7	0	0	0	0	515	618
8	0	0	0	0	513	618
9	0	0	0	0	512	618
10	0	0	0	0	511	618
11	0	0	0	0	511	618
12	0	0	0	0	510	619
13	0	0	0	0	509	619
14	0	0	0	0	508	619
15	0	0	0	0	508	619
0	0	0	0	0	508	619
1	0	0	0	0	508	619
2	0	0	0	0	507	619
3	0	0	0	0	507	619
4	0	0	0	0	508	619
5	0	0	0	0	507	619
6	0	0	0	0	507	618
7	0	0	0	0	505	619
8	0	0	0	0	504	619
9	0	0	0	0	503	619
10	0	0	0	0	502	618
11	0	0	0	0	502	618
12	0	0	0	0	502	618
13	0	0	0	0	504	618
14	0	0	0	0	505	617
15	0	0	0	0	507	617
0	0	0	0	0	509	619
1	0	0	0	0	511	617
2	0	0	0	0	511	617
3	0	0	0	0	511	617
4	0	0	0	0	512	616
5	0	0	0	0	512	616
6	0	0	0	0	513	617
7	0	0	0	0	513	617
8	0	0	0	0	514	618
9	0	0	0	0	514	617
10	0	0	0	0	514	617
11	0	0	0	0	514	617
12	0	0	0	0	513	617
13	0	0	0	0	512	617
14	0	0	0	0	512	617
15	0	0	0	0	511	616
0	0	0	0	0	511	617
1	0	0	0	0	512	617
2	0	0	0	0	513	617
3	0	0	0	0	513	616
4	0	0	0	0	514	617
5	0	0	0	0	515	617
6	0	0	0	0	516	617
7	0	0	0	0	518	617
8	0	0	0	0	518	618
9	0	0	0	0	517	617
10	0	0	0	0	516	617
11	0	0	0	0	514	616
12	0	0	0	0	513	617
13	0	0	0	0	512	617
14	0	0	0	0	514	617
15	0	0	0	0	515	618
0	0	0	0	0	515	618
1	0	0	0	0	515	617
2	0	0	0	0	514	617
3	0	0	0	0	514	617
4	0	0	0	0	513	617
5	0	0	0	0	514	617
6	0	0	0	0	514	617
7	0	0	0	0	514	617
8	0	0	0	0	514	618
9	0	0	0	0	513	618
10	0	0	0	0	512	617
11	0	0	0	0	512	617
12	0	0	0	0	512	617
13	0	0	0	0	511	617
14	0	0	0	0	511	617
15	0	0	0	0	510	617
0	0	0	0	0	511	618
1	0	0	0	0	510	617
2	0	0	0	0	510	617
3	0	0	0	0	511	617
4	0	0	0	0	511	617
5	0	0	0	0	510	617
6	0	0	0	0	509	616
7	0	0	0	0	508	617
8	0	0	0	0	507	618
9	0	0	0	0	507	617
10	0	0	0	0	507	617
11	0	0	0	0	507	617
12	0	0	0	0	508	617
13	0	0	0	0	508	618
14	0	0	0	0	507	617
15	0	0	0	0	507	617
0	0	0	0	0	507	619
1	0	0	0	0	507	618
2	0	0	0	0	506	618
3	0	0	0	0	505	619
4	0	0	0	0	504	618
5	0	0	0	0	503	619
6	0	0	0	0	502	618
7	0	0	0	0	501	618
8	0	0	0	0	500	619
9	0	0	0	0	499	619
10	0	0	0	0	499	619
11	0	0	0	0	500	619
12	0	0	0	0	502	620
13	0	0	0	0	504	619
14	0	0	0	0	504	619
15	0	0	0	0	504	619
0	0	0	0	0	503	620
1	0	0	0	0	501	619
2	0	0	0	0	500	619
3	0	0	0	0	500	619
4	0	0	0	0	500	618
5	0	0	0	0	502	619
6	0	0	0	0	505	618
7	0	0	0	0	509	619
8	0	0	0	0	511	619
9	0	0	0	0	512	618
10	0	0	0	0	515	618
11	0	0	0	0	516	618
12	0	0	0	0	517	619
13	0	0	0	0	516	619
14	0	0	0	0	516	618
15	0	0	0	0	516	617
0	0	0	0	0	517	619
1	0	0	0	0	517	618
2	0	0	0	0	519	618
3	0	0	0	0	519	618
4	0	0	0	0	519	617
5	0	0	0	0	518	618
6	0	0	0	0	516	617
7	0	0	0	0	514	617
8	0	0	0	0	513	617
9	0	0	0	0	512	617
10	0	0	0	0	511	617
11	0	0	0	0	510	616
12	0	0	0	0	512	616
13	0	0	0	0	512	616
14	0	0	0	0	513	617
15	0	0	0	0	515	616
0	0	0	0	0	516	617
1	0	0	0	0	518	616
2	0	0	0	0	518	616
3	0	0	0	0	519	615
4	0	0	0	0	519	615
5	0	0	0	0	519	616
6	0	0	0	0	519	615
7	0	0	0	0	519	615
8	0	0	0	0	520	616
9	0	0	0	0	519	615
10	0	0	0	0	519	615
11	0	0	0	0	519	616
12	0	0	0	0	519	616
13	0	0	0	0	519	615
14	0	0	0	0	520	616
15	0	0	0	0	519	615
0	0	0	0	0	517	616
1	0	0	0	0	516	615
2	0	0	0	0	515	615
3	0	0	0	0	516	615
4	0	0	0	0	515	615
5	0	0	0	0	515	615
6	0	0	0	0	515	615
7	0	0	0	0	514	615
8	0	0	0	0	513	615
9	0	0	0	0	513	615
10	0	0	0	0	513	615
11	0	0	0	0	512	615
12	0	0	0	0	512	615
13	0	0	0	0	512	615
14	0	0	0	0	512	615
15	0	0	0	0	513	615
0	0	0	0	0	512	616
1	0	0	0	0	512	615
2	0	0	0	0	511	615
3	0	0	0	0	509	615
4	0	0	0	0	508	615
5	0	0	0	0	507	615
6	0	0	0	0	507	615
7	0	0	0	0	507	615
8	0	0	0	0	507	616
9	0	0	0	0	508	615
10	0	0	0	0	508	615
11	0	0	0	0	507	615
12	0	0	0	0	507	616
13	0	0	0	0	505	615
14	0	0	0	0	504	615
15	0	0	0	0	503	616
0	0	0	0	0	502	617
1	0	0	0	0	503	615
2	0	0	0	0	505	615
3	0	0	0	0	508	616
4	0	0	0	0	511	615
5	0	0	0	0	512	616
6	0	0	0	0	513	616
7	0	0	0	0	515	616
8	0	0	0	0	515	617
9	0	0	0	0	515	616
10	0	0	0	0	515	616
11	0	0	0	0	516	616
12	0	0	0	0	516	616
13	0	0	0	0	518	616
14	0	0	0	0	517	616
15	0	0	0	0	517	616
0	0	0	0	0	516	617
1	0	0	0	0	516	616
2	0	0	0	0	516	616
3	0	0	0	0	516	616
4	0	0	0	0	515	615
5	0	0	0	0	515	615
6	0	0	0	0	515	615
7	0	0	0	0	514	615
8	0	0	0	0	513	616
9	0	0	0	0	512	617
10	0	0	0	0	511	616
11	0	0	0	0	509	615
12	0	0	0	0	507	616
13	0	0	0	0	505	616
14	0	0	0	0	503	616
15	0	0	0	0	501	616
0	0	0	0	0	500	616
1	0	0	0	0	498	615
2	0	0	0	0	498	615
3	0	0	0	0	500	615
4	0	0	0	0	502	616
5	0	0	0	0	505	616
6	0	0	0	0	507	615
7	0	0	0	0	508	616
8	0	0	0	0	509	617
9	0	0	0	0	511	615
10	0	0	0	0	512	615
11	0	0	0	0	513	615
12	0	0	0	0	515	616
13	0	0	0	0	516	616
14	0	0	0	0	519	617
15	0	0	0	0	521	616
0	0	0	0	0	522	617
1	0	0	0	0	522	616
2	0	0	0	0	521	617
3	0	0	0	0	521	617
4	0	0	0	0	520	616
5	0	0	0	0	519	617
6	0	0	0	0	517	616
7	0	0	0	0	515	617
8	0	0	0	0	512	618
9	0	0	0	0	510	616
10	0	0	0	0	508	617
11	0	0	0	0	505	616
12	0	0	0	0	503	616
13	0	0	0	0	500	617
14	0	0	0	0	498	616
15	0	0	0	0	496	617
0	0	0	0	0	493	617
1	0	0	0	0	490	616
2	0	0	0	0	487	616
3	0	0	0	0	486	616
4	0	0	0	0	483	616
5	0	0	0	0	481	615
6	0	0	0	0	479	615
7	0	0	0	0	478	615
8	0	0	0	0	476	616
9	0	0	0	0	475	616
10	0	0	0	0	475	616
11	0	0	0	0	476	616
12	0	0	0	0	476	616
13	0	0	0	0	480	615
14	0	0	0	0	486	616
15	0	0	0	0	491	616
0	0	0	0	0	498	617
1	0	0	0	0	505	616
2	0	0	0	0	515	616
3	0	0	0	0	526	616
4	0	0	0	0	539	616
5	0	0	0	0	552	616
6	0	0	0	0	567	616
7	0	0	0	0	582	616
8	0	0	0	0	596	617
9	0	0	0	0	612	616
10	0	0	0	0	626	615
11	0	0	0	0	639	616
12	0	0	0	0	651	616
13	0	0	0	0	659	616
14	0	0	0	0	663	616
15	0	0	0	0	664	616
0	0	0	0	0	662	616
1	0	0	0	0	658	616
2	0	0	0	0	652	616
3	0	0	0	0	647	616
4	0	0	0	0	641	616
5	0	0	0	0	635	616
6	0	0	0	0	628	615
7	0	0	0	0	618	615
8	0	0	0	0	608	616
9	0	0	0	0	597	615
10	0	0	0	0	588	615
11	0	0	0	0	580	615
12	0	0	0	0	574	615
13	0	0	0	0	565	615
14	0	0	0	0	558	616
15	0	0	0	0	551	615
0	0	0	0	0	546	616
1	0	0	0	0	543	615
2	0	0	0	0	539	616
3	0	0	0	0	535	615
4	0	0	0	0	531	615
5	0	0	0	0	528	616
6	0	0	0	0	525	615
7	0	0	0	0	522	615
8	0	0	0	0	519	617
9	0	0	0	0	515	616
10	0	0	0	0	513	616
11	0	0	0	0	510	616
12	0	0	0	0	507	615
13	0	0	0	0	504	616
14	0	0	0	0	503	616
15	0	0	0	0	500	616
0	0	0	0	0	499	616
1	0	0	0	0	498	615
2	0	0	0	0	497	616
3	0	0	0	0	495	615
4	0	0	0	0	494	615
5	0	0	0	0	492	615
6	0	0	0	0	491	615
7	0	0	0	0	490	615
8	0	0	0	0	489	616
9	0	0	0	0	487	615
10	0	0	0	0	485	615
11	0	0	0	0	484	615
12	0	0	0	0	483	615
13	0	0	0	0	483	615
14	0	0	0	0	482	615
15	0	0	0	0	480	615
0	0	0	0	0	480	616
1	0	0	0	0	478	616
2	0	0	0	0	477	616
3	0	0	0	0	476	615
4	0	0	0	0	475	615
5	0	0	0	0	474	615
6	0	0	0	0	474	615
7	0	0	0	0	473	616
8	0	0	0	0	473	616
9	0	0	0	0	473	615
10	0	0	0	0	472	616
11	0	0	0	0	471	616
12	0	0	0	0	472	616
13	0	0	0	0	474	617
14	0	0	0	0	475	616
15	0	0	0	0	476	617
0	0	0	0	0	478	616
1	0	0	0	0	480	616
2	0	0	0	0	482	616
3	0	0	0	0	483	616
4	0	0	0	0	483	616
5	0	0	0	0	482	617
6	0	0	0	0	483	617
7	0	0	0	0	483	616
8	0	0	0	0	483	617
9	0	0	0	0	483	617
10	0	0	0	0	483	617
11	0	0	0	0	484	617
12	0	0	0	0	485	617
13	0	0	0	0	486	617
14	0	0	0	0	486	617
15	0	0	0	0	487	616
0	0	0	0	0	487	617
1	0	0	0	0	487	617
2	0	0	0	0	487	616
3	0	0	0	0	486	617
4	0	0	0	0	487	617
5	0	0	0	0	487	616
6	0	0	0	0	487	616
7	0	0	0	0	488	617
8	0	0	0	0	488	618
9	0	0	0	0	489	617
10	0	0	0	0	491	617
11	0	0	0	0	492	616
12	0	0	0	0	493	617
13	0	0	0	0	494	617
14	0	0	0	0	494	616
15	0	0	0	0	494	617
0	0	0	0	0	493	617
1	0	0	0	0	492	617
2	0	0	0	0	492	617
3	0	0	0	0	491	617
4	0	0	0	0	490	617
5	0	0	0	0	488	617
6	0	0	0	0	486	617
7	0	0	0	0	484	617
8	0	0	0	0	483	617
9	0	0	0	0	481	617
10	0	0	0	0	480	617
11	0	0	0	0	481	617
12	0	0	0	0	480	617
13	0	0	0	0	480	616
14	0	0	0	0	479	617
15	0	0	0	0	479	617
0	0	0	0	0	480	618
1	0	0	0	0	481	617
2	0	0	0	0	483	617
3	0	0	0	0	484	617
4	0	0	0	0	486	617
5	0	0	0	0	486	617
6	0	0	0	0	487	617
7	0	0	0	0	487	616
8	0	0	0	0	488	617
9	0	0	0	0	489	617
10	0	0	0	0	488	616
11	0	0	0	0	487	616
12	0	0	0	0	487	616
13	0	0	0	0	486	616
14	0	0	0	0	485	616
15	0	0	0	0	485	616
0	0	0	0	0	483	617
1	0	0	0	0	483	615
2	0	0	0	0	482	616
3	0	0	0	0	480	615
4	0	0	0	0	480	615
5	0	0	0	0	480	615
6	0	0	0	0	480	615
7	0	0	0	0	480	615
8	0	0	0	0	480	615
9	0	0	0	0	481	615
10	0	0	0	0	481	615
11	0	0	0	0	481	615
12	0	0	0	0	481	615
13	0	0	0	0	483	615
14	0	0	0	0	484	615
15	0	0	0	0	486	615
0	0	0	0	0	487	615
1	0	0	0	0	488	615
2	0	0	0	0	489	615
3	0	0	0	0	491	615
4	0	0	0	0	491	615
5	0	0	0	0	491	615
6	0	0	0	0	491	615
7	0	0	0	0	491	615
8	0	0	0	0	492	617
9	0	0	0	0	491	616
10	0	0	0	0	490	616
11	0	0	0	0	488	616
12	0	0	0	0	488	616
13	0	0	0	0	489	616
14	0	0	0	0	489	617
15	0	0	0	0	489	617
0	0	0	0	0	489	617
1	0	0	0	0	488	617
2	0	0	0	0	488	617
3	0	0	0	0	487	617
4	0	0	0	0	486	618
5	0	0	0	0	485	617
6	0	0	0	0	483	618
7	0	0	0	0	481	618
8	0	0	0	0	482	619
9	0	0	0	0	483	618
10	0	0	0	0	483	618
11	0	0	0	0	484	618
12	0	0	0	0	483	617
13	0	0	0	0	484	617
14	0	0	0	0	483	618
15	0	0	0	0	483	617
0	0	0	0	0	480	618
1	0	0	0	0	477	618
2	0	0	0	0	475	617
3	0	0	0	0	473	618
4	0	0	0	0	472	617
5	0	0	0	0	472	618
6	0	0	0	0	474	618
7	0	0	0	0	479	618
8	0	0	0	0	483	618
9	0	0	0	0	488	618
10	0	0	0	0	492	618
11	0	0	0	0	495	618
12	0	0	0	0	497	617
13	0	0	0	0	499	618
14	0	0	0	0	500	618
15	0	0	0	0	501	617
0	0	0	0	0	501	618
1	0	0	0	0	501	616
2	0	0	0	0	502	617
3	0	0	0	0	499	617
4	0	0	0	0	498	617
5	0	0	0	0	496	617
6	0	0	0	0	495	618
7	0	0	0	0	494	617
8	0	0	0	0	494	618
9	0	0	0	0	495	617
10	0	0	0	0	495	617
11	0	0	0	0	496	617
12	0	0	0	0	497	617
13	0	0	0	0	498	617
14	0	0	0	0	499	617
15	0	0	0	0	500	617
0	0	0	0	0	501	617
1	0	0	0	0	503	616
2	0	0	0	0	503	617
3	0	0	0	0	504	616
4	0	0	0	0	505	617
5	0	0	0	0	505	617
6	0	0	0	0	506	616
7	0	0	0	0	506	617
8	0	0	0	0	506	618
9	0	0	0	0	505	617
10	0	0	0	0	505	617
11	0	0	0	0	504	617
12	0	0	0	0	506	617
13	0	0	0	0	505	617
14	0	0	0	0	505	617
15	0	0	0	0	505	616
0	0	0	0	0	505	617
1	0	0	0	0	505	617
2	0	0	0	0	505	617
3	0	0	0	0	506	618
4	0	0	0	0	506	617
5	0	0	0	0	506	616
6	0	0	0	0	506	617
7	0	0	0	0	504	616
8	0	0	0	0	503	617
9	0	0	0	0	503	616
10	0	0	0	0	501	616
11	0	0	0	0	500	617
12	0	0	0	0	500	617
13	0	0	0	0	501	617
14	0	0	0	0	503	617
15	0	0	0	0	503	617
0	0	0	0	0	504	618
1	0	0	0	0	507	617
2	0	0	0	0	510	617
3	0	0	0	0	509	617
4	0	0	0	0	508	616
5	0	0	0	0	507	617
6	0	0	0	0	506	617
7	0	0	0	0	506	617
8	0	0	0	0	505	617
9	0	0	0	0	506	618
10	0	0	0	0	507	617
11	0	0	0	0	510	617
12	0	0	0	0	513	617
13	0	0	0	0	515	618
14	0	0	0	0	516	618
15	0	0	0	0	516	617
0	0	0	0	0	515	618
1	0	0	0	0	515	617
2	0	0	0	0	514	618
3	0	0	0	0	513	618
4	0	0	0	0	513	617
5	0	0	0	0	512	617
6	0	0	0	0	511	618
7	0	0	0	0	511	618
8	0	0	0	0	511	619
9	0	0	0	0	509	618
10	0	0	0	0	508	617
11	0	0	0	0	506	617
12	0	0	0	0	504	617
13	0	0	0	0	504	617
14	0	0	0	0	502	617
15	0	0	0	0	499	617
0	0	0	0	0	497	618
1	0	0	0	0	495	616
2	0	0	0	0	494	616
3	0	0	0	0	492	617
4	0	0	0	0	491	616
5	0	0	0	0	489	616
6	0	0	0	0	488	617
7	0	0	0	0	485	616
8	0	0	0	0	484	617
9	0	0	0	0	482	616
10	0	0	0	0	481	617
11	0	0	0	0	479	616
12	0	0	0	0	478	616
13	0	0	0	0	476	616
14	0	0	0	0	475	616
15	0	0	0	0	475	616
0	0	0	0	0	474	616
1	0	0	0	0	473	615
2	0	0	0	0	473	615
3	0	0	0	0	472	615
4	0	0	0	0	471	615
5	0	0	0	0	470	615
6	0	0	0	0	468	615
7	0	0	0	0	468	615
8	0	0	0	0	467	615
9	0	0	0	0	467	614
10	0	0	0	0	467	614
11	0	0	0	0	467	615
12	0	0	0	0	467	614
13	0	0	0	0	468	614
14	0	0	0	0	467	615
15	0	0	0	0	466	614
0	0	0	0	0	463	614
1	0	0	0	0	460	614
2	0	0	0	0	458	614
3	0	0	0	0	457	614
4	0	0	0	0	456	614
5	0	0	0	0	457	614
6	0	0	0	0	457	614
7	0	0	0	0	459	614
8	0	0	0	0	462	614
9	0	0	0	0	463	614
10	0	0	0	0	464	614
11	0	0	0	0	467	614
12	0	0	0	0	468	614
13	0	0	0	0	471	614
14	0	0	0	0	473	614
15	0	0	0	0	476	615
0	0	0	0	0	477	615
1	0	0	0	0	479	614
2	0	0	0	0	480	614
3	0	0	0	0	481	614
4	0	0	0	0	480	614
5	0	0	0	0	480	615
6	0	0	0	0	480	615
7	0	0	0	0	481	615
8	0	0	0	0	482	616
9	0	0	0	0	482	615
10	0	0	0	0	481	615
11	0	0	0	0	481	616
12	0	0	0	0	480	615
13	0	0	0	0	480	615
14	0	0	0	0	480	615
15	0	0	0	0	479	616
0	0	0	0	0	477	616
1	0	0	0	0	476	615
2	0	0	0	0	476	616
3	0	0	0	0	476	616
4	0	0	0	0	476	617
5	0	0	0	0	476	616
6	0	0	0	0	478	616
7	0	0	0	0	479	617
8	0	0	0	0	480	617
9	0	0	0	0	480	616
10	0	0	0	0	479	616
11	0	0	0	0	479	617
12	0	0	0	0	478	617
13	0	0	0	0	478	617
14	0	0	0	0	479	617
15	0	0	0	0	480	618
0	0	0	0	0	479	619
1	0	0	0	0	479	619
2	0	0	0	0	479	618
3	0	0	0	0	478	618
4	0	0	0	0	477	619
5	0	0	0	0	478	619
6	0	0	0	0	479	618
7	0	0	0	0	479	618
8	0	0	0	0	478	619
9	0	0	0	0	477	618
10	0	0	0	0	476	618
11	0	0	0	0	476	618
12	0	0	0	0	476	618
13	0	0	0	0	476	618
14	0	0	0	0	478	618
15	0	0	0	0	481	618
0	0	0	0	0	483	618
1	0	0	0	0	485	617
2	0	0	0	0	487	617
3	0	0	0	0	487	617
4	0	0	0	0	489	617
5	0	0	0	0	488	617
6	0	0	0	0	488	617
7	0	0	0	0	489	616
8	0	0	0	0	489	618
9	0	0	0	0	489	617
10	0	0	0	0	490	616
11	0	0	0	0	491	616
12	0	0	0	0	491	616
13	0	0	0	0	490	615
14	0	0	0	0	490	616
15	0	0	0	0	489	615
0	0	0	0	0	490	616
1	0	0	0	0	491	615
2	0	0	0	0	492	615
3	0	0	0	0	492	616
4	0	0	0	0	493	616
5	0	0	0	0	493	616
6	0	0	0	0	493	616
7	0	0	0	0	494	616
8	0	0	0	0	495	617
9	0	0	0	0	495	616
10	0	0	0	0	495	615
11	0	0	0	0	495	615
12	0	0	0	0	495	616
13	0	0	0	0	495	616
14	0	0	0	0	495	615
15	0	0	0	0	495	615
0	0	0	0	0	495	616
1	0	0	0	0	495	616
2	0	0	0	0	494	616
3	0	0	0	0	492	616
4	0	0	0	0	491	616
5	0	0	0	0	491	616
6	0	0	0	0	491	616
7	0	0	0	0	491	616
8	0	0	0	0	492	616
9	0	0	0	0	491	616
10	0	0	0	0	491	616
11	0	0	0	0	492	616
12	0	0	0	0	491	616
13	0	0	0	0	491	616
14	0	0	0	0	491	616
15	0	0	0	0	491	617
0	0	0	0	0	492	617
1	0	0	0	0	491	617
2	0	0	0	0	490	616
3	0	0	0	0	490	617
4	0	0	0	0	490	617
5	0	0	0	0	488	616
6	0	0	0	0	486	616
7	0	0	0	0	484	616
8	0	0	0	0	482	618
9	0	0	0	0	481	617
10	0	0	0	0	479	617
11	0	0	0	0	479	617
12	0	0	0	0	477	617
13	0	0	0	0	477	616
14	0	0	0	0	478	617
15	0	0	0	0	482	617
0	0	0	0	0	487	617
1	0	0	0	0	491	617
2	0	0	0	0	492	617
3	0	0	0	0	493	617
4	0	0	0	0	494	616
5	0	0	0	0	496	617
6	0	0	0	0	498	617
7	0	0	0	0	498	617
8	0	0	0	0	499	618
9	0	0	0	0	500	617
10	0	0	0	0	501	617
11	0	0	0	0	499	617
12	0	0	0	0	498	617
13	0	0	0	0	497	617
14	0	0	0	0	497	617
15	0	0	0	0	498	616
0	0	0	0	0	499	617
1	0	0	0	0	500	617
2	0	0	0	0	501	617
3	0	0	0	0	501	617
4	0	0	0	0	501	618
5	0	0	0	0	502	617
6	0	0	0	0	503	617
7	0	0	0	0	503	617
8	0	0	0	0	505	618
9	0	0	0	0	507	617
10	0	0	0	0	507	618
11	0	0	0	0	507	617
12	0	0	0	0	507	618
13	0	0	0	0	507	617
14	0	0	0	0	507	617
15	0	0	0	0	507	617
0	0	0	0	0	507	618
1	0	0	0	0	508	617
2	0	0	0	0	507	617
3	0	0	0	0	506	616
4	0	0	0	0	505	616
5	0	0	0	0	504	617
6	0	0	0	0	504	616
7	0	0	0	0	504	617
8	0	0	0	0	504	618
9	0	0	0	0	503	616
10	0	0	0	0	502	617
11	0	0	0	0	501	617
12	0	0	0	0	499	617
13	0	0	0	0	500	617
14	0	0	0	0	502	617
15	0	0	0	0	503	617
0	0	0	0	0	503	617
1	0	0	0	0	504	617
2	0	0	0	0	504	617
3	0	0	0	0	505	617
4	0	0	0	0	505	616
5	0	0	0	0	505	616
6	0	0	0	0	505	617
7	0	0	0	0	506	616
8	0	0	0	0	506	617
9	0	0	0	0	505	616
10	0	0	0	0	505	617
11	0	0	0	0	505	617
12	0	0	0	0	505	616
13	0	0	0	0	505	616
14	0	0	0	0	505	616
15	0	0	0	0	505	616
0	0	0	0	0	505	617
1	0	0	0	0	505	617
2	0	0	0	0	504	616
3	0	0	0	0	502	617
4	0	0	0	0	500	616
5	0	0	0	0	497	616
6	0	0	0	0	494	616
7	0	0	0	0	493	617
8	0	0	0	0	491	617
9	0	0	0	0	488	616
10	0	0	0	0	488	616
11	0	0	0	0	490	616
12	0	0	0	0	492	616
13	0	0	0	0	497	615
14	0	0	0	0	500	616
15	0	0	0	0	504	616
0	0	0	0	0	505	617
1	0	0	0	0	507	616
2	0	0	0	0	507	616
3	0	0	0	0	508	615
4	0	0	0	0	508	616
5	0	0	0	0	508	615
6	0	0	0	0	508	615
7	0	0	0	0	508	615
8	0	0	0	0	508	616
9	0	0	0	0	509	617
10	0	0	0	0	510	616
11	0	0	0	0	512	616
12	0	0	0	0	514	615
13	0	0	0	0	516	616
14	0	0	0	0	518	616
15	0	0	0	0	520	616
0	0	0	0	0	521	617
1	0	0	0	0	521	616
2	0	0	0	0	522	616
3	0	0	0	0	523	615
4	0	0	0	0	522	616
5	0	0	0	0	521	615
6	0	0	0	0	521	615
7	0	0	0	0	520	615
8	0	0	0	0	519	616
9	0	0	0	0	518	616
10	0	0	0	0	516	615
11	0	0	0	0	516	615
12	0	0	0	0	516	615
13	0	0	0	0	515	616
14	0	0	0	0	515	616
15	0	0	0	0	515	616
0	0	0	0	0	514	617
1	0	0	0	0	513	616
2	0	0	0	0	512	616
3	0	0	0	0	513	616
4	0	0	0	0	513	616
5	0	0	0	0	513	616
6	0	0	0	0	513	615
7	0	0	0	0	514	616
8	0	0	0	0	513	617
9	0	0	0	0	512	617
10	0	0	0	0	511	616
11	0	0	0	0	509	616
12	0	0	0	0	508	616
13	0	0	0	0	508	616
14	0	0	0	0	509	616
15	0	0	0	0	509	616
0	0	0	0	0	510	617
1	0	0	0	0	510	616
2	0	0	0	0	511	616
3	0	0	0	0	512	616
4	0	0	0	0	513	617
5	0	0	0	0	515	617
6	0	0	0	0	515	617
7	0	0	0	0	516	617
8	0	0	0	0	516	618
9	0	0	0	0	515	617
10	0	0	0	0	513	618
11	0	0	0	0	513	617
12	0	0	0	0	513	618
13	0	0	0	0	512	618
14	0	0	0	0	512	618
15	0	0	0	0	512	618
0	0	0	0	0	512	618
1	0	0	0	0	512	619
2	0	0	0	0	510	618
3	0	0	0	0	510	618
4	0	0	0	0	510	618
5	0	0	0	0	510	618
6	0	0	0	0	510	618
7	0	0	0	0	509	618
8	0	0	0	0	510	619
9	0	0	0	0	511	619
10	0	0	0	0	511	618
11	0	0	0	0	512	620
12	0	0	0	0	512	619
13	0	0	0	0	513	619
14	0	0	0	0	514	619
15	0	0	0	0	513	619
0	0	0	0	0	515	619
1	0	0	0	0	515	619
2	0	0	0	0	515	619
3	0	0	0	0	515	619
4	0	0	0	0	515	619
5	0	0	0	0	515	619
6	0	0	0	0	514	619
7	0	0	0	0	514	619
8	0	0	0	0	515	620
9	0	0	0	0	516	619
10	0	0	0	0	515	619
11	0	0	0	0	517	619
12	0	0	0	0	518	619
13	0	0	0	0	518	618
14	0	0	0	0	516	619
15	0	0	0	0	514	618
0	0	0	0	0	513	620
1	0	0	0	0	512	619
2	0	0	0	0	510	619
3	0	0	0	0	508	619
4	0	0	0	0	508	619
5	0	0	0	0	508	619
6	0	0	0	0	507	619
7	0	0	0	0	507	619
8	0	0	0	0	508	619
9	0	0	0	0	508	618
10	0	0	0	0	508	619
11	0	0	0	0	508	618
12	0	0	0	0	511	618
13	0	0	0	0	512	618
14	0	0	0	0	514	617
15	0	0	0	0	515	617
0	0	0	0	0	515	618
1	0	0	0	0	516	617
2	0	0	0	0	517	616
3	0	0	0	0	519	616
4	0	0	0	0	519	616
5	0	0	0	0	519	616
6	0	0	0	0	521	616
7	0	0	0	0	522	615
8	0	0	0	0	524	616
9	0	0	0	0	524	615
10	0	0	0	0	525	615
11	0	0	0	0	526	616
12	0	0	0	0	526	615
13	0	0	0	0	527	616
14	0	0	0	0	527	615
15	0	0	0	0	528	615
0	0	0	0	0	529	616
1	0	0	0	0	529	615
2	0	0	0	0	529	615
3	0	0	0	0	528	616
4	0	0	0	0	528	616
5	0	0	0	0	527	616
6	0	0	0	0	526	615
7	0	0	0	0	526	615
8	0	0	0	0	523	616
9	0	0	0	0	521	615
10	0	0	0	0	521	615
11	0	0	0	0	522	615
12	0	0	0	0	521	615
13	0	0	0	0	521	615
14	0	0	0	0	520	615
15	0	0	0	0	520	615
0	0	0	0	0	519	615
1	0	0	0	0	519	615
2	0	0	0	0	520	615
3	0	0	0	0	520	615
4	0	0	0	0	519	615
5	0	0	0	0	519	615
6	0	0	0	0	519	615
7	0	0	0	0	518	616
8	0	0	0	0	518	616
9	0	0	0	0	518	616
10	0	0	0	0	518	616
11	0	0	0	0	517	616
12	0	0	0	0	516	615
13	0	0	0	0	515	616
14	0	0	0	0	515	616
15	0	0	0	0	515	615
0	0	0	0	0	514	616
1	0	0	0	0	513	616
2	0	0	0	0	513	616
3	0	0	0	0	512	616
4	0	0	0	0	512	616
5	0	0	0	0	511	616
6	0	0	0	0	510	617
7	0	0	0	0	509	617
8	0	0	0	0	509	617
9	0	0	0	0	510	616
10	0	0	0	0	510	616
11	0	0	0	0	510	616
12	0	0	0	0	511	616
13	0	0	0	0	512	617
14	0	0	0	0	513	617
15	0	0	0	0	513	617
0	0	0	0	0	512	618
1	0	0	0	0	511	617
2	0	0	0	0	512	617
3	0	0	0	0	513	617
4	0	0	0	0	514	617
5	0	0	0	0	515	617
6	0	0	0	0	516	617
7	0	0	0	0	517	616
8	0	0	0	0	516	618
9	0	0	0	0	514	617
10	0	0	0	0	514	617
11	0	0	0	0	513	617
12	0	0	0	0	512	617
13	0	0	0	0	513	617
14	0	0	0	0	514	617
15	0	0	0	0	517	617
0	0	0	0	0	519	617
1	0	0	0	0	520	617
2	0	0	0	0	520	617
3	0	0	0	0	520	617
4	0	0	0	0	519	617
5	0	0	0	0	519	616
6	0	0	0	0	518	616
7	0	0	0	0	515	616
8	0	0	0	0	514	617
9	0	0	0	0	513	617
10	0	0	0	0	511	616
11	0	0	0	0	510	616
12	0	0	0	0	510	616
13	0	0	0	0	511	616
14	0	0	0	0	511	616
15	0	0	0	0	510	616
0	0	0	0	0	510	617
1	0	0	0	0	511	616
2	0	0	0	0	514	617
3	0	0	0	0	517	616
4	0	0	0	0	519	616
5	0	0	0	0	521	616
6	0	0	0	0	523	616
7	0	0	0	0	524	616
8	0	0	0	0	526	617
9	0	0	0	0	526	616
10	0	0	0	0	527	616
11	0	0	0	0	528	616
12	0	0	0	0	529	617
13	0	0	0	0	529	617
14	0	0	0	0	529	616
15	0	0	0	0	530	616
0	0	0	0	0	530	616
1	0	0	0	0	529	616
2	0	0	0	0	529	616
3	0	0	0	0	529	616
4	0	0	0	0	527	616
5	0	0	0	0	527	615
6	0	0	0	0	526	615
7	0	0	0	0	525	615
8	0	0	0	0	524	616
9	0	0	0	0	523	615
10	0	0	0	0	522	615
11	0	0	0	0	522	615
12	0	0	0	0	523	615
13	0	0	0	0	524	615
14	0	0	0	0	523	615
15	0	0	0	0	523	615
0	0	0	0	0	522	615
1	0	0	0	0	522	614
2	0	0	0	0	521	614
3	0	0	0	0	521	615
4	0	0	0	0	520	614
5	0	0	0	0	521	614
6	0	0	0	0	520	614
7	0	0	0	0	519	614
8	0	0	0	0	519	615
9	0	0	0	0	518	614
10	0	0	0	0	518	614
11	0	0	0	0	518	614
12	0	0	0	0	518	615
13	0	0	0	0	517	615
14	0	0	0	0	516	615
15	0	0	0	0	516	615
0	0	0	0	0	516	616
1	0	0	0	0	516	616
2	0	0	0	0	515	616
3	0	0	0	0	515	615
4	0	0	0	0	516	615
5	0	0	0	0	516	615
6	0	0	0	0	515	615
7	0	0	0	0	512	615
8	0	0	0	0	510	617
9	0	0	0	0	508	616
10	0	0	0	0	509	616
11	0	0	0	0	510	616
12	0	0	0	0	512	616
13	0	0	0	0	515	616
14	0	0	0	0	517	616
15	0	0	0	0	519	615
0	0	0	0	0	518	617
1	0	0	0	0	513	616
2	0	0	0	0	507	616
3	0	0	0	0	502	616
4	0	0	0	0	497	617
5	0	0	0	0	495	616
6	0	0	0	0	494	616
7	0	0	0	0	495	617
8	0	0	0	0	496	617
9	0	0	0	0	496	616
10	0	0	0	0	496	616
11	0	0	0	0	495	617
12	0	0	0	0	494	617
13	0	0	0	0	494	617
14	0	0	0	0	493	617
15	0	0	0	0	491	616
0	0	0	0	0	490	617
1	0	0	0	0	489	617
2	0	0	0	0	489	617
3	0	0	0	0	488	616
4	0	0	0	0	489	617
5	0	0	0	0	488	617
6	0	0	0	0	488	617
7	0	0	0	0	488	617
8	0	0	0	0	488	618
9	0	0	0	0	488	617
10	0	0	0	0	488	617
11	0	0	0	0	489	617
12	0	0	0	0	489	617
13	0	0	0	0	488	618
14	0	0	0	0	490	617
15	0	0	0	0	492	617
0	0	0	0	0	492	617
1	0	0	0	0	494	617
2	0	0	0	0	496	617
3	0	0	0	0	497	617
4	0	0	0	0	498	617
5	0	0	0	0	498	617
6	0	0	0	0	499	617
7	0	0	0	0	498	616
8	0	0	0	0	498	618
9	0	0	0	0	498	617
10	0	0	0	0	497	617
11	0	0	0	0	496	617
12	0	0	0	0	494	617
13	0	0	0	0	493	617
14	0	0	0	0	493	617
15	0	0	0	0	493	617
0	0	0	0	0	493	617
1	0	0	0	0	493	617
2	0	0	0	0	494	617
3	0	0	0	0	494	617
4	0	0	0	0	494	616
5	0	0	0	0	495	616
6	0	0	0	0	495	617
7	0	0	0	0	495	617
8	0	0	0	0	495	617
9	0	0	0	0	493	617
10	0	0	0	0	491	617
11	0	0	0	0	491	616
12	0	0	0	0	490	617
13	0	0	0	0	487	616
14	0	0	0	0	484	616
15	0	0	0	0	481	616
0	0	0	0	0	479	617
1	0	0	0	0	476	616
2	0	0	0	0	474	617
3	0	0	0	0	473	616
4	0	0	0	0	472	616
5	0	0	0	0	470	616
6	0	0	0	0	468	616
7	0	0	0	0	468	617
8	0	0	0	0	468	618
9	0	0	0	0	471	617
10	0	0	0	0	475	616
11	0	0	0	0	480	616
12	0	0	0	0	486	617
13	0	0	0	0	493	617
14	0	0	0	0	501	617
15	0	0	0	0	510	617
0	0	0	0	0	520	618
1	0	0	0	0	532	617
2	0	0	0	0	546	617
3	0	0	0	0	561	617
4	0	0	0	0	577	617
5	0	0	0	0	592	617
6	0	0	0	0	607	616
7	0	0	0	0	622	617
8	0	0	0	0	637	617
9	0	0	0	0	648	617
10	0	0	0	0	656	617
11	0	0	0	0	660	616
12	0	0	0	0	659	616
13	0	0	0	0	656	617
14	0	0	0	0	651	616
15	0	0	0	0	644	616
0	0	0	0	0	636	616
1	0	0	0	0	626	616
2	0	0	0	0	616	615
3	0	0	0	0	607	615
4	0	0	0	0	596	615
5	0	0	0	0	583	615
6	0	0	0	0	573	615
7	0	0	0	0	566	615
8	0	0	0	0	560	616
9	0	0	0	0	556	616
10	0	0	0	0	551	615
11	0	0	0	0	546	615
12	0	0	0	0	540	616
13	0	0	0	0	537	616
14	0	0	0	0	535	615
15	0	0	0	0	533	615
0	0	0	0	0	531	617
1	0	0	0	0	528	615
2	0	0	0	0	526	616
3	0	0	0	0	524	615
4	0	0	0	0	522	616
5	0	0	0	0	519	615
6	0	0	0	0	517	616
7	0	0	0	0	514	615
8	0	0	0	0	512	616
9	0	0	0	0	511	616
10	0	0	0	0	508	616
11	0	0	0	0	505	616
12	0	0	0	0	503	615
13	0	0	0	0	500	616
14	0	0	0	0	497	616
15	0	0	0	0	496	616
0	0	0	0	0	495	617
1	0	0	0	0	492	616
2	0	0	0	0	491	617
3	0	0	0	0	490	616
4	0	0	0	0	489	616
5	0	0	0	0	488	616
6	0	0	0	0	488	616
7	0	0	0	0	488	616
8	0	0	0	0	488	617
9	0	0	0	0	487	616
10	0	0	0	0	487	616
11	0	0	0	0	486	616
12	0	0	0	0	485	616
13	0	0	0	0	483	616
14	0	0	0	0	483	616
15	0	0	0	0	484	615
0	0	0	0	0	486	616
1	0	0	0	0	487	616
2	0	0	0	0	488	616
3	0	0	0	0	489	616
4	0	0	0	0	489	617
5	0	0	0	0	489	617
6	0	0	0	0	490	616
7	0	0	0	0	488	617
8	0	0	0	0	488	617
9	0	0	0	0	488	617
10	0	0	0	0	488	616
11	0	0	0	0	488	616
12	0	0	0	0	488	616
13	0	0	0	0	487	616
14	0	0	0	0	487	617
15	0	0	0	0	487	616
0	0	0	0	0	487	617
1	0	0	0	0	487	617
2	0	0	0	0	486	616
3	0	0	0	0	486	617
4	0	0	0	0	486	616
5	0	0	0	0	486	616
6	0	0	0	0	487	617
7	0	0	0	0	489	617
8	0	0	0	0	491	618
9	0	0	0	0	492	617
10	0	0	0	0	494	617
11	0	0	0	0	495	617
12	0	0	0	0	497	617
13	0	0	0	0	497	617
14	0	0	0	0	498	617
15	0	0	0	0	498	617
0	0	0	0	0	498	618
1	0	0	0	0	498	618
2	0	0	0	0	499	618
3	0	0	0	0	500	618
4	0	0	0	0	499	619
5	0	0	0	0	497	618
6	0	0	0	0	497	617
7	0	0	0	0	497	618
8	0	0	0	0	496	619
9	0	0	0	0	495	618
10	0	0	0	0	496	619
11	0	0	0	0	496	619
12	0	0	0	0	497	619
13	0	0	0	0	498	619
14	0	0	0	0	499	619
15	0	0	0	0	500	619
0	0	0	0	0	500	619
1	0	0	0	0	501	618
2	0	0	0	0	502	619
3	0	0	0	0	503	618
4	0	0	0	0	504	618
5	0	0	0	0	504	618
6	0	0	0	0	503	618
7	0	0	0	0	502	617
8	0	0	0	0	501	618
9	0	0	0	0	501	617
10	0	0	0	0	501	618
11	0	0	0	0	501	618
12	0	0	0	0	499	617
13	0	0	0	0	499	617
14	0	0	0	0	498	618
15	0	0	0	0	497	617
0	0	0	0	0	497	617
1	0	0	0	0	497	616
2	0	0	0	0	497	616
3	0	0	0	0	498	617
4	0	0	0	0	500	616
5	0	0	0	0	501	616
6	0	0	0	0	503	616
7	0	0	0	0	504	615
8	0	0	0	0	505	617
9	0	0	0	0	505	617
10	0	0	0	0	507	616
11	0	0	0	0	507	615
12	0	0	0	0	507	615
13	0	0	0	0	507	615
14	0	0	0	0	507	615
15	0	0	0	0	506	615
0	0	0	0	0	504	616
1	0	0	0	0	503	615
2	0	0	0	0	501	615
3	0	0	0	0	501	615
4	0	0	0	0	503	615
5	0	0	0	0	503	615
6	0	0	0	0	504	615
7	0	0	0	0	504	615
8	0	0	0	0	506	615
9	0	0	0	0	508	615
10	0	0	0	0	509	615
11	0	0	0	0	511	614
12	0	0	0	0	511	615
13	0	0	0	0	511	615
14	0	0	0	0	512	615
15	0	0	0	0	512	615
0	0	0	0	0	512	615
1	0	0	0	0	512	615
2	0	0	0	0	512	615
3	0	0	0	0	511	615
4	0	0	0	0	511	615
5	0	0	0	0	511	615
6	0	0	0	0	510	616
7	0	0	0	0	509	615
8	0	0	0	0	509	617
9	0	0	0	0	508	616
10	0	0	0	0	508	616
11	0	0	0	0	507	617
12	0	0	0	0	506	616
13	0	0	0	0	506	616
14	0	0	0	0	505	617
15	0	0	0	0	506	617
0	0	0	0	0	506	617
1	0	0	0	0	505	617
2	0	0	0	0	505	617
3	0	0	0	0	506	617
4	0	0	0	0	507	617
5	0	0	0	0	507	618
6	0	0	0	0	509	617
7	0	0	0	0	511	617
8	0	0	0	0	513	619
9	0	0	0	0	515	618
10	0	0	0	0	518	618
11	0	0	0	0	519	618
12	0	0	0	0	519	618
13	0	0	0	0	519	618
14	0	0	0	0	521	618
15	0	0	0	0	522	618
0	0	0	0	0	522	619
1	0	0	0	0	523	619
2	0	0	0	0	523	618
3	0	0	0	0	523	618
4	0	0	0	0	523	618
5	0	0	0	0	521	619
6	0	0	0	0	521	619
7	0	0	0	0	520	619
8	0	0	0	0	521	620
9	0	0	0	0	521	618
10	0	0	0	0	522	619
11	0	0	0	0	523	619
12	0	0	0	0	522	619
13	0	0	0	0	521	619
14	0	0	0	0	520	618
15	0	0	0	0	519	618
0	0	0	0	0	519	619
1	0	0	0	0	518	618
2	0	0	0	0	518	618
3	0	0	0	0	517	618
4	0	0	0	0	519	618
5	0	0	0	0	520	618
6	0	0	0	0	523	617
7	0	0	0	0	524	617
8	0	0	0	0	526	618
9	0	0	0	0	528	617
10	0	0	0	0	531	617
11	0	0	0	0	531	617
12	0	0	0	0	534	617
13	0	0	0	0	535	617
14	0	0	0	0	536	617
15	0	0	0	0	538	617
0	0	0	0	0	539	617
1	0	0	0	0	538	616
2	0	0	0	0	538	616
3	0	0	0	0	537	616
4	0	0	0	0	536	616
5	0	0	0	0	537	616
6	0	0	0	0	539	616
7	0	0	0	0	540	616
8	0	0	0	0	541	616
9	0	0	0	0	541	616
10	0	0	0	0	542	615
11	0	0	0	0	542	615
12	0	0	0	0	543	615
13	0	0	0	0	542	615
14	0	0	0	0	542	615
15	0	0	0	0	542	615
0	0	0	0	0	543	616
1	0	0	0	0	543	615
2	0	0	0	0	543	615
3	0	0	0	0	544	615
4	0	0	0	0	544	615
5	0	0	0	0	545	615
6	0	0	0	0	545	615
7	0	0	0	0	545	615
8	0	0	0	0	546	615
9	0	0	0	0	547	615
10	0	0	0	0	548	615
11	0	0	0	0	549	615
12	0	0	0	0	551	615
13	0	0	0	0	552	615
14	0	0	0	0	552	615
15	0	0	0	0	552	615
0	0	0	0	0	551	616
1	0	0	0	0	551	615
2	0	0	0	0	550	615
3	0	0	0	0	548	615
4	0	0	0	0	547	615
5	0	0	0	0	546	615
6	0	0	0	0	543	615
7	0	0	0	0	539	615
8	0	0	0	0	534	615
9	0	0	0	0	530	615
10	0	0	0	0	527	615
11	0	0	0	0	524	615
12	0	0	0	0	521	615
13	0	0	0	0	519	615
14	0	0	0	0	516	615
15	0	0	0	0	515	616
0	0	0	0	0	515	616
1	0	0	0	0	514	615
2	0	0	0	0	514	616
3	0	0	0	0	515	615
4	0	0	0	0	514	616
5	0	0	0	0	513	615
6	0	0	0	0	511	616
7	0	0	0	0	509	616
8	0	0	0	0	507	616
9	0	0	0	0	505	616
10	0	0	0	0	502	616
11	0	0	0	0	500	616
12	0	0	0	0	496	616
13	0	0	0	0	494	616
14	0	0	0	0	491	616
15	0	0	0	0	490	616
0	0	0	0	0	489	617
1	0	0	0	0	489	616
2	0	0	0	0	488	617
3	0	0	0	0	488	617
4	0	0	0	0	489	617
5	0	0	0	0	490	617
6	0	0	0	0	491	617
7	0	0	0	0	492	617
8	0	0	0	0	493	617
9	0	0	0	0	493	617
10	0	0	0	0	492	617
11	0	0	0	0	491	617
12	0	0	0	0	491	617
13	0	0	0	0	490	617
14	0	0	0	0	491	617
15	0	0	0	0	491	618
0	0	0	0	0	492	619
1	0	0	0	0	492	618
2	0	0	0	0	492	617
3	0	0	0	0	491	617
4	0	0	0	0	489	617
5	0	0	0	0	488	617
6	0	0	0	0	487	617
7	0	0	0	0	485	617
8	0	0	0	0	484	618
9	0	0	0	0	484	617
10	0	0	0	0	484	617
11	0	0	0	0	483	617
12	0	0	0	0	483	618
13	0	0	0	0	481	617
14	0	0	0	0	480	617
15	0	0	0	0	478	617
0	0	0	0	0	476	618
1	0	0	0	0	476	617
2	0	0	0	0	476	617
3	0	0	0	0	476	617
4	0	0	0	0	478	617
5	0	0	0	0	480	617
6	0	0	0	0	482	617
7	0	0	0	0	483	617
8	0	0	0	0	485	618
9	0	0	0	0	486	617
10	0	0	0	0	487	617
11	0	0	0	0	487	617
12	0	0	0	0	487	617
13	0	0	0	0	487	616
14	0	0	0	0	488	616
15	0	0	0	0	488	615
0	0	0	0	0	490	617
1	0	0	0	0	492	616
2	0	0	0	0	496	617
3	0	0	0	0	498	616
4	0	0	0	0	499	616
5	0	0	0	0	501	616
6	0	0	0	0	503	615
7	0	0	0	0	504	616
8	0	0	0	0	504	617
9	0	0	0	0	503	615
10	0	0	0	0	503	616
11	0	0	0	0	502	616
12	0	0	0	0	501	616
13	0	0	0	0	500	616
14	0	0	0	0	499	616
15	0	0	0	0	498	616
0	0	0	0	0	497	616
1	0	0	0	0	497	616
2	0	0	0	0	499	616
3	0	0	0	0	501	616
4	0	0	0	0	502	616
5	0	0	0	0	501	616
6	0	0	0	0	501	616
7	0	0	0	0	500	615
8	0	0	0	0	499	617
9	0	0	0	0	498	616
10	0	0	0	0	499	616
11	0	0	0	0	501	616
12	0	0	0	0	501	616
13	0	0	0	0	502	616
14	0	0	0	0	501	616
15	0	0	0	0	502	615
0	0	0	0	0	502	616
1	0	0	0	0	503	615
2	0	0	0	0	504	615
3	0	0	0	0	504	615
4	0	0	0	0	504	615
5	0	0	0	0	504	614
6	0	0	0	0	504	615
7	0	0	0	0	504	615
8	0	0	0	0	503	616
9	0	0	0	0	504	615
10	0	0	0	0	504	615
11	0	0	0	0	504	615
12	0	0	0	0	504	615
13	0	0	0	0	505	615
14	0	0	0	0	503	615
15	0	0	0	0	501	615
0	0	0	0	0	501	615
1	0	0	0	0	501	615
2	0	0	0	0	501	615
3	0	0	0	0	500	615
4	0	0	0	0	500	615
5	0	0	0	0	499	615
6	0	0	0	0	500	615
7	0	0	0	0	501	615
8	0	0	0	0	502	615
9	0	0	0	0	503	615
10	0	0	0	0	503	615
11	0	0	0	0	504	614
12	0	0	0	0	504	614
13	0	0	0	0	505	614
14	0	0	0	0	506	614
15	0	0	0	0	506	614
0	0	0	0	0	506	615
1	0	0	0	0	506	615
2	0	0	0	0	507	615
3	0	0	0	0	508	615
4	0	0	0	0	510	615
5	0	0	0	0	511	615
6	0	0	0	0	512	615
7	0	0	0	0	512	615
8	0	0	0	0	513	616
9	0	0	0	0	513	616
10	0	0	0	0	514	615
11	0	0	0	0	514	615
12	0	0	0	0	513	615
13	0	0	0	0	513	616
14	0	0	0	0	513	616
15	0	0	0	0	513	616
0	0	0	0	0	513	617
1	0	0	0	0	512	617
2	0	0	0	0	511	616
3	0	0	0	0	510	616
4	0	0	0	0	508	616
5	0	0	0	0	507	617
6	0	0	0	0	505	616
7	0	0	0	0	504	616
8	0	0	0	0	503	617
9	0	0	0	0	502	616
10	0	0	0	0	503	617
11	0	0	0	0	504	616
12	0	0	0	0	506	616
13	0	0	0	0	507	616
14	0	0	0	0	508	616
15	0	0	0	0	509	616
0	0	0	0	0	511	616
1	0	0	0	0	512	616
2	0	0	0	0	513	616
3	0	0	0	0	514	616
4	0	0	0	0	514	617
5	0	0	0	0	515	616
6	0	0	0	0	517	616
7	0	0	0	0	517	616
8	0	0	0	0	517	617
9	0	0	0	0	517	616
10	0	0	0	0	516	616
11	0	0	0	0	516	617
12	0	0	0	0	516	617
13	0	0	0	0	518	617
14	0	0	0	0	518	616
15	0	0	0	0	519	617
0	0	0	0	0	518	616
1	0	0	0	0	518	617
2	0	0	0	0	518	616
3	0	0	0	0	519	616
4	0	0	0	0	519	617
5	0	0	0	0	519	617
6	0	0	0	0	519	617
7	0	0	0	0	520	616
8	0	0	0	0	520	617
9	0	0	0	0	519	617
10	0	0	0	0	520	617
11	0	0	0	0	520	617
12	0	0	0	0	521	617
13	0	0	0	0	520	617
14	0	0	0	0	520	617
15	0	0	0	0	520	617
0	0	0	0	0	520	618
1	0	0	0	0	521	617
2	0	0	0	0	520	617
3	0	0	0	0	520	617
4	0	0	0	0	520	617
5	0	0	0	0	520	617
6	0	0	0	0	519	617
7	0	0	0	0	518	617
8	0	0	0	0	517	619
9	0	0	0	0	516	617
10	0	0	0	0	516	617
11	0	0	0	0	516	617
12	0	0	0	0	515	618
13	0	0	0	0	517	618
14	0	0	0	0	519	617
15	0	0	0	0	520	617
0	0	0	0	0	522	617
1	0	0	0	0	524	617
2	0	0	0	0	524	617
3	0	0	0	0	523	616
4	0	0	0	0	523	617
5	0	0	0	0	523	617
6	0	0	0	0	521	617
7	0	0	0	0	520	616
8	0	0	0	0	519	617
9	0	0	0	0	518	616
10	0	0	0	0	518	617
11	0	0	0	0	518	616
12	0	0	0	0	517	616
13	0	0	0	0	516	617
14	0	0	0	0	515	616
15	0	0	0	0	515	616
0	0	0	0	0	516	616
1	0	0	0	0	517	616
2	0	0	0	0	519	616
3	0	0	0	0	519	617
4	0	0	0	0	521	617
5	0	0	0	0	523	616
6	0	0	0	0	526	617
7	0	0	0	0	528	617
8	0	0	0	0	529	617
9	0	0	0	0	529	616
10	0	0	0	0	530	617
11	0	0	0	0	530	617
12	0	0	0	0	530	617
13	0	0	0	0	529	617
14	0	0	0	0	528	617
15	0	0	0	0	527	617
0	0	0	0	0	526	618
1	0	0	0	0	527	617
2	0	0	0	0	526	618
3	0	0	0	0	525	617
4	0	0	0	0	524	618
5	0	0	0	0	523	617
6	0	0	0	0	523	617
7	0	0	0	0	523	617
8	0	0	0	0	522	618
9	0	0	0	0	520	617
10	0	0	0	0	520	617
11	0	0	0	0	521	616
12	0	0	0	0	521	617
13	0	0	0	0	522	617
14	0	0	0	0	523	616
15	0	0	0	0	523	616
0	0	0	0	0	524	617
1	0	0	0	0	525	616
2	0	0	0	0	525	616
3	0	0	0	0	524	616
4	0	0	0	0	524	616
5	0	0	0	0	525	616
6	0	0	0	0	526	616
7	0	0	0	0	527	616
8	0	0	0	0	526	617
9	0	0	0	0	527	617
10	0	0	0	0	527	616
11	0	0	0	0	527	617
12	0	0	0	0	527	617
13	0	0	0	0	527	617
14	0	0	0	0	528	616
15	0	0	0	0	529	616
0	0	0	0	0	529	616
1	0	0	0	0	530	616
2	0	0	0	0	529	616
3	0	0	0	0	528	616
4	0	0	0	0	527	616
5	0	0	0	0	527	617
6	0	0	0	0	527	616
7	0	0	0	0	525	616
8	0	0	0	0	524	617
9	0	0	0	0	523	616
10	0	0	0	0	522	616
11	0	0	0	0	521	616
12	0	0	0	0	520	617
13	0	0	0	0	519	617
14	0	0	0	0	518	617
15	0	0	0	0	518	616
0	0	0	0	0	518	618
1	0	0	0	0	518	617
2	0	0	0	0	517	617
3	0	0	0	0	517	617
4	0	0	0	0	517	616
5	0	0	0	0	517	616
6	0	0	0	0	516	617
7	0	0	0	0	517	617
8	0	0	0	0	518	618
9	0	0	0	0	518	617
10	0	0	0	0	518	616
11	0	0	0	0	519	617
12	0	0	0	0	519	616
13	0	0	0	0	520	617
14	0	0	0	0	520	616
15	0	0	0	0	521	616
0	0	0	0	0	521	617
1	0	0	0	0	521	616
2	0	0	0	0	523	616
3	0	0	0	0	523	616
4	0	0	0	0	523	616
5	0	0	0	0	523	616
6	0	0	0	0	523	616
7	0	0	0	0	524	616
8	0	0	0	0	526	616
9	0	0	0	0	528	616
10	0	0	0	0	529	615
11	0	0	0	0	530	616
12	0	0	0	0	531	616
13	0	0	0	0	531	616
14	0	0	0	0	532	616
15	0	0	0	0	532	616
0	0	0	0	0	532	617
1	0	0	0	0	531	617
2	0	0	0	0	532	616
3	0	0	0	0	531	616
4	0	0	0	0	531	615
5	0	0	0	0	531	616
6	0	0	0	0	531	617
7	0	0	0	0	531	616
8	0	0	0	0	530	617
9	0	0	0	0	530	617
10	0	0	0	0	529	616
11	0	0	0	0	530	616
12	0	0	0	0	529	616
13	0	0	0	0	528	617
14	0	0	0	0	528	616
15	0	0	0	0	528	617
0	0	0	0	0	527	617
1	0	0	0	0	526	616
2	0	0	0	0	525	617
3	0	0	0	0	524	617
4	0	0	0	0	524	616
5	0	0	0	0	524	617
6	0	0	0	0	523	616
7	0	0	0	0	522	617
8	0	0	0	0	521	617
9	0	0	0	0	522	617
10	0	0	0	0	521	616
11	0	0	0	0	520	616
12	0	0	0	0	520	616
13	0	0	0	0	520	617
14	0	0	0	0	520	616
15	0	0	0	0	522	617
0	0	0	0	0	523	618
1	0	0	0	0	523	617
2	0	0	0	0	523	617
3	0	0	0	0	521	617
4	0	0	0	0	520	617
5	0	0	0	0	519	616
6	0	0	0	0	519	616
7	0	0	0	0	518	617
8	0	0	0	0	517	617
9	0	0	0	0	517	617
10	0	0	0	0	517	617
11	0	0	0	0	516	616
12	0	0	0	0	518	616
13	0	0	0	0	519	616
14	0	0	0	0	519	616
15	0	0	0	0	521	617
0	0	0	0	0	520	617
1	0	0	0	0	520	617
2	0	0	0	0	520	617
3	0	0	0	0	520	617
4	0	0	0	0	519	617
5	0	0	0	0	520	617
6	0	0	0	0	521	616
7	0	0	0	0	522	617
8	0	0	0	0	523	618
9	0	0	0	0	525	618
10	0	0	0	0	527	617
11	0	0	0	0	528	617
12	0	0	0	0	528	617
13	0	0	0	0	528	617
14	0	0	0	0	529	616
15	0	0	0	0	530	617
0	0	0	0	0	530	618
1	0	0	0	0	530	617
2	0	0	0	0	530	617
3	0	0	0	0	530	617
4	0	0	0	0	530	616
5	0	0	0	0	528	616
6	0	0	0	0	527	617
7	0	0	0	0	526	616
8	0	0	0	0	526	617
9	0	0	0	0	525	616
10	0	0	0	0	525	616
11	0	0	0	0	526	616
12	0	0	0	0	526	616
13	0	0	0	0	525	616
14	0	0	0	0	525	616
15	0	0	0	0	524	617
0	0	0	0	0	524	617
1	0	0	0	0	523	616
2	0	0	0	0	523	617
3	0	0	0	0	523	617
4	0	0	0	0	522	617
5	0	0	0	0	521	617
6	0	0	0	0	522	617
7	0	0	0	0	521	617
8	0	0	0	0	519	618
9	0	0	0	0	518	617
10	0	0	0	0	515	618
11	0	0	0	0	514	618
12	0	0	0	0	512	617
13	0	0	0	0	511	617
14	0	0	0	0	511	617
15	0	0	0	0	512	617
0	0	0	0	0	512	618
1	0	0	0	0	512	617
2	0	0	0	0	512	618
3	0	0	0	0	513	618
4	0	0	0	0	515	617
5	0	0	0	0	516	617
6	0	0	0	0	517	617
7	0	0	0	0	518	617
8	0	0	0	0	519	618
9	0	0	0	0	519	617
10	0	0	0	0	519	617
11	0	0	0	0	520	617
12	0	0	0	0	521	617
13	0	0	0	0	522	617
14	0	0	0	0	524	617
15	0	0	0	0	525	617
0	0	0	0	0	525	618
1	0	0	0	0	526	617
2	0	0	0	0	526	617
3	0	0	0	0	527	617
4	0	0	0	0	527	618
5	0	0	0	0	527	617
6	0	0	0	0	526	617
7	0	0	0	0	524	617
8	0	0	0	0	522	617
9	0	0	0	0	521	616
10	0	0	0	0	520	616
11	0	0	0	0	519	616
12	0	0	0	0	517	617
13	0	0	0	0	515	617
14	0	0	0	0	515	616
15	0	0	0	0	515	616
0	0	0	0	0	515	617
1	0	0	0	0	516	616
2	0	0	0	0	517	616
3	0	0	0	0	519	616
4	0	0	0	0	521	616
5	0	0	0	0	524	616
6	0	0	0	0	525	615
7	0	0	0	0	526	616
8	0	0	0	0	526	616
9	0	0	0	0	527	616
10	0	0	0	0	528	616
11	0	0	0	0	529	616
12	0	0	0	0	529	615
13	0	0	0	0	528	615
14	0	0	0	0	528	616
15	0	0	0	0	529	616
0	0	0	0	0	529	617
1	0	0	0	0	528	616
2	0	0	0	0	528	616
3	0	0	0	0	528	616
4	0	0	0	0	526	616
5	0	0	0	0	527	615
6	0	0	0	0	526	616
7	0	0	0	0	525	615
8	0	0	0	0	523	616
9	0	0	0	0	523	615
10	0	0	0	0	522	615
11	0	0	0	0	522	615
12	0	0	0	0	523	615
13	0	0	0	0	523	615
14	0	0	0	0	523	615
15	0	0	0	0	522	615
0	0	0	0	0	521	615
1	0	0	0	0	521	615
2	0	0	0	0	521	615
3	0	0	0	0	521	615
4	0	0	0	0	521	615
5	0	0	0	0	520	615
6	0	0	0	0	519	615
7	0	0	0	0	518	615
8	0	0	0	0	517	616
9	0	0	0	0	516	615
10	0	0	0	0	516	616
11	0	0	0	0	516	616
12	0	0	0	0	518	615
13	0	0	0	0	519	616
14	0	0	0	0	520	616
15	0	0	0	0	521	616
0	0	0	0	0	522	617
1	0	0	0	0	522	617
2	0	0	0	0	523	617
3	0	0	0	0	523	616
4	0	0	0	0	524	617
5	0	0	0	0	523	617
6	0	0	0	0	522	617
7	0	0	0	0	521	617
8	0	0	0	0	521	617
9	0	0	0	0	522	617
10	0	0	0	0	524	618
11	0	0	0	0	524	618
12	0	0	0	0	525	618
13	0	0	0	0	525	618
14	0	0	0	0	524	618
15	0	0	0	0	525	619
0	0	0	0	0	525	619
1	0	0	0	0	525	618
2	0	0	0	0	526	618
3	0	0	0	0	525	618
4	0	0	0	0	524	618
5	0	0	0	0	524	619
6	0	0	0	0	523	618
7	0	0	0	0	522	618
8	0	0	0	0	520	619
9	0	0	0	0	519	618
10	0	0	0	0	519	618
11	0	0	0	0	519	618
12	0	0	0	0	519	619
13	0	0	0	0	519	619
14	0	0	0	0	519	619
15	0	0	0	0	519	618
0	0	0	0	0	519	618
1	0	0	0	0	517	618
2	0	0	0	0	517	618
3	0	0	0	0	517	618
4	0	0	0	0	518	617
5	0	0	0	0	518	617
6	0	0	0	0	518	618
7	0	0	0	0	518	617
8	0	0	0	0	518	619
9	0	0	0	0	518	617
10	0	0	0	0	518	617
11	0	0	0	0	518	617
12	0	0	0	0	518	617
13	0	0	0	0	516	617
14	0	0	0	0	514	617
15	0	0	0	0	513	616
0	0	0	0	0	513	616
1	0	0	0	0	512	616
2	0	0	0	0	512	616
3	0	0	0	0	512	617
4	0	0	0	0	512	616
5	0	0	0	0	513	615
6	0	0	0	0	514	615
7	0	0	0	0	515	616
8	0	0	0	0	515	616
9	0	0	0	0	516	615
10	0	0	0	0	516	616
11	0	0	0	0	515	615
12	0	0	0	0	515	615
13	0	0	0	0	515	615
14	0	0	0	0	515	615
15	0	0	0	0	515	614
0	0	0	0	0	515	615
1	0	0	0	0	514	615
2	0	0	0	0	513	615
3	0	0	0	0	511	614
4	0	0	0	0	509	615
5	0	0	0	0	506	615
6	0	0	0	0	503	615
7	0	0	0	0	499	615
8	0	0	0	0	497	615
9	0	0	0	0	496	615
10	0	0	0	0	495	615
11	0	0	0	0	494	615
12	0	0	0	0	493	615
13	0	0	0	0	494	615
14	0	0	0	0	494	614
15	0	0	0	0	494	615
0	0	0	0	0	494	615
1	0	0	0	0	494	614
2	0	0	0	0	494	614
3	0	0	0	0	493	614
4	0	0	0	0	492	615
5	0	0	0	0	490	615
6	0	0	0	0	487	615
7	0	0	0	0	486	615
8	0	0	0	0	484	615
9	0	0	0	0	483	615
10	0	0	0	0	483	615
11	0	0	0	0	485	615
12	0	0	0	0	489	615
13	0	0	0	0	495	615
14	0	0	0	0	502	615
15	0	0	0	0	509	616
0	0	0	0	0	518	617
1	0	0	0	0	527	616
2	0	0	0	0	537	616
3	0	0	0	0	550	616
4	0	0	0	0	563	616
5	0	0	0	0	578	616
6	0	0	0	0	591	616
7	0	0	0	0	605	615
8	0	0	0	0	619	616
9	0	0	0	0	632	617
10	0	0	0	0	643	617
11	0	0	0	0	654	617
12	0	0	0	0	660	617
13	0	0	0	0	664	617
14	0	0	0	0	665	617
15	0	0	0	0	663	617
0	0	0	0	0	659	617
1	0	0	0	0	655	618
2	0	0	0	0	650	617
3	0	0	0	0	643	617
4	0	0	0	0	635	617
5	0	0	0	0	624	617
6	0	0	0	0	612	617
7	0	0	0	0	601	617
8	0	0	0	0	592	618
9	0	0	0	0	584	617
10	0	0	0	0	575	617
11	0	0	0	0	567	617
12	0	0	0	0	557	617
13	0	0	0	0	547	617
14	0	0	0	0	542	618
15	0	0	0	0	539	617
0	0	0	0	0	536	617
1	0	0	0	0	533	617
2	0	0	0	0	531	617
3	0	0	0	0	529	617
4	0	0	0	0	527	617
5	0	0	0	0	525	617
6	0	0	0	0	519	617
7	0	0	0	0	513	617
8	0	0	0	0	504	617
9	0	0	0	0	498	617
10	0	0	0	0	492	617
11	0	0	0	0	487	617
12	0	0	0	0	483	617
13	0	0	0	0	480	617
14	0	0	0	0	479	617
15	0	0	0	0	478	617
0	0	0	0	0	478	618
1	0	0	0	0	478	617
2	0	0	0	0	477	617
3	0	0	0	0	476	617
4	0	0	0	0	475	617
5	0	0	0	0	473	617
6	0	0	0	0	472	618
7	0	0	0	0	471	618
8	0	0	0	0	469	619
9	0	0	0	0	467	618
10	0	0	0	0	467	618
11	0	0	0	0	467	618
12	0	0	0	0	465	618
13	0	0	0	0	463	617
14	0	0	0	0	463	617
15	0	0	0	0	461	617
0	0	0	0	0	460	617
1	0	0	0	0	459	617
2	0	0	0	0	458	617
3	0	0	0	0	458	617
4	0	0	0	0	458	617
5	0	0	0	0	459	617
6	0	0	0	0	460	617
7	0	0	0	0	461	617
8	0	0	0	0	463	617
9	0	0	0	0	464	617
10	0	0	0	0	465	617
11	0	0	0	0	466	617
12	0	0	0	0	466	617
13	0	0	0	0	466	617
14	0	0	0	0	466	616
15	0	0	0	0	465	616
0	0	0	0	0	465	617
1	0	0	0	0	465	615
2	0	0	0	0	464	616
3	0	0	0	0	464	616
4	0	0	0	0	464	616
5	0	0	0	0	464	617
6	0	0	0	0	464	616
7	0	0	0	0	463	616
8	0	0	0	0	462	617
9	0	0	0	0	463	616
10	0	0	0	0	464	616
11	0	0	0	0	464	616
12	0	0	0	0	464	616
13	0	0	0	0	464	615
14	0	0	0	0	464	615
15	0	0	0	0	465	616
0	0	0	0	0	466	616
1	0	0	0	0	465	615
2	0	0	0	0	465	615
3	0	0	0	0	464	615
4	0	0	0	0	463	615
5	0	0	0	0	460	615
6	0	0	0	0	457	615
7	0	0	0	0	455	615
8	0	0	0	0	454	616
9	0	0	0	0	454	615
10	0	0	0	0	455	615
11	0	0	0	0	457	615
12	0	0	0	0	460	615
13	0	0	0	0	465	616
14	0	0	0	0	468	615
15	0	0	0	0	473	616
0	0	0	0	0	477	617
1	0	0	0	0	480	616
2	0	0	0	0	483	616
3	0	0	0	0	484	616
4	0	0	0	0	485	616
5	0	0	0	0	485	616
6	0	0	0	0	484	616
7	0	0	0	0	485	616
8	0	0	0	0	485	617
9	0	0	0	0	484	616
10	0	0	0	0	483	616
11	0	0	0	0	483	615
12	0	0	0	0	483	616
13	0	0	0	0	483	616
14	0	0	0	0	483	617
15	0	0	0	0	484	617
0	0	0	0	0	484	617
1	0	0	0	0	484	616
2	0	0	0	0	484	617
3	0	0	0	0	485	616
4	0	0	0	0	486	616
5	0	0	0	0	486	616
6	0	0	0	0	485	616
7	0	0	0	0	485	616
8	0	0	0	0	484	617
9	0	0	0	0	483	616
10	0	0	0	0	482	616
11	0	0	0	0	482	616
12	0	0	0	0	483	616
13	0	0	0	0	484	616
14	0	0	0	0	486	615
15	0	0	0	0	486	616
0	0	0	0	0	487	616
1	0	0	0	0	487	616
2	0	0	0	0	488	616
3	0	0	0	0	488	616
4	0	0	0	0	489	616
5	0	0	0	0	490	616
6	0	0	0	0	490	616
7	0	0	0	0	491	616
8	0	0	0	0	491	617
9	0	0	0	0	491	616
10	0	0	0	0	491	617
11	0	0	0	0	491	616
12	0	0	0	0	490	616
13	0	0	0	0	489	615
14	0	0	0	0	488	616
15	0	0	0	0	489	615
0	0	0	0	0	489	616
1	0	0	0	0	490	616
2	0	0	0	0	490	616
3	0	0	0	0	490	615
4	0	0	0	0	491	616
5	0	0	0	0	491	615
6	0	0	0	0	492	616
7	0	0	0	0	492	615
8	0	0	0	0	492	617
9	0	0	0	0	492	616
10	0	0	0	0	492	615
11	0	0	0	0	492	616
12	0	0	0	0	493	616
13	0	0	0	0	493	615
14	0	0	0	0	493	616
15	0	0	0	0	492	615
0	0	0	0	0	492	616
1	0	0	0	0	491	616
2	0	0	0	0	490	615
3	0	0	0	0	490	616
4	0	0	0	0	490	616
5	0	0	0	0	491	616
6	0	0	0	0	491	616
7	0	0	0	0	490	617
8	0	0	0	0	491	617
9	0	0	0	0	492	616
10	0	0	0	0	493	617
11	0	0	0	0	494	617
12	0	0	0	0	492	617
13	0	0	0	0	491	617
14	0	0	0	0	489	617
15	0	0	0	0	486	617
0	0	0	0	0	484	618
1	0	0	0	0	484	617
2	0	0	0	0	485	618
3	0	0	0	0	486	618
4	0	0	0	0	487	618
5	0	0	0	0	487	618
6	0	0	0	0	487	618
7	0	0	0	0	489	618
8	0	0	0	0	490	618
9	0	0	0	0	493	617
10	0	0	0	0	496	618
11	0	0	0	0	499	618
12	0	0	0	0	502	618
13	0	0	0	0	504	617
14	0	0	0	0	507	618
15	0	0	0	0	509	618
0	0	0	0	0	511	619
1	0	0	0	0	513	618
2	0	0	0	0	514	618
3	0	0	0	0	514	619
4	0	0	0	0	513	619
5	0	0	0	0	512	619
6	0	0	0	0	513	618
7	0	0	0	0	513	618
8	0	0	0	0	515	619
9	0	0	0	0	516	618
10	0	0	0	0	517	619
11	0	0	0	0	518	619
12	0	0	0	0	518	619
13	0	0	0	0	519	618
14	0	0	0	0	520	618
15	0	0	0	0	520	619
0	0	0	0	0	519	619
1	0	0	0	0	519	618
2	0	0	0	0	520	618
3	0	0	0	0	522	617
4	0	0	0	0	522	618
5	0	0	0	0	522	618
6	0	0	0	0	522	617
7	0	0	0	0	521	618
8	0	0	0	0	521	618
9	0	0	0	0	523	618
10	0	0	0	0	524	617
11	0	0	0	0	524	617
12	0	0	0	0	525	618
13	0	0	0	0	526	617
14	0	0	0	0	526	616
15	0	0	0	0	526	617
0	0	0	0	0	526	617
1	0	0	0	0	527	617
2	0	0	0	0	528	617
3	0	0	0	0	528	617
4	0	0	0	0	528	617
5	0	0	0	0	527	617
6	0	0	0	0	526	617
7	0	0	0	0	526	616
8	0	0	0	0	526	617
9	0	0	0	0	526	616
10	0	0	0	0	525	617
11	0	0	0	0	525	617
12	0	0	0	0	524	617
13	0	0	0	0	524	617
14	0	0	0	0	524	617
15	0	0	0	0	523	617
0	0	0	0	0	522	617
1	0	0	0	0	523	617
2	0	0	0	0	523	617
3	0	0	0	0	524	617
4	0	0	0	0	525	617
5	0	0	0	0	526	616
6	0	0	0	0	526	616
7	0	0	0	0	527	616
8	0	0	0	0	527	617
9	0	0	0	0	526	617
10	0	0	0	0	526	616
11	0	0	0	0	525	616
12	0	0	0	0	524	617
13	0	0	0	0	525	615
14	0	0	0	0	526	615
15	0	0	0	0	526	616
0	0	0	0	0	525	617
1	0	0	0	0	525	615
2	0	0	0	0	524	615
3	0	0	0	0	524	615
4	0	0	0	0	524	616
5	0	0	0	0	524	616
6	0	0	0	0	523	615
7	0	0	0	0	523	615
8	0	0	0	0	523	616
9	0	0	0	0	524	616
10	0	0	0	0	524	615
11	0	0	0	0	524	615
12	0	0	0	0	523	616
13	0	0	0	0	521	616
14	0	0	0	0	520	616
15	0	0	0	0	518	616
0	0	0	0	0	516	616
1	0	0	0	0	515	616
2	0	0	0	0	514	616
3	0	0	0	0	512	616
4	0	0	0	0	511	617
5	0	0	0	0	509	616
6	0	0	0	0	507	616
7	0	0	0	0	506	616
8	0	0	0	0	504	617
9	0	0	0	0	503	617
10	0	0	0	0	500	616
11	0	0	0	0	499	617
12	0	0	0	0	497	617
13	0	0	0	0	496	617
14	0	0	0	0	495	617
15	0	0	0	0	494	616
0	0	0	0	0	493	618
1	0	0	0	0	492	616
2	0	0	0	0	492	617
3	0	0	0	0	491	617
4	0	0	0	0	491	617
5	0	0	0	0	491	617
6	0	0	0	0	489	617
7	0	0	0	0	488	616
8	0	0	0	0	488	617
9	0	0	0	0	488	616
10	0	0	0	0	487	616
11	0	0	0	0	487	616
12	0	0	0	0	487	616
13	0	0	0	0	487	616
14	0	0	0	0	487	616
15	0	0	0	0	488	616
0	0	0	0	0	487	617
1	0	0	0	0	487	617
2	0	0	0	0	487	617
3	0	0	0	0	486	616
4	0	0	0	0	486	616
5	0	0	0	0	485	616
6	0	0	0	0	485	616
7	0	0	0	0	484	616
8	0	0	0	0	483	617
9	0	0	0	0	483	616
10	0	0	0	0	483	616
11	0	0	0	0	483	617
12	0	0	0	0	484	616
13	0	0	0	0	485	617
14	0	0	0	0	485	617
15	0	0	0	0	485	617
0	0	0	0	0	484	618
1	0	0	0	0	484	617
2	0	0	0	0	484	617
3	0	0	0	0	483	617
4	0	0	0	0	483	616
5	0	0	0	0	483	617
6	0	0	0	0	483	616
7	0	0	0	0	482	616
8	0	0	0	0	481	617
9	0	0	0	0	480	616
10	0	0	0	0	479	617
11	0	0	0	0	479	616
12	0	0	0	0	478	616
13	0	0	0	0	477	616
14	0	0	0	0	479	616
15	0	0	0	0	480	615
0	0	0	0	0	480	615
1	0	0	0	0	479	615
2	0	0	0	0	481	616
3	0	0	0	0	483	615
4	0	0	0	0	486	615
5	0	0	0	0	490	615
6	0	0	0	0	494	615
7	0	0	0	0	499	615
8	0	0	0	0	502	616
9	0	0	0	0	505	615
10	0	0	0	0	509	616
11	0	0	0	0	512	615
12	0	0	0	0	514	615
13	0	0	0	0	515	615
14	0	0	0	0	516	616
15	0	0	0	0	517	615
0	0	0	0	0	516	616
1	0	0	0	0	515	616
2	0	0	0	0	514	616
3	0	0	0	0	512	616
4	0	0	0	0	511	616
5	0	0	0	0	510	616
6	0	0	0	0	508	617
7	0	0	0	0	507	617
8	0	0	0	0	506	617
9	0	0	0	0	505	617
10	0	0	0	0	505	617
11	0	0	0	0	504	617
12	0	0	0	0	503	617
13	0	0	0	0	502	617
14	0	0	0	0	501	618
15	0	0	0	0	500	617
0	0	0	0	0	501	618
1	0	0	0	0	499	618
2	0	0	0	0	498	617
3	0	0	0	0	497	617
4	0	0	0	0	497	617
5	0	0	0	0	497	617
6	0	0	0	0	498	618
7	0	0	0	0	498	617
8	0	0	0	0	498	618
9	0	0	0	0	498	617
10	0	0	0	0	498	618
11	0	0	0	0	497	617
12	0	0	0	0	498	617
13	0	0	0	0	499	617
14	0	0	0	0	498	617
15	0	0	0	0	499	617
0	0	0	0	0	499	618
1	0	0	0	0	499	617
2	0	0	0	0	498	617
3	0	0	0	0	497	617
4	0	0	0	0	498	617
5	0	0	0	0	498	617
6	0	0	0	0	497	617
7	0	0	0	0	497	617
8	0	0	0	0	496	617
9	0	0	0	0	497	617
10	0	0	0	0	497	617
11	0	0	0	0	497	617
12	0	0	0	0	497	617
13	0	0	0	0	496	616
14	0	0	0	0	496	616
15	0	0	0	0	496	615
0	0	0	0	0	496	617
1	0	0	0	0	495	616
2	0	0	0	0	494	616
3	0	0	0	0	493	615
4	0	0	0	0	492	615
5	0	0	0	0	492	615
6	0	0	0	0	491	615
7	0	0	0	0	489	615
8	0	0	0	0	489	616
9	0	0	0	0	490	615
10	0	0	0	0	491	616
11	0	0	0	0	491	615
12	0	0	0	0	492	615
13	0	0	0	0	494	615
14	0	0	0	0	496	615
15	0	0	0	0	498	615
0	0	0	0	0	499	615
1	0	0	0	0	502	615
2	0	0	0	0	503	615
3	0	0	0	0	504	615
4	0	0	0	0	506	615
5	0	0	0	0	507	615
6	0	0	0	0	506	615
7	0	0	0	0	505	615
8	0	0	0	0	505	615
9	0	0	0	0	505	615
10	0	0	0	0	505	615
11	0	0	0	0	505	615
12	0	0	0	0	507	615
13	0	0	0	0	508	615
14	0	0	0	0	508	615
15	0	0	0	0	508	615
0	0	0	0	0	507	616
1	0	0	0	0	508	615
2	0	0	0	0	507	615
3	0	0	0	0	507	615
4	0	0	0	0	506	615
5	0	0	0	0	507	615
6	0	0	0	0	508	615
7	0	0	0	0	507	615
8	0	0	0	0	507	616
9	0	0	0	0	506	616
10	0	0	0	0	506	616
11	0	0	0	0	506	616
12	0	0	0	0	504	615
13	0	0	0	0	505	616
14	0	0	0	0	504	617
15	0	0	0	0	504	616
0	0	0	0	0	503	618
1	0	0	0	0	504	616
2	0	0	0	0	504	617
3	0	0	0	0	503	617
4	0	0	0	0	502	617
5	0	0	0	0	501	617
6	0	0	0	0	501	617
7	0	0	0	0	501	617
8	0	0	0	0	502	618
9	0	0	0	0	502	617
10	0	0	0	0	502	617
11	0	0	0	0	501	618
12	0	0	0	0	501	618
13	0	0	0	0	499	617
14	0	0	0	0	499	617
15	0	0	0	0	499	618
0	0	0	0	0	500	618
1	0	0	0	0	501	617
2	0	0	0	0	502	617
3	0	0	0	0	503	616
4	0	0	0	0	503	617
5	0	0	0	0	503	617
6	0	0	0	0	503	617
7	0	0	0	0	503	616
8	0	0	0	0	503	617
9	0	0	0	0	503	617
10	0	0	0	0	502	617
11	0	0	0	0	502	616
12	0	0	0	0	502	616
13	0	0	0	0	503	615
14	0	0	0	0	504	616
15	0	0	0	0	504	616
0	0	0	0	0	505	617
1	0	0	0	0	505	616
2	0	0	0	0	506	617
3	0	0	0	0	507	617
4	0	0	0	0	508	616
5	0	0	0	0	508	617
6	0	0	0	0	507	616
7	0	0	0	0	508	616
8	0	0	0	0	508	617
9	0	0	0	0	509	617
10	0	0	0	0	511	617
11	0	0	0	0	510	616
12	0	0	0	0	509	617
13	0	0	0	0	508	617
14	0	0	0	0	508	617
15	0	0	0	0	507	616
0	0	0	0	0	505	617
1	0	0	0	0	506	617
2	0	0	0	0	505	618
3	0	0	0	0	505	617
4	0	0	0	0	505	617
5	0	0	0	0	507	618
6	0	0	0	0	508	617
7	0	0	0	0	506	618
8	0	0	0	0	504	618
9	0	0	0	0	503	618
10	0	0	0	0	501	619
11	0	0	0	0	498	619
12	0	0	0	0	496	619
13	0	0	0	0	495	619
14	0	0	0	0	494	618
15	0	0	0	0	494	618
0	0	0	0	0	496	619
1	0	0	0	0	498	619
2	0	0	0	0	500	619
3	0	0	0	0	502	618
4	0	0	0	0	504	618
5	0	0	0	0	505	618
6	0	0	0	0	507	618
7	0	0	0	0	509	618
8	0	0	0	0	511	618
9	0	0	0	0	511	617
10	0	0	0	0	511	618
11	0	0	0	0	512	618
12	0	0	0	0	512	617
13	0	0	0	0	512	618
14	0	0	0	0	511	618
15	0	0	0	0	510	618
0	0	0	0	0	510	619
1	0	0	0	0	508	617
2	0	0	0	0	508	617
3	0	0	0	0	507	617
4	0	0	0	0	506	617
5	0	0	0	0	504	617
6	0	0	0	0	504	617
7	0	0	0	0	503	618
8	0	0	0	0	503	618
9	0	0	0	0	502	617
10	0	0	0	0	502	617
11	0	0	0	0	502	617
12	0	0	0	0	502	617
13	0	0	0	0	502	617
14	0	0	0	0	502	617
15	0	0	0	0	502	616
0	0	0	0	0	502	617
1	0	0	0	0	502	617
2	0	0	0	0	502	617
3	0	0	0	0	502	616
4	0	0	0	0	502	617
5	0	0	0	0	503	617
6	0	0	0	0	505	616
7	0	0	0	0	505	616
8	0	0	0	0	506	617
9	0	0	0	0	506	617
10	0	0	0	0	507	616
11	0	0	0	0	508	617
12	0	0	0	0	508	617
13	0	0	0	0	508	616
14	0	0	0	0	507	616
15	0	0	0	0	507	616
0	0	0	0	0	506	617
1	0	0	0	0	505	615
2	0	0	0	0	504	615
3	0	0	0	0	503	616
4	0	0	0	0	502	616
5	0	0	0	0	502	615
6	0	0	0	0	502	615
7	0	0	0	0	502	615
8	0	0	0	0	502	616
9	0	0	0	0	502	615
10	0	0	0	0	502	616
11	0	0	0	0	502	615
12	0	0	0	0	500	615
13	0	0	0	0	499	615
14	0	0	0	0	498	615
15	0	0	0	0	497	615
0	0	0	0	0	496	615
1	0	0	0	0	495	615
2	0	0	0	0	495	615
3	0	0	0	0	494	615
4	0	0	0	0	492	615
5	0	0	0	0	492	615
6	0	0	0	0	494	615
7	0	0	0	0	497	615
8	0	0	0	0	497	616
9	0	0	0	0	498	615
10	0	0	0	0	499	615
11	0	0	0	0	501	615
12	0	0	0	0	503	615
13	0	0	0	0	505	615
14	0	0	0	0	508	615
15	0	0	0	0	509	615
0	0	0	0	0	511	616
1	0	0	0	0	513	615
2	0	0	0	0	513	615
3	0	0	0	0	512	615
4	0	0	0	0	509	615
5	0	0	0	0	506	615
6	0	0	0	0	503	615
7	0	0	0	0	500	615
8	0	0	0	0	497	615
9	0	0	0	0	497	615
10	0	0	0	0	497	615
11	0	0	0	0	497	616
12	0	0	0	0	497	616
13	0	0	0	0	498	616
14	0	0	0	0	499	617
15	0	0	0	0	499	616
0	0	0	0	0	500	617
1	0	0	0	0	501	616
2	0	0	0	0	503	617
3	0	0	0	0	503	616
4	0	0	0	0	504	616
5	0	0	0	0	506	616
6	0	0	0	0	507	616
7	0	0	0	0	508	616
8	0	0	0	0	508	617
9	0	0	0	0	508	616
10	0	0	0	0	509	616
11	0	0	0	0	508	617
12	0	0	0	0	508	617
13	0	0	0	0	508	616
14	0	0	0	0	507	617
15	0	0	0	0	505	617
0	0	0	0	0	504	617
1	0	0	0	0	504	617
2	0	0	0	0	504	617
3	0	0	0	0	506	617
4	0	0	0	0	508	617
5	0	0	0	0	508	617
6	0	0	0	0	508	617
7	0	0	0	0	508	617
8	0	0	0	0	509	618
9	0	0	0	0	509	617
10	0	0	0	0	510	617
11	0	0	0	0	509	618
12	0	0	0	0	508	618
13	0	0	0	0	508	618
14	0	0	0	0	508	617
15	0	0	0	0	508	617
0	0	0	0	0	508	619
1	0	0	0	0	507	617
2	0	0	0	0	507	617
3	0	0	0	0	507	617
4	0	0	0	0	507	617
5	0	0	0	0	507	617
6	0	0	0	0	507	617
7	0	0	0	0	506	617
8	0	0	0	0	505	618
9	0	0	0	0	505	617
10	0	0	0	0	505	617
11	0	0	0	0	504	616
12	0	0	0	0	505	616
13	0	0	0	0	506	617
14	0	0	0	0	505	617
15	0	0	0	0	505	616
0	0	0	0	0	504	617
1	0	0	0	0	504	616
2	0	0	0	0	503	616
3	0	0	0	0	502	615
4	0	0	0	0	502	616
5	0	0	0	0	501	616
6	0	0	0	0	500	616
7	0	0	0	0	500	616
8	0	0	0	0	500	616
9	0	0	0	0	500	615
10	0	0	0	0	499	616
11	0	0	0	0	498	615
12	0	0	0	0	497	616
13	0	0	0	0	496	615
14	0	0	0	0	497	615
15	0	0	0	0	498	616
0	0	0	0	0	500	617
1	0	0	0	0	501	615
2	0	0	0	0	502	615
3	0	0	0	0	503	615
4	0	0	0	0	504	616
5	0	0	0	0	507	616
6	0	0	0	0	510	616
7	0	0	0	0	512	615
8	0	0	0	0	512	616
9	0	0	0	0	512	615
10	0	0	0	0	510	615
11	0	0	0	0	508	616
12	0	0	0	0	505	615
13	0	0	0	0	504	616
14	0	0	0	0	504	615
15	0	0	0	0	504	615
0	0	0	0	0	504	616
1	0	0	0	0	505	615
2	0	0	0	0	505	616
3	0	0	0	0	504	615
4	0	0	0	0	504	616
5	0	0	0	0	503	616
6	0	0	0	0	502	616
7	0	0	0	0	503	616
8	0	0	0	0	504	616
9	0	0	0	0	505	616
10	0	0	0	0	507	615
11	0	0	0	0	510	616
12	0	0	0	0	512	616
13	0	0	0	0	512	616
14	0	0	0	0	512	616
15	0	0	0	0	512	616
0	0	0	0	0	511	617
1	0	0	0	0	512	616
2	0	0	0	0	511	616
3	0	0	0	0	511	616
4	0	0	0	0	510	616
5	0	0	0	0	510	616
6	0	0	0	0	509	617
7	0	0	0	0	508	617
8	0	0	0	0	508	618
9	0	0	0	0	510	617
10	0	0	0	0	512	617
11	0	0	0	0	513	617
12	0	0	0	0	514	617
13	0	0	0	0	515	617
14	0	0	0	0	515	617
15	0	0	0	0	515	618
0	0	0	0	0	515	618
1	0	0	0	0	514	617
2	0	0	0	0	512	618
3	0	0	0	0	510	617
4	0	0	0	0	508	617
5	0	0	0	0	505	618
6	0	0	0	0	504	617
7	0	0	0	0	504	618
8	0	0	0	0	504	619
9	0	0	0	0	504	619
10	0	0	0	0	504	618
11	0	0	0	0	505	619
12	0	0	0	0	506	618
13	0	0	0	0	507	618
14	0	0	0	0	507	617
15	0	0	0	0	508	619
0	0	0	0	0	509	619
1	0	0	0	0	509	617
2	0	0	0	0	510	618
3	0	0	0	0	509	618
4	0	0	0	0	508	618
5	0	0	0	0	506	618
6	0	0	0	0	505	618
7	0	0	0	0	504	617
8	0	0	0	0	504	619
9	0	0	0	0	503	617
10	0	0	0	0	504	618
11	0	0	0	0	503	617
12	0	0	0	0	504	618
13	0	0	0	0	505	617
14	0	0	0	0	506	617
15	0	0	0	0	508	617
0	0	0	0	0	509	618
1	0	0	0	0	510	617
2	0	0	0	0	510	617
3	0	0	0	0	510	616
4	0	0	0	0	511	617
5	0	0	0	0	511	617
6	0	0	0	0	510	617
7	0	0	0	0	510	617
8	0	0	0	0	510	617
9	0	0	0	0	509	617
10	0	0	0	0	509	617
11	0	0	0	0	508	617
12	0	0	0	0	507	616
13	0	0	0	0	507	616
14	0	0	0	0	507	616
15	0	0	0	0	506	616
0	0	0	0	0	506	617
1	0	0	0	0	507	616
2	0	0	0	0	507	616
3	0	0	0	0	507	616
4	0	0	0	0	506	617
5	0	0	0	0	505	617
6	0	0	0	0	504	617
7	0	0	0	0	503	617
8	0	0	0	0	501	618
9	0	0	0	0	499	617
10	0	0	0	0	499	617
11	0	0	0	0	498	617
12	0	0	0	0	496	617
13	0	0	0	0	496	616
14	0	0	0	0	496	616
15	0	0	0	0	497	616
0	0	0	0	0	498	617
1	0	0	0	0	499	618
2	0	0	0	0	500	617
3	0	0	0	0	502	616
4	0	0	0	0	505	617
5	0	0	0	0	508	618
6	0	0	0	0	511	617
7	0	0	0	0	513	617
8	0	0	0	0	514	617
9	0	0	0	0	516	617
10	0	0	0	0	517	617
11	0	0	0	0	517	617
12	0	0	0	0	516	617
13	0	0	0	0	515	617
14	0	0	0	0	515	617
15	0	0	0	0	514	617
0	0	0	0	0	513	617
1	0	0	0	0	512	617
2	0	0	0	0	511	617
3	0	0	0	0	509	617
4	0	0	0	0	508	617
5	0	0	0	0	507	617
6	0	0	0	0	508	617
7	0	0	0	0	509	617
8	0	0	0	0	510	618
9	0	0	0	0	512	617
10	0	0	0	0	513	617
11	0	0	0	0	512	618
12	0	0	0	0	512	617
13	0	0	0	0	512	617
14	0	0	0	0	513	617
15	0	0	0	0	514	618
0	0	0	0	0	514	618
1	0	0	0	0	514	618
2	0	0	0	0	515	618
3	0	0	0	0	515	618
4	0	0	0	0	515	618
5	0	0	0	0	515	618
6	0	0	0	0	515	617
7	0	0	0	0	515	618
8	0	0	0	0	514	619
9	0	0	0	0	514	617
10	0	0	0	0	513	618
11	0	0	0	0	514	617
12	0	0	0	0	515	618
13	0	0	0	0	516	618
14	0	0	0	0	517	618
15	0	0	0	0	518	617
0	0	0	0	0	518	618
1	0	0	0	0	519	618
2	0	0	0	0	519	618
3	0	0	0	0	520	618
4	0	0	0	0	520	619
5	0	0	0	0	521	618
6	0	0	0	0	521	618
7	0	0	0	0	521	618
8	0	0	0	0	521	619
9	0	0	0	0	521	618
10	0	0	0	0	520	618
11	0	0	0	0	520	618
12	0	0	0	0	520	618
13	0	0	0	0	521	617
14	0	0	0	0	523	618
15	0	0	0	0	521	617
0	0	0	0	0	520	618
1	0	0	0	0	519	617
2	0	0	0	0	518	617
3	0	0	0	0	516	617
4	0	0	0	0	515	617
5	0	0	0	0	515	617
6	0	0	0	0	515	617
7	0	0	0	0	515	618
8	0	0	0	0	514	618
9	0	0	0	0	515	617
10	0	0	0	0	514	617
11	0	0	0	0	514	617
12	0	0	0	0	514	617
13	0	0	0	0	513	616
14	0	0	0	0	512	616
15	0	0	0	0	512	617
0	0	0	0	0	512	618
1	0	0	0	0	512	616
2	0	0	0	0	513	616
3	0	0	0	0	513	616
4	0	0	0	0	513	617
5	0	0	0	0	513	617
6	0	0	0	0	513	616
7	0	0	0	0	512	616
8	0	0	0	0	512	617
9	0	0	0	0	513	616
10	0	0	0	0	513	616
11	0	0	0	0	513	616
12	0	0	0	0	513	617
13	0	0	0	0	513	616
14	0	0	0	0	515	616
15	0	0	0	0	514	616
0	0	0	0	0	513	617
1	0	0	0	0	511	616
2	0	0	0	0	510	616
3	0	0	0	0	508	616
4	0	0	0	0	507	616
5	0	0	0	0	507	616
6	0	0	0	0	508	616
7	0	0	0	0	509	616
8	0	0	0	0	511	617
9	0	0	0	0	511	616
10	0	0	0	0	512	617
11	0	0	0	0	513	617
12	0	0	0	0	514	616
13	0	0	0	0	515	617
14	0	0	0	0	517	617
15	0	0	0	0	518	617
0	0	0	0	0	518	618
1	0	0	0	0	518	615
2	0	0	0	0	518	616
3	0	0	0	0	519	616
4	0	0	0	0	519	616
5	0	0	0	0	517	616
6	0	0	0	0	515	616
7	0	0	0	0	512	616
8	0	0	0	0	511	617
9	0	0	0	0	510	617
10	0	0	0	0	509	616
11	0	0	0	0	509	617
12	0	0	0	0	510	617
13	0	0	0	0	510	617
14	0	0	0	0	510	617
15	0	0	0	0	510	616
0	0	0	0	0	512	617
1	0	0	0	0	515	616
2	0	0	0	0	516	617
3	0	0	0	0	519	616
4	0	0	0	0	521	616
5	0	0	0	0	523	617
6	0	0	0	0	524	616
7	0	0	0	0	524	617
8	0	0	0	0	525	617
9	0	0	0	0	525	616
10	0	0	0	0	524	616
11	0	0	0	0	523	616
12	0	0	0	0	521	616
13	0	0	0	0	519	617
14	0	0	0	0	518	617
15	0	0	0	0	516	616
0	0	0	0	0	514	616
1	0	0	0	0	511	616
2	0	0	0	0	509	617
3	0	0	0	0	507	617
4	0	0	0	0	505	616
5	0	0	0	0	504	617
6	0	0	0	0	502	616
7	0	0	0	0	498	616
8	0	0	0	0	496	617
9	0	0	0	0	495	616
10	0	0	0	0	492	616
11	0	0	0	0	490	615
12	0	0	0	0	489	616
13	0	0	0	0	488	616
14	0	0	0	0	485	616
15	0	0	0	0	483	616
0	0	0	0	0	482	616
1	0	0	0	0	481	616
2	0	0	0	0	483	615
3	0	0	0	0	487	615
4	0	0	0	0	491	615
5	0	0	0	0	499	615
6	0	0	0	0	506	615
7	0	0	0	0	513	615
8	0	0	0	0	522	616
9	0	0	0	0	533	615
10	0	0	0	0	545	615
11	0	0	0	0	559	615
12	0	0	0	0	574	616
13	0	0	0	0	589	616
14	0	0	0	0	604	616
15	0	0	0	0	619	616
0	0	0	0	0	633	617
1	0	0	0	0	646	616
2	0	0	0	0	656	616
3	0	0	0	0	664	616
4	0	0	0	0	668	616
5	0	0	0	0	669	617
6	0	0	0	0	667	617
7	0	0	0	0	664	617
8	0	0	0	0	660	618
9	0	0	0	0	657	616
10	0	0	0	0	651	616
11	0	0	0	0	645	617
12	0	0	0	0	639	617
13	0	0	0	0	629	616
14	0	0	0	0	619	617
15	0	0	0	0	610	616
0	0	0	0	0	601	617
1	0	0	0	0	593	616
2	0	0	0	0	585	617
3	0	0	0	0	576	617
4	0	0	0	0	569	617
5	0	0	0	0	562	616
6	0	0	0	0	558	616
7	0	0	0	0	555	616
8	0	0	0	0	551	617
9	0	0	0	0	547	617
10	0	0	0	0	543	617
11	0	0	0	0	540	617
12	0	0	0	0	538	617
13	0	0	0	0	535	616
14	0	0	0	0	531	617
15	0	0	0	0	527	617
0	0	0	0	0	521	617
1	0	0	0	0	515	617
2	0	0	0	0	510	617
3	0	0	0	0	506	617
4	0	0	0	0	502	617
5	0	0	0	0	499	616
6	0	0	0	0	498	616
7	0	0	0	0	499	617
8	0	0	0	0	500	617
9	0	0	0	0	500	616
10	0	0	0	0	499	616
11	0	0	0	0	499	617
12	0	0	0	0	499	616
13	0	0	0	0	499	616
14	0	0	0	0	500	616
15	0	0	0	0	501	616
0	0	0	0	0	503	617
1	0	0	0	0	505	616
2	0	0	0	0	507	617
3	0	0	0	0	507	617
4	0	0	0	0	504	616
5	0	0	0	0	503	617
6	0	0	0	0	502	616
7	0	0	0	0	500	616
8	0	0	0	0	499	617
9	0	0	0	0	499	616
10	0	0	0	0	501	617
11	0	0	0	0	501	616
12	0	0	0	0	500	616
13	0	0	0	0	499	616
14	0	0	0	0	499	615
15	0	0	0	0	499	615
0	0	0	0	0	499	616
1	0	0	0	0	499	616
2	0	0	0	0	498	616
3	0	0	0	0	497	615
4	0	0	0	0	497	616
5	0	0	0	0	497	616
6	0	0	0	0	498	616
7	0	0	0	0	498	616
8	0	0	0	0	499	617
9	0	0	0	0	499	616
10	0	0	0	0	499	615
11	0	0	0	0	499	615
12	0	0	0	0	499	616
13	0	0	0	0	499	615
14	0	0	0	0	499	616
15	0	0	0	0	499	615
0	0	0	0	0	499	616
1	0	0	0	0	500	615
2	0	0	0	0	501	615
3	0	0	0	0	500	615
4	0	0	0	0	502	615
5	0	0	0	0	502	615
6	0	0	0	0	502	615
7	0	0	0	0	502	615
8	0	0	0	0	502	615
9	0	0	0	0	502	615
10	0	0	0	0	502	615
11	0	0	0	0	502	616
12	0	0	0	0	501	615
13	0	0	0	0	501	616
14	0	0	0	0	500	615
15	0	0	0	0	500	616
0	0	0	0	0	499	617
1	0	0	0	0	498	615
2	0	0	0	0	496	616
3	0	0	0	0	494	616
4	0	0	0	0	492	616
5	0	0	0	0	490	616
6	0	0	0	0	489	616
7	0	0	0	0	488	617
8	0	0	0	0	489	617
9	0	0	0	0	491	616
10	0	0	0	0	492	616
11	0	0	0	0	492	616
12	0	0	0	0	494	616
13	0	0	0	0	496	616
14	0	0	0	0	499	616
15	0	0	0	0	502	617
0	0	0	0	0	504	618
1	0	0	0	0	505	617
2	0	0	0	0	506	617
3	0	0	0	0	507	617
4	0	0	0	0	506	616
5	0	0	0	0	506	617
6	0	0	0	0	505	617
7	0	0	0	0	507	617
8	0	0	0	0	508	619
9	0	0	0	0	508	618
10	0	0	0	0	507	617
11	0	0	0	0	508	618
12	0	0	0	0	508	618
13	0	0	0	0	508	618
14	0	0	0	0	508	618
15	0	0	0	0	509	617
0	0	0	0	0	510	618
1	0	0	0	0	511	618
2	0	0	0	0	511	617
3	0	0	0	0	512	617
4	0	0	0	0	513	617
5	0	0	0	0	515	617
6	0	0	0	0	518	617
7	0	0	0	0	519	616
8	0	0	0	0	518	617
9	0	0	0	0	518	616
10	0	0	0	0	518	616
11	0	0	0	0	517	616
12	0	0	0	0	517	616
13	0	0	0	0	516	616
14	0	0	0	0	514	615
15	0	0	0	0	512	615
0	0	0	0	0	511	616
1	0	0	0	0	509	615
2	0	0	0	0	509	615
3	0	0	0	0	510	616
4	0	0	0	0	510	615
5	0	0	0	0	510	615
6	0	0	0	0	509	615
7	0	0	0	0	508	615
8	0	0	0	0	507	615
9	0	0	0	0	507	615
10	0	0	0	0	509	615
11	0	0	0	0	511	616
12	0	0	0	0	512	615
13	0	0	0	0	512	615
14	0	0	0	0	513	616
15	0	0	0	0	513	616
0	0	0	0	0	514	616
1	0	0	0	0	516	616
2	0	0	0	0	516	615
3	0	0	0	0	517	616
4	0	0	0	0	517	616
5	0	0	0	0	516	615
6	0	0	0	0	515	616
7	0	0	0	0	512	615
8	0	0	0	0	511	617
9	0	0	0	0	510	616
10	0	0	0	0	510	616
11	0	0	0	0	509	616
12	0	0	0	0	511	616
13	0	0	0	0	513	617
14	0	0	0	0	514	617
15	0	0	0	0	516	617
0	0	0	0	0	517	618
1	0	0	0	0	518	616
2	0	0	0	0	519	617
3	0	0	0	0	520	617
4	0	0	0	0	520	617
5	0	0	0	0	520	617
6	0	0	0	0	520	617
7	0	0	0	0	519	617
8	0	0	0	0	519	618
9	0	0	0	0	518	617
10	0	0	0	0	515	616
11	0	0	0	0	515	617
12	0	0	0	0	514	617
13	0	0	0	0	513	617
14	0	0	0	0	514	617
15	0	0	0	0	516	616
0	0	0	0	0	519	617
1	0	0	0	0	522	617
2	0	0	0	0	523	617
3	0	0	0	0	524	616
4	0	0	0	0	527	617
5	0	0	0	0	528	617
6	0	0	0	0	530	617
7	0	0	0	0	530	617
8	0	0	0	0	529	618
9	0	0	0	0	529	617
10	0	0	0	0	529	617
11	0	0	0	0	529	617
12	0	0	0	0	529	616
13	0	0	0	0	529	617
14	0	0	0	0	529	617
15	0	0	0	0	529	617
0	0	0	0	0	531	617
1	0	0	0	0	532	617
2	0	0	0	0	533	617
3	0	0	0	0	536	617
4	0	0	0	0	536	617
5	0	0	0	0	536	618
6	0	0	0	0	536	617
7	0	0	0	0	536	618
8	0	0	0	0	536	619
9	0	0	0	0	535	617
10	0	0	0	0	535	618
11	0	0	0	0	534	618
12	0	0	0	0	534	618
13	0	0	0	0	533	617
14	0	0	0	0	534	617
15	0	0	0	0	534	617
0	0	0	0	0	535	618
1	0	0	0	0	536	618
2	0	0	0	0	536	618
3	0	0	0	0	535	617
4	0	0	0	0	536	618
5	0	0	0	0	535	618
6	0	0	0	0	535	617
7	0	0	0	0	536	618
8	0	0	0	0	537	619
9	0	0	0	0	541	618
10	0	0	0	0	542	618
11	0	0	0	0	543	617
12	0	0	0	0	544	617
13	0	0	0	0	544	617
14	0	0	0	0	544	618
15	0	0	0	0	544	617
0	0	0	0	0	543	617
1	0	0	0	0	543	617
2	0	0	0	0	542	617
3	0	0	0	0	543	617
4	0	0	0	0	543	617
5	0	0	0	0	543	616
6	0	0	0	0	545	616
7	0	0	0	0	545	616
8	0	0	0	0	547	617
9	0	0	0	0	547	616
10	0	0	0	0	548	616
11	0	0	0	0	550	616
12	0	0	0	0	551	616
13	0	0	0	0	551	616
14	0	0	0	0	551	616
15	0	0	0	0	550	616
0	0	0	0	0	548	617
1	0	0	0	0	547	616
2	0	0	0	0	547	616
3	0	0	0	0	547	616
4	0	0	0	0	546	616
5	0	0	0	0	546	617
6	0	0	0	0	547	616
7	0	0	0	0	547	617
8	0	0	0	0	547	617
9	0	0	0	0	545	616
10	0	0	0	0	544	617
11	0	0	0	0	542	616
12	0	0	0	0	542	616
13	0	0	0	0	542	617
14	0	0	0	0	542	615
15	0	0	0	0	541	615
0	0	0	0	0	540	616
1	0	0	0	0	539	616
2	0	0	0	0	537	616
3	0	0	0	0	535	615
4	0	0	0	0	534	615
5	0	0	0	0	531	616
6	0	0	0	0	528	616
7	0	0	0	0	525	616
8	0	0	0	0	522	616
9	0	0	0	0	520	615
10	0	0	0	0	518	616
11	0	0	0	0	516	616
12	0	0	0	0	515	616
13	0	0	0	0	515	616
14	0	0	0	0	515	616
15	0	0	0	0	516	616
0	0	0	0	0	516	617
1	0	0	0	0	515	617
2	0	0	0	0	512	616
3	0	0	0	0	512	616
4	0	0	0	0	511	617
5	0	0	0	0	510	617
6	0	0	0	0	508	617
7	0	0	0	0	508	617
8	0	0	0	0	508	617
9	0	0	0	0	506	617
10	0	0	0	0	505	617
11	0	0	0	0	504	617
12	0	0	0	0	504	617
13	0	0	0	0	503	617
14	0	0	0	0	503	617
15	0	0	0	0	503	617
0	0	0	0	0	502	619
1	0	0	0	0	501	617
2	0	0	0	0	501	618
3	0	0	0	0	499	618
4	0	0	0	0	499	619
5	0	0	0	0	498	618
6	0	0	0	0	498	617
7	0	0	0	0	498	617
8	0	0	0	0	498	619
9	0	0	0	0	497	619
10	0	0	0	0	496	618
11	0	0	0	0	494	619
12	0	0	0	0	492	619
13	0	0	0	0	492	619
14	0	0	0	0	492	619
15	0	0	0	0	492	619
0	0	0	0	0	492	619
1	0	0	0	0	492	618
2	0	0	0	0	492	618
3	0	0	0	0	493	619
4	0	0	0	0	492	619
5	0	0	0	0	491	619
6	0	0	0	0	491	619
7	0	0	0	0	491	618
8	0	0	0	0	492	619
9	0	0	0	0	492	617
10	0	0	0	0	494	618
11	0	0	0	0	497	618
12	0	0	0	0	501	619
13	0	0	0	0	504	619
14	0	0	0	0	505	618
15	0	0	0	0	506	617
0	0	0	0	0	507	618
1	0	0	0	0	507	617
2	0	0	0	0	507	617
3	0	0	0	0	507	617
4	0	0	0	0	507	617
5	0	0	0	0	507	617
6	0	0	0	0	506	616
7	0	0	0	0	507	616
8	0	0	0	0	505	617
9	0	0	0	0	504	617
10	0	0	0	0	503	616
11	0	0	0	0	503	616
12	0	0	0	0	504	617
13	0	0	0	0	504	616
14	0	0	0	0	504	616
15	0	0	0	0	507	616
0	0	0	0	0	509	617
1	0	0	0	0	510	616
2	0	0	0	0	511	616
3	0	0	0	0	512	616
4	0	0	0	0	513	616
5	0	0	0	0	514	615
6	0	0	0	0	514	616
7	0	0	0	0	514	615
8	0	0	0	0	514	616
9	0	0	0	0	513	615
10	0	0	0	0	512	616
11	0	0	0	0	511	615
12	0	0	0	0	510	616
13	0	0	0	0	509	616
14	0	0	0	0	508	615
15	0	0	0	0	507	615
0	0	0	0	0	505	616
1	0	0	0	0	505	615
2	0	0	0	0	505	616
3	0	0	0	0	504	615
4	0	0	0	0	503	616
5	0	0	0	0	503	616
6	0	0	0	0	502	616
7	0	0	0	0	503	615
8	0	0	0	0	504	616
9	0	0	0	0	505	616
10	0	0	0	0	507	616
11	0	0	0	0	507	615
12	0	0	0	0	509	616
13	0	0	0	0	510	616
14	0	0	0	0	511	616
15	0	0	0	0	511	615
0	0	0	0	0	512	616
1	0	0	0	0	511	615
2	0	0	0	0	510	615
3	0	0	0	0	510	616
4	0	0	0	0	509	617
5	0	0	0	0	508	616
6	0	0	0	0	508	616
7	0	0	0	0	507	616
8	0	0	0	0	507	617
9	0	0	0	0	506	616
10	0	0	0	0	506	616
11	0	0	0	0	506	616
12	0	0	0	0	507	617
13	0	0	0	0	506	617
14	0	0	0	0	506	617
15	0	0	0	0	507	617
0	0	0	0	0	508	617
1	0	0	0	0	510	617
2	0	0	0	0	511	617
3	0	0	0	0	512	617
4	0	0	0	0	511	617
5	0	0	0	0	511	617
6	0	0	0	0	511	617
7	0	0	0	0	512	616
8	0	0	0	0	512	617
9	0	0	0	0	511	616
10	0	0	0	0	511	616
11	0	0	0	0	510	617
12	0	0	0	0	508	617
13	0	0	0	0	508	617
14	0	0	0	0	507	617
15	0	0	0	0	507	617
0	0	0	0	0	507	618
1	0	0	0	0	507	617
2	0	0	0	0	508	617
3	0	0	0	0	508	617
4	0	0	0	0	509	617
5	0	0	0	0	509	617
6	0	0	0	0	510	617
7	0	0	0	0	510	616
8	0	0	0	0	510	617
9	0	0	0	0	509	617
10	0	0	0	0	508	616
11	0	0	0	0	508	616
12	0	0	0	0	509	617
13	0	0	0	0	509	615
14	0	0	0	0	509	616
15	0	0	0	0	508	616
0	0	0	0	0	505	616
1	0	0	0	0	501	615
2	0	0	0	0	498	616
3	0	0	0	0	496	615
4	0	0	0	0	495	616
5	0	0	0	0	495	615
6	0	0	0	0	497	615
7	0	0	0	0	498	615
8	0	0	0	0	500	616
9	0	0	0	0	504	615
10	0	0	0	0	507	615
11	0	0	0	0	509	615
12	0	0	0	0	511	615
13	0	0	0	0	513	615
14	0	0	0	0	515	615
15	0	0	0	0	516	615
0	0	0	0	0	519	616
1	0	0	0	0	519	615
2	0	0	0	0	521	616
3	0	0	0	0	521	615
4	0	0	0	0	520	616
5	0	0	0	0	520	616
6	0	0	0	0	520	615
7	0	0	0	0	520	615
8	0	0	0	0	520	616
9	0	0	0	0	519	616
10	0	0	0	0	518	615
11	0	0	0	0	517	615
12	0	0	0	0	516	616
13	0	0	0	0	516	616
14	0	0	0	0	515	616
15	0	0	0	0	515	616
0	0	0	0	0	515	617
1	0	0	0	0	515	616
2	0	0	0	0	515	616
3	0	0	0	0	515	616
4	0	0	0	0	515	617
5	0	0	0	0	514	616
6	0	0	0	0	515	616
7	0	0	0	0	514	617
8	0	0	0	0	513	617
9	0	0	0	0	512	617
10	0	0	0	0	512	617
11	0	0	0	0	512	617
12	0	0	0	0	511	616
13	0	0	0	0	511	617
14	0	0	0	0	511	616
15	0	0	0	0	510	616
0	0	0	0	0	509	617
1	0	0	0	0	509	616
2	0	0	0	0	508	616
3	0	0	0	0	509	616
4	0	0	0	0	508	616
5	0	0	0	0	508	616
6	0	0	0	0	507	616
7	0	0	0	0	507	616
8	0	0	0	0	507	617
9	0	0	0	0	508	617
10	0	0	0	0	508	616
11	0	0	0	0	510	616
12	0	0	0	0	510	618
13	0	0	0	0	512	616
14	0	0	0	0	513	617
15	0	0	0	0	515	617
0	0	0	0	0	515	617
1	0	0	0	0	515	617
2	0	0	0	0	515	616
3	0	0	0	0	515	617
4	0	0	0	0	514	617
5	0	0	0	0	515	617
6	0	0	0	0	514	617
7	0	0	0	0	514	617
8	0	0	0	0	513	617
9	0	0	0	0	513	617
10	0	0	0	0	513	616
11	0	0	0	0	514	617
12	0	0	0	0	515	617
13	0	0	0	0	515	616
14	0	0	0	0	515	616
15	0	0	0	0	515	617
0	0	0	0	0	515	617
1	0	0	0	0	515	617
2	0	0	0	0	514	616
3	0	0	0	0	514	616
4	0	0	0	0	513	617
5	0	0	0	0	513	616
6	0	0	0	0	513	616
7	0	0	0	0	512	616
8	0	0	0	0	511	617
9	0	0	0	0	509	616
10	0	0	0	0	507	615
11	0	0	0	0	506	615
12	0	0	0	0	505	616
13	0	0	0	0	504	616
14	0	0	0	0	502	616
15	0	0	0	0	500	615
0	0	0	0	0	499	616
1	0	0	0	0	498	615
2	0	0	0	0	498	615
3	0	0	0	0	498	615
4	0	0	0	0	499	615
5	0	0	0	0	499	615
6	0	0	0	0	500	615
7	0	0	0	0	501	615
8	0	0	0	0	504	615
9	0	0	0	0	506	615
10	0	0	0	0	509	615
11	0	0	0	0	511	615
12	0	0	0	0	513	615
13	0	0	0	0	515	615
14	0	0	0	0	518	615
15	0	0	0	0	520	615
0	0	0	0	0	523	615
1	0	0	0	0	523	615
2	0	0	0	0	524	615
3	0	0	0	0	522	615
4	0	0	0	0	521	616
5	0	0	0	0	519	615
6	0	0	0	0	517	615
7	0	0	0	0	516	615
8	0	0	0	0	515	616
9	0	0	0	0	514	616
10	0	0	0	0	513	616
11	0	0	0	0	512	616
12	0	0	0	0	510	617
13	0	0	0	0	508	616
14	0	0	0	0	507	616
15	0	0	0	0	507	616
0	0	0	0	0	508	617
1	0	0	0	0	510	617
2	0	0	0	0	512	617
3	0	0	0	0	513	617
4	0	0	0	0	512	618
5	0	0	0	0	513	617
6	0	0	0	0	513	617
7	0	0	0	0	513	616
8	0	0	0	0	512	617
9	0	0	0	0	512	616
10	0	0	0	0	512	616
11	0	0	0	0	513	617
12	0	0	0	0	513	617
13	0	0	0	0	515	617
14	0	0	0	0	516	617
15	0	0	0	0	516	616
0	0	0	0	0	516	617
1	0	0	0	0	517	616
2	0	0	0	0	516	616
3	0	0	0	0	516	617
4	0	0	0	0	516	617
5	0	0	0	0	516	617
6	0	0	0	0	515	617
7	0	0	0	0	515	617
8	0	0	0	0	514	618
9	0	0	0	0	514	616
10	0	0	0	0	515	617
11	0	0	0	0	515	617
12	0	0	0	0	515	618
13	0	0	0	0	513	617
14	0	0	0	0	512	617
15	0	0	0	0	511	617
0	0	0	0	0	511	618
1	0	0	0	0	511	618
2	0	0	0	0	511	618
3	0	0	0	0	511	617
4	0	0	0	0	511	617
5	0	0	0	0	510	617
6	0	0	0	0	510	618
7	0	0	0	0	510	617
8	0	0	0	0	511	618
9	0	0	0	0	511	617
10	0	0	0	0	511	617
11	0	0	0	0	511	617
12	0	0	0	0	511	617
13	0	0	0	0	511	616
14	0	0	0	0	512	617
15	0	0	0	0	512	617
0	0	0	0	0	512	617
1	0	0	0	0	511	617
2	0	0	0	0	511	617
3	0	0	0	0	510	617
4	0	0	0	0	509	617
5	0	0	0	0	508	617
6	0	0	0	0	507	617
7	0	0	0	0	505	616
8	0	0	0	0	504	617
9	0	0	0	0	504	616
10	0	0	0	0	504	617
11	0	0	0	0	503	617
12	0	0	0	0	502	617
13	0	0	0	0	502	617
14	0	0	0	0	503	616
15	0	0	0	0	505	616
0	0	0	0	0	508	617
1	0	0	0	0	510	616
2	0	0	0	0	510	616
3	0	0	0	0	511	616
4	0	0	0	0	511	617
5	0	0	0	0	511	617
6	0	0	0	0	511	617
7	0	0	0	0	511	616
8	0	0	0	0	511	617
9	0	0	0	0	510	617
10	0	0	0	0	510	617
11	0	0	0	0	509	618
12	0	0	0	0	508	617
13	0	0	0	0	507	617
14	0	0	0	0	504	617
15	0	0	0	0	503	617
0	0	0	0	0	503	617
1	0	0	0	0	503	617
2	0	0	0	0	504	617
3	0	0	0	0	505	617
4	0	0	0	0	507	617
5	0	0	0	0	509	617
6	0	0	0	0	508	616
7	0	0	0	0	509	615
8	0	0	0	0	510	617
9	0	0	0	0	510	616
10	0	0	0	0	509	616
11	0	0	0	0	509	616
12	0	0	0	0	509	617
13	0	0	0	0	511	617
14	0	0	0	0	512	617
15	0	0	0	0	512	616
0	0	0	0	0	514	617
1	0	0	0	0	515	616
2	0	0	0	0	515	616
3	0	0	0	0	515	616
4	0	0	0	0	516	616
5	0	0	0	0	515	617
6	0	0	0	0	514	616
7	0	0	0	0	514	616
8	0	0	0	0	512	617
9	0	0	0	0	513	616
10	0	0	0	0	513	617
11	0	0	0	0	512	616
12	0	0	0	0	512	617
13	0	0	0	0	512	617
14	0	0	0	0	512	617
15	0	0	0	0	512	616
0	0	0	0	0	512	617
1	0	0	0	0	513	617
2	0	0	0	0	514	618
3	0	0	0	0	514	618
4	0	0	0	0	513	617
5	0	0	0	0	512	617
6	0	0	0	0	512	617
7	0	0	0	0	511	617
8	0	0	0	0	510	619
9	0	0	0	0	508	617
10	0	0	0	0	507	617
11	0	0	0	0	506	618
12	0	0	0	0	504	618
13	0	0	0	0	504	618
14	0	0	0	0	504	617
15	0	0	0	0	504	617
0	0	0	0	0	505	619
1	0	0	0	0	505	618
2	0	0	0	0	505	618
3	0	0	0	0	505	617
4	0	0	0	0	505	617
5	0	0	0	0	505	617
6	0	0	0	0	505	617
7	0	0	0	0	507	616
8	0	0	0	0	507	617
9	0	0	0	0	509	616
10	0	0	0	0	511	617
11	0	0	0	0	510	617
12	0	0	0	0	509	617
13	0	0	0	0	508	616
14	0	0	0	0	506	616
15	0	0	0	0	504	616
0	0	0	0	0	504	616
1	0	0	0	0	503	615
2	0	0	0	0	503	615
3	0	0	0	0	502	615
4	0	0	0	0	502	616
5	0	0	0	0	503	616
6	0	0	0	0	504	615
7	0	0	0	0	504	615
8	0	0	0	0	504	616
9	0	0	0	0	505	616
10	0	0	0	0	507	615
11	0	0	0	0	508	615
12	0	0	0	0	507	615
13	0	0	0	0	506	615
14	0	0	0	0	505	615
15	0	0	0	0	503	615
0	0	0	0	0	502	615
1	0	0	0	0	500	615
2	0	0	0	0	499	615
3	0	0	0	0	499	615
4	0	0	0	0	499	615
5	0	0	0	0	500	615
6	0	0	0	0	503	615
7	0	0	0	0	506	615
8	0	0	0	0	509	616
9	0	0	0	0	511	615
10	0	0	0	0	513	615
11	0	0	0	0	514	615
12	0	0	0	0	514	615
13	0	0	0	0	514	616
14	0	0	0	0	514	616
15	0	0	0	0	515	615
0	0	0	0	0	514	616
1	0	0	0	0	514	615
2	0	0	0	0	514	615
3	0	0	0	0	513	615
4	0	0	0	0	513	615
5	0	0	0	0	513	614
6	0	0	0	0	511	615
7	0	0	0	0	509	615
8	0	0	0	0	509	616
9	0	0	0	0	509	615
10	0	0	0	0	508	615
11	0	0	0	0	507	615
12	0	0	0	0	505	615
13	0	0	0	0	505	615
14	0	0	0	0	506	615
15	0	0	0	0	506	615
0	0	0	0	0	506	615
1	0	0	0	0	506	615
2	0	0	0	0	506	616
3	0	0	0	0	505	615
4	0	0	0	0	505	616
5	0	0	0	0	505	615
6	0	0	0	0	506	616
7	0	0	0	0	505	615
8	0	0	0	0	505	616
9	0	0	0	0	505	616
10	0	0	0	0	505	616
11	0	0	0	0	504	617
12	0	0	0	0	504	617
13	0	0	0	0	504	617
14	0	0	0	0	505	617
15	0	0	0	0	505	617
0	0	0	0	0	506	619
1	0	0	0	0	506	617
2	0	0	0	0	505	617
3	0	0	0	0	505	617
4	0	0	0	0	505	617
5	0	0	0	0	506	618
6	0	0	0	0	505	617
7	0	0	0	0	505	617
8	0	0	0	0	506	618
9	0	0	0	0	506	617
10	0	0	0	0	506	618
11	0	0	0	0	505	618
12	0	0	0	0	505	619
13	0	0	0	0	504	618
14	0	0	0	0	504	617
15	0	0	0	0	504	618
0	0	0	0	0	504	619
1	0	0	0	0	504	618
2	0	0	0	0	504	618
3	0	0	0	0	504	617
4	0	0	0	0	504	619
5	0	0	0	0	504	619
6	0	0	0	0	503	618
7	0	0	0	0	502	617
8	0	0	0	0	502	618
9	0	0	0	0	502	618
10	0	0	0	0	502	617
11	0	0	0	0	502	617
12	0	0	0	0	503	618
13	0	0	0	0	504	616
14	0	0	0	0	506	617
15	0	0	0	0	507	617
0	0	0	0	0	507	618
1	0	0	0	0	507	617
2	0	0	0	0	507	617
3	0	0	0	0	507	617
4	0	0	0	0	507	617
5	0	0	0	0	508	617
6	0	0	0	0	509	617
7	0	0	0	0	508	617
8	0	0	0	0	508	618
9	0	0	0	0	507	617
10	0	0	0	0	507	617
11	0	0	0	0	505	617
12	0	0	0	0	504	617
13	0	0	0	0	503	617
14	0	0	0	0	501	617
15	0	0	0	0	500	617
0	0	0	0	0	501	617
1	0	0	0	0	501	616
2	0	0	0	0	502	616
3	0	0	0	0	504	617
4	0	0	0	0	507	617
5	0	0	0	0	509	616
6	0	0	0	0	510	616
7	0	0	0	0	512	616
8	0	0	0	0	514	617
9	0	0	0	0	515	616
10	0	0	0	0	516	616
11	0	0	0	0	518	616
12	0	0	0	0	519	617
13	0	0	0	0	519	616
14	0	0	0	0	520	616
15	0	0	0	0	520	616
0	0	0	0	0	519	616
1	0	0	0	0	520	616
2	0	0	0	0	520	616
3	0	0	0	0	519	616
4	0	0	0	0	518	616
5	0	0	0	0	516	616
6	0	0	0	0	515	616
7	0	0	0	0	514	616
8	0	0	0	0	513	617
9	0	0	0	0	512	616
10	0	0	0	0	511	615
11	0	0	0	0	511	615
12	0	0	0	0	510	615
13	0	0	0	0	509	616
14	0	0	0	0	508	615
15	0	0	0	0	508	615
0	0	0	0	0	507	616
1	0	0	0	0	506	616
2	0	0	0	0	505	616
3	0	0	0	0	504	616
4	0	0	0	0	504	616
5	0	0	0	0	504	616
6	0	0	0	0	504	615
7	0	0	0	0	503	615
8	0	0	0	0	502	616
9	0	0	0	0	500	615
10	0	0	0	0	500	616
11	0	0	0	0	499	615
12	0	0	0	0	499	616
13	0	0	0	0	502	616
14	0	0	0	0	504	617
15	0	0	0	0	506	617
0	0	0	0	0	508	617
1	0	0	0	0	510	616
2	0	0	0	0	510	616
3	0	0	0	0	510	616
4	0	0	0	0	508	617
5	0	0	0	0	507	617
6	0	0	0	0	505	616
7	0	0	0	0	505	616
8	0	0	0	0	505	617
9	0	0	0	0	506	617
10	0	0	0	0	507	617
11	0	0	0	0	507	617
12	0	0	0	0	508	617
13	0	0	0	0	508	617
14	0	0	0	0	508	617
15	0	0	0	0	507	617
0	0	0	0	0	507	617
1	0	0	0	0	507	617
2	0	0	0	0	508	616
3	0	0	0	0	508	617
4	0	0	0	0	508	616
5	0	0	0	0	507	617
6	0	0	0	0	506	616
7	0	0	0	0	505	616
