# OpenSignals Text File Format. Version 1
# {"98:D3:91:FD:59:64": {"position": 0, "device": "bitalino_rev", "device name": "98:D3:91:FD:59:64", "device connection": "BTH98:D3:91:FD:59:64", "sampling rate": 1000, "resolution": [4, 1, 1, 1, 1, 10, 10], "firmware version": 1281, "comments": "", "keywords": "", "mode": 0, "sync interval": 2, "date": "2021-9-15", "time": "11:53:28.463", "channels": [2, 5], "sensor": ["RAW", "RAW"], "label": ["A2", "A5"], "column": ["nSeq", "I1", "I2", "O1", "O2", "A2", "A5"], "special": [{}, {}], "digital IO": [0, 0, 1, 1], "convertedValues": 0}}
# EndOfHeader
0	0	0	0	0	499	623	
1	0	0	0	0	499	623	
2	0	0	0	0	499	624	
3	0	0	0	0	499	623	
4	0	0	0	0	499	623	
5	0	0	0	0	499	623	
6	0	0	0	0	499	622	
7	0	0	0	0	500	623	
8	0	0	0	0	500	624	
9	0	0	0	0	500	624	
10	0	0	0	0	499	626	
11	0	0	0	0	500	624	
12	0	0	0	0	500	624	
13	0	0	0	0	500	624	
14	0	0	0	0	502	622	
15	0	0	0	0	502	624	
0	0	0	0	0	501	624	
1	0	0	0	0	501	624	
2	0	0	0	0	501	625	
3	0	0	0	0	501	624	
4	0	0	0	0	500	624	
5	0	0	0	0	500	624	
6	0	0	0	0	501	622	
7	0	0	0	0	501	623	
8	0	0	0	0	501	623	
9	0	0	0	0	502	623	
10	0	0	0	0	502	625	
11	0	0	0	0	502	623	
12	0	0	0	0	502	623	
13	0	0	0	0	502	624	
14	0	0	0	0	502	621	
15	0	0	0	0	502	622	
0	0	0	0	0	503	623	
1	0	0	0	0	503	623	
2	0	0	0	0	504	624	
3	0	0	0	0	503	623	
4	0	0	0	0	504	623	
5	0	0	0	0	504	623	
6	0	0	0	0	504	622	
7	0	0	0	0	504	623	
8	0	0	0	0	505	623	
9	0	0	0	0	505	623	
10	0	0	0	0	505	625	
11	0	0	0	0	505	624	
12	0	0	0	0	505	623	
13	0	0	0	0	505	624	
14	0	0	0	0	506	622	
15	0	0	0	0	507	623	
0	0	0	0	0	508	623	
1	0	0	0	0	508	624	
2	0	0	0	0	508	626	
3	0	0	0	0	509	624	
4	0	0	0	0	508	624	
5	0	0	0	0	508	624	
6	0	0	0	0	508	623	
7	0	0	0	0	508	625	
8	0	0	0	0	508	625	
9	0	0	0	0	508	625	
10	0	0	0	0	508	627	
11	0	0	0	0	508	625	
12	0	0	0	0	508	625	
13	0	0	0	0	509	625	
14	0	0	0	0	508	624	
15	0	0	0	0	508	625	
0	0	0	0	0	507	625	
1	0	0	0	0	507	625	
2	0	0	0	0	507	627	
3	0	0	0	0	508	626	
4	0	0	0	0	507	625	
5	0	0	0	0	508	625	
6	0	0	0	0	508	624	
7	0	0	0	0	508	625	
8	0	0	0	0	508	625	
9	0	0	0	0	508	625	
10	0	0	0	0	508	627	
11	0	0	0	0	508	625	
12	0	0	0	0	509	625	
13	0	0	0	0	509	625	
14	0	0	0	0	509	623	
15	0	0	0	0	510	626	
0	0	0	0	0	509	626	
1	0	0	0	0	509	626	
2	0	0	0	0	510	628	
3	0	0	0	0	510	626	
4	0	0	0	0	510	626	
5	0	0	0	0	510	626	
6	0	0	0	0	509	624	
7	0	0	0	0	509	626	
8	0	0	0	0	509	627	
9	0	0	0	0	509	626	
10	0	0	0	0	509	628	
11	0	0	0	0	509	627	
12	0	0	0	0	509	627	
13	0	0	0	0	509	627	
14	0	0	0	0	510	625	
15	0	0	0	0	510	627	
0	0	0	0	0	511	627	
1	0	0	0	0	511	627	
2	0	0	0	0	512	628	
3	0	0	0	0	510	626	
4	0	0	0	0	510	627	
5	0	0	0	0	510	627	
6	0	0	0	0	510	624	
7	0	0	0	0	509	626	
8	0	0	0	0	509	626	
9	0	0	0	0	509	626	
10	0	0	0	0	509	627	
11	0	0	0	0	508	625	
12	0	0	0	0	508	626	
13	0	0	0	0	508	625	
14	0	0	0	0	508	624	
15	0	0	0	0	508	626	
0	0	0	0	0	508	625	
1	0	0	0	0	508	625	
2	0	0	0	0	508	627	
3	0	0	0	0	508	625	
4	0	0	0	0	508	625	
5	0	0	0	0	508	625	
6	0	0	0	0	508	623	
7	0	0	0	0	508	625	
8	0	0	0	0	508	624	
9	0	0	0	0	508	624	
10	0	0	0	0	508	626	
11	0	0	0	0	507	624	
12	0	0	0	0	508	624	
13	0	0	0	0	507	624	
14	0	0	0	0	508	622	
15	0	0	0	0	507	624	
0	0	0	0	0	508	623	
1	0	0	0	0	507	623	
2	0	0	0	0	507	625	
3	0	0	0	0	507	623	
4	0	0	0	0	507	623	
5	0	0	0	0	507	623	
6	0	0	0	0	508	621	
7	0	0	0	0	508	623	
8	0	0	0	0	508	623	
9	0	0	0	0	508	622	
10	0	0	0	0	508	624	
11	0	0	0	0	508	623	
12	0	0	0	0	508	623	
13	0	0	0	0	508	623	
14	0	0	0	0	508	621	
15	0	0	0	0	507	623	
0	0	0	0	0	506	623	
1	0	0	0	0	505	623	
2	0	0	0	0	505	625	
3	0	0	0	0	506	623	
4	0	0	0	0	506	623	
5	0	0	0	0	506	623	
6	0	0	0	0	505	622	
7	0	0	0	0	506	623	
8	0	0	0	0	506	623	
9	0	0	0	0	505	624	
10	0	0	0	0	506	624	
11	0	0	0	0	506	623	
12	0	0	0	0	505	623	
13	0	0	0	0	505	623	
14	0	0	0	0	505	621	
15	0	0	0	0	505	623	
0	0	0	0	0	505	623	
1	0	0	0	0	506	623	
2	0	0	0	0	507	625	
3	0	0	0	0	507	623	
4	0	0	0	0	507	624	
5	0	0	0	0	506	623	
6	0	0	0	0	505	621	
7	0	0	0	0	505	623	
8	0	0	0	0	505	623	
9	0	0	0	0	505	623	
10	0	0	0	0	505	624	
11	0	0	0	0	506	622	
12	0	0	0	0	506	623	
13	0	0	0	0	506	622	
14	0	0	0	0	507	621	
15	0	0	0	0	506	623	
0	0	0	0	0	505	623	
1	0	0	0	0	506	622	
2	0	0	0	0	505	624	
3	0	0	0	0	505	623	
4	0	0	0	0	505	622	
5	0	0	0	0	504	622	
6	0	0	0	0	505	620	
7	0	0	0	0	505	622	
8	0	0	0	0	505	622	
9	0	0	0	0	505	621	
10	0	0	0	0	505	623	
11	0	0	0	0	505	621	
12	0	0	0	0	506	621	
13	0	0	0	0	505	622	
14	0	0	0	0	506	620	
15	0	0	0	0	506	621	
0	0	0	0	0	507	622	
1	0	0	0	0	506	622	
2	0	0	0	0	505	623	
3	0	0	0	0	504	623	
4	0	0	0	0	504	623	
5	0	0	0	0	505	622	
6	0	0	0	0	505	620	
7	0	0	0	0	504	622	
8	0	0	0	0	504	622	
9	0	0	0	0	504	622	
10	0	0	0	0	504	624	
11	0	0	0	0	504	622	
12	0	0	0	0	504	622	
13	0	0	0	0	504	622	
14	0	0	0	0	504	620	
15	0	0	0	0	504	622	
0	0	0	0	0	505	622	
1	0	0	0	0	505	622	
2	0	0	0	0	504	624	
3	0	0	0	0	504	622	
4	0	0	0	0	503	621	
5	0	0	0	0	503	621	
6	0	0	0	0	504	619	
7	0	0	0	0	504	621	
8	0	0	0	0	504	621	
9	0	0	0	0	504	621	
10	0	0	0	0	504	623	
11	0	0	0	0	504	621	
12	0	0	0	0	504	620	
13	0	0	0	0	504	621	
14	0	0	0	0	505	619	
15	0	0	0	0	505	620	
0	0	0	0	0	505	620	
1	0	0	0	0	506	621	
2	0	0	0	0	506	622	
3	0	0	0	0	507	620	
4	0	0	0	0	507	621	
5	0	0	0	0	507	621	
6	0	0	0	0	508	619	
7	0	0	0	0	507	621	
8	0	0	0	0	508	621	
9	0	0	0	0	507	621	
10	0	0	0	0	508	623	
11	0	0	0	0	509	621	
12	0	0	0	0	510	621	
13	0	0	0	0	511	620	
14	0	0	0	0	512	619	
15	0	0	0	0	512	621	
0	0	0	0	0	510	622	
1	0	0	0	0	510	621	
2	0	0	0	0	509	623	
3	0	0	0	0	508	621	
4	0	0	0	0	509	622	
5	0	0	0	0	509	622	
6	0	0	0	0	508	620	
7	0	0	0	0	507	621	
8	0	0	0	0	507	621	
9	0	0	0	0	507	622	
10	0	0	0	0	508	624	
11	0	0	0	0	510	622	
12	0	0	0	0	510	622	
13	0	0	0	0	510	622	
14	0	0	0	0	510	620	
15	0	0	0	0	510	622	
0	0	0	0	0	510	622	
1	0	0	0	0	510	622	
2	0	0	0	0	511	624	
3	0	0	0	0	511	622	
4	0	0	0	0	511	623	
5	0	0	0	0	510	623	
6	0	0	0	0	510	621	
7	0	0	0	0	509	622	
8	0	0	0	0	509	622	
9	0	0	0	0	509	623	
10	0	0	0	0	508	625	
11	0	0	0	0	508	623	
12	0	0	0	0	508	623	
13	0	0	0	0	508	623	
14	0	0	0	0	508	621	
15	0	0	0	0	508	623	
0	0	0	0	0	508	623	
1	0	0	0	0	508	623	
2	0	0	0	0	507	625	
3	0	0	0	0	507	623	
4	0	0	0	0	506	623	
5	0	0	0	0	505	623	
6	0	0	0	0	506	622	
7	0	0	0	0	505	624	
8	0	0	0	0	504	624	
9	0	0	0	0	502	623	
10	0	0	0	0	502	624	
11	0	0	0	0	501	624	
12	0	0	0	0	502	624	
13	0	0	0	0	501	624	
14	0	0	0	0	501	622	
15	0	0	0	0	502	624	
0	0	0	0	0	502	624	
1	0	0	0	0	501	624	
2	0	0	0	0	501	625	
3	0	0	0	0	502	624	
4	0	0	0	0	503	625	
5	0	0	0	0	502	624	
6	0	0	0	0	501	623	
7	0	0	0	0	501	624	
8	0	0	0	0	502	624	
9	0	0	0	0	500	624	
10	0	0	0	0	501	626	
11	0	0	0	0	501	624	
12	0	0	0	0	501	624	
13	0	0	0	0	499	624	
14	0	0	0	0	499	623	
15	0	0	0	0	498	624	
0	0	0	0	0	498	624	
1	0	0	0	0	496	624	
2	0	0	0	0	496	626	
3	0	0	0	0	497	624	
4	0	0	0	0	496	624	
5	0	0	0	0	498	624	
6	0	0	0	0	499	622	
7	0	0	0	0	499	624	
8	0	0	0	0	499	624	
9	0	0	0	0	499	624	
10	0	0	0	0	499	626	
11	0	0	0	0	500	624	
12	0	0	0	0	499	624	
13	0	0	0	0	499	624	
14	0	0	0	0	499	622	
15	0	0	0	0	498	624	
0	0	0	0	0	498	624	
1	0	0	0	0	498	624	
2	0	0	0	0	497	626	
3	0	0	0	0	497	624	
4	0	0	0	0	497	624	
5	0	0	0	0	497	624	
6	0	0	0	0	497	622	
7	0	0	0	0	497	625	
8	0	0	0	0	497	624	
9	0	0	0	0	497	624	
10	0	0	0	0	497	626	
11	0	0	0	0	499	625	
12	0	0	0	0	499	624	
13	0	0	0	0	499	624	
14	0	0	0	0	500	622	
15	0	0	0	0	500	624	
0	0	0	0	0	501	624	
1	0	0	0	0	502	624	
2	0	0	0	0	502	625	
3	0	0	0	0	501	624	
4	0	0	0	0	501	624	
5	0	0	0	0	500	624	
6	0	0	0	0	501	622	
7	0	0	0	0	501	624	
8	0	0	0	0	501	625	
9	0	0	0	0	500	624	
10	0	0	0	0	500	626	
11	0	0	0	0	500	624	
12	0	0	0	0	500	624	
13	0	0	0	0	501	625	
14	0	0	0	0	501	623	
15	0	0	0	0	501	624	
0	0	0	0	0	500	624	
1	0	0	0	0	499	624	
2	0	0	0	0	498	626	
3	0	0	0	0	496	625	
4	0	0	0	0	495	624	
5	0	0	0	0	494	625	
6	0	0	0	0	493	622	
7	0	0	0	0	492	625	
8	0	0	0	0	492	624	
9	0	0	0	0	490	624	
10	0	0	0	0	488	626	
11	0	0	0	0	485	624	
12	0	0	0	0	482	624	
13	0	0	0	0	477	624	
14	0	0	0	0	472	622	
15	0	0	0	0	468	624	
0	0	0	0	0	467	624	
1	0	0	0	0	468	623	
2	0	0	0	0	469	625	
3	0	0	0	0	471	624	
4	0	0	0	0	474	624	
5	0	0	0	0	479	624	
6	0	0	0	0	487	623	
7	0	0	0	0	499	624	
8	0	0	0	0	514	624	
9	0	0	0	0	532	624	
10	0	0	0	0	554	625	
11	0	0	0	0	576	624	
12	0	0	0	0	597	624	
13	0	0	0	0	620	624	
14	0	0	0	0	642	622	
15	0	0	0	0	665	623	
0	0	0	0	0	690	624	
1	0	0	0	0	713	624	
2	0	0	0	0	736	625	
3	0	0	0	0	756	624	
4	0	0	0	0	771	623	
5	0	0	0	0	785	624	
6	0	0	0	0	795	622	
7	0	0	0	0	800	624	
8	0	0	0	0	800	624	
9	0	0	0	0	797	623	
10	0	0	0	0	789	625	
11	0	0	0	0	776	624	
12	0	0	0	0	759	624	
13	0	0	0	0	736	624	
14	0	0	0	0	712	621	
15	0	0	0	0	688	623	
0	0	0	0	0	668	624	
1	0	0	0	0	651	624	
2	0	0	0	0	636	625	
3	0	0	0	0	624	624	
4	0	0	0	0	613	624	
5	0	0	0	0	601	624	
6	0	0	0	0	590	622	
7	0	0	0	0	577	624	
8	0	0	0	0	566	624	
9	0	0	0	0	556	624	
10	0	0	0	0	545	625	
11	0	0	0	0	536	624	
12	0	0	0	0	527	624	
13	0	0	0	0	518	624	
14	0	0	0	0	510	623	
15	0	0	0	0	503	624	
0	0	0	0	0	496	624	
1	0	0	0	0	488	624	
2	0	0	0	0	483	625	
3	0	0	0	0	478	624	
4	0	0	0	0	473	624	
5	0	0	0	0	468	624	
6	0	0	0	0	463	623	
7	0	0	0	0	460	624	
8	0	0	0	0	457	624	
9	0	0	0	0	454	624	
10	0	0	0	0	452	626	
11	0	0	0	0	450	624	
12	0	0	0	0	449	623	
13	0	0	0	0	448	624	
14	0	0	0	0	448	622	
15	0	0	0	0	447	624	
0	0	0	0	0	446	624	
1	0	0	0	0	445	623	
2	0	0	0	0	443	625	
3	0	0	0	0	443	624	
4	0	0	0	0	444	623	
5	0	0	0	0	444	624	
6	0	0	0	0	443	622	
7	0	0	0	0	443	624	
8	0	0	0	0	443	624	
9	0	0	0	0	442	624	
10	0	0	0	0	442	625	
11	0	0	0	0	442	624	
12	0	0	0	0	441	624	
13	0	0	0	0	440	624	
14	0	0	0	0	440	621	
15	0	0	0	0	440	623	
0	0	0	0	0	440	623	
1	0	0	0	0	440	624	
2	0	0	0	0	441	625	
3	0	0	0	0	442	623	
4	0	0	0	0	443	623	
5	0	0	0	0	443	623	
6	0	0	0	0	444	622	
7	0	0	0	0	445	623	
8	0	0	0	0	446	623	
9	0	0	0	0	447	623	
10	0	0	0	0	446	625	
11	0	0	0	0	447	623	
12	0	0	0	0	447	624	
13	0	0	0	0	446	623	
14	0	0	0	0	447	622	
15	0	0	0	0	448	624	
0	0	0	0	0	448	623	
1	0	0	0	0	448	623	
2	0	0	0	0	449	626	
3	0	0	0	0	449	623	
4	0	0	0	0	449	623	
5	0	0	0	0	451	624	
6	0	0	0	0	451	622	
7	0	0	0	0	453	624	
8	0	0	0	0	454	624	
9	0	0	0	0	454	624	
10	0	0	0	0	454	626	
11	0	0	0	0	454	624	
12	0	0	0	0	455	624	
13	0	0	0	0	456	624	
14	0	0	0	0	456	622	
15	0	0	0	0	456	624	
0	0	0	0	0	457	624	
1	0	0	0	0	457	624	
2	0	0	0	0	457	625	
3	0	0	0	0	458	624	
4	0	0	0	0	459	624	
5	0	0	0	0	459	624	
6	0	0	0	0	459	622	
7	0	0	0	0	459	624	
8	0	0	0	0	459	624	
9	0	0	0	0	459	624	
10	0	0	0	0	460	626	
11	0	0	0	0	460	624	
12	0	0	0	0	460	624	
13	0	0	0	0	462	624	
14	0	0	0	0	462	622	
15	0	0	0	0	462	624	
0	0	0	0	0	462	624	
1	0	0	0	0	463	623	
2	0	0	0	0	463	625	
3	0	0	0	0	463	624	
4	0	0	0	0	464	624	
5	0	0	0	0	465	624	
6	0	0	0	0	463	622	
7	0	0	0	0	463	623	
8	0	0	0	0	463	624	
9	0	0	0	0	464	624	
10	0	0	0	0	464	625	
11	0	0	0	0	465	624	
12	0	0	0	0	465	624	
13	0	0	0	0	466	624	
14	0	0	0	0	467	623	
15	0	0	0	0	467	624	
0	0	0	0	0	468	624	
1	0	0	0	0	468	624	
2	0	0	0	0	468	625	
3	0	0	0	0	469	624	
4	0	0	0	0	469	624	
5	0	0	0	0	470	624	
6	0	0	0	0	470	622	
7	0	0	0	0	471	624	
8	0	0	0	0	470	624	
9	0	0	0	0	470	624	
10	0	0	0	0	470	626	
11	0	0	0	0	470	624	
12	0	0	0	0	471	624	
13	0	0	0	0	472	625	
14	0	0	0	0	471	623	
15	0	0	0	0	471	624	
0	0	0	0	0	471	624	
1	0	0	0	0	471	624	
2	0	0	0	0	472	625	
3	0	0	0	0	472	624	
4	0	0	0	0	473	624	
5	0	0	0	0	473	624	
6	0	0	0	0	473	623	
7	0	0	0	0	473	624	
8	0	0	0	0	474	624	
9	0	0	0	0	473	625	
10	0	0	0	0	473	626	
11	0	0	0	0	475	624	
12	0	0	0	0	475	625	
13	0	0	0	0	474	625	
14	0	0	0	0	474	623	
15	0	0	0	0	474	625	
0	0	0	0	0	474	625	
1	0	0	0	0	475	625	
2	0	0	0	0	475	627	
3	0	0	0	0	475	624	
4	0	0	0	0	475	624	
5	0	0	0	0	475	625	
6	0	0	0	0	476	623	
7	0	0	0	0	476	624	
8	0	0	0	0	477	624	
9	0	0	0	0	478	624	
10	0	0	0	0	479	626	
11	0	0	0	0	480	624	
12	0	0	0	0	482	624	
13	0	0	0	0	483	624	
14	0	0	0	0	482	622	
15	0	0	0	0	482	624	
0	0	0	0	0	481	624	
1	0	0	0	0	480	624	
2	0	0	0	0	481	625	
3	0	0	0	0	481	623	
4	0	0	0	0	482	624	
5	0	0	0	0	482	624	
6	0	0	0	0	483	622	
7	0	0	0	0	484	624	
8	0	0	0	0	484	624	
9	0	0	0	0	484	624	
10	0	0	0	0	484	626	
11	0	0	0	0	485	625	
12	0	0	0	0	485	624	
13	0	0	0	0	486	624	
14	0	0	0	0	487	623	
15	0	0	0	0	488	625	
0	0	0	0	0	488	625	
1	0	0	0	0	489	624	
2	0	0	0	0	489	626	
3	0	0	0	0	489	624	
4	0	0	0	0	489	625	
5	0	0	0	0	487	624	
6	0	0	0	0	487	623	
7	0	0	0	0	488	624	
8	0	0	0	0	489	625	
9	0	0	0	0	489	624	
10	0	0	0	0	489	626	
11	0	0	0	0	489	624	
12	0	0	0	0	489	624	
13	0	0	0	0	490	624	
14	0	0	0	0	490	622	
15	0	0	0	0	490	624	
0	0	0	0	0	491	623	
1	0	0	0	0	491	623	
2	0	0	0	0	492	625	
3	0	0	0	0	493	624	
4	0	0	0	0	494	623	
5	0	0	0	0	494	623	
6	0	0	0	0	494	621	
7	0	0	0	0	494	624	
8	0	0	0	0	494	623	
9	0	0	0	0	494	623	
10	0	0	0	0	495	624	
11	0	0	0	0	496	623	
12	0	0	0	0	497	623	
13	0	0	0	0	497	623	
14	0	0	0	0	497	621	
15	0	0	0	0	497	624	
0	0	0	0	0	497	623	
1	0	0	0	0	499	623	
2	0	0	0	0	499	624	
3	0	0	0	0	500	624	
4	0	0	0	0	500	623	
5	0	0	0	0	502	623	
6	0	0	0	0	502	621	
7	0	0	0	0	503	623	
8	0	0	0	0	503	623	
9	0	0	0	0	504	623	
10	0	0	0	0	504	625	
11	0	0	0	0	504	623	
12	0	0	0	0	505	623	
13	0	0	0	0	506	623	
14	0	0	0	0	506	622	
15	0	0	0	0	506	623	
0	0	0	0	0	505	623	
1	0	0	0	0	507	624	
2	0	0	0	0	508	625	
3	0	0	0	0	508	623	
4	0	0	0	0	509	623	
5	0	0	0	0	510	624	
6	0	0	0	0	511	622	
7	0	0	0	0	511	623	
8	0	0	0	0	511	624	
9	0	0	0	0	511	623	
10	0	0	0	0	511	625	
11	0	0	0	0	511	623	
12	0	0	0	0	513	623	
13	0	0	0	0	513	623	
14	0	0	0	0	512	621	
15	0	0	0	0	512	623	
0	0	0	0	0	512	624	
1	0	0	0	0	513	624	
2	0	0	0	0	513	625	
3	0	0	0	0	513	623	
4	0	0	0	0	514	624	
5	0	0	0	0	514	624	
6	0	0	0	0	514	622	
7	0	0	0	0	514	624	
8	0	0	0	0	514	624	
9	0	0	0	0	514	624	
10	0	0	0	0	514	625	
11	0	0	0	0	515	624	
12	0	0	0	0	515	624	
13	0	0	0	0	515	623	
14	0	0	0	0	515	622	
15	0	0	0	0	515	623	
0	0	0	0	0	515	624	
1	0	0	0	0	517	624	
2	0	0	0	0	517	625	
3	0	0	0	0	517	624	
4	0	0	0	0	518	623	
5	0	0	0	0	518	624	
6	0	0	0	0	517	622	
7	0	0	0	0	516	624	
8	0	0	0	0	516	624	
9	0	0	0	0	518	624	
10	0	0	0	0	519	626	
11	0	0	0	0	519	624	
12	0	0	0	0	519	624	
13	0	0	0	0	519	624	
14	0	0	0	0	517	622	
15	0	0	0	0	516	624	
0	0	0	0	0	516	624	
1	0	0	0	0	516	624	
2	0	0	0	0	516	626	
3	0	0	0	0	516	624	
4	0	0	0	0	515	624	
5	0	0	0	0	516	624	
6	0	0	0	0	516	622	
7	0	0	0	0	515	624	
8	0	0	0	0	514	624	
9	0	0	0	0	513	624	
10	0	0	0	0	513	626	
11	0	0	0	0	512	624	
12	0	0	0	0	512	624	
13	0	0	0	0	511	624	
14	0	0	0	0	510	622	
15	0	0	0	0	509	624	
0	0	0	0	0	508	624	
1	0	0	0	0	508	624	
2	0	0	0	0	507	626	
3	0	0	0	0	506	624	
4	0	0	0	0	504	625	
5	0	0	0	0	503	625	
6	0	0	0	0	502	623	
7	0	0	0	0	501	625	
8	0	0	0	0	500	625	
9	0	0	0	0	499	625	
10	0	0	0	0	498	627	
11	0	0	0	0	498	625	
12	0	0	0	0	497	625	
13	0	0	0	0	497	625	
14	0	0	0	0	496	624	
15	0	0	0	0	495	625	
0	0	0	0	0	495	625	
1	0	0	0	0	494	625	
2	0	0	0	0	495	627	
3	0	0	0	0	494	625	
4	0	0	0	0	493	625	
5	0	0	0	0	493	625	
6	0	0	0	0	493	623	
7	0	0	0	0	492	625	
8	0	0	0	0	492	625	
9	0	0	0	0	492	625	
10	0	0	0	0	492	627	
11	0	0	0	0	492	625	
12	0	0	0	0	492	625	
13	0	0	0	0	491	625	
14	0	0	0	0	491	624	
15	0	0	0	0	490	625	
0	0	0	0	0	490	625	
1	0	0	0	0	490	625	
2	0	0	0	0	490	627	
3	0	0	0	0	490	625	
4	0	0	0	0	490	625	
5	0	0	0	0	491	625	
6	0	0	0	0	491	624	
7	0	0	0	0	491	625	
8	0	0	0	0	491	625	
9	0	0	0	0	491	625	
10	0	0	0	0	490	627	
11	0	0	0	0	491	625	
12	0	0	0	0	491	625	
13	0	0	0	0	491	625	
14	0	0	0	0	492	624	
15	0	0	0	0	492	625	
0	0	0	0	0	492	625	
1	0	0	0	0	492	625	
2	0	0	0	0	492	626	
3	0	0	0	0	492	625	
4	0	0	0	0	491	624	
5	0	0	0	0	491	625	
6	0	0	0	0	491	623	
7	0	0	0	0	491	624	
8	0	0	0	0	491	624	
9	0	0	0	0	491	624	
10	0	0	0	0	493	626	
11	0	0	0	0	493	625	
12	0	0	0	0	492	624	
13	0	0	0	0	492	624	
14	0	0	0	0	493	622	
15	0	0	0	0	493	625	
0	0	0	0	0	494	625	
1	0	0	0	0	494	624	
2	0	0	0	0	495	626	
3	0	0	0	0	495	625	
4	0	0	0	0	495	624	
5	0	0	0	0	495	625	
6	0	0	0	0	496	622	
7	0	0	0	0	496	624	
8	0	0	0	0	496	624	
9	0	0	0	0	496	624	
10	0	0	0	0	496	625	
11	0	0	0	0	496	624	
12	0	0	0	0	496	624	
13	0	0	0	0	496	624	
14	0	0	0	0	498	622	
15	0	0	0	0	498	624	
0	0	0	0	0	498	623	
1	0	0	0	0	499	624	
2	0	0	0	0	499	625	
3	0	0	0	0	500	624	
4	0	0	0	0	500	623	
5	0	0	0	0	500	623	
6	0	0	0	0	500	622	
7	0	0	0	0	500	623	
8	0	0	0	0	500	623	
9	0	0	0	0	500	623	
10	0	0	0	0	501	624	
11	0	0	0	0	502	623	
12	0	0	0	0	502	623	
13	0	0	0	0	502	623	
14	0	0	0	0	503	621	
15	0	0	0	0	504	623	
0	0	0	0	0	503	623	
1	0	0	0	0	502	623	
2	0	0	0	0	502	625	
3	0	0	0	0	502	624	
4	0	0	0	0	502	624	
5	0	0	0	0	502	624	
6	0	0	0	0	503	622	
7	0	0	0	0	503	624	
8	0	0	0	0	503	624	
9	0	0	0	0	504	623	
10	0	0	0	0	504	625	
11	0	0	0	0	504	624	
12	0	0	0	0	504	624	
13	0	0	0	0	504	624	
14	0	0	0	0	503	622	
15	0	0	0	0	504	623	
0	0	0	0	0	504	624	
1	0	0	0	0	504	624	
2	0	0	0	0	504	624	
3	0	0	0	0	504	623	
4	0	0	0	0	504	623	
5	0	0	0	0	504	623	
6	0	0	0	0	504	622	
7	0	0	0	0	503	623	
8	0	0	0	0	504	623	
9	0	0	0	0	504	622	
10	0	0	0	0	504	625	
11	0	0	0	0	504	624	
12	0	0	0	0	505	624	
13	0	0	0	0	505	623	
14	0	0	0	0	506	621	
15	0	0	0	0	506	623	
0	0	0	0	0	507	623	
1	0	0	0	0	508	623	
2	0	0	0	0	507	625	
3	0	0	0	0	507	623	
4	0	0	0	0	506	623	
5	0	0	0	0	505	623	
6	0	0	0	0	506	621	
7	0	0	0	0	506	623	
8	0	0	0	0	507	623	
9	0	0	0	0	507	623	
10	0	0	0	0	507	625	
11	0	0	0	0	506	623	
12	0	0	0	0	506	624	
13	0	0	0	0	507	624	
14	0	0	0	0	508	622	
15	0	0	0	0	508	623	
0	0	0	0	0	508	623	
1	0	0	0	0	509	624	
2	0	0	0	0	510	625	
3	0	0	0	0	510	623	
4	0	0	0	0	511	623	
5	0	0	0	0	510	623	
6	0	0	0	0	510	622	
7	0	0	0	0	509	623	
8	0	0	0	0	508	624	
9	0	0	0	0	508	623	
10	0	0	0	0	507	625	
11	0	0	0	0	507	623	
12	0	0	0	0	508	623	
13	0	0	0	0	508	623	
14	0	0	0	0	509	622	
15	0	0	0	0	511	623	
0	0	0	0	0	511	623	
1	0	0	0	0	511	624	
2	0	0	0	0	511	625	
3	0	0	0	0	510	624	
4	0	0	0	0	510	623	
5	0	0	0	0	510	623	
6	0	0	0	0	510	621	
7	0	0	0	0	510	624	
8	0	0	0	0	510	623	
9	0	0	0	0	509	623	
10	0	0	0	0	508	624	
11	0	0	0	0	508	623	
12	0	0	0	0	508	623	
13	0	0	0	0	508	624	
14	0	0	0	0	508	622	
15	0	0	0	0	507	623	
0	0	0	0	0	507	623	
1	0	0	0	0	508	623	
2	0	0	0	0	508	625	
3	0	0	0	0	507	624	
4	0	0	0	0	507	624	
5	0	0	0	0	507	624	
6	0	0	0	0	507	622	
7	0	0	0	0	507	623	
8	0	0	0	0	507	624	
9	0	0	0	0	507	623	
10	0	0	0	0	507	625	
11	0	0	0	0	508	623	
12	0	0	0	0	508	624	
13	0	0	0	0	509	624	
14	0	0	0	0	508	622	
15	0	0	0	0	508	624	
0	0	0	0	0	507	624	
1	0	0	0	0	507	624	
2	0	0	0	0	507	626	
3	0	0	0	0	507	624	
4	0	0	0	0	507	625	
5	0	0	0	0	508	625	
6	0	0	0	0	508	623	
7	0	0	0	0	508	624	
8	0	0	0	0	508	624	
9	0	0	0	0	508	624	
10	0	0	0	0	509	626	
11	0	0	0	0	509	624	
12	0	0	0	0	510	624	
13	0	0	0	0	510	624	
14	0	0	0	0	510	623	
15	0	0	0	0	510	625	
0	0	0	0	0	510	625	
1	0	0	0	0	510	624	
2	0	0	0	0	510	626	
3	0	0	0	0	510	624	
4	0	0	0	0	510	624	
5	0	0	0	0	510	624	
6	0	0	0	0	510	622	
7	0	0	0	0	509	624	
8	0	0	0	0	509	624	
9	0	0	0	0	508	624	
10	0	0	0	0	509	626	
11	0	0	0	0	509	625	
12	0	0	0	0	509	624	
13	0	0	0	0	510	625	
14	0	0	0	0	510	623	
15	0	0	0	0	511	624	
0	0	0	0	0	511	624	
1	0	0	0	0	512	624	
2	0	0	0	0	512	626	
3	0	0	0	0	511	624	
4	0	0	0	0	510	624	
5	0	0	0	0	510	624	
6	0	0	0	0	509	622	
7	0	0	0	0	509	623	
8	0	0	0	0	509	623	
9	0	0	0	0	508	623	
10	0	0	0	0	507	625	
11	0	0	0	0	506	623	
12	0	0	0	0	505	623	
13	0	0	0	0	504	623	
14	0	0	0	0	505	621	
15	0	0	0	0	504	624	
0	0	0	0	0	504	623	
1	0	0	0	0	505	623	
2	0	0	0	0	505	624	
3	0	0	0	0	506	623	
4	0	0	0	0	507	624	
5	0	0	0	0	508	623	
6	0	0	0	0	508	621	
7	0	0	0	0	508	623	
8	0	0	0	0	508	623	
9	0	0	0	0	508	623	
10	0	0	0	0	508	624	
11	0	0	0	0	508	623	
12	0	0	0	0	507	623	
13	0	0	0	0	507	623	
14	0	0	0	0	506	622	
15	0	0	0	0	506	623	
0	0	0	0	0	505	623	
1	0	0	0	0	505	623	
2	0	0	0	0	506	624	
3	0	0	0	0	506	623	
4	0	0	0	0	506	622	
5	0	0	0	0	507	622	
6	0	0	0	0	506	621	
7	0	0	0	0	505	623	
8	0	0	0	0	506	622	
9	0	0	0	0	505	622	
10	0	0	0	0	506	624	
11	0	0	0	0	507	623	
12	0	0	0	0	507	623	
13	0	0	0	0	508	623	
14	0	0	0	0	508	620	
15	0	0	0	0	507	622	
0	0	0	0	0	507	622	
1	0	0	0	0	507	621	
2	0	0	0	0	507	624	
3	0	0	0	0	507	622	
4	0	0	0	0	507	622	
5	0	0	0	0	506	622	
6	0	0	0	0	506	620	
7	0	0	0	0	506	622	
8	0	0	0	0	506	622	
9	0	0	0	0	506	622	
10	0	0	0	0	507	624	
11	0	0	0	0	509	622	
12	0	0	0	0	508	622	
13	0	0	0	0	507	623	
14	0	0	0	0	508	621	
15	0	0	0	0	508	622	
0	0	0	0	0	508	622	
1	0	0	0	0	508	622	
2	0	0	0	0	508	623	
3	0	0	0	0	508	622	
4	0	0	0	0	508	622	
5	0	0	0	0	508	622	
6	0	0	0	0	508	620	
7	0	0	0	0	508	623	
8	0	0	0	0	508	623	
9	0	0	0	0	508	623	
10	0	0	0	0	508	624	
11	0	0	0	0	508	623	
12	0	0	0	0	508	623	
13	0	0	0	0	508	623	
14	0	0	0	0	507	621	
15	0	0	0	0	505	623	
0	0	0	0	0	505	623	
1	0	0	0	0	505	623	
2	0	0	0	0	506	625	
3	0	0	0	0	505	623	
4	0	0	0	0	505	623	
5	0	0	0	0	505	623	
6	0	0	0	0	504	622	
7	0	0	0	0	504	623	
8	0	0	0	0	504	624	
9	0	0	0	0	504	623	
10	0	0	0	0	505	625	
11	0	0	0	0	505	624	
12	0	0	0	0	505	624	
13	0	0	0	0	505	624	
14	0	0	0	0	504	623	
15	0	0	0	0	504	624	
0	0	0	0	0	504	624	
1	0	0	0	0	505	624	
2	0	0	0	0	505	626	
3	0	0	0	0	505	624	
4	0	0	0	0	506	624	
5	0	0	0	0	507	625	
6	0	0	0	0	507	623	
7	0	0	0	0	507	624	
8	0	0	0	0	508	624	
9	0	0	0	0	508	624	
10	0	0	0	0	508	626	
11	0	0	0	0	508	624	
12	0	0	0	0	507	624	
13	0	0	0	0	507	624	
14	0	0	0	0	507	623	
15	0	0	0	0	508	625	
0	0	0	0	0	509	625	
1	0	0	0	0	509	624	
2	0	0	0	0	509	625	
3	0	0	0	0	510	624	
4	0	0	0	0	510	624	
5	0	0	0	0	509	624	
6	0	0	0	0	509	622	
7	0	0	0	0	509	624	
8	0	0	0	0	510	625	
9	0	0	0	0	509	625	
10	0	0	0	0	509	627	
11	0	0	0	0	509	625	
12	0	0	0	0	510	626	
13	0	0	0	0	511	626	
14	0	0	0	0	511	623	
15	0	0	0	0	512	625	
0	0	0	0	0	512	625	
1	0	0	0	0	513	625	
2	0	0	0	0	514	627	
3	0	0	0	0	515	626	
4	0	0	0	0	515	626	
5	0	0	0	0	516	626	
6	0	0	0	0	516	624	
7	0	0	0	0	516	626	
8	0	0	0	0	518	625	
9	0	0	0	0	517	626	
10	0	0	0	0	516	628	
11	0	0	0	0	516	626	
12	0	0	0	0	516	626	
13	0	0	0	0	516	626	
14	0	0	0	0	516	624	
15	0	0	0	0	516	627	
0	0	0	0	0	516	626	
1	0	0	0	0	517	626	
2	0	0	0	0	516	628	
3	0	0	0	0	517	626	
4	0	0	0	0	516	626	
5	0	0	0	0	516	627	
6	0	0	0	0	515	625	
7	0	0	0	0	515	626	
8	0	0	0	0	515	626	
9	0	0	0	0	514	626	
10	0	0	0	0	513	628	
11	0	0	0	0	513	625	
12	0	0	0	0	513	625	
13	0	0	0	0	513	626	
14	0	0	0	0	513	623	
15	0	0	0	0	513	625	
0	0	0	0	0	514	625	
1	0	0	0	0	514	625	
2	0	0	0	0	514	627	
3	0	0	0	0	514	625	
4	0	0	0	0	513	625	
5	0	0	0	0	513	625	
6	0	0	0	0	513	624	
7	0	0	0	0	513	625	
8	0	0	0	0	513	625	
9	0	0	0	0	513	625	
10	0	0	0	0	512	627	
11	0	0	0	0	512	624	
12	0	0	0	0	513	625	
13	0	0	0	0	512	624	
14	0	0	0	0	512	622	
15	0	0	0	0	512	624	
0	0	0	0	0	512	624	
1	0	0	0	0	512	624	
2	0	0	0	0	512	625	
3	0	0	0	0	511	624	
4	0	0	0	0	511	624	
5	0	0	0	0	512	625	
6	0	0	0	0	513	623	
7	0	0	0	0	514	625	
8	0	0	0	0	514	625	
9	0	0	0	0	513	625	
10	0	0	0	0	513	627	
11	0	0	0	0	513	625	
12	0	0	0	0	512	625	
13	0	0	0	0	512	625	
14	0	0	0	0	511	623	
15	0	0	0	0	511	624	
0	0	0	0	0	510	625	
1	0	0	0	0	510	625	
2	0	0	0	0	511	626	
3	0	0	0	0	512	625	
4	0	0	0	0	513	625	
5	0	0	0	0	513	625	
6	0	0	0	0	512	623	
7	0	0	0	0	512	624	
8	0	0	0	0	513	624	
9	0	0	0	0	513	624	
10	0	0	0	0	513	626	
11	0	0	0	0	513	625	
12	0	0	0	0	513	624	
13	0	0	0	0	513	624	
14	0	0	0	0	512	622	
15	0	0	0	0	513	624	
0	0	0	0	0	513	624	
1	0	0	0	0	513	624	
2	0	0	0	0	513	625	
3	0	0	0	0	513	624	
4	0	0	0	0	513	624	
5	0	0	0	0	513	623	
6	0	0	0	0	513	621	
7	0	0	0	0	513	623	
8	0	0	0	0	512	623	
9	0	0	0	0	512	623	
10	0	0	0	0	512	625	
11	0	0	0	0	512	623	
12	0	0	0	0	511	623	
13	0	0	0	0	510	623	
14	0	0	0	0	510	622	
15	0	0	0	0	510	624	
0	0	0	0	0	509	623	
1	0	0	0	0	509	623	
2	0	0	0	0	508	625	
3	0	0	0	0	508	623	
4	0	0	0	0	508	623	
5	0	0	0	0	508	622	
6	0	0	0	0	507	620	
7	0	0	0	0	508	623	
8	0	0	0	0	509	623	
9	0	0	0	0	509	623	
10	0	0	0	0	509	624	
11	0	0	0	0	510	622	
12	0	0	0	0	511	623	
13	0	0	0	0	513	623	
14	0	0	0	0	513	621	
15	0	0	0	0	513	623	
0	0	0	0	0	513	623	
1	0	0	0	0	514	622	
2	0	0	0	0	513	624	
3	0	0	0	0	511	623	
4	0	0	0	0	510	623	
5	0	0	0	0	508	623	
6	0	0	0	0	507	621	
7	0	0	0	0	507	623	
8	0	0	0	0	506	623	
9	0	0	0	0	505	622	
10	0	0	0	0	502	624	
11	0	0	0	0	500	623	
12	0	0	0	0	499	622	
13	0	0	0	0	499	622	
14	0	0	0	0	498	620	
15	0	0	0	0	497	622	
0	0	0	0	0	498	622	
1	0	0	0	0	498	622	
2	0	0	0	0	496	624	
3	0	0	0	0	492	622	
4	0	0	0	0	487	622	
5	0	0	0	0	481	622	
6	0	0	0	0	478	621	
7	0	0	0	0	474	622	
8	0	0	0	0	473	622	
9	0	0	0	0	473	622	
10	0	0	0	0	475	623	
11	0	0	0	0	478	622	
12	0	0	0	0	480	622	
13	0	0	0	0	485	622	
14	0	0	0	0	493	620	
15	0	0	0	0	504	621	
0	0	0	0	0	520	621	
1	0	0	0	0	540	621	
2	0	0	0	0	561	622	
3	0	0	0	0	582	621	
4	0	0	0	0	604	621	
5	0	0	0	0	628	621	
6	0	0	0	0	654	619	
7	0	0	0	0	679	621	
8	0	0	0	0	704	621	
9	0	0	0	0	730	621	
10	0	0	0	0	754	623	
11	0	0	0	0	775	622	
12	0	0	0	0	791	621	
13	0	0	0	0	802	621	
14	0	0	0	0	809	619	
15	0	0	0	0	811	621	
0	0	0	0	0	807	621	
1	0	0	0	0	799	621	
2	0	0	0	0	785	623	
3	0	0	0	0	767	622	
4	0	0	0	0	743	622	
5	0	0	0	0	716	621	
6	0	0	0	0	690	620	
7	0	0	0	0	668	621	
8	0	0	0	0	650	622	
9	0	0	0	0	635	622	
10	0	0	0	0	623	623	
11	0	0	0	0	613	621	
12	0	0	0	0	604	621	
13	0	0	0	0	595	622	
14	0	0	0	0	586	620	
15	0	0	0	0	577	622	
0	0	0	0	0	568	622	
1	0	0	0	0	558	621	
2	0	0	0	0	549	623	
3	0	0	0	0	540	622	
4	0	0	0	0	531	622	
5	0	0	0	0	522	622	
6	0	0	0	0	514	621	
7	0	0	0	0	506	622	
8	0	0	0	0	500	623	
9	0	0	0	0	494	622	
10	0	0	0	0	489	624	
11	0	0	0	0	484	622	
12	0	0	0	0	479	622	
13	0	0	0	0	475	622	
14	0	0	0	0	472	620	
15	0	0	0	0	469	622	
0	0	0	0	0	466	622	
1	0	0	0	0	463	622	
2	0	0	0	0	461	624	
3	0	0	0	0	459	622	
4	0	0	0	0	456	622	
5	0	0	0	0	455	622	
6	0	0	0	0	454	621	
7	0	0	0	0	452	622	
8	0	0	0	0	451	622	
9	0	0	0	0	450	622	
10	0	0	0	0	449	624	
11	0	0	0	0	448	622	
12	0	0	0	0	448	622	
13	0	0	0	0	447	623	
14	0	0	0	0	447	620	
15	0	0	0	0	448	622	
0	0	0	0	0	448	623	
1	0	0	0	0	448	622	
2	0	0	0	0	448	624	
3	0	0	0	0	448	623	
4	0	0	0	0	448	623	
5	0	0	0	0	449	623	
6	0	0	0	0	449	620	
7	0	0	0	0	449	623	
8	0	0	0	0	450	623	
9	0	0	0	0	450	623	
10	0	0	0	0	451	624	
11	0	0	0	0	451	623	
12	0	0	0	0	451	623	
13	0	0	0	0	451	624	
14	0	0	0	0	451	621	
15	0	0	0	0	450	623	
0	0	0	0	0	450	624	
1	0	0	0	0	452	623	
2	0	0	0	0	455	625	
3	0	0	0	0	455	623	
4	0	0	0	0	455	623	
5	0	0	0	0	455	623	
6	0	0	0	0	455	622	
7	0	0	0	0	455	623	
8	0	0	0	0	455	623	
9	0	0	0	0	457	623	
10	0	0	0	0	458	625	
11	0	0	0	0	459	623	
12	0	0	0	0	460	623	
13	0	0	0	0	461	623	
14	0	0	0	0	462	621	
15	0	0	0	0	462	623	
0	0	0	0	0	462	623	
1	0	0	0	0	463	624	
2	0	0	0	0	463	625	
3	0	0	0	0	463	623	
4	0	0	0	0	465	624	
5	0	0	0	0	466	624	
6	0	0	0	0	466	622	
7	0	0	0	0	465	624	
8	0	0	0	0	467	624	
9	0	0	0	0	467	624	
10	0	0	0	0	468	626	
11	0	0	0	0	468	624	
12	0	0	0	0	469	624	
13	0	0	0	0	470	624	
14	0	0	0	0	470	623	
15	0	0	0	0	471	624	
0	0	0	0	0	472	624	
1	0	0	0	0	473	624	
2	0	0	0	0	472	625	
3	0	0	0	0	473	624	
4	0	0	0	0	473	625	
5	0	0	0	0	473	624	
6	0	0	0	0	473	623	
7	0	0	0	0	475	624	
8	0	0	0	0	476	624	
9	0	0	0	0	476	624	
10	0	0	0	0	477	626	
11	0	0	0	0	477	625	
12	0	0	0	0	477	624	
13	0	0	0	0	478	625	
14	0	0	0	0	479	623	
15	0	0	0	0	479	624	
0	0	0	0	0	480	624	
1	0	0	0	0	481	624	
2	0	0	0	0	481	626	
3	0	0	0	0	481	625	
4	0	0	0	0	482	625	
5	0	0	0	0	483	624	
6	0	0	0	0	483	623	
7	0	0	0	0	483	624	
8	0	0	0	0	483	624	
9	0	0	0	0	483	625	
10	0	0	0	0	483	626	
11	0	0	0	0	484	624	
12	0	0	0	0	485	624	
13	0	0	0	0	485	624	
14	0	0	0	0	486	623	
15	0	0	0	0	486	624	
0	0	0	0	0	486	625	
1	0	0	0	0	487	625	
2	0	0	0	0	487	626	
3	0	0	0	0	488	625	
4	0	0	0	0	489	625	
5	0	0	0	0	490	625	
6	0	0	0	0	492	624	
7	0	0	0	0	492	626	
8	0	0	0	0	494	626	
9	0	0	0	0	495	626	
10	0	0	0	0	496	627	
11	0	0	0	0	496	625	
12	0	0	0	0	496	625	
13	0	0	0	0	497	625	
14	0	0	0	0	497	624	
15	0	0	0	0	497	625	
0	0	0	0	0	497	625	
1	0	0	0	0	498	625	
2	0	0	0	0	498	627	
3	0	0	0	0	499	625	
4	0	0	0	0	499	625	
5	0	0	0	0	500	625	
6	0	0	0	0	501	623	
7	0	0	0	0	501	625	
8	0	0	0	0	502	625	
9	0	0	0	0	502	625	
10	0	0	0	0	503	626	
11	0	0	0	0	503	625	
12	0	0	0	0	504	625	
13	0	0	0	0	504	625	
14	0	0	0	0	504	623	
15	0	0	0	0	504	625	
0	0	0	0	0	504	624	
1	0	0	0	0	504	625	
2	0	0	0	0	504	627	
3	0	0	0	0	505	626	
4	0	0	0	0	506	625	
5	0	0	0	0	505	625	
6	0	0	0	0	505	623	
7	0	0	0	0	506	625	
8	0	0	0	0	507	625	
9	0	0	0	0	507	625	
10	0	0	0	0	507	627	
11	0	0	0	0	507	625	
12	0	0	0	0	508	626	
13	0	0	0	0	508	625	
14	0	0	0	0	509	624	
15	0	0	0	0	509	625	
0	0	0	0	0	510	625	
1	0	0	0	0	510	625	
2	0	0	0	0	511	627	
3	0	0	0	0	511	626	
4	0	0	0	0	510	625	
5	0	0	0	0	510	625	
6	0	0	0	0	510	624	
7	0	0	0	0	510	625	
8	0	0	0	0	510	625	
9	0	0	0	0	511	625	
10	0	0	0	0	511	627	
11	0	0	0	0	511	625	
12	0	0	0	0	510	625	
13	0	0	0	0	512	625	
14	0	0	0	0	512	623	
15	0	0	0	0	512	625	
0	0	0	0	0	513	625	
1	0	0	0	0	513	624	
2	0	0	0	0	515	626	
3	0	0	0	0	515	624	
4	0	0	0	0	515	624	
5	0	0	0	0	515	624	
6	0	0	0	0	514	622	
7	0	0	0	0	514	624	
8	0	0	0	0	515	623	
9	0	0	0	0	515	623	
10	0	0	0	0	515	624	
11	0	0	0	0	516	623	
12	0	0	0	0	516	623	
13	0	0	0	0	517	623	
14	0	0	0	0	518	622	
15	0	0	0	0	518	624	
0	0	0	0	0	519	623	
1	0	0	0	0	518	623	
2	0	0	0	0	518	624	
3	0	0	0	0	519	622	
4	0	0	0	0	519	623	
5	0	0	0	0	520	622	
6	0	0	0	0	521	621	
7	0	0	0	0	521	623	
8	0	0	0	0	522	622	
9	0	0	0	0	523	622	
10	0	0	0	0	524	624	
11	0	0	0	0	524	622	
12	0	0	0	0	525	622	
13	0	0	0	0	525	622	
14	0	0	0	0	526	620	
15	0	0	0	0	526	622	
0	0	0	0	0	527	621	
1	0	0	0	0	527	622	
2	0	0	0	0	527	624	
3	0	0	0	0	527	622	
4	0	0	0	0	527	622	
5	0	0	0	0	528	622	
6	0	0	0	0	528	619	
7	0	0	0	0	529	622	
8	0	0	0	0	530	622	
9	0	0	0	0	530	622	
10	0	0	0	0	531	623	
11	0	0	0	0	533	622	
12	0	0	0	0	534	622	
13	0	0	0	0	535	622	
14	0	0	0	0	535	620	
15	0	0	0	0	535	622	
0	0	0	0	0	536	622	
1	0	0	0	0	537	622	
2	0	0	0	0	537	624	
3	0	0	0	0	537	622	
4	0	0	0	0	537	622	
5	0	0	0	0	537	623	
6	0	0	0	0	537	620	
7	0	0	0	0	536	622	
8	0	0	0	0	536	621	
9	0	0	0	0	537	622	
10	0	0	0	0	538	624	
11	0	0	0	0	538	622	
12	0	0	0	0	539	622	
13	0	0	0	0	539	621	
14	0	0	0	0	540	620	
15	0	0	0	0	540	622	
0	0	0	0	0	540	622	
1	0	0	0	0	541	622	
2	0	0	0	0	541	624	
3	0	0	0	0	540	622	
4	0	0	0	0	540	623	
5	0	0	0	0	541	623	
6	0	0	0	0	541	621	
7	0	0	0	0	540	622	
8	0	0	0	0	540	623	
9	0	0	0	0	540	623	
10	0	0	0	0	540	624	
11	0	0	0	0	540	624	
12	0	0	0	0	539	623	
13	0	0	0	0	539	623	
14	0	0	0	0	538	621	
15	0	0	0	0	539	623	
0	0	0	0	0	539	623	
1	0	0	0	0	538	623	
2	0	0	0	0	538	624	
3	0	0	0	0	538	623	
4	0	0	0	0	539	624	
5	0	0	0	0	539	624	
6	0	0	0	0	539	622	
7	0	0	0	0	538	624	
8	0	0	0	0	537	624	
9	0	0	0	0	536	623	
10	0	0	0	0	536	626	
11	0	0	0	0	535	624	
12	0	0	0	0	534	624	
13	0	0	0	0	533	624	
14	0	0	0	0	532	622	
15	0	0	0	0	531	624	
0	0	0	0	0	530	624	
1	0	0	0	0	530	624	
2	0	0	0	0	529	626	
3	0	0	0	0	528	624	
4	0	0	0	0	527	624	
5	0	0	0	0	527	625	
6	0	0	0	0	526	623	
7	0	0	0	0	525	624	
8	0	0	0	0	524	624	
9	0	0	0	0	523	624	
10	0	0	0	0	521	626	
11	0	0	0	0	520	624	
12	0	0	0	0	519	623	
13	0	0	0	0	518	624	
14	0	0	0	0	517	623	
15	0	0	0	0	515	624	
0	0	0	0	0	514	624	
1	0	0	0	0	513	624	
2	0	0	0	0	512	626	
3	0	0	0	0	511	625	
4	0	0	0	0	510	624	
5	0	0	0	0	510	624	
6	0	0	0	0	508	622	
7	0	0	0	0	508	624	
8	0	0	0	0	507	624	
9	0	0	0	0	506	624	
10	0	0	0	0	506	626	
11	0	0	0	0	505	624	
12	0	0	0	0	505	624	
13	0	0	0	0	505	625	
14	0	0	0	0	504	623	
15	0	0	0	0	505	625	
0	0	0	0	0	505	624	
1	0	0	0	0	505	624	
2	0	0	0	0	504	626	
3	0	0	0	0	504	624	
4	0	0	0	0	504	625	
5	0	0	0	0	504	625	
6	0	0	0	0	504	623	
7	0	0	0	0	504	625	
8	0	0	0	0	504	625	
9	0	0	0	0	504	625	
10	0	0	0	0	503	627	
11	0	0	0	0	503	625	
12	0	0	0	0	503	625	
13	0	0	0	0	503	625	
14	0	0	0	0	503	623	
15	0	0	0	0	502	625	
0	0	0	0	0	502	624	
1	0	0	0	0	502	625	
2	0	0	0	0	501	626	
3	0	0	0	0	501	625	
4	0	0	0	0	500	624	
5	0	0	0	0	500	624	
6	0	0	0	0	500	622	
7	0	0	0	0	500	624	
8	0	0	0	0	500	624	
9	0	0	0	0	500	623	
10	0	0	0	0	500	625	
11	0	0	0	0	499	624	
12	0	0	0	0	498	624	
13	0	0	0	0	499	624	
14	0	0	0	0	499	621	
15	0	0	0	0	499	624	
0	0	0	0	0	499	624	
1	0	0	0	0	498	624	
2	0	0	0	0	499	625	
3	0	0	0	0	498	624	
4	0	0	0	0	499	624	
5	0	0	0	0	499	624	
6	0	0	0	0	499	622	
7	0	0	0	0	500	623	
8	0	0	0	0	501	623	
9	0	0	0	0	501	624	
10	0	0	0	0	501	624	
11	0	0	0	0	501	622	
12	0	0	0	0	501	623	
13	0	0	0	0	501	623	
14	0	0	0	0	502	620	
15	0	0	0	0	502	622	
0	0	0	0	0	503	623	
1	0	0	0	0	504	623	
2	0	0	0	0	504	624	
3	0	0	0	0	504	623	
4	0	0	0	0	504	622	
5	0	0	0	0	504	623	
6	0	0	0	0	504	620	
7	0	0	0	0	504	623	
8	0	0	0	0	504	623	
9	0	0	0	0	504	623	
10	0	0	0	0	505	624	
11	0	0	0	0	504	622	
12	0	0	0	0	504	623	
13	0	0	0	0	504	622	
14	0	0	0	0	504	620	
15	0	0	0	0	504	622	
0	0	0	0	0	504	623	
1	0	0	0	0	503	622	
2	0	0	0	0	504	624	
3	0	0	0	0	504	622	
4	0	0	0	0	504	622	
5	0	0	0	0	504	622	
6	0	0	0	0	504	620	
7	0	0	0	0	504	622	
8	0	0	0	0	505	622	
9	0	0	0	0	505	622	
10	0	0	0	0	506	624	
11	0	0	0	0	505	622	
12	0	0	0	0	505	623	
13	0	0	0	0	504	622	
14	0	0	0	0	505	620	
15	0	0	0	0	506	622	
0	0	0	0	0	506	622	
1	0	0	0	0	505	622	
2	0	0	0	0	505	624	
3	0	0	0	0	504	622	
4	0	0	0	0	503	622	
5	0	0	0	0	502	622	
6	0	0	0	0	502	620	
7	0	0	0	0	503	622	
8	0	0	0	0	503	622	
9	0	0	0	0	502	622	
10	0	0	0	0	503	624	
11	0	0	0	0	503	622	
12	0	0	0	0	502	622	
13	0	0	0	0	502	622	
14	0	0	0	0	503	620	
15	0	0	0	0	502	622	
0	0	0	0	0	503	622	
1	0	0	0	0	503	621	
2	0	0	0	0	503	624	
3	0	0	0	0	503	622	
4	0	0	0	0	503	622	
5	0	0	0	0	503	622	
6	0	0	0	0	502	621	
7	0	0	0	0	502	622	
8	0	0	0	0	503	622	
9	0	0	0	0	503	623	
10	0	0	0	0	503	624	
11	0	0	0	0	503	623	
12	0	0	0	0	502	623	
13	0	0	0	0	503	623	
14	0	0	0	0	502	621	
15	0	0	0	0	503	623	
0	0	0	0	0	504	623	
1	0	0	0	0	503	623	
2	0	0	0	0	504	626	
3	0	0	0	0	503	624	
4	0	0	0	0	504	624	
5	0	0	0	0	505	624	
6	0	0	0	0	504	622	
7	0	0	0	0	503	624	
8	0	0	0	0	503	623	
9	0	0	0	0	502	623	
10	0	0	0	0	501	625	
11	0	0	0	0	500	624	
12	0	0	0	0	500	624	
13	0	0	0	0	500	623	
14	0	0	0	0	500	622	
15	0	0	0	0	501	624	
0	0	0	0	0	501	624	
1	0	0	0	0	501	624	
2	0	0	0	0	501	625	
3	0	0	0	0	502	624	
4	0	0	0	0	502	623	
5	0	0	0	0	503	623	
6	0	0	0	0	503	622	
7	0	0	0	0	504	624	
8	0	0	0	0	504	624	
9	0	0	0	0	503	624	
10	0	0	0	0	503	625	
11	0	0	0	0	503	624	
12	0	0	0	0	503	624	
13	0	0	0	0	504	624	
14	0	0	0	0	503	623	
15	0	0	0	0	502	624	
0	0	0	0	0	502	624	
1	0	0	0	0	502	624	
2	0	0	0	0	501	626	
3	0	0	0	0	501	624	
4	0	0	0	0	502	625	
5	0	0	0	0	502	625	
6	0	0	0	0	502	623	
7	0	0	0	0	501	625	
8	0	0	0	0	502	625	
9	0	0	0	0	502	625	
10	0	0	0	0	502	627	
11	0	0	0	0	503	624	
12	0	0	0	0	502	625	
13	0	0	0	0	502	625	
14	0	0	0	0	502	623	
15	0	0	0	0	502	625	
0	0	0	0	0	502	625	
1	0	0	0	0	502	625	
2	0	0	0	0	502	627	
3	0	0	0	0	501	625	
4	0	0	0	0	501	625	
5	0	0	0	0	500	625	
6	0	0	0	0	500	623	
7	0	0	0	0	500	624	
8	0	0	0	0	500	625	
9	0	0	0	0	501	625	
10	0	0	0	0	501	626	
11	0	0	0	0	502	625	
12	0	0	0	0	501	625	
13	0	0	0	0	500	625	
14	0	0	0	0	499	624	
15	0	0	0	0	500	625	
0	0	0	0	0	499	625	
1	0	0	0	0	499	624	
2	0	0	0	0	500	626	
3	0	0	0	0	500	625	
4	0	0	0	0	500	625	
5	0	0	0	0	499	625	
6	0	0	0	0	499	623	
7	0	0	0	0	499	624	
8	0	0	0	0	498	624	
9	0	0	0	0	498	624	
10	0	0	0	0	498	626	
11	0	0	0	0	498	624	
12	0	0	0	0	499	624	
13	0	0	0	0	499	625	
14	0	0	0	0	498	623	
15	0	0	0	0	498	625	
0	0	0	0	0	498	624	
1	0	0	0	0	497	624	
2	0	0	0	0	497	627	
3	0	0	0	0	497	624	
4	0	0	0	0	496	624	
5	0	0	0	0	496	625	
6	0	0	0	0	495	623	
7	0	0	0	0	494	625	
8	0	0	0	0	495	624	
9	0	0	0	0	495	624	
10	0	0	0	0	495	626	
11	0	0	0	0	493	624	
12	0	0	0	0	492	624	
13	0	0	0	0	492	624	
14	0	0	0	0	491	622	
15	0	0	0	0	491	624	
0	0	0	0	0	491	624	
1	0	0	0	0	492	624	
2	0	0	0	0	493	626	
3	0	0	0	0	492	624	
4	0	0	0	0	492	625	
5	0	0	0	0	491	625	
6	0	0	0	0	491	623	
7	0	0	0	0	490	624	
8	0	0	0	0	489	625	
9	0	0	0	0	489	624	
10	0	0	0	0	487	626	
11	0	0	0	0	487	624	
12	0	0	0	0	487	624	
13	0	0	0	0	488	624	
14	0	0	0	0	487	622	
15	0	0	0	0	487	624	
0	0	0	0	0	487	624	
1	0	0	0	0	487	624	
2	0	0	0	0	487	624	
3	0	0	0	0	486	623	
4	0	0	0	0	486	623	
5	0	0	0	0	487	623	
6	0	0	0	0	487	621	
7	0	0	0	0	487	623	
8	0	0	0	0	488	623	
9	0	0	0	0	489	623	
10	0	0	0	0	490	625	
11	0	0	0	0	489	623	
12	0	0	0	0	490	623	
13	0	0	0	0	491	623	
14	0	0	0	0	491	621	
15	0	0	0	0	490	623	
0	0	0	0	0	489	623	
1	0	0	0	0	490	623	
2	0	0	0	0	491	625	
3	0	0	0	0	491	623	
4	0	0	0	0	491	623	
5	0	0	0	0	491	623	
6	0	0	0	0	491	621	
7	0	0	0	0	492	623	
8	0	0	0	0	492	623	
9	0	0	0	0	492	623	
10	0	0	0	0	492	624	
11	0	0	0	0	492	623	
12	0	0	0	0	491	623	
13	0	0	0	0	491	623	
14	0	0	0	0	491	622	
15	0	0	0	0	491	623	
0	0	0	0	0	491	623	
1	0	0	0	0	490	623	
2	0	0	0	0	490	625	
3	0	0	0	0	489	623	
4	0	0	0	0	488	623	
5	0	0	0	0	488	623	
6	0	0	0	0	488	620	
7	0	0	0	0	488	623	
8	0	0	0	0	488	623	
9	0	0	0	0	489	624	
10	0	0	0	0	490	625	
11	0	0	0	0	491	623	
12	0	0	0	0	491	623	
13	0	0	0	0	492	623	
14	0	0	0	0	492	621	
15	0	0	0	0	491	623	
0	0	0	0	0	491	624	
1	0	0	0	0	491	624	
2	0	0	0	0	491	626	
3	0	0	0	0	491	624	
4	0	0	0	0	492	624	
5	0	0	0	0	493	624	
6	0	0	0	0	493	622	
7	0	0	0	0	494	624	
8	0	0	0	0	494	624	
9	0	0	0	0	494	624	
10	0	0	0	0	495	626	
11	0	0	0	0	495	624	
12	0	0	0	0	495	624	
13	0	0	0	0	495	624	
14	0	0	0	0	495	622	
15	0	0	0	0	495	624	
0	0	0	0	0	494	624	
1	0	0	0	0	494	624	
2	0	0	0	0	495	626	
3	0	0	0	0	495	624	
4	0	0	0	0	496	624	
5	0	0	0	0	496	624	
6	0	0	0	0	496	623	
7	0	0	0	0	496	624	
8	0	0	0	0	496	624	
9	0	0	0	0	496	624	
10	0	0	0	0	496	625	
11	0	0	0	0	495	624	
12	0	0	0	0	495	624	
13	0	0	0	0	494	624	
14	0	0	0	0	494	622	
15	0	0	0	0	494	624	
0	0	0	0	0	494	624	
1	0	0	0	0	494	624	
2	0	0	0	0	495	626	
3	0	0	0	0	495	624	
4	0	0	0	0	495	624	
5	0	0	0	0	495	625	
6	0	0	0	0	496	622	
7	0	0	0	0	496	624	
8	0	0	0	0	497	624	
9	0	0	0	0	497	625	
10	0	0	0	0	497	626	
11	0	0	0	0	497	625	
12	0	0	0	0	498	625	
13	0	0	0	0	498	624	
14	0	0	0	0	496	622	
15	0	0	0	0	497	623	
0	0	0	0	0	497	624	
1	0	0	0	0	496	624	
2	0	0	0	0	496	625	
3	0	0	0	0	496	623	
4	0	0	0	0	496	624	
5	0	0	0	0	496	624	
6	0	0	0	0	496	622	
7	0	0	0	0	497	623	
8	0	0	0	0	497	623	
9	0	0	0	0	498	623	
10	0	0	0	0	497	624	
11	0	0	0	0	497	623	
12	0	0	0	0	497	623	
13	0	0	0	0	498	623	
14	0	0	0	0	499	621	
15	0	0	0	0	499	624	
0	0	0	0	0	499	624	
1	0	0	0	0	499	623	
2	0	0	0	0	499	625	
3	0	0	0	0	499	623	
4	0	0	0	0	499	623	
5	0	0	0	0	498	623	
6	0	0	0	0	497	622	
7	0	0	0	0	497	623	
8	0	0	0	0	497	624	
9	0	0	0	0	497	623	
10	0	0	0	0	498	625	
11	0	0	0	0	497	623	
12	0	0	0	0	497	624	
13	0	0	0	0	497	624	
14	0	0	0	0	499	622	
15	0	0	0	0	499	624	
0	0	0	0	0	499	623	
1	0	0	0	0	500	624	
2	0	0	0	0	500	625	
3	0	0	0	0	501	623	
4	0	0	0	0	500	623	
5	0	0	0	0	499	622	
6	0	0	0	0	500	620	
7	0	0	0	0	500	623	
8	0	0	0	0	501	623	
9	0	0	0	0	500	623	
10	0	0	0	0	501	625	
11	0	0	0	0	501	623	
12	0	0	0	0	502	623	
13	0	0	0	0	502	623	
14	0	0	0	0	501	621	
15	0	0	0	0	502	623	
0	0	0	0	0	501	623	
1	0	0	0	0	502	623	
2	0	0	0	0	502	626	
3	0	0	0	0	503	624	
4	0	0	0	0	504	624	
5	0	0	0	0	504	624	
6	0	0	0	0	504	622	
7	0	0	0	0	505	623	
8	0	0	0	0	506	623	
9	0	0	0	0	506	623	
10	0	0	0	0	507	625	
11	0	0	0	0	508	624	
12	0	0	0	0	508	624	
13	0	0	0	0	509	623	
14	0	0	0	0	509	622	
15	0	0	0	0	509	624	
0	0	0	0	0	509	624	
1	0	0	0	0	509	624	
2	0	0	0	0	509	625	
3	0	0	0	0	509	624	
4	0	0	0	0	510	624	
5	0	0	0	0	510	624	
6	0	0	0	0	509	622	
7	0	0	0	0	510	624	
8	0	0	0	0	509	624	
9	0	0	0	0	509	624	
10	0	0	0	0	509	626	
11	0	0	0	0	509	624	
12	0	0	0	0	509	624	
13	0	0	0	0	509	623	
14	0	0	0	0	509	622	
15	0	0	0	0	509	624	
0	0	0	0	0	508	624	
1	0	0	0	0	508	623	
2	0	0	0	0	507	625	
3	0	0	0	0	507	624	
4	0	0	0	0	508	624	
5	0	0	0	0	508	624	
6	0	0	0	0	507	622	
7	0	0	0	0	507	623	
8	0	0	0	0	507	624	
9	0	0	0	0	508	624	
10	0	0	0	0	509	625	
11	0	0	0	0	509	624	
12	0	0	0	0	509	624	
13	0	0	0	0	510	624	
14	0	0	0	0	511	622	
15	0	0	0	0	511	624	
0	0	0	0	0	510	624	
1	0	0	0	0	511	624	
2	0	0	0	0	510	625	
3	0	0	0	0	511	624	
4	0	0	0	0	511	624	
5	0	0	0	0	510	624	
6	0	0	0	0	509	622	
7	0	0	0	0	508	624	
8	0	0	0	0	508	624	
9	0	0	0	0	508	624	
10	0	0	0	0	507	626	
11	0	0	0	0	507	624	
12	0	0	0	0	508	625	
13	0	0	0	0	508	624	
14	0	0	0	0	508	623	
15	0	0	0	0	509	625	
0	0	0	0	0	509	624	
1	0	0	0	0	509	624	
2	0	0	0	0	510	626	
3	0	0	0	0	510	624	
4	0	0	0	0	510	624	
5	0	0	0	0	509	624	
6	0	0	0	0	509	622	
7	0	0	0	0	510	624	
8	0	0	0	0	510	624	
9	0	0	0	0	510	624	
10	0	0	0	0	510	626	
11	0	0	0	0	509	624	
12	0	0	0	0	510	624	
13	0	0	0	0	509	624	
14	0	0	0	0	509	622	
15	0	0	0	0	509	623	
0	0	0	0	0	508	623	
1	0	0	0	0	509	623	
2	0	0	0	0	510	625	
3	0	0	0	0	510	624	
4	0	0	0	0	510	623	
5	0	0	0	0	511	623	
6	0	0	0	0	511	622	
7	0	0	0	0	512	623	
8	0	0	0	0	512	624	
9	0	0	0	0	511	624	
10	0	0	0	0	512	625	
11	0	0	0	0	512	624	
12	0	0	0	0	512	623	
13	0	0	0	0	512	623	
14	0	0	0	0	511	622	
15	0	0	0	0	512	623	
0	0	0	0	0	512	624	
1	0	0	0	0	513	623	
2	0	0	0	0	513	625	
3	0	0	0	0	513	624	
4	0	0	0	0	513	623	
5	0	0	0	0	513	623	
6	0	0	0	0	513	622	
7	0	0	0	0	513	624	
8	0	0	0	0	513	624	
9	0	0	0	0	514	624	
10	0	0	0	0	513	625	
11	0	0	0	0	513	624	
12	0	0	0	0	514	624	
13	0	0	0	0	515	624	
14	0	0	0	0	515	622	
15	0	0	0	0	514	623	
0	0	0	0	0	515	623	
1	0	0	0	0	514	623	
2	0	0	0	0	514	625	
3	0	0	0	0	513	623	
4	0	0	0	0	513	623	
5	0	0	0	0	513	623	
6	0	0	0	0	514	621	
7	0	0	0	0	515	623	
8	0	0	0	0	514	623	
9	0	0	0	0	513	623	
10	0	0	0	0	513	624	
11	0	0	0	0	514	622	
12	0	0	0	0	513	622	
13	0	0	0	0	512	622	
14	0	0	0	0	513	621	
15	0	0	0	0	512	622	
0	0	0	0	0	511	622	
1	0	0	0	0	509	622	
2	0	0	0	0	508	623	
3	0	0	0	0	506	622	
4	0	0	0	0	504	621	
5	0	0	0	0	503	622	
6	0	0	0	0	502	620	
7	0	0	0	0	502	622	
8	0	0	0	0	500	623	
9	0	0	0	0	499	623	
10	0	0	0	0	497	624	
11	0	0	0	0	494	623	
12	0	0	0	0	491	622	
13	0	0	0	0	487	623	
14	0	0	0	0	483	621	
15	0	0	0	0	479	623	
0	0	0	0	0	478	623	
1	0	0	0	0	478	622	
2	0	0	0	0	478	624	
3	0	0	0	0	478	623	
4	0	0	0	0	481	623	
5	0	0	0	0	487	623	
6	0	0	0	0	494	621	
7	0	0	0	0	505	623	
8	0	0	0	0	519	623	
9	0	0	0	0	538	623	
10	0	0	0	0	560	624	
11	0	0	0	0	583	623	
12	0	0	0	0	606	623	
13	0	0	0	0	631	623	
14	0	0	0	0	656	621	
15	0	0	0	0	683	623	
0	0	0	0	0	709	623	
1	0	0	0	0	734	623	
2	0	0	0	0	758	624	
3	0	0	0	0	779	623	
4	0	0	0	0	797	622	
5	0	0	0	0	811	622	
6	0	0	0	0	822	620	
7	0	0	0	0	827	622	
8	0	0	0	0	827	622	
9	0	0	0	0	822	623	
10	0	0	0	0	812	624	
11	0	0	0	0	799	623	
12	0	0	0	0	778	622	
13	0	0	0	0	753	623	
14	0	0	0	0	726	620	
15	0	0	0	0	700	622	
0	0	0	0	0	678	622	
1	0	0	0	0	659	622	
2	0	0	0	0	645	624	
3	0	0	0	0	633	622	
4	0	0	0	0	622	622	
5	0	0	0	0	611	623	
6	0	0	0	0	601	621	
7	0	0	0	0	592	623	
8	0	0	0	0	581	622	
9	0	0	0	0	571	623	
10	0	0	0	0	561	624	
11	0	0	0	0	551	623	
12	0	0	0	0	543	623	
13	0	0	0	0	535	622	
14	0	0	0	0	526	621	
15	0	0	0	0	518	622	
0	0	0	0	0	511	622	
1	0	0	0	0	504	622	
2	0	0	0	0	499	625	
3	0	0	0	0	493	623	
4	0	0	0	0	488	623	
5	0	0	0	0	483	623	
6	0	0	0	0	480	621	
7	0	0	0	0	477	623	
8	0	0	0	0	474	623	
9	0	0	0	0	470	623	
10	0	0	0	0	467	625	
11	0	0	0	0	465	624	
12	0	0	0	0	463	624	
13	0	0	0	0	461	624	
14	0	0	0	0	460	621	
15	0	0	0	0	459	623	
0	0	0	0	0	458	623	
1	0	0	0	0	457	624	
2	0	0	0	0	457	625	
3	0	0	0	0	456	624	
4	0	0	0	0	455	624	
5	0	0	0	0	455	624	
6	0	0	0	0	456	621	
7	0	0	0	0	455	623	
8	0	0	0	0	455	623	
9	0	0	0	0	455	623	
10	0	0	0	0	455	624	
11	0	0	0	0	455	623	
12	0	0	0	0	455	623	
13	0	0	0	0	456	623	
14	0	0	0	0	457	621	
15	0	0	0	0	457	623	
0	0	0	0	0	457	623	
1	0	0	0	0	457	623	
2	0	0	0	0	458	625	
3	0	0	0	0	458	624	
4	0	0	0	0	459	624	
5	0	0	0	0	459	624	
6	0	0	0	0	460	622	
7	0	0	0	0	460	624	
8	0	0	0	0	460	623	
9	0	0	0	0	461	623	
10	0	0	0	0	461	625	
11	0	0	0	0	461	624	
12	0	0	0	0	461	624	
13	0	0	0	0	460	625	
14	0	0	0	0	461	622	
15	0	0	0	0	461	625	
0	0	0	0	0	462	624	
1	0	0	0	0	462	624	
2	0	0	0	0	463	626	
3	0	0	0	0	463	625	
4	0	0	0	0	464	625	
5	0	0	0	0	464	625	
6	0	0	0	0	464	623	
7	0	0	0	0	465	625	
8	0	0	0	0	466	625	
9	0	0	0	0	467	625	
10	0	0	0	0	467	627	
11	0	0	0	0	468	625	
12	0	0	0	0	468	625	
13	0	0	0	0	468	625	
14	0	0	0	0	468	624	
15	0	0	0	0	469	625	
0	0	0	0	0	469	626	
1	0	0	0	0	468	625	
2	0	0	0	0	469	627	
3	0	0	0	0	468	625	
4	0	0	0	0	469	625	
5	0	0	0	0	471	625	
6	0	0	0	0	472	623	
7	0	0	0	0	473	626	
8	0	0	0	0	473	625	
9	0	0	0	0	473	625	
10	0	0	0	0	474	627	
11	0	0	0	0	474	625	
12	0	0	0	0	475	626	
13	0	0	0	0	476	626	
14	0	0	0	0	477	624	
15	0	0	0	0	477	625	
0	0	0	0	0	478	626	
1	0	0	0	0	478	626	
2	0	0	0	0	478	627	
3	0	0	0	0	477	626	
4	0	0	0	0	478	626	
5	0	0	0	0	479	626	
6	0	0	0	0	479	625	
7	0	0	0	0	478	626	
8	0	0	0	0	477	626	
9	0	0	0	0	477	626	
10	0	0	0	0	477	627	
11	0	0	0	0	476	626	
12	0	0	0	0	476	626	
13	0	0	0	0	477	626	
14	0	0	0	0	478	624	
15	0	0	0	0	478	625	
0	0	0	0	0	478	626	
1	0	0	0	0	478	625	
2	0	0	0	0	477	627	
3	0	0	0	0	478	625	
4	0	0	0	0	478	625	
5	0	0	0	0	479	625	
6	0	0	0	0	480	624	
7	0	0	0	0	480	626	
8	0	0	0	0	480	625	
9	0	0	0	0	480	625	
10	0	0	0	0	480	626	
11	0	0	0	0	481	625	
12	0	0	0	0	481	624	
13	0	0	0	0	483	624	
14	0	0	0	0	484	622	
15	0	0	0	0	485	624	
0	0	0	0	0	486	624	
1	0	0	0	0	486	624	
2	0	0	0	0	486	626	
3	0	0	0	0	486	624	
4	0	0	0	0	486	624	
5	0	0	0	0	486	624	
6	0	0	0	0	485	622	
7	0	0	0	0	486	624	
8	0	0	0	0	486	624	
9	0	0	0	0	486	624	
10	0	0	0	0	487	626	
11	0	0	0	0	487	624	
12	0	0	0	0	488	624	
13	0	0	0	0	488	624	
14	0	0	0	0	488	623	
15	0	0	0	0	488	624	
0	0	0	0	0	490	624	
1	0	0	0	0	491	624	
2	0	0	0	0	491	625	
3	0	0	0	0	491	624	
4	0	0	0	0	491	623	
5	0	0	0	0	491	623	
6	0	0	0	0	491	621	
7	0	0	0	0	492	624	
8	0	0	0	0	492	623	
9	0	0	0	0	493	623	
10	0	0	0	0	492	624	
11	0	0	0	0	493	623	
12	0	0	0	0	493	623	
13	0	0	0	0	494	624	
14	0	0	0	0	495	622	
15	0	0	0	0	495	624	
0	0	0	0	0	494	624	
1	0	0	0	0	493	624	
2	0	0	0	0	493	626	
3	0	0	0	0	494	624	
4	0	0	0	0	494	624	
5	0	0	0	0	493	623	
6	0	0	0	0	493	622	
7	0	0	0	0	493	624	
8	0	0	0	0	493	623	
9	0	0	0	0	493	624	
10	0	0	0	0	494	625	
11	0	0	0	0	494	624	
12	0	0	0	0	494	623	
13	0	0	0	0	495	624	
14	0	0	0	0	495	621	
15	0	0	0	0	495	623	
0	0	0	0	0	495	623	
1	0	0	0	0	496	624	
2	0	0	0	0	496	624	
3	0	0	0	0	497	623	
4	0	0	0	0	498	623	
5	0	0	0	0	498	623	
6	0	0	0	0	498	622	
7	0	0	0	0	498	623	
8	0	0	0	0	498	623	
9	0	0	0	0	498	623	
10	0	0	0	0	499	625	
11	0	0	0	0	499	623	
12	0	0	0	0	500	624	
13	0	0	0	0	500	624	
14	0	0	0	0	501	622	
15	0	0	0	0	500	624	
0	0	0	0	0	500	624	
1	0	0	0	0	500	624	
2	0	0	0	0	499	625	
3	0	0	0	0	498	624	
4	0	0	0	0	497	624	
5	0	0	0	0	498	624	
6	0	0	0	0	499	623	
7	0	0	0	0	499	624	
8	0	0	0	0	499	625	
9	0	0	0	0	499	624	
10	0	0	0	0	499	626	
11	0	0	0	0	500	624	
12	0	0	0	0	500	624	
13	0	0	0	0	500	624	
14	0	0	0	0	501	622	
15	0	0	0	0	501	623	
0	0	0	0	0	501	623	
1	0	0	0	0	501	623	
2	0	0	0	0	502	625	
3	0	0	0	0	502	623	
4	0	0	0	0	502	623	
5	0	0	0	0	503	623	
6	0	0	0	0	504	621	
7	0	0	0	0	504	623	
8	0	0	0	0	504	623	
9	0	0	0	0	504	622	
10	0	0	0	0	505	624	
11	0	0	0	0	504	623	
12	0	0	0	0	504	622	
13	0	0	0	0	504	623	
14	0	0	0	0	504	621	
15	0	0	0	0	503	623	
0	0	0	0	0	503	623	
1	0	0	0	0	503	622	
2	0	0	0	0	503	624	
3	0	0	0	0	503	623	
4	0	0	0	0	504	623	
5	0	0	0	0	504	623	
6	0	0	0	0	504	621	
7	0	0	0	0	504	622	
8	0	0	0	0	505	623	
9	0	0	0	0	506	623	
10	0	0	0	0	506	624	
11	0	0	0	0	505	623	
12	0	0	0	0	505	623	
13	0	0	0	0	505	622	
14	0	0	0	0	506	620	
15	0	0	0	0	506	623	
0	0	0	0	0	506	623	
1	0	0	0	0	506	623	
2	0	0	0	0	505	625	
3	0	0	0	0	506	623	
4	0	0	0	0	507	623	
5	0	0	0	0	506	624	
6	0	0	0	0	505	622	
7	0	0	0	0	505	624	
8	0	0	0	0	505	624	
9	0	0	0	0	506	624	
10	0	0	0	0	507	625	
11	0	0	0	0	508	624	
12	0	0	0	0	510	624	
13	0	0	0	0	510	624	
14	0	0	0	0	510	622	
15	0	0	0	0	509	624	
0	0	0	0	0	508	623	
1	0	0	0	0	508	623	
2	0	0	0	0	507	625	
3	0	0	0	0	507	624	
4	0	0	0	0	507	623	
5	0	0	0	0	507	623	
6	0	0	0	0	508	621	
7	0	0	0	0	509	623	
8	0	0	0	0	509	622	
9	0	0	0	0	510	623	
10	0	0	0	0	510	624	
11	0	0	0	0	509	623	
12	0	0	0	0	509	622	
13	0	0	0	0	509	622	
14	0	0	0	0	510	621	
15	0	0	0	0	509	622	
0	0	0	0	0	509	622	
1	0	0	0	0	510	623	
2	0	0	0	0	509	624	
3	0	0	0	0	509	623	
4	0	0	0	0	508	622	
5	0	0	0	0	507	623	
6	0	0	0	0	506	622	
7	0	0	0	0	506	623	
8	0	0	0	0	505	623	
9	0	0	0	0	504	623	
10	0	0	0	0	505	624	
11	0	0	0	0	504	623	
12	0	0	0	0	504	624	
13	0	0	0	0	504	623	
14	0	0	0	0	504	622	
15	0	0	0	0	503	624	
0	0	0	0	0	502	624	
1	0	0	0	0	500	624	
2	0	0	0	0	499	626	
3	0	0	0	0	499	624	
4	0	0	0	0	498	624	
5	0	0	0	0	497	625	
6	0	0	0	0	496	622	
7	0	0	0	0	495	624	
8	0	0	0	0	495	624	
9	0	0	0	0	494	624	
10	0	0	0	0	493	625	
11	0	0	0	0	492	624	
12	0	0	0	0	492	624	
13	0	0	0	0	492	623	
14	0	0	0	0	492	622	
15	0	0	0	0	491	624	
0	0	0	0	0	491	624	
1	0	0	0	0	489	623	
2	0	0	0	0	488	625	
3	0	0	0	0	487	624	
4	0	0	0	0	487	623	
5	0	0	0	0	487	624	
6	0	0	0	0	487	622	
7	0	0	0	0	486	624	
8	0	0	0	0	485	624	
9	0	0	0	0	484	623	
10	0	0	0	0	484	625	
11	0	0	0	0	484	624	
12	0	0	0	0	484	624	
13	0	0	0	0	483	624	
14	0	0	0	0	483	622	
15	0	0	0	0	482	624	
0	0	0	0	0	482	624	
1	0	0	0	0	482	625	
2	0	0	0	0	482	626	
3	0	0	0	0	481	625	
4	0	0	0	0	481	625	
5	0	0	0	0	481	624	
6	0	0	0	0	481	623	
7	0	0	0	0	481	625	
8	0	0	0	0	482	625	
9	0	0	0	0	483	625	
10	0	0	0	0	482	627	
11	0	0	0	0	482	625	
12	0	0	0	0	483	625	
13	0	0	0	0	482	624	
14	0	0	0	0	481	623	
15	0	0	0	0	480	625	
0	0	0	0	0	480	624	
1	0	0	0	0	479	624	
2	0	0	0	0	479	626	
3	0	0	0	0	478	624	
4	0	0	0	0	478	624	
5	0	0	0	0	477	624	
6	0	0	0	0	478	622	
7	0	0	0	0	477	624	
8	0	0	0	0	479	624	
9	0	0	0	0	480	625	
10	0	0	0	0	481	626	
11	0	0	0	0	481	625	
12	0	0	0	0	481	625	
13	0	0	0	0	482	625	
14	0	0	0	0	483	623	
15	0	0	0	0	483	624	
0	0	0	0	0	483	625	
1	0	0	0	0	484	625	
2	0	0	0	0	484	627	
3	0	0	0	0	484	625	
4	0	0	0	0	484	625	
5	0	0	0	0	484	625	
6	0	0	0	0	483	623	
7	0	0	0	0	484	624	
8	0	0	0	0	484	624	
9	0	0	0	0	483	624	
10	0	0	0	0	484	626	
11	0	0	0	0	484	625	
12	0	0	0	0	484	624	
13	0	0	0	0	484	625	
14	0	0	0	0	484	623	
15	0	0	0	0	485	624	
0	0	0	0	0	484	625	
1	0	0	0	0	484	624	
2	0	0	0	0	484	626	
3	0	0	0	0	484	625	
4	0	0	0	0	483	625	
5	0	0	0	0	484	624	
6	0	0	0	0	483	622	
7	0	0	0	0	483	624	
8	0	0	0	0	483	624	
9	0	0	0	0	483	624	
10	0	0	0	0	483	626	
11	0	0	0	0	482	624	
12	0	0	0	0	482	624	
13	0	0	0	0	483	624	
14	0	0	0	0	483	621	
15	0	0	0	0	484	624	
0	0	0	0	0	484	623	
1	0	0	0	0	484	623	
2	0	0	0	0	485	624	
3	0	0	0	0	485	622	
4	0	0	0	0	484	622	
5	0	0	0	0	485	622	
6	0	0	0	0	486	620	
7	0	0	0	0	486	622	
8	0	0	0	0	487	621	
9	0	0	0	0	486	621	
10	0	0	0	0	486	622	
11	0	0	0	0	485	620	
12	0	0	0	0	485	621	
13	0	0	0	0	484	620	
14	0	0	0	0	484	619	
15	0	0	0	0	483	621	
0	0	0	0	0	483	620	
1	0	0	0	0	484	621	
2	0	0	0	0	485	623	
3	0	0	0	0	486	621	
4	0	0	0	0	485	621	
5	0	0	0	0	485	621	
6	0	0	0	0	486	619	
7	0	0	0	0	486	621	
8	0	0	0	0	487	621	
9	0	0	0	0	487	621	
10	0	0	0	0	487	623	
11	0	0	0	0	488	620	
12	0	0	0	0	488	621	
13	0	0	0	0	488	621	
14	0	0	0	0	488	619	
15	0	0	0	0	489	621	
0	0	0	0	0	489	622	
1	0	0	0	0	489	621	
2	0	0	0	0	488	623	
3	0	0	0	0	488	621	
4	0	0	0	0	488	621	
5	0	0	0	0	487	620	
6	0	0	0	0	487	619	
7	0	0	0	0	486	621	
8	0	0	0	0	486	621	
9	0	0	0	0	487	620	
10	0	0	0	0	488	622	
11	0	0	0	0	487	620	
12	0	0	0	0	487	621	
13	0	0	0	0	486	620	
14	0	0	0	0	486	619	
15	0	0	0	0	486	621	
0	0	0	0	0	485	620	
1	0	0	0	0	485	620	
2	0	0	0	0	486	622	
3	0	0	0	0	487	620	
4	0	0	0	0	488	620	
5	0	0	0	0	489	620	
6	0	0	0	0	488	619	
7	0	0	0	0	489	621	
8	0	0	0	0	489	621	
9	0	0	0	0	489	620	
10	0	0	0	0	489	622	
11	0	0	0	0	489	619	
12	0	0	0	0	489	619	
13	0	0	0	0	491	619	
14	0	0	0	0	491	617	
15	0	0	0	0	491	619	
0	0	0	0	0	492	619	
1	0	0	0	0	493	619	
2	0	0	0	0	494	620	
3	0	0	0	0	493	619	
4	0	0	0	0	493	619	
5	0	0	0	0	494	619	
6	0	0	0	0	495	617	
7	0	0	0	0	495	619	
8	0	0	0	0	495	619	
9	0	0	0	0	495	619	
10	0	0	0	0	495	621	
11	0	0	0	0	495	620	
12	0	0	0	0	496	619	
13	0	0	0	0	495	620	
14	0	0	0	0	496	618	
15	0	0	0	0	496	620	
0	0	0	0	0	496	620	
1	0	0	0	0	496	621	
2	0	0	0	0	496	622	
3	0	0	0	0	496	620	
4	0	0	0	0	497	621	
5	0	0	0	0	498	620	
6	0	0	0	0	499	619	
7	0	0	0	0	499	620	
8	0	0	0	0	500	620	
9	0	0	0	0	500	620	
10	0	0	0	0	501	622	
11	0	0	0	0	502	621	
12	0	0	0	0	502	621	
13	0	0	0	0	502	621	
14	0	0	0	0	503	619	
15	0	0	0	0	504	620	
0	0	0	0	0	505	621	
1	0	0	0	0	505	621	
2	0	0	0	0	504	623	
3	0	0	0	0	505	621	
4	0	0	0	0	505	620	
5	0	0	0	0	505	621	
6	0	0	0	0	506	619	
7	0	0	0	0	507	621	
8	0	0	0	0	507	621	
9	0	0	0	0	507	622	
10	0	0	0	0	508	623	
11	0	0	0	0	508	622	
12	0	0	0	0	508	623	
13	0	0	0	0	508	623	
14	0	0	0	0	508	622	
15	0	0	0	0	508	624	
0	0	0	0	0	509	624	
1	0	0	0	0	509	624	
2	0	0	0	0	509	626	
3	0	0	0	0	509	625	
4	0	0	0	0	509	625	
5	0	0	0	0	509	624	
6	0	0	0	0	509	623	
7	0	0	0	0	509	625	
8	0	0	0	0	510	625	
9	0	0	0	0	510	625	
10	0	0	0	0	510	626	
11	0	0	0	0	509	625	
12	0	0	0	0	510	625	
13	0	0	0	0	510	624	
14	0	0	0	0	511	623	
15	0	0	0	0	511	625	
0	0	0	0	0	511	625	
1	0	0	0	0	511	625	
2	0	0	0	0	511	627	
3	0	0	0	0	511	625	
4	0	0	0	0	511	625	
5	0	0	0	0	511	625	
6	0	0	0	0	510	623	
7	0	0	0	0	510	624	
8	0	0	0	0	510	625	
9	0	0	0	0	511	625	
10	0	0	0	0	511	626	
11	0	0	0	0	512	625	
12	0	0	0	0	511	625	
13	0	0	0	0	511	625	
14	0	0	0	0	511	624	
15	0	0	0	0	512	625	
0	0	0	0	0	512	624	
1	0	0	0	0	512	625	
2	0	0	0	0	513	627	
3	0	0	0	0	513	625	
4	0	0	0	0	513	626	
5	0	0	0	0	514	625	
6	0	0	0	0	513	623	
7	0	0	0	0	514	625	
8	0	0	0	0	513	625	
9	0	0	0	0	515	624	
10	0	0	0	0	515	627	
11	0	0	0	0	515	625	
12	0	0	0	0	515	624	
13	0	0	0	0	515	625	
14	0	0	0	0	514	623	
15	0	0	0	0	513	624	
0	0	0	0	0	513	624	
1	0	0	0	0	514	624	
2	0	0	0	0	513	625	
3	0	0	0	0	514	625	
4	0	0	0	0	513	625	
5	0	0	0	0	515	624	
6	0	0	0	0	515	622	
7	0	0	0	0	515	625	
8	0	0	0	0	515	625	
9	0	0	0	0	516	625	
10	0	0	0	0	516	627	
11	0	0	0	0	516	626	
12	0	0	0	0	515	626	
13	0	0	0	0	515	626	
14	0	0	0	0	516	624	
15	0	0	0	0	516	626	
0	0	0	0	0	515	627	
1	0	0	0	0	515	626	
2	0	0	0	0	514	628	
3	0	0	0	0	513	627	
4	0	0	0	0	513	627	
5	0	0	0	0	514	627	
6	0	0	0	0	513	625	
7	0	0	0	0	513	627	
8	0	0	0	0	513	627	
9	0	0	0	0	513	627	
10	0	0	0	0	514	629	
11	0	0	0	0	514	628	
12	0	0	0	0	516	628	
13	0	0	0	0	517	628	
14	0	0	0	0	516	626	
15	0	0	0	0	515	628	
0	0	0	0	0	515	628	
1	0	0	0	0	515	628	
2	0	0	0	0	516	630	
3	0	0	0	0	515	628	
4	0	0	0	0	515	628	
5	0	0	0	0	515	628	
6	0	0	0	0	516	627	
7	0	0	0	0	516	628	
8	0	0	0	0	516	628	
9	0	0	0	0	517	628	
10	0	0	0	0	516	630	
11	0	0	0	0	516	628	
12	0	0	0	0	516	627	
13	0	0	0	0	517	627	
14	0	0	0	0	518	625	
15	0	0	0	0	518	627	
0	0	0	0	0	518	627	
1	0	0	0	0	517	627	
2	0	0	0	0	516	628	
3	0	0	0	0	517	627	
4	0	0	0	0	518	626	
5	0	0	0	0	518	626	
6	0	0	0	0	518	624	
7	0	0	0	0	519	625	
8	0	0	0	0	519	626	
9	0	0	0	0	518	626	
10	0	0	0	0	517	627	
11	0	0	0	0	517	625	
12	0	0	0	0	517	625	
13	0	0	0	0	517	625	
14	0	0	0	0	517	623	
15	0	0	0	0	518	626	
0	0	0	0	0	519	625	
1	0	0	0	0	518	626	
2	0	0	0	0	519	627	
3	0	0	0	0	519	625	
4	0	0	0	0	520	625	
5	0	0	0	0	520	625	
6	0	0	0	0	520	623	
7	0	0	0	0	520	625	
8	0	0	0	0	520	625	
9	0	0	0	0	520	625	
10	0	0	0	0	519	627	
11	0	0	0	0	519	625	
12	0	0	0	0	519	625	
13	0	0	0	0	520	625	
14	0	0	0	0	520	624	
15	0	0	0	0	520	625	
0	0	0	0	0	521	625	
1	0	0	0	0	522	625	
2	0	0	0	0	522	627	
3	0	0	0	0	522	624	
4	0	0	0	0	522	624	
5	0	0	0	0	522	624	
6	0	0	0	0	523	622	
7	0	0	0	0	523	623	
8	0	0	0	0	524	624	
9	0	0	0	0	524	623	
10	0	0	0	0	524	625	
11	0	0	0	0	523	624	
12	0	0	0	0	523	623	
13	0	0	0	0	523	623	
14	0	0	0	0	523	622	
15	0	0	0	0	524	624	
0	0	0	0	0	525	624	
1	0	0	0	0	524	623	
2	0	0	0	0	524	625	
3	0	0	0	0	523	623	
4	0	0	0	0	522	624	
5	0	0	0	0	521	624	
6	0	0	0	0	521	623	
7	0	0	0	0	520	624	
8	0	0	0	0	521	624	
9	0	0	0	0	521	624	
10	0	0	0	0	522	626	
11	0	0	0	0	523	624	
12	0	0	0	0	524	625	
13	0	0	0	0	524	624	
14	0	0	0	0	523	622	
15	0	0	0	0	523	624	
0	0	0	0	0	522	623	
1	0	0	0	0	522	623	
2	0	0	0	0	522	624	
3	0	0	0	0	522	623	
4	0	0	0	0	522	623	
5	0	0	0	0	523	623	
6	0	0	0	0	523	620	
7	0	0	0	0	523	623	
8	0	0	0	0	523	622	
9	0	0	0	0	524	622	
10	0	0	0	0	524	624	
11	0	0	0	0	524	623	
12	0	0	0	0	525	624	
13	0	0	0	0	525	624	
14	0	0	0	0	526	622	
15	0	0	0	0	524	624	
0	0	0	0	0	522	624	
1	0	0	0	0	521	624	
2	0	0	0	0	521	626	
3	0	0	0	0	520	625	
4	0	0	0	0	519	624	
5	0	0	0	0	519	623	
6	0	0	0	0	519	622	
7	0	0	0	0	520	624	
8	0	0	0	0	520	624	
9	0	0	0	0	520	624	
10	0	0	0	0	520	625	
11	0	0	0	0	520	624	
12	0	0	0	0	520	624	
13	0	0	0	0	520	623	
14	0	0	0	0	519	622	
15	0	0	0	0	519	623	
0	0	0	0	0	519	623	
1	0	0	0	0	518	623	
2	0	0	0	0	517	624	
3	0	0	0	0	517	623	
4	0	0	0	0	517	623	
5	0	0	0	0	517	622	
6	0	0	0	0	516	620	
7	0	0	0	0	515	622	
8	0	0	0	0	515	622	
9	0	0	0	0	515	622	
10	0	0	0	0	514	624	
11	0	0	0	0	515	622	
12	0	0	0	0	515	622	
13	0	0	0	0	515	622	
14	0	0	0	0	515	621	
15	0	0	0	0	515	622	
0	0	0	0	0	515	622	
1	0	0	0	0	515	623	
2	0	0	0	0	515	624	
3	0	0	0	0	516	622	
4	0	0	0	0	516	622	
5	0	0	0	0	517	623	
6	0	0	0	0	518	621	
7	0	0	0	0	519	623	
8	0	0	0	0	519	623	
9	0	0	0	0	519	623	
10	0	0	0	0	519	624	
11	0	0	0	0	519	623	
12	0	0	0	0	519	623	
13	0	0	0	0	519	623	
14	0	0	0	0	519	621	
15	0	0	0	0	519	623	
0	0	0	0	0	520	623	
1	0	0	0	0	519	623	
2	0	0	0	0	520	624	
3	0	0	0	0	521	623	
4	0	0	0	0	523	622	
5	0	0	0	0	523	623	
6	0	0	0	0	523	621	
7	0	0	0	0	523	622	
8	0	0	0	0	523	622	
9	0	0	0	0	522	622	
10	0	0	0	0	522	624	
11	0	0	0	0	521	622	
12	0	0	0	0	521	622	
13	0	0	0	0	521	622	
14	0	0	0	0	520	621	
15	0	0	0	0	520	623	
0	0	0	0	0	519	623	
1	0	0	0	0	518	622	
2	0	0	0	0	518	624	
3	0	0	0	0	516	622	
4	0	0	0	0	516	623	
5	0	0	0	0	516	622	
6	0	0	0	0	517	621	
7	0	0	0	0	516	622	
8	0	0	0	0	515	623	
9	0	0	0	0	515	623	
10	0	0	0	0	513	624	
11	0	0	0	0	513	623	
12	0	0	0	0	513	623	
13	0	0	0	0	514	623	
14	0	0	0	0	515	622	
15	0	0	0	0	515	624	
0	0	0	0	0	515	623	
1	0	0	0	0	515	623	
2	0	0	0	0	515	625	
3	0	0	0	0	515	623	
4	0	0	0	0	514	624	
5	0	0	0	0	515	623	
6	0	0	0	0	516	622	
7	0	0	0	0	515	624	
8	0	0	0	0	516	624	
9	0	0	0	0	515	624	
10	0	0	0	0	513	626	
11	0	0	0	0	512	624	
12	0	0	0	0	511	624	
13	0	0	0	0	510	624	
14	0	0	0	0	508	623	
15	0	0	0	0	508	624	
0	0	0	0	0	508	624	
1	0	0	0	0	508	624	
2	0	0	0	0	507	626	
3	0	0	0	0	506	623	
4	0	0	0	0	506	624	
5	0	0	0	0	506	624	
6	0	0	0	0	508	623	
7	0	0	0	0	509	624	
8	0	0	0	0	508	624	
9	0	0	0	0	508	624	
10	0	0	0	0	508	625	
11	0	0	0	0	508	624	
12	0	0	0	0	508	624	
13	0	0	0	0	509	624	
14	0	0	0	0	509	622	
15	0	0	0	0	508	624	
0	0	0	0	0	507	624	
1	0	0	0	0	507	625	
2	0	0	0	0	507	626	
3	0	0	0	0	508	624	
4	0	0	0	0	507	624	
5	0	0	0	0	507	624	
6	0	0	0	0	507	623	
7	0	0	0	0	507	624	
8	0	0	0	0	506	624	
9	0	0	0	0	505	624	
10	0	0	0	0	505	625	
11	0	0	0	0	504	625	
12	0	0	0	0	504	624	
13	0	0	0	0	504	624	
14	0	0	0	0	504	622	
15	0	0	0	0	502	624	
0	0	0	0	0	503	624	
1	0	0	0	0	502	624	
2	0	0	0	0	502	626	
3	0	0	0	0	502	625	
4	0	0	0	0	501	624	
5	0	0	0	0	501	624	
6	0	0	0	0	501	623	
7	0	0	0	0	501	624	
8	0	0	0	0	502	625	
9	0	0	0	0	502	624	
10	0	0	0	0	502	627	
11	0	0	0	0	502	625	
12	0	0	0	0	502	624	
13	0	0	0	0	503	624	
14	0	0	0	0	502	623	
15	0	0	0	0	502	624	
0	0	0	0	0	502	624	
1	0	0	0	0	502	624	
2	0	0	0	0	502	627	
3	0	0	0	0	502	625	
4	0	0	0	0	503	625	
5	0	0	0	0	502	625	
6	0	0	0	0	502	623	
7	0	0	0	0	502	626	
8	0	0	0	0	502	625	
9	0	0	0	0	502	625	
10	0	0	0	0	502	627	
11	0	0	0	0	503	625	
12	0	0	0	0	503	625	
13	0	0	0	0	502	625	
14	0	0	0	0	503	623	
15	0	0	0	0	502	625	
0	0	0	0	0	503	625	
1	0	0	0	0	502	624	
2	0	0	0	0	501	626	
3	0	0	0	0	501	625	
4	0	0	0	0	500	625	
5	0	0	0	0	499	625	
6	0	0	0	0	498	623	
7	0	0	0	0	497	625	
8	0	0	0	0	496	625	
9	0	0	0	0	495	625	
10	0	0	0	0	492	626	
11	0	0	0	0	490	625	
12	0	0	0	0	489	625	
13	0	0	0	0	489	625	
14	0	0	0	0	488	623	
15	0	0	0	0	487	624	
0	0	0	0	0	486	624	
1	0	0	0	0	483	624	
2	0	0	0	0	479	626	
3	0	0	0	0	474	624	
4	0	0	0	0	470	624	
5	0	0	0	0	467	625	
6	0	0	0	0	465	623	
7	0	0	0	0	465	624	
8	0	0	0	0	466	624	
9	0	0	0	0	468	625	
10	0	0	0	0	472	626	
11	0	0	0	0	479	625	
12	0	0	0	0	489	625	
13	0	0	0	0	503	624	
14	0	0	0	0	521	623	
15	0	0	0	0	541	625	
0	0	0	0	0	564	625	
1	0	0	0	0	588	625	
2	0	0	0	0	610	627	
3	0	0	0	0	634	625	
4	0	0	0	0	659	625	
5	0	0	0	0	683	624	
6	0	0	0	0	707	623	
7	0	0	0	0	729	624	
8	0	0	0	0	751	624	
9	0	0	0	0	770	625	
10	0	0	0	0	785	626	
11	0	0	0	0	798	624	
12	0	0	0	0	805	624	
13	0	0	0	0	808	624	
14	0	0	0	0	807	622	
15	0	0	0	0	801	624	
0	0	0	0	0	792	623	
1	0	0	0	0	776	623	
2	0	0	0	0	756	624	
3	0	0	0	0	733	623	
4	0	0	0	0	707	622	
5	0	0	0	0	683	622	
6	0	0	0	0	663	620	
7	0	0	0	0	646	622	
8	0	0	0	0	632	622	
9	0	0	0	0	622	621	
10	0	0	0	0	611	623	
11	0	0	0	0	601	621	
12	0	0	0	0	591	621	
13	0	0	0	0	581	621	
14	0	0	0	0	572	620	
15	0	0	0	0	562	621	
0	0	0	0	0	552	621	
1	0	0	0	0	544	621	
2	0	0	0	0	536	623	
3	0	0	0	0	529	621	
4	0	0	0	0	522	622	
5	0	0	0	0	515	621	
6	0	0	0	0	508	620	
7	0	0	0	0	503	622	
8	0	0	0	0	499	622	
9	0	0	0	0	496	623	
10	0	0	0	0	493	624	
11	0	0	0	0	489	622	
12	0	0	0	0	487	623	
13	0	0	0	0	484	623	
14	0	0	0	0	482	622	
15	0	0	0	0	481	624	
0	0	0	0	0	479	624	
1	0	0	0	0	477	623	
2	0	0	0	0	476	625	
3	0	0	0	0	475	624	
4	0	0	0	0	475	624	
5	0	0	0	0	475	624	
6	0	0	0	0	475	622	
7	0	0	0	0	475	624	
8	0	0	0	0	476	624	
9	0	0	0	0	476	624	
10	0	0	0	0	476	626	
11	0	0	0	0	476	624	
12	0	0	0	0	475	624	
13	0	0	0	0	474	624	
14	0	0	0	0	474	621	
15	0	0	0	0	473	623	
0	0	0	0	0	473	624	
1	0	0	0	0	473	623	
2	0	0	0	0	474	626	
3	0	0	0	0	474	624	
4	0	0	0	0	474	624	
5	0	0	0	0	475	624	
6	0	0	0	0	475	622	
7	0	0	0	0	475	624	
8	0	0	0	0	475	624	
9	0	0	0	0	475	624	
10	0	0	0	0	476	625	
11	0	0	0	0	476	623	
12	0	0	0	0	476	624	
13	0	0	0	0	476	624	
14	0	0	0	0	476	621	
15	0	0	0	0	477	623	
0	0	0	0	0	477	623	
1	0	0	0	0	478	623	
2	0	0	0	0	478	625	
3	0	0	0	0	480	623	
4	0	0	0	0	481	623	
5	0	0	0	0	482	624	
6	0	0	0	0	483	622	
7	0	0	0	0	484	623	
8	0	0	0	0	484	623	
9	0	0	0	0	484	623	
10	0	0	0	0	484	625	
11	0	0	0	0	485	624	
12	0	0	0	0	486	623	
13	0	0	0	0	487	623	
14	0	0	0	0	487	622	
15	0	0	0	0	487	623	
0	0	0	0	0	488	624	
1	0	0	0	0	488	623	
2	0	0	0	0	488	624	
3	0	0	0	0	488	623	
4	0	0	0	0	489	623	
5	0	0	0	0	489	624	
6	0	0	0	0	489	622	
7	0	0	0	0	489	624	
8	0	0	0	0	490	624	
9	0	0	0	0	492	624	
10	0	0	0	0	492	626	
11	0	0	0	0	493	625	
12	0	0	0	0	494	625	
13	0	0	0	0	494	625	
14	0	0	0	0	494	623	
15	0	0	0	0	494	625	
0	0	0	0	0	494	625	
1	0	0	0	0	494	625	
2	0	0	0	0	494	627	
3	0	0	0	0	494	625	
4	0	0	0	0	494	626	
5	0	0	0	0	494	625	
6	0	0	0	0	492	624	
7	0	0	0	0	491	625	
8	0	0	0	0	491	625	
9	0	0	0	0	491	625	
10	0	0	0	0	491	627	
11	0	0	0	0	492	626	
12	0	0	0	0	492	625	
13	0	0	0	0	492	626	
14	0	0	0	0	493	624	
15	0	0	0	0	493	626	
0	0	0	0	0	492	625	
1	0	0	0	0	492	626	
2	0	0	0	0	492	627	
3	0	0	0	0	492	627	
4	0	0	0	0	492	626	
5	0	0	0	0	492	626	
6	0	0	0	0	490	624	
7	0	0	0	0	490	626	
8	0	0	0	0	490	627	
9	0	0	0	0	489	626	
10	0	0	0	0	489	628	
11	0	0	0	0	489	626	
12	0	0	0	0	488	626	
13	0	0	0	0	488	627	
14	0	0	0	0	488	625	
15	0	0	0	0	489	626	
0	0	0	0	0	489	626	
1	0	0	0	0	489	627	
2	0	0	0	0	489	628	
3	0	0	0	0	488	627	
4	0	0	0	0	489	626	
5	0	0	0	0	489	626	
6	0	0	0	0	488	624	
7	0	0	0	0	488	626	
8	0	0	0	0	487	626	
9	0	0	0	0	487	626	
10	0	0	0	0	486	627	
11	0	0	0	0	484	625	
12	0	0	0	0	484	624	
13	0	0	0	0	484	625	
14	0	0	0	0	484	623	
15	0	0	0	0	484	625	
0	0	0	0	0	483	625	
1	0	0	0	0	483	624	
2	0	0	0	0	483	626	
3	0	0	0	0	483	625	
4	0	0	0	0	482	624	
5	0	0	0	0	481	625	
6	0	0	0	0	481	624	
7	0	0	0	0	481	625	
8	0	0	0	0	481	625	
9	0	0	0	0	480	625	
10	0	0	0	0	480	627	
11	0	0	0	0	480	625	
12	0	0	0	0	479	625	
13	0	0	0	0	480	626	
14	0	0	0	0	480	624	
15	0	0	0	0	479	626	
0	0	0	0	0	479	627	
1	0	0	0	0	478	626	
2	0	0	0	0	478	627	
3	0	0	0	0	478	626	
4	0	0	0	0	478	626	
5	0	0	0	0	478	626	
6	0	0	0	0	478	624	
7	0	0	0	0	478	626	
8	0	0	0	0	478	626	
9	0	0	0	0	477	626	
10	0	0	0	0	477	628	
11	0	0	0	0	476	626	
12	0	0	0	0	476	625	
13	0	0	0	0	477	625	
14	0	0	0	0	477	624	
15	0	0	0	0	477	626	
0	0	0	0	0	477	626	
1	0	0	0	0	477	626	
2	0	0	0	0	477	627	
3	0	0	0	0	477	625	
4	0	0	0	0	476	626	
5	0	0	0	0	476	626	
6	0	0	0	0	477	624	
7	0	0	0	0	477	626	
8	0	0	0	0	476	625	
9	0	0	0	0	476	626	
10	0	0	0	0	477	628	
11	0	0	0	0	477	626	
12	0	0	0	0	478	625	
13	0	0	0	0	479	626	
14	0	0	0	0	479	624	
15	0	0	0	0	479	626	
0	0	0	0	0	480	625	
1	0	0	0	0	480	625	
2	0	0	0	0	480	627	
3	0	0	0	0	481	625	
4	0	0	0	0	481	625	
5	0	0	0	0	481	626	
6	0	0	0	0	482	624	
7	0	0	0	0	482	624	
8	0	0	0	0	482	625	
9	0	0	0	0	483	625	
10	0	0	0	0	483	627	
11	0	0	0	0	485	625	
12	0	0	0	0	485	625	
13	0	0	0	0	486	625	
14	0	0	0	0	487	623	
15	0	0	0	0	487	624	
0	0	0	0	0	489	624	
1	0	0	0	0	489	624	
2	0	0	0	0	489	625	
3	0	0	0	0	489	623	
4	0	0	0	0	490	624	
5	0	0	0	0	491	623	
6	0	0	0	0	492	621	
7	0	0	0	0	492	623	
8	0	0	0	0	492	623	
9	0	0	0	0	492	623	
10	0	0	0	0	493	624	
11	0	0	0	0	494	622	
12	0	0	0	0	495	622	
13	0	0	0	0	495	622	
14	0	0	0	0	494	620	
15	0	0	0	0	494	622	
0	0	0	0	0	494	621	
1	0	0	0	0	496	622	
2	0	0	0	0	496	623	
3	0	0	0	0	496	622	
4	0	0	0	0	497	622	
5	0	0	0	0	497	622	
6	0	0	0	0	499	620	
7	0	0	0	0	499	621	
8	0	0	0	0	499	622	
9	0	0	0	0	500	621	
10	0	0	0	0	501	623	
11	0	0	0	0	501	622	
12	0	0	0	0	500	621	
13	0	0	0	0	500	621	
14	0	0	0	0	500	619	
15	0	0	0	0	502	622	
0	0	0	0	0	502	622	
1	0	0	0	0	502	621	
2	0	0	0	0	502	623	
3	0	0	0	0	502	621	
4	0	0	0	0	502	621	
5	0	0	0	0	503	621	
6	0	0	0	0	504	620	
7	0	0	0	0	504	621	
8	0	0	0	0	505	621	
9	0	0	0	0	505	620	
10	0	0	0	0	506	622	
11	0	0	0	0	506	620	
12	0	0	0	0	506	620	
13	0	0	0	0	507	621	
14	0	0	0	0	507	619	
15	0	0	0	0	508	621	
0	0	0	0	0	508	620	
1	0	0	0	0	508	620	
2	0	0	0	0	508	622	
3	0	0	0	0	508	620	
4	0	0	0	0	509	620	
5	0	0	0	0	509	620	
6	0	0	0	0	509	619	
7	0	0	0	0	509	620	
8	0	0	0	0	510	620	
9	0	0	0	0	510	620	
10	0	0	0	0	510	623	
11	0	0	0	0	510	620	
12	0	0	0	0	510	621	
13	0	0	0	0	510	620	
14	0	0	0	0	511	620	
15	0	0	0	0	512	622	
0	0	0	0	0	512	622	
1	0	0	0	0	512	621	
2	0	0	0	0	512	623	
3	0	0	0	0	512	622	
4	0	0	0	0	512	622	
5	0	0	0	0	513	623	
6	0	0	0	0	513	620	
7	0	0	0	0	512	622	
8	0	0	0	0	512	623	
9	0	0	0	0	512	622	
10	0	0	0	0	512	624	
11	0	0	0	0	511	623	
12	0	0	0	0	510	622	
13	0	0	0	0	510	623	
14	0	0	0	0	510	621	
15	0	0	0	0	510	623	
0	0	0	0	0	510	623	
1	0	0	0	0	510	624	
2	0	0	0	0	510	625	
3	0	0	0	0	510	624	
4	0	0	0	0	509	623	
5	0	0	0	0	508	624	
6	0	0	0	0	507	623	
7	0	0	0	0	506	624	
8	0	0	0	0	505	624	
9	0	0	0	0	504	624	
10	0	0	0	0	502	625	
11	0	0	0	0	502	624	
12	0	0	0	0	501	624	
13	0	0	0	0	500	624	
14	0	0	0	0	499	622	
15	0	0	0	0	499	624	
0	0	0	0	0	499	624	
1	0	0	0	0	499	624	
2	0	0	0	0	498	626	
3	0	0	0	0	497	625	
4	0	0	0	0	496	625	
5	0	0	0	0	495	625	
6	0	0	0	0	495	624	
7	0	0	0	0	494	625	
8	0	0	0	0	494	625	
9	0	0	0	0	494	625	
10	0	0	0	0	493	627	
11	0	0	0	0	492	625	
12	0	0	0	0	492	625	
13	0	0	0	0	492	625	
14	0	0	0	0	491	624	
15	0	0	0	0	489	625	
0	0	0	0	0	489	625	
1	0	0	0	0	488	626	
2	0	0	0	0	488	627	
3	0	0	0	0	488	624	
4	0	0	0	0	488	624	
5	0	0	0	0	488	625	
6	0	0	0	0	487	623	
7	0	0	0	0	487	625	
8	0	0	0	0	486	625	
9	0	0	0	0	487	624	
10	0	0	0	0	487	627	
11	0	0	0	0	487	625	
12	0	0	0	0	487	624	
13	0	0	0	0	488	625	
14	0	0	0	0	488	623	
15	0	0	0	0	489	624	
0	0	0	0	0	490	624	
1	0	0	0	0	491	624	
2	0	0	0	0	491	626	
3	0	0	0	0	490	624	
4	0	0	0	0	491	625	
5	0	0	0	0	491	624	
6	0	0	0	0	491	623	
7	0	0	0	0	489	624	
8	0	0	0	0	489	624	
9	0	0	0	0	490	624	
10	0	0	0	0	491	626	
11	0	0	0	0	491	624	
12	0	0	0	0	491	624	
13	0	0	0	0	491	624	
14	0	0	0	0	492	622	
15	0	0	0	0	492	624	
0	0	0	0	0	493	624	
1	0	0	0	0	494	624	
2	0	0	0	0	495	626	
3	0	0	0	0	495	624	
4	0	0	0	0	496	624	
5	0	0	0	0	497	625	
6	0	0	0	0	498	623	
7	0	0	0	0	498	624	
8	0	0	0	0	499	625	
9	0	0	0	0	500	625	
10	0	0	0	0	501	627	
11	0	0	0	0	502	625	
12	0	0	0	0	503	625	
13	0	0	0	0	503	625	
14	0	0	0	0	505	624	
15	0	0	0	0	506	625	
0	0	0	0	0	508	626	
1	0	0	0	0	509	626	
2	0	0	0	0	511	628	
3	0	0	0	0	512	626	
4	0	0	0	0	513	627	
5	0	0	0	0	513	627	
6	0	0	0	0	514	625	
7	0	0	0	0	515	627	
8	0	0	0	0	515	627	
9	0	0	0	0	514	627	
10	0	0	0	0	515	629	
11	0	0	0	0	515	627	
12	0	0	0	0	516	627	
13	0	0	0	0	517	628	
14	0	0	0	0	518	626	
15	0	0	0	0	518	627	
0	0	0	0	0	518	627	
1	0	0	0	0	519	628	
2	0	0	0	0	519	629	
3	0	0	0	0	520	627	
4	0	0	0	0	520	627	
5	0	0	0	0	520	627	
6	0	0	0	0	520	625	
7	0	0	0	0	520	627	
8	0	0	0	0	520	627	
9	0	0	0	0	520	627	
10	0	0	0	0	519	629	
11	0	0	0	0	519	627	
12	0	0	0	0	519	628	
13	0	0	0	0	519	627	
14	0	0	0	0	519	625	
15	0	0	0	0	518	627	
0	0	0	0	0	519	627	
1	0	0	0	0	518	627	
2	0	0	0	0	518	628	
3	0	0	0	0	517	626	
4	0	0	0	0	516	627	
5	0	0	0	0	516	627	
6	0	0	0	0	515	625	
7	0	0	0	0	515	627	
8	0	0	0	0	515	626	
9	0	0	0	0	514	626	
10	0	0	0	0	513	628	
11	0	0	0	0	514	626	
12	0	0	0	0	514	626	
13	0	0	0	0	513	626	
14	0	0	0	0	512	623	
15	0	0	0	0	512	626	
0	0	0	0	0	512	625	
1	0	0	0	0	511	625	
2	0	0	0	0	511	627	
3	0	0	0	0	510	624	
4	0	0	0	0	510	624	
5	0	0	0	0	509	624	
6	0	0	0	0	508	622	
7	0	0	0	0	507	624	
8	0	0	0	0	507	623	
9	0	0	0	0	507	623	
10	0	0	0	0	506	625	
11	0	0	0	0	506	623	
12	0	0	0	0	505	623	
13	0	0	0	0	505	623	
14	0	0	0	0	506	620	
15	0	0	0	0	505	622	
0	0	0	0	0	505	622	
1	0	0	0	0	505	621	
2	0	0	0	0	504	623	
3	0	0	0	0	504	622	
4	0	0	0	0	503	621	
5	0	0	0	0	502	621	
6	0	0	0	0	502	619	
7	0	0	0	0	501	621	
8	0	0	0	0	500	621	
9	0	0	0	0	500	621	
10	0	0	0	0	500	623	
11	0	0	0	0	500	620	
12	0	0	0	0	499	620	
13	0	0	0	0	499	620	
14	0	0	0	0	499	619	
15	0	0	0	0	499	621	
0	0	0	0	0	499	620	
1	0	0	0	0	498	620	
2	0	0	0	0	498	622	
3	0	0	0	0	497	621	
4	0	0	0	0	497	621	
5	0	0	0	0	496	621	
6	0	0	0	0	495	619	
7	0	0	0	0	494	620	
8	0	0	0	0	493	620	
9	0	0	0	0	492	620	
10	0	0	0	0	490	622	
11	0	0	0	0	489	620	
12	0	0	0	0	487	620	
13	0	0	0	0	487	620	
14	0	0	0	0	486	618	
15	0	0	0	0	486	620	
0	0	0	0	0	486	620	
1	0	0	0	0	485	620	
2	0	0	0	0	484	622	
3	0	0	0	0	484	620	
4	0	0	0	0	483	620	
5	0	0	0	0	483	620	
6	0	0	0	0	484	618	
7	0	0	0	0	485	620	
8	0	0	0	0	485	620	
9	0	0	0	0	485	620	
10	0	0	0	0	486	622	
11	0	0	0	0	486	620	
12	0	0	0	0	485	620	
13	0	0	0	0	484	621	
14	0	0	0	0	483	619	
15	0	0	0	0	484	621	
0	0	0	0	0	484	620	
1	0	0	0	0	483	621	
2	0	0	0	0	484	623	
3	0	0	0	0	484	621	
4	0	0	0	0	484	621	
5	0	0	0	0	485	621	
6	0	0	0	0	485	620	
7	0	0	0	0	485	622	
8	0	0	0	0	485	621	
9	0	0	0	0	485	622	
10	0	0	0	0	485	624	
11	0	0	0	0	486	622	
12	0	0	0	0	485	622	
13	0	0	0	0	484	623	
14	0	0	0	0	484	620	
15	0	0	0	0	484	623	
0	0	0	0	0	484	623	
1	0	0	0	0	484	623	
2	0	0	0	0	484	625	
3	0	0	0	0	483	623	
4	0	0	0	0	483	623	
5	0	0	0	0	483	623	
6	0	0	0	0	482	622	
7	0	0	0	0	483	624	
8	0	0	0	0	483	624	
9	0	0	0	0	483	623	
10	0	0	0	0	484	624	
11	0	0	0	0	483	624	
12	0	0	0	0	484	623	
13	0	0	0	0	484	622	
14	0	0	0	0	484	622	
15	0	0	0	0	484	623	
0	0	0	0	0	485	623	
1	0	0	0	0	486	623	
2	0	0	0	0	486	624	
3	0	0	0	0	486	623	
4	0	0	0	0	486	623	
5	0	0	0	0	485	623	
6	0	0	0	0	484	622	
7	0	0	0	0	485	622	
8	0	0	0	0	486	623	
9	0	0	0	0	486	623	
10	0	0	0	0	486	624	
11	0	0	0	0	486	623	
12	0	0	0	0	486	623	
13	0	0	0	0	486	624	
14	0	0	0	0	485	622	
15	0	0	0	0	485	623	
0	0	0	0	0	485	624	
1	0	0	0	0	485	623	
2	0	0	0	0	486	626	
3	0	0	0	0	486	624	
4	0	0	0	0	486	624	
5	0	0	0	0	485	625	
6	0	0	0	0	486	623	
7	0	0	0	0	487	625	
8	0	0	0	0	487	625	
9	0	0	0	0	487	625	
10	0	0	0	0	488	627	
11	0	0	0	0	488	625	
12	0	0	0	0	489	624	
13	0	0	0	0	489	625	
14	0	0	0	0	489	624	
15	0	0	0	0	489	625	
0	0	0	0	0	489	625	
1	0	0	0	0	490	625	
2	0	0	0	0	489	627	
3	0	0	0	0	490	626	
4	0	0	0	0	489	626	
5	0	0	0	0	489	625	
6	0	0	0	0	489	624	
7	0	0	0	0	490	625	
8	0	0	0	0	490	626	
9	0	0	0	0	491	625	
10	0	0	0	0	491	627	
11	0	0	0	0	491	625	
12	0	0	0	0	491	625	
13	0	0	0	0	492	624	
14	0	0	0	0	492	622	
15	0	0	0	0	492	624	
0	0	0	0	0	492	624	
1	0	0	0	0	492	624	
2	0	0	0	0	492	626	
3	0	0	0	0	492	625	
4	0	0	0	0	492	624	
5	0	0	0	0	492	624	
6	0	0	0	0	492	622	
7	0	0	0	0	492	623	
8	0	0	0	0	492	623	
9	0	0	0	0	493	624	
10	0	0	0	0	492	625	
11	0	0	0	0	492	623	
12	0	0	0	0	492	623	
13	0	0	0	0	492	623	
14	0	0	0	0	492	620	
15	0	0	0	0	494	622	
0	0	0	0	0	494	621	
1	0	0	0	0	494	622	
2	0	0	0	0	494	623	
3	0	0	0	0	495	621	
4	0	0	0	0	496	622	
5	0	0	0	0	496	621	
6	0	0	0	0	496	619	
7	0	0	0	0	497	620	
8	0	0	0	0	498	620	
9	0	0	0	0	498	620	
10	0	0	0	0	499	622	
11	0	0	0	0	500	620	
12	0	0	0	0	500	620	
13	0	0	0	0	501	619	
14	0	0	0	0	502	618	
15	0	0	0	0	503	619	
0	0	0	0	0	503	620	
1	0	0	0	0	504	620	
2	0	0	0	0	505	621	
3	0	0	0	0	505	620	
4	0	0	0	0	506	620	
5	0	0	0	0	506	620	
6	0	0	0	0	507	618	
7	0	0	0	0	507	620	
8	0	0	0	0	507	620	
9	0	0	0	0	508	621	
10	0	0	0	0	508	622	
11	0	0	0	0	508	620	
12	0	0	0	0	508	620	
13	0	0	0	0	508	621	
14	0	0	0	0	508	620	
15	0	0	0	0	508	622	
0	0	0	0	0	508	622	
1	0	0	0	0	508	622	
2	0	0	0	0	508	624	
3	0	0	0	0	508	622	
4	0	0	0	0	507	623	
5	0	0	0	0	508	623	
6	0	0	0	0	508	621	
7	0	0	0	0	509	624	
8	0	0	0	0	509	624	
9	0	0	0	0	509	624	
10	0	0	0	0	510	626	
11	0	0	0	0	511	624	
12	0	0	0	0	511	625	
13	0	0	0	0	511	626	
14	0	0	0	0	512	624	
15	0	0	0	0	512	626	
0	0	0	0	0	513	626	
1	0	0	0	0	514	627	
2	0	0	0	0	514	628	
3	0	0	0	0	516	627	
4	0	0	0	0	518	627	
5	0	0	0	0	519	627	
6	0	0	0	0	520	626	
7	0	0	0	0	521	627	
8	0	0	0	0	521	628	
9	0	0	0	0	521	628	
10	0	0	0	0	521	630	
11	0	0	0	0	522	628	
12	0	0	0	0	523	629	
13	0	0	0	0	524	629	
14	0	0	0	0	524	627	
15	0	0	0	0	524	629	
0	0	0	0	0	524	628	
1	0	0	0	0	524	628	
2	0	0	0	0	523	631	
3	0	0	0	0	524	630	
4	0	0	0	0	524	629	
5	0	0	0	0	525	629	
6	0	0	0	0	526	627	
7	0	0	0	0	526	630	
8	0	0	0	0	526	630	
9	0	0	0	0	527	630	
10	0	0	0	0	528	632	
11	0	0	0	0	528	631	
12	0	0	0	0	527	631	
13	0	0	0	0	527	631	
14	0	0	0	0	526	629	
15	0	0	0	0	526	631	
0	0	0	0	0	526	631	
1	0	0	0	0	526	631	
2	0	0	0	0	525	632	
3	0	0	0	0	524	631	
4	0	0	0	0	524	631	
5	0	0	0	0	524	632	
6	0	0	0	0	523	629	
7	0	0	0	0	523	631	
8	0	0	0	0	523	630	
9	0	0	0	0	522	630	
10	0	0	0	0	521	632	
11	0	0	0	0	521	629	
12	0	0	0	0	521	630	
13	0	0	0	0	521	629	
14	0	0	0	0	520	627	
15	0	0	0	0	520	628	
0	0	0	0	0	520	628	
1	0	0	0	0	520	627	
2	0	0	0	0	519	629	
3	0	0	0	0	519	627	
4	0	0	0	0	518	626	
5	0	0	0	0	517	625	
6	0	0	0	0	517	623	
7	0	0	0	0	517	625	
8	0	0	0	0	517	624	
9	0	0	0	0	516	624	
10	0	0	0	0	516	625	
11	0	0	0	0	515	623	
12	0	0	0	0	514	623	
13	0	0	0	0	514	623	
14	0	0	0	0	513	621	
15	0	0	0	0	513	623	
0	0	0	0	0	513	623	
1	0	0	0	0	512	622	
2	0	0	0	0	512	623	
3	0	0	0	0	511	622	
4	0	0	0	0	510	622	
5	0	0	0	0	508	621	
6	0	0	0	0	507	620	
7	0	0	0	0	506	622	
8	0	0	0	0	506	622	
9	0	0	0	0	505	621	
10	0	0	0	0	504	623	
11	0	0	0	0	502	621	
12	0	0	0	0	500	622	
13	0	0	0	0	499	621	
14	0	0	0	0	498	620	
15	0	0	0	0	498	621	
0	0	0	0	0	498	622	
1	0	0	0	0	497	622	
2	0	0	0	0	496	622	
3	0	0	0	0	494	622	
4	0	0	0	0	494	621	
5	0	0	0	0	492	622	
6	0	0	0	0	492	620	
7	0	0	0	0	491	622	
8	0	0	0	0	491	622	
9	0	0	0	0	491	622	
10	0	0	0	0	491	623	
11	0	0	0	0	492	621	
12	0	0	0	0	492	621	
13	0	0	0	0	490	620	
14	0	0	0	0	489	619	
15	0	0	0	0	488	620	
0	0	0	0	0	488	620	
1	0	0	0	0	487	619	
2	0	0	0	0	487	621	
3	0	0	0	0	486	619	
4	0	0	0	0	486	618	
5	0	0	0	0	486	619	
6	0	0	0	0	485	616	
7	0	0	0	0	485	618	
8	0	0	0	0	485	617	
9	0	0	0	0	485	618	
10	0	0	0	0	486	620	
11	0	0	0	0	487	618	
12	0	0	0	0	487	617	
13	0	0	0	0	487	618	
14	0	0	0	0	486	616	
15	0	0	0	0	486	618	
0	0	0	0	0	486	618	
1	0	0	0	0	487	619	
2	0	0	0	0	487	621	
3	0	0	0	0	488	619	
4	0	0	0	0	488	620	
5	0	0	0	0	488	620	
6	0	0	0	0	488	619	
7	0	0	0	0	489	620	
8	0	0	0	0	491	621	
9	0	0	0	0	491	622	
10	0	0	0	0	491	623	
11	0	0	0	0	491	621	
12	0	0	0	0	492	622	
13	0	0	0	0	492	622	
14	0	0	0	0	492	620	
15	0	0	0	0	492	621	
0	0	0	0	0	492	622	
1	0	0	0	0	493	622	
2	0	0	0	0	493	623	
3	0	0	0	0	492	622	
4	0	0	0	0	492	622	
5	0	0	0	0	493	621	
6	0	0	0	0	494	620	
7	0	0	0	0	494	621	
8	0	0	0	0	494	621	
9	0	0	0	0	494	622	
10	0	0	0	0	494	623	
11	0	0	0	0	494	622	
12	0	0	0	0	494	622	
13	0	0	0	0	495	622	
14	0	0	0	0	495	620	
15	0	0	0	0	496	622	
0	0	0	0	0	497	623	
1	0	0	0	0	497	621	
2	0	0	0	0	496	624	
3	0	0	0	0	497	623	
4	0	0	0	0	497	623	
5	0	0	0	0	498	623	
6	0	0	0	0	497	621	
7	0	0	0	0	496	622	
8	0	0	0	0	496	622	
9	0	0	0	0	496	623	
10	0	0	0	0	495	624	
11	0	0	0	0	495	623	
12	0	0	0	0	495	624	
13	0	0	0	0	496	623	
14	0	0	0	0	496	621	
15	0	0	0	0	496	623	
0	0	0	0	0	497	623	
1	0	0	0	0	497	624	
2	0	0	0	0	496	625	
3	0	0	0	0	496	623	
4	0	0	0	0	496	623	
5	0	0	0	0	496	623	
6	0	0	0	0	496	621	
7	0	0	0	0	497	623	
8	0	0	0	0	497	624	
9	0	0	0	0	498	624	
10	0	0	0	0	499	625	
11	0	0	0	0	499	624	
12	0	0	0	0	499	624	
13	0	0	0	0	500	623	
14	0	0	0	0	501	621	
15	0	0	0	0	502	622	
0	0	0	0	0	502	623	
1	0	0	0	0	503	623	
2	0	0	0	0	504	625	
3	0	0	0	0	504	624	
4	0	0	0	0	506	624	
5	0	0	0	0	507	624	
6	0	0	0	0	508	622	
7	0	0	0	0	509	624	
8	0	0	0	0	510	625	
9	0	0	0	0	510	625	
10	0	0	0	0	511	627	
11	0	0	0	0	511	625	
12	0	0	0	0	512	625	
13	0	0	0	0	513	626	
14	0	0	0	0	513	624	
15	0	0	0	0	514	627	
0	0	0	0	0	515	627	
1	0	0	0	0	514	628	
2	0	0	0	0	513	630	
3	0	0	0	0	513	629	
4	0	0	0	0	512	630	
5	0	0	0	0	511	630	
6	0	0	0	0	510	628	
7	0	0	0	0	509	631	
8	0	0	0	0	507	630	
9	0	0	0	0	506	630	
10	0	0	0	0	505	632	
11	0	0	0	0	504	630	
12	0	0	0	0	504	629	
13	0	0	0	0	503	629	
14	0	0	0	0	503	626	
15	0	0	0	0	503	627	
0	0	0	0	0	502	626	
1	0	0	0	0	501	626	
2	0	0	0	0	501	627	
3	0	0	0	0	502	625	
4	0	0	0	0	503	624	
5	0	0	0	0	503	624	
6	0	0	0	0	503	623	
7	0	0	0	0	504	624	
8	0	0	0	0	505	624	
9	0	0	0	0	505	624	
10	0	0	0	0	506	626	
11	0	0	0	0	507	625	
12	0	0	0	0	508	625	
13	0	0	0	0	511	626	
14	0	0	0	0	512	624	
15	0	0	0	0	514	626	
0	0	0	0	0	515	627	
1	0	0	0	0	515	627	
2	0	0	0	0	517	630	
3	0	0	0	0	518	628	
4	0	0	0	0	519	629	
5	0	0	0	0	519	629	
6	0	0	0	0	519	628	
7	0	0	0	0	520	630	
8	0	0	0	0	521	630	
9	0	0	0	0	521	630	
10	0	0	0	0	521	632	
11	0	0	0	0	521	630	
12	0	0	0	0	521	631	
13	0	0	0	0	521	631	
14	0	0	0	0	522	629	
15	0	0	0	0	523	630	
0	0	0	0	0	524	630	
1	0	0	0	0	525	630	
2	0	0	0	0	526	631	
3	0	0	0	0	527	630	
4	0	0	0	0	527	629	
5	0	0	0	0	526	628	
6	0	0	0	0	527	627	
7	0	0	0	0	527	627	
8	0	0	0	0	527	627	
9	0	0	0	0	527	626	
10	0	0	0	0	526	627	
11	0	0	0	0	526	626	
12	0	0	0	0	525	625	
13	0	0	0	0	524	626	
14	0	0	0	0	523	624	
15	0	0	0	0	523	625	
0	0	0	0	0	523	625	
1	0	0	0	0	522	624	
2	0	0	0	0	522	626	
3	0	0	0	0	521	624	
4	0	0	0	0	521	624	
5	0	0	0	0	521	624	
6	0	0	0	0	521	622	
7	0	0	0	0	520	624	
8	0	0	0	0	520	624	
9	0	0	0	0	520	624	
10	0	0	0	0	520	625	
11	0	0	0	0	520	623	
12	0	0	0	0	520	623	
13	0	0	0	0	519	622	
14	0	0	0	0	519	620	
15	0	0	0	0	519	622	
0	0	0	0	0	518	622	
1	0	0	0	0	518	622	
2	0	0	0	0	517	623	
3	0	0	0	0	516	621	
4	0	0	0	0	517	621	
5	0	0	0	0	516	620	
6	0	0	0	0	516	618	
7	0	0	0	0	516	620	
8	0	0	0	0	516	620	
9	0	0	0	0	516	620	
10	0	0	0	0	516	621	
11	0	0	0	0	518	620	
12	0	0	0	0	519	620	
13	0	0	0	0	519	620	
14	0	0	0	0	518	619	
15	0	0	0	0	518	620	
0	0	0	0	0	517	621	
1	0	0	0	0	516	621	
2	0	0	0	0	515	622	
3	0	0	0	0	515	621	
4	0	0	0	0	514	621	
5	0	0	0	0	514	622	
6	0	0	0	0	514	620	
7	0	0	0	0	513	622	
8	0	0	0	0	513	623	
9	0	0	0	0	512	623	
10	0	0	0	0	512	624	
11	0	0	0	0	512	623	
12	0	0	0	0	512	623	
13	0	0	0	0	512	623	
14	0	0	0	0	511	622	
15	0	0	0	0	511	624	
0	0	0	0	0	510	623	
1	0	0	0	0	509	624	
2	0	0	0	0	509	625	
3	0	0	0	0	508	624	
4	0	0	0	0	506	624	
5	0	0	0	0	502	624	
6	0	0	0	0	501	623	
7	0	0	0	0	499	624	
8	0	0	0	0	497	624	
9	0	0	0	0	496	624	
10	0	0	0	0	494	626	
11	0	0	0	0	492	624	
12	0	0	0	0	489	625	
13	0	0	0	0	486	625	
14	0	0	0	0	482	623	
15	0	0	0	0	478	625	
0	0	0	0	0	475	624	
1	0	0	0	0	474	625	
2	0	0	0	0	473	626	
3	0	0	0	0	473	624	
4	0	0	0	0	474	624	
5	0	0	0	0	476	624	
6	0	0	0	0	482	622	
7	0	0	0	0	491	624	
8	0	0	0	0	503	623	
9	0	0	0	0	520	623	
10	0	0	0	0	540	624	
11	0	0	0	0	563	624	
12	0	0	0	0	585	623	
13	0	0	0	0	608	623	
14	0	0	0	0	631	621	
15	0	0	0	0	655	623	
0	0	0	0	0	680	623	
1	0	0	0	0	705	623	
2	0	0	0	0	728	625	
3	0	0	0	0	749	624	
4	0	0	0	0	769	623	
5	0	0	0	0	788	623	
6	0	0	0	0	803	621	
7	0	0	0	0	812	623	
8	0	0	0	0	817	623	
9	0	0	0	0	817	623	
10	0	0	0	0	815	625	
11	0	0	0	0	807	624	
12	0	0	0	0	797	623	
13	0	0	0	0	780	624	
14	0	0	0	0	760	622	
15	0	0	0	0	735	624	
0	0	0	0	0	709	624	
1	0	0	0	0	685	624	
2	0	0	0	0	665	625	
3	0	0	0	0	648	624	
4	0	0	0	0	635	624	
5	0	0	0	0	622	625	
6	0	0	0	0	608	622	
7	0	0	0	0	594	624	
8	0	0	0	0	579	624	
9	0	0	0	0	567	624	
10	0	0	0	0	555	626	
11	0	0	0	0	543	625	
12	0	0	0	0	532	625	
13	0	0	0	0	521	624	
14	0	0	0	0	512	623	
15	0	0	0	0	503	624	
0	0	0	0	0	495	625	
1	0	0	0	0	486	624	
2	0	0	0	0	478	626	
3	0	0	0	0	472	625	
4	0	0	0	0	466	625	
5	0	0	0	0	460	625	
6	0	0	0	0	454	622	
7	0	0	0	0	450	625	
8	0	0	0	0	446	625	
9	0	0	0	0	442	625	
10	0	0	0	0	439	627	
11	0	0	0	0	436	625	
12	0	0	0	0	434	625	
13	0	0	0	0	433	625	
14	0	0	0	0	431	623	
15	0	0	0	0	430	625	
0	0	0	0	0	428	625	
1	0	0	0	0	427	625	
2	0	0	0	0	425	626	
3	0	0	0	0	425	625	
4	0	0	0	0	425	624	
5	0	0	0	0	425	625	
6	0	0	0	0	424	623	
7	0	0	0	0	424	625	
8	0	0	0	0	424	625	
9	0	0	0	0	423	624	
10	0	0	0	0	424	626	
11	0	0	0	0	423	624	
12	0	0	0	0	424	624	
13	0	0	0	0	423	624	
14	0	0	0	0	424	622	
15	0	0	0	0	424	624	
0	0	0	0	0	424	624	
1	0	0	0	0	425	624	
2	0	0	0	0	426	626	
3	0	0	0	0	426	625	
4	0	0	0	0	427	624	
5	0	0	0	0	427	624	
6	0	0	0	0	428	622	
7	0	0	0	0	428	624	
8	0	0	0	0	429	624	
9	0	0	0	0	429	624	
10	0	0	0	0	431	626	
11	0	0	0	0	431	623	
12	0	0	0	0	431	623	
13	0	0	0	0	432	623	
14	0	0	0	0	432	621	
15	0	0	0	0	433	623	
0	0	0	0	0	434	622	
1	0	0	0	0	434	622	
2	0	0	0	0	435	624	
3	0	0	0	0	436	623	
4	0	0	0	0	438	622	
5	0	0	0	0	438	622	
6	0	0	0	0	439	620	
7	0	0	0	0	439	620	
8	0	0	0	0	440	621	
9	0	0	0	0	440	621	
10	0	0	0	0	441	623	
11	0	0	0	0	443	621	
12	0	0	0	0	443	621	
13	0	0	0	0	444	621	
14	0	0	0	0	445	618	
15	0	0	0	0	445	620	
0	0	0	0	0	446	621	
1	0	0	0	0	446	620	
2	0	0	0	0	447	623	
3	0	0	0	0	448	620	
4	0	0	0	0	448	620	
5	0	0	0	0	449	620	
6	0	0	0	0	449	619	
7	0	0	0	0	450	621	
8	0	0	0	0	451	620	
9	0	0	0	0	452	620	
10	0	0	0	0	453	622	
11	0	0	0	0	454	621	
12	0	0	0	0	454	621	
13	0	0	0	0	455	621	
14	0	0	0	0	456	619	
15	0	0	0	0	456	620	
0	0	0	0	0	457	620	
1	0	0	0	0	458	620	
2	0	0	0	0	459	622	
3	0	0	0	0	459	620	
4	0	0	0	0	459	620	
5	0	0	0	0	460	620	
6	0	0	0	0	460	619	
7	0	0	0	0	460	620	
8	0	0	0	0	461	621	
9	0	0	0	0	461	621	
10	0	0	0	0	463	623	
11	0	0	0	0	463	622	
12	0	0	0	0	464	622	
13	0	0	0	0	465	622	
14	0	0	0	0	466	620	
15	0	0	0	0	467	622	
0	0	0	0	0	467	622	
1	0	0	0	0	467	622	
2	0	0	0	0	469	623	
3	0	0	0	0	469	621	
4	0	0	0	0	469	622	
5	0	0	0	0	468	622	
6	0	0	0	0	468	620	
7	0	0	0	0	469	621	
8	0	0	0	0	468	622	
9	0	0	0	0	469	622	
10	0	0	0	0	470	624	
11	0	0	0	0	470	622	
12	0	0	0	0	471	622	
13	0	0	0	0	471	623	
14	0	0	0	0	472	621	
15	0	0	0	0	473	622	
0	0	0	0	0	473	622	
1	0	0	0	0	473	623	
2	0	0	0	0	474	624	
3	0	0	0	0	475	623	
4	0	0	0	0	476	623	
5	0	0	0	0	475	623	
6	0	0	0	0	474	621	
7	0	0	0	0	474	623	
8	0	0	0	0	475	623	
9	0	0	0	0	475	623	
10	0	0	0	0	475	624	
11	0	0	0	0	475	623	
12	0	0	0	0	475	623	
13	0	0	0	0	475	623	
14	0	0	0	0	475	622	
15	0	0	0	0	476	624	
0	0	0	0	0	476	624	
1	0	0	0	0	477	624	
2	0	0	0	0	478	625	
3	0	0	0	0	477	624	
4	0	0	0	0	477	624	
5	0	0	0	0	478	624	
6	0	0	0	0	478	623	
7	0	0	0	0	478	624	
8	0	0	0	0	479	624	
9	0	0	0	0	479	624	
10	0	0	0	0	479	626	
11	0	0	0	0	480	624	
12	0	0	0	0	480	625	
13	0	0	0	0	480	624	
14	0	0	0	0	480	623	
15	0	0	0	0	480	625	
0	0	0	0	0	480	624	
1	0	0	0	0	480	625	
2	0	0	0	0	481	627	
3	0	0	0	0	480	625	
4	0	0	0	0	481	625	
5	0	0	0	0	480	626	
6	0	0	0	0	480	624	
7	0	0	0	0	480	626	
8	0	0	0	0	480	626	
9	0	0	0	0	481	626	
10	0	0	0	0	482	627	
11	0	0	0	0	483	626	
12	0	0	0	0	483	626	
13	0	0	0	0	483	625	
14	0	0	0	0	484	624	
15	0	0	0	0	484	625	
0	0	0	0	0	484	626	
1	0	0	0	0	484	626	
2	0	0	0	0	484	628	
3	0	0	0	0	484	626	
4	0	0	0	0	484	626	
5	0	0	0	0	484	626	
6	0	0	0	0	484	625	
7	0	0	0	0	484	626	
8	0	0	0	0	484	627	
9	0	0	0	0	484	626	
10	0	0	0	0	484	628	
11	0	0	0	0	484	627	
12	0	0	0	0	485	627	
13	0	0	0	0	485	627	
14	0	0	0	0	486	625	
15	0	0	0	0	487	627	
0	0	0	0	0	487	627	
1	0	0	0	0	488	627	
2	0	0	0	0	489	629	
3	0	0	0	0	489	627	
4	0	0	0	0	490	627	
5	0	0	0	0	489	627	
6	0	0	0	0	490	626	
7	0	0	0	0	491	627	
8	0	0	0	0	490	627	
9	0	0	0	0	491	627	
10	0	0	0	0	491	629	
11	0	0	0	0	491	627	
12	0	0	0	0	492	628	
13	0	0	0	0	492	627	
14	0	0	0	0	492	626	
15	0	0	0	0	493	627	
0	0	0	0	0	493	628	
1	0	0	0	0	493	628	
2	0	0	0	0	493	630	
3	0	0	0	0	493	627	
4	0	0	0	0	493	627	
5	0	0	0	0	494	627	
6	0	0	0	0	495	625	
7	0	0	0	0	496	627	
8	0	0	0	0	496	627	
9	0	0	0	0	496	627	
10	0	0	0	0	496	628	
11	0	0	0	0	496	627	
12	0	0	0	0	496	626	
13	0	0	0	0	496	626	
14	0	0	0	0	497	624	
15	0	0	0	0	497	626	
0	0	0	0	0	497	626	
1	0	0	0	0	497	626	
2	0	0	0	0	497	627	
3	0	0	0	0	498	626	
4	0	0	0	0	498	626	
5	0	0	0	0	499	626	
6	0	0	0	0	499	624	
7	0	0	0	0	499	625	
8	0	0	0	0	501	624	
9	0	0	0	0	502	625	
10	0	0	0	0	502	627	
11	0	0	0	0	502	625	
12	0	0	0	0	503	624	
13	0	0	0	0	504	624	
14	0	0	0	0	504	623	
15	0	0	0	0	504	625	
0	0	0	0	0	504	624	
1	0	0	0	0	504	624	
2	0	0	0	0	504	625	
3	0	0	0	0	504	624	
4	0	0	0	0	505	624	
5	0	0	0	0	505	623	
6	0	0	0	0	506	621	
7	0	0	0	0	506	623	
8	0	0	0	0	507	624	
9	0	0	0	0	508	624	
10	0	0	0	0	508	625	
11	0	0	0	0	509	624	
12	0	0	0	0	510	624	
13	0	0	0	0	510	624	
14	0	0	0	0	511	622	
15	0	0	0	0	510	624	
0	0	0	0	0	511	624	
1	0	0	0	0	511	623	
2	0	0	0	0	511	625	
3	0	0	0	0	512	624	
4	0	0	0	0	512	624	
5	0	0	0	0	513	624	
6	0	0	0	0	513	622	
7	0	0	0	0	513	624	
8	0	0	0	0	513	623	
9	0	0	0	0	512	623	
10	0	0	0	0	513	625	
11	0	0	0	0	514	623	
12	0	0	0	0	514	623	
13	0	0	0	0	515	623	
14	0	0	0	0	515	621	
15	0	0	0	0	516	623	
0	0	0	0	0	516	624	
1	0	0	0	0	516	624	
2	0	0	0	0	516	625	
3	0	0	0	0	516	624	
4	0	0	0	0	516	624	
5	0	0	0	0	516	623	
6	0	0	0	0	515	622	
7	0	0	0	0	515	624	
8	0	0	0	0	514	623	
9	0	0	0	0	513	623	
10	0	0	0	0	513	624	
11	0	0	0	0	513	623	
12	0	0	0	0	513	623	
13	0	0	0	0	513	623	
14	0	0	0	0	512	621	
15	0	0	0	0	513	623	
0	0	0	0	0	512	622	
1	0	0	0	0	512	623	
2	0	0	0	0	512	624	
3	0	0	0	0	512	622	
4	0	0	0	0	511	622	
5	0	0	0	0	511	623	
6	0	0	0	0	511	621	
7	0	0	0	0	510	622	
8	0	0	0	0	510	622	
9	0	0	0	0	509	623	
10	0	0	0	0	508	624	
11	0	0	0	0	508	623	
12	0	0	0	0	508	622	
13	0	0	0	0	507	622	
14	0	0	0	0	507	620	
15	0	0	0	0	506	622	
0	0	0	0	0	506	622	
1	0	0	0	0	506	623	
2	0	0	0	0	506	623	
3	0	0	0	0	506	622	
4	0	0	0	0	505	622	
5	0	0	0	0	504	622	
6	0	0	0	0	504	620	
7	0	0	0	0	503	622	
8	0	0	0	0	503	622	
9	0	0	0	0	503	622	
10	0	0	0	0	503	624	
11	0	0	0	0	502	621	
12	0	0	0	0	502	622	
13	0	0	0	0	502	622	
14	0	0	0	0	501	620	
15	0	0	0	0	500	623	
0	0	0	0	0	499	622	
1	0	0	0	0	499	622	
2	0	0	0	0	498	623	
3	0	0	0	0	497	622	
4	0	0	0	0	497	623	
5	0	0	0	0	497	622	
6	0	0	0	0	497	621	
7	0	0	0	0	497	623	
8	0	0	0	0	497	623	
9	0	0	0	0	497	623	
10	0	0	0	0	497	624	
11	0	0	0	0	498	623	
12	0	0	0	0	499	623	
13	0	0	0	0	499	623	
14	0	0	0	0	499	621	
15	0	0	0	0	499	623	
0	0	0	0	0	499	623	
1	0	0	0	0	499	623	
2	0	0	0	0	498	624	
3	0	0	0	0	497	623	
4	0	0	0	0	497	623	
5	0	0	0	0	496	623	
6	0	0	0	0	496	621	
7	0	0	0	0	496	623	
8	0	0	0	0	496	623	
9	0	0	0	0	496	623	
10	0	0	0	0	497	624	
11	0	0	0	0	498	623	
12	0	0	0	0	497	623	
13	0	0	0	0	498	624	
14	0	0	0	0	498	621	
15	0	0	0	0	498	623	
0	0	0	0	0	499	623	
1	0	0	0	0	499	624	
2	0	0	0	0	501	626	
3	0	0	0	0	501	624	
4	0	0	0	0	501	624	
5	0	0	0	0	501	623	
6	0	0	0	0	501	622	
7	0	0	0	0	501	624	
8	0	0	0	0	500	624	
9	0	0	0	0	500	624	
10	0	0	0	0	500	625	
11	0	0	0	0	499	623	
12	0	0	0	0	499	623	
13	0	0	0	0	499	623	
14	0	0	0	0	499	621	
15	0	0	0	0	499	623	
0	0	0	0	0	500	623	
1	0	0	0	0	499	623	
2	0	0	0	0	499	625	
3	0	0	0	0	500	624	
4	0	0	0	0	500	623	
5	0	0	0	0	500	623	
6	0	0	0	0	501	621	
7	0	0	0	0	501	623	
8	0	0	0	0	500	623	
9	0	0	0	0	499	623	
10	0	0	0	0	499	625	
11	0	0	0	0	499	623	
12	0	0	0	0	498	623	
13	0	0	0	0	498	624	
14	0	0	0	0	497	622	
15	0	0	0	0	497	623	
0	0	0	0	0	497	624	
1	0	0	0	0	497	624	
2	0	0	0	0	497	625	
3	0	0	0	0	497	624	
4	0	0	0	0	497	624	
5	0	0	0	0	497	624	
6	0	0	0	0	497	622	
7	0	0	0	0	497	623	
8	0	0	0	0	497	623	
9	0	0	0	0	497	624	
10	0	0	0	0	497	626	
11	0	0	0	0	497	624	
12	0	0	0	0	497	624	
13	0	0	0	0	496	624	
14	0	0	0	0	496	622	
15	0	0	0	0	497	624	
0	0	0	0	0	496	624	
1	0	0	0	0	495	624	
2	0	0	0	0	495	625	
3	0	0	0	0	496	624	
4	0	0	0	0	496	624	
5	0	0	0	0	495	624	
6	0	0	0	0	495	622	
7	0	0	0	0	495	624	
8	0	0	0	0	496	624	
9	0	0	0	0	496	624	
10	0	0	0	0	497	626	
11	0	0	0	0	497	624	
12	0	0	0	0	498	625	
13	0	0	0	0	498	624	
14	0	0	0	0	498	623	
15	0	0	0	0	498	624	
0	0	0	0	0	498	624	
1	0	0	0	0	498	624	
2	0	0	0	0	498	626	
3	0	0	0	0	497	625	
4	0	0	0	0	496	624	
5	0	0	0	0	496	624	
6	0	0	0	0	496	622	
7	0	0	0	0	496	624	
8	0	0	0	0	496	625	
9	0	0	0	0	497	625	
10	0	0	0	0	496	626	
11	0	0	0	0	496	625	
12	0	0	0	0	496	624	
13	0	0	0	0	497	624	
14	0	0	0	0	496	623	
15	0	0	0	0	496	624	
0	0	0	0	0	497	624	
1	0	0	0	0	497	624	
2	0	0	0	0	498	627	
3	0	0	0	0	499	624	
4	0	0	0	0	499	624	
5	0	0	0	0	499	625	
6	0	0	0	0	499	622	
7	0	0	0	0	499	624	
8	0	0	0	0	498	624	
9	0	0	0	0	498	625	
10	0	0	0	0	499	627	
11	0	0	0	0	499	625	
12	0	0	0	0	499	625	
13	0	0	0	0	499	624	
14	0	0	0	0	499	623	
15	0	0	0	0	499	625	
0	0	0	0	0	499	625	
1	0	0	0	0	500	625	
2	0	0	0	0	501	627	
3	0	0	0	0	502	625	
4	0	0	0	0	503	624	
5	0	0	0	0	503	624	
6	0	0	0	0	503	624	
7	0	0	0	0	503	624	
8	0	0	0	0	504	624	
9	0	0	0	0	503	624	
10	0	0	0	0	503	625	
11	0	0	0	0	504	624	
12	0	0	0	0	504	624	
13	0	0	0	0	503	624	
14	0	0	0	0	503	623	
15	0	0	0	0	503	624	
0	0	0	0	0	502	624	
1	0	0	0	0	502	624	
2	0	0	0	0	502	626	
3	0	0	0	0	503	624	
4	0	0	0	0	504	624	
5	0	0	0	0	504	624	
6	0	0	0	0	504	622	
7	0	0	0	0	504	624	
8	0	0	0	0	505	624	
9	0	0	0	0	505	624	
10	0	0	0	0	505	626	
11	0	0	0	0	506	624	
12	0	0	0	0	505	624	
13	0	0	0	0	506	624	
14	0	0	0	0	505	623	
15	0	0	0	0	505	625	
0	0	0	0	0	506	624	
1	0	0	0	0	506	624	
2	0	0	0	0	505	626	
3	0	0	0	0	505	624	
4	0	0	0	0	506	625	
5	0	0	0	0	506	625	
6	0	0	0	0	506	622	
7	0	0	0	0	506	624	
8	0	0	0	0	506	624	
9	0	0	0	0	506	624	
10	0	0	0	0	507	626	
11	0	0	0	0	507	625	
12	0	0	0	0	507	624	
13	0	0	0	0	508	624	
14	0	0	0	0	510	623	
15	0	0	0	0	510	624	
0	0	0	0	0	509	624	
1	0	0	0	0	508	624	
2	0	0	0	0	509	625	
3	0	0	0	0	509	624	
4	0	0	0	0	509	624	
5	0	0	0	0	509	624	
6	0	0	0	0	510	622	
7	0	0	0	0	509	624	
8	0	0	0	0	510	624	
9	0	0	0	0	509	624	
10	0	0	0	0	509	625	
11	0	0	0	0	510	624	
12	0	0	0	0	509	624	
13	0	0	0	0	509	623	
14	0	0	0	0	509	621	
15	0	0	0	0	509	623	
0	0	0	0	0	509	623	
1	0	0	0	0	509	623	
2	0	0	0	0	509	625	
3	0	0	0	0	509	624	
4	0	0	0	0	509	624	
5	0	0	0	0	509	623	
6	0	0	0	0	509	621	
7	0	0	0	0	509	623	
8	0	0	0	0	509	623	
9	0	0	0	0	509	623	
10	0	0	0	0	509	625	
11	0	0	0	0	509	623	
12	0	0	0	0	509	623	
13	0	0	0	0	508	624	
14	0	0	0	0	508	621	
15	0	0	0	0	508	623	
0	0	0	0	0	508	623	
1	0	0	0	0	508	623	
2	0	0	0	0	507	624	
3	0	0	0	0	508	623	
4	0	0	0	0	508	623	
5	0	0	0	0	508	623	
6	0	0	0	0	508	622	
7	0	0	0	0	508	623	
8	0	0	0	0	508	623	
9	0	0	0	0	508	623	
10	0	0	0	0	508	624	
11	0	0	0	0	508	623	
12	0	0	0	0	509	624	
13	0	0	0	0	509	623	
14	0	0	0	0	508	622	
15	0	0	0	0	508	624	
0	0	0	0	0	508	624	
1	0	0	0	0	508	624	
2	0	0	0	0	508	625	
3	0	0	0	0	507	624	
4	0	0	0	0	507	623	
5	0	0	0	0	506	624	
6	0	0	0	0	505	622	
7	0	0	0	0	505	623	
8	0	0	0	0	505	623	
9	0	0	0	0	505	624	
10	0	0	0	0	505	625	
11	0	0	0	0	505	623	
12	0	0	0	0	504	624	
13	0	0	0	0	504	624	
14	0	0	0	0	505	622	
15	0	0	0	0	505	624	
0	0	0	0	0	504	624	
1	0	0	0	0	504	623	
2	0	0	0	0	504	626	
3	0	0	0	0	504	624	
4	0	0	0	0	504	624	
5	0	0	0	0	503	624	
6	0	0	0	0	504	622	
7	0	0	0	0	504	623	
8	0	0	0	0	504	624	
9	0	0	0	0	504	624	
10	0	0	0	0	503	624	
11	0	0	0	0	504	624	
12	0	0	0	0	503	623	
13	0	0	0	0	503	623	
14	0	0	0	0	503	621	
15	0	0	0	0	504	624	
0	0	0	0	0	504	623	
1	0	0	0	0	504	623	
2	0	0	0	0	504	625	
3	0	0	0	0	504	623	
4	0	0	0	0	504	624	
5	0	0	0	0	504	623	
6	0	0	0	0	504	622	
7	0	0	0	0	504	624	
8	0	0	0	0	504	624	
9	0	0	0	0	504	624	
10	0	0	0	0	505	626	
11	0	0	0	0	504	623	
12	0	0	0	0	504	624	
13	0	0	0	0	505	624	
14	0	0	0	0	504	622	
15	0	0	0	0	504	624	
0	0	0	0	0	504	624	
1	0	0	0	0	504	624	
2	0	0	0	0	504	625	
3	0	0	0	0	504	624	
4	0	0	0	0	504	624	
5	0	0	0	0	504	624	
6	0	0	0	0	504	622	
7	0	0	0	0	504	624	
8	0	0	0	0	504	624	
9	0	0	0	0	504	624	
10	0	0	0	0	503	625	
11	0	0	0	0	504	625	
12	0	0	0	0	504	625	
13	0	0	0	0	504	625	
14	0	0	0	0	504	623	
15	0	0	0	0	504	625	
0	0	0	0	0	504	625	
1	0	0	0	0	504	626	
2	0	0	0	0	504	627	
3	0	0	0	0	504	625	
4	0	0	0	0	504	625	
5	0	0	0	0	504	626	
6	0	0	0	0	504	624	
7	0	0	0	0	503	625	
8	0	0	0	0	504	625	
9	0	0	0	0	504	624	
10	0	0	0	0	503	627	
11	0	0	0	0	504	625	
12	0	0	0	0	503	625	
13	0	0	0	0	502	625	
14	0	0	0	0	502	623	
15	0	0	0	0	503	625	
0	0	0	0	0	504	625	
1	0	0	0	0	504	624	
2	0	0	0	0	503	626	
3	0	0	0	0	504	625	
4	0	0	0	0	504	625	
5	0	0	0	0	504	625	
6	0	0	0	0	505	624	
7	0	0	0	0	505	625	
8	0	0	0	0	505	624	
9	0	0	0	0	505	625	
10	0	0	0	0	506	627	
11	0	0	0	0	506	624	
12	0	0	0	0	506	624	
13	0	0	0	0	506	624	
14	0	0	0	0	505	622	
15	0	0	0	0	506	624	
0	0	0	0	0	506	624	
1	0	0	0	0	505	623	
2	0	0	0	0	505	625	
3	0	0	0	0	505	623	
4	0	0	0	0	506	623	
5	0	0	0	0	506	623	
6	0	0	0	0	507	622	
7	0	0	0	0	508	623	
8	0	0	0	0	508	623	
9	0	0	0	0	507	624	
10	0	0	0	0	507	625	
11	0	0	0	0	507	623	
12	0	0	0	0	508	623	
13	0	0	0	0	507	623	
14	0	0	0	0	508	622	
15	0	0	0	0	508	623	
0	0	0	0	0	508	623	
1	0	0	0	0	507	623	
2	0	0	0	0	507	625	
3	0	0	0	0	508	623	
4	0	0	0	0	509	623	
5	0	0	0	0	509	623	
6	0	0	0	0	508	621	
7	0	0	0	0	509	623	
8	0	0	0	0	508	623	
9	0	0	0	0	507	622	
10	0	0	0	0	508	624	
11	0	0	0	0	508	623	
12	0	0	0	0	508	622	
13	0	0	0	0	508	623	
14	0	0	0	0	508	621	
15	0	0	0	0	509	622	
0	0	0	0	0	509	622	
1	0	0	0	0	509	622	
2	0	0	0	0	510	624	
3	0	0	0	0	510	622	
4	0	0	0	0	511	622	
5	0	0	0	0	511	622	
6	0	0	0	0	510	620	
7	0	0	0	0	510	622	
8	0	0	0	0	509	622	
9	0	0	0	0	510	622	
10	0	0	0	0	510	623	
11	0	0	0	0	508	621	
12	0	0	0	0	509	622	
13	0	0	0	0	509	623	
14	0	0	0	0	509	620	
15	0	0	0	0	508	623	
0	0	0	0	0	507	622	
1	0	0	0	0	507	623	
2	0	0	0	0	506	624	
3	0	0	0	0	507	623	
4	0	0	0	0	507	623	
5	0	0	0	0	507	622	
6	0	0	0	0	508	621	
7	0	0	0	0	508	624	
8	0	0	0	0	508	623	
9	0	0	0	0	508	623	
10	0	0	0	0	508	625	
11	0	0	0	0	508	623	
12	0	0	0	0	508	622	
13	0	0	0	0	508	623	
14	0	0	0	0	508	621	
15	0	0	0	0	508	623	
0	0	0	0	0	508	623	
1	0	0	0	0	508	623	
2	0	0	0	0	508	625	
3	0	0	0	0	509	623	
4	0	0	0	0	510	624	
5	0	0	0	0	510	624	
6	0	0	0	0	511	621	
7	0	0	0	0	511	624	
8	0	0	0	0	512	623	
9	0	0	0	0	512	623	
10	0	0	0	0	512	625	
11	0	0	0	0	513	623	
12	0	0	0	0	513	623	
13	0	0	0	0	513	623	
14	0	0	0	0	513	622	
15	0	0	0	0	513	624	
0	0	0	0	0	513	624	
1	0	0	0	0	512	624	
2	0	0	0	0	512	625	
3	0	0	0	0	512	624	
4	0	0	0	0	511	624	
5	0	0	0	0	511	624	
6	0	0	0	0	510	623	
7	0	0	0	0	511	624	
8	0	0	0	0	511	624	
9	0	0	0	0	511	624	
10	0	0	0	0	512	626	
11	0	0	0	0	513	625	
12	0	0	0	0	515	624	
13	0	0	0	0	515	624	
14	0	0	0	0	514	622	
15	0	0	0	0	513	624	
0	0	0	0	0	513	624	
1	0	0	0	0	514	624	
2	0	0	0	0	513	626	
3	0	0	0	0	513	624	
4	0	0	0	0	512	624	
5	0	0	0	0	512	625	
6	0	0	0	0	512	622	
7	0	0	0	0	512	624	
8	0	0	0	0	513	624	
9	0	0	0	0	512	624	
10	0	0	0	0	512	625	
11	0	0	0	0	513	624	
12	0	0	0	0	513	625	
13	0	0	0	0	514	624	
14	0	0	0	0	513	622	
15	0	0	0	0	513	624	
0	0	0	0	0	512	624	
1	0	0	0	0	512	624	
2	0	0	0	0	513	626	
3	0	0	0	0	513	624	
4	0	0	0	0	513	624	
5	0	0	0	0	512	624	
6	0	0	0	0	511	622	
7	0	0	0	0	511	624	
8	0	0	0	0	510	624	
9	0	0	0	0	511	624	
10	0	0	0	0	510	624	
11	0	0	0	0	510	623	
12	0	0	0	0	511	623	
13	0	0	0	0	510	624	
14	0	0	0	0	510	622	
15	0	0	0	0	511	623	
0	0	0	0	0	511	623	
1	0	0	0	0	511	624	
2	0	0	0	0	511	625	
3	0	0	0	0	512	623	
4	0	0	0	0	512	623	
5	0	0	0	0	512	623	
6	0	0	0	0	512	621	
7	0	0	0	0	511	623	
8	0	0	0	0	512	623	
9	0	0	0	0	513	623	
10	0	0	0	0	513	624	
11	0	0	0	0	513	623	
12	0	0	0	0	512	622	
13	0	0	0	0	512	623	
14	0	0	0	0	512	621	
15	0	0	0	0	511	623	
0	0	0	0	0	511	624	
1	0	0	0	0	510	624	
2	0	0	0	0	510	625	
3	0	0	0	0	511	623	
4	0	0	0	0	511	623	
5	0	0	0	0	512	623	
6	0	0	0	0	513	621	
7	0	0	0	0	513	623	
8	0	0	0	0	512	623	
9	0	0	0	0	512	623	
10	0	0	0	0	513	625	
11	0	0	0	0	513	623	
12	0	0	0	0	512	623	
13	0	0	0	0	512	624	
14	0	0	0	0	512	622	
15	0	0	0	0	512	624	
0	0	0	0	0	511	624	
1	0	0	0	0	511	624	
2	0	0	0	0	509	625	
3	0	0	0	0	509	623	
4	0	0	0	0	509	623	
5	0	0	0	0	509	623	
6	0	0	0	0	509	622	
7	0	0	0	0	509	623	
8	0	0	0	0	509	624	
9	0	0	0	0	510	624	
10	0	0	0	0	510	625	
11	0	0	0	0	510	624	
12	0	0	0	0	510	624	
13	0	0	0	0	510	624	
14	0	0	0	0	509	622	
15	0	0	0	0	509	624	
0	0	0	0	0	509	624	
1	0	0	0	0	510	624	
2	0	0	0	0	509	625	
3	0	0	0	0	509	623	
4	0	0	0	0	509	624	
5	0	0	0	0	509	623	
6	0	0	0	0	509	622	
7	0	0	0	0	509	623	
8	0	0	0	0	509	624	
9	0	0	0	0	510	624	
10	0	0	0	0	511	626	
11	0	0	0	0	511	624	
12	0	0	0	0	512	624	
13	0	0	0	0	512	625	
14	0	0	0	0	512	624	
15	0	0	0	0	513	625	
0	0	0	0	0	512	626	
1	0	0	0	0	513	627	
2	0	0	0	0	513	629	
3	0	0	0	0	513	627	
4	0	0	0	0	513	628	
5	0	0	0	0	513	628	
6	0	0	0	0	512	627	
7	0	0	0	0	512	629	
8	0	0	0	0	512	629	
9	0	0	0	0	511	628	
10	0	0	0	0	511	630	
11	0	0	0	0	510	629	
12	0	0	0	0	510	628	
13	0	0	0	0	509	627	
14	0	0	0	0	509	625	
15	0	0	0	0	508	627	
0	0	0	0	0	508	627	
1	0	0	0	0	508	627	
2	0	0	0	0	508	629	
3	0	0	0	0	508	628	
4	0	0	0	0	508	628	
5	0	0	0	0	508	628	
6	0	0	0	0	510	627	
7	0	0	0	0	510	629	
8	0	0	0	0	510	629	
9	0	0	0	0	510	629	
10	0	0	0	0	508	632	
11	0	0	0	0	508	630	
12	0	0	0	0	508	630	
13	0	0	0	0	509	631	
14	0	0	0	0	508	630	
15	0	0	0	0	508	632	
0	0	0	0	0	509	632	
1	0	0	0	0	510	632	
2	0	0	0	0	510	634	
3	0	0	0	0	510	632	
4	0	0	0	0	511	632	
5	0	0	0	0	511	633	
6	0	0	0	0	512	631	
7	0	0	0	0	512	632	
8	0	0	0	0	513	632	
9	0	0	0	0	513	632	
10	0	0	0	0	514	633	
11	0	0	0	0	515	632	
12	0	0	0	0	517	631	
13	0	0	0	0	516	630	
14	0	0	0	0	515	628	
15	0	0	0	0	516	629	
0	0	0	0	0	516	629	
1	0	0	0	0	517	628	
2	0	0	0	0	518	629	
3	0	0	0	0	518	627	
4	0	0	0	0	517	626	
5	0	0	0	0	516	626	
6	0	0	0	0	515	624	
7	0	0	0	0	514	625	
8	0	0	0	0	513	625	
9	0	0	0	0	512	624	
10	0	0	0	0	512	625	
11	0	0	0	0	511	624	
12	0	0	0	0	511	623	
13	0	0	0	0	510	622	
14	0	0	0	0	510	621	
15	0	0	0	0	510	622	
0	0	0	0	0	510	622	
1	0	0	0	0	510	621	
2	0	0	0	0	510	623	
3	0	0	0	0	510	620	
4	0	0	0	0	510	620	
5	0	0	0	0	510	620	
6	0	0	0	0	511	617	
7	0	0	0	0	511	619	
8	0	0	0	0	511	619	
9	0	0	0	0	511	618	
10	0	0	0	0	512	620	
11	0	0	0	0	512	617	
12	0	0	0	0	512	617	
13	0	0	0	0	513	617	
14	0	0	0	0	512	615	
15	0	0	0	0	512	617	
0	0	0	0	0	513	617	
1	0	0	0	0	512	617	
2	0	0	0	0	512	619	
3	0	0	0	0	512	616	
4	0	0	0	0	512	617	
5	0	0	0	0	512	616	
6	0	0	0	0	511	614	
7	0	0	0	0	512	616	
8	0	0	0	0	511	616	
9	0	0	0	0	510	617	
10	0	0	0	0	511	618	
11	0	0	0	0	510	617	
12	0	0	0	0	509	617	
13	0	0	0	0	509	617	
14	0	0	0	0	509	615	
15	0	0	0	0	509	617	
0	0	0	0	0	508	616	
1	0	0	0	0	508	616	
2	0	0	0	0	507	618	
3	0	0	0	0	506	616	
4	0	0	0	0	506	617	
5	0	0	0	0	506	617	
6	0	0	0	0	505	616	
7	0	0	0	0	505	618	
8	0	0	0	0	505	616	
9	0	0	0	0	504	617	
10	0	0	0	0	504	619	
11	0	0	0	0	503	617	
12	0	0	0	0	503	617	
13	0	0	0	0	503	617	
14	0	0	0	0	503	615	
15	0	0	0	0	502	617	
0	0	0	0	0	502	617	
1	0	0	0	0	502	617	
2	0	0	0	0	502	619	
3	0	0	0	0	503	617	
4	0	0	0	0	503	616	
5	0	0	0	0	504	617	
6	0	0	0	0	503	615	
7	0	0	0	0	502	618	
8	0	0	0	0	502	618	
9	0	0	0	0	502	618	
10	0	0	0	0	502	620	
11	0	0	0	0	502	618	
12	0	0	0	0	503	619	
13	0	0	0	0	504	619	
14	0	0	0	0	503	618	
15	0	0	0	0	502	620	
0	0	0	0	0	500	620	
1	0	0	0	0	499	620	
2	0	0	0	0	499	622	
3	0	0	0	0	498	620	
4	0	0	0	0	497	621	
5	0	0	0	0	495	621	
6	0	0	0	0	494	619	
7	0	0	0	0	492	620	
8	0	0	0	0	491	620	
9	0	0	0	0	489	621	
10	0	0	0	0	488	622	
11	0	0	0	0	487	621	
12	0	0	0	0	487	621	
13	0	0	0	0	483	622	
14	0	0	0	0	481	620	
15	0	0	0	0	477	621	
0	0	0	0	0	472	622	
1	0	0	0	0	469	622	
2	0	0	0	0	467	623	
3	0	0	0	0	466	623	
4	0	0	0	0	466	622	
5	0	0	0	0	467	623	
6	0	0	0	0	468	622	
7	0	0	0	0	472	623	
8	0	0	0	0	478	624	
9	0	0	0	0	487	624	
10	0	0	0	0	503	626	
11	0	0	0	0	520	624	
12	0	0	0	0	541	626	
13	0	0	0	0	563	625	
14	0	0	0	0	587	623	
15	0	0	0	0	610	625	
0	0	0	0	0	633	625	
1	0	0	0	0	657	626	
2	0	0	0	0	682	628	
3	0	0	0	0	707	626	
4	0	0	0	0	729	626	
5	0	0	0	0	749	626	
6	0	0	0	0	767	624	
7	0	0	0	0	782	627	
8	0	0	0	0	794	626	
9	0	0	0	0	800	626	
10	0	0	0	0	803	628	
11	0	0	0	0	801	626	
12	0	0	0	0	797	626	
13	0	0	0	0	787	627	
14	0	0	0	0	774	625	
15	0	0	0	0	756	627	
0	0	0	0	0	734	626	
1	0	0	0	0	710	626	
2	0	0	0	0	687	628	
3	0	0	0	0	667	626	
4	0	0	0	0	651	627	
5	0	0	0	0	637	626	
6	0	0	0	0	624	625	
7	0	0	0	0	611	627	
8	0	0	0	0	599	627	
9	0	0	0	0	586	627	
10	0	0	0	0	573	629	
11	0	0	0	0	561	627	
12	0	0	0	0	550	628	
13	0	0	0	0	539	627	
14	0	0	0	0	528	626	
15	0	0	0	0	518	628	
0	0	0	0	0	510	628	
1	0	0	0	0	503	629	
2	0	0	0	0	495	632	
3	0	0	0	0	487	630	
4	0	0	0	0	482	630	
5	0	0	0	0	477	631	
6	0	0	0	0	471	630	
7	0	0	0	0	466	631	
8	0	0	0	0	462	631	
9	0	0	0	0	459	632	
10	0	0	0	0	455	633	
11	0	0	0	0	451	632	
12	0	0	0	0	447	631	
13	0	0	0	0	445	630	
14	0	0	0	0	442	628	
15	0	0	0	0	440	630	
0	0	0	0	0	437	628	
1	0	0	0	0	436	628	
2	0	0	0	0	434	629	
3	0	0	0	0	432	627	
4	0	0	0	0	432	627	
5	0	0	0	0	430	627	
6	0	0	0	0	429	624	
7	0	0	0	0	428	626	
8	0	0	0	0	428	626	
9	0	0	0	0	428	626	
10	0	0	0	0	427	627	
11	0	0	0	0	428	627	
12	0	0	0	0	428	627	
13	0	0	0	0	429	627	
14	0	0	0	0	429	625	
15	0	0	0	0	430	627	
0	0	0	0	0	430	627	
1	0	0	0	0	430	627	
2	0	0	0	0	431	629	
3	0	0	0	0	431	628	
4	0	0	0	0	432	628	
5	0	0	0	0	433	627	
6	0	0	0	0	434	625	
7	0	0	0	0	435	627	
8	0	0	0	0	437	628	
9	0	0	0	0	437	627	
10	0	0	0	0	438	629	
11	0	0	0	0	439	627	
12	0	0	0	0	440	628	
13	0	0	0	0	443	628	
14	0	0	0	0	444	627	
15	0	0	0	0	444	628	
0	0	0	0	0	445	627	
1	0	0	0	0	447	627	
2	0	0	0	0	448	630	
3	0	0	0	0	449	627	
4	0	0	0	0	450	627	
5	0	0	0	0	451	627	
6	0	0	0	0	451	625	
7	0	0	0	0	453	627	
8	0	0	0	0	454	626	
9	0	0	0	0	454	626	
10	0	0	0	0	455	627	
11	0	0	0	0	456	625	
12	0	0	0	0	458	625	
13	0	0	0	0	459	624	
14	0	0	0	0	460	622	
15	0	0	0	0	461	623	
0	0	0	0	0	462	623	
1	0	0	0	0	463	623	
2	0	0	0	0	463	625	
3	0	0	0	0	464	623	
4	0	0	0	0	465	623	
5	0	0	0	0	465	622	
6	0	0	0	0	466	620	
7	0	0	0	0	467	622	
8	0	0	0	0	468	621	
9	0	0	0	0	468	622	
10	0	0	0	0	469	622	
11	0	0	0	0	470	621	
12	0	0	0	0	470	620	
13	0	0	0	0	471	620	
14	0	0	0	0	472	617	
15	0	0	0	0	472	619	
0	0	0	0	0	472	619	
1	0	0	0	0	473	619	
2	0	0	0	0	474	620	
3	0	0	0	0	474	619	
4	0	0	0	0	474	619	
5	0	0	0	0	475	618	
6	0	0	0	0	476	617	
7	0	0	0	0	476	619	
8	0	0	0	0	476	618	
9	0	0	0	0	476	618	
10	0	0	0	0	477	620	
11	0	0	0	0	477	618	
12	0	0	0	0	477	618	
13	0	0	0	0	477	618	
14	0	0	0	0	477	615	
15	0	0	0	0	477	618	
0	0	0	0	0	476	617	
1	0	0	0	0	476	617	
2	0	0	0	0	476	619	
3	0	0	0	0	476	618	
4	0	0	0	0	477	619	
5	0	0	0	0	477	619	
6	0	0	0	0	477	617	
7	0	0	0	0	478	618	
8	0	0	0	0	478	619	
9	0	0	0	0	479	619	
10	0	0	0	0	479	620	
11	0	0	0	0	479	619	
12	0	0	0	0	479	619	
13	0	0	0	0	479	619	
14	0	0	0	0	479	618	
15	0	0	0	0	478	619	
0	0	0	0	0	478	619	
1	0	0	0	0	477	619	
2	0	0	0	0	477	620	
3	0	0	0	0	477	620	
4	0	0	0	0	477	620	
5	0	0	0	0	477	620	
6	0	0	0	0	477	618	
7	0	0	0	0	477	620	
8	0	0	0	0	477	620	
9	0	0	0	0	476	620	
10	0	0	0	0	476	621	
11	0	0	0	0	477	621	
12	0	0	0	0	477	620	
13	0	0	0	0	479	621	
14	0	0	0	0	479	619	
15	0	0	0	0	480	621	
0	0	0	0	0	480	621	
1	0	0	0	0	479	621	
2	0	0	0	0	480	623	
3	0	0	0	0	481	621	
4	0	0	0	0	481	622	
5	0	0	0	0	481	621	
6	0	0	0	0	481	620	
7	0	0	0	0	482	622	
8	0	0	0	0	483	622	
9	0	0	0	0	483	622	
10	0	0	0	0	484	624	
11	0	0	0	0	484	622	
12	0	0	0	0	484	623	
13	0	0	0	0	484	623	
14	0	0	0	0	485	621	
15	0	0	0	0	485	623	
0	0	0	0	0	485	623	
1	0	0	0	0	486	624	
2	0	0	0	0	486	625	
3	0	0	0	0	487	624	
4	0	0	0	0	487	624	
5	0	0	0	0	487	624	
6	0	0	0	0	488	623	
7	0	0	0	0	488	624	
8	0	0	0	0	489	624	
9	0	0	0	0	489	624	
10	0	0	0	0	488	625	
11	0	0	0	0	488	624	
12	0	0	0	0	487	625	
13	0	0	0	0	488	624	
14	0	0	0	0	488	623	
15	0	0	0	0	488	625	
0	0	0	0	0	489	625	
1	0	0	0	0	489	625	
2	0	0	0	0	489	627	
3	0	0	0	0	490	626	
4	0	0	0	0	490	626	
5	0	0	0	0	491	626	
6	0	0	0	0	491	624	
7	0	0	0	0	491	625	
8	0	0	0	0	492	625	
9	0	0	0	0	492	625	
10	0	0	0	0	492	628	
11	0	0	0	0	493	626	
12	0	0	0	0	493	626	
13	0	0	0	0	492	626	
14	0	0	0	0	492	624	
15	0	0	0	0	492	627	
0	0	0	0	0	492	626	
1	0	0	0	0	491	626	
2	0	0	0	0	491	627	
3	0	0	0	0	491	627	
4	0	0	0	0	492	627	
5	0	0	0	0	491	627	
6	0	0	0	0	490	625	
7	0	0	0	0	490	627	
8	0	0	0	0	489	627	
9	0	0	0	0	490	627	
10	0	0	0	0	491	629	
11	0	0	0	0	491	627	
12	0	0	0	0	492	627	
13	0	0	0	0	492	627	
14	0	0	0	0	492	625	
15	0	0	0	0	491	627	
0	0	0	0	0	491	626	
1	0	0	0	0	492	626	
2	0	0	0	0	492	627	
3	0	0	0	0	492	625	
4	0	0	0	0	493	625	
5	0	0	0	0	495	625	
6	0	0	0	0	496	623	
7	0	0	0	0	497	625	
8	0	0	0	0	497	625	
9	0	0	0	0	499	625	
10	0	0	0	0	499	627	
11	0	0	0	0	501	625	
12	0	0	0	0	503	625	
13	0	0	0	0	504	626	
14	0	0	0	0	504	624	
15	0	0	0	0	505	626	
0	0	0	0	0	506	626	
1	0	0	0	0	507	625	
2	0	0	0	0	508	628	
3	0	0	0	0	508	627	
4	0	0	0	0	508	627	
5	0	0	0	0	508	628	
6	0	0	0	0	507	626	
7	0	0	0	0	506	628	
8	0	0	0	0	505	628	
9	0	0	0	0	504	628	
10	0	0	0	0	504	629	
11	0	0	0	0	504	628	
12	0	0	0	0	503	628	
13	0	0	0	0	503	627	
14	0	0	0	0	502	625	
15	0	0	0	0	502	626	
0	0	0	0	0	501	626	
1	0	0	0	0	501	625	
2	0	0	0	0	501	626	
3	0	0	0	0	502	624	
4	0	0	0	0	501	624	
5	0	0	0	0	501	624	
6	0	0	0	0	502	623	
7	0	0	0	0	502	624	
8	0	0	0	0	503	625	
9	0	0	0	0	504	625	
10	0	0	0	0	505	627	
11	0	0	0	0	507	625	
12	0	0	0	0	507	626	
13	0	0	0	0	507	626	
14	0	0	0	0	508	624	
15	0	0	0	0	509	626	
0	0	0	0	0	511	627	
1	0	0	0	0	513	627	
2	0	0	0	0	514	629	
3	0	0	0	0	515	628	
4	0	0	0	0	516	627	
5	0	0	0	0	519	628	
6	0	0	0	0	520	626	
7	0	0	0	0	523	627	
8	0	0	0	0	524	627	
9	0	0	0	0	525	627	
10	0	0	0	0	526	630	
11	0	0	0	0	527	627	
12	0	0	0	0	527	627	
13	0	0	0	0	529	627	
14	0	0	0	0	529	624	
15	0	0	0	0	530	627	
0	0	0	0	0	531	627	
1	0	0	0	0	532	626	
2	0	0	0	0	532	628	
3	0	0	0	0	533	626	
4	0	0	0	0	534	626	
5	0	0	0	0	534	626	
6	0	0	0	0	533	624	
7	0	0	0	0	533	625	
8	0	0	0	0	533	624	
9	0	0	0	0	533	625	
10	0	0	0	0	533	627	
11	0	0	0	0	533	625	
12	0	0	0	0	533	625	
13	0	0	0	0	532	625	
14	0	0	0	0	531	623	
15	0	0	0	0	531	625	
0	0	0	0	0	530	624	
1	0	0	0	0	530	624	
2	0	0	0	0	530	625	
3	0	0	0	0	530	624	
4	0	0	0	0	529	624	
5	0	0	0	0	528	623	
6	0	0	0	0	527	621	
7	0	0	0	0	526	624	
8	0	0	0	0	525	623	
9	0	0	0	0	525	622	
10	0	0	0	0	525	623	
11	0	0	0	0	524	622	
12	0	0	0	0	523	621	
13	0	0	0	0	521	621	
14	0	0	0	0	520	619	
15	0	0	0	0	519	620	
0	0	0	0	0	517	620	
1	0	0	0	0	518	619	
2	0	0	0	0	519	621	
3	0	0	0	0	518	620	
4	0	0	0	0	518	619	
5	0	0	0	0	517	620	
6	0	0	0	0	517	617	
7	0	0	0	0	517	620	
8	0	0	0	0	516	620	
9	0	0	0	0	519	620	
10	0	0	0	0	516	621	
11	0	0	0	0	514	620	
12	0	0	0	0	514	620	
13	0	0	0	0	514	620	
14	0	0	0	0	513	619	
15	0	0	0	0	512	620	
0	0	0	0	0	510	620	
1	0	0	0	0	509	620	
2	0	0	0	0	508	622	
3	0	0	0	0	503	620	
4	0	0	0	0	500	620	
5	0	0	0	0	499	620	
6	0	0	0	0	501	619	
7	0	0	0	0	505	620	
8	0	0	0	0	504	620	
9	0	0	0	0	503	620	
10	0	0	0	0	505	622	
11	0	0	0	0	504	621	
12	0	0	0	0	498	620	
13	0	0	0	0	499	621	
14	0	0	0	0	496	619	
15	0	0	0	0	495	621	
0	0	0	0	0	492	621	
1	0	0	0	0	492	622	
2	0	0	0	0	495	623	
3	0	0	0	0	494	621	
4	0	0	0	0	494	622	
5	0	0	0	0	493	623	
6	0	0	0	0	490	621	
7	0	0	0	0	489	623	
8	0	0	0	0	493	623	
9	0	0	0	0	499	623	
10	0	0	0	0	497	625	
11	0	0	0	0	496	624	
12	0	0	0	0	495	624	
13	0	0	0	0	494	624	
14	0	0	0	0	494	622	
15	0	0	0	0	492	624	
0	0	0	0	0	493	625	
1	0	0	0	0	495	625	
2	0	0	0	0	497	627	
3	0	0	0	0	496	625	
4	0	0	0	0	497	625	
5	0	0	0	0	496	626	
6	0	0	0	0	499	624	
7	0	0	0	0	502	626	
8	0	0	0	0	503	627	
9	0	0	0	0	502	627	
10	0	0	0	0	501	628	
11	0	0	0	0	501	627	
12	0	0	0	0	503	627	
13	0	0	0	0	506	627	
14	0	0	0	0	507	625	
15	0	0	0	0	507	628	
0	0	0	0	0	504	627	
1	0	0	0	0	504	628	
2	0	0	0	0	505	629	
3	0	0	0	0	505	629	
4	0	0	0	0	504	628	
5	0	0	0	0	503	628	
6	0	0	0	0	503	627	
7	0	0	0	0	504	628	
8	0	0	0	0	504	629	
9	0	0	0	0	503	629	
10	0	0	0	0	504	631	
11	0	0	0	0	504	629	
12	0	0	0	0	503	629	
13	0	0	0	0	504	630	
14	0	0	0	0	503	627	
15	0	0	0	0	502	629	
0	0	0	0	0	502	630	
1	0	0	0	0	502	630	
2	0	0	0	0	501	631	
3	0	0	0	0	500	629	
4	0	0	0	0	500	628	
5	0	0	0	0	499	628	
6	0	0	0	0	499	627	
7	0	0	0	0	498	629	
8	0	0	0	0	497	630	
9	0	0	0	0	497	629	
10	0	0	0	0	497	630	
11	0	0	0	0	496	629	
12	0	0	0	0	496	629	
13	0	0	0	0	496	630	
14	0	0	0	0	496	628	
15	0	0	0	0	496	631	
0	0	0	0	0	495	631	
1	0	0	0	0	495	631	
2	0	0	0	0	495	633	
3	0	0	0	0	495	632	
4	0	0	0	0	495	632	
5	0	0	0	0	494	632	
6	0	0	0	0	494	630	
7	0	0	0	0	495	632	
8	0	0	0	0	495	632	
9	0	0	0	0	494	632	
10	0	0	0	0	493	633	
11	0	0	0	0	492	631	
12	0	0	0	0	491	631	
13	0	0	0	0	491	630	
14	0	0	0	0	491	628	
15	0	0	0	0	491	629	
0	0	0	0	0	491	628	
1	0	0	0	0	490	627	
2	0	0	0	0	490	629	
3	0	0	0	0	490	627	
4	0	0	0	0	489	625	
5	0	0	0	0	489	625	
6	0	0	0	0	490	623	
7	0	0	0	0	490	624	
8	0	0	0	0	491	624	
9	0	0	0	0	491	623	
10	0	0	0	0	492	625	
11	0	0	0	0	492	623	
12	0	0	0	0	492	622	
13	0	0	0	0	492	622	
14	0	0	0	0	492	620	
15	0	0	0	0	492	622	
0	0	0	0	0	492	622	
1	0	0	0	0	493	622	
2	0	0	0	0	493	623	
3	0	0	0	0	493	621	
4	0	0	0	0	493	621	
5	0	0	0	0	493	622	
6	0	0	0	0	493	619	
7	0	0	0	0	493	621	
8	0	0	0	0	494	620	
9	0	0	0	0	494	620	
10	0	0	0	0	494	622	
11	0	0	0	0	495	620	
12	0	0	0	0	495	621	
13	0	0	0	0	496	620	
14	0	0	0	0	497	618	
15	0	0	0	0	497	620	
0	0	0	0	0	497	620	
1	0	0	0	0	497	619	
2	0	0	0	0	497	621	
3	0	0	0	0	498	619	
4	0	0	0	0	498	618	
5	0	0	0	0	499	619	
6	0	0	0	0	499	616	
7	0	0	0	0	499	618	
8	0	0	0	0	500	619	
9	0	0	0	0	499	618	
10	0	0	0	0	500	619	
11	0	0	0	0	500	618	
12	0	0	0	0	499	617	
13	0	0	0	0	500	617	
14	0	0	0	0	500	615	
15	0	0	0	0	501	617	
0	0	0	0	0	500	617	
1	0	0	0	0	501	617	
2	0	0	0	0	502	619	
3	0	0	0	0	502	617	
4	0	0	0	0	502	617	
5	0	0	0	0	503	617	
6	0	0	0	0	503	615	
7	0	0	0	0	503	617	
8	0	0	0	0	504	617	
9	0	0	0	0	505	617	
10	0	0	0	0	504	619	
11	0	0	0	0	505	617	
12	0	0	0	0	506	617	
13	0	0	0	0	506	617	
14	0	0	0	0	505	615	
15	0	0	0	0	506	617	
0	0	0	0	0	506	617	
1	0	0	0	0	507	617	
2	0	0	0	0	507	619	
3	0	0	0	0	508	617	
4	0	0	0	0	508	617	
5	0	0	0	0	508	616	
6	0	0	0	0	508	615	
7	0	0	0	0	508	616	
8	0	0	0	0	509	616	
9	0	0	0	0	508	616	
10	0	0	0	0	508	618	
11	0	0	0	0	508	616	
12	0	0	0	0	508	617	
13	0	0	0	0	509	616	
14	0	0	0	0	510	615	
15	0	0	0	0	510	616	
0	0	0	0	0	511	616	
1	0	0	0	0	511	616	
2	0	0	0	0	512	618	
3	0	0	0	0	512	616	
4	0	0	0	0	512	616	
5	0	0	0	0	512	616	
6	0	0	0	0	512	614	
7	0	0	0	0	513	616	
8	0	0	0	0	513	616	
9	0	0	0	0	513	616	
10	0	0	0	0	513	618	
11	0	0	0	0	513	617	
12	0	0	0	0	513	617	
13	0	0	0	0	513	617	
14	0	0	0	0	513	615	
15	0	0	0	0	512	619	
0	0	0	0	0	512	618	
1	0	0	0	0	511	619	
2	0	0	0	0	512	620	
3	0	0	0	0	512	619	
4	0	0	0	0	512	619	
5	0	0	0	0	512	619	
6	0	0	0	0	512	618	
7	0	0	0	0	512	620	
8	0	0	0	0	513	620	
9	0	0	0	0	513	620	
10	0	0	0	0	513	622	
11	0	0	0	0	513	620	
12	0	0	0	0	513	620	
13	0	0	0	0	513	620	
14	0	0	0	0	515	619	
15	0	0	0	0	515	620	
0	0	0	0	0	515	621	
1	0	0	0	0	514	620	
2	0	0	0	0	515	622	
3	0	0	0	0	515	622	
4	0	0	0	0	515	621	
5	0	0	0	0	515	621	
6	0	0	0	0	516	619	
7	0	0	0	0	516	621	
8	0	0	0	0	515	622	
9	0	0	0	0	515	621	
10	0	0	0	0	515	623	
11	0	0	0	0	516	622	
12	0	0	0	0	516	622	
13	0	0	0	0	517	622	
14	0	0	0	0	518	621	
15	0	0	0	0	519	622	
0	0	0	0	0	519	623	
1	0	0	0	0	519	622	
2	0	0	0	0	521	625	
3	0	0	0	0	521	623	
4	0	0	0	0	521	623	
5	0	0	0	0	521	623	
6	0	0	0	0	522	622	
7	0	0	0	0	523	624	
8	0	0	0	0	523	624	
9	0	0	0	0	524	624	
10	0	0	0	0	524	626	
11	0	0	0	0	524	625	
12	0	0	0	0	524	625	
13	0	0	0	0	522	625	
14	0	0	0	0	521	623	
15	0	0	0	0	521	626	
0	0	0	0	0	520	625	
1	0	0	0	0	521	626	
2	0	0	0	0	522	627	
3	0	0	0	0	524	626	
4	0	0	0	0	525	626	
5	0	0	0	0	526	626	
6	0	0	0	0	527	624	
7	0	0	0	0	528	626	
8	0	0	0	0	528	626	
9	0	0	0	0	528	625	
10	0	0	0	0	527	627	
11	0	0	0	0	526	626	
12	0	0	0	0	524	626	
13	0	0	0	0	522	627	
14	0	0	0	0	521	625	
15	0	0	0	0	520	627	
0	0	0	0	0	521	627	
1	0	0	0	0	523	627	
2	0	0	0	0	524	629	
3	0	0	0	0	524	627	
4	0	0	0	0	523	627	
5	0	0	0	0	522	627	
6	0	0	0	0	523	626	
7	0	0	0	0	522	627	
8	0	0	0	0	522	627	
9	0	0	0	0	522	627	
10	0	0	0	0	522	629	
11	0	0	0	0	519	627	
12	0	0	0	0	517	627	
13	0	0	0	0	515	627	
14	0	0	0	0	514	625	
15	0	0	0	0	514	627	
0	0	0	0	0	514	627	
1	0	0	0	0	515	627	
2	0	0	0	0	514	629	
3	0	0	0	0	513	627	
4	0	0	0	0	514	627	
5	0	0	0	0	514	627	
6	0	0	0	0	512	625	
7	0	0	0	0	511	627	
8	0	0	0	0	511	627	
9	0	0	0	0	510	628	
10	0	0	0	0	510	630	
11	0	0	0	0	509	628	
12	0	0	0	0	509	628	
13	0	0	0	0	510	627	
14	0	0	0	0	511	627	
15	0	0	0	0	511	628	
0	0	0	0	0	510	627	
1	0	0	0	0	508	627	
2	0	0	0	0	506	629	
3	0	0	0	0	504	628	
4	0	0	0	0	502	627	
5	0	0	0	0	502	628	
6	0	0	0	0	503	626	
7	0	0	0	0	503	627	
8	0	0	0	0	503	627	
9	0	0	0	0	501	626	
10	0	0	0	0	501	629	
11	0	0	0	0	501	627	
12	0	0	0	0	500	627	
13	0	0	0	0	500	627	
14	0	0	0	0	501	625	
15	0	0	0	0	501	626	
0	0	0	0	0	500	627	
1	0	0	0	0	500	626	
2	0	0	0	0	500	628	
3	0	0	0	0	499	627	
4	0	0	0	0	498	627	
5	0	0	0	0	497	627	
6	0	0	0	0	497	624	
7	0	0	0	0	498	627	
8	0	0	0	0	497	626	
9	0	0	0	0	497	626	
10	0	0	0	0	497	628	
11	0	0	0	0	498	625	
12	0	0	0	0	499	627	
13	0	0	0	0	500	626	
14	0	0	0	0	500	624	
15	0	0	0	0	501	626	
0	0	0	0	0	500	626	
1	0	0	0	0	501	627	
2	0	0	0	0	501	628	
3	0	0	0	0	502	626	
4	0	0	0	0	502	626	
5	0	0	0	0	501	627	
6	0	0	0	0	502	624	
7	0	0	0	0	502	626	
8	0	0	0	0	501	626	
9	0	0	0	0	501	626	
10	0	0	0	0	501	627	
11	0	0	0	0	503	627	
12	0	0	0	0	503	627	
13	0	0	0	0	503	627	
14	0	0	0	0	503	624	
15	0	0	0	0	502	626	
0	0	0	0	0	502	626	
1	0	0	0	0	502	626	
2	0	0	0	0	502	628	
3	0	0	0	0	502	626	
4	0	0	0	0	503	625	
5	0	0	0	0	504	626	
6	0	0	0	0	504	624	
7	0	0	0	0	504	626	
8	0	0	0	0	504	626	
9	0	0	0	0	504	625	
10	0	0	0	0	505	627	
11	0	0	0	0	504	626	
12	0	0	0	0	504	626	
13	0	0	0	0	504	626	
14	0	0	0	0	503	624	
15	0	0	0	0	503	627	
0	0	0	0	0	503	627	
1	0	0	0	0	503	627	
2	0	0	0	0	503	628	
3	0	0	0	0	504	627	
4	0	0	0	0	504	627	
5	0	0	0	0	504	627	
6	0	0	0	0	505	625	
7	0	0	0	0	505	626	
8	0	0	0	0	505	626	
9	0	0	0	0	506	626	
10	0	0	0	0	507	627	
11	0	0	0	0	507	625	
12	0	0	0	0	508	625	
13	0	0	0	0	508	626	
14	0	0	0	0	509	623	
15	0	0	0	0	509	624	
0	0	0	0	0	509	624	
1	0	0	0	0	509	624	
2	0	0	0	0	509	626	
3	0	0	0	0	509	624	
4	0	0	0	0	509	624	
5	0	0	0	0	508	624	
6	0	0	0	0	508	622	
7	0	0	0	0	508	624	
8	0	0	0	0	507	624	
9	0	0	0	0	506	623	
10	0	0	0	0	506	625	
11	0	0	0	0	505	624	
12	0	0	0	0	505	623	
13	0	0	0	0	506	624	
14	0	0	0	0	506	622	
15	0	0	0	0	507	623	
0	0	0	0	0	507	623	
1	0	0	0	0	506	623	
2	0	0	0	0	507	625	
3	0	0	0	0	507	623	
4	0	0	0	0	507	623	
5	0	0	0	0	507	623	
6	0	0	0	0	507	622	
7	0	0	0	0	505	623	
8	0	0	0	0	505	624	
9	0	0	0	0	505	623	
10	0	0	0	0	505	624	
11	0	0	0	0	505	623	
12	0	0	0	0	506	623	
13	0	0	0	0	506	623	
14	0	0	0	0	507	621	
15	0	0	0	0	506	623	
0	0	0	0	0	506	623	
1	0	0	0	0	506	622	
2	0	0	0	0	506	624	
3	0	0	0	0	507	622	
4	0	0	0	0	507	622	
5	0	0	0	0	507	622	
6	0	0	0	0	508	620	
7	0	0	0	0	509	622	
8	0	0	0	0	508	622	
9	0	0	0	0	508	622	
10	0	0	0	0	508	624	
11	0	0	0	0	508	622	
12	0	0	0	0	508	622	
13	0	0	0	0	508	622	
14	0	0	0	0	509	620	
15	0	0	0	0	509	622	
0	0	0	0	0	509	622	
1	0	0	0	0	509	622	
2	0	0	0	0	509	624	
3	0	0	0	0	510	622	
4	0	0	0	0	510	622	
5	0	0	0	0	510	621	
6	0	0	0	0	511	620	
7	0	0	0	0	511	621	
8	0	0	0	0	511	622	
9	0	0	0	0	511	622	
10	0	0	0	0	512	624	
11	0	0	0	0	512	622	
12	0	0	0	0	512	622	
13	0	0	0	0	512	622	
14	0	0	0	0	511	620	
15	0	0	0	0	512	622	
0	0	0	0	0	512	621	
1	0	0	0	0	511	622	
2	0	0	0	0	510	624	
3	0	0	0	0	509	621	
4	0	0	0	0	510	622	
5	0	0	0	0	511	622	
6	0	0	0	0	512	620	
7	0	0	0	0	512	622	
8	0	0	0	0	513	622	
9	0	0	0	0	513	622	
10	0	0	0	0	513	624	
11	0	0	0	0	513	623	
12	0	0	0	0	514	622	
13	0	0	0	0	513	622	
14	0	0	0	0	513	621	
15	0	0	0	0	514	623	
0	0	0	0	0	514	622	
1	0	0	0	0	513	622	
2	0	0	0	0	512	624	
3	0	0	0	0	512	623	
4	0	0	0	0	512	623	
5	0	0	0	0	513	623	
6	0	0	0	0	512	621	
7	0	0	0	0	512	623	
8	0	0	0	0	513	623	
9	0	0	0	0	513	623	
10	0	0	0	0	513	625	
11	0	0	0	0	513	623	
12	0	0	0	0	513	622	
13	0	0	0	0	513	623	
14	0	0	0	0	512	622	
15	0	0	0	0	511	624	
0	0	0	0	0	511	623	
1	0	0	0	0	510	622	
2	0	0	0	0	510	625	
3	0	0	0	0	511	623	
4	0	0	0	0	511	623	
5	0	0	0	0	510	624	
6	0	0	0	0	510	621	
7	0	0	0	0	509	624	
8	0	0	0	0	508	623	
9	0	0	0	0	508	623	
10	0	0	0	0	508	625	
11	0	0	0	0	507	623	
12	0	0	0	0	508	624	
13	0	0	0	0	508	624	
14	0	0	0	0	508	622	
15	0	0	0	0	508	624	
0	0	0	0	0	508	624	
1	0	0	0	0	508	624	
2	0	0	0	0	509	626	
3	0	0	0	0	510	624	
4	0	0	0	0	510	624	
5	0	0	0	0	511	623	
6	0	0	0	0	510	622	
7	0	0	0	0	509	624	
8	0	0	0	0	509	624	
9	0	0	0	0	509	623	
10	0	0	0	0	510	625	
11	0	0	0	0	510	624	
12	0	0	0	0	510	623	
13	0	0	0	0	510	624	
14	0	0	0	0	510	622	
15	0	0	0	0	510	623	
0	0	0	0	0	511	624	
1	0	0	0	0	510	624	
2	0	0	0	0	510	625	
3	0	0	0	0	510	624	
4	0	0	0	0	508	623	
5	0	0	0	0	508	623	
6	0	0	0	0	509	622	
7	0	0	0	0	509	623	
8	0	0	0	0	509	624	
9	0	0	0	0	508	623	
10	0	0	0	0	507	625	
11	0	0	0	0	507	623	
12	0	0	0	0	507	624	
13	0	0	0	0	506	624	
14	0	0	0	0	505	621	
15	0	0	0	0	505	624	
0	0	0	0	0	506	624	
1	0	0	0	0	505	624	
2	0	0	0	0	506	626	
3	0	0	0	0	506	624	
4	0	0	0	0	506	624	
5	0	0	0	0	505	624	
6	0	0	0	0	506	623	
7	0	0	0	0	507	624	
8	0	0	0	0	507	624	
9	0	0	0	0	507	624	
10	0	0	0	0	507	626	
11	0	0	0	0	507	625	
12	0	0	0	0	508	624	
13	0	0	0	0	509	625	
14	0	0	0	0	509	624	
15	0	0	0	0	507	626	
0	0	0	0	0	507	626	
1	0	0	0	0	506	626	
2	0	0	0	0	506	628	
3	0	0	0	0	505	627	
4	0	0	0	0	505	627	
5	0	0	0	0	504	626	
6	0	0	0	0	503	625	
7	0	0	0	0	503	626	
8	0	0	0	0	503	627	
9	0	0	0	0	503	626	
10	0	0	0	0	504	628	
11	0	0	0	0	503	627	
12	0	0	0	0	503	626	
13	0	0	0	0	504	627	
14	0	0	0	0	504	625	
15	0	0	0	0	504	627	
0	0	0	0	0	504	626	
1	0	0	0	0	504	627	
2	0	0	0	0	505	628	
3	0	0	0	0	505	627	
4	0	0	0	0	504	626	
5	0	0	0	0	504	627	
6	0	0	0	0	504	624	
7	0	0	0	0	505	627	
8	0	0	0	0	505	627	
9	0	0	0	0	507	627	
10	0	0	0	0	507	628	
11	0	0	0	0	506	627	
12	0	0	0	0	506	627	
13	0	0	0	0	506	627	
14	0	0	0	0	505	625	
15	0	0	0	0	505	626	
0	0	0	0	0	505	626	
1	0	0	0	0	504	626	
2	0	0	0	0	504	628	
3	0	0	0	0	504	627	
4	0	0	0	0	505	626	
5	0	0	0	0	506	626	
6	0	0	0	0	506	624	
7	0	0	0	0	505	626	
8	0	0	0	0	506	626	
9	0	0	0	0	505	626	
10	0	0	0	0	506	627	
11	0	0	0	0	508	625	
12	0	0	0	0	508	626	
13	0	0	0	0	507	625	
14	0	0	0	0	507	624	
15	0	0	0	0	507	625	
0	0	0	0	0	507	625	
1	0	0	0	0	507	625	
2	0	0	0	0	507	627	
3	0	0	0	0	507	626	
4	0	0	0	0	507	625	
5	0	0	0	0	507	625	
6	0	0	0	0	506	624	
7	0	0	0	0	506	626	
8	0	0	0	0	508	625	
9	0	0	0	0	508	625	
10	0	0	0	0	509	627	
11	0	0	0	0	509	625	
12	0	0	0	0	510	625	
13	0	0	0	0	508	626	
14	0	0	0	0	508	623	
15	0	0	0	0	510	625	
0	0	0	0	0	510	625	
1	0	0	0	0	509	624	
2	0	0	0	0	510	626	
3	0	0	0	0	509	625	
4	0	0	0	0	510	626	
5	0	0	0	0	511	625	
6	0	0	0	0	511	624	
7	0	0	0	0	512	625	
8	0	0	0	0	512	625	
9	0	0	0	0	514	626	
10	0	0	0	0	513	627	
11	0	0	0	0	512	626	
12	0	0	0	0	510	625	
13	0	0	0	0	508	625	
14	0	0	0	0	507	624	
15	0	0	0	0	504	626	
0	0	0	0	0	503	626	
1	0	0	0	0	501	626	
2	0	0	0	0	500	627	
3	0	0	0	0	499	626	
