# OpenSignals Text File Format. Version 1
# {"98:D3:91:FD:59:64": {"position": 0, "device": "bitalino_rev", "device name": "98:D3:91:FD:59:64", "device connection": "BTH98:D3:91:FD:59:64", "sampling rate": 1000, "resolution": [4, 1, 1, 1, 1, 10, 10], "firmware version": 1281, "comments": "", "keywords": "", "mode": 0, "sync interval": 2, "date": "2021-9-15", "time": "12:10:14.833", "channels": [2, 5], "sensor": ["RAW", "RAW"], "label": ["A2", "A5"], "column": ["nSeq", "I1", "I2", "O1", "O2", "A2", "A5"], "special": [{}, {}], "digital IO": [0, 0, 1, 1], "convertedValues": 0}}
# EndOfHeader
0	0	0	0	0	513	620	
1	0	0	0	0	513	624	
2	0	0	0	0	513	624	
3	0	0	0	0	512	624	
4	0	0	0	0	512	627	
5	0	0	0	0	513	624	
6	0	0	0	0	513	624	
7	0	0	0	0	511	624	
8	0	0	0	0	510	620	
9	0	0	0	0	511	624	
10	0	0	0	0	510	624	
11	0	0	0	0	510	623	
12	0	0	0	0	509	627	
13	0	0	0	0	511	624	
14	0	0	0	0	512	624	
15	0	0	0	0	510	624	
0	0	0	0	0	509	620	
1	0	0	0	0	509	624	
2	0	0	0	0	510	624	
3	0	0	0	0	510	624	
4	0	0	0	0	511	628	
5	0	0	0	0	513	624	
6	0	0	0	0	512	625	
7	0	0	0	0	510	624	
8	0	0	0	0	507	620	
9	0	0	0	0	506	624	
10	0	0	0	0	507	624	
11	0	0	0	0	507	625	
12	0	0	0	0	508	628	
13	0	0	0	0	510	625	
14	0	0	0	0	510	625	
15	0	0	0	0	510	625	
0	0	0	0	0	510	621	
1	0	0	0	0	511	625	
2	0	0	0	0	513	625	
3	0	0	0	0	513	625	
4	0	0	0	0	512	628	
5	0	0	0	0	512	625	
6	0	0	0	0	512	624	
7	0	0	0	0	511	624	
8	0	0	0	0	512	621	
9	0	0	0	0	512	625	
10	0	0	0	0	513	625	
11	0	0	0	0	513	625	
12	0	0	0	0	512	629	
13	0	0	0	0	511	625	
14	0	0	0	0	512	624	
15	0	0	0	0	512	625	
0	0	0	0	0	512	621	
1	0	0	0	0	514	625	
2	0	0	0	0	516	625	
3	0	0	0	0	516	626	
4	0	0	0	0	517	629	
5	0	0	0	0	518	626	
6	0	0	0	0	516	625	
7	0	0	0	0	515	625	
8	0	0	0	0	515	621	
9	0	0	0	0	514	625	
10	0	0	0	0	513	625	
11	0	0	0	0	513	626	
12	0	0	0	0	513	629	
13	0	0	0	0	513	626	
14	0	0	0	0	512	625	
15	0	0	0	0	512	625	
0	0	0	0	0	512	621	
1	0	0	0	0	512	625	
2	0	0	0	0	512	625	
3	0	0	0	0	512	625	
4	0	0	0	0	511	629	
5	0	0	0	0	512	625	
6	0	0	0	0	513	625	
7	0	0	0	0	513	625	
8	0	0	0	0	514	620	
9	0	0	0	0	515	624	
10	0	0	0	0	514	625	
11	0	0	0	0	513	624	
12	0	0	0	0	513	628	
13	0	0	0	0	512	625	
14	0	0	0	0	512	625	
15	0	0	0	0	512	624	
0	0	0	0	0	514	620	
1	0	0	0	0	514	624	
2	0	0	0	0	513	624	
3	0	0	0	0	513	624	
4	0	0	0	0	512	628	
5	0	0	0	0	512	624	
6	0	0	0	0	512	624	
7	0	0	0	0	512	624	
8	0	0	0	0	511	621	
9	0	0	0	0	512	624	
10	0	0	0	0	515	625	
11	0	0	0	0	516	625	
12	0	0	0	0	516	627	
13	0	0	0	0	517	624	
14	0	0	0	0	515	624	
15	0	0	0	0	514	624	
0	0	0	0	0	511	620	
1	0	0	0	0	510	624	
2	0	0	0	0	509	624	
3	0	0	0	0	507	624	
4	0	0	0	0	506	627	
5	0	0	0	0	507	624	
6	0	0	0	0	508	624	
7	0	0	0	0	509	624	
8	0	0	0	0	508	620	
9	0	0	0	0	507	624	
10	0	0	0	0	507	624	
11	0	0	0	0	508	624	
12	0	0	0	0	506	627	
13	0	0	0	0	506	624	
14	0	0	0	0	505	624	
15	0	0	0	0	503	625	
0	0	0	0	0	502	620	
1	0	0	0	0	500	624	
2	0	0	0	0	499	624	
3	0	0	0	0	499	624	
4	0	0	0	0	498	628	
5	0	0	0	0	497	624	
6	0	0	0	0	496	625	
7	0	0	0	0	495	625	
8	0	0	0	0	494	621	
9	0	0	0	0	493	625	
10	0	0	0	0	492	625	
11	0	0	0	0	494	625	
12	0	0	0	0	494	629	
13	0	0	0	0	494	625	
14	0	0	0	0	495	625	
15	0	0	0	0	496	625	
0	0	0	0	0	496	621	
1	0	0	0	0	496	625	
2	0	0	0	0	496	625	
3	0	0	0	0	495	625	
4	0	0	0	0	494	629	
5	0	0	0	0	493	625	
6	0	0	0	0	494	625	
7	0	0	0	0	496	625	
8	0	0	0	0	497	621	
9	0	0	0	0	498	625	
10	0	0	0	0	499	624	
11	0	0	0	0	500	625	
12	0	0	0	0	500	628	
13	0	0	0	0	503	625	
14	0	0	0	0	505	625	
15	0	0	0	0	506	625	
0	0	0	0	0	505	622	
1	0	0	0	0	504	626	
2	0	0	0	0	504	625	
3	0	0	0	0	504	626	
4	0	0	0	0	503	628	
5	0	0	0	0	503	624	
6	0	0	0	0	505	625	
7	0	0	0	0	509	625	
8	0	0	0	0	510	621	
9	0	0	0	0	507	625	
10	0	0	0	0	506	625	
11	0	0	0	0	504	625	
12	0	0	0	0	502	628	
13	0	0	0	0	502	625	
14	0	0	0	0	503	624	
15	0	0	0	0	506	624	
0	0	0	0	0	508	620	
1	0	0	0	0	509	625	
2	0	0	0	0	509	624	
3	0	0	0	0	511	624	
4	0	0	0	0	511	628	
5	0	0	0	0	507	624	
6	0	0	0	0	505	624	
7	0	0	0	0	504	624	
8	0	0	0	0	502	620	
9	0	0	0	0	502	624	
10	0	0	0	0	503	624	
11	0	0	0	0	503	624	
12	0	0	0	0	503	627	
13	0	0	0	0	504	623	
14	0	0	0	0	503	624	
15	0	0	0	0	502	623	
0	0	0	0	0	501	620	
1	0	0	0	0	502	623	
2	0	0	0	0	503	624	
3	0	0	0	0	504	623	
4	0	0	0	0	503	626	
5	0	0	0	0	501	623	
6	0	0	0	0	500	622	
7	0	0	0	0	502	622	
8	0	0	0	0	503	619	
9	0	0	0	0	504	622	
10	0	0	0	0	505	622	
11	0	0	0	0	504	622	
12	0	0	0	0	503	625	
13	0	0	0	0	504	622	
14	0	0	0	0	505	622	
15	0	0	0	0	504	622	
0	0	0	0	0	504	618	
1	0	0	0	0	505	622	
2	0	0	0	0	503	622	
3	0	0	0	0	502	622	
4	0	0	0	0	502	625	
5	0	0	0	0	503	622	
6	0	0	0	0	503	622	
7	0	0	0	0	505	622	
8	0	0	0	0	505	619	
9	0	0	0	0	505	622	
10	0	0	0	0	505	623	
11	0	0	0	0	505	623	
12	0	0	0	0	505	627	
13	0	0	0	0	504	623	
14	0	0	0	0	504	623	
15	0	0	0	0	505	623	
0	0	0	0	0	504	618	
1	0	0	0	0	504	623	
2	0	0	0	0	504	623	
3	0	0	0	0	504	623	
4	0	0	0	0	503	626	
5	0	0	0	0	502	623	
6	0	0	0	0	500	623	
7	0	0	0	0	500	623	
8	0	0	0	0	501	620	
9	0	0	0	0	503	623	
10	0	0	0	0	503	623	
11	0	0	0	0	503	624	
12	0	0	0	0	504	627	
13	0	0	0	0	504	624	
14	0	0	0	0	504	624	
15	0	0	0	0	504	624	
0	0	0	0	0	504	620	
1	0	0	0	0	504	624	
2	0	0	0	0	504	624	
3	0	0	0	0	504	625	
4	0	0	0	0	503	628	
5	0	0	0	0	504	624	
6	0	0	0	0	504	624	
7	0	0	0	0	504	625	
8	0	0	0	0	504	621	
9	0	0	0	0	504	625	
10	0	0	0	0	504	625	
11	0	0	0	0	503	625	
12	0	0	0	0	503	629	
13	0	0	0	0	503	625	
14	0	0	0	0	504	625	
15	0	0	0	0	505	625	
0	0	0	0	0	507	622	
1	0	0	0	0	507	625	
2	0	0	0	0	506	625	
3	0	0	0	0	504	625	
4	0	0	0	0	502	629	
5	0	0	0	0	497	625	
6	0	0	0	0	494	625	
7	0	0	0	0	489	625	
8	0	0	0	0	487	621	
9	0	0	0	0	485	625	
10	0	0	0	0	482	625	
11	0	0	0	0	480	626	
12	0	0	0	0	477	629	
13	0	0	0	0	473	625	
14	0	0	0	0	468	625	
15	0	0	0	0	463	624	
0	0	0	0	0	460	621	
1	0	0	0	0	455	625	
2	0	0	0	0	452	625	
3	0	0	0	0	449	625	
4	0	0	0	0	448	629	
5	0	0	0	0	450	625	
6	0	0	0	0	455	625	
7	0	0	0	0	460	625	
8	0	0	0	0	465	621	
9	0	0	0	0	473	625	
10	0	0	0	0	485	625	
11	0	0	0	0	502	625	
12	0	0	0	0	519	628	
13	0	0	0	0	534	625	
14	0	0	0	0	551	625	
15	0	0	0	0	571	624	
0	0	0	0	0	594	621	
1	0	0	0	0	614	625	
2	0	0	0	0	633	625	
3	0	0	0	0	654	625	
4	0	0	0	0	673	628	
5	0	0	0	0	689	624	
6	0	0	0	0	699	624	
7	0	0	0	0	704	624	
8	0	0	0	0	706	620	
9	0	0	0	0	709	624	
10	0	0	0	0	709	624	
11	0	0	0	0	708	624	
12	0	0	0	0	702	627	
13	0	0	0	0	695	624	
14	0	0	0	0	686	624	
15	0	0	0	0	677	624	
0	0	0	0	0	666	620	
1	0	0	0	0	652	624	
2	0	0	0	0	639	624	
3	0	0	0	0	629	624	
4	0	0	0	0	624	627	
5	0	0	0	0	621	624	
6	0	0	0	0	617	624	
7	0	0	0	0	610	623	
8	0	0	0	0	600	619	
9	0	0	0	0	588	624	
10	0	0	0	0	574	624	
11	0	0	0	0	560	623	
12	0	0	0	0	545	627	
13	0	0	0	0	532	623	
14	0	0	0	0	521	623	
15	0	0	0	0	513	623	
0	0	0	0	0	508	619	
1	0	0	0	0	502	623	
2	0	0	0	0	497	623	
3	0	0	0	0	491	623	
4	0	0	0	0	486	627	
5	0	0	0	0	480	623	
6	0	0	0	0	474	624	
7	0	0	0	0	471	624	
8	0	0	0	0	469	620	
9	0	0	0	0	466	623	
10	0	0	0	0	464	624	
11	0	0	0	0	463	624	
12	0	0	0	0	461	627	
13	0	0	0	0	459	624	
14	0	0	0	0	456	624	
15	0	0	0	0	454	624	
0	0	0	0	0	451	620	
1	0	0	0	0	450	625	
2	0	0	0	0	448	625	
3	0	0	0	0	447	625	
4	0	0	0	0	447	628	
5	0	0	0	0	446	624	
6	0	0	0	0	445	624	
7	0	0	0	0	444	624	
8	0	0	0	0	444	621	
9	0	0	0	0	444	624	
10	0	0	0	0	443	624	
11	0	0	0	0	442	624	
12	0	0	0	0	440	628	
13	0	0	0	0	440	624	
14	0	0	0	0	441	625	
15	0	0	0	0	440	624	
0	0	0	0	0	440	620	
1	0	0	0	0	440	624	
2	0	0	0	0	440	624	
3	0	0	0	0	439	625	
4	0	0	0	0	440	628	
5	0	0	0	0	440	625	
6	0	0	0	0	440	625	
7	0	0	0	0	439	625	
8	0	0	0	0	438	620	
9	0	0	0	0	439	624	
10	0	0	0	0	440	625	
11	0	0	0	0	440	625	
12	0	0	0	0	441	627	
13	0	0	0	0	442	625	
14	0	0	0	0	443	625	
15	0	0	0	0	442	624	
0	0	0	0	0	442	620	
1	0	0	0	0	442	625	
2	0	0	0	0	443	624	
3	0	0	0	0	443	624	
4	0	0	0	0	444	628	
5	0	0	0	0	445	624	
6	0	0	0	0	445	624	
7	0	0	0	0	446	624	
8	0	0	0	0	445	620	
9	0	0	0	0	447	625	
10	0	0	0	0	449	624	
11	0	0	0	0	449	625	
12	0	0	0	0	449	628	
13	0	0	0	0	448	624	
14	0	0	0	0	448	625	
15	0	0	0	0	448	625	
0	0	0	0	0	449	620	
1	0	0	0	0	450	624	
2	0	0	0	0	451	624	
3	0	0	0	0	452	624	
4	0	0	0	0	452	628	
5	0	0	0	0	453	625	
6	0	0	0	0	453	624	
7	0	0	0	0	454	624	
8	0	0	0	0	454	620	
9	0	0	0	0	455	624	
10	0	0	0	0	455	625	
11	0	0	0	0	455	624	
12	0	0	0	0	456	628	
13	0	0	0	0	457	624	
14	0	0	0	0	457	624	
15	0	0	0	0	458	624	
0	0	0	0	0	459	620	
1	0	0	0	0	460	624	
2	0	0	0	0	461	624	
3	0	0	0	0	462	624	
4	0	0	0	0	462	627	
5	0	0	0	0	463	624	
6	0	0	0	0	463	624	
7	0	0	0	0	463	624	
8	0	0	0	0	464	620	
9	0	0	0	0	464	624	
10	0	0	0	0	466	624	
11	0	0	0	0	467	624	
12	0	0	0	0	468	627	
13	0	0	0	0	468	624	
14	0	0	0	0	468	624	
15	0	0	0	0	467	624	
0	0	0	0	0	466	621	
1	0	0	0	0	466	624	
2	0	0	0	0	465	624	
3	0	0	0	0	466	624	
4	0	0	0	0	465	627	
5	0	0	0	0	465	624	
6	0	0	0	0	464	624	
7	0	0	0	0	464	624	
8	0	0	0	0	464	620	
9	0	0	0	0	464	624	
10	0	0	0	0	465	624	
11	0	0	0	0	466	624	
12	0	0	0	0	466	628	
13	0	0	0	0	466	624	
14	0	0	0	0	465	623	
15	0	0	0	0	465	624	
0	0	0	0	0	466	620	
1	0	0	0	0	467	623	
2	0	0	0	0	465	624	
3	0	0	0	0	465	624	
4	0	0	0	0	467	627	
5	0	0	0	0	467	624	
6	0	0	0	0	467	624	
7	0	0	0	0	467	624	
8	0	0	0	0	467	621	
9	0	0	0	0	467	624	
10	0	0	0	0	467	624	
11	0	0	0	0	466	624	
12	0	0	0	0	465	627	
13	0	0	0	0	464	624	
14	0	0	0	0	463	624	
15	0	0	0	0	464	624	
0	0	0	0	0	464	620	
1	0	0	0	0	465	625	
2	0	0	0	0	465	624	
3	0	0	0	0	465	624	
4	0	0	0	0	464	628	
5	0	0	0	0	464	624	
6	0	0	0	0	465	624	
7	0	0	0	0	467	624	
8	0	0	0	0	468	620	
9	0	0	0	0	468	624	
10	0	0	0	0	467	624	
11	0	0	0	0	467	624	
12	0	0	0	0	466	628	
13	0	0	0	0	465	625	
14	0	0	0	0	464	625	
15	0	0	0	0	463	624	
0	0	0	0	0	463	620	
1	0	0	0	0	463	625	
2	0	0	0	0	462	625	
3	0	0	0	0	461	625	
4	0	0	0	0	460	628	
5	0	0	0	0	460	624	
6	0	0	0	0	459	624	
7	0	0	0	0	459	624	
8	0	0	0	0	458	620	
9	0	0	0	0	457	624	
10	0	0	0	0	458	624	
11	0	0	0	0	459	624	
12	0	0	0	0	460	628	
13	0	0	0	0	462	625	
14	0	0	0	0	462	625	
15	0	0	0	0	462	625	
0	0	0	0	0	462	620	
1	0	0	0	0	463	624	
2	0	0	0	0	463	625	
3	0	0	0	0	464	624	
4	0	0	0	0	466	628	
5	0	0	0	0	466	624	
6	0	0	0	0	466	625	
7	0	0	0	0	466	624	
8	0	0	0	0	467	620	
9	0	0	0	0	467	624	
10	0	0	0	0	468	624	
11	0	0	0	0	470	624	
12	0	0	0	0	471	628	
13	0	0	0	0	470	624	
14	0	0	0	0	471	624	
15	0	0	0	0	473	625	
0	0	0	0	0	472	621	
1	0	0	0	0	474	624	
2	0	0	0	0	475	624	
3	0	0	0	0	475	624	
4	0	0	0	0	476	628	
5	0	0	0	0	479	625	
6	0	0	0	0	481	624	
7	0	0	0	0	482	624	
8	0	0	0	0	483	620	
9	0	0	0	0	485	624	
10	0	0	0	0	487	624	
11	0	0	0	0	488	624	
12	0	0	0	0	489	628	
13	0	0	0	0	489	625	
14	0	0	0	0	487	625	
15	0	0	0	0	488	624	
0	0	0	0	0	488	620	
1	0	0	0	0	489	624	
2	0	0	0	0	489	624	
3	0	0	0	0	491	625	
4	0	0	0	0	494	628	
5	0	0	0	0	496	624	
6	0	0	0	0	498	624	
7	0	0	0	0	500	624	
8	0	0	0	0	502	620	
9	0	0	0	0	503	624	
10	0	0	0	0	502	624	
11	0	0	0	0	504	624	
12	0	0	0	0	506	628	
13	0	0	0	0	509	624	
14	0	0	0	0	508	624	
15	0	0	0	0	509	625	
0	0	0	0	0	510	621	
1	0	0	0	0	511	624	
2	0	0	0	0	513	624	
3	0	0	0	0	515	624	
4	0	0	0	0	515	627	
5	0	0	0	0	515	624	
6	0	0	0	0	516	624	
7	0	0	0	0	518	624	
8	0	0	0	0	519	621	
9	0	0	0	0	520	625	
10	0	0	0	0	520	625	
11	0	0	0	0	523	625	
12	0	0	0	0	524	628	
13	0	0	0	0	526	624	
14	0	0	0	0	524	624	
15	0	0	0	0	523	624	
0	0	0	0	0	523	621	
1	0	0	0	0	524	625	
2	0	0	0	0	523	624	
3	0	0	0	0	523	624	
4	0	0	0	0	523	628	
5	0	0	0	0	524	625	
6	0	0	0	0	524	624	
7	0	0	0	0	525	624	
8	0	0	0	0	527	621	
9	0	0	0	0	528	625	
10	0	0	0	0	529	625	
11	0	0	0	0	531	625	
12	0	0	0	0	530	628	
13	0	0	0	0	529	625	
14	0	0	0	0	527	625	
15	0	0	0	0	528	625	
0	0	0	0	0	528	621	
1	0	0	0	0	528	625	
2	0	0	0	0	529	625	
3	0	0	0	0	530	624	
4	0	0	0	0	530	628	
5	0	0	0	0	530	624	
6	0	0	0	0	529	624	
7	0	0	0	0	531	624	
8	0	0	0	0	531	620	
9	0	0	0	0	532	625	
10	0	0	0	0	532	624	
11	0	0	0	0	533	625	
12	0	0	0	0	533	628	
13	0	0	0	0	534	624	
14	0	0	0	0	534	624	
15	0	0	0	0	534	624	
0	0	0	0	0	535	620	
1	0	0	0	0	536	624	
2	0	0	0	0	537	625	
3	0	0	0	0	536	625	
4	0	0	0	0	535	628	
5	0	0	0	0	536	624	
6	0	0	0	0	536	624	
7	0	0	0	0	536	623	
8	0	0	0	0	536	620	
9	0	0	0	0	536	624	
10	0	0	0	0	535	624	
11	0	0	0	0	535	624	
12	0	0	0	0	535	628	
13	0	0	0	0	535	624	
14	0	0	0	0	535	625	
15	0	0	0	0	535	624	
0	0	0	0	0	535	620	
1	0	0	0	0	536	624	
2	0	0	0	0	536	625	
3	0	0	0	0	535	625	
4	0	0	0	0	534	628	
5	0	0	0	0	535	624	
6	0	0	0	0	535	624	
7	0	0	0	0	535	624	
8	0	0	0	0	536	620	
9	0	0	0	0	536	624	
10	0	0	0	0	535	624	
11	0	0	0	0	536	624	
12	0	0	0	0	536	628	
13	0	0	0	0	536	624	
14	0	0	0	0	536	624	
15	0	0	0	0	536	624	
0	0	0	0	0	536	620	
1	0	0	0	0	535	624	
2	0	0	0	0	534	624	
3	0	0	0	0	533	624	
4	0	0	0	0	534	627	
5	0	0	0	0	532	624	
6	0	0	0	0	534	624	
7	0	0	0	0	535	624	
8	0	0	0	0	534	620	
9	0	0	0	0	534	624	
10	0	0	0	0	533	624	
11	0	0	0	0	532	624	
12	0	0	0	0	531	627	
13	0	0	0	0	531	624	
14	0	0	0	0	530	624	
15	0	0	0	0	531	624	
0	0	0	0	0	531	620	
1	0	0	0	0	529	623	
2	0	0	0	0	528	624	
3	0	0	0	0	528	624	
4	0	0	0	0	529	627	
5	0	0	0	0	528	624	
6	0	0	0	0	527	624	
7	0	0	0	0	527	624	
8	0	0	0	0	527	620	
9	0	0	0	0	528	624	
10	0	0	0	0	529	623	
11	0	0	0	0	529	624	
12	0	0	0	0	529	627	
13	0	0	0	0	530	623	
14	0	0	0	0	529	623	
15	0	0	0	0	528	623	
0	0	0	0	0	527	619	
1	0	0	0	0	526	624	
2	0	0	0	0	525	624	
3	0	0	0	0	524	624	
4	0	0	0	0	525	627	
5	0	0	0	0	526	623	
6	0	0	0	0	526	624	
7	0	0	0	0	526	624	
8	0	0	0	0	526	620	
9	0	0	0	0	525	624	
10	0	0	0	0	525	624	
11	0	0	0	0	526	624	
12	0	0	0	0	526	627	
13	0	0	0	0	528	624	
14	0	0	0	0	527	623	
15	0	0	0	0	526	623	
0	0	0	0	0	524	620	
1	0	0	0	0	522	624	
2	0	0	0	0	520	624	
3	0	0	0	0	519	624	
4	0	0	0	0	519	628	
5	0	0	0	0	519	624	
6	0	0	0	0	519	624	
7	0	0	0	0	518	625	
8	0	0	0	0	518	621	
9	0	0	0	0	518	624	
10	0	0	0	0	519	624	
11	0	0	0	0	519	625	
12	0	0	0	0	519	628	
13	0	0	0	0	520	625	
14	0	0	0	0	520	625	
15	0	0	0	0	520	625	
0	0	0	0	0	520	621	
1	0	0	0	0	519	625	
2	0	0	0	0	518	625	
3	0	0	0	0	518	624	
4	0	0	0	0	518	628	
5	0	0	0	0	519	625	
6	0	0	0	0	519	625	
7	0	0	0	0	520	625	
8	0	0	0	0	521	622	
9	0	0	0	0	521	625	
10	0	0	0	0	521	625	
11	0	0	0	0	521	625	
12	0	0	0	0	521	629	
13	0	0	0	0	520	625	
14	0	0	0	0	519	625	
15	0	0	0	0	517	625	
0	0	0	0	0	517	622	
1	0	0	0	0	519	626	
2	0	0	0	0	521	625	
3	0	0	0	0	522	626	
4	0	0	0	0	523	629	
5	0	0	0	0	524	625	
6	0	0	0	0	524	625	
7	0	0	0	0	521	625	
8	0	0	0	0	519	622	
9	0	0	0	0	518	626	
10	0	0	0	0	516	626	
11	0	0	0	0	514	626	
12	0	0	0	0	513	629	
13	0	0	0	0	513	625	
14	0	0	0	0	512	625	
15	0	0	0	0	512	625	
0	0	0	0	0	512	621	
1	0	0	0	0	513	625	
2	0	0	0	0	514	625	
3	0	0	0	0	514	625	
4	0	0	0	0	513	629	
5	0	0	0	0	513	624	
6	0	0	0	0	513	625	
7	0	0	0	0	513	625	
8	0	0	0	0	513	621	
9	0	0	0	0	513	625	
10	0	0	0	0	515	625	
11	0	0	0	0	515	625	
12	0	0	0	0	512	628	
13	0	0	0	0	511	625	
14	0	0	0	0	512	625	
15	0	0	0	0	511	625	
0	0	0	0	0	511	621	
1	0	0	0	0	510	625	
2	0	0	0	0	509	624	
3	0	0	0	0	510	625	
4	0	0	0	0	511	628	
5	0	0	0	0	512	624	
6	0	0	0	0	512	624	
7	0	0	0	0	511	624	
8	0	0	0	0	512	620	
9	0	0	0	0	512	624	
10	0	0	0	0	513	624	
11	0	0	0	0	514	624	
12	0	0	0	0	513	627	
13	0	0	0	0	512	624	
14	0	0	0	0	512	624	
15	0	0	0	0	512	624	
0	0	0	0	0	512	620	
1	0	0	0	0	512	624	
2	0	0	0	0	512	624	
3	0	0	0	0	512	625	
4	0	0	0	0	513	627	
5	0	0	0	0	514	624	
6	0	0	0	0	514	624	
7	0	0	0	0	512	624	
8	0	0	0	0	513	621	
9	0	0	0	0	514	624	
10	0	0	0	0	515	624	
11	0	0	0	0	515	624	
12	0	0	0	0	513	628	
13	0	0	0	0	515	624	
14	0	0	0	0	515	624	
15	0	0	0	0	514	624	
0	0	0	0	0	514	620	
1	0	0	0	0	513	624	
2	0	0	0	0	515	624	
3	0	0	0	0	515	624	
4	0	0	0	0	515	628	
5	0	0	0	0	516	624	
6	0	0	0	0	517	624	
7	0	0	0	0	517	624	
8	0	0	0	0	518	621	
9	0	0	0	0	516	625	
10	0	0	0	0	515	625	
11	0	0	0	0	515	625	
12	0	0	0	0	517	629	
13	0	0	0	0	517	625	
14	0	0	0	0	515	625	
15	0	0	0	0	515	625	
0	0	0	0	0	515	621	
1	0	0	0	0	516	626	
2	0	0	0	0	516	626	
3	0	0	0	0	515	625	
4	0	0	0	0	514	628	
5	0	0	0	0	513	626	
6	0	0	0	0	513	626	
7	0	0	0	0	514	626	
8	0	0	0	0	513	622	
9	0	0	0	0	514	626	
10	0	0	0	0	513	625	
11	0	0	0	0	513	625	
12	0	0	0	0	513	629	
13	0	0	0	0	511	625	
14	0	0	0	0	510	625	
15	0	0	0	0	512	625	
0	0	0	0	0	514	621	
1	0	0	0	0	513	625	
2	0	0	0	0	512	625	
3	0	0	0	0	512	625	
4	0	0	0	0	511	627	
5	0	0	0	0	510	624	
6	0	0	0	0	511	624	
7	0	0	0	0	511	624	
8	0	0	0	0	512	620	
9	0	0	0	0	512	623	
10	0	0	0	0	513	624	
11	0	0	0	0	514	623	
12	0	0	0	0	514	627	
13	0	0	0	0	513	623	
14	0	0	0	0	512	623	
15	0	0	0	0	513	623	
0	0	0	0	0	513	619	
1	0	0	0	0	513	623	
2	0	0	0	0	513	622	
3	0	0	0	0	512	623	
4	0	0	0	0	512	626	
5	0	0	0	0	512	622	
6	0	0	0	0	511	623	
7	0	0	0	0	511	622	
8	0	0	0	0	511	618	
9	0	0	0	0	511	622	
10	0	0	0	0	514	622	
11	0	0	0	0	515	622	
12	0	0	0	0	514	625	
13	0	0	0	0	514	622	
14	0	0	0	0	512	622	
15	0	0	0	0	512	622	
0	0	0	0	0	511	618	
1	0	0	0	0	511	622	
2	0	0	0	0	510	622	
3	0	0	0	0	510	622	
4	0	0	0	0	511	625	
5	0	0	0	0	510	622	
6	0	0	0	0	510	622	
7	0	0	0	0	511	622	
8	0	0	0	0	512	618	
9	0	0	0	0	512	622	
10	0	0	0	0	512	622	
11	0	0	0	0	512	622	
12	0	0	0	0	511	626	
13	0	0	0	0	511	622	
14	0	0	0	0	512	622	
15	0	0	0	0	512	622	
0	0	0	0	0	511	618	
1	0	0	0	0	511	622	
2	0	0	0	0	511	623	
3	0	0	0	0	511	623	
4	0	0	0	0	512	627	
5	0	0	0	0	512	624	
6	0	0	0	0	511	624	
7	0	0	0	0	510	623	
8	0	0	0	0	511	620	
9	0	0	0	0	511	623	
10	0	0	0	0	511	624	
11	0	0	0	0	511	624	
12	0	0	0	0	510	627	
13	0	0	0	0	511	624	
14	0	0	0	0	511	624	
15	0	0	0	0	510	624	
0	0	0	0	0	509	620	
1	0	0	0	0	509	624	
2	0	0	0	0	509	624	
3	0	0	0	0	509	624	
4	0	0	0	0	510	627	
5	0	0	0	0	509	624	
6	0	0	0	0	509	624	
7	0	0	0	0	509	624	
8	0	0	0	0	509	620	
9	0	0	0	0	510	624	
10	0	0	0	0	509	625	
11	0	0	0	0	509	625	
12	0	0	0	0	508	628	
13	0	0	0	0	509	625	
14	0	0	0	0	509	625	
15	0	0	0	0	508	624	
0	0	0	0	0	507	620	
1	0	0	0	0	507	625	
2	0	0	0	0	507	624	
3	0	0	0	0	506	625	
4	0	0	0	0	505	628	
5	0	0	0	0	505	625	
6	0	0	0	0	505	624	
7	0	0	0	0	504	625	
8	0	0	0	0	503	621	
9	0	0	0	0	502	625	
10	0	0	0	0	501	625	
11	0	0	0	0	501	624	
12	0	0	0	0	499	629	
13	0	0	0	0	498	625	
14	0	0	0	0	499	624	
15	0	0	0	0	499	624	
0	0	0	0	0	500	621	
1	0	0	0	0	498	625	
2	0	0	0	0	497	624	
3	0	0	0	0	497	625	
4	0	0	0	0	498	627	
5	0	0	0	0	500	624	
6	0	0	0	0	499	624	
7	0	0	0	0	498	624	
8	0	0	0	0	497	620	
9	0	0	0	0	495	625	
10	0	0	0	0	497	624	
11	0	0	0	0	497	625	
12	0	0	0	0	498	629	
13	0	0	0	0	499	625	
14	0	0	0	0	500	625	
15	0	0	0	0	502	624	
0	0	0	0	0	503	621	
1	0	0	0	0	503	625	
2	0	0	0	0	503	624	
3	0	0	0	0	500	625	
4	0	0	0	0	499	627	
5	0	0	0	0	500	624	
6	0	0	0	0	503	624	
7	0	0	0	0	507	624	
8	0	0	0	0	508	620	
9	0	0	0	0	510	625	
10	0	0	0	0	511	624	
11	0	0	0	0	512	624	
12	0	0	0	0	511	628	
13	0	0	0	0	511	624	
14	0	0	0	0	511	624	
15	0	0	0	0	512	624	
0	0	0	0	0	511	620	
1	0	0	0	0	508	624	
2	0	0	0	0	507	624	
3	0	0	0	0	508	625	
4	0	0	0	0	508	628	
5	0	0	0	0	508	624	
6	0	0	0	0	508	624	
7	0	0	0	0	508	624	
8	0	0	0	0	508	621	
9	0	0	0	0	508	624	
10	0	0	0	0	507	624	
11	0	0	0	0	506	624	
12	0	0	0	0	506	628	
13	0	0	0	0	506	624	
14	0	0	0	0	506	624	
15	0	0	0	0	505	624	
0	0	0	0	0	505	620	
1	0	0	0	0	505	624	
2	0	0	0	0	505	624	
3	0	0	0	0	506	624	
4	0	0	0	0	507	627	
5	0	0	0	0	506	624	
6	0	0	0	0	507	624	
7	0	0	0	0	508	624	
8	0	0	0	0	509	620	
9	0	0	0	0	510	624	
10	0	0	0	0	510	623	
11	0	0	0	0	511	624	
12	0	0	0	0	512	627	
13	0	0	0	0	512	624	
14	0	0	0	0	514	624	
15	0	0	0	0	514	623	
0	0	0	0	0	513	620	
1	0	0	0	0	512	624	
2	0	0	0	0	511	624	
3	0	0	0	0	509	624	
4	0	0	0	0	509	627	
5	0	0	0	0	510	624	
6	0	0	0	0	510	624	
7	0	0	0	0	511	624	
8	0	0	0	0	511	620	
9	0	0	0	0	512	624	
10	0	0	0	0	514	624	
11	0	0	0	0	513	625	
12	0	0	0	0	511	628	
13	0	0	0	0	512	625	
14	0	0	0	0	512	625	
15	0	0	0	0	513	625	
0	0	0	0	0	512	621	
1	0	0	0	0	510	624	
2	0	0	0	0	509	625	
3	0	0	0	0	511	625	
4	0	0	0	0	511	628	
5	0	0	0	0	511	625	
6	0	0	0	0	512	625	
7	0	0	0	0	514	625	
8	0	0	0	0	513	621	
9	0	0	0	0	512	625	
10	0	0	0	0	512	626	
11	0	0	0	0	511	625	
12	0	0	0	0	510	629	
13	0	0	0	0	510	625	
14	0	0	0	0	510	625	
15	0	0	0	0	511	625	
0	0	0	0	0	511	622	
1	0	0	0	0	509	626	
2	0	0	0	0	509	625	
3	0	0	0	0	512	626	
4	0	0	0	0	513	629	
5	0	0	0	0	512	625	
6	0	0	0	0	514	627	
7	0	0	0	0	515	627	
8	0	0	0	0	515	622	
9	0	0	0	0	514	627	
10	0	0	0	0	513	627	
11	0	0	0	0	512	627	
12	0	0	0	0	512	631	
13	0	0	0	0	512	628	
14	0	0	0	0	512	628	
15	0	0	0	0	512	628	
0	0	0	0	0	513	624	
1	0	0	0	0	513	628	
2	0	0	0	0	512	628	
3	0	0	0	0	509	628	
4	0	0	0	0	508	631	
5	0	0	0	0	508	627	
6	0	0	0	0	508	627	
7	0	0	0	0	508	626	
8	0	0	0	0	508	622	
9	0	0	0	0	509	625	
10	0	0	0	0	510	626	
11	0	0	0	0	510	626	
12	0	0	0	0	510	629	
13	0	0	0	0	510	625	
14	0	0	0	0	508	625	
15	0	0	0	0	507	625	
0	0	0	0	0	507	621	
1	0	0	0	0	503	624	
2	0	0	0	0	499	624	
3	0	0	0	0	496	624	
4	0	0	0	0	493	627	
5	0	0	0	0	491	624	
6	0	0	0	0	488	624	
7	0	0	0	0	486	623	
8	0	0	0	0	482	620	
9	0	0	0	0	478	624	
10	0	0	0	0	473	624	
11	0	0	0	0	468	623	
12	0	0	0	0	463	627	
13	0	0	0	0	460	623	
14	0	0	0	0	458	623	
15	0	0	0	0	457	623	
0	0	0	0	0	457	619	
1	0	0	0	0	458	624	
2	0	0	0	0	461	623	
3	0	0	0	0	467	623	
4	0	0	0	0	474	627	
5	0	0	0	0	482	624	
6	0	0	0	0	493	623	
7	0	0	0	0	508	623	
8	0	0	0	0	525	619	
9	0	0	0	0	542	622	
10	0	0	0	0	561	623	
11	0	0	0	0	582	624	
12	0	0	0	0	606	627	
13	0	0	0	0	626	624	
14	0	0	0	0	645	624	
15	0	0	0	0	665	623	
0	0	0	0	0	684	620	
1	0	0	0	0	703	624	
2	0	0	0	0	716	623	
3	0	0	0	0	725	623	
4	0	0	0	0	731	627	
5	0	0	0	0	735	623	
6	0	0	0	0	737	623	
7	0	0	0	0	736	622	
8	0	0	0	0	731	619	
9	0	0	0	0	724	623	
10	0	0	0	0	714	623	
11	0	0	0	0	703	623	
12	0	0	0	0	690	627	
13	0	0	0	0	676	623	
14	0	0	0	0	663	623	
15	0	0	0	0	652	623	
0	0	0	0	0	645	620	
1	0	0	0	0	639	623	
2	0	0	0	0	632	623	
3	0	0	0	0	624	622	
4	0	0	0	0	612	626	
5	0	0	0	0	599	622	
6	0	0	0	0	584	622	
7	0	0	0	0	567	622	
8	0	0	0	0	548	618	
9	0	0	0	0	535	623	
10	0	0	0	0	525	623	
11	0	0	0	0	517	623	
12	0	0	0	0	511	626	
13	0	0	0	0	505	623	
14	0	0	0	0	500	623	
15	0	0	0	0	496	623	
0	0	0	0	0	492	619	
1	0	0	0	0	487	623	
2	0	0	0	0	482	623	
3	0	0	0	0	478	622	
4	0	0	0	0	474	626	
5	0	0	0	0	471	623	
6	0	0	0	0	469	623	
7	0	0	0	0	468	623	
8	0	0	0	0	467	619	
9	0	0	0	0	465	623	
10	0	0	0	0	463	623	
11	0	0	0	0	460	623	
12	0	0	0	0	457	627	
13	0	0	0	0	455	623	
14	0	0	0	0	451	623	
15	0	0	0	0	451	623	
0	0	0	0	0	451	619	
1	0	0	0	0	450	623	
2	0	0	0	0	449	623	
3	0	0	0	0	449	623	
4	0	0	0	0	448	627	
5	0	0	0	0	448	623	
6	0	0	0	0	448	623	
7	0	0	0	0	449	623	
8	0	0	0	0	449	619	
9	0	0	0	0	447	623	
10	0	0	0	0	446	623	
11	0	0	0	0	446	624	
12	0	0	0	0	446	627	
13	0	0	0	0	447	623	
14	0	0	0	0	448	624	
15	0	0	0	0	448	624	
0	0	0	0	0	447	620	
1	0	0	0	0	447	624	
2	0	0	0	0	448	624	
3	0	0	0	0	449	624	
4	0	0	0	0	449	627	
5	0	0	0	0	450	624	
6	0	0	0	0	451	624	
7	0	0	0	0	451	623	
8	0	0	0	0	451	620	
9	0	0	0	0	451	624	
10	0	0	0	0	452	623	
11	0	0	0	0	452	624	
12	0	0	0	0	452	627	
13	0	0	0	0	454	624	
14	0	0	0	0	454	624	
15	0	0	0	0	454	623	
0	0	0	0	0	454	620	
1	0	0	0	0	453	623	
2	0	0	0	0	454	624	
3	0	0	0	0	456	624	
4	0	0	0	0	456	626	
5	0	0	0	0	457	624	
6	0	0	0	0	458	624	
7	0	0	0	0	459	624	
8	0	0	0	0	460	620	
9	0	0	0	0	460	623	
10	0	0	0	0	459	624	
11	0	0	0	0	458	624	
12	0	0	0	0	459	627	
13	0	0	0	0	458	624	
14	0	0	0	0	460	624	
15	0	0	0	0	460	624	
0	0	0	0	0	463	620	
1	0	0	0	0	463	624	
2	0	0	0	0	464	624	
3	0	0	0	0	465	624	
4	0	0	0	0	466	627	
5	0	0	0	0	469	624	
6	0	0	0	0	468	624	
7	0	0	0	0	467	624	
8	0	0	0	0	465	621	
9	0	0	0	0	466	624	
10	0	0	0	0	465	624	
11	0	0	0	0	464	625	
12	0	0	0	0	464	628	
13	0	0	0	0	464	624	
14	0	0	0	0	465	624	
15	0	0	0	0	466	624	
0	0	0	0	0	467	620	
1	0	0	0	0	467	624	
2	0	0	0	0	467	624	
3	0	0	0	0	466	625	
4	0	0	0	0	465	628	
5	0	0	0	0	465	625	
6	0	0	0	0	465	625	
7	0	0	0	0	465	625	
8	0	0	0	0	465	621	
9	0	0	0	0	465	625	
10	0	0	0	0	465	624	
11	0	0	0	0	465	624	
12	0	0	0	0	466	628	
13	0	0	0	0	467	625	
14	0	0	0	0	468	625	
15	0	0	0	0	469	624	
0	0	0	0	0	468	621	
1	0	0	0	0	469	625	
2	0	0	0	0	470	624	
3	0	0	0	0	469	625	
4	0	0	0	0	468	628	
5	0	0	0	0	468	625	
6	0	0	0	0	467	625	
7	0	0	0	0	469	624	
8	0	0	0	0	468	621	
9	0	0	0	0	469	624	
10	0	0	0	0	470	625	
11	0	0	0	0	470	624	
12	0	0	0	0	470	628	
13	0	0	0	0	472	625	
14	0	0	0	0	471	625	
15	0	0	0	0	472	625	
0	0	0	0	0	472	621	
1	0	0	0	0	472	624	
2	0	0	0	0	472	625	
3	0	0	0	0	470	625	
4	0	0	0	0	469	628	
5	0	0	0	0	471	624	
6	0	0	0	0	470	625	
7	0	0	0	0	471	625	
8	0	0	0	0	472	620	
9	0	0	0	0	471	625	
10	0	0	0	0	470	625	
11	0	0	0	0	471	625	
12	0	0	0	0	470	628	
13	0	0	0	0	471	625	
14	0	0	0	0	471	625	
15	0	0	0	0	472	624	
0	0	0	0	0	472	620	
1	0	0	0	0	472	625	
2	0	0	0	0	471	624	
3	0	0	0	0	470	625	
4	0	0	0	0	467	627	
5	0	0	0	0	467	625	
6	0	0	0	0	468	624	
7	0	0	0	0	469	624	
8	0	0	0	0	470	620	
9	0	0	0	0	471	624	
10	0	0	0	0	470	624	
11	0	0	0	0	469	624	
12	0	0	0	0	469	628	
13	0	0	0	0	469	624	
14	0	0	0	0	470	624	
15	0	0	0	0	470	623	
0	0	0	0	0	471	619	
1	0	0	0	0	472	624	
2	0	0	0	0	471	624	
3	0	0	0	0	468	624	
4	0	0	0	0	467	627	
5	0	0	0	0	467	624	
6	0	0	0	0	466	624	
7	0	0	0	0	466	623	
8	0	0	0	0	466	620	
9	0	0	0	0	467	624	
10	0	0	0	0	467	623	
11	0	0	0	0	467	624	
12	0	0	0	0	469	627	
13	0	0	0	0	470	624	
14	0	0	0	0	471	623	
15	0	0	0	0	472	623	
0	0	0	0	0	473	620	
1	0	0	0	0	474	624	
2	0	0	0	0	473	624	
3	0	0	0	0	474	624	
4	0	0	0	0	476	627	
5	0	0	0	0	477	624	
6	0	0	0	0	478	623	
7	0	0	0	0	479	623	
8	0	0	0	0	479	620	
9	0	0	0	0	479	624	
10	0	0	0	0	478	624	
11	0	0	0	0	480	624	
12	0	0	0	0	481	626	
13	0	0	0	0	482	623	
14	0	0	0	0	484	623	
15	0	0	0	0	486	623	
0	0	0	0	0	487	619	
1	0	0	0	0	488	623	
2	0	0	0	0	488	623	
3	0	0	0	0	488	623	
4	0	0	0	0	489	627	
5	0	0	0	0	492	623	
6	0	0	0	0	493	622	
7	0	0	0	0	495	623	
8	0	0	0	0	496	619	
9	0	0	0	0	496	623	
10	0	0	0	0	496	622	
11	0	0	0	0	495	623	
12	0	0	0	0	496	627	
13	0	0	0	0	497	623	
14	0	0	0	0	497	622	
15	0	0	0	0	501	622	
0	0	0	0	0	504	619	
1	0	0	0	0	504	623	
2	0	0	0	0	505	623	
3	0	0	0	0	506	623	
4	0	0	0	0	509	626	
5	0	0	0	0	511	623	
6	0	0	0	0	512	623	
7	0	0	0	0	513	623	
8	0	0	0	0	513	619	
9	0	0	0	0	513	623	
10	0	0	0	0	512	624	
11	0	0	0	0	512	624	
12	0	0	0	0	512	627	
13	0	0	0	0	513	624	
14	0	0	0	0	515	623	
15	0	0	0	0	519	624	
0	0	0	0	0	522	620	
1	0	0	0	0	522	624	
2	0	0	0	0	523	624	
3	0	0	0	0	523	625	
4	0	0	0	0	524	628	
5	0	0	0	0	524	625	
6	0	0	0	0	524	624	
7	0	0	0	0	526	624	
8	0	0	0	0	525	621	
9	0	0	0	0	523	625	
10	0	0	0	0	521	625	
11	0	0	0	0	520	626	
12	0	0	0	0	521	630	
13	0	0	0	0	521	625	
14	0	0	0	0	521	625	
15	0	0	0	0	522	625	
0	0	0	0	0	522	622	
1	0	0	0	0	524	625	
2	0	0	0	0	525	625	
3	0	0	0	0	526	626	
4	0	0	0	0	526	630	
5	0	0	0	0	527	626	
6	0	0	0	0	527	625	
7	0	0	0	0	527	626	
8	0	0	0	0	527	621	
9	0	0	0	0	526	625	
10	0	0	0	0	526	625	
11	0	0	0	0	525	626	
12	0	0	0	0	526	630	
13	0	0	0	0	527	625	
14	0	0	0	0	527	626	
15	0	0	0	0	527	625	
0	0	0	0	0	528	621	
1	0	0	0	0	529	625	
2	0	0	0	0	529	625	
3	0	0	0	0	531	625	
4	0	0	0	0	531	629	
5	0	0	0	0	531	625	
6	0	0	0	0	531	625	
7	0	0	0	0	532	625	
8	0	0	0	0	531	621	
9	0	0	0	0	529	625	
10	0	0	0	0	529	624	
11	0	0	0	0	530	625	
12	0	0	0	0	529	628	
13	0	0	0	0	531	625	
14	0	0	0	0	533	624	
15	0	0	0	0	533	625	
0	0	0	0	0	533	621	
1	0	0	0	0	532	625	
2	0	0	0	0	532	624	
3	0	0	0	0	532	624	
4	0	0	0	0	532	627	
5	0	0	0	0	533	624	
6	0	0	0	0	534	625	
7	0	0	0	0	533	624	
8	0	0	0	0	532	621	
9	0	0	0	0	530	624	
10	0	0	0	0	529	624	
11	0	0	0	0	529	625	
12	0	0	0	0	529	628	
13	0	0	0	0	530	624	
14	0	0	0	0	531	624	
15	0	0	0	0	531	624	
0	0	0	0	0	531	621	
1	0	0	0	0	531	624	
2	0	0	0	0	531	624	
3	0	0	0	0	532	624	
4	0	0	0	0	531	627	
5	0	0	0	0	531	624	
6	0	0	0	0	531	624	
7	0	0	0	0	530	624	
8	0	0	0	0	530	620	
9	0	0	0	0	528	624	
10	0	0	0	0	528	624	
11	0	0	0	0	528	624	
12	0	0	0	0	529	627	
13	0	0	0	0	529	624	
14	0	0	0	0	529	624	
15	0	0	0	0	528	624	
0	0	0	0	0	528	620	
1	0	0	0	0	528	624	
2	0	0	0	0	528	624	
3	0	0	0	0	528	624	
4	0	0	0	0	528	627	
5	0	0	0	0	528	624	
6	0	0	0	0	528	624	
7	0	0	0	0	528	624	
8	0	0	0	0	527	620	
9	0	0	0	0	526	624	
10	0	0	0	0	526	624	
11	0	0	0	0	526	625	
12	0	0	0	0	526	628	
13	0	0	0	0	527	624	
14	0	0	0	0	527	625	
15	0	0	0	0	527	624	
0	0	0	0	0	527	621	
1	0	0	0	0	526	625	
2	0	0	0	0	525	624	
3	0	0	0	0	525	624	
4	0	0	0	0	524	628	
5	0	0	0	0	524	624	
6	0	0	0	0	523	624	
7	0	0	0	0	523	624	
8	0	0	0	0	524	620	
9	0	0	0	0	524	624	
10	0	0	0	0	523	624	
11	0	0	0	0	523	624	
12	0	0	0	0	524	628	
13	0	0	0	0	524	625	
14	0	0	0	0	524	624	
15	0	0	0	0	524	624	
0	0	0	0	0	524	620	
1	0	0	0	0	524	624	
2	0	0	0	0	524	624	
3	0	0	0	0	523	625	
4	0	0	0	0	522	628	
5	0	0	0	0	521	625	
6	0	0	0	0	521	624	
7	0	0	0	0	522	624	
8	0	0	0	0	522	620	
9	0	0	0	0	521	624	
10	0	0	0	0	521	624	
11	0	0	0	0	521	624	
12	0	0	0	0	521	627	
13	0	0	0	0	521	623	
14	0	0	0	0	521	624	
15	0	0	0	0	521	624	
0	0	0	0	0	520	620	
1	0	0	0	0	520	624	
2	0	0	0	0	520	624	
3	0	0	0	0	520	624	
4	0	0	0	0	519	627	
5	0	0	0	0	519	624	
6	0	0	0	0	518	624	
7	0	0	0	0	517	624	
8	0	0	0	0	517	620	
9	0	0	0	0	517	624	
10	0	0	0	0	517	624	
11	0	0	0	0	517	624	
12	0	0	0	0	516	627	
13	0	0	0	0	516	624	
14	0	0	0	0	515	624	
15	0	0	0	0	516	624	
0	0	0	0	0	516	620	
1	0	0	0	0	516	624	
2	0	0	0	0	516	624	
3	0	0	0	0	516	624	
4	0	0	0	0	516	627	
5	0	0	0	0	516	623	
6	0	0	0	0	517	624	
7	0	0	0	0	517	623	
8	0	0	0	0	516	620	
9	0	0	0	0	517	623	
10	0	0	0	0	516	623	
11	0	0	0	0	517	623	
12	0	0	0	0	518	627	
13	0	0	0	0	519	623	
14	0	0	0	0	517	623	
15	0	0	0	0	517	623	
0	0	0	0	0	516	619	
1	0	0	0	0	517	623	
2	0	0	0	0	517	623	
3	0	0	0	0	518	623	
4	0	0	0	0	518	627	
5	0	0	0	0	518	623	
6	0	0	0	0	517	623	
7	0	0	0	0	516	623	
8	0	0	0	0	517	620	
9	0	0	0	0	518	623	
10	0	0	0	0	518	624	
11	0	0	0	0	518	624	
12	0	0	0	0	518	627	
13	0	0	0	0	518	623	
14	0	0	0	0	518	623	
15	0	0	0	0	519	623	
0	0	0	0	0	519	620	
1	0	0	0	0	520	623	
2	0	0	0	0	520	623	
3	0	0	0	0	520	624	
4	0	0	0	0	520	627	
5	0	0	0	0	520	623	
6	0	0	0	0	521	623	
7	0	0	0	0	520	624	
8	0	0	0	0	520	620	
9	0	0	0	0	520	624	
10	0	0	0	0	521	623	
11	0	0	0	0	521	624	
12	0	0	0	0	522	627	
13	0	0	0	0	522	624	
14	0	0	0	0	522	624	
15	0	0	0	0	523	624	
0	0	0	0	0	522	620	
1	0	0	0	0	522	624	
2	0	0	0	0	521	624	
3	0	0	0	0	520	624	
4	0	0	0	0	521	627	
5	0	0	0	0	521	624	
6	0	0	0	0	521	624	
7	0	0	0	0	521	624	
8	0	0	0	0	521	620	
9	0	0	0	0	521	624	
10	0	0	0	0	519	625	
11	0	0	0	0	520	625	
12	0	0	0	0	520	628	
13	0	0	0	0	519	625	
14	0	0	0	0	520	625	
15	0	0	0	0	520	625	
0	0	0	0	0	520	621	
1	0	0	0	0	521	625	
2	0	0	0	0	521	625	
3	0	0	0	0	521	625	
4	0	0	0	0	522	628	
5	0	0	0	0	522	625	
6	0	0	0	0	521	625	
7	0	0	0	0	520	625	
8	0	0	0	0	520	621	
9	0	0	0	0	520	624	
10	0	0	0	0	520	624	
11	0	0	0	0	521	625	
12	0	0	0	0	522	628	
13	0	0	0	0	523	625	
14	0	0	0	0	524	625	
15	0	0	0	0	524	625	
0	0	0	0	0	523	622	
1	0	0	0	0	523	625	
2	0	0	0	0	524	625	
3	0	0	0	0	524	625	
4	0	0	0	0	523	628	
5	0	0	0	0	523	625	
6	0	0	0	0	524	625	
7	0	0	0	0	523	625	
8	0	0	0	0	523	621	
9	0	0	0	0	522	625	
10	0	0	0	0	521	624	
11	0	0	0	0	522	625	
12	0	0	0	0	523	627	
13	0	0	0	0	524	624	
14	0	0	0	0	524	624	
15	0	0	0	0	524	624	
0	0	0	0	0	523	620	
1	0	0	0	0	521	624	
2	0	0	0	0	520	624	
3	0	0	0	0	519	624	
4	0	0	0	0	520	627	
5	0	0	0	0	521	624	
6	0	0	0	0	521	624	
7	0	0	0	0	520	623	
8	0	0	0	0	521	620	
9	0	0	0	0	521	624	
10	0	0	0	0	521	624	
11	0	0	0	0	521	624	
12	0	0	0	0	521	627	
13	0	0	0	0	520	623	
14	0	0	0	0	519	623	
15	0	0	0	0	520	624	
0	0	0	0	0	519	620	
1	0	0	0	0	519	623	
2	0	0	0	0	518	624	
3	0	0	0	0	519	624	
4	0	0	0	0	520	627	
5	0	0	0	0	521	624	
6	0	0	0	0	521	624	
7	0	0	0	0	521	624	
8	0	0	0	0	521	621	
9	0	0	0	0	522	624	
10	0	0	0	0	522	625	
11	0	0	0	0	522	624	
12	0	0	0	0	522	628	
13	0	0	0	0	522	625	
14	0	0	0	0	521	625	
15	0	0	0	0	521	625	
0	0	0	0	0	520	620	
1	0	0	0	0	519	625	
2	0	0	0	0	520	624	
3	0	0	0	0	520	625	
4	0	0	0	0	521	628	
5	0	0	0	0	521	625	
6	0	0	0	0	520	625	
7	0	0	0	0	520	625	
8	0	0	0	0	520	621	
9	0	0	0	0	520	625	
10	0	0	0	0	520	625	
11	0	0	0	0	519	625	
12	0	0	0	0	519	629	
13	0	0	0	0	520	625	
14	0	0	0	0	518	625	
15	0	0	0	0	519	625	
0	0	0	0	0	520	622	
1	0	0	0	0	519	625	
2	0	0	0	0	519	625	
3	0	0	0	0	520	625	
4	0	0	0	0	521	628	
5	0	0	0	0	521	625	
6	0	0	0	0	522	624	
7	0	0	0	0	523	625	
8	0	0	0	0	525	621	
9	0	0	0	0	526	625	
10	0	0	0	0	526	625	
11	0	0	0	0	524	625	
12	0	0	0	0	524	629	
13	0	0	0	0	521	625	
14	0	0	0	0	520	625	
15	0	0	0	0	520	625	
0	0	0	0	0	520	621	
1	0	0	0	0	521	625	
2	0	0	0	0	521	624	
3	0	0	0	0	520	625	
4	0	0	0	0	520	628	
5	0	0	0	0	520	625	
6	0	0	0	0	519	624	
7	0	0	0	0	518	624	
8	0	0	0	0	516	620	
9	0	0	0	0	516	624	
10	0	0	0	0	516	624	
11	0	0	0	0	516	625	
12	0	0	0	0	515	629	
13	0	0	0	0	515	625	
14	0	0	0	0	516	624	
15	0	0	0	0	515	624	
0	0	0	0	0	515	621	
1	0	0	0	0	516	624	
2	0	0	0	0	515	624	
3	0	0	0	0	515	624	
4	0	0	0	0	515	628	
5	0	0	0	0	514	624	
6	0	0	0	0	514	624	
7	0	0	0	0	515	624	
8	0	0	0	0	515	620	
9	0	0	0	0	516	624	
10	0	0	0	0	517	625	
11	0	0	0	0	515	625	
12	0	0	0	0	515	627	
13	0	0	0	0	515	624	
14	0	0	0	0	515	624	
15	0	0	0	0	514	624	
0	0	0	0	0	514	620	
1	0	0	0	0	515	624	
2	0	0	0	0	515	624	
3	0	0	0	0	514	624	
4	0	0	0	0	513	627	
5	0	0	0	0	511	624	
6	0	0	0	0	510	624	
7	0	0	0	0	511	624	
8	0	0	0	0	510	620	
9	0	0	0	0	509	624	
10	0	0	0	0	508	624	
11	0	0	0	0	509	624	
12	0	0	0	0	509	627	
13	0	0	0	0	508	624	
14	0	0	0	0	508	624	
15	0	0	0	0	508	624	
0	0	0	0	0	508	620	
1	0	0	0	0	508	623	
2	0	0	0	0	508	623	
3	0	0	0	0	508	623	
4	0	0	0	0	509	627	
5	0	0	0	0	509	623	
6	0	0	0	0	508	624	
7	0	0	0	0	508	624	
8	0	0	0	0	510	620	
9	0	0	0	0	511	623	
10	0	0	0	0	511	623	
11	0	0	0	0	511	624	
12	0	0	0	0	510	627	
13	0	0	0	0	510	624	
14	0	0	0	0	510	624	
15	0	0	0	0	510	623	
0	0	0	0	0	511	620	
1	0	0	0	0	512	624	
2	0	0	0	0	512	624	
3	0	0	0	0	513	624	
4	0	0	0	0	513	627	
5	0	0	0	0	513	624	
6	0	0	0	0	513	624	
7	0	0	0	0	513	624	
8	0	0	0	0	514	620	
9	0	0	0	0	515	624	
10	0	0	0	0	515	625	
11	0	0	0	0	515	624	
12	0	0	0	0	517	628	
13	0	0	0	0	518	624	
14	0	0	0	0	517	624	
15	0	0	0	0	516	624	
0	0	0	0	0	514	620	
1	0	0	0	0	514	624	
2	0	0	0	0	514	624	
3	0	0	0	0	514	624	
4	0	0	0	0	515	628	
5	0	0	0	0	514	624	
6	0	0	0	0	513	624	
7	0	0	0	0	513	624	
8	0	0	0	0	513	620	
9	0	0	0	0	512	625	
10	0	0	0	0	512	625	
11	0	0	0	0	513	624	
12	0	0	0	0	513	628	
13	0	0	0	0	514	624	
14	0	0	0	0	514	624	
15	0	0	0	0	514	625	
0	0	0	0	0	514	621	
1	0	0	0	0	515	624	
2	0	0	0	0	515	624	
3	0	0	0	0	515	625	
4	0	0	0	0	515	628	
5	0	0	0	0	515	625	
6	0	0	0	0	516	624	
7	0	0	0	0	516	625	
8	0	0	0	0	515	620	
9	0	0	0	0	515	624	
10	0	0	0	0	515	625	
11	0	0	0	0	516	625	
12	0	0	0	0	516	628	
13	0	0	0	0	515	624	
14	0	0	0	0	515	625	
15	0	0	0	0	515	625	
0	0	0	0	0	515	621	
1	0	0	0	0	515	625	
2	0	0	0	0	515	625	
3	0	0	0	0	516	625	
4	0	0	0	0	518	629	
5	0	0	0	0	519	625	
6	0	0	0	0	519	625	
7	0	0	0	0	519	625	
8	0	0	0	0	519	621	
9	0	0	0	0	519	625	
10	0	0	0	0	519	625	
11	0	0	0	0	519	625	
12	0	0	0	0	519	629	
13	0	0	0	0	520	624	
14	0	0	0	0	520	625	
15	0	0	0	0	519	625	
0	0	0	0	0	518	621	
1	0	0	0	0	516	624	
2	0	0	0	0	516	625	
3	0	0	0	0	516	625	
4	0	0	0	0	517	628	
5	0	0	0	0	516	625	
6	0	0	0	0	515	625	
7	0	0	0	0	516	625	
8	0	0	0	0	515	621	
9	0	0	0	0	515	625	
10	0	0	0	0	515	625	
11	0	0	0	0	515	625	
12	0	0	0	0	515	628	
13	0	0	0	0	515	624	
14	0	0	0	0	515	624	
15	0	0	0	0	514	625	
0	0	0	0	0	513	621	
1	0	0	0	0	514	624	
2	0	0	0	0	514	624	
3	0	0	0	0	515	624	
4	0	0	0	0	515	627	
5	0	0	0	0	515	624	
6	0	0	0	0	515	624	
7	0	0	0	0	514	624	
8	0	0	0	0	515	620	
9	0	0	0	0	513	623	
10	0	0	0	0	513	623	
11	0	0	0	0	512	624	
12	0	0	0	0	512	627	
13	0	0	0	0	512	624	
14	0	0	0	0	512	623	
15	0	0	0	0	512	624	
0	0	0	0	0	511	620	
1	0	0	0	0	511	624	
2	0	0	0	0	510	624	
3	0	0	0	0	512	624	
4	0	0	0	0	513	627	
5	0	0	0	0	513	624	
6	0	0	0	0	513	624	
7	0	0	0	0	513	624	
8	0	0	0	0	514	620	
9	0	0	0	0	514	624	
10	0	0	0	0	513	624	
11	0	0	0	0	512	624	
12	0	0	0	0	512	627	
13	0	0	0	0	513	624	
14	0	0	0	0	514	624	
15	0	0	0	0	512	624	
0	0	0	0	0	511	620	
1	0	0	0	0	508	624	
2	0	0	0	0	504	624	
3	0	0	0	0	500	625	
4	0	0	0	0	495	628	
5	0	0	0	0	492	624	
6	0	0	0	0	488	624	
7	0	0	0	0	484	624	
8	0	0	0	0	483	620	
9	0	0	0	0	481	625	
10	0	0	0	0	478	624	
11	0	0	0	0	474	624	
12	0	0	0	0	470	627	
13	0	0	0	0	466	624	
14	0	0	0	0	463	624	
15	0	0	0	0	460	624	
0	0	0	0	0	456	621	
1	0	0	0	0	455	624	
2	0	0	0	0	458	624	
3	0	0	0	0	463	625	
4	0	0	0	0	469	628	
5	0	0	0	0	477	624	
6	0	0	0	0	486	625	
7	0	0	0	0	498	624	
8	0	0	0	0	512	620	
9	0	0	0	0	527	625	
10	0	0	0	0	542	625	
11	0	0	0	0	561	625	
12	0	0	0	0	581	628	
13	0	0	0	0	602	625	
14	0	0	0	0	621	625	
15	0	0	0	0	639	625	
0	0	0	0	0	658	621	
1	0	0	0	0	675	625	
2	0	0	0	0	686	625	
3	0	0	0	0	693	625	
4	0	0	0	0	699	628	
5	0	0	0	0	704	625	
6	0	0	0	0	708	624	
7	0	0	0	0	711	624	
8	0	0	0	0	708	620	
9	0	0	0	0	704	624	
10	0	0	0	0	696	625	
11	0	0	0	0	688	625	
12	0	0	0	0	677	628	
13	0	0	0	0	664	625	
14	0	0	0	0	652	625	
15	0	0	0	0	642	625	
0	0	0	0	0	635	621	
1	0	0	0	0	629	625	
2	0	0	0	0	621	625	
3	0	0	0	0	611	625	
4	0	0	0	0	600	628	
5	0	0	0	0	588	625	
6	0	0	0	0	574	625	
7	0	0	0	0	559	625	
8	0	0	0	0	543	621	
9	0	0	0	0	531	625	
10	0	0	0	0	524	624	
11	0	0	0	0	518	624	
12	0	0	0	0	514	628	
13	0	0	0	0	510	624	
14	0	0	0	0	506	624	
15	0	0	0	0	503	623	
0	0	0	0	0	499	620	
1	0	0	0	0	495	624	
2	0	0	0	0	492	624	
3	0	0	0	0	488	624	
4	0	0	0	0	484	627	
5	0	0	0	0	480	623	
6	0	0	0	0	476	623	
7	0	0	0	0	473	623	
8	0	0	0	0	470	619	
9	0	0	0	0	467	623	
10	0	0	0	0	465	623	
11	0	0	0	0	463	624	
12	0	0	0	0	461	627	
13	0	0	0	0	459	623	
14	0	0	0	0	458	623	
15	0	0	0	0	457	623	
0	0	0	0	0	456	619	
1	0	0	0	0	455	623	
2	0	0	0	0	455	623	
3	0	0	0	0	455	624	
4	0	0	0	0	453	627	
5	0	0	0	0	453	624	
6	0	0	0	0	452	624	
7	0	0	0	0	451	623	
8	0	0	0	0	450	620	
9	0	0	0	0	449	624	
10	0	0	0	0	450	624	
11	0	0	0	0	451	624	
12	0	0	0	0	451	627	
13	0	0	0	0	452	624	
14	0	0	0	0	452	624	
15	0	0	0	0	453	624	
0	0	0	0	0	454	621	
1	0	0	0	0	454	625	
2	0	0	0	0	454	625	
3	0	0	0	0	454	625	
4	0	0	0	0	455	629	
5	0	0	0	0	455	625	
6	0	0	0	0	454	625	
7	0	0	0	0	453	625	
8	0	0	0	0	452	622	
9	0	0	0	0	452	626	
10	0	0	0	0	452	626	
11	0	0	0	0	453	626	
12	0	0	0	0	453	630	
13	0	0	0	0	454	626	
14	0	0	0	0	456	627	
15	0	0	0	0	456	626	
0	0	0	0	0	456	623	
1	0	0	0	0	455	627	
2	0	0	0	0	455	627	
3	0	0	0	0	455	627	
4	0	0	0	0	455	631	
5	0	0	0	0	456	627	
6	0	0	0	0	457	627	
7	0	0	0	0	458	627	
8	0	0	0	0	460	624	
9	0	0	0	0	460	627	
10	0	0	0	0	461	627	
11	0	0	0	0	460	627	
12	0	0	0	0	460	630	
13	0	0	0	0	459	627	
14	0	0	0	0	459	627	
15	0	0	0	0	460	627	
0	0	0	0	0	460	622	
1	0	0	0	0	461	626	
2	0	0	0	0	461	626	
3	0	0	0	0	461	625	
4	0	0	0	0	461	629	
5	0	0	0	0	462	624	
6	0	0	0	0	461	623	
7	0	0	0	0	460	623	
8	0	0	0	0	460	619	
9	0	0	0	0	460	623	
10	0	0	0	0	460	622	
11	0	0	0	0	459	622	
12	0	0	0	0	460	625	
13	0	0	0	0	460	622	
14	0	0	0	0	460	621	
15	0	0	0	0	462	620	
0	0	0	0	0	463	616	
1	0	0	0	0	464	619	
2	0	0	0	0	464	620	
3	0	0	0	0	464	619	
4	0	0	0	0	465	623	
5	0	0	0	0	465	618	
6	0	0	0	0	466	619	
7	0	0	0	0	466	619	
8	0	0	0	0	467	615	
9	0	0	0	0	467	618	
10	0	0	0	0	468	619	
11	0	0	0	0	469	619	
12	0	0	0	0	470	622	
13	0	0	0	0	470	619	
14	0	0	0	0	469	619	
15	0	0	0	0	468	618	
0	0	0	0	0	468	615	
1	0	0	0	0	467	619	
2	0	0	0	0	467	619	
3	0	0	0	0	467	619	
4	0	0	0	0	467	622	
5	0	0	0	0	467	619	
6	0	0	0	0	467	619	
7	0	0	0	0	468	620	
8	0	0	0	0	468	615	
9	0	0	0	0	467	619	
10	0	0	0	0	466	619	
11	0	0	0	0	464	620	
12	0	0	0	0	465	624	
13	0	0	0	0	465	621	
14	0	0	0	0	465	621	
15	0	0	0	0	465	621	
0	0	0	0	0	465	617	
1	0	0	0	0	464	622	
2	0	0	0	0	464	622	
3	0	0	0	0	465	623	
4	0	0	0	0	465	626	
5	0	0	0	0	466	623	
6	0	0	0	0	466	623	
7	0	0	0	0	466	624	
8	0	0	0	0	465	620	
9	0	0	0	0	466	625	
10	0	0	0	0	465	625	
11	0	0	0	0	465	625	
12	0	0	0	0	465	629	
13	0	0	0	0	467	626	
14	0	0	0	0	467	626	
15	0	0	0	0	467	627	
0	0	0	0	0	467	623	
1	0	0	0	0	467	627	
2	0	0	0	0	468	627	
3	0	0	0	0	468	627	
4	0	0	0	0	467	632	
5	0	0	0	0	467	628	
6	0	0	0	0	468	628	
7	0	0	0	0	468	628	
8	0	0	0	0	468	624	
9	0	0	0	0	467	628	
10	0	0	0	0	468	629	
11	0	0	0	0	468	629	
12	0	0	0	0	468	632	
13	0	0	0	0	468	629	
14	0	0	0	0	468	629	
15	0	0	0	0	468	630	
0	0	0	0	0	468	625	
1	0	0	0	0	468	630	
2	0	0	0	0	468	630	
3	0	0	0	0	468	630	
4	0	0	0	0	468	633	
5	0	0	0	0	469	629	
6	0	0	0	0	468	629	
7	0	0	0	0	468	629	
8	0	0	0	0	470	625	
9	0	0	0	0	471	629	
10	0	0	0	0	471	629	
11	0	0	0	0	470	628	
12	0	0	0	0	470	632	
13	0	0	0	0	470	628	
14	0	0	0	0	470	628	
15	0	0	0	0	471	628	
0	0	0	0	0	472	624	
1	0	0	0	0	473	627	
2	0	0	0	0	473	628	
3	0	0	0	0	474	627	
4	0	0	0	0	476	630	
5	0	0	0	0	476	627	
6	0	0	0	0	478	627	
7	0	0	0	0	477	625	
8	0	0	0	0	479	622	
9	0	0	0	0	481	626	
10	0	0	0	0	481	625	
11	0	0	0	0	482	625	
12	0	0	0	0	483	628	
13	0	0	0	0	483	625	
14	0	0	0	0	484	624	
15	0	0	0	0	485	624	
0	0	0	0	0	485	620	
1	0	0	0	0	486	624	
2	0	0	0	0	487	624	
3	0	0	0	0	488	624	
4	0	0	0	0	489	627	
5	0	0	0	0	489	624	
6	0	0	0	0	489	623	
7	0	0	0	0	490	623	
8	0	0	0	0	492	620	
9	0	0	0	0	493	623	
10	0	0	0	0	494	622	
11	0	0	0	0	495	623	
12	0	0	0	0	495	627	
13	0	0	0	0	496	623	
14	0	0	0	0	497	622	
15	0	0	0	0	498	623	
0	0	0	0	0	498	618	
1	0	0	0	0	499	623	
2	0	0	0	0	501	622	
3	0	0	0	0	501	623	
4	0	0	0	0	502	626	
5	0	0	0	0	504	622	
6	0	0	0	0	505	622	
7	0	0	0	0	507	621	
8	0	0	0	0	508	618	
9	0	0	0	0	509	622	
10	0	0	0	0	509	623	
11	0	0	0	0	510	623	
12	0	0	0	0	512	625	
13	0	0	0	0	513	622	
14	0	0	0	0	514	623	
15	0	0	0	0	515	623	
0	0	0	0	0	515	619	
1	0	0	0	0	516	622	
2	0	0	0	0	516	623	
3	0	0	0	0	517	623	
4	0	0	0	0	518	626	
5	0	0	0	0	518	623	
6	0	0	0	0	519	623	
7	0	0	0	0	520	623	
8	0	0	0	0	521	619	
9	0	0	0	0	522	623	
10	0	0	0	0	523	624	
11	0	0	0	0	523	624	
12	0	0	0	0	523	627	
13	0	0	0	0	523	624	
14	0	0	0	0	523	623	
15	0	0	0	0	522	624	
0	0	0	0	0	521	620	
1	0	0	0	0	521	623	
2	0	0	0	0	521	624	
3	0	0	0	0	522	624	
4	0	0	0	0	522	627	
5	0	0	0	0	522	624	
6	0	0	0	0	523	623	
7	0	0	0	0	525	624	
8	0	0	0	0	524	620	
9	0	0	0	0	523	624	
10	0	0	0	0	523	624	
11	0	0	0	0	522	624	
12	0	0	0	0	521	628	
13	0	0	0	0	521	624	
14	0	0	0	0	522	624	
15	0	0	0	0	522	624	
0	0	0	0	0	523	620	
1	0	0	0	0	522	624	
2	0	0	0	0	521	624	
3	0	0	0	0	521	625	
4	0	0	0	0	521	627	
5	0	0	0	0	521	624	
6	0	0	0	0	521	624	
7	0	0	0	0	520	624	
8	0	0	0	0	520	620	
9	0	0	0	0	520	625	
10	0	0	0	0	520	624	
11	0	0	0	0	521	624	
12	0	0	0	0	521	627	
13	0	0	0	0	521	624	
14	0	0	0	0	521	624	
15	0	0	0	0	522	624	
0	0	0	0	0	522	621	
1	0	0	0	0	522	624	
2	0	0	0	0	521	625	
3	0	0	0	0	521	625	
4	0	0	0	0	520	628	
5	0	0	0	0	520	625	
6	0	0	0	0	519	624	
7	0	0	0	0	519	624	
8	0	0	0	0	519	621	
9	0	0	0	0	519	625	
10	0	0	0	0	519	625	
11	0	0	0	0	519	626	
12	0	0	0	0	519	628	
13	0	0	0	0	520	625	
14	0	0	0	0	519	625	
15	0	0	0	0	519	625	
0	0	0	0	0	519	622	
1	0	0	0	0	519	625	
2	0	0	0	0	518	625	
3	0	0	0	0	518	626	
4	0	0	0	0	518	629	
5	0	0	0	0	518	625	
6	0	0	0	0	517	626	
7	0	0	0	0	517	626	
8	0	0	0	0	518	622	
9	0	0	0	0	519	626	
10	0	0	0	0	520	626	
11	0	0	0	0	519	625	
12	0	0	0	0	520	628	
13	0	0	0	0	520	625	
14	0	0	0	0	521	626	
15	0	0	0	0	521	626	
0	0	0	0	0	521	622	
1	0	0	0	0	521	625	
2	0	0	0	0	520	625	
3	0	0	0	0	519	625	
4	0	0	0	0	518	629	
5	0	0	0	0	518	625	
6	0	0	0	0	517	626	
7	0	0	0	0	516	625	
8	0	0	0	0	516	621	
9	0	0	0	0	516	626	
10	0	0	0	0	515	625	
11	0	0	0	0	515	625	
12	0	0	0	0	516	628	
13	0	0	0	0	517	625	
14	0	0	0	0	518	624	
15	0	0	0	0	519	624	
0	0	0	0	0	519	620	
1	0	0	0	0	519	624	
2	0	0	0	0	518	624	
3	0	0	0	0	516	623	
4	0	0	0	0	516	627	
5	0	0	0	0	515	623	
6	0	0	0	0	515	624	
7	0	0	0	0	516	624	
8	0	0	0	0	517	620	
9	0	0	0	0	519	623	
10	0	0	0	0	519	623	
11	0	0	0	0	517	623	
12	0	0	0	0	514	626	
13	0	0	0	0	513	623	
14	0	0	0	0	512	622	
15	0	0	0	0	512	623	
0	0	0	0	0	512	618	
1	0	0	0	0	512	623	
2	0	0	0	0	513	623	
3	0	0	0	0	513	623	
4	0	0	0	0	513	626	
5	0	0	0	0	513	623	
6	0	0	0	0	513	623	
7	0	0	0	0	513	623	
8	0	0	0	0	513	619	
9	0	0	0	0	513	622	
10	0	0	0	0	513	623	
11	0	0	0	0	513	623	
12	0	0	0	0	513	626	
13	0	0	0	0	513	623	
14	0	0	0	0	512	623	
15	0	0	0	0	512	623	
0	0	0	0	0	511	619	
1	0	0	0	0	511	623	
2	0	0	0	0	511	623	
3	0	0	0	0	511	623	
4	0	0	0	0	511	627	
5	0	0	0	0	512	623	
6	0	0	0	0	512	623	
7	0	0	0	0	512	623	
8	0	0	0	0	512	620	
9	0	0	0	0	510	623	
10	0	0	0	0	509	623	
11	0	0	0	0	510	623	
12	0	0	0	0	510	627	
13	0	0	0	0	510	623	
14	0	0	0	0	510	624	
15	0	0	0	0	510	624	
0	0	0	0	0	510	619	
1	0	0	0	0	511	624	
2	0	0	0	0	511	623	
3	0	0	0	0	511	624	
4	0	0	0	0	512	627	
5	0	0	0	0	512	624	
6	0	0	0	0	512	624	
7	0	0	0	0	512	624	
8	0	0	0	0	512	620	
9	0	0	0	0	512	625	
10	0	0	0	0	512	625	
11	0	0	0	0	513	624	
12	0	0	0	0	513	627	
13	0	0	0	0	514	625	
14	0	0	0	0	513	624	
15	0	0	0	0	513	624	
0	0	0	0	0	513	620	
1	0	0	0	0	511	625	
2	0	0	0	0	511	624	
3	0	0	0	0	512	624	
4	0	0	0	0	513	627	
5	0	0	0	0	513	624	
6	0	0	0	0	514	624	
7	0	0	0	0	514	624	
8	0	0	0	0	514	621	
9	0	0	0	0	513	625	
10	0	0	0	0	514	624	
11	0	0	0	0	513	625	
12	0	0	0	0	512	628	
13	0	0	0	0	513	625	
14	0	0	0	0	513	625	
15	0	0	0	0	513	624	
0	0	0	0	0	513	621	
1	0	0	0	0	513	625	
2	0	0	0	0	513	625	
3	0	0	0	0	513	625	
4	0	0	0	0	513	628	
5	0	0	0	0	513	625	
6	0	0	0	0	513	625	
7	0	0	0	0	513	625	
8	0	0	0	0	514	621	
9	0	0	0	0	515	625	
10	0	0	0	0	515	624	
11	0	0	0	0	517	624	
12	0	0	0	0	518	628	
13	0	0	0	0	518	624	
14	0	0	0	0	517	624	
15	0	0	0	0	516	624	
0	0	0	0	0	515	621	
1	0	0	0	0	515	624	
2	0	0	0	0	514	624	
3	0	0	0	0	514	624	
4	0	0	0	0	515	628	
5	0	0	0	0	515	624	
6	0	0	0	0	515	624	
7	0	0	0	0	515	624	
8	0	0	0	0	516	620	
9	0	0	0	0	517	624	
10	0	0	0	0	518	624	
11	0	0	0	0	518	624	
12	0	0	0	0	517	627	
13	0	0	0	0	518	624	
14	0	0	0	0	519	624	
15	0	0	0	0	518	624	
0	0	0	0	0	516	620	
1	0	0	0	0	516	624	
2	0	0	0	0	515	624	
3	0	0	0	0	514	625	
4	0	0	0	0	513	627	
5	0	0	0	0	513	624	
6	0	0	0	0	513	624	
7	0	0	0	0	514	624	
8	0	0	0	0	514	620	
9	0	0	0	0	515	624	
10	0	0	0	0	516	624	
11	0	0	0	0	517	624	
12	0	0	0	0	517	627	
13	0	0	0	0	516	624	
14	0	0	0	0	515	624	
15	0	0	0	0	515	624	
0	0	0	0	0	515	620	
1	0	0	0	0	514	624	
2	0	0	0	0	513	624	
3	0	0	0	0	514	624	
4	0	0	0	0	515	628	
5	0	0	0	0	515	624	
6	0	0	0	0	514	624	
7	0	0	0	0	513	624	
8	0	0	0	0	513	620	
9	0	0	0	0	512	624	
10	0	0	0	0	512	624	
11	0	0	0	0	511	624	
12	0	0	0	0	512	628	
13	0	0	0	0	512	624	
14	0	0	0	0	510	624	
15	0	0	0	0	509	624	
0	0	0	0	0	510	620	
1	0	0	0	0	509	624	
2	0	0	0	0	509	624	
3	0	0	0	0	509	624	
4	0	0	0	0	508	627	
5	0	0	0	0	508	624	
6	0	0	0	0	509	624	
7	0	0	0	0	509	624	
8	0	0	0	0	510	620	
9	0	0	0	0	510	624	
10	0	0	0	0	510	624	
11	0	0	0	0	510	624	
12	0	0	0	0	511	627	
13	0	0	0	0	512	624	
14	0	0	0	0	511	624	
15	0	0	0	0	511	624	
0	0	0	0	0	510	621	
1	0	0	0	0	510	625	
2	0	0	0	0	509	624	
3	0	0	0	0	509	624	
4	0	0	0	0	509	628	
5	0	0	0	0	510	624	
6	0	0	0	0	510	624	
7	0	0	0	0	510	624	
8	0	0	0	0	510	620	
9	0	0	0	0	510	624	
10	0	0	0	0	510	624	
11	0	0	0	0	510	624	
12	0	0	0	0	509	627	
13	0	0	0	0	510	624	
14	0	0	0	0	509	624	
15	0	0	0	0	509	624	
0	0	0	0	0	508	621	
1	0	0	0	0	508	624	
2	0	0	0	0	508	624	
3	0	0	0	0	508	624	
4	0	0	0	0	507	627	
5	0	0	0	0	507	624	
6	0	0	0	0	506	624	
7	0	0	0	0	507	624	
8	0	0	0	0	507	620	
9	0	0	0	0	507	624	
10	0	0	0	0	507	624	
11	0	0	0	0	507	624	
12	0	0	0	0	508	627	
13	0	0	0	0	508	624	
14	0	0	0	0	508	624	
15	0	0	0	0	508	624	
0	0	0	0	0	508	620	
1	0	0	0	0	507	624	
2	0	0	0	0	507	624	
3	0	0	0	0	507	624	
4	0	0	0	0	509	628	
5	0	0	0	0	510	624	
6	0	0	0	0	509	624	
7	0	0	0	0	508	624	
8	0	0	0	0	508	620	
9	0	0	0	0	508	625	
10	0	0	0	0	508	624	
11	0	0	0	0	508	624	
12	0	0	0	0	508	627	
13	0	0	0	0	509	624	
14	0	0	0	0	509	624	
15	0	0	0	0	509	624	
0	0	0	0	0	509	620	
1	0	0	0	0	508	624	
2	0	0	0	0	507	624	
3	0	0	0	0	507	625	
4	0	0	0	0	507	628	
5	0	0	0	0	507	625	
6	0	0	0	0	507	625	
7	0	0	0	0	505	624	
8	0	0	0	0	505	620	
9	0	0	0	0	505	624	
10	0	0	0	0	505	625	
11	0	0	0	0	506	625	
12	0	0	0	0	506	627	
13	0	0	0	0	506	624	
14	0	0	0	0	506	624	
15	0	0	0	0	506	624	
0	0	0	0	0	507	621	
1	0	0	0	0	507	625	
2	0	0	0	0	507	624	
3	0	0	0	0	507	624	
4	0	0	0	0	508	628	
5	0	0	0	0	509	624	
6	0	0	0	0	510	624	
7	0	0	0	0	511	624	
8	0	0	0	0	511	620	
9	0	0	0	0	511	624	
10	0	0	0	0	510	624	
11	0	0	0	0	507	624	
12	0	0	0	0	505	627	
13	0	0	0	0	504	623	
14	0	0	0	0	502	623	
15	0	0	0	0	502	624	
0	0	0	0	0	501	620	
1	0	0	0	0	502	624	
2	0	0	0	0	501	623	
3	0	0	0	0	501	624	
4	0	0	0	0	501	627	
5	0	0	0	0	502	623	
6	0	0	0	0	502	623	
7	0	0	0	0	502	624	
8	0	0	0	0	503	620	
9	0	0	0	0	503	623	
10	0	0	0	0	503	623	
11	0	0	0	0	503	624	
12	0	0	0	0	502	627	
13	0	0	0	0	503	624	
14	0	0	0	0	503	624	
15	0	0	0	0	503	624	
0	0	0	0	0	501	620	
1	0	0	0	0	500	624	
2	0	0	0	0	500	624	
3	0	0	0	0	501	624	
4	0	0	0	0	501	627	
5	0	0	0	0	501	624	
6	0	0	0	0	501	625	
7	0	0	0	0	501	624	
8	0	0	0	0	500	621	
9	0	0	0	0	499	625	
10	0	0	0	0	499	624	
11	0	0	0	0	499	624	
12	0	0	0	0	497	628	
13	0	0	0	0	497	625	
14	0	0	0	0	496	625	
15	0	0	0	0	496	625	
0	0	0	0	0	496	620	
1	0	0	0	0	495	624	
2	0	0	0	0	495	624	
3	0	0	0	0	495	624	
4	0	0	0	0	494	627	
5	0	0	0	0	494	624	
6	0	0	0	0	494	625	
7	0	0	0	0	495	625	
8	0	0	0	0	494	621	
9	0	0	0	0	494	624	
10	0	0	0	0	494	624	
11	0	0	0	0	495	625	
12	0	0	0	0	495	628	
13	0	0	0	0	495	624	
14	0	0	0	0	495	624	
15	0	0	0	0	496	625	
0	0	0	0	0	496	620	
1	0	0	0	0	496	625	
2	0	0	0	0	497	624	
3	0	0	0	0	497	624	
4	0	0	0	0	498	628	
5	0	0	0	0	500	624	
6	0	0	0	0	501	624	
7	0	0	0	0	502	623	
8	0	0	0	0	503	620	
9	0	0	0	0	504	624	
10	0	0	0	0	505	624	
11	0	0	0	0	505	624	
12	0	0	0	0	505	627	
13	0	0	0	0	506	624	
14	0	0	0	0	507	624	
15	0	0	0	0	506	623	
0	0	0	0	0	505	620	
1	0	0	0	0	504	624	
2	0	0	0	0	504	624	
3	0	0	0	0	504	625	
4	0	0	0	0	504	627	
5	0	0	0	0	504	624	
6	0	0	0	0	503	624	
7	0	0	0	0	503	624	
8	0	0	0	0	503	620	
9	0	0	0	0	503	624	
10	0	0	0	0	502	624	
11	0	0	0	0	502	624	
12	0	0	0	0	503	627	
13	0	0	0	0	503	624	
14	0	0	0	0	502	624	
15	0	0	0	0	502	624	
0	0	0	0	0	501	620	
1	0	0	0	0	501	624	
2	0	0	0	0	502	625	
3	0	0	0	0	502	624	
4	0	0	0	0	503	628	
5	0	0	0	0	504	625	
6	0	0	0	0	504	624	
7	0	0	0	0	505	624	
8	0	0	0	0	507	620	
9	0	0	0	0	508	624	
10	0	0	0	0	508	624	
11	0	0	0	0	509	624	
12	0	0	0	0	509	627	
13	0	0	0	0	507	624	
14	0	0	0	0	507	624	
15	0	0	0	0	506	624	
0	0	0	0	0	505	620	
1	0	0	0	0	505	624	
2	0	0	0	0	504	624	
3	0	0	0	0	504	624	
4	0	0	0	0	504	627	
5	0	0	0	0	503	623	
6	0	0	0	0	503	624	
7	0	0	0	0	503	624	
8	0	0	0	0	504	621	
9	0	0	0	0	505	624	
10	0	0	0	0	506	624	
11	0	0	0	0	506	624	
12	0	0	0	0	506	627	
13	0	0	0	0	507	624	
14	0	0	0	0	507	624	
15	0	0	0	0	506	624	
0	0	0	0	0	506	621	
1	0	0	0	0	507	624	
2	0	0	0	0	507	624	
3	0	0	0	0	507	624	
4	0	0	0	0	506	627	
5	0	0	0	0	507	624	
6	0	0	0	0	507	624	
7	0	0	0	0	508	624	
8	0	0	0	0	507	620	
9	0	0	0	0	505	624	
10	0	0	0	0	505	624	
11	0	0	0	0	504	624	
12	0	0	0	0	504	628	
13	0	0	0	0	505	624	
14	0	0	0	0	505	624	
15	0	0	0	0	507	624	
0	0	0	0	0	506	621	
1	0	0	0	0	506	624	
2	0	0	0	0	506	624	
3	0	0	0	0	505	624	
4	0	0	0	0	504	627	
5	0	0	0	0	504	625	
6	0	0	0	0	503	624	
7	0	0	0	0	502	624	
8	0	0	0	0	503	621	
9	0	0	0	0	503	624	
10	0	0	0	0	503	624	
11	0	0	0	0	504	624	
12	0	0	0	0	503	627	
13	0	0	0	0	503	624	
14	0	0	0	0	504	624	
15	0	0	0	0	505	624	
0	0	0	0	0	505	620	
1	0	0	0	0	504	624	
2	0	0	0	0	505	624	
3	0	0	0	0	506	624	
4	0	0	0	0	506	628	
5	0	0	0	0	506	625	
6	0	0	0	0	506	624	
7	0	0	0	0	506	624	
8	0	0	0	0	504	621	
9	0	0	0	0	504	625	
10	0	0	0	0	503	625	
11	0	0	0	0	502	625	
12	0	0	0	0	500	628	
13	0	0	0	0	498	625	
14	0	0	0	0	495	624	
15	0	0	0	0	492	625	
0	0	0	0	0	487	621	
1	0	0	0	0	484	625	
2	0	0	0	0	481	624	
3	0	0	0	0	479	625	
4	0	0	0	0	476	628	
5	0	0	0	0	473	625	
6	0	0	0	0	468	625	
7	0	0	0	0	465	625	
8	0	0	0	0	462	621	
9	0	0	0	0	459	625	
10	0	0	0	0	455	624	
11	0	0	0	0	452	624	
12	0	0	0	0	446	628	
13	0	0	0	0	443	625	
14	0	0	0	0	444	625	
15	0	0	0	0	447	625	
0	0	0	0	0	451	621	
1	0	0	0	0	455	624	
2	0	0	0	0	461	625	
3	0	0	0	0	468	625	
4	0	0	0	0	480	628	
5	0	0	0	0	494	624	
6	0	0	0	0	510	624	
7	0	0	0	0	527	624	
8	0	0	0	0	545	621	
9	0	0	0	0	563	624	
10	0	0	0	0	581	624	
11	0	0	0	0	598	624	
12	0	0	0	0	615	627	
13	0	0	0	0	630	624	
14	0	0	0	0	641	624	
15	0	0	0	0	649	624	
0	0	0	0	0	656	620	
1	0	0	0	0	661	624	
2	0	0	0	0	666	624	
3	0	0	0	0	670	624	
4	0	0	0	0	671	627	
5	0	0	0	0	669	624	
6	0	0	0	0	665	624	
7	0	0	0	0	656	624	
8	0	0	0	0	645	620	
9	0	0	0	0	632	625	
10	0	0	0	0	622	624	
11	0	0	0	0	616	624	
12	0	0	0	0	613	628	
13	0	0	0	0	609	624	
14	0	0	0	0	605	624	
15	0	0	0	0	599	624	
0	0	0	0	0	588	620	
1	0	0	0	0	576	624	
2	0	0	0	0	562	624	
3	0	0	0	0	549	624	
4	0	0	0	0	537	627	
5	0	0	0	0	527	623	
6	0	0	0	0	521	623	
7	0	0	0	0	519	623	
8	0	0	0	0	517	620	
9	0	0	0	0	516	624	
10	0	0	0	0	514	624	
11	0	0	0	0	511	624	
12	0	0	0	0	508	627	
13	0	0	0	0	504	624	
14	0	0	0	0	499	624	
15	0	0	0	0	496	624	
0	0	0	0	0	492	620	
1	0	0	0	0	488	624	
2	0	0	0	0	485	624	
3	0	0	0	0	481	624	
4	0	0	0	0	479	627	
5	0	0	0	0	477	624	
6	0	0	0	0	475	624	
7	0	0	0	0	473	624	
8	0	0	0	0	471	620	
9	0	0	0	0	469	624	
10	0	0	0	0	467	625	
11	0	0	0	0	465	624	
12	0	0	0	0	463	628	
13	0	0	0	0	464	624	
14	0	0	0	0	462	625	
15	0	0	0	0	461	624	
0	0	0	0	0	460	622	
1	0	0	0	0	458	625	
2	0	0	0	0	458	625	
3	0	0	0	0	456	625	
4	0	0	0	0	456	628	
5	0	0	0	0	455	625	
6	0	0	0	0	455	625	
7	0	0	0	0	456	625	
8	0	0	0	0	455	621	
9	0	0	0	0	455	624	
10	0	0	0	0	455	624	
11	0	0	0	0	455	625	
12	0	0	0	0	454	628	
13	0	0	0	0	454	624	
14	0	0	0	0	454	625	
15	0	0	0	0	455	625	
0	0	0	0	0	457	620	
1	0	0	0	0	457	625	
2	0	0	0	0	458	625	
3	0	0	0	0	459	625	
4	0	0	0	0	459	627	
5	0	0	0	0	459	624	
6	0	0	0	0	459	624	
7	0	0	0	0	459	624	
8	0	0	0	0	459	621	
9	0	0	0	0	460	624	
10	0	0	0	0	460	624	
11	0	0	0	0	461	624	
12	0	0	0	0	461	628	
13	0	0	0	0	462	624	
14	0	0	0	0	461	625	
15	0	0	0	0	461	624	
0	0	0	0	0	460	620	
1	0	0	0	0	461	624	
2	0	0	0	0	462	624	
3	0	0	0	0	462	624	
4	0	0	0	0	462	627	
5	0	0	0	0	463	624	
6	0	0	0	0	464	624	
7	0	0	0	0	465	624	
8	0	0	0	0	464	620	
9	0	0	0	0	463	624	
10	0	0	0	0	463	624	
11	0	0	0	0	463	624	
12	0	0	0	0	462	627	
13	0	0	0	0	462	624	
14	0	0	0	0	461	624	
15	0	0	0	0	461	623	
0	0	0	0	0	462	620	
1	0	0	0	0	463	624	
2	0	0	0	0	463	624	
3	0	0	0	0	464	623	
4	0	0	0	0	465	627	
5	0	0	0	0	465	624	
6	0	0	0	0	466	624	
7	0	0	0	0	465	623	
8	0	0	0	0	465	619	
9	0	0	0	0	466	624	
10	0	0	0	0	466	623	
11	0	0	0	0	467	623	
12	0	0	0	0	467	626	
13	0	0	0	0	468	623	
14	0	0	0	0	469	623	
15	0	0	0	0	470	623	
0	0	0	0	0	470	619	
1	0	0	0	0	469	623	
2	0	0	0	0	470	623	
3	0	0	0	0	470	623	
4	0	0	0	0	470	626	
5	0	0	0	0	471	624	
6	0	0	0	0	470	623	
7	0	0	0	0	471	623	
8	0	0	0	0	471	620	
9	0	0	0	0	471	624	
10	0	0	0	0	470	623	
11	0	0	0	0	470	624	
12	0	0	0	0	470	627	
13	0	0	0	0	470	624	
14	0	0	0	0	471	624	
15	0	0	0	0	471	624	
0	0	0	0	0	472	620	
1	0	0	0	0	472	624	
2	0	0	0	0	472	624	
3	0	0	0	0	471	624	
4	0	0	0	0	472	628	
5	0	0	0	0	472	624	
6	0	0	0	0	471	624	
7	0	0	0	0	472	624	
8	0	0	0	0	473	620	
9	0	0	0	0	473	624	
10	0	0	0	0	473	624	
11	0	0	0	0	473	624	
12	0	0	0	0	473	627	
13	0	0	0	0	473	624	
14	0	0	0	0	474	624	
15	0	0	0	0	473	624	
0	0	0	0	0	473	620	
1	0	0	0	0	473	624	
2	0	0	0	0	473	624	
3	0	0	0	0	473	624	
4	0	0	0	0	473	627	
5	0	0	0	0	473	624	
6	0	0	0	0	473	625	
7	0	0	0	0	472	624	
8	0	0	0	0	470	620	
9	0	0	0	0	470	624	
10	0	0	0	0	470	624	
11	0	0	0	0	471	624	
12	0	0	0	0	472	627	
13	0	0	0	0	472	624	
14	0	0	0	0	471	625	
15	0	0	0	0	471	624	
0	0	0	0	0	470	621	
1	0	0	0	0	470	625	
2	0	0	0	0	470	624	
3	0	0	0	0	471	625	
4	0	0	0	0	471	628	
5	0	0	0	0	471	625	
6	0	0	0	0	470	625	
7	0	0	0	0	469	624	
8	0	0	0	0	470	621	
9	0	0	0	0	471	625	
10	0	0	0	0	472	625	
11	0	0	0	0	472	625	
12	0	0	0	0	473	629	
13	0	0	0	0	473	625	
14	0	0	0	0	473	625	
15	0	0	0	0	475	625	
0	0	0	0	0	474	621	
1	0	0	0	0	472	625	
2	0	0	0	0	473	625	
3	0	0	0	0	474	625	
4	0	0	0	0	475	628	
5	0	0	0	0	476	625	
6	0	0	0	0	475	625	
7	0	0	0	0	475	624	
8	0	0	0	0	474	621	
9	0	0	0	0	474	624	
10	0	0	0	0	475	624	
11	0	0	0	0	475	625	
12	0	0	0	0	476	629	
13	0	0	0	0	477	625	
14	0	0	0	0	477	625	
15	0	0	0	0	478	625	
0	0	0	0	0	478	621	
1	0	0	0	0	478	625	
2	0	0	0	0	479	624	
3	0	0	0	0	480	625	
4	0	0	0	0	480	628	
5	0	0	0	0	481	625	
6	0	0	0	0	481	624	
7	0	0	0	0	482	624	
8	0	0	0	0	484	621	
9	0	0	0	0	485	625	
10	0	0	0	0	486	624	
11	0	0	0	0	487	625	
12	0	0	0	0	488	628	
13	0	0	0	0	489	624	
14	0	0	0	0	490	624	
15	0	0	0	0	491	624	
0	0	0	0	0	492	620	
1	0	0	0	0	493	624	
2	0	0	0	0	494	624	
3	0	0	0	0	495	624	
4	0	0	0	0	497	628	
5	0	0	0	0	499	624	
6	0	0	0	0	501	624	
7	0	0	0	0	501	624	
8	0	0	0	0	502	620	
9	0	0	0	0	503	624	
10	0	0	0	0	504	624	
11	0	0	0	0	505	624	
12	0	0	0	0	507	627	
13	0	0	0	0	508	624	
14	0	0	0	0	509	624	
15	0	0	0	0	510	624	
0	0	0	0	0	510	620	
1	0	0	0	0	511	624	
2	0	0	0	0	511	623	
3	0	0	0	0	512	624	
4	0	0	0	0	512	627	
5	0	0	0	0	513	624	
6	0	0	0	0	514	623	
7	0	0	0	0	515	623	
8	0	0	0	0	515	620	
9	0	0	0	0	517	624	
10	0	0	0	0	518	624	
11	0	0	0	0	519	624	
12	0	0	0	0	520	628	
13	0	0	0	0	521	624	
14	0	0	0	0	521	623	
15	0	0	0	0	522	624	
0	0	0	0	0	522	620	
1	0	0	0	0	523	623	
2	0	0	0	0	524	624	
3	0	0	0	0	524	623	
4	0	0	0	0	523	627	
5	0	0	0	0	523	623	
6	0	0	0	0	523	623	
7	0	0	0	0	522	623	
8	0	0	0	0	522	620	
9	0	0	0	0	522	623	
10	0	0	0	0	522	624	
11	0	0	0	0	523	624	
12	0	0	0	0	523	627	
13	0	0	0	0	523	624	
14	0	0	0	0	523	624	
15	0	0	0	0	524	624	
0	0	0	0	0	524	620	
1	0	0	0	0	524	624	
2	0	0	0	0	524	625	
3	0	0	0	0	524	625	
4	0	0	0	0	524	627	
5	0	0	0	0	525	624	
6	0	0	0	0	525	624	
7	0	0	0	0	525	624	
8	0	0	0	0	524	620	
9	0	0	0	0	524	624	
10	0	0	0	0	524	624	
11	0	0	0	0	524	624	
12	0	0	0	0	524	627	
13	0	0	0	0	524	624	
14	0	0	0	0	523	624	
15	0	0	0	0	522	624	
0	0	0	0	0	521	620	
1	0	0	0	0	521	624	
2	0	0	0	0	521	624	
3	0	0	0	0	522	625	
4	0	0	0	0	522	628	
5	0	0	0	0	522	624	
6	0	0	0	0	523	625	
7	0	0	0	0	523	624	
8	0	0	0	0	523	621	
9	0	0	0	0	523	624	
10	0	0	0	0	522	624	
11	0	0	0	0	522	624	
12	0	0	0	0	521	627	
13	0	0	0	0	521	624	
14	0	0	0	0	521	624	
15	0	0	0	0	521	624	
0	0	0	0	0	521	620	
1	0	0	0	0	521	624	
2	0	0	0	0	521	624	
3	0	0	0	0	522	624	
4	0	0	0	0	521	628	
5	0	0	0	0	521	624	
6	0	0	0	0	521	624	
7	0	0	0	0	521	624	
8	0	0	0	0	520	620	
9	0	0	0	0	520	624	
10	0	0	0	0	520	624	
11	0	0	0	0	519	625	
12	0	0	0	0	520	628	
13	0	0	0	0	521	625	
14	0	0	0	0	521	624	
15	0	0	0	0	521	624	
0	0	0	0	0	522	621	
1	0	0	0	0	522	625	
2	0	0	0	0	521	625	
3	0	0	0	0	521	625	
4	0	0	0	0	521	627	
5	0	0	0	0	520	624	
6	0	0	0	0	520	624	
7	0	0	0	0	519	624	
8	0	0	0	0	519	620	
9	0	0	0	0	519	625	
10	0	0	0	0	519	624	
11	0	0	0	0	519	625	
12	0	0	0	0	518	628	
13	0	0	0	0	518	624	
14	0	0	0	0	516	624	
15	0	0	0	0	517	624	
0	0	0	0	0	519	620	
1	0	0	0	0	518	624	
2	0	0	0	0	518	625	
3	0	0	0	0	517	624	
4	0	0	0	0	518	627	
5	0	0	0	0	518	624	
6	0	0	0	0	517	624	
7	0	0	0	0	516	624	
8	0	0	0	0	515	620	
9	0	0	0	0	515	623	
10	0	0	0	0	516	623	
11	0	0	0	0	515	624	
12	0	0	0	0	516	627	
13	0	0	0	0	515	624	
14	0	0	0	0	515	624	
15	0	0	0	0	516	624	
0	0	0	0	0	516	620	
1	0	0	0	0	516	624	
2	0	0	0	0	515	624	
3	0	0	0	0	515	624	
4	0	0	0	0	514	627	
5	0	0	0	0	513	624	
6	0	0	0	0	513	624	
7	0	0	0	0	513	624	
8	0	0	0	0	512	620	
9	0	0	0	0	513	624	
10	0	0	0	0	513	624	
11	0	0	0	0	513	624	
12	0	0	0	0	513	627	
13	0	0	0	0	512	624	
14	0	0	0	0	513	624	
15	0	0	0	0	513	624	
0	0	0	0	0	513	620	
1	0	0	0	0	512	625	
2	0	0	0	0	512	624	
3	0	0	0	0	512	624	
4	0	0	0	0	512	627	
5	0	0	0	0	513	624	
6	0	0	0	0	515	624	
7	0	0	0	0	515	624	
8	0	0	0	0	515	620	
9	0	0	0	0	515	624	
10	0	0	0	0	515	624	
11	0	0	0	0	515	624	
12	0	0	0	0	514	627	
13	0	0	0	0	514	624	
14	0	0	0	0	514	623	
15	0	0	0	0	514	623	
0	0	0	0	0	513	619	
1	0	0	0	0	513	624	
2	0	0	0	0	513	624	
3	0	0	0	0	513	624	
4	0	0	0	0	513	627	
5	0	0	0	0	513	624	
6	0	0	0	0	513	624	
7	0	0	0	0	513	624	
8	0	0	0	0	514	620	
9	0	0	0	0	514	624	
10	0	0	0	0	513	624	
11	0	0	0	0	513	624	
12	0	0	0	0	513	627	
13	0	0	0	0	513	624	
14	0	0	0	0	513	624	
15	0	0	0	0	513	624	
0	0	0	0	0	513	620	
1	0	0	0	0	513	625	
2	0	0	0	0	512	624	
3	0	0	0	0	511	624	
4	0	0	0	0	511	627	
5	0	0	0	0	512	623	
6	0	0	0	0	512	624	
7	0	0	0	0	513	624	
8	0	0	0	0	514	620	
9	0	0	0	0	515	624	
10	0	0	0	0	514	623	
11	0	0	0	0	514	624	
12	0	0	0	0	513	627	
13	0	0	0	0	513	624	
14	0	0	0	0	512	623	
15	0	0	0	0	511	623	
0	0	0	0	0	511	620	
1	0	0	0	0	510	624	
2	0	0	0	0	509	624	
3	0	0	0	0	510	624	
4	0	0	0	0	510	627	
5	0	0	0	0	511	624	
6	0	0	0	0	510	624	
7	0	0	0	0	511	624	
8	0	0	0	0	511	620	
9	0	0	0	0	511	624	
10	0	0	0	0	511	624	
11	0	0	0	0	512	624	
12	0	0	0	0	512	627	
13	0	0	0	0	514	624	
14	0	0	0	0	514	624	
15	0	0	0	0	514	624	
0	0	0	0	0	514	621	
1	0	0	0	0	513	624	
2	0	0	0	0	513	624	
3	0	0	0	0	514	624	
4	0	0	0	0	513	628	
5	0	0	0	0	514	624	
6	0	0	0	0	514	624	
7	0	0	0	0	514	624	
8	0	0	0	0	514	620	
9	0	0	0	0	514	624	
10	0	0	0	0	514	624	
11	0	0	0	0	514	624	
12	0	0	0	0	515	627	
13	0	0	0	0	515	624	
14	0	0	0	0	515	624	
15	0	0	0	0	513	624	
0	0	0	0	0	513	620	
1	0	0	0	0	513	624	
2	0	0	0	0	512	625	
3	0	0	0	0	512	625	
4	0	0	0	0	512	628	
5	0	0	0	0	513	624	
6	0	0	0	0	513	624	
7	0	0	0	0	513	625	
8	0	0	0	0	513	621	
9	0	0	0	0	512	624	
10	0	0	0	0	511	624	
11	0	0	0	0	511	624	
12	0	0	0	0	511	628	
13	0	0	0	0	511	624	
14	0	0	0	0	511	624	
15	0	0	0	0	511	624	
0	0	0	0	0	512	620	
1	0	0	0	0	512	624	
2	0	0	0	0	512	624	
3	0	0	0	0	512	625	
4	0	0	0	0	512	628	
5	0	0	0	0	512	625	
6	0	0	0	0	512	624	
7	0	0	0	0	512	624	
8	0	0	0	0	512	621	
9	0	0	0	0	512	624	
10	0	0	0	0	512	624	
11	0	0	0	0	512	624	
12	0	0	0	0	512	627	
13	0	0	0	0	513	624	
14	0	0	0	0	513	624	
15	0	0	0	0	514	624	
0	0	0	0	0	515	621	
1	0	0	0	0	515	624	
2	0	0	0	0	515	624	
3	0	0	0	0	515	625	
4	0	0	0	0	515	627	
5	0	0	0	0	515	624	
6	0	0	0	0	515	625	
7	0	0	0	0	514	624	
8	0	0	0	0	515	620	
9	0	0	0	0	515	625	
10	0	0	0	0	515	625	
11	0	0	0	0	515	624	
12	0	0	0	0	514	628	
13	0	0	0	0	514	624	
14	0	0	0	0	514	624	
15	0	0	0	0	514	624	
0	0	0	0	0	514	620	
1	0	0	0	0	515	624	
2	0	0	0	0	514	624	
3	0	0	0	0	515	624	
4	0	0	0	0	515	627	
5	0	0	0	0	515	624	
6	0	0	0	0	515	624	
7	0	0	0	0	514	624	
8	0	0	0	0	515	620	
9	0	0	0	0	515	624	
10	0	0	0	0	515	624	
11	0	0	0	0	516	624	
12	0	0	0	0	516	628	
13	0	0	0	0	515	624	
14	0	0	0	0	515	624	
15	0	0	0	0	515	624	
0	0	0	0	0	515	620	
1	0	0	0	0	516	624	
2	0	0	0	0	515	624	
3	0	0	0	0	515	624	
4	0	0	0	0	515	627	
5	0	0	0	0	515	624	
6	0	0	0	0	515	624	
7	0	0	0	0	513	624	
8	0	0	0	0	513	620	
9	0	0	0	0	513	623	
10	0	0	0	0	513	624	
11	0	0	0	0	513	624	
12	0	0	0	0	513	627	
13	0	0	0	0	514	623	
14	0	0	0	0	514	624	
15	0	0	0	0	515	624	
0	0	0	0	0	516	620	
1	0	0	0	0	516	624	
2	0	0	0	0	515	624	
3	0	0	0	0	513	624	
4	0	0	0	0	513	628	
5	0	0	0	0	512	624	
6	0	0	0	0	511	625	
7	0	0	0	0	510	624	
8	0	0	0	0	512	620	
9	0	0	0	0	513	624	
10	0	0	0	0	514	624	
11	0	0	0	0	514	625	
12	0	0	0	0	513	627	
13	0	0	0	0	511	624	
14	0	0	0	0	510	625	
15	0	0	0	0	510	624	
0	0	0	0	0	510	621	
1	0	0	0	0	510	624	
2	0	0	0	0	510	624	
3	0	0	0	0	510	624	
4	0	0	0	0	510	628	
5	0	0	0	0	510	624	
6	0	0	0	0	509	624	
7	0	0	0	0	509	624	
8	0	0	0	0	509	621	
9	0	0	0	0	509	624	
10	0	0	0	0	510	625	
11	0	0	0	0	509	624	
12	0	0	0	0	509	628	
13	0	0	0	0	508	625	
14	0	0	0	0	508	625	
15	0	0	0	0	508	624	
0	0	0	0	0	509	621	
1	0	0	0	0	509	624	
2	0	0	0	0	510	625	
3	0	0	0	0	510	625	
4	0	0	0	0	510	628	
5	0	0	0	0	510	624	
6	0	0	0	0	510	624	
7	0	0	0	0	510	624	
8	0	0	0	0	511	620	
9	0	0	0	0	510	625	
10	0	0	0	0	510	625	
11	0	0	0	0	511	625	
12	0	0	0	0	511	628	
13	0	0	0	0	510	624	
14	0	0	0	0	510	624	
15	0	0	0	0	510	624	
0	0	0	0	0	510	621	
1	0	0	0	0	510	624	
2	0	0	0	0	511	625	
3	0	0	0	0	510	625	
4	0	0	0	0	510	627	
5	0	0	0	0	510	624	
6	0	0	0	0	511	624	
7	0	0	0	0	511	624	
8	0	0	0	0	512	620	
9	0	0	0	0	512	624	
10	0	0	0	0	511	625	
11	0	0	0	0	510	624	
12	0	0	0	0	510	627	
13	0	0	0	0	509	625	
14	0	0	0	0	507	624	
15	0	0	0	0	507	625	
0	0	0	0	0	505	621	
1	0	0	0	0	504	624	
2	0	0	0	0	503	624	
3	0	0	0	0	504	625	
4	0	0	0	0	504	628	
5	0	0	0	0	504	625	
6	0	0	0	0	504	624	
7	0	0	0	0	504	624	
8	0	0	0	0	503	620	
9	0	0	0	0	503	624	
10	0	0	0	0	503	624	
11	0	0	0	0	503	624	
12	0	0	0	0	503	627	
13	0	0	0	0	503	624	
14	0	0	0	0	503	624	
15	0	0	0	0	502	624	
0	0	0	0	0	500	620	
1	0	0	0	0	499	624	
2	0	0	0	0	500	624	
3	0	0	0	0	502	625	
4	0	0	0	0	502	628	
5	0	0	0	0	501	624	
6	0	0	0	0	501	624	
7	0	0	0	0	501	624	
8	0	0	0	0	500	620	
9	0	0	0	0	498	624	
10	0	0	0	0	497	624	
11	0	0	0	0	497	624	
12	0	0	0	0	499	627	
13	0	0	0	0	499	624	
14	0	0	0	0	499	624	
15	0	0	0	0	499	624	
0	0	0	0	0	499	620	
1	0	0	0	0	499	624	
2	0	0	0	0	499	624	
3	0	0	0	0	499	624	
4	0	0	0	0	499	627	
5	0	0	0	0	500	623	
6	0	0	0	0	500	623	
7	0	0	0	0	500	624	
8	0	0	0	0	500	620	
9	0	0	0	0	501	624	
10	0	0	0	0	501	624	
11	0	0	0	0	502	625	
12	0	0	0	0	502	628	
13	0	0	0	0	503	624	
14	0	0	0	0	503	624	
15	0	0	0	0	504	624	
0	0	0	0	0	504	620	
1	0	0	0	0	505	624	
2	0	0	0	0	506	624	
3	0	0	0	0	507	624	
4	0	0	0	0	508	627	
5	0	0	0	0	508	623	
6	0	0	0	0	508	623	
7	0	0	0	0	508	623	
8	0	0	0	0	509	619	
9	0	0	0	0	509	624	
10	0	0	0	0	509	624	
11	0	0	0	0	509	624	
12	0	0	0	0	509	627	
13	0	0	0	0	508	624	
14	0	0	0	0	507	624	
15	0	0	0	0	505	624	
0	0	0	0	0	504	620	
1	0	0	0	0	505	624	
2	0	0	0	0	506	624	
3	0	0	0	0	507	624	
4	0	0	0	0	507	627	
5	0	0	0	0	507	624	
6	0	0	0	0	507	624	
7	0	0	0	0	508	624	
8	0	0	0	0	509	620	
9	0	0	0	0	509	624	
10	0	0	0	0	508	625	
11	0	0	0	0	508	624	
12	0	0	0	0	508	628	
13	0	0	0	0	509	624	
14	0	0	0	0	509	624	
15	0	0	0	0	510	624	
0	0	0	0	0	511	620	
1	0	0	0	0	511	624	
2	0	0	0	0	510	624	
3	0	0	0	0	511	624	
4	0	0	0	0	511	628	
5	0	0	0	0	511	624	
6	0	0	0	0	510	625	
7	0	0	0	0	509	624	
8	0	0	0	0	509	621	
9	0	0	0	0	509	625	
10	0	0	0	0	508	625	
11	0	0	0	0	508	625	
12	0	0	0	0	507	628	
13	0	0	0	0	507	624	
14	0	0	0	0	507	624	
15	0	0	0	0	507	624	
0	0	0	0	0	508	621	
1	0	0	0	0	509	624	
2	0	0	0	0	509	624	
3	0	0	0	0	508	624	
4	0	0	0	0	509	627	
5	0	0	0	0	509	624	
6	0	0	0	0	508	624	
7	0	0	0	0	509	624	
8	0	0	0	0	509	620	
9	0	0	0	0	510	624	
10	0	0	0	0	510	624	
11	0	0	0	0	510	624	
12	0	0	0	0	510	628	
13	0	0	0	0	509	624	
14	0	0	0	0	509	624	
15	0	0	0	0	509	624	
0	0	0	0	0	508	620	
1	0	0	0	0	508	624	
2	0	0	0	0	507	625	
3	0	0	0	0	507	624	
4	0	0	0	0	506	628	
5	0	0	0	0	506	624	
6	0	0	0	0	506	624	
7	0	0	0	0	507	624	
8	0	0	0	0	507	620	
9	0	0	0	0	508	624	
10	0	0	0	0	508	624	
11	0	0	0	0	508	624	
12	0	0	0	0	509	627	
13	0	0	0	0	509	624	
14	0	0	0	0	509	624	
15	0	0	0	0	509	625	
0	0	0	0	0	508	621	
1	0	0	0	0	507	625	
2	0	0	0	0	507	625	
3	0	0	0	0	506	625	
4	0	0	0	0	504	628	
5	0	0	0	0	504	624	
6	0	0	0	0	503	624	
7	0	0	0	0	504	624	
8	0	0	0	0	503	620	
9	0	0	0	0	504	625	
10	0	0	0	0	505	625	
11	0	0	0	0	506	625	
12	0	0	0	0	506	628	
13	0	0	0	0	506	624	
14	0	0	0	0	505	624	
15	0	0	0	0	505	623	
0	0	0	0	0	504	620	
1	0	0	0	0	504	624	
2	0	0	0	0	502	624	
3	0	0	0	0	500	624	
4	0	0	0	0	498	628	
5	0	0	0	0	495	624	
6	0	0	0	0	491	624	
7	0	0	0	0	487	624	
8	0	0	0	0	484	620	
9	0	0	0	0	482	624	
10	0	0	0	0	480	624	
11	0	0	0	0	478	624	
12	0	0	0	0	475	628	
13	0	0	0	0	471	624	
14	0	0	0	0	467	624	
15	0	0	0	0	464	624	
0	0	0	0	0	462	620	
1	0	0	0	0	459	624	
2	0	0	0	0	455	623	
3	0	0	0	0	450	624	
4	0	0	0	0	448	627	
5	0	0	0	0	451	625	
6	0	0	0	0	454	624	
7	0	0	0	0	459	623	
8	0	0	0	0	467	620	
9	0	0	0	0	475	625	
10	0	0	0	0	486	624	
11	0	0	0	0	500	624	
12	0	0	0	0	513	627	
13	0	0	0	0	529	624	
14	0	0	0	0	547	624	
15	0	0	0	0	568	624	
0	0	0	0	0	587	620	
1	0	0	0	0	605	624	
2	0	0	0	0	624	625	
3	0	0	0	0	643	625	
4	0	0	0	0	660	627	
5	0	0	0	0	672	624	
6	0	0	0	0	679	624	
7	0	0	0	0	684	624	
8	0	0	0	0	687	620	
9	0	0	0	0	689	624	
10	0	0	0	0	691	623	
11	0	0	0	0	689	624	
12	0	0	0	0	684	627	
13	0	0	0	0	676	624	
14	0	0	0	0	668	624	
15	0	0	0	0	658	624	
0	0	0	0	0	645	620	
1	0	0	0	0	635	624	
2	0	0	0	0	626	624	
3	0	0	0	0	620	624	
4	0	0	0	0	615	627	
5	0	0	0	0	610	624	
6	0	0	0	0	603	623	
7	0	0	0	0	593	623	
8	0	0	0	0	582	619	
9	0	0	0	0	568	623	
10	0	0	0	0	555	624	
11	0	0	0	0	540	624	
12	0	0	0	0	531	627	
13	0	0	0	0	525	624	
14	0	0	0	0	521	624	
15	0	0	0	0	519	624	
0	0	0	0	0	515	620	
1	0	0	0	0	511	624	
2	0	0	0	0	506	624	
3	0	0	0	0	502	624	
4	0	0	0	0	497	628	
5	0	0	0	0	493	624	
6	0	0	0	0	489	624	
7	0	0	0	0	486	624	
8	0	0	0	0	482	621	
9	0	0	0	0	479	624	
10	0	0	0	0	476	625	
11	0	0	0	0	473	625	
12	0	0	0	0	471	628	
13	0	0	0	0	467	624	
14	0	0	0	0	464	625	
15	0	0	0	0	463	624	
0	0	0	0	0	462	622	
1	0	0	0	0	461	625	
2	0	0	0	0	459	625	
3	0	0	0	0	457	625	
4	0	0	0	0	456	628	
5	0	0	0	0	455	625	
6	0	0	0	0	453	625	
7	0	0	0	0	452	624	
8	0	0	0	0	451	621	
9	0	0	0	0	450	624	
10	0	0	0	0	450	625	
11	0	0	0	0	449	625	
12	0	0	0	0	449	628	
13	0	0	0	0	450	625	
14	0	0	0	0	450	624	
15	0	0	0	0	451	624	
0	0	0	0	0	451	620	
1	0	0	0	0	451	625	
2	0	0	0	0	451	625	
3	0	0	0	0	450	624	
4	0	0	0	0	450	628	
5	0	0	0	0	450	625	
6	0	0	0	0	449	624	
7	0	0	0	0	448	624	
8	0	0	0	0	448	620	
9	0	0	0	0	449	624	
10	0	0	0	0	449	624	
11	0	0	0	0	449	625	
12	0	0	0	0	450	627	
13	0	0	0	0	452	624	
14	0	0	0	0	453	624	
15	0	0	0	0	452	623	
0	0	0	0	0	453	620	
1	0	0	0	0	454	624	
2	0	0	0	0	455	623	
3	0	0	0	0	456	624	
4	0	0	0	0	457	627	
5	0	0	0	0	458	624	
6	0	0	0	0	458	624	
7	0	0	0	0	459	624	
8	0	0	0	0	460	620	
9	0	0	0	0	460	624	
10	0	0	0	0	460	624	
11	0	0	0	0	460	624	
12	0	0	0	0	461	627	
13	0	0	0	0	461	624	
14	0	0	0	0	462	624	
15	0	0	0	0	461	624	
0	0	0	0	0	462	620	
1	0	0	0	0	462	624	
2	0	0	0	0	463	624	
3	0	0	0	0	461	624	
4	0	0	0	0	461	627	
5	0	0	0	0	462	624	
6	0	0	0	0	462	623	
7	0	0	0	0	462	624	
8	0	0	0	0	463	620	
9	0	0	0	0	463	624	
10	0	0	0	0	464	624	
11	0	0	0	0	462	625	
12	0	0	0	0	462	628	
13	0	0	0	0	462	624	
14	0	0	0	0	463	624	
15	0	0	0	0	464	624	
0	0	0	0	0	464	620	
1	0	0	0	0	464	624	
2	0	0	0	0	463	624	
3	0	0	0	0	463	624	
4	0	0	0	0	463	627	
5	0	0	0	0	463	623	
6	0	0	0	0	464	624	
7	0	0	0	0	464	624	
8	0	0	0	0	464	620	
9	0	0	0	0	464	624	
10	0	0	0	0	465	624	
11	0	0	0	0	464	625	
12	0	0	0	0	464	628	
13	0	0	0	0	464	625	
14	0	0	0	0	464	624	
15	0	0	0	0	464	624	
0	0	0	0	0	464	620	
1	0	0	0	0	463	624	
2	0	0	0	0	462	624	
3	0	0	0	0	463	624	
4	0	0	0	0	464	628	
5	0	0	0	0	465	624	
6	0	0	0	0	465	624	
7	0	0	0	0	466	624	
8	0	0	0	0	467	620	
9	0	0	0	0	467	624	
10	0	0	0	0	467	624	
11	0	0	0	0	467	624	
12	0	0	0	0	466	628	
13	0	0	0	0	466	624	
14	0	0	0	0	466	624	
15	0	0	0	0	466	624	
0	0	0	0	0	466	620	
1	0	0	0	0	466	624	
2	0	0	0	0	467	624	
3	0	0	0	0	467	624	
4	0	0	0	0	467	627	
5	0	0	0	0	467	624	
6	0	0	0	0	466	624	
7	0	0	0	0	467	623	
8	0	0	0	0	466	620	
9	0	0	0	0	467	624	
10	0	0	0	0	468	623	
11	0	0	0	0	468	623	
12	0	0	0	0	469	627	
13	0	0	0	0	468	623	
14	0	0	0	0	468	624	
15	0	0	0	0	467	623	
0	0	0	0	0	468	620	
1	0	0	0	0	469	623	
2	0	0	0	0	468	623	
3	0	0	0	0	468	624	
4	0	0	0	0	468	627	
5	0	0	0	0	467	623	
6	0	0	0	0	467	623	
7	0	0	0	0	467	623	
8	0	0	0	0	467	620	
9	0	0	0	0	467	624	
10	0	0	0	0	467	624	
11	0	0	0	0	467	624	
12	0	0	0	0	467	627	
13	0	0	0	0	466	624	
14	0	0	0	0	465	623	
15	0	0	0	0	464	623	
0	0	0	0	0	465	620	
1	0	0	0	0	465	624	
2	0	0	0	0	465	624	
3	0	0	0	0	465	624	
4	0	0	0	0	466	628	
5	0	0	0	0	467	624	
6	0	0	0	0	466	624	
7	0	0	0	0	467	624	
8	0	0	0	0	467	620	
9	0	0	0	0	467	624	
10	0	0	0	0	467	623	
11	0	0	0	0	467	624	
12	0	0	0	0	468	627	
13	0	0	0	0	470	624	
14	0	0	0	0	471	624	
15	0	0	0	0	471	624	
0	0	0	0	0	472	620	
1	0	0	0	0	471	624	
2	0	0	0	0	471	624	
3	0	0	0	0	472	624	
4	0	0	0	0	472	627	
5	0	0	0	0	473	624	
6	0	0	0	0	474	625	
7	0	0	0	0	475	624	
8	0	0	0	0	475	620	
9	0	0	0	0	476	625	
10	0	0	0	0	477	625	
11	0	0	0	0	479	625	
12	0	0	0	0	480	628	
13	0	0	0	0	481	624	
14	0	0	0	0	482	624	
15	0	0	0	0	483	624	
0	0	0	0	0	483	620	
1	0	0	0	0	484	625	
2	0	0	0	0	486	624	
3	0	0	0	0	487	625	
4	0	0	0	0	488	628	
5	0	0	0	0	489	625	
6	0	0	0	0	489	624	
7	0	0	0	0	488	625	
8	0	0	0	0	488	621	
9	0	0	0	0	489	625	
10	0	0	0	0	491	624	
11	0	0	0	0	492	625	
12	0	0	0	0	494	628	
13	0	0	0	0	497	624	
14	0	0	0	0	498	625	
15	0	0	0	0	498	624	
0	0	0	0	0	497	621	
1	0	0	0	0	499	625	
2	0	0	0	0	500	625	
3	0	0	0	0	501	624	
4	0	0	0	0	504	628	
5	0	0	0	0	504	624	
6	0	0	0	0	504	624	
7	0	0	0	0	505	624	
8	0	0	0	0	506	620	
9	0	0	0	0	508	624	
10	0	0	0	0	509	624	
11	0	0	0	0	510	624	
12	0	0	0	0	511	628	
13	0	0	0	0	513	624	
14	0	0	0	0	514	624	
15	0	0	0	0	515	624	
0	0	0	0	0	515	620	
1	0	0	0	0	517	625	
2	0	0	0	0	519	625	
3	0	0	0	0	521	625	
4	0	0	0	0	522	628	
5	0	0	0	0	523	625	
6	0	0	0	0	524	624	
7	0	0	0	0	524	624	
8	0	0	0	0	526	620	
9	0	0	0	0	526	624	
10	0	0	0	0	526	624	
11	0	0	0	0	527	625	
12	0	0	0	0	526	628	
13	0	0	0	0	525	625	
14	0	0	0	0	524	624	
15	0	0	0	0	524	624	
0	0	0	0	0	524	620	
1	0	0	0	0	524	624	
2	0	0	0	0	525	624	
3	0	0	0	0	525	624	
4	0	0	0	0	525	627	
5	0	0	0	0	524	623	
6	0	0	0	0	523	623	
7	0	0	0	0	524	623	
8	0	0	0	0	524	620	
9	0	0	0	0	523	624	
10	0	0	0	0	523	624	
11	0	0	0	0	523	625	
12	0	0	0	0	524	628	
13	0	0	0	0	524	624	
14	0	0	0	0	524	624	
15	0	0	0	0	524	624	
0	0	0	0	0	525	620	
1	0	0	0	0	525	624	
2	0	0	0	0	524	624	
3	0	0	0	0	524	624	
4	0	0	0	0	524	627	
5	0	0	0	0	524	623	
6	0	0	0	0	524	624	
7	0	0	0	0	524	624	
8	0	0	0	0	524	619	
9	0	0	0	0	524	624	
10	0	0	0	0	524	624	
11	0	0	0	0	525	624	
12	0	0	0	0	526	627	
13	0	0	0	0	527	624	
14	0	0	0	0	527	624	
15	0	0	0	0	527	624	
0	0	0	0	0	526	620	
1	0	0	0	0	526	624	
2	0	0	0	0	526	624	
3	0	0	0	0	526	624	
4	0	0	0	0	525	627	
5	0	0	0	0	525	624	
6	0	0	0	0	526	624	
7	0	0	0	0	526	624	
8	0	0	0	0	526	620	
9	0	0	0	0	526	624	
10	0	0	0	0	526	624	
11	0	0	0	0	525	625	
12	0	0	0	0	525	628	
13	0	0	0	0	525	625	
14	0	0	0	0	526	624	
15	0	0	0	0	525	625	
0	0	0	0	0	525	620	
1	0	0	0	0	525	625	
2	0	0	0	0	524	624	
3	0	0	0	0	524	625	
4	0	0	0	0	526	628	
5	0	0	0	0	526	625	
6	0	0	0	0	525	625	
7	0	0	0	0	525	625	
8	0	0	0	0	525	621	
9	0	0	0	0	526	625	
10	0	0	0	0	526	625	
11	0	0	0	0	525	625	
12	0	0	0	0	526	629	
13	0	0	0	0	526	625	
14	0	0	0	0	526	625	
15	0	0	0	0	526	625	
0	0	0	0	0	526	621	
1	0	0	0	0	526	624	
2	0	0	0	0	525	625	
3	0	0	0	0	524	625	
4	0	0	0	0	523	629	
5	0	0	0	0	523	625	
6	0	0	0	0	523	624	
7	0	0	0	0	523	624	
8	0	0	0	0	522	620	
9	0	0	0	0	521	624	
10	0	0	0	0	521	624	
11	0	0	0	0	520	625	
12	0	0	0	0	519	628	
13	0	0	0	0	520	624	
14	0	0	0	0	519	624	
15	0	0	0	0	520	624	
0	0	0	0	0	521	620	
1	0	0	0	0	520	624	
2	0	0	0	0	520	625	
3	0	0	0	0	521	625	
4	0	0	0	0	521	628	
5	0	0	0	0	521	625	
6	0	0	0	0	520	625	
7	0	0	0	0	521	624	
8	0	0	0	0	522	620	
9	0	0	0	0	523	624	
10	0	0	0	0	522	624	
11	0	0	0	0	521	624	
12	0	0	0	0	521	627	
13	0	0	0	0	520	624	
14	0	0	0	0	520	624	
15	0	0	0	0	519	624	
0	0	0	0	0	520	620	
1	0	0	0	0	519	623	
2	0	0	0	0	519	624	
3	0	0	0	0	519	624	
4	0	0	0	0	519	627	
5	0	0	0	0	519	624	
6	0	0	0	0	519	624	
7	0	0	0	0	520	624	
8	0	0	0	0	521	620	
9	0	0	0	0	520	624	
10	0	0	0	0	519	624	
11	0	0	0	0	518	623	
12	0	0	0	0	518	627	
13	0	0	0	0	519	624	
14	0	0	0	0	519	623	
15	0	0	0	0	518	623	
0	0	0	0	0	518	620	
1	0	0	0	0	518	624	
2	0	0	0	0	516	624	
3	0	0	0	0	515	624	
4	0	0	0	0	516	627	
5	0	0	0	0	515	623	
6	0	0	0	0	516	624	
7	0	0	0	0	516	624	
8	0	0	0	0	516	620	
9	0	0	0	0	515	623	
10	0	0	0	0	515	623	
11	0	0	0	0	514	623	
12	0	0	0	0	515	627	
13	0	0	0	0	515	624	
14	0	0	0	0	515	624	
15	0	0	0	0	516	624	
0	0	0	0	0	516	620	
1	0	0	0	0	517	623	
2	0	0	0	0	516	623	
3	0	0	0	0	516	624	
4	0	0	0	0	517	627	
5	0	0	0	0	517	624	
6	0	0	0	0	516	624	
7	0	0	0	0	516	623	
8	0	0	0	0	516	620	
9	0	0	0	0	516	624	
10	0	0	0	0	516	625	
11	0	0	0	0	516	624	
12	0	0	0	0	517	627	
13	0	0	0	0	516	624	
14	0	0	0	0	517	624	
15	0	0	0	0	517	624	
0	0	0	0	0	518	620	
1	0	0	0	0	518	625	
2	0	0	0	0	518	624	
3	0	0	0	0	518	624	
4	0	0	0	0	518	627	
5	0	0	0	0	518	624	
6	0	0	0	0	518	624	
7	0	0	0	0	517	624	
8	0	0	0	0	516	620	
9	0	0	0	0	515	624	
10	0	0	0	0	515	624	
11	0	0	0	0	515	624	
12	0	0	0	0	516	627	
13	0	0	0	0	517	624	
14	0	0	0	0	516	624	
15	0	0	0	0	515	624	
0	0	0	0	0	514	620	
1	0	0	0	0	514	625	
2	0	0	0	0	514	624	
3	0	0	0	0	514	624	
4	0	0	0	0	514	628	
5	0	0	0	0	515	625	
6	0	0	0	0	515	624	
7	0	0	0	0	515	625	
8	0	0	0	0	516	621	
9	0	0	0	0	516	625	
10	0	0	0	0	516	625	
11	0	0	0	0	516	624	
12	0	0	0	0	517	628	
13	0	0	0	0	518	625	
14	0	0	0	0	519	624	
15	0	0	0	0	519	624	
0	0	0	0	0	518	621	
1	0	0	0	0	518	624	
2	0	0	0	0	519	624	
3	0	0	0	0	519	625	
4	0	0	0	0	518	628	
5	0	0	0	0	518	625	
6	0	0	0	0	516	625	
7	0	0	0	0	516	624	
8	0	0	0	0	515	620	
9	0	0	0	0	515	624	
10	0	0	0	0	515	625	
11	0	0	0	0	515	625	
12	0	0	0	0	516	628	
13	0	0	0	0	516	624	
14	0	0	0	0	516	624	
15	0	0	0	0	516	624	
0	0	0	0	0	515	621	
1	0	0	0	0	516	624	
2	0	0	0	0	517	624	
3	0	0	0	0	517	624	
4	0	0	0	0	516	627	
5	0	0	0	0	516	624	
6	0	0	0	0	516	624	
7	0	0	0	0	517	624	
8	0	0	0	0	517	620	
9	0	0	0	0	516	624	
10	0	0	0	0	516	624	
11	0	0	0	0	516	624	
12	0	0	0	0	516	627	
13	0	0	0	0	516	624	
14	0	0	0	0	516	624	
15	0	0	0	0	516	624	
0	0	0	0	0	516	620	
1	0	0	0	0	517	624	
2	0	0	0	0	517	624	
3	0	0	0	0	516	624	
4	0	0	0	0	517	627	
5	0	0	0	0	517	624	
6	0	0	0	0	518	624	
7	0	0	0	0	518	624	
8	0	0	0	0	517	619	
9	0	0	0	0	517	624	
10	0	0	0	0	518	624	
11	0	0	0	0	518	624	
12	0	0	0	0	518	627	
13	0	0	0	0	517	624	
14	0	0	0	0	517	624	
15	0	0	0	0	516	624	
0	0	0	0	0	517	620	
1	0	0	0	0	516	623	
2	0	0	0	0	516	624	
3	0	0	0	0	516	624	
4	0	0	0	0	515	627	
5	0	0	0	0	515	624	
6	0	0	0	0	516	624	
7	0	0	0	0	516	624	
8	0	0	0	0	515	620	
9	0	0	0	0	515	623	
10	0	0	0	0	516	624	
11	0	0	0	0	515	624	
12	0	0	0	0	515	627	
13	0	0	0	0	514	624	
14	0	0	0	0	513	625	
15	0	0	0	0	514	624	
0	0	0	0	0	514	620	
1	0	0	0	0	516	624	
2	0	0	0	0	517	624	
3	0	0	0	0	517	624	
4	0	0	0	0	515	627	
5	0	0	0	0	514	624	
6	0	0	0	0	513	624	
7	0	0	0	0	513	624	
8	0	0	0	0	513	620	
9	0	0	0	0	514	624	
10	0	0	0	0	514	624	
11	0	0	0	0	515	624	
12	0	0	0	0	514	628	
13	0	0	0	0	514	624	
14	0	0	0	0	513	624	
15	0	0	0	0	513	624	
0	0	0	0	0	514	620	
1	0	0	0	0	514	625	
2	0	0	0	0	514	625	
3	0	0	0	0	514	625	
4	0	0	0	0	513	628	
5	0	0	0	0	514	624	
6	0	0	0	0	515	624	
7	0	0	0	0	515	624	
8	0	0	0	0	514	620	
9	0	0	0	0	514	624	
10	0	0	0	0	515	624	
11	0	0	0	0	514	624	
12	0	0	0	0	513	628	
13	0	0	0	0	513	624	
14	0	0	0	0	512	623	
15	0	0	0	0	512	624	
0	0	0	0	0	512	621	
1	0	0	0	0	511	625	
2	0	0	0	0	511	624	
3	0	0	0	0	512	625	
4	0	0	0	0	512	628	
5	0	0	0	0	512	625	
6	0	0	0	0	512	624	
7	0	0	0	0	512	624	
8	0	0	0	0	513	620	
9	0	0	0	0	513	624	
10	0	0	0	0	514	624	
11	0	0	0	0	514	625	
12	0	0	0	0	513	628	
13	0	0	0	0	513	624	
14	0	0	0	0	513	625	
15	0	0	0	0	513	624	
0	0	0	0	0	514	621	
1	0	0	0	0	515	624	
2	0	0	0	0	514	624	
3	0	0	0	0	514	624	
4	0	0	0	0	515	627	
5	0	0	0	0	514	624	
6	0	0	0	0	513	624	
7	0	0	0	0	513	624	
8	0	0	0	0	512	620	
9	0	0	0	0	512	624	
10	0	0	0	0	512	625	
11	0	0	0	0	512	624	
12	0	0	0	0	512	627	
13	0	0	0	0	512	624	
14	0	0	0	0	513	625	
15	0	0	0	0	512	624	
0	0	0	0	0	512	620	
1	0	0	0	0	512	625	
2	0	0	0	0	511	625	
3	0	0	0	0	511	625	
4	0	0	0	0	511	628	
5	0	0	0	0	510	625	
6	0	0	0	0	510	625	
7	0	0	0	0	510	624	
8	0	0	0	0	511	620	
9	0	0	0	0	511	624	
10	0	0	0	0	511	625	
11	0	0	0	0	512	625	
12	0	0	0	0	513	628	
13	0	0	0	0	513	624	
14	0	0	0	0	512	625	
15	0	0	0	0	512	625	
0	0	0	0	0	511	621	
1	0	0	0	0	510	625	
2	0	0	0	0	509	624	
3	0	0	0	0	508	625	
4	0	0	0	0	509	628	
5	0	0	0	0	510	625	
6	0	0	0	0	510	624	
7	0	0	0	0	511	625	
8	0	0	0	0	511	621	
9	0	0	0	0	511	625	
10	0	0	0	0	511	625	
11	0	0	0	0	511	625	
12	0	0	0	0	512	629	
13	0	0	0	0	512	625	
14	0	0	0	0	513	625	
15	0	0	0	0	512	625	
0	0	0	0	0	512	622	
1	0	0	0	0	511	626	
2	0	0	0	0	509	626	
3	0	0	0	0	508	627	
4	0	0	0	0	508	630	
5	0	0	0	0	509	626	
6	0	0	0	0	508	627	
7	0	0	0	0	507	626	
8	0	0	0	0	508	623	
9	0	0	0	0	508	626	
10	0	0	0	0	508	626	
11	0	0	0	0	508	625	
12	0	0	0	0	507	628	
13	0	0	0	0	507	626	
14	0	0	0	0	507	625	
15	0	0	0	0	506	626	
0	0	0	0	0	506	622	
1	0	0	0	0	506	625	
2	0	0	0	0	505	626	
3	0	0	0	0	504	627	
4	0	0	0	0	504	630	
5	0	0	0	0	505	626	
6	0	0	0	0	504	625	
7	0	0	0	0	503	624	
8	0	0	0	0	504	620	
9	0	0	0	0	504	625	
10	0	0	0	0	504	624	
11	0	0	0	0	503	624	
12	0	0	0	0	503	628	
13	0	0	0	0	503	625	
14	0	0	0	0	503	625	
15	0	0	0	0	502	625	
0	0	0	0	0	501	622	
1	0	0	0	0	501	625	
2	0	0	0	0	500	625	
3	0	0	0	0	500	625	
4	0	0	0	0	500	629	
5	0	0	0	0	499	625	
6	0	0	0	0	499	625	
7	0	0	0	0	498	625	
8	0	0	0	0	498	621	
9	0	0	0	0	498	625	
10	0	0	0	0	498	624	
11	0	0	0	0	498	624	
12	0	0	0	0	498	627	
13	0	0	0	0	498	624	
14	0	0	0	0	498	624	
15	0	0	0	0	497	624	
0	0	0	0	0	498	621	
1	0	0	0	0	498	624	
2	0	0	0	0	497	625	
3	0	0	0	0	498	625	
4	0	0	0	0	499	628	
5	0	0	0	0	500	624	
6	0	0	0	0	499	624	
7	0	0	0	0	499	624	
8	0	0	0	0	502	621	
9	0	0	0	0	503	625	
10	0	0	0	0	503	625	
11	0	0	0	0	504	625	
12	0	0	0	0	505	628	
13	0	0	0	0	506	624	
14	0	0	0	0	507	624	
15	0	0	0	0	506	624	
0	0	0	0	0	506	620	
1	0	0	0	0	506	624	
2	0	0	0	0	506	624	
3	0	0	0	0	506	624	
4	0	0	0	0	506	627	
5	0	0	0	0	506	624	
6	0	0	0	0	505	624	
7	0	0	0	0	507	624	
8	0	0	0	0	507	620	
9	0	0	0	0	507	625	
10	0	0	0	0	507	625	
11	0	0	0	0	506	625	
12	0	0	0	0	507	629	
13	0	0	0	0	507	625	
14	0	0	0	0	506	625	
15	0	0	0	0	505	625	
0	0	0	0	0	505	620	
1	0	0	0	0	506	625	
2	0	0	0	0	506	624	
3	0	0	0	0	507	624	
4	0	0	0	0	507	628	
5	0	0	0	0	507	624	
6	0	0	0	0	508	625	
7	0	0	0	0	508	624	
8	0	0	0	0	509	620	
9	0	0	0	0	508	624	
10	0	0	0	0	507	624	
11	0	0	0	0	508	624	
12	0	0	0	0	509	628	
13	0	0	0	0	510	624	
14	0	0	0	0	511	624	
15	0	0	0	0	510	624	
0	0	0	0	0	510	620	
1	0	0	0	0	511	623	
2	0	0	0	0	510	623	
3	0	0	0	0	510	624	
4	0	0	0	0	509	626	
5	0	0	0	0	510	624	
6	0	0	0	0	509	623	
7	0	0	0	0	508	623	
8	0	0	0	0	509	620	
9	0	0	0	0	509	624	
10	0	0	0	0	509	624	
11	0	0	0	0	509	624	
12	0	0	0	0	508	627	
13	0	0	0	0	508	624	
14	0	0	0	0	507	624	
15	0	0	0	0	507	624	
0	0	0	0	0	507	620	
1	0	0	0	0	507	623	
2	0	0	0	0	507	624	
3	0	0	0	0	507	624	
4	0	0	0	0	507	627	
5	0	0	0	0	507	623	
6	0	0	0	0	507	623	
7	0	0	0	0	507	622	
8	0	0	0	0	507	619	
9	0	0	0	0	507	623	
10	0	0	0	0	507	623	
11	0	0	0	0	506	623	
12	0	0	0	0	506	627	
13	0	0	0	0	506	623	
14	0	0	0	0	506	623	
15	0	0	0	0	506	623	
0	0	0	0	0	505	619	
1	0	0	0	0	506	623	
2	0	0	0	0	506	623	
3	0	0	0	0	507	624	
4	0	0	0	0	508	627	
5	0	0	0	0	509	623	
6	0	0	0	0	509	623	
7	0	0	0	0	508	622	
8	0	0	0	0	507	619	
9	0	0	0	0	507	623	
10	0	0	0	0	507	623	
11	0	0	0	0	507	623	
12	0	0	0	0	508	627	
13	0	0	0	0	508	623	
14	0	0	0	0	508	623	
15	0	0	0	0	507	622	
0	0	0	0	0	505	619	
1	0	0	0	0	505	623	
2	0	0	0	0	505	623	
3	0	0	0	0	505	623	
4	0	0	0	0	505	626	
5	0	0	0	0	505	623	
6	0	0	0	0	506	623	
7	0	0	0	0	506	623	
8	0	0	0	0	505	619	
9	0	0	0	0	506	623	
10	0	0	0	0	507	623	
11	0	0	0	0	507	624	
12	0	0	0	0	507	627	
13	0	0	0	0	506	624	
14	0	0	0	0	506	623	
15	0	0	0	0	505	623	
0	0	0	0	0	504	620	
1	0	0	0	0	501	624	
2	0	0	0	0	498	623	
3	0	0	0	0	494	624	
4	0	0	0	0	490	627	
5	0	0	0	0	487	624	
6	0	0	0	0	483	624	
7	0	0	0	0	480	624	
8	0	0	0	0	478	620	
9	0	0	0	0	475	624	
10	0	0	0	0	471	624	
11	0	0	0	0	467	624	
12	0	0	0	0	462	627	
13	0	0	0	0	460	624	
14	0	0	0	0	456	624	
15	0	0	0	0	454	624	
0	0	0	0	0	451	621	
1	0	0	0	0	449	624	
2	0	0	0	0	451	625	
3	0	0	0	0	455	625	
4	0	0	0	0	461	628	
5	0	0	0	0	471	625	
6	0	0	0	0	478	625	
7	0	0	0	0	489	624	
8	0	0	0	0	503	621	
9	0	0	0	0	519	625	
10	0	0	0	0	536	625	
11	0	0	0	0	553	624	
12	0	0	0	0	575	628	
13	0	0	0	0	594	624	
14	0	0	0	0	614	624	
15	0	0	0	0	633	624	
0	0	0	0	0	653	620	
1	0	0	0	0	673	624	
2	0	0	0	0	687	624	
3	0	0	0	0	696	625	
4	0	0	0	0	703	628	
5	0	0	0	0	708	624	
6	0	0	0	0	711	624	
7	0	0	0	0	713	624	
8	0	0	0	0	713	620	
9	0	0	0	0	708	624	
10	0	0	0	0	701	624	
11	0	0	0	0	691	625	
12	0	0	0	0	679	628	
13	0	0	0	0	664	624	
14	0	0	0	0	651	625	
15	0	0	0	0	641	624	
0	0	0	0	0	633	620	
1	0	0	0	0	627	624	
2	0	0	0	0	623	624	
3	0	0	0	0	615	624	
4	0	0	0	0	604	628	
5	0	0	0	0	592	624	
6	0	0	0	0	577	624	
7	0	0	0	0	561	624	
8	0	0	0	0	546	620	
9	0	0	0	0	533	623	
10	0	0	0	0	524	624	
11	0	0	0	0	518	624	
12	0	0	0	0	512	628	
13	0	0	0	0	509	624	
14	0	0	0	0	504	624	
15	0	0	0	0	500	624	
0	0	0	0	0	495	620	
1	0	0	0	0	491	624	
2	0	0	0	0	488	624	
3	0	0	0	0	484	624	
4	0	0	0	0	480	627	
5	0	0	0	0	477	624	
6	0	0	0	0	475	624	
7	0	0	0	0	472	624	
8	0	0	0	0	470	620	
9	0	0	0	0	467	624	
10	0	0	0	0	465	624	
11	0	0	0	0	462	624	
12	0	0	0	0	459	627	
13	0	0	0	0	455	623	
14	0	0	0	0	452	624	
15	0	0	0	0	451	624	
0	0	0	0	0	449	620	
1	0	0	0	0	448	623	
2	0	0	0	0	448	624	
3	0	0	0	0	448	624	
4	0	0	0	0	448	627	
5	0	0	0	0	447	624	
6	0	0	0	0	446	624	
7	0	0	0	0	445	624	
8	0	0	0	0	445	620	
9	0	0	0	0	444	624	
10	0	0	0	0	444	624	
11	0	0	0	0	443	625	
12	0	0	0	0	443	628	
13	0	0	0	0	443	624	
14	0	0	0	0	443	624	
15	0	0	0	0	443	624	
0	0	0	0	0	444	620	
1	0	0	0	0	443	624	
2	0	0	0	0	443	624	
3	0	0	0	0	444	624	
4	0	0	0	0	444	627	
5	0	0	0	0	446	624	
6	0	0	0	0	446	624	
7	0	0	0	0	447	624	
8	0	0	0	0	448	620	
9	0	0	0	0	448	624	
10	0	0	0	0	448	624	
11	0	0	0	0	448	624	
12	0	0	0	0	450	627	
13	0	0	0	0	451	625	
14	0	0	0	0	452	624	
15	0	0	0	0	453	624	
0	0	0	0	0	453	621	
1	0	0	0	0	453	624	
2	0	0	0	0	454	624	
3	0	0	0	0	453	624	
4	0	0	0	0	454	627	
5	0	0	0	0	454	624	
6	0	0	0	0	453	625	
7	0	0	0	0	454	624	
8	0	0	0	0	454	620	
9	0	0	0	0	454	625	
10	0	0	0	0	454	625	
11	0	0	0	0	455	625	
12	0	0	0	0	455	628	
13	0	0	0	0	455	624	
14	0	0	0	0	456	624	
15	0	0	0	0	458	624	
0	0	0	0	0	460	620	
1	0	0	0	0	461	624	
2	0	0	0	0	461	624	
3	0	0	0	0	462	625	
4	0	0	0	0	462	628	
5	0	0	0	0	463	624	
6	0	0	0	0	462	624	
7	0	0	0	0	462	624	
8	0	0	0	0	463	621	
9	0	0	0	0	463	624	
10	0	0	0	0	464	624	
11	0	0	0	0	464	624	
12	0	0	0	0	463	627	
13	0	0	0	0	464	624	
14	0	0	0	0	464	624	
15	0	0	0	0	465	624	
0	0	0	0	0	465	621	
1	0	0	0	0	464	624	
2	0	0	0	0	464	625	
3	0	0	0	0	464	624	
4	0	0	0	0	464	627	
5	0	0	0	0	465	624	
6	0	0	0	0	466	624	
7	0	0	0	0	468	624	
8	0	0	0	0	468	621	
9	0	0	0	0	468	625	
10	0	0	0	0	468	625	
11	0	0	0	0	467	624	
12	0	0	0	0	466	628	
13	0	0	0	0	465	624	
14	0	0	0	0	465	624	
15	0	0	0	0	465	624	
0	0	0	0	0	465	620	
1	0	0	0	0	465	624	
2	0	0	0	0	465	624	
3	0	0	0	0	466	624	
4	0	0	0	0	468	628	
5	0	0	0	0	469	624	
6	0	0	0	0	469	624	
7	0	0	0	0	470	624	
8	0	0	0	0	470	620	
9	0	0	0	0	468	624	
10	0	0	0	0	468	624	
11	0	0	0	0	468	624	
12	0	0	0	0	467	628	
13	0	0	0	0	467	624	
14	0	0	0	0	467	624	
15	0	0	0	0	467	624	
0	0	0	0	0	466	620	
1	0	0	0	0	466	624	
2	0	0	0	0	466	624	
3	0	0	0	0	466	625	
4	0	0	0	0	466	628	
5	0	0	0	0	466	625	
6	0	0	0	0	465	624	
7	0	0	0	0	465	624	
8	0	0	0	0	465	621	
9	0	0	0	0	465	624	
10	0	0	0	0	465	624	
11	0	0	0	0	465	624	
12	0	0	0	0	465	628	
13	0	0	0	0	465	624	
14	0	0	0	0	465	624	
15	0	0	0	0	465	624	
0	0	0	0	0	464	621	
1	0	0	0	0	464	624	
2	0	0	0	0	465	624	
3	0	0	0	0	465	625	
4	0	0	0	0	464	628	
5	0	0	0	0	464	624	
6	0	0	0	0	464	624	
7	0	0	0	0	465	624	
8	0	0	0	0	465	620	
9	0	0	0	0	465	625	
10	0	0	0	0	465	625	
11	0	0	0	0	466	624	
12	0	0	0	0	467	628	
13	0	0	0	0	467	624	
14	0	0	0	0	467	624	
15	0	0	0	0	467	624	
0	0	0	0	0	466	620	
1	0	0	0	0	466	624	
2	0	0	0	0	465	624	
3	0	0	0	0	465	625	
4	0	0	0	0	464	627	
5	0	0	0	0	466	624	
6	0	0	0	0	465	625	
7	0	0	0	0	465	624	
8	0	0	0	0	465	620	
9	0	0	0	0	466	624	
10	0	0	0	0	467	624	
11	0	0	0	0	467	624	
12	0	0	0	0	468	628	
13	0	0	0	0	469	624	
14	0	0	0	0	469	625	
15	0	0	0	0	469	624	
0	0	0	0	0	469	621	
1	0	0	0	0	469	624	
2	0	0	0	0	470	625	
3	0	0	0	0	471	625	
4	0	0	0	0	472	628	
5	0	0	0	0	472	625	
6	0	0	0	0	473	624	
7	0	0	0	0	474	625	
8	0	0	0	0	475	622	
9	0	0	0	0	476	625	
10	0	0	0	0	476	625	
11	0	0	0	0	478	625	
12	0	0	0	0	479	630	
13	0	0	0	0	480	625	
14	0	0	0	0	482	625	
15	0	0	0	0	483	625	
0	0	0	0	0	483	621	
1	0	0	0	0	484	626	
2	0	0	0	0	485	626	
3	0	0	0	0	487	626	
4	0	0	0	0	487	629	
5	0	0	0	0	488	625	
6	0	0	0	0	490	626	
7	0	0	0	0	491	625	
8	0	0	0	0	492	622	
9	0	0	0	0	492	625	
10	0	0	0	0	492	625	
11	0	0	0	0	493	625	
12	0	0	0	0	494	628	
13	0	0	0	0	495	625	
14	0	0	0	0	497	626	
15	0	0	0	0	498	625	
0	0	0	0	0	499	622	
1	0	0	0	0	499	625	
2	0	0	0	0	500	625	
3	0	0	0	0	503	625	
4	0	0	0	0	505	628	
5	0	0	0	0	507	625	
6	0	0	0	0	508	625	
7	0	0	0	0	509	625	
8	0	0	0	0	509	621	
9	0	0	0	0	508	625	
10	0	0	0	0	508	625	
11	0	0	0	0	508	626	
12	0	0	0	0	510	629	
13	0	0	0	0	512	624	
14	0	0	0	0	513	625	
15	0	0	0	0	515	625	
0	0	0	0	0	515	621	
1	0	0	0	0	517	625	
2	0	0	0	0	519	625	
3	0	0	0	0	519	625	
4	0	0	0	0	520	628	
5	0	0	0	0	519	626	
6	0	0	0	0	518	625	
7	0	0	0	0	519	625	
8	0	0	0	0	520	621	
9	0	0	0	0	520	624	
10	0	0	0	0	521	625	
11	0	0	0	0	522	625	
12	0	0	0	0	523	628	
13	0	0	0	0	524	624	
14	0	0	0	0	524	625	
15	0	0	0	0	523	625	
0	0	0	0	0	523	621	
1	0	0	0	0	523	624	
2	0	0	0	0	524	625	
3	0	0	0	0	524	625	
4	0	0	0	0	524	628	
5	0	0	0	0	523	625	
6	0	0	0	0	524	624	
7	0	0	0	0	524	624	
8	0	0	0	0	524	620	
9	0	0	0	0	524	624	
10	0	0	0	0	524	624	
11	0	0	0	0	524	625	
12	0	0	0	0	523	629	
13	0	0	0	0	523	625	
14	0	0	0	0	523	624	
15	0	0	0	0	524	625	
0	0	0	0	0	524	621	
1	0	0	0	0	524	625	
2	0	0	0	0	525	624	
3	0	0	0	0	526	624	
4	0	0	0	0	526	628	
5	0	0	0	0	526	625	
6	0	0	0	0	525	625	
7	0	0	0	0	526	625	
8	0	0	0	0	527	620	
9	0	0	0	0	526	625	
10	0	0	0	0	525	624	
11	0	0	0	0	525	625	
12	0	0	0	0	525	628	
13	0	0	0	0	525	624	
14	0	0	0	0	524	624	
15	0	0	0	0	523	624	
0	0	0	0	0	524	620	
1	0	0	0	0	524	624	
2	0	0	0	0	525	625	
3	0	0	0	0	526	624	
4	0	0	0	0	526	628	
5	0	0	0	0	526	624	
6	0	0	0	0	526	624	
7	0	0	0	0	525	624	
8	0	0	0	0	525	620	
9	0	0	0	0	524	624	
10	0	0	0	0	523	624	
11	0	0	0	0	523	624	
12	0	0	0	0	524	627	
13	0	0	0	0	524	625	
14	0	0	0	0	524	624	
15	0	0	0	0	524	624	
0	0	0	0	0	524	621	
1	0	0	0	0	524	624	
2	0	0	0	0	524	624	
3	0	0	0	0	524	624	
4	0	0	0	0	523	627	
5	0	0	0	0	523	624	
6	0	0	0	0	523	624	
7	0	0	0	0	523	623	
8	0	0	0	0	523	620	
9	0	0	0	0	523	624	
10	0	0	0	0	524	624	
11	0	0	0	0	525	624	
12	0	0	0	0	524	627	
13	0	0	0	0	524	624	
14	0	0	0	0	523	624	
15	0	0	0	0	523	624	
0	0	0	0	0	523	620	
1	0	0	0	0	522	624	
2	0	0	0	0	522	624	
3	0	0	0	0	523	624	
4	0	0	0	0	523	627	
5	0	0	0	0	524	624	
6	0	0	0	0	524	624	
7	0	0	0	0	523	624	
8	0	0	0	0	522	620	
9	0	0	0	0	521	624	
10	0	0	0	0	520	624	
11	0	0	0	0	519	624	
12	0	0	0	0	519	627	
13	0	0	0	0	519	623	
14	0	0	0	0	519	624	
15	0	0	0	0	519	624	
0	0	0	0	0	519	620	
1	0	0	0	0	518	623	
2	0	0	0	0	518	624	
3	0	0	0	0	518	624	
4	0	0	0	0	518	627	
5	0	0	0	0	517	623	
6	0	0	0	0	518	623	
7	0	0	0	0	518	623	
8	0	0	0	0	518	620	
9	0	0	0	0	518	624	
10	0	0	0	0	518	624	
11	0	0	0	0	518	623	
12	0	0	0	0	518	627	
13	0	0	0	0	518	624	
14	0	0	0	0	518	624	
15	0	0	0	0	518	623	
0	0	0	0	0	518	619	
1	0	0	0	0	518	624	
2	0	0	0	0	518	624	
3	0	0	0	0	517	624	
4	0	0	0	0	518	627	
5	0	0	0	0	518	624	
6	0	0	0	0	517	624	
7	0	0	0	0	518	623	
8	0	0	0	0	518	620	
9	0	0	0	0	517	624	
10	0	0	0	0	516	625	
11	0	0	0	0	516	624	
12	0	0	0	0	516	628	
13	0	0	0	0	516	624	
14	0	0	0	0	516	625	
15	0	0	0	0	516	624	
0	0	0	0	0	515	620	
1	0	0	0	0	516	624	
2	0	0	0	0	515	624	
3	0	0	0	0	515	624	
4	0	0	0	0	514	627	
5	0	0	0	0	515	623	
6	0	0	0	0	514	623	
7	0	0	0	0	513	623	
8	0	0	0	0	513	620	
9	0	0	0	0	514	624	
10	0	0	0	0	515	624	
11	0	0	0	0	515	624	
12	0	0	0	0	514	627	
13	0	0	0	0	514	623	
14	0	0	0	0	514	624	
15	0	0	0	0	514	624	
0	0	0	0	0	514	620	
1	0	0	0	0	515	624	
2	0	0	0	0	515	624	
3	0	0	0	0	515	624	
4	0	0	0	0	515	627	
5	0	0	0	0	515	624	
6	0	0	0	0	514	623	
7	0	0	0	0	514	623	
8	0	0	0	0	515	620	
9	0	0	0	0	514	623	
10	0	0	0	0	514	623	
11	0	0	0	0	512	623	
12	0	0	0	0	512	627	
13	0	0	0	0	512	623	
14	0	0	0	0	511	623	
15	0	0	0	0	512	623	
0	0	0	0	0	513	619	
1	0	0	0	0	514	623	
2	0	0	0	0	515	623	
3	0	0	0	0	515	623	
4	0	0	0	0	516	627	
5	0	0	0	0	516	623	
6	0	0	0	0	514	623	
7	0	0	0	0	513	623	
8	0	0	0	0	513	620	
9	0	0	0	0	513	624	
10	0	0	0	0	514	624	
11	0	0	0	0	514	624	
12	0	0	0	0	514	627	
13	0	0	0	0	515	623	
14	0	0	0	0	515	624	
15	0	0	0	0	516	624	
0	0	0	0	0	516	620	
1	0	0	0	0	517	624	
2	0	0	0	0	517	624	
3	0	0	0	0	516	625	
4	0	0	0	0	516	627	
5	0	0	0	0	517	624	
6	0	0	0	0	517	624	
7	0	0	0	0	516	624	
8	0	0	0	0	516	621	
9	0	0	0	0	516	625	
10	0	0	0	0	517	624	
11	0	0	0	0	517	624	
12	0	0	0	0	516	627	
13	0	0	0	0	516	624	
14	0	0	0	0	515	625	
15	0	0	0	0	516	625	
0	0	0	0	0	515	621	
1	0	0	0	0	516	624	
2	0	0	0	0	516	626	
3	0	0	0	0	516	625	
4	0	0	0	0	517	629	
5	0	0	0	0	517	625	
6	0	0	0	0	516	625	
7	0	0	0	0	516	625	
8	0	0	0	0	516	621	
9	0	0	0	0	516	625	
10	0	0	0	0	516	625	
11	0	0	0	0	516	625	
12	0	0	0	0	517	629	
13	0	0	0	0	518	625	
14	0	0	0	0	518	625	
15	0	0	0	0	519	625	
0	0	0	0	0	518	622	
1	0	0	0	0	517	625	
2	0	0	0	0	516	625	
3	0	0	0	0	516	626	
4	0	0	0	0	515	629	
5	0	0	0	0	515	626	
6	0	0	0	0	517	626	
7	0	0	0	0	517	625	
8	0	0	0	0	518	622	
9	0	0	0	0	518	625	
10	0	0	0	0	518	625	
11	0	0	0	0	518	626	
12	0	0	0	0	519	629	
13	0	0	0	0	518	625	
14	0	0	0	0	517	625	
15	0	0	0	0	516	625	
0	0	0	0	0	516	622	
1	0	0	0	0	515	625	
2	0	0	0	0	516	625	
3	0	0	0	0	518	625	
4	0	0	0	0	518	628	
5	0	0	0	0	517	625	
6	0	0	0	0	516	625	
7	0	0	0	0	516	624	
8	0	0	0	0	515	620	
9	0	0	0	0	514	625	
10	0	0	0	0	514	625	
11	0	0	0	0	513	625	
12	0	0	0	0	514	628	
13	0	0	0	0	515	624	
14	0	0	0	0	515	625	
15	0	0	0	0	515	624	
0	0	0	0	0	515	620	
1	0	0	0	0	515	624	
2	0	0	0	0	515	624	
3	0	0	0	0	514	624	
4	0	0	0	0	512	627	
5	0	0	0	0	512	624	
6	0	0	0	0	511	625	
7	0	0	0	0	510	624	
8	0	0	0	0	511	620	
9	0	0	0	0	511	624	
10	0	0	0	0	512	624	
11	0	0	0	0	511	624	
12	0	0	0	0	511	627	
13	0	0	0	0	511	624	
14	0	0	0	0	511	625	
15	0	0	0	0	512	624	
0	0	0	0	0	512	621	
1	0	0	0	0	511	624	
2	0	0	0	0	512	624	
3	0	0	0	0	512	624	
4	0	0	0	0	513	627	
5	0	0	0	0	513	624	
6	0	0	0	0	513	624	
7	0	0	0	0	514	623	
8	0	0	0	0	515	620	
9	0	0	0	0	515	624	
10	0	0	0	0	514	624	
11	0	0	0	0	512	624	
12	0	0	0	0	512	627	
13	0	0	0	0	512	624	
14	0	0	0	0	511	624	
15	0	0	0	0	510	623	
0	0	0	0	0	510	620	
1	0	0	0	0	511	624	
2	0	0	0	0	511	624	
3	0	0	0	0	511	624	
4	0	0	0	0	511	627	
5	0	0	0	0	511	624	
6	0	0	0	0	511	623	
7	0	0	0	0	511	624	
8	0	0	0	0	511	621	
9	0	0	0	0	511	624	
10	0	0	0	0	511	624	
11	0	0	0	0	512	624	
12	0	0	0	0	512	627	
13	0	0	0	0	511	624	
14	0	0	0	0	511	624	
15	0	0	0	0	511	623	
0	0	0	0	0	512	620	
1	0	0	0	0	512	624	
2	0	0	0	0	512	624	
3	0	0	0	0	512	624	
4	0	0	0	0	512	627	
5	0	0	0	0	512	624	
6	0	0	0	0	512	624	
7	0	0	0	0	512	624	
8	0	0	0	0	511	621	
9	0	0	0	0	511	624	
10	0	0	0	0	511	624	
11	0	0	0	0	511	625	
12	0	0	0	0	510	628	
13	0	0	0	0	510	625	
14	0	0	0	0	510	624	
15	0	0	0	0	510	624	
0	0	0	0	0	510	621	
1	0	0	0	0	511	625	
2	0	0	0	0	511	625	
3	0	0	0	0	511	625	
4	0	0	0	0	510	629	
5	0	0	0	0	510	625	
6	0	0	0	0	510	625	
7	0	0	0	0	509	625	
8	0	0	0	0	509	621	
9	0	0	0	0	510	625	
10	0	0	0	0	510	625	
11	0	0	0	0	510	625	
12	0	0	0	0	510	629	
13	0	0	0	0	511	625	
14	0	0	0	0	511	625	
15	0	0	0	0	510	626	
0	0	0	0	0	509	622	
1	0	0	0	0	509	626	
2	0	0	0	0	509	625	
3	0	0	0	0	509	626	
4	0	0	0	0	509	629	
5	0	0	0	0	508	625	
6	0	0	0	0	509	625	
7	0	0	0	0	509	625	
8	0	0	0	0	509	621	
9	0	0	0	0	510	626	
10	0	0	0	0	510	625	
11	0	0	0	0	510	625	
12	0	0	0	0	509	628	
13	0	0	0	0	508	624	
14	0	0	0	0	508	625	
15	0	0	0	0	508	625	
0	0	0	0	0	508	621	
1	0	0	0	0	508	625	
2	0	0	0	0	508	625	
3	0	0	0	0	509	625	
4	0	0	0	0	509	628	
5	0	0	0	0	509	625	
6	0	0	0	0	509	625	
7	0	0	0	0	509	625	
8	0	0	0	0	509	621	
9	0	0	0	0	508	624	
10	0	0	0	0	508	625	
11	0	0	0	0	507	624	
12	0	0	0	0	507	628	
13	0	0	0	0	507	624	
14	0	0	0	0	506	624	
15	0	0	0	0	505	624	
0	0	0	0	0	506	620	
1	0	0	0	0	506	624	
2	0	0	0	0	507	624	
3	0	0	0	0	508	624	
4	0	0	0	0	509	627	
5	0	0	0	0	509	624	
6	0	0	0	0	508	624	
7	0	0	0	0	508	624	
8	0	0	0	0	507	620	
9	0	0	0	0	506	625	
10	0	0	0	0	505	624	
11	0	0	0	0	505	624	
12	0	0	0	0	506	628	
13	0	0	0	0	506	624	
14	0	0	0	0	507	625	
15	0	0	0	0	507	624	
0	0	0	0	0	507	620	
1	0	0	0	0	507	624	
2	0	0	0	0	506	624	
3	0	0	0	0	506	624	
4	0	0	0	0	506	627	
5	0	0	0	0	505	624	
6	0	0	0	0	505	624	
7	0	0	0	0	505	624	
8	0	0	0	0	504	620	
9	0	0	0	0	504	624	
10	0	0	0	0	504	624	
11	0	0	0	0	503	624	
12	0	0	0	0	504	628	
13	0	0	0	0	504	624	
14	0	0	0	0	504	624	
15	0	0	0	0	503	624	
0	0	0	0	0	504	620	
1	0	0	0	0	503	624	
2	0	0	0	0	503	624	
3	0	0	0	0	502	624	
4	0	0	0	0	501	627	
5	0	0	0	0	501	624	
6	0	0	0	0	500	624	
7	0	0	0	0	500	624	
8	0	0	0	0	500	620	
9	0	0	0	0	500	624	
10	0	0	0	0	499	624	
11	0	0	0	0	499	624	
12	0	0	0	0	498	628	
13	0	0	0	0	498	623	
14	0	0	0	0	497	624	
15	0	0	0	0	496	624	
0	0	0	0	0	496	620	
1	0	0	0	0	496	624	
2	0	0	0	0	496	624	
3	0	0	0	0	496	624	
4	0	0	0	0	497	627	
5	0	0	0	0	496	624	
6	0	0	0	0	496	624	
7	0	0	0	0	496	624	
8	0	0	0	0	497	620	
9	0	0	0	0	499	625	
10	0	0	0	0	500	625	
11	0	0	0	0	502	625	
12	0	0	0	0	503	628	
13	0	0	0	0	504	624	
14	0	0	0	0	505	625	
15	0	0	0	0	504	624	
0	0	0	0	0	504	621	
1	0	0	0	0	504	624	
2	0	0	0	0	504	625	
3	0	0	0	0	505	625	
4	0	0	0	0	507	629	
5	0	0	0	0	508	625	
6	0	0	0	0	508	624	
7	0	0	0	0	508	625	
8	0	0	0	0	507	620	
9	0	0	0	0	507	625	
10	0	0	0	0	506	624	
11	0	0	0	0	505	625	
12	0	0	0	0	505	628	
13	0	0	0	0	505	624	
14	0	0	0	0	505	625	
15	0	0	0	0	505	624	
0	0	0	0	0	506	621	
1	0	0	0	0	505	625	
2	0	0	0	0	506	625	
3	0	0	0	0	506	625	
4	0	0	0	0	506	628	
5	0	0	0	0	505	625	
6	0	0	0	0	505	625	
7	0	0	0	0	505	625	
8	0	0	0	0	505	621	
9	0	0	0	0	505	624	
10	0	0	0	0	506	625	
11	0	0	0	0	507	625	
12	0	0	0	0	508	628	
13	0	0	0	0	508	624	
14	0	0	0	0	509	624	
15	0	0	0	0	510	624	
0	0	0	0	0	511	620	
1	0	0	0	0	511	624	
2	0	0	0	0	512	624	
3	0	0	0	0	512	624	
4	0	0	0	0	512	628	
5	0	0	0	0	512	624	
6	0	0	0	0	512	624	
7	0	0	0	0	511	624	
8	0	0	0	0	511	620	
9	0	0	0	0	510	625	
10	0	0	0	0	508	624	
11	0	0	0	0	508	625	
12	0	0	0	0	508	628	
13	0	0	0	0	509	624	
14	0	0	0	0	509	624	
15	0	0	0	0	509	625	
0	0	0	0	0	510	620	
1	0	0	0	0	509	625	
2	0	0	0	0	509	625	
3	0	0	0	0	509	625	
4	0	0	0	0	508	627	
5	0	0	0	0	508	625	
6	0	0	0	0	508	625	
7	0	0	0	0	508	625	
8	0	0	0	0	508	621	
9	0	0	0	0	508	624	
10	0	0	0	0	507	624	
11	0	0	0	0	507	624	
12	0	0	0	0	507	628	
13	0	0	0	0	507	624	
14	0	0	0	0	507	624	
15	0	0	0	0	507	624	
0	0	0	0	0	508	620	
1	0	0	0	0	509	624	
2	0	0	0	0	509	624	
3	0	0	0	0	509	624	
4	0	0	0	0	508	628	
5	0	0	0	0	508	624	
6	0	0	0	0	507	624	
7	0	0	0	0	507	624	
8	0	0	0	0	507	620	
9	0	0	0	0	506	624	
10	0	0	0	0	507	624	
11	0	0	0	0	507	624	
12	0	0	0	0	507	628	
13	0	0	0	0	509	624	
14	0	0	0	0	509	624	
15	0	0	0	0	508	624	
0	0	0	0	0	509	620	
1	0	0	0	0	509	624	
2	0	0	0	0	508	624	
3	0	0	0	0	507	624	
4	0	0	0	0	507	628	
5	0	0	0	0	507	624	
6	0	0	0	0	507	624	
7	0	0	0	0	506	624	
8	0	0	0	0	507	620	
9	0	0	0	0	507	624	
10	0	0	0	0	507	624	
11	0	0	0	0	508	624	
12	0	0	0	0	508	628	
13	0	0	0	0	509	624	
14	0	0	0	0	510	624	
15	0	0	0	0	510	624	
0	0	0	0	0	510	620	
1	0	0	0	0	510	624	
2	0	0	0	0	509	624	
3	0	0	0	0	508	624	
4	0	0	0	0	508	628	
5	0	0	0	0	507	624	
6	0	0	0	0	506	624	
7	0	0	0	0	504	624	
8	0	0	0	0	500	621	
9	0	0	0	0	497	624	
10	0	0	0	0	493	624	
11	0	0	0	0	489	624	
12	0	0	0	0	485	628	
13	0	0	0	0	482	624	
14	0	0	0	0	478	625	
15	0	0	0	0	475	625	
0	0	0	0	0	472	621	
1	0	0	0	0	469	625	
2	0	0	0	0	464	624	
3	0	0	0	0	460	625	
4	0	0	0	0	457	628	
5	0	0	0	0	453	624	
6	0	0	0	0	450	624	
7	0	0	0	0	450	624	
8	0	0	0	0	453	621	
9	0	0	0	0	458	624	
10	0	0	0	0	464	625	
11	0	0	0	0	472	625	
12	0	0	0	0	481	628	
13	0	0	0	0	495	625	
14	0	0	0	0	511	624	
15	0	0	0	0	527	624	
0	0	0	0	0	544	621	
1	0	0	0	0	564	625	
2	0	0	0	0	585	624	
3	0	0	0	0	606	625	
4	0	0	0	0	625	628	
5	0	0	0	0	643	624	
6	0	0	0	0	663	624	
7	0	0	0	0	679	624	
8	0	0	0	0	690	620	
9	0	0	0	0	698	624	
10	0	0	0	0	705	624	
11	0	0	0	0	710	625	
12	0	0	0	0	714	628	
13	0	0	0	0	716	625	
14	0	0	0	0	713	624	
15	0	0	0	0	708	624	
0	0	0	0	0	699	621	
1	0	0	0	0	689	624	
2	0	0	0	0	677	624	
3	0	0	0	0	664	624	
4	0	0	0	0	653	628	
5	0	0	0	0	643	624	
6	0	0	0	0	636	624	
7	0	0	0	0	630	624	
8	0	0	0	0	623	621	
9	0	0	0	0	612	624	
10	0	0	0	0	600	625	
11	0	0	0	0	587	625	
12	0	0	0	0	572	627	
13	0	0	0	0	556	624	
14	0	0	0	0	542	624	
15	0	0	0	0	531	624	
0	0	0	0	0	524	620	
1	0	0	0	0	519	624	
2	0	0	0	0	515	624	
3	0	0	0	0	511	625	
4	0	0	0	0	506	628	
5	0	0	0	0	503	624	
6	0	0	0	0	499	625	
7	0	0	0	0	495	625	
8	0	0	0	0	491	620	
9	0	0	0	0	486	624	
10	0	0	0	0	481	625	
11	0	0	0	0	476	625	
12	0	0	0	0	472	628	
13	0	0	0	0	469	624	
14	0	0	0	0	465	624	
15	0	0	0	0	463	624	
0	0	0	0	0	462	620	
1	0	0	0	0	460	624	
2	0	0	0	0	459	624	
3	0	0	0	0	457	624	
4	0	0	0	0	456	628	
5	0	0	0	0	455	625	
6	0	0	0	0	454	625	
7	0	0	0	0	453	625	
8	0	0	0	0	451	621	
9	0	0	0	0	451	624	
10	0	0	0	0	449	625	
11	0	0	0	0	448	624	
12	0	0	0	0	448	628	
13	0	0	0	0	448	624	
14	0	0	0	0	447	624	
15	0	0	0	0	447	625	
0	0	0	0	0	446	621	
1	0	0	0	0	447	624	
2	0	0	0	0	448	624	
3	0	0	0	0	448	624	
4	0	0	0	0	448	627	
5	0	0	0	0	449	624	
6	0	0	0	0	448	624	
7	0	0	0	0	448	624	
8	0	0	0	0	448	620	
9	0	0	0	0	448	624	
10	0	0	0	0	448	624	
11	0	0	0	0	448	624	
12	0	0	0	0	448	627	
13	0	0	0	0	448	624	
14	0	0	0	0	449	624	
15	0	0	0	0	449	624	
0	0	0	0	0	450	620	
1	0	0	0	0	451	624	
2	0	0	0	0	451	624	
3	0	0	0	0	453	624	
4	0	0	0	0	453	627	
5	0	0	0	0	454	624	
6	0	0	0	0	453	624	
7	0	0	0	0	452	624	
8	0	0	0	0	452	621	
9	0	0	0	0	452	624	
10	0	0	0	0	453	624	
11	0	0	0	0	453	624	
12	0	0	0	0	455	628	
13	0	0	0	0	455	624	
14	0	0	0	0	455	624	
15	0	0	0	0	455	624	
0	0	0	0	0	455	620	
1	0	0	0	0	455	624	
2	0	0	0	0	455	624	
3	0	0	0	0	455	625	
4	0	0	0	0	456	628	
5	0	0	0	0	459	625	
6	0	0	0	0	459	624	
7	0	0	0	0	459	625	
8	0	0	0	0	460	621	
9	0	0	0	0	460	625	
10	0	0	0	0	460	625	
11	0	0	0	0	460	625	
12	0	0	0	0	461	629	
13	0	0	0	0	462	624	
14	0	0	0	0	463	625	
15	0	0	0	0	464	625	
0	0	0	0	0	464	621	
1	0	0	0	0	464	625	
2	0	0	0	0	463	624	
3	0	0	0	0	463	624	
4	0	0	0	0	463	628	
5	0	0	0	0	464	624	
6	0	0	0	0	464	624	
7	0	0	0	0	464	624	
8	0	0	0	0	465	622	
9	0	0	0	0	467	624	
10	0	0	0	0	467	624	
11	0	0	0	0	466	625	
12	0	0	0	0	465	627	
13	0	0	0	0	464	626	
14	0	0	0	0	463	624	
15	0	0	0	0	463	625	
0	0	0	0	0	464	620	
1	0	0	0	0	464	625	
2	0	0	0	0	465	625	
3	0	0	0	0	465	624	
4	0	0	0	0	465	628	
5	0	0	0	0	464	624	
6	0	0	0	0	464	624	
7	0	0	0	0	464	625	
8	0	0	0	0	464	620	
9	0	0	0	0	464	625	
10	0	0	0	0	464	624	
11	0	0	0	0	464	624	
12	0	0	0	0	466	628	
13	0	0	0	0	467	624	
14	0	0	0	0	467	624	
15	0	0	0	0	467	624	
0	0	0	0	0	467	620	
1	0	0	0	0	467	623	
2	0	0	0	0	467	624	
3	0	0	0	0	467	624	
4	0	0	0	0	467	627	
5	0	0	0	0	467	624	
6	0	0	0	0	469	624	
7	0	0	0	0	468	624	
8	0	0	0	0	468	619	
9	0	0	0	0	468	624	
10	0	0	0	0	469	624	
11	0	0	0	0	469	624	
12	0	0	0	0	468	627	
13	0	0	0	0	468	624	
14	0	0	0	0	468	624	
15	0	0	0	0	467	624	
0	0	0	0	0	467	620	
1	0	0	0	0	467	624	
2	0	0	0	0	467	624	
3	0	0	0	0	467	624	
4	0	0	0	0	466	627	
5	0	0	0	0	466	623	
6	0	0	0	0	465	624	
7	0	0	0	0	466	624	
8	0	0	0	0	466	620	
9	0	0	0	0	467	623	
10	0	0	0	0	467	624	
11	0	0	0	0	467	624	
12	0	0	0	0	467	627	
13	0	0	0	0	468	624	
14	0	0	0	0	468	624	
15	0	0	0	0	468	624	
0	0	0	0	0	468	620	
1	0	0	0	0	467	624	
2	0	0	0	0	467	624	
3	0	0	0	0	467	624	
4	0	0	0	0	467	628	
5	0	0	0	0	468	624	
6	0	0	0	0	467	624	
7	0	0	0	0	467	624	
8	0	0	0	0	468	620	
9	0	0	0	0	468	625	
10	0	0	0	0	469	624	
11	0	0	0	0	469	625	
12	0	0	0	0	469	628	
13	0	0	0	0	469	624	
14	0	0	0	0	471	624	
15	0	0	0	0	472	625	
0	0	0	0	0	471	621	
1	0	0	0	0	470	626	
2	0	0	0	0	470	625	
3	0	0	0	0	469	625	
4	0	0	0	0	469	629	
5	0	0	0	0	470	625	
6	0	0	0	0	471	625	
7	0	0	0	0	473	625	
8	0	0	0	0	473	621	
9	0	0	0	0	472	625	
10	0	0	0	0	473	625	
11	0	0	0	0	474	625	
12	0	0	0	0	475	629	
13	0	0	0	0	477	625	
14	0	0	0	0	479	625	
15	0	0	0	0	480	624	
0	0	0	0	0	481	621	
1	0	0	0	0	480	625	
2	0	0	0	0	481	625	
3	0	0	0	0	481	625	
4	0	0	0	0	483	628	
5	0	0	0	0	483	625	
6	0	0	0	0	484	625	
7	0	0	0	0	485	625	
8	0	0	0	0	486	621	
9	0	0	0	0	486	625	
10	0	0	0	0	487	625	
11	0	0	0	0	487	624	
12	0	0	0	0	488	627	
13	0	0	0	0	489	624	
14	0	0	0	0	490	624	
15	0	0	0	0	491	624	
0	0	0	0	0	492	620	
1	0	0	0	0	493	624	
2	0	0	0	0	495	625	
3	0	0	0	0	495	624	
4	0	0	0	0	496	628	
5	0	0	0	0	496	624	
6	0	0	0	0	498	624	
7	0	0	0	0	499	624	
8	0	0	0	0	501	620	
9	0	0	0	0	502	624	
10	0	0	0	0	504	624	
11	0	0	0	0	504	624	
12	0	0	0	0	505	627	
13	0	0	0	0	506	624	
14	0	0	0	0	508	624	
15	0	0	0	0	509	624	
0	0	0	0	0	511	620	
1	0	0	0	0	513	624	
2	0	0	0	0	514	623	
3	0	0	0	0	515	624	
4	0	0	0	0	517	627	
5	0	0	0	0	519	624	
6	0	0	0	0	519	623	
7	0	0	0	0	520	623	
8	0	0	0	0	520	619	
9	0	0	0	0	520	624	
10	0	0	0	0	520	624	
11	0	0	0	0	521	624	
12	0	0	0	0	523	627	
13	0	0	0	0	525	624	
14	0	0	0	0	526	624	
15	0	0	0	0	527	624	
0	0	0	0	0	527	620	
1	0	0	0	0	527	623	
2	0	0	0	0	527	624	
3	0	0	0	0	525	624	
4	0	0	0	0	524	628	
5	0	0	0	0	524	624	
6	0	0	0	0	523	624	
7	0	0	0	0	524	624	
8	0	0	0	0	524	620	
9	0	0	0	0	523	624	
10	0	0	0	0	523	624	
11	0	0	0	0	523	624	
12	0	0	0	0	522	628	
13	0	0	0	0	522	624	
14	0	0	0	0	521	625	
15	0	0	0	0	521	624	
0	0	0	0	0	521	620	
1	0	0	0	0	522	625	
2	0	0	0	0	523	624	
3	0	0	0	0	523	624	
4	0	0	0	0	523	628	
5	0	0	0	0	524	624	
6	0	0	0	0	524	624	
7	0	0	0	0	524	624	
8	0	0	0	0	525	621	
9	0	0	0	0	525	625	
10	0	0	0	0	525	624	
11	0	0	0	0	525	625	
12	0	0	0	0	525	628	
13	0	0	0	0	525	625	
14	0	0	0	0	525	624	
15	0	0	0	0	526	624	
0	0	0	0	0	526	621	
1	0	0	0	0	526	625	
2	0	0	0	0	526	624	
3	0	0	0	0	526	625	
4	0	0	0	0	527	628	
5	0	0	0	0	527	625	
6	0	0	0	0	527	624	
7	0	0	0	0	527	624	
8	0	0	0	0	527	621	
9	0	0	0	0	527	624	
10	0	0	0	0	526	625	
11	0	0	0	0	526	624	
12	0	0	0	0	526	628	
13	0	0	0	0	526	625	
14	0	0	0	0	525	625	
15	0	0	0	0	525	625	
0	0	0	0	0	525	621	
1	0	0	0	0	526	624	
2	0	0	0	0	525	625	
3	0	0	0	0	525	625	
4	0	0	0	0	525	628	
5	0	0	0	0	525	625	
6	0	0	0	0	524	625	
7	0	0	0	0	524	625	
8	0	0	0	0	525	621	
9	0	0	0	0	525	624	
10	0	0	0	0	524	625	
11	0	0	0	0	524	625	
12	0	0	0	0	523	628	
13	0	0	0	0	523	625	
14	0	0	0	0	523	624	
15	0	0	0	0	522	624	
0	0	0	0	0	522	621	
1	0	0	0	0	522	625	
2	0	0	0	0	522	624	
3	0	0	0	0	523	625	
4	0	0	0	0	523	628	
5	0	0	0	0	523	624	
6	0	0	0	0	523	625	
7	0	0	0	0	523	625	
8	0	0	0	0	523	621	
9	0	0	0	0	523	624	
10	0	0	0	0	523	625	
11	0	0	0	0	522	624	
12	0	0	0	0	521	628	
13	0	0	0	0	521	624	
14	0	0	0	0	521	624	
15	0	0	0	0	521	624	
0	0	0	0	0	521	620	
1	0	0	0	0	522	624	
2	0	0	0	0	522	624	
3	0	0	0	0	521	624	
4	0	0	0	0	521	627	
5	0	0	0	0	521	624	
6	0	0	0	0	521	624	
7	0	0	0	0	521	624	
8	0	0	0	0	520	620	
9	0	0	0	0	521	624	
10	0	0	0	0	520	624	
11	0	0	0	0	521	624	
12	0	0	0	0	520	627	
13	0	0	0	0	520	624	
14	0	0	0	0	520	624	
15	0	0	0	0	520	623	
0	0	0	0	0	519	620	
1	0	0	0	0	519	624	
2	0	0	0	0	519	624	
3	0	0	0	0	520	625	
4	0	0	0	0	519	627	
5	0	0	0	0	519	623	
6	0	0	0	0	519	624	
7	0	0	0	0	518	624	
8	0	0	0	0	518	620	
9	0	0	0	0	518	624	
10	0	0	0	0	518	624	
11	0	0	0	0	518	624	
12	0	0	0	0	518	627	
13	0	0	0	0	518	624	
14	0	0	0	0	518	624	
15	0	0	0	0	518	624	
0	0	0	0	0	517	621	
1	0	0	0	0	517	624	
2	0	0	0	0	518	624	
3	0	0	0	0	518	624	
4	0	0	0	0	518	628	
5	0	0	0	0	516	624	
6	0	0	0	0	515	624	
7	0	0	0	0	515	624	
8	0	0	0	0	515	620	
9	0	0	0	0	516	624	
10	0	0	0	0	516	624	
11	0	0	0	0	516	624	
12	0	0	0	0	516	627	
13	0	0	0	0	515	624	
14	0	0	0	0	515	624	
15	0	0	0	0	515	624	
0	0	0	0	0	515	620	
1	0	0	0	0	515	624	
2	0	0	0	0	515	624	
3	0	0	0	0	515	624	
4	0	0	0	0	515	628	
5	0	0	0	0	515	624	
6	0	0	0	0	515	624	
7	0	0	0	0	515	624	
8	0	0	0	0	515	621	
9	0	0	0	0	515	624	
10	0	0	0	0	514	624	
11	0	0	0	0	515	624	
12	0	0	0	0	515	627	
13	0	0	0	0	514	624	
14	0	0	0	0	514	624	
15	0	0	0	0	514	624	
0	0	0	0	0	514	620	
1	0	0	0	0	514	624	
2	0	0	0	0	513	625	
3	0	0	0	0	513	624	
4	0	0	0	0	513	627	
5	0	0	0	0	515	625	
6	0	0	0	0	514	624	
7	0	0	0	0	513	624	
8	0	0	0	0	514	620	
9	0	0	0	0	515	624	
10	0	0	0	0	515	624	
11	0	0	0	0	515	624	
12	0	0	0	0	515	627	
13	0	0	0	0	515	624	
14	0	0	0	0	515	624	
15	0	0	0	0	515	625	
0	0	0	0	0	514	620	
1	0	0	0	0	514	625	
2	0	0	0	0	513	624	
3	0	0	0	0	513	624	
4	0	0	0	0	513	628	
5	0	0	0	0	513	624	
6	0	0	0	0	513	624	
7	0	0	0	0	513	625	
8	0	0	0	0	513	620	
9	0	0	0	0	513	625	
10	0	0	0	0	513	625	
11	0	0	0	0	513	625	
12	0	0	0	0	514	628	
13	0	0	0	0	515	625	
14	0	0	0	0	515	624	
15	0	0	0	0	515	625	
0	0	0	0	0	514	621	
1	0	0	0	0	515	625	
2	0	0	0	0	515	625	
3	0	0	0	0	515	625	
4	0	0	0	0	515	628	
5	0	0	0	0	515	625	
6	0	0	0	0	515	625	
7	0	0	0	0	516	625	
8	0	0	0	0	515	620	
9	0	0	0	0	515	625	
10	0	0	0	0	513	624	
11	0	0	0	0	512	625	
12	0	0	0	0	513	628	
13	0	0	0	0	513	625	
14	0	0	0	0	513	625	
15	0	0	0	0	514	624	
0	0	0	0	0	515	621	
1	0	0	0	0	514	625	
2	0	0	0	0	514	625	
3	0	0	0	0	514	625	
4	0	0	0	0	514	627	
5	0	0	0	0	515	625	
6	0	0	0	0	514	624	
7	0	0	0	0	514	624	
8	0	0	0	0	515	621	
9	0	0	0	0	515	625	
10	0	0	0	0	517	625	
11	0	0	0	0	518	624	
12	0	0	0	0	518	628	
13	0	0	0	0	518	624	
14	0	0	0	0	519	624	
15	0	0	0	0	518	624	
0	0	0	0	0	518	620	
1	0	0	0	0	518	624	
2	0	0	0	0	518	624	
3	0	0	0	0	518	625	
4	0	0	0	0	517	629	
5	0	0	0	0	516	624	
6	0	0	0	0	516	625	
7	0	0	0	0	516	624	
8	0	0	0	0	517	621	
9	0	0	0	0	517	624	
10	0	0	0	0	518	624	
11	0	0	0	0	518	625	
12	0	0	0	0	517	628	
13	0	0	0	0	517	624	
14	0	0	0	0	517	624	
15	0	0	0	0	517	624	
0	0	0	0	0	517	621	
1	0	0	0	0	517	624	
2	0	0	0	0	517	624	
3	0	0	0	0	517	625	
4	0	0	0	0	517	627	
5	0	0	0	0	517	624	
6	0	0	0	0	516	624	
7	0	0	0	0	517	624	
8	0	0	0	0	516	620	
9	0	0	0	0	515	624	
10	0	0	0	0	516	624	
11	0	0	0	0	516	624	
12	0	0	0	0	516	628	
13	0	0	0	0	517	624	
14	0	0	0	0	516	624	
15	0	0	0	0	516	624	
0	0	0	0	0	516	620	
1	0	0	0	0	516	624	
2	0	0	0	0	516	624	
3	0	0	0	0	516	624	
4	0	0	0	0	515	628	
5	0	0	0	0	515	624	
6	0	0	0	0	515	624	
7	0	0	0	0	515	624	
8	0	0	0	0	515	620	
9	0	0	0	0	515	624	
10	0	0	0	0	515	624	
11	0	0	0	0	515	624	
12	0	0	0	0	515	627	
13	0	0	0	0	516	624	
14	0	0	0	0	516	624	
15	0	0	0	0	516	623	
0	0	0	0	0	517	620	
1	0	0	0	0	517	624	
2	0	0	0	0	517	624	
3	0	0	0	0	516	625	
4	0	0	0	0	516	628	
5	0	0	0	0	515	624	
6	0	0	0	0	514	624	
7	0	0	0	0	513	624	
8	0	0	0	0	512	620	
9	0	0	0	0	512	624	
10	0	0	0	0	512	624	
11	0	0	0	0	512	624	
12	0	0	0	0	511	627	
13	0	0	0	0	512	624	
14	0	0	0	0	511	624	
15	0	0	0	0	511	624	
0	0	0	0	0	511	620	
1	0	0	0	0	511	624	
2	0	0	0	0	511	624	
3	0	0	0	0	511	624	
4	0	0	0	0	511	627	
5	0	0	0	0	511	624	
6	0	0	0	0	511	624	
7	0	0	0	0	510	624	
8	0	0	0	0	511	621	
9	0	0	0	0	510	625	
10	0	0	0	0	510	625	
11	0	0	0	0	509	624	
12	0	0	0	0	509	628	
13	0	0	0	0	510	625	
14	0	0	0	0	510	625	
15	0	0	0	0	510	624	
0	0	0	0	0	510	621	
1	0	0	0	0	510	624	
2	0	0	0	0	510	624	
3	0	0	0	0	510	624	
4	0	0	0	0	510	627	
5	0	0	0	0	510	624	
6	0	0	0	0	509	624	
7	0	0	0	0	510	624	
8	0	0	0	0	510	620	
9	0	0	0	0	510	625	
10	0	0	0	0	510	624	
11	0	0	0	0	511	625	
12	0	0	0	0	511	628	
13	0	0	0	0	512	624	
14	0	0	0	0	513	625	
15	0	0	0	0	513	624	
0	0	0	0	0	515	621	
1	0	0	0	0	513	625	
2	0	0	0	0	512	624	
3	0	0	0	0	513	625	
4	0	0	0	0	513	628	
5	0	0	0	0	512	625	
6	0	0	0	0	512	624	
7	0	0	0	0	512	624	
8	0	0	0	0	512	620	
9	0	0	0	0	512	625	
10	0	0	0	0	511	624	
11	0	0	0	0	512	624	
12	0	0	0	0	512	628	
13	0	0	0	0	512	624	
14	0	0	0	0	512	624	
15	0	0	0	0	511	624	
0	0	0	0	0	510	620	
1	0	0	0	0	509	625	
2	0	0	0	0	509	624	
3	0	0	0	0	508	624	
4	0	0	0	0	507	628	
5	0	0	0	0	506	624	
6	0	0	0	0	507	624	
7	0	0	0	0	507	624	
8	0	0	0	0	507	620	
9	0	0	0	0	507	624	
10	0	0	0	0	507	624	
11	0	0	0	0	507	625	
12	0	0	0	0	507	628	
13	0	0	0	0	507	624	
14	0	0	0	0	507	624	
15	0	0	0	0	507	624	
0	0	0	0	0	508	621	
1	0	0	0	0	508	624	
2	0	0	0	0	507	624	
3	0	0	0	0	507	624	
4	0	0	0	0	508	627	
5	0	0	0	0	508	624	
6	0	0	0	0	508	624	
7	0	0	0	0	508	624	
8	0	0	0	0	508	620	
9	0	0	0	0	507	624	
10	0	0	0	0	507	624	
11	0	0	0	0	507	624	
12	0	0	0	0	508	627	
13	0	0	0	0	508	624	
14	0	0	0	0	508	624	
15	0	0	0	0	508	625	
0	0	0	0	0	507	620	
1	0	0	0	0	508	624	
2	0	0	0	0	508	625	
3	0	0	0	0	508	624	
4	0	0	0	0	507	628	
5	0	0	0	0	507	625	
6	0	0	0	0	506	624	
7	0	0	0	0	506	624	
8	0	0	0	0	506	620	
9	0	0	0	0	505	624	
10	0	0	0	0	504	624	
11	0	0	0	0	504	624	
12	0	0	0	0	505	628	
13	0	0	0	0	505	625	
14	0	0	0	0	505	625	
15	0	0	0	0	504	624	
0	0	0	0	0	503	620	
1	0	0	0	0	503	624	
2	0	0	0	0	504	624	
3	0	0	0	0	504	624	
4	0	0	0	0	504	627	
5	0	0	0	0	504	624	
6	0	0	0	0	504	624	
7	0	0	0	0	503	624	
8	0	0	0	0	504	620	
9	0	0	0	0	504	624	
10	0	0	0	0	504	624	
11	0	0	0	0	504	624	
12	0	0	0	0	505	627	
13	0	0	0	0	505	624	
14	0	0	0	0	504	624	
15	0	0	0	0	504	624	
0	0	0	0	0	504	620	
1	0	0	0	0	504	624	
2	0	0	0	0	503	624	
3	0	0	0	0	503	624	
4	0	0	0	0	503	627	
5	0	0	0	0	503	624	
6	0	0	0	0	502	624	
7	0	0	0	0	502	624	
8	0	0	0	0	502	620	
9	0	0	0	0	501	624	
10	0	0	0	0	502	624	
11	0	0	0	0	501	624	
12	0	0	0	0	499	627	
13	0	0	0	0	499	624	
14	0	0	0	0	497	624	
15	0	0	0	0	496	623	
0	0	0	0	0	495	620	
1	0	0	0	0	495	624	
2	0	0	0	0	495	624	
3	0	0	0	0	494	624	
4	0	0	0	0	494	627	
5	0	0	0	0	494	623	
6	0	0	0	0	495	624	
7	0	0	0	0	495	624	
8	0	0	0	0	494	620	
9	0	0	0	0	495	624	
10	0	0	0	0	495	624	
11	0	0	0	0	495	625	
12	0	0	0	0	495	628	
13	0	0	0	0	495	624	
14	0	0	0	0	495	624	
15	0	0	0	0	495	624	
0	0	0	0	0	495	620	
1	0	0	0	0	495	624	
2	0	0	0	0	495	624	
3	0	0	0	0	496	624	
4	0	0	0	0	497	628	
5	0	0	0	0	498	624	
6	0	0	0	0	500	624	
7	0	0	0	0	502	624	
8	0	0	0	0	503	621	
9	0	0	0	0	503	624	
10	0	0	0	0	504	624	
11	0	0	0	0	504	624	
12	0	0	0	0	504	628	
13	0	0	0	0	505	624	
14	0	0	0	0	505	624	
15	0	0	0	0	505	624	
0	0	0	0	0	506	620	
1	0	0	0	0	506	624	
2	0	0	0	0	507	624	
3	0	0	0	0	507	624	
4	0	0	0	0	507	627	
5	0	0	0	0	507	624	
6	0	0	0	0	507	625	
7	0	0	0	0	506	625	
8	0	0	0	0	507	621	
9	0	0	0	0	506	624	
10	0	0	0	0	506	624	
11	0	0	0	0	506	624	
12	0	0	0	0	505	627	
13	0	0	0	0	505	624	
14	0	0	0	0	504	624	
15	0	0	0	0	503	624	
0	0	0	0	0	504	621	
1	0	0	0	0	505	624	
2	0	0	0	0	504	624	
3	0	0	0	0	505	625	
4	0	0	0	0	505	628	
5	0	0	0	0	505	624	
6	0	0	0	0	505	624	
7	0	0	0	0	505	624	
8	0	0	0	0	505	620	
9	0	0	0	0	506	625	
10	0	0	0	0	505	624	
11	0	0	0	0	505	625	
12	0	0	0	0	506	627	
13	0	0	0	0	507	625	
14	0	0	0	0	508	624	
15	0	0	0	0	508	624	
0	0	0	0	0	508	621	
1	0	0	0	0	508	625	
2	0	0	0	0	508	625	
3	0	0	0	0	507	624	
4	0	0	0	0	508	628	
5	0	0	0	0	510	624	
6	0	0	0	0	510	625	
7	0	0	0	0	509	624	
8	0	0	0	0	509	620	
9	0	0	0	0	509	624	
10	0	0	0	0	509	624	
11	0	0	0	0	508	625	
12	0	0	0	0	508	628	
13	0	0	0	0	509	624	
14	0	0	0	0	508	624	
15	0	0	0	0	508	624	
0	0	0	0	0	508	621	
1	0	0	0	0	508	625	
2	0	0	0	0	508	625	
3	0	0	0	0	508	625	
4	0	0	0	0	509	628	
5	0	0	0	0	509	624	
6	0	0	0	0	508	625	
7	0	0	0	0	509	624	
8	0	0	0	0	509	620	
9	0	0	0	0	509	624	
10	0	0	0	0	508	624	
11	0	0	0	0	508	624	
12	0	0	0	0	507	627	
13	0	0	0	0	507	624	
14	0	0	0	0	507	624	
15	0	0	0	0	507	624	
0	0	0	0	0	506	620	
1	0	0	0	0	506	624	
2	0	0	0	0	507	624	
3	0	0	0	0	507	624	
4	0	0	0	0	506	627	
5	0	0	0	0	506	624	
6	0	0	0	0	507	624	
7	0	0	0	0	505	623	
8	0	0	0	0	507	620	
9	0	0	0	0	507	624	
10	0	0	0	0	507	624	
11	0	0	0	0	507	624	
12	0	0	0	0	507	627	
13	0	0	0	0	506	624	
14	0	0	0	0	504	623	
15	0	0	0	0	504	623	
0	0	0	0	0	504	620	
1	0	0	0	0	504	624	
2	0	0	0	0	504	624	
3	0	0	0	0	505	624	
4	0	0	0	0	505	627	
5	0	0	0	0	507	624	
6	0	0	0	0	507	624	
7	0	0	0	0	507	624	
8	0	0	0	0	507	620	
9	0	0	0	0	507	624	
10	0	0	0	0	507	624	
11	0	0	0	0	505	624	
12	0	0	0	0	504	627	
13	0	0	0	0	502	624	
14	0	0	0	0	499	624	
15	0	0	0	0	498	624	
0	0	0	0	0	496	620	
1	0	0	0	0	494	624	
2	0	0	0	0	490	624	
3	0	0	0	0	486	624	
4	0	0	0	0	483	627	
5	0	0	0	0	481	624	
6	0	0	0	0	478	624	
7	0	0	0	0	475	624	
8	0	0	0	0	472	621	
9	0	0	0	0	468	624	
10	0	0	0	0	464	624	
11	0	0	0	0	461	625	
12	0	0	0	0	459	628	
13	0	0	0	0	456	624	
14	0	0	0	0	454	624	
15	0	0	0	0	452	624	
0	0	0	0	0	454	620	
1	0	0	0	0	456	624	
2	0	0	0	0	461	624	
3	0	0	0	0	467	624	
4	0	0	0	0	475	628	
5	0	0	0	0	486	625	
6	0	0	0	0	499	624	
7	0	0	0	0	515	624	
8	0	0	0	0	531	620	
9	0	0	0	0	548	624	
10	0	0	0	0	570	625	
11	0	0	0	0	591	625	
12	0	0	0	0	611	628	
13	0	0	0	0	630	625	
14	0	0	0	0	650	625	
15	0	0	0	0	670	624	
0	0	0	0	0	686	620	
1	0	0	0	0	697	624	
2	0	0	0	0	704	624	
3	0	0	0	0	710	624	
4	0	0	0	0	715	628	
5	0	0	0	0	718	624	
6	0	0	0	0	717	624	
7	0	0	0	0	713	624	
8	0	0	0	0	705	620	
9	0	0	0	0	697	625	
10	0	0	0	0	687	624	
11	0	0	0	0	674	624	
12	0	0	0	0	662	628	
13	0	0	0	0	650	624	
14	0	0	0	0	641	624	
15	0	0	0	0	634	624	
0	0	0	0	0	629	620	
1	0	0	0	0	623	624	
2	0	0	0	0	612	624	
3	0	0	0	0	601	625	
4	0	0	0	0	587	628	
5	0	0	0	0	572	624	
6	0	0	0	0	557	624	
7	0	0	0	0	542	624	
8	0	0	0	0	532	620	
9	0	0	0	0	525	624	
10	0	0	0	0	519	624	
11	0	0	0	0	515	624	
12	0	0	0	0	510	627	
13	0	0	0	0	505	624	
14	0	0	0	0	501	624	
15	0	0	0	0	497	624	
0	0	0	0	0	492	620	
1	0	0	0	0	488	624	
2	0	0	0	0	484	624	
3	0	0	0	0	480	624	
4	0	0	0	0	476	627	
5	0	0	0	0	472	624	
6	0	0	0	0	469	624	
7	0	0	0	0	467	624	
8	0	0	0	0	465	620	
9	0	0	0	0	464	624	
10	0	0	0	0	461	624	
11	0	0	0	0	459	624	
12	0	0	0	0	457	627	
13	0	0	0	0	455	624	
14	0	0	0	0	455	624	
15	0	0	0	0	455	624	
0	0	0	0	0	455	620	
1	0	0	0	0	455	624	
2	0	0	0	0	454	624	
3	0	0	0	0	454	625	
4	0	0	0	0	451	627	
5	0	0	0	0	449	624	
6	0	0	0	0	448	624	
7	0	0	0	0	448	624	
8	0	0	0	0	447	620	
9	0	0	0	0	447	625	
10	0	0	0	0	449	624	
11	0	0	0	0	450	624	
12	0	0	0	0	449	627	
13	0	0	0	0	450	624	
14	0	0	0	0	449	624	
15	0	0	0	0	449	624	
0	0	0	0	0	449	620	
1	0	0	0	0	449	624	
2	0	0	0	0	449	624	
3	0	0	0	0	449	624	
4	0	0	0	0	449	627	
5	0	0	0	0	449	625	
6	0	0	0	0	448	624	
7	0	0	0	0	449	624	
8	0	0	0	0	448	620	
9	0	0	0	0	448	625	
10	0	0	0	0	449	624	
11	0	0	0	0	450	624	
12	0	0	0	0	451	628	
13	0	0	0	0	451	624	
14	0	0	0	0	451	624	
15	0	0	0	0	451	624	
0	0	0	0	0	452	620	
1	0	0	0	0	453	624	
2	0	0	0	0	455	624	
3	0	0	0	0	455	624	
4	0	0	0	0	456	628	
5	0	0	0	0	456	624	
6	0	0	0	0	455	624	
7	0	0	0	0	456	624	
8	0	0	0	0	456	620	
9	0	0	0	0	456	624	
10	0	0	0	0	456	625	
11	0	0	0	0	458	625	
12	0	0	0	0	459	628	
13	0	0	0	0	461	625	
14	0	0	0	0	460	625	
15	0	0	0	0	460	625	
0	0	0	0	0	460	621	
1	0	0	0	0	461	625	
2	0	0	0	0	461	625	
3	0	0	0	0	461	626	
4	0	0	0	0	462	628	
5	0	0	0	0	462	625	
6	0	0	0	0	462	625	
7	0	0	0	0	461	624	
8	0	0	0	0	461	621	
9	0	0	0	0	461	625	
10	0	0	0	0	462	625	
11	0	0	0	0	462	625	
12	0	0	0	0	462	628	
13	0	0	0	0	463	625	
14	0	0	0	0	463	625	
15	0	0	0	0	463	625	
0	0	0	0	0	463	620	
1	0	0	0	0	463	625	
2	0	0	0	0	463	625	
3	0	0	0	0	463	625	
4	0	0	0	0	464	628	
5	0	0	0	0	464	624	
6	0	0	0	0	464	624	
7	0	0	0	0	465	624	
8	0	0	0	0	465	620	
9	0	0	0	0	465	624	
10	0	0	0	0	465	624	
11	0	0	0	0	465	624	
12	0	0	0	0	465	628	
13	0	0	0	0	465	624	
14	0	0	0	0	466	624	
15	0	0	0	0	465	624	
0	0	0	0	0	465	620	
1	0	0	0	0	466	624	
2	0	0	0	0	467	624	
3	0	0	0	0	467	624	
4	0	0	0	0	467	628	
5	0	0	0	0	468	624	
6	0	0	0	0	467	624	
7	0	0	0	0	467	625	
8	0	0	0	0	468	621	
9	0	0	0	0	468	624	
10	0	0	0	0	468	624	
11	0	0	0	0	468	624	
12	0	0	0	0	468	627	
13	0	0	0	0	467	624	
14	0	0	0	0	467	624	
15	0	0	0	0	467	623	
0	0	0	0	0	468	620	
1	0	0	0	0	467	624	
2	0	0	0	0	467	624	
3	0	0	0	0	467	624	
4	0	0	0	0	466	627	
5	0	0	0	0	467	624	
6	0	0	0	0	467	623	
7	0	0	0	0	467	624	
8	0	0	0	0	467	620	
9	0	0	0	0	467	624	
10	0	0	0	0	467	624	
11	0	0	0	0	467	624	
12	0	0	0	0	467	627	
13	0	0	0	0	467	623	
14	0	0	0	0	467	624	
15	0	0	0	0	468	624	
0	0	0	0	0	469	620	
1	0	0	0	0	469	623	
2	0	0	0	0	468	624	
3	0	0	0	0	466	624	
4	0	0	0	0	465	628	
5	0	0	0	0	465	625	
6	0	0	0	0	464	624	
7	0	0	0	0	464	624	
8	0	0	0	0	464	621	
9	0	0	0	0	465	624	
10	0	0	0	0	466	625	
11	0	0	0	0	466	624	
12	0	0	0	0	466	627	
13	0	0	0	0	466	625	
14	0	0	0	0	464	625	
15	0	0	0	0	464	624	
0	0	0	0	0	464	621	
1	0	0	0	0	465	624	
2	0	0	0	0	465	624	
3	0	0	0	0	466	625	
