# OpenSignals Text File Format. Version 1
# {"98:D3:91:FD:69:48": {"position": 0, "device": "bitalino_rev", "device name": "98:D3:91:FD:69:48", "device connection": "BTH98:D3:91:FD:69:48", "sampling rate": 1000, "resolution": [4, 1, 1, 1, 1, 10, 10], "firmware version": 1281, "comments": "", "keywords": "", "mode": 0, "sync interval": 2, "date": "2021-9-19", "time": "16:24:23.184", "channels": [2, 5], "sensor": ["RAW", "RAW"], "label": ["A2", "A5"], "column": ["nSeq", "I1", "I2", "O1", "O2", "A2", "A5"], "special": [{}, {}], "digital IO": [0, 0, 1, 1], "convertedValues": 0}}
# EndOfHeader
0	0	0	0	0	488	409	
1	0	0	0	0	484	410	
2	0	0	0	0	480	409	
3	0	0	0	0	477	409	
4	0	0	0	0	475	409	
5	0	0	0	0	474	409	
6	0	0	0	0	475	409	
7	0	0	0	0	477	409	
8	0	0	0	0	481	409	
9	0	0	0	0	483	409	
10	0	0	0	0	484	409	
11	0	0	0	0	486	408	
12	0	0	0	0	488	409	
13	0	0	0	0	491	409	
14	0	0	0	0	493	409	
15	0	0	0	0	496	410	
0	0	0	0	0	499	409	
1	0	0	0	0	502	409	
2	0	0	0	0	504	409	
3	0	0	0	0	503	410	
4	0	0	0	0	502	410	
5	0	0	0	0	500	410	
6	0	0	0	0	497	410	
7	0	0	0	0	495	410	
8	0	0	0	0	495	410	
9	0	0	0	0	496	410	
10	0	0	0	0	498	410	
11	0	0	0	0	500	409	
12	0	0	0	0	502	410	
13	0	0	0	0	503	411	
14	0	0	0	0	503	410	
15	0	0	0	0	503	411	
0	0	0	0	0	501	410	
1	0	0	0	0	500	410	
2	0	0	0	0	497	409	
3	0	0	0	0	495	409	
4	0	0	0	0	492	410	
5	0	0	0	0	488	409	
6	0	0	0	0	484	410	
7	0	0	0	0	482	411	
8	0	0	0	0	481	411	
9	0	0	0	0	481	410	
10	0	0	0	0	482	411	
11	0	0	0	0	484	409	
12	0	0	0	0	487	410	
13	0	0	0	0	489	411	
14	0	0	0	0	492	410	
15	0	0	0	0	496	411	
0	0	0	0	0	498	410	
1	0	0	0	0	499	411	
2	0	0	0	0	498	410	
3	0	0	0	0	497	409	
4	0	0	0	0	496	410	
5	0	0	0	0	496	410	
6	0	0	0	0	500	410	
7	0	0	0	0	501	410	
8	0	0	0	0	500	410	
9	0	0	0	0	499	409	
10	0	0	0	0	498	410	
11	0	0	0	0	498	409	
12	0	0	0	0	498	410	
13	0	0	0	0	499	410	
14	0	0	0	0	499	409	
15	0	0	0	0	501	410	
0	0	0	0	0	502	410	
1	0	0	0	0	502	409	
2	0	0	0	0	502	409	
3	0	0	0	0	499	409	
4	0	0	0	0	498	409	
5	0	0	0	0	499	409	
6	0	0	0	0	500	409	
7	0	0	0	0	500	409	
8	0	0	0	0	498	409	
9	0	0	0	0	497	409	
10	0	0	0	0	496	409	
11	0	0	0	0	495	409	
12	0	0	0	0	493	409	
13	0	0	0	0	493	409	
14	0	0	0	0	495	409	
15	0	0	0	0	498	409	
0	0	0	0	0	501	408	
1	0	0	0	0	502	408	
2	0	0	0	0	501	408	
3	0	0	0	0	500	408	
4	0	0	0	0	500	410	
5	0	0	0	0	499	409	
6	0	0	0	0	497	409	
7	0	0	0	0	497	410	
8	0	0	0	0	499	410	
9	0	0	0	0	500	409	
10	0	0	0	0	501	409	
11	0	0	0	0	502	409	
12	0	0	0	0	501	409	
13	0	0	0	0	499	409	
14	0	0	0	0	499	409	
15	0	0	0	0	498	410	
0	0	0	0	0	499	409	
1	0	0	0	0	500	409	
2	0	0	0	0	503	409	
3	0	0	0	0	506	409	
4	0	0	0	0	506	410	
5	0	0	0	0	505	410	
6	0	0	0	0	504	409	
7	0	0	0	0	504	411	
8	0	0	0	0	503	409	
9	0	0	0	0	505	410	
10	0	0	0	0	507	409	
11	0	0	0	0	506	409	
12	0	0	0	0	505	410	
13	0	0	0	0	504	410	
14	0	0	0	0	503	410	
15	0	0	0	0	502	411	
0	0	0	0	0	503	410	
1	0	0	0	0	504	410	
2	0	0	0	0	503	410	
3	0	0	0	0	501	410	
4	0	0	0	0	500	411	
5	0	0	0	0	499	410	
6	0	0	0	0	498	410	
7	0	0	0	0	497	411	
8	0	0	0	0	497	410	
9	0	0	0	0	497	411	
10	0	0	0	0	498	410	
11	0	0	0	0	499	410	
12	0	0	0	0	500	410	
13	0	0	0	0	500	409	
14	0	0	0	0	501	410	
15	0	0	0	0	500	411	
0	0	0	0	0	500	410	
1	0	0	0	0	500	410	
2	0	0	0	0	500	410	
3	0	0	0	0	499	409	
4	0	0	0	0	499	409	
5	0	0	0	0	499	409	
6	0	0	0	0	499	409	
7	0	0	0	0	502	410	
8	0	0	0	0	505	409	
9	0	0	0	0	510	410	
10	0	0	0	0	513	409	
11	0	0	0	0	513	409	
12	0	0	0	0	512	409	
13	0	0	0	0	511	409	
14	0	0	0	0	511	410	
15	0	0	0	0	511	410	
0	0	0	0	0	508	410	
1	0	0	0	0	505	410	
2	0	0	0	0	505	410	
3	0	0	0	0	506	409	
4	0	0	0	0	511	410	
5	0	0	0	0	515	409	
6	0	0	0	0	517	409	
7	0	0	0	0	515	410	
8	0	0	0	0	512	409	
9	0	0	0	0	509	410	
10	0	0	0	0	506	410	
11	0	0	0	0	504	409	
12	0	0	0	0	503	410	
13	0	0	0	0	502	409	
14	0	0	0	0	499	409	
15	0	0	0	0	496	410	
0	0	0	0	0	495	409	
1	0	0	0	0	495	409	
2	0	0	0	0	495	409	
3	0	0	0	0	495	409	
4	0	0	0	0	496	408	
5	0	0	0	0	498	410	
6	0	0	0	0	499	409	
7	0	0	0	0	498	409	
8	0	0	0	0	496	408	
9	0	0	0	0	496	409	
10	0	0	0	0	496	409	
11	0	0	0	0	499	409	
12	0	0	0	0	501	410	
13	0	0	0	0	502	409	
14	0	0	0	0	504	409	
15	0	0	0	0	505	410	
0	0	0	0	0	505	410	
1	0	0	0	0	505	410	
2	0	0	0	0	506	410	
3	0	0	0	0	507	409	
4	0	0	0	0	508	409	
5	0	0	0	0	509	408	
6	0	0	0	0	509	409	
7	0	0	0	0	510	410	
8	0	0	0	0	512	409	
9	0	0	0	0	513	409	
10	0	0	0	0	513	410	
11	0	0	0	0	512	409	
12	0	0	0	0	513	410	
13	0	0	0	0	514	410	
14	0	0	0	0	512	409	
15	0	0	0	0	511	410	
0	0	0	0	0	509	409	
1	0	0	0	0	507	409	
2	0	0	0	0	504	410	
3	0	0	0	0	503	410	
4	0	0	0	0	503	409	
5	0	0	0	0	503	410	
6	0	0	0	0	503	410	
7	0	0	0	0	503	411	
8	0	0	0	0	503	409	
9	0	0	0	0	503	409	
10	0	0	0	0	504	410	
11	0	0	0	0	505	410	
12	0	0	0	0	505	409	
13	0	0	0	0	504	409	
14	0	0	0	0	504	410	
15	0	0	0	0	504	410	
0	0	0	0	0	504	410	
1	0	0	0	0	505	409	
2	0	0	0	0	510	409	
3	0	0	0	0	514	409	
4	0	0	0	0	516	410	
5	0	0	0	0	517	409	
6	0	0	0	0	517	409	
7	0	0	0	0	517	410	
8	0	0	0	0	518	409	
9	0	0	0	0	516	409	
10	0	0	0	0	513	409	
11	0	0	0	0	511	409	
12	0	0	0	0	511	409	
13	0	0	0	0	512	409	
14	0	0	0	0	512	409	
15	0	0	0	0	511	410	
0	0	0	0	0	510	409	
1	0	0	0	0	510	409	
2	0	0	0	0	510	409	
3	0	0	0	0	510	409	
4	0	0	0	0	510	409	
5	0	0	0	0	510	409	
6	0	0	0	0	510	409	
7	0	0	0	0	510	409	
8	0	0	0	0	509	408	
9	0	0	0	0	508	409	
10	0	0	0	0	508	409	
11	0	0	0	0	508	409	
12	0	0	0	0	512	409	
13	0	0	0	0	515	409	
14	0	0	0	0	515	409	
15	0	0	0	0	515	409	
0	0	0	0	0	513	409	
1	0	0	0	0	511	409	
2	0	0	0	0	511	410	
3	0	0	0	0	510	409	
4	0	0	0	0	508	410	
5	0	0	0	0	507	409	
6	0	0	0	0	509	409	
7	0	0	0	0	511	411	
8	0	0	0	0	511	410	
9	0	0	0	0	508	409	
10	0	0	0	0	507	410	
11	0	0	0	0	506	409	
12	0	0	0	0	507	409	
13	0	0	0	0	509	410	
14	0	0	0	0	509	409	
15	0	0	0	0	508	411	
0	0	0	0	0	505	410	
1	0	0	0	0	502	410	
2	0	0	0	0	502	410	
3	0	0	0	0	501	410	
4	0	0	0	0	501	411	
5	0	0	0	0	503	410	
6	0	0	0	0	504	410	
7	0	0	0	0	506	411	
8	0	0	0	0	510	411	
9	0	0	0	0	515	411	
10	0	0	0	0	519	410	
11	0	0	0	0	524	410	
12	0	0	0	0	527	410	
13	0	0	0	0	530	411	
14	0	0	0	0	531	411	
15	0	0	0	0	531	411	
0	0	0	0	0	529	409	
1	0	0	0	0	527	410	
2	0	0	0	0	523	409	
3	0	0	0	0	517	409	
4	0	0	0	0	511	409	
5	0	0	0	0	503	409	
6	0	0	0	0	498	410	
7	0	0	0	0	493	411	
8	0	0	0	0	491	410	
9	0	0	0	0	489	409	
10	0	0	0	0	488	409	
11	0	0	0	0	492	409	
12	0	0	0	0	496	409	
13	0	0	0	0	500	410	
14	0	0	0	0	503	410	
15	0	0	0	0	505	410	
0	0	0	0	0	505	409	
1	0	0	0	0	504	409	
2	0	0	0	0	503	409	
3	0	0	0	0	503	409	
4	0	0	0	0	503	409	
5	0	0	0	0	504	409	
6	0	0	0	0	505	408	
7	0	0	0	0	508	410	
8	0	0	0	0	510	409	
9	0	0	0	0	511	409	
10	0	0	0	0	511	409	
11	0	0	0	0	510	409	
12	0	0	0	0	508	409	
13	0	0	0	0	505	408	
14	0	0	0	0	504	408	
15	0	0	0	0	503	409	
0	0	0	0	0	503	409	
1	0	0	0	0	501	409	
2	0	0	0	0	499	409	
3	0	0	0	0	498	409	
4	0	0	0	0	497	410	
5	0	0	0	0	498	409	
6	0	0	0	0	498	409	
7	0	0	0	0	498	410	
8	0	0	0	0	498	410	
9	0	0	0	0	498	409	
10	0	0	0	0	499	410	
11	0	0	0	0	500	409	
12	0	0	0	0	505	410	
13	0	0	0	0	508	410	
14	0	0	0	0	509	410	
15	0	0	0	0	510	410	
0	0	0	0	0	510	410	
1	0	0	0	0	511	409	
2	0	0	0	0	512	410	
3	0	0	0	0	514	409	
4	0	0	0	0	514	409	
5	0	0	0	0	515	409	
6	0	0	0	0	516	409	
7	0	0	0	0	517	410	
8	0	0	0	0	518	410	
9	0	0	0	0	518	409	
10	0	0	0	0	518	410	
11	0	0	0	0	518	409	
12	0	0	0	0	518	410	
13	0	0	0	0	517	411	
14	0	0	0	0	516	410	
15	0	0	0	0	519	411	
0	0	0	0	0	523	410	
1	0	0	0	0	526	410	
2	0	0	0	0	527	410	
3	0	0	0	0	527	409	
4	0	0	0	0	526	410	
5	0	0	0	0	527	410	
6	0	0	0	0	529	409	
7	0	0	0	0	529	411	
8	0	0	0	0	527	410	
9	0	0	0	0	526	410	
10	0	0	0	0	525	409	
11	0	0	0	0	524	409	
12	0	0	0	0	523	410	
13	0	0	0	0	523	409	
14	0	0	0	0	520	409	
15	0	0	0	0	516	410	
0	0	0	0	0	512	409	
1	0	0	0	0	509	409	
2	0	0	0	0	509	410	
3	0	0	0	0	510	409	
4	0	0	0	0	509	409	
5	0	0	0	0	509	409	
6	0	0	0	0	509	409	
7	0	0	0	0	509	410	
8	0	0	0	0	510	409	
9	0	0	0	0	511	409	
10	0	0	0	0	511	409	
11	0	0	0	0	512	409	
12	0	0	0	0	514	409	
13	0	0	0	0	516	409	
14	0	0	0	0	516	409	
15	0	0	0	0	515	410	
0	0	0	0	0	514	409	
1	0	0	0	0	514	409	
2	0	0	0	0	513	409	
3	0	0	0	0	512	409	
4	0	0	0	0	512	409	
5	0	0	0	0	510	409	
6	0	0	0	0	508	409	
7	0	0	0	0	504	409	
8	0	0	0	0	502	409	
9	0	0	0	0	503	409	
10	0	0	0	0	507	409	
11	0	0	0	0	512	408	
12	0	0	0	0	512	409	
13	0	0	0	0	511	409	
14	0	0	0	0	509	409	
15	0	0	0	0	507	410	
0	0	0	0	0	505	409	
1	0	0	0	0	501	410	
2	0	0	0	0	498	409	
3	0	0	0	0	496	409	
4	0	0	0	0	495	409	
5	0	0	0	0	495	409	
6	0	0	0	0	499	409	
7	0	0	0	0	503	410	
8	0	0	0	0	507	409	
9	0	0	0	0	509	409	
10	0	0	0	0	508	409	
11	0	0	0	0	508	409	
12	0	0	0	0	508	409	
13	0	0	0	0	509	410	
14	0	0	0	0	509	409	
15	0	0	0	0	508	410	
0	0	0	0	0	506	410	
1	0	0	0	0	503	410	
2	0	0	0	0	499	409	
3	0	0	0	0	496	409	
4	0	0	0	0	496	409	
5	0	0	0	0	496	409	
6	0	0	0	0	499	410	
7	0	0	0	0	501	411	
8	0	0	0	0	503	411	
9	0	0	0	0	504	410	
10	0	0	0	0	506	409	
11	0	0	0	0	508	409	
12	0	0	0	0	508	410	
13	0	0	0	0	509	409	
14	0	0	0	0	512	410	
15	0	0	0	0	513	410	
0	0	0	0	0	511	409	
1	0	0	0	0	507	409	
2	0	0	0	0	502	409	
3	0	0	0	0	496	409	
4	0	0	0	0	491	410	
5	0	0	0	0	487	409	
6	0	0	0	0	483	409	
7	0	0	0	0	480	410	
8	0	0	0	0	478	409	
9	0	0	0	0	475	410	
10	0	0	0	0	471	410	
11	0	0	0	0	468	409	
12	0	0	0	0	468	410	
13	0	0	0	0	470	410	
14	0	0	0	0	473	410	
15	0	0	0	0	478	410	
0	0	0	0	0	480	409	
1	0	0	0	0	482	410	
2	0	0	0	0	485	410	
3	0	0	0	0	488	409	
4	0	0	0	0	492	410	
5	0	0	0	0	495	409	
6	0	0	0	0	496	410	
7	0	0	0	0	497	411	
8	0	0	0	0	497	410	
9	0	0	0	0	496	410	
10	0	0	0	0	494	410	
11	0	0	0	0	491	409	
12	0	0	0	0	488	410	
13	0	0	0	0	487	410	
14	0	0	0	0	485	410	
15	0	0	0	0	486	411	
0	0	0	0	0	489	410	
1	0	0	0	0	492	410	
2	0	0	0	0	497	409	
3	0	0	0	0	505	409	
4	0	0	0	0	513	409	
5	0	0	0	0	523	409	
6	0	0	0	0	533	409	
7	0	0	0	0	542	410	
8	0	0	0	0	552	409	
9	0	0	0	0	564	410	
10	0	0	0	0	579	409	
11	0	0	0	0	595	409	
12	0	0	0	0	612	409	
13	0	0	0	0	628	410	
14	0	0	0	0	643	409	
15	0	0	0	0	658	410	
0	0	0	0	0	672	410	
1	0	0	0	0	681	410	
2	0	0	0	0	686	409	
3	0	0	0	0	688	409	
4	0	0	0	0	686	410	
5	0	0	0	0	683	410	
6	0	0	0	0	682	409	
7	0	0	0	0	675	411	
8	0	0	0	0	667	409	
9	0	0	0	0	655	409	
10	0	0	0	0	640	409	
11	0	0	0	0	625	409	
12	0	0	0	0	609	410	
13	0	0	0	0	594	409	
14	0	0	0	0	580	410	
15	0	0	0	0	568	411	
0	0	0	0	0	559	409	
1	0	0	0	0	551	410	
2	0	0	0	0	545	409	
3	0	0	0	0	541	409	
4	0	0	0	0	539	409	
5	0	0	0	0	537	410	
6	0	0	0	0	535	409	
7	0	0	0	0	532	411	
8	0	0	0	0	527	409	
9	0	0	0	0	524	409	
10	0	0	0	0	524	410	
11	0	0	0	0	526	410	
12	0	0	0	0	524	410	
13	0	0	0	0	520	409	
14	0	0	0	0	515	410	
15	0	0	0	0	511	411	
0	0	0	0	0	509	410	
1	0	0	0	0	509	410	
2	0	0	0	0	508	410	
3	0	0	0	0	504	410	
4	0	0	0	0	497	409	
5	0	0	0	0	491	410	
6	0	0	0	0	485	410	
7	0	0	0	0	479	411	
8	0	0	0	0	475	410	
9	0	0	0	0	473	410	
10	0	0	0	0	472	409	
11	0	0	0	0	472	409	
12	0	0	0	0	472	410	
13	0	0	0	0	472	409	
14	0	0	0	0	472	409	
15	0	0	0	0	472	409	
0	0	0	0	0	472	408	
1	0	0	0	0	473	409	
2	0	0	0	0	474	409	
3	0	0	0	0	474	409	
4	0	0	0	0	475	409	
5	0	0	0	0	476	409	
6	0	0	0	0	476	410	
7	0	0	0	0	476	411	
8	0	0	0	0	475	410	
9	0	0	0	0	473	409	
10	0	0	0	0	472	410	
11	0	0	0	0	473	409	
12	0	0	0	0	475	410	
13	0	0	0	0	477	410	
14	0	0	0	0	478	409	
15	0	0	0	0	477	411	
0	0	0	0	0	479	409	
1	0	0	0	0	480	410	
2	0	0	0	0	480	410	
3	0	0	0	0	481	409	
4	0	0	0	0	480	409	
5	0	0	0	0	479	410	
6	0	0	0	0	480	410	
7	0	0	0	0	483	410	
8	0	0	0	0	487	410	
9	0	0	0	0	490	409	
10	0	0	0	0	490	410	
11	0	0	0	0	492	409	
12	0	0	0	0	492	409	
13	0	0	0	0	492	409	
14	0	0	0	0	492	409	
15	0	0	0	0	490	410	
0	0	0	0	0	490	410	
1	0	0	0	0	489	410	
2	0	0	0	0	485	410	
3	0	0	0	0	480	409	
4	0	0	0	0	476	410	
5	0	0	0	0	473	409	
6	0	0	0	0	471	410	
7	0	0	0	0	471	411	
8	0	0	0	0	473	411	
9	0	0	0	0	475	410	
10	0	0	0	0	478	410	
11	0	0	0	0	481	409	
12	0	0	0	0	482	410	
13	0	0	0	0	481	411	
14	0	0	0	0	480	411	
15	0	0	0	0	478	411	
0	0	0	0	0	478	409	
1	0	0	0	0	480	409	
2	0	0	0	0	481	410	
3	0	0	0	0	482	409	
4	0	0	0	0	483	409	
5	0	0	0	0	483	409	
6	0	0	0	0	484	409	
7	0	0	0	0	485	410	
8	0	0	0	0	486	409	
9	0	0	0	0	486	410	
10	0	0	0	0	487	409	
11	0	0	0	0	488	410	
12	0	0	0	0	489	410	
13	0	0	0	0	491	409	
14	0	0	0	0	492	409	
15	0	0	0	0	493	411	
0	0	0	0	0	493	409	
1	0	0	0	0	493	409	
2	0	0	0	0	492	409	
3	0	0	0	0	492	408	
4	0	0	0	0	492	409	
5	0	0	0	0	493	409	
6	0	0	0	0	494	409	
7	0	0	0	0	494	410	
8	0	0	0	0	493	409	
9	0	0	0	0	492	409	
10	0	0	0	0	491	409	
11	0	0	0	0	491	409	
12	0	0	0	0	491	409	
13	0	0	0	0	492	409	
14	0	0	0	0	493	410	
15	0	0	0	0	495	411	
0	0	0	0	0	496	410	
1	0	0	0	0	498	409	
2	0	0	0	0	498	409	
3	0	0	0	0	496	409	
4	0	0	0	0	495	409	
5	0	0	0	0	495	409	
6	0	0	0	0	496	409	
7	0	0	0	0	496	409	
8	0	0	0	0	496	409	
9	0	0	0	0	496	409	
10	0	0	0	0	496	409	
11	0	0	0	0	495	409	
12	0	0	0	0	495	410	
13	0	0	0	0	492	410	
14	0	0	0	0	489	410	
15	0	0	0	0	486	410	
0	0	0	0	0	483	410	
1	0	0	0	0	481	409	
2	0	0	0	0	481	409	
3	0	0	0	0	483	409	
4	0	0	0	0	484	409	
5	0	0	0	0	485	409	
6	0	0	0	0	486	409	
7	0	0	0	0	488	410	
8	0	0	0	0	490	408	
9	0	0	0	0	492	409	
10	0	0	0	0	494	409	
11	0	0	0	0	496	409	
12	0	0	0	0	497	410	
13	0	0	0	0	499	409	
14	0	0	0	0	500	410	
15	0	0	0	0	502	410	
0	0	0	0	0	504	410	
1	0	0	0	0	506	409	
2	0	0	0	0	509	410	
3	0	0	0	0	512	409	
4	0	0	0	0	514	409	
5	0	0	0	0	515	410	
6	0	0	0	0	515	409	
7	0	0	0	0	512	410	
8	0	0	0	0	507	409	
9	0	0	0	0	500	410	
10	0	0	0	0	494	409	
11	0	0	0	0	491	409	
12	0	0	0	0	491	409	
13	0	0	0	0	492	409	
14	0	0	0	0	493	409	
15	0	0	0	0	495	410	
0	0	0	0	0	498	409	
1	0	0	0	0	505	409	
2	0	0	0	0	509	409	
3	0	0	0	0	510	409	
4	0	0	0	0	509	410	
5	0	0	0	0	509	410	
6	0	0	0	0	510	410	
7	0	0	0	0	511	411	
8	0	0	0	0	511	409	
9	0	0	0	0	510	410	
10	0	0	0	0	509	409	
11	0	0	0	0	508	409	
12	0	0	0	0	508	409	
13	0	0	0	0	509	409	
14	0	0	0	0	509	410	
15	0	0	0	0	510	411	
0	0	0	0	0	510	410	
1	0	0	0	0	508	410	
2	0	0	0	0	507	410	
3	0	0	0	0	507	409	
4	0	0	0	0	506	410	
5	0	0	0	0	506	409	
6	0	0	0	0	505	410	
7	0	0	0	0	504	411	
8	0	0	0	0	504	409	
9	0	0	0	0	505	409	
10	0	0	0	0	508	409	
11	0	0	0	0	511	409	
12	0	0	0	0	512	410	
13	0	0	0	0	513	410	
14	0	0	0	0	517	411	
15	0	0	0	0	520	411	
0	0	0	0	0	521	409	
1	0	0	0	0	522	410	
2	0	0	0	0	524	409	
3	0	0	0	0	527	409	
4	0	0	0	0	528	409	
5	0	0	0	0	529	411	
6	0	0	0	0	528	410	
7	0	0	0	0	527	411	
8	0	0	0	0	526	410	
9	0	0	0	0	526	409	
10	0	0	0	0	527	409	
11	0	0	0	0	527	409	
12	0	0	0	0	526	409	
13	0	0	0	0	526	409	
14	0	0	0	0	524	409	
15	0	0	0	0	524	409	
0	0	0	0	0	528	409	
1	0	0	0	0	530	409	
2	0	0	0	0	531	410	
3	0	0	0	0	529	409	
4	0	0	0	0	528	409	
5	0	0	0	0	528	410	
6	0	0	0	0	527	409	
7	0	0	0	0	527	410	
8	0	0	0	0	527	409	
9	0	0	0	0	526	409	
10	0	0	0	0	526	408	
11	0	0	0	0	526	408	
12	0	0	0	0	527	409	
13	0	0	0	0	528	409	
14	0	0	0	0	531	409	
15	0	0	0	0	532	410	
0	0	0	0	0	533	409	
1	0	0	0	0	536	409	
2	0	0	0	0	538	409	
3	0	0	0	0	540	410	
4	0	0	0	0	542	410	
5	0	0	0	0	543	409	
6	0	0	0	0	542	410	
7	0	0	0	0	539	411	
8	0	0	0	0	537	410	
9	0	0	0	0	536	410	
10	0	0	0	0	534	410	
11	0	0	0	0	531	410	
12	0	0	0	0	527	410	
13	0	0	0	0	525	410	
14	0	0	0	0	522	410	
15	0	0	0	0	518	411	
0	0	0	0	0	515	410	
1	0	0	0	0	513	410	
2	0	0	0	0	513	410	
3	0	0	0	0	514	409	
4	0	0	0	0	515	409	
5	0	0	0	0	515	410	
6	0	0	0	0	515	410	
7	0	0	0	0	514	411	
8	0	0	0	0	515	409	
9	0	0	0	0	516	410	
10	0	0	0	0	515	409	
11	0	0	0	0	513	409	
12	0	0	0	0	512	410	
13	0	0	0	0	510	409	
14	0	0	0	0	508	409	
15	0	0	0	0	504	411	
0	0	0	0	0	502	409	
1	0	0	0	0	500	410	
2	0	0	0	0	499	409	
3	0	0	0	0	499	409	
4	0	0	0	0	499	409	
5	0	0	0	0	499	409	
6	0	0	0	0	499	409	
7	0	0	0	0	498	409	
8	0	0	0	0	497	409	
9	0	0	0	0	496	409	
10	0	0	0	0	497	409	
11	0	0	0	0	496	409	
12	0	0	0	0	493	409	
13	0	0	0	0	489	409	
14	0	0	0	0	486	409	
15	0	0	0	0	485	411	
0	0	0	0	0	485	409	
1	0	0	0	0	484	409	
2	0	0	0	0	483	409	
3	0	0	0	0	483	409	
4	0	0	0	0	485	410	
5	0	0	0	0	487	410	
6	0	0	0	0	488	409	
7	0	0	0	0	489	410	
8	0	0	0	0	490	409	
9	0	0	0	0	490	409	
10	0	0	0	0	491	409	
11	0	0	0	0	492	409	
12	0	0	0	0	493	409	
13	0	0	0	0	492	409	
14	0	0	0	0	490	409	
15	0	0	0	0	490	410	
0	0	0	0	0	490	409	
1	0	0	0	0	489	409	
2	0	0	0	0	489	409	
3	0	0	0	0	489	409	
4	0	0	0	0	487	409	
5	0	0	0	0	486	409	
6	0	0	0	0	486	410	
7	0	0	0	0	484	411	
8	0	0	0	0	484	410	
9	0	0	0	0	484	409	
10	0	0	0	0	486	410	
11	0	0	0	0	487	409	
12	0	0	0	0	489	410	
13	0	0	0	0	492	410	
14	0	0	0	0	495	409	
15	0	0	0	0	496	410	
0	0	0	0	0	496	409	
1	0	0	0	0	496	410	
2	0	0	0	0	496	409	
3	0	0	0	0	495	409	
4	0	0	0	0	495	409	
5	0	0	0	0	497	409	
6	0	0	0	0	498	410	
7	0	0	0	0	498	411	
8	0	0	0	0	498	410	
9	0	0	0	0	496	410	
10	0	0	0	0	495	410	
11	0	0	0	0	494	409	
12	0	0	0	0	492	410	
13	0	0	0	0	491	410	
14	0	0	0	0	489	409	
15	0	0	0	0	488	410	
0	0	0	0	0	488	410	
1	0	0	0	0	488	409	
2	0	0	0	0	488	409	
3	0	0	0	0	490	409	
4	0	0	0	0	492	410	
5	0	0	0	0	494	410	
6	0	0	0	0	496	410	
7	0	0	0	0	498	410	
8	0	0	0	0	499	409	
9	0	0	0	0	502	409	
10	0	0	0	0	505	409	
11	0	0	0	0	507	409	
12	0	0	0	0	508	410	
13	0	0	0	0	507	409	
14	0	0	0	0	507	409	
15	0	0	0	0	508	410	
0	0	0	0	0	508	409	
1	0	0	0	0	512	409	
2	0	0	0	0	513	410	
3	0	0	0	0	511	409	
4	0	0	0	0	508	410	
5	0	0	0	0	505	410	
6	0	0	0	0	503	410	
7	0	0	0	0	500	411	
8	0	0	0	0	498	410	
9	0	0	0	0	496	410	
10	0	0	0	0	496	410	
11	0	0	0	0	497	410	
12	0	0	0	0	497	410	
13	0	0	0	0	497	410	
14	0	0	0	0	500	410	
15	0	0	0	0	501	410	
0	0	0	0	0	502	410	
1	0	0	0	0	503	410	
2	0	0	0	0	505	410	
3	0	0	0	0	504	409	
4	0	0	0	0	503	410	
5	0	0	0	0	504	411	
6	0	0	0	0	505	410	
7	0	0	0	0	507	411	
8	0	0	0	0	509	409	
9	0	0	0	0	510	409	
10	0	0	0	0	510	409	
11	0	0	0	0	510	409	
12	0	0	0	0	510	410	
13	0	0	0	0	508	410	
14	0	0	0	0	505	410	
15	0	0	0	0	505	410	
0	0	0	0	0	505	410	
1	0	0	0	0	504	410	
2	0	0	0	0	504	409	
3	0	0	0	0	505	409	
4	0	0	0	0	504	409	
5	0	0	0	0	500	409	
6	0	0	0	0	495	410	
7	0	0	0	0	493	410	
8	0	0	0	0	493	409	
9	0	0	0	0	495	409	
10	0	0	0	0	496	410	
11	0	0	0	0	499	409	
12	0	0	0	0	502	410	
13	0	0	0	0	506	409	
14	0	0	0	0	512	410	
15	0	0	0	0	515	410	
0	0	0	0	0	514	410	
1	0	0	0	0	510	409	
2	0	0	0	0	506	410	
3	0	0	0	0	502	409	
4	0	0	0	0	499	410	
5	0	0	0	0	497	409	
6	0	0	0	0	497	410	
7	0	0	0	0	497	410	
8	0	0	0	0	497	409	
9	0	0	0	0	496	409	
10	0	0	0	0	496	409	
11	0	0	0	0	496	409	
12	0	0	0	0	497	409	
13	0	0	0	0	497	409	
14	0	0	0	0	497	409	
15	0	0	0	0	497	411	
0	0	0	0	0	497	410	
1	0	0	0	0	498	409	
2	0	0	0	0	496	409	
3	0	0	0	0	496	409	
4	0	0	0	0	496	410	
5	0	0	0	0	496	409	
6	0	0	0	0	496	409	
7	0	0	0	0	495	410	
8	0	0	0	0	495	409	
9	0	0	0	0	495	409	
10	0	0	0	0	496	409	
11	0	0	0	0	496	409	
12	0	0	0	0	499	410	
13	0	0	0	0	500	410	
14	0	0	0	0	502	411	
15	0	0	0	0	502	411	
0	0	0	0	0	502	410	
1	0	0	0	0	502	411	
2	0	0	0	0	502	410	
3	0	0	0	0	503	410	
4	0	0	0	0	505	409	
5	0	0	0	0	508	410	
6	0	0	0	0	509	410	
7	0	0	0	0	509	411	
8	0	0	0	0	508	410	
9	0	0	0	0	507	409	
10	0	0	0	0	505	410	
11	0	0	0	0	504	410	
12	0	0	0	0	501	410	
13	0	0	0	0	498	410	
14	0	0	0	0	495	409	
15	0	0	0	0	492	411	
0	0	0	0	0	491	409	
1	0	0	0	0	490	410	
2	0	0	0	0	491	410	
3	0	0	0	0	491	409	
4	0	0	0	0	492	410	
5	0	0	0	0	494	410	
6	0	0	0	0	496	410	
7	0	0	0	0	498	410	
8	0	0	0	0	499	410	
9	0	0	0	0	500	409	
10	0	0	0	0	501	409	
11	0	0	0	0	503	409	
12	0	0	0	0	505	409	
13	0	0	0	0	505	410	
14	0	0	0	0	504	409	
15	0	0	0	0	504	410	
0	0	0	0	0	504	409	
1	0	0	0	0	505	409	
2	0	0	0	0	505	409	
3	0	0	0	0	505	409	
4	0	0	0	0	505	410	
5	0	0	0	0	505	409	
6	0	0	0	0	506	410	
7	0	0	0	0	506	411	
8	0	0	0	0	505	409	
9	0	0	0	0	505	410	
10	0	0	0	0	506	410	
11	0	0	0	0	506	410	
12	0	0	0	0	506	410	
13	0	0	0	0	508	410	
14	0	0	0	0	509	410	
15	0	0	0	0	510	412	
0	0	0	0	0	508	411	
1	0	0	0	0	508	411	
2	0	0	0	0	507	410	
3	0	0	0	0	506	409	
4	0	0	0	0	504	409	
5	0	0	0	0	504	410	
6	0	0	0	0	503	409	
7	0	0	0	0	504	410	
8	0	0	0	0	505	410	
9	0	0	0	0	508	410	
10	0	0	0	0	511	410	
11	0	0	0	0	512	409	
12	0	0	0	0	513	409	
13	0	0	0	0	514	409	
14	0	0	0	0	515	409	
15	0	0	0	0	518	410	
0	0	0	0	0	523	410	
1	0	0	0	0	526	410	
2	0	0	0	0	527	410	
3	0	0	0	0	526	409	
4	0	0	0	0	523	409	
5	0	0	0	0	521	409	
6	0	0	0	0	517	410	
7	0	0	0	0	516	410	
8	0	0	0	0	516	409	
9	0	0	0	0	517	410	
10	0	0	0	0	518	409	
11	0	0	0	0	519	409	
12	0	0	0	0	519	409	
13	0	0	0	0	518	409	
14	0	0	0	0	517	409	
15	0	0	0	0	517	410	
0	0	0	0	0	519	410	
1	0	0	0	0	517	409	
2	0	0	0	0	513	410	
3	0	0	0	0	510	409	
4	0	0	0	0	508	409	
5	0	0	0	0	506	409	
6	0	0	0	0	504	409	
7	0	0	0	0	502	410	
8	0	0	0	0	501	409	
9	0	0	0	0	500	410	
10	0	0	0	0	499	409	
11	0	0	0	0	499	409	
12	0	0	0	0	499	409	
13	0	0	0	0	499	409	
14	0	0	0	0	501	409	
15	0	0	0	0	502	410	
0	0	0	0	0	504	409	
1	0	0	0	0	505	409	
2	0	0	0	0	507	409	
3	0	0	0	0	510	409	
4	0	0	0	0	513	409	
5	0	0	0	0	513	409	
6	0	0	0	0	513	409	
7	0	0	0	0	512	409	
8	0	0	0	0	512	410	
9	0	0	0	0	512	409	
10	0	0	0	0	512	410	
11	0	0	0	0	512	409	
12	0	0	0	0	512	409	
13	0	0	0	0	511	409	
14	0	0	0	0	508	409	
15	0	0	0	0	506	410	
0	0	0	0	0	504	409	
1	0	0	0	0	505	410	
2	0	0	0	0	505	409	
3	0	0	0	0	504	408	
4	0	0	0	0	504	410	
5	0	0	0	0	504	410	
6	0	0	0	0	504	409	
7	0	0	0	0	506	410	
8	0	0	0	0	509	410	
9	0	0	0	0	511	410	
10	0	0	0	0	512	409	
11	0	0	0	0	512	410	
12	0	0	0	0	511	410	
13	0	0	0	0	511	410	
14	0	0	0	0	511	410	
15	0	0	0	0	511	411	
0	0	0	0	0	512	409	
1	0	0	0	0	513	410	
2	0	0	0	0	513	409	
3	0	0	0	0	513	409	
4	0	0	0	0	514	410	
5	0	0	0	0	515	409	
6	0	0	0	0	516	409	
7	0	0	0	0	517	411	
8	0	0	0	0	517	410	
9	0	0	0	0	516	409	
10	0	0	0	0	516	409	
11	0	0	0	0	515	409	
12	0	0	0	0	514	409	
13	0	0	0	0	514	409	
14	0	0	0	0	513	409	
15	0	0	0	0	512	410	
0	0	0	0	0	512	409	
1	0	0	0	0	511	409	
2	0	0	0	0	512	409	
3	0	0	0	0	512	409	
4	0	0	0	0	512	410	
5	0	0	0	0	513	410	
6	0	0	0	0	513	409	
7	0	0	0	0	512	411	
8	0	0	0	0	511	409	
9	0	0	0	0	511	409	
10	0	0	0	0	511	409	
11	0	0	0	0	511	409	
12	0	0	0	0	510	409	
13	0	0	0	0	509	409	
14	0	0	0	0	508	409	
15	0	0	0	0	508	411	
0	0	0	0	0	508	409	
1	0	0	0	0	507	410	
2	0	0	0	0	508	409	
3	0	0	0	0	508	409	
4	0	0	0	0	508	410	
5	0	0	0	0	508	409	
6	0	0	0	0	508	411	
7	0	0	0	0	510	411	
8	0	0	0	0	511	410	
9	0	0	0	0	512	410	
10	0	0	0	0	512	410	
11	0	0	0	0	511	410	
12	0	0	0	0	512	410	
13	0	0	0	0	515	410	
14	0	0	0	0	518	410	
15	0	0	0	0	520	411	
0	0	0	0	0	518	409	
1	0	0	0	0	517	410	
2	0	0	0	0	516	409	
3	0	0	0	0	516	409	
4	0	0	0	0	515	410	
5	0	0	0	0	513	409	
6	0	0	0	0	511	409	
7	0	0	0	0	509	410	
8	0	0	0	0	508	409	
9	0	0	0	0	508	409	
10	0	0	0	0	507	409	
11	0	0	0	0	507	409	
12	0	0	0	0	506	408	
13	0	0	0	0	505	409	
14	0	0	0	0	504	409	
15	0	0	0	0	503	411	
0	0	0	0	0	499	409	
1	0	0	0	0	498	410	
2	0	0	0	0	498	409	
3	0	0	0	0	498	409	
4	0	0	0	0	500	409	
5	0	0	0	0	502	409	
6	0	0	0	0	505	409	
7	0	0	0	0	510	410	
8	0	0	0	0	515	410	
9	0	0	0	0	519	410	
10	0	0	0	0	522	409	
11	0	0	0	0	522	409	
12	0	0	0	0	520	409	
13	0	0	0	0	519	409	
14	0	0	0	0	517	410	
15	0	0	0	0	516	411	
0	0	0	0	0	517	410	
1	0	0	0	0	519	409	
2	0	0	0	0	520	410	
3	0	0	0	0	520	409	
4	0	0	0	0	523	409	
5	0	0	0	0	526	409	
6	0	0	0	0	526	409	
7	0	0	0	0	525	410	
8	0	0	0	0	524	409	
9	0	0	0	0	523	409	
10	0	0	0	0	523	410	
11	0	0	0	0	523	410	
12	0	0	0	0	523	409	
13	0	0	0	0	522	410	
14	0	0	0	0	521	409	
15	0	0	0	0	519	410	
0	0	0	0	0	518	409	
1	0	0	0	0	515	409	
2	0	0	0	0	514	409	
3	0	0	0	0	515	409	
4	0	0	0	0	519	410	
5	0	0	0	0	520	409	
6	0	0	0	0	519	410	
7	0	0	0	0	517	410	
8	0	0	0	0	517	409	
9	0	0	0	0	518	409	
10	0	0	0	0	518	410	
11	0	0	0	0	516	409	
12	0	0	0	0	513	410	
13	0	0	0	0	510	410	
14	0	0	0	0	508	410	
15	0	0	0	0	508	410	
0	0	0	0	0	508	409	
1	0	0	0	0	511	410	
2	0	0	0	0	513	410	
3	0	0	0	0	513	409	
4	0	0	0	0	512	409	
5	0	0	0	0	512	409	
6	0	0	0	0	513	410	
7	0	0	0	0	514	411	
8	0	0	0	0	514	410	
9	0	0	0	0	515	409	
10	0	0	0	0	516	409	
11	0	0	0	0	518	409	
12	0	0	0	0	520	409	
13	0	0	0	0	522	409	
14	0	0	0	0	522	409	
15	0	0	0	0	520	410	
0	0	0	0	0	519	409	
1	0	0	0	0	514	409	
2	0	0	0	0	507	410	
3	0	0	0	0	502	409	
4	0	0	0	0	499	409	
5	0	0	0	0	497	410	
6	0	0	0	0	497	409	
7	0	0	0	0	497	410	
8	0	0	0	0	498	409	
9	0	0	0	0	502	410	
10	0	0	0	0	505	411	
11	0	0	0	0	507	410	
12	0	0	0	0	507	411	
13	0	0	0	0	505	409	
14	0	0	0	0	504	410	
15	0	0	0	0	503	411	
0	0	0	0	0	503	410	
1	0	0	0	0	502	409	
2	0	0	0	0	501	409	
3	0	0	0	0	501	409	
4	0	0	0	0	500	410	
5	0	0	0	0	499	410	
6	0	0	0	0	497	409	
7	0	0	0	0	497	410	
8	0	0	0	0	497	409	
9	0	0	0	0	498	410	
10	0	0	0	0	499	410	
11	0	0	0	0	500	409	
12	0	0	0	0	502	409	
13	0	0	0	0	504	409	
14	0	0	0	0	506	409	
15	0	0	0	0	507	409	
0	0	0	0	0	508	409	
1	0	0	0	0	508	409	
2	0	0	0	0	509	410	
3	0	0	0	0	511	410	
4	0	0	0	0	511	409	
5	0	0	0	0	512	410	
6	0	0	0	0	511	409	
7	0	0	0	0	509	410	
8	0	0	0	0	508	409	
9	0	0	0	0	504	409	
10	0	0	0	0	499	409	
11	0	0	0	0	496	408	
12	0	0	0	0	493	409	
13	0	0	0	0	489	409	
14	0	0	0	0	486	409	
15	0	0	0	0	484	410	
0	0	0	0	0	483	409	
1	0	0	0	0	483	409	
2	0	0	0	0	483	409	
3	0	0	0	0	483	408	
4	0	0	0	0	482	408	
5	0	0	0	0	483	409	
6	0	0	0	0	487	409	
7	0	0	0	0	490	410	
8	0	0	0	0	492	409	
9	0	0	0	0	496	409	
10	0	0	0	0	498	410	
11	0	0	0	0	498	410	
12	0	0	0	0	499	409	
13	0	0	0	0	499	409	
14	0	0	0	0	499	409	
15	0	0	0	0	497	410	
0	0	0	0	0	495	409	
1	0	0	0	0	491	409	
2	0	0	0	0	488	409	
3	0	0	0	0	486	408	
4	0	0	0	0	486	410	
5	0	0	0	0	489	409	
6	0	0	0	0	493	409	
7	0	0	0	0	500	411	
8	0	0	0	0	509	409	
9	0	0	0	0	517	409	
10	0	0	0	0	527	410	
11	0	0	0	0	537	409	
12	0	0	0	0	546	409	
13	0	0	0	0	558	410	
14	0	0	0	0	571	410	
15	0	0	0	0	585	411	
0	0	0	0	0	599	410	
1	0	0	0	0	612	410	
2	0	0	0	0	627	409	
3	0	0	0	0	641	409	
4	0	0	0	0	658	409	
5	0	0	0	0	671	409	
6	0	0	0	0	680	409	
7	0	0	0	0	683	410	
8	0	0	0	0	683	410	
9	0	0	0	0	681	409	
10	0	0	0	0	676	409	
11	0	0	0	0	670	409	
12	0	0	0	0	664	409	
13	0	0	0	0	658	409	
14	0	0	0	0	649	409	
15	0	0	0	0	638	411	
0	0	0	0	0	624	410	
1	0	0	0	0	610	410	
2	0	0	0	0	595	409	
3	0	0	0	0	583	409	
4	0	0	0	0	576	410	
5	0	0	0	0	572	409	
6	0	0	0	0	565	409	
7	0	0	0	0	557	410	
8	0	0	0	0	548	409	
9	0	0	0	0	539	409	
10	0	0	0	0	532	409	
11	0	0	0	0	529	409	
12	0	0	0	0	528	409	
13	0	0	0	0	525	409	
14	0	0	0	0	521	410	
15	0	0	0	0	519	410	
0	0	0	0	0	518	409	
1	0	0	0	0	517	410	
2	0	0	0	0	514	409	
3	0	0	0	0	511	410	
4	0	0	0	0	507	409	
5	0	0	0	0	504	409	
6	0	0	0	0	501	410	
7	0	0	0	0	497	410	
8	0	0	0	0	494	409	
9	0	0	0	0	491	409	
10	0	0	0	0	488	410	
11	0	0	0	0	489	409	
12	0	0	0	0	490	409	
13	0	0	0	0	491	410	
14	0	0	0	0	494	410	
15	0	0	0	0	495	411	
0	0	0	0	0	496	409	
1	0	0	0	0	496	409	
2	0	0	0	0	494	409	
3	0	0	0	0	492	409	
4	0	0	0	0	490	409	
5	0	0	0	0	488	409	
6	0	0	0	0	485	410	
7	0	0	0	0	480	410	
8	0	0	0	0	476	410	
9	0	0	0	0	472	409	
10	0	0	0	0	471	409	
11	0	0	0	0	469	409	
12	0	0	0	0	468	409	
13	0	0	0	0	468	409	
14	0	0	0	0	470	409	
15	0	0	0	0	471	410	
0	0	0	0	0	472	409	
1	0	0	0	0	474	409	
2	0	0	0	0	475	409	
3	0	0	0	0	476	409	
4	0	0	0	0	479	409	
5	0	0	0	0	481	410	
6	0	0	0	0	484	409	
7	0	0	0	0	486	410	
8	0	0	0	0	487	410	
9	0	0	0	0	488	410	
10	0	0	0	0	488	410	
11	0	0	0	0	487	409	
12	0	0	0	0	486	410	
13	0	0	0	0	483	409	
14	0	0	0	0	480	409	
15	0	0	0	0	478	410	
0	0	0	0	0	478	410	
1	0	0	0	0	476	409	
2	0	0	0	0	473	409	
3	0	0	0	0	471	409	
4	0	0	0	0	470	409	
5	0	0	0	0	470	409	
6	0	0	0	0	472	410	
7	0	0	0	0	476	410	
8	0	0	0	0	479	410	
9	0	0	0	0	483	410	
10	0	0	0	0	487	409	
11	0	0	0	0	489	410	
12	0	0	0	0	492	410	
13	0	0	0	0	492	409	
14	0	0	0	0	492	409	
15	0	0	0	0	492	411	
0	0	0	0	0	491	409	
1	0	0	0	0	490	410	
2	0	0	0	0	487	410	
3	0	0	0	0	483	409	
4	0	0	0	0	480	409	
5	0	0	0	0	480	409	
6	0	0	0	0	482	409	
7	0	0	0	0	485	411	
8	0	0	0	0	485	410	
9	0	0	0	0	484	409	
10	0	0	0	0	482	409	
11	0	0	0	0	479	409	
12	0	0	0	0	477	409	
13	0	0	0	0	477	410	
14	0	0	0	0	478	410	
15	0	0	0	0	480	410	
0	0	0	0	0	481	409	
1	0	0	0	0	484	410	
2	0	0	0	0	485	409	
3	0	0	0	0	487	409	
4	0	0	0	0	490	409	
5	0	0	0	0	491	410	
6	0	0	0	0	491	410	
7	0	0	0	0	491	411	
8	0	0	0	0	490	410	
9	0	0	0	0	491	410	
10	0	0	0	0	490	409	
11	0	0	0	0	487	409	
12	0	0	0	0	484	410	
13	0	0	0	0	482	409	
14	0	0	0	0	481	410	
15	0	0	0	0	481	410	
0	0	0	0	0	482	410	
1	0	0	0	0	484	409	
2	0	0	0	0	487	410	
3	0	0	0	0	492	409	
4	0	0	0	0	493	409	
5	0	0	0	0	495	410	
6	0	0	0	0	498	409	
7	0	0	0	0	500	410	
8	0	0	0	0	502	410	
9	0	0	0	0	502	409	
10	0	0	0	0	501	409	
11	0	0	0	0	501	409	
12	0	0	0	0	499	410	
13	0	0	0	0	498	409	
14	0	0	0	0	499	409	
15	0	0	0	0	500	410	
0	0	0	0	0	500	409	
1	0	0	0	0	499	409	
2	0	0	0	0	496	409	
3	0	0	0	0	495	409	
4	0	0	0	0	494	410	
5	0	0	0	0	494	409	
6	0	0	0	0	494	409	
7	0	0	0	0	495	410	
8	0	0	0	0	495	409	
9	0	0	0	0	493	409	
10	0	0	0	0	492	409	
11	0	0	0	0	493	410	
12	0	0	0	0	496	410	
13	0	0	0	0	496	409	
14	0	0	0	0	495	409	
15	0	0	0	0	495	410	
0	0	0	0	0	495	408	
1	0	0	0	0	495	409	
2	0	0	0	0	495	409	
3	0	0	0	0	495	409	
4	0	0	0	0	496	409	
5	0	0	0	0	496	409	
6	0	0	0	0	496	409	
7	0	0	0	0	497	410	
8	0	0	0	0	498	409	
9	0	0	0	0	499	409	
10	0	0	0	0	502	409	
11	0	0	0	0	504	409	
12	0	0	0	0	504	409	
13	0	0	0	0	505	410	
14	0	0	0	0	506	410	
15	0	0	0	0	507	410	
0	0	0	0	0	507	410	
1	0	0	0	0	505	410	
2	0	0	0	0	503	410	
3	0	0	0	0	504	409	
4	0	0	0	0	504	409	
5	0	0	0	0	504	410	
6	0	0	0	0	505	410	
7	0	0	0	0	505	410	
8	0	0	0	0	506	409	
9	0	0	0	0	508	409	
10	0	0	0	0	509	409	
11	0	0	0	0	511	409	
12	0	0	0	0	511	409	
13	0	0	0	0	510	409	
14	0	0	0	0	510	410	
15	0	0	0	0	508	410	
0	0	0	0	0	506	410	
1	0	0	0	0	506	410	
2	0	0	0	0	508	410	
3	0	0	0	0	510	409	
4	0	0	0	0	512	410	
5	0	0	0	0	514	409	
6	0	0	0	0	516	409	
7	0	0	0	0	517	410	
8	0	0	0	0	517	409	
9	0	0	0	0	517	409	
10	0	0	0	0	517	410	
11	0	0	0	0	516	409	
12	0	0	0	0	516	409	
13	0	0	0	0	515	410	
14	0	0	0	0	513	410	
15	0	0	0	0	511	411	
0	0	0	0	0	509	410	
1	0	0	0	0	511	409	
2	0	0	0	0	513	409	
3	0	0	0	0	515	409	
4	0	0	0	0	516	409	
5	0	0	0	0	518	409	
6	0	0	0	0	519	409	
7	0	0	0	0	520	410	
8	0	0	0	0	522	409	
9	0	0	0	0	524	410	
10	0	0	0	0	527	409	
11	0	0	0	0	530	409	
12	0	0	0	0	530	409	
13	0	0	0	0	528	409	
14	0	0	0	0	527	409	
15	0	0	0	0	525	410	
0	0	0	0	0	524	409	
1	0	0	0	0	523	409	
2	0	0	0	0	521	410	
3	0	0	0	0	519	409	
4	0	0	0	0	518	410	
5	0	0	0	0	517	410	
6	0	0	0	0	517	410	
7	0	0	0	0	518	411	
8	0	0	0	0	519	409	
9	0	0	0	0	521	409	
10	0	0	0	0	523	409	
11	0	0	0	0	524	409	
12	0	0	0	0	524	409	
13	0	0	0	0	524	410	
14	0	0	0	0	526	410	
15	0	0	0	0	526	411	
0	0	0	0	0	527	410	
1	0	0	0	0	527	410	
2	0	0	0	0	527	410	
3	0	0	0	0	528	410	
4	0	0	0	0	529	410	
5	0	0	0	0	530	410	
6	0	0	0	0	531	409	
7	0	0	0	0	533	411	
8	0	0	0	0	533	409	
9	0	0	0	0	534	409	
10	0	0	0	0	534	409	
11	0	0	0	0	534	409	
12	0	0	0	0	534	410	
13	0	0	0	0	534	409	
14	0	0	0	0	534	410	
15	0	0	0	0	533	410	
0	0	0	0	0	531	409	
1	0	0	0	0	529	410	
2	0	0	0	0	529	409	
3	0	0	0	0	528	409	
4	0	0	0	0	527	410	
5	0	0	0	0	526	409	
6	0	0	0	0	524	409	
7	0	0	0	0	522	411	
8	0	0	0	0	521	409	
9	0	0	0	0	520	409	
10	0	0	0	0	519	410	
11	0	0	0	0	518	409	
12	0	0	0	0	516	410	
13	0	0	0	0	514	409	
14	0	0	0	0	513	409	
15	0	0	0	0	512	411	
0	0	0	0	0	511	410	
1	0	0	0	0	510	409	
2	0	0	0	0	509	410	
3	0	0	0	0	507	409	
4	0	0	0	0	507	409	
5	0	0	0	0	508	409	
6	0	0	0	0	507	409	
7	0	0	0	0	505	409	
8	0	0	0	0	504	409	
9	0	0	0	0	502	409	
10	0	0	0	0	503	409	
11	0	0	0	0	503	408	
12	0	0	0	0	502	409	
13	0	0	0	0	502	409	
14	0	0	0	0	502	410	
15	0	0	0	0	504	410	
0	0	0	0	0	503	410	
1	0	0	0	0	501	409	
2	0	0	0	0	499	409	
3	0	0	0	0	496	409	
4	0	0	0	0	494	410	
5	0	0	0	0	491	410	
6	0	0	0	0	487	409	
7	0	0	0	0	484	411	
8	0	0	0	0	483	410	
9	0	0	0	0	483	411	
10	0	0	0	0	484	410	
11	0	0	0	0	483	409	
12	0	0	0	0	483	410	
13	0	0	0	0	482	409	
14	0	0	0	0	482	409	
15	0	0	0	0	483	410	
0	0	0	0	0	484	409	
1	0	0	0	0	484	409	
2	0	0	0	0	484	409	
3	0	0	0	0	483	409	
4	0	0	0	0	483	410	
5	0	0	0	0	482	410	
6	0	0	0	0	483	409	
7	0	0	0	0	484	410	
8	0	0	0	0	484	409	
9	0	0	0	0	482	409	
10	0	0	0	0	481	409	
11	0	0	0	0	480	409	
12	0	0	0	0	484	409	
13	0	0	0	0	488	409	
14	0	0	0	0	491	409	
15	0	0	0	0	493	411	
0	0	0	0	0	493	410	
1	0	0	0	0	494	410	
2	0	0	0	0	495	409	
3	0	0	0	0	496	409	
4	0	0	0	0	497	409	
5	0	0	0	0	498	410	
6	0	0	0	0	498	409	
7	0	0	0	0	496	410	
8	0	0	0	0	495	409	
9	0	0	0	0	494	410	
10	0	0	0	0	494	410	
11	0	0	0	0	493	409	
12	0	0	0	0	491	409	
13	0	0	0	0	489	409	
14	0	0	0	0	489	409	
15	0	0	0	0	488	410	
0	0	0	0	0	487	410	
1	0	0	0	0	487	409	
2	0	0	0	0	488	409	
3	0	0	0	0	489	409	
4	0	0	0	0	491	409	
5	0	0	0	0	492	409	
6	0	0	0	0	494	409	
7	0	0	0	0	493	411	
8	0	0	0	0	493	410	
9	0	0	0	0	493	410	
10	0	0	0	0	493	409	
11	0	0	0	0	494	409	
12	0	0	0	0	493	410	
13	0	0	0	0	492	409	
14	0	0	0	0	490	410	
15	0	0	0	0	489	409	
0	0	0	0	0	488	409	
1	0	0	0	0	488	410	
2	0	0	0	0	491	410	
3	0	0	0	0	496	409	
4	0	0	0	0	497	410	
5	0	0	0	0	498	409	
6	0	0	0	0	499	410	
7	0	0	0	0	499	411	
8	0	0	0	0	500	410	
9	0	0	0	0	500	409	
10	0	0	0	0	501	410	
11	0	0	0	0	501	409	
12	0	0	0	0	502	409	
13	0	0	0	0	502	409	
14	0	0	0	0	503	410	
15	0	0	0	0	503	410	
0	0	0	0	0	502	409	
1	0	0	0	0	502	410	
2	0	0	0	0	502	409	
3	0	0	0	0	502	409	
4	0	0	0	0	502	410	
5	0	0	0	0	501	409	
6	0	0	0	0	501	409	
7	0	0	0	0	500	410	
8	0	0	0	0	501	409	
9	0	0	0	0	501	409	
10	0	0	0	0	502	409	
11	0	0	0	0	501	409	
12	0	0	0	0	501	409	
13	0	0	0	0	499	409	
14	0	0	0	0	497	409	
15	0	0	0	0	494	411	
0	0	0	0	0	492	409	
1	0	0	0	0	494	409	
2	0	0	0	0	497	408	
3	0	0	0	0	499	409	
4	0	0	0	0	499	409	
5	0	0	0	0	500	409	
6	0	0	0	0	501	409	
7	0	0	0	0	503	410	
8	0	0	0	0	503	409	
9	0	0	0	0	501	410	
10	0	0	0	0	497	409	
11	0	0	0	0	493	409	
12	0	0	0	0	489	409	
13	0	0	0	0	490	409	
14	0	0	0	0	497	409	
15	0	0	0	0	503	411	
0	0	0	0	0	504	409	
1	0	0	0	0	504	409	
2	0	0	0	0	502	409	
3	0	0	0	0	501	409	
4	0	0	0	0	501	410	
5	0	0	0	0	502	410	
6	0	0	0	0	503	409	
7	0	0	0	0	503	410	
8	0	0	0	0	503	409	
9	0	0	0	0	504	409	
10	0	0	0	0	504	409	
11	0	0	0	0	503	409	
12	0	0	0	0	500	409	
13	0	0	0	0	498	410	
14	0	0	0	0	496	410	
15	0	0	0	0	496	410	
0	0	0	0	0	498	409	
1	0	0	0	0	497	409	
2	0	0	0	0	495	409	
3	0	0	0	0	493	409	
4	0	0	0	0	492	409	
5	0	0	0	0	493	409	
6	0	0	0	0	493	409	
7	0	0	0	0	495	410	
8	0	0	0	0	496	409	
9	0	0	0	0	498	409	
10	0	0	0	0	500	409	
11	0	0	0	0	504	409	
12	0	0	0	0	505	409	
13	0	0	0	0	504	409	
14	0	0	0	0	503	410	
15	0	0	0	0	503	410	
0	0	0	0	0	503	409	
1	0	0	0	0	504	409	
2	0	0	0	0	504	409	
3	0	0	0	0	504	409	
4	0	0	0	0	502	410	
5	0	0	0	0	498	409	
6	0	0	0	0	496	409	
7	0	0	0	0	496	410	
8	0	0	0	0	498	409	
9	0	0	0	0	500	410	
10	0	0	0	0	501	409	
11	0	0	0	0	501	410	
12	0	0	0	0	500	410	
13	0	0	0	0	499	409	
14	0	0	0	0	499	409	
15	0	0	0	0	498	410	
0	0	0	0	0	498	409	
1	0	0	0	0	497	410	
2	0	0	0	0	496	410	
3	0	0	0	0	495	410	
4	0	0	0	0	494	409	
5	0	0	0	0	496	410	
6	0	0	0	0	499	410	
7	0	0	0	0	501	411	
8	0	0	0	0	501	410	
9	0	0	0	0	501	409	
10	0	0	0	0	501	410	
11	0	0	0	0	502	410	
12	0	0	0	0	502	409	
13	0	0	0	0	504	409	
14	0	0	0	0	504	409	
15	0	0	0	0	505	411	
0	0	0	0	0	507	410	
1	0	0	0	0	507	410	
2	0	0	0	0	507	410	
3	0	0	0	0	506	410	
4	0	0	0	0	506	410	
5	0	0	0	0	506	410	
6	0	0	0	0	507	409	
7	0	0	0	0	511	410	
8	0	0	0	0	513	410	
9	0	0	0	0	518	410	
10	0	0	0	0	521	409	
11	0	0	0	0	521	409	
12	0	0	0	0	520	410	
13	0	0	0	0	517	409	
14	0	0	0	0	515	409	
15	0	0	0	0	512	410	
0	0	0	0	0	508	409	
1	0	0	0	0	504	409	
2	0	0	0	0	500	409	
3	0	0	0	0	497	409	
4	0	0	0	0	496	410	
5	0	0	0	0	496	409	
6	0	0	0	0	496	409	
7	0	0	0	0	498	410	
8	0	0	0	0	499	409	
9	0	0	0	0	501	408	
10	0	0	0	0	503	409	
11	0	0	0	0	504	409	
12	0	0	0	0	506	408	
13	0	0	0	0	507	409	
14	0	0	0	0	509	409	
15	0	0	0	0	514	409	
0	0	0	0	0	520	409	
1	0	0	0	0	523	409	
2	0	0	0	0	525	409	
3	0	0	0	0	525	409	
4	0	0	0	0	524	409	
5	0	0	0	0	524	410	
6	0	0	0	0	524	409	
7	0	0	0	0	522	410	
8	0	0	0	0	520	409	
9	0	0	0	0	517	409	
10	0	0	0	0	513	409	
11	0	0	0	0	508	409	
12	0	0	0	0	505	410	
13	0	0	0	0	504	410	
14	0	0	0	0	503	411	
15	0	0	0	0	501	410	
0	0	0	0	0	499	411	
1	0	0	0	0	498	409	
2	0	0	0	0	499	409	
3	0	0	0	0	503	409	
4	0	0	0	0	505	409	
5	0	0	0	0	507	410	
6	0	0	0	0	508	409	
7	0	0	0	0	509	411	
8	0	0	0	0	509	410	
9	0	0	0	0	511	410	
10	0	0	0	0	512	410	
11	0	0	0	0	513	410	
12	0	0	0	0	514	410	
13	0	0	0	0	515	410	
14	0	0	0	0	515	410	
15	0	0	0	0	516	411	
0	0	0	0	0	516	410	
1	0	0	0	0	515	410	
2	0	0	0	0	513	410	
3	0	0	0	0	512	409	
4	0	0	0	0	511	410	
5	0	0	0	0	510	410	
6	0	0	0	0	509	410	
7	0	0	0	0	509	411	
8	0	0	0	0	510	410	
9	0	0	0	0	510	409	
10	0	0	0	0	510	410	
11	0	0	0	0	509	410	
12	0	0	0	0	509	410	
13	0	0	0	0	508	410	
14	0	0	0	0	511	410	
15	0	0	0	0	512	410	
0	0	0	0	0	513	409	
1	0	0	0	0	512	409	
2	0	0	0	0	512	409	
3	0	0	0	0	511	408	
4	0	0	0	0	511	409	
5	0	0	0	0	512	409	
6	0	0	0	0	513	409	
7	0	0	0	0	513	410	
8	0	0	0	0	513	409	
9	0	0	0	0	514	410	
10	0	0	0	0	518	409	
11	0	0	0	0	520	409	
12	0	0	0	0	520	410	
13	0	0	0	0	518	409	
14	0	0	0	0	516	409	
15	0	0	0	0	516	410	
0	0	0	0	0	515	409	
1	0	0	0	0	519	409	
2	0	0	0	0	521	409	
3	0	0	0	0	521	409	
4	0	0	0	0	521	409	
5	0	0	0	0	520	409	
6	0	0	0	0	517	409	
7	0	0	0	0	512	409	
8	0	0	0	0	509	409	
9	0	0	0	0	506	409	
10	0	0	0	0	504	409	
11	0	0	0	0	504	409	
12	0	0	0	0	506	409	
13	0	0	0	0	508	410	
14	0	0	0	0	510	409	
15	0	0	0	0	512	410	
0	0	0	0	0	513	410	
1	0	0	0	0	512	410	
2	0	0	0	0	510	409	
3	0	0	0	0	508	408	
4	0	0	0	0	507	409	
5	0	0	0	0	505	409	
6	0	0	0	0	505	410	
7	0	0	0	0	504	410	
8	0	0	0	0	504	409	
9	0	0	0	0	504	409	
10	0	0	0	0	504	409	
11	0	0	0	0	505	409	
12	0	0	0	0	505	410	
13	0	0	0	0	505	410	
14	0	0	0	0	506	410	
15	0	0	0	0	506	411	
0	0	0	0	0	507	411	
1	0	0	0	0	507	410	
2	0	0	0	0	508	410	
3	0	0	0	0	508	409	
4	0	0	0	0	508	409	
5	0	0	0	0	508	410	
6	0	0	0	0	509	409	
7	0	0	0	0	509	411	
8	0	0	0	0	509	409	
9	0	0	0	0	510	409	
10	0	0	0	0	511	409	
11	0	0	0	0	511	409	
12	0	0	0	0	512	410	
13	0	0	0	0	512	410	
14	0	0	0	0	511	409	
15	0	0	0	0	510	410	
0	0	0	0	0	510	410	
1	0	0	0	0	510	410	
2	0	0	0	0	510	409	
3	0	0	0	0	512	410	
4	0	0	0	0	514	409	
5	0	0	0	0	515	410	
6	0	0	0	0	514	410	
7	0	0	0	0	512	410	
8	0	0	0	0	512	409	
9	0	0	0	0	512	410	
10	0	0	0	0	512	409	
11	0	0	0	0	513	409	
12	0	0	0	0	515	409	
13	0	0	0	0	517	410	
14	0	0	0	0	517	409	
15	0	0	0	0	517	409	
0	0	0	0	0	516	410	
1	0	0	0	0	514	409	
2	0	0	0	0	512	409	
3	0	0	0	0	511	408	
4	0	0	0	0	510	409	
5	0	0	0	0	510	409	
6	0	0	0	0	509	409	
7	0	0	0	0	508	409	
8	0	0	0	0	507	409	
9	0	0	0	0	507	409	
10	0	0	0	0	508	409	
11	0	0	0	0	510	408	
12	0	0	0	0	510	409	
13	0	0	0	0	511	409	
14	0	0	0	0	511	409	
15	0	0	0	0	512	410	
0	0	0	0	0	512	409	
1	0	0	0	0	511	410	
2	0	0	0	0	509	409	
3	0	0	0	0	507	409	
4	0	0	0	0	506	409	
5	0	0	0	0	507	410	
6	0	0	0	0	509	410	
7	0	0	0	0	511	410	
8	0	0	0	0	513	410	
9	0	0	0	0	515	410	
10	0	0	0	0	517	409	
11	0	0	0	0	519	409	
12	0	0	0	0	520	410	
13	0	0	0	0	520	410	
14	0	0	0	0	521	409	
15	0	0	0	0	521	410	
0	0	0	0	0	520	409	
1	0	0	0	0	520	410	
2	0	0	0	0	519	410	
3	0	0	0	0	521	410	
4	0	0	0	0	523	409	
5	0	0	0	0	525	409	
6	0	0	0	0	527	410	
7	0	0	0	0	528	410	
8	0	0	0	0	529	409	
9	0	0	0	0	531	411	
10	0	0	0	0	536	410	
11	0	0	0	0	536	409	
12	0	0	0	0	535	410	
13	0	0	0	0	532	409	
14	0	0	0	0	529	409	
15	0	0	0	0	527	410	
0	0	0	0	0	524	409	
1	0	0	0	0	519	410	
2	0	0	0	0	516	410	
3	0	0	0	0	516	409	
4	0	0	0	0	516	410	
5	0	0	0	0	515	409	
6	0	0	0	0	515	409	
7	0	0	0	0	515	410	
8	0	0	0	0	514	410	
9	0	0	0	0	514	411	
10	0	0	0	0	514	410	
11	0	0	0	0	514	409	
12	0	0	0	0	515	409	
13	0	0	0	0	515	410	
14	0	0	0	0	516	409	
15	0	0	0	0	517	410	
0	0	0	0	0	517	409	
1	0	0	0	0	517	409	
2	0	0	0	0	517	409	
3	0	0	0	0	517	409	
4	0	0	0	0	518	409	
5	0	0	0	0	518	409	
6	0	0	0	0	518	409	
7	0	0	0	0	519	410	
8	0	0	0	0	519	409	
9	0	0	0	0	519	409	
10	0	0	0	0	519	409	
11	0	0	0	0	519	409	
12	0	0	0	0	519	409	
13	0	0	0	0	519	409	
14	0	0	0	0	518	410	
15	0	0	0	0	516	411	
0	0	0	0	0	514	409	
1	0	0	0	0	512	409	
2	0	0	0	0	511	409	
3	0	0	0	0	511	409	
4	0	0	0	0	512	409	
5	0	0	0	0	515	410	
6	0	0	0	0	518	409	
7	0	0	0	0	519	410	
8	0	0	0	0	519	409	
9	0	0	0	0	520	409	
10	0	0	0	0	519	409	
11	0	0	0	0	518	409	
12	0	0	0	0	516	410	
13	0	0	0	0	514	410	
14	0	0	0	0	513	409	
15	0	0	0	0	512	411	
0	0	0	0	0	512	410	
1	0	0	0	0	513	409	
2	0	0	0	0	512	409	
3	0	0	0	0	510	409	
4	0	0	0	0	510	409	
5	0	0	0	0	510	410	
6	0	0	0	0	510	409	
7	0	0	0	0	510	410	
8	0	0	0	0	510	409	
9	0	0	0	0	511	409	
10	0	0	0	0	512	409	
11	0	0	0	0	512	409	
12	0	0	0	0	512	409	
13	0	0	0	0	512	410	
14	0	0	0	0	512	409	
15	0	0	0	0	511	411	
0	0	0	0	0	510	410	
1	0	0	0	0	510	410	
2	0	0	0	0	509	410	
3	0	0	0	0	508	409	
4	0	0	0	0	508	410	
5	0	0	0	0	508	410	
6	0	0	0	0	508	409	
7	0	0	0	0	507	410	
8	0	0	0	0	505	409	
9	0	0	0	0	502	410	
10	0	0	0	0	498	409	
11	0	0	0	0	494	410	
12	0	0	0	0	491	410	
13	0	0	0	0	487	409	
14	0	0	0	0	483	410	
15	0	0	0	0	480	410	
0	0	0	0	0	478	410	
1	0	0	0	0	476	409	
2	0	0	0	0	476	409	
3	0	0	0	0	476	409	
4	0	0	0	0	477	409	
5	0	0	0	0	478	409	
6	0	0	0	0	478	410	
7	0	0	0	0	480	411	
8	0	0	0	0	485	410	
9	0	0	0	0	489	410	
10	0	0	0	0	491	410	
11	0	0	0	0	492	411	
12	0	0	0	0	491	410	
13	0	0	0	0	491	410	
14	0	0	0	0	491	410	
15	0	0	0	0	492	411	
0	0	0	0	0	493	410	
1	0	0	0	0	494	409	
2	0	0	0	0	495	410	
3	0	0	0	0	497	410	
4	0	0	0	0	500	409	
5	0	0	0	0	505	410	
6	0	0	0	0	510	409	
7	0	0	0	0	516	411	
8	0	0	0	0	524	410	
9	0	0	0	0	533	409	
10	0	0	0	0	543	409	
11	0	0	0	0	554	409	
12	0	0	0	0	566	410	
13	0	0	0	0	579	409	
14	0	0	0	0	594	409	
15	0	0	0	0	611	411	
0	0	0	0	0	627	409	
1	0	0	0	0	645	409	
2	0	0	0	0	662	409	
3	0	0	0	0	678	409	
4	0	0	0	0	694	409	
5	0	0	0	0	706	409	
6	0	0	0	0	711	409	
7	0	0	0	0	710	409	
8	0	0	0	0	706	409	
9	0	0	0	0	698	409	
10	0	0	0	0	688	410	
11	0	0	0	0	676	409	
12	0	0	0	0	664	410	
13	0	0	0	0	649	409	
14	0	0	0	0	634	410	
15	0	0	0	0	621	410	
0	0	0	0	0	607	409	
1	0	0	0	0	592	409	
2	0	0	0	0	576	410	
3	0	0	0	0	563	409	
4	0	0	0	0	551	409	
5	0	0	0	0	542	410	
6	0	0	0	0	536	410	
7	0	0	0	0	531	411	
8	0	0	0	0	528	409	
9	0	0	0	0	527	410	
10	0	0	0	0	526	410	
11	0	0	0	0	524	409	
12	0	0	0	0	524	410	
13	0	0	0	0	523	410	
14	0	0	0	0	521	410	
15	0	0	0	0	522	410	
0	0	0	0	0	522	409	
1	0	0	0	0	524	409	
2	0	0	0	0	524	409	
3	0	0	0	0	521	409	
4	0	0	0	0	515	410	
5	0	0	0	0	509	410	
6	0	0	0	0	503	410	
7	0	0	0	0	501	411	
8	0	0	0	0	499	410	
9	0	0	0	0	494	408	
10	0	0	0	0	488	409	
11	0	0	0	0	482	409	
12	0	0	0	0	477	409	
13	0	0	0	0	475	409	
14	0	0	0	0	473	410	
15	0	0	0	0	472	411	
0	0	0	0	0	473	409	
1	0	0	0	0	473	410	
2	0	0	0	0	474	410	
3	0	0	0	0	474	409	
4	0	0	0	0	474	410	
5	0	0	0	0	474	409	
6	0	0	0	0	475	410	
7	0	0	0	0	476	410	
8	0	0	0	0	477	409	
9	0	0	0	0	478	409	
10	0	0	0	0	480	410	
11	0	0	0	0	481	409	
12	0	0	0	0	481	409	
13	0	0	0	0	480	410	
14	0	0	0	0	480	410	
15	0	0	0	0	480	410	
0	0	0	0	0	480	409	
1	0	0	0	0	480	410	
2	0	0	0	0	480	410	
3	0	0	0	0	478	410	
4	0	0	0	0	475	410	
5	0	0	0	0	472	409	
6	0	0	0	0	471	409	
7	0	0	0	0	472	410	
8	0	0	0	0	472	409	
9	0	0	0	0	472	410	
10	0	0	0	0	472	410	
11	0	0	0	0	472	410	
12	0	0	0	0	473	410	
13	0	0	0	0	475	410	
14	0	0	0	0	478	410	
15	0	0	0	0	481	411	
0	0	0	0	0	485	410	
1	0	0	0	0	488	410	
2	0	0	0	0	491	410	
3	0	0	0	0	491	409	
4	0	0	0	0	490	410	
5	0	0	0	0	490	409	
6	0	0	0	0	491	409	
7	0	0	0	0	492	410	
8	0	0	0	0	495	409	
9	0	0	0	0	501	409	
10	0	0	0	0	505	409	
11	0	0	0	0	505	409	
12	0	0	0	0	503	409	
13	0	0	0	0	500	409	
14	0	0	0	0	497	409	
15	0	0	0	0	496	410	
0	0	0	0	0	494	410	
1	0	0	0	0	492	410	
2	0	0	0	0	489	409	
3	0	0	0	0	487	409	
4	0	0	0	0	487	409	
5	0	0	0	0	486	409	
6	0	0	0	0	484	409	
7	0	0	0	0	481	409	
8	0	0	0	0	480	409	
9	0	0	0	0	480	409	
10	0	0	0	0	479	409	
11	0	0	0	0	479	409	
12	0	0	0	0	480	409	
13	0	0	0	0	481	409	
14	0	0	0	0	482	409	
15	0	0	0	0	483	410	
0	0	0	0	0	485	409	
1	0	0	0	0	486	409	
2	0	0	0	0	487	410	
3	0	0	0	0	488	409	
4	0	0	0	0	489	409	
5	0	0	0	0	491	410	
6	0	0	0	0	493	409	
7	0	0	0	0	497	410	
8	0	0	0	0	501	409	
9	0	0	0	0	502	409	
10	0	0	0	0	501	409	
11	0	0	0	0	499	409	
12	0	0	0	0	496	410	
13	0	0	0	0	494	410	
14	0	0	0	0	493	410	
15	0	0	0	0	492	410	
0	0	0	0	0	493	410	
1	0	0	0	0	494	409	
2	0	0	0	0	496	409	
3	0	0	0	0	495	410	
4	0	0	0	0	495	411	
5	0	0	0	0	495	411	
6	0	0	0	0	495	410	
7	0	0	0	0	495	411	
8	0	0	0	0	495	410	
9	0	0	0	0	495	410	
10	0	0	0	0	495	410	
11	0	0	0	0	495	409	
12	0	0	0	0	495	410	
13	0	0	0	0	495	411	
14	0	0	0	0	495	410	
15	0	0	0	0	495	411	
0	0	0	0	0	496	410	
1	0	0	0	0	495	410	
2	0	0	0	0	495	409	
3	0	0	0	0	496	409	
4	0	0	0	0	496	410	
5	0	0	0	0	496	411	
6	0	0	0	0	496	410	
7	0	0	0	0	497	410	
8	0	0	0	0	498	410	
9	0	0	0	0	498	410	
10	0	0	0	0	496	409	
11	0	0	0	0	495	409	
12	0	0	0	0	494	410	
13	0	0	0	0	493	410	
14	0	0	0	0	492	409	
15	0	0	0	0	493	411	
0	0	0	0	0	494	410	
1	0	0	0	0	495	409	
2	0	0	0	0	496	409	
3	0	0	0	0	498	409	
4	0	0	0	0	500	409	
5	0	0	0	0	502	409	
6	0	0	0	0	504	410	
7	0	0	0	0	506	411	
8	0	0	0	0	506	409	
9	0	0	0	0	506	410	
10	0	0	0	0	505	409	
11	0	0	0	0	504	409	
12	0	0	0	0	505	410	
13	0	0	0	0	507	409	
14	0	0	0	0	508	410	
15	0	0	0	0	508	410	
0	0	0	0	0	507	410	
1	0	0	0	0	506	409	
2	0	0	0	0	505	409	
3	0	0	0	0	506	409	
4	0	0	0	0	506	409	
5	0	0	0	0	506	409	
6	0	0	0	0	506	409	
7	0	0	0	0	505	409	
8	0	0	0	0	506	409	
9	0	0	0	0	508	409	
10	0	0	0	0	508	409	
11	0	0	0	0	509	409	
12	0	0	0	0	510	409	
13	0	0	0	0	508	409	
14	0	0	0	0	507	409	
15	0	0	0	0	505	410	
0	0	0	0	0	505	410	
1	0	0	0	0	508	409	
2	0	0	0	0	512	409	
3	0	0	0	0	515	409	
4	0	0	0	0	519	409	
5	0	0	0	0	521	409	
6	0	0	0	0	522	410	
7	0	0	0	0	523	411	
8	0	0	0	0	523	410	
9	0	0	0	0	524	410	
10	0	0	0	0	523	409	
11	0	0	0	0	521	409	
12	0	0	0	0	519	410	
13	0	0	0	0	518	411	
14	0	0	0	0	516	410	
15	0	0	0	0	515	411	
0	0	0	0	0	516	410	
1	0	0	0	0	516	410	
2	0	0	0	0	518	410	
3	0	0	0	0	523	409	
4	0	0	0	0	526	409	
5	0	0	0	0	527	409	
6	0	0	0	0	528	409	
7	0	0	0	0	529	411	
8	0	0	0	0	532	409	
9	0	0	0	0	534	410	
10	0	0	0	0	536	409	
11	0	0	0	0	537	409	
12	0	0	0	0	538	409	
13	0	0	0	0	537	409	
14	0	0	0	0	536	409	
15	0	0	0	0	535	410	
0	0	0	0	0	533	409	
1	0	0	0	0	532	409	
2	0	0	0	0	531	410	
3	0	0	0	0	531	409	
4	0	0	0	0	529	409	
5	0	0	0	0	526	409	
6	0	0	0	0	524	409	
7	0	0	0	0	523	410	
8	0	0	0	0	524	410	
9	0	0	0	0	526	410	
10	0	0	0	0	527	409	
11	0	0	0	0	528	409	
12	0	0	0	0	527	410	
13	0	0	0	0	528	410	
14	0	0	0	0	529	410	
15	0	0	0	0	531	410	
0	0	0	0	0	532	410	
1	0	0	0	0	534	409	
2	0	0	0	0	535	409	
3	0	0	0	0	534	409	
4	0	0	0	0	533	409	
5	0	0	0	0	534	409	
6	0	0	0	0	536	409	
7	0	0	0	0	537	411	
8	0	0	0	0	537	409	
9	0	0	0	0	537	409	
10	0	0	0	0	536	409	
11	0	0	0	0	535	409	
12	0	0	0	0	534	409	
13	0	0	0	0	534	410	
14	0	0	0	0	535	410	
15	0	0	0	0	537	411	
0	0	0	0	0	537	410	
1	0	0	0	0	536	410	
2	0	0	0	0	536	411	
3	0	0	0	0	535	410	
4	0	0	0	0	535	410	
5	0	0	0	0	536	410	
6	0	0	0	0	536	411	
7	0	0	0	0	533	411	
8	0	0	0	0	528	409	
9	0	0	0	0	524	410	
10	0	0	0	0	519	410	
11	0	0	0	0	516	409	
12	0	0	0	0	514	410	
13	0	0	0	0	511	410	
14	0	0	0	0	508	410	
15	0	0	0	0	506	411	
0	0	0	0	0	504	410	
1	0	0	0	0	502	410	
2	0	0	0	0	501	410	
3	0	0	0	0	500	409	
4	0	0	0	0	499	409	
5	0	0	0	0	497	410	
6	0	0	0	0	497	409	
7	0	0	0	0	496	410	
8	0	0	0	0	497	410	
9	0	0	0	0	499	409	
10	0	0	0	0	500	409	
11	0	0	0	0	501	409	
12	0	0	0	0	501	410	
13	0	0	0	0	500	409	
14	0	0	0	0	498	409	
15	0	0	0	0	497	411	
0	0	0	0	0	497	410	
1	0	0	0	0	497	409	
2	0	0	0	0	495	409	
3	0	0	0	0	493	409	
4	0	0	0	0	491	409	
5	0	0	0	0	489	410	
6	0	0	0	0	486	409	
7	0	0	0	0	484	409	
8	0	0	0	0	483	409	
9	0	0	0	0	482	410	
10	0	0	0	0	481	409	
11	0	0	0	0	481	409	
12	0	0	0	0	481	409	
13	0	0	0	0	480	409	
14	0	0	0	0	480	409	
15	0	0	0	0	479	410	
0	0	0	0	0	478	409	
1	0	0	0	0	479	410	
2	0	0	0	0	483	409	
3	0	0	0	0	488	409	
4	0	0	0	0	489	409	
5	0	0	0	0	487	409	
6	0	0	0	0	486	409	
7	0	0	0	0	485	410	
8	0	0	0	0	486	409	
9	0	0	0	0	486	409	
10	0	0	0	0	486	409	
11	0	0	0	0	486	410	
12	0	0	0	0	486	410	
13	0	0	0	0	487	410	
14	0	0	0	0	487	410	
15	0	0	0	0	487	410	
0	0	0	0	0	487	409	
1	0	0	0	0	488	409	
2	0	0	0	0	488	410	
3	0	0	0	0	489	410	
4	0	0	0	0	490	410	
5	0	0	0	0	492	410	
6	0	0	0	0	492	410	
7	0	0	0	0	491	411	
8	0	0	0	0	490	410	
9	0	0	0	0	489	410	
10	0	0	0	0	488	409	
11	0	0	0	0	487	410	
12	0	0	0	0	486	411	
13	0	0	0	0	486	410	
14	0	0	0	0	487	410	
15	0	0	0	0	489	411	
0	0	0	0	0	491	409	
1	0	0	0	0	492	410	
2	0	0	0	0	492	409	
3	0	0	0	0	492	409	
4	0	0	0	0	492	409	
5	0	0	0	0	491	410	
6	0	0	0	0	491	409	
7	0	0	0	0	492	410	
8	0	0	0	0	492	410	
9	0	0	0	0	492	409	
10	0	0	0	0	492	409	
11	0	0	0	0	492	409	
12	0	0	0	0	492	409	
13	0	0	0	0	492	409	
14	0	0	0	0	492	410	
15	0	0	0	0	492	410	
0	0	0	0	0	494	409	
1	0	0	0	0	497	410	
2	0	0	0	0	498	410	
3	0	0	0	0	499	409	
4	0	0	0	0	499	410	
5	0	0	0	0	500	410	
6	0	0	0	0	501	410	
7	0	0	0	0	502	410	
8	0	0	0	0	502	409	
9	0	0	0	0	502	409	
10	0	0	0	0	502	409	
11	0	0	0	0	500	409	
12	0	0	0	0	497	410	
13	0	0	0	0	496	410	
14	0	0	0	0	495	409	
15	0	0	0	0	493	411	
0	0	0	0	0	492	409	
1	0	0	0	0	490	409	
2	0	0	0	0	489	409	
3	0	0	0	0	489	409	
4	0	0	0	0	491	410	
5	0	0	0	0	495	409	
6	0	0	0	0	499	409	
7	0	0	0	0	505	410	
8	0	0	0	0	510	410	
9	0	0	0	0	512	409	
10	0	0	0	0	511	409	
11	0	0	0	0	509	410	
12	0	0	0	0	507	410	
13	0	0	0	0	505	410	
14	0	0	0	0	503	410	
15	0	0	0	0	500	410	
0	0	0	0	0	498	410	
1	0	0	0	0	496	410	
2	0	0	0	0	494	410	
3	0	0	0	0	493	409	
4	0	0	0	0	492	409	
5	0	0	0	0	491	409	
6	0	0	0	0	491	409	
7	0	0	0	0	492	409	
8	0	0	0	0	492	409	
9	0	0	0	0	493	409	
10	0	0	0	0	494	409	
11	0	0	0	0	495	408	
12	0	0	0	0	496	409	
13	0	0	0	0	495	409	
14	0	0	0	0	494	408	
15	0	0	0	0	493	409	
0	0	0	0	0	492	409	
1	0	0	0	0	492	410	
2	0	0	0	0	492	409	
3	0	0	0	0	491	409	
4	0	0	0	0	492	409	
5	0	0	0	0	492	409	
6	0	0	0	0	492	409	
7	0	0	0	0	492	410	
8	0	0	0	0	495	409	
9	0	0	0	0	498	409	
10	0	0	0	0	499	410	
11	0	0	0	0	499	409	
12	0	0	0	0	500	410	
13	0	0	0	0	504	410	
14	0	0	0	0	506	411	
15	0	0	0	0	506	411	
0	0	0	0	0	506	411	
1	0	0	0	0	505	411	
2	0	0	0	0	505	410	
3	0	0	0	0	504	410	
4	0	0	0	0	504	410	
5	0	0	0	0	504	410	
6	0	0	0	0	505	410	
7	0	0	0	0	504	410	
8	0	0	0	0	502	410	
9	0	0	0	0	501	410	
10	0	0	0	0	500	411	
11	0	0	0	0	499	409	
12	0	0	0	0	503	410	
13	0	0	0	0	506	410	
14	0	0	0	0	507	409	
15	0	0	0	0	505	411	
0	0	0	0	0	504	410	
1	0	0	0	0	504	410	
2	0	0	0	0	505	410	
3	0	0	0	0	504	409	
4	0	0	0	0	503	410	
5	0	0	0	0	503	410	
6	0	0	0	0	503	410	
7	0	0	0	0	505	411	
8	0	0	0	0	506	409	
9	0	0	0	0	506	410	
10	0	0	0	0	506	409	
11	0	0	0	0	508	409	
12	0	0	0	0	510	410	
13	0	0	0	0	513	410	
14	0	0	0	0	515	409	
15	0	0	0	0	516	410	
0	0	0	0	0	517	409	
1	0	0	0	0	515	410	
2	0	0	0	0	511	409	
3	0	0	0	0	506	409	
4	0	0	0	0	500	409	
5	0	0	0	0	497	410	
6	0	0	0	0	496	409	
7	0	0	0	0	496	410	
8	0	0	0	0	495	409	
9	0	0	0	0	495	410	
10	0	0	0	0	497	410	
11	0	0	0	0	499	409	
12	0	0	0	0	502	409	
13	0	0	0	0	504	409	
14	0	0	0	0	506	409	
15	0	0	0	0	508	410	
0	0	0	0	0	508	409	
1	0	0	0	0	507	409	
2	0	0	0	0	506	409	
3	0	0	0	0	505	408	
4	0	0	0	0	503	409	
5	0	0	0	0	501	409	
6	0	0	0	0	499	409	
7	0	0	0	0	497	410	
8	0	0	0	0	497	409	
9	0	0	0	0	500	409	
10	0	0	0	0	503	409	
11	0	0	0	0	504	409	
12	0	0	0	0	506	409	
13	0	0	0	0	507	409	
14	0	0	0	0	508	410	
15	0	0	0	0	510	411	
0	0	0	0	0	509	410	
1	0	0	0	0	508	410	
2	0	0	0	0	509	409	
3	0	0	0	0	510	409	
4	0	0	0	0	511	410	
5	0	0	0	0	511	409	
6	0	0	0	0	512	409	
7	0	0	0	0	511	411	
8	0	0	0	0	512	409	
9	0	0	0	0	512	410	
10	0	0	0	0	513	409	
11	0	0	0	0	515	410	
12	0	0	0	0	518	410	
13	0	0	0	0	519	410	
14	0	0	0	0	520	410	
15	0	0	0	0	520	410	
0	0	0	0	0	519	410	
1	0	0	0	0	519	410	
2	0	0	0	0	517	409	
3	0	0	0	0	515	409	
4	0	0	0	0	516	409	
5	0	0	0	0	517	409	
6	0	0	0	0	515	410	
7	0	0	0	0	511	410	
8	0	0	0	0	507	409	
9	0	0	0	0	504	409	
10	0	0	0	0	503	409	
11	0	0	0	0	503	409	
12	0	0	0	0	503	410	
13	0	0	0	0	502	409	
14	0	0	0	0	503	409	
15	0	0	0	0	508	410	
0	0	0	0	0	513	409	
1	0	0	0	0	515	410	
2	0	0	0	0	515	410	
3	0	0	0	0	516	409	
4	0	0	0	0	517	410	
5	0	0	0	0	518	409	
6	0	0	0	0	518	409	
7	0	0	0	0	516	410	
8	0	0	0	0	514	409	
9	0	0	0	0	513	410	
10	0	0	0	0	510	409	
11	0	0	0	0	508	409	
12	0	0	0	0	507	409	
13	0	0	0	0	506	410	
14	0	0	0	0	505	409	
15	0	0	0	0	506	410	
0	0	0	0	0	508	410	
1	0	0	0	0	508	409	
2	0	0	0	0	510	409	
3	0	0	0	0	511	409	
4	0	0	0	0	512	409	
5	0	0	0	0	513	409	
6	0	0	0	0	513	409	
7	0	0	0	0	515	409	
8	0	0	0	0	516	409	
9	0	0	0	0	516	410	
10	0	0	0	0	515	409	
11	0	0	0	0	515	409	
12	0	0	0	0	514	409	
13	0	0	0	0	514	410	
14	0	0	0	0	515	410	
15	0	0	0	0	516	410	
0	0	0	0	0	517	410	
1	0	0	0	0	518	411	
2	0	0	0	0	519	410	
3	0	0	0	0	519	409	
4	0	0	0	0	519	410	
5	0	0	0	0	519	410	
6	0	0	0	0	517	410	
7	0	0	0	0	514	411	
8	0	0	0	0	511	410	
9	0	0	0	0	508	411	
10	0	0	0	0	504	409	
11	0	0	0	0	503	409	
12	0	0	0	0	503	409	
13	0	0	0	0	504	409	
14	0	0	0	0	505	410	
15	0	0	0	0	506	410	
0	0	0	0	0	507	409	
1	0	0	0	0	508	409	
2	0	0	0	0	509	410	
3	0	0	0	0	511	409	
4	0	0	0	0	511	410	
5	0	0	0	0	512	410	
6	0	0	0	0	513	409	
7	0	0	0	0	513	411	
8	0	0	0	0	514	409	
9	0	0	0	0	515	409	
10	0	0	0	0	515	409	
11	0	0	0	0	515	409	
12	0	0	0	0	514	409	
13	0	0	0	0	514	410	
14	0	0	0	0	514	409	
15	0	0	0	0	514	411	
0	0	0	0	0	515	410	
1	0	0	0	0	517	410	
2	0	0	0	0	518	409	
3	0	0	0	0	518	409	
4	0	0	0	0	516	410	
5	0	0	0	0	514	409	
6	0	0	0	0	513	410	
7	0	0	0	0	512	410	
8	0	0	0	0	512	409	
9	0	0	0	0	513	408	
10	0	0	0	0	513	409	
11	0	0	0	0	513	408	
12	0	0	0	0	513	409	
13	0	0	0	0	512	409	
14	0	0	0	0	512	409	
15	0	0	0	0	512	410	
0	0	0	0	0	513	409	
1	0	0	0	0	516	409	
2	0	0	0	0	517	409	
3	0	0	0	0	516	409	
4	0	0	0	0	515	409	
5	0	0	0	0	515	410	
6	0	0	0	0	515	409	
7	0	0	0	0	515	410	
8	0	0	0	0	515	410	
9	0	0	0	0	514	409	
10	0	0	0	0	515	409	
11	0	0	0	0	515	409	
12	0	0	0	0	516	410	
13	0	0	0	0	516	410	
14	0	0	0	0	515	409	
15	0	0	0	0	515	409	
0	0	0	0	0	514	409	
1	0	0	0	0	513	409	
2	0	0	0	0	511	409	
3	0	0	0	0	512	409	
4	0	0	0	0	516	409	
5	0	0	0	0	519	409	
6	0	0	0	0	522	409	
7	0	0	0	0	521	409	
8	0	0	0	0	518	410	
9	0	0	0	0	518	409	
10	0	0	0	0	519	410	
11	0	0	0	0	519	409	
12	0	0	0	0	517	410	
13	0	0	0	0	513	409	
14	0	0	0	0	511	409	
15	0	0	0	0	510	410	
0	0	0	0	0	508	409	
1	0	0	0	0	509	409	
2	0	0	0	0	510	410	
3	0	0	0	0	510	409	
4	0	0	0	0	509	409	
5	0	0	0	0	509	409	
6	0	0	0	0	510	409	
7	0	0	0	0	511	411	
8	0	0	0	0	512	409	
9	0	0	0	0	515	410	
10	0	0	0	0	516	409	
11	0	0	0	0	518	410	
12	0	0	0	0	519	410	
13	0	0	0	0	516	410	
14	0	0	0	0	513	410	
15	0	0	0	0	512	411	
0	0	0	0	0	509	410	
1	0	0	0	0	507	409	
2	0	0	0	0	504	409	
3	0	0	0	0	504	409	
4	0	0	0	0	504	410	
5	0	0	0	0	504	409	
6	0	0	0	0	504	410	
7	0	0	0	0	504	410	
8	0	0	0	0	505	410	
9	0	0	0	0	505	410	
10	0	0	0	0	507	409	
11	0	0	0	0	507	409	
12	0	0	0	0	508	409	
13	0	0	0	0	508	409	
14	0	0	0	0	508	409	
15	0	0	0	0	508	410	
0	0	0	0	0	509	410	
1	0	0	0	0	510	410	
2	0	0	0	0	510	410	
3	0	0	0	0	511	409	
4	0	0	0	0	512	409	
5	0	0	0	0	512	409	
6	0	0	0	0	514	410	
7	0	0	0	0	518	411	
8	0	0	0	0	519	410	
9	0	0	0	0	520	409	
10	0	0	0	0	522	410	
11	0	0	0	0	522	409	
12	0	0	0	0	522	410	
13	0	0	0	0	521	409	
14	0	0	0	0	520	410	
15	0	0	0	0	520	411	
0	0	0	0	0	521	410	
1	0	0	0	0	523	410	
2	0	0	0	0	522	410	
3	0	0	0	0	521	410	
4	0	0	0	0	519	410	
5	0	0	0	0	518	411	
6	0	0	0	0	516	410	
7	0	0	0	0	515	411	
8	0	0	0	0	514	409	
9	0	0	0	0	514	410	
10	0	0	0	0	514	409	
11	0	0	0	0	515	409	
12	0	0	0	0	515	409	
13	0	0	0	0	515	409	
14	0	0	0	0	514	409	
15	0	0	0	0	513	410	
0	0	0	0	0	512	409	
1	0	0	0	0	512	410	
2	0	0	0	0	513	410	
3	0	0	0	0	515	409	
4	0	0	0	0	516	409	
5	0	0	0	0	515	410	
6	0	0	0	0	514	410	
7	0	0	0	0	512	410	
8	0	0	0	0	511	410	
9	0	0	0	0	509	410	
10	0	0	0	0	508	410	
11	0	0	0	0	510	409	
12	0	0	0	0	510	410	
13	0	0	0	0	509	410	
14	0	0	0	0	509	409	
15	0	0	0	0	510	410	
0	0	0	0	0	511	409	
1	0	0	0	0	510	410	
2	0	0	0	0	506	410	
3	0	0	0	0	504	409	
4	0	0	0	0	502	409	
5	0	0	0	0	501	410	
6	0	0	0	0	501	410	
7	0	0	0	0	503	410	
8	0	0	0	0	504	409	
9	0	0	0	0	506	409	
10	0	0	0	0	508	410	
11	0	0	0	0	511	410	
12	0	0	0	0	512	410	
13	0	0	0	0	513	410	
14	0	0	0	0	512	410	
15	0	0	0	0	510	410	
0	0	0	0	0	508	409	
1	0	0	0	0	507	410	
2	0	0	0	0	508	410	
3	0	0	0	0	511	409	
4	0	0	0	0	513	409	
5	0	0	0	0	512	410	
6	0	0	0	0	509	410	
7	0	0	0	0	504	410	
8	0	0	0	0	501	410	
9	0	0	0	0	499	410	
10	0	0	0	0	496	409	
11	0	0	0	0	495	410	
12	0	0	0	0	494	409	
13	0	0	0	0	494	409	
14	0	0	0	0	496	409	
15	0	0	0	0	496	410	
0	0	0	0	0	499	409	
1	0	0	0	0	500	409	
2	0	0	0	0	499	409	
3	0	0	0	0	497	409	
4	0	0	0	0	496	409	
5	0	0	0	0	495	409	
6	0	0	0	0	496	409	
7	0	0	0	0	499	411	
8	0	0	0	0	500	409	
9	0	0	0	0	498	409	
10	0	0	0	0	495	410	
11	0	0	0	0	492	410	
12	0	0	0	0	489	410	
13	0	0	0	0	487	410	
14	0	0	0	0	486	409	
15	0	0	0	0	484	411	
0	0	0	0	0	482	409	
1	0	0	0	0	480	410	
2	0	0	0	0	478	410	
3	0	0	0	0	477	410	
4	0	0	0	0	476	410	
5	0	0	0	0	476	410	
6	0	0	0	0	477	410	
7	0	0	0	0	478	410	
8	0	0	0	0	478	410	
9	0	0	0	0	476	409	
10	0	0	0	0	475	410	
11	0	0	0	0	475	409	
12	0	0	0	0	476	409	
13	0	0	0	0	476	411	
14	0	0	0	0	478	410	
15	0	0	0	0	479	410	
0	0	0	0	0	480	411	
1	0	0	0	0	481	410	
2	0	0	0	0	481	410	
3	0	0	0	0	482	410	
4	0	0	0	0	483	410	
5	0	0	0	0	483	411	
6	0	0	0	0	484	410	
7	0	0	0	0	487	411	
8	0	0	0	0	491	410	
9	0	0	0	0	497	410	
10	0	0	0	0	504	409	
11	0	0	0	0	511	409	
12	0	0	0	0	519	410	
13	0	0	0	0	530	409	
14	0	0	0	0	543	410	
15	0	0	0	0	557	410	
0	0	0	0	0	571	409	
1	0	0	0	0	585	409	
2	0	0	0	0	601	409	
3	0	0	0	0	617	409	
4	0	0	0	0	632	410	
5	0	0	0	0	648	410	
6	0	0	0	0	664	409	
7	0	0	0	0	677	411	
8	0	0	0	0	690	410	
9	0	0	0	0	702	410	
10	0	0	0	0	710	409	
11	0	0	0	0	713	409	
12	0	0	0	0	713	410	
13	0	0	0	0	710	409	
14	0	0	0	0	705	410	
15	0	0	0	0	697	411	
0	0	0	0	0	688	410	
1	0	0	0	0	676	409	
2	0	0	0	0	659	409	
3	0	0	0	0	639	409	
4	0	0	0	0	619	410	
5	0	0	0	0	599	410	
6	0	0	0	0	580	410	
7	0	0	0	0	565	411	
8	0	0	0	0	550	410	
9	0	0	0	0	535	410	
10	0	0	0	0	523	410	
11	0	0	0	0	515	409	
12	0	0	0	0	511	409	
13	0	0	0	0	510	410	
14	0	0	0	0	512	409	
15	0	0	0	0	514	411	
0	0	0	0	0	514	410	
1	0	0	0	0	514	409	
2	0	0	0	0	513	409	
3	0	0	0	0	511	409	
4	0	0	0	0	508	410	
5	0	0	0	0	504	409	
6	0	0	0	0	500	409	
7	0	0	0	0	495	410	
8	0	0	0	0	492	410	
9	0	0	0	0	490	409	
10	0	0	0	0	488	409	
11	0	0	0	0	487	409	
12	0	0	0	0	484	409	
13	0	0	0	0	482	409	
14	0	0	0	0	480	410	
15	0	0	0	0	477	410	
0	0	0	0	0	477	410	
1	0	0	0	0	480	410	
2	0	0	0	0	485	410	
3	0	0	0	0	488	410	
4	0	0	0	0	488	410	
5	0	0	0	0	487	410	
6	0	0	0	0	484	410	
7	0	0	0	0	482	411	
8	0	0	0	0	481	411	
9	0	0	0	0	479	410	
10	0	0	0	0	479	410	
11	0	0	0	0	477	409	
12	0	0	0	0	477	409	
13	0	0	0	0	477	410	
14	0	0	0	0	478	409	
15	0	0	0	0	478	410	
0	0	0	0	0	477	409	
1	0	0	0	0	474	409	
2	0	0	0	0	472	409	
3	0	0	0	0	470	410	
4	0	0	0	0	469	410	
5	0	0	0	0	468	410	
6	0	0	0	0	467	409	
7	0	0	0	0	467	411	
8	0	0	0	0	468	410	
9	0	0	0	0	468	409	
10	0	0	0	0	469	410	
11	0	0	0	0	469	410	
12	0	0	0	0	469	410	
13	0	0	0	0	469	410	
14	0	0	0	0	470	410	
15	0	0	0	0	471	411	
0	0	0	0	0	472	410	
1	0	0	0	0	474	410	
2	0	0	0	0	475	410	
3	0	0	0	0	474	409	
4	0	0	0	0	473	410	
5	0	0	0	0	473	410	
6	0	0	0	0	474	410	
7	0	0	0	0	475	410	
8	0	0	0	0	475	409	
9	0	0	0	0	475	410	
10	0	0	0	0	476	409	
11	0	0	0	0	476	409	
12	0	0	0	0	476	409	
13	0	0	0	0	476	410	
14	0	0	0	0	476	410	
15	0	0	0	0	476	410	
0	0	0	0	0	475	409	
1	0	0	0	0	474	409	
2	0	0	0	0	474	410	
3	0	0	0	0	475	410	
4	0	0	0	0	474	410	
5	0	0	0	0	473	410	
6	0	0	0	0	474	409	
7	0	0	0	0	476	410	
8	0	0	0	0	478	410	
9	0	0	0	0	480	410	
10	0	0	0	0	480	411	
11	0	0	0	0	480	410	
12	0	0	0	0	480	409	
13	0	0	0	0	481	410	
14	0	0	0	0	480	410	
15	0	0	0	0	480	411	
0	0	0	0	0	480	409	
1	0	0	0	0	479	410	
2	0	0	0	0	480	410	
3	0	0	0	0	480	409	
4	0	0	0	0	481	409	
5	0	0	0	0	481	409	
6	0	0	0	0	482	410	
7	0	0	0	0	482	410	
8	0	0	0	0	482	409	
9	0	0	0	0	483	410	
10	0	0	0	0	483	409	
11	0	0	0	0	487	409	
12	0	0	0	0	490	410	
13	0	0	0	0	491	410	
14	0	0	0	0	491	410	
15	0	0	0	0	492	411	
0	0	0	0	0	493	410	
1	0	0	0	0	495	409	
2	0	0	0	0	496	410	
3	0	0	0	0	498	410	
4	0	0	0	0	499	410	
5	0	0	0	0	502	409	
6	0	0	0	0	506	409	
7	0	0	0	0	508	411	
8	0	0	0	0	507	410	
9	0	0	0	0	504	410	
10	0	0	0	0	502	410	
11	0	0	0	0	498	409	
12	0	0	0	0	494	410	
13	0	0	0	0	491	410	
14	0	0	0	0	487	409	
15	0	0	0	0	483	411	
0	0	0	0	0	480	410	
1	0	0	0	0	480	409	
2	0	0	0	0	481	409	
3	0	0	0	0	483	408	
4	0	0	0	0	486	409	
5	0	0	0	0	488	409	
6	0	0	0	0	490	409	
7	0	0	0	0	491	410	
8	0	0	0	0	491	409	
9	0	0	0	0	493	409	
10	0	0	0	0	495	409	
11	0	0	0	0	497	409	
12	0	0	0	0	498	409	
13	0	0	0	0	499	409	
14	0	0	0	0	498	409	
15	0	0	0	0	498	411	
0	0	0	0	0	499	409	
1	0	0	0	0	499	409	
2	0	0	0	0	500	409	
3	0	0	0	0	500	408	
4	0	0	0	0	500	409	
5	0	0	0	0	500	408	
6	0	0	0	0	500	409	
7	0	0	0	0	502	411	
8	0	0	0	0	504	410	
9	0	0	0	0	505	410	
10	0	0	0	0	507	410	
11	0	0	0	0	508	409	
12	0	0	0	0	508	410	
13	0	0	0	0	508	410	
14	0	0	0	0	509	409	
15	0	0	0	0	514	411	
0	0	0	0	0	520	409	
1	0	0	0	0	524	409	
2	0	0	0	0	525	410	
3	0	0	0	0	524	408	
4	0	0	0	0	523	409	
5	0	0	0	0	522	409	
6	0	0	0	0	521	409	
7	0	0	0	0	520	410	
8	0	0	0	0	519	409	
9	0	0	0	0	517	409	
10	0	0	0	0	516	409	
11	0	0	0	0	516	409	
12	0	0	0	0	518	410	
13	0	0	0	0	519	409	
14	0	0	0	0	521	410	
15	0	0	0	0	521	411	
0	0	0	0	0	523	410	
1	0	0	0	0	523	410	
2	0	0	0	0	524	410	
3	0	0	0	0	523	409	
4	0	0	0	0	523	410	
5	0	0	0	0	524	409	
6	0	0	0	0	525	410	
7	0	0	0	0	526	411	
8	0	0	0	0	527	411	
9	0	0	0	0	527	410	
10	0	0	0	0	528	410	
11	0	0	0	0	528	410	
12	0	0	0	0	527	410	
13	0	0	0	0	526	410	
14	0	0	0	0	524	409	
15	0	0	0	0	523	411	
0	0	0	0	0	523	410	
1	0	0	0	0	523	410	
2	0	0	0	0	522	409	
3	0	0	0	0	520	409	
4	0	0	0	0	518	409	
5	0	0	0	0	517	409	
6	0	0	0	0	518	410	
7	0	0	0	0	520	410	
8	0	0	0	0	523	409	
9	0	0	0	0	526	409	
10	0	0	0	0	527	409	
11	0	0	0	0	527	409	
12	0	0	0	0	527	410	
13	0	0	0	0	529	409	
14	0	0	0	0	531	410	
15	0	0	0	0	534	410	
0	0	0	0	0	538	409	
1	0	0	0	0	542	409	
2	0	0	0	0	544	409	
3	0	0	0	0	544	410	
4	0	0	0	0	544	410	
5	0	0	0	0	544	409	
6	0	0	0	0	545	409	
7	0	0	0	0	546	410	
8	0	0	0	0	547	409	
9	0	0	0	0	549	409	
10	0	0	0	0	550	410	
11	0	0	0	0	551	410	
12	0	0	0	0	555	409	
13	0	0	0	0	558	409	
14	0	0	0	0	560	409	
15	0	0	0	0	560	409	
0	0	0	0	0	559	409	
1	0	0	0	0	558	409	
2	0	0	0	0	555	409	
3	0	0	0	0	552	409	
4	0	0	0	0	549	409	
5	0	0	0	0	545	409	
6	0	0	0	0	542	410	
7	0	0	0	0	540	411	
8	0	0	0	0	540	410	
9	0	0	0	0	540	410	
10	0	0	0	0	540	409	
11	0	0	0	0	543	409	
12	0	0	0	0	544	410	
13	0	0	0	0	545	410	
14	0	0	0	0	546	410	
15	0	0	0	0	548	411	
0	0	0	0	0	550	410	
1	0	0	0	0	551	409	
2	0	0	0	0	550	410	
3	0	0	0	0	550	409	
4	0	0	0	0	550	410	
5	0	0	0	0	551	410	
6	0	0	0	0	550	410	
7	0	0	0	0	549	411	
8	0	0	0	0	550	410	
9	0	0	0	0	552	409	
10	0	0	0	0	551	409	
11	0	0	0	0	547	409	
12	0	0	0	0	541	409	
13	0	0	0	0	536	409	
14	0	0	0	0	532	410	
15	0	0	0	0	528	410	
0	0	0	0	0	524	409	
1	0	0	0	0	522	410	
2	0	0	0	0	520	410	
3	0	0	0	0	519	410	
4	0	0	0	0	518	409	
5	0	0	0	0	515	411	
6	0	0	0	0	513	410	
7	0	0	0	0	512	410	
8	0	0	0	0	510	410	
9	0	0	0	0	508	409	
10	0	0	0	0	507	410	
11	0	0	0	0	506	409	
12	0	0	0	0	508	410	
13	0	0	0	0	510	409	
14	0	0	0	0	511	409	
15	0	0	0	0	510	410	
0	0	0	0	0	505	410	
1	0	0	0	0	499	409	
2	0	0	0	0	495	409	
3	0	0	0	0	492	409	
4	0	0	0	0	492	409	
5	0	0	0	0	491	409	
6	0	0	0	0	491	410	
7	0	0	0	0	492	410	
8	0	0	0	0	492	409	
9	0	0	0	0	492	409	
10	0	0	0	0	491	409	
11	0	0	0	0	490	409	
12	0	0	0	0	490	410	
13	0	0	0	0	490	409	
14	0	0	0	0	490	410	
15	0	0	0	0	488	411	
0	0	0	0	0	486	409	
1	0	0	0	0	484	409	
2	0	0	0	0	481	409	
3	0	0	0	0	479	410	
4	0	0	0	0	477	409	
5	0	0	0	0	478	409	
6	0	0	0	0	479	410	
7	0	0	0	0	481	410	
8	0	0	0	0	481	409	
9	0	0	0	0	481	409	
10	0	0	0	0	482	409	
11	0	0	0	0	482	409	
12	0	0	0	0	482	409	
13	0	0	0	0	482	409	
14	0	0	0	0	482	410	
15	0	0	0	0	482	410	
0	0	0	0	0	482	409	
1	0	0	0	0	482	409	
2	0	0	0	0	483	410	
3	0	0	0	0	487	409	
4	0	0	0	0	489	410	
5	0	0	0	0	490	410	
6	0	0	0	0	490	410	
7	0	0	0	0	491	410	
8	0	0	0	0	492	410	
9	0	0	0	0	493	409	
10	0	0	0	0	493	410	
11	0	0	0	0	492	410	
12	0	0	0	0	490	409	
13	0	0	0	0	488	410	
14	0	0	0	0	487	409	
15	0	0	0	0	486	411	
0	0	0	0	0	485	410	
1	0	0	0	0	484	410	
2	0	0	0	0	484	410	
3	0	0	0	0	484	410	
4	0	0	0	0	485	410	
5	0	0	0	0	487	411	
6	0	0	0	0	489	410	
7	0	0	0	0	491	410	
8	0	0	0	0	493	410	
9	0	0	0	0	494	410	
10	0	0	0	0	494	410	
11	0	0	0	0	494	409	
12	0	0	0	0	494	409	
13	0	0	0	0	495	410	
14	0	0	0	0	495	410	
15	0	0	0	0	496	410	
0	0	0	0	0	498	410	
1	0	0	0	0	498	410	
2	0	0	0	0	498	409	
3	0	0	0	0	497	408	
4	0	0	0	0	497	409	
5	0	0	0	0	497	409	
6	0	0	0	0	497	409	
7	0	0	0	0	497	410	
8	0	0	0	0	498	409	
9	0	0	0	0	499	409	
10	0	0	0	0	503	409	
11	0	0	0	0	507	409	
12	0	0	0	0	508	409	
13	0	0	0	0	508	409	
14	0	0	0	0	504	409	
15	0	0	0	0	501	410	
0	0	0	0	0	502	408	
1	0	0	0	0	505	409	
2	0	0	0	0	509	408	
3	0	0	0	0	509	408	
4	0	0	0	0	508	409	
5	0	0	0	0	506	408	
6	0	0	0	0	505	409	
7	0	0	0	0	504	410	
8	0	0	0	0	503	409	
9	0	0	0	0	502	409	
10	0	0	0	0	502	409	
11	0	0	0	0	502	409	
12	0	0	0	0	502	409	
13	0	0	0	0	502	410	
14	0	0	0	0	502	409	
15	0	0	0	0	502	410	
0	0	0	0	0	503	410	
1	0	0	0	0	504	410	
2	0	0	0	0	503	409	
3	0	0	0	0	504	410	
4	0	0	0	0	505	410	
5	0	0	0	0	505	410	
6	0	0	0	0	507	409	
7	0	0	0	0	508	410	
8	0	0	0	0	508	410	
9	0	0	0	0	506	410	
10	0	0	0	0	504	410	
11	0	0	0	0	503	410	
12	0	0	0	0	502	410	
13	0	0	0	0	500	411	
14	0	0	0	0	499	411	
15	0	0	0	0	499	411	
0	0	0	0	0	500	410	
1	0	0	0	0	503	410	
2	0	0	0	0	504	409	
3	0	0	0	0	504	410	
4	0	0	0	0	503	411	
5	0	0	0	0	503	411	
6	0	0	0	0	504	411	
7	0	0	0	0	505	411	
8	0	0	0	0	507	410	
9	0	0	0	0	509	410	
10	0	0	0	0	510	409	
11	0	0	0	0	509	409	
12	0	0	0	0	508	409	
13	0	0	0	0	506	409	
14	0	0	0	0	504	410	
15	0	0	0	0	503	411	
0	0	0	0	0	502	410	
1	0	0	0	0	502	410	
2	0	0	0	0	502	410	
3	0	0	0	0	502	409	
4	0	0	0	0	501	410	
5	0	0	0	0	500	410	
6	0	0	0	0	501	410	
7	0	0	0	0	502	411	
8	0	0	0	0	503	409	
9	0	0	0	0	503	410	
10	0	0	0	0	504	409	
11	0	0	0	0	505	409	
12	0	0	0	0	507	409	
13	0	0	0	0	510	410	
14	0	0	0	0	512	409	
15	0	0	0	0	512	410	
0	0	0	0	0	512	409	
1	0	0	0	0	512	409	
2	0	0	0	0	515	409	
3	0	0	0	0	516	409	
4	0	0	0	0	515	409	
5	0	0	0	0	512	409	
6	0	0	0	0	510	410	
7	0	0	0	0	510	410	
8	0	0	0	0	510	409	
9	0	0	0	0	511	410	
10	0	0	0	0	510	410	
11	0	0	0	0	510	410	
12	0	0	0	0	511	410	
13	0	0	0	0	513	411	
14	0	0	0	0	514	410	
15	0	0	0	0	514	411	
0	0	0	0	0	514	410	
1	0	0	0	0	512	409	
2	0	0	0	0	509	409	
3	0	0	0	0	505	409	
4	0	0	0	0	500	409	
5	0	0	0	0	498	409	
6	0	0	0	0	498	410	
7	0	0	0	0	497	410	
8	0	0	0	0	499	409	
9	0	0	0	0	501	409	
10	0	0	0	0	504	410	
11	0	0	0	0	505	408	
12	0	0	0	0	505	409	
13	0	0	0	0	505	409	
14	0	0	0	0	505	409	
15	0	0	0	0	504	410	
0	0	0	0	0	504	409	
1	0	0	0	0	504	409	
2	0	0	0	0	503	409	
3	0	0	0	0	503	408	
4	0	0	0	0	503	409	
5	0	0	0	0	503	409	
6	0	0	0	0	503	409	
7	0	0	0	0	504	409	
8	0	0	0	0	504	409	
9	0	0	0	0	505	409	
10	0	0	0	0	505	409	
11	0	0	0	0	506	409	
12	0	0	0	0	506	409	
13	0	0	0	0	507	410	
14	0	0	0	0	507	409	
15	0	0	0	0	508	410	
0	0	0	0	0	510	409	
1	0	0	0	0	511	410	
2	0	0	0	0	511	411	
3	0	0	0	0	512	409	
4	0	0	0	0	513	410	
5	0	0	0	0	513	409	
6	0	0	0	0	513	410	
7	0	0	0	0	513	410	
8	0	0	0	0	513	409	
9	0	0	0	0	512	409	
10	0	0	0	0	511	410	
11	0	0	0	0	511	409	
12	0	0	0	0	511	409	
13	0	0	0	0	512	410	
14	0	0	0	0	514	410	
15	0	0	0	0	514	410	
0	0	0	0	0	513	409	
1	0	0	0	0	513	410	
2	0	0	0	0	514	410	
3	0	0	0	0	513	410	
4	0	0	0	0	512	410	
5	0	0	0	0	512	410	
6	0	0	0	0	512	410	
7	0	0	0	0	511	411	
8	0	0	0	0	511	410	
9	0	0	0	0	512	410	
10	0	0	0	0	513	409	
11	0	0	0	0	513	409	
12	0	0	0	0	515	409	
13	0	0	0	0	515	410	
14	0	0	0	0	514	410	
15	0	0	0	0	513	411	
0	0	0	0	0	512	410	
1	0	0	0	0	511	410	
2	0	0	0	0	511	410	
3	0	0	0	0	511	409	
4	0	0	0	0	511	410	
5	0	0	0	0	509	409	
6	0	0	0	0	509	409	
7	0	0	0	0	509	411	
8	0	0	0	0	508	409	
9	0	0	0	0	509	409	
10	0	0	0	0	509	410	
11	0	0	0	0	511	409	
12	0	0	0	0	512	409	
13	0	0	0	0	513	409	
14	0	0	0	0	514	409	
15	0	0	0	0	515	410	
0	0	0	0	0	516	410	
1	0	0	0	0	516	410	
2	0	0	0	0	517	410	
3	0	0	0	0	517	409	
4	0	0	0	0	516	409	
5	0	0	0	0	515	409	
6	0	0	0	0	514	409	
7	0	0	0	0	513	410	
8	0	0	0	0	514	410	
9	0	0	0	0	514	409	
10	0	0	0	0	512	409	
11	0	0	0	0	508	409	
12	0	0	0	0	506	409	
13	0	0	0	0	504	409	
14	0	0	0	0	506	409	
15	0	0	0	0	508	410	
0	0	0	0	0	509	409	
1	0	0	0	0	509	409	
2	0	0	0	0	507	409	
3	0	0	0	0	508	409	
4	0	0	0	0	510	410	
5	0	0	0	0	512	409	
6	0	0	0	0	512	410	
7	0	0	0	0	511	410	
8	0	0	0	0	509	409	
9	0	0	0	0	507	410	
10	0	0	0	0	505	410	
11	0	0	0	0	506	409	
12	0	0	0	0	507	410	
13	0	0	0	0	507	410	
14	0	0	0	0	506	410	
15	0	0	0	0	505	411	
0	0	0	0	0	505	410	
1	0	0	0	0	506	411	
2	0	0	0	0	507	409	
3	0	0	0	0	508	409	
4	0	0	0	0	508	410	
5	0	0	0	0	506	409	
6	0	0	0	0	505	410	
7	0	0	0	0	504	410	
8	0	0	0	0	503	409	
9	0	0	0	0	502	409	
10	0	0	0	0	503	409	
11	0	0	0	0	506	410	
12	0	0	0	0	510	410	
13	0	0	0	0	512	410	
14	0	0	0	0	511	410	
15	0	0	0	0	510	411	
0	0	0	0	0	508	410	
1	0	0	0	0	508	410	
2	0	0	0	0	508	410	
3	0	0	0	0	509	410	
4	0	0	0	0	510	409	
5	0	0	0	0	510	410	
6	0	0	0	0	510	409	
7	0	0	0	0	509	411	
8	0	0	0	0	509	409	
9	0	0	0	0	509	409	
10	0	0	0	0	508	409	
11	0	0	0	0	508	408	
12	0	0	0	0	508	409	
13	0	0	0	0	508	409	
14	0	0	0	0	507	409	
15	0	0	0	0	507	411	
0	0	0	0	0	507	409	
1	0	0	0	0	507	409	
2	0	0	0	0	507	410	
3	0	0	0	0	507	408	
4	0	0	0	0	508	409	
5	0	0	0	0	507	409	
6	0	0	0	0	508	409	
7	0	0	0	0	509	410	
8	0	0	0	0	510	409	
9	0	0	0	0	510	410	
10	0	0	0	0	508	409	
11	0	0	0	0	508	409	
12	0	0	0	0	510	410	
13	0	0	0	0	509	409	
14	0	0	0	0	506	409	
15	0	0	0	0	503	411	
0	0	0	0	0	500	409	
1	0	0	0	0	499	410	
2	0	0	0	0	498	411	
3	0	0	0	0	498	409	
4	0	0	0	0	498	410	
5	0	0	0	0	498	410	
6	0	0	0	0	499	409	
7	0	0	0	0	500	410	
8	0	0	0	0	502	409	
9	0	0	0	0	505	409	
10	0	0	0	0	508	409	
11	0	0	0	0	507	409	
12	0	0	0	0	506	410	
13	0	0	0	0	506	410	
14	0	0	0	0	506	410	
15	0	0	0	0	506	410	
0	0	0	0	0	505	410	
1	0	0	0	0	505	409	
2	0	0	0	0	504	410	
3	0	0	0	0	503	409	
4	0	0	0	0	503	409	
5	0	0	0	0	503	410	
6	0	0	0	0	504	410	
7	0	0	0	0	504	411	
8	0	0	0	0	504	410	
9	0	0	0	0	504	410	
10	0	0	0	0	504	410	
11	0	0	0	0	504	410	
12	0	0	0	0	505	410	
13	0	0	0	0	506	410	
14	0	0	0	0	507	410	
15	0	0	0	0	508	411	
0	0	0	0	0	509	410	
1	0	0	0	0	510	410	
2	0	0	0	0	510	410	
3	0	0	0	0	509	409	
4	0	0	0	0	509	409	
5	0	0	0	0	508	409	
6	0	0	0	0	508	409	
7	0	0	0	0	508	411	
8	0	0	0	0	507	409	
9	0	0	0	0	507	411	
10	0	0	0	0	505	410	
11	0	0	0	0	506	410	
12	0	0	0	0	506	410	
13	0	0	0	0	504	409	
14	0	0	0	0	503	409	
15	0	0	0	0	500	411	
0	0	0	0	0	499	409	
1	0	0	0	0	498	409	
2	0	0	0	0	498	410	
3	0	0	0	0	499	409	
4	0	0	0	0	499	410	
5	0	0	0	0	500	409	
6	0	0	0	0	500	410	
7	0	0	0	0	500	410	
8	0	0	0	0	502	409	
9	0	0	0	0	502	410	
10	0	0	0	0	501	409	
11	0	0	0	0	502	409	
12	0	0	0	0	504	410	
13	0	0	0	0	504	410	
14	0	0	0	0	504	410	
15	0	0	0	0	504	411	
0	0	0	0	0	504	409	
1	0	0	0	0	504	409	
2	0	0	0	0	506	410	
3	0	0	0	0	507	410	
4	0	0	0	0	508	409	
5	0	0	0	0	511	409	
6	0	0	0	0	512	410	
7	0	0	0	0	512	410	
8	0	0	0	0	513	410	
9	0	0	0	0	514	409	
10	0	0	0	0	515	410	
11	0	0	0	0	517	409	
12	0	0	0	0	521	410	
13	0	0	0	0	525	409	
14	0	0	0	0	527	410	
15	0	0	0	0	526	411	
0	0	0	0	0	526	409	
1	0	0	0	0	526	410	
2	0	0	0	0	525	410	
3	0	0	0	0	524	409	
4	0	0	0	0	522	410	
5	0	0	0	0	520	409	
6	0	0	0	0	519	409	
7	0	0	0	0	523	410	
8	0	0	0	0	524	409	
9	0	0	0	0	525	409	
10	0	0	0	0	524	410	
11	0	0	0	0	522	409	
12	0	0	0	0	520	410	
13	0	0	0	0	519	410	
14	0	0	0	0	519	409	
15	0	0	0	0	519	410	
0	0	0	0	0	518	410	
1	0	0	0	0	517	409	
2	0	0	0	0	517	409	
3	0	0	0	0	517	409	
4	0	0	0	0	516	410	
5	0	0	0	0	515	409	
6	0	0	0	0	512	410	
7	0	0	0	0	510	411	
8	0	0	0	0	506	410	
9	0	0	0	0	503	409	
10	0	0	0	0	501	410	
11	0	0	0	0	500	409	
12	0	0	0	0	502	409	
13	0	0	0	0	504	409	
14	0	0	0	0	505	409	
15	0	0	0	0	507	411	
0	0	0	0	0	508	410	
1	0	0	0	0	508	410	
2	0	0	0	0	508	410	
3	0	0	0	0	508	410	
4	0	0	0	0	510	411	
5	0	0	0	0	510	410	
6	0	0	0	0	510	410	
7	0	0	0	0	510	411	
8	0	0	0	0	510	411	
9	0	0	0	0	511	410	
10	0	0	0	0	510	410	
11	0	0	0	0	510	409	
12	0	0	0	0	509	410	
13	0	0	0	0	509	409	
14	0	0	0	0	509	410	
15	0	0	0	0	508	411	
0	0	0	0	0	508	410	
1	0	0	0	0	508	409	
2	0	0	0	0	510	409	
3	0	0	0	0	512	409	
4	0	0	0	0	513	410	
5	0	0	0	0	513	410	
6	0	0	0	0	513	410	
7	0	0	0	0	513	411	
8	0	0	0	0	513	410	
9	0	0	0	0	514	410	
10	0	0	0	0	514	410	
11	0	0	0	0	513	409	
12	0	0	0	0	513	410	
13	0	0	0	0	514	410	
14	0	0	0	0	514	410	
15	0	0	0	0	513	410	
0	0	0	0	0	513	410	
1	0	0	0	0	512	410	
2	0	0	0	0	512	409	
3	0	0	0	0	514	409	
4	0	0	0	0	515	409	
5	0	0	0	0	516	409	
6	0	0	0	0	518	410	
7	0	0	0	0	520	411	
8	0	0	0	0	522	410	
9	0	0	0	0	521	409	
10	0	0	0	0	521	409	
11	0	0	0	0	520	409	
12	0	0	0	0	518	410	
13	0	0	0	0	516	410	
14	0	0	0	0	511	410	
15	0	0	0	0	504	411	
0	0	0	0	0	498	410	
1	0	0	0	0	493	410	
2	0	0	0	0	489	410	
3	0	0	0	0	487	409	
4	0	0	0	0	484	409	
5	0	0	0	0	481	409	
6	0	0	0	0	480	409	
7	0	0	0	0	478	411	
8	0	0	0	0	475	410	
9	0	0	0	0	471	409	
10	0	0	0	0	468	409	
11	0	0	0	0	467	409	
12	0	0	0	0	466	409	
13	0	0	0	0	470	410	
14	0	0	0	0	473	409	
15	0	0	0	0	476	409	
0	0	0	0	0	477	409	
1	0	0	0	0	478	408	
2	0	0	0	0	479	408	
3	0	0	0	0	480	408	
4	0	0	0	0	482	410	
5	0	0	0	0	483	409	
6	0	0	0	0	484	410	
7	0	0	0	0	487	410	
8	0	0	0	0	488	409	
9	0	0	0	0	488	409	
10	0	0	0	0	487	409	
11	0	0	0	0	489	408	
12	0	0	0	0	492	409	
13	0	0	0	0	496	409	
14	0	0	0	0	499	409	
15	0	0	0	0	504	410	
0	0	0	0	0	511	409	
1	0	0	0	0	520	410	
2	0	0	0	0	531	410	
3	0	0	0	0	544	408	
4	0	0	0	0	558	409	
5	0	0	0	0	572	409	
6	0	0	0	0	585	409	
7	0	0	0	0	599	410	
8	0	0	0	0	613	409	
9	0	0	0	0	627	409	
10	0	0	0	0	643	409	
11	0	0	0	0	659	409	
12	0	0	0	0	675	409	
13	0	0	0	0	691	410	
14	0	0	0	0	703	409	
15	0	0	0	0	709	411	
0	0	0	0	0	711	409	
1	0	0	0	0	710	409	
2	0	0	0	0	707	409	
3	0	0	0	0	702	409	
4	0	0	0	0	694	410	
5	0	0	0	0	684	409	
6	0	0	0	0	671	409	
7	0	0	0	0	656	410	
8	0	0	0	0	640	409	
9	0	0	0	0	625	411	
10	0	0	0	0	610	410	
11	0	0	0	0	596	409	
12	0	0	0	0	584	410	
13	0	0	0	0	575	411	
14	0	0	0	0	567	411	
15	0	0	0	0	560	411	
0	0	0	0	0	551	410	
1	0	0	0	0	544	410	
2	0	0	0	0	539	411	
3	0	0	0	0	534	410	
4	0	0	0	0	529	410	
5	0	0	0	0	525	410	
6	0	0	0	0	521	410	
7	0	0	0	0	519	411	
8	0	0	0	0	517	410	
9	0	0	0	0	515	410	
10	0	0	0	0	510	410	
11	0	0	0	0	505	409	
12	0	0	0	0	502	409	
13	0	0	0	0	499	410	
14	0	0	0	0	498	411	
15	0	0	0	0	496	411	
0	0	0	0	0	495	409	
1	0	0	0	0	497	410	
2	0	0	0	0	497	410	
3	0	0	0	0	495	409	
4	0	0	0	0	492	409	
5	0	0	0	0	490	409	
6	0	0	0	0	488	410	
7	0	0	0	0	485	410	
8	0	0	0	0	483	410	
9	0	0	0	0	480	410	
10	0	0	0	0	478	410	
11	0	0	0	0	475	409	
12	0	0	0	0	472	409	
13	0	0	0	0	471	409	
14	0	0	0	0	471	410	
15	0	0	0	0	472	410	
0	0	0	0	0	473	409	
1	0	0	0	0	474	409	
2	0	0	0	0	475	409	
3	0	0	0	0	477	408	
4	0	0	0	0	480	409	
5	0	0	0	0	480	409	
6	0	0	0	0	481	408	
7	0	0	0	0	481	409	
8	0	0	0	0	480	408	
9	0	0	0	0	480	408	
10	0	0	0	0	477	409	
11	0	0	0	0	473	408	
12	0	0	0	0	471	409	
13	0	0	0	0	468	409	
14	0	0	0	0	466	409	
15	0	0	0	0	463	410	
0	0	0	0	0	460	410	
1	0	0	0	0	460	409	
2	0	0	0	0	460	409	
3	0	0	0	0	462	408	
4	0	0	0	0	467	409	
5	0	0	0	0	470	410	
6	0	0	0	0	472	409	
7	0	0	0	0	474	411	
8	0	0	0	0	475	409	
9	0	0	0	0	476	409	
10	0	0	0	0	478	409	
11	0	0	0	0	480	409	
12	0	0	0	0	481	410	
13	0	0	0	0	481	410	
14	0	0	0	0	481	410	
15	0	0	0	0	482	410	
0	0	0	0	0	484	410	
1	0	0	0	0	485	410	
2	0	0	0	0	485	410	
3	0	0	0	0	485	409	
4	0	0	0	0	484	410	
5	0	0	0	0	484	409	
6	0	0	0	0	485	410	
7	0	0	0	0	484	411	
8	0	0	0	0	483	410	
9	0	0	0	0	481	411	
10	0	0	0	0	481	410	
11	0	0	0	0	482	410	
12	0	0	0	0	483	411	
13	0	0	0	0	483	410	
14	0	0	0	0	483	411	
15	0	0	0	0	484	411	
0	0	0	0	0	484	410	
1	0	0	0	0	485	411	
2	0	0	0	0	485	410	
3	0	0	0	0	485	410	
4	0	0	0	0	486	411	
5	0	0	0	0	486	410	
6	0	0	0	0	486	410	
7	0	0	0	0	486	411	
8	0	0	0	0	486	410	
9	0	0	0	0	487	410	
10	0	0	0	0	486	410	
11	0	0	0	0	487	409	
12	0	0	0	0	487	410	
13	0	0	0	0	489	410	
14	0	0	0	0	490	410	
15	0	0	0	0	491	410	
0	0	0	0	0	492	410	
1	0	0	0	0	492	409	
2	0	0	0	0	490	410	
3	0	0	0	0	487	409	
4	0	0	0	0	483	409	
5	0	0	0	0	479	409	
6	0	0	0	0	478	409	
7	0	0	0	0	480	411	
8	0	0	0	0	483	410	
9	0	0	0	0	486	410	
10	0	0	0	0	486	409	
11	0	0	0	0	487	409	
12	0	0	0	0	487	409	
13	0	0	0	0	487	410	
14	0	0	0	0	487	410	
15	0	0	0	0	484	410	
0	0	0	0	0	483	409	
1	0	0	0	0	480	409	
2	0	0	0	0	479	410	
3	0	0	0	0	477	409	
4	0	0	0	0	476	409	
5	0	0	0	0	477	409	
6	0	0	0	0	481	409	
7	0	0	0	0	486	410	
8	0	0	0	0	490	409	
9	0	0	0	0	491	409	
10	0	0	0	0	490	409	
11	0	0	0	0	491	409	
12	0	0	0	0	494	409	
13	0	0	0	0	495	409	
14	0	0	0	0	494	409	
15	0	0	0	0	492	410	
0	0	0	0	0	491	409	
1	0	0	0	0	490	409	
2	0	0	0	0	489	409	
3	0	0	0	0	488	408	
4	0	0	0	0	486	409	
5	0	0	0	0	485	409	
6	0	0	0	0	485	409	
7	0	0	0	0	486	410	
8	0	0	0	0	486	410	
9	0	0	0	0	486	409	
10	0	0	0	0	486	409	
11	0	0	0	0	487	409	
12	0	0	0	0	488	409	
13	0	0	0	0	490	410	
14	0	0	0	0	491	409	
15	0	0	0	0	492	410	
0	0	0	0	0	494	409	
1	0	0	0	0	495	409	
2	0	0	0	0	496	409	
3	0	0	0	0	498	409	
4	0	0	0	0	499	410	
5	0	0	0	0	500	409	
6	0	0	0	0	502	410	
7	0	0	0	0	502	411	
8	0	0	0	0	499	410	
9	0	0	0	0	499	409	
10	0	0	0	0	501	409	
11	0	0	0	0	501	409	
12	0	0	0	0	501	409	
13	0	0	0	0	500	409	
14	0	0	0	0	497	410	
15	0	0	0	0	496	411	
0	0	0	0	0	497	410	
1	0	0	0	0	499	411	
2	0	0	0	0	503	410	
3	0	0	0	0	505	409	
4	0	0	0	0	507	410	
5	0	0	0	0	509	411	
6	0	0	0	0	511	409	
7	0	0	0	0	512	411	
8	0	0	0	0	510	410	
9	0	0	0	0	509	409	
10	0	0	0	0	508	409	
11	0	0	0	0	508	409	
12	0	0	0	0	508	409	
13	0	0	0	0	507	410	
14	0	0	0	0	507	410	
15	0	0	0	0	507	410	
0	0	0	0	0	508	410	
1	0	0	0	0	509	410	
2	0	0	0	0	509	410	
3	0	0	0	0	511	410	
4	0	0	0	0	513	410	
5	0	0	0	0	516	410	
6	0	0	0	0	518	409	
7	0	0	0	0	519	411	
8	0	0	0	0	521	410	
9	0	0	0	0	524	410	
10	0	0	0	0	528	410	
11	0	0	0	0	530	409	
12	0	0	0	0	529	410	
13	0	0	0	0	530	409	
14	0	0	0	0	530	410	
15	0	0	0	0	531	410	
0	0	0	0	0	531	409	
1	0	0	0	0	530	410	
2	0	0	0	0	527	410	
3	0	0	0	0	526	409	
4	0	0	0	0	524	410	
5	0	0	0	0	523	409	
6	0	0	0	0	522	409	
7	0	0	0	0	523	411	
8	0	0	0	0	525	409	
9	0	0	0	0	526	409	
10	0	0	0	0	526	409	
11	0	0	0	0	524	409	
12	0	0	0	0	523	409	
13	0	0	0	0	520	409	
14	0	0	0	0	519	409	
15	0	0	0	0	518	410	
0	0	0	0	0	517	409	
1	0	0	0	0	517	409	
2	0	0	0	0	518	410	
3	0	0	0	0	520	409	
4	0	0	0	0	523	409	
5	0	0	0	0	525	409	
6	0	0	0	0	527	409	
7	0	0	0	0	527	409	
8	0	0	0	0	528	408	
9	0	0	0	0	529	409	
10	0	0	0	0	529	409	
11	0	0	0	0	530	409	
12	0	0	0	0	529	409	
13	0	0	0	0	527	408	
14	0	0	0	0	527	408	
15	0	0	0	0	531	409	
0	0	0	0	0	536	409	
1	0	0	0	0	539	409	
2	0	0	0	0	540	409	
3	0	0	0	0	539	409	
4	0	0	0	0	537	409	
5	0	0	0	0	537	410	
6	0	0	0	0	536	410	
7	0	0	0	0	534	410	
8	0	0	0	0	532	410	
9	0	0	0	0	531	409	
10	0	0	0	0	530	409	
11	0	0	0	0	529	409	
12	0	0	0	0	528	409	
13	0	0	0	0	527	409	
14	0	0	0	0	525	409	
15	0	0	0	0	523	410	
0	0	0	0	0	522	409	
1	0	0	0	0	521	409	
2	0	0	0	0	519	409	
3	0	0	0	0	517	409	
4	0	0	0	0	516	410	
5	0	0	0	0	517	409	
6	0	0	0	0	516	410	
7	0	0	0	0	512	411	
8	0	0	0	0	508	410	
9	0	0	0	0	504	410	
10	0	0	0	0	502	410	
11	0	0	0	0	502	410	
12	0	0	0	0	505	411	
13	0	0	0	0	507	411	
14	0	0	0	0	505	410	
15	0	0	0	0	502	412	
0	0	0	0	0	497	411	
1	0	0	0	0	494	411	
2	0	0	0	0	492	411	
3	0	0	0	0	492	411	
4	0	0	0	0	492	411	
5	0	0	0	0	492	411	
6	0	0	0	0	491	411	
7	0	0	0	0	489	412	
8	0	0	0	0	490	410	
9	0	0	0	0	490	410	
10	0	0	0	0	488	410	
11	0	0	0	0	487	409	
12	0	0	0	0	487	409	
13	0	0	0	0	488	409	
14	0	0	0	0	487	409	
15	0	0	0	0	486	410	
0	0	0	0	0	484	410	
1	0	0	0	0	483	409	
2	0	0	0	0	483	409	
3	0	0	0	0	483	408	
4	0	0	0	0	483	409	
5	0	0	0	0	483	409	
6	0	0	0	0	483	409	
7	0	0	0	0	486	410	
8	0	0	0	0	487	408	
9	0	0	0	0	488	409	
10	0	0	0	0	488	408	
11	0	0	0	0	490	409	
12	0	0	0	0	491	409	
13	0	0	0	0	491	409	
14	0	0	0	0	492	409	
15	0	0	0	0	494	410	
0	0	0	0	0	495	409	
1	0	0	0	0	497	408	
2	0	0	0	0	498	409	
3	0	0	0	0	498	408	
4	0	0	0	0	496	409	
5	0	0	0	0	494	409	
6	0	0	0	0	492	408	
7	0	0	0	0	493	409	
8	0	0	0	0	495	409	
9	0	0	0	0	496	409	
10	0	0	0	0	496	409	
11	0	0	0	0	497	409	
12	0	0	0	0	497	409	
13	0	0	0	0	499	409	
14	0	0	0	0	499	409	
15	0	0	0	0	499	411	
0	0	0	0	0	496	411	
1	0	0	0	0	495	409	
2	0	0	0	0	494	410	
3	0	0	0	0	492	409	
4	0	0	0	0	490	410	
5	0	0	0	0	487	410	
6	0	0	0	0	483	411	
7	0	0	0	0	481	410	
8	0	0	0	0	480	410	
9	0	0	0	0	482	411	
10	0	0	0	0	485	410	
11	0	0	0	0	489	410	
12	0	0	0	0	491	411	
13	0	0	0	0	491	411	
14	0	0	0	0	491	411	
15	0	0	0	0	490	411	
0	0	0	0	0	488	411	
1	0	0	0	0	487	410	
2	0	0	0	0	487	410	
3	0	0	0	0	487	410	
4	0	0	0	0	487	410	
5	0	0	0	0	488	411	
6	0	0	0	0	488	411	
7	0	0	0	0	489	411	
8	0	0	0	0	489	411	
9	0	0	0	0	489	411	
10	0	0	0	0	488	411	
11	0	0	0	0	488	411	
12	0	0	0	0	489	411	
13	0	0	0	0	491	411	
14	0	0	0	0	492	411	
15	0	0	0	0	493	411	
0	0	0	0	0	494	410	
1	0	0	0	0	494	410	
2	0	0	0	0	494	410	
3	0	0	0	0	494	409	
4	0	0	0	0	492	409	
5	0	0	0	0	492	410	
6	0	0	0	0	493	410	
7	0	0	0	0	494	410	
8	0	0	0	0	494	408	
9	0	0	0	0	495	409	
10	0	0	0	0	495	409	
11	0	0	0	0	495	409	
12	0	0	0	0	496	409	
13	0	0	0	0	496	409	
14	0	0	0	0	497	408	
15	0	0	0	0	498	408	
0	0	0	0	0	498	408	
1	0	0	0	0	498	408	
2	0	0	0	0	499	409	
3	0	0	0	0	500	408	
4	0	0	0	0	500	408	
5	0	0	0	0	500	408	
6	0	0	0	0	499	408	
7	0	0	0	0	497	409	
8	0	0	0	0	497	408	
9	0	0	0	0	498	408	
10	0	0	0	0	501	408	
11	0	0	0	0	503	408	
12	0	0	0	0	505	409	
13	0	0	0	0	506	409	
14	0	0	0	0	506	409	
15	0	0	0	0	506	409	
0	0	0	0	0	505	409	
1	0	0	0	0	504	409	
2	0	0	0	0	507	409	
3	0	0	0	0	506	409	
4	0	0	0	0	505	409	
5	0	0	0	0	503	409	
6	0	0	0	0	502	409	
7	0	0	0	0	504	410	
8	0	0	0	0	503	410	
9	0	0	0	0	501	409	
10	0	0	0	0	499	410	
11	0	0	0	0	496	409	
12	0	0	0	0	493	410	
13	0	0	0	0	490	410	
14	0	0	0	0	489	410	
15	0	0	0	0	488	411	
0	0	0	0	0	488	411	
1	0	0	0	0	489	410	
2	0	0	0	0	493	409	
3	0	0	0	0	495	409	
4	0	0	0	0	497	410	
5	0	0	0	0	496	410	
6	0	0	0	0	496	410	
7	0	0	0	0	496	411	
8	0	0	0	0	499	409	
9	0	0	0	0	500	411	
10	0	0	0	0	502	411	
11	0	0	0	0	501	410	
12	0	0	0	0	501	410	
13	0	0	0	0	500	411	
14	0	0	0	0	499	410	
15	0	0	0	0	498	411	
0	0	0	0	0	497	410	
1	0	0	0	0	496	409	
2	0	0	0	0	496	410	
3	0	0	0	0	496	410	
4	0	0	0	0	494	410	
5	0	0	0	0	495	410	
6	0	0	0	0	495	410	
7	0	0	0	0	498	411	
8	0	0	0	0	501	409	
9	0	0	0	0	505	409	
10	0	0	0	0	507	409	
11	0	0	0	0	509	410	
12	0	0	0	0	509	410	
13	0	0	0	0	511	410	
14	0	0	0	0	513	409	
15	0	0	0	0	512	411	
0	0	0	0	0	510	410	
1	0	0	0	0	506	409	
2	0	0	0	0	503	409	
3	0	0	0	0	499	408	
4	0	0	0	0	496	409	
5	0	0	0	0	493	409	
6	0	0	0	0	492	409	
7	0	0	0	0	492	409	
8	0	0	0	0	492	409	
9	0	0	0	0	493	410	
10	0	0	0	0	492	409	
11	0	0	0	0	494	408	
12	0	0	0	0	497	409	
13	0	0	0	0	499	409	
14	0	0	0	0	499	409	
15	0	0	0	0	500	410	
0	0	0	0	0	499	408	
1	0	0	0	0	498	409	
2	0	0	0	0	497	409	
3	0	0	0	0	497	409	
4	0	0	0	0	497	410	
5	0	0	0	0	497	409	
6	0	0	0	0	498	409	
7	0	0	0	0	500	411	
8	0	0	0	0	501	409	
9	0	0	0	0	502	410	
10	0	0	0	0	503	409	
11	0	0	0	0	503	409	
12	0	0	0	0	503	409	
13	0	0	0	0	502	409	
14	0	0	0	0	501	409	
15	0	0	0	0	500	410	
0	0	0	0	0	500	409	
1	0	0	0	0	500	410	
2	0	0	0	0	500	409	
3	0	0	0	0	500	410	
4	0	0	0	0	500	409	
5	0	0	0	0	502	409	
6	0	0	0	0	503	409	
7	0	0	0	0	504	411	
8	0	0	0	0	510	409	
9	0	0	0	0	514	409	
10	0	0	0	0	515	410	
11	0	0	0	0	515	409	
12	0	0	0	0	514	410	
13	0	0	0	0	513	410	
14	0	0	0	0	511	410	
15	0	0	0	0	508	411	
0	0	0	0	0	506	410	
1	0	0	0	0	504	410	
2	0	0	0	0	505	410	
3	0	0	0	0	508	410	
4	0	0	0	0	509	411	
5	0	0	0	0	509	410	
6	0	0	0	0	507	410	
7	0	0	0	0	506	410	
8	0	0	0	0	504	410	
9	0	0	0	0	503	409	
10	0	0	0	0	502	409	
11	0	0	0	0	501	409	
12	0	0	0	0	503	409	
13	0	0	0	0	505	409	
14	0	0	0	0	507	410	
15	0	0	0	0	507	410	
0	0	0	0	0	507	410	
1	0	0	0	0	509	410	
2	0	0	0	0	513	410	
3	0	0	0	0	515	409	
4	0	0	0	0	515	409	
5	0	0	0	0	515	409	
6	0	0	0	0	515	409	
7	0	0	0	0	515	411	
8	0	0	0	0	517	410	
9	0	0	0	0	516	409	
10	0	0	0	0	515	410	
11	0	0	0	0	514	409	
12	0	0	0	0	512	409	
13	0	0	0	0	511	410	
14	0	0	0	0	511	410	
15	0	0	0	0	510	411	
0	0	0	0	0	510	409	
1	0	0	0	0	508	409	
2	0	0	0	0	505	410	
3	0	0	0	0	504	409	
4	0	0	0	0	501	409	
5	0	0	0	0	499	409	
6	0	0	0	0	499	409	
7	0	0	0	0	498	410	
8	0	0	0	0	501	409	
9	0	0	0	0	506	409	
10	0	0	0	0	510	409	
11	0	0	0	0	511	409	
12	0	0	0	0	512	410	
13	0	0	0	0	515	409	
14	0	0	0	0	517	409	
15	0	0	0	0	519	410	
0	0	0	0	0	520	409	
1	0	0	0	0	521	409	
2	0	0	0	0	521	410	
3	0	0	0	0	517	409	
4	0	0	0	0	513	409	
5	0	0	0	0	509	409	
6	0	0	0	0	505	409	
7	0	0	0	0	505	410	
8	0	0	0	0	505	409	
9	0	0	0	0	506	409	
10	0	0	0	0	508	409	
11	0	0	0	0	508	409	
12	0	0	0	0	506	410	
13	0	0	0	0	504	409	
14	0	0	0	0	504	409	
15	0	0	0	0	504	410	
0	0	0	0	0	504	410	
1	0	0	0	0	506	409	
2	0	0	0	0	505	409	
3	0	0	0	0	505	410	
4	0	0	0	0	507	409	
5	0	0	0	0	508	410	
6	0	0	0	0	509	410	
7	0	0	0	0	509	411	
8	0	0	0	0	511	409	
9	0	0	0	0	511	409	
10	0	0	0	0	510	410	
11	0	0	0	0	511	409	
12	0	0	0	0	511	410	
13	0	0	0	0	511	409	
14	0	0	0	0	514	409	
15	0	0	0	0	516	410	
0	0	0	0	0	517	411	
1	0	0	0	0	517	411	
2	0	0	0	0	517	410	
3	0	0	0	0	515	410	
4	0	0	0	0	512	410	
5	0	0	0	0	511	410	
6	0	0	0	0	510	410	
7	0	0	0	0	510	411	
8	0	0	0	0	511	411	
9	0	0	0	0	512	411	
10	0	0	0	0	512	410	
11	0	0	0	0	513	409	
12	0	0	0	0	515	410	
13	0	0	0	0	516	410	
14	0	0	0	0	516	409	
15	0	0	0	0	516	410	
0	0	0	0	0	517	410	
1	0	0	0	0	517	410	
2	0	0	0	0	517	410	
3	0	0	0	0	515	409	
4	0	0	0	0	513	409	
5	0	0	0	0	512	409	
6	0	0	0	0	509	409	
7	0	0	0	0	507	411	
8	0	0	0	0	504	410	
9	0	0	0	0	502	410	
10	0	0	0	0	500	410	
11	0	0	0	0	499	409	
12	0	0	0	0	500	410	
13	0	0	0	0	502	410	
14	0	0	0	0	503	409	
15	0	0	0	0	504	411	
0	0	0	0	0	504	409	
1	0	0	0	0	506	409	
2	0	0	0	0	507	410	
3	0	0	0	0	508	409	
4	0	0	0	0	510	409	
5	0	0	0	0	511	409	
6	0	0	0	0	512	409	
7	0	0	0	0	515	411	
8	0	0	0	0	517	409	
9	0	0	0	0	517	410	
10	0	0	0	0	517	409	
11	0	0	0	0	516	409	
12	0	0	0	0	516	409	
13	0	0	0	0	517	409	
14	0	0	0	0	518	409	
15	0	0	0	0	516	410	
0	0	0	0	0	515	409	
1	0	0	0	0	512	409	
2	0	0	0	0	509	410	
3	0	0	0	0	507	409	
4	0	0	0	0	505	409	
5	0	0	0	0	505	409	
6	0	0	0	0	505	409	
7	0	0	0	0	507	410	
8	0	0	0	0	508	410	
9	0	0	0	0	509	409	
10	0	0	0	0	510	410	
11	0	0	0	0	511	409	
12	0	0	0	0	513	410	
13	0	0	0	0	514	410	
14	0	0	0	0	514	409	
15	0	0	0	0	512	411	
0	0	0	0	0	511	410	
1	0	0	0	0	510	410	
2	0	0	0	0	508	410	
3	0	0	0	0	507	409	
4	0	0	0	0	505	410	
5	0	0	0	0	504	410	
6	0	0	0	0	503	410	
7	0	0	0	0	504	410	
8	0	0	0	0	506	410	
9	0	0	0	0	508	409	
10	0	0	0	0	510	409	
11	0	0	0	0	510	409	
12	0	0	0	0	509	409	
13	0	0	0	0	508	410	
14	0	0	0	0	509	410	
15	0	0	0	0	508	411	
0	0	0	0	0	507	410	
1	0	0	0	0	506	409	
2	0	0	0	0	505	409	
3	0	0	0	0	506	409	
4	0	0	0	0	506	409	
5	0	0	0	0	506	410	
6	0	0	0	0	505	410	
7	0	0	0	0	504	411	
8	0	0	0	0	504	409	
9	0	0	0	0	504	409	
10	0	0	0	0	504	410	
11	0	0	0	0	504	409	
12	0	0	0	0	504	409	
13	0	0	0	0	504	409	
14	0	0	0	0	504	410	
15	0	0	0	0	507	410	
0	0	0	0	0	511	410	
1	0	0	0	0	513	409	
2	0	0	0	0	512	410	
3	0	0	0	0	511	409	
4	0	0	0	0	511	410	
5	0	0	0	0	513	409	
6	0	0	0	0	515	410	
7	0	0	0	0	517	411	
8	0	0	0	0	519	410	
9	0	0	0	0	518	410	
10	0	0	0	0	517	409	
11	0	0	0	0	514	409	
12	0	0	0	0	511	409	
13	0	0	0	0	506	409	
14	0	0	0	0	503	409	
15	0	0	0	0	501	410	
0	0	0	0	0	499	409	
1	0	0	0	0	498	409	
2	0	0	0	0	497	409	
3	0	0	0	0	496	409	
4	0	0	0	0	497	409	
5	0	0	0	0	500	409	
6	0	0	0	0	502	409	
7	0	0	0	0	503	410	
8	0	0	0	0	504	409	
9	0	0	0	0	505	409	
10	0	0	0	0	507	409	
11	0	0	0	0	508	409	
12	0	0	0	0	509	409	
13	0	0	0	0	512	409	
14	0	0	0	0	515	410	
15	0	0	0	0	518	409	
0	0	0	0	0	519	410	
1	0	0	0	0	520	410	
2	0	0	0	0	520	409	
3	0	0	0	0	521	409	
4	0	0	0	0	521	410	
5	0	0	0	0	524	410	
6	0	0	0	0	526	410	
7	0	0	0	0	525	410	
8	0	0	0	0	524	409	
9	0	0	0	0	523	409	
10	0	0	0	0	521	409	
11	0	0	0	0	520	410	
12	0	0	0	0	519	409	
13	0	0	0	0	520	410	
14	0	0	0	0	519	409	
15	0	0	0	0	517	411	
0	0	0	0	0	516	410	
1	0	0	0	0	515	409	
2	0	0	0	0	514	409	
3	0	0	0	0	513	409	
4	0	0	0	0	512	410	
5	0	0	0	0	512	410	
6	0	0	0	0	511	410	
7	0	0	0	0	510	410	
8	0	0	0	0	509	409	
9	0	0	0	0	509	409	
10	0	0	0	0	510	410	
11	0	0	0	0	511	409	
12	0	0	0	0	515	409	
13	0	0	0	0	515	409	
14	0	0	0	0	514	409	
15	0	0	0	0	512	410	
0	0	0	0	0	510	409	
1	0	0	0	0	508	409	
2	0	0	0	0	509	409	
3	0	0	0	0	509	409	
4	0	0	0	0	510	409	
5	0	0	0	0	511	410	
6	0	0	0	0	513	409	
7	0	0	0	0	515	409	
8	0	0	0	0	517	409	
9	0	0	0	0	517	409	
10	0	0	0	0	517	409	
11	0	0	0	0	518	409	
12	0	0	0	0	517	409	
13	0	0	0	0	517	409	
14	0	0	0	0	515	409	
15	0	0	0	0	511	410	
0	0	0	0	0	505	409	
1	0	0	0	0	499	409	
2	0	0	0	0	498	409	
3	0	0	0	0	500	409	
4	0	0	0	0	503	410	
5	0	0	0	0	504	410	
6	0	0	0	0	504	410	
7	0	0	0	0	504	411	
8	0	0	0	0	504	410	
9	0	0	0	0	505	410	
10	0	0	0	0	508	411	
11	0	0	0	0	509	409	
12	0	0	0	0	509	411	
13	0	0	0	0	508	410	
14	0	0	0	0	506	409	
15	0	0	0	0	504	410	
0	0	0	0	0	504	409	
1	0	0	0	0	504	410	
2	0	0	0	0	504	409	
3	0	0	0	0	505	409	
4	0	0	0	0	507	410	
5	0	0	0	0	508	410	
6	0	0	0	0	510	410	
7	0	0	0	0	510	411	
8	0	0	0	0	508	410	
9	0	0	0	0	508	409	
10	0	0	0	0	508	409	
11	0	0	0	0	508	410	
12	0	0	0	0	507	410	
13	0	0	0	0	506	409	
14	0	0	0	0	505	409	
15	0	0	0	0	505	410	
0	0	0	0	0	507	409	
1	0	0	0	0	508	409	
2	0	0	0	0	508	410	
3	0	0	0	0	510	409	
4	0	0	0	0	512	410	
5	0	0	0	0	512	410	
6	0	0	0	0	509	411	
7	0	0	0	0	506	410	
8	0	0	0	0	503	409	
9	0	0	0	0	501	409	
10	0	0	0	0	500	411	
11	0	0	0	0	500	409	
12	0	0	0	0	499	410	
13	0	0	0	0	496	409	
14	0	0	0	0	491	410	
15	0	0	0	0	488	410	
0	0	0	0	0	489	410	
1	0	0	0	0	489	409	
2	0	0	0	0	485	410	
3	0	0	0	0	480	408	
4	0	0	0	0	475	409	
5	0	0	0	0	472	410	
6	0	0	0	0	471	409	
7	0	0	0	0	472	411	
8	0	0	0	0	472	410	
9	0	0	0	0	473	409	
10	0	0	0	0	475	409	
11	0	0	0	0	478	409	
12	0	0	0	0	482	409	
13	0	0	0	0	484	409	
14	0	0	0	0	486	409	
15	0	0	0	0	487	410	
0	0	0	0	0	489	410	
1	0	0	0	0	491	409	
2	0	0	0	0	492	409	
3	0	0	0	0	490	409	
4	0	0	0	0	489	410	
5	0	0	0	0	489	410	
6	0	0	0	0	488	409	
7	0	0	0	0	487	410	
8	0	0	0	0	486	409	
9	0	0	0	0	486	409	
10	0	0	0	0	487	409	
11	0	0	0	0	491	409	
12	0	0	0	0	494	409	
13	0	0	0	0	498	409	
14	0	0	0	0	505	409	
15	0	0	0	0	514	411	
0	0	0	0	0	524	410	
1	0	0	0	0	536	409	
2	0	0	0	0	549	410	
3	0	0	0	0	561	410	
4	0	0	0	0	575	410	
5	0	0	0	0	590	410	
6	0	0	0	0	605	410	
7	0	0	0	0	620	411	
8	0	0	0	0	634	410	
9	0	0	0	0	647	410	
10	0	0	0	0	659	409	
11	0	0	0	0	672	410	
12	0	0	0	0	682	410	
13	0	0	0	0	687	409	
14	0	0	0	0	688	409	
15	0	0	0	0	687	411	
0	0	0	0	0	684	410	
1	0	0	0	0	683	410	
2	0	0	0	0	678	410	
3	0	0	0	0	670	410	
4	0	0	0	0	655	410	
5	0	0	0	0	638	410	
6	0	0	0	0	621	410	
7	0	0	0	0	606	411	
8	0	0	0	0	591	410	
9	0	0	0	0	574	409	
10	0	0	0	0	559	410	
11	0	0	0	0	548	409	
12	0	0	0	0	541	409	
13	0	0	0	0	536	410	
14	0	0	0	0	531	409	
15	0	0	0	0	528	410	
0	0	0	0	0	527	409	
1	0	0	0	0	528	409	
2	0	0	0	0	529	409	
3	0	0	0	0	528	409	
4	0	0	0	0	526	410	
5	0	0	0	0	524	409	
6	0	0	0	0	522	409	
7	0	0	0	0	519	410	
8	0	0	0	0	515	409	
9	0	0	0	0	512	409	
10	0	0	0	0	507	410	
11	0	0	0	0	502	409	
12	0	0	0	0	497	410	
13	0	0	0	0	493	410	
14	0	0	0	0	489	409	
15	0	0	0	0	485	410	
0	0	0	0	0	481	409	
1	0	0	0	0	478	409	
2	0	0	0	0	476	410	
3	0	0	0	0	475	409	
4	0	0	0	0	475	409	
5	0	0	0	0	476	409	
6	0	0	0	0	475	409	
7	0	0	0	0	475	410	
8	0	0	0	0	473	409	
9	0	0	0	0	472	409	
10	0	0	0	0	473	410	
11	0	0	0	0	472	409	
12	0	0	0	0	470	409	
13	0	0	0	0	467	409	
14	0	0	0	0	464	409	
15	0	0	0	0	465	410	
0	0	0	0	0	467	409	
1	0	0	0	0	468	409	
2	0	0	0	0	471	409	
3	0	0	0	0	474	409	
4	0	0	0	0	473	410	
5	0	0	0	0	473	409	
6	0	0	0	0	472	410	
7	0	0	0	0	471	410	
8	0	0	0	0	470	409	
9	0	0	0	0	470	409	
10	0	0	0	0	473	409	
11	0	0	0	0	475	408	
12	0	0	0	0	475	409	
13	0	0	0	0	475	410	
14	0	0	0	0	476	409	
15	0	0	0	0	476	410	
0	0	0	0	0	478	409	
1	0	0	0	0	480	410	
2	0	0	0	0	481	409	
3	0	0	0	0	481	409	
4	0	0	0	0	483	410	
5	0	0	0	0	485	409	
6	0	0	0	0	486	409	
7	0	0	0	0	487	410	
8	0	0	0	0	486	409	
9	0	0	0	0	485	410	
10	0	0	0	0	482	410	
11	0	0	0	0	480	409	
12	0	0	0	0	476	410	
13	0	0	0	0	472	409	
14	0	0	0	0	468	410	
15	0	0	0	0	468	411	
0	0	0	0	0	470	410	
1	0	0	0	0	471	410	
2	0	0	0	0	472	410	
3	0	0	0	0	474	410	
4	0	0	0	0	475	410	
5	0	0	0	0	477	410	
6	0	0	0	0	478	410	
7	0	0	0	0	480	411	
8	0	0	0	0	480	410	
9	0	0	0	0	481	410	
10	0	0	0	0	480	410	
11	0	0	0	0	479	409	
12	0	0	0	0	477	411	
13	0	0	0	0	475	410	
14	0	0	0	0	473	410	
15	0	0	0	0	473	411	
0	0	0	0	0	476	410	
1	0	0	0	0	479	409	
2	0	0	0	0	480	410	
3	0	0	0	0	481	409	
4	0	0	0	0	483	409	
5	0	0	0	0	485	409	
6	0	0	0	0	487	409	
7	0	0	0	0	489	411	
8	0	0	0	0	494	410	
9	0	0	0	0	497	409	
10	0	0	0	0	497	409	
11	0	0	0	0	498	409	
12	0	0	0	0	496	409	
13	0	0	0	0	494	409	
14	0	0	0	0	489	409	
15	0	0	0	0	486	410	
0	0	0	0	0	486	409	
1	0	0	0	0	490	409	
2	0	0	0	0	492	410	
3	0	0	0	0	488	409	
4	0	0	0	0	484	410	
5	0	0	0	0	481	409	
6	0	0	0	0	480	409	
7	0	0	0	0	480	410	
8	0	0	0	0	482	410	
9	0	0	0	0	484	410	
10	0	0	0	0	486	410	
11	0	0	0	0	487	409	
12	0	0	0	0	488	409	
13	0	0	0	0	488	409	
14	0	0	0	0	488	409	
15	0	0	0	0	488	410	
0	0	0	0	0	487	409	
1	0	0	0	0	487	409	
2	0	0	0	0	486	409	
3	0	0	0	0	485	409	
4	0	0	0	0	485	409	
5	0	0	0	0	484	409	
6	0	0	0	0	486	409	
7	0	0	0	0	488	410	
8	0	0	0	0	490	409	
9	0	0	0	0	491	409	
10	0	0	0	0	492	410	
11	0	0	0	0	494	409	
12	0	0	0	0	495	410	
13	0	0	0	0	495	410	
14	0	0	0	0	496	410	
15	0	0	0	0	496	410	
0	0	0	0	0	496	409	
1	0	0	0	0	496	409	
2	0	0	0	0	494	409	
3	0	0	0	0	494	409	
4	0	0	0	0	495	409	
5	0	0	0	0	495	410	
6	0	0	0	0	496	409	
7	0	0	0	0	496	410	
8	0	0	0	0	495	409	
9	0	0	0	0	494	409	
10	0	0	0	0	495	409	
11	0	0	0	0	495	408	
12	0	0	0	0	495	409	
13	0	0	0	0	496	409	
14	0	0	0	0	495	409	
15	0	0	0	0	494	410	
0	0	0	0	0	492	410	
1	0	0	0	0	493	410	
2	0	0	0	0	496	410	
3	0	0	0	0	498	409	
4	0	0	0	0	499	410	
5	0	0	0	0	499	410	
6	0	0	0	0	501	409	
7	0	0	0	0	504	410	
8	0	0	0	0	508	409	
9	0	0	0	0	512	409	
10	0	0	0	0	516	410	
11	0	0	0	0	517	409	
12	0	0	0	0	518	409	
13	0	0	0	0	519	410	
14	0	0	0	0	518	410	
15	0	0	0	0	516	411	
0	0	0	0	0	513	411	
1	0	0	0	0	509	410	
2	0	0	0	0	504	410	
3	0	0	0	0	500	409	
4	0	0	0	0	500	410	
5	0	0	0	0	504	410	
6	0	0	0	0	506	410	
7	0	0	0	0	508	411	
8	0	0	0	0	508	410	
9	0	0	0	0	507	410	
10	0	0	0	0	507	410	
11	0	0	0	0	505	409	
12	0	0	0	0	504	410	
13	0	0	0	0	503	409	
14	0	0	0	0	502	410	
15	0	0	0	0	501	411	
0	0	0	0	0	500	410	
1	0	0	0	0	500	410	
2	0	0	0	0	500	410	
3	0	0	0	0	501	409	
4	0	0	0	0	503	410	
5	0	0	0	0	507	409	
6	0	0	0	0	509	410	
7	0	0	0	0	510	410	
8	0	0	0	0	510	410	
9	0	0	0	0	511	409	
10	0	0	0	0	512	409	
11	0	0	0	0	513	409	
12	0	0	0	0	514	409	
13	0	0	0	0	516	410	
14	0	0	0	0	519	409	
15	0	0	0	0	522	410	
0	0	0	0	0	524	409	
1	0	0	0	0	526	409	
2	0	0	0	0	526	409	
3	0	0	0	0	528	409	
4	0	0	0	0	531	410	
5	0	0	0	0	532	410	
6	0	0	0	0	534	409	
7	0	0	0	0	534	410	
8	0	0	0	0	537	409	
9	0	0	0	0	540	409	
10	0	0	0	0	540	410	
11	0	0	0	0	538	409	
12	0	0	0	0	536	409	
13	0	0	0	0	535	410	
14	0	0	0	0	533	409	
15	0	0	0	0	529	410	
0	0	0	0	0	526	409	
1	0	0	0	0	524	410	
2	0	0	0	0	524	410	
3	0	0	0	0	526	409	
4	0	0	0	0	528	409	
5	0	0	0	0	531	409	
6	0	0	0	0	532	409	
7	0	0	0	0	534	410	
8	0	0	0	0	536	409	
9	0	0	0	0	537	410	
10	0	0	0	0	537	409	
11	0	0	0	0	536	409	
12	0	0	0	0	535	409	
13	0	0	0	0	534	410	
14	0	0	0	0	533	410	
15	0	0	0	0	532	411	
0	0	0	0	0	531	409	
1	0	0	0	0	530	410	
2	0	0	0	0	528	410	
3	0	0	0	0	530	409	
4	0	0	0	0	532	410	
5	0	0	0	0	535	409	
6	0	0	0	0	536	409	
7	0	0	0	0	536	411	
8	0	0	0	0	534	409	
9	0	0	0	0	531	409	
10	0	0	0	0	529	409	
11	0	0	0	0	528	409	
12	0	0	0	0	528	409	
13	0	0	0	0	526	409	
14	0	0	0	0	524	409	
15	0	0	0	0	521	410	
0	0	0	0	0	519	409	
1	0	0	0	0	518	409	
2	0	0	0	0	516	409	
3	0	0	0	0	515	410	
4	0	0	0	0	513	409	
5	0	0	0	0	512	410	
6	0	0	0	0	511	409	
7	0	0	0	0	509	410	
8	0	0	0	0	509	409	
9	0	0	0	0	508	409	
10	0	0	0	0	508	409	
11	0	0	0	0	506	409	
12	0	0	0	0	504	409	
13	0	0	0	0	499	409	
14	0	0	0	0	494	409	
15	0	0	0	0	491	411	
0	0	0	0	0	488	410	
1	0	0	0	0	487	409	
2	0	0	0	0	486	409	
3	0	0	0	0	489	409	
4	0	0	0	0	490	409	
5	0	0	0	0	491	409	
6	0	0	0	0	490	409	
7	0	0	0	0	488	409	
8	0	0	0	0	487	408	
9	0	0	0	0	487	409	
10	0	0	0	0	487	409	
11	0	0	0	0	486	408	
12	0	0	0	0	486	410	
13	0	0	0	0	486	409	
14	0	0	0	0	485	410	
15	0	0	0	0	485	411	
0	0	0	0	0	487	410	
1	0	0	0	0	490	410	
2	0	0	0	0	491	409	
3	0	0	0	0	491	409	
4	0	0	0	0	492	409	
5	0	0	0	0	492	409	
6	0	0	0	0	492	409	
7	0	0	0	0	491	410	
8	0	0	0	0	490	409	
9	0	0	0	0	489	409	
10	0	0	0	0	488	409	
11	0	0	0	0	485	408	
12	0	0	0	0	482	409	
13	0	0	0	0	480	410	
14	0	0	0	0	479	410	
15	0	0	0	0	479	410	
0	0	0	0	0	480	409	
1	0	0	0	0	481	409	
2	0	0	0	0	483	409	
3	0	0	0	0	484	408	
4	0	0	0	0	484	409	
5	0	0	0	0	484	410	
6	0	0	0	0	484	410	
7	0	0	0	0	488	410	
8	0	0	0	0	490	409	
9	0	0	0	0	491	409	
10	0	0	0	0	492	409	
11	0	0	0	0	496	409	
12	0	0	0	0	500	410	
13	0	0	0	0	502	410	
14	0	0	0	0	501	410	
15	0	0	0	0	499	411	
0	0	0	0	0	498	409	
1	0	0	0	0	496	410	
2	0	0	0	0	495	409	
3	0	0	0	0	494	409	
4	0	0	0	0	494	410	
5	0	0	0	0	494	411	
6	0	0	0	0	492	410	
7	0	0	0	0	489	411	
8	0	0	0	0	487	410	
9	0	0	0	0	487	409	
10	0	0	0	0	489	410	
11	0	0	0	0	487	409	
12	0	0	0	0	485	409	
13	0	0	0	0	484	409	
14	0	0	0	0	484	409	
15	0	0	0	0	486	410	
0	0	0	0	0	488	409	
1	0	0	0	0	490	408	
2	0	0	0	0	492	409	
3	0	0	0	0	494	409	
4	0	0	0	0	496	409	
5	0	0	0	0	499	409	
6	0	0	0	0	500	409	
7	0	0	0	0	499	410	
8	0	0	0	0	496	410	
9	0	0	0	0	494	409	
10	0	0	0	0	491	408	
11	0	0	0	0	489	408	
12	0	0	0	0	489	408	
13	0	0	0	0	489	409	
14	0	0	0	0	490	409	
15	0	0	0	0	492	410	
0	0	0	0	0	495	409	
1	0	0	0	0	497	410	
2	0	0	0	0	498	410	
3	0	0	0	0	496	410	
4	0	0	0	0	494	410	
5	0	0	0	0	492	409	
6	0	0	0	0	491	410	
7	0	0	0	0	490	410	
8	0	0	0	0	490	410	
9	0	0	0	0	491	410	
10	0	0	0	0	492	409	
11	0	0	0	0	492	409	
12	0	0	0	0	492	410	
13	0	0	0	0	492	410	
14	0	0	0	0	493	410	
15	0	0	0	0	494	410	
0	0	0	0	0	493	410	
1	0	0	0	0	493	409	
2	0	0	0	0	493	409	
3	0	0	0	0	496	409	
4	0	0	0	0	499	409	
5	0	0	0	0	501	410	
6	0	0	0	0	500	409	
7	0	0	0	0	499	410	
8	0	0	0	0	499	409	
9	0	0	0	0	500	409	
10	0	0	0	0	501	410	
11	0	0	0	0	502	410	
12	0	0	0	0	505	410	
13	0	0	0	0	505	411	
14	0	0	0	0	507	410	
15	0	0	0	0	508	411	
0	0	0	0	0	508	409	
1	0	0	0	0	507	410	
2	0	0	0	0	506	410	
3	0	0	0	0	504	409	
4	0	0	0	0	503	409	
5	0	0	0	0	500	409	
6	0	0	0	0	499	409	
7	0	0	0	0	496	410	
8	0	0	0	0	495	409	
9	0	0	0	0	493	409	
10	0	0	0	0	492	409	
11	0	0	0	0	490	409	
12	0	0	0	0	491	409	
13	0	0	0	0	491	409	
14	0	0	0	0	492	409	
15	0	0	0	0	493	410	
0	0	0	0	0	494	410	
1	0	0	0	0	496	410	
2	0	0	0	0	499	410	
3	0	0	0	0	500	410	
4	0	0	0	0	500	409	
5	0	0	0	0	500	410	
6	0	0	0	0	500	410	
7	0	0	0	0	499	411	
8	0	0	0	0	499	410	
9	0	0	0	0	499	410	
10	0	0	0	0	499	409	
11	0	0	0	0	499	409	
12	0	0	0	0	498	409	
13	0	0	0	0	498	409	
14	0	0	0	0	499	409	
15	0	0	0	0	498	410	
0	0	0	0	0	497	409	
1	0	0	0	0	497	409	
2	0	0	0	0	496	409	
3	0	0	0	0	498	409	
4	0	0	0	0	499	409	
5	0	0	0	0	499	409	
6	0	0	0	0	497	409	
7	0	0	0	0	496	410	
8	0	0	0	0	496	409	
9	0	0	0	0	496	409	
10	0	0	0	0	496	409	
11	0	0	0	0	497	409	
12	0	0	0	0	497	409	
13	0	0	0	0	498	409	
14	0	0	0	0	499	409	
15	0	0	0	0	499	410	
0	0	0	0	0	499	409	
1	0	0	0	0	500	410	
2	0	0	0	0	499	409	
3	0	0	0	0	499	409	
4	0	0	0	0	499	410	
5	0	0	0	0	498	410	
6	0	0	0	0	498	411	
7	0	0	0	0	498	411	
8	0	0	0	0	498	409	
9	0	0	0	0	499	410	
10	0	0	0	0	500	410	
11	0	0	0	0	502	410	
12	0	0	0	0	503	409	
13	0	0	0	0	504	409	
14	0	0	0	0	504	409	
15	0	0	0	0	504	410	
0	0	0	0	0	504	410	
1	0	0	0	0	504	410	
2	0	0	0	0	504	409	
3	0	0	0	0	503	409	
4	0	0	0	0	503	409	
5	0	0	0	0	503	409	
6	0	0	0	0	503	409	
7	0	0	0	0	503	411	
8	0	0	0	0	503	409	
9	0	0	0	0	503	409	
10	0	0	0	0	504	409	
11	0	0	0	0	503	410	
12	0	0	0	0	503	409	
13	0	0	0	0	504	409	
14	0	0	0	0	503	409	
15	0	0	0	0	505	410	
0	0	0	0	0	509	409	
1	0	0	0	0	511	410	
2	0	0	0	0	512	409	
3	0	0	0	0	512	409	
4	0	0	0	0	512	409	
5	0	0	0	0	512	409	
6	0	0	0	0	511	409	
7	0	0	0	0	510	411	
8	0	0	0	0	507	409	
9	0	0	0	0	505	409	
10	0	0	0	0	504	409	
11	0	0	0	0	504	409	
12	0	0	0	0	504	409	
13	0	0	0	0	505	409	
14	0	0	0	0	506	409	
15	0	0	0	0	506	409	
0	0	0	0	0	505	409	
1	0	0	0	0	504	409	
2	0	0	0	0	505	409	
3	0	0	0	0	505	409	
4	0	0	0	0	505	409	
5	0	0	0	0	505	410	
6	0	0	0	0	505	410	
7	0	0	0	0	506	410	
8	0	0	0	0	507	409	
9	0	0	0	0	507	410	
10	0	0	0	0	508	409	
11	0	0	0	0	510	409	
12	0	0	0	0	509	409	
13	0	0	0	0	507	409	
14	0	0	0	0	506	409	
15	0	0	0	0	505	410	
0	0	0	0	0	505	409	
1	0	0	0	0	507	410	
2	0	0	0	0	508	410	
3	0	0	0	0	508	409	
4	0	0	0	0	507	410	
5	0	0	0	0	508	410	
6	0	0	0	0	510	410	
7	0	0	0	0	510	411	
8	0	0	0	0	510	410	
9	0	0	0	0	509	410	
10	0	0	0	0	508	410	
11	0	0	0	0	509	409	
12	0	0	0	0	510	409	
13	0	0	0	0	509	409	
14	0	0	0	0	508	409	
15	0	0	0	0	507	411	
0	0	0	0	0	507	409	
1	0	0	0	0	508	409	
2	0	0	0	0	508	410	
3	0	0	0	0	508	410	
4	0	0	0	0	509	409	
5	0	0	0	0	510	410	
6	0	0	0	0	511	409	
7	0	0	0	0	511	411	
8	0	0	0	0	513	410	
9	0	0	0	0	515	409	
10	0	0	0	0	520	410	
11	0	0	0	0	524	409	
12	0	0	0	0	526	409	
13	0	0	0	0	526	409	
14	0	0	0	0	525	409	
15	0	0	0	0	523	410	
0	0	0	0	0	519	410	
1	0	0	0	0	515	409	
2	0	0	0	0	512	409	
3	0	0	0	0	507	409	
4	0	0	0	0	502	409	
5	0	0	0	0	497	409	
6	0	0	0	0	496	409	
7	0	0	0	0	495	410	
8	0	0	0	0	497	409	
9	0	0	0	0	498	409	
10	0	0	0	0	499	409	
11	0	0	0	0	501	409	
12	0	0	0	0	503	409	
13	0	0	0	0	506	410	
14	0	0	0	0	512	410	
15	0	0	0	0	516	411	
0	0	0	0	0	516	410	
1	0	0	0	0	516	409	
2	0	0	0	0	518	410	
3	0	0	0	0	519	409	
4	0	0	0	0	520	409	
5	0	0	0	0	519	410	
6	0	0	0	0	516	410	
7	0	0	0	0	514	412	
8	0	0	0	0	512	410	
9	0	0	0	0	510	410	
10	0	0	0	0	507	410	
11	0	0	0	0	505	410	
12	0	0	0	0	504	410	
13	0	0	0	0	503	410	
14	0	0	0	0	502	410	
15	0	0	0	0	503	411	
0	0	0	0	0	503	409	
1	0	0	0	0	503	410	
2	0	0	0	0	504	410	
3	0	0	0	0	505	409	
4	0	0	0	0	507	410	
5	0	0	0	0	508	409	
6	0	0	0	0	508	410	
7	0	0	0	0	507	411	
8	0	0	0	0	507	409	
9	0	0	0	0	507	409	
10	0	0	0	0	508	409	
11	0	0	0	0	510	409	
12	0	0	0	0	512	409	
13	0	0	0	0	512	409	
14	0	0	0	0	512	409	
15	0	0	0	0	511	410	
0	0	0	0	0	511	409	
1	0	0	0	0	510	409	
2	0	0	0	0	509	410	
3	0	0	0	0	508	410	
4	0	0	0	0	507	409	
5	0	0	0	0	508	409	
6	0	0	0	0	507	409	
7	0	0	0	0	507	411	
8	0	0	0	0	506	410	
9	0	0	0	0	506	410	
10	0	0	0	0	507	410	
11	0	0	0	0	509	409	
12	0	0	0	0	511	409	
13	0	0	0	0	512	409	
14	0	0	0	0	512	409	
15	0	0	0	0	512	410	
0	0	0	0	0	512	410	
1	0	0	0	0	512	410	
2	0	0	0	0	512	410	
3	0	0	0	0	512	409	
4	0	0	0	0	513	409	
5	0	0	0	0	513	410	
6	0	0	0	0	513	410	
7	0	0	0	0	514	411	
8	0	0	0	0	515	409	
9	0	0	0	0	514	409	
10	0	0	0	0	513	410	
11	0	0	0	0	513	409	
12	0	0	0	0	512	410	
13	0	0	0	0	512	409	
14	0	0	0	0	512	410	
15	0	0	0	0	511	410	
0	0	0	0	0	511	409	
1	0	0	0	0	511	408	
2	0	0	0	0	511	409	
3	0	0	0	0	511	409	
4	0	0	0	0	510	410	
5	0	0	0	0	509	409	
6	0	0	0	0	509	409	
7	0	0	0	0	509	411	
8	0	0	0	0	508	410	
9	0	0	0	0	508	410	
10	0	0	0	0	508	410	
11	0	0	0	0	508	409	
12	0	0	0	0	508	410	
13	0	0	0	0	509	410	
14	0	0	0	0	511	410	
15	0	0	0	0	512	411	
0	0	0	0	0	515	409	
1	0	0	0	0	515	411	
2	0	0	0	0	515	409	
3	0	0	0	0	515	409	
4	0	0	0	0	516	409	
5	0	0	0	0	516	409	
6	0	0	0	0	517	409	
7	0	0	0	0	518	410	
8	0	0	0	0	519	408	
9	0	0	0	0	521	410	
10	0	0	0	0	520	409	
11	0	0	0	0	519	409	
12	0	0	0	0	519	409	
13	0	0	0	0	519	410	
14	0	0	0	0	516	409	
15	0	0	0	0	515	411	
0	0	0	0	0	511	409	
1	0	0	0	0	508	410	
2	0	0	0	0	503	410	
3	0	0	0	0	499	409	
4	0	0	0	0	496	409	
5	0	0	0	0	495	410	
6	0	0	0	0	495	410	
7	0	0	0	0	495	411	
8	0	0	0	0	496	409	
9	0	0	0	0	498	409	
10	0	0	0	0	500	409	
11	0	0	0	0	502	409	
12	0	0	0	0	503	409	
13	0	0	0	0	506	410	
14	0	0	0	0	510	409	
15	0	0	0	0	512	411	
0	0	0	0	0	513	410	
1	0	0	0	0	513	410	
2	0	0	0	0	513	409	
3	0	0	0	0	512	409	
4	0	0	0	0	512	410	
5	0	0	0	0	513	410	
6	0	0	0	0	513	410	
7	0	0	0	0	515	411	
8	0	0	0	0	515	409	
9	0	0	0	0	515	409	
10	0	0	0	0	515	410	
11	0	0	0	0	514	409	
12	0	0	0	0	514	410	
13	0	0	0	0	516	410	
14	0	0	0	0	519	409	
15	0	0	0	0	520	411	
0	0	0	0	0	519	410	
1	0	0	0	0	517	409	
2	0	0	0	0	514	409	
3	0	0	0	0	512	409	
4	0	0	0	0	510	409	
5	0	0	0	0	510	409	
6	0	0	0	0	508	409	
7	0	0	0	0	509	410	
8	0	0	0	0	510	409	
9	0	0	0	0	511	410	
10	0	0	0	0	512	410	
11	0	0	0	0	512	409	
12	0	0	0	0	512	409	
13	0	0	0	0	512	410	
14	0	0	0	0	512	409	
15	0	0	0	0	513	410	
0	0	0	0	0	513	409	
1	0	0	0	0	513	410	
2	0	0	0	0	512	409	
3	0	0	0	0	513	408	
4	0	0	0	0	513	409	
5	0	0	0	0	513	410	
6	0	0	0	0	516	410	
7	0	0	0	0	520	410	
8	0	0	0	0	525	409	
9	0	0	0	0	526	410	
10	0	0	0	0	527	410	
11	0	0	0	0	526	409	
12	0	0	0	0	526	409	
13	0	0	0	0	526	409	
14	0	0	0	0	528	409	
15	0	0	0	0	532	410	
0	0	0	0	0	534	409	
1	0	0	0	0	536	409	
2	0	0	0	0	536	409	
3	0	0	0	0	536	409	
4	0	0	0	0	535	409	
5	0	0	0	0	532	409	
6	0	0	0	0	529	409	
7	0	0	0	0	527	411	
8	0	0	0	0	527	410	
9	0	0	0	0	527	410	
10	0	0	0	0	526	410	
11	0	0	0	0	523	409	
12	0	0	0	0	519	410	
13	0	0	0	0	516	410	
14	0	0	0	0	514	410	
15	0	0	0	0	513	410	
0	0	0	0	0	515	410	
1	0	0	0	0	517	409	
2	0	0	0	0	521	410	
3	0	0	0	0	521	410	
4	0	0	0	0	520	410	
5	0	0	0	0	519	410	
6	0	0	0	0	518	410	
7	0	0	0	0	518	410	
8	0	0	0	0	519	410	
9	0	0	0	0	519	410	
10	0	0	0	0	520	409	
11	0	0	0	0	520	409	
12	0	0	0	0	521	410	
13	0	0	0	0	523	409	
14	0	0	0	0	524	409	
15	0	0	0	0	525	410	
0	0	0	0	0	524	410	
1	0	0	0	0	526	410	
2	0	0	0	0	526	409	
3	0	0	0	0	527	409	
4	0	0	0	0	529	410	
5	0	0	0	0	532	409	
6	0	0	0	0	532	410	
7	0	0	0	0	531	410	
8	0	0	0	0	530	409	
9	0	0	0	0	527	409	
10	0	0	0	0	524	410	
11	0	0	0	0	521	409	
12	0	0	0	0	520	410	
13	0	0	0	0	520	410	
14	0	0	0	0	520	410	
15	0	0	0	0	520	411	
0	0	0	0	0	519	409	
1	0	0	0	0	519	409	
2	0	0	0	0	519	409	
3	0	0	0	0	519	409	
4	0	0	0	0	519	410	
5	0	0	0	0	519	409	
6	0	0	0	0	520	409	
7	0	0	0	0	520	411	
8	0	0	0	0	522	409	
9	0	0	0	0	522	411	
10	0	0	0	0	521	410	
11	0	0	0	0	521	409	
12	0	0	0	0	521	410	
13	0	0	0	0	521	410	
14	0	0	0	0	522	409	
15	0	0	0	0	523	410	
0	0	0	0	0	522	410	
1	0	0	0	0	522	410	
2	0	0	0	0	522	410	
3	0	0	0	0	523	410	
4	0	0	0	0	522	410	
5	0	0	0	0	522	410	
6	0	0	0	0	521	410	
7	0	0	0	0	520	410	
8	0	0	0	0	520	410	
9	0	0	0	0	521	410	
10	0	0	0	0	524	410	
11	0	0	0	0	527	409	
12	0	0	0	0	528	410	
13	0	0	0	0	528	409	
14	0	0	0	0	526	409	
15	0	0	0	0	524	410	
0	0	0	0	0	520	410	
1	0	0	0	0	517	410	
2	0	0	0	0	513	409	
3	0	0	0	0	511	409	
4	0	0	0	0	507	410	
5	0	0	0	0	503	409	
6	0	0	0	0	499	409	
7	0	0	0	0	496	410	
8	0	0	0	0	495	409	
9	0	0	0	0	497	409	
10	0	0	0	0	499	410	
11	0	0	0	0	502	409	
12	0	0	0	0	502	409	
13	0	0	0	0	502	409	
14	0	0	0	0	503	409	
15	0	0	0	0	503	410	
0	0	0	0	0	504	409	
1	0	0	0	0	505	410	
2	0	0	0	0	505	410	
3	0	0	0	0	507	410	
4	0	0	0	0	507	409	
5	0	0	0	0	507	410	
6	0	0	0	0	506	410	
7	0	0	0	0	505	411	
8	0	0	0	0	504	411	
9	0	0	0	0	504	410	
10	0	0	0	0	505	409	
11	0	0	0	0	507	409	
12	0	0	0	0	510	410	
13	0	0	0	0	515	410	
14	0	0	0	0	521	410	
15	0	0	0	0	527	410	
0	0	0	0	0	535	410	
1	0	0	0	0	542	409	
2	0	0	0	0	550	410	
3	0	0	0	0	562	410	
4	0	0	0	0	574	410	
5	0	0	0	0	587	409	
6	0	0	0	0	600	409	
7	0	0	0	0	615	410	
8	0	0	0	0	630	409	
9	0	0	0	0	643	409	
10	0	0	0	0	657	408	
11	0	0	0	0	669	409	
12	0	0	0	0	683	409	
13	0	0	0	0	696	409	
14	0	0	0	0	707	408	
15	0	0	0	0	713	409	
0	0	0	0	0	714	409	
1	0	0	0	0	712	410	
2	0	0	0	0	708	410	
3	0	0	0	0	702	410	
4	0	0	0	0	694	410	
5	0	0	0	0	684	409	
6	0	0	0	0	670	409	
7	0	0	0	0	655	410	
8	0	0	0	0	639	410	
9	0	0	0	0	621	410	
10	0	0	0	0	604	409	
11	0	0	0	0	588	409	
12	0	0	0	0	575	410	
13	0	0	0	0	563	409	
14	0	0	0	0	554	409	
15	0	0	0	0	546	411	
0	0	0	0	0	540	409	
1	0	0	0	0	535	409	
2	0	0	0	0	531	409	
3	0	0	0	0	527	409	
4	0	0	0	0	523	410	
5	0	0	0	0	520	410	
6	0	0	0	0	519	410	
7	0	0	0	0	518	410	
8	0	0	0	0	517	409	
9	0	0	0	0	515	409	
10	0	0	0	0	515	410	
11	0	0	0	0	513	409	
12	0	0	0	0	511	410	
13	0	0	0	0	508	410	
14	0	0	0	0	506	409	
15	0	0	0	0	504	411	
0	0	0	0	0	501	410	
1	0	0	0	0	499	409	
2	0	0	0	0	496	409	
3	0	0	0	0	494	409	
4	0	0	0	0	492	410	
5	0	0	0	0	490	409	
6	0	0	0	0	488	409	
7	0	0	0	0	487	410	
8	0	0	0	0	486	410	
9	0	0	0	0	484	410	
10	0	0	0	0	483	410	
11	0	0	0	0	482	409	
12	0	0	0	0	481	410	
13	0	0	0	0	480	409	
14	0	0	0	0	480	410	
15	0	0	0	0	480	411	
0	0	0	0	0	480	411	
1	0	0	0	0	480	410	
2	0	0	0	0	480	409	
3	0	0	0	0	480	409	
4	0	0	0	0	481	408	
5	0	0	0	0	481	409	
6	0	0	0	0	482	409	
7	0	0	0	0	482	411	
8	0	0	0	0	481	410	
9	0	0	0	0	481	409	
10	0	0	0	0	481	411	
11	0	0	0	0	481	410	
12	0	0	0	0	481	411	
13	0	0	0	0	481	411	
14	0	0	0	0	480	410	
15	0	0	0	0	480	412	
0	0	0	0	0	479	409	
1	0	0	0	0	480	409	
2	0	0	0	0	481	409	
3	0	0	0	0	482	409	
4	0	0	0	0	483	409	
5	0	0	0	0	483	408	
6	0	0	0	0	483	409	
7	0	0	0	0	483	409	
8	0	0	0	0	484	409	
9	0	0	0	0	484	409	
10	0	0	0	0	484	409	
11	0	0	0	0	485	409	
12	0	0	0	0	488	409	
13	0	0	0	0	489	409	
14	0	0	0	0	487	409	
15	0	0	0	0	485	410	
0	0	0	0	0	482	410	
1	0	0	0	0	480	410	
2	0	0	0	0	479	410	
3	0	0	0	0	479	409	
4	0	0	0	0	480	410	
5	0	0	0	0	480	409	
6	0	0	0	0	480	410	
7	0	0	0	0	480	410	
8	0	0	0	0	481	409	
9	0	0	0	0	481	409	
10	0	0	0	0	481	409	
11	0	0	0	0	481	409	
12	0	0	0	0	483	409	
13	0	0	0	0	487	409	
14	0	0	0	0	488	408	
15	0	0	0	0	489	410	
0	0	0	0	0	490	409	
1	0	0	0	0	491	409	
2	0	0	0	0	492	409	
3	0	0	0	0	492	409	
4	0	0	0	0	492	410	
5	0	0	0	0	492	410	
6	0	0	0	0	493	411	
7	0	0	0	0	494	411	
8	0	0	0	0	495	410	
9	0	0	0	0	497	409	
10	0	0	0	0	499	409	
11	0	0	0	0	500	408	
12	0	0	0	0	501	409	
13	0	0	0	0	502	409	
14	0	0	0	0	502	409	
15	0	0	0	0	504	409	
0	0	0	0	0	505	408	
1	0	0	0	0	506	410	
2	0	0	0	0	507	409	
3	0	0	0	0	506	409	
4	0	0	0	0	504	409	
5	0	0	0	0	502	410	
6	0	0	0	0	499	409	
7	0	0	0	0	497	410	
8	0	0	0	0	495	409	
9	0	0	0	0	493	410	
10	0	0	0	0	493	409	
11	0	0	0	0	494	408	
12	0	0	0	0	493	409	
13	0	0	0	0	491	409	
14	0	0	0	0	488	409	
15	0	0	0	0	486	410	
0	0	0	0	0	484	409	
1	0	0	0	0	483	409	
2	0	0	0	0	486	410	
3	0	0	0	0	491	409	
4	0	0	0	0	494	409	
5	0	0	0	0	496	409	
6	0	0	0	0	496	410	
7	0	0	0	0	496	410	
8	0	0	0	0	499	409	
9	0	0	0	0	502	410	
10	0	0	0	0	506	409	
11	0	0	0	0	511	410	
12	0	0	0	0	513	410	
13	0	0	0	0	516	409	
14	0	0	0	0	519	410	
15	0	0	0	0	521	410	
0	0	0	0	0	520	409	
1	0	0	0	0	518	410	
2	0	0	0	0	512	409	
3	0	0	0	0	508	410	
4	0	0	0	0	505	411	
5	0	0	0	0	502	409	
6	0	0	0	0	497	409	
7	0	0	0	0	493	410	
8	0	0	0	0	488	410	
9	0	0	0	0	483	409	
10	0	0	0	0	480	410	
11	0	0	0	0	479	410	
12	0	0	0	0	479	411	
13	0	0	0	0	480	411	
14	0	0	0	0	482	409	
15	0	0	0	0	484	411	
0	0	0	0	0	487	409	
1	0	0	0	0	491	409	
2	0	0	0	0	493	409	
3	0	0	0	0	496	408	
4	0	0	0	0	497	409	
5	0	0	0	0	499	409	
6	0	0	0	0	502	409	
7	0	0	0	0	504	411	
8	0	0	0	0	507	409	
9	0	0	0	0	510	409	
10	0	0	0	0	512	410	
11	0	0	0	0	515	409	
12	0	0	0	0	516	409	
13	0	0	0	0	517	409	
14	0	0	0	0	518	409	
15	0	0	0	0	517	410	
0	0	0	0	0	515	409	
1	0	0	0	0	512	409	
2	0	0	0	0	509	409	
3	0	0	0	0	506	409	
4	0	0	0	0	505	410	
5	0	0	0	0	504	410	
6	0	0	0	0	505	409	
7	0	0	0	0	506	410	
8	0	0	0	0	508	409	
9	0	0	0	0	509	410	
10	0	0	0	0	512	410	
11	0	0	0	0	513	409	
12	0	0	0	0	514	409	
13	0	0	0	0	515	410	
14	0	0	0	0	515	410	
15	0	0	0	0	515	410	
0	0	0	0	0	515	409	
1	0	0	0	0	516	410	
2	0	0	0	0	516	410	
3	0	0	0	0	516	410	
4	0	0	0	0	516	410	
5	0	0	0	0	515	410	
6	0	0	0	0	515	410	
7	0	0	0	0	516	411	
8	0	0	0	0	516	409	
9	0	0	0	0	516	409	
10	0	0	0	0	516	409	
11	0	0	0	0	516	408	
12	0	0	0	0	516	408	
13	0	0	0	0	516	409	
14	0	0	0	0	517	409	
15	0	0	0	0	518	409	
0	0	0	0	0	519	409	
1	0	0	0	0	521	409	
2	0	0	0	0	522	409	
3	0	0	0	0	524	408	
4	0	0	0	0	524	408	
5	0	0	0	0	525	408	
6	0	0	0	0	527	409	
7	0	0	0	0	528	411	
8	0	0	0	0	529	410	
9	0	0	0	0	531	410	
10	0	0	0	0	531	409	
11	0	0	0	0	530	409	
12	0	0	0	0	529	410	
13	0	0	0	0	530	411	
14	0	0	0	0	529	410	
15	0	0	0	0	528	410	
0	0	0	0	0	527	411	
1	0	0	0	0	527	411	
2	0	0	0	0	527	409	
3	0	0	0	0	527	409	
4	0	0	0	0	528	409	
5	0	0	0	0	533	410	
6	0	0	0	0	538	409	
7	0	0	0	0	540	409	
8	0	0	0	0	540	409	
9	0	0	0	0	541	409	
10	0	0	0	0	541	409	
11	0	0	0	0	542	410	
12	0	0	0	0	543	409	
13	0	0	0	0	544	409	
14	0	0	0	0	544	409	
15	0	0	0	0	541	409	
0	0	0	0	0	540	408	
1	0	0	0	0	540	408	
2	0	0	0	0	539	409	
3	0	0	0	0	536	408	
4	0	0	0	0	533	409	
5	0	0	0	0	530	408	
6	0	0	0	0	528	408	
7	0	0	0	0	526	409	
8	0	0	0	0	524	408	
9	0	0	0	0	523	409	
10	0	0	0	0	521	409	
11	0	0	0	0	519	410	
12	0	0	0	0	518	411	
13	0	0	0	0	515	411	
14	0	0	0	0	515	411	
15	0	0	0	0	514	411	
0	0	0	0	0	515	410	
1	0	0	0	0	516	410	
2	0	0	0	0	516	409	
3	0	0	0	0	517	410	
4	0	0	0	0	518	410	
5	0	0	0	0	519	409	
6	0	0	0	0	519	410	
7	0	0	0	0	520	411	
8	0	0	0	0	523	411	
9	0	0	0	0	525	411	
10	0	0	0	0	527	412	
11	0	0	0	0	525	410	
12	0	0	0	0	521	410	
13	0	0	0	0	515	410	
14	0	0	0	0	510	410	
15	0	0	0	0	505	411	
0	0	0	0	0	500	409	
1	0	0	0	0	495	409	
2	0	0	0	0	491	409	
3	0	0	0	0	488	409	
4	0	0	0	0	486	410	
5	0	0	0	0	485	409	
6	0	0	0	0	486	410	
7	0	0	0	0	487	410	
8	0	0	0	0	487	410	
9	0	0	0	0	488	410	
10	0	0	0	0	488	409	
11	0	0	0	0	488	410	
12	0	0	0	0	487	410	
13	0	0	0	0	484	409	
14	0	0	0	0	481	409	
15	0	0	0	0	480	409	
0	0	0	0	0	478	409	
1	0	0	0	0	477	409	
2	0	0	0	0	476	410	
3	0	0	0	0	476	409	
4	0	0	0	0	476	410	
5	0	0	0	0	476	409	
6	0	0	0	0	476	410	
7	0	0	0	0	475	410	
8	0	0	0	0	475	409	
9	0	0	0	0	474	409	
10	0	0	0	0	474	409	
11	0	0	0	0	475	409	
12	0	0	0	0	476	409	
13	0	0	0	0	477	409	
14	0	0	0	0	478	408	
15	0	0	0	0	479	408	
0	0	0	0	0	480	409	
1	0	0	0	0	480	410	
2	0	0	0	0	481	411	
3	0	0	0	0	481	409	
4	0	0	0	0	481	411	
5	0	0	0	0	480	409	
6	0	0	0	0	479	409	
7	0	0	0	0	478	411	
8	0	0	0	0	478	409	
9	0	0	0	0	479	409	
10	0	0	0	0	480	409	
11	0	0	0	0	481	409	
12	0	0	0	0	480	410	
13	0	0	0	0	481	409	
14	0	0	0	0	482	410	
15	0	0	0	0	483	410	
0	0	0	0	0	483	410	
1	0	0	0	0	484	410	
2	0	0	0	0	486	409	
3	0	0	0	0	488	408	
4	0	0	0	0	491	409	
5	0	0	0	0	493	409	
6	0	0	0	0	495	409	
7	0	0	0	0	495	410	
8	0	0	0	0	495	409	
9	0	0	0	0	495	409	
10	0	0	0	0	495	409	
11	0	0	0	0	497	409	
12	0	0	0	0	498	409	
13	0	0	0	0	497	409	
14	0	0	0	0	496	409	
15	0	0	0	0	494	411	
0	0	0	0	0	491	409	
1	0	0	0	0	491	409	
2	0	0	0	0	492	410	
3	0	0	0	0	493	409	
4	0	0	0	0	492	410	
5	0	0	0	0	491	410	
6	0	0	0	0	491	410	
7	0	0	0	0	495	410	
8	0	0	0	0	499	410	
9	0	0	0	0	499	410	
10	0	0	0	0	499	410	
11	0	0	0	0	497	410	
12	0	0	0	0	496	410	
13	0	0	0	0	495	409	
14	0	0	0	0	495	410	
15	0	0	0	0	495	411	
0	0	0	0	0	496	410	
1	0	0	0	0	497	409	
2	0	0	0	0	499	410	
3	0	0	0	0	500	408	
4	0	0	0	0	502	410	
5	0	0	0	0	504	410	
6	0	0	0	0	504	409	
7	0	0	0	0	503	411	
8	0	0	0	0	501	409	
9	0	0	0	0	500	409	
10	0	0	0	0	500	409	
11	0	0	0	0	499	409	
12	0	0	0	0	496	409	
13	0	0	0	0	494	409	
14	0	0	0	0	493	410	
15	0	0	0	0	491	410	
0	0	0	0	0	491	410	
1	0	0	0	0	493	410	
2	0	0	0	0	494	409	
3	0	0	0	0	494	409	
4	0	0	0	0	494	409	
5	0	0	0	0	493	409	
6	0	0	0	0	493	409	
7	0	0	0	0	493	410	
8	0	0	0	0	494	409	
9	0	0	0	0	495	410	
10	0	0	0	0	497	409	
11	0	0	0	0	499	409	
12	0	0	0	0	500	409	
13	0	0	0	0	502	409	
14	0	0	0	0	503	409	
15	0	0	0	0	503	410	
0	0	0	0	0	503	409	
1	0	0	0	0	503	409	
2	0	0	0	0	503	409	
3	0	0	0	0	502	409	
4	0	0	0	0	502	409	
5	0	0	0	0	503	409	
6	0	0	0	0	503	409	
7	0	0	0	0	504	410	
8	0	0	0	0	504	409	
9	0	0	0	0	504	409	
10	0	0	0	0	504	409	
11	0	0	0	0	505	409	
12	0	0	0	0	504	410	
13	0	0	0	0	505	410	
14	0	0	0	0	505	409	
15	0	0	0	0	506	410	
0	0	0	0	0	506	409	
1	0	0	0	0	507	410	
2	0	0	0	0	506	410	
3	0	0	0	0	503	409	
4	0	0	0	0	502	410	
5	0	0	0	0	501	410	
6	0	0	0	0	500	410	
7	0	0	0	0	499	410	
8	0	0	0	0	499	409	
9	0	0	0	0	500	409	
10	0	0	0	0	500	409	
11	0	0	0	0	500	409	
12	0	0	0	0	502	409	
13	0	0	0	0	502	410	
14	0	0	0	0	504	410	
15	0	0	0	0	505	411	
0	0	0	0	0	508	409	
1	0	0	0	0	509	409	
2	0	0	0	0	510	410	
3	0	0	0	0	510	409	
4	0	0	0	0	509	409	
5	0	0	0	0	508	408	
6	0	0	0	0	506	409	
7	0	0	0	0	505	410	
8	0	0	0	0	504	409	
9	0	0	0	0	502	409	
10	0	0	0	0	499	409	
11	0	0	0	0	496	409	
12	0	0	0	0	494	410	
13	0	0	0	0	494	410	
14	0	0	0	0	496	410	
15	0	0	0	0	498	411	
0	0	0	0	0	499	409	
1	0	0	0	0	500	410	
2	0	0	0	0	502	409	
3	0	0	0	0	504	409	
4	0	0	0	0	506	410	
5	0	0	0	0	508	410	
6	0	0	0	0	507	409	
7	0	0	0	0	507	410	
8	0	0	0	0	507	409	
9	0	0	0	0	507	410	
10	0	0	0	0	506	409	
11	0	0	0	0	504	408	
12	0	0	0	0	503	410	
13	0	0	0	0	501	409	
14	0	0	0	0	499	409	
15	0	0	0	0	498	410	
0	0	0	0	0	497	409	
1	0	0	0	0	497	409	
2	0	0	0	0	497	409	
3	0	0	0	0	497	409	
4	0	0	0	0	499	409	
5	0	0	0	0	500	408	
6	0	0	0	0	502	410	
7	0	0	0	0	502	411	
8	0	0	0	0	502	410	
9	0	0	0	0	503	410	
10	0	0	0	0	503	410	
11	0	0	0	0	504	410	
12	0	0	0	0	504	410	
13	0	0	0	0	506	411	
14	0	0	0	0	508	410	
15	0	0	0	0	508	411	
0	0	0	0	0	511	410	
1	0	0	0	0	512	410	
2	0	0	0	0	513	410	
3	0	0	0	0	513	410	
4	0	0	0	0	514	409	
5	0	0	0	0	515	410	
6	0	0	0	0	515	410	
7	0	0	0	0	515	410	
8	0	0	0	0	516	409	
9	0	0	0	0	515	409	
10	0	0	0	0	513	409	
11	0	0	0	0	510	409	
12	0	0	0	0	508	409	
13	0	0	0	0	507	410	
14	0	0	0	0	507	409	
15	0	0	0	0	507	410	
0	0	0	0	0	508	409	
1	0	0	0	0	509	409	
2	0	0	0	0	510	410	
3	0	0	0	0	511	409	
4	0	0	0	0	512	409	
5	0	0	0	0	512	409	
6	0	0	0	0	512	409	
7	0	0	0	0	513	410	
8	0	0	0	0	516	409	
9	0	0	0	0	519	410	
10	0	0	0	0	519	409	
11	0	0	0	0	518	409	
12	0	0	0	0	519	409	
13	0	0	0	0	518	409	
14	0	0	0	0	518	410	
15	0	0	0	0	519	410	
0	0	0	0	0	519	409	
1	0	0	0	0	519	410	
2	0	0	0	0	519	409	
3	0	0	0	0	519	409	
4	0	0	0	0	519	409	
5	0	0	0	0	522	410	
6	0	0	0	0	525	409	
7	0	0	0	0	525	410	
8	0	0	0	0	524	409	
9	0	0	0	0	523	409	
10	0	0	0	0	522	409	
11	0	0	0	0	521	409	
12	0	0	0	0	523	410	
13	0	0	0	0	526	410	
14	0	0	0	0	529	409	
15	0	0	0	0	531	411	
0	0	0	0	0	531	409	
1	0	0	0	0	530	409	
2	0	0	0	0	530	409	
3	0	0	0	0	527	409	
4	0	0	0	0	524	409	
5	0	0	0	0	524	409	
6	0	0	0	0	525	410	
7	0	0	0	0	523	410	
8	0	0	0	0	520	409	
9	0	0	0	0	516	410	
10	0	0	0	0	512	410	
11	0	0	0	0	510	409	
12	0	0	0	0	508	410	
13	0	0	0	0	508	409	
14	0	0	0	0	508	409	
15	0	0	0	0	508	411	
0	0	0	0	0	508	409	
1	0	0	0	0	509	409	
2	0	0	0	0	509	409	
3	0	0	0	0	509	409	
4	0	0	0	0	508	409	
5	0	0	0	0	507	409	
6	0	0	0	0	507	409	
7	0	0	0	0	507	410	
8	0	0	0	0	508	409	
9	0	0	0	0	509	410	
10	0	0	0	0	510	409	
11	0	0	0	0	513	409	
12	0	0	0	0	516	409	
13	0	0	0	0	519	410	
14	0	0	0	0	524	410	
15	0	0	0	0	526	410	
0	0	0	0	0	528	409	
1	0	0	0	0	528	409	
2	0	0	0	0	527	409	
3	0	0	0	0	526	409	
4	0	0	0	0	525	409	
5	0	0	0	0	524	409	
6	0	0	0	0	522	409	
7	0	0	0	0	519	410	
8	0	0	0	0	515	409	
9	0	0	0	0	510	409	
10	0	0	0	0	504	409	
11	0	0	0	0	500	409	
12	0	0	0	0	500	410	
13	0	0	0	0	504	409	
14	0	0	0	0	507	410	
15	0	0	0	0	507	411	
0	0	0	0	0	506	409	
1	0	0	0	0	505	409	
2	0	0	0	0	505	409	
3	0	0	0	0	505	409	
4	0	0	0	0	505	409	
5	0	0	0	0	505	410	
6	0	0	0	0	505	410	
7	0	0	0	0	505	411	
8	0	0	0	0	505	410	
9	0	0	0	0	508	410	
10	0	0	0	0	511	410	
11	0	0	0	0	514	410	
12	0	0	0	0	516	410	
13	0	0	0	0	517	409	
14	0	0	0	0	517	409	
15	0	0	0	0	518	410	
0	0	0	0	0	519	409	
1	0	0	0	0	519	409	
2	0	0	0	0	519	410	
3	0	0	0	0	517	409	
