# OpenSignals Text File Format. Version 1
# {"98:D3:91:FD:59:64": {"position": 0, "device": "bitalino_rev", "device name": "98:D3:91:FD:59:64", "device connection": "BTH98:D3:91:FD:59:64", "sampling rate": 1000, "resolution": [4, 1, 1, 1, 1, 10, 10], "firmware version": 1281, "comments": "", "keywords": "", "mode": 0, "sync interval": 2, "date": "2021-9-5", "time": "17:9:30.607", "channels": [2, 5], "sensor": ["RAW", "RAW"], "label": ["A2", "A5"], "column": ["nSeq", "I1", "I2", "O1", "O2", "A2", "A5"], "special": [{}, {}], "digital IO": [0, 0, 1, 1], "convertedValues": 0}}
# EndOfHeader
0	0	0	0	0	450	620	
1	0	0	0	0	451	620	
2	0	0	0	0	451	620	
3	0	0	0	0	451	622	
4	0	0	0	0	451	621	
5	0	0	0	0	451	620	
6	0	0	0	0	452	620	
7	0	0	0	0	452	618	
8	0	0	0	0	453	620	
9	0	0	0	0	453	620	
10	0	0	0	0	454	620	
11	0	0	0	0	454	622	
12	0	0	0	0	455	620	
13	0	0	0	0	455	620	
14	0	0	0	0	456	620	
15	0	0	0	0	456	619	
0	0	0	0	0	456	620	
1	0	0	0	0	456	620	
2	0	0	0	0	457	620	
3	0	0	0	0	458	622	
4	0	0	0	0	459	620	
5	0	0	0	0	460	620	
6	0	0	0	0	460	620	
7	0	0	0	0	460	618	
8	0	0	0	0	460	620	
9	0	0	0	0	460	620	
10	0	0	0	0	460	620	
11	0	0	0	0	461	622	
12	0	0	0	0	461	620	
13	0	0	0	0	462	620	
14	0	0	0	0	462	620	
15	0	0	0	0	463	618	
0	0	0	0	0	464	620	
1	0	0	0	0	465	620	
2	0	0	0	0	465	620	
3	0	0	0	0	465	622	
4	0	0	0	0	466	620	
5	0	0	0	0	467	620	
6	0	0	0	0	467	620	
7	0	0	0	0	467	618	
8	0	0	0	0	468	620	
9	0	0	0	0	468	620	
10	0	0	0	0	468	619	
11	0	0	0	0	468	621	
12	0	0	0	0	468	619	
13	0	0	0	0	468	619	
14	0	0	0	0	468	619	
15	0	0	0	0	468	617	
0	0	0	0	0	468	619	
1	0	0	0	0	468	619	
2	0	0	0	0	468	618	
3	0	0	0	0	468	620	
4	0	0	0	0	469	618	
5	0	0	0	0	468	619	
6	0	0	0	0	469	619	
7	0	0	0	0	470	616	
8	0	0	0	0	470	618	
9	0	0	0	0	471	618	
10	0	0	0	0	470	619	
11	0	0	0	0	471	620	
12	0	0	0	0	471	619	
13	0	0	0	0	471	619	
14	0	0	0	0	472	619	
15	0	0	0	0	472	616	
0	0	0	0	0	472	619	
1	0	0	0	0	472	619	
2	0	0	0	0	473	619	
3	0	0	0	0	473	620	
4	0	0	0	0	473	619	
5	0	0	0	0	474	619	
6	0	0	0	0	475	619	
7	0	0	0	0	476	616	
8	0	0	0	0	477	619	
9	0	0	0	0	477	618	
10	0	0	0	0	477	619	
11	0	0	0	0	478	621	
12	0	0	0	0	479	619	
13	0	0	0	0	479	619	
14	0	0	0	0	479	619	
15	0	0	0	0	480	618	
0	0	0	0	0	480	620	
1	0	0	0	0	481	620	
2	0	0	0	0	480	620	
3	0	0	0	0	481	621	
4	0	0	0	0	482	620	
5	0	0	0	0	483	620	
6	0	0	0	0	482	619	
7	0	0	0	0	482	617	
8	0	0	0	0	482	620	
9	0	0	0	0	483	620	
10	0	0	0	0	483	620	
11	0	0	0	0	484	621	
12	0	0	0	0	485	620	
13	0	0	0	0	486	620	
14	0	0	0	0	486	620	
15	0	0	0	0	487	618	
0	0	0	0	0	487	619	
1	0	0	0	0	487	619	
2	0	0	0	0	487	619	
3	0	0	0	0	488	621	
4	0	0	0	0	489	620	
5	0	0	0	0	490	619	
6	0	0	0	0	490	620	
7	0	0	0	0	491	617	
8	0	0	0	0	491	620	
9	0	0	0	0	492	620	
10	0	0	0	0	492	619	
11	0	0	0	0	494	622	
12	0	0	0	0	494	619	
13	0	0	0	0	495	619	
14	0	0	0	0	496	620	
15	0	0	0	0	496	617	
0	0	0	0	0	497	619	
1	0	0	0	0	497	619	
2	0	0	0	0	497	620	
3	0	0	0	0	498	621	
4	0	0	0	0	499	620	
5	0	0	0	0	501	619	
6	0	0	0	0	503	618	
7	0	0	0	0	504	617	
8	0	0	0	0	505	619	
9	0	0	0	0	506	619	
10	0	0	0	0	508	619	
11	0	0	0	0	508	620	
12	0	0	0	0	509	618	
13	0	0	0	0	510	618	
14	0	0	0	0	512	618	
15	0	0	0	0	513	616	
0	0	0	0	0	514	618	
1	0	0	0	0	515	618	
2	0	0	0	0	516	619	
3	0	0	0	0	517	620	
4	0	0	0	0	518	618	
5	0	0	0	0	519	618	
6	0	0	0	0	519	618	
7	0	0	0	0	521	616	
8	0	0	0	0	521	618	
9	0	0	0	0	523	618	
10	0	0	0	0	524	619	
11	0	0	0	0	524	620	
12	0	0	0	0	525	619	
13	0	0	0	0	526	619	
14	0	0	0	0	527	619	
15	0	0	0	0	528	617	
0	0	0	0	0	529	619	
1	0	0	0	0	531	619	
2	0	0	0	0	531	619	
3	0	0	0	0	533	621	
4	0	0	0	0	533	619	
5	0	0	0	0	535	619	
6	0	0	0	0	536	619	
7	0	0	0	0	536	617	
8	0	0	0	0	537	619	
9	0	0	0	0	537	619	
10	0	0	0	0	538	619	
11	0	0	0	0	539	621	
12	0	0	0	0	540	619	
13	0	0	0	0	540	619	
14	0	0	0	0	541	619	
15	0	0	0	0	542	617	
0	0	0	0	0	542	619	
1	0	0	0	0	542	619	
2	0	0	0	0	542	619	
3	0	0	0	0	542	621	
4	0	0	0	0	542	619	
5	0	0	0	0	542	619	
6	0	0	0	0	541	619	
7	0	0	0	0	540	616	
8	0	0	0	0	540	619	
9	0	0	0	0	540	620	
10	0	0	0	0	540	619	
11	0	0	0	0	540	620	
12	0	0	0	0	540	619	
13	0	0	0	0	539	619	
14	0	0	0	0	539	620	
15	0	0	0	0	539	618	
0	0	0	0	0	539	620	
1	0	0	0	0	539	620	
2	0	0	0	0	538	619	
3	0	0	0	0	537	622	
4	0	0	0	0	536	620	
5	0	0	0	0	536	620	
6	0	0	0	0	535	620	
7	0	0	0	0	534	619	
8	0	0	0	0	532	620	
9	0	0	0	0	531	621	
10	0	0	0	0	530	621	
11	0	0	0	0	529	623	
12	0	0	0	0	527	621	
13	0	0	0	0	526	621	
14	0	0	0	0	524	621	
15	0	0	0	0	523	620	
0	0	0	0	0	521	622	
1	0	0	0	0	521	621	
2	0	0	0	0	520	621	
3	0	0	0	0	519	622	
4	0	0	0	0	517	621	
5	0	0	0	0	516	620	
6	0	0	0	0	514	620	
7	0	0	0	0	513	619	
8	0	0	0	0	511	620	
9	0	0	0	0	511	621	
10	0	0	0	0	508	621	
11	0	0	0	0	507	623	
12	0	0	0	0	506	621	
13	0	0	0	0	504	620	
14	0	0	0	0	504	621	
15	0	0	0	0	503	619	
0	0	0	0	0	502	621	
1	0	0	0	0	500	621	
2	0	0	0	0	499	621	
3	0	0	0	0	500	623	
4	0	0	0	0	499	621	
5	0	0	0	0	498	621	
6	0	0	0	0	497	621	
7	0	0	0	0	497	619	
8	0	0	0	0	497	621	
9	0	0	0	0	495	621	
10	0	0	0	0	496	621	
11	0	0	0	0	495	623	
12	0	0	0	0	494	620	
13	0	0	0	0	493	620	
14	0	0	0	0	493	620	
15	0	0	0	0	492	619	
0	0	0	0	0	492	621	
1	0	0	0	0	492	620	
2	0	0	0	0	492	620	
3	0	0	0	0	491	622	
4	0	0	0	0	490	620	
5	0	0	0	0	490	620	
6	0	0	0	0	490	621	
7	0	0	0	0	490	619	
8	0	0	0	0	490	620	
9	0	0	0	0	489	620	
10	0	0	0	0	490	621	
11	0	0	0	0	490	622	
12	0	0	0	0	489	621	
13	0	0	0	0	488	621	
14	0	0	0	0	488	620	
15	0	0	0	0	488	619	
0	0	0	0	0	488	620	
1	0	0	0	0	487	620	
2	0	0	0	0	487	620	
3	0	0	0	0	487	622	
4	0	0	0	0	488	620	
5	0	0	0	0	488	620	
6	0	0	0	0	487	620	
7	0	0	0	0	488	618	
8	0	0	0	0	489	620	
9	0	0	0	0	489	620	
10	0	0	0	0	489	620	
11	0	0	0	0	489	622	
12	0	0	0	0	488	620	
13	0	0	0	0	489	620	
14	0	0	0	0	488	620	
15	0	0	0	0	487	619	
0	0	0	0	0	487	620	
1	0	0	0	0	487	620	
2	0	0	0	0	487	620	
3	0	0	0	0	488	622	
4	0	0	0	0	488	619	
5	0	0	0	0	487	619	
6	0	0	0	0	488	619	
7	0	0	0	0	488	617	
8	0	0	0	0	488	619	
9	0	0	0	0	489	619	
10	0	0	0	0	489	619	
11	0	0	0	0	489	621	
12	0	0	0	0	489	620	
13	0	0	0	0	488	620	
14	0	0	0	0	487	620	
15	0	0	0	0	487	618	
0	0	0	0	0	487	620	
1	0	0	0	0	487	620	
2	0	0	0	0	487	620	
3	0	0	0	0	488	621	
4	0	0	0	0	488	620	
5	0	0	0	0	488	620	
6	0	0	0	0	489	620	
7	0	0	0	0	489	617	
8	0	0	0	0	489	620	
9	0	0	0	0	489	619	
10	0	0	0	0	488	620	
11	0	0	0	0	489	621	
12	0	0	0	0	488	619	
13	0	0	0	0	488	619	
14	0	0	0	0	488	620	
15	0	0	0	0	488	617	
0	0	0	0	0	487	620	
1	0	0	0	0	488	620	
2	0	0	0	0	488	620	
3	0	0	0	0	489	622	
4	0	0	0	0	488	620	
5	0	0	0	0	488	621	
6	0	0	0	0	488	620	
7	0	0	0	0	489	620	
8	0	0	0	0	488	621	
9	0	0	0	0	488	622	
10	0	0	0	0	489	620	
11	0	0	0	0	489	623	
12	0	0	0	0	488	621	
13	0	0	0	0	489	620	
14	0	0	0	0	489	620	
15	0	0	0	0	489	618	
0	0	0	0	0	490	620	
1	0	0	0	0	490	620	
2	0	0	0	0	491	620	
3	0	0	0	0	492	621	
4	0	0	0	0	492	620	
5	0	0	0	0	492	620	
6	0	0	0	0	493	620	
7	0	0	0	0	493	617	
8	0	0	0	0	493	620	
9	0	0	0	0	494	620	
10	0	0	0	0	493	620	
11	0	0	0	0	492	621	
12	0	0	0	0	492	620	
13	0	0	0	0	492	620	
14	0	0	0	0	493	620	
15	0	0	0	0	493	619	
0	0	0	0	0	494	620	
1	0	0	0	0	493	620	
2	0	0	0	0	492	620	
3	0	0	0	0	492	621	
4	0	0	0	0	494	620	
5	0	0	0	0	494	620	
6	0	0	0	0	494	619	
7	0	0	0	0	495	617	
8	0	0	0	0	495	620	
9	0	0	0	0	496	620	
10	0	0	0	0	496	619	
11	0	0	0	0	496	620	
12	0	0	0	0	496	619	
13	0	0	0	0	497	620	
14	0	0	0	0	497	619	
15	0	0	0	0	497	616	
0	0	0	0	0	498	619	
1	0	0	0	0	497	619	
2	0	0	0	0	498	619	
3	0	0	0	0	498	620	
4	0	0	0	0	498	620	
5	0	0	0	0	498	619	
6	0	0	0	0	499	619	
7	0	0	0	0	499	616	
8	0	0	0	0	500	618	
9	0	0	0	0	500	618	
10	0	0	0	0	500	618	
11	0	0	0	0	500	620	
12	0	0	0	0	499	618	
13	0	0	0	0	500	618	
14	0	0	0	0	500	617	
15	0	0	0	0	500	616	
0	0	0	0	0	501	618	
1	0	0	0	0	501	618	
2	0	0	0	0	502	619	
3	0	0	0	0	502	620	
4	0	0	0	0	502	619	
5	0	0	0	0	501	618	
6	0	0	0	0	501	618	
7	0	0	0	0	501	616	
8	0	0	0	0	501	619	
9	0	0	0	0	502	619	
10	0	0	0	0	503	619	
11	0	0	0	0	504	621	
12	0	0	0	0	504	620	
13	0	0	0	0	504	620	
14	0	0	0	0	504	620	
15	0	0	0	0	504	618	
0	0	0	0	0	505	621	
1	0	0	0	0	506	620	
2	0	0	0	0	505	620	
3	0	0	0	0	505	622	
4	0	0	0	0	505	621	
5	0	0	0	0	504	620	
6	0	0	0	0	504	621	
7	0	0	0	0	504	619	
8	0	0	0	0	504	621	
9	0	0	0	0	504	620	
10	0	0	0	0	504	620	
11	0	0	0	0	504	622	
12	0	0	0	0	505	621	
13	0	0	0	0	505	620	
14	0	0	0	0	505	621	
15	0	0	0	0	507	618	
0	0	0	0	0	508	621	
1	0	0	0	0	508	621	
2	0	0	0	0	508	621	
3	0	0	0	0	508	622	
4	0	0	0	0	508	620	
5	0	0	0	0	508	620	
6	0	0	0	0	508	620	
7	0	0	0	0	508	618	
8	0	0	0	0	508	620	
9	0	0	0	0	508	620	
10	0	0	0	0	508	620	
11	0	0	0	0	508	621	
12	0	0	0	0	509	620	
13	0	0	0	0	508	619	
14	0	0	0	0	508	619	
15	0	0	0	0	508	617	
0	0	0	0	0	508	619	
1	0	0	0	0	508	619	
2	0	0	0	0	508	618	
3	0	0	0	0	508	620	
4	0	0	0	0	509	619	
5	0	0	0	0	508	619	
6	0	0	0	0	508	619	
7	0	0	0	0	508	618	
8	0	0	0	0	509	620	
9	0	0	0	0	509	620	
10	0	0	0	0	508	620	
11	0	0	0	0	508	622	
12	0	0	0	0	508	621	
13	0	0	0	0	508	620	
14	0	0	0	0	508	622	
15	0	0	0	0	509	619	
0	0	0	0	0	508	621	
1	0	0	0	0	507	621	
2	0	0	0	0	507	620	
3	0	0	0	0	508	623	
4	0	0	0	0	508	621	
5	0	0	0	0	507	621	
6	0	0	0	0	507	620	
7	0	0	0	0	508	619	
8	0	0	0	0	508	621	
9	0	0	0	0	507	620	
10	0	0	0	0	507	620	
11	0	0	0	0	507	623	
12	0	0	0	0	507	620	
13	0	0	0	0	507	620	
14	0	0	0	0	507	621	
15	0	0	0	0	507	619	
0	0	0	0	0	507	621	
1	0	0	0	0	505	621	
2	0	0	0	0	505	621	
3	0	0	0	0	505	623	
4	0	0	0	0	505	621	
5	0	0	0	0	505	621	
6	0	0	0	0	505	621	
7	0	0	0	0	505	619	
8	0	0	0	0	505	621	
9	0	0	0	0	505	621	
10	0	0	0	0	505	621	
11	0	0	0	0	506	623	
12	0	0	0	0	507	620	
13	0	0	0	0	507	620	
14	0	0	0	0	507	620	
15	0	0	0	0	508	617	
0	0	0	0	0	508	620	
1	0	0	0	0	507	620	
2	0	0	0	0	507	620	
3	0	0	0	0	508	622	
4	0	0	0	0	508	620	
5	0	0	0	0	508	621	
6	0	0	0	0	508	620	
7	0	0	0	0	508	617	
8	0	0	0	0	508	619	
9	0	0	0	0	508	620	
10	0	0	0	0	508	619	
11	0	0	0	0	508	622	
12	0	0	0	0	508	620	
13	0	0	0	0	508	620	
14	0	0	0	0	507	620	
15	0	0	0	0	507	618	
0	0	0	0	0	507	620	
1	0	0	0	0	507	620	
2	0	0	0	0	507	620	
3	0	0	0	0	506	622	
4	0	0	0	0	507	620	
5	0	0	0	0	507	620	
6	0	0	0	0	506	620	
7	0	0	0	0	505	618	
8	0	0	0	0	505	620	
9	0	0	0	0	505	620	
10	0	0	0	0	504	620	
11	0	0	0	0	504	622	
12	0	0	0	0	504	620	
13	0	0	0	0	504	620	
14	0	0	0	0	504	620	
15	0	0	0	0	503	617	
0	0	0	0	0	504	620	
1	0	0	0	0	506	620	
2	0	0	0	0	505	619	
3	0	0	0	0	505	621	
4	0	0	0	0	505	620	
5	0	0	0	0	505	619	
6	0	0	0	0	505	619	
7	0	0	0	0	505	618	
8	0	0	0	0	504	620	
9	0	0	0	0	504	619	
10	0	0	0	0	504	620	
11	0	0	0	0	505	621	
12	0	0	0	0	505	620	
13	0	0	0	0	505	619	
14	0	0	0	0	505	619	
15	0	0	0	0	506	617	
0	0	0	0	0	506	619	
1	0	0	0	0	506	619	
2	0	0	0	0	507	619	
3	0	0	0	0	507	622	
4	0	0	0	0	506	619	
5	0	0	0	0	505	619	
6	0	0	0	0	504	619	
7	0	0	0	0	504	617	
8	0	0	0	0	505	620	
9	0	0	0	0	505	620	
10	0	0	0	0	506	619	
11	0	0	0	0	506	622	
12	0	0	0	0	506	620	
13	0	0	0	0	507	620	
14	0	0	0	0	507	620	
15	0	0	0	0	507	617	
0	0	0	0	0	506	620	
1	0	0	0	0	506	620	
2	0	0	0	0	505	620	
3	0	0	0	0	505	622	
4	0	0	0	0	504	619	
5	0	0	0	0	505	620	
6	0	0	0	0	505	620	
7	0	0	0	0	506	618	
8	0	0	0	0	505	620	
9	0	0	0	0	506	620	
10	0	0	0	0	506	620	
11	0	0	0	0	507	621	
12	0	0	0	0	506	619	
13	0	0	0	0	506	620	
14	0	0	0	0	506	619	
15	0	0	0	0	506	617	
0	0	0	0	0	507	619	
1	0	0	0	0	507	619	
2	0	0	0	0	505	619	
3	0	0	0	0	506	621	
4	0	0	0	0	507	619	
5	0	0	0	0	506	619	
6	0	0	0	0	507	619	
7	0	0	0	0	508	617	
8	0	0	0	0	508	619	
9	0	0	0	0	508	620	
10	0	0	0	0	508	620	
11	0	0	0	0	508	622	
12	0	0	0	0	507	619	
13	0	0	0	0	506	619	
14	0	0	0	0	506	619	
15	0	0	0	0	506	616	
0	0	0	0	0	505	619	
1	0	0	0	0	504	619	
2	0	0	0	0	504	619	
3	0	0	0	0	504	621	
4	0	0	0	0	504	619	
5	0	0	0	0	503	619	
6	0	0	0	0	503	619	
7	0	0	0	0	503	618	
8	0	0	0	0	503	619	
9	0	0	0	0	502	619	
10	0	0	0	0	502	619	
11	0	0	0	0	502	620	
12	0	0	0	0	502	619	
13	0	0	0	0	502	619	
14	0	0	0	0	500	619	
15	0	0	0	0	500	617	
0	0	0	0	0	499	619	
1	0	0	0	0	499	619	
2	0	0	0	0	500	618	
3	0	0	0	0	500	620	
4	0	0	0	0	501	619	
5	0	0	0	0	500	619	
6	0	0	0	0	500	618	
7	0	0	0	0	500	617	
8	0	0	0	0	501	619	
9	0	0	0	0	501	619	
10	0	0	0	0	501	619	
11	0	0	0	0	501	620	
12	0	0	0	0	502	619	
13	0	0	0	0	502	619	
14	0	0	0	0	503	619	
15	0	0	0	0	504	617	
0	0	0	0	0	505	619	
1	0	0	0	0	506	618	
2	0	0	0	0	506	619	
3	0	0	0	0	505	620	
4	0	0	0	0	507	618	
5	0	0	0	0	507	618	
6	0	0	0	0	507	618	
7	0	0	0	0	508	616	
8	0	0	0	0	508	618	
9	0	0	0	0	508	617	
10	0	0	0	0	509	617	
11	0	0	0	0	510	619	
12	0	0	0	0	511	618	
13	0	0	0	0	512	618	
14	0	0	0	0	513	618	
15	0	0	0	0	513	616	
0	0	0	0	0	514	618	
1	0	0	0	0	515	618	
2	0	0	0	0	516	618	
3	0	0	0	0	516	620	
4	0	0	0	0	517	619	
5	0	0	0	0	518	618	
6	0	0	0	0	518	619	
7	0	0	0	0	518	617	
8	0	0	0	0	517	619	
9	0	0	0	0	517	619	
10	0	0	0	0	517	619	
11	0	0	0	0	518	620	
12	0	0	0	0	518	619	
13	0	0	0	0	518	620	
14	0	0	0	0	517	620	
15	0	0	0	0	517	618	
0	0	0	0	0	516	620	
1	0	0	0	0	516	621	
2	0	0	0	0	516	620	
3	0	0	0	0	516	623	
4	0	0	0	0	515	621	
5	0	0	0	0	515	620	
6	0	0	0	0	515	621	
7	0	0	0	0	515	619	
8	0	0	0	0	514	621	
9	0	0	0	0	514	622	
10	0	0	0	0	514	622	
11	0	0	0	0	514	623	
12	0	0	0	0	513	621	
13	0	0	0	0	513	621	
14	0	0	0	0	513	621	
15	0	0	0	0	512	619	
0	0	0	0	0	513	621	
1	0	0	0	0	512	621	
2	0	0	0	0	512	621	
3	0	0	0	0	512	622	
4	0	0	0	0	514	621	
5	0	0	0	0	514	620	
6	0	0	0	0	514	620	
7	0	0	0	0	515	619	
8	0	0	0	0	515	620	
9	0	0	0	0	515	620	
10	0	0	0	0	515	620	
11	0	0	0	0	514	622	
12	0	0	0	0	514	620	
13	0	0	0	0	515	620	
14	0	0	0	0	515	620	
15	0	0	0	0	516	618	
0	0	0	0	0	515	619	
1	0	0	0	0	515	620	
2	0	0	0	0	515	620	
3	0	0	0	0	515	621	
4	0	0	0	0	515	620	
5	0	0	0	0	515	620	
6	0	0	0	0	515	619	
7	0	0	0	0	514	618	
8	0	0	0	0	515	619	
9	0	0	0	0	516	620	
10	0	0	0	0	516	620	
11	0	0	0	0	516	622	
12	0	0	0	0	516	620	
13	0	0	0	0	515	620	
14	0	0	0	0	514	620	
15	0	0	0	0	514	617	
0	0	0	0	0	513	620	
1	0	0	0	0	513	620	
2	0	0	0	0	512	620	
3	0	0	0	0	512	623	
4	0	0	0	0	512	620	
5	0	0	0	0	513	621	
6	0	0	0	0	514	621	
7	0	0	0	0	514	619	
8	0	0	0	0	514	621	
9	0	0	0	0	514	621	
10	0	0	0	0	514	621	
11	0	0	0	0	514	623	
12	0	0	0	0	513	621	
13	0	0	0	0	514	621	
14	0	0	0	0	514	620	
15	0	0	0	0	513	619	
0	0	0	0	0	513	620	
1	0	0	0	0	513	620	
2	0	0	0	0	513	620	
3	0	0	0	0	512	622	
4	0	0	0	0	511	621	
5	0	0	0	0	510	621	
6	0	0	0	0	507	621	
7	0	0	0	0	504	619	
8	0	0	0	0	499	621	
9	0	0	0	0	494	620	
10	0	0	0	0	487	622	
11	0	0	0	0	480	624	
12	0	0	0	0	473	622	
13	0	0	0	0	465	622	
14	0	0	0	0	456	622	
15	0	0	0	0	448	620	
0	0	0	0	0	440	622	
1	0	0	0	0	432	621	
2	0	0	0	0	427	621	
3	0	0	0	0	419	623	
4	0	0	0	0	411	622	
5	0	0	0	0	403	621	
6	0	0	0	0	398	621	
7	0	0	0	0	393	619	
8	0	0	0	0	391	620	
9	0	0	0	0	391	620	
10	0	0	0	0	395	620	
11	0	0	0	0	406	622	
12	0	0	0	0	419	620	
13	0	0	0	0	436	620	
14	0	0	0	0	460	620	
15	0	0	0	0	488	617	
0	0	0	0	0	520	620	
1	0	0	0	0	557	619	
2	0	0	0	0	599	618	
3	0	0	0	0	643	620	
4	0	0	0	0	687	618	
5	0	0	0	0	727	619	
6	0	0	0	0	762	619	
7	0	0	0	0	796	616	
8	0	0	0	0	828	618	
9	0	0	0	0	856	619	
10	0	0	0	0	877	619	
11	0	0	0	0	887	620	
12	0	0	0	0	890	619	
13	0	0	0	0	883	619	
14	0	0	0	0	870	618	
15	0	0	0	0	852	616	
0	0	0	0	0	827	619	
1	0	0	0	0	795	619	
2	0	0	0	0	760	619	
3	0	0	0	0	727	621	
4	0	0	0	0	699	620	
5	0	0	0	0	676	620	
6	0	0	0	0	660	619	
7	0	0	0	0	646	618	
8	0	0	0	0	635	620	
9	0	0	0	0	627	620	
10	0	0	0	0	622	620	
11	0	0	0	0	617	622	
12	0	0	0	0	611	620	
13	0	0	0	0	605	620	
14	0	0	0	0	600	621	
15	0	0	0	0	592	619	
0	0	0	0	0	583	620	
1	0	0	0	0	574	621	
2	0	0	0	0	564	621	
3	0	0	0	0	554	623	
4	0	0	0	0	543	621	
5	0	0	0	0	531	622	
6	0	0	0	0	519	621	
7	0	0	0	0	508	619	
8	0	0	0	0	499	621	
9	0	0	0	0	490	621	
10	0	0	0	0	481	621	
11	0	0	0	0	473	623	
12	0	0	0	0	467	621	
13	0	0	0	0	463	621	
14	0	0	0	0	459	621	
15	0	0	0	0	457	618	
0	0	0	0	0	455	620	
1	0	0	0	0	452	621	
2	0	0	0	0	451	620	
3	0	0	0	0	451	623	
4	0	0	0	0	450	620	
5	0	0	0	0	449	620	
6	0	0	0	0	450	620	
7	0	0	0	0	450	618	
8	0	0	0	0	450	620	
9	0	0	0	0	450	619	
10	0	0	0	0	449	620	
11	0	0	0	0	449	622	
12	0	0	0	0	449	620	
13	0	0	0	0	450	620	
14	0	0	0	0	450	620	
15	0	0	0	0	449	618	
0	0	0	0	0	449	620	
1	0	0	0	0	449	620	
2	0	0	0	0	450	620	
3	0	0	0	0	450	622	
4	0	0	0	0	451	620	
5	0	0	0	0	451	620	
6	0	0	0	0	451	620	
7	0	0	0	0	451	617	
8	0	0	0	0	451	620	
9	0	0	0	0	452	620	
10	0	0	0	0	453	619	
11	0	0	0	0	454	622	
12	0	0	0	0	455	619	
13	0	0	0	0	455	620	
14	0	0	0	0	454	620	
15	0	0	0	0	455	618	
0	0	0	0	0	456	620	
1	0	0	0	0	457	619	
2	0	0	0	0	458	620	
3	0	0	0	0	457	622	
4	0	0	0	0	457	620	
5	0	0	0	0	458	619	
6	0	0	0	0	458	620	
7	0	0	0	0	459	617	
8	0	0	0	0	460	620	
9	0	0	0	0	460	620	
10	0	0	0	0	461	620	
11	0	0	0	0	462	622	
12	0	0	0	0	462	620	
13	0	0	0	0	462	620	
14	0	0	0	0	462	620	
15	0	0	0	0	462	618	
0	0	0	0	0	462	620	
1	0	0	0	0	462	620	
2	0	0	0	0	463	620	
3	0	0	0	0	463	621	
4	0	0	0	0	463	620	
5	0	0	0	0	464	620	
6	0	0	0	0	465	620	
7	0	0	0	0	464	618	
8	0	0	0	0	464	620	
9	0	0	0	0	465	620	
10	0	0	0	0	464	620	
11	0	0	0	0	465	622	
12	0	0	0	0	466	620	
13	0	0	0	0	466	620	
14	0	0	0	0	467	620	
15	0	0	0	0	468	619	
0	0	0	0	0	468	621	
1	0	0	0	0	468	620	
2	0	0	0	0	467	621	
3	0	0	0	0	467	622	
4	0	0	0	0	467	620	
5	0	0	0	0	468	620	
6	0	0	0	0	469	620	
7	0	0	0	0	469	617	
8	0	0	0	0	468	620	
9	0	0	0	0	469	619	
10	0	0	0	0	469	619	
11	0	0	0	0	470	621	
12	0	0	0	0	470	620	
13	0	0	0	0	471	620	
14	0	0	0	0	472	620	
15	0	0	0	0	472	617	
0	0	0	0	0	472	620	
1	0	0	0	0	472	619	
2	0	0	0	0	472	619	
3	0	0	0	0	473	621	
4	0	0	0	0	473	619	
5	0	0	0	0	473	619	
6	0	0	0	0	474	619	
7	0	0	0	0	474	618	
8	0	0	0	0	474	620	
9	0	0	0	0	475	620	
10	0	0	0	0	474	620	
11	0	0	0	0	474	622	
12	0	0	0	0	475	620	
13	0	0	0	0	475	620	
14	0	0	0	0	475	620	
15	0	0	0	0	475	619	
0	0	0	0	0	473	620	
1	0	0	0	0	475	620	
2	0	0	0	0	475	620	
3	0	0	0	0	476	623	
4	0	0	0	0	476	620	
5	0	0	0	0	477	620	
6	0	0	0	0	478	621	
7	0	0	0	0	478	619	
8	0	0	0	0	479	620	
9	0	0	0	0	479	620	
10	0	0	0	0	480	620	
11	0	0	0	0	481	622	
12	0	0	0	0	481	620	
13	0	0	0	0	482	619	
14	0	0	0	0	482	619	
15	0	0	0	0	483	617	
0	0	0	0	0	483	619	
1	0	0	0	0	483	619	
2	0	0	0	0	484	619	
3	0	0	0	0	484	621	
4	0	0	0	0	485	619	
5	0	0	0	0	486	619	
6	0	0	0	0	486	619	
7	0	0	0	0	487	617	
8	0	0	0	0	488	619	
9	0	0	0	0	489	620	
10	0	0	0	0	491	620	
11	0	0	0	0	490	621	
12	0	0	0	0	491	620	
13	0	0	0	0	491	620	
14	0	0	0	0	491	620	
15	0	0	0	0	491	618	
0	0	0	0	0	492	620	
1	0	0	0	0	492	620	
2	0	0	0	0	493	620	
3	0	0	0	0	493	621	
4	0	0	0	0	494	620	
5	0	0	0	0	495	620	
6	0	0	0	0	495	620	
7	0	0	0	0	496	618	
8	0	0	0	0	496	620	
9	0	0	0	0	497	620	
10	0	0	0	0	499	620	
11	0	0	0	0	500	622	
12	0	0	0	0	502	620	
13	0	0	0	0	503	619	
14	0	0	0	0	504	620	
15	0	0	0	0	505	618	
0	0	0	0	0	506	620	
1	0	0	0	0	507	620	
2	0	0	0	0	508	620	
3	0	0	0	0	509	621	
4	0	0	0	0	510	620	
5	0	0	0	0	511	619	
6	0	0	0	0	513	620	
7	0	0	0	0	515	618	
8	0	0	0	0	516	620	
9	0	0	0	0	518	620	
10	0	0	0	0	518	619	
11	0	0	0	0	519	622	
12	0	0	0	0	520	620	
13	0	0	0	0	521	620	
14	0	0	0	0	521	620	
15	0	0	0	0	523	618	
0	0	0	0	0	523	620	
1	0	0	0	0	524	619	
2	0	0	0	0	527	620	
3	0	0	0	0	529	622	
4	0	0	0	0	529	620	
5	0	0	0	0	530	619	
6	0	0	0	0	531	620	
7	0	0	0	0	532	619	
8	0	0	0	0	532	619	
9	0	0	0	0	534	619	
10	0	0	0	0	534	619	
11	0	0	0	0	534	622	
12	0	0	0	0	534	620	
13	0	0	0	0	535	619	
14	0	0	0	0	536	619	
15	0	0	0	0	536	617	
0	0	0	0	0	536	619	
1	0	0	0	0	536	619	
2	0	0	0	0	535	619	
3	0	0	0	0	536	621	
4	0	0	0	0	537	619	
5	0	0	0	0	536	620	
6	0	0	0	0	536	619	
7	0	0	0	0	536	617	
8	0	0	0	0	536	619	
9	0	0	0	0	536	620	
10	0	0	0	0	536	620	
11	0	0	0	0	536	622	
12	0	0	0	0	536	619	
13	0	0	0	0	536	619	
14	0	0	0	0	536	620	
15	0	0	0	0	536	617	
0	0	0	0	0	536	619	
1	0	0	0	0	536	620	
2	0	0	0	0	536	620	
3	0	0	0	0	535	621	
4	0	0	0	0	534	620	
5	0	0	0	0	533	620	
6	0	0	0	0	532	620	
7	0	0	0	0	531	618	
8	0	0	0	0	531	620	
9	0	0	0	0	530	620	
10	0	0	0	0	529	620	
11	0	0	0	0	528	622	
12	0	0	0	0	527	620	
13	0	0	0	0	524	620	
14	0	0	0	0	523	620	
15	0	0	0	0	521	618	
0	0	0	0	0	520	620	
1	0	0	0	0	519	620	
2	0	0	0	0	518	620	
3	0	0	0	0	517	622	
4	0	0	0	0	516	620	
5	0	0	0	0	515	620	
6	0	0	0	0	512	620	
7	0	0	0	0	511	617	
8	0	0	0	0	510	620	
9	0	0	0	0	509	620	
10	0	0	0	0	508	620	
11	0	0	0	0	507	622	
12	0	0	0	0	506	620	
13	0	0	0	0	504	619	
14	0	0	0	0	503	620	
15	0	0	0	0	502	617	
0	0	0	0	0	500	619	
1	0	0	0	0	499	619	
2	0	0	0	0	498	619	
3	0	0	0	0	497	621	
4	0	0	0	0	496	619	
5	0	0	0	0	496	620	
6	0	0	0	0	496	619	
7	0	0	0	0	495	617	
8	0	0	0	0	494	619	
9	0	0	0	0	494	619	
10	0	0	0	0	493	619	
11	0	0	0	0	493	621	
12	0	0	0	0	493	619	
13	0	0	0	0	492	619	
14	0	0	0	0	490	619	
15	0	0	0	0	490	617	
0	0	0	0	0	489	618	
1	0	0	0	0	489	619	
2	0	0	0	0	488	618	
3	0	0	0	0	488	620	
4	0	0	0	0	488	618	
5	0	0	0	0	488	618	
6	0	0	0	0	487	618	
7	0	0	0	0	487	617	
8	0	0	0	0	486	619	
9	0	0	0	0	486	619	
10	0	0	0	0	486	619	
11	0	0	0	0	486	621	
12	0	0	0	0	485	619	
13	0	0	0	0	484	619	
14	0	0	0	0	485	619	
15	0	0	0	0	486	619	
0	0	0	0	0	487	620	
1	0	0	0	0	487	620	
2	0	0	0	0	487	620	
3	0	0	0	0	487	623	
4	0	0	0	0	486	621	
5	0	0	0	0	485	621	
6	0	0	0	0	486	621	
7	0	0	0	0	486	619	
8	0	0	0	0	486	620	
9	0	0	0	0	487	620	
10	0	0	0	0	487	620	
11	0	0	0	0	486	622	
12	0	0	0	0	487	620	
13	0	0	0	0	487	620	
14	0	0	0	0	487	621	
15	0	0	0	0	487	618	
0	0	0	0	0	487	621	
1	0	0	0	0	487	621	
2	0	0	0	0	488	621	
3	0	0	0	0	488	623	
4	0	0	0	0	488	621	
5	0	0	0	0	487	621	
6	0	0	0	0	488	621	
7	0	0	0	0	488	619	
8	0	0	0	0	487	622	
9	0	0	0	0	487	621	
10	0	0	0	0	487	622	
11	0	0	0	0	487	623	
12	0	0	0	0	487	621	
13	0	0	0	0	487	621	
14	0	0	0	0	487	621	
15	0	0	0	0	487	619	
0	0	0	0	0	487	621	
1	0	0	0	0	486	620	
2	0	0	0	0	486	620	
3	0	0	0	0	487	622	
4	0	0	0	0	487	620	
5	0	0	0	0	487	620	
6	0	0	0	0	487	619	
7	0	0	0	0	487	617	
8	0	0	0	0	487	619	
9	0	0	0	0	487	619	
10	0	0	0	0	487	619	
11	0	0	0	0	487	622	
12	0	0	0	0	487	619	
13	0	0	0	0	487	619	
14	0	0	0	0	487	620	
15	0	0	0	0	487	618	
0	0	0	0	0	488	620	
1	0	0	0	0	488	620	
2	0	0	0	0	488	620	
3	0	0	0	0	488	622	
4	0	0	0	0	488	620	
5	0	0	0	0	488	619	
6	0	0	0	0	488	619	
7	0	0	0	0	489	617	
8	0	0	0	0	489	619	
9	0	0	0	0	488	620	
10	0	0	0	0	489	619	
11	0	0	0	0	488	621	
12	0	0	0	0	489	620	
13	0	0	0	0	488	620	
14	0	0	0	0	487	620	
15	0	0	0	0	487	617	
0	0	0	0	0	487	619	
1	0	0	0	0	488	619	
2	0	0	0	0	489	619	
3	0	0	0	0	489	621	
4	0	0	0	0	490	619	
5	0	0	0	0	491	618	
6	0	0	0	0	490	619	
7	0	0	0	0	490	616	
8	0	0	0	0	489	618	
9	0	0	0	0	490	618	
10	0	0	0	0	490	618	
11	0	0	0	0	489	620	
12	0	0	0	0	490	618	
13	0	0	0	0	489	618	
14	0	0	0	0	489	619	
15	0	0	0	0	490	616	
0	0	0	0	0	491	619	
1	0	0	0	0	491	619	
2	0	0	0	0	491	619	
3	0	0	0	0	490	621	
4	0	0	0	0	491	620	
5	0	0	0	0	491	620	
6	0	0	0	0	491	620	
7	0	0	0	0	490	617	
8	0	0	0	0	491	619	
9	0	0	0	0	491	620	
10	0	0	0	0	491	620	
11	0	0	0	0	491	621	
12	0	0	0	0	491	620	
13	0	0	0	0	491	620	
14	0	0	0	0	491	619	
15	0	0	0	0	491	617	
0	0	0	0	0	491	620	
1	0	0	0	0	491	619	
2	0	0	0	0	492	619	
3	0	0	0	0	493	621	
4	0	0	0	0	493	620	
5	0	0	0	0	493	619	
6	0	0	0	0	493	619	
7	0	0	0	0	494	617	
8	0	0	0	0	495	619	
9	0	0	0	0	496	619	
10	0	0	0	0	496	619	
11	0	0	0	0	496	620	
12	0	0	0	0	497	619	
13	0	0	0	0	498	619	
14	0	0	0	0	498	618	
15	0	0	0	0	498	617	
0	0	0	0	0	498	619	
1	0	0	0	0	497	619	
2	0	0	0	0	496	618	
3	0	0	0	0	496	620	
4	0	0	0	0	497	619	
5	0	0	0	0	498	619	
6	0	0	0	0	497	619	
7	0	0	0	0	498	616	
8	0	0	0	0	499	619	
9	0	0	0	0	499	619	
10	0	0	0	0	499	618	
11	0	0	0	0	499	620	
12	0	0	0	0	499	619	
13	0	0	0	0	499	618	
14	0	0	0	0	499	618	
15	0	0	0	0	499	616	
0	0	0	0	0	499	618	
1	0	0	0	0	499	618	
2	0	0	0	0	499	618	
3	0	0	0	0	500	620	
4	0	0	0	0	500	618	
5	0	0	0	0	500	619	
6	0	0	0	0	501	619	
7	0	0	0	0	501	617	
8	0	0	0	0	502	619	
9	0	0	0	0	502	619	
10	0	0	0	0	502	619	
11	0	0	0	0	502	620	
12	0	0	0	0	503	619	
13	0	0	0	0	502	619	
14	0	0	0	0	503	620	
15	0	0	0	0	504	617	
0	0	0	0	0	504	619	
1	0	0	0	0	504	619	
2	0	0	0	0	504	619	
3	0	0	0	0	504	621	
4	0	0	0	0	504	620	
5	0	0	0	0	504	619	
6	0	0	0	0	503	619	
7	0	0	0	0	504	617	
8	0	0	0	0	504	619	
9	0	0	0	0	504	619	
10	0	0	0	0	505	619	
11	0	0	0	0	505	621	
12	0	0	0	0	505	620	
13	0	0	0	0	504	620	
14	0	0	0	0	505	620	
15	0	0	0	0	505	618	
0	0	0	0	0	505	620	
1	0	0	0	0	505	620	
2	0	0	0	0	505	620	
3	0	0	0	0	505	623	
4	0	0	0	0	505	620	
5	0	0	0	0	505	620	
6	0	0	0	0	505	621	
7	0	0	0	0	506	618	
8	0	0	0	0	507	620	
9	0	0	0	0	507	620	
10	0	0	0	0	506	620	
11	0	0	0	0	505	622	
12	0	0	0	0	504	620	
13	0	0	0	0	504	619	
14	0	0	0	0	505	620	
15	0	0	0	0	504	617	
0	0	0	0	0	505	620	
1	0	0	0	0	505	620	
2	0	0	0	0	505	620	
3	0	0	0	0	504	622	
4	0	0	0	0	504	620	
5	0	0	0	0	504	620	
6	0	0	0	0	504	621	
7	0	0	0	0	503	619	
8	0	0	0	0	503	621	
9	0	0	0	0	504	621	
10	0	0	0	0	503	620	
11	0	0	0	0	503	623	
12	0	0	0	0	503	620	
13	0	0	0	0	503	621	
14	0	0	0	0	503	620	
15	0	0	0	0	503	618	
0	0	0	0	0	502	620	
1	0	0	0	0	503	620	
2	0	0	0	0	503	620	
3	0	0	0	0	502	621	
4	0	0	0	0	502	619	
5	0	0	0	0	501	619	
6	0	0	0	0	502	619	
7	0	0	0	0	501	617	
8	0	0	0	0	501	619	
9	0	0	0	0	502	619	
10	0	0	0	0	503	619	
11	0	0	0	0	503	621	
12	0	0	0	0	503	619	
13	0	0	0	0	503	620	
14	0	0	0	0	504	619	
15	0	0	0	0	504	618	
0	0	0	0	0	504	619	
1	0	0	0	0	504	620	
2	0	0	0	0	503	619	
3	0	0	0	0	503	621	
4	0	0	0	0	503	620	
5	0	0	0	0	504	619	
6	0	0	0	0	504	619	
7	0	0	0	0	503	617	
8	0	0	0	0	502	619	
9	0	0	0	0	502	620	
10	0	0	0	0	502	619	
11	0	0	0	0	502	622	
12	0	0	0	0	502	620	
13	0	0	0	0	502	619	
14	0	0	0	0	502	619	
15	0	0	0	0	503	617	
0	0	0	0	0	503	618	
1	0	0	0	0	503	619	
2	0	0	0	0	504	620	
3	0	0	0	0	504	621	
4	0	0	0	0	503	620	
5	0	0	0	0	502	620	
6	0	0	0	0	504	619	
7	0	0	0	0	504	617	
8	0	0	0	0	502	619	
9	0	0	0	0	502	619	
10	0	0	0	0	502	620	
11	0	0	0	0	502	621	
12	0	0	0	0	502	620	
13	0	0	0	0	502	620	
14	0	0	0	0	502	620	
15	0	0	0	0	503	617	
0	0	0	0	0	504	619	
1	0	0	0	0	504	619	
2	0	0	0	0	505	619	
3	0	0	0	0	505	621	
4	0	0	0	0	504	620	
5	0	0	0	0	505	619	
6	0	0	0	0	506	620	
7	0	0	0	0	505	617	
8	0	0	0	0	506	619	
9	0	0	0	0	506	620	
10	0	0	0	0	506	620	
11	0	0	0	0	506	622	
12	0	0	0	0	506	620	
13	0	0	0	0	506	620	
14	0	0	0	0	507	620	
15	0	0	0	0	507	618	
0	0	0	0	0	507	620	
1	0	0	0	0	507	620	
2	0	0	0	0	506	620	
3	0	0	0	0	506	621	
4	0	0	0	0	506	620	
5	0	0	0	0	506	620	
6	0	0	0	0	505	619	
7	0	0	0	0	505	617	
8	0	0	0	0	504	619	
9	0	0	0	0	504	619	
10	0	0	0	0	505	619	
11	0	0	0	0	505	621	
12	0	0	0	0	504	619	
13	0	0	0	0	504	620	
14	0	0	0	0	504	619	
15	0	0	0	0	504	617	
0	0	0	0	0	504	619	
1	0	0	0	0	504	620	
2	0	0	0	0	504	620	
3	0	0	0	0	504	621	
4	0	0	0	0	503	619	
5	0	0	0	0	504	618	
6	0	0	0	0	504	619	
7	0	0	0	0	504	617	
8	0	0	0	0	505	618	
9	0	0	0	0	505	619	
10	0	0	0	0	505	618	
11	0	0	0	0	504	620	
12	0	0	0	0	504	619	
13	0	0	0	0	504	618	
14	0	0	0	0	505	619	
15	0	0	0	0	504	616	
0	0	0	0	0	504	619	
1	0	0	0	0	504	619	
2	0	0	0	0	504	619	
3	0	0	0	0	506	620	
4	0	0	0	0	507	619	
5	0	0	0	0	507	619	
6	0	0	0	0	507	619	
7	0	0	0	0	507	616	
8	0	0	0	0	507	618	
9	0	0	0	0	506	618	
10	0	0	0	0	507	618	
11	0	0	0	0	507	620	
12	0	0	0	0	507	619	
13	0	0	0	0	506	618	
14	0	0	0	0	505	618	
15	0	0	0	0	506	617	
0	0	0	0	0	505	619	
1	0	0	0	0	506	619	
2	0	0	0	0	505	619	
3	0	0	0	0	505	620	
4	0	0	0	0	505	619	
5	0	0	0	0	504	619	
6	0	0	0	0	504	619	
7	0	0	0	0	504	617	
8	0	0	0	0	504	620	
9	0	0	0	0	504	620	
10	0	0	0	0	503	620	
11	0	0	0	0	502	621	
12	0	0	0	0	503	619	
13	0	0	0	0	503	620	
14	0	0	0	0	503	620	
15	0	0	0	0	503	618	
0	0	0	0	0	502	620	
1	0	0	0	0	501	620	
2	0	0	0	0	500	620	
3	0	0	0	0	499	623	
4	0	0	0	0	499	621	
5	0	0	0	0	498	622	
6	0	0	0	0	497	621	
7	0	0	0	0	496	619	
8	0	0	0	0	497	621	
9	0	0	0	0	498	621	
10	0	0	0	0	499	620	
11	0	0	0	0	499	622	
12	0	0	0	0	498	621	
13	0	0	0	0	497	621	
14	0	0	0	0	497	621	
15	0	0	0	0	497	619	
0	0	0	0	0	497	621	
1	0	0	0	0	497	621	
2	0	0	0	0	497	620	
3	0	0	0	0	499	623	
4	0	0	0	0	499	620	
5	0	0	0	0	499	621	
6	0	0	0	0	499	620	
7	0	0	0	0	501	619	
8	0	0	0	0	502	621	
9	0	0	0	0	502	621	
10	0	0	0	0	502	621	
11	0	0	0	0	503	622	
12	0	0	0	0	505	620	
13	0	0	0	0	506	620	
14	0	0	0	0	507	620	
15	0	0	0	0	509	619	
0	0	0	0	0	510	620	
1	0	0	0	0	510	619	
2	0	0	0	0	510	620	
3	0	0	0	0	511	621	
4	0	0	0	0	511	619	
5	0	0	0	0	511	620	
6	0	0	0	0	512	620	
7	0	0	0	0	511	618	
8	0	0	0	0	512	620	
9	0	0	0	0	512	620	
10	0	0	0	0	513	620	
11	0	0	0	0	513	623	
12	0	0	0	0	515	621	
13	0	0	0	0	515	620	
14	0	0	0	0	515	621	
15	0	0	0	0	515	619	
0	0	0	0	0	515	621	
1	0	0	0	0	514	620	
2	0	0	0	0	513	620	
3	0	0	0	0	513	622	
4	0	0	0	0	512	620	
5	0	0	0	0	512	620	
6	0	0	0	0	512	620	
7	0	0	0	0	512	618	
8	0	0	0	0	512	620	
9	0	0	0	0	512	620	
10	0	0	0	0	512	620	
11	0	0	0	0	513	622	
12	0	0	0	0	512	621	
13	0	0	0	0	512	621	
14	0	0	0	0	511	621	
15	0	0	0	0	510	619	
0	0	0	0	0	510	621	
1	0	0	0	0	508	621	
2	0	0	0	0	508	620	
3	0	0	0	0	508	623	
4	0	0	0	0	508	621	
5	0	0	0	0	508	621	
6	0	0	0	0	508	621	
7	0	0	0	0	510	619	
8	0	0	0	0	511	621	
9	0	0	0	0	510	620	
10	0	0	0	0	510	621	
11	0	0	0	0	510	622	
12	0	0	0	0	511	620	
13	0	0	0	0	510	621	
14	0	0	0	0	510	620	
15	0	0	0	0	510	618	
0	0	0	0	0	510	620	
1	0	0	0	0	511	621	
2	0	0	0	0	511	619	
3	0	0	0	0	511	622	
4	0	0	0	0	511	619	
5	0	0	0	0	511	619	
6	0	0	0	0	511	620	
7	0	0	0	0	511	618	
8	0	0	0	0	511	620	
9	0	0	0	0	511	620	
10	0	0	0	0	511	619	
11	0	0	0	0	511	622	
12	0	0	0	0	512	620	
13	0	0	0	0	511	620	
14	0	0	0	0	512	620	
15	0	0	0	0	512	619	
0	0	0	0	0	511	620	
1	0	0	0	0	511	619	
2	0	0	0	0	510	619	
3	0	0	0	0	510	621	
4	0	0	0	0	509	620	
5	0	0	0	0	509	620	
6	0	0	0	0	508	620	
7	0	0	0	0	508	618	
8	0	0	0	0	508	620	
9	0	0	0	0	509	620	
10	0	0	0	0	509	620	
11	0	0	0	0	509	622	
12	0	0	0	0	508	620	
13	0	0	0	0	509	620	
14	0	0	0	0	509	619	
15	0	0	0	0	509	617	
0	0	0	0	0	509	619	
1	0	0	0	0	510	619	
2	0	0	0	0	510	620	
3	0	0	0	0	509	621	
4	0	0	0	0	510	620	
5	0	0	0	0	509	620	
6	0	0	0	0	508	619	
7	0	0	0	0	507	618	
8	0	0	0	0	507	620	
9	0	0	0	0	506	620	
10	0	0	0	0	505	620	
11	0	0	0	0	503	622	
12	0	0	0	0	499	621	
13	0	0	0	0	494	621	
14	0	0	0	0	488	621	
15	0	0	0	0	481	620	
0	0	0	0	0	473	621	
1	0	0	0	0	467	621	
2	0	0	0	0	458	622	
3	0	0	0	0	450	623	
4	0	0	0	0	443	621	
5	0	0	0	0	435	621	
6	0	0	0	0	429	621	
7	0	0	0	0	423	619	
8	0	0	0	0	416	621	
9	0	0	0	0	408	621	
10	0	0	0	0	401	621	
11	0	0	0	0	396	622	
12	0	0	0	0	391	621	
13	0	0	0	0	389	620	
14	0	0	0	0	390	620	
15	0	0	0	0	395	618	
0	0	0	0	0	404	620	
1	0	0	0	0	415	620	
2	0	0	0	0	431	620	
3	0	0	0	0	452	622	
4	0	0	0	0	479	620	
5	0	0	0	0	509	620	
6	0	0	0	0	543	620	
7	0	0	0	0	583	618	
8	0	0	0	0	625	619	
9	0	0	0	0	667	620	
10	0	0	0	0	706	619	
11	0	0	0	0	740	620	
12	0	0	0	0	773	619	
13	0	0	0	0	803	619	
14	0	0	0	0	829	618	
15	0	0	0	0	847	615	
0	0	0	0	0	855	618	
1	0	0	0	0	860	618	
2	0	0	0	0	855	618	
3	0	0	0	0	843	621	
4	0	0	0	0	828	618	
5	0	0	0	0	804	618	
6	0	0	0	0	774	619	
7	0	0	0	0	741	616	
8	0	0	0	0	710	619	
9	0	0	0	0	684	619	
10	0	0	0	0	663	618	
11	0	0	0	0	647	620	
12	0	0	0	0	633	619	
13	0	0	0	0	622	618	
14	0	0	0	0	615	619	
15	0	0	0	0	609	617	
0	0	0	0	0	604	619	
1	0	0	0	0	600	619	
2	0	0	0	0	596	619	
3	0	0	0	0	590	621	
4	0	0	0	0	584	620	
5	0	0	0	0	576	620	
6	0	0	0	0	568	620	
7	0	0	0	0	558	618	
8	0	0	0	0	548	619	
9	0	0	0	0	537	620	
10	0	0	0	0	526	620	
11	0	0	0	0	515	621	
12	0	0	0	0	505	620	
13	0	0	0	0	496	620	
14	0	0	0	0	486	620	
15	0	0	0	0	478	618	
0	0	0	0	0	471	620	
1	0	0	0	0	465	620	
2	0	0	0	0	460	620	
3	0	0	0	0	456	622	
4	0	0	0	0	454	620	
5	0	0	0	0	453	620	
6	0	0	0	0	451	620	
7	0	0	0	0	449	619	
8	0	0	0	0	448	620	
9	0	0	0	0	447	620	
10	0	0	0	0	446	620	
11	0	0	0	0	447	622	
12	0	0	0	0	447	620	
13	0	0	0	0	447	621	
14	0	0	0	0	447	620	
15	0	0	0	0	446	619	
0	0	0	0	0	447	620	
1	0	0	0	0	447	620	
2	0	0	0	0	447	621	
3	0	0	0	0	447	622	
4	0	0	0	0	448	621	
5	0	0	0	0	448	620	
6	0	0	0	0	448	621	
7	0	0	0	0	449	619	
8	0	0	0	0	449	620	
9	0	0	0	0	450	620	
10	0	0	0	0	451	621	
11	0	0	0	0	451	623	
12	0	0	0	0	449	620	
13	0	0	0	0	450	620	
14	0	0	0	0	452	621	
15	0	0	0	0	452	618	
0	0	0	0	0	451	620	
1	0	0	0	0	451	620	
2	0	0	0	0	451	620	
3	0	0	0	0	452	623	
4	0	0	0	0	451	620	
5	0	0	0	0	452	621	
6	0	0	0	0	452	620	
7	0	0	0	0	454	618	
8	0	0	0	0	454	620	
9	0	0	0	0	454	620	
10	0	0	0	0	454	620	
11	0	0	0	0	454	622	
12	0	0	0	0	454	620	
13	0	0	0	0	455	620	
14	0	0	0	0	455	620	
15	0	0	0	0	456	618	
0	0	0	0	0	457	620	
1	0	0	0	0	459	620	
2	0	0	0	0	459	620	
3	0	0	0	0	459	621	
4	0	0	0	0	459	620	
5	0	0	0	0	459	620	
6	0	0	0	0	459	619	
7	0	0	0	0	459	618	
8	0	0	0	0	460	620	
9	0	0	0	0	459	620	
10	0	0	0	0	458	620	
11	0	0	0	0	458	621	
12	0	0	0	0	459	620	
13	0	0	0	0	458	620	
14	0	0	0	0	461	620	
15	0	0	0	0	462	618	
0	0	0	0	0	462	619	
1	0	0	0	0	463	619	
2	0	0	0	0	463	619	
3	0	0	0	0	463	621	
4	0	0	0	0	462	619	
5	0	0	0	0	463	620	
6	0	0	0	0	463	619	
7	0	0	0	0	465	617	
8	0	0	0	0	465	619	
9	0	0	0	0	465	619	
10	0	0	0	0	466	619	
11	0	0	0	0	466	620	
12	0	0	0	0	465	618	
13	0	0	0	0	464	619	
14	0	0	0	0	465	619	
15	0	0	0	0	466	617	
0	0	0	0	0	467	619	
1	0	0	0	0	467	618	
2	0	0	0	0	467	619	
3	0	0	0	0	467	621	
4	0	0	0	0	467	619	
5	0	0	0	0	468	619	
6	0	0	0	0	469	619	
7	0	0	0	0	469	618	
8	0	0	0	0	470	620	
9	0	0	0	0	469	620	
10	0	0	0	0	470	620	
11	0	0	0	0	470	622	
12	0	0	0	0	470	620	
13	0	0	0	0	470	620	
14	0	0	0	0	470	620	
15	0	0	0	0	469	618	
0	0	0	0	0	470	620	
1	0	0	0	0	471	620	
2	0	0	0	0	471	620	
3	0	0	0	0	471	622	
4	0	0	0	0	472	620	
5	0	0	0	0	472	620	
6	0	0	0	0	472	620	
7	0	0	0	0	472	618	
8	0	0	0	0	473	620	
9	0	0	0	0	473	620	
10	0	0	0	0	473	620	
11	0	0	0	0	473	623	
12	0	0	0	0	474	620	
13	0	0	0	0	474	621	
14	0	0	0	0	475	620	
15	0	0	0	0	475	618	
0	0	0	0	0	476	620	
1	0	0	0	0	476	620	
2	0	0	0	0	477	619	
3	0	0	0	0	478	621	
4	0	0	0	0	479	619	
5	0	0	0	0	480	619	
6	0	0	0	0	480	619	
7	0	0	0	0	480	617	
8	0	0	0	0	480	619	
9	0	0	0	0	481	619	
10	0	0	0	0	482	619	
11	0	0	0	0	483	621	
12	0	0	0	0	484	620	
13	0	0	0	0	484	619	
14	0	0	0	0	483	620	
15	0	0	0	0	483	618	
0	0	0	0	0	484	620	
1	0	0	0	0	486	620	
2	0	0	0	0	486	620	
3	0	0	0	0	487	622	
4	0	0	0	0	487	620	
5	0	0	0	0	488	620	
6	0	0	0	0	490	620	
7	0	0	0	0	491	618	
8	0	0	0	0	492	620	
9	0	0	0	0	493	620	
10	0	0	0	0	494	620	
11	0	0	0	0	494	622	
12	0	0	0	0	493	620	
13	0	0	0	0	494	620	
14	0	0	0	0	496	621	
15	0	0	0	0	497	618	
0	0	0	0	0	498	620	
1	0	0	0	0	498	620	
2	0	0	0	0	499	620	
3	0	0	0	0	501	622	
4	0	0	0	0	503	620	
5	0	0	0	0	504	620	
6	0	0	0	0	506	620	
7	0	0	0	0	507	618	
8	0	0	0	0	508	621	
9	0	0	0	0	508	620	
10	0	0	0	0	509	620	
11	0	0	0	0	510	621	
12	0	0	0	0	510	620	
13	0	0	0	0	511	620	
14	0	0	0	0	512	620	
15	0	0	0	0	514	618	
0	0	0	0	0	516	620	
1	0	0	0	0	517	620	
2	0	0	0	0	518	620	
3	0	0	0	0	518	622	
4	0	0	0	0	519	619	
5	0	0	0	0	520	620	
6	0	0	0	0	521	619	
7	0	0	0	0	523	618	
8	0	0	0	0	524	619	
9	0	0	0	0	525	619	
10	0	0	0	0	526	618	
11	0	0	0	0	527	620	
12	0	0	0	0	527	619	
13	0	0	0	0	527	618	
14	0	0	0	0	528	619	
15	0	0	0	0	529	616	
0	0	0	0	0	529	618	
1	0	0	0	0	531	618	
2	0	0	0	0	532	618	
3	0	0	0	0	533	620	
4	0	0	0	0	533	619	
5	0	0	0	0	535	617	
6	0	0	0	0	536	618	
7	0	0	0	0	535	615	
8	0	0	0	0	536	618	
9	0	0	0	0	535	618	
10	0	0	0	0	536	618	
11	0	0	0	0	537	620	
12	0	0	0	0	536	618	
13	0	0	0	0	536	618	
14	0	0	0	0	536	618	
15	0	0	0	0	536	616	
0	0	0	0	0	536	618	
1	0	0	0	0	536	618	
2	0	0	0	0	536	618	
3	0	0	0	0	536	620	
4	0	0	0	0	536	618	
5	0	0	0	0	536	619	
6	0	0	0	0	535	619	
7	0	0	0	0	535	617	
8	0	0	0	0	534	619	
9	0	0	0	0	534	620	
10	0	0	0	0	533	619	
11	0	0	0	0	531	621	
12	0	0	0	0	531	620	
13	0	0	0	0	529	620	
14	0	0	0	0	527	620	
15	0	0	0	0	525	618	
0	0	0	0	0	524	619	
1	0	0	0	0	523	620	
2	0	0	0	0	522	620	
3	0	0	0	0	521	622	
4	0	0	0	0	520	620	
5	0	0	0	0	519	620	
6	0	0	0	0	517	620	
7	0	0	0	0	516	618	
8	0	0	0	0	514	620	
9	0	0	0	0	513	621	
10	0	0	0	0	512	620	
11	0	0	0	0	512	622	
12	0	0	0	0	511	620	
13	0	0	0	0	509	621	
14	0	0	0	0	507	620	
15	0	0	0	0	506	619	
0	0	0	0	0	504	621	
1	0	0	0	0	504	621	
2	0	0	0	0	503	621	
3	0	0	0	0	501	622	
4	0	0	0	0	499	621	
5	0	0	0	0	499	621	
6	0	0	0	0	498	620	
7	0	0	0	0	497	619	
8	0	0	0	0	496	621	
9	0	0	0	0	496	621	
10	0	0	0	0	495	620	
11	0	0	0	0	494	623	
12	0	0	0	0	493	621	
13	0	0	0	0	492	621	
14	0	0	0	0	492	621	
15	0	0	0	0	492	619	
0	0	0	0	0	490	621	
1	0	0	0	0	489	621	
2	0	0	0	0	489	621	
3	0	0	0	0	489	622	
4	0	0	0	0	489	620	
5	0	0	0	0	488	620	
6	0	0	0	0	487	620	
7	0	0	0	0	488	618	
8	0	0	0	0	487	621	
9	0	0	0	0	487	620	
10	0	0	0	0	487	620	
11	0	0	0	0	487	622	
12	0	0	0	0	486	620	
13	0	0	0	0	485	620	
14	0	0	0	0	486	621	
15	0	0	0	0	485	618	
0	0	0	0	0	485	620	
1	0	0	0	0	485	621	
2	0	0	0	0	485	621	
3	0	0	0	0	486	622	
4	0	0	0	0	485	620	
5	0	0	0	0	484	620	
6	0	0	0	0	483	620	
7	0	0	0	0	483	618	
8	0	0	0	0	483	620	
9	0	0	0	0	482	620	
10	0	0	0	0	482	620	
11	0	0	0	0	482	622	
12	0	0	0	0	482	619	
13	0	0	0	0	481	620	
14	0	0	0	0	481	620	
15	0	0	0	0	480	618	
0	0	0	0	0	481	620	
1	0	0	0	0	481	620	
2	0	0	0	0	482	620	
3	0	0	0	0	482	621	
4	0	0	0	0	483	620	
5	0	0	0	0	483	620	
6	0	0	0	0	483	620	
7	0	0	0	0	483	618	
8	0	0	0	0	483	620	
9	0	0	0	0	483	620	
10	0	0	0	0	483	619	
11	0	0	0	0	484	622	
12	0	0	0	0	484	619	
13	0	0	0	0	484	619	
14	0	0	0	0	484	619	
15	0	0	0	0	484	616	
0	0	0	0	0	484	619	
1	0	0	0	0	484	619	
2	0	0	0	0	483	618	
3	0	0	0	0	484	620	
4	0	0	0	0	483	618	
5	0	0	0	0	483	619	
6	0	0	0	0	483	619	
7	0	0	0	0	483	616	
8	0	0	0	0	483	618	
9	0	0	0	0	483	619	
10	0	0	0	0	484	618	
11	0	0	0	0	485	620	
12	0	0	0	0	484	618	
13	0	0	0	0	485	619	
14	0	0	0	0	485	618	
15	0	0	0	0	485	616	
0	0	0	0	0	486	619	
1	0	0	0	0	486	618	
2	0	0	0	0	486	618	
3	0	0	0	0	486	620	
4	0	0	0	0	485	618	
5	0	0	0	0	485	618	
6	0	0	0	0	485	618	
7	0	0	0	0	485	615	
8	0	0	0	0	484	618	
9	0	0	0	0	484	618	
10	0	0	0	0	483	618	
11	0	0	0	0	483	620	
12	0	0	0	0	482	619	
13	0	0	0	0	483	619	
14	0	0	0	0	484	619	
15	0	0	0	0	484	617	
0	0	0	0	0	484	619	
1	0	0	0	0	484	619	
2	0	0	0	0	484	619	
3	0	0	0	0	484	621	
4	0	0	0	0	484	619	
5	0	0	0	0	484	620	
6	0	0	0	0	483	619	
7	0	0	0	0	483	618	
8	0	0	0	0	483	620	
9	0	0	0	0	483	620	
10	0	0	0	0	483	620	
11	0	0	0	0	483	622	
12	0	0	0	0	483	620	
13	0	0	0	0	483	619	
14	0	0	0	0	483	620	
15	0	0	0	0	484	617	
0	0	0	0	0	484	620	
1	0	0	0	0	484	620	
2	0	0	0	0	484	620	
3	0	0	0	0	485	621	
4	0	0	0	0	485	620	
5	0	0	0	0	485	619	
6	0	0	0	0	486	619	
7	0	0	0	0	485	616	
8	0	0	0	0	485	619	
9	0	0	0	0	485	619	
10	0	0	0	0	486	619	
11	0	0	0	0	486	621	
12	0	0	0	0	487	620	
13	0	0	0	0	487	619	
14	0	0	0	0	487	620	
15	0	0	0	0	487	618	
0	0	0	0	0	488	620	
1	0	0	0	0	488	620	
2	0	0	0	0	489	620	
3	0	0	0	0	489	622	
4	0	0	0	0	489	620	
5	0	0	0	0	489	620	
6	0	0	0	0	490	620	
7	0	0	0	0	491	617	
8	0	0	0	0	491	619	
9	0	0	0	0	491	618	
10	0	0	0	0	490	619	
11	0	0	0	0	491	621	
12	0	0	0	0	492	619	
13	0	0	0	0	492	619	
14	0	0	0	0	494	619	
15	0	0	0	0	493	617	
0	0	0	0	0	493	619	
1	0	0	0	0	492	619	
2	0	0	0	0	493	619	
3	0	0	0	0	494	621	
4	0	0	0	0	494	619	
5	0	0	0	0	494	619	
6	0	0	0	0	494	619	
7	0	0	0	0	494	617	
8	0	0	0	0	495	619	
9	0	0	0	0	495	620	
10	0	0	0	0	495	620	
11	0	0	0	0	495	622	
12	0	0	0	0	495	621	
13	0	0	0	0	496	620	
14	0	0	0	0	496	620	
15	0	0	0	0	496	618	
0	0	0	0	0	496	620	
1	0	0	0	0	496	620	
2	0	0	0	0	496	620	
3	0	0	0	0	496	621	
4	0	0	0	0	497	620	
5	0	0	0	0	497	620	
6	0	0	0	0	498	620	
7	0	0	0	0	498	619	
8	0	0	0	0	498	620	
9	0	0	0	0	498	620	
10	0	0	0	0	499	620	
11	0	0	0	0	499	622	
12	0	0	0	0	499	620	
13	0	0	0	0	499	619	
14	0	0	0	0	499	620	
15	0	0	0	0	499	617	
0	0	0	0	0	499	620	
1	0	0	0	0	500	619	
2	0	0	0	0	500	619	
3	0	0	0	0	501	621	
4	0	0	0	0	502	619	
5	0	0	0	0	503	619	
6	0	0	0	0	503	619	
7	0	0	0	0	504	617	
8	0	0	0	0	503	619	
9	0	0	0	0	504	618	
10	0	0	0	0	504	618	
11	0	0	0	0	504	620	
12	0	0	0	0	504	617	
13	0	0	0	0	504	617	
14	0	0	0	0	504	618	
15	0	0	0	0	504	615	
0	0	0	0	0	504	617	
1	0	0	0	0	504	617	
2	0	0	0	0	504	617	
3	0	0	0	0	505	619	
4	0	0	0	0	505	618	
5	0	0	0	0	505	617	
6	0	0	0	0	506	618	
7	0	0	0	0	506	616	
8	0	0	0	0	506	618	
9	0	0	0	0	506	619	
10	0	0	0	0	506	619	
11	0	0	0	0	506	620	
12	0	0	0	0	506	619	
13	0	0	0	0	505	620	
14	0	0	0	0	506	620	
15	0	0	0	0	505	618	
0	0	0	0	0	506	621	
1	0	0	0	0	505	621	
2	0	0	0	0	506	620	
3	0	0	0	0	507	623	
4	0	0	0	0	507	621	
5	0	0	0	0	507	622	
6	0	0	0	0	507	622	
7	0	0	0	0	508	620	
8	0	0	0	0	507	622	
9	0	0	0	0	508	622	
10	0	0	0	0	508	622	
11	0	0	0	0	507	624	
12	0	0	0	0	506	623	
13	0	0	0	0	506	623	
14	0	0	0	0	507	622	
15	0	0	0	0	507	620	
0	0	0	0	0	507	622	
1	0	0	0	0	507	622	
2	0	0	0	0	508	622	
3	0	0	0	0	507	623	
4	0	0	0	0	507	621	
5	0	0	0	0	507	621	
6	0	0	0	0	508	621	
7	0	0	0	0	508	620	
8	0	0	0	0	508	621	
9	0	0	0	0	508	621	
10	0	0	0	0	508	621	
11	0	0	0	0	508	623	
12	0	0	0	0	508	620	
13	0	0	0	0	507	620	
14	0	0	0	0	507	620	
15	0	0	0	0	507	617	
0	0	0	0	0	507	620	
1	0	0	0	0	507	620	
2	0	0	0	0	507	619	
3	0	0	0	0	506	622	
4	0	0	0	0	507	620	
5	0	0	0	0	508	620	
6	0	0	0	0	507	620	
7	0	0	0	0	507	617	
8	0	0	0	0	507	619	
9	0	0	0	0	507	619	
10	0	0	0	0	507	619	
11	0	0	0	0	507	621	
12	0	0	0	0	508	619	
13	0	0	0	0	508	618	
14	0	0	0	0	508	619	
15	0	0	0	0	508	616	
0	0	0	0	0	508	618	
1	0	0	0	0	508	618	
2	0	0	0	0	509	617	
3	0	0	0	0	508	619	
4	0	0	0	0	509	618	
5	0	0	0	0	509	618	
6	0	0	0	0	509	617	
7	0	0	0	0	508	615	
8	0	0	0	0	508	618	
9	0	0	0	0	508	617	
10	0	0	0	0	508	618	
11	0	0	0	0	508	620	
12	0	0	0	0	507	617	
13	0	0	0	0	507	618	
14	0	0	0	0	507	619	
15	0	0	0	0	507	616	
0	0	0	0	0	506	619	
1	0	0	0	0	506	618	
2	0	0	0	0	507	619	
3	0	0	0	0	506	620	
4	0	0	0	0	506	619	
5	0	0	0	0	505	619	
6	0	0	0	0	504	619	
7	0	0	0	0	504	618	
8	0	0	0	0	505	620	
9	0	0	0	0	504	620	
10	0	0	0	0	504	620	
11	0	0	0	0	505	621	
12	0	0	0	0	505	620	
13	0	0	0	0	506	620	
14	0	0	0	0	506	620	
15	0	0	0	0	507	617	
0	0	0	0	0	507	620	
1	0	0	0	0	508	620	
2	0	0	0	0	508	619	
3	0	0	0	0	509	620	
4	0	0	0	0	509	618	
5	0	0	0	0	508	619	
6	0	0	0	0	507	619	
7	0	0	0	0	509	618	
8	0	0	0	0	509	619	
9	0	0	0	0	509	619	
10	0	0	0	0	510	619	
11	0	0	0	0	511	620	
12	0	0	0	0	511	619	
13	0	0	0	0	511	619	
14	0	0	0	0	511	619	
15	0	0	0	0	511	616	
0	0	0	0	0	511	619	
1	0	0	0	0	510	619	
2	0	0	0	0	510	618	
3	0	0	0	0	511	620	
4	0	0	0	0	511	617	
5	0	0	0	0	511	617	
6	0	0	0	0	511	617	
7	0	0	0	0	511	615	
8	0	0	0	0	510	617	
9	0	0	0	0	510	617	
10	0	0	0	0	510	617	
11	0	0	0	0	510	619	
12	0	0	0	0	510	617	
13	0	0	0	0	510	617	
14	0	0	0	0	510	617	
15	0	0	0	0	510	616	
0	0	0	0	0	510	618	
1	0	0	0	0	510	618	
2	0	0	0	0	509	618	
3	0	0	0	0	508	620	
4	0	0	0	0	508	618	
5	0	0	0	0	508	619	
6	0	0	0	0	507	619	
7	0	0	0	0	507	617	
8	0	0	0	0	507	619	
9	0	0	0	0	508	619	
10	0	0	0	0	508	619	
11	0	0	0	0	508	621	
12	0	0	0	0	508	619	
13	0	0	0	0	508	619	
14	0	0	0	0	507	620	
15	0	0	0	0	506	617	
0	0	0	0	0	505	620	
1	0	0	0	0	505	619	
2	0	0	0	0	505	619	
3	0	0	0	0	504	621	
4	0	0	0	0	505	619	
5	0	0	0	0	504	619	
6	0	0	0	0	503	620	
7	0	0	0	0	502	617	
8	0	0	0	0	502	620	
9	0	0	0	0	502	620	
10	0	0	0	0	502	620	
11	0	0	0	0	500	622	
12	0	0	0	0	500	620	
13	0	0	0	0	500	620	
14	0	0	0	0	500	620	
15	0	0	0	0	499	618	
0	0	0	0	0	499	620	
1	0	0	0	0	500	620	
2	0	0	0	0	500	620	
3	0	0	0	0	500	622	
4	0	0	0	0	500	620	
5	0	0	0	0	500	620	
6	0	0	0	0	500	620	
7	0	0	0	0	500	618	
8	0	0	0	0	500	620	
9	0	0	0	0	501	620	
10	0	0	0	0	502	620	
11	0	0	0	0	502	622	
12	0	0	0	0	503	620	
13	0	0	0	0	504	620	
14	0	0	0	0	504	620	
15	0	0	0	0	505	618	
0	0	0	0	0	505	619	
1	0	0	0	0	507	619	
2	0	0	0	0	507	619	
3	0	0	0	0	508	621	
4	0	0	0	0	509	619	
5	0	0	0	0	510	619	
6	0	0	0	0	511	619	
7	0	0	0	0	512	617	
8	0	0	0	0	513	620	
9	0	0	0	0	514	619	
10	0	0	0	0	515	619	
11	0	0	0	0	515	620	
12	0	0	0	0	516	620	
13	0	0	0	0	516	620	
14	0	0	0	0	516	620	
15	0	0	0	0	516	618	
0	0	0	0	0	517	620	
1	0	0	0	0	516	620	
2	0	0	0	0	517	619	
3	0	0	0	0	517	621	
4	0	0	0	0	517	619	
5	0	0	0	0	518	619	
6	0	0	0	0	519	620	
7	0	0	0	0	519	618	
8	0	0	0	0	518	620	
9	0	0	0	0	518	620	
10	0	0	0	0	518	620	
11	0	0	0	0	517	622	
12	0	0	0	0	517	620	
13	0	0	0	0	516	620	
14	0	0	0	0	516	620	
15	0	0	0	0	515	618	
0	0	0	0	0	516	619	
1	0	0	0	0	516	620	
2	0	0	0	0	515	620	
3	0	0	0	0	515	622	
4	0	0	0	0	516	620	
5	0	0	0	0	516	620	
6	0	0	0	0	516	620	
7	0	0	0	0	515	619	
8	0	0	0	0	515	620	
9	0	0	0	0	515	620	
10	0	0	0	0	514	621	
11	0	0	0	0	514	623	
12	0	0	0	0	514	621	
13	0	0	0	0	514	621	
14	0	0	0	0	515	621	
15	0	0	0	0	515	619	
0	0	0	0	0	515	620	
1	0	0	0	0	516	620	
2	0	0	0	0	516	620	
3	0	0	0	0	517	621	
4	0	0	0	0	517	619	
5	0	0	0	0	516	619	
6	0	0	0	0	517	619	
7	0	0	0	0	517	617	
8	0	0	0	0	517	619	
9	0	0	0	0	517	619	
10	0	0	0	0	516	619	
11	0	0	0	0	516	621	
12	0	0	0	0	517	618	
13	0	0	0	0	516	619	
14	0	0	0	0	517	619	
15	0	0	0	0	516	617	
0	0	0	0	0	517	619	
1	0	0	0	0	516	619	
2	0	0	0	0	517	619	
3	0	0	0	0	516	622	
4	0	0	0	0	516	620	
5	0	0	0	0	516	620	
6	0	0	0	0	516	620	
7	0	0	0	0	516	618	
8	0	0	0	0	516	620	
9	0	0	0	0	515	620	
10	0	0	0	0	515	619	
11	0	0	0	0	515	622	
12	0	0	0	0	515	620	
13	0	0	0	0	515	619	
14	0	0	0	0	515	620	
15	0	0	0	0	516	617	
0	0	0	0	0	516	619	
1	0	0	0	0	515	618	
2	0	0	0	0	515	619	
3	0	0	0	0	515	620	
4	0	0	0	0	515	619	
5	0	0	0	0	515	619	
6	0	0	0	0	514	619	
7	0	0	0	0	515	616	
8	0	0	0	0	516	619	
9	0	0	0	0	516	619	
10	0	0	0	0	517	619	
11	0	0	0	0	518	621	
12	0	0	0	0	517	619	
13	0	0	0	0	517	619	
14	0	0	0	0	517	619	
15	0	0	0	0	517	618	
0	0	0	0	0	516	619	
1	0	0	0	0	515	620	
2	0	0	0	0	514	619	
3	0	0	0	0	513	622	
4	0	0	0	0	510	620	
5	0	0	0	0	505	620	
6	0	0	0	0	501	620	
7	0	0	0	0	496	618	
8	0	0	0	0	488	620	
9	0	0	0	0	481	620	
10	0	0	0	0	473	620	
11	0	0	0	0	465	623	
12	0	0	0	0	457	621	
13	0	0	0	0	449	621	
14	0	0	0	0	441	620	
15	0	0	0	0	433	618	
0	0	0	0	0	426	621	
1	0	0	0	0	419	621	
2	0	0	0	0	411	621	
3	0	0	0	0	406	622	
4	0	0	0	0	401	621	
5	0	0	0	0	397	620	
6	0	0	0	0	394	620	
7	0	0	0	0	393	618	
8	0	0	0	0	397	620	
9	0	0	0	0	406	620	
10	0	0	0	0	417	620	
11	0	0	0	0	433	621	
12	0	0	0	0	453	620	
13	0	0	0	0	481	620	
14	0	0	0	0	512	620	
15	0	0	0	0	549	618	
0	0	0	0	0	590	620	
1	0	0	0	0	633	620	
2	0	0	0	0	675	620	
3	0	0	0	0	714	622	
4	0	0	0	0	750	620	
5	0	0	0	0	782	620	
6	0	0	0	0	813	620	
7	0	0	0	0	840	618	
8	0	0	0	0	857	620	
9	0	0	0	0	865	620	
10	0	0	0	0	868	619	
11	0	0	0	0	863	622	
12	0	0	0	0	851	620	
13	0	0	0	0	836	620	
14	0	0	0	0	811	620	
15	0	0	0	0	779	617	
0	0	0	0	0	747	620	
1	0	0	0	0	716	620	
2	0	0	0	0	688	619	
3	0	0	0	0	666	621	
4	0	0	0	0	649	619	
5	0	0	0	0	637	620	
6	0	0	0	0	626	620	
7	0	0	0	0	619	617	
8	0	0	0	0	613	620	
9	0	0	0	0	608	620	
10	0	0	0	0	603	619	
11	0	0	0	0	599	621	
12	0	0	0	0	594	619	
13	0	0	0	0	588	620	
14	0	0	0	0	582	620	
15	0	0	0	0	576	618	
0	0	0	0	0	567	620	
1	0	0	0	0	557	619	
2	0	0	0	0	547	620	
3	0	0	0	0	537	621	
4	0	0	0	0	526	620	
5	0	0	0	0	516	620	
6	0	0	0	0	507	620	
7	0	0	0	0	498	618	
8	0	0	0	0	490	620	
9	0	0	0	0	483	620	
10	0	0	0	0	476	620	
11	0	0	0	0	471	622	
12	0	0	0	0	466	620	
13	0	0	0	0	463	621	
14	0	0	0	0	460	620	
15	0	0	0	0	457	618	
0	0	0	0	0	456	620	
1	0	0	0	0	455	620	
2	0	0	0	0	455	620	
3	0	0	0	0	454	622	
4	0	0	0	0	454	621	
5	0	0	0	0	454	620	
6	0	0	0	0	454	620	
7	0	0	0	0	455	618	
8	0	0	0	0	455	620	
9	0	0	0	0	455	620	
10	0	0	0	0	455	620	
11	0	0	0	0	455	622	
12	0	0	0	0	454	620	
13	0	0	0	0	454	620	
14	0	0	0	0	454	621	
15	0	0	0	0	454	620	
0	0	0	0	0	454	623	
1	0	0	0	0	455	623	
2	0	0	0	0	455	623	
3	0	0	0	0	455	625	
4	0	0	0	0	455	623	
5	0	0	0	0	455	622	
6	0	0	0	0	456	622	
7	0	0	0	0	456	619	
8	0	0	0	0	457	620	
9	0	0	0	0	458	619	
10	0	0	0	0	459	619	
11	0	0	0	0	458	620	
12	0	0	0	0	458	619	
13	0	0	0	0	457	619	
14	0	0	0	0	457	619	
15	0	0	0	0	457	618	
0	0	0	0	0	458	619	
1	0	0	0	0	459	619	
2	0	0	0	0	459	619	
3	0	0	0	0	460	621	
4	0	0	0	0	461	620	
5	0	0	0	0	462	620	
6	0	0	0	0	463	620	
7	0	0	0	0	463	619	
8	0	0	0	0	464	620	
9	0	0	0	0	465	621	
10	0	0	0	0	465	621	
11	0	0	0	0	466	622	
12	0	0	0	0	467	621	
13	0	0	0	0	467	620	
14	0	0	0	0	467	621	
15	0	0	0	0	467	619	
0	0	0	0	0	467	621	
1	0	0	0	0	467	620	
2	0	0	0	0	467	620	
3	0	0	0	0	466	623	
4	0	0	0	0	467	620	
5	0	0	0	0	467	620	
6	0	0	0	0	466	620	
7	0	0	0	0	465	618	
8	0	0	0	0	465	620	
9	0	0	0	0	466	620	
10	0	0	0	0	465	620	
11	0	0	0	0	465	621	
12	0	0	0	0	465	619	
13	0	0	0	0	465	619	
14	0	0	0	0	465	619	
15	0	0	0	0	466	616	
0	0	0	0	0	466	619	
1	0	0	0	0	466	618	
2	0	0	0	0	466	619	
3	0	0	0	0	466	620	
4	0	0	0	0	467	619	
5	0	0	0	0	468	619	
6	0	0	0	0	469	619	
7	0	0	0	0	470	617	
8	0	0	0	0	471	619	
9	0	0	0	0	472	619	
10	0	0	0	0	472	619	
11	0	0	0	0	472	621	
12	0	0	0	0	472	619	
13	0	0	0	0	473	620	
14	0	0	0	0	473	619	
15	0	0	0	0	473	617	
0	0	0	0	0	474	619	
1	0	0	0	0	474	620	
2	0	0	0	0	473	620	
3	0	0	0	0	474	622	
4	0	0	0	0	474	620	
5	0	0	0	0	474	619	
6	0	0	0	0	475	620	
7	0	0	0	0	475	617	
8	0	0	0	0	476	620	
9	0	0	0	0	477	619	
10	0	0	0	0	477	619	
11	0	0	0	0	477	621	
12	0	0	0	0	478	620	
13	0	0	0	0	478	619	
14	0	0	0	0	479	619	
15	0	0	0	0	479	616	
0	0	0	0	0	479	619	
1	0	0	0	0	479	619	
2	0	0	0	0	479	619	
3	0	0	0	0	480	620	
4	0	0	0	0	480	618	
5	0	0	0	0	480	619	
6	0	0	0	0	480	619	
7	0	0	0	0	481	616	
8	0	0	0	0	482	618	
9	0	0	0	0	483	619	
10	0	0	0	0	483	619	
11	0	0	0	0	483	621	
12	0	0	0	0	484	620	
13	0	0	0	0	485	619	
14	0	0	0	0	486	620	
15	0	0	0	0	487	617	
0	0	0	0	0	487	619	
1	0	0	0	0	488	619	
2	0	0	0	0	489	619	
3	0	0	0	0	491	621	
4	0	0	0	0	491	620	
5	0	0	0	0	492	620	
6	0	0	0	0	492	619	
7	0	0	0	0	493	617	
8	0	0	0	0	494	620	
9	0	0	0	0	495	620	
10	0	0	0	0	496	620	
11	0	0	0	0	497	622	
12	0	0	0	0	497	620	
13	0	0	0	0	498	620	
14	0	0	0	0	499	620	
15	0	0	0	0	500	618	
0	0	0	0	0	501	620	
1	0	0	0	0	502	620	
2	0	0	0	0	503	620	
3	0	0	0	0	504	623	
4	0	0	0	0	506	621	
5	0	0	0	0	507	620	
6	0	0	0	0	508	620	
7	0	0	0	0	510	618	
8	0	0	0	0	512	620	
9	0	0	0	0	512	620	
10	0	0	0	0	514	620	
11	0	0	0	0	515	621	
12	0	0	0	0	515	620	
13	0	0	0	0	516	619	
14	0	0	0	0	517	619	
15	0	0	0	0	518	617	
0	0	0	0	0	518	619	
1	0	0	0	0	519	618	
2	0	0	0	0	520	619	
3	0	0	0	0	521	621	
4	0	0	0	0	523	619	
5	0	0	0	0	523	620	
6	0	0	0	0	524	618	
7	0	0	0	0	526	617	
8	0	0	0	0	526	619	
9	0	0	0	0	527	619	
10	0	0	0	0	527	619	
11	0	0	0	0	529	621	
12	0	0	0	0	530	619	
13	0	0	0	0	531	619	
14	0	0	0	0	532	619	
15	0	0	0	0	533	617	
0	0	0	0	0	534	619	
1	0	0	0	0	535	620	
2	0	0	0	0	536	620	
3	0	0	0	0	536	621	
4	0	0	0	0	537	620	
5	0	0	0	0	538	619	
6	0	0	0	0	539	620	
7	0	0	0	0	539	617	
8	0	0	0	0	540	620	
9	0	0	0	0	541	620	
10	0	0	0	0	541	620	
11	0	0	0	0	541	622	
12	0	0	0	0	542	620	
13	0	0	0	0	543	620	
14	0	0	0	0	543	620	
15	0	0	0	0	543	619	
0	0	0	0	0	543	621	
1	0	0	0	0	543	621	
2	0	0	0	0	543	620	
3	0	0	0	0	543	622	
4	0	0	0	0	542	620	
5	0	0	0	0	543	621	
6	0	0	0	0	543	621	
7	0	0	0	0	543	619	
8	0	0	0	0	542	620	
9	0	0	0	0	542	621	
10	0	0	0	0	542	621	
11	0	0	0	0	542	622	
12	0	0	0	0	541	620	
13	0	0	0	0	541	621	
14	0	0	0	0	540	620	
15	0	0	0	0	539	618	
0	0	0	0	0	538	620	
1	0	0	0	0	537	620	
2	0	0	0	0	536	620	
3	0	0	0	0	535	622	
4	0	0	0	0	533	620	
5	0	0	0	0	532	620	
6	0	0	0	0	530	620	
7	0	0	0	0	529	618	
8	0	0	0	0	528	620	
9	0	0	0	0	527	620	
10	0	0	0	0	525	620	
11	0	0	0	0	524	622	
12	0	0	0	0	522	620	
13	0	0	0	0	520	619	
14	0	0	0	0	520	620	
15	0	0	0	0	519	617	
0	0	0	0	0	517	620	
1	0	0	0	0	516	619	
2	0	0	0	0	515	619	
3	0	0	0	0	513	621	
4	0	0	0	0	511	620	
5	0	0	0	0	510	620	
6	0	0	0	0	508	619	
7	0	0	0	0	506	618	
8	0	0	0	0	505	619	
9	0	0	0	0	504	620	
10	0	0	0	0	503	620	
11	0	0	0	0	502	622	
12	0	0	0	0	502	621	
13	0	0	0	0	501	621	
14	0	0	0	0	499	620	
15	0	0	0	0	498	619	
0	0	0	0	0	497	620	
1	0	0	0	0	497	620	
2	0	0	0	0	497	620	
3	0	0	0	0	496	622	
4	0	0	0	0	496	620	
5	0	0	0	0	495	619	
6	0	0	0	0	494	619	
7	0	0	0	0	494	617	
8	0	0	0	0	494	620	
9	0	0	0	0	493	620	
10	0	0	0	0	492	620	
11	0	0	0	0	492	621	
12	0	0	0	0	491	620	
13	0	0	0	0	491	620	
14	0	0	0	0	490	620	
15	0	0	0	0	489	617	
0	0	0	0	0	489	619	
1	0	0	0	0	489	620	
2	0	0	0	0	488	620	
3	0	0	0	0	488	622	
4	0	0	0	0	488	620	
5	0	0	0	0	487	620	
6	0	0	0	0	487	620	
7	0	0	0	0	486	618	
8	0	0	0	0	486	620	
9	0	0	0	0	486	620	
10	0	0	0	0	486	620	
11	0	0	0	0	487	622	
12	0	0	0	0	487	620	
13	0	0	0	0	487	620	
14	0	0	0	0	487	620	
15	0	0	0	0	488	618	
0	0	0	0	0	487	620	
1	0	0	0	0	487	620	
2	0	0	0	0	487	620	
3	0	0	0	0	487	622	
4	0	0	0	0	487	620	
5	0	0	0	0	487	620	
6	0	0	0	0	488	620	
7	0	0	0	0	487	618	
8	0	0	0	0	487	620	
9	0	0	0	0	486	619	
10	0	0	0	0	487	620	
11	0	0	0	0	486	621	
12	0	0	0	0	487	620	
13	0	0	0	0	488	620	
14	0	0	0	0	489	619	
15	0	0	0	0	489	617	
0	0	0	0	0	489	619	
1	0	0	0	0	488	619	
2	0	0	0	0	487	619	
3	0	0	0	0	487	621	
4	0	0	0	0	487	620	
5	0	0	0	0	488	620	
6	0	0	0	0	488	620	
7	0	0	0	0	487	617	
8	0	0	0	0	487	619	
9	0	0	0	0	486	619	
10	0	0	0	0	487	619	
11	0	0	0	0	487	621	
12	0	0	0	0	487	619	
13	0	0	0	0	486	619	
14	0	0	0	0	486	619	
15	0	0	0	0	486	616	
0	0	0	0	0	486	619	
1	0	0	0	0	486	619	
2	0	0	0	0	487	619	
3	0	0	0	0	487	621	
4	0	0	0	0	487	620	
5	0	0	0	0	487	619	
6	0	0	0	0	487	619	
7	0	0	0	0	487	617	
8	0	0	0	0	488	619	
9	0	0	0	0	487	619	
10	0	0	0	0	487	619	
11	0	0	0	0	486	621	
12	0	0	0	0	486	619	
13	0	0	0	0	486	619	
14	0	0	0	0	486	619	
15	0	0	0	0	487	617	
0	0	0	0	0	488	620	
1	0	0	0	0	488	619	
2	0	0	0	0	489	620	
3	0	0	0	0	489	622	
4	0	0	0	0	490	620	
5	0	0	0	0	490	620	
6	0	0	0	0	490	620	
7	0	0	0	0	491	618	
8	0	0	0	0	491	620	
9	0	0	0	0	492	620	
10	0	0	0	0	491	620	
11	0	0	0	0	491	622	
12	0	0	0	0	491	620	
13	0	0	0	0	492	620	
14	0	0	0	0	492	620	
15	0	0	0	0	491	617	
0	0	0	0	0	490	620	
1	0	0	0	0	489	620	
2	0	0	0	0	490	619	
3	0	0	0	0	490	621	
4	0	0	0	0	490	619	
5	0	0	0	0	490	619	
6	0	0	0	0	491	619	
7	0	0	0	0	490	617	
8	0	0	0	0	491	619	
9	0	0	0	0	491	619	
10	0	0	0	0	491	619	
11	0	0	0	0	492	621	
12	0	0	0	0	492	620	
13	0	0	0	0	493	620	
14	0	0	0	0	492	619	
15	0	0	0	0	493	617	
0	0	0	0	0	493	620	
1	0	0	0	0	494	619	
2	0	0	0	0	495	619	
3	0	0	0	0	495	621	
4	0	0	0	0	495	619	
5	0	0	0	0	496	619	
6	0	0	0	0	496	618	
7	0	0	0	0	497	617	
8	0	0	0	0	496	619	
9	0	0	0	0	497	619	
10	0	0	0	0	497	619	
11	0	0	0	0	497	621	
12	0	0	0	0	497	619	
13	0	0	0	0	497	619	
14	0	0	0	0	497	619	
15	0	0	0	0	498	617	
0	0	0	0	0	498	619	
1	0	0	0	0	498	620	
2	0	0	0	0	499	620	
3	0	0	0	0	499	622	
4	0	0	0	0	498	621	
5	0	0	0	0	499	620	
6	0	0	0	0	499	620	
7	0	0	0	0	499	618	
8	0	0	0	0	499	620	
9	0	0	0	0	500	620	
10	0	0	0	0	500	620	
11	0	0	0	0	501	621	
12	0	0	0	0	502	620	
13	0	0	0	0	502	619	
14	0	0	0	0	502	620	
15	0	0	0	0	502	618	
0	0	0	0	0	503	620	
1	0	0	0	0	503	620	
2	0	0	0	0	503	620	
3	0	0	0	0	504	622	
4	0	0	0	0	504	620	
5	0	0	0	0	504	621	
6	0	0	0	0	505	621	
7	0	0	0	0	506	618	
8	0	0	0	0	506	620	
9	0	0	0	0	507	620	
10	0	0	0	0	508	621	
11	0	0	0	0	508	623	
12	0	0	0	0	508	620	
13	0	0	0	0	509	620	
14	0	0	0	0	509	620	
15	0	0	0	0	509	619	
0	0	0	0	0	509	620	
1	0	0	0	0	508	620	
2	0	0	0	0	507	620	
3	0	0	0	0	507	621	
4	0	0	0	0	507	620	
5	0	0	0	0	507	619	
6	0	0	0	0	506	619	
7	0	0	0	0	507	617	
8	0	0	0	0	508	620	
9	0	0	0	0	509	619	
10	0	0	0	0	510	620	
11	0	0	0	0	510	622	
12	0	0	0	0	509	620	
13	0	0	0	0	509	620	
14	0	0	0	0	509	620	
15	0	0	0	0	509	618	
0	0	0	0	0	510	620	
1	0	0	0	0	510	620	
2	0	0	0	0	509	620	
3	0	0	0	0	510	622	
4	0	0	0	0	510	620	
5	0	0	0	0	510	620	
6	0	0	0	0	511	621	
7	0	0	0	0	510	618	
8	0	0	0	0	510	620	
9	0	0	0	0	510	620	
10	0	0	0	0	510	619	
11	0	0	0	0	510	621	
12	0	0	0	0	510	620	
13	0	0	0	0	510	620	
14	0	0	0	0	509	620	
15	0	0	0	0	510	617	
0	0	0	0	0	509	620	
1	0	0	0	0	509	619	
2	0	0	0	0	508	619	
3	0	0	0	0	508	621	
4	0	0	0	0	508	619	
5	0	0	0	0	508	620	
6	0	0	0	0	507	619	
7	0	0	0	0	507	617	
8	0	0	0	0	508	620	
9	0	0	0	0	508	619	
10	0	0	0	0	509	619	
11	0	0	0	0	509	621	
12	0	0	0	0	510	619	
13	0	0	0	0	509	619	
14	0	0	0	0	509	618	
15	0	0	0	0	509	616	
0	0	0	0	0	508	619	
1	0	0	0	0	507	619	
2	0	0	0	0	507	618	
3	0	0	0	0	507	620	
4	0	0	0	0	508	619	
5	0	0	0	0	508	619	
6	0	0	0	0	508	619	
7	0	0	0	0	507	617	
8	0	0	0	0	507	619	
9	0	0	0	0	507	618	
10	0	0	0	0	507	619	
11	0	0	0	0	506	620	
12	0	0	0	0	505	619	
13	0	0	0	0	506	619	
14	0	0	0	0	506	619	
15	0	0	0	0	507	617	
0	0	0	0	0	507	619	
1	0	0	0	0	506	619	
2	0	0	0	0	506	619	
3	0	0	0	0	506	621	
4	0	0	0	0	506	620	
5	0	0	0	0	505	620	
6	0	0	0	0	505	619	
7	0	0	0	0	504	616	
8	0	0	0	0	505	620	
9	0	0	0	0	505	619	
10	0	0	0	0	505	618	
11	0	0	0	0	505	620	
12	0	0	0	0	505	619	
13	0	0	0	0	506	620	
14	0	0	0	0	507	620	
15	0	0	0	0	507	618	
0	0	0	0	0	507	620	
1	0	0	0	0	507	620	
2	0	0	0	0	507	620	
3	0	0	0	0	507	622	
4	0	0	0	0	507	620	
5	0	0	0	0	508	620	
6	0	0	0	0	508	620	
7	0	0	0	0	508	618	
8	0	0	0	0	508	620	
9	0	0	0	0	508	620	
10	0	0	0	0	507	620	
11	0	0	0	0	507	622	
12	0	0	0	0	508	621	
13	0	0	0	0	508	621	
14	0	0	0	0	508	621	
15	0	0	0	0	509	619	
0	0	0	0	0	509	620	
1	0	0	0	0	510	620	
2	0	0	0	0	510	620	
3	0	0	0	0	510	622	
4	0	0	0	0	511	620	
5	0	0	0	0	511	620	
6	0	0	0	0	511	620	
7	0	0	0	0	511	617	
8	0	0	0	0	511	620	
9	0	0	0	0	511	620	
10	0	0	0	0	510	619	
11	0	0	0	0	509	620	
12	0	0	0	0	509	619	
13	0	0	0	0	508	619	
14	0	0	0	0	508	619	
15	0	0	0	0	507	617	
0	0	0	0	0	508	618	
1	0	0	0	0	507	618	
2	0	0	0	0	508	618	
3	0	0	0	0	508	620	
4	0	0	0	0	508	618	
5	0	0	0	0	508	618	
6	0	0	0	0	508	619	
7	0	0	0	0	507	616	
8	0	0	0	0	507	619	
9	0	0	0	0	507	620	
10	0	0	0	0	507	618	
11	0	0	0	0	507	620	
12	0	0	0	0	507	619	
13	0	0	0	0	507	618	
14	0	0	0	0	507	619	
15	0	0	0	0	508	617	
0	0	0	0	0	508	618	
1	0	0	0	0	509	619	
2	0	0	0	0	509	619	
3	0	0	0	0	510	621	
4	0	0	0	0	511	620	
5	0	0	0	0	511	620	
6	0	0	0	0	511	620	
7	0	0	0	0	511	618	
8	0	0	0	0	511	620	
9	0	0	0	0	510	620	
10	0	0	0	0	510	620	
11	0	0	0	0	509	622	
12	0	0	0	0	509	620	
13	0	0	0	0	509	620	
14	0	0	0	0	509	621	
15	0	0	0	0	509	619	
0	0	0	0	0	509	621	
1	0	0	0	0	509	620	
2	0	0	0	0	508	620	
3	0	0	0	0	508	622	
4	0	0	0	0	507	621	
5	0	0	0	0	507	621	
6	0	0	0	0	506	620	
7	0	0	0	0	506	619	
8	0	0	0	0	505	620	
9	0	0	0	0	504	620	
10	0	0	0	0	504	620	
11	0	0	0	0	503	622	
12	0	0	0	0	503	620	
13	0	0	0	0	503	620	
14	0	0	0	0	503	620	
15	0	0	0	0	504	618	
0	0	0	0	0	505	620	
1	0	0	0	0	505	620	
2	0	0	0	0	505	620	
3	0	0	0	0	505	621	
4	0	0	0	0	504	619	
5	0	0	0	0	503	619	
6	0	0	0	0	503	619	
7	0	0	0	0	503	617	
8	0	0	0	0	503	619	
9	0	0	0	0	503	619	
10	0	0	0	0	503	619	
11	0	0	0	0	502	621	
12	0	0	0	0	503	619	
13	0	0	0	0	502	619	
14	0	0	0	0	500	619	
15	0	0	0	0	499	617	
0	0	0	0	0	498	619	
1	0	0	0	0	499	619	
2	0	0	0	0	499	619	
3	0	0	0	0	500	621	
4	0	0	0	0	501	619	
5	0	0	0	0	502	619	
6	0	0	0	0	503	619	
7	0	0	0	0	504	616	
8	0	0	0	0	504	619	
9	0	0	0	0	505	619	
10	0	0	0	0	506	619	
11	0	0	0	0	507	620	
12	0	0	0	0	508	619	
13	0	0	0	0	508	619	
14	0	0	0	0	508	619	
15	0	0	0	0	508	616	
0	0	0	0	0	509	619	
1	0	0	0	0	510	619	
2	0	0	0	0	510	619	
3	0	0	0	0	510	620	
4	0	0	0	0	510	618	
5	0	0	0	0	511	619	
6	0	0	0	0	511	619	
7	0	0	0	0	510	616	
8	0	0	0	0	510	618	
9	0	0	0	0	511	619	
10	0	0	0	0	511	619	
11	0	0	0	0	512	621	
12	0	0	0	0	512	619	
13	0	0	0	0	513	619	
14	0	0	0	0	514	620	
15	0	0	0	0	515	618	
0	0	0	0	0	516	620	
1	0	0	0	0	517	620	
2	0	0	0	0	516	620	
3	0	0	0	0	516	622	
4	0	0	0	0	515	620	
5	0	0	0	0	515	621	
6	0	0	0	0	515	621	
7	0	0	0	0	516	619	
8	0	0	0	0	516	621	
9	0	0	0	0	516	621	
10	0	0	0	0	516	621	
11	0	0	0	0	515	623	
12	0	0	0	0	515	622	
13	0	0	0	0	515	621	
14	0	0	0	0	514	622	
15	0	0	0	0	514	620	
0	0	0	0	0	513	621	
1	0	0	0	0	512	621	
2	0	0	0	0	511	621	
3	0	0	0	0	512	624	
4	0	0	0	0	513	622	
5	0	0	0	0	513	622	
6	0	0	0	0	512	622	
7	0	0	0	0	512	620	
8	0	0	0	0	513	622	
9	0	0	0	0	514	622	
10	0	0	0	0	515	622	
11	0	0	0	0	515	624	
12	0	0	0	0	515	622	
13	0	0	0	0	515	621	
14	0	0	0	0	515	622	
15	0	0	0	0	515	620	
0	0	0	0	0	514	621	
1	0	0	0	0	514	621	
2	0	0	0	0	514	621	
3	0	0	0	0	514	623	
4	0	0	0	0	515	621	
5	0	0	0	0	515	621	
6	0	0	0	0	515	620	
7	0	0	0	0	515	619	
8	0	0	0	0	515	620	
9	0	0	0	0	514	620	
10	0	0	0	0	514	620	
11	0	0	0	0	515	621	
12	0	0	0	0	515	620	
13	0	0	0	0	514	619	
14	0	0	0	0	514	619	
15	0	0	0	0	514	616	
0	0	0	0	0	513	619	
1	0	0	0	0	513	619	
2	0	0	0	0	512	618	
3	0	0	0	0	512	620	
4	0	0	0	0	512	617	
5	0	0	0	0	512	618	
6	0	0	0	0	512	619	
7	0	0	0	0	512	615	
8	0	0	0	0	512	618	
9	0	0	0	0	512	618	
10	0	0	0	0	513	618	
11	0	0	0	0	513	620	
12	0	0	0	0	512	618	
13	0	0	0	0	512	618	
14	0	0	0	0	512	619	
15	0	0	0	0	512	617	
0	0	0	0	0	513	619	
1	0	0	0	0	513	619	
2	0	0	0	0	513	620	
3	0	0	0	0	513	621	
4	0	0	0	0	513	619	
5	0	0	0	0	513	619	
6	0	0	0	0	514	619	
7	0	0	0	0	513	617	
8	0	0	0	0	513	619	
9	0	0	0	0	513	619	
10	0	0	0	0	513	620	
11	0	0	0	0	513	621	
12	0	0	0	0	512	620	
13	0	0	0	0	512	620	
14	0	0	0	0	510	620	
15	0	0	0	0	507	618	
0	0	0	0	0	504	620	
1	0	0	0	0	498	620	
2	0	0	0	0	492	620	
3	0	0	0	0	485	621	
4	0	0	0	0	477	621	
5	0	0	0	0	468	620	
6	0	0	0	0	460	620	
7	0	0	0	0	451	618	
8	0	0	0	0	443	620	
9	0	0	0	0	437	620	
10	0	0	0	0	431	620	
11	0	0	0	0	423	622	
12	0	0	0	0	416	620	
13	0	0	0	0	409	620	
14	0	0	0	0	405	620	
15	0	0	0	0	401	618	
0	0	0	0	0	399	620	
1	0	0	0	0	397	620	
2	0	0	0	0	397	620	
3	0	0	0	0	403	622	
4	0	0	0	0	414	620	
5	0	0	0	0	432	620	
6	0	0	0	0	453	619	
7	0	0	0	0	478	617	
8	0	0	0	0	509	619	
9	0	0	0	0	544	620	
10	0	0	0	0	582	620	
11	0	0	0	0	623	621	
12	0	0	0	0	662	620	
13	0	0	0	0	697	620	
14	0	0	0	0	728	620	
15	0	0	0	0	756	618	
0	0	0	0	0	783	620	
1	0	0	0	0	807	620	
2	0	0	0	0	824	619	
3	0	0	0	0	832	621	
4	0	0	0	0	834	620	
5	0	0	0	0	828	619	
6	0	0	0	0	818	620	
7	0	0	0	0	803	617	
8	0	0	0	0	779	620	
9	0	0	0	0	748	620	
10	0	0	0	0	717	620	
11	0	0	0	0	688	622	
12	0	0	0	0	663	620	
13	0	0	0	0	640	620	
14	0	0	0	0	623	621	
15	0	0	0	0	608	617	
0	0	0	0	0	596	620	
1	0	0	0	0	588	620	
2	0	0	0	0	580	620	
3	0	0	0	0	576	622	
4	0	0	0	0	574	620	
5	0	0	0	0	574	620	
6	0	0	0	0	574	620	
7	0	0	0	0	573	617	
8	0	0	0	0	572	619	
9	0	0	0	0	569	620	
10	0	0	0	0	565	619	
11	0	0	0	0	560	620	
12	0	0	0	0	553	619	
13	0	0	0	0	546	619	
14	0	0	0	0	539	619	
15	0	0	0	0	531	616	
0	0	0	0	0	523	619	
1	0	0	0	0	514	619	
2	0	0	0	0	508	619	
3	0	0	0	0	501	621	
4	0	0	0	0	494	618	
5	0	0	0	0	488	619	
6	0	0	0	0	483	619	
7	0	0	0	0	479	617	
8	0	0	0	0	473	619	
9	0	0	0	0	470	619	
10	0	0	0	0	467	618	
11	0	0	0	0	465	620	
12	0	0	0	0	464	619	
13	0	0	0	0	463	619	
14	0	0	0	0	462	619	
15	0	0	0	0	462	617	
0	0	0	0	0	460	619	
1	0	0	0	0	460	620	
2	0	0	0	0	459	620	
3	0	0	0	0	459	622	
4	0	0	0	0	459	620	
5	0	0	0	0	460	621	
6	0	0	0	0	459	621	
7	0	0	0	0	459	619	
8	0	0	0	0	459	621	
9	0	0	0	0	459	621	
10	0	0	0	0	459	621	
11	0	0	0	0	459	622	
12	0	0	0	0	459	620	
13	0	0	0	0	459	620	
14	0	0	0	0	459	621	
15	0	0	0	0	458	619	
0	0	0	0	0	459	620	
1	0	0	0	0	459	620	
2	0	0	0	0	458	620	
3	0	0	0	0	459	622	
4	0	0	0	0	458	621	
5	0	0	0	0	459	620	
6	0	0	0	0	460	620	
7	0	0	0	0	459	618	
8	0	0	0	0	459	621	
9	0	0	0	0	460	620	
10	0	0	0	0	461	620	
11	0	0	0	0	462	622	
12	0	0	0	0	462	620	
13	0	0	0	0	463	620	
14	0	0	0	0	463	620	
15	0	0	0	0	464	618	
0	0	0	0	0	464	620	
1	0	0	0	0	465	620	
2	0	0	0	0	465	620	
3	0	0	0	0	466	621	
4	0	0	0	0	466	620	
5	0	0	0	0	466	620	
6	0	0	0	0	467	620	
7	0	0	0	0	466	617	
8	0	0	0	0	466	619	
9	0	0	0	0	466	619	
10	0	0	0	0	466	619	
11	0	0	0	0	467	621	
12	0	0	0	0	467	620	
13	0	0	0	0	466	619	
14	0	0	0	0	466	620	
15	0	0	0	0	466	617	
0	0	0	0	0	466	619	
1	0	0	0	0	467	620	
2	0	0	0	0	468	620	
3	0	0	0	0	468	621	
4	0	0	0	0	468	620	
5	0	0	0	0	469	620	
6	0	0	0	0	469	620	
7	0	0	0	0	470	619	
8	0	0	0	0	470	621	
9	0	0	0	0	470	621	
10	0	0	0	0	470	621	
11	0	0	0	0	471	623	
12	0	0	0	0	471	621	
13	0	0	0	0	471	621	
14	0	0	0	0	471	621	
15	0	0	0	0	472	620	
0	0	0	0	0	472	622	
1	0	0	0	0	473	621	
2	0	0	0	0	474	622	
3	0	0	0	0	474	623	
4	0	0	0	0	474	622	
5	0	0	0	0	475	622	
6	0	0	0	0	475	622	
7	0	0	0	0	475	620	
8	0	0	0	0	475	622	
9	0	0	0	0	475	621	
10	0	0	0	0	475	622	
11	0	0	0	0	474	624	
12	0	0	0	0	475	622	
13	0	0	0	0	476	621	
14	0	0	0	0	476	621	
15	0	0	0	0	476	620	
0	0	0	0	0	476	621	
1	0	0	0	0	477	621	
2	0	0	0	0	477	620	
3	0	0	0	0	478	623	
4	0	0	0	0	477	621	
5	0	0	0	0	478	620	
6	0	0	0	0	478	620	
7	0	0	0	0	478	617	
8	0	0	0	0	479	620	
9	0	0	0	0	479	619	
10	0	0	0	0	480	619	
11	0	0	0	0	480	620	
12	0	0	0	0	481	619	
13	0	0	0	0	481	619	
14	0	0	0	0	482	619	
15	0	0	0	0	483	617	
0	0	0	0	0	483	618	
1	0	0	0	0	483	618	
2	0	0	0	0	483	618	
3	0	0	0	0	485	620	
4	0	0	0	0	486	618	
5	0	0	0	0	486	618	
6	0	0	0	0	487	617	
7	0	0	0	0	487	616	
8	0	0	0	0	488	618	
9	0	0	0	0	488	618	
10	0	0	0	0	488	618	
11	0	0	0	0	489	620	
12	0	0	0	0	489	618	
13	0	0	0	0	489	619	
14	0	0	0	0	489	618	
15	0	0	0	0	489	617	
0	0	0	0	0	489	619	
1	0	0	0	0	489	618	
2	0	0	0	0	489	618	
3	0	0	0	0	489	620	
4	0	0	0	0	491	618	
5	0	0	0	0	491	618	
6	0	0	0	0	492	618	
7	0	0	0	0	493	616	
8	0	0	0	0	494	619	
9	0	0	0	0	495	617	
10	0	0	0	0	496	617	
11	0	0	0	0	497	620	
12	0	0	0	0	498	618	
13	0	0	0	0	499	618	
14	0	0	0	0	500	618	
15	0	0	0	0	501	616	
0	0	0	0	0	503	618	
1	0	0	0	0	503	618	
2	0	0	0	0	503	619	
3	0	0	0	0	504	621	
4	0	0	0	0	505	619	
5	0	0	0	0	506	619	
6	0	0	0	0	507	619	
7	0	0	0	0	508	617	
8	0	0	0	0	509	620	
9	0	0	0	0	511	620	
10	0	0	0	0	512	619	
11	0	0	0	0	514	621	
12	0	0	0	0	515	619	
13	0	0	0	0	516	620	
14	0	0	0	0	517	619	
15	0	0	0	0	518	617	
0	0	0	0	0	519	619	
1	0	0	0	0	520	619	
2	0	0	0	0	521	618	
3	0	0	0	0	522	620	
4	0	0	0	0	523	618	
5	0	0	0	0	523	619	
6	0	0	0	0	524	619	
7	0	0	0	0	525	616	
8	0	0	0	0	526	618	
9	0	0	0	0	527	618	
10	0	0	0	0	527	618	
11	0	0	0	0	527	620	
12	0	0	0	0	528	619	
13	0	0	0	0	529	619	
14	0	0	0	0	529	619	
15	0	0	0	0	530	617	
0	0	0	0	0	530	619	
1	0	0	0	0	530	619	
2	0	0	0	0	531	620	
3	0	0	0	0	531	621	
4	0	0	0	0	531	620	
5	0	0	0	0	531	620	
6	0	0	0	0	531	620	
7	0	0	0	0	531	618	
8	0	0	0	0	531	620	
9	0	0	0	0	531	620	
10	0	0	0	0	532	620	
11	0	0	0	0	533	622	
12	0	0	0	0	534	620	
13	0	0	0	0	534	620	
14	0	0	0	0	534	620	
15	0	0	0	0	534	619	
0	0	0	0	0	534	620	
1	0	0	0	0	534	621	
2	0	0	0	0	533	620	
3	0	0	0	0	533	622	
4	0	0	0	0	533	622	
5	0	0	0	0	533	622	
6	0	0	0	0	532	621	
7	0	0	0	0	532	619	
8	0	0	0	0	532	620	
9	0	0	0	0	531	621	
10	0	0	0	0	530	621	
11	0	0	0	0	528	623	
12	0	0	0	0	527	621	
13	0	0	0	0	526	621	
14	0	0	0	0	524	621	
15	0	0	0	0	523	619	
0	0	0	0	0	522	621	
1	0	0	0	0	520	621	
2	0	0	0	0	519	621	
3	0	0	0	0	518	623	
4	0	0	0	0	518	621	
5	0	0	0	0	516	622	
6	0	0	0	0	515	621	
7	0	0	0	0	513	619	
8	0	0	0	0	511	621	
9	0	0	0	0	510	621	
10	0	0	0	0	508	621	
11	0	0	0	0	507	622	
12	0	0	0	0	505	621	
13	0	0	0	0	504	621	
14	0	0	0	0	502	621	
15	0	0	0	0	502	619	
0	0	0	0	0	500	621	
1	0	0	0	0	499	621	
2	0	0	0	0	498	620	
3	0	0	0	0	497	622	
4	0	0	0	0	496	620	
5	0	0	0	0	496	620	
6	0	0	0	0	495	621	
7	0	0	0	0	494	619	
8	0	0	0	0	493	620	
9	0	0	0	0	492	620	
10	0	0	0	0	491	620	
11	0	0	0	0	490	622	
12	0	0	0	0	489	620	
13	0	0	0	0	488	620	
14	0	0	0	0	487	620	
15	0	0	0	0	487	618	
0	0	0	0	0	487	620	
1	0	0	0	0	487	619	
2	0	0	0	0	487	619	
3	0	0	0	0	486	621	
4	0	0	0	0	485	620	
5	0	0	0	0	485	619	
6	0	0	0	0	484	619	
7	0	0	0	0	484	617	
8	0	0	0	0	484	619	
9	0	0	0	0	484	619	
10	0	0	0	0	484	620	
11	0	0	0	0	484	622	
12	0	0	0	0	483	620	
13	0	0	0	0	483	620	
14	0	0	0	0	482	620	
15	0	0	0	0	483	617	
0	0	0	0	0	483	619	
1	0	0	0	0	483	620	
2	0	0	0	0	484	620	
3	0	0	0	0	484	622	
4	0	0	0	0	485	621	
5	0	0	0	0	484	620	
6	0	0	0	0	484	620	
7	0	0	0	0	484	619	
8	0	0	0	0	484	621	
9	0	0	0	0	483	621	
10	0	0	0	0	483	621	
11	0	0	0	0	484	622	
12	0	0	0	0	483	621	
13	0	0	0	0	483	621	
14	0	0	0	0	483	621	
15	0	0	0	0	483	618	
0	0	0	0	0	483	620	
1	0	0	0	0	484	621	
2	0	0	0	0	484	621	
3	0	0	0	0	484	623	
4	0	0	0	0	484	621	
5	0	0	0	0	485	621	
6	0	0	0	0	486	621	
7	0	0	0	0	485	619	
8	0	0	0	0	484	621	
9	0	0	0	0	485	621	
10	0	0	0	0	486	621	
11	0	0	0	0	486	624	
12	0	0	0	0	485	621	
13	0	0	0	0	485	622	
14	0	0	0	0	486	622	
15	0	0	0	0	486	620	
0	0	0	0	0	486	622	
1	0	0	0	0	485	621	
2	0	0	0	0	486	621	
3	0	0	0	0	486	623	
4	0	0	0	0	487	621	
5	0	0	0	0	486	621	
6	0	0	0	0	485	621	
7	0	0	0	0	485	619	
8	0	0	0	0	485	621	
9	0	0	0	0	484	620	
10	0	0	0	0	484	621	
11	0	0	0	0	484	623	
12	0	0	0	0	483	621	
13	0	0	0	0	483	620	
14	0	0	0	0	483	621	
15	0	0	0	0	484	619	
0	0	0	0	0	483	621	
1	0	0	0	0	484	620	
2	0	0	0	0	484	620	
3	0	0	0	0	484	622	
4	0	0	0	0	485	620	
5	0	0	0	0	484	620	
6	0	0	0	0	485	620	
7	0	0	0	0	486	617	
8	0	0	0	0	486	620	
9	0	0	0	0	487	620	
10	0	0	0	0	486	619	
11	0	0	0	0	487	622	
12	0	0	0	0	487	619	
13	0	0	0	0	487	619	
14	0	0	0	0	487	620	
15	0	0	0	0	487	618	
0	0	0	0	0	487	620	
1	0	0	0	0	487	619	
2	0	0	0	0	487	619	
3	0	0	0	0	487	621	
4	0	0	0	0	486	619	
5	0	0	0	0	486	619	
6	0	0	0	0	486	619	
7	0	0	0	0	487	617	
8	0	0	0	0	487	619	
9	0	0	0	0	487	620	
10	0	0	0	0	487	619	
11	0	0	0	0	487	621	
12	0	0	0	0	487	620	
13	0	0	0	0	487	619	
14	0	0	0	0	487	619	
15	0	0	0	0	487	618	
0	0	0	0	0	487	619	
1	0	0	0	0	488	618	
2	0	0	0	0	488	619	
3	0	0	0	0	489	620	
4	0	0	0	0	489	618	
5	0	0	0	0	488	618	
6	0	0	0	0	487	618	
7	0	0	0	0	487	616	
8	0	0	0	0	488	617	
9	0	0	0	0	489	617	
10	0	0	0	0	488	617	
11	0	0	0	0	489	619	
12	0	0	0	0	489	618	
13	0	0	0	0	489	618	
14	0	0	0	0	490	618	
15	0	0	0	0	490	616	
0	0	0	0	0	490	618	
1	0	0	0	0	491	618	
2	0	0	0	0	491	619	
3	0	0	0	0	492	620	
4	0	0	0	0	492	619	
5	0	0	0	0	493	619	
6	0	0	0	0	493	618	
7	0	0	0	0	493	616	
8	0	0	0	0	493	619	
9	0	0	0	0	493	619	
10	0	0	0	0	493	619	
11	0	0	0	0	493	621	
12	0	0	0	0	493	619	
13	0	0	0	0	493	619	
14	0	0	0	0	494	619	
15	0	0	0	0	494	616	
0	0	0	0	0	494	619	
1	0	0	0	0	494	619	
2	0	0	0	0	495	619	
3	0	0	0	0	496	620	
4	0	0	0	0	496	619	
5	0	0	0	0	496	618	
6	0	0	0	0	496	618	
7	0	0	0	0	496	616	
8	0	0	0	0	496	619	
9	0	0	0	0	496	619	
10	0	0	0	0	496	619	
11	0	0	0	0	496	620	
12	0	0	0	0	496	618	
13	0	0	0	0	497	619	
14	0	0	0	0	497	619	
15	0	0	0	0	497	618	
0	0	0	0	0	498	619	
1	0	0	0	0	499	619	
2	0	0	0	0	500	620	
3	0	0	0	0	501	622	
4	0	0	0	0	500	621	
5	0	0	0	0	500	620	
6	0	0	0	0	501	620	
7	0	0	0	0	501	618	
8	0	0	0	0	501	620	
9	0	0	0	0	501	620	
10	0	0	0	0	501	619	
11	0	0	0	0	502	621	
12	0	0	0	0	502	619	
13	0	0	0	0	502	619	
14	0	0	0	0	501	619	
15	0	0	0	0	502	617	
0	0	0	0	0	502	619	
1	0	0	0	0	503	620	
2	0	0	0	0	504	619	
3	0	0	0	0	504	621	
4	0	0	0	0	504	619	
5	0	0	0	0	504	619	
6	0	0	0	0	504	619	
7	0	0	0	0	504	617	
8	0	0	0	0	504	619	
9	0	0	0	0	504	619	
10	0	0	0	0	505	619	
11	0	0	0	0	505	620	
12	0	0	0	0	505	619	
13	0	0	0	0	504	619	
14	0	0	0	0	504	619	
15	0	0	0	0	504	616	
0	0	0	0	0	503	619	
1	0	0	0	0	503	619	
2	0	0	0	0	503	619	
3	0	0	0	0	503	620	
4	0	0	0	0	503	619	
5	0	0	0	0	503	619	
6	0	0	0	0	503	619	
7	0	0	0	0	503	617	
8	0	0	0	0	503	619	
9	0	0	0	0	503	619	
10	0	0	0	0	503	620	
11	0	0	0	0	503	620	
12	0	0	0	0	502	619	
13	0	0	0	0	502	620	
14	0	0	0	0	502	619	
15	0	0	0	0	502	617	
0	0	0	0	0	502	620	
1	0	0	0	0	503	619	
2	0	0	0	0	503	619	
3	0	0	0	0	504	621	
4	0	0	0	0	504	620	
5	0	0	0	0	503	620	
6	0	0	0	0	503	620	
7	0	0	0	0	503	617	
8	0	0	0	0	503	620	
9	0	0	0	0	503	620	
10	0	0	0	0	503	620	
11	0	0	0	0	502	622	
12	0	0	0	0	502	620	
13	0	0	0	0	502	621	
14	0	0	0	0	502	620	
15	0	0	0	0	501	618	
0	0	0	0	0	500	621	
1	0	0	0	0	500	620	
2	0	0	0	0	500	620	
3	0	0	0	0	500	622	
4	0	0	0	0	500	621	
5	0	0	0	0	500	621	
6	0	0	0	0	501	621	
7	0	0	0	0	501	619	
8	0	0	0	0	501	621	
9	0	0	0	0	502	620	
10	0	0	0	0	502	621	
11	0	0	0	0	502	623	
12	0	0	0	0	502	620	
13	0	0	0	0	502	620	
14	0	0	0	0	502	621	
15	0	0	0	0	503	618	
0	0	0	0	0	504	620	
1	0	0	0	0	504	620	
2	0	0	0	0	504	620	
3	0	0	0	0	505	622	
4	0	0	0	0	505	620	
5	0	0	0	0	505	620	
6	0	0	0	0	505	620	
7	0	0	0	0	505	617	
8	0	0	0	0	505	620	
9	0	0	0	0	505	619	
10	0	0	0	0	505	620	
11	0	0	0	0	506	621	
12	0	0	0	0	505	620	
13	0	0	0	0	505	620	
14	0	0	0	0	505	620	
15	0	0	0	0	506	617	
0	0	0	0	0	506	619	
1	0	0	0	0	506	620	
2	0	0	0	0	505	620	
3	0	0	0	0	506	622	
4	0	0	0	0	506	620	
5	0	0	0	0	507	619	
6	0	0	0	0	507	619	
7	0	0	0	0	507	617	
8	0	0	0	0	507	619	
9	0	0	0	0	507	619	
10	0	0	0	0	506	619	
11	0	0	0	0	506	620	
12	0	0	0	0	505	619	
13	0	0	0	0	505	619	
14	0	0	0	0	505	619	
15	0	0	0	0	505	617	
0	0	0	0	0	504	618	
1	0	0	0	0	505	618	
2	0	0	0	0	505	619	
3	0	0	0	0	504	620	
4	0	0	0	0	504	619	
5	0	0	0	0	504	619	
6	0	0	0	0	504	619	
7	0	0	0	0	504	617	
8	0	0	0	0	504	618	
9	0	0	0	0	503	619	
10	0	0	0	0	502	619	
11	0	0	0	0	503	621	
12	0	0	0	0	503	619	
13	0	0	0	0	502	619	
14	0	0	0	0	502	619	
15	0	0	0	0	502	617	
0	0	0	0	0	502	620	
1	0	0	0	0	501	620	
2	0	0	0	0	501	619	
3	0	0	0	0	501	621	
4	0	0	0	0	501	619	
5	0	0	0	0	500	619	
6	0	0	0	0	499	619	
7	0	0	0	0	499	617	
8	0	0	0	0	498	619	
9	0	0	0	0	498	619	
10	0	0	0	0	497	619	
11	0	0	0	0	497	621	
12	0	0	0	0	496	619	
13	0	0	0	0	496	619	
14	0	0	0	0	496	619	
15	0	0	0	0	496	616	
0	0	0	0	0	495	618	
1	0	0	0	0	496	618	
2	0	0	0	0	496	618	
3	0	0	0	0	497	621	
4	0	0	0	0	497	619	
5	0	0	0	0	497	619	
6	0	0	0	0	497	619	
7	0	0	0	0	497	617	
8	0	0	0	0	499	619	
9	0	0	0	0	499	619	
10	0	0	0	0	500	619	
11	0	0	0	0	501	620	
12	0	0	0	0	503	619	
13	0	0	0	0	504	619	
14	0	0	0	0	504	619	
15	0	0	0	0	505	617	
0	0	0	0	0	506	618	
1	0	0	0	0	507	619	
2	0	0	0	0	508	619	
3	0	0	0	0	508	621	
4	0	0	0	0	508	619	
5	0	0	0	0	508	619	
6	0	0	0	0	509	620	
7	0	0	0	0	509	617	
8	0	0	0	0	509	619	
9	0	0	0	0	511	620	
10	0	0	0	0	511	620	
11	0	0	0	0	512	621	
12	0	0	0	0	513	619	
13	0	0	0	0	513	619	
14	0	0	0	0	513	620	
15	0	0	0	0	513	618	
0	0	0	0	0	515	620	
1	0	0	0	0	515	619	
2	0	0	0	0	515	619	
3	0	0	0	0	515	621	
4	0	0	0	0	515	619	
5	0	0	0	0	515	619	
6	0	0	0	0	515	620	
7	0	0	0	0	514	617	
8	0	0	0	0	513	619	
9	0	0	0	0	512	619	
10	0	0	0	0	511	620	
11	0	0	0	0	511	621	
12	0	0	0	0	511	620	
13	0	0	0	0	511	620	
14	0	0	0	0	511	620	
15	0	0	0	0	511	618	
0	0	0	0	0	510	620	
1	0	0	0	0	509	620	
2	0	0	0	0	508	621	
3	0	0	0	0	508	622	
4	0	0	0	0	507	620	
5	0	0	0	0	507	620	
6	0	0	0	0	508	620	
7	0	0	0	0	509	618	
8	0	0	0	0	509	620	
9	0	0	0	0	509	620	
10	0	0	0	0	509	621	
11	0	0	0	0	509	622	
12	0	0	0	0	510	621	
13	0	0	0	0	511	621	
14	0	0	0	0	511	621	
15	0	0	0	0	511	619	
0	0	0	0	0	512	621	
1	0	0	0	0	512	620	
2	0	0	0	0	512	621	
3	0	0	0	0	512	623	
4	0	0	0	0	512	621	
5	0	0	0	0	512	621	
6	0	0	0	0	512	621	
7	0	0	0	0	512	620	
8	0	0	0	0	512	621	
9	0	0	0	0	511	621	
10	0	0	0	0	510	621	
11	0	0	0	0	511	622	
12	0	0	0	0	511	621	
13	0	0	0	0	512	620	
14	0	0	0	0	514	620	
15	0	0	0	0	514	618	
0	0	0	0	0	514	619	
1	0	0	0	0	514	620	
2	0	0	0	0	514	620	
3	0	0	0	0	514	621	
4	0	0	0	0	514	620	
5	0	0	0	0	515	620	
6	0	0	0	0	514	620	
7	0	0	0	0	515	617	
8	0	0	0	0	513	619	
9	0	0	0	0	513	620	
10	0	0	0	0	512	619	
11	0	0	0	0	512	622	
12	0	0	0	0	512	620	
13	0	0	0	0	513	620	
14	0	0	0	0	512	621	
15	0	0	0	0	511	618	
0	0	0	0	0	511	620	
1	0	0	0	0	512	621	
2	0	0	0	0	511	621	
3	0	0	0	0	511	623	
4	0	0	0	0	512	621	
5	0	0	0	0	512	621	
6	0	0	0	0	511	621	
7	0	0	0	0	511	619	
8	0	0	0	0	512	621	
9	0	0	0	0	513	622	
10	0	0	0	0	513	621	
11	0	0	0	0	512	623	
12	0	0	0	0	512	621	
13	0	0	0	0	512	620	
14	0	0	0	0	511	621	
15	0	0	0	0	511	619	
0	0	0	0	0	510	621	
1	0	0	0	0	509	622	
2	0	0	0	0	506	621	
3	0	0	0	0	502	623	
4	0	0	0	0	497	621	
5	0	0	0	0	491	621	
6	0	0	0	0	483	621	
7	0	0	0	0	476	619	
8	0	0	0	0	469	621	
9	0	0	0	0	460	621	
10	0	0	0	0	451	621	
11	0	0	0	0	441	623	
12	0	0	0	0	432	622	
13	0	0	0	0	424	621	
14	0	0	0	0	418	621	
15	0	0	0	0	410	619	
0	0	0	0	0	401	620	
1	0	0	0	0	393	620	
2	0	0	0	0	388	620	
3	0	0	0	0	383	621	
4	0	0	0	0	380	620	
5	0	0	0	0	381	620	
6	0	0	0	0	386	620	
7	0	0	0	0	397	617	
8	0	0	0	0	414	619	
9	0	0	0	0	436	619	
10	0	0	0	0	462	618	
11	0	0	0	0	494	620	
12	0	0	0	0	531	618	
13	0	0	0	0	571	618	
14	0	0	0	0	617	619	
15	0	0	0	0	664	616	
0	0	0	0	0	710	619	
1	0	0	0	0	751	619	
2	0	0	0	0	789	619	
3	0	0	0	0	823	621	
4	0	0	0	0	856	619	
5	0	0	0	0	887	619	
6	0	0	0	0	908	619	
7	0	0	0	0	917	617	
8	0	0	0	0	917	619	
9	0	0	0	0	909	619	
10	0	0	0	0	893	619	
11	0	0	0	0	871	621	
12	0	0	0	0	841	619	
13	0	0	0	0	806	619	
14	0	0	0	0	770	619	
15	0	0	0	0	737	617	
0	0	0	0	0	708	620	
1	0	0	0	0	684	620	
2	0	0	0	0	664	619	
3	0	0	0	0	649	620	
4	0	0	0	0	637	619	
5	0	0	0	0	628	619	
6	0	0	0	0	620	619	
7	0	0	0	0	614	616	
8	0	0	0	0	609	618	
9	0	0	0	0	604	619	
10	0	0	0	0	600	618	
11	0	0	0	0	594	620	
12	0	0	0	0	588	619	
13	0	0	0	0	580	618	
14	0	0	0	0	572	619	
15	0	0	0	0	561	615	
0	0	0	0	0	550	618	
1	0	0	0	0	538	618	
2	0	0	0	0	527	618	
3	0	0	0	0	516	620	
4	0	0	0	0	505	618	
5	0	0	0	0	496	618	
6	0	0	0	0	488	619	
7	0	0	0	0	480	616	
8	0	0	0	0	473	618	
9	0	0	0	0	466	619	
10	0	0	0	0	461	619	
11	0	0	0	0	457	621	
12	0	0	0	0	453	619	
13	0	0	0	0	450	618	
14	0	0	0	0	448	619	
15	0	0	0	0	448	617	
0	0	0	0	0	446	619	
1	0	0	0	0	445	618	
2	0	0	0	0	445	618	
3	0	0	0	0	445	620	
4	0	0	0	0	444	619	
5	0	0	0	0	444	618	
6	0	0	0	0	444	618	
7	0	0	0	0	443	616	
8	0	0	0	0	443	619	
9	0	0	0	0	443	619	
10	0	0	0	0	443	619	
11	0	0	0	0	443	620	
12	0	0	0	0	444	619	
13	0	0	0	0	445	619	
14	0	0	0	0	444	619	
15	0	0	0	0	446	617	
0	0	0	0	0	447	619	
1	0	0	0	0	447	620	
2	0	0	0	0	448	620	
3	0	0	0	0	448	622	
4	0	0	0	0	448	620	
5	0	0	0	0	449	619	
6	0	0	0	0	449	619	
7	0	0	0	0	450	617	
8	0	0	0	0	449	619	
9	0	0	0	0	450	619	
10	0	0	0	0	450	618	
11	0	0	0	0	451	620	
12	0	0	0	0	451	619	
13	0	0	0	0	451	619	
14	0	0	0	0	452	620	
15	0	0	0	0	452	617	
0	0	0	0	0	453	620	
1	0	0	0	0	453	620	
2	0	0	0	0	453	620	
3	0	0	0	0	454	622	
4	0	0	0	0	454	620	
5	0	0	0	0	454	620	
6	0	0	0	0	454	620	
7	0	0	0	0	455	617	
8	0	0	0	0	455	620	
9	0	0	0	0	455	620	
10	0	0	0	0	456	619	
11	0	0	0	0	457	620	
12	0	0	0	0	457	619	
13	0	0	0	0	457	620	
14	0	0	0	0	458	619	
15	0	0	0	0	458	617	
0	0	0	0	0	459	619	
1	0	0	0	0	457	619	
2	0	0	0	0	458	620	
3	0	0	0	0	458	622	
4	0	0	0	0	460	621	
5	0	0	0	0	461	620	
6	0	0	0	0	462	620	
7	0	0	0	0	463	618	
8	0	0	0	0	463	620	
9	0	0	0	0	463	620	
10	0	0	0	0	463	620	
11	0	0	0	0	462	622	
12	0	0	0	0	462	621	
13	0	0	0	0	463	620	
14	0	0	0	0	463	620	
15	0	0	0	0	464	618	
0	0	0	0	0	463	620	
1	0	0	0	0	463	620	
2	0	0	0	0	463	620	
3	0	0	0	0	464	621	
4	0	0	0	0	464	620	
5	0	0	0	0	464	619	
6	0	0	0	0	464	620	
7	0	0	0	0	464	618	
8	0	0	0	0	465	619	
9	0	0	0	0	465	619	
10	0	0	0	0	466	620	
11	0	0	0	0	467	622	
12	0	0	0	0	468	620	
13	0	0	0	0	469	620	
14	0	0	0	0	468	620	
15	0	0	0	0	468	618	
0	0	0	0	0	470	620	
1	0	0	0	0	471	620	
2	0	0	0	0	472	620	
3	0	0	0	0	472	621	
4	0	0	0	0	472	620	
5	0	0	0	0	473	620	
6	0	0	0	0	473	619	
7	0	0	0	0	473	617	
8	0	0	0	0	474	619	
9	0	0	0	0	473	619	
10	0	0	0	0	474	619	
11	0	0	0	0	474	621	
12	0	0	0	0	474	619	
13	0	0	0	0	475	619	
14	0	0	0	0	476	619	
15	0	0	0	0	476	617	
0	0	0	0	0	477	620	
1	0	0	0	0	477	619	
2	0	0	0	0	477	619	
3	0	0	0	0	478	621	
4	0	0	0	0	479	620	
5	0	0	0	0	478	620	
6	0	0	0	0	479	620	
7	0	0	0	0	479	618	
8	0	0	0	0	480	620	
9	0	0	0	0	480	620	
10	0	0	0	0	480	619	
11	0	0	0	0	480	621	
12	0	0	0	0	480	619	
13	0	0	0	0	481	620	
14	0	0	0	0	481	620	
15	0	0	0	0	482	617	
0	0	0	0	0	483	619	
1	0	0	0	0	483	620	
2	0	0	0	0	484	620	
3	0	0	0	0	485	621	
4	0	0	0	0	486	620	
5	0	0	0	0	487	619	
6	0	0	0	0	489	620	
7	0	0	0	0	491	617	
8	0	0	0	0	491	620	
9	0	0	0	0	492	619	
10	0	0	0	0	492	620	
11	0	0	0	0	494	621	
12	0	0	0	0	494	620	
13	0	0	0	0	496	620	
14	0	0	0	0	496	620	
15	0	0	0	0	496	617	
0	0	0	0	0	496	620	
1	0	0	0	0	497	620	
2	0	0	0	0	498	620	
3	0	0	0	0	499	622	
4	0	0	0	0	500	620	
5	0	0	0	0	501	620	
6	0	0	0	0	502	620	
7	0	0	0	0	503	619	
8	0	0	0	0	503	620	
9	0	0	0	0	504	620	
10	0	0	0	0	506	620	
11	0	0	0	0	507	621	
12	0	0	0	0	509	620	
13	0	0	0	0	511	620	
14	0	0	0	0	512	620	
15	0	0	0	0	513	618	
0	0	0	0	0	513	620	
1	0	0	0	0	515	620	
2	0	0	0	0	516	619	
3	0	0	0	0	518	621	
4	0	0	0	0	519	620	
5	0	0	0	0	520	619	
6	0	0	0	0	522	620	
7	0	0	0	0	523	617	
8	0	0	0	0	524	620	
9	0	0	0	0	525	619	
10	0	0	0	0	527	619	
11	0	0	0	0	528	622	
12	0	0	0	0	528	620	
13	0	0	0	0	529	620	
14	0	0	0	0	531	620	
15	0	0	0	0	532	618	
0	0	0	0	0	533	620	
1	0	0	0	0	534	620	
2	0	0	0	0	535	620	
3	0	0	0	0	536	621	
4	0	0	0	0	535	620	
5	0	0	0	0	535	620	
6	0	0	0	0	536	620	
7	0	0	0	0	537	618	
8	0	0	0	0	537	620	
9	0	0	0	0	539	620	
10	0	0	0	0	539	620	
11	0	0	0	0	539	621	
12	0	0	0	0	539	620	
13	0	0	0	0	539	620	
14	0	0	0	0	540	620	
15	0	0	0	0	541	618	
0	0	0	0	0	540	619	
1	0	0	0	0	540	620	
2	0	0	0	0	540	619	
3	0	0	0	0	540	621	
4	0	0	0	0	541	619	
5	0	0	0	0	541	620	
6	0	0	0	0	541	620	
7	0	0	0	0	540	617	
8	0	0	0	0	540	620	
9	0	0	0	0	540	620	
10	0	0	0	0	540	619	
11	0	0	0	0	539	621	
12	0	0	0	0	539	620	
13	0	0	0	0	537	620	
14	0	0	0	0	537	619	
15	0	0	0	0	537	618	
0	0	0	0	0	537	620	
1	0	0	0	0	536	620	
2	0	0	0	0	535	620	
3	0	0	0	0	535	622	
4	0	0	0	0	534	620	
5	0	0	0	0	532	620	
6	0	0	0	0	531	620	
7	0	0	0	0	530	617	
8	0	0	0	0	528	620	
9	0	0	0	0	526	620	
10	0	0	0	0	524	620	
11	0	0	0	0	524	621	
12	0	0	0	0	523	620	
13	0	0	0	0	521	619	
14	0	0	0	0	520	620	
15	0	0	0	0	518	618	
0	0	0	0	0	517	620	
1	0	0	0	0	516	620	
2	0	0	0	0	515	620	
3	0	0	0	0	513	622	
4	0	0	0	0	512	620	
5	0	0	0	0	511	620	
6	0	0	0	0	510	619	
7	0	0	0	0	509	618	
8	0	0	0	0	508	619	
9	0	0	0	0	507	619	
10	0	0	0	0	506	619	
11	0	0	0	0	505	621	
12	0	0	0	0	504	619	
13	0	0	0	0	503	619	
14	0	0	0	0	502	619	
15	0	0	0	0	500	617	
0	0	0	0	0	499	619	
1	0	0	0	0	498	619	
2	0	0	0	0	498	619	
3	0	0	0	0	497	621	
4	0	0	0	0	497	618	
5	0	0	0	0	496	619	
6	0	0	0	0	496	619	
7	0	0	0	0	496	617	
8	0	0	0	0	496	619	
9	0	0	0	0	496	619	
10	0	0	0	0	496	619	
11	0	0	0	0	496	621	
12	0	0	0	0	495	619	
13	0	0	0	0	495	619	
14	0	0	0	0	495	619	
15	0	0	0	0	495	617	
0	0	0	0	0	494	620	
1	0	0	0	0	493	619	
2	0	0	0	0	492	620	
3	0	0	0	0	493	621	
4	0	0	0	0	492	620	
5	0	0	0	0	492	620	
6	0	0	0	0	492	621	
7	0	0	0	0	492	619	
8	0	0	0	0	493	621	
9	0	0	0	0	493	620	
10	0	0	0	0	493	620	
11	0	0	0	0	493	623	
12	0	0	0	0	494	620	
13	0	0	0	0	494	621	
14	0	0	0	0	495	621	
15	0	0	0	0	494	618	
0	0	0	0	0	494	621	
1	0	0	0	0	494	620	
2	0	0	0	0	494	620	
3	0	0	0	0	493	622	
4	0	0	0	0	493	620	
5	0	0	0	0	493	620	
6	0	0	0	0	493	620	
7	0	0	0	0	492	619	
8	0	0	0	0	492	621	
9	0	0	0	0	493	620	
10	0	0	0	0	493	621	
11	0	0	0	0	492	623	
12	0	0	0	0	492	621	
13	0	0	0	0	493	621	
14	0	0	0	0	493	621	
15	0	0	0	0	493	619	
0	0	0	0	0	493	620	
1	0	0	0	0	494	620	
2	0	0	0	0	494	620	
3	0	0	0	0	494	622	
4	0	0	0	0	494	620	
5	0	0	0	0	494	620	
6	0	0	0	0	494	619	
7	0	0	0	0	494	618	
8	0	0	0	0	494	619	
9	0	0	0	0	493	620	
10	0	0	0	0	494	619	
11	0	0	0	0	494	621	
12	0	0	0	0	494	619	
13	0	0	0	0	494	619	
14	0	0	0	0	494	619	
15	0	0	0	0	494	617	
0	0	0	0	0	494	619	
1	0	0	0	0	493	619	
2	0	0	0	0	493	619	
3	0	0	0	0	494	620	
4	0	0	0	0	494	618	
5	0	0	0	0	494	618	
6	0	0	0	0	494	619	
7	0	0	0	0	494	617	
8	0	0	0	0	493	619	
9	0	0	0	0	493	619	
10	0	0	0	0	494	619	
11	0	0	0	0	494	620	
12	0	0	0	0	494	619	
13	0	0	0	0	494	619	
14	0	0	0	0	494	619	
15	0	0	0	0	494	617	
0	0	0	0	0	492	619	
1	0	0	0	0	492	620	
2	0	0	0	0	492	619	
3	0	0	0	0	492	621	
4	0	0	0	0	492	620	
5	0	0	0	0	492	619	
6	0	0	0	0	492	620	
7	0	0	0	0	492	619	
8	0	0	0	0	491	620	
9	0	0	0	0	491	620	
10	0	0	0	0	491	620	
11	0	0	0	0	491	623	
12	0	0	0	0	491	621	
13	0	0	0	0	490	621	
14	0	0	0	0	490	620	
15	0	0	0	0	491	618	
0	0	0	0	0	491	620	
1	0	0	0	0	491	620	
2	0	0	0	0	492	620	
3	0	0	0	0	492	622	
4	0	0	0	0	492	620	
5	0	0	0	0	492	620	
6	0	0	0	0	492	619	
7	0	0	0	0	493	617	
8	0	0	0	0	494	619	
9	0	0	0	0	494	618	
10	0	0	0	0	495	618	
11	0	0	0	0	495	620	
12	0	0	0	0	495	619	
13	0	0	0	0	496	618	
14	0	0	0	0	496	618	
15	0	0	0	0	496	616	
0	0	0	0	0	496	618	
1	0	0	0	0	497	618	
2	0	0	0	0	496	618	
3	0	0	0	0	497	620	
4	0	0	0	0	497	618	
5	0	0	0	0	497	618	
6	0	0	0	0	496	618	
7	0	0	0	0	497	616	
8	0	0	0	0	497	618	
9	0	0	0	0	497	617	
10	0	0	0	0	498	617	
11	0	0	0	0	499	620	
12	0	0	0	0	499	617	
13	0	0	0	0	499	617	
14	0	0	0	0	499	617	
15	0	0	0	0	499	615	
0	0	0	0	0	500	617	
1	0	0	0	0	500	616	
2	0	0	0	0	500	617	
3	0	0	0	0	500	619	
4	0	0	0	0	499	618	
5	0	0	0	0	499	617	
6	0	0	0	0	499	617	
7	0	0	0	0	499	616	
8	0	0	0	0	499	618	
9	0	0	0	0	500	618	
10	0	0	0	0	501	618	
11	0	0	0	0	501	620	
12	0	0	0	0	502	619	
13	0	0	0	0	503	619	
14	0	0	0	0	504	619	
15	0	0	0	0	504	617	
0	0	0	0	0	504	619	
1	0	0	0	0	505	619	
2	0	0	0	0	505	620	
3	0	0	0	0	506	621	
4	0	0	0	0	506	619	
5	0	0	0	0	506	620	
6	0	0	0	0	506	620	
7	0	0	0	0	507	618	
8	0	0	0	0	506	620	
9	0	0	0	0	506	620	
10	0	0	0	0	505	620	
11	0	0	0	0	505	622	
12	0	0	0	0	507	620	
13	0	0	0	0	507	620	
14	0	0	0	0	508	620	
15	0	0	0	0	508	618	
0	0	0	0	0	509	620	
1	0	0	0	0	509	620	
2	0	0	0	0	509	620	
3	0	0	0	0	511	622	
4	0	0	0	0	510	620	
5	0	0	0	0	510	620	
6	0	0	0	0	510	621	
7	0	0	0	0	509	619	
8	0	0	0	0	511	621	
9	0	0	0	0	511	621	
10	0	0	0	0	512	620	
11	0	0	0	0	511	623	
12	0	0	0	0	511	621	
13	0	0	0	0	511	620	
14	0	0	0	0	511	620	
15	0	0	0	0	511	619	
0	0	0	0	0	512	621	
1	0	0	0	0	512	620	
2	0	0	0	0	511	620	
3	0	0	0	0	511	622	
4	0	0	0	0	510	620	
5	0	0	0	0	510	620	
6	0	0	0	0	510	620	
7	0	0	0	0	510	618	
8	0	0	0	0	510	620	
9	0	0	0	0	510	620	
10	0	0	0	0	510	620	
11	0	0	0	0	511	622	
12	0	0	0	0	510	620	
13	0	0	0	0	510	620	
14	0	0	0	0	510	620	
15	0	0	0	0	510	619	
0	0	0	0	0	509	620	
1	0	0	0	0	509	620	
2	0	0	0	0	510	619	
3	0	0	0	0	510	621	
4	0	0	0	0	510	619	
5	0	0	0	0	509	619	
6	0	0	0	0	510	619	
7	0	0	0	0	510	617	
8	0	0	0	0	509	619	
9	0	0	0	0	510	619	
10	0	0	0	0	510	619	
11	0	0	0	0	511	621	
12	0	0	0	0	511	619	
13	0	0	0	0	511	619	
14	0	0	0	0	511	619	
15	0	0	0	0	511	617	
0	0	0	0	0	511	619	
1	0	0	0	0	512	619	
2	0	0	0	0	512	619	
3	0	0	0	0	512	620	
4	0	0	0	0	511	619	
5	0	0	0	0	510	620	
6	0	0	0	0	510	619	
7	0	0	0	0	510	618	
8	0	0	0	0	510	620	
9	0	0	0	0	510	620	
10	0	0	0	0	510	619	
11	0	0	0	0	511	621	
12	0	0	0	0	510	620	
13	0	0	0	0	509	620	
14	0	0	0	0	510	620	
15	0	0	0	0	510	617	
0	0	0	0	0	510	620	
1	0	0	0	0	510	620	
2	0	0	0	0	509	620	
3	0	0	0	0	509	622	
4	0	0	0	0	508	620	
5	0	0	0	0	507	620	
6	0	0	0	0	507	620	
7	0	0	0	0	507	618	
8	0	0	0	0	508	619	
9	0	0	0	0	508	619	
10	0	0	0	0	508	619	
11	0	0	0	0	508	621	
12	0	0	0	0	507	619	
13	0	0	0	0	508	619	
14	0	0	0	0	508	620	
15	0	0	0	0	508	618	
0	0	0	0	0	509	619	
1	0	0	0	0	509	620	
2	0	0	0	0	509	619	
3	0	0	0	0	509	621	
4	0	0	0	0	509	620	
5	0	0	0	0	509	620	
6	0	0	0	0	509	619	
7	0	0	0	0	510	617	
8	0	0	0	0	510	619	
9	0	0	0	0	510	619	
10	0	0	0	0	510	619	
11	0	0	0	0	510	621	
12	0	0	0	0	509	618	
13	0	0	0	0	509	619	
14	0	0	0	0	510	619	
15	0	0	0	0	509	617	
0	0	0	0	0	510	618	
1	0	0	0	0	510	619	
2	0	0	0	0	509	620	
3	0	0	0	0	509	621	
4	0	0	0	0	510	619	
5	0	0	0	0	509	619	
6	0	0	0	0	508	619	
7	0	0	0	0	507	617	
8	0	0	0	0	508	619	
9	0	0	0	0	509	619	
10	0	0	0	0	510	620	
11	0	0	0	0	509	621	
12	0	0	0	0	509	620	
13	0	0	0	0	510	619	
14	0	0	0	0	510	619	
15	0	0	0	0	510	616	
0	0	0	0	0	509	619	
1	0	0	0	0	509	618	
2	0	0	0	0	509	619	
3	0	0	0	0	509	621	
4	0	0	0	0	510	619	
5	0	0	0	0	509	620	
6	0	0	0	0	509	620	
7	0	0	0	0	508	617	
8	0	0	0	0	509	620	
9	0	0	0	0	508	620	
10	0	0	0	0	507	620	
11	0	0	0	0	506	622	
12	0	0	0	0	507	620	
13	0	0	0	0	509	621	
14	0	0	0	0	509	620	
15	0	0	0	0	508	619	
0	0	0	0	0	508	621	
1	0	0	0	0	509	621	
2	0	0	0	0	509	620	
3	0	0	0	0	510	622	
4	0	0	0	0	509	620	
5	0	0	0	0	509	620	
6	0	0	0	0	509	620	
7	0	0	0	0	508	617	
8	0	0	0	0	508	620	
9	0	0	0	0	507	620	
10	0	0	0	0	508	620	
11	0	0	0	0	507	621	
12	0	0	0	0	507	619	
13	0	0	0	0	507	619	
14	0	0	0	0	506	619	
15	0	0	0	0	507	616	
0	0	0	0	0	507	619	
1	0	0	0	0	507	618	
2	0	0	0	0	506	618	
3	0	0	0	0	507	620	
4	0	0	0	0	508	619	
5	0	0	0	0	508	619	
6	0	0	0	0	507	618	
7	0	0	0	0	507	616	
8	0	0	0	0	507	619	
9	0	0	0	0	507	619	
10	0	0	0	0	505	619	
11	0	0	0	0	506	620	
12	0	0	0	0	507	619	
13	0	0	0	0	507	620	
14	0	0	0	0	505	620	
15	0	0	0	0	504	617	
0	0	0	0	0	504	619	
1	0	0	0	0	503	620	
2	0	0	0	0	503	619	
3	0	0	0	0	503	621	
4	0	0	0	0	502	619	
5	0	0	0	0	502	619	
6	0	0	0	0	502	618	
7	0	0	0	0	503	617	
8	0	0	0	0	502	620	
9	0	0	0	0	502	619	
10	0	0	0	0	502	619	
11	0	0	0	0	501	621	
12	0	0	0	0	501	619	
13	0	0	0	0	501	619	
14	0	0	0	0	501	620	
15	0	0	0	0	500	617	
0	0	0	0	0	499	619	
1	0	0	0	0	499	619	
2	0	0	0	0	499	619	
3	0	0	0	0	499	621	
4	0	0	0	0	499	619	
5	0	0	0	0	498	620	
6	0	0	0	0	498	620	
7	0	0	0	0	499	618	
8	0	0	0	0	499	620	
9	0	0	0	0	499	620	
10	0	0	0	0	499	620	
11	0	0	0	0	500	622	
12	0	0	0	0	502	621	
13	0	0	0	0	503	620	
14	0	0	0	0	504	620	
15	0	0	0	0	505	618	
0	0	0	0	0	506	620	
1	0	0	0	0	507	619	
2	0	0	0	0	509	619	
3	0	0	0	0	510	621	
4	0	0	0	0	510	620	
5	0	0	0	0	509	619	
6	0	0	0	0	508	620	
7	0	0	0	0	510	617	
8	0	0	0	0	511	619	
9	0	0	0	0	512	619	
10	0	0	0	0	512	619	
11	0	0	0	0	512	621	
12	0	0	0	0	513	619	
13	0	0	0	0	514	618	
14	0	0	0	0	514	619	
15	0	0	0	0	515	617	
0	0	0	0	0	516	619	
1	0	0	0	0	516	618	
2	0	0	0	0	516	618	
3	0	0	0	0	516	620	
4	0	0	0	0	516	618	
5	0	0	0	0	517	618	
6	0	0	0	0	518	618	
7	0	0	0	0	518	615	
8	0	0	0	0	518	618	
9	0	0	0	0	518	617	
10	0	0	0	0	519	617	
11	0	0	0	0	519	619	
12	0	0	0	0	519	617	
13	0	0	0	0	519	618	
14	0	0	0	0	519	618	
15	0	0	0	0	519	616	
0	0	0	0	0	519	619	
1	0	0	0	0	520	619	
2	0	0	0	0	520	619	
3	0	0	0	0	520	620	
4	0	0	0	0	519	619	
5	0	0	0	0	518	619	
6	0	0	0	0	518	619	
7	0	0	0	0	518	617	
8	0	0	0	0	516	619	
9	0	0	0	0	515	619	
10	0	0	0	0	515	619	
11	0	0	0	0	514	622	
12	0	0	0	0	514	619	
13	0	0	0	0	514	619	
14	0	0	0	0	514	619	
15	0	0	0	0	514	617	
0	0	0	0	0	515	619	
1	0	0	0	0	515	620	
2	0	0	0	0	515	619	
3	0	0	0	0	515	621	
4	0	0	0	0	515	619	
5	0	0	0	0	515	620	
6	0	0	0	0	516	620	
7	0	0	0	0	516	619	
8	0	0	0	0	515	620	
9	0	0	0	0	515	620	
10	0	0	0	0	515	620	
11	0	0	0	0	516	622	
12	0	0	0	0	516	620	
13	0	0	0	0	515	620	
14	0	0	0	0	515	620	
15	0	0	0	0	515	617	
0	0	0	0	0	516	620	
1	0	0	0	0	515	620	
2	0	0	0	0	515	620	
3	0	0	0	0	517	622	
4	0	0	0	0	517	620	
5	0	0	0	0	517	620	
6	0	0	0	0	516	621	
7	0	0	0	0	515	619	
8	0	0	0	0	516	620	
9	0	0	0	0	517	620	
10	0	0	0	0	518	620	
11	0	0	0	0	517	622	
12	0	0	0	0	516	620	
13	0	0	0	0	516	619	
14	0	0	0	0	516	619	
15	0	0	0	0	515	618	
0	0	0	0	0	515	620	
1	0	0	0	0	516	620	
2	0	0	0	0	517	620	
3	0	0	0	0	518	621	
4	0	0	0	0	518	620	
5	0	0	0	0	518	620	
6	0	0	0	0	518	620	
7	0	0	0	0	517	617	
8	0	0	0	0	516	620	
9	0	0	0	0	516	619	
10	0	0	0	0	517	620	
11	0	0	0	0	516	621	
12	0	0	0	0	515	620	
13	0	0	0	0	515	620	
14	0	0	0	0	516	620	
15	0	0	0	0	516	618	
0	0	0	0	0	515	620	
1	0	0	0	0	516	621	
2	0	0	0	0	515	620	
3	0	0	0	0	515	622	
4	0	0	0	0	513	620	
5	0	0	0	0	511	620	
6	0	0	0	0	508	620	
7	0	0	0	0	505	618	
8	0	0	0	0	501	621	
9	0	0	0	0	496	620	
10	0	0	0	0	487	620	
11	0	0	0	0	479	622	
12	0	0	0	0	472	619	
13	0	0	0	0	464	620	
14	0	0	0	0	455	620	
15	0	0	0	0	446	618	
0	0	0	0	0	438	620	
1	0	0	0	0	430	620	
2	0	0	0	0	424	620	
3	0	0	0	0	417	622	
4	0	0	0	0	408	620	
5	0	0	0	0	400	620	
6	0	0	0	0	394	619	
7	0	0	0	0	389	617	
8	0	0	0	0	387	620	
9	0	0	0	0	388	620	
10	0	0	0	0	395	619	
11	0	0	0	0	406	622	
12	0	0	0	0	421	619	
13	0	0	0	0	442	619	
14	0	0	0	0	470	620	
15	0	0	0	0	500	616	
0	0	0	0	0	534	619	
1	0	0	0	0	573	619	
2	0	0	0	0	616	618	
3	0	0	0	0	663	620	
4	0	0	0	0	709	618	
5	0	0	0	0	750	618	
6	0	0	0	0	789	619	
7	0	0	0	0	825	617	
8	0	0	0	0	859	618	
9	0	0	0	0	888	618	
10	0	0	0	0	907	618	
11	0	0	0	0	918	620	
12	0	0	0	0	921	618	
13	0	0	0	0	915	617	
14	0	0	0	0	902	618	
15	0	0	0	0	883	616	
0	0	0	0	0	856	619	
1	0	0	0	0	822	619	
2	0	0	0	0	784	619	
3	0	0	0	0	750	620	
4	0	0	0	0	720	619	
5	0	0	0	0	698	619	
6	0	0	0	0	680	618	
7	0	0	0	0	665	616	
8	0	0	0	0	653	619	
9	0	0	0	0	646	619	
10	0	0	0	0	639	619	
11	0	0	0	0	632	621	
12	0	0	0	0	625	619	
13	0	0	0	0	618	619	
14	0	0	0	0	610	620	
15	0	0	0	0	599	617	
0	0	0	0	0	587	619	
1	0	0	0	0	576	620	
2	0	0	0	0	563	619	
3	0	0	0	0	550	622	
4	0	0	0	0	539	620	
5	0	0	0	0	525	620	
6	0	0	0	0	514	620	
7	0	0	0	0	502	618	
8	0	0	0	0	492	620	
9	0	0	0	0	483	620	
10	0	0	0	0	475	620	
11	0	0	0	0	468	623	
12	0	0	0	0	463	620	
13	0	0	0	0	460	621	
14	0	0	0	0	457	621	
15	0	0	0	0	455	619	
0	0	0	0	0	452	621	
1	0	0	0	0	450	620	
2	0	0	0	0	448	620	
3	0	0	0	0	448	622	
4	0	0	0	0	448	620	
5	0	0	0	0	447	620	
6	0	0	0	0	447	620	
7	0	0	0	0	447	618	
8	0	0	0	0	447	620	
9	0	0	0	0	447	620	
10	0	0	0	0	446	619	
11	0	0	0	0	447	621	
12	0	0	0	0	447	620	
13	0	0	0	0	447	619	
14	0	0	0	0	448	619	
15	0	0	0	0	447	618	
0	0	0	0	0	448	620	
1	0	0	0	0	448	620	
2	0	0	0	0	448	620	
3	0	0	0	0	448	621	
4	0	0	0	0	449	620	
5	0	0	0	0	450	619	
6	0	0	0	0	451	619	
7	0	0	0	0	452	618	
8	0	0	0	0	452	619	
9	0	0	0	0	453	619	
10	0	0	0	0	454	619	
11	0	0	0	0	454	621	
12	0	0	0	0	455	620	
13	0	0	0	0	454	619	
14	0	0	0	0	455	620	
15	0	0	0	0	455	617	
0	0	0	0	0	455	620	
1	0	0	0	0	457	619	
2	0	0	0	0	457	619	
3	0	0	0	0	458	620	
4	0	0	0	0	459	620	
5	0	0	0	0	457	620	
6	0	0	0	0	457	619	
7	0	0	0	0	457	617	
8	0	0	0	0	458	620	
9	0	0	0	0	459	619	
10	0	0	0	0	459	620	
11	0	0	0	0	459	622	
12	0	0	0	0	459	621	
13	0	0	0	0	459	620	
14	0	0	0	0	460	620	
15	0	0	0	0	461	619	
0	0	0	0	0	462	620	
1	0	0	0	0	462	620	
2	0	0	0	0	463	620	
3	0	0	0	0	462	622	
4	0	0	0	0	463	620	
5	0	0	0	0	464	620	
6	0	0	0	0	465	620	
7	0	0	0	0	466	618	
8	0	0	0	0	466	620	
9	0	0	0	0	466	620	
10	0	0	0	0	466	620	
11	0	0	0	0	466	622	
12	0	0	0	0	466	620	
13	0	0	0	0	466	621	
14	0	0	0	0	466	621	
15	0	0	0	0	465	619	
0	0	0	0	0	466	620	
1	0	0	0	0	467	620	
2	0	0	0	0	467	620	
3	0	0	0	0	467	622	
4	0	0	0	0	468	620	
5	0	0	0	0	467	620	
6	0	0	0	0	468	620	
7	0	0	0	0	467	618	
8	0	0	0	0	467	620	
9	0	0	0	0	468	620	
10	0	0	0	0	468	620	
11	0	0	0	0	468	622	
12	0	0	0	0	469	620	
13	0	0	0	0	468	620	
14	0	0	0	0	469	619	
15	0	0	0	0	469	618	
0	0	0	0	0	470	620	
1	0	0	0	0	469	620	
2	0	0	0	0	469	620	
3	0	0	0	0	469	622	
4	0	0	0	0	469	620	
5	0	0	0	0	469	620	
6	0	0	0	0	470	620	
7	0	0	0	0	470	617	
8	0	0	0	0	471	620	
9	0	0	0	0	471	619	
10	0	0	0	0	472	620	
11	0	0	0	0	472	622	
12	0	0	0	0	472	620	
13	0	0	0	0	472	620	
14	0	0	0	0	472	619	
15	0	0	0	0	472	618	
0	0	0	0	0	473	620	
1	0	0	0	0	473	619	
2	0	0	0	0	474	620	
3	0	0	0	0	474	621	
4	0	0	0	0	476	620	
5	0	0	0	0	476	619	
6	0	0	0	0	476	619	
7	0	0	0	0	476	618	
8	0	0	0	0	477	619	
9	0	0	0	0	477	619	
10	0	0	0	0	478	620	
11	0	0	0	0	479	621	
12	0	0	0	0	479	620	
13	0	0	0	0	480	620	
14	0	0	0	0	481	620	
15	0	0	0	0	481	618	
0	0	0	0	0	481	620	
1	0	0	0	0	481	620	
2	0	0	0	0	481	619	
3	0	0	0	0	482	621	
4	0	0	0	0	482	619	
5	0	0	0	0	484	619	
6	0	0	0	0	486	619	
7	0	0	0	0	485	617	
8	0	0	0	0	486	619	
9	0	0	0	0	486	618	
10	0	0	0	0	487	617	
11	0	0	0	0	487	620	
12	0	0	0	0	487	618	
13	0	0	0	0	488	618	
14	0	0	0	0	489	619	
15	0	0	0	0	490	615	
0	0	0	0	0	492	618	
1	0	0	0	0	493	618	
2	0	0	0	0	493	618	
3	0	0	0	0	493	620	
4	0	0	0	0	494	619	
5	0	0	0	0	495	619	
6	0	0	0	0	496	618	
7	0	0	0	0	497	617	
8	0	0	0	0	499	619	
9	0	0	0	0	500	619	
10	0	0	0	0	501	620	
11	0	0	0	0	502	621	
12	0	0	0	0	504	620	
13	0	0	0	0	505	620	
14	0	0	0	0	506	620	
15	0	0	0	0	507	618	
0	0	0	0	0	509	620	
1	0	0	0	0	510	619	
2	0	0	0	0	512	619	
3	0	0	0	0	513	621	
4	0	0	0	0	514	619	
5	0	0	0	0	515	619	
6	0	0	0	0	515	619	
7	0	0	0	0	516	616	
8	0	0	0	0	518	618	
9	0	0	0	0	520	619	
10	0	0	0	0	523	619	
11	0	0	0	0	526	620	
12	0	0	0	0	527	620	
13	0	0	0	0	528	620	
14	0	0	0	0	529	619	
15	0	0	0	0	529	617	
0	0	0	0	0	530	619	
1	0	0	0	0	531	619	
2	0	0	0	0	531	619	
3	0	0	0	0	532	620	
4	0	0	0	0	534	619	
5	0	0	0	0	535	619	
6	0	0	0	0	535	619	
7	0	0	0	0	536	617	
8	0	0	0	0	537	619	
9	0	0	0	0	538	619	
10	0	0	0	0	538	619	
11	0	0	0	0	539	621	
12	0	0	0	0	540	619	
13	0	0	0	0	541	619	
14	0	0	0	0	542	619	
15	0	0	0	0	543	618	
0	0	0	0	0	544	620	
1	0	0	0	0	544	620	
2	0	0	0	0	545	620	
3	0	0	0	0	545	622	
4	0	0	0	0	544	620	
5	0	0	0	0	544	619	
6	0	0	0	0	545	620	
7	0	0	0	0	544	617	
8	0	0	0	0	544	619	
9	0	0	0	0	544	619	
10	0	0	0	0	543	619	
11	0	0	0	0	542	620	
12	0	0	0	0	540	619	
13	0	0	0	0	540	619	
14	0	0	0	0	541	620	
15	0	0	0	0	540	617	
0	0	0	0	0	540	619	
1	0	0	0	0	540	620	
2	0	0	0	0	540	619	
3	0	0	0	0	539	622	
4	0	0	0	0	537	620	
5	0	0	0	0	536	620	
6	0	0	0	0	536	620	
7	0	0	0	0	535	618	
8	0	0	0	0	534	620	
9	0	0	0	0	533	620	
10	0	0	0	0	531	620	
11	0	0	0	0	530	623	
12	0	0	0	0	529	620	
13	0	0	0	0	527	620	
14	0	0	0	0	525	620	
15	0	0	0	0	524	618	
0	0	0	0	0	523	620	
1	0	0	0	0	521	620	
2	0	0	0	0	520	620	
3	0	0	0	0	518	622	
4	0	0	0	0	517	620	
5	0	0	0	0	516	620	
6	0	0	0	0	515	620	
7	0	0	0	0	514	618	
8	0	0	0	0	512	620	
9	0	0	0	0	510	620	
10	0	0	0	0	509	620	
11	0	0	0	0	507	621	
12	0	0	0	0	505	619	
13	0	0	0	0	505	620	
14	0	0	0	0	504	619	
15	0	0	0	0	502	617	
0	0	0	0	0	499	619	
1	0	0	0	0	499	619	
2	0	0	0	0	499	619	
3	0	0	0	0	498	620	
4	0	0	0	0	497	619	
5	0	0	0	0	496	618	
6	0	0	0	0	496	619	
7	0	0	0	0	495	616	
8	0	0	0	0	494	618	
9	0	0	0	0	494	619	
10	0	0	0	0	493	619	
11	0	0	0	0	492	621	
12	0	0	0	0	491	620	
13	0	0	0	0	490	620	
14	0	0	0	0	490	620	
15	0	0	0	0	488	618	
0	0	0	0	0	488	620	
1	0	0	0	0	488	620	
2	0	0	0	0	487	620	
3	0	0	0	0	487	622	
4	0	0	0	0	486	620	
5	0	0	0	0	486	620	
6	0	0	0	0	486	620	
7	0	0	0	0	486	618	
8	0	0	0	0	486	620	
9	0	0	0	0	486	620	
10	0	0	0	0	486	619	
11	0	0	0	0	485	621	
12	0	0	0	0	485	620	
13	0	0	0	0	485	620	
14	0	0	0	0	484	620	
15	0	0	0	0	484	619	
0	0	0	0	0	484	620	
1	0	0	0	0	484	620	
2	0	0	0	0	484	620	
3	0	0	0	0	485	622	
4	0	0	0	0	486	620	
5	0	0	0	0	485	620	
6	0	0	0	0	485	620	
7	0	0	0	0	485	619	
8	0	0	0	0	486	620	
9	0	0	0	0	486	620	
10	0	0	0	0	486	620	
11	0	0	0	0	486	622	
12	0	0	0	0	486	620	
13	0	0	0	0	486	621	
14	0	0	0	0	484	620	
15	0	0	0	0	483	619	
0	0	0	0	0	482	620	
1	0	0	0	0	482	621	
2	0	0	0	0	483	621	
3	0	0	0	0	483	622	
4	0	0	0	0	483	621	
5	0	0	0	0	484	621	
6	0	0	0	0	485	621	
7	0	0	0	0	485	618	
8	0	0	0	0	486	620	
9	0	0	0	0	486	620	
10	0	0	0	0	485	620	
11	0	0	0	0	485	622	
12	0	0	0	0	483	619	
13	0	0	0	0	483	619	
14	0	0	0	0	484	620	
15	0	0	0	0	485	618	
0	0	0	0	0	486	620	
1	0	0	0	0	486	620	
2	0	0	0	0	485	620	
3	0	0	0	0	486	621	
4	0	0	0	0	486	619	
5	0	0	0	0	486	620	
6	0	0	0	0	486	620	
7	0	0	0	0	486	618	
8	0	0	0	0	487	620	
9	0	0	0	0	487	620	
10	0	0	0	0	487	620	
11	0	0	0	0	487	622	
12	0	0	0	0	488	620	
13	0	0	0	0	488	620	
14	0	0	0	0	487	620	
15	0	0	0	0	487	617	
0	0	0	0	0	487	620	
1	0	0	0	0	487	620	
2	0	0	0	0	487	619	
3	0	0	0	0	486	621	
4	0	0	0	0	485	620	
5	0	0	0	0	484	620	
6	0	0	0	0	485	620	
7	0	0	0	0	486	617	
8	0	0	0	0	486	618	
9	0	0	0	0	487	618	
10	0	0	0	0	487	618	
11	0	0	0	0	486	620	
12	0	0	0	0	485	618	
13	0	0	0	0	485	618	
14	0	0	0	0	485	618	
15	0	0	0	0	485	617	
0	0	0	0	0	486	619	
1	0	0	0	0	487	618	
2	0	0	0	0	487	618	
3	0	0	0	0	487	620	
4	0	0	0	0	487	618	
5	0	0	0	0	487	618	
6	0	0	0	0	487	618	
7	0	0	0	0	486	616	
8	0	0	0	0	487	618	
9	0	0	0	0	487	618	
10	0	0	0	0	486	618	
11	0	0	0	0	486	620	
12	0	0	0	0	486	619	
13	0	0	0	0	486	618	
14	0	0	0	0	486	618	
15	0	0	0	0	485	616	
0	0	0	0	0	486	618	
1	0	0	0	0	486	618	
2	0	0	0	0	486	618	
3	0	0	0	0	486	620	
4	0	0	0	0	486	618	
5	0	0	0	0	486	619	
6	0	0	0	0	487	618	
7	0	0	0	0	487	616	
8	0	0	0	0	487	618	
9	0	0	0	0	487	618	
10	0	0	0	0	488	618	
11	0	0	0	0	488	620	
12	0	0	0	0	488	619	
13	0	0	0	0	489	618	
14	0	0	0	0	490	619	
15	0	0	0	0	490	617	
0	0	0	0	0	490	619	
1	0	0	0	0	491	618	
2	0	0	0	0	490	618	
3	0	0	0	0	490	620	
4	0	0	0	0	490	619	
5	0	0	0	0	490	618	
6	0	0	0	0	489	618	
7	0	0	0	0	489	616	
8	0	0	0	0	490	618	
9	0	0	0	0	490	618	
10	0	0	0	0	489	617	
11	0	0	0	0	491	620	
12	0	0	0	0	492	617	
13	0	0	0	0	492	619	
14	0	0	0	0	492	619	
15	0	0	0	0	492	616	
0	0	0	0	0	492	617	
1	0	0	0	0	492	618	
2	0	0	0	0	492	618	
3	0	0	0	0	491	620	
4	0	0	0	0	491	618	
5	0	0	0	0	492	619	
6	0	0	0	0	492	618	
7	0	0	0	0	492	617	
8	0	0	0	0	492	619	
9	0	0	0	0	492	618	
10	0	0	0	0	491	619	
11	0	0	0	0	491	621	
12	0	0	0	0	491	619	
13	0	0	0	0	492	619	
14	0	0	0	0	492	619	
15	0	0	0	0	492	618	
0	0	0	0	0	492	620	
1	0	0	0	0	492	620	
2	0	0	0	0	492	619	
3	0	0	0	0	494	621	
4	0	0	0	0	495	620	
5	0	0	0	0	494	620	
6	0	0	0	0	494	620	
7	0	0	0	0	495	618	
8	0	0	0	0	495	620	
9	0	0	0	0	496	620	
10	0	0	0	0	496	620	
11	0	0	0	0	496	622	
12	0	0	0	0	496	620	
13	0	0	0	0	497	620	
14	0	0	0	0	498	620	
15	0	0	0	0	499	618	
0	0	0	0	0	499	620	
1	0	0	0	0	499	620	
2	0	0	0	0	499	620	
3	0	0	0	0	500	622	
4	0	0	0	0	500	620	
5	0	0	0	0	500	620	
6	0	0	0	0	500	620	
7	0	0	0	0	500	618	
8	0	0	0	0	501	620	
9	0	0	0	0	501	620	
10	0	0	0	0	501	619	
11	0	0	0	0	503	622	
12	0	0	0	0	502	620	
13	0	0	0	0	502	620	
14	0	0	0	0	503	619	
15	0	0	0	0	502	617	
0	0	0	0	0	502	620	
1	0	0	0	0	502	620	
2	0	0	0	0	502	620	
3	0	0	0	0	500	622	
4	0	0	0	0	501	620	
5	0	0	0	0	503	620	
6	0	0	0	0	502	620	
7	0	0	0	0	503	617	
8	0	0	0	0	502	620	
9	0	0	0	0	502	620	
10	0	0	0	0	502	619	
11	0	0	0	0	503	621	
12	0	0	0	0	504	620	
13	0	0	0	0	505	620	
14	0	0	0	0	504	620	
15	0	0	0	0	504	617	
0	0	0	0	0	505	620	
1	0	0	0	0	505	620	
2	0	0	0	0	504	620	
3	0	0	0	0	504	621	
4	0	0	0	0	504	619	
5	0	0	0	0	503	619	
6	0	0	0	0	504	620	
7	0	0	0	0	504	618	
8	0	0	0	0	504	620	
9	0	0	0	0	504	619	
10	0	0	0	0	504	619	
11	0	0	0	0	504	621	
12	0	0	0	0	504	619	
13	0	0	0	0	504	620	
14	0	0	0	0	504	619	
15	0	0	0	0	506	618	
0	0	0	0	0	507	620	
1	0	0	0	0	507	620	
2	0	0	0	0	507	619	
3	0	0	0	0	507	621	
4	0	0	0	0	507	621	
5	0	0	0	0	507	620	
6	0	0	0	0	507	620	
7	0	0	0	0	508	618	
8	0	0	0	0	508	620	
9	0	0	0	0	507	620	
10	0	0	0	0	507	619	
11	0	0	0	0	507	621	
12	0	0	0	0	507	620	
13	0	0	0	0	506	620	
14	0	0	0	0	505	620	
15	0	0	0	0	504	617	
0	0	0	0	0	504	620	
1	0	0	0	0	505	620	
2	0	0	0	0	505	620	
3	0	0	0	0	504	621	
4	0	0	0	0	504	620	
5	0	0	0	0	503	620	
6	0	0	0	0	503	619	
7	0	0	0	0	503	617	
8	0	0	0	0	503	619	
9	0	0	0	0	504	620	
10	0	0	0	0	504	619	
11	0	0	0	0	503	622	
12	0	0	0	0	504	619	
13	0	0	0	0	503	619	
14	0	0	0	0	504	619	
15	0	0	0	0	503	616	
0	0	0	0	0	504	619	
1	0	0	0	0	502	620	
2	0	0	0	0	502	619	
3	0	0	0	0	502	620	
4	0	0	0	0	501	619	
5	0	0	0	0	502	619	
6	0	0	0	0	502	619	
7	0	0	0	0	502	617	
8	0	0	0	0	502	620	
9	0	0	0	0	502	619	
10	0	0	0	0	503	620	
11	0	0	0	0	504	621	
12	0	0	0	0	504	620	
13	0	0	0	0	504	620	
14	0	0	0	0	504	620	
15	0	0	0	0	504	617	
0	0	0	0	0	504	620	
1	0	0	0	0	504	620	
2	0	0	0	0	504	620	
3	0	0	0	0	504	622	
4	0	0	0	0	503	620	
5	0	0	0	0	504	620	
6	0	0	0	0	503	620	
7	0	0	0	0	504	618	
8	0	0	0	0	504	619	
9	0	0	0	0	504	619	
10	0	0	0	0	504	619	
11	0	0	0	0	504	622	
12	0	0	0	0	504	620	
13	0	0	0	0	504	620	
14	0	0	0	0	504	620	
15	0	0	0	0	503	617	
0	0	0	0	0	504	619	
1	0	0	0	0	504	620	
2	0	0	0	0	505	620	
3	0	0	0	0	505	622	
4	0	0	0	0	505	620	
5	0	0	0	0	505	620	
6	0	0	0	0	506	620	
7	0	0	0	0	507	618	
8	0	0	0	0	506	620	
9	0	0	0	0	506	620	
10	0	0	0	0	506	620	
11	0	0	0	0	507	622	
12	0	0	0	0	507	620	
13	0	0	0	0	507	620	
14	0	0	0	0	507	620	
15	0	0	0	0	507	619	
0	0	0	0	0	507	620	
1	0	0	0	0	507	620	
2	0	0	0	0	506	620	
3	0	0	0	0	506	622	
4	0	0	0	0	507	620	
5	0	0	0	0	507	620	
6	0	0	0	0	508	620	
7	0	0	0	0	508	618	
8	0	0	0	0	508	620	
9	0	0	0	0	508	620	
10	0	0	0	0	509	620	
11	0	0	0	0	508	622	
12	0	0	0	0	508	620	
13	0	0	0	0	509	620	
14	0	0	0	0	509	619	
15	0	0	0	0	509	617	
0	0	0	0	0	508	619	
1	0	0	0	0	508	619	
2	0	0	0	0	508	619	
3	0	0	0	0	508	620	
4	0	0	0	0	508	619	
5	0	0	0	0	508	618	
6	0	0	0	0	507	618	
7	0	0	0	0	506	616	
8	0	0	0	0	506	618	
9	0	0	0	0	506	619	
10	0	0	0	0	505	619	
11	0	0	0	0	506	621	
12	0	0	0	0	506	619	
13	0	0	0	0	507	619	
14	0	0	0	0	507	619	
15	0	0	0	0	507	617	
0	0	0	0	0	507	620	
1	0	0	0	0	507	619	
2	0	0	0	0	507	619	
3	0	0	0	0	508	622	
4	0	0	0	0	509	619	
5	0	0	0	0	509	620	
6	0	0	0	0	509	619	
7	0	0	0	0	509	616	
8	0	0	0	0	509	619	
9	0	0	0	0	509	619	
10	0	0	0	0	509	619	
11	0	0	0	0	510	621	
12	0	0	0	0	510	619	
13	0	0	0	0	511	619	
14	0	0	0	0	511	619	
15	0	0	0	0	511	617	
0	0	0	0	0	512	619	
1	0	0	0	0	511	619	
2	0	0	0	0	511	619	
3	0	0	0	0	511	621	
4	0	0	0	0	511	619	
5	0	0	0	0	510	619	
6	0	0	0	0	510	618	
7	0	0	0	0	509	617	
8	0	0	0	0	508	619	
9	0	0	0	0	508	619	
10	0	0	0	0	507	619	
11	0	0	0	0	507	620	
12	0	0	0	0	508	620	
13	0	0	0	0	508	620	
14	0	0	0	0	508	619	
15	0	0	0	0	508	617	
0	0	0	0	0	506	620	
1	0	0	0	0	506	620	
2	0	0	0	0	506	620	
3	0	0	0	0	505	622	
4	0	0	0	0	504	620	
5	0	0	0	0	503	620	
6	0	0	0	0	503	620	
7	0	0	0	0	503	619	
8	0	0	0	0	504	620	
9	0	0	0	0	503	620	
10	0	0	0	0	502	621	
11	0	0	0	0	502	622	
12	0	0	0	0	501	621	
13	0	0	0	0	501	620	
14	0	0	0	0	501	621	
15	0	0	0	0	500	619	
0	0	0	0	0	500	621	
1	0	0	0	0	500	621	
2	0	0	0	0	499	620	
3	0	0	0	0	499	623	
4	0	0	0	0	497	621	
5	0	0	0	0	497	622	
6	0	0	0	0	498	621	
7	0	0	0	0	498	620	
8	0	0	0	0	499	622	
9	0	0	0	0	499	621	
10	0	0	0	0	500	622	
11	0	0	0	0	500	623	
12	0	0	0	0	499	622	
13	0	0	0	0	499	622	
14	0	0	0	0	499	622	
15	0	0	0	0	499	620	
0	0	0	0	0	499	622	
1	0	0	0	0	499	622	
2	0	0	0	0	500	622	
3	0	0	0	0	502	623	
4	0	0	0	0	503	621	
5	0	0	0	0	504	621	
6	0	0	0	0	504	621	
7	0	0	0	0	504	619	
8	0	0	0	0	505	621	
9	0	0	0	0	507	620	
10	0	0	0	0	507	620	
11	0	0	0	0	508	622	
12	0	0	0	0	508	620	
13	0	0	0	0	509	620	
14	0	0	0	0	509	620	
15	0	0	0	0	510	619	
0	0	0	0	0	511	621	
1	0	0	0	0	512	621	
2	0	0	0	0	513	620	
3	0	0	0	0	513	623	
4	0	0	0	0	513	620	
5	0	0	0	0	513	621	
6	0	0	0	0	513	621	
7	0	0	0	0	512	618	
8	0	0	0	0	512	620	
9	0	0	0	0	512	620	
10	0	0	0	0	513	620	
11	0	0	0	0	513	622	
12	0	0	0	0	512	620	
13	0	0	0	0	512	620	
14	0	0	0	0	512	619	
15	0	0	0	0	512	617	
0	0	0	0	0	512	619	
1	0	0	0	0	512	618	
2	0	0	0	0	512	619	
3	0	0	0	0	512	620	
4	0	0	0	0	512	619	
5	0	0	0	0	512	618	
6	0	0	0	0	512	619	
7	0	0	0	0	512	617	
8	0	0	0	0	511	619	
9	0	0	0	0	511	620	
10	0	0	0	0	511	619	
11	0	0	0	0	510	620	
12	0	0	0	0	511	620	
13	0	0	0	0	511	619	
14	0	0	0	0	511	619	
15	0	0	0	0	511	617	
0	0	0	0	0	511	618	
1	0	0	0	0	512	618	
2	0	0	0	0	512	618	
3	0	0	0	0	513	620	
4	0	0	0	0	512	617	
5	0	0	0	0	512	618	
6	0	0	0	0	513	618	
7	0	0	0	0	512	616	
8	0	0	0	0	512	617	
9	0	0	0	0	512	618	
10	0	0	0	0	512	617	
11	0	0	0	0	512	619	
12	0	0	0	0	512	618	
13	0	0	0	0	512	618	
14	0	0	0	0	512	618	
15	0	0	0	0	513	616	
0	0	0	0	0	513	619	
1	0	0	0	0	513	619	
2	0	0	0	0	513	619	
3	0	0	0	0	513	620	
4	0	0	0	0	513	619	
5	0	0	0	0	514	618	
6	0	0	0	0	513	618	
7	0	0	0	0	513	617	
8	0	0	0	0	513	619	
9	0	0	0	0	513	619	
10	0	0	0	0	512	619	
11	0	0	0	0	513	621	
12	0	0	0	0	513	619	
13	0	0	0	0	512	620	
14	0	0	0	0	511	619	
15	0	0	0	0	511	617	
0	0	0	0	0	511	620	
1	0	0	0	0	511	620	
2	0	0	0	0	511	619	
3	0	0	0	0	511	621	
4	0	0	0	0	511	620	
5	0	0	0	0	511	619	
6	0	0	0	0	511	620	
7	0	0	0	0	511	618	
8	0	0	0	0	510	620	
9	0	0	0	0	510	620	
10	0	0	0	0	511	620	
11	0	0	0	0	511	622	
12	0	0	0	0	511	621	
13	0	0	0	0	510	621	
14	0	0	0	0	510	621	
15	0	0	0	0	509	620	
0	0	0	0	0	509	620	
1	0	0	0	0	509	620	
2	0	0	0	0	509	620	
3	0	0	0	0	509	622	
4	0	0	0	0	509	620	
5	0	0	0	0	509	620	
6	0	0	0	0	509	620	
7	0	0	0	0	508	618	
8	0	0	0	0	508	620	
9	0	0	0	0	507	619	
10	0	0	0	0	505	620	
11	0	0	0	0	503	621	
12	0	0	0	0	499	619	
13	0	0	0	0	495	619	
14	0	0	0	0	489	620	
15	0	0	0	0	483	617	
0	0	0	0	0	475	619	
1	0	0	0	0	467	619	
2	0	0	0	0	460	620	
3	0	0	0	0	451	620	
4	0	0	0	0	442	619	
5	0	0	0	0	434	619	
6	0	0	0	0	427	619	
7	0	0	0	0	421	618	
8	0	0	0	0	415	619	
9	0	0	0	0	407	619	
10	0	0	0	0	400	619	
11	0	0	0	0	394	620	
12	0	0	0	0	390	619	
13	0	0	0	0	388	619	
14	0	0	0	0	388	620	
15	0	0	0	0	391	617	
0	0	0	0	0	400	620	
1	0	0	0	0	412	620	
2	0	0	0	0	427	620	
3	0	0	0	0	448	622	
4	0	0	0	0	476	621	
5	0	0	0	0	505	620	
6	0	0	0	0	540	620	
7	0	0	0	0	580	618	
8	0	0	0	0	624	620	
9	0	0	0	0	668	620	
10	0	0	0	0	711	620	
11	0	0	0	0	749	622	
12	0	0	0	0	785	620	
13	0	0	0	0	820	620	
14	0	0	0	0	851	620	
15	0	0	0	0	870	618	
0	0	0	0	0	882	620	
1	0	0	0	0	887	620	
2	0	0	0	0	884	620	
3	0	0	0	0	875	621	
4	0	0	0	0	860	620	
5	0	0	0	0	839	621	
6	0	0	0	0	808	620	
7	0	0	0	0	774	618	
8	0	0	0	0	740	619	
9	0	0	0	0	710	620	
10	0	0	0	0	685	620	
11	0	0	0	0	667	622	
12	0	0	0	0	650	620	
13	0	0	0	0	638	620	
14	0	0	0	0	630	620	
15	0	0	0	0	624	619	
0	0	0	0	0	617	620	
1	0	0	0	0	611	620	
2	0	0	0	0	604	620	
3	0	0	0	0	597	622	
4	0	0	0	0	589	621	
5	0	0	0	0	580	620	
6	0	0	0	0	570	621	
7	0	0	0	0	559	618	
8	0	0	0	0	548	621	
9	0	0	0	0	537	620	
10	0	0	0	0	524	620	
11	0	0	0	0	513	623	
12	0	0	0	0	502	621	
13	0	0	0	0	493	621	
14	0	0	0	0	484	621	
15	0	0	0	0	476	619	
0	0	0	0	0	470	621	
1	0	0	0	0	463	620	
2	0	0	0	0	458	621	
3	0	0	0	0	453	622	
4	0	0	0	0	450	621	
5	0	0	0	0	448	620	
6	0	0	0	0	447	620	
7	0	0	0	0	446	618	
8	0	0	0	0	444	620	
9	0	0	0	0	443	620	
10	0	0	0	0	443	621	
11	0	0	0	0	442	622	
12	0	0	0	0	443	620	
13	0	0	0	0	443	620	
14	0	0	0	0	443	620	
15	0	0	0	0	443	619	
0	0	0	0	0	443	621	
1	0	0	0	0	443	621	
2	0	0	0	0	444	620	
3	0	0	0	0	444	622	
4	0	0	0	0	444	621	
5	0	0	0	0	445	620	
6	0	0	0	0	445	620	
7	0	0	0	0	445	619	
8	0	0	0	0	446	620	
9	0	0	0	0	446	620	
10	0	0	0	0	446	620	
11	0	0	0	0	446	621	
12	0	0	0	0	447	620	
13	0	0	0	0	447	619	
14	0	0	0	0	447	620	
15	0	0	0	0	447	617	
0	0	0	0	0	448	620	
1	0	0	0	0	449	619	
2	0	0	0	0	449	619	
3	0	0	0	0	449	621	
4	0	0	0	0	449	619	
5	0	0	0	0	451	619	
6	0	0	0	0	452	620	
7	0	0	0	0	452	617	
8	0	0	0	0	452	620	
9	0	0	0	0	451	620	
10	0	0	0	0	452	620	
11	0	0	0	0	452	622	
12	0	0	0	0	453	620	
13	0	0	0	0	454	620	
14	0	0	0	0	454	620	
15	0	0	0	0	455	618	
0	0	0	0	0	455	620	
1	0	0	0	0	456	619	
2	0	0	0	0	457	619	
3	0	0	0	0	458	621	
4	0	0	0	0	458	619	
5	0	0	0	0	458	620	
6	0	0	0	0	460	620	
7	0	0	0	0	460	619	
8	0	0	0	0	461	621	
9	0	0	0	0	461	621	
10	0	0	0	0	461	621	
11	0	0	0	0	462	622	
12	0	0	0	0	463	621	
13	0	0	0	0	463	620	
14	0	0	0	0	463	621	
15	0	0	0	0	464	619	
0	0	0	0	0	464	621	
1	0	0	0	0	464	621	
2	0	0	0	0	464	621	
3	0	0	0	0	464	623	
4	0	0	0	0	464	621	
5	0	0	0	0	465	621	
6	0	0	0	0	465	620	
7	0	0	0	0	465	618	
8	0	0	0	0	465	620	
9	0	0	0	0	465	620	
10	0	0	0	0	465	620	
11	0	0	0	0	465	622	
12	0	0	0	0	466	620	
13	0	0	0	0	466	620	
14	0	0	0	0	466	621	
15	0	0	0	0	466	618	
0	0	0	0	0	467	620	
1	0	0	0	0	467	620	
2	0	0	0	0	466	620	
3	0	0	0	0	467	622	
4	0	0	0	0	467	620	
5	0	0	0	0	467	620	
6	0	0	0	0	467	620	
7	0	0	0	0	468	618	
8	0	0	0	0	467	620	
9	0	0	0	0	467	620	
10	0	0	0	0	468	620	
11	0	0	0	0	468	622	
12	0	0	0	0	468	620	
13	0	0	0	0	469	620	
14	0	0	0	0	469	620	
15	0	0	0	0	470	617	
0	0	0	0	0	471	620	
1	0	0	0	0	471	620	
2	0	0	0	0	472	620	
3	0	0	0	0	473	621	
4	0	0	0	0	473	620	
5	0	0	0	0	474	619	
6	0	0	0	0	474	619	
7	0	0	0	0	474	617	
8	0	0	0	0	473	619	
9	0	0	0	0	474	619	
10	0	0	0	0	473	619	
11	0	0	0	0	473	620	
12	0	0	0	0	474	618	
13	0	0	0	0	475	617	
14	0	0	0	0	476	618	
15	0	0	0	0	477	616	
0	0	0	0	0	478	618	
1	0	0	0	0	478	618	
2	0	0	0	0	478	618	
3	0	0	0	0	478	620	
4	0	0	0	0	478	618	
5	0	0	0	0	479	618	
6	0	0	0	0	479	618	
7	0	0	0	0	478	616	
8	0	0	0	0	479	618	
9	0	0	0	0	479	618	
10	0	0	0	0	480	618	
11	0	0	0	0	480	620	
12	0	0	0	0	482	619	
13	0	0	0	0	482	619	
14	0	0	0	0	483	618	
15	0	0	0	0	484	616	
0	0	0	0	0	484	618	
1	0	0	0	0	486	618	
2	0	0	0	0	486	618	
3	0	0	0	0	487	620	
4	0	0	0	0	488	619	
5	0	0	0	0	489	619	
6	0	0	0	0	490	619	
7	0	0	0	0	491	617	
8	0	0	0	0	492	620	
9	0	0	0	0	493	620	
10	0	0	0	0	494	620	
11	0	0	0	0	495	622	
12	0	0	0	0	496	620	
13	0	0	0	0	497	620	
14	0	0	0	0	498	620	
15	0	0	0	0	499	618	
0	0	0	0	0	500	620	
1	0	0	0	0	502	620	
2	0	0	0	0	503	620	
3	0	0	0	0	504	622	
4	0	0	0	0	506	621	
5	0	0	0	0	507	620	
6	0	0	0	0	508	620	
7	0	0	0	0	510	618	
8	0	0	0	0	511	619	
9	0	0	0	0	512	620	
10	0	0	0	0	512	620	
11	0	0	0	0	514	622	
12	0	0	0	0	515	620	
13	0	0	0	0	516	620	
14	0	0	0	0	518	620	
15	0	0	0	0	519	617	
0	0	0	0	0	520	620	
1	0	0	0	0	521	620	
2	0	0	0	0	522	620	
3	0	0	0	0	524	622	
4	0	0	0	0	524	620	
5	0	0	0	0	526	620	
6	0	0	0	0	528	620	
7	0	0	0	0	529	618	
8	0	0	0	0	531	620	
9	0	0	0	0	532	619	
10	0	0	0	0	533	620	
11	0	0	0	0	534	621	
12	0	0	0	0	534	619	
13	0	0	0	0	535	620	
14	0	0	0	0	536	620	
15	0	0	0	0	537	618	
0	0	0	0	0	538	620	
1	0	0	0	0	538	620	
2	0	0	0	0	539	620	
3	0	0	0	0	539	622	
4	0	0	0	0	541	620	
5	0	0	0	0	542	621	
6	0	0	0	0	542	621	
7	0	0	0	0	543	619	
8	0	0	0	0	543	621	
9	0	0	0	0	543	620	
10	0	0	0	0	543	621	
11	0	0	0	0	543	623	
12	0	0	0	0	543	621	
13	0	0	0	0	542	620	
14	0	0	0	0	542	621	
15	0	0	0	0	542	619	
0	0	0	0	0	542	621	
1	0	0	0	0	543	621	
2	0	0	0	0	542	621	
3	0	0	0	0	541	623	
4	0	0	0	0	541	621	
5	0	0	0	0	540	621	
6	0	0	0	0	540	621	
7	0	0	0	0	539	619	
8	0	0	0	0	537	621	
9	0	0	0	0	536	621	
10	0	0	0	0	535	621	
11	0	0	0	0	535	623	
12	0	0	0	0	534	621	
13	0	0	0	0	532	622	
14	0	0	0	0	531	621	
15	0	0	0	0	529	620	
0	0	0	0	0	528	621	
1	0	0	0	0	526	621	
2	0	0	0	0	524	622	
3	0	0	0	0	524	623	
4	0	0	0	0	522	621	
5	0	0	0	0	520	622	
6	0	0	0	0	518	621	
7	0	0	0	0	517	620	
8	0	0	0	0	516	620	
9	0	0	0	0	514	620	
10	0	0	0	0	513	620	
11	0	0	0	0	512	622	
12	0	0	0	0	511	620	
13	0	0	0	0	510	620	
14	0	0	0	0	509	620	
15	0	0	0	0	508	618	
0	0	0	0	0	507	620	
1	0	0	0	0	505	620	
2	0	0	0	0	503	620	
3	0	0	0	0	502	622	
4	0	0	0	0	501	620	
5	0	0	0	0	499	620	
6	0	0	0	0	497	620	
7	0	0	0	0	496	618	
8	0	0	0	0	495	620	
9	0	0	0	0	495	620	
10	0	0	0	0	494	620	
11	0	0	0	0	492	621	
12	0	0	0	0	492	619	
13	0	0	0	0	491	619	
14	0	0	0	0	491	619	
15	0	0	0	0	490	617	
0	0	0	0	0	490	620	
1	0	0	0	0	490	619	
2	0	0	0	0	490	619	
3	0	0	0	0	490	621	
4	0	0	0	0	489	618	
5	0	0	0	0	489	618	
6	0	0	0	0	489	618	
7	0	0	0	0	488	617	
8	0	0	0	0	488	619	
9	0	0	0	0	488	619	
10	0	0	0	0	487	618	
11	0	0	0	0	487	620	
12	0	0	0	0	486	618	
13	0	0	0	0	486	618	
14	0	0	0	0	486	618	
15	0	0	0	0	485	616	
0	0	0	0	0	486	618	
1	0	0	0	0	486	618	
2	0	0	0	0	485	619	
3	0	0	0	0	485	620	
4	0	0	0	0	485	619	
5	0	0	0	0	485	619	
6	0	0	0	0	485	619	
7	0	0	0	0	486	618	
8	0	0	0	0	486	620	
9	0	0	0	0	487	620	
10	0	0	0	0	487	620	
11	0	0	0	0	487	622	
12	0	0	0	0	487	620	
13	0	0	0	0	487	620	
14	0	0	0	0	487	620	
15	0	0	0	0	487	619	
0	0	0	0	0	487	620	
1	0	0	0	0	487	620	
2	0	0	0	0	487	620	
3	0	0	0	0	487	623	
4	0	0	0	0	487	621	
5	0	0	0	0	487	620	
6	0	0	0	0	487	621	
7	0	0	0	0	486	618	
8	0	0	0	0	486	620	
9	0	0	0	0	485	620	
10	0	0	0	0	485	620	
11	0	0	0	0	484	622	
12	0	0	0	0	484	620	
13	0	0	0	0	485	621	
14	0	0	0	0	484	620	
15	0	0	0	0	485	618	
0	0	0	0	0	486	620	
1	0	0	0	0	486	621	
2	0	0	0	0	486	620	
3	0	0	0	0	487	623	
4	0	0	0	0	487	620	
5	0	0	0	0	487	620	
6	0	0	0	0	487	620	
7	0	0	0	0	487	618	
8	0	0	0	0	487	620	
9	0	0	0	0	487	621	
10	0	0	0	0	487	621	
11	0	0	0	0	487	623	
12	0	0	0	0	487	620	
13	0	0	0	0	487	621	
14	0	0	0	0	487	620	
15	0	0	0	0	487	619	
0	0	0	0	0	487	621	
1	0	0	0	0	487	620	
2	0	0	0	0	487	620	
3	0	0	0	0	487	621	
4	0	0	0	0	487	620	
5	0	0	0	0	487	620	
6	0	0	0	0	487	620	
7	0	0	0	0	488	618	
8	0	0	0	0	488	620	
9	0	0	0	0	489	620	
10	0	0	0	0	489	620	
11	0	0	0	0	489	622	
12	0	0	0	0	489	620	
13	0	0	0	0	489	620	
14	0	0	0	0	489	620	
15	0	0	0	0	489	618	
0	0	0	0	0	490	620	
1	0	0	0	0	490	620	
2	0	0	0	0	490	620	
3	0	0	0	0	490	622	
4	0	0	0	0	489	620	
5	0	0	0	0	489	619	
6	0	0	0	0	489	620	
7	0	0	0	0	489	617	
8	0	0	0	0	489	620	
9	0	0	0	0	488	619	
10	0	0	0	0	489	619	
11	0	0	0	0	489	621	
12	0	0	0	0	489	620	
13	0	0	0	0	489	619	
14	0	0	0	0	489	619	
15	0	0	0	0	489	617	
0	0	0	0	0	489	619	
1	0	0	0	0	489	619	
2	0	0	0	0	490	619	
3	0	0	0	0	489	620	
4	0	0	0	0	490	619	
5	0	0	0	0	491	618	
6	0	0	0	0	492	619	
7	0	0	0	0	492	617	
8	0	0	0	0	492	619	
9	0	0	0	0	492	619	
10	0	0	0	0	493	619	
11	0	0	0	0	493	620	
12	0	0	0	0	493	619	
13	0	0	0	0	494	619	
14	0	0	0	0	494	619	
15	0	0	0	0	494	617	
0	0	0	0	0	493	619	
1	0	0	0	0	493	619	
2	0	0	0	0	493	619	
3	0	0	0	0	494	620	
4	0	0	0	0	494	619	
5	0	0	0	0	494	618	
6	0	0	0	0	494	619	
7	0	0	0	0	494	616	
8	0	0	0	0	494	619	
9	0	0	0	0	495	619	
10	0	0	0	0	495	620	
11	0	0	0	0	495	621	
12	0	0	0	0	494	619	
13	0	0	0	0	494	620	
14	0	0	0	0	493	620	
15	0	0	0	0	492	617	
0	0	0	0	0	492	620	
1	0	0	0	0	492	620	
2	0	0	0	0	493	620	
3	0	0	0	0	493	622	
4	0	0	0	0	493	620	
5	0	0	0	0	494	621	
6	0	0	0	0	494	620	
7	0	0	0	0	494	617	
8	0	0	0	0	494	620	
9	0	0	0	0	495	620	
10	0	0	0	0	496	620	
11	0	0	0	0	496	622	
12	0	0	0	0	496	620	
13	0	0	0	0	496	620	
14	0	0	0	0	497	620	
15	0	0	0	0	497	618	
0	0	0	0	0	497	620	
1	0	0	0	0	498	620	
2	0	0	0	0	498	620	
3	0	0	0	0	499	622	
4	0	0	0	0	499	620	
5	0	0	0	0	499	621	
6	0	0	0	0	499	620	
7	0	0	0	0	499	619	
8	0	0	0	0	499	620	
9	0	0	0	0	499	620	
10	0	0	0	0	499	620	
11	0	0	0	0	500	622	
12	0	0	0	0	500	621	
13	0	0	0	0	500	620	
14	0	0	0	0	501	620	
15	0	0	0	0	502	618	
0	0	0	0	0	502	621	
1	0	0	0	0	503	620	
2	0	0	0	0	503	619	
3	0	0	0	0	503	622	
4	0	0	0	0	503	620	
5	0	0	0	0	503	620	
6	0	0	0	0	504	620	
7	0	0	0	0	504	618	
8	0	0	0	0	504	620	
9	0	0	0	0	504	620	
10	0	0	0	0	503	620	
11	0	0	0	0	504	622	
12	0	0	0	0	504	621	
13	0	0	0	0	504	621	
14	0	0	0	0	504	621	
15	0	0	0	0	505	619	
0	0	0	0	0	505	620	
1	0	0	0	0	504	621	
2	0	0	0	0	505	621	
3	0	0	0	0	505	622	
4	0	0	0	0	506	621	
5	0	0	0	0	506	621	
6	0	0	0	0	505	620	
7	0	0	0	0	506	618	
8	0	0	0	0	506	620	
9	0	0	0	0	507	620	
10	0	0	0	0	507	620	
11	0	0	0	0	507	622	
12	0	0	0	0	508	620	
13	0	0	0	0	508	620	
14	0	0	0	0	508	620	
15	0	0	0	0	508	618	
0	0	0	0	0	509	620	
1	0	0	0	0	509	620	
2	0	0	0	0	508	619	
3	0	0	0	0	508	621	
4	0	0	0	0	508	619	
5	0	0	0	0	508	619	
6	0	0	0	0	507	619	
7	0	0	0	0	507	618	
8	0	0	0	0	508	619	
9	0	0	0	0	508	619	
10	0	0	0	0	508	620	
11	0	0	0	0	508	622	
12	0	0	0	0	507	620	
13	0	0	0	0	507	620	
14	0	0	0	0	508	620	
15	0	0	0	0	508	618	
0	0	0	0	0	510	620	
1	0	0	0	0	510	620	
2	0	0	0	0	510	620	
3	0	0	0	0	510	622	
4	0	0	0	0	510	620	
5	0	0	0	0	511	620	
6	0	0	0	0	510	620	
7	0	0	0	0	510	618	
8	0	0	0	0	510	620	
9	0	0	0	0	511	620	
10	0	0	0	0	511	620	
11	0	0	0	0	511	621	
12	0	0	0	0	512	620	
13	0	0	0	0	512	619	
14	0	0	0	0	512	619	
15	0	0	0	0	511	617	
0	0	0	0	0	511	620	
1	0	0	0	0	511	619	
2	0	0	0	0	511	620	
3	0	0	0	0	511	621	
4	0	0	0	0	511	619	
5	0	0	0	0	511	619	
6	0	0	0	0	511	619	
7	0	0	0	0	511	617	
8	0	0	0	0	511	619	
9	0	0	0	0	511	619	
10	0	0	0	0	511	619	
11	0	0	0	0	511	620	
12	0	0	0	0	510	618	
13	0	0	0	0	510	618	
14	0	0	0	0	509	618	
15	0	0	0	0	509	616	
0	0	0	0	0	509	618	
1	0	0	0	0	509	618	
2	0	0	0	0	509	619	
3	0	0	0	0	510	620	
4	0	0	0	0	509	617	
5	0	0	0	0	509	618	
6	0	0	0	0	510	618	
7	0	0	0	0	510	615	
8	0	0	0	0	510	617	
9	0	0	0	0	510	617	
10	0	0	0	0	510	617	
11	0	0	0	0	509	619	
12	0	0	0	0	509	618	
13	0	0	0	0	510	619	
14	0	0	0	0	509	618	
15	0	0	0	0	509	616	
0	0	0	0	0	510	618	
1	0	0	0	0	510	618	
2	0	0	0	0	510	619	
3	0	0	0	0	510	621	
4	0	0	0	0	510	619	
5	0	0	0	0	510	619	
6	0	0	0	0	510	620	
7	0	0	0	0	511	618	
8	0	0	0	0	510	619	
9	0	0	0	0	510	619	
10	0	0	0	0	510	619	
11	0	0	0	0	510	622	
12	0	0	0	0	511	621	
13	0	0	0	0	511	620	
14	0	0	0	0	511	620	
15	0	0	0	0	511	618	
0	0	0	0	0	512	621	
1	0	0	0	0	512	621	
2	0	0	0	0	513	620	
3	0	0	0	0	513	622	
4	0	0	0	0	512	620	
5	0	0	0	0	511	621	
6	0	0	0	0	512	621	
7	0	0	0	0	512	619	
8	0	0	0	0	512	621	
9	0	0	0	0	512	621	
10	0	0	0	0	512	620	
11	0	0	0	0	512	622	
12	0	0	0	0	512	620	
13	0	0	0	0	512	620	
14	0	0	0	0	512	620	
15	0	0	0	0	511	618	
0	0	0	0	0	511	620	
1	0	0	0	0	511	619	
2	0	0	0	0	512	619	
3	0	0	0	0	512	621	
4	0	0	0	0	511	619	
5	0	0	0	0	511	619	
6	0	0	0	0	511	618	
7	0	0	0	0	512	616	
8	0	0	0	0	511	618	
9	0	0	0	0	511	617	
10	0	0	0	0	511	617	
11	0	0	0	0	511	620	
12	0	0	0	0	511	619	
13	0	0	0	0	511	618	
14	0	0	0	0	511	618	
15	0	0	0	0	511	616	
0	0	0	0	0	511	618	
1	0	0	0	0	510	618	
2	0	0	0	0	511	617	
3	0	0	0	0	511	620	
4	0	0	0	0	512	618	
5	0	0	0	0	511	619	
6	0	0	0	0	511	618	
7	0	0	0	0	511	616	
8	0	0	0	0	510	618	
9	0	0	0	0	511	618	
10	0	0	0	0	511	617	
11	0	0	0	0	511	620	
12	0	0	0	0	511	618	
13	0	0	0	0	511	619	
14	0	0	0	0	511	619	
15	0	0	0	0	512	616	
0	0	0	0	0	512	619	
1	0	0	0	0	512	619	
2	0	0	0	0	511	619	
3	0	0	0	0	511	622	
