# OpenSignals Text File Format
# {"98:D3:11:FD:1E:A8":{"sensor":["RAW","RAW"],"device name":"98:D3:11:FD:1E:A8","column":["nSeq","I1","I2","O1","O2","A2","A5"],"sync interval":2,"time":"11:21:01","comments":"","device connection":"BTH98:D3:11:FD:1E:A8","channels":[2,5],"date":"2021-09-13","mode":0,"digital IO":[0,0,1,1],"firmware version":0,"device":"bitalino_rev","position":0,"sampling rate":1000,"label":["A2","A5"],"resolution":[10,10],"special":[{},{}]}}
# EndOfHeader
0	0	0	0	0	524	620
1	0	0	0	0	524	621
2	0	0	0	0	524	620
3	0	0	0	0	524	621
4	0	0	0	0	523	620
5	0	0	0	0	523	620
6	0	0	0	0	523	620
7	0	0	0	0	523	620
8	0	0	0	0	523	620
9	0	0	0	0	523	620
10	0	0	0	0	523	620
11	0	0	0	0	523	621
12	0	0	0	0	523	621
13	0	0	0	0	523	620
14	0	0	0	0	523	620
15	0	0	0	0	523	621
0	0	0	0	0	522	621
1	0	0	0	0	522	621
2	0	0	0	0	523	621
3	0	0	0	0	523	622
4	0	0	0	0	524	621
5	0	0	0	0	523	621
6	0	0	0	0	523	622
7	0	0	0	0	523	621
8	0	0	0	0	523	621
9	0	0	0	0	523	621
10	0	0	0	0	524	622
11	0	0	0	0	524	622
12	0	0	0	0	524	622
13	0	0	0	0	524	622
14	0	0	0	0	524	622
15	0	0	0	0	524	622
0	0	0	0	0	524	622
1	0	0	0	0	524	622
2	0	0	0	0	524	622
3	0	0	0	0	524	622
4	0	0	0	0	524	622
5	0	0	0	0	524	622
6	0	0	0	0	524	622
7	0	0	0	0	523	622
8	0	0	0	0	524	622
9	0	0	0	0	524	623
10	0	0	0	0	524	623
11	0	0	0	0	523	624
12	0	0	0	0	524	623
13	0	0	0	0	524	623
14	0	0	0	0	523	623
15	0	0	0	0	523	623
0	0	0	0	0	523	623
1	0	0	0	0	522	623
2	0	0	0	0	522	623
3	0	0	0	0	521	624
4	0	0	0	0	522	623
5	0	0	0	0	522	623
6	0	0	0	0	522	623
7	0	0	0	0	522	623
8	0	0	0	0	522	623
9	0	0	0	0	522	623
10	0	0	0	0	522	623
11	0	0	0	0	522	624
12	0	0	0	0	522	623
13	0	0	0	0	521	623
14	0	0	0	0	521	624
15	0	0	0	0	521	623
0	0	0	0	0	521	623
1	0	0	0	0	521	624
2	0	0	0	0	521	623
3	0	0	0	0	521	624
4	0	0	0	0	521	623
5	0	0	0	0	520	623
6	0	0	0	0	520	624
7	0	0	0	0	519	624
8	0	0	0	0	520	624
9	0	0	0	0	520	624
10	0	0	0	0	519	624
11	0	0	0	0	519	625
12	0	0	0	0	519	624
13	0	0	0	0	519	625
14	0	0	0	0	519	624
15	0	0	0	0	519	624
0	0	0	0	0	519	624
1	0	0	0	0	520	624
2	0	0	0	0	520	623
3	0	0	0	0	520	624
4	0	0	0	0	519	624
5	0	0	0	0	519	625
6	0	0	0	0	519	624
7	0	0	0	0	519	625
8	0	0	0	0	519	625
9	0	0	0	0	519	624
10	0	0	0	0	519	624
11	0	0	0	0	519	625
12	0	0	0	0	519	624
13	0	0	0	0	519	624
14	0	0	0	0	518	624
15	0	0	0	0	519	625
0	0	0	0	0	518	624
1	0	0	0	0	518	624
2	0	0	0	0	518	624
3	0	0	0	0	518	625
4	0	0	0	0	518	624
5	0	0	0	0	518	624
6	0	0	0	0	518	624
7	0	0	0	0	519	624
8	0	0	0	0	518	624
9	0	0	0	0	518	624
10	0	0	0	0	518	624
11	0	0	0	0	517	625
12	0	0	0	0	517	623
13	0	0	0	0	517	624
14	0	0	0	0	518	624
15	0	0	0	0	518	624
0	0	0	0	0	518	624
1	0	0	0	0	518	624
2	0	0	0	0	518	624
3	0	0	0	0	519	624
4	0	0	0	0	518	623
5	0	0	0	0	519	624
6	0	0	0	0	519	624
7	0	0	0	0	518	624
8	0	0	0	0	519	623
9	0	0	0	0	519	624
10	0	0	0	0	519	623
11	0	0	0	0	518	624
12	0	0	0	0	518	624
13	0	0	0	0	518	624
14	0	0	0	0	517	624
15	0	0	0	0	518	624
0	0	0	0	0	518	624
1	0	0	0	0	518	624
2	0	0	0	0	518	623
3	0	0	0	0	518	624
4	0	0	0	0	518	624
5	0	0	0	0	517	623
6	0	0	0	0	516	623
7	0	0	0	0	516	623
8	0	0	0	0	516	623
9	0	0	0	0	517	623
10	0	0	0	0	517	622
11	0	0	0	0	518	623
12	0	0	0	0	519	622
13	0	0	0	0	519	622
14	0	0	0	0	519	622
15	0	0	0	0	519	622
0	0	0	0	0	519	622
1	0	0	0	0	520	622
2	0	0	0	0	521	622
3	0	0	0	0	520	623
4	0	0	0	0	520	623
5	0	0	0	0	520	622
6	0	0	0	0	520	622
7	0	0	0	0	521	622
8	0	0	0	0	521	622
9	0	0	0	0	521	622
10	0	0	0	0	522	622
11	0	0	0	0	522	623
12	0	0	0	0	523	623
13	0	0	0	0	523	622
14	0	0	0	0	523	622
15	0	0	0	0	524	622
0	0	0	0	0	524	622
1	0	0	0	0	525	622
2	0	0	0	0	524	622
3	0	0	0	0	524	622
4	0	0	0	0	525	623
5	0	0	0	0	525	622
6	0	0	0	0	526	622
7	0	0	0	0	526	622
8	0	0	0	0	526	622
9	0	0	0	0	526	622
10	0	0	0	0	527	622
11	0	0	0	0	527	622
12	0	0	0	0	527	622
13	0	0	0	0	528	622
14	0	0	0	0	527	622
15	0	0	0	0	527	622
0	0	0	0	0	527	622
1	0	0	0	0	527	623
2	0	0	0	0	527	623
3	0	0	0	0	528	623
4	0	0	0	0	528	623
5	0	0	0	0	528	623
6	0	0	0	0	528	623
7	0	0	0	0	528	623
8	0	0	0	0	528	622
9	0	0	0	0	529	623
10	0	0	0	0	529	623
11	0	0	0	0	529	624
12	0	0	0	0	530	623
13	0	0	0	0	530	623
14	0	0	0	0	530	623
15	0	0	0	0	531	623
0	0	0	0	0	530	623
1	0	0	0	0	531	624
2	0	0	0	0	531	623
3	0	0	0	0	532	624
4	0	0	0	0	532	623
5	0	0	0	0	531	623
6	0	0	0	0	531	623
7	0	0	0	0	531	623
8	0	0	0	0	531	623
9	0	0	0	0	531	623
10	0	0	0	0	532	624
11	0	0	0	0	532	624
12	0	0	0	0	532	623
13	0	0	0	0	532	623
14	0	0	0	0	533	624
15	0	0	0	0	533	624
0	0	0	0	0	533	624
1	0	0	0	0	533	623
2	0	0	0	0	533	624
3	0	0	0	0	533	625
4	0	0	0	0	533	624
5	0	0	0	0	532	623
6	0	0	0	0	532	623
7	0	0	0	0	533	624
8	0	0	0	0	533	624
9	0	0	0	0	534	624
10	0	0	0	0	534	624
11	0	0	0	0	534	624
12	0	0	0	0	534	625
13	0	0	0	0	535	624
14	0	0	0	0	535	624
15	0	0	0	0	535	624
0	0	0	0	0	535	624
1	0	0	0	0	535	624
2	0	0	0	0	535	624
3	0	0	0	0	535	624
4	0	0	0	0	535	624
5	0	0	0	0	535	624
6	0	0	0	0	535	624
7	0	0	0	0	534	624
8	0	0	0	0	534	625
9	0	0	0	0	534	624
10	0	0	0	0	535	625
11	0	0	0	0	534	625
12	0	0	0	0	534	624
13	0	0	0	0	535	625
14	0	0	0	0	535	625
15	0	0	0	0	535	624
0	0	0	0	0	535	625
1	0	0	0	0	535	625
2	0	0	0	0	535	625
3	0	0	0	0	535	625
4	0	0	0	0	535	624
5	0	0	0	0	536	625
6	0	0	0	0	535	625
7	0	0	0	0	535	625
8	0	0	0	0	536	625
9	0	0	0	0	536	625
10	0	0	0	0	536	625
11	0	0	0	0	536	626
12	0	0	0	0	535	626
13	0	0	0	0	536	625
14	0	0	0	0	535	625
15	0	0	0	0	535	625
0	0	0	0	0	535	625
1	0	0	0	0	535	625
2	0	0	0	0	535	625
3	0	0	0	0	535	625
4	0	0	0	0	534	625
5	0	0	0	0	534	624
6	0	0	0	0	534	624
7	0	0	0	0	534	624
8	0	0	0	0	534	624
9	0	0	0	0	535	624
10	0	0	0	0	535	624
11	0	0	0	0	534	625
12	0	0	0	0	534	624
13	0	0	0	0	534	623
14	0	0	0	0	534	624
15	0	0	0	0	534	624
0	0	0	0	0	533	624
1	0	0	0	0	533	623
2	0	0	0	0	532	623
3	0	0	0	0	532	624
4	0	0	0	0	532	623
5	0	0	0	0	532	624
6	0	0	0	0	532	623
7	0	0	0	0	532	623
8	0	0	0	0	532	623
9	0	0	0	0	531	623
10	0	0	0	0	531	623
11	0	0	0	0	531	623
12	0	0	0	0	530	623
13	0	0	0	0	530	623
14	0	0	0	0	531	622
15	0	0	0	0	531	623
0	0	0	0	0	530	622
1	0	0	0	0	529	622
2	0	0	0	0	529	622
3	0	0	0	0	529	623
4	0	0	0	0	529	622
5	0	0	0	0	529	622
6	0	0	0	0	528	621
7	0	0	0	0	529	622
8	0	0	0	0	529	620
9	0	0	0	0	529	620
10	0	0	0	0	529	621
11	0	0	0	0	529	622
12	0	0	0	0	528	621
13	0	0	0	0	528	621
14	0	0	0	0	528	621
15	0	0	0	0	527	621
0	0	0	0	0	527	621
1	0	0	0	0	527	622
2	0	0	0	0	527	621
3	0	0	0	0	527	622
4	0	0	0	0	526	621
5	0	0	0	0	526	621
6	0	0	0	0	526	621
7	0	0	0	0	526	620
8	0	0	0	0	526	621
9	0	0	0	0	525	621
10	0	0	0	0	524	621
11	0	0	0	0	524	622
12	0	0	0	0	524	621
13	0	0	0	0	523	621
14	0	0	0	0	524	621
15	0	0	0	0	524	621
0	0	0	0	0	524	621
1	0	0	0	0	524	621
2	0	0	0	0	525	621
3	0	0	0	0	525	622
4	0	0	0	0	524	620
5	0	0	0	0	524	621
6	0	0	0	0	524	621
7	0	0	0	0	524	621
8	0	0	0	0	524	621
9	0	0	0	0	523	620
10	0	0	0	0	523	621
11	0	0	0	0	523	621
12	0	0	0	0	522	621
13	0	0	0	0	523	621
14	0	0	0	0	523	621
15	0	0	0	0	523	622
0	0	0	0	0	523	621
1	0	0	0	0	522	621
2	0	0	0	0	521	621
3	0	0	0	0	521	621
4	0	0	0	0	521	621
5	0	0	0	0	520	621
6	0	0	0	0	520	621
7	0	0	0	0	520	621
8	0	0	0	0	519	621
9	0	0	0	0	520	621
10	0	0	0	0	520	620
11	0	0	0	0	521	622
12	0	0	0	0	521	622
13	0	0	0	0	521	620
14	0	0	0	0	521	621
15	0	0	0	0	522	622
0	0	0	0	0	521	621
1	0	0	0	0	522	622
2	0	0	0	0	522	622
3	0	0	0	0	522	622
4	0	0	0	0	523	621
5	0	0	0	0	524	621
6	0	0	0	0	524	622
7	0	0	0	0	525	622
8	0	0	0	0	525	622
9	0	0	0	0	525	621
10	0	0	0	0	526	622
11	0	0	0	0	526	622
12	0	0	0	0	526	622
13	0	0	0	0	525	622
14	0	0	0	0	525	622
15	0	0	0	0	526	622
0	0	0	0	0	525	622
1	0	0	0	0	524	622
2	0	0	0	0	524	622
3	0	0	0	0	524	623
4	0	0	0	0	524	622
5	0	0	0	0	523	622
6	0	0	0	0	523	622
7	0	0	0	0	524	622
8	0	0	0	0	523	622
9	0	0	0	0	524	622
10	0	0	0	0	524	622
11	0	0	0	0	523	623
12	0	0	0	0	523	622
13	0	0	0	0	522	622
14	0	0	0	0	521	622
15	0	0	0	0	521	622
0	0	0	0	0	521	622
1	0	0	0	0	521	623
2	0	0	0	0	521	623
3	0	0	0	0	521	623
4	0	0	0	0	521	622
5	0	0	0	0	520	622
6	0	0	0	0	520	623
7	0	0	0	0	519	623
8	0	0	0	0	519	623
9	0	0	0	0	519	623
10	0	0	0	0	519	622
11	0	0	0	0	518	623
12	0	0	0	0	517	623
13	0	0	0	0	517	623
14	0	0	0	0	516	623
15	0	0	0	0	516	623
0	0	0	0	0	516	624
1	0	0	0	0	516	623
2	0	0	0	0	515	624
3	0	0	0	0	515	624
4	0	0	0	0	515	624
5	0	0	0	0	515	624
6	0	0	0	0	514	624
7	0	0	0	0	514	624
8	0	0	0	0	513	624
9	0	0	0	0	513	624
10	0	0	0	0	513	624
11	0	0	0	0	513	624
12	0	0	0	0	514	624
13	0	0	0	0	513	624
14	0	0	0	0	513	624
15	0	0	0	0	513	624
0	0	0	0	0	513	624
1	0	0	0	0	513	624
2	0	0	0	0	513	624
3	0	0	0	0	512	625
4	0	0	0	0	513	625
5	0	0	0	0	513	624
6	0	0	0	0	512	625
7	0	0	0	0	512	624
8	0	0	0	0	511	624
9	0	0	0	0	512	625
10	0	0	0	0	512	624
11	0	0	0	0	512	625
12	0	0	0	0	511	623
13	0	0	0	0	511	624
14	0	0	0	0	511	624
15	0	0	0	0	511	624
0	0	0	0	0	510	624
1	0	0	0	0	510	624
2	0	0	0	0	510	623
3	0	0	0	0	509	624
4	0	0	0	0	508	623
5	0	0	0	0	507	624
6	0	0	0	0	506	624
7	0	0	0	0	504	623
8	0	0	0	0	502	623
9	0	0	0	0	499	623
10	0	0	0	0	496	623
11	0	0	0	0	492	624
12	0	0	0	0	487	623
13	0	0	0	0	483	623
14	0	0	0	0	478	623
15	0	0	0	0	472	623
0	0	0	0	0	468	623
1	0	0	0	0	464	623
2	0	0	0	0	460	623
3	0	0	0	0	459	623
4	0	0	0	0	458	622
5	0	0	0	0	459	622
6	0	0	0	0	460	622
7	0	0	0	0	465	622
8	0	0	0	0	470	622
9	0	0	0	0	476	622
10	0	0	0	0	482	622
11	0	0	0	0	487	623
12	0	0	0	0	493	622
13	0	0	0	0	497	622
14	0	0	0	0	500	622
15	0	0	0	0	503	622
0	0	0	0	0	506	622
1	0	0	0	0	511	622
2	0	0	0	0	517	622
3	0	0	0	0	525	622
4	0	0	0	0	535	622
5	0	0	0	0	547	621
6	0	0	0	0	563	621
7	0	0	0	0	580	622
8	0	0	0	0	599	622
9	0	0	0	0	621	622
10	0	0	0	0	647	622
11	0	0	0	0	674	622
12	0	0	0	0	703	622
13	0	0	0	0	732	622
14	0	0	0	0	757	622
15	0	0	0	0	782	621
0	0	0	0	0	804	622
1	0	0	0	0	824	622
2	0	0	0	0	840	622
3	0	0	0	0	854	622
4	0	0	0	0	865	622
5	0	0	0	0	872	622
6	0	0	0	0	870	622
7	0	0	0	0	864	622
8	0	0	0	0	856	621
9	0	0	0	0	846	622
10	0	0	0	0	829	622
11	0	0	0	0	794	622
12	0	0	0	0	746	622
13	0	0	0	0	698	622
14	0	0	0	0	657	622
15	0	0	0	0	627	621
0	0	0	0	0	604	622
1	0	0	0	0	587	622
2	0	0	0	0	572	622
3	0	0	0	0	560	622
4	0	0	0	0	549	622
5	0	0	0	0	540	621
6	0	0	0	0	532	622
7	0	0	0	0	524	622
8	0	0	0	0	518	622
9	0	0	0	0	510	622
10	0	0	0	0	502	622
11	0	0	0	0	495	623
12	0	0	0	0	486	622
13	0	0	0	0	478	622
14	0	0	0	0	471	622
15	0	0	0	0	463	622
0	0	0	0	0	455	622
1	0	0	0	0	449	623
2	0	0	0	0	443	623
3	0	0	0	0	439	623
4	0	0	0	0	434	622
5	0	0	0	0	430	622
6	0	0	0	0	427	622
7	0	0	0	0	424	622
8	0	0	0	0	423	623
9	0	0	0	0	421	622
10	0	0	0	0	419	622
11	0	0	0	0	418	623
12	0	0	0	0	417	622
13	0	0	0	0	417	622
14	0	0	0	0	417	622
15	0	0	0	0	417	622
0	0	0	0	0	416	622
1	0	0	0	0	416	622
2	0	0	0	0	416	622
3	0	0	0	0	416	623
4	0	0	0	0	417	622
5	0	0	0	0	417	622
6	0	0	0	0	418	622
7	0	0	0	0	419	622
8	0	0	0	0	419	623
9	0	0	0	0	421	622
10	0	0	0	0	422	622
11	0	0	0	0	422	623
12	0	0	0	0	422	622
13	0	0	0	0	423	622
14	0	0	0	0	424	622
15	0	0	0	0	424	622
0	0	0	0	0	424	622
1	0	0	0	0	425	622
2	0	0	0	0	425	622
3	0	0	0	0	426	623
4	0	0	0	0	427	622
5	0	0	0	0	428	622
6	0	0	0	0	429	622
7	0	0	0	0	431	622
8	0	0	0	0	432	622
9	0	0	0	0	433	622
10	0	0	0	0	433	622
11	0	0	0	0	434	623
12	0	0	0	0	435	622
13	0	0	0	0	436	622
14	0	0	0	0	437	622
15	0	0	0	0	437	623
0	0	0	0	0	438	623
1	0	0	0	0	438	623
2	0	0	0	0	439	623
3	0	0	0	0	441	624
4	0	0	0	0	441	623
5	0	0	0	0	442	623
6	0	0	0	0	443	623
7	0	0	0	0	444	623
8	0	0	0	0	445	624
9	0	0	0	0	445	624
10	0	0	0	0	446	624
11	0	0	0	0	447	624
12	0	0	0	0	448	624
13	0	0	0	0	448	624
14	0	0	0	0	448	624
15	0	0	0	0	448	624
0	0	0	0	0	449	624
1	0	0	0	0	450	624
2	0	0	0	0	451	624
3	0	0	0	0	451	624
4	0	0	0	0	452	624
5	0	0	0	0	453	624
6	0	0	0	0	453	625
7	0	0	0	0	454	625
8	0	0	0	0	454	625
9	0	0	0	0	455	624
10	0	0	0	0	456	625
11	0	0	0	0	456	625
12	0	0	0	0	457	624
13	0	0	0	0	457	624
14	0	0	0	0	458	624
15	0	0	0	0	458	624
0	0	0	0	0	459	624
1	0	0	0	0	459	624
2	0	0	0	0	460	624
3	0	0	0	0	460	625
4	0	0	0	0	460	624
5	0	0	0	0	461	624
6	0	0	0	0	461	624
7	0	0	0	0	462	624
8	0	0	0	0	462	624
9	0	0	0	0	462	624
10	0	0	0	0	463	624
11	0	0	0	0	463	624
12	0	0	0	0	464	623
13	0	0	0	0	464	623
14	0	0	0	0	464	623
15	0	0	0	0	465	622
0	0	0	0	0	465	622
1	0	0	0	0	466	622
2	0	0	0	0	467	622
3	0	0	0	0	467	623
4	0	0	0	0	467	622
5	0	0	0	0	468	622
6	0	0	0	0	468	621
7	0	0	0	0	468	622
8	0	0	0	0	469	621
9	0	0	0	0	470	621
10	0	0	0	0	470	620
11	0	0	0	0	471	622
12	0	0	0	0	471	621
13	0	0	0	0	471	620
14	0	0	0	0	471	621
15	0	0	0	0	472	620
0	0	0	0	0	473	620
1	0	0	0	0	473	620
2	0	0	0	0	473	620
3	0	0	0	0	474	622
4	0	0	0	0	474	622
5	0	0	0	0	475	621
6	0	0	0	0	475	622
7	0	0	0	0	476	622
8	0	0	0	0	476	622
9	0	0	0	0	477	622
10	0	0	0	0	477	622
11	0	0	0	0	478	623
12	0	0	0	0	477	622
13	0	0	0	0	478	623
14	0	0	0	0	478	623
15	0	0	0	0	478	623
0	0	0	0	0	479	623
1	0	0	0	0	479	623
2	0	0	0	0	479	623
3	0	0	0	0	480	624
4	0	0	0	0	480	623
5	0	0	0	0	480	623
6	0	0	0	0	480	623
7	0	0	0	0	480	623
8	0	0	0	0	481	623
9	0	0	0	0	481	623
10	0	0	0	0	482	624
11	0	0	0	0	483	625
12	0	0	0	0	484	624
13	0	0	0	0	484	624
14	0	0	0	0	484	624
15	0	0	0	0	484	624
0	0	0	0	0	484	624
1	0	0	0	0	485	624
2	0	0	0	0	486	624
3	0	0	0	0	487	624
4	0	0	0	0	488	624
5	0	0	0	0	488	624
6	0	0	0	0	489	624
7	0	0	0	0	489	624
8	0	0	0	0	489	624
9	0	0	0	0	489	625
10	0	0	0	0	490	624
11	0	0	0	0	491	625
12	0	0	0	0	491	624
13	0	0	0	0	492	624
14	0	0	0	0	493	624
15	0	0	0	0	493	624
0	0	0	0	0	493	624
1	0	0	0	0	493	625
2	0	0	0	0	493	624
3	0	0	0	0	494	625
4	0	0	0	0	494	624
5	0	0	0	0	495	624
6	0	0	0	0	495	624
7	0	0	0	0	497	624
8	0	0	0	0	497	624
9	0	0	0	0	499	624
10	0	0	0	0	500	624
11	0	0	0	0	501	624
12	0	0	0	0	502	624
13	0	0	0	0	503	623
14	0	0	0	0	504	624
15	0	0	0	0	504	623
0	0	0	0	0	505	623
1	0	0	0	0	506	623
2	0	0	0	0	507	623
3	0	0	0	0	507	624
4	0	0	0	0	508	623
5	0	0	0	0	509	623
6	0	0	0	0	510	622
7	0	0	0	0	511	623
8	0	0	0	0	512	622
9	0	0	0	0	513	622
10	0	0	0	0	514	622
11	0	0	0	0	515	623
12	0	0	0	0	516	622
13	0	0	0	0	517	623
14	0	0	0	0	518	622
15	0	0	0	0	519	622
0	0	0	0	0	520	621
1	0	0	0	0	521	622
2	0	0	0	0	522	621
3	0	0	0	0	523	623
4	0	0	0	0	524	622
5	0	0	0	0	524	622
6	0	0	0	0	524	622
7	0	0	0	0	525	622
8	0	0	0	0	526	621
9	0	0	0	0	526	621
10	0	0	0	0	526	621
11	0	0	0	0	526	622
12	0	0	0	0	526	622
13	0	0	0	0	527	622
14	0	0	0	0	527	622
15	0	0	0	0	527	621
0	0	0	0	0	528	622
1	0	0	0	0	528	621
2	0	0	0	0	528	622
3	0	0	0	0	528	622
4	0	0	0	0	527	621
5	0	0	0	0	528	622
6	0	0	0	0	528	622
7	0	0	0	0	528	622
8	0	0	0	0	528	622
9	0	0	0	0	527	622
10	0	0	0	0	528	622
11	0	0	0	0	527	623
12	0	0	0	0	528	623
13	0	0	0	0	528	622
14	0	0	0	0	527	623
15	0	0	0	0	527	623
0	0	0	0	0	527	623
1	0	0	0	0	526	622
2	0	0	0	0	526	622
3	0	0	0	0	525	623
4	0	0	0	0	524	623
5	0	0	0	0	523	622
6	0	0	0	0	523	623
7	0	0	0	0	522	623
8	0	0	0	0	521	623
9	0	0	0	0	521	623
10	0	0	0	0	520	623
11	0	0	0	0	519	624
12	0	0	0	0	519	623
13	0	0	0	0	518	624
14	0	0	0	0	517	624
15	0	0	0	0	517	624
0	0	0	0	0	516	624
1	0	0	0	0	516	624
2	0	0	0	0	515	624
3	0	0	0	0	514	624
4	0	0	0	0	513	624
5	0	0	0	0	513	624
6	0	0	0	0	513	624
7	0	0	0	0	513	624
8	0	0	0	0	513	624
9	0	0	0	0	512	624
10	0	0	0	0	512	624
11	0	0	0	0	511	624
12	0	0	0	0	511	624
13	0	0	0	0	512	624
14	0	0	0	0	512	624
15	0	0	0	0	511	624
0	0	0	0	0	511	625
1	0	0	0	0	511	624
2	0	0	0	0	511	624
3	0	0	0	0	511	624
4	0	0	0	0	511	624
5	0	0	0	0	511	624
6	0	0	0	0	510	624
7	0	0	0	0	510	624
8	0	0	0	0	510	624
9	0	0	0	0	510	624
10	0	0	0	0	510	623
11	0	0	0	0	510	624
12	0	0	0	0	510	623
13	0	0	0	0	510	623
14	0	0	0	0	510	623
15	0	0	0	0	510	623
0	0	0	0	0	510	623
1	0	0	0	0	510	623
2	0	0	0	0	510	623
3	0	0	0	0	510	624
4	0	0	0	0	510	623
5	0	0	0	0	510	623
6	0	0	0	0	510	623
7	0	0	0	0	510	623
8	0	0	0	0	511	622
9	0	0	0	0	511	622
10	0	0	0	0	511	622
11	0	0	0	0	511	623
12	0	0	0	0	511	623
13	0	0	0	0	511	622
14	0	0	0	0	512	623
15	0	0	0	0	512	622
0	0	0	0	0	512	622
1	0	0	0	0	511	622
2	0	0	0	0	512	622
3	0	0	0	0	512	622
4	0	0	0	0	512	622
5	0	0	0	0	512	622
6	0	0	0	0	512	621
7	0	0	0	0	512	622
8	0	0	0	0	512	621
9	0	0	0	0	512	622
10	0	0	0	0	512	622
11	0	0	0	0	511	622
12	0	0	0	0	511	622
13	0	0	0	0	511	622
14	0	0	0	0	511	622
15	0	0	0	0	511	622
0	0	0	0	0	512	622
1	0	0	0	0	512	622
2	0	0	0	0	512	622
3	0	0	0	0	512	623
4	0	0	0	0	512	623
5	0	0	0	0	511	622
6	0	0	0	0	512	622
7	0	0	0	0	512	622
8	0	0	0	0	512	622
9	0	0	0	0	513	622
10	0	0	0	0	513	622
11	0	0	0	0	512	623
12	0	0	0	0	512	623
13	0	0	0	0	512	623
14	0	0	0	0	512	623
15	0	0	0	0	512	622
0	0	0	0	0	512	623
1	0	0	0	0	511	623
2	0	0	0	0	511	622
3	0	0	0	0	511	624
4	0	0	0	0	510	623
5	0	0	0	0	510	623
6	0	0	0	0	510	624
7	0	0	0	0	510	624
8	0	0	0	0	510	624
9	0	0	0	0	510	624
10	0	0	0	0	510	624
11	0	0	0	0	510	625
12	0	0	0	0	510	624
13	0	0	0	0	510	624
14	0	0	0	0	511	624
15	0	0	0	0	511	624
0	0	0	0	0	511	624
1	0	0	0	0	511	624
2	0	0	0	0	511	624
3	0	0	0	0	512	624
4	0	0	0	0	512	624
5	0	0	0	0	512	624
6	0	0	0	0	512	623
7	0	0	0	0	512	624
8	0	0	0	0	512	624
9	0	0	0	0	512	624
10	0	0	0	0	513	623
11	0	0	0	0	513	624
12	0	0	0	0	513	623
13	0	0	0	0	513	623
14	0	0	0	0	513	623
15	0	0	0	0	513	623
0	0	0	0	0	512	622
1	0	0	0	0	513	623
2	0	0	0	0	513	623
3	0	0	0	0	514	624
4	0	0	0	0	513	623
5	0	0	0	0	513	623
6	0	0	0	0	513	623
7	0	0	0	0	512	623
8	0	0	0	0	512	623
9	0	0	0	0	512	623
10	0	0	0	0	512	622
11	0	0	0	0	512	623
12	0	0	0	0	511	622
13	0	0	0	0	512	623
14	0	0	0	0	512	623
15	0	0	0	0	512	623
0	0	0	0	0	513	623
1	0	0	0	0	513	623
2	0	0	0	0	513	623
3	0	0	0	0	513	623
4	0	0	0	0	513	623
5	0	0	0	0	513	623
6	0	0	0	0	513	623
7	0	0	0	0	513	623
8	0	0	0	0	512	622
9	0	0	0	0	512	623
10	0	0	0	0	512	623
11	0	0	0	0	512	623
12	0	0	0	0	511	622
13	0	0	0	0	511	622
14	0	0	0	0	511	622
15	0	0	0	0	511	623
0	0	0	0	0	512	622
1	0	0	0	0	512	622
2	0	0	0	0	512	622
3	0	0	0	0	512	622
4	0	0	0	0	512	621
5	0	0	0	0	513	621
6	0	0	0	0	513	621
7	0	0	0	0	513	621
8	0	0	0	0	512	620
9	0	0	0	0	512	621
10	0	0	0	0	512	620
11	0	0	0	0	513	621
12	0	0	0	0	513	620
13	0	0	0	0	513	620
14	0	0	0	0	512	620
15	0	0	0	0	512	620
0	0	0	0	0	512	620
1	0	0	0	0	512	620
2	0	0	0	0	512	620
3	0	0	0	0	513	622
4	0	0	0	0	513	620
5	0	0	0	0	513	620
6	0	0	0	0	512	620
7	0	0	0	0	512	620
8	0	0	0	0	512	620
9	0	0	0	0	512	620
10	0	0	0	0	512	620
11	0	0	0	0	512	621
12	0	0	0	0	512	620
13	0	0	0	0	512	621
14	0	0	0	0	511	620
15	0	0	0	0	511	621
0	0	0	0	0	511	620
1	0	0	0	0	512	620
2	0	0	0	0	512	621
3	0	0	0	0	512	622
4	0	0	0	0	512	621
5	0	0	0	0	512	621
6	0	0	0	0	512	621
7	0	0	0	0	512	622
8	0	0	0	0	512	621
9	0	0	0	0	512	622
10	0	0	0	0	513	621
11	0	0	0	0	512	622
12	0	0	0	0	512	622
13	0	0	0	0	512	622
14	0	0	0	0	512	621
15	0	0	0	0	512	622
0	0	0	0	0	512	622
1	0	0	0	0	512	622
2	0	0	0	0	512	622
3	0	0	0	0	512	622
4	0	0	0	0	512	621
5	0	0	0	0	512	621
6	0	0	0	0	512	622
7	0	0	0	0	512	622
8	0	0	0	0	512	622
9	0	0	0	0	513	622
10	0	0	0	0	512	622
11	0	0	0	0	513	623
12	0	0	0	0	513	622
13	0	0	0	0	514	622
14	0	0	0	0	514	622
15	0	0	0	0	514	621
0	0	0	0	0	514	622
1	0	0	0	0	514	622
2	0	0	0	0	514	622
3	0	0	0	0	515	623
4	0	0	0	0	514	622
5	0	0	0	0	514	622
6	0	0	0	0	514	622
7	0	0	0	0	514	622
8	0	0	0	0	515	623
9	0	0	0	0	514	622
10	0	0	0	0	514	622
11	0	0	0	0	514	623
12	0	0	0	0	515	622
13	0	0	0	0	514	622
14	0	0	0	0	514	622
15	0	0	0	0	515	622
0	0	0	0	0	514	622
1	0	0	0	0	514	622
2	0	0	0	0	513	622
3	0	0	0	0	513	623
4	0	0	0	0	514	622
5	0	0	0	0	515	622
6	0	0	0	0	515	622
7	0	0	0	0	515	622
8	0	0	0	0	515	622
9	0	0	0	0	516	622
10	0	0	0	0	516	622
11	0	0	0	0	517	623
12	0	0	0	0	517	622
13	0	0	0	0	516	622
14	0	0	0	0	516	622
15	0	0	0	0	516	622
0	0	0	0	0	517	622
1	0	0	0	0	517	622
2	0	0	0	0	517	622
3	0	0	0	0	517	623
4	0	0	0	0	518	622
5	0	0	0	0	518	623
6	0	0	0	0	518	622
7	0	0	0	0	518	623
8	0	0	0	0	519	623
9	0	0	0	0	519	622
10	0	0	0	0	519	622
11	0	0	0	0	519	623
12	0	0	0	0	519	622
13	0	0	0	0	519	623
14	0	0	0	0	519	622
15	0	0	0	0	519	623
0	0	0	0	0	519	622
1	0	0	0	0	519	622
2	0	0	0	0	519	623
3	0	0	0	0	519	624
4	0	0	0	0	519	623
5	0	0	0	0	519	623
6	0	0	0	0	519	623
7	0	0	0	0	519	623
8	0	0	0	0	519	623
9	0	0	0	0	519	623
10	0	0	0	0	519	623
11	0	0	0	0	518	624
12	0	0	0	0	519	623
13	0	0	0	0	518	623
14	0	0	0	0	518	623
15	0	0	0	0	518	623
0	0	0	0	0	517	623
1	0	0	0	0	518	624
2	0	0	0	0	518	623
3	0	0	0	0	518	624
4	0	0	0	0	518	623
5	0	0	0	0	518	623
6	0	0	0	0	519	624
7	0	0	0	0	519	623
8	0	0	0	0	519	623
9	0	0	0	0	519	623
10	0	0	0	0	519	624
11	0	0	0	0	520	624
12	0	0	0	0	520	623
13	0	0	0	0	521	623
14	0	0	0	0	521	623
15	0	0	0	0	521	623
0	0	0	0	0	521	624
1	0	0	0	0	521	623
2	0	0	0	0	521	624
3	0	0	0	0	522	624
4	0	0	0	0	521	624
5	0	0	0	0	522	623
6	0	0	0	0	522	623
7	0	0	0	0	522	622
8	0	0	0	0	522	623
9	0	0	0	0	522	623
10	0	0	0	0	522	623
11	0	0	0	0	521	624
12	0	0	0	0	521	623
13	0	0	0	0	521	623
14	0	0	0	0	521	623
15	0	0	0	0	521	623
0	0	0	0	0	521	623
1	0	0	0	0	521	624
2	0	0	0	0	521	622
3	0	0	0	0	521	624
4	0	0	0	0	521	623
5	0	0	0	0	521	623
6	0	0	0	0	520	623
7	0	0	0	0	521	623
8	0	0	0	0	521	624
9	0	0	0	0	521	623
10	0	0	0	0	521	623
11	0	0	0	0	521	624
12	0	0	0	0	521	624
13	0	0	0	0	520	623
14	0	0	0	0	520	623
15	0	0	0	0	519	624
0	0	0	0	0	519	623
1	0	0	0	0	520	623
2	0	0	0	0	520	623
3	0	0	0	0	520	624
4	0	0	0	0	520	623
5	0	0	0	0	520	623
6	0	0	0	0	520	623
7	0	0	0	0	520	622
8	0	0	0	0	521	623
9	0	0	0	0	521	622
10	0	0	0	0	520	623
11	0	0	0	0	520	623
12	0	0	0	0	520	622
13	0	0	0	0	519	622
14	0	0	0	0	519	622
15	0	0	0	0	519	622
0	0	0	0	0	519	622
1	0	0	0	0	519	622
2	0	0	0	0	519	622
3	0	0	0	0	519	622
4	0	0	0	0	519	622
5	0	0	0	0	519	621
6	0	0	0	0	519	622
7	0	0	0	0	519	622
8	0	0	0	0	519	622
9	0	0	0	0	519	621
10	0	0	0	0	518	621
11	0	0	0	0	518	622
12	0	0	0	0	518	621
13	0	0	0	0	518	621
14	0	0	0	0	519	622
15	0	0	0	0	518	621
0	0	0	0	0	518	621
1	0	0	0	0	518	622
2	0	0	0	0	518	621
3	0	0	0	0	518	622
4	0	0	0	0	518	621
5	0	0	0	0	517	622
6	0	0	0	0	518	622
7	0	0	0	0	518	621
8	0	0	0	0	517	622
9	0	0	0	0	518	622
10	0	0	0	0	516	621
11	0	0	0	0	516	622
12	0	0	0	0	516	622
13	0	0	0	0	515	621
14	0	0	0	0	516	622
15	0	0	0	0	516	622
0	0	0	0	0	516	621
1	0	0	0	0	517	622
2	0	0	0	0	517	622
3	0	0	0	0	517	623
4	0	0	0	0	516	622
5	0	0	0	0	517	622
6	0	0	0	0	516	622
7	0	0	0	0	516	622
8	0	0	0	0	515	623
9	0	0	0	0	515	622
10	0	0	0	0	516	622
11	0	0	0	0	515	623
12	0	0	0	0	516	623
13	0	0	0	0	516	624
14	0	0	0	0	516	623
15	0	0	0	0	516	624
0	0	0	0	0	516	624
1	0	0	0	0	516	624
2	0	0	0	0	516	624
3	0	0	0	0	516	625
4	0	0	0	0	515	624
5	0	0	0	0	515	624
6	0	0	0	0	515	625
7	0	0	0	0	515	624
8	0	0	0	0	515	625
9	0	0	0	0	515	625
10	0	0	0	0	515	625
11	0	0	0	0	515	626
12	0	0	0	0	515	625
13	0	0	0	0	515	625
14	0	0	0	0	515	626
15	0	0	0	0	515	626
0	0	0	0	0	514	625
1	0	0	0	0	514	625
2	0	0	0	0	513	625
3	0	0	0	0	513	626
4	0	0	0	0	513	625
5	0	0	0	0	513	626
6	0	0	0	0	513	626
7	0	0	0	0	512	625
8	0	0	0	0	512	626
9	0	0	0	0	512	626
10	0	0	0	0	512	625
11	0	0	0	0	512	627
12	0	0	0	0	512	625
13	0	0	0	0	512	626
14	0	0	0	0	512	626
15	0	0	0	0	512	625
0	0	0	0	0	512	625
1	0	0	0	0	513	625
2	0	0	0	0	512	625
3	0	0	0	0	512	627
4	0	0	0	0	512	625
5	0	0	0	0	512	626
6	0	0	0	0	512	625
7	0	0	0	0	512	626
8	0	0	0	0	512	625
9	0	0	0	0	512	624
10	0	0	0	0	512	625
11	0	0	0	0	512	626
12	0	0	0	0	512	625
13	0	0	0	0	512	625
14	0	0	0	0	512	625
15	0	0	0	0	512	624
0	0	0	0	0	512	625
1	0	0	0	0	512	624
2	0	0	0	0	512	624
3	0	0	0	0	512	625
4	0	0	0	0	512	624
5	0	0	0	0	512	625
6	0	0	0	0	512	625
7	0	0	0	0	512	625
8	0	0	0	0	513	625
9	0	0	0	0	512	625
10	0	0	0	0	513	624
11	0	0	0	0	513	625
12	0	0	0	0	512	624
13	0	0	0	0	512	624
14	0	0	0	0	512	624
15	0	0	0	0	512	624
0	0	0	0	0	513	624
1	0	0	0	0	513	624
2	0	0	0	0	513	624
3	0	0	0	0	513	625
4	0	0	0	0	514	624
5	0	0	0	0	514	624
6	0	0	0	0	514	624
7	0	0	0	0	514	624
8	0	0	0	0	514	624
9	0	0	0	0	514	624
10	0	0	0	0	515	624
11	0	0	0	0	515	624
12	0	0	0	0	514	624
13	0	0	0	0	514	624
14	0	0	0	0	513	624
15	0	0	0	0	514	624
0	0	0	0	0	514	624
1	0	0	0	0	514	623
2	0	0	0	0	514	624
3	0	0	0	0	513	625
4	0	0	0	0	513	624
5	0	0	0	0	512	624
6	0	0	0	0	512	624
7	0	0	0	0	511	624
8	0	0	0	0	511	624
9	0	0	0	0	511	624
10	0	0	0	0	511	623
11	0	0	0	0	511	624
12	0	0	0	0	512	624
13	0	0	0	0	512	623
14	0	0	0	0	512	624
15	0	0	0	0	513	623
0	0	0	0	0	512	624
1	0	0	0	0	513	623
2	0	0	0	0	513	623
3	0	0	0	0	513	624
4	0	0	0	0	513	624
5	0	0	0	0	514	623
6	0	0	0	0	514	623
7	0	0	0	0	514	623
8	0	0	0	0	514	623
9	0	0	0	0	514	622
10	0	0	0	0	514	622
11	0	0	0	0	514	624
12	0	0	0	0	514	623
13	0	0	0	0	514	623
14	0	0	0	0	514	622
15	0	0	0	0	513	623
0	0	0	0	0	513	623
1	0	0	0	0	512	623
2	0	0	0	0	512	623
3	0	0	0	0	512	624
4	0	0	0	0	511	623
5	0	0	0	0	512	623
6	0	0	0	0	512	623
7	0	0	0	0	512	623
8	0	0	0	0	511	623
9	0	0	0	0	512	624
10	0	0	0	0	512	622
11	0	0	0	0	512	623
12	0	0	0	0	512	623
13	0	0	0	0	512	623
14	0	0	0	0	512	623
15	0	0	0	0	512	623
0	0	0	0	0	512	622
1	0	0	0	0	512	623
2	0	0	0	0	512	622
3	0	0	0	0	512	623
4	0	0	0	0	511	622
5	0	0	0	0	511	622
6	0	0	0	0	510	622
7	0	0	0	0	510	622
8	0	0	0	0	510	622
9	0	0	0	0	510	622
10	0	0	0	0	511	622
11	0	0	0	0	511	623
12	0	0	0	0	511	622
13	0	0	0	0	511	622
14	0	0	0	0	511	623
15	0	0	0	0	512	622
0	0	0	0	0	512	623
1	0	0	0	0	512	622
2	0	0	0	0	512	622
3	0	0	0	0	512	623
4	0	0	0	0	511	621
5	0	0	0	0	511	622
6	0	0	0	0	510	622
7	0	0	0	0	510	622
8	0	0	0	0	509	622
9	0	0	0	0	509	621
10	0	0	0	0	509	622
11	0	0	0	0	509	622
12	0	0	0	0	509	622
13	0	0	0	0	509	621
14	0	0	0	0	508	622
15	0	0	0	0	508	622
0	0	0	0	0	508	621
1	0	0	0	0	508	621
2	0	0	0	0	508	622
3	0	0	0	0	508	622
4	0	0	0	0	509	622
5	0	0	0	0	510	622
6	0	0	0	0	510	622
7	0	0	0	0	512	622
8	0	0	0	0	512	621
9	0	0	0	0	512	622
10	0	0	0	0	512	621
11	0	0	0	0	512	622
12	0	0	0	0	512	621
13	0	0	0	0	512	621
14	0	0	0	0	512	621
15	0	0	0	0	512	621
0	0	0	0	0	512	622
1	0	0	0	0	512	622
2	0	0	0	0	512	621
3	0	0	0	0	512	623
4	0	0	0	0	512	622
5	0	0	0	0	513	623
6	0	0	0	0	513	623
7	0	0	0	0	513	622
8	0	0	0	0	513	622
9	0	0	0	0	513	622
10	0	0	0	0	513	621
11	0	0	0	0	513	622
12	0	0	0	0	512	622
13	0	0	0	0	513	622
14	0	0	0	0	513	622
15	0	0	0	0	514	622
0	0	0	0	0	513	622
1	0	0	0	0	513	622
2	0	0	0	0	513	622
3	0	0	0	0	514	623
4	0	0	0	0	514	622
5	0	0	0	0	515	622
6	0	0	0	0	515	622
7	0	0	0	0	515	621
8	0	0	0	0	515	622
9	0	0	0	0	515	621
10	0	0	0	0	515	621
11	0	0	0	0	516	621
12	0	0	0	0	515	622
13	0	0	0	0	515	622
14	0	0	0	0	515	622
15	0	0	0	0	515	621
0	0	0	0	0	514	621
1	0	0	0	0	515	622
2	0	0	0	0	515	621
3	0	0	0	0	515	622
4	0	0	0	0	514	621
5	0	0	0	0	515	621
6	0	0	0	0	514	622
7	0	0	0	0	513	621
8	0	0	0	0	513	620
9	0	0	0	0	514	621
10	0	0	0	0	514	621
11	0	0	0	0	515	622
12	0	0	0	0	515	621
13	0	0	0	0	515	621
14	0	0	0	0	515	622
15	0	0	0	0	515	622
0	0	0	0	0	515	621
1	0	0	0	0	515	621
2	0	0	0	0	515	621
3	0	0	0	0	514	622
4	0	0	0	0	513	621
5	0	0	0	0	513	622
6	0	0	0	0	513	621
7	0	0	0	0	512	621
8	0	0	0	0	512	621
9	0	0	0	0	512	620
10	0	0	0	0	512	621
11	0	0	0	0	512	622
12	0	0	0	0	512	621
13	0	0	0	0	512	621
14	0	0	0	0	512	621
15	0	0	0	0	512	622
0	0	0	0	0	513	622
1	0	0	0	0	514	622
2	0	0	0	0	514	622
3	0	0	0	0	514	622
4	0	0	0	0	514	622
5	0	0	0	0	515	622
6	0	0	0	0	515	622
7	0	0	0	0	514	622
8	0	0	0	0	514	622
9	0	0	0	0	514	623
10	0	0	0	0	514	622
11	0	0	0	0	515	623
12	0	0	0	0	514	622
13	0	0	0	0	514	622
14	0	0	0	0	513	622
15	0	0	0	0	513	622
0	0	0	0	0	514	622
1	0	0	0	0	513	622
2	0	0	0	0	513	622
3	0	0	0	0	513	623
4	0	0	0	0	513	623
5	0	0	0	0	513	623
6	0	0	0	0	513	622
7	0	0	0	0	513	622
8	0	0	0	0	514	622
9	0	0	0	0	514	623
10	0	0	0	0	514	623
11	0	0	0	0	514	624
12	0	0	0	0	514	623
13	0	0	0	0	514	624
14	0	0	0	0	514	623
15	0	0	0	0	513	623
0	0	0	0	0	512	623
1	0	0	0	0	510	623
2	0	0	0	0	508	623
3	0	0	0	0	504	623
4	0	0	0	0	500	623
5	0	0	0	0	496	623
6	0	0	0	0	490	623
7	0	0	0	0	485	623
8	0	0	0	0	479	623
9	0	0	0	0	475	623
10	0	0	0	0	471	623
11	0	0	0	0	468	623
12	0	0	0	0	467	624
13	0	0	0	0	467	624
14	0	0	0	0	470	624
15	0	0	0	0	474	624
0	0	0	0	0	479	624
1	0	0	0	0	484	623
2	0	0	0	0	492	623
3	0	0	0	0	500	624
4	0	0	0	0	508	624
5	0	0	0	0	515	624
6	0	0	0	0	522	624
7	0	0	0	0	528	624
8	0	0	0	0	535	624
9	0	0	0	0	543	624
10	0	0	0	0	549	624
11	0	0	0	0	555	624
12	0	0	0	0	560	624
13	0	0	0	0	566	624
14	0	0	0	0	572	624
15	0	0	0	0	581	624
0	0	0	0	0	593	624
1	0	0	0	0	607	624
2	0	0	0	0	622	624
3	0	0	0	0	641	624
4	0	0	0	0	662	624
5	0	0	0	0	687	623
6	0	0	0	0	709	623
7	0	0	0	0	732	623
8	0	0	0	0	756	623
9	0	0	0	0	776	623
10	0	0	0	0	794	623
11	0	0	0	0	809	624
12	0	0	0	0	824	623
13	0	0	0	0	835	623
14	0	0	0	0	840	623
15	0	0	0	0	842	623
0	0	0	0	0	843	623
1	0	0	0	0	840	623
2	0	0	0	0	825	623
3	0	0	0	0	792	623
4	0	0	0	0	745	623
5	0	0	0	0	695	623
6	0	0	0	0	651	623
7	0	0	0	0	617	623
8	0	0	0	0	596	623
9	0	0	0	0	583	623
10	0	0	0	0	572	623
11	0	0	0	0	565	623
12	0	0	0	0	558	623
13	0	0	0	0	553	623
14	0	0	0	0	549	624
15	0	0	0	0	545	623
0	0	0	0	0	541	623
1	0	0	0	0	538	624
2	0	0	0	0	534	623
3	0	0	0	0	530	624
4	0	0	0	0	526	624
5	0	0	0	0	520	624
6	0	0	0	0	514	623
7	0	0	0	0	507	623
8	0	0	0	0	500	623
9	0	0	0	0	494	623
10	0	0	0	0	487	624
11	0	0	0	0	481	624
12	0	0	0	0	477	623
13	0	0	0	0	472	623
14	0	0	0	0	468	623
15	0	0	0	0	464	624
0	0	0	0	0	462	623
1	0	0	0	0	458	623
2	0	0	0	0	456	624
3	0	0	0	0	454	625
4	0	0	0	0	451	623
5	0	0	0	0	450	623
6	0	0	0	0	448	623
7	0	0	0	0	448	624
8	0	0	0	0	447	623
9	0	0	0	0	447	623
10	0	0	0	0	447	624
11	0	0	0	0	447	624
12	0	0	0	0	447	623
13	0	0	0	0	448	622
14	0	0	0	0	448	623
15	0	0	0	0	448	622
0	0	0	0	0	448	622
1	0	0	0	0	448	622
2	0	0	0	0	448	621
3	0	0	0	0	448	622
4	0	0	0	0	448	622
5	0	0	0	0	449	622
6	0	0	0	0	450	622
7	0	0	0	0	450	621
8	0	0	0	0	450	622
9	0	0	0	0	450	622
10	0	0	0	0	451	622
11	0	0	0	0	453	624
12	0	0	0	0	453	623
13	0	0	0	0	454	623
14	0	0	0	0	455	624
15	0	0	0	0	456	624
0	0	0	0	0	457	623
1	0	0	0	0	458	624
2	0	0	0	0	458	624
3	0	0	0	0	460	625
4	0	0	0	0	460	624
5	0	0	0	0	462	624
6	0	0	0	0	463	623
7	0	0	0	0	464	623
8	0	0	0	0	464	623
9	0	0	0	0	465	624
10	0	0	0	0	466	623
11	0	0	0	0	465	624
12	0	0	0	0	466	624
13	0	0	0	0	467	624
14	0	0	0	0	467	624
15	0	0	0	0	468	625
0	0	0	0	0	469	624
1	0	0	0	0	470	625
2	0	0	0	0	472	624
3	0	0	0	0	473	625
4	0	0	0	0	473	625
5	0	0	0	0	474	625
6	0	0	0	0	475	624
7	0	0	0	0	475	625
8	0	0	0	0	475	624
9	0	0	0	0	475	625
10	0	0	0	0	475	624
11	0	0	0	0	476	625
12	0	0	0	0	477	624
13	0	0	0	0	479	625
14	0	0	0	0	480	624
15	0	0	0	0	480	624
0	0	0	0	0	481	625
1	0	0	0	0	482	624
2	0	0	0	0	482	624
3	0	0	0	0	483	625
4	0	0	0	0	482	624
5	0	0	0	0	483	624
6	0	0	0	0	482	624
7	0	0	0	0	483	624
8	0	0	0	0	483	624
9	0	0	0	0	482	623
10	0	0	0	0	483	624
11	0	0	0	0	484	624
12	0	0	0	0	485	624
13	0	0	0	0	486	623
14	0	0	0	0	486	623
15	0	0	0	0	486	623
0	0	0	0	0	487	623
1	0	0	0	0	487	622
2	0	0	0	0	488	623
3	0	0	0	0	488	624
4	0	0	0	0	489	623
5	0	0	0	0	489	623
6	0	0	0	0	490	623
7	0	0	0	0	491	623
8	0	0	0	0	491	622
9	0	0	0	0	491	622
10	0	0	0	0	491	622
11	0	0	0	0	492	622
12	0	0	0	0	492	622
13	0	0	0	0	493	622
14	0	0	0	0	493	622
15	0	0	0	0	494	622
0	0	0	0	0	495	622
1	0	0	0	0	495	622
2	0	0	0	0	495	621
3	0	0	0	0	496	622
4	0	0	0	0	496	621
5	0	0	0	0	496	620
6	0	0	0	0	496	622
7	0	0	0	0	497	620
8	0	0	0	0	497	621
9	0	0	0	0	497	620
10	0	0	0	0	497	621
11	0	0	0	0	498	623
12	0	0	0	0	498	621
13	0	0	0	0	498	622
14	0	0	0	0	499	621
15	0	0	0	0	498	621
0	0	0	0	0	499	622
1	0	0	0	0	499	621
2	0	0	0	0	499	622
3	0	0	0	0	499	622
4	0	0	0	0	499	621
5	0	0	0	0	499	621
6	0	0	0	0	500	622
7	0	0	0	0	500	622
8	0	0	0	0	500	622
9	0	0	0	0	501	622
10	0	0	0	0	501	622
11	0	0	0	0	501	623
12	0	0	0	0	502	622
13	0	0	0	0	502	622
14	0	0	0	0	502	622
15	0	0	0	0	503	623
0	0	0	0	0	503	622
1	0	0	0	0	504	623
2	0	0	0	0	504	623
3	0	0	0	0	505	624
4	0	0	0	0	506	623
5	0	0	0	0	506	623
6	0	0	0	0	507	623
7	0	0	0	0	508	623
8	0	0	0	0	508	623
9	0	0	0	0	510	623
10	0	0	0	0	511	623
11	0	0	0	0	511	624
12	0	0	0	0	511	623
13	0	0	0	0	512	623
14	0	0	0	0	512	624
15	0	0	0	0	513	623
0	0	0	0	0	513	624
1	0	0	0	0	513	623
2	0	0	0	0	513	623
3	0	0	0	0	513	624
4	0	0	0	0	513	623
5	0	0	0	0	514	624
6	0	0	0	0	515	623
7	0	0	0	0	516	623
8	0	0	0	0	517	624
9	0	0	0	0	517	624
10	0	0	0	0	518	623
11	0	0	0	0	519	624
12	0	0	0	0	519	623
13	0	0	0	0	521	624
14	0	0	0	0	521	623
15	0	0	0	0	521	623
0	0	0	0	0	521	623
1	0	0	0	0	522	623
2	0	0	0	0	522	623
3	0	0	0	0	523	624
4	0	0	0	0	524	623
5	0	0	0	0	524	623
6	0	0	0	0	524	622
7	0	0	0	0	525	623
8	0	0	0	0	526	622
9	0	0	0	0	526	623
10	0	0	0	0	527	622
11	0	0	0	0	527	623
12	0	0	0	0	529	622
13	0	0	0	0	529	622
14	0	0	0	0	529	622
15	0	0	0	0	531	622
0	0	0	0	0	532	622
1	0	0	0	0	532	622
2	0	0	0	0	534	622
3	0	0	0	0	535	623
4	0	0	0	0	535	622
5	0	0	0	0	536	622
6	0	0	0	0	536	622
7	0	0	0	0	537	622
8	0	0	0	0	538	621
9	0	0	0	0	539	620
10	0	0	0	0	539	621
11	0	0	0	0	540	622
12	0	0	0	0	540	622
13	0	0	0	0	541	621
14	0	0	0	0	541	621
15	0	0	0	0	542	621
0	0	0	0	0	543	621
1	0	0	0	0	543	621
2	0	0	0	0	544	621
3	0	0	0	0	543	621
4	0	0	0	0	543	620
5	0	0	0	0	542	620
6	0	0	0	0	542	620
7	0	0	0	0	542	620
8	0	0	0	0	542	620
9	0	0	0	0	542	620
10	0	0	0	0	542	620
11	0	0	0	0	541	621
12	0	0	0	0	541	620
13	0	0	0	0	541	620
14	0	0	0	0	540	621
15	0	0	0	0	540	620
0	0	0	0	0	539	620
1	0	0	0	0	538	621
2	0	0	0	0	536	621
3	0	0	0	0	535	621
4	0	0	0	0	535	620
5	0	0	0	0	534	621
6	0	0	0	0	534	620
7	0	0	0	0	533	620
8	0	0	0	0	532	620
9	0	0	0	0	530	621
10	0	0	0	0	529	620
11	0	0	0	0	527	622
12	0	0	0	0	526	621
13	0	0	0	0	525	621
14	0	0	0	0	524	621
15	0	0	0	0	522	621
0	0	0	0	0	521	621
1	0	0	0	0	519	622
2	0	0	0	0	517	622
3	0	0	0	0	516	623
4	0	0	0	0	514	622
5	0	0	0	0	513	621
6	0	0	0	0	511	621
7	0	0	0	0	511	622
8	0	0	0	0	510	621
9	0	0	0	0	509	622
10	0	0	0	0	508	622
11	0	0	0	0	507	623
12	0	0	0	0	505	622
13	0	0	0	0	505	622
14	0	0	0	0	504	622
15	0	0	0	0	503	622
0	0	0	0	0	502	622
1	0	0	0	0	501	623
2	0	0	0	0	501	622
3	0	0	0	0	499	623
4	0	0	0	0	499	622
5	0	0	0	0	498	622
6	0	0	0	0	497	622
7	0	0	0	0	497	623
8	0	0	0	0	497	622
9	0	0	0	0	497	623
10	0	0	0	0	497	623
11	0	0	0	0	498	623
12	0	0	0	0	497	622
13	0	0	0	0	497	622
14	0	0	0	0	497	622
15	0	0	0	0	496	622
0	0	0	0	0	496	622
1	0	0	0	0	496	623
2	0	0	0	0	497	623
3	0	0	0	0	497	624
4	0	0	0	0	497	623
5	0	0	0	0	497	623
6	0	0	0	0	497	623
7	0	0	0	0	497	623
8	0	0	0	0	497	623
9	0	0	0	0	498	623
10	0	0	0	0	497	623
11	0	0	0	0	498	624
12	0	0	0	0	498	623
13	0	0	0	0	498	624
14	0	0	0	0	499	623
15	0	0	0	0	499	623
0	0	0	0	0	499	624
1	0	0	0	0	499	623
2	0	0	0	0	499	623
3	0	0	0	0	499	624
4	0	0	0	0	499	624
5	0	0	0	0	500	623
6	0	0	0	0	500	623
7	0	0	0	0	500	624
8	0	0	0	0	500	624
9	0	0	0	0	500	624
10	0	0	0	0	500	625
11	0	0	0	0	500	625
12	0	0	0	0	500	624
13	0	0	0	0	499	624
14	0	0	0	0	499	624
15	0	0	0	0	500	624
0	0	0	0	0	500	624
1	0	0	0	0	500	624
2	0	0	0	0	500	624
3	0	0	0	0	500	625
4	0	0	0	0	501	625
5	0	0	0	0	500	624
6	0	0	0	0	501	625
7	0	0	0	0	501	624
8	0	0	0	0	501	624
9	0	0	0	0	500	625
10	0	0	0	0	501	625
11	0	0	0	0	501	625
12	0	0	0	0	501	625
13	0	0	0	0	501	624
14	0	0	0	0	501	625
15	0	0	0	0	501	625
0	0	0	0	0	501	625
1	0	0	0	0	501	625
2	0	0	0	0	500	624
3	0	0	0	0	501	626
4	0	0	0	0	500	625
5	0	0	0	0	500	624
6	0	0	0	0	501	625
7	0	0	0	0	502	624
8	0	0	0	0	502	624
9	0	0	0	0	502	625
10	0	0	0	0	502	625
11	0	0	0	0	502	625
12	0	0	0	0	501	624
13	0	0	0	0	502	624
14	0	0	0	0	502	624
15	0	0	0	0	502	624
0	0	0	0	0	501	624
1	0	0	0	0	500	624
2	0	0	0	0	499	624
3	0	0	0	0	499	625
4	0	0	0	0	498	624
5	0	0	0	0	498	624
6	0	0	0	0	498	624
7	0	0	0	0	498	624
8	0	0	0	0	497	624
9	0	0	0	0	497	624
10	0	0	0	0	498	623
11	0	0	0	0	498	624
12	0	0	0	0	499	624
13	0	0	0	0	499	624
14	0	0	0	0	499	623
15	0	0	0	0	500	623
0	0	0	0	0	500	623
1	0	0	0	0	500	623
2	0	0	0	0	500	623
3	0	0	0	0	500	624
4	0	0	0	0	500	623
5	0	0	0	0	500	624
6	0	0	0	0	500	623
7	0	0	0	0	499	623
8	0	0	0	0	499	623
9	0	0	0	0	499	623
10	0	0	0	0	499	623
11	0	0	0	0	499	624
12	0	0	0	0	499	623
13	0	0	0	0	499	623
14	0	0	0	0	498	623
15	0	0	0	0	498	622
0	0	0	0	0	497	622
1	0	0	0	0	497	623
2	0	0	0	0	498	623
3	0	0	0	0	498	623
4	0	0	0	0	498	623
5	0	0	0	0	499	623
6	0	0	0	0	498	623
7	0	0	0	0	499	623
8	0	0	0	0	498	622
9	0	0	0	0	498	622
10	0	0	0	0	498	623
11	0	0	0	0	498	623
12	0	0	0	0	499	622
13	0	0	0	0	499	622
14	0	0	0	0	499	622
15	0	0	0	0	499	622
0	0	0	0	0	499	622
1	0	0	0	0	500	622
2	0	0	0	0	500	622
3	0	0	0	0	501	622
4	0	0	0	0	501	622
5	0	0	0	0	501	622
6	0	0	0	0	502	622
7	0	0	0	0	502	622
8	0	0	0	0	502	622
9	0	0	0	0	502	622
10	0	0	0	0	502	622
11	0	0	0	0	502	622
12	0	0	0	0	501	622
13	0	0	0	0	500	621
14	0	0	0	0	500	622
15	0	0	0	0	500	622
0	0	0	0	0	501	621
1	0	0	0	0	501	622
2	0	0	0	0	501	622
3	0	0	0	0	501	623
4	0	0	0	0	501	621
5	0	0	0	0	502	622
6	0	0	0	0	502	622
7	0	0	0	0	502	621
8	0	0	0	0	503	622
9	0	0	0	0	502	622
10	0	0	0	0	503	621
11	0	0	0	0	502	622
12	0	0	0	0	502	620
13	0	0	0	0	502	621
14	0	0	0	0	502	621
15	0	0	0	0	502	621
0	0	0	0	0	502	621
1	0	0	0	0	501	621
2	0	0	0	0	502	621
3	0	0	0	0	502	622
4	0	0	0	0	502	620
5	0	0	0	0	502	621
6	0	0	0	0	502	620
7	0	0	0	0	503	621
8	0	0	0	0	502	621
9	0	0	0	0	503	620
10	0	0	0	0	503	620
11	0	0	0	0	502	622
12	0	0	0	0	502	621
13	0	0	0	0	502	621
14	0	0	0	0	502	622
15	0	0	0	0	503	621
0	0	0	0	0	503	621
1	0	0	0	0	503	621
2	0	0	0	0	503	620
3	0	0	0	0	504	622
4	0	0	0	0	504	621
5	0	0	0	0	504	620
6	0	0	0	0	505	621
7	0	0	0	0	505	621
8	0	0	0	0	505	621
9	0	0	0	0	505	621
10	0	0	0	0	505	621
11	0	0	0	0	505	622
12	0	0	0	0	504	622
13	0	0	0	0	504	621
14	0	0	0	0	504	621
15	0	0	0	0	505	622
0	0	0	0	0	505	622
1	0	0	0	0	505	622
2	0	0	0	0	505	622
3	0	0	0	0	505	622
4	0	0	0	0	506	621
5	0	0	0	0	506	622
6	0	0	0	0	506	622
7	0	0	0	0	505	622
8	0	0	0	0	504	622
9	0	0	0	0	504	622
10	0	0	0	0	505	622
11	0	0	0	0	504	623
12	0	0	0	0	504	622
13	0	0	0	0	505	622
14	0	0	0	0	505	622
15	0	0	0	0	505	622
0	0	0	0	0	504	622
1	0	0	0	0	504	623
2	0	0	0	0	504	622
3	0	0	0	0	504	623
4	0	0	0	0	504	623
5	0	0	0	0	504	622
6	0	0	0	0	504	623
7	0	0	0	0	504	623
8	0	0	0	0	504	622
9	0	0	0	0	504	623
10	0	0	0	0	504	623
11	0	0	0	0	503	624
12	0	0	0	0	503	622
13	0	0	0	0	503	622
14	0	0	0	0	503	622
15	0	0	0	0	502	622
0	0	0	0	0	503	622
1	0	0	0	0	503	622
2	0	0	0	0	503	622
3	0	0	0	0	504	623
4	0	0	0	0	503	623
5	0	0	0	0	504	623
6	0	0	0	0	504	622
7	0	0	0	0	504	622
8	0	0	0	0	504	622
9	0	0	0	0	504	622
10	0	0	0	0	504	622
11	0	0	0	0	503	623
12	0	0	0	0	503	622
13	0	0	0	0	503	622
14	0	0	0	0	503	622
15	0	0	0	0	504	622
0	0	0	0	0	503	622
1	0	0	0	0	503	622
2	0	0	0	0	503	622
3	0	0	0	0	504	623
4	0	0	0	0	504	622
5	0	0	0	0	504	622
6	0	0	0	0	504	622
7	0	0	0	0	505	622
8	0	0	0	0	504	622
9	0	0	0	0	504	622
10	0	0	0	0	504	622
11	0	0	0	0	503	622
12	0	0	0	0	504	622
13	0	0	0	0	504	622
14	0	0	0	0	504	622
15	0	0	0	0	504	623
0	0	0	0	0	504	622
1	0	0	0	0	505	622
2	0	0	0	0	505	622
3	0	0	0	0	505	623
4	0	0	0	0	507	622
5	0	0	0	0	506	622
6	0	0	0	0	506	622
7	0	0	0	0	507	622
8	0	0	0	0	507	622
9	0	0	0	0	508	622
10	0	0	0	0	507	622
11	0	0	0	0	508	623
12	0	0	0	0	508	622
13	0	0	0	0	508	622
14	0	0	0	0	507	622
15	0	0	0	0	507	622
0	0	0	0	0	506	622
1	0	0	0	0	507	623
2	0	0	0	0	507	622
3	0	0	0	0	507	623
4	0	0	0	0	506	622
5	0	0	0	0	506	623
6	0	0	0	0	507	623
7	0	0	0	0	506	622
8	0	0	0	0	507	622
9	0	0	0	0	507	622
10	0	0	0	0	507	622
11	0	0	0	0	506	623
12	0	0	0	0	506	622
13	0	0	0	0	506	622
14	0	0	0	0	506	623
15	0	0	0	0	507	623
0	0	0	0	0	506	622
1	0	0	0	0	506	623
2	0	0	0	0	507	622
3	0	0	0	0	506	624
4	0	0	0	0	507	623
5	0	0	0	0	507	622
6	0	0	0	0	505	623
7	0	0	0	0	505	623
8	0	0	0	0	505	622
9	0	0	0	0	505	623
10	0	0	0	0	505	622
11	0	0	0	0	504	624
12	0	0	0	0	505	623
13	0	0	0	0	505	623
14	0	0	0	0	505	624
15	0	0	0	0	506	623
0	0	0	0	0	505	623
1	0	0	0	0	505	623
2	0	0	0	0	504	623
3	0	0	0	0	505	624
4	0	0	0	0	505	624
5	0	0	0	0	505	624
6	0	0	0	0	505	623
7	0	0	0	0	505	623
8	0	0	0	0	505	623
9	0	0	0	0	505	624
10	0	0	0	0	506	623
11	0	0	0	0	506	624
12	0	0	0	0	506	623
13	0	0	0	0	506	624
14	0	0	0	0	506	623
15	0	0	0	0	507	623
0	0	0	0	0	507	623
1	0	0	0	0	507	623
2	0	0	0	0	507	623
3	0	0	0	0	507	623
4	0	0	0	0	507	623
5	0	0	0	0	506	622
6	0	0	0	0	506	622
7	0	0	0	0	505	623
8	0	0	0	0	506	623
9	0	0	0	0	506	623
10	0	0	0	0	507	622
11	0	0	0	0	507	623
12	0	0	0	0	508	623
13	0	0	0	0	507	622
14	0	0	0	0	507	622
15	0	0	0	0	507	623
0	0	0	0	0	507	622
1	0	0	0	0	507	622
2	0	0	0	0	507	622
3	0	0	0	0	507	622
4	0	0	0	0	507	622
5	0	0	0	0	507	621
6	0	0	0	0	507	622
7	0	0	0	0	507	622
8	0	0	0	0	507	622
9	0	0	0	0	508	622
10	0	0	0	0	508	621
11	0	0	0	0	508	622
12	0	0	0	0	508	621
13	0	0	0	0	508	622
14	0	0	0	0	508	622
15	0	0	0	0	508	622
0	0	0	0	0	508	622
1	0	0	0	0	508	622
2	0	0	0	0	508	621
3	0	0	0	0	509	622
4	0	0	0	0	509	622
5	0	0	0	0	510	622
6	0	0	0	0	510	622
7	0	0	0	0	510	621
8	0	0	0	0	511	621
9	0	0	0	0	511	621
10	0	0	0	0	510	622
11	0	0	0	0	510	622
12	0	0	0	0	510	621
13	0	0	0	0	510	621
14	0	0	0	0	509	621
15	0	0	0	0	510	621
0	0	0	0	0	510	620
1	0	0	0	0	510	621
2	0	0	0	0	511	621
3	0	0	0	0	511	621
4	0	0	0	0	511	621
5	0	0	0	0	511	621
6	0	0	0	0	511	621
7	0	0	0	0	511	622
8	0	0	0	0	511	621
9	0	0	0	0	511	621
10	0	0	0	0	510	621
11	0	0	0	0	511	622
12	0	0	0	0	511	621
13	0	0	0	0	510	621
14	0	0	0	0	510	621
15	0	0	0	0	510	622
0	0	0	0	0	510	621
1	0	0	0	0	511	621
2	0	0	0	0	510	621
3	0	0	0	0	510	622
4	0	0	0	0	510	621
5	0	0	0	0	510	621
6	0	0	0	0	510	621
7	0	0	0	0	510	621
8	0	0	0	0	510	620
9	0	0	0	0	510	621
10	0	0	0	0	510	622
11	0	0	0	0	510	623
12	0	0	0	0	510	622
13	0	0	0	0	510	622
14	0	0	0	0	510	622
15	0	0	0	0	511	622
0	0	0	0	0	511	621
1	0	0	0	0	511	622
2	0	0	0	0	511	622
3	0	0	0	0	511	622
4	0	0	0	0	511	622
5	0	0	0	0	512	622
6	0	0	0	0	512	622
7	0	0	0	0	512	623
8	0	0	0	0	512	622
9	0	0	0	0	512	622
10	0	0	0	0	512	622
11	0	0	0	0	512	623
12	0	0	0	0	512	623
13	0	0	0	0	513	622
14	0	0	0	0	513	623
15	0	0	0	0	513	622
0	0	0	0	0	514	622
1	0	0	0	0	515	623
2	0	0	0	0	515	623
3	0	0	0	0	515	624
4	0	0	0	0	515	623
5	0	0	0	0	514	623
6	0	0	0	0	514	623
7	0	0	0	0	514	624
8	0	0	0	0	514	623
9	0	0	0	0	514	623
10	0	0	0	0	514	624
11	0	0	0	0	513	624
12	0	0	0	0	513	624
13	0	0	0	0	514	624
14	0	0	0	0	514	624
15	0	0	0	0	515	624
0	0	0	0	0	515	625
1	0	0	0	0	515	624
2	0	0	0	0	516	624
3	0	0	0	0	516	625
4	0	0	0	0	515	624
5	0	0	0	0	515	624
6	0	0	0	0	516	624
7	0	0	0	0	516	624
8	0	0	0	0	516	624
9	0	0	0	0	516	624
10	0	0	0	0	516	624
11	0	0	0	0	516	625
12	0	0	0	0	516	624
13	0	0	0	0	516	624
14	0	0	0	0	516	623
15	0	0	0	0	516	624
0	0	0	0	0	515	624
1	0	0	0	0	515	624
2	0	0	0	0	515	624
3	0	0	0	0	515	624
4	0	0	0	0	516	624
5	0	0	0	0	516	624
6	0	0	0	0	516	624
7	0	0	0	0	515	624
8	0	0	0	0	516	624
9	0	0	0	0	516	624
10	0	0	0	0	517	624
11	0	0	0	0	517	625
12	0	0	0	0	517	624
13	0	0	0	0	518	624
14	0	0	0	0	518	624
15	0	0	0	0	518	624
0	0	0	0	0	518	624
1	0	0	0	0	518	624
2	0	0	0	0	518	623
3	0	0	0	0	518	625
4	0	0	0	0	518	624
5	0	0	0	0	519	624
6	0	0	0	0	519	624
7	0	0	0	0	519	624
8	0	0	0	0	520	624
9	0	0	0	0	519	624
10	0	0	0	0	519	624
11	0	0	0	0	520	625
12	0	0	0	0	520	624
13	0	0	0	0	520	623
14	0	0	0	0	520	624
15	0	0	0	0	520	623
0	0	0	0	0	520	623
1	0	0	0	0	520	624
2	0	0	0	0	521	624
3	0	0	0	0	521	624
4	0	0	0	0	522	624
5	0	0	0	0	523	624
6	0	0	0	0	523	624
7	0	0	0	0	523	624
8	0	0	0	0	523	624
9	0	0	0	0	524	624
10	0	0	0	0	524	623
11	0	0	0	0	524	623
12	0	0	0	0	524	623
13	0	0	0	0	524	623
14	0	0	0	0	524	624
15	0	0	0	0	524	623
0	0	0	0	0	524	623
1	0	0	0	0	525	624
2	0	0	0	0	526	623
3	0	0	0	0	526	624
4	0	0	0	0	526	623
5	0	0	0	0	526	623
6	0	0	0	0	526	623
7	0	0	0	0	526	623
8	0	0	0	0	526	623
9	0	0	0	0	526	623
10	0	0	0	0	526	623
11	0	0	0	0	526	624
12	0	0	0	0	525	623
13	0	0	0	0	525	624
14	0	0	0	0	525	623
15	0	0	0	0	525	623
0	0	0	0	0	525	623
1	0	0	0	0	525	623
2	0	0	0	0	525	623
3	0	0	0	0	525	624
4	0	0	0	0	526	623
5	0	0	0	0	525	623
6	0	0	0	0	524	623
7	0	0	0	0	524	622
8	0	0	0	0	523	623
9	0	0	0	0	522	623
10	0	0	0	0	521	622
11	0	0	0	0	521	623
12	0	0	0	0	521	623
13	0	0	0	0	522	623
14	0	0	0	0	522	622
15	0	0	0	0	522	622
0	0	0	0	0	522	623
1	0	0	0	0	523	623
2	0	0	0	0	523	623
3	0	0	0	0	523	624
4	0	0	0	0	523	623
5	0	0	0	0	523	623
6	0	0	0	0	523	623
7	0	0	0	0	524	623
8	0	0	0	0	524	623
9	0	0	0	0	524	623
10	0	0	0	0	523	623
11	0	0	0	0	523	624
12	0	0	0	0	524	623
13	0	0	0	0	523	622
14	0	0	0	0	523	622
15	0	0	0	0	522	623
0	0	0	0	0	521	622
1	0	0	0	0	521	623
2	0	0	0	0	521	622
3	0	0	0	0	521	623
4	0	0	0	0	521	622
5	0	0	0	0	520	622
6	0	0	0	0	521	623
7	0	0	0	0	521	622
8	0	0	0	0	521	622
9	0	0	0	0	521	622
10	0	0	0	0	521	622
11	0	0	0	0	521	623
12	0	0	0	0	521	622
13	0	0	0	0	521	622
14	0	0	0	0	520	622
15	0	0	0	0	520	622
0	0	0	0	0	519	622
1	0	0	0	0	518	622
2	0	0	0	0	518	622
3	0	0	0	0	517	623
4	0	0	0	0	516	623
5	0	0	0	0	514	623
6	0	0	0	0	512	622
7	0	0	0	0	510	623
8	0	0	0	0	506	622
9	0	0	0	0	502	622
10	0	0	0	0	498	622
11	0	0	0	0	493	622
12	0	0	0	0	489	622
13	0	0	0	0	484	622
14	0	0	0	0	480	623
15	0	0	0	0	476	623
0	0	0	0	0	473	623
1	0	0	0	0	472	623
2	0	0	0	0	472	623
3	0	0	0	0	473	623
4	0	0	0	0	476	623
5	0	0	0	0	480	623
6	0	0	0	0	485	623
7	0	0	0	0	492	623
8	0	0	0	0	499	623
9	0	0	0	0	507	623
10	0	0	0	0	513	623
11	0	0	0	0	519	624
12	0	0	0	0	524	623
13	0	0	0	0	529	622
14	0	0	0	0	535	623
15	0	0	0	0	541	623
0	0	0	0	0	546	623
1	0	0	0	0	551	623
2	0	0	0	0	556	623
3	0	0	0	0	562	623
4	0	0	0	0	570	623
5	0	0	0	0	582	624
6	0	0	0	0	594	623
7	0	0	0	0	609	623
8	0	0	0	0	627	623
9	0	0	0	0	649	624
10	0	0	0	0	674	624
11	0	0	0	0	698	624
12	0	0	0	0	722	624
13	0	0	0	0	747	624
14	0	0	0	0	768	624
15	0	0	0	0	789	624
0	0	0	0	0	807	624
1	0	0	0	0	822	624
2	0	0	0	0	834	623
3	0	0	0	0	840	624
4	0	0	0	0	843	624
5	0	0	0	0	842	624
6	0	0	0	0	839	624
7	0	0	0	0	830	624
8	0	0	0	0	807	624
9	0	0	0	0	766	625
10	0	0	0	0	718	624
11	0	0	0	0	672	625
12	0	0	0	0	636	625
13	0	0	0	0	611	624
14	0	0	0	0	596	625
15	0	0	0	0	586	624
0	0	0	0	0	577	625
1	0	0	0	0	569	625
2	0	0	0	0	561	625
3	0	0	0	0	556	626
4	0	0	0	0	550	625
5	0	0	0	0	544	625
6	0	0	0	0	539	625
7	0	0	0	0	534	624
8	0	0	0	0	529	624
9	0	0	0	0	523	624
10	0	0	0	0	516	624
11	0	0	0	0	509	625
12	0	0	0	0	502	624
13	0	0	0	0	495	624
14	0	0	0	0	487	624
15	0	0	0	0	481	624
0	0	0	0	0	475	624
1	0	0	0	0	468	624
2	0	0	0	0	463	624
3	0	0	0	0	458	624
4	0	0	0	0	453	623
5	0	0	0	0	449	624
6	0	0	0	0	445	623
7	0	0	0	0	443	624
8	0	0	0	0	441	623
9	0	0	0	0	439	624
10	0	0	0	0	438	624
11	0	0	0	0	437	624
12	0	0	0	0	436	623
13	0	0	0	0	435	623
14	0	0	0	0	435	622
15	0	0	0	0	435	622
0	0	0	0	0	435	622
1	0	0	0	0	435	622
2	0	0	0	0	435	621
3	0	0	0	0	435	622
4	0	0	0	0	435	622
5	0	0	0	0	435	621
6	0	0	0	0	435	621
7	0	0	0	0	435	621
8	0	0	0	0	435	621
9	0	0	0	0	436	621
10	0	0	0	0	437	622
11	0	0	0	0	438	622
12	0	0	0	0	439	620
13	0	0	0	0	440	620
14	0	0	0	0	441	620
15	0	0	0	0	441	621
0	0	0	0	0	442	620
1	0	0	0	0	442	620
2	0	0	0	0	443	620
3	0	0	0	0	444	620
4	0	0	0	0	444	620
5	0	0	0	0	445	620
6	0	0	0	0	446	620
7	0	0	0	0	447	620
8	0	0	0	0	448	620
9	0	0	0	0	448	620
10	0	0	0	0	449	620
11	0	0	0	0	449	621
12	0	0	0	0	450	620
13	0	0	0	0	451	620
14	0	0	0	0	451	620
15	0	0	0	0	451	620
0	0	0	0	0	452	621
1	0	0	0	0	453	621
2	0	0	0	0	454	621
3	0	0	0	0	454	622
4	0	0	0	0	455	622
5	0	0	0	0	455	622
6	0	0	0	0	455	622
7	0	0	0	0	456	622
8	0	0	0	0	457	622
9	0	0	0	0	458	622
10	0	0	0	0	459	622
11	0	0	0	0	459	623
12	0	0	0	0	459	622
13	0	0	0	0	459	623
14	0	0	0	0	460	623
15	0	0	0	0	461	622
0	0	0	0	0	461	623
1	0	0	0	0	462	623
2	0	0	0	0	462	623
3	0	0	0	0	463	624
4	0	0	0	0	463	623
5	0	0	0	0	463	623
6	0	0	0	0	464	623
7	0	0	0	0	465	623
8	0	0	0	0	465	623
9	0	0	0	0	465	623
10	0	0	0	0	466	623
11	0	0	0	0	467	624
12	0	0	0	0	468	623
13	0	0	0	0	468	623
14	0	0	0	0	469	623
15	0	0	0	0	470	623
0	0	0	0	0	470	623
1	0	0	0	0	470	623
2	0	0	0	0	471	623
3	0	0	0	0	471	623
4	0	0	0	0	471	623
5	0	0	0	0	471	623
6	0	0	0	0	472	622
7	0	0	0	0	472	623
8	0	0	0	0	473	623
9	0	0	0	0	474	624
10	0	0	0	0	474	623
11	0	0	0	0	475	624
12	0	0	0	0	475	623
13	0	0	0	0	475	622
14	0	0	0	0	476	622
15	0	0	0	0	477	622
0	0	0	0	0	477	623
1	0	0	0	0	477	623
2	0	0	0	0	477	623
3	0	0	0	0	477	624
4	0	0	0	0	478	622
5	0	0	0	0	478	622
6	0	0	0	0	479	623
7	0	0	0	0	479	622
8	0	0	0	0	479	623
9	0	0	0	0	480	622
10	0	0	0	0	480	623
11	0	0	0	0	481	623
12	0	0	0	0	481	622
13	0	0	0	0	481	623
14	0	0	0	0	481	623
15	0	0	0	0	481	623
0	0	0	0	0	481	623
1	0	0	0	0	481	623
2	0	0	0	0	482	622
3	0	0	0	0	483	624
4	0	0	0	0	483	623
5	0	0	0	0	483	622
6	0	0	0	0	484	623
7	0	0	0	0	484	624
8	0	0	0	0	483	623
9	0	0	0	0	483	623
10	0	0	0	0	483	623
11	0	0	0	0	483	623
12	0	0	0	0	484	622
13	0	0	0	0	484	622
14	0	0	0	0	484	623
15	0	0	0	0	485	623
0	0	0	0	0	486	623
1	0	0	0	0	486	623
2	0	0	0	0	486	623
3	0	0	0	0	486	623
4	0	0	0	0	486	623
5	0	0	0	0	487	623
6	0	0	0	0	487	624
7	0	0	0	0	487	623
8	0	0	0	0	487	623
9	0	0	0	0	487	623
10	0	0	0	0	487	623
11	0	0	0	0	487	623
12	0	0	0	0	487	624
13	0	0	0	0	487	624
14	0	0	0	0	487	624
15	0	0	0	0	488	624
0	0	0	0	0	489	623
1	0	0	0	0	489	623
2	0	0	0	0	490	624
3	0	0	0	0	490	624
4	0	0	0	0	490	624
5	0	0	0	0	491	623
6	0	0	0	0	491	624
7	0	0	0	0	492	623
8	0	0	0	0	492	624
9	0	0	0	0	492	624
10	0	0	0	0	493	624
11	0	0	0	0	493	624
12	0	0	0	0	494	624
13	0	0	0	0	495	624
14	0	0	0	0	495	623
15	0	0	0	0	496	624
0	0	0	0	0	496	624
1	0	0	0	0	496	623
2	0	0	0	0	497	623
3	0	0	0	0	496	624
4	0	0	0	0	497	624
5	0	0	0	0	498	623
6	0	0	0	0	499	622
7	0	0	0	0	499	623
8	0	0	0	0	500	623
9	0	0	0	0	501	623
10	0	0	0	0	502	623
11	0	0	0	0	502	623
12	0	0	0	0	503	623
13	0	0	0	0	504	622
14	0	0	0	0	504	623
15	0	0	0	0	506	622
0	0	0	0	0	506	622
1	0	0	0	0	507	622
2	0	0	0	0	508	622
3	0	0	0	0	508	623
4	0	0	0	0	509	622
5	0	0	0	0	510	622
6	0	0	0	0	511	622
7	0	0	0	0	511	622
8	0	0	0	0	512	621
9	0	0	0	0	512	622
10	0	0	0	0	513	622
11	0	0	0	0	513	622
12	0	0	0	0	514	621
13	0	0	0	0	514	621
14	0	0	0	0	515	622
15	0	0	0	0	516	621
0	0	0	0	0	517	620
1	0	0	0	0	517	621
2	0	0	0	0	518	621
3	0	0	0	0	518	622
4	0	0	0	0	519	620
5	0	0	0	0	519	620
6	0	0	0	0	520	621
7	0	0	0	0	520	620
8	0	0	0	0	520	620
9	0	0	0	0	520	620
10	0	0	0	0	521	620
11	0	0	0	0	521	621
12	0	0	0	0	522	620
13	0	0	0	0	522	620
14	0	0	0	0	522	620
15	0	0	0	0	523	621
0	0	0	0	0	523	621
1	0	0	0	0	522	620
2	0	0	0	0	523	620
3	0	0	0	0	523	621
4	0	0	0	0	523	621
5	0	0	0	0	523	621
6	0	0	0	0	522	621
7	0	0	0	0	523	621
8	0	0	0	0	522	621
9	0	0	0	0	522	621
10	0	0	0	0	521	621
11	0	0	0	0	521	622
12	0	0	0	0	521	621
13	0	0	0	0	520	621
14	0	0	0	0	519	622
15	0	0	0	0	519	621
0	0	0	0	0	519	621
1	0	0	0	0	518	622
2	0	0	0	0	517	621
3	0	0	0	0	516	622
4	0	0	0	0	515	622
5	0	0	0	0	515	622
6	0	0	0	0	515	622
7	0	0	0	0	515	622
8	0	0	0	0	514	623
9	0	0	0	0	513	622
10	0	0	0	0	513	622
11	0	0	0	0	512	623
12	0	0	0	0	512	622
13	0	0	0	0	512	623
14	0	0	0	0	511	623
15	0	0	0	0	511	623
0	0	0	0	0	510	623
1	0	0	0	0	509	623
2	0	0	0	0	509	623
3	0	0	0	0	509	624
4	0	0	0	0	509	623
5	0	0	0	0	509	624
6	0	0	0	0	509	624
7	0	0	0	0	509	624
8	0	0	0	0	509	624
9	0	0	0	0	509	624
10	0	0	0	0	509	624
11	0	0	0	0	509	625
12	0	0	0	0	509	624
13	0	0	0	0	508	624
14	0	0	0	0	508	624
15	0	0	0	0	508	624
0	0	0	0	0	508	624
1	0	0	0	0	508	625
2	0	0	0	0	508	625
3	0	0	0	0	508	626
4	0	0	0	0	508	625
5	0	0	0	0	508	625
6	0	0	0	0	508	625
7	0	0	0	0	508	625
8	0	0	0	0	508	625
9	0	0	0	0	508	625
10	0	0	0	0	508	625
11	0	0	0	0	508	627
12	0	0	0	0	509	625
13	0	0	0	0	509	625
14	0	0	0	0	510	625
15	0	0	0	0	510	624
0	0	0	0	0	510	624
1	0	0	0	0	510	624
2	0	0	0	0	510	624
3	0	0	0	0	510	626
4	0	0	0	0	510	624
5	0	0	0	0	511	624
6	0	0	0	0	511	624
7	0	0	0	0	511	625
8	0	0	0	0	511	625
9	0	0	0	0	511	624
10	0	0	0	0	511	625
11	0	0	0	0	511	625
12	0	0	0	0	511	625
13	0	0	0	0	511	624
14	0	0	0	0	512	625
15	0	0	0	0	512	625
0	0	0	0	0	512	625
1	0	0	0	0	512	625
2	0	0	0	0	512	625
3	0	0	0	0	512	626
4	0	0	0	0	512	625
5	0	0	0	0	512	625
6	0	0	0	0	512	625
7	0	0	0	0	512	624
8	0	0	0	0	511	624
9	0	0	0	0	511	624
10	0	0	0	0	511	624
11	0	0	0	0	511	625
12	0	0	0	0	512	624
13	0	0	0	0	512	624
14	0	0	0	0	512	624
15	0	0	0	0	511	624
0	0	0	0	0	511	624
1	0	0	0	0	511	624
2	0	0	0	0	511	624
3	0	0	0	0	511	625
4	0	0	0	0	511	625
5	0	0	0	0	512	624
6	0	0	0	0	511	624
7	0	0	0	0	511	625
8	0	0	0	0	511	625
9	0	0	0	0	511	624
10	0	0	0	0	511	624
11	0	0	0	0	511	625
12	0	0	0	0	511	625
13	0	0	0	0	511	625
14	0	0	0	0	511	624
15	0	0	0	0	511	624
0	0	0	0	0	511	624
1	0	0	0	0	511	625
2	0	0	0	0	511	624
3	0	0	0	0	511	625
4	0	0	0	0	511	625
5	0	0	0	0	511	624
6	0	0	0	0	511	624
7	0	0	0	0	511	624
8	0	0	0	0	511	625
9	0	0	0	0	511	624
10	0	0	0	0	511	625
11	0	0	0	0	511	625
12	0	0	0	0	511	625
13	0	0	0	0	511	624
14	0	0	0	0	511	624
15	0	0	0	0	511	624
0	0	0	0	0	511	624
1	0	0	0	0	511	625
2	0	0	0	0	511	624
3	0	0	0	0	511	624
4	0	0	0	0	511	624
5	0	0	0	0	511	624
6	0	0	0	0	512	624
7	0	0	0	0	511	624
8	0	0	0	0	512	624
9	0	0	0	0	511	624
10	0	0	0	0	511	624
11	0	0	0	0	511	625
12	0	0	0	0	511	624
13	0	0	0	0	511	624
14	0	0	0	0	511	624
15	0	0	0	0	511	624
0	0	0	0	0	511	624
1	0	0	0	0	511	624
2	0	0	0	0	510	623
3	0	0	0	0	511	624
4	0	0	0	0	510	622
5	0	0	0	0	510	623
6	0	0	0	0	511	623
7	0	0	0	0	511	623
8	0	0	0	0	510	623
9	0	0	0	0	511	622
10	0	0	0	0	511	623
11	0	0	0	0	510	624
12	0	0	0	0	510	624
13	0	0	0	0	510	623
14	0	0	0	0	510	622
15	0	0	0	0	510	624
0	0	0	0	0	510	623
1	0	0	0	0	510	623
2	0	0	0	0	511	623
3	0	0	0	0	510	624
4	0	0	0	0	511	624
5	0	0	0	0	510	623
6	0	0	0	0	510	623
7	0	0	0	0	511	623
8	0	0	0	0	510	623
9	0	0	0	0	510	623
10	0	0	0	0	510	623
11	0	0	0	0	510	623
12	0	0	0	0	510	623
13	0	0	0	0	510	622
14	0	0	0	0	510	623
15	0	0	0	0	510	622
0	0	0	0	0	510	622
1	0	0	0	0	510	623
2	0	0	0	0	510	623
3	0	0	0	0	511	624
4	0	0	0	0	511	623
5	0	0	0	0	511	622
6	0	0	0	0	511	623
7	0	0	0	0	511	622
8	0	0	0	0	511	623
9	0	0	0	0	511	622
10	0	0	0	0	511	623
11	0	0	0	0	511	623
12	0	0	0	0	511	622
13	0	0	0	0	511	622
14	0	0	0	0	511	623
15	0	0	0	0	511	623
0	0	0	0	0	511	622
1	0	0	0	0	511	622
2	0	0	0	0	511	622
3	0	0	0	0	511	623
4	0	0	0	0	511	623
5	0	0	0	0	512	623
6	0	0	0	0	512	622
7	0	0	0	0	512	623
8	0	0	0	0	512	623
9	0	0	0	0	512	622
10	0	0	0	0	512	622
11	0	0	0	0	512	623
12	0	0	0	0	512	622
13	0	0	0	0	512	623
14	0	0	0	0	513	623
15	0	0	0	0	512	623
0	0	0	0	0	512	623
1	0	0	0	0	512	624
2	0	0	0	0	512	623
3	0	0	0	0	512	624
4	0	0	0	0	512	623
5	0	0	0	0	512	623
6	0	0	0	0	513	624
7	0	0	0	0	513	624
8	0	0	0	0	513	623
9	0	0	0	0	513	623
10	0	0	0	0	513	623
11	0	0	0	0	514	624
12	0	0	0	0	514	624
13	0	0	0	0	515	623
14	0	0	0	0	515	623
15	0	0	0	0	515	623
0	0	0	0	0	515	624
1	0	0	0	0	514	623
2	0	0	0	0	515	623
3	0	0	0	0	514	624
4	0	0	0	0	514	623
5	0	0	0	0	514	624
6	0	0	0	0	514	623
7	0	0	0	0	515	623
8	0	0	0	0	515	623
9	0	0	0	0	515	623
10	0	0	0	0	515	623
11	0	0	0	0	515	624
12	0	0	0	0	515	623
13	0	0	0	0	515	623
14	0	0	0	0	514	623
15	0	0	0	0	514	623
0	0	0	0	0	513	622
1	0	0	0	0	515	623
2	0	0	0	0	515	622
3	0	0	0	0	515	623
4	0	0	0	0	515	622
5	0	0	0	0	515	622
6	0	0	0	0	515	622
7	0	0	0	0	515	622
8	0	0	0	0	515	621
9	0	0	0	0	515	622
10	0	0	0	0	515	622
11	0	0	0	0	515	622
12	0	0	0	0	515	622
13	0	0	0	0	515	622
14	0	0	0	0	515	621
15	0	0	0	0	515	621
0	0	0	0	0	515	621
1	0	0	0	0	515	621
2	0	0	0	0	515	620
3	0	0	0	0	516	622
4	0	0	0	0	515	620
5	0	0	0	0	515	620
6	0	0	0	0	515	620
7	0	0	0	0	515	620
8	0	0	0	0	516	620
9	0	0	0	0	516	620
10	0	0	0	0	516	620
11	0	0	0	0	516	620
12	0	0	0	0	517	619
13	0	0	0	0	516	619
14	0	0	0	0	516	620
15	0	0	0	0	516	620
0	0	0	0	0	516	620
1	0	0	0	0	516	620
2	0	0	0	0	515	620
3	0	0	0	0	515	620
4	0	0	0	0	515	620
5	0	0	0	0	515	620
6	0	0	0	0	514	620
7	0	0	0	0	514	620
8	0	0	0	0	514	620
9	0	0	0	0	515	620
10	0	0	0	0	515	620
11	0	0	0	0	515	621
12	0	0	0	0	515	621
13	0	0	0	0	515	620
14	0	0	0	0	515	620
15	0	0	0	0	515	620
0	0	0	0	0	515	620
1	0	0	0	0	515	620
2	0	0	0	0	515	620
3	0	0	0	0	514	622
4	0	0	0	0	513	621
5	0	0	0	0	512	621
6	0	0	0	0	513	622
7	0	0	0	0	513	622
8	0	0	0	0	513	621
9	0	0	0	0	513	621
10	0	0	0	0	512	622
11	0	0	0	0	513	623
12	0	0	0	0	513	621
13	0	0	0	0	513	621
14	0	0	0	0	513	622
15	0	0	0	0	513	622
0	0	0	0	0	513	622
1	0	0	0	0	513	623
2	0	0	0	0	513	622
3	0	0	0	0	513	623
4	0	0	0	0	513	622
5	0	0	0	0	513	622
6	0	0	0	0	513	623
7	0	0	0	0	513	623
8	0	0	0	0	514	623
9	0	0	0	0	513	623
10	0	0	0	0	513	623
11	0	0	0	0	513	624
12	0	0	0	0	513	624
13	0	0	0	0	513	623
14	0	0	0	0	513	624
15	0	0	0	0	513	624
0	0	0	0	0	512	623
1	0	0	0	0	512	623
2	0	0	0	0	512	623
3	0	0	0	0	512	624
4	0	0	0	0	512	624
5	0	0	0	0	512	624
6	0	0	0	0	513	624
7	0	0	0	0	513	624
8	0	0	0	0	513	624
9	0	0	0	0	512	624
10	0	0	0	0	512	624
11	0	0	0	0	513	625
12	0	0	0	0	513	624
13	0	0	0	0	513	624
14	0	0	0	0	513	624
15	0	0	0	0	512	623
0	0	0	0	0	512	624
1	0	0	0	0	513	623
2	0	0	0	0	512	623
3	0	0	0	0	513	624
4	0	0	0	0	513	623
5	0	0	0	0	513	623
6	0	0	0	0	513	623
7	0	0	0	0	513	623
8	0	0	0	0	513	623
9	0	0	0	0	513	623
10	0	0	0	0	513	623
11	0	0	0	0	513	624
12	0	0	0	0	513	623
13	0	0	0	0	513	624
14	0	0	0	0	513	623
15	0	0	0	0	513	623
0	0	0	0	0	513	623
1	0	0	0	0	513	623
2	0	0	0	0	513	624
3	0	0	0	0	513	624
4	0	0	0	0	514	623
5	0	0	0	0	513	623
6	0	0	0	0	513	623
7	0	0	0	0	513	623
8	0	0	0	0	512	623
9	0	0	0	0	513	623
10	0	0	0	0	513	623
11	0	0	0	0	513	624
12	0	0	0	0	513	624
13	0	0	0	0	514	623
14	0	0	0	0	514	624
15	0	0	0	0	514	623
0	0	0	0	0	514	623
1	0	0	0	0	514	624
2	0	0	0	0	514	623
3	0	0	0	0	514	624
4	0	0	0	0	515	622
5	0	0	0	0	515	622
6	0	0	0	0	515	623
7	0	0	0	0	514	623
8	0	0	0	0	514	623
9	0	0	0	0	514	622
10	0	0	0	0	513	622
11	0	0	0	0	513	624
12	0	0	0	0	513	623
13	0	0	0	0	513	623
14	0	0	0	0	513	623
15	0	0	0	0	513	622
0	0	0	0	0	513	623
1	0	0	0	0	513	623
2	0	0	0	0	513	623
3	0	0	0	0	513	623
4	0	0	0	0	512	622
5	0	0	0	0	512	622
6	0	0	0	0	512	622
7	0	0	0	0	512	623
8	0	0	0	0	512	623
9	0	0	0	0	512	623
10	0	0	0	0	512	623
11	0	0	0	0	512	623
12	0	0	0	0	513	622
13	0	0	0	0	513	623
14	0	0	0	0	512	623
15	0	0	0	0	512	623
0	0	0	0	0	513	623
1	0	0	0	0	513	622
2	0	0	0	0	513	623
3	0	0	0	0	513	623
4	0	0	0	0	514	622
5	0	0	0	0	514	622
6	0	0	0	0	514	622
7	0	0	0	0	514	622
8	0	0	0	0	514	623
9	0	0	0	0	514	623
10	0	0	0	0	513	623
11	0	0	0	0	514	624
12	0	0	0	0	514	623
13	0	0	0	0	514	622
14	0	0	0	0	514	622
15	0	0	0	0	514	623
0	0	0	0	0	514	623
1	0	0	0	0	514	622
2	0	0	0	0	515	622
3	0	0	0	0	515	623
4	0	0	0	0	514	623
5	0	0	0	0	514	622
6	0	0	0	0	515	622
7	0	0	0	0	514	622
8	0	0	0	0	515	622
9	0	0	0	0	515	623
10	0	0	0	0	515	623
11	0	0	0	0	516	623
12	0	0	0	0	516	622
13	0	0	0	0	516	622
14	0	0	0	0	516	622
15	0	0	0	0	516	623
0	0	0	0	0	516	623
1	0	0	0	0	516	622
2	0	0	0	0	516	622
3	0	0	0	0	517	623
4	0	0	0	0	517	623
5	0	0	0	0	517	623
6	0	0	0	0	516	623
7	0	0	0	0	517	622
8	0	0	0	0	516	623
9	0	0	0	0	517	623
10	0	0	0	0	517	623
11	0	0	0	0	516	623
12	0	0	0	0	517	623
13	0	0	0	0	517	623
14	0	0	0	0	517	623
15	0	0	0	0	517	623
0	0	0	0	0	516	622
1	0	0	0	0	517	623
2	0	0	0	0	517	623
3	0	0	0	0	517	624
4	0	0	0	0	517	623
5	0	0	0	0	516	623
6	0	0	0	0	516	624
7	0	0	0	0	517	624
8	0	0	0	0	516	624
9	0	0	0	0	517	624
10	0	0	0	0	517	623
11	0	0	0	0	518	625
12	0	0	0	0	517	624
13	0	0	0	0	518	624
14	0	0	0	0	518	624
15	0	0	0	0	518	623
0	0	0	0	0	518	624
1	0	0	0	0	518	623
2	0	0	0	0	518	623
3	0	0	0	0	518	624
4	0	0	0	0	518	623
5	0	0	0	0	518	624
6	0	0	0	0	518	623
7	0	0	0	0	518	623
8	0	0	0	0	517	623
9	0	0	0	0	517	623
10	0	0	0	0	518	623
11	0	0	0	0	517	625
12	0	0	0	0	517	624
13	0	0	0	0	516	624
14	0	0	0	0	516	624
15	0	0	0	0	518	624
0	0	0	0	0	518	624
1	0	0	0	0	517	624
2	0	0	0	0	517	624
3	0	0	0	0	516	625
4	0	0	0	0	517	624
5	0	0	0	0	517	624
6	0	0	0	0	517	624
7	0	0	0	0	517	624
8	0	0	0	0	517	624
9	0	0	0	0	517	624
10	0	0	0	0	517	624
11	0	0	0	0	517	624
12	0	0	0	0	517	624
13	0	0	0	0	517	624
14	0	0	0	0	518	624
15	0	0	0	0	518	624
0	0	0	0	0	519	623
1	0	0	0	0	519	624
2	0	0	0	0	518	623
3	0	0	0	0	518	625
4	0	0	0	0	518	623
5	0	0	0	0	519	624
6	0	0	0	0	519	624
7	0	0	0	0	519	623
8	0	0	0	0	519	624
9	0	0	0	0	519	624
10	0	0	0	0	519	623
11	0	0	0	0	519	624
12	0	0	0	0	519	623
13	0	0	0	0	519	624
14	0	0	0	0	518	624
15	0	0	0	0	518	624
0	0	0	0	0	519	624
1	0	0	0	0	519	624
2	0	0	0	0	519	624
3	0	0	0	0	519	625
4	0	0	0	0	520	625
5	0	0	0	0	519	624
6	0	0	0	0	519	624
7	0	0	0	0	519	625
8	0	0	0	0	519	625
9	0	0	0	0	519	624
10	0	0	0	0	519	625
11	0	0	0	0	519	625
12	0	0	0	0	519	625
13	0	0	0	0	519	624
14	0	0	0	0	518	624
15	0	0	0	0	519	625
0	0	0	0	0	519	624
1	0	0	0	0	519	624
2	0	0	0	0	518	624
3	0	0	0	0	518	625
4	0	0	0	0	518	625
5	0	0	0	0	518	624
6	0	0	0	0	518	625
7	0	0	0	0	518	624
8	0	0	0	0	517	624
9	0	0	0	0	517	624
10	0	0	0	0	516	624
11	0	0	0	0	516	624
12	0	0	0	0	516	623
13	0	0	0	0	515	624
14	0	0	0	0	516	624
15	0	0	0	0	516	624
0	0	0	0	0	516	624
1	0	0	0	0	516	624
2	0	0	0	0	515	624
3	0	0	0	0	516	625
4	0	0	0	0	515	623
5	0	0	0	0	515	624
6	0	0	0	0	515	624
7	0	0	0	0	515	624
8	0	0	0	0	515	624
9	0	0	0	0	515	624
10	0	0	0	0	515	624
11	0	0	0	0	515	624
12	0	0	0	0	515	624
13	0	0	0	0	515	623
14	0	0	0	0	515	622
15	0	0	0	0	515	624
0	0	0	0	0	515	623
1	0	0	0	0	515	623
2	0	0	0	0	516	623
3	0	0	0	0	516	624
4	0	0	0	0	516	623
5	0	0	0	0	516	623
6	0	0	0	0	516	623
7	0	0	0	0	516	623
8	0	0	0	0	517	623
9	0	0	0	0	518	623
10	0	0	0	0	517	623
11	0	0	0	0	518	623
12	0	0	0	0	519	622
13	0	0	0	0	519	623
14	0	0	0	0	519	623
15	0	0	0	0	520	623
0	0	0	0	0	520	622
1	0	0	0	0	521	623
2	0	0	0	0	521	622
3	0	0	0	0	522	623
4	0	0	0	0	522	622
5	0	0	0	0	522	623
6	0	0	0	0	523	622
7	0	0	0	0	523	622
8	0	0	0	0	524	622
9	0	0	0	0	524	622
10	0	0	0	0	524	622
11	0	0	0	0	524	622
12	0	0	0	0	524	621
13	0	0	0	0	524	622
14	0	0	0	0	525	622
15	0	0	0	0	525	622
0	0	0	0	0	525	622
1	0	0	0	0	525	622
2	0	0	0	0	525	622
3	0	0	0	0	525	623
4	0	0	0	0	525	623
5	0	0	0	0	525	622
6	0	0	0	0	524	622
7	0	0	0	0	524	622
8	0	0	0	0	524	622
9	0	0	0	0	525	622
10	0	0	0	0	525	622
11	0	0	0	0	524	623
12	0	0	0	0	525	622
13	0	0	0	0	524	622
14	0	0	0	0	523	622
15	0	0	0	0	523	622
0	0	0	0	0	523	622
1	0	0	0	0	523	622
2	0	0	0	0	522	622
3	0	0	0	0	522	623
4	0	0	0	0	522	622
5	0	0	0	0	521	622
6	0	0	0	0	521	623
7	0	0	0	0	521	622
8	0	0	0	0	520	623
9	0	0	0	0	520	623
10	0	0	0	0	519	623
11	0	0	0	0	519	624
12	0	0	0	0	519	623
13	0	0	0	0	519	623
14	0	0	0	0	519	623
15	0	0	0	0	519	623
0	0	0	0	0	519	623
1	0	0	0	0	519	623
2	0	0	0	0	519	623
3	0	0	0	0	519	624
4	0	0	0	0	519	623
5	0	0	0	0	519	624
6	0	0	0	0	518	623
7	0	0	0	0	518	624
8	0	0	0	0	518	623
9	0	0	0	0	518	624
10	0	0	0	0	517	624
11	0	0	0	0	517	624
12	0	0	0	0	517	623
13	0	0	0	0	517	623
14	0	0	0	0	517	623
15	0	0	0	0	517	623
0	0	0	0	0	518	623
1	0	0	0	0	518	623
2	0	0	0	0	518	624
3	0	0	0	0	518	624
4	0	0	0	0	518	623
5	0	0	0	0	518	623
6	0	0	0	0	518	624
7	0	0	0	0	518	623
8	0	0	0	0	518	623
9	0	0	0	0	518	623
10	0	0	0	0	518	623
11	0	0	0	0	518	624
12	0	0	0	0	518	622
13	0	0	0	0	518	623
14	0	0	0	0	517	623
15	0	0	0	0	516	623
0	0	0	0	0	515	623
1	0	0	0	0	514	624
2	0	0	0	0	512	623
3	0	0	0	0	511	624
4	0	0	0	0	508	623
5	0	0	0	0	505	623
6	0	0	0	0	502	623
7	0	0	0	0	498	623
8	0	0	0	0	494	623
9	0	0	0	0	489	623
10	0	0	0	0	484	622
11	0	0	0	0	479	623
12	0	0	0	0	474	623
13	0	0	0	0	471	623
14	0	0	0	0	467	623
15	0	0	0	0	466	623
0	0	0	0	0	465	623
1	0	0	0	0	466	623
2	0	0	0	0	469	623
3	0	0	0	0	473	623
4	0	0	0	0	479	623
5	0	0	0	0	485	623
6	0	0	0	0	491	623
7	0	0	0	0	497	623
8	0	0	0	0	502	623
9	0	0	0	0	506	622
10	0	0	0	0	509	623
11	0	0	0	0	511	623
12	0	0	0	0	515	623
13	0	0	0	0	520	623
14	0	0	0	0	527	622
15	0	0	0	0	535	622
0	0	0	0	0	546	622
1	0	0	0	0	559	622
2	0	0	0	0	575	622
3	0	0	0	0	593	623
4	0	0	0	0	614	622
5	0	0	0	0	637	622
6	0	0	0	0	663	622
7	0	0	0	0	691	622
8	0	0	0	0	720	623
9	0	0	0	0	748	623
10	0	0	0	0	773	622
11	0	0	0	0	797	623
12	0	0	0	0	818	622
13	0	0	0	0	837	622
14	0	0	0	0	851	622
15	0	0	0	0	865	622
0	0	0	0	0	876	622
1	0	0	0	0	880	622
2	0	0	0	0	877	622
3	0	0	0	0	871	623
4	0	0	0	0	863	622
5	0	0	0	0	852	622
6	0	0	0	0	833	622
7	0	0	0	0	795	623
8	0	0	0	0	748	622
9	0	0	0	0	701	622
10	0	0	0	0	664	622
11	0	0	0	0	636	622
12	0	0	0	0	615	622
13	0	0	0	0	599	622
14	0	0	0	0	584	622
15	0	0	0	0	572	622
0	0	0	0	0	561	622
1	0	0	0	0	552	622
2	0	0	0	0	544	622
3	0	0	0	0	536	622
4	0	0	0	0	528	622
5	0	0	0	0	520	622
6	0	0	0	0	512	622
7	0	0	0	0	504	622
8	0	0	0	0	496	622
9	0	0	0	0	487	622
10	0	0	0	0	480	622
11	0	0	0	0	472	622
12	0	0	0	0	465	621
13	0	0	0	0	459	621
14	0	0	0	0	453	622
15	0	0	0	0	448	622
0	0	0	0	0	444	622
1	0	0	0	0	439	621
2	0	0	0	0	436	621
3	0	0	0	0	433	622
4	0	0	0	0	431	621
5	0	0	0	0	429	622
6	0	0	0	0	428	622
7	0	0	0	0	428	621
8	0	0	0	0	428	621
9	0	0	0	0	427	620
10	0	0	0	0	427	620
11	0	0	0	0	427	621
12	0	0	0	0	426	621
13	0	0	0	0	426	621
14	0	0	0	0	427	620
15	0	0	0	0	427	620
0	0	0	0	0	428	620
1	0	0	0	0	428	620
2	0	0	0	0	428	621
3	0	0	0	0	428	621
4	0	0	0	0	428	621
5	0	0	0	0	429	621
6	0	0	0	0	430	622
7	0	0	0	0	430	621
8	0	0	0	0	431	620
9	0	0	0	0	431	621
10	0	0	0	0	432	622
11	0	0	0	0	432	622
12	0	0	0	0	433	621
13	0	0	0	0	433	622
14	0	0	0	0	434	621
15	0	0	0	0	435	621
0	0	0	0	0	435	621
1	0	0	0	0	437	621
2	0	0	0	0	438	621
3	0	0	0	0	438	621
4	0	0	0	0	438	621
5	0	0	0	0	439	621
6	0	0	0	0	440	622
7	0	0	0	0	441	622
8	0	0	0	0	441	621
9	0	0	0	0	442	621
10	0	0	0	0	442	621
11	0	0	0	0	443	623
12	0	0	0	0	444	622
13	0	0	0	0	445	622
14	0	0	0	0	446	622
15	0	0	0	0	447	622
0	0	0	0	0	448	622
1	0	0	0	0	448	622
2	0	0	0	0	449	623
3	0	0	0	0	449	624
4	0	0	0	0	450	623
5	0	0	0	0	451	623
6	0	0	0	0	451	623
7	0	0	0	0	451	623
8	0	0	0	0	452	623
9	0	0	0	0	452	623
10	0	0	0	0	453	624
11	0	0	0	0	454	624
12	0	0	0	0	455	623
13	0	0	0	0	455	623
14	0	0	0	0	455	623
15	0	0	0	0	457	623
0	0	0	0	0	457	623
1	0	0	0	0	457	623
2	0	0	0	0	458	623
3	0	0	0	0	459	624
4	0	0	0	0	460	623
5	0	0	0	0	460	623
6	0	0	0	0	460	622
7	0	0	0	0	461	623
8	0	0	0	0	461	623
9	0	0	0	0	462	623
10	0	0	0	0	462	623
11	0	0	0	0	463	624
12	0	0	0	0	463	622
13	0	0	0	0	464	623
14	0	0	0	0	464	623
15	0	0	0	0	464	623
0	0	0	0	0	465	623
1	0	0	0	0	465	623
2	0	0	0	0	466	623
3	0	0	0	0	466	624
4	0	0	0	0	466	623
5	0	0	0	0	466	623
6	0	0	0	0	467	624
7	0	0	0	0	467	624
8	0	0	0	0	467	623
9	0	0	0	0	468	623
10	0	0	0	0	468	623
11	0	0	0	0	468	624
12	0	0	0	0	468	623
13	0	0	0	0	468	622
14	0	0	0	0	469	623
15	0	0	0	0	470	623
0	0	0	0	0	470	623
1	0	0	0	0	471	624
2	0	0	0	0	472	623
3	0	0	0	0	472	624
4	0	0	0	0	472	623
5	0	0	0	0	472	623
6	0	0	0	0	472	623
7	0	0	0	0	472	623
8	0	0	0	0	473	623
9	0	0	0	0	475	623
10	0	0	0	0	475	623
11	0	0	0	0	476	624
12	0	0	0	0	476	623
13	0	0	0	0	476	623
14	0	0	0	0	476	623
15	0	0	0	0	477	622
0	0	0	0	0	478	623
1	0	0	0	0	478	623
2	0	0	0	0	478	623
3	0	0	0	0	478	624
4	0	0	0	0	478	623
5	0	0	0	0	478	623
6	0	0	0	0	478	623
7	0	0	0	0	479	623
8	0	0	0	0	479	623
9	0	0	0	0	479	623
10	0	0	0	0	479	623
11	0	0	0	0	479	624
12	0	0	0	0	480	624
13	0	0	0	0	480	623
14	0	0	0	0	481	624
15	0	0	0	0	481	623
0	0	0	0	0	481	624
1	0	0	0	0	482	624
2	0	0	0	0	483	623
3	0	0	0	0	482	624
4	0	0	0	0	482	624
5	0	0	0	0	482	624
6	0	0	0	0	483	624
7	0	0	0	0	483	624
8	0	0	0	0	483	624
9	0	0	0	0	483	624
10	0	0	0	0	484	624
11	0	0	0	0	485	625
12	0	0	0	0	486	624
13	0	0	0	0	486	624
14	0	0	0	0	485	624
15	0	0	0	0	486	624
0	0	0	0	0	486	623
1	0	0	0	0	486	624
2	0	0	0	0	487	624
3	0	0	0	0	487	625
4	0	0	0	0	487	625
5	0	0	0	0	487	624
6	0	0	0	0	488	624
7	0	0	0	0	488	624
8	0	0	0	0	489	624
9	0	0	0	0	490	624
10	0	0	0	0	491	623
11	0	0	0	0	492	624
12	0	0	0	0	493	624
13	0	0	0	0	493	624
14	0	0	0	0	494	624
15	0	0	0	0	494	623
0	0	0	0	0	495	622
1	0	0	0	0	495	623
2	0	0	0	0	496	623
3	0	0	0	0	496	624
4	0	0	0	0	497	623
5	0	0	0	0	497	623
6	0	0	0	0	498	623
7	0	0	0	0	499	623
8	0	0	0	0	500	623
9	0	0	0	0	500	623
10	0	0	0	0	501	623
11	0	0	0	0	502	623
12	0	0	0	0	504	622
13	0	0	0	0	505	623
14	0	0	0	0	505	623
15	0	0	0	0	506	623
0	0	0	0	0	508	623
1	0	0	0	0	508	623
2	0	0	0	0	509	623
3	0	0	0	0	509	623
4	0	0	0	0	510	622
5	0	0	0	0	511	622
6	0	0	0	0	511	623
7	0	0	0	0	511	622
8	0	0	0	0	512	623
9	0	0	0	0	512	623
10	0	0	0	0	513	623
11	0	0	0	0	514	623
12	0	0	0	0	515	623
13	0	0	0	0	516	622
14	0	0	0	0	517	623
15	0	0	0	0	518	623
0	0	0	0	0	518	623
1	0	0	0	0	519	623
2	0	0	0	0	519	623
3	0	0	0	0	519	624
4	0	0	0	0	520	623
5	0	0	0	0	520	623
6	0	0	0	0	521	624
7	0	0	0	0	521	623
8	0	0	0	0	521	624
9	0	0	0	0	522	624
10	0	0	0	0	523	623
11	0	0	0	0	523	624
12	0	0	0	0	524	624
13	0	0	0	0	524	623
14	0	0	0	0	524	623
15	0	0	0	0	524	623
0	0	0	0	0	525	623
1	0	0	0	0	525	623
2	0	0	0	0	525	623
3	0	0	0	0	525	624
4	0	0	0	0	524	623
5	0	0	0	0	524	623
6	0	0	0	0	524	623
7	0	0	0	0	524	624
8	0	0	0	0	524	624
9	0	0	0	0	524	623
10	0	0	0	0	524	624
11	0	0	0	0	523	623
12	0	0	0	0	522	623
13	0	0	0	0	521	623
14	0	0	0	0	521	623
15	0	0	0	0	521	622
0	0	0	0	0	520	623
1	0	0	0	0	520	623
2	0	0	0	0	520	623
3	0	0	0	0	519	624
4	0	0	0	0	519	623
5	0	0	0	0	518	623
6	0	0	0	0	518	623
7	0	0	0	0	518	623
8	0	0	0	0	517	623
9	0	0	0	0	517	623
10	0	0	0	0	515	623
11	0	0	0	0	515	624
12	0	0	0	0	515	623
13	0	0	0	0	514	623
14	0	0	0	0	514	623
15	0	0	0	0	513	623
0	0	0	0	0	513	622
1	0	0	0	0	512	623
2	0	0	0	0	512	622
3	0	0	0	0	512	624
4	0	0	0	0	512	623
5	0	0	0	0	512	623
6	0	0	0	0	512	623
7	0	0	0	0	512	623
8	0	0	0	0	512	623
9	0	0	0	0	511	622
10	0	0	0	0	512	622
11	0	0	0	0	512	623
12	0	0	0	0	512	622
13	0	0	0	0	511	622
14	0	0	0	0	511	622
15	0	0	0	0	511	623
0	0	0	0	0	510	623
1	0	0	0	0	510	623
2	0	0	0	0	510	622
3	0	0	0	0	509	624
4	0	0	0	0	509	623
5	0	0	0	0	510	622
6	0	0	0	0	509	623
7	0	0	0	0	510	623
8	0	0	0	0	509	623
9	0	0	0	0	509	623
10	0	0	0	0	509	623
11	0	0	0	0	508	623
12	0	0	0	0	508	623
13	0	0	0	0	509	622
14	0	0	0	0	509	623
15	0	0	0	0	509	623
0	0	0	0	0	510	623
1	0	0	0	0	510	622
2	0	0	0	0	509	622
3	0	0	0	0	510	623
4	0	0	0	0	510	622
5	0	0	0	0	510	622
6	0	0	0	0	511	623
7	0	0	0	0	511	623
8	0	0	0	0	511	623
9	0	0	0	0	511	622
10	0	0	0	0	511	622
11	0	0	0	0	511	624
12	0	0	0	0	511	622
13	0	0	0	0	511	623
14	0	0	0	0	512	622
15	0	0	0	0	512	622
0	0	0	0	0	512	623
1	0	0	0	0	512	622
2	0	0	0	0	512	623
3	0	0	0	0	512	624
4	0	0	0	0	512	623
5	0	0	0	0	512	624
6	0	0	0	0	512	624
7	0	0	0	0	512	624
8	0	0	0	0	512	623
9	0	0	0	0	512	624
10	0	0	0	0	512	624
11	0	0	0	0	512	624
12	0	0	0	0	512	624
13	0	0	0	0	512	623
14	0	0	0	0	512	623
15	0	0	0	0	512	623
0	0	0	0	0	512	623
1	0	0	0	0	512	624
2	0	0	0	0	512	624
3	0	0	0	0	512	624
4	0	0	0	0	512	624
5	0	0	0	0	512	623
6	0	0	0	0	512	623
7	0	0	0	0	512	623
8	0	0	0	0	513	623
9	0	0	0	0	513	624
10	0	0	0	0	512	624
11	0	0	0	0	512	625
12	0	0	0	0	512	624
13	0	0	0	0	512	624
14	0	0	0	0	512	624
15	0	0	0	0	511	624
0	0	0	0	0	512	624
1	0	0	0	0	512	624
2	0	0	0	0	512	624
3	0	0	0	0	512	625
4	0	0	0	0	512	625
5	0	0	0	0	512	624
6	0	0	0	0	511	624
7	0	0	0	0	512	624
8	0	0	0	0	512	625
9	0	0	0	0	511	624
10	0	0	0	0	511	624
11	0	0	0	0	511	625
12	0	0	0	0	511	624
13	0	0	0	0	511	624
14	0	0	0	0	511	624
15	0	0	0	0	511	623
0	0	0	0	0	511	624
1	0	0	0	0	511	623
2	0	0	0	0	511	624
3	0	0	0	0	511	624
4	0	0	0	0	512	624
5	0	0	0	0	512	624
6	0	0	0	0	512	624
7	0	0	0	0	512	624
8	0	0	0	0	512	624
9	0	0	0	0	512	624
10	0	0	0	0	512	624
11	0	0	0	0	511	624
12	0	0	0	0	511	624
13	0	0	0	0	511	623
14	0	0	0	0	511	624
15	0	0	0	0	511	624
0	0	0	0	0	511	623
1	0	0	0	0	511	624
2	0	0	0	0	511	624
3	0	0	0	0	511	624
4	0	0	0	0	511	624
5	0	0	0	0	511	624
6	0	0	0	0	511	624
7	0	0	0	0	511	623
8	0	0	0	0	511	624
9	0	0	0	0	511	623
10	0	0	0	0	511	623
11	0	0	0	0	511	624
12	0	0	0	0	511	623
13	0	0	0	0	511	623
14	0	0	0	0	511	623
15	0	0	0	0	511	622
0	0	0	0	0	511	623
1	0	0	0	0	511	623
2	0	0	0	0	511	623
3	0	0	0	0	511	624
4	0	0	0	0	511	623
5	0	0	0	0	512	623
6	0	0	0	0	511	623
7	0	0	0	0	511	623
8	0	0	0	0	511	623
9	0	0	0	0	511	623
10	0	0	0	0	511	623
11	0	0	0	0	511	624
12	0	0	0	0	512	622
13	0	0	0	0	512	623
14	0	0	0	0	511	622
15	0	0	0	0	511	623
0	0	0	0	0	512	622
1	0	0	0	0	512	623
2	0	0	0	0	512	622
3	0	0	0	0	512	623
4	0	0	0	0	512	623
5	0	0	0	0	511	623
6	0	0	0	0	511	622
7	0	0	0	0	511	623
8	0	0	0	0	511	623
9	0	0	0	0	511	622
10	0	0	0	0	511	623
11	0	0	0	0	511	623
12	0	0	0	0	511	623
13	0	0	0	0	511	623
14	0	0	0	0	511	623
15	0	0	0	0	511	623
0	0	0	0	0	512	623
1	0	0	0	0	512	623
2	0	0	0	0	512	622
3	0	0	0	0	512	623
4	0	0	0	0	511	623
5	0	0	0	0	511	622
6	0	0	0	0	511	622
7	0	0	0	0	512	622
8	0	0	0	0	512	622
9	0	0	0	0	511	622
10	0	0	0	0	512	622
11	0	0	0	0	511	623
12	0	0	0	0	511	622
13	0	0	0	0	511	623
14	0	0	0	0	511	622
15	0	0	0	0	511	622
0	0	0	0	0	511	622
1	0	0	0	0	512	622
2	0	0	0	0	512	622
3	0	0	0	0	513	623
4	0	0	0	0	513	623
5	0	0	0	0	514	622
6	0	0	0	0	514	621
7	0	0	0	0	514	622
8	0	0	0	0	514	622
9	0	0	0	0	514	622
10	0	0	0	0	515	622
11	0	0	0	0	514	623
12	0	0	0	0	515	622
13	0	0	0	0	515	621
14	0	0	0	0	515	622
15	0	0	0	0	516	622
0	0	0	0	0	515	622
1	0	0	0	0	515	622
2	0	0	0	0	516	622
3	0	0	0	0	516	622
4	0	0	0	0	515	622
5	0	0	0	0	515	622
6	0	0	0	0	515	622
7	0	0	0	0	515	622
8	0	0	0	0	515	622
9	0	0	0	0	515	622
10	0	0	0	0	515	621
11	0	0	0	0	515	622
12	0	0	0	0	515	622
13	0	0	0	0	515	622
14	0	0	0	0	515	622
15	0	0	0	0	515	621
0	0	0	0	0	515	622
1	0	0	0	0	515	622
2	0	0	0	0	515	621
3	0	0	0	0	515	622
4	0	0	0	0	516	622
5	0	0	0	0	516	621
6	0	0	0	0	516	622
7	0	0	0	0	516	622
8	0	0	0	0	516	622
9	0	0	0	0	517	622
10	0	0	0	0	516	622
11	0	0	0	0	517	623
12	0	0	0	0	517	622
13	0	0	0	0	517	622
14	0	0	0	0	517	622
15	0	0	0	0	517	622
0	0	0	0	0	518	622
1	0	0	0	0	518	622
2	0	0	0	0	519	622
3	0	0	0	0	518	622
4	0	0	0	0	519	622
5	0	0	0	0	519	622
6	0	0	0	0	518	622
7	0	0	0	0	519	622
8	0	0	0	0	519	621
9	0	0	0	0	519	622
10	0	0	0	0	519	622
11	0	0	0	0	519	623
12	0	0	0	0	519	622
13	0	0	0	0	519	622
14	0	0	0	0	518	622
15	0	0	0	0	518	622
0	0	0	0	0	519	623
1	0	0	0	0	518	622
2	0	0	0	0	517	622
3	0	0	0	0	517	623
4	0	0	0	0	516	622
5	0	0	0	0	516	622
6	0	0	0	0	516	622
7	0	0	0	0	516	622
8	0	0	0	0	517	623
9	0	0	0	0	517	623
10	0	0	0	0	516	622
11	0	0	0	0	516	623
12	0	0	0	0	516	622
13	0	0	0	0	517	623
14	0	0	0	0	517	622
15	0	0	0	0	517	623
0	0	0	0	0	518	623
1	0	0	0	0	518	623
2	0	0	0	0	518	623
3	0	0	0	0	518	624
4	0	0	0	0	518	623
5	0	0	0	0	519	623
6	0	0	0	0	519	623
7	0	0	0	0	519	624
8	0	0	0	0	519	624
9	0	0	0	0	519	624
10	0	0	0	0	519	624
11	0	0	0	0	519	624
12	0	0	0	0	519	624
13	0	0	0	0	519	624
14	0	0	0	0	519	624
15	0	0	0	0	519	624
0	0	0	0	0	520	624
1	0	0	0	0	519	624
2	0	0	0	0	520	624
3	0	0	0	0	520	625
4	0	0	0	0	520	624
5	0	0	0	0	520	624
6	0	0	0	0	521	624
7	0	0	0	0	520	624
8	0	0	0	0	520	624
9	0	0	0	0	520	625
10	0	0	0	0	520	624
11	0	0	0	0	520	625
12	0	0	0	0	520	624
13	0	0	0	0	520	625
14	0	0	0	0	520	624
15	0	0	0	0	520	624
0	0	0	0	0	521	625
1	0	0	0	0	521	624
2	0	0	0	0	520	625
3	0	0	0	0	520	626
4	0	0	0	0	520	625
5	0	0	0	0	520	625
6	0	0	0	0	520	625
7	0	0	0	0	521	625
8	0	0	0	0	521	625
9	0	0	0	0	521	624
10	0	0	0	0	522	625
11	0	0	0	0	522	625
12	0	0	0	0	522	625
13	0	0	0	0	521	625
14	0	0	0	0	521	625
15	0	0	0	0	521	625
0	0	0	0	0	521	624
1	0	0	0	0	521	624
2	0	0	0	0	521	624
3	0	0	0	0	521	625
4	0	0	0	0	522	624
5	0	0	0	0	522	624
6	0	0	0	0	522	624
7	0	0	0	0	522	625
8	0	0	0	0	522	624
9	0	0	0	0	522	624
10	0	0	0	0	522	624
11	0	0	0	0	521	624
12	0	0	0	0	522	624
13	0	0	0	0	523	624
14	0	0	0	0	523	624
15	0	0	0	0	524	624
0	0	0	0	0	524	623
1	0	0	0	0	524	623
2	0	0	0	0	524	624
3	0	0	0	0	524	625
4	0	0	0	0	524	624
5	0	0	0	0	524	624
6	0	0	0	0	524	624
7	0	0	0	0	523	624
8	0	0	0	0	523	624
9	0	0	0	0	523	623
10	0	0	0	0	524	624
11	0	0	0	0	524	624
12	0	0	0	0	524	623
13	0	0	0	0	524	623
14	0	0	0	0	524	623
15	0	0	0	0	524	622
0	0	0	0	0	524	622
1	0	0	0	0	524	622
2	0	0	0	0	524	622
3	0	0	0	0	524	623
4	0	0	0	0	523	622
5	0	0	0	0	523	622
6	0	0	0	0	522	622
7	0	0	0	0	523	623
8	0	0	0	0	522	622
9	0	0	0	0	522	622
10	0	0	0	0	523	622
11	0	0	0	0	523	622
12	0	0	0	0	523	622
13	0	0	0	0	523	621
14	0	0	0	0	523	621
15	0	0	0	0	524	622
0	0	0	0	0	524	622
1	0	0	0	0	523	621
2	0	0	0	0	524	621
3	0	0	0	0	524	622
4	0	0	0	0	523	622
5	0	0	0	0	523	621
6	0	0	0	0	524	622
7	0	0	0	0	524	621
8	0	0	0	0	524	621
9	0	0	0	0	524	621
10	0	0	0	0	524	621
11	0	0	0	0	525	622
12	0	0	0	0	526	621
13	0	0	0	0	526	621
14	0	0	0	0	526	621
15	0	0	0	0	526	621
0	0	0	0	0	525	621
1	0	0	0	0	525	621
2	0	0	0	0	526	621
3	0	0	0	0	526	622
4	0	0	0	0	526	621
5	0	0	0	0	526	622
6	0	0	0	0	525	621
7	0	0	0	0	525	621
8	0	0	0	0	524	621
9	0	0	0	0	524	621
10	0	0	0	0	525	621
11	0	0	0	0	525	622
12	0	0	0	0	525	622
13	0	0	0	0	524	622
14	0	0	0	0	524	622
15	0	0	0	0	524	622
0	0	0	0	0	524	622
1	0	0	0	0	524	622
2	0	0	0	0	524	622
3	0	0	0	0	524	623
4	0	0	0	0	523	622
5	0	0	0	0	523	622
6	0	0	0	0	523	623
7	0	0	0	0	523	622
8	0	0	0	0	523	622
9	0	0	0	0	523	622
10	0	0	0	0	522	622
11	0	0	0	0	523	622
12	0	0	0	0	523	622
13	0	0	0	0	523	622
14	0	0	0	0	523	622
15	0	0	0	0	523	622
0	0	0	0	0	523	622
1	0	0	0	0	523	622
2	0	0	0	0	523	623
3	0	0	0	0	522	623
4	0	0	0	0	523	623
5	0	0	0	0	523	623
6	0	0	0	0	522	623
7	0	0	0	0	521	623
8	0	0	0	0	522	623
9	0	0	0	0	522	623
10	0	0	0	0	521	622
11	0	0	0	0	522	623
12	0	0	0	0	521	623
13	0	0	0	0	522	624
14	0	0	0	0	522	623
15	0	0	0	0	522	623
0	0	0	0	0	521	623
1	0	0	0	0	522	623
2	0	0	0	0	521	623
3	0	0	0	0	521	624
4	0	0	0	0	521	624
5	0	0	0	0	521	624
6	0	0	0	0	521	624
7	0	0	0	0	520	624
8	0	0	0	0	520	624
9	0	0	0	0	520	624
10	0	0	0	0	520	624
11	0	0	0	0	520	625
12	0	0	0	0	520	624
13	0	0	0	0	520	624
14	0	0	0	0	520	624
15	0	0	0	0	520	624
0	0	0	0	0	520	624
1	0	0	0	0	520	624
2	0	0	0	0	520	624
3	0	0	0	0	520	625
4	0	0	0	0	520	624
5	0	0	0	0	519	624
6	0	0	0	0	520	624
7	0	0	0	0	519	624
8	0	0	0	0	520	624
9	0	0	0	0	520	624
10	0	0	0	0	520	624
11	0	0	0	0	520	625
12	0	0	0	0	519	624
13	0	0	0	0	520	624
14	0	0	0	0	520	624
15	0	0	0	0	520	624
0	0	0	0	0	519	624
1	0	0	0	0	519	624
2	0	0	0	0	519	624
3	0	0	0	0	519	625
4	0	0	0	0	518	624
5	0	0	0	0	519	624
6	0	0	0	0	519	624
7	0	0	0	0	519	624
8	0	0	0	0	519	624
9	0	0	0	0	518	623
10	0	0	0	0	518	623
11	0	0	0	0	518	624
12	0	0	0	0	517	623
13	0	0	0	0	516	623
14	0	0	0	0	517	623
15	0	0	0	0	517	623
0	0	0	0	0	517	623
1	0	0	0	0	516	623
2	0	0	0	0	517	623
3	0	0	0	0	517	624
4	0	0	0	0	517	623
5	0	0	0	0	516	623
6	0	0	0	0	517	623
7	0	0	0	0	517	623
8	0	0	0	0	517	623
9	0	0	0	0	517	623
10	0	0	0	0	517	623
11	0	0	0	0	518	623
12	0	0	0	0	518	622
13	0	0	0	0	519	622
14	0	0	0	0	519	623
15	0	0	0	0	519	622
0	0	0	0	0	520	622
1	0	0	0	0	520	622
2	0	0	0	0	521	622
3	0	0	0	0	521	623
4	0	0	0	0	521	622
5	0	0	0	0	522	622
6	0	0	0	0	522	622
7	0	0	0	0	522	622
8	0	0	0	0	522	622
9	0	0	0	0	522	621
10	0	0	0	0	522	621
11	0	0	0	0	522	622
12	0	0	0	0	522	622
13	0	0	0	0	523	622
14	0	0	0	0	524	622
15	0	0	0	0	524	622
0	0	0	0	0	524	621
1	0	0	0	0	524	621
2	0	0	0	0	524	622
3	0	0	0	0	524	623
4	0	0	0	0	524	621
5	0	0	0	0	524	622
6	0	0	0	0	523	622
7	0	0	0	0	524	622
8	0	0	0	0	524	622
9	0	0	0	0	524	622
10	0	0	0	0	524	622
11	0	0	0	0	524	623
12	0	0	0	0	525	622
13	0	0	0	0	525	622
14	0	0	0	0	525	622
15	0	0	0	0	525	622
0	0	0	0	0	525	622
1	0	0	0	0	525	622
2	0	0	0	0	526	622
3	0	0	0	0	526	623
4	0	0	0	0	525	621
5	0	0	0	0	525	622
6	0	0	0	0	525	622
7	0	0	0	0	526	621
8	0	0	0	0	526	622
9	0	0	0	0	526	622
10	0	0	0	0	525	622
11	0	0	0	0	525	623
12	0	0	0	0	524	623
13	0	0	0	0	524	622
14	0	0	0	0	523	623
15	0	0	0	0	524	622
0	0	0	0	0	524	622
1	0	0	0	0	524	622
2	0	0	0	0	525	622
3	0	0	0	0	525	623
4	0	0	0	0	526	623
5	0	0	0	0	526	623
6	0	0	0	0	527	623
7	0	0	0	0	527	623
8	0	0	0	0	527	623
9	0	0	0	0	527	623
10	0	0	0	0	527	622
11	0	0	0	0	527	623
12	0	0	0	0	527	622
13	0	0	0	0	528	623
14	0	0	0	0	528	622
15	0	0	0	0	528	623
0	0	0	0	0	528	622
1	0	0	0	0	527	622
2	0	0	0	0	528	622
3	0	0	0	0	528	623
4	0	0	0	0	528	623
5	0	0	0	0	528	622
6	0	0	0	0	529	623
7	0	0	0	0	530	623
8	0	0	0	0	530	622
9	0	0	0	0	530	623
10	0	0	0	0	530	622
11	0	0	0	0	530	624
12	0	0	0	0	530	623
13	0	0	0	0	529	623
14	0	0	0	0	529	624
15	0	0	0	0	530	623
0	0	0	0	0	530	624
1	0	0	0	0	529	623
2	0	0	0	0	529	623
3	0	0	0	0	530	624
4	0	0	0	0	529	623
5	0	0	0	0	529	623
6	0	0	0	0	529	623
7	0	0	0	0	529	623
8	0	0	0	0	529	623
9	0	0	0	0	529	624
10	0	0	0	0	529	624
11	0	0	0	0	528	624
12	0	0	0	0	528	624
13	0	0	0	0	527	623
14	0	0	0	0	527	624
15	0	0	0	0	526	624
0	0	0	0	0	527	624
1	0	0	0	0	526	623
2	0	0	0	0	526	624
3	0	0	0	0	526	624
4	0	0	0	0	526	624
5	0	0	0	0	526	624
6	0	0	0	0	526	623
7	0	0	0	0	526	623
8	0	0	0	0	526	623
9	0	0	0	0	526	623
10	0	0	0	0	526	623
11	0	0	0	0	526	623
12	0	0	0	0	527	622
13	0	0	0	0	526	623
14	0	0	0	0	526	622
15	0	0	0	0	526	623
0	0	0	0	0	526	622
1	0	0	0	0	527	622
2	0	0	0	0	527	622
3	0	0	0	0	526	623
4	0	0	0	0	526	622
5	0	0	0	0	527	622
6	0	0	0	0	527	622
7	0	0	0	0	526	622
8	0	0	0	0	526	622
9	0	0	0	0	526	622
10	0	0	0	0	526	621
11	0	0	0	0	526	622
12	0	0	0	0	526	621
13	0	0	0	0	525	622
14	0	0	0	0	526	622
15	0	0	0	0	526	622
0	0	0	0	0	526	622
1	0	0	0	0	526	622
2	0	0	0	0	526	622
3	0	0	0	0	527	622
4	0	0	0	0	526	622
5	0	0	0	0	526	622
6	0	0	0	0	527	622
7	0	0	0	0	527	622
8	0	0	0	0	528	622
9	0	0	0	0	528	622
10	0	0	0	0	528	622
11	0	0	0	0	528	623
12	0	0	0	0	530	622
13	0	0	0	0	530	622
14	0	0	0	0	530	622
15	0	0	0	0	531	622
0	0	0	0	0	531	622
1	0	0	0	0	530	622
2	0	0	0	0	530	622
3	0	0	0	0	530	622
4	0	0	0	0	530	622
5	0	0	0	0	530	622
6	0	0	0	0	529	622
7	0	0	0	0	529	621
8	0	0	0	0	530	622
9	0	0	0	0	530	622
10	0	0	0	0	530	623
11	0	0	0	0	529	623
12	0	0	0	0	529	623
13	0	0	0	0	529	622
14	0	0	0	0	529	623
15	0	0	0	0	529	623
0	0	0	0	0	529	623
1	0	0	0	0	528	623
2	0	0	0	0	528	623
3	0	0	0	0	528	624
4	0	0	0	0	528	623
5	0	0	0	0	528	623
6	0	0	0	0	528	622
7	0	0	0	0	528	622
8	0	0	0	0	527	622
9	0	0	0	0	527	622
10	0	0	0	0	527	622
11	0	0	0	0	527	623
12	0	0	0	0	526	622
13	0	0	0	0	525	623
14	0	0	0	0	525	623
15	0	0	0	0	524	623
0	0	0	0	0	525	623
1	0	0	0	0	525	623
2	0	0	0	0	525	624
3	0	0	0	0	525	624
4	0	0	0	0	524	624
5	0	0	0	0	525	623
6	0	0	0	0	524	623
7	0	0	0	0	525	624
8	0	0	0	0	524	623
9	0	0	0	0	524	623
10	0	0	0	0	524	623
11	0	0	0	0	524	624
12	0	0	0	0	524	623
13	0	0	0	0	524	624
14	0	0	0	0	524	624
15	0	0	0	0	524	624
0	0	0	0	0	525	623
1	0	0	0	0	524	624
2	0	0	0	0	524	624
3	0	0	0	0	523	625
4	0	0	0	0	523	624
5	0	0	0	0	523	624
6	0	0	0	0	523	624
7	0	0	0	0	523	624
8	0	0	0	0	523	624
9	0	0	0	0	524	625
10	0	0	0	0	524	624
11	0	0	0	0	524	626
12	0	0	0	0	524	625
13	0	0	0	0	524	625
14	0	0	0	0	524	625
15	0	0	0	0	524	625
0	0	0	0	0	524	625
1	0	0	0	0	523	625
2	0	0	0	0	522	624
3	0	0	0	0	523	625
4	0	0	0	0	521	625
5	0	0	0	0	522	624
6	0	0	0	0	521	624
7	0	0	0	0	521	624
8	0	0	0	0	520	625
9	0	0	0	0	519	624
10	0	0	0	0	518	624
11	0	0	0	0	515	625
12	0	0	0	0	513	625
13	0	0	0	0	510	624
14	0	0	0	0	505	624
15	0	0	0	0	502	624
0	0	0	0	0	497	624
1	0	0	0	0	492	624
2	0	0	0	0	487	624
3	0	0	0	0	482	624
4	0	0	0	0	477	623
5	0	0	0	0	473	624
6	0	0	0	0	471	624
7	0	0	0	0	469	623
8	0	0	0	0	469	624
9	0	0	0	0	471	623
10	0	0	0	0	474	623
11	0	0	0	0	479	624
12	0	0	0	0	485	623
13	0	0	0	0	491	622
14	0	0	0	0	498	623
15	0	0	0	0	504	623
0	0	0	0	0	510	623
1	0	0	0	0	515	623
2	0	0	0	0	518	622
3	0	0	0	0	522	624
4	0	0	0	0	527	623
5	0	0	0	0	532	623
6	0	0	0	0	539	623
7	0	0	0	0	548	623
8	0	0	0	0	557	623
9	0	0	0	0	571	623
10	0	0	0	0	587	622
11	0	0	0	0	605	623
12	0	0	0	0	624	622
13	0	0	0	0	646	622
14	0	0	0	0	671	622
15	0	0	0	0	699	622
0	0	0	0	0	728	622
1	0	0	0	0	756	622
2	0	0	0	0	783	622
3	0	0	0	0	806	622
4	0	0	0	0	828	622
5	0	0	0	0	847	622
6	0	0	0	0	862	622
7	0	0	0	0	876	622
8	0	0	0	0	886	622
9	0	0	0	0	890	622
10	0	0	0	0	887	622
11	0	0	0	0	879	622
12	0	0	0	0	871	622
13	0	0	0	0	859	622
14	0	0	0	0	835	622
15	0	0	0	0	793	622
0	0	0	0	0	743	622
1	0	0	0	0	694	622
2	0	0	0	0	655	622
3	0	0	0	0	625	623
4	0	0	0	0	606	622
5	0	0	0	0	591	622
6	0	0	0	0	578	622
7	0	0	0	0	567	621
8	0	0	0	0	557	622
9	0	0	0	0	548	622
10	0	0	0	0	541	621
11	0	0	0	0	535	623
12	0	0	0	0	528	622
13	0	0	0	0	521	622
14	0	0	0	0	514	622
15	0	0	0	0	506	622
0	0	0	0	0	499	621
1	0	0	0	0	491	621
2	0	0	0	0	483	622
3	0	0	0	0	476	623
4	0	0	0	0	468	622
5	0	0	0	0	462	622
6	0	0	0	0	455	622
7	0	0	0	0	450	622
8	0	0	0	0	446	622
9	0	0	0	0	441	622
10	0	0	0	0	439	623
11	0	0	0	0	436	623
12	0	0	0	0	433	623
13	0	0	0	0	432	622
14	0	0	0	0	430	622
15	0	0	0	0	430	623
0	0	0	0	0	428	622
1	0	0	0	0	427	622
2	0	0	0	0	428	622
3	0	0	0	0	428	623
4	0	0	0	0	428	623
5	0	0	0	0	427	622
6	0	0	0	0	427	622
7	0	0	0	0	427	622
8	0	0	0	0	427	622
9	0	0	0	0	428	622
10	0	0	0	0	428	621
11	0	0	0	0	429	622
12	0	0	0	0	429	622
13	0	0	0	0	429	622
14	0	0	0	0	428	622
15	0	0	0	0	428	622
0	0	0	0	0	429	622
1	0	0	0	0	430	622
2	0	0	0	0	431	622
3	0	0	0	0	431	623
4	0	0	0	0	432	622
5	0	0	0	0	433	622
6	0	0	0	0	434	622
7	0	0	0	0	435	621
8	0	0	0	0	436	622
9	0	0	0	0	437	622
10	0	0	0	0	438	622
11	0	0	0	0	439	623
12	0	0	0	0	440	622
13	0	0	0	0	440	622
14	0	0	0	0	441	622
15	0	0	0	0	441	622
0	0	0	0	0	442	622
1	0	0	0	0	443	622
2	0	0	0	0	445	622
3	0	0	0	0	445	623
4	0	0	0	0	446	622
5	0	0	0	0	448	623
6	0	0	0	0	448	623
7	0	0	0	0	449	623
8	0	0	0	0	450	623
9	0	0	0	0	450	623
10	0	0	0	0	451	623
11	0	0	0	0	452	624
12	0	0	0	0	452	623
13	0	0	0	0	454	623
14	0	0	0	0	454	623
15	0	0	0	0	454	624
0	0	0	0	0	455	624
1	0	0	0	0	456	624
2	0	0	0	0	457	624
3	0	0	0	0	457	625
4	0	0	0	0	458	624
5	0	0	0	0	459	624
6	0	0	0	0	460	624
7	0	0	0	0	461	624
8	0	0	0	0	462	624
9	0	0	0	0	462	624
10	0	0	0	0	463	623
11	0	0	0	0	463	625
12	0	0	0	0	463	624
13	0	0	0	0	464	624
14	0	0	0	0	465	624
15	0	0	0	0	466	624
0	0	0	0	0	467	624
1	0	0	0	0	467	624
2	0	0	0	0	468	624
3	0	0	0	0	468	625
4	0	0	0	0	468	624
5	0	0	0	0	469	624
6	0	0	0	0	469	624
7	0	0	0	0	470	624
8	0	0	0	0	470	624
9	0	0	0	0	469	624
10	0	0	0	0	470	624
11	0	0	0	0	471	624
12	0	0	0	0	471	623
13	0	0	0	0	471	624
14	0	0	0	0	472	624
15	0	0	0	0	472	624
0	0	0	0	0	472	624
1	0	0	0	0	472	624
2	0	0	0	0	473	623
3	0	0	0	0	473	623
4	0	0	0	0	473	623
5	0	0	0	0	474	623
6	0	0	0	0	474	623
7	0	0	0	0	474	622
8	0	0	0	0	474	622
9	0	0	0	0	474	622
10	0	0	0	0	474	622
11	0	0	0	0	473	624
12	0	0	0	0	473	622
13	0	0	0	0	473	623
14	0	0	0	0	473	623
15	0	0	0	0	473	623
0	0	0	0	0	474	623
1	0	0	0	0	475	623
2	0	0	0	0	475	622
3	0	0	0	0	475	623
4	0	0	0	0	476	623
5	0	0	0	0	476	622
6	0	0	0	0	476	623
7	0	0	0	0	476	622
8	0	0	0	0	476	622
9	0	0	0	0	477	622
10	0	0	0	0	477	621
11	0	0	0	0	478	623
12	0	0	0	0	477	622
13	0	0	0	0	478	622
14	0	0	0	0	478	622
15	0	0	0	0	478	622
0	0	0	0	0	478	622
1	0	0	0	0	478	622
2	0	0	0	0	479	623
3	0	0	0	0	479	624
4	0	0	0	0	479	622
5	0	0	0	0	480	623
6	0	0	0	0	480	623
7	0	0	0	0	480	623
8	0	0	0	0	481	624
9	0	0	0	0	481	623
10	0	0	0	0	481	623
11	0	0	0	0	481	624
12	0	0	0	0	482	623
13	0	0	0	0	482	623
14	0	0	0	0	482	623
15	0	0	0	0	483	623
0	0	0	0	0	483	623
1	0	0	0	0	483	623
2	0	0	0	0	484	622
3	0	0	0	0	485	623
4	0	0	0	0	486	623
5	0	0	0	0	486	623
6	0	0	0	0	486	623
7	0	0	0	0	487	623
8	0	0	0	0	487	623
9	0	0	0	0	488	623
10	0	0	0	0	488	622
11	0	0	0	0	489	623
12	0	0	0	0	489	623
13	0	0	0	0	489	623
14	0	0	0	0	490	623
15	0	0	0	0	491	623
0	0	0	0	0	491	623
1	0	0	0	0	492	624
2	0	0	0	0	492	623
3	0	0	0	0	492	624
4	0	0	0	0	493	623
5	0	0	0	0	494	623
6	0	0	0	0	495	623
7	0	0	0	0	495	623
8	0	0	0	0	496	622
9	0	0	0	0	496	623
10	0	0	0	0	497	622
11	0	0	0	0	497	622
12	0	0	0	0	497	622
13	0	0	0	0	498	622
14	0	0	0	0	499	622
15	0	0	0	0	500	622
0	0	0	0	0	501	622
1	0	0	0	0	502	622
2	0	0	0	0	503	622
3	0	0	0	0	504	622
4	0	0	0	0	505	622
5	0	0	0	0	507	621
6	0	0	0	0	507	621
7	0	0	0	0	508	622
8	0	0	0	0	509	622
9	0	0	0	0	510	621
10	0	0	0	0	511	622
11	0	0	0	0	511	622
12	0	0	0	0	512	621
13	0	0	0	0	512	620
14	0	0	0	0	513	621
15	0	0	0	0	513	621
0	0	0	0	0	514	621
1	0	0	0	0	515	621
2	0	0	0	0	516	620
3	0	0	0	0	517	621
4	0	0	0	0	517	620
5	0	0	0	0	518	620
6	0	0	0	0	519	620
7	0	0	0	0	519	620
8	0	0	0	0	520	620
9	0	0	0	0	521	620
10	0	0	0	0	521	620
11	0	0	0	0	521	621
12	0	0	0	0	522	620
13	0	0	0	0	522	620
14	0	0	0	0	523	620
15	0	0	0	0	523	621
0	0	0	0	0	524	621
1	0	0	0	0	524	620
2	0	0	0	0	524	621
3	0	0	0	0	524	622
4	0	0	0	0	525	621
5	0	0	0	0	525	621
6	0	0	0	0	525	621
7	0	0	0	0	526	621
8	0	0	0	0	525	621
9	0	0	0	0	525	621
10	0	0	0	0	525	621
11	0	0	0	0	525	622
12	0	0	0	0	526	621
13	0	0	0	0	525	621
14	0	0	0	0	524	621
15	0	0	0	0	524	621
0	0	0	0	0	524	621
1	0	0	0	0	523	622
2	0	0	0	0	523	621
3	0	0	0	0	521	622
4	0	0	0	0	521	622
5	0	0	0	0	519	622
6	0	0	0	0	518	622
7	0	0	0	0	518	622
8	0	0	0	0	517	622
9	0	0	0	0	516	622
10	0	0	0	0	515	622
11	0	0	0	0	515	623
12	0	0	0	0	514	623
13	0	0	0	0	513	623
14	0	0	0	0	512	623
15	0	0	0	0	512	623
0	0	0	0	0	511	623
1	0	0	0	0	510	623
2	0	0	0	0	509	622
3	0	0	0	0	509	623
4	0	0	0	0	508	622
5	0	0	0	0	508	623
6	0	0	0	0	507	623
7	0	0	0	0	506	622
8	0	0	0	0	506	623
9	0	0	0	0	505	623
10	0	0	0	0	504	623
11	0	0	0	0	504	624
12	0	0	0	0	503	624
13	0	0	0	0	503	624
14	0	0	0	0	502	624
15	0	0	0	0	502	624
0	0	0	0	0	502	623
1	0	0	0	0	501	624
2	0	0	0	0	500	624
3	0	0	0	0	499	625
4	0	0	0	0	500	624
5	0	0	0	0	500	624
6	0	0	0	0	500	624
7	0	0	0	0	500	624
8	0	0	0	0	500	624
9	0	0	0	0	500	624
10	0	0	0	0	500	624
11	0	0	0	0	500	625
12	0	0	0	0	500	624
13	0	0	0	0	499	625
14	0	0	0	0	499	625
15	0	0	0	0	500	625
0	0	0	0	0	499	625
1	0	0	0	0	498	624
2	0	0	0	0	498	624
3	0	0	0	0	498	626
4	0	0	0	0	497	624
5	0	0	0	0	497	624
6	0	0	0	0	498	624
7	0	0	0	0	498	624
8	0	0	0	0	499	624
9	0	0	0	0	499	623
10	0	0	0	0	499	624
11	0	0	0	0	499	624
12	0	0	0	0	499	623
13	0	0	0	0	499	623
14	0	0	0	0	499	623
15	0	0	0	0	499	624
0	0	0	0	0	499	623
1	0	0	0	0	498	623
2	0	0	0	0	499	623
3	0	0	0	0	499	624
4	0	0	0	0	499	623
5	0	0	0	0	499	624
6	0	0	0	0	499	623
7	0	0	0	0	499	624
8	0	0	0	0	499	624
9	0	0	0	0	500	623
10	0	0	0	0	500	624
11	0	0	0	0	500	624
12	0	0	0	0	500	624
13	0	0	0	0	500	623
14	0	0	0	0	501	623
15	0	0	0	0	502	624
0	0	0	0	0	502	623
1	0	0	0	0	502	624
2	0	0	0	0	502	623
3	0	0	0	0	503	624
4	0	0	0	0	503	623
5	0	0	0	0	503	623
6	0	0	0	0	504	623
7	0	0	0	0	504	623
8	0	0	0	0	504	623
9	0	0	0	0	504	623
10	0	0	0	0	504	622
11	0	0	0	0	504	624
12	0	0	0	0	504	622
13	0	0	0	0	504	623
14	0	0	0	0	504	623
15	0	0	0	0	504	622
0	0	0	0	0	504	623
1	0	0	0	0	504	623
2	0	0	0	0	503	623
3	0	0	0	0	503	624
4	0	0	0	0	502	622
5	0	0	0	0	502	623
6	0	0	0	0	502	623
7	0	0	0	0	502	623
8	0	0	0	0	501	623
9	0	0	0	0	502	622
10	0	0	0	0	502	623
11	0	0	0	0	501	624
12	0	0	0	0	501	624
13	0	0	0	0	501	623
14	0	0	0	0	502	624
15	0	0	0	0	503	623
0	0	0	0	0	502	623
1	0	0	0	0	503	624
2	0	0	0	0	503	624
3	0	0	0	0	504	625
4	0	0	0	0	503	624
5	0	0	0	0	503	624
6	0	0	0	0	504	624
7	0	0	0	0	504	624
8	0	0	0	0	504	623
9	0	0	0	0	504	623
10	0	0	0	0	504	624
11	0	0	0	0	504	624
12	0	0	0	0	504	624
13	0	0	0	0	505	623
14	0	0	0	0	504	624
15	0	0	0	0	504	624
0	0	0	0	0	504	624
1	0	0	0	0	504	624
2	0	0	0	0	504	624
3	0	0	0	0	505	624
4	0	0	0	0	505	624
5	0	0	0	0	505	624
6	0	0	0	0	505	624
7	0	0	0	0	505	624
8	0	0	0	0	505	624
9	0	0	0	0	505	624
10	0	0	0	0	505	623
11	0	0	0	0	505	624
12	0	0	0	0	505	623
13	0	0	0	0	505	623
14	0	0	0	0	504	624
15	0	0	0	0	504	624
0	0	0	0	0	504	624
1	0	0	0	0	504	623
2	0	0	0	0	503	624
3	0	0	0	0	503	624
4	0	0	0	0	503	624
5	0	0	0	0	503	624
6	0	0	0	0	502	623
7	0	0	0	0	503	624
8	0	0	0	0	503	624
9	0	0	0	0	503	624
10	0	0	0	0	503	623
11	0	0	0	0	503	623
12	0	0	0	0	503	623
13	0	0	0	0	503	623
14	0	0	0	0	504	622
15	0	0	0	0	504	623
0	0	0	0	0	504	623
1	0	0	0	0	505	623
2	0	0	0	0	505	623
3	0	0	0	0	505	624
4	0	0	0	0	505	623
5	0	0	0	0	505	623
6	0	0	0	0	504	623
7	0	0	0	0	504	623
8	0	0	0	0	504	622
9	0	0	0	0	504	623
10	0	0	0	0	504	623
11	0	0	0	0	504	624
12	0	0	0	0	505	624
13	0	0	0	0	505	623
14	0	0	0	0	505	623
15	0	0	0	0	506	623
0	0	0	0	0	506	624
1	0	0	0	0	506	623
2	0	0	0	0	506	623
3	0	0	0	0	506	624
4	0	0	0	0	506	623
5	0	0	0	0	506	624
6	0	0	0	0	506	624
7	0	0	0	0	506	624
8	0	0	0	0	506	624
9	0	0	0	0	506	623
10	0	0	0	0	507	624
11	0	0	0	0	507	624
12	0	0	0	0	507	624
13	0	0	0	0	507	623
14	0	0	0	0	507	624
15	0	0	0	0	508	624
0	0	0	0	0	507	624
1	0	0	0	0	508	624
2	0	0	0	0	508	624
3	0	0	0	0	508	624
4	0	0	0	0	508	624
5	0	0	0	0	508	624
6	0	0	0	0	509	624
7	0	0	0	0	509	623
8	0	0	0	0	509	623
9	0	0	0	0	510	623
10	0	0	0	0	510	623
11	0	0	0	0	510	624
12	0	0	0	0	510	623
13	0	0	0	0	511	623
14	0	0	0	0	511	623
15	0	0	0	0	511	623
0	0	0	0	0	510	623
1	0	0	0	0	511	623
2	0	0	0	0	510	623
3	0	0	0	0	510	624
4	0	0	0	0	510	623
5	0	0	0	0	510	623
6	0	0	0	0	510	623
7	0	0	0	0	510	623
8	0	0	0	0	510	624
9	0	0	0	0	510	622
10	0	0	0	0	510	622
11	0	0	0	0	510	624
12	0	0	0	0	511	622
13	0	0	0	0	511	623
14	0	0	0	0	511	623
15	0	0	0	0	511	622
0	0	0	0	0	511	622
1	0	0	0	0	510	623
2	0	0	0	0	511	623
3	0	0	0	0	511	623
4	0	0	0	0	512	623
5	0	0	0	0	512	623
6	0	0	0	0	512	622
7	0	0	0	0	513	623
8	0	0	0	0	512	622
9	0	0	0	0	513	622
10	0	0	0	0	513	622
11	0	0	0	0	513	622
12	0	0	0	0	514	622
13	0	0	0	0	514	622
14	0	0	0	0	514	622
15	0	0	0	0	514	622
0	0	0	0	0	514	622
1	0	0	0	0	514	622
2	0	0	0	0	513	621
3	0	0	0	0	513	622
4	0	0	0	0	514	621
5	0	0	0	0	513	621
6	0	0	0	0	514	621
7	0	0	0	0	514	621
8	0	0	0	0	514	622
9	0	0	0	0	514	621
10	0	0	0	0	514	621
11	0	0	0	0	515	622
12	0	0	0	0	514	621
13	0	0	0	0	514	621
14	0	0	0	0	515	620
15	0	0	0	0	514	620
0	0	0	0	0	515	620
1	0	0	0	0	514	621
2	0	0	0	0	515	620
3	0	0	0	0	515	621
4	0	0	0	0	515	621
5	0	0	0	0	516	621
6	0	0	0	0	516	620
7	0	0	0	0	516	620
8	0	0	0	0	516	620
9	0	0	0	0	515	620
10	0	0	0	0	515	620
11	0	0	0	0	515	620
12	0	0	0	0	515	620
13	0	0	0	0	515	620
14	0	0	0	0	515	620
15	0	0	0	0	516	621
0	0	0	0	0	516	621
1	0	0	0	0	517	621
2	0	0	0	0	517	621
3	0	0	0	0	517	622
4	0	0	0	0	517	621
5	0	0	0	0	517	622
6	0	0	0	0	516	622
7	0	0	0	0	516	622
8	0	0	0	0	516	622
9	0	0	0	0	516	622
10	0	0	0	0	516	622
11	0	0	0	0	516	623
12	0	0	0	0	516	622
13	0	0	0	0	516	622
14	0	0	0	0	516	623
15	0	0	0	0	516	623
0	0	0	0	0	515	623
1	0	0	0	0	516	623
2	0	0	0	0	516	623
3	0	0	0	0	515	624
4	0	0	0	0	516	623
5	0	0	0	0	516	624
6	0	0	0	0	516	623
7	0	0	0	0	516	623
8	0	0	0	0	517	624
9	0	0	0	0	516	624
10	0	0	0	0	516	624
11	0	0	0	0	516	624
12	0	0	0	0	516	624
13	0	0	0	0	516	624
14	0	0	0	0	516	623
15	0	0	0	0	516	624
0	0	0	0	0	516	624
1	0	0	0	0	516	624
2	0	0	0	0	515	624
3	0	0	0	0	515	624
4	0	0	0	0	515	624
5	0	0	0	0	515	624
6	0	0	0	0	516	624
7	0	0	0	0	516	624
8	0	0	0	0	515	624
9	0	0	0	0	515	624
10	0	0	0	0	515	624
11	0	0	0	0	515	625
12	0	0	0	0	516	624
13	0	0	0	0	516	624
14	0	0	0	0	516	624
15	0	0	0	0	516	624
0	0	0	0	0	516	624
1	0	0	0	0	517	625
2	0	0	0	0	516	624
3	0	0	0	0	515	625
4	0	0	0	0	515	625
5	0	0	0	0	515	624
6	0	0	0	0	515	624
7	0	0	0	0	515	624
8	0	0	0	0	514	624
9	0	0	0	0	514	624
10	0	0	0	0	513	624
11	0	0	0	0	513	625
12	0	0	0	0	513	624
13	0	0	0	0	513	624
14	0	0	0	0	512	624
15	0	0	0	0	513	624
0	0	0	0	0	513	624
1	0	0	0	0	514	624
2	0	0	0	0	514	624
3	0	0	0	0	514	625
4	0	0	0	0	514	625
5	0	0	0	0	514	624
6	0	0	0	0	515	624
7	0	0	0	0	515	624
8	0	0	0	0	515	625
9	0	0	0	0	515	624
10	0	0	0	0	515	624
11	0	0	0	0	515	624
12	0	0	0	0	515	624
13	0	0	0	0	514	623
14	0	0	0	0	513	623
15	0	0	0	0	514	623
0	0	0	0	0	514	623
1	0	0	0	0	514	623
2	0	0	0	0	515	623
3	0	0	0	0	514	623
4	0	0	0	0	515	623
5	0	0	0	0	514	623
6	0	0	0	0	515	623
7	0	0	0	0	515	623
8	0	0	0	0	515	623
9	0	0	0	0	515	622
10	0	0	0	0	515	622
11	0	0	0	0	515	623
12	0	0	0	0	515	622
13	0	0	0	0	516	622
14	0	0	0	0	516	622
15	0	0	0	0	516	622
0	0	0	0	0	516	622
1	0	0	0	0	516	621
2	0	0	0	0	515	622
3	0	0	0	0	515	622
4	0	0	0	0	515	622
5	0	0	0	0	515	621
6	0	0	0	0	515	621
7	0	0	0	0	516	622
8	0	0	0	0	516	622
9	0	0	0	0	516	621
10	0	0	0	0	516	621
11	0	0	0	0	516	622
12	0	0	0	0	516	621
13	0	0	0	0	516	621
14	0	0	0	0	516	621
15	0	0	0	0	515	621
0	0	0	0	0	515	621
1	0	0	0	0	515	621
2	0	0	0	0	515	621
3	0	0	0	0	514	621
4	0	0	0	0	514	621
5	0	0	0	0	515	621
6	0	0	0	0	515	621
7	0	0	0	0	516	621
8	0	0	0	0	516	620
9	0	0	0	0	516	621
10	0	0	0	0	516	621
11	0	0	0	0	516	621
12	0	0	0	0	516	621
13	0	0	0	0	516	621
14	0	0	0	0	516	621
15	0	0	0	0	516	622
0	0	0	0	0	516	621
1	0	0	0	0	517	621
2	0	0	0	0	516	621
3	0	0	0	0	517	622
4	0	0	0	0	518	622
5	0	0	0	0	518	621
6	0	0	0	0	518	622
7	0	0	0	0	518	622
8	0	0	0	0	518	622
9	0	0	0	0	518	622
10	0	0	0	0	518	621
11	0	0	0	0	518	623
12	0	0	0	0	518	622
13	0	0	0	0	517	622
14	0	0	0	0	516	622
15	0	0	0	0	517	622
0	0	0	0	0	516	622
1	0	0	0	0	516	622
2	0	0	0	0	516	623
3	0	0	0	0	516	623
4	0	0	0	0	516	623
5	0	0	0	0	516	622
6	0	0	0	0	516	622
7	0	0	0	0	516	623
8	0	0	0	0	516	622
9	0	0	0	0	516	623
10	0	0	0	0	516	622
11	0	0	0	0	516	623
12	0	0	0	0	516	623
13	0	0	0	0	516	623
14	0	0	0	0	516	623
15	0	0	0	0	517	624
0	0	0	0	0	517	623
1	0	0	0	0	517	624
2	0	0	0	0	517	624
3	0	0	0	0	518	624
4	0	0	0	0	518	624
5	0	0	0	0	517	624
6	0	0	0	0	517	624
7	0	0	0	0	518	624
8	0	0	0	0	518	624
9	0	0	0	0	518	624
10	0	0	0	0	517	624
11	0	0	0	0	517	625
12	0	0	0	0	518	624
13	0	0	0	0	518	624
14	0	0	0	0	518	624
15	0	0	0	0	518	624
0	0	0	0	0	518	624
1	0	0	0	0	518	624
2	0	0	0	0	518	624
3	0	0	0	0	519	624
4	0	0	0	0	519	624
5	0	0	0	0	519	624
6	0	0	0	0	519	624
7	0	0	0	0	519	624
8	0	0	0	0	519	625
9	0	0	0	0	519	624
10	0	0	0	0	519	624
11	0	0	0	0	519	625
12	0	0	0	0	519	623
13	0	0	0	0	519	624
14	0	0	0	0	520	624
15	0	0	0	0	519	624
0	0	0	0	0	519	624
1	0	0	0	0	520	624
2	0	0	0	0	519	624
3	0	0	0	0	519	624
4	0	0	0	0	518	624
5	0	0	0	0	518	623
6	0	0	0	0	518	623
7	0	0	0	0	518	623
8	0	0	0	0	518	624
9	0	0	0	0	518	624
10	0	0	0	0	518	623
11	0	0	0	0	518	624
12	0	0	0	0	519	624
13	0	0	0	0	519	624
14	0	0	0	0	520	623
15	0	0	0	0	521	623
0	0	0	0	0	521	623
1	0	0	0	0	521	623
2	0	0	0	0	520	623
3	0	0	0	0	520	623
4	0	0	0	0	520	622
5	0	0	0	0	521	622
6	0	0	0	0	520	623
7	0	0	0	0	521	623
8	0	0	0	0	521	623
9	0	0	0	0	522	623
10	0	0	0	0	522	622
11	0	0	0	0	522	623
12	0	0	0	0	522	622
13	0	0	0	0	522	622
14	0	0	0	0	523	622
15	0	0	0	0	523	622
0	0	0	0	0	523	622
1	0	0	0	0	523	622
2	0	0	0	0	523	622
3	0	0	0	0	523	623
4	0	0	0	0	523	622
5	0	0	0	0	523	622
6	0	0	0	0	523	622
7	0	0	0	0	522	622
8	0	0	0	0	522	622
9	0	0	0	0	521	622
10	0	0	0	0	521	623
11	0	0	0	0	521	623
12	0	0	0	0	521	622
13	0	0	0	0	521	622
14	0	0	0	0	521	622
15	0	0	0	0	522	622
0	0	0	0	0	522	622
1	0	0	0	0	522	622
2	0	0	0	0	522	622
3	0	0	0	0	521	622
4	0	0	0	0	521	622
5	0	0	0	0	521	621
6	0	0	0	0	521	622
7	0	0	0	0	521	621
8	0	0	0	0	521	622
9	0	0	0	0	521	622
10	0	0	0	0	520	622
11	0	0	0	0	521	622
12	0	0	0	0	520	621
13	0	0	0	0	520	621
14	0	0	0	0	520	622
15	0	0	0	0	520	622
0	0	0	0	0	520	622
1	0	0	0	0	520	622
2	0	0	0	0	520	621
3	0	0	0	0	519	622
4	0	0	0	0	519	621
5	0	0	0	0	519	621
6	0	0	0	0	519	622
7	0	0	0	0	519	622
8	0	0	0	0	519	622
9	0	0	0	0	519	621
10	0	0	0	0	519	621
11	0	0	0	0	519	622
12	0	0	0	0	519	621
13	0	0	0	0	519	622
14	0	0	0	0	519	621
15	0	0	0	0	519	621
0	0	0	0	0	519	621
1	0	0	0	0	520	621
2	0	0	0	0	520	622
3	0	0	0	0	520	622
4	0	0	0	0	520	622
5	0	0	0	0	520	621
6	0	0	0	0	520	621
7	0	0	0	0	520	622
8	0	0	0	0	520	621
9	0	0	0	0	520	621
10	0	0	0	0	520	621
11	0	0	0	0	520	622
12	0	0	0	0	520	622
13	0	0	0	0	520	622
14	0	0	0	0	519	622
15	0	0	0	0	519	622
0	0	0	0	0	519	621
1	0	0	0	0	519	622
2	0	0	0	0	519	622
3	0	0	0	0	519	622
4	0	0	0	0	518	622
5	0	0	0	0	518	622
6	0	0	0	0	519	622
7	0	0	0	0	518	623
8	0	0	0	0	519	622
9	0	0	0	0	519	622
10	0	0	0	0	519	622
11	0	0	0	0	519	623
12	0	0	0	0	519	622
13	0	0	0	0	519	622
14	0	0	0	0	519	622
15	0	0	0	0	519	623
0	0	0	0	0	519	623
1	0	0	0	0	519	623
2	0	0	0	0	519	622
3	0	0	0	0	519	624
4	0	0	0	0	519	623
5	0	0	0	0	520	623
6	0	0	0	0	520	623
7	0	0	0	0	520	623
8	0	0	0	0	519	623
9	0	0	0	0	519	623
10	0	0	0	0	518	623
11	0	0	0	0	518	624
12	0	0	0	0	518	622
13	0	0	0	0	518	622
14	0	0	0	0	518	622
15	0	0	0	0	517	623
0	0	0	0	0	517	623
1	0	0	0	0	518	623
2	0	0	0	0	517	623
3	0	0	0	0	517	623
4	0	0	0	0	517	623
5	0	0	0	0	517	623
6	0	0	0	0	518	623
7	0	0	0	0	519	624
8	0	0	0	0	519	623
9	0	0	0	0	519	623
10	0	0	0	0	518	623
11	0	0	0	0	518	623
12	0	0	0	0	518	623
13	0	0	0	0	517	623
14	0	0	0	0	516	623
15	0	0	0	0	516	623
0	0	0	0	0	517	623
1	0	0	0	0	517	623
2	0	0	0	0	516	623
3	0	0	0	0	517	624
4	0	0	0	0	516	624
5	0	0	0	0	516	623
6	0	0	0	0	515	623
7	0	0	0	0	515	623
8	0	0	0	0	515	623
9	0	0	0	0	514	623
10	0	0	0	0	514	623
11	0	0	0	0	514	624
12	0	0	0	0	513	623
13	0	0	0	0	513	623
14	0	0	0	0	513	623
15	0	0	0	0	514	623
0	0	0	0	0	514	624
1	0	0	0	0	514	624
2	0	0	0	0	515	624
3	0	0	0	0	515	624
4	0	0	0	0	516	623
5	0	0	0	0	517	623
6	0	0	0	0	517	623
7	0	0	0	0	517	624
8	0	0	0	0	517	623
9	0	0	0	0	517	623
10	0	0	0	0	518	623
11	0	0	0	0	517	624
12	0	0	0	0	518	623
13	0	0	0	0	518	623
14	0	0	0	0	518	623
15	0	0	0	0	519	623
0	0	0	0	0	519	623
1	0	0	0	0	519	623
2	0	0	0	0	520	623
3	0	0	0	0	520	624
4	0	0	0	0	521	623
5	0	0	0	0	521	623
6	0	0	0	0	521	623
7	0	0	0	0	521	623
8	0	0	0	0	521	623
9	0	0	0	0	521	622
10	0	0	0	0	521	622
11	0	0	0	0	521	623
12	0	0	0	0	521	622
13	0	0	0	0	521	622
14	0	0	0	0	520	623
15	0	0	0	0	521	623
0	0	0	0	0	521	623
1	0	0	0	0	521	622
2	0	0	0	0	521	622
3	0	0	0	0	521	624
4	0	0	0	0	521	623
5	0	0	0	0	523	623
6	0	0	0	0	522	623
7	0	0	0	0	523	623
8	0	0	0	0	523	623
9	0	0	0	0	523	623
10	0	0	0	0	523	623
11	0	0	0	0	523	623
12	0	0	0	0	523	622
13	0	0	0	0	523	623
14	0	0	0	0	522	622
15	0	0	0	0	522	622
0	0	0	0	0	521	622
1	0	0	0	0	521	622
2	0	0	0	0	520	622
3	0	0	0	0	520	623
4	0	0	0	0	519	623
5	0	0	0	0	519	622
6	0	0	0	0	519	622
7	0	0	0	0	519	622
8	0	0	0	0	519	622
9	0	0	0	0	519	623
10	0	0	0	0	519	623
11	0	0	0	0	519	623
12	0	0	0	0	519	623
13	0	0	0	0	520	622
14	0	0	0	0	520	623
15	0	0	0	0	520	623
0	0	0	0	0	520	622
1	0	0	0	0	520	622
2	0	0	0	0	520	622
3	0	0	0	0	521	623
4	0	0	0	0	520	622
5	0	0	0	0	520	623
6	0	0	0	0	520	622
7	0	0	0	0	520	623
8	0	0	0	0	520	622
9	0	0	0	0	519	623
10	0	0	0	0	519	623
11	0	0	0	0	519	623
12	0	0	0	0	519	622
13	0	0	0	0	520	623
14	0	0	0	0	519	623
15	0	0	0	0	519	623
0	0	0	0	0	520	623
1	0	0	0	0	519	623
2	0	0	0	0	519	623
3	0	0	0	0	519	623
4	0	0	0	0	519	623
5	0	0	0	0	519	623
6	0	0	0	0	518	622
7	0	0	0	0	518	623
8	0	0	0	0	518	622
9	0	0	0	0	517	622
10	0	0	0	0	517	623
11	0	0	0	0	516	624
12	0	0	0	0	516	623
13	0	0	0	0	515	623
14	0	0	0	0	512	623
15	0	0	0	0	511	623
0	0	0	0	0	508	622
1	0	0	0	0	504	623
2	0	0	0	0	500	623
3	0	0	0	0	496	623
4	0	0	0	0	491	623
5	0	0	0	0	486	622
6	0	0	0	0	482	623
7	0	0	0	0	478	622
8	0	0	0	0	475	623
9	0	0	0	0	473	623
10	0	0	0	0	472	623
11	0	0	0	0	473	624
12	0	0	0	0	475	622
13	0	0	0	0	479	623
14	0	0	0	0	484	622
15	0	0	0	0	490	622
0	0	0	0	0	497	622
1	0	0	0	0	504	622
2	0	0	0	0	511	622
3	0	0	0	0	518	623
4	0	0	0	0	524	622
5	0	0	0	0	529	623
6	0	0	0	0	536	622
7	0	0	0	0	543	623
8	0	0	0	0	548	623
9	0	0	0	0	553	623
10	0	0	0	0	558	622
11	0	0	0	0	564	623
12	0	0	0	0	571	622
13	0	0	0	0	581	622
14	0	0	0	0	594	622
15	0	0	0	0	608	622
0	0	0	0	0	625	622
1	0	0	0	0	645	622
2	0	0	0	0	668	623
3	0	0	0	0	692	623
4	0	0	0	0	716	623
5	0	0	0	0	738	622
6	0	0	0	0	760	623
7	0	0	0	0	779	622
8	0	0	0	0	797	622
9	0	0	0	0	813	623
10	0	0	0	0	825	622
11	0	0	0	0	832	623
12	0	0	0	0	836	623
13	0	0	0	0	836	623
14	0	0	0	0	835	623
15	0	0	0	0	829	622
0	0	0	0	0	809	622
1	0	0	0	0	771	623
2	0	0	0	0	724	623
3	0	0	0	0	676	624
4	0	0	0	0	636	623
5	0	0	0	0	607	622
6	0	0	0	0	591	622
7	0	0	0	0	579	622
8	0	0	0	0	572	622
9	0	0	0	0	564	622
10	0	0	0	0	557	622
11	0	0	0	0	552	622
12	0	0	0	0	548	622
13	0	0	0	0	543	622
14	0	0	0	0	539	622
15	0	0	0	0	536	621
0	0	0	0	0	531	621
1	0	0	0	0	527	621
2	0	0	0	0	521	621
3	0	0	0	0	515	622
4	0	0	0	0	508	621
5	0	0	0	0	502	621
6	0	0	0	0	494	621
7	0	0	0	0	488	621
8	0	0	0	0	481	621
9	0	0	0	0	475	620
10	0	0	0	0	470	620
11	0	0	0	0	465	621
12	0	0	0	0	461	621
13	0	0	0	0	456	621
14	0	0	0	0	454	620
15	0	0	0	0	451	620
0	0	0	0	0	449	620
1	0	0	0	0	447	620
2	0	0	0	0	445	620
3	0	0	0	0	444	620
4	0	0	0	0	443	620
5	0	0	0	0	443	620
6	0	0	0	0	443	620
7	0	0	0	0	443	620
8	0	0	0	0	441	620
9	0	0	0	0	441	620
10	0	0	0	0	440	620
11	0	0	0	0	441	621
12	0	0	0	0	441	620
13	0	0	0	0	441	620
14	0	0	0	0	441	620
15	0	0	0	0	441	620
0	0	0	0	0	442	620
1	0	0	0	0	442	620
2	0	0	0	0	443	620
3	0	0	0	0	444	620
4	0	0	0	0	445	620
5	0	0	0	0	445	620
6	0	0	0	0	445	619
7	0	0	0	0	446	620
8	0	0	0	0	446	620
9	0	0	0	0	446	620
10	0	0	0	0	448	620
11	0	0	0	0	448	620
12	0	0	0	0	449	620
13	0	0	0	0	449	620
14	0	0	0	0	449	620
15	0	0	0	0	451	620
0	0	0	0	0	451	620
1	0	0	0	0	451	621
2	0	0	0	0	452	621
3	0	0	0	0	452	621
4	0	0	0	0	453	621
5	0	0	0	0	454	620
6	0	0	0	0	454	621
7	0	0	0	0	454	620
8	0	0	0	0	455	621
9	0	0	0	0	455	621
10	0	0	0	0	455	621
11	0	0	0	0	456	622
12	0	0	0	0	457	621
13	0	0	0	0	457	621
14	0	0	0	0	458	622
15	0	0	0	0	458	622
0	0	0	0	0	459	622
1	0	0	0	0	460	622
2	0	0	0	0	460	622
3	0	0	0	0	461	623
4	0	0	0	0	461	622
5	0	0	0	0	462	622
6	0	0	0	0	463	623
7	0	0	0	0	463	622
8	0	0	0	0	463	623
9	0	0	0	0	464	623
10	0	0	0	0	464	623
11	0	0	0	0	464	623
12	0	0	0	0	464	623
13	0	0	0	0	464	623
14	0	0	0	0	465	623
15	0	0	0	0	465	623
0	0	0	0	0	465	623
1	0	0	0	0	465	623
2	0	0	0	0	465	623
3	0	0	0	0	466	623
4	0	0	0	0	466	623
5	0	0	0	0	467	622
6	0	0	0	0	468	622
7	0	0	0	0	468	623
8	0	0	0	0	469	623
9	0	0	0	0	469	622
10	0	0	0	0	469	622
11	0	0	0	0	470	623
12	0	0	0	0	471	623
13	0	0	0	0	471	622
14	0	0	0	0	470	622
15	0	0	0	0	471	623
0	0	0	0	0	471	623
1	0	0	0	0	472	623
2	0	0	0	0	472	623
3	0	0	0	0	472	624
4	0	0	0	0	472	623
5	0	0	0	0	472	623
6	0	0	0	0	472	623
7	0	0	0	0	473	623
8	0	0	0	0	473	622
9	0	0	0	0	473	622
10	0	0	0	0	473	623
11	0	0	0	0	474	624
12	0	0	0	0	475	623
13	0	0	0	0	476	623
14	0	0	0	0	476	623
15	0	0	0	0	476	623
0	0	0	0	0	476	623
1	0	0	0	0	476	623
2	0	0	0	0	477	622
3	0	0	0	0	476	623
4	0	0	0	0	477	623
5	0	0	0	0	478	623
6	0	0	0	0	478	622
7	0	0	0	0	479	622
8	0	0	0	0	480	622
9	0	0	0	0	480	622
10	0	0	0	0	480	623
11	0	0	0	0	481	623
12	0	0	0	0	481	623
13	0	0	0	0	482	623
14	0	0	0	0	481	622
15	0	0	0	0	482	623
0	0	0	0	0	481	623
1	0	0	0	0	481	623
2	0	0	0	0	482	623
3	0	0	0	0	482	624
4	0	0	0	0	483	623
5	0	0	0	0	483	624
6	0	0	0	0	484	624
7	0	0	0	0	484	624
8	0	0	0	0	485	623
9	0	0	0	0	485	624
10	0	0	0	0	485	623
11	0	0	0	0	485	624
12	0	0	0	0	485	624
13	0	0	0	0	486	624
14	0	0	0	0	487	624
15	0	0	0	0	487	624
0	0	0	0	0	487	624
1	0	0	0	0	487	624
2	0	0	0	0	488	624
3	0	0	0	0	488	624
4	0	0	0	0	489	624
5	0	0	0	0	489	624
6	0	0	0	0	490	624
7	0	0	0	0	490	624
8	0	0	0	0	491	625
9	0	0	0	0	491	624
10	0	0	0	0	491	624
11	0	0	0	0	491	625
12	0	0	0	0	492	624
13	0	0	0	0	492	624
14	0	0	0	0	492	624
15	0	0	0	0	493	624
0	0	0	0	0	494	624
1	0	0	0	0	495	624
2	0	0	0	0	496	625
3	0	0	0	0	497	625
4	0	0	0	0	497	624
5	0	0	0	0	498	624
6	0	0	0	0	499	624
7	0	0	0	0	499	624
8	0	0	0	0	500	624
9	0	0	0	0	501	624
10	0	0	0	0	502	624
11	0	0	0	0	502	625
12	0	0	0	0	503	624
13	0	0	0	0	503	624
14	0	0	0	0	504	624
15	0	0	0	0	504	624
0	0	0	0	0	505	624
1	0	0	0	0	506	624
2	0	0	0	0	508	624
3	0	0	0	0	509	625
4	0	0	0	0	510	624
5	0	0	0	0	510	623
6	0	0	0	0	512	624
7	0	0	0	0	513	623
8	0	0	0	0	513	623
9	0	0	0	0	515	623
10	0	0	0	0	515	624
11	0	0	0	0	517	623
12	0	0	0	0	518	623
13	0	0	0	0	519	623
14	0	0	0	0	519	623
15	0	0	0	0	519	623
0	0	0	0	0	521	623
1	0	0	0	0	522	623
2	0	0	0	0	523	622
3	0	0	0	0	523	622
4	0	0	0	0	524	622
5	0	0	0	0	525	622
6	0	0	0	0	526	622
7	0	0	0	0	526	622
8	0	0	0	0	527	622
9	0	0	0	0	528	623
10	0	0	0	0	528	622
11	0	0	0	0	529	623
12	0	0	0	0	529	622
13	0	0	0	0	530	622
14	0	0	0	0	531	622
15	0	0	0	0	531	622
0	0	0	0	0	532	623
1	0	0	0	0	533	623
2	0	0	0	0	534	623
3	0	0	0	0	534	623
4	0	0	0	0	534	623
5	0	0	0	0	534	623
6	0	0	0	0	534	622
7	0	0	0	0	534	622
8	0	0	0	0	534	622
9	0	0	0	0	535	622
10	0	0	0	0	535	622
11	0	0	0	0	535	622
12	0	0	0	0	534	622
13	0	0	0	0	533	622
14	0	0	0	0	533	622
15	0	0	0	0	533	621
0	0	0	0	0	532	622
1	0	0	0	0	531	621
2	0	0	0	0	531	621
3	0	0	0	0	530	623
4	0	0	0	0	529	622
5	0	0	0	0	528	622
6	0	0	0	0	527	622
7	0	0	0	0	526	622
8	0	0	0	0	525	622
9	0	0	0	0	524	622
10	0	0	0	0	524	622
11	0	0	0	0	522	623
12	0	0	0	0	521	622
13	0	0	0	0	520	623
14	0	0	0	0	519	622
15	0	0	0	0	517	622
0	0	0	0	0	516	623
1	0	0	0	0	515	622
2	0	0	0	0	515	623
3	0	0	0	0	513	623
4	0	0	0	0	513	622
5	0	0	0	0	512	623
6	0	0	0	0	512	623
7	0	0	0	0	511	623
8	0	0	0	0	510	623
9	0	0	0	0	510	623
10	0	0	0	0	510	623
11	0	0	0	0	509	623
12	0	0	0	0	509	623
13	0	0	0	0	508	623
14	0	0	0	0	508	623
15	0	0	0	0	508	623
0	0	0	0	0	507	623
1	0	0	0	0	507	624
2	0	0	0	0	506	623
3	0	0	0	0	506	624
4	0	0	0	0	505	623
5	0	0	0	0	505	623
6	0	0	0	0	505	623
7	0	0	0	0	505	623
8	0	0	0	0	505	623
9	0	0	0	0	504	623
10	0	0	0	0	504	623
11	0	0	0	0	504	624
12	0	0	0	0	504	623
13	0	0	0	0	504	623
14	0	0	0	0	504	622
15	0	0	0	0	504	622
0	0	0	0	0	505	623
1	0	0	0	0	505	623
2	0	0	0	0	505	622
3	0	0	0	0	504	623
4	0	0	0	0	504	622
5	0	0	0	0	505	622
6	0	0	0	0	504	622
7	0	0	0	0	505	622
8	0	0	0	0	504	622
9	0	0	0	0	505	622
10	0	0	0	0	506	622
11	0	0	0	0	505	623
12	0	0	0	0	506	622
13	0	0	0	0	506	623
14	0	0	0	0	505	622
15	0	0	0	0	505	623
0	0	0	0	0	505	623
1	0	0	0	0	504	622
2	0	0	0	0	504	622
3	0	0	0	0	504	623
4	0	0	0	0	504	622
5	0	0	0	0	504	622
6	0	0	0	0	504	623
7	0	0	0	0	504	623
8	0	0	0	0	504	622
9	0	0	0	0	505	623
10	0	0	0	0	505	622
11	0	0	0	0	505	624
12	0	0	0	0	505	623
13	0	0	0	0	506	622
14	0	0	0	0	506	623
15	0	0	0	0	506	623
0	0	0	0	0	506	623
1	0	0	0	0	507	623
2	0	0	0	0	507	622
3	0	0	0	0	508	624
4	0	0	0	0	508	623
5	0	0	0	0	508	623
6	0	0	0	0	508	622
7	0	0	0	0	508	623
8	0	0	0	0	507	623
9	0	0	0	0	507	623
10	0	0	0	0	507	624
11	0	0	0	0	507	624
12	0	0	0	0	508	623
13	0	0	0	0	508	623
14	0	0	0	0	508	623
15	0	0	0	0	509	623
0	0	0	0	0	509	623
1	0	0	0	0	509	623
2	0	0	0	0	509	623
3	0	0	0	0	509	624
4	0	0	0	0	509	623
5	0	0	0	0	509	623
6	0	0	0	0	510	624
7	0	0	0	0	510	624
8	0	0	0	0	510	623
9	0	0	0	0	510	623
10	0	0	0	0	511	623
11	0	0	0	0	511	624
12	0	0	0	0	511	623
13	0	0	0	0	511	623
14	0	0	0	0	511	623
15	0	0	0	0	511	623
0	0	0	0	0	511	623
1	0	0	0	0	511	624
2	0	0	0	0	510	623
3	0	0	0	0	510	624
4	0	0	0	0	510	623
5	0	0	0	0	511	624
6	0	0	0	0	511	624
7	0	0	0	0	511	623
8	0	0	0	0	510	624
9	0	0	0	0	510	623
10	0	0	0	0	509	623
11	0	0	0	0	510	625
12	0	0	0	0	509	623
13	0	0	0	0	509	623
14	0	0	0	0	509	624
15	0	0	0	0	509	623
0	0	0	0	0	509	624
1	0	0	0	0	509	623
2	0	0	0	0	509	623
3	0	0	0	0	509	624
4	0	0	0	0	509	623
5	0	0	0	0	510	623
6	0	0	0	0	510	623
7	0	0	0	0	510	623
8	0	0	0	0	510	623
9	0	0	0	0	510	623
10	0	0	0	0	509	623
11	0	0	0	0	509	624
12	0	0	0	0	508	623
13	0	0	0	0	509	623
14	0	0	0	0	509	623
15	0	0	0	0	509	623
0	0	0	0	0	509	623
1	0	0	0	0	508	623
2	0	0	0	0	508	623
3	0	0	0	0	508	624
4	0	0	0	0	509	623
5	0	0	0	0	509	622
6	0	0	0	0	509	622
7	0	0	0	0	510	623
8	0	0	0	0	509	623
9	0	0	0	0	510	623
10	0	0	0	0	510	623
11	0	0	0	0	510	623
12	0	0	0	0	510	623
13	0	0	0	0	511	623
14	0	0	0	0	511	623
15	0	0	0	0	511	623
0	0	0	0	0	510	624
1	0	0	0	0	510	624
2	0	0	0	0	510	623
3	0	0	0	0	510	624
4	0	0	0	0	510	624
5	0	0	0	0	510	624
6	0	0	0	0	510	624
7	0	0	0	0	509	623
8	0	0	0	0	510	624
9	0	0	0	0	509	623
10	0	0	0	0	510	624
11	0	0	0	0	510	624
12	0	0	0	0	511	623
13	0	0	0	0	510	622
14	0	0	0	0	510	622
15	0	0	0	0	510	622
0	0	0	0	0	510	622
1	0	0	0	0	510	622
2	0	0	0	0	510	622
3	0	0	0	0	511	623
4	0	0	0	0	512	622
5	0	0	0	0	512	622
6	0	0	0	0	512	622
7	0	0	0	0	512	622
8	0	0	0	0	512	622
9	0	0	0	0	513	622
10	0	0	0	0	513	622
11	0	0	0	0	513	622
12	0	0	0	0	513	621
13	0	0	0	0	513	621
14	0	0	0	0	513	621
15	0	0	0	0	514	621
0	0	0	0	0	514	621
1	0	0	0	0	515	620
2	0	0	0	0	515	620
3	0	0	0	0	515	621
4	0	0	0	0	515	620
5	0	0	0	0	515	620
6	0	0	0	0	515	620
7	0	0	0	0	515	620
8	0	0	0	0	515	620
9	0	0	0	0	515	620
10	0	0	0	0	516	620
11	0	0	0	0	516	621
12	0	0	0	0	516	620
13	0	0	0	0	516	620
14	0	0	0	0	517	620
15	0	0	0	0	516	620
0	0	0	0	0	517	620
1	0	0	0	0	516	620
2	0	0	0	0	516	620
3	0	0	0	0	516	620
4	0	0	0	0	517	620
5	0	0	0	0	517	620
6	0	0	0	0	517	620
7	0	0	0	0	517	620
8	0	0	0	0	516	620
9	0	0	0	0	516	620
10	0	0	0	0	517	620
11	0	0	0	0	517	620
12	0	0	0	0	517	620
13	0	0	0	0	517	620
14	0	0	0	0	517	620
15	0	0	0	0	517	620
0	0	0	0	0	518	620
1	0	0	0	0	517	621
2	0	0	0	0	517	620
3	0	0	0	0	517	621
4	0	0	0	0	518	620
5	0	0	0	0	518	621
6	0	0	0	0	518	621
7	0	0	0	0	519	621
8	0	0	0	0	519	621
9	0	0	0	0	519	621
10	0	0	0	0	519	620
11	0	0	0	0	519	621
12	0	0	0	0	519	621
13	0	0	0	0	519	621
14	0	0	0	0	519	621
15	0	0	0	0	519	621
0	0	0	0	0	519	620
1	0	0	0	0	519	620
2	0	0	0	0	519	620
3	0	0	0	0	519	621
4	0	0	0	0	519	621
5	0	0	0	0	520	621
6	0	0	0	0	519	621
7	0	0	0	0	519	621
8	0	0	0	0	519	622
9	0	0	0	0	519	621
10	0	0	0	0	519	621
11	0	0	0	0	519	622
12	0	0	0	0	520	622
13	0	0	0	0	520	621
14	0	0	0	0	520	621
15	0	0	0	0	520	621
0	0	0	0	0	520	621
1	0	0	0	0	519	621
2	0	0	0	0	519	621
3	0	0	0	0	518	622
4	0	0	0	0	518	621
5	0	0	0	0	517	621
6	0	0	0	0	516	621
7	0	0	0	0	516	621
8	0	0	0	0	516	621
9	0	0	0	0	517	622
10	0	0	0	0	517	622
11	0	0	0	0	517	622
12	0	0	0	0	517	622
13	0	0	0	0	517	622
14	0	0	0	0	517	622
15	0	0	0	0	517	622
0	0	0	0	0	516	622
1	0	0	0	0	517	622
2	0	0	0	0	517	622
3	0	0	0	0	517	623
4	0	0	0	0	518	622
5	0	0	0	0	517	622
6	0	0	0	0	518	622
7	0	0	0	0	518	622
8	0	0	0	0	517	623
9	0	0	0	0	518	623
10	0	0	0	0	518	622
11	0	0	0	0	519	623
12	0	0	0	0	519	623
13	0	0	0	0	519	623
14	0	0	0	0	519	623
15	0	0	0	0	519	623
0	0	0	0	0	519	623
1	0	0	0	0	519	623
2	0	0	0	0	519	623
3	0	0	0	0	519	623
4	0	0	0	0	518	622
5	0	0	0	0	519	623
6	0	0	0	0	518	622
7	0	0	0	0	518	623
8	0	0	0	0	518	623
9	0	0	0	0	519	622
10	0	0	0	0	520	623
11	0	0	0	0	520	623
12	0	0	0	0	520	623
13	0	0	0	0	520	623
14	0	0	0	0	520	622
15	0	0	0	0	520	622
0	0	0	0	0	521	622
1	0	0	0	0	520	622
2	0	0	0	0	520	622
3	0	0	0	0	520	622
4	0	0	0	0	520	622
5	0	0	0	0	520	622
6	0	0	0	0	520	622
7	0	0	0	0	520	622
8	0	0	0	0	520	622
9	0	0	0	0	520	622
10	0	0	0	0	520	622
11	0	0	0	0	520	623
12	0	0	0	0	520	622
13	0	0	0	0	521	622
14	0	0	0	0	520	621
15	0	0	0	0	521	622
0	0	0	0	0	521	622
1	0	0	0	0	521	621
2	0	0	0	0	521	621
3	0	0	0	0	521	622
4	0	0	0	0	521	621
5	0	0	0	0	522	621
6	0	0	0	0	522	621
7	0	0	0	0	522	620
8	0	0	0	0	523	621
9	0	0	0	0	523	620
10	0	0	0	0	523	620
11	0	0	0	0	523	620
12	0	0	0	0	523	620
13	0	0	0	0	523	620
14	0	0	0	0	523	620
15	0	0	0	0	523	620
0	0	0	0	0	523	620
1	0	0	0	0	523	620
2	0	0	0	0	523	619
3	0	0	0	0	523	620
4	0	0	0	0	523	619
5	0	0	0	0	523	619
6	0	0	0	0	523	620
7	0	0	0	0	523	619
8	0	0	0	0	523	619
9	0	0	0	0	523	619
10	0	0	0	0	523	619
11	0	0	0	0	523	619
12	0	0	0	0	523	620
13	0	0	0	0	524	620
14	0	0	0	0	524	619
15	0	0	0	0	524	619
0	0	0	0	0	524	619
1	0	0	0	0	524	620
2	0	0	0	0	525	619
3	0	0	0	0	525	620
4	0	0	0	0	525	619
5	0	0	0	0	524	619
6	0	0	0	0	524	620
7	0	0	0	0	523	619
8	0	0	0	0	523	619
9	0	0	0	0	523	619
10	0	0	0	0	524	619
11	0	0	0	0	524	620
12	0	0	0	0	525	619
13	0	0	0	0	525	620
14	0	0	0	0	526	620
15	0	0	0	0	526	620
0	0	0	0	0	527	620
1	0	0	0	0	527	620
2	0	0	0	0	527	620
3	0	0	0	0	527	621
4	0	0	0	0	526	620
5	0	0	0	0	526	620
6	0	0	0	0	526	621
7	0	0	0	0	525	621
8	0	0	0	0	525	620
9	0	0	0	0	524	621
10	0	0	0	0	524	621
11	0	0	0	0	524	622
12	0	0	0	0	524	622
13	0	0	0	0	524	622
14	0	0	0	0	525	622
15	0	0	0	0	525	623
0	0	0	0	0	524	623
1	0	0	0	0	525	624
2	0	0	0	0	524	624
3	0	0	0	0	524	624
4	0	0	0	0	524	624
5	0	0	0	0	524	624
6	0	0	0	0	524	625
7	0	0	0	0	525	625
8	0	0	0	0	524	624
9	0	0	0	0	524	625
10	0	0	0	0	524	625
11	0	0	0	0	524	626
12	0	0	0	0	524	625
13	0	0	0	0	524	625
14	0	0	0	0	524	626
15	0	0	0	0	524	626
0	0	0	0	0	524	626
1	0	0	0	0	524	626
2	0	0	0	0	524	626
3	0	0	0	0	524	628
4	0	0	0	0	524	627
5	0	0	0	0	524	627
6	0	0	0	0	524	628
7	0	0	0	0	524	627
8	0	0	0	0	525	628
9	0	0	0	0	525	628
10	0	0	0	0	524	629
11	0	0	0	0	524	630
12	0	0	0	0	524	628
13	0	0	0	0	524	629
14	0	0	0	0	524	630
15	0	0	0	0	524	630
0	0	0	0	0	524	631
1	0	0	0	0	524	630
2	0	0	0	0	524	630
3	0	0	0	0	524	631
4	0	0	0	0	524	631
5	0	0	0	0	524	631
6	0	0	0	0	524	631
7	0	0	0	0	524	631
8	0	0	0	0	524	630
9	0	0	0	0	525	631
10	0	0	0	0	525	631
11	0	0	0	0	524	631
12	0	0	0	0	525	631
13	0	0	0	0	525	630
14	0	0	0	0	524	630
15	0	0	0	0	525	630
0	0	0	0	0	525	631
1	0	0	0	0	525	631
2	0	0	0	0	525	630
3	0	0	0	0	525	632
4	0	0	0	0	525	631
5	0	0	0	0	524	631
6	0	0	0	0	524	631
7	0	0	0	0	525	630
8	0	0	0	0	525	631
9	0	0	0	0	525	631
10	0	0	0	0	526	630
11	0	0	0	0	525	632
12	0	0	0	0	525	631
13	0	0	0	0	525	630
14	0	0	0	0	525	630
15	0	0	0	0	525	630
0	0	0	0	0	525	630
1	0	0	0	0	525	630
2	0	0	0	0	526	630
3	0	0	0	0	524	631
4	0	0	0	0	524	630
5	0	0	0	0	525	631
6	0	0	0	0	524	630
7	0	0	0	0	524	630
8	0	0	0	0	524	630
9	0	0	0	0	525	629
10	0	0	0	0	524	630
11	0	0	0	0	525	630
12	0	0	0	0	525	629
13	0	0	0	0	526	629
14	0	0	0	0	526	629
15	0	0	0	0	526	629
0	0	0	0	0	526	628
1	0	0	0	0	527	628
2	0	0	0	0	527	629
3	0	0	0	0	527	629
4	0	0	0	0	527	628
5	0	0	0	0	527	628
6	0	0	0	0	527	628
7	0	0	0	0	527	628
8	0	0	0	0	527	628
9	0	0	0	0	527	627
10	0	0	0	0	527	627
11	0	0	0	0	527	628
12	0	0	0	0	527	627
13	0	0	0	0	527	627
14	0	0	0	0	527	627
15	0	0	0	0	527	627
0	0	0	0	0	527	627
1	0	0	0	0	527	627
2	0	0	0	0	527	627
3	0	0	0	0	527	628
4	0	0	0	0	527	627
5	0	0	0	0	527	627
6	0	0	0	0	526	627
7	0	0	0	0	526	627
8	0	0	0	0	527	627
9	0	0	0	0	527	627
10	0	0	0	0	527	626
11	0	0	0	0	527	627
12	0	0	0	0	527	627
13	0	0	0	0	527	626
14	0	0	0	0	527	626
15	0	0	0	0	527	625
0	0	0	0	0	527	626
1	0	0	0	0	527	625
2	0	0	0	0	527	625
3	0	0	0	0	527	626
4	0	0	0	0	527	625
5	0	0	0	0	527	625
6	0	0	0	0	527	625
7	0	0	0	0	527	625
8	0	0	0	0	527	624
9	0	0	0	0	527	624
10	0	0	0	0	527	624
11	0	0	0	0	526	625
12	0	0	0	0	526	624
13	0	0	0	0	526	624
14	0	0	0	0	526	624
15	0	0	0	0	526	624
0	0	0	0	0	526	623
1	0	0	0	0	526	624
2	0	0	0	0	526	624
3	0	0	0	0	526	625
4	0	0	0	0	527	624
5	0	0	0	0	526	624
6	0	0	0	0	526	624
7	0	0	0	0	526	624
8	0	0	0	0	525	624
9	0	0	0	0	525	624
10	0	0	0	0	524	624
11	0	0	0	0	524	625
12	0	0	0	0	524	624
13	0	0	0	0	524	624
14	0	0	0	0	524	624
15	0	0	0	0	524	624
0	0	0	0	0	524	623
1	0	0	0	0	523	624
2	0	0	0	0	523	624
3	0	0	0	0	523	624
4	0	0	0	0	523	624
5	0	0	0	0	523	624
6	0	0	0	0	523	624
7	0	0	0	0	524	624
8	0	0	0	0	524	624
9	0	0	0	0	524	625
10	0	0	0	0	524	625
11	0	0	0	0	524	624
12	0	0	0	0	523	623
13	0	0	0	0	524	622
14	0	0	0	0	523	622
15	0	0	0	0	523	622
0	0	0	0	0	523	622
1	0	0	0	0	523	623
2	0	0	0	0	523	624
3	0	0	0	0	523	625
4	0	0	0	0	523	624
5	0	0	0	0	523	624
6	0	0	0	0	523	625
7	0	0	0	0	523	624
8	0	0	0	0	523	624
9	0	0	0	0	523	625
10	0	0	0	0	522	624
11	0	0	0	0	522	625
12	0	0	0	0	522	625
13	0	0	0	0	522	624
14	0	0	0	0	523	625
15	0	0	0	0	522	625
0	0	0	0	0	522	624
1	0	0	0	0	522	625
2	0	0	0	0	523	624
3	0	0	0	0	522	624
4	0	0	0	0	522	623
5	0	0	0	0	522	623
6	0	0	0	0	522	622
7	0	0	0	0	521	622
8	0	0	0	0	521	622
9	0	0	0	0	521	622
10	0	0	0	0	521	622
11	0	0	0	0	520	623
12	0	0	0	0	520	623
13	0	0	0	0	520	623
14	0	0	0	0	519	624
15	0	0	0	0	519	624
0	0	0	0	0	519	624
1	0	0	0	0	519	624
2	0	0	0	0	519	624
3	0	0	0	0	519	625
4	0	0	0	0	519	624
5	0	0	0	0	519	624
6	0	0	0	0	518	624
7	0	0	0	0	518	624
8	0	0	0	0	519	624
9	0	0	0	0	519	624
10	0	0	0	0	519	624
11	0	0	0	0	519	624
12	0	0	0	0	519	624
13	0	0	0	0	519	623
14	0	0	0	0	519	623
15	0	0	0	0	519	623
0	0	0	0	0	519	622
1	0	0	0	0	519	623
2	0	0	0	0	519	623
3	0	0	0	0	519	623
4	0	0	0	0	519	623
5	0	0	0	0	519	622
6	0	0	0	0	519	623
7	0	0	0	0	519	622
8	0	0	0	0	519	622
9	0	0	0	0	518	622
10	0	0	0	0	519	622
11	0	0	0	0	519	623
12	0	0	0	0	519	622
13	0	0	0	0	519	622
14	0	0	0	0	519	621
15	0	0	0	0	519	621
0	0	0	0	0	519	622
1	0	0	0	0	519	622
2	0	0	0	0	519	622
3	0	0	0	0	518	622
4	0	0	0	0	518	622
5	0	0	0	0	518	621
6	0	0	0	0	518	620
7	0	0	0	0	518	621
8	0	0	0	0	518	621
9	0	0	0	0	517	621
10	0	0	0	0	517	621
11	0	0	0	0	517	622
12	0	0	0	0	518	621
13	0	0	0	0	517	622
14	0	0	0	0	517	622
15	0	0	0	0	518	622
0	0	0	0	0	518	622
1	0	0	0	0	517	621
2	0	0	0	0	518	621
3	0	0	0	0	517	622
4	0	0	0	0	517	622
5	0	0	0	0	517	621
6	0	0	0	0	517	622
7	0	0	0	0	518	621
8	0	0	0	0	517	620
9	0	0	0	0	517	620
10	0	0	0	0	517	620
11	0	0	0	0	517	621
12	0	0	0	0	518	620
13	0	0	0	0	517	620
14	0	0	0	0	517	619
15	0	0	0	0	517	619
0	0	0	0	0	517	619
1	0	0	0	0	517	619
2	0	0	0	0	517	619
3	0	0	0	0	516	620
4	0	0	0	0	516	619
5	0	0	0	0	516	619
6	0	0	0	0	516	619
7	0	0	0	0	516	618
8	0	0	0	0	516	618
9	0	0	0	0	516	618
10	0	0	0	0	518	619
11	0	0	0	0	518	619
12	0	0	0	0	517	619
13	0	0	0	0	517	619
14	0	0	0	0	516	619
15	0	0	0	0	516	619
0	0	0	0	0	516	618
1	0	0	0	0	516	618
2	0	0	0	0	516	619
3	0	0	0	0	515	619
4	0	0	0	0	515	618
5	0	0	0	0	515	618
6	0	0	0	0	515	618
7	0	0	0	0	515	619
8	0	0	0	0	515	618
9	0	0	0	0	515	619
10	0	0	0	0	515	619
11	0	0	0	0	514	620
12	0	0	0	0	514	619
13	0	0	0	0	515	618
14	0	0	0	0	515	618
15	0	0	0	0	515	618
0	0	0	0	0	514	618
1	0	0	0	0	514	619
2	0	0	0	0	514	618
3	0	0	0	0	513	619
4	0	0	0	0	515	618
5	0	0	0	0	514	618
6	0	0	0	0	515	619
7	0	0	0	0	515	619
8	0	0	0	0	515	618
9	0	0	0	0	514	618
10	0	0	0	0	514	618
11	0	0	0	0	514	619
12	0	0	0	0	515	618
13	0	0	0	0	514	619
14	0	0	0	0	514	619
15	0	0	0	0	514	618
0	0	0	0	0	514	618
1	0	0	0	0	514	618
2	0	0	0	0	514	618
3	0	0	0	0	514	619
4	0	0	0	0	513	618
5	0	0	0	0	513	618
6	0	0	0	0	512	619
7	0	0	0	0	512	619
8	0	0	0	0	512	619
9	0	0	0	0	512	619
10	0	0	0	0	512	619
11	0	0	0	0	512	620
12	0	0	0	0	512	619
13	0	0	0	0	511	618
14	0	0	0	0	511	619
15	0	0	0	0	511	619
0	0	0	0	0	511	619
1	0	0	0	0	511	619
2	0	0	0	0	511	619
3	0	0	0	0	511	620
4	0	0	0	0	511	619
5	0	0	0	0	510	619
6	0	0	0	0	510	619
7	0	0	0	0	510	619
8	0	0	0	0	510	619
9	0	0	0	0	510	619
10	0	0	0	0	510	620
11	0	0	0	0	511	620
12	0	0	0	0	511	620
13	0	0	0	0	511	620
14	0	0	0	0	511	620
15	0	0	0	0	511	620
0	0	0	0	0	511	620
1	0	0	0	0	510	620
2	0	0	0	0	510	620
3	0	0	0	0	511	622
4	0	0	0	0	511	621
5	0	0	0	0	511	621
6	0	0	0	0	511	621
7	0	0	0	0	511	621
8	0	0	0	0	512	621
9	0	0	0	0	511	621
10	0	0	0	0	511	621
11	0	0	0	0	512	622
12	0	0	0	0	512	621
13	0	0	0	0	512	622
14	0	0	0	0	511	622
15	0	0	0	0	512	621
0	0	0	0	0	512	621
1	0	0	0	0	512	622
2	0	0	0	0	512	621
3	0	0	0	0	513	622
4	0	0	0	0	514	621
5	0	0	0	0	515	621
6	0	0	0	0	516	621
7	0	0	0	0	516	622
8	0	0	0	0	517	623
9	0	0	0	0	517	623
10	0	0	0	0	518	622
11	0	0	0	0	518	623
12	0	0	0	0	518	623
13	0	0	0	0	517	622
14	0	0	0	0	517	622
15	0	0	0	0	517	623
0	0	0	0	0	517	622
1	0	0	0	0	518	622
2	0	0	0	0	518	623
3	0	0	0	0	518	624
4	0	0	0	0	518	623
5	0	0	0	0	517	623
6	0	0	0	0	517	623
7	0	0	0	0	516	623
8	0	0	0	0	516	623
9	0	0	0	0	517	623
10	0	0	0	0	516	622
11	0	0	0	0	516	623
12	0	0	0	0	516	623
13	0	0	0	0	516	622
14	0	0	0	0	515	623
15	0	0	0	0	515	623
0	0	0	0	0	515	623
1	0	0	0	0	515	624
2	0	0	0	0	515	623
3	0	0	0	0	515	624
4	0	0	0	0	515	623
5	0	0	0	0	515	623
6	0	0	0	0	514	623
7	0	0	0	0	514	624
8	0	0	0	0	513	624
9	0	0	0	0	513	624
10	0	0	0	0	513	623
11	0	0	0	0	513	624
12	0	0	0	0	513	623
13	0	0	0	0	513	623
14	0	0	0	0	513	623
15	0	0	0	0	513	623
0	0	0	0	0	513	624
1	0	0	0	0	513	624
2	0	0	0	0	514	624
3	0	0	0	0	514	624
4	0	0	0	0	513	624
5	0	0	0	0	514	624
6	0	0	0	0	515	624
7	0	0	0	0	515	624
8	0	0	0	0	514	624
9	0	0	0	0	514	624
10	0	0	0	0	514	624
11	0	0	0	0	514	625
12	0	0	0	0	513	624
13	0	0	0	0	513	624
14	0	0	0	0	513	624
15	0	0	0	0	513	624
0	0	0	0	0	514	624
1	0	0	0	0	513	624
2	0	0	0	0	513	624
3	0	0	0	0	513	624
4	0	0	0	0	513	624
5	0	0	0	0	513	624
6	0	0	0	0	514	624
7	0	0	0	0	514	624
8	0	0	0	0	514	624
9	0	0	0	0	513	624
10	0	0	0	0	514	624
11	0	0	0	0	514	625
12	0	0	0	0	514	624
13	0	0	0	0	515	624
14	0	0	0	0	514	623
15	0	0	0	0	514	624
0	0	0	0	0	513	623
1	0	0	0	0	513	623
2	0	0	0	0	512	623
3	0	0	0	0	511	624
4	0	0	0	0	509	624
5	0	0	0	0	507	624
6	0	0	0	0	505	624
7	0	0	0	0	502	624
8	0	0	0	0	498	623
9	0	0	0	0	494	624
10	0	0	0	0	489	624
11	0	0	0	0	485	624
12	0	0	0	0	480	623
13	0	0	0	0	475	623
14	0	0	0	0	471	624
15	0	0	0	0	467	624
0	0	0	0	0	465	623
1	0	0	0	0	464	624
2	0	0	0	0	464	624
3	0	0	0	0	466	624
4	0	0	0	0	470	624
5	0	0	0	0	475	624
6	0	0	0	0	480	624
7	0	0	0	0	486	624
8	0	0	0	0	492	624
9	0	0	0	0	497	623
10	0	0	0	0	502	623
11	0	0	0	0	505	624
12	0	0	0	0	507	624
13	0	0	0	0	510	624
14	0	0	0	0	515	624
15	0	0	0	0	521	624
0	0	0	0	0	528	624
1	0	0	0	0	538	624
2	0	0	0	0	551	624
3	0	0	0	0	566	624
4	0	0	0	0	584	623
5	0	0	0	0	604	624
6	0	0	0	0	627	623
7	0	0	0	0	652	624
8	0	0	0	0	679	624
9	0	0	0	0	708	624
10	0	0	0	0	739	624
11	0	0	0	0	766	624
12	0	0	0	0	791	624
13	0	0	0	0	814	624
14	0	0	0	0	835	624
15	0	0	0	0	852	624
0	0	0	0	0	867	624
1	0	0	0	0	879	624
2	0	0	0	0	887	624
3	0	0	0	0	887	624
4	0	0	0	0	882	624
5	0	0	0	0	874	624
6	0	0	0	0	865	624
7	0	0	0	0	851	624
8	0	0	0	0	825	624
9	0	0	0	0	782	624
10	0	0	0	0	732	624
11	0	0	0	0	687	624
12	0	0	0	0	651	624
13	0	0	0	0	625	624
14	0	0	0	0	606	624
15	0	0	0	0	590	624
0	0	0	0	0	576	624
1	0	0	0	0	563	624
2	0	0	0	0	553	624
3	0	0	0	0	544	625
4	0	0	0	0	535	624
5	0	0	0	0	528	624
6	0	0	0	0	520	624
7	0	0	0	0	512	624
8	0	0	0	0	505	624
9	0	0	0	0	496	624
10	0	0	0	0	488	624
11	0	0	0	0	479	625
12	0	0	0	0	472	624
13	0	0	0	0	465	624
14	0	0	0	0	458	624
15	0	0	0	0	452	624
0	0	0	0	0	447	624
1	0	0	0	0	442	624
2	0	0	0	0	438	624
3	0	0	0	0	434	625
4	0	0	0	0	432	624
5	0	0	0	0	430	624
6	0	0	0	0	428	624
7	0	0	0	0	426	624
8	0	0	0	0	425	624
9	0	0	0	0	423	624
10	0	0	0	0	424	624
11	0	0	0	0	423	624
12	0	0	0	0	423	624
13	0	0	0	0	423	624
14	0	0	0	0	423	624
15	0	0	0	0	423	624
0	0	0	0	0	423	624
1	0	0	0	0	424	624
2	0	0	0	0	424	623
3	0	0	0	0	424	624
4	0	0	0	0	425	623
5	0	0	0	0	426	623
6	0	0	0	0	426	623
7	0	0	0	0	427	623
8	0	0	0	0	428	624
9	0	0	0	0	428	624
10	0	0	0	0	428	623
11	0	0	0	0	428	624
12	0	0	0	0	429	623
13	0	0	0	0	430	623
14	0	0	0	0	431	623
15	0	0	0	0	431	623
0	0	0	0	0	432	623
1	0	0	0	0	433	623
2	0	0	0	0	434	623
3	0	0	0	0	435	624
4	0	0	0	0	436	623
5	0	0	0	0	436	623
6	0	0	0	0	438	623
7	0	0	0	0	438	623
8	0	0	0	0	440	623
9	0	0	0	0	440	623
10	0	0	0	0	441	624
11	0	0	0	0	441	624
12	0	0	0	0	442	623
13	0	0	0	0	443	624
14	0	0	0	0	444	623
15	0	0	0	0	444	623
0	0	0	0	0	445	623
1	0	0	0	0	446	624
2	0	0	0	0	447	624
3	0	0	0	0	447	624
4	0	0	0	0	448	624
5	0	0	0	0	449	623
6	0	0	0	0	450	623
7	0	0	0	0	451	624
