# OpenSignals Text File Format. Version 1
# {"98:D3:91:FD:69:48": {"position": 0, "device": "bitalino_rev", "device name": "98:D3:91:FD:69:48", "device connection": "BTH98:D3:91:FD:69:48", "sampling rate": 1000, "resolution": [4, 1, 1, 1, 1, 10, 10], "firmware version": 1281, "comments": "", "keywords": "", "mode": 0, "sync interval": 2, "date": "2021-9-3", "time": "23:19:36.668", "channels": [2, 5], "sensor": ["RAW", "RAW"], "label": ["A2", "A5"], "column": ["nSeq", "I1", "I2", "O1", "O2", "A2", "A5"], "special": [{}, {}], "digital IO": [0, 0, 1, 1], "convertedValues": 0}}
# EndOfHeader
0	0	0	0	0	501	613	
1	0	0	0	0	501	614	
2	0	0	0	0	501	618	
3	0	0	0	0	501	613	
4	0	0	0	0	500	614	
5	0	0	0	0	500	613	
6	0	0	0	0	500	609	
7	0	0	0	0	500	613	
8	0	0	0	0	500	613	
9	0	0	0	0	501	614	
10	0	0	0	0	501	618	
11	0	0	0	0	502	613	
12	0	0	0	0	502	614	
13	0	0	0	0	502	613	
14	0	0	0	0	502	609	
15	0	0	0	0	502	613	
0	0	0	0	0	502	613	
1	0	0	0	0	502	613	
2	0	0	0	0	502	617	
3	0	0	0	0	502	613	
4	0	0	0	0	501	613	
5	0	0	0	0	502	613	
6	0	0	0	0	502	609	
7	0	0	0	0	502	614	
8	0	0	0	0	503	614	
9	0	0	0	0	503	614	
10	0	0	0	0	502	618	
11	0	0	0	0	502	614	
12	0	0	0	0	502	614	
13	0	0	0	0	503	614	
14	0	0	0	0	504	609	
15	0	0	0	0	504	614	
0	0	0	0	0	504	615	
1	0	0	0	0	504	614	
2	0	0	0	0	504	618	
3	0	0	0	0	504	614	
4	0	0	0	0	504	614	
5	0	0	0	0	504	614	
6	0	0	0	0	503	609	
7	0	0	0	0	503	614	
8	0	0	0	0	503	614	
9	0	0	0	0	503	614	
10	0	0	0	0	502	618	
11	0	0	0	0	502	614	
12	0	0	0	0	502	614	
13	0	0	0	0	502	614	
14	0	0	0	0	502	609	
15	0	0	0	0	502	614	
0	0	0	0	0	502	614	
1	0	0	0	0	502	615	
2	0	0	0	0	502	618	
3	0	0	0	0	502	614	
4	0	0	0	0	502	614	
5	0	0	0	0	502	614	
6	0	0	0	0	502	610	
7	0	0	0	0	501	614	
8	0	0	0	0	502	614	
9	0	0	0	0	502	614	
10	0	0	0	0	502	618	
11	0	0	0	0	502	614	
12	0	0	0	0	502	614	
13	0	0	0	0	502	614	
14	0	0	0	0	503	609	
15	0	0	0	0	502	614	
0	0	0	0	0	503	614	
1	0	0	0	0	503	614	
2	0	0	0	0	502	618	
3	0	0	0	0	503	614	
4	0	0	0	0	503	613	
5	0	0	0	0	502	614	
6	0	0	0	0	503	609	
7	0	0	0	0	503	614	
8	0	0	0	0	503	614	
9	0	0	0	0	503	614	
10	0	0	0	0	504	617	
11	0	0	0	0	504	613	
12	0	0	0	0	505	614	
13	0	0	0	0	505	614	
14	0	0	0	0	506	609	
15	0	0	0	0	507	614	
0	0	0	0	0	507	614	
1	0	0	0	0	508	614	
2	0	0	0	0	508	617	
3	0	0	0	0	508	613	
4	0	0	0	0	508	614	
5	0	0	0	0	508	613	
6	0	0	0	0	508	609	
7	0	0	0	0	508	614	
8	0	0	0	0	508	614	
9	0	0	0	0	508	614	
10	0	0	0	0	508	617	
11	0	0	0	0	508	613	
12	0	0	0	0	508	614	
13	0	0	0	0	508	613	
14	0	0	0	0	508	609	
15	0	0	0	0	508	614	
0	0	0	0	0	507	613	
1	0	0	0	0	508	613	
2	0	0	0	0	508	617	
3	0	0	0	0	508	613	
4	0	0	0	0	509	613	
5	0	0	0	0	509	613	
6	0	0	0	0	509	608	
7	0	0	0	0	508	613	
8	0	0	0	0	508	613	
9	0	0	0	0	507	612	
10	0	0	0	0	507	617	
11	0	0	0	0	507	613	
12	0	0	0	0	508	613	
13	0	0	0	0	509	614	
14	0	0	0	0	509	608	
15	0	0	0	0	509	613	
0	0	0	0	0	509	613	
1	0	0	0	0	509	613	
2	0	0	0	0	509	617	
3	0	0	0	0	510	613	
4	0	0	0	0	510	613	
5	0	0	0	0	510	612	
6	0	0	0	0	511	609	
7	0	0	0	0	511	613	
8	0	0	0	0	511	613	
9	0	0	0	0	511	613	
10	0	0	0	0	511	616	
11	0	0	0	0	511	613	
12	0	0	0	0	512	614	
13	0	0	0	0	512	612	
14	0	0	0	0	512	608	
15	0	0	0	0	512	613	
0	0	0	0	0	512	613	
1	0	0	0	0	512	613	
2	0	0	0	0	512	617	
3	0	0	0	0	513	614	
4	0	0	0	0	513	613	
5	0	0	0	0	513	613	
6	0	0	0	0	513	608	
7	0	0	0	0	514	613	
8	0	0	0	0	514	613	
9	0	0	0	0	515	613	
10	0	0	0	0	515	617	
11	0	0	0	0	516	612	
12	0	0	0	0	516	612	
13	0	0	0	0	516	612	
14	0	0	0	0	516	608	
15	0	0	0	0	516	613	
0	0	0	0	0	517	613	
1	0	0	0	0	516	614	
2	0	0	0	0	516	617	
3	0	0	0	0	516	613	
4	0	0	0	0	516	613	
5	0	0	0	0	517	613	
6	0	0	0	0	518	608	
7	0	0	0	0	518	614	
8	0	0	0	0	519	613	
9	0	0	0	0	519	613	
10	0	0	0	0	519	617	
11	0	0	0	0	519	613	
12	0	0	0	0	519	613	
13	0	0	0	0	519	613	
14	0	0	0	0	519	609	
15	0	0	0	0	518	613	
0	0	0	0	0	519	612	
1	0	0	0	0	519	614	
2	0	0	0	0	519	616	
3	0	0	0	0	519	613	
4	0	0	0	0	519	613	
5	0	0	0	0	519	613	
6	0	0	0	0	519	609	
7	0	0	0	0	518	614	
8	0	0	0	0	518	613	
9	0	0	0	0	518	614	
10	0	0	0	0	518	617	
11	0	0	0	0	518	613	
12	0	0	0	0	518	613	
13	0	0	0	0	518	614	
14	0	0	0	0	518	609	
15	0	0	0	0	518	614	
0	0	0	0	0	517	614	
1	0	0	0	0	517	614	
2	0	0	0	0	516	617	
3	0	0	0	0	516	613	
4	0	0	0	0	515	614	
5	0	0	0	0	515	613	
6	0	0	0	0	514	608	
7	0	0	0	0	513	614	
8	0	0	0	0	513	613	
9	0	0	0	0	513	614	
10	0	0	0	0	513	617	
11	0	0	0	0	513	613	
12	0	0	0	0	513	613	
13	0	0	0	0	513	613	
14	0	0	0	0	513	609	
15	0	0	0	0	513	614	
0	0	0	0	0	513	613	
1	0	0	0	0	513	614	
2	0	0	0	0	513	617	
3	0	0	0	0	513	613	
4	0	0	0	0	513	614	
5	0	0	0	0	514	613	
6	0	0	0	0	513	608	
7	0	0	0	0	513	613	
8	0	0	0	0	514	613	
9	0	0	0	0	513	613	
10	0	0	0	0	513	617	
11	0	0	0	0	513	613	
12	0	0	0	0	513	613	
13	0	0	0	0	514	613	
14	0	0	0	0	513	608	
15	0	0	0	0	514	613	
0	0	0	0	0	514	613	
1	0	0	0	0	513	613	
2	0	0	0	0	513	617	
3	0	0	0	0	514	613	
4	0	0	0	0	514	613	
5	0	0	0	0	514	613	
6	0	0	0	0	513	608	
7	0	0	0	0	513	614	
8	0	0	0	0	513	613	
9	0	0	0	0	514	614	
10	0	0	0	0	513	617	
11	0	0	0	0	513	613	
12	0	0	0	0	512	614	
13	0	0	0	0	513	614	
14	0	0	0	0	512	609	
15	0	0	0	0	512	613	
0	0	0	0	0	512	614	
1	0	0	0	0	512	614	
2	0	0	0	0	512	617	
3	0	0	0	0	512	613	
4	0	0	0	0	512	613	
5	0	0	0	0	512	613	
6	0	0	0	0	512	608	
7	0	0	0	0	511	613	
8	0	0	0	0	512	613	
9	0	0	0	0	512	613	
10	0	0	0	0	512	617	
11	0	0	0	0	512	613	
12	0	0	0	0	512	613	
13	0	0	0	0	512	613	
14	0	0	0	0	512	608	
15	0	0	0	0	512	613	
0	0	0	0	0	512	613	
1	0	0	0	0	512	613	
2	0	0	0	0	512	617	
3	0	0	0	0	512	613	
4	0	0	0	0	512	613	
5	0	0	0	0	512	612	
6	0	0	0	0	512	608	
7	0	0	0	0	512	613	
8	0	0	0	0	512	613	
9	0	0	0	0	512	613	
10	0	0	0	0	512	616	
11	0	0	0	0	512	613	
12	0	0	0	0	512	612	
13	0	0	0	0	511	613	
14	0	0	0	0	511	608	
15	0	0	0	0	510	613	
0	0	0	0	0	511	613	
1	0	0	0	0	511	614	
2	0	0	0	0	511	617	
3	0	0	0	0	511	613	
4	0	0	0	0	511	612	
5	0	0	0	0	511	612	
6	0	0	0	0	510	608	
7	0	0	0	0	510	612	
8	0	0	0	0	511	612	
9	0	0	0	0	511	612	
10	0	0	0	0	511	616	
11	0	0	0	0	511	612	
12	0	0	0	0	510	613	
13	0	0	0	0	511	612	
14	0	0	0	0	511	608	
15	0	0	0	0	510	612	
0	0	0	0	0	510	612	
1	0	0	0	0	510	613	
2	0	0	0	0	511	616	
3	0	0	0	0	511	612	
4	0	0	0	0	511	612	
5	0	0	0	0	511	612	
6	0	0	0	0	511	607	
7	0	0	0	0	511	612	
8	0	0	0	0	512	613	
9	0	0	0	0	511	613	
10	0	0	0	0	511	617	
11	0	0	0	0	512	612	
12	0	0	0	0	512	612	
13	0	0	0	0	512	612	
14	0	0	0	0	511	608	
15	0	0	0	0	511	613	
0	0	0	0	0	511	612	
1	0	0	0	0	511	612	
2	0	0	0	0	511	617	
3	0	0	0	0	512	612	
4	0	0	0	0	511	613	
5	0	0	0	0	511	613	
6	0	0	0	0	511	608	
7	0	0	0	0	511	612	
8	0	0	0	0	511	612	
9	0	0	0	0	511	612	
10	0	0	0	0	511	616	
11	0	0	0	0	511	612	
12	0	0	0	0	510	612	
13	0	0	0	0	510	612	
14	0	0	0	0	510	609	
15	0	0	0	0	510	612	
0	0	0	0	0	509	613	
1	0	0	0	0	510	613	
2	0	0	0	0	510	616	
3	0	0	0	0	510	612	
4	0	0	0	0	510	613	
5	0	0	0	0	510	612	
6	0	0	0	0	510	608	
7	0	0	0	0	510	613	
8	0	0	0	0	511	612	
9	0	0	0	0	510	612	
10	0	0	0	0	511	616	
11	0	0	0	0	510	613	
12	0	0	0	0	510	612	
13	0	0	0	0	510	613	
14	0	0	0	0	511	608	
15	0	0	0	0	511	613	
0	0	0	0	0	511	613	
1	0	0	0	0	511	614	
2	0	0	0	0	510	616	
3	0	0	0	0	510	613	
4	0	0	0	0	511	613	
5	0	0	0	0	511	613	
6	0	0	0	0	511	608	
7	0	0	0	0	510	612	
8	0	0	0	0	511	613	
9	0	0	0	0	511	613	
10	0	0	0	0	511	617	
11	0	0	0	0	511	613	
12	0	0	0	0	511	613	
13	0	0	0	0	510	613	
14	0	0	0	0	510	608	
15	0	0	0	0	510	613	
0	0	0	0	0	511	613	
1	0	0	0	0	511	613	
2	0	0	0	0	511	616	
3	0	0	0	0	511	613	
4	0	0	0	0	511	612	
5	0	0	0	0	511	612	
6	0	0	0	0	512	608	
7	0	0	0	0	511	613	
8	0	0	0	0	511	612	
9	0	0	0	0	511	613	
10	0	0	0	0	511	617	
11	0	0	0	0	511	612	
12	0	0	0	0	510	613	
13	0	0	0	0	510	612	
14	0	0	0	0	510	608	
15	0	0	0	0	510	614	
0	0	0	0	0	510	613	
1	0	0	0	0	509	613	
2	0	0	0	0	510	616	
3	0	0	0	0	510	613	
4	0	0	0	0	509	613	
5	0	0	0	0	509	612	
6	0	0	0	0	509	607	
7	0	0	0	0	509	613	
8	0	0	0	0	509	612	
9	0	0	0	0	508	613	
10	0	0	0	0	508	617	
11	0	0	0	0	509	613	
12	0	0	0	0	509	613	
13	0	0	0	0	509	612	
14	0	0	0	0	509	608	
15	0	0	0	0	509	613	
0	0	0	0	0	509	613	
1	0	0	0	0	509	613	
2	0	0	0	0	509	618	
3	0	0	0	0	508	613	
4	0	0	0	0	508	614	
5	0	0	0	0	507	613	
6	0	0	0	0	508	608	
7	0	0	0	0	508	613	
8	0	0	0	0	508	613	
9	0	0	0	0	508	614	
10	0	0	0	0	508	617	
11	0	0	0	0	508	613	
12	0	0	0	0	508	614	
13	0	0	0	0	507	614	
14	0	0	0	0	507	608	
15	0	0	0	0	507	613	
0	0	0	0	0	507	614	
1	0	0	0	0	508	614	
2	0	0	0	0	507	617	
3	0	0	0	0	508	613	
4	0	0	0	0	508	613	
5	0	0	0	0	508	612	
6	0	0	0	0	508	608	
7	0	0	0	0	508	613	
8	0	0	0	0	508	614	
9	0	0	0	0	508	613	
10	0	0	0	0	508	616	
11	0	0	0	0	508	614	
12	0	0	0	0	506	613	
13	0	0	0	0	506	613	
14	0	0	0	0	506	609	
15	0	0	0	0	506	614	
0	0	0	0	0	506	613	
1	0	0	0	0	506	613	
2	0	0	0	0	506	617	
3	0	0	0	0	507	614	
4	0	0	0	0	507	614	
5	0	0	0	0	507	614	
6	0	0	0	0	507	609	
7	0	0	0	0	507	614	
8	0	0	0	0	507	613	
9	0	0	0	0	507	613	
10	0	0	0	0	507	617	
11	0	0	0	0	508	614	
12	0	0	0	0	507	613	
13	0	0	0	0	507	614	
14	0	0	0	0	508	609	
15	0	0	0	0	508	613	
0	0	0	0	0	508	613	
1	0	0	0	0	509	614	
2	0	0	0	0	509	617	
3	0	0	0	0	509	613	
4	0	0	0	0	509	614	
5	0	0	0	0	509	614	
6	0	0	0	0	509	609	
7	0	0	0	0	509	614	
8	0	0	0	0	508	613	
9	0	0	0	0	508	613	
10	0	0	0	0	508	617	
11	0	0	0	0	508	613	
12	0	0	0	0	508	612	
13	0	0	0	0	508	612	
14	0	0	0	0	508	608	
15	0	0	0	0	508	613	
0	0	0	0	0	508	613	
1	0	0	0	0	509	612	
2	0	0	0	0	510	616	
3	0	0	0	0	510	612	
4	0	0	0	0	510	613	
5	0	0	0	0	510	613	
6	0	0	0	0	511	608	
7	0	0	0	0	511	613	
8	0	0	0	0	510	613	
9	0	0	0	0	510	613	
10	0	0	0	0	511	617	
11	0	0	0	0	510	612	
12	0	0	0	0	510	613	
13	0	0	0	0	509	613	
14	0	0	0	0	509	608	
15	0	0	0	0	509	612	
0	0	0	0	0	509	613	
1	0	0	0	0	509	613	
2	0	0	0	0	510	617	
3	0	0	0	0	509	614	
4	0	0	0	0	509	613	
5	0	0	0	0	509	612	
6	0	0	0	0	509	608	
7	0	0	0	0	509	613	
8	0	0	0	0	509	613	
9	0	0	0	0	510	613	
10	0	0	0	0	510	617	
11	0	0	0	0	510	614	
12	0	0	0	0	510	613	
13	0	0	0	0	510	613	
14	0	0	0	0	510	609	
15	0	0	0	0	510	613	
0	0	0	0	0	510	614	
1	0	0	0	0	510	613	
2	0	0	0	0	511	617	
3	0	0	0	0	511	613	
4	0	0	0	0	511	614	
5	0	0	0	0	512	614	
6	0	0	0	0	512	609	
7	0	0	0	0	512	613	
8	0	0	0	0	512	613	
9	0	0	0	0	512	613	
10	0	0	0	0	512	617	
11	0	0	0	0	512	613	
12	0	0	0	0	511	613	
13	0	0	0	0	511	613	
14	0	0	0	0	511	608	
15	0	0	0	0	511	614	
0	0	0	0	0	510	614	
1	0	0	0	0	511	614	
2	0	0	0	0	511	617	
3	0	0	0	0	510	614	
4	0	0	0	0	510	614	
5	0	0	0	0	511	613	
6	0	0	0	0	511	609	
7	0	0	0	0	511	614	
8	0	0	0	0	512	615	
9	0	0	0	0	512	614	
10	0	0	0	0	512	618	
11	0	0	0	0	512	613	
12	0	0	0	0	512	614	
13	0	0	0	0	512	613	
14	0	0	0	0	512	609	
15	0	0	0	0	512	613	
0	0	0	0	0	512	613	
1	0	0	0	0	512	614	
2	0	0	0	0	512	617	
3	0	0	0	0	513	613	
4	0	0	0	0	513	613	
5	0	0	0	0	513	613	
6	0	0	0	0	513	609	
7	0	0	0	0	513	613	
8	0	0	0	0	513	613	
9	0	0	0	0	513	613	
10	0	0	0	0	512	617	
11	0	0	0	0	512	614	
12	0	0	0	0	512	613	
13	0	0	0	0	512	613	
14	0	0	0	0	511	608	
15	0	0	0	0	511	613	
0	0	0	0	0	511	613	
1	0	0	0	0	512	613	
2	0	0	0	0	512	617	
3	0	0	0	0	512	614	
4	0	0	0	0	512	614	
5	0	0	0	0	512	614	
6	0	0	0	0	512	609	
7	0	0	0	0	511	613	
8	0	0	0	0	512	613	
9	0	0	0	0	512	613	
10	0	0	0	0	512	617	
11	0	0	0	0	512	613	
12	0	0	0	0	511	613	
13	0	0	0	0	511	612	
14	0	0	0	0	511	608	
15	0	0	0	0	510	613	
0	0	0	0	0	510	613	
1	0	0	0	0	511	614	
2	0	0	0	0	511	617	
3	0	0	0	0	511	612	
4	0	0	0	0	511	613	
5	0	0	0	0	511	612	
6	0	0	0	0	512	608	
7	0	0	0	0	512	612	
8	0	0	0	0	511	613	
9	0	0	0	0	511	614	
10	0	0	0	0	511	616	
11	0	0	0	0	511	613	
12	0	0	0	0	510	613	
13	0	0	0	0	509	613	
14	0	0	0	0	509	608	
15	0	0	0	0	509	613	
0	0	0	0	0	509	613	
1	0	0	0	0	508	613	
2	0	0	0	0	508	617	
3	0	0	0	0	509	612	
4	0	0	0	0	509	613	
5	0	0	0	0	511	613	
6	0	0	0	0	511	608	
7	0	0	0	0	511	613	
8	0	0	0	0	511	613	
9	0	0	0	0	511	613	
10	0	0	0	0	511	617	
11	0	0	0	0	511	613	
12	0	0	0	0	511	614	
13	0	0	0	0	510	613	
14	0	0	0	0	510	609	
15	0	0	0	0	511	614	
0	0	0	0	0	510	614	
1	0	0	0	0	510	614	
2	0	0	0	0	510	618	
3	0	0	0	0	510	613	
4	0	0	0	0	511	614	
5	0	0	0	0	510	614	
6	0	0	0	0	510	609	
7	0	0	0	0	510	614	
8	0	0	0	0	511	613	
9	0	0	0	0	510	614	
10	0	0	0	0	510	618	
11	0	0	0	0	510	614	
12	0	0	0	0	511	614	
13	0	0	0	0	511	614	
14	0	0	0	0	511	609	
15	0	0	0	0	511	614	
0	0	0	0	0	511	613	
1	0	0	0	0	511	614	
2	0	0	0	0	510	617	
3	0	0	0	0	510	614	
4	0	0	0	0	510	613	
5	0	0	0	0	510	614	
6	0	0	0	0	509	610	
7	0	0	0	0	509	614	
8	0	0	0	0	508	614	
9	0	0	0	0	509	614	
10	0	0	0	0	509	618	
11	0	0	0	0	509	615	
12	0	0	0	0	508	614	
13	0	0	0	0	506	614	
14	0	0	0	0	504	609	
15	0	0	0	0	502	613	
0	0	0	0	0	500	614	
1	0	0	0	0	497	614	
2	0	0	0	0	495	618	
3	0	0	0	0	493	614	
4	0	0	0	0	490	613	
5	0	0	0	0	488	613	
6	0	0	0	0	487	609	
7	0	0	0	0	486	613	
8	0	0	0	0	485	613	
9	0	0	0	0	484	614	
10	0	0	0	0	484	617	
11	0	0	0	0	484	612	
12	0	0	0	0	484	612	
13	0	0	0	0	484	612	
14	0	0	0	0	484	609	
15	0	0	0	0	484	613	
0	0	0	0	0	485	612	
1	0	0	0	0	486	612	
2	0	0	0	0	487	617	
3	0	0	0	0	490	613	
4	0	0	0	0	492	613	
5	0	0	0	0	494	612	
6	0	0	0	0	497	608	
7	0	0	0	0	501	613	
8	0	0	0	0	505	613	
9	0	0	0	0	510	613	
10	0	0	0	0	515	617	
11	0	0	0	0	520	613	
12	0	0	0	0	525	613	
13	0	0	0	0	528	613	
14	0	0	0	0	532	608	
15	0	0	0	0	536	613	
0	0	0	0	0	539	613	
1	0	0	0	0	543	612	
2	0	0	0	0	547	617	
3	0	0	0	0	551	613	
4	0	0	0	0	556	612	
5	0	0	0	0	561	613	
6	0	0	0	0	565	608	
7	0	0	0	0	570	612	
8	0	0	0	0	575	613	
9	0	0	0	0	579	613	
10	0	0	0	0	582	616	
11	0	0	0	0	585	612	
12	0	0	0	0	586	613	
13	0	0	0	0	586	612	
14	0	0	0	0	585	608	
15	0	0	0	0	583	612	
0	0	0	0	0	580	612	
1	0	0	0	0	577	613	
2	0	0	0	0	574	616	
3	0	0	0	0	570	612	
4	0	0	0	0	566	612	
5	0	0	0	0	561	612	
6	0	0	0	0	556	608	
7	0	0	0	0	551	613	
8	0	0	0	0	545	613	
9	0	0	0	0	541	613	
10	0	0	0	0	536	617	
11	0	0	0	0	531	613	
12	0	0	0	0	527	613	
13	0	0	0	0	524	612	
14	0	0	0	0	520	608	
15	0	0	0	0	517	613	
0	0	0	0	0	515	613	
1	0	0	0	0	512	612	
2	0	0	0	0	511	616	
3	0	0	0	0	508	612	
4	0	0	0	0	505	612	
5	0	0	0	0	504	612	
6	0	0	0	0	503	608	
7	0	0	0	0	501	612	
8	0	0	0	0	500	613	
9	0	0	0	0	499	613	
10	0	0	0	0	499	616	
11	0	0	0	0	498	614	
12	0	0	0	0	497	613	
13	0	0	0	0	497	613	
14	0	0	0	0	496	608	
15	0	0	0	0	496	612	
0	0	0	0	0	496	613	
1	0	0	0	0	496	614	
2	0	0	0	0	495	617	
3	0	0	0	0	495	613	
4	0	0	0	0	495	613	
5	0	0	0	0	495	612	
6	0	0	0	0	495	608	
7	0	0	0	0	495	613	
8	0	0	0	0	495	613	
9	0	0	0	0	495	613	
10	0	0	0	0	496	616	
11	0	0	0	0	495	612	
12	0	0	0	0	496	613	
13	0	0	0	0	496	613	
14	0	0	0	0	496	608	
15	0	0	0	0	496	613	
0	0	0	0	0	496	613	
1	0	0	0	0	496	613	
2	0	0	0	0	496	617	
3	0	0	0	0	496	614	
4	0	0	0	0	496	614	
5	0	0	0	0	496	613	
6	0	0	0	0	496	609	
7	0	0	0	0	497	613	
8	0	0	0	0	497	612	
9	0	0	0	0	496	613	
10	0	0	0	0	497	616	
11	0	0	0	0	497	613	
12	0	0	0	0	497	612	
13	0	0	0	0	498	612	
14	0	0	0	0	498	609	
15	0	0	0	0	498	614	
0	0	0	0	0	497	613	
1	0	0	0	0	496	613	
2	0	0	0	0	496	617	
3	0	0	0	0	496	613	
4	0	0	0	0	496	613	
5	0	0	0	0	497	613	
6	0	0	0	0	498	609	
7	0	0	0	0	498	614	
8	0	0	0	0	497	614	
9	0	0	0	0	497	613	
10	0	0	0	0	497	616	
11	0	0	0	0	497	612	
12	0	0	0	0	497	613	
13	0	0	0	0	497	613	
14	0	0	0	0	497	608	
15	0	0	0	0	497	613	
0	0	0	0	0	497	613	
1	0	0	0	0	497	614	
2	0	0	0	0	498	617	
3	0	0	0	0	497	613	
4	0	0	0	0	497	613	
5	0	0	0	0	497	613	
6	0	0	0	0	497	609	
7	0	0	0	0	497	614	
8	0	0	0	0	498	614	
9	0	0	0	0	498	613	
10	0	0	0	0	498	617	
11	0	0	0	0	499	613	
12	0	0	0	0	499	613	
13	0	0	0	0	499	613	
14	0	0	0	0	500	608	
15	0	0	0	0	500	614	
0	0	0	0	0	500	614	
1	0	0	0	0	500	614	
2	0	0	0	0	501	618	
3	0	0	0	0	501	613	
4	0	0	0	0	501	614	
5	0	0	0	0	501	613	
6	0	0	0	0	500	609	
7	0	0	0	0	500	614	
8	0	0	0	0	500	614	
9	0	0	0	0	499	614	
10	0	0	0	0	499	618	
11	0	0	0	0	499	614	
12	0	0	0	0	499	614	
13	0	0	0	0	499	613	
14	0	0	0	0	499	609	
15	0	0	0	0	499	614	
0	0	0	0	0	499	613	
1	0	0	0	0	499	613	
2	0	0	0	0	500	617	
3	0	0	0	0	500	613	
4	0	0	0	0	501	614	
5	0	0	0	0	501	614	
6	0	0	0	0	500	609	
7	0	0	0	0	500	614	
8	0	0	0	0	499	614	
9	0	0	0	0	499	613	
10	0	0	0	0	499	617	
11	0	0	0	0	499	613	
12	0	0	0	0	499	613	
13	0	0	0	0	499	613	
14	0	0	0	0	499	608	
15	0	0	0	0	499	613	
0	0	0	0	0	499	613	
1	0	0	0	0	499	613	
2	0	0	0	0	500	617	
3	0	0	0	0	500	612	
4	0	0	0	0	500	612	
5	0	0	0	0	499	612	
6	0	0	0	0	500	608	
7	0	0	0	0	500	613	
8	0	0	0	0	501	612	
9	0	0	0	0	501	613	
10	0	0	0	0	500	616	
11	0	0	0	0	501	613	
12	0	0	0	0	500	613	
13	0	0	0	0	500	612	
14	0	0	0	0	500	608	
15	0	0	0	0	500	613	
0	0	0	0	0	500	612	
1	0	0	0	0	500	613	
2	0	0	0	0	501	617	
3	0	0	0	0	501	612	
4	0	0	0	0	501	612	
5	0	0	0	0	501	612	
6	0	0	0	0	501	608	
7	0	0	0	0	502	612	
8	0	0	0	0	501	612	
9	0	0	0	0	500	613	
10	0	0	0	0	501	617	
11	0	0	0	0	500	612	
12	0	0	0	0	500	612	
13	0	0	0	0	499	612	
14	0	0	0	0	499	609	
15	0	0	0	0	499	613	
0	0	0	0	0	498	613	
1	0	0	0	0	499	613	
2	0	0	0	0	499	617	
3	0	0	0	0	499	613	
4	0	0	0	0	499	613	
5	0	0	0	0	499	614	
6	0	0	0	0	499	608	
7	0	0	0	0	499	613	
8	0	0	0	0	499	613	
9	0	0	0	0	498	613	
10	0	0	0	0	498	618	
11	0	0	0	0	499	613	
12	0	0	0	0	498	613	
13	0	0	0	0	498	613	
14	0	0	0	0	498	609	
15	0	0	0	0	498	614	
0	0	0	0	0	498	613	
1	0	0	0	0	499	614	
2	0	0	0	0	499	618	
3	0	0	0	0	499	614	
4	0	0	0	0	499	614	
5	0	0	0	0	499	614	
6	0	0	0	0	499	609	
7	0	0	0	0	498	613	
8	0	0	0	0	498	614	
9	0	0	0	0	498	614	
10	0	0	0	0	498	618	
11	0	0	0	0	498	614	
12	0	0	0	0	497	614	
13	0	0	0	0	497	614	
14	0	0	0	0	498	609	
15	0	0	0	0	497	614	
0	0	0	0	0	498	614	
1	0	0	0	0	497	614	
2	0	0	0	0	498	618	
3	0	0	0	0	498	614	
4	0	0	0	0	499	614	
5	0	0	0	0	499	614	
6	0	0	0	0	499	610	
7	0	0	0	0	499	615	
8	0	0	0	0	498	614	
9	0	0	0	0	498	614	
10	0	0	0	0	498	618	
11	0	0	0	0	498	614	
12	0	0	0	0	498	614	
13	0	0	0	0	498	614	
14	0	0	0	0	498	609	
15	0	0	0	0	497	614	
0	0	0	0	0	497	614	
1	0	0	0	0	497	614	
2	0	0	0	0	497	618	
3	0	0	0	0	498	614	
4	0	0	0	0	498	614	
5	0	0	0	0	498	614	
6	0	0	0	0	499	610	
7	0	0	0	0	499	613	
8	0	0	0	0	499	613	
9	0	0	0	0	499	614	
10	0	0	0	0	499	617	
11	0	0	0	0	500	613	
12	0	0	0	0	499	614	
13	0	0	0	0	500	614	
14	0	0	0	0	499	609	
15	0	0	0	0	499	613	
0	0	0	0	0	499	614	
1	0	0	0	0	499	614	
2	0	0	0	0	499	617	
3	0	0	0	0	499	614	
4	0	0	0	0	499	614	
5	0	0	0	0	499	613	
6	0	0	0	0	499	609	
7	0	0	0	0	499	613	
8	0	0	0	0	500	613	
9	0	0	0	0	500	613	
10	0	0	0	0	501	617	
11	0	0	0	0	502	614	
12	0	0	0	0	502	613	
13	0	0	0	0	502	613	
14	0	0	0	0	502	609	
15	0	0	0	0	502	614	
0	0	0	0	0	502	614	
1	0	0	0	0	503	614	
2	0	0	0	0	503	618	
3	0	0	0	0	503	613	
4	0	0	0	0	503	613	
5	0	0	0	0	503	614	
6	0	0	0	0	503	609	
7	0	0	0	0	504	614	
8	0	0	0	0	504	613	
9	0	0	0	0	503	613	
10	0	0	0	0	504	617	
11	0	0	0	0	504	613	
12	0	0	0	0	504	613	
13	0	0	0	0	504	612	
14	0	0	0	0	504	608	
15	0	0	0	0	504	614	
0	0	0	0	0	504	613	
1	0	0	0	0	505	613	
2	0	0	0	0	504	617	
3	0	0	0	0	505	612	
4	0	0	0	0	505	612	
5	0	0	0	0	505	612	
6	0	0	0	0	505	609	
7	0	0	0	0	505	613	
8	0	0	0	0	505	613	
9	0	0	0	0	506	613	
10	0	0	0	0	506	616	
11	0	0	0	0	507	612	
12	0	0	0	0	508	613	
13	0	0	0	0	508	612	
14	0	0	0	0	508	608	
15	0	0	0	0	509	613	
0	0	0	0	0	509	613	
1	0	0	0	0	510	613	
2	0	0	0	0	510	617	
3	0	0	0	0	510	613	
4	0	0	0	0	511	613	
5	0	0	0	0	511	613	
6	0	0	0	0	511	608	
7	0	0	0	0	511	612	
8	0	0	0	0	511	613	
9	0	0	0	0	511	613	
10	0	0	0	0	511	616	
11	0	0	0	0	511	612	
12	0	0	0	0	511	613	
13	0	0	0	0	511	612	
14	0	0	0	0	512	608	
15	0	0	0	0	512	613	
0	0	0	0	0	512	613	
1	0	0	0	0	512	613	
2	0	0	0	0	512	616	
3	0	0	0	0	513	612	
4	0	0	0	0	513	612	
5	0	0	0	0	513	612	
6	0	0	0	0	514	608	
7	0	0	0	0	514	612	
8	0	0	0	0	514	613	
9	0	0	0	0	514	612	
10	0	0	0	0	514	617	
11	0	0	0	0	514	612	
12	0	0	0	0	514	612	
13	0	0	0	0	514	612	
14	0	0	0	0	514	608	
15	0	0	0	0	514	612	
0	0	0	0	0	514	612	
1	0	0	0	0	515	613	
2	0	0	0	0	515	616	
3	0	0	0	0	515	612	
4	0	0	0	0	515	612	
5	0	0	0	0	515	612	
6	0	0	0	0	515	608	
7	0	0	0	0	515	612	
8	0	0	0	0	514	612	
9	0	0	0	0	514	612	
10	0	0	0	0	514	617	
11	0	0	0	0	514	612	
12	0	0	0	0	514	613	
13	0	0	0	0	513	612	
14	0	0	0	0	514	609	
15	0	0	0	0	514	614	
0	0	0	0	0	513	613	
1	0	0	0	0	513	614	
2	0	0	0	0	513	617	
3	0	0	0	0	513	612	
4	0	0	0	0	513	613	
5	0	0	0	0	513	613	
6	0	0	0	0	513	608	
7	0	0	0	0	513	614	
8	0	0	0	0	513	613	
9	0	0	0	0	513	614	
10	0	0	0	0	513	618	
11	0	0	0	0	513	614	
12	0	0	0	0	513	614	
13	0	0	0	0	513	613	
14	0	0	0	0	513	609	
15	0	0	0	0	513	614	
0	0	0	0	0	513	614	
1	0	0	0	0	514	614	
2	0	0	0	0	513	618	
3	0	0	0	0	513	614	
4	0	0	0	0	513	614	
5	0	0	0	0	513	614	
6	0	0	0	0	512	609	
7	0	0	0	0	512	613	
8	0	0	0	0	512	614	
9	0	0	0	0	512	614	
10	0	0	0	0	512	618	
11	0	0	0	0	512	614	
12	0	0	0	0	512	614	
13	0	0	0	0	511	614	
14	0	0	0	0	511	609	
15	0	0	0	0	512	614	
0	0	0	0	0	512	613	
1	0	0	0	0	512	614	
2	0	0	0	0	512	617	
3	0	0	0	0	512	614	
4	0	0	0	0	511	613	
5	0	0	0	0	511	613	
6	0	0	0	0	511	609	
7	0	0	0	0	511	614	
8	0	0	0	0	510	614	
9	0	0	0	0	510	614	
10	0	0	0	0	509	617	
11	0	0	0	0	509	613	
12	0	0	0	0	509	613	
13	0	0	0	0	509	613	
14	0	0	0	0	509	609	
15	0	0	0	0	509	614	
0	0	0	0	0	509	614	
1	0	0	0	0	509	613	
2	0	0	0	0	509	617	
3	0	0	0	0	510	614	
4	0	0	0	0	509	613	
5	0	0	0	0	509	613	
6	0	0	0	0	509	608	
7	0	0	0	0	509	613	
8	0	0	0	0	509	614	
9	0	0	0	0	509	614	
10	0	0	0	0	509	617	
11	0	0	0	0	510	613	
12	0	0	0	0	511	614	
13	0	0	0	0	510	613	
14	0	0	0	0	510	609	
15	0	0	0	0	510	614	
0	0	0	0	0	509	614	
1	0	0	0	0	509	614	
2	0	0	0	0	509	618	
3	0	0	0	0	509	614	
4	0	0	0	0	509	613	
5	0	0	0	0	508	613	
6	0	0	0	0	509	608	
7	0	0	0	0	509	614	
8	0	0	0	0	509	614	
9	0	0	0	0	509	614	
10	0	0	0	0	509	618	
11	0	0	0	0	509	614	
12	0	0	0	0	508	613	
13	0	0	0	0	509	613	
14	0	0	0	0	509	609	
15	0	0	0	0	509	614	
0	0	0	0	0	509	614	
1	0	0	0	0	508	614	
2	0	0	0	0	508	618	
3	0	0	0	0	508	614	
4	0	0	0	0	508	614	
5	0	0	0	0	508	614	
6	0	0	0	0	508	609	
7	0	0	0	0	508	613	
8	0	0	0	0	508	614	
9	0	0	0	0	507	614	
10	0	0	0	0	508	617	
11	0	0	0	0	508	613	
12	0	0	0	0	508	613	
13	0	0	0	0	508	614	
14	0	0	0	0	508	609	
15	0	0	0	0	508	613	
0	0	0	0	0	508	614	
1	0	0	0	0	508	614	
2	0	0	0	0	509	617	
3	0	0	0	0	509	614	
4	0	0	0	0	509	613	
5	0	0	0	0	510	613	
6	0	0	0	0	510	609	
7	0	0	0	0	509	613	
8	0	0	0	0	510	612	
9	0	0	0	0	510	613	
10	0	0	0	0	510	617	
11	0	0	0	0	511	613	
12	0	0	0	0	511	613	
13	0	0	0	0	511	613	
14	0	0	0	0	511	608	
15	0	0	0	0	511	612	
0	0	0	0	0	511	612	
1	0	0	0	0	511	613	
2	0	0	0	0	512	616	
3	0	0	0	0	512	613	
4	0	0	0	0	512	613	
5	0	0	0	0	512	612	
6	0	0	0	0	511	608	
7	0	0	0	0	511	613	
8	0	0	0	0	511	613	
9	0	0	0	0	511	613	
10	0	0	0	0	511	617	
11	0	0	0	0	511	613	
12	0	0	0	0	511	613	
13	0	0	0	0	511	613	
14	0	0	0	0	511	608	
15	0	0	0	0	511	612	
0	0	0	0	0	511	613	
1	0	0	0	0	511	613	
2	0	0	0	0	511	617	
3	0	0	0	0	511	613	
4	0	0	0	0	511	613	
5	0	0	0	0	511	612	
6	0	0	0	0	511	609	
7	0	0	0	0	510	613	
8	0	0	0	0	511	613	
9	0	0	0	0	511	613	
10	0	0	0	0	511	617	
11	0	0	0	0	512	612	
12	0	0	0	0	511	613	
13	0	0	0	0	511	613	
14	0	0	0	0	512	609	
15	0	0	0	0	511	613	
0	0	0	0	0	511	613	
1	0	0	0	0	511	613	
2	0	0	0	0	511	616	
3	0	0	0	0	512	612	
4	0	0	0	0	511	613	
5	0	0	0	0	512	612	
6	0	0	0	0	511	608	
7	0	0	0	0	511	613	
8	0	0	0	0	512	613	
9	0	0	0	0	512	613	
10	0	0	0	0	512	617	
11	0	0	0	0	512	614	
12	0	0	0	0	513	614	
13	0	0	0	0	513	613	
14	0	0	0	0	513	609	
15	0	0	0	0	513	614	
0	0	0	0	0	512	614	
1	0	0	0	0	511	614	
2	0	0	0	0	510	617	
3	0	0	0	0	511	614	
4	0	0	0	0	511	615	
5	0	0	0	0	512	614	
6	0	0	0	0	512	609	
7	0	0	0	0	512	614	
8	0	0	0	0	512	613	
9	0	0	0	0	512	614	
10	0	0	0	0	512	618	
11	0	0	0	0	512	614	
12	0	0	0	0	513	614	
13	0	0	0	0	512	614	
14	0	0	0	0	512	610	
15	0	0	0	0	512	615	
0	0	0	0	0	512	615	
1	0	0	0	0	513	615	
2	0	0	0	0	512	618	
3	0	0	0	0	513	614	
4	0	0	0	0	513	614	
5	0	0	0	0	513	614	
6	0	0	0	0	513	610	
7	0	0	0	0	513	614	
8	0	0	0	0	513	614	
9	0	0	0	0	512	614	
10	0	0	0	0	513	618	
11	0	0	0	0	512	614	
12	0	0	0	0	512	614	
13	0	0	0	0	512	614	
14	0	0	0	0	513	609	
15	0	0	0	0	512	613	
0	0	0	0	0	512	614	
1	0	0	0	0	512	614	
2	0	0	0	0	512	617	
3	0	0	0	0	512	614	
4	0	0	0	0	512	614	
5	0	0	0	0	512	614	
6	0	0	0	0	512	608	
7	0	0	0	0	512	614	
8	0	0	0	0	512	613	
9	0	0	0	0	512	614	
10	0	0	0	0	512	617	
11	0	0	0	0	512	613	
12	0	0	0	0	512	613	
13	0	0	0	0	512	613	
14	0	0	0	0	512	608	
15	0	0	0	0	511	613	
0	0	0	0	0	511	613	
1	0	0	0	0	512	613	
2	0	0	0	0	512	617	
3	0	0	0	0	512	613	
4	0	0	0	0	512	612	
5	0	0	0	0	512	613	
6	0	0	0	0	512	608	
7	0	0	0	0	512	613	
8	0	0	0	0	512	613	
9	0	0	0	0	512	613	
10	0	0	0	0	512	617	
11	0	0	0	0	511	612	
12	0	0	0	0	511	612	
13	0	0	0	0	510	612	
14	0	0	0	0	510	608	
15	0	0	0	0	510	612	
0	0	0	0	0	510	613	
1	0	0	0	0	510	613	
2	0	0	0	0	510	617	
3	0	0	0	0	510	613	
4	0	0	0	0	509	613	
5	0	0	0	0	510	613	
6	0	0	0	0	510	608	
7	0	0	0	0	510	613	
8	0	0	0	0	510	613	
9	0	0	0	0	510	613	
10	0	0	0	0	510	617	
11	0	0	0	0	510	614	
12	0	0	0	0	510	613	
13	0	0	0	0	509	613	
14	0	0	0	0	509	609	
15	0	0	0	0	509	613	
0	0	0	0	0	509	613	
1	0	0	0	0	509	614	
2	0	0	0	0	510	617	
3	0	0	0	0	510	613	
4	0	0	0	0	510	613	
5	0	0	0	0	510	613	
6	0	0	0	0	509	609	
7	0	0	0	0	510	614	
8	0	0	0	0	510	613	
9	0	0	0	0	510	613	
10	0	0	0	0	510	617	
11	0	0	0	0	510	613	
12	0	0	0	0	510	613	
13	0	0	0	0	509	613	
14	0	0	0	0	509	609	
15	0	0	0	0	509	613	
0	0	0	0	0	508	613	
1	0	0	0	0	508	613	
2	0	0	0	0	508	617	
3	0	0	0	0	508	613	
4	0	0	0	0	507	613	
5	0	0	0	0	507	614	
6	0	0	0	0	507	608	
7	0	0	0	0	507	613	
8	0	0	0	0	507	613	
9	0	0	0	0	507	613	
10	0	0	0	0	507	617	
11	0	0	0	0	508	613	
12	0	0	0	0	507	613	
13	0	0	0	0	507	613	
14	0	0	0	0	507	608	
15	0	0	0	0	507	614	
0	0	0	0	0	508	613	
1	0	0	0	0	508	613	
2	0	0	0	0	508	617	
3	0	0	0	0	508	613	
4	0	0	0	0	509	613	
5	0	0	0	0	509	613	
6	0	0	0	0	509	609	
7	0	0	0	0	509	613	
8	0	0	0	0	509	613	
9	0	0	0	0	509	612	
10	0	0	0	0	509	617	
11	0	0	0	0	509	613	
12	0	0	0	0	509	613	
13	0	0	0	0	508	612	
14	0	0	0	0	508	609	
15	0	0	0	0	508	612	
0	0	0	0	0	509	613	
1	0	0	0	0	509	612	
2	0	0	0	0	509	616	
3	0	0	0	0	509	613	
4	0	0	0	0	509	612	
5	0	0	0	0	508	612	
6	0	0	0	0	508	608	
7	0	0	0	0	509	613	
8	0	0	0	0	508	613	
9	0	0	0	0	509	612	
10	0	0	0	0	509	617	
11	0	0	0	0	509	614	
12	0	0	0	0	509	613	
13	0	0	0	0	510	612	
14	0	0	0	0	510	608	
15	0	0	0	0	510	612	
0	0	0	0	0	509	613	
1	0	0	0	0	509	613	
2	0	0	0	0	508	618	
3	0	0	0	0	508	613	
4	0	0	0	0	507	613	
5	0	0	0	0	508	612	
6	0	0	0	0	508	609	
7	0	0	0	0	507	613	
8	0	0	0	0	507	613	
9	0	0	0	0	507	613	
10	0	0	0	0	507	617	
11	0	0	0	0	508	613	
12	0	0	0	0	508	613	
13	0	0	0	0	508	612	
14	0	0	0	0	507	608	
15	0	0	0	0	507	613	
0	0	0	0	0	506	612	
1	0	0	0	0	507	612	
2	0	0	0	0	507	616	
3	0	0	0	0	507	612	
4	0	0	0	0	508	612	
5	0	0	0	0	508	612	
6	0	0	0	0	508	608	
7	0	0	0	0	509	612	
8	0	0	0	0	509	613	
9	0	0	0	0	509	613	
10	0	0	0	0	509	617	
11	0	0	0	0	510	612	
12	0	0	0	0	510	613	
13	0	0	0	0	510	612	
14	0	0	0	0	509	608	
15	0	0	0	0	510	613	
0	0	0	0	0	510	612	
1	0	0	0	0	510	613	
2	0	0	0	0	510	617	
3	0	0	0	0	510	613	
4	0	0	0	0	510	613	
5	0	0	0	0	509	613	
6	0	0	0	0	509	608	
7	0	0	0	0	508	612	
8	0	0	0	0	508	613	
9	0	0	0	0	508	612	
10	0	0	0	0	509	616	
11	0	0	0	0	509	613	
12	0	0	0	0	509	612	
13	0	0	0	0	510	613	
14	0	0	0	0	510	608	
15	0	0	0	0	510	613	
0	0	0	0	0	511	613	
1	0	0	0	0	511	613	
2	0	0	0	0	511	617	
3	0	0	0	0	511	614	
4	0	0	0	0	511	613	
5	0	0	0	0	511	613	
6	0	0	0	0	511	608	
7	0	0	0	0	511	613	
8	0	0	0	0	511	613	
9	0	0	0	0	512	613	
10	0	0	0	0	512	616	
11	0	0	0	0	512	612	
12	0	0	0	0	512	612	
13	0	0	0	0	512	612	
14	0	0	0	0	512	608	
15	0	0	0	0	512	613	
0	0	0	0	0	511	613	
1	0	0	0	0	511	614	
2	0	0	0	0	511	617	
3	0	0	0	0	511	613	
4	0	0	0	0	510	612	
5	0	0	0	0	510	613	
6	0	0	0	0	510	608	
7	0	0	0	0	510	613	
8	0	0	0	0	509	612	
9	0	0	0	0	508	612	
10	0	0	0	0	508	616	
11	0	0	0	0	508	613	
12	0	0	0	0	508	613	
13	0	0	0	0	508	612	
14	0	0	0	0	508	608	
15	0	0	0	0	507	612	
0	0	0	0	0	507	612	
1	0	0	0	0	508	613	
2	0	0	0	0	508	617	
3	0	0	0	0	508	613	
4	0	0	0	0	508	614	
5	0	0	0	0	508	612	
6	0	0	0	0	508	608	
7	0	0	0	0	508	613	
8	0	0	0	0	508	613	
9	0	0	0	0	508	612	
10	0	0	0	0	508	617	
11	0	0	0	0	509	613	
12	0	0	0	0	509	613	
13	0	0	0	0	509	613	
14	0	0	0	0	509	608	
15	0	0	0	0	509	613	
0	0	0	0	0	509	613	
1	0	0	0	0	509	613	
2	0	0	0	0	509	616	
3	0	0	0	0	509	612	
4	0	0	0	0	509	613	
5	0	0	0	0	509	612	
6	0	0	0	0	509	608	
7	0	0	0	0	509	613	
8	0	0	0	0	509	613	
9	0	0	0	0	510	613	
10	0	0	0	0	509	617	
11	0	0	0	0	510	613	
12	0	0	0	0	510	613	
13	0	0	0	0	510	613	
14	0	0	0	0	510	608	
15	0	0	0	0	510	612	
0	0	0	0	0	510	612	
1	0	0	0	0	509	613	
2	0	0	0	0	509	616	
3	0	0	0	0	510	613	
4	0	0	0	0	509	613	
5	0	0	0	0	509	613	
6	0	0	0	0	509	608	
7	0	0	0	0	509	613	
8	0	0	0	0	509	613	
9	0	0	0	0	509	613	
10	0	0	0	0	510	617	
11	0	0	0	0	510	613	
12	0	0	0	0	510	613	
13	0	0	0	0	510	613	
14	0	0	0	0	510	609	
15	0	0	0	0	510	613	
0	0	0	0	0	510	613	
1	0	0	0	0	510	613	
2	0	0	0	0	510	617	
3	0	0	0	0	510	613	
4	0	0	0	0	509	613	
5	0	0	0	0	510	613	
6	0	0	0	0	509	609	
7	0	0	0	0	509	613	
8	0	0	0	0	508	613	
9	0	0	0	0	508	614	
10	0	0	0	0	508	617	
11	0	0	0	0	508	614	
12	0	0	0	0	508	613	
13	0	0	0	0	508	612	
14	0	0	0	0	508	609	
15	0	0	0	0	507	613	
0	0	0	0	0	507	613	
1	0	0	0	0	506	614	
2	0	0	0	0	505	617	
3	0	0	0	0	504	613	
4	0	0	0	0	502	613	
5	0	0	0	0	499	613	
6	0	0	0	0	497	609	
7	0	0	0	0	495	614	
8	0	0	0	0	492	614	
9	0	0	0	0	490	613	
10	0	0	0	0	487	617	
11	0	0	0	0	486	614	
12	0	0	0	0	485	613	
13	0	0	0	0	483	612	
14	0	0	0	0	482	609	
15	0	0	0	0	481	613	
0	0	0	0	0	481	613	
1	0	0	0	0	481	614	
2	0	0	0	0	481	617	
3	0	0	0	0	481	614	
4	0	0	0	0	481	614	
5	0	0	0	0	481	614	
6	0	0	0	0	482	609	
7	0	0	0	0	484	614	
8	0	0	0	0	485	614	
9	0	0	0	0	487	614	
10	0	0	0	0	491	617	
11	0	0	0	0	496	614	
12	0	0	0	0	501	614	
13	0	0	0	0	507	613	
14	0	0	0	0	513	609	
15	0	0	0	0	520	614	
0	0	0	0	0	526	614	
1	0	0	0	0	531	614	
2	0	0	0	0	535	618	
3	0	0	0	0	539	614	
4	0	0	0	0	543	614	
5	0	0	0	0	547	613	
6	0	0	0	0	551	609	
7	0	0	0	0	556	614	
8	0	0	0	0	560	614	
9	0	0	0	0	565	614	
10	0	0	0	0	570	618	
11	0	0	0	0	574	613	
12	0	0	0	0	579	613	
13	0	0	0	0	583	613	
14	0	0	0	0	586	609	
15	0	0	0	0	588	613	
0	0	0	0	0	591	614	
1	0	0	0	0	591	613	
2	0	0	0	0	591	617	
3	0	0	0	0	590	614	
4	0	0	0	0	588	614	
5	0	0	0	0	585	613	
6	0	0	0	0	582	609	
7	0	0	0	0	576	613	
8	0	0	0	0	572	614	
9	0	0	0	0	566	613	
10	0	0	0	0	561	618	
11	0	0	0	0	556	614	
12	0	0	0	0	551	614	
13	0	0	0	0	546	614	
14	0	0	0	0	540	609	
15	0	0	0	0	535	613	
0	0	0	0	0	530	614	
1	0	0	0	0	526	614	
2	0	0	0	0	521	617	
3	0	0	0	0	518	614	
4	0	0	0	0	514	613	
5	0	0	0	0	511	613	
6	0	0	0	0	508	609	
7	0	0	0	0	505	613	
8	0	0	0	0	503	614	
9	0	0	0	0	501	614	
10	0	0	0	0	498	618	
11	0	0	0	0	497	613	
12	0	0	0	0	495	613	
13	0	0	0	0	494	613	
14	0	0	0	0	493	608	
15	0	0	0	0	492	613	
0	0	0	0	0	491	613	
1	0	0	0	0	491	613	
2	0	0	0	0	491	617	
3	0	0	0	0	491	614	
4	0	0	0	0	491	612	
5	0	0	0	0	491	613	
6	0	0	0	0	492	608	
7	0	0	0	0	491	613	
8	0	0	0	0	491	613	
9	0	0	0	0	491	613	
10	0	0	0	0	491	617	
11	0	0	0	0	492	613	
12	0	0	0	0	492	613	
13	0	0	0	0	492	613	
14	0	0	0	0	493	609	
15	0	0	0	0	493	612	
0	0	0	0	0	494	612	
1	0	0	0	0	494	612	
2	0	0	0	0	494	616	
3	0	0	0	0	493	612	
4	0	0	0	0	493	612	
5	0	0	0	0	493	612	
6	0	0	0	0	494	608	
7	0	0	0	0	494	612	
8	0	0	0	0	493	613	
9	0	0	0	0	494	612	
10	0	0	0	0	495	617	
11	0	0	0	0	495	613	
12	0	0	0	0	495	612	
13	0	0	0	0	495	613	
14	0	0	0	0	494	608	
15	0	0	0	0	494	612	
0	0	0	0	0	494	613	
1	0	0	0	0	493	612	
2	0	0	0	0	494	616	
3	0	0	0	0	494	613	
4	0	0	0	0	494	612	
5	0	0	0	0	494	612	
6	0	0	0	0	495	608	
7	0	0	0	0	495	613	
8	0	0	0	0	495	613	
9	0	0	0	0	495	614	
10	0	0	0	0	496	617	
11	0	0	0	0	496	613	
12	0	0	0	0	496	612	
13	0	0	0	0	497	612	
14	0	0	0	0	497	608	
15	0	0	0	0	496	613	
0	0	0	0	0	496	612	
1	0	0	0	0	496	612	
2	0	0	0	0	496	616	
3	0	0	0	0	496	612	
4	0	0	0	0	496	613	
5	0	0	0	0	495	613	
6	0	0	0	0	496	608	
7	0	0	0	0	496	613	
8	0	0	0	0	496	613	
9	0	0	0	0	497	613	
10	0	0	0	0	497	617	
11	0	0	0	0	498	613	
12	0	0	0	0	499	613	
13	0	0	0	0	499	613	
14	0	0	0	0	499	608	
15	0	0	0	0	500	613	
0	0	0	0	0	500	613	
1	0	0	0	0	500	613	
2	0	0	0	0	500	617	
3	0	0	0	0	500	612	
4	0	0	0	0	501	613	
5	0	0	0	0	501	612	
6	0	0	0	0	501	608	
7	0	0	0	0	501	613	
8	0	0	0	0	501	612	
9	0	0	0	0	502	613	
10	0	0	0	0	502	616	
11	0	0	0	0	502	612	
12	0	0	0	0	502	612	
13	0	0	0	0	502	612	
14	0	0	0	0	502	608	
15	0	0	0	0	502	613	
0	0	0	0	0	502	613	
1	0	0	0	0	502	614	
2	0	0	0	0	502	617	
3	0	0	0	0	503	613	
4	0	0	0	0	503	612	
5	0	0	0	0	503	612	
6	0	0	0	0	504	609	
7	0	0	0	0	504	613	
8	0	0	0	0	504	613	
9	0	0	0	0	504	613	
10	0	0	0	0	504	617	
11	0	0	0	0	504	613	
12	0	0	0	0	504	612	
13	0	0	0	0	504	613	
14	0	0	0	0	504	608	
15	0	0	0	0	504	613	
0	0	0	0	0	504	614	
1	0	0	0	0	503	613	
2	0	0	0	0	503	617	
3	0	0	0	0	503	613	
4	0	0	0	0	503	612	
5	0	0	0	0	504	612	
6	0	0	0	0	503	608	
7	0	0	0	0	503	612	
8	0	0	0	0	504	613	
9	0	0	0	0	504	612	
10	0	0	0	0	504	617	
11	0	0	0	0	505	611	
12	0	0	0	0	505	612	
13	0	0	0	0	505	612	
14	0	0	0	0	505	608	
15	0	0	0	0	505	612	
0	0	0	0	0	505	613	
1	0	0	0	0	506	613	
2	0	0	0	0	506	616	
3	0	0	0	0	507	612	
4	0	0	0	0	506	612	
5	0	0	0	0	506	612	
6	0	0	0	0	506	608	
7	0	0	0	0	506	612	
8	0	0	0	0	505	613	
9	0	0	0	0	506	613	
10	0	0	0	0	506	617	
11	0	0	0	0	506	613	
12	0	0	0	0	505	612	
13	0	0	0	0	504	612	
14	0	0	0	0	504	608	
15	0	0	0	0	504	613	
0	0	0	0	0	504	612	
1	0	0	0	0	503	612	
2	0	0	0	0	503	616	
3	0	0	0	0	503	612	
4	0	0	0	0	503	612	
5	0	0	0	0	502	612	
6	0	0	0	0	502	608	
7	0	0	0	0	502	613	
8	0	0	0	0	503	613	
9	0	0	0	0	503	612	
10	0	0	0	0	502	617	
11	0	0	0	0	502	612	
12	0	0	0	0	501	612	
13	0	0	0	0	501	613	
14	0	0	0	0	501	608	
15	0	0	0	0	502	613	
0	0	0	0	0	502	613	
1	0	0	0	0	503	612	
2	0	0	0	0	503	616	
3	0	0	0	0	503	612	
4	0	0	0	0	502	613	
5	0	0	0	0	502	612	
6	0	0	0	0	501	608	
7	0	0	0	0	501	613	
8	0	0	0	0	501	613	
9	0	0	0	0	501	613	
10	0	0	0	0	501	617	
11	0	0	0	0	501	614	
12	0	0	0	0	501	613	
13	0	0	0	0	501	613	
14	0	0	0	0	502	609	
15	0	0	0	0	501	614	
0	0	0	0	0	502	613	
1	0	0	0	0	502	614	
2	0	0	0	0	503	618	
3	0	0	0	0	502	614	
4	0	0	0	0	502	614	
5	0	0	0	0	502	614	
6	0	0	0	0	502	610	
7	0	0	0	0	501	613	
8	0	0	0	0	502	614	
9	0	0	0	0	501	614	
10	0	0	0	0	501	618	
11	0	0	0	0	502	615	
12	0	0	0	0	501	614	
13	0	0	0	0	501	614	
14	0	0	0	0	500	610	
15	0	0	0	0	499	614	
0	0	0	0	0	499	614	
1	0	0	0	0	499	615	
2	0	0	0	0	499	618	
3	0	0	0	0	499	614	
4	0	0	0	0	499	614	
5	0	0	0	0	499	614	
6	0	0	0	0	499	609	
7	0	0	0	0	500	614	
8	0	0	0	0	500	615	
9	0	0	0	0	500	614	
10	0	0	0	0	501	619	
11	0	0	0	0	501	614	
12	0	0	0	0	501	614	
13	0	0	0	0	501	614	
14	0	0	0	0	502	610	
15	0	0	0	0	502	614	
0	0	0	0	0	502	615	
1	0	0	0	0	502	615	
2	0	0	0	0	502	618	
3	0	0	0	0	502	614	
4	0	0	0	0	502	614	
5	0	0	0	0	502	613	
6	0	0	0	0	503	609	
7	0	0	0	0	503	614	
8	0	0	0	0	502	613	
9	0	0	0	0	502	614	
10	0	0	0	0	503	617	
11	0	0	0	0	503	613	
12	0	0	0	0	503	614	
13	0	0	0	0	502	613	
14	0	0	0	0	503	608	
15	0	0	0	0	503	614	
0	0	0	0	0	504	614	
1	0	0	0	0	503	614	
2	0	0	0	0	503	617	
3	0	0	0	0	504	614	
4	0	0	0	0	503	614	
5	0	0	0	0	504	614	
6	0	0	0	0	504	609	
7	0	0	0	0	504	613	
8	0	0	0	0	505	613	
9	0	0	0	0	505	614	
10	0	0	0	0	505	617	
11	0	0	0	0	505	614	
12	0	0	0	0	505	613	
13	0	0	0	0	506	613	
14	0	0	0	0	507	609	
15	0	0	0	0	507	613	
0	0	0	0	0	507	613	
1	0	0	0	0	507	613	
2	0	0	0	0	507	617	
3	0	0	0	0	508	612	
4	0	0	0	0	508	613	
5	0	0	0	0	508	612	
6	0	0	0	0	508	608	
7	0	0	0	0	508	612	
8	0	0	0	0	508	612	
9	0	0	0	0	508	613	
10	0	0	0	0	508	616	
11	0	0	0	0	508	611	
12	0	0	0	0	508	612	
13	0	0	0	0	509	612	
14	0	0	0	0	510	608	
15	0	0	0	0	511	613	
0	0	0	0	0	511	613	
1	0	0	0	0	512	612	
2	0	0	0	0	511	616	
3	0	0	0	0	512	612	
4	0	0	0	0	512	612	
5	0	0	0	0	512	612	
6	0	0	0	0	513	608	
7	0	0	0	0	513	613	
8	0	0	0	0	513	612	
9	0	0	0	0	514	613	
10	0	0	0	0	513	616	
11	0	0	0	0	513	612	
12	0	0	0	0	513	612	
13	0	0	0	0	513	613	
14	0	0	0	0	514	608	
15	0	0	0	0	515	612	
0	0	0	0	0	515	612	
1	0	0	0	0	516	612	
2	0	0	0	0	517	616	
3	0	0	0	0	518	612	
4	0	0	0	0	517	612	
5	0	0	0	0	518	612	
6	0	0	0	0	518	608	
7	0	0	0	0	518	612	
8	0	0	0	0	518	612	
9	0	0	0	0	518	613	
10	0	0	0	0	518	616	
11	0	0	0	0	518	613	
12	0	0	0	0	518	612	
13	0	0	0	0	518	612	
14	0	0	0	0	518	608	
15	0	0	0	0	518	612	
0	0	0	0	0	517	612	
1	0	0	0	0	518	612	
2	0	0	0	0	518	616	
3	0	0	0	0	518	612	
4	0	0	0	0	519	613	
5	0	0	0	0	518	613	
6	0	0	0	0	518	609	
7	0	0	0	0	518	613	
8	0	0	0	0	518	613	
9	0	0	0	0	519	614	
10	0	0	0	0	518	617	
11	0	0	0	0	518	613	
12	0	0	0	0	518	613	
13	0	0	0	0	518	613	
14	0	0	0	0	519	609	
15	0	0	0	0	518	614	
0	0	0	0	0	519	614	
1	0	0	0	0	519	613	
2	0	0	0	0	519	617	
3	0	0	0	0	519	614	
4	0	0	0	0	519	614	
5	0	0	0	0	519	614	
6	0	0	0	0	518	609	
7	0	0	0	0	518	614	
8	0	0	0	0	518	614	
9	0	0	0	0	518	614	
10	0	0	0	0	517	617	
11	0	0	0	0	517	614	
12	0	0	0	0	516	614	
13	0	0	0	0	516	613	
14	0	0	0	0	516	609	
15	0	0	0	0	516	614	
0	0	0	0	0	516	614	
1	0	0	0	0	516	613	
2	0	0	0	0	516	617	
3	0	0	0	0	516	613	
4	0	0	0	0	515	613	
5	0	0	0	0	515	613	
6	0	0	0	0	515	608	
7	0	0	0	0	515	613	
8	0	0	0	0	515	613	
9	0	0	0	0	515	614	
10	0	0	0	0	515	617	
11	0	0	0	0	515	613	
12	0	0	0	0	515	613	
13	0	0	0	0	515	614	
14	0	0	0	0	515	609	
15	0	0	0	0	515	614	
0	0	0	0	0	515	614	
1	0	0	0	0	515	614	
2	0	0	0	0	514	619	
3	0	0	0	0	514	614	
4	0	0	0	0	514	614	
5	0	0	0	0	513	613	
6	0	0	0	0	513	609	
7	0	0	0	0	513	613	
8	0	0	0	0	513	613	
9	0	0	0	0	513	614	
10	0	0	0	0	513	617	
11	0	0	0	0	513	613	
12	0	0	0	0	513	613	
13	0	0	0	0	513	613	
14	0	0	0	0	513	609	
15	0	0	0	0	514	613	
0	0	0	0	0	514	614	
1	0	0	0	0	514	614	
2	0	0	0	0	513	617	
3	0	0	0	0	513	614	
4	0	0	0	0	512	614	
5	0	0	0	0	512	614	
6	0	0	0	0	512	609	
7	0	0	0	0	512	614	
8	0	0	0	0	512	614	
9	0	0	0	0	512	614	
10	0	0	0	0	512	617	
11	0	0	0	0	512	614	
12	0	0	0	0	512	613	
13	0	0	0	0	512	614	
14	0	0	0	0	512	609	
15	0	0	0	0	511	614	
0	0	0	0	0	511	613	
1	0	0	0	0	511	614	
2	0	0	0	0	510	617	
3	0	0	0	0	511	614	
4	0	0	0	0	510	614	
5	0	0	0	0	510	614	
6	0	0	0	0	510	610	
7	0	0	0	0	510	614	
8	0	0	0	0	510	614	
9	0	0	0	0	510	614	
10	0	0	0	0	510	617	
11	0	0	0	0	511	614	
12	0	0	0	0	511	614	
13	0	0	0	0	511	614	
14	0	0	0	0	511	609	
15	0	0	0	0	511	613	
0	0	0	0	0	511	614	
1	0	0	0	0	511	613	
2	0	0	0	0	511	617	
3	0	0	0	0	512	613	
4	0	0	0	0	511	613	
5	0	0	0	0	511	612	
6	0	0	0	0	511	608	
7	0	0	0	0	510	613	
8	0	0	0	0	510	613	
9	0	0	0	0	510	613	
10	0	0	0	0	509	616	
11	0	0	0	0	510	612	
12	0	0	0	0	510	613	
13	0	0	0	0	510	613	
14	0	0	0	0	510	608	
15	0	0	0	0	510	613	
0	0	0	0	0	510	613	
1	0	0	0	0	510	614	
2	0	0	0	0	510	617	
3	0	0	0	0	510	614	
4	0	0	0	0	509	613	
5	0	0	0	0	509	612	
6	0	0	0	0	509	608	
7	0	0	0	0	509	613	
8	0	0	0	0	509	614	
9	0	0	0	0	509	614	
10	0	0	0	0	509	617	
11	0	0	0	0	509	612	
12	0	0	0	0	509	612	
13	0	0	0	0	509	611	
14	0	0	0	0	509	608	
15	0	0	0	0	509	612	
0	0	0	0	0	509	613	
1	0	0	0	0	509	612	
2	0	0	0	0	510	617	
3	0	0	0	0	510	613	
4	0	0	0	0	509	612	
5	0	0	0	0	509	612	
6	0	0	0	0	509	608	
7	0	0	0	0	509	612	
8	0	0	0	0	509	613	
9	0	0	0	0	509	612	
10	0	0	0	0	509	617	
11	0	0	0	0	510	613	
12	0	0	0	0	509	612	
13	0	0	0	0	509	612	
14	0	0	0	0	509	608	
15	0	0	0	0	508	612	
0	0	0	0	0	509	612	
1	0	0	0	0	508	613	
2	0	0	0	0	508	617	
3	0	0	0	0	508	613	
4	0	0	0	0	508	613	
5	0	0	0	0	508	613	
6	0	0	0	0	508	608	
7	0	0	0	0	509	612	
8	0	0	0	0	509	613	
9	0	0	0	0	509	613	
10	0	0	0	0	509	617	
11	0	0	0	0	509	613	
12	0	0	0	0	509	613	
13	0	0	0	0	509	613	
14	0	0	0	0	509	609	
15	0	0	0	0	510	613	
0	0	0	0	0	509	613	
1	0	0	0	0	510	614	
2	0	0	0	0	509	617	
3	0	0	0	0	509	613	
4	0	0	0	0	509	612	
5	0	0	0	0	508	613	
6	0	0	0	0	508	608	
7	0	0	0	0	508	613	
8	0	0	0	0	507	613	
9	0	0	0	0	507	613	
10	0	0	0	0	507	617	
11	0	0	0	0	508	613	
12	0	0	0	0	507	613	
13	0	0	0	0	507	613	
14	0	0	0	0	507	608	
15	0	0	0	0	507	613	
0	0	0	0	0	507	612	
1	0	0	0	0	508	614	
2	0	0	0	0	508	617	
3	0	0	0	0	508	613	
4	0	0	0	0	508	613	
5	0	0	0	0	508	613	
6	0	0	0	0	508	609	
7	0	0	0	0	508	614	
8	0	0	0	0	507	613	
9	0	0	0	0	507	613	
10	0	0	0	0	508	617	
11	0	0	0	0	508	613	
12	0	0	0	0	507	613	
13	0	0	0	0	507	613	
14	0	0	0	0	507	609	
15	0	0	0	0	507	613	
0	0	0	0	0	507	613	
1	0	0	0	0	507	614	
2	0	0	0	0	507	617	
3	0	0	0	0	508	614	
4	0	0	0	0	508	614	
5	0	0	0	0	509	613	
6	0	0	0	0	509	608	
7	0	0	0	0	509	613	
8	0	0	0	0	509	613	
9	0	0	0	0	509	613	
10	0	0	0	0	509	617	
11	0	0	0	0	509	614	
12	0	0	0	0	510	614	
13	0	0	0	0	510	613	
14	0	0	0	0	509	609	
15	0	0	0	0	509	613	
0	0	0	0	0	509	614	
1	0	0	0	0	508	614	
2	0	0	0	0	508	617	
3	0	0	0	0	508	614	
4	0	0	0	0	507	613	
5	0	0	0	0	507	613	
6	0	0	0	0	507	609	
7	0	0	0	0	507	614	
8	0	0	0	0	508	614	
9	0	0	0	0	508	614	
10	0	0	0	0	508	617	
11	0	0	0	0	508	614	
12	0	0	0	0	508	614	
13	0	0	0	0	508	614	
14	0	0	0	0	508	609	
15	0	0	0	0	508	613	
0	0	0	0	0	509	613	
1	0	0	0	0	509	614	
2	0	0	0	0	509	617	
3	0	0	0	0	510	613	
4	0	0	0	0	508	613	
5	0	0	0	0	508	613	
6	0	0	0	0	508	609	
7	0	0	0	0	508	613	
8	0	0	0	0	508	614	
9	0	0	0	0	508	614	
10	0	0	0	0	507	617	
11	0	0	0	0	507	614	
12	0	0	0	0	508	614	
13	0	0	0	0	508	613	
14	0	0	0	0	507	609	
15	0	0	0	0	508	614	
0	0	0	0	0	508	614	
1	0	0	0	0	507	614	
2	0	0	0	0	507	618	
3	0	0	0	0	507	613	
4	0	0	0	0	507	614	
5	0	0	0	0	507	612	
6	0	0	0	0	507	608	
7	0	0	0	0	507	613	
8	0	0	0	0	507	612	
9	0	0	0	0	507	613	
10	0	0	0	0	507	617	
11	0	0	0	0	507	612	
12	0	0	0	0	507	612	
13	0	0	0	0	507	612	
14	0	0	0	0	507	608	
15	0	0	0	0	508	613	
0	0	0	0	0	508	613	
1	0	0	0	0	509	613	
2	0	0	0	0	509	617	
3	0	0	0	0	509	613	
4	0	0	0	0	509	612	
5	0	0	0	0	509	612	
6	0	0	0	0	509	608	
7	0	0	0	0	509	612	
8	0	0	0	0	509	613	
9	0	0	0	0	508	613	
10	0	0	0	0	508	617	
11	0	0	0	0	509	612	
12	0	0	0	0	508	613	
13	0	0	0	0	508	613	
14	0	0	0	0	508	608	
15	0	0	0	0	508	613	
0	0	0	0	0	508	613	
1	0	0	0	0	508	612	
2	0	0	0	0	508	617	
3	0	0	0	0	508	613	
4	0	0	0	0	508	613	
5	0	0	0	0	508	613	
6	0	0	0	0	507	608	
7	0	0	0	0	507	613	
8	0	0	0	0	507	612	
9	0	0	0	0	507	613	
10	0	0	0	0	508	617	
11	0	0	0	0	508	612	
12	0	0	0	0	508	613	
13	0	0	0	0	509	612	
14	0	0	0	0	509	608	
15	0	0	0	0	509	613	
0	0	0	0	0	509	612	
1	0	0	0	0	509	613	
2	0	0	0	0	509	617	
3	0	0	0	0	509	613	
4	0	0	0	0	509	614	
5	0	0	0	0	509	612	
6	0	0	0	0	508	608	
7	0	0	0	0	508	614	
8	0	0	0	0	509	613	
9	0	0	0	0	508	614	
10	0	0	0	0	508	617	
11	0	0	0	0	508	613	
12	0	0	0	0	508	614	
13	0	0	0	0	508	613	
14	0	0	0	0	508	609	
15	0	0	0	0	508	613	
0	0	0	0	0	509	614	
1	0	0	0	0	509	614	
2	0	0	0	0	509	618	
3	0	0	0	0	509	613	
4	0	0	0	0	508	613	
5	0	0	0	0	508	614	
6	0	0	0	0	508	609	
7	0	0	0	0	508	614	
8	0	0	0	0	509	614	
9	0	0	0	0	509	614	
10	0	0	0	0	510	617	
11	0	0	0	0	510	614	
12	0	0	0	0	510	613	
13	0	0	0	0	510	612	
14	0	0	0	0	510	608	
15	0	0	0	0	510	613	
0	0	0	0	0	509	614	
1	0	0	0	0	509	614	
2	0	0	0	0	509	617	
3	0	0	0	0	508	613	
4	0	0	0	0	508	613	
5	0	0	0	0	507	613	
6	0	0	0	0	507	609	
7	0	0	0	0	507	613	
8	0	0	0	0	507	613	
9	0	0	0	0	507	612	
10	0	0	0	0	507	617	
11	0	0	0	0	507	613	
12	0	0	0	0	508	614	
13	0	0	0	0	507	613	
14	0	0	0	0	508	609	
15	0	0	0	0	508	612	
0	0	0	0	0	509	613	
1	0	0	0	0	509	613	
2	0	0	0	0	509	617	
3	0	0	0	0	508	614	
4	0	0	0	0	508	613	
5	0	0	0	0	508	612	
6	0	0	0	0	508	608	
7	0	0	0	0	508	613	
8	0	0	0	0	508	613	
9	0	0	0	0	508	613	
10	0	0	0	0	508	617	
11	0	0	0	0	508	612	
12	0	0	0	0	507	613	
13	0	0	0	0	507	613	
14	0	0	0	0	508	608	
15	0	0	0	0	508	612	
0	0	0	0	0	509	612	
1	0	0	0	0	510	613	
2	0	0	0	0	510	617	
3	0	0	0	0	510	612	
4	0	0	0	0	509	613	
5	0	0	0	0	508	612	
6	0	0	0	0	508	608	
7	0	0	0	0	509	613	
8	0	0	0	0	508	612	
9	0	0	0	0	508	612	
10	0	0	0	0	507	617	
11	0	0	0	0	507	612	
12	0	0	0	0	507	613	
13	0	0	0	0	506	612	
14	0	0	0	0	507	608	
15	0	0	0	0	507	612	
0	0	0	0	0	507	613	
1	0	0	0	0	508	612	
2	0	0	0	0	508	617	
3	0	0	0	0	508	612	
4	0	0	0	0	509	612	
5	0	0	0	0	509	612	
6	0	0	0	0	510	608	
7	0	0	0	0	510	612	
8	0	0	0	0	510	612	
9	0	0	0	0	510	612	
10	0	0	0	0	509	617	
11	0	0	0	0	510	613	
12	0	0	0	0	510	613	
13	0	0	0	0	510	613	
14	0	0	0	0	509	609	
15	0	0	0	0	509	614	
0	0	0	0	0	510	614	
1	0	0	0	0	509	614	
2	0	0	0	0	509	617	
3	0	0	0	0	510	613	
4	0	0	0	0	509	613	
5	0	0	0	0	510	614	
6	0	0	0	0	509	608	
7	0	0	0	0	510	613	
8	0	0	0	0	510	613	
9	0	0	0	0	510	613	
10	0	0	0	0	510	617	
11	0	0	0	0	510	613	
12	0	0	0	0	510	613	
13	0	0	0	0	510	613	
14	0	0	0	0	510	609	
15	0	0	0	0	510	613	
0	0	0	0	0	510	613	
1	0	0	0	0	511	613	
2	0	0	0	0	511	616	
3	0	0	0	0	511	613	
4	0	0	0	0	511	613	
5	0	0	0	0	511	613	
6	0	0	0	0	512	609	
7	0	0	0	0	511	613	
8	0	0	0	0	512	613	
9	0	0	0	0	513	613	
10	0	0	0	0	513	617	
11	0	0	0	0	513	613	
12	0	0	0	0	513	614	
13	0	0	0	0	512	613	
14	0	0	0	0	512	609	
15	0	0	0	0	512	613	
0	0	0	0	0	512	613	
1	0	0	0	0	512	614	
2	0	0	0	0	512	617	
3	0	0	0	0	511	614	
4	0	0	0	0	510	613	
5	0	0	0	0	510	613	
6	0	0	0	0	510	609	
7	0	0	0	0	509	613	
8	0	0	0	0	509	614	
9	0	0	0	0	508	613	
10	0	0	0	0	508	617	
11	0	0	0	0	509	614	
12	0	0	0	0	509	613	
13	0	0	0	0	509	615	
14	0	0	0	0	510	609	
15	0	0	0	0	510	614	
0	0	0	0	0	510	614	
1	0	0	0	0	510	613	
2	0	0	0	0	511	617	
3	0	0	0	0	511	614	
4	0	0	0	0	512	614	
5	0	0	0	0	512	613	
6	0	0	0	0	512	609	
7	0	0	0	0	511	614	
8	0	0	0	0	511	614	
9	0	0	0	0	511	614	
10	0	0	0	0	511	617	
11	0	0	0	0	511	614	
12	0	0	0	0	511	613	
13	0	0	0	0	510	613	
14	0	0	0	0	510	609	
15	0	0	0	0	510	613	
0	0	0	0	0	511	613	
1	0	0	0	0	511	614	
2	0	0	0	0	511	617	
3	0	0	0	0	511	613	
4	0	0	0	0	511	613	
5	0	0	0	0	511	612	
6	0	0	0	0	511	608	
7	0	0	0	0	512	613	
8	0	0	0	0	512	613	
9	0	0	0	0	511	613	
10	0	0	0	0	512	616	
11	0	0	0	0	512	613	
12	0	0	0	0	512	613	
13	0	0	0	0	512	613	
14	0	0	0	0	511	608	
15	0	0	0	0	511	613	
0	0	0	0	0	511	614	
1	0	0	0	0	511	613	
2	0	0	0	0	511	617	
3	0	0	0	0	511	613	
4	0	0	0	0	511	613	
5	0	0	0	0	511	614	
6	0	0	0	0	510	609	
7	0	0	0	0	511	613	
8	0	0	0	0	511	614	
9	0	0	0	0	511	613	
10	0	0	0	0	511	617	
11	0	0	0	0	510	612	
12	0	0	0	0	511	613	
13	0	0	0	0	511	612	
14	0	0	0	0	510	608	
15	0	0	0	0	510	613	
0	0	0	0	0	510	612	
1	0	0	0	0	509	613	
2	0	0	0	0	509	616	
3	0	0	0	0	509	612	
4	0	0	0	0	509	612	
5	0	0	0	0	509	612	
6	0	0	0	0	510	608	
7	0	0	0	0	510	613	
8	0	0	0	0	510	613	
9	0	0	0	0	511	613	
10	0	0	0	0	511	617	
11	0	0	0	0	512	613	
12	0	0	0	0	512	612	
13	0	0	0	0	512	612	
14	0	0	0	0	513	608	
15	0	0	0	0	512	612	
0	0	0	0	0	511	612	
1	0	0	0	0	510	613	
2	0	0	0	0	508	616	
3	0	0	0	0	506	613	
4	0	0	0	0	504	612	
5	0	0	0	0	501	613	
6	0	0	0	0	499	608	
7	0	0	0	0	496	613	
8	0	0	0	0	494	612	
9	0	0	0	0	493	613	
10	0	0	0	0	491	617	
11	0	0	0	0	490	613	
12	0	0	0	0	488	613	
13	0	0	0	0	487	613	
14	0	0	0	0	487	608	
15	0	0	0	0	487	613	
0	0	0	0	0	487	612	
1	0	0	0	0	487	612	
2	0	0	0	0	487	617	
3	0	0	0	0	487	612	
4	0	0	0	0	488	613	
5	0	0	0	0	489	613	
6	0	0	0	0	491	608	
7	0	0	0	0	493	613	
8	0	0	0	0	495	613	
9	0	0	0	0	499	614	
10	0	0	0	0	503	617	
11	0	0	0	0	508	613	
12	0	0	0	0	513	614	
13	0	0	0	0	520	613	
14	0	0	0	0	526	608	
15	0	0	0	0	532	613	
0	0	0	0	0	537	613	
1	0	0	0	0	542	613	
2	0	0	0	0	546	617	
3	0	0	0	0	549	613	
4	0	0	0	0	553	613	
5	0	0	0	0	556	614	
6	0	0	0	0	561	609	
7	0	0	0	0	565	613	
8	0	0	0	0	569	614	
9	0	0	0	0	574	613	
10	0	0	0	0	578	617	
11	0	0	0	0	582	614	
12	0	0	0	0	585	612	
13	0	0	0	0	588	613	
14	0	0	0	0	590	608	
15	0	0	0	0	593	614	
0	0	0	0	0	594	613	
1	0	0	0	0	594	614	
2	0	0	0	0	592	617	
3	0	0	0	0	590	613	
4	0	0	0	0	586	613	
5	0	0	0	0	582	613	
6	0	0	0	0	577	608	
7	0	0	0	0	573	613	
8	0	0	0	0	569	614	
9	0	0	0	0	564	614	
10	0	0	0	0	559	617	
11	0	0	0	0	554	613	
12	0	0	0	0	549	613	
13	0	0	0	0	545	613	
14	0	0	0	0	540	609	
15	0	0	0	0	535	614	
0	0	0	0	0	531	613	
1	0	0	0	0	526	614	
2	0	0	0	0	522	617	
3	0	0	0	0	519	613	
4	0	0	0	0	516	614	
5	0	0	0	0	513	613	
6	0	0	0	0	510	609	
7	0	0	0	0	508	614	
8	0	0	0	0	506	613	
9	0	0	0	0	504	614	
10	0	0	0	0	503	617	
11	0	0	0	0	502	614	
12	0	0	0	0	501	613	
13	0	0	0	0	500	613	
14	0	0	0	0	499	609	
15	0	0	0	0	499	613	
0	0	0	0	0	499	613	
1	0	0	0	0	498	613	
2	0	0	0	0	498	617	
3	0	0	0	0	498	614	
4	0	0	0	0	498	613	
5	0	0	0	0	498	613	
6	0	0	0	0	498	609	
7	0	0	0	0	498	613	
8	0	0	0	0	498	612	
9	0	0	0	0	498	613	
10	0	0	0	0	498	617	
11	0	0	0	0	498	613	
12	0	0	0	0	498	614	
13	0	0	0	0	498	612	
14	0	0	0	0	499	609	
15	0	0	0	0	499	613	
0	0	0	0	0	500	613	
1	0	0	0	0	500	613	
2	0	0	0	0	500	617	
3	0	0	0	0	500	613	
4	0	0	0	0	499	612	
5	0	0	0	0	499	612	
6	0	0	0	0	500	608	
7	0	0	0	0	500	613	
8	0	0	0	0	500	613	
9	0	0	0	0	500	613	
10	0	0	0	0	499	617	
11	0	0	0	0	500	613	
12	0	0	0	0	500	613	
13	0	0	0	0	500	613	
14	0	0	0	0	500	609	
15	0	0	0	0	500	614	
0	0	0	0	0	500	614	
1	0	0	0	0	501	613	
2	0	0	0	0	501	617	
3	0	0	0	0	501	613	
4	0	0	0	0	502	613	
5	0	0	0	0	502	613	
6	0	0	0	0	502	608	
7	0	0	0	0	502	612	
8	0	0	0	0	503	613	
9	0	0	0	0	503	613	
10	0	0	0	0	504	616	
11	0	0	0	0	504	612	
12	0	0	0	0	503	613	
13	0	0	0	0	503	612	
14	0	0	0	0	503	608	
15	0	0	0	0	502	613	
0	0	0	0	0	502	613	
1	0	0	0	0	502	612	
2	0	0	0	0	502	617	
3	0	0	0	0	501	613	
4	0	0	0	0	501	612	
5	0	0	0	0	502	612	
6	0	0	0	0	501	608	
7	0	0	0	0	502	613	
8	0	0	0	0	502	613	
9	0	0	0	0	502	613	
10	0	0	0	0	503	617	
11	0	0	0	0	503	613	
12	0	0	0	0	503	614	
13	0	0	0	0	503	613	
14	0	0	0	0	504	608	
15	0	0	0	0	503	612	
0	0	0	0	0	504	613	
1	0	0	0	0	504	613	
2	0	0	0	0	504	617	
3	0	0	0	0	504	613	
4	0	0	0	0	504	613	
5	0	0	0	0	504	613	
6	0	0	0	0	504	608	
7	0	0	0	0	504	613	
8	0	0	0	0	504	613	
9	0	0	0	0	504	614	
10	0	0	0	0	504	617	
11	0	0	0	0	504	612	
12	0	0	0	0	504	612	
13	0	0	0	0	504	612	
14	0	0	0	0	505	608	
15	0	0	0	0	504	612	
0	0	0	0	0	504	613	
1	0	0	0	0	505	613	
2	0	0	0	0	505	616	
3	0	0	0	0	505	612	
4	0	0	0	0	505	613	
5	0	0	0	0	505	612	
6	0	0	0	0	505	608	
7	0	0	0	0	505	613	
8	0	0	0	0	505	612	
9	0	0	0	0	505	613	
10	0	0	0	0	505	617	
11	0	0	0	0	506	613	
12	0	0	0	0	505	613	
13	0	0	0	0	505	612	
14	0	0	0	0	506	608	
15	0	0	0	0	507	612	
0	0	0	0	0	507	612	
1	0	0	0	0	507	612	
2	0	0	0	0	508	616	
3	0	0	0	0	508	612	
4	0	0	0	0	507	612	
5	0	0	0	0	507	612	
6	0	0	0	0	507	609	
7	0	0	0	0	507	613	
8	0	0	0	0	507	613	
9	0	0	0	0	508	613	
10	0	0	0	0	508	616	
11	0	0	0	0	507	612	
12	0	0	0	0	508	613	
13	0	0	0	0	508	612	
14	0	0	0	0	508	608	
15	0	0	0	0	509	613	
0	0	0	0	0	509	612	
1	0	0	0	0	509	613	
2	0	0	0	0	510	616	
3	0	0	0	0	510	612	
4	0	0	0	0	510	613	
5	0	0	0	0	510	613	
6	0	0	0	0	509	608	
7	0	0	0	0	509	612	
8	0	0	0	0	509	613	
9	0	0	0	0	509	613	
10	0	0	0	0	508	616	
11	0	0	0	0	508	612	
12	0	0	0	0	508	612	
13	0	0	0	0	508	613	
14	0	0	0	0	508	608	
15	0	0	0	0	508	612	
0	0	0	0	0	508	613	
1	0	0	0	0	507	614	
2	0	0	0	0	506	617	
3	0	0	0	0	507	614	
4	0	0	0	0	507	613	
5	0	0	0	0	507	613	
6	0	0	0	0	507	609	
7	0	0	0	0	506	613	
8	0	0	0	0	507	613	
9	0	0	0	0	507	613	
10	0	0	0	0	507	617	
11	0	0	0	0	507	613	
12	0	0	0	0	508	613	
13	0	0	0	0	508	613	
14	0	0	0	0	508	609	
15	0	0	0	0	507	614	
0	0	0	0	0	506	614	
1	0	0	0	0	506	614	
2	0	0	0	0	506	617	
3	0	0	0	0	506	614	
4	0	0	0	0	505	614	
5	0	0	0	0	505	614	
6	0	0	0	0	506	609	
7	0	0	0	0	505	614	
8	0	0	0	0	505	613	
9	0	0	0	0	506	614	
10	0	0	0	0	506	618	
11	0	0	0	0	506	614	
12	0	0	0	0	506	614	
13	0	0	0	0	507	614	
14	0	0	0	0	506	610	
15	0	0	0	0	506	614	
0	0	0	0	0	506	615	
1	0	0	0	0	506	614	
2	0	0	0	0	506	618	
3	0	0	0	0	506	614	
4	0	0	0	0	505	614	
5	0	0	0	0	505	615	
6	0	0	0	0	505	609	
7	0	0	0	0	505	614	
8	0	0	0	0	506	615	
9	0	0	0	0	505	614	
10	0	0	0	0	505	619	
11	0	0	0	0	506	614	
12	0	0	0	0	505	614	
13	0	0	0	0	506	615	
14	0	0	0	0	505	610	
15	0	0	0	0	505	615	
0	0	0	0	0	505	614	
1	0	0	0	0	505	614	
2	0	0	0	0	505	618	
3	0	0	0	0	505	614	
4	0	0	0	0	505	615	
5	0	0	0	0	505	614	
6	0	0	0	0	505	609	
7	0	0	0	0	505	614	
8	0	0	0	0	505	614	
9	0	0	0	0	505	614	
10	0	0	0	0	505	618	
11	0	0	0	0	505	614	
12	0	0	0	0	504	615	
13	0	0	0	0	504	613	
14	0	0	0	0	504	609	
15	0	0	0	0	504	613	
0	0	0	0	0	504	613	
1	0	0	0	0	505	614	
2	0	0	0	0	506	618	
3	0	0	0	0	507	614	
4	0	0	0	0	507	614	
5	0	0	0	0	508	614	
6	0	0	0	0	508	609	
7	0	0	0	0	508	614	
8	0	0	0	0	509	614	
9	0	0	0	0	509	614	
10	0	0	0	0	509	619	
11	0	0	0	0	509	614	
12	0	0	0	0	509	614	
13	0	0	0	0	509	613	
14	0	0	0	0	510	608	
15	0	0	0	0	510	613	
0	0	0	0	0	510	613	
1	0	0	0	0	510	613	
2	0	0	0	0	510	617	
3	0	0	0	0	511	613	
4	0	0	0	0	511	613	
5	0	0	0	0	511	613	
6	0	0	0	0	510	609	
7	0	0	0	0	510	613	
8	0	0	0	0	511	613	
9	0	0	0	0	511	613	
10	0	0	0	0	511	617	
11	0	0	0	0	511	613	
12	0	0	0	0	511	613	
13	0	0	0	0	511	613	
14	0	0	0	0	511	608	
15	0	0	0	0	512	612	
0	0	0	0	0	513	612	
1	0	0	0	0	512	613	
2	0	0	0	0	512	616	
3	0	0	0	0	513	613	
4	0	0	0	0	514	612	
5	0	0	0	0	514	612	
6	0	0	0	0	515	608	
7	0	0	0	0	515	612	
8	0	0	0	0	515	612	
9	0	0	0	0	515	612	
10	0	0	0	0	515	616	
11	0	0	0	0	516	612	
12	0	0	0	0	516	613	
13	0	0	0	0	516	612	
14	0	0	0	0	516	608	
15	0	0	0	0	517	612	
0	0	0	0	0	517	612	
1	0	0	0	0	517	613	
2	0	0	0	0	517	616	
3	0	0	0	0	518	612	
4	0	0	0	0	518	612	
5	0	0	0	0	519	612	
6	0	0	0	0	519	608	
7	0	0	0	0	519	612	
8	0	0	0	0	519	612	
9	0	0	0	0	520	612	
10	0	0	0	0	520	616	
11	0	0	0	0	521	612	
12	0	0	0	0	520	612	
13	0	0	0	0	521	612	
14	0	0	0	0	522	608	
15	0	0	0	0	522	613	
0	0	0	0	0	522	613	
1	0	0	0	0	523	613	
2	0	0	0	0	523	616	
3	0	0	0	0	523	612	
4	0	0	0	0	523	612	
5	0	0	0	0	523	613	
6	0	0	0	0	523	608	
7	0	0	0	0	524	613	
8	0	0	0	0	524	612	
9	0	0	0	0	524	613	
10	0	0	0	0	524	617	
11	0	0	0	0	524	612	
12	0	0	0	0	524	613	
13	0	0	0	0	524	612	
14	0	0	0	0	524	608	
15	0	0	0	0	524	612	
0	0	0	0	0	524	613	
1	0	0	0	0	524	613	
2	0	0	0	0	525	617	
3	0	0	0	0	525	613	
4	0	0	0	0	525	613	
5	0	0	0	0	525	613	
6	0	0	0	0	526	609	
7	0	0	0	0	525	613	
8	0	0	0	0	526	613	
9	0	0	0	0	526	614	
10	0	0	0	0	526	617	
11	0	0	0	0	526	614	
12	0	0	0	0	526	613	
13	0	0	0	0	525	614	
14	0	0	0	0	525	609	
15	0	0	0	0	525	613	
0	0	0	0	0	526	614	
1	0	0	0	0	525	613	
2	0	0	0	0	524	617	
3	0	0	0	0	525	613	
4	0	0	0	0	524	613	
5	0	0	0	0	525	614	
6	0	0	0	0	524	609	
7	0	0	0	0	524	613	
8	0	0	0	0	524	613	
9	0	0	0	0	524	614	
10	0	0	0	0	524	617	
11	0	0	0	0	524	614	
12	0	0	0	0	523	613	
13	0	0	0	0	522	613	
14	0	0	0	0	521	608	
15	0	0	0	0	520	614	
0	0	0	0	0	519	613	
1	0	0	0	0	519	614	
2	0	0	0	0	518	618	
3	0	0	0	0	517	614	
4	0	0	0	0	516	614	
5	0	0	0	0	515	613	
6	0	0	0	0	513	609	
7	0	0	0	0	513	613	
8	0	0	0	0	513	612	
9	0	0	0	0	513	614	
10	0	0	0	0	513	617	
11	0	0	0	0	514	614	
12	0	0	0	0	514	613	
13	0	0	0	0	514	613	
14	0	0	0	0	513	608	
15	0	0	0	0	513	613	
0	0	0	0	0	514	613	
1	0	0	0	0	513	613	
2	0	0	0	0	513	617	
3	0	0	0	0	513	614	
4	0	0	0	0	513	614	
5	0	0	0	0	512	614	
6	0	0	0	0	513	609	
7	0	0	0	0	513	614	
8	0	0	0	0	513	614	
9	0	0	0	0	513	615	
10	0	0	0	0	513	618	
11	0	0	0	0	513	614	
12	0	0	0	0	513	615	
13	0	0	0	0	513	614	
14	0	0	0	0	513	609	
15	0	0	0	0	513	614	
0	0	0	0	0	513	614	
1	0	0	0	0	514	614	
2	0	0	0	0	514	618	
3	0	0	0	0	515	614	
4	0	0	0	0	514	614	
5	0	0	0	0	514	613	
6	0	0	0	0	515	609	
7	0	0	0	0	515	614	
8	0	0	0	0	514	614	
9	0	0	0	0	514	614	
10	0	0	0	0	514	618	
11	0	0	0	0	514	614	
12	0	0	0	0	514	614	
13	0	0	0	0	515	614	
14	0	0	0	0	515	609	
15	0	0	0	0	516	613	
0	0	0	0	0	515	614	
1	0	0	0	0	515	614	
2	0	0	0	0	515	618	
3	0	0	0	0	515	614	
4	0	0	0	0	515	614	
5	0	0	0	0	515	613	
6	0	0	0	0	515	609	
7	0	0	0	0	515	614	
8	0	0	0	0	515	614	
9	0	0	0	0	515	615	
10	0	0	0	0	516	618	
11	0	0	0	0	516	614	
12	0	0	0	0	516	614	
13	0	0	0	0	516	614	
14	0	0	0	0	516	610	
15	0	0	0	0	516	614	
0	0	0	0	0	516	614	
1	0	0	0	0	517	614	
2	0	0	0	0	517	618	
3	0	0	0	0	517	614	
4	0	0	0	0	517	614	
5	0	0	0	0	518	614	
6	0	0	0	0	518	609	
7	0	0	0	0	518	613	
8	0	0	0	0	518	614	
9	0	0	0	0	518	614	
10	0	0	0	0	518	618	
11	0	0	0	0	518	614	
12	0	0	0	0	518	614	
13	0	0	0	0	518	613	
14	0	0	0	0	518	609	
15	0	0	0	0	518	614	
0	0	0	0	0	517	613	
1	0	0	0	0	516	613	
2	0	0	0	0	516	618	
3	0	0	0	0	515	613	
4	0	0	0	0	516	612	
5	0	0	0	0	516	612	
6	0	0	0	0	516	608	
7	0	0	0	0	516	613	
8	0	0	0	0	516	613	
9	0	0	0	0	517	613	
10	0	0	0	0	517	617	
11	0	0	0	0	517	612	
12	0	0	0	0	518	613	
13	0	0	0	0	518	613	
14	0	0	0	0	518	608	
15	0	0	0	0	519	612	
0	0	0	0	0	518	612	
1	0	0	0	0	518	612	
2	0	0	0	0	518	616	
3	0	0	0	0	518	613	
4	0	0	0	0	518	613	
5	0	0	0	0	517	612	
6	0	0	0	0	518	608	
7	0	0	0	0	518	612	
8	0	0	0	0	518	612	
9	0	0	0	0	518	612	
10	0	0	0	0	518	616	
11	0	0	0	0	518	612	
12	0	0	0	0	517	612	
13	0	0	0	0	516	612	
14	0	0	0	0	516	608	
15	0	0	0	0	516	613	
0	0	0	0	0	516	612	
1	0	0	0	0	516	613	
2	0	0	0	0	515	616	
3	0	0	0	0	515	612	
4	0	0	0	0	515	612	
5	0	0	0	0	515	612	
6	0	0	0	0	515	608	
7	0	0	0	0	516	613	
8	0	0	0	0	516	613	
9	0	0	0	0	516	613	
10	0	0	0	0	516	616	
11	0	0	0	0	517	612	
12	0	0	0	0	516	612	
13	0	0	0	0	516	611	
14	0	0	0	0	516	608	
15	0	0	0	0	517	612	
0	0	0	0	0	516	612	
1	0	0	0	0	517	613	
2	0	0	0	0	517	616	
3	0	0	0	0	516	612	
4	0	0	0	0	516	612	
5	0	0	0	0	516	612	
6	0	0	0	0	516	608	
7	0	0	0	0	516	612	
8	0	0	0	0	516	613	
9	0	0	0	0	515	613	
10	0	0	0	0	515	617	
11	0	0	0	0	516	612	
12	0	0	0	0	516	613	
13	0	0	0	0	515	612	
14	0	0	0	0	516	608	
15	0	0	0	0	515	613	
0	0	0	0	0	516	613	
1	0	0	0	0	516	613	
2	0	0	0	0	517	617	
3	0	0	0	0	517	614	
4	0	0	0	0	516	613	
5	0	0	0	0	517	614	
6	0	0	0	0	516	609	
7	0	0	0	0	517	613	
8	0	0	0	0	518	613	
9	0	0	0	0	519	614	
10	0	0	0	0	518	617	
11	0	0	0	0	519	614	
12	0	0	0	0	519	614	
13	0	0	0	0	519	613	
14	0	0	0	0	519	608	
15	0	0	0	0	519	613	
0	0	0	0	0	520	614	
1	0	0	0	0	520	613	
2	0	0	0	0	520	617	
3	0	0	0	0	520	614	
4	0	0	0	0	519	614	
5	0	0	0	0	519	614	
6	0	0	0	0	519	609	
7	0	0	0	0	519	613	
8	0	0	0	0	519	614	
9	0	0	0	0	518	614	
10	0	0	0	0	518	617	
11	0	0	0	0	518	614	
12	0	0	0	0	519	614	
13	0	0	0	0	519	613	
14	0	0	0	0	519	609	
15	0	0	0	0	520	613	
0	0	0	0	0	520	613	
1	0	0	0	0	520	613	
2	0	0	0	0	520	617	
3	0	0	0	0	521	614	
4	0	0	0	0	520	614	
5	0	0	0	0	520	613	
6	0	0	0	0	519	609	
7	0	0	0	0	520	614	
8	0	0	0	0	520	613	
9	0	0	0	0	519	613	
10	0	0	0	0	520	617	
11	0	0	0	0	521	614	
12	0	0	0	0	521	613	
13	0	0	0	0	521	613	
14	0	0	0	0	521	609	
15	0	0	0	0	521	613	
0	0	0	0	0	521	614	
1	0	0	0	0	520	613	
2	0	0	0	0	520	617	
3	0	0	0	0	521	614	
4	0	0	0	0	520	614	
5	0	0	0	0	520	614	
6	0	0	0	0	520	608	
7	0	0	0	0	520	613	
8	0	0	0	0	519	613	
9	0	0	0	0	519	613	
10	0	0	0	0	519	617	
11	0	0	0	0	520	613	
12	0	0	0	0	520	614	
13	0	0	0	0	519	613	
14	0	0	0	0	520	609	
15	0	0	0	0	520	614	
0	0	0	0	0	519	614	
1	0	0	0	0	520	614	
2	0	0	0	0	520	617	
3	0	0	0	0	520	613	
4	0	0	0	0	519	613	
5	0	0	0	0	519	614	
6	0	0	0	0	520	608	
7	0	0	0	0	520	612	
8	0	0	0	0	519	613	
9	0	0	0	0	519	613	
10	0	0	0	0	519	617	
11	0	0	0	0	520	614	
12	0	0	0	0	519	613	
13	0	0	0	0	519	613	
14	0	0	0	0	519	609	
15	0	0	0	0	519	613	
0	0	0	0	0	519	613	
1	0	0	0	0	519	613	
2	0	0	0	0	519	616	
3	0	0	0	0	519	612	
4	0	0	0	0	519	612	
5	0	0	0	0	519	612	
6	0	0	0	0	519	608	
7	0	0	0	0	519	612	
8	0	0	0	0	519	613	
9	0	0	0	0	519	614	
10	0	0	0	0	519	617	
11	0	0	0	0	518	613	
12	0	0	0	0	519	613	
13	0	0	0	0	519	613	
14	0	0	0	0	519	608	
15	0	0	0	0	519	613	
0	0	0	0	0	518	614	
1	0	0	0	0	518	613	
2	0	0	0	0	518	616	
3	0	0	0	0	518	613	
4	0	0	0	0	517	613	
5	0	0	0	0	517	612	
6	0	0	0	0	517	609	
7	0	0	0	0	517	612	
8	0	0	0	0	517	612	
9	0	0	0	0	517	613	
10	0	0	0	0	517	617	
11	0	0	0	0	517	613	
12	0	0	0	0	518	613	
13	0	0	0	0	518	612	
14	0	0	0	0	519	608	
15	0	0	0	0	519	613	
0	0	0	0	0	520	613	
1	0	0	0	0	519	613	
2	0	0	0	0	519	617	
3	0	0	0	0	519	613	
4	0	0	0	0	519	613	
5	0	0	0	0	519	612	
6	0	0	0	0	519	608	
7	0	0	0	0	518	612	
8	0	0	0	0	518	613	
9	0	0	0	0	517	612	
10	0	0	0	0	517	617	
11	0	0	0	0	517	613	
12	0	0	0	0	518	612	
13	0	0	0	0	518	612	
14	0	0	0	0	518	608	
15	0	0	0	0	519	613	
0	0	0	0	0	518	612	
1	0	0	0	0	518	613	
2	0	0	0	0	518	617	
3	0	0	0	0	518	612	
4	0	0	0	0	518	613	
5	0	0	0	0	517	613	
6	0	0	0	0	518	609	
7	0	0	0	0	517	613	
8	0	0	0	0	517	613	
9	0	0	0	0	517	613	
10	0	0	0	0	516	616	
11	0	0	0	0	515	613	
12	0	0	0	0	515	613	
13	0	0	0	0	515	613	
14	0	0	0	0	514	608	
15	0	0	0	0	514	613	
0	0	0	0	0	514	612	
1	0	0	0	0	514	614	
2	0	0	0	0	514	617	
3	0	0	0	0	515	613	
4	0	0	0	0	516	613	
5	0	0	0	0	516	613	
6	0	0	0	0	516	608	
7	0	0	0	0	517	613	
8	0	0	0	0	517	614	
9	0	0	0	0	517	614	
10	0	0	0	0	517	617	
11	0	0	0	0	518	613	
12	0	0	0	0	517	614	
13	0	0	0	0	517	613	
14	0	0	0	0	517	610	
15	0	0	0	0	517	614	
0	0	0	0	0	517	613	
1	0	0	0	0	517	614	
2	0	0	0	0	516	617	
3	0	0	0	0	517	614	
4	0	0	0	0	517	614	
5	0	0	0	0	518	614	
6	0	0	0	0	518	609	
7	0	0	0	0	518	614	
8	0	0	0	0	518	614	
9	0	0	0	0	519	613	
10	0	0	0	0	519	617	
11	0	0	0	0	519	614	
12	0	0	0	0	519	613	
13	0	0	0	0	518	612	
14	0	0	0	0	517	608	
15	0	0	0	0	517	613	
0	0	0	0	0	517	614	
1	0	0	0	0	517	614	
2	0	0	0	0	517	617	
3	0	0	0	0	517	613	
4	0	0	0	0	517	613	
5	0	0	0	0	517	613	
6	0	0	0	0	516	609	
7	0	0	0	0	516	614	
8	0	0	0	0	516	614	
9	0	0	0	0	515	614	
10	0	0	0	0	514	617	
11	0	0	0	0	515	613	
12	0	0	0	0	514	613	
13	0	0	0	0	515	613	
14	0	0	0	0	516	609	
15	0	0	0	0	515	614	
0	0	0	0	0	515	613	
1	0	0	0	0	515	614	
2	0	0	0	0	514	617	
3	0	0	0	0	513	613	
4	0	0	0	0	512	613	
5	0	0	0	0	512	613	
6	0	0	0	0	512	608	
7	0	0	0	0	512	613	
8	0	0	0	0	512	613	
9	0	0	0	0	512	613	
10	0	0	0	0	513	617	
11	0	0	0	0	513	613	
12	0	0	0	0	513	613	
13	0	0	0	0	514	613	
14	0	0	0	0	514	609	
15	0	0	0	0	515	613	
0	0	0	0	0	515	613	
1	0	0	0	0	516	614	
2	0	0	0	0	516	617	
3	0	0	0	0	516	612	
4	0	0	0	0	516	612	
5	0	0	0	0	516	613	
6	0	0	0	0	517	609	
7	0	0	0	0	517	612	
8	0	0	0	0	517	613	
9	0	0	0	0	516	613	
10	0	0	0	0	516	617	
11	0	0	0	0	513	613	
12	0	0	0	0	508	613	
13	0	0	0	0	501	613	
14	0	0	0	0	494	608	
15	0	0	0	0	485	613	
0	0	0	0	0	477	613	
1	0	0	0	0	470	612	
2	0	0	0	0	462	617	
3	0	0	0	0	456	613	
4	0	0	0	0	450	612	
5	0	0	0	0	445	612	
6	0	0	0	0	442	609	
7	0	0	0	0	439	613	
8	0	0	0	0	436	613	
9	0	0	0	0	435	614	
10	0	0	0	0	433	616	
11	0	0	0	0	432	614	
12	0	0	0	0	432	612	
13	0	0	0	0	432	612	
14	0	0	0	0	432	608	
15	0	0	0	0	431	613	
0	0	0	0	0	431	613	
1	0	0	0	0	431	613	
2	0	0	0	0	432	617	
3	0	0	0	0	433	614	
4	0	0	0	0	433	612	
5	0	0	0	0	434	612	
6	0	0	0	0	434	608	
7	0	0	0	0	435	613	
8	0	0	0	0	436	613	
9	0	0	0	0	438	614	
10	0	0	0	0	439	617	
11	0	0	0	0	439	612	
12	0	0	0	0	440	612	
13	0	0	0	0	441	612	
14	0	0	0	0	441	609	
15	0	0	0	0	442	612	
0	0	0	0	0	443	613	
1	0	0	0	0	444	613	
2	0	0	0	0	445	617	
3	0	0	0	0	446	613	
4	0	0	0	0	447	613	
5	0	0	0	0	447	613	
6	0	0	0	0	447	609	
7	0	0	0	0	447	613	
8	0	0	0	0	448	612	
9	0	0	0	0	449	613	
10	0	0	0	0	450	617	
11	0	0	0	0	451	613	
12	0	0	0	0	452	613	
13	0	0	0	0	453	613	
14	0	0	0	0	455	609	
15	0	0	0	0	456	612	
0	0	0	0	0	457	612	
1	0	0	0	0	459	613	
2	0	0	0	0	460	617	
3	0	0	0	0	461	613	
4	0	0	0	0	462	613	
5	0	0	0	0	463	613	
6	0	0	0	0	463	608	
7	0	0	0	0	463	613	
8	0	0	0	0	463	613	
9	0	0	0	0	463	614	
10	0	0	0	0	464	617	
11	0	0	0	0	465	613	
12	0	0	0	0	465	613	
13	0	0	0	0	467	614	
14	0	0	0	0	467	608	
15	0	0	0	0	469	613	
0	0	0	0	0	470	613	
1	0	0	0	0	472	612	
2	0	0	0	0	473	616	
3	0	0	0	0	475	612	
4	0	0	0	0	475	612	
5	0	0	0	0	476	612	
6	0	0	0	0	476	608	
7	0	0	0	0	478	613	
8	0	0	0	0	478	613	
9	0	0	0	0	478	613	
10	0	0	0	0	479	617	
11	0	0	0	0	480	613	
12	0	0	0	0	480	613	
13	0	0	0	0	481	613	
14	0	0	0	0	482	608	
15	0	0	0	0	483	613	
0	0	0	0	0	483	613	
1	0	0	0	0	484	614	
2	0	0	0	0	485	618	
3	0	0	0	0	486	613	
4	0	0	0	0	486	614	
5	0	0	0	0	487	613	
6	0	0	0	0	487	609	
7	0	0	0	0	487	614	
8	0	0	0	0	488	613	
9	0	0	0	0	489	613	
10	0	0	0	0	489	617	
11	0	0	0	0	489	613	
12	0	0	0	0	489	613	
13	0	0	0	0	490	614	
14	0	0	0	0	491	609	
15	0	0	0	0	491	613	
0	0	0	0	0	492	613	
1	0	0	0	0	492	614	
2	0	0	0	0	492	617	
3	0	0	0	0	494	613	
4	0	0	0	0	493	613	
5	0	0	0	0	494	613	
6	0	0	0	0	495	608	
7	0	0	0	0	496	613	
8	0	0	0	0	497	613	
9	0	0	0	0	497	614	
10	0	0	0	0	497	617	
11	0	0	0	0	498	613	
12	0	0	0	0	498	612	
13	0	0	0	0	497	613	
14	0	0	0	0	497	608	
15	0	0	0	0	497	613	
0	0	0	0	0	496	613	
1	0	0	0	0	495	613	
2	0	0	0	0	493	616	
3	0	0	0	0	491	613	
4	0	0	0	0	488	614	
5	0	0	0	0	486	613	
6	0	0	0	0	484	608	
7	0	0	0	0	482	613	
8	0	0	0	0	480	613	
9	0	0	0	0	479	613	
10	0	0	0	0	478	617	
11	0	0	0	0	478	613	
12	0	0	0	0	478	613	
13	0	0	0	0	478	612	
14	0	0	0	0	478	609	
15	0	0	0	0	479	613	
0	0	0	0	0	480	613	
1	0	0	0	0	480	613	
2	0	0	0	0	481	617	
3	0	0	0	0	482	613	
4	0	0	0	0	483	613	
5	0	0	0	0	486	613	
6	0	0	0	0	488	608	
7	0	0	0	0	490	613	
8	0	0	0	0	493	613	
9	0	0	0	0	496	614	
10	0	0	0	0	499	617	
11	0	0	0	0	504	614	
12	0	0	0	0	509	613	
13	0	0	0	0	515	613	
14	0	0	0	0	520	609	
15	0	0	0	0	525	613	
0	0	0	0	0	529	613	
1	0	0	0	0	533	613	
2	0	0	0	0	536	617	
3	0	0	0	0	540	613	
4	0	0	0	0	543	613	
5	0	0	0	0	548	614	
6	0	0	0	0	552	609	
7	0	0	0	0	557	613	
8	0	0	0	0	560	613	
9	0	0	0	0	565	613	
10	0	0	0	0	568	618	
11	0	0	0	0	572	614	
12	0	0	0	0	575	613	
13	0	0	0	0	578	613	
14	0	0	0	0	580	609	
15	0	0	0	0	582	613	
0	0	0	0	0	583	613	
1	0	0	0	0	582	614	
2	0	0	0	0	581	617	
3	0	0	0	0	579	613	
4	0	0	0	0	576	614	
5	0	0	0	0	574	613	
6	0	0	0	0	571	608	
7	0	0	0	0	568	613	
8	0	0	0	0	564	614	
9	0	0	0	0	561	614	
10	0	0	0	0	556	617	
11	0	0	0	0	553	614	
12	0	0	0	0	548	614	
13	0	0	0	0	545	614	
14	0	0	0	0	541	609	
15	0	0	0	0	538	613	
0	0	0	0	0	534	614	
1	0	0	0	0	531	614	
2	0	0	0	0	528	618	
3	0	0	0	0	526	614	
4	0	0	0	0	523	613	
5	0	0	0	0	519	613	
6	0	0	0	0	517	609	
7	0	0	0	0	516	613	
8	0	0	0	0	515	614	
9	0	0	0	0	514	613	
10	0	0	0	0	513	617	
11	0	0	0	0	512	612	
12	0	0	0	0	512	613	
13	0	0	0	0	512	612	
14	0	0	0	0	512	608	
15	0	0	0	0	511	613	
0	0	0	0	0	510	613	
1	0	0	0	0	510	613	
2	0	0	0	0	509	617	
3	0	0	0	0	509	613	
4	0	0	0	0	509	613	
5	0	0	0	0	509	613	
6	0	0	0	0	509	608	
7	0	0	0	0	509	614	
8	0	0	0	0	509	613	
9	0	0	0	0	510	613	
10	0	0	0	0	509	617	
11	0	0	0	0	510	614	
12	0	0	0	0	510	613	
13	0	0	0	0	510	612	
14	0	0	0	0	510	609	
15	0	0	0	0	510	613	
0	0	0	0	0	510	614	
1	0	0	0	0	510	614	
2	0	0	0	0	509	617	
3	0	0	0	0	509	613	
4	0	0	0	0	508	613	
5	0	0	0	0	508	612	
6	0	0	0	0	509	608	
7	0	0	0	0	510	611	
8	0	0	0	0	510	611	
9	0	0	0	0	510	613	
10	0	0	0	0	510	616	
11	0	0	0	0	509	611	
12	0	0	0	0	509	611	
13	0	0	0	0	509	612	
14	0	0	0	0	510	608	
15	0	0	0	0	510	612	
0	0	0	0	0	511	612	
1	0	0	0	0	511	612	
2	0	0	0	0	512	617	
3	0	0	0	0	512	613	
4	0	0	0	0	512	614	
5	0	0	0	0	512	613	
6	0	0	0	0	513	609	
7	0	0	0	0	515	613	
8	0	0	0	0	515	612	
9	0	0	0	0	515	613	
10	0	0	0	0	515	616	
11	0	0	0	0	515	612	
12	0	0	0	0	515	612	
13	0	0	0	0	515	611	
14	0	0	0	0	514	608	
15	0	0	0	0	515	612	
0	0	0	0	0	515	612	
1	0	0	0	0	515	613	
2	0	0	0	0	515	617	
3	0	0	0	0	515	613	
4	0	0	0	0	515	613	
5	0	0	0	0	515	612	
6	0	0	0	0	516	607	
7	0	0	0	0	516	612	
8	0	0	0	0	516	611	
9	0	0	0	0	516	613	
10	0	0	0	0	516	616	
11	0	0	0	0	517	612	
12	0	0	0	0	517	612	
13	0	0	0	0	516	612	
14	0	0	0	0	516	608	
15	0	0	0	0	515	613	
0	0	0	0	0	515	613	
1	0	0	0	0	515	613	
2	0	0	0	0	515	617	
3	0	0	0	0	515	612	
4	0	0	0	0	515	613	
5	0	0	0	0	515	613	
6	0	0	0	0	515	608	
7	0	0	0	0	515	612	
8	0	0	0	0	516	613	
9	0	0	0	0	517	613	
10	0	0	0	0	517	616	
11	0	0	0	0	518	612	
12	0	0	0	0	518	612	
13	0	0	0	0	519	612	
14	0	0	0	0	519	608	
15	0	0	0	0	519	613	
0	0	0	0	0	519	612	
1	0	0	0	0	519	613	
2	0	0	0	0	519	617	
3	0	0	0	0	519	612	
4	0	0	0	0	519	613	
5	0	0	0	0	520	613	
6	0	0	0	0	520	608	
7	0	0	0	0	520	613	
8	0	0	0	0	521	612	
9	0	0	0	0	521	613	
10	0	0	0	0	521	617	
11	0	0	0	0	521	613	
12	0	0	0	0	520	613	
13	0	0	0	0	520	613	
14	0	0	0	0	521	608	
15	0	0	0	0	521	613	
0	0	0	0	0	522	614	
1	0	0	0	0	522	613	
2	0	0	0	0	522	617	
3	0	0	0	0	523	613	
4	0	0	0	0	522	613	
5	0	0	0	0	522	613	
6	0	0	0	0	521	608	
7	0	0	0	0	521	613	
8	0	0	0	0	520	613	
9	0	0	0	0	520	613	
10	0	0	0	0	520	616	
11	0	0	0	0	519	612	
12	0	0	0	0	519	613	
13	0	0	0	0	519	613	
14	0	0	0	0	520	608	
15	0	0	0	0	520	613	
0	0	0	0	0	520	613	
1	0	0	0	0	520	613	
2	0	0	0	0	521	617	
3	0	0	0	0	521	612	
4	0	0	0	0	521	613	
5	0	0	0	0	521	612	
6	0	0	0	0	521	608	
7	0	0	0	0	522	613	
8	0	0	0	0	521	614	
9	0	0	0	0	521	614	
10	0	0	0	0	520	617	
11	0	0	0	0	519	613	
12	0	0	0	0	520	614	
13	0	0	0	0	519	613	
14	0	0	0	0	519	610	
15	0	0	0	0	519	613	
0	0	0	0	0	519	614	
1	0	0	0	0	520	614	
2	0	0	0	0	519	618	
3	0	0	0	0	519	614	
4	0	0	0	0	519	614	
5	0	0	0	0	519	613	
6	0	0	0	0	519	609	
7	0	0	0	0	519	614	
8	0	0	0	0	519	614	
9	0	0	0	0	519	615	
10	0	0	0	0	518	618	
11	0	0	0	0	518	615	
12	0	0	0	0	518	615	
13	0	0	0	0	518	614	
14	0	0	0	0	518	609	
15	0	0	0	0	518	615	
0	0	0	0	0	518	614	
1	0	0	0	0	518	615	
2	0	0	0	0	518	618	
3	0	0	0	0	518	614	
4	0	0	0	0	518	615	
5	0	0	0	0	518	614	
6	0	0	0	0	519	609	
7	0	0	0	0	518	615	
8	0	0	0	0	518	615	
9	0	0	0	0	518	615	
10	0	0	0	0	518	619	
11	0	0	0	0	518	615	
12	0	0	0	0	517	615	
13	0	0	0	0	517	614	
14	0	0	0	0	518	610	
15	0	0	0	0	518	615	
0	0	0	0	0	518	615	
1	0	0	0	0	518	615	
2	0	0	0	0	517	619	
3	0	0	0	0	517	614	
4	0	0	0	0	517	615	
5	0	0	0	0	516	614	
6	0	0	0	0	516	610	
7	0	0	0	0	516	614	
8	0	0	0	0	516	615	
9	0	0	0	0	515	614	
10	0	0	0	0	515	618	
11	0	0	0	0	515	615	
12	0	0	0	0	515	614	
13	0	0	0	0	515	615	
14	0	0	0	0	515	609	
15	0	0	0	0	516	614	
0	0	0	0	0	516	614	
1	0	0	0	0	516	615	
2	0	0	0	0	517	618	
3	0	0	0	0	518	615	
4	0	0	0	0	518	614	
5	0	0	0	0	518	613	
6	0	0	0	0	519	609	
7	0	0	0	0	519	613	
8	0	0	0	0	519	614	
9	0	0	0	0	519	615	
10	0	0	0	0	519	618	
11	0	0	0	0	519	614	
12	0	0	0	0	519	614	
13	0	0	0	0	519	614	
14	0	0	0	0	519	609	
15	0	0	0	0	519	614	
0	0	0	0	0	519	614	
1	0	0	0	0	519	614	
2	0	0	0	0	520	618	
3	0	0	0	0	519	614	
4	0	0	0	0	519	614	
5	0	0	0	0	519	613	
6	0	0	0	0	519	609	
7	0	0	0	0	519	614	
8	0	0	0	0	519	613	
9	0	0	0	0	519	614	
10	0	0	0	0	519	617	
11	0	0	0	0	519	614	
12	0	0	0	0	519	614	
13	0	0	0	0	519	613	
14	0	0	0	0	519	609	
15	0	0	0	0	518	613	
0	0	0	0	0	518	613	
1	0	0	0	0	518	614	
2	0	0	0	0	518	618	
3	0	0	0	0	519	614	
4	0	0	0	0	518	613	
5	0	0	0	0	518	613	
6	0	0	0	0	519	609	
7	0	0	0	0	518	613	
8	0	0	0	0	519	614	
9	0	0	0	0	519	614	
10	0	0	0	0	520	617	
11	0	0	0	0	521	613	
12	0	0	0	0	520	613	
13	0	0	0	0	520	612	
14	0	0	0	0	521	608	
15	0	0	0	0	521	612	
0	0	0	0	0	521	612	
1	0	0	0	0	521	613	
2	0	0	0	0	521	616	
3	0	0	0	0	522	613	
4	0	0	0	0	521	612	
5	0	0	0	0	521	613	
6	0	0	0	0	521	608	
7	0	0	0	0	521	613	
8	0	0	0	0	523	612	
9	0	0	0	0	523	612	
10	0	0	0	0	523	617	
11	0	0	0	0	524	612	
12	0	0	0	0	524	613	
13	0	0	0	0	524	611	
14	0	0	0	0	524	608	
15	0	0	0	0	524	612	
0	0	0	0	0	524	612	
1	0	0	0	0	525	612	
2	0	0	0	0	525	617	
3	0	0	0	0	525	612	
4	0	0	0	0	526	612	
5	0	0	0	0	526	612	
6	0	0	0	0	526	608	
7	0	0	0	0	527	613	
8	0	0	0	0	527	613	
9	0	0	0	0	528	612	
10	0	0	0	0	528	617	
11	0	0	0	0	529	612	
12	0	0	0	0	529	613	
13	0	0	0	0	529	612	
14	0	0	0	0	530	608	
15	0	0	0	0	530	613	
0	0	0	0	0	531	613	
1	0	0	0	0	530	613	
2	0	0	0	0	530	617	
3	0	0	0	0	530	614	
4	0	0	0	0	530	613	
5	0	0	0	0	530	612	
6	0	0	0	0	530	608	
7	0	0	0	0	531	612	
8	0	0	0	0	531	613	
9	0	0	0	0	531	613	
10	0	0	0	0	531	616	
11	0	0	0	0	531	612	
12	0	0	0	0	531	612	
13	0	0	0	0	531	613	
14	0	0	0	0	531	608	
15	0	0	0	0	530	613	
0	0	0	0	0	530	613	
1	0	0	0	0	529	613	
2	0	0	0	0	529	617	
3	0	0	0	0	529	613	
4	0	0	0	0	529	612	
5	0	0	0	0	528	613	
6	0	0	0	0	528	608	
7	0	0	0	0	529	613	
8	0	0	0	0	529	612	
9	0	0	0	0	530	613	
10	0	0	0	0	530	617	
11	0	0	0	0	530	613	
12	0	0	0	0	530	613	
13	0	0	0	0	530	613	
14	0	0	0	0	529	609	
15	0	0	0	0	529	614	
0	0	0	0	0	529	614	
1	0	0	0	0	530	614	
2	0	0	0	0	530	617	
3	0	0	0	0	530	613	
4	0	0	0	0	529	613	
5	0	0	0	0	529	614	
6	0	0	0	0	529	609	
7	0	0	0	0	528	614	
8	0	0	0	0	528	614	
9	0	0	0	0	529	614	
10	0	0	0	0	528	618	
11	0	0	0	0	529	614	
12	0	0	0	0	529	614	
13	0	0	0	0	529	614	
14	0	0	0	0	528	609	
15	0	0	0	0	528	614	
0	0	0	0	0	528	614	
1	0	0	0	0	528	614	
2	0	0	0	0	528	617	
3	0	0	0	0	528	614	
4	0	0	0	0	527	613	
5	0	0	0	0	527	614	
6	0	0	0	0	527	609	
7	0	0	0	0	527	614	
8	0	0	0	0	526	614	
9	0	0	0	0	526	614	
10	0	0	0	0	527	617	
11	0	0	0	0	527	614	
12	0	0	0	0	527	614	
13	0	0	0	0	527	614	
14	0	0	0	0	527	610	
15	0	0	0	0	527	614	
0	0	0	0	0	527	613	
1	0	0	0	0	527	614	
2	0	0	0	0	527	618	
3	0	0	0	0	527	614	
4	0	0	0	0	527	614	
5	0	0	0	0	526	614	
6	0	0	0	0	526	609	
7	0	0	0	0	526	614	
8	0	0	0	0	526	613	
9	0	0	0	0	526	614	
10	0	0	0	0	525	617	
11	0	0	0	0	525	614	
12	0	0	0	0	525	614	
13	0	0	0	0	524	614	
14	0	0	0	0	525	609	
15	0	0	0	0	524	614	
0	0	0	0	0	524	615	
1	0	0	0	0	524	615	
2	0	0	0	0	523	617	
3	0	0	0	0	524	614	
4	0	0	0	0	523	614	
5	0	0	0	0	523	614	
6	0	0	0	0	523	609	
7	0	0	0	0	523	613	
8	0	0	0	0	523	614	
9	0	0	0	0	523	614	
10	0	0	0	0	522	617	
11	0	0	0	0	522	613	
12	0	0	0	0	521	614	
13	0	0	0	0	521	614	
14	0	0	0	0	520	609	
15	0	0	0	0	520	614	
0	0	0	0	0	521	614	
1	0	0	0	0	521	614	
2	0	0	0	0	521	617	
3	0	0	0	0	521	613	
4	0	0	0	0	520	614	
5	0	0	0	0	520	614	
6	0	0	0	0	519	609	
7	0	0	0	0	519	614	
8	0	0	0	0	519	613	
9	0	0	0	0	519	614	
10	0	0	0	0	520	618	
11	0	0	0	0	519	613	
12	0	0	0	0	519	613	
13	0	0	0	0	520	614	
14	0	0	0	0	520	609	
15	0	0	0	0	520	614	
0	0	0	0	0	520	614	
1	0	0	0	0	520	614	
2	0	0	0	0	520	618	
3	0	0	0	0	520	613	
4	0	0	0	0	520	614	
5	0	0	0	0	521	613	
6	0	0	0	0	521	610	
7	0	0	0	0	520	613	
8	0	0	0	0	520	613	
9	0	0	0	0	520	613	
10	0	0	0	0	520	617	
11	0	0	0	0	519	613	
12	0	0	0	0	519	613	
13	0	0	0	0	519	613	
14	0	0	0	0	519	608	
15	0	0	0	0	519	613	
0	0	0	0	0	518	613	
1	0	0	0	0	518	613	
2	0	0	0	0	517	617	
3	0	0	0	0	517	613	
4	0	0	0	0	517	613	
5	0	0	0	0	518	614	
6	0	0	0	0	518	609	
7	0	0	0	0	519	613	
8	0	0	0	0	519	613	
9	0	0	0	0	519	613	
10	0	0	0	0	519	617	
11	0	0	0	0	519	613	
12	0	0	0	0	519	613	
13	0	0	0	0	519	612	
14	0	0	0	0	519	608	
15	0	0	0	0	519	613	
0	0	0	0	0	518	613	
1	0	0	0	0	518	613	
2	0	0	0	0	518	616	
3	0	0	0	0	517	613	
4	0	0	0	0	517	612	
5	0	0	0	0	516	613	
6	0	0	0	0	515	608	
7	0	0	0	0	515	612	
8	0	0	0	0	515	613	
9	0	0	0	0	515	613	
10	0	0	0	0	515	617	
11	0	0	0	0	515	613	
12	0	0	0	0	515	613	
13	0	0	0	0	514	613	
14	0	0	0	0	514	608	
15	0	0	0	0	514	613	
0	0	0	0	0	514	613	
1	0	0	0	0	513	614	
2	0	0	0	0	513	617	
3	0	0	0	0	513	613	
4	0	0	0	0	513	613	
5	0	0	0	0	513	612	
6	0	0	0	0	513	608	
7	0	0	0	0	513	613	
8	0	0	0	0	513	612	
9	0	0	0	0	512	612	
10	0	0	0	0	513	616	
11	0	0	0	0	513	612	
12	0	0	0	0	513	612	
13	0	0	0	0	513	612	
14	0	0	0	0	513	609	
15	0	0	0	0	513	613	
0	0	0	0	0	513	613	
1	0	0	0	0	513	613	
2	0	0	0	0	513	617	
3	0	0	0	0	513	613	
4	0	0	0	0	512	613	
5	0	0	0	0	513	613	
6	0	0	0	0	512	609	
7	0	0	0	0	513	614	
8	0	0	0	0	512	612	
9	0	0	0	0	512	613	
10	0	0	0	0	512	616	
11	0	0	0	0	511	614	
12	0	0	0	0	511	613	
13	0	0	0	0	510	613	
14	0	0	0	0	510	608	
15	0	0	0	0	510	613	
0	0	0	0	0	510	614	
1	0	0	0	0	511	613	
2	0	0	0	0	510	617	
3	0	0	0	0	510	613	
4	0	0	0	0	509	613	
5	0	0	0	0	510	612	
6	0	0	0	0	510	609	
7	0	0	0	0	510	612	
8	0	0	0	0	509	613	
9	0	0	0	0	510	614	
10	0	0	0	0	509	617	
11	0	0	0	0	509	614	
12	0	0	0	0	509	614	
13	0	0	0	0	510	613	
14	0	0	0	0	509	609	
15	0	0	0	0	509	613	
0	0	0	0	0	509	613	
1	0	0	0	0	509	613	
2	0	0	0	0	508	617	
3	0	0	0	0	508	612	
4	0	0	0	0	508	613	
5	0	0	0	0	508	613	
6	0	0	0	0	508	608	
7	0	0	0	0	508	613	
8	0	0	0	0	508	613	
9	0	0	0	0	508	613	
10	0	0	0	0	508	617	
11	0	0	0	0	508	613	
12	0	0	0	0	508	613	
13	0	0	0	0	508	613	
14	0	0	0	0	508	608	
15	0	0	0	0	508	614	
0	0	0	0	0	508	613	
1	0	0	0	0	508	614	
2	0	0	0	0	508	617	
3	0	0	0	0	509	613	
4	0	0	0	0	509	614	
5	0	0	0	0	509	613	
6	0	0	0	0	508	609	
7	0	0	0	0	508	614	
8	0	0	0	0	509	613	
9	0	0	0	0	509	612	
10	0	0	0	0	509	617	
11	0	0	0	0	509	614	
12	0	0	0	0	509	613	
13	0	0	0	0	508	613	
14	0	0	0	0	509	609	
15	0	0	0	0	508	613	
0	0	0	0	0	508	613	
1	0	0	0	0	508	613	
2	0	0	0	0	509	617	
3	0	0	0	0	510	613	
4	0	0	0	0	509	613	
5	0	0	0	0	509	614	
6	0	0	0	0	508	609	
7	0	0	0	0	508	613	
8	0	0	0	0	508	613	
9	0	0	0	0	508	613	
10	0	0	0	0	508	617	
11	0	0	0	0	508	613	
12	0	0	0	0	508	613	
13	0	0	0	0	508	614	
14	0	0	0	0	508	608	
15	0	0	0	0	509	613	
0	0	0	0	0	509	613	
1	0	0	0	0	509	613	
2	0	0	0	0	510	617	
3	0	0	0	0	510	613	
4	0	0	0	0	510	612	
5	0	0	0	0	510	612	
6	0	0	0	0	510	608	
7	0	0	0	0	510	613	
8	0	0	0	0	511	613	
9	0	0	0	0	511	614	
10	0	0	0	0	511	617	
11	0	0	0	0	511	614	
12	0	0	0	0	511	614	
13	0	0	0	0	511	613	
14	0	0	0	0	510	608	
15	0	0	0	0	510	614	
0	0	0	0	0	510	613	
1	0	0	0	0	510	613	
2	0	0	0	0	510	617	
3	0	0	0	0	511	614	
4	0	0	0	0	511	613	
5	0	0	0	0	510	612	
6	0	0	0	0	510	608	
7	0	0	0	0	510	612	
8	0	0	0	0	510	612	
9	0	0	0	0	510	613	
10	0	0	0	0	510	617	
11	0	0	0	0	510	613	
12	0	0	0	0	509	613	
13	0	0	0	0	509	612	
14	0	0	0	0	509	609	
15	0	0	0	0	509	613	
0	0	0	0	0	509	613	
1	0	0	0	0	509	614	
2	0	0	0	0	509	617	
3	0	0	0	0	509	612	
4	0	0	0	0	509	612	
5	0	0	0	0	509	612	
6	0	0	0	0	509	608	
7	0	0	0	0	509	612	
8	0	0	0	0	508	612	
9	0	0	0	0	508	612	
10	0	0	0	0	509	616	
11	0	0	0	0	509	612	
12	0	0	0	0	508	612	
13	0	0	0	0	509	612	
14	0	0	0	0	509	608	
15	0	0	0	0	509	613	
0	0	0	0	0	509	613	
1	0	0	0	0	510	612	
2	0	0	0	0	510	616	
3	0	0	0	0	510	612	
4	0	0	0	0	511	613	
5	0	0	0	0	510	613	
6	0	0	0	0	509	608	
7	0	0	0	0	509	612	
8	0	0	0	0	508	612	
9	0	0	0	0	509	612	
10	0	0	0	0	509	617	
11	0	0	0	0	509	612	
12	0	0	0	0	509	612	
13	0	0	0	0	509	612	
14	0	0	0	0	510	608	
15	0	0	0	0	510	613	
0	0	0	0	0	509	613	
1	0	0	0	0	509	613	
2	0	0	0	0	508	616	
3	0	0	0	0	508	613	
4	0	0	0	0	508	612	
5	0	0	0	0	507	612	
6	0	0	0	0	507	608	
7	0	0	0	0	507	613	
8	0	0	0	0	507	613	
9	0	0	0	0	506	613	
10	0	0	0	0	506	616	
11	0	0	0	0	506	612	
12	0	0	0	0	506	613	
13	0	0	0	0	506	612	
14	0	0	0	0	506	608	
15	0	0	0	0	507	613	
0	0	0	0	0	508	613	
1	0	0	0	0	508	614	
2	0	0	0	0	509	618	
3	0	0	0	0	509	614	
4	0	0	0	0	509	613	
5	0	0	0	0	509	612	
6	0	0	0	0	509	608	
7	0	0	0	0	509	613	
8	0	0	0	0	509	613	
9	0	0	0	0	510	614	
10	0	0	0	0	510	617	
11	0	0	0	0	509	613	
12	0	0	0	0	509	613	
13	0	0	0	0	509	612	
14	0	0	0	0	509	608	
15	0	0	0	0	509	612	
0	0	0	0	0	510	612	
1	0	0	0	0	510	612	
2	0	0	0	0	509	616	
3	0	0	0	0	510	613	
4	0	0	0	0	509	613	
5	0	0	0	0	508	612	
6	0	0	0	0	508	608	
7	0	0	0	0	508	614	
8	0	0	0	0	509	614	
9	0	0	0	0	510	614	
10	0	0	0	0	509	617	
11	0	0	0	0	510	614	
12	0	0	0	0	509	613	
13	0	0	0	0	510	613	
14	0	0	0	0	510	609	
15	0	0	0	0	510	612	
0	0	0	0	0	510	613	
1	0	0	0	0	510	613	
2	0	0	0	0	509	617	
3	0	0	0	0	510	613	
4	0	0	0	0	510	613	
5	0	0	0	0	510	613	
6	0	0	0	0	510	609	
7	0	0	0	0	510	613	
8	0	0	0	0	511	613	
9	0	0	0	0	512	614	
10	0	0	0	0	512	618	
11	0	0	0	0	512	613	
12	0	0	0	0	511	614	
13	0	0	0	0	511	614	
14	0	0	0	0	511	609	
15	0	0	0	0	510	613	
0	0	0	0	0	510	613	
1	0	0	0	0	510	614	
2	0	0	0	0	510	617	
3	0	0	0	0	509	613	
4	0	0	0	0	509	614	
5	0	0	0	0	509	614	
6	0	0	0	0	508	609	
7	0	0	0	0	509	614	
8	0	0	0	0	509	613	
9	0	0	0	0	509	614	
10	0	0	0	0	509	617	
11	0	0	0	0	509	613	
12	0	0	0	0	510	614	
13	0	0	0	0	510	613	
14	0	0	0	0	510	608	
15	0	0	0	0	511	613	
0	0	0	0	0	511	614	
1	0	0	0	0	511	613	
2	0	0	0	0	510	617	
3	0	0	0	0	510	613	
4	0	0	0	0	510	613	
5	0	0	0	0	510	613	
6	0	0	0	0	510	609	
7	0	0	0	0	510	613	
8	0	0	0	0	510	614	
9	0	0	0	0	510	613	
10	0	0	0	0	510	617	
11	0	0	0	0	510	613	
12	0	0	0	0	510	613	
13	0	0	0	0	510	613	
14	0	0	0	0	510	609	
15	0	0	0	0	511	613	
0	0	0	0	0	511	614	
1	0	0	0	0	510	613	
2	0	0	0	0	508	617	
3	0	0	0	0	509	612	
4	0	0	0	0	508	612	
5	0	0	0	0	508	612	
6	0	0	0	0	507	608	
7	0	0	0	0	508	612	
8	0	0	0	0	507	612	
9	0	0	0	0	507	612	
10	0	0	0	0	507	617	
11	0	0	0	0	508	613	
12	0	0	0	0	507	613	
13	0	0	0	0	508	612	
14	0	0	0	0	508	608	
15	0	0	0	0	508	613	
0	0	0	0	0	508	612	
1	0	0	0	0	509	614	
2	0	0	0	0	510	617	
3	0	0	0	0	510	613	
4	0	0	0	0	509	612	
5	0	0	0	0	509	612	
6	0	0	0	0	509	608	
7	0	0	0	0	508	613	
8	0	0	0	0	508	612	
9	0	0	0	0	508	613	
10	0	0	0	0	507	617	
11	0	0	0	0	507	614	
12	0	0	0	0	507	613	
13	0	0	0	0	506	613	
14	0	0	0	0	506	609	
15	0	0	0	0	505	613	
0	0	0	0	0	505	613	
1	0	0	0	0	505	613	
2	0	0	0	0	505	617	
3	0	0	0	0	505	613	
4	0	0	0	0	505	613	
5	0	0	0	0	505	613	
6	0	0	0	0	506	608	
7	0	0	0	0	506	614	
8	0	0	0	0	506	613	
9	0	0	0	0	506	614	
10	0	0	0	0	506	617	
11	0	0	0	0	506	613	
12	0	0	0	0	507	613	
13	0	0	0	0	507	613	
14	0	0	0	0	507	608	
15	0	0	0	0	507	613	
0	0	0	0	0	507	614	
1	0	0	0	0	505	614	
2	0	0	0	0	504	618	
3	0	0	0	0	503	613	
4	0	0	0	0	500	613	
5	0	0	0	0	498	613	
6	0	0	0	0	495	609	
7	0	0	0	0	492	613	
8	0	0	0	0	489	613	
9	0	0	0	0	487	614	
10	0	0	0	0	485	617	
11	0	0	0	0	483	613	
12	0	0	0	0	481	613	
13	0	0	0	0	480	613	
14	0	0	0	0	479	609	
15	0	0	0	0	477	613	
0	0	0	0	0	477	613	
1	0	0	0	0	476	613	
2	0	0	0	0	476	617	
3	0	0	0	0	476	613	
4	0	0	0	0	476	613	
5	0	0	0	0	477	614	
6	0	0	0	0	478	608	
7	0	0	0	0	478	613	
8	0	0	0	0	480	614	
9	0	0	0	0	481	613	
10	0	0	0	0	483	617	
11	0	0	0	0	485	613	
12	0	0	0	0	486	613	
13	0	0	0	0	490	614	
14	0	0	0	0	494	609	
15	0	0	0	0	498	613	
0	0	0	0	0	503	613	
1	0	0	0	0	508	613	
2	0	0	0	0	512	618	
3	0	0	0	0	516	614	
4	0	0	0	0	520	613	
5	0	0	0	0	523	613	
6	0	0	0	0	526	609	
7	0	0	0	0	529	614	
8	0	0	0	0	532	613	
9	0	0	0	0	536	613	
10	0	0	0	0	541	617	
11	0	0	0	0	546	614	
12	0	0	0	0	552	613	
13	0	0	0	0	557	613	
14	0	0	0	0	562	609	
15	0	0	0	0	567	613	
0	0	0	0	0	570	614	
1	0	0	0	0	572	614	
2	0	0	0	0	575	618	
3	0	0	0	0	576	614	
4	0	0	0	0	575	614	
5	0	0	0	0	575	613	
6	0	0	0	0	574	609	
7	0	0	0	0	571	613	
8	0	0	0	0	568	614	
9	0	0	0	0	566	614	
10	0	0	0	0	562	618	
11	0	0	0	0	558	614	
12	0	0	0	0	553	614	
13	0	0	0	0	548	613	
14	0	0	0	0	544	609	
15	0	0	0	0	539	613	
0	0	0	0	0	535	614	
1	0	0	0	0	530	614	
2	0	0	0	0	527	617	
3	0	0	0	0	523	613	
4	0	0	0	0	519	613	
5	0	0	0	0	516	613	
6	0	0	0	0	513	609	
7	0	0	0	0	510	614	
8	0	0	0	0	508	613	
9	0	0	0	0	506	614	
10	0	0	0	0	504	617	
11	0	0	0	0	502	614	
12	0	0	0	0	500	613	
13	0	0	0	0	499	613	
14	0	0	0	0	498	609	
15	0	0	0	0	498	613	
0	0	0	0	0	497	613	
1	0	0	0	0	496	614	
2	0	0	0	0	496	617	
3	0	0	0	0	496	613	
4	0	0	0	0	496	613	
5	0	0	0	0	496	612	
6	0	0	0	0	496	609	
7	0	0	0	0	496	612	
8	0	0	0	0	496	613	
9	0	0	0	0	496	613	
10	0	0	0	0	496	617	
11	0	0	0	0	496	613	
12	0	0	0	0	495	613	
13	0	0	0	0	494	612	
14	0	0	0	0	494	608	
15	0	0	0	0	494	613	
0	0	0	0	0	494	612	
1	0	0	0	0	494	612	
2	0	0	0	0	494	616	
3	0	0	0	0	494	612	
4	0	0	0	0	494	613	
5	0	0	0	0	494	612	
6	0	0	0	0	494	608	
7	0	0	0	0	495	612	
8	0	0	0	0	495	613	
9	0	0	0	0	495	613	
10	0	0	0	0	494	617	
11	0	0	0	0	495	613	
12	0	0	0	0	494	613	
13	0	0	0	0	495	613	
14	0	0	0	0	495	608	
15	0	0	0	0	495	613	
0	0	0	0	0	495	612	
1	0	0	0	0	495	613	
2	0	0	0	0	495	617	
3	0	0	0	0	494	613	
4	0	0	0	0	494	612	
5	0	0	0	0	494	613	
6	0	0	0	0	495	608	
7	0	0	0	0	495	613	
8	0	0	0	0	495	613	
9	0	0	0	0	496	612	
10	0	0	0	0	495	616	
11	0	0	0	0	496	612	
12	0	0	0	0	496	613	
13	0	0	0	0	496	612	
14	0	0	0	0	496	608	
15	0	0	0	0	496	613	
0	0	0	0	0	496	613	
1	0	0	0	0	496	614	
2	0	0	0	0	496	617	
3	0	0	0	0	496	613	
4	0	0	0	0	496	612	
5	0	0	0	0	496	612	
6	0	0	0	0	496	608	
7	0	0	0	0	496	613	
8	0	0	0	0	496	612	
9	0	0	0	0	496	613	
10	0	0	0	0	496	617	
11	0	0	0	0	496	612	
12	0	0	0	0	496	612	
13	0	0	0	0	497	613	
14	0	0	0	0	497	608	
15	0	0	0	0	498	613	
0	0	0	0	0	498	614	
1	0	0	0	0	498	614	
2	0	0	0	0	497	617	
3	0	0	0	0	498	613	
4	0	0	0	0	497	613	
5	0	0	0	0	497	613	
6	0	0	0	0	497	608	
7	0	0	0	0	497	613	
8	0	0	0	0	497	613	
9	0	0	0	0	497	613	
10	0	0	0	0	497	617	
11	0	0	0	0	497	612	
12	0	0	0	0	496	613	
13	0	0	0	0	497	613	
14	0	0	0	0	497	609	
15	0	0	0	0	497	613	
0	0	0	0	0	498	613	
1	0	0	0	0	499	614	
2	0	0	0	0	498	617	
3	0	0	0	0	498	613	
4	0	0	0	0	498	612	
5	0	0	0	0	498	612	
6	0	0	0	0	498	608	
7	0	0	0	0	498	613	
8	0	0	0	0	499	612	
9	0	0	0	0	498	613	
10	0	0	0	0	498	617	
11	0	0	0	0	498	613	
12	0	0	0	0	499	613	
13	0	0	0	0	498	613	
14	0	0	0	0	499	608	
15	0	0	0	0	498	613	
0	0	0	0	0	498	613	
1	0	0	0	0	498	613	
2	0	0	0	0	498	617	
3	0	0	0	0	499	614	
4	0	0	0	0	499	614	
5	0	0	0	0	499	612	
6	0	0	0	0	498	608	
7	0	0	0	0	497	614	
8	0	0	0	0	498	613	
9	0	0	0	0	499	613	
10	0	0	0	0	499	617	
11	0	0	0	0	499	613	
12	0	0	0	0	499	614	
13	0	0	0	0	499	613	
14	0	0	0	0	498	608	
15	0	0	0	0	498	614	
0	0	0	0	0	498	613	
1	0	0	0	0	499	613	
2	0	0	0	0	499	617	
3	0	0	0	0	499	613	
4	0	0	0	0	499	613	
5	0	0	0	0	499	612	
6	0	0	0	0	499	609	
7	0	0	0	0	499	613	
8	0	0	0	0	500	613	
9	0	0	0	0	500	613	
10	0	0	0	0	499	617	
11	0	0	0	0	499	613	
12	0	0	0	0	499	614	
13	0	0	0	0	498	614	
14	0	0	0	0	498	609	
15	0	0	0	0	498	613	
0	0	0	0	0	498	613	
1	0	0	0	0	498	613	
2	0	0	0	0	498	617	
3	0	0	0	0	498	613	
4	0	0	0	0	498	614	
5	0	0	0	0	498	613	
6	0	0	0	0	497	609	
7	0	0	0	0	497	614	
8	0	0	0	0	496	613	
9	0	0	0	0	496	614	
10	0	0	0	0	496	617	
11	0	0	0	0	496	614	
12	0	0	0	0	496	614	
13	0	0	0	0	496	614	
14	0	0	0	0	496	609	
15	0	0	0	0	496	614	
0	0	0	0	0	496	614	
1	0	0	0	0	497	614	
2	0	0	0	0	497	617	
3	0	0	0	0	497	614	
4	0	0	0	0	497	614	
5	0	0	0	0	497	614	
6	0	0	0	0	497	609	
7	0	0	0	0	497	614	
8	0	0	0	0	497	614	
9	0	0	0	0	497	614	
10	0	0	0	0	497	618	
11	0	0	0	0	497	614	
12	0	0	0	0	497	614	
13	0	0	0	0	497	614	
14	0	0	0	0	496	609	
15	0	0	0	0	497	615	
0	0	0	0	0	497	615	
1	0	0	0	0	497	614	
2	0	0	0	0	497	619	
3	0	0	0	0	496	614	
4	0	0	0	0	496	614	
5	0	0	0	0	497	614	
6	0	0	0	0	497	610	
7	0	0	0	0	497	614	
8	0	0	0	0	497	614	
9	0	0	0	0	498	615	
10	0	0	0	0	498	618	
11	0	0	0	0	498	614	
12	0	0	0	0	498	614	
13	0	0	0	0	498	614	
14	0	0	0	0	498	610	
15	0	0	0	0	498	614	
0	0	0	0	0	498	614	
1	0	0	0	0	498	615	
2	0	0	0	0	497	618	
3	0	0	0	0	497	615	
4	0	0	0	0	497	614	
5	0	0	0	0	497	614	
6	0	0	0	0	497	610	
7	0	0	0	0	497	614	
8	0	0	0	0	498	615	
9	0	0	0	0	498	615	
10	0	0	0	0	498	619	
11	0	0	0	0	498	615	
12	0	0	0	0	498	614	
13	0	0	0	0	498	614	
14	0	0	0	0	498	610	
15	0	0	0	0	498	614	
0	0	0	0	0	498	614	
1	0	0	0	0	499	614	
2	0	0	0	0	500	618	
3	0	0	0	0	500	614	
4	0	0	0	0	501	615	
5	0	0	0	0	501	614	
6	0	0	0	0	502	610	
7	0	0	0	0	502	615	
8	0	0	0	0	502	615	
9	0	0	0	0	502	615	
10	0	0	0	0	502	618	
11	0	0	0	0	501	614	
12	0	0	0	0	501	614	
13	0	0	0	0	501	614	
14	0	0	0	0	501	610	
15	0	0	0	0	501	614	
0	0	0	0	0	501	614	
1	0	0	0	0	502	614	
2	0	0	0	0	502	618	
3	0	0	0	0	502	614	
4	0	0	0	0	502	614	
5	0	0	0	0	503	614	
6	0	0	0	0	503	609	
7	0	0	0	0	503	614	
8	0	0	0	0	503	613	
9	0	0	0	0	503	614	
10	0	0	0	0	503	617	
11	0	0	0	0	503	613	
12	0	0	0	0	503	612	
13	0	0	0	0	503	614	
14	0	0	0	0	503	608	
15	0	0	0	0	503	613	
0	0	0	0	0	504	613	
1	0	0	0	0	503	613	
2	0	0	0	0	503	618	
3	0	0	0	0	503	613	
4	0	0	0	0	503	613	
5	0	0	0	0	503	613	
6	0	0	0	0	503	609	
7	0	0	0	0	504	612	
8	0	0	0	0	504	612	
9	0	0	0	0	504	613	
10	0	0	0	0	504	617	
11	0	0	0	0	504	613	
12	0	0	0	0	503	613	
13	0	0	0	0	504	612	
14	0	0	0	0	504	609	
15	0	0	0	0	504	614	
0	0	0	0	0	504	613	
1	0	0	0	0	504	613	
2	0	0	0	0	504	616	
3	0	0	0	0	504	613	
4	0	0	0	0	504	613	
5	0	0	0	0	504	613	
6	0	0	0	0	504	608	
7	0	0	0	0	505	612	
8	0	0	0	0	505	612	
9	0	0	0	0	506	612	
10	0	0	0	0	507	616	
11	0	0	0	0	507	612	
12	0	0	0	0	507	612	
13	0	0	0	0	507	612	
14	0	0	0	0	508	608	
15	0	0	0	0	507	613	
0	0	0	0	0	508	613	
1	0	0	0	0	508	612	
2	0	0	0	0	508	616	
3	0	0	0	0	508	613	
4	0	0	0	0	508	612	
5	0	0	0	0	508	612	
6	0	0	0	0	508	608	
7	0	0	0	0	508	612	
8	0	0	0	0	509	613	
9	0	0	0	0	510	614	
10	0	0	0	0	509	617	
11	0	0	0	0	510	613	
12	0	0	0	0	510	613	
13	0	0	0	0	509	612	
14	0	0	0	0	509	609	
15	0	0	0	0	510	613	
0	0	0	0	0	511	613	
1	0	0	0	0	511	613	
2	0	0	0	0	511	617	
3	0	0	0	0	511	613	
4	0	0	0	0	511	613	
5	0	0	0	0	511	613	
6	0	0	0	0	511	609	
7	0	0	0	0	511	614	
8	0	0	0	0	511	613	
9	0	0	0	0	511	614	
10	0	0	0	0	511	617	
11	0	0	0	0	511	613	
12	0	0	0	0	511	614	
13	0	0	0	0	511	614	
14	0	0	0	0	511	609	
15	0	0	0	0	511	613	
0	0	0	0	0	510	614	
1	0	0	0	0	511	614	
2	0	0	0	0	510	618	
3	0	0	0	0	511	614	
4	0	0	0	0	511	614	
5	0	0	0	0	510	614	
6	0	0	0	0	511	609	
7	0	0	0	0	510	614	
8	0	0	0	0	510	614	
9	0	0	0	0	510	614	
10	0	0	0	0	510	617	
11	0	0	0	0	510	614	
12	0	0	0	0	510	614	
13	0	0	0	0	509	614	
14	0	0	0	0	509	609	
15	0	0	0	0	508	613	
0	0	0	0	0	508	614	
1	0	0	0	0	508	614	
2	0	0	0	0	508	618	
3	0	0	0	0	508	614	
4	0	0	0	0	508	614	
5	0	0	0	0	508	614	
6	0	0	0	0	508	609	
7	0	0	0	0	508	614	
8	0	0	0	0	508	613	
9	0	0	0	0	508	613	
10	0	0	0	0	508	618	
11	0	0	0	0	509	614	
12	0	0	0	0	509	614	
13	0	0	0	0	510	614	
14	0	0	0	0	510	609	
15	0	0	0	0	510	614	
0	0	0	0	0	509	614	
1	0	0	0	0	508	614	
2	0	0	0	0	509	618	
3	0	0	0	0	509	614	
4	0	0	0	0	509	613	
5	0	0	0	0	509	613	
6	0	0	0	0	509	609	
7	0	0	0	0	508	613	
8	0	0	0	0	509	613	
9	0	0	0	0	509	614	
10	0	0	0	0	508	618	
11	0	0	0	0	508	613	
12	0	0	0	0	508	614	
13	0	0	0	0	508	613	
14	0	0	0	0	509	609	
15	0	0	0	0	509	614	
0	0	0	0	0	508	614	
1	0	0	0	0	508	614	
2	0	0	0	0	508	618	
3	0	0	0	0	508	614	
4	0	0	0	0	508	614	
5	0	0	0	0	508	614	
6	0	0	0	0	508	609	
7	0	0	0	0	507	613	
8	0	0	0	0	507	614	
9	0	0	0	0	506	614	
10	0	0	0	0	506	618	
11	0	0	0	0	507	614	
12	0	0	0	0	506	613	
13	0	0	0	0	506	613	
14	0	0	0	0	507	609	
15	0	0	0	0	507	614	
0	0	0	0	0	507	614	
1	0	0	0	0	507	615	
2	0	0	0	0	506	617	
3	0	0	0	0	506	614	
4	0	0	0	0	505	614	
5	0	0	0	0	505	613	
6	0	0	0	0	505	609	
7	0	0	0	0	504	613	
8	0	0	0	0	504	614	
9	0	0	0	0	504	614	
10	0	0	0	0	504	617	
11	0	0	0	0	504	613	
12	0	0	0	0	503	613	
13	0	0	0	0	503	614	
14	0	0	0	0	503	609	
15	0	0	0	0	502	612	
0	0	0	0	0	503	613	
1	0	0	0	0	503	613	
2	0	0	0	0	503	617	
3	0	0	0	0	503	614	
4	0	0	0	0	504	614	
5	0	0	0	0	504	613	
6	0	0	0	0	504	610	
7	0	0	0	0	504	614	
8	0	0	0	0	504	613	
9	0	0	0	0	504	613	
10	0	0	0	0	504	617	
11	0	0	0	0	505	614	
12	0	0	0	0	504	613	
13	0	0	0	0	504	613	
14	0	0	0	0	505	609	
15	0	0	0	0	505	614	
0	0	0	0	0	504	614	
1	0	0	0	0	504	614	
2	0	0	0	0	504	617	
3	0	0	0	0	504	613	
4	0	0	0	0	504	613	
5	0	0	0	0	504	613	
6	0	0	0	0	504	609	
7	0	0	0	0	504	613	
8	0	0	0	0	504	613	
9	0	0	0	0	505	613	
10	0	0	0	0	505	617	
11	0	0	0	0	505	614	
12	0	0	0	0	504	614	
13	0	0	0	0	504	613	
14	0	0	0	0	504	609	
15	0	0	0	0	504	614	
0	0	0	0	0	504	613	
1	0	0	0	0	504	613	
2	0	0	0	0	504	617	
3	0	0	0	0	504	613	
4	0	0	0	0	504	613	
5	0	0	0	0	505	613	
6	0	0	0	0	505	609	
7	0	0	0	0	505	613	
8	0	0	0	0	506	613	
9	0	0	0	0	506	614	
10	0	0	0	0	506	617	
11	0	0	0	0	507	613	
12	0	0	0	0	507	614	
13	0	0	0	0	507	612	
14	0	0	0	0	507	608	
15	0	0	0	0	506	613	
0	0	0	0	0	506	613	
1	0	0	0	0	507	613	
2	0	0	0	0	507	616	
3	0	0	0	0	507	612	
4	0	0	0	0	507	612	
5	0	0	0	0	506	612	
6	0	0	0	0	506	608	
7	0	0	0	0	506	612	
8	0	0	0	0	506	613	
9	0	0	0	0	506	613	
10	0	0	0	0	505	617	
11	0	0	0	0	505	612	
12	0	0	0	0	505	613	
13	0	0	0	0	505	612	
14	0	0	0	0	506	608	
15	0	0	0	0	506	613	
0	0	0	0	0	507	612	
1	0	0	0	0	507	613	
2	0	0	0	0	508	617	
3	0	0	0	0	508	613	
4	0	0	0	0	507	613	
5	0	0	0	0	507	612	
6	0	0	0	0	507	609	
7	0	0	0	0	508	613	
8	0	0	0	0	507	613	
9	0	0	0	0	507	613	
10	0	0	0	0	507	616	
11	0	0	0	0	506	612	
12	0	0	0	0	506	613	
13	0	0	0	0	505	613	
14	0	0	0	0	506	608	
15	0	0	0	0	505	612	
0	0	0	0	0	506	613	
1	0	0	0	0	506	614	
2	0	0	0	0	506	617	
3	0	0	0	0	507	614	
4	0	0	0	0	507	614	
5	0	0	0	0	506	612	
6	0	0	0	0	507	609	
7	0	0	0	0	507	613	
8	0	0	0	0	507	613	
9	0	0	0	0	506	614	
10	0	0	0	0	506	617	
11	0	0	0	0	507	613	
12	0	0	0	0	507	613	
13	0	0	0	0	507	613	
14	0	0	0	0	507	609	
15	0	0	0	0	507	614	
0	0	0	0	0	506	614	
1	0	0	0	0	505	614	
2	0	0	0	0	505	618	
3	0	0	0	0	506	614	
4	0	0	0	0	505	614	
5	0	0	0	0	505	613	
6	0	0	0	0	505	609	
7	0	0	0	0	505	614	
8	0	0	0	0	506	613	
9	0	0	0	0	505	614	
10	0	0	0	0	506	617	
11	0	0	0	0	507	614	
12	0	0	0	0	507	614	
13	0	0	0	0	508	613	
14	0	0	0	0	508	609	
15	0	0	0	0	508	614	
0	0	0	0	0	509	613	
1	0	0	0	0	509	614	
2	0	0	0	0	509	617	
3	0	0	0	0	509	614	
4	0	0	0	0	509	614	
5	0	0	0	0	508	614	
6	0	0	0	0	508	609	
7	0	0	0	0	508	613	
8	0	0	0	0	508	614	
9	0	0	0	0	508	614	
10	0	0	0	0	508	617	
11	0	0	0	0	508	614	
12	0	0	0	0	508	614	
13	0	0	0	0	507	614	
14	0	0	0	0	507	610	
15	0	0	0	0	507	614	
0	0	0	0	0	507	614	
1	0	0	0	0	508	614	
2	0	0	0	0	507	618	
3	0	0	0	0	507	614	
4	0	0	0	0	506	614	
5	0	0	0	0	506	614	
6	0	0	0	0	506	610	
7	0	0	0	0	506	613	
8	0	0	0	0	505	613	
9	0	0	0	0	505	614	
10	0	0	0	0	505	617	
11	0	0	0	0	505	614	
12	0	0	0	0	504	614	
13	0	0	0	0	505	613	
14	0	0	0	0	505	609	
15	0	0	0	0	505	614	
0	0	0	0	0	505	613	
1	0	0	0	0	505	614	
2	0	0	0	0	506	618	
3	0	0	0	0	507	614	
4	0	0	0	0	507	613	
5	0	0	0	0	507	613	
6	0	0	0	0	507	609	
7	0	0	0	0	507	613	
8	0	0	0	0	507	613	
9	0	0	0	0	507	613	
10	0	0	0	0	507	617	
11	0	0	0	0	508	613	
12	0	0	0	0	508	614	
13	0	0	0	0	508	613	
14	0	0	0	0	508	609	
15	0	0	0	0	508	613	
0	0	0	0	0	508	614	
1	0	0	0	0	508	614	
2	0	0	0	0	508	617	
3	0	0	0	0	508	612	
4	0	0	0	0	508	613	
5	0	0	0	0	508	613	
6	0	0	0	0	508	608	
7	0	0	0	0	509	613	
8	0	0	0	0	509	613	
9	0	0	0	0	508	613	
10	0	0	0	0	508	617	
11	0	0	0	0	508	613	
12	0	0	0	0	508	612	
13	0	0	0	0	508	613	
14	0	0	0	0	508	608	
15	0	0	0	0	508	613	
0	0	0	0	0	508	613	
1	0	0	0	0	507	614	
2	0	0	0	0	507	617	
3	0	0	0	0	507	614	
4	0	0	0	0	506	614	
5	0	0	0	0	506	613	
6	0	0	0	0	505	609	
7	0	0	0	0	505	613	
8	0	0	0	0	505	614	
9	0	0	0	0	505	613	
10	0	0	0	0	505	618	
11	0	0	0	0	506	613	
12	0	0	0	0	506	613	
13	0	0	0	0	505	613	
14	0	0	0	0	505	608	
15	0	0	0	0	505	613	
0	0	0	0	0	505	612	
1	0	0	0	0	505	614	
2	0	0	0	0	505	617	
3	0	0	0	0	505	612	
4	0	0	0	0	505	613	
5	0	0	0	0	505	613	
6	0	0	0	0	505	609	
7	0	0	0	0	505	612	
8	0	0	0	0	505	613	
9	0	0	0	0	505	613	
10	0	0	0	0	505	617	
11	0	0	0	0	505	612	
12	0	0	0	0	505	612	
13	0	0	0	0	505	612	
14	0	0	0	0	505	608	
15	0	0	0	0	505	613	
0	0	0	0	0	505	612	
1	0	0	0	0	504	613	
2	0	0	0	0	504	617	
3	0	0	0	0	504	613	
4	0	0	0	0	503	613	
5	0	0	0	0	503	613	
6	0	0	0	0	503	608	
7	0	0	0	0	502	613	
8	0	0	0	0	503	612	
9	0	0	0	0	502	612	
10	0	0	0	0	503	616	
11	0	0	0	0	503	612	
12	0	0	0	0	503	612	
13	0	0	0	0	503	612	
14	0	0	0	0	503	608	
15	0	0	0	0	503	612	
0	0	0	0	0	503	613	
1	0	0	0	0	503	613	
2	0	0	0	0	502	617	
3	0	0	0	0	502	612	
4	0	0	0	0	502	613	
5	0	0	0	0	501	612	
6	0	0	0	0	501	609	
7	0	0	0	0	501	614	
8	0	0	0	0	502	614	
9	0	0	0	0	501	613	
10	0	0	0	0	502	617	
11	0	0	0	0	502	613	
12	0	0	0	0	501	612	
13	0	0	0	0	501	613	
14	0	0	0	0	501	608	
15	0	0	0	0	500	613	
0	0	0	0	0	500	613	
1	0	0	0	0	500	614	
2	0	0	0	0	500	617	
3	0	0	0	0	499	614	
4	0	0	0	0	499	613	
5	0	0	0	0	499	614	
6	0	0	0	0	499	609	
7	0	0	0	0	499	614	
8	0	0	0	0	499	614	
9	0	0	0	0	499	614	
10	0	0	0	0	499	618	
11	0	0	0	0	499	614	
12	0	0	0	0	499	614	
13	0	0	0	0	499	613	
14	0	0	0	0	500	609	
15	0	0	0	0	500	614	
0	0	0	0	0	500	614	
1	0	0	0	0	501	614	
2	0	0	0	0	501	618	
3	0	0	0	0	502	614	
4	0	0	0	0	503	614	
5	0	0	0	0	503	614	
6	0	0	0	0	503	609	
7	0	0	0	0	503	614	
8	0	0	0	0	502	614	
9	0	0	0	0	503	614	
10	0	0	0	0	504	618	
11	0	0	0	0	504	614	
12	0	0	0	0	504	614	
13	0	0	0	0	504	614	
14	0	0	0	0	504	609	
15	0	0	0	0	504	614	
0	0	0	0	0	504	614	
1	0	0	0	0	504	614	
2	0	0	0	0	505	619	
3	0	0	0	0	506	614	
4	0	0	0	0	506	615	
5	0	0	0	0	506	614	
6	0	0	0	0	506	609	
7	0	0	0	0	505	614	
8	0	0	0	0	505	614	
9	0	0	0	0	504	614	
10	0	0	0	0	504	617	
11	0	0	0	0	504	613	
12	0	0	0	0	504	614	
13	0	0	0	0	504	613	
14	0	0	0	0	505	608	
15	0	0	0	0	505	614	
0	0	0	0	0	505	613	
1	0	0	0	0	506	614	
2	0	0	0	0	507	617	
3	0	0	0	0	507	614	
4	0	0	0	0	508	614	
5	0	0	0	0	508	613	
6	0	0	0	0	507	609	
7	0	0	0	0	508	614	
8	0	0	0	0	508	614	
9	0	0	0	0	508	614	
10	0	0	0	0	508	617	
11	0	0	0	0	508	613	
12	0	0	0	0	508	614	
13	0	0	0	0	509	614	
14	0	0	0	0	509	608	
15	0	0	0	0	509	613	
0	0	0	0	0	510	613	
1	0	0	0	0	509	613	
2	0	0	0	0	510	617	
3	0	0	0	0	510	613	
4	0	0	0	0	509	614	
5	0	0	0	0	508	613	
6	0	0	0	0	508	608	
7	0	0	0	0	508	613	
8	0	0	0	0	507	612	
9	0	0	0	0	507	613	
10	0	0	0	0	507	617	
11	0	0	0	0	507	612	
12	0	0	0	0	507	613	
13	0	0	0	0	507	612	
14	0	0	0	0	507	608	
15	0	0	0	0	508	612	
0	0	0	0	0	508	613	
1	0	0	0	0	508	613	
2	0	0	0	0	508	617	
3	0	0	0	0	508	613	
4	0	0	0	0	508	613	
5	0	0	0	0	508	613	
6	0	0	0	0	508	609	
7	0	0	0	0	508	613	
8	0	0	0	0	508	613	
9	0	0	0	0	508	613	
10	0	0	0	0	508	617	
11	0	0	0	0	509	613	
12	0	0	0	0	508	612	
13	0	0	0	0	508	613	
14	0	0	0	0	508	609	
15	0	0	0	0	509	613	
0	0	0	0	0	509	613	
1	0	0	0	0	508	613	
2	0	0	0	0	508	617	
3	0	0	0	0	509	613	
4	0	0	0	0	508	613	
5	0	0	0	0	508	613	
6	0	0	0	0	508	608	
7	0	0	0	0	509	613	
8	0	0	0	0	509	613	
9	0	0	0	0	508	613	
10	0	0	0	0	508	617	
11	0	0	0	0	509	613	
12	0	0	0	0	508	613	
13	0	0	0	0	509	613	
14	0	0	0	0	508	608	
15	0	0	0	0	508	613	
0	0	0	0	0	508	613	
1	0	0	0	0	508	613	
2	0	0	0	0	508	616	
3	0	0	0	0	507	612	
4	0	0	0	0	508	613	
5	0	0	0	0	508	612	
6	0	0	0	0	508	609	
7	0	0	0	0	508	613	
8	0	0	0	0	507	613	
9	0	0	0	0	508	613	
10	0	0	0	0	508	617	
11	0	0	0	0	508	613	
12	0	0	0	0	508	613	
13	0	0	0	0	508	613	
14	0	0	0	0	507	610	
15	0	0	0	0	507	613	
0	0	0	0	0	508	614	
1	0	0	0	0	508	614	
2	0	0	0	0	508	617	
3	0	0	0	0	509	613	
4	0	0	0	0	509	614	
5	0	0	0	0	509	613	
6	0	0	0	0	509	609	
7	0	0	0	0	509	613	
8	0	0	0	0	509	614	
9	0	0	0	0	508	614	
10	0	0	0	0	508	618	
11	0	0	0	0	508	614	
12	0	0	0	0	508	614	
13	0	0	0	0	508	614	
14	0	0	0	0	507	609	
15	0	0	0	0	508	614	
0	0	0	0	0	508	614	
1	0	0	0	0	508	614	
2	0	0	0	0	508	617	
3	0	0	0	0	508	613	
4	0	0	0	0	507	613	
5	0	0	0	0	505	614	
6	0	0	0	0	503	609	
7	0	0	0	0	501	614	
8	0	0	0	0	498	613	
9	0	0	0	0	495	613	
10	0	0	0	0	493	617	
11	0	0	0	0	491	614	
12	0	0	0	0	488	613	
13	0	0	0	0	486	613	
14	0	0	0	0	485	608	
15	0	0	0	0	483	613	
0	0	0	0	0	483	614	
1	0	0	0	0	482	614	
2	0	0	0	0	481	617	
3	0	0	0	0	481	613	
4	0	0	0	0	481	613	
5	0	0	0	0	481	612	
6	0	0	0	0	481	608	
7	0	0	0	0	481	613	
8	0	0	0	0	483	613	
9	0	0	0	0	484	612	
10	0	0	0	0	486	617	
11	0	0	0	0	489	614	
12	0	0	0	0	492	613	
13	0	0	0	0	496	613	
14	0	0	0	0	501	609	
15	0	0	0	0	506	613	
0	0	0	0	0	512	614	
1	0	0	0	0	518	614	
2	0	0	0	0	523	618	
3	0	0	0	0	528	614	
4	0	0	0	0	532	614	
5	0	0	0	0	536	614	
6	0	0	0	0	539	609	
7	0	0	0	0	542	614	
8	0	0	0	0	545	614	
9	0	0	0	0	551	614	
10	0	0	0	0	556	617	
11	0	0	0	0	561	614	
12	0	0	0	0	566	613	
13	0	0	0	0	572	613	
14	0	0	0	0	576	609	
15	0	0	0	0	579	614	
0	0	0	0	0	583	614	
1	0	0	0	0	587	614	
2	0	0	0	0	590	618	
3	0	0	0	0	592	612	
4	0	0	0	0	593	613	
5	0	0	0	0	592	613	
6	0	0	0	0	591	609	
7	0	0	0	0	588	613	
8	0	0	0	0	583	614	
9	0	0	0	0	579	613	
10	0	0	0	0	574	617	
11	0	0	0	0	569	613	
12	0	0	0	0	564	613	
13	0	0	0	0	558	613	
14	0	0	0	0	554	609	
15	0	0	0	0	548	613	
0	0	0	0	0	543	614	
1	0	0	0	0	537	614	
2	0	0	0	0	532	617	
3	0	0	0	0	527	613	
4	0	0	0	0	524	613	
5	0	0	0	0	519	613	
6	0	0	0	0	516	609	
7	0	0	0	0	513	613	
8	0	0	0	0	511	614	
9	0	0	0	0	508	614	
10	0	0	0	0	504	618	
11	0	0	0	0	503	613	
12	0	0	0	0	501	613	
13	0	0	0	0	500	613	
14	0	0	0	0	499	609	
15	0	0	0	0	498	614	
0	0	0	0	0	497	613	
1	0	0	0	0	496	614	
2	0	0	0	0	496	617	
3	0	0	0	0	495	614	
4	0	0	0	0	495	614	
5	0	0	0	0	495	613	
6	0	0	0	0	494	608	
7	0	0	0	0	494	614	
8	0	0	0	0	493	613	
9	0	0	0	0	494	614	
10	0	0	0	0	494	617	
11	0	0	0	0	493	613	
12	0	0	0	0	493	613	
13	0	0	0	0	493	612	
14	0	0	0	0	493	608	
15	0	0	0	0	493	613	
0	0	0	0	0	492	613	
1	0	0	0	0	492	613	
2	0	0	0	0	492	617	
3	0	0	0	0	492	613	
4	0	0	0	0	492	613	
5	0	0	0	0	492	613	
6	0	0	0	0	492	608	
7	0	0	0	0	493	613	
8	0	0	0	0	493	613	
9	0	0	0	0	493	613	
10	0	0	0	0	492	617	
11	0	0	0	0	492	613	
12	0	0	0	0	492	614	
13	0	0	0	0	493	613	
14	0	0	0	0	493	609	
15	0	0	0	0	493	613	
0	0	0	0	0	494	614	
1	0	0	0	0	493	613	
2	0	0	0	0	493	617	
3	0	0	0	0	494	613	
4	0	0	0	0	493	612	
5	0	0	0	0	494	612	
6	0	0	0	0	494	608	
7	0	0	0	0	494	613	
8	0	0	0	0	494	614	
9	0	0	0	0	494	614	
10	0	0	0	0	494	617	
11	0	0	0	0	494	614	
12	0	0	0	0	494	614	
13	0	0	0	0	494	613	
14	0	0	0	0	494	608	
15	0	0	0	0	494	613	
0	0	0	0	0	494	612	
1	0	0	0	0	494	613	
2	0	0	0	0	494	617	
3	0	0	0	0	493	613	
4	0	0	0	0	494	614	
5	0	0	0	0	494	613	
6	0	0	0	0	495	609	
7	0	0	0	0	495	614	
8	0	0	0	0	495	612	
9	0	0	0	0	495	614	
10	0	0	0	0	495	617	
11	0	0	0	0	496	614	
12	0	0	0	0	496	613	
13	0	0	0	0	496	612	
14	0	0	0	0	496	608	
15	0	0	0	0	496	612	
0	0	0	0	0	496	614	
1	0	0	0	0	496	614	
2	0	0	0	0	496	617	
3	0	0	0	0	496	613	
4	0	0	0	0	496	613	
5	0	0	0	0	496	613	
6	0	0	0	0	496	609	
7	0	0	0	0	497	613	
8	0	0	0	0	497	613	
9	0	0	0	0	498	612	
10	0	0	0	0	498	617	
11	0	0	0	0	498	613	
12	0	0	0	0	497	612	
13	0	0	0	0	497	612	
14	0	0	0	0	498	608	
15	0	0	0	0	498	613	
0	0	0	0	0	498	612	
1	0	0	0	0	499	613	
2	0	0	0	0	499	617	
3	0	0	0	0	499	613	
4	0	0	0	0	499	613	
5	0	0	0	0	499	613	
6	0	0	0	0	499	608	
7	0	0	0	0	499	613	
8	0	0	0	0	499	613	
9	0	0	0	0	499	613	
10	0	0	0	0	499	617	
11	0	0	0	0	499	613	
12	0	0	0	0	499	614	
13	0	0	0	0	499	613	
14	0	0	0	0	499	609	
15	0	0	0	0	500	613	
0	0	0	0	0	500	613	
1	0	0	0	0	500	613	
2	0	0	0	0	499	617	
3	0	0	0	0	499	613	
4	0	0	0	0	499	612	
5	0	0	0	0	499	612	
6	0	0	0	0	499	609	
7	0	0	0	0	499	613	
8	0	0	0	0	499	612	
9	0	0	0	0	499	613	
10	0	0	0	0	499	617	
11	0	0	0	0	499	612	
12	0	0	0	0	499	612	
13	0	0	0	0	498	612	
14	0	0	0	0	499	608	
15	0	0	0	0	499	613	
0	0	0	0	0	499	614	
1	0	0	0	0	500	613	
2	0	0	0	0	500	617	
3	0	0	0	0	500	613	
4	0	0	0	0	500	612	
5	0	0	0	0	500	613	
6	0	0	0	0	500	608	
7	0	0	0	0	500	613	
8	0	0	0	0	500	613	
9	0	0	0	0	500	613	
10	0	0	0	0	500	617	
11	0	0	0	0	500	613	
12	0	0	0	0	500	614	
13	0	0	0	0	500	612	
14	0	0	0	0	500	608	
15	0	0	0	0	500	613	
0	0	0	0	0	499	613	
1	0	0	0	0	499	613	
2	0	0	0	0	499	617	
3	0	0	0	0	499	613	
4	0	0	0	0	499	613	
5	0	0	0	0	499	613	
6	0	0	0	0	499	608	
7	0	0	0	0	499	612	
8	0	0	0	0	499	613	
9	0	0	0	0	499	613	
10	0	0	0	0	500	617	
11	0	0	0	0	500	613	
12	0	0	0	0	500	613	
13	0	0	0	0	500	612	
14	0	0	0	0	501	608	
15	0	0	0	0	500	613	
0	0	0	0	0	500	613	
1	0	0	0	0	499	612	
2	0	0	0	0	498	617	
3	0	0	0	0	498	614	
4	0	0	0	0	498	614	
5	0	0	0	0	498	614	
6	0	0	0	0	498	609	
7	0	0	0	0	497	613	
8	0	0	0	0	497	614	
9	0	0	0	0	496	615	
10	0	0	0	0	497	618	
11	0	0	0	0	497	615	
12	0	0	0	0	497	614	
13	0	0	0	0	497	615	
14	0	0	0	0	497	610	
15	0	0	0	0	496	614	
0	0	0	0	0	496	614	
1	0	0	0	0	496	614	
2	0	0	0	0	496	618	
3	0	0	0	0	496	614	
4	0	0	0	0	496	615	
5	0	0	0	0	496	615	
6	0	0	0	0	496	610	
7	0	0	0	0	496	615	
8	0	0	0	0	496	615	
9	0	0	0	0	496	615	
10	0	0	0	0	496	619	
11	0	0	0	0	496	614	
12	0	0	0	0	495	614	
13	0	0	0	0	494	614	
14	0	0	0	0	494	610	
15	0	0	0	0	494	614	
0	0	0	0	0	495	614	
1	0	0	0	0	494	615	
2	0	0	0	0	495	619	
3	0	0	0	0	495	614	
4	0	0	0	0	495	615	
5	0	0	0	0	495	614	
6	0	0	0	0	495	609	
7	0	0	0	0	495	614	
8	0	0	0	0	495	614	
9	0	0	0	0	494	614	
10	0	0	0	0	494	618	
11	0	0	0	0	494	615	
12	0	0	0	0	494	615	
13	0	0	0	0	494	615	
14	0	0	0	0	494	609	
15	0	0	0	0	494	615	
0	0	0	0	0	494	615	
1	0	0	0	0	494	615	
2	0	0	0	0	494	619	
3	0	0	0	0	495	615	
4	0	0	0	0	493	615	
5	0	0	0	0	494	614	
6	0	0	0	0	494	610	
7	0	0	0	0	494	614	
8	0	0	0	0	494	615	
9	0	0	0	0	494	615	
10	0	0	0	0	495	620	
11	0	0	0	0	495	614	
12	0	0	0	0	495	615	
13	0	0	0	0	495	614	
14	0	0	0	0	495	611	
15	0	0	0	0	494	615	
0	0	0	0	0	494	615	
1	0	0	0	0	495	614	
2	0	0	0	0	496	619	
3	0	0	0	0	496	614	
4	0	0	0	0	496	614	
5	0	0	0	0	497	613	
6	0	0	0	0	497	609	
7	0	0	0	0	497	614	
8	0	0	0	0	498	614	
9	0	0	0	0	499	615	
10	0	0	0	0	498	617	
11	0	0	0	0	499	613	
12	0	0	0	0	499	613	
13	0	0	0	0	499	613	
14	0	0	0	0	499	609	
15	0	0	0	0	499	613	
0	0	0	0	0	499	613	
1	0	0	0	0	499	613	
2	0	0	0	0	499	616	
3	0	0	0	0	501	612	
4	0	0	0	0	501	613	
5	0	0	0	0	502	612	
6	0	0	0	0	503	608	
7	0	0	0	0	502	613	
8	0	0	0	0	503	613	
9	0	0	0	0	503	613	
10	0	0	0	0	503	616	
11	0	0	0	0	502	612	
12	0	0	0	0	502	612	
13	0	0	0	0	503	612	
14	0	0	0	0	504	607	
15	0	0	0	0	505	612	
0	0	0	0	0	505	612	
1	0	0	0	0	505	612	
2	0	0	0	0	506	616	
3	0	0	0	0	507	612	
4	0	0	0	0	507	612	
5	0	0	0	0	508	612	
6	0	0	0	0	508	608	
7	0	0	0	0	509	612	
8	0	0	0	0	509	612	
9	0	0	0	0	510	613	
10	0	0	0	0	511	616	
11	0	0	0	0	511	612	
12	0	0	0	0	511	612	
13	0	0	0	0	512	612	
14	0	0	0	0	512	608	
15	0	0	0	0	512	612	
0	0	0	0	0	512	613	
1	0	0	0	0	513	613	
2	0	0	0	0	512	616	
3	0	0	0	0	513	611	
4	0	0	0	0	514	612	
5	0	0	0	0	514	612	
6	0	0	0	0	515	608	
7	0	0	0	0	514	612	
8	0	0	0	0	515	612	
9	0	0	0	0	514	613	
10	0	0	0	0	513	616	
11	0	0	0	0	514	613	
12	0	0	0	0	514	613	
13	0	0	0	0	514	612	
14	0	0	0	0	514	609	
15	0	0	0	0	514	613	
0	0	0	0	0	514	613	
1	0	0	0	0	514	613	
2	0	0	0	0	514	617	
3	0	0	0	0	515	613	
4	0	0	0	0	515	613	
5	0	0	0	0	515	613	
6	0	0	0	0	515	609	
7	0	0	0	0	515	613	
8	0	0	0	0	515	613	
9	0	0	0	0	515	613	
10	0	0	0	0	515	618	
11	0	0	0	0	516	614	
12	0	0	0	0	516	614	
13	0	0	0	0	516	613	
14	0	0	0	0	515	609	
15	0	0	0	0	516	614	
0	0	0	0	0	515	613	
1	0	0	0	0	515	613	
2	0	0	0	0	514	617	
3	0	0	0	0	514	614	
4	0	0	0	0	514	614	
5	0	0	0	0	514	613	
6	0	0	0	0	515	609	
7	0	0	0	0	515	613	
8	0	0	0	0	515	614	
9	0	0	0	0	515	613	
10	0	0	0	0	514	617	
11	0	0	0	0	515	614	
12	0	0	0	0	514	613	
13	0	0	0	0	514	613	
14	0	0	0	0	514	608	
15	0	0	0	0	515	613	
0	0	0	0	0	515	613	
1	0	0	0	0	515	613	
2	0	0	0	0	515	617	
3	0	0	0	0	515	614	
4	0	0	0	0	515	613	
5	0	0	0	0	515	614	
6	0	0	0	0	516	609	
7	0	0	0	0	516	614	
8	0	0	0	0	516	613	
9	0	0	0	0	516	613	
10	0	0	0	0	515	617	
11	0	0	0	0	515	613	
12	0	0	0	0	516	613	
13	0	0	0	0	516	613	
14	0	0	0	0	515	609	
15	0	0	0	0	515	613	
0	0	0	0	0	516	613	
1	0	0	0	0	516	614	
2	0	0	0	0	516	617	
3	0	0	0	0	516	614	
4	0	0	0	0	516	613	
5	0	0	0	0	516	614	
6	0	0	0	0	516	609	
7	0	0	0	0	516	614	
8	0	0	0	0	516	614	
9	0	0	0	0	515	614	
10	0	0	0	0	515	617	
11	0	0	0	0	515	613	
12	0	0	0	0	516	614	
13	0	0	0	0	516	613	
14	0	0	0	0	516	609	
15	0	0	0	0	516	614	
0	0	0	0	0	516	614	
1	0	0	0	0	516	614	
2	0	0	0	0	516	617	
3	0	0	0	0	516	613	
4	0	0	0	0	515	613	
5	0	0	0	0	515	613	
6	0	0	0	0	515	609	
7	0	0	0	0	516	614	
8	0	0	0	0	516	613	
9	0	0	0	0	516	613	
10	0	0	0	0	516	617	
11	0	0	0	0	516	613	
12	0	0	0	0	516	613	
13	0	0	0	0	516	612	
14	0	0	0	0	516	608	
15	0	0	0	0	516	613	
0	0	0	0	0	516	613	
1	0	0	0	0	516	613	
2	0	0	0	0	515	617	
3	0	0	0	0	515	613	
4	0	0	0	0	515	613	
5	0	0	0	0	515	613	
6	0	0	0	0	514	608	
7	0	0	0	0	514	613	
8	0	0	0	0	514	613	
9	0	0	0	0	514	613	
10	0	0	0	0	514	617	
11	0	0	0	0	514	613	
12	0	0	0	0	514	613	
13	0	0	0	0	514	613	
14	0	0	0	0	514	609	
15	0	0	0	0	514	614	
0	0	0	0	0	513	613	
1	0	0	0	0	513	613	
2	0	0	0	0	513	617	
3	0	0	0	0	513	614	
4	0	0	0	0	513	614	
5	0	0	0	0	513	613	
6	0	0	0	0	513	609	
7	0	0	0	0	513	614	
8	0	0	0	0	513	614	
9	0	0	0	0	513	614	
10	0	0	0	0	513	618	
11	0	0	0	0	513	613	
12	0	0	0	0	513	613	
13	0	0	0	0	513	613	
14	0	0	0	0	513	609	
15	0	0	0	0	512	614	
0	0	0	0	0	512	613	
1	0	0	0	0	511	614	
2	0	0	0	0	510	617	
3	0	0	0	0	510	614	
4	0	0	0	0	510	613	
5	0	0	0	0	510	614	
6	0	0	0	0	511	609	
7	0	0	0	0	511	613	
8	0	0	0	0	511	614	
9	0	0	0	0	511	613	
10	0	0	0	0	511	617	
11	0	0	0	0	511	613	
12	0	0	0	0	512	613	
13	0	0	0	0	512	613	
14	0	0	0	0	512	608	
15	0	0	0	0	511	613	
0	0	0	0	0	511	613	
1	0	0	0	0	511	613	
2	0	0	0	0	511	617	
3	0	0	0	0	511	613	
4	0	0	0	0	512	613	
5	0	0	0	0	512	613	
6	0	0	0	0	512	608	
7	0	0	0	0	513	614	
8	0	0	0	0	513	613	
9	0	0	0	0	513	613	
10	0	0	0	0	513	617	
11	0	0	0	0	512	613	
12	0	0	0	0	512	613	
13	0	0	0	0	512	613	
14	0	0	0	0	512	608	
15	0	0	0	0	512	613	
0	0	0	0	0	512	613	
1	0	0	0	0	512	613	
2	0	0	0	0	513	617	
3	0	0	0	0	513	614	
4	0	0	0	0	512	614	
5	0	0	0	0	512	613	
6	0	0	0	0	512	609	
7	0	0	0	0	512	614	
8	0	0	0	0	512	613	
9	0	0	0	0	512	613	
10	0	0	0	0	512	617	
11	0	0	0	0	512	614	
12	0	0	0	0	511	613	
13	0	0	0	0	511	613	
14	0	0	0	0	511	608	
15	0	0	0	0	511	613	
0	0	0	0	0	511	613	
1	0	0	0	0	511	613	
2	0	0	0	0	511	617	
3	0	0	0	0	512	612	
4	0	0	0	0	511	613	
5	0	0	0	0	511	613	
6	0	0	0	0	511	608	
7	0	0	0	0	511	612	
8	0	0	0	0	511	612	
9	0	0	0	0	511	613	
10	0	0	0	0	512	617	
11	0	0	0	0	512	613	
12	0	0	0	0	512	613	
13	0	0	0	0	512	613	
14	0	0	0	0	512	608	
15	0	0	0	0	512	613	
0	0	0	0	0	513	613	
1	0	0	0	0	513	612	
2	0	0	0	0	513	617	
3	0	0	0	0	512	612	
4	0	0	0	0	512	614	
5	0	0	0	0	511	613	
6	0	0	0	0	511	609	
7	0	0	0	0	511	613	
8	0	0	0	0	511	613	
9	0	0	0	0	512	614	
10	0	0	0	0	512	617	
11	0	0	0	0	511	614	
12	0	0	0	0	512	614	
13	0	0	0	0	512	613	
14	0	0	0	0	512	609	
15	0	0	0	0	512	614	
0	0	0	0	0	513	613	
1	0	0	0	0	513	614	
2	0	0	0	0	513	618	
3	0	0	0	0	514	614	
4	0	0	0	0	513	614	
5	0	0	0	0	513	614	
6	0	0	0	0	513	610	
7	0	0	0	0	512	614	
8	0	0	0	0	512	614	
9	0	0	0	0	512	614	
10	0	0	0	0	512	618	
11	0	0	0	0	512	614	
12	0	0	0	0	512	614	
13	0	0	0	0	512	614	
14	0	0	0	0	512	609	
15	0	0	0	0	512	614	
0	0	0	0	0	512	613	
1	0	0	0	0	512	613	
2	0	0	0	0	512	618	
3	0	0	0	0	512	614	
4	0	0	0	0	511	614	
5	0	0	0	0	511	614	
6	0	0	0	0	512	609	
7	0	0	0	0	513	614	
8	0	0	0	0	512	614	
9	0	0	0	0	512	614	
10	0	0	0	0	512	618	
11	0	0	0	0	512	613	
12	0	0	0	0	512	614	
13	0	0	0	0	512	614	
14	0	0	0	0	512	610	
15	0	0	0	0	512	614	
0	0	0	0	0	511	614	
1	0	0	0	0	511	614	
2	0	0	0	0	511	618	
3	0	0	0	0	511	614	
4	0	0	0	0	511	614	
5	0	0	0	0	511	614	
6	0	0	0	0	511	609	
7	0	0	0	0	510	614	
8	0	0	0	0	510	613	
9	0	0	0	0	510	614	
10	0	0	0	0	509	617	
11	0	0	0	0	509	614	
12	0	0	0	0	508	614	
13	0	0	0	0	509	614	
14	0	0	0	0	509	609	
15	0	0	0	0	508	614	
0	0	0	0	0	509	614	
1	0	0	0	0	508	614	
2	0	0	0	0	508	618	
3	0	0	0	0	509	614	
4	0	0	0	0	509	614	
5	0	0	0	0	509	614	
6	0	0	0	0	509	609	
7	0	0	0	0	509	614	
8	0	0	0	0	509	614	
9	0	0	0	0	509	613	
10	0	0	0	0	510	617	
11	0	0	0	0	510	613	
12	0	0	0	0	510	613	
13	0	0	0	0	510	612	
14	0	0	0	0	510	609	
15	0	0	0	0	509	613	
0	0	0	0	0	509	613	
1	0	0	0	0	508	614	
2	0	0	0	0	508	617	
3	0	0	0	0	508	613	
4	0	0	0	0	508	613	
5	0	0	0	0	508	613	
6	0	0	0	0	509	609	
7	0	0	0	0	509	612	
8	0	0	0	0	508	612	
9	0	0	0	0	508	613	
10	0	0	0	0	508	617	
11	0	0	0	0	508	613	
12	0	0	0	0	508	613	
13	0	0	0	0	508	613	
14	0	0	0	0	508	609	
15	0	0	0	0	507	613	
0	0	0	0	0	508	613	
1	0	0	0	0	508	613	
2	0	0	0	0	508	617	
3	0	0	0	0	507	613	
4	0	0	0	0	507	613	
5	0	0	0	0	507	613	
6	0	0	0	0	507	609	
7	0	0	0	0	507	613	
8	0	0	0	0	506	614	
9	0	0	0	0	506	614	
10	0	0	0	0	505	617	
11	0	0	0	0	505	613	
12	0	0	0	0	505	613	
13	0	0	0	0	505	613	
14	0	0	0	0	505	608	
15	0	0	0	0	505	613	
0	0	0	0	0	505	614	
1	0	0	0	0	505	614	
2	0	0	0	0	505	617	
3	0	0	0	0	506	613	
4	0	0	0	0	506	613	
5	0	0	0	0	506	613	
6	0	0	0	0	505	609	
7	0	0	0	0	505	613	
8	0	0	0	0	505	613	
9	0	0	0	0	506	613	
10	0	0	0	0	506	617	
11	0	0	0	0	505	613	
12	0	0	0	0	505	613	
13	0	0	0	0	505	613	
14	0	0	0	0	505	609	
15	0	0	0	0	505	613	
0	0	0	0	0	504	613	
1	0	0	0	0	504	613	
2	0	0	0	0	504	617	
3	0	0	0	0	504	614	
4	0	0	0	0	505	613	
5	0	0	0	0	504	613	
6	0	0	0	0	505	608	
7	0	0	0	0	505	613	
8	0	0	0	0	505	612	
9	0	0	0	0	506	613	
10	0	0	0	0	506	616	
11	0	0	0	0	506	613	
12	0	0	0	0	505	613	
13	0	0	0	0	505	613	
14	0	0	0	0	505	608	
15	0	0	0	0	505	612	
0	0	0	0	0	505	613	
1	0	0	0	0	504	613	
2	0	0	0	0	504	617	
3	0	0	0	0	504	614	
4	0	0	0	0	504	614	
5	0	0	0	0	503	614	
6	0	0	0	0	503	609	
7	0	0	0	0	503	614	
8	0	0	0	0	504	613	
9	0	0	0	0	504	614	
10	0	0	0	0	504	617	
11	0	0	0	0	504	613	
12	0	0	0	0	504	613	
13	0	0	0	0	504	613	
14	0	0	0	0	504	609	
15	0	0	0	0	505	613	
0	0	0	0	0	505	613	
1	0	0	0	0	505	614	
2	0	0	0	0	506	617	
3	0	0	0	0	506	613	
4	0	0	0	0	506	614	
5	0	0	0	0	506	613	
6	0	0	0	0	506	609	
7	0	0	0	0	505	613	
8	0	0	0	0	505	613	
9	0	0	0	0	505	614	
10	0	0	0	0	504	617	
11	0	0	0	0	504	613	
12	0	0	0	0	504	613	
13	0	0	0	0	504	613	
14	0	0	0	0	504	609	
15	0	0	0	0	504	614	
0	0	0	0	0	504	613	
1	0	0	0	0	504	614	
2	0	0	0	0	504	617	
3	0	0	0	0	505	614	
4	0	0	0	0	504	613	
5	0	0	0	0	504	613	
6	0	0	0	0	504	609	
7	0	0	0	0	504	613	
8	0	0	0	0	504	613	
9	0	0	0	0	504	613	
10	0	0	0	0	504	617	
11	0	0	0	0	504	612	
12	0	0	0	0	504	612	
13	0	0	0	0	503	612	
14	0	0	0	0	503	608	
15	0	0	0	0	503	613	
0	0	0	0	0	503	613	
1	0	0	0	0	503	613	
2	0	0	0	0	503	617	
3	0	0	0	0	504	612	
4	0	0	0	0	504	614	
5	0	0	0	0	504	613	
6	0	0	0	0	504	608	
7	0	0	0	0	505	613	
8	0	0	0	0	505	613	
9	0	0	0	0	505	613	
10	0	0	0	0	505	617	
11	0	0	0	0	505	613	
12	0	0	0	0	505	613	
13	0	0	0	0	506	613	
14	0	0	0	0	506	609	
15	0	0	0	0	507	613	
0	0	0	0	0	507	614	
1	0	0	0	0	507	613	
2	0	0	0	0	507	617	
3	0	0	0	0	507	613	
4	0	0	0	0	508	613	
5	0	0	0	0	508	613	
6	0	0	0	0	508	608	
7	0	0	0	0	508	614	
8	0	0	0	0	508	614	
9	0	0	0	0	509	613	
10	0	0	0	0	509	617	
11	0	0	0	0	509	613	
12	0	0	0	0	509	613	
13	0	0	0	0	509	613	
14	0	0	0	0	509	608	
15	0	0	0	0	509	613	
0	0	0	0	0	509	613	
1	0	0	0	0	509	613	
2	0	0	0	0	509	617	
3	0	0	0	0	510	613	
4	0	0	0	0	510	613	
5	0	0	0	0	510	613	
6	0	0	0	0	510	609	
7	0	0	0	0	510	613	
8	0	0	0	0	511	613	
9	0	0	0	0	511	613	
10	0	0	0	0	512	617	
11	0	0	0	0	512	613	
12	0	0	0	0	512	613	
13	0	0	0	0	513	612	
14	0	0	0	0	513	608	
15	0	0	0	0	512	612	
0	0	0	0	0	512	613	
1	0	0	0	0	512	613	
2	0	0	0	0	512	616	
3	0	0	0	0	511	612	
4	0	0	0	0	511	613	
5	0	0	0	0	511	613	
6	0	0	0	0	511	608	
7	0	0	0	0	511	614	
8	0	0	0	0	511	613	
9	0	0	0	0	511	613	
10	0	0	0	0	511	617	
11	0	0	0	0	510	613	
12	0	0	0	0	510	613	
13	0	0	0	0	509	613	
14	0	0	0	0	510	609	
15	0	0	0	0	509	613	
0	0	0	0	0	510	613	
1	0	0	0	0	510	614	
2	0	0	0	0	510	617	
3	0	0	0	0	510	614	
4	0	0	0	0	510	614	
5	0	0	0	0	511	613	
6	0	0	0	0	512	608	
7	0	0	0	0	511	613	
8	0	0	0	0	511	614	
9	0	0	0	0	511	614	
10	0	0	0	0	511	618	
11	0	0	0	0	512	613	
12	0	0	0	0	512	613	
13	0	0	0	0	511	613	
14	0	0	0	0	511	608	
15	0	0	0	0	511	613	
0	0	0	0	0	511	614	
1	0	0	0	0	511	614	
2	0	0	0	0	511	618	
3	0	0	0	0	511	613	
4	0	0	0	0	511	614	
5	0	0	0	0	511	614	
6	0	0	0	0	511	608	
7	0	0	0	0	511	614	
8	0	0	0	0	511	613	
9	0	0	0	0	511	614	
10	0	0	0	0	511	617	
11	0	0	0	0	511	613	
12	0	0	0	0	511	613	
13	0	0	0	0	512	613	
14	0	0	0	0	511	609	
15	0	0	0	0	511	613	
0	0	0	0	0	511	613	
1	0	0	0	0	512	614	
2	0	0	0	0	511	617	
3	0	0	0	0	512	614	
4	0	0	0	0	511	613	
5	0	0	0	0	511	613	
6	0	0	0	0	511	609	
7	0	0	0	0	510	613	
8	0	0	0	0	510	613	
9	0	0	0	0	509	613	
10	0	0	0	0	509	617	
11	0	0	0	0	509	613	
12	0	0	0	0	509	613	
13	0	0	0	0	509	612	
14	0	0	0	0	509	609	
15	0	0	0	0	509	613	
0	0	0	0	0	510	613	
1	0	0	0	0	510	613	
2	0	0	0	0	510	617	
3	0	0	0	0	510	613	
4	0	0	0	0	511	613	
5	0	0	0	0	511	613	
6	0	0	0	0	511	608	
7	0	0	0	0	511	612	
8	0	0	0	0	512	613	
9	0	0	0	0	511	613	
10	0	0	0	0	511	617	
11	0	0	0	0	511	613	
12	0	0	0	0	510	614	
13	0	0	0	0	511	613	
14	0	0	0	0	510	608	
15	0	0	0	0	510	613	
0	0	0	0	0	510	613	
1	0	0	0	0	510	613	
2	0	0	0	0	510	617	
3	0	0	0	0	509	612	
4	0	0	0	0	509	613	
5	0	0	0	0	508	612	
6	0	0	0	0	507	608	
7	0	0	0	0	505	612	
8	0	0	0	0	503	613	
9	0	0	0	0	501	613	
10	0	0	0	0	499	617	
11	0	0	0	0	497	612	
12	0	0	0	0	494	613	
13	0	0	0	0	492	613	
14	0	0	0	0	490	608	
15	0	0	0	0	488	612	
0	0	0	0	0	486	612	
1	0	0	0	0	486	612	
2	0	0	0	0	484	616	
3	0	0	0	0	484	612	
4	0	0	0	0	483	612	
5	0	0	0	0	483	611	
6	0	0	0	0	483	607	
7	0	0	0	0	484	612	
8	0	0	0	0	484	612	
9	0	0	0	0	484	613	
10	0	0	0	0	485	616	
11	0	0	0	0	487	612	
12	0	0	0	0	489	613	
13	0	0	0	0	491	613	
14	0	0	0	0	494	608	
15	0	0	0	0	498	612	
0	0	0	0	0	503	612	
1	0	0	0	0	509	612	
2	0	0	0	0	515	616	
3	0	0	0	0	521	612	
4	0	0	0	0	526	612	
5	0	0	0	0	531	612	
6	0	0	0	0	536	608	
7	0	0	0	0	539	613	
8	0	0	0	0	543	612	
9	0	0	0	0	546	613	
10	0	0	0	0	550	617	
11	0	0	0	0	553	612	
12	0	0	0	0	558	613	
13	0	0	0	0	563	613	
14	0	0	0	0	567	608	
15	0	0	0	0	572	612	
0	0	0	0	0	576	612	
1	0	0	0	0	580	613	
2	0	0	0	0	584	617	
3	0	0	0	0	587	613	
4	0	0	0	0	589	613	
5	0	0	0	0	591	614	
6	0	0	0	0	592	609	
7	0	0	0	0	591	614	
8	0	0	0	0	589	614	
9	0	0	0	0	587	614	
10	0	0	0	0	583	618	
11	0	0	0	0	579	615	
12	0	0	0	0	575	614	
13	0	0	0	0	569	615	
14	0	0	0	0	563	610	
15	0	0	0	0	558	614	
0	0	0	0	0	553	615	
1	0	0	0	0	547	615	
2	0	0	0	0	543	619	
3	0	0	0	0	537	615	
4	0	0	0	0	532	614	
5	0	0	0	0	527	615	
6	0	0	0	0	524	611	
7	0	0	0	0	519	615	
8	0	0	0	0	517	614	
9	0	0	0	0	514	615	
10	0	0	0	0	511	619	
11	0	0	0	0	508	615	
12	0	0	0	0	506	615	
13	0	0	0	0	504	614	
14	0	0	0	0	502	610	
15	0	0	0	0	501	615	
0	0	0	0	0	500	615	
1	0	0	0	0	499	615	
2	0	0	0	0	497	619	
3	0	0	0	0	497	615	
4	0	0	0	0	496	614	
5	0	0	0	0	496	615	
6	0	0	0	0	496	611	
7	0	0	0	0	496	614	
8	0	0	0	0	496	614	
9	0	0	0	0	496	615	
10	0	0	0	0	496	619	
11	0	0	0	0	495	615	
12	0	0	0	0	495	614	
13	0	0	0	0	495	614	
14	0	0	0	0	496	610	
15	0	0	0	0	496	615	
0	0	0	0	0	496	615	
1	0	0	0	0	495	615	
2	0	0	0	0	495	619	
3	0	0	0	0	496	615	
4	0	0	0	0	496	615	
5	0	0	0	0	496	615	
6	0	0	0	0	496	610	
7	0	0	0	0	496	615	
8	0	0	0	0	496	615	
9	0	0	0	0	496	614	
10	0	0	0	0	495	619	
11	0	0	0	0	495	615	
12	0	0	0	0	495	614	
13	0	0	0	0	496	614	
14	0	0	0	0	496	609	
15	0	0	0	0	496	614	
0	0	0	0	0	496	614	
1	0	0	0	0	496	614	
2	0	0	0	0	496	618	
3	0	0	0	0	497	614	
4	0	0	0	0	497	614	
5	0	0	0	0	496	613	
6	0	0	0	0	497	609	
7	0	0	0	0	497	614	
8	0	0	0	0	497	614	
9	0	0	0	0	498	614	
10	0	0	0	0	497	618	
11	0	0	0	0	497	613	
12	0	0	0	0	497	613	
13	0	0	0	0	497	613	
14	0	0	0	0	497	608	
15	0	0	0	0	497	613	
0	0	0	0	0	497	614	
1	0	0	0	0	498	614	
2	0	0	0	0	498	617	
3	0	0	0	0	499	614	
4	0	0	0	0	499	614	
5	0	0	0	0	499	613	
6	0	0	0	0	499	609	
7	0	0	0	0	499	614	
8	0	0	0	0	500	614	
9	0	0	0	0	500	614	
10	0	0	0	0	500	617	
11	0	0	0	0	500	614	
12	0	0	0	0	499	613	
13	0	0	0	0	499	613	
14	0	0	0	0	499	608	
15	0	0	0	0	498	613	
0	0	0	0	0	498	614	
1	0	0	0	0	498	613	
2	0	0	0	0	497	617	
3	0	0	0	0	497	613	
4	0	0	0	0	496	613	
5	0	0	0	0	497	613	
6	0	0	0	0	497	609	
7	0	0	0	0	498	614	
8	0	0	0	0	498	613	
9	0	0	0	0	498	614	
10	0	0	0	0	499	617	
11	0	0	0	0	499	613	
12	0	0	0	0	499	613	
13	0	0	0	0	499	613	
14	0	0	0	0	500	608	
15	0	0	0	0	499	613	
0	0	0	0	0	499	613	
1	0	0	0	0	499	613	
2	0	0	0	0	500	617	
3	0	0	0	0	500	612	
4	0	0	0	0	499	613	
5	0	0	0	0	500	612	
6	0	0	0	0	500	608	
7	0	0	0	0	500	612	
8	0	0	0	0	500	612	
9	0	0	0	0	500	613	
10	0	0	0	0	500	616	
11	0	0	0	0	500	612	
12	0	0	0	0	500	611	
13	0	0	0	0	500	612	
14	0	0	0	0	500	608	
15	0	0	0	0	500	612	
0	0	0	0	0	500	612	
1	0	0	0	0	500	612	
2	0	0	0	0	500	615	
3	0	0	0	0	500	612	
4	0	0	0	0	500	612	
5	0	0	0	0	501	612	
6	0	0	0	0	501	608	
7	0	0	0	0	501	611	
8	0	0	0	0	501	612	
9	0	0	0	0	500	612	
10	0	0	0	0	500	616	
11	0	0	0	0	501	612	
12	0	0	0	0	500	612	
13	0	0	0	0	502	612	
14	0	0	0	0	502	607	
15	0	0	0	0	502	611	
0	0	0	0	0	502	612	
1	0	0	0	0	502	611	
2	0	0	0	0	502	616	
3	0	0	0	0	502	611	
4	0	0	0	0	502	612	
5	0	0	0	0	503	611	
6	0	0	0	0	504	607	
7	0	0	0	0	503	612	
8	0	0	0	0	503	611	
9	0	0	0	0	503	611	
10	0	0	0	0	503	615	
11	0	0	0	0	503	611	
12	0	0	0	0	503	612	
13	0	0	0	0	502	612	
14	0	0	0	0	502	607	
15	0	0	0	0	502	611	
0	0	0	0	0	503	611	
1	0	0	0	0	503	611	
2	0	0	0	0	504	615	
3	0	0	0	0	504	611	
4	0	0	0	0	504	612	
5	0	0	0	0	504	611	
6	0	0	0	0	504	607	
7	0	0	0	0	504	611	
8	0	0	0	0	504	612	
9	0	0	0	0	503	612	
10	0	0	0	0	503	615	
11	0	0	0	0	503	612	
12	0	0	0	0	502	612	
13	0	0	0	0	502	612	
14	0	0	0	0	502	608	
15	0	0	0	0	501	612	
0	0	0	0	0	502	613	
1	0	0	0	0	501	612	
2	0	0	0	0	501	616	
3	0	0	0	0	501	612	
4	0	0	0	0	500	612	
5	0	0	0	0	501	612	
6	0	0	0	0	501	608	
7	0	0	0	0	501	612	
8	0	0	0	0	502	613	
9	0	0	0	0	502	613	
10	0	0	0	0	502	617	
11	0	0	0	0	502	613	
12	0	0	0	0	502	613	
13	0	0	0	0	502	614	
14	0	0	0	0	501	609	
15	0	0	0	0	501	614	
0	0	0	0	0	501	613	
1	0	0	0	0	501	614	
2	0	0	0	0	500	617	
3	0	0	0	0	500	613	
4	0	0	0	0	499	614	
5	0	0	0	0	499	614	
6	0	0	0	0	499	609	
7	0	0	0	0	498	614	
8	0	0	0	0	498	614	
9	0	0	0	0	499	615	
10	0	0	0	0	498	619	
11	0	0	0	0	498	615	
12	0	0	0	0	498	614	
13	0	0	0	0	498	614	
14	0	0	0	0	498	610	
15	0	0	0	0	499	614	
0	0	0	0	0	499	615	
1	0	0	0	0	500	615	
2	0	0	0	0	500	618	
3	0	0	0	0	500	615	
