# OpenSignals Text File Format. Version 1
# {"98:D3:91:FD:59:64": {"position": 0, "device": "bitalino_rev", "device name": "98:D3:91:FD:59:64", "device connection": "BTH98:D3:91:FD:59:64", "sampling rate": 1000, "resolution": [4, 1, 1, 1, 1, 10, 10], "firmware version": 1281, "comments": "", "keywords": "", "mode": 0, "sync interval": 2, "date": "2021-9-5", "time": "16:23:42.937", "channels": [2, 5], "sensor": ["RAW", "RAW"], "label": ["A2", "A5"], "column": ["nSeq", "I1", "I2", "O1", "O2", "A2", "A5"], "special": [{}, {}], "digital IO": [0, 0, 1, 1], "convertedValues": 0}}
# EndOfHeader
0	0	0	0	0	530	619	
1	0	0	0	0	529	618	
2	0	0	0	0	529	617	
3	0	0	0	0	528	619	
4	0	0	0	0	527	619	
5	0	0	0	0	526	620	
6	0	0	0	0	524	622	
7	0	0	0	0	523	620	
8	0	0	0	0	522	621	
9	0	0	0	0	522	621	
10	0	0	0	0	521	620	
11	0	0	0	0	521	622	
12	0	0	0	0	520	622	
13	0	0	0	0	520	622	
14	0	0	0	0	519	624	
15	0	0	0	0	518	623	
0	0	0	0	0	517	623	
1	0	0	0	0	518	622	
2	0	0	0	0	518	620	
3	0	0	0	0	518	622	
4	0	0	0	0	518	622	
5	0	0	0	0	517	621	
6	0	0	0	0	517	623	
7	0	0	0	0	518	621	
8	0	0	0	0	518	621	
9	0	0	0	0	517	620	
10	0	0	0	0	518	618	
11	0	0	0	0	518	620	
12	0	0	0	0	518	619	
13	0	0	0	0	518	619	
14	0	0	0	0	518	620	
15	0	0	0	0	518	618	
0	0	0	0	0	517	618	
1	0	0	0	0	516	618	
2	0	0	0	0	516	616	
3	0	0	0	0	515	618	
4	0	0	0	0	516	619	
5	0	0	0	0	517	619	
6	0	0	0	0	517	622	
7	0	0	0	0	516	620	
8	0	0	0	0	516	620	
9	0	0	0	0	515	620	
10	0	0	0	0	515	619	
11	0	0	0	0	514	621	
12	0	0	0	0	513	620	
13	0	0	0	0	512	621	
14	0	0	0	0	513	623	
15	0	0	0	0	513	622	
0	0	0	0	0	513	621	
1	0	0	0	0	513	621	
2	0	0	0	0	513	619	
3	0	0	0	0	512	621	
4	0	0	0	0	511	621	
5	0	0	0	0	511	621	
6	0	0	0	0	512	623	
7	0	0	0	0	512	620	
8	0	0	0	0	512	620	
9	0	0	0	0	512	620	
10	0	0	0	0	511	619	
11	0	0	0	0	511	620	
12	0	0	0	0	511	620	
13	0	0	0	0	511	620	
14	0	0	0	0	510	621	
15	0	0	0	0	510	619	
0	0	0	0	0	511	620	
1	0	0	0	0	511	619	
2	0	0	0	0	510	617	
3	0	0	0	0	509	619	
4	0	0	0	0	510	618	
5	0	0	0	0	510	619	
6	0	0	0	0	509	620	
7	0	0	0	0	509	619	
8	0	0	0	0	509	619	
9	0	0	0	0	508	619	
10	0	0	0	0	508	617	
11	0	0	0	0	507	618	
12	0	0	0	0	506	619	
13	0	0	0	0	504	618	
14	0	0	0	0	503	621	
15	0	0	0	0	501	619	
0	0	0	0	0	499	619	
1	0	0	0	0	495	620	
2	0	0	0	0	489	618	
3	0	0	0	0	483	620	
4	0	0	0	0	474	620	
5	0	0	0	0	464	620	
6	0	0	0	0	452	622	
7	0	0	0	0	439	620	
8	0	0	0	0	427	620	
9	0	0	0	0	415	620	
10	0	0	0	0	404	620	
11	0	0	0	0	395	622	
12	0	0	0	0	388	622	
13	0	0	0	0	384	621	
14	0	0	0	0	380	624	
15	0	0	0	0	376	622	
0	0	0	0	0	375	622	
1	0	0	0	0	376	622	
2	0	0	0	0	379	620	
3	0	0	0	0	384	622	
4	0	0	0	0	392	622	
5	0	0	0	0	404	622	
6	0	0	0	0	419	624	
7	0	0	0	0	436	622	
8	0	0	0	0	455	621	
9	0	0	0	0	479	621	
10	0	0	0	0	508	619	
11	0	0	0	0	540	620	
12	0	0	0	0	577	620	
13	0	0	0	0	620	619	
14	0	0	0	0	666	621	
15	0	0	0	0	715	619	
0	0	0	0	0	765	619	
1	0	0	0	0	816	619	
2	0	0	0	0	868	616	
3	0	0	0	0	918	619	
4	0	0	0	0	965	618	
5	0	0	0	0	1010	618	
6	0	0	0	0	1022	620	
7	0	0	0	0	1022	619	
8	0	0	0	0	1022	619	
9	0	0	0	0	1022	619	
10	0	0	0	0	1022	617	
11	0	0	0	0	1022	620	
12	0	0	0	0	1022	620	
13	0	0	0	0	1022	621	
14	0	0	0	0	1022	623	
15	0	0	0	0	1022	622	
0	0	0	0	0	1022	623	
1	0	0	0	0	1022	623	
2	0	0	0	0	1022	622	
3	0	0	0	0	1022	624	
4	0	0	0	0	1022	624	
5	0	0	0	0	1022	625	
6	0	0	0	0	1022	627	
7	0	0	0	0	1017	625	
8	0	0	0	0	962	625	
9	0	0	0	0	909	625	
10	0	0	0	0	858	623	
11	0	0	0	0	810	626	
12	0	0	0	0	764	625	
13	0	0	0	0	720	625	
14	0	0	0	0	681	626	
15	0	0	0	0	646	624	
0	0	0	0	0	616	624	
1	0	0	0	0	590	623	
2	0	0	0	0	568	622	
3	0	0	0	0	548	623	
4	0	0	0	0	531	623	
5	0	0	0	0	515	623	
6	0	0	0	0	500	624	
7	0	0	0	0	486	623	
8	0	0	0	0	472	624	
9	0	0	0	0	460	623	
10	0	0	0	0	448	621	
11	0	0	0	0	436	623	
12	0	0	0	0	425	623	
13	0	0	0	0	413	623	
14	0	0	0	0	403	625	
15	0	0	0	0	393	622	
0	0	0	0	0	384	622	
1	0	0	0	0	374	622	
2	0	0	0	0	366	620	
3	0	0	0	0	358	621	
4	0	0	0	0	350	621	
5	0	0	0	0	343	620	
6	0	0	0	0	337	621	
7	0	0	0	0	333	619	
8	0	0	0	0	329	619	
9	0	0	0	0	327	619	
10	0	0	0	0	325	617	
11	0	0	0	0	324	619	
12	0	0	0	0	321	619	
13	0	0	0	0	320	618	
14	0	0	0	0	320	620	
15	0	0	0	0	319	618	
0	0	0	0	0	319	619	
1	0	0	0	0	318	618	
2	0	0	0	0	319	616	
3	0	0	0	0	319	618	
4	0	0	0	0	319	619	
5	0	0	0	0	319	619	
6	0	0	0	0	321	620	
7	0	0	0	0	322	619	
8	0	0	0	0	323	619	
9	0	0	0	0	324	619	
10	0	0	0	0	326	617	
11	0	0	0	0	327	619	
12	0	0	0	0	329	619	
13	0	0	0	0	329	619	
14	0	0	0	0	331	621	
15	0	0	0	0	333	620	
0	0	0	0	0	335	620	
1	0	0	0	0	336	620	
2	0	0	0	0	337	619	
3	0	0	0	0	338	621	
4	0	0	0	0	339	621	
5	0	0	0	0	340	621	
6	0	0	0	0	341	624	
7	0	0	0	0	343	622	
8	0	0	0	0	345	622	
9	0	0	0	0	346	622	
10	0	0	0	0	348	621	
11	0	0	0	0	349	623	
12	0	0	0	0	351	623	
13	0	0	0	0	352	623	
14	0	0	0	0	353	625	
15	0	0	0	0	353	624	
0	0	0	0	0	354	623	
1	0	0	0	0	355	623	
2	0	0	0	0	356	621	
3	0	0	0	0	357	622	
4	0	0	0	0	358	623	
5	0	0	0	0	359	623	
6	0	0	0	0	361	624	
7	0	0	0	0	362	623	
8	0	0	0	0	363	623	
9	0	0	0	0	365	623	
10	0	0	0	0	366	620	
11	0	0	0	0	367	622	
12	0	0	0	0	369	622	
13	0	0	0	0	371	621	
14	0	0	0	0	372	623	
15	0	0	0	0	373	621	
0	0	0	0	0	374	621	
1	0	0	0	0	375	621	
2	0	0	0	0	376	620	
3	0	0	0	0	376	621	
4	0	0	0	0	378	621	
5	0	0	0	0	379	621	
6	0	0	0	0	380	623	
7	0	0	0	0	381	622	
8	0	0	0	0	381	621	
9	0	0	0	0	381	622	
10	0	0	0	0	382	619	
11	0	0	0	0	383	621	
12	0	0	0	0	384	621	
13	0	0	0	0	385	621	
14	0	0	0	0	385	623	
15	0	0	0	0	386	622	
0	0	0	0	0	385	622	
1	0	0	0	0	386	622	
2	0	0	0	0	387	619	
3	0	0	0	0	387	622	
4	0	0	0	0	387	621	
5	0	0	0	0	387	621	
6	0	0	0	0	388	623	
7	0	0	0	0	389	622	
8	0	0	0	0	390	622	
9	0	0	0	0	391	622	
10	0	0	0	0	392	620	
11	0	0	0	0	393	622	
12	0	0	0	0	395	621	
13	0	0	0	0	397	622	
14	0	0	0	0	398	623	
15	0	0	0	0	398	622	
0	0	0	0	0	399	621	
1	0	0	0	0	400	621	
2	0	0	0	0	400	619	
3	0	0	0	0	401	622	
4	0	0	0	0	402	622	
5	0	0	0	0	402	622	
6	0	0	0	0	403	624	
7	0	0	0	0	405	623	
8	0	0	0	0	407	623	
9	0	0	0	0	408	624	
10	0	0	0	0	408	622	
11	0	0	0	0	409	624	
12	0	0	0	0	410	625	
13	0	0	0	0	411	625	
14	0	0	0	0	411	628	
15	0	0	0	0	412	627	
0	0	0	0	0	412	627	
1	0	0	0	0	413	628	
2	0	0	0	0	415	627	
3	0	0	0	0	416	628	
4	0	0	0	0	418	629	
5	0	0	0	0	419	629	
6	0	0	0	0	420	631	
7	0	0	0	0	422	629	
8	0	0	0	0	423	628	
9	0	0	0	0	424	628	
10	0	0	0	0	425	626	
11	0	0	0	0	427	627	
12	0	0	0	0	429	627	
13	0	0	0	0	431	627	
14	0	0	0	0	432	628	
15	0	0	0	0	434	627	
0	0	0	0	0	435	626	
1	0	0	0	0	437	625	
2	0	0	0	0	439	623	
3	0	0	0	0	441	624	
4	0	0	0	0	444	624	
5	0	0	0	0	447	624	
6	0	0	0	0	449	625	
7	0	0	0	0	451	623	
8	0	0	0	0	452	622	
9	0	0	0	0	455	621	
10	0	0	0	0	455	619	
11	0	0	0	0	457	621	
12	0	0	0	0	457	620	
13	0	0	0	0	459	620	
14	0	0	0	0	460	622	
15	0	0	0	0	461	620	
0	0	0	0	0	462	620	
1	0	0	0	0	464	620	
2	0	0	0	0	466	617	
3	0	0	0	0	467	619	
4	0	0	0	0	468	619	
5	0	0	0	0	471	618	
6	0	0	0	0	472	620	
7	0	0	0	0	473	618	
8	0	0	0	0	473	618	
9	0	0	0	0	474	618	
10	0	0	0	0	475	616	
11	0	0	0	0	475	618	
12	0	0	0	0	476	617	
13	0	0	0	0	476	617	
14	0	0	0	0	478	619	
15	0	0	0	0	479	617	
0	0	0	0	0	480	617	
1	0	0	0	0	482	616	
2	0	0	0	0	483	615	
3	0	0	0	0	483	616	
4	0	0	0	0	484	616	
5	0	0	0	0	484	617	
6	0	0	0	0	484	619	
7	0	0	0	0	484	617	
8	0	0	0	0	485	618	
9	0	0	0	0	485	618	
10	0	0	0	0	485	616	
11	0	0	0	0	486	619	
12	0	0	0	0	487	619	
13	0	0	0	0	487	619	
14	0	0	0	0	488	622	
15	0	0	0	0	490	621	
0	0	0	0	0	491	621	
1	0	0	0	0	490	622	
2	0	0	0	0	490	620	
3	0	0	0	0	491	623	
4	0	0	0	0	492	622	
5	0	0	0	0	492	622	
6	0	0	0	0	493	624	
7	0	0	0	0	494	622	
8	0	0	0	0	494	622	
9	0	0	0	0	495	622	
10	0	0	0	0	495	620	
11	0	0	0	0	494	622	
12	0	0	0	0	493	622	
13	0	0	0	0	493	621	
14	0	0	0	0	493	623	
15	0	0	0	0	493	622	
0	0	0	0	0	493	621	
1	0	0	0	0	493	620	
2	0	0	0	0	494	619	
3	0	0	0	0	494	620	
4	0	0	0	0	493	620	
5	0	0	0	0	492	620	
6	0	0	0	0	492	622	
7	0	0	0	0	492	621	
8	0	0	0	0	492	620	
9	0	0	0	0	493	620	
10	0	0	0	0	493	619	
11	0	0	0	0	494	621	
12	0	0	0	0	494	622	
13	0	0	0	0	496	622	
14	0	0	0	0	497	624	
15	0	0	0	0	499	622	
0	0	0	0	0	499	622	
1	0	0	0	0	500	623	
2	0	0	0	0	501	621	
3	0	0	0	0	501	623	
4	0	0	0	0	501	623	
5	0	0	0	0	501	623	
6	0	0	0	0	502	625	
7	0	0	0	0	503	624	
8	0	0	0	0	504	623	
9	0	0	0	0	505	623	
10	0	0	0	0	506	620	
11	0	0	0	0	507	622	
12	0	0	0	0	507	622	
13	0	0	0	0	508	621	
14	0	0	0	0	509	623	
15	0	0	0	0	510	621	
0	0	0	0	0	510	620	
1	0	0	0	0	509	619	
2	0	0	0	0	510	617	
3	0	0	0	0	510	619	
4	0	0	0	0	511	619	
5	0	0	0	0	512	619	
6	0	0	0	0	512	621	
7	0	0	0	0	512	618	
8	0	0	0	0	512	619	
9	0	0	0	0	511	618	
10	0	0	0	0	512	617	
11	0	0	0	0	511	619	
12	0	0	0	0	512	618	
13	0	0	0	0	512	618	
14	0	0	0	0	512	620	
15	0	0	0	0	512	618	
0	0	0	0	0	511	618	
1	0	0	0	0	511	618	
2	0	0	0	0	512	615	
3	0	0	0	0	512	617	
4	0	0	0	0	512	617	
5	0	0	0	0	513	616	
6	0	0	0	0	513	618	
7	0	0	0	0	513	616	
8	0	0	0	0	513	617	
9	0	0	0	0	514	616	
10	0	0	0	0	514	615	
11	0	0	0	0	514	617	
12	0	0	0	0	514	617	
13	0	0	0	0	514	617	
14	0	0	0	0	515	620	
15	0	0	0	0	515	618	
0	0	0	0	0	515	619	
1	0	0	0	0	515	619	
2	0	0	0	0	516	619	
3	0	0	0	0	516	621	
4	0	0	0	0	516	622	
5	0	0	0	0	515	622	
6	0	0	0	0	515	624	
7	0	0	0	0	515	623	
8	0	0	0	0	515	624	
9	0	0	0	0	514	624	
10	0	0	0	0	514	623	
11	0	0	0	0	513	625	
12	0	0	0	0	513	625	
13	0	0	0	0	514	625	
14	0	0	0	0	515	627	
15	0	0	0	0	515	625	
0	0	0	0	0	515	625	
1	0	0	0	0	516	624	
2	0	0	0	0	516	623	
3	0	0	0	0	516	623	
4	0	0	0	0	516	623	
5	0	0	0	0	516	622	
6	0	0	0	0	515	624	
7	0	0	0	0	516	622	
8	0	0	0	0	516	622	
9	0	0	0	0	517	622	
10	0	0	0	0	517	619	
11	0	0	0	0	518	620	
12	0	0	0	0	518	620	
13	0	0	0	0	518	620	
14	0	0	0	0	518	623	
15	0	0	0	0	517	621	
0	0	0	0	0	516	620	
1	0	0	0	0	516	621	
2	0	0	0	0	515	618	
3	0	0	0	0	515	620	
4	0	0	0	0	515	621	
5	0	0	0	0	515	621	
6	0	0	0	0	515	623	
7	0	0	0	0	515	622	
8	0	0	0	0	516	622	
9	0	0	0	0	515	623	
10	0	0	0	0	515	620	
11	0	0	0	0	515	623	
12	0	0	0	0	515	623	
13	0	0	0	0	515	624	
14	0	0	0	0	516	626	
15	0	0	0	0	515	625	
0	0	0	0	0	515	624	
1	0	0	0	0	515	625	
2	0	0	0	0	515	622	
3	0	0	0	0	515	624	
4	0	0	0	0	516	625	
5	0	0	0	0	515	625	
6	0	0	0	0	516	627	
7	0	0	0	0	517	625	
8	0	0	0	0	517	624	
9	0	0	0	0	517	625	
10	0	0	0	0	518	622	
11	0	0	0	0	516	624	
12	0	0	0	0	515	624	
13	0	0	0	0	515	623	
14	0	0	0	0	514	624	
15	0	0	0	0	513	623	
0	0	0	0	0	514	623	
1	0	0	0	0	514	622	
2	0	0	0	0	515	620	
3	0	0	0	0	515	622	
4	0	0	0	0	515	621	
5	0	0	0	0	516	621	
6	0	0	0	0	516	623	
7	0	0	0	0	517	620	
8	0	0	0	0	518	620	
9	0	0	0	0	518	620	
10	0	0	0	0	517	618	
11	0	0	0	0	516	620	
12	0	0	0	0	517	620	
13	0	0	0	0	517	620	
14	0	0	0	0	517	622	
15	0	0	0	0	517	620	
0	0	0	0	0	517	620	
1	0	0	0	0	516	620	
2	0	0	0	0	516	618	
3	0	0	0	0	516	620	
4	0	0	0	0	515	620	
5	0	0	0	0	516	620	
6	0	0	0	0	516	622	
7	0	0	0	0	518	620	
8	0	0	0	0	518	620	
9	0	0	0	0	519	620	
10	0	0	0	0	519	618	
11	0	0	0	0	519	620	
12	0	0	0	0	519	620	
13	0	0	0	0	519	620	
14	0	0	0	0	519	621	
15	0	0	0	0	520	619	
0	0	0	0	0	520	620	
1	0	0	0	0	521	620	
2	0	0	0	0	521	619	
3	0	0	0	0	520	621	
4	0	0	0	0	520	622	
5	0	0	0	0	520	622	
6	0	0	0	0	520	624	
7	0	0	0	0	520	623	
8	0	0	0	0	521	623	
9	0	0	0	0	520	623	
10	0	0	0	0	520	621	
11	0	0	0	0	519	623	
12	0	0	0	0	519	624	
13	0	0	0	0	519	624	
14	0	0	0	0	518	626	
15	0	0	0	0	518	624	
0	0	0	0	0	517	624	
1	0	0	0	0	517	623	
2	0	0	0	0	518	622	
3	0	0	0	0	517	624	
4	0	0	0	0	519	624	
5	0	0	0	0	519	624	
6	0	0	0	0	520	626	
7	0	0	0	0	520	624	
8	0	0	0	0	520	624	
9	0	0	0	0	520	624	
10	0	0	0	0	520	622	
11	0	0	0	0	519	623	
12	0	0	0	0	519	623	
13	0	0	0	0	519	622	
14	0	0	0	0	519	624	
15	0	0	0	0	518	622	
0	0	0	0	0	519	622	
1	0	0	0	0	519	622	
2	0	0	0	0	519	620	
3	0	0	0	0	518	622	
4	0	0	0	0	517	622	
5	0	0	0	0	516	622	
6	0	0	0	0	516	624	
7	0	0	0	0	517	623	
8	0	0	0	0	517	624	
9	0	0	0	0	518	624	
10	0	0	0	0	518	622	
11	0	0	0	0	518	624	
12	0	0	0	0	518	624	
13	0	0	0	0	518	624	
14	0	0	0	0	518	626	
15	0	0	0	0	517	624	
0	0	0	0	0	516	624	
1	0	0	0	0	515	624	
2	0	0	0	0	515	622	
3	0	0	0	0	515	623	
4	0	0	0	0	515	623	
5	0	0	0	0	514	623	
6	0	0	0	0	514	624	
7	0	0	0	0	513	622	
8	0	0	0	0	513	621	
9	0	0	0	0	512	621	
10	0	0	0	0	511	619	
11	0	0	0	0	510	620	
12	0	0	0	0	510	620	
13	0	0	0	0	509	620	
14	0	0	0	0	509	622	
15	0	0	0	0	509	620	
0	0	0	0	0	509	620	
1	0	0	0	0	509	620	
2	0	0	0	0	508	617	
3	0	0	0	0	507	620	
4	0	0	0	0	506	619	
5	0	0	0	0	505	619	
6	0	0	0	0	505	621	
7	0	0	0	0	505	619	
8	0	0	0	0	505	619	
9	0	0	0	0	504	619	
10	0	0	0	0	504	616	
11	0	0	0	0	504	618	
12	0	0	0	0	504	619	
13	0	0	0	0	504	618	
14	0	0	0	0	504	620	
15	0	0	0	0	505	618	
0	0	0	0	0	504	619	
1	0	0	0	0	505	618	
2	0	0	0	0	505	617	
3	0	0	0	0	506	618	
4	0	0	0	0	506	618	
5	0	0	0	0	507	617	
6	0	0	0	0	508	620	
7	0	0	0	0	509	617	
8	0	0	0	0	509	619	
9	0	0	0	0	510	618	
10	0	0	0	0	511	616	
11	0	0	0	0	512	619	
12	0	0	0	0	512	619	
13	0	0	0	0	512	619	
14	0	0	0	0	513	621	
15	0	0	0	0	514	620	
0	0	0	0	0	514	619	
1	0	0	0	0	515	620	
2	0	0	0	0	513	619	
3	0	0	0	0	513	621	
4	0	0	0	0	513	622	
5	0	0	0	0	513	622	
6	0	0	0	0	513	624	
7	0	0	0	0	513	623	
8	0	0	0	0	514	623	
9	0	0	0	0	515	624	
10	0	0	0	0	516	622	
11	0	0	0	0	516	624	
12	0	0	0	0	518	624	
13	0	0	0	0	518	624	
14	0	0	0	0	519	625	
15	0	0	0	0	520	624	
0	0	0	0	0	521	624	
1	0	0	0	0	521	624	
2	0	0	0	0	521	623	
3	0	0	0	0	521	624	
4	0	0	0	0	522	624	
5	0	0	0	0	523	624	
6	0	0	0	0	524	625	
7	0	0	0	0	524	624	
8	0	0	0	0	523	623	
9	0	0	0	0	524	623	
10	0	0	0	0	524	620	
11	0	0	0	0	524	623	
12	0	0	0	0	525	623	
13	0	0	0	0	524	622	
14	0	0	0	0	523	624	
15	0	0	0	0	523	622	
0	0	0	0	0	522	622	
1	0	0	0	0	520	622	
2	0	0	0	0	520	620	
3	0	0	0	0	520	621	
4	0	0	0	0	520	621	
5	0	0	0	0	519	621	
6	0	0	0	0	519	623	
7	0	0	0	0	518	621	
8	0	0	0	0	518	621	
9	0	0	0	0	516	622	
10	0	0	0	0	516	620	
11	0	0	0	0	515	621	
12	0	0	0	0	514	621	
13	0	0	0	0	513	620	
14	0	0	0	0	513	622	
15	0	0	0	0	513	621	
0	0	0	0	0	512	620	
1	0	0	0	0	512	620	
2	0	0	0	0	511	618	
3	0	0	0	0	511	620	
4	0	0	0	0	511	620	
5	0	0	0	0	510	620	
6	0	0	0	0	510	621	
7	0	0	0	0	509	620	
8	0	0	0	0	509	620	
9	0	0	0	0	509	620	
10	0	0	0	0	508	618	
11	0	0	0	0	508	620	
12	0	0	0	0	508	619	
13	0	0	0	0	509	620	
14	0	0	0	0	508	621	
15	0	0	0	0	508	620	
0	0	0	0	0	508	619	
1	0	0	0	0	508	619	
2	0	0	0	0	508	618	
3	0	0	0	0	508	620	
4	0	0	0	0	508	620	
5	0	0	0	0	508	620	
6	0	0	0	0	508	621	
7	0	0	0	0	508	620	
8	0	0	0	0	508	620	
9	0	0	0	0	508	620	
10	0	0	0	0	508	616	
11	0	0	0	0	507	619	
12	0	0	0	0	508	619	
13	0	0	0	0	508	618	
14	0	0	0	0	508	620	
15	0	0	0	0	508	618	
0	0	0	0	0	508	618	
1	0	0	0	0	508	617	
2	0	0	0	0	508	616	
3	0	0	0	0	508	617	
4	0	0	0	0	508	617	
5	0	0	0	0	507	617	
6	0	0	0	0	506	619	
7	0	0	0	0	506	618	
8	0	0	0	0	505	619	
9	0	0	0	0	505	619	
10	0	0	0	0	505	617	
11	0	0	0	0	505	620	
12	0	0	0	0	505	619	
13	0	0	0	0	504	620	
14	0	0	0	0	504	623	
15	0	0	0	0	505	622	
0	0	0	0	0	504	623	
1	0	0	0	0	504	623	
2	0	0	0	0	505	622	
3	0	0	0	0	505	624	
4	0	0	0	0	505	625	
5	0	0	0	0	505	625	
6	0	0	0	0	505	627	
7	0	0	0	0	505	625	
8	0	0	0	0	505	625	
9	0	0	0	0	505	625	
10	0	0	0	0	505	623	
11	0	0	0	0	505	624	
12	0	0	0	0	505	624	
13	0	0	0	0	504	624	
14	0	0	0	0	504	625	
15	0	0	0	0	503	624	
0	0	0	0	0	501	623	
1	0	0	0	0	499	623	
2	0	0	0	0	497	620	
3	0	0	0	0	495	621	
4	0	0	0	0	491	620	
5	0	0	0	0	486	618	
6	0	0	0	0	480	620	
7	0	0	0	0	472	617	
8	0	0	0	0	462	617	
9	0	0	0	0	452	617	
10	0	0	0	0	440	615	
11	0	0	0	0	428	617	
12	0	0	0	0	415	617	
13	0	0	0	0	404	618	
14	0	0	0	0	395	620	
15	0	0	0	0	388	620	
0	0	0	0	0	384	621	
1	0	0	0	0	381	621	
2	0	0	0	0	379	620	
3	0	0	0	0	377	622	
4	0	0	0	0	377	623	
5	0	0	0	0	379	623	
6	0	0	0	0	384	625	
7	0	0	0	0	391	624	
8	0	0	0	0	402	624	
9	0	0	0	0	417	624	
10	0	0	0	0	434	622	
11	0	0	0	0	455	624	
12	0	0	0	0	480	623	
13	0	0	0	0	508	623	
14	0	0	0	0	542	625	
15	0	0	0	0	579	623	
0	0	0	0	0	622	623	
1	0	0	0	0	668	623	
2	0	0	0	0	716	621	
3	0	0	0	0	766	623	
4	0	0	0	0	818	623	
5	0	0	0	0	871	623	
6	0	0	0	0	920	624	
7	0	0	0	0	967	623	
8	0	0	0	0	1011	622	
9	0	0	0	0	1022	623	
10	0	0	0	0	1022	620	
11	0	0	0	0	1022	622	
12	0	0	0	0	1022	622	
13	0	0	0	0	1022	622	
14	0	0	0	0	1022	623	
15	0	0	0	0	1022	622	
0	0	0	0	0	1022	622	
1	0	0	0	0	1022	621	
2	0	0	0	0	1022	619	
3	0	0	0	0	1022	621	
4	0	0	0	0	1022	621	
5	0	0	0	0	1022	620	
6	0	0	0	0	1022	623	
7	0	0	0	0	1022	621	
8	0	0	0	0	1022	622	
9	0	0	0	0	1022	622	
10	0	0	0	0	1021	619	
11	0	0	0	0	975	621	
12	0	0	0	0	921	621	
13	0	0	0	0	868	621	
14	0	0	0	0	819	623	
15	0	0	0	0	771	621	
0	0	0	0	0	727	621	
1	0	0	0	0	687	621	
2	0	0	0	0	651	619	
3	0	0	0	0	620	621	
4	0	0	0	0	593	621	
5	0	0	0	0	569	621	
6	0	0	0	0	548	623	
7	0	0	0	0	530	621	
8	0	0	0	0	514	622	
9	0	0	0	0	499	622	
10	0	0	0	0	484	619	
11	0	0	0	0	471	622	
12	0	0	0	0	458	622	
13	0	0	0	0	446	623	
14	0	0	0	0	434	624	
15	0	0	0	0	423	622	
0	0	0	0	0	412	622	
1	0	0	0	0	401	622	
2	0	0	0	0	391	621	
3	0	0	0	0	381	622	
4	0	0	0	0	372	623	
5	0	0	0	0	363	623	
6	0	0	0	0	355	624	
7	0	0	0	0	348	623	
8	0	0	0	0	341	623	
9	0	0	0	0	336	623	
10	0	0	0	0	331	621	
11	0	0	0	0	328	623	
12	0	0	0	0	325	623	
13	0	0	0	0	322	623	
14	0	0	0	0	320	624	
15	0	0	0	0	318	622	
0	0	0	0	0	317	622	
1	0	0	0	0	316	623	
2	0	0	0	0	315	620	
3	0	0	0	0	315	622	
4	0	0	0	0	314	622	
5	0	0	0	0	314	622	
6	0	0	0	0	315	624	
7	0	0	0	0	315	622	
8	0	0	0	0	315	623	
9	0	0	0	0	316	622	
10	0	0	0	0	316	621	
11	0	0	0	0	318	622	
12	0	0	0	0	319	621	
13	0	0	0	0	319	622	
14	0	0	0	0	321	624	
15	0	0	0	0	321	622	
0	0	0	0	0	323	621	
1	0	0	0	0	325	621	
2	0	0	0	0	326	619	
3	0	0	0	0	327	621	
4	0	0	0	0	328	621	
5	0	0	0	0	328	621	
6	0	0	0	0	329	623	
7	0	0	0	0	331	621	
8	0	0	0	0	332	622	
9	0	0	0	0	334	622	
10	0	0	0	0	336	620	
11	0	0	0	0	337	622	
12	0	0	0	0	340	622	
13	0	0	0	0	341	622	
14	0	0	0	0	343	624	
15	0	0	0	0	345	623	
0	0	0	0	0	347	622	
1	0	0	0	0	348	622	
2	0	0	0	0	348	621	
3	0	0	0	0	350	623	
4	0	0	0	0	351	622	
5	0	0	0	0	352	622	
6	0	0	0	0	353	624	
7	0	0	0	0	355	622	
8	0	0	0	0	355	622	
9	0	0	0	0	356	621	
10	0	0	0	0	357	620	
11	0	0	0	0	359	622	
12	0	0	0	0	359	621	
13	0	0	0	0	360	620	
14	0	0	0	0	361	623	
15	0	0	0	0	363	620	
0	0	0	0	0	364	621	
1	0	0	0	0	365	620	
2	0	0	0	0	366	619	
3	0	0	0	0	367	620	
4	0	0	0	0	368	620	
5	0	0	0	0	368	620	
6	0	0	0	0	369	622	
7	0	0	0	0	370	621	
8	0	0	0	0	372	620	
9	0	0	0	0	374	621	
10	0	0	0	0	376	619	
11	0	0	0	0	376	621	
12	0	0	0	0	377	620	
13	0	0	0	0	378	621	
14	0	0	0	0	379	623	
15	0	0	0	0	379	620	
0	0	0	0	0	380	621	
1	0	0	0	0	380	620	
2	0	0	0	0	381	618	
3	0	0	0	0	381	620	
4	0	0	0	0	382	620	
5	0	0	0	0	382	620	
6	0	0	0	0	383	621	
7	0	0	0	0	383	619	
8	0	0	0	0	384	619	
9	0	0	0	0	385	619	
10	0	0	0	0	387	616	
11	0	0	0	0	388	619	
12	0	0	0	0	389	618	
13	0	0	0	0	390	618	
14	0	0	0	0	391	620	
15	0	0	0	0	392	618	
0	0	0	0	0	393	619	
1	0	0	0	0	395	618	
2	0	0	0	0	395	617	
3	0	0	0	0	396	619	
4	0	0	0	0	396	619	
5	0	0	0	0	397	619	
6	0	0	0	0	398	620	
7	0	0	0	0	398	619	
8	0	0	0	0	399	619	
9	0	0	0	0	401	619	
10	0	0	0	0	402	617	
11	0	0	0	0	403	619	
12	0	0	0	0	405	619	
13	0	0	0	0	406	619	
14	0	0	0	0	408	622	
15	0	0	0	0	409	620	
0	0	0	0	0	410	620	
1	0	0	0	0	411	620	
2	0	0	0	0	412	619	
3	0	0	0	0	412	620	
4	0	0	0	0	413	620	
5	0	0	0	0	414	620	
6	0	0	0	0	415	623	
7	0	0	0	0	415	621	
8	0	0	0	0	416	621	
9	0	0	0	0	417	621	
10	0	0	0	0	417	619	
11	0	0	0	0	419	621	
12	0	0	0	0	420	621	
13	0	0	0	0	422	621	
14	0	0	0	0	423	623	
15	0	0	0	0	424	621	
0	0	0	0	0	425	621	
1	0	0	0	0	427	620	
2	0	0	0	0	428	618	
3	0	0	0	0	430	621	
4	0	0	0	0	431	621	
5	0	0	0	0	433	620	
6	0	0	0	0	433	622	
7	0	0	0	0	435	620	
8	0	0	0	0	436	620	
9	0	0	0	0	438	620	
10	0	0	0	0	440	618	
11	0	0	0	0	442	620	
12	0	0	0	0	444	620	
13	0	0	0	0	447	620	
14	0	0	0	0	450	621	
15	0	0	0	0	451	620	
0	0	0	0	0	453	621	
1	0	0	0	0	455	621	
2	0	0	0	0	455	619	
3	0	0	0	0	457	622	
4	0	0	0	0	459	622	
5	0	0	0	0	461	622	
6	0	0	0	0	463	624	
7	0	0	0	0	465	623	
8	0	0	0	0	466	623	
9	0	0	0	0	467	623	
10	0	0	0	0	467	622	
11	0	0	0	0	469	624	
12	0	0	0	0	470	623	
13	0	0	0	0	470	624	
14	0	0	0	0	470	625	
15	0	0	0	0	472	623	
0	0	0	0	0	473	623	
1	0	0	0	0	473	623	
2	0	0	0	0	474	620	
3	0	0	0	0	475	623	
4	0	0	0	0	476	622	
5	0	0	0	0	477	623	
6	0	0	0	0	477	623	
7	0	0	0	0	478	622	
8	0	0	0	0	478	621	
9	0	0	0	0	479	621	
10	0	0	0	0	480	619	
11	0	0	0	0	480	620	
12	0	0	0	0	481	620	
13	0	0	0	0	482	619	
14	0	0	0	0	483	621	
15	0	0	0	0	483	620	
0	0	0	0	0	484	620	
1	0	0	0	0	485	620	
2	0	0	0	0	486	617	
3	0	0	0	0	488	620	
4	0	0	0	0	490	620	
5	0	0	0	0	491	620	
6	0	0	0	0	492	622	
7	0	0	0	0	491	620	
8	0	0	0	0	492	620	
9	0	0	0	0	491	621	
10	0	0	0	0	491	620	
11	0	0	0	0	491	621	
12	0	0	0	0	491	622	
13	0	0	0	0	491	622	
14	0	0	0	0	491	623	
15	0	0	0	0	492	623	
0	0	0	0	0	493	623	
1	0	0	0	0	493	623	
2	0	0	0	0	494	621	
3	0	0	0	0	493	623	
4	0	0	0	0	494	623	
5	0	0	0	0	494	624	
6	0	0	0	0	494	625	
7	0	0	0	0	495	624	
8	0	0	0	0	495	624	
9	0	0	0	0	495	624	
10	0	0	0	0	495	623	
11	0	0	0	0	495	624	
12	0	0	0	0	496	624	
13	0	0	0	0	495	623	
14	0	0	0	0	496	625	
15	0	0	0	0	496	623	
0	0	0	0	0	496	623	
1	0	0	0	0	496	623	
2	0	0	0	0	496	620	
3	0	0	0	0	496	621	
4	0	0	0	0	497	620	
5	0	0	0	0	498	621	
6	0	0	0	0	500	622	
7	0	0	0	0	501	620	
8	0	0	0	0	501	620	
9	0	0	0	0	502	620	
10	0	0	0	0	502	616	
11	0	0	0	0	502	619	
12	0	0	0	0	502	619	
13	0	0	0	0	502	619	
14	0	0	0	0	502	621	
15	0	0	0	0	503	620	
0	0	0	0	0	504	620	
1	0	0	0	0	504	621	
2	0	0	0	0	505	619	
3	0	0	0	0	505	621	
4	0	0	0	0	507	621	
5	0	0	0	0	508	622	
6	0	0	0	0	508	623	
7	0	0	0	0	508	623	
8	0	0	0	0	509	623	
9	0	0	0	0	510	622	
10	0	0	0	0	511	621	
11	0	0	0	0	510	624	
12	0	0	0	0	510	624	
13	0	0	0	0	509	624	
14	0	0	0	0	510	626	
15	0	0	0	0	511	624	
0	0	0	0	0	511	624	
1	0	0	0	0	511	624	
2	0	0	0	0	512	622	
3	0	0	0	0	512	624	
4	0	0	0	0	512	623	
5	0	0	0	0	512	623	
6	0	0	0	0	512	624	
7	0	0	0	0	511	622	
8	0	0	0	0	511	621	
9	0	0	0	0	512	621	
10	0	0	0	0	513	619	
11	0	0	0	0	514	620	
12	0	0	0	0	515	620	
13	0	0	0	0	515	620	
14	0	0	0	0	516	621	
15	0	0	0	0	517	619	
0	0	0	0	0	518	618	
1	0	0	0	0	518	618	
2	0	0	0	0	519	615	
3	0	0	0	0	519	617	
4	0	0	0	0	519	617	
5	0	0	0	0	519	617	
6	0	0	0	0	519	619	
7	0	0	0	0	518	618	
8	0	0	0	0	518	618	
9	0	0	0	0	518	618	
10	0	0	0	0	517	616	
11	0	0	0	0	516	619	
12	0	0	0	0	516	619	
13	0	0	0	0	516	619	
14	0	0	0	0	517	622	
15	0	0	0	0	518	620	
0	0	0	0	0	519	620	
1	0	0	0	0	520	621	
2	0	0	0	0	520	619	
3	0	0	0	0	520	622	
4	0	0	0	0	519	622	
5	0	0	0	0	519	622	
6	0	0	0	0	518	624	
7	0	0	0	0	518	622	
8	0	0	0	0	517	623	
9	0	0	0	0	515	623	
10	0	0	0	0	515	620	
11	0	0	0	0	515	622	
12	0	0	0	0	516	623	
13	0	0	0	0	515	622	
14	0	0	0	0	516	624	
15	0	0	0	0	516	622	
0	0	0	0	0	516	622	
1	0	0	0	0	515	621	
2	0	0	0	0	515	619	
3	0	0	0	0	516	621	
4	0	0	0	0	516	621	
5	0	0	0	0	515	620	
6	0	0	0	0	515	622	
7	0	0	0	0	515	620	
8	0	0	0	0	516	620	
9	0	0	0	0	516	619	
10	0	0	0	0	516	618	
11	0	0	0	0	515	620	
12	0	0	0	0	515	619	
13	0	0	0	0	515	620	
14	0	0	0	0	514	622	
15	0	0	0	0	513	620	
0	0	0	0	0	513	621	
1	0	0	0	0	513	621	
2	0	0	0	0	514	620	
3	0	0	0	0	514	623	
4	0	0	0	0	513	623	
5	0	0	0	0	514	624	
6	0	0	0	0	514	625	
7	0	0	0	0	515	624	
8	0	0	0	0	515	624	
9	0	0	0	0	515	624	
10	0	0	0	0	515	622	
11	0	0	0	0	514	624	
12	0	0	0	0	514	624	
13	0	0	0	0	513	624	
14	0	0	0	0	512	626	
15	0	0	0	0	512	624	
0	0	0	0	0	512	624	
1	0	0	0	0	512	624	
2	0	0	0	0	512	622	
3	0	0	0	0	513	623	
4	0	0	0	0	514	623	
5	0	0	0	0	515	623	
6	0	0	0	0	515	624	
7	0	0	0	0	515	622	
8	0	0	0	0	515	621	
9	0	0	0	0	515	622	
10	0	0	0	0	515	620	
11	0	0	0	0	514	621	
12	0	0	0	0	514	622	
13	0	0	0	0	514	621	
14	0	0	0	0	513	623	
15	0	0	0	0	514	622	
0	0	0	0	0	513	621	
1	0	0	0	0	513	622	
2	0	0	0	0	515	620	
3	0	0	0	0	515	622	
4	0	0	0	0	515	622	
5	0	0	0	0	515	622	
6	0	0	0	0	515	624	
7	0	0	0	0	515	622	
8	0	0	0	0	515	622	
9	0	0	0	0	515	622	
10	0	0	0	0	515	620	
11	0	0	0	0	516	622	
12	0	0	0	0	516	622	
13	0	0	0	0	517	622	
14	0	0	0	0	516	624	
15	0	0	0	0	517	622	
0	0	0	0	0	517	621	
1	0	0	0	0	518	620	
2	0	0	0	0	518	619	
3	0	0	0	0	519	620	
4	0	0	0	0	519	620	
5	0	0	0	0	520	620	
6	0	0	0	0	520	622	
7	0	0	0	0	521	619	
8	0	0	0	0	521	619	
9	0	0	0	0	520	618	
10	0	0	0	0	520	617	
11	0	0	0	0	520	618	
12	0	0	0	0	521	618	
13	0	0	0	0	522	618	
14	0	0	0	0	522	620	
15	0	0	0	0	521	619	
0	0	0	0	0	522	619	
1	0	0	0	0	522	620	
2	0	0	0	0	522	617	
3	0	0	0	0	522	620	
4	0	0	0	0	521	620	
5	0	0	0	0	522	620	
6	0	0	0	0	522	622	
7	0	0	0	0	522	620	
8	0	0	0	0	522	621	
9	0	0	0	0	521	621	
10	0	0	0	0	521	619	
11	0	0	0	0	521	622	
12	0	0	0	0	521	622	
13	0	0	0	0	521	621	
14	0	0	0	0	522	624	
15	0	0	0	0	522	622	
0	0	0	0	0	522	622	
1	0	0	0	0	522	622	
2	0	0	0	0	521	620	
3	0	0	0	0	521	621	
4	0	0	0	0	521	621	
5	0	0	0	0	522	621	
6	0	0	0	0	523	623	
7	0	0	0	0	521	621	
8	0	0	0	0	521	622	
9	0	0	0	0	521	621	
10	0	0	0	0	521	619	
11	0	0	0	0	521	621	
12	0	0	0	0	521	621	
13	0	0	0	0	520	620	
14	0	0	0	0	520	622	
15	0	0	0	0	519	622	
0	0	0	0	0	519	622	
1	0	0	0	0	519	622	
2	0	0	0	0	519	620	
3	0	0	0	0	519	621	
4	0	0	0	0	519	621	
5	0	0	0	0	519	621	
6	0	0	0	0	519	623	
7	0	0	0	0	519	622	
8	0	0	0	0	519	622	
9	0	0	0	0	518	622	
10	0	0	0	0	518	620	
11	0	0	0	0	519	623	
12	0	0	0	0	519	623	
13	0	0	0	0	519	623	
14	0	0	0	0	519	625	
15	0	0	0	0	519	623	
0	0	0	0	0	520	623	
1	0	0	0	0	519	624	
2	0	0	0	0	519	622	
3	0	0	0	0	519	624	
4	0	0	0	0	519	624	
5	0	0	0	0	518	624	
6	0	0	0	0	518	625	
7	0	0	0	0	519	624	
8	0	0	0	0	519	624	
9	0	0	0	0	520	624	
10	0	0	0	0	520	621	
11	0	0	0	0	520	624	
12	0	0	0	0	519	624	
13	0	0	0	0	518	623	
14	0	0	0	0	518	625	
15	0	0	0	0	516	624	
0	0	0	0	0	515	624	
1	0	0	0	0	515	624	
2	0	0	0	0	515	623	
3	0	0	0	0	514	624	
4	0	0	0	0	514	624	
5	0	0	0	0	513	624	
6	0	0	0	0	513	626	
7	0	0	0	0	513	624	
8	0	0	0	0	513	625	
9	0	0	0	0	513	624	
10	0	0	0	0	514	622	
11	0	0	0	0	515	624	
12	0	0	0	0	515	624	
13	0	0	0	0	514	624	
14	0	0	0	0	513	625	
15	0	0	0	0	512	623	
0	0	0	0	0	512	622	
1	0	0	0	0	512	622	
2	0	0	0	0	512	619	
3	0	0	0	0	512	620	
4	0	0	0	0	512	621	
5	0	0	0	0	512	620	
6	0	0	0	0	512	622	
7	0	0	0	0	512	620	
8	0	0	0	0	511	620	
9	0	0	0	0	510	619	
10	0	0	0	0	509	617	
11	0	0	0	0	508	619	
12	0	0	0	0	507	619	
13	0	0	0	0	507	619	
14	0	0	0	0	507	621	
15	0	0	0	0	506	619	
0	0	0	0	0	507	619	
1	0	0	0	0	506	619	
2	0	0	0	0	506	617	
3	0	0	0	0	506	619	
4	0	0	0	0	507	619	
5	0	0	0	0	507	619	
6	0	0	0	0	508	620	
7	0	0	0	0	509	618	
8	0	0	0	0	509	619	
9	0	0	0	0	510	618	
10	0	0	0	0	510	616	
11	0	0	0	0	509	618	
12	0	0	0	0	510	618	
13	0	0	0	0	511	617	
14	0	0	0	0	511	619	
15	0	0	0	0	511	618	
0	0	0	0	0	512	618	
1	0	0	0	0	512	618	
2	0	0	0	0	511	617	
3	0	0	0	0	511	618	
4	0	0	0	0	511	618	
5	0	0	0	0	512	620	
6	0	0	0	0	513	622	
7	0	0	0	0	513	620	
8	0	0	0	0	514	622	
9	0	0	0	0	515	622	
10	0	0	0	0	516	621	
11	0	0	0	0	517	623	
12	0	0	0	0	518	624	
13	0	0	0	0	518	624	
14	0	0	0	0	519	627	
15	0	0	0	0	519	625	
0	0	0	0	0	521	626	
1	0	0	0	0	522	625	
2	0	0	0	0	524	624	
3	0	0	0	0	525	625	
4	0	0	0	0	525	625	
5	0	0	0	0	525	624	
6	0	0	0	0	525	626	
7	0	0	0	0	525	624	
8	0	0	0	0	525	623	
9	0	0	0	0	526	623	
10	0	0	0	0	526	620	
11	0	0	0	0	526	622	
12	0	0	0	0	526	621	
13	0	0	0	0	527	621	
14	0	0	0	0	528	622	
15	0	0	0	0	528	620	
0	0	0	0	0	529	619	
1	0	0	0	0	529	619	
2	0	0	0	0	529	617	
3	0	0	0	0	528	619	
4	0	0	0	0	528	619	
5	0	0	0	0	527	618	
6	0	0	0	0	526	620	
7	0	0	0	0	526	619	
8	0	0	0	0	525	619	
9	0	0	0	0	524	619	
10	0	0	0	0	524	617	
11	0	0	0	0	524	619	
12	0	0	0	0	524	619	
13	0	0	0	0	523	619	
14	0	0	0	0	521	621	
15	0	0	0	0	519	620	
0	0	0	0	0	519	620	
1	0	0	0	0	520	620	
2	0	0	0	0	520	618	
3	0	0	0	0	519	620	
4	0	0	0	0	519	621	
5	0	0	0	0	519	620	
6	0	0	0	0	519	623	
7	0	0	0	0	519	621	
8	0	0	0	0	519	621	
9	0	0	0	0	519	621	
10	0	0	0	0	519	619	
11	0	0	0	0	518	621	
12	0	0	0	0	518	621	
13	0	0	0	0	517	621	
14	0	0	0	0	517	622	
15	0	0	0	0	517	621	
0	0	0	0	0	517	621	
1	0	0	0	0	516	620	
2	0	0	0	0	516	619	
3	0	0	0	0	516	620	
4	0	0	0	0	515	620	
5	0	0	0	0	514	619	
6	0	0	0	0	514	621	
7	0	0	0	0	514	618	
8	0	0	0	0	514	619	
9	0	0	0	0	513	618	
10	0	0	0	0	513	615	
11	0	0	0	0	513	617	
12	0	0	0	0	514	618	
13	0	0	0	0	514	618	
14	0	0	0	0	514	619	
15	0	0	0	0	515	618	
0	0	0	0	0	515	618	
1	0	0	0	0	515	618	
2	0	0	0	0	514	617	
3	0	0	0	0	513	619	
4	0	0	0	0	513	619	
5	0	0	0	0	512	619	
6	0	0	0	0	511	621	
7	0	0	0	0	511	619	
8	0	0	0	0	511	619	
9	0	0	0	0	510	620	
10	0	0	0	0	510	618	
11	0	0	0	0	510	620	
12	0	0	0	0	512	620	
13	0	0	0	0	512	620	
14	0	0	0	0	513	622	
15	0	0	0	0	513	620	
0	0	0	0	0	513	620	
1	0	0	0	0	512	620	
2	0	0	0	0	512	619	
3	0	0	0	0	512	621	
4	0	0	0	0	513	620	
5	0	0	0	0	512	621	
6	0	0	0	0	512	623	
7	0	0	0	0	511	621	
8	0	0	0	0	510	620	
9	0	0	0	0	509	621	
10	0	0	0	0	509	618	
11	0	0	0	0	509	621	
12	0	0	0	0	508	621	
13	0	0	0	0	508	620	
14	0	0	0	0	508	622	
15	0	0	0	0	508	620	
0	0	0	0	0	508	620	
1	0	0	0	0	507	620	
2	0	0	0	0	508	618	
3	0	0	0	0	507	620	
4	0	0	0	0	506	620	
5	0	0	0	0	505	620	
6	0	0	0	0	502	622	
7	0	0	0	0	500	620	
8	0	0	0	0	497	620	
9	0	0	0	0	493	620	
10	0	0	0	0	488	619	
11	0	0	0	0	482	620	
12	0	0	0	0	474	621	
13	0	0	0	0	463	621	
14	0	0	0	0	453	623	
15	0	0	0	0	441	622	
0	0	0	0	0	430	622	
1	0	0	0	0	419	622	
2	0	0	0	0	409	620	
3	0	0	0	0	402	622	
4	0	0	0	0	396	622	
5	0	0	0	0	393	623	
6	0	0	0	0	389	624	
7	0	0	0	0	386	623	
8	0	0	0	0	384	624	
9	0	0	0	0	385	624	
10	0	0	0	0	388	622	
11	0	0	0	0	395	624	
12	0	0	0	0	405	624	
13	0	0	0	0	418	624	
14	0	0	0	0	433	626	
15	0	0	0	0	451	624	
0	0	0	0	0	472	625	
1	0	0	0	0	496	624	
2	0	0	0	0	526	623	
3	0	0	0	0	560	624	
4	0	0	0	0	597	624	
5	0	0	0	0	639	625	
6	0	0	0	0	684	627	
7	0	0	0	0	732	624	
8	0	0	0	0	781	624	
9	0	0	0	0	832	624	
10	0	0	0	0	883	623	
11	0	0	0	0	931	624	
12	0	0	0	0	976	624	
13	0	0	0	0	1018	625	
14	0	0	0	0	1022	626	
15	0	0	0	0	1022	625	
0	0	0	0	0	1022	625	
1	0	0	0	0	1022	625	
2	0	0	0	0	1022	623	
3	0	0	0	0	1022	625	
4	0	0	0	0	1022	624	
5	0	0	0	0	1022	625	
6	0	0	0	0	1022	627	
7	0	0	0	0	1022	625	
8	0	0	0	0	1022	625	
9	0	0	0	0	1022	626	
10	0	0	0	0	1022	623	
11	0	0	0	0	1022	625	
12	0	0	0	0	1022	624	
13	0	0	0	0	1022	624	
14	0	0	0	0	1022	627	
15	0	0	0	0	1021	624	
0	0	0	0	0	973	625	
1	0	0	0	0	919	624	
2	0	0	0	0	867	622	
3	0	0	0	0	818	624	
4	0	0	0	0	771	624	
5	0	0	0	0	727	624	
6	0	0	0	0	687	626	
7	0	0	0	0	652	624	
8	0	0	0	0	621	624	
9	0	0	0	0	595	624	
10	0	0	0	0	572	622	
11	0	0	0	0	551	623	
12	0	0	0	0	533	623	
13	0	0	0	0	516	623	
14	0	0	0	0	500	625	
15	0	0	0	0	485	623	
0	0	0	0	0	471	623	
1	0	0	0	0	458	622	
2	0	0	0	0	447	620	
3	0	0	0	0	435	622	
4	0	0	0	0	424	622	
5	0	0	0	0	413	621	
6	0	0	0	0	403	622	
7	0	0	0	0	393	620	
8	0	0	0	0	383	620	
9	0	0	0	0	375	619	
10	0	0	0	0	367	616	
11	0	0	0	0	359	619	
12	0	0	0	0	351	619	
13	0	0	0	0	345	618	
14	0	0	0	0	340	620	
15	0	0	0	0	336	617	
0	0	0	0	0	332	617	
1	0	0	0	0	329	616	
2	0	0	0	0	327	614	
3	0	0	0	0	326	616	
4	0	0	0	0	325	616	
5	0	0	0	0	323	615	
6	0	0	0	0	322	617	
7	0	0	0	0	322	615	
8	0	0	0	0	322	614	
9	0	0	0	0	323	615	
10	0	0	0	0	323	614	
11	0	0	0	0	323	615	
12	0	0	0	0	323	615	
13	0	0	0	0	324	615	
14	0	0	0	0	325	616	
15	0	0	0	0	326	614	
0	0	0	0	0	327	615	
1	0	0	0	0	327	615	
2	0	0	0	0	327	613	
3	0	0	0	0	328	615	
4	0	0	0	0	328	615	
5	0	0	0	0	329	615	
6	0	0	0	0	330	617	
7	0	0	0	0	332	616	
8	0	0	0	0	332	616	
9	0	0	0	0	334	616	
10	0	0	0	0	335	615	
11	0	0	0	0	337	618	
12	0	0	0	0	339	618	
13	0	0	0	0	341	618	
14	0	0	0	0	343	620	
15	0	0	0	0	344	619	
0	0	0	0	0	346	620	
1	0	0	0	0	347	620	
2	0	0	0	0	349	619	
3	0	0	0	0	350	621	
4	0	0	0	0	352	622	
5	0	0	0	0	353	622	
6	0	0	0	0	354	624	
7	0	0	0	0	355	623	
8	0	0	0	0	355	623	
9	0	0	0	0	355	623	
10	0	0	0	0	356	621	
11	0	0	0	0	356	624	
12	0	0	0	0	357	624	
13	0	0	0	0	359	624	
14	0	0	0	0	361	626	
15	0	0	0	0	363	624	
0	0	0	0	0	365	624	
1	0	0	0	0	367	624	
2	0	0	0	0	368	622	
3	0	0	0	0	369	624	
4	0	0	0	0	370	623	
5	0	0	0	0	371	623	
6	0	0	0	0	372	624	
7	0	0	0	0	372	622	
8	0	0	0	0	373	623	
9	0	0	0	0	375	622	
10	0	0	0	0	376	620	
11	0	0	0	0	377	622	
12	0	0	0	0	378	623	
13	0	0	0	0	379	623	
14	0	0	0	0	380	624	
15	0	0	0	0	381	622	
0	0	0	0	0	382	623	
1	0	0	0	0	382	623	
2	0	0	0	0	383	621	
3	0	0	0	0	384	624	
4	0	0	0	0	384	624	
5	0	0	0	0	384	624	
6	0	0	0	0	385	626	
7	0	0	0	0	386	624	
8	0	0	0	0	388	624	
9	0	0	0	0	388	624	
10	0	0	0	0	390	622	
11	0	0	0	0	390	624	
12	0	0	0	0	391	624	
13	0	0	0	0	392	624	
14	0	0	0	0	393	625	
15	0	0	0	0	394	624	
0	0	0	0	0	395	624	
1	0	0	0	0	396	623	
2	0	0	0	0	397	621	
3	0	0	0	0	399	623	
4	0	0	0	0	399	622	
5	0	0	0	0	399	621	
6	0	0	0	0	399	623	
7	0	0	0	0	399	622	
8	0	0	0	0	400	622	
9	0	0	0	0	401	622	
10	0	0	0	0	403	620	
11	0	0	0	0	404	621	
12	0	0	0	0	406	621	
13	0	0	0	0	406	622	
14	0	0	0	0	408	624	
15	0	0	0	0	408	622	
0	0	0	0	0	408	622	
1	0	0	0	0	409	622	
2	0	0	0	0	409	620	
3	0	0	0	0	409	621	
4	0	0	0	0	411	622	
5	0	0	0	0	411	622	
6	0	0	0	0	412	623	
7	0	0	0	0	413	622	
8	0	0	0	0	414	622	
9	0	0	0	0	414	622	
10	0	0	0	0	415	620	
11	0	0	0	0	417	621	
12	0	0	0	0	418	621	
13	0	0	0	0	419	621	
14	0	0	0	0	420	622	
15	0	0	0	0	421	620	
0	0	0	0	0	423	621	
1	0	0	0	0	424	621	
2	0	0	0	0	427	620	
3	0	0	0	0	428	622	
4	0	0	0	0	429	622	
5	0	0	0	0	430	622	
6	0	0	0	0	432	624	
7	0	0	0	0	433	622	
8	0	0	0	0	435	622	
9	0	0	0	0	435	622	
10	0	0	0	0	437	620	
11	0	0	0	0	439	622	
12	0	0	0	0	441	622	
13	0	0	0	0	442	622	
14	0	0	0	0	444	623	
15	0	0	0	0	446	622	
0	0	0	0	0	448	622	
1	0	0	0	0	450	622	
2	0	0	0	0	452	619	
3	0	0	0	0	454	621	
4	0	0	0	0	456	621	
5	0	0	0	0	457	621	
6	0	0	0	0	459	622	
7	0	0	0	0	460	620	
8	0	0	0	0	461	621	
9	0	0	0	0	463	621	
10	0	0	0	0	464	620	
11	0	0	0	0	465	621	
12	0	0	0	0	466	621	
13	0	0	0	0	467	621	
14	0	0	0	0	469	623	
15	0	0	0	0	470	621	
0	0	0	0	0	471	621	
1	0	0	0	0	471	621	
2	0	0	0	0	472	619	
3	0	0	0	0	473	621	
4	0	0	0	0	474	621	
5	0	0	0	0	476	621	
6	0	0	0	0	477	624	
7	0	0	0	0	478	622	
8	0	0	0	0	479	622	
9	0	0	0	0	480	622	
10	0	0	0	0	481	620	
11	0	0	0	0	481	622	
12	0	0	0	0	482	622	
13	0	0	0	0	483	623	
14	0	0	0	0	483	625	
15	0	0	0	0	483	623	
0	0	0	0	0	484	624	
1	0	0	0	0	485	625	
2	0	0	0	0	486	623	
3	0	0	0	0	487	624	
4	0	0	0	0	487	624	
5	0	0	0	0	487	624	
6	0	0	0	0	487	625	
7	0	0	0	0	487	624	
8	0	0	0	0	488	623	
9	0	0	0	0	489	623	
10	0	0	0	0	491	621	
11	0	0	0	0	492	623	
12	0	0	0	0	493	622	
13	0	0	0	0	494	621	
14	0	0	0	0	495	623	
15	0	0	0	0	495	622	
0	0	0	0	0	495	620	
1	0	0	0	0	496	621	
2	0	0	0	0	497	618	
3	0	0	0	0	497	620	
4	0	0	0	0	498	620	
5	0	0	0	0	498	620	
6	0	0	0	0	498	622	
7	0	0	0	0	499	620	
8	0	0	0	0	500	619	
9	0	0	0	0	500	619	
10	0	0	0	0	499	617	
11	0	0	0	0	499	619	
12	0	0	0	0	500	620	
13	0	0	0	0	500	620	
14	0	0	0	0	501	623	
15	0	0	0	0	501	620	
0	0	0	0	0	502	621	
1	0	0	0	0	503	621	
2	0	0	0	0	504	620	
3	0	0	0	0	503	622	
4	0	0	0	0	504	623	
5	0	0	0	0	504	623	
6	0	0	0	0	505	625	
7	0	0	0	0	505	623	
8	0	0	0	0	506	624	
9	0	0	0	0	507	624	
10	0	0	0	0	509	622	
11	0	0	0	0	509	624	
12	0	0	0	0	509	624	
13	0	0	0	0	509	624	
14	0	0	0	0	509	626	
15	0	0	0	0	509	624	
0	0	0	0	0	509	623	
1	0	0	0	0	509	623	
2	0	0	0	0	510	621	
3	0	0	0	0	510	622	
4	0	0	0	0	510	622	
5	0	0	0	0	511	622	
6	0	0	0	0	512	623	
7	0	0	0	0	512	621	
8	0	0	0	0	512	621	
9	0	0	0	0	511	620	
10	0	0	0	0	511	617	
11	0	0	0	0	512	620	
12	0	0	0	0	512	619	
13	0	0	0	0	514	619	
14	0	0	0	0	515	620	
15	0	0	0	0	515	618	
0	0	0	0	0	515	617	
1	0	0	0	0	515	619	
2	0	0	0	0	516	617	
3	0	0	0	0	516	619	
4	0	0	0	0	517	618	
5	0	0	0	0	517	619	
6	0	0	0	0	517	620	
7	0	0	0	0	517	619	
8	0	0	0	0	518	619	
9	0	0	0	0	518	620	
10	0	0	0	0	518	617	
11	0	0	0	0	518	620	
12	0	0	0	0	519	621	
13	0	0	0	0	519	621	
14	0	0	0	0	519	623	
15	0	0	0	0	519	621	
0	0	0	0	0	518	622	
1	0	0	0	0	519	622	
2	0	0	0	0	519	620	
3	0	0	0	0	520	622	
4	0	0	0	0	520	623	
5	0	0	0	0	520	623	
6	0	0	0	0	520	625	
7	0	0	0	0	521	623	
8	0	0	0	0	522	623	
9	0	0	0	0	523	623	
10	0	0	0	0	524	621	
11	0	0	0	0	524	623	
12	0	0	0	0	525	623	
13	0	0	0	0	526	622	
14	0	0	0	0	525	623	
15	0	0	0	0	525	622	
0	0	0	0	0	525	622	
1	0	0	0	0	524	620	
2	0	0	0	0	524	618	
3	0	0	0	0	523	620	
4	0	0	0	0	522	620	
5	0	0	0	0	522	619	
6	0	0	0	0	521	621	
7	0	0	0	0	521	619	
8	0	0	0	0	521	619	
9	0	0	0	0	522	619	
10	0	0	0	0	521	617	
11	0	0	0	0	521	618	
12	0	0	0	0	520	619	
13	0	0	0	0	520	618	
14	0	0	0	0	519	620	
15	0	0	0	0	520	618	
0	0	0	0	0	519	618	
1	0	0	0	0	519	618	
2	0	0	0	0	519	616	
3	0	0	0	0	519	619	
4	0	0	0	0	519	619	
5	0	0	0	0	519	619	
6	0	0	0	0	519	620	
7	0	0	0	0	519	619	
8	0	0	0	0	519	619	
9	0	0	0	0	519	619	
10	0	0	0	0	519	616	
11	0	0	0	0	519	619	
12	0	0	0	0	520	619	
13	0	0	0	0	520	619	
14	0	0	0	0	519	622	
15	0	0	0	0	520	619	
0	0	0	0	0	519	620	
1	0	0	0	0	520	620	
2	0	0	0	0	520	619	
3	0	0	0	0	519	620	
4	0	0	0	0	520	621	
5	0	0	0	0	519	622	
6	0	0	0	0	518	624	
7	0	0	0	0	518	623	
8	0	0	0	0	518	623	
9	0	0	0	0	518	624	
10	0	0	0	0	517	622	
11	0	0	0	0	516	624	
12	0	0	0	0	517	625	
13	0	0	0	0	517	625	
14	0	0	0	0	517	627	
15	0	0	0	0	516	625	
0	0	0	0	0	517	625	
1	0	0	0	0	517	625	
2	0	0	0	0	517	624	
3	0	0	0	0	517	625	
4	0	0	0	0	517	624	
5	0	0	0	0	516	624	
6	0	0	0	0	516	626	
7	0	0	0	0	516	624	
8	0	0	0	0	517	624	
9	0	0	0	0	517	623	
10	0	0	0	0	517	620	
11	0	0	0	0	518	621	
12	0	0	0	0	518	621	
13	0	0	0	0	517	620	
14	0	0	0	0	518	622	
15	0	0	0	0	518	620	
0	0	0	0	0	518	620	
1	0	0	0	0	518	620	
2	0	0	0	0	518	618	
3	0	0	0	0	519	620	
4	0	0	0	0	519	620	
5	0	0	0	0	519	620	
6	0	0	0	0	519	623	
7	0	0	0	0	519	622	
8	0	0	0	0	518	623	
9	0	0	0	0	518	622	
10	0	0	0	0	519	621	
11	0	0	0	0	519	623	
12	0	0	0	0	518	623	
13	0	0	0	0	518	623	
14	0	0	0	0	518	624	
15	0	0	0	0	519	623	
0	0	0	0	0	518	623	
1	0	0	0	0	518	623	
2	0	0	0	0	517	621	
3	0	0	0	0	518	622	
4	0	0	0	0	518	622	
5	0	0	0	0	518	622	
6	0	0	0	0	518	623	
7	0	0	0	0	518	622	
8	0	0	0	0	518	620	
9	0	0	0	0	518	621	
10	0	0	0	0	518	619	
11	0	0	0	0	519	621	
12	0	0	0	0	519	620	
13	0	0	0	0	518	619	
14	0	0	0	0	518	622	
15	0	0	0	0	518	620	
0	0	0	0	0	517	620	
1	0	0	0	0	517	620	
2	0	0	0	0	517	617	
3	0	0	0	0	518	619	
4	0	0	0	0	518	619	
5	0	0	0	0	519	620	
6	0	0	0	0	519	621	
7	0	0	0	0	519	619	
8	0	0	0	0	520	619	
9	0	0	0	0	519	619	
10	0	0	0	0	520	618	
11	0	0	0	0	520	620	
12	0	0	0	0	520	619	
13	0	0	0	0	521	619	
14	0	0	0	0	520	620	
15	0	0	0	0	521	619	
0	0	0	0	0	521	619	
1	0	0	0	0	521	619	
2	0	0	0	0	521	617	
3	0	0	0	0	522	619	
4	0	0	0	0	522	620	
5	0	0	0	0	523	620	
6	0	0	0	0	522	622	
7	0	0	0	0	522	621	
8	0	0	0	0	521	621	
9	0	0	0	0	521	622	
10	0	0	0	0	520	621	
11	0	0	0	0	520	623	
12	0	0	0	0	520	624	
13	0	0	0	0	520	624	
14	0	0	0	0	521	625	
15	0	0	0	0	522	625	
0	0	0	0	0	521	625	
1	0	0	0	0	521	625	
2	0	0	0	0	521	624	
3	0	0	0	0	521	625	
4	0	0	0	0	520	625	
5	0	0	0	0	519	625	
6	0	0	0	0	519	627	
7	0	0	0	0	519	625	
8	0	0	0	0	520	624	
9	0	0	0	0	520	624	
10	0	0	0	0	520	621	
11	0	0	0	0	519	623	
12	0	0	0	0	519	623	
13	0	0	0	0	519	622	
14	0	0	0	0	519	623	
15	0	0	0	0	519	622	
0	0	0	0	0	519	621	
1	0	0	0	0	519	620	
2	0	0	0	0	519	618	
3	0	0	0	0	518	620	
4	0	0	0	0	518	619	
5	0	0	0	0	517	619	
6	0	0	0	0	516	621	
7	0	0	0	0	515	620	
8	0	0	0	0	515	620	
9	0	0	0	0	515	620	
10	0	0	0	0	516	617	
11	0	0	0	0	518	620	
12	0	0	0	0	518	619	
13	0	0	0	0	518	620	
14	0	0	0	0	519	621	
15	0	0	0	0	519	620	
0	0	0	0	0	519	620	
1	0	0	0	0	519	620	
2	0	0	0	0	519	619	
3	0	0	0	0	519	621	
4	0	0	0	0	518	622	
5	0	0	0	0	518	622	
6	0	0	0	0	518	624	
7	0	0	0	0	519	622	
8	0	0	0	0	519	623	
9	0	0	0	0	519	624	
10	0	0	0	0	518	622	
11	0	0	0	0	518	625	
12	0	0	0	0	518	624	
13	0	0	0	0	518	625	
14	0	0	0	0	518	627	
15	0	0	0	0	518	625	
0	0	0	0	0	517	625	
1	0	0	0	0	517	625	
2	0	0	0	0	516	623	
3	0	0	0	0	516	625	
4	0	0	0	0	516	625	
5	0	0	0	0	516	625	
6	0	0	0	0	515	626	
7	0	0	0	0	515	624	
8	0	0	0	0	515	623	
9	0	0	0	0	515	623	
10	0	0	0	0	515	620	
11	0	0	0	0	515	622	
12	0	0	0	0	515	621	
13	0	0	0	0	514	620	
14	0	0	0	0	515	622	
15	0	0	0	0	514	620	
0	0	0	0	0	513	620	
1	0	0	0	0	512	619	
2	0	0	0	0	512	616	
3	0	0	0	0	512	619	
4	0	0	0	0	512	618	
5	0	0	0	0	512	619	
6	0	0	0	0	512	620	
7	0	0	0	0	512	618	
8	0	0	0	0	512	618	
9	0	0	0	0	512	617	
10	0	0	0	0	512	615	
11	0	0	0	0	512	617	
12	0	0	0	0	512	617	
13	0	0	0	0	512	618	
14	0	0	0	0	512	619	
15	0	0	0	0	512	618	
0	0	0	0	0	512	618	
1	0	0	0	0	512	618	
2	0	0	0	0	512	615	
3	0	0	0	0	512	618	
4	0	0	0	0	512	619	
5	0	0	0	0	511	619	
6	0	0	0	0	511	620	
7	0	0	0	0	511	620	
8	0	0	0	0	510	620	
9	0	0	0	0	510	621	
10	0	0	0	0	510	620	
11	0	0	0	0	510	623	
12	0	0	0	0	509	623	
13	0	0	0	0	510	623	
14	0	0	0	0	509	626	
15	0	0	0	0	509	625	
0	0	0	0	0	509	626	
1	0	0	0	0	509	626	
2	0	0	0	0	509	625	
3	0	0	0	0	509	626	
4	0	0	0	0	509	626	
5	0	0	0	0	509	626	
6	0	0	0	0	509	628	
7	0	0	0	0	510	626	
8	0	0	0	0	510	625	
9	0	0	0	0	510	624	
10	0	0	0	0	510	622	
11	0	0	0	0	511	623	
12	0	0	0	0	511	623	
13	0	0	0	0	512	622	
14	0	0	0	0	512	623	
15	0	0	0	0	511	620	
0	0	0	0	0	511	620	
1	0	0	0	0	511	620	
2	0	0	0	0	511	617	
3	0	0	0	0	511	619	
4	0	0	0	0	511	618	
5	0	0	0	0	512	618	
6	0	0	0	0	512	620	
7	0	0	0	0	512	619	
8	0	0	0	0	513	618	
9	0	0	0	0	514	619	
10	0	0	0	0	514	617	
11	0	0	0	0	514	619	
12	0	0	0	0	515	620	
13	0	0	0	0	515	621	
14	0	0	0	0	517	623	
15	0	0	0	0	518	621	
0	0	0	0	0	519	621	
1	0	0	0	0	520	622	
2	0	0	0	0	520	621	
3	0	0	0	0	521	624	
4	0	0	0	0	523	624	
5	0	0	0	0	524	624	
6	0	0	0	0	524	626	
7	0	0	0	0	524	624	
8	0	0	0	0	524	624	
9	0	0	0	0	524	623	
10	0	0	0	0	526	622	
11	0	0	0	0	526	623	
12	0	0	0	0	527	623	
13	0	0	0	0	527	622	
14	0	0	0	0	527	624	
15	0	0	0	0	527	622	
0	0	0	0	0	527	621	
1	0	0	0	0	528	621	
2	0	0	0	0	528	618	
3	0	0	0	0	528	619	
4	0	0	0	0	527	619	
5	0	0	0	0	527	619	
6	0	0	0	0	526	620	
7	0	0	0	0	525	618	
8	0	0	0	0	524	618	
9	0	0	0	0	523	617	
10	0	0	0	0	522	616	
11	0	0	0	0	521	617	
12	0	0	0	0	521	617	
13	0	0	0	0	520	617	
14	0	0	0	0	520	619	
15	0	0	0	0	519	617	
0	0	0	0	0	519	616	
1	0	0	0	0	519	617	
2	0	0	0	0	520	615	
3	0	0	0	0	520	617	
4	0	0	0	0	520	617	
5	0	0	0	0	520	618	
6	0	0	0	0	519	620	
7	0	0	0	0	519	618	
8	0	0	0	0	517	618	
9	0	0	0	0	516	619	
10	0	0	0	0	516	617	
11	0	0	0	0	516	618	
12	0	0	0	0	516	619	
13	0	0	0	0	515	620	
14	0	0	0	0	516	622	
15	0	0	0	0	516	621	
0	0	0	0	0	515	621	
1	0	0	0	0	515	621	
2	0	0	0	0	514	620	
3	0	0	0	0	513	622	
4	0	0	0	0	513	623	
5	0	0	0	0	513	622	
6	0	0	0	0	513	625	
7	0	0	0	0	512	623	
8	0	0	0	0	512	623	
9	0	0	0	0	511	623	
10	0	0	0	0	511	622	
11	0	0	0	0	511	623	
12	0	0	0	0	511	624	
13	0	0	0	0	511	623	
14	0	0	0	0	511	624	
15	0	0	0	0	511	623	
0	0	0	0	0	511	622	
1	0	0	0	0	511	622	
2	0	0	0	0	510	619	
3	0	0	0	0	510	622	
4	0	0	0	0	510	621	
5	0	0	0	0	509	621	
6	0	0	0	0	509	622	
7	0	0	0	0	509	620	
8	0	0	0	0	508	620	
9	0	0	0	0	508	619	
10	0	0	0	0	508	618	
11	0	0	0	0	508	619	
12	0	0	0	0	508	620	
13	0	0	0	0	509	619	
14	0	0	0	0	509	621	
15	0	0	0	0	509	619	
0	0	0	0	0	509	620	
1	0	0	0	0	509	620	
2	0	0	0	0	508	617	
3	0	0	0	0	508	620	
4	0	0	0	0	507	621	
5	0	0	0	0	507	621	
6	0	0	0	0	506	624	
7	0	0	0	0	506	623	
8	0	0	0	0	506	622	
9	0	0	0	0	506	623	
10	0	0	0	0	506	622	
11	0	0	0	0	506	624	
12	0	0	0	0	506	624	
13	0	0	0	0	506	625	
14	0	0	0	0	506	627	
15	0	0	0	0	506	625	
0	0	0	0	0	507	625	
1	0	0	0	0	506	624	
2	0	0	0	0	506	623	
3	0	0	0	0	505	624	
4	0	0	0	0	504	624	
5	0	0	0	0	503	624	
6	0	0	0	0	501	625	
7	0	0	0	0	499	624	
8	0	0	0	0	496	623	
9	0	0	0	0	492	623	
10	0	0	0	0	486	620	
11	0	0	0	0	478	622	
12	0	0	0	0	468	622	
13	0	0	0	0	458	621	
14	0	0	0	0	447	623	
15	0	0	0	0	435	621	
0	0	0	0	0	423	622	
1	0	0	0	0	412	622	
2	0	0	0	0	403	620	
3	0	0	0	0	396	622	
4	0	0	0	0	391	622	
5	0	0	0	0	388	623	
6	0	0	0	0	384	624	
7	0	0	0	0	381	623	
8	0	0	0	0	380	623	
9	0	0	0	0	381	623	
10	0	0	0	0	385	622	
11	0	0	0	0	392	624	
12	0	0	0	0	404	624	
13	0	0	0	0	417	623	
14	0	0	0	0	434	625	
15	0	0	0	0	453	623	
0	0	0	0	0	475	623	
1	0	0	0	0	502	623	
2	0	0	0	0	533	621	
3	0	0	0	0	569	623	
4	0	0	0	0	610	623	
5	0	0	0	0	653	622	
6	0	0	0	0	700	624	
7	0	0	0	0	750	622	
8	0	0	0	0	801	622	
9	0	0	0	0	853	621	
10	0	0	0	0	904	619	
11	0	0	0	0	953	620	
12	0	0	0	0	999	620	
13	0	0	0	0	1022	620	
14	0	0	0	0	1022	621	
15	0	0	0	0	1022	620	
0	0	0	0	0	1022	619	
1	0	0	0	0	1022	619	
2	0	0	0	0	1022	616	
3	0	0	0	0	1022	619	
4	0	0	0	0	1022	618	
5	0	0	0	0	1022	617	
6	0	0	0	0	1022	620	
7	0	0	0	0	1022	618	
8	0	0	0	0	1022	617	
9	0	0	0	0	1022	617	
10	0	0	0	0	1022	615	
11	0	0	0	0	1022	617	
12	0	0	0	0	1022	617	
13	0	0	0	0	1022	617	
14	0	0	0	0	1022	619	
15	0	0	0	0	990	618	
0	0	0	0	0	935	618	
1	0	0	0	0	881	618	
2	0	0	0	0	830	617	
3	0	0	0	0	783	620	
4	0	0	0	0	737	620	
5	0	0	0	0	695	620	
6	0	0	0	0	658	622	
7	0	0	0	0	627	621	
8	0	0	0	0	601	621	
9	0	0	0	0	577	622	
10	0	0	0	0	557	620	
11	0	0	0	0	539	622	
12	0	0	0	0	523	623	
13	0	0	0	0	508	623	
14	0	0	0	0	493	625	
15	0	0	0	0	480	624	
0	0	0	0	0	467	623	
1	0	0	0	0	455	624	
2	0	0	0	0	443	622	
3	0	0	0	0	432	624	
4	0	0	0	0	421	624	
5	0	0	0	0	410	624	
6	0	0	0	0	400	624	
7	0	0	0	0	390	623	
8	0	0	0	0	381	623	
9	0	0	0	0	372	622	
10	0	0	0	0	365	619	
11	0	0	0	0	358	621	
12	0	0	0	0	351	621	
13	0	0	0	0	345	620	
14	0	0	0	0	341	622	
15	0	0	0	0	338	620	
0	0	0	0	0	334	619	
1	0	0	0	0	332	619	
2	0	0	0	0	331	617	
3	0	0	0	0	328	619	
4	0	0	0	0	327	619	
5	0	0	0	0	327	618	
6	0	0	0	0	325	620	
7	0	0	0	0	325	619	
8	0	0	0	0	324	620	
9	0	0	0	0	324	620	
10	0	0	0	0	323	619	
11	0	0	0	0	324	622	
12	0	0	0	0	324	622	
13	0	0	0	0	325	623	
14	0	0	0	0	326	625	
15	0	0	0	0	327	624	
0	0	0	0	0	327	625	
1	0	0	0	0	327	626	
2	0	0	0	0	328	625	
3	0	0	0	0	330	627	
4	0	0	0	0	331	628	
5	0	0	0	0	332	628	
6	0	0	0	0	333	629	
7	0	0	0	0	334	627	
8	0	0	0	0	336	627	
9	0	0	0	0	337	627	
10	0	0	0	0	339	625	
11	0	0	0	0	341	627	
12	0	0	0	0	343	626	
13	0	0	0	0	344	626	
14	0	0	0	0	345	627	
15	0	0	0	0	347	624	
0	0	0	0	0	348	624	
1	0	0	0	0	348	623	
2	0	0	0	0	350	620	
3	0	0	0	0	351	622	
4	0	0	0	0	352	621	
5	0	0	0	0	354	621	
6	0	0	0	0	354	623	
7	0	0	0	0	355	620	
8	0	0	0	0	356	621	
9	0	0	0	0	358	620	
10	0	0	0	0	360	619	
11	0	0	0	0	361	620	
12	0	0	0	0	363	620	
13	0	0	0	0	364	620	
14	0	0	0	0	366	622	
15	0	0	0	0	368	620	
0	0	0	0	0	370	620	
1	0	0	0	0	371	620	
2	0	0	0	0	372	618	
3	0	0	0	0	374	620	
4	0	0	0	0	375	620	
5	0	0	0	0	376	620	
6	0	0	0	0	376	621	
7	0	0	0	0	377	619	
8	0	0	0	0	378	620	
9	0	0	0	0	379	620	
10	0	0	0	0	379	618	
11	0	0	0	0	380	620	
12	0	0	0	0	381	620	
13	0	0	0	0	382	620	
14	0	0	0	0	383	623	
15	0	0	0	0	385	623	
0	0	0	0	0	386	622	
1	0	0	0	0	386	623	
2	0	0	0	0	387	622	
3	0	0	0	0	388	624	
4	0	0	0	0	390	624	
5	0	0	0	0	391	625	
6	0	0	0	0	392	627	
7	0	0	0	0	393	625	
8	0	0	0	0	394	626	
9	0	0	0	0	395	626	
10	0	0	0	0	396	624	
11	0	0	0	0	396	626	
12	0	0	0	0	396	625	
13	0	0	0	0	397	625	
14	0	0	0	0	398	627	
15	0	0	0	0	399	624	
0	0	0	0	0	400	624	
1	0	0	0	0	401	623	
2	0	0	0	0	402	622	
3	0	0	0	0	401	622	
4	0	0	0	0	403	622	
5	0	0	0	0	403	621	
6	0	0	0	0	404	623	
7	0	0	0	0	404	620	
8	0	0	0	0	404	620	
9	0	0	0	0	406	620	
10	0	0	0	0	406	618	
11	0	0	0	0	406	619	
12	0	0	0	0	407	620	
13	0	0	0	0	408	619	
14	0	0	0	0	408	620	
15	0	0	0	0	408	619	
0	0	0	0	0	409	619	
1	0	0	0	0	410	619	
2	0	0	0	0	411	617	
3	0	0	0	0	412	619	
4	0	0	0	0	414	619	
5	0	0	0	0	415	620	
6	0	0	0	0	416	622	
7	0	0	0	0	417	620	
8	0	0	0	0	419	620	
9	0	0	0	0	421	619	
10	0	0	0	0	422	617	
11	0	0	0	0	423	620	
12	0	0	0	0	423	621	
13	0	0	0	0	424	620	
14	0	0	0	0	425	623	
15	0	0	0	0	427	620	
0	0	0	0	0	427	621	
1	0	0	0	0	429	621	
2	0	0	0	0	430	619	
3	0	0	0	0	431	621	
4	0	0	0	0	432	620	
5	0	0	0	0	434	620	
6	0	0	0	0	436	621	
7	0	0	0	0	438	620	
8	0	0	0	0	440	619	
9	0	0	0	0	443	619	
10	0	0	0	0	445	617	
11	0	0	0	0	446	619	
12	0	0	0	0	448	619	
13	0	0	0	0	450	618	
14	0	0	0	0	452	621	
15	0	0	0	0	454	619	
0	0	0	0	0	455	619	
1	0	0	0	0	457	619	
2	0	0	0	0	459	616	
3	0	0	0	0	462	618	
4	0	0	0	0	465	619	
5	0	0	0	0	466	618	
6	0	0	0	0	467	621	
7	0	0	0	0	468	619	
8	0	0	0	0	470	619	
9	0	0	0	0	472	619	
10	0	0	0	0	473	617	
11	0	0	0	0	475	619	
12	0	0	0	0	475	620	
13	0	0	0	0	476	620	
14	0	0	0	0	477	622	
15	0	0	0	0	478	620	
0	0	0	0	0	479	620	
1	0	0	0	0	480	621	
2	0	0	0	0	481	620	
3	0	0	0	0	482	623	
4	0	0	0	0	483	623	
5	0	0	0	0	484	623	
6	0	0	0	0	485	625	
7	0	0	0	0	487	624	
8	0	0	0	0	488	624	
9	0	0	0	0	489	624	
10	0	0	0	0	490	622	
11	0	0	0	0	491	624	
12	0	0	0	0	491	623	
13	0	0	0	0	491	623	
14	0	0	0	0	492	625	
15	0	0	0	0	492	624	
0	0	0	0	0	493	624	
1	0	0	0	0	493	624	
2	0	0	0	0	494	621	
3	0	0	0	0	496	623	
4	0	0	0	0	497	623	
5	0	0	0	0	497	623	
6	0	0	0	0	497	624	
7	0	0	0	0	498	623	
8	0	0	0	0	499	623	
9	0	0	0	0	500	623	
10	0	0	0	0	501	622	
11	0	0	0	0	501	623	
12	0	0	0	0	501	624	
13	0	0	0	0	500	623	
14	0	0	0	0	500	625	
15	0	0	0	0	500	623	
0	0	0	0	0	500	624	
1	0	0	0	0	499	623	
2	0	0	0	0	499	622	
3	0	0	0	0	499	623	
4	0	0	0	0	498	623	
5	0	0	0	0	498	623	
6	0	0	0	0	497	625	
7	0	0	0	0	498	624	
8	0	0	0	0	498	623	
9	0	0	0	0	499	623	
10	0	0	0	0	499	622	
11	0	0	0	0	500	623	
12	0	0	0	0	500	623	
13	0	0	0	0	500	623	
14	0	0	0	0	499	624	
15	0	0	0	0	499	623	
0	0	0	0	0	499	623	
1	0	0	0	0	500	623	
2	0	0	0	0	500	621	
3	0	0	0	0	499	623	
4	0	0	0	0	498	623	
5	0	0	0	0	498	623	
6	0	0	0	0	498	626	
7	0	0	0	0	498	624	
8	0	0	0	0	498	624	
9	0	0	0	0	498	624	
10	0	0	0	0	499	622	
11	0	0	0	0	499	623	
12	0	0	0	0	499	623	
13	0	0	0	0	499	623	
14	0	0	0	0	499	624	
15	0	0	0	0	499	623	
0	0	0	0	0	500	622	
1	0	0	0	0	501	622	
2	0	0	0	0	503	620	
3	0	0	0	0	503	622	
4	0	0	0	0	504	621	
5	0	0	0	0	505	621	
6	0	0	0	0	505	623	
7	0	0	0	0	505	621	
8	0	0	0	0	505	620	
9	0	0	0	0	505	620	
10	0	0	0	0	506	618	
11	0	0	0	0	507	619	
12	0	0	0	0	508	619	
13	0	0	0	0	508	619	
14	0	0	0	0	509	621	
15	0	0	0	0	509	619	
0	0	0	0	0	509	619	
1	0	0	0	0	510	619	
2	0	0	0	0	510	616	
3	0	0	0	0	510	618	
4	0	0	0	0	511	618	
5	0	0	0	0	510	617	
6	0	0	0	0	510	619	
7	0	0	0	0	510	618	
8	0	0	0	0	511	617	
9	0	0	0	0	510	618	
10	0	0	0	0	510	615	
11	0	0	0	0	510	618	
12	0	0	0	0	510	619	
13	0	0	0	0	511	619	
14	0	0	0	0	512	621	
15	0	0	0	0	512	619	
0	0	0	0	0	513	620	
1	0	0	0	0	515	620	
2	0	0	0	0	515	619	
3	0	0	0	0	515	620	
4	0	0	0	0	515	620	
5	0	0	0	0	516	621	
6	0	0	0	0	516	622	
7	0	0	0	0	515	621	
8	0	0	0	0	516	621	
9	0	0	0	0	516	622	
10	0	0	0	0	517	619	
11	0	0	0	0	517	621	
12	0	0	0	0	518	622	
13	0	0	0	0	518	622	
14	0	0	0	0	518	623	
15	0	0	0	0	519	621	
0	0	0	0	0	520	621	
1	0	0	0	0	521	621	
2	0	0	0	0	521	619	
3	0	0	0	0	521	621	
4	0	0	0	0	520	621	
5	0	0	0	0	520	620	
6	0	0	0	0	519	621	
7	0	0	0	0	518	619	
8	0	0	0	0	517	620	
9	0	0	0	0	517	620	
10	0	0	0	0	517	618	
11	0	0	0	0	517	619	
12	0	0	0	0	516	619	
13	0	0	0	0	516	620	
14	0	0	0	0	515	622	
15	0	0	0	0	515	620	
0	0	0	0	0	515	621	
1	0	0	0	0	515	620	
2	0	0	0	0	515	619	
3	0	0	0	0	515	621	
4	0	0	0	0	515	621	
5	0	0	0	0	515	622	
6	0	0	0	0	515	623	
7	0	0	0	0	514	623	
8	0	0	0	0	514	623	
9	0	0	0	0	514	623	
10	0	0	0	0	515	621	
11	0	0	0	0	515	623	
12	0	0	0	0	515	624	
13	0	0	0	0	516	624	
14	0	0	0	0	516	627	
15	0	0	0	0	516	624	
0	0	0	0	0	515	625	
1	0	0	0	0	515	625	
2	0	0	0	0	515	623	
3	0	0	0	0	515	624	
4	0	0	0	0	515	624	
5	0	0	0	0	515	624	
6	0	0	0	0	515	624	
7	0	0	0	0	514	623	
8	0	0	0	0	514	623	
9	0	0	0	0	515	623	
10	0	0	0	0	515	620	
11	0	0	0	0	515	621	
12	0	0	0	0	516	621	
13	0	0	0	0	516	620	
14	0	0	0	0	515	623	
15	0	0	0	0	515	620	
0	0	0	0	0	515	620	
1	0	0	0	0	514	619	
2	0	0	0	0	514	618	
3	0	0	0	0	513	620	
4	0	0	0	0	513	620	
5	0	0	0	0	513	620	
6	0	0	0	0	512	622	
7	0	0	0	0	513	620	
8	0	0	0	0	513	620	
9	0	0	0	0	514	621	
10	0	0	0	0	515	619	
11	0	0	0	0	515	621	
12	0	0	0	0	516	621	
13	0	0	0	0	515	621	
14	0	0	0	0	515	623	
15	0	0	0	0	515	622	
0	0	0	0	0	515	622	
1	0	0	0	0	515	622	
2	0	0	0	0	516	620	
3	0	0	0	0	516	623	
4	0	0	0	0	516	623	
5	0	0	0	0	516	623	
6	0	0	0	0	517	625	
7	0	0	0	0	517	623	
8	0	0	0	0	518	623	
9	0	0	0	0	518	622	
10	0	0	0	0	518	620	
11	0	0	0	0	518	622	
12	0	0	0	0	518	622	
13	0	0	0	0	519	622	
14	0	0	0	0	519	623	
15	0	0	0	0	519	621	
0	0	0	0	0	519	621	
1	0	0	0	0	519	621	
2	0	0	0	0	519	619	
3	0	0	0	0	519	620	
4	0	0	0	0	520	619	
5	0	0	0	0	519	619	
6	0	0	0	0	519	620	
7	0	0	0	0	519	619	
8	0	0	0	0	519	619	
9	0	0	0	0	519	619	
10	0	0	0	0	519	617	
11	0	0	0	0	518	619	
12	0	0	0	0	518	618	
13	0	0	0	0	518	619	
14	0	0	0	0	518	620	
15	0	0	0	0	519	619	
0	0	0	0	0	518	620	
1	0	0	0	0	519	620	
2	0	0	0	0	519	619	
3	0	0	0	0	521	621	
4	0	0	0	0	521	620	
5	0	0	0	0	521	621	
6	0	0	0	0	521	623	
7	0	0	0	0	521	621	
8	0	0	0	0	520	622	
9	0	0	0	0	520	622	
10	0	0	0	0	522	621	
11	0	0	0	0	522	623	
12	0	0	0	0	521	622	
13	0	0	0	0	521	623	
14	0	0	0	0	520	624	
15	0	0	0	0	521	623	
0	0	0	0	0	521	622	
1	0	0	0	0	521	623	
2	0	0	0	0	521	620	
3	0	0	0	0	521	621	
4	0	0	0	0	522	622	
5	0	0	0	0	522	622	
6	0	0	0	0	523	624	
7	0	0	0	0	522	621	
8	0	0	0	0	523	622	
9	0	0	0	0	522	621	
10	0	0	0	0	522	619	
11	0	0	0	0	522	620	
12	0	0	0	0	521	620	
13	0	0	0	0	521	620	
14	0	0	0	0	522	622	
15	0	0	0	0	522	620	
0	0	0	0	0	522	620	
1	0	0	0	0	522	620	
2	0	0	0	0	521	618	
3	0	0	0	0	521	620	
4	0	0	0	0	521	620	
5	0	0	0	0	520	620	
6	0	0	0	0	520	623	
7	0	0	0	0	520	621	
8	0	0	0	0	520	621	
9	0	0	0	0	519	621	
10	0	0	0	0	519	620	
11	0	0	0	0	519	623	
12	0	0	0	0	519	622	
13	0	0	0	0	519	622	
14	0	0	0	0	519	624	
15	0	0	0	0	519	622	
0	0	0	0	0	518	623	
1	0	0	0	0	518	624	
2	0	0	0	0	517	622	
3	0	0	0	0	517	624	
4	0	0	0	0	517	624	
5	0	0	0	0	517	624	
6	0	0	0	0	517	626	
7	0	0	0	0	517	624	
8	0	0	0	0	516	624	
9	0	0	0	0	516	624	
10	0	0	0	0	515	622	
11	0	0	0	0	515	624	
12	0	0	0	0	515	623	
13	0	0	0	0	515	623	
14	0	0	0	0	514	624	
15	0	0	0	0	514	623	
0	0	0	0	0	514	623	
1	0	0	0	0	514	623	
2	0	0	0	0	513	621	
3	0	0	0	0	513	622	
4	0	0	0	0	513	622	
5	0	0	0	0	512	622	
6	0	0	0	0	513	624	
7	0	0	0	0	512	621	
8	0	0	0	0	512	621	
9	0	0	0	0	512	621	
10	0	0	0	0	512	619	
11	0	0	0	0	513	621	
12	0	0	0	0	513	621	
13	0	0	0	0	512	620	
14	0	0	0	0	512	621	
15	0	0	0	0	512	620	
0	0	0	0	0	512	619	
1	0	0	0	0	511	619	
2	0	0	0	0	511	617	
3	0	0	0	0	510	620	
4	0	0	0	0	510	619	
5	0	0	0	0	509	619	
6	0	0	0	0	509	621	
7	0	0	0	0	508	620	
8	0	0	0	0	508	619	
9	0	0	0	0	507	620	
10	0	0	0	0	507	618	
11	0	0	0	0	507	621	
12	0	0	0	0	507	621	
13	0	0	0	0	507	622	
14	0	0	0	0	506	623	
15	0	0	0	0	507	622	
0	0	0	0	0	507	622	
1	0	0	0	0	507	622	
2	0	0	0	0	507	620	
3	0	0	0	0	508	623	
4	0	0	0	0	508	623	
5	0	0	0	0	509	623	
6	0	0	0	0	510	624	
7	0	0	0	0	511	623	
8	0	0	0	0	512	623	
9	0	0	0	0	514	623	
10	0	0	0	0	515	620	
11	0	0	0	0	515	623	
12	0	0	0	0	515	622	
13	0	0	0	0	515	622	
14	0	0	0	0	516	623	
15	0	0	0	0	516	621	
0	0	0	0	0	517	620	
1	0	0	0	0	518	620	
2	0	0	0	0	518	618	
3	0	0	0	0	519	619	
4	0	0	0	0	519	619	
5	0	0	0	0	520	619	
6	0	0	0	0	520	621	
7	0	0	0	0	520	619	
8	0	0	0	0	521	619	
9	0	0	0	0	521	619	
10	0	0	0	0	522	617	
11	0	0	0	0	523	619	
12	0	0	0	0	523	619	
13	0	0	0	0	524	619	
14	0	0	0	0	524	621	
15	0	0	0	0	524	619	
0	0	0	0	0	525	619	
1	0	0	0	0	526	619	
2	0	0	0	0	526	617	
3	0	0	0	0	527	619	
4	0	0	0	0	527	620	
5	0	0	0	0	526	619	
6	0	0	0	0	526	620	
7	0	0	0	0	526	619	
8	0	0	0	0	526	619	
9	0	0	0	0	525	619	
10	0	0	0	0	524	617	
11	0	0	0	0	523	619	
12	0	0	0	0	522	619	
13	0	0	0	0	521	620	
14	0	0	0	0	521	622	
15	0	0	0	0	520	619	
0	0	0	0	0	519	619	
1	0	0	0	0	519	619	
2	0	0	0	0	518	617	
3	0	0	0	0	517	619	
4	0	0	0	0	516	620	
5	0	0	0	0	516	620	
6	0	0	0	0	516	621	
7	0	0	0	0	515	620	
8	0	0	0	0	514	620	
9	0	0	0	0	514	620	
10	0	0	0	0	514	618	
11	0	0	0	0	514	621	
12	0	0	0	0	514	620	
13	0	0	0	0	514	620	
14	0	0	0	0	514	622	
15	0	0	0	0	515	621	
0	0	0	0	0	515	621	
1	0	0	0	0	515	621	
2	0	0	0	0	514	620	
3	0	0	0	0	514	622	
4	0	0	0	0	514	623	
5	0	0	0	0	514	623	
6	0	0	0	0	514	625	
7	0	0	0	0	514	624	
8	0	0	0	0	514	624	
9	0	0	0	0	515	625	
10	0	0	0	0	515	624	
11	0	0	0	0	515	626	
12	0	0	0	0	515	625	
13	0	0	0	0	515	626	
14	0	0	0	0	515	627	
15	0	0	0	0	515	626	
0	0	0	0	0	516	626	
1	0	0	0	0	516	626	
2	0	0	0	0	516	623	
3	0	0	0	0	515	625	
4	0	0	0	0	515	624	
5	0	0	0	0	515	624	
6	0	0	0	0	514	625	
7	0	0	0	0	513	623	
8	0	0	0	0	513	622	
9	0	0	0	0	513	622	
10	0	0	0	0	514	620	
11	0	0	0	0	514	621	
12	0	0	0	0	514	621	
13	0	0	0	0	513	620	
14	0	0	0	0	513	622	
15	0	0	0	0	512	620	
0	0	0	0	0	511	620	
1	0	0	0	0	511	620	
2	0	0	0	0	510	618	
3	0	0	0	0	511	620	
4	0	0	0	0	511	620	
5	0	0	0	0	511	620	
6	0	0	0	0	511	622	
7	0	0	0	0	510	621	
8	0	0	0	0	509	620	
9	0	0	0	0	508	620	
10	0	0	0	0	508	618	
11	0	0	0	0	507	620	
12	0	0	0	0	506	621	
13	0	0	0	0	506	621	
14	0	0	0	0	505	623	
15	0	0	0	0	505	621	
0	0	0	0	0	505	622	
1	0	0	0	0	505	622	
2	0	0	0	0	505	619	
3	0	0	0	0	506	622	
4	0	0	0	0	507	622	
5	0	0	0	0	507	623	
6	0	0	0	0	507	624	
7	0	0	0	0	507	622	
8	0	0	0	0	506	622	
9	0	0	0	0	505	622	
10	0	0	0	0	503	620	
11	0	0	0	0	500	621	
12	0	0	0	0	497	621	
13	0	0	0	0	493	622	
14	0	0	0	0	488	623	
15	0	0	0	0	481	621	
0	0	0	0	0	472	621	
1	0	0	0	0	462	620	
2	0	0	0	0	451	618	
3	0	0	0	0	439	620	
4	0	0	0	0	427	620	
5	0	0	0	0	415	620	
6	0	0	0	0	405	622	
7	0	0	0	0	396	620	
8	0	0	0	0	390	619	
9	0	0	0	0	386	620	
10	0	0	0	0	381	617	
11	0	0	0	0	378	619	
12	0	0	0	0	377	620	
13	0	0	0	0	376	620	
14	0	0	0	0	377	621	
15	0	0	0	0	382	620	
0	0	0	0	0	388	619	
1	0	0	0	0	399	619	
2	0	0	0	0	412	617	
3	0	0	0	0	430	620	
4	0	0	0	0	449	619	
5	0	0	0	0	473	620	
6	0	0	0	0	501	622	
7	0	0	0	0	534	620	
8	0	0	0	0	573	621	
9	0	0	0	0	616	621	
10	0	0	0	0	664	620	
11	0	0	0	0	714	622	
12	0	0	0	0	768	623	
13	0	0	0	0	820	623	
14	0	0	0	0	873	625	
15	0	0	0	0	924	623	
0	0	0	0	0	972	623	
1	0	0	0	0	1016	623	
2	0	0	0	0	1022	621	
3	0	0	0	0	1022	623	
4	0	0	0	0	1022	623	
5	0	0	0	0	1022	624	
6	0	0	0	0	1022	625	
7	0	0	0	0	1022	623	
8	0	0	0	0	1022	623	
9	0	0	0	0	1022	623	
10	0	0	0	0	1022	622	
11	0	0	0	0	1022	623	
12	0	0	0	0	1022	623	
13	0	0	0	0	1022	623	
14	0	0	0	0	1022	624	
15	0	0	0	0	1022	622	
0	0	0	0	0	1022	622	
1	0	0	0	0	1022	622	
2	0	0	0	0	1022	620	
3	0	0	0	0	1020	622	
4	0	0	0	0	966	622	
5	0	0	0	0	911	621	
6	0	0	0	0	858	624	
7	0	0	0	0	808	622	
8	0	0	0	0	761	623	
9	0	0	0	0	716	623	
10	0	0	0	0	676	621	
11	0	0	0	0	641	623	
12	0	0	0	0	613	623	
13	0	0	0	0	588	622	
14	0	0	0	0	565	624	
15	0	0	0	0	546	623	
0	0	0	0	0	528	623	
1	0	0	0	0	512	623	
2	0	0	0	0	498	622	
3	0	0	0	0	484	622	
4	0	0	0	0	471	623	
5	0	0	0	0	459	623	
6	0	0	0	0	447	624	
7	0	0	0	0	435	622	
8	0	0	0	0	424	622	
9	0	0	0	0	414	622	
10	0	0	0	0	403	620	
11	0	0	0	0	393	622	
12	0	0	0	0	384	621	
13	0	0	0	0	375	620	
14	0	0	0	0	367	622	
15	0	0	0	0	359	620	
0	0	0	0	0	351	620	
1	0	0	0	0	344	620	
2	0	0	0	0	339	618	
3	0	0	0	0	335	620	
4	0	0	0	0	332	619	
5	0	0	0	0	329	620	
6	0	0	0	0	327	621	
7	0	0	0	0	325	620	
8	0	0	0	0	323	620	
9	0	0	0	0	322	620	
10	0	0	0	0	320	618	
11	0	0	0	0	320	620	
12	0	0	0	0	319	620	
13	0	0	0	0	318	620	
14	0	0	0	0	318	622	
15	0	0	0	0	318	620	
0	0	0	0	0	319	621	
1	0	0	0	0	319	620	
2	0	0	0	0	319	619	
3	0	0	0	0	319	620	
4	0	0	0	0	320	620	
5	0	0	0	0	320	619	
6	0	0	0	0	321	621	
7	0	0	0	0	323	620	
8	0	0	0	0	323	619	
9	0	0	0	0	325	620	
10	0	0	0	0	327	617	
11	0	0	0	0	329	620	
12	0	0	0	0	330	620	
13	0	0	0	0	332	619	
14	0	0	0	0	333	621	
15	0	0	0	0	335	620	
0	0	0	0	0	335	621	
1	0	0	0	0	336	620	
2	0	0	0	0	337	618	
3	0	0	0	0	339	620	
4	0	0	0	0	340	620	
5	0	0	0	0	341	620	
6	0	0	0	0	342	622	
7	0	0	0	0	343	620	
8	0	0	0	0	344	620	
9	0	0	0	0	346	620	
10	0	0	0	0	347	618	
11	0	0	0	0	348	620	
12	0	0	0	0	350	620	
13	0	0	0	0	351	620	
14	0	0	0	0	352	621	
15	0	0	0	0	353	619	
0	0	0	0	0	356	620	
1	0	0	0	0	358	620	
2	0	0	0	0	360	618	
3	0	0	0	0	361	621	
4	0	0	0	0	363	620	
5	0	0	0	0	364	620	
6	0	0	0	0	366	623	
7	0	0	0	0	366	622	
8	0	0	0	0	367	623	
9	0	0	0	0	367	623	
10	0	0	0	0	367	622	
11	0	0	0	0	367	624	
12	0	0	0	0	368	625	
13	0	0	0	0	369	626	
14	0	0	0	0	370	628	
15	0	0	0	0	372	627	
0	0	0	0	0	374	627	
1	0	0	0	0	375	627	
2	0	0	0	0	376	625	
3	0	0	0	0	377	627	
4	0	0	0	0	378	627	
5	0	0	0	0	379	626	
6	0	0	0	0	380	627	
7	0	0	0	0	381	626	
8	0	0	0	0	381	625	
9	0	0	0	0	383	624	
10	0	0	0	0	383	622	
11	0	0	0	0	384	623	
12	0	0	0	0	385	622	
13	0	0	0	0	386	622	
14	0	0	0	0	387	623	
15	0	0	0	0	387	621	
0	0	0	0	0	388	621	
1	0	0	0	0	389	621	
2	0	0	0	0	390	619	
3	0	0	0	0	390	620	
4	0	0	0	0	391	620	
5	0	0	0	0	392	620	
6	0	0	0	0	393	622	
7	0	0	0	0	394	620	
8	0	0	0	0	396	621	
9	0	0	0	0	396	620	
10	0	0	0	0	396	619	
11	0	0	0	0	398	621	
12	0	0	0	0	398	621	
13	0	0	0	0	398	622	
14	0	0	0	0	399	624	
15	0	0	0	0	399	623	
0	0	0	0	0	401	623	
1	0	0	0	0	401	623	
2	0	0	0	0	403	622	
3	0	0	0	0	403	624	
4	0	0	0	0	404	625	
5	0	0	0	0	406	624	
6	0	0	0	0	407	627	
7	0	0	0	0	408	624	
8	0	0	0	0	409	625	
9	0	0	0	0	409	625	
10	0	0	0	0	411	623	
11	0	0	0	0	412	625	
12	0	0	0	0	412	625	
13	0	0	0	0	413	625	
14	0	0	0	0	414	626	
15	0	0	0	0	416	624	
0	0	0	0	0	417	624	
1	0	0	0	0	418	624	
2	0	0	0	0	419	621	
3	0	0	0	0	420	623	
4	0	0	0	0	421	622	
5	0	0	0	0	422	621	
6	0	0	0	0	423	623	
7	0	0	0	0	425	620	
8	0	0	0	0	427	621	
9	0	0	0	0	428	620	
10	0	0	0	0	430	618	
11	0	0	0	0	432	619	
12	0	0	0	0	434	619	
13	0	0	0	0	435	619	
14	0	0	0	0	437	620	
15	0	0	0	0	438	619	
0	0	0	0	0	440	619	
1	0	0	0	0	441	619	
2	0	0	0	0	443	617	
3	0	0	0	0	445	619	
4	0	0	0	0	446	618	
5	0	0	0	0	447	619	
6	0	0	0	0	450	621	
7	0	0	0	0	452	619	
8	0	0	0	0	454	619	
9	0	0	0	0	455	619	
10	0	0	0	0	456	617	
11	0	0	0	0	458	619	
12	0	0	0	0	459	618	
13	0	0	0	0	460	619	
14	0	0	0	0	462	620	
15	0	0	0	0	464	619	
0	0	0	0	0	465	619	
1	0	0	0	0	467	619	
2	0	0	0	0	470	616	
3	0	0	0	0	471	619	
4	0	0	0	0	472	619	
5	0	0	0	0	472	619	
6	0	0	0	0	472	621	
7	0	0	0	0	474	620	
8	0	0	0	0	474	620	
9	0	0	0	0	475	620	
10	0	0	0	0	476	618	
11	0	0	0	0	477	620	
12	0	0	0	0	477	620	
13	0	0	0	0	478	621	
14	0	0	0	0	479	623	
15	0	0	0	0	480	622	
0	0	0	0	0	480	621	
1	0	0	0	0	481	622	
2	0	0	0	0	481	620	
3	0	0	0	0	482	622	
4	0	0	0	0	483	622	
5	0	0	0	0	484	622	
6	0	0	0	0	486	624	
7	0	0	0	0	487	622	
8	0	0	0	0	489	622	
9	0	0	0	0	489	622	
10	0	0	0	0	489	620	
11	0	0	0	0	489	621	
12	0	0	0	0	490	621	
13	0	0	0	0	490	621	
14	0	0	0	0	491	623	
15	0	0	0	0	491	621	
0	0	0	0	0	492	621	
1	0	0	0	0	493	620	
2	0	0	0	0	493	618	
3	0	0	0	0	493	620	
4	0	0	0	0	493	620	
5	0	0	0	0	493	621	
6	0	0	0	0	493	623	
7	0	0	0	0	493	622	
8	0	0	0	0	492	622	
9	0	0	0	0	492	623	
10	0	0	0	0	491	621	
11	0	0	0	0	491	623	
12	0	0	0	0	491	624	
13	0	0	0	0	491	624	
14	0	0	0	0	491	627	
15	0	0	0	0	492	625	
0	0	0	0	0	493	625	
1	0	0	0	0	493	625	
2	0	0	0	0	493	624	
3	0	0	0	0	494	626	
4	0	0	0	0	494	626	
5	0	0	0	0	494	626	
6	0	0	0	0	495	627	
7	0	0	0	0	495	625	
8	0	0	0	0	495	625	
9	0	0	0	0	496	624	
10	0	0	0	0	496	622	
11	0	0	0	0	496	623	
12	0	0	0	0	497	623	
13	0	0	0	0	498	622	
14	0	0	0	0	498	624	
15	0	0	0	0	499	621	
0	0	0	0	0	499	620	
1	0	0	0	0	499	620	
2	0	0	0	0	499	618	
3	0	0	0	0	499	620	
4	0	0	0	0	499	620	
5	0	0	0	0	500	620	
6	0	0	0	0	500	621	
7	0	0	0	0	500	620	
8	0	0	0	0	502	619	
9	0	0	0	0	502	619	
10	0	0	0	0	504	617	
11	0	0	0	0	504	618	
12	0	0	0	0	505	619	
13	0	0	0	0	505	618	
14	0	0	0	0	506	620	
15	0	0	0	0	506	619	
0	0	0	0	0	507	619	
1	0	0	0	0	507	618	
2	0	0	0	0	506	616	
3	0	0	0	0	506	619	
4	0	0	0	0	506	617	
5	0	0	0	0	507	618	
6	0	0	0	0	507	620	
7	0	0	0	0	507	618	
8	0	0	0	0	508	618	
9	0	0	0	0	508	617	
10	0	0	0	0	508	615	
11	0	0	0	0	509	617	
12	0	0	0	0	509	617	
13	0	0	0	0	509	618	
14	0	0	0	0	509	620	
15	0	0	0	0	510	619	
0	0	0	0	0	510	619	
1	0	0	0	0	510	619	
2	0	0	0	0	511	617	
3	0	0	0	0	510	619	
4	0	0	0	0	511	620	
5	0	0	0	0	511	620	
6	0	0	0	0	511	623	
7	0	0	0	0	511	621	
8	0	0	0	0	510	622	
9	0	0	0	0	510	622	
10	0	0	0	0	510	620	
11	0	0	0	0	511	623	
12	0	0	0	0	512	623	
13	0	0	0	0	512	623	
14	0	0	0	0	512	625	
15	0	0	0	0	512	624	
0	0	0	0	0	513	624	
1	0	0	0	0	514	624	
2	0	0	0	0	515	622	
3	0	0	0	0	515	623	
4	0	0	0	0	515	623	
5	0	0	0	0	515	623	
6	0	0	0	0	515	625	
7	0	0	0	0	515	623	
8	0	0	0	0	515	622	
9	0	0	0	0	515	622	
10	0	0	0	0	515	619	
11	0	0	0	0	515	620	
12	0	0	0	0	515	620	
13	0	0	0	0	515	620	
14	0	0	0	0	515	622	
15	0	0	0	0	515	620	
0	0	0	0	0	515	620	
1	0	0	0	0	515	620	
2	0	0	0	0	515	620	
3	0	0	0	0	514	622	
4	0	0	0	0	513	622	
5	0	0	0	0	513	622	
6	0	0	0	0	513	624	
7	0	0	0	0	514	623	
8	0	0	0	0	513	622	
9	0	0	0	0	512	623	
10	0	0	0	0	512	622	
11	0	0	0	0	512	624	
12	0	0	0	0	511	624	
13	0	0	0	0	511	624	
14	0	0	0	0	512	625	
15	0	0	0	0	512	624	
0	0	0	0	0	513	625	
1	0	0	0	0	513	625	
2	0	0	0	0	513	622	
3	0	0	0	0	513	624	
4	0	0	0	0	513	623	
5	0	0	0	0	513	623	
6	0	0	0	0	513	625	
7	0	0	0	0	513	623	
8	0	0	0	0	514	622	
9	0	0	0	0	515	622	
10	0	0	0	0	515	620	
11	0	0	0	0	515	621	
12	0	0	0	0	515	621	
13	0	0	0	0	515	621	
14	0	0	0	0	515	623	
15	0	0	0	0	515	620	
0	0	0	0	0	515	620	
1	0	0	0	0	515	619	
2	0	0	0	0	514	617	
3	0	0	0	0	514	619	
4	0	0	0	0	514	619	
5	0	0	0	0	514	619	
6	0	0	0	0	515	620	
7	0	0	0	0	515	619	
8	0	0	0	0	515	619	
9	0	0	0	0	515	619	
10	0	0	0	0	515	617	
11	0	0	0	0	515	619	
12	0	0	0	0	515	619	
13	0	0	0	0	515	618	
14	0	0	0	0	516	621	
15	0	0	0	0	516	619	
0	0	0	0	0	516	619	
1	0	0	0	0	515	620	
2	0	0	0	0	515	618	
3	0	0	0	0	515	619	
4	0	0	0	0	515	619	
5	0	0	0	0	515	619	
6	0	0	0	0	514	622	
7	0	0	0	0	514	620	
8	0	0	0	0	513	620	
9	0	0	0	0	514	619	
10	0	0	0	0	514	618	
11	0	0	0	0	515	619	
12	0	0	0	0	515	619	
13	0	0	0	0	515	619	
14	0	0	0	0	515	621	
15	0	0	0	0	516	619	
0	0	0	0	0	516	620	
1	0	0	0	0	516	620	
2	0	0	0	0	516	618	
3	0	0	0	0	515	620	
4	0	0	0	0	515	620	
5	0	0	0	0	515	620	
6	0	0	0	0	515	621	
7	0	0	0	0	516	619	
8	0	0	0	0	516	619	
9	0	0	0	0	516	619	
10	0	0	0	0	516	618	
11	0	0	0	0	516	619	
12	0	0	0	0	516	619	
13	0	0	0	0	515	620	
14	0	0	0	0	516	623	
15	0	0	0	0	517	622	
0	0	0	0	0	516	623	
1	0	0	0	0	517	625	
2	0	0	0	0	517	624	
3	0	0	0	0	517	627	
4	0	0	0	0	518	628	
5	0	0	0	0	517	630	
6	0	0	0	0	518	632	
7	0	0	0	0	518	631	
8	0	0	0	0	519	632	
9	0	0	0	0	520	632	
10	0	0	0	0	519	630	
11	0	0	0	0	520	632	
12	0	0	0	0	520	632	
13	0	0	0	0	521	631	
14	0	0	0	0	521	632	
15	0	0	0	0	521	630	
0	0	0	0	0	521	629	
1	0	0	0	0	521	628	
2	0	0	0	0	520	625	
3	0	0	0	0	519	626	
4	0	0	0	0	519	625	
5	0	0	0	0	519	624	
6	0	0	0	0	519	624	
7	0	0	0	0	520	622	
8	0	0	0	0	520	621	
9	0	0	0	0	519	620	
10	0	0	0	0	519	618	
11	0	0	0	0	519	620	
12	0	0	0	0	519	619	
13	0	0	0	0	519	618	
14	0	0	0	0	520	620	
15	0	0	0	0	520	618	
0	0	0	0	0	520	618	
1	0	0	0	0	519	618	
2	0	0	0	0	520	616	
3	0	0	0	0	519	619	
4	0	0	0	0	519	619	
5	0	0	0	0	518	619	
6	0	0	0	0	518	621	
7	0	0	0	0	518	620	
8	0	0	0	0	518	620	
9	0	0	0	0	517	621	
10	0	0	0	0	518	619	
11	0	0	0	0	518	621	
12	0	0	0	0	518	621	
13	0	0	0	0	517	621	
14	0	0	0	0	518	623	
15	0	0	0	0	518	621	
0	0	0	0	0	518	621	
1	0	0	0	0	517	622	
2	0	0	0	0	516	620	
3	0	0	0	0	516	621	
4	0	0	0	0	516	621	
5	0	0	0	0	517	620	
6	0	0	0	0	516	622	
7	0	0	0	0	516	620	
8	0	0	0	0	515	620	
9	0	0	0	0	515	620	
10	0	0	0	0	515	617	
11	0	0	0	0	515	619	
12	0	0	0	0	515	619	
13	0	0	0	0	515	618	
14	0	0	0	0	515	620	
15	0	0	0	0	515	618	
0	0	0	0	0	515	618	
1	0	0	0	0	514	617	
2	0	0	0	0	514	615	
3	0	0	0	0	513	617	
4	0	0	0	0	513	617	
5	0	0	0	0	514	616	
6	0	0	0	0	513	618	
7	0	0	0	0	512	617	
8	0	0	0	0	513	616	
9	0	0	0	0	513	617	
10	0	0	0	0	512	615	
11	0	0	0	0	512	616	
12	0	0	0	0	511	616	
13	0	0	0	0	511	616	
14	0	0	0	0	511	618	
15	0	0	0	0	512	616	
0	0	0	0	0	512	616	
1	0	0	0	0	511	616	
2	0	0	0	0	511	614	
3	0	0	0	0	511	616	
4	0	0	0	0	511	616	
5	0	0	0	0	511	617	
6	0	0	0	0	512	620	
7	0	0	0	0	512	619	
8	0	0	0	0	512	619	
9	0	0	0	0	513	619	
10	0	0	0	0	514	617	
11	0	0	0	0	514	620	
12	0	0	0	0	513	620	
13	0	0	0	0	513	620	
14	0	0	0	0	512	623	
15	0	0	0	0	510	622	
0	0	0	0	0	509	622	
1	0	0	0	0	508	623	
2	0	0	0	0	507	621	
3	0	0	0	0	507	623	
4	0	0	0	0	507	624	
5	0	0	0	0	506	624	
6	0	0	0	0	507	627	
7	0	0	0	0	507	625	
8	0	0	0	0	507	626	
9	0	0	0	0	508	625	
10	0	0	0	0	509	624	
11	0	0	0	0	510	625	
12	0	0	0	0	511	625	
13	0	0	0	0	512	625	
14	0	0	0	0	512	627	
15	0	0	0	0	512	625	
0	0	0	0	0	512	626	
1	0	0	0	0	512	625	
2	0	0	0	0	512	623	
3	0	0	0	0	512	625	
4	0	0	0	0	513	625	
5	0	0	0	0	514	624	
6	0	0	0	0	515	626	
7	0	0	0	0	516	624	
8	0	0	0	0	516	624	
9	0	0	0	0	516	625	
10	0	0	0	0	515	622	
11	0	0	0	0	515	624	
12	0	0	0	0	516	624	
13	0	0	0	0	516	624	
14	0	0	0	0	516	626	
15	0	0	0	0	516	623	
0	0	0	0	0	516	624	
1	0	0	0	0	516	624	
2	0	0	0	0	516	622	
3	0	0	0	0	518	623	
4	0	0	0	0	519	623	
5	0	0	0	0	520	623	
6	0	0	0	0	521	626	
7	0	0	0	0	522	624	
8	0	0	0	0	523	623	
9	0	0	0	0	523	623	
10	0	0	0	0	524	621	
11	0	0	0	0	524	623	
12	0	0	0	0	524	623	
13	0	0	0	0	525	623	
14	0	0	0	0	525	624	
15	0	0	0	0	524	623	
0	0	0	0	0	524	624	
1	0	0	0	0	524	624	
2	0	0	0	0	524	622	
3	0	0	0	0	524	623	
4	0	0	0	0	524	623	
5	0	0	0	0	524	624	
6	0	0	0	0	524	625	
7	0	0	0	0	524	624	
8	0	0	0	0	524	623	
9	0	0	0	0	523	624	
10	0	0	0	0	523	621	
11	0	0	0	0	522	624	
12	0	0	0	0	523	624	
13	0	0	0	0	522	623	
14	0	0	0	0	520	625	
15	0	0	0	0	519	624	
0	0	0	0	0	519	623	
1	0	0	0	0	519	624	
2	0	0	0	0	519	621	
3	0	0	0	0	518	623	
4	0	0	0	0	517	623	
5	0	0	0	0	516	622	
6	0	0	0	0	515	624	
7	0	0	0	0	513	622	
8	0	0	0	0	513	622	
9	0	0	0	0	515	621	
10	0	0	0	0	514	620	
11	0	0	0	0	513	620	
12	0	0	0	0	511	621	
13	0	0	0	0	511	620	
14	0	0	0	0	511	621	
15	0	0	0	0	510	619	
0	0	0	0	0	511	619	
1	0	0	0	0	511	619	
2	0	0	0	0	510	616	
3	0	0	0	0	511	618	
4	0	0	0	0	511	618	
5	0	0	0	0	510	618	
6	0	0	0	0	510	620	
7	0	0	0	0	510	617	
8	0	0	0	0	512	617	
9	0	0	0	0	513	617	
10	0	0	0	0	513	615	
11	0	0	0	0	513	617	
12	0	0	0	0	512	617	
13	0	0	0	0	512	616	
14	0	0	0	0	511	620	
15	0	0	0	0	511	617	
0	0	0	0	0	512	618	
1	0	0	0	0	512	617	
2	0	0	0	0	513	616	
3	0	0	0	0	513	618	
4	0	0	0	0	512	618	
5	0	0	0	0	511	618	
6	0	0	0	0	510	620	
7	0	0	0	0	510	620	
8	0	0	0	0	510	619	
9	0	0	0	0	509	620	
10	0	0	0	0	508	619	
11	0	0	0	0	508	620	
12	0	0	0	0	509	620	
13	0	0	0	0	508	621	
14	0	0	0	0	508	623	
15	0	0	0	0	508	622	
0	0	0	0	0	508	622	
1	0	0	0	0	508	622	
2	0	0	0	0	508	620	
3	0	0	0	0	508	622	
4	0	0	0	0	509	622	
5	0	0	0	0	509	622	
6	0	0	0	0	509	623	
7	0	0	0	0	509	622	
8	0	0	0	0	508	623	
9	0	0	0	0	508	623	
10	0	0	0	0	510	621	
11	0	0	0	0	510	623	
12	0	0	0	0	507	623	
13	0	0	0	0	508	623	
14	0	0	0	0	509	624	
15	0	0	0	0	509	623	
0	0	0	0	0	509	623	
1	0	0	0	0	508	623	
2	0	0	0	0	508	620	
3	0	0	0	0	508	623	
4	0	0	0	0	508	623	
5	0	0	0	0	509	623	
6	0	0	0	0	509	624	
7	0	0	0	0	509	623	
8	0	0	0	0	508	623	
9	0	0	0	0	506	623	
10	0	0	0	0	503	620	
11	0	0	0	0	499	623	
12	0	0	0	0	494	623	
13	0	0	0	0	487	622	
14	0	0	0	0	478	624	
15	0	0	0	0	468	623	
0	0	0	0	0	458	622	
1	0	0	0	0	447	622	
2	0	0	0	0	434	620	
3	0	0	0	0	423	623	
4	0	0	0	0	414	623	
5	0	0	0	0	405	623	
6	0	0	0	0	399	624	
7	0	0	0	0	396	622	
8	0	0	0	0	391	622	
9	0	0	0	0	387	621	
10	0	0	0	0	385	619	
11	0	0	0	0	387	622	
12	0	0	0	0	390	621	
13	0	0	0	0	396	620	
14	0	0	0	0	407	622	
15	0	0	0	0	421	621	
0	0	0	0	0	437	620	
1	0	0	0	0	454	620	
2	0	0	0	0	474	618	
3	0	0	0	0	499	620	
4	0	0	0	0	528	620	
5	0	0	0	0	561	620	
6	0	0	0	0	598	622	
7	0	0	0	0	638	620	
8	0	0	0	0	681	620	
9	0	0	0	0	725	620	
10	0	0	0	0	774	618	
11	0	0	0	0	824	620	
12	0	0	0	0	872	620	
13	0	0	0	0	918	620	
14	0	0	0	0	961	622	
15	0	0	0	0	1005	621	
0	0	0	0	0	1022	620	
1	0	0	0	0	1022	621	
2	0	0	0	0	1022	619	
3	0	0	0	0	1022	621	
4	0	0	0	0	1022	621	
5	0	0	0	0	1022	621	
6	0	0	0	0	1022	623	
7	0	0	0	0	1022	621	
8	0	0	0	0	1022	621	
9	0	0	0	0	1022	622	
10	0	0	0	0	1022	620	
11	0	0	0	0	1022	621	
12	0	0	0	0	1022	621	
13	0	0	0	0	1022	622	
14	0	0	0	0	1022	623	
15	0	0	0	0	1022	621	
0	0	0	0	0	1022	621	
1	0	0	0	0	1014	621	
2	0	0	0	0	963	619	
3	0	0	0	0	913	621	
4	0	0	0	0	864	621	
5	0	0	0	0	817	621	
6	0	0	0	0	771	623	
7	0	0	0	0	729	621	
8	0	0	0	0	691	621	
9	0	0	0	0	657	620	
10	0	0	0	0	627	620	
11	0	0	0	0	600	621	
12	0	0	0	0	576	621	
13	0	0	0	0	555	621	
14	0	0	0	0	536	623	
15	0	0	0	0	517	621	
0	0	0	0	0	501	621	
1	0	0	0	0	485	622	
2	0	0	0	0	471	619	
3	0	0	0	0	458	621	
4	0	0	0	0	447	621	
5	0	0	0	0	435	621	
6	0	0	0	0	424	623	
7	0	0	0	0	415	621	
8	0	0	0	0	405	621	
9	0	0	0	0	394	622	
10	0	0	0	0	385	620	
11	0	0	0	0	376	621	
12	0	0	0	0	367	622	
13	0	0	0	0	359	623	
14	0	0	0	0	352	625	
15	0	0	0	0	347	623	
0	0	0	0	0	342	624	
1	0	0	0	0	338	623	
2	0	0	0	0	335	622	
3	0	0	0	0	332	624	
4	0	0	0	0	330	624	
5	0	0	0	0	328	624	
6	0	0	0	0	326	626	
7	0	0	0	0	324	625	
8	0	0	0	0	323	625	
9	0	0	0	0	324	624	
10	0	0	0	0	323	622	
11	0	0	0	0	324	624	
12	0	0	0	0	325	624	
13	0	0	0	0	325	623	
14	0	0	0	0	326	625	
15	0	0	0	0	327	623	
0	0	0	0	0	328	623	
1	0	0	0	0	329	622	
2	0	0	0	0	331	620	
3	0	0	0	0	333	622	
4	0	0	0	0	334	622	
5	0	0	0	0	335	621	
6	0	0	0	0	337	623	
7	0	0	0	0	338	622	
8	0	0	0	0	340	622	
9	0	0	0	0	342	622	
10	0	0	0	0	343	619	
11	0	0	0	0	344	620	
12	0	0	0	0	345	620	
13	0	0	0	0	346	620	
14	0	0	0	0	348	622	
15	0	0	0	0	348	620	
0	0	0	0	0	349	620	
1	0	0	0	0	350	620	
2	0	0	0	0	352	617	
3	0	0	0	0	353	620	
4	0	0	0	0	355	619	
5	0	0	0	0	356	618	
6	0	0	0	0	357	620	
7	0	0	0	0	359	618	
8	0	0	0	0	360	618	
9	0	0	0	0	360	619	
10	0	0	0	0	361	617	
11	0	0	0	0	362	619	
12	0	0	0	0	364	619	
13	0	0	0	0	364	619	
14	0	0	0	0	366	620	
15	0	0	0	0	367	619	
0	0	0	0	0	369	619	
1	0	0	0	0	371	619	
2	0	0	0	0	371	617	
3	0	0	0	0	372	619	
4	0	0	0	0	373	619	
5	0	0	0	0	375	619	
6	0	0	0	0	376	620	
7	0	0	0	0	377	619	
8	0	0	0	0	378	619	
9	0	0	0	0	378	619	
10	0	0	0	0	379	617	
11	0	0	0	0	380	619	
12	0	0	0	0	381	619	
13	0	0	0	0	382	619	
14	0	0	0	0	384	621	
15	0	0	0	0	384	619	
0	0	0	0	0	385	619	
1	0	0	0	0	387	618	
2	0	0	0	0	387	615	
3	0	0	0	0	388	617	
4	0	0	0	0	389	618	
5	0	0	0	0	390	618	
6	0	0	0	0	390	619	
7	0	0	0	0	391	618	
8	0	0	0	0	392	617	
9	0	0	0	0	392	617	
10	0	0	0	0	393	616	
11	0	0	0	0	394	618	
12	0	0	0	0	395	619	
13	0	0	0	0	395	618	
14	0	0	0	0	396	619	
15	0	0	0	0	397	618	
0	0	0	0	0	397	619	
1	0	0	0	0	398	619	
2	0	0	0	0	398	618	
3	0	0	0	0	398	620	
4	0	0	0	0	398	620	
5	0	0	0	0	399	620	
6	0	0	0	0	399	623	
7	0	0	0	0	400	622	
8	0	0	0	0	401	622	
9	0	0	0	0	401	622	
10	0	0	0	0	402	621	
11	0	0	0	0	403	623	
12	0	0	0	0	405	624	
13	0	0	0	0	406	624	
14	0	0	0	0	408	627	
15	0	0	0	0	408	625	
0	0	0	0	0	409	626	
1	0	0	0	0	408	626	
2	0	0	0	0	410	624	
3	0	0	0	0	411	626	
4	0	0	0	0	412	626	
5	0	0	0	0	412	627	
6	0	0	0	0	413	628	
7	0	0	0	0	413	627	
8	0	0	0	0	414	627	
9	0	0	0	0	414	627	
10	0	0	0	0	416	625	
11	0	0	0	0	418	626	
12	0	0	0	0	419	626	
13	0	0	0	0	419	627	
14	0	0	0	0	420	628	
15	0	0	0	0	421	626	
0	0	0	0	0	423	626	
1	0	0	0	0	423	625	
2	0	0	0	0	425	623	
3	0	0	0	0	426	625	
4	0	0	0	0	427	625	
5	0	0	0	0	428	625	
6	0	0	0	0	430	626	
7	0	0	0	0	432	624	
8	0	0	0	0	432	625	
9	0	0	0	0	434	625	
10	0	0	0	0	435	622	
11	0	0	0	0	436	625	
12	0	0	0	0	439	624	
13	0	0	0	0	440	625	
14	0	0	0	0	440	626	
15	0	0	0	0	442	625	
0	0	0	0	0	443	625	
1	0	0	0	0	445	624	
2	0	0	0	0	446	623	
3	0	0	0	0	448	624	
4	0	0	0	0	450	624	
5	0	0	0	0	451	624	
6	0	0	0	0	453	625	
7	0	0	0	0	454	624	
8	0	0	0	0	455	624	
9	0	0	0	0	457	623	
10	0	0	0	0	457	621	
11	0	0	0	0	460	622	
12	0	0	0	0	461	622	
13	0	0	0	0	462	621	
14	0	0	0	0	463	623	
15	0	0	0	0	464	620	
0	0	0	0	0	467	620	
1	0	0	0	0	468	620	
2	0	0	0	0	470	618	
3	0	0	0	0	472	619	
4	0	0	0	0	472	619	
5	0	0	0	0	474	619	
6	0	0	0	0	475	621	
7	0	0	0	0	476	619	
8	0	0	0	0	477	619	
9	0	0	0	0	478	619	
10	0	0	0	0	479	616	
11	0	0	0	0	480	618	
12	0	0	0	0	480	617	
13	0	0	0	0	480	617	
14	0	0	0	0	480	619	
15	0	0	0	0	481	617	
0	0	0	0	0	481	618	
1	0	0	0	0	482	617	
2	0	0	0	0	482	615	
3	0	0	0	0	482	618	
4	0	0	0	0	484	617	
5	0	0	0	0	484	617	
6	0	0	0	0	485	619	
7	0	0	0	0	487	618	
8	0	0	0	0	487	618	
9	0	0	0	0	488	619	
10	0	0	0	0	489	617	
11	0	0	0	0	489	619	
12	0	0	0	0	490	620	
13	0	0	0	0	491	619	
14	0	0	0	0	491	621	
15	0	0	0	0	491	620	
0	0	0	0	0	492	620	
1	0	0	0	0	492	620	
2	0	0	0	0	492	618	
3	0	0	0	0	492	621	
4	0	0	0	0	493	620	
5	0	0	0	0	494	620	
6	0	0	0	0	495	622	
7	0	0	0	0	496	620	
8	0	0	0	0	496	620	
9	0	0	0	0	497	620	
10	0	0	0	0	498	619	
11	0	0	0	0	498	619	
12	0	0	0	0	498	619	
13	0	0	0	0	499	619	
14	0	0	0	0	499	621	
15	0	0	0	0	499	619	
0	0	0	0	0	499	619	
1	0	0	0	0	499	619	
2	0	0	0	0	500	617	
3	0	0	0	0	500	619	
4	0	0	0	0	501	619	
5	0	0	0	0	501	619	
6	0	0	0	0	500	621	
7	0	0	0	0	502	620	
8	0	0	0	0	502	620	
9	0	0	0	0	503	620	
10	0	0	0	0	504	618	
11	0	0	0	0	504	620	
12	0	0	0	0	504	621	
13	0	0	0	0	504	621	
14	0	0	0	0	505	624	
15	0	0	0	0	505	621	
0	0	0	0	0	505	622	
1	0	0	0	0	506	621	
2	0	0	0	0	507	620	
3	0	0	0	0	507	622	
4	0	0	0	0	508	622	
5	0	0	0	0	509	622	
6	0	0	0	0	509	624	
7	0	0	0	0	510	623	
8	0	0	0	0	510	623	
9	0	0	0	0	510	623	
10	0	0	0	0	510	621	
11	0	0	0	0	511	624	
12	0	0	0	0	511	623	
13	0	0	0	0	512	623	
14	0	0	0	0	513	625	
15	0	0	0	0	513	624	
0	0	0	0	0	514	623	
1	0	0	0	0	514	623	
2	0	0	0	0	513	621	
3	0	0	0	0	513	623	
4	0	0	0	0	513	623	
5	0	0	0	0	512	622	
6	0	0	0	0	511	624	
7	0	0	0	0	512	623	
8	0	0	0	0	512	623	
9	0	0	0	0	512	623	
10	0	0	0	0	512	621	
11	0	0	0	0	513	623	
12	0	0	0	0	513	623	
13	0	0	0	0	515	622	
14	0	0	0	0	516	624	
15	0	0	0	0	517	623	
0	0	0	0	0	518	623	
1	0	0	0	0	519	623	
2	0	0	0	0	519	620	
3	0	0	0	0	518	623	
4	0	0	0	0	518	623	
5	0	0	0	0	518	622	
6	0	0	0	0	519	624	
7	0	0	0	0	519	622	
8	0	0	0	0	519	622	
9	0	0	0	0	520	622	
10	0	0	0	0	521	620	
11	0	0	0	0	521	622	
12	0	0	0	0	521	621	
13	0	0	0	0	521	622	
14	0	0	0	0	522	623	
15	0	0	0	0	522	621	
0	0	0	0	0	522	621	
1	0	0	0	0	521	621	
2	0	0	0	0	521	619	
3	0	0	0	0	521	621	
4	0	0	0	0	522	621	
5	0	0	0	0	521	620	
6	0	0	0	0	521	622	
7	0	0	0	0	522	620	
8	0	0	0	0	523	620	
9	0	0	0	0	523	619	
10	0	0	0	0	522	618	
11	0	0	0	0	523	620	
12	0	0	0	0	523	620	
13	0	0	0	0	524	621	
14	0	0	0	0	524	622	
15	0	0	0	0	524	620	
0	0	0	0	0	523	621	
1	0	0	0	0	523	621	
2	0	0	0	0	523	619	
3	0	0	0	0	521	620	
4	0	0	0	0	521	620	
5	0	0	0	0	520	620	
6	0	0	0	0	520	622	
7	0	0	0	0	521	621	
8	0	0	0	0	521	620	
9	0	0	0	0	521	621	
10	0	0	0	0	522	619	
11	0	0	0	0	522	620	
12	0	0	0	0	522	620	
13	0	0	0	0	522	620	
14	0	0	0	0	523	622	
15	0	0	0	0	522	620	
0	0	0	0	0	522	620	
1	0	0	0	0	522	620	
2	0	0	0	0	522	618	
3	0	0	0	0	521	619	
4	0	0	0	0	522	620	
5	0	0	0	0	521	619	
6	0	0	0	0	521	621	
7	0	0	0	0	520	620	
8	0	0	0	0	521	620	
9	0	0	0	0	521	619	
10	0	0	0	0	521	617	
11	0	0	0	0	521	619	
12	0	0	0	0	521	619	
13	0	0	0	0	521	619	
14	0	0	0	0	521	621	
15	0	0	0	0	521	619	
0	0	0	0	0	521	620	
1	0	0	0	0	521	619	
2	0	0	0	0	521	618	
3	0	0	0	0	521	620	
4	0	0	0	0	520	619	
5	0	0	0	0	519	619	
6	0	0	0	0	519	622	
7	0	0	0	0	519	620	
8	0	0	0	0	520	620	
9	0	0	0	0	520	620	
10	0	0	0	0	521	618	
11	0	0	0	0	521	619	
12	0	0	0	0	521	620	
13	0	0	0	0	521	619	
14	0	0	0	0	521	621	
15	0	0	0	0	521	620	
0	0	0	0	0	521	619	
1	0	0	0	0	521	620	
2	0	0	0	0	521	618	
3	0	0	0	0	520	620	
4	0	0	0	0	520	620	
5	0	0	0	0	520	620	
6	0	0	0	0	520	622	
7	0	0	0	0	519	620	
8	0	0	0	0	519	620	
9	0	0	0	0	519	621	
10	0	0	0	0	519	618	
11	0	0	0	0	519	620	
12	0	0	0	0	520	620	
13	0	0	0	0	521	621	
14	0	0	0	0	521	623	
15	0	0	0	0	522	621	
0	0	0	0	0	522	621	
1	0	0	0	0	522	621	
2	0	0	0	0	521	619	
3	0	0	0	0	521	621	
4	0	0	0	0	521	622	
5	0	0	0	0	520	621	
6	0	0	0	0	520	623	
7	0	0	0	0	520	621	
8	0	0	0	0	520	622	
9	0	0	0	0	520	621	
10	0	0	0	0	520	620	
11	0	0	0	0	520	622	
12	0	0	0	0	521	622	
13	0	0	0	0	522	621	
14	0	0	0	0	522	624	
15	0	0	0	0	522	622	
0	0	0	0	0	523	621	
1	0	0	0	0	523	622	
2	0	0	0	0	524	620	
3	0	0	0	0	524	622	
4	0	0	0	0	525	622	
5	0	0	0	0	525	621	
6	0	0	0	0	525	624	
7	0	0	0	0	525	622	
8	0	0	0	0	525	622	
9	0	0	0	0	525	623	
10	0	0	0	0	526	621	
11	0	0	0	0	526	624	
12	0	0	0	0	526	624	
13	0	0	0	0	526	623	
14	0	0	0	0	525	626	
15	0	0	0	0	524	624	
0	0	0	0	0	524	624	
1	0	0	0	0	524	624	
2	0	0	0	0	525	622	
3	0	0	0	0	524	624	
4	0	0	0	0	524	623	
5	0	0	0	0	524	624	
6	0	0	0	0	524	626	
7	0	0	0	0	524	624	
8	0	0	0	0	525	623	
9	0	0	0	0	524	623	
10	0	0	0	0	524	622	
11	0	0	0	0	524	624	
12	0	0	0	0	523	624	
13	0	0	0	0	523	624	
14	0	0	0	0	522	625	
15	0	0	0	0	522	624	
0	0	0	0	0	523	623	
1	0	0	0	0	523	623	
2	0	0	0	0	523	622	
3	0	0	0	0	523	623	
4	0	0	0	0	523	623	
5	0	0	0	0	523	623	
6	0	0	0	0	522	625	
7	0	0	0	0	522	623	
8	0	0	0	0	521	623	
9	0	0	0	0	521	623	
10	0	0	0	0	521	621	
11	0	0	0	0	520	623	
12	0	0	0	0	520	623	
13	0	0	0	0	519	622	
14	0	0	0	0	519	624	
15	0	0	0	0	519	622	
0	0	0	0	0	519	622	
1	0	0	0	0	518	621	
2	0	0	0	0	518	620	
3	0	0	0	0	518	622	
4	0	0	0	0	518	622	
5	0	0	0	0	519	622	
6	0	0	0	0	518	623	
7	0	0	0	0	518	621	
8	0	0	0	0	518	621	
9	0	0	0	0	517	621	
10	0	0	0	0	517	619	
11	0	0	0	0	517	620	
12	0	0	0	0	516	620	
13	0	0	0	0	516	620	
14	0	0	0	0	516	623	
15	0	0	0	0	516	620	
0	0	0	0	0	516	621	
1	0	0	0	0	516	621	
2	0	0	0	0	515	619	
3	0	0	0	0	515	621	
4	0	0	0	0	513	622	
5	0	0	0	0	513	621	
6	0	0	0	0	513	623	
7	0	0	0	0	512	621	
8	0	0	0	0	512	622	
9	0	0	0	0	512	621	
10	0	0	0	0	512	619	
11	0	0	0	0	511	621	
12	0	0	0	0	512	620	
13	0	0	0	0	512	622	
14	0	0	0	0	513	623	
15	0	0	0	0	513	620	
0	0	0	0	0	513	620	
1	0	0	0	0	513	620	
2	0	0	0	0	514	619	
3	0	0	0	0	514	621	
4	0	0	0	0	514	621	
5	0	0	0	0	514	621	
6	0	0	0	0	515	623	
7	0	0	0	0	516	621	
8	0	0	0	0	517	621	
9	0	0	0	0	518	622	
10	0	0	0	0	517	620	
11	0	0	0	0	517	622	
12	0	0	0	0	518	622	
13	0	0	0	0	518	622	
14	0	0	0	0	519	623	
15	0	0	0	0	519	622	
0	0	0	0	0	519	622	
1	0	0	0	0	520	622	
2	0	0	0	0	519	620	
3	0	0	0	0	520	621	
4	0	0	0	0	520	621	
5	0	0	0	0	521	621	
6	0	0	0	0	523	623	
7	0	0	0	0	524	621	
8	0	0	0	0	525	621	
9	0	0	0	0	526	620	
10	0	0	0	0	527	619	
11	0	0	0	0	528	620	
12	0	0	0	0	528	622	
13	0	0	0	0	529	620	
14	0	0	0	0	528	622	
15	0	0	0	0	529	620	
0	0	0	0	0	529	620	
1	0	0	0	0	530	620	
2	0	0	0	0	530	619	
3	0	0	0	0	531	620	
4	0	0	0	0	530	620	
5	0	0	0	0	530	621	
6	0	0	0	0	531	622	
7	0	0	0	0	530	620	
8	0	0	0	0	529	620	
9	0	0	0	0	529	620	
10	0	0	0	0	529	618	
11	0	0	0	0	529	620	
12	0	0	0	0	528	620	
13	0	0	0	0	527	620	
14	0	0	0	0	527	622	
15	0	0	0	0	525	620	
0	0	0	0	0	525	620	
1	0	0	0	0	524	621	
2	0	0	0	0	524	619	
3	0	0	0	0	524	621	
4	0	0	0	0	523	621	
5	0	0	0	0	522	621	
6	0	0	0	0	522	623	
7	0	0	0	0	521	621	
8	0	0	0	0	520	621	
9	0	0	0	0	519	622	
10	0	0	0	0	519	620	
11	0	0	0	0	518	621	
12	0	0	0	0	518	622	
13	0	0	0	0	518	620	
14	0	0	0	0	518	623	
15	0	0	0	0	518	620	
0	0	0	0	0	517	621	
1	0	0	0	0	517	620	
2	0	0	0	0	516	618	
3	0	0	0	0	516	620	
4	0	0	0	0	517	620	
5	0	0	0	0	518	619	
6	0	0	0	0	518	621	
7	0	0	0	0	517	619	
8	0	0	0	0	517	619	
9	0	0	0	0	517	619	
10	0	0	0	0	518	617	
11	0	0	0	0	517	619	
12	0	0	0	0	517	619	
13	0	0	0	0	518	618	
14	0	0	0	0	518	620	
15	0	0	0	0	519	618	
0	0	0	0	0	518	617	
1	0	0	0	0	517	617	
2	0	0	0	0	517	615	
3	0	0	0	0	516	618	
4	0	0	0	0	516	618	
5	0	0	0	0	516	617	
6	0	0	0	0	517	620	
7	0	0	0	0	517	618	
8	0	0	0	0	516	618	
9	0	0	0	0	516	618	
10	0	0	0	0	515	617	
11	0	0	0	0	515	617	
12	0	0	0	0	515	619	
13	0	0	0	0	516	618	
14	0	0	0	0	516	621	
15	0	0	0	0	515	620	
0	0	0	0	0	515	620	
1	0	0	0	0	515	620	
2	0	0	0	0	516	619	
3	0	0	0	0	516	622	
4	0	0	0	0	516	621	
5	0	0	0	0	515	621	
6	0	0	0	0	515	624	
7	0	0	0	0	515	621	
8	0	0	0	0	515	622	
9	0	0	0	0	514	622	
10	0	0	0	0	514	620	
11	0	0	0	0	513	622	
12	0	0	0	0	512	621	
13	0	0	0	0	512	621	
14	0	0	0	0	513	623	
15	0	0	0	0	513	621	
0	0	0	0	0	513	620	
1	0	0	0	0	512	621	
2	0	0	0	0	512	619	
3	0	0	0	0	512	621	
4	0	0	0	0	512	621	
5	0	0	0	0	512	621	
6	0	0	0	0	512	624	
7	0	0	0	0	511	622	
8	0	0	0	0	512	622	
9	0	0	0	0	512	622	
10	0	0	0	0	512	620	
11	0	0	0	0	511	623	
12	0	0	0	0	509	623	
13	0	0	0	0	506	624	
14	0	0	0	0	503	626	
15	0	0	0	0	499	624	
0	0	0	0	0	494	625	
1	0	0	0	0	487	625	
2	0	0	0	0	479	623	
3	0	0	0	0	468	625	
4	0	0	0	0	458	625	
5	0	0	0	0	447	625	
6	0	0	0	0	435	627	
7	0	0	0	0	425	625	
8	0	0	0	0	415	625	
9	0	0	0	0	408	625	
10	0	0	0	0	403	623	
11	0	0	0	0	400	624	
12	0	0	0	0	396	624	
13	0	0	0	0	392	624	
14	0	0	0	0	391	626	
15	0	0	0	0	390	623	
0	0	0	0	0	393	622	
1	0	0	0	0	399	622	
2	0	0	0	0	407	620	
3	0	0	0	0	419	621	
4	0	0	0	0	435	622	
5	0	0	0	0	452	621	
6	0	0	0	0	473	622	
7	0	0	0	0	496	620	
8	0	0	0	0	524	620	
9	0	0	0	0	555	620	
10	0	0	0	0	592	618	
11	0	0	0	0	633	620	
12	0	0	0	0	677	620	
13	0	0	0	0	723	620	
14	0	0	0	0	772	622	
15	0	0	0	0	822	620	
0	0	0	0	0	871	620	
1	0	0	0	0	919	620	
2	0	0	0	0	964	618	
3	0	0	0	0	1006	620	
4	0	0	0	0	1022	620	
5	0	0	0	0	1022	620	
6	0	0	0	0	1022	621	
7	0	0	0	0	1022	619	
8	0	0	0	0	1022	620	
9	0	0	0	0	1022	620	
10	0	0	0	0	1022	617	
11	0	0	0	0	1022	620	
12	0	0	0	0	1022	620	
13	0	0	0	0	1022	620	
14	0	0	0	0	1022	621	
15	0	0	0	0	1022	620	
0	0	0	0	0	1022	620	
1	0	0	0	0	1022	620	
2	0	0	0	0	1022	618	
3	0	0	0	0	1022	620	
4	0	0	0	0	1022	621	
5	0	0	0	0	1008	621	
6	0	0	0	0	957	623	
7	0	0	0	0	904	621	
8	0	0	0	0	853	620	
9	0	0	0	0	806	620	
10	0	0	0	0	760	618	
11	0	0	0	0	718	620	
12	0	0	0	0	679	620	
13	0	0	0	0	647	620	
14	0	0	0	0	618	622	
15	0	0	0	0	593	621	
0	0	0	0	0	571	621	
1	0	0	0	0	552	621	
2	0	0	0	0	535	619	
3	0	0	0	0	519	621	
4	0	0	0	0	505	621	
5	0	0	0	0	490	621	
6	0	0	0	0	478	623	
7	0	0	0	0	467	621	
8	0	0	0	0	456	621	
9	0	0	0	0	445	622	
10	0	0	0	0	434	619	
11	0	0	0	0	423	621	
12	0	0	0	0	413	621	
13	0	0	0	0	403	621	
14	0	0	0	0	394	623	
15	0	0	0	0	385	621	
0	0	0	0	0	376	620	
1	0	0	0	0	369	621	
2	0	0	0	0	361	619	
3	0	0	0	0	355	620	
4	0	0	0	0	350	621	
5	0	0	0	0	347	621	
6	0	0	0	0	344	622	
7	0	0	0	0	341	620	
8	0	0	0	0	339	620	
9	0	0	0	0	338	620	
10	0	0	0	0	337	618	
11	0	0	0	0	336	620	
12	0	0	0	0	336	620	
13	0	0	0	0	336	620	
14	0	0	0	0	336	622	
15	0	0	0	0	336	620	
0	0	0	0	0	336	620	
1	0	0	0	0	337	621	
2	0	0	0	0	336	619	
3	0	0	0	0	337	620	
4	0	0	0	0	337	621	
5	0	0	0	0	337	622	
6	0	0	0	0	338	623	
7	0	0	0	0	339	622	
8	0	0	0	0	340	622	
9	0	0	0	0	341	623	
10	0	0	0	0	341	621	
11	0	0	0	0	343	624	
12	0	0	0	0	343	623	
13	0	0	0	0	344	624	
14	0	0	0	0	345	625	
15	0	0	0	0	347	624	
0	0	0	0	0	348	624	
1	0	0	0	0	349	624	
2	0	0	0	0	351	622	
3	0	0	0	0	352	624	
4	0	0	0	0	353	624	
5	0	0	0	0	354	624	
6	0	0	0	0	354	625	
7	0	0	0	0	356	623	
8	0	0	0	0	357	623	
9	0	0	0	0	359	623	
10	0	0	0	0	359	621	
11	0	0	0	0	361	623	
12	0	0	0	0	362	622	
13	0	0	0	0	364	622	
14	0	0	0	0	366	624	
15	0	0	0	0	367	622	
0	0	0	0	0	369	622	
1	0	0	0	0	370	623	
2	0	0	0	0	371	620	
3	0	0	0	0	371	622	
4	0	0	0	0	372	622	
5	0	0	0	0	373	621	
6	0	0	0	0	374	623	
7	0	0	0	0	375	621	
8	0	0	0	0	376	622	
9	0	0	0	0	377	620	
10	0	0	0	0	378	619	
11	0	0	0	0	379	621	
12	0	0	0	0	380	621	
13	0	0	0	0	382	621	
14	0	0	0	0	384	622	
15	0	0	0	0	385	620	
0	0	0	0	0	387	621	
1	0	0	0	0	388	621	
2	0	0	0	0	389	619	
3	0	0	0	0	389	621	
4	0	0	0	0	390	622	
5	0	0	0	0	391	621	
6	0	0	0	0	391	623	
7	0	0	0	0	392	622	
8	0	0	0	0	393	621	
9	0	0	0	0	395	620	
10	0	0	0	0	396	618	
11	0	0	0	0	396	621	
12	0	0	0	0	397	620	
13	0	0	0	0	398	620	
14	0	0	0	0	398	622	
15	0	0	0	0	399	620	
0	0	0	0	0	401	620	
1	0	0	0	0	402	619	
2	0	0	0	0	402	617	
3	0	0	0	0	403	619	
4	0	0	0	0	403	619	
5	0	0	0	0	403	619	
6	0	0	0	0	404	620	
7	0	0	0	0	404	618	
8	0	0	0	0	405	618	
9	0	0	0	0	406	618	
10	0	0	0	0	407	616	
11	0	0	0	0	408	618	
12	0	0	0	0	410	619	
13	0	0	0	0	411	618	
14	0	0	0	0	412	620	
15	0	0	0	0	412	618	
0	0	0	0	0	412	618	
1	0	0	0	0	414	619	
2	0	0	0	0	414	617	
3	0	0	0	0	415	619	
4	0	0	0	0	415	619	
5	0	0	0	0	416	619	
6	0	0	0	0	416	622	
7	0	0	0	0	416	620	
8	0	0	0	0	416	620	
9	0	0	0	0	417	621	
10	0	0	0	0	418	620	
11	0	0	0	0	420	621	
12	0	0	0	0	420	622	
13	0	0	0	0	422	623	
14	0	0	0	0	423	624	
15	0	0	0	0	423	623	
0	0	0	0	0	424	624	
1	0	0	0	0	426	624	
2	0	0	0	0	428	622	
3	0	0	0	0	430	624	
4	0	0	0	0	431	624	
5	0	0	0	0	433	625	
6	0	0	0	0	434	626	
7	0	0	0	0	435	624	
8	0	0	0	0	437	624	
9	0	0	0	0	438	624	
10	0	0	0	0	439	622	
11	0	0	0	0	441	624	
12	0	0	0	0	443	624	
13	0	0	0	0	444	624	
14	0	0	0	0	446	626	
15	0	0	0	0	447	624	
0	0	0	0	0	448	624	
1	0	0	0	0	450	624	
2	0	0	0	0	451	623	
3	0	0	0	0	453	624	
4	0	0	0	0	455	624	
5	0	0	0	0	455	624	
6	0	0	0	0	457	626	
7	0	0	0	0	458	624	
8	0	0	0	0	460	624	
9	0	0	0	0	462	625	
10	0	0	0	0	463	623	
11	0	0	0	0	465	625	
12	0	0	0	0	467	625	
13	0	0	0	0	469	624	
14	0	0	0	0	471	626	
15	0	0	0	0	472	624	
0	0	0	0	0	473	624	
1	0	0	0	0	474	624	
2	0	0	0	0	475	622	
3	0	0	0	0	475	623	
4	0	0	0	0	476	623	
5	0	0	0	0	476	623	
6	0	0	0	0	477	624	
7	0	0	0	0	478	621	
8	0	0	0	0	478	621	
9	0	0	0	0	479	622	
10	0	0	0	0	481	620	
11	0	0	0	0	481	621	
12	0	0	0	0	483	620	
13	0	0	0	0	484	620	
14	0	0	0	0	486	621	
15	0	0	0	0	487	620	
0	0	0	0	0	487	620	
1	0	0	0	0	488	620	
2	0	0	0	0	489	618	
3	0	0	0	0	490	619	
4	0	0	0	0	491	620	
5	0	0	0	0	491	620	
6	0	0	0	0	491	622	
7	0	0	0	0	492	620	
8	0	0	0	0	491	620	
9	0	0	0	0	491	620	
10	0	0	0	0	491	619	
11	0	0	0	0	491	620	
12	0	0	0	0	491	620	
13	0	0	0	0	492	620	
14	0	0	0	0	493	622	
15	0	0	0	0	493	620	
0	0	0	0	0	494	621	
1	0	0	0	0	494	620	
2	0	0	0	0	495	619	
3	0	0	0	0	495	621	
4	0	0	0	0	495	621	
5	0	0	0	0	495	621	
6	0	0	0	0	496	623	
7	0	0	0	0	496	622	
8	0	0	0	0	496	622	
9	0	0	0	0	496	622	
10	0	0	0	0	496	622	
11	0	0	0	0	496	622	
12	0	0	0	0	495	622	
13	0	0	0	0	496	622	
14	0	0	0	0	496	624	
15	0	0	0	0	496	623	
0	0	0	0	0	497	622	
1	0	0	0	0	497	621	
2	0	0	0	0	497	619	
3	0	0	0	0	497	621	
4	0	0	0	0	497	621	
5	0	0	0	0	497	620	
6	0	0	0	0	498	621	
7	0	0	0	0	498	620	
8	0	0	0	0	499	620	
9	0	0	0	0	499	619	
10	0	0	0	0	499	618	
11	0	0	0	0	500	619	
12	0	0	0	0	500	619	
13	0	0	0	0	500	619	
14	0	0	0	0	500	621	
15	0	0	0	0	500	620	
0	0	0	0	0	500	619	
1	0	0	0	0	501	620	
2	0	0	0	0	502	618	
3	0	0	0	0	503	620	
4	0	0	0	0	503	620	
5	0	0	0	0	504	620	
6	0	0	0	0	505	622	
7	0	0	0	0	506	621	
8	0	0	0	0	506	622	
9	0	0	0	0	506	622	
10	0	0	0	0	507	620	
11	0	0	0	0	507	623	
12	0	0	0	0	507	623	
13	0	0	0	0	507	623	
14	0	0	0	0	507	624	
15	0	0	0	0	508	624	
0	0	0	0	0	508	623	
1	0	0	0	0	509	624	
2	0	0	0	0	509	622	
3	0	0	0	0	510	624	
4	0	0	0	0	511	625	
5	0	0	0	0	512	624	
6	0	0	0	0	512	627	
7	0	0	0	0	512	624	
8	0	0	0	0	512	624	
9	0	0	0	0	512	624	
10	0	0	0	0	512	622	
11	0	0	0	0	512	624	
12	0	0	0	0	512	624	
13	0	0	0	0	512	624	
14	0	0	0	0	511	625	
15	0	0	0	0	511	624	
0	0	0	0	0	511	623	
1	0	0	0	0	511	624	
2	0	0	0	0	512	621	
3	0	0	0	0	512	623	
4	0	0	0	0	513	623	
5	0	0	0	0	513	622	
6	0	0	0	0	514	624	
7	0	0	0	0	515	622	
8	0	0	0	0	515	622	
9	0	0	0	0	516	623	
10	0	0	0	0	517	620	
11	0	0	0	0	517	621	
12	0	0	0	0	517	621	
13	0	0	0	0	516	621	
14	0	0	0	0	516	623	
15	0	0	0	0	517	621	
0	0	0	0	0	516	621	
1	0	0	0	0	516	622	
2	0	0	0	0	516	619	
3	0	0	0	0	516	621	
4	0	0	0	0	517	620	
5	0	0	0	0	517	621	
6	0	0	0	0	518	623	
7	0	0	0	0	518	621	
8	0	0	0	0	518	621	
9	0	0	0	0	518	622	
10	0	0	0	0	518	619	
11	0	0	0	0	518	621	
12	0	0	0	0	517	621	
13	0	0	0	0	517	621	
14	0	0	0	0	516	623	
15	0	0	0	0	516	621	
0	0	0	0	0	515	621	
1	0	0	0	0	515	621	
2	0	0	0	0	515	619	
3	0	0	0	0	515	620	
4	0	0	0	0	515	620	
5	0	0	0	0	515	620	
6	0	0	0	0	514	622	
7	0	0	0	0	514	620	
8	0	0	0	0	514	619	
9	0	0	0	0	513	618	
10	0	0	0	0	513	616	
11	0	0	0	0	514	618	
12	0	0	0	0	513	617	
13	0	0	0	0	513	619	
14	0	0	0	0	513	620	
15	0	0	0	0	513	617	
0	0	0	0	0	513	618	
1	0	0	0	0	513	618	
2	0	0	0	0	513	615	
3	0	0	0	0	513	619	
4	0	0	0	0	513	618	
5	0	0	0	0	512	619	
6	0	0	0	0	513	620	
7	0	0	0	0	513	619	
8	0	0	0	0	514	619	
9	0	0	0	0	514	619	
10	0	0	0	0	514	617	
11	0	0	0	0	514	619	
12	0	0	0	0	514	619	
13	0	0	0	0	515	620	
14	0	0	0	0	515	622	
15	0	0	0	0	515	620	
0	0	0	0	0	515	620	
1	0	0	0	0	514	621	
2	0	0	0	0	514	619	
3	0	0	0	0	514	621	
4	0	0	0	0	514	621	
5	0	0	0	0	514	622	
6	0	0	0	0	514	624	
7	0	0	0	0	514	622	
8	0	0	0	0	514	622	
9	0	0	0	0	514	622	
10	0	0	0	0	514	620	
11	0	0	0	0	514	623	
12	0	0	0	0	514	623	
13	0	0	0	0	514	623	
14	0	0	0	0	515	624	
15	0	0	0	0	515	623	
0	0	0	0	0	515	623	
1	0	0	0	0	515	624	
2	0	0	0	0	515	621	
3	0	0	0	0	514	624	
4	0	0	0	0	514	624	
5	0	0	0	0	515	624	
6	0	0	0	0	515	625	
7	0	0	0	0	515	624	
8	0	0	0	0	515	624	
9	0	0	0	0	515	624	
10	0	0	0	0	515	623	
11	0	0	0	0	515	624	
12	0	0	0	0	516	624	
13	0	0	0	0	517	624	
14	0	0	0	0	518	627	
15	0	0	0	0	518	624	
0	0	0	0	0	518	623	
1	0	0	0	0	518	623	
2	0	0	0	0	519	621	
3	0	0	0	0	519	622	
4	0	0	0	0	520	623	
5	0	0	0	0	520	622	
6	0	0	0	0	520	624	
7	0	0	0	0	519	622	
8	0	0	0	0	519	622	
9	0	0	0	0	519	621	
10	0	0	0	0	519	619	
11	0	0	0	0	519	620	
12	0	0	0	0	518	620	
13	0	0	0	0	518	621	
14	0	0	0	0	518	623	
15	0	0	0	0	517	621	
0	0	0	0	0	517	621	
1	0	0	0	0	517	622	
2	0	0	0	0	517	620	
3	0	0	0	0	518	621	
4	0	0	0	0	519	622	
5	0	0	0	0	519	622	
6	0	0	0	0	519	623	
7	0	0	0	0	520	622	
8	0	0	0	0	521	623	
9	0	0	0	0	520	623	
10	0	0	0	0	521	621	
11	0	0	0	0	521	623	
12	0	0	0	0	520	623	
13	0	0	0	0	521	624	
14	0	0	0	0	522	624	
15	0	0	0	0	522	623	
0	0	0	0	0	522	623	
1	0	0	0	0	523	623	
2	0	0	0	0	523	622	
3	0	0	0	0	522	624	
4	0	0	0	0	522	623	
5	0	0	0	0	522	623	
6	0	0	0	0	521	624	
7	0	0	0	0	521	622	
8	0	0	0	0	521	623	
9	0	0	0	0	521	623	
10	0	0	0	0	521	621	
11	0	0	0	0	522	622	
12	0	0	0	0	522	622	
13	0	0	0	0	523	622	
14	0	0	0	0	523	623	
15	0	0	0	0	523	621	
0	0	0	0	0	523	620	
1	0	0	0	0	523	620	
2	0	0	0	0	523	617	
3	0	0	0	0	523	620	
4	0	0	0	0	523	620	
5	0	0	0	0	522	619	
6	0	0	0	0	522	620	
7	0	0	0	0	522	618	
8	0	0	0	0	521	618	
9	0	0	0	0	520	618	
10	0	0	0	0	520	616	
11	0	0	0	0	519	618	
12	0	0	0	0	519	617	
13	0	0	0	0	518	617	
14	0	0	0	0	517	619	
15	0	0	0	0	517	617	
0	0	0	0	0	517	617	
1	0	0	0	0	516	617	
2	0	0	0	0	516	615	
3	0	0	0	0	515	617	
4	0	0	0	0	515	618	
5	0	0	0	0	515	617	
6	0	0	0	0	514	620	
7	0	0	0	0	514	619	
8	0	0	0	0	514	619	
9	0	0	0	0	514	620	
10	0	0	0	0	513	618	
11	0	0	0	0	513	620	
12	0	0	0	0	514	621	
13	0	0	0	0	514	620	
14	0	0	0	0	514	623	
15	0	0	0	0	514	621	
0	0	0	0	0	515	621	
1	0	0	0	0	514	621	
2	0	0	0	0	512	619	
3	0	0	0	0	511	621	
4	0	0	0	0	510	620	
5	0	0	0	0	510	620	
6	0	0	0	0	510	622	
7	0	0	0	0	510	621	
8	0	0	0	0	509	620	
9	0	0	0	0	508	620	
10	0	0	0	0	507	618	
11	0	0	0	0	507	620	
12	0	0	0	0	507	620	
13	0	0	0	0	507	619	
14	0	0	0	0	506	621	
15	0	0	0	0	506	619	
0	0	0	0	0	505	619	
1	0	0	0	0	504	619	
2	0	0	0	0	505	616	
3	0	0	0	0	505	618	
4	0	0	0	0	506	619	
5	0	0	0	0	507	619	
6	0	0	0	0	508	620	
7	0	0	0	0	509	619	
8	0	0	0	0	510	619	
9	0	0	0	0	510	620	
10	0	0	0	0	511	618	
11	0	0	0	0	511	621	
12	0	0	0	0	511	622	
13	0	0	0	0	511	622	
14	0	0	0	0	512	624	
15	0	0	0	0	512	623	
0	0	0	0	0	512	624	
1	0	0	0	0	512	626	
2	0	0	0	0	513	624	
3	0	0	0	0	513	626	
4	0	0	0	0	513	627	
5	0	0	0	0	513	627	
6	0	0	0	0	513	629	
7	0	0	0	0	513	627	
8	0	0	0	0	513	627	
9	0	0	0	0	513	628	
10	0	0	0	0	514	626	
11	0	0	0	0	515	627	
12	0	0	0	0	515	627	
13	0	0	0	0	515	627	
14	0	0	0	0	516	628	
15	0	0	0	0	517	626	
0	0	0	0	0	519	625	
1	0	0	0	0	519	624	
2	0	0	0	0	520	622	
3	0	0	0	0	521	623	
4	0	0	0	0	522	622	
5	0	0	0	0	522	622	
6	0	0	0	0	522	623	
7	0	0	0	0	523	620	
8	0	0	0	0	523	620	
9	0	0	0	0	523	620	
10	0	0	0	0	524	619	
11	0	0	0	0	524	620	
12	0	0	0	0	524	620	
13	0	0	0	0	524	620	
14	0	0	0	0	524	621	
15	0	0	0	0	525	620	
0	0	0	0	0	525	620	
1	0	0	0	0	524	620	
2	0	0	0	0	523	618	
3	0	0	0	0	523	620	
4	0	0	0	0	521	620	
5	0	0	0	0	520	620	
6	0	0	0	0	519	622	
7	0	0	0	0	519	620	
8	0	0	0	0	516	620	
9	0	0	0	0	515	620	
10	0	0	0	0	514	618	
11	0	0	0	0	513	620	
12	0	0	0	0	513	620	
13	0	0	0	0	513	620	
14	0	0	0	0	512	621	
15	0	0	0	0	512	620	
0	0	0	0	0	512	620	
1	0	0	0	0	513	620	
2	0	0	0	0	512	619	
3	0	0	0	0	512	620	
4	0	0	0	0	512	620	
5	0	0	0	0	512	620	
6	0	0	0	0	513	622	
7	0	0	0	0	514	621	
8	0	0	0	0	514	621	
9	0	0	0	0	514	621	
10	0	0	0	0	513	620	
11	0	0	0	0	513	622	
12	0	0	0	0	512	621	
13	0	0	0	0	513	621	
14	0	0	0	0	513	623	
15	0	0	0	0	513	621	
0	0	0	0	0	512	620	
1	0	0	0	0	511	621	
2	0	0	0	0	511	618	
3	0	0	0	0	511	620	
4	0	0	0	0	511	620	
5	0	0	0	0	511	620	
6	0	0	0	0	510	622	
7	0	0	0	0	510	620	
8	0	0	0	0	510	620	
9	0	0	0	0	509	619	
10	0	0	0	0	509	617	
11	0	0	0	0	508	619	
12	0	0	0	0	509	619	
13	0	0	0	0	509	619	
14	0	0	0	0	508	621	
15	0	0	0	0	508	619	
0	0	0	0	0	507	619	
1	0	0	0	0	506	620	
2	0	0	0	0	506	618	
3	0	0	0	0	506	621	
4	0	0	0	0	507	621	
5	0	0	0	0	506	621	
6	0	0	0	0	506	624	
7	0	0	0	0	505	622	
8	0	0	0	0	505	623	
9	0	0	0	0	504	622	
10	0	0	0	0	504	620	
11	0	0	0	0	505	624	
12	0	0	0	0	505	624	
13	0	0	0	0	505	624	
14	0	0	0	0	506	625	
15	0	0	0	0	505	624	
0	0	0	0	0	505	623	
1	0	0	0	0	505	623	
2	0	0	0	0	505	622	
3	0	0	0	0	505	622	
4	0	0	0	0	504	622	
5	0	0	0	0	505	622	
6	0	0	0	0	504	624	
7	0	0	0	0	503	621	
8	0	0	0	0	503	620	
9	0	0	0	0	503	620	
10	0	0	0	0	503	619	
11	0	0	0	0	502	620	
12	0	0	0	0	502	619	
13	0	0	0	0	502	618	
14	0	0	0	0	501	620	
15	0	0	0	0	501	618	
0	0	0	0	0	500	619	
1	0	0	0	0	499	618	
2	0	0	0	0	497	616	
3	0	0	0	0	495	619	
4	0	0	0	0	491	619	
5	0	0	0	0	484	620	
6	0	0	0	0	477	622	
7	0	0	0	0	468	620	
8	0	0	0	0	459	620	
9	0	0	0	0	448	620	
10	0	0	0	0	436	618	
11	0	0	0	0	425	620	
12	0	0	0	0	413	620	
13	0	0	0	0	403	620	
14	0	0	0	0	394	623	
15	0	0	0	0	389	622	
0	0	0	0	0	385	622	
1	0	0	0	0	381	621	
2	0	0	0	0	377	620	
3	0	0	0	0	376	622	
4	0	0	0	0	375	621	
5	0	0	0	0	376	621	
6	0	0	0	0	381	623	
7	0	0	0	0	390	621	
8	0	0	0	0	401	621	
9	0	0	0	0	416	621	
10	0	0	0	0	435	619	
11	0	0	0	0	456	621	
12	0	0	0	0	481	621	
13	0	0	0	0	512	621	
14	0	0	0	0	547	624	
15	0	0	0	0	587	622	
0	0	0	0	0	630	622	
1	0	0	0	0	678	623	
2	0	0	0	0	728	621	
3	0	0	0	0	782	623	
4	0	0	0	0	834	623	
5	0	0	0	0	886	624	
6	0	0	0	0	935	627	
7	0	0	0	0	982	625	
8	0	0	0	0	1020	627	
9	0	0	0	0	1022	627	
10	0	0	0	0	1022	625	
11	0	0	0	0	1022	628	
12	0	0	0	0	1022	628	
13	0	0	0	0	1022	629	
14	0	0	0	0	1022	630	
15	0	0	0	0	1022	628	
0	0	0	0	0	1022	628	
1	0	0	0	0	1022	628	
2	0	0	0	0	1022	625	
3	0	0	0	0	1022	627	
4	0	0	0	0	1022	626	
5	0	0	0	0	1022	625	
6	0	0	0	0	1022	627	
7	0	0	0	0	1022	624	
8	0	0	0	0	1022	623	
9	0	0	0	0	1022	623	
10	0	0	0	0	1004	620	
11	0	0	0	0	952	621	
12	0	0	0	0	898	620	
13	0	0	0	0	845	620	
14	0	0	0	0	796	621	
15	0	0	0	0	750	620	
0	0	0	0	0	707	619	
1	0	0	0	0	669	619	
2	0	0	0	0	636	617	
3	0	0	0	0	608	620	
4	0	0	0	0	583	619	
5	0	0	0	0	562	619	
6	0	0	0	0	543	621	
7	0	0	0	0	526	619	
8	0	0	0	0	510	619	
9	0	0	0	0	495	619	
10	0	0	0	0	482	618	
11	0	0	0	0	469	619	
12	0	0	0	0	455	620	
13	0	0	0	0	443	620	
14	0	0	0	0	431	622	
15	0	0	0	0	419	620	
0	0	0	0	0	408	620	
1	0	0	0	0	398	620	
2	0	0	0	0	390	617	
3	0	0	0	0	381	620	
4	0	0	0	0	373	620	
5	0	0	0	0	366	619	
6	0	0	0	0	359	621	
7	0	0	0	0	352	619	
8	0	0	0	0	346	619	
9	0	0	0	0	342	619	
10	0	0	0	0	338	616	
11	0	0	0	0	335	618	
12	0	0	0	0	333	618	
13	0	0	0	0	330	617	
14	0	0	0	0	329	620	
15	0	0	0	0	328	618	
0	0	0	0	0	327	617	
1	0	0	0	0	325	617	
2	0	0	0	0	324	615	
3	0	0	0	0	323	617	
4	0	0	0	0	323	617	
5	0	0	0	0	323	617	
6	0	0	0	0	323	619	
7	0	0	0	0	324	617	
8	0	0	0	0	325	617	
9	0	0	0	0	325	617	
10	0	0	0	0	326	615	
11	0	0	0	0	327	617	
12	0	0	0	0	327	617	
13	0	0	0	0	328	618	
14	0	0	0	0	330	619	
15	0	0	0	0	332	617	
0	0	0	0	0	332	618	
1	0	0	0	0	334	618	
2	0	0	0	0	335	615	
3	0	0	0	0	336	618	
4	0	0	0	0	337	618	
5	0	0	0	0	338	619	
6	0	0	0	0	339	621	
7	0	0	0	0	341	619	
8	0	0	0	0	343	619	
9	0	0	0	0	344	620	
10	0	0	0	0	345	620	
11	0	0	0	0	346	622	
12	0	0	0	0	347	623	
13	0	0	0	0	348	624	
14	0	0	0	0	349	626	
15	0	0	0	0	351	625	
0	0	0	0	0	351	626	
1	0	0	0	0	352	627	
2	0	0	0	0	353	626	
3	0	0	0	0	353	628	
4	0	0	0	0	354	628	
5	0	0	0	0	356	629	
6	0	0	0	0	358	631	
7	0	0	0	0	360	630	
8	0	0	0	0	361	629	
9	0	0	0	0	363	630	
10	0	0	0	0	364	627	
11	0	0	0	0	366	628	
12	0	0	0	0	367	628	
13	0	0	0	0	368	628	
14	0	0	0	0	369	628	
15	0	0	0	0	370	626	
0	0	0	0	0	371	625	
1	0	0	0	0	372	624	
2	0	0	0	0	374	622	
3	0	0	0	0	374	622	
4	0	0	0	0	375	622	
5	0	0	0	0	376	621	
6	0	0	0	0	377	622	
7	0	0	0	0	378	620	
8	0	0	0	0	379	619	
9	0	0	0	0	380	619	
10	0	0	0	0	381	617	
11	0	0	0	0	382	619	
12	0	0	0	0	383	619	
13	0	0	0	0	384	619	
14	0	0	0	0	384	621	
15	0	0	0	0	385	618	
0	0	0	0	0	386	619	
1	0	0	0	0	387	620	
2	0	0	0	0	388	618	
3	0	0	0	0	390	621	
4	0	0	0	0	391	621	
5	0	0	0	0	391	621	
6	0	0	0	0	392	623	
7	0	0	0	0	392	623	
8	0	0	0	0	392	623	
9	0	0	0	0	393	623	
10	0	0	0	0	394	621	
11	0	0	0	0	395	623	
12	0	0	0	0	395	623	
13	0	0	0	0	395	623	
14	0	0	0	0	396	625	
15	0	0	0	0	396	624	
0	0	0	0	0	397	624	
1	0	0	0	0	398	623	
2	0	0	0	0	399	622	
3	0	0	0	0	400	624	
4	0	0	0	0	401	624	
5	0	0	0	0	402	623	
6	0	0	0	0	403	625	
7	0	0	0	0	404	623	
8	0	0	0	0	404	623	
9	0	0	0	0	405	623	
10	0	0	0	0	406	620	
11	0	0	0	0	406	622	
12	0	0	0	0	407	621	
13	0	0	0	0	407	621	
14	0	0	0	0	408	622	
15	0	0	0	0	409	620	
0	0	0	0	0	411	620	
1	0	0	0	0	413	619	
2	0	0	0	0	415	618	
3	0	0	0	0	415	619	
4	0	0	0	0	416	619	
5	0	0	0	0	418	619	
6	0	0	0	0	419	620	
7	0	0	0	0	420	618	
8	0	0	0	0	421	618	
9	0	0	0	0	423	618	
10	0	0	0	0	424	616	
11	0	0	0	0	425	618	
12	0	0	0	0	427	618	
13	0	0	0	0	428	617	
14	0	0	0	0	430	620	
15	0	0	0	0	431	618	
0	0	0	0	0	433	618	
1	0	0	0	0	435	619	
2	0	0	0	0	436	617	
3	0	0	0	0	437	620	
4	0	0	0	0	439	620	
5	0	0	0	0	441	620	
6	0	0	0	0	443	623	
7	0	0	0	0	445	621	
8	0	0	0	0	447	621	
9	0	0	0	0	449	621	
10	0	0	0	0	451	620	
11	0	0	0	0	453	622	
12	0	0	0	0	455	622	
13	0	0	0	0	456	622	
14	0	0	0	0	459	623	
15	0	0	0	0	460	621	
0	0	0	0	0	461	620	
1	0	0	0	0	463	620	
2	0	0	0	0	465	618	
3	0	0	0	0	466	619	
4	0	0	0	0	467	619	
5	0	0	0	0	469	619	
6	0	0	0	0	470	621	
7	0	0	0	0	472	620	
8	0	0	0	0	472	620	
9	0	0	0	0	473	621	
10	0	0	0	0	474	618	
11	0	0	0	0	474	621	
12	0	0	0	0	474	621	
13	0	0	0	0	475	622	
14	0	0	0	0	476	624	
15	0	0	0	0	477	622	
0	0	0	0	0	477	622	
1	0	0	0	0	479	623	
2	0	0	0	0	479	621	
3	0	0	0	0	480	623	
4	0	0	0	0	481	623	
5	0	0	0	0	482	623	
6	0	0	0	0	483	625	
7	0	0	0	0	484	623	
8	0	0	0	0	485	623	
9	0	0	0	0	486	623	
10	0	0	0	0	486	621	
11	0	0	0	0	487	622	
12	0	0	0	0	487	622	
13	0	0	0	0	487	623	
14	0	0	0	0	488	624	
15	0	0	0	0	488	623	
0	0	0	0	0	489	622	
1	0	0	0	0	489	623	
2	0	0	0	0	490	621	
3	0	0	0	0	491	624	
4	0	0	0	0	491	623	
5	0	0	0	0	491	623	
6	0	0	0	0	492	625	
7	0	0	0	0	492	623	
8	0	0	0	0	492	624	
9	0	0	0	0	492	623	
10	0	0	0	0	491	622	
11	0	0	0	0	491	623	
12	0	0	0	0	492	623	
13	0	0	0	0	492	623	
14	0	0	0	0	493	625	
15	0	0	0	0	494	623	
0	0	0	0	0	494	623	
1	0	0	0	0	494	622	
2	0	0	0	0	494	620	
3	0	0	0	0	492	622	
4	0	0	0	0	492	621	
5	0	0	0	0	492	621	
6	0	0	0	0	492	622	
7	0	0	0	0	493	621	
8	0	0	0	0	493	620	
9	0	0	0	0	493	621	
10	0	0	0	0	493	618	
11	0	0	0	0	494	620	
12	0	0	0	0	494	620	
13	0	0	0	0	494	619	
14	0	0	0	0	494	621	
15	0	0	0	0	494	619	
0	0	0	0	0	495	619	
1	0	0	0	0	495	619	
2	0	0	0	0	496	617	
3	0	0	0	0	496	619	
4	0	0	0	0	496	619	
5	0	0	0	0	496	619	
6	0	0	0	0	497	621	
7	0	0	0	0	497	619	
8	0	0	0	0	499	620	
9	0	0	0	0	500	620	
10	0	0	0	0	501	618	
11	0	0	0	0	502	620	
12	0	0	0	0	502	621	
13	0	0	0	0	502	621	
14	0	0	0	0	502	624	
15	0	0	0	0	503	622	
0	0	0	0	0	503	622	
1	0	0	0	0	504	623	
2	0	0	0	0	504	620	
3	0	0	0	0	504	622	
4	0	0	0	0	505	622	
5	0	0	0	0	506	622	
6	0	0	0	0	506	624	
7	0	0	0	0	506	622	
8	0	0	0	0	507	621	
9	0	0	0	0	507	621	
10	0	0	0	0	507	619	
11	0	0	0	0	507	620	
12	0	0	0	0	507	620	
13	0	0	0	0	506	620	
14	0	0	0	0	506	621	
15	0	0	0	0	506	619	
0	0	0	0	0	506	619	
1	0	0	0	0	507	619	
2	0	0	0	0	508	617	
3	0	0	0	0	508	619	
4	0	0	0	0	510	619	
5	0	0	0	0	510	619	
6	0	0	0	0	511	620	
7	0	0	0	0	511	618	
8	0	0	0	0	512	619	
9	0	0	0	0	512	619	
10	0	0	0	0	511	616	
11	0	0	0	0	512	619	
12	0	0	0	0	512	619	
13	0	0	0	0	512	619	
14	0	0	0	0	512	620	
15	0	0	0	0	513	620	
0	0	0	0	0	513	620	
1	0	0	0	0	513	621	
2	0	0	0	0	513	620	
3	0	0	0	0	513	623	
4	0	0	0	0	513	623	
5	0	0	0	0	514	624	
6	0	0	0	0	514	625	
7	0	0	0	0	514	624	
8	0	0	0	0	515	625	
9	0	0	0	0	515	625	
10	0	0	0	0	515	624	
11	0	0	0	0	515	625	
12	0	0	0	0	514	626	
13	0	0	0	0	514	626	
14	0	0	0	0	514	628	
15	0	0	0	0	515	627	
0	0	0	0	0	514	626	
1	0	0	0	0	514	626	
2	0	0	0	0	514	624	
3	0	0	0	0	513	625	
4	0	0	0	0	513	625	
5	0	0	0	0	513	624	
6	0	0	0	0	513	625	
7	0	0	0	0	513	624	
8	0	0	0	0	513	623	
9	0	0	0	0	513	622	
10	0	0	0	0	513	620	
11	0	0	0	0	513	621	
12	0	0	0	0	513	621	
13	0	0	0	0	512	620	
14	0	0	0	0	512	622	
15	0	0	0	0	512	619	
0	0	0	0	0	512	619	
1	0	0	0	0	512	619	
2	0	0	0	0	512	616	
3	0	0	0	0	512	618	
4	0	0	0	0	512	618	
5	0	0	0	0	511	618	
6	0	0	0	0	511	620	
7	0	0	0	0	512	618	
8	0	0	0	0	512	619	
9	0	0	0	0	512	619	
10	0	0	0	0	512	617	
11	0	0	0	0	513	620	
12	0	0	0	0	512	620	
13	0	0	0	0	512	620	
14	0	0	0	0	513	622	
15	0	0	0	0	512	621	
0	0	0	0	0	512	621	
1	0	0	0	0	512	621	
2	0	0	0	0	512	620	
3	0	0	0	0	511	621	
4	0	0	0	0	511	621	
5	0	0	0	0	511	621	
6	0	0	0	0	510	622	
7	0	0	0	0	510	620	
8	0	0	0	0	510	620	
9	0	0	0	0	510	620	
10	0	0	0	0	510	618	
11	0	0	0	0	510	619	
12	0	0	0	0	510	619	
13	0	0	0	0	509	619	
14	0	0	0	0	509	620	
15	0	0	0	0	510	618	
0	0	0	0	0	510	618	
1	0	0	0	0	510	618	
2	0	0	0	0	511	615	
3	0	0	0	0	512	617	
4	0	0	0	0	511	617	
5	0	0	0	0	511	617	
6	0	0	0	0	511	618	
7	0	0	0	0	511	616	
8	0	0	0	0	511	616	
9	0	0	0	0	511	617	
10	0	0	0	0	512	615	
11	0	0	0	0	513	616	
12	0	0	0	0	513	616	
13	0	0	0	0	514	616	
14	0	0	0	0	515	619	
15	0	0	0	0	515	617	
0	0	0	0	0	514	617	
1	0	0	0	0	514	617	
2	0	0	0	0	514	615	
3	0	0	0	0	514	617	
4	0	0	0	0	514	618	
5	0	0	0	0	514	618	
6	0	0	0	0	515	620	
7	0	0	0	0	516	618	
8	0	0	0	0	517	618	
9	0	0	0	0	517	618	
10	0	0	0	0	517	617	
11	0	0	0	0	518	619	
12	0	0	0	0	519	618	
13	0	0	0	0	519	619	
14	0	0	0	0	519	621	
15	0	0	0	0	518	620	
0	0	0	0	0	517	620	
1	0	0	0	0	517	620	
2	0	0	0	0	517	619	
3	0	0	0	0	517	621	
4	0	0	0	0	517	622	
5	0	0	0	0	516	622	
6	0	0	0	0	515	623	
7	0	0	0	0	515	623	
8	0	0	0	0	515	623	
9	0	0	0	0	515	623	
10	0	0	0	0	516	621	
11	0	0	0	0	516	623	
12	0	0	0	0	516	623	
13	0	0	0	0	516	623	
14	0	0	0	0	516	625	
15	0	0	0	0	516	624	
0	0	0	0	0	516	624	
1	0	0	0	0	517	624	
2	0	0	0	0	517	623	
3	0	0	0	0	517	624	
4	0	0	0	0	517	624	
5	0	0	0	0	517	624	
6	0	0	0	0	518	627	
7	0	0	0	0	518	624	
8	0	0	0	0	518	624	
9	0	0	0	0	519	624	
10	0	0	0	0	519	623	
11	0	0	0	0	519	625	
12	0	0	0	0	518	626	
13	0	0	0	0	519	625	
14	0	0	0	0	518	627	
15	0	0	0	0	517	626	
0	0	0	0	0	518	626	
1	0	0	0	0	518	627	
2	0	0	0	0	517	624	
3	0	0	0	0	517	627	
4	0	0	0	0	517	627	
5	0	0	0	0	517	627	
6	0	0	0	0	518	628	
7	0	0	0	0	518	627	
8	0	0	0	0	517	626	
9	0	0	0	0	517	626	
10	0	0	0	0	516	624	
11	0	0	0	0	516	626	
12	0	0	0	0	516	625	
13	0	0	0	0	515	625	
14	0	0	0	0	515	627	
15	0	0	0	0	515	625	
0	0	0	0	0	515	625	
1	0	0	0	0	515	624	
2	0	0	0	0	515	622	
3	0	0	0	0	515	624	
4	0	0	0	0	515	624	
5	0	0	0	0	514	624	
6	0	0	0	0	514	625	
7	0	0	0	0	514	623	
8	0	0	0	0	512	623	
9	0	0	0	0	512	622	
10	0	0	0	0	512	620	
11	0	0	0	0	512	622	
12	0	0	0	0	512	621	
13	0	0	0	0	511	621	
14	0	0	0	0	512	623	
15	0	0	0	0	512	620	
0	0	0	0	0	512	621	
1	0	0	0	0	513	620	
2	0	0	0	0	513	618	
3	0	0	0	0	512	620	
4	0	0	0	0	513	620	
5	0	0	0	0	513	620	
6	0	0	0	0	513	622	
7	0	0	0	0	512	620	
8	0	0	0	0	512	620	
9	0	0	0	0	511	621	
10	0	0	0	0	511	618	
11	0	0	0	0	510	620	
12	0	0	0	0	509	620	
13	0	0	0	0	508	620	
14	0	0	0	0	508	622	
15	0	0	0	0	507	620	
0	0	0	0	0	505	620	
1	0	0	0	0	504	620	
2	0	0	0	0	504	619	
3	0	0	0	0	503	620	
4	0	0	0	0	503	621	
5	0	0	0	0	504	621	
6	0	0	0	0	504	623	
7	0	0	0	0	505	621	
8	0	0	0	0	506	621	
9	0	0	0	0	506	621	
10	0	0	0	0	507	619	
11	0	0	0	0	508	621	
12	0	0	0	0	509	620	
13	0	0	0	0	510	621	
14	0	0	0	0	510	622	
15	0	0	0	0	511	620	
0	0	0	0	0	511	620	
1	0	0	0	0	511	620	
2	0	0	0	0	512	619	
3	0	0	0	0	513	620	
4	0	0	0	0	513	619	
5	0	0	0	0	514	619	
6	0	0	0	0	514	620	
7	0	0	0	0	514	619	
8	0	0	0	0	515	619	
9	0	0	0	0	515	619	
10	0	0	0	0	516	617	
11	0	0	0	0	517	620	
12	0	0	0	0	518	620	
13	0	0	0	0	519	620	
14	0	0	0	0	520	622	
15	0	0	0	0	521	620	
0	0	0	0	0	521	622	
1	0	0	0	0	522	622	
2	0	0	0	0	523	620	
3	0	0	0	0	524	623	
4	0	0	0	0	525	623	
5	0	0	0	0	525	623	
6	0	0	0	0	526	625	
7	0	0	0	0	526	624	
8	0	0	0	0	526	624	
9	0	0	0	0	526	624	
10	0	0	0	0	525	622	
11	0	0	0	0	525	624	
12	0	0	0	0	525	624	
13	0	0	0	0	525	623	
14	0	0	0	0	525	624	
15	0	0	0	0	525	623	
0	0	0	0	0	526	623	
1	0	0	0	0	526	622	
2	0	0	0	0	526	619	
3	0	0	0	0	526	621	
4	0	0	0	0	526	621	
5	0	0	0	0	525	621	
6	0	0	0	0	524	622	
7	0	0	0	0	524	620	
8	0	0	0	0	523	620	
9	0	0	0	0	522	620	
10	0	0	0	0	521	618	
11	0	0	0	0	520	620	
12	0	0	0	0	519	620	
13	0	0	0	0	519	620	
14	0	0	0	0	518	622	
15	0	0	0	0	517	620	
0	0	0	0	0	518	621	
1	0	0	0	0	518	621	
2	0	0	0	0	518	619	
3	0	0	0	0	518	622	
4	0	0	0	0	518	621	
5	0	0	0	0	518	622	
6	0	0	0	0	519	625	
7	0	0	0	0	518	623	
8	0	0	0	0	518	623	
9	0	0	0	0	517	624	
10	0	0	0	0	517	622	
11	0	0	0	0	517	623	
12	0	0	0	0	517	624	
13	0	0	0	0	516	624	
14	0	0	0	0	516	625	
15	0	0	0	0	515	624	
0	0	0	0	0	515	623	
1	0	0	0	0	515	622	
2	0	0	0	0	514	621	
3	0	0	0	0	514	622	
4	0	0	0	0	515	622	
5	0	0	0	0	515	621	
6	0	0	0	0	516	622	
7	0	0	0	0	516	621	
8	0	0	0	0	516	620	
9	0	0	0	0	515	620	
10	0	0	0	0	515	618	
11	0	0	0	0	515	619	
12	0	0	0	0	515	619	
13	0	0	0	0	515	619	
14	0	0	0	0	515	621	
15	0	0	0	0	515	619	
0	0	0	0	0	514	619	
1	0	0	0	0	515	619	
2	0	0	0	0	515	617	
3	0	0	0	0	515	618	
4	0	0	0	0	515	618	
5	0	0	0	0	515	618	
6	0	0	0	0	515	620	
7	0	0	0	0	515	618	
8	0	0	0	0	513	618	
9	0	0	0	0	513	619	
10	0	0	0	0	512	616	
11	0	0	0	0	512	619	
12	0	0	0	0	512	619	
13	0	0	0	0	512	619	
14	0	0	0	0	512	621	
15	0	0	0	0	512	619	
0	0	0	0	0	512	620	
1	0	0	0	0	512	619	
2	0	0	0	0	511	617	
3	0	0	0	0	512	620	
4	0	0	0	0	511	620	
5	0	0	0	0	511	620	
6	0	0	0	0	512	622	
7	0	0	0	0	512	620	
8	0	0	0	0	512	620	
9	0	0	0	0	512	620	
10	0	0	0	0	512	618	
11	0	0	0	0	512	621	
12	0	0	0	0	512	621	
13	0	0	0	0	512	620	
14	0	0	0	0	511	622	
15	0	0	0	0	511	620	
0	0	0	0	0	510	620	
1	0	0	0	0	510	620	
2	0	0	0	0	510	618	
3	0	0	0	0	510	620	
4	0	0	0	0	509	620	
5	0	0	0	0	507	619	
6	0	0	0	0	505	620	
7	0	0	0	0	502	618	
8	0	0	0	0	497	618	
9	0	0	0	0	493	618	
10	0	0	0	0	486	615	
11	0	0	0	0	478	617	
12	0	0	0	0	468	617	
13	0	0	0	0	457	617	
14	0	0	0	0	445	620	
15	0	0	0	0	433	618	
0	0	0	0	0	421	619	
1	0	0	0	0	411	619	
2	0	0	0	0	401	617	
3	0	0	0	0	393	620	
4	0	0	0	0	389	621	
5	0	0	0	0	384	621	
6	0	0	0	0	380	624	
7	0	0	0	0	377	623	
8	0	0	0	0	377	623	
9	0	0	0	0	380	624	
10	0	0	0	0	385	623	
11	0	0	0	0	395	625	
12	0	0	0	0	407	626	
13	0	0	0	0	423	626	
14	0	0	0	0	440	628	
15	0	0	0	0	461	626	
0	0	0	0	0	486	626	
1	0	0	0	0	515	626	
2	0	0	0	0	551	624	
3	0	0	0	0	590	625	
4	0	0	0	0	632	626	
5	0	0	0	0	678	625	
6	0	0	0	0	726	626	
7	0	0	0	0	779	624	
8	0	0	0	0	831	623	
9	0	0	0	0	884	622	
10	0	0	0	0	935	620	
11	0	0	0	0	982	621	
12	0	0	0	0	1021	620	
13	0	0	0	0	1022	621	
14	0	0	0	0	1022	623	
15	0	0	0	0	1022	620	
0	0	0	0	0	1022	620	
1	0	0	0	0	1022	620	
2	0	0	0	0	1022	618	
3	0	0	0	0	1022	621	
4	0	0	0	0	1022	620	
5	0	0	0	0	1022	621	
6	0	0	0	0	1022	623	
7	0	0	0	0	1022	622	
8	0	0	0	0	1022	622	
9	0	0	0	0	1022	621	
10	0	0	0	0	1022	620	
11	0	0	0	0	1022	622	
12	0	0	0	0	1022	622	
13	0	0	0	0	1022	622	
14	0	0	0	0	1022	625	
15	0	0	0	0	991	623	
0	0	0	0	0	936	623	
1	0	0	0	0	882	623	
2	0	0	0	0	832	621	
3	0	0	0	0	783	623	
4	0	0	0	0	738	623	
5	0	0	0	0	696	623	
6	0	0	0	0	660	624	
7	0	0	0	0	628	622	
8	0	0	0	0	600	622	
9	0	0	0	0	576	622	
10	0	0	0	0	556	620	
11	0	0	0	0	537	621	
12	0	0	0	0	519	621	
13	0	0	0	0	503	620	
14	0	0	0	0	487	622	
15	0	0	0	0	473	620	
0	0	0	0	0	460	620	
1	0	0	0	0	448	620	
2	0	0	0	0	436	618	
3	0	0	0	0	423	619	
4	0	0	0	0	412	619	
5	0	0	0	0	400	619	
6	0	0	0	0	390	620	
7	0	0	0	0	380	618	
8	0	0	0	0	371	618	
9	0	0	0	0	363	618	
10	0	0	0	0	355	615	
11	0	0	0	0	349	618	
12	0	0	0	0	342	617	
13	0	0	0	0	337	617	
14	0	0	0	0	334	619	
15	0	0	0	0	331	617	
0	0	0	0	0	328	616	
1	0	0	0	0	326	617	
2	0	0	0	0	323	615	
3	0	0	0	0	321	617	
4	0	0	0	0	320	616	
5	0	0	0	0	320	617	
6	0	0	0	0	319	617	
7	0	0	0	0	319	617	
8	0	0	0	0	319	617	
9	0	0	0	0	319	617	
10	0	0	0	0	319	615	
11	0	0	0	0	319	616	
12	0	0	0	0	320	616	
13	0	0	0	0	320	617	
14	0	0	0	0	321	620	
15	0	0	0	0	323	618	
0	0	0	0	0	324	618	
1	0	0	0	0	326	618	
2	0	0	0	0	327	617	
3	0	0	0	0	328	619	
4	0	0	0	0	330	620	
5	0	0	0	0	331	619	
6	0	0	0	0	332	622	
7	0	0	0	0	334	620	
8	0	0	0	0	335	620	
9	0	0	0	0	336	621	
10	0	0	0	0	338	620	
11	0	0	0	0	339	622	
12	0	0	0	0	340	622	
13	0	0	0	0	341	623	
14	0	0	0	0	342	625	
15	0	0	0	0	343	624	
0	0	0	0	0	344	624	
1	0	0	0	0	345	625	
2	0	0	0	0	347	623	
3	0	0	0	0	349	625	
4	0	0	0	0	351	625	
5	0	0	0	0	352	626	
6	0	0	0	0	353	627	
7	0	0	0	0	353	625	
8	0	0	0	0	354	627	
9	0	0	0	0	355	626	
10	0	0	0	0	356	625	
11	0	0	0	0	359	627	
12	0	0	0	0	360	626	
13	0	0	0	0	361	627	
14	0	0	0	0	363	628	
15	0	0	0	0	364	626	
0	0	0	0	0	366	627	
1	0	0	0	0	367	626	
2	0	0	0	0	368	624	
3	0	0	0	0	370	626	
4	0	0	0	0	371	626	
5	0	0	0	0	372	626	
6	0	0	0	0	373	627	
7	0	0	0	0	374	626	
8	0	0	0	0	375	626	
9	0	0	0	0	376	625	
10	0	0	0	0	377	624	
11	0	0	0	0	377	626	
12	0	0	0	0	378	626	
13	0	0	0	0	379	625	
14	0	0	0	0	380	627	
15	0	0	0	0	381	625	
0	0	0	0	0	382	625	
1	0	0	0	0	383	625	
2	0	0	0	0	383	623	
3	0	0	0	0	384	624	
4	0	0	0	0	386	624	
5	0	0	0	0	386	624	
6	0	0	0	0	387	626	
7	0	0	0	0	387	624	
8	0	0	0	0	388	623	
9	0	0	0	0	389	623	
10	0	0	0	0	390	621	
11	0	0	0	0	391	623	
12	0	0	0	0	391	622	
13	0	0	0	0	393	622	
14	0	0	0	0	393	624	
15	0	0	0	0	394	623	
0	0	0	0	0	394	623	
1	0	0	0	0	395	622	
2	0	0	0	0	396	620	
3	0	0	0	0	397	622	
4	0	0	0	0	397	622	
5	0	0	0	0	398	622	
6	0	0	0	0	399	623	
7	0	0	0	0	400	622	
8	0	0	0	0	401	622	
9	0	0	0	0	402	622	
10	0	0	0	0	403	620	
11	0	0	0	0	404	621	
12	0	0	0	0	405	621	
13	0	0	0	0	406	621	
14	0	0	0	0	406	623	
15	0	0	0	0	407	620	
0	0	0	0	0	407	620	
1	0	0	0	0	407	620	
2	0	0	0	0	408	617	
3	0	0	0	0	409	619	
4	0	0	0	0	410	619	
5	0	0	0	0	410	619	
6	0	0	0	0	411	621	
7	0	0	0	0	413	618	
8	0	0	0	0	414	619	
9	0	0	0	0	415	619	
10	0	0	0	0	416	617	
11	0	0	0	0	417	618	
12	0	0	0	0	419	619	
13	0	0	0	0	420	617	
14	0	0	0	0	423	620	
15	0	0	0	0	425	619	
0	0	0	0	0	426	618	
1	0	0	0	0	428	618	
2	0	0	0	0	429	617	
3	0	0	0	0	430	620	
4	0	0	0	0	431	620	
5	0	0	0	0	433	620	
6	0	0	0	0	435	622	
7	0	0	0	0	436	620	
8	0	0	0	0	438	620	
9	0	0	0	0	439	620	
10	0	0	0	0	441	618	
11	0	0	0	0	442	621	
12	0	0	0	0	443	622	
13	0	0	0	0	445	622	
14	0	0	0	0	447	624	
15	0	0	0	0	448	623	
0	0	0	0	0	451	623	
1	0	0	0	0	453	623	
2	0	0	0	0	455	622	
3	0	0	0	0	457	623	
4	0	0	0	0	459	624	
5	0	0	0	0	461	623	
6	0	0	0	0	462	625	
7	0	0	0	0	464	624	
8	0	0	0	0	464	623	
9	0	0	0	0	466	623	
10	0	0	0	0	467	621	
11	0	0	0	0	469	622	
12	0	0	0	0	470	622	
13	0	0	0	0	471	621	
14	0	0	0	0	472	623	
15	0	0	0	0	474	622	
0	0	0	0	0	476	620	
1	0	0	0	0	478	621	
2	0	0	0	0	479	619	
3	0	0	0	0	480	621	
4	0	0	0	0	480	621	
5	0	0	0	0	481	621	
6	0	0	0	0	481	623	
7	0	0	0	0	482	622	
8	0	0	0	0	483	622	
9	0	0	0	0	483	622	
10	0	0	0	0	484	620	
11	0	0	0	0	485	622	
12	0	0	0	0	486	621	
13	0	0	0	0	486	622	
14	0	0	0	0	486	624	
15	0	0	0	0	486	622	
0	0	0	0	0	487	622	
1	0	0	0	0	487	622	
2	0	0	0	0	487	620	
3	0	0	0	0	488	622	
4	0	0	0	0	488	622	
5	0	0	0	0	489	622	
6	0	0	0	0	490	623	
7	0	0	0	0	491	622	
8	0	0	0	0	492	622	
9	0	0	0	0	493	622	
10	0	0	0	0	494	620	
11	0	0	0	0	495	622	
12	0	0	0	0	495	622	
13	0	0	0	0	496	622	
14	0	0	0	0	497	624	
15	0	0	0	0	497	621	
0	0	0	0	0	497	622	
1	0	0	0	0	497	621	
2	0	0	0	0	497	619	
3	0	0	0	0	498	620	
4	0	0	0	0	499	621	
5	0	0	0	0	499	620	
6	0	0	0	0	499	622	
7	0	0	0	0	500	620	
8	0	0	0	0	500	620	
9	0	0	0	0	501	620	
10	0	0	0	0	500	618	
11	0	0	0	0	499	620	
12	0	0	0	0	499	620	
13	0	0	0	0	499	620	
14	0	0	0	0	499	622	
15	0	0	0	0	499	620	
0	0	0	0	0	499	619	
1	0	0	0	0	499	620	
2	0	0	0	0	500	618	
3	0	0	0	0	502	620	
4	0	0	0	0	503	620	
5	0	0	0	0	504	620	
6	0	0	0	0	504	622	
7	0	0	0	0	504	620	
8	0	0	0	0	505	620	
9	0	0	0	0	505	620	
10	0	0	0	0	506	617	
11	0	0	0	0	506	620	
12	0	0	0	0	506	621	
13	0	0	0	0	507	621	
14	0	0	0	0	508	623	
15	0	0	0	0	508	621	
0	0	0	0	0	509	622	
1	0	0	0	0	509	621	
2	0	0	0	0	510	620	
3	0	0	0	0	510	622	
4	0	0	0	0	510	622	
5	0	0	0	0	510	623	
6	0	0	0	0	510	624	
7	0	0	0	0	511	623	
8	0	0	0	0	511	623	
9	0	0	0	0	511	624	
10	0	0	0	0	512	623	
11	0	0	0	0	512	624	
12	0	0	0	0	513	625	
13	0	0	0	0	514	625	
14	0	0	0	0	514	626	
15	0	0	0	0	514	625	
0	0	0	0	0	514	625	
1	0	0	0	0	514	625	
2	0	0	0	0	514	622	
3	0	0	0	0	514	624	
4	0	0	0	0	514	624	
5	0	0	0	0	513	623	
6	0	0	0	0	513	624	
7	0	0	0	0	513	622	
8	0	0	0	0	513	621	
9	0	0	0	0	514	621	
10	0	0	0	0	514	619	
11	0	0	0	0	513	620	
12	0	0	0	0	514	620	
13	0	0	0	0	514	619	
14	0	0	0	0	515	621	
15	0	0	0	0	516	620	
0	0	0	0	0	516	619	
1	0	0	0	0	517	620	
2	0	0	0	0	518	617	
3	0	0	0	0	519	620	
4	0	0	0	0	519	620	
5	0	0	0	0	519	620	
6	0	0	0	0	519	623	
7	0	0	0	0	520	621	
8	0	0	0	0	520	622	
9	0	0	0	0	521	622	
10	0	0	0	0	521	620	
11	0	0	0	0	520	623	
12	0	0	0	0	520	623	
13	0	0	0	0	520	623	
14	0	0	0	0	520	625	
15	0	0	0	0	520	624	
0	0	0	0	0	519	623	
1	0	0	0	0	519	623	
2	0	0	0	0	519	621	
3	0	0	0	0	519	623	
4	0	0	0	0	518	622	
5	0	0	0	0	518	622	
6	0	0	0	0	518	623	
7	0	0	0	0	518	621	
8	0	0	0	0	518	621	
9	0	0	0	0	518	621	
10	0	0	0	0	518	618	
11	0	0	0	0	519	620	
12	0	0	0	0	519	620	
13	0	0	0	0	520	620	
14	0	0	0	0	521	620	
15	0	0	0	0	520	619	
0	0	0	0	0	520	619	
1	0	0	0	0	519	620	
2	0	0	0	0	519	618	
3	0	0	0	0	519	619	
4	0	0	0	0	518	619	
5	0	0	0	0	517	619	
6	0	0	0	0	517	621	
7	0	0	0	0	516	620	
8	0	0	0	0	516	620	
9	0	0	0	0	516	620	
10	0	0	0	0	515	617	
11	0	0	0	0	516	620	
12	0	0	0	0	515	619	
13	0	0	0	0	515	619	
14	0	0	0	0	515	620	
15	0	0	0	0	516	619	
0	0	0	0	0	515	619	
1	0	0	0	0	515	619	
2	0	0	0	0	515	617	
3	0	0	0	0	516	619	
4	0	0	0	0	517	618	
5	0	0	0	0	517	619	
6	0	0	0	0	517	620	
7	0	0	0	0	517	620	
8	0	0	0	0	517	619	
9	0	0	0	0	517	619	
10	0	0	0	0	517	617	
11	0	0	0	0	516	620	
12	0	0	0	0	516	619	
13	0	0	0	0	517	619	
14	0	0	0	0	517	622	
15	0	0	0	0	517	620	
0	0	0	0	0	516	621	
1	0	0	0	0	516	621	
2	0	0	0	0	515	619	
3	0	0	0	0	515	622	
4	0	0	0	0	515	621	
5	0	0	0	0	515	622	
6	0	0	0	0	515	624	
7	0	0	0	0	515	622	
8	0	0	0	0	515	622	
9	0	0	0	0	515	622	
10	0	0	0	0	515	620	
11	0	0	0	0	516	622	
12	0	0	0	0	515	621	
13	0	0	0	0	515	622	
14	0	0	0	0	516	624	
15	0	0	0	0	516	621	
0	0	0	0	0	515	622	
1	0	0	0	0	514	621	
2	0	0	0	0	515	619	
3	0	0	0	0	515	621	
4	0	0	0	0	515	621	
5	0	0	0	0	515	621	
6	0	0	0	0	516	623	
7	0	0	0	0	516	622	
8	0	0	0	0	516	622	
9	0	0	0	0	516	623	
10	0	0	0	0	517	620	
11	0	0	0	0	517	622	
12	0	0	0	0	517	622	
13	0	0	0	0	518	623	
14	0	0	0	0	517	625	
15	0	0	0	0	517	623	
0	0	0	0	0	517	623	
1	0	0	0	0	517	623	
2	0	0	0	0	516	621	
3	0	0	0	0	517	624	
4	0	0	0	0	516	624	
5	0	0	0	0	516	624	
6	0	0	0	0	517	625	
7	0	0	0	0	518	624	
8	0	0	0	0	518	624	
9	0	0	0	0	518	624	
10	0	0	0	0	518	622	
11	0	0	0	0	518	624	
12	0	0	0	0	518	623	
13	0	0	0	0	518	623	
14	0	0	0	0	518	625	
15	0	0	0	0	519	624	
0	0	0	0	0	519	623	
1	0	0	0	0	520	623	
2	0	0	0	0	520	621	
3	0	0	0	0	520	623	
4	0	0	0	0	520	623	
5	0	0	0	0	520	623	
6	0	0	0	0	520	625	
7	0	0	0	0	520	624	
8	0	0	0	0	520	623	
9	0	0	0	0	520	623	
10	0	0	0	0	520	620	
11	0	0	0	0	521	623	
12	0	0	0	0	521	622	
13	0	0	0	0	521	622	
14	0	0	0	0	521	624	
15	0	0	0	0	521	622	
0	0	0	0	0	521	622	
1	0	0	0	0	521	622	
2	0	0	0	0	522	620	
3	0	0	0	0	522	622	
4	0	0	0	0	523	621	
5	0	0	0	0	522	621	
6	0	0	0	0	522	624	
7	0	0	0	0	523	621	
8	0	0	0	0	523	621	
9	0	0	0	0	523	621	
10	0	0	0	0	523	620	
11	0	0	0	0	522	621	
12	0	0	0	0	522	622	
13	0	0	0	0	522	621	
14	0	0	0	0	522	622	
15	0	0	0	0	522	621	
0	0	0	0	0	522	621	
1	0	0	0	0	522	621	
2	0	0	0	0	521	618	
3	0	0	0	0	521	620	
4	0	0	0	0	521	621	
5	0	0	0	0	521	620	
6	0	0	0	0	520	622	
7	0	0	0	0	519	619	
8	0	0	0	0	519	620	
9	0	0	0	0	520	620	
10	0	0	0	0	519	617	
11	0	0	0	0	520	619	
