# OpenSignals Text File Format. Version 1
# {"98:D3:91:FD:59:64": {"position": 0, "device": "bitalino_rev", "device name": "98:D3:91:FD:59:64", "device connection": "BTH98:D3:91:FD:59:64", "sampling rate": 1000, "resolution": [4, 1, 1, 1, 1, 10, 10], "firmware version": 1281, "comments": "", "keywords": "", "mode": 0, "sync interval": 2, "date": "2021-9-15", "time": "11:28:26.768", "channels": [2, 5], "sensor": ["RAW", "RAW"], "label": ["A2", "A5"], "column": ["nSeq", "I1", "I2", "O1", "O2", "A2", "A5"], "special": [{}, {}], "digital IO": [0, 0, 1, 1], "convertedValues": 0}}
# EndOfHeader
0	0	0	0	0	517	622	
1	0	0	0	0	517	622	
2	0	0	0	0	516	622	
3	0	0	0	0	516	622	
4	0	0	0	0	515	622	
5	0	0	0	0	515	622	
6	0	0	0	0	515	622	
7	0	0	0	0	515	622	
8	0	0	0	0	516	622	
9	0	0	0	0	516	622	
10	0	0	0	0	515	621	
11	0	0	0	0	515	621	
12	0	0	0	0	515	621	
13	0	0	0	0	515	621	
14	0	0	0	0	515	621	
15	0	0	0	0	516	621	
0	0	0	0	0	515	621	
1	0	0	0	0	515	621	
2	0	0	0	0	514	620	
3	0	0	0	0	513	621	
4	0	0	0	0	513	620	
5	0	0	0	0	513	621	
6	0	0	0	0	513	621	
7	0	0	0	0	515	620	
8	0	0	0	0	515	620	
9	0	0	0	0	516	621	
10	0	0	0	0	516	621	
11	0	0	0	0	516	621	
12	0	0	0	0	515	621	
13	0	0	0	0	514	621	
14	0	0	0	0	514	621	
15	0	0	0	0	513	621	
0	0	0	0	0	512	621	
1	0	0	0	0	512	621	
2	0	0	0	0	511	621	
3	0	0	0	0	511	621	
4	0	0	0	0	512	621	
5	0	0	0	0	511	621	
6	0	0	0	0	512	621	
7	0	0	0	0	512	621	
8	0	0	0	0	514	621	
9	0	0	0	0	515	620	
10	0	0	0	0	515	621	
11	0	0	0	0	516	620	
12	0	0	0	0	515	620	
13	0	0	0	0	515	621	
14	0	0	0	0	515	621	
15	0	0	0	0	515	621	
0	0	0	0	0	513	622	
1	0	0	0	0	512	621	
2	0	0	0	0	511	621	
3	0	0	0	0	510	621	
4	0	0	0	0	510	622	
5	0	0	0	0	511	622	
6	0	0	0	0	512	622	
7	0	0	0	0	512	623	
8	0	0	0	0	512	622	
9	0	0	0	0	512	623	
10	0	0	0	0	513	623	
11	0	0	0	0	513	623	
12	0	0	0	0	514	624	
13	0	0	0	0	514	623	
14	0	0	0	0	513	624	
15	0	0	0	0	511	624	
0	0	0	0	0	511	624	
1	0	0	0	0	512	624	
2	0	0	0	0	512	624	
3	0	0	0	0	511	623	
4	0	0	0	0	511	624	
5	0	0	0	0	511	622	
6	0	0	0	0	512	624	
7	0	0	0	0	512	622	
8	0	0	0	0	512	622	
9	0	0	0	0	512	622	
10	0	0	0	0	512	621	
11	0	0	0	0	512	622	
12	0	0	0	0	512	620	
13	0	0	0	0	512	620	
14	0	0	0	0	513	620	
15	0	0	0	0	513	619	
0	0	0	0	0	513	619	
1	0	0	0	0	512	619	
2	0	0	0	0	512	618	
3	0	0	0	0	512	617	
4	0	0	0	0	512	618	
5	0	0	0	0	511	617	
6	0	0	0	0	510	618	
7	0	0	0	0	510	618	
8	0	0	0	0	510	618	
9	0	0	0	0	510	617	
10	0	0	0	0	509	617	
11	0	0	0	0	509	617	
12	0	0	0	0	509	617	
13	0	0	0	0	508	618	
14	0	0	0	0	509	617	
15	0	0	0	0	508	618	
0	0	0	0	0	508	617	
1	0	0	0	0	509	617	
2	0	0	0	0	509	617	
3	0	0	0	0	510	618	
4	0	0	0	0	510	617	
5	0	0	0	0	510	617	
6	0	0	0	0	511	619	
7	0	0	0	0	510	618	
8	0	0	0	0	511	619	
9	0	0	0	0	511	619	
10	0	0	0	0	510	619	
11	0	0	0	0	510	620	
12	0	0	0	0	511	620	
13	0	0	0	0	511	620	
14	0	0	0	0	510	620	
15	0	0	0	0	509	621	
0	0	0	0	0	510	621	
1	0	0	0	0	509	622	
2	0	0	0	0	509	621	
3	0	0	0	0	508	622	
4	0	0	0	0	509	623	
5	0	0	0	0	510	623	
6	0	0	0	0	510	624	
7	0	0	0	0	511	624	
8	0	0	0	0	510	625	
9	0	0	0	0	510	625	
10	0	0	0	0	509	625	
11	0	0	0	0	510	626	
12	0	0	0	0	510	627	
13	0	0	0	0	509	627	
14	0	0	0	0	508	628	
15	0	0	0	0	508	628	
0	0	0	0	0	508	628	
1	0	0	0	0	507	628	
2	0	0	0	0	506	629	
3	0	0	0	0	507	628	
4	0	0	0	0	507	630	
5	0	0	0	0	507	629	
6	0	0	0	0	507	630	
7	0	0	0	0	507	630	
8	0	0	0	0	507	630	
9	0	0	0	0	507	631	
10	0	0	0	0	507	631	
11	0	0	0	0	506	631	
12	0	0	0	0	507	631	
13	0	0	0	0	506	631	
14	0	0	0	0	506	632	
15	0	0	0	0	506	631	
0	0	0	0	0	505	631	
1	0	0	0	0	504	632	
2	0	0	0	0	503	631	
3	0	0	0	0	503	631	
4	0	0	0	0	503	631	
5	0	0	0	0	503	631	
6	0	0	0	0	504	632	
7	0	0	0	0	504	631	
8	0	0	0	0	505	631	
9	0	0	0	0	504	631	
10	0	0	0	0	505	630	
11	0	0	0	0	506	630	
12	0	0	0	0	505	629	
13	0	0	0	0	504	629	
14	0	0	0	0	504	630	
15	0	0	0	0	504	629	
0	0	0	0	0	503	628	
1	0	0	0	0	503	628	
2	0	0	0	0	503	628	
3	0	0	0	0	503	628	
4	0	0	0	0	503	628	
5	0	0	0	0	503	628	
6	0	0	0	0	502	627	
7	0	0	0	0	502	627	
8	0	0	0	0	503	627	
9	0	0	0	0	503	626	
10	0	0	0	0	503	626	
11	0	0	0	0	503	626	
12	0	0	0	0	502	625	
13	0	0	0	0	502	626	
14	0	0	0	0	501	625	
15	0	0	0	0	502	625	
0	0	0	0	0	503	625	
1	0	0	0	0	503	625	
2	0	0	0	0	502	624	
3	0	0	0	0	502	624	
4	0	0	0	0	501	623	
5	0	0	0	0	501	624	
6	0	0	0	0	501	623	
7	0	0	0	0	500	623	
8	0	0	0	0	500	623	
9	0	0	0	0	500	624	
10	0	0	0	0	500	623	
11	0	0	0	0	500	623	
12	0	0	0	0	500	622	
13	0	0	0	0	502	622	
14	0	0	0	0	502	622	
15	0	0	0	0	501	621	
0	0	0	0	0	501	621	
1	0	0	0	0	501	621	
2	0	0	0	0	500	621	
3	0	0	0	0	500	622	
4	0	0	0	0	500	621	
5	0	0	0	0	501	621	
6	0	0	0	0	500	621	
7	0	0	0	0	500	620	
8	0	0	0	0	501	621	
9	0	0	0	0	502	621	
10	0	0	0	0	502	621	
11	0	0	0	0	503	622	
12	0	0	0	0	503	621	
13	0	0	0	0	504	621	
14	0	0	0	0	504	621	
15	0	0	0	0	505	621	
0	0	0	0	0	505	621	
1	0	0	0	0	505	620	
2	0	0	0	0	506	621	
3	0	0	0	0	506	621	
4	0	0	0	0	507	621	
5	0	0	0	0	507	620	
6	0	0	0	0	507	620	
7	0	0	0	0	507	620	
8	0	0	0	0	507	620	
9	0	0	0	0	507	620	
10	0	0	0	0	506	620	
11	0	0	0	0	505	619	
12	0	0	0	0	504	620	
13	0	0	0	0	504	620	
14	0	0	0	0	503	620	
15	0	0	0	0	502	620	
0	0	0	0	0	503	620	
1	0	0	0	0	504	620	
2	0	0	0	0	505	620	
3	0	0	0	0	505	620	
4	0	0	0	0	505	620	
5	0	0	0	0	505	620	
6	0	0	0	0	505	620	
7	0	0	0	0	505	620	
8	0	0	0	0	506	620	
9	0	0	0	0	506	620	
10	0	0	0	0	505	620	
11	0	0	0	0	505	620	
12	0	0	0	0	505	620	
13	0	0	0	0	504	621	
14	0	0	0	0	504	621	
15	0	0	0	0	503	620	
0	0	0	0	0	503	620	
1	0	0	0	0	503	620	
2	0	0	0	0	503	620	
3	0	0	0	0	503	620	
4	0	0	0	0	504	620	
5	0	0	0	0	505	620	
6	0	0	0	0	506	621	
7	0	0	0	0	506	620	
8	0	0	0	0	507	620	
9	0	0	0	0	508	620	
10	0	0	0	0	509	620	
11	0	0	0	0	510	620	
12	0	0	0	0	511	620	
13	0	0	0	0	511	620	
14	0	0	0	0	510	621	
15	0	0	0	0	508	621	
0	0	0	0	0	507	622	
1	0	0	0	0	507	622	
2	0	0	0	0	505	623	
3	0	0	0	0	504	622	
4	0	0	0	0	504	623	
5	0	0	0	0	504	624	
6	0	0	0	0	505	624	
7	0	0	0	0	506	624	
8	0	0	0	0	506	624	
9	0	0	0	0	506	625	
10	0	0	0	0	505	625	
11	0	0	0	0	507	625	
12	0	0	0	0	508	625	
13	0	0	0	0	508	625	
14	0	0	0	0	507	625	
15	0	0	0	0	506	624	
0	0	0	0	0	507	623	
1	0	0	0	0	508	623	
2	0	0	0	0	509	623	
3	0	0	0	0	507	623	
4	0	0	0	0	505	623	
5	0	0	0	0	504	623	
6	0	0	0	0	504	623	
7	0	0	0	0	504	622	
8	0	0	0	0	505	622	
9	0	0	0	0	505	621	
10	0	0	0	0	505	620	
11	0	0	0	0	503	620	
12	0	0	0	0	502	619	
13	0	0	0	0	502	619	
14	0	0	0	0	501	619	
15	0	0	0	0	500	618	
0	0	0	0	0	500	618	
1	0	0	0	0	501	617	
2	0	0	0	0	500	616	
3	0	0	0	0	500	617	
4	0	0	0	0	500	617	
5	0	0	0	0	501	616	
6	0	0	0	0	501	616	
7	0	0	0	0	501	616	
8	0	0	0	0	501	616	
9	0	0	0	0	501	615	
10	0	0	0	0	500	615	
11	0	0	0	0	499	616	
12	0	0	0	0	498	615	
13	0	0	0	0	496	616	
14	0	0	0	0	494	616	
15	0	0	0	0	492	616	
0	0	0	0	0	489	616	
1	0	0	0	0	484	617	
2	0	0	0	0	478	618	
3	0	0	0	0	472	617	
4	0	0	0	0	465	618	
5	0	0	0	0	456	618	
6	0	0	0	0	448	619	
7	0	0	0	0	441	619	
8	0	0	0	0	436	620	
9	0	0	0	0	430	619	
10	0	0	0	0	424	620	
11	0	0	0	0	420	621	
12	0	0	0	0	418	622	
13	0	0	0	0	418	622	
14	0	0	0	0	419	623	
15	0	0	0	0	421	623	
0	0	0	0	0	424	624	
1	0	0	0	0	429	624	
2	0	0	0	0	433	625	
3	0	0	0	0	439	625	
4	0	0	0	0	444	625	
5	0	0	0	0	449	627	
6	0	0	0	0	455	627	
7	0	0	0	0	461	628	
8	0	0	0	0	467	628	
9	0	0	0	0	477	628	
10	0	0	0	0	493	630	
11	0	0	0	0	511	630	
12	0	0	0	0	531	631	
13	0	0	0	0	554	631	
14	0	0	0	0	580	631	
15	0	0	0	0	609	632	
0	0	0	0	0	643	632	
1	0	0	0	0	679	632	
2	0	0	0	0	713	632	
3	0	0	0	0	742	632	
4	0	0	0	0	768	632	
5	0	0	0	0	790	632	
6	0	0	0	0	806	632	
7	0	0	0	0	816	632	
8	0	0	0	0	820	632	
9	0	0	0	0	818	632	
10	0	0	0	0	815	632	
11	0	0	0	0	811	632	
12	0	0	0	0	805	632	
13	0	0	0	0	799	632	
14	0	0	0	0	792	632	
15	0	0	0	0	782	631	
0	0	0	0	0	769	631	
1	0	0	0	0	755	630	
2	0	0	0	0	738	630	
3	0	0	0	0	719	631	
4	0	0	0	0	700	630	
5	0	0	0	0	683	629	
6	0	0	0	0	665	630	
7	0	0	0	0	650	628	
8	0	0	0	0	635	629	
9	0	0	0	0	622	628	
10	0	0	0	0	610	627	
11	0	0	0	0	600	627	
12	0	0	0	0	591	627	
13	0	0	0	0	583	627	
14	0	0	0	0	573	627	
15	0	0	0	0	564	626	
0	0	0	0	0	554	626	
1	0	0	0	0	544	625	
2	0	0	0	0	534	626	
3	0	0	0	0	523	625	
4	0	0	0	0	512	625	
5	0	0	0	0	503	625	
6	0	0	0	0	495	625	
7	0	0	0	0	487	625	
8	0	0	0	0	480	624	
9	0	0	0	0	472	624	
10	0	0	0	0	465	624	
11	0	0	0	0	459	624	
12	0	0	0	0	454	624	
13	0	0	0	0	450	624	
14	0	0	0	0	446	624	
15	0	0	0	0	442	624	
0	0	0	0	0	438	624	
1	0	0	0	0	435	624	
2	0	0	0	0	433	624	
3	0	0	0	0	431	624	
4	0	0	0	0	429	624	
5	0	0	0	0	427	624	
6	0	0	0	0	423	623	
7	0	0	0	0	422	623	
8	0	0	0	0	421	623	
9	0	0	0	0	422	623	
10	0	0	0	0	423	623	
11	0	0	0	0	424	624	
12	0	0	0	0	423	623	
13	0	0	0	0	420	624	
14	0	0	0	0	419	623	
15	0	0	0	0	417	623	
0	0	0	0	0	416	623	
1	0	0	0	0	416	623	
2	0	0	0	0	416	623	
3	0	0	0	0	415	623	
4	0	0	0	0	414	623	
5	0	0	0	0	415	623	
6	0	0	0	0	415	623	
7	0	0	0	0	415	623	
8	0	0	0	0	415	623	
9	0	0	0	0	415	623	
10	0	0	0	0	415	623	
11	0	0	0	0	415	623	
12	0	0	0	0	416	623	
13	0	0	0	0	417	623	
14	0	0	0	0	417	623	
15	0	0	0	0	418	622	
0	0	0	0	0	419	622	
1	0	0	0	0	419	622	
2	0	0	0	0	419	623	
3	0	0	0	0	420	622	
4	0	0	0	0	421	623	
5	0	0	0	0	421	622	
6	0	0	0	0	422	622	
7	0	0	0	0	423	622	
8	0	0	0	0	423	622	
9	0	0	0	0	423	622	
10	0	0	0	0	424	621	
11	0	0	0	0	424	622	
12	0	0	0	0	424	621	
13	0	0	0	0	424	621	
14	0	0	0	0	425	621	
15	0	0	0	0	426	621	
0	0	0	0	0	426	621	
1	0	0	0	0	427	620	
2	0	0	0	0	428	620	
3	0	0	0	0	429	620	
4	0	0	0	0	430	620	
5	0	0	0	0	430	619	
6	0	0	0	0	430	620	
7	0	0	0	0	432	620	
8	0	0	0	0	432	621	
9	0	0	0	0	433	620	
10	0	0	0	0	435	620	
11	0	0	0	0	436	620	
12	0	0	0	0	437	620	
13	0	0	0	0	437	620	
14	0	0	0	0	437	620	
15	0	0	0	0	438	619	
0	0	0	0	0	439	620	
1	0	0	0	0	438	619	
2	0	0	0	0	439	620	
3	0	0	0	0	439	619	
4	0	0	0	0	440	619	
5	0	0	0	0	441	619	
6	0	0	0	0	441	619	
7	0	0	0	0	440	620	
8	0	0	0	0	439	619	
9	0	0	0	0	439	620	
10	0	0	0	0	441	620	
11	0	0	0	0	443	619	
12	0	0	0	0	443	620	
13	0	0	0	0	442	620	
14	0	0	0	0	440	620	
15	0	0	0	0	441	620	
0	0	0	0	0	441	620	
1	0	0	0	0	443	620	
2	0	0	0	0	444	621	
3	0	0	0	0	445	621	
4	0	0	0	0	445	621	
5	0	0	0	0	446	621	
6	0	0	0	0	446	622	
7	0	0	0	0	447	622	
8	0	0	0	0	447	622	
9	0	0	0	0	447	623	
10	0	0	0	0	446	623	
11	0	0	0	0	446	623	
12	0	0	0	0	448	623	
13	0	0	0	0	448	624	
14	0	0	0	0	449	624	
15	0	0	0	0	449	623	
0	0	0	0	0	450	623	
1	0	0	0	0	452	623	
2	0	0	0	0	453	623	
3	0	0	0	0	455	623	
4	0	0	0	0	456	622	
5	0	0	0	0	455	623	
6	0	0	0	0	454	623	
7	0	0	0	0	454	622	
8	0	0	0	0	454	622	
9	0	0	0	0	455	622	
10	0	0	0	0	455	621	
11	0	0	0	0	455	621	
12	0	0	0	0	456	622	
13	0	0	0	0	457	621	
14	0	0	0	0	457	620	
15	0	0	0	0	457	621	
0	0	0	0	0	456	621	
1	0	0	0	0	455	621	
2	0	0	0	0	455	620	
3	0	0	0	0	454	620	
4	0	0	0	0	455	620	
5	0	0	0	0	457	620	
6	0	0	0	0	458	620	
7	0	0	0	0	459	620	
8	0	0	0	0	459	620	
9	0	0	0	0	460	620	
10	0	0	0	0	459	619	
11	0	0	0	0	458	619	
12	0	0	0	0	459	619	
13	0	0	0	0	459	618	
14	0	0	0	0	459	619	
15	0	0	0	0	459	619	
0	0	0	0	0	460	619	
1	0	0	0	0	460	620	
2	0	0	0	0	461	619	
3	0	0	0	0	462	620	
4	0	0	0	0	464	619	
5	0	0	0	0	466	619	
6	0	0	0	0	468	620	
7	0	0	0	0	470	620	
8	0	0	0	0	470	621	
9	0	0	0	0	471	621	
10	0	0	0	0	472	621	
11	0	0	0	0	473	622	
12	0	0	0	0	474	621	
13	0	0	0	0	475	622	
14	0	0	0	0	476	623	
15	0	0	0	0	478	623	
0	0	0	0	0	479	623	
1	0	0	0	0	479	623	
2	0	0	0	0	479	624	
3	0	0	0	0	478	625	
4	0	0	0	0	479	625	
5	0	0	0	0	480	625	
6	0	0	0	0	481	626	
7	0	0	0	0	482	625	
8	0	0	0	0	483	626	
9	0	0	0	0	482	627	
10	0	0	0	0	482	627	
11	0	0	0	0	483	627	
12	0	0	0	0	484	627	
13	0	0	0	0	486	627	
14	0	0	0	0	486	628	
15	0	0	0	0	487	628	
0	0	0	0	0	488	628	
1	0	0	0	0	489	628	
2	0	0	0	0	490	628	
3	0	0	0	0	492	629	
4	0	0	0	0	493	628	
5	0	0	0	0	494	629	
6	0	0	0	0	495	629	
7	0	0	0	0	496	629	
8	0	0	0	0	496	629	
9	0	0	0	0	497	629	
10	0	0	0	0	499	629	
11	0	0	0	0	500	629	
12	0	0	0	0	502	629	
13	0	0	0	0	503	630	
14	0	0	0	0	505	630	
15	0	0	0	0	507	629	
0	0	0	0	0	508	629	
1	0	0	0	0	509	628	
2	0	0	0	0	511	629	
3	0	0	0	0	511	628	
4	0	0	0	0	511	628	
5	0	0	0	0	512	628	
6	0	0	0	0	512	628	
7	0	0	0	0	512	628	
8	0	0	0	0	514	627	
9	0	0	0	0	515	627	
10	0	0	0	0	516	627	
11	0	0	0	0	516	627	
12	0	0	0	0	517	627	
13	0	0	0	0	518	627	
14	0	0	0	0	518	626	
15	0	0	0	0	517	626	
0	0	0	0	0	516	627	
1	0	0	0	0	516	626	
2	0	0	0	0	516	626	
3	0	0	0	0	517	626	
4	0	0	0	0	518	626	
5	0	0	0	0	518	626	
6	0	0	0	0	519	626	
7	0	0	0	0	520	626	
8	0	0	0	0	521	625	
9	0	0	0	0	522	625	
10	0	0	0	0	521	625	
11	0	0	0	0	521	625	
12	0	0	0	0	521	626	
13	0	0	0	0	519	626	
14	0	0	0	0	519	625	
15	0	0	0	0	519	625	
0	0	0	0	0	519	625	
1	0	0	0	0	517	626	
2	0	0	0	0	515	625	
3	0	0	0	0	515	625	
4	0	0	0	0	514	625	
5	0	0	0	0	515	625	
6	0	0	0	0	515	625	
7	0	0	0	0	516	624	
8	0	0	0	0	516	625	
9	0	0	0	0	516	624	
10	0	0	0	0	516	624	
11	0	0	0	0	516	625	
12	0	0	0	0	516	624	
13	0	0	0	0	516	624	
14	0	0	0	0	516	624	
15	0	0	0	0	515	624	
0	0	0	0	0	515	624	
1	0	0	0	0	513	624	
2	0	0	0	0	512	624	
3	0	0	0	0	512	624	
4	0	0	0	0	512	624	
5	0	0	0	0	512	624	
6	0	0	0	0	512	624	
7	0	0	0	0	513	624	
8	0	0	0	0	514	624	
9	0	0	0	0	515	623	
10	0	0	0	0	515	624	
11	0	0	0	0	514	623	
12	0	0	0	0	514	623	
13	0	0	0	0	513	624	
14	0	0	0	0	512	624	
15	0	0	0	0	512	624	
0	0	0	0	0	512	623	
1	0	0	0	0	513	623	
2	0	0	0	0	512	623	
3	0	0	0	0	512	623	
4	0	0	0	0	512	623	
5	0	0	0	0	511	622	
6	0	0	0	0	511	623	
7	0	0	0	0	510	621	
8	0	0	0	0	510	622	
9	0	0	0	0	510	622	
10	0	0	0	0	509	621	
11	0	0	0	0	508	622	
12	0	0	0	0	508	622	
13	0	0	0	0	508	622	
14	0	0	0	0	508	622	
15	0	0	0	0	508	620	
0	0	0	0	0	508	621	
1	0	0	0	0	508	621	
2	0	0	0	0	509	620	
3	0	0	0	0	510	620	
4	0	0	0	0	511	620	
5	0	0	0	0	511	621	
6	0	0	0	0	511	620	
7	0	0	0	0	511	620	
8	0	0	0	0	511	620	
9	0	0	0	0	510	620	
10	0	0	0	0	509	620	
11	0	0	0	0	508	619	
12	0	0	0	0	508	620	
13	0	0	0	0	508	620	
14	0	0	0	0	508	620	
15	0	0	0	0	509	619	
0	0	0	0	0	509	619	
1	0	0	0	0	509	619	
2	0	0	0	0	510	619	
3	0	0	0	0	510	619	
4	0	0	0	0	510	620	
5	0	0	0	0	510	619	
6	0	0	0	0	511	619	
7	0	0	0	0	511	620	
8	0	0	0	0	511	619	
9	0	0	0	0	511	619	
10	0	0	0	0	511	619	
11	0	0	0	0	511	619	
12	0	0	0	0	511	619	
13	0	0	0	0	511	619	
14	0	0	0	0	511	619	
15	0	0	0	0	511	619	
0	0	0	0	0	510	619	
1	0	0	0	0	510	620	
2	0	0	0	0	509	619	
3	0	0	0	0	509	619	
4	0	0	0	0	508	619	
5	0	0	0	0	509	620	
6	0	0	0	0	509	620	
7	0	0	0	0	509	620	
8	0	0	0	0	509	620	
9	0	0	0	0	508	620	
10	0	0	0	0	508	620	
11	0	0	0	0	508	620	
12	0	0	0	0	509	620	
13	0	0	0	0	510	620	
14	0	0	0	0	510	621	
15	0	0	0	0	508	620	
0	0	0	0	0	507	620	
1	0	0	0	0	506	620	
2	0	0	0	0	505	621	
3	0	0	0	0	505	620	
4	0	0	0	0	505	621	
5	0	0	0	0	505	620	
6	0	0	0	0	505	621	
7	0	0	0	0	505	622	
8	0	0	0	0	505	621	
9	0	0	0	0	505	621	
10	0	0	0	0	504	621	
11	0	0	0	0	505	621	
12	0	0	0	0	506	621	
13	0	0	0	0	505	622	
14	0	0	0	0	505	621	
15	0	0	0	0	505	621	
0	0	0	0	0	505	621	
1	0	0	0	0	505	621	
2	0	0	0	0	505	622	
3	0	0	0	0	504	621	
4	0	0	0	0	503	622	
5	0	0	0	0	503	621	
6	0	0	0	0	504	622	
7	0	0	0	0	504	621	
8	0	0	0	0	504	622	
9	0	0	0	0	504	622	
10	0	0	0	0	504	622	
11	0	0	0	0	504	622	
12	0	0	0	0	503	621	
13	0	0	0	0	501	622	
14	0	0	0	0	500	622	
15	0	0	0	0	499	621	
0	0	0	0	0	500	622	
1	0	0	0	0	502	622	
2	0	0	0	0	503	623	
3	0	0	0	0	503	623	
4	0	0	0	0	502	623	
5	0	0	0	0	500	624	
6	0	0	0	0	499	624	
7	0	0	0	0	499	623	
8	0	0	0	0	499	624	
9	0	0	0	0	498	624	
10	0	0	0	0	499	624	
11	0	0	0	0	499	624	
12	0	0	0	0	499	624	
13	0	0	0	0	498	624	
14	0	0	0	0	497	624	
15	0	0	0	0	497	625	
0	0	0	0	0	497	625	
1	0	0	0	0	498	625	
2	0	0	0	0	498	625	
3	0	0	0	0	498	624	
4	0	0	0	0	499	625	
5	0	0	0	0	499	625	
6	0	0	0	0	499	625	
7	0	0	0	0	498	625	
8	0	0	0	0	498	625	
9	0	0	0	0	497	626	
10	0	0	0	0	496	625	
11	0	0	0	0	498	625	
12	0	0	0	0	498	625	
13	0	0	0	0	499	625	
14	0	0	0	0	498	626	
15	0	0	0	0	499	626	
0	0	0	0	0	498	625	
1	0	0	0	0	498	625	
2	0	0	0	0	498	626	
3	0	0	0	0	499	626	
4	0	0	0	0	498	626	
5	0	0	0	0	498	626	
6	0	0	0	0	499	627	
7	0	0	0	0	499	626	
8	0	0	0	0	499	627	
9	0	0	0	0	500	626	
10	0	0	0	0	501	626	
11	0	0	0	0	502	626	
12	0	0	0	0	503	626	
13	0	0	0	0	503	625	
14	0	0	0	0	503	626	
15	0	0	0	0	502	626	
0	0	0	0	0	502	627	
1	0	0	0	0	502	626	
2	0	0	0	0	501	626	
3	0	0	0	0	500	626	
4	0	0	0	0	501	626	
5	0	0	0	0	501	626	
6	0	0	0	0	502	625	
7	0	0	0	0	502	625	
8	0	0	0	0	502	625	
9	0	0	0	0	502	625	
10	0	0	0	0	502	625	
11	0	0	0	0	503	625	
12	0	0	0	0	503	626	
13	0	0	0	0	502	625	
14	0	0	0	0	502	625	
15	0	0	0	0	502	625	
0	0	0	0	0	502	625	
1	0	0	0	0	503	625	
2	0	0	0	0	503	625	
3	0	0	0	0	503	626	
4	0	0	0	0	503	625	
5	0	0	0	0	503	625	
6	0	0	0	0	504	625	
7	0	0	0	0	503	625	
8	0	0	0	0	504	625	
9	0	0	0	0	503	625	
10	0	0	0	0	503	624	
11	0	0	0	0	503	625	
12	0	0	0	0	503	624	
13	0	0	0	0	503	625	
14	0	0	0	0	503	625	
15	0	0	0	0	502	624	
0	0	0	0	0	502	624	
1	0	0	0	0	501	624	
2	0	0	0	0	500	624	
3	0	0	0	0	501	625	
4	0	0	0	0	501	624	
5	0	0	0	0	500	624	
6	0	0	0	0	500	624	
7	0	0	0	0	500	624	
8	0	0	0	0	501	624	
9	0	0	0	0	501	624	
10	0	0	0	0	501	624	
11	0	0	0	0	501	624	
12	0	0	0	0	501	624	
13	0	0	0	0	502	624	
14	0	0	0	0	501	624	
15	0	0	0	0	502	623	
0	0	0	0	0	502	623	
1	0	0	0	0	501	623	
2	0	0	0	0	501	623	
3	0	0	0	0	502	623	
4	0	0	0	0	502	623	
5	0	0	0	0	502	623	
6	0	0	0	0	501	622	
7	0	0	0	0	501	622	
8	0	0	0	0	501	622	
9	0	0	0	0	502	622	
10	0	0	0	0	501	621	
11	0	0	0	0	499	621	
12	0	0	0	0	499	621	
13	0	0	0	0	500	621	
14	0	0	0	0	500	621	
15	0	0	0	0	500	621	
0	0	0	0	0	499	620	
1	0	0	0	0	498	621	
2	0	0	0	0	498	620	
3	0	0	0	0	498	620	
4	0	0	0	0	498	620	
5	0	0	0	0	499	620	
6	0	0	0	0	499	621	
7	0	0	0	0	499	620	
8	0	0	0	0	499	620	
9	0	0	0	0	499	620	
10	0	0	0	0	500	620	
11	0	0	0	0	500	619	
12	0	0	0	0	501	619	
13	0	0	0	0	501	620	
14	0	0	0	0	500	620	
15	0	0	0	0	500	620	
0	0	0	0	0	499	619	
1	0	0	0	0	500	619	
2	0	0	0	0	499	620	
3	0	0	0	0	499	619	
4	0	0	0	0	499	620	
5	0	0	0	0	499	620	
6	0	0	0	0	500	620	
7	0	0	0	0	499	620	
8	0	0	0	0	500	620	
9	0	0	0	0	499	620	
10	0	0	0	0	499	620	
11	0	0	0	0	499	620	
12	0	0	0	0	500	620	
13	0	0	0	0	500	620	
14	0	0	0	0	502	621	
15	0	0	0	0	503	621	
0	0	0	0	0	502	620	
1	0	0	0	0	503	620	
2	0	0	0	0	502	620	
3	0	0	0	0	502	621	
4	0	0	0	0	501	620	
5	0	0	0	0	501	620	
6	0	0	0	0	501	621	
7	0	0	0	0	500	620	
8	0	0	0	0	500	620	
9	0	0	0	0	501	621	
10	0	0	0	0	500	620	
11	0	0	0	0	500	621	
12	0	0	0	0	500	621	
13	0	0	0	0	499	621	
14	0	0	0	0	499	622	
15	0	0	0	0	499	621	
0	0	0	0	0	499	622	
1	0	0	0	0	499	621	
2	0	0	0	0	499	621	
3	0	0	0	0	499	621	
4	0	0	0	0	500	621	
5	0	0	0	0	499	622	
6	0	0	0	0	500	621	
7	0	0	0	0	501	621	
8	0	0	0	0	502	621	
9	0	0	0	0	502	621	
10	0	0	0	0	502	621	
11	0	0	0	0	502	622	
12	0	0	0	0	501	621	
13	0	0	0	0	501	621	
14	0	0	0	0	501	622	
15	0	0	0	0	501	621	
0	0	0	0	0	500	621	
1	0	0	0	0	499	622	
2	0	0	0	0	499	621	
3	0	0	0	0	497	622	
4	0	0	0	0	498	621	
5	0	0	0	0	499	621	
6	0	0	0	0	500	622	
7	0	0	0	0	500	622	
8	0	0	0	0	501	622	
9	0	0	0	0	501	622	
10	0	0	0	0	500	622	
11	0	0	0	0	500	623	
12	0	0	0	0	500	622	
13	0	0	0	0	500	623	
14	0	0	0	0	500	623	
15	0	0	0	0	500	623	
0	0	0	0	0	501	623	
1	0	0	0	0	501	623	
2	0	0	0	0	502	623	
3	0	0	0	0	502	623	
4	0	0	0	0	501	623	
5	0	0	0	0	501	623	
6	0	0	0	0	501	623	
7	0	0	0	0	502	624	
8	0	0	0	0	501	624	
9	0	0	0	0	501	624	
10	0	0	0	0	501	624	
11	0	0	0	0	501	624	
12	0	0	0	0	501	624	
13	0	0	0	0	502	624	
14	0	0	0	0	503	624	
15	0	0	0	0	503	624	
0	0	0	0	0	503	625	
1	0	0	0	0	502	624	
2	0	0	0	0	501	625	
3	0	0	0	0	500	625	
4	0	0	0	0	500	624	
5	0	0	0	0	500	625	
6	0	0	0	0	500	625	
7	0	0	0	0	501	625	
8	0	0	0	0	501	625	
9	0	0	0	0	501	625	
10	0	0	0	0	501	625	
11	0	0	0	0	501	625	
12	0	0	0	0	502	625	
13	0	0	0	0	502	625	
14	0	0	0	0	502	625	
15	0	0	0	0	503	625	
0	0	0	0	0	503	625	
1	0	0	0	0	503	625	
2	0	0	0	0	503	625	
3	0	0	0	0	504	624	
4	0	0	0	0	505	625	
5	0	0	0	0	506	625	
6	0	0	0	0	506	625	
7	0	0	0	0	506	624	
8	0	0	0	0	506	625	
9	0	0	0	0	506	625	
10	0	0	0	0	507	624	
11	0	0	0	0	508	624	
12	0	0	0	0	509	624	
13	0	0	0	0	509	624	
14	0	0	0	0	510	626	
15	0	0	0	0	510	624	
0	0	0	0	0	510	625	
1	0	0	0	0	509	625	
2	0	0	0	0	507	625	
3	0	0	0	0	505	625	
4	0	0	0	0	504	625	
5	0	0	0	0	504	625	
6	0	0	0	0	504	625	
7	0	0	0	0	505	624	
8	0	0	0	0	506	625	
9	0	0	0	0	507	625	
10	0	0	0	0	507	625	
11	0	0	0	0	507	624	
12	0	0	0	0	508	624	
13	0	0	0	0	509	625	
14	0	0	0	0	509	625	
15	0	0	0	0	511	625	
0	0	0	0	0	511	625	
1	0	0	0	0	511	625	
2	0	0	0	0	511	625	
3	0	0	0	0	510	624	
4	0	0	0	0	510	625	
5	0	0	0	0	511	624	
6	0	0	0	0	511	625	
7	0	0	0	0	511	625	
8	0	0	0	0	510	624	
9	0	0	0	0	510	624	
10	0	0	0	0	509	624	
11	0	0	0	0	509	624	
12	0	0	0	0	508	624	
13	0	0	0	0	509	624	
14	0	0	0	0	509	624	
15	0	0	0	0	509	623	
0	0	0	0	0	509	624	
1	0	0	0	0	509	623	
2	0	0	0	0	509	623	
3	0	0	0	0	510	624	
4	0	0	0	0	510	623	
5	0	0	0	0	509	622	
6	0	0	0	0	509	623	
7	0	0	0	0	508	622	
8	0	0	0	0	508	622	
9	0	0	0	0	508	622	
10	0	0	0	0	509	622	
11	0	0	0	0	509	622	
12	0	0	0	0	508	621	
13	0	0	0	0	508	622	
14	0	0	0	0	508	622	
15	0	0	0	0	509	621	
0	0	0	0	0	508	621	
1	0	0	0	0	508	621	
2	0	0	0	0	508	621	
3	0	0	0	0	508	621	
4	0	0	0	0	507	620	
5	0	0	0	0	507	621	
6	0	0	0	0	506	620	
7	0	0	0	0	506	620	
8	0	0	0	0	506	620	
9	0	0	0	0	505	620	
10	0	0	0	0	505	620	
11	0	0	0	0	507	620	
12	0	0	0	0	508	620	
13	0	0	0	0	508	620	
14	0	0	0	0	508	620	
15	0	0	0	0	508	620	
0	0	0	0	0	508	620	
1	0	0	0	0	508	620	
2	0	0	0	0	508	620	
3	0	0	0	0	508	620	
4	0	0	0	0	508	620	
5	0	0	0	0	509	620	
6	0	0	0	0	510	621	
7	0	0	0	0	510	620	
8	0	0	0	0	509	620	
9	0	0	0	0	509	620	
10	0	0	0	0	509	620	
11	0	0	0	0	510	620	
12	0	0	0	0	510	620	
13	0	0	0	0	509	620	
14	0	0	0	0	510	620	
15	0	0	0	0	510	619	
0	0	0	0	0	510	620	
1	0	0	0	0	511	620	
2	0	0	0	0	512	620	
3	0	0	0	0	513	619	
4	0	0	0	0	513	619	
5	0	0	0	0	513	620	
6	0	0	0	0	512	620	
7	0	0	0	0	512	620	
8	0	0	0	0	512	620	
9	0	0	0	0	511	620	
10	0	0	0	0	511	620	
11	0	0	0	0	511	620	
12	0	0	0	0	510	620	
13	0	0	0	0	510	620	
14	0	0	0	0	508	620	
15	0	0	0	0	508	621	
0	0	0	0	0	508	621	
1	0	0	0	0	508	620	
2	0	0	0	0	508	620	
3	0	0	0	0	510	620	
4	0	0	0	0	510	621	
5	0	0	0	0	510	620	
6	0	0	0	0	510	622	
7	0	0	0	0	510	621	
8	0	0	0	0	511	622	
9	0	0	0	0	512	622	
10	0	0	0	0	513	622	
11	0	0	0	0	513	623	
12	0	0	0	0	513	622	
13	0	0	0	0	512	623	
14	0	0	0	0	511	624	
15	0	0	0	0	509	623	
0	0	0	0	0	508	624	
1	0	0	0	0	506	624	
2	0	0	0	0	505	623	
3	0	0	0	0	503	624	
4	0	0	0	0	503	624	
5	0	0	0	0	503	623	
6	0	0	0	0	503	624	
7	0	0	0	0	502	624	
8	0	0	0	0	501	624	
9	0	0	0	0	500	624	
10	0	0	0	0	499	624	
11	0	0	0	0	498	624	
12	0	0	0	0	499	624	
13	0	0	0	0	499	625	
14	0	0	0	0	501	625	
15	0	0	0	0	503	625	
0	0	0	0	0	506	624	
1	0	0	0	0	508	624	
2	0	0	0	0	510	624	
3	0	0	0	0	513	624	
4	0	0	0	0	515	625	
5	0	0	0	0	518	625	
6	0	0	0	0	520	626	
7	0	0	0	0	521	627	
8	0	0	0	0	523	628	
9	0	0	0	0	524	629	
10	0	0	0	0	524	630	
11	0	0	0	0	525	631	
12	0	0	0	0	524	632	
13	0	0	0	0	522	633	
14	0	0	0	0	521	635	
15	0	0	0	0	520	636	
0	0	0	0	0	519	637	
1	0	0	0	0	518	638	
2	0	0	0	0	517	639	
3	0	0	0	0	515	640	
4	0	0	0	0	514	641	
5	0	0	0	0	512	641	
6	0	0	0	0	511	642	
7	0	0	0	0	509	641	
8	0	0	0	0	507	642	
9	0	0	0	0	505	642	
10	0	0	0	0	504	641	
11	0	0	0	0	503	642	
12	0	0	0	0	503	640	
13	0	0	0	0	502	640	
14	0	0	0	0	501	639	
15	0	0	0	0	500	637	
0	0	0	0	0	500	636	
1	0	0	0	0	499	635	
2	0	0	0	0	499	634	
3	0	0	0	0	498	632	
4	0	0	0	0	497	630	
5	0	0	0	0	498	630	
6	0	0	0	0	498	628	
7	0	0	0	0	499	626	
8	0	0	0	0	499	624	
9	0	0	0	0	499	623	
10	0	0	0	0	498	622	
11	0	0	0	0	498	620	
12	0	0	0	0	498	619	
13	0	0	0	0	498	617	
14	0	0	0	0	495	617	
15	0	0	0	0	491	616	
0	0	0	0	0	485	614	
1	0	0	0	0	478	612	
2	0	0	0	0	472	612	
3	0	0	0	0	463	611	
4	0	0	0	0	455	610	
5	0	0	0	0	448	609	
6	0	0	0	0	441	609	
7	0	0	0	0	435	608	
8	0	0	0	0	429	607	
9	0	0	0	0	424	607	
10	0	0	0	0	421	607	
11	0	0	0	0	419	606	
12	0	0	0	0	419	606	
13	0	0	0	0	420	606	
14	0	0	0	0	422	606	
15	0	0	0	0	425	606	
0	0	0	0	0	430	606	
1	0	0	0	0	435	607	
2	0	0	0	0	440	606	
3	0	0	0	0	445	608	
4	0	0	0	0	450	608	
5	0	0	0	0	456	608	
6	0	0	0	0	462	610	
7	0	0	0	0	467	610	
8	0	0	0	0	477	611	
9	0	0	0	0	493	612	
10	0	0	0	0	513	614	
11	0	0	0	0	535	615	
12	0	0	0	0	558	616	
13	0	0	0	0	585	618	
14	0	0	0	0	614	619	
15	0	0	0	0	647	620	
0	0	0	0	0	684	622	
1	0	0	0	0	717	623	
2	0	0	0	0	747	624	
3	0	0	0	0	773	625	
4	0	0	0	0	796	626	
5	0	0	0	0	813	627	
6	0	0	0	0	825	628	
7	0	0	0	0	831	628	
8	0	0	0	0	830	629	
9	0	0	0	0	829	630	
10	0	0	0	0	825	631	
11	0	0	0	0	819	632	
12	0	0	0	0	813	632	
13	0	0	0	0	804	632	
14	0	0	0	0	795	633	
15	0	0	0	0	782	633	
0	0	0	0	0	767	632	
1	0	0	0	0	749	633	
2	0	0	0	0	730	633	
3	0	0	0	0	711	633	
4	0	0	0	0	693	633	
5	0	0	0	0	677	633	
6	0	0	0	0	661	633	
7	0	0	0	0	646	633	
8	0	0	0	0	632	632	
9	0	0	0	0	620	632	
10	0	0	0	0	608	632	
11	0	0	0	0	598	632	
12	0	0	0	0	588	631	
13	0	0	0	0	579	631	
14	0	0	0	0	568	631	
15	0	0	0	0	558	630	
0	0	0	0	0	548	630	
1	0	0	0	0	537	628	
2	0	0	0	0	528	627	
3	0	0	0	0	519	627	
4	0	0	0	0	510	627	
5	0	0	0	0	501	626	
6	0	0	0	0	493	625	
7	0	0	0	0	486	624	
8	0	0	0	0	480	624	
9	0	0	0	0	473	623	
10	0	0	0	0	467	624	
11	0	0	0	0	461	622	
12	0	0	0	0	456	622	
13	0	0	0	0	451	621	
14	0	0	0	0	446	622	
15	0	0	0	0	441	621	
0	0	0	0	0	438	620	
1	0	0	0	0	436	620	
2	0	0	0	0	435	620	
3	0	0	0	0	434	619	
4	0	0	0	0	432	620	
5	0	0	0	0	429	619	
6	0	0	0	0	427	619	
7	0	0	0	0	427	619	
8	0	0	0	0	428	618	
9	0	0	0	0	427	619	
10	0	0	0	0	425	618	
11	0	0	0	0	424	619	
12	0	0	0	0	423	618	
13	0	0	0	0	421	618	
14	0	0	0	0	421	619	
15	0	0	0	0	421	618	
0	0	0	0	0	421	617	
1	0	0	0	0	420	618	
2	0	0	0	0	419	618	
3	0	0	0	0	419	618	
4	0	0	0	0	420	617	
5	0	0	0	0	421	617	
6	0	0	0	0	420	617	
7	0	0	0	0	419	617	
8	0	0	0	0	420	617	
9	0	0	0	0	421	617	
10	0	0	0	0	423	617	
11	0	0	0	0	424	617	
12	0	0	0	0	425	617	
13	0	0	0	0	427	617	
14	0	0	0	0	427	617	
15	0	0	0	0	428	617	
0	0	0	0	0	429	617	
1	0	0	0	0	427	616	
2	0	0	0	0	425	617	
3	0	0	0	0	424	617	
4	0	0	0	0	423	617	
5	0	0	0	0	424	617	
6	0	0	0	0	426	618	
7	0	0	0	0	426	617	
8	0	0	0	0	426	617	
9	0	0	0	0	427	617	
10	0	0	0	0	428	617	
11	0	0	0	0	428	617	
12	0	0	0	0	428	617	
13	0	0	0	0	430	617	
14	0	0	0	0	430	618	
15	0	0	0	0	431	619	
0	0	0	0	0	432	618	
1	0	0	0	0	432	619	
2	0	0	0	0	432	619	
3	0	0	0	0	433	619	
4	0	0	0	0	435	620	
5	0	0	0	0	435	619	
6	0	0	0	0	435	620	
7	0	0	0	0	434	620	
8	0	0	0	0	434	621	
9	0	0	0	0	435	620	
10	0	0	0	0	435	621	
11	0	0	0	0	435	622	
12	0	0	0	0	435	622	
13	0	0	0	0	436	622	
14	0	0	0	0	437	624	
15	0	0	0	0	437	623	
0	0	0	0	0	438	623	
1	0	0	0	0	438	624	
2	0	0	0	0	438	625	
3	0	0	0	0	438	624	
4	0	0	0	0	438	625	
5	0	0	0	0	439	625	
6	0	0	0	0	439	626	
7	0	0	0	0	439	626	
8	0	0	0	0	439	626	
9	0	0	0	0	439	627	
10	0	0	0	0	440	627	
11	0	0	0	0	440	627	
12	0	0	0	0	441	627	
13	0	0	0	0	440	628	
14	0	0	0	0	440	628	
15	0	0	0	0	440	628	
0	0	0	0	0	440	628	
1	0	0	0	0	441	629	
2	0	0	0	0	442	628	
3	0	0	0	0	444	628	
4	0	0	0	0	444	628	
5	0	0	0	0	446	629	
6	0	0	0	0	446	629	
7	0	0	0	0	446	628	
8	0	0	0	0	446	627	
9	0	0	0	0	447	628	
10	0	0	0	0	448	628	
11	0	0	0	0	449	628	
12	0	0	0	0	450	627	
13	0	0	0	0	450	627	
14	0	0	0	0	450	627	
15	0	0	0	0	450	625	
0	0	0	0	0	451	626	
1	0	0	0	0	450	625	
2	0	0	0	0	450	624	
3	0	0	0	0	450	625	
4	0	0	0	0	449	624	
5	0	0	0	0	449	624	
6	0	0	0	0	449	623	
7	0	0	0	0	450	623	
8	0	0	0	0	451	623	
9	0	0	0	0	452	623	
10	0	0	0	0	453	623	
11	0	0	0	0	453	622	
12	0	0	0	0	453	622	
13	0	0	0	0	453	622	
14	0	0	0	0	454	622	
15	0	0	0	0	454	621	
0	0	0	0	0	454	622	
1	0	0	0	0	455	620	
2	0	0	0	0	457	621	
3	0	0	0	0	457	621	
4	0	0	0	0	457	620	
5	0	0	0	0	457	621	
6	0	0	0	0	456	621	
7	0	0	0	0	456	621	
8	0	0	0	0	457	621	
9	0	0	0	0	459	622	
10	0	0	0	0	461	620	
11	0	0	0	0	462	621	
12	0	0	0	0	461	622	
13	0	0	0	0	461	621	
14	0	0	0	0	461	621	
15	0	0	0	0	462	621	
0	0	0	0	0	463	621	
1	0	0	0	0	464	621	
2	0	0	0	0	464	621	
3	0	0	0	0	463	622	
4	0	0	0	0	464	622	
5	0	0	0	0	464	621	
6	0	0	0	0	465	622	
7	0	0	0	0	466	622	
8	0	0	0	0	467	623	
9	0	0	0	0	469	622	
10	0	0	0	0	470	621	
11	0	0	0	0	472	623	
12	0	0	0	0	473	623	
13	0	0	0	0	473	623	
14	0	0	0	0	473	623	
15	0	0	0	0	474	624	
0	0	0	0	0	476	624	
1	0	0	0	0	477	623	
2	0	0	0	0	477	624	
3	0	0	0	0	478	624	
4	0	0	0	0	479	623	
5	0	0	0	0	479	624	
6	0	0	0	0	479	624	
7	0	0	0	0	479	623	
8	0	0	0	0	480	624	
9	0	0	0	0	481	623	
10	0	0	0	0	482	623	
11	0	0	0	0	482	623	
12	0	0	0	0	482	623	
13	0	0	0	0	483	623	
14	0	0	0	0	483	623	
15	0	0	0	0	485	623	
0	0	0	0	0	487	622	
1	0	0	0	0	487	622	
2	0	0	0	0	489	622	
3	0	0	0	0	492	621	
4	0	0	0	0	494	622	
5	0	0	0	0	496	621	
6	0	0	0	0	497	622	
7	0	0	0	0	498	621	
8	0	0	0	0	499	621	
9	0	0	0	0	500	621	
10	0	0	0	0	501	621	
11	0	0	0	0	502	621	
12	0	0	0	0	503	621	
13	0	0	0	0	503	620	
14	0	0	0	0	503	620	
15	0	0	0	0	504	620	
0	0	0	0	0	505	620	
1	0	0	0	0	507	620	
2	0	0	0	0	508	620	
3	0	0	0	0	509	621	
4	0	0	0	0	511	620	
5	0	0	0	0	512	620	
6	0	0	0	0	512	620	
7	0	0	0	0	513	620	
8	0	0	0	0	513	620	
9	0	0	0	0	514	620	
10	0	0	0	0	514	620	
11	0	0	0	0	515	621	
12	0	0	0	0	515	621	
13	0	0	0	0	516	621	
14	0	0	0	0	518	622	
15	0	0	0	0	520	621	
0	0	0	0	0	521	622	
1	0	0	0	0	521	622	
2	0	0	0	0	521	622	
3	0	0	0	0	521	622	
4	0	0	0	0	521	622	
5	0	0	0	0	520	622	
6	0	0	0	0	520	623	
7	0	0	0	0	519	623	
8	0	0	0	0	519	624	
9	0	0	0	0	519	624	
10	0	0	0	0	518	624	
11	0	0	0	0	517	625	
12	0	0	0	0	518	626	
13	0	0	0	0	517	626	
14	0	0	0	0	518	626	
15	0	0	0	0	517	625	
0	0	0	0	0	517	626	
1	0	0	0	0	516	627	
2	0	0	0	0	515	627	
3	0	0	0	0	515	627	
4	0	0	0	0	515	627	
5	0	0	0	0	514	628	
6	0	0	0	0	514	628	
7	0	0	0	0	514	628	
8	0	0	0	0	514	628	
9	0	0	0	0	514	629	
10	0	0	0	0	514	630	
11	0	0	0	0	515	629	
12	0	0	0	0	516	629	
13	0	0	0	0	517	630	
14	0	0	0	0	518	630	
15	0	0	0	0	519	629	
0	0	0	0	0	521	629	
1	0	0	0	0	521	629	
2	0	0	0	0	522	629	
3	0	0	0	0	524	629	
4	0	0	0	0	525	629	
5	0	0	0	0	527	629	
6	0	0	0	0	527	629	
7	0	0	0	0	528	628	
8	0	0	0	0	529	630	
9	0	0	0	0	529	628	
10	0	0	0	0	531	630	
11	0	0	0	0	530	630	
12	0	0	0	0	529	630	
13	0	0	0	0	528	630	
14	0	0	0	0	528	631	
15	0	0	0	0	528	631	
0	0	0	0	0	527	631	
1	0	0	0	0	526	632	
2	0	0	0	0	526	632	
3	0	0	0	0	525	631	
4	0	0	0	0	525	631	
5	0	0	0	0	525	632	
6	0	0	0	0	525	632	
7	0	0	0	0	523	632	
8	0	0	0	0	521	632	
9	0	0	0	0	519	631	
10	0	0	0	0	516	630	
11	0	0	0	0	515	630	
12	0	0	0	0	515	630	
13	0	0	0	0	515	628	
14	0	0	0	0	515	629	
15	0	0	0	0	513	627	
0	0	0	0	0	512	627	
1	0	0	0	0	512	626	
2	0	0	0	0	512	625	
3	0	0	0	0	511	625	
4	0	0	0	0	510	625	
5	0	0	0	0	510	624	
6	0	0	0	0	509	623	
7	0	0	0	0	510	622	
8	0	0	0	0	509	622	
9	0	0	0	0	509	621	
10	0	0	0	0	508	620	
11	0	0	0	0	507	620	
12	0	0	0	0	505	619	
13	0	0	0	0	503	619	
14	0	0	0	0	502	618	
15	0	0	0	0	500	618	
0	0	0	0	0	499	617	
1	0	0	0	0	499	617	
2	0	0	0	0	500	617	
3	0	0	0	0	501	616	
4	0	0	0	0	502	616	
5	0	0	0	0	503	615	
6	0	0	0	0	505	615	
7	0	0	0	0	506	615	
8	0	0	0	0	506	614	
9	0	0	0	0	506	614	
10	0	0	0	0	507	615	
11	0	0	0	0	508	614	
12	0	0	0	0	508	614	
13	0	0	0	0	509	614	
14	0	0	0	0	510	614	
15	0	0	0	0	511	614	
0	0	0	0	0	511	614	
1	0	0	0	0	511	614	
2	0	0	0	0	511	614	
3	0	0	0	0	512	614	
4	0	0	0	0	512	615	
5	0	0	0	0	513	615	
6	0	0	0	0	513	615	
7	0	0	0	0	512	614	
8	0	0	0	0	513	615	
9	0	0	0	0	513	615	
10	0	0	0	0	514	615	
11	0	0	0	0	515	617	
12	0	0	0	0	515	617	
13	0	0	0	0	514	617	
14	0	0	0	0	514	618	
15	0	0	0	0	513	617	
0	0	0	0	0	513	618	
1	0	0	0	0	512	618	
2	0	0	0	0	512	618	
3	0	0	0	0	512	618	
4	0	0	0	0	513	619	
5	0	0	0	0	513	620	
6	0	0	0	0	513	620	
7	0	0	0	0	512	620	
8	0	0	0	0	512	620	
9	0	0	0	0	512	621	
10	0	0	0	0	512	622	
11	0	0	0	0	512	622	
12	0	0	0	0	512	622	
13	0	0	0	0	512	622	
14	0	0	0	0	511	622	
15	0	0	0	0	511	622	
0	0	0	0	0	510	622	
1	0	0	0	0	510	623	
2	0	0	0	0	512	623	
3	0	0	0	0	513	623	
4	0	0	0	0	514	624	
5	0	0	0	0	515	624	
6	0	0	0	0	515	624	
7	0	0	0	0	515	625	
8	0	0	0	0	514	624	
9	0	0	0	0	514	624	
10	0	0	0	0	514	624	
11	0	0	0	0	515	624	
12	0	0	0	0	515	625	
13	0	0	0	0	515	624	
14	0	0	0	0	514	624	
15	0	0	0	0	512	624	
0	0	0	0	0	512	625	
1	0	0	0	0	512	624	
2	0	0	0	0	512	625	
3	0	0	0	0	512	625	
4	0	0	0	0	511	625	
5	0	0	0	0	510	625	
6	0	0	0	0	509	625	
7	0	0	0	0	509	625	
8	0	0	0	0	508	625	
9	0	0	0	0	508	624	
10	0	0	0	0	509	624	
11	0	0	0	0	510	624	
12	0	0	0	0	511	623	
13	0	0	0	0	512	624	
14	0	0	0	0	511	623	
15	0	0	0	0	510	623	
0	0	0	0	0	507	623	
1	0	0	0	0	505	623	
2	0	0	0	0	504	623	
3	0	0	0	0	503	623	
4	0	0	0	0	503	623	
5	0	0	0	0	503	623	
6	0	0	0	0	503	622	
7	0	0	0	0	503	622	
8	0	0	0	0	504	622	
9	0	0	0	0	505	622	
10	0	0	0	0	506	622	
11	0	0	0	0	507	622	
12	0	0	0	0	510	622	
13	0	0	0	0	513	622	
14	0	0	0	0	516	622	
15	0	0	0	0	518	622	
0	0	0	0	0	520	622	
1	0	0	0	0	523	623	
2	0	0	0	0	523	623	
3	0	0	0	0	524	623	
4	0	0	0	0	525	623	
5	0	0	0	0	525	624	
6	0	0	0	0	525	624	
7	0	0	0	0	527	625	
8	0	0	0	0	527	624	
9	0	0	0	0	529	625	
10	0	0	0	0	529	625	
11	0	0	0	0	530	626	
12	0	0	0	0	531	625	
13	0	0	0	0	530	625	
14	0	0	0	0	530	627	
15	0	0	0	0	530	625	
0	0	0	0	0	531	626	
1	0	0	0	0	531	626	
2	0	0	0	0	532	625	
3	0	0	0	0	532	626	
4	0	0	0	0	531	625	
5	0	0	0	0	531	625	
6	0	0	0	0	527	625	
7	0	0	0	0	526	624	
8	0	0	0	0	525	624	
9	0	0	0	0	524	624	
10	0	0	0	0	523	623	
11	0	0	0	0	523	623	
12	0	0	0	0	523	623	
13	0	0	0	0	522	622	
14	0	0	0	0	522	622	
15	0	0	0	0	523	622	
0	0	0	0	0	524	622	
1	0	0	0	0	524	621	
2	0	0	0	0	523	621	
3	0	0	0	0	523	621	
4	0	0	0	0	522	621	
5	0	0	0	0	521	620	
6	0	0	0	0	521	620	
7	0	0	0	0	522	620	
8	0	0	0	0	521	619	
9	0	0	0	0	521	620	
10	0	0	0	0	521	619	
11	0	0	0	0	520	619	
12	0	0	0	0	519	619	
13	0	0	0	0	519	619	
14	0	0	0	0	517	619	
15	0	0	0	0	515	619	
0	0	0	0	0	515	618	
1	0	0	0	0	515	619	
2	0	0	0	0	515	618	
3	0	0	0	0	515	618	
4	0	0	0	0	515	617	
5	0	0	0	0	515	618	
6	0	0	0	0	514	618	
7	0	0	0	0	513	618	
8	0	0	0	0	513	618	
9	0	0	0	0	512	618	
10	0	0	0	0	512	618	
11	0	0	0	0	512	618	
12	0	0	0	0	512	619	
13	0	0	0	0	512	619	
14	0	0	0	0	511	619	
15	0	0	0	0	511	619	
0	0	0	0	0	510	620	
1	0	0	0	0	509	620	
2	0	0	0	0	510	621	
3	0	0	0	0	509	621	
4	0	0	0	0	509	622	
5	0	0	0	0	509	622	
6	0	0	0	0	509	623	
7	0	0	0	0	508	624	
8	0	0	0	0	508	623	
9	0	0	0	0	508	624	
10	0	0	0	0	508	624	
11	0	0	0	0	508	624	
12	0	0	0	0	509	624	
13	0	0	0	0	508	625	
14	0	0	0	0	508	625	
15	0	0	0	0	508	626	
0	0	0	0	0	508	625	
1	0	0	0	0	505	625	
2	0	0	0	0	503	626	
3	0	0	0	0	501	627	
4	0	0	0	0	500	627	
5	0	0	0	0	500	627	
6	0	0	0	0	501	628	
7	0	0	0	0	500	628	
8	0	0	0	0	500	628	
9	0	0	0	0	501	628	
10	0	0	0	0	501	628	
11	0	0	0	0	502	630	
12	0	0	0	0	502	629	
13	0	0	0	0	501	629	
14	0	0	0	0	501	629	
15	0	0	0	0	501	628	
0	0	0	0	0	502	629	
1	0	0	0	0	502	629	
2	0	0	0	0	502	628	
3	0	0	0	0	502	629	
4	0	0	0	0	503	629	
5	0	0	0	0	504	629	
6	0	0	0	0	504	629	
7	0	0	0	0	504	629	
8	0	0	0	0	504	628	
9	0	0	0	0	504	628	
10	0	0	0	0	504	627	
11	0	0	0	0	504	628	
12	0	0	0	0	504	627	
13	0	0	0	0	505	627	
14	0	0	0	0	505	627	
15	0	0	0	0	505	627	
0	0	0	0	0	505	626	
1	0	0	0	0	505	627	
2	0	0	0	0	505	626	
3	0	0	0	0	504	625	
4	0	0	0	0	505	625	
5	0	0	0	0	506	625	
6	0	0	0	0	506	625	
7	0	0	0	0	506	624	
8	0	0	0	0	506	624	
9	0	0	0	0	506	624	
10	0	0	0	0	505	624	
11	0	0	0	0	506	624	
12	0	0	0	0	508	624	
13	0	0	0	0	508	623	
14	0	0	0	0	507	624	
15	0	0	0	0	506	624	
0	0	0	0	0	506	623	
1	0	0	0	0	505	623	
2	0	0	0	0	504	623	
3	0	0	0	0	504	623	
4	0	0	0	0	503	623	
5	0	0	0	0	503	623	
6	0	0	0	0	504	623	
7	0	0	0	0	504	623	
8	0	0	0	0	505	622	
9	0	0	0	0	505	623	
10	0	0	0	0	505	623	
11	0	0	0	0	506	623	
12	0	0	0	0	506	622	
13	0	0	0	0	505	623	
14	0	0	0	0	505	623	
15	0	0	0	0	504	622	
0	0	0	0	0	502	622	
1	0	0	0	0	501	621	
2	0	0	0	0	501	622	
3	0	0	0	0	501	621	
4	0	0	0	0	500	621	
5	0	0	0	0	500	621	
6	0	0	0	0	499	622	
7	0	0	0	0	499	621	
8	0	0	0	0	500	621	
9	0	0	0	0	501	621	
10	0	0	0	0	503	621	
11	0	0	0	0	502	620	
12	0	0	0	0	503	620	
13	0	0	0	0	503	620	
14	0	0	0	0	502	620	
15	0	0	0	0	502	620	
0	0	0	0	0	502	619	
1	0	0	0	0	501	619	
2	0	0	0	0	501	619	
3	0	0	0	0	501	618	
4	0	0	0	0	502	619	
5	0	0	0	0	503	618	
6	0	0	0	0	503	619	
7	0	0	0	0	504	618	
8	0	0	0	0	504	618	
9	0	0	0	0	504	618	
10	0	0	0	0	504	618	
11	0	0	0	0	504	618	
12	0	0	0	0	504	617	
13	0	0	0	0	504	617	
14	0	0	0	0	502	618	
15	0	0	0	0	500	618	
0	0	0	0	0	500	617	
1	0	0	0	0	500	618	
2	0	0	0	0	501	618	
3	0	0	0	0	502	617	
4	0	0	0	0	502	617	
5	0	0	0	0	502	618	
6	0	0	0	0	502	618	
7	0	0	0	0	502	618	
8	0	0	0	0	502	618	
9	0	0	0	0	502	618	
10	0	0	0	0	502	619	
11	0	0	0	0	503	619	
12	0	0	0	0	502	619	
13	0	0	0	0	502	620	
14	0	0	0	0	502	620	
15	0	0	0	0	503	620	
0	0	0	0	0	502	620	
1	0	0	0	0	502	620	
2	0	0	0	0	502	621	
3	0	0	0	0	502	621	
4	0	0	0	0	502	622	
5	0	0	0	0	502	621	
6	0	0	0	0	501	622	
7	0	0	0	0	502	622	
8	0	0	0	0	502	623	
9	0	0	0	0	502	624	
10	0	0	0	0	501	623	
11	0	0	0	0	502	624	
12	0	0	0	0	503	624	
13	0	0	0	0	504	624	
14	0	0	0	0	504	625	
15	0	0	0	0	503	624	
0	0	0	0	0	504	625	
1	0	0	0	0	503	625	
2	0	0	0	0	501	625	
3	0	0	0	0	501	625	
4	0	0	0	0	500	624	
5	0	0	0	0	500	624	
6	0	0	0	0	500	625	
7	0	0	0	0	501	624	
8	0	0	0	0	502	625	
9	0	0	0	0	502	625	
10	0	0	0	0	501	625	
11	0	0	0	0	502	624	
12	0	0	0	0	502	624	
13	0	0	0	0	502	624	
14	0	0	0	0	503	624	
15	0	0	0	0	503	624	
0	0	0	0	0	503	624	
1	0	0	0	0	502	624	
2	0	0	0	0	502	623	
3	0	0	0	0	501	623	
4	0	0	0	0	501	623	
5	0	0	0	0	502	623	
6	0	0	0	0	503	623	
7	0	0	0	0	504	622	
8	0	0	0	0	503	622	
9	0	0	0	0	504	622	
10	0	0	0	0	503	621	
11	0	0	0	0	504	622	
12	0	0	0	0	505	623	
13	0	0	0	0	506	622	
14	0	0	0	0	506	622	
15	0	0	0	0	505	621	
0	0	0	0	0	505	622	
1	0	0	0	0	503	622	
2	0	0	0	0	502	622	
3	0	0	0	0	502	622	
4	0	0	0	0	502	622	
5	0	0	0	0	501	622	
6	0	0	0	0	500	623	
7	0	0	0	0	499	622	
8	0	0	0	0	499	622	
9	0	0	0	0	499	621	
10	0	0	0	0	500	622	
11	0	0	0	0	501	622	
12	0	0	0	0	501	622	
13	0	0	0	0	500	621	
14	0	0	0	0	501	622	
15	0	0	0	0	504	622	
0	0	0	0	0	505	622	
1	0	0	0	0	507	622	
2	0	0	0	0	507	622	
3	0	0	0	0	509	622	
4	0	0	0	0	510	622	
5	0	0	0	0	510	623	
6	0	0	0	0	509	623	
7	0	0	0	0	509	622	
8	0	0	0	0	508	623	
9	0	0	0	0	506	623	
10	0	0	0	0	506	623	
11	0	0	0	0	506	623	
12	0	0	0	0	506	624	
13	0	0	0	0	507	624	
14	0	0	0	0	507	624	
15	0	0	0	0	508	624	
0	0	0	0	0	509	624	
1	0	0	0	0	510	625	
2	0	0	0	0	510	625	
3	0	0	0	0	509	624	
4	0	0	0	0	509	625	
5	0	0	0	0	508	625	
6	0	0	0	0	508	625	
7	0	0	0	0	507	624	
8	0	0	0	0	507	624	
9	0	0	0	0	506	624	
10	0	0	0	0	506	624	
11	0	0	0	0	507	624	
12	0	0	0	0	507	624	
13	0	0	0	0	505	624	
14	0	0	0	0	505	625	
15	0	0	0	0	504	624	
0	0	0	0	0	504	624	
1	0	0	0	0	504	624	
2	0	0	0	0	506	624	
3	0	0	0	0	507	624	
4	0	0	0	0	508	624	
5	0	0	0	0	508	624	
6	0	0	0	0	509	624	
7	0	0	0	0	509	624	
8	0	0	0	0	509	624	
9	0	0	0	0	509	623	
10	0	0	0	0	507	624	
11	0	0	0	0	506	624	
12	0	0	0	0	505	623	
13	0	0	0	0	504	624	
14	0	0	0	0	503	624	
15	0	0	0	0	502	623	
0	0	0	0	0	501	623	
1	0	0	0	0	500	622	
2	0	0	0	0	499	623	
3	0	0	0	0	496	623	
4	0	0	0	0	495	624	
5	0	0	0	0	495	624	
6	0	0	0	0	495	624	
7	0	0	0	0	497	624	
8	0	0	0	0	499	624	
9	0	0	0	0	500	624	
10	0	0	0	0	503	623	
11	0	0	0	0	506	623	
12	0	0	0	0	509	623	
13	0	0	0	0	511	624	
14	0	0	0	0	513	624	
15	0	0	0	0	515	624	
0	0	0	0	0	517	624	
1	0	0	0	0	519	625	
2	0	0	0	0	521	625	
3	0	0	0	0	523	625	
4	0	0	0	0	524	626	
5	0	0	0	0	526	627	
6	0	0	0	0	527	628	
7	0	0	0	0	529	628	
8	0	0	0	0	530	629	
9	0	0	0	0	531	629	
10	0	0	0	0	531	630	
11	0	0	0	0	530	631	
12	0	0	0	0	529	632	
13	0	0	0	0	528	632	
14	0	0	0	0	527	632	
15	0	0	0	0	526	632	
0	0	0	0	0	525	632	
1	0	0	0	0	524	632	
2	0	0	0	0	523	631	
3	0	0	0	0	522	630	
4	0	0	0	0	520	630	
5	0	0	0	0	519	631	
6	0	0	0	0	518	630	
7	0	0	0	0	518	629	
8	0	0	0	0	519	628	
9	0	0	0	0	519	627	
10	0	0	0	0	519	626	
11	0	0	0	0	519	625	
12	0	0	0	0	518	625	
13	0	0	0	0	517	624	
14	0	0	0	0	517	624	
15	0	0	0	0	517	624	
0	0	0	0	0	516	622	
1	0	0	0	0	516	623	
2	0	0	0	0	516	621	
3	0	0	0	0	515	620	
4	0	0	0	0	515	620	
5	0	0	0	0	514	620	
6	0	0	0	0	514	619	
7	0	0	0	0	514	619	
8	0	0	0	0	515	618	
9	0	0	0	0	514	617	
10	0	0	0	0	513	617	
11	0	0	0	0	512	618	
12	0	0	0	0	511	618	
13	0	0	0	0	511	618	
14	0	0	0	0	509	619	
15	0	0	0	0	509	618	
0	0	0	0	0	509	618	
1	0	0	0	0	509	618	
2	0	0	0	0	510	617	
3	0	0	0	0	509	619	
4	0	0	0	0	508	618	
5	0	0	0	0	508	618	
6	0	0	0	0	506	619	
7	0	0	0	0	505	619	
8	0	0	0	0	503	619	
9	0	0	0	0	502	619	
10	0	0	0	0	502	619	
11	0	0	0	0	501	619	
12	0	0	0	0	500	620	
13	0	0	0	0	499	621	
14	0	0	0	0	499	620	
15	0	0	0	0	499	620	
0	0	0	0	0	499	621	
1	0	0	0	0	499	621	
2	0	0	0	0	500	622	
3	0	0	0	0	501	623	
4	0	0	0	0	501	623	
5	0	0	0	0	502	623	
6	0	0	0	0	502	624	
7	0	0	0	0	502	625	
8	0	0	0	0	502	625	
9	0	0	0	0	502	625	
10	0	0	0	0	501	626	
11	0	0	0	0	501	625	
12	0	0	0	0	502	627	
13	0	0	0	0	503	626	
14	0	0	0	0	503	627	
15	0	0	0	0	504	627	
0	0	0	0	0	504	627	
1	0	0	0	0	504	628	
2	0	0	0	0	505	627	
3	0	0	0	0	505	627	
4	0	0	0	0	505	627	
5	0	0	0	0	506	627	
6	0	0	0	0	505	627	
7	0	0	0	0	506	626	
8	0	0	0	0	506	627	
9	0	0	0	0	506	627	
10	0	0	0	0	506	627	
11	0	0	0	0	505	626	
12	0	0	0	0	505	626	
13	0	0	0	0	505	626	
14	0	0	0	0	504	625	
15	0	0	0	0	502	625	
0	0	0	0	0	498	625	
1	0	0	0	0	492	624	
2	0	0	0	0	486	623	
3	0	0	0	0	479	624	
4	0	0	0	0	471	623	
5	0	0	0	0	463	623	
6	0	0	0	0	455	623	
7	0	0	0	0	447	622	
8	0	0	0	0	440	622	
9	0	0	0	0	433	622	
10	0	0	0	0	428	621	
11	0	0	0	0	424	621	
12	0	0	0	0	423	621	
13	0	0	0	0	423	620	
14	0	0	0	0	424	620	
15	0	0	0	0	426	620	
0	0	0	0	0	430	620	
1	0	0	0	0	433	618	
2	0	0	0	0	438	619	
3	0	0	0	0	442	618	
4	0	0	0	0	448	619	
5	0	0	0	0	454	617	
6	0	0	0	0	460	617	
7	0	0	0	0	466	618	
8	0	0	0	0	473	617	
9	0	0	0	0	482	617	
10	0	0	0	0	496	616	
11	0	0	0	0	514	617	
12	0	0	0	0	534	616	
13	0	0	0	0	556	616	
14	0	0	0	0	583	617	
15	0	0	0	0	613	617	
0	0	0	0	0	645	617	
1	0	0	0	0	682	616	
2	0	0	0	0	716	617	
3	0	0	0	0	747	617	
4	0	0	0	0	774	616	
5	0	0	0	0	796	617	
6	0	0	0	0	811	617	
7	0	0	0	0	823	617	
8	0	0	0	0	829	616	
9	0	0	0	0	831	617	
10	0	0	0	0	831	617	
11	0	0	0	0	829	616	
12	0	0	0	0	825	617	
13	0	0	0	0	819	617	
14	0	0	0	0	814	617	
15	0	0	0	0	805	618	
0	0	0	0	0	793	617	
1	0	0	0	0	780	616	
2	0	0	0	0	762	617	
3	0	0	0	0	743	618	
4	0	0	0	0	724	617	
5	0	0	0	0	706	618	
6	0	0	0	0	689	617	
7	0	0	0	0	675	617	
8	0	0	0	0	660	618	
9	0	0	0	0	646	618	
10	0	0	0	0	633	618	
11	0	0	0	0	621	618	
12	0	0	0	0	609	617	
13	0	0	0	0	597	618	
14	0	0	0	0	587	618	
15	0	0	0	0	577	618	
0	0	0	0	0	567	619	
1	0	0	0	0	557	619	
2	0	0	0	0	545	619	
3	0	0	0	0	534	619	
4	0	0	0	0	521	619	
5	0	0	0	0	511	619	
6	0	0	0	0	501	619	
7	0	0	0	0	493	619	
8	0	0	0	0	486	619	
9	0	0	0	0	480	619	
10	0	0	0	0	475	619	
11	0	0	0	0	467	620	
12	0	0	0	0	461	620	
13	0	0	0	0	455	620	
14	0	0	0	0	448	620	
15	0	0	0	0	444	620	
0	0	0	0	0	440	620	
1	0	0	0	0	437	620	
2	0	0	0	0	434	620	
3	0	0	0	0	432	620	
4	0	0	0	0	430	621	
5	0	0	0	0	428	620	
6	0	0	0	0	427	620	
7	0	0	0	0	427	621	
8	0	0	0	0	426	621	
9	0	0	0	0	425	622	
10	0	0	0	0	424	622	
11	0	0	0	0	423	622	
12	0	0	0	0	423	622	
13	0	0	0	0	423	623	
14	0	0	0	0	423	623	
15	0	0	0	0	423	623	
0	0	0	0	0	423	622	
1	0	0	0	0	424	622	
2	0	0	0	0	423	623	
3	0	0	0	0	423	623	
4	0	0	0	0	424	623	
5	0	0	0	0	425	623	
6	0	0	0	0	424	624	
7	0	0	0	0	423	624	
8	0	0	0	0	422	624	
9	0	0	0	0	422	625	
10	0	0	0	0	422	624	
11	0	0	0	0	423	625	
12	0	0	0	0	424	624	
13	0	0	0	0	425	625	
14	0	0	0	0	426	626	
15	0	0	0	0	425	626	
0	0	0	0	0	424	626	
1	0	0	0	0	423	626	
2	0	0	0	0	424	627	
3	0	0	0	0	425	626	
4	0	0	0	0	426	627	
5	0	0	0	0	427	627	
6	0	0	0	0	428	627	
7	0	0	0	0	428	627	
8	0	0	0	0	429	627	
9	0	0	0	0	429	627	
10	0	0	0	0	430	627	
11	0	0	0	0	431	626	
12	0	0	0	0	431	626	
13	0	0	0	0	432	627	
14	0	0	0	0	432	627	
15	0	0	0	0	432	627	
0	0	0	0	0	433	627	
1	0	0	0	0	432	626	
2	0	0	0	0	433	626	
3	0	0	0	0	434	627	
4	0	0	0	0	435	626	
5	0	0	0	0	435	627	
6	0	0	0	0	435	626	
7	0	0	0	0	434	626	
8	0	0	0	0	433	625	
9	0	0	0	0	433	626	
10	0	0	0	0	435	626	
11	0	0	0	0	436	625	
12	0	0	0	0	437	625	
13	0	0	0	0	439	625	
14	0	0	0	0	440	625	
15	0	0	0	0	441	625	
0	0	0	0	0	441	625	
1	0	0	0	0	441	625	
2	0	0	0	0	440	624	
3	0	0	0	0	439	624	
4	0	0	0	0	440	624	
5	0	0	0	0	442	624	
6	0	0	0	0	444	625	
7	0	0	0	0	447	624	
8	0	0	0	0	448	623	
9	0	0	0	0	451	624	
10	0	0	0	0	451	623	
11	0	0	0	0	453	624	
12	0	0	0	0	454	624	
13	0	0	0	0	455	624	
14	0	0	0	0	456	624	
15	0	0	0	0	458	623	
0	0	0	0	0	459	623	
1	0	0	0	0	459	623	
2	0	0	0	0	460	624	
3	0	0	0	0	461	623	
4	0	0	0	0	462	623	
5	0	0	0	0	462	622	
6	0	0	0	0	464	623	
7	0	0	0	0	466	623	
8	0	0	0	0	469	623	
9	0	0	0	0	471	623	
10	0	0	0	0	471	623	
11	0	0	0	0	470	624	
12	0	0	0	0	470	624	
13	0	0	0	0	470	625	
14	0	0	0	0	471	625	
15	0	0	0	0	472	626	
0	0	0	0	0	471	627	
1	0	0	0	0	471	628	
2	0	0	0	0	469	627	
3	0	0	0	0	468	628	
4	0	0	0	0	466	629	
5	0	0	0	0	464	630	
6	0	0	0	0	463	630	
7	0	0	0	0	462	630	
8	0	0	0	0	460	630	
9	0	0	0	0	458	629	
10	0	0	0	0	458	629	
11	0	0	0	0	458	629	
12	0	0	0	0	458	629	
13	0	0	0	0	458	628	
14	0	0	0	0	457	628	
15	0	0	0	0	456	627	
0	0	0	0	0	455	627	
1	0	0	0	0	455	626	
2	0	0	0	0	455	625	
3	0	0	0	0	455	624	
4	0	0	0	0	454	624	
5	0	0	0	0	454	624	
6	0	0	0	0	455	623	
7	0	0	0	0	456	622	
8	0	0	0	0	457	622	
9	0	0	0	0	458	621	
10	0	0	0	0	460	621	
11	0	0	0	0	461	620	
12	0	0	0	0	462	620	
13	0	0	0	0	463	619	
14	0	0	0	0	464	619	
15	0	0	0	0	464	619	
0	0	0	0	0	464	619	
1	0	0	0	0	463	619	
2	0	0	0	0	463	618	
3	0	0	0	0	465	618	
4	0	0	0	0	466	618	
5	0	0	0	0	467	618	
6	0	0	0	0	467	619	
7	0	0	0	0	468	619	
8	0	0	0	0	468	619	
9	0	0	0	0	469	619	
10	0	0	0	0	469	619	
11	0	0	0	0	470	619	
12	0	0	0	0	471	619	
13	0	0	0	0	472	620	
14	0	0	0	0	473	620	
15	0	0	0	0	474	620	
0	0	0	0	0	473	620	
1	0	0	0	0	473	621	
2	0	0	0	0	472	621	
3	0	0	0	0	473	621	
4	0	0	0	0	474	622	
5	0	0	0	0	473	622	
6	0	0	0	0	473	623	
7	0	0	0	0	474	623	
8	0	0	0	0	475	623	
9	0	0	0	0	475	624	
10	0	0	0	0	476	624	
11	0	0	0	0	477	624	
12	0	0	0	0	479	625	
13	0	0	0	0	480	625	
14	0	0	0	0	481	626	
15	0	0	0	0	483	626	
0	0	0	0	0	484	627	
1	0	0	0	0	485	628	
2	0	0	0	0	486	627	
3	0	0	0	0	488	628	
4	0	0	0	0	489	628	
5	0	0	0	0	489	629	
6	0	0	0	0	490	629	
7	0	0	0	0	491	629	
8	0	0	0	0	492	630	
9	0	0	0	0	493	629	
10	0	0	0	0	494	629	
11	0	0	0	0	495	629	
12	0	0	0	0	496	630	
13	0	0	0	0	498	630	
14	0	0	0	0	499	630	
15	0	0	0	0	500	630	
0	0	0	0	0	502	630	
1	0	0	0	0	504	630	
2	0	0	0	0	505	630	
3	0	0	0	0	505	630	
4	0	0	0	0	506	630	
5	0	0	0	0	506	630	
6	0	0	0	0	506	630	
7	0	0	0	0	507	629	
8	0	0	0	0	508	629	
9	0	0	0	0	508	629	
10	0	0	0	0	508	628	
11	0	0	0	0	509	628	
12	0	0	0	0	510	627	
13	0	0	0	0	511	628	
14	0	0	0	0	512	628	
15	0	0	0	0	513	627	
0	0	0	0	0	513	627	
1	0	0	0	0	513	626	
2	0	0	0	0	513	625	
3	0	0	0	0	514	625	
4	0	0	0	0	515	624	
5	0	0	0	0	516	624	
6	0	0	0	0	516	624	
7	0	0	0	0	516	623	
8	0	0	0	0	516	624	
9	0	0	0	0	516	622	
10	0	0	0	0	515	622	
11	0	0	0	0	515	621	
12	0	0	0	0	514	621	
13	0	0	0	0	514	621	
14	0	0	0	0	514	621	
15	0	0	0	0	514	620	
0	0	0	0	0	515	620	
1	0	0	0	0	515	619	
2	0	0	0	0	514	619	
3	0	0	0	0	513	619	
4	0	0	0	0	513	619	
5	0	0	0	0	512	618	
6	0	0	0	0	512	617	
7	0	0	0	0	511	618	
8	0	0	0	0	511	616	
9	0	0	0	0	512	616	
10	0	0	0	0	511	615	
11	0	0	0	0	511	615	
12	0	0	0	0	510	615	
13	0	0	0	0	509	615	
14	0	0	0	0	509	615	
15	0	0	0	0	508	615	
0	0	0	0	0	507	615	
1	0	0	0	0	506	615	
2	0	0	0	0	505	614	
3	0	0	0	0	505	615	
4	0	0	0	0	504	614	
5	0	0	0	0	504	614	
6	0	0	0	0	504	614	
7	0	0	0	0	502	614	
8	0	0	0	0	501	614	
9	0	0	0	0	499	614	
10	0	0	0	0	499	614	
11	0	0	0	0	497	615	
12	0	0	0	0	497	614	
13	0	0	0	0	496	614	
14	0	0	0	0	497	615	
15	0	0	0	0	498	614	
0	0	0	0	0	499	615	
1	0	0	0	0	500	615	
2	0	0	0	0	500	615	
3	0	0	0	0	500	615	
4	0	0	0	0	500	616	
5	0	0	0	0	501	616	
6	0	0	0	0	502	616	
7	0	0	0	0	502	615	
8	0	0	0	0	502	616	
9	0	0	0	0	502	617	
10	0	0	0	0	500	617	
11	0	0	0	0	500	617	
12	0	0	0	0	500	617	
13	0	0	0	0	499	617	
14	0	0	0	0	499	618	
15	0	0	0	0	499	618	
0	0	0	0	0	500	619	
1	0	0	0	0	501	619	
2	0	0	0	0	501	620	
3	0	0	0	0	502	620	
4	0	0	0	0	503	620	
5	0	0	0	0	503	621	
6	0	0	0	0	504	621	
7	0	0	0	0	504	621	
8	0	0	0	0	506	621	
9	0	0	0	0	508	622	
10	0	0	0	0	508	622	
11	0	0	0	0	508	622	
12	0	0	0	0	508	623	
13	0	0	0	0	508	623	
14	0	0	0	0	508	623	
15	0	0	0	0	508	623	
0	0	0	0	0	507	623	
1	0	0	0	0	507	623	
2	0	0	0	0	506	623	
3	0	0	0	0	507	624	
4	0	0	0	0	508	624	
5	0	0	0	0	508	624	
6	0	0	0	0	509	625	
7	0	0	0	0	508	626	
8	0	0	0	0	507	625	
9	0	0	0	0	507	626	
10	0	0	0	0	507	626	
11	0	0	0	0	507	625	
12	0	0	0	0	507	626	
13	0	0	0	0	507	626	
14	0	0	0	0	507	626	
15	0	0	0	0	508	627	
0	0	0	0	0	507	627	
1	0	0	0	0	506	627	
2	0	0	0	0	505	627	
3	0	0	0	0	505	627	
4	0	0	0	0	505	627	
5	0	0	0	0	504	627	
6	0	0	0	0	503	626	
7	0	0	0	0	503	627	
8	0	0	0	0	504	626	
9	0	0	0	0	504	627	
10	0	0	0	0	505	627	
11	0	0	0	0	506	626	
12	0	0	0	0	507	627	
13	0	0	0	0	507	626	
14	0	0	0	0	506	626	
15	0	0	0	0	505	626	
0	0	0	0	0	505	625	
1	0	0	0	0	505	625	
2	0	0	0	0	504	625	
3	0	0	0	0	504	624	
4	0	0	0	0	504	625	
5	0	0	0	0	504	624	
6	0	0	0	0	505	625	
7	0	0	0	0	504	623	
8	0	0	0	0	505	623	
9	0	0	0	0	505	624	
10	0	0	0	0	504	622	
11	0	0	0	0	503	622	
12	0	0	0	0	502	622	
13	0	0	0	0	503	622	
14	0	0	0	0	502	622	
15	0	0	0	0	501	621	
0	0	0	0	0	500	621	
1	0	0	0	0	500	621	
2	0	0	0	0	501	621	
3	0	0	0	0	501	620	
4	0	0	0	0	500	620	
5	0	0	0	0	501	620	
6	0	0	0	0	502	620	
7	0	0	0	0	500	620	
8	0	0	0	0	499	620	
9	0	0	0	0	499	620	
10	0	0	0	0	498	620	
11	0	0	0	0	497	620	
12	0	0	0	0	495	619	
13	0	0	0	0	495	619	
14	0	0	0	0	495	620	
15	0	0	0	0	495	619	
0	0	0	0	0	495	619	
1	0	0	0	0	495	620	
2	0	0	0	0	495	620	
3	0	0	0	0	495	620	
4	0	0	0	0	496	620	
5	0	0	0	0	497	620	
6	0	0	0	0	497	620	
7	0	0	0	0	497	620	
8	0	0	0	0	497	620	
9	0	0	0	0	497	620	
10	0	0	0	0	497	620	
11	0	0	0	0	497	621	
12	0	0	0	0	496	620	
13	0	0	0	0	495	620	
14	0	0	0	0	495	621	
15	0	0	0	0	495	620	
0	0	0	0	0	495	621	
1	0	0	0	0	494	621	
2	0	0	0	0	494	621	
3	0	0	0	0	495	621	
4	0	0	0	0	496	621	
5	0	0	0	0	496	622	
6	0	0	0	0	496	622	
7	0	0	0	0	497	622	
8	0	0	0	0	498	622	
9	0	0	0	0	498	622	
10	0	0	0	0	498	622	
11	0	0	0	0	498	622	
12	0	0	0	0	499	622	
13	0	0	0	0	498	623	
14	0	0	0	0	498	623	
15	0	0	0	0	498	623	
0	0	0	0	0	499	623	
1	0	0	0	0	499	623	
2	0	0	0	0	499	623	
3	0	0	0	0	499	623	
4	0	0	0	0	499	623	
5	0	0	0	0	499	623	
6	0	0	0	0	500	623	
7	0	0	0	0	501	623	
8	0	0	0	0	501	623	
9	0	0	0	0	500	623	
10	0	0	0	0	500	623	
11	0	0	0	0	500	623	
12	0	0	0	0	499	623	
13	0	0	0	0	501	623	
14	0	0	0	0	501	623	
15	0	0	0	0	502	623	
0	0	0	0	0	502	623	
1	0	0	0	0	501	623	
2	0	0	0	0	500	623	
3	0	0	0	0	499	623	
4	0	0	0	0	498	624	
5	0	0	0	0	498	623	
6	0	0	0	0	498	624	
7	0	0	0	0	497	624	
8	0	0	0	0	497	623	
9	0	0	0	0	498	623	
10	0	0	0	0	499	624	
11	0	0	0	0	499	623	
12	0	0	0	0	499	624	
13	0	0	0	0	499	624	
14	0	0	0	0	501	624	
15	0	0	0	0	502	624	
0	0	0	0	0	502	624	
1	0	0	0	0	503	624	
2	0	0	0	0	502	625	
3	0	0	0	0	502	625	
4	0	0	0	0	502	625	
5	0	0	0	0	502	626	
6	0	0	0	0	501	627	
7	0	0	0	0	502	627	
8	0	0	0	0	502	627	
9	0	0	0	0	502	627	
10	0	0	0	0	502	628	
11	0	0	0	0	501	628	
12	0	0	0	0	501	628	
13	0	0	0	0	501	629	
14	0	0	0	0	500	630	
15	0	0	0	0	501	629	
0	0	0	0	0	502	630	
1	0	0	0	0	502	630	
2	0	0	0	0	502	630	
3	0	0	0	0	502	630	
4	0	0	0	0	502	631	
5	0	0	0	0	503	631	
6	0	0	0	0	502	632	
7	0	0	0	0	502	632	
8	0	0	0	0	501	631	
9	0	0	0	0	500	632	
10	0	0	0	0	499	631	
11	0	0	0	0	499	631	
12	0	0	0	0	499	631	
13	0	0	0	0	499	631	
14	0	0	0	0	499	631	
15	0	0	0	0	499	630	
0	0	0	0	0	500	630	
1	0	0	0	0	499	630	
2	0	0	0	0	500	630	
3	0	0	0	0	501	629	
4	0	0	0	0	501	630	
5	0	0	0	0	501	629	
6	0	0	0	0	501	630	
7	0	0	0	0	500	630	
8	0	0	0	0	501	630	
9	0	0	0	0	501	630	
10	0	0	0	0	502	631	
11	0	0	0	0	502	631	
12	0	0	0	0	503	630	
13	0	0	0	0	502	630	
14	0	0	0	0	501	630	
15	0	0	0	0	501	629	
0	0	0	0	0	501	629	
1	0	0	0	0	502	627	
2	0	0	0	0	503	627	
3	0	0	0	0	505	626	
4	0	0	0	0	508	625	
5	0	0	0	0	510	625	
6	0	0	0	0	511	624	
7	0	0	0	0	512	624	
8	0	0	0	0	514	623	
9	0	0	0	0	515	623	
10	0	0	0	0	514	622	
11	0	0	0	0	512	622	
12	0	0	0	0	510	622	
13	0	0	0	0	509	621	
14	0	0	0	0	510	621	
15	0	0	0	0	512	621	
0	0	0	0	0	513	620	
1	0	0	0	0	515	621	
2	0	0	0	0	517	620	
3	0	0	0	0	518	620	
4	0	0	0	0	519	621	
5	0	0	0	0	521	620	
6	0	0	0	0	523	620	
7	0	0	0	0	524	620	
8	0	0	0	0	524	621	
9	0	0	0	0	525	622	
10	0	0	0	0	524	622	
11	0	0	0	0	524	622	
12	0	0	0	0	523	623	
13	0	0	0	0	521	623	
14	0	0	0	0	519	624	
15	0	0	0	0	518	624	
0	0	0	0	0	516	624	
1	0	0	0	0	515	624	
2	0	0	0	0	515	625	
3	0	0	0	0	513	625	
4	0	0	0	0	511	625	
5	0	0	0	0	509	625	
6	0	0	0	0	507	625	
7	0	0	0	0	505	625	
8	0	0	0	0	504	625	
9	0	0	0	0	503	625	
10	0	0	0	0	504	624	
11	0	0	0	0	504	624	
12	0	0	0	0	504	624	
13	0	0	0	0	504	623	
14	0	0	0	0	503	622	
15	0	0	0	0	502	623	
0	0	0	0	0	502	622	
1	0	0	0	0	501	622	
2	0	0	0	0	501	621	
3	0	0	0	0	501	621	
4	0	0	0	0	501	621	
5	0	0	0	0	499	620	
6	0	0	0	0	499	619	
7	0	0	0	0	497	619	
8	0	0	0	0	495	618	
9	0	0	0	0	493	618	
10	0	0	0	0	492	617	
11	0	0	0	0	491	616	
12	0	0	0	0	491	615	
13	0	0	0	0	491	615	
14	0	0	0	0	490	616	
15	0	0	0	0	490	615	
0	0	0	0	0	490	615	
1	0	0	0	0	490	614	
2	0	0	0	0	490	614	
3	0	0	0	0	490	614	
4	0	0	0	0	490	613	
5	0	0	0	0	489	613	
6	0	0	0	0	489	613	
7	0	0	0	0	488	613	
8	0	0	0	0	488	613	
9	0	0	0	0	488	613	
10	0	0	0	0	487	613	
11	0	0	0	0	486	613	
12	0	0	0	0	486	613	
13	0	0	0	0	487	613	
14	0	0	0	0	487	613	
15	0	0	0	0	487	613	
0	0	0	0	0	488	614	
1	0	0	0	0	488	614	
2	0	0	0	0	489	614	
3	0	0	0	0	489	615	
4	0	0	0	0	491	615	
5	0	0	0	0	492	615	
6	0	0	0	0	493	615	
7	0	0	0	0	493	615	
8	0	0	0	0	494	615	
9	0	0	0	0	495	615	
10	0	0	0	0	495	615	
11	0	0	0	0	495	616	
12	0	0	0	0	495	617	
13	0	0	0	0	496	617	
14	0	0	0	0	496	618	
15	0	0	0	0	496	618	
0	0	0	0	0	496	618	
1	0	0	0	0	496	619	
2	0	0	0	0	496	620	
3	0	0	0	0	497	620	
4	0	0	0	0	497	621	
5	0	0	0	0	497	621	
6	0	0	0	0	498	622	
7	0	0	0	0	498	622	
8	0	0	0	0	496	622	
9	0	0	0	0	496	623	
10	0	0	0	0	495	623	
11	0	0	0	0	495	623	
12	0	0	0	0	494	624	
13	0	0	0	0	494	624	
14	0	0	0	0	494	625	
15	0	0	0	0	495	624	
0	0	0	0	0	495	625	
1	0	0	0	0	495	625	
2	0	0	0	0	495	625	
3	0	0	0	0	496	625	
4	0	0	0	0	496	625	
5	0	0	0	0	496	626	
6	0	0	0	0	497	626	
7	0	0	0	0	498	625	
8	0	0	0	0	498	625	
9	0	0	0	0	498	625	
10	0	0	0	0	498	626	
11	0	0	0	0	497	625	
12	0	0	0	0	497	625	
13	0	0	0	0	499	625	
14	0	0	0	0	500	625	
15	0	0	0	0	502	625	
0	0	0	0	0	504	625	
1	0	0	0	0	506	625	
2	0	0	0	0	508	625	
3	0	0	0	0	509	624	
4	0	0	0	0	509	625	
5	0	0	0	0	508	624	
6	0	0	0	0	508	625	
7	0	0	0	0	506	624	
8	0	0	0	0	505	624	
9	0	0	0	0	504	625	
10	0	0	0	0	503	625	
11	0	0	0	0	502	625	
12	0	0	0	0	501	624	
13	0	0	0	0	501	625	
14	0	0	0	0	502	625	
15	0	0	0	0	502	626	
0	0	0	0	0	502	626	
1	0	0	0	0	502	626	
2	0	0	0	0	504	626	
3	0	0	0	0	505	627	
4	0	0	0	0	506	627	
5	0	0	0	0	508	627	
6	0	0	0	0	508	627	
7	0	0	0	0	508	627	
8	0	0	0	0	509	628	
9	0	0	0	0	510	627	
10	0	0	0	0	510	628	
11	0	0	0	0	510	629	
12	0	0	0	0	510	629	
13	0	0	0	0	511	630	
14	0	0	0	0	512	630	
15	0	0	0	0	512	631	
0	0	0	0	0	512	631	
1	0	0	0	0	511	631	
2	0	0	0	0	511	632	
3	0	0	0	0	509	632	
4	0	0	0	0	508	632	
5	0	0	0	0	508	632	
6	0	0	0	0	507	632	
7	0	0	0	0	507	632	
8	0	0	0	0	506	631	
9	0	0	0	0	505	631	
10	0	0	0	0	504	630	
11	0	0	0	0	503	629	
12	0	0	0	0	503	628	
13	0	0	0	0	503	627	
14	0	0	0	0	503	627	
15	0	0	0	0	502	625	
0	0	0	0	0	501	624	
1	0	0	0	0	500	624	
2	0	0	0	0	499	623	
3	0	0	0	0	497	622	
4	0	0	0	0	497	621	
5	0	0	0	0	496	620	
6	0	0	0	0	496	620	
7	0	0	0	0	496	619	
8	0	0	0	0	496	618	
9	0	0	0	0	496	618	
10	0	0	0	0	494	617	
11	0	0	0	0	494	616	
12	0	0	0	0	494	615	
13	0	0	0	0	494	615	
14	0	0	0	0	494	615	
15	0	0	0	0	495	614	
0	0	0	0	0	495	614	
1	0	0	0	0	495	613	
2	0	0	0	0	495	613	
3	0	0	0	0	494	613	
4	0	0	0	0	493	612	
5	0	0	0	0	493	612	
6	0	0	0	0	492	611	
7	0	0	0	0	492	612	
8	0	0	0	0	492	611	
9	0	0	0	0	491	611	
10	0	0	0	0	492	612	
11	0	0	0	0	491	611	
12	0	0	0	0	491	611	
13	0	0	0	0	491	611	
14	0	0	0	0	491	611	
15	0	0	0	0	491	611	
0	0	0	0	0	490	611	
1	0	0	0	0	489	612	
2	0	0	0	0	489	612	
3	0	0	0	0	489	613	
4	0	0	0	0	491	614	
5	0	0	0	0	492	614	
6	0	0	0	0	491	614	
7	0	0	0	0	492	615	
8	0	0	0	0	492	615	
9	0	0	0	0	492	616	
10	0	0	0	0	492	616	
11	0	0	0	0	491	617	
12	0	0	0	0	491	618	
13	0	0	0	0	491	619	
14	0	0	0	0	491	619	
15	0	0	0	0	490	619	
0	0	0	0	0	490	620	
1	0	0	0	0	489	620	
2	0	0	0	0	490	621	
3	0	0	0	0	490	622	
4	0	0	0	0	490	622	
5	0	0	0	0	490	624	
6	0	0	0	0	491	624	
7	0	0	0	0	491	624	
8	0	0	0	0	491	625	
9	0	0	0	0	492	625	
10	0	0	0	0	492	627	
11	0	0	0	0	493	627	
12	0	0	0	0	493	627	
13	0	0	0	0	493	627	
14	0	0	0	0	492	628	
15	0	0	0	0	492	628	
0	0	0	0	0	491	629	
1	0	0	0	0	491	629	
2	0	0	0	0	491	630	
3	0	0	0	0	491	629	
4	0	0	0	0	491	629	
5	0	0	0	0	491	629	
6	0	0	0	0	491	630	
7	0	0	0	0	490	630	
8	0	0	0	0	489	629	
9	0	0	0	0	490	630	
10	0	0	0	0	490	630	
11	0	0	0	0	489	629	
12	0	0	0	0	490	629	
13	0	0	0	0	489	629	
14	0	0	0	0	489	629	
15	0	0	0	0	487	628	
0	0	0	0	0	486	628	
1	0	0	0	0	486	628	
2	0	0	0	0	487	627	
3	0	0	0	0	488	627	
4	0	0	0	0	490	627	
5	0	0	0	0	490	627	
6	0	0	0	0	491	627	
7	0	0	0	0	491	626	
8	0	0	0	0	492	626	
9	0	0	0	0	493	626	
10	0	0	0	0	493	626	
11	0	0	0	0	493	626	
12	0	0	0	0	494	625	
13	0	0	0	0	495	625	
14	0	0	0	0	496	625	
15	0	0	0	0	497	625	
0	0	0	0	0	496	625	
1	0	0	0	0	496	625	
2	0	0	0	0	497	625	
3	0	0	0	0	497	625	
4	0	0	0	0	499	624	
5	0	0	0	0	498	624	
6	0	0	0	0	497	625	
7	0	0	0	0	497	624	
8	0	0	0	0	497	625	
9	0	0	0	0	497	625	
10	0	0	0	0	497	624	
11	0	0	0	0	498	624	
12	0	0	0	0	499	624	
13	0	0	0	0	499	624	
14	0	0	0	0	500	624	
15	0	0	0	0	499	623	
0	0	0	0	0	499	623	
1	0	0	0	0	498	623	
2	0	0	0	0	499	623	
3	0	0	0	0	499	623	
4	0	0	0	0	500	622	
5	0	0	0	0	500	623	
6	0	0	0	0	501	624	
7	0	0	0	0	500	623	
8	0	0	0	0	500	622	
9	0	0	0	0	501	623	
10	0	0	0	0	500	622	
11	0	0	0	0	500	622	
12	0	0	0	0	499	622	
13	0	0	0	0	498	621	
14	0	0	0	0	498	621	
15	0	0	0	0	499	620	
0	0	0	0	0	497	620	
1	0	0	0	0	497	620	
2	0	0	0	0	497	619	
3	0	0	0	0	497	619	
4	0	0	0	0	497	619	
5	0	0	0	0	497	619	
6	0	0	0	0	498	619	
7	0	0	0	0	498	618	
8	0	0	0	0	498	618	
9	0	0	0	0	498	617	
10	0	0	0	0	498	617	
11	0	0	0	0	498	616	
12	0	0	0	0	497	616	
13	0	0	0	0	497	615	
14	0	0	0	0	498	616	
15	0	0	0	0	498	615	
0	0	0	0	0	498	615	
1	0	0	0	0	499	615	
2	0	0	0	0	499	615	
3	0	0	0	0	500	615	
4	0	0	0	0	499	615	
5	0	0	0	0	498	615	
6	0	0	0	0	497	615	
7	0	0	0	0	496	615	
8	0	0	0	0	495	615	
9	0	0	0	0	495	615	
10	0	0	0	0	495	616	
11	0	0	0	0	495	616	
12	0	0	0	0	495	616	
13	0	0	0	0	495	616	
14	0	0	0	0	495	617	
15	0	0	0	0	496	617	
0	0	0	0	0	497	617	
1	0	0	0	0	498	618	
2	0	0	0	0	498	618	
3	0	0	0	0	498	619	
4	0	0	0	0	499	619	
5	0	0	0	0	499	620	
6	0	0	0	0	499	621	
7	0	0	0	0	498	621	
8	0	0	0	0	498	621	
9	0	0	0	0	498	622	
10	0	0	0	0	497	623	
11	0	0	0	0	496	623	
12	0	0	0	0	496	624	
13	0	0	0	0	496	625	
14	0	0	0	0	497	626	
15	0	0	0	0	497	626	
0	0	0	0	0	498	626	
1	0	0	0	0	498	627	
2	0	0	0	0	498	627	
3	0	0	0	0	497	627	
4	0	0	0	0	496	628	
5	0	0	0	0	494	628	
6	0	0	0	0	491	628	
7	0	0	0	0	489	628	
8	0	0	0	0	486	629	
9	0	0	0	0	482	629	
10	0	0	0	0	476	630	
11	0	0	0	0	469	629	
12	0	0	0	0	461	629	
13	0	0	0	0	454	630	
14	0	0	0	0	446	630	
15	0	0	0	0	439	630	
0	0	0	0	0	433	629	
1	0	0	0	0	426	629	
2	0	0	0	0	422	630	
3	0	0	0	0	419	629	
4	0	0	0	0	418	630	
5	0	0	0	0	418	629	
6	0	0	0	0	419	629	
7	0	0	0	0	422	629	
8	0	0	0	0	426	628	
9	0	0	0	0	433	628	
10	0	0	0	0	440	627	
11	0	0	0	0	446	627	
12	0	0	0	0	453	627	
13	0	0	0	0	459	627	
14	0	0	0	0	466	627	
15	0	0	0	0	473	627	
0	0	0	0	0	482	626	
1	0	0	0	0	494	626	
2	0	0	0	0	510	626	
3	0	0	0	0	530	626	
4	0	0	0	0	551	625	
5	0	0	0	0	574	627	
6	0	0	0	0	601	626	
7	0	0	0	0	632	625	
8	0	0	0	0	665	626	
9	0	0	0	0	701	625	
10	0	0	0	0	732	625	
11	0	0	0	0	760	625	
12	0	0	0	0	784	625	
13	0	0	0	0	803	625	
14	0	0	0	0	817	626	
15	0	0	0	0	826	625	
0	0	0	0	0	830	626	
1	0	0	0	0	829	627	
2	0	0	0	0	826	626	
3	0	0	0	0	823	627	
4	0	0	0	0	818	627	
5	0	0	0	0	812	627	
6	0	0	0	0	804	629	
7	0	0	0	0	793	628	
8	0	0	0	0	780	627	
9	0	0	0	0	764	629	
10	0	0	0	0	746	628	
11	0	0	0	0	727	629	
12	0	0	0	0	708	629	
13	0	0	0	0	691	628	
14	0	0	0	0	675	629	
15	0	0	0	0	660	628	
0	0	0	0	0	646	627	
1	0	0	0	0	631	627	
2	0	0	0	0	619	626	
3	0	0	0	0	607	626	
4	0	0	0	0	596	626	
5	0	0	0	0	586	626	
6	0	0	0	0	577	625	
7	0	0	0	0	567	624	
8	0	0	0	0	558	624	
9	0	0	0	0	548	624	
10	0	0	0	0	539	623	
11	0	0	0	0	530	622	
12	0	0	0	0	521	622	
13	0	0	0	0	511	621	
14	0	0	0	0	503	621	
15	0	0	0	0	495	620	
0	0	0	0	0	487	620	
1	0	0	0	0	480	619	
2	0	0	0	0	473	619	
3	0	0	0	0	466	618	
4	0	0	0	0	460	617	
5	0	0	0	0	456	617	
6	0	0	0	0	451	617	
7	0	0	0	0	448	616	
8	0	0	0	0	444	615	
9	0	0	0	0	441	615	
10	0	0	0	0	440	615	
11	0	0	0	0	437	614	
12	0	0	0	0	435	614	
13	0	0	0	0	433	614	
14	0	0	0	0	430	613	
15	0	0	0	0	428	613	
0	0	0	0	0	426	612	
1	0	0	0	0	424	612	
2	0	0	0	0	424	613	
3	0	0	0	0	423	613	
4	0	0	0	0	423	612	
5	0	0	0	0	423	613	
6	0	0	0	0	422	614	
7	0	0	0	0	422	614	
8	0	0	0	0	422	614	
9	0	0	0	0	422	615	
10	0	0	0	0	421	616	
11	0	0	0	0	421	615	
12	0	0	0	0	421	616	
13	0	0	0	0	421	616	
14	0	0	0	0	421	618	
15	0	0	0	0	422	618	
0	0	0	0	0	423	619	
1	0	0	0	0	423	619	
2	0	0	0	0	425	620	
3	0	0	0	0	426	621	
4	0	0	0	0	427	621	
5	0	0	0	0	428	622	
6	0	0	0	0	429	623	
7	0	0	0	0	430	623	
8	0	0	0	0	431	624	
9	0	0	0	0	432	625	
10	0	0	0	0	432	625	
11	0	0	0	0	433	626	
12	0	0	0	0	433	627	
13	0	0	0	0	433	628	
14	0	0	0	0	434	629	
15	0	0	0	0	435	628	
0	0	0	0	0	435	630	
1	0	0	0	0	436	629	
2	0	0	0	0	436	629	
3	0	0	0	0	436	630	
4	0	0	0	0	436	630	
5	0	0	0	0	436	631	
6	0	0	0	0	436	631	
7	0	0	0	0	437	631	
8	0	0	0	0	437	631	
9	0	0	0	0	438	631	
10	0	0	0	0	438	631	
11	0	0	0	0	438	631	
12	0	0	0	0	438	631	
13	0	0	0	0	439	631	
14	0	0	0	0	439	631	
15	0	0	0	0	439	631	
0	0	0	0	0	439	630	
1	0	0	0	0	439	630	
2	0	0	0	0	440	629	
3	0	0	0	0	440	629	
4	0	0	0	0	440	628	
5	0	0	0	0	440	627	
6	0	0	0	0	440	629	
7	0	0	0	0	441	626	
8	0	0	0	0	442	626	
9	0	0	0	0	443	626	
10	0	0	0	0	444	625	
11	0	0	0	0	445	625	
12	0	0	0	0	446	624	
13	0	0	0	0	447	623	
14	0	0	0	0	447	623	
15	0	0	0	0	448	622	
0	0	0	0	0	449	622	
1	0	0	0	0	449	622	
2	0	0	0	0	450	621	
3	0	0	0	0	450	620	
4	0	0	0	0	450	620	
5	0	0	0	0	450	620	
6	0	0	0	0	450	620	
7	0	0	0	0	451	619	
8	0	0	0	0	452	619	
9	0	0	0	0	452	618	
10	0	0	0	0	451	618	
11	0	0	0	0	450	617	
12	0	0	0	0	451	617	
13	0	0	0	0	450	617	
14	0	0	0	0	450	617	
15	0	0	0	0	451	617	
0	0	0	0	0	451	615	
1	0	0	0	0	451	616	
2	0	0	0	0	450	615	
3	0	0	0	0	450	615	
4	0	0	0	0	451	615	
5	0	0	0	0	451	615	
6	0	0	0	0	452	615	
7	0	0	0	0	453	615	
8	0	0	0	0	454	615	
9	0	0	0	0	454	615	
10	0	0	0	0	455	614	
11	0	0	0	0	457	615	
12	0	0	0	0	458	615	
13	0	0	0	0	459	614	
14	0	0	0	0	459	615	
15	0	0	0	0	459	614	
0	0	0	0	0	460	614	
1	0	0	0	0	460	615	
2	0	0	0	0	460	614	
3	0	0	0	0	460	615	
4	0	0	0	0	460	614	
5	0	0	0	0	461	614	
6	0	0	0	0	462	615	
7	0	0	0	0	463	614	
8	0	0	0	0	463	615	
9	0	0	0	0	464	614	
10	0	0	0	0	464	614	
11	0	0	0	0	465	614	
12	0	0	0	0	467	614	
13	0	0	0	0	468	615	
14	0	0	0	0	470	615	
15	0	0	0	0	471	616	
0	0	0	0	0	472	617	
1	0	0	0	0	472	617	
2	0	0	0	0	472	617	
3	0	0	0	0	471	616	
4	0	0	0	0	470	615	
5	0	0	0	0	470	615	
6	0	0	0	0	470	614	
7	0	0	0	0	470	615	
8	0	0	0	0	471	615	
9	0	0	0	0	472	615	
10	0	0	0	0	474	615	
11	0	0	0	0	475	616	
12	0	0	0	0	476	616	
13	0	0	0	0	476	617	
14	0	0	0	0	476	617	
15	0	0	0	0	476	617	
0	0	0	0	0	477	618	
1	0	0	0	0	477	618	
2	0	0	0	0	477	619	
3	0	0	0	0	478	620	
4	0	0	0	0	478	620	
5	0	0	0	0	479	620	
6	0	0	0	0	480	621	
7	0	0	0	0	481	621	
8	0	0	0	0	482	622	
9	0	0	0	0	482	622	
10	0	0	0	0	482	622	
11	0	0	0	0	483	623	
12	0	0	0	0	483	623	
13	0	0	0	0	484	624	
14	0	0	0	0	485	624	
15	0	0	0	0	486	624	
0	0	0	0	0	487	624	
1	0	0	0	0	487	624	
2	0	0	0	0	489	625	
3	0	0	0	0	490	625	
4	0	0	0	0	492	626	
5	0	0	0	0	494	626	
6	0	0	0	0	496	627	
7	0	0	0	0	497	627	
8	0	0	0	0	496	627	
9	0	0	0	0	495	627	
10	0	0	0	0	495	628	
11	0	0	0	0	496	627	
12	0	0	0	0	497	628	
13	0	0	0	0	498	628	
14	0	0	0	0	499	628	
15	0	0	0	0	500	628	
0	0	0	0	0	502	628	
1	0	0	0	0	503	628	
2	0	0	0	0	504	628	
3	0	0	0	0	504	628	
4	0	0	0	0	506	628	
5	0	0	0	0	508	627	
6	0	0	0	0	509	628	
7	0	0	0	0	510	628	
8	0	0	0	0	511	628	
9	0	0	0	0	512	628	
10	0	0	0	0	513	627	
11	0	0	0	0	513	627	
12	0	0	0	0	514	626	
13	0	0	0	0	514	626	
14	0	0	0	0	516	627	
15	0	0	0	0	518	627	
0	0	0	0	0	519	626	
1	0	0	0	0	519	627	
2	0	0	0	0	520	626	
3	0	0	0	0	521	625	
4	0	0	0	0	522	625	
5	0	0	0	0	521	626	
6	0	0	0	0	522	626	
7	0	0	0	0	523	625	
8	0	0	0	0	523	625	
9	0	0	0	0	522	625	
10	0	0	0	0	522	624	
11	0	0	0	0	522	624	
12	0	0	0	0	522	624	
13	0	0	0	0	523	623	
14	0	0	0	0	523	623	
15	0	0	0	0	524	622	
0	0	0	0	0	525	623	
1	0	0	0	0	526	622	
2	0	0	0	0	527	623	
3	0	0	0	0	528	623	
4	0	0	0	0	530	623	
5	0	0	0	0	531	623	
6	0	0	0	0	531	623	
7	0	0	0	0	532	623	
8	0	0	0	0	533	623	
9	0	0	0	0	533	623	
10	0	0	0	0	532	624	
11	0	0	0	0	531	624	
12	0	0	0	0	529	623	
13	0	0	0	0	528	623	
14	0	0	0	0	526	623	
15	0	0	0	0	523	623	
0	0	0	0	0	518	622	
1	0	0	0	0	514	623	
2	0	0	0	0	509	623	
3	0	0	0	0	503	623	
4	0	0	0	0	500	622	
5	0	0	0	0	497	623	
6	0	0	0	0	496	623	
7	0	0	0	0	495	623	
8	0	0	0	0	496	623	
9	0	0	0	0	497	623	
10	0	0	0	0	499	622	
11	0	0	0	0	504	623	
12	0	0	0	0	510	622	
13	0	0	0	0	515	622	
14	0	0	0	0	520	623	
15	0	0	0	0	524	622	
0	0	0	0	0	527	623	
1	0	0	0	0	530	623	
2	0	0	0	0	533	624	
3	0	0	0	0	534	625	
4	0	0	0	0	535	625	
5	0	0	0	0	534	626	
6	0	0	0	0	533	627	
7	0	0	0	0	532	628	
8	0	0	0	0	532	630	
9	0	0	0	0	531	630	
10	0	0	0	0	529	631	
11	0	0	0	0	528	632	
12	0	0	0	0	527	633	
13	0	0	0	0	527	633	
14	0	0	0	0	526	633	
15	0	0	0	0	527	634	
0	0	0	0	0	527	633	
1	0	0	0	0	527	633	
2	0	0	0	0	528	633	
3	0	0	0	0	527	632	
4	0	0	0	0	528	632	
5	0	0	0	0	528	632	
6	0	0	0	0	529	631	
7	0	0	0	0	529	630	
8	0	0	0	0	530	629	
9	0	0	0	0	529	629	
10	0	0	0	0	529	629	
11	0	0	0	0	529	627	
12	0	0	0	0	530	627	
13	0	0	0	0	531	626	
14	0	0	0	0	530	626	
15	0	0	0	0	530	625	
0	0	0	0	0	529	624	
1	0	0	0	0	529	624	
2	0	0	0	0	529	624	
3	0	0	0	0	530	624	
4	0	0	0	0	530	623	
5	0	0	0	0	531	623	
6	0	0	0	0	531	623	
7	0	0	0	0	531	622	
8	0	0	0	0	532	622	
9	0	0	0	0	532	622	
10	0	0	0	0	531	622	
11	0	0	0	0	531	622	
12	0	0	0	0	531	622	
13	0	0	0	0	531	622	
14	0	0	0	0	531	622	
15	0	0	0	0	531	622	
0	0	0	0	0	530	622	
1	0	0	0	0	530	621	
2	0	0	0	0	530	621	
3	0	0	0	0	529	621	
4	0	0	0	0	528	622	
5	0	0	0	0	527	622	
6	0	0	0	0	528	622	
7	0	0	0	0	529	622	
8	0	0	0	0	531	622	
9	0	0	0	0	532	621	
10	0	0	0	0	532	622	
11	0	0	0	0	532	622	
12	0	0	0	0	532	623	
13	0	0	0	0	531	624	
14	0	0	0	0	531	624	
15	0	0	0	0	531	624	
0	0	0	0	0	531	625	
1	0	0	0	0	530	626	
2	0	0	0	0	529	627	
3	0	0	0	0	528	627	
4	0	0	0	0	528	628	
5	0	0	0	0	528	628	
6	0	0	0	0	528	629	
7	0	0	0	0	529	628	
8	0	0	0	0	528	630	
9	0	0	0	0	528	630	
10	0	0	0	0	528	630	
11	0	0	0	0	529	631	
12	0	0	0	0	529	630	
13	0	0	0	0	529	631	
14	0	0	0	0	528	631	
15	0	0	0	0	529	631	
0	0	0	0	0	528	632	
1	0	0	0	0	528	631	
2	0	0	0	0	528	631	
3	0	0	0	0	528	631	
4	0	0	0	0	528	632	
5	0	0	0	0	528	631	
6	0	0	0	0	526	630	
7	0	0	0	0	526	630	
8	0	0	0	0	525	630	
9	0	0	0	0	524	629	
10	0	0	0	0	523	629	
11	0	0	0	0	522	628	
12	0	0	0	0	521	628	
13	0	0	0	0	521	628	
14	0	0	0	0	521	627	
15	0	0	0	0	521	627	
0	0	0	0	0	522	625	
1	0	0	0	0	523	624	
2	0	0	0	0	523	624	
3	0	0	0	0	523	624	
4	0	0	0	0	524	624	
5	0	0	0	0	524	624	
6	0	0	0	0	526	623	
7	0	0	0	0	525	622	
8	0	0	0	0	526	622	
9	0	0	0	0	526	621	
10	0	0	0	0	526	621	
11	0	0	0	0	525	620	
12	0	0	0	0	524	619	
13	0	0	0	0	523	619	
14	0	0	0	0	522	618	
15	0	0	0	0	521	617	
0	0	0	0	0	521	616	
1	0	0	0	0	521	616	
2	0	0	0	0	521	616	
3	0	0	0	0	521	615	
4	0	0	0	0	522	615	
5	0	0	0	0	522	614	
6	0	0	0	0	522	615	
7	0	0	0	0	522	614	
8	0	0	0	0	521	613	
9	0	0	0	0	520	613	
10	0	0	0	0	519	613	
11	0	0	0	0	518	613	
12	0	0	0	0	517	612	
13	0	0	0	0	516	612	
14	0	0	0	0	516	613	
15	0	0	0	0	515	612	
0	0	0	0	0	514	612	
1	0	0	0	0	513	612	
2	0	0	0	0	513	612	
3	0	0	0	0	513	612	
4	0	0	0	0	513	612	
5	0	0	0	0	514	612	
6	0	0	0	0	515	613	
7	0	0	0	0	516	613	
8	0	0	0	0	518	612	
9	0	0	0	0	519	612	
10	0	0	0	0	519	612	
11	0	0	0	0	519	613	
12	0	0	0	0	519	613	
13	0	0	0	0	518	613	
14	0	0	0	0	519	613	
15	0	0	0	0	520	614	
0	0	0	0	0	519	614	
1	0	0	0	0	520	614	
2	0	0	0	0	520	614	
3	0	0	0	0	519	614	
4	0	0	0	0	519	615	
5	0	0	0	0	519	615	
6	0	0	0	0	520	615	
7	0	0	0	0	521	615	
8	0	0	0	0	521	615	
9	0	0	0	0	520	615	
10	0	0	0	0	518	615	
11	0	0	0	0	517	615	
12	0	0	0	0	518	615	
13	0	0	0	0	518	614	
14	0	0	0	0	517	614	
15	0	0	0	0	516	614	
0	0	0	0	0	515	615	
1	0	0	0	0	515	615	
2	0	0	0	0	516	615	
3	0	0	0	0	516	615	
4	0	0	0	0	517	615	
5	0	0	0	0	518	615	
6	0	0	0	0	519	615	
7	0	0	0	0	519	615	
8	0	0	0	0	520	616	
9	0	0	0	0	521	616	
10	0	0	0	0	521	616	
11	0	0	0	0	522	616	
12	0	0	0	0	523	617	
13	0	0	0	0	523	617	
14	0	0	0	0	523	617	
15	0	0	0	0	523	618	
0	0	0	0	0	523	617	
1	0	0	0	0	523	618	
2	0	0	0	0	522	618	
3	0	0	0	0	519	619	
4	0	0	0	0	518	619	
5	0	0	0	0	518	619	
6	0	0	0	0	519	620	
7	0	0	0	0	519	620	
8	0	0	0	0	520	620	
9	0	0	0	0	520	620	
10	0	0	0	0	521	621	
11	0	0	0	0	521	621	
12	0	0	0	0	523	622	
13	0	0	0	0	524	622	
14	0	0	0	0	524	624	
15	0	0	0	0	524	623	
0	0	0	0	0	523	624	
1	0	0	0	0	523	623	
2	0	0	0	0	522	624	
3	0	0	0	0	521	624	
4	0	0	0	0	522	625	
5	0	0	0	0	523	625	
6	0	0	0	0	524	626	
7	0	0	0	0	524	626	
8	0	0	0	0	524	626	
9	0	0	0	0	522	626	
10	0	0	0	0	521	626	
11	0	0	0	0	521	627	
12	0	0	0	0	521	627	
13	0	0	0	0	522	628	
14	0	0	0	0	522	628	
15	0	0	0	0	521	628	
0	0	0	0	0	520	628	
1	0	0	0	0	520	628	
2	0	0	0	0	519	628	
3	0	0	0	0	519	628	
4	0	0	0	0	519	628	
5	0	0	0	0	520	628	
6	0	0	0	0	521	628	
7	0	0	0	0	522	628	
8	0	0	0	0	522	628	
9	0	0	0	0	522	628	
10	0	0	0	0	522	628	
11	0	0	0	0	521	628	
12	0	0	0	0	520	628	
13	0	0	0	0	519	627	
14	0	0	0	0	516	627	
15	0	0	0	0	516	627	
0	0	0	0	0	515	626	
1	0	0	0	0	515	626	
2	0	0	0	0	514	626	
3	0	0	0	0	514	625	
4	0	0	0	0	513	625	
5	0	0	0	0	514	625	
6	0	0	0	0	515	625	
7	0	0	0	0	515	624	
8	0	0	0	0	515	624	
9	0	0	0	0	514	624	
10	0	0	0	0	514	623	
11	0	0	0	0	513	624	
12	0	0	0	0	513	623	
13	0	0	0	0	513	623	
14	0	0	0	0	515	623	
15	0	0	0	0	515	622	
0	0	0	0	0	516	622	
1	0	0	0	0	515	622	
2	0	0	0	0	515	622	
3	0	0	0	0	514	622	
4	0	0	0	0	514	622	
5	0	0	0	0	514	622	
6	0	0	0	0	514	622	
7	0	0	0	0	514	622	
8	0	0	0	0	514	621	
9	0	0	0	0	514	621	
10	0	0	0	0	515	622	
11	0	0	0	0	517	621	
12	0	0	0	0	519	621	
13	0	0	0	0	520	621	
14	0	0	0	0	520	621	
15	0	0	0	0	519	620	
0	0	0	0	0	519	622	
1	0	0	0	0	520	622	
2	0	0	0	0	521	621	
3	0	0	0	0	521	621	
4	0	0	0	0	520	621	
5	0	0	0	0	521	621	
6	0	0	0	0	523	621	
7	0	0	0	0	524	620	
8	0	0	0	0	526	620	
9	0	0	0	0	526	620	
10	0	0	0	0	524	620	
11	0	0	0	0	523	621	
12	0	0	0	0	522	621	
13	0	0	0	0	522	620	
14	0	0	0	0	521	621	
15	0	0	0	0	521	621	
0	0	0	0	0	521	620	
1	0	0	0	0	521	621	
2	0	0	0	0	522	620	
3	0	0	0	0	524	621	
4	0	0	0	0	525	622	
5	0	0	0	0	524	621	
6	0	0	0	0	524	621	
7	0	0	0	0	520	620	
8	0	0	0	0	517	621	
9	0	0	0	0	515	620	
10	0	0	0	0	515	620	
11	0	0	0	0	516	620	
12	0	0	0	0	517	621	
13	0	0	0	0	518	621	
14	0	0	0	0	517	621	
15	0	0	0	0	517	621	
0	0	0	0	0	516	620	
1	0	0	0	0	516	620	
2	0	0	0	0	516	620	
3	0	0	0	0	515	620	
4	0	0	0	0	515	621	
5	0	0	0	0	516	621	
6	0	0	0	0	517	621	
7	0	0	0	0	518	621	
8	0	0	0	0	518	621	
9	0	0	0	0	519	620	
10	0	0	0	0	520	620	
11	0	0	0	0	519	621	
12	0	0	0	0	519	621	
13	0	0	0	0	519	621	
14	0	0	0	0	520	622	
15	0	0	0	0	520	621	
0	0	0	0	0	519	621	
1	0	0	0	0	519	621	
2	0	0	0	0	519	621	
3	0	0	0	0	517	621	
4	0	0	0	0	516	621	
5	0	0	0	0	516	621	
6	0	0	0	0	515	621	
7	0	0	0	0	516	621	
8	0	0	0	0	517	622	
9	0	0	0	0	518	622	
10	0	0	0	0	519	622	
11	0	0	0	0	520	622	
12	0	0	0	0	521	622	
13	0	0	0	0	521	623	
14	0	0	0	0	520	623	
15	0	0	0	0	519	622	
0	0	0	0	0	519	622	
1	0	0	0	0	519	623	
2	0	0	0	0	519	624	
3	0	0	0	0	519	623	
4	0	0	0	0	520	624	
5	0	0	0	0	520	624	
6	0	0	0	0	520	625	
7	0	0	0	0	519	625	
8	0	0	0	0	519	625	
9	0	0	0	0	519	626	
10	0	0	0	0	518	627	
11	0	0	0	0	518	627	
12	0	0	0	0	518	627	
13	0	0	0	0	518	627	
14	0	0	0	0	519	627	
15	0	0	0	0	519	627	
0	0	0	0	0	520	628	
1	0	0	0	0	521	628	
2	0	0	0	0	521	629	
3	0	0	0	0	521	629	
4	0	0	0	0	520	629	
5	0	0	0	0	520	629	
6	0	0	0	0	520	630	
7	0	0	0	0	520	630	
8	0	0	0	0	521	630	
9	0	0	0	0	521	630	
10	0	0	0	0	520	630	
11	0	0	0	0	519	629	
12	0	0	0	0	519	630	
13	0	0	0	0	519	629	
14	0	0	0	0	519	629	
15	0	0	0	0	521	629	
0	0	0	0	0	522	629	
1	0	0	0	0	524	628	
2	0	0	0	0	525	628	
3	0	0	0	0	527	629	
4	0	0	0	0	528	628	
5	0	0	0	0	528	628	
6	0	0	0	0	527	628	
7	0	0	0	0	527	627	
8	0	0	0	0	527	627	
9	0	0	0	0	526	627	
10	0	0	0	0	524	627	
11	0	0	0	0	521	627	
12	0	0	0	0	517	627	
13	0	0	0	0	514	627	
14	0	0	0	0	511	627	
15	0	0	0	0	509	627	
0	0	0	0	0	507	626	
1	0	0	0	0	504	626	
2	0	0	0	0	501	626	
3	0	0	0	0	500	626	
4	0	0	0	0	501	626	
5	0	0	0	0	501	626	
6	0	0	0	0	502	626	
7	0	0	0	0	503	626	
8	0	0	0	0	504	626	
9	0	0	0	0	507	625	
10	0	0	0	0	510	626	
11	0	0	0	0	511	625	
12	0	0	0	0	513	625	
13	0	0	0	0	515	626	
14	0	0	0	0	515	626	
15	0	0	0	0	515	626	
0	0	0	0	0	515	626	
1	0	0	0	0	515	627	
2	0	0	0	0	515	627	
3	0	0	0	0	514	628	
4	0	0	0	0	513	628	
5	0	0	0	0	512	630	
6	0	0	0	0	511	630	
7	0	0	0	0	509	630	
8	0	0	0	0	508	631	
9	0	0	0	0	507	631	
10	0	0	0	0	505	631	
11	0	0	0	0	506	632	
12	0	0	0	0	506	630	
13	0	0	0	0	507	630	
14	0	0	0	0	506	631	
15	0	0	0	0	507	629	
0	0	0	0	0	509	629	
1	0	0	0	0	510	628	
2	0	0	0	0	510	627	
3	0	0	0	0	510	626	
4	0	0	0	0	508	625	
5	0	0	0	0	507	624	
6	0	0	0	0	505	623	
7	0	0	0	0	505	622	
8	0	0	0	0	504	621	
9	0	0	0	0	505	620	
10	0	0	0	0	505	618	
11	0	0	0	0	504	617	
12	0	0	0	0	503	616	
13	0	0	0	0	504	615	
14	0	0	0	0	504	615	
15	0	0	0	0	505	614	
0	0	0	0	0	507	614	
1	0	0	0	0	509	613	
2	0	0	0	0	510	612	
3	0	0	0	0	511	612	
4	0	0	0	0	512	611	
5	0	0	0	0	511	611	
6	0	0	0	0	511	611	
7	0	0	0	0	510	611	
8	0	0	0	0	508	611	
9	0	0	0	0	507	611	
10	0	0	0	0	505	610	
11	0	0	0	0	504	610	
12	0	0	0	0	502	609	
13	0	0	0	0	502	609	
14	0	0	0	0	502	610	
15	0	0	0	0	501	610	
0	0	0	0	0	501	610	
1	0	0	0	0	501	610	
2	0	0	0	0	500	609	
3	0	0	0	0	499	610	
4	0	0	0	0	498	609	
5	0	0	0	0	497	610	
6	0	0	0	0	496	611	
7	0	0	0	0	495	611	
8	0	0	0	0	495	611	
9	0	0	0	0	496	611	
10	0	0	0	0	497	612	
11	0	0	0	0	498	612	
12	0	0	0	0	499	614	
13	0	0	0	0	500	615	
14	0	0	0	0	501	615	
15	0	0	0	0	503	615	
0	0	0	0	0	504	616	
1	0	0	0	0	503	617	
2	0	0	0	0	502	618	
3	0	0	0	0	501	619	
4	0	0	0	0	500	620	
5	0	0	0	0	500	621	
6	0	0	0	0	499	622	
7	0	0	0	0	499	622	
8	0	0	0	0	500	623	
9	0	0	0	0	501	623	
10	0	0	0	0	502	624	
11	0	0	0	0	502	624	
12	0	0	0	0	502	625	
13	0	0	0	0	502	625	
14	0	0	0	0	500	625	
15	0	0	0	0	499	626	
0	0	0	0	0	499	626	
1	0	0	0	0	499	626	
2	0	0	0	0	500	625	
3	0	0	0	0	501	626	
4	0	0	0	0	500	626	
5	0	0	0	0	500	626	
6	0	0	0	0	501	625	
7	0	0	0	0	503	625	
8	0	0	0	0	504	625	
9	0	0	0	0	504	626	
10	0	0	0	0	505	626	
11	0	0	0	0	505	625	
12	0	0	0	0	506	625	
13	0	0	0	0	507	624	
14	0	0	0	0	508	624	
15	0	0	0	0	508	624	
0	0	0	0	0	509	623	
1	0	0	0	0	510	623	
2	0	0	0	0	509	622	
3	0	0	0	0	509	621	
4	0	0	0	0	510	621	
5	0	0	0	0	508	621	
6	0	0	0	0	508	620	
7	0	0	0	0	508	620	
8	0	0	0	0	507	619	
9	0	0	0	0	506	618	
10	0	0	0	0	506	619	
11	0	0	0	0	505	618	
12	0	0	0	0	506	617	
13	0	0	0	0	507	617	
14	0	0	0	0	508	617	
15	0	0	0	0	507	616	
0	0	0	0	0	505	615	
1	0	0	0	0	504	615	
2	0	0	0	0	504	615	
3	0	0	0	0	504	615	
4	0	0	0	0	502	614	
5	0	0	0	0	503	615	
6	0	0	0	0	504	615	
7	0	0	0	0	504	614	
8	0	0	0	0	503	614	
9	0	0	0	0	504	614	
10	0	0	0	0	506	615	
11	0	0	0	0	507	615	
12	0	0	0	0	508	615	
13	0	0	0	0	508	615	
14	0	0	0	0	509	615	
15	0	0	0	0	511	615	
0	0	0	0	0	511	615	
1	0	0	0	0	511	615	
2	0	0	0	0	511	615	
3	0	0	0	0	510	616	
4	0	0	0	0	508	616	
5	0	0	0	0	508	617	
6	0	0	0	0	506	617	
7	0	0	0	0	505	617	
8	0	0	0	0	505	618	
9	0	0	0	0	504	618	
10	0	0	0	0	504	619	
11	0	0	0	0	503	620	
12	0	0	0	0	501	620	
13	0	0	0	0	499	620	
14	0	0	0	0	500	621	
15	0	0	0	0	502	621	
0	0	0	0	0	504	621	
1	0	0	0	0	506	622	
2	0	0	0	0	507	623	
3	0	0	0	0	507	623	
4	0	0	0	0	507	623	
5	0	0	0	0	507	624	
6	0	0	0	0	506	624	
7	0	0	0	0	505	625	
8	0	0	0	0	505	625	
9	0	0	0	0	505	626	
10	0	0	0	0	507	627	
11	0	0	0	0	508	627	
12	0	0	0	0	509	627	
13	0	0	0	0	509	627	
14	0	0	0	0	508	628	
15	0	0	0	0	509	628	
0	0	0	0	0	509	628	
1	0	0	0	0	508	628	
2	0	0	0	0	506	628	
3	0	0	0	0	505	628	
4	0	0	0	0	505	629	
5	0	0	0	0	505	628	
6	0	0	0	0	504	629	
7	0	0	0	0	503	628	
8	0	0	0	0	502	629	
9	0	0	0	0	501	629	
10	0	0	0	0	500	629	
11	0	0	0	0	499	630	
12	0	0	0	0	500	630	
13	0	0	0	0	499	629	
14	0	0	0	0	499	630	
15	0	0	0	0	499	629	
0	0	0	0	0	498	629	
1	0	0	0	0	496	629	
2	0	0	0	0	495	629	
3	0	0	0	0	495	628	
4	0	0	0	0	495	628	
5	0	0	0	0	495	628	
6	0	0	0	0	493	629	
7	0	0	0	0	490	627	
8	0	0	0	0	485	628	
9	0	0	0	0	480	627	
10	0	0	0	0	472	627	
11	0	0	0	0	464	627	
12	0	0	0	0	455	626	
13	0	0	0	0	445	626	
14	0	0	0	0	437	625	
15	0	0	0	0	430	624	
0	0	0	0	0	425	624	
1	0	0	0	0	419	624	
2	0	0	0	0	414	624	
3	0	0	0	0	411	622	
4	0	0	0	0	410	622	
5	0	0	0	0	409	622	
6	0	0	0	0	412	622	
7	0	0	0	0	416	622	
8	0	0	0	0	423	620	
9	0	0	0	0	430	621	
10	0	0	0	0	435	621	
11	0	0	0	0	440	621	
12	0	0	0	0	444	621	
13	0	0	0	0	449	620	
14	0	0	0	0	456	620	
15	0	0	0	0	461	620	
0	0	0	0	0	468	620	
1	0	0	0	0	480	620	
2	0	0	0	0	497	620	
3	0	0	0	0	516	621	
4	0	0	0	0	539	620	
5	0	0	0	0	564	620	
6	0	0	0	0	593	621	
7	0	0	0	0	623	621	
8	0	0	0	0	659	621	
9	0	0	0	0	695	622	
10	0	0	0	0	727	622	
11	0	0	0	0	755	622	
12	0	0	0	0	780	621	
13	0	0	0	0	797	622	
14	0	0	0	0	809	622	
15	0	0	0	0	816	621	
0	0	0	0	0	817	622	
1	0	0	0	0	816	622	
2	0	0	0	0	814	622	
3	0	0	0	0	809	623	
4	0	0	0	0	805	623	
5	0	0	0	0	799	622	
6	0	0	0	0	791	623	
7	0	0	0	0	779	624	
8	0	0	0	0	766	624	
9	0	0	0	0	750	624	
10	0	0	0	0	732	624	
11	0	0	0	0	714	624	
12	0	0	0	0	697	624	
13	0	0	0	0	681	624	
14	0	0	0	0	666	625	
15	0	0	0	0	651	624	
0	0	0	0	0	636	625	
1	0	0	0	0	624	625	
2	0	0	0	0	612	624	
3	0	0	0	0	599	624	
4	0	0	0	0	589	625	
5	0	0	0	0	580	624	
6	0	0	0	0	571	625	
7	0	0	0	0	562	624	
8	0	0	0	0	553	624	
9	0	0	0	0	543	623	
10	0	0	0	0	534	623	
11	0	0	0	0	524	623	
12	0	0	0	0	515	623	
13	0	0	0	0	507	623	
14	0	0	0	0	499	623	
15	0	0	0	0	492	622	
0	0	0	0	0	484	621	
1	0	0	0	0	478	621	
2	0	0	0	0	471	621	
3	0	0	0	0	464	620	
4	0	0	0	0	458	620	
5	0	0	0	0	453	620	
6	0	0	0	0	450	620	
7	0	0	0	0	446	619	
8	0	0	0	0	443	619	
9	0	0	0	0	441	619	
10	0	0	0	0	439	619	
11	0	0	0	0	439	619	
12	0	0	0	0	437	618	
13	0	0	0	0	435	618	
14	0	0	0	0	434	618	
15	0	0	0	0	433	618	
0	0	0	0	0	432	617	
1	0	0	0	0	431	617	
2	0	0	0	0	429	618	
3	0	0	0	0	427	618	
4	0	0	0	0	425	618	
5	0	0	0	0	423	618	
6	0	0	0	0	423	619	
7	0	0	0	0	424	618	
8	0	0	0	0	426	619	
9	0	0	0	0	428	619	
10	0	0	0	0	428	619	
11	0	0	0	0	428	619	
12	0	0	0	0	428	619	
13	0	0	0	0	427	619	
14	0	0	0	0	427	620	
15	0	0	0	0	428	620	
0	0	0	0	0	428	620	
1	0	0	0	0	427	621	
2	0	0	0	0	427	620	
3	0	0	0	0	427	621	
4	0	0	0	0	428	621	
5	0	0	0	0	428	621	
6	0	0	0	0	428	621	
7	0	0	0	0	429	621	
8	0	0	0	0	429	621	
9	0	0	0	0	429	621	
10	0	0	0	0	428	621	
11	0	0	0	0	429	622	
12	0	0	0	0	430	621	
13	0	0	0	0	430	622	
14	0	0	0	0	431	623	
15	0	0	0	0	433	622	
0	0	0	0	0	434	622	
1	0	0	0	0	435	622	
2	0	0	0	0	437	622	
3	0	0	0	0	439	622	
4	0	0	0	0	438	622	
5	0	0	0	0	438	623	
6	0	0	0	0	439	622	
7	0	0	0	0	440	622	
8	0	0	0	0	440	622	
9	0	0	0	0	441	623	
10	0	0	0	0	441	623	
11	0	0	0	0	440	623	
12	0	0	0	0	440	623	
13	0	0	0	0	441	623	
14	0	0	0	0	442	623	
15	0	0	0	0	444	622	
0	0	0	0	0	446	623	
1	0	0	0	0	446	623	
2	0	0	0	0	445	622	
3	0	0	0	0	446	622	
4	0	0	0	0	447	622	
5	0	0	0	0	447	623	
6	0	0	0	0	448	623	
7	0	0	0	0	448	623	
8	0	0	0	0	448	623	
9	0	0	0	0	449	623	
10	0	0	0	0	451	623	
11	0	0	0	0	452	624	
12	0	0	0	0	452	624	
13	0	0	0	0	452	624	
14	0	0	0	0	452	624	
15	0	0	0	0	452	624	
0	0	0	0	0	452	625	
1	0	0	0	0	452	625	
2	0	0	0	0	453	625	
3	0	0	0	0	455	624	
4	0	0	0	0	455	625	
5	0	0	0	0	455	625	
6	0	0	0	0	456	625	
7	0	0	0	0	456	625	
8	0	0	0	0	455	625	
9	0	0	0	0	455	625	
10	0	0	0	0	455	625	
11	0	0	0	0	456	624	
12	0	0	0	0	455	624	
13	0	0	0	0	455	625	
14	0	0	0	0	455	624	
15	0	0	0	0	456	624	
0	0	0	0	0	455	625	
1	0	0	0	0	455	625	
2	0	0	0	0	455	624	
3	0	0	0	0	456	624	
4	0	0	0	0	456	624	
5	0	0	0	0	456	624	
6	0	0	0	0	457	624	
7	0	0	0	0	458	624	
8	0	0	0	0	459	624	
9	0	0	0	0	459	624	
10	0	0	0	0	460	624	
11	0	0	0	0	460	624	
12	0	0	0	0	460	624	
13	0	0	0	0	459	623	
14	0	0	0	0	458	623	
15	0	0	0	0	458	623	
0	0	0	0	0	457	623	
1	0	0	0	0	457	623	
2	0	0	0	0	457	622	
3	0	0	0	0	458	622	
4	0	0	0	0	458	622	
5	0	0	0	0	458	622	
6	0	0	0	0	458	623	
7	0	0	0	0	459	621	
8	0	0	0	0	458	622	
9	0	0	0	0	456	621	
10	0	0	0	0	455	622	
11	0	0	0	0	455	621	
12	0	0	0	0	455	621	
13	0	0	0	0	457	620	
14	0	0	0	0	460	620	
15	0	0	0	0	462	620	
0	0	0	0	0	463	620	
1	0	0	0	0	463	621	
2	0	0	0	0	464	621	
3	0	0	0	0	466	620	
4	0	0	0	0	467	620	
5	0	0	0	0	468	620	
6	0	0	0	0	469	620	
7	0	0	0	0	471	620	
8	0	0	0	0	473	620	
9	0	0	0	0	475	618	
10	0	0	0	0	476	619	
11	0	0	0	0	477	619	
12	0	0	0	0	477	619	
13	0	0	0	0	477	619	
14	0	0	0	0	476	619	
15	0	0	0	0	476	619	
0	0	0	0	0	476	620	
1	0	0	0	0	476	620	
2	0	0	0	0	476	621	
3	0	0	0	0	477	621	
4	0	0	0	0	478	621	
5	0	0	0	0	480	621	
6	0	0	0	0	481	621	
7	0	0	0	0	483	621	
8	0	0	0	0	484	622	
9	0	0	0	0	485	623	
10	0	0	0	0	487	623	
11	0	0	0	0	487	624	
12	0	0	0	0	488	624	
13	0	0	0	0	489	624	
14	0	0	0	0	492	625	
15	0	0	0	0	493	626	
0	0	0	0	0	494	626	
1	0	0	0	0	495	626	
2	0	0	0	0	496	627	
3	0	0	0	0	496	627	
4	0	0	0	0	496	628	
5	0	0	0	0	495	629	
6	0	0	0	0	496	630	
7	0	0	0	0	496	629	
8	0	0	0	0	494	630	
9	0	0	0	0	494	631	
10	0	0	0	0	494	630	
11	0	0	0	0	495	630	
12	0	0	0	0	495	631	
13	0	0	0	0	496	631	
14	0	0	0	0	496	630	
15	0	0	0	0	496	630	
0	0	0	0	0	495	629	
1	0	0	0	0	495	629	
2	0	0	0	0	495	629	
3	0	0	0	0	493	628	
4	0	0	0	0	491	628	
5	0	0	0	0	491	628	
6	0	0	0	0	490	627	
7	0	0	0	0	489	627	
8	0	0	0	0	489	626	
9	0	0	0	0	490	626	
10	0	0	0	0	492	626	
11	0	0	0	0	493	626	
12	0	0	0	0	496	625	
13	0	0	0	0	496	625	
14	0	0	0	0	496	625	
15	0	0	0	0	496	624	
0	0	0	0	0	496	624	
1	0	0	0	0	496	624	
2	0	0	0	0	496	624	
3	0	0	0	0	497	623	
4	0	0	0	0	499	623	
5	0	0	0	0	500	622	
6	0	0	0	0	500	622	
7	0	0	0	0	500	621	
8	0	0	0	0	500	621	
9	0	0	0	0	501	620	
10	0	0	0	0	503	620	
11	0	0	0	0	503	620	
12	0	0	0	0	502	619	
13	0	0	0	0	502	620	
14	0	0	0	0	503	619	
15	0	0	0	0	503	619	
0	0	0	0	0	503	619	
1	0	0	0	0	500	619	
2	0	0	0	0	498	618	
3	0	0	0	0	497	618	
4	0	0	0	0	497	618	
5	0	0	0	0	497	619	
6	0	0	0	0	496	619	
7	0	0	0	0	496	619	
8	0	0	0	0	496	619	
9	0	0	0	0	496	619	
10	0	0	0	0	498	619	
11	0	0	0	0	499	620	
12	0	0	0	0	500	621	
13	0	0	0	0	500	621	
14	0	0	0	0	502	622	
15	0	0	0	0	503	622	
0	0	0	0	0	504	624	
1	0	0	0	0	504	624	
2	0	0	0	0	504	624	
3	0	0	0	0	503	625	
4	0	0	0	0	503	626	
5	0	0	0	0	503	625	
6	0	0	0	0	504	627	
7	0	0	0	0	504	627	
8	0	0	0	0	505	627	
9	0	0	0	0	505	628	
10	0	0	0	0	505	628	
11	0	0	0	0	506	629	
12	0	0	0	0	508	629	
13	0	0	0	0	509	630	
14	0	0	0	0	510	629	
15	0	0	0	0	510	629	
0	0	0	0	0	509	629	
1	0	0	0	0	507	630	
2	0	0	0	0	507	630	
3	0	0	0	0	506	630	
4	0	0	0	0	505	629	
5	0	0	0	0	503	629	
6	0	0	0	0	502	630	
7	0	0	0	0	502	629	
8	0	0	0	0	501	628	
9	0	0	0	0	502	628	
10	0	0	0	0	502	629	
11	0	0	0	0	502	628	
12	0	0	0	0	503	627	
13	0	0	0	0	502	627	
14	0	0	0	0	502	627	
15	0	0	0	0	501	626	
0	0	0	0	0	501	626	
1	0	0	0	0	501	625	
2	0	0	0	0	502	625	
3	0	0	0	0	503	625	
4	0	0	0	0	503	624	
5	0	0	0	0	503	624	
6	0	0	0	0	503	623	
7	0	0	0	0	503	623	
8	0	0	0	0	503	622	
9	0	0	0	0	503	621	
10	0	0	0	0	503	620	
11	0	0	0	0	504	620	
12	0	0	0	0	503	620	
13	0	0	0	0	503	619	
14	0	0	0	0	502	619	
15	0	0	0	0	502	619	
0	0	0	0	0	502	619	
1	0	0	0	0	503	618	
2	0	0	0	0	503	618	
3	0	0	0	0	504	618	
4	0	0	0	0	502	618	
5	0	0	0	0	502	617	
6	0	0	0	0	502	617	
7	0	0	0	0	502	617	
8	0	0	0	0	502	617	
9	0	0	0	0	502	617	
10	0	0	0	0	501	617	
11	0	0	0	0	501	617	
12	0	0	0	0	502	617	
13	0	0	0	0	504	617	
14	0	0	0	0	505	617	
15	0	0	0	0	504	616	
0	0	0	0	0	504	617	
1	0	0	0	0	503	617	
2	0	0	0	0	502	616	
3	0	0	0	0	503	617	
4	0	0	0	0	502	616	
5	0	0	0	0	502	616	
6	0	0	0	0	502	616	
7	0	0	0	0	502	615	
8	0	0	0	0	502	615	
9	0	0	0	0	502	615	
10	0	0	0	0	502	615	
11	0	0	0	0	502	615	
12	0	0	0	0	502	615	
13	0	0	0	0	503	615	
14	0	0	0	0	503	615	
15	0	0	0	0	503	615	
0	0	0	0	0	503	615	
1	0	0	0	0	504	615	
2	0	0	0	0	504	614	
3	0	0	0	0	504	614	
4	0	0	0	0	503	614	
5	0	0	0	0	503	614	
6	0	0	0	0	503	615	
7	0	0	0	0	503	614	
8	0	0	0	0	504	614	
9	0	0	0	0	504	614	
10	0	0	0	0	504	614	
11	0	0	0	0	506	615	
12	0	0	0	0	507	614	
13	0	0	0	0	508	615	
14	0	0	0	0	507	615	
15	0	0	0	0	505	614	
0	0	0	0	0	505	615	
1	0	0	0	0	504	615	
2	0	0	0	0	504	615	
3	0	0	0	0	504	616	
4	0	0	0	0	504	615	
5	0	0	0	0	504	616	
6	0	0	0	0	504	617	
7	0	0	0	0	504	616	
8	0	0	0	0	504	618	
9	0	0	0	0	505	618	
10	0	0	0	0	505	618	
11	0	0	0	0	504	619	
12	0	0	0	0	504	619	
13	0	0	0	0	504	619	
14	0	0	0	0	505	620	
15	0	0	0	0	505	620	
0	0	0	0	0	504	620	
1	0	0	0	0	503	621	
2	0	0	0	0	502	621	
3	0	0	0	0	502	621	
4	0	0	0	0	502	622	
5	0	0	0	0	503	622	
6	0	0	0	0	503	623	
7	0	0	0	0	502	623	
8	0	0	0	0	501	623	
9	0	0	0	0	500	624	
10	0	0	0	0	499	624	
11	0	0	0	0	499	624	
12	0	0	0	0	500	624	
13	0	0	0	0	500	624	
14	0	0	0	0	500	624	
15	0	0	0	0	499	625	
0	0	0	0	0	499	625	
1	0	0	0	0	499	625	
2	0	0	0	0	499	626	
3	0	0	0	0	499	626	
4	0	0	0	0	500	627	
5	0	0	0	0	500	627	
6	0	0	0	0	500	627	
7	0	0	0	0	501	627	
8	0	0	0	0	500	627	
9	0	0	0	0	499	627	
10	0	0	0	0	500	627	
11	0	0	0	0	500	627	
12	0	0	0	0	502	627	
13	0	0	0	0	503	627	
14	0	0	0	0	503	628	
15	0	0	0	0	501	627	
0	0	0	0	0	500	627	
1	0	0	0	0	499	627	
2	0	0	0	0	498	627	
3	0	0	0	0	497	627	
4	0	0	0	0	496	627	
5	0	0	0	0	497	627	
6	0	0	0	0	497	627	
7	0	0	0	0	498	626	
8	0	0	0	0	499	626	
9	0	0	0	0	500	626	
10	0	0	0	0	501	625	
11	0	0	0	0	500	626	
12	0	0	0	0	500	626	
13	0	0	0	0	500	626	
14	0	0	0	0	500	625	
15	0	0	0	0	501	625	
0	0	0	0	0	502	625	
1	0	0	0	0	502	625	
2	0	0	0	0	501	625	
3	0	0	0	0	500	625	
4	0	0	0	0	501	625	
5	0	0	0	0	502	624	
6	0	0	0	0	504	625	
7	0	0	0	0	504	624	
8	0	0	0	0	504	624	
9	0	0	0	0	505	624	
10	0	0	0	0	504	623	
11	0	0	0	0	504	623	
12	0	0	0	0	503	623	
13	0	0	0	0	501	623	
14	0	0	0	0	499	624	
15	0	0	0	0	499	623	
0	0	0	0	0	498	623	
1	0	0	0	0	497	623	
2	0	0	0	0	498	622	
3	0	0	0	0	499	623	
4	0	0	0	0	501	623	
5	0	0	0	0	503	623	
6	0	0	0	0	506	623	
7	0	0	0	0	508	623	
8	0	0	0	0	510	623	
9	0	0	0	0	509	623	
10	0	0	0	0	509	624	
11	0	0	0	0	510	624	
12	0	0	0	0	509	625	
13	0	0	0	0	509	626	
14	0	0	0	0	509	627	
15	0	0	0	0	510	628	
0	0	0	0	0	510	630	
1	0	0	0	0	510	631	
2	0	0	0	0	510	631	
3	0	0	0	0	508	632	
4	0	0	0	0	508	632	
5	0	0	0	0	507	632	
6	0	0	0	0	507	633	
7	0	0	0	0	505	632	
8	0	0	0	0	504	632	
9	0	0	0	0	504	633	
10	0	0	0	0	504	632	
11	0	0	0	0	504	632	
12	0	0	0	0	503	632	
13	0	0	0	0	502	631	
14	0	0	0	0	502	631	
15	0	0	0	0	501	629	
0	0	0	0	0	500	629	
1	0	0	0	0	499	628	
2	0	0	0	0	500	627	
3	0	0	0	0	500	626	
4	0	0	0	0	503	625	
5	0	0	0	0	506	625	
6	0	0	0	0	509	625	
7	0	0	0	0	510	624	
8	0	0	0	0	512	623	
9	0	0	0	0	512	623	
10	0	0	0	0	512	622	
11	0	0	0	0	512	621	
12	0	0	0	0	512	620	
13	0	0	0	0	512	620	
14	0	0	0	0	513	620	
15	0	0	0	0	515	618	
0	0	0	0	0	515	618	
1	0	0	0	0	516	617	
2	0	0	0	0	517	616	
3	0	0	0	0	517	616	
4	0	0	0	0	516	616	
5	0	0	0	0	515	615	
6	0	0	0	0	514	615	
7	0	0	0	0	513	615	
8	0	0	0	0	512	614	
9	0	0	0	0	512	614	
10	0	0	0	0	511	614	
11	0	0	0	0	511	614	
12	0	0	0	0	510	614	
13	0	0	0	0	509	613	
14	0	0	0	0	509	614	
15	0	0	0	0	508	614	
0	0	0	0	0	508	614	
1	0	0	0	0	508	614	
2	0	0	0	0	507	614	
3	0	0	0	0	506	614	
4	0	0	0	0	505	615	
5	0	0	0	0	507	615	
6	0	0	0	0	508	617	
7	0	0	0	0	507	616	
8	0	0	0	0	507	618	
9	0	0	0	0	507	619	
10	0	0	0	0	507	619	
11	0	0	0	0	507	620	
12	0	0	0	0	507	621	
13	0	0	0	0	507	622	
14	0	0	0	0	507	623	
15	0	0	0	0	508	624	
0	0	0	0	0	508	624	
1	0	0	0	0	508	625	
2	0	0	0	0	509	627	
3	0	0	0	0	509	627	
4	0	0	0	0	510	628	
5	0	0	0	0	510	629	
6	0	0	0	0	511	630	
7	0	0	0	0	511	630	
8	0	0	0	0	511	631	
9	0	0	0	0	512	631	
10	0	0	0	0	512	632	
11	0	0	0	0	511	632	
12	0	0	0	0	512	632	
13	0	0	0	0	512	632	
14	0	0	0	0	512	633	
15	0	0	0	0	512	633	
0	0	0	0	0	511	633	
1	0	0	0	0	511	633	
2	0	0	0	0	511	632	
3	0	0	0	0	512	632	
4	0	0	0	0	512	632	
5	0	0	0	0	512	632	
6	0	0	0	0	512	631	
7	0	0	0	0	513	631	
8	0	0	0	0	513	630	
9	0	0	0	0	512	630	
10	0	0	0	0	512	629	
11	0	0	0	0	511	629	
12	0	0	0	0	511	629	
13	0	0	0	0	510	627	
14	0	0	0	0	510	628	
15	0	0	0	0	510	627	
0	0	0	0	0	510	627	
1	0	0	0	0	511	626	
2	0	0	0	0	510	625	
3	0	0	0	0	511	625	
4	0	0	0	0	511	625	
5	0	0	0	0	511	625	
6	0	0	0	0	511	624	
7	0	0	0	0	512	623	
8	0	0	0	0	512	623	
9	0	0	0	0	512	623	
10	0	0	0	0	512	623	
11	0	0	0	0	511	622	
12	0	0	0	0	511	622	
13	0	0	0	0	512	622	
14	0	0	0	0	512	622	
15	0	0	0	0	512	620	
0	0	0	0	0	511	620	
1	0	0	0	0	511	620	
2	0	0	0	0	511	620	
3	0	0	0	0	510	619	
4	0	0	0	0	509	619	
5	0	0	0	0	508	619	
6	0	0	0	0	508	619	
7	0	0	0	0	508	619	
8	0	0	0	0	507	619	
9	0	0	0	0	507	618	
10	0	0	0	0	507	619	
11	0	0	0	0	508	618	
12	0	0	0	0	507	618	
13	0	0	0	0	507	618	
14	0	0	0	0	505	618	
15	0	0	0	0	504	618	
0	0	0	0	0	505	617	
1	0	0	0	0	505	618	
2	0	0	0	0	506	617	
3	0	0	0	0	507	616	
4	0	0	0	0	508	616	
5	0	0	0	0	508	617	
6	0	0	0	0	508	616	
7	0	0	0	0	508	615	
8	0	0	0	0	508	615	
9	0	0	0	0	508	615	
10	0	0	0	0	508	615	
11	0	0	0	0	508	615	
12	0	0	0	0	507	615	
13	0	0	0	0	505	615	
14	0	0	0	0	505	615	
15	0	0	0	0	506	615	
0	0	0	0	0	507	615	
1	0	0	0	0	508	615	
2	0	0	0	0	508	614	
3	0	0	0	0	508	614	
4	0	0	0	0	507	614	
5	0	0	0	0	506	614	
6	0	0	0	0	506	615	
7	0	0	0	0	505	615	
8	0	0	0	0	504	615	
9	0	0	0	0	504	615	
10	0	0	0	0	506	615	
11	0	0	0	0	507	615	
12	0	0	0	0	507	616	
13	0	0	0	0	508	616	
14	0	0	0	0	509	616	
15	0	0	0	0	510	617	
0	0	0	0	0	510	617	
1	0	0	0	0	511	618	
2	0	0	0	0	512	618	
3	0	0	0	0	514	619	
4	0	0	0	0	515	619	
5	0	0	0	0	512	620	
6	0	0	0	0	511	620	
7	0	0	0	0	508	620	
8	0	0	0	0	507	620	
9	0	0	0	0	505	621	
10	0	0	0	0	504	621	
11	0	0	0	0	505	621	
12	0	0	0	0	507	622	
13	0	0	0	0	507	622	
14	0	0	0	0	507	623	
15	0	0	0	0	508	622	
0	0	0	0	0	508	623	
1	0	0	0	0	507	624	
2	0	0	0	0	506	623	
3	0	0	0	0	506	624	
4	0	0	0	0	506	624	
5	0	0	0	0	505	624	
6	0	0	0	0	504	624	
7	0	0	0	0	504	624	
8	0	0	0	0	504	625	
9	0	0	0	0	504	625	
10	0	0	0	0	504	625	
11	0	0	0	0	504	626	
12	0	0	0	0	504	626	
13	0	0	0	0	504	627	
14	0	0	0	0	503	626	
15	0	0	0	0	504	627	
0	0	0	0	0	504	627	
1	0	0	0	0	504	627	
2	0	0	0	0	504	627	
3	0	0	0	0	503	626	
4	0	0	0	0	503	627	
5	0	0	0	0	503	627	
6	0	0	0	0	503	627	
7	0	0	0	0	503	627	
8	0	0	0	0	503	627	
9	0	0	0	0	502	626	
10	0	0	0	0	502	625	
11	0	0	0	0	502	625	
12	0	0	0	0	502	625	
13	0	0	0	0	502	624	
14	0	0	0	0	501	624	
15	0	0	0	0	502	624	
0	0	0	0	0	502	624	
1	0	0	0	0	502	624	
2	0	0	0	0	501	623	
3	0	0	0	0	501	622	
4	0	0	0	0	500	622	
5	0	0	0	0	499	622	
6	0	0	0	0	499	622	
7	0	0	0	0	499	622	
8	0	0	0	0	499	622	
9	0	0	0	0	498	622	
10	0	0	0	0	497	621	
11	0	0	0	0	496	620	
12	0	0	0	0	496	620	
13	0	0	0	0	497	620	
14	0	0	0	0	498	620	
15	0	0	0	0	499	620	
0	0	0	0	0	499	620	
1	0	0	0	0	498	619	
2	0	0	0	0	498	619	
3	0	0	0	0	498	619	
4	0	0	0	0	498	619	
5	0	0	0	0	499	619	
6	0	0	0	0	498	619	
7	0	0	0	0	499	619	
8	0	0	0	0	500	619	
9	0	0	0	0	500	619	
10	0	0	0	0	499	619	
11	0	0	0	0	499	619	
12	0	0	0	0	500	619	
13	0	0	0	0	500	620	
14	0	0	0	0	499	620	
15	0	0	0	0	499	620	
0	0	0	0	0	498	620	
1	0	0	0	0	498	620	
2	0	0	0	0	498	620	
3	0	0	0	0	499	620	
4	0	0	0	0	499	621	
5	0	0	0	0	500	621	
6	0	0	0	0	500	621	
7	0	0	0	0	499	622	
8	0	0	0	0	498	622	
9	0	0	0	0	497	622	
10	0	0	0	0	496	622	
11	0	0	0	0	496	622	
12	0	0	0	0	495	622	
13	0	0	0	0	496	622	
14	0	0	0	0	496	622	
15	0	0	0	0	495	623	
0	0	0	0	0	494	623	
1	0	0	0	0	493	623	
2	0	0	0	0	494	622	
3	0	0	0	0	494	623	
4	0	0	0	0	495	622	
5	0	0	0	0	495	623	
6	0	0	0	0	495	623	
7	0	0	0	0	496	623	
8	0	0	0	0	497	622	
9	0	0	0	0	498	622	
10	0	0	0	0	498	621	
11	0	0	0	0	498	622	
12	0	0	0	0	498	622	
13	0	0	0	0	499	622	
14	0	0	0	0	496	622	
15	0	0	0	0	496	622	
0	0	0	0	0	495	622	
1	0	0	0	0	495	622	
2	0	0	0	0	495	622	
3	0	0	0	0	496	622	
4	0	0	0	0	496	622	
5	0	0	0	0	496	622	
6	0	0	0	0	496	622	
7	0	0	0	0	496	622	
8	0	0	0	0	496	622	
9	0	0	0	0	496	622	
10	0	0	0	0	497	622	
11	0	0	0	0	497	622	
12	0	0	0	0	497	622	
13	0	0	0	0	496	621	
14	0	0	0	0	496	622	
15	0	0	0	0	497	622	
0	0	0	0	0	497	622	
1	0	0	0	0	497	623	
2	0	0	0	0	497	622	
3	0	0	0	0	498	622	
4	0	0	0	0	497	623	
5	0	0	0	0	498	623	
6	0	0	0	0	499	623	
7	0	0	0	0	500	623	
8	0	0	0	0	502	623	
9	0	0	0	0	501	623	
10	0	0	0	0	502	623	
11	0	0	0	0	502	623	
12	0	0	0	0	502	624	
13	0	0	0	0	502	624	
14	0	0	0	0	502	624	
15	0	0	0	0	503	624	
0	0	0	0	0	503	624	
1	0	0	0	0	502	624	
2	0	0	0	0	502	624	
3	0	0	0	0	502	624	
4	0	0	0	0	502	625	
5	0	0	0	0	502	625	
6	0	0	0	0	502	626	
7	0	0	0	0	502	626	
8	0	0	0	0	502	626	
9	0	0	0	0	503	626	
10	0	0	0	0	502	627	
11	0	0	0	0	501	626	
12	0	0	0	0	502	627	
13	0	0	0	0	503	627	
14	0	0	0	0	504	627	
15	0	0	0	0	504	628	
0	0	0	0	0	503	627	
1	0	0	0	0	502	628	
2	0	0	0	0	499	627	
3	0	0	0	0	498	627	
4	0	0	0	0	498	628	
5	0	0	0	0	497	628	
6	0	0	0	0	497	629	
7	0	0	0	0	497	629	
8	0	0	0	0	498	628	
9	0	0	0	0	499	629	
10	0	0	0	0	501	628	
11	0	0	0	0	503	628	
12	0	0	0	0	503	628	
13	0	0	0	0	503	628	
14	0	0	0	0	504	628	
15	0	0	0	0	504	628	
0	0	0	0	0	504	627	
1	0	0	0	0	504	627	
2	0	0	0	0	504	627	
3	0	0	0	0	505	627	
4	0	0	0	0	506	626	
5	0	0	0	0	507	625	
6	0	0	0	0	507	625	
7	0	0	0	0	507	625	
8	0	0	0	0	506	625	
9	0	0	0	0	504	624	
10	0	0	0	0	504	624	
11	0	0	0	0	501	624	
12	0	0	0	0	499	624	
13	0	0	0	0	497	624	
14	0	0	0	0	496	624	
15	0	0	0	0	496	623	
0	0	0	0	0	497	623	
1	0	0	0	0	498	622	
2	0	0	0	0	499	622	
3	0	0	0	0	499	622	
4	0	0	0	0	499	622	
5	0	0	0	0	500	622	
6	0	0	0	0	502	622	
7	0	0	0	0	504	622	
8	0	0	0	0	506	622	
9	0	0	0	0	508	624	
10	0	0	0	0	510	624	
11	0	0	0	0	511	624	
12	0	0	0	0	512	626	
13	0	0	0	0	512	627	
14	0	0	0	0	512	628	
15	0	0	0	0	511	628	
0	0	0	0	0	508	630	
1	0	0	0	0	504	630	
2	0	0	0	0	501	630	
3	0	0	0	0	498	631	
4	0	0	0	0	495	631	
5	0	0	0	0	493	631	
6	0	0	0	0	493	631	
7	0	0	0	0	493	630	
8	0	0	0	0	492	630	
9	0	0	0	0	491	629	
10	0	0	0	0	489	628	
11	0	0	0	0	488	628	
12	0	0	0	0	487	628	
13	0	0	0	0	486	627	
14	0	0	0	0	483	627	
15	0	0	0	0	482	625	
0	0	0	0	0	481	625	
1	0	0	0	0	478	624	
2	0	0	0	0	472	624	
3	0	0	0	0	464	622	
4	0	0	0	0	457	622	
5	0	0	0	0	450	620	
6	0	0	0	0	442	620	
7	0	0	0	0	434	620	
8	0	0	0	0	427	619	
9	0	0	0	0	422	618	
10	0	0	0	0	416	617	
11	0	0	0	0	411	617	
12	0	0	0	0	408	616	
13	0	0	0	0	406	615	
14	0	0	0	0	405	615	
15	0	0	0	0	406	614	
0	0	0	0	0	408	613	
1	0	0	0	0	410	612	
2	0	0	0	0	414	611	
3	0	0	0	0	419	611	
4	0	0	0	0	424	611	
5	0	0	0	0	430	610	
6	0	0	0	0	435	610	
7	0	0	0	0	439	609	
8	0	0	0	0	444	609	
9	0	0	0	0	449	609	
10	0	0	0	0	456	608	
11	0	0	0	0	469	609	
12	0	0	0	0	487	608	
13	0	0	0	0	505	608	
14	0	0	0	0	526	609	
15	0	0	0	0	550	609	
0	0	0	0	0	579	610	
1	0	0	0	0	610	611	
2	0	0	0	0	646	611	
3	0	0	0	0	683	612	
4	0	0	0	0	716	613	
5	0	0	0	0	746	615	
6	0	0	0	0	772	615	
7	0	0	0	0	793	616	
8	0	0	0	0	809	616	
9	0	0	0	0	820	617	
10	0	0	0	0	824	619	
11	0	0	0	0	824	620	
12	0	0	0	0	824	622	
13	0	0	0	0	822	624	
14	0	0	0	0	817	624	
15	0	0	0	0	812	625	
0	0	0	0	0	803	626	
1	0	0	0	0	792	627	
2	0	0	0	0	778	627	
3	0	0	0	0	761	628	
4	0	0	0	0	741	629	
5	0	0	0	0	722	629	
6	0	0	0	0	704	630	
7	0	0	0	0	687	629	
8	0	0	0	0	671	629	
9	0	0	0	0	655	630	
10	0	0	0	0	641	630	
11	0	0	0	0	627	630	
12	0	0	0	0	616	629	
13	0	0	0	0	605	629	
14	0	0	0	0	595	629	
15	0	0	0	0	585	628	
0	0	0	0	0	576	628	
1	0	0	0	0	566	627	
2	0	0	0	0	556	626	
3	0	0	0	0	546	625	
4	0	0	0	0	536	625	
5	0	0	0	0	527	625	
6	0	0	0	0	519	624	
7	0	0	0	0	510	624	
8	0	0	0	0	502	623	
9	0	0	0	0	494	623	
10	0	0	0	0	486	622	
11	0	0	0	0	480	622	
12	0	0	0	0	473	621	
13	0	0	0	0	467	621	
14	0	0	0	0	461	621	
15	0	0	0	0	456	620	
0	0	0	0	0	452	621	
1	0	0	0	0	448	620	
2	0	0	0	0	446	620	
3	0	0	0	0	445	620	
4	0	0	0	0	444	620	
5	0	0	0	0	441	620	
6	0	0	0	0	438	620	
7	0	0	0	0	435	620	
8	0	0	0	0	432	620	
9	0	0	0	0	430	620	
10	0	0	0	0	428	620	
11	0	0	0	0	427	620	
12	0	0	0	0	425	620	
13	0	0	0	0	424	620	
14	0	0	0	0	424	621	
15	0	0	0	0	424	621	
0	0	0	0	0	424	621	
1	0	0	0	0	423	621	
2	0	0	0	0	422	621	
3	0	0	0	0	422	621	
4	0	0	0	0	422	621	
5	0	0	0	0	420	621	
6	0	0	0	0	419	621	
7	0	0	0	0	418	622	
8	0	0	0	0	419	622	
9	0	0	0	0	421	622	
10	0	0	0	0	423	621	
11	0	0	0	0	425	621	
12	0	0	0	0	425	622	
13	0	0	0	0	427	621	
14	0	0	0	0	427	622	
15	0	0	0	0	427	621	
0	0	0	0	0	427	621	
1	0	0	0	0	427	621	
2	0	0	0	0	428	620	
3	0	0	0	0	429	620	
4	0	0	0	0	432	620	
5	0	0	0	0	433	621	
6	0	0	0	0	434	620	
7	0	0	0	0	435	620	
8	0	0	0	0	436	621	
9	0	0	0	0	438	620	
10	0	0	0	0	439	620	
11	0	0	0	0	441	620	
12	0	0	0	0	442	620	
13	0	0	0	0	442	621	
14	0	0	0	0	443	620	
15	0	0	0	0	445	621	
0	0	0	0	0	447	621	
1	0	0	0	0	448	622	
2	0	0	0	0	450	622	
3	0	0	0	0	450	622	
4	0	0	0	0	452	623	
5	0	0	0	0	453	623	
6	0	0	0	0	454	623	
7	0	0	0	0	454	624	
8	0	0	0	0	453	623	
9	0	0	0	0	453	623	
10	0	0	0	0	452	624	
11	0	0	0	0	451	624	
12	0	0	0	0	450	624	
13	0	0	0	0	449	623	
14	0	0	0	0	448	623	
15	0	0	0	0	447	623	
0	0	0	0	0	446	623	
1	0	0	0	0	446	623	
2	0	0	0	0	446	623	
3	0	0	0	0	446	622	
4	0	0	0	0	445	623	
5	0	0	0	0	444	622	
6	0	0	0	0	443	622	
7	0	0	0	0	441	622	
8	0	0	0	0	440	623	
9	0	0	0	0	439	621	
10	0	0	0	0	440	622	
11	0	0	0	0	440	622	
12	0	0	0	0	440	622	
13	0	0	0	0	440	621	
14	0	0	0	0	440	623	
15	0	0	0	0	443	622	
0	0	0	0	0	444	622	
1	0	0	0	0	443	622	
2	0	0	0	0	442	622	
3	0	0	0	0	442	622	
4	0	0	0	0	441	622	
5	0	0	0	0	440	621	
6	0	0	0	0	440	621	
7	0	0	0	0	440	621	
8	0	0	0	0	441	621	
9	0	0	0	0	442	620	
10	0	0	0	0	443	621	
11	0	0	0	0	443	621	
12	0	0	0	0	443	620	
13	0	0	0	0	443	620	
14	0	0	0	0	443	620	
15	0	0	0	0	443	621	
0	0	0	0	0	442	621	
1	0	0	0	0	443	621	
2	0	0	0	0	443	620	
3	0	0	0	0	444	620	
4	0	0	0	0	444	621	
5	0	0	0	0	444	620	
6	0	0	0	0	444	621	
7	0	0	0	0	444	620	
8	0	0	0	0	444	621	
9	0	0	0	0	445	621	
10	0	0	0	0	445	621	
11	0	0	0	0	444	622	
12	0	0	0	0	445	622	
13	0	0	0	0	445	623	
14	0	0	0	0	446	623	
15	0	0	0	0	446	624	
0	0	0	0	0	446	624	
1	0	0	0	0	447	625	
2	0	0	0	0	448	624	
3	0	0	0	0	448	625	
4	0	0	0	0	449	626	
5	0	0	0	0	451	626	
6	0	0	0	0	451	627	
7	0	0	0	0	452	627	
8	0	0	0	0	453	628	
9	0	0	0	0	453	628	
10	0	0	0	0	453	628	
11	0	0	0	0	454	629	
12	0	0	0	0	454	629	
13	0	0	0	0	455	630	
14	0	0	0	0	455	630	
15	0	0	0	0	457	631	
0	0	0	0	0	458	630	
1	0	0	0	0	460	631	
2	0	0	0	0	461	631	
3	0	0	0	0	463	631	
4	0	0	0	0	463	631	
5	0	0	0	0	464	631	
6	0	0	0	0	465	630	
7	0	0	0	0	465	630	
8	0	0	0	0	466	629	
9	0	0	0	0	467	630	
10	0	0	0	0	467	629	
11	0	0	0	0	467	629	
12	0	0	0	0	467	628	
13	0	0	0	0	467	628	
14	0	0	0	0	467	628	
15	0	0	0	0	467	628	
0	0	0	0	0	467	627	
1	0	0	0	0	467	627	
2	0	0	0	0	468	626	
3	0	0	0	0	468	625	
4	0	0	0	0	470	624	
5	0	0	0	0	472	623	
6	0	0	0	0	472	624	
7	0	0	0	0	472	623	
8	0	0	0	0	473	623	
9	0	0	0	0	473	623	
10	0	0	0	0	475	622	
11	0	0	0	0	476	622	
12	0	0	0	0	476	622	
13	0	0	0	0	478	622	
14	0	0	0	0	480	622	
15	0	0	0	0	481	620	
0	0	0	0	0	482	620	
1	0	0	0	0	482	620	
2	0	0	0	0	483	620	
3	0	0	0	0	485	620	
4	0	0	0	0	487	620	
5	0	0	0	0	488	620	
6	0	0	0	0	488	620	
7	0	0	0	0	488	620	
8	0	0	0	0	488	620	
9	0	0	0	0	487	620	
10	0	0	0	0	490	620	
11	0	0	0	0	493	620	
12	0	0	0	0	495	620	
13	0	0	0	0	497	620	
14	0	0	0	0	498	620	
15	0	0	0	0	497	620	
0	0	0	0	0	496	620	
1	0	0	0	0	496	620	
2	0	0	0	0	497	620	
3	0	0	0	0	498	620	
4	0	0	0	0	499	620	
5	0	0	0	0	500	620	
6	0	0	0	0	501	621	
7	0	0	0	0	503	620	
8	0	0	0	0	502	620	
9	0	0	0	0	503	621	
10	0	0	0	0	504	620	
11	0	0	0	0	505	621	
12	0	0	0	0	506	620	
13	0	0	0	0	507	620	
14	0	0	0	0	509	620	
15	0	0	0	0	510	620	
0	0	0	0	0	509	620	
1	0	0	0	0	509	619	
2	0	0	0	0	510	619	
3	0	0	0	0	510	620	
4	0	0	0	0	511	620	
5	0	0	0	0	512	619	
6	0	0	0	0	513	620	
7	0	0	0	0	514	619	
8	0	0	0	0	514	620	
9	0	0	0	0	515	619	
10	0	0	0	0	515	619	
11	0	0	0	0	514	620	
12	0	0	0	0	515	620	
13	0	0	0	0	516	620	
14	0	0	0	0	516	620	
15	0	0	0	0	515	620	
0	0	0	0	0	514	621	
1	0	0	0	0	514	620	
2	0	0	0	0	513	620	
3	0	0	0	0	511	620	
4	0	0	0	0	509	620	
5	0	0	0	0	508	620	
6	0	0	0	0	508	621	
7	0	0	0	0	509	621	
8	0	0	0	0	509	621	
9	0	0	0	0	509	621	
10	0	0	0	0	509	621	
11	0	0	0	0	508	622	
12	0	0	0	0	507	621	
13	0	0	0	0	508	621	
14	0	0	0	0	508	622	
15	0	0	0	0	508	623	
0	0	0	0	0	510	622	
1	0	0	0	0	511	622	
2	0	0	0	0	511	623	
3	0	0	0	0	510	623	
4	0	0	0	0	509	623	
5	0	0	0	0	509	623	
6	0	0	0	0	509	624	
7	0	0	0	0	509	623	
8	0	0	0	0	510	624	
9	0	0	0	0	511	624	
10	0	0	0	0	511	625	
11	0	0	0	0	511	624	
12	0	0	0	0	512	625	
13	0	0	0	0	512	625	
14	0	0	0	0	512	625	
15	0	0	0	0	512	625	
0	0	0	0	0	512	625	
1	0	0	0	0	512	625	
2	0	0	0	0	512	625	
3	0	0	0	0	511	625	
4	0	0	0	0	511	625	
5	0	0	0	0	509	626	
6	0	0	0	0	506	626	
7	0	0	0	0	505	626	
8	0	0	0	0	505	626	
9	0	0	0	0	505	626	
10	0	0	0	0	506	626	
11	0	0	0	0	506	626	
12	0	0	0	0	506	626	
13	0	0	0	0	505	627	
14	0	0	0	0	505	627	
15	0	0	0	0	505	627	
0	0	0	0	0	505	627	
1	0	0	0	0	506	627	
2	0	0	0	0	506	627	
3	0	0	0	0	507	627	
4	0	0	0	0	507	628	
5	0	0	0	0	507	628	
6	0	0	0	0	508	629	
7	0	0	0	0	508	628	
8	0	0	0	0	508	629	
9	0	0	0	0	506	629	
10	0	0	0	0	505	628	
11	0	0	0	0	504	629	
12	0	0	0	0	505	628	
13	0	0	0	0	506	628	
14	0	0	0	0	506	628	
15	0	0	0	0	504	627	
0	0	0	0	0	504	627	
1	0	0	0	0	503	627	
2	0	0	0	0	502	627	
3	0	0	0	0	502	626	
4	0	0	0	0	502	627	
5	0	0	0	0	504	625	
6	0	0	0	0	505	625	
7	0	0	0	0	505	624	
8	0	0	0	0	504	625	
9	0	0	0	0	505	624	
10	0	0	0	0	506	624	
11	0	0	0	0	506	623	
12	0	0	0	0	506	623	
13	0	0	0	0	506	623	
14	0	0	0	0	507	623	
15	0	0	0	0	508	622	
0	0	0	0	0	510	622	
1	0	0	0	0	510	622	
2	0	0	0	0	509	621	
3	0	0	0	0	510	621	
4	0	0	0	0	510	621	
5	0	0	0	0	510	620	
6	0	0	0	0	511	620	
7	0	0	0	0	511	620	
8	0	0	0	0	511	620	
9	0	0	0	0	512	620	
10	0	0	0	0	512	619	
11	0	0	0	0	513	619	
12	0	0	0	0	515	619	
13	0	0	0	0	516	619	
14	0	0	0	0	517	619	
15	0	0	0	0	517	618	
0	0	0	0	0	516	619	
1	0	0	0	0	515	618	
2	0	0	0	0	516	618	
3	0	0	0	0	517	618	
4	0	0	0	0	518	618	
5	0	0	0	0	519	618	
6	0	0	0	0	519	619	
7	0	0	0	0	521	619	
8	0	0	0	0	523	619	
9	0	0	0	0	526	619	
10	0	0	0	0	528	619	
11	0	0	0	0	531	619	
12	0	0	0	0	533	620	
13	0	0	0	0	535	620	
14	0	0	0	0	534	620	
15	0	0	0	0	532	620	
0	0	0	0	0	531	620	
1	0	0	0	0	530	621	
2	0	0	0	0	528	622	
3	0	0	0	0	526	623	
4	0	0	0	0	525	624	
5	0	0	0	0	523	624	
6	0	0	0	0	520	626	
7	0	0	0	0	516	627	
8	0	0	0	0	513	627	
9	0	0	0	0	510	627	
10	0	0	0	0	507	628	
11	0	0	0	0	505	628	
12	0	0	0	0	504	629	
13	0	0	0	0	502	629	
14	0	0	0	0	500	630	
15	0	0	0	0	499	629	
0	0	0	0	0	497	628	
1	0	0	0	0	495	628	
2	0	0	0	0	492	628	
3	0	0	0	0	490	626	
4	0	0	0	0	488	626	
5	0	0	0	0	486	626	
6	0	0	0	0	484	626	
7	0	0	0	0	483	625	
8	0	0	0	0	482	624	
9	0	0	0	0	481	624	
10	0	0	0	0	481	623	
11	0	0	0	0	481	623	
12	0	0	0	0	482	622	
13	0	0	0	0	481	622	
14	0	0	0	0	483	622	
15	0	0	0	0	484	620	
0	0	0	0	0	485	621	
1	0	0	0	0	485	620	
2	0	0	0	0	485	619	
3	0	0	0	0	485	619	
4	0	0	0	0	484	619	
5	0	0	0	0	483	618	
6	0	0	0	0	484	618	
7	0	0	0	0	485	617	
8	0	0	0	0	485	617	
9	0	0	0	0	486	616	
10	0	0	0	0	486	616	
11	0	0	0	0	487	615	
12	0	0	0	0	487	615	
13	0	0	0	0	487	615	
14	0	0	0	0	488	615	
15	0	0	0	0	489	614	
0	0	0	0	0	489	614	
1	0	0	0	0	489	614	
2	0	0	0	0	489	614	
3	0	0	0	0	488	614	
4	0	0	0	0	488	614	
5	0	0	0	0	488	615	
6	0	0	0	0	487	614	
7	0	0	0	0	488	614	
8	0	0	0	0	489	615	
9	0	0	0	0	489	615	
10	0	0	0	0	489	615	
11	0	0	0	0	490	616	
12	0	0	0	0	491	616	
13	0	0	0	0	491	618	
14	0	0	0	0	492	619	
15	0	0	0	0	492	619	
0	0	0	0	0	492	620	
1	0	0	0	0	492	621	
2	0	0	0	0	492	622	
3	0	0	0	0	491	623	
4	0	0	0	0	491	623	
5	0	0	0	0	491	624	
6	0	0	0	0	492	625	
7	0	0	0	0	493	625	
8	0	0	0	0	493	626	
9	0	0	0	0	495	626	
10	0	0	0	0	497	627	
11	0	0	0	0	497	628	
12	0	0	0	0	497	628	
13	0	0	0	0	497	628	
14	0	0	0	0	498	629	
15	0	0	0	0	498	628	
0	0	0	0	0	498	628	
1	0	0	0	0	498	629	
2	0	0	0	0	497	629	
3	0	0	0	0	497	629	
4	0	0	0	0	497	629	
5	0	0	0	0	498	629	
6	0	0	0	0	498	628	
7	0	0	0	0	498	628	
8	0	0	0	0	498	628	
9	0	0	0	0	498	628	
10	0	0	0	0	497	628	
11	0	0	0	0	496	627	
12	0	0	0	0	497	627	
13	0	0	0	0	498	626	
14	0	0	0	0	499	626	
15	0	0	0	0	498	625	
0	0	0	0	0	497	625	
1	0	0	0	0	496	624	
2	0	0	0	0	496	623	
3	0	0	0	0	496	623	
4	0	0	0	0	496	622	
5	0	0	0	0	496	621	
6	0	0	0	0	495	621	
7	0	0	0	0	495	620	
8	0	0	0	0	494	620	
9	0	0	0	0	494	619	
10	0	0	0	0	494	619	
11	0	0	0	0	495	618	
12	0	0	0	0	497	618	
13	0	0	0	0	499	617	
14	0	0	0	0	498	617	
15	0	0	0	0	497	617	
0	0	0	0	0	496	617	
1	0	0	0	0	495	617	
2	0	0	0	0	495	615	
3	0	0	0	0	494	616	
4	0	0	0	0	495	616	
5	0	0	0	0	495	616	
6	0	0	0	0	496	617	
7	0	0	0	0	497	616	
8	0	0	0	0	498	617	
9	0	0	0	0	498	616	
10	0	0	0	0	498	616	
11	0	0	0	0	498	616	
12	0	0	0	0	497	617	
13	0	0	0	0	496	617	
14	0	0	0	0	496	617	
15	0	0	0	0	497	616	
0	0	0	0	0	497	617	
1	0	0	0	0	497	617	
2	0	0	0	0	497	617	
3	0	0	0	0	497	617	
4	0	0	0	0	497	617	
5	0	0	0	0	498	617	
6	0	0	0	0	497	617	
7	0	0	0	0	498	618	
8	0	0	0	0	499	618	
9	0	0	0	0	500	618	
10	0	0	0	0	500	618	
11	0	0	0	0	499	618	
12	0	0	0	0	500	618	
13	0	0	0	0	502	618	
14	0	0	0	0	503	618	
15	0	0	0	0	504	619	
0	0	0	0	0	505	618	
1	0	0	0	0	505	618	
2	0	0	0	0	506	619	
3	0	0	0	0	507	619	
4	0	0	0	0	507	619	
5	0	0	0	0	506	619	
6	0	0	0	0	505	620	
7	0	0	0	0	505	619	
8	0	0	0	0	506	619	
9	0	0	0	0	506	619	
10	0	0	0	0	507	619	
11	0	0	0	0	508	620	
12	0	0	0	0	508	620	
13	0	0	0	0	508	620	
14	0	0	0	0	508	620	
15	0	0	0	0	508	619	
0	0	0	0	0	508	619	
1	0	0	0	0	508	620	
2	0	0	0	0	508	620	
3	0	0	0	0	508	619	
4	0	0	0	0	507	619	
5	0	0	0	0	507	620	
6	0	0	0	0	507	620	
7	0	0	0	0	507	620	
8	0	0	0	0	507	620	
9	0	0	0	0	506	621	
10	0	0	0	0	506	621	
11	0	0	0	0	507	621	
12	0	0	0	0	507	621	
13	0	0	0	0	507	621	
14	0	0	0	0	508	622	
15	0	0	0	0	509	621	
0	0	0	0	0	510	622	
1	0	0	0	0	510	622	
2	0	0	0	0	509	622	
3	0	0	0	0	508	622	
4	0	0	0	0	507	623	
5	0	0	0	0	505	623	
6	0	0	0	0	504	623	
7	0	0	0	0	502	624	
8	0	0	0	0	502	624	
9	0	0	0	0	502	624	
10	0	0	0	0	502	624	
11	0	0	0	0	502	625	
12	0	0	0	0	501	625	
13	0	0	0	0	500	625	
14	0	0	0	0	499	626	
15	0	0	0	0	497	626	
0	0	0	0	0	496	627	
1	0	0	0	0	496	626	
2	0	0	0	0	495	626	
3	0	0	0	0	495	627	
4	0	0	0	0	496	627	
5	0	0	0	0	496	627	
6	0	0	0	0	496	627	
7	0	0	0	0	497	627	
8	0	0	0	0	498	627	
9	0	0	0	0	499	627	
10	0	0	0	0	500	627	
11	0	0	0	0	499	627	
12	0	0	0	0	498	627	
13	0	0	0	0	496	627	
14	0	0	0	0	495	627	
15	0	0	0	0	494	627	
0	0	0	0	0	494	627	
1	0	0	0	0	493	627	
2	0	0	0	0	494	627	
3	0	0	0	0	494	627	
4	0	0	0	0	495	627	
5	0	0	0	0	497	627	
6	0	0	0	0	497	627	
7	0	0	0	0	497	626	
8	0	0	0	0	497	626	
9	0	0	0	0	497	627	
10	0	0	0	0	498	627	
11	0	0	0	0	499	627	
12	0	0	0	0	499	627	
13	0	0	0	0	499	627	
14	0	0	0	0	499	628	
15	0	0	0	0	499	628	
0	0	0	0	0	498	627	
1	0	0	0	0	498	627	
2	0	0	0	0	498	628	
3	0	0	0	0	498	628	
4	0	0	0	0	498	629	
5	0	0	0	0	497	628	
6	0	0	0	0	498	629	
7	0	0	0	0	498	628	
8	0	0	0	0	497	628	
9	0	0	0	0	495	628	
10	0	0	0	0	494	628	
11	0	0	0	0	493	628	
12	0	0	0	0	493	628	
13	0	0	0	0	492	629	
14	0	0	0	0	492	629	
15	0	0	0	0	492	629	
0	0	0	0	0	492	629	
1	0	0	0	0	493	629	
2	0	0	0	0	493	628	
3	0	0	0	0	493	628	
4	0	0	0	0	493	628	
5	0	0	0	0	493	628	
6	0	0	0	0	493	628	
7	0	0	0	0	494	627	
8	0	0	0	0	494	626	
9	0	0	0	0	495	626	
10	0	0	0	0	496	625	
11	0	0	0	0	497	625	
12	0	0	0	0	498	625	
13	0	0	0	0	499	624	
14	0	0	0	0	500	624	
15	0	0	0	0	503	623	
0	0	0	0	0	504	622	
1	0	0	0	0	505	622	
2	0	0	0	0	505	621	
3	0	0	0	0	505	620	
4	0	0	0	0	502	620	
5	0	0	0	0	500	620	
6	0	0	0	0	498	620	
7	0	0	0	0	497	621	
8	0	0	0	0	497	620	
9	0	0	0	0	496	620	
10	0	0	0	0	497	620	
11	0	0	0	0	499	620	
12	0	0	0	0	501	620	
13	0	0	0	0	504	620	
14	0	0	0	0	506	620	
15	0	0	0	0	509	619	
0	0	0	0	0	512	619	
1	0	0	0	0	513	619	
2	0	0	0	0	516	619	
3	0	0	0	0	517	620	
4	0	0	0	0	519	620	
5	0	0	0	0	520	620	
6	0	0	0	0	521	621	
7	0	0	0	0	521	622	
8	0	0	0	0	521	622	
9	0	0	0	0	520	623	
10	0	0	0	0	520	624	
11	0	0	0	0	519	625	
12	0	0	0	0	518	624	
13	0	0	0	0	516	625	
14	0	0	0	0	513	626	
15	0	0	0	0	510	625	
0	0	0	0	0	507	626	
1	0	0	0	0	504	625	
2	0	0	0	0	502	626	
3	0	0	0	0	499	627	
4	0	0	0	0	499	627	
5	0	0	0	0	497	628	
6	0	0	0	0	496	627	
7	0	0	0	0	496	627	
8	0	0	0	0	496	627	
9	0	0	0	0	495	627	
10	0	0	0	0	494	627	
11	0	0	0	0	493	626	
12	0	0	0	0	493	626	
13	0	0	0	0	492	625	
14	0	0	0	0	491	625	
15	0	0	0	0	492	625	
0	0	0	0	0	493	624	
1	0	0	0	0	495	623	
2	0	0	0	0	495	623	
3	0	0	0	0	495	622	
4	0	0	0	0	496	621	
5	0	0	0	0	497	620	
6	0	0	0	0	498	621	
7	0	0	0	0	499	620	
8	0	0	0	0	498	619	
9	0	0	0	0	497	617	
10	0	0	0	0	498	616	
11	0	0	0	0	498	615	
12	0	0	0	0	499	614	
13	0	0	0	0	499	613	
14	0	0	0	0	500	612	
15	0	0	0	0	500	611	
0	0	0	0	0	501	611	
1	0	0	0	0	501	610	
2	0	0	0	0	502	610	
3	0	0	0	0	502	610	
4	0	0	0	0	502	610	
5	0	0	0	0	502	610	
6	0	0	0	0	502	611	
7	0	0	0	0	501	610	
8	0	0	0	0	500	610	
9	0	0	0	0	499	611	
10	0	0	0	0	499	611	
11	0	0	0	0	499	610	
12	0	0	0	0	499	611	
13	0	0	0	0	499	612	
14	0	0	0	0	500	614	
15	0	0	0	0	501	613	
0	0	0	0	0	502	615	
1	0	0	0	0	502	615	
2	0	0	0	0	502	616	
3	0	0	0	0	501	617	
4	0	0	0	0	501	618	
5	0	0	0	0	501	619	
6	0	0	0	0	501	619	
7	0	0	0	0	502	620	
8	0	0	0	0	503	620	
9	0	0	0	0	503	620	
10	0	0	0	0	503	620	
11	0	0	0	0	504	622	
12	0	0	0	0	504	622	
13	0	0	0	0	504	623	
14	0	0	0	0	504	624	
15	0	0	0	0	503	624	
0	0	0	0	0	504	625	
1	0	0	0	0	504	625	
2	0	0	0	0	505	626	
3	0	0	0	0	504	627	
4	0	0	0	0	504	627	
5	0	0	0	0	504	627	
6	0	0	0	0	504	627	
7	0	0	0	0	504	628	
8	0	0	0	0	504	627	
9	0	0	0	0	504	628	
10	0	0	0	0	504	628	
11	0	0	0	0	505	627	
12	0	0	0	0	504	627	
13	0	0	0	0	504	627	
14	0	0	0	0	504	627	
15	0	0	0	0	504	626	
0	0	0	0	0	504	625	
1	0	0	0	0	503	625	
2	0	0	0	0	503	625	
3	0	0	0	0	503	624	
4	0	0	0	0	504	624	
5	0	0	0	0	504	623	
6	0	0	0	0	505	623	
7	0	0	0	0	506	622	
8	0	0	0	0	506	621	
9	0	0	0	0	506	621	
10	0	0	0	0	505	621	
11	0	0	0	0	505	620	
12	0	0	0	0	505	620	
13	0	0	0	0	505	620	
14	0	0	0	0	505	619	
15	0	0	0	0	504	619	
0	0	0	0	0	504	618	
1	0	0	0	0	505	618	
2	0	0	0	0	505	617	
3	0	0	0	0	505	617	
4	0	0	0	0	504	617	
5	0	0	0	0	503	617	
6	0	0	0	0	503	617	
7	0	0	0	0	502	616	
8	0	0	0	0	503	616	
9	0	0	0	0	504	616	
10	0	0	0	0	504	616	
11	0	0	0	0	505	616	
12	0	0	0	0	504	616	
13	0	0	0	0	505	616	
14	0	0	0	0	505	617	
15	0	0	0	0	505	616	
0	0	0	0	0	506	616	
1	0	0	0	0	508	617	
2	0	0	0	0	508	617	
3	0	0	0	0	508	617	
4	0	0	0	0	509	617	
5	0	0	0	0	508	618	
6	0	0	0	0	508	618	
7	0	0	0	0	507	618	
8	0	0	0	0	507	619	
9	0	0	0	0	507	618	
10	0	0	0	0	507	619	
11	0	0	0	0	507	619	
12	0	0	0	0	508	619	
13	0	0	0	0	508	619	
14	0	0	0	0	509	620	
15	0	0	0	0	509	619	
0	0	0	0	0	510	619	
1	0	0	0	0	510	619	
2	0	0	0	0	509	619	
3	0	0	0	0	509	619	
4	0	0	0	0	510	618	
5	0	0	0	0	509	618	
6	0	0	0	0	508	618	
7	0	0	0	0	509	619	
8	0	0	0	0	510	618	
9	0	0	0	0	511	618	
10	0	0	0	0	511	618	
11	0	0	0	0	510	618	
12	0	0	0	0	509	618	
13	0	0	0	0	509	618	
14	0	0	0	0	510	617	
15	0	0	0	0	510	618	
0	0	0	0	0	511	617	
1	0	0	0	0	512	617	
2	0	0	0	0	512	617	
3	0	0	0	0	513	618	
4	0	0	0	0	512	619	
5	0	0	0	0	512	619	
6	0	0	0	0	512	619	
7	0	0	0	0	512	619	
8	0	0	0	0	512	619	
9	0	0	0	0	512	619	
10	0	0	0	0	513	620	
11	0	0	0	0	515	620	
12	0	0	0	0	513	619	
13	0	0	0	0	512	620	
14	0	0	0	0	512	621	
15	0	0	0	0	511	621	
0	0	0	0	0	511	621	
1	0	0	0	0	511	621	
2	0	0	0	0	512	622	
3	0	0	0	0	513	622	
4	0	0	0	0	513	622	
5	0	0	0	0	513	623	
6	0	0	0	0	513	623	
7	0	0	0	0	514	624	
8	0	0	0	0	514	624	
9	0	0	0	0	514	624	
10	0	0	0	0	514	624	
11	0	0	0	0	513	625	
12	0	0	0	0	512	625	
13	0	0	0	0	511	625	
14	0	0	0	0	511	626	
15	0	0	0	0	510	626	
0	0	0	0	0	508	626	
1	0	0	0	0	506	627	
2	0	0	0	0	502	626	
3	0	0	0	0	497	626	
4	0	0	0	0	491	627	
5	0	0	0	0	484	627	
6	0	0	0	0	476	627	
7	0	0	0	0	467	627	
8	0	0	0	0	459	627	
9	0	0	0	0	451	627	
10	0	0	0	0	444	627	
11	0	0	0	0	438	628	
12	0	0	0	0	432	628	
13	0	0	0	0	429	628	
14	0	0	0	0	427	628	
15	0	0	0	0	427	628	
0	0	0	0	0	429	628	
1	0	0	0	0	430	628	
2	0	0	0	0	433	628	
3	0	0	0	0	438	628	
4	0	0	0	0	442	628	
5	0	0	0	0	446	628	
6	0	0	0	0	451	628	
7	0	0	0	0	457	628	
8	0	0	0	0	463	627	
9	0	0	0	0	469	628	
10	0	0	0	0	476	627	
11	0	0	0	0	485	627	
12	0	0	0	0	498	627	
13	0	0	0	0	515	626	
14	0	0	0	0	535	627	
15	0	0	0	0	556	626	
0	0	0	0	0	582	626	
1	0	0	0	0	611	627	
2	0	0	0	0	643	626	
3	0	0	0	0	678	626	
4	0	0	0	0	714	625	
5	0	0	0	0	746	625	
6	0	0	0	0	775	625	
7	0	0	0	0	799	625	
8	0	0	0	0	814	624	
9	0	0	0	0	826	625	
10	0	0	0	0	833	624	
11	0	0	0	0	834	624	
12	0	0	0	0	834	624	
13	0	0	0	0	833	624	
14	0	0	0	0	829	624	
15	0	0	0	0	824	624	
0	0	0	0	0	818	623	
1	0	0	0	0	810	623	
2	0	0	0	0	799	623	
3	0	0	0	0	786	623	
4	0	0	0	0	770	623	
5	0	0	0	0	751	623	
6	0	0	0	0	731	623	
7	0	0	0	0	713	623	
8	0	0	0	0	696	623	
9	0	0	0	0	679	622	
10	0	0	0	0	664	622	
11	0	0	0	0	651	623	
12	0	0	0	0	639	622	
13	0	0	0	0	627	622	
14	0	0	0	0	617	622	
15	0	0	0	0	608	622	
0	0	0	0	0	600	621	
1	0	0	0	0	591	621	
2	0	0	0	0	580	622	
3	0	0	0	0	571	621	
4	0	0	0	0	561	621	
5	0	0	0	0	552	621	
6	0	0	0	0	543	622	
7	0	0	0	0	531	622	
8	0	0	0	0	520	622	
9	0	0	0	0	510	621	
10	0	0	0	0	502	622	
11	0	0	0	0	494	622	
12	0	0	0	0	488	621	
13	0	0	0	0	481	621	
14	0	0	0	0	476	622	
15	0	0	0	0	469	621	
0	0	0	0	0	464	622	
1	0	0	0	0	460	622	
2	0	0	0	0	457	620	
3	0	0	0	0	454	620	
4	0	0	0	0	449	620	
5	0	0	0	0	444	620	
6	0	0	0	0	440	620	
7	0	0	0	0	436	618	
8	0	0	0	0	433	618	
9	0	0	0	0	430	619	
10	0	0	0	0	428	619	
11	0	0	0	0	425	618	
12	0	0	0	0	424	617	
13	0	0	0	0	423	618	
14	0	0	0	0	423	619	
15	0	0	0	0	423	618	
0	0	0	0	0	423	618	
1	0	0	0	0	423	618	
2	0	0	0	0	423	618	
3	0	0	0	0	425	619	
4	0	0	0	0	428	619	
5	0	0	0	0	431	618	
6	0	0	0	0	432	619	
7	0	0	0	0	432	619	
8	0	0	0	0	433	619	
9	0	0	0	0	433	619	
10	0	0	0	0	434	619	
11	0	0	0	0	435	619	
12	0	0	0	0	435	619	
13	0	0	0	0	434	619	
14	0	0	0	0	434	620	
15	0	0	0	0	435	619	
0	0	0	0	0	435	619	
1	0	0	0	0	436	621	
2	0	0	0	0	438	620	
3	0	0	0	0	438	620	
4	0	0	0	0	438	620	
5	0	0	0	0	437	621	
6	0	0	0	0	437	621	
7	0	0	0	0	436	622	
8	0	0	0	0	435	622	
9	0	0	0	0	434	622	
10	0	0	0	0	433	622	
11	0	0	0	0	433	622	
12	0	0	0	0	434	623	
13	0	0	0	0	434	623	
14	0	0	0	0	435	624	
15	0	0	0	0	435	624	
0	0	0	0	0	437	624	
1	0	0	0	0	439	624	
2	0	0	0	0	440	624	
3	0	0	0	0	442	625	
4	0	0	0	0	444	625	
5	0	0	0	0	446	626	
6	0	0	0	0	446	626	
7	0	0	0	0	447	626	
8	0	0	0	0	448	627	
9	0	0	0	0	449	627	
10	0	0	0	0	450	627	
11	0	0	0	0	451	627	
12	0	0	0	0	453	627	
13	0	0	0	0	455	628	
14	0	0	0	0	457	627	
15	0	0	0	0	459	627	
0	0	0	0	0	462	627	
1	0	0	0	0	465	627	
2	0	0	0	0	467	627	
3	0	0	0	0	467	627	
4	0	0	0	0	468	627	
5	0	0	0	0	468	627	
6	0	0	0	0	470	627	
7	0	0	0	0	469	627	
8	0	0	0	0	468	626	
9	0	0	0	0	466	627	
10	0	0	0	0	464	626	
11	0	0	0	0	463	626	
12	0	0	0	0	462	626	
13	0	0	0	0	461	625	
14	0	0	0	0	462	625	
15	0	0	0	0	462	625	
0	0	0	0	0	462	625	
1	0	0	0	0	462	625	
2	0	0	0	0	461	625	
3	0	0	0	0	462	625	
4	0	0	0	0	462	625	
5	0	0	0	0	463	625	
6	0	0	0	0	464	625	
7	0	0	0	0	465	625	
8	0	0	0	0	468	625	
9	0	0	0	0	471	624	
10	0	0	0	0	472	625	
11	0	0	0	0	473	625	
12	0	0	0	0	475	626	
13	0	0	0	0	476	626	
14	0	0	0	0	477	627	
15	0	0	0	0	477	628	
0	0	0	0	0	476	628	
1	0	0	0	0	475	629	
2	0	0	0	0	475	630	
3	0	0	0	0	473	631	
4	0	0	0	0	472	631	
5	0	0	0	0	469	630	
6	0	0	0	0	467	632	
7	0	0	0	0	465	631	
8	0	0	0	0	465	630	
9	0	0	0	0	465	630	
10	0	0	0	0	465	630	
11	0	0	0	0	464	630	
12	0	0	0	0	464	629	
13	0	0	0	0	464	629	
14	0	0	0	0	466	629	
15	0	0	0	0	467	627	
0	0	0	0	0	468	627	
1	0	0	0	0	467	626	
2	0	0	0	0	466	625	
3	0	0	0	0	465	625	
4	0	0	0	0	466	625	
5	0	0	0	0	465	624	
6	0	0	0	0	465	625	
7	0	0	0	0	466	624	
8	0	0	0	0	467	623	
9	0	0	0	0	467	623	
10	0	0	0	0	467	622	
11	0	0	0	0	468	621	
12	0	0	0	0	469	620	
13	0	0	0	0	470	621	
14	0	0	0	0	471	620	
15	0	0	0	0	471	618	
0	0	0	0	0	471	618	
1	0	0	0	0	472	617	
2	0	0	0	0	472	616	
3	0	0	0	0	473	615	
4	0	0	0	0	474	614	
5	0	0	0	0	474	614	
6	0	0	0	0	473	612	
7	0	0	0	0	470	612	
8	0	0	0	0	470	611	
9	0	0	0	0	469	611	
10	0	0	0	0	468	611	
11	0	0	0	0	468	610	
12	0	0	0	0	469	610	
13	0	0	0	0	470	610	
14	0	0	0	0	469	609	
15	0	0	0	0	469	609	
0	0	0	0	0	470	608	
1	0	0	0	0	472	608	
2	0	0	0	0	473	608	
3	0	0	0	0	475	609	
4	0	0	0	0	476	609	
5	0	0	0	0	478	609	
6	0	0	0	0	479	609	
7	0	0	0	0	480	609	
8	0	0	0	0	481	609	
9	0	0	0	0	483	610	
10	0	0	0	0	483	611	
11	0	0	0	0	483	611	
12	0	0	0	0	484	612	
13	0	0	0	0	486	613	
14	0	0	0	0	487	614	
15	0	0	0	0	488	614	
0	0	0	0	0	489	615	
1	0	0	0	0	491	615	
2	0	0	0	0	491	616	
3	0	0	0	0	492	617	
4	0	0	0	0	494	618	
5	0	0	0	0	496	618	
6	0	0	0	0	497	620	
7	0	0	0	0	499	620	
8	0	0	0	0	501	621	
9	0	0	0	0	502	622	
10	0	0	0	0	504	623	
11	0	0	0	0	504	623	
12	0	0	0	0	505	623	
13	0	0	0	0	506	623	
14	0	0	0	0	507	624	
15	0	0	0	0	509	624	
0	0	0	0	0	511	625	
1	0	0	0	0	511	625	
2	0	0	0	0	511	625	
3	0	0	0	0	511	626	
4	0	0	0	0	512	627	
5	0	0	0	0	513	627	
6	0	0	0	0	515	627	
7	0	0	0	0	517	627	
8	0	0	0	0	518	627	
9	0	0	0	0	520	627	
10	0	0	0	0	522	627	
11	0	0	0	0	523	627	
12	0	0	0	0	524	627	
13	0	0	0	0	525	626	
14	0	0	0	0	526	626	
15	0	0	0	0	526	626	
0	0	0	0	0	527	625	
1	0	0	0	0	527	625	
2	0	0	0	0	528	625	
3	0	0	0	0	529	624	
4	0	0	0	0	531	624	
5	0	0	0	0	531	624	
6	0	0	0	0	532	624	
7	0	0	0	0	532	623	
8	0	0	0	0	534	623	
9	0	0	0	0	534	623	
10	0	0	0	0	536	623	
11	0	0	0	0	536	623	
12	0	0	0	0	536	623	
13	0	0	0	0	535	623	
14	0	0	0	0	533	622	
15	0	0	0	0	533	623	
0	0	0	0	0	533	623	
1	0	0	0	0	534	623	
2	0	0	0	0	536	622	
3	0	0	0	0	535	622	
4	0	0	0	0	535	622	
5	0	0	0	0	533	622	
6	0	0	0	0	531	622	
7	0	0	0	0	529	622	
8	0	0	0	0	527	623	
9	0	0	0	0	526	622	
10	0	0	0	0	525	623	
11	0	0	0	0	525	623	
12	0	0	0	0	526	623	
13	0	0	0	0	526	623	
14	0	0	0	0	527	623	
15	0	0	0	0	527	622	
0	0	0	0	0	528	622	
1	0	0	0	0	529	623	
2	0	0	0	0	530	623	
3	0	0	0	0	531	623	
4	0	0	0	0	532	624	
5	0	0	0	0	534	623	
6	0	0	0	0	537	625	
7	0	0	0	0	538	624	
8	0	0	0	0	538	625	
9	0	0	0	0	538	625	
10	0	0	0	0	539	625	
11	0	0	0	0	539	626	
12	0	0	0	0	538	626	
13	0	0	0	0	538	627	
14	0	0	0	0	539	628	
15	0	0	0	0	538	628	
0	0	0	0	0	538	628	
1	0	0	0	0	537	628	
2	0	0	0	0	536	628	
3	0	0	0	0	536	628	
4	0	0	0	0	535	628	
5	0	0	0	0	534	627	
6	0	0	0	0	533	627	
7	0	0	0	0	533	627	
8	0	0	0	0	532	626	
9	0	0	0	0	532	626	
10	0	0	0	0	532	625	
11	0	0	0	0	531	625	
12	0	0	0	0	529	625	
13	0	0	0	0	528	625	
14	0	0	0	0	527	625	
15	0	0	0	0	525	624	
0	0	0	0	0	524	624	
1	0	0	0	0	522	623	
2	0	0	0	0	522	623	
3	0	0	0	0	520	622	
4	0	0	0	0	519	622	
5	0	0	0	0	518	622	
6	0	0	0	0	518	622	
7	0	0	0	0	516	621	
8	0	0	0	0	516	621	
9	0	0	0	0	516	620	
10	0	0	0	0	515	620	
11	0	0	0	0	516	620	
12	0	0	0	0	518	620	
13	0	0	0	0	520	620	
14	0	0	0	0	522	619	
15	0	0	0	0	523	619	
0	0	0	0	0	524	618	
1	0	0	0	0	525	618	
2	0	0	0	0	525	618	
3	0	0	0	0	526	617	
