# OpenSignals Text File Format. Version 1
# {"98:D3:91:FD:69:48": {"position": 0, "device": "bitalino_rev", "device name": "98:D3:91:FD:69:48", "device connection": "BTH98:D3:91:FD:69:48", "sampling rate": 1000, "resolution": [4, 1, 1, 1, 1, 10, 10], "firmware version": 1281, "comments": "", "keywords": "", "mode": 0, "sync interval": 2, "date": "2021-9-13", "time": "20:58:30.208", "channels": [2, 5], "sensor": ["RAW", "RAW"], "label": ["A2", "A5"], "column": ["nSeq", "I1", "I2", "O1", "O2", "A2", "A5"], "special": [{}, {}], "digital IO": [0, 0, 1, 1], "convertedValues": 0}}
# EndOfHeader
0	0	0	0	0	519	415	
1	0	0	0	0	519	410	
2	0	0	0	0	519	410	
3	0	0	0	0	519	410	
4	0	0	0	0	519	404	
5	0	0	0	0	520	410	
6	0	0	0	0	520	410	
7	0	0	0	0	520	410	
8	0	0	0	0	520	414	
9	0	0	0	0	520	410	
10	0	0	0	0	519	410	
11	0	0	0	0	519	411	
12	0	0	0	0	518	405	
13	0	0	0	0	518	410	
14	0	0	0	0	517	411	
15	0	0	0	0	516	411	
0	0	0	0	0	515	415	
1	0	0	0	0	514	410	
2	0	0	0	0	513	410	
3	0	0	0	0	513	410	
4	0	0	0	0	512	404	
5	0	0	0	0	512	410	
6	0	0	0	0	513	410	
7	0	0	0	0	514	409	
8	0	0	0	0	514	414	
9	0	0	0	0	514	409	
10	0	0	0	0	514	410	
11	0	0	0	0	515	409	
12	0	0	0	0	515	404	
13	0	0	0	0	516	409	
14	0	0	0	0	517	409	
15	0	0	0	0	517	409	
0	0	0	0	0	518	414	
1	0	0	0	0	518	409	
2	0	0	0	0	518	410	
3	0	0	0	0	518	409	
4	0	0	0	0	518	405	
5	0	0	0	0	518	411	
6	0	0	0	0	517	410	
7	0	0	0	0	516	411	
8	0	0	0	0	515	415	
9	0	0	0	0	515	410	
10	0	0	0	0	514	411	
11	0	0	0	0	514	410	
12	0	0	0	0	515	405	
13	0	0	0	0	514	411	
14	0	0	0	0	515	411	
15	0	0	0	0	515	411	
0	0	0	0	0	515	415	
1	0	0	0	0	516	410	
2	0	0	0	0	517	410	
3	0	0	0	0	517	410	
4	0	0	0	0	518	405	
5	0	0	0	0	518	411	
6	0	0	0	0	518	411	
7	0	0	0	0	518	410	
8	0	0	0	0	518	415	
9	0	0	0	0	518	411	
10	0	0	0	0	518	411	
11	0	0	0	0	518	411	
12	0	0	0	0	517	405	
13	0	0	0	0	516	410	
14	0	0	0	0	515	410	
15	0	0	0	0	515	411	
0	0	0	0	0	515	415	
1	0	0	0	0	516	409	
2	0	0	0	0	516	410	
3	0	0	0	0	516	410	
4	0	0	0	0	516	405	
5	0	0	0	0	516	410	
6	0	0	0	0	516	410	
7	0	0	0	0	516	411	
8	0	0	0	0	516	415	
9	0	0	0	0	516	411	
10	0	0	0	0	516	411	
11	0	0	0	0	515	410	
12	0	0	0	0	515	406	
13	0	0	0	0	515	410	
14	0	0	0	0	515	411	
15	0	0	0	0	514	412	
0	0	0	0	0	514	415	
1	0	0	0	0	514	411	
2	0	0	0	0	514	411	
3	0	0	0	0	513	410	
4	0	0	0	0	514	405	
5	0	0	0	0	513	409	
6	0	0	0	0	513	409	
7	0	0	0	0	513	410	
8	0	0	0	0	514	415	
9	0	0	0	0	515	410	
10	0	0	0	0	514	411	
11	0	0	0	0	514	410	
12	0	0	0	0	514	405	
13	0	0	0	0	513	410	
14	0	0	0	0	513	411	
15	0	0	0	0	514	411	
0	0	0	0	0	514	415	
1	0	0	0	0	514	410	
2	0	0	0	0	513	411	
3	0	0	0	0	514	411	
4	0	0	0	0	514	405	
5	0	0	0	0	514	411	
6	0	0	0	0	514	410	
7	0	0	0	0	515	411	
8	0	0	0	0	515	416	
9	0	0	0	0	515	411	
10	0	0	0	0	516	411	
11	0	0	0	0	516	411	
12	0	0	0	0	516	405	
13	0	0	0	0	516	411	
14	0	0	0	0	515	410	
15	0	0	0	0	515	411	
0	0	0	0	0	515	415	
1	0	0	0	0	515	410	
2	0	0	0	0	515	411	
3	0	0	0	0	514	410	
4	0	0	0	0	513	404	
5	0	0	0	0	513	409	
6	0	0	0	0	513	410	
7	0	0	0	0	513	410	
8	0	0	0	0	512	415	
9	0	0	0	0	512	410	
10	0	0	0	0	512	410	
11	0	0	0	0	511	410	
12	0	0	0	0	511	405	
13	0	0	0	0	510	411	
14	0	0	0	0	509	410	
15	0	0	0	0	508	411	
0	0	0	0	0	508	415	
1	0	0	0	0	509	410	
2	0	0	0	0	510	410	
3	0	0	0	0	510	410	
4	0	0	0	0	511	405	
5	0	0	0	0	511	410	
6	0	0	0	0	511	410	
7	0	0	0	0	510	411	
8	0	0	0	0	511	415	
9	0	0	0	0	511	411	
10	0	0	0	0	511	410	
11	0	0	0	0	511	410	
12	0	0	0	0	511	404	
13	0	0	0	0	511	411	
14	0	0	0	0	512	411	
15	0	0	0	0	511	410	
0	0	0	0	0	511	415	
1	0	0	0	0	510	411	
2	0	0	0	0	509	410	
3	0	0	0	0	509	410	
4	0	0	0	0	509	405	
5	0	0	0	0	509	410	
6	0	0	0	0	510	410	
7	0	0	0	0	510	411	
8	0	0	0	0	509	415	
9	0	0	0	0	509	411	
10	0	0	0	0	510	410	
11	0	0	0	0	509	410	
12	0	0	0	0	509	405	
13	0	0	0	0	508	410	
14	0	0	0	0	508	409	
15	0	0	0	0	508	410	
0	0	0	0	0	508	415	
1	0	0	0	0	508	410	
2	0	0	0	0	509	409	
3	0	0	0	0	509	409	
4	0	0	0	0	509	405	
5	0	0	0	0	510	411	
6	0	0	0	0	510	411	
7	0	0	0	0	511	410	
8	0	0	0	0	510	415	
9	0	0	0	0	511	411	
10	0	0	0	0	512	411	
11	0	0	0	0	512	411	
12	0	0	0	0	514	406	
13	0	0	0	0	514	412	
14	0	0	0	0	515	411	
15	0	0	0	0	516	412	
0	0	0	0	0	516	416	
1	0	0	0	0	516	412	
2	0	0	0	0	515	412	
3	0	0	0	0	515	412	
4	0	0	0	0	515	407	
5	0	0	0	0	516	412	
6	0	0	0	0	516	412	
7	0	0	0	0	517	412	
8	0	0	0	0	517	416	
9	0	0	0	0	517	412	
10	0	0	0	0	516	412	
11	0	0	0	0	516	412	
12	0	0	0	0	516	407	
13	0	0	0	0	517	412	
14	0	0	0	0	517	413	
15	0	0	0	0	517	413	
0	0	0	0	0	518	417	
1	0	0	0	0	518	413	
2	0	0	0	0	519	413	
3	0	0	0	0	519	412	
4	0	0	0	0	519	407	
5	0	0	0	0	519	412	
6	0	0	0	0	519	412	
7	0	0	0	0	519	412	
8	0	0	0	0	519	417	
9	0	0	0	0	519	412	
10	0	0	0	0	519	412	
11	0	0	0	0	518	412	
12	0	0	0	0	519	407	
13	0	0	0	0	518	412	
14	0	0	0	0	518	412	
15	0	0	0	0	517	412	
0	0	0	0	0	517	416	
1	0	0	0	0	517	412	
2	0	0	0	0	516	412	
3	0	0	0	0	515	412	
4	0	0	0	0	515	406	
5	0	0	0	0	514	412	
6	0	0	0	0	512	411	
7	0	0	0	0	511	412	
8	0	0	0	0	510	416	
9	0	0	0	0	510	411	
10	0	0	0	0	509	411	
11	0	0	0	0	509	411	
12	0	0	0	0	509	406	
13	0	0	0	0	510	411	
14	0	0	0	0	510	410	
15	0	0	0	0	510	412	
0	0	0	0	0	510	416	
1	0	0	0	0	510	411	
2	0	0	0	0	510	411	
3	0	0	0	0	510	411	
4	0	0	0	0	510	405	
5	0	0	0	0	511	411	
6	0	0	0	0	511	411	
7	0	0	0	0	511	411	
8	0	0	0	0	511	415	
9	0	0	0	0	512	411	
10	0	0	0	0	512	410	
11	0	0	0	0	512	411	
12	0	0	0	0	511	406	
13	0	0	0	0	511	411	
14	0	0	0	0	511	411	
15	0	0	0	0	511	411	
0	0	0	0	0	510	416	
1	0	0	0	0	510	411	
2	0	0	0	0	510	410	
3	0	0	0	0	509	411	
4	0	0	0	0	509	406	
5	0	0	0	0	508	411	
6	0	0	0	0	508	411	
7	0	0	0	0	509	410	
8	0	0	0	0	508	416	
9	0	0	0	0	508	411	
10	0	0	0	0	507	411	
11	0	0	0	0	508	412	
12	0	0	0	0	508	406	
13	0	0	0	0	507	411	
14	0	0	0	0	507	412	
15	0	0	0	0	507	412	
0	0	0	0	0	507	417	
1	0	0	0	0	507	412	
2	0	0	0	0	506	412	
3	0	0	0	0	505	412	
4	0	0	0	0	504	407	
5	0	0	0	0	504	412	
6	0	0	0	0	502	412	
7	0	0	0	0	499	412	
8	0	0	0	0	496	416	
9	0	0	0	0	492	412	
10	0	0	0	0	487	412	
11	0	0	0	0	483	412	
12	0	0	0	0	478	407	
13	0	0	0	0	472	412	
14	0	0	0	0	468	412	
15	0	0	0	0	465	412	
0	0	0	0	0	463	416	
1	0	0	0	0	460	412	
2	0	0	0	0	459	412	
3	0	0	0	0	457	411	
4	0	0	0	0	455	406	
5	0	0	0	0	453	411	
6	0	0	0	0	452	411	
7	0	0	0	0	451	412	
8	0	0	0	0	450	416	
9	0	0	0	0	450	412	
10	0	0	0	0	449	411	
11	0	0	0	0	448	411	
12	0	0	0	0	451	406	
13	0	0	0	0	456	411	
14	0	0	0	0	466	411	
15	0	0	0	0	481	412	
0	0	0	0	0	497	416	
1	0	0	0	0	512	411	
2	0	0	0	0	525	411	
3	0	0	0	0	538	411	
4	0	0	0	0	552	407	
5	0	0	0	0	565	411	
6	0	0	0	0	577	411	
7	0	0	0	0	590	411	
8	0	0	0	0	603	415	
9	0	0	0	0	619	410	
10	0	0	0	0	634	411	
11	0	0	0	0	649	410	
12	0	0	0	0	661	404	
13	0	0	0	0	670	410	
14	0	0	0	0	676	410	
15	0	0	0	0	679	410	
0	0	0	0	0	680	415	
1	0	0	0	0	681	409	
2	0	0	0	0	683	409	
3	0	0	0	0	686	409	
4	0	0	0	0	687	404	
5	0	0	0	0	686	409	
6	0	0	0	0	682	410	
7	0	0	0	0	675	409	
8	0	0	0	0	666	415	
9	0	0	0	0	657	410	
10	0	0	0	0	648	410	
11	0	0	0	0	642	410	
12	0	0	0	0	640	405	
13	0	0	0	0	639	411	
14	0	0	0	0	638	411	
15	0	0	0	0	636	411	
0	0	0	0	0	632	415	
1	0	0	0	0	627	411	
2	0	0	0	0	619	410	
3	0	0	0	0	611	410	
4	0	0	0	0	602	406	
5	0	0	0	0	593	411	
6	0	0	0	0	583	411	
7	0	0	0	0	575	412	
8	0	0	0	0	566	416	
9	0	0	0	0	557	412	
10	0	0	0	0	548	412	
11	0	0	0	0	541	411	
12	0	0	0	0	533	406	
13	0	0	0	0	526	412	
14	0	0	0	0	519	412	
15	0	0	0	0	512	412	
0	0	0	0	0	506	415	
1	0	0	0	0	501	412	
2	0	0	0	0	496	412	
3	0	0	0	0	492	411	
4	0	0	0	0	488	407	
5	0	0	0	0	485	412	
6	0	0	0	0	480	412	
7	0	0	0	0	477	411	
8	0	0	0	0	473	416	
9	0	0	0	0	470	411	
10	0	0	0	0	466	411	
11	0	0	0	0	463	411	
12	0	0	0	0	460	407	
13	0	0	0	0	458	412	
14	0	0	0	0	457	412	
15	0	0	0	0	456	412	
0	0	0	0	0	455	416	
1	0	0	0	0	455	412	
2	0	0	0	0	455	412	
3	0	0	0	0	454	412	
4	0	0	0	0	454	406	
5	0	0	0	0	453	411	
6	0	0	0	0	453	411	
7	0	0	0	0	453	411	
8	0	0	0	0	453	416	
9	0	0	0	0	453	411	
10	0	0	0	0	452	411	
11	0	0	0	0	452	411	
12	0	0	0	0	452	405	
13	0	0	0	0	452	411	
14	0	0	0	0	453	410	
15	0	0	0	0	453	410	
0	0	0	0	0	453	415	
1	0	0	0	0	453	411	
2	0	0	0	0	453	410	
3	0	0	0	0	454	410	
4	0	0	0	0	454	406	
5	0	0	0	0	455	411	
6	0	0	0	0	455	410	
7	0	0	0	0	455	410	
8	0	0	0	0	455	414	
9	0	0	0	0	456	410	
10	0	0	0	0	456	409	
11	0	0	0	0	456	409	
12	0	0	0	0	457	404	
13	0	0	0	0	457	409	
14	0	0	0	0	459	409	
15	0	0	0	0	459	410	
0	0	0	0	0	459	415	
1	0	0	0	0	459	410	
2	0	0	0	0	459	410	
3	0	0	0	0	460	410	
4	0	0	0	0	460	406	
5	0	0	0	0	461	411	
6	0	0	0	0	461	411	
7	0	0	0	0	461	411	
8	0	0	0	0	462	415	
9	0	0	0	0	462	411	
10	0	0	0	0	463	411	
11	0	0	0	0	463	411	
12	0	0	0	0	464	406	
13	0	0	0	0	464	412	
14	0	0	0	0	465	410	
15	0	0	0	0	465	412	
0	0	0	0	0	465	416	
1	0	0	0	0	466	411	
2	0	0	0	0	466	411	
3	0	0	0	0	465	411	
4	0	0	0	0	465	407	
5	0	0	0	0	465	412	
6	0	0	0	0	465	412	
7	0	0	0	0	465	412	
8	0	0	0	0	464	416	
9	0	0	0	0	465	412	
10	0	0	0	0	466	411	
11	0	0	0	0	466	411	
12	0	0	0	0	466	407	
13	0	0	0	0	467	411	
14	0	0	0	0	467	412	
15	0	0	0	0	467	411	
0	0	0	0	0	467	416	
1	0	0	0	0	468	411	
2	0	0	0	0	469	411	
3	0	0	0	0	469	412	
4	0	0	0	0	470	407	
5	0	0	0	0	471	412	
6	0	0	0	0	471	412	
7	0	0	0	0	471	412	
8	0	0	0	0	472	416	
9	0	0	0	0	472	412	
10	0	0	0	0	471	412	
11	0	0	0	0	472	411	
12	0	0	0	0	472	406	
13	0	0	0	0	472	412	
14	0	0	0	0	472	412	
15	0	0	0	0	473	412	
0	0	0	0	0	473	416	
1	0	0	0	0	474	411	
2	0	0	0	0	475	411	
3	0	0	0	0	475	411	
4	0	0	0	0	474	406	
5	0	0	0	0	474	411	
6	0	0	0	0	474	410	
7	0	0	0	0	474	411	
8	0	0	0	0	475	415	
9	0	0	0	0	475	411	
10	0	0	0	0	475	410	
11	0	0	0	0	475	410	
12	0	0	0	0	475	405	
13	0	0	0	0	475	411	
14	0	0	0	0	475	411	
15	0	0	0	0	474	411	
0	0	0	0	0	474	415	
1	0	0	0	0	474	411	
2	0	0	0	0	474	410	
3	0	0	0	0	473	410	
4	0	0	0	0	473	406	
5	0	0	0	0	473	411	
6	0	0	0	0	473	411	
7	0	0	0	0	473	412	
8	0	0	0	0	473	415	
9	0	0	0	0	474	411	
10	0	0	0	0	475	409	
11	0	0	0	0	475	410	
12	0	0	0	0	476	405	
13	0	0	0	0	476	411	
14	0	0	0	0	478	410	
15	0	0	0	0	478	411	
0	0	0	0	0	479	415	
1	0	0	0	0	480	410	
2	0	0	0	0	480	410	
3	0	0	0	0	480	409	
4	0	0	0	0	481	405	
5	0	0	0	0	481	410	
6	0	0	0	0	482	410	
7	0	0	0	0	481	410	
8	0	0	0	0	482	415	
9	0	0	0	0	482	410	
10	0	0	0	0	482	410	
11	0	0	0	0	482	410	
12	0	0	0	0	482	405	
13	0	0	0	0	482	410	
14	0	0	0	0	482	410	
15	0	0	0	0	482	410	
0	0	0	0	0	483	415	
1	0	0	0	0	483	411	
2	0	0	0	0	483	411	
3	0	0	0	0	484	411	
4	0	0	0	0	484	406	
5	0	0	0	0	485	411	
6	0	0	0	0	486	410	
7	0	0	0	0	487	410	
8	0	0	0	0	487	415	
9	0	0	0	0	488	411	
10	0	0	0	0	489	410	
11	0	0	0	0	490	410	
12	0	0	0	0	491	406	
13	0	0	0	0	491	411	
14	0	0	0	0	492	411	
15	0	0	0	0	492	411	
0	0	0	0	0	493	415	
1	0	0	0	0	494	411	
2	0	0	0	0	494	411	
3	0	0	0	0	495	411	
4	0	0	0	0	496	407	
5	0	0	0	0	496	411	
6	0	0	0	0	497	411	
7	0	0	0	0	498	411	
8	0	0	0	0	499	416	
9	0	0	0	0	499	411	
10	0	0	0	0	500	411	
11	0	0	0	0	501	411	
12	0	0	0	0	503	405	
13	0	0	0	0	505	411	
14	0	0	0	0	506	411	
15	0	0	0	0	508	410	
0	0	0	0	0	509	415	
1	0	0	0	0	511	409	
2	0	0	0	0	511	410	
3	0	0	0	0	512	409	
4	0	0	0	0	512	404	
5	0	0	0	0	513	410	
6	0	0	0	0	514	410	
7	0	0	0	0	515	410	
8	0	0	0	0	516	415	
9	0	0	0	0	517	410	
10	0	0	0	0	518	410	
11	0	0	0	0	519	409	
12	0	0	0	0	520	404	
13	0	0	0	0	521	410	
14	0	0	0	0	523	409	
15	0	0	0	0	524	411	
0	0	0	0	0	525	415	
1	0	0	0	0	526	411	
2	0	0	0	0	526	411	
3	0	0	0	0	526	411	
4	0	0	0	0	527	405	
5	0	0	0	0	528	411	
6	0	0	0	0	529	411	
7	0	0	0	0	529	412	
8	0	0	0	0	529	415	
9	0	0	0	0	530	411	
10	0	0	0	0	529	411	
11	0	0	0	0	529	411	
12	0	0	0	0	530	406	
13	0	0	0	0	531	411	
14	0	0	0	0	531	411	
15	0	0	0	0	531	411	
0	0	0	0	0	532	416	
1	0	0	0	0	532	411	
2	0	0	0	0	532	411	
3	0	0	0	0	532	411	
4	0	0	0	0	531	406	
5	0	0	0	0	531	411	
6	0	0	0	0	531	411	
7	0	0	0	0	530	411	
8	0	0	0	0	530	415	
9	0	0	0	0	530	411	
10	0	0	0	0	529	411	
11	0	0	0	0	529	411	
12	0	0	0	0	530	405	
13	0	0	0	0	529	411	
14	0	0	0	0	529	410	
15	0	0	0	0	528	411	
0	0	0	0	0	527	416	
1	0	0	0	0	527	411	
2	0	0	0	0	526	411	
3	0	0	0	0	525	411	
4	0	0	0	0	524	406	
5	0	0	0	0	523	411	
6	0	0	0	0	523	411	
7	0	0	0	0	522	411	
8	0	0	0	0	521	415	
9	0	0	0	0	522	411	
10	0	0	0	0	521	411	
11	0	0	0	0	521	410	
12	0	0	0	0	520	406	
13	0	0	0	0	519	410	
14	0	0	0	0	518	411	
15	0	0	0	0	517	411	
0	0	0	0	0	516	414	
1	0	0	0	0	516	410	
2	0	0	0	0	515	410	
3	0	0	0	0	515	410	
4	0	0	0	0	515	406	
5	0	0	0	0	515	411	
6	0	0	0	0	515	410	
7	0	0	0	0	514	411	
8	0	0	0	0	514	415	
9	0	0	0	0	514	409	
10	0	0	0	0	514	410	
11	0	0	0	0	515	409	
12	0	0	0	0	514	404	
13	0	0	0	0	514	410	
14	0	0	0	0	515	409	
15	0	0	0	0	514	410	
0	0	0	0	0	514	415	
1	0	0	0	0	514	410	
2	0	0	0	0	513	409	
3	0	0	0	0	513	410	
4	0	0	0	0	513	404	
5	0	0	0	0	513	409	
6	0	0	0	0	513	410	
7	0	0	0	0	513	410	
8	0	0	0	0	513	414	
9	0	0	0	0	513	409	
10	0	0	0	0	513	409	
11	0	0	0	0	513	409	
12	0	0	0	0	513	404	
13	0	0	0	0	513	410	
14	0	0	0	0	513	410	
15	0	0	0	0	512	410	
0	0	0	0	0	512	415	
1	0	0	0	0	512	411	
2	0	0	0	0	512	411	
3	0	0	0	0	512	411	
4	0	0	0	0	512	406	
5	0	0	0	0	511	410	
6	0	0	0	0	512	410	
7	0	0	0	0	512	411	
8	0	0	0	0	512	415	
9	0	0	0	0	512	411	
10	0	0	0	0	512	409	
11	0	0	0	0	512	411	
12	0	0	0	0	512	406	
13	0	0	0	0	512	411	
14	0	0	0	0	513	411	
15	0	0	0	0	513	411	
0	0	0	0	0	513	415	
1	0	0	0	0	513	411	
2	0	0	0	0	512	411	
3	0	0	0	0	513	410	
4	0	0	0	0	512	405	
5	0	0	0	0	513	410	
6	0	0	0	0	513	410	
7	0	0	0	0	513	410	
8	0	0	0	0	513	415	
9	0	0	0	0	512	411	
10	0	0	0	0	512	411	
11	0	0	0	0	512	410	
12	0	0	0	0	513	406	
13	0	0	0	0	513	411	
14	0	0	0	0	513	411	
15	0	0	0	0	512	411	
0	0	0	0	0	512	417	
1	0	0	0	0	512	412	
2	0	0	0	0	511	412	
3	0	0	0	0	511	411	
4	0	0	0	0	511	407	
5	0	0	0	0	512	412	
6	0	0	0	0	512	411	
7	0	0	0	0	511	411	
8	0	0	0	0	512	416	
9	0	0	0	0	512	411	
10	0	0	0	0	512	411	
11	0	0	0	0	511	412	
12	0	0	0	0	512	406	
13	0	0	0	0	512	412	
14	0	0	0	0	512	411	
15	0	0	0	0	512	411	
0	0	0	0	0	512	416	
1	0	0	0	0	511	411	
2	0	0	0	0	512	411	
3	0	0	0	0	512	411	
4	0	0	0	0	512	406	
5	0	0	0	0	512	411	
6	0	0	0	0	512	411	
7	0	0	0	0	512	411	
8	0	0	0	0	512	415	
9	0	0	0	0	512	411	
10	0	0	0	0	512	411	
11	0	0	0	0	512	410	
12	0	0	0	0	511	405	
13	0	0	0	0	511	411	
14	0	0	0	0	512	411	
15	0	0	0	0	512	411	
0	0	0	0	0	512	415	
1	0	0	0	0	512	410	
2	0	0	0	0	512	411	
3	0	0	0	0	511	411	
4	0	0	0	0	511	405	
5	0	0	0	0	511	411	
6	0	0	0	0	511	411	
7	0	0	0	0	512	411	
8	0	0	0	0	512	415	
9	0	0	0	0	512	411	
10	0	0	0	0	512	411	
11	0	0	0	0	512	410	
12	0	0	0	0	512	405	
13	0	0	0	0	512	411	
14	0	0	0	0	512	411	
15	0	0	0	0	512	411	
0	0	0	0	0	512	415	
1	0	0	0	0	513	411	
2	0	0	0	0	513	411	
3	0	0	0	0	513	410	
4	0	0	0	0	513	405	
5	0	0	0	0	513	409	
6	0	0	0	0	513	410	
7	0	0	0	0	514	411	
8	0	0	0	0	514	415	
9	0	0	0	0	515	411	
10	0	0	0	0	515	410	
11	0	0	0	0	515	410	
12	0	0	0	0	515	405	
13	0	0	0	0	515	411	
14	0	0	0	0	515	411	
15	0	0	0	0	515	411	
0	0	0	0	0	514	415	
1	0	0	0	0	514	411	
2	0	0	0	0	514	410	
3	0	0	0	0	514	411	
4	0	0	0	0	514	405	
5	0	0	0	0	514	411	
6	0	0	0	0	514	411	
7	0	0	0	0	514	411	
8	0	0	0	0	514	416	
9	0	0	0	0	514	411	
10	0	0	0	0	515	411	
11	0	0	0	0	515	411	
12	0	0	0	0	514	406	
13	0	0	0	0	515	411	
14	0	0	0	0	514	411	
15	0	0	0	0	514	411	
0	0	0	0	0	513	415	
1	0	0	0	0	514	411	
2	0	0	0	0	513	411	
3	0	0	0	0	514	410	
4	0	0	0	0	513	405	
5	0	0	0	0	513	410	
6	0	0	0	0	514	411	
7	0	0	0	0	514	411	
8	0	0	0	0	515	415	
9	0	0	0	0	516	411	
10	0	0	0	0	515	410	
11	0	0	0	0	515	410	
12	0	0	0	0	515	405	
13	0	0	0	0	515	411	
14	0	0	0	0	516	411	
15	0	0	0	0	516	411	
0	0	0	0	0	516	415	
1	0	0	0	0	516	410	
2	0	0	0	0	515	411	
3	0	0	0	0	515	410	
4	0	0	0	0	514	405	
5	0	0	0	0	515	411	
6	0	0	0	0	514	411	
7	0	0	0	0	514	411	
8	0	0	0	0	513	416	
9	0	0	0	0	513	410	
10	0	0	0	0	513	411	
11	0	0	0	0	513	410	
12	0	0	0	0	514	406	
13	0	0	0	0	514	411	
14	0	0	0	0	515	411	
15	0	0	0	0	515	411	
0	0	0	0	0	515	416	
1	0	0	0	0	515	410	
2	0	0	0	0	515	410	
3	0	0	0	0	515	411	
4	0	0	0	0	515	405	
5	0	0	0	0	515	411	
6	0	0	0	0	514	410	
7	0	0	0	0	514	411	
8	0	0	0	0	514	415	
9	0	0	0	0	514	410	
10	0	0	0	0	514	411	
11	0	0	0	0	513	410	
12	0	0	0	0	514	405	
13	0	0	0	0	514	411	
14	0	0	0	0	515	411	
15	0	0	0	0	515	410	
0	0	0	0	0	514	415	
1	0	0	0	0	515	410	
2	0	0	0	0	514	410	
3	0	0	0	0	513	410	
4	0	0	0	0	513	405	
5	0	0	0	0	513	410	
6	0	0	0	0	513	411	
7	0	0	0	0	513	411	
8	0	0	0	0	513	415	
9	0	0	0	0	513	411	
10	0	0	0	0	513	411	
11	0	0	0	0	513	411	
12	0	0	0	0	513	406	
13	0	0	0	0	512	411	
14	0	0	0	0	512	411	
15	0	0	0	0	512	412	
0	0	0	0	0	512	416	
1	0	0	0	0	513	412	
2	0	0	0	0	512	411	
3	0	0	0	0	512	410	
4	0	0	0	0	512	405	
5	0	0	0	0	512	411	
6	0	0	0	0	512	411	
7	0	0	0	0	512	410	
8	0	0	0	0	512	415	
9	0	0	0	0	512	410	
10	0	0	0	0	512	411	
11	0	0	0	0	513	410	
12	0	0	0	0	513	405	
13	0	0	0	0	513	411	
14	0	0	0	0	513	411	
15	0	0	0	0	513	411	
0	0	0	0	0	513	416	
1	0	0	0	0	513	411	
2	0	0	0	0	512	411	
3	0	0	0	0	512	410	
4	0	0	0	0	512	406	
5	0	0	0	0	512	411	
6	0	0	0	0	512	411	
7	0	0	0	0	511	411	
8	0	0	0	0	511	415	
9	0	0	0	0	511	411	
10	0	0	0	0	511	411	
11	0	0	0	0	512	411	
12	0	0	0	0	512	406	
13	0	0	0	0	513	411	
14	0	0	0	0	513	411	
15	0	0	0	0	514	411	
0	0	0	0	0	514	415	
1	0	0	0	0	514	410	
2	0	0	0	0	514	410	
3	0	0	0	0	514	411	
4	0	0	0	0	513	406	
5	0	0	0	0	513	410	
6	0	0	0	0	512	411	
7	0	0	0	0	512	411	
8	0	0	0	0	512	416	
9	0	0	0	0	511	411	
10	0	0	0	0	511	411	
11	0	0	0	0	510	411	
12	0	0	0	0	510	406	
13	0	0	0	0	509	411	
14	0	0	0	0	509	411	
15	0	0	0	0	509	411	
0	0	0	0	0	508	415	
1	0	0	0	0	509	410	
2	0	0	0	0	508	411	
3	0	0	0	0	508	411	
4	0	0	0	0	507	406	
5	0	0	0	0	506	411	
6	0	0	0	0	506	411	
7	0	0	0	0	506	411	
8	0	0	0	0	506	415	
9	0	0	0	0	506	411	
10	0	0	0	0	506	411	
11	0	0	0	0	506	410	
12	0	0	0	0	506	405	
13	0	0	0	0	506	411	
14	0	0	0	0	507	410	
15	0	0	0	0	507	411	
0	0	0	0	0	507	415	
1	0	0	0	0	508	410	
2	0	0	0	0	510	410	
3	0	0	0	0	509	410	
4	0	0	0	0	510	405	
5	0	0	0	0	510	411	
6	0	0	0	0	510	410	
7	0	0	0	0	510	411	
8	0	0	0	0	510	415	
9	0	0	0	0	511	410	
10	0	0	0	0	511	410	
11	0	0	0	0	512	410	
12	0	0	0	0	512	405	
13	0	0	0	0	512	410	
14	0	0	0	0	513	410	
15	0	0	0	0	513	410	
0	0	0	0	0	513	415	
1	0	0	0	0	514	410	
2	0	0	0	0	515	410	
3	0	0	0	0	515	411	
4	0	0	0	0	515	405	
5	0	0	0	0	515	411	
6	0	0	0	0	515	410	
7	0	0	0	0	516	410	
8	0	0	0	0	516	415	
9	0	0	0	0	517	411	
10	0	0	0	0	517	410	
11	0	0	0	0	516	410	
12	0	0	0	0	516	406	
13	0	0	0	0	516	411	
14	0	0	0	0	516	410	
15	0	0	0	0	517	410	
0	0	0	0	0	517	415	
1	0	0	0	0	517	410	
2	0	0	0	0	518	410	
3	0	0	0	0	517	410	
4	0	0	0	0	517	405	
5	0	0	0	0	517	411	
6	0	0	0	0	516	410	
7	0	0	0	0	516	411	
8	0	0	0	0	515	416	
9	0	0	0	0	515	411	
10	0	0	0	0	515	411	
11	0	0	0	0	515	411	
12	0	0	0	0	515	407	
13	0	0	0	0	515	411	
14	0	0	0	0	515	412	
15	0	0	0	0	513	411	
0	0	0	0	0	512	416	
1	0	0	0	0	512	411	
2	0	0	0	0	511	411	
3	0	0	0	0	511	411	
4	0	0	0	0	510	405	
5	0	0	0	0	510	411	
6	0	0	0	0	510	411	
7	0	0	0	0	510	411	
8	0	0	0	0	510	415	
9	0	0	0	0	510	410	
10	0	0	0	0	510	410	
11	0	0	0	0	510	410	
12	0	0	0	0	511	406	
13	0	0	0	0	511	411	
14	0	0	0	0	511	411	
15	0	0	0	0	511	412	
0	0	0	0	0	511	416	
1	0	0	0	0	511	411	
2	0	0	0	0	511	411	
3	0	0	0	0	512	411	
4	0	0	0	0	512	406	
5	0	0	0	0	512	411	
6	0	0	0	0	512	411	
7	0	0	0	0	512	412	
8	0	0	0	0	512	416	
9	0	0	0	0	511	412	
10	0	0	0	0	512	412	
11	0	0	0	0	511	412	
12	0	0	0	0	511	408	
13	0	0	0	0	511	413	
14	0	0	0	0	511	413	
15	0	0	0	0	511	412	
0	0	0	0	0	510	416	
1	0	0	0	0	510	412	
2	0	0	0	0	510	412	
3	0	0	0	0	510	412	
4	0	0	0	0	510	407	
5	0	0	0	0	510	412	
6	0	0	0	0	510	412	
7	0	0	0	0	511	412	
8	0	0	0	0	511	416	
9	0	0	0	0	512	412	
10	0	0	0	0	512	412	
11	0	0	0	0	512	412	
12	0	0	0	0	512	406	
13	0	0	0	0	511	411	
14	0	0	0	0	511	411	
15	0	0	0	0	511	411	
0	0	0	0	0	510	416	
1	0	0	0	0	510	411	
2	0	0	0	0	509	411	
3	0	0	0	0	508	411	
4	0	0	0	0	506	406	
5	0	0	0	0	504	412	
6	0	0	0	0	501	411	
7	0	0	0	0	497	412	
8	0	0	0	0	493	416	
9	0	0	0	0	488	412	
10	0	0	0	0	483	411	
11	0	0	0	0	478	412	
12	0	0	0	0	473	406	
13	0	0	0	0	469	412	
14	0	0	0	0	466	411	
15	0	0	0	0	463	412	
0	0	0	0	0	460	415	
1	0	0	0	0	458	411	
2	0	0	0	0	455	411	
3	0	0	0	0	452	411	
4	0	0	0	0	451	406	
5	0	0	0	0	449	412	
6	0	0	0	0	448	411	
7	0	0	0	0	445	411	
8	0	0	0	0	444	415	
9	0	0	0	0	444	411	
10	0	0	0	0	446	411	
11	0	0	0	0	452	411	
12	0	0	0	0	463	406	
13	0	0	0	0	479	410	
14	0	0	0	0	495	411	
15	0	0	0	0	511	411	
0	0	0	0	0	526	415	
1	0	0	0	0	541	410	
2	0	0	0	0	556	410	
3	0	0	0	0	571	410	
4	0	0	0	0	585	404	
5	0	0	0	0	599	410	
6	0	0	0	0	613	410	
7	0	0	0	0	630	410	
8	0	0	0	0	646	414	
9	0	0	0	0	662	410	
10	0	0	0	0	673	409	
11	0	0	0	0	683	410	
12	0	0	0	0	689	404	
13	0	0	0	0	694	409	
14	0	0	0	0	697	409	
15	0	0	0	0	702	410	
0	0	0	0	0	706	415	
1	0	0	0	0	708	409	
2	0	0	0	0	710	410	
3	0	0	0	0	709	410	
4	0	0	0	0	706	404	
5	0	0	0	0	698	409	
6	0	0	0	0	687	410	
7	0	0	0	0	677	410	
8	0	0	0	0	666	414	
9	0	0	0	0	657	409	
10	0	0	0	0	653	409	
11	0	0	0	0	652	409	
12	0	0	0	0	651	405	
13	0	0	0	0	648	409	
14	0	0	0	0	644	410	
15	0	0	0	0	638	410	
0	0	0	0	0	630	415	
1	0	0	0	0	621	409	
2	0	0	0	0	611	410	
3	0	0	0	0	602	410	
4	0	0	0	0	592	405	
5	0	0	0	0	583	410	
6	0	0	0	0	574	409	
7	0	0	0	0	564	410	
8	0	0	0	0	555	415	
9	0	0	0	0	546	410	
10	0	0	0	0	537	410	
11	0	0	0	0	529	410	
12	0	0	0	0	522	405	
13	0	0	0	0	515	410	
14	0	0	0	0	508	410	
15	0	0	0	0	502	411	
0	0	0	0	0	497	415	
1	0	0	0	0	493	411	
2	0	0	0	0	488	411	
3	0	0	0	0	485	411	
4	0	0	0	0	481	405	
5	0	0	0	0	478	411	
6	0	0	0	0	474	411	
7	0	0	0	0	471	411	
8	0	0	0	0	467	416	
9	0	0	0	0	464	411	
10	0	0	0	0	461	410	
11	0	0	0	0	459	411	
12	0	0	0	0	457	405	
13	0	0	0	0	456	411	
14	0	0	0	0	455	410	
15	0	0	0	0	455	412	
0	0	0	0	0	455	416	
1	0	0	0	0	454	411	
2	0	0	0	0	453	411	
3	0	0	0	0	452	410	
4	0	0	0	0	452	406	
5	0	0	0	0	452	411	
6	0	0	0	0	452	411	
7	0	0	0	0	452	411	
8	0	0	0	0	452	415	
9	0	0	0	0	453	411	
10	0	0	0	0	452	410	
11	0	0	0	0	452	410	
12	0	0	0	0	452	405	
13	0	0	0	0	452	410	
14	0	0	0	0	451	411	
15	0	0	0	0	452	411	
0	0	0	0	0	453	415	
1	0	0	0	0	453	410	
2	0	0	0	0	452	410	
3	0	0	0	0	452	411	
4	0	0	0	0	452	405	
5	0	0	0	0	453	411	
6	0	0	0	0	454	411	
7	0	0	0	0	455	411	
8	0	0	0	0	455	416	
9	0	0	0	0	457	411	
10	0	0	0	0	458	411	
11	0	0	0	0	459	411	
12	0	0	0	0	459	406	
13	0	0	0	0	460	411	
14	0	0	0	0	460	411	
15	0	0	0	0	461	411	
0	0	0	0	0	461	415	
1	0	0	0	0	461	411	
2	0	0	0	0	462	411	
3	0	0	0	0	461	411	
4	0	0	0	0	462	406	
5	0	0	0	0	461	411	
6	0	0	0	0	461	411	
7	0	0	0	0	461	412	
8	0	0	0	0	461	416	
9	0	0	0	0	461	412	
10	0	0	0	0	461	411	
11	0	0	0	0	461	411	
12	0	0	0	0	462	406	
13	0	0	0	0	462	411	
14	0	0	0	0	463	411	
15	0	0	0	0	463	411	
0	0	0	0	0	463	415	
1	0	0	0	0	464	411	
2	0	0	0	0	464	411	
3	0	0	0	0	464	411	
4	0	0	0	0	464	405	
5	0	0	0	0	465	411	
6	0	0	0	0	465	411	
7	0	0	0	0	466	411	
8	0	0	0	0	467	416	
9	0	0	0	0	467	411	
10	0	0	0	0	467	411	
11	0	0	0	0	467	411	
12	0	0	0	0	467	406	
13	0	0	0	0	468	411	
14	0	0	0	0	467	410	
15	0	0	0	0	467	410	
0	0	0	0	0	467	415	
1	0	0	0	0	468	410	
2	0	0	0	0	468	411	
3	0	0	0	0	468	409	
4	0	0	0	0	469	405	
5	0	0	0	0	469	411	
6	0	0	0	0	469	411	
7	0	0	0	0	471	410	
8	0	0	0	0	471	415	
9	0	0	0	0	471	410	
10	0	0	0	0	471	410	
11	0	0	0	0	471	411	
12	0	0	0	0	471	405	
13	0	0	0	0	472	410	
14	0	0	0	0	472	410	
15	0	0	0	0	472	411	
0	0	0	0	0	472	415	
1	0	0	0	0	473	411	
2	0	0	0	0	472	411	
3	0	0	0	0	472	411	
4	0	0	0	0	473	406	
5	0	0	0	0	473	411	
6	0	0	0	0	473	411	
7	0	0	0	0	474	411	
8	0	0	0	0	474	416	
9	0	0	0	0	475	411	
10	0	0	0	0	474	411	
11	0	0	0	0	473	411	
12	0	0	0	0	474	405	
13	0	0	0	0	473	411	
14	0	0	0	0	475	411	
15	0	0	0	0	475	411	
0	0	0	0	0	475	415	
1	0	0	0	0	476	411	
2	0	0	0	0	476	411	
3	0	0	0	0	477	411	
4	0	0	0	0	477	406	
5	0	0	0	0	478	411	
6	0	0	0	0	478	411	
7	0	0	0	0	478	410	
8	0	0	0	0	478	416	
9	0	0	0	0	478	411	
10	0	0	0	0	479	411	
11	0	0	0	0	479	411	
12	0	0	0	0	480	405	
13	0	0	0	0	480	411	
14	0	0	0	0	480	411	
15	0	0	0	0	480	411	
0	0	0	0	0	480	415	
1	0	0	0	0	480	411	
2	0	0	0	0	480	411	
3	0	0	0	0	481	411	
4	0	0	0	0	481	406	
5	0	0	0	0	481	411	
6	0	0	0	0	481	411	
7	0	0	0	0	481	412	
8	0	0	0	0	481	415	
9	0	0	0	0	482	411	
10	0	0	0	0	483	411	
11	0	0	0	0	483	410	
12	0	0	0	0	483	405	
13	0	0	0	0	483	410	
14	0	0	0	0	484	410	
15	0	0	0	0	484	410	
0	0	0	0	0	485	415	
1	0	0	0	0	486	410	
2	0	0	0	0	486	411	
3	0	0	0	0	487	411	
4	0	0	0	0	487	405	
5	0	0	0	0	488	410	
6	0	0	0	0	488	410	
7	0	0	0	0	489	411	
8	0	0	0	0	491	415	
9	0	0	0	0	492	411	
10	0	0	0	0	492	411	
11	0	0	0	0	493	412	
12	0	0	0	0	494	406	
13	0	0	0	0	494	410	
14	0	0	0	0	495	411	
15	0	0	0	0	495	411	
0	0	0	0	0	496	415	
1	0	0	0	0	497	411	
2	0	0	0	0	497	410	
3	0	0	0	0	498	410	
4	0	0	0	0	499	405	
5	0	0	0	0	499	412	
6	0	0	0	0	500	411	
7	0	0	0	0	502	411	
8	0	0	0	0	502	415	
9	0	0	0	0	504	410	
10	0	0	0	0	504	411	
11	0	0	0	0	506	410	
12	0	0	0	0	508	405	
13	0	0	0	0	510	411	
14	0	0	0	0	511	411	
15	0	0	0	0	511	410	
0	0	0	0	0	511	415	
1	0	0	0	0	511	410	
2	0	0	0	0	512	411	
3	0	0	0	0	512	410	
4	0	0	0	0	512	404	
5	0	0	0	0	512	410	
6	0	0	0	0	513	410	
7	0	0	0	0	514	410	
8	0	0	0	0	515	415	
9	0	0	0	0	517	409	
10	0	0	0	0	518	410	
11	0	0	0	0	519	409	
12	0	0	0	0	520	404	
13	0	0	0	0	521	410	
14	0	0	0	0	523	410	
15	0	0	0	0	523	410	
0	0	0	0	0	524	414	
1	0	0	0	0	524	410	
2	0	0	0	0	525	409	
3	0	0	0	0	526	410	
4	0	0	0	0	526	405	
5	0	0	0	0	526	410	
6	0	0	0	0	527	410	
7	0	0	0	0	527	410	
8	0	0	0	0	528	414	
9	0	0	0	0	529	410	
10	0	0	0	0	529	409	
11	0	0	0	0	531	409	
12	0	0	0	0	531	404	
13	0	0	0	0	531	410	
14	0	0	0	0	531	410	
15	0	0	0	0	531	411	
0	0	0	0	0	532	415	
1	0	0	0	0	531	411	
2	0	0	0	0	531	411	
3	0	0	0	0	531	411	
4	0	0	0	0	531	405	
5	0	0	0	0	531	410	
6	0	0	0	0	531	411	
7	0	0	0	0	529	411	
8	0	0	0	0	528	415	
9	0	0	0	0	528	410	
10	0	0	0	0	528	410	
11	0	0	0	0	528	411	
12	0	0	0	0	528	406	
13	0	0	0	0	527	411	
14	0	0	0	0	526	411	
15	0	0	0	0	526	412	
0	0	0	0	0	526	416	
1	0	0	0	0	526	411	
2	0	0	0	0	526	411	
3	0	0	0	0	526	411	
4	0	0	0	0	526	406	
5	0	0	0	0	525	411	
6	0	0	0	0	524	411	
7	0	0	0	0	523	412	
8	0	0	0	0	522	416	
9	0	0	0	0	522	412	
10	0	0	0	0	521	411	
11	0	0	0	0	521	412	
12	0	0	0	0	520	406	
13	0	0	0	0	520	412	
14	0	0	0	0	520	412	
15	0	0	0	0	520	412	
0	0	0	0	0	519	416	
1	0	0	0	0	519	412	
2	0	0	0	0	519	411	
3	0	0	0	0	520	411	
4	0	0	0	0	519	406	
5	0	0	0	0	519	411	
6	0	0	0	0	518	411	
7	0	0	0	0	518	411	
8	0	0	0	0	518	416	
9	0	0	0	0	518	411	
10	0	0	0	0	518	411	
11	0	0	0	0	518	411	
12	0	0	0	0	517	406	
13	0	0	0	0	517	411	
14	0	0	0	0	517	411	
15	0	0	0	0	517	412	
0	0	0	0	0	516	417	
1	0	0	0	0	516	411	
2	0	0	0	0	515	412	
3	0	0	0	0	515	411	
4	0	0	0	0	515	407	
5	0	0	0	0	515	411	
6	0	0	0	0	515	411	
7	0	0	0	0	515	412	
8	0	0	0	0	515	416	
9	0	0	0	0	515	411	
10	0	0	0	0	515	411	
11	0	0	0	0	515	411	
12	0	0	0	0	515	405	
13	0	0	0	0	515	411	
14	0	0	0	0	515	411	
15	0	0	0	0	515	411	
0	0	0	0	0	515	415	
1	0	0	0	0	516	410	
2	0	0	0	0	516	410	
3	0	0	0	0	516	410	
4	0	0	0	0	516	405	
5	0	0	0	0	515	410	
6	0	0	0	0	515	411	
7	0	0	0	0	514	411	
8	0	0	0	0	515	415	
9	0	0	0	0	515	410	
10	0	0	0	0	515	410	
11	0	0	0	0	515	411	
12	0	0	0	0	515	406	
13	0	0	0	0	515	411	
14	0	0	0	0	515	411	
15	0	0	0	0	515	411	
0	0	0	0	0	515	415	
1	0	0	0	0	515	411	
2	0	0	0	0	515	411	
3	0	0	0	0	514	411	
4	0	0	0	0	514	406	
5	0	0	0	0	515	411	
6	0	0	0	0	515	410	
7	0	0	0	0	514	411	
8	0	0	0	0	513	415	
9	0	0	0	0	513	411	
10	0	0	0	0	512	411	
11	0	0	0	0	512	409	
12	0	0	0	0	513	405	
13	0	0	0	0	512	410	
14	0	0	0	0	513	410	
15	0	0	0	0	512	410	
0	0	0	0	0	512	415	
1	0	0	0	0	512	410	
2	0	0	0	0	512	410	
3	0	0	0	0	512	411	
4	0	0	0	0	512	405	
5	0	0	0	0	512	411	
6	0	0	0	0	513	411	
7	0	0	0	0	513	411	
8	0	0	0	0	513	415	
9	0	0	0	0	514	410	
10	0	0	0	0	514	411	
11	0	0	0	0	514	411	
12	0	0	0	0	513	405	
13	0	0	0	0	513	411	
14	0	0	0	0	513	410	
15	0	0	0	0	513	410	
0	0	0	0	0	514	415	
1	0	0	0	0	515	411	
2	0	0	0	0	514	410	
3	0	0	0	0	514	410	
4	0	0	0	0	514	406	
5	0	0	0	0	514	411	
6	0	0	0	0	514	411	
7	0	0	0	0	514	412	
8	0	0	0	0	514	416	
9	0	0	0	0	514	411	
10	0	0	0	0	514	411	
11	0	0	0	0	515	411	
12	0	0	0	0	515	406	
13	0	0	0	0	515	410	
14	0	0	0	0	515	411	
15	0	0	0	0	515	411	
0	0	0	0	0	515	415	
1	0	0	0	0	515	411	
2	0	0	0	0	515	411	
3	0	0	0	0	514	411	
4	0	0	0	0	514	406	
5	0	0	0	0	515	410	
6	0	0	0	0	514	411	
7	0	0	0	0	514	411	
8	0	0	0	0	514	415	
9	0	0	0	0	514	411	
10	0	0	0	0	514	410	
11	0	0	0	0	513	410	
12	0	0	0	0	513	406	
13	0	0	0	0	513	411	
14	0	0	0	0	513	411	
15	0	0	0	0	513	411	
0	0	0	0	0	512	415	
1	0	0	0	0	513	411	
2	0	0	0	0	512	410	
3	0	0	0	0	512	410	
4	0	0	0	0	512	405	
5	0	0	0	0	512	411	
6	0	0	0	0	513	411	
7	0	0	0	0	513	411	
8	0	0	0	0	513	416	
9	0	0	0	0	513	410	
10	0	0	0	0	513	411	
11	0	0	0	0	513	410	
12	0	0	0	0	514	406	
13	0	0	0	0	514	411	
14	0	0	0	0	514	410	
15	0	0	0	0	514	411	
0	0	0	0	0	515	415	
1	0	0	0	0	514	410	
2	0	0	0	0	514	410	
3	0	0	0	0	513	411	
4	0	0	0	0	514	405	
5	0	0	0	0	514	410	
6	0	0	0	0	514	410	
7	0	0	0	0	513	411	
8	0	0	0	0	514	415	
9	0	0	0	0	514	411	
10	0	0	0	0	514	411	
11	0	0	0	0	515	411	
12	0	0	0	0	515	406	
13	0	0	0	0	515	411	
14	0	0	0	0	515	411	
15	0	0	0	0	515	410	
0	0	0	0	0	515	415	
1	0	0	0	0	516	411	
2	0	0	0	0	515	410	
3	0	0	0	0	515	410	
4	0	0	0	0	515	405	
5	0	0	0	0	514	410	
6	0	0	0	0	515	411	
7	0	0	0	0	515	411	
8	0	0	0	0	515	416	
9	0	0	0	0	516	411	
10	0	0	0	0	516	411	
11	0	0	0	0	515	411	
12	0	0	0	0	515	406	
13	0	0	0	0	515	411	
14	0	0	0	0	514	411	
15	0	0	0	0	513	411	
0	0	0	0	0	514	415	
1	0	0	0	0	514	411	
2	0	0	0	0	514	411	
3	0	0	0	0	514	410	
4	0	0	0	0	513	405	
5	0	0	0	0	513	411	
6	0	0	0	0	513	411	
7	0	0	0	0	512	412	
8	0	0	0	0	512	415	
9	0	0	0	0	512	410	
10	0	0	0	0	511	410	
11	0	0	0	0	511	411	
12	0	0	0	0	511	405	
13	0	0	0	0	511	410	
14	0	0	0	0	512	410	
15	0	0	0	0	511	411	
0	0	0	0	0	512	415	
1	0	0	0	0	511	410	
2	0	0	0	0	511	410	
3	0	0	0	0	511	411	
4	0	0	0	0	511	405	
5	0	0	0	0	511	411	
6	0	0	0	0	510	411	
7	0	0	0	0	510	411	
8	0	0	0	0	511	415	
9	0	0	0	0	511	411	
10	0	0	0	0	512	411	
11	0	0	0	0	512	411	
12	0	0	0	0	512	406	
13	0	0	0	0	512	411	
14	0	0	0	0	512	411	
15	0	0	0	0	512	412	
0	0	0	0	0	511	416	
1	0	0	0	0	511	411	
2	0	0	0	0	510	411	
3	0	0	0	0	510	411	
4	0	0	0	0	511	405	
5	0	0	0	0	510	411	
6	0	0	0	0	510	411	
7	0	0	0	0	510	411	
8	0	0	0	0	510	416	
9	0	0	0	0	510	411	
10	0	0	0	0	510	411	
11	0	0	0	0	510	410	
12	0	0	0	0	509	405	
13	0	0	0	0	509	411	
14	0	0	0	0	508	410	
15	0	0	0	0	507	411	
0	0	0	0	0	507	415	
1	0	0	0	0	507	410	
2	0	0	0	0	507	410	
3	0	0	0	0	506	410	
4	0	0	0	0	506	405	
5	0	0	0	0	506	410	
6	0	0	0	0	505	410	
7	0	0	0	0	506	411	
8	0	0	0	0	506	415	
9	0	0	0	0	506	410	
10	0	0	0	0	506	410	
11	0	0	0	0	506	409	
12	0	0	0	0	506	405	
13	0	0	0	0	507	410	
14	0	0	0	0	507	411	
15	0	0	0	0	506	410	
0	0	0	0	0	505	415	
1	0	0	0	0	505	411	
2	0	0	0	0	505	411	
3	0	0	0	0	505	410	
4	0	0	0	0	505	405	
5	0	0	0	0	505	410	
6	0	0	0	0	504	411	
7	0	0	0	0	505	411	
8	0	0	0	0	506	415	
9	0	0	0	0	507	410	
10	0	0	0	0	508	411	
11	0	0	0	0	508	411	
12	0	0	0	0	508	405	
13	0	0	0	0	509	410	
14	0	0	0	0	509	410	
15	0	0	0	0	510	410	
0	0	0	0	0	510	415	
1	0	0	0	0	510	411	
2	0	0	0	0	511	410	
3	0	0	0	0	512	410	
4	0	0	0	0	511	405	
5	0	0	0	0	511	410	
6	0	0	0	0	512	411	
7	0	0	0	0	512	411	
8	0	0	0	0	512	415	
9	0	0	0	0	512	411	
10	0	0	0	0	512	412	
11	0	0	0	0	511	411	
12	0	0	0	0	512	406	
13	0	0	0	0	512	411	
14	0	0	0	0	512	411	
15	0	0	0	0	513	411	
0	0	0	0	0	513	415	
1	0	0	0	0	514	411	
2	0	0	0	0	514	411	
3	0	0	0	0	514	410	
4	0	0	0	0	515	406	
5	0	0	0	0	514	411	
6	0	0	0	0	514	411	
7	0	0	0	0	514	410	
8	0	0	0	0	514	415	
9	0	0	0	0	514	411	
10	0	0	0	0	515	410	
11	0	0	0	0	515	410	
12	0	0	0	0	515	406	
13	0	0	0	0	515	411	
14	0	0	0	0	514	411	
15	0	0	0	0	514	411	
0	0	0	0	0	514	415	
1	0	0	0	0	514	411	
2	0	0	0	0	513	410	
3	0	0	0	0	514	411	
4	0	0	0	0	513	406	
5	0	0	0	0	513	411	
6	0	0	0	0	513	411	
7	0	0	0	0	513	411	
8	0	0	0	0	513	416	
9	0	0	0	0	514	411	
10	0	0	0	0	514	411	
11	0	0	0	0	514	411	
12	0	0	0	0	513	405	
13	0	0	0	0	512	411	
14	0	0	0	0	512	411	
15	0	0	0	0	511	411	
0	0	0	0	0	511	416	
1	0	0	0	0	511	411	
2	0	0	0	0	512	411	
3	0	0	0	0	512	411	
4	0	0	0	0	512	406	
5	0	0	0	0	512	412	
6	0	0	0	0	512	411	
7	0	0	0	0	512	412	
8	0	0	0	0	512	415	
9	0	0	0	0	513	411	
10	0	0	0	0	512	411	
11	0	0	0	0	512	411	
12	0	0	0	0	513	406	
13	0	0	0	0	513	411	
14	0	0	0	0	512	411	
15	0	0	0	0	512	411	
0	0	0	0	0	512	415	
1	0	0	0	0	512	411	
2	0	0	0	0	512	411	
3	0	0	0	0	512	411	
4	0	0	0	0	511	405	
5	0	0	0	0	511	411	
6	0	0	0	0	511	410	
7	0	0	0	0	510	410	
8	0	0	0	0	510	415	
9	0	0	0	0	510	410	
10	0	0	0	0	511	411	
11	0	0	0	0	511	410	
12	0	0	0	0	512	405	
13	0	0	0	0	511	410	
14	0	0	0	0	511	411	
15	0	0	0	0	510	410	
0	0	0	0	0	511	415	
1	0	0	0	0	510	410	
2	0	0	0	0	510	411	
3	0	0	0	0	510	411	
4	0	0	0	0	511	406	
5	0	0	0	0	511	411	
6	0	0	0	0	512	411	
7	0	0	0	0	512	411	
8	0	0	0	0	513	416	
9	0	0	0	0	513	410	
10	0	0	0	0	513	411	
11	0	0	0	0	512	410	
12	0	0	0	0	512	405	
13	0	0	0	0	512	410	
14	0	0	0	0	511	411	
15	0	0	0	0	510	411	
0	0	0	0	0	508	415	
1	0	0	0	0	505	410	
2	0	0	0	0	502	410	
3	0	0	0	0	497	410	
4	0	0	0	0	493	405	
5	0	0	0	0	488	410	
6	0	0	0	0	483	411	
7	0	0	0	0	478	410	
8	0	0	0	0	474	414	
9	0	0	0	0	471	410	
10	0	0	0	0	467	410	
11	0	0	0	0	464	409	
12	0	0	0	0	461	406	
13	0	0	0	0	458	410	
14	0	0	0	0	455	411	
15	0	0	0	0	452	411	
0	0	0	0	0	450	415	
1	0	0	0	0	448	410	
2	0	0	0	0	446	410	
3	0	0	0	0	444	411	
4	0	0	0	0	444	406	
5	0	0	0	0	446	410	
6	0	0	0	0	451	410	
7	0	0	0	0	460	410	
8	0	0	0	0	475	415	
9	0	0	0	0	491	411	
10	0	0	0	0	506	410	
11	0	0	0	0	520	410	
12	0	0	0	0	535	406	
13	0	0	0	0	550	410	
14	0	0	0	0	566	410	
15	0	0	0	0	580	411	
0	0	0	0	0	596	415	
1	0	0	0	0	612	410	
2	0	0	0	0	629	411	
3	0	0	0	0	645	411	
4	0	0	0	0	662	406	
5	0	0	0	0	677	411	
6	0	0	0	0	689	411	
7	0	0	0	0	698	411	
8	0	0	0	0	706	415	
9	0	0	0	0	712	410	
10	0	0	0	0	718	410	
11	0	0	0	0	723	410	
12	0	0	0	0	727	405	
13	0	0	0	0	727	411	
14	0	0	0	0	727	410	
15	0	0	0	0	725	411	
0	0	0	0	0	720	415	
1	0	0	0	0	710	410	
2	0	0	0	0	699	410	
3	0	0	0	0	688	410	
4	0	0	0	0	678	405	
5	0	0	0	0	672	410	
6	0	0	0	0	669	410	
7	0	0	0	0	664	411	
8	0	0	0	0	661	415	
9	0	0	0	0	655	411	
10	0	0	0	0	648	410	
11	0	0	0	0	639	410	
12	0	0	0	0	629	405	
13	0	0	0	0	618	411	
14	0	0	0	0	608	411	
15	0	0	0	0	597	411	
0	0	0	0	0	587	416	
1	0	0	0	0	575	410	
2	0	0	0	0	564	412	
3	0	0	0	0	554	410	
4	0	0	0	0	545	405	
5	0	0	0	0	536	411	
6	0	0	0	0	527	411	
7	0	0	0	0	519	411	
8	0	0	0	0	512	416	
9	0	0	0	0	506	411	
10	0	0	0	0	500	411	
11	0	0	0	0	494	411	
12	0	0	0	0	489	405	
13	0	0	0	0	485	411	
14	0	0	0	0	481	410	
15	0	0	0	0	478	411	
0	0	0	0	0	472	415	
1	0	0	0	0	468	411	
2	0	0	0	0	465	411	
3	0	0	0	0	461	410	
4	0	0	0	0	459	405	
5	0	0	0	0	457	410	
6	0	0	0	0	455	409	
7	0	0	0	0	454	410	
8	0	0	0	0	452	414	
9	0	0	0	0	451	411	
10	0	0	0	0	450	410	
11	0	0	0	0	450	410	
12	0	0	0	0	450	405	
13	0	0	0	0	448	410	
14	0	0	0	0	448	410	
15	0	0	0	0	448	411	
0	0	0	0	0	447	415	
1	0	0	0	0	447	411	
2	0	0	0	0	447	411	
3	0	0	0	0	447	411	
4	0	0	0	0	448	405	
5	0	0	0	0	448	411	
6	0	0	0	0	448	410	
7	0	0	0	0	448	410	
8	0	0	0	0	448	415	
9	0	0	0	0	448	411	
10	0	0	0	0	448	411	
11	0	0	0	0	448	411	
12	0	0	0	0	448	405	
13	0	0	0	0	448	411	
14	0	0	0	0	449	411	
15	0	0	0	0	450	412	
0	0	0	0	0	450	416	
1	0	0	0	0	451	411	
2	0	0	0	0	451	412	
3	0	0	0	0	451	411	
4	0	0	0	0	452	406	
5	0	0	0	0	452	411	
6	0	0	0	0	453	412	
7	0	0	0	0	454	411	
8	0	0	0	0	454	416	
9	0	0	0	0	454	411	
10	0	0	0	0	455	411	
11	0	0	0	0	455	410	
12	0	0	0	0	456	405	
13	0	0	0	0	456	411	
14	0	0	0	0	457	410	
15	0	0	0	0	457	412	
0	0	0	0	0	457	415	
1	0	0	0	0	458	411	
2	0	0	0	0	459	411	
3	0	0	0	0	458	411	
4	0	0	0	0	459	405	
5	0	0	0	0	459	410	
6	0	0	0	0	460	411	
7	0	0	0	0	460	411	
8	0	0	0	0	460	415	
9	0	0	0	0	460	411	
10	0	0	0	0	461	411	
11	0	0	0	0	462	411	
12	0	0	0	0	462	406	
13	0	0	0	0	462	411	
14	0	0	0	0	463	411	
15	0	0	0	0	464	411	
0	0	0	0	0	464	415	
1	0	0	0	0	464	411	
2	0	0	0	0	464	410	
3	0	0	0	0	465	410	
4	0	0	0	0	465	406	
5	0	0	0	0	466	411	
6	0	0	0	0	466	411	
7	0	0	0	0	466	410	
8	0	0	0	0	467	415	
9	0	0	0	0	467	410	
10	0	0	0	0	467	411	
11	0	0	0	0	467	411	
12	0	0	0	0	468	406	
13	0	0	0	0	469	410	
14	0	0	0	0	469	411	
15	0	0	0	0	468	411	
0	0	0	0	0	468	415	
1	0	0	0	0	469	410	
2	0	0	0	0	468	410	
3	0	0	0	0	469	410	
4	0	0	0	0	469	405	
5	0	0	0	0	469	409	
6	0	0	0	0	469	409	
7	0	0	0	0	469	410	
8	0	0	0	0	471	415	
9	0	0	0	0	472	411	
10	0	0	0	0	471	411	
11	0	0	0	0	471	410	
12	0	0	0	0	471	406	
13	0	0	0	0	470	410	
14	0	0	0	0	470	411	
15	0	0	0	0	470	411	
0	0	0	0	0	471	415	
1	0	0	0	0	472	411	
2	0	0	0	0	472	411	
3	0	0	0	0	471	410	
4	0	0	0	0	471	405	
5	0	0	0	0	471	410	
6	0	0	0	0	472	411	
7	0	0	0	0	472	411	
8	0	0	0	0	472	416	
9	0	0	0	0	473	410	
10	0	0	0	0	474	411	
11	0	0	0	0	475	410	
12	0	0	0	0	474	405	
13	0	0	0	0	474	411	
14	0	0	0	0	474	410	
15	0	0	0	0	473	411	
0	0	0	0	0	473	415	
1	0	0	0	0	473	411	
2	0	0	0	0	474	411	
3	0	0	0	0	474	411	
4	0	0	0	0	474	405	
5	0	0	0	0	474	411	
6	0	0	0	0	474	410	
7	0	0	0	0	474	411	
8	0	0	0	0	475	415	
9	0	0	0	0	475	410	
10	0	0	0	0	476	410	
11	0	0	0	0	475	410	
12	0	0	0	0	475	405	
13	0	0	0	0	475	410	
14	0	0	0	0	476	410	
15	0	0	0	0	476	410	
0	0	0	0	0	478	415	
1	0	0	0	0	478	411	
2	0	0	0	0	477	409	
3	0	0	0	0	478	410	
4	0	0	0	0	478	405	
5	0	0	0	0	479	411	
6	0	0	0	0	479	410	
7	0	0	0	0	479	410	
8	0	0	0	0	479	415	
9	0	0	0	0	480	411	
10	0	0	0	0	480	411	
11	0	0	0	0	481	411	
12	0	0	0	0	480	406	
13	0	0	0	0	480	410	
14	0	0	0	0	480	411	
15	0	0	0	0	480	411	
0	0	0	0	0	481	416	
1	0	0	0	0	482	412	
2	0	0	0	0	482	411	
3	0	0	0	0	482	411	
4	0	0	0	0	483	406	
5	0	0	0	0	484	411	
6	0	0	0	0	486	411	
7	0	0	0	0	487	411	
8	0	0	0	0	488	415	
9	0	0	0	0	489	411	
10	0	0	0	0	490	411	
11	0	0	0	0	491	410	
12	0	0	0	0	491	406	
13	0	0	0	0	492	411	
14	0	0	0	0	493	411	
15	0	0	0	0	494	412	
0	0	0	0	0	495	416	
1	0	0	0	0	495	411	
2	0	0	0	0	496	410	
3	0	0	0	0	497	410	
4	0	0	0	0	497	406	
5	0	0	0	0	497	411	
6	0	0	0	0	498	411	
7	0	0	0	0	499	412	
8	0	0	0	0	500	416	
9	0	0	0	0	502	411	
10	0	0	0	0	503	411	
11	0	0	0	0	504	410	
12	0	0	0	0	505	406	
13	0	0	0	0	506	410	
14	0	0	0	0	507	411	
15	0	0	0	0	508	411	
0	0	0	0	0	509	415	
1	0	0	0	0	509	411	
2	0	0	0	0	509	410	
3	0	0	0	0	510	410	
4	0	0	0	0	512	404	
5	0	0	0	0	512	410	
6	0	0	0	0	512	410	
7	0	0	0	0	514	410	
8	0	0	0	0	515	415	
9	0	0	0	0	516	410	
10	0	0	0	0	516	411	
11	0	0	0	0	518	411	
12	0	0	0	0	519	405	
13	0	0	0	0	520	411	
14	0	0	0	0	520	411	
15	0	0	0	0	521	411	
0	0	0	0	0	523	416	
1	0	0	0	0	524	411	
2	0	0	0	0	525	411	
3	0	0	0	0	526	410	
4	0	0	0	0	526	406	
5	0	0	0	0	527	410	
6	0	0	0	0	528	410	
7	0	0	0	0	528	412	
8	0	0	0	0	529	416	
9	0	0	0	0	530	411	
10	0	0	0	0	530	411	
11	0	0	0	0	530	411	
12	0	0	0	0	530	406	
13	0	0	0	0	531	412	
14	0	0	0	0	530	411	
15	0	0	0	0	530	411	
0	0	0	0	0	530	416	
1	0	0	0	0	530	411	
2	0	0	0	0	530	411	
3	0	0	0	0	530	410	
4	0	0	0	0	530	406	
5	0	0	0	0	529	410	
6	0	0	0	0	529	411	
7	0	0	0	0	528	411	
8	0	0	0	0	527	415	
9	0	0	0	0	527	411	
10	0	0	0	0	527	410	
11	0	0	0	0	527	410	
12	0	0	0	0	526	405	
13	0	0	0	0	526	411	
14	0	0	0	0	525	411	
15	0	0	0	0	524	411	
0	0	0	0	0	524	416	
1	0	0	0	0	523	411	
2	0	0	0	0	523	410	
3	0	0	0	0	523	410	
4	0	0	0	0	524	406	
5	0	0	0	0	523	411	
6	0	0	0	0	523	411	
7	0	0	0	0	523	411	
8	0	0	0	0	523	415	
9	0	0	0	0	523	411	
10	0	0	0	0	523	411	
11	0	0	0	0	522	411	
12	0	0	0	0	521	406	
13	0	0	0	0	521	411	
14	0	0	0	0	521	411	
15	0	0	0	0	521	412	
0	0	0	0	0	520	415	
1	0	0	0	0	520	411	
2	0	0	0	0	520	410	
3	0	0	0	0	519	410	
4	0	0	0	0	519	406	
5	0	0	0	0	519	411	
6	0	0	0	0	519	410	
7	0	0	0	0	519	410	
8	0	0	0	0	518	415	
9	0	0	0	0	519	410	
10	0	0	0	0	518	410	
11	0	0	0	0	518	410	
12	0	0	0	0	519	405	
13	0	0	0	0	519	410	
14	0	0	0	0	519	411	
15	0	0	0	0	519	411	
0	0	0	0	0	518	416	
1	0	0	0	0	519	411	
2	0	0	0	0	519	411	
3	0	0	0	0	519	410	
4	0	0	0	0	519	406	
5	0	0	0	0	519	411	
6	0	0	0	0	519	411	
7	0	0	0	0	519	411	
8	0	0	0	0	520	415	
9	0	0	0	0	520	411	
10	0	0	0	0	518	411	
11	0	0	0	0	518	411	
12	0	0	0	0	518	406	
13	0	0	0	0	518	411	
14	0	0	0	0	519	411	
15	0	0	0	0	519	411	
0	0	0	0	0	519	415	
1	0	0	0	0	519	411	
2	0	0	0	0	519	411	
3	0	0	0	0	518	410	
4	0	0	0	0	518	405	
5	0	0	0	0	517	411	
6	0	0	0	0	517	411	
7	0	0	0	0	516	412	
8	0	0	0	0	516	415	
9	0	0	0	0	516	411	
10	0	0	0	0	517	411	
11	0	0	0	0	516	410	
12	0	0	0	0	516	405	
13	0	0	0	0	516	410	
14	0	0	0	0	517	410	
15	0	0	0	0	517	411	
0	0	0	0	0	517	415	
1	0	0	0	0	517	411	
2	0	0	0	0	517	411	
3	0	0	0	0	517	411	
4	0	0	0	0	517	405	
5	0	0	0	0	517	410	
6	0	0	0	0	516	410	
7	0	0	0	0	516	411	
8	0	0	0	0	515	414	
9	0	0	0	0	515	411	
10	0	0	0	0	515	411	
11	0	0	0	0	516	411	
12	0	0	0	0	516	406	
13	0	0	0	0	516	411	
14	0	0	0	0	515	410	
15	0	0	0	0	515	411	
0	0	0	0	0	515	415	
1	0	0	0	0	516	411	
2	0	0	0	0	517	411	
3	0	0	0	0	517	410	
4	0	0	0	0	516	405	
5	0	0	0	0	515	411	
6	0	0	0	0	515	411	
7	0	0	0	0	515	411	
8	0	0	0	0	514	415	
9	0	0	0	0	515	410	
10	0	0	0	0	516	412	
11	0	0	0	0	516	410	
12	0	0	0	0	516	405	
13	0	0	0	0	515	410	
14	0	0	0	0	515	410	
15	0	0	0	0	515	410	
0	0	0	0	0	515	415	
1	0	0	0	0	515	410	
2	0	0	0	0	515	410	
3	0	0	0	0	516	410	
4	0	0	0	0	516	405	
5	0	0	0	0	516	410	
6	0	0	0	0	516	410	
7	0	0	0	0	516	411	
8	0	0	0	0	515	415	
9	0	0	0	0	514	411	
10	0	0	0	0	514	411	
11	0	0	0	0	513	410	
12	0	0	0	0	514	405	
13	0	0	0	0	514	410	
14	0	0	0	0	515	410	
15	0	0	0	0	516	410	
0	0	0	0	0	516	415	
1	0	0	0	0	516	411	
2	0	0	0	0	516	410	
3	0	0	0	0	516	410	
4	0	0	0	0	516	404	
5	0	0	0	0	516	409	
6	0	0	0	0	515	410	
7	0	0	0	0	515	411	
8	0	0	0	0	515	415	
9	0	0	0	0	515	410	
10	0	0	0	0	514	411	
11	0	0	0	0	515	411	
12	0	0	0	0	514	406	
13	0	0	0	0	513	412	
14	0	0	0	0	513	412	
15	0	0	0	0	514	411	
0	0	0	0	0	515	416	
1	0	0	0	0	516	411	
2	0	0	0	0	516	411	
3	0	0	0	0	515	411	
4	0	0	0	0	515	407	
5	0	0	0	0	515	412	
6	0	0	0	0	515	411	
7	0	0	0	0	515	411	
8	0	0	0	0	514	416	
9	0	0	0	0	514	411	
10	0	0	0	0	514	411	
11	0	0	0	0	515	411	
12	0	0	0	0	516	406	
13	0	0	0	0	516	411	
14	0	0	0	0	516	411	
15	0	0	0	0	516	412	
0	0	0	0	0	515	415	
1	0	0	0	0	516	411	
2	0	0	0	0	516	411	
3	0	0	0	0	515	411	
4	0	0	0	0	515	405	
5	0	0	0	0	515	411	
6	0	0	0	0	515	410	
7	0	0	0	0	514	411	
8	0	0	0	0	515	415	
9	0	0	0	0	515	411	
10	0	0	0	0	515	411	
11	0	0	0	0	515	411	
12	0	0	0	0	515	406	
13	0	0	0	0	515	411	
14	0	0	0	0	516	411	
15	0	0	0	0	515	411	
0	0	0	0	0	515	415	
1	0	0	0	0	515	411	
2	0	0	0	0	514	411	
3	0	0	0	0	513	411	
4	0	0	0	0	513	406	
5	0	0	0	0	514	410	
6	0	0	0	0	514	410	
7	0	0	0	0	514	411	
8	0	0	0	0	514	415	
9	0	0	0	0	514	411	
10	0	0	0	0	515	412	
11	0	0	0	0	514	410	
12	0	0	0	0	514	404	
13	0	0	0	0	514	411	
14	0	0	0	0	514	410	
15	0	0	0	0	514	410	
0	0	0	0	0	515	415	
1	0	0	0	0	514	410	
2	0	0	0	0	514	411	
3	0	0	0	0	514	410	
4	0	0	0	0	515	406	
5	0	0	0	0	514	410	
6	0	0	0	0	514	411	
7	0	0	0	0	513	411	
8	0	0	0	0	512	415	
9	0	0	0	0	512	411	
10	0	0	0	0	512	410	
11	0	0	0	0	513	411	
12	0	0	0	0	514	406	
13	0	0	0	0	514	412	
14	0	0	0	0	514	411	
15	0	0	0	0	513	412	
0	0	0	0	0	513	415	
1	0	0	0	0	514	411	
2	0	0	0	0	513	411	
3	0	0	0	0	514	410	
4	0	0	0	0	513	406	
5	0	0	0	0	513	411	
6	0	0	0	0	512	411	
7	0	0	0	0	512	411	
8	0	0	0	0	512	415	
9	0	0	0	0	511	410	
10	0	0	0	0	510	411	
11	0	0	0	0	510	410	
12	0	0	0	0	510	406	
13	0	0	0	0	511	411	
14	0	0	0	0	512	411	
15	0	0	0	0	511	411	
0	0	0	0	0	511	415	
1	0	0	0	0	511	411	
2	0	0	0	0	511	411	
3	0	0	0	0	511	410	
4	0	0	0	0	511	405	
5	0	0	0	0	511	411	
6	0	0	0	0	510	411	
7	0	0	0	0	510	410	
8	0	0	0	0	510	415	
9	0	0	0	0	510	411	
10	0	0	0	0	509	411	
11	0	0	0	0	508	411	
12	0	0	0	0	507	406	
13	0	0	0	0	507	411	
14	0	0	0	0	508	411	
15	0	0	0	0	508	412	
0	0	0	0	0	508	415	
1	0	0	0	0	508	411	
2	0	0	0	0	509	410	
3	0	0	0	0	510	410	
4	0	0	0	0	510	406	
5	0	0	0	0	510	410	
6	0	0	0	0	511	411	
7	0	0	0	0	510	411	
8	0	0	0	0	510	415	
9	0	0	0	0	511	410	
10	0	0	0	0	511	410	
11	0	0	0	0	511	411	
12	0	0	0	0	511	405	
13	0	0	0	0	511	410	
14	0	0	0	0	511	410	
15	0	0	0	0	512	410	
0	0	0	0	0	512	415	
1	0	0	0	0	511	410	
2	0	0	0	0	510	410	
3	0	0	0	0	511	410	
4	0	0	0	0	511	404	
5	0	0	0	0	511	410	
6	0	0	0	0	512	410	
7	0	0	0	0	512	411	
8	0	0	0	0	513	415	
9	0	0	0	0	514	410	
10	0	0	0	0	514	410	
11	0	0	0	0	514	410	
12	0	0	0	0	514	404	
13	0	0	0	0	515	410	
14	0	0	0	0	515	411	
15	0	0	0	0	515	411	
0	0	0	0	0	515	415	
1	0	0	0	0	517	409	
2	0	0	0	0	516	410	
3	0	0	0	0	517	410	
4	0	0	0	0	517	405	
5	0	0	0	0	516	411	
6	0	0	0	0	516	411	
7	0	0	0	0	515	411	
8	0	0	0	0	515	415	
9	0	0	0	0	515	411	
10	0	0	0	0	515	411	
11	0	0	0	0	514	410	
12	0	0	0	0	514	406	
13	0	0	0	0	514	411	
14	0	0	0	0	515	410	
15	0	0	0	0	515	411	
0	0	0	0	0	516	415	
1	0	0	0	0	516	410	
2	0	0	0	0	515	411	
3	0	0	0	0	514	411	
4	0	0	0	0	513	406	
5	0	0	0	0	512	411	
6	0	0	0	0	513	411	
7	0	0	0	0	513	410	
8	0	0	0	0	513	415	
9	0	0	0	0	513	411	
10	0	0	0	0	512	412	
11	0	0	0	0	512	411	
12	0	0	0	0	511	406	
13	0	0	0	0	511	411	
14	0	0	0	0	511	410	
15	0	0	0	0	511	411	
0	0	0	0	0	511	415	
1	0	0	0	0	512	411	
2	0	0	0	0	512	411	
3	0	0	0	0	512	410	
4	0	0	0	0	512	405	
5	0	0	0	0	512	411	
6	0	0	0	0	512	411	
7	0	0	0	0	512	411	
8	0	0	0	0	511	415	
9	0	0	0	0	511	411	
10	0	0	0	0	511	411	
11	0	0	0	0	511	411	
12	0	0	0	0	511	406	
13	0	0	0	0	511	411	
14	0	0	0	0	512	412	
15	0	0	0	0	512	411	
0	0	0	0	0	512	416	
1	0	0	0	0	512	412	
2	0	0	0	0	511	412	
3	0	0	0	0	511	412	
4	0	0	0	0	511	407	
5	0	0	0	0	511	412	
6	0	0	0	0	511	412	
7	0	0	0	0	510	411	
8	0	0	0	0	510	416	
9	0	0	0	0	510	411	
10	0	0	0	0	510	411	
11	0	0	0	0	510	411	
12	0	0	0	0	510	406	
13	0	0	0	0	511	411	
14	0	0	0	0	511	411	
15	0	0	0	0	511	411	
0	0	0	0	0	511	415	
1	0	0	0	0	511	411	
2	0	0	0	0	510	412	
3	0	0	0	0	509	410	
4	0	0	0	0	508	405	
5	0	0	0	0	508	410	
6	0	0	0	0	507	411	
7	0	0	0	0	506	411	
8	0	0	0	0	505	415	
9	0	0	0	0	503	410	
10	0	0	0	0	499	411	
11	0	0	0	0	495	410	
12	0	0	0	0	491	405	
13	0	0	0	0	486	410	
14	0	0	0	0	480	410	
15	0	0	0	0	475	411	
0	0	0	0	0	472	415	
1	0	0	0	0	469	410	
2	0	0	0	0	466	410	
3	0	0	0	0	463	410	
4	0	0	0	0	461	406	
5	0	0	0	0	458	410	
6	0	0	0	0	455	410	
7	0	0	0	0	453	410	
8	0	0	0	0	450	415	
9	0	0	0	0	448	411	
10	0	0	0	0	448	411	
11	0	0	0	0	447	410	
12	0	0	0	0	448	405	
13	0	0	0	0	451	411	
14	0	0	0	0	457	410	
15	0	0	0	0	467	410	
0	0	0	0	0	481	415	
1	0	0	0	0	496	410	
2	0	0	0	0	510	409	
3	0	0	0	0	524	410	
4	0	0	0	0	537	405	
5	0	0	0	0	553	411	
6	0	0	0	0	568	410	
7	0	0	0	0	583	411	
8	0	0	0	0	599	415	
9	0	0	0	0	616	410	
10	0	0	0	0	633	410	
11	0	0	0	0	650	410	
12	0	0	0	0	667	406	
13	0	0	0	0	682	410	
14	0	0	0	0	693	410	
15	0	0	0	0	701	410	
0	0	0	0	0	709	415	
1	0	0	0	0	716	411	
2	0	0	0	0	723	411	
3	0	0	0	0	730	411	
4	0	0	0	0	733	406	
5	0	0	0	0	734	410	
6	0	0	0	0	732	411	
7	0	0	0	0	731	411	
8	0	0	0	0	726	415	
9	0	0	0	0	717	411	
10	0	0	0	0	707	411	
11	0	0	0	0	696	410	
12	0	0	0	0	686	406	
13	0	0	0	0	679	411	
14	0	0	0	0	673	412	
15	0	0	0	0	668	411	
0	0	0	0	0	663	416	
1	0	0	0	0	657	411	
2	0	0	0	0	648	411	
3	0	0	0	0	639	411	
4	0	0	0	0	629	406	
5	0	0	0	0	619	411	
6	0	0	0	0	607	411	
7	0	0	0	0	596	410	
8	0	0	0	0	585	415	
9	0	0	0	0	574	410	
10	0	0	0	0	563	410	
11	0	0	0	0	553	411	
12	0	0	0	0	543	406	
13	0	0	0	0	533	411	
14	0	0	0	0	524	412	
15	0	0	0	0	516	411	
0	0	0	0	0	510	416	
1	0	0	0	0	502	411	
2	0	0	0	0	496	411	
3	0	0	0	0	490	411	
4	0	0	0	0	485	406	
5	0	0	0	0	481	410	
6	0	0	0	0	476	411	
7	0	0	0	0	471	411	
8	0	0	0	0	467	415	
9	0	0	0	0	464	410	
10	0	0	0	0	460	411	
11	0	0	0	0	457	411	
12	0	0	0	0	455	405	
13	0	0	0	0	453	410	
14	0	0	0	0	452	409	
15	0	0	0	0	450	411	
0	0	0	0	0	449	415	
1	0	0	0	0	448	411	
2	0	0	0	0	447	410	
3	0	0	0	0	446	410	
4	0	0	0	0	446	404	
5	0	0	0	0	446	410	
6	0	0	0	0	445	410	
7	0	0	0	0	445	411	
8	0	0	0	0	444	415	
9	0	0	0	0	445	411	
10	0	0	0	0	445	410	
11	0	0	0	0	445	410	
12	0	0	0	0	445	405	
13	0	0	0	0	444	410	
14	0	0	0	0	444	410	
15	0	0	0	0	445	410	
0	0	0	0	0	445	415	
1	0	0	0	0	446	410	
2	0	0	0	0	447	410	
3	0	0	0	0	447	411	
4	0	0	0	0	447	405	
5	0	0	0	0	447	410	
6	0	0	0	0	447	410	
7	0	0	0	0	447	411	
8	0	0	0	0	448	415	
9	0	0	0	0	448	410	
10	0	0	0	0	449	410	
11	0	0	0	0	449	410	
12	0	0	0	0	450	406	
13	0	0	0	0	451	411	
14	0	0	0	0	451	410	
15	0	0	0	0	452	410	
0	0	0	0	0	452	415	
1	0	0	0	0	453	410	
2	0	0	0	0	453	410	
3	0	0	0	0	454	410	
4	0	0	0	0	455	404	
5	0	0	0	0	456	409	
6	0	0	0	0	457	410	
7	0	0	0	0	457	411	
8	0	0	0	0	457	416	
9	0	0	0	0	458	411	
10	0	0	0	0	458	411	
11	0	0	0	0	458	411	
12	0	0	0	0	459	406	
13	0	0	0	0	459	411	
14	0	0	0	0	459	411	
15	0	0	0	0	459	411	
0	0	0	0	0	459	415	
1	0	0	0	0	460	411	
2	0	0	0	0	460	411	
3	0	0	0	0	460	410	
4	0	0	0	0	460	406	
5	0	0	0	0	460	411	
6	0	0	0	0	460	411	
7	0	0	0	0	461	411	
8	0	0	0	0	461	415	
9	0	0	0	0	462	411	
10	0	0	0	0	462	411	
11	0	0	0	0	463	410	
12	0	0	0	0	464	405	
13	0	0	0	0	464	410	
14	0	0	0	0	465	411	
15	0	0	0	0	465	411	
0	0	0	0	0	465	415	
1	0	0	0	0	465	410	
2	0	0	0	0	465	411	
3	0	0	0	0	465	411	
4	0	0	0	0	466	405	
5	0	0	0	0	467	411	
6	0	0	0	0	467	411	
7	0	0	0	0	467	411	
8	0	0	0	0	468	415	
9	0	0	0	0	468	411	
10	0	0	0	0	468	411	
11	0	0	0	0	468	411	
12	0	0	0	0	468	406	
13	0	0	0	0	469	411	
14	0	0	0	0	469	411	
15	0	0	0	0	469	412	
0	0	0	0	0	469	416	
1	0	0	0	0	470	411	
2	0	0	0	0	469	411	
3	0	0	0	0	470	411	
4	0	0	0	0	470	406	
5	0	0	0	0	470	411	
6	0	0	0	0	470	412	
7	0	0	0	0	469	411	
8	0	0	0	0	469	415	
9	0	0	0	0	470	411	
10	0	0	0	0	469	411	
11	0	0	0	0	470	411	
12	0	0	0	0	470	405	
13	0	0	0	0	470	411	
14	0	0	0	0	470	411	
15	0	0	0	0	471	412	
0	0	0	0	0	472	416	
1	0	0	0	0	472	411	
2	0	0	0	0	472	411	
3	0	0	0	0	472	411	
4	0	0	0	0	471	405	
5	0	0	0	0	471	411	
6	0	0	0	0	471	411	
7	0	0	0	0	470	411	
8	0	0	0	0	470	416	
9	0	0	0	0	471	411	
10	0	0	0	0	471	411	
11	0	0	0	0	471	411	
12	0	0	0	0	471	406	
13	0	0	0	0	472	411	
14	0	0	0	0	472	411	
15	0	0	0	0	473	411	
0	0	0	0	0	473	415	
1	0	0	0	0	473	410	
2	0	0	0	0	473	411	
3	0	0	0	0	473	410	
4	0	0	0	0	473	405	
5	0	0	0	0	475	410	
6	0	0	0	0	475	410	
7	0	0	0	0	475	410	
8	0	0	0	0	475	415	
9	0	0	0	0	476	410	
10	0	0	0	0	477	410	
11	0	0	0	0	477	409	
12	0	0	0	0	478	405	
13	0	0	0	0	478	410	
14	0	0	0	0	479	410	
15	0	0	0	0	480	410	
0	0	0	0	0	480	414	
1	0	0	0	0	481	410	
2	0	0	0	0	481	410	
3	0	0	0	0	481	409	
4	0	0	0	0	482	404	
5	0	0	0	0	482	409	
6	0	0	0	0	483	410	
7	0	0	0	0	483	410	
8	0	0	0	0	483	415	
9	0	0	0	0	484	410	
10	0	0	0	0	484	410	
11	0	0	0	0	486	410	
12	0	0	0	0	486	405	
13	0	0	0	0	487	410	
14	0	0	0	0	488	410	
15	0	0	0	0	489	411	
0	0	0	0	0	490	415	
1	0	0	0	0	490	411	
2	0	0	0	0	492	411	
3	0	0	0	0	492	411	
4	0	0	0	0	494	407	
5	0	0	0	0	495	411	
6	0	0	0	0	495	411	
7	0	0	0	0	496	411	
8	0	0	0	0	496	415	
9	0	0	0	0	497	410	
10	0	0	0	0	498	411	
11	0	0	0	0	499	410	
12	0	0	0	0	499	405	
13	0	0	0	0	501	410	
14	0	0	0	0	502	411	
15	0	0	0	0	503	411	
0	0	0	0	0	503	416	
1	0	0	0	0	504	411	
2	0	0	0	0	505	411	
3	0	0	0	0	505	410	
4	0	0	0	0	507	405	
5	0	0	0	0	508	411	
6	0	0	0	0	508	411	
7	0	0	0	0	509	411	
8	0	0	0	0	510	416	
9	0	0	0	0	511	411	
10	0	0	0	0	511	410	
11	0	0	0	0	512	410	
12	0	0	0	0	512	406	
13	0	0	0	0	513	411	
14	0	0	0	0	515	411	
15	0	0	0	0	516	411	
0	0	0	0	0	518	415	
1	0	0	0	0	519	411	
2	0	0	0	0	519	412	
3	0	0	0	0	520	411	
4	0	0	0	0	520	405	
5	0	0	0	0	522	411	
6	0	0	0	0	523	411	
7	0	0	0	0	523	411	
8	0	0	0	0	524	415	
9	0	0	0	0	525	411	
10	0	0	0	0	526	411	
11	0	0	0	0	527	411	
12	0	0	0	0	527	405	
13	0	0	0	0	528	412	
14	0	0	0	0	529	411	
15	0	0	0	0	530	411	
0	0	0	0	0	531	416	
1	0	0	0	0	531	411	
2	0	0	0	0	530	411	
3	0	0	0	0	530	411	
4	0	0	0	0	530	406	
5	0	0	0	0	530	412	
6	0	0	0	0	530	411	
7	0	0	0	0	530	411	
8	0	0	0	0	530	415	
9	0	0	0	0	530	410	
10	0	0	0	0	529	411	
11	0	0	0	0	529	410	
12	0	0	0	0	528	405	
13	0	0	0	0	528	411	
14	0	0	0	0	528	411	
15	0	0	0	0	528	411	
0	0	0	0	0	527	415	
1	0	0	0	0	528	411	
2	0	0	0	0	527	411	
3	0	0	0	0	527	411	
4	0	0	0	0	527	405	
5	0	0	0	0	527	411	
6	0	0	0	0	527	411	
7	0	0	0	0	526	411	
8	0	0	0	0	525	416	
9	0	0	0	0	525	411	
10	0	0	0	0	524	411	
11	0	0	0	0	524	411	
12	0	0	0	0	524	406	
13	0	0	0	0	524	411	
14	0	0	0	0	524	411	
15	0	0	0	0	523	411	
0	0	0	0	0	523	416	
1	0	0	0	0	523	411	
2	0	0	0	0	523	411	
3	0	0	0	0	523	410	
4	0	0	0	0	523	404	
5	0	0	0	0	522	410	
6	0	0	0	0	522	411	
7	0	0	0	0	522	411	
8	0	0	0	0	522	415	
9	0	0	0	0	521	411	
10	0	0	0	0	521	411	
11	0	0	0	0	521	411	
12	0	0	0	0	520	405	
13	0	0	0	0	520	410	
14	0	0	0	0	520	410	
15	0	0	0	0	520	410	
0	0	0	0	0	521	415	
1	0	0	0	0	521	411	
2	0	0	0	0	520	410	
3	0	0	0	0	520	410	
4	0	0	0	0	520	406	
5	0	0	0	0	520	410	
6	0	0	0	0	520	410	
7	0	0	0	0	520	410	
8	0	0	0	0	520	415	
9	0	0	0	0	520	410	
10	0	0	0	0	519	410	
11	0	0	0	0	519	410	
12	0	0	0	0	519	404	
13	0	0	0	0	520	410	
14	0	0	0	0	520	410	
15	0	0	0	0	519	410	
0	0	0	0	0	519	415	
1	0	0	0	0	519	410	
2	0	0	0	0	519	410	
3	0	0	0	0	519	410	
4	0	0	0	0	519	405	
5	0	0	0	0	518	410	
6	0	0	0	0	518	410	
7	0	0	0	0	519	410	
8	0	0	0	0	519	415	
9	0	0	0	0	519	411	
10	0	0	0	0	519	411	
11	0	0	0	0	520	410	
12	0	0	0	0	520	405	
13	0	0	0	0	519	411	
14	0	0	0	0	520	410	
15	0	0	0	0	519	411	
0	0	0	0	0	520	415	
1	0	0	0	0	520	411	
2	0	0	0	0	520	410	
3	0	0	0	0	520	410	
4	0	0	0	0	521	405	
5	0	0	0	0	520	410	
6	0	0	0	0	520	410	
7	0	0	0	0	520	411	
8	0	0	0	0	520	415	
9	0	0	0	0	520	410	
10	0	0	0	0	520	411	
11	0	0	0	0	520	410	
12	0	0	0	0	520	405	
13	0	0	0	0	520	410	
14	0	0	0	0	520	410	
15	0	0	0	0	519	410	
0	0	0	0	0	519	415	
1	0	0	0	0	519	410	
2	0	0	0	0	519	411	
3	0	0	0	0	519	410	
4	0	0	0	0	519	406	
5	0	0	0	0	519	411	
6	0	0	0	0	519	411	
7	0	0	0	0	519	411	
8	0	0	0	0	519	415	
9	0	0	0	0	520	411	
10	0	0	0	0	520	410	
11	0	0	0	0	520	411	
12	0	0	0	0	520	405	
13	0	0	0	0	520	411	
14	0	0	0	0	520	411	
15	0	0	0	0	519	411	
0	0	0	0	0	519	416	
1	0	0	0	0	519	411	
2	0	0	0	0	519	411	
3	0	0	0	0	519	411	
4	0	0	0	0	519	405	
5	0	0	0	0	519	411	
6	0	0	0	0	519	411	
7	0	0	0	0	519	411	
8	0	0	0	0	519	416	
9	0	0	0	0	519	411	
10	0	0	0	0	519	412	
11	0	0	0	0	519	411	
12	0	0	0	0	519	406	
13	0	0	0	0	519	412	
14	0	0	0	0	519	412	
15	0	0	0	0	518	412	
0	0	0	0	0	518	416	
1	0	0	0	0	518	411	
2	0	0	0	0	518	412	
3	0	0	0	0	518	411	
4	0	0	0	0	517	406	
5	0	0	0	0	517	411	
6	0	0	0	0	516	411	
7	0	0	0	0	516	411	
8	0	0	0	0	517	416	
9	0	0	0	0	517	412	
10	0	0	0	0	517	412	
11	0	0	0	0	516	412	
12	0	0	0	0	517	406	
13	0	0	0	0	517	411	
14	0	0	0	0	517	412	
15	0	0	0	0	517	412	
0	0	0	0	0	517	416	
1	0	0	0	0	518	412	
2	0	0	0	0	517	412	
3	0	0	0	0	517	412	
4	0	0	0	0	518	407	
5	0	0	0	0	518	411	
6	0	0	0	0	518	411	
7	0	0	0	0	519	411	
8	0	0	0	0	519	415	
9	0	0	0	0	519	411	
10	0	0	0	0	519	411	
11	0	0	0	0	519	411	
12	0	0	0	0	519	406	
13	0	0	0	0	519	411	
14	0	0	0	0	519	411	
15	0	0	0	0	519	411	
0	0	0	0	0	519	415	
1	0	0	0	0	519	410	
2	0	0	0	0	519	410	
3	0	0	0	0	518	410	
4	0	0	0	0	518	405	
5	0	0	0	0	518	410	
6	0	0	0	0	518	410	
7	0	0	0	0	518	411	
8	0	0	0	0	518	415	
9	0	0	0	0	517	410	
10	0	0	0	0	518	410	
11	0	0	0	0	518	410	
12	0	0	0	0	518	405	
13	0	0	0	0	518	410	
14	0	0	0	0	518	410	
15	0	0	0	0	518	411	
0	0	0	0	0	517	414	
1	0	0	0	0	516	409	
2	0	0	0	0	516	409	
3	0	0	0	0	516	410	
4	0	0	0	0	516	405	
5	0	0	0	0	516	410	
6	0	0	0	0	516	410	
7	0	0	0	0	516	411	
8	0	0	0	0	516	415	
9	0	0	0	0	516	410	
10	0	0	0	0	516	410	
11	0	0	0	0	516	410	
12	0	0	0	0	516	404	
13	0	0	0	0	516	410	
14	0	0	0	0	516	411	
15	0	0	0	0	516	410	
0	0	0	0	0	516	415	
1	0	0	0	0	516	410	
2	0	0	0	0	515	411	
3	0	0	0	0	515	411	
4	0	0	0	0	515	405	
5	0	0	0	0	515	411	
6	0	0	0	0	515	410	
7	0	0	0	0	515	411	
8	0	0	0	0	515	415	
9	0	0	0	0	515	410	
10	0	0	0	0	515	411	
11	0	0	0	0	516	410	
12	0	0	0	0	516	405	
13	0	0	0	0	516	410	
14	0	0	0	0	516	410	
15	0	0	0	0	517	411	
0	0	0	0	0	517	415	
1	0	0	0	0	517	410	
2	0	0	0	0	516	411	
3	0	0	0	0	516	410	
4	0	0	0	0	515	406	
5	0	0	0	0	515	411	
6	0	0	0	0	515	411	
7	0	0	0	0	514	411	
8	0	0	0	0	514	415	
9	0	0	0	0	514	411	
10	0	0	0	0	513	411	
11	0	0	0	0	512	411	
12	0	0	0	0	512	405	
13	0	0	0	0	511	411	
14	0	0	0	0	511	411	
15	0	0	0	0	511	411	
0	0	0	0	0	511	415	
1	0	0	0	0	512	410	
2	0	0	0	0	511	411	
3	0	0	0	0	512	410	
4	0	0	0	0	511	405	
5	0	0	0	0	510	410	
6	0	0	0	0	510	411	
7	0	0	0	0	510	410	
8	0	0	0	0	510	416	
9	0	0	0	0	510	410	
10	0	0	0	0	510	410	
11	0	0	0	0	510	410	
12	0	0	0	0	509	406	
13	0	0	0	0	509	410	
14	0	0	0	0	508	410	
15	0	0	0	0	508	410	
0	0	0	0	0	508	415	
1	0	0	0	0	508	410	
2	0	0	0	0	507	411	
3	0	0	0	0	508	411	
4	0	0	0	0	507	406	
5	0	0	0	0	508	411	
6	0	0	0	0	509	411	
7	0	0	0	0	510	411	
8	0	0	0	0	511	415	
9	0	0	0	0	511	411	
10	0	0	0	0	512	411	
11	0	0	0	0	512	410	
12	0	0	0	0	513	406	
13	0	0	0	0	513	411	
14	0	0	0	0	513	410	
15	0	0	0	0	514	411	
0	0	0	0	0	514	415	
1	0	0	0	0	515	410	
2	0	0	0	0	515	410	
3	0	0	0	0	515	410	
4	0	0	0	0	515	406	
5	0	0	0	0	515	411	
6	0	0	0	0	515	411	
7	0	0	0	0	515	411	
8	0	0	0	0	515	416	
9	0	0	0	0	515	411	
10	0	0	0	0	516	411	
11	0	0	0	0	518	410	
12	0	0	0	0	518	406	
13	0	0	0	0	519	411	
14	0	0	0	0	519	411	
15	0	0	0	0	519	411	
0	0	0	0	0	519	416	
1	0	0	0	0	519	411	
2	0	0	0	0	519	411	
3	0	0	0	0	519	411	
4	0	0	0	0	519	406	
5	0	0	0	0	519	411	
6	0	0	0	0	518	411	
7	0	0	0	0	518	411	
8	0	0	0	0	518	415	
9	0	0	0	0	518	411	
10	0	0	0	0	518	410	
11	0	0	0	0	518	411	
12	0	0	0	0	517	406	
13	0	0	0	0	517	411	
14	0	0	0	0	517	411	
15	0	0	0	0	516	411	
0	0	0	0	0	516	416	
1	0	0	0	0	516	411	
2	0	0	0	0	516	412	
3	0	0	0	0	515	411	
4	0	0	0	0	515	406	
5	0	0	0	0	515	412	
6	0	0	0	0	515	411	
7	0	0	0	0	515	412	
8	0	0	0	0	514	415	
9	0	0	0	0	513	412	
10	0	0	0	0	512	411	
11	0	0	0	0	512	411	
12	0	0	0	0	512	406	
13	0	0	0	0	512	411	
14	0	0	0	0	512	411	
15	0	0	0	0	512	411	
0	0	0	0	0	512	415	
1	0	0	0	0	512	411	
2	0	0	0	0	512	411	
3	0	0	0	0	512	411	
4	0	0	0	0	512	406	
5	0	0	0	0	513	411	
6	0	0	0	0	513	410	
7	0	0	0	0	513	411	
8	0	0	0	0	514	415	
9	0	0	0	0	514	410	
10	0	0	0	0	514	410	
11	0	0	0	0	515	410	
12	0	0	0	0	515	406	
13	0	0	0	0	515	410	
14	0	0	0	0	514	410	
15	0	0	0	0	514	410	
0	0	0	0	0	514	415	
1	0	0	0	0	514	410	
2	0	0	0	0	513	411	
3	0	0	0	0	513	410	
4	0	0	0	0	513	405	
5	0	0	0	0	512	410	
6	0	0	0	0	512	410	
7	0	0	0	0	512	410	
8	0	0	0	0	511	415	
9	0	0	0	0	512	411	
10	0	0	0	0	511	410	
11	0	0	0	0	511	410	
12	0	0	0	0	511	404	
13	0	0	0	0	510	410	
14	0	0	0	0	510	411	
15	0	0	0	0	511	412	
0	0	0	0	0	510	415	
1	0	0	0	0	511	411	
2	0	0	0	0	512	410	
3	0	0	0	0	512	410	
4	0	0	0	0	511	405	
5	0	0	0	0	512	411	
6	0	0	0	0	512	411	
7	0	0	0	0	512	411	
8	0	0	0	0	511	415	
9	0	0	0	0	511	411	
10	0	0	0	0	509	411	
11	0	0	0	0	508	412	
12	0	0	0	0	506	406	
13	0	0	0	0	504	411	
14	0	0	0	0	500	411	
15	0	0	0	0	496	411	
0	0	0	0	0	492	415	
1	0	0	0	0	487	411	
2	0	0	0	0	482	410	
3	0	0	0	0	477	410	
4	0	0	0	0	473	405	
5	0	0	0	0	469	410	
6	0	0	0	0	466	410	
7	0	0	0	0	464	411	
8	0	0	0	0	461	415	
9	0	0	0	0	459	411	
10	0	0	0	0	455	411	
11	0	0	0	0	452	411	
12	0	0	0	0	449	406	
13	0	0	0	0	446	411	
14	0	0	0	0	444	411	
15	0	0	0	0	443	411	
0	0	0	0	0	444	415	
1	0	0	0	0	448	410	
2	0	0	0	0	455	410	
3	0	0	0	0	467	410	
4	0	0	0	0	483	405	
5	0	0	0	0	498	410	
6	0	0	0	0	513	410	
7	0	0	0	0	527	411	
8	0	0	0	0	542	415	
9	0	0	0	0	558	410	
10	0	0	0	0	574	410	
11	0	0	0	0	590	409	
12	0	0	0	0	607	405	
13	0	0	0	0	624	410	
14	0	0	0	0	640	410	
15	0	0	0	0	657	410	
0	0	0	0	0	674	415	
1	0	0	0	0	687	410	
2	0	0	0	0	695	410	
3	0	0	0	0	703	410	
4	0	0	0	0	708	405	
5	0	0	0	0	716	411	
6	0	0	0	0	723	410	
7	0	0	0	0	729	411	
8	0	0	0	0	732	415	
9	0	0	0	0	732	410	
10	0	0	0	0	732	410	
11	0	0	0	0	730	411	
12	0	0	0	0	722	405	
13	0	0	0	0	712	410	
14	0	0	0	0	701	411	
15	0	0	0	0	690	410	
0	0	0	0	0	681	415	
1	0	0	0	0	675	410	
2	0	0	0	0	670	410	
3	0	0	0	0	665	411	
4	0	0	0	0	660	405	
5	0	0	0	0	652	411	
6	0	0	0	0	644	411	
7	0	0	0	0	635	411	
8	0	0	0	0	624	415	
9	0	0	0	0	613	411	
10	0	0	0	0	602	410	
11	0	0	0	0	591	411	
12	0	0	0	0	580	406	
13	0	0	0	0	569	411	
14	0	0	0	0	559	411	
15	0	0	0	0	547	411	
0	0	0	0	0	537	415	
1	0	0	0	0	528	411	
2	0	0	0	0	519	411	
3	0	0	0	0	512	411	
4	0	0	0	0	505	405	
5	0	0	0	0	499	411	
6	0	0	0	0	493	411	
7	0	0	0	0	487	411	
8	0	0	0	0	481	416	
9	0	0	0	0	477	411	
10	0	0	0	0	472	411	
11	0	0	0	0	468	411	
12	0	0	0	0	464	405	
13	0	0	0	0	460	410	
14	0	0	0	0	456	411	
15	0	0	0	0	453	410	
0	0	0	0	0	451	416	
1	0	0	0	0	449	410	
2	0	0	0	0	447	411	
3	0	0	0	0	446	410	
4	0	0	0	0	445	405	
5	0	0	0	0	444	410	
6	0	0	0	0	444	410	
7	0	0	0	0	444	410	
8	0	0	0	0	444	415	
9	0	0	0	0	445	411	
10	0	0	0	0	445	411	
11	0	0	0	0	444	411	
12	0	0	0	0	444	405	
13	0	0	0	0	444	411	
14	0	0	0	0	445	410	
15	0	0	0	0	445	412	
0	0	0	0	0	446	415	
1	0	0	0	0	447	410	
2	0	0	0	0	447	411	
3	0	0	0	0	447	410	
4	0	0	0	0	448	405	
5	0	0	0	0	448	410	
6	0	0	0	0	449	411	
7	0	0	0	0	449	410	
8	0	0	0	0	450	415	
9	0	0	0	0	450	409	
10	0	0	0	0	450	410	
11	0	0	0	0	450	410	
12	0	0	0	0	451	405	
13	0	0	0	0	451	411	
14	0	0	0	0	451	410	
15	0	0	0	0	451	411	
0	0	0	0	0	451	415	
1	0	0	0	0	451	410	
2	0	0	0	0	451	411	
3	0	0	0	0	452	410	
4	0	0	0	0	452	405	
5	0	0	0	0	452	411	
6	0	0	0	0	454	411	
7	0	0	0	0	454	411	
8	0	0	0	0	455	415	
9	0	0	0	0	455	410	
10	0	0	0	0	456	410	
11	0	0	0	0	456	409	
12	0	0	0	0	457	405	
13	0	0	0	0	457	410	
14	0	0	0	0	457	410	
15	0	0	0	0	458	410	
0	0	0	0	0	459	415	
1	0	0	0	0	459	411	
2	0	0	0	0	460	410	
3	0	0	0	0	460	410	
4	0	0	0	0	460	406	
5	0	0	0	0	461	411	
6	0	0	0	0	461	411	
7	0	0	0	0	461	411	
8	0	0	0	0	461	415	
9	0	0	0	0	463	410	
10	0	0	0	0	463	410	
11	0	0	0	0	464	410	
12	0	0	0	0	464	404	
13	0	0	0	0	464	410	
14	0	0	0	0	464	410	
15	0	0	0	0	464	410	
0	0	0	0	0	464	415	
1	0	0	0	0	464	410	
2	0	0	0	0	464	410	
3	0	0	0	0	464	410	
4	0	0	0	0	465	405	
5	0	0	0	0	464	411	
6	0	0	0	0	465	411	
7	0	0	0	0	465	410	
8	0	0	0	0	466	415	
9	0	0	0	0	466	411	
10	0	0	0	0	466	411	
11	0	0	0	0	466	411	
12	0	0	0	0	467	406	
13	0	0	0	0	467	410	
14	0	0	0	0	466	411	
15	0	0	0	0	467	410	
0	0	0	0	0	467	416	
1	0	0	0	0	468	411	
2	0	0	0	0	468	412	
3	0	0	0	0	469	412	
4	0	0	0	0	469	407	
5	0	0	0	0	470	413	
6	0	0	0	0	470	413	
7	0	0	0	0	470	413	
8	0	0	0	0	470	417	
9	0	0	0	0	470	412	
10	0	0	0	0	471	412	
11	0	0	0	0	471	411	
12	0	0	0	0	471	405	
13	0	0	0	0	471	411	
14	0	0	0	0	471	410	
15	0	0	0	0	471	411	
0	0	0	0	0	471	415	
1	0	0	0	0	471	412	
2	0	0	0	0	472	411	
3	0	0	0	0	472	411	
4	0	0	0	0	472	406	
5	0	0	0	0	472	411	
6	0	0	0	0	472	412	
7	0	0	0	0	472	411	
8	0	0	0	0	472	415	
9	0	0	0	0	472	410	
10	0	0	0	0	471	410	
11	0	0	0	0	472	410	
12	0	0	0	0	472	405	
13	0	0	0	0	472	410	
14	0	0	0	0	472	410	
15	0	0	0	0	472	410	
0	0	0	0	0	473	415	
1	0	0	0	0	473	409	
2	0	0	0	0	473	409	
3	0	0	0	0	473	410	
4	0	0	0	0	473	404	
5	0	0	0	0	473	409	
6	0	0	0	0	473	410	
7	0	0	0	0	473	411	
8	0	0	0	0	472	415	
9	0	0	0	0	473	411	
10	0	0	0	0	473	411	
11	0	0	0	0	473	410	
12	0	0	0	0	474	406	
13	0	0	0	0	475	411	
14	0	0	0	0	475	411	
15	0	0	0	0	476	410	
0	0	0	0	0	477	415	
1	0	0	0	0	478	410	
2	0	0	0	0	479	411	
3	0	0	0	0	479	410	
4	0	0	0	0	480	406	
5	0	0	0	0	480	411	
6	0	0	0	0	481	411	
7	0	0	0	0	483	411	
8	0	0	0	0	483	415	
9	0	0	0	0	484	411	
10	0	0	0	0	484	411	
11	0	0	0	0	485	410	
12	0	0	0	0	486	406	
13	0	0	0	0	487	411	
14	0	0	0	0	487	411	
15	0	0	0	0	488	411	
0	0	0	0	0	489	414	
1	0	0	0	0	490	411	
2	0	0	0	0	491	410	
3	0	0	0	0	492	410	
4	0	0	0	0	492	405	
5	0	0	0	0	492	409	
6	0	0	0	0	492	409	
7	0	0	0	0	494	408	
8	0	0	0	0	495	413	
9	0	0	0	0	496	409	
10	0	0	0	0	496	410	
11	0	0	0	0	497	409	
12	0	0	0	0	498	405	
13	0	0	0	0	499	410	
14	0	0	0	0	499	411	
15	0	0	0	0	500	411	
0	0	0	0	0	501	415	
1	0	0	0	0	502	411	
2	0	0	0	0	503	410	
3	0	0	0	0	503	409	
4	0	0	0	0	504	404	
5	0	0	0	0	505	410	
6	0	0	0	0	506	410	
7	0	0	0	0	506	410	
8	0	0	0	0	507	415	
9	0	0	0	0	508	411	
10	0	0	0	0	510	410	
11	0	0	0	0	511	410	
12	0	0	0	0	512	406	
13	0	0	0	0	513	411	
14	0	0	0	0	514	411	
15	0	0	0	0	515	412	
0	0	0	0	0	515	415	
1	0	0	0	0	516	411	
2	0	0	0	0	517	410	
3	0	0	0	0	517	410	
4	0	0	0	0	518	405	
5	0	0	0	0	519	411	
6	0	0	0	0	519	411	
7	0	0	0	0	520	412	
8	0	0	0	0	521	417	
9	0	0	0	0	522	411	
10	0	0	0	0	523	412	
11	0	0	0	0	523	411	
12	0	0	0	0	524	406	
13	0	0	0	0	524	410	
14	0	0	0	0	524	411	
15	0	0	0	0	525	412	
0	0	0	0	0	526	416	
1	0	0	0	0	526	411	
2	0	0	0	0	527	411	
3	0	0	0	0	526	410	
4	0	0	0	0	526	405	
5	0	0	0	0	526	411	
6	0	0	0	0	526	411	
7	0	0	0	0	526	412	
8	0	0	0	0	526	416	
9	0	0	0	0	526	411	
10	0	0	0	0	526	411	
11	0	0	0	0	526	411	
12	0	0	0	0	526	405	
13	0	0	0	0	526	411	
14	0	0	0	0	526	411	
15	0	0	0	0	526	411	
0	0	0	0	0	526	415	
1	0	0	0	0	527	410	
2	0	0	0	0	527	411	
3	0	0	0	0	527	410	
4	0	0	0	0	527	405	
5	0	0	0	0	526	410	
6	0	0	0	0	526	411	
7	0	0	0	0	526	412	
8	0	0	0	0	525	416	
9	0	0	0	0	525	411	
10	0	0	0	0	525	412	
11	0	0	0	0	524	412	
12	0	0	0	0	524	406	
13	0	0	0	0	523	412	
14	0	0	0	0	523	411	
15	0	0	0	0	523	412	
0	0	0	0	0	522	416	
1	0	0	0	0	522	411	
2	0	0	0	0	522	411	
3	0	0	0	0	521	411	
4	0	0	0	0	520	406	
5	0	0	0	0	520	411	
6	0	0	0	0	520	411	
7	0	0	0	0	520	412	
8	0	0	0	0	521	416	
9	0	0	0	0	521	412	
10	0	0	0	0	520	411	
11	0	0	0	0	520	412	
12	0	0	0	0	520	406	
13	0	0	0	0	519	411	
14	0	0	0	0	519	412	
15	0	0	0	0	519	411	
0	0	0	0	0	519	416	
1	0	0	0	0	519	411	
2	0	0	0	0	519	411	
3	0	0	0	0	519	411	
4	0	0	0	0	519	405	
5	0	0	0	0	519	411	
6	0	0	0	0	519	411	
7	0	0	0	0	520	411	
8	0	0	0	0	520	416	
9	0	0	0	0	520	411	
10	0	0	0	0	520	411	
11	0	0	0	0	520	411	
12	0	0	0	0	520	406	
13	0	0	0	0	520	411	
14	0	0	0	0	520	412	
15	0	0	0	0	519	412	
0	0	0	0	0	518	416	
1	0	0	0	0	519	412	
2	0	0	0	0	518	411	
3	0	0	0	0	519	410	
4	0	0	0	0	519	406	
5	0	0	0	0	519	410	
6	0	0	0	0	519	410	
7	0	0	0	0	519	410	
8	0	0	0	0	519	415	
9	0	0	0	0	519	410	
10	0	0	0	0	518	410	
11	0	0	0	0	518	409	
12	0	0	0	0	518	404	
13	0	0	0	0	517	410	
14	0	0	0	0	518	410	
15	0	0	0	0	517	410	
0	0	0	0	0	517	415	
1	0	0	0	0	517	410	
2	0	0	0	0	517	410	
3	0	0	0	0	517	410	
4	0	0	0	0	518	405	
5	0	0	0	0	518	410	
6	0	0	0	0	518	410	
7	0	0	0	0	518	410	
8	0	0	0	0	518	416	
9	0	0	0	0	518	411	
10	0	0	0	0	517	411	
11	0	0	0	0	517	411	
12	0	0	0	0	517	405	
13	0	0	0	0	516	411	
14	0	0	0	0	516	411	
15	0	0	0	0	516	411	
0	0	0	0	0	517	416	
1	0	0	0	0	518	411	
2	0	0	0	0	519	410	
3	0	0	0	0	519	410	
4	0	0	0	0	520	405	
5	0	0	0	0	519	410	
6	0	0	0	0	519	409	
7	0	0	0	0	519	410	
8	0	0	0	0	519	415	
9	0	0	0	0	519	409	
10	0	0	0	0	518	410	
11	0	0	0	0	517	409	
12	0	0	0	0	518	405	
13	0	0	0	0	517	409	
14	0	0	0	0	516	410	
15	0	0	0	0	516	410	
0	0	0	0	0	517	415	
1	0	0	0	0	517	411	
2	0	0	0	0	516	410	
3	0	0	0	0	516	411	
4	0	0	0	0	516	406	
5	0	0	0	0	516	411	
6	0	0	0	0	516	411	
7	0	0	0	0	516	411	
8	0	0	0	0	515	415	
9	0	0	0	0	515	411	
10	0	0	0	0	516	410	
11	0	0	0	0	516	410	
12	0	0	0	0	517	405	
13	0	0	0	0	517	411	
14	0	0	0	0	516	411	
15	0	0	0	0	517	411	
0	0	0	0	0	517	416	
1	0	0	0	0	517	411	
2	0	0	0	0	517	412	
3	0	0	0	0	518	412	
4	0	0	0	0	518	406	
5	0	0	0	0	518	412	
6	0	0	0	0	518	412	
7	0	0	0	0	518	412	
8	0	0	0	0	518	416	
9	0	0	0	0	518	411	
10	0	0	0	0	518	411	
11	0	0	0	0	518	411	
12	0	0	0	0	518	405	
13	0	0	0	0	517	409	
14	0	0	0	0	516	410	
15	0	0	0	0	516	410	
0	0	0	0	0	516	415	
1	0	0	0	0	517	410	
2	0	0	0	0	517	410	
3	0	0	0	0	517	411	
4	0	0	0	0	517	406	
5	0	0	0	0	517	412	
6	0	0	0	0	517	411	
7	0	0	0	0	517	411	
8	0	0	0	0	518	415	
9	0	0	0	0	518	411	
10	0	0	0	0	518	411	
11	0	0	0	0	517	410	
12	0	0	0	0	516	406	
13	0	0	0	0	517	410	
14	0	0	0	0	517	411	
15	0	0	0	0	517	411	
0	0	0	0	0	517	415	
1	0	0	0	0	517	410	
2	0	0	0	0	517	410	
3	0	0	0	0	517	411	
4	0	0	0	0	517	405	
5	0	0	0	0	517	411	
6	0	0	0	0	517	411	
7	0	0	0	0	517	411	
8	0	0	0	0	516	416	
9	0	0	0	0	516	411	
10	0	0	0	0	515	411	
11	0	0	0	0	516	411	
12	0	0	0	0	516	406	
13	0	0	0	0	516	410	
14	0	0	0	0	516	412	
15	0	0	0	0	516	411	
0	0	0	0	0	516	416	
1	0	0	0	0	516	411	
2	0	0	0	0	516	411	
3	0	0	0	0	517	410	
4	0	0	0	0	517	405	
5	0	0	0	0	517	411	
6	0	0	0	0	517	411	
7	0	0	0	0	517	411	
8	0	0	0	0	517	415	
9	0	0	0	0	518	411	
10	0	0	0	0	518	411	
11	0	0	0	0	518	410	
12	0	0	0	0	518	406	
13	0	0	0	0	518	411	
14	0	0	0	0	518	411	
15	0	0	0	0	518	411	
0	0	0	0	0	518	415	
1	0	0	0	0	517	411	
2	0	0	0	0	517	411	
3	0	0	0	0	516	411	
4	0	0	0	0	516	406	
5	0	0	0	0	516	411	
6	0	0	0	0	516	411	
7	0	0	0	0	515	411	
8	0	0	0	0	515	415	
9	0	0	0	0	515	411	
10	0	0	0	0	514	411	
11	0	0	0	0	514	410	
12	0	0	0	0	514	406	
13	0	0	0	0	513	411	
14	0	0	0	0	513	411	
15	0	0	0	0	512	410	
0	0	0	0	0	512	415	
1	0	0	0	0	512	410	
2	0	0	0	0	511	410	
3	0	0	0	0	511	409	
4	0	0	0	0	512	404	
5	0	0	0	0	512	410	
6	0	0	0	0	512	410	
7	0	0	0	0	512	410	
8	0	0	0	0	512	415	
9	0	0	0	0	511	409	
10	0	0	0	0	512	410	
11	0	0	0	0	512	410	
12	0	0	0	0	512	405	
13	0	0	0	0	512	411	
14	0	0	0	0	512	411	
15	0	0	0	0	513	411	
0	0	0	0	0	512	415	
1	0	0	0	0	513	411	
2	0	0	0	0	513	409	
3	0	0	0	0	513	410	
4	0	0	0	0	513	406	
5	0	0	0	0	512	411	
6	0	0	0	0	512	411	
7	0	0	0	0	512	411	
8	0	0	0	0	512	415	
9	0	0	0	0	512	411	
10	0	0	0	0	512	411	
11	0	0	0	0	512	410	
12	0	0	0	0	512	406	
13	0	0	0	0	512	411	
14	0	0	0	0	511	411	
15	0	0	0	0	511	411	
0	0	0	0	0	510	416	
1	0	0	0	0	510	411	
2	0	0	0	0	510	410	
3	0	0	0	0	510	411	
4	0	0	0	0	510	406	
5	0	0	0	0	510	411	
6	0	0	0	0	510	411	
7	0	0	0	0	511	411	
8	0	0	0	0	511	416	
9	0	0	0	0	511	411	
10	0	0	0	0	511	411	
11	0	0	0	0	511	411	
12	0	0	0	0	512	406	
13	0	0	0	0	512	411	
14	0	0	0	0	512	411	
15	0	0	0	0	512	411	
0	0	0	0	0	512	415	
1	0	0	0	0	512	411	
2	0	0	0	0	512	411	
3	0	0	0	0	512	411	
4	0	0	0	0	512	406	
5	0	0	0	0	512	411	
6	0	0	0	0	512	411	
7	0	0	0	0	513	411	
8	0	0	0	0	512	415	
9	0	0	0	0	513	410	
10	0	0	0	0	513	411	
11	0	0	0	0	513	410	
12	0	0	0	0	514	405	
13	0	0	0	0	514	411	
14	0	0	0	0	515	411	
15	0	0	0	0	515	411	
0	0	0	0	0	514	415	
1	0	0	0	0	515	411	
2	0	0	0	0	515	410	
3	0	0	0	0	515	410	
4	0	0	0	0	516	405	
5	0	0	0	0	516	410	
6	0	0	0	0	516	411	
7	0	0	0	0	516	410	
8	0	0	0	0	516	415	
9	0	0	0	0	517	411	
10	0	0	0	0	517	411	
11	0	0	0	0	516	410	
12	0	0	0	0	517	405	
13	0	0	0	0	516	410	
14	0	0	0	0	516	411	
15	0	0	0	0	516	411	
0	0	0	0	0	516	416	
1	0	0	0	0	515	411	
2	0	0	0	0	516	410	
3	0	0	0	0	517	410	
4	0	0	0	0	517	405	
5	0	0	0	0	516	411	
6	0	0	0	0	516	411	
7	0	0	0	0	516	411	
8	0	0	0	0	515	415	
9	0	0	0	0	515	410	
10	0	0	0	0	513	410	
11	0	0	0	0	512	411	
12	0	0	0	0	512	405	
13	0	0	0	0	512	411	
14	0	0	0	0	512	411	
15	0	0	0	0	512	411	
0	0	0	0	0	512	415	
1	0	0	0	0	512	410	
2	0	0	0	0	513	411	
3	0	0	0	0	513	411	
4	0	0	0	0	514	405	
5	0	0	0	0	514	411	
6	0	0	0	0	515	411	
7	0	0	0	0	515	411	
8	0	0	0	0	515	415	
9	0	0	0	0	515	411	
10	0	0	0	0	514	411	
11	0	0	0	0	514	411	
12	0	0	0	0	514	406	
13	0	0	0	0	514	411	
14	0	0	0	0	514	410	
15	0	0	0	0	514	411	
0	0	0	0	0	514	415	
1	0	0	0	0	513	411	
2	0	0	0	0	512	410	
3	0	0	0	0	512	410	
4	0	0	0	0	512	405	
5	0	0	0	0	512	411	
6	0	0	0	0	512	411	
7	0	0	0	0	512	411	
8	0	0	0	0	512	415	
9	0	0	0	0	512	411	
10	0	0	0	0	512	411	
11	0	0	0	0	512	411	
12	0	0	0	0	512	406	
13	0	0	0	0	512	411	
14	0	0	0	0	511	411	
15	0	0	0	0	511	411	
0	0	0	0	0	511	417	
1	0	0	0	0	512	411	
2	0	0	0	0	511	411	
3	0	0	0	0	512	411	
4	0	0	0	0	512	406	
5	0	0	0	0	512	411	
6	0	0	0	0	513	411	
7	0	0	0	0	513	411	
8	0	0	0	0	513	415	
9	0	0	0	0	513	411	
10	0	0	0	0	512	411	
11	0	0	0	0	512	411	
12	0	0	0	0	511	406	
13	0	0	0	0	509	411	
14	0	0	0	0	508	411	
15	0	0	0	0	505	411	
0	0	0	0	0	502	415	
1	0	0	0	0	498	411	
2	0	0	0	0	493	411	
3	0	0	0	0	488	411	
4	0	0	0	0	483	406	
5	0	0	0	0	478	410	
6	0	0	0	0	474	411	
7	0	0	0	0	471	411	
8	0	0	0	0	468	415	
9	0	0	0	0	466	411	
10	0	0	0	0	463	411	
11	0	0	0	0	460	410	
12	0	0	0	0	457	406	
13	0	0	0	0	455	410	
14	0	0	0	0	453	410	
15	0	0	0	0	451	411	
0	0	0	0	0	450	416	
1	0	0	0	0	449	411	
2	0	0	0	0	448	411	
3	0	0	0	0	451	411	
4	0	0	0	0	457	406	
5	0	0	0	0	467	411	
6	0	0	0	0	481	411	
7	0	0	0	0	497	412	
8	0	0	0	0	512	415	
9	0	0	0	0	526	410	
10	0	0	0	0	539	411	
11	0	0	0	0	553	410	
12	0	0	0	0	568	405	
13	0	0	0	0	581	411	
14	0	0	0	0	594	410	
15	0	0	0	0	609	410	
0	0	0	0	0	625	415	
1	0	0	0	0	641	410	
2	0	0	0	0	657	410	
3	0	0	0	0	671	410	
4	0	0	0	0	680	405	
5	0	0	0	0	688	410	
6	0	0	0	0	694	410	
7	0	0	0	0	699	410	
8	0	0	0	0	703	415	
9	0	0	0	0	708	410	
10	0	0	0	0	711	410	
11	0	0	0	0	713	410	
12	0	0	0	0	714	405	
13	0	0	0	0	711	411	
14	0	0	0	0	706	412	
15	0	0	0	0	697	411	
0	0	0	0	0	686	416	
1	0	0	0	0	676	410	
2	0	0	0	0	667	410	
3	0	0	0	0	661	410	
4	0	0	0	0	658	405	
5	0	0	0	0	655	410	
6	0	0	0	0	653	410	
7	0	0	0	0	649	410	
8	0	0	0	0	643	414	
9	0	0	0	0	634	410	
10	0	0	0	0	625	409	
11	0	0	0	0	615	409	
12	0	0	0	0	605	405	
13	0	0	0	0	595	411	
14	0	0	0	0	586	410	
15	0	0	0	0	576	411	
0	0	0	0	0	566	415	
1	0	0	0	0	556	411	
2	0	0	0	0	546	410	
3	0	0	0	0	537	411	
4	0	0	0	0	529	405	
5	0	0	0	0	521	411	
6	0	0	0	0	513	410	
7	0	0	0	0	507	412	
8	0	0	0	0	500	415	
9	0	0	0	0	495	411	
10	0	0	0	0	491	411	
11	0	0	0	0	486	410	
12	0	0	0	0	482	406	
13	0	0	0	0	478	411	
14	0	0	0	0	473	411	
15	0	0	0	0	470	411	
0	0	0	0	0	467	415	
1	0	0	0	0	464	411	
2	0	0	0	0	460	411	
3	0	0	0	0	458	411	
4	0	0	0	0	456	406	
5	0	0	0	0	455	411	
6	0	0	0	0	453	410	
7	0	0	0	0	452	411	
8	0	0	0	0	451	415	
9	0	0	0	0	450	411	
10	0	0	0	0	449	412	
11	0	0	0	0	449	412	
12	0	0	0	0	448	406	
13	0	0	0	0	448	412	
14	0	0	0	0	448	412	
15	0	0	0	0	447	412	
0	0	0	0	0	447	416	
1	0	0	0	0	448	412	
2	0	0	0	0	447	412	
3	0	0	0	0	448	411	
4	0	0	0	0	448	405	
5	0	0	0	0	448	411	
6	0	0	0	0	448	411	
7	0	0	0	0	449	411	
8	0	0	0	0	449	416	
9	0	0	0	0	450	411	
10	0	0	0	0	450	412	
11	0	0	0	0	451	411	
12	0	0	0	0	451	407	
13	0	0	0	0	451	411	
14	0	0	0	0	452	411	
15	0	0	0	0	452	412	
0	0	0	0	0	453	416	
1	0	0	0	0	455	411	
2	0	0	0	0	455	412	
3	0	0	0	0	455	411	
4	0	0	0	0	456	406	
5	0	0	0	0	456	411	
6	0	0	0	0	457	411	
7	0	0	0	0	457	412	
8	0	0	0	0	457	416	
9	0	0	0	0	457	411	
10	0	0	0	0	457	411	
11	0	0	0	0	456	411	
12	0	0	0	0	457	405	
13	0	0	0	0	457	411	
14	0	0	0	0	457	411	
15	0	0	0	0	457	410	
0	0	0	0	0	457	414	
1	0	0	0	0	458	410	
2	0	0	0	0	458	409	
3	0	0	0	0	459	410	
4	0	0	0	0	460	405	
5	0	0	0	0	460	409	
6	0	0	0	0	461	410	
7	0	0	0	0	462	409	
8	0	0	0	0	462	415	
9	0	0	0	0	463	410	
10	0	0	0	0	463	410	
11	0	0	0	0	464	409	
12	0	0	0	0	463	404	
13	0	0	0	0	464	411	
14	0	0	0	0	464	410	
15	0	0	0	0	463	410	
0	0	0	0	0	463	415	
1	0	0	0	0	463	410	
2	0	0	0	0	463	410	
3	0	0	0	0	463	409	
4	0	0	0	0	464	405	
5	0	0	0	0	464	410	
6	0	0	0	0	464	409	
7	0	0	0	0	465	410	
8	0	0	0	0	465	414	
9	0	0	0	0	465	409	
10	0	0	0	0	465	409	
11	0	0	0	0	466	410	
12	0	0	0	0	467	404	
13	0	0	0	0	467	409	
14	0	0	0	0	468	409	
15	0	0	0	0	467	409	
0	0	0	0	0	467	415	
1	0	0	0	0	467	410	
2	0	0	0	0	468	409	
3	0	0	0	0	468	409	
4	0	0	0	0	467	404	
5	0	0	0	0	467	410	
6	0	0	0	0	468	410	
7	0	0	0	0	468	411	
8	0	0	0	0	467	415	
9	0	0	0	0	467	411	
10	0	0	0	0	468	410	
11	0	0	0	0	468	410	
12	0	0	0	0	468	406	
13	0	0	0	0	468	411	
14	0	0	0	0	469	411	
15	0	0	0	0	469	410	
0	0	0	0	0	470	416	
1	0	0	0	0	470	411	
2	0	0	0	0	470	411	
3	0	0	0	0	470	410	
4	0	0	0	0	471	405	
5	0	0	0	0	470	410	
6	0	0	0	0	470	410	
7	0	0	0	0	471	411	
8	0	0	0	0	471	415	
9	0	0	0	0	472	410	
10	0	0	0	0	471	411	
11	0	0	0	0	472	410	
12	0	0	0	0	472	405	
13	0	0	0	0	472	412	
14	0	0	0	0	472	411	
15	0	0	0	0	472	411	
0	0	0	0	0	473	415	
1	0	0	0	0	473	411	
2	0	0	0	0	473	410	
3	0	0	0	0	474	410	
4	0	0	0	0	475	405	
5	0	0	0	0	475	411	
6	0	0	0	0	475	411	
7	0	0	0	0	476	411	
8	0	0	0	0	476	416	
9	0	0	0	0	477	411	
10	0	0	0	0	478	411	
11	0	0	0	0	478	410	
12	0	0	0	0	478	406	
13	0	0	0	0	479	411	
14	0	0	0	0	479	411	
15	0	0	0	0	479	412	
0	0	0	0	0	479	415	
1	0	0	0	0	479	411	
2	0	0	0	0	479	411	
3	0	0	0	0	479	410	
4	0	0	0	0	479	406	
5	0	0	0	0	480	411	
6	0	0	0	0	480	411	
7	0	0	0	0	481	411	
8	0	0	0	0	482	416	
9	0	0	0	0	482	411	
10	0	0	0	0	483	411	
11	0	0	0	0	484	410	
12	0	0	0	0	485	406	
13	0	0	0	0	486	411	
14	0	0	0	0	486	411	
15	0	0	0	0	486	411	
0	0	0	0	0	487	415	
1	0	0	0	0	487	411	
2	0	0	0	0	489	411	
3	0	0	0	0	489	410	
4	0	0	0	0	490	406	
5	0	0	0	0	491	411	
6	0	0	0	0	492	411	
7	0	0	0	0	493	411	
8	0	0	0	0	495	416	
9	0	0	0	0	496	411	
10	0	0	0	0	497	411	
11	0	0	0	0	498	411	
12	0	0	0	0	499	406	
13	0	0	0	0	500	411	
14	0	0	0	0	499	411	
15	0	0	0	0	501	411	
0	0	0	0	0	502	415	
1	0	0	0	0	503	411	
2	0	0	0	0	503	411	
3	0	0	0	0	504	410	
4	0	0	0	0	504	405	
5	0	0	0	0	505	411	
6	0	0	0	0	506	411	
7	0	0	0	0	507	411	
8	0	0	0	0	508	415	
9	0	0	0	0	508	411	
10	0	0	0	0	509	411	
11	0	0	0	0	511	410	
12	0	0	0	0	511	405	
13	0	0	0	0	512	410	
14	0	0	0	0	514	410	
15	0	0	0	0	515	410	
0	0	0	0	0	515	415	
1	0	0	0	0	516	411	
2	0	0	0	0	516	410	
3	0	0	0	0	517	410	
4	0	0	0	0	518	405	
5	0	0	0	0	518	410	
6	0	0	0	0	519	410	
7	0	0	0	0	519	410	
8	0	0	0	0	520	415	
9	0	0	0	0	522	410	
10	0	0	0	0	522	411	
11	0	0	0	0	523	410	
12	0	0	0	0	524	405	
13	0	0	0	0	525	410	
14	0	0	0	0	526	409	
15	0	0	0	0	527	410	
0	0	0	0	0	528	415	
1	0	0	0	0	528	410	
2	0	0	0	0	528	410	
3	0	0	0	0	529	409	
4	0	0	0	0	529	404	
5	0	0	0	0	529	410	
6	0	0	0	0	530	411	
7	0	0	0	0	530	411	
8	0	0	0	0	529	416	
9	0	0	0	0	530	411	
10	0	0	0	0	529	410	
11	0	0	0	0	530	411	
12	0	0	0	0	529	406	
13	0	0	0	0	529	411	
14	0	0	0	0	528	411	
15	0	0	0	0	528	411	
0	0	0	0	0	527	415	
1	0	0	0	0	528	410	
2	0	0	0	0	527	411	
3	0	0	0	0	527	410	
4	0	0	0	0	527	406	
5	0	0	0	0	527	411	
6	0	0	0	0	526	410	
7	0	0	0	0	525	411	
8	0	0	0	0	525	415	
9	0	0	0	0	525	411	
10	0	0	0	0	525	411	
11	0	0	0	0	524	410	
12	0	0	0	0	524	404	
13	0	0	0	0	524	410	
14	0	0	0	0	524	411	
15	0	0	0	0	523	411	
0	0	0	0	0	522	415	
1	0	0	0	0	521	409	
2	0	0	0	0	520	410	
3	0	0	0	0	519	410	
4	0	0	0	0	519	406	
5	0	0	0	0	518	410	
6	0	0	0	0	517	410	
7	0	0	0	0	517	410	
8	0	0	0	0	516	415	
9	0	0	0	0	517	411	
10	0	0	0	0	517	411	
11	0	0	0	0	517	411	
12	0	0	0	0	517	407	
13	0	0	0	0	516	411	
14	0	0	0	0	516	411	
15	0	0	0	0	517	411	
0	0	0	0	0	517	416	
1	0	0	0	0	517	411	
2	0	0	0	0	516	411	
3	0	0	0	0	516	411	
4	0	0	0	0	515	406	
5	0	0	0	0	515	411	
6	0	0	0	0	515	411	
7	0	0	0	0	515	411	
8	0	0	0	0	515	416	
9	0	0	0	0	515	410	
10	0	0	0	0	515	411	
11	0	0	0	0	515	411	
12	0	0	0	0	515	406	
13	0	0	0	0	515	411	
14	0	0	0	0	514	411	
15	0	0	0	0	515	411	
0	0	0	0	0	515	415	
1	0	0	0	0	516	411	
2	0	0	0	0	516	411	
3	0	0	0	0	515	411	
4	0	0	0	0	515	406	
5	0	0	0	0	515	411	
6	0	0	0	0	515	411	
7	0	0	0	0	515	412	
8	0	0	0	0	515	416	
9	0	0	0	0	515	411	
10	0	0	0	0	515	411	
11	0	0	0	0	514	411	
12	0	0	0	0	514	406	
13	0	0	0	0	514	411	
14	0	0	0	0	513	411	
15	0	0	0	0	513	411	
0	0	0	0	0	514	416	
1	0	0	0	0	514	411	
2	0	0	0	0	514	411	
3	0	0	0	0	513	411	
4	0	0	0	0	513	406	
5	0	0	0	0	513	410	
6	0	0	0	0	514	411	
7	0	0	0	0	514	411	
8	0	0	0	0	514	415	
9	0	0	0	0	515	411	
10	0	0	0	0	515	410	
11	0	0	0	0	515	410	
12	0	0	0	0	515	405	
13	0	0	0	0	515	411	
14	0	0	0	0	515	411	
15	0	0	0	0	515	410	
0	0	0	0	0	515	415	
1	0	0	0	0	515	410	
2	0	0	0	0	515	410	
3	0	0	0	0	515	410	
4	0	0	0	0	515	405	
5	0	0	0	0	515	410	
6	0	0	0	0	515	411	
7	0	0	0	0	515	411	
8	0	0	0	0	515	415	
9	0	0	0	0	515	410	
10	0	0	0	0	515	411	
11	0	0	0	0	515	411	
12	0	0	0	0	515	405	
13	0	0	0	0	514	411	
14	0	0	0	0	514	411	
15	0	0	0	0	515	411	
0	0	0	0	0	515	415	
1	0	0	0	0	516	410	
2	0	0	0	0	515	410	
3	0	0	0	0	515	410	
4	0	0	0	0	515	406	
5	0	0	0	0	516	411	
6	0	0	0	0	516	409	
7	0	0	0	0	516	410	
8	0	0	0	0	516	415	
9	0	0	0	0	516	409	
10	0	0	0	0	516	410	
11	0	0	0	0	515	411	
12	0	0	0	0	514	405	
13	0	0	0	0	514	410	
14	0	0	0	0	515	410	
15	0	0	0	0	515	411	
0	0	0	0	0	515	416	
1	0	0	0	0	515	411	
2	0	0	0	0	515	410	
3	0	0	0	0	514	410	
4	0	0	0	0	514	405	
5	0	0	0	0	514	411	
6	0	0	0	0	515	410	
7	0	0	0	0	515	411	
8	0	0	0	0	515	415	
9	0	0	0	0	515	410	
10	0	0	0	0	515	410	
11	0	0	0	0	516	410	
12	0	0	0	0	515	405	
13	0	0	0	0	515	411	
14	0	0	0	0	516	409	
15	0	0	0	0	515	411	
0	0	0	0	0	515	415	
1	0	0	0	0	516	410	
2	0	0	0	0	516	410	
3	0	0	0	0	517	410	
4	0	0	0	0	517	405	
5	0	0	0	0	517	411	
6	0	0	0	0	518	410	
7	0	0	0	0	517	411	
8	0	0	0	0	518	416	
9	0	0	0	0	517	411	
10	0	0	0	0	518	411	
11	0	0	0	0	518	410	
12	0	0	0	0	518	406	
13	0	0	0	0	518	409	
14	0	0	0	0	518	410	
15	0	0	0	0	519	411	
0	0	0	0	0	519	415	
1	0	0	0	0	519	410	
2	0	0	0	0	518	410	
3	0	0	0	0	518	409	
4	0	0	0	0	518	405	
5	0	0	0	0	519	411	
6	0	0	0	0	518	411	
7	0	0	0	0	518	411	
8	0	0	0	0	518	415	
9	0	0	0	0	518	411	
10	0	0	0	0	518	411	
11	0	0	0	0	518	411	
12	0	0	0	0	518	406	
13	0	0	0	0	518	411	
14	0	0	0	0	517	411	
15	0	0	0	0	517	411	
0	0	0	0	0	516	415	
1	0	0	0	0	516	411	
2	0	0	0	0	516	411	
3	0	0	0	0	516	411	
4	0	0	0	0	516	406	
5	0	0	0	0	516	411	
6	0	0	0	0	515	411	
7	0	0	0	0	516	412	
8	0	0	0	0	516	416	
9	0	0	0	0	516	411	
10	0	0	0	0	516	411	
11	0	0	0	0	516	411	
12	0	0	0	0	516	405	
13	0	0	0	0	515	411	
14	0	0	0	0	515	410	
15	0	0	0	0	515	411	
0	0	0	0	0	516	415	
1	0	0	0	0	516	411	
2	0	0	0	0	516	411	
3	0	0	0	0	515	411	
4	0	0	0	0	516	405	
5	0	0	0	0	515	411	
6	0	0	0	0	515	411	
7	0	0	0	0	514	411	
8	0	0	0	0	515	415	
9	0	0	0	0	515	411	
10	0	0	0	0	515	410	
11	0	0	0	0	515	409	
12	0	0	0	0	515	404	
13	0	0	0	0	515	410	
14	0	0	0	0	515	410	
15	0	0	0	0	515	411	
0	0	0	0	0	515	415	
1	0	0	0	0	516	410	
2	0	0	0	0	515	410	
3	0	0	0	0	515	409	
4	0	0	0	0	515	404	
5	0	0	0	0	515	409	
6	0	0	0	0	514	410	
7	0	0	0	0	514	411	
8	0	0	0	0	514	415	
9	0	0	0	0	514	411	
10	0	0	0	0	514	410	
11	0	0	0	0	513	411	
12	0	0	0	0	513	405	
13	0	0	0	0	513	411	
14	0	0	0	0	513	411	
15	0	0	0	0	513	411	
0	0	0	0	0	514	415	
1	0	0	0	0	513	410	
2	0	0	0	0	513	410	
3	0	0	0	0	513	411	
4	0	0	0	0	513	405	
5	0	0	0	0	513	410	
6	0	0	0	0	513	410	
7	0	0	0	0	513	411	
8	0	0	0	0	512	415	
9	0	0	0	0	513	411	
10	0	0	0	0	513	411	
11	0	0	0	0	513	411	
12	0	0	0	0	513	406	
13	0	0	0	0	513	410	
14	0	0	0	0	514	410	
15	0	0	0	0	514	410	
0	0	0	0	0	514	415	
1	0	0	0	0	514	410	
2	0	0	0	0	513	411	
3	0	0	0	0	513	410	
4	0	0	0	0	512	405	
5	0	0	0	0	512	410	
6	0	0	0	0	511	409	
7	0	0	0	0	510	410	
8	0	0	0	0	510	415	
9	0	0	0	0	510	411	
10	0	0	0	0	509	410	
11	0	0	0	0	509	410	
12	0	0	0	0	509	405	
13	0	0	0	0	509	411	
14	0	0	0	0	508	411	
15	0	0	0	0	508	411	
0	0	0	0	0	508	415	
1	0	0	0	0	508	411	
2	0	0	0	0	508	411	
3	0	0	0	0	508	410	
4	0	0	0	0	508	406	
5	0	0	0	0	507	411	
6	0	0	0	0	508	410	
7	0	0	0	0	507	411	
8	0	0	0	0	507	415	
9	0	0	0	0	508	410	
10	0	0	0	0	507	410	
11	0	0	0	0	507	410	
12	0	0	0	0	507	405	
13	0	0	0	0	507	410	
14	0	0	0	0	507	410	
15	0	0	0	0	507	410	
0	0	0	0	0	508	415	
1	0	0	0	0	509	410	
2	0	0	0	0	509	411	
3	0	0	0	0	510	411	
4	0	0	0	0	511	405	
5	0	0	0	0	512	411	
6	0	0	0	0	512	411	
7	0	0	0	0	512	412	
8	0	0	0	0	512	415	
9	0	0	0	0	512	410	
10	0	0	0	0	512	411	
11	0	0	0	0	512	411	
12	0	0	0	0	512	406	
13	0	0	0	0	511	411	
14	0	0	0	0	511	411	
15	0	0	0	0	511	411	
0	0	0	0	0	511	415	
1	0	0	0	0	512	411	
2	0	0	0	0	512	410	
3	0	0	0	0	513	410	
4	0	0	0	0	514	405	
5	0	0	0	0	514	411	
6	0	0	0	0	515	411	
7	0	0	0	0	515	411	
8	0	0	0	0	515	415	
9	0	0	0	0	516	411	
10	0	0	0	0	516	411	
11	0	0	0	0	516	411	
12	0	0	0	0	516	406	
13	0	0	0	0	516	411	
14	0	0	0	0	516	411	
15	0	0	0	0	516	411	
0	0	0	0	0	516	416	
1	0	0	0	0	516	411	
2	0	0	0	0	516	411	
3	0	0	0	0	516	411	
4	0	0	0	0	516	406	
5	0	0	0	0	515	411	
6	0	0	0	0	515	411	
7	0	0	0	0	515	412	
8	0	0	0	0	515	416	
9	0	0	0	0	516	411	
10	0	0	0	0	516	412	
11	0	0	0	0	516	411	
12	0	0	0	0	516	406	
13	0	0	0	0	517	411	
14	0	0	0	0	517	411	
15	0	0	0	0	516	412	
0	0	0	0	0	515	416	
1	0	0	0	0	515	411	
2	0	0	0	0	513	412	
3	0	0	0	0	512	411	
4	0	0	0	0	512	406	
5	0	0	0	0	511	411	
6	0	0	0	0	511	411	
7	0	0	0	0	511	411	
8	0	0	0	0	511	415	
9	0	0	0	0	512	411	
10	0	0	0	0	512	411	
11	0	0	0	0	512	410	
12	0	0	0	0	512	405	
13	0	0	0	0	512	411	
14	0	0	0	0	512	410	
15	0	0	0	0	513	411	
0	0	0	0	0	513	415	
1	0	0	0	0	513	410	
2	0	0	0	0	513	411	
3	0	0	0	0	513	410	
4	0	0	0	0	513	405	
5	0	0	0	0	513	410	
6	0	0	0	0	513	410	
7	0	0	0	0	513	411	
8	0	0	0	0	512	415	
9	0	0	0	0	512	410	
10	0	0	0	0	512	410	
11	0	0	0	0	512	410	
12	0	0	0	0	512	404	
13	0	0	0	0	513	411	
14	0	0	0	0	513	410	
15	0	0	0	0	512	410	
0	0	0	0	0	512	415	
1	0	0	0	0	512	410	
2	0	0	0	0	512	411	
3	0	0	0	0	511	410	
4	0	0	0	0	511	404	
5	0	0	0	0	512	410	
6	0	0	0	0	512	410	
7	0	0	0	0	512	410	
8	0	0	0	0	513	415	
9	0	0	0	0	513	409	
10	0	0	0	0	512	410	
11	0	0	0	0	511	409	
12	0	0	0	0	511	406	
13	0	0	0	0	511	410	
14	0	0	0	0	511	410	
15	0	0	0	0	511	411	
0	0	0	0	0	511	415	
1	0	0	0	0	510	410	
2	0	0	0	0	510	411	
3	0	0	0	0	510	411	
4	0	0	0	0	509	405	
5	0	0	0	0	508	411	
6	0	0	0	0	506	410	
7	0	0	0	0	504	411	
8	0	0	0	0	501	415	
9	0	0	0	0	497	410	
10	0	0	0	0	492	411	
11	0	0	0	0	487	410	
12	0	0	0	0	483	406	
13	0	0	0	0	478	411	
14	0	0	0	0	473	411	
15	0	0	0	0	469	411	
0	0	0	0	0	466	415	
1	0	0	0	0	463	410	
2	0	0	0	0	460	410	
3	0	0	0	0	456	410	
4	0	0	0	0	453	406	
5	0	0	0	0	449	411	
6	0	0	0	0	446	411	
7	0	0	0	0	443	411	
8	0	0	0	0	440	415	
9	0	0	0	0	439	410	
10	0	0	0	0	440	410	
11	0	0	0	0	444	410	
12	0	0	0	0	451	405	
13	0	0	0	0	462	410	
14	0	0	0	0	477	410	
15	0	0	0	0	492	411	
0	0	0	0	0	507	415	
1	0	0	0	0	521	411	
2	0	0	0	0	535	411	
3	0	0	0	0	550	411	
4	0	0	0	0	566	406	
5	0	0	0	0	582	410	
6	0	0	0	0	600	411	
7	0	0	0	0	618	411	
8	0	0	0	0	635	415	
9	0	0	0	0	652	411	
10	0	0	0	0	669	410	
11	0	0	0	0	683	410	
12	0	0	0	0	694	405	
13	0	0	0	0	703	411	
14	0	0	0	0	711	411	
15	0	0	0	0	719	411	
0	0	0	0	0	728	415	
1	0	0	0	0	735	411	
2	0	0	0	0	738	411	
3	0	0	0	0	740	411	
4	0	0	0	0	740	405	
5	0	0	0	0	738	410	
6	0	0	0	0	734	410	
7	0	0	0	0	725	411	
8	0	0	0	0	715	416	
9	0	0	0	0	704	410	
10	0	0	0	0	694	411	
11	0	0	0	0	688	410	
12	0	0	0	0	684	405	
13	0	0	0	0	679	410	
14	0	0	0	0	673	410	
15	0	0	0	0	667	411	
0	0	0	0	0	659	415	
1	0	0	0	0	649	410	
2	0	0	0	0	638	410	
3	0	0	0	0	626	410	
4	0	0	0	0	614	405	
5	0	0	0	0	602	411	
6	0	0	0	0	590	410	
7	0	0	0	0	578	411	
8	0	0	0	0	566	415	
9	0	0	0	0	554	411	
10	0	0	0	0	543	411	
11	0	0	0	0	533	410	
12	0	0	0	0	524	406	
13	0	0	0	0	515	411	
14	0	0	0	0	508	410	
15	0	0	0	0	500	411	
0	0	0	0	0	494	415	
1	0	0	0	0	488	410	
2	0	0	0	0	483	411	
3	0	0	0	0	479	411	
4	0	0	0	0	475	406	
5	0	0	0	0	470	410	
6	0	0	0	0	465	411	
7	0	0	0	0	461	411	
8	0	0	0	0	457	415	
9	0	0	0	0	455	411	
10	0	0	0	0	452	411	
11	0	0	0	0	450	411	
12	0	0	0	0	448	405	
13	0	0	0	0	446	411	
14	0	0	0	0	444	411	
15	0	0	0	0	444	411	
0	0	0	0	0	444	415	
1	0	0	0	0	443	411	
2	0	0	0	0	443	410	
3	0	0	0	0	443	410	
4	0	0	0	0	443	405	
5	0	0	0	0	443	410	
6	0	0	0	0	443	410	
7	0	0	0	0	443	411	
8	0	0	0	0	443	415	
9	0	0	0	0	443	411	
10	0	0	0	0	444	411	
11	0	0	0	0	444	411	
12	0	0	0	0	444	405	
13	0	0	0	0	444	411	
14	0	0	0	0	445	411	
15	0	0	0	0	445	411	
0	0	0	0	0	445	415	
1	0	0	0	0	446	410	
2	0	0	0	0	446	411	
3	0	0	0	0	446	410	
4	0	0	0	0	446	404	
5	0	0	0	0	447	410	
6	0	0	0	0	447	411	
7	0	0	0	0	448	411	
8	0	0	0	0	448	415	
9	0	0	0	0	448	411	
10	0	0	0	0	448	411	
11	0	0	0	0	448	410	
12	0	0	0	0	448	404	
13	0	0	0	0	449	410	
14	0	0	0	0	449	411	
15	0	0	0	0	450	411	
0	0	0	0	0	450	415	
1	0	0	0	0	451	411	
2	0	0	0	0	451	410	
3	0	0	0	0	451	411	
4	0	0	0	0	452	405	
5	0	0	0	0	452	411	
6	0	0	0	0	453	410	
7	0	0	0	0	453	411	
8	0	0	0	0	454	415	
9	0	0	0	0	455	409	
10	0	0	0	0	455	409	
11	0	0	0	0	455	410	
12	0	0	0	0	456	405	
13	0	0	0	0	456	410	
14	0	0	0	0	457	410	
15	0	0	0	0	457	411	
0	0	0	0	0	458	415	
1	0	0	0	0	459	410	
2	0	0	0	0	459	411	
3	0	0	0	0	459	410	
4	0	0	0	0	459	405	
5	0	0	0	0	459	411	
6	0	0	0	0	459	411	
7	0	0	0	0	460	411	
8	0	0	0	0	460	415	
9	0	0	0	0	460	411	
10	0	0	0	0	460	411	
11	0	0	0	0	460	410	
12	0	0	0	0	460	405	
13	0	0	0	0	460	410	
14	0	0	0	0	461	410	
15	0	0	0	0	461	409	
0	0	0	0	0	461	414	
1	0	0	0	0	462	409	
2	0	0	0	0	462	409	
3	0	0	0	0	462	410	
4	0	0	0	0	462	405	
5	0	0	0	0	463	409	
6	0	0	0	0	463	410	
7	0	0	0	0	463	410	
8	0	0	0	0	463	415	
9	0	0	0	0	464	410	
10	0	0	0	0	463	410	
11	0	0	0	0	463	410	
12	0	0	0	0	463	405	
13	0	0	0	0	463	410	
14	0	0	0	0	463	411	
15	0	0	0	0	464	411	
0	0	0	0	0	464	415	
1	0	0	0	0	465	411	
2	0	0	0	0	465	411	
3	0	0	0	0	465	411	
4	0	0	0	0	465	406	
5	0	0	0	0	465	411	
6	0	0	0	0	466	411	
7	0	0	0	0	466	411	
8	0	0	0	0	466	416	
9	0	0	0	0	466	411	
10	0	0	0	0	466	411	
11	0	0	0	0	466	411	
12	0	0	0	0	466	406	
13	0	0	0	0	467	412	
14	0	0	0	0	467	411	
15	0	0	0	0	467	412	
0	0	0	0	0	468	416	
1	0	0	0	0	468	412	
2	0	0	0	0	468	411	
3	0	0	0	0	468	412	
4	0	0	0	0	468	407	
5	0	0	0	0	468	411	
6	0	0	0	0	468	412	
7	0	0	0	0	469	412	
8	0	0	0	0	468	416	
9	0	0	0	0	469	412	
10	0	0	0	0	469	411	
11	0	0	0	0	469	411	
12	0	0	0	0	470	407	
13	0	0	0	0	470	412	
14	0	0	0	0	470	412	
15	0	0	0	0	470	412	
0	0	0	0	0	471	416	
1	0	0	0	0	471	412	
2	0	0	0	0	472	411	
3	0	0	0	0	472	411	
4	0	0	0	0	472	405	
5	0	0	0	0	472	411	
6	0	0	0	0	472	410	
7	0	0	0	0	472	411	
8	0	0	0	0	472	415	
9	0	0	0	0	472	410	
10	0	0	0	0	472	411	
11	0	0	0	0	473	411	
12	0	0	0	0	474	405	
13	0	0	0	0	475	411	
14	0	0	0	0	476	410	
15	0	0	0	0	477	410	
0	0	0	0	0	478	415	
1	0	0	0	0	479	409	
2	0	0	0	0	478	410	
3	0	0	0	0	479	409	
4	0	0	0	0	479	404	
5	0	0	0	0	480	409	
6	0	0	0	0	480	409	
7	0	0	0	0	481	409	
8	0	0	0	0	481	414	
9	0	0	0	0	482	409	
10	0	0	0	0	482	409	
11	0	0	0	0	483	409	
12	0	0	0	0	484	404	
13	0	0	0	0	484	410	
14	0	0	0	0	485	410	
15	0	0	0	0	486	410	
0	0	0	0	0	487	415	
1	0	0	0	0	488	411	
2	0	0	0	0	488	410	
3	0	0	0	0	489	410	
4	0	0	0	0	489	405	
5	0	0	0	0	490	411	
6	0	0	0	0	491	410	
7	0	0	0	0	492	411	
8	0	0	0	0	494	415	
9	0	0	0	0	494	411	
10	0	0	0	0	495	411	
11	0	0	0	0	497	411	
12	0	0	0	0	497	406	
13	0	0	0	0	499	411	
14	0	0	0	0	500	411	
15	0	0	0	0	501	411	
0	0	0	0	0	502	415	
1	0	0	0	0	503	411	
2	0	0	0	0	504	411	
3	0	0	0	0	505	410	
4	0	0	0	0	506	405	
5	0	0	0	0	507	410	
6	0	0	0	0	508	410	
7	0	0	0	0	509	410	
8	0	0	0	0	510	415	
9	0	0	0	0	510	410	
10	0	0	0	0	511	411	
11	0	0	0	0	512	410	
12	0	0	0	0	513	405	
13	0	0	0	0	513	411	
14	0	0	0	0	515	410	
15	0	0	0	0	516	410	
0	0	0	0	0	517	415	
1	0	0	0	0	518	411	
2	0	0	0	0	519	410	
3	0	0	0	0	520	410	
4	0	0	0	0	521	405	
5	0	0	0	0	522	410	
6	0	0	0	0	523	410	
7	0	0	0	0	523	410	
8	0	0	0	0	524	415	
9	0	0	0	0	525	410	
10	0	0	0	0	526	411	
11	0	0	0	0	527	410	
12	0	0	0	0	527	405	
13	0	0	0	0	528	411	
14	0	0	0	0	528	411	
15	0	0	0	0	528	411	
0	0	0	0	0	528	415	
1	0	0	0	0	528	411	
2	0	0	0	0	529	411	
3	0	0	0	0	529	411	
4	0	0	0	0	529	406	
5	0	0	0	0	528	411	
6	0	0	0	0	528	411	
7	0	0	0	0	527	411	
8	0	0	0	0	527	415	
9	0	0	0	0	527	411	
10	0	0	0	0	526	411	
11	0	0	0	0	526	411	
12	0	0	0	0	526	406	
13	0	0	0	0	526	410	
14	0	0	0	0	526	411	
15	0	0	0	0	525	412	
0	0	0	0	0	525	416	
1	0	0	0	0	525	412	
2	0	0	0	0	525	412	
3	0	0	0	0	524	411	
4	0	0	0	0	524	407	
5	0	0	0	0	524	411	
6	0	0	0	0	524	411	
7	0	0	0	0	524	411	
8	0	0	0	0	524	416	
9	0	0	0	0	525	411	
10	0	0	0	0	525	411	
11	0	0	0	0	524	410	
12	0	0	0	0	524	405	
13	0	0	0	0	524	411	
14	0	0	0	0	524	411	
15	0	0	0	0	524	412	
0	0	0	0	0	524	415	
1	0	0	0	0	524	411	
2	0	0	0	0	524	412	
3	0	0	0	0	523	411	
4	0	0	0	0	523	406	
5	0	0	0	0	523	411	
6	0	0	0	0	523	412	
7	0	0	0	0	522	412	
8	0	0	0	0	522	416	
9	0	0	0	0	523	412	
10	0	0	0	0	522	412	
11	0	0	0	0	522	411	
12	0	0	0	0	522	407	
13	0	0	0	0	523	411	
14	0	0	0	0	523	412	
15	0	0	0	0	523	412	
0	0	0	0	0	523	416	
1	0	0	0	0	523	411	
2	0	0	0	0	522	411	
3	0	0	0	0	522	411	
4	0	0	0	0	522	406	
5	0	0	0	0	522	410	
6	0	0	0	0	522	410	
7	0	0	0	0	521	411	
8	0	0	0	0	521	415	
9	0	0	0	0	522	410	
10	0	0	0	0	521	410	
11	0	0	0	0	521	410	
12	0	0	0	0	522	405	
13	0	0	0	0	522	410	
14	0	0	0	0	521	411	
15	0	0	0	0	522	411	
0	0	0	0	0	521	415	
1	0	0	0	0	521	409	
2	0	0	0	0	521	410	
3	0	0	0	0	521	409	
4	0	0	0	0	521	405	
5	0	0	0	0	521	410	
6	0	0	0	0	521	410	
7	0	0	0	0	520	410	
8	0	0	0	0	521	415	
9	0	0	0	0	521	410	
10	0	0	0	0	521	410	
11	0	0	0	0	521	410	
12	0	0	0	0	520	406	
13	0	0	0	0	520	411	
14	0	0	0	0	520	410	
15	0	0	0	0	519	410	
0	0	0	0	0	519	415	
1	0	0	0	0	520	410	
2	0	0	0	0	519	410	
3	0	0	0	0	519	409	
4	0	0	0	0	519	405	
5	0	0	0	0	519	410	
6	0	0	0	0	519	411	
7	0	0	0	0	519	410	
8	0	0	0	0	518	415	
9	0	0	0	0	518	410	
10	0	0	0	0	518	410	
11	0	0	0	0	518	409	
12	0	0	0	0	519	405	
13	0	0	0	0	519	410	
14	0	0	0	0	519	410	
15	0	0	0	0	519	410	
0	0	0	0	0	519	415	
1	0	0	0	0	519	410	
2	0	0	0	0	518	410	
3	0	0	0	0	519	410	
4	0	0	0	0	518	405	
5	0	0	0	0	518	410	
6	0	0	0	0	518	410	
7	0	0	0	0	518	411	
8	0	0	0	0	518	415	
9	0	0	0	0	519	411	
10	0	0	0	0	518	411	
11	0	0	0	0	518	411	
12	0	0	0	0	518	406	
13	0	0	0	0	518	411	
14	0	0	0	0	518	411	
15	0	0	0	0	518	412	
0	0	0	0	0	519	416	
1	0	0	0	0	518	411	
2	0	0	0	0	518	412	
3	0	0	0	0	518	411	
4	0	0	0	0	518	406	
5	0	0	0	0	518	412	
6	0	0	0	0	519	412	
7	0	0	0	0	519	412	
8	0	0	0	0	519	415	
9	0	0	0	0	519	411	
10	0	0	0	0	518	411	
11	0	0	0	0	519	411	
12	0	0	0	0	518	406	
13	0	0	0	0	518	411	
14	0	0	0	0	518	412	
15	0	0	0	0	518	411	
0	0	0	0	0	518	416	
1	0	0	0	0	518	411	
2	0	0	0	0	519	411	
3	0	0	0	0	519	411	
4	0	0	0	0	518	406	
5	0	0	0	0	517	411	
6	0	0	0	0	517	411	
7	0	0	0	0	516	411	
8	0	0	0	0	516	415	
9	0	0	0	0	516	411	
10	0	0	0	0	516	411	
11	0	0	0	0	516	411	
12	0	0	0	0	516	406	
13	0	0	0	0	516	411	
14	0	0	0	0	516	411	
15	0	0	0	0	516	412	
0	0	0	0	0	517	416	
1	0	0	0	0	518	412	
2	0	0	0	0	518	412	
3	0	0	0	0	518	411	
4	0	0	0	0	518	406	
5	0	0	0	0	518	411	
6	0	0	0	0	518	411	
7	0	0	0	0	518	411	
8	0	0	0	0	518	416	
9	0	0	0	0	518	411	
10	0	0	0	0	517	411	
11	0	0	0	0	517	410	
12	0	0	0	0	517	406	
13	0	0	0	0	517	411	
14	0	0	0	0	517	411	
15	0	0	0	0	517	410	
0	0	0	0	0	517	415	
1	0	0	0	0	517	411	
2	0	0	0	0	517	410	
3	0	0	0	0	517	411	
4	0	0	0	0	517	406	
5	0	0	0	0	517	411	
6	0	0	0	0	517	411	
7	0	0	0	0	517	412	
8	0	0	0	0	517	416	
9	0	0	0	0	518	411	
10	0	0	0	0	518	411	
11	0	0	0	0	519	411	
12	0	0	0	0	519	406	
13	0	0	0	0	519	411	
14	0	0	0	0	518	411	
15	0	0	0	0	518	411	
0	0	0	0	0	519	416	
1	0	0	0	0	519	411	
2	0	0	0	0	518	411	
3	0	0	0	0	518	410	
4	0	0	0	0	518	405	
5	0	0	0	0	518	410	
6	0	0	0	0	518	410	
7	0	0	0	0	518	411	
8	0	0	0	0	518	415	
9	0	0	0	0	518	410	
10	0	0	0	0	518	410	
11	0	0	0	0	518	409	
12	0	0	0	0	518	405	
13	0	0	0	0	518	409	
14	0	0	0	0	518	411	
15	0	0	0	0	518	411	
0	0	0	0	0	518	415	
1	0	0	0	0	517	410	
2	0	0	0	0	516	409	
3	0	0	0	0	517	410	
4	0	0	0	0	517	404	
5	0	0	0	0	517	410	
6	0	0	0	0	516	410	
7	0	0	0	0	516	410	
8	0	0	0	0	516	415	
9	0	0	0	0	515	409	
10	0	0	0	0	515	410	
11	0	0	0	0	515	409	
12	0	0	0	0	515	405	
13	0	0	0	0	515	410	
14	0	0	0	0	515	410	
15	0	0	0	0	515	410	
0	0	0	0	0	516	414	
1	0	0	0	0	516	410	
2	0	0	0	0	516	410	
3	0	0	0	0	515	409	
4	0	0	0	0	515	405	
5	0	0	0	0	515	410	
6	0	0	0	0	516	411	
7	0	0	0	0	516	412	
8	0	0	0	0	516	415	
9	0	0	0	0	517	410	
10	0	0	0	0	516	411	
11	0	0	0	0	515	410	
12	0	0	0	0	515	405	
13	0	0	0	0	515	410	
14	0	0	0	0	514	411	
15	0	0	0	0	514	411	
0	0	0	0	0	514	415	
1	0	0	0	0	514	409	
2	0	0	0	0	514	410	
3	0	0	0	0	515	411	
4	0	0	0	0	515	405	
5	0	0	0	0	515	410	
6	0	0	0	0	515	411	
7	0	0	0	0	515	411	
8	0	0	0	0	515	415	
9	0	0	0	0	514	411	
10	0	0	0	0	515	411	
11	0	0	0	0	514	411	
12	0	0	0	0	514	406	
13	0	0	0	0	513	411	
14	0	0	0	0	513	411	
15	0	0	0	0	513	411	
0	0	0	0	0	513	416	
1	0	0	0	0	514	411	
2	0	0	0	0	514	411	
3	0	0	0	0	513	411	
4	0	0	0	0	513	406	
5	0	0	0	0	513	411	
6	0	0	0	0	513	411	
7	0	0	0	0	513	411	
8	0	0	0	0	513	416	
9	0	0	0	0	513	411	
10	0	0	0	0	513	411	
11	0	0	0	0	514	410	
12	0	0	0	0	513	405	
13	0	0	0	0	514	411	
14	0	0	0	0	514	411	
15	0	0	0	0	514	411	
0	0	0	0	0	514	415	
1	0	0	0	0	515	411	
2	0	0	0	0	515	411	
3	0	0	0	0	515	411	
4	0	0	0	0	515	406	
5	0	0	0	0	515	411	
6	0	0	0	0	515	411	
7	0	0	0	0	515	411	
8	0	0	0	0	515	415	
9	0	0	0	0	515	411	
10	0	0	0	0	515	411	
11	0	0	0	0	515	411	
12	0	0	0	0	515	406	
13	0	0	0	0	516	411	
14	0	0	0	0	516	411	
15	0	0	0	0	515	411	
0	0	0	0	0	515	415	
1	0	0	0	0	515	411	
2	0	0	0	0	514	411	
3	0	0	0	0	514	410	
4	0	0	0	0	513	406	
5	0	0	0	0	512	411	
6	0	0	0	0	512	411	
7	0	0	0	0	513	411	
8	0	0	0	0	512	415	
9	0	0	0	0	513	411	
10	0	0	0	0	512	411	
11	0	0	0	0	513	411	
12	0	0	0	0	513	406	
13	0	0	0	0	513	411	
14	0	0	0	0	513	411	
15	0	0	0	0	513	411	
0	0	0	0	0	513	416	
1	0	0	0	0	513	410	
2	0	0	0	0	513	410	
3	0	0	0	0	513	411	
4	0	0	0	0	513	405	
5	0	0	0	0	513	410	
6	0	0	0	0	513	409	
7	0	0	0	0	513	410	
8	0	0	0	0	513	415	
9	0	0	0	0	513	410	
10	0	0	0	0	513	410	
11	0	0	0	0	513	410	
12	0	0	0	0	513	405	
13	0	0	0	0	512	410	
14	0	0	0	0	512	410	
15	0	0	0	0	511	411	
0	0	0	0	0	511	415	
1	0	0	0	0	511	410	
2	0	0	0	0	511	410	
3	0	0	0	0	511	410	
4	0	0	0	0	511	406	
5	0	0	0	0	511	411	
6	0	0	0	0	511	411	
7	0	0	0	0	511	411	
8	0	0	0	0	511	415	
9	0	0	0	0	511	411	
10	0	0	0	0	510	411	
11	0	0	0	0	509	410	
12	0	0	0	0	508	405	
13	0	0	0	0	508	410	
14	0	0	0	0	507	411	
15	0	0	0	0	507	411	
0	0	0	0	0	505	415	
1	0	0	0	0	505	411	
2	0	0	0	0	505	411	
3	0	0	0	0	504	411	
4	0	0	0	0	504	405	
5	0	0	0	0	504	411	
6	0	0	0	0	504	412	
7	0	0	0	0	504	411	
8	0	0	0	0	504	416	
9	0	0	0	0	504	411	
10	0	0	0	0	505	411	
11	0	0	0	0	505	411	
12	0	0	0	0	505	406	
13	0	0	0	0	505	411	
14	0	0	0	0	505	411	
15	0	0	0	0	506	412	
0	0	0	0	0	506	416	
1	0	0	0	0	506	411	
2	0	0	0	0	507	411	
3	0	0	0	0	508	410	
4	0	0	0	0	508	404	
5	0	0	0	0	509	411	
6	0	0	0	0	510	410	
7	0	0	0	0	511	411	
8	0	0	0	0	511	414	
9	0	0	0	0	511	410	
10	0	0	0	0	511	411	
11	0	0	0	0	510	410	
12	0	0	0	0	511	406	
13	0	0	0	0	511	411	
14	0	0	0	0	512	411	
15	0	0	0	0	512	411	
0	0	0	0	0	512	415	
1	0	0	0	0	513	411	
2	0	0	0	0	513	411	
3	0	0	0	0	513	411	
4	0	0	0	0	513	406	
5	0	0	0	0	513	411	
6	0	0	0	0	514	411	
7	0	0	0	0	515	411	
8	0	0	0	0	515	416	
9	0	0	0	0	516	412	
10	0	0	0	0	515	411	
11	0	0	0	0	515	411	
12	0	0	0	0	515	406	
13	0	0	0	0	515	411	
14	0	0	0	0	515	411	
15	0	0	0	0	516	411	
0	0	0	0	0	517	415	
1	0	0	0	0	517	410	
2	0	0	0	0	516	411	
3	0	0	0	0	516	410	
4	0	0	0	0	516	406	
5	0	0	0	0	516	410	
6	0	0	0	0	516	411	
7	0	0	0	0	516	411	
8	0	0	0	0	516	415	
9	0	0	0	0	516	411	
10	0	0	0	0	516	412	
11	0	0	0	0	515	411	
12	0	0	0	0	515	406	
13	0	0	0	0	515	411	
14	0	0	0	0	515	411	
15	0	0	0	0	515	411	
0	0	0	0	0	515	415	
1	0	0	0	0	515	410	
2	0	0	0	0	515	411	
3	0	0	0	0	515	410	
4	0	0	0	0	515	406	
5	0	0	0	0	515	411	
6	0	0	0	0	515	410	
7	0	0	0	0	515	411	
8	0	0	0	0	514	415	
9	0	0	0	0	513	411	
10	0	0	0	0	512	411	
11	0	0	0	0	511	410	
12	0	0	0	0	511	405	
13	0	0	0	0	510	410	
14	0	0	0	0	510	411	
15	0	0	0	0	509	411	
0	0	0	0	0	509	416	
1	0	0	0	0	510	411	
2	0	0	0	0	509	411	
3	0	0	0	0	510	410	
4	0	0	0	0	511	406	
5	0	0	0	0	511	411	
6	0	0	0	0	511	411	
7	0	0	0	0	511	411	
8	0	0	0	0	510	415	
9	0	0	0	0	511	411	
10	0	0	0	0	510	411	
11	0	0	0	0	510	411	
12	0	0	0	0	510	406	
13	0	0	0	0	509	412	
14	0	0	0	0	510	412	
15	0	0	0	0	510	411	
0	0	0	0	0	510	416	
1	0	0	0	0	510	411	
2	0	0	0	0	510	411	
3	0	0	0	0	510	410	
4	0	0	0	0	511	404	
5	0	0	0	0	510	410	
6	0	0	0	0	511	410	
7	0	0	0	0	511	411	
8	0	0	0	0	511	415	
9	0	0	0	0	511	410	
10	0	0	0	0	510	411	
11	0	0	0	0	511	410	
12	0	0	0	0	511	405	
13	0	0	0	0	511	410	
14	0	0	0	0	511	411	
15	0	0	0	0	511	411	
0	0	0	0	0	510	415	
1	0	0	0	0	511	411	
2	0	0	0	0	510	411	
3	0	0	0	0	509	410	
4	0	0	0	0	510	406	
5	0	0	0	0	510	411	
6	0	0	0	0	510	411	
7	0	0	0	0	509	411	
8	0	0	0	0	508	415	
9	0	0	0	0	507	411	
10	0	0	0	0	506	410	
11	0	0	0	0	504	410	
12	0	0	0	0	502	405	
13	0	0	0	0	499	411	
14	0	0	0	0	494	411	
15	0	0	0	0	489	411	
0	0	0	0	0	484	416	
1	0	0	0	0	479	410	
2	0	0	0	0	474	411	
3	0	0	0	0	470	410	
4	0	0	0	0	467	405	
5	0	0	0	0	465	410	
6	0	0	0	0	462	410	
7	0	0	0	0	458	410	
8	0	0	0	0	454	415	
9	0	0	0	0	451	410	
10	0	0	0	0	448	410	
11	0	0	0	0	444	410	
12	0	0	0	0	442	406	
13	0	0	0	0	441	410	
14	0	0	0	0	441	410	
15	0	0	0	0	444	411	
0	0	0	0	0	450	415	
1	0	0	0	0	460	410	
2	0	0	0	0	473	411	
3	0	0	0	0	488	410	
4	0	0	0	0	504	405	
5	0	0	0	0	518	411	
6	0	0	0	0	532	411	
7	0	0	0	0	547	411	
8	0	0	0	0	562	415	
9	0	0	0	0	577	411	
10	0	0	0	0	594	411	
11	0	0	0	0	614	411	
12	0	0	0	0	632	406	
13	0	0	0	0	648	410	
14	0	0	0	0	664	410	
15	0	0	0	0	680	411	
0	0	0	0	0	693	415	
1	0	0	0	0	702	411	
2	0	0	0	0	711	411	
3	0	0	0	0	718	410	
4	0	0	0	0	727	405	
5	0	0	0	0	735	410	
6	0	0	0	0	739	411	
7	0	0	0	0	741	411	
8	0	0	0	0	742	415	
9	0	0	0	0	742	410	
10	0	0	0	0	739	411	
11	0	0	0	0	730	410	
12	0	0	0	0	720	405	
13	0	0	0	0	708	411	
14	0	0	0	0	696	411	
15	0	0	0	0	690	411	
0	0	0	0	0	686	416	
1	0	0	0	0	680	411	
2	0	0	0	0	673	411	
3	0	0	0	0	668	411	
4	0	0	0	0	659	405	
5	0	0	0	0	652	411	
6	0	0	0	0	642	411	
7	0	0	0	0	632	411	
8	0	0	0	0	620	416	
9	0	0	0	0	608	411	
10	0	0	0	0	597	411	
11	0	0	0	0	584	410	
12	0	0	0	0	572	406	
13	0	0	0	0	561	411	
14	0	0	0	0	550	411	
15	0	0	0	0	540	411	
0	0	0	0	0	530	416	
1	0	0	0	0	520	411	
2	0	0	0	0	512	411	
3	0	0	0	0	505	411	
4	0	0	0	0	499	406	
5	0	0	0	0	494	411	
6	0	0	0	0	488	411	
7	0	0	0	0	483	411	
8	0	0	0	0	479	415	
9	0	0	0	0	474	411	
10	0	0	0	0	469	411	
11	0	0	0	0	464	410	
12	0	0	0	0	460	405	
13	0	0	0	0	457	410	
14	0	0	0	0	455	411	
15	0	0	0	0	453	410	
0	0	0	0	0	451	415	
1	0	0	0	0	450	410	
2	0	0	0	0	449	410	
3	0	0	0	0	449	410	
4	0	0	0	0	448	404	
5	0	0	0	0	447	410	
6	0	0	0	0	447	410	
7	0	0	0	0	446	410	
8	0	0	0	0	446	415	
9	0	0	0	0	446	411	
10	0	0	0	0	446	411	
11	0	0	0	0	446	409	
12	0	0	0	0	445	405	
13	0	0	0	0	446	409	
14	0	0	0	0	445	409	
15	0	0	0	0	445	410	
0	0	0	0	0	445	415	
1	0	0	0	0	446	410	
2	0	0	0	0	446	410	
3	0	0	0	0	447	410	
4	0	0	0	0	446	405	
5	0	0	0	0	446	410	
6	0	0	0	0	447	410	
7	0	0	0	0	448	411	
8	0	0	0	0	448	415	
9	0	0	0	0	448	409	
10	0	0	0	0	449	409	
11	0	0	0	0	449	410	
12	0	0	0	0	450	404	
13	0	0	0	0	451	410	
14	0	0	0	0	451	410	
15	0	0	0	0	451	410	
0	0	0	0	0	451	415	
1	0	0	0	0	452	411	
2	0	0	0	0	452	410	
3	0	0	0	0	452	410	
4	0	0	0	0	453	405	
5	0	0	0	0	454	411	
6	0	0	0	0	455	410	
7	0	0	0	0	455	411	
8	0	0	0	0	456	415	
9	0	0	0	0	456	410	
10	0	0	0	0	456	410	
11	0	0	0	0	458	410	
12	0	0	0	0	458	405	
13	0	0	0	0	458	411	
14	0	0	0	0	459	410	
15	0	0	0	0	458	411	
0	0	0	0	0	458	415	
1	0	0	0	0	458	410	
2	0	0	0	0	458	411	
3	0	0	0	0	459	411	
4	0	0	0	0	459	406	
5	0	0	0	0	460	412	
6	0	0	0	0	461	411	
7	0	0	0	0	462	412	
8	0	0	0	0	462	415	
9	0	0	0	0	462	411	
10	0	0	0	0	462	411	
11	0	0	0	0	462	411	
12	0	0	0	0	463	406	
13	0	0	0	0	462	412	
14	0	0	0	0	462	411	
15	0	0	0	0	462	412	
0	0	0	0	0	463	415	
1	0	0	0	0	463	411	
2	0	0	0	0	463	411	
3	0	0	0	0	463	411	
4	0	0	0	0	463	406	
5	0	0	0	0	463	412	
6	0	0	0	0	464	411	
7	0	0	0	0	465	412	
8	0	0	0	0	465	416	
9	0	0	0	0	465	411	
10	0	0	0	0	465	412	
11	0	0	0	0	465	412	
12	0	0	0	0	465	406	
13	0	0	0	0	464	411	
14	0	0	0	0	464	411	
15	0	0	0	0	464	412	
0	0	0	0	0	464	415	
1	0	0	0	0	464	411	
2	0	0	0	0	465	411	
3	0	0	0	0	464	411	
4	0	0	0	0	464	406	
5	0	0	0	0	464	411	
6	0	0	0	0	465	411	
7	0	0	0	0	465	411	
8	0	0	0	0	464	416	
9	0	0	0	0	465	411	
10	0	0	0	0	466	412	
11	0	0	0	0	466	411	
12	0	0	0	0	467	406	
13	0	0	0	0	468	411	
14	0	0	0	0	468	411	
15	0	0	0	0	468	412	
0	0	0	0	0	468	417	
1	0	0	0	0	467	412	
2	0	0	0	0	468	412	
3	0	0	0	0	468	411	
4	0	0	0	0	469	407	
5	0	0	0	0	470	411	
6	0	0	0	0	471	412	
7	0	0	0	0	471	412	
8	0	0	0	0	472	416	
9	0	0	0	0	472	411	
10	0	0	0	0	471	411	
11	0	0	0	0	470	411	
12	0	0	0	0	469	406	
13	0	0	0	0	468	411	
14	0	0	0	0	469	411	
15	0	0	0	0	469	411	
0	0	0	0	0	468	415	
1	0	0	0	0	469	411	
2	0	0	0	0	469	410	
3	0	0	0	0	469	410	
4	0	0	0	0	469	405	
5	0	0	0	0	469	410	
6	0	0	0	0	469	410	
7	0	0	0	0	469	410	
8	0	0	0	0	469	415	
9	0	0	0	0	470	410	
10	0	0	0	0	470	411	
11	0	0	0	0	471	409	
12	0	0	0	0	471	405	
13	0	0	0	0	472	411	
14	0	0	0	0	472	411	
15	0	0	0	0	472	410	
0	0	0	0	0	473	415	
1	0	0	0	0	474	411	
2	0	0	0	0	475	411	
3	0	0	0	0	475	410	
4	0	0	0	0	475	406	
5	0	0	0	0	476	411	
6	0	0	0	0	476	411	
7	0	0	0	0	477	411	
8	0	0	0	0	478	415	
9	0	0	0	0	479	411	
10	0	0	0	0	480	411	
11	0	0	0	0	481	411	
12	0	0	0	0	481	406	
13	0	0	0	0	481	411	
14	0	0	0	0	482	411	
15	0	0	0	0	483	411	
0	0	0	0	0	484	415	
1	0	0	0	0	485	410	
2	0	0	0	0	486	410	
3	0	0	0	0	486	410	
4	0	0	0	0	486	405	
5	0	0	0	0	487	410	
6	0	0	0	0	488	410	
7	0	0	0	0	488	411	
8	0	0	0	0	489	415	
9	0	0	0	0	491	410	
10	0	0	0	0	491	411	
11	0	0	0	0	492	410	
12	0	0	0	0	493	405	
13	0	0	0	0	493	410	
14	0	0	0	0	493	410	
15	0	0	0	0	495	411	
0	0	0	0	0	496	415	
1	0	0	0	0	497	410	
2	0	0	0	0	498	410	
3	0	0	0	0	499	410	
4	0	0	0	0	501	405	
5	0	0	0	0	501	410	
6	0	0	0	0	502	410	
7	0	0	0	0	503	410	
8	0	0	0	0	504	415	
9	0	0	0	0	505	410	
10	0	0	0	0	505	410	
11	0	0	0	0	505	411	
12	0	0	0	0	507	405	
13	0	0	0	0	507	411	
14	0	0	0	0	509	411	
15	0	0	0	0	509	411	
0	0	0	0	0	509	415	
1	0	0	0	0	510	410	
2	0	0	0	0	511	410	
3	0	0	0	0	512	410	
4	0	0	0	0	512	406	
5	0	0	0	0	512	410	
6	0	0	0	0	513	410	
7	0	0	0	0	514	411	
8	0	0	0	0	514	415	
9	0	0	0	0	516	410	
10	0	0	0	0	517	410	
11	0	0	0	0	518	410	
12	0	0	0	0	519	405	
13	0	0	0	0	520	411	
14	0	0	0	0	520	410	
15	0	0	0	0	522	410	
0	0	0	0	0	522	414	
1	0	0	0	0	522	410	
2	0	0	0	0	524	410	
3	0	0	0	0	524	410	
4	0	0	0	0	525	404	
5	0	0	0	0	526	409	
6	0	0	0	0	526	410	
7	0	0	0	0	527	410	
8	0	0	0	0	526	415	
9	0	0	0	0	526	410	
10	0	0	0	0	526	410	
11	0	0	0	0	526	410	
12	0	0	0	0	526	406	
13	0	0	0	0	527	411	
14	0	0	0	0	526	410	
15	0	0	0	0	526	411	
0	0	0	0	0	526	415	
1	0	0	0	0	526	410	
2	0	0	0	0	526	410	
3	0	0	0	0	526	410	
4	0	0	0	0	526	405	
5	0	0	0	0	526	410	
6	0	0	0	0	526	410	
7	0	0	0	0	526	410	
8	0	0	0	0	525	415	
9	0	0	0	0	525	411	
10	0	0	0	0	525	411	
11	0	0	0	0	525	409	
12	0	0	0	0	525	405	
13	0	0	0	0	524	410	
14	0	0	0	0	525	410	
15	0	0	0	0	524	411	
0	0	0	0	0	524	415	
1	0	0	0	0	524	410	
2	0	0	0	0	524	410	
3	0	0	0	0	525	410	
4	0	0	0	0	526	405	
5	0	0	0	0	526	410	
6	0	0	0	0	525	410	
7	0	0	0	0	524	410	
8	0	0	0	0	524	416	
9	0	0	0	0	524	411	
10	0	0	0	0	523	411	
11	0	0	0	0	523	411	
12	0	0	0	0	524	405	
13	0	0	0	0	524	411	
14	0	0	0	0	524	411	
15	0	0	0	0	524	411	
0	0	0	0	0	524	415	
1	0	0	0	0	524	411	
2	0	0	0	0	524	411	
3	0	0	0	0	524	410	
4	0	0	0	0	523	406	
5	0	0	0	0	523	411	
6	0	0	0	0	523	411	
7	0	0	0	0	522	411	
8	0	0	0	0	522	416	
9	0	0	0	0	522	411	
10	0	0	0	0	521	412	
11	0	0	0	0	521	410	
12	0	0	0	0	521	406	
13	0	0	0	0	521	411	
14	0	0	0	0	521	411	
15	0	0	0	0	521	411	
0	0	0	0	0	521	416	
1	0	0	0	0	521	411	
2	0	0	0	0	520	411	
3	0	0	0	0	521	411	
4	0	0	0	0	521	406	
5	0	0	0	0	521	411	
6	0	0	0	0	521	411	
7	0	0	0	0	521	411	
8	0	0	0	0	521	415	
9	0	0	0	0	521	411	
10	0	0	0	0	521	411	
11	0	0	0	0	521	411	
12	0	0	0	0	521	406	
13	0	0	0	0	521	410	
14	0	0	0	0	521	411	
15	0	0	0	0	520	410	
0	0	0	0	0	520	415	
1	0	0	0	0	520	410	
2	0	0	0	0	520	410	
3	0	0	0	0	519	410	
4	0	0	0	0	519	406	
5	0	0	0	0	518	411	
6	0	0	0	0	518	410	
7	0	0	0	0	518	411	
8	0	0	0	0	517	415	
9	0	0	0	0	518	411	
10	0	0	0	0	518	411	
11	0	0	0	0	519	411	
12	0	0	0	0	519	406	
13	0	0	0	0	518	411	
14	0	0	0	0	519	411	
15	0	0	0	0	519	411	
0	0	0	0	0	519	415	
1	0	0	0	0	519	411	
2	0	0	0	0	519	410	
3	0	0	0	0	518	410	
4	0	0	0	0	518	405	
5	0	0	0	0	517	410	
6	0	0	0	0	517	410	
7	0	0	0	0	516	411	
8	0	0	0	0	516	415	
9	0	0	0	0	517	410	
10	0	0	0	0	516	411	
11	0	0	0	0	517	410	
12	0	0	0	0	518	405	
13	0	0	0	0	518	410	
14	0	0	0	0	518	411	
15	0	0	0	0	518	410	
0	0	0	0	0	518	415	
1	0	0	0	0	518	411	
2	0	0	0	0	518	410	
3	0	0	0	0	517	409	
4	0	0	0	0	517	405	
5	0	0	0	0	517	411	
6	0	0	0	0	517	411	
7	0	0	0	0	517	410	
8	0	0	0	0	517	415	
9	0	0	0	0	517	410	
10	0	0	0	0	517	411	
11	0	0	0	0	517	410	
12	0	0	0	0	517	405	
13	0	0	0	0	517	410	
14	0	0	0	0	517	411	
15	0	0	0	0	516	411	
0	0	0	0	0	516	415	
1	0	0	0	0	516	410	
2	0	0	0	0	516	411	
3	0	0	0	0	516	410	
4	0	0	0	0	516	405	
5	0	0	0	0	517	410	
6	0	0	0	0	516	411	
7	0	0	0	0	516	410	
8	0	0	0	0	516	414	
9	0	0	0	0	516	411	
10	0	0	0	0	516	411	
11	0	0	0	0	517	410	
12	0	0	0	0	517	405	
13	0	0	0	0	517	410	
14	0	0	0	0	517	410	
15	0	0	0	0	516	410	
0	0	0	0	0	516	415	
1	0	0	0	0	516	411	
2	0	0	0	0	516	409	
3	0	0	0	0	516	410	
4	0	0	0	0	517	404	
5	0	0	0	0	516	410	
6	0	0	0	0	517	409	
7	0	0	0	0	517	410	
8	0	0	0	0	517	415	
9	0	0	0	0	517	410	
10	0	0	0	0	517	411	
11	0	0	0	0	518	410	
12	0	0	0	0	518	406	
13	0	0	0	0	518	411	
14	0	0	0	0	518	411	
15	0	0	0	0	518	411	
0	0	0	0	0	518	415	
1	0	0	0	0	518	411	
2	0	0	0	0	518	410	
3	0	0	0	0	517	410	
4	0	0	0	0	517	405	
5	0	0	0	0	517	410	
6	0	0	0	0	518	410	
7	0	0	0	0	517	410	
8	0	0	0	0	518	415	
9	0	0	0	0	517	410	
10	0	0	0	0	518	410	
11	0	0	0	0	518	410	
12	0	0	0	0	519	404	
13	0	0	0	0	519	410	
14	0	0	0	0	519	410	
15	0	0	0	0	519	411	
0	0	0	0	0	519	415	
1	0	0	0	0	520	411	
2	0	0	0	0	520	410	
3	0	0	0	0	519	410	
4	0	0	0	0	519	405	
5	0	0	0	0	519	410	
6	0	0	0	0	519	411	
7	0	0	0	0	519	411	
8	0	0	0	0	518	415	
9	0	0	0	0	518	410	
10	0	0	0	0	518	410	
11	0	0	0	0	518	410	
12	0	0	0	0	518	404	
13	0	0	0	0	518	410	
14	0	0	0	0	518	411	
15	0	0	0	0	518	410	
0	0	0	0	0	517	415	
1	0	0	0	0	518	410	
2	0	0	0	0	519	411	
3	0	0	0	0	519	410	
4	0	0	0	0	519	405	
5	0	0	0	0	519	410	
6	0	0	0	0	518	411	
7	0	0	0	0	518	411	
8	0	0	0	0	518	415	
9	0	0	0	0	518	410	
10	0	0	0	0	517	411	
11	0	0	0	0	517	411	
12	0	0	0	0	516	405	
13	0	0	0	0	516	411	
14	0	0	0	0	516	410	
15	0	0	0	0	516	411	
0	0	0	0	0	516	415	
1	0	0	0	0	515	410	
2	0	0	0	0	516	411	
3	0	0	0	0	516	410	
4	0	0	0	0	516	405	
5	0	0	0	0	516	411	
6	0	0	0	0	516	410	
7	0	0	0	0	516	411	
8	0	0	0	0	515	416	
9	0	0	0	0	516	411	
10	0	0	0	0	515	411	
11	0	0	0	0	515	411	
12	0	0	0	0	515	406	
13	0	0	0	0	515	411	
14	0	0	0	0	515	410	
15	0	0	0	0	515	411	
0	0	0	0	0	515	415	
1	0	0	0	0	515	410	
2	0	0	0	0	514	410	
3	0	0	0	0	514	410	
4	0	0	0	0	513	405	
5	0	0	0	0	513	411	
6	0	0	0	0	513	410	
7	0	0	0	0	514	411	
8	0	0	0	0	514	415	
9	0	0	0	0	515	410	
10	0	0	0	0	515	410	
11	0	0	0	0	515	410	
12	0	0	0	0	515	405	
13	0	0	0	0	514	410	
14	0	0	0	0	513	410	
15	0	0	0	0	513	411	
0	0	0	0	0	513	416	
1	0	0	0	0	512	411	
2	0	0	0	0	512	411	
3	0	0	0	0	511	411	
4	0	0	0	0	511	406	
5	0	0	0	0	510	411	
6	0	0	0	0	510	411	
7	0	0	0	0	511	411	
8	0	0	0	0	511	416	
9	0	0	0	0	511	411	
10	0	0	0	0	512	411	
11	0	0	0	0	512	411	
12	0	0	0	0	512	406	
13	0	0	0	0	512	411	
14	0	0	0	0	511	411	
15	0	0	0	0	512	412	
0	0	0	0	0	512	416	
1	0	0	0	0	512	412	
2	0	0	0	0	511	410	
3	0	0	0	0	511	412	
4	0	0	0	0	510	406	
5	0	0	0	0	510	411	
6	0	0	0	0	510	410	
7	0	0	0	0	510	411	
8	0	0	0	0	510	416	
9	0	0	0	0	510	411	
10	0	0	0	0	509	411	
11	0	0	0	0	509	411	
12	0	0	0	0	510	406	
13	0	0	0	0	510	411	
14	0	0	0	0	510	411	
15	0	0	0	0	510	411	
0	0	0	0	0	509	416	
1	0	0	0	0	508	411	
2	0	0	0	0	508	411	
3	0	0	0	0	508	411	
4	0	0	0	0	508	406	
5	0	0	0	0	507	411	
6	0	0	0	0	507	411	
7	0	0	0	0	507	411	
8	0	0	0	0	507	415	
9	0	0	0	0	507	410	
10	0	0	0	0	507	409	
11	0	0	0	0	506	410	
12	0	0	0	0	507	403	
13	0	0	0	0	508	408	
14	0	0	0	0	508	409	
15	0	0	0	0	508	410	
0	0	0	0	0	508	416	
1	0	0	0	0	508	412	
2	0	0	0	0	508	413	
3	0	0	0	0	508	412	
4	0	0	0	0	508	407	
5	0	0	0	0	508	412	
6	0	0	0	0	508	412	
7	0	0	0	0	508	411	
8	0	0	0	0	508	415	
9	0	0	0	0	508	409	
10	0	0	0	0	508	410	
11	0	0	0	0	508	410	
12	0	0	0	0	508	405	
13	0	0	0	0	508	411	
14	0	0	0	0	507	411	
15	0	0	0	0	507	410	
0	0	0	0	0	507	415	
1	0	0	0	0	507	411	
2	0	0	0	0	506	411	
3	0	0	0	0	507	410	
4	0	0	0	0	507	406	
5	0	0	0	0	508	412	
6	0	0	0	0	508	412	
7	0	0	0	0	509	412	
8	0	0	0	0	509	416	
9	0	0	0	0	508	411	
10	0	0	0	0	508	410	
11	0	0	0	0	508	410	
12	0	0	0	0	508	405	
13	0	0	0	0	509	410	
14	0	0	0	0	508	411	
15	0	0	0	0	508	410	
0	0	0	0	0	508	415	
1	0	0	0	0	508	410	
2	0	0	0	0	508	411	
3	0	0	0	0	508	410	
4	0	0	0	0	508	406	
5	0	0	0	0	508	411	
6	0	0	0	0	508	412	
7	0	0	0	0	508	412	
8	0	0	0	0	508	416	
9	0	0	0	0	509	412	
10	0	0	0	0	508	411	
11	0	0	0	0	508	411	
12	0	0	0	0	509	406	
13	0	0	0	0	509	411	
14	0	0	0	0	508	411	
15	0	0	0	0	507	411	
0	0	0	0	0	507	415	
1	0	0	0	0	507	411	
2	0	0	0	0	507	410	
3	0	0	0	0	508	411	
4	0	0	0	0	508	405	
5	0	0	0	0	508	411	
6	0	0	0	0	509	411	
7	0	0	0	0	508	412	
8	0	0	0	0	509	416	
9	0	0	0	0	508	411	
10	0	0	0	0	509	412	
11	0	0	0	0	509	411	
12	0	0	0	0	509	406	
13	0	0	0	0	509	411	
14	0	0	0	0	509	411	
15	0	0	0	0	509	411	
0	0	0	0	0	510	415	
1	0	0	0	0	510	411	
2	0	0	0	0	510	411	
3	0	0	0	0	510	411	
4	0	0	0	0	509	406	
5	0	0	0	0	510	411	
6	0	0	0	0	510	411	
7	0	0	0	0	509	411	
8	0	0	0	0	508	415	
9	0	0	0	0	508	411	
10	0	0	0	0	507	411	
11	0	0	0	0	507	410	
12	0	0	0	0	508	405	
13	0	0	0	0	508	410	
14	0	0	0	0	508	411	
15	0	0	0	0	509	411	
0	0	0	0	0	509	415	
1	0	0	0	0	509	410	
2	0	0	0	0	509	411	
3	0	0	0	0	510	411	
4	0	0	0	0	511	406	
5	0	0	0	0	510	411	
6	0	0	0	0	509	411	
7	0	0	0	0	509	412	
8	0	0	0	0	510	416	
9	0	0	0	0	510	412	
10	0	0	0	0	510	411	
11	0	0	0	0	510	411	
12	0	0	0	0	509	406	
13	0	0	0	0	509	412	
14	0	0	0	0	508	411	
15	0	0	0	0	509	411	
0	0	0	0	0	509	416	
1	0	0	0	0	509	411	
2	0	0	0	0	509	411	
3	0	0	0	0	509	410	
4	0	0	0	0	509	405	
5	0	0	0	0	509	411	
6	0	0	0	0	509	411	
7	0	0	0	0	508	411	
8	0	0	0	0	508	415	
9	0	0	0	0	509	411	
10	0	0	0	0	508	411	
11	0	0	0	0	508	410	
12	0	0	0	0	508	405	
13	0	0	0	0	509	411	
14	0	0	0	0	509	411	
15	0	0	0	0	508	411	
0	0	0	0	0	509	415	
1	0	0	0	0	509	411	
2	0	0	0	0	508	410	
3	0	0	0	0	507	410	
4	0	0	0	0	507	406	
5	0	0	0	0	508	411	
6	0	0	0	0	508	411	
7	0	0	0	0	508	410	
8	0	0	0	0	508	415	
9	0	0	0	0	508	411	
10	0	0	0	0	508	410	
11	0	0	0	0	509	410	
12	0	0	0	0	508	405	
13	0	0	0	0	509	410	
14	0	0	0	0	510	409	
15	0	0	0	0	509	410	
0	0	0	0	0	508	414	
1	0	0	0	0	508	409	
2	0	0	0	0	508	410	
3	0	0	0	0	508	409	
4	0	0	0	0	508	404	
5	0	0	0	0	508	410	
6	0	0	0	0	508	410	
7	0	0	0	0	508	410	
8	0	0	0	0	508	415	
9	0	0	0	0	508	410	
10	0	0	0	0	508	409	
11	0	0	0	0	508	410	
12	0	0	0	0	508	405	
13	0	0	0	0	508	410	
14	0	0	0	0	508	410	
15	0	0	0	0	508	411	
0	0	0	0	0	509	415	
1	0	0	0	0	509	410	
2	0	0	0	0	509	410	
3	0	0	0	0	509	410	
4	0	0	0	0	508	405	
5	0	0	0	0	508	411	
6	0	0	0	0	508	412	
7	0	0	0	0	507	410	
8	0	0	0	0	507	415	
9	0	0	0	0	507	410	
10	0	0	0	0	507	410	
11	0	0	0	0	506	411	
12	0	0	0	0	505	405	
13	0	0	0	0	504	410	
14	0	0	0	0	504	410	
15	0	0	0	0	504	410	
0	0	0	0	0	504	415	
1	0	0	0	0	504	410	
2	0	0	0	0	504	410	
3	0	0	0	0	504	410	
4	0	0	0	0	504	405	
5	0	0	0	0	505	410	
6	0	0	0	0	505	410	
7	0	0	0	0	504	410	
8	0	0	0	0	504	415	
9	0	0	0	0	504	410	
10	0	0	0	0	505	410	
11	0	0	0	0	506	410	
12	0	0	0	0	507	405	
13	0	0	0	0	507	410	
14	0	0	0	0	508	410	
15	0	0	0	0	508	410	
0	0	0	0	0	509	415	
1	0	0	0	0	509	410	
2	0	0	0	0	510	410	
3	0	0	0	0	511	409	
4	0	0	0	0	511	404	
5	0	0	0	0	511	409	
6	0	0	0	0	512	409	
7	0	0	0	0	511	410	
8	0	0	0	0	511	414	
9	0	0	0	0	512	410	
10	0	0	0	0	512	410	
11	0	0	0	0	513	409	
12	0	0	0	0	513	404	
13	0	0	0	0	514	411	
14	0	0	0	0	514	411	
15	0	0	0	0	515	411	
0	0	0	0	0	515	415	
1	0	0	0	0	515	410	
2	0	0	0	0	514	410	
3	0	0	0	0	514	411	
4	0	0	0	0	513	406	
5	0	0	0	0	513	410	
6	0	0	0	0	513	411	
7	0	0	0	0	513	410	
8	0	0	0	0	513	415	
9	0	0	0	0	513	411	
10	0	0	0	0	513	410	
11	0	0	0	0	513	411	
12	0	0	0	0	514	405	
13	0	0	0	0	515	411	
14	0	0	0	0	515	411	
15	0	0	0	0	515	411	
0	0	0	0	0	515	416	
1	0	0	0	0	515	411	
2	0	0	0	0	515	410	
3	0	0	0	0	516	411	
4	0	0	0	0	516	405	
5	0	0	0	0	517	411	
6	0	0	0	0	516	411	
7	0	0	0	0	516	411	
8	0	0	0	0	515	415	
9	0	0	0	0	515	412	
10	0	0	0	0	514	411	
11	0	0	0	0	513	411	
12	0	0	0	0	512	406	
13	0	0	0	0	512	411	
14	0	0	0	0	511	411	
15	0	0	0	0	511	411	
0	0	0	0	0	510	415	
1	0	0	0	0	510	411	
2	0	0	0	0	509	411	
3	0	0	0	0	508	410	
4	0	0	0	0	507	406	
5	0	0	0	0	508	411	
6	0	0	0	0	508	410	
7	0	0	0	0	508	411	
8	0	0	0	0	509	415	
9	0	0	0	0	508	411	
10	0	0	0	0	508	410	
11	0	0	0	0	509	410	
12	0	0	0	0	510	406	
13	0	0	0	0	510	411	
14	0	0	0	0	511	411	
15	0	0	0	0	512	411	
0	0	0	0	0	512	416	
1	0	0	0	0	512	411	
2	0	0	0	0	512	411	
3	0	0	0	0	512	410	
4	0	0	0	0	512	405	
5	0	0	0	0	512	410	
6	0	0	0	0	511	410	
7	0	0	0	0	511	411	
8	0	0	0	0	511	416	
9	0	0	0	0	512	411	
10	0	0	0	0	512	411	
11	0	0	0	0	512	410	
12	0	0	0	0	511	405	
13	0	0	0	0	510	411	
14	0	0	0	0	509	411	
15	0	0	0	0	509	410	
0	0	0	0	0	509	415	
1	0	0	0	0	509	411	
2	0	0	0	0	510	410	
3	0	0	0	0	509	411	
4	0	0	0	0	508	406	
5	0	0	0	0	509	411	
6	0	0	0	0	510	410	
7	0	0	0	0	511	411	
8	0	0	0	0	512	415	
9	0	0	0	0	512	411	
10	0	0	0	0	511	411	
11	0	0	0	0	510	411	
12	0	0	0	0	508	405	
13	0	0	0	0	507	411	
14	0	0	0	0	504	412	
15	0	0	0	0	501	411	
0	0	0	0	0	496	415	
1	0	0	0	0	492	411	
2	0	0	0	0	487	411	
3	0	0	0	0	483	410	
4	0	0	0	0	476	405	
5	0	0	0	0	472	411	
6	0	0	0	0	468	411	
7	0	0	0	0	466	410	
8	0	0	0	0	464	415	
9	0	0	0	0	461	411	
10	0	0	0	0	458	411	
11	0	0	0	0	455	410	
12	0	0	0	0	453	405	
13	0	0	0	0	450	411	
14	0	0	0	0	448	411	
15	0	0	0	0	447	411	
0	0	0	0	0	446	415	
1	0	0	0	0	447	411	
2	0	0	0	0	448	411	
3	0	0	0	0	454	409	
4	0	0	0	0	464	405	
5	0	0	0	0	477	411	
6	0	0	0	0	491	411	
7	0	0	0	0	505	411	
8	0	0	0	0	519	415	
9	0	0	0	0	533	410	
10	0	0	0	0	547	411	
11	0	0	0	0	561	411	
12	0	0	0	0	577	406	
13	0	0	0	0	594	411	
14	0	0	0	0	612	411	
15	0	0	0	0	630	410	
0	0	0	0	0	646	415	
1	0	0	0	0	662	411	
2	0	0	0	0	676	410	
3	0	0	0	0	688	410	
4	0	0	0	0	696	405	
5	0	0	0	0	704	410	
6	0	0	0	0	710	410	
7	0	0	0	0	717	410	
8	0	0	0	0	726	415	
9	0	0	0	0	731	410	
10	0	0	0	0	732	410	
11	0	0	0	0	733	410	
12	0	0	0	0	732	405	
13	0	0	0	0	728	410	
14	0	0	0	0	719	410	
15	0	0	0	0	710	409	
0	0	0	0	0	699	415	
1	0	0	0	0	688	410	
2	0	0	0	0	682	410	
3	0	0	0	0	678	409	
4	0	0	0	0	672	404	
5	0	0	0	0	667	409	
6	0	0	0	0	660	410	
7	0	0	0	0	652	409	
8	0	0	0	0	643	414	
9	0	0	0	0	634	409	
10	0	0	0	0	623	409	
11	0	0	0	0	612	409	
12	0	0	0	0	601	404	
13	0	0	0	0	591	409	
14	0	0	0	0	580	409	
15	0	0	0	0	570	409	
0	0	0	0	0	560	414	
1	0	0	0	0	548	409	
2	0	0	0	0	537	409	
3	0	0	0	0	528	410	
4	0	0	0	0	520	406	
5	0	0	0	0	512	410	
6	0	0	0	0	505	411	
7	0	0	0	0	499	410	
8	0	0	0	0	492	415	
9	0	0	0	0	487	410	
10	0	0	0	0	482	410	
11	0	0	0	0	478	410	
12	0	0	0	0	472	405	
13	0	0	0	0	468	410	
14	0	0	0	0	463	411	
15	0	0	0	0	459	411	
0	0	0	0	0	456	415	
1	0	0	0	0	454	410	
2	0	0	0	0	451	410	
3	0	0	0	0	449	410	
4	0	0	0	0	448	405	
5	0	0	0	0	447	411	
6	0	0	0	0	446	411	
7	0	0	0	0	446	411	
8	0	0	0	0	446	415	
9	0	0	0	0	445	411	
10	0	0	0	0	445	411	
11	0	0	0	0	445	411	
12	0	0	0	0	445	406	
13	0	0	0	0	446	411	
14	0	0	0	0	446	411	
15	0	0	0	0	446	411	
0	0	0	0	0	446	416	
1	0	0	0	0	446	412	
2	0	0	0	0	446	412	
3	0	0	0	0	446	411	
4	0	0	0	0	446	407	
5	0	0	0	0	447	412	
6	0	0	0	0	448	412	
7	0	0	0	0	448	412	
8	0	0	0	0	447	415	
9	0	0	0	0	448	411	
10	0	0	0	0	448	411	
11	0	0	0	0	448	411	
12	0	0	0	0	448	405	
13	0	0	0	0	448	411	
14	0	0	0	0	449	411	
15	0	0	0	0	450	411	
0	0	0	0	0	450	416	
1	0	0	0	0	450	411	
2	0	0	0	0	450	410	
3	0	0	0	0	450	410	
4	0	0	0	0	451	405	
5	0	0	0	0	451	410	
6	0	0	0	0	452	411	
7	0	0	0	0	453	411	
8	0	0	0	0	453	415	
9	0	0	0	0	453	411	
10	0	0	0	0	453	411	
11	0	0	0	0	453	411	
12	0	0	0	0	454	405	
13	0	0	0	0	454	411	
14	0	0	0	0	454	411	
15	0	0	0	0	454	411	
0	0	0	0	0	454	415	
1	0	0	0	0	454	410	
2	0	0	0	0	453	410	
3	0	0	0	0	454	411	
4	0	0	0	0	454	406	
5	0	0	0	0	455	411	
6	0	0	0	0	455	411	
7	0	0	0	0	456	411	
8	0	0	0	0	457	415	
9	0	0	0	0	459	410	
10	0	0	0	0	460	410	
11	0	0	0	0	460	411	
12	0	0	0	0	460	405	
13	0	0	0	0	460	410	
14	0	0	0	0	461	411	
15	0	0	0	0	461	411	
0	0	0	0	0	461	415	
1	0	0	0	0	462	410	
2	0	0	0	0	462	410	
3	0	0	0	0	463	411	
4	0	0	0	0	463	406	
5	0	0	0	0	463	411	
6	0	0	0	0	464	411	
7	0	0	0	0	464	412	
8	0	0	0	0	464	417	
9	0	0	0	0	464	414	
10	0	0	0	0	464	413	
11	0	0	0	0	464	411	
12	0	0	0	0	464	405	
13	0	0	0	0	464	410	
14	0	0	0	0	465	411	
15	0	0	0	0	465	412	
0	0	0	0	0	465	417	
1	0	0	0	0	465	412	
2	0	0	0	0	465	411	
3	0	0	0	0	466	412	
