# OpenSignals Text File Format. Version 1
# {"98:D3:91:FD:59:64": {"position": 0, "device": "bitalino_rev", "device name": "98:D3:91:FD:59:64", "device connection": "BTH98:D3:91:FD:59:64", "sampling rate": 1000, "resolution": [4, 1, 1, 1, 1, 10, 10], "firmware version": 1281, "comments": "", "keywords": "", "mode": 0, "sync interval": 2, "date": "2021-9-13", "time": "10:27:39.26", "channels": [2, 5], "sensor": ["RAW", "RAW"], "label": ["A2", "A5"], "column": ["nSeq", "I1", "I2", "O1", "O2", "A2", "A5"], "special": [{}, {}], "digital IO": [0, 0, 1, 1], "convertedValues": 0}}
# EndOfHeader
0	0	0	0	0	479	618	
1	0	0	0	0	479	618	
2	0	0	0	0	481	617	
3	0	0	0	0	481	618	
4	0	0	0	0	482	619	
5	0	0	0	0	483	619	
6	0	0	0	0	484	619	
7	0	0	0	0	483	619	
8	0	0	0	0	483	619	
9	0	0	0	0	483	620	
10	0	0	0	0	482	618	
11	0	0	0	0	483	620	
12	0	0	0	0	483	620	
13	0	0	0	0	483	620	
14	0	0	0	0	483	620	
15	0	0	0	0	484	620	
0	0	0	0	0	485	620	
1	0	0	0	0	485	620	
2	0	0	0	0	485	619	
3	0	0	0	0	486	621	
4	0	0	0	0	486	620	
5	0	0	0	0	486	621	
6	0	0	0	0	486	621	
7	0	0	0	0	487	621	
8	0	0	0	0	487	620	
9	0	0	0	0	487	621	
10	0	0	0	0	487	620	
11	0	0	0	0	488	620	
12	0	0	0	0	489	621	
13	0	0	0	0	489	621	
14	0	0	0	0	489	621	
15	0	0	0	0	491	620	
0	0	0	0	0	492	620	
1	0	0	0	0	492	620	
2	0	0	0	0	492	620	
3	0	0	0	0	492	622	
4	0	0	0	0	491	621	
5	0	0	0	0	492	622	
6	0	0	0	0	491	622	
7	0	0	0	0	492	622	
8	0	0	0	0	493	621	
9	0	0	0	0	494	622	
10	0	0	0	0	494	620	
11	0	0	0	0	495	622	
12	0	0	0	0	495	622	
13	0	0	0	0	496	622	
14	0	0	0	0	497	622	
15	0	0	0	0	498	622	
0	0	0	0	0	499	623	
1	0	0	0	0	499	623	
2	0	0	0	0	500	622	
3	0	0	0	0	501	622	
4	0	0	0	0	502	623	
5	0	0	0	0	503	623	
6	0	0	0	0	504	623	
7	0	0	0	0	504	623	
8	0	0	0	0	505	623	
9	0	0	0	0	505	623	
10	0	0	0	0	506	623	
11	0	0	0	0	508	624	
12	0	0	0	0	508	624	
13	0	0	0	0	509	624	
14	0	0	0	0	509	624	
15	0	0	0	0	511	623	
0	0	0	0	0	511	624	
1	0	0	0	0	512	624	
2	0	0	0	0	512	623	
3	0	0	0	0	513	623	
4	0	0	0	0	513	624	
5	0	0	0	0	514	624	
6	0	0	0	0	515	624	
7	0	0	0	0	516	624	
8	0	0	0	0	517	624	
9	0	0	0	0	518	624	
10	0	0	0	0	518	623	
11	0	0	0	0	518	624	
12	0	0	0	0	518	624	
13	0	0	0	0	519	624	
14	0	0	0	0	518	624	
15	0	0	0	0	519	624	
0	0	0	0	0	519	623	
1	0	0	0	0	519	623	
2	0	0	0	0	520	622	
3	0	0	0	0	520	623	
4	0	0	0	0	521	622	
5	0	0	0	0	521	622	
6	0	0	0	0	521	623	
7	0	0	0	0	522	622	
8	0	0	0	0	521	622	
9	0	0	0	0	521	622	
10	0	0	0	0	521	621	
11	0	0	0	0	522	622	
12	0	0	0	0	520	622	
13	0	0	0	0	520	622	
14	0	0	0	0	519	622	
15	0	0	0	0	519	622	
0	0	0	0	0	519	622	
1	0	0	0	0	518	621	
2	0	0	0	0	518	621	
3	0	0	0	0	517	622	
4	0	0	0	0	516	621	
5	0	0	0	0	515	620	
6	0	0	0	0	514	621	
7	0	0	0	0	513	621	
8	0	0	0	0	512	621	
9	0	0	0	0	510	621	
10	0	0	0	0	510	620	
11	0	0	0	0	508	620	
12	0	0	0	0	507	620	
13	0	0	0	0	506	620	
14	0	0	0	0	505	620	
15	0	0	0	0	503	620	
0	0	0	0	0	503	620	
1	0	0	0	0	502	619	
2	0	0	0	0	499	619	
3	0	0	0	0	498	620	
4	0	0	0	0	497	620	
5	0	0	0	0	496	620	
6	0	0	0	0	495	620	
7	0	0	0	0	495	619	
8	0	0	0	0	494	619	
9	0	0	0	0	494	620	
10	0	0	0	0	494	618	
11	0	0	0	0	493	619	
12	0	0	0	0	492	619	
13	0	0	0	0	492	619	
14	0	0	0	0	491	619	
15	0	0	0	0	491	619	
0	0	0	0	0	489	620	
1	0	0	0	0	490	620	
2	0	0	0	0	489	618	
3	0	0	0	0	489	619	
4	0	0	0	0	489	620	
5	0	0	0	0	488	619	
6	0	0	0	0	488	619	
7	0	0	0	0	488	620	
8	0	0	0	0	488	620	
9	0	0	0	0	487	619	
10	0	0	0	0	487	618	
11	0	0	0	0	487	620	
12	0	0	0	0	487	620	
13	0	0	0	0	487	620	
14	0	0	0	0	487	620	
15	0	0	0	0	487	620	
0	0	0	0	0	486	620	
1	0	0	0	0	486	621	
2	0	0	0	0	487	620	
3	0	0	0	0	487	621	
4	0	0	0	0	487	621	
5	0	0	0	0	487	621	
6	0	0	0	0	487	621	
7	0	0	0	0	487	621	
8	0	0	0	0	488	621	
9	0	0	0	0	488	622	
10	0	0	0	0	488	620	
11	0	0	0	0	489	621	
12	0	0	0	0	489	622	
13	0	0	0	0	490	622	
14	0	0	0	0	489	622	
15	0	0	0	0	489	621	
0	0	0	0	0	490	621	
1	0	0	0	0	489	622	
2	0	0	0	0	489	620	
3	0	0	0	0	489	621	
4	0	0	0	0	489	622	
5	0	0	0	0	490	622	
6	0	0	0	0	491	621	
7	0	0	0	0	491	621	
8	0	0	0	0	491	622	
9	0	0	0	0	491	621	
10	0	0	0	0	491	621	
11	0	0	0	0	490	621	
12	0	0	0	0	490	621	
13	0	0	0	0	490	621	
14	0	0	0	0	491	622	
15	0	0	0	0	492	621	
0	0	0	0	0	493	621	
1	0	0	0	0	493	622	
2	0	0	0	0	493	620	
3	0	0	0	0	493	622	
4	0	0	0	0	492	621	
5	0	0	0	0	493	621	
6	0	0	0	0	493	622	
7	0	0	0	0	493	622	
8	0	0	0	0	494	621	
9	0	0	0	0	494	621	
10	0	0	0	0	493	621	
11	0	0	0	0	493	622	
12	0	0	0	0	492	622	
13	0	0	0	0	493	622	
14	0	0	0	0	493	622	
15	0	0	0	0	493	622	
0	0	0	0	0	493	622	
1	0	0	0	0	494	622	
2	0	0	0	0	494	620	
3	0	0	0	0	494	622	
4	0	0	0	0	493	622	
5	0	0	0	0	492	621	
6	0	0	0	0	492	622	
7	0	0	0	0	493	621	
8	0	0	0	0	494	622	
9	0	0	0	0	493	621	
10	0	0	0	0	493	621	
11	0	0	0	0	493	621	
12	0	0	0	0	493	622	
13	0	0	0	0	493	620	
14	0	0	0	0	494	621	
15	0	0	0	0	494	621	
0	0	0	0	0	494	621	
1	0	0	0	0	493	621	
2	0	0	0	0	493	620	
3	0	0	0	0	494	620	
4	0	0	0	0	494	620	
5	0	0	0	0	495	620	
6	0	0	0	0	496	620	
7	0	0	0	0	496	620	
8	0	0	0	0	497	620	
9	0	0	0	0	497	620	
10	0	0	0	0	496	619	
11	0	0	0	0	496	620	
12	0	0	0	0	496	620	
13	0	0	0	0	496	620	
14	0	0	0	0	495	620	
15	0	0	0	0	495	620	
0	0	0	0	0	496	620	
1	0	0	0	0	496	620	
2	0	0	0	0	497	618	
3	0	0	0	0	497	619	
4	0	0	0	0	497	619	
5	0	0	0	0	498	620	
6	0	0	0	0	499	619	
7	0	0	0	0	499	620	
8	0	0	0	0	498	620	
9	0	0	0	0	499	620	
10	0	0	0	0	499	619	
11	0	0	0	0	499	619	
12	0	0	0	0	499	620	
13	0	0	0	0	499	619	
14	0	0	0	0	500	619	
15	0	0	0	0	500	620	
0	0	0	0	0	500	619	
1	0	0	0	0	501	619	
2	0	0	0	0	501	619	
3	0	0	0	0	501	621	
4	0	0	0	0	500	620	
5	0	0	0	0	500	620	
6	0	0	0	0	500	620	
7	0	0	0	0	501	620	
8	0	0	0	0	501	621	
9	0	0	0	0	501	620	
10	0	0	0	0	501	620	
11	0	0	0	0	501	620	
12	0	0	0	0	501	620	
13	0	0	0	0	501	621	
14	0	0	0	0	500	621	
15	0	0	0	0	501	621	
0	0	0	0	0	501	620	
1	0	0	0	0	502	621	
2	0	0	0	0	502	621	
3	0	0	0	0	503	622	
4	0	0	0	0	503	622	
5	0	0	0	0	503	621	
6	0	0	0	0	503	621	
7	0	0	0	0	504	622	
8	0	0	0	0	504	622	
9	0	0	0	0	504	621	
10	0	0	0	0	505	620	
11	0	0	0	0	504	621	
12	0	0	0	0	504	621	
13	0	0	0	0	504	621	
14	0	0	0	0	505	621	
15	0	0	0	0	505	621	
0	0	0	0	0	505	621	
1	0	0	0	0	505	621	
2	0	0	0	0	505	620	
3	0	0	0	0	505	620	
4	0	0	0	0	505	620	
5	0	0	0	0	505	620	
6	0	0	0	0	506	620	
7	0	0	0	0	507	621	
8	0	0	0	0	506	620	
9	0	0	0	0	506	621	
10	0	0	0	0	506	620	
11	0	0	0	0	507	620	
12	0	0	0	0	507	621	
13	0	0	0	0	506	621	
14	0	0	0	0	506	621	
15	0	0	0	0	506	621	
0	0	0	0	0	507	621	
1	0	0	0	0	507	621	
2	0	0	0	0	505	620	
3	0	0	0	0	506	622	
4	0	0	0	0	506	622	
5	0	0	0	0	505	623	
6	0	0	0	0	505	622	
7	0	0	0	0	507	622	
8	0	0	0	0	507	622	
9	0	0	0	0	507	623	
10	0	0	0	0	506	622	
11	0	0	0	0	506	622	
12	0	0	0	0	507	623	
13	0	0	0	0	508	623	
14	0	0	0	0	508	623	
15	0	0	0	0	508	623	
0	0	0	0	0	508	622	
1	0	0	0	0	508	623	
2	0	0	0	0	508	621	
3	0	0	0	0	508	623	
4	0	0	0	0	508	622	
5	0	0	0	0	509	622	
6	0	0	0	0	510	622	
7	0	0	0	0	510	622	
8	0	0	0	0	510	622	
9	0	0	0	0	510	622	
10	0	0	0	0	511	621	
11	0	0	0	0	510	622	
12	0	0	0	0	510	622	
13	0	0	0	0	510	622	
14	0	0	0	0	511	623	
15	0	0	0	0	511	621	
0	0	0	0	0	511	622	
1	0	0	0	0	511	622	
2	0	0	0	0	512	621	
3	0	0	0	0	512	621	
4	0	0	0	0	512	621	
5	0	0	0	0	512	622	
6	0	0	0	0	512	622	
7	0	0	0	0	512	622	
8	0	0	0	0	512	621	
9	0	0	0	0	513	622	
10	0	0	0	0	512	621	
11	0	0	0	0	512	622	
12	0	0	0	0	511	622	
13	0	0	0	0	511	622	
14	0	0	0	0	512	622	
15	0	0	0	0	512	622	
0	0	0	0	0	512	622	
1	0	0	0	0	511	622	
2	0	0	0	0	511	620	
3	0	0	0	0	511	621	
4	0	0	0	0	510	620	
5	0	0	0	0	511	621	
6	0	0	0	0	511	620	
7	0	0	0	0	511	620	
8	0	0	0	0	511	620	
9	0	0	0	0	511	620	
10	0	0	0	0	512	620	
11	0	0	0	0	511	620	
12	0	0	0	0	510	620	
13	0	0	0	0	511	620	
14	0	0	0	0	512	620	
15	0	0	0	0	512	620	
0	0	0	0	0	512	620	
1	0	0	0	0	512	620	
2	0	0	0	0	513	619	
3	0	0	0	0	513	620	
4	0	0	0	0	513	620	
5	0	0	0	0	513	620	
6	0	0	0	0	513	621	
7	0	0	0	0	512	620	
8	0	0	0	0	511	620	
9	0	0	0	0	511	621	
10	0	0	0	0	511	620	
11	0	0	0	0	511	621	
12	0	0	0	0	511	621	
13	0	0	0	0	512	622	
14	0	0	0	0	512	621	
15	0	0	0	0	512	622	
0	0	0	0	0	513	622	
1	0	0	0	0	512	622	
2	0	0	0	0	512	621	
3	0	0	0	0	511	622	
4	0	0	0	0	511	623	
5	0	0	0	0	511	623	
6	0	0	0	0	512	623	
7	0	0	0	0	511	623	
8	0	0	0	0	510	623	
9	0	0	0	0	511	623	
10	0	0	0	0	511	622	
11	0	0	0	0	512	623	
12	0	0	0	0	512	622	
13	0	0	0	0	512	623	
14	0	0	0	0	512	623	
15	0	0	0	0	512	623	
0	0	0	0	0	512	623	
1	0	0	0	0	511	623	
2	0	0	0	0	510	622	
3	0	0	0	0	510	622	
4	0	0	0	0	510	623	
5	0	0	0	0	510	623	
6	0	0	0	0	510	623	
7	0	0	0	0	510	623	
8	0	0	0	0	509	623	
9	0	0	0	0	510	622	
10	0	0	0	0	509	621	
11	0	0	0	0	509	622	
12	0	0	0	0	510	622	
13	0	0	0	0	510	622	
14	0	0	0	0	510	622	
15	0	0	0	0	510	622	
0	0	0	0	0	510	621	
1	0	0	0	0	510	622	
2	0	0	0	0	511	620	
3	0	0	0	0	510	622	
4	0	0	0	0	510	621	
5	0	0	0	0	509	621	
6	0	0	0	0	509	621	
7	0	0	0	0	510	621	
8	0	0	0	0	510	621	
9	0	0	0	0	511	621	
10	0	0	0	0	511	619	
11	0	0	0	0	511	620	
12	0	0	0	0	511	620	
13	0	0	0	0	511	620	
14	0	0	0	0	511	620	
15	0	0	0	0	512	620	
0	0	0	0	0	512	620	
1	0	0	0	0	511	620	
2	0	0	0	0	511	618	
3	0	0	0	0	511	620	
4	0	0	0	0	512	620	
5	0	0	0	0	512	619	
6	0	0	0	0	512	619	
7	0	0	0	0	512	619	
8	0	0	0	0	512	619	
9	0	0	0	0	511	619	
10	0	0	0	0	511	618	
11	0	0	0	0	512	619	
12	0	0	0	0	511	620	
13	0	0	0	0	511	619	
14	0	0	0	0	511	619	
15	0	0	0	0	511	619	
0	0	0	0	0	510	619	
1	0	0	0	0	509	620	
2	0	0	0	0	509	618	
3	0	0	0	0	510	619	
4	0	0	0	0	510	619	
5	0	0	0	0	510	619	
6	0	0	0	0	509	619	
7	0	0	0	0	509	619	
8	0	0	0	0	508	620	
9	0	0	0	0	507	620	
10	0	0	0	0	507	618	
11	0	0	0	0	507	619	
12	0	0	0	0	507	619	
13	0	0	0	0	507	620	
14	0	0	0	0	507	620	
15	0	0	0	0	508	620	
0	0	0	0	0	508	620	
1	0	0	0	0	508	620	
2	0	0	0	0	508	620	
3	0	0	0	0	508	620	
4	0	0	0	0	509	621	
5	0	0	0	0	509	621	
6	0	0	0	0	509	622	
7	0	0	0	0	508	622	
8	0	0	0	0	508	622	
9	0	0	0	0	508	622	
10	0	0	0	0	507	621	
11	0	0	0	0	509	622	
12	0	0	0	0	509	623	
13	0	0	0	0	508	623	
14	0	0	0	0	508	623	
15	0	0	0	0	508	623	
0	0	0	0	0	510	623	
1	0	0	0	0	509	623	
2	0	0	0	0	508	622	
3	0	0	0	0	507	623	
4	0	0	0	0	507	623	
5	0	0	0	0	506	623	
6	0	0	0	0	506	623	
7	0	0	0	0	505	623	
8	0	0	0	0	504	623	
9	0	0	0	0	504	622	
10	0	0	0	0	503	621	
11	0	0	0	0	502	623	
12	0	0	0	0	502	623	
13	0	0	0	0	503	623	
14	0	0	0	0	504	622	
15	0	0	0	0	505	623	
0	0	0	0	0	506	623	
1	0	0	0	0	507	623	
2	0	0	0	0	508	621	
3	0	0	0	0	507	623	
4	0	0	0	0	508	623	
5	0	0	0	0	508	623	
6	0	0	0	0	508	623	
7	0	0	0	0	508	623	
8	0	0	0	0	508	623	
9	0	0	0	0	509	623	
10	0	0	0	0	509	622	
11	0	0	0	0	509	623	
12	0	0	0	0	509	623	
13	0	0	0	0	509	623	
14	0	0	0	0	508	623	
15	0	0	0	0	508	623	
0	0	0	0	0	509	623	
1	0	0	0	0	509	623	
2	0	0	0	0	510	622	
3	0	0	0	0	511	623	
4	0	0	0	0	511	623	
5	0	0	0	0	511	622	
6	0	0	0	0	512	622	
7	0	0	0	0	512	622	
8	0	0	0	0	511	622	
9	0	0	0	0	512	622	
10	0	0	0	0	511	620	
11	0	0	0	0	512	621	
12	0	0	0	0	511	621	
13	0	0	0	0	511	621	
14	0	0	0	0	511	621	
15	0	0	0	0	512	621	
0	0	0	0	0	512	620	
1	0	0	0	0	512	620	
2	0	0	0	0	512	619	
3	0	0	0	0	512	620	
4	0	0	0	0	512	620	
5	0	0	0	0	512	620	
6	0	0	0	0	512	620	
7	0	0	0	0	512	620	
8	0	0	0	0	512	619	
9	0	0	0	0	512	619	
10	0	0	0	0	512	618	
11	0	0	0	0	511	619	
12	0	0	0	0	510	619	
13	0	0	0	0	510	619	
14	0	0	0	0	511	619	
15	0	0	0	0	510	619	
0	0	0	0	0	511	619	
1	0	0	0	0	510	620	
2	0	0	0	0	509	618	
3	0	0	0	0	509	620	
4	0	0	0	0	509	619	
5	0	0	0	0	509	620	
6	0	0	0	0	509	620	
7	0	0	0	0	509	620	
8	0	0	0	0	509	620	
9	0	0	0	0	509	620	
10	0	0	0	0	508	619	
11	0	0	0	0	508	620	
12	0	0	0	0	507	620	
13	0	0	0	0	507	620	
14	0	0	0	0	508	619	
15	0	0	0	0	508	619	
0	0	0	0	0	508	619	
1	0	0	0	0	508	619	
2	0	0	0	0	508	618	
3	0	0	0	0	507	619	
4	0	0	0	0	507	620	
5	0	0	0	0	507	620	
6	0	0	0	0	507	620	
7	0	0	0	0	507	620	
8	0	0	0	0	507	620	
9	0	0	0	0	507	620	
10	0	0	0	0	508	620	
11	0	0	0	0	508	621	
12	0	0	0	0	508	621	
13	0	0	0	0	509	622	
14	0	0	0	0	509	622	
15	0	0	0	0	510	621	
0	0	0	0	0	510	622	
1	0	0	0	0	511	622	
2	0	0	0	0	510	621	
3	0	0	0	0	509	622	
4	0	0	0	0	509	622	
5	0	0	0	0	509	622	
6	0	0	0	0	509	622	
7	0	0	0	0	508	622	
8	0	0	0	0	509	623	
9	0	0	0	0	509	622	
10	0	0	0	0	508	622	
11	0	0	0	0	508	622	
12	0	0	0	0	509	622	
13	0	0	0	0	510	622	
14	0	0	0	0	510	622	
15	0	0	0	0	509	622	
0	0	0	0	0	508	622	
1	0	0	0	0	507	621	
2	0	0	0	0	506	620	
3	0	0	0	0	506	621	
4	0	0	0	0	504	620	
5	0	0	0	0	502	620	
6	0	0	0	0	501	620	
7	0	0	0	0	499	620	
8	0	0	0	0	497	620	
9	0	0	0	0	494	620	
10	0	0	0	0	491	619	
11	0	0	0	0	487	620	
12	0	0	0	0	483	620	
13	0	0	0	0	478	620	
14	0	0	0	0	472	620	
15	0	0	0	0	466	619	
0	0	0	0	0	461	620	
1	0	0	0	0	456	620	
2	0	0	0	0	451	619	
3	0	0	0	0	450	619	
4	0	0	0	0	450	619	
5	0	0	0	0	451	620	
6	0	0	0	0	454	619	
7	0	0	0	0	460	620	
8	0	0	0	0	468	619	
9	0	0	0	0	479	619	
10	0	0	0	0	491	618	
11	0	0	0	0	504	619	
12	0	0	0	0	521	619	
13	0	0	0	0	540	620	
14	0	0	0	0	559	619	
15	0	0	0	0	581	620	
0	0	0	0	0	603	619	
1	0	0	0	0	626	620	
2	0	0	0	0	648	619	
3	0	0	0	0	670	620	
4	0	0	0	0	692	620	
5	0	0	0	0	712	619	
6	0	0	0	0	729	620	
7	0	0	0	0	743	620	
8	0	0	0	0	755	620	
9	0	0	0	0	764	619	
10	0	0	0	0	769	619	
11	0	0	0	0	771	619	
12	0	0	0	0	771	620	
13	0	0	0	0	768	620	
14	0	0	0	0	763	620	
15	0	0	0	0	755	620	
0	0	0	0	0	745	620	
1	0	0	0	0	732	619	
2	0	0	0	0	718	623	
3	0	0	0	0	702	619	
4	0	0	0	0	686	619	
5	0	0	0	0	670	619	
6	0	0	0	0	652	615	
7	0	0	0	0	635	619	
8	0	0	0	0	619	619	
9	0	0	0	0	603	619	
10	0	0	0	0	588	623	
11	0	0	0	0	575	619	
12	0	0	0	0	564	619	
13	0	0	0	0	553	619	
14	0	0	0	0	544	615	
15	0	0	0	0	536	620	
0	0	0	0	0	528	620	
1	0	0	0	0	521	620	
2	0	0	0	0	514	624	
3	0	0	0	0	507	620	
4	0	0	0	0	501	621	
5	0	0	0	0	496	621	
6	0	0	0	0	490	618	
7	0	0	0	0	486	622	
8	0	0	0	0	480	621	
9	0	0	0	0	475	622	
10	0	0	0	0	472	626	
11	0	0	0	0	468	623	
12	0	0	0	0	466	623	
13	0	0	0	0	464	622	
14	0	0	0	0	463	619	
15	0	0	0	0	460	623	
0	0	0	0	0	458	623	
1	0	0	0	0	456	623	
2	0	0	0	0	455	626	
3	0	0	0	0	454	622	
4	0	0	0	0	453	622	
5	0	0	0	0	451	622	
6	0	0	0	0	451	619	
7	0	0	0	0	451	622	
8	0	0	0	0	451	622	
9	0	0	0	0	451	623	
10	0	0	0	0	452	626	
11	0	0	0	0	453	623	
12	0	0	0	0	453	623	
13	0	0	0	0	454	622	
14	0	0	0	0	454	619	
15	0	0	0	0	455	623	
0	0	0	0	0	455	623	
1	0	0	0	0	455	623	
2	0	0	0	0	455	627	
3	0	0	0	0	455	623	
4	0	0	0	0	455	622	
5	0	0	0	0	456	622	
6	0	0	0	0	457	619	
7	0	0	0	0	457	623	
8	0	0	0	0	457	623	
9	0	0	0	0	456	622	
10	0	0	0	0	456	626	
11	0	0	0	0	457	622	
12	0	0	0	0	457	622	
13	0	0	0	0	457	622	
14	0	0	0	0	457	619	
15	0	0	0	0	457	622	
0	0	0	0	0	457	622	
1	0	0	0	0	458	622	
2	0	0	0	0	458	625	
3	0	0	0	0	459	622	
4	0	0	0	0	458	622	
5	0	0	0	0	459	622	
6	0	0	0	0	459	618	
7	0	0	0	0	460	622	
8	0	0	0	0	460	622	
9	0	0	0	0	460	622	
10	0	0	0	0	460	625	
11	0	0	0	0	460	622	
12	0	0	0	0	461	622	
13	0	0	0	0	463	621	
14	0	0	0	0	463	618	
15	0	0	0	0	463	622	
0	0	0	0	0	463	621	
1	0	0	0	0	463	622	
2	0	0	0	0	464	625	
3	0	0	0	0	465	622	
4	0	0	0	0	465	622	
5	0	0	0	0	465	622	
6	0	0	0	0	465	618	
7	0	0	0	0	465	622	
8	0	0	0	0	465	622	
9	0	0	0	0	465	622	
10	0	0	0	0	465	625	
11	0	0	0	0	466	622	
12	0	0	0	0	465	622	
13	0	0	0	0	465	621	
14	0	0	0	0	465	617	
15	0	0	0	0	465	621	
0	0	0	0	0	465	621	
1	0	0	0	0	466	622	
2	0	0	0	0	467	623	
3	0	0	0	0	467	620	
4	0	0	0	0	468	620	
5	0	0	0	0	468	620	
6	0	0	0	0	469	616	
7	0	0	0	0	469	620	
8	0	0	0	0	469	620	
9	0	0	0	0	470	620	
10	0	0	0	0	471	623	
11	0	0	0	0	471	620	
12	0	0	0	0	470	619	
13	0	0	0	0	470	619	
14	0	0	0	0	470	615	
15	0	0	0	0	471	619	
0	0	0	0	0	471	619	
1	0	0	0	0	472	619	
2	0	0	0	0	472	623	
3	0	0	0	0	472	620	
4	0	0	0	0	472	620	
5	0	0	0	0	473	619	
6	0	0	0	0	474	616	
7	0	0	0	0	475	619	
8	0	0	0	0	475	620	
9	0	0	0	0	476	620	
10	0	0	0	0	476	623	
11	0	0	0	0	476	620	
12	0	0	0	0	476	620	
13	0	0	0	0	476	620	
14	0	0	0	0	477	616	
15	0	0	0	0	478	620	
0	0	0	0	0	478	620	
1	0	0	0	0	479	620	
2	0	0	0	0	479	623	
3	0	0	0	0	480	620	
4	0	0	0	0	479	620	
5	0	0	0	0	480	619	
6	0	0	0	0	480	615	
7	0	0	0	0	480	620	
8	0	0	0	0	480	620	
9	0	0	0	0	480	620	
10	0	0	0	0	481	624	
11	0	0	0	0	482	620	
12	0	0	0	0	483	620	
13	0	0	0	0	483	620	
14	0	0	0	0	483	616	
15	0	0	0	0	483	620	
0	0	0	0	0	482	620	
1	0	0	0	0	483	619	
2	0	0	0	0	484	623	
3	0	0	0	0	486	619	
4	0	0	0	0	486	620	
5	0	0	0	0	485	620	
6	0	0	0	0	484	616	
7	0	0	0	0	486	621	
8	0	0	0	0	486	620	
9	0	0	0	0	486	621	
10	0	0	0	0	486	624	
11	0	0	0	0	486	621	
12	0	0	0	0	487	621	
13	0	0	0	0	487	622	
14	0	0	0	0	487	617	
15	0	0	0	0	488	621	
0	0	0	0	0	488	621	
1	0	0	0	0	488	621	
2	0	0	0	0	489	625	
3	0	0	0	0	489	622	
4	0	0	0	0	489	621	
5	0	0	0	0	489	621	
6	0	0	0	0	490	618	
7	0	0	0	0	490	622	
8	0	0	0	0	490	621	
9	0	0	0	0	490	621	
10	0	0	0	0	491	625	
11	0	0	0	0	491	621	
12	0	0	0	0	491	621	
13	0	0	0	0	491	622	
14	0	0	0	0	491	617	
15	0	0	0	0	491	622	
0	0	0	0	0	491	621	
1	0	0	0	0	492	621	
2	0	0	0	0	492	624	
3	0	0	0	0	492	621	
4	0	0	0	0	492	621	
5	0	0	0	0	492	621	
6	0	0	0	0	493	617	
7	0	0	0	0	494	621	
8	0	0	0	0	494	621	
9	0	0	0	0	495	621	
10	0	0	0	0	495	624	
11	0	0	0	0	496	620	
12	0	0	0	0	496	621	
13	0	0	0	0	496	622	
14	0	0	0	0	497	618	
15	0	0	0	0	497	622	
0	0	0	0	0	498	622	
1	0	0	0	0	499	622	
2	0	0	0	0	499	625	
3	0	0	0	0	500	623	
4	0	0	0	0	501	623	
5	0	0	0	0	502	623	
6	0	0	0	0	503	619	
7	0	0	0	0	504	622	
8	0	0	0	0	504	622	
9	0	0	0	0	505	622	
10	0	0	0	0	505	625	
11	0	0	0	0	507	620	
12	0	0	0	0	508	620	
13	0	0	0	0	508	620	
14	0	0	0	0	508	615	
15	0	0	0	0	508	620	
0	0	0	0	0	509	620	
1	0	0	0	0	509	619	
2	0	0	0	0	511	623	
3	0	0	0	0	512	619	
4	0	0	0	0	513	619	
5	0	0	0	0	513	618	
6	0	0	0	0	513	615	
7	0	0	0	0	513	619	
8	0	0	0	0	513	619	
9	0	0	0	0	513	619	
10	0	0	0	0	514	622	
11	0	0	0	0	514	619	
12	0	0	0	0	515	619	
13	0	0	0	0	515	620	
14	0	0	0	0	517	615	
15	0	0	0	0	518	620	
0	0	0	0	0	519	620	
1	0	0	0	0	519	620	
2	0	0	0	0	519	623	
3	0	0	0	0	520	620	
4	0	0	0	0	520	620	
5	0	0	0	0	520	620	
6	0	0	0	0	520	616	
7	0	0	0	0	520	621	
8	0	0	0	0	519	620	
9	0	0	0	0	519	621	
10	0	0	0	0	518	625	
11	0	0	0	0	518	621	
12	0	0	0	0	517	621	
13	0	0	0	0	517	621	
14	0	0	0	0	516	617	
15	0	0	0	0	515	621	
0	0	0	0	0	515	621	
1	0	0	0	0	515	622	
2	0	0	0	0	514	625	
3	0	0	0	0	513	622	
4	0	0	0	0	512	622	
5	0	0	0	0	512	622	
6	0	0	0	0	510	618	
7	0	0	0	0	509	622	
8	0	0	0	0	508	622	
9	0	0	0	0	506	622	
10	0	0	0	0	505	626	
11	0	0	0	0	505	622	
12	0	0	0	0	504	623	
13	0	0	0	0	504	622	
14	0	0	0	0	503	619	
15	0	0	0	0	502	622	
0	0	0	0	0	502	622	
1	0	0	0	0	501	622	
2	0	0	0	0	500	625	
3	0	0	0	0	499	622	
4	0	0	0	0	499	621	
5	0	0	0	0	498	622	
6	0	0	0	0	497	618	
7	0	0	0	0	496	622	
8	0	0	0	0	495	622	
9	0	0	0	0	496	622	
10	0	0	0	0	495	625	
11	0	0	0	0	494	622	
12	0	0	0	0	494	622	
13	0	0	0	0	494	621	
14	0	0	0	0	494	618	
15	0	0	0	0	494	622	
0	0	0	0	0	494	622	
1	0	0	0	0	493	623	
2	0	0	0	0	492	626	
3	0	0	0	0	492	622	
4	0	0	0	0	492	622	
5	0	0	0	0	492	622	
6	0	0	0	0	493	618	
7	0	0	0	0	492	622	
8	0	0	0	0	493	623	
9	0	0	0	0	492	623	
10	0	0	0	0	492	626	
11	0	0	0	0	492	623	
12	0	0	0	0	491	623	
13	0	0	0	0	490	623	
14	0	0	0	0	489	619	
15	0	0	0	0	489	623	
0	0	0	0	0	489	624	
1	0	0	0	0	490	623	
2	0	0	0	0	491	626	
3	0	0	0	0	491	623	
4	0	0	0	0	493	622	
5	0	0	0	0	493	622	
6	0	0	0	0	494	618	
7	0	0	0	0	495	622	
8	0	0	0	0	494	623	
9	0	0	0	0	494	622	
10	0	0	0	0	494	625	
11	0	0	0	0	493	622	
12	0	0	0	0	492	622	
13	0	0	0	0	492	620	
14	0	0	0	0	492	617	
15	0	0	0	0	492	620	
0	0	0	0	0	493	620	
1	0	0	0	0	494	620	
2	0	0	0	0	495	624	
3	0	0	0	0	494	620	
4	0	0	0	0	495	620	
5	0	0	0	0	495	620	
6	0	0	0	0	496	617	
7	0	0	0	0	497	620	
8	0	0	0	0	496	620	
9	0	0	0	0	496	620	
10	0	0	0	0	496	624	
11	0	0	0	0	497	620	
12	0	0	0	0	497	620	
13	0	0	0	0	498	620	
14	0	0	0	0	498	616	
15	0	0	0	0	497	620	
0	0	0	0	0	497	620	
1	0	0	0	0	498	620	
2	0	0	0	0	498	624	
3	0	0	0	0	499	620	
4	0	0	0	0	498	620	
5	0	0	0	0	499	620	
6	0	0	0	0	500	617	
7	0	0	0	0	500	620	
8	0	0	0	0	499	620	
9	0	0	0	0	499	621	
10	0	0	0	0	499	624	
11	0	0	0	0	499	620	
12	0	0	0	0	499	621	
13	0	0	0	0	499	621	
14	0	0	0	0	499	617	
15	0	0	0	0	500	621	
0	0	0	0	0	501	621	
1	0	0	0	0	500	622	
2	0	0	0	0	500	625	
3	0	0	0	0	501	622	
4	0	0	0	0	501	622	
5	0	0	0	0	501	622	
6	0	0	0	0	501	618	
7	0	0	0	0	501	622	
8	0	0	0	0	501	622	
9	0	0	0	0	501	622	
10	0	0	0	0	501	625	
11	0	0	0	0	502	622	
12	0	0	0	0	501	622	
13	0	0	0	0	500	622	
14	0	0	0	0	500	618	
15	0	0	0	0	500	621	
0	0	0	0	0	500	622	
1	0	0	0	0	501	622	
2	0	0	0	0	500	625	
3	0	0	0	0	500	622	
4	0	0	0	0	501	622	
5	0	0	0	0	500	622	
6	0	0	0	0	500	617	
7	0	0	0	0	499	621	
8	0	0	0	0	499	622	
9	0	0	0	0	500	621	
10	0	0	0	0	500	625	
11	0	0	0	0	500	622	
12	0	0	0	0	500	621	
13	0	0	0	0	500	621	
14	0	0	0	0	500	618	
15	0	0	0	0	500	621	
0	0	0	0	0	500	622	
1	0	0	0	0	500	622	
2	0	0	0	0	500	625	
3	0	0	0	0	500	622	
4	0	0	0	0	501	622	
5	0	0	0	0	501	622	
6	0	0	0	0	501	618	
7	0	0	0	0	501	621	
8	0	0	0	0	501	622	
9	0	0	0	0	500	621	
10	0	0	0	0	499	624	
11	0	0	0	0	499	621	
12	0	0	0	0	499	621	
13	0	0	0	0	499	621	
14	0	0	0	0	499	617	
15	0	0	0	0	499	620	
0	0	0	0	0	498	620	
1	0	0	0	0	498	620	
2	0	0	0	0	499	624	
3	0	0	0	0	500	620	
4	0	0	0	0	500	620	
5	0	0	0	0	501	620	
6	0	0	0	0	502	616	
7	0	0	0	0	502	620	
8	0	0	0	0	502	620	
9	0	0	0	0	503	620	
10	0	0	0	0	502	623	
11	0	0	0	0	503	619	
12	0	0	0	0	503	620	
13	0	0	0	0	503	619	
14	0	0	0	0	504	615	
15	0	0	0	0	504	619	
0	0	0	0	0	504	618	
1	0	0	0	0	504	619	
2	0	0	0	0	504	623	
3	0	0	0	0	504	620	
4	0	0	0	0	504	619	
5	0	0	0	0	505	619	
6	0	0	0	0	506	615	
7	0	0	0	0	505	620	
8	0	0	0	0	505	619	
9	0	0	0	0	507	619	
10	0	0	0	0	507	623	
11	0	0	0	0	506	620	
12	0	0	0	0	505	620	
13	0	0	0	0	504	619	
14	0	0	0	0	505	615	
15	0	0	0	0	505	619	
0	0	0	0	0	505	620	
1	0	0	0	0	505	619	
2	0	0	0	0	505	622	
3	0	0	0	0	505	618	
4	0	0	0	0	506	619	
5	0	0	0	0	508	619	
6	0	0	0	0	508	615	
7	0	0	0	0	508	619	
8	0	0	0	0	506	619	
9	0	0	0	0	506	619	
10	0	0	0	0	505	623	
11	0	0	0	0	505	619	
12	0	0	0	0	505	619	
13	0	0	0	0	505	619	
14	0	0	0	0	505	616	
15	0	0	0	0	505	620	
0	0	0	0	0	506	620	
1	0	0	0	0	506	620	
2	0	0	0	0	506	624	
3	0	0	0	0	506	620	
4	0	0	0	0	506	620	
5	0	0	0	0	507	621	
6	0	0	0	0	507	617	
7	0	0	0	0	507	621	
8	0	0	0	0	507	622	
9	0	0	0	0	507	622	
10	0	0	0	0	508	625	
11	0	0	0	0	508	622	
12	0	0	0	0	508	622	
13	0	0	0	0	508	622	
14	0	0	0	0	508	619	
15	0	0	0	0	508	622	
0	0	0	0	0	508	622	
1	0	0	0	0	508	623	
2	0	0	0	0	508	626	
3	0	0	0	0	508	622	
4	0	0	0	0	509	623	
5	0	0	0	0	509	623	
6	0	0	0	0	509	619	
7	0	0	0	0	509	623	
8	0	0	0	0	510	623	
9	0	0	0	0	509	623	
10	0	0	0	0	510	626	
11	0	0	0	0	510	623	
12	0	0	0	0	510	623	
13	0	0	0	0	510	623	
14	0	0	0	0	510	620	
15	0	0	0	0	510	623	
0	0	0	0	0	509	624	
1	0	0	0	0	509	624	
2	0	0	0	0	508	627	
3	0	0	0	0	508	623	
4	0	0	0	0	509	623	
5	0	0	0	0	510	622	
6	0	0	0	0	511	619	
7	0	0	0	0	510	622	
8	0	0	0	0	510	622	
9	0	0	0	0	510	623	
10	0	0	0	0	509	626	
11	0	0	0	0	510	622	
12	0	0	0	0	509	622	
13	0	0	0	0	509	622	
14	0	0	0	0	508	618	
15	0	0	0	0	508	622	
0	0	0	0	0	507	622	
1	0	0	0	0	508	622	
2	0	0	0	0	509	625	
3	0	0	0	0	509	621	
4	0	0	0	0	508	621	
5	0	0	0	0	509	621	
6	0	0	0	0	510	617	
7	0	0	0	0	511	621	
8	0	0	0	0	511	620	
9	0	0	0	0	511	620	
10	0	0	0	0	511	624	
11	0	0	0	0	512	620	
12	0	0	0	0	512	620	
13	0	0	0	0	511	620	
14	0	0	0	0	511	616	
15	0	0	0	0	510	620	
0	0	0	0	0	509	620	
1	0	0	0	0	509	620	
2	0	0	0	0	508	623	
3	0	0	0	0	508	620	
4	0	0	0	0	509	620	
5	0	0	0	0	510	620	
6	0	0	0	0	511	615	
7	0	0	0	0	512	620	
8	0	0	0	0	511	620	
9	0	0	0	0	512	620	
10	0	0	0	0	512	623	
11	0	0	0	0	512	619	
12	0	0	0	0	511	619	
13	0	0	0	0	511	619	
14	0	0	0	0	512	616	
15	0	0	0	0	512	619	
0	0	0	0	0	513	620	
1	0	0	0	0	512	620	
2	0	0	0	0	511	623	
3	0	0	0	0	512	620	
4	0	0	0	0	511	620	
5	0	0	0	0	511	620	
6	0	0	0	0	512	617	
7	0	0	0	0	512	620	
8	0	0	0	0	511	620	
9	0	0	0	0	512	620	
10	0	0	0	0	511	624	
11	0	0	0	0	511	620	
12	0	0	0	0	511	620	
13	0	0	0	0	512	620	
14	0	0	0	0	511	616	
15	0	0	0	0	511	621	
0	0	0	0	0	511	621	
1	0	0	0	0	511	620	
2	0	0	0	0	511	624	
3	0	0	0	0	512	620	
4	0	0	0	0	511	620	
5	0	0	0	0	511	620	
6	0	0	0	0	511	617	
7	0	0	0	0	511	620	
8	0	0	0	0	510	620	
9	0	0	0	0	511	620	
10	0	0	0	0	511	623	
11	0	0	0	0	511	620	
12	0	0	0	0	511	620	
13	0	0	0	0	511	620	
14	0	0	0	0	511	615	
15	0	0	0	0	511	620	
0	0	0	0	0	510	620	
1	0	0	0	0	510	621	
2	0	0	0	0	511	624	
3	0	0	0	0	511	621	
4	0	0	0	0	510	620	
5	0	0	0	0	510	620	
6	0	0	0	0	511	617	
7	0	0	0	0	510	622	
8	0	0	0	0	510	622	
9	0	0	0	0	510	622	
10	0	0	0	0	510	625	
11	0	0	0	0	511	622	
12	0	0	0	0	510	622	
13	0	0	0	0	509	623	
14	0	0	0	0	508	619	
15	0	0	0	0	508	623	
0	0	0	0	0	509	623	
1	0	0	0	0	509	623	
2	0	0	0	0	510	626	
3	0	0	0	0	510	622	
4	0	0	0	0	510	622	
5	0	0	0	0	510	622	
6	0	0	0	0	509	618	
7	0	0	0	0	508	622	
8	0	0	0	0	508	622	
9	0	0	0	0	508	622	
10	0	0	0	0	508	626	
11	0	0	0	0	508	622	
12	0	0	0	0	508	622	
13	0	0	0	0	508	622	
14	0	0	0	0	508	618	
15	0	0	0	0	508	622	
0	0	0	0	0	509	622	
1	0	0	0	0	510	621	
2	0	0	0	0	511	625	
3	0	0	0	0	510	621	
4	0	0	0	0	510	622	
5	0	0	0	0	511	622	
6	0	0	0	0	511	618	
7	0	0	0	0	511	622	
8	0	0	0	0	511	622	
9	0	0	0	0	511	622	
10	0	0	0	0	510	626	
11	0	0	0	0	511	622	
12	0	0	0	0	511	622	
13	0	0	0	0	511	622	
14	0	0	0	0	511	619	
15	0	0	0	0	510	623	
0	0	0	0	0	510	623	
1	0	0	0	0	510	623	
2	0	0	0	0	511	626	
3	0	0	0	0	510	623	
4	0	0	0	0	510	623	
5	0	0	0	0	510	623	
6	0	0	0	0	511	620	
7	0	0	0	0	511	623	
8	0	0	0	0	510	623	
9	0	0	0	0	509	624	
10	0	0	0	0	508	626	
11	0	0	0	0	509	623	
12	0	0	0	0	509	622	
13	0	0	0	0	510	623	
14	0	0	0	0	510	618	
15	0	0	0	0	509	622	
0	0	0	0	0	508	622	
1	0	0	0	0	508	622	
2	0	0	0	0	509	625	
3	0	0	0	0	509	621	
4	0	0	0	0	508	621	
5	0	0	0	0	508	621	
6	0	0	0	0	508	617	
7	0	0	0	0	508	621	
8	0	0	0	0	508	620	
9	0	0	0	0	508	622	
10	0	0	0	0	508	624	
11	0	0	0	0	509	621	
12	0	0	0	0	510	620	
13	0	0	0	0	510	620	
14	0	0	0	0	510	616	
15	0	0	0	0	510	620	
0	0	0	0	0	510	620	
1	0	0	0	0	510	620	
2	0	0	0	0	510	623	
3	0	0	0	0	510	620	
4	0	0	0	0	510	620	
5	0	0	0	0	510	620	
6	0	0	0	0	511	616	
7	0	0	0	0	510	620	
8	0	0	0	0	511	620	
9	0	0	0	0	511	620	
10	0	0	0	0	512	623	
11	0	0	0	0	512	619	
12	0	0	0	0	511	620	
13	0	0	0	0	512	620	
14	0	0	0	0	512	616	
15	0	0	0	0	512	619	
0	0	0	0	0	512	619	
1	0	0	0	0	512	620	
2	0	0	0	0	511	624	
3	0	0	0	0	510	620	
4	0	0	0	0	510	620	
5	0	0	0	0	510	620	
6	0	0	0	0	510	616	
7	0	0	0	0	510	620	
8	0	0	0	0	510	620	
9	0	0	0	0	510	620	
10	0	0	0	0	510	623	
11	0	0	0	0	509	620	
12	0	0	0	0	510	620	
13	0	0	0	0	509	620	
14	0	0	0	0	510	616	
15	0	0	0	0	510	620	
0	0	0	0	0	511	620	
1	0	0	0	0	510	620	
2	0	0	0	0	509	623	
3	0	0	0	0	509	620	
4	0	0	0	0	509	620	
5	0	0	0	0	508	620	
6	0	0	0	0	507	616	
7	0	0	0	0	506	620	
8	0	0	0	0	507	620	
9	0	0	0	0	507	621	
10	0	0	0	0	507	624	
11	0	0	0	0	505	621	
12	0	0	0	0	505	620	
13	0	0	0	0	505	620	
14	0	0	0	0	505	617	
15	0	0	0	0	506	622	
0	0	0	0	0	506	622	
1	0	0	0	0	506	623	
2	0	0	0	0	505	625	
3	0	0	0	0	506	622	
4	0	0	0	0	506	622	
5	0	0	0	0	506	622	
6	0	0	0	0	507	618	
7	0	0	0	0	507	622	
8	0	0	0	0	506	622	
9	0	0	0	0	506	622	
10	0	0	0	0	506	625	
11	0	0	0	0	506	622	
12	0	0	0	0	505	622	
13	0	0	0	0	506	622	
14	0	0	0	0	506	618	
15	0	0	0	0	506	622	
0	0	0	0	0	507	622	
1	0	0	0	0	508	622	
2	0	0	0	0	510	626	
3	0	0	0	0	509	622	
4	0	0	0	0	507	623	
5	0	0	0	0	505	622	
6	0	0	0	0	505	618	
7	0	0	0	0	506	622	
8	0	0	0	0	505	622	
9	0	0	0	0	504	622	
10	0	0	0	0	504	625	
11	0	0	0	0	505	621	
12	0	0	0	0	505	622	
13	0	0	0	0	506	622	
14	0	0	0	0	507	618	
15	0	0	0	0	507	622	
0	0	0	0	0	507	622	
1	0	0	0	0	507	622	
2	0	0	0	0	507	624	
3	0	0	0	0	507	621	
4	0	0	0	0	507	621	
5	0	0	0	0	507	621	
6	0	0	0	0	508	617	
7	0	0	0	0	508	620	
8	0	0	0	0	507	621	
9	0	0	0	0	507	621	
10	0	0	0	0	507	624	
11	0	0	0	0	507	621	
12	0	0	0	0	505	621	
13	0	0	0	0	504	620	
14	0	0	0	0	502	616	
15	0	0	0	0	499	621	
0	0	0	0	0	496	621	
1	0	0	0	0	493	620	
2	0	0	0	0	489	624	
3	0	0	0	0	486	621	
4	0	0	0	0	481	621	
5	0	0	0	0	477	620	
6	0	0	0	0	472	617	
7	0	0	0	0	467	621	
8	0	0	0	0	462	621	
9	0	0	0	0	457	621	
10	0	0	0	0	454	625	
11	0	0	0	0	452	621	
12	0	0	0	0	451	620	
13	0	0	0	0	451	620	
14	0	0	0	0	452	616	
15	0	0	0	0	455	621	
0	0	0	0	0	463	620	
1	0	0	0	0	473	620	
2	0	0	0	0	483	624	
3	0	0	0	0	497	620	
4	0	0	0	0	514	620	
5	0	0	0	0	533	620	
6	0	0	0	0	551	616	
7	0	0	0	0	572	620	
8	0	0	0	0	595	620	
9	0	0	0	0	619	620	
10	0	0	0	0	643	624	
11	0	0	0	0	669	621	
12	0	0	0	0	693	621	
13	0	0	0	0	714	620	
14	0	0	0	0	733	616	
15	0	0	0	0	749	621	
0	0	0	0	0	762	620	
1	0	0	0	0	771	621	
2	0	0	0	0	775	624	
3	0	0	0	0	776	621	
4	0	0	0	0	772	621	
5	0	0	0	0	766	621	
6	0	0	0	0	755	616	
7	0	0	0	0	743	620	
8	0	0	0	0	729	621	
9	0	0	0	0	715	621	
10	0	0	0	0	699	624	
11	0	0	0	0	683	620	
12	0	0	0	0	667	620	
13	0	0	0	0	650	620	
14	0	0	0	0	634	617	
15	0	0	0	0	618	620	
0	0	0	0	0	604	620	
1	0	0	0	0	590	620	
2	0	0	0	0	578	624	
3	0	0	0	0	567	620	
4	0	0	0	0	556	620	
5	0	0	0	0	547	620	
6	0	0	0	0	539	616	
7	0	0	0	0	532	620	
8	0	0	0	0	526	620	
9	0	0	0	0	520	620	
10	0	0	0	0	514	623	
11	0	0	0	0	509	620	
12	0	0	0	0	504	620	
13	0	0	0	0	498	621	
14	0	0	0	0	493	617	
15	0	0	0	0	488	622	
0	0	0	0	0	483	621	
1	0	0	0	0	478	621	
2	0	0	0	0	473	624	
3	0	0	0	0	470	621	
4	0	0	0	0	467	621	
5	0	0	0	0	464	620	
6	0	0	0	0	462	617	
7	0	0	0	0	460	620	
8	0	0	0	0	460	621	
9	0	0	0	0	460	621	
10	0	0	0	0	458	624	
11	0	0	0	0	459	620	
12	0	0	0	0	458	620	
13	0	0	0	0	457	620	
14	0	0	0	0	456	616	
15	0	0	0	0	455	620	
0	0	0	0	0	456	620	
1	0	0	0	0	455	620	
2	0	0	0	0	455	623	
3	0	0	0	0	455	619	
4	0	0	0	0	455	619	
5	0	0	0	0	455	620	
6	0	0	0	0	455	615	
7	0	0	0	0	455	619	
8	0	0	0	0	455	619	
9	0	0	0	0	454	619	
10	0	0	0	0	455	622	
11	0	0	0	0	455	619	
12	0	0	0	0	455	619	
13	0	0	0	0	455	619	
14	0	0	0	0	455	615	
15	0	0	0	0	456	620	
0	0	0	0	0	456	619	
1	0	0	0	0	457	620	
2	0	0	0	0	458	624	
3	0	0	0	0	459	620	
4	0	0	0	0	459	620	
5	0	0	0	0	459	620	
6	0	0	0	0	459	616	
7	0	0	0	0	460	620	
8	0	0	0	0	460	620	
9	0	0	0	0	461	621	
10	0	0	0	0	461	625	
11	0	0	0	0	462	621	
12	0	0	0	0	462	621	
13	0	0	0	0	462	621	
14	0	0	0	0	462	617	
15	0	0	0	0	463	622	
0	0	0	0	0	464	622	
1	0	0	0	0	463	622	
2	0	0	0	0	463	625	
3	0	0	0	0	465	622	
4	0	0	0	0	464	622	
5	0	0	0	0	465	622	
6	0	0	0	0	465	619	
7	0	0	0	0	465	622	
8	0	0	0	0	464	622	
9	0	0	0	0	464	622	
10	0	0	0	0	464	626	
11	0	0	0	0	465	622	
12	0	0	0	0	465	622	
13	0	0	0	0	467	622	
14	0	0	0	0	467	618	
15	0	0	0	0	467	622	
0	0	0	0	0	468	622	
1	0	0	0	0	468	622	
2	0	0	0	0	470	625	
3	0	0	0	0	472	621	
4	0	0	0	0	471	622	
5	0	0	0	0	471	622	
6	0	0	0	0	470	617	
7	0	0	0	0	471	621	
8	0	0	0	0	472	622	
9	0	0	0	0	472	622	
10	0	0	0	0	472	624	
11	0	0	0	0	472	622	
12	0	0	0	0	472	621	
13	0	0	0	0	473	620	
14	0	0	0	0	472	617	
15	0	0	0	0	474	620	
0	0	0	0	0	474	620	
1	0	0	0	0	474	620	
2	0	0	0	0	474	623	
3	0	0	0	0	475	620	
4	0	0	0	0	475	620	
5	0	0	0	0	475	620	
6	0	0	0	0	476	616	
7	0	0	0	0	475	621	
8	0	0	0	0	475	620	
9	0	0	0	0	475	620	
10	0	0	0	0	475	623	
11	0	0	0	0	476	620	
12	0	0	0	0	476	620	
13	0	0	0	0	476	620	
14	0	0	0	0	476	617	
15	0	0	0	0	476	620	
0	0	0	0	0	477	620	
1	0	0	0	0	477	620	
2	0	0	0	0	478	624	
3	0	0	0	0	477	621	
4	0	0	0	0	478	620	
5	0	0	0	0	479	620	
6	0	0	0	0	480	616	
7	0	0	0	0	479	620	
8	0	0	0	0	480	620	
9	0	0	0	0	480	621	
10	0	0	0	0	480	624	
11	0	0	0	0	481	621	
12	0	0	0	0	482	621	
13	0	0	0	0	482	620	
14	0	0	0	0	483	616	
15	0	0	0	0	483	620	
0	0	0	0	0	483	620	
1	0	0	0	0	483	620	
2	0	0	0	0	484	624	
3	0	0	0	0	486	621	
4	0	0	0	0	486	621	
5	0	0	0	0	487	620	
6	0	0	0	0	487	616	
7	0	0	0	0	487	621	
8	0	0	0	0	487	621	
9	0	0	0	0	487	621	
10	0	0	0	0	486	624	
11	0	0	0	0	486	620	
12	0	0	0	0	485	621	
13	0	0	0	0	485	620	
14	0	0	0	0	486	617	
15	0	0	0	0	488	621	
0	0	0	0	0	488	622	
1	0	0	0	0	487	621	
2	0	0	0	0	487	624	
3	0	0	0	0	486	621	
4	0	0	0	0	486	621	
5	0	0	0	0	485	621	
6	0	0	0	0	486	618	
7	0	0	0	0	486	621	
8	0	0	0	0	487	621	
9	0	0	0	0	487	622	
10	0	0	0	0	488	625	
11	0	0	0	0	489	622	
12	0	0	0	0	490	622	
13	0	0	0	0	491	622	
14	0	0	0	0	491	619	
15	0	0	0	0	491	622	
0	0	0	0	0	492	623	
1	0	0	0	0	493	623	
2	0	0	0	0	494	626	
3	0	0	0	0	494	622	
4	0	0	0	0	494	622	
5	0	0	0	0	494	622	
6	0	0	0	0	494	618	
7	0	0	0	0	495	622	
8	0	0	0	0	496	622	
9	0	0	0	0	496	622	
10	0	0	0	0	497	625	
11	0	0	0	0	498	623	
12	0	0	0	0	498	622	
13	0	0	0	0	498	622	
14	0	0	0	0	499	617	
15	0	0	0	0	499	622	
0	0	0	0	0	500	622	
1	0	0	0	0	500	622	
2	0	0	0	0	500	625	
3	0	0	0	0	501	621	
4	0	0	0	0	503	621	
5	0	0	0	0	503	620	
6	0	0	0	0	503	618	
7	0	0	0	0	504	622	
8	0	0	0	0	504	622	
9	0	0	0	0	504	621	
10	0	0	0	0	505	625	
11	0	0	0	0	507	621	
12	0	0	0	0	507	621	
13	0	0	0	0	508	621	
14	0	0	0	0	509	618	
15	0	0	0	0	510	621	
0	0	0	0	0	512	621	
1	0	0	0	0	512	622	
2	0	0	0	0	513	624	
3	0	0	0	0	513	621	
4	0	0	0	0	514	621	
5	0	0	0	0	515	621	
6	0	0	0	0	516	617	
7	0	0	0	0	516	622	
8	0	0	0	0	517	622	
9	0	0	0	0	518	622	
10	0	0	0	0	518	625	
11	0	0	0	0	519	623	
12	0	0	0	0	519	622	
13	0	0	0	0	519	622	
14	0	0	0	0	519	618	
15	0	0	0	0	520	623	
0	0	0	0	0	521	622	
1	0	0	0	0	521	623	
2	0	0	0	0	522	626	
3	0	0	0	0	521	622	
4	0	0	0	0	522	622	
5	0	0	0	0	522	622	
6	0	0	0	0	523	618	
7	0	0	0	0	523	622	
8	0	0	0	0	524	622	
9	0	0	0	0	524	622	
10	0	0	0	0	524	625	
11	0	0	0	0	524	622	
12	0	0	0	0	524	622	
13	0	0	0	0	524	621	
14	0	0	0	0	523	618	
15	0	0	0	0	523	622	
0	0	0	0	0	524	622	
1	0	0	0	0	524	622	
2	0	0	0	0	523	624	
3	0	0	0	0	522	620	
4	0	0	0	0	520	621	
5	0	0	0	0	519	621	
6	0	0	0	0	519	617	
7	0	0	0	0	517	621	
8	0	0	0	0	515	621	
9	0	0	0	0	515	621	
10	0	0	0	0	514	624	
11	0	0	0	0	513	621	
12	0	0	0	0	512	621	
13	0	0	0	0	511	621	
14	0	0	0	0	511	617	
15	0	0	0	0	510	621	
0	0	0	0	0	508	621	
1	0	0	0	0	505	622	
2	0	0	0	0	504	625	
3	0	0	0	0	503	622	
4	0	0	0	0	502	622	
5	0	0	0	0	500	622	
6	0	0	0	0	499	618	
7	0	0	0	0	499	622	
8	0	0	0	0	497	622	
9	0	0	0	0	497	622	
10	0	0	0	0	496	625	
11	0	0	0	0	496	622	
12	0	0	0	0	494	622	
13	0	0	0	0	493	621	
14	0	0	0	0	491	617	
15	0	0	0	0	489	621	
0	0	0	0	0	489	621	
1	0	0	0	0	489	621	
2	0	0	0	0	488	624	
3	0	0	0	0	487	621	
4	0	0	0	0	487	621	
5	0	0	0	0	486	620	
6	0	0	0	0	486	617	
7	0	0	0	0	486	621	
8	0	0	0	0	486	621	
9	0	0	0	0	486	620	
10	0	0	0	0	486	624	
11	0	0	0	0	486	621	
12	0	0	0	0	486	621	
13	0	0	0	0	485	621	
14	0	0	0	0	485	616	
15	0	0	0	0	484	620	
0	0	0	0	0	485	621	
1	0	0	0	0	484	621	
2	0	0	0	0	483	624	
3	0	0	0	0	483	620	
4	0	0	0	0	482	621	
5	0	0	0	0	483	621	
6	0	0	0	0	483	617	
7	0	0	0	0	484	621	
8	0	0	0	0	483	621	
9	0	0	0	0	483	621	
10	0	0	0	0	482	624	
11	0	0	0	0	483	620	
12	0	0	0	0	484	621	
13	0	0	0	0	485	621	
14	0	0	0	0	485	617	
15	0	0	0	0	485	621	
0	0	0	0	0	486	621	
1	0	0	0	0	487	622	
2	0	0	0	0	487	625	
3	0	0	0	0	487	621	
4	0	0	0	0	487	621	
5	0	0	0	0	487	622	
6	0	0	0	0	486	618	
7	0	0	0	0	487	622	
8	0	0	0	0	487	622	
9	0	0	0	0	488	622	
10	0	0	0	0	488	625	
11	0	0	0	0	488	622	
12	0	0	0	0	488	622	
13	0	0	0	0	488	623	
14	0	0	0	0	487	618	
15	0	0	0	0	487	622	
0	0	0	0	0	487	623	
1	0	0	0	0	487	623	
2	0	0	0	0	487	626	
3	0	0	0	0	488	622	
4	0	0	0	0	488	622	
5	0	0	0	0	489	622	
6	0	0	0	0	489	618	
7	0	0	0	0	490	622	
8	0	0	0	0	490	622	
9	0	0	0	0	490	622	
10	0	0	0	0	490	625	
11	0	0	0	0	490	621	
12	0	0	0	0	490	621	
13	0	0	0	0	490	621	
14	0	0	0	0	490	617	
15	0	0	0	0	490	621	
0	0	0	0	0	490	622	
1	0	0	0	0	490	621	
2	0	0	0	0	490	624	
3	0	0	0	0	489	620	
4	0	0	0	0	491	620	
5	0	0	0	0	492	621	
6	0	0	0	0	491	617	
7	0	0	0	0	492	620	
8	0	0	0	0	493	620	
9	0	0	0	0	494	621	
10	0	0	0	0	494	624	
11	0	0	0	0	494	620	
12	0	0	0	0	494	620	
13	0	0	0	0	493	620	
14	0	0	0	0	494	615	
15	0	0	0	0	495	619	
0	0	0	0	0	495	619	
1	0	0	0	0	495	620	
2	0	0	0	0	494	623	
3	0	0	0	0	494	619	
4	0	0	0	0	494	619	
5	0	0	0	0	494	619	
6	0	0	0	0	494	615	
7	0	0	0	0	493	619	
8	0	0	0	0	493	619	
9	0	0	0	0	493	619	
10	0	0	0	0	494	622	
11	0	0	0	0	495	619	
12	0	0	0	0	496	619	
13	0	0	0	0	496	618	
14	0	0	0	0	496	615	
15	0	0	0	0	496	619	
0	0	0	0	0	496	619	
1	0	0	0	0	495	619	
2	0	0	0	0	496	622	
3	0	0	0	0	497	619	
4	0	0	0	0	497	618	
5	0	0	0	0	496	618	
6	0	0	0	0	496	614	
7	0	0	0	0	496	618	
8	0	0	0	0	496	618	
9	0	0	0	0	496	618	
10	0	0	0	0	497	622	
11	0	0	0	0	497	618	
12	0	0	0	0	497	618	
13	0	0	0	0	497	617	
14	0	0	0	0	496	615	
15	0	0	0	0	496	618	
0	0	0	0	0	497	618	
1	0	0	0	0	498	618	
2	0	0	0	0	498	622	
3	0	0	0	0	499	619	
4	0	0	0	0	499	618	
5	0	0	0	0	499	618	
6	0	0	0	0	499	614	
7	0	0	0	0	498	618	
8	0	0	0	0	498	618	
9	0	0	0	0	497	618	
10	0	0	0	0	497	621	
11	0	0	0	0	498	618	
12	0	0	0	0	499	619	
13	0	0	0	0	499	619	
14	0	0	0	0	499	615	
15	0	0	0	0	499	620	
0	0	0	0	0	499	620	
1	0	0	0	0	500	619	
2	0	0	0	0	500	623	
3	0	0	0	0	500	619	
4	0	0	0	0	500	619	
5	0	0	0	0	500	619	
6	0	0	0	0	499	615	
7	0	0	0	0	499	619	
8	0	0	0	0	499	620	
9	0	0	0	0	501	620	
10	0	0	0	0	502	623	
11	0	0	0	0	502	619	
12	0	0	0	0	502	620	
13	0	0	0	0	502	619	
14	0	0	0	0	502	615	
15	0	0	0	0	503	620	
0	0	0	0	0	503	620	
1	0	0	0	0	503	620	
2	0	0	0	0	504	623	
3	0	0	0	0	504	620	
4	0	0	0	0	503	620	
5	0	0	0	0	502	619	
6	0	0	0	0	503	615	
7	0	0	0	0	503	620	
8	0	0	0	0	503	620	
9	0	0	0	0	503	620	
10	0	0	0	0	503	624	
11	0	0	0	0	504	620	
12	0	0	0	0	505	620	
13	0	0	0	0	506	620	
14	0	0	0	0	506	616	
15	0	0	0	0	505	620	
0	0	0	0	0	504	621	
1	0	0	0	0	504	621	
2	0	0	0	0	504	625	
3	0	0	0	0	505	621	
4	0	0	0	0	506	621	
5	0	0	0	0	505	620	
6	0	0	0	0	505	617	
7	0	0	0	0	505	621	
8	0	0	0	0	505	621	
9	0	0	0	0	506	621	
10	0	0	0	0	507	625	
11	0	0	0	0	507	622	
12	0	0	0	0	507	621	
13	0	0	0	0	508	620	
14	0	0	0	0	508	616	
15	0	0	0	0	508	620	
0	0	0	0	0	509	620	
1	0	0	0	0	509	620	
2	0	0	0	0	509	623	
3	0	0	0	0	509	619	
4	0	0	0	0	509	619	
5	0	0	0	0	509	619	
6	0	0	0	0	510	615	
7	0	0	0	0	510	619	
8	0	0	0	0	510	619	
9	0	0	0	0	509	619	
10	0	0	0	0	510	622	
11	0	0	0	0	509	619	
12	0	0	0	0	509	619	
13	0	0	0	0	508	618	
14	0	0	0	0	508	615	
15	0	0	0	0	508	619	
0	0	0	0	0	509	619	
1	0	0	0	0	509	620	
2	0	0	0	0	509	623	
3	0	0	0	0	510	619	
4	0	0	0	0	510	620	
5	0	0	0	0	510	620	
6	0	0	0	0	510	615	
7	0	0	0	0	510	620	
8	0	0	0	0	510	620	
9	0	0	0	0	510	620	
10	0	0	0	0	511	624	
11	0	0	0	0	511	621	
12	0	0	0	0	510	622	
13	0	0	0	0	510	622	
14	0	0	0	0	510	617	
15	0	0	0	0	510	622	
0	0	0	0	0	510	622	
1	0	0	0	0	510	622	
2	0	0	0	0	510	625	
3	0	0	0	0	511	623	
4	0	0	0	0	511	623	
5	0	0	0	0	511	623	
6	0	0	0	0	511	619	
7	0	0	0	0	510	623	
8	0	0	0	0	511	623	
9	0	0	0	0	511	623	
10	0	0	0	0	512	627	
11	0	0	0	0	512	624	
12	0	0	0	0	511	623	
13	0	0	0	0	511	623	
14	0	0	0	0	512	620	
15	0	0	0	0	512	623	
0	0	0	0	0	512	623	
1	0	0	0	0	512	623	
2	0	0	0	0	512	626	
3	0	0	0	0	512	623	
4	0	0	0	0	512	624	
5	0	0	0	0	511	624	
6	0	0	0	0	511	619	
7	0	0	0	0	512	622	
8	0	0	0	0	512	623	
9	0	0	0	0	511	624	
10	0	0	0	0	511	626	
11	0	0	0	0	511	622	
12	0	0	0	0	510	623	
13	0	0	0	0	511	623	
14	0	0	0	0	511	619	
15	0	0	0	0	510	622	
0	0	0	0	0	510	622	
1	0	0	0	0	509	623	
2	0	0	0	0	509	626	
3	0	0	0	0	510	622	
4	0	0	0	0	510	622	
5	0	0	0	0	510	622	
6	0	0	0	0	509	619	
7	0	0	0	0	510	622	
8	0	0	0	0	512	623	
9	0	0	0	0	512	623	
10	0	0	0	0	512	626	
11	0	0	0	0	512	623	
12	0	0	0	0	512	623	
13	0	0	0	0	512	623	
14	0	0	0	0	512	619	
15	0	0	0	0	512	623	
0	0	0	0	0	512	623	
1	0	0	0	0	512	623	
2	0	0	0	0	511	626	
3	0	0	0	0	512	623	
4	0	0	0	0	512	622	
5	0	0	0	0	512	622	
6	0	0	0	0	512	618	
7	0	0	0	0	513	622	
8	0	0	0	0	513	622	
9	0	0	0	0	512	622	
10	0	0	0	0	512	626	
11	0	0	0	0	512	622	
12	0	0	0	0	512	622	
13	0	0	0	0	512	622	
14	0	0	0	0	512	618	
15	0	0	0	0	511	622	
0	0	0	0	0	511	622	
1	0	0	0	0	511	622	
2	0	0	0	0	511	625	
3	0	0	0	0	511	622	
4	0	0	0	0	511	621	
5	0	0	0	0	510	622	
6	0	0	0	0	510	618	
7	0	0	0	0	511	622	
8	0	0	0	0	512	623	
9	0	0	0	0	512	623	
10	0	0	0	0	513	625	
11	0	0	0	0	513	622	
12	0	0	0	0	512	622	
13	0	0	0	0	511	622	
14	0	0	0	0	512	619	
15	0	0	0	0	511	623	
0	0	0	0	0	512	623	
1	0	0	0	0	512	623	
2	0	0	0	0	511	626	
3	0	0	0	0	511	623	
4	0	0	0	0	512	623	
5	0	0	0	0	512	623	
6	0	0	0	0	511	619	
7	0	0	0	0	511	623	
8	0	0	0	0	510	623	
9	0	0	0	0	510	624	
10	0	0	0	0	511	627	
11	0	0	0	0	512	623	
12	0	0	0	0	511	623	
13	0	0	0	0	512	624	
14	0	0	0	0	511	619	
15	0	0	0	0	511	623	
0	0	0	0	0	511	624	
1	0	0	0	0	511	624	
2	0	0	0	0	511	627	
3	0	0	0	0	510	624	
4	0	0	0	0	510	624	
5	0	0	0	0	510	624	
6	0	0	0	0	510	620	
7	0	0	0	0	510	624	
8	0	0	0	0	511	624	
9	0	0	0	0	511	624	
10	0	0	0	0	512	627	
11	0	0	0	0	512	624	
12	0	0	0	0	512	623	
13	0	0	0	0	511	624	
14	0	0	0	0	511	620	
15	0	0	0	0	510	624	
0	0	0	0	0	510	624	
1	0	0	0	0	510	623	
2	0	0	0	0	510	627	
3	0	0	0	0	511	623	
4	0	0	0	0	511	623	
5	0	0	0	0	510	623	
6	0	0	0	0	509	619	
7	0	0	0	0	509	623	
8	0	0	0	0	509	623	
9	0	0	0	0	509	623	
10	0	0	0	0	509	626	
11	0	0	0	0	509	623	
12	0	0	0	0	508	622	
13	0	0	0	0	509	622	
14	0	0	0	0	508	618	
15	0	0	0	0	508	621	
0	0	0	0	0	507	621	
1	0	0	0	0	507	621	
2	0	0	0	0	508	624	
3	0	0	0	0	508	620	
4	0	0	0	0	508	620	
5	0	0	0	0	508	620	
6	0	0	0	0	508	615	
7	0	0	0	0	508	620	
8	0	0	0	0	508	620	
9	0	0	0	0	508	620	
10	0	0	0	0	509	623	
11	0	0	0	0	509	619	
12	0	0	0	0	510	619	
13	0	0	0	0	510	619	
14	0	0	0	0	510	615	
15	0	0	0	0	511	620	
0	0	0	0	0	511	619	
1	0	0	0	0	512	619	
2	0	0	0	0	511	623	
3	0	0	0	0	511	619	
4	0	0	0	0	511	620	
5	0	0	0	0	510	620	
6	0	0	0	0	511	615	
7	0	0	0	0	512	620	
8	0	0	0	0	512	619	
9	0	0	0	0	512	620	
10	0	0	0	0	511	623	
11	0	0	0	0	512	620	
12	0	0	0	0	511	619	
13	0	0	0	0	511	620	
14	0	0	0	0	511	616	
15	0	0	0	0	511	620	
0	0	0	0	0	510	620	
1	0	0	0	0	510	621	
2	0	0	0	0	511	624	
3	0	0	0	0	513	621	
4	0	0	0	0	513	621	
5	0	0	0	0	513	621	
6	0	0	0	0	513	617	
7	0	0	0	0	513	622	
8	0	0	0	0	513	622	
9	0	0	0	0	513	622	
10	0	0	0	0	513	625	
11	0	0	0	0	513	623	
12	0	0	0	0	512	622	
13	0	0	0	0	512	623	
14	0	0	0	0	512	618	
15	0	0	0	0	512	622	
0	0	0	0	0	511	622	
1	0	0	0	0	511	622	
2	0	0	0	0	511	626	
3	0	0	0	0	510	622	
4	0	0	0	0	510	622	
5	0	0	0	0	510	622	
6	0	0	0	0	510	618	
7	0	0	0	0	510	622	
8	0	0	0	0	510	622	
9	0	0	0	0	510	622	
10	0	0	0	0	509	625	
11	0	0	0	0	509	622	
12	0	0	0	0	509	622	
13	0	0	0	0	509	621	
14	0	0	0	0	509	617	
15	0	0	0	0	510	621	
0	0	0	0	0	509	621	
1	0	0	0	0	510	621	
2	0	0	0	0	509	625	
3	0	0	0	0	509	620	
4	0	0	0	0	509	621	
5	0	0	0	0	509	620	
6	0	0	0	0	510	617	
7	0	0	0	0	510	621	
8	0	0	0	0	510	621	
9	0	0	0	0	510	621	
10	0	0	0	0	510	625	
11	0	0	0	0	510	621	
12	0	0	0	0	509	621	
13	0	0	0	0	509	620	
14	0	0	0	0	509	617	
15	0	0	0	0	509	621	
0	0	0	0	0	509	620	
1	0	0	0	0	509	621	
2	0	0	0	0	510	625	
3	0	0	0	0	510	622	
4	0	0	0	0	510	622	
5	0	0	0	0	510	622	
6	0	0	0	0	509	617	
7	0	0	0	0	509	622	
8	0	0	0	0	509	621	
9	0	0	0	0	508	622	
10	0	0	0	0	508	625	
11	0	0	0	0	508	621	
12	0	0	0	0	507	621	
13	0	0	0	0	506	621	
14	0	0	0	0	505	617	
15	0	0	0	0	506	621	
0	0	0	0	0	507	621	
1	0	0	0	0	508	621	
2	0	0	0	0	509	624	
3	0	0	0	0	509	620	
4	0	0	0	0	508	620	
5	0	0	0	0	507	621	
6	0	0	0	0	506	617	
7	0	0	0	0	506	620	
8	0	0	0	0	505	621	
9	0	0	0	0	504	621	
10	0	0	0	0	502	624	
11	0	0	0	0	500	620	
12	0	0	0	0	498	620	
13	0	0	0	0	496	620	
14	0	0	0	0	493	616	
15	0	0	0	0	490	621	
0	0	0	0	0	486	621	
1	0	0	0	0	481	621	
2	0	0	0	0	475	624	
3	0	0	0	0	470	621	
4	0	0	0	0	464	621	
5	0	0	0	0	460	621	
6	0	0	0	0	456	618	
7	0	0	0	0	454	622	
8	0	0	0	0	453	622	
9	0	0	0	0	452	623	
10	0	0	0	0	455	626	
11	0	0	0	0	459	622	
12	0	0	0	0	465	622	
13	0	0	0	0	475	622	
14	0	0	0	0	487	618	
15	0	0	0	0	500	622	
0	0	0	0	0	516	623	
1	0	0	0	0	534	622	
2	0	0	0	0	552	626	
3	0	0	0	0	572	622	
4	0	0	0	0	595	622	
5	0	0	0	0	618	623	
6	0	0	0	0	640	619	
7	0	0	0	0	664	623	
8	0	0	0	0	686	622	
9	0	0	0	0	707	623	
10	0	0	0	0	726	626	
11	0	0	0	0	743	622	
12	0	0	0	0	756	622	
13	0	0	0	0	765	622	
14	0	0	0	0	770	617	
15	0	0	0	0	773	622	
0	0	0	0	0	772	622	
1	0	0	0	0	769	622	
2	0	0	0	0	765	625	
3	0	0	0	0	757	621	
4	0	0	0	0	746	622	
5	0	0	0	0	733	622	
6	0	0	0	0	719	617	
7	0	0	0	0	702	622	
8	0	0	0	0	685	621	
9	0	0	0	0	667	621	
10	0	0	0	0	650	624	
11	0	0	0	0	633	621	
12	0	0	0	0	617	620	
13	0	0	0	0	602	620	
14	0	0	0	0	589	616	
15	0	0	0	0	576	621	
0	0	0	0	0	565	621	
1	0	0	0	0	555	621	
2	0	0	0	0	545	625	
3	0	0	0	0	536	622	
4	0	0	0	0	528	622	
5	0	0	0	0	521	622	
6	0	0	0	0	516	618	
7	0	0	0	0	510	622	
8	0	0	0	0	504	622	
9	0	0	0	0	497	622	
10	0	0	0	0	491	626	
11	0	0	0	0	487	622	
12	0	0	0	0	483	622	
13	0	0	0	0	479	622	
14	0	0	0	0	475	618	
15	0	0	0	0	471	623	
0	0	0	0	0	467	623	
1	0	0	0	0	464	623	
2	0	0	0	0	462	626	
3	0	0	0	0	460	622	
4	0	0	0	0	457	622	
5	0	0	0	0	455	622	
6	0	0	0	0	453	618	
7	0	0	0	0	452	622	
8	0	0	0	0	452	622	
9	0	0	0	0	452	623	
10	0	0	0	0	452	625	
11	0	0	0	0	452	622	
12	0	0	0	0	451	622	
13	0	0	0	0	451	622	
14	0	0	0	0	452	618	
15	0	0	0	0	451	622	
0	0	0	0	0	451	622	
1	0	0	0	0	449	621	
2	0	0	0	0	451	625	
3	0	0	0	0	451	621	
4	0	0	0	0	452	620	
5	0	0	0	0	453	620	
6	0	0	0	0	452	615	
7	0	0	0	0	452	620	
8	0	0	0	0	452	620	
9	0	0	0	0	452	619	
10	0	0	0	0	452	622	
11	0	0	0	0	452	618	
12	0	0	0	0	451	618	
13	0	0	0	0	453	617	
14	0	0	0	0	454	613	
15	0	0	0	0	455	617	
0	0	0	0	0	454	616	
1	0	0	0	0	455	617	
2	0	0	0	0	456	621	
3	0	0	0	0	457	617	
4	0	0	0	0	456	616	
5	0	0	0	0	457	616	
6	0	0	0	0	457	612	
7	0	0	0	0	458	617	
8	0	0	0	0	458	617	
9	0	0	0	0	459	616	
10	0	0	0	0	459	620	
11	0	0	0	0	460	616	
12	0	0	0	0	460	616	
13	0	0	0	0	461	616	
14	0	0	0	0	461	611	
15	0	0	0	0	461	616	
0	0	0	0	0	462	616	
1	0	0	0	0	463	616	
2	0	0	0	0	463	619	
3	0	0	0	0	463	616	
4	0	0	0	0	463	616	
5	0	0	0	0	464	616	
6	0	0	0	0	464	613	
7	0	0	0	0	464	617	
8	0	0	0	0	464	617	
9	0	0	0	0	465	618	
10	0	0	0	0	466	622	
11	0	0	0	0	466	617	
12	0	0	0	0	466	618	
13	0	0	0	0	467	617	
14	0	0	0	0	468	614	
15	0	0	0	0	470	618	
0	0	0	0	0	470	619	
1	0	0	0	0	470	619	
2	0	0	0	0	471	622	
3	0	0	0	0	471	619	
4	0	0	0	0	471	619	
5	0	0	0	0	472	619	
6	0	0	0	0	472	615	
7	0	0	0	0	472	619	
8	0	0	0	0	473	619	
9	0	0	0	0	474	619	
10	0	0	0	0	475	622	
11	0	0	0	0	475	619	
12	0	0	0	0	476	619	
13	0	0	0	0	475	618	
14	0	0	0	0	475	614	
15	0	0	0	0	475	618	
0	0	0	0	0	476	619	
1	0	0	0	0	476	618	
2	0	0	0	0	476	622	
3	0	0	0	0	477	618	
4	0	0	0	0	477	618	
5	0	0	0	0	478	618	
6	0	0	0	0	477	614	
7	0	0	0	0	477	618	
8	0	0	0	0	476	618	
9	0	0	0	0	476	619	
10	0	0	0	0	477	622	
11	0	0	0	0	477	619	
12	0	0	0	0	477	619	
13	0	0	0	0	477	618	
14	0	0	0	0	476	615	
15	0	0	0	0	476	619	
0	0	0	0	0	477	619	
1	0	0	0	0	477	619	
2	0	0	0	0	477	622	
3	0	0	0	0	479	620	
4	0	0	0	0	479	619	
5	0	0	0	0	479	619	
6	0	0	0	0	479	615	
7	0	0	0	0	479	620	
8	0	0	0	0	481	620	
9	0	0	0	0	481	620	
10	0	0	0	0	480	624	
11	0	0	0	0	480	620	
12	0	0	0	0	479	620	
13	0	0	0	0	479	621	
14	0	0	0	0	480	617	
15	0	0	0	0	480	621	
0	0	0	0	0	482	622	
1	0	0	0	0	482	621	
2	0	0	0	0	483	625	
3	0	0	0	0	484	621	
4	0	0	0	0	485	621	
5	0	0	0	0	485	622	
6	0	0	0	0	485	618	
7	0	0	0	0	485	623	
8	0	0	0	0	485	622	
9	0	0	0	0	485	623	
10	0	0	0	0	485	625	
11	0	0	0	0	486	622	
12	0	0	0	0	486	623	
13	0	0	0	0	486	623	
14	0	0	0	0	486	619	
15	0	0	0	0	487	623	
0	0	0	0	0	487	623	
1	0	0	0	0	487	623	
2	0	0	0	0	487	626	
3	0	0	0	0	487	623	
4	0	0	0	0	488	623	
5	0	0	0	0	488	622	
6	0	0	0	0	489	619	
7	0	0	0	0	490	623	
8	0	0	0	0	491	622	
9	0	0	0	0	490	623	
10	0	0	0	0	490	626	
11	0	0	0	0	490	623	
12	0	0	0	0	490	622	
13	0	0	0	0	490	622	
14	0	0	0	0	490	619	
15	0	0	0	0	491	622	
0	0	0	0	0	492	622	
1	0	0	0	0	491	622	
2	0	0	0	0	492	625	
3	0	0	0	0	493	622	
4	0	0	0	0	493	620	
5	0	0	0	0	494	621	
6	0	0	0	0	495	617	
7	0	0	0	0	495	621	
8	0	0	0	0	496	620	
9	0	0	0	0	495	620	
10	0	0	0	0	497	624	
11	0	0	0	0	497	620	
12	0	0	0	0	498	621	
13	0	0	0	0	498	620	
14	0	0	0	0	499	616	
15	0	0	0	0	500	620	
0	0	0	0	0	500	620	
1	0	0	0	0	501	621	
2	0	0	0	0	503	624	
3	0	0	0	0	504	620	
4	0	0	0	0	504	620	
5	0	0	0	0	504	620	
6	0	0	0	0	504	617	
7	0	0	0	0	503	620	
8	0	0	0	0	503	620	
9	0	0	0	0	504	621	
10	0	0	0	0	504	624	
11	0	0	0	0	504	620	
12	0	0	0	0	504	620	
13	0	0	0	0	505	620	
14	0	0	0	0	507	616	
15	0	0	0	0	508	620	
0	0	0	0	0	510	620	
1	0	0	0	0	511	620	
2	0	0	0	0	512	623	
3	0	0	0	0	514	620	
4	0	0	0	0	515	619	
5	0	0	0	0	515	619	
6	0	0	0	0	516	615	
7	0	0	0	0	517	619	
8	0	0	0	0	517	619	
9	0	0	0	0	518	619	
10	0	0	0	0	518	622	
11	0	0	0	0	519	619	
12	0	0	0	0	519	619	
13	0	0	0	0	518	619	
14	0	0	0	0	518	614	
15	0	0	0	0	518	618	
0	0	0	0	0	518	617	
1	0	0	0	0	518	618	
2	0	0	0	0	518	621	
3	0	0	0	0	520	618	
4	0	0	0	0	520	619	
5	0	0	0	0	519	619	
6	0	0	0	0	519	615	
7	0	0	0	0	519	619	
8	0	0	0	0	519	619	
9	0	0	0	0	520	620	
10	0	0	0	0	521	623	
11	0	0	0	0	521	619	
12	0	0	0	0	520	620	
13	0	0	0	0	520	620	
14	0	0	0	0	521	616	
15	0	0	0	0	522	620	
0	0	0	0	0	522	621	
1	0	0	0	0	522	620	
2	0	0	0	0	521	624	
3	0	0	0	0	521	621	
4	0	0	0	0	519	621	
5	0	0	0	0	519	621	
6	0	0	0	0	518	617	
7	0	0	0	0	518	622	
8	0	0	0	0	517	622	
9	0	0	0	0	516	622	
10	0	0	0	0	516	626	
11	0	0	0	0	515	622	
12	0	0	0	0	513	623	
13	0	0	0	0	513	623	
14	0	0	0	0	512	619	
15	0	0	0	0	511	623	
0	0	0	0	0	510	624	
1	0	0	0	0	508	624	
2	0	0	0	0	507	627	
3	0	0	0	0	506	624	
4	0	0	0	0	504	624	
5	0	0	0	0	504	625	
6	0	0	0	0	503	621	
7	0	0	0	0	503	624	
8	0	0	0	0	502	625	
9	0	0	0	0	501	626	
10	0	0	0	0	500	629	
11	0	0	0	0	501	626	
12	0	0	0	0	500	626	
13	0	0	0	0	499	626	
14	0	0	0	0	499	622	
15	0	0	0	0	498	626	
0	0	0	0	0	497	626	
1	0	0	0	0	496	626	
2	0	0	0	0	496	629	
3	0	0	0	0	495	626	
4	0	0	0	0	496	626	
5	0	0	0	0	496	626	
6	0	0	0	0	497	622	
7	0	0	0	0	496	626	
8	0	0	0	0	496	625	
9	0	0	0	0	496	626	
10	0	0	0	0	496	628	
11	0	0	0	0	496	625	
12	0	0	0	0	496	625	
13	0	0	0	0	496	624	
14	0	0	0	0	495	620	
15	0	0	0	0	496	624	
0	0	0	0	0	496	623	
1	0	0	0	0	496	623	
2	0	0	0	0	496	626	
3	0	0	0	0	496	622	
4	0	0	0	0	496	622	
5	0	0	0	0	496	621	
6	0	0	0	0	496	617	
7	0	0	0	0	496	621	
8	0	0	0	0	496	620	
9	0	0	0	0	496	620	
10	0	0	0	0	496	623	
11	0	0	0	0	496	619	
12	0	0	0	0	496	619	
13	0	0	0	0	497	619	
14	0	0	0	0	497	615	
15	0	0	0	0	497	618	
0	0	0	0	0	497	617	
1	0	0	0	0	497	617	
2	0	0	0	0	497	621	
3	0	0	0	0	496	617	
4	0	0	0	0	497	617	
5	0	0	0	0	497	617	
6	0	0	0	0	497	613	
7	0	0	0	0	496	617	
8	0	0	0	0	496	616	
9	0	0	0	0	496	617	
10	0	0	0	0	497	620	
11	0	0	0	0	498	616	
12	0	0	0	0	498	616	
13	0	0	0	0	498	616	
14	0	0	0	0	497	613	
15	0	0	0	0	497	617	
0	0	0	0	0	498	616	
1	0	0	0	0	498	617	
2	0	0	0	0	498	621	
3	0	0	0	0	498	617	
4	0	0	0	0	499	617	
5	0	0	0	0	498	617	
6	0	0	0	0	497	614	
7	0	0	0	0	498	618	
8	0	0	0	0	499	618	
9	0	0	0	0	500	618	
10	0	0	0	0	500	622	
11	0	0	0	0	500	619	
12	0	0	0	0	500	619	
13	0	0	0	0	500	620	
14	0	0	0	0	501	616	
15	0	0	0	0	501	620	
0	0	0	0	0	502	620	
1	0	0	0	0	501	622	
2	0	0	0	0	500	624	
3	0	0	0	0	500	622	
4	0	0	0	0	499	621	
5	0	0	0	0	500	622	
6	0	0	0	0	500	618	
7	0	0	0	0	500	623	
8	0	0	0	0	500	622	
9	0	0	0	0	500	623	
10	0	0	0	0	500	626	
11	0	0	0	0	501	623	
12	0	0	0	0	502	623	
13	0	0	0	0	502	623	
14	0	0	0	0	502	619	
15	0	0	0	0	502	624	
0	0	0	0	0	503	623	
1	0	0	0	0	503	624	
2	0	0	0	0	503	627	
3	0	0	0	0	503	623	
4	0	0	0	0	503	623	
5	0	0	0	0	503	623	
6	0	0	0	0	502	619	
7	0	0	0	0	501	623	
8	0	0	0	0	501	622	
9	0	0	0	0	500	623	
10	0	0	0	0	500	626	
11	0	0	0	0	501	622	
12	0	0	0	0	500	622	
13	0	0	0	0	501	622	
14	0	0	0	0	501	618	
15	0	0	0	0	501	622	
0	0	0	0	0	501	622	
1	0	0	0	0	500	622	
2	0	0	0	0	500	625	
3	0	0	0	0	501	622	
4	0	0	0	0	502	623	
5	0	0	0	0	503	622	
6	0	0	0	0	504	619	
7	0	0	0	0	504	623	
8	0	0	0	0	504	622	
9	0	0	0	0	504	623	
10	0	0	0	0	504	626	
11	0	0	0	0	504	622	
12	0	0	0	0	504	622	
13	0	0	0	0	504	622	
14	0	0	0	0	503	619	
15	0	0	0	0	502	623	
0	0	0	0	0	503	622	
1	0	0	0	0	503	622	
2	0	0	0	0	503	625	
3	0	0	0	0	504	622	
4	0	0	0	0	504	621	
5	0	0	0	0	504	622	
6	0	0	0	0	504	617	
7	0	0	0	0	505	621	
8	0	0	0	0	504	621	
9	0	0	0	0	505	621	
10	0	0	0	0	504	624	
11	0	0	0	0	504	620	
12	0	0	0	0	504	620	
13	0	0	0	0	505	620	
14	0	0	0	0	505	616	
15	0	0	0	0	505	621	
0	0	0	0	0	505	620	
1	0	0	0	0	505	620	
2	0	0	0	0	505	624	
3	0	0	0	0	506	620	
4	0	0	0	0	506	620	
5	0	0	0	0	506	620	
6	0	0	0	0	505	616	
7	0	0	0	0	505	620	
8	0	0	0	0	504	621	
9	0	0	0	0	504	621	
10	0	0	0	0	505	624	
11	0	0	0	0	506	621	
12	0	0	0	0	505	620	
13	0	0	0	0	505	620	
14	0	0	0	0	506	617	
15	0	0	0	0	505	621	
0	0	0	0	0	506	621	
1	0	0	0	0	506	621	
2	0	0	0	0	507	624	
3	0	0	0	0	507	621	
4	0	0	0	0	507	622	
5	0	0	0	0	507	621	
6	0	0	0	0	507	617	
7	0	0	0	0	508	622	
8	0	0	0	0	508	621	
9	0	0	0	0	507	622	
10	0	0	0	0	507	625	
11	0	0	0	0	507	622	
12	0	0	0	0	507	622	
13	0	0	0	0	506	622	
14	0	0	0	0	506	618	
15	0	0	0	0	507	622	
0	0	0	0	0	508	621	
1	0	0	0	0	508	623	
2	0	0	0	0	508	626	
3	0	0	0	0	508	623	
4	0	0	0	0	509	622	
5	0	0	0	0	509	623	
6	0	0	0	0	509	619	
7	0	0	0	0	508	623	
8	0	0	0	0	509	622	
9	0	0	0	0	508	623	
10	0	0	0	0	508	626	
11	0	0	0	0	509	623	
12	0	0	0	0	509	623	
13	0	0	0	0	509	623	
14	0	0	0	0	509	619	
15	0	0	0	0	508	623	
0	0	0	0	0	508	623	
1	0	0	0	0	508	623	
2	0	0	0	0	509	626	
3	0	0	0	0	509	623	
4	0	0	0	0	508	623	
5	0	0	0	0	508	623	
6	0	0	0	0	508	619	
7	0	0	0	0	508	623	
8	0	0	0	0	509	623	
9	0	0	0	0	509	623	
10	0	0	0	0	509	627	
11	0	0	0	0	508	623	
12	0	0	0	0	509	623	
13	0	0	0	0	509	623	
14	0	0	0	0	510	618	
15	0	0	0	0	510	623	
0	0	0	0	0	510	623	
1	0	0	0	0	510	622	
2	0	0	0	0	510	625	
3	0	0	0	0	509	622	
4	0	0	0	0	510	622	
5	0	0	0	0	509	622	
6	0	0	0	0	509	618	
7	0	0	0	0	510	622	
8	0	0	0	0	509	622	
9	0	0	0	0	509	622	
10	0	0	0	0	509	625	
11	0	0	0	0	510	622	
12	0	0	0	0	510	622	
13	0	0	0	0	509	622	
14	0	0	0	0	510	618	
15	0	0	0	0	510	622	
0	0	0	0	0	510	622	
1	0	0	0	0	510	622	
2	0	0	0	0	509	625	
3	0	0	0	0	510	621	
4	0	0	0	0	510	622	
5	0	0	0	0	510	621	
6	0	0	0	0	510	618	
7	0	0	0	0	510	622	
8	0	0	0	0	511	621	
9	0	0	0	0	511	621	
10	0	0	0	0	512	624	
11	0	0	0	0	512	620	
12	0	0	0	0	512	620	
13	0	0	0	0	512	620	
14	0	0	0	0	511	616	
15	0	0	0	0	511	620	
0	0	0	0	0	512	620	
1	0	0	0	0	512	619	
2	0	0	0	0	512	623	
3	0	0	0	0	512	620	
4	0	0	0	0	512	620	
5	0	0	0	0	512	620	
6	0	0	0	0	512	615	
7	0	0	0	0	512	620	
8	0	0	0	0	512	619	
9	0	0	0	0	512	620	
10	0	0	0	0	513	623	
11	0	0	0	0	513	620	
12	0	0	0	0	512	620	
13	0	0	0	0	513	619	
14	0	0	0	0	513	615	
15	0	0	0	0	513	620	
0	0	0	0	0	513	620	
1	0	0	0	0	514	620	
2	0	0	0	0	514	623	
3	0	0	0	0	514	620	
4	0	0	0	0	514	620	
5	0	0	0	0	513	619	
6	0	0	0	0	513	615	
7	0	0	0	0	512	619	
8	0	0	0	0	512	619	
9	0	0	0	0	512	620	
10	0	0	0	0	512	622	
11	0	0	0	0	512	619	
12	0	0	0	0	512	619	
13	0	0	0	0	511	619	
14	0	0	0	0	512	615	
15	0	0	0	0	513	619	
0	0	0	0	0	514	619	
1	0	0	0	0	513	618	
2	0	0	0	0	512	622	
3	0	0	0	0	512	618	
4	0	0	0	0	512	618	
5	0	0	0	0	512	619	
6	0	0	0	0	511	614	
7	0	0	0	0	511	619	
8	0	0	0	0	511	619	
9	0	0	0	0	511	619	
10	0	0	0	0	512	622	
11	0	0	0	0	511	618	
12	0	0	0	0	510	618	
13	0	0	0	0	510	618	
14	0	0	0	0	510	614	
15	0	0	0	0	509	618	
0	0	0	0	0	511	618	
1	0	0	0	0	511	619	
2	0	0	0	0	512	622	
3	0	0	0	0	512	618	
4	0	0	0	0	512	619	
5	0	0	0	0	511	619	
6	0	0	0	0	511	615	
7	0	0	0	0	511	619	
8	0	0	0	0	511	619	
9	0	0	0	0	512	619	
10	0	0	0	0	513	622	
11	0	0	0	0	512	618	
12	0	0	0	0	512	619	
13	0	0	0	0	512	617	
14	0	0	0	0	512	614	
15	0	0	0	0	512	618	
0	0	0	0	0	511	617	
1	0	0	0	0	511	618	
2	0	0	0	0	511	621	
3	0	0	0	0	511	617	
4	0	0	0	0	511	618	
5	0	0	0	0	511	617	
6	0	0	0	0	511	614	
7	0	0	0	0	511	618	
8	0	0	0	0	510	618	
9	0	0	0	0	510	619	
10	0	0	0	0	510	622	
11	0	0	0	0	510	619	
12	0	0	0	0	510	620	
13	0	0	0	0	510	620	
14	0	0	0	0	509	615	
15	0	0	0	0	508	619	
0	0	0	0	0	510	620	
1	0	0	0	0	510	620	
2	0	0	0	0	509	623	
3	0	0	0	0	509	620	
4	0	0	0	0	510	620	
5	0	0	0	0	511	621	
6	0	0	0	0	510	616	
7	0	0	0	0	510	620	
8	0	0	0	0	509	620	
9	0	0	0	0	509	620	
10	0	0	0	0	510	624	
11	0	0	0	0	511	621	
12	0	0	0	0	511	621	
13	0	0	0	0	511	621	
14	0	0	0	0	511	617	
15	0	0	0	0	510	621	
0	0	0	0	0	509	621	
1	0	0	0	0	509	622	
2	0	0	0	0	508	625	
3	0	0	0	0	508	622	
4	0	0	0	0	508	622	
5	0	0	0	0	509	621	
6	0	0	0	0	509	618	
7	0	0	0	0	509	622	
8	0	0	0	0	510	622	
9	0	0	0	0	510	621	
10	0	0	0	0	511	625	
11	0	0	0	0	512	622	
12	0	0	0	0	512	622	
13	0	0	0	0	512	622	
14	0	0	0	0	511	618	
15	0	0	0	0	512	622	
0	0	0	0	0	512	622	
1	0	0	0	0	512	622	
2	0	0	0	0	512	625	
3	0	0	0	0	513	622	
4	0	0	0	0	513	621	
5	0	0	0	0	513	622	
6	0	0	0	0	513	617	
7	0	0	0	0	513	621	
8	0	0	0	0	514	621	
9	0	0	0	0	514	621	
10	0	0	0	0	515	624	
11	0	0	0	0	516	620	
12	0	0	0	0	515	620	
13	0	0	0	0	515	620	
14	0	0	0	0	515	616	
15	0	0	0	0	515	620	
0	0	0	0	0	516	620	
1	0	0	0	0	516	620	
2	0	0	0	0	517	623	
3	0	0	0	0	516	620	
4	0	0	0	0	517	620	
5	0	0	0	0	517	620	
6	0	0	0	0	516	616	
7	0	0	0	0	516	620	
8	0	0	0	0	516	620	
9	0	0	0	0	516	620	
10	0	0	0	0	516	624	
11	0	0	0	0	516	620	
12	0	0	0	0	516	622	
13	0	0	0	0	515	621	
14	0	0	0	0	515	618	
15	0	0	0	0	515	622	
0	0	0	0	0	514	622	
1	0	0	0	0	514	622	
2	0	0	0	0	515	625	
3	0	0	0	0	515	623	
4	0	0	0	0	514	622	
5	0	0	0	0	513	623	
6	0	0	0	0	513	619	
7	0	0	0	0	513	623	
8	0	0	0	0	513	624	
9	0	0	0	0	514	624	
10	0	0	0	0	514	627	
11	0	0	0	0	513	624	
12	0	0	0	0	513	624	
13	0	0	0	0	513	624	
14	0	0	0	0	513	619	
15	0	0	0	0	514	623	
0	0	0	0	0	513	623	
1	0	0	0	0	512	624	
2	0	0	0	0	512	627	
3	0	0	0	0	512	624	
4	0	0	0	0	512	624	
5	0	0	0	0	513	624	
6	0	0	0	0	513	619	
7	0	0	0	0	512	623	
8	0	0	0	0	513	623	
9	0	0	0	0	512	623	
10	0	0	0	0	512	625	
11	0	0	0	0	512	622	
12	0	0	0	0	513	622	
13	0	0	0	0	513	622	
14	0	0	0	0	513	618	
15	0	0	0	0	513	622	
0	0	0	0	0	513	622	
1	0	0	0	0	514	622	
2	0	0	0	0	514	624	
3	0	0	0	0	514	621	
4	0	0	0	0	515	622	
5	0	0	0	0	515	621	
6	0	0	0	0	515	617	
7	0	0	0	0	515	622	
8	0	0	0	0	515	622	
9	0	0	0	0	515	621	
10	0	0	0	0	515	624	
11	0	0	0	0	514	622	
12	0	0	0	0	514	621	
13	0	0	0	0	514	621	
14	0	0	0	0	514	617	
15	0	0	0	0	514	622	
0	0	0	0	0	514	622	
1	0	0	0	0	514	622	
2	0	0	0	0	513	624	
3	0	0	0	0	512	621	
4	0	0	0	0	512	621	
5	0	0	0	0	513	621	
6	0	0	0	0	512	617	
7	0	0	0	0	510	621	
8	0	0	0	0	509	622	
9	0	0	0	0	508	622	
10	0	0	0	0	507	625	
11	0	0	0	0	505	622	
12	0	0	0	0	502	622	
13	0	0	0	0	500	622	
14	0	0	0	0	498	618	
15	0	0	0	0	496	622	
0	0	0	0	0	493	622	
1	0	0	0	0	488	622	
2	0	0	0	0	483	626	
3	0	0	0	0	478	622	
4	0	0	0	0	473	622	
5	0	0	0	0	468	622	
6	0	0	0	0	463	618	
7	0	0	0	0	458	622	
8	0	0	0	0	455	622	
9	0	0	0	0	454	622	
10	0	0	0	0	454	626	
11	0	0	0	0	456	622	
12	0	0	0	0	460	621	
13	0	0	0	0	466	621	
14	0	0	0	0	476	618	
15	0	0	0	0	487	621	
0	0	0	0	0	500	621	
1	0	0	0	0	515	621	
2	0	0	0	0	534	625	
3	0	0	0	0	553	622	
4	0	0	0	0	573	621	
5	0	0	0	0	595	620	
6	0	0	0	0	618	617	
7	0	0	0	0	641	621	
8	0	0	0	0	664	621	
9	0	0	0	0	688	621	
10	0	0	0	0	710	624	
11	0	0	0	0	729	620	
12	0	0	0	0	746	620	
13	0	0	0	0	760	620	
14	0	0	0	0	771	616	
15	0	0	0	0	778	620	
0	0	0	0	0	781	620	
1	0	0	0	0	779	620	
2	0	0	0	0	775	624	
3	0	0	0	0	769	620	
4	0	0	0	0	759	620	
5	0	0	0	0	748	620	
6	0	0	0	0	736	616	
7	0	0	0	0	721	620	
8	0	0	0	0	704	620	
9	0	0	0	0	688	620	
10	0	0	0	0	671	624	
11	0	0	0	0	653	622	
12	0	0	0	0	636	622	
13	0	0	0	0	619	622	
14	0	0	0	0	604	617	
15	0	0	0	0	590	622	
0	0	0	0	0	577	622	
1	0	0	0	0	567	622	
2	0	0	0	0	556	626	
3	0	0	0	0	545	622	
4	0	0	0	0	536	622	
5	0	0	0	0	528	622	
6	0	0	0	0	521	619	
7	0	0	0	0	515	623	
8	0	0	0	0	510	624	
9	0	0	0	0	504	624	
10	0	0	0	0	499	627	
11	0	0	0	0	494	624	
12	0	0	0	0	488	624	
13	0	0	0	0	483	623	
14	0	0	0	0	480	620	
15	0	0	0	0	476	624	
0	0	0	0	0	472	624	
1	0	0	0	0	469	624	
2	0	0	0	0	465	627	
3	0	0	0	0	463	623	
4	0	0	0	0	460	623	
5	0	0	0	0	459	623	
6	0	0	0	0	458	620	
7	0	0	0	0	458	623	
8	0	0	0	0	457	623	
9	0	0	0	0	456	623	
10	0	0	0	0	456	626	
11	0	0	0	0	455	622	
12	0	0	0	0	454	622	
13	0	0	0	0	454	623	
14	0	0	0	0	453	618	
15	0	0	0	0	453	622	
0	0	0	0	0	454	622	
1	0	0	0	0	453	622	
2	0	0	0	0	453	625	
3	0	0	0	0	454	622	
4	0	0	0	0	454	622	
5	0	0	0	0	454	622	
6	0	0	0	0	453	618	
7	0	0	0	0	454	621	
8	0	0	0	0	454	621	
9	0	0	0	0	454	622	
10	0	0	0	0	454	625	
11	0	0	0	0	456	621	
12	0	0	0	0	455	621	
13	0	0	0	0	455	621	
14	0	0	0	0	456	617	
15	0	0	0	0	456	621	
0	0	0	0	0	457	621	
1	0	0	0	0	459	622	
2	0	0	0	0	459	624	
3	0	0	0	0	458	620	
4	0	0	0	0	457	621	
5	0	0	0	0	457	621	
6	0	0	0	0	459	617	
7	0	0	0	0	459	620	
8	0	0	0	0	460	620	
9	0	0	0	0	460	620	
10	0	0	0	0	461	624	
11	0	0	0	0	461	619	
12	0	0	0	0	461	620	
13	0	0	0	0	462	620	
14	0	0	0	0	462	616	
15	0	0	0	0	463	620	
0	0	0	0	0	463	620	
1	0	0	0	0	463	621	
2	0	0	0	0	463	623	
3	0	0	0	0	463	620	
4	0	0	0	0	462	619	
5	0	0	0	0	463	619	
6	0	0	0	0	464	615	
7	0	0	0	0	464	619	
8	0	0	0	0	464	619	
9	0	0	0	0	465	620	
10	0	0	0	0	465	623	
11	0	0	0	0	467	619	
12	0	0	0	0	467	620	
13	0	0	0	0	467	620	
14	0	0	0	0	468	615	
15	0	0	0	0	469	619	
0	0	0	0	0	470	619	
1	0	0	0	0	471	619	
2	0	0	0	0	472	623	
3	0	0	0	0	473	619	
4	0	0	0	0	472	619	
5	0	0	0	0	472	620	
6	0	0	0	0	473	615	
7	0	0	0	0	473	620	
8	0	0	0	0	473	619	
9	0	0	0	0	474	619	
10	0	0	0	0	473	623	
11	0	0	0	0	475	620	
12	0	0	0	0	473	620	
13	0	0	0	0	473	620	
14	0	0	0	0	473	617	
15	0	0	0	0	474	620	
0	0	0	0	0	475	621	
1	0	0	0	0	475	621	
2	0	0	0	0	475	624	
3	0	0	0	0	476	620	
4	0	0	0	0	477	620	
5	0	0	0	0	477	621	
6	0	0	0	0	477	616	
7	0	0	0	0	477	620	
8	0	0	0	0	477	620	
9	0	0	0	0	478	620	
10	0	0	0	0	480	623	
11	0	0	0	0	480	620	
12	0	0	0	0	480	620	
13	0	0	0	0	481	620	
14	0	0	0	0	481	616	
15	0	0	0	0	481	620	
0	0	0	0	0	482	619	
1	0	0	0	0	484	619	
2	0	0	0	0	484	623	
3	0	0	0	0	485	619	
4	0	0	0	0	484	619	
5	0	0	0	0	483	619	
6	0	0	0	0	483	615	
7	0	0	0	0	483	619	
8	0	0	0	0	484	619	
9	0	0	0	0	484	619	
10	0	0	0	0	484	623	
11	0	0	0	0	485	619	
12	0	0	0	0	484	620	
13	0	0	0	0	485	619	
14	0	0	0	0	486	615	
15	0	0	0	0	486	619	
0	0	0	0	0	487	619	
1	0	0	0	0	487	620	
2	0	0	0	0	487	623	
3	0	0	0	0	487	620	
4	0	0	0	0	487	620	
5	0	0	0	0	488	620	
6	0	0	0	0	487	615	
7	0	0	0	0	487	620	
8	0	0	0	0	487	620	
9	0	0	0	0	487	620	
10	0	0	0	0	488	623	
11	0	0	0	0	488	620	
12	0	0	0	0	488	620	
13	0	0	0	0	488	620	
14	0	0	0	0	488	617	
15	0	0	0	0	489	620	
0	0	0	0	0	490	620	
1	0	0	0	0	490	621	
2	0	0	0	0	490	625	
3	0	0	0	0	489	620	
4	0	0	0	0	490	621	
5	0	0	0	0	490	621	
6	0	0	0	0	491	617	
7	0	0	0	0	491	621	
8	0	0	0	0	493	622	
9	0	0	0	0	493	621	
10	0	0	0	0	492	624	
11	0	0	0	0	492	621	
12	0	0	0	0	492	622	
13	0	0	0	0	492	622	
14	0	0	0	0	492	618	
15	0	0	0	0	493	622	
0	0	0	0	0	494	622	
1	0	0	0	0	496	622	
2	0	0	0	0	496	625	
3	0	0	0	0	497	622	
4	0	0	0	0	496	622	
5	0	0	0	0	497	622	
6	0	0	0	0	498	618	
7	0	0	0	0	499	622	
8	0	0	0	0	500	623	
9	0	0	0	0	500	623	
10	0	0	0	0	501	626	
11	0	0	0	0	501	623	
12	0	0	0	0	501	623	
13	0	0	0	0	501	624	
14	0	0	0	0	500	620	
15	0	0	0	0	501	624	
0	0	0	0	0	501	624	
1	0	0	0	0	501	624	
2	0	0	0	0	502	627	
3	0	0	0	0	503	624	
4	0	0	0	0	504	624	
5	0	0	0	0	505	624	
6	0	0	0	0	505	621	
7	0	0	0	0	506	624	
8	0	0	0	0	506	624	
9	0	0	0	0	507	625	
10	0	0	0	0	508	627	
11	0	0	0	0	509	625	
12	0	0	0	0	510	624	
13	0	0	0	0	511	624	
14	0	0	0	0	512	621	
15	0	0	0	0	513	624	
0	0	0	0	0	513	625	
1	0	0	0	0	514	625	
2	0	0	0	0	515	628	
3	0	0	0	0	515	624	
4	0	0	0	0	516	624	
5	0	0	0	0	517	624	
6	0	0	0	0	518	620	
7	0	0	0	0	519	624	
8	0	0	0	0	520	624	
9	0	0	0	0	521	625	
10	0	0	0	0	521	627	
11	0	0	0	0	522	624	
12	0	0	0	0	523	623	
13	0	0	0	0	524	623	
14	0	0	0	0	524	619	
15	0	0	0	0	524	623	
0	0	0	0	0	523	623	
1	0	0	0	0	524	622	
2	0	0	0	0	524	626	
3	0	0	0	0	524	622	
4	0	0	0	0	523	622	
5	0	0	0	0	523	622	
6	0	0	0	0	524	618	
7	0	0	0	0	524	621	
8	0	0	0	0	524	621	
9	0	0	0	0	525	621	
10	0	0	0	0	524	624	
11	0	0	0	0	524	621	
12	0	0	0	0	524	620	
13	0	0	0	0	524	620	
14	0	0	0	0	524	615	
15	0	0	0	0	524	620	
0	0	0	0	0	524	620	
1	0	0	0	0	523	620	
2	0	0	0	0	523	623	
3	0	0	0	0	522	619	
4	0	0	0	0	522	619	
5	0	0	0	0	523	619	
6	0	0	0	0	521	615	
7	0	0	0	0	520	618	
8	0	0	0	0	518	619	
9	0	0	0	0	516	620	
10	0	0	0	0	515	622	
11	0	0	0	0	514	618	
12	0	0	0	0	513	618	
13	0	0	0	0	512	619	
14	0	0	0	0	511	615	
15	0	0	0	0	511	619	
0	0	0	0	0	509	618	
1	0	0	0	0	508	619	
2	0	0	0	0	507	622	
3	0	0	0	0	505	619	
4	0	0	0	0	504	619	
5	0	0	0	0	503	619	
6	0	0	0	0	502	616	
7	0	0	0	0	501	620	
8	0	0	0	0	500	620	
9	0	0	0	0	500	620	
10	0	0	0	0	499	624	
11	0	0	0	0	498	620	
12	0	0	0	0	497	621	
13	0	0	0	0	497	621	
14	0	0	0	0	497	617	
15	0	0	0	0	497	621	
0	0	0	0	0	497	622	
1	0	0	0	0	497	622	
2	0	0	0	0	498	627	
3	0	0	0	0	498	623	
4	0	0	0	0	498	623	
5	0	0	0	0	498	623	
6	0	0	0	0	497	619	
7	0	0	0	0	496	623	
8	0	0	0	0	495	623	
9	0	0	0	0	494	623	
10	0	0	0	0	494	626	
11	0	0	0	0	494	623	
12	0	0	0	0	494	622	
13	0	0	0	0	494	623	
14	0	0	0	0	494	618	
15	0	0	0	0	494	623	
0	0	0	0	0	495	623	
1	0	0	0	0	496	623	
2	0	0	0	0	495	626	
3	0	0	0	0	494	623	
4	0	0	0	0	493	623	
5	0	0	0	0	493	622	
6	0	0	0	0	493	618	
7	0	0	0	0	494	622	
8	0	0	0	0	494	623	
9	0	0	0	0	495	622	
10	0	0	0	0	495	625	
11	0	0	0	0	496	621	
12	0	0	0	0	498	622	
13	0	0	0	0	498	622	
14	0	0	0	0	497	617	
15	0	0	0	0	496	621	
0	0	0	0	0	496	621	
1	0	0	0	0	495	620	
2	0	0	0	0	496	623	
3	0	0	0	0	496	620	
4	0	0	0	0	496	620	
5	0	0	0	0	496	619	
6	0	0	0	0	496	615	
7	0	0	0	0	496	619	
8	0	0	0	0	496	619	
9	0	0	0	0	496	619	
10	0	0	0	0	495	622	
11	0	0	0	0	496	618	
12	0	0	0	0	495	617	
13	0	0	0	0	495	617	
14	0	0	0	0	494	614	
15	0	0	0	0	495	617	
0	0	0	0	0	496	617	
1	0	0	0	0	496	617	
2	0	0	0	0	497	622	
3	0	0	0	0	497	618	
4	0	0	0	0	497	617	
5	0	0	0	0	498	617	
6	0	0	0	0	497	614	
7	0	0	0	0	497	617	
8	0	0	0	0	497	618	
9	0	0	0	0	498	618	
10	0	0	0	0	499	621	
11	0	0	0	0	500	617	
12	0	0	0	0	502	617	
13	0	0	0	0	502	616	
14	0	0	0	0	502	612	
15	0	0	0	0	502	616	
0	0	0	0	0	501	616	
1	0	0	0	0	500	616	
2	0	0	0	0	500	619	
3	0	0	0	0	501	615	
4	0	0	0	0	502	615	
5	0	0	0	0	502	615	
6	0	0	0	0	503	611	
7	0	0	0	0	503	615	
8	0	0	0	0	502	615	
9	0	0	0	0	503	615	
10	0	0	0	0	504	620	
11	0	0	0	0	504	616	
12	0	0	0	0	504	615	
13	0	0	0	0	504	615	
14	0	0	0	0	504	612	
15	0	0	0	0	505	616	
0	0	0	0	0	505	616	
1	0	0	0	0	505	616	
2	0	0	0	0	505	620	
3	0	0	0	0	505	616	
4	0	0	0	0	505	617	
5	0	0	0	0	504	617	
6	0	0	0	0	504	613	
7	0	0	0	0	505	617	
8	0	0	0	0	505	617	
9	0	0	0	0	505	618	
10	0	0	0	0	505	621	
11	0	0	0	0	505	618	
12	0	0	0	0	504	617	
13	0	0	0	0	504	618	
14	0	0	0	0	504	614	
15	0	0	0	0	503	618	
0	0	0	0	0	503	618	
1	0	0	0	0	502	618	
2	0	0	0	0	503	622	
3	0	0	0	0	503	618	
4	0	0	0	0	504	618	
5	0	0	0	0	504	618	
6	0	0	0	0	504	615	
7	0	0	0	0	504	619	
8	0	0	0	0	505	618	
9	0	0	0	0	505	619	
10	0	0	0	0	507	622	
11	0	0	0	0	506	618	
12	0	0	0	0	505	619	
13	0	0	0	0	505	618	
14	0	0	0	0	505	615	
15	0	0	0	0	505	619	
0	0	0	0	0	505	619	
1	0	0	0	0	504	619	
2	0	0	0	0	504	623	
3	0	0	0	0	504	619	
4	0	0	0	0	504	619	
5	0	0	0	0	505	619	
6	0	0	0	0	506	615	
7	0	0	0	0	505	619	
8	0	0	0	0	506	619	
9	0	0	0	0	507	619	
10	0	0	0	0	507	623	
11	0	0	0	0	508	620	
12	0	0	0	0	507	620	
13	0	0	0	0	507	620	
14	0	0	0	0	508	615	
15	0	0	0	0	508	619	
0	0	0	0	0	509	619	
1	0	0	0	0	509	620	
2	0	0	0	0	509	623	
3	0	0	0	0	509	619	
4	0	0	0	0	508	619	
5	0	0	0	0	507	620	
6	0	0	0	0	506	616	
7	0	0	0	0	507	621	
8	0	0	0	0	507	620	
9	0	0	0	0	507	620	
10	0	0	0	0	508	624	
11	0	0	0	0	508	620	
12	0	0	0	0	508	621	
13	0	0	0	0	508	620	
14	0	0	0	0	509	616	
15	0	0	0	0	510	620	
0	0	0	0	0	508	620	
1	0	0	0	0	508	620	
2	0	0	0	0	509	623	
3	0	0	0	0	509	620	
4	0	0	0	0	508	620	
5	0	0	0	0	509	620	
6	0	0	0	0	508	616	
7	0	0	0	0	508	620	
8	0	0	0	0	508	620	
9	0	0	0	0	509	621	
10	0	0	0	0	509	623	
11	0	0	0	0	509	620	
12	0	0	0	0	508	619	
13	0	0	0	0	506	619	
14	0	0	0	0	507	616	
15	0	0	0	0	508	620	
0	0	0	0	0	510	620	
1	0	0	0	0	510	620	
2	0	0	0	0	510	624	
3	0	0	0	0	511	620	
4	0	0	0	0	511	619	
5	0	0	0	0	511	620	
6	0	0	0	0	512	616	
7	0	0	0	0	512	620	
8	0	0	0	0	512	620	
9	0	0	0	0	512	620	
10	0	0	0	0	513	623	
11	0	0	0	0	512	620	
12	0	0	0	0	512	620	
13	0	0	0	0	511	620	
14	0	0	0	0	511	616	
15	0	0	0	0	511	620	
0	0	0	0	0	512	620	
1	0	0	0	0	512	620	
2	0	0	0	0	513	624	
3	0	0	0	0	512	620	
4	0	0	0	0	511	621	
5	0	0	0	0	512	621	
6	0	0	0	0	512	617	
7	0	0	0	0	512	621	
8	0	0	0	0	512	621	
9	0	0	0	0	513	621	
10	0	0	0	0	512	624	
11	0	0	0	0	512	620	
12	0	0	0	0	512	621	
13	0	0	0	0	512	621	
14	0	0	0	0	512	617	
15	0	0	0	0	513	622	
0	0	0	0	0	513	622	
1	0	0	0	0	513	622	
2	0	0	0	0	514	626	
3	0	0	0	0	514	623	
4	0	0	0	0	514	623	
5	0	0	0	0	513	623	
6	0	0	0	0	514	619	
7	0	0	0	0	512	622	
8	0	0	0	0	512	623	
9	0	0	0	0	510	623	
10	0	0	0	0	510	627	
11	0	0	0	0	511	623	
12	0	0	0	0	511	623	
13	0	0	0	0	512	623	
14	0	0	0	0	512	619	
15	0	0	0	0	511	623	
0	0	0	0	0	512	622	
1	0	0	0	0	512	623	
2	0	0	0	0	513	627	
3	0	0	0	0	513	623	
4	0	0	0	0	514	623	
5	0	0	0	0	514	623	
6	0	0	0	0	514	620	
7	0	0	0	0	514	623	
8	0	0	0	0	514	623	
9	0	0	0	0	512	623	
10	0	0	0	0	512	627	
11	0	0	0	0	511	623	
12	0	0	0	0	511	623	
13	0	0	0	0	511	623	
14	0	0	0	0	512	619	
15	0	0	0	0	513	623	
0	0	0	0	0	513	623	
1	0	0	0	0	513	624	
2	0	0	0	0	513	627	
3	0	0	0	0	513	623	
4	0	0	0	0	513	623	
5	0	0	0	0	513	623	
6	0	0	0	0	513	619	
7	0	0	0	0	513	624	
8	0	0	0	0	513	623	
9	0	0	0	0	513	623	
10	0	0	0	0	514	627	
11	0	0	0	0	514	623	
12	0	0	0	0	513	623	
13	0	0	0	0	512	623	
14	0	0	0	0	512	619	
15	0	0	0	0	512	624	
0	0	0	0	0	513	623	
1	0	0	0	0	513	623	
2	0	0	0	0	515	626	
3	0	0	0	0	515	622	
4	0	0	0	0	515	622	
5	0	0	0	0	514	622	
6	0	0	0	0	513	617	
7	0	0	0	0	512	622	
8	0	0	0	0	512	622	
9	0	0	0	0	512	622	
10	0	0	0	0	512	626	
11	0	0	0	0	512	623	
12	0	0	0	0	512	623	
13	0	0	0	0	512	622	
14	0	0	0	0	510	619	
15	0	0	0	0	510	623	
0	0	0	0	0	511	622	
1	0	0	0	0	512	622	
2	0	0	0	0	513	625	
3	0	0	0	0	513	622	
4	0	0	0	0	513	623	
5	0	0	0	0	513	622	
6	0	0	0	0	515	619	
7	0	0	0	0	515	622	
8	0	0	0	0	515	622	
9	0	0	0	0	514	622	
10	0	0	0	0	513	625	
11	0	0	0	0	513	622	
12	0	0	0	0	514	622	
13	0	0	0	0	513	621	
14	0	0	0	0	513	618	
15	0	0	0	0	513	621	
0	0	0	0	0	513	622	
1	0	0	0	0	512	622	
2	0	0	0	0	511	625	
3	0	0	0	0	511	622	
4	0	0	0	0	511	621	
5	0	0	0	0	510	621	
6	0	0	0	0	510	617	
7	0	0	0	0	509	621	
8	0	0	0	0	508	622	
9	0	0	0	0	509	622	
10	0	0	0	0	508	625	
11	0	0	0	0	508	621	
12	0	0	0	0	508	622	
13	0	0	0	0	508	622	
14	0	0	0	0	507	619	
15	0	0	0	0	508	623	
0	0	0	0	0	508	623	
1	0	0	0	0	508	623	
2	0	0	0	0	508	627	
3	0	0	0	0	508	624	
4	0	0	0	0	509	623	
5	0	0	0	0	510	624	
6	0	0	0	0	510	620	
7	0	0	0	0	510	624	
8	0	0	0	0	510	624	
9	0	0	0	0	510	624	
10	0	0	0	0	510	627	
11	0	0	0	0	511	624	
12	0	0	0	0	511	624	
13	0	0	0	0	511	623	
14	0	0	0	0	511	619	
15	0	0	0	0	513	624	
0	0	0	0	0	513	623	
1	0	0	0	0	514	624	
2	0	0	0	0	514	627	
3	0	0	0	0	515	624	
4	0	0	0	0	515	623	
5	0	0	0	0	514	624	
6	0	0	0	0	514	620	
7	0	0	0	0	513	624	
8	0	0	0	0	512	623	
9	0	0	0	0	512	624	
10	0	0	0	0	512	627	
11	0	0	0	0	513	623	
12	0	0	0	0	513	623	
13	0	0	0	0	514	623	
14	0	0	0	0	515	620	
15	0	0	0	0	514	623	
0	0	0	0	0	513	623	
1	0	0	0	0	512	623	
2	0	0	0	0	513	626	
3	0	0	0	0	513	622	
4	0	0	0	0	513	623	
5	0	0	0	0	513	622	
6	0	0	0	0	513	619	
7	0	0	0	0	512	623	
8	0	0	0	0	512	623	
9	0	0	0	0	511	622	
10	0	0	0	0	510	625	
11	0	0	0	0	511	622	
12	0	0	0	0	511	622	
13	0	0	0	0	511	621	
14	0	0	0	0	510	618	
15	0	0	0	0	509	621	
0	0	0	0	0	510	621	
1	0	0	0	0	510	621	
2	0	0	0	0	510	624	
3	0	0	0	0	509	621	
4	0	0	0	0	509	621	
5	0	0	0	0	509	620	
6	0	0	0	0	509	616	
7	0	0	0	0	509	620	
8	0	0	0	0	509	620	
9	0	0	0	0	510	621	
10	0	0	0	0	511	625	
11	0	0	0	0	512	620	
12	0	0	0	0	511	621	
13	0	0	0	0	511	620	
14	0	0	0	0	511	616	
15	0	0	0	0	511	621	
0	0	0	0	0	510	621	
1	0	0	0	0	509	621	
2	0	0	0	0	508	624	
3	0	0	0	0	508	621	
4	0	0	0	0	507	620	
5	0	0	0	0	507	620	
6	0	0	0	0	507	616	
7	0	0	0	0	508	621	
8	0	0	0	0	508	621	
9	0	0	0	0	508	621	
10	0	0	0	0	508	624	
11	0	0	0	0	508	621	
12	0	0	0	0	507	621	
13	0	0	0	0	507	620	
14	0	0	0	0	507	617	
15	0	0	0	0	507	620	
0	0	0	0	0	508	621	
1	0	0	0	0	508	621	
2	0	0	0	0	508	625	
3	0	0	0	0	508	621	
4	0	0	0	0	508	622	
5	0	0	0	0	508	621	
6	0	0	0	0	508	617	
7	0	0	0	0	508	622	
8	0	0	0	0	508	622	
9	0	0	0	0	508	622	
10	0	0	0	0	509	625	
11	0	0	0	0	508	621	
12	0	0	0	0	508	622	
13	0	0	0	0	508	621	
14	0	0	0	0	507	617	
15	0	0	0	0	507	620	
0	0	0	0	0	507	620	
1	0	0	0	0	506	621	
2	0	0	0	0	505	624	
3	0	0	0	0	505	620	
4	0	0	0	0	504	621	
5	0	0	0	0	502	620	
6	0	0	0	0	500	617	
7	0	0	0	0	498	620	
8	0	0	0	0	496	620	
9	0	0	0	0	494	621	
10	0	0	0	0	491	624	
11	0	0	0	0	488	621	
12	0	0	0	0	485	620	
13	0	0	0	0	481	620	
14	0	0	0	0	476	617	
15	0	0	0	0	470	620	
0	0	0	0	0	465	620	
1	0	0	0	0	460	621	
2	0	0	0	0	455	624	
3	0	0	0	0	451	621	
4	0	0	0	0	449	620	
5	0	0	0	0	448	620	
6	0	0	0	0	449	616	
7	0	0	0	0	452	620	
8	0	0	0	0	456	620	
9	0	0	0	0	463	620	
10	0	0	0	0	473	623	
11	0	0	0	0	485	620	
12	0	0	0	0	498	620	
13	0	0	0	0	515	620	
14	0	0	0	0	533	615	
15	0	0	0	0	554	620	
0	0	0	0	0	575	620	
1	0	0	0	0	598	619	
2	0	0	0	0	624	623	
3	0	0	0	0	649	620	
4	0	0	0	0	675	620	
5	0	0	0	0	699	620	
6	0	0	0	0	721	615	
7	0	0	0	0	740	620	
8	0	0	0	0	756	620	
9	0	0	0	0	769	620	
10	0	0	0	0	777	623	
11	0	0	0	0	779	620	
12	0	0	0	0	776	620	
13	0	0	0	0	769	620	
14	0	0	0	0	760	615	
15	0	0	0	0	749	620	
0	0	0	0	0	736	620	
1	0	0	0	0	723	620	
2	0	0	0	0	708	623	
3	0	0	0	0	691	620	
4	0	0	0	0	674	619	
5	0	0	0	0	658	618	
6	0	0	0	0	643	614	
7	0	0	0	0	627	618	
8	0	0	0	0	612	619	
9	0	0	0	0	597	618	
10	0	0	0	0	584	621	
11	0	0	0	0	573	618	
12	0	0	0	0	561	617	
13	0	0	0	0	552	616	
14	0	0	0	0	544	613	
15	0	0	0	0	536	617	
0	0	0	0	0	530	617	
1	0	0	0	0	523	617	
2	0	0	0	0	517	620	
3	0	0	0	0	512	617	
4	0	0	0	0	506	617	
5	0	0	0	0	500	617	
6	0	0	0	0	495	614	
7	0	0	0	0	489	617	
8	0	0	0	0	484	618	
9	0	0	0	0	480	618	
10	0	0	0	0	475	622	
11	0	0	0	0	471	617	
12	0	0	0	0	467	619	
13	0	0	0	0	463	619	
14	0	0	0	0	461	615	
15	0	0	0	0	459	618	
0	0	0	0	0	456	618	
1	0	0	0	0	454	618	
2	0	0	0	0	454	621	
3	0	0	0	0	452	618	
4	0	0	0	0	452	618	
5	0	0	0	0	452	617	
6	0	0	0	0	451	614	
7	0	0	0	0	451	617	
8	0	0	0	0	451	617	
9	0	0	0	0	451	617	
10	0	0	0	0	451	621	
11	0	0	0	0	451	617	
12	0	0	0	0	452	617	
13	0	0	0	0	451	617	
14	0	0	0	0	451	614	
15	0	0	0	0	451	618	
0	0	0	0	0	451	617	
1	0	0	0	0	452	617	
2	0	0	0	0	452	622	
3	0	0	0	0	452	618	
4	0	0	0	0	452	618	
5	0	0	0	0	453	618	
6	0	0	0	0	453	614	
7	0	0	0	0	453	619	
8	0	0	0	0	453	619	
9	0	0	0	0	454	618	
10	0	0	0	0	455	622	
11	0	0	0	0	455	618	
12	0	0	0	0	455	619	
13	0	0	0	0	456	619	
14	0	0	0	0	456	615	
15	0	0	0	0	457	619	
0	0	0	0	0	458	619	
1	0	0	0	0	457	619	
2	0	0	0	0	458	623	
3	0	0	0	0	458	620	
4	0	0	0	0	458	619	
5	0	0	0	0	458	619	
6	0	0	0	0	457	615	
7	0	0	0	0	458	618	
8	0	0	0	0	459	619	
9	0	0	0	0	459	619	
10	0	0	0	0	460	622	
11	0	0	0	0	461	619	
12	0	0	0	0	462	619	
13	0	0	0	0	463	619	
14	0	0	0	0	463	615	
15	0	0	0	0	463	618	
0	0	0	0	0	463	618	
1	0	0	0	0	463	619	
2	0	0	0	0	463	622	
3	0	0	0	0	464	619	
4	0	0	0	0	464	619	
5	0	0	0	0	464	619	
6	0	0	0	0	464	615	
7	0	0	0	0	464	618	
8	0	0	0	0	465	619	
9	0	0	0	0	467	620	
10	0	0	0	0	467	622	
11	0	0	0	0	467	620	
12	0	0	0	0	467	620	
13	0	0	0	0	469	619	
14	0	0	0	0	469	615	
15	0	0	0	0	469	619	
0	0	0	0	0	470	620	
1	0	0	0	0	470	620	
2	0	0	0	0	471	623	
3	0	0	0	0	471	620	
4	0	0	0	0	472	620	
5	0	0	0	0	472	620	
6	0	0	0	0	472	617	
7	0	0	0	0	472	621	
8	0	0	0	0	473	621	
9	0	0	0	0	473	622	
10	0	0	0	0	473	625	
11	0	0	0	0	473	622	
12	0	0	0	0	473	622	
13	0	0	0	0	473	622	
14	0	0	0	0	474	618	
15	0	0	0	0	475	623	
0	0	0	0	0	475	623	
1	0	0	0	0	475	623	
2	0	0	0	0	475	626	
3	0	0	0	0	476	623	
4	0	0	0	0	476	623	
5	0	0	0	0	476	623	
6	0	0	0	0	476	620	
7	0	0	0	0	476	623	
8	0	0	0	0	476	623	
9	0	0	0	0	477	624	
10	0	0	0	0	478	627	
11	0	0	0	0	479	623	
12	0	0	0	0	479	623	
13	0	0	0	0	478	623	
14	0	0	0	0	478	619	
15	0	0	0	0	478	623	
0	0	0	0	0	478	623	
1	0	0	0	0	478	623	
2	0	0	0	0	478	626	
3	0	0	0	0	479	623	
4	0	0	0	0	480	622	
5	0	0	0	0	479	622	
6	0	0	0	0	479	618	
7	0	0	0	0	479	622	
8	0	0	0	0	480	623	
9	0	0	0	0	480	622	
10	0	0	0	0	480	626	
11	0	0	0	0	480	622	
12	0	0	0	0	481	622	
13	0	0	0	0	482	622	
14	0	0	0	0	482	618	
15	0	0	0	0	482	621	
0	0	0	0	0	483	622	
1	0	0	0	0	484	622	
2	0	0	0	0	484	624	
3	0	0	0	0	484	620	
4	0	0	0	0	484	620	
5	0	0	0	0	483	620	
6	0	0	0	0	483	616	
7	0	0	0	0	484	619	
8	0	0	0	0	486	620	
9	0	0	0	0	486	620	
10	0	0	0	0	487	623	
11	0	0	0	0	487	620	
12	0	0	0	0	487	620	
13	0	0	0	0	487	620	
14	0	0	0	0	487	615	
15	0	0	0	0	488	620	
0	0	0	0	0	488	619	
1	0	0	0	0	488	620	
2	0	0	0	0	487	623	
3	0	0	0	0	487	620	
4	0	0	0	0	488	620	
5	0	0	0	0	487	620	
6	0	0	0	0	489	616	
7	0	0	0	0	490	620	
8	0	0	0	0	491	620	
9	0	0	0	0	491	620	
10	0	0	0	0	492	624	
11	0	0	0	0	492	621	
12	0	0	0	0	491	621	
13	0	0	0	0	491	621	
14	0	0	0	0	492	617	
15	0	0	0	0	492	621	
0	0	0	0	0	493	622	
1	0	0	0	0	493	621	
2	0	0	0	0	494	624	
3	0	0	0	0	495	621	
4	0	0	0	0	495	621	
5	0	0	0	0	495	621	
6	0	0	0	0	496	617	
7	0	0	0	0	497	621	
8	0	0	0	0	498	621	
9	0	0	0	0	499	622	
10	0	0	0	0	499	624	
11	0	0	0	0	500	621	
12	0	0	0	0	500	621	
13	0	0	0	0	500	620	
14	0	0	0	0	501	616	
15	0	0	0	0	502	620	
0	0	0	0	0	503	620	
1	0	0	0	0	505	620	
2	0	0	0	0	505	624	
3	0	0	0	0	505	621	
4	0	0	0	0	506	621	
5	0	0	0	0	506	622	
6	0	0	0	0	508	618	
7	0	0	0	0	509	622	
8	0	0	0	0	510	622	
9	0	0	0	0	511	622	
10	0	0	0	0	511	626	
11	0	0	0	0	512	622	
12	0	0	0	0	512	622	
13	0	0	0	0	513	622	
14	0	0	0	0	513	618	
15	0	0	0	0	514	623	
0	0	0	0	0	515	622	
1	0	0	0	0	516	623	
2	0	0	0	0	515	626	
3	0	0	0	0	516	624	
4	0	0	0	0	517	623	
5	0	0	0	0	517	623	
6	0	0	0	0	518	619	
7	0	0	0	0	519	624	
8	0	0	0	0	519	623	
9	0	0	0	0	519	623	
10	0	0	0	0	520	627	
11	0	0	0	0	521	624	
12	0	0	0	0	521	623	
13	0	0	0	0	521	624	
14	0	0	0	0	520	620	
15	0	0	0	0	521	624	
0	0	0	0	0	521	624	
1	0	0	0	0	520	624	
2	0	0	0	0	520	627	
3	0	0	0	0	520	624	
4	0	0	0	0	520	624	
5	0	0	0	0	522	624	
6	0	0	0	0	521	620	
7	0	0	0	0	521	624	
8	0	0	0	0	521	623	
9	0	0	0	0	521	624	
10	0	0	0	0	521	626	
11	0	0	0	0	520	622	
12	0	0	0	0	519	623	
13	0	0	0	0	517	623	
14	0	0	0	0	516	619	
15	0	0	0	0	515	622	
0	0	0	0	0	515	622	
1	0	0	0	0	515	622	
2	0	0	0	0	513	624	
3	0	0	0	0	511	621	
4	0	0	0	0	510	621	
5	0	0	0	0	508	621	
6	0	0	0	0	507	616	
7	0	0	0	0	506	619	
8	0	0	0	0	505	619	
9	0	0	0	0	504	620	
10	0	0	0	0	502	623	
11	0	0	0	0	502	619	
12	0	0	0	0	502	619	
13	0	0	0	0	499	619	
14	0	0	0	0	497	615	
15	0	0	0	0	496	619	
0	0	0	0	0	494	619	
1	0	0	0	0	493	620	
2	0	0	0	0	492	623	
3	0	0	0	0	491	619	
4	0	0	0	0	489	619	
5	0	0	0	0	489	619	
6	0	0	0	0	488	615	
7	0	0	0	0	488	619	
8	0	0	0	0	487	620	
9	0	0	0	0	487	620	
10	0	0	0	0	487	622	
11	0	0	0	0	487	619	
12	0	0	0	0	486	620	
13	0	0	0	0	485	620	
14	0	0	0	0	485	615	
15	0	0	0	0	486	620	
0	0	0	0	0	487	620	
1	0	0	0	0	485	620	
2	0	0	0	0	484	624	
3	0	0	0	0	483	620	
4	0	0	0	0	484	621	
5	0	0	0	0	484	620	
6	0	0	0	0	484	616	
7	0	0	0	0	483	621	
8	0	0	0	0	483	620	
9	0	0	0	0	483	621	
10	0	0	0	0	482	624	
11	0	0	0	0	482	620	
12	0	0	0	0	482	620	
13	0	0	0	0	482	620	
14	0	0	0	0	482	616	
15	0	0	0	0	481	620	
0	0	0	0	0	482	620	
1	0	0	0	0	483	621	
2	0	0	0	0	483	624	
3	0	0	0	0	483	620	
4	0	0	0	0	483	621	
5	0	0	0	0	483	620	
6	0	0	0	0	483	617	
7	0	0	0	0	483	621	
8	0	0	0	0	483	621	
9	0	0	0	0	483	621	
10	0	0	0	0	484	625	
11	0	0	0	0	484	621	
12	0	0	0	0	484	621	
13	0	0	0	0	484	620	
14	0	0	0	0	484	617	
15	0	0	0	0	484	622	
0	0	0	0	0	484	622	
1	0	0	0	0	484	622	
2	0	0	0	0	484	625	
3	0	0	0	0	484	622	
4	0	0	0	0	484	622	
5	0	0	0	0	485	622	
6	0	0	0	0	485	617	
7	0	0	0	0	485	622	
8	0	0	0	0	486	623	
9	0	0	0	0	486	623	
10	0	0	0	0	487	626	
11	0	0	0	0	487	622	
12	0	0	0	0	487	623	
13	0	0	0	0	488	622	
14	0	0	0	0	488	619	
15	0	0	0	0	489	623	
0	0	0	0	0	489	623	
1	0	0	0	0	489	623	
2	0	0	0	0	489	626	
3	0	0	0	0	489	623	
4	0	0	0	0	489	622	
5	0	0	0	0	488	622	
6	0	0	0	0	489	619	
7	0	0	0	0	489	622	
8	0	0	0	0	489	622	
9	0	0	0	0	489	622	
10	0	0	0	0	489	625	
11	0	0	0	0	489	622	
12	0	0	0	0	490	622	
13	0	0	0	0	490	622	
14	0	0	0	0	490	618	
15	0	0	0	0	491	622	
0	0	0	0	0	491	622	
1	0	0	0	0	491	621	
2	0	0	0	0	490	624	
3	0	0	0	0	490	622	
4	0	0	0	0	491	622	
5	0	0	0	0	492	621	
6	0	0	0	0	491	617	
7	0	0	0	0	491	621	
8	0	0	0	0	490	621	
9	0	0	0	0	491	621	
10	0	0	0	0	491	625	
11	0	0	0	0	491	621	
12	0	0	0	0	491	621	
13	0	0	0	0	490	621	
14	0	0	0	0	491	617	
15	0	0	0	0	492	621	
0	0	0	0	0	492	621	
1	0	0	0	0	492	622	
2	0	0	0	0	492	625	
3	0	0	0	0	493	621	
4	0	0	0	0	493	621	
5	0	0	0	0	493	621	
6	0	0	0	0	494	617	
7	0	0	0	0	494	620	
8	0	0	0	0	494	620	
9	0	0	0	0	495	621	
10	0	0	0	0	494	624	
11	0	0	0	0	494	620	
12	0	0	0	0	494	620	
13	0	0	0	0	494	620	
14	0	0	0	0	495	616	
15	0	0	0	0	494	620	
0	0	0	0	0	494	620	
1	0	0	0	0	494	620	
2	0	0	0	0	494	624	
3	0	0	0	0	495	620	
4	0	0	0	0	495	621	
5	0	0	0	0	495	621	
6	0	0	0	0	495	616	
7	0	0	0	0	495	621	
8	0	0	0	0	495	621	
9	0	0	0	0	495	621	
10	0	0	0	0	495	624	
11	0	0	0	0	495	620	
12	0	0	0	0	495	620	
13	0	0	0	0	495	620	
14	0	0	0	0	495	616	
15	0	0	0	0	496	621	
0	0	0	0	0	496	621	
1	0	0	0	0	496	620	
2	0	0	0	0	496	624	
3	0	0	0	0	497	620	
4	0	0	0	0	497	620	
5	0	0	0	0	497	621	
6	0	0	0	0	497	617	
7	0	0	0	0	497	621	
8	0	0	0	0	496	620	
9	0	0	0	0	497	621	
10	0	0	0	0	498	624	
11	0	0	0	0	499	622	
12	0	0	0	0	499	622	
13	0	0	0	0	499	621	
14	0	0	0	0	499	618	
15	0	0	0	0	499	622	
0	0	0	0	0	499	622	
1	0	0	0	0	498	622	
2	0	0	0	0	498	626	
3	0	0	0	0	499	623	
4	0	0	0	0	499	623	
5	0	0	0	0	500	622	
6	0	0	0	0	500	619	
7	0	0	0	0	500	623	
8	0	0	0	0	500	622	
9	0	0	0	0	501	622	
10	0	0	0	0	501	626	
11	0	0	0	0	502	622	
12	0	0	0	0	501	622	
13	0	0	0	0	501	622	
14	0	0	0	0	502	617	
15	0	0	0	0	502	621	
0	0	0	0	0	502	621	
1	0	0	0	0	503	622	
2	0	0	0	0	503	624	
3	0	0	0	0	503	621	
4	0	0	0	0	502	621	
5	0	0	0	0	502	621	
6	0	0	0	0	501	617	
7	0	0	0	0	500	621	
8	0	0	0	0	500	620	
9	0	0	0	0	500	620	
10	0	0	0	0	502	624	
11	0	0	0	0	503	620	
12	0	0	0	0	503	620	
13	0	0	0	0	504	620	
14	0	0	0	0	504	616	
15	0	0	0	0	504	621	
0	0	0	0	0	504	621	
1	0	0	0	0	504	621	
2	0	0	0	0	503	624	
3	0	0	0	0	502	620	
4	0	0	0	0	503	620	
5	0	0	0	0	504	620	
6	0	0	0	0	504	617	
7	0	0	0	0	504	621	
8	0	0	0	0	504	621	
9	0	0	0	0	504	621	
10	0	0	0	0	504	624	
11	0	0	0	0	504	621	
12	0	0	0	0	504	621	
13	0	0	0	0	504	621	
14	0	0	0	0	504	617	
15	0	0	0	0	502	620	
0	0	0	0	0	503	621	
1	0	0	0	0	503	621	
2	0	0	0	0	504	624	
3	0	0	0	0	505	621	
4	0	0	0	0	505	621	
5	0	0	0	0	504	620	
6	0	0	0	0	505	617	
7	0	0	0	0	505	622	
8	0	0	0	0	505	621	
9	0	0	0	0	506	621	
10	0	0	0	0	506	624	
11	0	0	0	0	506	621	
12	0	0	0	0	506	621	
13	0	0	0	0	506	621	
14	0	0	0	0	506	617	
15	0	0	0	0	506	621	
0	0	0	0	0	505	621	
1	0	0	0	0	505	620	
2	0	0	0	0	505	624	
3	0	0	0	0	505	620	
4	0	0	0	0	506	620	
5	0	0	0	0	505	620	
6	0	0	0	0	505	616	
7	0	0	0	0	506	620	
8	0	0	0	0	506	620	
9	0	0	0	0	507	620	
10	0	0	0	0	507	623	
11	0	0	0	0	506	620	
12	0	0	0	0	506	620	
13	0	0	0	0	506	620	
14	0	0	0	0	506	615	
15	0	0	0	0	505	620	
0	0	0	0	0	505	620	
1	0	0	0	0	505	620	
2	0	0	0	0	505	623	
3	0	0	0	0	505	621	
4	0	0	0	0	506	620	
5	0	0	0	0	505	620	
6	0	0	0	0	505	616	
7	0	0	0	0	505	620	
8	0	0	0	0	504	621	
9	0	0	0	0	505	620	
10	0	0	0	0	505	624	
11	0	0	0	0	506	621	
12	0	0	0	0	505	620	
13	0	0	0	0	506	620	
14	0	0	0	0	506	616	
15	0	0	0	0	506	620	
0	0	0	0	0	506	620	
1	0	0	0	0	506	621	
2	0	0	0	0	506	624	
3	0	0	0	0	505	620	
4	0	0	0	0	505	620	
5	0	0	0	0	506	621	
6	0	0	0	0	505	617	
7	0	0	0	0	506	620	
8	0	0	0	0	506	620	
9	0	0	0	0	505	620	
10	0	0	0	0	505	623	
11	0	0	0	0	505	620	
12	0	0	0	0	507	621	
13	0	0	0	0	506	620	
14	0	0	0	0	506	617	
15	0	0	0	0	506	621	
0	0	0	0	0	505	621	
1	0	0	0	0	505	621	
2	0	0	0	0	504	624	
3	0	0	0	0	504	621	
4	0	0	0	0	505	621	
5	0	0	0	0	505	621	
6	0	0	0	0	505	618	
7	0	0	0	0	504	622	
8	0	0	0	0	505	622	
9	0	0	0	0	505	622	
10	0	0	0	0	505	625	
11	0	0	0	0	506	622	
12	0	0	0	0	505	622	
13	0	0	0	0	505	621	
14	0	0	0	0	504	617	
15	0	0	0	0	504	622	
0	0	0	0	0	504	621	
1	0	0	0	0	504	622	
2	0	0	0	0	505	625	
3	0	0	0	0	505	622	
4	0	0	0	0	505	621	
5	0	0	0	0	506	621	
6	0	0	0	0	506	616	
7	0	0	0	0	506	620	
8	0	0	0	0	506	620	
9	0	0	0	0	506	620	
10	0	0	0	0	506	624	
11	0	0	0	0	506	620	
12	0	0	0	0	506	620	
13	0	0	0	0	506	620	
14	0	0	0	0	505	616	
15	0	0	0	0	506	620	
0	0	0	0	0	505	620	
1	0	0	0	0	504	620	
2	0	0	0	0	505	624	
3	0	0	0	0	505	621	
4	0	0	0	0	505	621	
5	0	0	0	0	504	621	
6	0	0	0	0	504	617	
7	0	0	0	0	503	620	
8	0	0	0	0	503	621	
9	0	0	0	0	503	621	
10	0	0	0	0	503	625	
11	0	0	0	0	502	622	
12	0	0	0	0	501	622	
13	0	0	0	0	500	621	
14	0	0	0	0	501	617	
15	0	0	0	0	502	622	
0	0	0	0	0	502	622	
1	0	0	0	0	502	622	
2	0	0	0	0	503	625	
3	0	0	0	0	503	622	
4	0	0	0	0	502	621	
5	0	0	0	0	501	620	
6	0	0	0	0	501	618	
7	0	0	0	0	502	621	
8	0	0	0	0	503	622	
9	0	0	0	0	503	622	
10	0	0	0	0	503	624	
11	0	0	0	0	505	622	
12	0	0	0	0	505	620	
13	0	0	0	0	506	621	
14	0	0	0	0	506	617	
15	0	0	0	0	506	621	
0	0	0	0	0	507	621	
1	0	0	0	0	507	621	
2	0	0	0	0	507	624	
3	0	0	0	0	508	621	
4	0	0	0	0	508	621	
5	0	0	0	0	508	621	
6	0	0	0	0	508	617	
7	0	0	0	0	508	621	
8	0	0	0	0	509	621	
9	0	0	0	0	510	621	
10	0	0	0	0	510	624	
11	0	0	0	0	509	620	
12	0	0	0	0	509	620	
13	0	0	0	0	509	621	
14	0	0	0	0	510	616	
15	0	0	0	0	510	620	
0	0	0	0	0	510	620	
1	0	0	0	0	510	620	
2	0	0	0	0	510	623	
3	0	0	0	0	510	620	
4	0	0	0	0	511	620	
5	0	0	0	0	510	620	
6	0	0	0	0	510	616	
7	0	0	0	0	510	620	
8	0	0	0	0	510	620	
9	0	0	0	0	510	620	
10	0	0	0	0	509	624	
11	0	0	0	0	509	620	
12	0	0	0	0	509	620	
13	0	0	0	0	508	619	
14	0	0	0	0	508	616	
15	0	0	0	0	508	620	
0	0	0	0	0	509	620	
1	0	0	0	0	508	619	
2	0	0	0	0	508	622	
3	0	0	0	0	509	619	
4	0	0	0	0	509	619	
5	0	0	0	0	510	618	
6	0	0	0	0	509	615	
7	0	0	0	0	509	619	
8	0	0	0	0	510	619	
9	0	0	0	0	509	619	
10	0	0	0	0	509	623	
11	0	0	0	0	510	619	
12	0	0	0	0	509	619	
13	0	0	0	0	509	619	
14	0	0	0	0	509	615	
15	0	0	0	0	509	619	
0	0	0	0	0	508	619	
1	0	0	0	0	509	619	
2	0	0	0	0	509	623	
3	0	0	0	0	509	620	
4	0	0	0	0	508	619	
5	0	0	0	0	508	620	
6	0	0	0	0	508	615	
7	0	0	0	0	508	619	
8	0	0	0	0	508	619	
9	0	0	0	0	509	620	
10	0	0	0	0	509	622	
11	0	0	0	0	509	620	
12	0	0	0	0	508	619	
13	0	0	0	0	508	620	
14	0	0	0	0	508	616	
15	0	0	0	0	507	620	
0	0	0	0	0	507	619	
1	0	0	0	0	507	620	
2	0	0	0	0	508	623	
3	0	0	0	0	508	619	
4	0	0	0	0	508	620	
5	0	0	0	0	509	620	
6	0	0	0	0	510	616	
7	0	0	0	0	510	620	
8	0	0	0	0	510	620	
9	0	0	0	0	509	620	
10	0	0	0	0	509	624	
11	0	0	0	0	510	620	
12	0	0	0	0	509	620	
13	0	0	0	0	509	621	
14	0	0	0	0	510	616	
15	0	0	0	0	510	620	
0	0	0	0	0	511	620	
1	0	0	0	0	510	621	
2	0	0	0	0	509	624	
3	0	0	0	0	508	621	
4	0	0	0	0	508	621	
5	0	0	0	0	508	622	
6	0	0	0	0	508	618	
7	0	0	0	0	508	622	
8	0	0	0	0	507	622	
9	0	0	0	0	506	623	
10	0	0	0	0	504	626	
11	0	0	0	0	502	623	
12	0	0	0	0	500	623	
13	0	0	0	0	497	623	
14	0	0	0	0	495	619	
15	0	0	0	0	492	624	
0	0	0	0	0	489	624	
1	0	0	0	0	485	624	
2	0	0	0	0	480	627	
3	0	0	0	0	475	624	
4	0	0	0	0	470	624	
5	0	0	0	0	464	623	
6	0	0	0	0	459	620	
7	0	0	0	0	453	623	
8	0	0	0	0	450	623	
9	0	0	0	0	450	624	
10	0	0	0	0	451	627	
11	0	0	0	0	454	624	
12	0	0	0	0	458	624	
13	0	0	0	0	465	623	
14	0	0	0	0	475	619	
15	0	0	0	0	486	622	
0	0	0	0	0	500	622	
1	0	0	0	0	516	622	
2	0	0	0	0	534	626	
3	0	0	0	0	553	622	
4	0	0	0	0	574	621	
5	0	0	0	0	596	621	
6	0	0	0	0	620	617	
7	0	0	0	0	643	621	
8	0	0	0	0	666	621	
9	0	0	0	0	689	620	
10	0	0	0	0	711	624	
11	0	0	0	0	731	621	
12	0	0	0	0	747	620	
13	0	0	0	0	760	620	
14	0	0	0	0	772	617	
15	0	0	0	0	780	621	
0	0	0	0	0	783	620	
1	0	0	0	0	784	620	
2	0	0	0	0	782	624	
3	0	0	0	0	776	620	
4	0	0	0	0	769	620	
5	0	0	0	0	757	621	
6	0	0	0	0	745	616	
7	0	0	0	0	731	620	
8	0	0	0	0	715	621	
9	0	0	0	0	697	621	
10	0	0	0	0	680	624	
11	0	0	0	0	662	620	
12	0	0	0	0	644	621	
13	0	0	0	0	628	620	
14	0	0	0	0	611	616	
15	0	0	0	0	597	620	
0	0	0	0	0	583	620	
1	0	0	0	0	571	620	
2	0	0	0	0	560	624	
3	0	0	0	0	550	620	
4	0	0	0	0	541	620	
5	0	0	0	0	532	620	
6	0	0	0	0	524	616	
7	0	0	0	0	518	621	
8	0	0	0	0	511	621	
9	0	0	0	0	504	621	
10	0	0	0	0	498	624	
11	0	0	0	0	492	621	
12	0	0	0	0	485	621	
13	0	0	0	0	481	621	
14	0	0	0	0	477	617	
15	0	0	0	0	473	621	
0	0	0	0	0	471	621	
1	0	0	0	0	468	621	
2	0	0	0	0	465	625	
3	0	0	0	0	463	620	
4	0	0	0	0	460	621	
5	0	0	0	0	459	621	
6	0	0	0	0	457	618	
7	0	0	0	0	457	622	
8	0	0	0	0	456	621	
9	0	0	0	0	455	621	
10	0	0	0	0	455	624	
11	0	0	0	0	454	621	
12	0	0	0	0	453	621	
13	0	0	0	0	453	621	
14	0	0	0	0	452	617	
15	0	0	0	0	451	620	
0	0	0	0	0	451	621	
1	0	0	0	0	451	621	
2	0	0	0	0	451	624	
3	0	0	0	0	451	620	
4	0	0	0	0	451	620	
5	0	0	0	0	451	621	
6	0	0	0	0	451	617	
7	0	0	0	0	452	620	
8	0	0	0	0	452	620	
9	0	0	0	0	452	621	
10	0	0	0	0	452	624	
11	0	0	0	0	454	620	
12	0	0	0	0	454	620	
13	0	0	0	0	454	620	
14	0	0	0	0	455	616	
15	0	0	0	0	454	620	
0	0	0	0	0	455	620	
1	0	0	0	0	456	619	
2	0	0	0	0	455	623	
3	0	0	0	0	455	619	
4	0	0	0	0	456	619	
5	0	0	0	0	457	619	
6	0	0	0	0	457	615	
7	0	0	0	0	456	619	
8	0	0	0	0	456	618	
9	0	0	0	0	457	619	
10	0	0	0	0	457	622	
11	0	0	0	0	457	618	
12	0	0	0	0	458	619	
13	0	0	0	0	459	620	
14	0	0	0	0	459	615	
15	0	0	0	0	460	619	
0	0	0	0	0	460	619	
1	0	0	0	0	460	620	
2	0	0	0	0	460	623	
3	0	0	0	0	462	620	
4	0	0	0	0	463	620	
5	0	0	0	0	463	620	
6	0	0	0	0	463	617	
7	0	0	0	0	464	622	
8	0	0	0	0	464	622	
9	0	0	0	0	465	622	
10	0	0	0	0	465	626	
11	0	0	0	0	465	622	
12	0	0	0	0	466	623	
13	0	0	0	0	467	623	
14	0	0	0	0	467	619	
15	0	0	0	0	467	623	
0	0	0	0	0	465	622	
1	0	0	0	0	467	623	
2	0	0	0	0	467	626	
3	0	0	0	0	468	623	
4	0	0	0	0	469	623	
5	0	0	0	0	470	622	
6	0	0	0	0	471	619	
7	0	0	0	0	471	622	
8	0	0	0	0	472	623	
9	0	0	0	0	472	623	
10	0	0	0	0	473	626	
11	0	0	0	0	474	623	
12	0	0	0	0	473	623	
13	0	0	0	0	473	622	
14	0	0	0	0	473	619	
15	0	0	0	0	473	622	
0	0	0	0	0	474	622	
1	0	0	0	0	474	622	
2	0	0	0	0	474	626	
3	0	0	0	0	475	622	
4	0	0	0	0	475	623	
5	0	0	0	0	476	623	
6	0	0	0	0	476	618	
7	0	0	0	0	477	622	
8	0	0	0	0	478	622	
9	0	0	0	0	478	622	
10	0	0	0	0	478	626	
11	0	0	0	0	478	622	
12	0	0	0	0	478	622	
13	0	0	0	0	478	621	
14	0	0	0	0	478	618	
15	0	0	0	0	479	622	
0	0	0	0	0	478	622	
1	0	0	0	0	479	621	
2	0	0	0	0	480	625	
3	0	0	0	0	479	621	
4	0	0	0	0	480	621	
5	0	0	0	0	480	621	
6	0	0	0	0	480	617	
7	0	0	0	0	481	621	
8	0	0	0	0	481	621	
9	0	0	0	0	481	621	
10	0	0	0	0	481	624	
11	0	0	0	0	481	621	
12	0	0	0	0	481	621	
13	0	0	0	0	481	621	
14	0	0	0	0	481	617	
15	0	0	0	0	482	620	
0	0	0	0	0	483	620	
1	0	0	0	0	483	620	
2	0	0	0	0	483	623	
3	0	0	0	0	483	620	
4	0	0	0	0	483	619	
5	0	0	0	0	484	619	
6	0	0	0	0	484	615	
7	0	0	0	0	485	619	
8	0	0	0	0	485	619	
9	0	0	0	0	486	619	
10	0	0	0	0	485	623	
11	0	0	0	0	485	619	
12	0	0	0	0	485	618	
13	0	0	0	0	486	619	
14	0	0	0	0	486	615	
15	0	0	0	0	486	620	
0	0	0	0	0	486	619	
1	0	0	0	0	485	619	
2	0	0	0	0	486	623	
3	0	0	0	0	487	620	
4	0	0	0	0	487	620	
5	0	0	0	0	486	620	
6	0	0	0	0	486	616	
7	0	0	0	0	487	620	
8	0	0	0	0	487	620	
9	0	0	0	0	487	621	
10	0	0	0	0	488	623	
11	0	0	0	0	488	620	
12	0	0	0	0	488	621	
13	0	0	0	0	487	620	
14	0	0	0	0	488	617	
15	0	0	0	0	489	621	
0	0	0	0	0	489	621	
1	0	0	0	0	490	622	
2	0	0	0	0	490	624	
3	0	0	0	0	490	621	
4	0	0	0	0	490	621	
5	0	0	0	0	491	621	
6	0	0	0	0	491	617	
7	0	0	0	0	491	621	
8	0	0	0	0	492	621	
9	0	0	0	0	492	622	
10	0	0	0	0	492	624	
11	0	0	0	0	493	621	
12	0	0	0	0	494	622	
13	0	0	0	0	494	622	
14	0	0	0	0	495	617	
15	0	0	0	0	496	621	
0	0	0	0	0	497	622	
1	0	0	0	0	497	622	
2	0	0	0	0	498	626	
3	0	0	0	0	499	622	
4	0	0	0	0	499	622	
5	0	0	0	0	500	623	
6	0	0	0	0	501	619	
7	0	0	0	0	502	622	
8	0	0	0	0	502	622	
9	0	0	0	0	503	622	
10	0	0	0	0	504	626	
11	0	0	0	0	505	623	
12	0	0	0	0	505	623	
13	0	0	0	0	505	624	
14	0	0	0	0	506	619	
15	0	0	0	0	507	623	
0	0	0	0	0	507	623	
1	0	0	0	0	509	623	
2	0	0	0	0	509	626	
3	0	0	0	0	510	623	
4	0	0	0	0	510	623	
5	0	0	0	0	511	623	
6	0	0	0	0	511	619	
7	0	0	0	0	512	623	
8	0	0	0	0	512	623	
9	0	0	0	0	513	622	
10	0	0	0	0	513	626	
11	0	0	0	0	515	623	
12	0	0	0	0	515	622	
13	0	0	0	0	516	621	
14	0	0	0	0	517	618	
15	0	0	0	0	517	621	
0	0	0	0	0	518	622	
1	0	0	0	0	518	622	
2	0	0	0	0	518	625	
3	0	0	0	0	518	622	
4	0	0	0	0	518	622	
5	0	0	0	0	518	622	
6	0	0	0	0	517	617	
7	0	0	0	0	517	621	
8	0	0	0	0	518	621	
9	0	0	0	0	518	621	
10	0	0	0	0	518	624	
11	0	0	0	0	519	620	
12	0	0	0	0	518	620	
13	0	0	0	0	517	621	
14	0	0	0	0	516	616	
15	0	0	0	0	518	620	
0	0	0	0	0	520	620	
1	0	0	0	0	520	620	
2	0	0	0	0	519	623	
3	0	0	0	0	519	619	
4	0	0	0	0	519	620	
5	0	0	0	0	517	619	
6	0	0	0	0	516	615	
7	0	0	0	0	517	619	
8	0	0	0	0	516	619	
9	0	0	0	0	515	618	
10	0	0	0	0	513	622	
11	0	0	0	0	512	618	
12	0	0	0	0	511	617	
13	0	0	0	0	511	617	
14	0	0	0	0	510	614	
15	0	0	0	0	509	618	
0	0	0	0	0	508	617	
1	0	0	0	0	507	618	
2	0	0	0	0	508	621	
3	0	0	0	0	508	617	
4	0	0	0	0	507	617	
5	0	0	0	0	507	616	
6	0	0	0	0	505	613	
7	0	0	0	0	504	618	
8	0	0	0	0	504	618	
9	0	0	0	0	503	618	
10	0	0	0	0	502	621	
11	0	0	0	0	502	618	
12	0	0	0	0	500	618	
13	0	0	0	0	500	619	
14	0	0	0	0	499	614	
15	0	0	0	0	497	619	
0	0	0	0	0	497	618	
1	0	0	0	0	496	619	
2	0	0	0	0	496	622	
3	0	0	0	0	495	618	
4	0	0	0	0	495	620	
5	0	0	0	0	495	619	
6	0	0	0	0	495	616	
7	0	0	0	0	495	620	
8	0	0	0	0	495	620	
9	0	0	0	0	496	620	
10	0	0	0	0	496	624	
11	0	0	0	0	496	620	
12	0	0	0	0	496	620	
13	0	0	0	0	496	620	
14	0	0	0	0	496	616	
15	0	0	0	0	497	621	
0	0	0	0	0	497	621	
1	0	0	0	0	497	621	
2	0	0	0	0	497	625	
3	0	0	0	0	497	622	
4	0	0	0	0	498	622	
5	0	0	0	0	499	622	
6	0	0	0	0	500	619	
7	0	0	0	0	500	622	
8	0	0	0	0	500	622	
9	0	0	0	0	500	622	
10	0	0	0	0	500	626	
11	0	0	0	0	499	623	
12	0	0	0	0	500	622	
13	0	0	0	0	500	622	
14	0	0	0	0	500	618	
15	0	0	0	0	500	623	
0	0	0	0	0	500	623	
1	0	0	0	0	500	623	
2	0	0	0	0	500	626	
3	0	0	0	0	501	623	
4	0	0	0	0	501	623	
5	0	0	0	0	501	623	
6	0	0	0	0	501	619	
7	0	0	0	0	501	622	
8	0	0	0	0	500	622	
9	0	0	0	0	501	623	
10	0	0	0	0	501	626	
11	0	0	0	0	502	622	
12	0	0	0	0	501	622	
13	0	0	0	0	502	622	
14	0	0	0	0	502	619	
15	0	0	0	0	503	623	
0	0	0	0	0	502	622	
1	0	0	0	0	502	622	
2	0	0	0	0	502	625	
3	0	0	0	0	502	622	
4	0	0	0	0	502	622	
5	0	0	0	0	502	621	
6	0	0	0	0	502	617	
7	0	0	0	0	502	621	
8	0	0	0	0	502	621	
9	0	0	0	0	502	622	
10	0	0	0	0	502	624	
11	0	0	0	0	502	620	
12	0	0	0	0	503	621	
13	0	0	0	0	503	620	
14	0	0	0	0	503	616	
15	0	0	0	0	503	621	
0	0	0	0	0	502	621	
1	0	0	0	0	502	620	
2	0	0	0	0	502	624	
3	0	0	0	0	502	620	
4	0	0	0	0	502	620	
5	0	0	0	0	501	620	
6	0	0	0	0	501	616	
7	0	0	0	0	502	620	
8	0	0	0	0	502	620	
9	0	0	0	0	503	620	
10	0	0	0	0	504	623	
11	0	0	0	0	503	620	
12	0	0	0	0	503	620	
13	0	0	0	0	503	619	
14	0	0	0	0	503	615	
15	0	0	0	0	503	619	
0	0	0	0	0	503	619	
1	0	0	0	0	502	619	
2	0	0	0	0	501	622	
3	0	0	0	0	501	619	
4	0	0	0	0	500	619	
5	0	0	0	0	501	619	
6	0	0	0	0	502	615	
7	0	0	0	0	502	619	
8	0	0	0	0	503	619	
9	0	0	0	0	502	618	
10	0	0	0	0	503	622	
11	0	0	0	0	503	619	
12	0	0	0	0	503	618	
13	0	0	0	0	503	619	
14	0	0	0	0	502	615	
15	0	0	0	0	503	619	
0	0	0	0	0	503	618	
1	0	0	0	0	503	619	
2	0	0	0	0	504	623	
3	0	0	0	0	504	619	
4	0	0	0	0	504	619	
5	0	0	0	0	504	619	
6	0	0	0	0	504	615	
7	0	0	0	0	504	619	
8	0	0	0	0	504	619	
9	0	0	0	0	504	619	
10	0	0	0	0	504	623	
11	0	0	0	0	504	620	
12	0	0	0	0	505	620	
13	0	0	0	0	505	619	
14	0	0	0	0	506	616	
15	0	0	0	0	505	620	
0	0	0	0	0	505	620	
1	0	0	0	0	505	620	
2	0	0	0	0	505	623	
3	0	0	0	0	505	620	
4	0	0	0	0	505	619	
5	0	0	0	0	504	619	
6	0	0	0	0	504	615	
7	0	0	0	0	504	620	
8	0	0	0	0	505	619	
9	0	0	0	0	506	619	
10	0	0	0	0	507	622	
11	0	0	0	0	507	619	
12	0	0	0	0	506	619	
13	0	0	0	0	507	619	
14	0	0	0	0	507	615	
15	0	0	0	0	507	620	
0	0	0	0	0	508	620	
1	0	0	0	0	507	620	
2	0	0	0	0	507	624	
3	0	0	0	0	508	620	
4	0	0	0	0	508	620	
5	0	0	0	0	508	620	
6	0	0	0	0	508	616	
7	0	0	0	0	508	620	
8	0	0	0	0	507	621	
9	0	0	0	0	507	620	
10	0	0	0	0	508	624	
11	0	0	0	0	507	620	
12	0	0	0	0	508	621	
13	0	0	0	0	508	621	
14	0	0	0	0	508	617	
15	0	0	0	0	508	621	
0	0	0	0	0	508	622	
1	0	0	0	0	508	623	
2	0	0	0	0	508	626	
3	0	0	0	0	508	622	
4	0	0	0	0	508	622	
5	0	0	0	0	508	622	
6	0	0	0	0	507	618	
7	0	0	0	0	507	622	
8	0	0	0	0	508	621	
9	0	0	0	0	508	622	
10	0	0	0	0	508	626	
11	0	0	0	0	509	623	
12	0	0	0	0	508	622	
13	0	0	0	0	508	623	
14	0	0	0	0	508	619	
15	0	0	0	0	508	623	
0	0	0	0	0	509	623	
1	0	0	0	0	509	623	
2	0	0	0	0	508	626	
3	0	0	0	0	508	623	
4	0	0	0	0	508	623	
5	0	0	0	0	508	623	
6	0	0	0	0	508	619	
7	0	0	0	0	509	623	
8	0	0	0	0	509	622	
9	0	0	0	0	509	622	
10	0	0	0	0	510	626	
11	0	0	0	0	510	623	
12	0	0	0	0	510	622	
13	0	0	0	0	510	623	
14	0	0	0	0	510	619	
15	0	0	0	0	510	623	
0	0	0	0	0	510	623	
1	0	0	0	0	510	622	
2	0	0	0	0	511	626	
3	0	0	0	0	510	622	
4	0	0	0	0	510	622	
5	0	0	0	0	510	622	
6	0	0	0	0	510	618	
7	0	0	0	0	511	622	
8	0	0	0	0	511	622	
9	0	0	0	0	510	623	
10	0	0	0	0	510	625	
11	0	0	0	0	510	622	
12	0	0	0	0	511	622	
13	0	0	0	0	511	621	
14	0	0	0	0	511	617	
15	0	0	0	0	511	621	
0	0	0	0	0	511	621	
1	0	0	0	0	511	621	
2	0	0	0	0	511	624	
3	0	0	0	0	511	621	
4	0	0	0	0	511	620	
5	0	0	0	0	511	620	
6	0	0	0	0	511	616	
7	0	0	0	0	512	620	
8	0	0	0	0	512	620	
9	0	0	0	0	512	621	
10	0	0	0	0	510	624	
11	0	0	0	0	511	620	
12	0	0	0	0	511	620	
13	0	0	0	0	512	620	
14	0	0	0	0	512	616	
15	0	0	0	0	512	620	
0	0	0	0	0	512	619	
1	0	0	0	0	512	620	
2	0	0	0	0	512	624	
3	0	0	0	0	513	620	
4	0	0	0	0	513	620	
5	0	0	0	0	512	619	
6	0	0	0	0	512	616	
7	0	0	0	0	512	621	
8	0	0	0	0	512	621	
9	0	0	0	0	513	620	
10	0	0	0	0	513	623	
11	0	0	0	0	513	620	
12	0	0	0	0	514	620	
13	0	0	0	0	513	620	
14	0	0	0	0	513	616	
15	0	0	0	0	512	620	
0	0	0	0	0	512	620	
1	0	0	0	0	511	621	
2	0	0	0	0	511	624	
3	0	0	0	0	511	621	
4	0	0	0	0	512	620	
5	0	0	0	0	512	621	
6	0	0	0	0	512	617	
7	0	0	0	0	512	621	
8	0	0	0	0	512	620	
9	0	0	0	0	512	621	
10	0	0	0	0	513	625	
11	0	0	0	0	514	622	
12	0	0	0	0	514	621	
13	0	0	0	0	514	621	
14	0	0	0	0	515	618	
15	0	0	0	0	515	621	
0	0	0	0	0	515	621	
1	0	0	0	0	514	621	
2	0	0	0	0	512	624	
3	0	0	0	0	512	621	
4	0	0	0	0	511	621	
5	0	0	0	0	512	621	
6	0	0	0	0	512	618	
7	0	0	0	0	511	622	
8	0	0	0	0	512	622	
9	0	0	0	0	512	622	
10	0	0	0	0	512	625	
11	0	0	0	0	512	622	
12	0	0	0	0	512	622	
13	0	0	0	0	512	621	
14	0	0	0	0	512	617	
15	0	0	0	0	512	622	
0	0	0	0	0	512	621	
1	0	0	0	0	512	621	
2	0	0	0	0	513	624	
3	0	0	0	0	513	620	
4	0	0	0	0	513	620	
5	0	0	0	0	513	620	
6	0	0	0	0	513	616	
7	0	0	0	0	513	620	
8	0	0	0	0	513	620	
9	0	0	0	0	513	620	
10	0	0	0	0	512	623	
11	0	0	0	0	513	620	
12	0	0	0	0	512	620	
13	0	0	0	0	512	620	
14	0	0	0	0	512	616	
15	0	0	0	0	512	620	
0	0	0	0	0	512	620	
1	0	0	0	0	512	620	
2	0	0	0	0	512	624	
3	0	0	0	0	512	620	
4	0	0	0	0	512	620	
5	0	0	0	0	511	620	
6	0	0	0	0	512	616	
7	0	0	0	0	511	620	
8	0	0	0	0	513	620	
9	0	0	0	0	512	620	
10	0	0	0	0	512	623	
11	0	0	0	0	512	620	
12	0	0	0	0	513	620	
13	0	0	0	0	513	620	
14	0	0	0	0	514	616	
15	0	0	0	0	514	620	
0	0	0	0	0	514	620	
1	0	0	0	0	514	620	
2	0	0	0	0	515	623	
3	0	0	0	0	515	620	
4	0	0	0	0	515	620	
5	0	0	0	0	514	619	
6	0	0	0	0	515	615	
7	0	0	0	0	514	620	
8	0	0	0	0	514	620	
9	0	0	0	0	514	620	
10	0	0	0	0	513	624	
11	0	0	0	0	514	620	
12	0	0	0	0	514	621	
13	0	0	0	0	514	620	
14	0	0	0	0	514	616	
15	0	0	0	0	513	621	
0	0	0	0	0	514	622	
1	0	0	0	0	514	621	
2	0	0	0	0	513	625	
3	0	0	0	0	514	621	
4	0	0	0	0	513	621	
5	0	0	0	0	512	621	
6	0	0	0	0	512	617	
7	0	0	0	0	512	621	
8	0	0	0	0	512	621	
9	0	0	0	0	512	621	
10	0	0	0	0	512	625	
11	0	0	0	0	512	622	
12	0	0	0	0	512	622	
13	0	0	0	0	512	621	
14	0	0	0	0	512	617	
15	0	0	0	0	511	620	
0	0	0	0	0	511	621	
1	0	0	0	0	511	620	
2	0	0	0	0	511	624	
3	0	0	0	0	511	620	
4	0	0	0	0	510	620	
5	0	0	0	0	510	620	
6	0	0	0	0	511	617	
7	0	0	0	0	511	621	
8	0	0	0	0	511	621	
9	0	0	0	0	511	621	
10	0	0	0	0	511	625	
11	0	0	0	0	512	621	
12	0	0	0	0	512	621	
13	0	0	0	0	511	621	
14	0	0	0	0	512	617	
15	0	0	0	0	511	622	
0	0	0	0	0	512	622	
1	0	0	0	0	512	621	
2	0	0	0	0	512	625	
3	0	0	0	0	513	621	
4	0	0	0	0	514	622	
5	0	0	0	0	515	622	
6	0	0	0	0	515	617	
7	0	0	0	0	514	622	
8	0	0	0	0	515	622	
9	0	0	0	0	516	622	
10	0	0	0	0	516	625	
11	0	0	0	0	516	622	
12	0	0	0	0	516	621	
13	0	0	0	0	516	621	
14	0	0	0	0	517	617	
15	0	0	0	0	518	621	
0	0	0	0	0	518	621	
1	0	0	0	0	517	621	
2	0	0	0	0	517	624	
3	0	0	0	0	517	621	
4	0	0	0	0	517	621	
5	0	0	0	0	517	620	
6	0	0	0	0	517	616	
7	0	0	0	0	516	620	
8	0	0	0	0	516	620	
9	0	0	0	0	516	620	
10	0	0	0	0	516	623	
11	0	0	0	0	516	620	
12	0	0	0	0	515	620	
13	0	0	0	0	515	621	
14	0	0	0	0	514	616	
15	0	0	0	0	514	621	
0	0	0	0	0	513	620	
1	0	0	0	0	512	620	
2	0	0	0	0	513	624	
3	0	0	0	0	513	620	
4	0	0	0	0	513	620	
5	0	0	0	0	513	620	
6	0	0	0	0	514	616	
7	0	0	0	0	515	620	
8	0	0	0	0	514	620	
9	0	0	0	0	513	620	
10	0	0	0	0	513	623	
11	0	0	0	0	512	620	
12	0	0	0	0	512	620	
13	0	0	0	0	513	620	
14	0	0	0	0	515	616	
15	0	0	0	0	514	620	
0	0	0	0	0	512	620	
1	0	0	0	0	512	620	
2	0	0	0	0	511	624	
3	0	0	0	0	511	620	
4	0	0	0	0	512	619	
5	0	0	0	0	512	619	
6	0	0	0	0	511	616	
7	0	0	0	0	512	620	
8	0	0	0	0	512	620	
9	0	0	0	0	512	620	
10	0	0	0	0	511	623	
11	0	0	0	0	511	620	
12	0	0	0	0	510	619	
13	0	0	0	0	511	620	
14	0	0	0	0	511	615	
15	0	0	0	0	511	619	
0	0	0	0	0	510	619	
1	0	0	0	0	511	619	
2	0	0	0	0	511	623	
3	0	0	0	0	511	619	
4	0	0	0	0	512	619	
5	0	0	0	0	512	619	
6	0	0	0	0	512	615	
7	0	0	0	0	512	620	
8	0	0	0	0	512	620	
9	0	0	0	0	512	620	
10	0	0	0	0	511	624	
11	0	0	0	0	511	620	
12	0	0	0	0	511	620	
13	0	0	0	0	512	620	
14	0	0	0	0	512	615	
15	0	0	0	0	512	620	
0	0	0	0	0	511	620	
1	0	0	0	0	511	620	
2	0	0	0	0	511	623	
3	0	0	0	0	511	619	
4	0	0	0	0	512	619	
5	0	0	0	0	512	620	
6	0	0	0	0	512	615	
7	0	0	0	0	512	619	
8	0	0	0	0	512	619	
9	0	0	0	0	511	620	
10	0	0	0	0	510	623	
11	0	0	0	0	509	619	
12	0	0	0	0	508	620	
13	0	0	0	0	505	620	
14	0	0	0	0	504	615	
15	0	0	0	0	502	619	
0	0	0	0	0	500	620	
1	0	0	0	0	497	620	
2	0	0	0	0	493	623	
3	0	0	0	0	488	620	
4	0	0	0	0	483	620	
5	0	0	0	0	478	620	
6	0	0	0	0	472	616	
7	0	0	0	0	466	620	
8	0	0	0	0	462	621	
9	0	0	0	0	457	621	
10	0	0	0	0	456	624	
11	0	0	0	0	455	621	
12	0	0	0	0	455	621	
13	0	0	0	0	457	621	
14	0	0	0	0	461	617	
15	0	0	0	0	468	621	
0	0	0	0	0	478	622	
1	0	0	0	0	489	621	
2	0	0	0	0	503	624	
3	0	0	0	0	520	621	
4	0	0	0	0	538	621	
5	0	0	0	0	557	620	
6	0	0	0	0	577	616	
7	0	0	0	0	600	620	
8	0	0	0	0	622	620	
9	0	0	0	0	644	621	
10	0	0	0	0	667	624	
11	0	0	0	0	689	620	
12	0	0	0	0	709	620	
13	0	0	0	0	727	621	
14	0	0	0	0	743	616	
15	0	0	0	0	756	620	
0	0	0	0	0	765	620	
1	0	0	0	0	771	621	
2	0	0	0	0	774	624	
3	0	0	0	0	774	621	
4	0	0	0	0	771	621	
5	0	0	0	0	767	620	
6	0	0	0	0	759	616	
7	0	0	0	0	749	621	
8	0	0	0	0	737	620	
9	0	0	0	0	723	620	
10	0	0	0	0	708	624	
11	0	0	0	0	692	621	
12	0	0	0	0	674	620	
13	0	0	0	0	657	621	
14	0	0	0	0	640	617	
15	0	0	0	0	624	621	
0	0	0	0	0	608	621	
1	0	0	0	0	594	621	
2	0	0	0	0	580	624	
3	0	0	0	0	568	621	
4	0	0	0	0	557	621	
5	0	0	0	0	547	621	
6	0	0	0	0	539	617	
7	0	0	0	0	530	621	
8	0	0	0	0	522	621	
9	0	0	0	0	515	621	
10	0	0	0	0	509	625	
11	0	0	0	0	502	621	
12	0	0	0	0	497	622	
13	0	0	0	0	492	621	
14	0	0	0	0	486	617	
15	0	0	0	0	482	622	
0	0	0	0	0	477	621	
1	0	0	0	0	474	622	
2	0	0	0	0	470	624	
3	0	0	0	0	467	621	
4	0	0	0	0	464	621	
5	0	0	0	0	462	621	
6	0	0	0	0	460	617	
7	0	0	0	0	459	621	
8	0	0	0	0	457	621	
9	0	0	0	0	456	621	
10	0	0	0	0	455	625	
11	0	0	0	0	455	621	
12	0	0	0	0	455	621	
13	0	0	0	0	454	621	
14	0	0	0	0	454	617	
15	0	0	0	0	454	621	
0	0	0	0	0	453	621	
1	0	0	0	0	453	621	
2	0	0	0	0	452	624	
3	0	0	0	0	453	621	
4	0	0	0	0	453	621	
5	0	0	0	0	452	620	
6	0	0	0	0	452	617	
7	0	0	0	0	453	621	
8	0	0	0	0	453	620	
9	0	0	0	0	452	620	
10	0	0	0	0	452	624	
11	0	0	0	0	452	620	
12	0	0	0	0	452	620	
13	0	0	0	0	452	621	
14	0	0	0	0	452	617	
15	0	0	0	0	453	620	
0	0	0	0	0	454	620	
1	0	0	0	0	454	621	
2	0	0	0	0	455	624	
3	0	0	0	0	455	621	
4	0	0	0	0	455	620	
5	0	0	0	0	456	620	
6	0	0	0	0	457	616	
7	0	0	0	0	457	620	
8	0	0	0	0	457	621	
9	0	0	0	0	458	620	
10	0	0	0	0	459	624	
11	0	0	0	0	459	620	
12	0	0	0	0	460	620	
13	0	0	0	0	460	621	
14	0	0	0	0	460	617	
15	0	0	0	0	460	621	
0	0	0	0	0	460	621	
1	0	0	0	0	461	622	
2	0	0	0	0	462	625	
3	0	0	0	0	463	622	
4	0	0	0	0	464	622	
5	0	0	0	0	464	622	
6	0	0	0	0	465	618	
7	0	0	0	0	466	622	
8	0	0	0	0	466	622	
9	0	0	0	0	466	622	
10	0	0	0	0	467	625	
11	0	0	0	0	467	623	
12	0	0	0	0	467	623	
13	0	0	0	0	466	622	
14	0	0	0	0	466	618	
15	0	0	0	0	466	622	
0	0	0	0	0	467	622	
1	0	0	0	0	467	622	
2	0	0	0	0	467	626	
3	0	0	0	0	467	622	
4	0	0	0	0	467	622	
5	0	0	0	0	467	621	
6	0	0	0	0	467	618	
7	0	0	0	0	467	622	
8	0	0	0	0	468	621	
9	0	0	0	0	467	621	
10	0	0	0	0	467	624	
11	0	0	0	0	468	621	
12	0	0	0	0	467	621	
13	0	0	0	0	468	621	
14	0	0	0	0	470	617	
15	0	0	0	0	470	621	
0	0	0	0	0	469	621	
1	0	0	0	0	469	620	
2	0	0	0	0	470	624	
3	0	0	0	0	470	620	
4	0	0	0	0	471	621	
5	0	0	0	0	471	620	
6	0	0	0	0	472	617	
7	0	0	0	0	473	621	
8	0	0	0	0	473	620	
9	0	0	0	0	474	620	
10	0	0	0	0	474	624	
11	0	0	0	0	475	620	
12	0	0	0	0	475	620	
13	0	0	0	0	475	619	
14	0	0	0	0	475	615	
15	0	0	0	0	475	619	
0	0	0	0	0	475	620	
1	0	0	0	0	476	619	
2	0	0	0	0	477	622	
3	0	0	0	0	477	619	
4	0	0	0	0	477	619	
5	0	0	0	0	478	619	
6	0	0	0	0	478	614	
7	0	0	0	0	478	618	
8	0	0	0	0	478	618	
9	0	0	0	0	477	618	
10	0	0	0	0	477	622	
11	0	0	0	0	478	618	
12	0	0	0	0	478	618	
13	0	0	0	0	479	618	
14	0	0	0	0	480	614	
15	0	0	0	0	481	618	
0	0	0	0	0	481	619	
1	0	0	0	0	481	618	
2	0	0	0	0	481	622	
3	0	0	0	0	482	619	
4	0	0	0	0	482	618	
5	0	0	0	0	483	618	
6	0	0	0	0	482	615	
7	0	0	0	0	483	620	
8	0	0	0	0	483	619	
9	0	0	0	0	485	619	
10	0	0	0	0	486	623	
11	0	0	0	0	487	620	
12	0	0	0	0	487	620	
13	0	0	0	0	487	620	
14	0	0	0	0	487	617	
15	0	0	0	0	487	620	
0	0	0	0	0	487	621	
1	0	0	0	0	487	621	
2	0	0	0	0	487	625	
3	0	0	0	0	488	622	
4	0	0	0	0	488	622	
5	0	0	0	0	487	621	
6	0	0	0	0	488	618	
7	0	0	0	0	488	622	
8	0	0	0	0	488	622	
9	0	0	0	0	488	622	
10	0	0	0	0	488	625	
11	0	0	0	0	489	622	
12	0	0	0	0	489	622	
13	0	0	0	0	490	622	
14	0	0	0	0	492	618	
15	0	0	0	0	491	622	
0	0	0	0	0	491	623	
1	0	0	0	0	492	622	
2	0	0	0	0	492	626	
3	0	0	0	0	492	622	
4	0	0	0	0	492	622	
5	0	0	0	0	492	622	
6	0	0	0	0	492	617	
7	0	0	0	0	493	621	
8	0	0	0	0	493	621	
9	0	0	0	0	494	622	
10	0	0	0	0	495	625	
11	0	0	0	0	496	622	
12	0	0	0	0	496	622	
13	0	0	0	0	496	621	
14	0	0	0	0	497	617	
15	0	0	0	0	497	621	
0	0	0	0	0	499	622	
1	0	0	0	0	500	621	
2	0	0	0	0	500	624	
3	0	0	0	0	500	620	
4	0	0	0	0	500	620	
5	0	0	0	0	501	620	
6	0	0	0	0	502	616	
7	0	0	0	0	502	620	
8	0	0	0	0	503	620	
9	0	0	0	0	504	621	
10	0	0	0	0	504	623	
11	0	0	0	0	504	620	
12	0	0	0	0	505	620	
13	0	0	0	0	505	620	
14	0	0	0	0	506	617	
15	0	0	0	0	506	620	
0	0	0	0	0	507	620	
1	0	0	0	0	507	621	
2	0	0	0	0	508	624	
3	0	0	0	0	510	621	
4	0	0	0	0	510	620	
5	0	0	0	0	510	621	
6	0	0	0	0	510	617	
7	0	0	0	0	510	621	
8	0	0	0	0	511	621	
9	0	0	0	0	512	621	
10	0	0	0	0	512	624	
11	0	0	0	0	513	621	
12	0	0	0	0	514	620	
13	0	0	0	0	515	620	
14	0	0	0	0	516	617	
15	0	0	0	0	517	621	
0	0	0	0	0	518	621	
1	0	0	0	0	518	621	
2	0	0	0	0	518	624	
3	0	0	0	0	519	621	
4	0	0	0	0	519	621	
5	0	0	0	0	519	620	
6	0	0	0	0	521	617	
7	0	0	0	0	522	622	
8	0	0	0	0	522	620	
9	0	0	0	0	522	621	
10	0	0	0	0	522	625	
11	0	0	0	0	522	621	
12	0	0	0	0	522	621	
13	0	0	0	0	522	621	
14	0	0	0	0	523	618	
15	0	0	0	0	522	622	
0	0	0	0	0	522	621	
1	0	0	0	0	521	622	
2	0	0	0	0	520	624	
3	0	0	0	0	521	622	
4	0	0	0	0	521	622	
5	0	0	0	0	520	621	
6	0	0	0	0	520	619	
7	0	0	0	0	519	622	
8	0	0	0	0	519	622	
9	0	0	0	0	518	622	
10	0	0	0	0	516	625	
11	0	0	0	0	515	622	
12	0	0	0	0	514	622	
13	0	0	0	0	513	623	
14	0	0	0	0	513	618	
15	0	0	0	0	511	623	
0	0	0	0	0	511	623	
1	0	0	0	0	510	623	
2	0	0	0	0	509	626	
3	0	0	0	0	508	623	
4	0	0	0	0	506	623	
5	0	0	0	0	505	623	
6	0	0	0	0	504	619	
7	0	0	0	0	505	623	
8	0	0	0	0	504	624	
9	0	0	0	0	503	623	
10	0	0	0	0	503	626	
11	0	0	0	0	502	623	
12	0	0	0	0	501	623	
13	0	0	0	0	500	623	
14	0	0	0	0	499	619	
15	0	0	0	0	500	624	
0	0	0	0	0	499	624	
1	0	0	0	0	498	624	
2	0	0	0	0	497	627	
3	0	0	0	0	496	624	
4	0	0	0	0	496	624	
5	0	0	0	0	495	624	
6	0	0	0	0	495	620	
7	0	0	0	0	495	624	
8	0	0	0	0	495	623	
9	0	0	0	0	495	625	
10	0	0	0	0	495	628	
11	0	0	0	0	495	624	
12	0	0	0	0	495	624	
13	0	0	0	0	496	624	
14	0	0	0	0	495	620	
15	0	0	0	0	495	624	
0	0	0	0	0	495	624	
1	0	0	0	0	494	624	
2	0	0	0	0	494	627	
3	0	0	0	0	495	624	
4	0	0	0	0	496	624	
5	0	0	0	0	497	624	
6	0	0	0	0	496	620	
7	0	0	0	0	496	624	
8	0	0	0	0	497	624	
9	0	0	0	0	497	624	
10	0	0	0	0	498	627	
11	0	0	0	0	498	623	
12	0	0	0	0	497	623	
13	0	0	0	0	498	623	
14	0	0	0	0	497	619	
15	0	0	0	0	497	623	
0	0	0	0	0	496	623	
1	0	0	0	0	496	622	
2	0	0	0	0	497	626	
3	0	0	0	0	497	623	
4	0	0	0	0	497	622	
5	0	0	0	0	497	622	
6	0	0	0	0	498	618	
7	0	0	0	0	498	621	
8	0	0	0	0	499	622	
9	0	0	0	0	499	623	
10	0	0	0	0	499	626	
11	0	0	0	0	498	622	
12	0	0	0	0	498	622	
13	0	0	0	0	498	621	
14	0	0	0	0	498	617	
15	0	0	0	0	497	622	
0	0	0	0	0	497	621	
1	0	0	0	0	497	622	
2	0	0	0	0	497	626	
3	0	0	0	0	498	623	
4	0	0	0	0	497	622	
5	0	0	0	0	497	622	
6	0	0	0	0	497	619	
7	0	0	0	0	498	623	
8	0	0	0	0	499	623	
9	0	0	0	0	499	622	
10	0	0	0	0	498	626	
11	0	0	0	0	498	623	
12	0	0	0	0	498	622	
13	0	0	0	0	498	622	
14	0	0	0	0	499	618	
15	0	0	0	0	499	622	
0	0	0	0	0	499	622	
1	0	0	0	0	499	622	
2	0	0	0	0	499	625	
3	0	0	0	0	500	621	
4	0	0	0	0	499	621	
5	0	0	0	0	499	621	
6	0	0	0	0	499	617	
7	0	0	0	0	499	620	
8	0	0	0	0	500	620	
9	0	0	0	0	500	620	
10	0	0	0	0	500	623	
11	0	0	0	0	501	620	
12	0	0	0	0	501	620	
13	0	0	0	0	501	620	
14	0	0	0	0	501	616	
15	0	0	0	0	500	620	
0	0	0	0	0	501	620	
1	0	0	0	0	500	620	
2	0	0	0	0	501	623	
3	0	0	0	0	502	620	
4	0	0	0	0	502	620	
5	0	0	0	0	501	620	
6	0	0	0	0	501	616	
7	0	0	0	0	502	619	
8	0	0	0	0	502	619	
9	0	0	0	0	501	619	
10	0	0	0	0	501	623	
11	0	0	0	0	501	620	
12	0	0	0	0	502	619	
13	0	0	0	0	501	619	
14	0	0	0	0	501	615	
15	0	0	0	0	501	619	
0	0	0	0	0	500	618	
1	0	0	0	0	500	618	
2	0	0	0	0	500	621	
3	0	0	0	0	502	618	
4	0	0	0	0	502	617	
5	0	0	0	0	501	617	
6	0	0	0	0	501	614	
7	0	0	0	0	501	617	
8	0	0	0	0	503	618	
9	0	0	0	0	504	617	
10	0	0	0	0	504	621	
11	0	0	0	0	505	617	
12	0	0	0	0	505	617	
13	0	0	0	0	505	617	
14	0	0	0	0	505	614	
15	0	0	0	0	505	617	
0	0	0	0	0	505	617	
1	0	0	0	0	505	617	
2	0	0	0	0	505	620	
3	0	0	0	0	505	616	
4	0	0	0	0	505	617	
5	0	0	0	0	505	616	
6	0	0	0	0	505	613	
7	0	0	0	0	505	617	
8	0	0	0	0	506	616	
9	0	0	0	0	507	617	
10	0	0	0	0	507	619	
11	0	0	0	0	507	615	
12	0	0	0	0	507	616	
13	0	0	0	0	506	615	
14	0	0	0	0	506	612	
15	0	0	0	0	506	616	
0	0	0	0	0	505	615	
1	0	0	0	0	506	617	
2	0	0	0	0	505	619	
3	0	0	0	0	506	616	
4	0	0	0	0	507	616	
5	0	0	0	0	507	615	
6	0	0	0	0	507	613	
7	0	0	0	0	507	617	
8	0	0	0	0	506	617	
9	0	0	0	0	504	617	
10	0	0	0	0	504	620	
11	0	0	0	0	505	616	
12	0	0	0	0	505	617	
13	0	0	0	0	506	617	
14	0	0	0	0	507	613	
15	0	0	0	0	507	617	
0	0	0	0	0	507	618	
1	0	0	0	0	507	618	
2	0	0	0	0	506	621	
3	0	0	0	0	506	618	
4	0	0	0	0	505	618	
5	0	0	0	0	505	619	
6	0	0	0	0	505	615	
7	0	0	0	0	505	619	
8	0	0	0	0	505	619	
9	0	0	0	0	505	618	
10	0	0	0	0	505	622	
11	0	0	0	0	506	618	
12	0	0	0	0	506	618	
13	0	0	0	0	507	617	
14	0	0	0	0	507	614	
15	0	0	0	0	508	617	
0	0	0	0	0	508	617	
1	0	0	0	0	508	617	
2	0	0	0	0	508	621	
3	0	0	0	0	508	617	
4	0	0	0	0	509	617	
5	0	0	0	0	509	618	
6	0	0	0	0	509	614	
7	0	0	0	0	509	617	
8	0	0	0	0	509	618	
9	0	0	0	0	508	617	
10	0	0	0	0	508	620	
11	0	0	0	0	508	617	
12	0	0	0	0	507	618	
13	0	0	0	0	508	617	
14	0	0	0	0	508	614	
15	0	0	0	0	508	617	
0	0	0	0	0	507	617	
1	0	0	0	0	507	617	
2	0	0	0	0	506	620	
3	0	0	0	0	507	617	
4	0	0	0	0	507	618	
5	0	0	0	0	507	617	
6	0	0	0	0	508	614	
7	0	0	0	0	508	619	
8	0	0	0	0	508	618	
9	0	0	0	0	508	618	
10	0	0	0	0	508	622	
11	0	0	0	0	508	619	
12	0	0	0	0	508	619	
13	0	0	0	0	508	619	
14	0	0	0	0	509	615	
15	0	0	0	0	510	620	
0	0	0	0	0	510	620	
1	0	0	0	0	510	621	
2	0	0	0	0	510	625	
3	0	0	0	0	510	621	
4	0	0	0	0	510	622	
5	0	0	0	0	511	622	
6	0	0	0	0	511	618	
7	0	0	0	0	511	623	
8	0	0	0	0	512	623	
9	0	0	0	0	512	624	
10	0	0	0	0	512	627	
11	0	0	0	0	512	624	
12	0	0	0	0	513	624	
13	0	0	0	0	513	624	
14	0	0	0	0	513	621	
15	0	0	0	0	513	625	
0	0	0	0	0	513	625	
1	0	0	0	0	513	625	
2	0	0	0	0	513	629	
3	0	0	0	0	514	626	
4	0	0	0	0	514	626	
5	0	0	0	0	514	626	
6	0	0	0	0	514	622	
7	0	0	0	0	514	626	
8	0	0	0	0	514	626	
9	0	0	0	0	513	627	
10	0	0	0	0	514	630	
11	0	0	0	0	514	627	
12	0	0	0	0	513	627	
13	0	0	0	0	513	627	
14	0	0	0	0	513	624	
15	0	0	0	0	513	627	
0	0	0	0	0	513	628	
1	0	0	0	0	512	628	
2	0	0	0	0	512	632	
3	0	0	0	0	512	629	
4	0	0	0	0	512	628	
5	0	0	0	0	512	629	
6	0	0	0	0	512	625	
7	0	0	0	0	513	630	
8	0	0	0	0	513	630	
9	0	0	0	0	514	630	
10	0	0	0	0	514	633	
11	0	0	0	0	515	630	
12	0	0	0	0	515	630	
13	0	0	0	0	515	629	
14	0	0	0	0	515	625	
15	0	0	0	0	516	629	
0	0	0	0	0	515	629	
1	0	0	0	0	515	629	
2	0	0	0	0	515	632	
3	0	0	0	0	515	628	
4	0	0	0	0	515	628	
5	0	0	0	0	515	628	
6	0	0	0	0	515	624	
7	0	0	0	0	515	627	
8	0	0	0	0	514	627	
9	0	0	0	0	513	627	
10	0	0	0	0	513	630	
11	0	0	0	0	513	627	
12	0	0	0	0	513	626	
13	0	0	0	0	514	626	
14	0	0	0	0	515	621	
15	0	0	0	0	515	625	
0	0	0	0	0	515	625	
1	0	0	0	0	514	625	
2	0	0	0	0	514	628	
3	0	0	0	0	515	625	
4	0	0	0	0	515	624	
5	0	0	0	0	515	624	
6	0	0	0	0	515	620	
7	0	0	0	0	515	623	
8	0	0	0	0	515	624	
9	0	0	0	0	514	624	
10	0	0	0	0	514	627	
11	0	0	0	0	515	623	
12	0	0	0	0	515	623	
13	0	0	0	0	516	622	
14	0	0	0	0	516	619	
15	0	0	0	0	515	622	
0	0	0	0	0	515	622	
1	0	0	0	0	515	622	
2	0	0	0	0	515	626	
3	0	0	0	0	515	622	
4	0	0	0	0	515	622	
5	0	0	0	0	515	621	
6	0	0	0	0	515	617	
7	0	0	0	0	515	622	
8	0	0	0	0	515	621	
9	0	0	0	0	515	621	
10	0	0	0	0	514	624	
11	0	0	0	0	514	620	
12	0	0	0	0	514	621	
13	0	0	0	0	514	620	
14	0	0	0	0	514	616	
15	0	0	0	0	513	620	
0	0	0	0	0	514	620	
1	0	0	0	0	513	622	
2	0	0	0	0	513	625	
3	0	0	0	0	513	620	
4	0	0	0	0	513	621	
5	0	0	0	0	514	621	
6	0	0	0	0	515	617	
7	0	0	0	0	514	621	
8	0	0	0	0	513	621	
9	0	0	0	0	513	621	
10	0	0	0	0	513	624	
11	0	0	0	0	513	621	
12	0	0	0	0	512	622	
13	0	0	0	0	512	621	
14	0	0	0	0	512	617	
15	0	0	0	0	511	620	
0	0	0	0	0	512	622	
1	0	0	0	0	512	621	
2	0	0	0	0	512	625	
3	0	0	0	0	512	622	
4	0	0	0	0	512	621	
5	0	0	0	0	512	621	
6	0	0	0	0	512	616	
7	0	0	0	0	511	621	
8	0	0	0	0	511	621	
9	0	0	0	0	511	621	
10	0	0	0	0	511	624	
11	0	0	0	0	512	620	
12	0	0	0	0	511	621	
13	0	0	0	0	511	620	
14	0	0	0	0	512	617	
15	0	0	0	0	512	621	
0	0	0	0	0	511	620	
1	0	0	0	0	511	620	
2	0	0	0	0	511	624	
3	0	0	0	0	511	621	
4	0	0	0	0	511	620	
5	0	0	0	0	511	621	
6	0	0	0	0	512	616	
7	0	0	0	0	512	621	
8	0	0	0	0	512	620	
9	0	0	0	0	512	621	
10	0	0	0	0	511	623	
11	0	0	0	0	511	620	
12	0	0	0	0	510	620	
13	0	0	0	0	510	620	
14	0	0	0	0	510	616	
15	0	0	0	0	509	620	
0	0	0	0	0	510	620	
1	0	0	0	0	510	619	
2	0	0	0	0	510	623	
3	0	0	0	0	511	619	
4	0	0	0	0	511	619	
5	0	0	0	0	510	619	
6	0	0	0	0	510	614	
7	0	0	0	0	510	618	
8	0	0	0	0	510	618	
9	0	0	0	0	510	618	
10	0	0	0	0	510	621	
11	0	0	0	0	510	617	
12	0	0	0	0	510	617	
13	0	0	0	0	510	617	
14	0	0	0	0	510	613	
15	0	0	0	0	511	617	
0	0	0	0	0	511	616	
1	0	0	0	0	511	616	
2	0	0	0	0	512	620	
3	0	0	0	0	512	616	
4	0	0	0	0	512	616	
5	0	0	0	0	513	615	
6	0	0	0	0	513	612	
7	0	0	0	0	513	616	
8	0	0	0	0	513	616	
9	0	0	0	0	513	616	
10	0	0	0	0	513	620	
11	0	0	0	0	512	617	
12	0	0	0	0	513	617	
13	0	0	0	0	513	616	
14	0	0	0	0	513	614	
15	0	0	0	0	513	617	
0	0	0	0	0	514	618	
1	0	0	0	0	514	618	
2	0	0	0	0	515	620	
3	0	0	0	0	515	617	
4	0	0	0	0	514	617	
5	0	0	0	0	514	617	
6	0	0	0	0	514	614	
7	0	0	0	0	514	618	
8	0	0	0	0	514	618	
9	0	0	0	0	514	618	
10	0	0	0	0	513	621	
11	0	0	0	0	511	618	
12	0	0	0	0	511	618	
13	0	0	0	0	511	617	
14	0	0	0	0	512	614	
15	0	0	0	0	512	618	
0	0	0	0	0	512	619	
1	0	0	0	0	512	618	
2	0	0	0	0	510	622	
3	0	0	0	0	510	619	
4	0	0	0	0	511	619	
5	0	0	0	0	511	619	
6	0	0	0	0	511	615	
7	0	0	0	0	511	619	
8	0	0	0	0	511	620	
9	0	0	0	0	511	620	
10	0	0	0	0	511	623	
11	0	0	0	0	511	620	
12	0	0	0	0	511	619	
13	0	0	0	0	512	620	
14	0	0	0	0	512	616	
15	0	0	0	0	512	620	
0	0	0	0	0	512	620	
1	0	0	0	0	512	620	
2	0	0	0	0	512	623	
3	0	0	0	0	512	619	
4	0	0	0	0	512	620	
5	0	0	0	0	511	620	
6	0	0	0	0	512	616	
7	0	0	0	0	512	620	
8	0	0	0	0	512	620	
9	0	0	0	0	511	620	
10	0	0	0	0	511	624	
11	0	0	0	0	511	620	
12	0	0	0	0	510	620	
13	0	0	0	0	510	620	
14	0	0	0	0	510	617	
15	0	0	0	0	510	620	
0	0	0	0	0	509	620	
1	0	0	0	0	509	620	
2	0	0	0	0	510	623	
3	0	0	0	0	510	620	
4	0	0	0	0	510	620	
5	0	0	0	0	510	619	
6	0	0	0	0	510	616	
7	0	0	0	0	509	618	
8	0	0	0	0	510	619	
9	0	0	0	0	509	619	
10	0	0	0	0	508	623	
11	0	0	0	0	508	619	
12	0	0	0	0	508	619	
13	0	0	0	0	510	618	
14	0	0	0	0	510	615	
15	0	0	0	0	510	619	
0	0	0	0	0	511	618	
1	0	0	0	0	511	618	
2	0	0	0	0	511	622	
3	0	0	0	0	511	617	
4	0	0	0	0	511	618	
5	0	0	0	0	512	617	
6	0	0	0	0	512	614	
7	0	0	0	0	512	618	
8	0	0	0	0	510	617	
9	0	0	0	0	509	617	
10	0	0	0	0	507	621	
11	0	0	0	0	505	616	
12	0	0	0	0	502	617	
13	0	0	0	0	499	617	
14	0	0	0	0	497	614	
15	0	0	0	0	494	617	
0	0	0	0	0	490	616	
1	0	0	0	0	486	617	
2	0	0	0	0	480	620	
3	0	0	0	0	476	617	
4	0	0	0	0	470	616	
5	0	0	0	0	465	616	
6	0	0	0	0	460	613	
7	0	0	0	0	455	616	
8	0	0	0	0	452	616	
9	0	0	0	0	451	616	
10	0	0	0	0	451	620	
11	0	0	0	0	453	617	
12	0	0	0	0	456	616	
13	0	0	0	0	462	617	
14	0	0	0	0	470	612	
15	0	0	0	0	481	616	
0	0	0	0	0	496	616	
1	0	0	0	0	512	616	
2	0	0	0	0	531	620	
3	0	0	0	0	550	616	
4	0	0	0	0	571	615	
5	0	0	0	0	594	616	
6	0	0	0	0	619	612	
7	0	0	0	0	644	616	
8	0	0	0	0	670	616	
9	0	0	0	0	694	616	
10	0	0	0	0	716	620	
11	0	0	0	0	736	616	
12	0	0	0	0	753	616	
13	0	0	0	0	767	616	
14	0	0	0	0	776	613	
15	0	0	0	0	780	616	
0	0	0	0	0	779	616	
1	0	0	0	0	774	616	
2	0	0	0	0	766	620	
3	0	0	0	0	757	617	
4	0	0	0	0	745	617	
5	0	0	0	0	732	617	
6	0	0	0	0	717	614	
7	0	0	0	0	701	617	
8	0	0	0	0	684	617	
9	0	0	0	0	667	618	
10	0	0	0	0	651	621	
11	0	0	0	0	636	619	
12	0	0	0	0	620	619	
13	0	0	0	0	606	619	
14	0	0	0	0	593	615	
15	0	0	0	0	581	619	
0	0	0	0	0	570	619	
1	0	0	0	0	560	619	
2	0	0	0	0	549	622	
3	0	0	0	0	541	619	
4	0	0	0	0	534	619	
5	0	0	0	0	526	619	
6	0	0	0	0	520	614	
7	0	0	0	0	514	619	
8	0	0	0	0	509	618	
9	0	0	0	0	504	618	
10	0	0	0	0	499	622	
11	0	0	0	0	495	619	
12	0	0	0	0	489	618	
13	0	0	0	0	485	619	
14	0	0	0	0	480	614	
15	0	0	0	0	476	619	
0	0	0	0	0	473	619	
1	0	0	0	0	471	618	
2	0	0	0	0	468	622	
3	0	0	0	0	466	619	
4	0	0	0	0	463	619	
5	0	0	0	0	461	619	
6	0	0	0	0	460	615	
7	0	0	0	0	459	619	
8	0	0	0	0	458	619	
9	0	0	0	0	458	620	
10	0	0	0	0	459	623	
11	0	0	0	0	459	619	
12	0	0	0	0	459	620	
13	0	0	0	0	457	620	
14	0	0	0	0	457	616	
15	0	0	0	0	456	620	
0	0	0	0	0	456	620	
1	0	0	0	0	457	620	
2	0	0	0	0	457	623	
3	0	0	0	0	458	620	
4	0	0	0	0	458	620	
5	0	0	0	0	457	620	
6	0	0	0	0	458	617	
7	0	0	0	0	458	620	
8	0	0	0	0	459	620	
9	0	0	0	0	458	621	
10	0	0	0	0	458	624	
11	0	0	0	0	459	621	
12	0	0	0	0	459	621	
13	0	0	0	0	459	621	
14	0	0	0	0	459	617	
15	0	0	0	0	459	620	
0	0	0	0	0	459	622	
1	0	0	0	0	459	621	
2	0	0	0	0	459	625	
3	0	0	0	0	460	621	
4	0	0	0	0	459	621	
5	0	0	0	0	460	621	
6	0	0	0	0	460	617	
7	0	0	0	0	462	622	
8	0	0	0	0	462	622	
9	0	0	0	0	463	622	
10	0	0	0	0	464	626	
11	0	0	0	0	465	622	
12	0	0	0	0	465	623	
13	0	0	0	0	466	623	
14	0	0	0	0	466	620	
15	0	0	0	0	466	624	
0	0	0	0	0	467	624	
1	0	0	0	0	467	624	
2	0	0	0	0	468	627	
3	0	0	0	0	469	624	
4	0	0	0	0	470	625	
5	0	0	0	0	469	625	
6	0	0	0	0	470	621	
7	0	0	0	0	470	625	
8	0	0	0	0	470	625	
9	0	0	0	0	469	625	
10	0	0	0	0	468	628	
11	0	0	0	0	470	625	
12	0	0	0	0	471	625	
13	0	0	0	0	471	624	
14	0	0	0	0	472	621	
15	0	0	0	0	473	624	
0	0	0	0	0	474	624	
1	0	0	0	0	475	624	
2	0	0	0	0	475	627	
3	0	0	0	0	476	624	
