# OpenSignals Text File Format. Version 1
# {"98:D3:91:FD:59:64": {"position": 0, "device": "bitalino_rev", "device name": "98:D3:91:FD:59:64", "device connection": "BTH98:D3:91:FD:59:64", "sampling rate": 1000, "resolution": [4, 1, 1, 1, 1, 10, 10], "firmware version": 1281, "comments": "", "keywords": "", "mode": 0, "sync interval": 2, "date": "2021-9-15", "time": "11:25:30.738", "channels": [2, 5], "sensor": ["RAW", "RAW"], "label": ["A2", "A5"], "column": ["nSeq", "I1", "I2", "O1", "O2", "A2", "A5"], "special": [{}, {}], "digital IO": [0, 0, 1, 1], "convertedValues": 0}}
# EndOfHeader
0	0	0	0	0	492	629	
1	0	0	0	0	493	630	
2	0	0	0	0	494	629	
3	0	0	0	0	494	629	
4	0	0	0	0	495	629	
5	0	0	0	0	496	630	
6	0	0	0	0	498	629	
7	0	0	0	0	499	629	
8	0	0	0	0	501	630	
9	0	0	0	0	502	630	
10	0	0	0	0	502	630	
11	0	0	0	0	504	629	
12	0	0	0	0	505	630	
13	0	0	0	0	507	630	
14	0	0	0	0	508	629	
15	0	0	0	0	510	629	
0	0	0	0	0	511	629	
1	0	0	0	0	511	630	
2	0	0	0	0	512	630	
3	0	0	0	0	512	628	
4	0	0	0	0	513	628	
5	0	0	0	0	513	629	
6	0	0	0	0	514	629	
7	0	0	0	0	515	629	
8	0	0	0	0	515	629	
9	0	0	0	0	516	630	
10	0	0	0	0	517	629	
11	0	0	0	0	518	630	
12	0	0	0	0	518	629	
13	0	0	0	0	518	628	
14	0	0	0	0	518	629	
15	0	0	0	0	518	629	
0	0	0	0	0	519	630	
1	0	0	0	0	520	630	
2	0	0	0	0	520	630	
3	0	0	0	0	520	629	
4	0	0	0	0	521	629	
5	0	0	0	0	521	629	
6	0	0	0	0	521	629	
7	0	0	0	0	521	629	
8	0	0	0	0	521	629	
9	0	0	0	0	522	629	
10	0	0	0	0	522	628	
11	0	0	0	0	521	628	
12	0	0	0	0	521	627	
13	0	0	0	0	521	626	
14	0	0	0	0	521	625	
15	0	0	0	0	520	625	
0	0	0	0	0	520	624	
1	0	0	0	0	520	624	
2	0	0	0	0	520	625	
3	0	0	0	0	519	623	
4	0	0	0	0	520	625	
5	0	0	0	0	519	625	
6	0	0	0	0	518	624	
7	0	0	0	0	517	624	
8	0	0	0	0	516	625	
9	0	0	0	0	516	626	
10	0	0	0	0	516	625	
11	0	0	0	0	515	625	
12	0	0	0	0	515	626	
13	0	0	0	0	513	627	
14	0	0	0	0	513	627	
15	0	0	0	0	512	628	
0	0	0	0	0	512	629	
1	0	0	0	0	512	631	
2	0	0	0	0	512	631	
3	0	0	0	0	512	631	
4	0	0	0	0	512	632	
5	0	0	0	0	512	632	
6	0	0	0	0	513	633	
7	0	0	0	0	512	633	
8	0	0	0	0	512	633	
9	0	0	0	0	511	634	
10	0	0	0	0	510	634	
11	0	0	0	0	509	636	
12	0	0	0	0	509	636	
13	0	0	0	0	509	636	
14	0	0	0	0	509	636	
15	0	0	0	0	510	635	
0	0	0	0	0	510	635	
1	0	0	0	0	510	635	
2	0	0	0	0	510	635	
3	0	0	0	0	510	635	
4	0	0	0	0	510	635	
5	0	0	0	0	509	635	
6	0	0	0	0	508	636	
7	0	0	0	0	508	636	
8	0	0	0	0	508	636	
9	0	0	0	0	509	637	
10	0	0	0	0	510	637	
11	0	0	0	0	510	637	
12	0	0	0	0	509	637	
13	0	0	0	0	509	638	
14	0	0	0	0	510	638	
15	0	0	0	0	510	639	
0	0	0	0	0	510	639	
1	0	0	0	0	510	639	
2	0	0	0	0	511	639	
3	0	0	0	0	512	639	
4	0	0	0	0	512	640	
5	0	0	0	0	512	640	
6	0	0	0	0	512	639	
7	0	0	0	0	512	639	
8	0	0	0	0	511	639	
9	0	0	0	0	511	640	
10	0	0	0	0	511	639	
11	0	0	0	0	511	638	
12	0	0	0	0	511	638	
13	0	0	0	0	511	637	
14	0	0	0	0	511	637	
15	0	0	0	0	512	637	
0	0	0	0	0	512	637	
1	0	0	0	0	512	637	
2	0	0	0	0	512	636	
3	0	0	0	0	512	635	
4	0	0	0	0	512	635	
5	0	0	0	0	512	635	
6	0	0	0	0	513	634	
7	0	0	0	0	513	633	
8	0	0	0	0	513	633	
9	0	0	0	0	513	633	
10	0	0	0	0	513	632	
11	0	0	0	0	513	632	
12	0	0	0	0	513	630	
13	0	0	0	0	513	630	
14	0	0	0	0	513	628	
15	0	0	0	0	513	627	
0	0	0	0	0	514	627	
1	0	0	0	0	513	626	
2	0	0	0	0	513	625	
3	0	0	0	0	512	623	
4	0	0	0	0	513	623	
5	0	0	0	0	513	621	
6	0	0	0	0	512	620	
7	0	0	0	0	513	619	
8	0	0	0	0	513	618	
9	0	0	0	0	512	617	
10	0	0	0	0	512	615	
11	0	0	0	0	512	614	
12	0	0	0	0	512	613	
13	0	0	0	0	512	612	
14	0	0	0	0	512	611	
15	0	0	0	0	512	610	
0	0	0	0	0	512	609	
1	0	0	0	0	512	609	
2	0	0	0	0	512	608	
3	0	0	0	0	512	608	
4	0	0	0	0	512	607	
5	0	0	0	0	512	607	
6	0	0	0	0	513	607	
7	0	0	0	0	512	606	
8	0	0	0	0	512	606	
9	0	0	0	0	512	605	
10	0	0	0	0	512	604	
11	0	0	0	0	512	604	
12	0	0	0	0	512	602	
13	0	0	0	0	513	602	
14	0	0	0	0	514	602	
15	0	0	0	0	514	601	
0	0	0	0	0	514	600	
1	0	0	0	0	513	600	
2	0	0	0	0	512	599	
3	0	0	0	0	512	598	
4	0	0	0	0	512	598	
5	0	0	0	0	511	597	
6	0	0	0	0	511	596	
7	0	0	0	0	511	596	
8	0	0	0	0	511	595	
9	0	0	0	0	511	596	
10	0	0	0	0	511	594	
11	0	0	0	0	511	595	
12	0	0	0	0	511	594	
13	0	0	0	0	511	594	
14	0	0	0	0	510	594	
15	0	0	0	0	509	594	
0	0	0	0	0	509	593	
1	0	0	0	0	509	595	
2	0	0	0	0	510	594	
3	0	0	0	0	510	594	
4	0	0	0	0	510	595	
5	0	0	0	0	511	595	
6	0	0	0	0	511	595	
7	0	0	0	0	511	595	
8	0	0	0	0	511	595	
9	0	0	0	0	510	597	
10	0	0	0	0	510	597	
11	0	0	0	0	510	597	
12	0	0	0	0	510	597	
13	0	0	0	0	510	598	
14	0	0	0	0	510	599	
15	0	0	0	0	510	599	
0	0	0	0	0	510	600	
1	0	0	0	0	510	600	
2	0	0	0	0	511	601	
3	0	0	0	0	511	601	
4	0	0	0	0	511	601	
5	0	0	0	0	511	602	
6	0	0	0	0	511	602	
7	0	0	0	0	511	603	
8	0	0	0	0	510	603	
9	0	0	0	0	511	604	
10	0	0	0	0	511	604	
11	0	0	0	0	511	605	
12	0	0	0	0	511	605	
13	0	0	0	0	511	607	
14	0	0	0	0	510	607	
15	0	0	0	0	509	608	
0	0	0	0	0	509	609	
1	0	0	0	0	510	611	
2	0	0	0	0	510	611	
3	0	0	0	0	511	612	
4	0	0	0	0	511	614	
5	0	0	0	0	512	615	
6	0	0	0	0	512	615	
7	0	0	0	0	512	616	
8	0	0	0	0	512	618	
9	0	0	0	0	512	619	
10	0	0	0	0	511	619	
11	0	0	0	0	512	621	
12	0	0	0	0	512	621	
13	0	0	0	0	512	623	
14	0	0	0	0	513	624	
15	0	0	0	0	513	625	
0	0	0	0	0	513	626	
1	0	0	0	0	512	628	
2	0	0	0	0	512	629	
3	0	0	0	0	512	631	
4	0	0	0	0	511	632	
5	0	0	0	0	512	633	
6	0	0	0	0	512	633	
7	0	0	0	0	511	635	
8	0	0	0	0	512	635	
9	0	0	0	0	512	637	
10	0	0	0	0	512	638	
11	0	0	0	0	512	639	
12	0	0	0	0	512	640	
13	0	0	0	0	512	641	
14	0	0	0	0	512	643	
15	0	0	0	0	512	643	
0	0	0	0	0	512	645	
1	0	0	0	0	512	647	
2	0	0	0	0	512	647	
3	0	0	0	0	512	650	
4	0	0	0	0	511	651	
5	0	0	0	0	511	652	
6	0	0	0	0	511	653	
7	0	0	0	0	512	655	
8	0	0	0	0	512	655	
9	0	0	0	0	512	657	
10	0	0	0	0	512	658	
11	0	0	0	0	513	658	
12	0	0	0	0	513	659	
13	0	0	0	0	513	659	
14	0	0	0	0	513	659	
15	0	0	0	0	513	659	
0	0	0	0	0	514	659	
1	0	0	0	0	514	659	
2	0	0	0	0	514	658	
3	0	0	0	0	514	658	
4	0	0	0	0	515	659	
5	0	0	0	0	514	658	
6	0	0	0	0	514	657	
7	0	0	0	0	513	658	
8	0	0	0	0	513	658	
9	0	0	0	0	513	657	
10	0	0	0	0	513	656	
11	0	0	0	0	513	656	
12	0	0	0	0	513	654	
13	0	0	0	0	514	653	
14	0	0	0	0	514	652	
15	0	0	0	0	514	652	
0	0	0	0	0	514	652	
1	0	0	0	0	514	651	
2	0	0	0	0	514	650	
3	0	0	0	0	514	650	
4	0	0	0	0	514	648	
5	0	0	0	0	515	647	
6	0	0	0	0	515	646	
7	0	0	0	0	515	645	
8	0	0	0	0	516	645	
9	0	0	0	0	516	645	
10	0	0	0	0	515	645	
11	0	0	0	0	515	646	
12	0	0	0	0	515	646	
13	0	0	0	0	515	646	
14	0	0	0	0	515	646	
15	0	0	0	0	515	646	
0	0	0	0	0	516	646	
1	0	0	0	0	515	647	
2	0	0	0	0	515	646	
3	0	0	0	0	514	646	
4	0	0	0	0	515	646	
5	0	0	0	0	515	646	
6	0	0	0	0	516	646	
7	0	0	0	0	516	646	
8	0	0	0	0	515	646	
9	0	0	0	0	515	646	
10	0	0	0	0	515	646	
11	0	0	0	0	515	646	
12	0	0	0	0	515	646	
13	0	0	0	0	515	645	
14	0	0	0	0	515	645	
15	0	0	0	0	514	645	
0	0	0	0	0	514	645	
1	0	0	0	0	515	645	
2	0	0	0	0	515	644	
3	0	0	0	0	515	645	
4	0	0	0	0	515	646	
5	0	0	0	0	515	646	
6	0	0	0	0	514	647	
7	0	0	0	0	514	646	
8	0	0	0	0	514	645	
9	0	0	0	0	514	646	
10	0	0	0	0	515	645	
11	0	0	0	0	515	645	
12	0	0	0	0	516	645	
13	0	0	0	0	516	646	
14	0	0	0	0	516	646	
15	0	0	0	0	516	646	
0	0	0	0	0	516	645	
1	0	0	0	0	516	645	
2	0	0	0	0	516	644	
3	0	0	0	0	516	643	
4	0	0	0	0	515	642	
5	0	0	0	0	516	642	
6	0	0	0	0	515	641	
7	0	0	0	0	515	641	
8	0	0	0	0	515	640	
9	0	0	0	0	515	639	
10	0	0	0	0	515	639	
11	0	0	0	0	515	638	
12	0	0	0	0	515	637	
13	0	0	0	0	515	636	
14	0	0	0	0	515	635	
15	0	0	0	0	515	634	
0	0	0	0	0	515	633	
1	0	0	0	0	516	632	
2	0	0	0	0	515	631	
3	0	0	0	0	515	631	
4	0	0	0	0	516	630	
5	0	0	0	0	515	629	
6	0	0	0	0	515	628	
7	0	0	0	0	516	627	
8	0	0	0	0	516	627	
9	0	0	0	0	516	626	
10	0	0	0	0	515	626	
11	0	0	0	0	515	626	
12	0	0	0	0	515	626	
13	0	0	0	0	515	626	
14	0	0	0	0	515	626	
15	0	0	0	0	514	625	
0	0	0	0	0	514	625	
1	0	0	0	0	514	625	
2	0	0	0	0	514	624	
3	0	0	0	0	513	624	
4	0	0	0	0	514	623	
5	0	0	0	0	514	623	
6	0	0	0	0	515	623	
7	0	0	0	0	515	624	
8	0	0	0	0	515	623	
9	0	0	0	0	516	623	
10	0	0	0	0	515	623	
11	0	0	0	0	516	623	
12	0	0	0	0	516	622	
13	0	0	0	0	515	622	
14	0	0	0	0	515	621	
15	0	0	0	0	515	620	
0	0	0	0	0	516	619	
1	0	0	0	0	515	618	
2	0	0	0	0	516	616	
3	0	0	0	0	515	616	
4	0	0	0	0	515	615	
5	0	0	0	0	515	614	
6	0	0	0	0	515	614	
7	0	0	0	0	515	613	
8	0	0	0	0	514	611	
9	0	0	0	0	514	611	
10	0	0	0	0	513	609	
11	0	0	0	0	513	608	
12	0	0	0	0	514	607	
13	0	0	0	0	514	607	
14	0	0	0	0	513	606	
15	0	0	0	0	513	606	
0	0	0	0	0	512	604	
1	0	0	0	0	512	605	
2	0	0	0	0	511	604	
3	0	0	0	0	512	604	
4	0	0	0	0	511	604	
5	0	0	0	0	511	604	
6	0	0	0	0	511	604	
7	0	0	0	0	511	604	
8	0	0	0	0	511	604	
9	0	0	0	0	511	604	
10	0	0	0	0	511	603	
11	0	0	0	0	512	604	
12	0	0	0	0	512	604	
13	0	0	0	0	511	605	
14	0	0	0	0	511	606	
15	0	0	0	0	511	606	
0	0	0	0	0	511	607	
1	0	0	0	0	510	608	
2	0	0	0	0	510	608	
3	0	0	0	0	510	609	
4	0	0	0	0	509	610	
5	0	0	0	0	509	611	
6	0	0	0	0	508	611	
7	0	0	0	0	508	612	
8	0	0	0	0	507	612	
9	0	0	0	0	507	614	
10	0	0	0	0	507	613	
11	0	0	0	0	508	612	
12	0	0	0	0	508	613	
13	0	0	0	0	509	614	
14	0	0	0	0	509	614	
15	0	0	0	0	509	615	
0	0	0	0	0	510	615	
1	0	0	0	0	510	615	
2	0	0	0	0	510	615	
3	0	0	0	0	510	614	
4	0	0	0	0	510	615	
5	0	0	0	0	509	615	
6	0	0	0	0	509	614	
7	0	0	0	0	509	615	
8	0	0	0	0	508	615	
9	0	0	0	0	508	616	
10	0	0	0	0	508	616	
11	0	0	0	0	509	616	
12	0	0	0	0	509	616	
13	0	0	0	0	509	617	
14	0	0	0	0	509	617	
15	0	0	0	0	510	617	
0	0	0	0	0	509	618	
1	0	0	0	0	509	619	
2	0	0	0	0	508	619	
3	0	0	0	0	508	619	
4	0	0	0	0	508	619	
5	0	0	0	0	508	620	
6	0	0	0	0	508	620	
7	0	0	0	0	508	620	
8	0	0	0	0	507	621	
9	0	0	0	0	507	622	
10	0	0	0	0	507	621	
11	0	0	0	0	506	621	
12	0	0	0	0	506	621	
13	0	0	0	0	506	622	
14	0	0	0	0	507	622	
15	0	0	0	0	508	622	
0	0	0	0	0	508	622	
1	0	0	0	0	508	622	
2	0	0	0	0	508	622	
3	0	0	0	0	509	622	
4	0	0	0	0	509	622	
5	0	0	0	0	509	622	
6	0	0	0	0	509	622	
7	0	0	0	0	510	623	
8	0	0	0	0	511	623	
9	0	0	0	0	512	624	
10	0	0	0	0	512	623	
11	0	0	0	0	512	623	
12	0	0	0	0	512	624	
13	0	0	0	0	511	624	
14	0	0	0	0	512	624	
15	0	0	0	0	512	625	
0	0	0	0	0	512	624	
1	0	0	0	0	512	626	
2	0	0	0	0	512	625	
3	0	0	0	0	512	627	
4	0	0	0	0	512	626	
5	0	0	0	0	511	626	
6	0	0	0	0	511	626	
7	0	0	0	0	511	627	
8	0	0	0	0	510	627	
9	0	0	0	0	510	628	
10	0	0	0	0	510	628	
11	0	0	0	0	509	628	
12	0	0	0	0	509	629	
13	0	0	0	0	509	629	
14	0	0	0	0	509	628	
15	0	0	0	0	509	628	
0	0	0	0	0	509	629	
1	0	0	0	0	508	629	
2	0	0	0	0	508	630	
3	0	0	0	0	508	629	
4	0	0	0	0	507	629	
5	0	0	0	0	507	629	
6	0	0	0	0	507	629	
7	0	0	0	0	507	629	
8	0	0	0	0	507	629	
9	0	0	0	0	507	629	
10	0	0	0	0	507	629	
11	0	0	0	0	508	629	
12	0	0	0	0	508	629	
13	0	0	0	0	508	630	
14	0	0	0	0	507	630	
15	0	0	0	0	507	630	
0	0	0	0	0	507	630	
1	0	0	0	0	507	630	
2	0	0	0	0	507	631	
3	0	0	0	0	507	631	
4	0	0	0	0	507	631	
5	0	0	0	0	508	631	
6	0	0	0	0	508	630	
7	0	0	0	0	508	631	
8	0	0	0	0	508	631	
9	0	0	0	0	509	631	
10	0	0	0	0	509	631	
11	0	0	0	0	509	631	
12	0	0	0	0	508	630	
13	0	0	0	0	508	630	
14	0	0	0	0	508	629	
15	0	0	0	0	508	628	
0	0	0	0	0	507	628	
1	0	0	0	0	507	629	
2	0	0	0	0	507	627	
3	0	0	0	0	507	627	
4	0	0	0	0	507	626	
5	0	0	0	0	507	626	
6	0	0	0	0	506	625	
7	0	0	0	0	506	624	
8	0	0	0	0	507	624	
9	0	0	0	0	507	623	
10	0	0	0	0	507	622	
11	0	0	0	0	507	621	
12	0	0	0	0	507	621	
13	0	0	0	0	506	620	
14	0	0	0	0	505	619	
15	0	0	0	0	505	618	
0	0	0	0	0	506	617	
1	0	0	0	0	505	617	
2	0	0	0	0	505	617	
3	0	0	0	0	505	616	
4	0	0	0	0	505	617	
5	0	0	0	0	505	617	
6	0	0	0	0	505	617	
7	0	0	0	0	505	617	
8	0	0	0	0	505	617	
9	0	0	0	0	504	617	
10	0	0	0	0	504	617	
11	0	0	0	0	505	617	
12	0	0	0	0	504	617	
13	0	0	0	0	503	617	
14	0	0	0	0	502	616	
15	0	0	0	0	501	616	
0	0	0	0	0	500	615	
1	0	0	0	0	499	616	
2	0	0	0	0	496	615	
3	0	0	0	0	492	615	
4	0	0	0	0	487	615	
5	0	0	0	0	481	616	
6	0	0	0	0	473	615	
7	0	0	0	0	464	616	
8	0	0	0	0	455	615	
9	0	0	0	0	445	616	
10	0	0	0	0	437	615	
11	0	0	0	0	428	615	
12	0	0	0	0	421	615	
13	0	0	0	0	414	615	
14	0	0	0	0	410	615	
15	0	0	0	0	408	615	
0	0	0	0	0	408	615	
1	0	0	0	0	410	615	
2	0	0	0	0	412	615	
3	0	0	0	0	417	615	
4	0	0	0	0	422	615	
5	0	0	0	0	429	615	
6	0	0	0	0	435	614	
7	0	0	0	0	441	614	
8	0	0	0	0	447	614	
9	0	0	0	0	453	614	
10	0	0	0	0	459	614	
11	0	0	0	0	466	614	
12	0	0	0	0	476	615	
13	0	0	0	0	493	615	
14	0	0	0	0	514	615	
15	0	0	0	0	537	615	
0	0	0	0	0	563	615	
1	0	0	0	0	591	615	
2	0	0	0	0	625	616	
3	0	0	0	0	664	615	
4	0	0	0	0	706	615	
5	0	0	0	0	747	616	
6	0	0	0	0	783	616	
7	0	0	0	0	816	616	
8	0	0	0	0	842	616	
9	0	0	0	0	864	617	
10	0	0	0	0	879	617	
11	0	0	0	0	886	617	
12	0	0	0	0	886	617	
13	0	0	0	0	884	617	
14	0	0	0	0	878	617	
15	0	0	0	0	871	617	
0	0	0	0	0	860	617	
1	0	0	0	0	848	618	
2	0	0	0	0	834	618	
3	0	0	0	0	817	618	
4	0	0	0	0	798	619	
5	0	0	0	0	777	619	
6	0	0	0	0	755	619	
7	0	0	0	0	733	619	
8	0	0	0	0	712	619	
9	0	0	0	0	692	619	
10	0	0	0	0	675	619	
11	0	0	0	0	658	618	
12	0	0	0	0	643	616	
13	0	0	0	0	629	615	
14	0	0	0	0	616	615	
15	0	0	0	0	605	616	
0	0	0	0	0	595	618	
1	0	0	0	0	585	620	
2	0	0	0	0	575	623	
3	0	0	0	0	564	624	
4	0	0	0	0	555	625	
5	0	0	0	0	545	625	
6	0	0	0	0	535	625	
7	0	0	0	0	525	626	
8	0	0	0	0	515	626	
9	0	0	0	0	506	627	
10	0	0	0	0	497	627	
11	0	0	0	0	489	627	
12	0	0	0	0	481	627	
13	0	0	0	0	474	628	
14	0	0	0	0	467	628	
15	0	0	0	0	461	628	
0	0	0	0	0	456	630	
1	0	0	0	0	451	631	
2	0	0	0	0	446	630	
3	0	0	0	0	442	630	
4	0	0	0	0	439	630	
5	0	0	0	0	437	631	
6	0	0	0	0	434	631	
7	0	0	0	0	432	631	
8	0	0	0	0	431	630	
9	0	0	0	0	429	631	
10	0	0	0	0	427	631	
11	0	0	0	0	425	630	
12	0	0	0	0	424	630	
13	0	0	0	0	423	631	
14	0	0	0	0	423	631	
15	0	0	0	0	423	631	
0	0	0	0	0	422	631	
1	0	0	0	0	421	632	
2	0	0	0	0	421	632	
3	0	0	0	0	421	632	
4	0	0	0	0	422	633	
5	0	0	0	0	421	633	
6	0	0	0	0	421	633	
7	0	0	0	0	421	633	
8	0	0	0	0	421	633	
9	0	0	0	0	422	633	
10	0	0	0	0	422	633	
11	0	0	0	0	422	635	
12	0	0	0	0	423	635	
13	0	0	0	0	423	636	
14	0	0	0	0	423	637	
15	0	0	0	0	423	637	
0	0	0	0	0	423	638	
1	0	0	0	0	424	638	
2	0	0	0	0	423	637	
3	0	0	0	0	424	637	
4	0	0	0	0	424	638	
5	0	0	0	0	425	638	
6	0	0	0	0	427	638	
7	0	0	0	0	428	638	
8	0	0	0	0	428	638	
9	0	0	0	0	428	639	
10	0	0	0	0	429	638	
11	0	0	0	0	430	638	
12	0	0	0	0	430	638	
13	0	0	0	0	431	638	
14	0	0	0	0	432	639	
15	0	0	0	0	433	639	
0	0	0	0	0	434	639	
1	0	0	0	0	434	639	
2	0	0	0	0	435	638	
3	0	0	0	0	435	637	
4	0	0	0	0	435	638	
5	0	0	0	0	436	638	
6	0	0	0	0	436	637	
7	0	0	0	0	436	637	
8	0	0	0	0	437	636	
9	0	0	0	0	437	637	
10	0	0	0	0	438	636	
11	0	0	0	0	438	635	
12	0	0	0	0	439	634	
13	0	0	0	0	439	633	
14	0	0	0	0	439	633	
15	0	0	0	0	440	632	
0	0	0	0	0	440	632	
1	0	0	0	0	440	633	
2	0	0	0	0	441	632	
3	0	0	0	0	442	631	
4	0	0	0	0	443	631	
5	0	0	0	0	443	630	
6	0	0	0	0	444	630	
7	0	0	0	0	445	629	
8	0	0	0	0	446	629	
9	0	0	0	0	446	629	
10	0	0	0	0	447	628	
11	0	0	0	0	448	627	
12	0	0	0	0	448	627	
13	0	0	0	0	448	626	
14	0	0	0	0	448	626	
15	0	0	0	0	449	625	
0	0	0	0	0	449	624	
1	0	0	0	0	450	624	
2	0	0	0	0	450	623	
3	0	0	0	0	450	622	
4	0	0	0	0	450	622	
5	0	0	0	0	451	621	
6	0	0	0	0	451	620	
7	0	0	0	0	451	620	
8	0	0	0	0	451	620	
9	0	0	0	0	451	620	
10	0	0	0	0	452	618	
11	0	0	0	0	452	619	
12	0	0	0	0	452	618	
13	0	0	0	0	452	618	
14	0	0	0	0	452	617	
15	0	0	0	0	454	616	
0	0	0	0	0	455	616	
1	0	0	0	0	455	616	
2	0	0	0	0	455	615	
3	0	0	0	0	455	615	
4	0	0	0	0	455	615	
5	0	0	0	0	455	615	
6	0	0	0	0	455	614	
7	0	0	0	0	455	614	
8	0	0	0	0	455	614	
9	0	0	0	0	455	614	
10	0	0	0	0	455	614	
11	0	0	0	0	456	613	
12	0	0	0	0	457	612	
13	0	0	0	0	457	612	
14	0	0	0	0	457	611	
15	0	0	0	0	457	611	
0	0	0	0	0	457	611	
1	0	0	0	0	457	611	
2	0	0	0	0	457	610	
3	0	0	0	0	458	610	
4	0	0	0	0	458	607	
5	0	0	0	0	459	604	
6	0	0	0	0	459	602	
7	0	0	0	0	459	602	
8	0	0	0	0	460	604	
9	0	0	0	0	461	604	
10	0	0	0	0	461	607	
11	0	0	0	0	461	608	
12	0	0	0	0	462	608	
13	0	0	0	0	463	609	
14	0	0	0	0	464	609	
15	0	0	0	0	465	609	
0	0	0	0	0	465	609	
1	0	0	0	0	465	611	
2	0	0	0	0	465	610	
3	0	0	0	0	465	610	
4	0	0	0	0	464	611	
5	0	0	0	0	464	612	
6	0	0	0	0	465	613	
7	0	0	0	0	465	614	
8	0	0	0	0	465	615	
9	0	0	0	0	465	617	
10	0	0	0	0	465	617	
11	0	0	0	0	465	618	
12	0	0	0	0	466	619	
13	0	0	0	0	466	620	
14	0	0	0	0	467	620	
15	0	0	0	0	467	621	
0	0	0	0	0	467	620	
1	0	0	0	0	468	623	
2	0	0	0	0	469	623	
3	0	0	0	0	470	623	
4	0	0	0	0	471	623	
5	0	0	0	0	471	624	
6	0	0	0	0	472	624	
7	0	0	0	0	472	625	
8	0	0	0	0	474	625	
9	0	0	0	0	476	626	
10	0	0	0	0	477	626	
11	0	0	0	0	478	627	
12	0	0	0	0	478	627	
13	0	0	0	0	479	627	
14	0	0	0	0	480	628	
15	0	0	0	0	482	629	
0	0	0	0	0	483	628	
1	0	0	0	0	484	630	
2	0	0	0	0	485	629	
3	0	0	0	0	486	629	
4	0	0	0	0	487	628	
5	0	0	0	0	487	629	
6	0	0	0	0	488	629	
7	0	0	0	0	489	629	
8	0	0	0	0	490	628	
9	0	0	0	0	491	628	
10	0	0	0	0	492	628	
11	0	0	0	0	493	628	
12	0	0	0	0	495	628	
13	0	0	0	0	496	628	
14	0	0	0	0	497	627	
15	0	0	0	0	498	627	
0	0	0	0	0	499	627	
1	0	0	0	0	500	627	
2	0	0	0	0	501	627	
3	0	0	0	0	502	627	
4	0	0	0	0	503	626	
5	0	0	0	0	504	627	
6	0	0	0	0	505	625	
7	0	0	0	0	506	626	
8	0	0	0	0	507	626	
9	0	0	0	0	508	627	
10	0	0	0	0	510	626	
11	0	0	0	0	511	625	
12	0	0	0	0	512	625	
13	0	0	0	0	512	625	
14	0	0	0	0	514	624	
15	0	0	0	0	515	624	
0	0	0	0	0	516	624	
1	0	0	0	0	517	624	
2	0	0	0	0	518	624	
3	0	0	0	0	518	624	
4	0	0	0	0	519	623	
5	0	0	0	0	520	623	
6	0	0	0	0	521	623	
7	0	0	0	0	522	622	
8	0	0	0	0	523	623	
9	0	0	0	0	523	623	
10	0	0	0	0	524	623	
11	0	0	0	0	524	623	
12	0	0	0	0	524	623	
13	0	0	0	0	524	623	
14	0	0	0	0	524	623	
15	0	0	0	0	524	623	
0	0	0	0	0	523	624	
1	0	0	0	0	522	624	
2	0	0	0	0	522	624	
3	0	0	0	0	522	624	
4	0	0	0	0	521	624	
5	0	0	0	0	520	624	
6	0	0	0	0	520	624	
7	0	0	0	0	519	625	
8	0	0	0	0	519	624	
9	0	0	0	0	519	625	
10	0	0	0	0	520	625	
11	0	0	0	0	519	625	
12	0	0	0	0	519	625	
13	0	0	0	0	519	626	
14	0	0	0	0	519	626	
15	0	0	0	0	518	626	
0	0	0	0	0	518	627	
1	0	0	0	0	517	628	
2	0	0	0	0	516	628	
3	0	0	0	0	515	628	
4	0	0	0	0	515	628	
5	0	0	0	0	515	629	
6	0	0	0	0	514	629	
7	0	0	0	0	514	629	
8	0	0	0	0	514	629	
9	0	0	0	0	513	630	
10	0	0	0	0	513	630	
11	0	0	0	0	513	630	
12	0	0	0	0	513	630	
13	0	0	0	0	513	630	
14	0	0	0	0	513	631	
15	0	0	0	0	513	631	
0	0	0	0	0	513	630	
1	0	0	0	0	512	631	
2	0	0	0	0	512	631	
3	0	0	0	0	511	631	
4	0	0	0	0	511	631	
5	0	0	0	0	511	631	
6	0	0	0	0	511	631	
7	0	0	0	0	512	630	
8	0	0	0	0	512	630	
9	0	0	0	0	513	631	
10	0	0	0	0	512	630	
11	0	0	0	0	512	630	
12	0	0	0	0	512	630	
13	0	0	0	0	512	630	
14	0	0	0	0	512	629	
15	0	0	0	0	512	630	
0	0	0	0	0	512	629	
1	0	0	0	0	512	629	
2	0	0	0	0	513	628	
3	0	0	0	0	513	628	
4	0	0	0	0	513	627	
5	0	0	0	0	513	627	
6	0	0	0	0	513	627	
7	0	0	0	0	513	627	
8	0	0	0	0	513	627	
9	0	0	0	0	514	628	
10	0	0	0	0	513	627	
11	0	0	0	0	512	627	
12	0	0	0	0	512	627	
13	0	0	0	0	511	627	
14	0	0	0	0	511	627	
15	0	0	0	0	511	627	
0	0	0	0	0	512	626	
1	0	0	0	0	511	627	
2	0	0	0	0	511	626	
3	0	0	0	0	511	625	
4	0	0	0	0	511	626	
5	0	0	0	0	511	626	
6	0	0	0	0	510	625	
7	0	0	0	0	510	625	
8	0	0	0	0	511	624	
9	0	0	0	0	511	623	
10	0	0	0	0	511	623	
11	0	0	0	0	511	623	
12	0	0	0	0	511	623	
13	0	0	0	0	512	624	
14	0	0	0	0	512	624	
15	0	0	0	0	512	624	
0	0	0	0	0	511	623	
1	0	0	0	0	511	624	
2	0	0	0	0	511	623	
3	0	0	0	0	512	623	
4	0	0	0	0	512	623	
5	0	0	0	0	512	622	
6	0	0	0	0	512	622	
7	0	0	0	0	512	622	
8	0	0	0	0	511	622	
9	0	0	0	0	511	623	
10	0	0	0	0	511	622	
11	0	0	0	0	511	623	
12	0	0	0	0	510	622	
13	0	0	0	0	509	622	
14	0	0	0	0	508	622	
15	0	0	0	0	507	622	
0	0	0	0	0	508	622	
1	0	0	0	0	508	623	
2	0	0	0	0	508	623	
3	0	0	0	0	508	623	
4	0	0	0	0	508	623	
5	0	0	0	0	507	623	
6	0	0	0	0	507	623	
7	0	0	0	0	507	623	
8	0	0	0	0	506	623	
9	0	0	0	0	506	623	
10	0	0	0	0	506	623	
11	0	0	0	0	506	623	
12	0	0	0	0	506	622	
13	0	0	0	0	506	622	
14	0	0	0	0	506	622	
15	0	0	0	0	505	622	
0	0	0	0	0	505	622	
1	0	0	0	0	505	622	
2	0	0	0	0	505	622	
3	0	0	0	0	504	621	
4	0	0	0	0	504	622	
5	0	0	0	0	503	622	
6	0	0	0	0	503	621	
7	0	0	0	0	503	621	
8	0	0	0	0	504	621	
9	0	0	0	0	504	621	
10	0	0	0	0	505	621	
11	0	0	0	0	505	621	
12	0	0	0	0	505	620	
13	0	0	0	0	505	621	
14	0	0	0	0	505	621	
15	0	0	0	0	505	621	
0	0	0	0	0	505	622	
1	0	0	0	0	504	622	
2	0	0	0	0	504	622	
3	0	0	0	0	504	621	
4	0	0	0	0	504	621	
5	0	0	0	0	504	622	
6	0	0	0	0	504	622	
7	0	0	0	0	504	622	
8	0	0	0	0	504	622	
9	0	0	0	0	504	623	
10	0	0	0	0	504	622	
11	0	0	0	0	504	623	
12	0	0	0	0	505	623	
13	0	0	0	0	505	623	
14	0	0	0	0	505	623	
15	0	0	0	0	505	623	
0	0	0	0	0	505	623	
1	0	0	0	0	505	623	
2	0	0	0	0	505	623	
3	0	0	0	0	505	623	
4	0	0	0	0	505	623	
5	0	0	0	0	505	623	
6	0	0	0	0	504	623	
7	0	0	0	0	504	624	
8	0	0	0	0	505	623	
9	0	0	0	0	505	624	
10	0	0	0	0	505	623	
11	0	0	0	0	505	624	
12	0	0	0	0	505	623	
13	0	0	0	0	504	624	
14	0	0	0	0	504	624	
15	0	0	0	0	504	623	
0	0	0	0	0	504	623	
1	0	0	0	0	504	624	
2	0	0	0	0	505	624	
3	0	0	0	0	505	623	
4	0	0	0	0	505	623	
5	0	0	0	0	505	624	
6	0	0	0	0	505	623	
7	0	0	0	0	506	624	
8	0	0	0	0	506	622	
9	0	0	0	0	506	623	
10	0	0	0	0	507	623	
11	0	0	0	0	508	622	
12	0	0	0	0	508	623	
13	0	0	0	0	507	623	
14	0	0	0	0	507	623	
15	0	0	0	0	507	623	
0	0	0	0	0	507	623	
1	0	0	0	0	507	624	
2	0	0	0	0	507	623	
3	0	0	0	0	508	622	
4	0	0	0	0	507	623	
5	0	0	0	0	507	623	
6	0	0	0	0	507	622	
7	0	0	0	0	508	623	
8	0	0	0	0	508	623	
9	0	0	0	0	509	624	
10	0	0	0	0	509	623	
11	0	0	0	0	510	623	
12	0	0	0	0	509	623	
13	0	0	0	0	510	622	
14	0	0	0	0	510	623	
15	0	0	0	0	510	623	
0	0	0	0	0	510	623	
1	0	0	0	0	509	624	
2	0	0	0	0	509	622	
3	0	0	0	0	508	623	
4	0	0	0	0	508	623	
5	0	0	0	0	508	623	
6	0	0	0	0	508	623	
7	0	0	0	0	508	623	
8	0	0	0	0	509	623	
9	0	0	0	0	509	623	
10	0	0	0	0	510	623	
11	0	0	0	0	510	624	
12	0	0	0	0	510	624	
13	0	0	0	0	510	624	
14	0	0	0	0	510	623	
15	0	0	0	0	510	624	
0	0	0	0	0	510	624	
1	0	0	0	0	511	624	
2	0	0	0	0	510	624	
3	0	0	0	0	510	623	
4	0	0	0	0	509	623	
5	0	0	0	0	509	624	
6	0	0	0	0	509	624	
7	0	0	0	0	509	624	
8	0	0	0	0	509	624	
9	0	0	0	0	510	625	
10	0	0	0	0	510	625	
11	0	0	0	0	511	625	
12	0	0	0	0	511	625	
13	0	0	0	0	511	624	
14	0	0	0	0	511	624	
15	0	0	0	0	510	625	
0	0	0	0	0	510	625	
1	0	0	0	0	511	626	
2	0	0	0	0	511	625	
3	0	0	0	0	511	625	
4	0	0	0	0	511	625	
5	0	0	0	0	511	625	
6	0	0	0	0	511	626	
7	0	0	0	0	511	626	
8	0	0	0	0	511	626	
9	0	0	0	0	510	627	
10	0	0	0	0	510	627	
11	0	0	0	0	510	626	
12	0	0	0	0	510	626	
13	0	0	0	0	509	627	
14	0	0	0	0	510	627	
15	0	0	0	0	510	627	
0	0	0	0	0	509	627	
1	0	0	0	0	510	627	
2	0	0	0	0	510	626	
3	0	0	0	0	510	627	
4	0	0	0	0	510	627	
5	0	0	0	0	510	627	
6	0	0	0	0	511	627	
7	0	0	0	0	511	627	
8	0	0	0	0	511	627	
9	0	0	0	0	511	627	
10	0	0	0	0	511	627	
11	0	0	0	0	512	627	
12	0	0	0	0	513	627	
13	0	0	0	0	512	627	
14	0	0	0	0	511	627	
15	0	0	0	0	512	627	
0	0	0	0	0	511	626	
1	0	0	0	0	511	627	
2	0	0	0	0	511	627	
3	0	0	0	0	510	627	
4	0	0	0	0	510	627	
5	0	0	0	0	510	627	
6	0	0	0	0	511	627	
7	0	0	0	0	512	627	
8	0	0	0	0	512	626	
9	0	0	0	0	513	627	
10	0	0	0	0	513	627	
11	0	0	0	0	513	627	
12	0	0	0	0	513	627	
13	0	0	0	0	513	627	
14	0	0	0	0	512	627	
15	0	0	0	0	513	627	
0	0	0	0	0	513	626	
1	0	0	0	0	512	626	
2	0	0	0	0	512	626	
3	0	0	0	0	512	625	
4	0	0	0	0	512	626	
5	0	0	0	0	512	626	
6	0	0	0	0	512	626	
7	0	0	0	0	512	625	
8	0	0	0	0	512	625	
9	0	0	0	0	512	625	
10	0	0	0	0	512	624	
11	0	0	0	0	512	624	
12	0	0	0	0	512	625	
13	0	0	0	0	512	624	
14	0	0	0	0	511	624	
15	0	0	0	0	511	624	
0	0	0	0	0	511	624	
1	0	0	0	0	512	624	
2	0	0	0	0	512	624	
3	0	0	0	0	513	624	
4	0	0	0	0	513	623	
5	0	0	0	0	514	624	
6	0	0	0	0	514	623	
7	0	0	0	0	514	623	
8	0	0	0	0	513	623	
9	0	0	0	0	513	623	
10	0	0	0	0	513	623	
11	0	0	0	0	513	623	
12	0	0	0	0	514	623	
13	0	0	0	0	513	623	
14	0	0	0	0	513	623	
15	0	0	0	0	513	623	
0	0	0	0	0	514	622	
1	0	0	0	0	514	623	
2	0	0	0	0	512	622	
3	0	0	0	0	512	622	
4	0	0	0	0	511	622	
5	0	0	0	0	511	622	
6	0	0	0	0	511	622	
7	0	0	0	0	510	622	
8	0	0	0	0	510	621	
9	0	0	0	0	510	622	
10	0	0	0	0	510	622	
11	0	0	0	0	510	622	
12	0	0	0	0	509	621	
13	0	0	0	0	509	621	
14	0	0	0	0	510	621	
15	0	0	0	0	510	622	
0	0	0	0	0	510	622	
1	0	0	0	0	510	621	
2	0	0	0	0	510	621	
3	0	0	0	0	509	622	
4	0	0	0	0	508	622	
5	0	0	0	0	509	622	
6	0	0	0	0	509	622	
7	0	0	0	0	509	622	
8	0	0	0	0	509	622	
9	0	0	0	0	508	622	
10	0	0	0	0	508	622	
11	0	0	0	0	508	623	
12	0	0	0	0	508	622	
13	0	0	0	0	507	622	
14	0	0	0	0	508	621	
15	0	0	0	0	508	622	
0	0	0	0	0	508	622	
1	0	0	0	0	508	622	
2	0	0	0	0	507	622	
3	0	0	0	0	507	622	
4	0	0	0	0	508	623	
5	0	0	0	0	508	623	
6	0	0	0	0	508	623	
7	0	0	0	0	508	623	
8	0	0	0	0	509	622	
9	0	0	0	0	508	623	
10	0	0	0	0	508	622	
11	0	0	0	0	508	622	
12	0	0	0	0	508	622	
13	0	0	0	0	507	623	
14	0	0	0	0	506	622	
15	0	0	0	0	506	622	
0	0	0	0	0	506	623	
1	0	0	0	0	505	624	
2	0	0	0	0	505	623	
3	0	0	0	0	505	623	
4	0	0	0	0	505	624	
5	0	0	0	0	505	624	
6	0	0	0	0	507	624	
7	0	0	0	0	507	624	
8	0	0	0	0	507	624	
9	0	0	0	0	507	625	
10	0	0	0	0	506	624	
11	0	0	0	0	505	624	
12	0	0	0	0	505	624	
13	0	0	0	0	505	624	
14	0	0	0	0	505	625	
15	0	0	0	0	505	624	
0	0	0	0	0	505	624	
1	0	0	0	0	505	624	
2	0	0	0	0	505	624	
3	0	0	0	0	505	625	
4	0	0	0	0	505	625	
5	0	0	0	0	505	625	
6	0	0	0	0	505	624	
7	0	0	0	0	505	624	
8	0	0	0	0	505	625	
9	0	0	0	0	505	625	
10	0	0	0	0	505	624	
11	0	0	0	0	507	624	
12	0	0	0	0	507	625	
13	0	0	0	0	508	625	
14	0	0	0	0	508	625	
15	0	0	0	0	508	625	
0	0	0	0	0	509	625	
1	0	0	0	0	509	625	
2	0	0	0	0	509	624	
3	0	0	0	0	510	625	
4	0	0	0	0	510	625	
5	0	0	0	0	510	625	
6	0	0	0	0	511	625	
7	0	0	0	0	511	626	
8	0	0	0	0	511	626	
9	0	0	0	0	511	625	
10	0	0	0	0	511	625	
11	0	0	0	0	511	625	
12	0	0	0	0	511	626	
13	0	0	0	0	511	625	
14	0	0	0	0	512	625	
15	0	0	0	0	511	625	
0	0	0	0	0	511	625	
1	0	0	0	0	511	625	
2	0	0	0	0	511	624	
3	0	0	0	0	511	624	
4	0	0	0	0	512	624	
5	0	0	0	0	512	625	
6	0	0	0	0	512	625	
7	0	0	0	0	512	625	
8	0	0	0	0	512	625	
9	0	0	0	0	511	625	
10	0	0	0	0	511	625	
11	0	0	0	0	510	625	
12	0	0	0	0	510	625	
13	0	0	0	0	509	625	
14	0	0	0	0	509	624	
15	0	0	0	0	508	625	
0	0	0	0	0	508	625	
1	0	0	0	0	508	625	
2	0	0	0	0	508	625	
3	0	0	0	0	509	625	
4	0	0	0	0	509	625	
5	0	0	0	0	509	625	
6	0	0	0	0	508	625	
7	0	0	0	0	508	625	
8	0	0	0	0	509	625	
9	0	0	0	0	508	625	
10	0	0	0	0	508	624	
11	0	0	0	0	509	624	
12	0	0	0	0	508	624	
13	0	0	0	0	508	625	
14	0	0	0	0	508	625	
15	0	0	0	0	507	624	
0	0	0	0	0	507	624	
1	0	0	0	0	507	625	
2	0	0	0	0	507	624	
3	0	0	0	0	507	624	
4	0	0	0	0	507	624	
5	0	0	0	0	507	624	
6	0	0	0	0	507	624	
7	0	0	0	0	507	624	
8	0	0	0	0	506	624	
9	0	0	0	0	506	624	
10	0	0	0	0	507	623	
11	0	0	0	0	507	624	
12	0	0	0	0	507	623	
13	0	0	0	0	507	624	
14	0	0	0	0	507	625	
15	0	0	0	0	508	624	
0	0	0	0	0	508	624	
1	0	0	0	0	508	624	
2	0	0	0	0	509	624	
3	0	0	0	0	508	624	
4	0	0	0	0	508	624	
5	0	0	0	0	508	624	
6	0	0	0	0	508	624	
7	0	0	0	0	508	623	
8	0	0	0	0	508	624	
9	0	0	0	0	508	623	
10	0	0	0	0	508	623	
11	0	0	0	0	507	623	
12	0	0	0	0	507	623	
13	0	0	0	0	506	623	
14	0	0	0	0	507	623	
15	0	0	0	0	507	623	
0	0	0	0	0	508	623	
1	0	0	0	0	508	623	
2	0	0	0	0	507	622	
3	0	0	0	0	507	623	
4	0	0	0	0	507	623	
5	0	0	0	0	507	624	
6	0	0	0	0	506	623	
7	0	0	0	0	505	623	
8	0	0	0	0	504	623	
9	0	0	0	0	503	624	
10	0	0	0	0	502	623	
11	0	0	0	0	500	623	
12	0	0	0	0	498	623	
13	0	0	0	0	495	624	
14	0	0	0	0	491	623	
15	0	0	0	0	484	624	
0	0	0	0	0	477	623	
1	0	0	0	0	469	624	
2	0	0	0	0	460	624	
3	0	0	0	0	452	624	
4	0	0	0	0	443	624	
5	0	0	0	0	435	624	
6	0	0	0	0	428	624	
7	0	0	0	0	420	624	
8	0	0	0	0	415	623	
9	0	0	0	0	411	624	
10	0	0	0	0	409	624	
11	0	0	0	0	409	624	
12	0	0	0	0	411	624	
13	0	0	0	0	414	624	
14	0	0	0	0	418	624	
15	0	0	0	0	423	623	
0	0	0	0	0	429	624	
1	0	0	0	0	435	624	
2	0	0	0	0	441	624	
3	0	0	0	0	448	623	
4	0	0	0	0	454	623	
5	0	0	0	0	460	623	
6	0	0	0	0	467	622	
7	0	0	0	0	479	623	
8	0	0	0	0	497	623	
9	0	0	0	0	519	623	
10	0	0	0	0	543	623	
11	0	0	0	0	569	623	
12	0	0	0	0	600	623	
13	0	0	0	0	635	624	
14	0	0	0	0	676	623	
15	0	0	0	0	718	623	
0	0	0	0	0	759	624	
1	0	0	0	0	795	624	
2	0	0	0	0	825	624	
3	0	0	0	0	851	623	
4	0	0	0	0	871	623	
5	0	0	0	0	883	623	
6	0	0	0	0	889	623	
7	0	0	0	0	888	623	
8	0	0	0	0	886	623	
9	0	0	0	0	882	623	
10	0	0	0	0	874	623	
11	0	0	0	0	865	623	
12	0	0	0	0	853	623	
13	0	0	0	0	839	623	
14	0	0	0	0	822	623	
15	0	0	0	0	802	624	
0	0	0	0	0	779	624	
1	0	0	0	0	755	624	
2	0	0	0	0	733	624	
3	0	0	0	0	711	624	
4	0	0	0	0	692	624	
5	0	0	0	0	674	624	
6	0	0	0	0	658	624	
7	0	0	0	0	643	624	
8	0	0	0	0	629	624	
9	0	0	0	0	615	625	
10	0	0	0	0	604	624	
11	0	0	0	0	593	624	
12	0	0	0	0	583	624	
13	0	0	0	0	572	624	
14	0	0	0	0	562	624	
15	0	0	0	0	552	624	
0	0	0	0	0	541	623	
1	0	0	0	0	530	624	
2	0	0	0	0	519	623	
3	0	0	0	0	509	624	
4	0	0	0	0	500	624	
5	0	0	0	0	491	623	
6	0	0	0	0	483	624	
7	0	0	0	0	475	623	
8	0	0	0	0	468	624	
9	0	0	0	0	463	624	
10	0	0	0	0	456	624	
11	0	0	0	0	451	624	
12	0	0	0	0	447	623	
13	0	0	0	0	442	624	
14	0	0	0	0	439	623	
15	0	0	0	0	435	624	
0	0	0	0	0	433	624	
1	0	0	0	0	431	624	
2	0	0	0	0	430	623	
3	0	0	0	0	428	624	
4	0	0	0	0	427	624	
5	0	0	0	0	426	623	
6	0	0	0	0	425	623	
7	0	0	0	0	424	623	
8	0	0	0	0	423	623	
9	0	0	0	0	423	623	
10	0	0	0	0	422	623	
11	0	0	0	0	422	623	
12	0	0	0	0	421	623	
13	0	0	0	0	420	624	
14	0	0	0	0	419	622	
15	0	0	0	0	419	623	
0	0	0	0	0	419	624	
1	0	0	0	0	420	623	
2	0	0	0	0	420	623	
3	0	0	0	0	420	623	
4	0	0	0	0	420	623	
5	0	0	0	0	420	624	
6	0	0	0	0	421	624	
7	0	0	0	0	421	623	
8	0	0	0	0	421	623	
9	0	0	0	0	421	624	
10	0	0	0	0	422	623	
11	0	0	0	0	422	623	
12	0	0	0	0	422	623	
13	0	0	0	0	422	624	
14	0	0	0	0	423	624	
15	0	0	0	0	423	624	
0	0	0	0	0	425	624	
1	0	0	0	0	425	624	
2	0	0	0	0	426	624	
3	0	0	0	0	427	623	
4	0	0	0	0	427	624	
5	0	0	0	0	427	624	
6	0	0	0	0	428	624	
7	0	0	0	0	428	624	
8	0	0	0	0	428	623	
9	0	0	0	0	429	624	
10	0	0	0	0	430	624	
11	0	0	0	0	431	624	
12	0	0	0	0	432	624	
13	0	0	0	0	432	624	
14	0	0	0	0	433	624	
15	0	0	0	0	433	624	
0	0	0	0	0	433	624	
1	0	0	0	0	434	625	
2	0	0	0	0	436	624	
3	0	0	0	0	436	624	
4	0	0	0	0	436	624	
5	0	0	0	0	438	625	
6	0	0	0	0	439	625	
7	0	0	0	0	439	624	
8	0	0	0	0	439	624	
9	0	0	0	0	440	625	
10	0	0	0	0	440	625	
11	0	0	0	0	440	625	
12	0	0	0	0	441	625	
13	0	0	0	0	442	625	
14	0	0	0	0	442	625	
15	0	0	0	0	442	626	
0	0	0	0	0	443	625	
1	0	0	0	0	443	626	
2	0	0	0	0	443	625	
3	0	0	0	0	444	625	
4	0	0	0	0	444	625	
5	0	0	0	0	444	625	
6	0	0	0	0	444	625	
7	0	0	0	0	444	625	
8	0	0	0	0	444	625	
9	0	0	0	0	444	625	
10	0	0	0	0	445	625	
11	0	0	0	0	445	625	
12	0	0	0	0	445	625	
13	0	0	0	0	445	625	
14	0	0	0	0	445	624	
15	0	0	0	0	445	624	
0	0	0	0	0	445	624	
1	0	0	0	0	445	625	
2	0	0	0	0	445	624	
3	0	0	0	0	445	625	
4	0	0	0	0	446	623	
5	0	0	0	0	446	624	
6	0	0	0	0	447	624	
7	0	0	0	0	448	624	
8	0	0	0	0	448	624	
9	0	0	0	0	449	624	
10	0	0	0	0	449	624	
11	0	0	0	0	450	623	
12	0	0	0	0	450	624	
13	0	0	0	0	450	624	
14	0	0	0	0	451	624	
15	0	0	0	0	451	623	
0	0	0	0	0	451	623	
1	0	0	0	0	451	624	
2	0	0	0	0	451	623	
3	0	0	0	0	451	623	
4	0	0	0	0	452	623	
5	0	0	0	0	452	623	
6	0	0	0	0	453	622	
7	0	0	0	0	453	623	
8	0	0	0	0	454	623	
9	0	0	0	0	455	623	
10	0	0	0	0	455	623	
11	0	0	0	0	455	622	
12	0	0	0	0	456	623	
13	0	0	0	0	456	623	
14	0	0	0	0	457	623	
15	0	0	0	0	457	623	
0	0	0	0	0	458	623	
1	0	0	0	0	458	623	
2	0	0	0	0	458	623	
3	0	0	0	0	458	623	
4	0	0	0	0	459	623	
5	0	0	0	0	459	623	
6	0	0	0	0	459	623	
7	0	0	0	0	460	622	
8	0	0	0	0	459	623	
9	0	0	0	0	459	623	
10	0	0	0	0	459	623	
11	0	0	0	0	460	623	
12	0	0	0	0	460	623	
13	0	0	0	0	462	623	
14	0	0	0	0	462	623	
15	0	0	0	0	463	623	
0	0	0	0	0	463	623	
1	0	0	0	0	464	624	
2	0	0	0	0	464	623	
3	0	0	0	0	464	623	
4	0	0	0	0	464	623	
5	0	0	0	0	464	623	
6	0	0	0	0	463	623	
7	0	0	0	0	463	623	
8	0	0	0	0	464	623	
9	0	0	0	0	464	624	
10	0	0	0	0	465	624	
11	0	0	0	0	466	623	
12	0	0	0	0	467	624	
13	0	0	0	0	468	624	
14	0	0	0	0	469	624	
15	0	0	0	0	470	624	
0	0	0	0	0	471	624	
1	0	0	0	0	471	624	
2	0	0	0	0	472	624	
3	0	0	0	0	473	624	
4	0	0	0	0	475	624	
5	0	0	0	0	476	624	
6	0	0	0	0	477	624	
7	0	0	0	0	478	623	
8	0	0	0	0	479	623	
9	0	0	0	0	480	624	
10	0	0	0	0	482	623	
11	0	0	0	0	483	623	
12	0	0	0	0	484	624	
13	0	0	0	0	486	624	
14	0	0	0	0	487	623	
15	0	0	0	0	487	623	
0	0	0	0	0	488	624	
1	0	0	0	0	490	624	
2	0	0	0	0	490	624	
3	0	0	0	0	491	624	
4	0	0	0	0	491	624	
5	0	0	0	0	492	624	
6	0	0	0	0	493	623	
7	0	0	0	0	495	623	
8	0	0	0	0	496	623	
9	0	0	0	0	497	623	
10	0	0	0	0	498	623	
11	0	0	0	0	499	624	
12	0	0	0	0	501	623	
13	0	0	0	0	502	624	
14	0	0	0	0	503	623	
15	0	0	0	0	504	624	
0	0	0	0	0	505	624	
1	0	0	0	0	507	624	
2	0	0	0	0	507	624	
3	0	0	0	0	508	623	
4	0	0	0	0	510	623	
5	0	0	0	0	511	624	
6	0	0	0	0	512	623	
7	0	0	0	0	513	623	
8	0	0	0	0	514	624	
9	0	0	0	0	514	623	
10	0	0	0	0	515	624	
11	0	0	0	0	516	624	
12	0	0	0	0	517	624	
13	0	0	0	0	519	624	
14	0	0	0	0	520	623	
15	0	0	0	0	520	623	
0	0	0	0	0	520	624	
1	0	0	0	0	520	624	
2	0	0	0	0	520	624	
3	0	0	0	0	520	624	
4	0	0	0	0	521	624	
5	0	0	0	0	522	624	
6	0	0	0	0	521	624	
7	0	0	0	0	522	624	
8	0	0	0	0	521	624	
9	0	0	0	0	521	624	
10	0	0	0	0	521	624	
11	0	0	0	0	522	624	
12	0	0	0	0	522	624	
13	0	0	0	0	522	624	
14	0	0	0	0	522	625	
15	0	0	0	0	522	625	
0	0	0	0	0	522	624	
1	0	0	0	0	522	625	
2	0	0	0	0	522	625	
3	0	0	0	0	521	624	
4	0	0	0	0	521	624	
5	0	0	0	0	520	624	
6	0	0	0	0	520	624	
7	0	0	0	0	519	624	
8	0	0	0	0	519	624	
9	0	0	0	0	519	625	
10	0	0	0	0	519	625	
11	0	0	0	0	519	625	
12	0	0	0	0	518	624	
13	0	0	0	0	517	624	
14	0	0	0	0	517	624	
15	0	0	0	0	517	623	
0	0	0	0	0	516	624	
1	0	0	0	0	516	624	
2	0	0	0	0	515	624	
3	0	0	0	0	515	624	
4	0	0	0	0	514	624	
5	0	0	0	0	514	624	
6	0	0	0	0	514	623	
7	0	0	0	0	514	623	
8	0	0	0	0	514	623	
9	0	0	0	0	514	624	
10	0	0	0	0	514	623	
11	0	0	0	0	514	623	
12	0	0	0	0	514	623	
13	0	0	0	0	515	623	
14	0	0	0	0	514	623	
15	0	0	0	0	514	622	
0	0	0	0	0	515	623	
1	0	0	0	0	514	623	
2	0	0	0	0	514	623	
3	0	0	0	0	514	623	
4	0	0	0	0	514	622	
5	0	0	0	0	513	623	
6	0	0	0	0	514	623	
7	0	0	0	0	514	622	
8	0	0	0	0	513	623	
9	0	0	0	0	513	623	
10	0	0	0	0	514	622	
11	0	0	0	0	513	623	
12	0	0	0	0	513	623	
13	0	0	0	0	513	623	
14	0	0	0	0	513	623	
15	0	0	0	0	514	623	
0	0	0	0	0	514	623	
1	0	0	0	0	514	623	
2	0	0	0	0	514	624	
3	0	0	0	0	514	623	
4	0	0	0	0	513	623	
5	0	0	0	0	513	624	
6	0	0	0	0	514	623	
7	0	0	0	0	514	624	
8	0	0	0	0	513	624	
9	0	0	0	0	513	624	
10	0	0	0	0	513	624	
11	0	0	0	0	514	624	
12	0	0	0	0	513	624	
13	0	0	0	0	513	624	
14	0	0	0	0	512	623	
15	0	0	0	0	512	623	
0	0	0	0	0	512	624	
1	0	0	0	0	512	624	
2	0	0	0	0	512	624	
3	0	0	0	0	513	624	
4	0	0	0	0	513	624	
5	0	0	0	0	514	624	
6	0	0	0	0	514	624	
7	0	0	0	0	515	624	
8	0	0	0	0	515	624	
9	0	0	0	0	515	625	
10	0	0	0	0	515	624	
11	0	0	0	0	514	624	
12	0	0	0	0	513	624	
13	0	0	0	0	513	625	
14	0	0	0	0	513	624	
15	0	0	0	0	514	625	
0	0	0	0	0	513	624	
1	0	0	0	0	513	624	
2	0	0	0	0	513	624	
3	0	0	0	0	513	624	
4	0	0	0	0	513	624	
5	0	0	0	0	513	624	
6	0	0	0	0	513	624	
7	0	0	0	0	513	624	
8	0	0	0	0	513	623	
9	0	0	0	0	513	624	
10	0	0	0	0	513	624	
11	0	0	0	0	513	624	
12	0	0	0	0	512	623	
13	0	0	0	0	511	623	
14	0	0	0	0	511	623	
15	0	0	0	0	511	623	
0	0	0	0	0	510	624	
1	0	0	0	0	510	623	
2	0	0	0	0	510	623	
3	0	0	0	0	511	624	
4	0	0	0	0	510	623	
5	0	0	0	0	510	623	
6	0	0	0	0	510	623	
7	0	0	0	0	511	623	
8	0	0	0	0	511	623	
9	0	0	0	0	510	624	
10	0	0	0	0	510	623	
11	0	0	0	0	510	623	
12	0	0	0	0	510	623	
13	0	0	0	0	510	623	
14	0	0	0	0	509	623	
15	0	0	0	0	509	623	
0	0	0	0	0	508	623	
1	0	0	0	0	508	624	
2	0	0	0	0	508	623	
3	0	0	0	0	509	623	
4	0	0	0	0	509	623	
5	0	0	0	0	509	624	
6	0	0	0	0	509	624	
7	0	0	0	0	509	623	
8	0	0	0	0	508	624	
9	0	0	0	0	508	624	
10	0	0	0	0	509	624	
11	0	0	0	0	509	623	
12	0	0	0	0	509	624	
13	0	0	0	0	508	624	
14	0	0	0	0	508	623	
15	0	0	0	0	508	623	
0	0	0	0	0	508	623	
1	0	0	0	0	508	624	
2	0	0	0	0	508	623	
3	0	0	0	0	508	623	
4	0	0	0	0	508	623	
5	0	0	0	0	508	623	
6	0	0	0	0	508	623	
7	0	0	0	0	508	623	
8	0	0	0	0	508	623	
9	0	0	0	0	508	624	
10	0	0	0	0	508	623	
11	0	0	0	0	508	623	
12	0	0	0	0	508	623	
13	0	0	0	0	507	623	
14	0	0	0	0	507	623	
15	0	0	0	0	506	624	
0	0	0	0	0	505	624	
1	0	0	0	0	506	624	
2	0	0	0	0	506	624	
3	0	0	0	0	507	624	
4	0	0	0	0	507	623	
5	0	0	0	0	508	624	
6	0	0	0	0	509	623	
7	0	0	0	0	508	623	
8	0	0	0	0	509	624	
9	0	0	0	0	510	623	
10	0	0	0	0	510	623	
11	0	0	0	0	512	623	
12	0	0	0	0	512	623	
13	0	0	0	0	512	624	
14	0	0	0	0	511	623	
15	0	0	0	0	512	623	
0	0	0	0	0	512	623	
1	0	0	0	0	512	624	
2	0	0	0	0	512	623	
3	0	0	0	0	512	622	
4	0	0	0	0	512	623	
5	0	0	0	0	512	623	
6	0	0	0	0	511	623	
7	0	0	0	0	511	623	
8	0	0	0	0	512	624	
9	0	0	0	0	512	624	
10	0	0	0	0	512	623	
11	0	0	0	0	512	623	
12	0	0	0	0	512	623	
13	0	0	0	0	512	623	
14	0	0	0	0	512	623	
15	0	0	0	0	512	623	
0	0	0	0	0	511	623	
1	0	0	0	0	511	623	
2	0	0	0	0	511	623	
3	0	0	0	0	511	623	
4	0	0	0	0	511	623	
5	0	0	0	0	511	623	
6	0	0	0	0	512	623	
7	0	0	0	0	512	623	
8	0	0	0	0	513	624	
9	0	0	0	0	513	624	
10	0	0	0	0	513	624	
11	0	0	0	0	513	624	
12	0	0	0	0	513	624	
13	0	0	0	0	513	624	
14	0	0	0	0	512	625	
15	0	0	0	0	512	624	
0	0	0	0	0	512	624	
1	0	0	0	0	512	624	
2	0	0	0	0	511	624	
3	0	0	0	0	512	624	
4	0	0	0	0	512	625	
5	0	0	0	0	513	625	
6	0	0	0	0	513	624	
7	0	0	0	0	513	624	
8	0	0	0	0	514	625	
9	0	0	0	0	514	624	
10	0	0	0	0	514	624	
11	0	0	0	0	514	624	
12	0	0	0	0	513	624	
13	0	0	0	0	513	625	
14	0	0	0	0	513	625	
15	0	0	0	0	513	625	
0	0	0	0	0	513	625	
1	0	0	0	0	514	625	
2	0	0	0	0	514	625	
3	0	0	0	0	514	625	
4	0	0	0	0	514	624	
5	0	0	0	0	514	625	
6	0	0	0	0	514	625	
7	0	0	0	0	514	625	
8	0	0	0	0	513	625	
9	0	0	0	0	514	625	
10	0	0	0	0	514	624	
11	0	0	0	0	515	624	
12	0	0	0	0	515	624	
13	0	0	0	0	514	624	
14	0	0	0	0	515	624	
15	0	0	0	0	515	624	
0	0	0	0	0	516	624	
1	0	0	0	0	516	624	
2	0	0	0	0	516	624	
3	0	0	0	0	516	623	
4	0	0	0	0	516	624	
5	0	0	0	0	516	624	
6	0	0	0	0	516	623	
7	0	0	0	0	516	623	
8	0	0	0	0	516	624	
9	0	0	0	0	516	624	
10	0	0	0	0	516	623	
11	0	0	0	0	515	623	
12	0	0	0	0	515	623	
13	0	0	0	0	514	623	
14	0	0	0	0	513	623	
15	0	0	0	0	514	623	
0	0	0	0	0	515	623	
1	0	0	0	0	515	623	
2	0	0	0	0	514	623	
3	0	0	0	0	514	623	
4	0	0	0	0	513	623	
5	0	0	0	0	512	623	
6	0	0	0	0	511	623	
7	0	0	0	0	511	623	
8	0	0	0	0	512	623	
9	0	0	0	0	512	623	
10	0	0	0	0	513	623	
11	0	0	0	0	513	623	
12	0	0	0	0	513	623	
13	0	0	0	0	513	624	
14	0	0	0	0	513	623	
15	0	0	0	0	513	623	
0	0	0	0	0	513	623	
1	0	0	0	0	513	624	
2	0	0	0	0	513	623	
3	0	0	0	0	513	623	
4	0	0	0	0	513	623	
5	0	0	0	0	513	624	
6	0	0	0	0	513	623	
7	0	0	0	0	513	624	
8	0	0	0	0	513	624	
9	0	0	0	0	512	624	
10	0	0	0	0	513	623	
11	0	0	0	0	513	624	
12	0	0	0	0	512	624	
13	0	0	0	0	512	624	
14	0	0	0	0	512	624	
15	0	0	0	0	512	623	
0	0	0	0	0	513	623	
1	0	0	0	0	512	624	
2	0	0	0	0	512	624	
3	0	0	0	0	512	623	
4	0	0	0	0	512	624	
5	0	0	0	0	513	624	
6	0	0	0	0	512	624	
7	0	0	0	0	513	624	
8	0	0	0	0	512	624	
9	0	0	0	0	513	624	
10	0	0	0	0	513	625	
11	0	0	0	0	512	624	
12	0	0	0	0	512	624	
13	0	0	0	0	512	624	
14	0	0	0	0	512	624	
15	0	0	0	0	512	623	
0	0	0	0	0	512	624	
1	0	0	0	0	512	624	
2	0	0	0	0	512	624	
3	0	0	0	0	511	624	
4	0	0	0	0	512	624	
5	0	0	0	0	512	624	
6	0	0	0	0	512	624	
7	0	0	0	0	512	624	
8	0	0	0	0	511	624	
9	0	0	0	0	511	624	
10	0	0	0	0	511	624	
11	0	0	0	0	511	624	
12	0	0	0	0	511	623	
13	0	0	0	0	511	623	
14	0	0	0	0	511	624	
15	0	0	0	0	510	623	
0	0	0	0	0	509	623	
1	0	0	0	0	509	624	
2	0	0	0	0	509	624	
3	0	0	0	0	510	624	
4	0	0	0	0	510	623	
5	0	0	0	0	509	623	
6	0	0	0	0	509	623	
7	0	0	0	0	510	623	
8	0	0	0	0	510	623	
9	0	0	0	0	511	624	
10	0	0	0	0	510	624	
11	0	0	0	0	510	624	
12	0	0	0	0	510	624	
13	0	0	0	0	510	624	
14	0	0	0	0	510	624	
15	0	0	0	0	510	623	
0	0	0	0	0	510	624	
1	0	0	0	0	511	624	
2	0	0	0	0	511	623	
3	0	0	0	0	512	624	
4	0	0	0	0	511	624	
5	0	0	0	0	512	624	
6	0	0	0	0	511	624	
7	0	0	0	0	511	624	
8	0	0	0	0	511	624	
9	0	0	0	0	511	625	
10	0	0	0	0	511	624	
11	0	0	0	0	510	624	
12	0	0	0	0	510	624	
13	0	0	0	0	510	624	
14	0	0	0	0	510	623	
15	0	0	0	0	509	623	
0	0	0	0	0	509	623	
1	0	0	0	0	509	624	
2	0	0	0	0	510	623	
3	0	0	0	0	510	623	
4	0	0	0	0	510	623	
5	0	0	0	0	510	624	
6	0	0	0	0	509	623	
7	0	0	0	0	509	623	
8	0	0	0	0	509	623	
9	0	0	0	0	508	624	
10	0	0	0	0	508	624	
11	0	0	0	0	509	623	
12	0	0	0	0	509	623	
13	0	0	0	0	509	624	
14	0	0	0	0	510	624	
15	0	0	0	0	509	624	
0	0	0	0	0	508	624	
1	0	0	0	0	508	624	
2	0	0	0	0	508	623	
3	0	0	0	0	508	623	
4	0	0	0	0	508	623	
5	0	0	0	0	507	623	
6	0	0	0	0	508	623	
7	0	0	0	0	508	623	
8	0	0	0	0	508	623	
9	0	0	0	0	508	624	
10	0	0	0	0	508	623	
11	0	0	0	0	508	623	
12	0	0	0	0	508	623	
13	0	0	0	0	508	624	
14	0	0	0	0	508	624	
15	0	0	0	0	506	624	
0	0	0	0	0	506	624	
1	0	0	0	0	506	623	
2	0	0	0	0	506	624	
3	0	0	0	0	506	624	
4	0	0	0	0	506	624	
5	0	0	0	0	506	624	
6	0	0	0	0	506	624	
7	0	0	0	0	505	624	
8	0	0	0	0	505	623	
9	0	0	0	0	504	624	
10	0	0	0	0	504	623	
11	0	0	0	0	505	624	
12	0	0	0	0	505	623	
13	0	0	0	0	505	624	
14	0	0	0	0	506	624	
15	0	0	0	0	505	624	
0	0	0	0	0	506	623	
1	0	0	0	0	506	624	
2	0	0	0	0	506	624	
3	0	0	0	0	506	624	
4	0	0	0	0	506	624	
5	0	0	0	0	505	624	
6	0	0	0	0	506	624	
7	0	0	0	0	506	624	
8	0	0	0	0	506	624	
9	0	0	0	0	506	625	
10	0	0	0	0	506	624	
11	0	0	0	0	507	624	
12	0	0	0	0	507	623	
13	0	0	0	0	507	624	
14	0	0	0	0	507	624	
15	0	0	0	0	507	624	
0	0	0	0	0	508	624	
1	0	0	0	0	508	624	
2	0	0	0	0	509	624	
3	0	0	0	0	509	623	
4	0	0	0	0	510	624	
5	0	0	0	0	511	624	
6	0	0	0	0	512	624	
7	0	0	0	0	512	624	
8	0	0	0	0	512	624	
9	0	0	0	0	512	624	
10	0	0	0	0	512	624	
11	0	0	0	0	512	624	
12	0	0	0	0	512	624	
13	0	0	0	0	512	624	
14	0	0	0	0	512	624	
15	0	0	0	0	512	623	
0	0	0	0	0	512	624	
1	0	0	0	0	512	624	
2	0	0	0	0	512	623	
3	0	0	0	0	511	624	
4	0	0	0	0	511	624	
5	0	0	0	0	512	623	
6	0	0	0	0	512	624	
7	0	0	0	0	511	624	
8	0	0	0	0	511	624	
9	0	0	0	0	510	624	
10	0	0	0	0	511	624	
11	0	0	0	0	511	624	
12	0	0	0	0	510	624	
13	0	0	0	0	508	624	
14	0	0	0	0	508	624	
15	0	0	0	0	508	624	
0	0	0	0	0	508	624	
1	0	0	0	0	508	624	
2	0	0	0	0	508	623	
3	0	0	0	0	508	624	
4	0	0	0	0	508	624	
5	0	0	0	0	508	623	
6	0	0	0	0	508	623	
7	0	0	0	0	508	624	
8	0	0	0	0	508	623	
9	0	0	0	0	508	624	
10	0	0	0	0	507	623	
11	0	0	0	0	506	623	
12	0	0	0	0	506	623	
13	0	0	0	0	506	624	
14	0	0	0	0	507	623	
15	0	0	0	0	507	624	
0	0	0	0	0	507	623	
1	0	0	0	0	507	623	
2	0	0	0	0	508	623	
3	0	0	0	0	507	622	
4	0	0	0	0	508	623	
5	0	0	0	0	508	623	
6	0	0	0	0	508	623	
7	0	0	0	0	508	623	
8	0	0	0	0	508	623	
9	0	0	0	0	507	624	
10	0	0	0	0	507	623	
11	0	0	0	0	507	623	
12	0	0	0	0	507	624	
13	0	0	0	0	508	624	
14	0	0	0	0	507	623	
15	0	0	0	0	507	624	
0	0	0	0	0	507	623	
1	0	0	0	0	506	623	
2	0	0	0	0	505	623	
3	0	0	0	0	506	624	
4	0	0	0	0	506	624	
5	0	0	0	0	507	624	
6	0	0	0	0	507	623	
7	0	0	0	0	507	623	
8	0	0	0	0	507	624	
9	0	0	0	0	507	624	
10	0	0	0	0	508	624	
11	0	0	0	0	507	623	
12	0	0	0	0	508	623	
13	0	0	0	0	508	623	
14	0	0	0	0	507	623	
15	0	0	0	0	508	623	
0	0	0	0	0	508	623	
1	0	0	0	0	507	623	
2	0	0	0	0	507	624	
3	0	0	0	0	505	624	
4	0	0	0	0	505	624	
5	0	0	0	0	505	624	
6	0	0	0	0	505	624	
7	0	0	0	0	505	624	
8	0	0	0	0	504	624	
9	0	0	0	0	504	624	
10	0	0	0	0	504	624	
11	0	0	0	0	502	624	
12	0	0	0	0	501	624	
13	0	0	0	0	498	623	
14	0	0	0	0	495	624	
15	0	0	0	0	489	624	
0	0	0	0	0	482	624	
1	0	0	0	0	474	625	
2	0	0	0	0	465	624	
3	0	0	0	0	456	624	
4	0	0	0	0	448	624	
5	0	0	0	0	440	624	
6	0	0	0	0	432	624	
7	0	0	0	0	425	624	
8	0	0	0	0	418	624	
9	0	0	0	0	414	625	
10	0	0	0	0	411	623	
11	0	0	0	0	411	623	
12	0	0	0	0	411	624	
13	0	0	0	0	413	624	
14	0	0	0	0	417	624	
15	0	0	0	0	423	624	
0	0	0	0	0	428	624	
1	0	0	0	0	435	624	
2	0	0	0	0	442	623	
3	0	0	0	0	448	623	
4	0	0	0	0	454	624	
5	0	0	0	0	461	624	
6	0	0	0	0	466	624	
7	0	0	0	0	475	624	
8	0	0	0	0	490	624	
9	0	0	0	0	511	624	
10	0	0	0	0	534	624	
11	0	0	0	0	560	623	
12	0	0	0	0	588	624	
13	0	0	0	0	621	624	
14	0	0	0	0	657	624	
15	0	0	0	0	699	624	
0	0	0	0	0	740	624	
1	0	0	0	0	779	624	
2	0	0	0	0	812	624	
3	0	0	0	0	841	624	
4	0	0	0	0	864	624	
5	0	0	0	0	880	624	
6	0	0	0	0	891	623	
7	0	0	0	0	894	624	
8	0	0	0	0	893	623	
9	0	0	0	0	889	623	
10	0	0	0	0	883	624	
11	0	0	0	0	874	624	
12	0	0	0	0	863	624	
13	0	0	0	0	850	624	
14	0	0	0	0	835	624	
15	0	0	0	0	816	623	
0	0	0	0	0	795	623	
1	0	0	0	0	771	623	
2	0	0	0	0	748	624	
3	0	0	0	0	726	624	
4	0	0	0	0	705	623	
5	0	0	0	0	687	624	
6	0	0	0	0	670	623	
7	0	0	0	0	654	624	
8	0	0	0	0	640	624	
9	0	0	0	0	626	623	
10	0	0	0	0	612	624	
11	0	0	0	0	601	624	
12	0	0	0	0	590	624	
13	0	0	0	0	580	624	
14	0	0	0	0	569	623	
15	0	0	0	0	559	624	
0	0	0	0	0	550	624	
1	0	0	0	0	538	624	
2	0	0	0	0	527	624	
3	0	0	0	0	516	623	
4	0	0	0	0	505	624	
5	0	0	0	0	496	624	
6	0	0	0	0	487	623	
7	0	0	0	0	479	624	
8	0	0	0	0	471	623	
9	0	0	0	0	464	624	
10	0	0	0	0	459	624	
11	0	0	0	0	452	624	
12	0	0	0	0	447	623	
13	0	0	0	0	442	624	
14	0	0	0	0	438	624	
15	0	0	0	0	435	623	
0	0	0	0	0	431	623	
1	0	0	0	0	429	624	
2	0	0	0	0	427	623	
3	0	0	0	0	426	624	
4	0	0	0	0	424	623	
5	0	0	0	0	422	624	
6	0	0	0	0	421	624	
7	0	0	0	0	419	623	
8	0	0	0	0	418	624	
9	0	0	0	0	417	624	
10	0	0	0	0	417	624	
11	0	0	0	0	416	624	
12	0	0	0	0	416	623	
13	0	0	0	0	416	624	
14	0	0	0	0	416	624	
15	0	0	0	0	415	624	
0	0	0	0	0	415	624	
1	0	0	0	0	416	624	
2	0	0	0	0	416	624	
3	0	0	0	0	416	624	
4	0	0	0	0	416	624	
5	0	0	0	0	417	624	
6	0	0	0	0	417	624	
7	0	0	0	0	418	624	
8	0	0	0	0	418	624	
9	0	0	0	0	418	624	
10	0	0	0	0	418	623	
11	0	0	0	0	419	624	
12	0	0	0	0	420	624	
13	0	0	0	0	420	624	
14	0	0	0	0	421	624	
15	0	0	0	0	420	624	
0	0	0	0	0	421	624	
1	0	0	0	0	421	624	
2	0	0	0	0	422	623	
3	0	0	0	0	423	624	
4	0	0	0	0	424	624	
5	0	0	0	0	425	624	
6	0	0	0	0	425	624	
7	0	0	0	0	426	624	
8	0	0	0	0	426	624	
9	0	0	0	0	427	624	
10	0	0	0	0	427	624	
11	0	0	0	0	427	624	
12	0	0	0	0	427	624	
13	0	0	0	0	429	624	
14	0	0	0	0	429	624	
15	0	0	0	0	429	624	
0	0	0	0	0	429	624	
1	0	0	0	0	429	624	
2	0	0	0	0	429	623	
3	0	0	0	0	430	624	
4	0	0	0	0	431	624	
5	0	0	0	0	434	624	
6	0	0	0	0	435	624	
7	0	0	0	0	436	624	
8	0	0	0	0	437	623	
9	0	0	0	0	438	624	
10	0	0	0	0	438	624	
11	0	0	0	0	439	623	
12	0	0	0	0	439	624	
13	0	0	0	0	439	624	
14	0	0	0	0	439	624	
15	0	0	0	0	440	624	
0	0	0	0	0	440	624	
1	0	0	0	0	440	624	
2	0	0	0	0	441	624	
3	0	0	0	0	441	624	
4	0	0	0	0	441	624	
5	0	0	0	0	441	623	
6	0	0	0	0	441	624	
7	0	0	0	0	441	624	
8	0	0	0	0	441	624	
9	0	0	0	0	441	624	
10	0	0	0	0	441	624	
11	0	0	0	0	441	623	
12	0	0	0	0	441	623	
13	0	0	0	0	441	623	
14	0	0	0	0	442	624	
15	0	0	0	0	443	624	
0	0	0	0	0	444	624	
1	0	0	0	0	444	624	
2	0	0	0	0	444	624	
3	0	0	0	0	444	623	
4	0	0	0	0	445	623	
5	0	0	0	0	445	624	
6	0	0	0	0	447	624	
7	0	0	0	0	447	623	
8	0	0	0	0	447	623	
9	0	0	0	0	447	623	
10	0	0	0	0	447	623	
11	0	0	0	0	448	624	
12	0	0	0	0	448	623	
13	0	0	0	0	449	623	
14	0	0	0	0	449	624	
15	0	0	0	0	449	623	
0	0	0	0	0	448	623	
1	0	0	0	0	448	623	
2	0	0	0	0	448	623	
3	0	0	0	0	448	624	
4	0	0	0	0	449	623	
5	0	0	0	0	450	624	
6	0	0	0	0	451	624	
7	0	0	0	0	451	624	
8	0	0	0	0	451	624	
9	0	0	0	0	452	624	
10	0	0	0	0	452	623	
11	0	0	0	0	453	624	
12	0	0	0	0	454	624	
13	0	0	0	0	454	624	
14	0	0	0	0	454	623	
15	0	0	0	0	454	624	
0	0	0	0	0	455	624	
1	0	0	0	0	455	624	
2	0	0	0	0	455	624	
3	0	0	0	0	455	624	
4	0	0	0	0	455	624	
5	0	0	0	0	456	624	
6	0	0	0	0	456	623	
7	0	0	0	0	457	624	
8	0	0	0	0	457	623	
9	0	0	0	0	458	624	
10	0	0	0	0	458	624	
11	0	0	0	0	459	624	
12	0	0	0	0	459	624	
13	0	0	0	0	460	624	
14	0	0	0	0	460	624	
15	0	0	0	0	459	624	
0	0	0	0	0	459	624	
1	0	0	0	0	460	624	
2	0	0	0	0	459	624	
3	0	0	0	0	459	624	
4	0	0	0	0	460	624	
5	0	0	0	0	461	624	
6	0	0	0	0	461	624	
7	0	0	0	0	462	624	
8	0	0	0	0	462	624	
9	0	0	0	0	462	624	
10	0	0	0	0	463	624	
11	0	0	0	0	463	624	
12	0	0	0	0	464	624	
13	0	0	0	0	465	624	
14	0	0	0	0	466	624	
15	0	0	0	0	467	624	
0	0	0	0	0	468	624	
1	0	0	0	0	468	624	
2	0	0	0	0	470	624	
3	0	0	0	0	471	624	
4	0	0	0	0	471	624	
5	0	0	0	0	471	624	
6	0	0	0	0	472	624	
7	0	0	0	0	472	624	
8	0	0	0	0	473	625	
9	0	0	0	0	474	625	
10	0	0	0	0	475	624	
11	0	0	0	0	476	624	
12	0	0	0	0	476	624	
13	0	0	0	0	478	624	
14	0	0	0	0	479	624	
15	0	0	0	0	480	624	
0	0	0	0	0	481	624	
1	0	0	0	0	482	624	
2	0	0	0	0	483	623	
3	0	0	0	0	484	624	
4	0	0	0	0	486	623	
5	0	0	0	0	487	623	
6	0	0	0	0	489	624	
7	0	0	0	0	491	624	
8	0	0	0	0	492	623	
9	0	0	0	0	494	624	
10	0	0	0	0	494	623	
11	0	0	0	0	495	623	
12	0	0	0	0	496	623	
13	0	0	0	0	496	623	
14	0	0	0	0	498	623	
15	0	0	0	0	499	623	
0	0	0	0	0	500	622	
1	0	0	0	0	501	623	
2	0	0	0	0	502	623	
3	0	0	0	0	504	623	
4	0	0	0	0	504	623	
5	0	0	0	0	505	623	
6	0	0	0	0	506	622	
7	0	0	0	0	507	623	
8	0	0	0	0	508	623	
9	0	0	0	0	509	623	
10	0	0	0	0	510	623	
11	0	0	0	0	510	623	
12	0	0	0	0	511	623	
13	0	0	0	0	512	623	
14	0	0	0	0	512	623	
15	0	0	0	0	513	623	
0	0	0	0	0	513	624	
1	0	0	0	0	515	624	
2	0	0	0	0	516	623	
3	0	0	0	0	517	623	
4	0	0	0	0	517	623	
5	0	0	0	0	517	623	
6	0	0	0	0	518	623	
7	0	0	0	0	518	623	
8	0	0	0	0	519	624	
9	0	0	0	0	519	623	
10	0	0	0	0	520	623	
11	0	0	0	0	520	624	
12	0	0	0	0	520	624	
13	0	0	0	0	520	624	
14	0	0	0	0	520	624	
15	0	0	0	0	520	624	
0	0	0	0	0	520	625	
1	0	0	0	0	520	624	
2	0	0	0	0	520	624	
3	0	0	0	0	519	624	
4	0	0	0	0	519	624	
5	0	0	0	0	519	624	
6	0	0	0	0	519	624	
7	0	0	0	0	518	624	
8	0	0	0	0	518	625	
9	0	0	0	0	518	625	
10	0	0	0	0	518	624	
11	0	0	0	0	517	624	
12	0	0	0	0	518	624	
13	0	0	0	0	518	625	
14	0	0	0	0	517	625	
15	0	0	0	0	516	625	
0	0	0	0	0	515	625	
1	0	0	0	0	515	625	
2	0	0	0	0	515	624	
3	0	0	0	0	515	624	
4	0	0	0	0	515	624	
5	0	0	0	0	514	625	
6	0	0	0	0	514	624	
7	0	0	0	0	513	624	
8	0	0	0	0	513	624	
9	0	0	0	0	513	624	
10	0	0	0	0	512	624	
11	0	0	0	0	513	624	
12	0	0	0	0	512	625	
13	0	0	0	0	512	624	
14	0	0	0	0	512	624	
15	0	0	0	0	512	625	
0	0	0	0	0	512	624	
1	0	0	0	0	512	624	
2	0	0	0	0	512	624	
3	0	0	0	0	512	624	
4	0	0	0	0	512	624	
5	0	0	0	0	512	625	
6	0	0	0	0	512	624	
7	0	0	0	0	513	624	
8	0	0	0	0	513	624	
9	0	0	0	0	513	625	
10	0	0	0	0	512	624	
11	0	0	0	0	512	624	
12	0	0	0	0	511	624	
13	0	0	0	0	511	624	
14	0	0	0	0	512	624	
15	0	0	0	0	511	624	
0	0	0	0	0	511	624	
1	0	0	0	0	511	625	
2	0	0	0	0	511	624	
3	0	0	0	0	511	624	
4	0	0	0	0	510	624	
5	0	0	0	0	510	624	
6	0	0	0	0	510	624	
7	0	0	0	0	509	623	
8	0	0	0	0	508	624	
9	0	0	0	0	508	624	
10	0	0	0	0	509	624	
11	0	0	0	0	509	623	
12	0	0	0	0	509	624	
13	0	0	0	0	509	624	
14	0	0	0	0	509	623	
15	0	0	0	0	510	624	
0	0	0	0	0	509	624	
1	0	0	0	0	509	624	
2	0	0	0	0	509	623	
3	0	0	0	0	509	623	
4	0	0	0	0	510	623	
5	0	0	0	0	509	623	
6	0	0	0	0	510	623	
7	0	0	0	0	510	623	
8	0	0	0	0	511	623	
9	0	0	0	0	511	623	
10	0	0	0	0	510	623	
11	0	0	0	0	511	623	
12	0	0	0	0	511	623	
13	0	0	0	0	511	624	
14	0	0	0	0	511	624	
15	0	0	0	0	511	623	
0	0	0	0	0	511	624	
1	0	0	0	0	511	623	
2	0	0	0	0	511	623	
3	0	0	0	0	511	623	
4	0	0	0	0	510	623	
5	0	0	0	0	511	624	
6	0	0	0	0	510	623	
7	0	0	0	0	510	623	
8	0	0	0	0	510	622	
9	0	0	0	0	510	623	
10	0	0	0	0	510	623	
11	0	0	0	0	510	623	
12	0	0	0	0	510	623	
13	0	0	0	0	509	623	
14	0	0	0	0	509	623	
15	0	0	0	0	509	623	
0	0	0	0	0	509	623	
1	0	0	0	0	509	624	
2	0	0	0	0	509	623	
3	0	0	0	0	509	624	
4	0	0	0	0	509	623	
5	0	0	0	0	509	623	
6	0	0	0	0	509	622	
7	0	0	0	0	509	623	
8	0	0	0	0	508	623	
9	0	0	0	0	508	623	
10	0	0	0	0	508	623	
11	0	0	0	0	508	623	
12	0	0	0	0	507	623	
13	0	0	0	0	507	624	
14	0	0	0	0	506	623	
15	0	0	0	0	506	623	
0	0	0	0	0	505	624	
1	0	0	0	0	506	624	
2	0	0	0	0	505	624	
3	0	0	0	0	505	624	
4	0	0	0	0	505	624	
5	0	0	0	0	505	624	
6	0	0	0	0	505	624	
7	0	0	0	0	504	624	
8	0	0	0	0	504	624	
9	0	0	0	0	505	624	
10	0	0	0	0	505	624	
11	0	0	0	0	504	623	
12	0	0	0	0	504	623	
13	0	0	0	0	504	624	
14	0	0	0	0	504	624	
15	0	0	0	0	506	623	
0	0	0	0	0	506	623	
1	0	0	0	0	506	624	
2	0	0	0	0	505	624	
3	0	0	0	0	505	624	
4	0	0	0	0	505	623	
5	0	0	0	0	505	624	
6	0	0	0	0	506	624	
7	0	0	0	0	507	624	
8	0	0	0	0	507	623	
9	0	0	0	0	506	624	
10	0	0	0	0	506	624	
11	0	0	0	0	506	624	
12	0	0	0	0	507	624	
13	0	0	0	0	506	624	
14	0	0	0	0	506	624	
15	0	0	0	0	507	624	
0	0	0	0	0	506	624	
1	0	0	0	0	505	624	
2	0	0	0	0	505	624	
3	0	0	0	0	505	624	
4	0	0	0	0	505	624	
5	0	0	0	0	505	625	
6	0	0	0	0	505	624	
7	0	0	0	0	505	624	
8	0	0	0	0	505	624	
9	0	0	0	0	505	624	
10	0	0	0	0	506	624	
11	0	0	0	0	507	624	
12	0	0	0	0	507	623	
13	0	0	0	0	507	624	
14	0	0	0	0	506	624	
15	0	0	0	0	506	624	
0	0	0	0	0	506	624	
1	0	0	0	0	506	624	
2	0	0	0	0	507	624	
3	0	0	0	0	508	624	
4	0	0	0	0	507	624	
5	0	0	0	0	508	624	
6	0	0	0	0	508	624	
7	0	0	0	0	507	624	
8	0	0	0	0	508	623	
9	0	0	0	0	508	624	
10	0	0	0	0	508	623	
11	0	0	0	0	508	624	
12	0	0	0	0	507	624	
13	0	0	0	0	508	623	
14	0	0	0	0	508	624	
15	0	0	0	0	508	624	
0	0	0	0	0	508	624	
1	0	0	0	0	508	623	
2	0	0	0	0	508	624	
3	0	0	0	0	508	623	
4	0	0	0	0	508	623	
5	0	0	0	0	508	623	
6	0	0	0	0	509	624	
7	0	0	0	0	510	624	
8	0	0	0	0	510	624	
9	0	0	0	0	510	624	
10	0	0	0	0	510	624	
11	0	0	0	0	510	624	
12	0	0	0	0	510	624	
13	0	0	0	0	509	624	
14	0	0	0	0	509	624	
15	0	0	0	0	510	624	
0	0	0	0	0	510	623	
1	0	0	0	0	510	624	
2	0	0	0	0	510	624	
3	0	0	0	0	510	623	
4	0	0	0	0	510	624	
5	0	0	0	0	511	624	
6	0	0	0	0	511	623	
7	0	0	0	0	510	624	
8	0	0	0	0	509	623	
9	0	0	0	0	508	624	
10	0	0	0	0	507	623	
11	0	0	0	0	507	623	
12	0	0	0	0	506	624	
13	0	0	0	0	506	624	
14	0	0	0	0	508	623	
15	0	0	0	0	508	623	
0	0	0	0	0	509	623	
1	0	0	0	0	509	624	
2	0	0	0	0	510	623	
3	0	0	0	0	510	623	
4	0	0	0	0	510	623	
5	0	0	0	0	510	623	
6	0	0	0	0	511	623	
7	0	0	0	0	510	623	
8	0	0	0	0	510	624	
9	0	0	0	0	510	624	
10	0	0	0	0	511	623	
11	0	0	0	0	511	623	
12	0	0	0	0	511	623	
13	0	0	0	0	512	623	
14	0	0	0	0	512	624	
15	0	0	0	0	512	623	
0	0	0	0	0	511	623	
1	0	0	0	0	511	623	
2	0	0	0	0	511	623	
3	0	0	0	0	511	623	
4	0	0	0	0	510	623	
5	0	0	0	0	510	623	
6	0	0	0	0	511	624	
7	0	0	0	0	511	624	
8	0	0	0	0	511	623	
9	0	0	0	0	511	624	
10	0	0	0	0	511	623	
11	0	0	0	0	511	623	
12	0	0	0	0	511	624	
13	0	0	0	0	511	624	
14	0	0	0	0	511	623	
15	0	0	0	0	511	623	
0	0	0	0	0	511	623	
1	0	0	0	0	512	624	
2	0	0	0	0	511	623	
3	0	0	0	0	511	623	
4	0	0	0	0	511	624	
5	0	0	0	0	512	623	
6	0	0	0	0	511	623	
7	0	0	0	0	510	624	
8	0	0	0	0	510	623	
9	0	0	0	0	510	624	
10	0	0	0	0	510	624	
11	0	0	0	0	510	623	
12	0	0	0	0	510	624	
13	0	0	0	0	511	623	
14	0	0	0	0	511	624	
15	0	0	0	0	511	624	
0	0	0	0	0	511	623	
1	0	0	0	0	511	624	
2	0	0	0	0	510	624	
3	0	0	0	0	510	624	
4	0	0	0	0	510	624	
5	0	0	0	0	509	624	
6	0	0	0	0	509	624	
7	0	0	0	0	509	624	
8	0	0	0	0	510	624	
9	0	0	0	0	510	624	
10	0	0	0	0	510	624	
11	0	0	0	0	510	624	
12	0	0	0	0	510	624	
13	0	0	0	0	511	624	
14	0	0	0	0	510	623	
15	0	0	0	0	510	624	
0	0	0	0	0	511	623	
1	0	0	0	0	510	624	
2	0	0	0	0	510	623	
3	0	0	0	0	510	624	
4	0	0	0	0	509	624	
5	0	0	0	0	509	624	
6	0	0	0	0	509	624	
7	0	0	0	0	509	624	
8	0	0	0	0	509	624	
9	0	0	0	0	510	624	
10	0	0	0	0	510	624	
11	0	0	0	0	510	624	
12	0	0	0	0	510	624	
13	0	0	0	0	510	624	
14	0	0	0	0	510	624	
15	0	0	0	0	510	624	
0	0	0	0	0	510	623	
1	0	0	0	0	510	624	
2	0	0	0	0	510	624	
3	0	0	0	0	511	624	
4	0	0	0	0	511	624	
5	0	0	0	0	510	624	
6	0	0	0	0	510	624	
7	0	0	0	0	510	624	
8	0	0	0	0	510	624	
9	0	0	0	0	509	623	
10	0	0	0	0	509	624	
11	0	0	0	0	509	624	
12	0	0	0	0	508	624	
13	0	0	0	0	508	624	
14	0	0	0	0	507	624	
15	0	0	0	0	508	624	
0	0	0	0	0	508	624	
1	0	0	0	0	509	624	
2	0	0	0	0	508	624	
3	0	0	0	0	508	624	
4	0	0	0	0	508	624	
5	0	0	0	0	507	624	
6	0	0	0	0	507	624	
7	0	0	0	0	507	624	
8	0	0	0	0	507	623	
9	0	0	0	0	506	624	
10	0	0	0	0	506	623	
11	0	0	0	0	506	623	
12	0	0	0	0	506	624	
13	0	0	0	0	507	623	
14	0	0	0	0	507	623	
15	0	0	0	0	508	623	
0	0	0	0	0	508	623	
1	0	0	0	0	508	624	
2	0	0	0	0	508	623	
3	0	0	0	0	508	623	
4	0	0	0	0	508	623	
5	0	0	0	0	507	624	
6	0	0	0	0	507	623	
7	0	0	0	0	508	623	
8	0	0	0	0	508	623	
9	0	0	0	0	508	623	
10	0	0	0	0	508	623	
11	0	0	0	0	508	623	
12	0	0	0	0	508	623	
13	0	0	0	0	508	623	
14	0	0	0	0	508	622	
15	0	0	0	0	508	623	
0	0	0	0	0	508	623	
1	0	0	0	0	508	623	
2	0	0	0	0	509	623	
3	0	0	0	0	510	623	
4	0	0	0	0	510	623	
5	0	0	0	0	510	623	
6	0	0	0	0	509	623	
7	0	0	0	0	509	623	
8	0	0	0	0	509	623	
9	0	0	0	0	509	623	
10	0	0	0	0	509	623	
11	0	0	0	0	510	623	
12	0	0	0	0	510	624	
13	0	0	0	0	510	624	
14	0	0	0	0	510	624	
15	0	0	0	0	510	624	
0	0	0	0	0	508	623	
1	0	0	0	0	509	625	
2	0	0	0	0	510	623	
3	0	0	0	0	509	624	
4	0	0	0	0	509	624	
5	0	0	0	0	509	624	
6	0	0	0	0	508	624	
7	0	0	0	0	508	624	
8	0	0	0	0	508	624	
9	0	0	0	0	508	624	
10	0	0	0	0	507	623	
11	0	0	0	0	508	623	
12	0	0	0	0	508	624	
13	0	0	0	0	508	624	
14	0	0	0	0	508	624	
15	0	0	0	0	508	624	
0	0	0	0	0	508	624	
1	0	0	0	0	508	624	
2	0	0	0	0	508	624	
3	0	0	0	0	508	624	
4	0	0	0	0	508	624	
5	0	0	0	0	508	624	
6	0	0	0	0	508	624	
7	0	0	0	0	509	624	
8	0	0	0	0	508	624	
9	0	0	0	0	508	625	
10	0	0	0	0	508	624	
11	0	0	0	0	507	624	
12	0	0	0	0	507	624	
13	0	0	0	0	507	624	
14	0	0	0	0	507	624	
15	0	0	0	0	508	624	
0	0	0	0	0	509	624	
1	0	0	0	0	508	625	
2	0	0	0	0	508	624	
3	0	0	0	0	508	624	
4	0	0	0	0	508	625	
5	0	0	0	0	507	624	
6	0	0	0	0	507	624	
7	0	0	0	0	507	624	
8	0	0	0	0	508	624	
9	0	0	0	0	507	624	
10	0	0	0	0	507	624	
11	0	0	0	0	506	624	
12	0	0	0	0	506	624	
13	0	0	0	0	506	624	
14	0	0	0	0	505	624	
15	0	0	0	0	505	624	
0	0	0	0	0	507	624	
1	0	0	0	0	507	624	
2	0	0	0	0	507	623	
3	0	0	0	0	507	624	
4	0	0	0	0	508	624	
5	0	0	0	0	508	624	
6	0	0	0	0	507	624	
7	0	0	0	0	507	624	
8	0	0	0	0	507	624	
9	0	0	0	0	506	624	
10	0	0	0	0	507	623	
11	0	0	0	0	507	624	
12	0	0	0	0	508	623	
13	0	0	0	0	508	623	
14	0	0	0	0	507	624	
15	0	0	0	0	507	623	
0	0	0	0	0	507	623	
1	0	0	0	0	507	624	
2	0	0	0	0	507	623	
3	0	0	0	0	508	624	
4	0	0	0	0	509	623	
5	0	0	0	0	509	624	
6	0	0	0	0	509	624	
7	0	0	0	0	510	624	
8	0	0	0	0	511	624	
9	0	0	0	0	512	624	
10	0	0	0	0	512	623	
11	0	0	0	0	514	624	
12	0	0	0	0	514	623	
13	0	0	0	0	515	624	
14	0	0	0	0	515	624	
15	0	0	0	0	514	623	
0	0	0	0	0	514	623	
1	0	0	0	0	514	624	
2	0	0	0	0	514	623	
3	0	0	0	0	513	623	
4	0	0	0	0	513	623	
5	0	0	0	0	513	623	
6	0	0	0	0	514	623	
7	0	0	0	0	514	623	
8	0	0	0	0	515	623	
9	0	0	0	0	515	624	
10	0	0	0	0	515	623	
11	0	0	0	0	515	623	
12	0	0	0	0	515	623	
13	0	0	0	0	514	623	
14	0	0	0	0	514	622	
15	0	0	0	0	513	623	
0	0	0	0	0	513	622	
1	0	0	0	0	513	623	
2	0	0	0	0	513	623	
3	0	0	0	0	513	623	
4	0	0	0	0	513	623	
5	0	0	0	0	514	623	
6	0	0	0	0	513	623	
7	0	0	0	0	513	623	
8	0	0	0	0	512	623	
9	0	0	0	0	512	623	
10	0	0	0	0	513	624	
11	0	0	0	0	512	623	
12	0	0	0	0	512	623	
13	0	0	0	0	512	623	
14	0	0	0	0	512	623	
15	0	0	0	0	512	623	
0	0	0	0	0	512	622	
1	0	0	0	0	512	623	
2	0	0	0	0	513	623	
3	0	0	0	0	512	623	
4	0	0	0	0	512	623	
5	0	0	0	0	511	624	
6	0	0	0	0	511	623	
7	0	0	0	0	511	624	
8	0	0	0	0	511	623	
9	0	0	0	0	511	624	
10	0	0	0	0	510	624	
11	0	0	0	0	510	623	
12	0	0	0	0	510	624	
13	0	0	0	0	510	624	
14	0	0	0	0	510	624	
15	0	0	0	0	510	624	
0	0	0	0	0	511	624	
1	0	0	0	0	511	624	
2	0	0	0	0	511	624	
3	0	0	0	0	511	624	
4	0	0	0	0	511	624	
5	0	0	0	0	511	624	
6	0	0	0	0	511	624	
7	0	0	0	0	511	624	
8	0	0	0	0	511	624	
9	0	0	0	0	511	625	
10	0	0	0	0	511	624	
11	0	0	0	0	511	624	
12	0	0	0	0	511	623	
13	0	0	0	0	510	624	
14	0	0	0	0	510	624	
15	0	0	0	0	510	624	
0	0	0	0	0	510	624	
1	0	0	0	0	510	625	
2	0	0	0	0	510	624	
3	0	0	0	0	510	624	
4	0	0	0	0	510	624	
5	0	0	0	0	509	625	
6	0	0	0	0	509	625	
7	0	0	0	0	509	625	
8	0	0	0	0	509	624	
9	0	0	0	0	509	624	
10	0	0	0	0	508	624	
11	0	0	0	0	508	624	
12	0	0	0	0	509	624	
13	0	0	0	0	508	624	
14	0	0	0	0	508	624	
15	0	0	0	0	508	624	
0	0	0	0	0	507	624	
1	0	0	0	0	506	624	
2	0	0	0	0	505	623	
3	0	0	0	0	505	624	
4	0	0	0	0	504	624	
5	0	0	0	0	503	623	
6	0	0	0	0	499	623	
7	0	0	0	0	495	624	
8	0	0	0	0	489	624	
9	0	0	0	0	481	624	
10	0	0	0	0	474	624	
11	0	0	0	0	465	623	
12	0	0	0	0	456	624	
13	0	0	0	0	447	624	
14	0	0	0	0	438	624	
15	0	0	0	0	431	623	
0	0	0	0	0	423	624	
1	0	0	0	0	418	624	
2	0	0	0	0	415	624	
3	0	0	0	0	414	623	
4	0	0	0	0	414	623	
5	0	0	0	0	415	624	
6	0	0	0	0	418	624	
7	0	0	0	0	423	624	
8	0	0	0	0	429	624	
9	0	0	0	0	436	624	
10	0	0	0	0	444	623	
11	0	0	0	0	449	623	
12	0	0	0	0	454	623	
13	0	0	0	0	460	624	
14	0	0	0	0	467	624	
15	0	0	0	0	475	623	
0	0	0	0	0	488	623	
1	0	0	0	0	507	624	
2	0	0	0	0	529	624	
3	0	0	0	0	554	624	
4	0	0	0	0	582	624	
5	0	0	0	0	615	624	
6	0	0	0	0	652	624	
7	0	0	0	0	692	624	
8	0	0	0	0	734	624	
9	0	0	0	0	772	625	
10	0	0	0	0	807	624	
11	0	0	0	0	837	624	
12	0	0	0	0	861	624	
13	0	0	0	0	879	624	
14	0	0	0	0	891	624	
15	0	0	0	0	895	623	
0	0	0	0	0	895	624	
1	0	0	0	0	891	623	
2	0	0	0	0	886	623	
3	0	0	0	0	877	624	
4	0	0	0	0	867	623	
5	0	0	0	0	855	624	
6	0	0	0	0	840	624	
7	0	0	0	0	823	624	
8	0	0	0	0	803	624	
9	0	0	0	0	780	624	
10	0	0	0	0	756	623	
11	0	0	0	0	733	623	
12	0	0	0	0	713	623	
13	0	0	0	0	694	623	
14	0	0	0	0	676	623	
15	0	0	0	0	660	623	
0	0	0	0	0	645	623	
1	0	0	0	0	630	624	
2	0	0	0	0	617	624	
3	0	0	0	0	606	623	
4	0	0	0	0	595	623	
5	0	0	0	0	585	623	
6	0	0	0	0	574	623	
7	0	0	0	0	563	623	
8	0	0	0	0	553	624	
9	0	0	0	0	542	624	
10	0	0	0	0	531	623	
11	0	0	0	0	520	623	
12	0	0	0	0	510	624	
13	0	0	0	0	501	624	
14	0	0	0	0	493	624	
15	0	0	0	0	485	624	
0	0	0	0	0	478	623	
1	0	0	0	0	471	624	
2	0	0	0	0	464	624	
3	0	0	0	0	459	623	
4	0	0	0	0	454	624	
5	0	0	0	0	449	624	
6	0	0	0	0	444	623	
7	0	0	0	0	441	624	
8	0	0	0	0	438	623	
9	0	0	0	0	435	624	
10	0	0	0	0	434	624	
11	0	0	0	0	433	623	
12	0	0	0	0	432	624	
13	0	0	0	0	430	624	
14	0	0	0	0	428	624	
15	0	0	0	0	427	623	
0	0	0	0	0	426	624	
1	0	0	0	0	426	623	
2	0	0	0	0	425	624	
3	0	0	0	0	425	623	
4	0	0	0	0	425	623	
5	0	0	0	0	425	624	
6	0	0	0	0	425	623	
7	0	0	0	0	425	624	
8	0	0	0	0	424	623	
9	0	0	0	0	424	624	
10	0	0	0	0	424	624	
11	0	0	0	0	424	623	
12	0	0	0	0	425	623	
13	0	0	0	0	425	624	
14	0	0	0	0	425	624	
15	0	0	0	0	425	623	
0	0	0	0	0	425	623	
1	0	0	0	0	425	624	
2	0	0	0	0	425	624	
3	0	0	0	0	426	624	
4	0	0	0	0	427	623	
5	0	0	0	0	428	624	
6	0	0	0	0	429	624	
7	0	0	0	0	430	623	
8	0	0	0	0	430	623	
9	0	0	0	0	430	624	
10	0	0	0	0	430	623	
11	0	0	0	0	430	623	
12	0	0	0	0	431	623	
13	0	0	0	0	432	623	
14	0	0	0	0	432	623	
15	0	0	0	0	433	624	
0	0	0	0	0	434	623	
1	0	0	0	0	434	624	
2	0	0	0	0	435	624	
3	0	0	0	0	435	624	
4	0	0	0	0	435	624	
5	0	0	0	0	436	624	
6	0	0	0	0	437	623	
7	0	0	0	0	438	624	
8	0	0	0	0	438	624	
9	0	0	0	0	439	624	
10	0	0	0	0	439	624	
11	0	0	0	0	440	624	
12	0	0	0	0	440	624	
13	0	0	0	0	441	624	
14	0	0	0	0	441	623	
15	0	0	0	0	442	624	
0	0	0	0	0	442	624	
1	0	0	0	0	443	624	
2	0	0	0	0	443	624	
3	0	0	0	0	443	624	
4	0	0	0	0	443	624	
5	0	0	0	0	444	624	
6	0	0	0	0	445	624	
7	0	0	0	0	445	624	
8	0	0	0	0	446	624	
9	0	0	0	0	447	624	
10	0	0	0	0	447	625	
11	0	0	0	0	448	624	
12	0	0	0	0	448	625	
13	0	0	0	0	448	624	
14	0	0	0	0	448	624	
15	0	0	0	0	448	624	
0	0	0	0	0	448	624	
1	0	0	0	0	448	624	
2	0	0	0	0	448	623	
3	0	0	0	0	449	624	
4	0	0	0	0	449	624	
5	0	0	0	0	449	624	
6	0	0	0	0	450	624	
7	0	0	0	0	451	624	
8	0	0	0	0	452	624	
9	0	0	0	0	452	624	
10	0	0	0	0	452	623	
11	0	0	0	0	453	624	
12	0	0	0	0	454	623	
13	0	0	0	0	455	624	
14	0	0	0	0	455	624	
15	0	0	0	0	455	623	
0	0	0	0	0	455	623	
1	0	0	0	0	455	623	
2	0	0	0	0	456	623	
3	0	0	0	0	456	623	
4	0	0	0	0	456	623	
5	0	0	0	0	456	623	
6	0	0	0	0	456	623	
7	0	0	0	0	456	623	
8	0	0	0	0	456	622	
9	0	0	0	0	457	623	
10	0	0	0	0	457	622	
11	0	0	0	0	457	623	
12	0	0	0	0	458	623	
13	0	0	0	0	458	623	
14	0	0	0	0	459	623	
15	0	0	0	0	459	623	
0	0	0	0	0	459	623	
1	0	0	0	0	460	623	
2	0	0	0	0	460	623	
3	0	0	0	0	460	623	
4	0	0	0	0	461	623	
5	0	0	0	0	462	623	
6	0	0	0	0	463	624	
7	0	0	0	0	463	623	
8	0	0	0	0	462	623	
9	0	0	0	0	463	624	
10	0	0	0	0	463	624	
11	0	0	0	0	463	624	
12	0	0	0	0	463	624	
13	0	0	0	0	463	624	
14	0	0	0	0	463	623	
15	0	0	0	0	464	623	
0	0	0	0	0	464	623	
1	0	0	0	0	464	624	
2	0	0	0	0	464	623	
3	0	0	0	0	465	624	
4	0	0	0	0	465	624	
5	0	0	0	0	465	624	
6	0	0	0	0	465	624	
7	0	0	0	0	465	624	
8	0	0	0	0	467	624	
9	0	0	0	0	468	625	
10	0	0	0	0	468	624	
11	0	0	0	0	468	624	
12	0	0	0	0	469	624	
13	0	0	0	0	470	624	
14	0	0	0	0	471	624	
15	0	0	0	0	471	624	
0	0	0	0	0	471	624	
1	0	0	0	0	471	624	
2	0	0	0	0	471	624	
3	0	0	0	0	471	624	
4	0	0	0	0	472	624	
5	0	0	0	0	473	624	
6	0	0	0	0	474	623	
7	0	0	0	0	474	624	
8	0	0	0	0	475	624	
9	0	0	0	0	476	624	
10	0	0	0	0	477	625	
11	0	0	0	0	478	624	
12	0	0	0	0	479	624	
13	0	0	0	0	480	624	
14	0	0	0	0	482	624	
15	0	0	0	0	483	624	
0	0	0	0	0	484	623	
1	0	0	0	0	485	624	
2	0	0	0	0	486	624	
3	0	0	0	0	487	624	
4	0	0	0	0	488	623	
5	0	0	0	0	489	624	
6	0	0	0	0	491	624	
7	0	0	0	0	491	624	
8	0	0	0	0	492	624	
9	0	0	0	0	492	624	
10	0	0	0	0	493	624	
11	0	0	0	0	494	624	
12	0	0	0	0	494	623	
13	0	0	0	0	495	623	
14	0	0	0	0	496	623	
15	0	0	0	0	497	623	
0	0	0	0	0	498	624	
1	0	0	0	0	499	624	
2	0	0	0	0	500	623	
3	0	0	0	0	502	623	
4	0	0	0	0	502	623	
5	0	0	0	0	503	623	
6	0	0	0	0	504	623	
7	0	0	0	0	505	623	
8	0	0	0	0	507	624	
9	0	0	0	0	507	624	
10	0	0	0	0	508	623	
11	0	0	0	0	509	624	
12	0	0	0	0	510	623	
13	0	0	0	0	511	623	
14	0	0	0	0	511	623	
15	0	0	0	0	512	623	
0	0	0	0	0	513	622	
1	0	0	0	0	514	623	
2	0	0	0	0	515	623	
3	0	0	0	0	516	623	
4	0	0	0	0	517	623	
5	0	0	0	0	518	624	
6	0	0	0	0	519	623	
7	0	0	0	0	519	624	
8	0	0	0	0	521	622	
9	0	0	0	0	521	623	
10	0	0	0	0	522	623	
11	0	0	0	0	524	624	
12	0	0	0	0	524	624	
13	0	0	0	0	525	623	
14	0	0	0	0	525	623	
15	0	0	0	0	525	624	
0	0	0	0	0	525	623	
1	0	0	0	0	526	624	
2	0	0	0	0	526	623	
3	0	0	0	0	526	623	
4	0	0	0	0	526	623	
5	0	0	0	0	526	624	
6	0	0	0	0	525	624	
7	0	0	0	0	525	624	
8	0	0	0	0	524	624	
9	0	0	0	0	524	624	
10	0	0	0	0	525	624	
11	0	0	0	0	524	623	
12	0	0	0	0	524	623	
13	0	0	0	0	524	624	
14	0	0	0	0	523	624	
15	0	0	0	0	523	623	
0	0	0	0	0	522	623	
1	0	0	0	0	521	624	
2	0	0	0	0	521	624	
3	0	0	0	0	521	623	
4	0	0	0	0	520	623	
5	0	0	0	0	519	624	
6	0	0	0	0	519	624	
7	0	0	0	0	519	624	
8	0	0	0	0	519	624	
9	0	0	0	0	519	625	
10	0	0	0	0	519	623	
11	0	0	0	0	518	624	
12	0	0	0	0	518	624	
13	0	0	0	0	518	624	
14	0	0	0	0	517	624	
15	0	0	0	0	516	624	
0	0	0	0	0	516	624	
1	0	0	0	0	515	624	
2	0	0	0	0	515	624	
3	0	0	0	0	516	624	
4	0	0	0	0	516	624	
5	0	0	0	0	515	624	
6	0	0	0	0	515	625	
7	0	0	0	0	515	624	
8	0	0	0	0	515	624	
9	0	0	0	0	515	625	
10	0	0	0	0	514	624	
11	0	0	0	0	515	624	
12	0	0	0	0	514	624	
13	0	0	0	0	515	624	
14	0	0	0	0	513	624	
15	0	0	0	0	513	624	
0	0	0	0	0	513	624	
1	0	0	0	0	513	624	
2	0	0	0	0	514	624	
3	0	0	0	0	514	624	
4	0	0	0	0	514	624	
5	0	0	0	0	514	624	
6	0	0	0	0	514	623	
7	0	0	0	0	515	624	
8	0	0	0	0	515	624	
9	0	0	0	0	515	624	
10	0	0	0	0	515	624	
11	0	0	0	0	514	624	
12	0	0	0	0	514	623	
13	0	0	0	0	514	624	
14	0	0	0	0	514	623	
15	0	0	0	0	514	624	
0	0	0	0	0	514	624	
1	0	0	0	0	514	624	
2	0	0	0	0	514	624	
3	0	0	0	0	514	624	
4	0	0	0	0	514	623	
5	0	0	0	0	513	624	
6	0	0	0	0	514	624	
7	0	0	0	0	514	624	
8	0	0	0	0	514	624	
9	0	0	0	0	514	624	
10	0	0	0	0	514	624	
11	0	0	0	0	514	624	
12	0	0	0	0	514	624	
13	0	0	0	0	514	624	
14	0	0	0	0	514	624	
15	0	0	0	0	514	624	
0	0	0	0	0	514	624	
1	0	0	0	0	514	624	
2	0	0	0	0	514	623	
3	0	0	0	0	515	624	
4	0	0	0	0	515	623	
5	0	0	0	0	515	623	
6	0	0	0	0	515	623	
7	0	0	0	0	515	623	
8	0	0	0	0	515	623	
9	0	0	0	0	515	623	
10	0	0	0	0	515	623	
11	0	0	0	0	515	623	
12	0	0	0	0	515	623	
13	0	0	0	0	515	624	
14	0	0	0	0	515	623	
15	0	0	0	0	514	623	
0	0	0	0	0	513	622	
1	0	0	0	0	513	623	
2	0	0	0	0	513	623	
3	0	0	0	0	512	623	
4	0	0	0	0	512	623	
5	0	0	0	0	512	623	
6	0	0	0	0	512	623	
7	0	0	0	0	512	623	
8	0	0	0	0	512	623	
9	0	0	0	0	512	623	
10	0	0	0	0	512	623	
11	0	0	0	0	512	623	
12	0	0	0	0	511	623	
13	0	0	0	0	512	623	
14	0	0	0	0	512	623	
15	0	0	0	0	512	623	
0	0	0	0	0	512	623	
1	0	0	0	0	513	623	
2	0	0	0	0	512	623	
3	0	0	0	0	513	623	
4	0	0	0	0	513	624	
5	0	0	0	0	514	624	
6	0	0	0	0	514	623	
7	0	0	0	0	514	623	
8	0	0	0	0	514	624	
9	0	0	0	0	513	624	
10	0	0	0	0	513	624	
11	0	0	0	0	512	624	
12	0	0	0	0	511	623	
13	0	0	0	0	511	624	
14	0	0	0	0	511	624	
15	0	0	0	0	511	624	
0	0	0	0	0	511	624	
1	0	0	0	0	511	624	
2	0	0	0	0	511	624	
3	0	0	0	0	511	625	
4	0	0	0	0	511	625	
5	0	0	0	0	512	624	
6	0	0	0	0	512	624	
7	0	0	0	0	512	623	
8	0	0	0	0	512	623	
9	0	0	0	0	512	623	
10	0	0	0	0	513	623	
11	0	0	0	0	512	623	
12	0	0	0	0	512	624	
13	0	0	0	0	512	623	
14	0	0	0	0	512	623	
15	0	0	0	0	512	624	
0	0	0	0	0	512	624	
1	0	0	0	0	512	624	
2	0	0	0	0	511	624	
3	0	0	0	0	511	624	
4	0	0	0	0	511	624	
5	0	0	0	0	511	624	
6	0	0	0	0	510	624	
7	0	0	0	0	510	624	
8	0	0	0	0	511	624	
9	0	0	0	0	511	624	
10	0	0	0	0	511	624	
11	0	0	0	0	511	624	
12	0	0	0	0	511	624	
13	0	0	0	0	510	624	
14	0	0	0	0	510	623	
15	0	0	0	0	511	624	
0	0	0	0	0	511	623	
1	0	0	0	0	511	624	
2	0	0	0	0	512	623	
3	0	0	0	0	512	624	
4	0	0	0	0	513	624	
5	0	0	0	0	513	624	
6	0	0	0	0	513	624	
7	0	0	0	0	513	624	
8	0	0	0	0	513	623	
9	0	0	0	0	512	624	
10	0	0	0	0	512	623	
11	0	0	0	0	513	624	
12	0	0	0	0	513	624	
13	0	0	0	0	513	623	
14	0	0	0	0	513	623	
15	0	0	0	0	513	623	
0	0	0	0	0	513	623	
1	0	0	0	0	513	624	
2	0	0	0	0	514	623	
3	0	0	0	0	514	623	
4	0	0	0	0	514	623	
5	0	0	0	0	515	623	
6	0	0	0	0	515	623	
7	0	0	0	0	515	623	
8	0	0	0	0	515	623	
9	0	0	0	0	515	624	
10	0	0	0	0	515	623	
11	0	0	0	0	515	623	
12	0	0	0	0	516	624	
13	0	0	0	0	516	624	
14	0	0	0	0	516	623	
15	0	0	0	0	516	624	
0	0	0	0	0	517	623	
1	0	0	0	0	517	624	
2	0	0	0	0	517	624	
3	0	0	0	0	517	624	
4	0	0	0	0	518	624	
5	0	0	0	0	518	624	
6	0	0	0	0	518	624	
7	0	0	0	0	518	624	
8	0	0	0	0	518	624	
9	0	0	0	0	517	624	
10	0	0	0	0	516	624	
11	0	0	0	0	515	624	
12	0	0	0	0	515	624	
13	0	0	0	0	515	624	
14	0	0	0	0	516	624	
15	0	0	0	0	516	624	
0	0	0	0	0	516	624	
1	0	0	0	0	516	624	
2	0	0	0	0	516	624	
3	0	0	0	0	516	624	
4	0	0	0	0	516	624	
5	0	0	0	0	516	624	
6	0	0	0	0	515	624	
7	0	0	0	0	515	624	
8	0	0	0	0	515	624	
9	0	0	0	0	515	625	
10	0	0	0	0	515	624	
11	0	0	0	0	516	624	
12	0	0	0	0	516	624	
13	0	0	0	0	516	625	
14	0	0	0	0	517	624	
15	0	0	0	0	517	624	
0	0	0	0	0	518	624	
1	0	0	0	0	518	624	
2	0	0	0	0	518	624	
3	0	0	0	0	518	625	
4	0	0	0	0	518	624	
5	0	0	0	0	519	624	
6	0	0	0	0	519	624	
7	0	0	0	0	519	623	
8	0	0	0	0	519	624	
9	0	0	0	0	520	624	
10	0	0	0	0	520	624	
11	0	0	0	0	520	623	
12	0	0	0	0	520	623	
13	0	0	0	0	520	624	
14	0	0	0	0	519	623	
15	0	0	0	0	520	623	
0	0	0	0	0	520	623	
1	0	0	0	0	520	623	
2	0	0	0	0	521	623	
3	0	0	0	0	521	623	
4	0	0	0	0	521	624	
5	0	0	0	0	521	623	
6	0	0	0	0	520	622	
7	0	0	0	0	520	623	
8	0	0	0	0	520	623	
9	0	0	0	0	520	624	
10	0	0	0	0	520	623	
11	0	0	0	0	521	623	
12	0	0	0	0	521	623	
13	0	0	0	0	520	623	
14	0	0	0	0	520	623	
15	0	0	0	0	520	623	
0	0	0	0	0	519	623	
1	0	0	0	0	519	624	
2	0	0	0	0	519	624	
3	0	0	0	0	519	623	
4	0	0	0	0	519	623	
5	0	0	0	0	519	623	
6	0	0	0	0	519	623	
7	0	0	0	0	519	623	
8	0	0	0	0	519	623	
9	0	0	0	0	519	624	
10	0	0	0	0	519	623	
11	0	0	0	0	518	623	
12	0	0	0	0	518	623	
13	0	0	0	0	518	624	
14	0	0	0	0	518	624	
15	0	0	0	0	518	623	
0	0	0	0	0	518	624	
1	0	0	0	0	519	624	
2	0	0	0	0	518	623	
3	0	0	0	0	519	624	
4	0	0	0	0	518	624	
5	0	0	0	0	519	624	
6	0	0	0	0	519	623	
7	0	0	0	0	519	624	
8	0	0	0	0	519	623	
9	0	0	0	0	519	624	
10	0	0	0	0	519	624	
11	0	0	0	0	519	624	
12	0	0	0	0	519	624	
13	0	0	0	0	519	624	
14	0	0	0	0	518	624	
15	0	0	0	0	519	624	
0	0	0	0	0	519	624	
1	0	0	0	0	519	624	
2	0	0	0	0	519	624	
3	0	0	0	0	520	624	
4	0	0	0	0	520	624	
5	0	0	0	0	520	624	
6	0	0	0	0	520	624	
7	0	0	0	0	520	624	
8	0	0	0	0	519	623	
9	0	0	0	0	519	624	
10	0	0	0	0	519	623	
11	0	0	0	0	519	624	
12	0	0	0	0	518	623	
13	0	0	0	0	518	624	
14	0	0	0	0	518	624	
15	0	0	0	0	518	623	
0	0	0	0	0	518	623	
1	0	0	0	0	518	624	
2	0	0	0	0	518	624	
3	0	0	0	0	518	623	
4	0	0	0	0	518	624	
5	0	0	0	0	518	624	
6	0	0	0	0	518	624	
7	0	0	0	0	518	624	
8	0	0	0	0	518	623	
9	0	0	0	0	517	624	
10	0	0	0	0	517	623	
11	0	0	0	0	517	624	
12	0	0	0	0	518	624	
13	0	0	0	0	518	623	
14	0	0	0	0	518	624	
15	0	0	0	0	518	623	
0	0	0	0	0	518	624	
1	0	0	0	0	517	624	
2	0	0	0	0	517	624	
3	0	0	0	0	516	624	
4	0	0	0	0	516	624	
5	0	0	0	0	515	624	
6	0	0	0	0	515	623	
7	0	0	0	0	515	624	
8	0	0	0	0	515	623	
9	0	0	0	0	515	624	
10	0	0	0	0	515	624	
11	0	0	0	0	514	624	
12	0	0	0	0	514	624	
13	0	0	0	0	514	624	
14	0	0	0	0	513	624	
15	0	0	0	0	513	623	
0	0	0	0	0	513	623	
1	0	0	0	0	513	624	
2	0	0	0	0	513	623	
3	0	0	0	0	513	623	
4	0	0	0	0	513	624	
5	0	0	0	0	513	624	
6	0	0	0	0	513	623	
7	0	0	0	0	513	623	
8	0	0	0	0	513	623	
9	0	0	0	0	514	624	
10	0	0	0	0	514	623	
11	0	0	0	0	514	624	
12	0	0	0	0	514	624	
13	0	0	0	0	514	624	
14	0	0	0	0	514	623	
15	0	0	0	0	514	624	
0	0	0	0	0	514	623	
1	0	0	0	0	514	624	
2	0	0	0	0	513	623	
3	0	0	0	0	514	624	
4	0	0	0	0	513	623	
5	0	0	0	0	513	623	
6	0	0	0	0	512	623	
7	0	0	0	0	512	623	
8	0	0	0	0	511	622	
9	0	0	0	0	512	623	
10	0	0	0	0	512	623	
11	0	0	0	0	512	624	
12	0	0	0	0	512	623	
13	0	0	0	0	512	624	
14	0	0	0	0	512	623	
15	0	0	0	0	512	623	
0	0	0	0	0	512	623	
1	0	0	0	0	512	624	
2	0	0	0	0	511	624	
3	0	0	0	0	511	624	
4	0	0	0	0	511	624	
5	0	0	0	0	510	624	
6	0	0	0	0	510	624	
7	0	0	0	0	510	623	
8	0	0	0	0	510	623	
9	0	0	0	0	511	624	
10	0	0	0	0	512	623	
11	0	0	0	0	512	623	
12	0	0	0	0	513	624	
13	0	0	0	0	513	623	
14	0	0	0	0	513	623	
15	0	0	0	0	512	624	
0	0	0	0	0	512	623	
1	0	0	0	0	511	624	
2	0	0	0	0	511	624	
3	0	0	0	0	510	624	
4	0	0	0	0	510	624	
5	0	0	0	0	508	624	
6	0	0	0	0	509	624	
7	0	0	0	0	509	623	
8	0	0	0	0	509	624	
9	0	0	0	0	510	624	
10	0	0	0	0	510	624	
11	0	0	0	0	510	624	
12	0	0	0	0	510	624	
13	0	0	0	0	510	624	
14	0	0	0	0	509	624	
15	0	0	0	0	509	624	
0	0	0	0	0	509	624	
1	0	0	0	0	510	624	
2	0	0	0	0	510	624	
3	0	0	0	0	510	623	
4	0	0	0	0	510	623	
5	0	0	0	0	511	624	
6	0	0	0	0	511	624	
7	0	0	0	0	511	624	
8	0	0	0	0	511	624	
9	0	0	0	0	511	625	
10	0	0	0	0	511	624	
11	0	0	0	0	510	624	
12	0	0	0	0	510	623	
13	0	0	0	0	510	624	
14	0	0	0	0	510	624	
15	0	0	0	0	510	624	
0	0	0	0	0	509	624	
1	0	0	0	0	509	624	
2	0	0	0	0	509	624	
3	0	0	0	0	509	624	
4	0	0	0	0	509	623	
5	0	0	0	0	509	624	
6	0	0	0	0	509	624	
7	0	0	0	0	508	624	
8	0	0	0	0	508	623	
9	0	0	0	0	508	624	
10	0	0	0	0	508	623	
11	0	0	0	0	509	623	
12	0	0	0	0	508	623	
13	0	0	0	0	508	623	
14	0	0	0	0	509	624	
15	0	0	0	0	509	623	
0	0	0	0	0	510	623	
1	0	0	0	0	510	623	
2	0	0	0	0	510	623	
3	0	0	0	0	510	623	
4	0	0	0	0	511	623	
5	0	0	0	0	511	623	
6	0	0	0	0	511	623	
7	0	0	0	0	511	623	
8	0	0	0	0	510	623	
9	0	0	0	0	509	624	
10	0	0	0	0	509	623	
11	0	0	0	0	509	623	
12	0	0	0	0	509	623	
13	0	0	0	0	509	623	
14	0	0	0	0	508	624	
15	0	0	0	0	508	623	
0	0	0	0	0	508	623	
1	0	0	0	0	508	624	
2	0	0	0	0	508	623	
3	0	0	0	0	508	624	
4	0	0	0	0	508	624	
5	0	0	0	0	508	624	
6	0	0	0	0	508	624	
7	0	0	0	0	507	624	
8	0	0	0	0	507	624	
9	0	0	0	0	506	624	
10	0	0	0	0	505	624	
11	0	0	0	0	505	624	
12	0	0	0	0	505	624	
13	0	0	0	0	505	623	
14	0	0	0	0	505	624	
15	0	0	0	0	505	623	
0	0	0	0	0	505	623	
1	0	0	0	0	504	624	
2	0	0	0	0	504	623	
3	0	0	0	0	504	624	
4	0	0	0	0	504	624	
5	0	0	0	0	504	624	
6	0	0	0	0	504	624	
7	0	0	0	0	504	624	
8	0	0	0	0	504	624	
9	0	0	0	0	504	624	
10	0	0	0	0	504	623	
11	0	0	0	0	504	624	
12	0	0	0	0	504	623	
13	0	0	0	0	504	623	
14	0	0	0	0	503	624	
15	0	0	0	0	503	623	
0	0	0	0	0	503	624	
1	0	0	0	0	502	624	
2	0	0	0	0	503	623	
3	0	0	0	0	504	624	
4	0	0	0	0	505	624	
5	0	0	0	0	507	624	
6	0	0	0	0	507	624	
7	0	0	0	0	508	624	
8	0	0	0	0	509	624	
9	0	0	0	0	509	624	
10	0	0	0	0	509	624	
11	0	0	0	0	509	624	
12	0	0	0	0	510	623	
13	0	0	0	0	511	624	
14	0	0	0	0	511	624	
15	0	0	0	0	512	623	
0	0	0	0	0	512	624	
1	0	0	0	0	512	624	
2	0	0	0	0	511	623	
3	0	0	0	0	512	623	
4	0	0	0	0	511	623	
5	0	0	0	0	512	623	
6	0	0	0	0	511	623	
7	0	0	0	0	511	623	
8	0	0	0	0	510	624	
9	0	0	0	0	510	624	
10	0	0	0	0	510	623	
11	0	0	0	0	509	623	
12	0	0	0	0	509	623	
13	0	0	0	0	509	623	
14	0	0	0	0	509	623	
15	0	0	0	0	508	623	
0	0	0	0	0	508	623	
1	0	0	0	0	508	624	
2	0	0	0	0	508	623	
3	0	0	0	0	509	623	
4	0	0	0	0	509	623	
5	0	0	0	0	509	624	
6	0	0	0	0	509	624	
7	0	0	0	0	509	624	
8	0	0	0	0	509	623	
9	0	0	0	0	510	624	
10	0	0	0	0	510	623	
11	0	0	0	0	510	624	
12	0	0	0	0	509	624	
13	0	0	0	0	510	624	
14	0	0	0	0	510	624	
15	0	0	0	0	510	624	
0	0	0	0	0	510	624	
1	0	0	0	0	510	623	
2	0	0	0	0	510	624	
3	0	0	0	0	510	624	
4	0	0	0	0	510	623	
5	0	0	0	0	509	624	
6	0	0	0	0	509	623	
7	0	0	0	0	509	623	
8	0	0	0	0	509	624	
9	0	0	0	0	508	624	
10	0	0	0	0	508	624	
11	0	0	0	0	508	623	
12	0	0	0	0	508	623	
13	0	0	0	0	508	623	
14	0	0	0	0	509	623	
15	0	0	0	0	509	623	
0	0	0	0	0	509	623	
1	0	0	0	0	510	623	
2	0	0	0	0	509	623	
3	0	0	0	0	509	624	
4	0	0	0	0	509	623	
5	0	0	0	0	509	623	
6	0	0	0	0	509	623	
7	0	0	0	0	509	624	
8	0	0	0	0	510	623	
9	0	0	0	0	510	624	
10	0	0	0	0	509	624	
11	0	0	0	0	509	624	
12	0	0	0	0	508	624	
13	0	0	0	0	508	624	
14	0	0	0	0	509	624	
15	0	0	0	0	509	623	
0	0	0	0	0	509	624	
1	0	0	0	0	509	624	
2	0	0	0	0	509	623	
3	0	0	0	0	508	624	
4	0	0	0	0	508	623	
5	0	0	0	0	508	624	
6	0	0	0	0	508	623	
7	0	0	0	0	507	623	
8	0	0	0	0	507	623	
9	0	0	0	0	507	623	
10	0	0	0	0	507	623	
11	0	0	0	0	507	623	
12	0	0	0	0	507	623	
13	0	0	0	0	507	624	
14	0	0	0	0	506	624	
15	0	0	0	0	505	624	
0	0	0	0	0	504	623	
1	0	0	0	0	503	624	
2	0	0	0	0	502	624	
3	0	0	0	0	500	623	
4	0	0	0	0	498	624	
5	0	0	0	0	494	624	
6	0	0	0	0	489	624	
7	0	0	0	0	482	623	
8	0	0	0	0	474	623	
9	0	0	0	0	465	624	
10	0	0	0	0	456	623	
11	0	0	0	0	447	623	
12	0	0	0	0	439	623	
13	0	0	0	0	431	623	
14	0	0	0	0	423	623	
15	0	0	0	0	417	623	
0	0	0	0	0	413	623	
1	0	0	0	0	411	624	
2	0	0	0	0	411	624	
3	0	0	0	0	412	623	
4	0	0	0	0	415	623	
5	0	0	0	0	419	624	
6	0	0	0	0	425	623	
7	0	0	0	0	431	624	
8	0	0	0	0	438	624	
9	0	0	0	0	444	624	
10	0	0	0	0	450	624	
11	0	0	0	0	456	623	
12	0	0	0	0	463	623	
13	0	0	0	0	471	624	
14	0	0	0	0	483	623	
15	0	0	0	0	500	623	
0	0	0	0	0	522	624	
1	0	0	0	0	545	624	
2	0	0	0	0	572	623	
3	0	0	0	0	603	624	
4	0	0	0	0	639	624	
5	0	0	0	0	677	624	
6	0	0	0	0	720	623	
7	0	0	0	0	761	624	
8	0	0	0	0	798	624	
9	0	0	0	0	829	624	
10	0	0	0	0	855	623	
11	0	0	0	0	873	624	
12	0	0	0	0	886	624	
13	0	0	0	0	892	624	
14	0	0	0	0	893	623	
15	0	0	0	0	890	623	
0	0	0	0	0	886	623	
1	0	0	0	0	878	623	
2	0	0	0	0	868	623	
3	0	0	0	0	857	624	
4	0	0	0	0	843	623	
5	0	0	0	0	825	623	
6	0	0	0	0	806	624	
7	0	0	0	0	784	624	
8	0	0	0	0	760	623	
9	0	0	0	0	737	624	
10	0	0	0	0	716	624	
11	0	0	0	0	696	623	
12	0	0	0	0	679	624	
13	0	0	0	0	662	624	
14	0	0	0	0	646	624	
15	0	0	0	0	631	624	
0	0	0	0	0	618	624	
1	0	0	0	0	606	624	
2	0	0	0	0	595	624	
3	0	0	0	0	585	624	
4	0	0	0	0	575	624	
5	0	0	0	0	564	624	
6	0	0	0	0	554	624	
7	0	0	0	0	543	624	
8	0	0	0	0	531	624	
9	0	0	0	0	520	624	
10	0	0	0	0	510	624	
11	0	0	0	0	499	624	
12	0	0	0	0	491	624	
13	0	0	0	0	482	624	
14	0	0	0	0	475	624	
15	0	0	0	0	468	624	
0	0	0	0	0	461	625	
1	0	0	0	0	455	624	
2	0	0	0	0	449	624	
3	0	0	0	0	445	624	
4	0	0	0	0	441	624	
5	0	0	0	0	438	624	
6	0	0	0	0	434	624	
7	0	0	0	0	431	624	
8	0	0	0	0	429	624	
9	0	0	0	0	427	624	
10	0	0	0	0	425	624	
11	0	0	0	0	423	624	
12	0	0	0	0	423	624	
13	0	0	0	0	421	624	
14	0	0	0	0	421	623	
15	0	0	0	0	421	624	
0	0	0	0	0	420	623	
1	0	0	0	0	419	624	
2	0	0	0	0	419	623	
3	0	0	0	0	418	624	
4	0	0	0	0	419	623	
5	0	0	0	0	418	623	
6	0	0	0	0	418	623	
7	0	0	0	0	418	623	
8	0	0	0	0	418	623	
9	0	0	0	0	418	623	
10	0	0	0	0	418	623	
11	0	0	0	0	419	623	
12	0	0	0	0	418	623	
13	0	0	0	0	418	623	
14	0	0	0	0	418	623	
15	0	0	0	0	419	623	
0	0	0	0	0	420	624	
1	0	0	0	0	420	624	
2	0	0	0	0	420	623	
3	0	0	0	0	421	623	
4	0	0	0	0	422	623	
5	0	0	0	0	422	623	
6	0	0	0	0	422	623	
7	0	0	0	0	423	623	
8	0	0	0	0	423	623	
9	0	0	0	0	423	624	
10	0	0	0	0	424	623	
11	0	0	0	0	426	624	
12	0	0	0	0	427	624	
13	0	0	0	0	427	624	
14	0	0	0	0	428	623	
15	0	0	0	0	428	623	
0	0	0	0	0	428	623	
1	0	0	0	0	429	624	
2	0	0	0	0	429	623	
3	0	0	0	0	430	623	
4	0	0	0	0	431	623	
5	0	0	0	0	431	623	
6	0	0	0	0	432	623	
7	0	0	0	0	432	624	
8	0	0	0	0	432	623	
9	0	0	0	0	433	624	
10	0	0	0	0	433	624	
11	0	0	0	0	434	624	
12	0	0	0	0	435	624	
13	0	0	0	0	435	623	
14	0	0	0	0	436	624	
15	0	0	0	0	437	624	
0	0	0	0	0	438	624	
1	0	0	0	0	438	624	
2	0	0	0	0	439	624	
3	0	0	0	0	439	624	
4	0	0	0	0	439	623	
5	0	0	0	0	439	624	
6	0	0	0	0	439	624	
7	0	0	0	0	439	624	
8	0	0	0	0	439	624	
9	0	0	0	0	439	624	
10	0	0	0	0	440	624	
11	0	0	0	0	440	624	
12	0	0	0	0	441	624	
13	0	0	0	0	441	625	
14	0	0	0	0	442	624	
15	0	0	0	0	443	624	
0	0	0	0	0	443	623	
1	0	0	0	0	444	623	
2	0	0	0	0	444	623	
3	0	0	0	0	444	623	
4	0	0	0	0	445	623	
5	0	0	0	0	445	624	
6	0	0	0	0	446	623	
7	0	0	0	0	446	623	
8	0	0	0	0	445	623	
9	0	0	0	0	446	624	
10	0	0	0	0	445	623	
11	0	0	0	0	446	623	
12	0	0	0	0	445	624	
13	0	0	0	0	446	623	
14	0	0	0	0	446	624	
15	0	0	0	0	446	623	
0	0	0	0	0	447	623	
1	0	0	0	0	447	624	
2	0	0	0	0	447	623	
3	0	0	0	0	447	623	
4	0	0	0	0	447	623	
5	0	0	0	0	447	623	
6	0	0	0	0	448	623	
7	0	0	0	0	449	623	
8	0	0	0	0	450	624	
9	0	0	0	0	450	624	
10	0	0	0	0	450	624	
11	0	0	0	0	450	623	
12	0	0	0	0	450	624	
13	0	0	0	0	450	623	
14	0	0	0	0	449	624	
15	0	0	0	0	449	624	
0	0	0	0	0	449	624	
1	0	0	0	0	448	624	
2	0	0	0	0	448	624	
3	0	0	0	0	449	623	
4	0	0	0	0	449	623	
5	0	0	0	0	449	624	
6	0	0	0	0	449	624	
7	0	0	0	0	450	624	
8	0	0	0	0	450	624	
9	0	0	0	0	450	625	
10	0	0	0	0	451	624	
11	0	0	0	0	451	624	
12	0	0	0	0	451	624	
13	0	0	0	0	451	625	
14	0	0	0	0	451	624	
15	0	0	0	0	452	624	
0	0	0	0	0	451	624	
1	0	0	0	0	451	625	
2	0	0	0	0	451	624	
3	0	0	0	0	451	624	
4	0	0	0	0	452	625	
5	0	0	0	0	452	624	
6	0	0	0	0	452	624	
7	0	0	0	0	452	624	
8	0	0	0	0	453	623	
9	0	0	0	0	453	624	
10	0	0	0	0	454	624	
11	0	0	0	0	454	624	
12	0	0	0	0	455	624	
13	0	0	0	0	455	625	
14	0	0	0	0	455	624	
15	0	0	0	0	456	624	
0	0	0	0	0	458	624	
1	0	0	0	0	459	624	
2	0	0	0	0	459	624	
3	0	0	0	0	460	624	
4	0	0	0	0	460	624	
5	0	0	0	0	460	624	
6	0	0	0	0	461	623	
7	0	0	0	0	462	624	
8	0	0	0	0	462	624	
9	0	0	0	0	463	624	
10	0	0	0	0	463	624	
11	0	0	0	0	464	623	
12	0	0	0	0	465	623	
13	0	0	0	0	467	624	
14	0	0	0	0	467	623	
15	0	0	0	0	469	624	
0	0	0	0	0	470	624	
1	0	0	0	0	471	624	
2	0	0	0	0	471	624	
3	0	0	0	0	472	624	
4	0	0	0	0	474	624	
5	0	0	0	0	475	624	
6	0	0	0	0	475	623	
7	0	0	0	0	476	623	
8	0	0	0	0	476	623	
9	0	0	0	0	478	623	
10	0	0	0	0	479	623	
11	0	0	0	0	480	623	
12	0	0	0	0	481	623	
13	0	0	0	0	483	623	
14	0	0	0	0	484	623	
15	0	0	0	0	486	623	
0	0	0	0	0	488	623	
1	0	0	0	0	489	624	
2	0	0	0	0	489	622	
3	0	0	0	0	491	623	
4	0	0	0	0	492	622	
5	0	0	0	0	492	623	
6	0	0	0	0	493	623	
7	0	0	0	0	495	623	
8	0	0	0	0	496	623	
9	0	0	0	0	497	623	
10	0	0	0	0	498	623	
11	0	0	0	0	499	623	
12	0	0	0	0	500	623	
13	0	0	0	0	502	623	
14	0	0	0	0	503	623	
15	0	0	0	0	504	622	
0	0	0	0	0	505	622	
1	0	0	0	0	506	623	
2	0	0	0	0	508	623	
3	0	0	0	0	508	623	
4	0	0	0	0	509	623	
5	0	0	0	0	509	623	
6	0	0	0	0	510	623	
7	0	0	0	0	511	624	
8	0	0	0	0	512	623	
9	0	0	0	0	513	624	
10	0	0	0	0	514	623	
11	0	0	0	0	514	624	
12	0	0	0	0	514	624	
13	0	0	0	0	514	624	
14	0	0	0	0	515	623	
15	0	0	0	0	515	623	
0	0	0	0	0	515	623	
1	0	0	0	0	515	623	
2	0	0	0	0	515	624	
3	0	0	0	0	516	623	
4	0	0	0	0	517	624	
5	0	0	0	0	517	624	
6	0	0	0	0	516	624	
7	0	0	0	0	515	623	
8	0	0	0	0	515	624	
9	0	0	0	0	515	625	
10	0	0	0	0	515	623	
11	0	0	0	0	515	623	
12	0	0	0	0	515	624	
13	0	0	0	0	515	624	
14	0	0	0	0	514	624	
15	0	0	0	0	514	624	
0	0	0	0	0	515	624	
1	0	0	0	0	515	624	
2	0	0	0	0	514	624	
3	0	0	0	0	514	624	
4	0	0	0	0	514	624	
5	0	0	0	0	514	624	
6	0	0	0	0	513	624	
7	0	0	0	0	513	624	
8	0	0	0	0	512	624	
9	0	0	0	0	512	624	
10	0	0	0	0	511	624	
11	0	0	0	0	511	624	
12	0	0	0	0	511	624	
13	0	0	0	0	511	625	
14	0	0	0	0	511	624	
15	0	0	0	0	511	624	
0	0	0	0	0	511	624	
1	0	0	0	0	510	625	
2	0	0	0	0	510	624	
3	0	0	0	0	510	624	
4	0	0	0	0	510	624	
5	0	0	0	0	510	624	
6	0	0	0	0	510	624	
7	0	0	0	0	510	624	
8	0	0	0	0	509	624	
9	0	0	0	0	509	625	
10	0	0	0	0	509	624	
11	0	0	0	0	509	624	
12	0	0	0	0	509	624	
13	0	0	0	0	508	624	
14	0	0	0	0	509	624	
15	0	0	0	0	509	624	
0	0	0	0	0	509	624	
1	0	0	0	0	510	624	
2	0	0	0	0	510	624	
3	0	0	0	0	511	624	
4	0	0	0	0	511	624	
5	0	0	0	0	511	624	
6	0	0	0	0	511	624	
7	0	0	0	0	511	624	
8	0	0	0	0	510	624	
9	0	0	0	0	509	624	
10	0	0	0	0	508	623	
11	0	0	0	0	508	624	
12	0	0	0	0	508	624	
13	0	0	0	0	508	623	
14	0	0	0	0	508	624	
15	0	0	0	0	510	624	
0	0	0	0	0	510	624	
1	0	0	0	0	510	624	
2	0	0	0	0	511	623	
3	0	0	0	0	510	623	
4	0	0	0	0	510	624	
5	0	0	0	0	509	624	
6	0	0	0	0	509	624	
7	0	0	0	0	510	624	
8	0	0	0	0	510	624	
9	0	0	0	0	511	624	
10	0	0	0	0	511	624	
11	0	0	0	0	511	624	
12	0	0	0	0	512	623	
13	0	0	0	0	512	624	
14	0	0	0	0	512	624	
15	0	0	0	0	512	623	
0	0	0	0	0	512	623	
1	0	0	0	0	512	624	
2	0	0	0	0	511	623	
3	0	0	0	0	511	623	
4	0	0	0	0	512	623	
5	0	0	0	0	512	624	
6	0	0	0	0	512	623	
7	0	0	0	0	512	623	
8	0	0	0	0	512	624	
9	0	0	0	0	512	623	
10	0	0	0	0	512	623	
11	0	0	0	0	512	623	
12	0	0	0	0	512	623	
13	0	0	0	0	511	623	
14	0	0	0	0	511	623	
15	0	0	0	0	511	623	
0	0	0	0	0	511	623	
1	0	0	0	0	511	623	
2	0	0	0	0	511	623	
3	0	0	0	0	511	623	
4	0	0	0	0	511	623	
5	0	0	0	0	511	624	
6	0	0	0	0	511	624	
7	0	0	0	0	511	623	
8	0	0	0	0	511	624	
9	0	0	0	0	511	624	
10	0	0	0	0	511	623	
11	0	0	0	0	511	624	
12	0	0	0	0	511	623	
13	0	0	0	0	510	624	
14	0	0	0	0	510	623	
15	0	0	0	0	510	623	
0	0	0	0	0	510	623	
1	0	0	0	0	510	624	
2	0	0	0	0	510	623	
3	0	0	0	0	510	624	
4	0	0	0	0	511	624	
5	0	0	0	0	511	624	
6	0	0	0	0	511	624	
7	0	0	0	0	511	624	
8	0	0	0	0	510	624	
9	0	0	0	0	511	624	
10	0	0	0	0	511	624	
11	0	0	0	0	511	624	
12	0	0	0	0	512	624	
13	0	0	0	0	512	624	
14	0	0	0	0	511	624	
15	0	0	0	0	511	624	
0	0	0	0	0	511	623	
1	0	0	0	0	511	624	
2	0	0	0	0	511	624	
3	0	0	0	0	511	623	
4	0	0	0	0	511	624	
5	0	0	0	0	511	624	
6	0	0	0	0	511	624	
7	0	0	0	0	511	624	
8	0	0	0	0	511	623	
9	0	0	0	0	510	624	
10	0	0	0	0	510	624	
11	0	0	0	0	510	624	
12	0	0	0	0	509	623	
13	0	0	0	0	508	624	
14	0	0	0	0	508	623	
15	0	0	0	0	507	624	
0	0	0	0	0	507	624	
1	0	0	0	0	507	624	
2	0	0	0	0	507	624	
3	0	0	0	0	507	624	
4	0	0	0	0	507	623	
5	0	0	0	0	508	624	
6	0	0	0	0	508	623	
7	0	0	0	0	508	624	
8	0	0	0	0	509	623	
9	0	0	0	0	508	624	
10	0	0	0	0	508	623	
11	0	0	0	0	508	623	
12	0	0	0	0	508	623	
13	0	0	0	0	508	624	
14	0	0	0	0	508	623	
15	0	0	0	0	509	623	
0	0	0	0	0	509	622	
1	0	0	0	0	510	623	
2	0	0	0	0	510	623	
3	0	0	0	0	510	623	
4	0	0	0	0	511	622	
5	0	0	0	0	511	622	
6	0	0	0	0	511	623	
7	0	0	0	0	512	623	
8	0	0	0	0	512	622	
9	0	0	0	0	512	623	
10	0	0	0	0	511	623	
11	0	0	0	0	512	623	
12	0	0	0	0	511	623	
13	0	0	0	0	510	623	
14	0	0	0	0	511	623	
15	0	0	0	0	511	623	
0	0	0	0	0	511	623	
1	0	0	0	0	510	624	
2	0	0	0	0	510	623	
3	0	0	0	0	511	624	
4	0	0	0	0	511	623	
5	0	0	0	0	511	624	
6	0	0	0	0	511	624	
7	0	0	0	0	511	624	
8	0	0	0	0	511	624	
9	0	0	0	0	512	624	
10	0	0	0	0	512	624	
11	0	0	0	0	512	624	
12	0	0	0	0	512	624	
13	0	0	0	0	513	624	
14	0	0	0	0	513	624	
15	0	0	0	0	513	624	
0	0	0	0	0	513	624	
1	0	0	0	0	514	624	
2	0	0	0	0	514	624	
3	0	0	0	0	514	624	
4	0	0	0	0	514	624	
5	0	0	0	0	515	624	
6	0	0	0	0	515	624	
7	0	0	0	0	515	624	
8	0	0	0	0	515	624	
9	0	0	0	0	515	625	
10	0	0	0	0	515	624	
11	0	0	0	0	515	624	
12	0	0	0	0	515	625	
13	0	0	0	0	514	624	
14	0	0	0	0	514	623	
15	0	0	0	0	514	624	
0	0	0	0	0	514	624	
1	0	0	0	0	515	624	
2	0	0	0	0	515	624	
3	0	0	0	0	515	624	
4	0	0	0	0	515	623	
5	0	0	0	0	515	624	
6	0	0	0	0	515	624	
7	0	0	0	0	516	624	
8	0	0	0	0	516	624	
9	0	0	0	0	516	624	
10	0	0	0	0	516	624	
11	0	0	0	0	516	624	
12	0	0	0	0	516	623	
13	0	0	0	0	517	623	
14	0	0	0	0	517	623	
15	0	0	0	0	517	623	
0	0	0	0	0	517	623	
1	0	0	0	0	516	624	
2	0	0	0	0	516	624	
3	0	0	0	0	515	624	
4	0	0	0	0	515	624	
5	0	0	0	0	515	624	
6	0	0	0	0	516	624	
7	0	0	0	0	516	623	
8	0	0	0	0	516	624	
9	0	0	0	0	517	623	
10	0	0	0	0	517	624	
11	0	0	0	0	517	624	
12	0	0	0	0	517	624	
13	0	0	0	0	516	623	
14	0	0	0	0	516	624	
15	0	0	0	0	515	624	
0	0	0	0	0	515	623	
1	0	0	0	0	515	624	
2	0	0	0	0	515	623	
3	0	0	0	0	515	623	
4	0	0	0	0	515	623	
5	0	0	0	0	514	623	
6	0	0	0	0	515	623	
7	0	0	0	0	515	623	
8	0	0	0	0	515	623	
9	0	0	0	0	515	623	
10	0	0	0	0	515	623	
11	0	0	0	0	515	623	
12	0	0	0	0	515	623	
13	0	0	0	0	515	623	
14	0	0	0	0	514	624	
15	0	0	0	0	514	623	
0	0	0	0	0	514	623	
1	0	0	0	0	513	623	
2	0	0	0	0	513	623	
3	0	0	0	0	513	624	
4	0	0	0	0	513	623	
5	0	0	0	0	514	624	
6	0	0	0	0	514	623	
7	0	0	0	0	514	623	
8	0	0	0	0	515	623	
9	0	0	0	0	515	624	
10	0	0	0	0	516	623	
11	0	0	0	0	516	623	
12	0	0	0	0	516	623	
13	0	0	0	0	516	624	
14	0	0	0	0	515	623	
15	0	0	0	0	515	623	
0	0	0	0	0	515	623	
1	0	0	0	0	515	624	
2	0	0	0	0	515	624	
3	0	0	0	0	515	623	
4	0	0	0	0	515	624	
5	0	0	0	0	515	624	
6	0	0	0	0	515	623	
7	0	0	0	0	514	624	
8	0	0	0	0	514	623	
9	0	0	0	0	514	624	
10	0	0	0	0	514	624	
11	0	0	0	0	513	624	
12	0	0	0	0	513	624	
13	0	0	0	0	513	624	
14	0	0	0	0	514	624	
15	0	0	0	0	514	624	
0	0	0	0	0	514	623	
1	0	0	0	0	514	624	
2	0	0	0	0	514	624	
3	0	0	0	0	515	623	
4	0	0	0	0	514	624	
5	0	0	0	0	514	624	
6	0	0	0	0	514	624	
7	0	0	0	0	514	624	
8	0	0	0	0	514	624	
9	0	0	0	0	515	624	
10	0	0	0	0	515	624	
11	0	0	0	0	514	624	
12	0	0	0	0	515	624	
13	0	0	0	0	514	624	
14	0	0	0	0	514	624	
15	0	0	0	0	513	624	
0	0	0	0	0	512	623	
1	0	0	0	0	512	623	
2	0	0	0	0	512	623	
3	0	0	0	0	513	623	
4	0	0	0	0	513	623	
5	0	0	0	0	513	623	
6	0	0	0	0	513	623	
7	0	0	0	0	514	623	
8	0	0	0	0	513	623	
9	0	0	0	0	513	623	
10	0	0	0	0	513	623	
11	0	0	0	0	512	622	
12	0	0	0	0	512	623	
13	0	0	0	0	512	623	
14	0	0	0	0	512	623	
15	0	0	0	0	512	623	
0	0	0	0	0	513	623	
1	0	0	0	0	513	623	
2	0	0	0	0	513	623	
3	0	0	0	0	512	623	
4	0	0	0	0	512	623	
5	0	0	0	0	512	624	
6	0	0	0	0	513	624	
7	0	0	0	0	513	624	
8	0	0	0	0	513	624	
9	0	0	0	0	513	624	
10	0	0	0	0	514	623	
11	0	0	0	0	514	624	
12	0	0	0	0	514	624	
13	0	0	0	0	514	624	
14	0	0	0	0	514	624	
15	0	0	0	0	513	624	
0	0	0	0	0	514	624	
1	0	0	0	0	513	624	
2	0	0	0	0	513	624	
3	0	0	0	0	512	624	
4	0	0	0	0	512	625	
5	0	0	0	0	512	624	
6	0	0	0	0	512	624	
7	0	0	0	0	512	624	
8	0	0	0	0	511	624	
9	0	0	0	0	511	625	
10	0	0	0	0	511	624	
11	0	0	0	0	511	624	
12	0	0	0	0	511	624	
13	0	0	0	0	511	624	
14	0	0	0	0	510	624	
15	0	0	0	0	510	624	
0	0	0	0	0	510	624	
1	0	0	0	0	510	624	
2	0	0	0	0	509	624	
3	0	0	0	0	508	624	
4	0	0	0	0	509	624	
5	0	0	0	0	509	624	
6	0	0	0	0	509	624	
7	0	0	0	0	509	624	
8	0	0	0	0	508	624	
9	0	0	0	0	509	624	
10	0	0	0	0	509	624	
11	0	0	0	0	509	624	
12	0	0	0	0	508	624	
13	0	0	0	0	508	624	
14	0	0	0	0	508	624	
15	0	0	0	0	508	624	
0	0	0	0	0	508	623	
1	0	0	0	0	508	624	
2	0	0	0	0	508	623	
3	0	0	0	0	508	623	
4	0	0	0	0	508	624	
5	0	0	0	0	508	623	
6	0	0	0	0	509	623	
7	0	0	0	0	509	624	
8	0	0	0	0	509	624	
9	0	0	0	0	508	624	
10	0	0	0	0	509	623	
11	0	0	0	0	509	624	
12	0	0	0	0	509	623	
13	0	0	0	0	509	624	
14	0	0	0	0	509	624	
15	0	0	0	0	508	624	
0	0	0	0	0	507	623	
1	0	0	0	0	506	624	
2	0	0	0	0	506	624	
3	0	0	0	0	506	623	
4	0	0	0	0	507	623	
5	0	0	0	0	507	624	
6	0	0	0	0	508	623	
7	0	0	0	0	508	623	
8	0	0	0	0	508	623	
9	0	0	0	0	508	624	
10	0	0	0	0	508	624	
11	0	0	0	0	509	624	
12	0	0	0	0	508	623	
13	0	0	0	0	509	624	
14	0	0	0	0	508	624	
15	0	0	0	0	509	624	
0	0	0	0	0	510	624	
1	0	0	0	0	511	624	
2	0	0	0	0	511	624	
3	0	0	0	0	511	624	
4	0	0	0	0	512	623	
5	0	0	0	0	513	624	
6	0	0	0	0	513	623	
7	0	0	0	0	513	623	
8	0	0	0	0	513	623	
9	0	0	0	0	513	624	
10	0	0	0	0	513	624	
11	0	0	0	0	514	623	
12	0	0	0	0	514	623	
13	0	0	0	0	513	624	
14	0	0	0	0	513	623	
15	0	0	0	0	513	623	
0	0	0	0	0	513	623	
1	0	0	0	0	514	624	
2	0	0	0	0	513	623	
3	0	0	0	0	513	624	
4	0	0	0	0	513	624	
5	0	0	0	0	513	624	
6	0	0	0	0	513	623	
7	0	0	0	0	514	624	
8	0	0	0	0	514	624	
9	0	0	0	0	513	624	
10	0	0	0	0	513	624	
11	0	0	0	0	513	624	
12	0	0	0	0	513	624	
13	0	0	0	0	512	624	
14	0	0	0	0	512	624	
15	0	0	0	0	511	624	
0	0	0	0	0	512	624	
1	0	0	0	0	512	624	
2	0	0	0	0	511	623	
3	0	0	0	0	511	623	
4	0	0	0	0	511	623	
5	0	0	0	0	511	623	
6	0	0	0	0	511	624	
7	0	0	0	0	510	624	
8	0	0	0	0	510	624	
9	0	0	0	0	509	624	
10	0	0	0	0	509	623	
11	0	0	0	0	509	624	
12	0	0	0	0	508	624	
13	0	0	0	0	508	624	
14	0	0	0	0	508	624	
15	0	0	0	0	508	624	
0	0	0	0	0	507	624	
1	0	0	0	0	508	624	
2	0	0	0	0	507	623	
3	0	0	0	0	508	624	
4	0	0	0	0	508	624	
5	0	0	0	0	508	624	
6	0	0	0	0	508	624	
7	0	0	0	0	508	624	
8	0	0	0	0	508	624	
9	0	0	0	0	508	624	
10	0	0	0	0	508	624	
11	0	0	0	0	508	624	
12	0	0	0	0	508	624	
13	0	0	0	0	507	624	
14	0	0	0	0	507	624	
15	0	0	0	0	506	624	
0	0	0	0	0	505	624	
1	0	0	0	0	506	623	
2	0	0	0	0	505	624	
3	0	0	0	0	506	624	
4	0	0	0	0	506	624	
5	0	0	0	0	506	624	
6	0	0	0	0	507	624	
7	0	0	0	0	507	623	
8	0	0	0	0	507	623	
9	0	0	0	0	507	623	
10	0	0	0	0	506	623	
11	0	0	0	0	507	623	
12	0	0	0	0	507	624	
13	0	0	0	0	507	624	
14	0	0	0	0	507	624	
15	0	0	0	0	507	624	
0	0	0	0	0	507	624	
1	0	0	0	0	506	624	
2	0	0	0	0	507	624	
3	0	0	0	0	507	624	
4	0	0	0	0	507	624	
5	0	0	0	0	507	624	
6	0	0	0	0	507	623	
7	0	0	0	0	507	623	
8	0	0	0	0	506	623	
9	0	0	0	0	506	624	
10	0	0	0	0	505	624	
11	0	0	0	0	504	624	
12	0	0	0	0	503	624	
13	0	0	0	0	502	624	
14	0	0	0	0	499	623	
15	0	0	0	0	496	624	
0	0	0	0	0	492	624	
1	0	0	0	0	486	624	
2	0	0	0	0	479	624	
3	0	0	0	0	471	624	
4	0	0	0	0	462	623	
5	0	0	0	0	454	623	
6	0	0	0	0	444	623	
7	0	0	0	0	436	623	
8	0	0	0	0	428	623	
9	0	0	0	0	421	624	
10	0	0	0	0	415	624	
11	0	0	0	0	411	623	
12	0	0	0	0	409	623	
13	0	0	0	0	409	624	
14	0	0	0	0	410	624	
15	0	0	0	0	413	623	
0	0	0	0	0	417	624	
1	0	0	0	0	423	624	
2	0	0	0	0	430	624	
3	0	0	0	0	438	624	
4	0	0	0	0	445	624	
5	0	0	0	0	451	623	
6	0	0	0	0	459	624	
7	0	0	0	0	464	624	
8	0	0	0	0	471	623	
9	0	0	0	0	480	623	
10	0	0	0	0	496	623	
11	0	0	0	0	516	623	
12	0	0	0	0	540	623	
13	0	0	0	0	564	624	
14	0	0	0	0	593	624	
15	0	0	0	0	627	624	
0	0	0	0	0	665	623	
1	0	0	0	0	706	624	
2	0	0	0	0	747	623	
3	0	0	0	0	784	624	
4	0	0	0	0	816	623	
5	0	0	0	0	843	624	
6	0	0	0	0	866	623	
7	0	0	0	0	881	624	
8	0	0	0	0	889	624	
9	0	0	0	0	890	624	
10	0	0	0	0	887	624	
11	0	0	0	0	881	623	
12	0	0	0	0	873	624	
13	0	0	0	0	862	624	
14	0	0	0	0	849	624	
15	0	0	0	0	833	623	
0	0	0	0	0	816	624	
1	0	0	0	0	795	624	
2	0	0	0	0	771	624	
3	0	0	0	0	747	624	
4	0	0	0	0	724	624	
5	0	0	0	0	702	624	
6	0	0	0	0	681	624	
7	0	0	0	0	663	623	
8	0	0	0	0	647	624	
9	0	0	0	0	632	624	
10	0	0	0	0	620	623	
11	0	0	0	0	609	623	
12	0	0	0	0	600	623	
13	0	0	0	0	591	624	
14	0	0	0	0	582	624	
15	0	0	0	0	572	624	
0	0	0	0	0	563	624	
1	0	0	0	0	554	624	
2	0	0	0	0	545	624	
3	0	0	0	0	536	623	
4	0	0	0	0	524	623	
5	0	0	0	0	515	623	
6	0	0	0	0	507	623	
7	0	0	0	0	498	624	
8	0	0	0	0	491	624	
9	0	0	0	0	483	624	
10	0	0	0	0	477	623	
11	0	0	0	0	471	624	
12	0	0	0	0	465	623	
13	0	0	0	0	460	623	
14	0	0	0	0	454	623	
15	0	0	0	0	449	622	
0	0	0	0	0	444	623	
1	0	0	0	0	441	624	
2	0	0	0	0	438	623	
3	0	0	0	0	435	624	
4	0	0	0	0	434	623	
5	0	0	0	0	433	623	
6	0	0	0	0	432	623	
7	0	0	0	0	431	623	
8	0	0	0	0	430	623	
9	0	0	0	0	428	623	
10	0	0	0	0	427	623	
11	0	0	0	0	426	623	
12	0	0	0	0	426	623	
13	0	0	0	0	426	623	
14	0	0	0	0	425	623	
15	0	0	0	0	425	623	
0	0	0	0	0	425	623	
1	0	0	0	0	426	623	
2	0	0	0	0	426	623	
3	0	0	0	0	425	623	
4	0	0	0	0	425	623	
5	0	0	0	0	425	623	
6	0	0	0	0	425	624	
7	0	0	0	0	426	624	
8	0	0	0	0	426	624	
9	0	0	0	0	425	624	
10	0	0	0	0	425	624	
11	0	0	0	0	425	624	
12	0	0	0	0	426	623	
13	0	0	0	0	427	624	
14	0	0	0	0	428	624	
15	0	0	0	0	429	624	
0	0	0	0	0	429	624	
1	0	0	0	0	429	624	
2	0	0	0	0	429	623	
3	0	0	0	0	431	623	
4	0	0	0	0	432	624	
5	0	0	0	0	432	623	
6	0	0	0	0	433	624	
7	0	0	0	0	433	623	
8	0	0	0	0	435	623	
9	0	0	0	0	434	624	
10	0	0	0	0	435	624	
11	0	0	0	0	435	623	
12	0	0	0	0	435	624	
13	0	0	0	0	436	623	
14	0	0	0	0	436	623	
15	0	0	0	0	437	624	
0	0	0	0	0	438	624	
1	0	0	0	0	438	624	
2	0	0	0	0	438	624	
3	0	0	0	0	439	623	
4	0	0	0	0	439	624	
5	0	0	0	0	440	624	
6	0	0	0	0	440	623	
7	0	0	0	0	441	625	
8	0	0	0	0	441	624	
9	0	0	0	0	442	625	
10	0	0	0	0	442	624	
11	0	0	0	0	443	624	
12	0	0	0	0	444	624	
13	0	0	0	0	444	624	
14	0	0	0	0	445	624	
15	0	0	0	0	445	623	
0	0	0	0	0	445	623	
1	0	0	0	0	445	624	
2	0	0	0	0	445	624	
3	0	0	0	0	445	624	
4	0	0	0	0	446	624	
5	0	0	0	0	446	624	
6	0	0	0	0	446	624	
7	0	0	0	0	446	624	
8	0	0	0	0	447	623	
9	0	0	0	0	447	624	
10	0	0	0	0	448	623	
11	0	0	0	0	448	623	
12	0	0	0	0	449	623	
13	0	0	0	0	449	624	
14	0	0	0	0	450	624	
15	0	0	0	0	450	624	
0	0	0	0	0	451	624	
1	0	0	0	0	452	624	
2	0	0	0	0	452	623	
3	0	0	0	0	453	623	
4	0	0	0	0	453	624	
5	0	0	0	0	453	624	
6	0	0	0	0	454	624	
7	0	0	0	0	454	624	
8	0	0	0	0	453	623	
9	0	0	0	0	454	624	
10	0	0	0	0	454	624	
11	0	0	0	0	455	623	
12	0	0	0	0	455	623	
13	0	0	0	0	456	624	
14	0	0	0	0	456	624	
15	0	0	0	0	456	624	
0	0	0	0	0	456	623	
1	0	0	0	0	456	624	
2	0	0	0	0	457	623	
3	0	0	0	0	457	623	
4	0	0	0	0	458	623	
5	0	0	0	0	459	623	
6	0	0	0	0	460	623	
7	0	0	0	0	460	623	
8	0	0	0	0	460	624	
9	0	0	0	0	460	624	
10	0	0	0	0	460	623	
11	0	0	0	0	461	623	
12	0	0	0	0	461	623	
13	0	0	0	0	461	623	
14	0	0	0	0	461	623	
15	0	0	0	0	462	623	
0	0	0	0	0	463	623	
1	0	0	0	0	462	624	
2	0	0	0	0	462	623	
3	0	0	0	0	463	623	
4	0	0	0	0	463	624	
5	0	0	0	0	463	624	
6	0	0	0	0	463	624	
7	0	0	0	0	463	623	
8	0	0	0	0	463	624	
9	0	0	0	0	463	623	
10	0	0	0	0	464	623	
11	0	0	0	0	464	623	
12	0	0	0	0	464	624	
13	0	0	0	0	465	624	
14	0	0	0	0	465	624	
15	0	0	0	0	465	624	
0	0	0	0	0	466	624	
1	0	0	0	0	466	624	
2	0	0	0	0	467	624	
3	0	0	0	0	468	624	
4	0	0	0	0	468	624	
5	0	0	0	0	470	624	
6	0	0	0	0	470	624	
7	0	0	0	0	471	624	
8	0	0	0	0	472	624	
9	0	0	0	0	472	624	
10	0	0	0	0	473	624	
11	0	0	0	0	473	624	
12	0	0	0	0	473	624	
13	0	0	0	0	474	624	
14	0	0	0	0	475	624	
15	0	0	0	0	475	624	
0	0	0	0	0	476	623	
1	0	0	0	0	477	624	
2	0	0	0	0	479	624	
3	0	0	0	0	480	623	
4	0	0	0	0	481	624	
5	0	0	0	0	481	624	
6	0	0	0	0	482	624	
7	0	0	0	0	482	624	
8	0	0	0	0	483	624	
9	0	0	0	0	483	625	
10	0	0	0	0	484	624	
11	0	0	0	0	486	624	
12	0	0	0	0	486	624	
13	0	0	0	0	487	625	
14	0	0	0	0	488	624	
15	0	0	0	0	489	624	
0	0	0	0	0	491	624	
1	0	0	0	0	492	624	
2	0	0	0	0	492	624	
3	0	0	0	0	494	624	
4	0	0	0	0	495	624	
5	0	0	0	0	497	624	
6	0	0	0	0	498	623	
7	0	0	0	0	499	624	
8	0	0	0	0	499	624	
9	0	0	0	0	500	624	
10	0	0	0	0	501	623	
11	0	0	0	0	502	623	
12	0	0	0	0	503	624	
13	0	0	0	0	504	624	
14	0	0	0	0	504	624	
15	0	0	0	0	505	624	
0	0	0	0	0	506	624	
1	0	0	0	0	506	624	
2	0	0	0	0	507	623	
3	0	0	0	0	507	623	
4	0	0	0	0	508	623	
5	0	0	0	0	508	623	
6	0	0	0	0	510	624	
7	0	0	0	0	511	623	
8	0	0	0	0	512	623	
9	0	0	0	0	513	624	
10	0	0	0	0	514	623	
11	0	0	0	0	515	623	
12	0	0	0	0	515	623	
13	0	0	0	0	516	624	
14	0	0	0	0	517	623	
15	0	0	0	0	518	623	
0	0	0	0	0	518	623	
1	0	0	0	0	519	624	
2	0	0	0	0	519	623	
3	0	0	0	0	520	623	
4	0	0	0	0	521	623	
5	0	0	0	0	521	624	
6	0	0	0	0	521	623	
7	0	0	0	0	521	623	
8	0	0	0	0	522	623	
9	0	0	0	0	522	624	
10	0	0	0	0	522	623	
11	0	0	0	0	522	623	
12	0	0	0	0	522	624	
13	0	0	0	0	522	623	
14	0	0	0	0	521	623	
15	0	0	0	0	521	624	
0	0	0	0	0	520	623	
1	0	0	0	0	520	624	
2	0	0	0	0	519	623	
3	0	0	0	0	519	624	
4	0	0	0	0	519	624	
5	0	0	0	0	519	624	
6	0	0	0	0	518	624	
7	0	0	0	0	518	623	
8	0	0	0	0	518	623	
9	0	0	0	0	516	624	
10	0	0	0	0	516	624	
11	0	0	0	0	516	624	
12	0	0	0	0	516	623	
13	0	0	0	0	516	624	
14	0	0	0	0	517	623	
15	0	0	0	0	516	624	
0	0	0	0	0	516	624	
1	0	0	0	0	515	624	
2	0	0	0	0	515	623	
3	0	0	0	0	516	624	
4	0	0	0	0	515	624	
5	0	0	0	0	515	624	
6	0	0	0	0	514	624	
7	0	0	0	0	513	624	
8	0	0	0	0	513	624	
9	0	0	0	0	512	624	
10	0	0	0	0	512	624	
11	0	0	0	0	513	624	
12	0	0	0	0	513	624	
13	0	0	0	0	513	624	
14	0	0	0	0	512	623	
15	0	0	0	0	513	623	
0	0	0	0	0	513	624	
1	0	0	0	0	513	625	
2	0	0	0	0	514	624	
3	0	0	0	0	514	624	
4	0	0	0	0	515	624	
5	0	0	0	0	515	624	
6	0	0	0	0	515	624	
7	0	0	0	0	515	624	
8	0	0	0	0	515	623	
9	0	0	0	0	515	624	
10	0	0	0	0	515	624	
11	0	0	0	0	513	624	
12	0	0	0	0	512	624	
13	0	0	0	0	512	624	
14	0	0	0	0	512	623	
15	0	0	0	0	512	624	
0	0	0	0	0	512	624	
1	0	0	0	0	513	624	
2	0	0	0	0	512	624	
3	0	0	0	0	513	624	
4	0	0	0	0	512	624	
5	0	0	0	0	512	624	
6	0	0	0	0	512	624	
7	0	0	0	0	512	624	
8	0	0	0	0	512	624	
9	0	0	0	0	512	624	
10	0	0	0	0	512	624	
11	0	0	0	0	512	624	
12	0	0	0	0	512	624	
13	0	0	0	0	512	623	
14	0	0	0	0	512	624	
15	0	0	0	0	512	623	
0	0	0	0	0	512	623	
1	0	0	0	0	512	624	
2	0	0	0	0	512	624	
3	0	0	0	0	512	623	
4	0	0	0	0	512	624	
5	0	0	0	0	512	624	
6	0	0	0	0	512	623	
7	0	0	0	0	512	623	
8	0	0	0	0	512	623	
9	0	0	0	0	513	624	
10	0	0	0	0	513	624	
11	0	0	0	0	513	624	
12	0	0	0	0	513	624	
13	0	0	0	0	512	624	
14	0	0	0	0	511	624	
15	0	0	0	0	511	623	
0	0	0	0	0	512	623	
1	0	0	0	0	512	624	
2	0	0	0	0	512	624	
3	0	0	0	0	512	624	
4	0	0	0	0	512	624	
5	0	0	0	0	511	624	
6	0	0	0	0	511	623	
7	0	0	0	0	511	624	
8	0	0	0	0	511	623	
9	0	0	0	0	510	624	
10	0	0	0	0	510	624	
11	0	0	0	0	510	624	
12	0	0	0	0	510	624	
13	0	0	0	0	509	623	
14	0	0	0	0	509	623	
15	0	0	0	0	508	623	
0	0	0	0	0	509	623	
1	0	0	0	0	509	624	
2	0	0	0	0	509	623	
3	0	0	0	0	509	623	
4	0	0	0	0	509	624	
5	0	0	0	0	509	624	
6	0	0	0	0	510	624	
7	0	0	0	0	510	623	
8	0	0	0	0	510	623	
9	0	0	0	0	510	624	
10	0	0	0	0	509	623	
11	0	0	0	0	510	623	
12	0	0	0	0	510	623	
13	0	0	0	0	510	623	
14	0	0	0	0	510	624	
15	0	0	0	0	510	623	
0	0	0	0	0	510	623	
1	0	0	0	0	510	623	
2	0	0	0	0	511	624	
3	0	0	0	0	510	624	
4	0	0	0	0	510	623	
5	0	0	0	0	511	624	
6	0	0	0	0	510	623	
7	0	0	0	0	510	623	
8	0	0	0	0	510	623	
9	0	0	0	0	510	624	
10	0	0	0	0	509	623	
11	0	0	0	0	509	623	
12	0	0	0	0	509	624	
13	0	0	0	0	509	623	
14	0	0	0	0	509	623	
15	0	0	0	0	509	623	
0	0	0	0	0	510	624	
1	0	0	0	0	510	624	
2	0	0	0	0	509	624	
3	0	0	0	0	510	624	
4	0	0	0	0	510	623	
5	0	0	0	0	510	624	
6	0	0	0	0	510	624	
7	0	0	0	0	510	624	
8	0	0	0	0	510	623	
9	0	0	0	0	509	624	
10	0	0	0	0	509	624	
11	0	0	0	0	510	624	
12	0	0	0	0	510	624	
13	0	0	0	0	510	624	
14	0	0	0	0	511	624	
15	0	0	0	0	511	624	
0	0	0	0	0	510	623	
1	0	0	0	0	510	624	
2	0	0	0	0	510	623	
3	0	0	0	0	511	624	
4	0	0	0	0	510	624	
5	0	0	0	0	510	624	
6	0	0	0	0	510	624	
7	0	0	0	0	509	624	
8	0	0	0	0	509	624	
9	0	0	0	0	510	623	
10	0	0	0	0	510	623	
11	0	0	0	0	511	623	
12	0	0	0	0	511	623	
13	0	0	0	0	511	623	
14	0	0	0	0	511	623	
15	0	0	0	0	511	623	
0	0	0	0	0	511	624	
1	0	0	0	0	511	624	
2	0	0	0	0	512	623	
3	0	0	0	0	512	624	
4	0	0	0	0	512	624	
5	0	0	0	0	512	624	
6	0	0	0	0	512	624	
7	0	0	0	0	513	624	
8	0	0	0	0	512	624	
9	0	0	0	0	513	624	
10	0	0	0	0	513	624	
11	0	0	0	0	513	624	
12	0	0	0	0	514	624	
13	0	0	0	0	513	624	
14	0	0	0	0	513	624	
15	0	0	0	0	512	624	
0	0	0	0	0	512	624	
1	0	0	0	0	512	624	
2	0	0	0	0	512	624	
3	0	0	0	0	513	624	
4	0	0	0	0	513	624	
5	0	0	0	0	514	624	
6	0	0	0	0	513	624	
7	0	0	0	0	513	623	
8	0	0	0	0	513	624	
9	0	0	0	0	513	624	
10	0	0	0	0	513	624	
11	0	0	0	0	515	624	
12	0	0	0	0	514	624	
13	0	0	0	0	514	625	
14	0	0	0	0	513	624	
15	0	0	0	0	514	624	
0	0	0	0	0	513	624	
1	0	0	0	0	514	625	
2	0	0	0	0	513	624	
3	0	0	0	0	512	624	
4	0	0	0	0	512	625	
5	0	0	0	0	512	625	
6	0	0	0	0	512	624	
7	0	0	0	0	513	624	
8	0	0	0	0	513	623	
9	0	0	0	0	512	624	
10	0	0	0	0	512	623	
11	0	0	0	0	512	623	
12	0	0	0	0	512	624	
13	0	0	0	0	512	624	
14	0	0	0	0	511	623	
15	0	0	0	0	511	623	
0	0	0	0	0	511	623	
1	0	0	0	0	511	623	
2	0	0	0	0	511	623	
3	0	0	0	0	511	623	
4	0	0	0	0	511	623	
5	0	0	0	0	511	623	
6	0	0	0	0	512	623	
7	0	0	0	0	512	623	
8	0	0	0	0	511	623	
9	0	0	0	0	511	623	
10	0	0	0	0	511	623	
11	0	0	0	0	511	623	
12	0	0	0	0	511	623	
13	0	0	0	0	511	624	
14	0	0	0	0	512	623	
15	0	0	0	0	512	623	
0	0	0	0	0	512	622	
1	0	0	0	0	512	623	
2	0	0	0	0	512	623	
3	0	0	0	0	512	623	
4	0	0	0	0	511	623	
5	0	0	0	0	511	623	
6	0	0	0	0	511	623	
7	0	0	0	0	510	623	
8	0	0	0	0	510	623	
9	0	0	0	0	510	623	
10	0	0	0	0	510	623	
11	0	0	0	0	510	624	
12	0	0	0	0	510	623	
13	0	0	0	0	510	624	
14	0	0	0	0	510	623	
15	0	0	0	0	510	624	
0	0	0	0	0	510	624	
1	0	0	0	0	510	624	
2	0	0	0	0	511	624	
3	0	0	0	0	511	624	
4	0	0	0	0	511	624	
5	0	0	0	0	511	624	
6	0	0	0	0	511	624	
7	0	0	0	0	512	624	
8	0	0	0	0	512	624	
9	0	0	0	0	512	624	
10	0	0	0	0	512	623	
11	0	0	0	0	512	623	
12	0	0	0	0	512	623	
13	0	0	0	0	512	624	
14	0	0	0	0	512	623	
15	0	0	0	0	512	623	
0	0	0	0	0	512	624	
1	0	0	0	0	512	624	
2	0	0	0	0	512	624	
3	0	0	0	0	511	624	
4	0	0	0	0	511	624	
5	0	0	0	0	511	624	
6	0	0	0	0	510	624	
7	0	0	0	0	510	624	
8	0	0	0	0	510	624	
9	0	0	0	0	510	624	
10	0	0	0	0	510	623	
11	0	0	0	0	511	624	
12	0	0	0	0	511	624	
13	0	0	0	0	511	624	
14	0	0	0	0	511	624	
15	0	0	0	0	511	623	
0	0	0	0	0	510	624	
1	0	0	0	0	509	624	
2	0	0	0	0	509	624	
3	0	0	0	0	510	624	
4	0	0	0	0	511	624	
5	0	0	0	0	510	624	
6	0	0	0	0	510	624	
7	0	0	0	0	511	623	
8	0	0	0	0	510	623	
9	0	0	0	0	510	624	
10	0	0	0	0	510	623	
11	0	0	0	0	510	623	
12	0	0	0	0	511	623	
13	0	0	0	0	510	623	
14	0	0	0	0	510	623	
15	0	0	0	0	510	623	
0	0	0	0	0	510	623	
1	0	0	0	0	510	624	
2	0	0	0	0	510	624	
3	0	0	0	0	509	623	
4	0	0	0	0	510	623	
5	0	0	0	0	509	624	
6	0	0	0	0	509	623	
7	0	0	0	0	508	623	
8	0	0	0	0	508	623	
9	0	0	0	0	509	624	
10	0	0	0	0	509	623	
11	0	0	0	0	510	622	
12	0	0	0	0	509	623	
13	0	0	0	0	508	623	
14	0	0	0	0	509	623	
15	0	0	0	0	508	624	
0	0	0	0	0	508	623	
1	0	0	0	0	508	624	
2	0	0	0	0	507	623	
3	0	0	0	0	507	624	
4	0	0	0	0	507	624	
5	0	0	0	0	508	624	
6	0	0	0	0	507	624	
7	0	0	0	0	508	624	
8	0	0	0	0	508	624	
9	0	0	0	0	508	624	
10	0	0	0	0	509	624	
11	0	0	0	0	509	624	
12	0	0	0	0	508	624	
13	0	0	0	0	509	624	
14	0	0	0	0	508	624	
15	0	0	0	0	508	624	
0	0	0	0	0	508	624	
1	0	0	0	0	508	624	
2	0	0	0	0	509	624	
3	0	0	0	0	509	624	
4	0	0	0	0	509	624	
5	0	0	0	0	509	624	
6	0	0	0	0	508	624	
7	0	0	0	0	508	624	
8	0	0	0	0	508	624	
9	0	0	0	0	509	624	
10	0	0	0	0	509	624	
11	0	0	0	0	508	624	
12	0	0	0	0	508	624	
13	0	0	0	0	508	624	
14	0	0	0	0	508	624	
15	0	0	0	0	508	624	
0	0	0	0	0	508	624	
1	0	0	0	0	508	624	
2	0	0	0	0	509	624	
3	0	0	0	0	509	624	
4	0	0	0	0	509	624	
5	0	0	0	0	509	624	
6	0	0	0	0	510	624	
7	0	0	0	0	509	624	
8	0	0	0	0	510	624	
9	0	0	0	0	509	624	
10	0	0	0	0	509	623	
11	0	0	0	0	510	623	
12	0	0	0	0	509	623	
13	0	0	0	0	509	624	
14	0	0	0	0	509	623	
15	0	0	0	0	509	623	
0	0	0	0	0	509	623	
1	0	0	0	0	509	624	
2	0	0	0	0	509	623	
3	0	0	0	0	510	623	
4	0	0	0	0	510	623	
5	0	0	0	0	511	623	
6	0	0	0	0	511	624	
7	0	0	0	0	511	624	
8	0	0	0	0	510	624	
9	0	0	0	0	508	624	
10	0	0	0	0	508	624	
11	0	0	0	0	508	623	
12	0	0	0	0	507	623	
13	0	0	0	0	507	624	
14	0	0	0	0	506	624	
15	0	0	0	0	506	624	
0	0	0	0	0	506	623	
1	0	0	0	0	506	624	
2	0	0	0	0	506	624	
3	0	0	0	0	506	624	
4	0	0	0	0	507	624	
5	0	0	0	0	507	624	
6	0	0	0	0	507	623	
7	0	0	0	0	507	623	
8	0	0	0	0	507	624	
9	0	0	0	0	508	624	
10	0	0	0	0	508	623	
11	0	0	0	0	508	623	
12	0	0	0	0	508	624	
13	0	0	0	0	508	624	
14	0	0	0	0	508	624	
15	0	0	0	0	507	624	
0	0	0	0	0	507	623	
1	0	0	0	0	507	624	
2	0	0	0	0	507	623	
3	0	0	0	0	507	624	
4	0	0	0	0	508	624	
5	0	0	0	0	508	624	
6	0	0	0	0	508	624	
7	0	0	0	0	507	623	
8	0	0	0	0	508	623	
9	0	0	0	0	508	624	
10	0	0	0	0	509	623	
11	0	0	0	0	510	624	
12	0	0	0	0	509	624	
13	0	0	0	0	510	623	
14	0	0	0	0	510	624	
15	0	0	0	0	511	624	
0	0	0	0	0	512	624	
1	0	0	0	0	513	624	
2	0	0	0	0	513	624	
3	0	0	0	0	514	624	
4	0	0	0	0	514	624	
5	0	0	0	0	514	624	
6	0	0	0	0	514	624	
7	0	0	0	0	514	624	
8	0	0	0	0	514	623	
9	0	0	0	0	515	624	
10	0	0	0	0	514	624	
11	0	0	0	0	513	623	
12	0	0	0	0	514	623	
13	0	0	0	0	513	623	
14	0	0	0	0	513	624	
15	0	0	0	0	513	624	
0	0	0	0	0	513	623	
1	0	0	0	0	513	624	
2	0	0	0	0	512	623	
3	0	0	0	0	513	623	
4	0	0	0	0	513	623	
5	0	0	0	0	513	624	
6	0	0	0	0	513	624	
7	0	0	0	0	513	623	
8	0	0	0	0	513	624	
9	0	0	0	0	512	624	
10	0	0	0	0	512	623	
11	0	0	0	0	511	623	
12	0	0	0	0	511	623	
13	0	0	0	0	512	623	
14	0	0	0	0	511	623	
15	0	0	0	0	510	623	
0	0	0	0	0	510	623	
1	0	0	0	0	510	623	
2	0	0	0	0	511	623	
3	0	0	0	0	511	623	
4	0	0	0	0	510	623	
5	0	0	0	0	510	624	
6	0	0	0	0	510	623	
7	0	0	0	0	510	623	
8	0	0	0	0	510	624	
9	0	0	0	0	510	624	
10	0	0	0	0	510	624	
11	0	0	0	0	510	624	
12	0	0	0	0	510	624	
13	0	0	0	0	510	624	
14	0	0	0	0	509	624	
15	0	0	0	0	509	624	
0	0	0	0	0	509	624	
1	0	0	0	0	510	624	
2	0	0	0	0	510	624	
3	0	0	0	0	510	624	
4	0	0	0	0	510	624	
5	0	0	0	0	509	624	
6	0	0	0	0	509	624	
7	0	0	0	0	509	624	
8	0	0	0	0	509	624	
9	0	0	0	0	509	625	
10	0	0	0	0	509	624	
11	0	0	0	0	509	624	
12	0	0	0	0	508	624	
13	0	0	0	0	508	624	
14	0	0	0	0	508	624	
15	0	0	0	0	509	624	
0	0	0	0	0	508	624	
1	0	0	0	0	508	625	
2	0	0	0	0	508	624	
3	0	0	0	0	508	625	
4	0	0	0	0	508	624	
5	0	0	0	0	508	625	
6	0	0	0	0	508	624	
7	0	0	0	0	508	623	
8	0	0	0	0	508	624	
9	0	0	0	0	508	624	
10	0	0	0	0	507	624	
11	0	0	0	0	507	624	
12	0	0	0	0	507	623	
13	0	0	0	0	507	623	
14	0	0	0	0	508	623	
15	0	0	0	0	507	624	
0	0	0	0	0	507	624	
1	0	0	0	0	507	624	
2	0	0	0	0	507	623	
3	0	0	0	0	506	624	
4	0	0	0	0	506	624	
5	0	0	0	0	505	624	
6	0	0	0	0	505	624	
7	0	0	0	0	505	624	
8	0	0	0	0	504	624	
9	0	0	0	0	502	624	
10	0	0	0	0	500	624	
11	0	0	0	0	497	624	
12	0	0	0	0	494	624	
13	0	0	0	0	489	624	
14	0	0	0	0	483	624	
15	0	0	0	0	474	623	
0	0	0	0	0	465	623	
1	0	0	0	0	456	624	
2	0	0	0	0	446	624	
3	0	0	0	0	436	624	
4	0	0	0	0	428	623	
5	0	0	0	0	420	624	
6	0	0	0	0	413	624	
7	0	0	0	0	407	624	
8	0	0	0	0	404	624	
9	0	0	0	0	403	624	
10	0	0	0	0	403	623	
11	0	0	0	0	405	624	
12	0	0	0	0	409	624	
13	0	0	0	0	415	624	
14	0	0	0	0	422	624	
15	0	0	0	0	429	624	
0	0	0	0	0	436	624	
1	0	0	0	0	442	624	
2	0	0	0	0	449	624	
3	0	0	0	0	455	623	
4	0	0	0	0	461	623	
5	0	0	0	0	470	624	
6	0	0	0	0	485	623	
7	0	0	0	0	504	623	
8	0	0	0	0	528	624	
9	0	0	0	0	553	624	
10	0	0	0	0	581	623	
11	0	0	0	0	614	623	
12	0	0	0	0	652	624	
13	0	0	0	0	694	624	
14	0	0	0	0	736	623	
15	0	0	0	0	775	623	
0	0	0	0	0	809	623	
1	0	0	0	0	839	624	
2	0	0	0	0	863	624	
3	0	0	0	0	880	623	
4	0	0	0	0	892	623	
5	0	0	0	0	895	624	
6	0	0	0	0	893	624	
7	0	0	0	0	887	624	
8	0	0	0	0	878	624	
9	0	0	0	0	867	624	
10	0	0	0	0	854	623	
11	0	0	0	0	838	624	
12	0	0	0	0	821	624	
13	0	0	0	0	802	624	
14	0	0	0	0	779	624	
15	0	0	0	0	755	623	
0	0	0	0	0	731	624	
1	0	0	0	0	709	624	
2	0	0	0	0	688	624	
3	0	0	0	0	670	624	
4	0	0	0	0	652	624	
5	0	0	0	0	637	624	
6	0	0	0	0	622	624	
7	0	0	0	0	610	624	
8	0	0	0	0	599	624	
9	0	0	0	0	589	624	
10	0	0	0	0	579	624	
11	0	0	0	0	570	623	
12	0	0	0	0	560	623	
13	0	0	0	0	551	623	
14	0	0	0	0	542	623	
15	0	0	0	0	531	623	
0	0	0	0	0	521	624	
1	0	0	0	0	511	623	
2	0	0	0	0	503	624	
3	0	0	0	0	495	624	
4	0	0	0	0	487	623	
5	0	0	0	0	480	624	
6	0	0	0	0	473	624	
7	0	0	0	0	466	624	
8	0	0	0	0	460	624	
9	0	0	0	0	455	624	
10	0	0	0	0	449	624	
11	0	0	0	0	444	624	
12	0	0	0	0	440	623	
13	0	0	0	0	436	623	
14	0	0	0	0	434	623	
15	0	0	0	0	431	624	
0	0	0	0	0	428	624	
1	0	0	0	0	427	624	
2	0	0	0	0	426	623	
3	0	0	0	0	425	624	
4	0	0	0	0	424	623	
5	0	0	0	0	423	624	
6	0	0	0	0	423	623	
7	0	0	0	0	422	623	
8	0	0	0	0	421	623	
9	0	0	0	0	420	623	
10	0	0	0	0	420	624	
11	0	0	0	0	420	623	
12	0	0	0	0	419	623	
13	0	0	0	0	419	623	
14	0	0	0	0	419	623	
15	0	0	0	0	419	623	
0	0	0	0	0	419	622	
1	0	0	0	0	419	623	
2	0	0	0	0	419	623	
3	0	0	0	0	419	623	
4	0	0	0	0	419	623	
5	0	0	0	0	419	623	
6	0	0	0	0	419	623	
7	0	0	0	0	419	623	
8	0	0	0	0	419	623	
9	0	0	0	0	419	624	
10	0	0	0	0	419	623	
11	0	0	0	0	420	623	
12	0	0	0	0	420	623	
13	0	0	0	0	420	623	
14	0	0	0	0	422	623	
15	0	0	0	0	423	623	
0	0	0	0	0	423	623	
1	0	0	0	0	423	624	
2	0	0	0	0	423	624	
3	0	0	0	0	423	624	
4	0	0	0	0	424	624	
5	0	0	0	0	425	623	
6	0	0	0	0	425	624	
7	0	0	0	0	426	624	
8	0	0	0	0	426	624	
9	0	0	0	0	427	624	
10	0	0	0	0	427	624	
11	0	0	0	0	428	624	
12	0	0	0	0	429	624	
13	0	0	0	0	430	624	
14	0	0	0	0	431	624	
15	0	0	0	0	431	624	
0	0	0	0	0	432	624	
1	0	0	0	0	433	624	
2	0	0	0	0	434	623	
3	0	0	0	0	435	624	
4	0	0	0	0	435	623	
5	0	0	0	0	436	624	
6	0	0	0	0	436	624	
7	0	0	0	0	436	624	
8	0	0	0	0	437	624	
9	0	0	0	0	438	624	
10	0	0	0	0	439	624	
11	0	0	0	0	439	624	
12	0	0	0	0	440	624	
13	0	0	0	0	440	624	
14	0	0	0	0	440	624	
15	0	0	0	0	440	624	
0	0	0	0	0	441	624	
1	0	0	0	0	441	624	
2	0	0	0	0	442	623	
3	0	0	0	0	442	624	
4	0	0	0	0	443	623	
5	0	0	0	0	443	623	
6	0	0	0	0	444	623	
7	0	0	0	0	444	623	
8	0	0	0	0	444	623	
9	0	0	0	0	445	623	
10	0	0	0	0	446	623	
11	0	0	0	0	447	624	
12	0	0	0	0	447	623	
13	0	0	0	0	447	623	
14	0	0	0	0	447	623	
15	0	0	0	0	448	622	
0	0	0	0	0	448	623	
1	0	0	0	0	449	623	
2	0	0	0	0	448	622	
3	0	0	0	0	448	623	
4	0	0	0	0	448	623	
5	0	0	0	0	448	623	
6	0	0	0	0	449	623	
7	0	0	0	0	450	623	
8	0	0	0	0	450	623	
9	0	0	0	0	451	623	
10	0	0	0	0	451	623	
11	0	0	0	0	453	623	
12	0	0	0	0	454	623	
13	0	0	0	0	455	623	
14	0	0	0	0	455	623	
15	0	0	0	0	455	623	
0	0	0	0	0	455	623	
1	0	0	0	0	455	623	
2	0	0	0	0	456	623	
3	0	0	0	0	456	623	
4	0	0	0	0	456	623	
5	0	0	0	0	456	623	
6	0	0	0	0	457	624	
7	0	0	0	0	457	623	
8	0	0	0	0	457	623	
9	0	0	0	0	457	624	
10	0	0	0	0	457	624	
11	0	0	0	0	459	624	
12	0	0	0	0	460	623	
13	0	0	0	0	460	624	
14	0	0	0	0	460	624	
15	0	0	0	0	461	624	
0	0	0	0	0	461	623	
1	0	0	0	0	461	624	
2	0	0	0	0	461	624	
3	0	0	0	0	462	624	
4	0	0	0	0	462	624	
5	0	0	0	0	461	624	
6	0	0	0	0	461	624	
7	0	0	0	0	461	624	
8	0	0	0	0	461	624	
9	0	0	0	0	462	625	
10	0	0	0	0	462	624	
11	0	0	0	0	463	624	
12	0	0	0	0	463	624	
13	0	0	0	0	464	624	
14	0	0	0	0	464	624	
15	0	0	0	0	464	624	
0	0	0	0	0	465	624	
1	0	0	0	0	465	624	
2	0	0	0	0	466	624	
3	0	0	0	0	466	624	
4	0	0	0	0	467	624	
5	0	0	0	0	467	624	
6	0	0	0	0	468	624	
7	0	0	0	0	469	624	
8	0	0	0	0	470	624	
9	0	0	0	0	470	624	
10	0	0	0	0	471	624	
11	0	0	0	0	472	624	
12	0	0	0	0	472	624	
13	0	0	0	0	473	624	
14	0	0	0	0	475	624	
15	0	0	0	0	475	624	
0	0	0	0	0	475	623	
1	0	0	0	0	475	624	
2	0	0	0	0	476	624	
3	0	0	0	0	476	623	
4	0	0	0	0	477	624	
5	0	0	0	0	478	624	
6	0	0	0	0	480	624	
7	0	0	0	0	480	624	
8	0	0	0	0	480	624	
9	0	0	0	0	481	623	
10	0	0	0	0	482	623	
11	0	0	0	0	483	624	
12	0	0	0	0	484	623	
13	0	0	0	0	486	624	
14	0	0	0	0	487	624	
15	0	0	0	0	488	624	
0	0	0	0	0	490	624	
1	0	0	0	0	492	624	
2	0	0	0	0	493	624	
3	0	0	0	0	494	623	
4	0	0	0	0	495	623	
5	0	0	0	0	495	624	
6	0	0	0	0	497	623	
7	0	0	0	0	498	624	
8	0	0	0	0	499	624	
9	0	0	0	0	499	624	
10	0	0	0	0	500	624	
11	0	0	0	0	502	624	
12	0	0	0	0	503	624	
13	0	0	0	0	504	623	
14	0	0	0	0	505	623	
15	0	0	0	0	506	623	
0	0	0	0	0	507	623	
1	0	0	0	0	508	624	
2	0	0	0	0	508	623	
3	0	0	0	0	509	623	
4	0	0	0	0	511	623	
5	0	0	0	0	512	623	
6	0	0	0	0	513	623	
7	0	0	0	0	515	623	
8	0	0	0	0	515	623	
9	0	0	0	0	516	623	
10	0	0	0	0	518	623	
11	0	0	0	0	518	623	
12	0	0	0	0	519	623	
13	0	0	0	0	520	623	
14	0	0	0	0	521	623	
15	0	0	0	0	521	622	
0	0	0	0	0	522	623	
1	0	0	0	0	522	623	
2	0	0	0	0	522	623	
3	0	0	0	0	522	623	
4	0	0	0	0	523	624	
5	0	0	0	0	523	623	
6	0	0	0	0	523	623	
7	0	0	0	0	523	623	
8	0	0	0	0	523	623	
9	0	0	0	0	523	623	
10	0	0	0	0	522	624	
11	0	0	0	0	522	623	
12	0	0	0	0	522	623	
13	0	0	0	0	522	623	
14	0	0	0	0	522	623	
15	0	0	0	0	522	623	
0	0	0	0	0	522	623	
1	0	0	0	0	521	624	
2	0	0	0	0	521	623	
3	0	0	0	0	520	623	
4	0	0	0	0	520	624	
5	0	0	0	0	519	624	
6	0	0	0	0	519	623	
7	0	0	0	0	518	624	
8	0	0	0	0	518	624	
9	0	0	0	0	518	624	
10	0	0	0	0	517	624	
11	0	0	0	0	516	624	
12	0	0	0	0	516	624	
13	0	0	0	0	515	625	
14	0	0	0	0	514	624	
15	0	0	0	0	514	624	
0	0	0	0	0	513	624	
1	0	0	0	0	513	624	
2	0	0	0	0	513	624	
3	0	0	0	0	512	624	
4	0	0	0	0	512	624	
5	0	0	0	0	512	624	
6	0	0	0	0	512	624	
7	0	0	0	0	513	624	
8	0	0	0	0	513	624	
9	0	0	0	0	514	624	
10	0	0	0	0	513	623	
11	0	0	0	0	513	624	
12	0	0	0	0	513	624	
13	0	0	0	0	513	624	
14	0	0	0	0	512	623	
15	0	0	0	0	512	623	
0	0	0	0	0	511	623	
1	0	0	0	0	512	624	
2	0	0	0	0	512	623	
3	0	0	0	0	512	623	
4	0	0	0	0	511	624	
5	0	0	0	0	511	624	
6	0	0	0	0	512	624	
7	0	0	0	0	512	624	
8	0	0	0	0	512	624	
9	0	0	0	0	512	624	
10	0	0	0	0	512	624	
11	0	0	0	0	512	624	
12	0	0	0	0	512	624	
13	0	0	0	0	512	624	
14	0	0	0	0	511	624	
15	0	0	0	0	512	623	
0	0	0	0	0	512	623	
1	0	0	0	0	512	624	
2	0	0	0	0	512	623	
3	0	0	0	0	513	624	
4	0	0	0	0	512	624	
5	0	0	0	0	513	624	
6	0	0	0	0	513	624	
7	0	0	0	0	512	624	
8	0	0	0	0	512	624	
9	0	0	0	0	511	624	
10	0	0	0	0	512	624	
11	0	0	0	0	512	624	
12	0	0	0	0	511	623	
13	0	0	0	0	511	623	
14	0	0	0	0	511	624	
15	0	0	0	0	511	624	
0	0	0	0	0	511	623	
1	0	0	0	0	511	624	
2	0	0	0	0	511	623	
3	0	0	0	0	510	624	
4	0	0	0	0	510	624	
5	0	0	0	0	510	623	
6	0	0	0	0	511	623	
7	0	0	0	0	511	623	
8	0	0	0	0	511	623	
9	0	0	0	0	511	624	
10	0	0	0	0	511	624	
11	0	0	0	0	511	623	
12	0	0	0	0	511	623	
13	0	0	0	0	511	623	
14	0	0	0	0	510	624	
15	0	0	0	0	510	624	
0	0	0	0	0	510	623	
1	0	0	0	0	510	623	
2	0	0	0	0	510	623	
3	0	0	0	0	511	623	
4	0	0	0	0	511	623	
5	0	0	0	0	511	623	
6	0	0	0	0	511	623	
7	0	0	0	0	510	623	
8	0	0	0	0	510	623	
9	0	0	0	0	510	623	
10	0	0	0	0	510	623	
11	0	0	0	0	511	623	
12	0	0	0	0	511	623	
13	0	0	0	0	510	623	
14	0	0	0	0	510	623	
15	0	0	0	0	510	623	
0	0	0	0	0	510	622	
1	0	0	0	0	510	623	
2	0	0	0	0	509	623	
3	0	0	0	0	509	623	
4	0	0	0	0	509	623	
5	0	0	0	0	509	623	
6	0	0	0	0	509	623	
7	0	0	0	0	509	623	
8	0	0	0	0	509	623	
9	0	0	0	0	509	624	
10	0	0	0	0	509	623	
11	0	0	0	0	509	624	
12	0	0	0	0	509	623	
13	0	0	0	0	509	623	
14	0	0	0	0	509	623	
15	0	0	0	0	509	624	
0	0	0	0	0	509	624	
1	0	0	0	0	509	624	
2	0	0	0	0	508	623	
3	0	0	0	0	508	624	
4	0	0	0	0	508	624	
5	0	0	0	0	508	624	
6	0	0	0	0	508	624	
7	0	0	0	0	509	624	
8	0	0	0	0	509	623	
9	0	0	0	0	509	624	
10	0	0	0	0	510	624	
11	0	0	0	0	510	623	
12	0	0	0	0	508	623	
13	0	0	0	0	508	624	
14	0	0	0	0	508	624	
15	0	0	0	0	508	623	
0	0	0	0	0	508	623	
1	0	0	0	0	509	624	
2	0	0	0	0	508	623	
3	0	0	0	0	508	624	
4	0	0	0	0	508	624	
5	0	0	0	0	508	624	
6	0	0	0	0	508	623	
7	0	0	0	0	507	623	
8	0	0	0	0	507	623	
9	0	0	0	0	507	624	
10	0	0	0	0	507	623	
11	0	0	0	0	507	623	
12	0	0	0	0	507	623	
13	0	0	0	0	508	622	
14	0	0	0	0	508	622	
15	0	0	0	0	508	622	
0	0	0	0	0	508	622	
1	0	0	0	0	508	623	
2	0	0	0	0	508	623	
3	0	0	0	0	508	624	
4	0	0	0	0	508	624	
5	0	0	0	0	508	625	
6	0	0	0	0	509	625	
7	0	0	0	0	509	625	
8	0	0	0	0	508	624	
9	0	0	0	0	508	625	
10	0	0	0	0	508	625	
11	0	0	0	0	508	624	
12	0	0	0	0	508	624	
13	0	0	0	0	508	624	
14	0	0	0	0	508	624	
15	0	0	0	0	508	624	
0	0	0	0	0	509	624	
1	0	0	0	0	509	624	
2	0	0	0	0	510	624	
3	0	0	0	0	510	624	
4	0	0	0	0	510	623	
5	0	0	0	0	510	623	
6	0	0	0	0	510	623	
7	0	0	0	0	510	623	
8	0	0	0	0	511	623	
9	0	0	0	0	511	623	
10	0	0	0	0	511	623	
11	0	0	0	0	511	623	
12	0	0	0	0	511	623	
13	0	0	0	0	512	623	
14	0	0	0	0	512	623	
15	0	0	0	0	511	623	
0	0	0	0	0	512	623	
1	0	0	0	0	512	624	
2	0	0	0	0	512	623	
3	0	0	0	0	512	623	
4	0	0	0	0	512	624	
5	0	0	0	0	511	624	
6	0	0	0	0	511	624	
7	0	0	0	0	510	623	
8	0	0	0	0	510	624	
9	0	0	0	0	510	624	
10	0	0	0	0	511	624	
11	0	0	0	0	511	623	
12	0	0	0	0	511	624	
13	0	0	0	0	511	624	
14	0	0	0	0	511	624	
15	0	0	0	0	511	624	
0	0	0	0	0	511	623	
1	0	0	0	0	511	624	
2	0	0	0	0	511	624	
3	0	0	0	0	511	623	
4	0	0	0	0	511	623	
5	0	0	0	0	511	623	
6	0	0	0	0	511	624	
7	0	0	0	0	511	623	
8	0	0	0	0	511	623	
9	0	0	0	0	511	624	
10	0	0	0	0	511	623	
11	0	0	0	0	512	624	
12	0	0	0	0	512	624	
13	0	0	0	0	512	623	
14	0	0	0	0	512	623	
15	0	0	0	0	511	623	
0	0	0	0	0	511	623	
1	0	0	0	0	511	624	
2	0	0	0	0	512	623	
3	0	0	0	0	512	624	
4	0	0	0	0	512	624	
5	0	0	0	0	512	624	
6	0	0	0	0	512	624	
7	0	0	0	0	512	623	
8	0	0	0	0	511	623	
9	0	0	0	0	511	623	
10	0	0	0	0	511	623	
11	0	0	0	0	511	624	
12	0	0	0	0	512	623	
13	0	0	0	0	513	623	
14	0	0	0	0	513	624	
15	0	0	0	0	513	624	
0	0	0	0	0	513	624	
1	0	0	0	0	514	624	
2	0	0	0	0	514	623	
3	0	0	0	0	514	623	
4	0	0	0	0	514	623	
5	0	0	0	0	513	623	
6	0	0	0	0	513	623	
7	0	0	0	0	513	623	
8	0	0	0	0	512	623	
9	0	0	0	0	512	624	
10	0	0	0	0	512	623	
11	0	0	0	0	513	623	
12	0	0	0	0	513	623	
13	0	0	0	0	512	623	
14	0	0	0	0	513	623	
15	0	0	0	0	513	623	
0	0	0	0	0	513	623	
1	0	0	0	0	514	624	
2	0	0	0	0	514	624	
3	0	0	0	0	514	624	
