# OpenSignals Text File Format. Version 1
# {"98:D3:91:FD:59:64": {"position": 0, "device": "bitalino_rev", "device name": "98:D3:91:FD:59:64", "device connection": "BTH98:D3:91:FD:59:64", "sampling rate": 1000, "resolution": [4, 1, 1, 1, 1, 10, 10], "firmware version": 1281, "comments": "", "keywords": "", "mode": 0, "sync interval": 2, "date": "2021-9-5", "time": "16:32:1.95", "channels": [2, 5], "sensor": ["RAW", "RAW"], "label": ["A2", "A5"], "column": ["nSeq", "I1", "I2", "O1", "O2", "A2", "A5"], "special": [{}, {}], "digital IO": [0, 0, 1, 1], "convertedValues": 0}}
# EndOfHeader
0	0	0	0	0	487	626	
1	0	0	0	0	487	627	
2	0	0	0	0	488	628	
3	0	0	0	0	488	627	
4	0	0	0	0	489	628	
5	0	0	0	0	489	627	
6	0	0	0	0	488	627	
7	0	0	0	0	490	627	
8	0	0	0	0	491	625	
9	0	0	0	0	492	626	
10	0	0	0	0	492	626	
11	0	0	0	0	491	626	
12	0	0	0	0	491	628	
13	0	0	0	0	491	625	
14	0	0	0	0	492	626	
15	0	0	0	0	493	626	
0	0	0	0	0	494	624	
1	0	0	0	0	494	626	
2	0	0	0	0	496	626	
3	0	0	0	0	496	625	
4	0	0	0	0	498	627	
5	0	0	0	0	498	625	
6	0	0	0	0	499	625	
7	0	0	0	0	499	625	
8	0	0	0	0	499	623	
9	0	0	0	0	500	625	
10	0	0	0	0	500	625	
11	0	0	0	0	501	625	
12	0	0	0	0	501	627	
13	0	0	0	0	502	625	
14	0	0	0	0	502	624	
15	0	0	0	0	502	624	
0	0	0	0	0	503	623	
1	0	0	0	0	504	624	
2	0	0	0	0	503	624	
3	0	0	0	0	502	624	
4	0	0	0	0	502	626	
5	0	0	0	0	502	623	
6	0	0	0	0	503	623	
7	0	0	0	0	503	624	
8	0	0	0	0	503	622	
9	0	0	0	0	504	623	
10	0	0	0	0	504	622	
11	0	0	0	0	504	622	
12	0	0	0	0	504	623	
13	0	0	0	0	505	622	
14	0	0	0	0	504	622	
15	0	0	0	0	504	622	
0	0	0	0	0	504	620	
1	0	0	0	0	504	621	
2	0	0	0	0	505	621	
3	0	0	0	0	506	620	
4	0	0	0	0	507	622	
5	0	0	0	0	507	620	
6	0	0	0	0	507	620	
7	0	0	0	0	506	620	
8	0	0	0	0	504	618	
9	0	0	0	0	503	620	
10	0	0	0	0	502	620	
11	0	0	0	0	502	620	
12	0	0	0	0	503	622	
13	0	0	0	0	503	621	
14	0	0	0	0	501	621	
15	0	0	0	0	500	622	
0	0	0	0	0	499	620	
1	0	0	0	0	499	622	
2	0	0	0	0	498	623	
3	0	0	0	0	497	623	
4	0	0	0	0	496	624	
5	0	0	0	0	496	623	
6	0	0	0	0	497	623	
7	0	0	0	0	496	623	
8	0	0	0	0	496	622	
9	0	0	0	0	496	623	
10	0	0	0	0	494	623	
11	0	0	0	0	494	623	
12	0	0	0	0	493	625	
13	0	0	0	0	492	623	
14	0	0	0	0	493	623	
15	0	0	0	0	490	623	
0	0	0	0	0	491	621	
1	0	0	0	0	490	623	
2	0	0	0	0	489	622	
3	0	0	0	0	489	623	
4	0	0	0	0	488	623	
5	0	0	0	0	487	622	
6	0	0	0	0	487	622	
7	0	0	0	0	488	622	
8	0	0	0	0	488	620	
9	0	0	0	0	489	621	
10	0	0	0	0	490	621	
11	0	0	0	0	490	620	
12	0	0	0	0	490	622	
13	0	0	0	0	490	621	
14	0	0	0	0	489	621	
15	0	0	0	0	490	620	
0	0	0	0	0	491	618	
1	0	0	0	0	491	620	
2	0	0	0	0	492	620	
3	0	0	0	0	491	621	
4	0	0	0	0	492	623	
5	0	0	0	0	493	622	
6	0	0	0	0	494	622	
7	0	0	0	0	494	622	
8	0	0	0	0	494	620	
9	0	0	0	0	493	622	
10	0	0	0	0	493	622	
11	0	0	0	0	493	622	
12	0	0	0	0	494	624	
13	0	0	0	0	495	623	
14	0	0	0	0	495	623	
15	0	0	0	0	495	623	
0	0	0	0	0	495	622	
1	0	0	0	0	496	624	
2	0	0	0	0	496	623	
3	0	0	0	0	496	624	
4	0	0	0	0	496	626	
5	0	0	0	0	496	624	
6	0	0	0	0	496	624	
7	0	0	0	0	496	624	
8	0	0	0	0	496	622	
9	0	0	0	0	496	624	
10	0	0	0	0	496	625	
11	0	0	0	0	496	624	
12	0	0	0	0	496	625	
13	0	0	0	0	496	624	
14	0	0	0	0	496	624	
15	0	0	0	0	496	623	
0	0	0	0	0	496	622	
1	0	0	0	0	496	624	
2	0	0	0	0	496	623	
3	0	0	0	0	497	624	
4	0	0	0	0	498	625	
5	0	0	0	0	497	624	
6	0	0	0	0	496	623	
7	0	0	0	0	497	623	
8	0	0	0	0	496	621	
9	0	0	0	0	498	623	
10	0	0	0	0	499	624	
11	0	0	0	0	499	623	
12	0	0	0	0	499	625	
13	0	0	0	0	498	624	
14	0	0	0	0	498	624	
15	0	0	0	0	498	624	
0	0	0	0	0	498	622	
1	0	0	0	0	499	624	
2	0	0	0	0	499	624	
3	0	0	0	0	501	624	
4	0	0	0	0	502	626	
5	0	0	0	0	501	624	
6	0	0	0	0	501	624	
7	0	0	0	0	502	624	
8	0	0	0	0	501	622	
9	0	0	0	0	502	624	
10	0	0	0	0	501	624	
11	0	0	0	0	500	624	
12	0	0	0	0	501	626	
13	0	0	0	0	503	624	
14	0	0	0	0	505	624	
15	0	0	0	0	507	623	
0	0	0	0	0	507	622	
1	0	0	0	0	509	624	
2	0	0	0	0	510	623	
3	0	0	0	0	511	624	
4	0	0	0	0	513	626	
5	0	0	0	0	515	624	
6	0	0	0	0	515	624	
7	0	0	0	0	516	624	
8	0	0	0	0	516	623	
9	0	0	0	0	518	624	
10	0	0	0	0	519	624	
11	0	0	0	0	520	624	
12	0	0	0	0	521	626	
13	0	0	0	0	523	624	
14	0	0	0	0	524	624	
15	0	0	0	0	526	624	
0	0	0	0	0	528	621	
1	0	0	0	0	529	624	
2	0	0	0	0	530	623	
3	0	0	0	0	531	623	
4	0	0	0	0	531	625	
5	0	0	0	0	531	624	
6	0	0	0	0	533	624	
7	0	0	0	0	533	624	
8	0	0	0	0	530	622	
9	0	0	0	0	527	624	
10	0	0	0	0	524	624	
11	0	0	0	0	519	624	
12	0	0	0	0	514	626	
13	0	0	0	0	509	624	
14	0	0	0	0	503	624	
15	0	0	0	0	496	625	
0	0	0	0	0	491	623	
1	0	0	0	0	487	625	
2	0	0	0	0	487	625	
3	0	0	0	0	487	625	
4	0	0	0	0	490	627	
5	0	0	0	0	496	625	
6	0	0	0	0	502	625	
7	0	0	0	0	510	626	
8	0	0	0	0	519	623	
9	0	0	0	0	527	625	
10	0	0	0	0	537	626	
11	0	0	0	0	547	625	
12	0	0	0	0	559	627	
13	0	0	0	0	569	625	
14	0	0	0	0	580	626	
15	0	0	0	0	594	626	
0	0	0	0	0	609	625	
1	0	0	0	0	627	626	
2	0	0	0	0	647	626	
3	0	0	0	0	671	627	
4	0	0	0	0	696	628	
5	0	0	0	0	725	627	
6	0	0	0	0	756	626	
7	0	0	0	0	787	626	
8	0	0	0	0	818	624	
9	0	0	0	0	851	627	
10	0	0	0	0	884	627	
11	0	0	0	0	918	627	
12	0	0	0	0	949	628	
13	0	0	0	0	979	626	
14	0	0	0	0	1006	627	
15	0	0	0	0	1021	627	
0	0	0	0	0	1022	625	
1	0	0	0	0	1022	626	
2	0	0	0	0	1022	626	
3	0	0	0	0	1022	626	
4	0	0	0	0	1022	628	
5	0	0	0	0	1022	625	
6	0	0	0	0	1022	626	
7	0	0	0	0	1022	625	
8	0	0	0	0	1022	623	
9	0	0	0	0	1021	624	
10	0	0	0	0	999	624	
11	0	0	0	0	974	624	
12	0	0	0	0	947	625	
13	0	0	0	0	919	623	
14	0	0	0	0	887	623	
15	0	0	0	0	852	623	
0	0	0	0	0	814	621	
1	0	0	0	0	778	622	
2	0	0	0	0	744	622	
3	0	0	0	0	707	622	
4	0	0	0	0	672	623	
5	0	0	0	0	640	622	
6	0	0	0	0	612	621	
7	0	0	0	0	589	621	
8	0	0	0	0	571	619	
9	0	0	0	0	554	621	
10	0	0	0	0	542	620	
11	0	0	0	0	529	621	
12	0	0	0	0	517	623	
13	0	0	0	0	505	621	
14	0	0	0	0	495	621	
15	0	0	0	0	485	621	
0	0	0	0	0	474	619	
1	0	0	0	0	463	621	
2	0	0	0	0	452	621	
3	0	0	0	0	443	620	
4	0	0	0	0	435	623	
5	0	0	0	0	428	621	
6	0	0	0	0	421	622	
7	0	0	0	0	415	621	
8	0	0	0	0	408	620	
9	0	0	0	0	403	622	
10	0	0	0	0	398	622	
11	0	0	0	0	395	622	
12	0	0	0	0	390	624	
13	0	0	0	0	385	622	
14	0	0	0	0	381	622	
15	0	0	0	0	378	623	
0	0	0	0	0	375	621	
1	0	0	0	0	372	622	
2	0	0	0	0	370	621	
3	0	0	0	0	369	619	
4	0	0	0	0	367	620	
5	0	0	0	0	367	617	
6	0	0	0	0	367	617	
7	0	0	0	0	367	618	
8	0	0	0	0	365	619	
9	0	0	0	0	367	623	
10	0	0	0	0	368	624	
11	0	0	0	0	368	626	
12	0	0	0	0	367	627	
13	0	0	0	0	368	625	
14	0	0	0	0	368	625	
15	0	0	0	0	369	625	
0	0	0	0	0	370	622	
1	0	0	0	0	371	624	
2	0	0	0	0	373	624	
3	0	0	0	0	375	626	
4	0	0	0	0	374	628	
5	0	0	0	0	373	628	
6	0	0	0	0	373	629	
7	0	0	0	0	373	630	
8	0	0	0	0	373	626	
9	0	0	0	0	373	628	
10	0	0	0	0	373	627	
11	0	0	0	0	372	626	
12	0	0	0	0	372	627	
13	0	0	0	0	371	625	
14	0	0	0	0	369	625	
15	0	0	0	0	368	624	
0	0	0	0	0	367	622	
1	0	0	0	0	366	623	
2	0	0	0	0	364	623	
3	0	0	0	0	362	622	
4	0	0	0	0	361	624	
5	0	0	0	0	362	622	
6	0	0	0	0	363	621	
7	0	0	0	0	363	621	
8	0	0	0	0	364	618	
9	0	0	0	0	366	620	
10	0	0	0	0	368	620	
11	0	0	0	0	369	620	
12	0	0	0	0	370	622	
13	0	0	0	0	371	620	
14	0	0	0	0	374	620	
15	0	0	0	0	377	620	
0	0	0	0	0	379	618	
1	0	0	0	0	379	620	
2	0	0	0	0	380	620	
3	0	0	0	0	381	620	
4	0	0	0	0	382	623	
5	0	0	0	0	384	620	
6	0	0	0	0	384	620	
7	0	0	0	0	383	621	
8	0	0	0	0	383	619	
9	0	0	0	0	383	621	
10	0	0	0	0	384	621	
11	0	0	0	0	384	621	
12	0	0	0	0	385	623	
13	0	0	0	0	386	622	
14	0	0	0	0	387	621	
15	0	0	0	0	388	621	
0	0	0	0	0	390	618	
1	0	0	0	0	390	620	
2	0	0	0	0	391	619	
3	0	0	0	0	392	620	
4	0	0	0	0	392	621	
5	0	0	0	0	392	619	
6	0	0	0	0	394	619	
7	0	0	0	0	395	618	
8	0	0	0	0	396	616	
9	0	0	0	0	397	617	
10	0	0	0	0	399	617	
11	0	0	0	0	401	617	
12	0	0	0	0	403	618	
13	0	0	0	0	404	616	
14	0	0	0	0	407	616	
15	0	0	0	0	409	616	
0	0	0	0	0	411	615	
1	0	0	0	0	413	617	
2	0	0	0	0	416	617	
3	0	0	0	0	419	618	
4	0	0	0	0	422	619	
5	0	0	0	0	423	618	
6	0	0	0	0	423	618	
7	0	0	0	0	423	618	
8	0	0	0	0	423	617	
9	0	0	0	0	424	619	
10	0	0	0	0	425	619	
11	0	0	0	0	427	619	
12	0	0	0	0	427	622	
13	0	0	0	0	427	621	
14	0	0	0	0	427	620	
15	0	0	0	0	427	621	
0	0	0	0	0	426	618	
1	0	0	0	0	426	621	
2	0	0	0	0	425	621	
3	0	0	0	0	424	621	
4	0	0	0	0	421	623	
5	0	0	0	0	419	621	
6	0	0	0	0	417	621	
7	0	0	0	0	415	621	
8	0	0	0	0	413	620	
9	0	0	0	0	411	622	
10	0	0	0	0	409	622	
11	0	0	0	0	408	622	
12	0	0	0	0	406	624	
13	0	0	0	0	403	622	
14	0	0	0	0	402	621	
15	0	0	0	0	401	622	
0	0	0	0	0	399	619	
1	0	0	0	0	397	622	
2	0	0	0	0	396	622	
3	0	0	0	0	396	622	
4	0	0	0	0	396	623	
5	0	0	0	0	396	621	
6	0	0	0	0	396	621	
7	0	0	0	0	395	621	
8	0	0	0	0	395	620	
9	0	0	0	0	394	622	
10	0	0	0	0	395	622	
11	0	0	0	0	395	622	
12	0	0	0	0	394	623	
13	0	0	0	0	396	622	
14	0	0	0	0	396	622	
15	0	0	0	0	398	622	
0	0	0	0	0	398	621	
1	0	0	0	0	396	623	
2	0	0	0	0	396	622	
3	0	0	0	0	395	623	
4	0	0	0	0	395	625	
5	0	0	0	0	394	623	
6	0	0	0	0	393	623	
7	0	0	0	0	392	623	
8	0	0	0	0	391	621	
9	0	0	0	0	391	623	
10	0	0	0	0	391	624	
11	0	0	0	0	390	623	
12	0	0	0	0	391	625	
13	0	0	0	0	391	624	
14	0	0	0	0	391	624	
15	0	0	0	0	391	624	
0	0	0	0	0	392	622	
1	0	0	0	0	391	623	
2	0	0	0	0	391	624	
3	0	0	0	0	392	624	
4	0	0	0	0	392	625	
5	0	0	0	0	391	623	
6	0	0	0	0	391	623	
7	0	0	0	0	390	623	
8	0	0	0	0	390	621	
9	0	0	0	0	388	623	
10	0	0	0	0	386	623	
11	0	0	0	0	385	622	
12	0	0	0	0	384	624	
13	0	0	0	0	385	623	
14	0	0	0	0	385	623	
15	0	0	0	0	384	623	
0	0	0	0	0	384	621	
1	0	0	0	0	384	622	
2	0	0	0	0	385	623	
3	0	0	0	0	385	622	
4	0	0	0	0	384	624	
5	0	0	0	0	384	623	
6	0	0	0	0	384	622	
7	0	0	0	0	384	622	
8	0	0	0	0	384	621	
9	0	0	0	0	383	622	
10	0	0	0	0	382	622	
11	0	0	0	0	381	623	
12	0	0	0	0	380	624	
13	0	0	0	0	379	623	
14	0	0	0	0	378	624	
15	0	0	0	0	379	624	
0	0	0	0	0	378	624	
1	0	0	0	0	378	627	
2	0	0	0	0	379	627	
3	0	0	0	0	379	628	
4	0	0	0	0	380	631	
5	0	0	0	0	380	630	
6	0	0	0	0	379	631	
7	0	0	0	0	382	631	
8	0	0	0	0	384	629	
9	0	0	0	0	385	631	
10	0	0	0	0	385	632	
11	0	0	0	0	386	632	
12	0	0	0	0	386	633	
13	0	0	0	0	388	631	
14	0	0	0	0	388	631	
15	0	0	0	0	388	631	
0	0	0	0	0	390	628	
1	0	0	0	0	391	629	
2	0	0	0	0	393	628	
3	0	0	0	0	394	627	
4	0	0	0	0	395	627	
5	0	0	0	0	398	625	
6	0	0	0	0	400	624	
7	0	0	0	0	401	624	
8	0	0	0	0	403	621	
9	0	0	0	0	406	623	
10	0	0	0	0	408	623	
11	0	0	0	0	410	623	
12	0	0	0	0	413	624	
13	0	0	0	0	415	623	
14	0	0	0	0	417	623	
15	0	0	0	0	421	623	
0	0	0	0	0	424	621	
1	0	0	0	0	426	623	
2	0	0	0	0	429	624	
3	0	0	0	0	431	624	
4	0	0	0	0	433	626	
5	0	0	0	0	437	624	
6	0	0	0	0	440	625	
7	0	0	0	0	444	626	
8	0	0	0	0	448	625	
9	0	0	0	0	452	628	
10	0	0	0	0	456	629	
11	0	0	0	0	460	629	
12	0	0	0	0	464	632	
13	0	0	0	0	467	632	
14	0	0	0	0	470	632	
15	0	0	0	0	472	633	
0	0	0	0	0	475	632	
1	0	0	0	0	479	633	
2	0	0	0	0	482	634	
3	0	0	0	0	485	633	
4	0	0	0	0	488	635	
5	0	0	0	0	492	632	
6	0	0	0	0	492	631	
7	0	0	0	0	494	631	
8	0	0	0	0	496	627	
9	0	0	0	0	496	627	
10	0	0	0	0	497	627	
11	0	0	0	0	497	626	
12	0	0	0	0	497	627	
13	0	0	0	0	500	624	
14	0	0	0	0	502	624	
15	0	0	0	0	504	623	
0	0	0	0	0	504	622	
1	0	0	0	0	505	623	
2	0	0	0	0	505	623	
3	0	0	0	0	507	623	
4	0	0	0	0	507	626	
5	0	0	0	0	508	624	
6	0	0	0	0	510	625	
7	0	0	0	0	511	625	
8	0	0	0	0	512	624	
9	0	0	0	0	511	627	
10	0	0	0	0	511	627	
11	0	0	0	0	511	628	
12	0	0	0	0	511	630	
13	0	0	0	0	511	629	
14	0	0	0	0	512	630	
15	0	0	0	0	511	631	
0	0	0	0	0	510	629	
1	0	0	0	0	510	631	
2	0	0	0	0	509	631	
3	0	0	0	0	508	630	
4	0	0	0	0	509	632	
5	0	0	0	0	510	631	
6	0	0	0	0	509	631	
7	0	0	0	0	508	631	
8	0	0	0	0	507	629	
9	0	0	0	0	508	631	
10	0	0	0	0	508	631	
11	0	0	0	0	507	630	
12	0	0	0	0	507	631	
13	0	0	0	0	507	628	
14	0	0	0	0	508	628	
15	0	0	0	0	507	627	
0	0	0	0	0	506	624	
1	0	0	0	0	505	625	
2	0	0	0	0	505	625	
3	0	0	0	0	506	624	
4	0	0	0	0	507	625	
5	0	0	0	0	507	624	
6	0	0	0	0	509	624	
7	0	0	0	0	510	623	
8	0	0	0	0	511	621	
9	0	0	0	0	512	622	
10	0	0	0	0	513	622	
11	0	0	0	0	514	622	
12	0	0	0	0	515	624	
13	0	0	0	0	516	622	
14	0	0	0	0	517	622	
15	0	0	0	0	518	622	
0	0	0	0	0	519	620	
1	0	0	0	0	519	622	
2	0	0	0	0	519	621	
3	0	0	0	0	520	621	
4	0	0	0	0	523	622	
5	0	0	0	0	524	621	
6	0	0	0	0	524	620	
7	0	0	0	0	525	620	
8	0	0	0	0	526	617	
9	0	0	0	0	526	619	
10	0	0	0	0	525	618	
11	0	0	0	0	525	619	
12	0	0	0	0	526	620	
13	0	0	0	0	527	618	
14	0	0	0	0	527	618	
15	0	0	0	0	528	618	
0	0	0	0	0	531	616	
1	0	0	0	0	533	618	
2	0	0	0	0	535	617	
3	0	0	0	0	537	617	
4	0	0	0	0	537	619	
5	0	0	0	0	538	617	
6	0	0	0	0	537	616	
7	0	0	0	0	539	616	
8	0	0	0	0	540	614	
9	0	0	0	0	538	616	
10	0	0	0	0	537	616	
11	0	0	0	0	536	616	
12	0	0	0	0	536	618	
13	0	0	0	0	535	616	
14	0	0	0	0	535	617	
15	0	0	0	0	536	616	
0	0	0	0	0	536	615	
1	0	0	0	0	537	616	
2	0	0	0	0	537	617	
3	0	0	0	0	536	616	
4	0	0	0	0	536	618	
5	0	0	0	0	536	617	
6	0	0	0	0	537	616	
7	0	0	0	0	537	617	
8	0	0	0	0	538	616	
9	0	0	0	0	538	618	
10	0	0	0	0	538	618	
11	0	0	0	0	538	619	
12	0	0	0	0	538	621	
13	0	0	0	0	538	620	
14	0	0	0	0	538	620	
15	0	0	0	0	538	619	
0	0	0	0	0	539	617	
1	0	0	0	0	539	620	
2	0	0	0	0	539	620	
3	0	0	0	0	539	620	
4	0	0	0	0	540	622	
5	0	0	0	0	541	620	
6	0	0	0	0	542	620	
7	0	0	0	0	543	620	
8	0	0	0	0	543	617	
9	0	0	0	0	542	619	
10	0	0	0	0	543	620	
11	0	0	0	0	544	619	
12	0	0	0	0	545	622	
13	0	0	0	0	546	621	
14	0	0	0	0	547	620	
15	0	0	0	0	548	620	
0	0	0	0	0	549	619	
1	0	0	0	0	550	621	
2	0	0	0	0	551	621	
3	0	0	0	0	554	621	
4	0	0	0	0	558	623	
5	0	0	0	0	560	620	
6	0	0	0	0	563	620	
7	0	0	0	0	565	620	
8	0	0	0	0	566	618	
9	0	0	0	0	568	620	
10	0	0	0	0	569	620	
11	0	0	0	0	571	620	
12	0	0	0	0	573	621	
13	0	0	0	0	575	620	
14	0	0	0	0	577	620	
15	0	0	0	0	579	620	
0	0	0	0	0	581	618	
1	0	0	0	0	581	620	
2	0	0	0	0	582	620	
3	0	0	0	0	582	620	
4	0	0	0	0	583	622	
5	0	0	0	0	582	620	
6	0	0	0	0	582	620	
7	0	0	0	0	582	621	
8	0	0	0	0	581	619	
9	0	0	0	0	581	621	
10	0	0	0	0	581	621	
11	0	0	0	0	582	620	
12	0	0	0	0	580	622	
13	0	0	0	0	579	620	
14	0	0	0	0	579	620	
15	0	0	0	0	578	620	
0	0	0	0	0	576	618	
1	0	0	0	0	575	620	
2	0	0	0	0	575	619	
3	0	0	0	0	575	618	
4	0	0	0	0	575	620	
5	0	0	0	0	574	618	
6	0	0	0	0	574	617	
7	0	0	0	0	571	618	
8	0	0	0	0	569	615	
9	0	0	0	0	568	618	
10	0	0	0	0	567	618	
11	0	0	0	0	567	618	
12	0	0	0	0	565	620	
13	0	0	0	0	562	618	
14	0	0	0	0	561	618	
15	0	0	0	0	561	619	
0	0	0	0	0	561	617	
1	0	0	0	0	561	619	
2	0	0	0	0	560	619	
3	0	0	0	0	560	619	
4	0	0	0	0	561	621	
5	0	0	0	0	562	619	
6	0	0	0	0	563	619	
7	0	0	0	0	561	620	
8	0	0	0	0	561	617	
9	0	0	0	0	561	619	
10	0	0	0	0	560	619	
11	0	0	0	0	559	620	
12	0	0	0	0	558	622	
13	0	0	0	0	556	620	
14	0	0	0	0	556	620	
15	0	0	0	0	555	620	
0	0	0	0	0	554	617	
1	0	0	0	0	554	619	
2	0	0	0	0	553	620	
3	0	0	0	0	554	620	
4	0	0	0	0	553	622	
5	0	0	0	0	553	619	
6	0	0	0	0	552	620	
7	0	0	0	0	552	619	
8	0	0	0	0	553	618	
9	0	0	0	0	553	620	
10	0	0	0	0	555	620	
11	0	0	0	0	554	620	
12	0	0	0	0	554	622	
13	0	0	0	0	554	620	
14	0	0	0	0	553	621	
15	0	0	0	0	553	621	
0	0	0	0	0	553	620	
1	0	0	0	0	552	623	
2	0	0	0	0	550	623	
3	0	0	0	0	549	623	
4	0	0	0	0	548	625	
5	0	0	0	0	547	624	
6	0	0	0	0	547	625	
7	0	0	0	0	546	625	
8	0	0	0	0	544	624	
9	0	0	0	0	544	625	
10	0	0	0	0	543	625	
11	0	0	0	0	543	626	
12	0	0	0	0	543	627	
13	0	0	0	0	541	626	
14	0	0	0	0	539	626	
15	0	0	0	0	537	626	
0	0	0	0	0	536	625	
1	0	0	0	0	533	627	
2	0	0	0	0	532	626	
3	0	0	0	0	531	625	
4	0	0	0	0	528	627	
5	0	0	0	0	527	625	
6	0	0	0	0	525	626	
7	0	0	0	0	524	625	
8	0	0	0	0	522	623	
9	0	0	0	0	519	624	
10	0	0	0	0	517	624	
11	0	0	0	0	514	623	
12	0	0	0	0	512	624	
13	0	0	0	0	508	623	
14	0	0	0	0	505	622	
15	0	0	0	0	501	621	
0	0	0	0	0	499	619	
1	0	0	0	0	497	620	
2	0	0	0	0	496	620	
3	0	0	0	0	495	620	
4	0	0	0	0	494	622	
5	0	0	0	0	492	620	
6	0	0	0	0	490	621	
7	0	0	0	0	488	620	
8	0	0	0	0	486	619	
9	0	0	0	0	484	621	
10	0	0	0	0	483	620	
11	0	0	0	0	481	620	
12	0	0	0	0	479	622	
13	0	0	0	0	479	621	
14	0	0	0	0	480	621	
15	0	0	0	0	479	620	
0	0	0	0	0	479	619	
1	0	0	0	0	479	621	
2	0	0	0	0	477	622	
3	0	0	0	0	476	622	
4	0	0	0	0	474	624	
5	0	0	0	0	473	622	
6	0	0	0	0	472	622	
7	0	0	0	0	470	623	
8	0	0	0	0	470	621	
9	0	0	0	0	469	623	
10	0	0	0	0	467	623	
11	0	0	0	0	468	623	
12	0	0	0	0	468	625	
13	0	0	0	0	469	624	
14	0	0	0	0	468	624	
15	0	0	0	0	467	624	
0	0	0	0	0	467	623	
1	0	0	0	0	466	625	
2	0	0	0	0	465	625	
3	0	0	0	0	466	626	
4	0	0	0	0	465	627	
5	0	0	0	0	465	625	
6	0	0	0	0	465	626	
7	0	0	0	0	467	626	
8	0	0	0	0	466	625	
9	0	0	0	0	464	627	
10	0	0	0	0	464	627	
11	0	0	0	0	463	627	
12	0	0	0	0	464	630	
13	0	0	0	0	465	628	
14	0	0	0	0	465	629	
15	0	0	0	0	465	629	
0	0	0	0	0	464	627	
1	0	0	0	0	464	629	
2	0	0	0	0	463	629	
3	0	0	0	0	463	629	
4	0	0	0	0	463	631	
5	0	0	0	0	463	628	
6	0	0	0	0	463	628	
7	0	0	0	0	463	629	
8	0	0	0	0	463	627	
9	0	0	0	0	462	628	
10	0	0	0	0	462	628	
11	0	0	0	0	461	628	
12	0	0	0	0	460	630	
13	0	0	0	0	459	627	
14	0	0	0	0	458	627	
15	0	0	0	0	458	627	
0	0	0	0	0	458	624	
1	0	0	0	0	458	625	
2	0	0	0	0	459	625	
3	0	0	0	0	458	624	
4	0	0	0	0	457	627	
5	0	0	0	0	456	625	
6	0	0	0	0	456	625	
7	0	0	0	0	456	625	
8	0	0	0	0	455	623	
9	0	0	0	0	455	625	
10	0	0	0	0	455	625	
11	0	0	0	0	455	625	
12	0	0	0	0	456	626	
13	0	0	0	0	456	625	
14	0	0	0	0	455	625	
15	0	0	0	0	455	625	
0	0	0	0	0	453	624	
1	0	0	0	0	452	626	
2	0	0	0	0	452	625	
3	0	0	0	0	451	626	
4	0	0	0	0	450	628	
5	0	0	0	0	449	627	
6	0	0	0	0	448	627	
7	0	0	0	0	448	627	
8	0	0	0	0	450	625	
9	0	0	0	0	451	627	
10	0	0	0	0	452	627	
11	0	0	0	0	453	627	
12	0	0	0	0	454	629	
13	0	0	0	0	455	627	
14	0	0	0	0	455	627	
15	0	0	0	0	455	627	
0	0	0	0	0	455	625	
1	0	0	0	0	454	626	
2	0	0	0	0	454	626	
3	0	0	0	0	455	626	
4	0	0	0	0	455	628	
5	0	0	0	0	454	625	
6	0	0	0	0	455	625	
7	0	0	0	0	454	625	
8	0	0	0	0	454	623	
9	0	0	0	0	452	626	
10	0	0	0	0	453	625	
11	0	0	0	0	453	624	
12	0	0	0	0	455	626	
13	0	0	0	0	456	624	
14	0	0	0	0	457	624	
15	0	0	0	0	457	624	
0	0	0	0	0	459	622	
1	0	0	0	0	460	624	
2	0	0	0	0	462	624	
3	0	0	0	0	464	624	
4	0	0	0	0	464	625	
5	0	0	0	0	464	624	
6	0	0	0	0	466	623	
7	0	0	0	0	466	623	
8	0	0	0	0	465	622	
9	0	0	0	0	464	623	
10	0	0	0	0	461	624	
11	0	0	0	0	456	623	
12	0	0	0	0	451	625	
13	0	0	0	0	445	624	
14	0	0	0	0	438	623	
15	0	0	0	0	432	624	
0	0	0	0	0	426	622	
1	0	0	0	0	423	624	
2	0	0	0	0	421	624	
3	0	0	0	0	419	623	
4	0	0	0	0	419	624	
5	0	0	0	0	422	623	
6	0	0	0	0	428	623	
7	0	0	0	0	435	623	
8	0	0	0	0	444	621	
9	0	0	0	0	455	622	
10	0	0	0	0	465	622	
11	0	0	0	0	476	621	
12	0	0	0	0	488	623	
13	0	0	0	0	500	620	
14	0	0	0	0	513	620	
15	0	0	0	0	524	621	
0	0	0	0	0	536	619	
1	0	0	0	0	551	620	
2	0	0	0	0	568	621	
3	0	0	0	0	588	620	
4	0	0	0	0	610	622	
5	0	0	0	0	632	620	
6	0	0	0	0	654	620	
7	0	0	0	0	676	620	
8	0	0	0	0	701	618	
9	0	0	0	0	726	620	
10	0	0	0	0	753	620	
11	0	0	0	0	781	620	
12	0	0	0	0	809	623	
13	0	0	0	0	833	621	
14	0	0	0	0	854	621	
15	0	0	0	0	871	621	
0	0	0	0	0	886	620	
1	0	0	0	0	897	622	
2	0	0	0	0	905	622	
3	0	0	0	0	914	622	
4	0	0	0	0	923	624	
5	0	0	0	0	926	623	
6	0	0	0	0	926	623	
7	0	0	0	0	922	624	
8	0	0	0	0	910	621	
9	0	0	0	0	894	624	
10	0	0	0	0	875	624	
11	0	0	0	0	854	624	
12	0	0	0	0	831	626	
13	0	0	0	0	806	624	
14	0	0	0	0	780	624	
15	0	0	0	0	750	624	
0	0	0	0	0	718	621	
1	0	0	0	0	688	624	
2	0	0	0	0	657	623	
3	0	0	0	0	629	623	
4	0	0	0	0	604	624	
5	0	0	0	0	581	622	
6	0	0	0	0	560	622	
7	0	0	0	0	543	622	
8	0	0	0	0	531	620	
9	0	0	0	0	520	622	
10	0	0	0	0	511	621	
11	0	0	0	0	504	621	
12	0	0	0	0	497	623	
13	0	0	0	0	489	622	
14	0	0	0	0	482	620	
15	0	0	0	0	474	620	
0	0	0	0	0	464	618	
1	0	0	0	0	453	621	
2	0	0	0	0	446	621	
3	0	0	0	0	440	620	
4	0	0	0	0	432	622	
5	0	0	0	0	424	621	
6	0	0	0	0	417	621	
7	0	0	0	0	411	622	
8	0	0	0	0	406	619	
9	0	0	0	0	402	622	
10	0	0	0	0	399	622	
11	0	0	0	0	395	621	
12	0	0	0	0	391	624	
13	0	0	0	0	387	622	
14	0	0	0	0	384	623	
15	0	0	0	0	381	623	
0	0	0	0	0	378	622	
1	0	0	0	0	375	624	
2	0	0	0	0	371	623	
3	0	0	0	0	369	624	
4	0	0	0	0	367	626	
5	0	0	0	0	367	625	
6	0	0	0	0	366	625	
7	0	0	0	0	367	625	
8	0	0	0	0	368	623	
9	0	0	0	0	368	625	
10	0	0	0	0	370	626	
11	0	0	0	0	372	626	
12	0	0	0	0	375	628	
13	0	0	0	0	376	626	
14	0	0	0	0	378	627	
15	0	0	0	0	380	627	
0	0	0	0	0	381	625	
1	0	0	0	0	384	627	
2	0	0	0	0	387	627	
3	0	0	0	0	390	627	
4	0	0	0	0	391	629	
5	0	0	0	0	393	627	
6	0	0	0	0	394	626	
7	0	0	0	0	396	626	
8	0	0	0	0	397	624	
9	0	0	0	0	400	625	
10	0	0	0	0	402	626	
11	0	0	0	0	404	625	
12	0	0	0	0	406	627	
13	0	0	0	0	409	625	
14	0	0	0	0	411	624	
15	0	0	0	0	414	624	
0	0	0	0	0	414	622	
1	0	0	0	0	416	624	
2	0	0	0	0	417	623	
3	0	0	0	0	418	623	
4	0	0	0	0	419	624	
5	0	0	0	0	419	623	
6	0	0	0	0	421	623	
7	0	0	0	0	424	622	
8	0	0	0	0	428	620	
9	0	0	0	0	430	622	
10	0	0	0	0	432	622	
11	0	0	0	0	432	622	
12	0	0	0	0	433	624	
13	0	0	0	0	435	622	
14	0	0	0	0	437	622	
15	0	0	0	0	437	622	
0	0	0	0	0	438	620	
1	0	0	0	0	440	623	
2	0	0	0	0	440	623	
3	0	0	0	0	440	623	
4	0	0	0	0	442	625	
5	0	0	0	0	443	623	
6	0	0	0	0	445	623	
7	0	0	0	0	448	623	
8	0	0	0	0	451	621	
9	0	0	0	0	454	624	
10	0	0	0	0	456	624	
11	0	0	0	0	459	624	
12	0	0	0	0	461	625	
13	0	0	0	0	461	624	
14	0	0	0	0	463	624	
15	0	0	0	0	465	624	
0	0	0	0	0	467	622	
1	0	0	0	0	468	624	
2	0	0	0	0	469	624	
3	0	0	0	0	470	624	
4	0	0	0	0	471	625	
5	0	0	0	0	473	624	
6	0	0	0	0	475	624	
7	0	0	0	0	476	623	
8	0	0	0	0	479	621	
9	0	0	0	0	480	623	
10	0	0	0	0	482	623	
11	0	0	0	0	485	622	
12	0	0	0	0	487	624	
13	0	0	0	0	488	622	
14	0	0	0	0	490	622	
15	0	0	0	0	491	622	
0	0	0	0	0	492	620	
1	0	0	0	0	494	622	
2	0	0	0	0	494	622	
3	0	0	0	0	494	621	
4	0	0	0	0	496	623	
5	0	0	0	0	498	622	
6	0	0	0	0	501	622	
7	0	0	0	0	503	621	
8	0	0	0	0	503	620	
9	0	0	0	0	504	622	
10	0	0	0	0	504	622	
11	0	0	0	0	504	622	
12	0	0	0	0	504	624	
13	0	0	0	0	504	621	
14	0	0	0	0	503	622	
15	0	0	0	0	502	622	
0	0	0	0	0	501	620	
1	0	0	0	0	501	622	
2	0	0	0	0	501	622	
3	0	0	0	0	500	622	
4	0	0	0	0	500	624	
5	0	0	0	0	499	621	
6	0	0	0	0	498	622	
7	0	0	0	0	499	622	
8	0	0	0	0	498	620	
9	0	0	0	0	498	622	
10	0	0	0	0	497	622	
11	0	0	0	0	494	622	
12	0	0	0	0	494	624	
13	0	0	0	0	494	623	
14	0	0	0	0	493	622	
15	0	0	0	0	493	622	
0	0	0	0	0	493	620	
1	0	0	0	0	492	622	
2	0	0	0	0	490	621	
3	0	0	0	0	489	622	
4	0	0	0	0	487	624	
5	0	0	0	0	486	622	
6	0	0	0	0	487	623	
7	0	0	0	0	486	622	
8	0	0	0	0	487	620	
9	0	0	0	0	489	622	
10	0	0	0	0	490	622	
11	0	0	0	0	492	622	
12	0	0	0	0	493	623	
13	0	0	0	0	495	622	
14	0	0	0	0	496	621	
15	0	0	0	0	498	622	
0	0	0	0	0	499	620	
1	0	0	0	0	502	621	
2	0	0	0	0	503	621	
3	0	0	0	0	504	621	
4	0	0	0	0	505	623	
5	0	0	0	0	504	621	
6	0	0	0	0	504	622	
7	0	0	0	0	504	621	
8	0	0	0	0	504	619	
9	0	0	0	0	506	622	
10	0	0	0	0	506	621	
11	0	0	0	0	507	621	
12	0	0	0	0	507	623	
13	0	0	0	0	506	622	
14	0	0	0	0	507	621	
15	0	0	0	0	505	622	
0	0	0	0	0	506	620	
1	0	0	0	0	508	622	
2	0	0	0	0	508	621	
3	0	0	0	0	509	621	
4	0	0	0	0	510	623	
5	0	0	0	0	511	621	
6	0	0	0	0	512	622	
7	0	0	0	0	512	623	
8	0	0	0	0	513	621	
9	0	0	0	0	513	623	
10	0	0	0	0	514	624	
11	0	0	0	0	515	625	
12	0	0	0	0	517	627	
13	0	0	0	0	517	625	
14	0	0	0	0	517	625	
15	0	0	0	0	518	624	
0	0	0	0	0	518	622	
1	0	0	0	0	517	624	
2	0	0	0	0	516	623	
3	0	0	0	0	515	622	
4	0	0	0	0	515	623	
5	0	0	0	0	516	621	
6	0	0	0	0	515	620	
7	0	0	0	0	515	620	
8	0	0	0	0	513	619	
9	0	0	0	0	513	620	
10	0	0	0	0	513	619	
11	0	0	0	0	512	620	
12	0	0	0	0	512	621	
13	0	0	0	0	512	620	
14	0	0	0	0	512	619	
15	0	0	0	0	512	619	
0	0	0	0	0	511	618	
1	0	0	0	0	510	619	
2	0	0	0	0	510	619	
3	0	0	0	0	510	619	
4	0	0	0	0	507	621	
5	0	0	0	0	506	619	
6	0	0	0	0	504	619	
7	0	0	0	0	502	619	
8	0	0	0	0	501	617	
9	0	0	0	0	500	620	
10	0	0	0	0	499	620	
11	0	0	0	0	499	620	
12	0	0	0	0	499	622	
13	0	0	0	0	499	621	
14	0	0	0	0	500	621	
15	0	0	0	0	500	622	
0	0	0	0	0	501	620	
1	0	0	0	0	502	622	
2	0	0	0	0	503	622	
3	0	0	0	0	503	622	
4	0	0	0	0	506	624	
5	0	0	0	0	508	623	
6	0	0	0	0	510	623	
7	0	0	0	0	512	623	
8	0	0	0	0	512	621	
9	0	0	0	0	513	624	
10	0	0	0	0	515	624	
11	0	0	0	0	516	624	
12	0	0	0	0	517	626	
13	0	0	0	0	519	624	
14	0	0	0	0	522	624	
15	0	0	0	0	524	624	
0	0	0	0	0	524	622	
1	0	0	0	0	524	625	
2	0	0	0	0	525	625	
3	0	0	0	0	525	625	
4	0	0	0	0	527	626	
5	0	0	0	0	529	625	
6	0	0	0	0	531	625	
7	0	0	0	0	532	625	
8	0	0	0	0	533	624	
9	0	0	0	0	534	625	
10	0	0	0	0	535	626	
11	0	0	0	0	534	626	
12	0	0	0	0	535	628	
13	0	0	0	0	537	626	
14	0	0	0	0	539	626	
15	0	0	0	0	540	626	
0	0	0	0	0	542	624	
1	0	0	0	0	544	626	
2	0	0	0	0	547	626	
3	0	0	0	0	548	625	
4	0	0	0	0	549	627	
5	0	0	0	0	550	625	
6	0	0	0	0	551	626	
7	0	0	0	0	553	625	
8	0	0	0	0	553	623	
9	0	0	0	0	553	625	
10	0	0	0	0	554	625	
11	0	0	0	0	555	626	
12	0	0	0	0	557	628	
13	0	0	0	0	558	626	
14	0	0	0	0	559	627	
15	0	0	0	0	559	626	
0	0	0	0	0	560	625	
1	0	0	0	0	559	627	
2	0	0	0	0	559	627	
3	0	0	0	0	559	628	
4	0	0	0	0	558	630	
5	0	0	0	0	556	629	
6	0	0	0	0	556	629	
7	0	0	0	0	556	629	
8	0	0	0	0	556	627	
9	0	0	0	0	555	628	
10	0	0	0	0	554	628	
11	0	0	0	0	553	629	
12	0	0	0	0	552	631	
13	0	0	0	0	552	628	
14	0	0	0	0	551	628	
15	0	0	0	0	551	628	
0	0	0	0	0	552	626	
1	0	0	0	0	551	628	
2	0	0	0	0	550	628	
3	0	0	0	0	551	627	
4	0	0	0	0	551	629	
5	0	0	0	0	551	627	
6	0	0	0	0	550	627	
7	0	0	0	0	549	627	
8	0	0	0	0	549	625	
9	0	0	0	0	548	626	
10	0	0	0	0	548	626	
11	0	0	0	0	546	625	
12	0	0	0	0	547	627	
13	0	0	0	0	546	626	
14	0	0	0	0	545	626	
15	0	0	0	0	543	625	
0	0	0	0	0	543	624	
1	0	0	0	0	542	624	
2	0	0	0	0	542	624	
3	0	0	0	0	542	624	
4	0	0	0	0	541	626	
5	0	0	0	0	540	624	
6	0	0	0	0	540	624	
7	0	0	0	0	540	623	
8	0	0	0	0	538	621	
9	0	0	0	0	537	622	
10	0	0	0	0	537	622	
11	0	0	0	0	536	622	
12	0	0	0	0	536	623	
13	0	0	0	0	535	621	
14	0	0	0	0	536	622	
15	0	0	0	0	536	621	
0	0	0	0	0	535	619	
1	0	0	0	0	534	621	
2	0	0	0	0	534	620	
3	0	0	0	0	532	620	
4	0	0	0	0	531	622	
5	0	0	0	0	529	620	
6	0	0	0	0	528	620	
7	0	0	0	0	528	620	
8	0	0	0	0	529	618	
9	0	0	0	0	528	619	
10	0	0	0	0	528	619	
11	0	0	0	0	528	620	
12	0	0	0	0	527	621	
13	0	0	0	0	525	620	
14	0	0	0	0	524	619	
15	0	0	0	0	524	619	
0	0	0	0	0	525	617	
1	0	0	0	0	525	619	
2	0	0	0	0	524	618	
3	0	0	0	0	524	618	
4	0	0	0	0	526	620	
5	0	0	0	0	526	618	
6	0	0	0	0	526	617	
7	0	0	0	0	526	617	
8	0	0	0	0	525	616	
9	0	0	0	0	525	617	
10	0	0	0	0	525	617	
11	0	0	0	0	524	618	
12	0	0	0	0	522	619	
13	0	0	0	0	521	617	
14	0	0	0	0	521	618	
15	0	0	0	0	521	618	
0	0	0	0	0	523	616	
1	0	0	0	0	524	619	
2	0	0	0	0	523	619	
3	0	0	0	0	523	620	
4	0	0	0	0	524	622	
5	0	0	0	0	525	620	
6	0	0	0	0	525	621	
7	0	0	0	0	526	621	
8	0	0	0	0	525	620	
9	0	0	0	0	525	622	
10	0	0	0	0	527	622	
11	0	0	0	0	527	623	
12	0	0	0	0	528	624	
13	0	0	0	0	529	623	
14	0	0	0	0	527	622	
15	0	0	0	0	526	623	
0	0	0	0	0	526	621	
1	0	0	0	0	525	624	
2	0	0	0	0	526	623	
3	0	0	0	0	527	623	
4	0	0	0	0	526	625	
5	0	0	0	0	526	623	
6	0	0	0	0	526	623	
7	0	0	0	0	526	622	
8	0	0	0	0	526	620	
9	0	0	0	0	526	622	
10	0	0	0	0	528	622	
11	0	0	0	0	530	622	
12	0	0	0	0	530	623	
13	0	0	0	0	530	622	
14	0	0	0	0	529	621	
15	0	0	0	0	531	621	
0	0	0	0	0	531	619	
1	0	0	0	0	532	621	
2	0	0	0	0	533	620	
3	0	0	0	0	533	620	
4	0	0	0	0	534	622	
5	0	0	0	0	534	620	
6	0	0	0	0	535	620	
7	0	0	0	0	536	620	
8	0	0	0	0	537	618	
9	0	0	0	0	538	620	
10	0	0	0	0	539	620	
11	0	0	0	0	539	620	
12	0	0	0	0	539	622	
13	0	0	0	0	540	621	
14	0	0	0	0	540	621	
15	0	0	0	0	540	621	
0	0	0	0	0	541	619	
1	0	0	0	0	541	621	
2	0	0	0	0	541	621	
3	0	0	0	0	542	622	
4	0	0	0	0	542	624	
5	0	0	0	0	543	622	
6	0	0	0	0	543	622	
7	0	0	0	0	543	622	
8	0	0	0	0	544	621	
9	0	0	0	0	544	623	
10	0	0	0	0	545	623	
11	0	0	0	0	545	624	
12	0	0	0	0	545	625	
13	0	0	0	0	544	624	
14	0	0	0	0	544	624	
15	0	0	0	0	544	624	
0	0	0	0	0	545	623	
1	0	0	0	0	544	625	
2	0	0	0	0	545	625	
3	0	0	0	0	545	626	
4	0	0	0	0	545	627	
5	0	0	0	0	546	625	
6	0	0	0	0	547	625	
7	0	0	0	0	547	625	
8	0	0	0	0	546	624	
9	0	0	0	0	544	625	
10	0	0	0	0	544	625	
11	0	0	0	0	545	625	
12	0	0	0	0	546	627	
13	0	0	0	0	547	625	
14	0	0	0	0	548	626	
15	0	0	0	0	549	625	
0	0	0	0	0	550	624	
1	0	0	0	0	551	626	
2	0	0	0	0	551	626	
3	0	0	0	0	550	627	
4	0	0	0	0	550	628	
5	0	0	0	0	549	627	
6	0	0	0	0	549	627	
7	0	0	0	0	548	627	
8	0	0	0	0	548	627	
9	0	0	0	0	549	627	
10	0	0	0	0	550	627	
11	0	0	0	0	550	627	
12	0	0	0	0	549	628	
13	0	0	0	0	547	627	
14	0	0	0	0	548	627	
15	0	0	0	0	550	627	
0	0	0	0	0	551	626	
1	0	0	0	0	551	627	
2	0	0	0	0	552	628	
3	0	0	0	0	552	628	
4	0	0	0	0	551	629	
5	0	0	0	0	551	628	
6	0	0	0	0	551	627	
7	0	0	0	0	552	627	
8	0	0	0	0	551	625	
9	0	0	0	0	551	627	
10	0	0	0	0	550	627	
11	0	0	0	0	549	626	
12	0	0	0	0	547	628	
13	0	0	0	0	547	626	
14	0	0	0	0	547	626	
15	0	0	0	0	546	626	
0	0	0	0	0	546	624	
1	0	0	0	0	547	626	
2	0	0	0	0	547	626	
3	0	0	0	0	549	626	
4	0	0	0	0	550	628	
5	0	0	0	0	550	625	
6	0	0	0	0	550	626	
7	0	0	0	0	551	625	
8	0	0	0	0	551	623	
9	0	0	0	0	553	625	
10	0	0	0	0	554	624	
11	0	0	0	0	555	624	
12	0	0	0	0	555	626	
13	0	0	0	0	555	624	
14	0	0	0	0	556	623	
15	0	0	0	0	555	623	
0	0	0	0	0	554	622	
1	0	0	0	0	553	622	
2	0	0	0	0	552	623	
3	0	0	0	0	553	622	
4	0	0	0	0	554	623	
5	0	0	0	0	553	622	
6	0	0	0	0	552	621	
7	0	0	0	0	550	621	
8	0	0	0	0	549	619	
9	0	0	0	0	548	621	
10	0	0	0	0	549	621	
11	0	0	0	0	551	621	
12	0	0	0	0	551	623	
13	0	0	0	0	551	621	
14	0	0	0	0	551	621	
15	0	0	0	0	550	621	
0	0	0	0	0	550	619	
1	0	0	0	0	551	621	
2	0	0	0	0	550	621	
3	0	0	0	0	549	622	
4	0	0	0	0	550	623	
5	0	0	0	0	550	621	
6	0	0	0	0	549	621	
7	0	0	0	0	550	621	
8	0	0	0	0	550	620	
9	0	0	0	0	548	621	
10	0	0	0	0	546	621	
11	0	0	0	0	545	622	
12	0	0	0	0	545	623	
13	0	0	0	0	545	621	
14	0	0	0	0	545	621	
15	0	0	0	0	544	620	
0	0	0	0	0	544	618	
1	0	0	0	0	543	620	
2	0	0	0	0	541	620	
3	0	0	0	0	540	620	
4	0	0	0	0	539	622	
5	0	0	0	0	538	620	
6	0	0	0	0	537	620	
7	0	0	0	0	537	620	
8	0	0	0	0	539	618	
9	0	0	0	0	537	620	
10	0	0	0	0	537	620	
11	0	0	0	0	537	619	
12	0	0	0	0	537	621	
13	0	0	0	0	537	620	
14	0	0	0	0	537	620	
15	0	0	0	0	537	620	
0	0	0	0	0	536	618	
1	0	0	0	0	534	620	
2	0	0	0	0	533	620	
3	0	0	0	0	532	620	
4	0	0	0	0	531	622	
5	0	0	0	0	531	621	
6	0	0	0	0	530	620	
7	0	0	0	0	528	621	
8	0	0	0	0	526	620	
9	0	0	0	0	525	621	
10	0	0	0	0	523	621	
11	0	0	0	0	521	622	
12	0	0	0	0	519	624	
13	0	0	0	0	518	622	
14	0	0	0	0	516	623	
15	0	0	0	0	516	622	
0	0	0	0	0	516	621	
1	0	0	0	0	516	622	
2	0	0	0	0	515	623	
3	0	0	0	0	516	622	
4	0	0	0	0	518	624	
5	0	0	0	0	516	623	
6	0	0	0	0	516	622	
7	0	0	0	0	515	622	
8	0	0	0	0	514	620	
9	0	0	0	0	512	622	
10	0	0	0	0	511	621	
11	0	0	0	0	509	622	
12	0	0	0	0	507	623	
13	0	0	0	0	507	621	
14	0	0	0	0	505	621	
15	0	0	0	0	504	621	
0	0	0	0	0	502	620	
1	0	0	0	0	501	621	
2	0	0	0	0	501	621	
3	0	0	0	0	501	620	
4	0	0	0	0	501	623	
5	0	0	0	0	501	621	
6	0	0	0	0	503	621	
7	0	0	0	0	503	621	
8	0	0	0	0	502	620	
9	0	0	0	0	503	621	
10	0	0	0	0	502	622	
11	0	0	0	0	503	622	
12	0	0	0	0	504	623	
13	0	0	0	0	504	622	
14	0	0	0	0	503	622	
15	0	0	0	0	502	623	
0	0	0	0	0	499	621	
1	0	0	0	0	499	622	
2	0	0	0	0	497	623	
3	0	0	0	0	496	622	
4	0	0	0	0	494	624	
5	0	0	0	0	492	623	
6	0	0	0	0	491	623	
7	0	0	0	0	488	623	
8	0	0	0	0	487	621	
9	0	0	0	0	486	623	
10	0	0	0	0	483	623	
11	0	0	0	0	480	624	
12	0	0	0	0	476	625	
13	0	0	0	0	471	624	
14	0	0	0	0	468	624	
15	0	0	0	0	463	624	
0	0	0	0	0	459	623	
1	0	0	0	0	454	624	
2	0	0	0	0	450	624	
3	0	0	0	0	448	624	
4	0	0	0	0	448	627	
5	0	0	0	0	451	625	
6	0	0	0	0	456	625	
7	0	0	0	0	464	624	
8	0	0	0	0	473	623	
9	0	0	0	0	484	624	
10	0	0	0	0	494	624	
11	0	0	0	0	505	624	
12	0	0	0	0	515	626	
13	0	0	0	0	528	624	
14	0	0	0	0	540	623	
15	0	0	0	0	551	623	
0	0	0	0	0	563	622	
1	0	0	0	0	575	623	
2	0	0	0	0	591	623	
3	0	0	0	0	608	623	
4	0	0	0	0	630	625	
5	0	0	0	0	653	624	
6	0	0	0	0	678	623	
7	0	0	0	0	701	623	
8	0	0	0	0	725	622	
9	0	0	0	0	750	624	
10	0	0	0	0	776	624	
11	0	0	0	0	803	623	
12	0	0	0	0	831	625	
13	0	0	0	0	859	624	
14	0	0	0	0	883	624	
15	0	0	0	0	905	624	
0	0	0	0	0	923	622	
1	0	0	0	0	938	625	
2	0	0	0	0	948	624	
3	0	0	0	0	955	624	
4	0	0	0	0	962	627	
5	0	0	0	0	969	625	
6	0	0	0	0	971	625	
7	0	0	0	0	967	625	
8	0	0	0	0	959	623	
9	0	0	0	0	947	625	
10	0	0	0	0	929	625	
11	0	0	0	0	909	625	
12	0	0	0	0	886	627	
13	0	0	0	0	862	625	
14	0	0	0	0	834	624	
15	0	0	0	0	804	625	
0	0	0	0	0	772	622	
1	0	0	0	0	740	624	
2	0	0	0	0	706	625	
3	0	0	0	0	675	625	
4	0	0	0	0	644	627	
5	0	0	0	0	618	625	
6	0	0	0	0	593	624	
7	0	0	0	0	572	624	
8	0	0	0	0	555	623	
9	0	0	0	0	540	624	
10	0	0	0	0	529	624	
11	0	0	0	0	521	624	
12	0	0	0	0	512	626	
13	0	0	0	0	504	624	
14	0	0	0	0	496	624	
15	0	0	0	0	490	624	
0	0	0	0	0	481	622	
1	0	0	0	0	472	624	
2	0	0	0	0	462	624	
3	0	0	0	0	451	624	
4	0	0	0	0	442	626	
5	0	0	0	0	433	624	
6	0	0	0	0	424	623	
7	0	0	0	0	417	623	
8	0	0	0	0	410	622	
9	0	0	0	0	404	623	
10	0	0	0	0	400	623	
11	0	0	0	0	394	623	
12	0	0	0	0	390	625	
13	0	0	0	0	384	623	
14	0	0	0	0	379	622	
15	0	0	0	0	374	623	
0	0	0	0	0	368	620	
1	0	0	0	0	365	622	
2	0	0	0	0	362	622	
3	0	0	0	0	357	622	
4	0	0	0	0	353	623	
5	0	0	0	0	351	622	
6	0	0	0	0	348	622	
7	0	0	0	0	344	622	
8	0	0	0	0	342	619	
9	0	0	0	0	339	621	
10	0	0	0	0	336	621	
11	0	0	0	0	333	621	
12	0	0	0	0	332	623	
13	0	0	0	0	331	621	
14	0	0	0	0	330	621	
15	0	0	0	0	327	621	
0	0	0	0	0	325	619	
1	0	0	0	0	324	620	
2	0	0	0	0	324	621	
3	0	0	0	0	323	620	
4	0	0	0	0	323	623	
5	0	0	0	0	324	621	
6	0	0	0	0	324	621	
7	0	0	0	0	326	621	
8	0	0	0	0	326	619	
9	0	0	0	0	326	621	
10	0	0	0	0	325	622	
11	0	0	0	0	326	622	
12	0	0	0	0	325	624	
13	0	0	0	0	325	622	
14	0	0	0	0	324	623	
15	0	0	0	0	323	623	
0	0	0	0	0	323	621	
1	0	0	0	0	323	623	
2	0	0	0	0	324	623	
3	0	0	0	0	323	623	
4	0	0	0	0	322	625	
5	0	0	0	0	323	623	
6	0	0	0	0	323	624	
7	0	0	0	0	322	623	
8	0	0	0	0	321	622	
9	0	0	0	0	320	623	
10	0	0	0	0	317	624	
11	0	0	0	0	316	624	
12	0	0	0	0	316	625	
13	0	0	0	0	314	624	
14	0	0	0	0	312	624	
15	0	0	0	0	310	623	
0	0	0	0	0	310	622	
1	0	0	0	0	309	623	
2	0	0	0	0	308	623	
3	0	0	0	0	308	623	
4	0	0	0	0	309	625	
5	0	0	0	0	308	624	
6	0	0	0	0	308	624	
7	0	0	0	0	308	623	
8	0	0	0	0	309	622	
9	0	0	0	0	309	624	
10	0	0	0	0	308	623	
11	0	0	0	0	309	624	
12	0	0	0	0	308	625	
13	0	0	0	0	309	624	
14	0	0	0	0	309	623	
15	0	0	0	0	310	623	
0	0	0	0	0	311	621	
1	0	0	0	0	312	623	
2	0	0	0	0	312	624	
3	0	0	0	0	313	624	
4	0	0	0	0	315	625	
5	0	0	0	0	317	622	
6	0	0	0	0	317	623	
7	0	0	0	0	318	624	
8	0	0	0	0	319	621	
9	0	0	0	0	320	624	
10	0	0	0	0	321	623	
11	0	0	0	0	322	623	
12	0	0	0	0	323	625	
13	0	0	0	0	324	623	
14	0	0	0	0	324	624	
15	0	0	0	0	325	623	
0	0	0	0	0	326	621	
1	0	0	0	0	327	624	
2	0	0	0	0	327	624	
3	0	0	0	0	327	623	
4	0	0	0	0	327	626	
5	0	0	0	0	328	623	
6	0	0	0	0	329	624	
7	0	0	0	0	330	624	
8	0	0	0	0	331	622	
9	0	0	0	0	331	624	
10	0	0	0	0	331	624	
11	0	0	0	0	332	624	
12	0	0	0	0	332	625	
13	0	0	0	0	332	624	
14	0	0	0	0	333	623	
15	0	0	0	0	333	623	
0	0	0	0	0	333	622	
1	0	0	0	0	332	623	
2	0	0	0	0	332	623	
3	0	0	0	0	332	624	
4	0	0	0	0	332	625	
5	0	0	0	0	331	623	
6	0	0	0	0	330	623	
7	0	0	0	0	331	623	
8	0	0	0	0	331	621	
9	0	0	0	0	329	622	
10	0	0	0	0	329	621	
11	0	0	0	0	328	623	
12	0	0	0	0	329	624	
13	0	0	0	0	331	622	
14	0	0	0	0	332	622	
15	0	0	0	0	333	622	
0	0	0	0	0	333	620	
1	0	0	0	0	334	622	
2	0	0	0	0	335	622	
3	0	0	0	0	336	622	
4	0	0	0	0	337	623	
5	0	0	0	0	338	622	
6	0	0	0	0	339	622	
7	0	0	0	0	339	621	
8	0	0	0	0	340	619	
9	0	0	0	0	342	622	
10	0	0	0	0	344	622	
11	0	0	0	0	345	621	
12	0	0	0	0	347	623	
13	0	0	0	0	347	621	
14	0	0	0	0	348	621	
15	0	0	0	0	350	622	
0	0	0	0	0	351	619	
1	0	0	0	0	351	621	
2	0	0	0	0	352	621	
3	0	0	0	0	354	621	
4	0	0	0	0	355	623	
5	0	0	0	0	358	621	
6	0	0	0	0	360	620	
7	0	0	0	0	362	621	
8	0	0	0	0	365	619	
9	0	0	0	0	365	620	
10	0	0	0	0	367	620	
11	0	0	0	0	368	620	
12	0	0	0	0	369	623	
13	0	0	0	0	371	621	
14	0	0	0	0	371	621	
15	0	0	0	0	373	621	
0	0	0	0	0	375	619	
1	0	0	0	0	376	621	
2	0	0	0	0	381	621	
3	0	0	0	0	384	621	
4	0	0	0	0	387	624	
5	0	0	0	0	388	622	
6	0	0	0	0	389	622	
7	0	0	0	0	391	623	
8	0	0	0	0	392	621	
9	0	0	0	0	394	622	
10	0	0	0	0	396	623	
11	0	0	0	0	397	622	
12	0	0	0	0	397	625	
13	0	0	0	0	399	623	
14	0	0	0	0	400	623	
15	0	0	0	0	402	623	
0	0	0	0	0	403	620	
1	0	0	0	0	405	623	
2	0	0	0	0	406	622	
3	0	0	0	0	408	622	
4	0	0	0	0	409	623	
5	0	0	0	0	409	622	
6	0	0	0	0	410	622	
7	0	0	0	0	410	622	
8	0	0	0	0	410	620	
9	0	0	0	0	411	622	
10	0	0	0	0	413	621	
11	0	0	0	0	415	622	
12	0	0	0	0	416	624	
13	0	0	0	0	416	622	
14	0	0	0	0	417	622	
15	0	0	0	0	419	621	
0	0	0	0	0	421	619	
1	0	0	0	0	423	622	
2	0	0	0	0	424	622	
3	0	0	0	0	426	622	
4	0	0	0	0	427	624	
5	0	0	0	0	429	623	
6	0	0	0	0	430	623	
7	0	0	0	0	431	623	
8	0	0	0	0	432	621	
9	0	0	0	0	433	623	
10	0	0	0	0	435	623	
11	0	0	0	0	437	623	
12	0	0	0	0	438	625	
13	0	0	0	0	438	624	
14	0	0	0	0	439	624	
15	0	0	0	0	440	623	
0	0	0	0	0	440	622	
1	0	0	0	0	442	623	
2	0	0	0	0	444	623	
3	0	0	0	0	445	623	
4	0	0	0	0	447	624	
5	0	0	0	0	449	623	
6	0	0	0	0	450	623	
7	0	0	0	0	453	622	
8	0	0	0	0	455	621	
9	0	0	0	0	457	622	
10	0	0	0	0	460	622	
11	0	0	0	0	462	622	
12	0	0	0	0	464	624	
13	0	0	0	0	465	623	
14	0	0	0	0	467	622	
15	0	0	0	0	469	622	
0	0	0	0	0	470	621	
1	0	0	0	0	471	622	
2	0	0	0	0	472	622	
3	0	0	0	0	475	622	
4	0	0	0	0	476	624	
5	0	0	0	0	477	623	
6	0	0	0	0	478	623	
7	0	0	0	0	480	622	
8	0	0	0	0	481	620	
9	0	0	0	0	485	623	
10	0	0	0	0	487	623	
11	0	0	0	0	490	623	
12	0	0	0	0	490	624	
13	0	0	0	0	492	623	
14	0	0	0	0	494	623	
15	0	0	0	0	497	624	
0	0	0	0	0	497	621	
1	0	0	0	0	498	623	
2	0	0	0	0	499	624	
3	0	0	0	0	499	624	
4	0	0	0	0	500	626	
5	0	0	0	0	499	624	
6	0	0	0	0	500	624	
7	0	0	0	0	501	625	
8	0	0	0	0	502	623	
9	0	0	0	0	501	625	
10	0	0	0	0	501	625	
11	0	0	0	0	503	624	
12	0	0	0	0	502	626	
13	0	0	0	0	501	625	
14	0	0	0	0	500	625	
15	0	0	0	0	499	624	
0	0	0	0	0	499	623	
1	0	0	0	0	499	624	
2	0	0	0	0	499	624	
3	0	0	0	0	498	624	
4	0	0	0	0	498	626	
5	0	0	0	0	496	625	
6	0	0	0	0	496	624	
7	0	0	0	0	496	624	
8	0	0	0	0	495	622	
9	0	0	0	0	496	624	
10	0	0	0	0	495	624	
11	0	0	0	0	495	624	
12	0	0	0	0	495	625	
13	0	0	0	0	493	623	
14	0	0	0	0	491	623	
15	0	0	0	0	490	623	
0	0	0	0	0	487	622	
1	0	0	0	0	487	624	
2	0	0	0	0	485	623	
3	0	0	0	0	484	623	
4	0	0	0	0	482	624	
5	0	0	0	0	480	623	
6	0	0	0	0	479	622	
7	0	0	0	0	478	623	
8	0	0	0	0	478	620	
9	0	0	0	0	477	622	
10	0	0	0	0	476	622	
11	0	0	0	0	476	622	
12	0	0	0	0	478	624	
13	0	0	0	0	478	621	
14	0	0	0	0	477	621	
15	0	0	0	0	477	621	
0	0	0	0	0	478	619	
1	0	0	0	0	477	621	
2	0	0	0	0	478	621	
3	0	0	0	0	478	621	
4	0	0	0	0	478	623	
5	0	0	0	0	479	622	
6	0	0	0	0	478	622	
7	0	0	0	0	477	622	
8	0	0	0	0	477	620	
9	0	0	0	0	476	622	
10	0	0	0	0	476	622	
11	0	0	0	0	476	623	
12	0	0	0	0	477	624	
13	0	0	0	0	478	623	
14	0	0	0	0	478	623	
15	0	0	0	0	479	624	
0	0	0	0	0	479	622	
1	0	0	0	0	480	623	
2	0	0	0	0	481	623	
3	0	0	0	0	482	623	
4	0	0	0	0	484	625	
5	0	0	0	0	486	623	
6	0	0	0	0	487	624	
7	0	0	0	0	487	624	
8	0	0	0	0	487	621	
9	0	0	0	0	488	624	
10	0	0	0	0	489	623	
11	0	0	0	0	490	624	
12	0	0	0	0	490	625	
13	0	0	0	0	492	624	
14	0	0	0	0	492	623	
15	0	0	0	0	493	623	
0	0	0	0	0	492	622	
1	0	0	0	0	492	624	
2	0	0	0	0	493	623	
3	0	0	0	0	493	623	
4	0	0	0	0	494	624	
5	0	0	0	0	494	622	
6	0	0	0	0	494	623	
7	0	0	0	0	493	623	
8	0	0	0	0	493	620	
9	0	0	0	0	492	622	
10	0	0	0	0	492	622	
11	0	0	0	0	492	621	
12	0	0	0	0	492	623	
13	0	0	0	0	492	622	
14	0	0	0	0	491	621	
15	0	0	0	0	490	621	
0	0	0	0	0	491	619	
1	0	0	0	0	489	621	
2	0	0	0	0	489	621	
3	0	0	0	0	490	620	
4	0	0	0	0	491	622	
5	0	0	0	0	489	620	
6	0	0	0	0	489	620	
7	0	0	0	0	488	621	
8	0	0	0	0	487	619	
9	0	0	0	0	487	620	
10	0	0	0	0	485	620	
11	0	0	0	0	483	621	
12	0	0	0	0	484	623	
13	0	0	0	0	484	621	
14	0	0	0	0	484	622	
15	0	0	0	0	485	622	
0	0	0	0	0	487	620	
1	0	0	0	0	487	623	
2	0	0	0	0	487	622	
3	0	0	0	0	487	622	
4	0	0	0	0	487	624	
5	0	0	0	0	489	624	
6	0	0	0	0	488	623	
7	0	0	0	0	489	623	
8	0	0	0	0	488	622	
9	0	0	0	0	488	624	
10	0	0	0	0	489	623	
11	0	0	0	0	491	623	
12	0	0	0	0	492	624	
13	0	0	0	0	492	623	
14	0	0	0	0	492	623	
15	0	0	0	0	493	624	
0	0	0	0	0	493	621	
1	0	0	0	0	494	623	
2	0	0	0	0	495	623	
3	0	0	0	0	495	623	
4	0	0	0	0	494	624	
5	0	0	0	0	495	623	
6	0	0	0	0	494	623	
7	0	0	0	0	494	624	
8	0	0	0	0	494	621	
9	0	0	0	0	493	624	
10	0	0	0	0	492	624	
11	0	0	0	0	492	624	
12	0	0	0	0	491	625	
13	0	0	0	0	489	624	
14	0	0	0	0	488	624	
15	0	0	0	0	487	624	
0	0	0	0	0	487	623	
1	0	0	0	0	487	625	
2	0	0	0	0	486	625	
3	0	0	0	0	485	624	
4	0	0	0	0	486	626	
5	0	0	0	0	486	624	
6	0	0	0	0	486	624	
7	0	0	0	0	485	625	
8	0	0	0	0	486	622	
9	0	0	0	0	486	625	
10	0	0	0	0	486	624	
11	0	0	0	0	483	624	
12	0	0	0	0	482	625	
13	0	0	0	0	480	624	
14	0	0	0	0	481	624	
15	0	0	0	0	480	624	
0	0	0	0	0	480	623	
1	0	0	0	0	478	625	
2	0	0	0	0	479	625	
3	0	0	0	0	480	624	
4	0	0	0	0	481	626	
5	0	0	0	0	483	625	
6	0	0	0	0	483	625	
7	0	0	0	0	485	625	
8	0	0	0	0	485	623	
9	0	0	0	0	485	625	
10	0	0	0	0	485	625	
11	0	0	0	0	484	625	
12	0	0	0	0	485	627	
13	0	0	0	0	484	625	
14	0	0	0	0	484	625	
15	0	0	0	0	484	625	
0	0	0	0	0	484	623	
1	0	0	0	0	483	625	
2	0	0	0	0	483	625	
3	0	0	0	0	482	625	
4	0	0	0	0	481	626	
5	0	0	0	0	481	624	
6	0	0	0	0	480	625	
7	0	0	0	0	481	624	
8	0	0	0	0	481	622	
9	0	0	0	0	482	624	
10	0	0	0	0	481	624	
11	0	0	0	0	482	624	
12	0	0	0	0	480	626	
13	0	0	0	0	481	624	
14	0	0	0	0	480	624	
15	0	0	0	0	480	624	
0	0	0	0	0	480	622	
1	0	0	0	0	481	624	
2	0	0	0	0	481	624	
3	0	0	0	0	482	624	
4	0	0	0	0	481	626	
5	0	0	0	0	483	624	
6	0	0	0	0	485	623	
7	0	0	0	0	485	624	
8	0	0	0	0	486	623	
9	0	0	0	0	485	624	
10	0	0	0	0	485	623	
11	0	0	0	0	485	624	
12	0	0	0	0	485	625	
13	0	0	0	0	485	624	
14	0	0	0	0	485	624	
15	0	0	0	0	485	624	
0	0	0	0	0	486	622	
1	0	0	0	0	485	624	
2	0	0	0	0	486	624	
3	0	0	0	0	487	623	
4	0	0	0	0	487	625	
5	0	0	0	0	489	624	
6	0	0	0	0	491	624	
7	0	0	0	0	492	624	
8	0	0	0	0	491	622	
9	0	0	0	0	493	624	
10	0	0	0	0	494	624	
11	0	0	0	0	495	623	
12	0	0	0	0	496	625	
13	0	0	0	0	496	623	
14	0	0	0	0	497	624	
15	0	0	0	0	498	623	
0	0	0	0	0	499	622	
1	0	0	0	0	500	623	
2	0	0	0	0	502	623	
3	0	0	0	0	502	622	
4	0	0	0	0	502	624	
5	0	0	0	0	504	623	
6	0	0	0	0	505	622	
7	0	0	0	0	505	622	
8	0	0	0	0	504	620	
9	0	0	0	0	505	622	
10	0	0	0	0	505	622	
11	0	0	0	0	506	621	
12	0	0	0	0	506	623	
13	0	0	0	0	507	621	
14	0	0	0	0	508	621	
15	0	0	0	0	509	621	
0	0	0	0	0	510	619	
1	0	0	0	0	511	621	
2	0	0	0	0	512	621	
3	0	0	0	0	512	621	
4	0	0	0	0	512	623	
5	0	0	0	0	511	621	
6	0	0	0	0	511	620	
7	0	0	0	0	511	620	
8	0	0	0	0	511	619	
9	0	0	0	0	511	620	
10	0	0	0	0	510	620	
11	0	0	0	0	509	620	
12	0	0	0	0	509	621	
13	0	0	0	0	509	620	
14	0	0	0	0	510	620	
15	0	0	0	0	511	620	
0	0	0	0	0	512	618	
1	0	0	0	0	515	620	
2	0	0	0	0	518	620	
3	0	0	0	0	520	621	
4	0	0	0	0	521	622	
5	0	0	0	0	523	620	
6	0	0	0	0	525	620	
7	0	0	0	0	526	620	
8	0	0	0	0	527	618	
9	0	0	0	0	527	620	
10	0	0	0	0	527	620	
11	0	0	0	0	527	620	
12	0	0	0	0	529	622	
13	0	0	0	0	531	620	
14	0	0	0	0	532	621	
15	0	0	0	0	534	621	
0	0	0	0	0	536	619	
1	0	0	0	0	537	621	
2	0	0	0	0	539	622	
3	0	0	0	0	540	622	
4	0	0	0	0	542	624	
5	0	0	0	0	544	622	
6	0	0	0	0	546	622	
7	0	0	0	0	547	623	
8	0	0	0	0	548	621	
9	0	0	0	0	550	622	
10	0	0	0	0	551	622	
11	0	0	0	0	553	623	
12	0	0	0	0	555	625	
13	0	0	0	0	555	623	
14	0	0	0	0	555	623	
15	0	0	0	0	556	623	
0	0	0	0	0	557	621	
1	0	0	0	0	558	623	
2	0	0	0	0	558	623	
3	0	0	0	0	558	623	
4	0	0	0	0	558	624	
5	0	0	0	0	559	622	
6	0	0	0	0	559	622	
7	0	0	0	0	558	622	
8	0	0	0	0	558	620	
9	0	0	0	0	557	621	
10	0	0	0	0	556	621	
11	0	0	0	0	556	622	
12	0	0	0	0	555	623	
13	0	0	0	0	556	622	
14	0	0	0	0	556	622	
15	0	0	0	0	556	622	
0	0	0	0	0	555	620	
1	0	0	0	0	553	622	
2	0	0	0	0	552	622	
3	0	0	0	0	552	622	
4	0	0	0	0	551	625	
5	0	0	0	0	551	623	
6	0	0	0	0	551	623	
7	0	0	0	0	552	623	
8	0	0	0	0	553	622	
9	0	0	0	0	552	624	
10	0	0	0	0	551	624	
11	0	0	0	0	550	623	
12	0	0	0	0	550	626	
13	0	0	0	0	551	624	
14	0	0	0	0	550	624	
15	0	0	0	0	550	624	
0	0	0	0	0	551	622	
1	0	0	0	0	550	624	
2	0	0	0	0	548	624	
3	0	0	0	0	548	624	
4	0	0	0	0	550	625	
5	0	0	0	0	551	624	
6	0	0	0	0	550	624	
7	0	0	0	0	551	624	
8	0	0	0	0	549	622	
9	0	0	0	0	547	623	
10	0	0	0	0	548	623	
11	0	0	0	0	547	623	
12	0	0	0	0	548	625	
13	0	0	0	0	547	623	
14	0	0	0	0	547	623	
15	0	0	0	0	546	623	
0	0	0	0	0	545	622	
1	0	0	0	0	546	624	
2	0	0	0	0	547	624	
3	0	0	0	0	547	624	
4	0	0	0	0	547	625	
5	0	0	0	0	547	624	
6	0	0	0	0	547	624	
7	0	0	0	0	547	624	
8	0	0	0	0	546	623	
9	0	0	0	0	547	624	
10	0	0	0	0	545	624	
11	0	0	0	0	545	624	
12	0	0	0	0	545	626	
13	0	0	0	0	546	624	
14	0	0	0	0	547	625	
15	0	0	0	0	546	624	
0	0	0	0	0	545	623	
1	0	0	0	0	540	624	
2	0	0	0	0	536	624	
3	0	0	0	0	531	624	
4	0	0	0	0	527	625	
5	0	0	0	0	521	624	
6	0	0	0	0	516	624	
7	0	0	0	0	511	624	
8	0	0	0	0	504	621	
9	0	0	0	0	501	623	
10	0	0	0	0	500	623	
11	0	0	0	0	501	622	
12	0	0	0	0	503	625	
13	0	0	0	0	507	623	
14	0	0	0	0	512	622	
15	0	0	0	0	520	622	
0	0	0	0	0	529	621	
1	0	0	0	0	538	622	
2	0	0	0	0	547	622	
3	0	0	0	0	557	622	
4	0	0	0	0	568	623	
5	0	0	0	0	579	622	
6	0	0	0	0	591	621	
7	0	0	0	0	606	621	
8	0	0	0	0	623	619	
9	0	0	0	0	642	621	
10	0	0	0	0	664	621	
11	0	0	0	0	690	621	
12	0	0	0	0	720	623	
13	0	0	0	0	756	622	
14	0	0	0	0	792	622	
15	0	0	0	0	826	622	
0	0	0	0	0	862	619	
1	0	0	0	0	895	621	
2	0	0	0	0	930	622	
3	0	0	0	0	964	622	
4	0	0	0	0	996	623	
5	0	0	0	0	1021	621	
6	0	0	0	0	1022	622	
7	0	0	0	0	1022	622	
8	0	0	0	0	1022	620	
9	0	0	0	0	1022	622	
10	0	0	0	0	1022	622	
11	0	0	0	0	1022	621	
12	0	0	0	0	1022	624	
13	0	0	0	0	1022	622	
14	0	0	0	0	1022	621	
15	0	0	0	0	1022	622	
0	0	0	0	0	1022	620	
1	0	0	0	0	1022	622	
2	0	0	0	0	1022	622	
3	0	0	0	0	1020	622	
4	0	0	0	0	991	624	
5	0	0	0	0	961	622	
6	0	0	0	0	928	622	
7	0	0	0	0	893	622	
8	0	0	0	0	856	620	
9	0	0	0	0	819	622	
10	0	0	0	0	782	622	
11	0	0	0	0	743	622	
12	0	0	0	0	707	624	
13	0	0	0	0	673	622	
14	0	0	0	0	643	622	
15	0	0	0	0	618	622	
0	0	0	0	0	595	620	
1	0	0	0	0	577	623	
2	0	0	0	0	561	622	
3	0	0	0	0	548	622	
4	0	0	0	0	536	624	
5	0	0	0	0	524	622	
6	0	0	0	0	514	623	
7	0	0	0	0	504	622	
8	0	0	0	0	495	620	
9	0	0	0	0	483	622	
10	0	0	0	0	473	622	
11	0	0	0	0	464	622	
12	0	0	0	0	455	623	
13	0	0	0	0	447	622	
14	0	0	0	0	441	622	
15	0	0	0	0	437	622	
0	0	0	0	0	431	620	
1	0	0	0	0	424	621	
2	0	0	0	0	419	622	
3	0	0	0	0	412	621	
4	0	0	0	0	408	623	
5	0	0	0	0	406	622	
6	0	0	0	0	403	622	
7	0	0	0	0	402	622	
8	0	0	0	0	401	620	
9	0	0	0	0	400	622	
10	0	0	0	0	397	622	
11	0	0	0	0	396	621	
12	0	0	0	0	396	624	
13	0	0	0	0	395	622	
14	0	0	0	0	396	622	
15	0	0	0	0	397	621	
0	0	0	0	0	398	619	
1	0	0	0	0	399	621	
2	0	0	0	0	401	621	
3	0	0	0	0	402	621	
4	0	0	0	0	404	623	
5	0	0	0	0	405	621	
6	0	0	0	0	406	620	
7	0	0	0	0	406	621	
8	0	0	0	0	407	619	
9	0	0	0	0	408	621	
10	0	0	0	0	410	620	
11	0	0	0	0	410	620	
12	0	0	0	0	411	622	
13	0	0	0	0	411	621	
14	0	0	0	0	413	620	
15	0	0	0	0	413	621	
0	0	0	0	0	414	619	
1	0	0	0	0	415	621	
2	0	0	0	0	416	620	
3	0	0	0	0	417	620	
4	0	0	0	0	418	622	
5	0	0	0	0	419	620	
6	0	0	0	0	420	621	
7	0	0	0	0	420	620	
8	0	0	0	0	423	618	
9	0	0	0	0	423	621	
10	0	0	0	0	424	621	
11	0	0	0	0	425	620	
12	0	0	0	0	424	622	
13	0	0	0	0	425	622	
14	0	0	0	0	425	621	
15	0	0	0	0	427	623	
0	0	0	0	0	428	620	
1	0	0	0	0	429	622	
2	0	0	0	0	429	623	
3	0	0	0	0	431	623	
4	0	0	0	0	432	624	
5	0	0	0	0	434	623	
6	0	0	0	0	435	622	
7	0	0	0	0	436	623	
8	0	0	0	0	437	621	
9	0	0	0	0	438	623	
10	0	0	0	0	439	624	
11	0	0	0	0	440	623	
12	0	0	0	0	441	625	
13	0	0	0	0	443	623	
14	0	0	0	0	444	623	
15	0	0	0	0	444	623	
0	0	0	0	0	444	621	
1	0	0	0	0	446	623	
2	0	0	0	0	448	623	
3	0	0	0	0	449	623	
4	0	0	0	0	450	625	
5	0	0	0	0	450	623	
6	0	0	0	0	451	623	
7	0	0	0	0	451	624	
8	0	0	0	0	451	622	
9	0	0	0	0	452	623	
10	0	0	0	0	452	623	
11	0	0	0	0	452	623	
12	0	0	0	0	452	625	
13	0	0	0	0	452	623	
14	0	0	0	0	452	623	
15	0	0	0	0	453	622	
0	0	0	0	0	452	620	
1	0	0	0	0	450	622	
2	0	0	0	0	450	622	
3	0	0	0	0	451	622	
4	0	0	0	0	451	624	
5	0	0	0	0	454	622	
6	0	0	0	0	456	622	
7	0	0	0	0	458	622	
8	0	0	0	0	458	620	
9	0	0	0	0	458	622	
10	0	0	0	0	459	621	
11	0	0	0	0	460	622	
12	0	0	0	0	460	623	
13	0	0	0	0	460	622	
14	0	0	0	0	460	621	
15	0	0	0	0	460	621	
0	0	0	0	0	458	620	
1	0	0	0	0	457	622	
2	0	0	0	0	455	621	
3	0	0	0	0	452	621	
4	0	0	0	0	451	623	
5	0	0	0	0	448	622	
6	0	0	0	0	447	621	
7	0	0	0	0	446	622	
8	0	0	0	0	444	620	
9	0	0	0	0	444	621	
10	0	0	0	0	441	621	
11	0	0	0	0	438	622	
12	0	0	0	0	435	624	
13	0	0	0	0	432	622	
14	0	0	0	0	430	622	
15	0	0	0	0	428	622	
0	0	0	0	0	426	621	
1	0	0	0	0	425	623	
2	0	0	0	0	423	623	
3	0	0	0	0	421	623	
4	0	0	0	0	419	625	
5	0	0	0	0	419	623	
6	0	0	0	0	417	623	
7	0	0	0	0	415	623	
8	0	0	0	0	416	622	
9	0	0	0	0	417	625	
10	0	0	0	0	418	625	
11	0	0	0	0	419	625	
12	0	0	0	0	417	626	
13	0	0	0	0	416	625	
14	0	0	0	0	416	625	
15	0	0	0	0	417	625	
0	0	0	0	0	416	624	
1	0	0	0	0	415	625	
2	0	0	0	0	415	626	
3	0	0	0	0	414	626	
4	0	0	0	0	414	628	
5	0	0	0	0	416	626	
6	0	0	0	0	417	626	
7	0	0	0	0	416	626	
8	0	0	0	0	418	624	
9	0	0	0	0	419	626	
10	0	0	0	0	419	626	
11	0	0	0	0	417	625	
12	0	0	0	0	417	628	
13	0	0	0	0	417	625	
14	0	0	0	0	417	625	
15	0	0	0	0	419	625	
0	0	0	0	0	419	623	
1	0	0	0	0	419	625	
2	0	0	0	0	420	625	
3	0	0	0	0	421	624	
4	0	0	0	0	423	625	
5	0	0	0	0	424	624	
6	0	0	0	0	426	624	
7	0	0	0	0	427	624	
8	0	0	0	0	428	621	
9	0	0	0	0	428	623	
10	0	0	0	0	432	623	
11	0	0	0	0	435	623	
12	0	0	0	0	437	624	
13	0	0	0	0	440	622	
14	0	0	0	0	442	622	
15	0	0	0	0	444	622	
0	0	0	0	0	445	620	
1	0	0	0	0	445	622	
2	0	0	0	0	446	622	
3	0	0	0	0	446	622	
4	0	0	0	0	445	624	
5	0	0	0	0	445	623	
6	0	0	0	0	447	622	
7	0	0	0	0	448	623	
8	0	0	0	0	448	622	
9	0	0	0	0	448	623	
10	0	0	0	0	448	623	
11	0	0	0	0	449	623	
12	0	0	0	0	448	625	
13	0	0	0	0	449	624	
14	0	0	0	0	452	624	
15	0	0	0	0	455	624	
0	0	0	0	0	455	622	
1	0	0	0	0	456	624	
2	0	0	0	0	457	624	
3	0	0	0	0	460	624	
4	0	0	0	0	463	626	
5	0	0	0	0	464	624	
6	0	0	0	0	465	624	
7	0	0	0	0	466	624	
8	0	0	0	0	468	622	
9	0	0	0	0	470	623	
10	0	0	0	0	471	623	
11	0	0	0	0	472	623	
12	0	0	0	0	474	624	
13	0	0	0	0	475	622	
14	0	0	0	0	479	622	
15	0	0	0	0	479	622	
0	0	0	0	0	480	620	
1	0	0	0	0	483	621	
2	0	0	0	0	484	620	
3	0	0	0	0	486	620	
4	0	0	0	0	488	622	
5	0	0	0	0	492	620	
6	0	0	0	0	495	620	
7	0	0	0	0	499	619	
8	0	0	0	0	503	616	
9	0	0	0	0	506	619	
10	0	0	0	0	509	620	
11	0	0	0	0	512	620	
12	0	0	0	0	516	621	
13	0	0	0	0	521	620	
14	0	0	0	0	524	620	
15	0	0	0	0	525	621	
0	0	0	0	0	529	620	
1	0	0	0	0	532	621	
2	0	0	0	0	536	621	
3	0	0	0	0	538	621	
4	0	0	0	0	540	623	
5	0	0	0	0	543	621	
6	0	0	0	0	545	622	
7	0	0	0	0	547	623	
8	0	0	0	0	549	620	
9	0	0	0	0	552	622	
10	0	0	0	0	555	622	
11	0	0	0	0	557	623	
12	0	0	0	0	559	624	
13	0	0	0	0	559	623	
14	0	0	0	0	560	623	
15	0	0	0	0	560	623	
0	0	0	0	0	561	621	
1	0	0	0	0	562	623	
2	0	0	0	0	563	623	
3	0	0	0	0	563	624	
4	0	0	0	0	564	625	
5	0	0	0	0	565	623	
6	0	0	0	0	567	624	
7	0	0	0	0	568	623	
8	0	0	0	0	569	621	
9	0	0	0	0	570	624	
10	0	0	0	0	570	623	
11	0	0	0	0	570	623	
12	0	0	0	0	570	624	
13	0	0	0	0	572	623	
14	0	0	0	0	571	622	
15	0	0	0	0	571	622	
0	0	0	0	0	572	621	
1	0	0	0	0	574	623	
2	0	0	0	0	574	622	
3	0	0	0	0	574	622	
4	0	0	0	0	574	624	
5	0	0	0	0	575	622	
6	0	0	0	0	576	622	
7	0	0	0	0	576	622	
8	0	0	0	0	576	620	
9	0	0	0	0	575	622	
10	0	0	0	0	572	622	
11	0	0	0	0	569	622	
12	0	0	0	0	569	624	
13	0	0	0	0	568	622	
14	0	0	0	0	568	623	
15	0	0	0	0	568	624	
0	0	0	0	0	567	622	
1	0	0	0	0	566	623	
2	0	0	0	0	566	623	
3	0	0	0	0	567	623	
4	0	0	0	0	567	625	
5	0	0	0	0	568	624	
6	0	0	0	0	568	623	
7	0	0	0	0	568	624	
8	0	0	0	0	568	621	
9	0	0	0	0	568	624	
10	0	0	0	0	569	624	
11	0	0	0	0	572	624	
12	0	0	0	0	572	626	
13	0	0	0	0	573	624	
14	0	0	0	0	575	624	
15	0	0	0	0	575	625	
0	0	0	0	0	576	622	
1	0	0	0	0	577	624	
2	0	0	0	0	578	625	
3	0	0	0	0	578	625	
4	0	0	0	0	579	627	
5	0	0	0	0	580	625	
6	0	0	0	0	580	625	
7	0	0	0	0	579	625	
8	0	0	0	0	579	624	
9	0	0	0	0	579	626	
10	0	0	0	0	580	626	
11	0	0	0	0	580	626	
12	0	0	0	0	582	628	
13	0	0	0	0	582	627	
14	0	0	0	0	581	627	
15	0	0	0	0	580	627	
0	0	0	0	0	580	625	
1	0	0	0	0	580	627	
2	0	0	0	0	582	627	
3	0	0	0	0	583	627	
4	0	0	0	0	582	628	
5	0	0	0	0	582	627	
6	0	0	0	0	580	626	
7	0	0	0	0	580	626	
8	0	0	0	0	581	624	
9	0	0	0	0	580	625	
10	0	0	0	0	580	625	
11	0	0	0	0	578	625	
12	0	0	0	0	578	627	
13	0	0	0	0	577	624	
14	0	0	0	0	576	624	
15	0	0	0	0	575	624	
0	0	0	0	0	574	621	
1	0	0	0	0	574	623	
2	0	0	0	0	575	623	
3	0	0	0	0	575	622	
4	0	0	0	0	575	624	
5	0	0	0	0	574	622	
6	0	0	0	0	573	621	
7	0	0	0	0	572	621	
8	0	0	0	0	572	619	
9	0	0	0	0	571	620	
10	0	0	0	0	569	620	
11	0	0	0	0	568	620	
12	0	0	0	0	567	622	
13	0	0	0	0	566	620	
14	0	0	0	0	566	620	
15	0	0	0	0	566	620	
0	0	0	0	0	565	619	
1	0	0	0	0	564	621	
2	0	0	0	0	564	621	
3	0	0	0	0	563	620	
4	0	0	0	0	562	623	
5	0	0	0	0	561	621	
6	0	0	0	0	562	621	
7	0	0	0	0	563	621	
8	0	0	0	0	562	619	
9	0	0	0	0	563	620	
10	0	0	0	0	566	621	
11	0	0	0	0	567	621	
12	0	0	0	0	566	623	
13	0	0	0	0	568	621	
14	0	0	0	0	568	621	
15	0	0	0	0	567	621	
0	0	0	0	0	566	619	
1	0	0	0	0	566	620	
2	0	0	0	0	566	620	
3	0	0	0	0	565	620	
4	0	0	0	0	566	622	
5	0	0	0	0	564	620	
6	0	0	0	0	564	621	
7	0	0	0	0	563	620	
8	0	0	0	0	562	619	
9	0	0	0	0	561	621	
10	0	0	0	0	560	621	
11	0	0	0	0	559	621	
12	0	0	0	0	560	624	
13	0	0	0	0	560	622	
14	0	0	0	0	560	622	
15	0	0	0	0	560	621	
0	0	0	0	0	561	620	
1	0	0	0	0	561	622	
2	0	0	0	0	563	622	
3	0	0	0	0	563	622	
4	0	0	0	0	564	624	
5	0	0	0	0	565	623	
6	0	0	0	0	566	623	
7	0	0	0	0	567	623	
8	0	0	0	0	568	621	
9	0	0	0	0	570	623	
10	0	0	0	0	572	623	
11	0	0	0	0	572	623	
12	0	0	0	0	574	625	
13	0	0	0	0	575	624	
14	0	0	0	0	575	624	
15	0	0	0	0	575	623	
0	0	0	0	0	575	622	
1	0	0	0	0	575	623	
2	0	0	0	0	575	623	
3	0	0	0	0	575	623	
4	0	0	0	0	575	625	
5	0	0	0	0	575	623	
6	0	0	0	0	577	623	
7	0	0	0	0	578	623	
8	0	0	0	0	579	621	
9	0	0	0	0	581	623	
10	0	0	0	0	584	624	
11	0	0	0	0	585	624	
12	0	0	0	0	587	626	
13	0	0	0	0	588	624	
14	0	0	0	0	590	625	
15	0	0	0	0	591	625	
0	0	0	0	0	592	623	
1	0	0	0	0	591	625	
2	0	0	0	0	591	625	
3	0	0	0	0	592	626	
4	0	0	0	0	593	627	
5	0	0	0	0	594	625	
6	0	0	0	0	595	625	
7	0	0	0	0	594	625	
8	0	0	0	0	593	624	
9	0	0	0	0	593	625	
10	0	0	0	0	593	625	
11	0	0	0	0	592	626	
12	0	0	0	0	592	627	
13	0	0	0	0	592	625	
14	0	0	0	0	592	625	
15	0	0	0	0	591	624	
0	0	0	0	0	591	623	
1	0	0	0	0	589	624	
2	0	0	0	0	588	625	
3	0	0	0	0	587	624	
4	0	0	0	0	586	625	
5	0	0	0	0	585	624	
6	0	0	0	0	584	624	
7	0	0	0	0	584	624	
8	0	0	0	0	583	622	
9	0	0	0	0	583	624	
10	0	0	0	0	583	623	
11	0	0	0	0	585	623	
12	0	0	0	0	587	625	
13	0	0	0	0	587	623	
14	0	0	0	0	587	623	
15	0	0	0	0	589	624	
0	0	0	0	0	588	621	
1	0	0	0	0	588	622	
2	0	0	0	0	588	622	
3	0	0	0	0	589	623	
4	0	0	0	0	590	624	
5	0	0	0	0	589	623	
6	0	0	0	0	588	623	
7	0	0	0	0	587	623	
8	0	0	0	0	589	621	
9	0	0	0	0	589	623	
10	0	0	0	0	589	623	
11	0	0	0	0	589	622	
12	0	0	0	0	590	624	
13	0	0	0	0	591	622	
14	0	0	0	0	591	622	
15	0	0	0	0	591	622	
0	0	0	0	0	593	620	
1	0	0	0	0	594	621	
2	0	0	0	0	595	621	
3	0	0	0	0	595	621	
4	0	0	0	0	596	623	
5	0	0	0	0	597	621	
6	0	0	0	0	597	620	
7	0	0	0	0	597	620	
8	0	0	0	0	598	617	
9	0	0	0	0	599	619	
10	0	0	0	0	600	619	
11	0	0	0	0	600	619	
12	0	0	0	0	598	620	
13	0	0	0	0	598	619	
14	0	0	0	0	598	618	
15	0	0	0	0	597	619	
0	0	0	0	0	596	616	
1	0	0	0	0	596	618	
2	0	0	0	0	596	619	
3	0	0	0	0	595	619	
4	0	0	0	0	594	620	
5	0	0	0	0	592	619	
6	0	0	0	0	592	619	
7	0	0	0	0	593	619	
8	0	0	0	0	593	617	
9	0	0	0	0	592	619	
10	0	0	0	0	590	620	
11	0	0	0	0	590	620	
12	0	0	0	0	589	622	
13	0	0	0	0	588	620	
14	0	0	0	0	588	620	
15	0	0	0	0	587	620	
0	0	0	0	0	586	618	
1	0	0	0	0	585	620	
2	0	0	0	0	584	620	
3	0	0	0	0	583	620	
4	0	0	0	0	582	621	
5	0	0	0	0	581	620	
6	0	0	0	0	581	620	
7	0	0	0	0	581	619	
8	0	0	0	0	580	617	
9	0	0	0	0	579	618	
10	0	0	0	0	577	617	
11	0	0	0	0	575	618	
12	0	0	0	0	573	620	
13	0	0	0	0	573	618	
14	0	0	0	0	571	617	
15	0	0	0	0	570	618	
0	0	0	0	0	571	615	
1	0	0	0	0	569	617	
2	0	0	0	0	568	617	
3	0	0	0	0	566	618	
4	0	0	0	0	564	620	
5	0	0	0	0	564	618	
6	0	0	0	0	563	617	
7	0	0	0	0	561	618	
8	0	0	0	0	560	616	
9	0	0	0	0	560	618	
10	0	0	0	0	558	617	
11	0	0	0	0	556	618	
12	0	0	0	0	553	620	
13	0	0	0	0	550	618	
14	0	0	0	0	546	617	
15	0	0	0	0	543	618	
0	0	0	0	0	540	616	
1	0	0	0	0	538	617	
2	0	0	0	0	537	617	
3	0	0	0	0	535	617	
4	0	0	0	0	533	619	
5	0	0	0	0	533	617	
6	0	0	0	0	532	617	
7	0	0	0	0	530	617	
8	0	0	0	0	529	615	
9	0	0	0	0	529	617	
10	0	0	0	0	529	617	
11	0	0	0	0	529	617	
12	0	0	0	0	528	619	
13	0	0	0	0	526	617	
14	0	0	0	0	526	617	
15	0	0	0	0	526	617	
0	0	0	0	0	525	615	
1	0	0	0	0	525	618	
2	0	0	0	0	525	618	
3	0	0	0	0	524	618	
4	0	0	0	0	524	620	
5	0	0	0	0	524	619	
6	0	0	0	0	524	619	
7	0	0	0	0	524	619	
8	0	0	0	0	524	618	
9	0	0	0	0	524	620	
10	0	0	0	0	522	620	
11	0	0	0	0	519	620	
12	0	0	0	0	518	623	
13	0	0	0	0	517	621	
14	0	0	0	0	515	622	
15	0	0	0	0	515	622	
0	0	0	0	0	515	620	
1	0	0	0	0	514	623	
2	0	0	0	0	515	623	
3	0	0	0	0	514	623	
4	0	0	0	0	512	625	
5	0	0	0	0	510	624	
6	0	0	0	0	507	625	
7	0	0	0	0	505	625	
8	0	0	0	0	503	623	
9	0	0	0	0	500	625	
10	0	0	0	0	499	625	
11	0	0	0	0	496	626	
12	0	0	0	0	494	628	
13	0	0	0	0	491	626	
14	0	0	0	0	490	627	
15	0	0	0	0	489	627	
0	0	0	0	0	488	625	
1	0	0	0	0	487	627	
2	0	0	0	0	487	627	
3	0	0	0	0	487	628	
4	0	0	0	0	486	630	
5	0	0	0	0	485	628	
6	0	0	0	0	485	628	
7	0	0	0	0	486	628	
8	0	0	0	0	487	627	
9	0	0	0	0	489	629	
10	0	0	0	0	490	629	
11	0	0	0	0	492	630	
12	0	0	0	0	493	632	
13	0	0	0	0	494	630	
14	0	0	0	0	493	631	
15	0	0	0	0	494	630	
0	0	0	0	0	494	628	
1	0	0	0	0	495	631	
2	0	0	0	0	497	631	
3	0	0	0	0	499	631	
4	0	0	0	0	499	633	
5	0	0	0	0	501	632	
6	0	0	0	0	502	631	
7	0	0	0	0	500	631	
8	0	0	0	0	498	629	
9	0	0	0	0	496	630	
10	0	0	0	0	494	631	
11	0	0	0	0	490	630	
12	0	0	0	0	485	632	
13	0	0	0	0	482	630	
14	0	0	0	0	476	629	
15	0	0	0	0	471	629	
0	0	0	0	0	467	627	
1	0	0	0	0	467	629	
2	0	0	0	0	467	628	
3	0	0	0	0	470	629	
4	0	0	0	0	474	629	
5	0	0	0	0	480	628	
6	0	0	0	0	488	627	
7	0	0	0	0	498	628	
8	0	0	0	0	508	626	
9	0	0	0	0	519	628	
10	0	0	0	0	529	628	
11	0	0	0	0	542	628	
12	0	0	0	0	554	630	
13	0	0	0	0	567	627	
14	0	0	0	0	582	628	
15	0	0	0	0	597	627	
0	0	0	0	0	616	625	
1	0	0	0	0	640	627	
2	0	0	0	0	665	627	
3	0	0	0	0	693	627	
4	0	0	0	0	725	628	
5	0	0	0	0	758	627	
6	0	0	0	0	792	626	
7	0	0	0	0	825	626	
8	0	0	0	0	859	623	
9	0	0	0	0	892	625	
10	0	0	0	0	927	624	
11	0	0	0	0	958	624	
12	0	0	0	0	987	626	
13	0	0	0	0	1010	624	
14	0	0	0	0	1021	624	
15	0	0	0	0	1022	624	
0	0	0	0	0	1022	621	
1	0	0	0	0	1022	623	
2	0	0	0	0	1022	623	
3	0	0	0	0	1022	623	
4	0	0	0	0	1022	625	
5	0	0	0	0	1022	623	
6	0	0	0	0	1022	623	
7	0	0	0	0	1022	623	
8	0	0	0	0	1021	620	
9	0	0	0	0	1001	622	
10	0	0	0	0	977	623	
11	0	0	0	0	950	622	
12	0	0	0	0	922	624	
13	0	0	0	0	891	622	
14	0	0	0	0	856	622	
15	0	0	0	0	819	622	
0	0	0	0	0	782	620	
1	0	0	0	0	746	621	
2	0	0	0	0	707	621	
3	0	0	0	0	671	621	
4	0	0	0	0	638	622	
5	0	0	0	0	610	620	
6	0	0	0	0	588	620	
7	0	0	0	0	569	620	
8	0	0	0	0	553	619	
9	0	0	0	0	539	620	
10	0	0	0	0	527	620	
11	0	0	0	0	515	619	
12	0	0	0	0	503	621	
13	0	0	0	0	490	619	
14	0	0	0	0	480	619	
15	0	0	0	0	468	619	
0	0	0	0	0	457	617	
1	0	0	0	0	446	619	
2	0	0	0	0	435	619	
3	0	0	0	0	427	619	
4	0	0	0	0	420	621	
5	0	0	0	0	414	620	
6	0	0	0	0	409	619	
7	0	0	0	0	404	619	
8	0	0	0	0	399	618	
9	0	0	0	0	395	620	
10	0	0	0	0	389	620	
11	0	0	0	0	384	620	
12	0	0	0	0	379	621	
13	0	0	0	0	375	620	
14	0	0	0	0	372	619	
15	0	0	0	0	370	619	
0	0	0	0	0	367	617	
1	0	0	0	0	364	619	
2	0	0	0	0	362	620	
3	0	0	0	0	360	619	
4	0	0	0	0	359	621	
5	0	0	0	0	359	619	
6	0	0	0	0	357	619	
7	0	0	0	0	354	619	
8	0	0	0	0	351	617	
9	0	0	0	0	348	619	
10	0	0	0	0	347	619	
11	0	0	0	0	344	618	
12	0	0	0	0	343	620	
13	0	0	0	0	340	619	
14	0	0	0	0	340	618	
15	0	0	0	0	339	619	
0	0	0	0	0	339	617	
1	0	0	0	0	337	619	
2	0	0	0	0	336	618	
3	0	0	0	0	335	619	
4	0	0	0	0	334	621	
5	0	0	0	0	332	620	
6	0	0	0	0	329	620	
7	0	0	0	0	326	620	
8	0	0	0	0	323	619	
9	0	0	0	0	320	621	
10	0	0	0	0	318	621	
11	0	0	0	0	317	622	
12	0	0	0	0	316	624	
13	0	0	0	0	315	622	
14	0	0	0	0	313	623	
15	0	0	0	0	313	624	
0	0	0	0	0	312	621	
1	0	0	0	0	312	623	
2	0	0	0	0	312	624	
3	0	0	0	0	312	624	
4	0	0	0	0	312	625	
5	0	0	0	0	312	624	
6	0	0	0	0	312	625	
7	0	0	0	0	313	625	
8	0	0	0	0	315	624	
9	0	0	0	0	317	626	
10	0	0	0	0	319	626	
11	0	0	0	0	319	626	
12	0	0	0	0	320	627	
13	0	0	0	0	320	626	
14	0	0	0	0	322	626	
15	0	0	0	0	325	625	
0	0	0	0	0	329	624	
1	0	0	0	0	332	625	
2	0	0	0	0	334	625	
3	0	0	0	0	337	625	
4	0	0	0	0	339	627	
5	0	0	0	0	344	625	
6	0	0	0	0	346	625	
7	0	0	0	0	348	625	
8	0	0	0	0	349	623	
9	0	0	0	0	351	625	
10	0	0	0	0	353	625	
11	0	0	0	0	356	625	
12	0	0	0	0	359	626	
13	0	0	0	0	361	625	
14	0	0	0	0	364	625	
15	0	0	0	0	366	625	
0	0	0	0	0	368	624	
1	0	0	0	0	371	626	
2	0	0	0	0	374	625	
3	0	0	0	0	375	626	
4	0	0	0	0	376	627	
5	0	0	0	0	377	627	
6	0	0	0	0	381	627	
7	0	0	0	0	384	627	
8	0	0	0	0	386	625	
9	0	0	0	0	388	627	
10	0	0	0	0	391	627	
11	0	0	0	0	393	627	
12	0	0	0	0	396	629	
13	0	0	0	0	399	627	
14	0	0	0	0	400	627	
15	0	0	0	0	401	626	
0	0	0	0	0	401	625	
1	0	0	0	0	403	627	
2	0	0	0	0	405	627	
3	0	0	0	0	406	625	
4	0	0	0	0	407	628	
5	0	0	0	0	407	626	
6	0	0	0	0	408	626	
7	0	0	0	0	409	625	
8	0	0	0	0	411	623	
9	0	0	0	0	413	624	
10	0	0	0	0	414	624	
11	0	0	0	0	415	624	
12	0	0	0	0	416	626	
13	0	0	0	0	417	624	
14	0	0	0	0	418	625	
15	0	0	0	0	419	624	
0	0	0	0	0	421	623	
1	0	0	0	0	422	625	
2	0	0	0	0	423	624	
3	0	0	0	0	426	624	
4	0	0	0	0	427	627	
5	0	0	0	0	427	625	
6	0	0	0	0	429	625	
7	0	0	0	0	430	625	
8	0	0	0	0	430	623	
9	0	0	0	0	432	625	
10	0	0	0	0	433	625	
11	0	0	0	0	433	625	
12	0	0	0	0	433	627	
13	0	0	0	0	435	625	
14	0	0	0	0	435	625	
15	0	0	0	0	436	626	
0	0	0	0	0	438	623	
1	0	0	0	0	441	625	
2	0	0	0	0	444	624	
3	0	0	0	0	446	624	
4	0	0	0	0	448	626	
5	0	0	0	0	449	624	
6	0	0	0	0	450	624	
7	0	0	0	0	451	624	
8	0	0	0	0	453	622	
9	0	0	0	0	456	624	
10	0	0	0	0	457	624	
11	0	0	0	0	458	624	
12	0	0	0	0	460	625	
13	0	0	0	0	461	624	
14	0	0	0	0	464	624	
15	0	0	0	0	465	624	
0	0	0	0	0	467	623	
1	0	0	0	0	470	625	
2	0	0	0	0	473	624	
3	0	0	0	0	475	624	
4	0	0	0	0	477	625	
5	0	0	0	0	479	624	
6	0	0	0	0	480	624	
7	0	0	0	0	480	624	
8	0	0	0	0	481	623	
9	0	0	0	0	484	624	
10	0	0	0	0	488	624	
11	0	0	0	0	492	624	
12	0	0	0	0	493	626	
13	0	0	0	0	494	624	
14	0	0	0	0	495	624	
15	0	0	0	0	496	624	
0	0	0	0	0	499	622	
1	0	0	0	0	500	624	
2	0	0	0	0	502	624	
3	0	0	0	0	504	623	
4	0	0	0	0	506	625	
5	0	0	0	0	507	623	
6	0	0	0	0	509	623	
7	0	0	0	0	511	623	
8	0	0	0	0	513	621	
9	0	0	0	0	514	623	
10	0	0	0	0	515	622	
11	0	0	0	0	517	623	
12	0	0	0	0	519	625	
13	0	0	0	0	521	623	
14	0	0	0	0	523	624	
15	0	0	0	0	524	623	
0	0	0	0	0	525	622	
1	0	0	0	0	526	624	
2	0	0	0	0	527	624	
3	0	0	0	0	527	624	
4	0	0	0	0	528	627	
5	0	0	0	0	528	625	
6	0	0	0	0	529	625	
7	0	0	0	0	529	625	
8	0	0	0	0	529	623	
9	0	0	0	0	530	626	
10	0	0	0	0	529	626	
11	0	0	0	0	529	625	
12	0	0	0	0	529	627	
13	0	0	0	0	529	625	
14	0	0	0	0	529	625	
15	0	0	0	0	529	625	
0	0	0	0	0	530	623	
1	0	0	0	0	531	625	
2	0	0	0	0	530	625	
3	0	0	0	0	531	625	
4	0	0	0	0	531	627	
5	0	0	0	0	530	625	
6	0	0	0	0	528	625	
7	0	0	0	0	527	625	
8	0	0	0	0	527	622	
9	0	0	0	0	527	624	
10	0	0	0	0	528	624	
11	0	0	0	0	530	624	
12	0	0	0	0	531	625	
13	0	0	0	0	531	623	
14	0	0	0	0	532	623	
15	0	0	0	0	533	623	
0	0	0	0	0	534	621	
1	0	0	0	0	535	622	
2	0	0	0	0	537	623	
3	0	0	0	0	540	622	
4	0	0	0	0	543	623	
5	0	0	0	0	545	622	
6	0	0	0	0	546	622	
7	0	0	0	0	547	622	
8	0	0	0	0	546	620	
9	0	0	0	0	547	621	
10	0	0	0	0	548	621	
11	0	0	0	0	549	620	
12	0	0	0	0	551	622	
13	0	0	0	0	551	621	
14	0	0	0	0	553	621	
15	0	0	0	0	554	621	
0	0	0	0	0	556	618	
1	0	0	0	0	556	620	
2	0	0	0	0	557	621	
3	0	0	0	0	557	620	
4	0	0	0	0	558	622	
5	0	0	0	0	559	620	
6	0	0	0	0	560	621	
7	0	0	0	0	560	621	
8	0	0	0	0	561	620	
9	0	0	0	0	562	621	
10	0	0	0	0	562	621	
11	0	0	0	0	562	622	
12	0	0	0	0	563	624	
13	0	0	0	0	562	622	
14	0	0	0	0	563	622	
15	0	0	0	0	564	623	
0	0	0	0	0	565	620	
1	0	0	0	0	565	622	
2	0	0	0	0	566	621	
3	0	0	0	0	568	621	
4	0	0	0	0	569	623	
5	0	0	0	0	571	621	
6	0	0	0	0	569	621	
7	0	0	0	0	568	620	
8	0	0	0	0	567	618	
9	0	0	0	0	566	620	
10	0	0	0	0	564	621	
11	0	0	0	0	564	620	
12	0	0	0	0	563	622	
13	0	0	0	0	562	620	
14	0	0	0	0	559	620	
15	0	0	0	0	557	620	
0	0	0	0	0	555	619	
1	0	0	0	0	552	620	
2	0	0	0	0	551	620	
3	0	0	0	0	550	620	
4	0	0	0	0	548	622	
5	0	0	0	0	547	620	
6	0	0	0	0	545	620	
7	0	0	0	0	543	620	
8	0	0	0	0	541	619	
9	0	0	0	0	539	621	
10	0	0	0	0	537	620	
11	0	0	0	0	536	621	
12	0	0	0	0	534	624	
13	0	0	0	0	532	622	
14	0	0	0	0	533	623	
15	0	0	0	0	532	623	
0	0	0	0	0	532	621	
1	0	0	0	0	531	623	
2	0	0	0	0	531	623	
3	0	0	0	0	530	624	
4	0	0	0	0	528	626	
5	0	0	0	0	527	624	
6	0	0	0	0	526	624	
7	0	0	0	0	525	624	
8	0	0	0	0	525	622	
9	0	0	0	0	523	624	
10	0	0	0	0	520	624	
11	0	0	0	0	517	624	
12	0	0	0	0	516	626	
13	0	0	0	0	516	625	
14	0	0	0	0	515	625	
15	0	0	0	0	514	624	
0	0	0	0	0	514	623	
1	0	0	0	0	512	624	
2	0	0	0	0	510	623	
3	0	0	0	0	509	623	
4	0	0	0	0	507	624	
5	0	0	0	0	504	622	
6	0	0	0	0	502	621	
7	0	0	0	0	500	621	
8	0	0	0	0	498	618	
9	0	0	0	0	497	621	
10	0	0	0	0	496	621	
11	0	0	0	0	495	621	
12	0	0	0	0	495	623	
13	0	0	0	0	496	621	
14	0	0	0	0	497	620	
15	0	0	0	0	498	621	
0	0	0	0	0	498	619	
1	0	0	0	0	498	621	
2	0	0	0	0	499	622	
3	0	0	0	0	499	621	
4	0	0	0	0	499	622	
5	0	0	0	0	500	620	
6	0	0	0	0	501	621	
7	0	0	0	0	501	620	
8	0	0	0	0	502	618	
9	0	0	0	0	504	620	
10	0	0	0	0	505	620	
11	0	0	0	0	504	620	
12	0	0	0	0	505	622	
13	0	0	0	0	507	620	
14	0	0	0	0	508	620	
15	0	0	0	0	507	620	
0	0	0	0	0	508	617	
1	0	0	0	0	509	620	
2	0	0	0	0	508	620	
3	0	0	0	0	507	620	
4	0	0	0	0	507	622	
5	0	0	0	0	508	620	
6	0	0	0	0	509	620	
7	0	0	0	0	510	620	
8	0	0	0	0	511	619	
9	0	0	0	0	512	621	
10	0	0	0	0	514	621	
11	0	0	0	0	515	622	
12	0	0	0	0	515	623	
13	0	0	0	0	513	622	
14	0	0	0	0	513	623	
15	0	0	0	0	513	623	
0	0	0	0	0	513	622	
1	0	0	0	0	512	623	
2	0	0	0	0	512	624	
3	0	0	0	0	510	624	
4	0	0	0	0	511	625	
5	0	0	0	0	511	623	
6	0	0	0	0	510	623	
7	0	0	0	0	509	621	
8	0	0	0	0	508	619	
9	0	0	0	0	507	619	
10	0	0	0	0	506	619	
11	0	0	0	0	505	618	
12	0	0	0	0	505	620	
13	0	0	0	0	504	618	
14	0	0	0	0	504	617	
15	0	0	0	0	502	617	
0	0	0	0	0	502	616	
1	0	0	0	0	501	618	
2	0	0	0	0	501	619	
3	0	0	0	0	500	619	
4	0	0	0	0	498	621	
5	0	0	0	0	496	620	
6	0	0	0	0	493	621	
7	0	0	0	0	490	622	
8	0	0	0	0	488	621	
9	0	0	0	0	487	623	
10	0	0	0	0	487	624	
11	0	0	0	0	487	624	
12	0	0	0	0	485	625	
13	0	0	0	0	484	624	
14	0	0	0	0	483	624	
15	0	0	0	0	483	623	
0	0	0	0	0	483	621	
1	0	0	0	0	483	623	
2	0	0	0	0	484	623	
3	0	0	0	0	485	622	
4	0	0	0	0	487	624	
5	0	0	0	0	487	621	
6	0	0	0	0	487	621	
7	0	0	0	0	488	620	
8	0	0	0	0	489	619	
9	0	0	0	0	490	620	
10	0	0	0	0	490	620	
11	0	0	0	0	491	620	
12	0	0	0	0	490	621	
13	0	0	0	0	490	621	
14	0	0	0	0	489	621	
15	0	0	0	0	487	620	
0	0	0	0	0	487	619	
1	0	0	0	0	487	621	
2	0	0	0	0	486	621	
3	0	0	0	0	484	621	
4	0	0	0	0	483	623	
5	0	0	0	0	482	622	
6	0	0	0	0	481	622	
7	0	0	0	0	480	622	
8	0	0	0	0	477	620	
9	0	0	0	0	476	622	
10	0	0	0	0	476	622	
11	0	0	0	0	476	622	
12	0	0	0	0	477	624	
13	0	0	0	0	477	623	
14	0	0	0	0	476	622	
15	0	0	0	0	476	622	
0	0	0	0	0	475	620	
1	0	0	0	0	475	622	
2	0	0	0	0	476	622	
3	0	0	0	0	475	623	
4	0	0	0	0	476	624	
5	0	0	0	0	476	623	
6	0	0	0	0	474	623	
7	0	0	0	0	472	623	
8	0	0	0	0	471	621	
9	0	0	0	0	471	623	
10	0	0	0	0	470	623	
11	0	0	0	0	470	624	
12	0	0	0	0	471	626	
13	0	0	0	0	473	624	
14	0	0	0	0	473	624	
15	0	0	0	0	473	624	
0	0	0	0	0	472	623	
1	0	0	0	0	470	625	
2	0	0	0	0	469	625	
3	0	0	0	0	468	626	
4	0	0	0	0	468	627	
5	0	0	0	0	468	627	
6	0	0	0	0	468	626	
7	0	0	0	0	469	626	
8	0	0	0	0	469	625	
9	0	0	0	0	468	627	
10	0	0	0	0	467	627	
11	0	0	0	0	468	627	
12	0	0	0	0	468	629	
13	0	0	0	0	468	627	
14	0	0	0	0	469	627	
15	0	0	0	0	468	626	
0	0	0	0	0	467	625	
1	0	0	0	0	467	627	
2	0	0	0	0	465	627	
3	0	0	0	0	465	627	
4	0	0	0	0	466	628	
5	0	0	0	0	467	627	
6	0	0	0	0	468	626	
7	0	0	0	0	469	626	
8	0	0	0	0	470	624	
9	0	0	0	0	470	626	
10	0	0	0	0	471	625	
11	0	0	0	0	473	625	
12	0	0	0	0	476	626	
13	0	0	0	0	479	625	
14	0	0	0	0	480	624	
15	0	0	0	0	480	625	
0	0	0	0	0	480	622	
1	0	0	0	0	480	624	
2	0	0	0	0	482	624	
3	0	0	0	0	483	624	
4	0	0	0	0	484	626	
5	0	0	0	0	487	624	
6	0	0	0	0	488	624	
7	0	0	0	0	489	624	
8	0	0	0	0	489	622	
9	0	0	0	0	488	624	
10	0	0	0	0	487	624	
11	0	0	0	0	487	623	
12	0	0	0	0	488	625	
13	0	0	0	0	489	623	
14	0	0	0	0	490	623	
15	0	0	0	0	491	624	
0	0	0	0	0	490	621	
1	0	0	0	0	493	623	
2	0	0	0	0	495	622	
3	0	0	0	0	496	622	
4	0	0	0	0	497	624	
5	0	0	0	0	498	622	
6	0	0	0	0	499	622	
7	0	0	0	0	499	622	
8	0	0	0	0	500	619	
9	0	0	0	0	501	621	
10	0	0	0	0	503	620	
11	0	0	0	0	506	620	
12	0	0	0	0	508	623	
13	0	0	0	0	510	621	
14	0	0	0	0	511	621	
15	0	0	0	0	512	621	
0	0	0	0	0	512	620	
1	0	0	0	0	513	622	
2	0	0	0	0	515	622	
3	0	0	0	0	517	622	
4	0	0	0	0	518	624	
5	0	0	0	0	518	622	
6	0	0	0	0	519	623	
7	0	0	0	0	520	622	
8	0	0	0	0	520	620	
9	0	0	0	0	521	622	
10	0	0	0	0	520	622	
11	0	0	0	0	520	622	
12	0	0	0	0	520	624	
13	0	0	0	0	520	622	
14	0	0	0	0	519	622	
15	0	0	0	0	519	621	
0	0	0	0	0	520	619	
1	0	0	0	0	521	622	
2	0	0	0	0	523	621	
3	0	0	0	0	524	621	
4	0	0	0	0	525	623	
5	0	0	0	0	524	621	
6	0	0	0	0	525	621	
7	0	0	0	0	526	620	
8	0	0	0	0	527	619	
9	0	0	0	0	527	620	
10	0	0	0	0	528	620	
11	0	0	0	0	529	619	
12	0	0	0	0	529	621	
13	0	0	0	0	530	619	
14	0	0	0	0	531	619	
15	0	0	0	0	533	619	
0	0	0	0	0	535	617	
1	0	0	0	0	535	619	
2	0	0	0	0	536	618	
3	0	0	0	0	535	619	
4	0	0	0	0	535	620	
5	0	0	0	0	536	619	
6	0	0	0	0	536	619	
7	0	0	0	0	536	620	
8	0	0	0	0	537	617	
9	0	0	0	0	537	620	
10	0	0	0	0	537	620	
11	0	0	0	0	536	620	
12	0	0	0	0	536	622	
13	0	0	0	0	537	620	
14	0	0	0	0	535	620	
15	0	0	0	0	534	620	
0	0	0	0	0	534	619	
1	0	0	0	0	535	620	
2	0	0	0	0	534	620	
3	0	0	0	0	535	620	
4	0	0	0	0	536	622	
5	0	0	0	0	537	620	
6	0	0	0	0	538	620	
7	0	0	0	0	539	619	
8	0	0	0	0	538	617	
9	0	0	0	0	539	620	
10	0	0	0	0	540	620	
11	0	0	0	0	541	619	
12	0	0	0	0	542	621	
13	0	0	0	0	544	619	
14	0	0	0	0	544	619	
15	0	0	0	0	545	619	
0	0	0	0	0	544	617	
1	0	0	0	0	545	619	
2	0	0	0	0	545	619	
3	0	0	0	0	545	619	
4	0	0	0	0	545	620	
5	0	0	0	0	547	619	
6	0	0	0	0	547	619	
7	0	0	0	0	547	619	
8	0	0	0	0	548	617	
9	0	0	0	0	548	619	
10	0	0	0	0	549	620	
11	0	0	0	0	550	619	
12	0	0	0	0	549	621	
13	0	0	0	0	550	620	
14	0	0	0	0	549	620	
15	0	0	0	0	548	620	
0	0	0	0	0	548	618	
1	0	0	0	0	547	620	
2	0	0	0	0	546	620	
3	0	0	0	0	544	620	
4	0	0	0	0	543	623	
5	0	0	0	0	543	620	
6	0	0	0	0	542	620	
7	0	0	0	0	541	621	
8	0	0	0	0	539	619	
9	0	0	0	0	536	621	
10	0	0	0	0	531	622	
11	0	0	0	0	526	622	
12	0	0	0	0	520	624	
13	0	0	0	0	513	623	
14	0	0	0	0	507	623	
15	0	0	0	0	500	622	
0	0	0	0	0	494	620	
1	0	0	0	0	490	622	
2	0	0	0	0	489	623	
3	0	0	0	0	488	622	
4	0	0	0	0	492	625	
5	0	0	0	0	498	623	
6	0	0	0	0	506	623	
7	0	0	0	0	514	624	
8	0	0	0	0	520	622	
9	0	0	0	0	527	624	
10	0	0	0	0	536	625	
11	0	0	0	0	544	625	
12	0	0	0	0	553	626	
13	0	0	0	0	563	625	
14	0	0	0	0	576	625	
15	0	0	0	0	590	625	
0	0	0	0	0	606	624	
1	0	0	0	0	625	625	
2	0	0	0	0	648	625	
3	0	0	0	0	673	625	
4	0	0	0	0	701	627	
5	0	0	0	0	732	625	
6	0	0	0	0	763	625	
7	0	0	0	0	793	625	
8	0	0	0	0	824	624	
9	0	0	0	0	855	625	
10	0	0	0	0	888	625	
11	0	0	0	0	920	625	
12	0	0	0	0	952	627	
13	0	0	0	0	981	625	
14	0	0	0	0	1004	625	
15	0	0	0	0	1020	625	
0	0	0	0	0	1022	622	
1	0	0	0	0	1022	624	
2	0	0	0	0	1022	624	
3	0	0	0	0	1022	624	
4	0	0	0	0	1022	626	
5	0	0	0	0	1022	624	
6	0	0	0	0	1022	624	
7	0	0	0	0	1022	625	
8	0	0	0	0	1021	622	
9	0	0	0	0	1002	624	
10	0	0	0	0	979	625	
11	0	0	0	0	953	624	
12	0	0	0	0	928	626	
13	0	0	0	0	900	625	
14	0	0	0	0	868	625	
15	0	0	0	0	835	625	
0	0	0	0	0	801	624	
1	0	0	0	0	766	626	
2	0	0	0	0	731	626	
3	0	0	0	0	696	626	
4	0	0	0	0	663	628	
5	0	0	0	0	633	626	
6	0	0	0	0	609	626	
7	0	0	0	0	588	625	
8	0	0	0	0	572	624	
9	0	0	0	0	556	626	
10	0	0	0	0	544	626	
11	0	0	0	0	533	626	
12	0	0	0	0	524	628	
13	0	0	0	0	514	626	
14	0	0	0	0	504	627	
15	0	0	0	0	493	626	
0	0	0	0	0	483	625	
1	0	0	0	0	473	626	
2	0	0	0	0	465	627	
3	0	0	0	0	455	627	
4	0	0	0	0	448	628	
5	0	0	0	0	442	628	
6	0	0	0	0	435	627	
7	0	0	0	0	431	627	
8	0	0	0	0	425	625	
9	0	0	0	0	418	626	
10	0	0	0	0	412	626	
11	0	0	0	0	408	625	
12	0	0	0	0	405	627	
13	0	0	0	0	401	625	
14	0	0	0	0	398	625	
15	0	0	0	0	394	625	
0	0	0	0	0	392	623	
1	0	0	0	0	390	625	
2	0	0	0	0	389	624	
3	0	0	0	0	389	624	
4	0	0	0	0	390	627	
5	0	0	0	0	391	624	
6	0	0	0	0	391	624	
7	0	0	0	0	392	624	
8	0	0	0	0	392	623	
9	0	0	0	0	393	624	
10	0	0	0	0	392	624	
11	0	0	0	0	393	624	
12	0	0	0	0	393	627	
13	0	0	0	0	394	624	
14	0	0	0	0	396	625	
15	0	0	0	0	397	624	
0	0	0	0	0	398	623	
1	0	0	0	0	400	624	
2	0	0	0	0	403	624	
3	0	0	0	0	405	624	
4	0	0	0	0	407	626	
5	0	0	0	0	411	624	
6	0	0	0	0	413	624	
7	0	0	0	0	415	625	
8	0	0	0	0	418	623	
9	0	0	0	0	419	625	
10	0	0	0	0	421	625	
11	0	0	0	0	423	625	
12	0	0	0	0	424	626	
13	0	0	0	0	424	625	
14	0	0	0	0	426	624	
15	0	0	0	0	426	624	
0	0	0	0	0	429	622	
1	0	0	0	0	431	624	
2	0	0	0	0	433	625	
3	0	0	0	0	434	624	
4	0	0	0	0	435	625	
5	0	0	0	0	437	624	
6	0	0	0	0	439	624	
7	0	0	0	0	440	624	
8	0	0	0	0	440	622	
9	0	0	0	0	441	624	
10	0	0	0	0	443	624	
11	0	0	0	0	443	624	
12	0	0	0	0	444	625	
13	0	0	0	0	444	624	
14	0	0	0	0	446	624	
15	0	0	0	0	447	623	
0	0	0	0	0	448	621	
1	0	0	0	0	449	623	
2	0	0	0	0	451	623	
3	0	0	0	0	452	622	
4	0	0	0	0	453	623	
5	0	0	0	0	454	622	
6	0	0	0	0	455	622	
7	0	0	0	0	456	622	
8	0	0	0	0	457	620	
9	0	0	0	0	458	621	
10	0	0	0	0	460	622	
11	0	0	0	0	461	621	
12	0	0	0	0	462	622	
13	0	0	0	0	461	621	
14	0	0	0	0	461	621	
15	0	0	0	0	462	621	
0	0	0	0	0	463	619	
1	0	0	0	0	463	621	
2	0	0	0	0	462	621	
3	0	0	0	0	462	620	
4	0	0	0	0	460	623	
5	0	0	0	0	459	621	
6	0	0	0	0	458	621	
7	0	0	0	0	457	621	
8	0	0	0	0	456	619	
9	0	0	0	0	455	621	
10	0	0	0	0	455	621	
11	0	0	0	0	453	621	
12	0	0	0	0	452	623	
13	0	0	0	0	451	621	
14	0	0	0	0	449	622	
15	0	0	0	0	449	621	
0	0	0	0	0	449	620	
1	0	0	0	0	449	621	
2	0	0	0	0	449	621	
3	0	0	0	0	447	621	
4	0	0	0	0	445	623	
5	0	0	0	0	443	622	
6	0	0	0	0	440	621	
7	0	0	0	0	438	621	
8	0	0	0	0	435	620	
9	0	0	0	0	435	621	
10	0	0	0	0	433	621	
11	0	0	0	0	432	621	
12	0	0	0	0	431	623	
13	0	0	0	0	430	622	
14	0	0	0	0	428	622	
15	0	0	0	0	427	622	
0	0	0	0	0	425	620	
1	0	0	0	0	424	621	
2	0	0	0	0	425	621	
3	0	0	0	0	425	621	
4	0	0	0	0	425	623	
5	0	0	0	0	423	621	
6	0	0	0	0	421	621	
7	0	0	0	0	419	621	
8	0	0	0	0	417	620	
9	0	0	0	0	414	622	
10	0	0	0	0	411	622	
11	0	0	0	0	408	622	
12	0	0	0	0	405	623	
13	0	0	0	0	403	622	
14	0	0	0	0	401	622	
15	0	0	0	0	401	622	
0	0	0	0	0	400	620	
1	0	0	0	0	399	622	
2	0	0	0	0	397	622	
3	0	0	0	0	397	622	
4	0	0	0	0	397	624	
5	0	0	0	0	396	622	
6	0	0	0	0	395	622	
7	0	0	0	0	393	622	
8	0	0	0	0	393	620	
9	0	0	0	0	392	623	
10	0	0	0	0	391	622	
11	0	0	0	0	390	623	
12	0	0	0	0	389	624	
13	0	0	0	0	389	622	
14	0	0	0	0	390	622	
15	0	0	0	0	389	622	
0	0	0	0	0	388	620	
1	0	0	0	0	389	622	
2	0	0	0	0	390	622	
3	0	0	0	0	391	622	
4	0	0	0	0	392	624	
5	0	0	0	0	394	623	
6	0	0	0	0	396	622	
7	0	0	0	0	399	622	
8	0	0	0	0	400	621	
9	0	0	0	0	402	623	
10	0	0	0	0	403	623	
11	0	0	0	0	405	623	
12	0	0	0	0	407	624	
13	0	0	0	0	408	623	
14	0	0	0	0	410	624	
15	0	0	0	0	411	624	
0	0	0	0	0	413	622	
1	0	0	0	0	414	624	
2	0	0	0	0	414	624	
3	0	0	0	0	413	624	
4	0	0	0	0	413	625	
5	0	0	0	0	414	625	
6	0	0	0	0	414	624	
7	0	0	0	0	415	624	
8	0	0	0	0	417	622	
9	0	0	0	0	419	624	
10	0	0	0	0	422	624	
11	0	0	0	0	420	624	
12	0	0	0	0	420	625	
13	0	0	0	0	420	624	
14	0	0	0	0	419	624	
15	0	0	0	0	420	623	
0	0	0	0	0	421	622	
1	0	0	0	0	423	623	
2	0	0	0	0	425	623	
3	0	0	0	0	427	622	
4	0	0	0	0	429	624	
5	0	0	0	0	430	622	
6	0	0	0	0	431	622	
7	0	0	0	0	431	622	
8	0	0	0	0	431	620	
9	0	0	0	0	431	622	
10	0	0	0	0	429	622	
11	0	0	0	0	428	622	
12	0	0	0	0	429	623	
13	0	0	0	0	428	622	
14	0	0	0	0	427	622	
15	0	0	0	0	427	622	
0	0	0	0	0	425	619	
1	0	0	0	0	425	620	
2	0	0	0	0	425	620	
3	0	0	0	0	425	621	
4	0	0	0	0	426	622	
5	0	0	0	0	424	621	
6	0	0	0	0	424	621	
7	0	0	0	0	426	621	
8	0	0	0	0	427	620	
9	0	0	0	0	427	622	
10	0	0	0	0	428	622	
11	0	0	0	0	429	622	
12	0	0	0	0	430	623	
13	0	0	0	0	432	622	
14	0	0	0	0	434	622	
15	0	0	0	0	436	622	
0	0	0	0	0	438	621	
1	0	0	0	0	440	622	
2	0	0	0	0	443	622	
3	0	0	0	0	445	622	
4	0	0	0	0	449	624	
5	0	0	0	0	452	623	
6	0	0	0	0	456	623	
7	0	0	0	0	459	623	
8	0	0	0	0	461	621	
9	0	0	0	0	463	623	
10	0	0	0	0	465	623	
11	0	0	0	0	468	622	
12	0	0	0	0	471	624	
13	0	0	0	0	473	623	
14	0	0	0	0	476	622	
15	0	0	0	0	480	622	
0	0	0	0	0	483	620	
1	0	0	0	0	485	622	
2	0	0	0	0	487	622	
3	0	0	0	0	491	621	
4	0	0	0	0	494	623	
5	0	0	0	0	496	621	
6	0	0	0	0	499	621	
7	0	0	0	0	501	620	
8	0	0	0	0	504	619	
9	0	0	0	0	506	621	
10	0	0	0	0	509	621	
11	0	0	0	0	510	620	
12	0	0	0	0	511	622	
13	0	0	0	0	512	620	
14	0	0	0	0	513	621	
15	0	0	0	0	514	621	
0	0	0	0	0	515	620	
1	0	0	0	0	516	622	
2	0	0	0	0	517	622	
3	0	0	0	0	519	622	
4	0	0	0	0	519	623	
5	0	0	0	0	519	622	
6	0	0	0	0	520	622	
7	0	0	0	0	520	623	
8	0	0	0	0	521	620	
9	0	0	0	0	522	622	
10	0	0	0	0	521	622	
11	0	0	0	0	521	622	
12	0	0	0	0	522	623	
13	0	0	0	0	523	622	
14	0	0	0	0	523	622	
15	0	0	0	0	524	621	
0	0	0	0	0	524	620	
1	0	0	0	0	523	621	
2	0	0	0	0	523	622	
3	0	0	0	0	522	621	
4	0	0	0	0	523	623	
5	0	0	0	0	523	622	
6	0	0	0	0	524	621	
7	0	0	0	0	523	622	
8	0	0	0	0	523	619	
9	0	0	0	0	523	621	
10	0	0	0	0	522	622	
11	0	0	0	0	523	622	
12	0	0	0	0	522	623	
13	0	0	0	0	520	622	
14	0	0	0	0	518	623	
15	0	0	0	0	515	622	
0	0	0	0	0	514	620	
1	0	0	0	0	513	623	
2	0	0	0	0	512	623	
3	0	0	0	0	513	623	
4	0	0	0	0	514	624	
5	0	0	0	0	514	623	
6	0	0	0	0	513	623	
7	0	0	0	0	512	623	
8	0	0	0	0	512	621	
9	0	0	0	0	512	624	
10	0	0	0	0	512	623	
11	0	0	0	0	512	623	
12	0	0	0	0	512	625	
13	0	0	0	0	513	624	
14	0	0	0	0	513	623	
15	0	0	0	0	513	623	
0	0	0	0	0	513	621	
1	0	0	0	0	514	623	
2	0	0	0	0	515	623	
3	0	0	0	0	515	624	
4	0	0	0	0	515	624	
5	0	0	0	0	515	623	
6	0	0	0	0	515	623	
7	0	0	0	0	516	623	
8	0	0	0	0	515	622	
9	0	0	0	0	515	624	
10	0	0	0	0	515	624	
11	0	0	0	0	515	624	
12	0	0	0	0	516	625	
13	0	0	0	0	517	624	
14	0	0	0	0	518	624	
15	0	0	0	0	518	624	
0	0	0	0	0	519	622	
1	0	0	0	0	519	624	
2	0	0	0	0	519	624	
3	0	0	0	0	518	624	
4	0	0	0	0	518	626	
5	0	0	0	0	517	624	
6	0	0	0	0	517	625	
7	0	0	0	0	518	625	
8	0	0	0	0	519	622	
9	0	0	0	0	521	625	
10	0	0	0	0	523	625	
11	0	0	0	0	524	625	
12	0	0	0	0	525	627	
13	0	0	0	0	524	625	
14	0	0	0	0	526	625	
15	0	0	0	0	527	625	
0	0	0	0	0	530	624	
1	0	0	0	0	531	625	
2	0	0	0	0	532	625	
3	0	0	0	0	532	625	
4	0	0	0	0	536	628	
5	0	0	0	0	536	626	
6	0	0	0	0	536	626	
7	0	0	0	0	537	625	
8	0	0	0	0	537	624	
9	0	0	0	0	536	625	
10	0	0	0	0	535	625	
11	0	0	0	0	534	625	
12	0	0	0	0	535	627	
13	0	0	0	0	534	624	
14	0	0	0	0	534	624	
15	0	0	0	0	533	624	
0	0	0	0	0	533	623	
1	0	0	0	0	531	624	
2	0	0	0	0	529	624	
3	0	0	0	0	529	623	
4	0	0	0	0	528	625	
5	0	0	0	0	527	622	
6	0	0	0	0	527	623	
7	0	0	0	0	527	623	
8	0	0	0	0	528	621	
9	0	0	0	0	528	623	
10	0	0	0	0	526	623	
11	0	0	0	0	525	624	
12	0	0	0	0	525	624	
13	0	0	0	0	525	623	
14	0	0	0	0	524	623	
15	0	0	0	0	524	623	
0	0	0	0	0	524	622	
1	0	0	0	0	524	623	
2	0	0	0	0	524	623	
3	0	0	0	0	522	623	
4	0	0	0	0	523	625	
5	0	0	0	0	523	624	
6	0	0	0	0	524	624	
7	0	0	0	0	524	623	
8	0	0	0	0	523	622	
9	0	0	0	0	524	623	
10	0	0	0	0	523	624	
11	0	0	0	0	523	624	
12	0	0	0	0	523	625	
13	0	0	0	0	523	624	
14	0	0	0	0	524	624	
15	0	0	0	0	524	624	
0	0	0	0	0	525	622	
1	0	0	0	0	526	624	
2	0	0	0	0	527	624	
3	0	0	0	0	526	624	
4	0	0	0	0	525	626	
5	0	0	0	0	524	624	
6	0	0	0	0	525	624	
7	0	0	0	0	527	625	
8	0	0	0	0	528	623	
9	0	0	0	0	530	624	
10	0	0	0	0	532	624	
11	0	0	0	0	534	624	
12	0	0	0	0	535	625	
13	0	0	0	0	535	624	
14	0	0	0	0	536	623	
15	0	0	0	0	537	624	
0	0	0	0	0	537	622	
1	0	0	0	0	539	624	
2	0	0	0	0	538	623	
3	0	0	0	0	539	624	
4	0	0	0	0	538	625	
5	0	0	0	0	538	624	
6	0	0	0	0	537	624	
7	0	0	0	0	536	623	
8	0	0	0	0	536	622	
9	0	0	0	0	536	623	
10	0	0	0	0	536	623	
11	0	0	0	0	536	623	
12	0	0	0	0	537	624	
13	0	0	0	0	538	623	
14	0	0	0	0	538	622	
15	0	0	0	0	539	622	
0	0	0	0	0	540	621	
1	0	0	0	0	540	622	
2	0	0	0	0	540	623	
3	0	0	0	0	539	622	
4	0	0	0	0	538	623	
5	0	0	0	0	536	622	
6	0	0	0	0	535	622	
7	0	0	0	0	534	622	
8	0	0	0	0	533	620	
9	0	0	0	0	531	621	
10	0	0	0	0	529	621	
11	0	0	0	0	526	621	
12	0	0	0	0	525	623	
13	0	0	0	0	524	621	
14	0	0	0	0	524	621	
15	0	0	0	0	524	621	
0	0	0	0	0	523	618	
1	0	0	0	0	522	620	
2	0	0	0	0	523	620	
3	0	0	0	0	523	620	
4	0	0	0	0	523	623	
5	0	0	0	0	522	621	
6	0	0	0	0	522	621	
7	0	0	0	0	521	621	
8	0	0	0	0	520	619	
9	0	0	0	0	521	622	
10	0	0	0	0	521	622	
11	0	0	0	0	520	622	
12	0	0	0	0	518	624	
13	0	0	0	0	516	622	
14	0	0	0	0	513	623	
15	0	0	0	0	511	623	
0	0	0	0	0	509	621	
1	0	0	0	0	508	622	
2	0	0	0	0	506	622	
3	0	0	0	0	508	622	
4	0	0	0	0	508	623	
5	0	0	0	0	510	622	
6	0	0	0	0	511	621	
7	0	0	0	0	510	621	
8	0	0	0	0	509	619	
9	0	0	0	0	509	621	
10	0	0	0	0	509	620	
11	0	0	0	0	509	620	
12	0	0	0	0	507	622	
13	0	0	0	0	507	620	
14	0	0	0	0	507	620	
15	0	0	0	0	508	620	
0	0	0	0	0	508	618	
1	0	0	0	0	508	620	
2	0	0	0	0	508	620	
3	0	0	0	0	510	621	
4	0	0	0	0	510	622	
5	0	0	0	0	510	620	
6	0	0	0	0	510	621	
7	0	0	0	0	512	620	
8	0	0	0	0	513	620	
9	0	0	0	0	514	622	
10	0	0	0	0	515	622	
11	0	0	0	0	514	623	
12	0	0	0	0	514	624	
13	0	0	0	0	514	623	
14	0	0	0	0	514	623	
15	0	0	0	0	515	624	
0	0	0	0	0	516	622	
1	0	0	0	0	515	624	
2	0	0	0	0	517	624	
3	0	0	0	0	517	624	
4	0	0	0	0	517	626	
5	0	0	0	0	517	624	
6	0	0	0	0	517	625	
7	0	0	0	0	517	624	
8	0	0	0	0	518	623	
9	0	0	0	0	518	624	
10	0	0	0	0	519	624	
11	0	0	0	0	518	624	
12	0	0	0	0	518	625	
13	0	0	0	0	517	624	
14	0	0	0	0	517	624	
15	0	0	0	0	516	624	
0	0	0	0	0	515	622	
1	0	0	0	0	514	624	
2	0	0	0	0	513	624	
3	0	0	0	0	511	624	
4	0	0	0	0	510	625	
5	0	0	0	0	509	623	
6	0	0	0	0	509	623	
7	0	0	0	0	509	623	
8	0	0	0	0	508	622	
9	0	0	0	0	507	623	
10	0	0	0	0	507	624	
11	0	0	0	0	506	623	
12	0	0	0	0	505	625	
13	0	0	0	0	505	623	
14	0	0	0	0	504	624	
15	0	0	0	0	503	623	
0	0	0	0	0	501	621	
1	0	0	0	0	498	622	
2	0	0	0	0	496	623	
3	0	0	0	0	494	623	
4	0	0	0	0	492	624	
5	0	0	0	0	491	623	
6	0	0	0	0	489	624	
7	0	0	0	0	487	623	
8	0	0	0	0	486	622	
9	0	0	0	0	486	623	
10	0	0	0	0	485	623	
11	0	0	0	0	484	623	
12	0	0	0	0	483	625	
13	0	0	0	0	484	624	
14	0	0	0	0	484	624	
15	0	0	0	0	483	623	
0	0	0	0	0	483	622	
1	0	0	0	0	484	624	
2	0	0	0	0	483	624	
3	0	0	0	0	483	624	
4	0	0	0	0	481	626	
5	0	0	0	0	481	625	
6	0	0	0	0	480	625	
7	0	0	0	0	479	625	
8	0	0	0	0	478	623	
9	0	0	0	0	477	625	
10	0	0	0	0	476	625	
11	0	0	0	0	475	625	
12	0	0	0	0	473	627	
13	0	0	0	0	473	626	
14	0	0	0	0	475	625	
15	0	0	0	0	476	625	
0	0	0	0	0	477	623	
1	0	0	0	0	479	625	
2	0	0	0	0	479	625	
3	0	0	0	0	479	625	
4	0	0	0	0	480	626	
5	0	0	0	0	481	624	
6	0	0	0	0	480	625	
7	0	0	0	0	480	624	
8	0	0	0	0	481	622	
9	0	0	0	0	481	624	
10	0	0	0	0	481	623	
11	0	0	0	0	480	623	
12	0	0	0	0	481	625	
13	0	0	0	0	480	624	
14	0	0	0	0	481	624	
15	0	0	0	0	481	623	
0	0	0	0	0	481	622	
1	0	0	0	0	481	624	
2	0	0	0	0	481	623	
3	0	0	0	0	481	623	
4	0	0	0	0	481	625	
5	0	0	0	0	480	624	
6	0	0	0	0	480	624	
7	0	0	0	0	480	624	
8	0	0	0	0	481	621	
9	0	0	0	0	481	623	
10	0	0	0	0	481	623	
11	0	0	0	0	481	623	
12	0	0	0	0	481	624	
13	0	0	0	0	480	623	
14	0	0	0	0	480	622	
15	0	0	0	0	479	623	
0	0	0	0	0	477	621	
1	0	0	0	0	474	623	
2	0	0	0	0	469	622	
3	0	0	0	0	464	622	
4	0	0	0	0	457	624	
5	0	0	0	0	452	623	
6	0	0	0	0	447	622	
7	0	0	0	0	441	622	
8	0	0	0	0	436	620	
9	0	0	0	0	432	623	
10	0	0	0	0	430	623	
11	0	0	0	0	430	622	
12	0	0	0	0	434	624	
13	0	0	0	0	441	623	
14	0	0	0	0	448	622	
15	0	0	0	0	456	623	
0	0	0	0	0	467	621	
1	0	0	0	0	478	622	
2	0	0	0	0	488	622	
3	0	0	0	0	499	622	
4	0	0	0	0	513	623	
5	0	0	0	0	524	622	
6	0	0	0	0	536	622	
7	0	0	0	0	550	623	
8	0	0	0	0	565	620	
9	0	0	0	0	583	623	
10	0	0	0	0	604	623	
11	0	0	0	0	627	623	
12	0	0	0	0	654	625	
13	0	0	0	0	681	623	
14	0	0	0	0	709	623	
15	0	0	0	0	739	623	
0	0	0	0	0	769	621	
1	0	0	0	0	800	623	
2	0	0	0	0	831	622	
3	0	0	0	0	863	623	
4	0	0	0	0	893	624	
5	0	0	0	0	921	623	
6	0	0	0	0	944	623	
7	0	0	0	0	962	622	
8	0	0	0	0	978	620	
9	0	0	0	0	990	623	
10	0	0	0	0	1000	622	
11	0	0	0	0	1009	622	
12	0	0	0	0	1014	623	
13	0	0	0	0	1014	622	
14	0	0	0	0	1009	621	
15	0	0	0	0	1000	621	
0	0	0	0	0	986	620	
1	0	0	0	0	968	622	
2	0	0	0	0	947	622	
3	0	0	0	0	922	622	
4	0	0	0	0	895	623	
5	0	0	0	0	867	622	
6	0	0	0	0	836	622	
7	0	0	0	0	803	623	
8	0	0	0	0	769	621	
9	0	0	0	0	736	622	
10	0	0	0	0	701	623	
11	0	0	0	0	665	623	
12	0	0	0	0	632	624	
13	0	0	0	0	602	624	
14	0	0	0	0	576	623	
15	0	0	0	0	555	624	
0	0	0	0	0	539	622	
1	0	0	0	0	525	624	
2	0	0	0	0	512	623	
3	0	0	0	0	500	623	
4	0	0	0	0	491	625	
5	0	0	0	0	481	623	
6	0	0	0	0	470	623	
7	0	0	0	0	459	623	
8	0	0	0	0	448	621	
9	0	0	0	0	437	623	
10	0	0	0	0	424	622	
11	0	0	0	0	414	622	
12	0	0	0	0	404	624	
13	0	0	0	0	395	622	
14	0	0	0	0	387	621	
15	0	0	0	0	381	622	
0	0	0	0	0	376	620	
1	0	0	0	0	371	621	
2	0	0	0	0	367	621	
3	0	0	0	0	363	620	
4	0	0	0	0	359	622	
5	0	0	0	0	358	620	
6	0	0	0	0	356	620	
7	0	0	0	0	355	620	
8	0	0	0	0	353	617	
9	0	0	0	0	352	619	
10	0	0	0	0	352	620	
11	0	0	0	0	353	619	
12	0	0	0	0	353	621	
13	0	0	0	0	353	619	
14	0	0	0	0	354	619	
15	0	0	0	0	355	619	
0	0	0	0	0	357	617	
1	0	0	0	0	359	619	
2	0	0	0	0	359	619	
3	0	0	0	0	360	619	
4	0	0	0	0	363	621	
5	0	0	0	0	364	619	
6	0	0	0	0	366	620	
7	0	0	0	0	366	620	
8	0	0	0	0	366	617	
9	0	0	0	0	367	620	
10	0	0	0	0	368	619	
11	0	0	0	0	368	619	
12	0	0	0	0	368	621	
13	0	0	0	0	369	620	
14	0	0	0	0	371	620	
15	0	0	0	0	371	620	
0	0	0	0	0	372	618	
1	0	0	0	0	374	620	
2	0	0	0	0	374	619	
3	0	0	0	0	374	620	
4	0	0	0	0	374	622	
5	0	0	0	0	375	620	
6	0	0	0	0	376	620	
7	0	0	0	0	376	620	
8	0	0	0	0	379	618	
9	0	0	0	0	380	620	
10	0	0	0	0	380	620	
11	0	0	0	0	382	620	
12	0	0	0	0	383	622	
13	0	0	0	0	384	621	
14	0	0	0	0	384	621	
15	0	0	0	0	385	621	
0	0	0	0	0	385	619	
1	0	0	0	0	386	622	
2	0	0	0	0	388	621	
3	0	0	0	0	389	621	
4	0	0	0	0	391	623	
5	0	0	0	0	391	621	
6	0	0	0	0	391	621	
7	0	0	0	0	394	622	
8	0	0	0	0	395	620	
9	0	0	0	0	396	621	
10	0	0	0	0	396	621	
11	0	0	0	0	398	622	
12	0	0	0	0	399	623	
13	0	0	0	0	400	621	
14	0	0	0	0	401	622	
15	0	0	0	0	402	622	
0	0	0	0	0	403	620	
1	0	0	0	0	403	622	
2	0	0	0	0	403	622	
3	0	0	0	0	403	621	
4	0	0	0	0	405	624	
5	0	0	0	0	405	621	
6	0	0	0	0	406	622	
7	0	0	0	0	406	622	
8	0	0	0	0	407	620	
9	0	0	0	0	408	622	
10	0	0	0	0	409	623	
11	0	0	0	0	411	623	
12	0	0	0	0	411	625	
13	0	0	0	0	411	624	
14	0	0	0	0	411	623	
15	0	0	0	0	410	624	
0	0	0	0	0	411	622	
1	0	0	0	0	411	624	
2	0	0	0	0	412	623	
3	0	0	0	0	412	624	
4	0	0	0	0	414	626	
5	0	0	0	0	415	625	
6	0	0	0	0	415	624	
7	0	0	0	0	415	624	
8	0	0	0	0	415	622	
9	0	0	0	0	415	624	
10	0	0	0	0	416	624	
11	0	0	0	0	415	625	
12	0	0	0	0	416	626	
13	0	0	0	0	419	625	
14	0	0	0	0	419	625	
15	0	0	0	0	419	624	
0	0	0	0	0	420	624	
1	0	0	0	0	420	626	
2	0	0	0	0	420	625	
3	0	0	0	0	420	626	
4	0	0	0	0	420	627	
5	0	0	0	0	420	626	
6	0	0	0	0	419	625	
7	0	0	0	0	422	627	
8	0	0	0	0	423	624	
9	0	0	0	0	425	626	
10	0	0	0	0	425	626	
11	0	0	0	0	427	627	
12	0	0	0	0	428	628	
13	0	0	0	0	428	627	
14	0	0	0	0	430	627	
15	0	0	0	0	431	627	
0	0	0	0	0	432	624	
1	0	0	0	0	432	627	
2	0	0	0	0	432	627	
3	0	0	0	0	432	627	
4	0	0	0	0	433	628	
5	0	0	0	0	432	626	
6	0	0	0	0	433	625	
7	0	0	0	0	433	626	
8	0	0	0	0	433	624	
9	0	0	0	0	433	625	
10	0	0	0	0	433	626	
11	0	0	0	0	432	625	
12	0	0	0	0	432	627	
13	0	0	0	0	432	625	
14	0	0	0	0	432	626	
15	0	0	0	0	433	626	
0	0	0	0	0	433	624	
1	0	0	0	0	433	626	
2	0	0	0	0	434	626	
3	0	0	0	0	435	627	
4	0	0	0	0	435	629	
5	0	0	0	0	435	628	
6	0	0	0	0	435	628	
7	0	0	0	0	435	628	
8	0	0	0	0	435	626	
9	0	0	0	0	436	629	
10	0	0	0	0	438	628	
11	0	0	0	0	438	628	
12	0	0	0	0	438	631	
13	0	0	0	0	438	629	
14	0	0	0	0	438	629	
15	0	0	0	0	439	629	
0	0	0	0	0	440	627	
1	0	0	0	0	442	628	
2	0	0	0	0	444	629	
3	0	0	0	0	445	628	
4	0	0	0	0	447	630	
5	0	0	0	0	447	628	
6	0	0	0	0	448	628	
7	0	0	0	0	447	628	
8	0	0	0	0	448	627	
9	0	0	0	0	449	628	
10	0	0	0	0	449	627	
11	0	0	0	0	449	627	
12	0	0	0	0	450	629	
13	0	0	0	0	451	628	
14	0	0	0	0	452	627	
15	0	0	0	0	454	627	
0	0	0	0	0	455	625	
1	0	0	0	0	456	627	
2	0	0	0	0	457	627	
3	0	0	0	0	457	627	
4	0	0	0	0	458	628	
5	0	0	0	0	458	627	
6	0	0	0	0	459	627	
7	0	0	0	0	461	627	
8	0	0	0	0	461	625	
9	0	0	0	0	463	626	
10	0	0	0	0	464	626	
11	0	0	0	0	464	625	
12	0	0	0	0	464	627	
13	0	0	0	0	463	625	
14	0	0	0	0	465	625	
15	0	0	0	0	468	624	
0	0	0	0	0	470	623	
1	0	0	0	0	472	624	
2	0	0	0	0	472	624	
3	0	0	0	0	472	624	
4	0	0	0	0	472	625	
5	0	0	0	0	473	623	
6	0	0	0	0	472	623	
7	0	0	0	0	474	622	
8	0	0	0	0	475	621	
9	0	0	0	0	476	622	
10	0	0	0	0	477	622	
11	0	0	0	0	479	621	
12	0	0	0	0	480	623	
13	0	0	0	0	480	622	
14	0	0	0	0	483	621	
15	0	0	0	0	484	622	
0	0	0	0	0	486	620	
1	0	0	0	0	485	621	
2	0	0	0	0	486	622	
3	0	0	0	0	487	622	
4	0	0	0	0	487	624	
5	0	0	0	0	489	622	
6	0	0	0	0	491	622	
7	0	0	0	0	492	622	
8	0	0	0	0	494	620	
9	0	0	0	0	496	623	
10	0	0	0	0	498	622	
11	0	0	0	0	499	622	
12	0	0	0	0	500	624	
13	0	0	0	0	503	622	
14	0	0	0	0	505	622	
15	0	0	0	0	504	622	
0	0	0	0	0	507	619	
1	0	0	0	0	509	621	
2	0	0	0	0	512	621	
3	0	0	0	0	515	621	
4	0	0	0	0	517	623	
5	0	0	0	0	519	620	
6	0	0	0	0	519	620	
7	0	0	0	0	521	620	
8	0	0	0	0	524	617	
9	0	0	0	0	526	619	
10	0	0	0	0	527	620	
11	0	0	0	0	529	619	
12	0	0	0	0	533	622	
13	0	0	0	0	535	620	
14	0	0	0	0	538	619	
15	0	0	0	0	540	619	
0	0	0	0	0	541	617	
1	0	0	0	0	541	620	
2	0	0	0	0	543	619	
3	0	0	0	0	544	619	
4	0	0	0	0	544	620	
5	0	0	0	0	545	619	
6	0	0	0	0	547	619	
7	0	0	0	0	548	619	
8	0	0	0	0	550	617	
9	0	0	0	0	551	619	
10	0	0	0	0	550	619	
11	0	0	0	0	551	619	
12	0	0	0	0	551	620	
13	0	0	0	0	552	619	
14	0	0	0	0	552	619	
15	0	0	0	0	551	619	
0	0	0	0	0	552	617	
1	0	0	0	0	551	619	
2	0	0	0	0	551	619	
3	0	0	0	0	551	619	
4	0	0	0	0	550	621	
5	0	0	0	0	550	619	
6	0	0	0	0	549	619	
7	0	0	0	0	549	620	
8	0	0	0	0	547	618	
9	0	0	0	0	547	620	
10	0	0	0	0	547	621	
11	0	0	0	0	546	620	
12	0	0	0	0	544	622	
13	0	0	0	0	543	621	
14	0	0	0	0	541	620	
15	0	0	0	0	539	621	
0	0	0	0	0	539	620	
1	0	0	0	0	539	622	
2	0	0	0	0	538	622	
3	0	0	0	0	537	623	
4	0	0	0	0	536	624	
5	0	0	0	0	536	623	
6	0	0	0	0	536	623	
7	0	0	0	0	536	623	
8	0	0	0	0	534	621	
9	0	0	0	0	534	623	
10	0	0	0	0	533	623	
11	0	0	0	0	533	624	
12	0	0	0	0	534	625	
13	0	0	0	0	532	623	
14	0	0	0	0	531	624	
15	0	0	0	0	530	623	
0	0	0	0	0	528	621	
1	0	0	0	0	526	622	
2	0	0	0	0	524	623	
3	0	0	0	0	524	624	
4	0	0	0	0	523	624	
5	0	0	0	0	522	623	
6	0	0	0	0	519	623	
7	0	0	0	0	518	622	
8	0	0	0	0	516	620	
9	0	0	0	0	515	622	
10	0	0	0	0	515	622	
11	0	0	0	0	515	622	
12	0	0	0	0	515	624	
13	0	0	0	0	515	622	
14	0	0	0	0	515	621	
15	0	0	0	0	515	621	
0	0	0	0	0	515	619	
1	0	0	0	0	513	621	
2	0	0	0	0	513	621	
3	0	0	0	0	513	620	
4	0	0	0	0	512	622	
5	0	0	0	0	512	620	
6	0	0	0	0	512	621	
7	0	0	0	0	513	621	
8	0	0	0	0	512	619	
9	0	0	0	0	512	620	
10	0	0	0	0	512	620	
11	0	0	0	0	511	620	
12	0	0	0	0	512	623	
13	0	0	0	0	512	621	
14	0	0	0	0	511	621	
15	0	0	0	0	511	622	
0	0	0	0	0	511	620	
1	0	0	0	0	511	622	
2	0	0	0	0	512	622	
3	0	0	0	0	512	623	
4	0	0	0	0	513	624	
5	0	0	0	0	512	624	
6	0	0	0	0	512	624	
7	0	0	0	0	512	623	
8	0	0	0	0	513	622	
9	0	0	0	0	514	624	
10	0	0	0	0	514	624	
11	0	0	0	0	515	624	
12	0	0	0	0	516	626	
13	0	0	0	0	516	624	
14	0	0	0	0	515	624	
15	0	0	0	0	515	624	
0	0	0	0	0	515	622	
1	0	0	0	0	514	624	
2	0	0	0	0	515	624	
3	0	0	0	0	514	624	
4	0	0	0	0	515	625	
5	0	0	0	0	515	623	
6	0	0	0	0	514	623	
7	0	0	0	0	515	623	
8	0	0	0	0	515	621	
9	0	0	0	0	516	623	
10	0	0	0	0	518	624	
11	0	0	0	0	518	623	
12	0	0	0	0	518	625	
13	0	0	0	0	518	624	
14	0	0	0	0	517	624	
15	0	0	0	0	515	623	
0	0	0	0	0	515	622	
1	0	0	0	0	515	624	
2	0	0	0	0	516	624	
3	0	0	0	0	515	624	
4	0	0	0	0	515	626	
5	0	0	0	0	513	624	
6	0	0	0	0	513	624	
7	0	0	0	0	512	624	
8	0	0	0	0	512	622	
9	0	0	0	0	512	624	
10	0	0	0	0	512	624	
11	0	0	0	0	513	624	
12	0	0	0	0	514	625	
13	0	0	0	0	514	624	
14	0	0	0	0	513	624	
15	0	0	0	0	513	624	
0	0	0	0	0	513	622	
1	0	0	0	0	513	623	
2	0	0	0	0	512	623	
3	0	0	0	0	512	622	
4	0	0	0	0	513	624	
5	0	0	0	0	514	621	
6	0	0	0	0	514	621	
7	0	0	0	0	513	620	
8	0	0	0	0	512	618	
9	0	0	0	0	512	620	
10	0	0	0	0	512	619	
11	0	0	0	0	511	619	
12	0	0	0	0	511	621	
13	0	0	0	0	509	619	
14	0	0	0	0	510	619	
15	0	0	0	0	508	620	
0	0	0	0	0	507	618	
1	0	0	0	0	507	620	
2	0	0	0	0	508	621	
3	0	0	0	0	507	622	
4	0	0	0	0	508	624	
5	0	0	0	0	509	623	
6	0	0	0	0	511	623	
7	0	0	0	0	512	624	
8	0	0	0	0	512	622	
9	0	0	0	0	512	624	
10	0	0	0	0	513	624	
11	0	0	0	0	512	624	
12	0	0	0	0	512	627	
13	0	0	0	0	513	625	
14	0	0	0	0	513	624	
15	0	0	0	0	513	625	
0	0	0	0	0	512	623	
1	0	0	0	0	513	625	
2	0	0	0	0	515	624	
3	0	0	0	0	514	625	
4	0	0	0	0	514	627	
5	0	0	0	0	512	625	
6	0	0	0	0	512	625	
7	0	0	0	0	511	625	
8	0	0	0	0	510	623	
9	0	0	0	0	509	625	
10	0	0	0	0	508	624	
11	0	0	0	0	508	625	
12	0	0	0	0	508	627	
13	0	0	0	0	507	625	
14	0	0	0	0	506	624	
15	0	0	0	0	505	624	
0	0	0	0	0	505	622	
1	0	0	0	0	505	624	
2	0	0	0	0	504	624	
3	0	0	0	0	503	623	
4	0	0	0	0	502	625	
5	0	0	0	0	502	623	
6	0	0	0	0	502	623	
7	0	0	0	0	501	622	
8	0	0	0	0	499	620	
9	0	0	0	0	498	621	
10	0	0	0	0	498	621	
11	0	0	0	0	498	620	
12	0	0	0	0	498	622	
13	0	0	0	0	497	621	
14	0	0	0	0	496	621	
15	0	0	0	0	495	621	
0	0	0	0	0	494	620	
1	0	0	0	0	494	620	
2	0	0	0	0	493	620	
3	0	0	0	0	493	620	
4	0	0	0	0	493	623	
5	0	0	0	0	492	620	
6	0	0	0	0	490	621	
7	0	0	0	0	491	621	
8	0	0	0	0	490	619	
9	0	0	0	0	489	621	
10	0	0	0	0	490	621	
11	0	0	0	0	489	622	
12	0	0	0	0	488	623	
13	0	0	0	0	489	622	
14	0	0	0	0	489	622	
15	0	0	0	0	489	622	
0	0	0	0	0	488	621	
1	0	0	0	0	488	622	
2	0	0	0	0	488	623	
3	0	0	0	0	488	622	
4	0	0	0	0	491	624	
5	0	0	0	0	491	622	
6	0	0	0	0	493	622	
7	0	0	0	0	494	623	
8	0	0	0	0	496	620	
9	0	0	0	0	497	623	
10	0	0	0	0	499	623	
11	0	0	0	0	499	623	
12	0	0	0	0	500	624	
13	0	0	0	0	502	624	
14	0	0	0	0	503	624	
15	0	0	0	0	504	624	
0	0	0	0	0	504	622	
1	0	0	0	0	505	624	
2	0	0	0	0	507	624	
3	0	0	0	0	508	624	
4	0	0	0	0	510	626	
5	0	0	0	0	510	625	
6	0	0	0	0	509	624	
7	0	0	0	0	510	624	
8	0	0	0	0	511	622	
9	0	0	0	0	511	624	
10	0	0	0	0	511	624	
11	0	0	0	0	511	625	
12	0	0	0	0	511	626	
13	0	0	0	0	510	624	
14	0	0	0	0	511	624	
15	0	0	0	0	512	624	
0	0	0	0	0	512	622	
1	0	0	0	0	513	624	
2	0	0	0	0	513	624	
3	0	0	0	0	514	624	
4	0	0	0	0	515	626	
5	0	0	0	0	516	624	
6	0	0	0	0	517	624	
7	0	0	0	0	518	625	
8	0	0	0	0	519	622	
9	0	0	0	0	521	624	
10	0	0	0	0	521	624	
11	0	0	0	0	521	624	
12	0	0	0	0	521	626	
13	0	0	0	0	521	624	
14	0	0	0	0	520	624	
15	0	0	0	0	519	625	
0	0	0	0	0	518	623	
1	0	0	0	0	517	624	
2	0	0	0	0	518	624	
3	0	0	0	0	517	624	
4	0	0	0	0	515	626	
5	0	0	0	0	515	624	
6	0	0	0	0	514	624	
7	0	0	0	0	513	623	
8	0	0	0	0	511	622	
9	0	0	0	0	509	623	
10	0	0	0	0	509	622	
11	0	0	0	0	509	622	
12	0	0	0	0	509	624	
13	0	0	0	0	509	623	
14	0	0	0	0	510	623	
15	0	0	0	0	509	623	
0	0	0	0	0	509	621	
1	0	0	0	0	509	623	
2	0	0	0	0	510	623	
3	0	0	0	0	512	623	
4	0	0	0	0	512	624	
5	0	0	0	0	513	622	
6	0	0	0	0	514	623	
7	0	0	0	0	513	623	
8	0	0	0	0	512	621	
9	0	0	0	0	510	623	
10	0	0	0	0	508	623	
11	0	0	0	0	507	623	
12	0	0	0	0	507	625	
13	0	0	0	0	508	623	
14	0	0	0	0	507	623	
15	0	0	0	0	507	623	
0	0	0	0	0	507	621	
1	0	0	0	0	508	623	
2	0	0	0	0	509	623	
3	0	0	0	0	508	622	
4	0	0	0	0	509	624	
5	0	0	0	0	510	623	
6	0	0	0	0	509	622	
7	0	0	0	0	508	622	
8	0	0	0	0	509	620	
9	0	0	0	0	508	622	
10	0	0	0	0	508	622	
11	0	0	0	0	508	621	
12	0	0	0	0	508	623	
13	0	0	0	0	508	622	
14	0	0	0	0	507	620	
15	0	0	0	0	507	620	
0	0	0	0	0	507	619	
1	0	0	0	0	508	620	
2	0	0	0	0	509	619	
3	0	0	0	0	509	619	
4	0	0	0	0	509	620	
5	0	0	0	0	508	618	
6	0	0	0	0	507	617	
7	0	0	0	0	507	618	
8	0	0	0	0	505	616	
9	0	0	0	0	504	619	
10	0	0	0	0	502	619	
11	0	0	0	0	499	619	
12	0	0	0	0	497	620	
13	0	0	0	0	492	619	
14	0	0	0	0	487	620	
15	0	0	0	0	480	620	
0	0	0	0	0	473	619	
1	0	0	0	0	465	621	
2	0	0	0	0	459	621	
3	0	0	0	0	453	621	
4	0	0	0	0	448	623	
5	0	0	0	0	445	621	
6	0	0	0	0	445	621	
7	0	0	0	0	448	622	
8	0	0	0	0	452	620	
9	0	0	0	0	459	622	
10	0	0	0	0	465	623	
11	0	0	0	0	473	622	
12	0	0	0	0	480	624	
13	0	0	0	0	488	622	
14	0	0	0	0	498	622	
15	0	0	0	0	508	623	
0	0	0	0	0	518	622	
1	0	0	0	0	527	623	
2	0	0	0	0	539	623	
3	0	0	0	0	552	623	
4	0	0	0	0	567	625	
5	0	0	0	0	587	623	
6	0	0	0	0	609	623	
7	0	0	0	0	634	623	
8	0	0	0	0	661	622	
9	0	0	0	0	689	623	
10	0	0	0	0	716	624	
11	0	0	0	0	745	624	
12	0	0	0	0	774	625	
13	0	0	0	0	803	624	
14	0	0	0	0	834	624	
15	0	0	0	0	865	624	
0	0	0	0	0	892	623	
1	0	0	0	0	915	624	
2	0	0	0	0	934	625	
3	0	0	0	0	948	624	
4	0	0	0	0	960	626	
5	0	0	0	0	967	625	
6	0	0	0	0	974	624	
7	0	0	0	0	979	624	
8	0	0	0	0	979	622	
9	0	0	0	0	975	624	
10	0	0	0	0	966	623	
11	0	0	0	0	951	624	
12	0	0	0	0	933	625	
13	0	0	0	0	912	624	
14	0	0	0	0	889	623	
15	0	0	0	0	864	623	
0	0	0	0	0	838	621	
1	0	0	0	0	809	623	
2	0	0	0	0	778	622	
3	0	0	0	0	747	623	
4	0	0	0	0	716	623	
5	0	0	0	0	685	622	
6	0	0	0	0	654	622	
7	0	0	0	0	624	621	
8	0	0	0	0	599	620	
9	0	0	0	0	575	622	
10	0	0	0	0	553	622	
11	0	0	0	0	537	621	
12	0	0	0	0	524	624	
13	0	0	0	0	512	621	
14	0	0	0	0	501	622	
15	0	0	0	0	492	622	
0	0	0	0	0	483	620	
1	0	0	0	0	473	622	
2	0	0	0	0	463	622	
3	0	0	0	0	453	622	
4	0	0	0	0	443	624	
5	0	0	0	0	435	622	
6	0	0	0	0	426	623	
7	0	0	0	0	417	622	
8	0	0	0	0	409	621	
9	0	0	0	0	402	623	
10	0	0	0	0	395	623	
11	0	0	0	0	389	624	
12	0	0	0	0	384	625	
13	0	0	0	0	379	623	
14	0	0	0	0	374	623	
15	0	0	0	0	370	623	
0	0	0	0	0	367	622	
1	0	0	0	0	364	624	
2	0	0	0	0	360	623	
3	0	0	0	0	358	623	
4	0	0	0	0	356	625	
5	0	0	0	0	353	623	
6	0	0	0	0	351	624	
7	0	0	0	0	349	623	
8	0	0	0	0	348	621	
9	0	0	0	0	348	623	
10	0	0	0	0	347	623	
11	0	0	0	0	347	624	
12	0	0	0	0	348	625	
13	0	0	0	0	350	624	
14	0	0	0	0	351	623	
15	0	0	0	0	353	623	
0	0	0	0	0	355	622	
1	0	0	0	0	358	624	
2	0	0	0	0	360	624	
3	0	0	0	0	362	624	
4	0	0	0	0	365	625	
5	0	0	0	0	367	624	
6	0	0	0	0	370	624	
7	0	0	0	0	372	624	
8	0	0	0	0	374	623	
9	0	0	0	0	376	624	
10	0	0	0	0	376	624	
11	0	0	0	0	378	624	
12	0	0	0	0	379	626	
13	0	0	0	0	382	624	
14	0	0	0	0	383	624	
15	0	0	0	0	383	624	
0	0	0	0	0	384	622	
1	0	0	0	0	384	624	
2	0	0	0	0	384	624	
3	0	0	0	0	386	624	
4	0	0	0	0	389	625	
5	0	0	0	0	391	623	
6	0	0	0	0	393	623	
7	0	0	0	0	396	623	
8	0	0	0	0	398	620	
9	0	0	0	0	400	623	
10	0	0	0	0	403	623	
11	0	0	0	0	404	623	
12	0	0	0	0	407	624	
13	0	0	0	0	408	622	
14	0	0	0	0	411	622	
15	0	0	0	0	413	622	
0	0	0	0	0	415	620	
1	0	0	0	0	416	622	
2	0	0	0	0	417	622	
3	0	0	0	0	417	622	
4	0	0	0	0	419	624	
5	0	0	0	0	421	622	
6	0	0	0	0	423	622	
7	0	0	0	0	425	623	
8	0	0	0	0	427	621	
9	0	0	0	0	430	623	
10	0	0	0	0	431	623	
11	0	0	0	0	433	623	
12	0	0	0	0	435	624	
13	0	0	0	0	438	623	
14	0	0	0	0	440	624	
15	0	0	0	0	443	623	
0	0	0	0	0	445	622	
1	0	0	0	0	446	624	
2	0	0	0	0	448	623	
3	0	0	0	0	448	623	
4	0	0	0	0	450	624	
5	0	0	0	0	450	623	
6	0	0	0	0	451	622	
7	0	0	0	0	453	623	
8	0	0	0	0	455	620	
9	0	0	0	0	456	622	
10	0	0	0	0	457	622	
11	0	0	0	0	457	622	
12	0	0	0	0	457	624	
13	0	0	0	0	459	622	
14	0	0	0	0	460	622	
15	0	0	0	0	462	622	
0	0	0	0	0	463	620	
1	0	0	0	0	465	622	
2	0	0	0	0	466	621	
3	0	0	0	0	465	621	
4	0	0	0	0	465	622	
5	0	0	0	0	465	621	
6	0	0	0	0	466	621	
7	0	0	0	0	467	620	
8	0	0	0	0	468	619	
9	0	0	0	0	468	621	
10	0	0	0	0	466	621	
11	0	0	0	0	466	620	
12	0	0	0	0	466	623	
13	0	0	0	0	466	621	
14	0	0	0	0	464	621	
15	0	0	0	0	463	621	
0	0	0	0	0	461	619	
1	0	0	0	0	460	621	
2	0	0	0	0	460	620	
3	0	0	0	0	460	621	
4	0	0	0	0	460	623	
5	0	0	0	0	460	621	
6	0	0	0	0	460	621	
7	0	0	0	0	460	621	
8	0	0	0	0	460	619	
9	0	0	0	0	459	621	
10	0	0	0	0	459	621	
11	0	0	0	0	459	621	
12	0	0	0	0	459	623	
13	0	0	0	0	459	621	
14	0	0	0	0	457	622	
15	0	0	0	0	456	622	
0	0	0	0	0	457	620	
1	0	0	0	0	456	621	
2	0	0	0	0	456	621	
3	0	0	0	0	455	621	
4	0	0	0	0	454	623	
5	0	0	0	0	453	622	
6	0	0	0	0	454	622	
7	0	0	0	0	453	622	
8	0	0	0	0	453	620	
9	0	0	0	0	451	622	
10	0	0	0	0	451	623	
11	0	0	0	0	450	623	
12	0	0	0	0	450	624	
13	0	0	0	0	451	622	
14	0	0	0	0	451	623	
15	0	0	0	0	451	622	
0	0	0	0	0	453	621	
1	0	0	0	0	454	622	
2	0	0	0	0	455	623	
3	0	0	0	0	457	623	
4	0	0	0	0	457	624	
5	0	0	0	0	459	623	
6	0	0	0	0	462	623	
7	0	0	0	0	464	623	
8	0	0	0	0	465	621	
9	0	0	0	0	465	623	
10	0	0	0	0	467	623	
11	0	0	0	0	467	622	
12	0	0	0	0	468	624	
13	0	0	0	0	470	623	
14	0	0	0	0	473	623	
15	0	0	0	0	475	623	
0	0	0	0	0	477	621	
1	0	0	0	0	479	623	
2	0	0	0	0	481	624	
3	0	0	0	0	483	624	
4	0	0	0	0	484	626	
5	0	0	0	0	486	624	
6	0	0	0	0	487	624	
7	0	0	0	0	489	624	
8	0	0	0	0	491	623	
9	0	0	0	0	493	624	
10	0	0	0	0	494	624	
11	0	0	0	0	493	624	
12	0	0	0	0	494	626	
13	0	0	0	0	494	625	
14	0	0	0	0	493	625	
15	0	0	0	0	494	624	
0	0	0	0	0	493	622	
1	0	0	0	0	494	624	
2	0	0	0	0	496	624	
3	0	0	0	0	496	624	
4	0	0	0	0	497	625	
5	0	0	0	0	497	623	
6	0	0	0	0	497	624	
7	0	0	0	0	497	623	
8	0	0	0	0	496	621	
9	0	0	0	0	496	623	
10	0	0	0	0	495	622	
11	0	0	0	0	495	622	
12	0	0	0	0	495	624	
13	0	0	0	0	494	622	
14	0	0	0	0	495	621	
15	0	0	0	0	495	621	
0	0	0	0	0	496	620	
1	0	0	0	0	497	621	
2	0	0	0	0	496	622	
3	0	0	0	0	496	621	
4	0	0	0	0	495	622	
5	0	0	0	0	496	621	
6	0	0	0	0	496	620	
7	0	0	0	0	497	621	
8	0	0	0	0	497	618	
9	0	0	0	0	498	620	
10	0	0	0	0	499	620	
11	0	0	0	0	499	620	
12	0	0	0	0	500	622	
13	0	0	0	0	500	621	
14	0	0	0	0	500	620	
15	0	0	0	0	502	621	
0	0	0	0	0	502	619	
1	0	0	0	0	504	622	
2	0	0	0	0	505	622	
3	0	0	0	0	506	622	
4	0	0	0	0	508	624	
5	0	0	0	0	509	622	
6	0	0	0	0	511	622	
7	0	0	0	0	512	622	
8	0	0	0	0	513	620	
9	0	0	0	0	515	622	
10	0	0	0	0	518	622	
11	0	0	0	0	520	623	
12	0	0	0	0	522	624	
13	0	0	0	0	524	622	
14	0	0	0	0	526	622	
15	0	0	0	0	529	621	
0	0	0	0	0	533	618	
1	0	0	0	0	536	621	
2	0	0	0	0	540	620	
3	0	0	0	0	542	620	
4	0	0	0	0	544	622	
5	0	0	0	0	547	621	
6	0	0	0	0	548	620	
7	0	0	0	0	550	620	
8	0	0	0	0	551	620	
9	0	0	0	0	552	621	
10	0	0	0	0	552	621	
11	0	0	0	0	553	621	
12	0	0	0	0	555	624	
13	0	0	0	0	557	622	
14	0	0	0	0	557	622	
15	0	0	0	0	558	622	
0	0	0	0	0	559	620	
1	0	0	0	0	559	622	
2	0	0	0	0	560	622	
3	0	0	0	0	560	622	
4	0	0	0	0	561	624	
5	0	0	0	0	561	623	
6	0	0	0	0	561	623	
7	0	0	0	0	561	623	
8	0	0	0	0	561	621	
9	0	0	0	0	562	623	
10	0	0	0	0	561	623	
11	0	0	0	0	560	624	
12	0	0	0	0	559	626	
13	0	0	0	0	558	624	
14	0	0	0	0	557	624	
15	0	0	0	0	556	624	
0	0	0	0	0	556	621	
1	0	0	0	0	554	623	
2	0	0	0	0	554	624	
3	0	0	0	0	554	623	
4	0	0	0	0	554	625	
5	0	0	0	0	553	624	
6	0	0	0	0	553	623	
7	0	0	0	0	551	623	
8	0	0	0	0	549	621	
9	0	0	0	0	548	623	
10	0	0	0	0	547	623	
11	0	0	0	0	545	623	
12	0	0	0	0	543	625	
13	0	0	0	0	541	623	
14	0	0	0	0	539	623	
15	0	0	0	0	537	623	
0	0	0	0	0	536	621	
1	0	0	0	0	536	623	
2	0	0	0	0	536	623	
3	0	0	0	0	536	623	
4	0	0	0	0	535	625	
5	0	0	0	0	534	623	
6	0	0	0	0	533	623	
7	0	0	0	0	532	623	
8	0	0	0	0	532	621	
9	0	0	0	0	533	623	
10	0	0	0	0	534	622	
11	0	0	0	0	534	622	
12	0	0	0	0	534	624	
13	0	0	0	0	532	622	
14	0	0	0	0	533	622	
15	0	0	0	0	533	622	
0	0	0	0	0	532	620	
1	0	0	0	0	533	622	
2	0	0	0	0	533	622	
3	0	0	0	0	533	621	
4	0	0	0	0	533	623	
5	0	0	0	0	534	622	
6	0	0	0	0	533	621	
7	0	0	0	0	532	621	
8	0	0	0	0	532	619	
9	0	0	0	0	531	621	
10	0	0	0	0	531	621	
11	0	0	0	0	531	621	
12	0	0	0	0	531	623	
13	0	0	0	0	529	621	
14	0	0	0	0	530	622	
15	0	0	0	0	530	621	
0	0	0	0	0	531	619	
1	0	0	0	0	532	621	
2	0	0	0	0	532	622	
3	0	0	0	0	532	622	
4	0	0	0	0	533	624	
5	0	0	0	0	532	622	
6	0	0	0	0	531	622	
7	0	0	0	0	531	623	
8	0	0	0	0	531	620	
9	0	0	0	0	530	623	
10	0	0	0	0	531	622	
11	0	0	0	0	531	623	
12	0	0	0	0	533	624	
13	0	0	0	0	534	622	
14	0	0	0	0	535	623	
15	0	0	0	0	536	622	
0	0	0	0	0	536	620	
1	0	0	0	0	536	621	
2	0	0	0	0	536	622	
3	0	0	0	0	536	622	
4	0	0	0	0	536	624	
5	0	0	0	0	535	622	
6	0	0	0	0	534	622	
7	0	0	0	0	533	622	
8	0	0	0	0	531	620	
9	0	0	0	0	530	622	
10	0	0	0	0	529	622	
11	0	0	0	0	529	622	
12	0	0	0	0	528	624	
13	0	0	0	0	528	622	
14	0	0	0	0	527	622	
15	0	0	0	0	527	622	
0	0	0	0	0	526	619	
1	0	0	0	0	525	622	
2	0	0	0	0	525	622	
3	0	0	0	0	525	623	
4	0	0	0	0	524	624	
5	0	0	0	0	524	622	
6	0	0	0	0	524	622	
7	0	0	0	0	524	623	
8	0	0	0	0	521	621	
9	0	0	0	0	520	623	
10	0	0	0	0	520	623	
11	0	0	0	0	519	623	
12	0	0	0	0	518	624	
13	0	0	0	0	516	623	
14	0	0	0	0	515	623	
15	0	0	0	0	515	624	
0	0	0	0	0	515	622	
1	0	0	0	0	515	623	
2	0	0	0	0	515	624	
3	0	0	0	0	515	623	
4	0	0	0	0	515	625	
5	0	0	0	0	516	623	
6	0	0	0	0	516	623	
7	0	0	0	0	517	623	
8	0	0	0	0	517	621	
9	0	0	0	0	518	623	
10	0	0	0	0	519	623	
11	0	0	0	0	519	623	
12	0	0	0	0	519	625	
13	0	0	0	0	520	623	
14	0	0	0	0	521	623	
15	0	0	0	0	524	623	
0	0	0	0	0	524	620	
1	0	0	0	0	526	623	
2	0	0	0	0	527	623	
3	0	0	0	0	527	623	
4	0	0	0	0	528	624	
5	0	0	0	0	529	623	
6	0	0	0	0	530	623	
7	0	0	0	0	531	623	
8	0	0	0	0	534	621	
9	0	0	0	0	535	623	
10	0	0	0	0	534	623	
11	0	0	0	0	535	623	
12	0	0	0	0	536	625	
13	0	0	0	0	536	624	
14	0	0	0	0	539	623	
15	0	0	0	0	539	624	
0	0	0	0	0	540	622	
1	0	0	0	0	540	624	
2	0	0	0	0	541	624	
3	0	0	0	0	543	625	
4	0	0	0	0	543	627	
5	0	0	0	0	543	626	
6	0	0	0	0	543	625	
7	0	0	0	0	543	626	
8	0	0	0	0	544	624	
9	0	0	0	0	543	625	
10	0	0	0	0	544	625	
11	0	0	0	0	544	625	
12	0	0	0	0	544	627	
13	0	0	0	0	543	625	
14	0	0	0	0	542	625	
15	0	0	0	0	541	625	
0	0	0	0	0	540	623	
1	0	0	0	0	540	625	
2	0	0	0	0	539	625	
3	0	0	0	0	539	624	
4	0	0	0	0	538	626	
5	0	0	0	0	538	624	
6	0	0	0	0	537	624	
7	0	0	0	0	537	624	
8	0	0	0	0	536	622	
9	0	0	0	0	538	624	
10	0	0	0	0	539	624	
11	0	0	0	0	539	624	
12	0	0	0	0	540	626	
13	0	0	0	0	541	624	
14	0	0	0	0	541	624	
15	0	0	0	0	540	625	
0	0	0	0	0	539	623	
1	0	0	0	0	537	625	
2	0	0	0	0	537	625	
3	0	0	0	0	537	626	
4	0	0	0	0	538	627	
5	0	0	0	0	538	625	
6	0	0	0	0	536	625	
7	0	0	0	0	536	625	
8	0	0	0	0	537	623	
9	0	0	0	0	536	625	
10	0	0	0	0	536	625	
11	0	0	0	0	536	625	
12	0	0	0	0	536	627	
13	0	0	0	0	536	626	
14	0	0	0	0	537	625	
15	0	0	0	0	539	625	
0	0	0	0	0	539	624	
1	0	0	0	0	540	625	
2	0	0	0	0	540	626	
3	0	0	0	0	540	626	
4	0	0	0	0	540	628	
5	0	0	0	0	541	626	
6	0	0	0	0	542	626	
7	0	0	0	0	541	625	
8	0	0	0	0	543	623	
9	0	0	0	0	544	625	
10	0	0	0	0	545	626	
11	0	0	0	0	544	625	
12	0	0	0	0	544	627	
13	0	0	0	0	544	625	
14	0	0	0	0	545	624	
15	0	0	0	0	547	624	
0	0	0	0	0	547	622	
1	0	0	0	0	547	623	
2	0	0	0	0	547	623	
3	0	0	0	0	547	623	
4	0	0	0	0	548	625	
5	0	0	0	0	549	623	
6	0	0	0	0	551	622	
7	0	0	0	0	552	622	
8	0	0	0	0	553	620	
9	0	0	0	0	555	622	
10	0	0	0	0	555	621	
11	0	0	0	0	555	622	
12	0	0	0	0	557	624	
13	0	0	0	0	556	622	
14	0	0	0	0	557	622	
15	0	0	0	0	557	622	
0	0	0	0	0	558	620	
1	0	0	0	0	556	621	
2	0	0	0	0	558	621	
3	0	0	0	0	559	621	
4	0	0	0	0	559	624	
5	0	0	0	0	559	622	
6	0	0	0	0	560	622	
7	0	0	0	0	559	622	
8	0	0	0	0	559	620	
9	0	0	0	0	559	621	
10	0	0	0	0	559	621	
11	0	0	0	0	559	622	
12	0	0	0	0	559	623	
13	0	0	0	0	559	622	
14	0	0	0	0	559	622	
15	0	0	0	0	560	622	
0	0	0	0	0	561	620	
1	0	0	0	0	560	622	
2	0	0	0	0	560	621	
3	0	0	0	0	560	621	
4	0	0	0	0	560	623	
5	0	0	0	0	560	621	
6	0	0	0	0	559	621	
7	0	0	0	0	560	621	
8	0	0	0	0	560	619	
9	0	0	0	0	560	621	
10	0	0	0	0	560	621	
11	0	0	0	0	560	621	
12	0	0	0	0	559	624	
13	0	0	0	0	558	622	
14	0	0	0	0	556	622	
15	0	0	0	0	556	622	
0	0	0	0	0	555	620	
1	0	0	0	0	555	622	
2	0	0	0	0	555	622	
3	0	0	0	0	552	622	
4	0	0	0	0	552	624	
5	0	0	0	0	551	623	
6	0	0	0	0	551	623	
7	0	0	0	0	551	623	
8	0	0	0	0	551	621	
9	0	0	0	0	549	623	
10	0	0	0	0	549	623	
11	0	0	0	0	548	623	
12	0	0	0	0	548	624	
13	0	0	0	0	549	624	
14	0	0	0	0	550	623	
15	0	0	0	0	551	623	
0	0	0	0	0	551	622	
1	0	0	0	0	550	623	
2	0	0	0	0	550	623	
3	0	0	0	0	549	623	
4	0	0	0	0	549	624	
5	0	0	0	0	550	623	
6	0	0	0	0	551	623	
7	0	0	0	0	551	623	
8	0	0	0	0	550	621	
9	0	0	0	0	550	623	
10	0	0	0	0	551	623	
11	0	0	0	0	551	622	
12	0	0	0	0	551	624	
13	0	0	0	0	551	622	
14	0	0	0	0	551	623	
15	0	0	0	0	551	623	
0	0	0	0	0	550	621	
1	0	0	0	0	550	623	
2	0	0	0	0	550	623	
3	0	0	0	0	550	622	
4	0	0	0	0	550	624	
5	0	0	0	0	550	622	
6	0	0	0	0	552	622	
7	0	0	0	0	551	621	
8	0	0	0	0	550	620	
9	0	0	0	0	550	622	
10	0	0	0	0	549	622	
11	0	0	0	0	550	622	
12	0	0	0	0	549	624	
13	0	0	0	0	549	622	
14	0	0	0	0	549	623	
15	0	0	0	0	549	622	
0	0	0	0	0	550	620	
1	0	0	0	0	549	622	
2	0	0	0	0	548	622	
3	0	0	0	0	548	622	
4	0	0	0	0	547	624	
5	0	0	0	0	546	621	
6	0	0	0	0	545	622	
7	0	0	0	0	544	622	
8	0	0	0	0	544	620	
9	0	0	0	0	543	622	
10	0	0	0	0	543	623	
11	0	0	0	0	542	623	
12	0	0	0	0	540	625	
13	0	0	0	0	540	624	
14	0	0	0	0	540	624	
15	0	0	0	0	540	624	
0	0	0	0	0	539	622	
1	0	0	0	0	539	625	
2	0	0	0	0	539	624	
3	0	0	0	0	538	624	
4	0	0	0	0	538	626	
5	0	0	0	0	537	624	
6	0	0	0	0	537	624	
7	0	0	0	0	539	624	
8	0	0	0	0	538	622	
9	0	0	0	0	537	624	
10	0	0	0	0	537	623	
11	0	0	0	0	535	623	
12	0	0	0	0	532	624	
13	0	0	0	0	529	623	
14	0	0	0	0	525	622	
15	0	0	0	0	519	622	
0	0	0	0	0	513	620	
1	0	0	0	0	507	622	
2	0	0	0	0	500	623	
3	0	0	0	0	492	622	
4	0	0	0	0	487	624	
5	0	0	0	0	482	622	
6	0	0	0	0	481	622	
7	0	0	0	0	481	622	
8	0	0	0	0	484	620	
9	0	0	0	0	490	623	
10	0	0	0	0	499	622	
11	0	0	0	0	507	622	
12	0	0	0	0	517	624	
13	0	0	0	0	528	623	
14	0	0	0	0	537	623	
15	0	0	0	0	547	623	
0	0	0	0	0	557	620	
1	0	0	0	0	569	623	
2	0	0	0	0	581	623	
3	0	0	0	0	596	623	
4	0	0	0	0	612	624	
5	0	0	0	0	633	623	
6	0	0	0	0	655	623	
7	0	0	0	0	679	624	
8	0	0	0	0	706	622	
9	0	0	0	0	739	624	
10	0	0	0	0	770	623	
11	0	0	0	0	802	623	
12	0	0	0	0	835	625	
13	0	0	0	0	867	624	
14	0	0	0	0	898	623	
15	0	0	0	0	931	623	
0	0	0	0	0	962	622	
1	0	0	0	0	990	623	
2	0	0	0	0	1012	622	
3	0	0	0	0	1022	622	
4	0	0	0	0	1022	624	
5	0	0	0	0	1022	622	
6	0	0	0	0	1022	622	
7	0	0	0	0	1022	622	
8	0	0	0	0	1022	620	
9	0	0	0	0	1022	620	
10	0	0	0	0	1022	620	
11	0	0	0	0	1022	620	
12	0	0	0	0	1021	623	
13	0	0	0	0	1003	621	
14	0	0	0	0	980	620	
15	0	0	0	0	954	620	
0	0	0	0	0	926	619	
1	0	0	0	0	898	621	
2	0	0	0	0	865	620	
3	0	0	0	0	830	620	
4	0	0	0	0	794	622	
5	0	0	0	0	760	621	
6	0	0	0	0	723	621	
7	0	0	0	0	686	621	
8	0	0	0	0	651	620	
9	0	0	0	0	619	621	
10	0	0	0	0	592	621	
11	0	0	0	0	569	621	
12	0	0	0	0	551	623	
13	0	0	0	0	536	622	
14	0	0	0	0	521	623	
15	0	0	0	0	507	622	
0	0	0	0	0	495	620	
1	0	0	0	0	483	622	
2	0	0	0	0	473	623	
3	0	0	0	0	461	622	
4	0	0	0	0	450	624	
5	0	0	0	0	440	623	
6	0	0	0	0	429	623	
7	0	0	0	0	419	623	
8	0	0	0	0	410	620	
9	0	0	0	0	402	623	
10	0	0	0	0	394	622	
11	0	0	0	0	387	623	
12	0	0	0	0	382	624	
13	0	0	0	0	376	623	
14	0	0	0	0	371	624	
15	0	0	0	0	365	623	
0	0	0	0	0	360	621	
1	0	0	0	0	355	623	
2	0	0	0	0	352	624	
3	0	0	0	0	348	624	
4	0	0	0	0	345	625	
5	0	0	0	0	341	624	
6	0	0	0	0	339	624	
7	0	0	0	0	340	624	
8	0	0	0	0	341	623	
9	0	0	0	0	340	624	
10	0	0	0	0	339	624	
11	0	0	0	0	339	624	
12	0	0	0	0	339	626	
13	0	0	0	0	339	624	
14	0	0	0	0	340	625	
15	0	0	0	0	340	624	
0	0	0	0	0	343	623	
1	0	0	0	0	344	624	
2	0	0	0	0	344	624	
3	0	0	0	0	345	624	
4	0	0	0	0	346	626	
5	0	0	0	0	347	624	
6	0	0	0	0	349	624	
7	0	0	0	0	350	624	
8	0	0	0	0	352	622	
9	0	0	0	0	353	624	
10	0	0	0	0	354	624	
11	0	0	0	0	356	624	
12	0	0	0	0	357	626	
13	0	0	0	0	358	624	
14	0	0	0	0	358	624	
15	0	0	0	0	358	624	
0	0	0	0	0	359	623	
1	0	0	0	0	360	624	
2	0	0	0	0	359	624	
3	0	0	0	0	359	624	
4	0	0	0	0	361	625	
5	0	0	0	0	361	623	
6	0	0	0	0	362	623	
7	0	0	0	0	363	623	
8	0	0	0	0	364	621	
9	0	0	0	0	364	623	
10	0	0	0	0	364	622	
11	0	0	0	0	365	623	
12	0	0	0	0	366	624	
13	0	0	0	0	367	622	
14	0	0	0	0	368	622	
15	0	0	0	0	370	622	
0	0	0	0	0	372	620	
1	0	0	0	0	374	622	
2	0	0	0	0	375	623	
3	0	0	0	0	377	621	
4	0	0	0	0	378	624	
5	0	0	0	0	379	622	
6	0	0	0	0	382	622	
7	0	0	0	0	385	623	
8	0	0	0	0	386	620	
9	0	0	0	0	387	621	
10	0	0	0	0	386	621	
11	0	0	0	0	386	622	
12	0	0	0	0	386	623	
13	0	0	0	0	387	622	
14	0	0	0	0	387	622	
15	0	0	0	0	388	622	
0	0	0	0	0	388	620	
1	0	0	0	0	389	622	
2	0	0	0	0	391	622	
3	0	0	0	0	391	622	
4	0	0	0	0	392	623	
5	0	0	0	0	394	621	
6	0	0	0	0	394	621	
7	0	0	0	0	395	622	
8	0	0	0	0	395	620	
9	0	0	0	0	397	621	
10	0	0	0	0	398	622	
11	0	0	0	0	397	621	
12	0	0	0	0	398	623	
13	0	0	0	0	400	622	
14	0	0	0	0	401	622	
15	0	0	0	0	401	622	
0	0	0	0	0	403	619	
1	0	0	0	0	403	621	
2	0	0	0	0	404	621	
3	0	0	0	0	405	621	
4	0	0	0	0	407	623	
5	0	0	0	0	409	621	
6	0	0	0	0	409	621	
7	0	0	0	0	409	621	
8	0	0	0	0	409	620	
9	0	0	0	0	408	620	
10	0	0	0	0	407	621	
11	0	0	0	0	408	621	
12	0	0	0	0	408	623	
13	0	0	0	0	407	621	
14	0	0	0	0	407	622	
15	0	0	0	0	406	622	
0	0	0	0	0	406	620	
1	0	0	0	0	407	622	
2	0	0	0	0	406	622	
3	0	0	0	0	406	622	
4	0	0	0	0	406	624	
5	0	0	0	0	405	623	
6	0	0	0	0	404	623	
7	0	0	0	0	402	623	
8	0	0	0	0	401	621	
9	0	0	0	0	400	623	
10	0	0	0	0	400	624	
11	0	0	0	0	401	623	
12	0	0	0	0	402	626	
13	0	0	0	0	402	624	
14	0	0	0	0	401	624	
15	0	0	0	0	400	624	
0	0	0	0	0	400	622	
1	0	0	0	0	399	624	
2	0	0	0	0	397	624	
3	0	0	0	0	396	623	
4	0	0	0	0	396	625	
5	0	0	0	0	394	623	
6	0	0	0	0	394	623	
7	0	0	0	0	393	623	
8	0	0	0	0	391	621	
9	0	0	0	0	391	623	
10	0	0	0	0	391	623	
11	0	0	0	0	391	622	
12	0	0	0	0	391	624	
13	0	0	0	0	392	622	
14	0	0	0	0	392	622	
15	0	0	0	0	393	622	
0	0	0	0	0	394	620	
1	0	0	0	0	396	622	
2	0	0	0	0	396	622	
3	0	0	0	0	397	622	
4	0	0	0	0	397	624	
5	0	0	0	0	398	622	
6	0	0	0	0	399	622	
7	0	0	0	0	401	622	
8	0	0	0	0	403	621	
9	0	0	0	0	407	622	
10	0	0	0	0	408	623	
11	0	0	0	0	409	623	
12	0	0	0	0	411	625	
13	0	0	0	0	412	624	
14	0	0	0	0	414	624	
15	0	0	0	0	416	624	
0	0	0	0	0	418	623	
1	0	0	0	0	419	624	
2	0	0	0	0	420	625	
3	0	0	0	0	422	624	
4	0	0	0	0	422	626	
5	0	0	0	0	423	624	
6	0	0	0	0	425	624	
7	0	0	0	0	425	624	
8	0	0	0	0	427	623	
9	0	0	0	0	427	624	
10	0	0	0	0	428	625	
11	0	0	0	0	428	624	
12	0	0	0	0	430	626	
13	0	0	0	0	432	625	
14	0	0	0	0	434	625	
15	0	0	0	0	435	625	
0	0	0	0	0	436	623	
1	0	0	0	0	438	624	
2	0	0	0	0	439	624	
3	0	0	0	0	440	624	
4	0	0	0	0	440	626	
5	0	0	0	0	441	624	
6	0	0	0	0	442	624	
7	0	0	0	0	442	624	
8	0	0	0	0	443	623	
9	0	0	0	0	444	624	
10	0	0	0	0	446	624	
11	0	0	0	0	446	624	
12	0	0	0	0	447	626	
13	0	0	0	0	447	624	
14	0	0	0	0	448	624	
15	0	0	0	0	449	624	
0	0	0	0	0	449	622	
1	0	0	0	0	449	624	
2	0	0	0	0	449	624	
3	0	0	0	0	449	624	
4	0	0	0	0	451	626	
5	0	0	0	0	451	624	
6	0	0	0	0	451	624	
7	0	0	0	0	453	624	
8	0	0	0	0	454	622	
9	0	0	0	0	456	624	
10	0	0	0	0	457	624	
11	0	0	0	0	460	624	
12	0	0	0	0	463	625	
13	0	0	0	0	463	624	
14	0	0	0	0	465	624	
15	0	0	0	0	467	624	
0	0	0	0	0	470	622	
1	0	0	0	0	471	624	
2	0	0	0	0	476	624	
3	0	0	0	0	478	624	
4	0	0	0	0	480	626	
5	0	0	0	0	483	624	
6	0	0	0	0	485	624	
7	0	0	0	0	487	624	
8	0	0	0	0	488	622	
9	0	0	0	0	491	624	
10	0	0	0	0	493	623	
11	0	0	0	0	494	623	
12	0	0	0	0	497	625	
13	0	0	0	0	499	623	
14	0	0	0	0	502	623	
15	0	0	0	0	505	623	
0	0	0	0	0	507	621	
1	0	0	0	0	510	623	
2	0	0	0	0	511	623	
3	0	0	0	0	514	623	
4	0	0	0	0	516	624	
5	0	0	0	0	519	622	
6	0	0	0	0	520	622	
7	0	0	0	0	523	623	
8	0	0	0	0	525	621	
9	0	0	0	0	527	623	
10	0	0	0	0	528	623	
11	0	0	0	0	530	623	
12	0	0	0	0	533	625	
13	0	0	0	0	534	623	
14	0	0	0	0	536	623	
15	0	0	0	0	537	624	
0	0	0	0	0	539	621	
1	0	0	0	0	539	624	
2	0	0	0	0	540	623	
3	0	0	0	0	540	623	
4	0	0	0	0	542	625	
5	0	0	0	0	544	623	
6	0	0	0	0	545	623	
7	0	0	0	0	547	623	
8	0	0	0	0	547	621	
9	0	0	0	0	548	622	
10	0	0	0	0	550	622	
11	0	0	0	0	551	622	
12	0	0	0	0	551	624	
13	0	0	0	0	550	621	
14	0	0	0	0	550	621	
15	0	0	0	0	551	621	
0	0	0	0	0	550	619	
1	0	0	0	0	550	621	
2	0	0	0	0	550	620	
3	0	0	0	0	551	620	
4	0	0	0	0	549	622	
5	0	0	0	0	547	620	
6	0	0	0	0	547	621	
7	0	0	0	0	545	620	
8	0	0	0	0	544	619	
9	0	0	0	0	543	620	
10	0	0	0	0	542	621	
11	0	0	0	0	541	621	
12	0	0	0	0	540	623	
13	0	0	0	0	538	622	
14	0	0	0	0	538	622	
15	0	0	0	0	537	622	
0	0	0	0	0	536	620	
1	0	0	0	0	535	622	
2	0	0	0	0	534	622	
3	0	0	0	0	532	621	
4	0	0	0	0	531	624	
5	0	0	0	0	530	622	
6	0	0	0	0	529	622	
7	0	0	0	0	529	622	
8	0	0	0	0	529	620	
9	0	0	0	0	528	621	
10	0	0	0	0	528	621	
11	0	0	0	0	526	621	
12	0	0	0	0	527	623	
13	0	0	0	0	527	620	
14	0	0	0	0	527	620	
15	0	0	0	0	527	620	
0	0	0	0	0	527	617	
1	0	0	0	0	528	620	
2	0	0	0	0	527	619	
3	0	0	0	0	527	619	
4	0	0	0	0	526	621	
5	0	0	0	0	525	620	
6	0	0	0	0	525	619	
7	0	0	0	0	524	619	
8	0	0	0	0	524	617	
9	0	0	0	0	524	619	
10	0	0	0	0	522	619	
11	0	0	0	0	523	619	
12	0	0	0	0	523	621	
13	0	0	0	0	523	619	
14	0	0	0	0	524	620	
15	0	0	0	0	524	620	
0	0	0	0	0	525	618	
1	0	0	0	0	526	620	
2	0	0	0	0	526	620	
3	0	0	0	0	526	620	
4	0	0	0	0	526	623	
5	0	0	0	0	528	621	
6	0	0	0	0	530	620	
7	0	0	0	0	530	621	
8	0	0	0	0	531	620	
9	0	0	0	0	533	622	
10	0	0	0	0	533	622	
11	0	0	0	0	533	622	
12	0	0	0	0	534	623	
13	0	0	0	0	534	622	
14	0	0	0	0	534	622	
15	0	0	0	0	534	622	
0	0	0	0	0	535	620	
1	0	0	0	0	536	622	
2	0	0	0	0	536	622	
3	0	0	0	0	536	622	
4	0	0	0	0	536	624	
5	0	0	0	0	535	622	
6	0	0	0	0	534	623	
7	0	0	0	0	534	623	
8	0	0	0	0	533	622	
9	0	0	0	0	532	624	
10	0	0	0	0	532	623	
11	0	0	0	0	531	624	
12	0	0	0	0	530	626	
13	0	0	0	0	529	624	
14	0	0	0	0	528	624	
15	0	0	0	0	528	624	
0	0	0	0	0	529	623	
1	0	0	0	0	529	625	
2	0	0	0	0	529	625	
3	0	0	0	0	529	624	
4	0	0	0	0	528	626	
5	0	0	0	0	529	625	
6	0	0	0	0	529	624	
7	0	0	0	0	528	624	
8	0	0	0	0	528	622	
9	0	0	0	0	526	624	
10	0	0	0	0	524	624	
11	0	0	0	0	524	624	
12	0	0	0	0	523	626	
13	0	0	0	0	521	624	
14	0	0	0	0	521	624	
15	0	0	0	0	519	624	
0	0	0	0	0	518	622	
1	0	0	0	0	518	624	
2	0	0	0	0	517	624	
3	0	0	0	0	516	624	
4	0	0	0	0	516	626	
5	0	0	0	0	515	624	
6	0	0	0	0	513	623	
7	0	0	0	0	512	623	
8	0	0	0	0	510	622	
9	0	0	0	0	510	624	
10	0	0	0	0	508	623	
11	0	0	0	0	509	623	
12	0	0	0	0	508	625	
13	0	0	0	0	508	623	
14	0	0	0	0	509	624	
15	0	0	0	0	508	624	
0	0	0	0	0	510	622	
1	0	0	0	0	510	623	
2	0	0	0	0	510	624	
3	0	0	0	0	510	624	
4	0	0	0	0	511	626	
5	0	0	0	0	512	624	
6	0	0	0	0	511	623	
7	0	0	0	0	512	623	
8	0	0	0	0	512	622	
9	0	0	0	0	513	623	
10	0	0	0	0	513	624	
11	0	0	0	0	512	624	
12	0	0	0	0	512	625	
13	0	0	0	0	513	624	
14	0	0	0	0	512	624	
15	0	0	0	0	511	624	
0	0	0	0	0	511	623	
1	0	0	0	0	509	624	
2	0	0	0	0	509	624	
3	0	0	0	0	509	625	
4	0	0	0	0	509	626	
5	0	0	0	0	509	625	
6	0	0	0	0	510	625	
7	0	0	0	0	511	625	
8	0	0	0	0	511	623	
9	0	0	0	0	510	625	
10	0	0	0	0	510	624	
11	0	0	0	0	510	624	
12	0	0	0	0	511	626	
13	0	0	0	0	511	624	
14	0	0	0	0	512	624	
15	0	0	0	0	512	624	
0	0	0	0	0	512	622	
1	0	0	0	0	513	624	
2	0	0	0	0	514	624	
3	0	0	0	0	514	624	
4	0	0	0	0	515	625	
5	0	0	0	0	515	623	
6	0	0	0	0	515	623	
7	0	0	0	0	515	623	
8	0	0	0	0	514	621	
9	0	0	0	0	512	623	
10	0	0	0	0	512	622	
11	0	0	0	0	510	622	
12	0	0	0	0	511	624	
13	0	0	0	0	510	622	
14	0	0	0	0	510	622	
15	0	0	0	0	511	622	
0	0	0	0	0	510	620	
1	0	0	0	0	510	621	
2	0	0	0	0	510	621	
3	0	0	0	0	509	621	
4	0	0	0	0	508	623	
5	0	0	0	0	508	621	
6	0	0	0	0	509	622	
7	0	0	0	0	509	622	
8	0	0	0	0	508	620	
9	0	0	0	0	508	621	
10	0	0	0	0	509	622	
11	0	0	0	0	509	622	
12	0	0	0	0	508	624	
13	0	0	0	0	509	622	
14	0	0	0	0	508	622	
15	0	0	0	0	508	622	
0	0	0	0	0	507	621	
1	0	0	0	0	507	623	
2	0	0	0	0	508	623	
3	0	0	0	0	508	622	
4	0	0	0	0	507	624	
5	0	0	0	0	508	623	
6	0	0	0	0	509	622	
7	0	0	0	0	510	623	
8	0	0	0	0	512	620	
9	0	0	0	0	511	622	
10	0	0	0	0	511	622	
11	0	0	0	0	512	622	
12	0	0	0	0	513	624	
13	0	0	0	0	514	622	
14	0	0	0	0	515	622	
15	0	0	0	0	515	623	
