# OpenSignals Text File Format. Version 1
# {"98:D3:11:FD:1E:A8": {"position": 0, "device": "bitalino_rev", "device name": "98:D3:11:FD:1E:A8", "device connection": "BTH98:D3:11:FD:1E:A8", "sampling rate": 1000, "resolution": [4, 1, 1, 1, 1, 10, 10], "firmware version": 1281, "comments": "", "keywords": "", "mode": 0, "sync interval": 2, "date": "2021-9-6", "time": "15:29:16.90", "channels": [2, 5], "sensor": ["RAW", "RAW"], "label": ["A2", "A5"], "column": ["nSeq", "I1", "I2", "O1", "O2", "A2", "A5"], "special": [{}, {}], "digital IO": [0, 0, 1, 1], "convertedValues": 0}}
# EndOfHeader
0	0	0	0	0	544	625	
1	0	0	0	0	544	622	
2	0	0	0	0	543	622	
3	0	0	0	0	543	622	
4	0	0	0	0	542	617	
5	0	0	0	0	542	622	
6	0	0	0	0	541	622	
7	0	0	0	0	540	622	
8	0	0	0	0	540	626	
9	0	0	0	0	542	622	
10	0	0	0	0	541	622	
11	0	0	0	0	542	622	
12	0	0	0	0	542	617	
13	0	0	0	0	542	622	
14	0	0	0	0	543	622	
15	0	0	0	0	543	622	
0	0	0	0	0	543	626	
1	0	0	0	0	544	622	
2	0	0	0	0	544	622	
3	0	0	0	0	544	622	
4	0	0	0	0	544	617	
5	0	0	0	0	544	623	
6	0	0	0	0	544	622	
7	0	0	0	0	544	622	
8	0	0	0	0	544	626	
9	0	0	0	0	544	623	
10	0	0	0	0	544	623	
11	0	0	0	0	543	623	
12	0	0	0	0	543	618	
13	0	0	0	0	544	623	
14	0	0	0	0	544	623	
15	0	0	0	0	545	623	
0	0	0	0	0	545	627	
1	0	0	0	0	544	623	
2	0	0	0	0	544	624	
3	0	0	0	0	543	623	
4	0	0	0	0	543	619	
5	0	0	0	0	543	624	
6	0	0	0	0	540	623	
7	0	0	0	0	537	623	
8	0	0	0	0	534	627	
9	0	0	0	0	532	623	
10	0	0	0	0	530	623	
11	0	0	0	0	529	623	
12	0	0	0	0	529	619	
13	0	0	0	0	529	624	
14	0	0	0	0	531	624	
15	0	0	0	0	532	624	
0	0	0	0	0	535	627	
1	0	0	0	0	536	624	
2	0	0	0	0	538	623	
3	0	0	0	0	538	623	
4	0	0	0	0	538	619	
5	0	0	0	0	537	624	
6	0	0	0	0	538	624	
7	0	0	0	0	537	624	
8	0	0	0	0	536	628	
9	0	0	0	0	535	623	
10	0	0	0	0	534	624	
11	0	0	0	0	532	624	
12	0	0	0	0	531	619	
13	0	0	0	0	531	623	
14	0	0	0	0	531	624	
15	0	0	0	0	531	624	
0	0	0	0	0	531	627	
1	0	0	0	0	531	623	
2	0	0	0	0	531	623	
3	0	0	0	0	531	623	
4	0	0	0	0	531	618	
5	0	0	0	0	531	622	
6	0	0	0	0	531	622	
7	0	0	0	0	531	622	
8	0	0	0	0	531	626	
9	0	0	0	0	531	622	
10	0	0	0	0	530	622	
11	0	0	0	0	529	621	
12	0	0	0	0	529	616	
13	0	0	0	0	529	621	
14	0	0	0	0	528	622	
15	0	0	0	0	528	622	
0	0	0	0	0	527	625	
1	0	0	0	0	528	621	
2	0	0	0	0	527	621	
3	0	0	0	0	527	621	
4	0	0	0	0	526	616	
5	0	0	0	0	526	621	
6	0	0	0	0	526	621	
7	0	0	0	0	526	622	
8	0	0	0	0	525	626	
9	0	0	0	0	525	622	
10	0	0	0	0	524	621	
11	0	0	0	0	525	621	
12	0	0	0	0	525	617	
13	0	0	0	0	526	622	
14	0	0	0	0	527	622	
15	0	0	0	0	527	622	
0	0	0	0	0	527	626	
1	0	0	0	0	528	622	
2	0	0	0	0	527	622	
3	0	0	0	0	528	622	
4	0	0	0	0	527	618	
5	0	0	0	0	527	622	
6	0	0	0	0	527	622	
7	0	0	0	0	526	622	
8	0	0	0	0	525	626	
9	0	0	0	0	525	623	
10	0	0	0	0	525	622	
11	0	0	0	0	525	622	
12	0	0	0	0	525	617	
13	0	0	0	0	525	622	
14	0	0	0	0	525	621	
15	0	0	0	0	525	622	
0	0	0	0	0	526	626	
1	0	0	0	0	526	621	
2	0	0	0	0	526	621	
3	0	0	0	0	526	621	
4	0	0	0	0	526	616	
5	0	0	0	0	526	621	
6	0	0	0	0	525	621	
7	0	0	0	0	524	621	
8	0	0	0	0	524	625	
9	0	0	0	0	524	620	
10	0	0	0	0	523	621	
11	0	0	0	0	523	621	
12	0	0	0	0	523	616	
13	0	0	0	0	523	621	
14	0	0	0	0	523	621	
15	0	0	0	0	522	621	
0	0	0	0	0	521	625	
1	0	0	0	0	521	622	
2	0	0	0	0	520	620	
3	0	0	0	0	519	621	
4	0	0	0	0	519	616	
5	0	0	0	0	519	621	
6	0	0	0	0	519	621	
7	0	0	0	0	518	622	
8	0	0	0	0	518	625	
9	0	0	0	0	518	621	
10	0	0	0	0	518	622	
11	0	0	0	0	518	621	
12	0	0	0	0	518	617	
13	0	0	0	0	518	622	
14	0	0	0	0	517	622	
15	0	0	0	0	516	622	
0	0	0	0	0	516	627	
1	0	0	0	0	515	622	
2	0	0	0	0	515	622	
3	0	0	0	0	514	622	
4	0	0	0	0	514	618	
5	0	0	0	0	513	622	
6	0	0	0	0	513	623	
7	0	0	0	0	513	623	
8	0	0	0	0	513	627	
9	0	0	0	0	515	623	
10	0	0	0	0	516	623	
11	0	0	0	0	518	623	
12	0	0	0	0	519	618	
13	0	0	0	0	521	623	
14	0	0	0	0	523	623	
15	0	0	0	0	523	623	
0	0	0	0	0	523	627	
1	0	0	0	0	524	623	
2	0	0	0	0	524	623	
3	0	0	0	0	523	623	
4	0	0	0	0	522	618	
5	0	0	0	0	521	622	
6	0	0	0	0	522	622	
7	0	0	0	0	521	622	
8	0	0	0	0	522	626	
9	0	0	0	0	522	622	
10	0	0	0	0	522	622	
11	0	0	0	0	523	622	
12	0	0	0	0	523	616	
13	0	0	0	0	524	621	
14	0	0	0	0	526	621	
15	0	0	0	0	527	622	
0	0	0	0	0	527	625	
1	0	0	0	0	527	621	
2	0	0	0	0	526	621	
3	0	0	0	0	526	620	
4	0	0	0	0	525	615	
5	0	0	0	0	524	620	
6	0	0	0	0	524	620	
7	0	0	0	0	523	620	
8	0	0	0	0	523	624	
9	0	0	0	0	523	620	
10	0	0	0	0	521	620	
11	0	0	0	0	519	620	
12	0	0	0	0	518	615	
13	0	0	0	0	516	620	
14	0	0	0	0	515	620	
15	0	0	0	0	515	620	
0	0	0	0	0	515	624	
1	0	0	0	0	517	620	
2	0	0	0	0	518	620	
3	0	0	0	0	519	620	
4	0	0	0	0	522	616	
5	0	0	0	0	525	620	
6	0	0	0	0	526	620	
7	0	0	0	0	527	620	
8	0	0	0	0	528	625	
9	0	0	0	0	529	621	
10	0	0	0	0	528	620	
11	0	0	0	0	528	620	
12	0	0	0	0	527	616	
13	0	0	0	0	526	621	
14	0	0	0	0	525	621	
15	0	0	0	0	525	621	
0	0	0	0	0	524	625	
1	0	0	0	0	524	622	
2	0	0	0	0	523	622	
3	0	0	0	0	524	622	
4	0	0	0	0	524	616	
5	0	0	0	0	524	622	
6	0	0	0	0	525	621	
7	0	0	0	0	526	622	
8	0	0	0	0	526	626	
9	0	0	0	0	526	622	
10	0	0	0	0	525	622	
11	0	0	0	0	525	622	
12	0	0	0	0	525	617	
13	0	0	0	0	525	622	
14	0	0	0	0	525	622	
15	0	0	0	0	524	622	
0	0	0	0	0	523	626	
1	0	0	0	0	523	622	
2	0	0	0	0	522	622	
3	0	0	0	0	521	622	
4	0	0	0	0	521	616	
5	0	0	0	0	521	622	
6	0	0	0	0	522	622	
7	0	0	0	0	521	622	
8	0	0	0	0	521	625	
9	0	0	0	0	522	622	
10	0	0	0	0	521	622	
11	0	0	0	0	522	622	
12	0	0	0	0	523	617	
13	0	0	0	0	523	622	
14	0	0	0	0	523	622	
15	0	0	0	0	522	622	
0	0	0	0	0	521	625	
1	0	0	0	0	520	621	
2	0	0	0	0	518	621	
3	0	0	0	0	516	620	
4	0	0	0	0	514	616	
5	0	0	0	0	511	621	
6	0	0	0	0	507	621	
7	0	0	0	0	503	622	
8	0	0	0	0	498	626	
9	0	0	0	0	493	622	
10	0	0	0	0	488	621	
11	0	0	0	0	483	621	
12	0	0	0	0	475	616	
13	0	0	0	0	468	622	
14	0	0	0	0	460	622	
15	0	0	0	0	452	621	
0	0	0	0	0	445	625	
1	0	0	0	0	439	622	
2	0	0	0	0	432	622	
3	0	0	0	0	424	622	
4	0	0	0	0	416	618	
5	0	0	0	0	408	623	
6	0	0	0	0	401	623	
7	0	0	0	0	395	622	
8	0	0	0	0	388	627	
9	0	0	0	0	384	622	
10	0	0	0	0	383	622	
11	0	0	0	0	386	623	
12	0	0	0	0	391	618	
13	0	0	0	0	403	623	
14	0	0	0	0	421	623	
15	0	0	0	0	444	623	
0	0	0	0	0	472	627	
1	0	0	0	0	505	623	
2	0	0	0	0	539	623	
3	0	0	0	0	569	623	
4	0	0	0	0	595	619	
5	0	0	0	0	623	623	
6	0	0	0	0	654	623	
7	0	0	0	0	686	623	
8	0	0	0	0	714	627	
9	0	0	0	0	739	623	
10	0	0	0	0	759	623	
11	0	0	0	0	772	623	
12	0	0	0	0	781	619	
13	0	0	0	0	789	623	
14	0	0	0	0	803	624	
15	0	0	0	0	820	624	
0	0	0	0	0	838	627	
1	0	0	0	0	867	624	
2	0	0	0	0	904	623	
3	0	0	0	0	926	623	
4	0	0	0	0	927	619	
5	0	0	0	0	915	623	
6	0	0	0	0	896	623	
7	0	0	0	0	872	623	
8	0	0	0	0	848	627	
9	0	0	0	0	824	623	
10	0	0	0	0	797	623	
11	0	0	0	0	772	624	
12	0	0	0	0	747	619	
13	0	0	0	0	723	624	
14	0	0	0	0	700	623	
15	0	0	0	0	678	623	
0	0	0	0	0	657	628	
1	0	0	0	0	638	624	
2	0	0	0	0	621	624	
3	0	0	0	0	604	623	
4	0	0	0	0	589	619	
5	0	0	0	0	575	624	
6	0	0	0	0	560	624	
7	0	0	0	0	549	623	
8	0	0	0	0	538	627	
9	0	0	0	0	529	623	
10	0	0	0	0	519	623	
11	0	0	0	0	511	623	
12	0	0	0	0	503	619	
13	0	0	0	0	496	623	
14	0	0	0	0	489	623	
15	0	0	0	0	483	623	
0	0	0	0	0	476	627	
1	0	0	0	0	472	622	
2	0	0	0	0	467	622	
3	0	0	0	0	462	622	
4	0	0	0	0	456	617	
5	0	0	0	0	452	622	
6	0	0	0	0	448	622	
7	0	0	0	0	445	622	
8	0	0	0	0	443	626	
9	0	0	0	0	441	622	
10	0	0	0	0	440	621	
11	0	0	0	0	439	621	
12	0	0	0	0	438	617	
13	0	0	0	0	436	621	
14	0	0	0	0	436	621	
15	0	0	0	0	436	621	
0	0	0	0	0	436	625	
1	0	0	0	0	436	622	
2	0	0	0	0	435	622	
3	0	0	0	0	435	622	
4	0	0	0	0	435	617	
5	0	0	0	0	435	622	
6	0	0	0	0	435	622	
7	0	0	0	0	435	622	
8	0	0	0	0	435	626	
9	0	0	0	0	434	622	
10	0	0	0	0	434	622	
11	0	0	0	0	434	622	
12	0	0	0	0	434	618	
13	0	0	0	0	435	623	
14	0	0	0	0	436	623	
15	0	0	0	0	437	623	
0	0	0	0	0	437	627	
1	0	0	0	0	436	623	
2	0	0	0	0	437	623	
3	0	0	0	0	437	623	
4	0	0	0	0	438	618	
5	0	0	0	0	439	623	
6	0	0	0	0	438	623	
7	0	0	0	0	438	623	
8	0	0	0	0	438	627	
9	0	0	0	0	438	623	
10	0	0	0	0	439	623	
11	0	0	0	0	439	623	
12	0	0	0	0	440	618	
13	0	0	0	0	440	623	
14	0	0	0	0	440	623	
15	0	0	0	0	440	623	
0	0	0	0	0	441	627	
1	0	0	0	0	443	623	
2	0	0	0	0	444	623	
3	0	0	0	0	445	623	
4	0	0	0	0	446	618	
5	0	0	0	0	447	623	
6	0	0	0	0	448	624	
7	0	0	0	0	449	624	
8	0	0	0	0	450	628	
9	0	0	0	0	450	624	
10	0	0	0	0	450	623	
11	0	0	0	0	450	623	
12	0	0	0	0	450	619	
13	0	0	0	0	449	623	
14	0	0	0	0	449	623	
15	0	0	0	0	448	624	
0	0	0	0	0	448	627	
1	0	0	0	0	447	624	
2	0	0	0	0	446	623	
3	0	0	0	0	446	623	
4	0	0	0	0	447	619	
5	0	0	0	0	447	623	
6	0	0	0	0	449	623	
7	0	0	0	0	451	624	
8	0	0	0	0	452	627	
9	0	0	0	0	453	624	
10	0	0	0	0	454	623	
11	0	0	0	0	454	623	
12	0	0	0	0	455	619	
13	0	0	0	0	455	624	
14	0	0	0	0	455	624	
15	0	0	0	0	455	624	
0	0	0	0	0	454	628	
1	0	0	0	0	454	624	
2	0	0	0	0	453	624	
3	0	0	0	0	451	624	
4	0	0	0	0	451	619	
5	0	0	0	0	449	623	
6	0	0	0	0	449	623	
7	0	0	0	0	448	623	
8	0	0	0	0	449	627	
9	0	0	0	0	449	623	
10	0	0	0	0	450	623	
11	0	0	0	0	451	623	
12	0	0	0	0	452	619	
13	0	0	0	0	453	623	
14	0	0	0	0	453	623	
15	0	0	0	0	454	623	
0	0	0	0	0	454	627	
1	0	0	0	0	454	623	
2	0	0	0	0	454	622	
3	0	0	0	0	454	622	
4	0	0	0	0	454	617	
5	0	0	0	0	454	622	
6	0	0	0	0	454	622	
7	0	0	0	0	454	622	
8	0	0	0	0	453	627	
9	0	0	0	0	453	621	
10	0	0	0	0	452	621	
11	0	0	0	0	450	622	
12	0	0	0	0	449	617	
13	0	0	0	0	448	621	
14	0	0	0	0	447	621	
15	0	0	0	0	446	622	
0	0	0	0	0	445	626	
1	0	0	0	0	446	622	
2	0	0	0	0	447	622	
3	0	0	0	0	448	622	
4	0	0	0	0	450	617	
5	0	0	0	0	452	622	
6	0	0	0	0	454	622	
7	0	0	0	0	455	622	
8	0	0	0	0	454	626	
9	0	0	0	0	455	622	
10	0	0	0	0	454	622	
11	0	0	0	0	454	622	
12	0	0	0	0	453	617	
13	0	0	0	0	452	622	
14	0	0	0	0	452	621	
15	0	0	0	0	452	621	
0	0	0	0	0	453	625	
1	0	0	0	0	454	622	
2	0	0	0	0	455	622	
3	0	0	0	0	457	621	
4	0	0	0	0	457	617	
5	0	0	0	0	458	622	
6	0	0	0	0	460	621	
7	0	0	0	0	461	622	
8	0	0	0	0	462	625	
9	0	0	0	0	463	621	
10	0	0	0	0	463	621	
11	0	0	0	0	464	621	
12	0	0	0	0	465	617	
13	0	0	0	0	466	621	
14	0	0	0	0	467	622	
15	0	0	0	0	467	621	
0	0	0	0	0	467	626	
1	0	0	0	0	468	622	
2	0	0	0	0	469	622	
3	0	0	0	0	470	622	
4	0	0	0	0	471	617	
5	0	0	0	0	472	623	
6	0	0	0	0	473	622	
7	0	0	0	0	475	622	
8	0	0	0	0	476	626	
9	0	0	0	0	477	623	
10	0	0	0	0	478	622	
11	0	0	0	0	479	622	
12	0	0	0	0	481	617	
13	0	0	0	0	482	622	
14	0	0	0	0	483	622	
15	0	0	0	0	485	623	
0	0	0	0	0	486	627	
1	0	0	0	0	487	622	
2	0	0	0	0	489	622	
3	0	0	0	0	490	623	
4	0	0	0	0	491	618	
5	0	0	0	0	492	623	
6	0	0	0	0	492	622	
7	0	0	0	0	494	623	
8	0	0	0	0	495	627	
9	0	0	0	0	497	623	
10	0	0	0	0	498	623	
11	0	0	0	0	500	623	
12	0	0	0	0	501	618	
13	0	0	0	0	503	622	
14	0	0	0	0	505	623	
15	0	0	0	0	507	623	
0	0	0	0	0	508	626	
1	0	0	0	0	510	621	
2	0	0	0	0	511	622	
3	0	0	0	0	512	621	
4	0	0	0	0	513	616	
5	0	0	0	0	513	621	
6	0	0	0	0	514	622	
7	0	0	0	0	515	622	
8	0	0	0	0	515	625	
9	0	0	0	0	517	621	
10	0	0	0	0	518	621	
11	0	0	0	0	519	622	
12	0	0	0	0	520	617	
13	0	0	0	0	521	622	
14	0	0	0	0	524	622	
15	0	0	0	0	525	621	
0	0	0	0	0	526	625	
1	0	0	0	0	528	621	
2	0	0	0	0	529	622	
3	0	0	0	0	530	622	
4	0	0	0	0	531	617	
5	0	0	0	0	531	622	
6	0	0	0	0	531	622	
7	0	0	0	0	531	623	
8	0	0	0	0	531	627	
9	0	0	0	0	531	623	
10	0	0	0	0	531	623	
11	0	0	0	0	532	623	
12	0	0	0	0	534	617	
13	0	0	0	0	535	623	
14	0	0	0	0	536	623	
15	0	0	0	0	537	623	
0	0	0	0	0	538	627	
1	0	0	0	0	538	623	
2	0	0	0	0	538	623	
3	0	0	0	0	538	622	
4	0	0	0	0	540	617	
5	0	0	0	0	541	623	
6	0	0	0	0	542	622	
7	0	0	0	0	543	623	
8	0	0	0	0	545	627	
9	0	0	0	0	546	623	
10	0	0	0	0	546	622	
11	0	0	0	0	547	623	
12	0	0	0	0	547	618	
13	0	0	0	0	547	623	
14	0	0	0	0	547	623	
15	0	0	0	0	547	624	
0	0	0	0	0	546	627	
1	0	0	0	0	545	623	
2	0	0	0	0	544	623	
3	0	0	0	0	543	623	
4	0	0	0	0	543	618	
5	0	0	0	0	544	623	
6	0	0	0	0	544	622	
7	0	0	0	0	544	623	
8	0	0	0	0	545	627	
9	0	0	0	0	546	623	
10	0	0	0	0	546	623	
11	0	0	0	0	547	623	
12	0	0	0	0	547	618	
13	0	0	0	0	548	623	
14	0	0	0	0	548	623	
15	0	0	0	0	548	623	
0	0	0	0	0	548	627	
1	0	0	0	0	548	623	
2	0	0	0	0	547	623	
3	0	0	0	0	547	622	
4	0	0	0	0	546	618	
5	0	0	0	0	546	623	
6	0	0	0	0	545	622	
7	0	0	0	0	545	623	
8	0	0	0	0	545	627	
9	0	0	0	0	546	623	
10	0	0	0	0	545	622	
11	0	0	0	0	546	622	
12	0	0	0	0	546	617	
13	0	0	0	0	545	622	
14	0	0	0	0	545	621	
15	0	0	0	0	545	621	
0	0	0	0	0	545	625	
1	0	0	0	0	545	621	
2	0	0	0	0	544	621	
3	0	0	0	0	544	621	
4	0	0	0	0	544	616	
5	0	0	0	0	543	621	
6	0	0	0	0	542	621	
7	0	0	0	0	541	621	
8	0	0	0	0	540	625	
9	0	0	0	0	540	621	
10	0	0	0	0	540	620	
11	0	0	0	0	539	620	
12	0	0	0	0	539	616	
13	0	0	0	0	539	621	
14	0	0	0	0	539	620	
15	0	0	0	0	539	621	
0	0	0	0	0	540	624	
1	0	0	0	0	540	620	
2	0	0	0	0	539	620	
3	0	0	0	0	538	620	
4	0	0	0	0	538	615	
5	0	0	0	0	537	620	
6	0	0	0	0	537	620	
7	0	0	0	0	536	620	
8	0	0	0	0	535	624	
9	0	0	0	0	535	620	
10	0	0	0	0	534	620	
11	0	0	0	0	532	620	
12	0	0	0	0	531	615	
13	0	0	0	0	531	620	
14	0	0	0	0	530	620	
15	0	0	0	0	531	620	
0	0	0	0	0	530	624	
1	0	0	0	0	531	619	
2	0	0	0	0	531	620	
3	0	0	0	0	532	620	
4	0	0	0	0	532	615	
5	0	0	0	0	533	619	
6	0	0	0	0	534	620	
7	0	0	0	0	534	620	
8	0	0	0	0	534	624	
9	0	0	0	0	534	620	
10	0	0	0	0	534	620	
11	0	0	0	0	533	620	
12	0	0	0	0	533	615	
13	0	0	0	0	532	619	
14	0	0	0	0	532	619	
15	0	0	0	0	531	619	
0	0	0	0	0	531	623	
1	0	0	0	0	530	620	
2	0	0	0	0	530	620	
3	0	0	0	0	530	619	
4	0	0	0	0	530	615	
5	0	0	0	0	530	620	
6	0	0	0	0	529	620	
7	0	0	0	0	530	620	
8	0	0	0	0	530	624	
9	0	0	0	0	531	619	
10	0	0	0	0	530	620	
11	0	0	0	0	530	620	
12	0	0	0	0	529	615	
13	0	0	0	0	529	620	
14	0	0	0	0	529	620	
15	0	0	0	0	529	621	
0	0	0	0	0	528	625	
1	0	0	0	0	528	621	
2	0	0	0	0	527	621	
3	0	0	0	0	526	622	
4	0	0	0	0	526	617	
5	0	0	0	0	525	623	
6	0	0	0	0	524	623	
7	0	0	0	0	523	623	
8	0	0	0	0	523	627	
9	0	0	0	0	523	623	
10	0	0	0	0	523	623	
11	0	0	0	0	523	623	
12	0	0	0	0	524	619	
13	0	0	0	0	524	624	
14	0	0	0	0	525	624	
15	0	0	0	0	526	624	
0	0	0	0	0	527	628	
1	0	0	0	0	527	624	
2	0	0	0	0	527	624	
3	0	0	0	0	527	624	
4	0	0	0	0	526	620	
5	0	0	0	0	526	624	
6	0	0	0	0	526	624	
7	0	0	0	0	526	624	
8	0	0	0	0	526	628	
9	0	0	0	0	526	624	
10	0	0	0	0	526	624	
11	0	0	0	0	525	624	
12	0	0	0	0	526	619	
13	0	0	0	0	526	624	
14	0	0	0	0	526	624	
15	0	0	0	0	527	624	
0	0	0	0	0	527	628	
1	0	0	0	0	527	624	
2	0	0	0	0	527	624	
3	0	0	0	0	527	623	
4	0	0	0	0	526	619	
5	0	0	0	0	526	624	
6	0	0	0	0	526	623	
7	0	0	0	0	525	623	
8	0	0	0	0	523	627	
9	0	0	0	0	521	623	
10	0	0	0	0	520	623	
11	0	0	0	0	519	623	
12	0	0	0	0	518	619	
13	0	0	0	0	517	624	
14	0	0	0	0	516	623	
15	0	0	0	0	516	624	
0	0	0	0	0	515	628	
1	0	0	0	0	515	622	
2	0	0	0	0	514	623	
3	0	0	0	0	514	623	
4	0	0	0	0	513	618	
5	0	0	0	0	513	623	
6	0	0	0	0	515	623	
7	0	0	0	0	516	623	
8	0	0	0	0	515	626	
9	0	0	0	0	515	622	
10	0	0	0	0	515	622	
11	0	0	0	0	515	622	
12	0	0	0	0	515	617	
13	0	0	0	0	515	621	
14	0	0	0	0	515	621	
15	0	0	0	0	516	621	
0	0	0	0	0	516	625	
1	0	0	0	0	515	621	
2	0	0	0	0	516	620	
3	0	0	0	0	518	620	
4	0	0	0	0	518	615	
5	0	0	0	0	519	620	
6	0	0	0	0	521	621	
7	0	0	0	0	523	620	
8	0	0	0	0	523	625	
9	0	0	0	0	524	620	
10	0	0	0	0	525	620	
11	0	0	0	0	525	620	
12	0	0	0	0	524	615	
13	0	0	0	0	524	620	
14	0	0	0	0	524	620	
15	0	0	0	0	523	620	
0	0	0	0	0	523	624	
1	0	0	0	0	523	620	
2	0	0	0	0	523	620	
3	0	0	0	0	523	620	
4	0	0	0	0	523	616	
5	0	0	0	0	523	620	
6	0	0	0	0	523	621	
7	0	0	0	0	523	620	
8	0	0	0	0	523	624	
9	0	0	0	0	523	621	
10	0	0	0	0	523	621	
11	0	0	0	0	523	621	
12	0	0	0	0	524	616	
13	0	0	0	0	524	621	
14	0	0	0	0	525	621	
15	0	0	0	0	526	622	
0	0	0	0	0	526	626	
1	0	0	0	0	526	622	
2	0	0	0	0	526	622	
3	0	0	0	0	526	622	
4	0	0	0	0	524	617	
5	0	0	0	0	524	622	
6	0	0	0	0	523	622	
7	0	0	0	0	522	622	
8	0	0	0	0	521	626	
9	0	0	0	0	520	622	
10	0	0	0	0	520	621	
11	0	0	0	0	520	622	
12	0	0	0	0	520	617	
13	0	0	0	0	520	623	
14	0	0	0	0	520	622	
15	0	0	0	0	521	623	
0	0	0	0	0	523	626	
1	0	0	0	0	524	622	
2	0	0	0	0	526	622	
3	0	0	0	0	527	622	
4	0	0	0	0	529	618	
5	0	0	0	0	529	623	
6	0	0	0	0	529	623	
7	0	0	0	0	529	623	
8	0	0	0	0	527	626	
9	0	0	0	0	527	623	
10	0	0	0	0	526	623	
11	0	0	0	0	525	623	
12	0	0	0	0	524	618	
13	0	0	0	0	522	623	
14	0	0	0	0	521	623	
15	0	0	0	0	520	623	
0	0	0	0	0	519	627	
1	0	0	0	0	519	623	
2	0	0	0	0	519	622	
3	0	0	0	0	519	622	
4	0	0	0	0	520	618	
5	0	0	0	0	520	622	
6	0	0	0	0	521	623	
7	0	0	0	0	523	624	
8	0	0	0	0	524	627	
9	0	0	0	0	526	623	
10	0	0	0	0	526	623	
11	0	0	0	0	526	623	
12	0	0	0	0	525	619	
13	0	0	0	0	524	623	
14	0	0	0	0	524	623	
15	0	0	0	0	523	623	
0	0	0	0	0	522	627	
1	0	0	0	0	522	623	
2	0	0	0	0	521	624	
3	0	0	0	0	520	623	
4	0	0	0	0	519	619	
5	0	0	0	0	519	624	
6	0	0	0	0	518	624	
7	0	0	0	0	516	624	
8	0	0	0	0	516	628	
9	0	0	0	0	514	623	
10	0	0	0	0	512	623	
11	0	0	0	0	509	623	
12	0	0	0	0	505	619	
13	0	0	0	0	500	624	
14	0	0	0	0	495	623	
15	0	0	0	0	489	624	
0	0	0	0	0	483	627	
1	0	0	0	0	476	623	
2	0	0	0	0	468	623	
3	0	0	0	0	459	623	
4	0	0	0	0	450	617	
5	0	0	0	0	442	623	
6	0	0	0	0	436	623	
7	0	0	0	0	430	623	
8	0	0	0	0	423	627	
9	0	0	0	0	416	622	
10	0	0	0	0	409	622	
11	0	0	0	0	403	623	
12	0	0	0	0	398	618	
13	0	0	0	0	392	622	
14	0	0	0	0	386	622	
15	0	0	0	0	383	622	
0	0	0	0	0	385	627	
1	0	0	0	0	389	622	
2	0	0	0	0	396	622	
3	0	0	0	0	409	622	
4	0	0	0	0	429	617	
5	0	0	0	0	454	621	
6	0	0	0	0	484	622	
7	0	0	0	0	517	622	
8	0	0	0	0	549	626	
9	0	0	0	0	580	621	
10	0	0	0	0	608	622	
11	0	0	0	0	639	621	
12	0	0	0	0	672	617	
13	0	0	0	0	702	621	
14	0	0	0	0	728	620	
15	0	0	0	0	754	621	
0	0	0	0	0	773	625	
1	0	0	0	0	784	621	
2	0	0	0	0	796	621	
3	0	0	0	0	808	621	
4	0	0	0	0	826	616	
5	0	0	0	0	844	621	
6	0	0	0	0	864	621	
7	0	0	0	0	894	621	
8	0	0	0	0	918	625	
9	0	0	0	0	924	621	
10	0	0	0	0	914	621	
11	0	0	0	0	896	621	
12	0	0	0	0	873	616	
13	0	0	0	0	849	621	
14	0	0	0	0	824	621	
15	0	0	0	0	799	621	
0	0	0	0	0	774	626	
1	0	0	0	0	752	621	
2	0	0	0	0	729	621	
3	0	0	0	0	708	622	
4	0	0	0	0	688	617	
5	0	0	0	0	669	622	
6	0	0	0	0	651	622	
7	0	0	0	0	633	622	
8	0	0	0	0	615	626	
9	0	0	0	0	600	622	
10	0	0	0	0	585	622	
11	0	0	0	0	571	622	
12	0	0	0	0	558	617	
13	0	0	0	0	546	622	
14	0	0	0	0	535	623	
15	0	0	0	0	524	622	
0	0	0	0	0	514	627	
1	0	0	0	0	504	622	
2	0	0	0	0	494	623	
3	0	0	0	0	485	623	
4	0	0	0	0	476	618	
5	0	0	0	0	470	623	
6	0	0	0	0	466	623	
7	0	0	0	0	463	624	
8	0	0	0	0	462	628	
9	0	0	0	0	460	623	
10	0	0	0	0	457	624	
11	0	0	0	0	455	623	
12	0	0	0	0	452	619	
13	0	0	0	0	450	624	
14	0	0	0	0	448	624	
15	0	0	0	0	445	624	
0	0	0	0	0	444	628	
1	0	0	0	0	441	624	
2	0	0	0	0	440	624	
3	0	0	0	0	438	624	
4	0	0	0	0	435	619	
5	0	0	0	0	434	624	
6	0	0	0	0	433	624	
7	0	0	0	0	432	624	
8	0	0	0	0	432	628	
9	0	0	0	0	432	625	
10	0	0	0	0	431	625	
11	0	0	0	0	431	624	
12	0	0	0	0	432	619	
13	0	0	0	0	432	624	
14	0	0	0	0	432	624	
15	0	0	0	0	433	625	
0	0	0	0	0	434	629	
1	0	0	0	0	435	624	
2	0	0	0	0	435	624	
3	0	0	0	0	436	624	
4	0	0	0	0	435	620	
5	0	0	0	0	435	624	
6	0	0	0	0	435	624	
7	0	0	0	0	435	624	
8	0	0	0	0	435	628	
9	0	0	0	0	436	624	
10	0	0	0	0	436	624	
11	0	0	0	0	436	624	
12	0	0	0	0	437	619	
13	0	0	0	0	436	623	
14	0	0	0	0	436	624	
15	0	0	0	0	437	624	
0	0	0	0	0	437	628	
1	0	0	0	0	437	623	
2	0	0	0	0	438	624	
3	0	0	0	0	439	623	
4	0	0	0	0	439	619	
5	0	0	0	0	440	624	
6	0	0	0	0	441	623	
7	0	0	0	0	442	624	
8	0	0	0	0	443	627	
9	0	0	0	0	442	622	
10	0	0	0	0	442	622	
11	0	0	0	0	442	622	
12	0	0	0	0	441	617	
13	0	0	0	0	441	622	
14	0	0	0	0	440	622	
15	0	0	0	0	441	622	
0	0	0	0	0	440	627	
1	0	0	0	0	441	622	
2	0	0	0	0	441	622	
3	0	0	0	0	442	621	
4	0	0	0	0	442	616	
5	0	0	0	0	443	621	
6	0	0	0	0	444	621	
7	0	0	0	0	445	622	
8	0	0	0	0	446	625	
9	0	0	0	0	448	621	
10	0	0	0	0	448	621	
11	0	0	0	0	448	621	
12	0	0	0	0	448	616	
13	0	0	0	0	448	621	
14	0	0	0	0	448	621	
15	0	0	0	0	448	621	
0	0	0	0	0	447	625	
1	0	0	0	0	446	621	
2	0	0	0	0	447	620	
3	0	0	0	0	446	620	
4	0	0	0	0	446	615	
5	0	0	0	0	446	620	
6	0	0	0	0	446	620	
7	0	0	0	0	447	620	
8	0	0	0	0	447	623	
9	0	0	0	0	447	619	
10	0	0	0	0	446	619	
11	0	0	0	0	446	620	
12	0	0	0	0	446	614	
13	0	0	0	0	446	619	
14	0	0	0	0	445	619	
15	0	0	0	0	446	619	
0	0	0	0	0	446	622	
1	0	0	0	0	447	618	
2	0	0	0	0	446	618	
3	0	0	0	0	446	618	
4	0	0	0	0	445	614	
5	0	0	0	0	445	618	
6	0	0	0	0	445	619	
7	0	0	0	0	444	618	
8	0	0	0	0	444	623	
9	0	0	0	0	445	618	
10	0	0	0	0	444	618	
11	0	0	0	0	445	618	
12	0	0	0	0	445	614	
13	0	0	0	0	446	618	
14	0	0	0	0	447	618	
15	0	0	0	0	448	619	
0	0	0	0	0	448	624	
1	0	0	0	0	448	619	
2	0	0	0	0	448	619	
3	0	0	0	0	448	619	
4	0	0	0	0	448	615	
5	0	0	0	0	447	620	
6	0	0	0	0	447	620	
7	0	0	0	0	447	620	
8	0	0	0	0	446	625	
9	0	0	0	0	445	621	
10	0	0	0	0	445	622	
11	0	0	0	0	445	621	
12	0	0	0	0	445	616	
13	0	0	0	0	446	622	
14	0	0	0	0	447	622	
15	0	0	0	0	448	622	
0	0	0	0	0	449	626	
1	0	0	0	0	450	622	
2	0	0	0	0	451	623	
3	0	0	0	0	452	622	
4	0	0	0	0	452	618	
5	0	0	0	0	454	623	
6	0	0	0	0	454	623	
7	0	0	0	0	454	623	
8	0	0	0	0	454	627	
9	0	0	0	0	454	624	
10	0	0	0	0	454	623	
11	0	0	0	0	453	624	
12	0	0	0	0	452	619	
13	0	0	0	0	452	624	
14	0	0	0	0	452	624	
15	0	0	0	0	453	624	
0	0	0	0	0	454	628	
1	0	0	0	0	455	624	
2	0	0	0	0	456	624	
3	0	0	0	0	457	624	
4	0	0	0	0	459	619	
5	0	0	0	0	461	624	
6	0	0	0	0	463	624	
7	0	0	0	0	464	624	
8	0	0	0	0	465	628	
9	0	0	0	0	465	624	
10	0	0	0	0	466	624	
11	0	0	0	0	466	625	
12	0	0	0	0	466	620	
13	0	0	0	0	466	624	
14	0	0	0	0	466	624	
15	0	0	0	0	466	624	
0	0	0	0	0	467	628	
1	0	0	0	0	468	625	
2	0	0	0	0	471	624	
3	0	0	0	0	472	625	
4	0	0	0	0	473	620	
5	0	0	0	0	476	624	
6	0	0	0	0	478	624	
7	0	0	0	0	480	624	
8	0	0	0	0	482	628	
9	0	0	0	0	485	624	
10	0	0	0	0	487	624	
11	0	0	0	0	488	624	
12	0	0	0	0	491	620	
13	0	0	0	0	491	624	
14	0	0	0	0	492	624	
15	0	0	0	0	494	624	
0	0	0	0	0	495	628	
1	0	0	0	0	496	624	
2	0	0	0	0	497	624	
3	0	0	0	0	499	624	
4	0	0	0	0	501	620	
5	0	0	0	0	502	624	
6	0	0	0	0	504	624	
7	0	0	0	0	505	624	
8	0	0	0	0	507	628	
9	0	0	0	0	508	624	
10	0	0	0	0	510	624	
11	0	0	0	0	512	623	
12	0	0	0	0	513	618	
13	0	0	0	0	515	623	
14	0	0	0	0	516	623	
15	0	0	0	0	516	623	
0	0	0	0	0	517	627	
1	0	0	0	0	519	622	
2	0	0	0	0	520	622	
3	0	0	0	0	522	622	
4	0	0	0	0	523	617	
5	0	0	0	0	524	622	
6	0	0	0	0	524	621	
7	0	0	0	0	524	621	
8	0	0	0	0	526	625	
9	0	0	0	0	526	621	
10	0	0	0	0	527	621	
11	0	0	0	0	527	622	
12	0	0	0	0	529	617	
13	0	0	0	0	531	621	
14	0	0	0	0	532	621	
15	0	0	0	0	534	621	
0	0	0	0	0	536	625	
1	0	0	0	0	538	620	
2	0	0	0	0	539	620	
3	0	0	0	0	540	620	
4	0	0	0	0	541	615	
5	0	0	0	0	542	620	
6	0	0	0	0	542	620	
7	0	0	0	0	542	620	
8	0	0	0	0	542	624	
9	0	0	0	0	542	620	
10	0	0	0	0	542	620	
11	0	0	0	0	542	620	
12	0	0	0	0	543	615	
13	0	0	0	0	542	620	
14	0	0	0	0	542	621	
15	0	0	0	0	543	620	
0	0	0	0	0	543	624	
1	0	0	0	0	544	621	
2	0	0	0	0	545	620	
3	0	0	0	0	547	620	
4	0	0	0	0	547	616	
5	0	0	0	0	547	620	
6	0	0	0	0	548	621	
7	0	0	0	0	548	621	
8	0	0	0	0	548	625	
9	0	0	0	0	549	620	
10	0	0	0	0	549	620	
11	0	0	0	0	550	620	
12	0	0	0	0	550	615	
13	0	0	0	0	551	621	
14	0	0	0	0	550	620	
15	0	0	0	0	551	621	
0	0	0	0	0	550	624	
1	0	0	0	0	550	620	
2	0	0	0	0	549	620	
3	0	0	0	0	549	620	
4	0	0	0	0	549	615	
5	0	0	0	0	549	621	
6	0	0	0	0	549	621	
7	0	0	0	0	549	621	
8	0	0	0	0	548	625	
9	0	0	0	0	548	620	
10	0	0	0	0	549	621	
11	0	0	0	0	550	621	
12	0	0	0	0	550	616	
13	0	0	0	0	551	621	
14	0	0	0	0	552	621	
15	0	0	0	0	552	621	
0	0	0	0	0	552	625	
1	0	0	0	0	551	621	
2	0	0	0	0	551	622	
3	0	0	0	0	551	621	
4	0	0	0	0	550	617	
5	0	0	0	0	549	622	
6	0	0	0	0	547	622	
7	0	0	0	0	546	622	
8	0	0	0	0	546	626	
9	0	0	0	0	545	622	
10	0	0	0	0	544	622	
11	0	0	0	0	543	621	
12	0	0	0	0	542	617	
13	0	0	0	0	540	622	
14	0	0	0	0	539	622	
15	0	0	0	0	539	622	
0	0	0	0	0	539	627	
1	0	0	0	0	540	623	
2	0	0	0	0	540	623	
3	0	0	0	0	541	622	
4	0	0	0	0	542	618	
5	0	0	0	0	542	623	
6	0	0	0	0	542	623	
7	0	0	0	0	542	624	
8	0	0	0	0	541	627	
9	0	0	0	0	540	623	
10	0	0	0	0	540	623	
11	0	0	0	0	540	623	
12	0	0	0	0	540	618	
13	0	0	0	0	540	623	
14	0	0	0	0	540	623	
15	0	0	0	0	539	623	
0	0	0	0	0	537	627	
1	0	0	0	0	536	623	
2	0	0	0	0	536	623	
3	0	0	0	0	536	623	
4	0	0	0	0	536	618	
5	0	0	0	0	536	623	
6	0	0	0	0	536	623	
7	0	0	0	0	536	623	
8	0	0	0	0	536	627	
9	0	0	0	0	536	622	
10	0	0	0	0	535	622	
11	0	0	0	0	534	622	
12	0	0	0	0	532	618	
13	0	0	0	0	530	622	
14	0	0	0	0	529	621	
15	0	0	0	0	528	621	
0	0	0	0	0	528	626	
1	0	0	0	0	529	621	
2	0	0	0	0	529	621	
3	0	0	0	0	529	621	
4	0	0	0	0	530	616	
5	0	0	0	0	529	620	
6	0	0	0	0	530	620	
7	0	0	0	0	530	620	
8	0	0	0	0	530	624	
9	0	0	0	0	531	620	
10	0	0	0	0	530	620	
11	0	0	0	0	530	620	
12	0	0	0	0	529	615	
13	0	0	0	0	529	620	
14	0	0	0	0	528	620	
15	0	0	0	0	528	620	
0	0	0	0	0	528	625	
1	0	0	0	0	528	620	
2	0	0	0	0	527	620	
3	0	0	0	0	527	620	
4	0	0	0	0	527	615	
5	0	0	0	0	528	620	
6	0	0	0	0	528	620	
7	0	0	0	0	528	621	
8	0	0	0	0	528	625	
9	0	0	0	0	528	621	
10	0	0	0	0	527	621	
11	0	0	0	0	527	621	
12	0	0	0	0	527	617	
13	0	0	0	0	527	621	
14	0	0	0	0	527	621	
15	0	0	0	0	527	622	
0	0	0	0	0	527	625	
1	0	0	0	0	527	622	
2	0	0	0	0	526	621	
3	0	0	0	0	525	622	
4	0	0	0	0	524	617	
5	0	0	0	0	523	622	
6	0	0	0	0	523	622	
7	0	0	0	0	522	622	
8	0	0	0	0	521	626	
9	0	0	0	0	522	622	
10	0	0	0	0	523	622	
11	0	0	0	0	523	622	
12	0	0	0	0	523	617	
13	0	0	0	0	524	622	
14	0	0	0	0	525	623	
15	0	0	0	0	525	623	
0	0	0	0	0	525	626	
1	0	0	0	0	526	622	
2	0	0	0	0	526	622	
3	0	0	0	0	526	622	
4	0	0	0	0	526	618	
5	0	0	0	0	526	622	
6	0	0	0	0	524	622	
7	0	0	0	0	524	622	
8	0	0	0	0	523	626	
9	0	0	0	0	523	622	
10	0	0	0	0	522	622	
11	0	0	0	0	521	622	
12	0	0	0	0	520	617	
13	0	0	0	0	519	623	
14	0	0	0	0	519	623	
15	0	0	0	0	519	623	
0	0	0	0	0	519	627	
1	0	0	0	0	518	623	
2	0	0	0	0	518	623	
3	0	0	0	0	518	622	
4	0	0	0	0	518	618	
5	0	0	0	0	518	623	
6	0	0	0	0	518	622	
7	0	0	0	0	518	624	
8	0	0	0	0	518	628	
9	0	0	0	0	517	624	
10	0	0	0	0	517	623	
11	0	0	0	0	517	623	
12	0	0	0	0	516	620	
13	0	0	0	0	515	624	
14	0	0	0	0	515	624	
15	0	0	0	0	515	624	
0	0	0	0	0	515	629	
1	0	0	0	0	516	625	
2	0	0	0	0	516	625	
3	0	0	0	0	517	625	
4	0	0	0	0	517	620	
5	0	0	0	0	518	625	
6	0	0	0	0	519	625	
7	0	0	0	0	520	626	
8	0	0	0	0	520	630	
9	0	0	0	0	521	625	
10	0	0	0	0	524	625	
11	0	0	0	0	525	625	
12	0	0	0	0	525	621	
13	0	0	0	0	525	625	
14	0	0	0	0	525	625	
15	0	0	0	0	525	625	
0	0	0	0	0	526	630	
1	0	0	0	0	525	625	
2	0	0	0	0	524	625	
3	0	0	0	0	523	624	
4	0	0	0	0	523	620	
5	0	0	0	0	523	625	
6	0	0	0	0	524	624	
7	0	0	0	0	524	624	
8	0	0	0	0	526	628	
9	0	0	0	0	526	624	
10	0	0	0	0	527	623	
11	0	0	0	0	527	623	
12	0	0	0	0	527	618	
13	0	0	0	0	527	622	
14	0	0	0	0	526	622	
15	0	0	0	0	526	622	
0	0	0	0	0	526	626	
1	0	0	0	0	526	622	
2	0	0	0	0	525	621	
3	0	0	0	0	525	621	
4	0	0	0	0	524	616	
5	0	0	0	0	524	621	
6	0	0	0	0	524	621	
7	0	0	0	0	524	621	
8	0	0	0	0	524	624	
9	0	0	0	0	524	620	
10	0	0	0	0	524	620	
11	0	0	0	0	524	620	
12	0	0	0	0	524	615	
13	0	0	0	0	524	620	
14	0	0	0	0	525	620	
15	0	0	0	0	525	619	
0	0	0	0	0	526	624	
1	0	0	0	0	527	619	
2	0	0	0	0	527	619	
3	0	0	0	0	526	619	
4	0	0	0	0	525	615	
5	0	0	0	0	525	619	
6	0	0	0	0	525	619	
7	0	0	0	0	525	619	
8	0	0	0	0	524	624	
9	0	0	0	0	525	619	
10	0	0	0	0	525	619	
11	0	0	0	0	524	619	
12	0	0	0	0	524	615	
13	0	0	0	0	525	619	
14	0	0	0	0	526	620	
15	0	0	0	0	527	620	
0	0	0	0	0	526	624	
1	0	0	0	0	526	620	
2	0	0	0	0	527	620	
3	0	0	0	0	527	620	
4	0	0	0	0	527	615	
5	0	0	0	0	527	620	
6	0	0	0	0	526	621	
7	0	0	0	0	526	620	
8	0	0	0	0	525	625	
9	0	0	0	0	524	621	
10	0	0	0	0	523	620	
11	0	0	0	0	523	620	
12	0	0	0	0	523	616	
13	0	0	0	0	522	620	
14	0	0	0	0	521	620	
15	0	0	0	0	521	620	
0	0	0	0	0	520	624	
1	0	0	0	0	520	620	
2	0	0	0	0	520	620	
3	0	0	0	0	520	620	
4	0	0	0	0	521	615	
5	0	0	0	0	521	620	
6	0	0	0	0	522	620	
7	0	0	0	0	522	620	
8	0	0	0	0	522	624	
9	0	0	0	0	522	620	
10	0	0	0	0	521	620	
11	0	0	0	0	521	620	
12	0	0	0	0	520	615	
13	0	0	0	0	519	620	
14	0	0	0	0	517	620	
15	0	0	0	0	513	620	
0	0	0	0	0	509	624	
1	0	0	0	0	505	620	
2	0	0	0	0	499	620	
3	0	0	0	0	493	620	
4	0	0	0	0	486	615	
5	0	0	0	0	480	620	
6	0	0	0	0	474	620	
7	0	0	0	0	466	620	
8	0	0	0	0	457	624	
9	0	0	0	0	449	620	
10	0	0	0	0	441	620	
11	0	0	0	0	435	620	
12	0	0	0	0	430	615	
13	0	0	0	0	425	620	
14	0	0	0	0	419	620	
15	0	0	0	0	412	621	
0	0	0	0	0	406	625	
1	0	0	0	0	401	621	
2	0	0	0	0	396	622	
3	0	0	0	0	392	621	
4	0	0	0	0	387	617	
5	0	0	0	0	386	622	
6	0	0	0	0	388	622	
7	0	0	0	0	393	622	
8	0	0	0	0	401	627	
9	0	0	0	0	416	623	
10	0	0	0	0	438	623	
11	0	0	0	0	464	623	
12	0	0	0	0	495	619	
13	0	0	0	0	528	623	
14	0	0	0	0	561	624	
15	0	0	0	0	591	624	
0	0	0	0	0	620	628	
1	0	0	0	0	655	624	
2	0	0	0	0	687	624	
3	0	0	0	0	714	624	
4	0	0	0	0	740	620	
5	0	0	0	0	765	625	
6	0	0	0	0	784	625	
7	0	0	0	0	795	625	
8	0	0	0	0	806	628	
9	0	0	0	0	820	624	
10	0	0	0	0	839	624	
11	0	0	0	0	857	625	
12	0	0	0	0	875	620	
13	0	0	0	0	899	624	
14	0	0	0	0	912	624	
15	0	0	0	0	911	625	
0	0	0	0	0	899	629	
1	0	0	0	0	883	624	
2	0	0	0	0	863	624	
3	0	0	0	0	840	624	
4	0	0	0	0	817	620	
5	0	0	0	0	792	625	
6	0	0	0	0	768	624	
7	0	0	0	0	745	624	
8	0	0	0	0	722	628	
9	0	0	0	0	702	623	
10	0	0	0	0	681	624	
11	0	0	0	0	659	623	
12	0	0	0	0	639	619	
13	0	0	0	0	620	624	
14	0	0	0	0	602	623	
15	0	0	0	0	585	623	
0	0	0	0	0	570	628	
1	0	0	0	0	558	624	
2	0	0	0	0	546	623	
3	0	0	0	0	537	623	
4	0	0	0	0	528	618	
5	0	0	0	0	520	623	
6	0	0	0	0	513	622	
7	0	0	0	0	506	622	
8	0	0	0	0	499	626	
9	0	0	0	0	492	622	
10	0	0	0	0	486	622	
11	0	0	0	0	481	621	
12	0	0	0	0	476	617	
13	0	0	0	0	471	621	
14	0	0	0	0	465	621	
15	0	0	0	0	461	621	
0	0	0	0	0	456	625	
1	0	0	0	0	451	620	
2	0	0	0	0	447	620	
3	0	0	0	0	444	620	
4	0	0	0	0	440	615	
5	0	0	0	0	439	620	
6	0	0	0	0	438	620	
7	0	0	0	0	436	620	
8	0	0	0	0	436	624	
9	0	0	0	0	436	619	
10	0	0	0	0	435	619	
11	0	0	0	0	435	619	
12	0	0	0	0	434	615	
13	0	0	0	0	433	619	
14	0	0	0	0	433	619	
15	0	0	0	0	433	619	
0	0	0	0	0	432	623	
1	0	0	0	0	432	618	
2	0	0	0	0	431	619	
3	0	0	0	0	430	618	
4	0	0	0	0	429	614	
5	0	0	0	0	428	618	
6	0	0	0	0	427	618	
7	0	0	0	0	427	618	
8	0	0	0	0	427	622	
9	0	0	0	0	428	618	
10	0	0	0	0	429	618	
11	0	0	0	0	430	618	
12	0	0	0	0	430	613	
13	0	0	0	0	431	618	
14	0	0	0	0	432	619	
15	0	0	0	0	432	619	
0	0	0	0	0	433	623	
1	0	0	0	0	434	619	
2	0	0	0	0	435	619	
3	0	0	0	0	435	619	
4	0	0	0	0	435	615	
5	0	0	0	0	435	619	
6	0	0	0	0	436	620	
7	0	0	0	0	436	620	
8	0	0	0	0	437	624	
9	0	0	0	0	437	620	
10	0	0	0	0	437	620	
11	0	0	0	0	437	620	
12	0	0	0	0	438	615	
13	0	0	0	0	437	619	
14	0	0	0	0	438	620	
15	0	0	0	0	439	620	
0	0	0	0	0	440	624	
1	0	0	0	0	439	620	
2	0	0	0	0	438	621	
3	0	0	0	0	438	620	
4	0	0	0	0	438	615	
5	0	0	0	0	438	620	
6	0	0	0	0	439	621	
7	0	0	0	0	439	621	
8	0	0	0	0	440	625	
9	0	0	0	0	440	621	
10	0	0	0	0	441	622	
11	0	0	0	0	441	621	
12	0	0	0	0	443	617	
13	0	0	0	0	443	621	
14	0	0	0	0	444	622	
15	0	0	0	0	443	622	
0	0	0	0	0	443	626	
1	0	0	0	0	443	622	
2	0	0	0	0	442	622	
3	0	0	0	0	442	623	
4	0	0	0	0	441	619	
5	0	0	0	0	441	624	
6	0	0	0	0	442	624	
7	0	0	0	0	442	624	
8	0	0	0	0	442	628	
9	0	0	0	0	443	624	
10	0	0	0	0	443	624	
11	0	0	0	0	445	624	
12	0	0	0	0	444	620	
13	0	0	0	0	444	624	
14	0	0	0	0	443	624	
15	0	0	0	0	443	624	
0	0	0	0	0	443	628	
1	0	0	0	0	443	624	
2	0	0	0	0	443	624	
3	0	0	0	0	443	624	
4	0	0	0	0	443	619	
5	0	0	0	0	443	624	
6	0	0	0	0	443	624	
7	0	0	0	0	444	623	
8	0	0	0	0	445	628	
9	0	0	0	0	445	623	
10	0	0	0	0	445	623	
11	0	0	0	0	445	623	
12	0	0	0	0	446	619	
13	0	0	0	0	446	623	
14	0	0	0	0	446	623	
15	0	0	0	0	447	623	
0	0	0	0	0	447	627	
1	0	0	0	0	447	623	
2	0	0	0	0	447	622	
3	0	0	0	0	446	622	
4	0	0	0	0	446	618	
5	0	0	0	0	445	622	
6	0	0	0	0	444	623	
7	0	0	0	0	444	623	
8	0	0	0	0	443	627	
9	0	0	0	0	443	622	
10	0	0	0	0	442	623	
11	0	0	0	0	443	623	
12	0	0	0	0	444	618	
13	0	0	0	0	444	623	
14	0	0	0	0	445	623	
15	0	0	0	0	446	623	
0	0	0	0	0	447	627	
1	0	0	0	0	448	623	
2	0	0	0	0	448	623	
3	0	0	0	0	448	623	
4	0	0	0	0	448	619	
5	0	0	0	0	449	623	
6	0	0	0	0	448	623	
7	0	0	0	0	448	623	
8	0	0	0	0	447	626	
9	0	0	0	0	447	622	
10	0	0	0	0	446	623	
11	0	0	0	0	446	622	
12	0	0	0	0	446	617	
13	0	0	0	0	446	622	
14	0	0	0	0	446	622	
15	0	0	0	0	447	622	
0	0	0	0	0	448	625	
1	0	0	0	0	448	622	
2	0	0	0	0	449	622	
3	0	0	0	0	451	622	
4	0	0	0	0	451	616	
5	0	0	0	0	451	621	
6	0	0	0	0	452	621	
7	0	0	0	0	454	621	
8	0	0	0	0	455	625	
9	0	0	0	0	457	621	
10	0	0	0	0	458	620	
11	0	0	0	0	460	620	
12	0	0	0	0	461	616	
13	0	0	0	0	460	621	
14	0	0	0	0	462	620	
15	0	0	0	0	463	620	
0	0	0	0	0	463	624	
1	0	0	0	0	463	620	
2	0	0	0	0	464	619	
3	0	0	0	0	465	619	
4	0	0	0	0	465	614	
5	0	0	0	0	467	619	
6	0	0	0	0	468	619	
7	0	0	0	0	469	619	
8	0	0	0	0	471	624	
9	0	0	0	0	474	619	
10	0	0	0	0	476	619	
11	0	0	0	0	478	619	
12	0	0	0	0	480	614	
13	0	0	0	0	481	620	
14	0	0	0	0	483	619	
15	0	0	0	0	484	620	
0	0	0	0	0	485	624	
1	0	0	0	0	487	620	
2	0	0	0	0	487	620	
3	0	0	0	0	487	620	
4	0	0	0	0	489	615	
5	0	0	0	0	491	620	
6	0	0	0	0	493	621	
7	0	0	0	0	495	621	
8	0	0	0	0	497	625	
9	0	0	0	0	500	621	
10	0	0	0	0	503	622	
11	0	0	0	0	504	621	
12	0	0	0	0	506	617	
13	0	0	0	0	508	622	
14	0	0	0	0	510	621	
15	0	0	0	0	512	621	
0	0	0	0	0	513	626	
1	0	0	0	0	515	622	
2	0	0	0	0	515	622	
3	0	0	0	0	517	621	
4	0	0	0	0	518	617	
5	0	0	0	0	519	622	
6	0	0	0	0	520	622	
7	0	0	0	0	521	622	
8	0	0	0	0	523	626	
9	0	0	0	0	525	622	
10	0	0	0	0	527	622	
11	0	0	0	0	528	622	
12	0	0	0	0	529	617	
13	0	0	0	0	531	622	
14	0	0	0	0	532	622	
15	0	0	0	0	533	622	
0	0	0	0	0	534	626	
1	0	0	0	0	535	622	
2	0	0	0	0	536	622	
3	0	0	0	0	537	622	
4	0	0	0	0	538	617	
5	0	0	0	0	539	622	
6	0	0	0	0	540	622	
7	0	0	0	0	540	622	
8	0	0	0	0	541	626	
9	0	0	0	0	541	622	
10	0	0	0	0	543	622	
11	0	0	0	0	543	622	
12	0	0	0	0	545	617	
13	0	0	0	0	547	622	
14	0	0	0	0	548	622	
15	0	0	0	0	548	623	
0	0	0	0	0	549	627	
1	0	0	0	0	550	623	
2	0	0	0	0	550	622	
3	0	0	0	0	551	622	
4	0	0	0	0	552	617	
5	0	0	0	0	552	622	
6	0	0	0	0	553	622	
7	0	0	0	0	553	622	
8	0	0	0	0	554	626	
9	0	0	0	0	553	622	
10	0	0	0	0	553	622	
11	0	0	0	0	553	622	
12	0	0	0	0	553	617	
13	0	0	0	0	552	622	
14	0	0	0	0	553	622	
15	0	0	0	0	553	622	
0	0	0	0	0	553	626	
1	0	0	0	0	555	622	
2	0	0	0	0	555	622	
3	0	0	0	0	555	622	
4	0	0	0	0	555	616	
5	0	0	0	0	555	622	
6	0	0	0	0	555	622	
7	0	0	0	0	555	622	
8	0	0	0	0	555	626	
9	0	0	0	0	555	621	
10	0	0	0	0	555	621	
11	0	0	0	0	555	621	
12	0	0	0	0	554	616	
13	0	0	0	0	553	621	
14	0	0	0	0	553	621	
15	0	0	0	0	552	621	
0	0	0	0	0	552	625	
1	0	0	0	0	552	621	
2	0	0	0	0	552	621	
3	0	0	0	0	553	620	
4	0	0	0	0	553	615	
5	0	0	0	0	553	620	
6	0	0	0	0	553	620	
7	0	0	0	0	553	620	
8	0	0	0	0	554	624	
9	0	0	0	0	554	620	
10	0	0	0	0	554	619	
11	0	0	0	0	554	619	
12	0	0	0	0	554	615	
13	0	0	0	0	554	619	
14	0	0	0	0	553	620	
15	0	0	0	0	553	620	
0	0	0	0	0	551	624	
1	0	0	0	0	550	621	
2	0	0	0	0	549	621	
3	0	0	0	0	548	621	
4	0	0	0	0	548	615	
5	0	0	0	0	547	620	
6	0	0	0	0	547	620	
7	0	0	0	0	547	622	
8	0	0	0	0	545	625	
9	0	0	0	0	545	622	
10	0	0	0	0	545	622	
11	0	0	0	0	546	622	
12	0	0	0	0	547	617	
13	0	0	0	0	547	622	
14	0	0	0	0	547	622	
15	0	0	0	0	547	623	
0	0	0	0	0	547	627	
1	0	0	0	0	546	623	
2	0	0	0	0	545	623	
3	0	0	0	0	544	623	
4	0	0	0	0	543	619	
5	0	0	0	0	542	623	
6	0	0	0	0	540	623	
7	0	0	0	0	539	623	
8	0	0	0	0	538	628	
9	0	0	0	0	537	623	
10	0	0	0	0	537	624	
11	0	0	0	0	536	623	
12	0	0	0	0	535	618	
13	0	0	0	0	535	623	
14	0	0	0	0	535	623	
15	0	0	0	0	535	623	
0	0	0	0	0	535	627	
1	0	0	0	0	534	623	
2	0	0	0	0	534	622	
3	0	0	0	0	534	622	
4	0	0	0	0	533	617	
5	0	0	0	0	533	622	
6	0	0	0	0	534	622	
7	0	0	0	0	533	622	
8	0	0	0	0	534	626	
9	0	0	0	0	533	622	
10	0	0	0	0	533	623	
11	0	0	0	0	532	622	
12	0	0	0	0	532	618	
13	0	0	0	0	531	622	
14	0	0	0	0	530	622	
15	0	0	0	0	530	622	
0	0	0	0	0	529	626	
1	0	0	0	0	529	621	
2	0	0	0	0	529	621	
3	0	0	0	0	529	621	
4	0	0	0	0	529	616	
5	0	0	0	0	529	622	
6	0	0	0	0	529	622	
7	0	0	0	0	529	621	
8	0	0	0	0	529	625	
9	0	0	0	0	530	621	
10	0	0	0	0	530	621	
11	0	0	0	0	530	621	
12	0	0	0	0	529	616	
13	0	0	0	0	529	621	
14	0	0	0	0	528	620	
15	0	0	0	0	527	621	
0	0	0	0	0	526	625	
1	0	0	0	0	526	620	
2	0	0	0	0	525	622	
3	0	0	0	0	524	622	
4	0	0	0	0	524	616	
5	0	0	0	0	525	621	
6	0	0	0	0	525	620	
7	0	0	0	0	526	621	
8	0	0	0	0	526	625	
9	0	0	0	0	528	620	
10	0	0	0	0	528	620	
11	0	0	0	0	528	620	
12	0	0	0	0	530	616	
13	0	0	0	0	532	620	
14	0	0	0	0	533	620	
15	0	0	0	0	532	620	
0	0	0	0	0	532	624	
1	0	0	0	0	531	620	
2	0	0	0	0	530	620	
3	0	0	0	0	529	620	
4	0	0	0	0	528	615	
5	0	0	0	0	527	620	
6	0	0	0	0	526	620	
7	0	0	0	0	524	620	
8	0	0	0	0	522	624	
9	0	0	0	0	521	620	
10	0	0	0	0	520	620	
11	0	0	0	0	519	620	
12	0	0	0	0	519	615	
13	0	0	0	0	520	620	
14	0	0	0	0	521	621	
15	0	0	0	0	522	620	
0	0	0	0	0	523	624	
1	0	0	0	0	522	620	
2	0	0	0	0	522	620	
3	0	0	0	0	522	620	
4	0	0	0	0	522	615	
5	0	0	0	0	521	620	
6	0	0	0	0	521	620	
7	0	0	0	0	519	620	
8	0	0	0	0	519	624	
9	0	0	0	0	518	620	
10	0	0	0	0	517	619	
11	0	0	0	0	517	620	
12	0	0	0	0	516	614	
13	0	0	0	0	517	620	
14	0	0	0	0	517	620	
15	0	0	0	0	517	620	
0	0	0	0	0	516	624	
1	0	0	0	0	517	619	
2	0	0	0	0	516	620	
3	0	0	0	0	516	619	
4	0	0	0	0	516	615	
5	0	0	0	0	516	620	
6	0	0	0	0	515	620	
7	0	0	0	0	515	620	
8	0	0	0	0	515	624	
9	0	0	0	0	515	620	
10	0	0	0	0	515	620	
11	0	0	0	0	514	620	
12	0	0	0	0	514	615	
13	0	0	0	0	513	619	
14	0	0	0	0	514	620	
15	0	0	0	0	515	620	
0	0	0	0	0	516	624	
1	0	0	0	0	518	620	
2	0	0	0	0	519	621	
3	0	0	0	0	520	620	
4	0	0	0	0	522	616	
5	0	0	0	0	523	620	
6	0	0	0	0	523	620	
7	0	0	0	0	523	621	
8	0	0	0	0	524	625	
9	0	0	0	0	524	621	
10	0	0	0	0	524	621	
11	0	0	0	0	524	621	
12	0	0	0	0	524	616	
13	0	0	0	0	523	621	
14	0	0	0	0	523	620	
15	0	0	0	0	523	620	
0	0	0	0	0	523	625	
1	0	0	0	0	523	621	
2	0	0	0	0	523	620	
3	0	0	0	0	523	620	
4	0	0	0	0	523	616	
5	0	0	0	0	523	621	
6	0	0	0	0	524	621	
7	0	0	0	0	524	621	
8	0	0	0	0	524	625	
9	0	0	0	0	525	621	
10	0	0	0	0	527	621	
11	0	0	0	0	527	621	
12	0	0	0	0	527	616	
13	0	0	0	0	528	621	
14	0	0	0	0	528	621	
15	0	0	0	0	528	622	
0	0	0	0	0	528	625	
1	0	0	0	0	528	621	
2	0	0	0	0	527	622	
3	0	0	0	0	526	621	
4	0	0	0	0	525	617	
5	0	0	0	0	525	622	
6	0	0	0	0	525	622	
7	0	0	0	0	524	622	
8	0	0	0	0	524	626	
9	0	0	0	0	524	623	
10	0	0	0	0	524	623	
11	0	0	0	0	524	622	
12	0	0	0	0	524	617	
13	0	0	0	0	524	623	
14	0	0	0	0	524	623	
15	0	0	0	0	525	623	
0	0	0	0	0	525	627	
1	0	0	0	0	527	623	
2	0	0	0	0	528	623	
3	0	0	0	0	529	623	
4	0	0	0	0	529	618	
5	0	0	0	0	530	623	
6	0	0	0	0	530	623	
7	0	0	0	0	529	623	
8	0	0	0	0	529	627	
9	0	0	0	0	528	623	
10	0	0	0	0	527	623	
11	0	0	0	0	526	624	
12	0	0	0	0	527	618	
13	0	0	0	0	526	623	
14	0	0	0	0	526	623	
15	0	0	0	0	526	624	
0	0	0	0	0	525	627	
1	0	0	0	0	525	623	
2	0	0	0	0	525	622	
3	0	0	0	0	524	622	
4	0	0	0	0	524	618	
5	0	0	0	0	524	622	
6	0	0	0	0	524	623	
7	0	0	0	0	525	623	
8	0	0	0	0	525	626	
9	0	0	0	0	524	622	
10	0	0	0	0	523	622	
11	0	0	0	0	523	622	
12	0	0	0	0	521	616	
13	0	0	0	0	521	622	
14	0	0	0	0	520	622	
15	0	0	0	0	520	622	
0	0	0	0	0	519	625	
1	0	0	0	0	519	622	
2	0	0	0	0	519	621	
3	0	0	0	0	518	621	
4	0	0	0	0	517	616	
5	0	0	0	0	516	621	
6	0	0	0	0	515	621	
7	0	0	0	0	512	621	
8	0	0	0	0	509	624	
9	0	0	0	0	505	620	
10	0	0	0	0	500	620	
11	0	0	0	0	495	621	
12	0	0	0	0	490	615	
13	0	0	0	0	483	620	
14	0	0	0	0	477	620	
15	0	0	0	0	468	621	
0	0	0	0	0	459	625	
1	0	0	0	0	449	620	
2	0	0	0	0	440	621	
3	0	0	0	0	432	620	
4	0	0	0	0	426	615	
5	0	0	0	0	421	621	
6	0	0	0	0	415	620	
7	0	0	0	0	408	620	
8	0	0	0	0	403	625	
9	0	0	0	0	398	620	
10	0	0	0	0	395	621	
11	0	0	0	0	391	620	
12	0	0	0	0	389	616	
13	0	0	0	0	391	621	
14	0	0	0	0	396	621	
15	0	0	0	0	401	622	
0	0	0	0	0	410	625	
1	0	0	0	0	426	621	
2	0	0	0	0	446	621	
3	0	0	0	0	470	621	
4	0	0	0	0	499	616	
5	0	0	0	0	531	621	
6	0	0	0	0	561	621	
7	0	0	0	0	587	621	
8	0	0	0	0	615	625	
9	0	0	0	0	647	621	
10	0	0	0	0	681	621	
11	0	0	0	0	711	621	
12	0	0	0	0	740	616	
13	0	0	0	0	768	621	
14	0	0	0	0	790	621	
15	0	0	0	0	805	621	
0	0	0	0	0	819	625	
1	0	0	0	0	836	621	
2	0	0	0	0	856	621	
3	0	0	0	0	873	621	
4	0	0	0	0	893	616	
5	0	0	0	0	916	621	
6	0	0	0	0	930	622	
7	0	0	0	0	927	621	
8	0	0	0	0	912	626	
9	0	0	0	0	893	621	
10	0	0	0	0	870	621	
11	0	0	0	0	846	621	
12	0	0	0	0	822	618	
13	0	0	0	0	797	622	
14	0	0	0	0	772	622	
15	0	0	0	0	749	623	
0	0	0	0	0	726	626	
1	0	0	0	0	704	622	
2	0	0	0	0	683	622	
3	0	0	0	0	662	622	
4	0	0	0	0	641	618	
5	0	0	0	0	622	623	
6	0	0	0	0	604	623	
7	0	0	0	0	587	624	
8	0	0	0	0	570	627	
9	0	0	0	0	555	623	
10	0	0	0	0	542	623	
11	0	0	0	0	529	623	
12	0	0	0	0	518	619	
13	0	0	0	0	509	623	
14	0	0	0	0	500	623	
15	0	0	0	0	493	623	
0	0	0	0	0	486	627	
1	0	0	0	0	479	623	
2	0	0	0	0	473	623	
3	0	0	0	0	468	623	
4	0	0	0	0	463	618	
5	0	0	0	0	459	623	
6	0	0	0	0	455	623	
7	0	0	0	0	451	623	
8	0	0	0	0	447	627	
9	0	0	0	0	444	622	
10	0	0	0	0	441	623	
11	0	0	0	0	439	623	
12	0	0	0	0	436	617	
13	0	0	0	0	434	623	
14	0	0	0	0	432	622	
15	0	0	0	0	430	622	
0	0	0	0	0	427	627	
1	0	0	0	0	425	622	
2	0	0	0	0	423	622	
3	0	0	0	0	421	622	
4	0	0	0	0	419	617	
5	0	0	0	0	418	622	
6	0	0	0	0	418	622	
7	0	0	0	0	419	622	
8	0	0	0	0	419	626	
9	0	0	0	0	421	622	
10	0	0	0	0	423	622	
11	0	0	0	0	425	622	
12	0	0	0	0	425	617	
13	0	0	0	0	426	622	
14	0	0	0	0	427	622	
15	0	0	0	0	428	622	
0	0	0	0	0	429	625	
1	0	0	0	0	428	622	
2	0	0	0	0	428	621	
3	0	0	0	0	428	621	
4	0	0	0	0	428	616	
5	0	0	0	0	428	622	
6	0	0	0	0	427	622	
7	0	0	0	0	427	621	
8	0	0	0	0	427	625	
9	0	0	0	0	427	622	
10	0	0	0	0	428	622	
11	0	0	0	0	428	622	
12	0	0	0	0	428	616	
13	0	0	0	0	428	621	
14	0	0	0	0	430	621	
15	0	0	0	0	431	621	
0	0	0	0	0	432	625	
1	0	0	0	0	432	621	
2	0	0	0	0	432	621	
3	0	0	0	0	433	620	
4	0	0	0	0	433	616	
5	0	0	0	0	433	621	
6	0	0	0	0	434	621	
7	0	0	0	0	434	621	
8	0	0	0	0	435	625	
9	0	0	0	0	435	621	
10	0	0	0	0	435	621	
11	0	0	0	0	435	621	
12	0	0	0	0	435	616	
13	0	0	0	0	437	621	
14	0	0	0	0	437	621	
15	0	0	0	0	437	622	
0	0	0	0	0	438	625	
1	0	0	0	0	438	622	
2	0	0	0	0	439	622	
3	0	0	0	0	440	621	
4	0	0	0	0	441	616	
5	0	0	0	0	442	622	
6	0	0	0	0	442	621	
7	0	0	0	0	442	622	
8	0	0	0	0	443	625	
9	0	0	0	0	442	621	
10	0	0	0	0	443	620	
11	0	0	0	0	443	621	
12	0	0	0	0	443	616	
13	0	0	0	0	442	621	
14	0	0	0	0	441	621	
15	0	0	0	0	441	621	
0	0	0	0	0	441	625	
1	0	0	0	0	441	621	
2	0	0	0	0	441	621	
3	0	0	0	0	443	621	
4	0	0	0	0	444	616	
5	0	0	0	0	444	621	
6	0	0	0	0	445	620	
7	0	0	0	0	446	620	
8	0	0	0	0	447	625	
9	0	0	0	0	447	621	
10	0	0	0	0	447	621	
11	0	0	0	0	447	620	
12	0	0	0	0	447	616	
13	0	0	0	0	447	620	
14	0	0	0	0	447	620	
15	0	0	0	0	446	621	
0	0	0	0	0	445	625	
1	0	0	0	0	445	621	
2	0	0	0	0	444	621	
3	0	0	0	0	445	621	
4	0	0	0	0	446	616	
5	0	0	0	0	446	622	
6	0	0	0	0	446	621	
7	0	0	0	0	447	622	
8	0	0	0	0	448	627	
9	0	0	0	0	449	622	
10	0	0	0	0	450	622	
11	0	0	0	0	451	622	
12	0	0	0	0	451	617	
13	0	0	0	0	450	622	
14	0	0	0	0	449	622	
15	0	0	0	0	449	623	
0	0	0	0	0	448	627	
1	0	0	0	0	447	622	
2	0	0	0	0	445	622	
3	0	0	0	0	444	622	
4	0	0	0	0	443	617	
5	0	0	0	0	443	622	
6	0	0	0	0	444	622	
7	0	0	0	0	444	622	
8	0	0	0	0	444	627	
9	0	0	0	0	446	622	
10	0	0	0	0	446	623	
11	0	0	0	0	447	622	
12	0	0	0	0	447	618	
13	0	0	0	0	447	622	
14	0	0	0	0	448	622	
15	0	0	0	0	448	623	
0	0	0	0	0	448	626	
1	0	0	0	0	448	622	
2	0	0	0	0	448	622	
3	0	0	0	0	448	622	
4	0	0	0	0	448	617	
5	0	0	0	0	448	622	
6	0	0	0	0	448	622	
7	0	0	0	0	448	622	
8	0	0	0	0	448	626	
9	0	0	0	0	448	621	
10	0	0	0	0	448	621	
11	0	0	0	0	448	621	
12	0	0	0	0	449	617	
13	0	0	0	0	451	621	
14	0	0	0	0	452	621	
15	0	0	0	0	453	622	
0	0	0	0	0	454	625	
1	0	0	0	0	455	622	
2	0	0	0	0	456	621	
3	0	0	0	0	457	620	
4	0	0	0	0	458	616	
5	0	0	0	0	459	621	
6	0	0	0	0	460	621	
7	0	0	0	0	460	621	
8	0	0	0	0	461	625	
9	0	0	0	0	462	621	
10	0	0	0	0	463	621	
11	0	0	0	0	463	621	
12	0	0	0	0	464	616	
13	0	0	0	0	465	620	
14	0	0	0	0	467	620	
15	0	0	0	0	467	621	
0	0	0	0	0	468	625	
1	0	0	0	0	471	620	
2	0	0	0	0	472	620	
3	0	0	0	0	475	620	
4	0	0	0	0	477	615	
5	0	0	0	0	480	621	
6	0	0	0	0	482	622	
7	0	0	0	0	484	622	
8	0	0	0	0	486	626	
9	0	0	0	0	488	621	
10	0	0	0	0	489	622	
11	0	0	0	0	491	622	
12	0	0	0	0	492	616	
13	0	0	0	0	494	621	
14	0	0	0	0	494	622	
15	0	0	0	0	495	621	
0	0	0	0	0	495	626	
1	0	0	0	0	495	621	
2	0	0	0	0	495	622	
3	0	0	0	0	496	622	
4	0	0	0	0	498	617	
5	0	0	0	0	500	622	
6	0	0	0	0	503	622	
7	0	0	0	0	505	623	
8	0	0	0	0	509	627	
9	0	0	0	0	511	623	
10	0	0	0	0	514	623	
11	0	0	0	0	517	623	
12	0	0	0	0	519	617	
13	0	0	0	0	521	622	
14	0	0	0	0	523	623	
15	0	0	0	0	524	623	
0	0	0	0	0	525	627	
1	0	0	0	0	527	623	
2	0	0	0	0	527	623	
3	0	0	0	0	528	622	
4	0	0	0	0	529	618	
5	0	0	0	0	531	622	
6	0	0	0	0	531	622	
7	0	0	0	0	533	622	
8	0	0	0	0	534	625	
9	0	0	0	0	535	622	
10	0	0	0	0	536	622	
11	0	0	0	0	537	622	
12	0	0	0	0	539	616	
13	0	0	0	0	540	622	
14	0	0	0	0	541	622	
15	0	0	0	0	543	621	
0	0	0	0	0	543	625	
1	0	0	0	0	545	620	
2	0	0	0	0	545	620	
3	0	0	0	0	547	620	
4	0	0	0	0	548	615	
5	0	0	0	0	549	620	
6	0	0	0	0	550	620	
7	0	0	0	0	551	620	
8	0	0	0	0	551	624	
9	0	0	0	0	552	619	
10	0	0	0	0	552	620	
11	0	0	0	0	552	619	
12	0	0	0	0	551	615	
13	0	0	0	0	551	620	
14	0	0	0	0	551	619	
15	0	0	0	0	551	619	
0	0	0	0	0	551	624	
1	0	0	0	0	551	619	
2	0	0	0	0	550	619	
3	0	0	0	0	551	619	
4	0	0	0	0	551	614	
5	0	0	0	0	552	619	
6	0	0	0	0	553	619	
7	0	0	0	0	555	620	
8	0	0	0	0	555	624	
9	0	0	0	0	555	619	
10	0	0	0	0	554	620	
11	0	0	0	0	553	620	
12	0	0	0	0	553	615	
13	0	0	0	0	552	620	
14	0	0	0	0	551	620	
15	0	0	0	0	551	620	
0	0	0	0	0	551	624	
1	0	0	0	0	551	620	
2	0	0	0	0	551	620	
3	0	0	0	0	551	620	
4	0	0	0	0	551	616	
5	0	0	0	0	551	620	
6	0	0	0	0	551	621	
7	0	0	0	0	551	622	
8	0	0	0	0	551	625	
9	0	0	0	0	551	621	
10	0	0	0	0	551	621	
11	0	0	0	0	551	621	
12	0	0	0	0	550	616	
13	0	0	0	0	550	622	
14	0	0	0	0	550	622	
15	0	0	0	0	548	622	
0	0	0	0	0	547	626	
1	0	0	0	0	546	621	
2	0	0	0	0	545	622	
3	0	0	0	0	544	622	
4	0	0	0	0	544	617	
5	0	0	0	0	544	622	
6	0	0	0	0	544	622	
7	0	0	0	0	543	623	
8	0	0	0	0	543	627	
9	0	0	0	0	543	623	
10	0	0	0	0	543	622	
11	0	0	0	0	543	623	
12	0	0	0	0	543	619	
13	0	0	0	0	543	623	
14	0	0	0	0	543	623	
15	0	0	0	0	543	623	
0	0	0	0	0	542	627	
1	0	0	0	0	542	623	
2	0	0	0	0	542	624	
3	0	0	0	0	541	623	
4	0	0	0	0	541	619	
5	0	0	0	0	540	624	
6	0	0	0	0	540	624	
7	0	0	0	0	540	624	
8	0	0	0	0	539	628	
9	0	0	0	0	538	624	
10	0	0	0	0	537	624	
11	0	0	0	0	537	624	
12	0	0	0	0	537	620	
13	0	0	0	0	537	624	
14	0	0	0	0	537	624	
15	0	0	0	0	538	624	
0	0	0	0	0	537	629	
1	0	0	0	0	538	624	
2	0	0	0	0	538	624	
3	0	0	0	0	537	624	
4	0	0	0	0	536	620	
5	0	0	0	0	535	624	
6	0	0	0	0	535	624	
7	0	0	0	0	534	624	
8	0	0	0	0	533	629	
9	0	0	0	0	533	624	
10	0	0	0	0	532	624	
11	0	0	0	0	532	624	
12	0	0	0	0	531	619	
13	0	0	0	0	532	624	
14	0	0	0	0	531	623	
15	0	0	0	0	532	624	
0	0	0	0	0	532	627	
1	0	0	0	0	532	623	
2	0	0	0	0	532	623	
3	0	0	0	0	533	622	
4	0	0	0	0	533	617	
5	0	0	0	0	533	622	
6	0	0	0	0	532	623	
7	0	0	0	0	532	622	
8	0	0	0	0	532	626	
9	0	0	0	0	531	622	
10	0	0	0	0	531	621	
11	0	0	0	0	530	621	
12	0	0	0	0	530	616	
13	0	0	0	0	530	621	
14	0	0	0	0	529	621	
15	0	0	0	0	528	621	
0	0	0	0	0	528	625	
1	0	0	0	0	529	621	
2	0	0	0	0	529	620	
3	0	0	0	0	528	620	
4	0	0	0	0	527	615	
5	0	0	0	0	526	620	
6	0	0	0	0	526	620	
7	0	0	0	0	527	620	
8	0	0	0	0	527	624	
9	0	0	0	0	529	620	
10	0	0	0	0	529	620	
11	0	0	0	0	529	620	
12	0	0	0	0	529	615	
13	0	0	0	0	528	620	
14	0	0	0	0	527	620	
15	0	0	0	0	527	620	
0	0	0	0	0	527	624	
1	0	0	0	0	526	619	
2	0	0	0	0	525	620	
3	0	0	0	0	524	619	
4	0	0	0	0	523	615	
5	0	0	0	0	523	620	
6	0	0	0	0	521	619	
7	0	0	0	0	519	619	
8	0	0	0	0	519	623	
9	0	0	0	0	519	619	
10	0	0	0	0	519	619	
11	0	0	0	0	520	619	
12	0	0	0	0	522	615	
13	0	0	0	0	524	619	
14	0	0	0	0	525	619	
15	0	0	0	0	525	620	
0	0	0	0	0	525	624	
1	0	0	0	0	525	620	
2	0	0	0	0	524	620	
3	0	0	0	0	523	619	
4	0	0	0	0	523	615	
5	0	0	0	0	523	620	
6	0	0	0	0	523	620	
7	0	0	0	0	522	621	
8	0	0	0	0	522	624	
9	0	0	0	0	522	620	
10	0	0	0	0	522	620	
11	0	0	0	0	522	620	
12	0	0	0	0	523	615	
13	0	0	0	0	522	620	
14	0	0	0	0	523	620	
15	0	0	0	0	523	621	
0	0	0	0	0	523	624	
1	0	0	0	0	523	621	
2	0	0	0	0	522	622	
3	0	0	0	0	522	621	
4	0	0	0	0	521	616	
5	0	0	0	0	520	622	
6	0	0	0	0	520	622	
7	0	0	0	0	519	622	
8	0	0	0	0	518	627	
9	0	0	0	0	516	622	
10	0	0	0	0	516	622	
11	0	0	0	0	515	623	
12	0	0	0	0	514	618	
13	0	0	0	0	514	623	
14	0	0	0	0	513	623	
15	0	0	0	0	513	623	
0	0	0	0	0	513	627	
1	0	0	0	0	513	623	
2	0	0	0	0	513	624	
3	0	0	0	0	514	623	
4	0	0	0	0	514	618	
5	0	0	0	0	515	623	
6	0	0	0	0	515	624	
7	0	0	0	0	514	624	
8	0	0	0	0	513	627	
9	0	0	0	0	513	623	
10	0	0	0	0	512	623	
11	0	0	0	0	511	623	
12	0	0	0	0	510	619	
13	0	0	0	0	510	624	
14	0	0	0	0	510	623	
15	0	0	0	0	510	624	
0	0	0	0	0	511	628	
1	0	0	0	0	513	623	
2	0	0	0	0	515	624	
3	0	0	0	0	517	623	
4	0	0	0	0	518	618	
5	0	0	0	0	519	623	
6	0	0	0	0	520	623	
7	0	0	0	0	521	624	
8	0	0	0	0	522	627	
9	0	0	0	0	523	623	
10	0	0	0	0	523	623	
11	0	0	0	0	523	623	
12	0	0	0	0	523	618	
13	0	0	0	0	521	623	
14	0	0	0	0	521	623	
15	0	0	0	0	520	623	
0	0	0	0	0	519	627	
1	0	0	0	0	519	623	
2	0	0	0	0	519	622	
3	0	0	0	0	518	623	
4	0	0	0	0	518	618	
5	0	0	0	0	517	623	
6	0	0	0	0	518	622	
7	0	0	0	0	519	622	
8	0	0	0	0	520	627	
9	0	0	0	0	521	622	
10	0	0	0	0	522	622	
11	0	0	0	0	523	622	
12	0	0	0	0	524	617	
13	0	0	0	0	525	622	
14	0	0	0	0	526	621	
15	0	0	0	0	526	621	
0	0	0	0	0	526	625	
1	0	0	0	0	527	621	
2	0	0	0	0	527	620	
3	0	0	0	0	526	621	
4	0	0	0	0	525	616	
5	0	0	0	0	523	621	
6	0	0	0	0	523	620	
7	0	0	0	0	521	619	
8	0	0	0	0	520	624	
9	0	0	0	0	520	620	
10	0	0	0	0	520	619	
11	0	0	0	0	521	620	
12	0	0	0	0	521	615	
13	0	0	0	0	522	620	
14	0	0	0	0	523	620	
15	0	0	0	0	524	620	
0	0	0	0	0	524	623	
1	0	0	0	0	524	619	
2	0	0	0	0	524	619	
3	0	0	0	0	524	620	
4	0	0	0	0	524	615	
5	0	0	0	0	524	620	
6	0	0	0	0	523	620	
7	0	0	0	0	523	620	
8	0	0	0	0	522	624	
9	0	0	0	0	521	619	
10	0	0	0	0	521	620	
11	0	0	0	0	520	620	
12	0	0	0	0	519	615	
13	0	0	0	0	519	621	
14	0	0	0	0	519	620	
15	0	0	0	0	520	620	
0	0	0	0	0	521	624	
1	0	0	0	0	520	621	
2	0	0	0	0	521	621	
3	0	0	0	0	521	620	
4	0	0	0	0	521	616	
5	0	0	0	0	522	621	
6	0	0	0	0	522	620	
7	0	0	0	0	521	622	
8	0	0	0	0	521	625	
9	0	0	0	0	520	620	
10	0	0	0	0	520	622	
11	0	0	0	0	520	622	
12	0	0	0	0	521	617	
13	0	0	0	0	521	622	
14	0	0	0	0	522	622	
15	0	0	0	0	521	622	
0	0	0	0	0	521	625	
1	0	0	0	0	522	622	
2	0	0	0	0	521	622	
3	0	0	0	0	520	622	
4	0	0	0	0	520	618	
5	0	0	0	0	519	623	
6	0	0	0	0	518	623	
7	0	0	0	0	515	624	
8	0	0	0	0	513	627	
9	0	0	0	0	511	623	
10	0	0	0	0	506	624	
11	0	0	0	0	502	624	
12	0	0	0	0	495	619	
13	0	0	0	0	490	624	
14	0	0	0	0	484	624	
15	0	0	0	0	478	624	
0	0	0	0	0	470	628	
1	0	0	0	0	461	623	
2	0	0	0	0	452	624	
3	0	0	0	0	444	624	
4	0	0	0	0	437	619	
5	0	0	0	0	430	624	
6	0	0	0	0	423	624	
7	0	0	0	0	416	624	
8	0	0	0	0	408	628	
9	0	0	0	0	402	624	
10	0	0	0	0	396	623	
11	0	0	0	0	391	623	
12	0	0	0	0	387	619	
13	0	0	0	0	386	623	
14	0	0	0	0	388	624	
15	0	0	0	0	392	624	
0	0	0	0	0	399	628	
1	0	0	0	0	409	623	
2	0	0	0	0	425	624	
3	0	0	0	0	444	623	
4	0	0	0	0	469	619	
5	0	0	0	0	497	624	
6	0	0	0	0	526	624	
7	0	0	0	0	554	624	
8	0	0	0	0	578	628	
9	0	0	0	0	603	623	
10	0	0	0	0	632	623	
11	0	0	0	0	668	623	
12	0	0	0	0	701	619	
13	0	0	0	0	732	623	
14	0	0	0	0	759	623	
15	0	0	0	0	781	623	
0	0	0	0	0	796	627	
1	0	0	0	0	808	622	
2	0	0	0	0	822	622	
3	0	0	0	0	844	622	
4	0	0	0	0	862	617	
5	0	0	0	0	885	622	
6	0	0	0	0	916	622	
7	0	0	0	0	942	622	
8	0	0	0	0	948	626	
9	0	0	0	0	938	622	
10	0	0	0	0	920	622	
11	0	0	0	0	897	621	
12	0	0	0	0	873	616	
13	0	0	0	0	851	622	
14	0	0	0	0	827	621	
15	0	0	0	0	803	622	
0	0	0	0	0	777	625	
1	0	0	0	0	752	621	
2	0	0	0	0	726	621	
3	0	0	0	0	701	620	
4	0	0	0	0	678	615	
5	0	0	0	0	656	621	
6	0	0	0	0	636	620	
7	0	0	0	0	616	620	
8	0	0	0	0	598	624	
9	0	0	0	0	580	620	
10	0	0	0	0	562	620	
11	0	0	0	0	546	620	
12	0	0	0	0	532	615	
13	0	0	0	0	519	620	
14	0	0	0	0	508	620	
15	0	0	0	0	498	620	
0	0	0	0	0	491	624	
1	0	0	0	0	484	620	
2	0	0	0	0	479	621	
3	0	0	0	0	474	621	
4	0	0	0	0	469	616	
5	0	0	0	0	464	621	
6	0	0	0	0	459	621	
7	0	0	0	0	455	621	
8	0	0	0	0	451	625	
9	0	0	0	0	447	621	
10	0	0	0	0	444	620	
11	0	0	0	0	441	621	
12	0	0	0	0	438	616	
13	0	0	0	0	436	621	
14	0	0	0	0	434	621	
15	0	0	0	0	432	621	
0	0	0	0	0	430	625	
1	0	0	0	0	429	621	
2	0	0	0	0	428	621	
3	0	0	0	0	427	621	
4	0	0	0	0	426	615	
5	0	0	0	0	426	620	
6	0	0	0	0	426	621	
7	0	0	0	0	426	621	
8	0	0	0	0	426	625	
9	0	0	0	0	425	620	
10	0	0	0	0	424	621	
11	0	0	0	0	425	621	
12	0	0	0	0	426	616	
13	0	0	0	0	426	621	
14	0	0	0	0	427	621	
15	0	0	0	0	428	621	
0	0	0	0	0	427	625	
1	0	0	0	0	427	622	
2	0	0	0	0	428	622	
3	0	0	0	0	427	621	
4	0	0	0	0	427	616	
5	0	0	0	0	427	620	
6	0	0	0	0	427	620	
7	0	0	0	0	427	621	
8	0	0	0	0	428	625	
9	0	0	0	0	428	620	
10	0	0	0	0	429	620	
11	0	0	0	0	430	620	
12	0	0	0	0	431	615	
13	0	0	0	0	431	621	
14	0	0	0	0	432	620	
15	0	0	0	0	433	621	
0	0	0	0	0	433	624	
1	0	0	0	0	435	620	
2	0	0	0	0	435	620	
3	0	0	0	0	436	620	
4	0	0	0	0	437	615	
5	0	0	0	0	437	620	
6	0	0	0	0	438	620	
7	0	0	0	0	438	621	
8	0	0	0	0	438	625	
9	0	0	0	0	440	621	
10	0	0	0	0	440	620	
11	0	0	0	0	440	620	
12	0	0	0	0	440	615	
13	0	0	0	0	441	620	
14	0	0	0	0	442	621	
15	0	0	0	0	442	621	
0	0	0	0	0	443	625	
1	0	0	0	0	444	621	
2	0	0	0	0	444	621	
3	0	0	0	0	444	622	
4	0	0	0	0	444	617	
5	0	0	0	0	444	622	
6	0	0	0	0	444	622	
7	0	0	0	0	444	622	
8	0	0	0	0	444	627	
9	0	0	0	0	443	622	
10	0	0	0	0	443	622	
11	0	0	0	0	442	622	
12	0	0	0	0	442	618	
13	0	0	0	0	443	623	
14	0	0	0	0	443	623	
15	0	0	0	0	443	623	
0	0	0	0	0	443	627	
1	0	0	0	0	444	623	
2	0	0	0	0	444	623	
3	0	0	0	0	445	622	
4	0	0	0	0	444	618	
5	0	0	0	0	444	622	
6	0	0	0	0	444	623	
7	0	0	0	0	445	623	
8	0	0	0	0	446	627	
9	0	0	0	0	447	622	
10	0	0	0	0	448	622	
11	0	0	0	0	448	623	
12	0	0	0	0	448	617	
13	0	0	0	0	449	622	
14	0	0	0	0	449	621	
15	0	0	0	0	448	621	
0	0	0	0	0	448	626	
1	0	0	0	0	446	621	
2	0	0	0	0	445	621	
3	0	0	0	0	444	621	
4	0	0	0	0	443	617	
5	0	0	0	0	443	621	
6	0	0	0	0	443	622	
7	0	0	0	0	444	622	
8	0	0	0	0	445	625	
9	0	0	0	0	447	621	
10	0	0	0	0	447	622	
11	0	0	0	0	447	621	
12	0	0	0	0	448	617	
13	0	0	0	0	448	621	
14	0	0	0	0	448	621	
15	0	0	0	0	448	622	
0	0	0	0	0	448	626	
1	0	0	0	0	447	621	
2	0	0	0	0	446	622	
3	0	0	0	0	445	621	
4	0	0	0	0	445	617	
5	0	0	0	0	444	622	
6	0	0	0	0	443	621	
7	0	0	0	0	443	622	
8	0	0	0	0	442	626	
9	0	0	0	0	443	622	
10	0	0	0	0	443	622	
11	0	0	0	0	444	622	
12	0	0	0	0	444	618	
13	0	0	0	0	445	622	
14	0	0	0	0	446	623	
15	0	0	0	0	447	622	
0	0	0	0	0	448	627	
1	0	0	0	0	448	622	
2	0	0	0	0	448	623	
3	0	0	0	0	449	622	
4	0	0	0	0	448	618	
5	0	0	0	0	449	623	
6	0	0	0	0	449	622	
7	0	0	0	0	448	622	
8	0	0	0	0	447	626	
9	0	0	0	0	446	622	
10	0	0	0	0	445	622	
11	0	0	0	0	445	622	
12	0	0	0	0	445	617	
13	0	0	0	0	447	621	
14	0	0	0	0	448	622	
15	0	0	0	0	449	622	
0	0	0	0	0	451	625	
1	0	0	0	0	451	621	
2	0	0	0	0	453	622	
3	0	0	0	0	454	622	
4	0	0	0	0	455	616	
5	0	0	0	0	457	622	
6	0	0	0	0	459	621	
7	0	0	0	0	460	622	
8	0	0	0	0	461	625	
9	0	0	0	0	462	621	
10	0	0	0	0	463	620	
11	0	0	0	0	464	620	
12	0	0	0	0	465	616	
13	0	0	0	0	465	620	
14	0	0	0	0	465	620	
15	0	0	0	0	467	621	
0	0	0	0	0	468	624	
1	0	0	0	0	470	620	
2	0	0	0	0	471	620	
3	0	0	0	0	473	620	
4	0	0	0	0	475	615	
5	0	0	0	0	476	620	
6	0	0	0	0	478	620	
7	0	0	0	0	479	619	
8	0	0	0	0	480	624	
9	0	0	0	0	481	619	
10	0	0	0	0	482	619	
11	0	0	0	0	482	619	
12	0	0	0	0	484	615	
13	0	0	0	0	486	620	
14	0	0	0	0	487	619	
15	0	0	0	0	488	620	
0	0	0	0	0	490	624	
1	0	0	0	0	492	620	
2	0	0	0	0	494	620	
3	0	0	0	0	495	619	
4	0	0	0	0	496	615	
5	0	0	0	0	497	620	
6	0	0	0	0	499	620	
7	0	0	0	0	501	620	
8	0	0	0	0	504	624	
9	0	0	0	0	507	619	
10	0	0	0	0	510	619	
11	0	0	0	0	512	620	
12	0	0	0	0	514	615	
13	0	0	0	0	517	620	
14	0	0	0	0	519	620	
15	0	0	0	0	520	620	
0	0	0	0	0	521	624	
1	0	0	0	0	523	620	
2	0	0	0	0	524	620	
3	0	0	0	0	525	620	
4	0	0	0	0	526	616	
5	0	0	0	0	527	620	
6	0	0	0	0	528	621	
7	0	0	0	0	528	621	
8	0	0	0	0	529	625	
9	0	0	0	0	531	622	
10	0	0	0	0	531	622	
11	0	0	0	0	532	622	
12	0	0	0	0	534	617	
13	0	0	0	0	535	622	
14	0	0	0	0	536	622	
15	0	0	0	0	538	622	
0	0	0	0	0	541	627	
1	0	0	0	0	543	622	
2	0	0	0	0	545	622	
3	0	0	0	0	547	622	
4	0	0	0	0	548	617	
5	0	0	0	0	549	622	
6	0	0	0	0	549	622	
7	0	0	0	0	549	622	
8	0	0	0	0	549	627	
9	0	0	0	0	549	622	
10	0	0	0	0	548	623	
11	0	0	0	0	547	623	
12	0	0	0	0	547	618	
13	0	0	0	0	547	624	
14	0	0	0	0	548	624	
15	0	0	0	0	549	624	
0	0	0	0	0	551	629	
1	0	0	0	0	552	624	
2	0	0	0	0	554	625	
3	0	0	0	0	555	625	
4	0	0	0	0	556	620	
5	0	0	0	0	557	625	
6	0	0	0	0	557	625	
7	0	0	0	0	558	626	
8	0	0	0	0	559	630	
9	0	0	0	0	559	625	
10	0	0	0	0	558	625	
11	0	0	0	0	558	625	
12	0	0	0	0	557	620	
13	0	0	0	0	557	625	
14	0	0	0	0	556	625	
15	0	0	0	0	556	625	
0	0	0	0	0	555	629	
1	0	0	0	0	555	624	
2	0	0	0	0	555	624	
3	0	0	0	0	556	624	
4	0	0	0	0	556	619	
5	0	0	0	0	555	623	
6	0	0	0	0	556	623	
7	0	0	0	0	556	624	
8	0	0	0	0	556	627	
9	0	0	0	0	557	622	
10	0	0	0	0	556	622	
11	0	0	0	0	557	622	
12	0	0	0	0	556	617	
13	0	0	0	0	555	621	
14	0	0	0	0	554	620	
15	0	0	0	0	553	620	
0	0	0	0	0	553	624	
1	0	0	0	0	552	620	
2	0	0	0	0	551	620	
3	0	0	0	0	551	620	
4	0	0	0	0	551	615	
5	0	0	0	0	552	619	
6	0	0	0	0	552	619	
7	0	0	0	0	552	619	
8	0	0	0	0	552	623	
9	0	0	0	0	552	618	
10	0	0	0	0	553	618	
11	0	0	0	0	553	617	
12	0	0	0	0	553	613	
13	0	0	0	0	552	617	
14	0	0	0	0	551	617	
15	0	0	0	0	551	618	
0	0	0	0	0	551	621	
1	0	0	0	0	550	617	
2	0	0	0	0	549	617	
3	0	0	0	0	547	616	
4	0	0	0	0	546	612	
5	0	0	0	0	544	617	
6	0	0	0	0	543	617	
7	0	0	0	0	542	617	
8	0	0	0	0	540	621	
9	0	0	0	0	539	617	
10	0	0	0	0	538	617	
11	0	0	0	0	538	617	
12	0	0	0	0	538	614	
13	0	0	0	0	539	618	
14	0	0	0	0	540	618	
15	0	0	0	0	541	619	
0	0	0	0	0	542	623	
1	0	0	0	0	542	618	
2	0	0	0	0	543	618	
3	0	0	0	0	543	619	
4	0	0	0	0	542	614	
5	0	0	0	0	543	619	
6	0	0	0	0	542	620	
7	0	0	0	0	542	620	
8	0	0	0	0	541	624	
9	0	0	0	0	541	620	
10	0	0	0	0	540	620	
11	0	0	0	0	540	620	
12	0	0	0	0	538	615	
13	0	0	0	0	537	620	
14	0	0	0	0	535	620	
15	0	0	0	0	533	621	
0	0	0	0	0	531	625	
1	0	0	0	0	531	620	
2	0	0	0	0	531	621	
3	0	0	0	0	531	620	
4	0	0	0	0	531	616	
5	0	0	0	0	532	621	
6	0	0	0	0	533	621	
7	0	0	0	0	533	621	
8	0	0	0	0	532	625	
9	0	0	0	0	531	621	
10	0	0	0	0	531	621	
11	0	0	0	0	531	621	
12	0	0	0	0	531	616	
13	0	0	0	0	531	621	
14	0	0	0	0	531	621	
15	0	0	0	0	531	621	
0	0	0	0	0	530	625	
1	0	0	0	0	531	621	
2	0	0	0	0	530	621	
3	0	0	0	0	531	622	
4	0	0	0	0	530	616	
5	0	0	0	0	530	622	
6	0	0	0	0	530	622	
7	0	0	0	0	530	622	
8	0	0	0	0	530	627	
9	0	0	0	0	530	622	
10	0	0	0	0	530	622	
11	0	0	0	0	530	622	
12	0	0	0	0	529	618	
13	0	0	0	0	529	623	
14	0	0	0	0	529	623	
15	0	0	0	0	529	623	
0	0	0	0	0	529	627	
1	0	0	0	0	528	623	
2	0	0	0	0	528	624	
3	0	0	0	0	528	624	
4	0	0	0	0	528	619	
5	0	0	0	0	528	624	
6	0	0	0	0	528	624	
7	0	0	0	0	529	624	
8	0	0	0	0	530	628	
9	0	0	0	0	531	624	
10	0	0	0	0	531	624	
11	0	0	0	0	531	624	
12	0	0	0	0	531	620	
13	0	0	0	0	531	624	
14	0	0	0	0	530	624	
15	0	0	0	0	529	625	
0	0	0	0	0	528	628	
1	0	0	0	0	527	624	
2	0	0	0	0	527	624	
3	0	0	0	0	526	625	
4	0	0	0	0	526	621	
5	0	0	0	0	525	625	
6	0	0	0	0	524	625	
7	0	0	0	0	523	625	
8	0	0	0	0	523	630	
9	0	0	0	0	523	624	
10	0	0	0	0	523	624	
11	0	0	0	0	524	624	
12	0	0	0	0	525	620	
13	0	0	0	0	525	624	
14	0	0	0	0	526	624	
15	0	0	0	0	527	625	
0	0	0	0	0	527	628	
1	0	0	0	0	528	625	
2	0	0	0	0	527	624	
3	0	0	0	0	528	624	
4	0	0	0	0	528	620	
5	0	0	0	0	528	624	
6	0	0	0	0	528	624	
7	0	0	0	0	527	624	
8	0	0	0	0	527	628	
9	0	0	0	0	526	624	
10	0	0	0	0	526	623	
11	0	0	0	0	525	623	
12	0	0	0	0	524	619	
13	0	0	0	0	524	624	
14	0	0	0	0	524	624	
15	0	0	0	0	524	624	
0	0	0	0	0	524	628	
1	0	0	0	0	524	623	
2	0	0	0	0	523	623	
3	0	0	0	0	523	623	
4	0	0	0	0	522	619	
5	0	0	0	0	521	623	
6	0	0	0	0	520	623	
7	0	0	0	0	519	624	
8	0	0	0	0	518	627	
9	0	0	0	0	517	624	
10	0	0	0	0	516	623	
11	0	0	0	0	515	623	
12	0	0	0	0	514	618	
13	0	0	0	0	514	624	
14	0	0	0	0	513	623	
15	0	0	0	0	512	623	
0	0	0	0	0	511	627	
1	0	0	0	0	511	623	
2	0	0	0	0	511	623	
3	0	0	0	0	512	622	
4	0	0	0	0	512	617	
5	0	0	0	0	512	623	
6	0	0	0	0	512	623	
7	0	0	0	0	513	622	
8	0	0	0	0	514	626	
9	0	0	0	0	514	622	
10	0	0	0	0	515	622	
11	0	0	0	0	516	622	
12	0	0	0	0	518	617	
13	0	0	0	0	519	622	
14	0	0	0	0	520	622	
15	0	0	0	0	521	621	
0	0	0	0	0	521	625	
1	0	0	0	0	522	620	
2	0	0	0	0	522	620	
3	0	0	0	0	522	620	
4	0	0	0	0	522	615	
5	0	0	0	0	523	620	
6	0	0	0	0	523	620	
7	0	0	0	0	523	620	
8	0	0	0	0	524	624	
9	0	0	0	0	524	620	
10	0	0	0	0	524	620	
11	0	0	0	0	524	619	
12	0	0	0	0	525	615	
13	0	0	0	0	525	620	
14	0	0	0	0	524	619	
15	0	0	0	0	524	620	
0	0	0	0	0	523	623	
1	0	0	0	0	523	620	
2	0	0	0	0	522	620	
3	0	0	0	0	521	620	
4	0	0	0	0	521	615	
5	0	0	0	0	521	620	
6	0	0	0	0	521	620	
7	0	0	0	0	521	620	
8	0	0	0	0	521	624	
9	0	0	0	0	522	620	
10	0	0	0	0	523	620	
11	0	0	0	0	524	620	
12	0	0	0	0	524	615	
13	0	0	0	0	526	620	
14	0	0	0	0	528	620	
15	0	0	0	0	528	620	
0	0	0	0	0	529	624	
1	0	0	0	0	529	621	
2	0	0	0	0	529	620	
3	0	0	0	0	529	620	
4	0	0	0	0	529	616	
5	0	0	0	0	528	621	
6	0	0	0	0	528	622	
7	0	0	0	0	527	622	
8	0	0	0	0	527	627	
9	0	0	0	0	527	622	
10	0	0	0	0	526	623	
11	0	0	0	0	526	622	
12	0	0	0	0	526	617	
13	0	0	0	0	526	623	
14	0	0	0	0	526	623	
15	0	0	0	0	526	624	
0	0	0	0	0	525	628	
1	0	0	0	0	525	623	
2	0	0	0	0	525	624	
3	0	0	0	0	526	624	
4	0	0	0	0	527	619	
5	0	0	0	0	527	624	
6	0	0	0	0	527	624	
7	0	0	0	0	528	625	
8	0	0	0	0	529	629	
9	0	0	0	0	529	625	
10	0	0	0	0	529	625	
11	0	0	0	0	529	625	
12	0	0	0	0	528	621	
13	0	0	0	0	527	625	
14	0	0	0	0	527	625	
15	0	0	0	0	527	626	
0	0	0	0	0	527	630	
1	0	0	0	0	527	626	
2	0	0	0	0	527	626	
3	0	0	0	0	527	626	
4	0	0	0	0	526	621	
5	0	0	0	0	526	626	
6	0	0	0	0	526	626	
7	0	0	0	0	526	626	
8	0	0	0	0	526	630	
9	0	0	0	0	526	625	
10	0	0	0	0	526	626	
11	0	0	0	0	526	625	
12	0	0	0	0	525	620	
13	0	0	0	0	524	625	
14	0	0	0	0	523	625	
15	0	0	0	0	520	625	
0	0	0	0	0	518	630	
1	0	0	0	0	515	625	
2	0	0	0	0	513	624	
3	0	0	0	0	509	624	
4	0	0	0	0	505	619	
5	0	0	0	0	502	624	
6	0	0	0	0	496	624	
7	0	0	0	0	492	624	
8	0	0	0	0	487	628	
9	0	0	0	0	481	623	
10	0	0	0	0	475	624	
11	0	0	0	0	468	624	
12	0	0	0	0	460	619	
13	0	0	0	0	453	623	
14	0	0	0	0	446	623	
15	0	0	0	0	439	623	
0	0	0	0	0	432	627	
1	0	0	0	0	423	623	
2	0	0	0	0	414	622	
3	0	0	0	0	405	622	
4	0	0	0	0	398	617	
5	0	0	0	0	391	621	
6	0	0	0	0	385	621	
7	0	0	0	0	382	621	
8	0	0	0	0	383	625	
9	0	0	0	0	385	621	
10	0	0	0	0	391	620	
11	0	0	0	0	403	620	
12	0	0	0	0	420	615	
13	0	0	0	0	441	620	
14	0	0	0	0	468	620	
15	0	0	0	0	499	619	
0	0	0	0	0	530	623	
1	0	0	0	0	559	619	
2	0	0	0	0	582	619	
3	0	0	0	0	608	619	
4	0	0	0	0	637	613	
5	0	0	0	0	670	618	
6	0	0	0	0	701	619	
7	0	0	0	0	728	618	
8	0	0	0	0	752	622	
9	0	0	0	0	768	618	
10	0	0	0	0	779	618	
11	0	0	0	0	787	618	
12	0	0	0	0	802	613	
13	0	0	0	0	820	618	
14	0	0	0	0	838	618	
15	0	0	0	0	868	617	
0	0	0	0	0	907	622	
1	0	0	0	0	938	617	
2	0	0	0	0	945	618	
3	0	0	0	0	936	618	
4	0	0	0	0	920	613	
5	0	0	0	0	898	618	
6	0	0	0	0	875	618	
7	0	0	0	0	852	619	
8	0	0	0	0	827	623	
9	0	0	0	0	802	618	
10	0	0	0	0	777	619	
11	0	0	0	0	751	619	
12	0	0	0	0	725	614	
13	0	0	0	0	701	619	
14	0	0	0	0	678	620	
15	0	0	0	0	655	620	
0	0	0	0	0	635	624	
1	0	0	0	0	616	621	
2	0	0	0	0	598	620	
3	0	0	0	0	583	621	
4	0	0	0	0	567	616	
5	0	0	0	0	553	621	
6	0	0	0	0	540	622	
7	0	0	0	0	529	622	
8	0	0	0	0	519	626	
9	0	0	0	0	511	623	
10	0	0	0	0	504	623	
11	0	0	0	0	496	623	
12	0	0	0	0	487	619	
13	0	0	0	0	480	623	
14	0	0	0	0	473	623	
15	0	0	0	0	466	623	
0	0	0	0	0	460	628	
1	0	0	0	0	454	624	
2	0	0	0	0	448	624	
3	0	0	0	0	444	624	
4	0	0	0	0	441	619	
5	0	0	0	0	438	624	
6	0	0	0	0	436	624	
7	0	0	0	0	435	624	
8	0	0	0	0	435	629	
9	0	0	0	0	433	624	
10	0	0	0	0	432	624	
11	0	0	0	0	431	624	
12	0	0	0	0	431	620	
13	0	0	0	0	430	624	
14	0	0	0	0	429	624	
15	0	0	0	0	429	625	
0	0	0	0	0	428	629	
1	0	0	0	0	428	625	
2	0	0	0	0	427	625	
3	0	0	0	0	425	625	
4	0	0	0	0	425	620	
5	0	0	0	0	424	625	
6	0	0	0	0	424	625	
7	0	0	0	0	425	626	
8	0	0	0	0	425	629	
9	0	0	0	0	427	625	
10	0	0	0	0	428	624	
11	0	0	0	0	428	624	
12	0	0	0	0	429	620	
13	0	0	0	0	430	624	
14	0	0	0	0	430	624	
15	0	0	0	0	430	624	
0	0	0	0	0	430	628	
1	0	0	0	0	430	624	
2	0	0	0	0	429	623	
3	0	0	0	0	428	623	
4	0	0	0	0	427	618	
5	0	0	0	0	427	622	
6	0	0	0	0	427	623	
7	0	0	0	0	428	622	
8	0	0	0	0	429	627	
9	0	0	0	0	429	622	
10	0	0	0	0	429	622	
11	0	0	0	0	430	622	
12	0	0	0	0	430	617	
13	0	0	0	0	431	622	
14	0	0	0	0	433	623	
15	0	0	0	0	434	623	
0	0	0	0	0	435	627	
1	0	0	0	0	436	623	
2	0	0	0	0	436	623	
3	0	0	0	0	437	623	
4	0	0	0	0	438	618	
5	0	0	0	0	438	623	
6	0	0	0	0	438	623	
7	0	0	0	0	439	623	
8	0	0	0	0	439	627	
9	0	0	0	0	439	623	
10	0	0	0	0	439	623	
11	0	0	0	0	439	623	
12	0	0	0	0	438	618	
13	0	0	0	0	439	623	
14	0	0	0	0	439	623	
15	0	0	0	0	439	623	
0	0	0	0	0	440	627	
1	0	0	0	0	441	623	
2	0	0	0	0	441	622	
3	0	0	0	0	442	622	
4	0	0	0	0	443	617	
5	0	0	0	0	443	622	
6	0	0	0	0	444	622	
7	0	0	0	0	444	621	
8	0	0	0	0	444	625	
9	0	0	0	0	445	620	
10	0	0	0	0	444	620	
11	0	0	0	0	443	620	
12	0	0	0	0	442	615	
13	0	0	0	0	441	620	
14	0	0	0	0	441	620	
15	0	0	0	0	440	619	
0	0	0	0	0	440	623	
1	0	0	0	0	440	618	
2	0	0	0	0	440	618	
3	0	0	0	0	441	617	
4	0	0	0	0	442	613	
5	0	0	0	0	443	617	
6	0	0	0	0	444	617	
7	0	0	0	0	445	617	
8	0	0	0	0	446	621	
9	0	0	0	0	446	617	
10	0	0	0	0	447	617	
11	0	0	0	0	447	616	
12	0	0	0	0	447	612	
13	0	0	0	0	447	617	
14	0	0	0	0	446	617	
15	0	0	0	0	446	617	
0	0	0	0	0	445	621	
1	0	0	0	0	444	617	
2	0	0	0	0	443	616	
3	0	0	0	0	442	616	
4	0	0	0	0	441	612	
5	0	0	0	0	441	617	
6	0	0	0	0	441	617	
7	0	0	0	0	441	617	
8	0	0	0	0	440	622	
9	0	0	0	0	440	618	
10	0	0	0	0	441	618	
11	0	0	0	0	442	618	
12	0	0	0	0	443	614	
13	0	0	0	0	444	618	
14	0	0	0	0	444	619	
15	0	0	0	0	444	620	
0	0	0	0	0	444	624	
1	0	0	0	0	444	620	
2	0	0	0	0	445	620	
3	0	0	0	0	444	621	
4	0	0	0	0	444	617	
5	0	0	0	0	443	621	
6	0	0	0	0	442	622	
7	0	0	0	0	441	623	
8	0	0	0	0	440	627	
9	0	0	0	0	439	622	
10	0	0	0	0	439	623	
11	0	0	0	0	439	623	
12	0	0	0	0	439	619	
13	0	0	0	0	440	624	
14	0	0	0	0	441	624	
15	0	0	0	0	442	624	
0	0	0	0	0	442	628	
1	0	0	0	0	443	624	
2	0	0	0	0	444	624	
3	0	0	0	0	445	624	
4	0	0	0	0	446	620	
5	0	0	0	0	448	625	
6	0	0	0	0	449	625	
7	0	0	0	0	449	626	
8	0	0	0	0	450	630	
9	0	0	0	0	450	625	
10	0	0	0	0	450	625	
11	0	0	0	0	449	625	
12	0	0	0	0	449	621	
13	0	0	0	0	449	625	
14	0	0	0	0	451	626	
15	0	0	0	0	451	625	
0	0	0	0	0	453	629	
1	0	0	0	0	454	625	
2	0	0	0	0	455	626	
3	0	0	0	0	457	625	
4	0	0	0	0	458	620	
5	0	0	0	0	460	625	
6	0	0	0	0	460	625	
7	0	0	0	0	461	625	
8	0	0	0	0	463	629	
9	0	0	0	0	464	624	
10	0	0	0	0	465	624	
11	0	0	0	0	466	624	
12	0	0	0	0	467	620	
13	0	0	0	0	468	624	
14	0	0	0	0	469	624	
15	0	0	0	0	470	624	
0	0	0	0	0	472	628	
1	0	0	0	0	473	623	
2	0	0	0	0	475	624	
3	0	0	0	0	476	623	
4	0	0	0	0	477	619	
5	0	0	0	0	479	624	
6	0	0	0	0	480	623	
7	0	0	0	0	482	622	
8	0	0	0	0	485	627	
9	0	0	0	0	487	623	
10	0	0	0	0	489	623	
11	0	0	0	0	492	622	
12	0	0	0	0	495	617	
13	0	0	0	0	497	623	
14	0	0	0	0	499	622	
15	0	0	0	0	500	622	
0	0	0	0	0	502	626	
1	0	0	0	0	504	622	
2	0	0	0	0	505	622	
3	0	0	0	0	506	621	
4	0	0	0	0	508	616	
5	0	0	0	0	509	622	
6	0	0	0	0	511	621	
7	0	0	0	0	512	621	
8	0	0	0	0	513	625	
9	0	0	0	0	515	621	
10	0	0	0	0	516	621	
11	0	0	0	0	518	620	
12	0	0	0	0	520	615	
13	0	0	0	0	522	621	
14	0	0	0	0	524	620	
15	0	0	0	0	526	620	
0	0	0	0	0	528	624	
1	0	0	0	0	530	620	
2	0	0	0	0	531	620	
3	0	0	0	0	533	619	
4	0	0	0	0	533	615	
5	0	0	0	0	535	619	
6	0	0	0	0	535	620	
7	0	0	0	0	536	619	
8	0	0	0	0	538	623	
9	0	0	0	0	539	619	
10	0	0	0	0	541	619	
11	0	0	0	0	543	619	
12	0	0	0	0	544	614	
13	0	0	0	0	546	619	
14	0	0	0	0	547	618	
15	0	0	0	0	548	619	
0	0	0	0	0	548	623	
1	0	0	0	0	548	619	
2	0	0	0	0	547	619	
3	0	0	0	0	546	619	
4	0	0	0	0	545	614	
5	0	0	0	0	545	620	
6	0	0	0	0	544	619	
7	0	0	0	0	545	619	
8	0	0	0	0	545	624	
9	0	0	0	0	546	620	
10	0	0	0	0	547	620	
11	0	0	0	0	548	620	
12	0	0	0	0	549	617	
13	0	0	0	0	550	621	
14	0	0	0	0	550	622	
15	0	0	0	0	550	622	
0	0	0	0	0	549	626	
1	0	0	0	0	550	622	
2	0	0	0	0	550	622	
3	0	0	0	0	551	623	
4	0	0	0	0	551	618	
5	0	0	0	0	552	622	
6	0	0	0	0	553	623	
7	0	0	0	0	553	623	
8	0	0	0	0	554	626	
9	0	0	0	0	554	623	
10	0	0	0	0	553	622	
11	0	0	0	0	554	623	
12	0	0	0	0	555	618	
13	0	0	0	0	555	623	
14	0	0	0	0	554	623	
15	0	0	0	0	553	623	
0	0	0	0	0	552	627	
1	0	0	0	0	552	623	
2	0	0	0	0	551	624	
3	0	0	0	0	551	624	
4	0	0	0	0	552	620	
5	0	0	0	0	552	624	
6	0	0	0	0	551	624	
7	0	0	0	0	551	624	
8	0	0	0	0	551	628	
9	0	0	0	0	552	624	
10	0	0	0	0	552	624	
11	0	0	0	0	552	624	
12	0	0	0	0	552	619	
13	0	0	0	0	551	624	
14	0	0	0	0	551	624	
15	0	0	0	0	550	624	
0	0	0	0	0	550	627	
1	0	0	0	0	549	623	
2	0	0	0	0	548	622	
3	0	0	0	0	548	622	
4	0	0	0	0	547	617	
5	0	0	0	0	545	622	
6	0	0	0	0	544	623	
7	0	0	0	0	543	622	
8	0	0	0	0	542	626	
9	0	0	0	0	543	623	
10	0	0	0	0	542	622	
11	0	0	0	0	542	622	
12	0	0	0	0	543	617	
13	0	0	0	0	543	622	
14	0	0	0	0	543	622	
15	0	0	0	0	543	622	
0	0	0	0	0	542	626	
1	0	0	0	0	542	621	
2	0	0	0	0	541	622	
3	0	0	0	0	541	622	
4	0	0	0	0	541	617	
5	0	0	0	0	540	622	
6	0	0	0	0	540	623	
7	0	0	0	0	539	623	
8	0	0	0	0	539	627	
9	0	0	0	0	539	623	
10	0	0	0	0	538	622	
11	0	0	0	0	538	623	
12	0	0	0	0	537	617	
13	0	0	0	0	537	623	
14	0	0	0	0	537	623	
15	0	0	0	0	537	623	
0	0	0	0	0	538	627	
1	0	0	0	0	538	622	
2	0	0	0	0	538	623	
3	0	0	0	0	538	622	
4	0	0	0	0	538	617	
5	0	0	0	0	538	622	
6	0	0	0	0	538	622	
7	0	0	0	0	538	622	
8	0	0	0	0	537	626	
9	0	0	0	0	536	622	
10	0	0	0	0	535	622	
11	0	0	0	0	535	622	
12	0	0	0	0	534	616	
13	0	0	0	0	533	621	
14	0	0	0	0	533	620	
15	0	0	0	0	533	620	
0	0	0	0	0	532	625	
1	0	0	0	0	532	620	
2	0	0	0	0	532	620	
3	0	0	0	0	532	620	
4	0	0	0	0	533	615	
5	0	0	0	0	534	620	
6	0	0	0	0	534	620	
7	0	0	0	0	534	620	
8	0	0	0	0	535	624	
9	0	0	0	0	534	620	
10	0	0	0	0	534	620	
11	0	0	0	0	533	620	
12	0	0	0	0	532	615	
13	0	0	0	0	531	620	
14	0	0	0	0	529	620	
15	0	0	0	0	527	620	
0	0	0	0	0	527	624	
1	0	0	0	0	524	620	
2	0	0	0	0	523	620	
3	0	0	0	0	522	620	
4	0	0	0	0	521	615	
5	0	0	0	0	523	620	
6	0	0	0	0	524	620	
7	0	0	0	0	525	620	
8	0	0	0	0	526	624	
9	0	0	0	0	527	620	
10	0	0	0	0	528	620	
11	0	0	0	0	528	620	
12	0	0	0	0	529	615	
13	0	0	0	0	529	620	
14	0	0	0	0	529	620	
15	0	0	0	0	529	620	
0	0	0	0	0	528	624	
1	0	0	0	0	527	620	
2	0	0	0	0	527	620	
3	0	0	0	0	527	620	
4	0	0	0	0	526	615	
5	0	0	0	0	526	620	
6	0	0	0	0	526	620	
7	0	0	0	0	526	620	
8	0	0	0	0	525	625	
9	0	0	0	0	526	620	
10	0	0	0	0	526	620	
11	0	0	0	0	526	620	
12	0	0	0	0	526	615	
13	0	0	0	0	526	620	
14	0	0	0	0	527	620	
15	0	0	0	0	527	620	
0	0	0	0	0	527	624	
1	0	0	0	0	528	620	
2	0	0	0	0	527	620	
3	0	0	0	0	528	620	
4	0	0	0	0	528	615	
5	0	0	0	0	528	620	
6	0	0	0	0	528	620	
7	0	0	0	0	528	620	
8	0	0	0	0	528	624	
9	0	0	0	0	527	620	
10	0	0	0	0	526	620	
11	0	0	0	0	526	620	
12	0	0	0	0	526	615	
13	0	0	0	0	524	620	
14	0	0	0	0	524	620	
15	0	0	0	0	523	620	
0	0	0	0	0	522	624	
1	0	0	0	0	522	620	
2	0	0	0	0	523	620	
3	0	0	0	0	524	621	
4	0	0	0	0	524	615	
5	0	0	0	0	525	621	
6	0	0	0	0	526	621	
7	0	0	0	0	527	621	
8	0	0	0	0	527	625	
9	0	0	0	0	527	621	
10	0	0	0	0	527	621	
11	0	0	0	0	527	621	
12	0	0	0	0	526	616	
13	0	0	0	0	526	621	
14	0	0	0	0	525	622	
15	0	0	0	0	524	622	
0	0	0	0	0	524	626	
1	0	0	0	0	524	622	
2	0	0	0	0	523	622	
3	0	0	0	0	524	622	
4	0	0	0	0	524	618	
5	0	0	0	0	524	622	
6	0	0	0	0	524	623	
7	0	0	0	0	523	623	
8	0	0	0	0	522	627	
9	0	0	0	0	521	622	
10	0	0	0	0	520	623	
11	0	0	0	0	520	623	
12	0	0	0	0	519	618	
13	0	0	0	0	519	624	
14	0	0	0	0	519	623	
15	0	0	0	0	519	623	
0	0	0	0	0	518	628	
1	0	0	0	0	518	623	
2	0	0	0	0	517	624	
3	0	0	0	0	517	623	
4	0	0	0	0	516	619	
5	0	0	0	0	515	624	
6	0	0	0	0	515	623	
7	0	0	0	0	515	623	
8	0	0	0	0	515	628	
9	0	0	0	0	516	624	
10	0	0	0	0	516	624	
11	0	0	0	0	516	624	
12	0	0	0	0	516	619	
13	0	0	0	0	516	624	
14	0	0	0	0	516	624	
15	0	0	0	0	516	624	
0	0	0	0	0	516	627	
1	0	0	0	0	515	623	
2	0	0	0	0	515	622	
3	0	0	0	0	514	622	
4	0	0	0	0	514	617	
5	0	0	0	0	513	622	
6	0	0	0	0	512	622	
7	0	0	0	0	513	622	
8	0	0	0	0	513	626	
9	0	0	0	0	514	622	
10	0	0	0	0	515	622	
11	0	0	0	0	517	621	
12	0	0	0	0	519	617	
13	0	0	0	0	520	622	
14	0	0	0	0	521	622	
15	0	0	0	0	522	622	
0	0	0	0	0	523	625	
1	0	0	0	0	523	622	
2	0	0	0	0	524	621	
3	0	0	0	0	524	621	
4	0	0	0	0	524	616	
5	0	0	0	0	524	621	
6	0	0	0	0	524	620	
7	0	0	0	0	524	620	
8	0	0	0	0	524	625	
9	0	0	0	0	524	621	
10	0	0	0	0	523	620	
11	0	0	0	0	523	620	
12	0	0	0	0	523	615	
13	0	0	0	0	523	620	
14	0	0	0	0	523	620	
15	0	0	0	0	522	620	
0	0	0	0	0	521	624	
1	0	0	0	0	521	619	
2	0	0	0	0	519	619	
3	0	0	0	0	519	619	
4	0	0	0	0	519	615	
5	0	0	0	0	519	620	
6	0	0	0	0	520	620	
7	0	0	0	0	520	620	
8	0	0	0	0	521	624	
9	0	0	0	0	522	621	
10	0	0	0	0	522	621	
11	0	0	0	0	522	621	
12	0	0	0	0	521	617	
13	0	0	0	0	521	621	
14	0	0	0	0	521	622	
15	0	0	0	0	521	622	
0	0	0	0	0	521	626	
1	0	0	0	0	522	622	
2	0	0	0	0	521	622	
3	0	0	0	0	521	622	
4	0	0	0	0	521	617	
5	0	0	0	0	521	622	
6	0	0	0	0	522	623	
7	0	0	0	0	522	622	
8	0	0	0	0	522	627	
9	0	0	0	0	523	622	
10	0	0	0	0	521	622	
11	0	0	0	0	521	623	
12	0	0	0	0	520	618	
13	0	0	0	0	519	623	
14	0	0	0	0	519	623	
15	0	0	0	0	518	623	
0	0	0	0	0	518	627	
1	0	0	0	0	519	623	
2	0	0	0	0	520	623	
3	0	0	0	0	521	623	
4	0	0	0	0	521	618	
5	0	0	0	0	522	623	
6	0	0	0	0	522	623	
7	0	0	0	0	521	623	
8	0	0	0	0	521	628	
9	0	0	0	0	521	624	
10	0	0	0	0	521	624	
11	0	0	0	0	521	624	
12	0	0	0	0	521	619	
13	0	0	0	0	521	624	
14	0	0	0	0	521	623	
15	0	0	0	0	521	624	
0	0	0	0	0	520	627	
1	0	0	0	0	520	623	
2	0	0	0	0	519	623	
3	0	0	0	0	519	622	
4	0	0	0	0	518	618	
5	0	0	0	0	516	622	
6	0	0	0	0	516	622	
7	0	0	0	0	516	622	
8	0	0	0	0	515	626	
9	0	0	0	0	515	622	
10	0	0	0	0	514	622	
11	0	0	0	0	513	622	
12	0	0	0	0	512	617	
13	0	0	0	0	510	622	
14	0	0	0	0	508	622	
15	0	0	0	0	504	622	
0	0	0	0	0	500	626	
1	0	0	0	0	495	622	
2	0	0	0	0	491	622	
3	0	0	0	0	487	622	
4	0	0	0	0	480	617	
5	0	0	0	0	473	622	
6	0	0	0	0	464	622	
7	0	0	0	0	455	622	
8	0	0	0	0	447	625	
9	0	0	0	0	440	621	
10	0	0	0	0	433	622	
11	0	0	0	0	426	621	
12	0	0	0	0	418	616	
13	0	0	0	0	409	622	
14	0	0	0	0	400	622	
15	0	0	0	0	393	622	
0	0	0	0	0	387	626	
1	0	0	0	0	380	622	
2	0	0	0	0	376	622	
3	0	0	0	0	376	622	
4	0	0	0	0	378	617	
5	0	0	0	0	384	623	
6	0	0	0	0	396	623	
7	0	0	0	0	414	624	
8	0	0	0	0	436	627	
9	0	0	0	0	463	623	
10	0	0	0	0	495	623	
11	0	0	0	0	526	623	
12	0	0	0	0	556	619	
13	0	0	0	0	582	624	
14	0	0	0	0	608	624	
15	0	0	0	0	636	623	
0	0	0	0	0	668	628	
1	0	0	0	0	700	623	
2	0	0	0	0	726	624	
3	0	0	0	0	749	624	
4	0	0	0	0	763	619	
5	0	0	0	0	771	624	
6	0	0	0	0	777	624	
7	0	0	0	0	786	624	
8	0	0	0	0	801	628	
9	0	0	0	0	816	624	
10	0	0	0	0	842	625	
11	0	0	0	0	884	625	
12	0	0	0	0	916	620	
13	0	0	0	0	926	625	
14	0	0	0	0	919	624	
15	0	0	0	0	903	624	
0	0	0	0	0	883	629	
1	0	0	0	0	861	625	
2	0	0	0	0	839	625	
3	0	0	0	0	817	624	
4	0	0	0	0	793	620	
5	0	0	0	0	771	624	
6	0	0	0	0	748	624	
7	0	0	0	0	725	625	
8	0	0	0	0	703	628	
9	0	0	0	0	681	624	
10	0	0	0	0	659	624	
11	0	0	0	0	639	624	
12	0	0	0	0	620	619	
13	0	0	0	0	603	623	
14	0	0	0	0	587	623	
15	0	0	0	0	571	623	
0	0	0	0	0	556	627	
1	0	0	0	0	544	622	
2	0	0	0	0	532	623	
3	0	0	0	0	520	622	
4	0	0	0	0	511	617	
5	0	0	0	0	502	622	
6	0	0	0	0	495	622	
7	0	0	0	0	487	622	
8	0	0	0	0	481	625	
9	0	0	0	0	476	621	
10	0	0	0	0	470	620	
11	0	0	0	0	465	620	
12	0	0	0	0	459	615	
13	0	0	0	0	454	620	
14	0	0	0	0	450	621	
15	0	0	0	0	447	621	
0	0	0	0	0	444	624	
1	0	0	0	0	442	620	
2	0	0	0	0	441	620	
3	0	0	0	0	440	620	
4	0	0	0	0	439	615	
5	0	0	0	0	438	620	
6	0	0	0	0	436	620	
7	0	0	0	0	434	619	
8	0	0	0	0	433	624	
9	0	0	0	0	432	620	
10	0	0	0	0	432	620	
11	0	0	0	0	431	619	
12	0	0	0	0	430	615	
13	0	0	0	0	429	620	
14	0	0	0	0	429	620	
15	0	0	0	0	429	620	
0	0	0	0	0	429	624	
1	0	0	0	0	429	619	
2	0	0	0	0	429	619	
3	0	0	0	0	430	619	
4	0	0	0	0	430	615	
5	0	0	0	0	431	619	
6	0	0	0	0	432	618	
7	0	0	0	0	432	620	
8	0	0	0	0	432	624	
9	0	0	0	0	433	619	
10	0	0	0	0	432	619	
11	0	0	0	0	432	619	
12	0	0	0	0	431	615	
13	0	0	0	0	431	620	
14	0	0	0	0	431	620	
15	0	0	0	0	432	620	
0	0	0	0	0	432	624	
1	0	0	0	0	433	620	
2	0	0	0	0	433	621	
3	0	0	0	0	434	621	
4	0	0	0	0	435	616	
5	0	0	0	0	435	620	
6	0	0	0	0	436	621	
7	0	0	0	0	436	622	
8	0	0	0	0	438	626	
9	0	0	0	0	438	622	
10	0	0	0	0	438	622	
11	0	0	0	0	439	623	
12	0	0	0	0	439	617	
13	0	0	0	0	440	622	
14	0	0	0	0	440	622	
15	0	0	0	0	441	622	
0	0	0	0	0	441	626	
1	0	0	0	0	441	623	
2	0	0	0	0	440	623	
3	0	0	0	0	440	623	
4	0	0	0	0	440	618	
5	0	0	0	0	441	623	
6	0	0	0	0	440	623	
7	0	0	0	0	441	623	
8	0	0	0	0	441	627	
9	0	0	0	0	441	623	
10	0	0	0	0	441	623	
11	0	0	0	0	440	623	
12	0	0	0	0	440	619	
13	0	0	0	0	438	624	
14	0	0	0	0	438	624	
15	0	0	0	0	439	624	
0	0	0	0	0	440	628	
1	0	0	0	0	441	624	
2	0	0	0	0	443	624	
3	0	0	0	0	444	623	
4	0	0	0	0	445	619	
5	0	0	0	0	445	624	
6	0	0	0	0	445	624	
7	0	0	0	0	445	624	
8	0	0	0	0	446	628	
9	0	0	0	0	447	624	
10	0	0	0	0	446	624	
11	0	0	0	0	447	624	
12	0	0	0	0	448	620	
13	0	0	0	0	448	624	
14	0	0	0	0	449	624	
15	0	0	0	0	449	624	
0	0	0	0	0	449	628	
1	0	0	0	0	449	624	
2	0	0	0	0	450	624	
3	0	0	0	0	451	624	
4	0	0	0	0	451	619	
5	0	0	0	0	451	624	
6	0	0	0	0	450	624	
7	0	0	0	0	449	624	
8	0	0	0	0	449	628	
9	0	0	0	0	449	624	
10	0	0	0	0	449	623	
11	0	0	0	0	448	623	
12	0	0	0	0	447	619	
13	0	0	0	0	447	624	
14	0	0	0	0	446	624	
15	0	0	0	0	446	624	
0	0	0	0	0	444	627	
1	0	0	0	0	444	623	
2	0	0	0	0	442	623	
3	0	0	0	0	442	623	
4	0	0	0	0	442	618	
5	0	0	0	0	443	624	
6	0	0	0	0	444	623	
7	0	0	0	0	445	624	
8	0	0	0	0	445	627	
9	0	0	0	0	446	623	
10	0	0	0	0	445	623	
11	0	0	0	0	445	623	
12	0	0	0	0	445	618	
13	0	0	0	0	446	623	
14	0	0	0	0	446	623	
15	0	0	0	0	446	623	
0	0	0	0	0	446	627	
1	0	0	0	0	447	623	
2	0	0	0	0	447	622	
3	0	0	0	0	447	622	
4	0	0	0	0	447	617	
5	0	0	0	0	448	622	
6	0	0	0	0	448	622	
7	0	0	0	0	449	622	
8	0	0	0	0	449	626	
9	0	0	0	0	450	622	
10	0	0	0	0	449	621	
11	0	0	0	0	449	621	
12	0	0	0	0	449	615	
13	0	0	0	0	450	620	
14	0	0	0	0	450	620	
15	0	0	0	0	450	620	
0	0	0	0	0	449	624	
1	0	0	0	0	450	620	
2	0	0	0	0	451	620	
3	0	0	0	0	451	620	
4	0	0	0	0	452	614	
5	0	0	0	0	453	619	
6	0	0	0	0	454	619	
7	0	0	0	0	455	620	
8	0	0	0	0	456	624	
9	0	0	0	0	456	619	
10	0	0	0	0	456	619	
11	0	0	0	0	456	619	
12	0	0	0	0	457	614	
13	0	0	0	0	458	619	
14	0	0	0	0	459	618	
15	0	0	0	0	462	619	
0	0	0	0	0	463	623	
1	0	0	0	0	465	619	
2	0	0	0	0	467	619	
3	0	0	0	0	467	618	
4	0	0	0	0	469	614	
5	0	0	0	0	470	619	
6	0	0	0	0	471	619	
7	0	0	0	0	473	619	
8	0	0	0	0	475	623	
9	0	0	0	0	477	619	
10	0	0	0	0	478	619	
11	0	0	0	0	480	619	
12	0	0	0	0	481	615	
13	0	0	0	0	483	619	
14	0	0	0	0	484	620	
15	0	0	0	0	486	620	
0	0	0	0	0	487	624	
1	0	0	0	0	489	620	
2	0	0	0	0	490	620	
3	0	0	0	0	491	620	
4	0	0	0	0	492	615	
5	0	0	0	0	493	621	
6	0	0	0	0	494	620	
7	0	0	0	0	496	622	
8	0	0	0	0	498	625	
9	0	0	0	0	499	621	
10	0	0	0	0	501	621	
11	0	0	0	0	502	621	
12	0	0	0	0	504	617	
13	0	0	0	0	504	622	
14	0	0	0	0	506	622	
15	0	0	0	0	508	622	
0	0	0	0	0	509	627	
1	0	0	0	0	511	622	
2	0	0	0	0	512	623	
3	0	0	0	0	513	622	
4	0	0	0	0	516	618	
5	0	0	0	0	518	623	
6	0	0	0	0	520	623	
7	0	0	0	0	522	624	
8	0	0	0	0	523	628	
9	0	0	0	0	524	625	
10	0	0	0	0	525	624	
11	0	0	0	0	525	624	
12	0	0	0	0	526	619	
13	0	0	0	0	526	625	
14	0	0	0	0	527	624	
15	0	0	0	0	527	625	
0	0	0	0	0	528	629	
1	0	0	0	0	530	625	
2	0	0	0	0	531	625	
3	0	0	0	0	532	625	
4	0	0	0	0	533	620	
5	0	0	0	0	535	624	
6	0	0	0	0	536	625	
7	0	0	0	0	536	625	
8	0	0	0	0	537	630	
9	0	0	0	0	538	625	
10	0	0	0	0	539	625	
11	0	0	0	0	540	625	
12	0	0	0	0	541	620	
13	0	0	0	0	542	625	
14	0	0	0	0	542	625	
15	0	0	0	0	542	624	
0	0	0	0	0	542	629	
1	0	0	0	0	542	624	
2	0	0	0	0	542	625	
3	0	0	0	0	542	624	
4	0	0	0	0	542	619	
5	0	0	0	0	542	624	
6	0	0	0	0	543	624	
7	0	0	0	0	544	624	
8	0	0	0	0	545	627	
9	0	0	0	0	547	623	
10	0	0	0	0	547	623	
11	0	0	0	0	548	623	
12	0	0	0	0	548	618	
13	0	0	0	0	549	623	
14	0	0	0	0	549	623	
15	0	0	0	0	549	623	
0	0	0	0	0	549	627	
1	0	0	0	0	550	622	
2	0	0	0	0	549	622	
3	0	0	0	0	549	622	
4	0	0	0	0	548	617	
5	0	0	0	0	547	623	
6	0	0	0	0	547	622	
7	0	0	0	0	547	622	
8	0	0	0	0	548	625	
9	0	0	0	0	548	621	
10	0	0	0	0	548	621	
11	0	0	0	0	549	621	
12	0	0	0	0	549	617	
13	0	0	0	0	549	622	
14	0	0	0	0	549	621	
15	0	0	0	0	549	622	
0	0	0	0	0	549	625	
1	0	0	0	0	548	621	
2	0	0	0	0	547	621	
3	0	0	0	0	546	622	
4	0	0	0	0	545	617	
5	0	0	0	0	544	621	
6	0	0	0	0	542	621	
7	0	0	0	0	542	621	
8	0	0	0	0	542	625	
9	0	0	0	0	541	621	
10	0	0	0	0	542	621	
11	0	0	0	0	543	620	
12	0	0	0	0	543	615	
13	0	0	0	0	543	620	
14	0	0	0	0	543	620	
15	0	0	0	0	543	620	
0	0	0	0	0	543	624	
1	0	0	0	0	543	619	
2	0	0	0	0	543	620	
3	0	0	0	0	544	619	
4	0	0	0	0	543	615	
5	0	0	0	0	543	620	
6	0	0	0	0	543	620	
7	0	0	0	0	543	620	
8	0	0	0	0	543	624	
9	0	0	0	0	543	620	
10	0	0	0	0	542	620	
11	0	0	0	0	541	620	
12	0	0	0	0	541	615	
13	0	0	0	0	540	620	
14	0	0	0	0	538	620	
15	0	0	0	0	537	620	
0	0	0	0	0	536	624	
1	0	0	0	0	536	620	
2	0	0	0	0	535	620	
3	0	0	0	0	534	620	
4	0	0	0	0	535	616	
5	0	0	0	0	535	620	
6	0	0	0	0	534	621	
7	0	0	0	0	535	621	
8	0	0	0	0	536	625	
9	0	0	0	0	536	621	
10	0	0	0	0	536	621	
11	0	0	0	0	536	620	
12	0	0	0	0	536	616	
13	0	0	0	0	535	621	
14	0	0	0	0	535	620	
15	0	0	0	0	535	621	
0	0	0	0	0	535	625	
1	0	0	0	0	534	621	
2	0	0	0	0	533	621	
3	0	0	0	0	533	620	
4	0	0	0	0	532	615	
5	0	0	0	0	532	621	
6	0	0	0	0	532	621	
7	0	0	0	0	532	621	
8	0	0	0	0	532	625	
9	0	0	0	0	532	621	
10	0	0	0	0	532	621	
11	0	0	0	0	531	620	
12	0	0	0	0	531	617	
13	0	0	0	0	531	621	
14	0	0	0	0	531	622	
15	0	0	0	0	532	621	
0	0	0	0	0	531	626	
1	0	0	0	0	531	622	
2	0	0	0	0	531	622	
3	0	0	0	0	530	622	
4	0	0	0	0	529	618	
5	0	0	0	0	528	622	
6	0	0	0	0	527	622	
7	0	0	0	0	527	623	
8	0	0	0	0	526	627	
9	0	0	0	0	527	623	
10	0	0	0	0	527	623	
11	0	0	0	0	527	623	
12	0	0	0	0	528	618	
13	0	0	0	0	527	624	
14	0	0	0	0	527	624	
15	0	0	0	0	527	624	
0	0	0	0	0	527	628	
1	0	0	0	0	528	624	
2	0	0	0	0	527	624	
3	0	0	0	0	527	624	
4	0	0	0	0	528	620	
5	0	0	0	0	528	624	
6	0	0	0	0	528	624	
7	0	0	0	0	528	624	
8	0	0	0	0	527	628	
9	0	0	0	0	526	624	
10	0	0	0	0	526	624	
11	0	0	0	0	525	623	
12	0	0	0	0	525	619	
13	0	0	0	0	525	623	
14	0	0	0	0	526	623	
15	0	0	0	0	526	623	
0	0	0	0	0	527	627	
1	0	0	0	0	527	622	
2	0	0	0	0	527	622	
3	0	0	0	0	527	622	
4	0	0	0	0	527	617	
5	0	0	0	0	527	621	
6	0	0	0	0	527	622	
7	0	0	0	0	527	621	
8	0	0	0	0	527	625	
9	0	0	0	0	528	621	
10	0	0	0	0	527	621	
11	0	0	0	0	527	621	
12	0	0	0	0	527	615	
13	0	0	0	0	527	620	
14	0	0	0	0	527	621	
15	0	0	0	0	527	621	
0	0	0	0	0	527	625	
1	0	0	0	0	528	621	
2	0	0	0	0	528	621	
3	0	0	0	0	529	620	
4	0	0	0	0	529	615	
5	0	0	0	0	528	620	
6	0	0	0	0	529	620	
7	0	0	0	0	529	620	
8	0	0	0	0	530	624	
9	0	0	0	0	530	620	
10	0	0	0	0	529	620	
11	0	0	0	0	529	620	
12	0	0	0	0	529	615	
13	0	0	0	0	529	620	
14	0	0	0	0	530	620	
15	0	0	0	0	530	620	
0	0	0	0	0	529	624	
1	0	0	0	0	529	619	
2	0	0	0	0	529	619	
3	0	0	0	0	529	619	
4	0	0	0	0	528	615	
5	0	0	0	0	527	620	
6	0	0	0	0	526	619	
7	0	0	0	0	525	619	
8	0	0	0	0	524	623	
9	0	0	0	0	523	618	
10	0	0	0	0	522	618	
11	0	0	0	0	522	618	
12	0	0	0	0	522	613	
13	0	0	0	0	523	617	
14	0	0	0	0	524	617	
15	0	0	0	0	525	617	
0	0	0	0	0	527	621	
1	0	0	0	0	527	617	
2	0	0	0	0	527	617	
3	0	0	0	0	526	617	
4	0	0	0	0	525	613	
5	0	0	0	0	524	617	
6	0	0	0	0	524	618	
7	0	0	0	0	523	618	
8	0	0	0	0	523	623	
9	0	0	0	0	523	618	
10	0	0	0	0	523	618	
11	0	0	0	0	523	618	
12	0	0	0	0	524	614	
13	0	0	0	0	525	619	
14	0	0	0	0	525	619	
15	0	0	0	0	525	619	
0	0	0	0	0	525	624	
1	0	0	0	0	525	620	
2	0	0	0	0	525	620	
3	0	0	0	0	525	620	
4	0	0	0	0	524	616	
5	0	0	0	0	523	620	
6	0	0	0	0	522	621	
7	0	0	0	0	520	621	
8	0	0	0	0	519	625	
9	0	0	0	0	518	621	
10	0	0	0	0	517	621	
11	0	0	0	0	517	622	
12	0	0	0	0	515	617	
13	0	0	0	0	515	623	
14	0	0	0	0	514	623	
15	0	0	0	0	514	623	
0	0	0	0	0	514	627	
1	0	0	0	0	514	624	
2	0	0	0	0	514	624	
3	0	0	0	0	515	624	
4	0	0	0	0	516	620	
5	0	0	0	0	516	624	
6	0	0	0	0	516	625	
7	0	0	0	0	516	625	
8	0	0	0	0	516	629	
9	0	0	0	0	516	625	
10	0	0	0	0	516	625	
11	0	0	0	0	516	625	
12	0	0	0	0	516	621	
13	0	0	0	0	516	626	
14	0	0	0	0	516	625	
15	0	0	0	0	517	626	
0	0	0	0	0	518	630	
1	0	0	0	0	519	626	
2	0	0	0	0	519	627	
3	0	0	0	0	520	626	
4	0	0	0	0	521	622	
5	0	0	0	0	521	626	
6	0	0	0	0	522	627	
7	0	0	0	0	523	625	
8	0	0	0	0	523	630	
9	0	0	0	0	523	626	
10	0	0	0	0	523	626	
11	0	0	0	0	523	626	
12	0	0	0	0	523	621	
13	0	0	0	0	523	625	
14	0	0	0	0	522	625	
15	0	0	0	0	522	626	
0	0	0	0	0	521	631	
1	0	0	0	0	521	626	
2	0	0	0	0	520	626	
3	0	0	0	0	520	626	
4	0	0	0	0	520	621	
5	0	0	0	0	520	625	
6	0	0	0	0	520	626	
7	0	0	0	0	520	626	
8	0	0	0	0	521	630	
9	0	0	0	0	521	625	
10	0	0	0	0	522	625	
11	0	0	0	0	523	625	
12	0	0	0	0	524	620	
13	0	0	0	0	526	625	
14	0	0	0	0	527	625	
15	0	0	0	0	528	626	
0	0	0	0	0	528	630	
1	0	0	0	0	528	625	
2	0	0	0	0	527	625	
3	0	0	0	0	526	625	
4	0	0	0	0	525	620	
5	0	0	0	0	524	625	
6	0	0	0	0	524	625	
7	0	0	0	0	523	624	
8	0	0	0	0	523	629	
9	0	0	0	0	523	624	
10	0	0	0	0	522	624	
11	0	0	0	0	522	624	
12	0	0	0	0	522	619	
13	0	0	0	0	522	623	
14	0	0	0	0	523	623	
15	0	0	0	0	524	623	
0	0	0	0	0	525	627	
1	0	0	0	0	526	623	
2	0	0	0	0	526	623	
3	0	0	0	0	526	622	
4	0	0	0	0	525	617	
5	0	0	0	0	524	622	
6	0	0	0	0	523	622	
7	0	0	0	0	520	622	
8	0	0	0	0	519	626	
9	0	0	0	0	518	621	
10	0	0	0	0	518	622	
11	0	0	0	0	517	621	
12	0	0	0	0	517	616	
13	0	0	0	0	519	622	
14	0	0	0	0	519	622	
15	0	0	0	0	520	621	
0	0	0	0	0	522	626	
1	0	0	0	0	523	621	
2	0	0	0	0	523	621	
3	0	0	0	0	523	620	
4	0	0	0	0	523	616	
5	0	0	0	0	523	620	
6	0	0	0	0	522	620	
7	0	0	0	0	523	620	
8	0	0	0	0	522	624	
9	0	0	0	0	523	620	
10	0	0	0	0	522	620	
11	0	0	0	0	521	619	
12	0	0	0	0	520	615	
13	0	0	0	0	519	620	
14	0	0	0	0	517	620	
15	0	0	0	0	515	620	
0	0	0	0	0	513	624	
1	0	0	0	0	511	620	
2	0	0	0	0	509	620	
3	0	0	0	0	505	620	
4	0	0	0	0	502	615	
5	0	0	0	0	498	620	
6	0	0	0	0	494	621	
7	0	0	0	0	490	621	
8	0	0	0	0	485	625	
9	0	0	0	0	480	620	
10	0	0	0	0	473	620	
11	0	0	0	0	465	621	
12	0	0	0	0	456	616	
13	0	0	0	0	448	622	
14	0	0	0	0	440	622	
15	0	0	0	0	433	622	
0	0	0	0	0	425	626	
1	0	0	0	0	417	622	
2	0	0	0	0	406	622	
3	0	0	0	0	397	622	
4	0	0	0	0	388	618	
5	0	0	0	0	380	622	
6	0	0	0	0	372	623	
7	0	0	0	0	366	623	
8	0	0	0	0	364	627	
9	0	0	0	0	366	623	
10	0	0	0	0	372	623	
11	0	0	0	0	384	624	
12	0	0	0	0	403	619	
13	0	0	0	0	428	624	
14	0	0	0	0	455	624	
15	0	0	0	0	487	624	
0	0	0	0	0	520	630	
1	0	0	0	0	551	625	
2	0	0	0	0	577	625	
3	0	0	0	0	606	625	
4	0	0	0	0	637	621	
5	0	0	0	0	668	625	
6	0	0	0	0	697	625	
7	0	0	0	0	722	625	
8	0	0	0	0	743	629	
9	0	0	0	0	757	625	
10	0	0	0	0	767	624	
11	0	0	0	0	775	625	
12	0	0	0	0	790	620	
13	0	0	0	0	808	624	
14	0	0	0	0	827	625	
15	0	0	0	0	857	625	
0	0	0	0	0	895	629	
1	0	0	0	0	918	624	
2	0	0	0	0	920	624	
3	0	0	0	0	910	625	
4	0	0	0	0	893	619	
5	0	0	0	0	872	624	
6	0	0	0	0	849	624	
7	0	0	0	0	827	624	
8	0	0	0	0	803	629	
9	0	0	0	0	780	624	
10	0	0	0	0	756	624	
11	0	0	0	0	734	624	
12	0	0	0	0	712	619	
13	0	0	0	0	692	623	
14	0	0	0	0	671	623	
15	0	0	0	0	652	623	
0	0	0	0	0	633	627	
1	0	0	0	0	616	623	
2	0	0	0	0	600	623	
3	0	0	0	0	585	623	
4	0	0	0	0	571	618	
5	0	0	0	0	558	623	
6	0	0	0	0	546	622	
7	0	0	0	0	536	623	
8	0	0	0	0	526	627	
9	0	0	0	0	517	622	
10	0	0	0	0	509	622	
11	0	0	0	0	501	621	
12	0	0	0	0	493	617	
13	0	0	0	0	486	621	
14	0	0	0	0	480	622	
15	0	0	0	0	474	622	
0	0	0	0	0	469	625	
1	0	0	0	0	464	621	
2	0	0	0	0	459	621	
3	0	0	0	0	455	621	
4	0	0	0	0	451	615	
5	0	0	0	0	448	621	
6	0	0	0	0	446	621	
7	0	0	0	0	443	621	
8	0	0	0	0	441	624	
9	0	0	0	0	439	620	
10	0	0	0	0	437	620	
11	0	0	0	0	436	620	
12	0	0	0	0	434	615	
13	0	0	0	0	433	620	
14	0	0	0	0	432	620	
15	0	0	0	0	431	619	
0	0	0	0	0	431	623	
1	0	0	0	0	431	620	
2	0	0	0	0	431	619	
3	0	0	0	0	432	619	
4	0	0	0	0	432	614	
5	0	0	0	0	432	620	
6	0	0	0	0	432	620	
7	0	0	0	0	432	619	
8	0	0	0	0	433	623	
9	0	0	0	0	434	619	
10	0	0	0	0	435	619	
11	0	0	0	0	436	619	
12	0	0	0	0	436	614	
13	0	0	0	0	437	619	
14	0	0	0	0	436	619	
15	0	0	0	0	438	619	
0	0	0	0	0	438	624	
1	0	0	0	0	438	619	
2	0	0	0	0	436	620	
3	0	0	0	0	435	619	
4	0	0	0	0	434	615	
5	0	0	0	0	432	619	
6	0	0	0	0	433	620	
7	0	0	0	0	433	620	
8	0	0	0	0	433	623	
9	0	0	0	0	434	620	
10	0	0	0	0	433	620	
11	0	0	0	0	434	619	
12	0	0	0	0	434	615	
13	0	0	0	0	434	620	
14	0	0	0	0	435	621	
15	0	0	0	0	436	620	
0	0	0	0	0	437	625	
1	0	0	0	0	438	620	
2	0	0	0	0	440	620	
3	0	0	0	0	441	621	
4	0	0	0	0	443	616	
5	0	0	0	0	444	622	
6	0	0	0	0	444	622	
7	0	0	0	0	444	622	
8	0	0	0	0	443	626	
9	0	0	0	0	442	622	
10	0	0	0	0	442	622	
11	0	0	0	0	441	623	
12	0	0	0	0	440	618	
13	0	0	0	0	441	623	
14	0	0	0	0	441	623	
15	0	0	0	0	442	624	
0	0	0	0	0	443	628	
1	0	0	0	0	444	624	
2	0	0	0	0	444	624	
3	0	0	0	0	445	624	
4	0	0	0	0	446	620	
5	0	0	0	0	447	624	
6	0	0	0	0	447	624	
7	0	0	0	0	447	625	
8	0	0	0	0	447	628	
9	0	0	0	0	448	625	
10	0	0	0	0	448	624	
11	0	0	0	0	448	624	
12	0	0	0	0	448	620	
13	0	0	0	0	447	624	
14	0	0	0	0	447	624	
15	0	0	0	0	446	624	
0	0	0	0	0	446	628	
1	0	0	0	0	446	624	
2	0	0	0	0	447	624	
3	0	0	0	0	447	623	
4	0	0	0	0	447	618	
5	0	0	0	0	448	623	
6	0	0	0	0	448	623	
7	0	0	0	0	448	623	
8	0	0	0	0	448	627	
9	0	0	0	0	448	623	
10	0	0	0	0	448	623	
11	0	0	0	0	449	623	
12	0	0	0	0	449	617	
13	0	0	0	0	449	622	
14	0	0	0	0	449	622	
15	0	0	0	0	448	622	
0	0	0	0	0	448	626	
1	0	0	0	0	448	622	
2	0	0	0	0	448	621	
3	0	0	0	0	446	621	
4	0	0	0	0	445	617	
5	0	0	0	0	445	621	
6	0	0	0	0	444	622	
7	0	0	0	0	444	621	
8	0	0	0	0	445	625	
9	0	0	0	0	444	621	
10	0	0	0	0	445	622	
11	0	0	0	0	445	620	
12	0	0	0	0	446	616	
13	0	0	0	0	446	620	
14	0	0	0	0	447	621	
15	0	0	0	0	446	621	
0	0	0	0	0	444	625	
1	0	0	0	0	444	621	
2	0	0	0	0	444	621	
3	0	0	0	0	444	620	
4	0	0	0	0	445	616	
5	0	0	0	0	444	621	
6	0	0	0	0	444	621	
7	0	0	0	0	444	621	
8	0	0	0	0	444	625	
9	0	0	0	0	446	621	
10	0	0	0	0	447	621	
11	0	0	0	0	448	620	
12	0	0	0	0	449	616	
13	0	0	0	0	450	620	
14	0	0	0	0	451	620	
15	0	0	0	0	452	620	
0	0	0	0	0	454	624	
1	0	0	0	0	454	620	
2	0	0	0	0	454	620	
3	0	0	0	0	455	620	
4	0	0	0	0	455	615	
5	0	0	0	0	453	620	
6	0	0	0	0	453	620	
7	0	0	0	0	453	620	
8	0	0	0	0	454	624	
9	0	0	0	0	453	620	
10	0	0	0	0	452	620	
11	0	0	0	0	453	620	
12	0	0	0	0	454	615	
13	0	0	0	0	455	620	
14	0	0	0	0	457	619	
15	0	0	0	0	458	619	
0	0	0	0	0	460	624	
1	0	0	0	0	461	619	
2	0	0	0	0	463	619	
3	0	0	0	0	466	619	
4	0	0	0	0	468	614	
5	0	0	0	0	469	619	
6	0	0	0	0	471	619	
7	0	0	0	0	472	619	
8	0	0	0	0	472	623	
9	0	0	0	0	472	619	
10	0	0	0	0	472	620	
11	0	0	0	0	472	620	
12	0	0	0	0	472	615	
13	0	0	0	0	472	620	
14	0	0	0	0	472	620	
15	0	0	0	0	473	620	
0	0	0	0	0	475	624	
1	0	0	0	0	478	622	
2	0	0	0	0	480	621	
3	0	0	0	0	483	621	
4	0	0	0	0	487	615	
5	0	0	0	0	489	620	
6	0	0	0	0	493	621	
7	0	0	0	0	495	621	
8	0	0	0	0	496	625	
9	0	0	0	0	499	621	
10	0	0	0	0	501	621	
11	0	0	0	0	503	621	
12	0	0	0	0	504	616	
13	0	0	0	0	504	622	
14	0	0	0	0	504	622	
15	0	0	0	0	504	621	
0	0	0	0	0	504	626	
1	0	0	0	0	504	621	
2	0	0	0	0	503	622	
3	0	0	0	0	504	622	
4	0	0	0	0	506	617	
5	0	0	0	0	508	622	
6	0	0	0	0	510	622	
7	0	0	0	0	513	623	
8	0	0	0	0	516	627	
9	0	0	0	0	519	622	
10	0	0	0	0	520	623	
11	0	0	0	0	522	622	
12	0	0	0	0	524	617	
13	0	0	0	0	526	623	
14	0	0	0	0	527	622	
15	0	0	0	0	529	623	
0	0	0	0	0	531	627	
1	0	0	0	0	531	622	
2	0	0	0	0	533	622	
3	0	0	0	0	535	622	
4	0	0	0	0	537	619	
5	0	0	0	0	537	623	
6	0	0	0	0	536	623	
7	0	0	0	0	535	623	
8	0	0	0	0	536	627	
9	0	0	0	0	537	623	
10	0	0	0	0	538	623	
11	0	0	0	0	539	622	
12	0	0	0	0	540	618	
13	0	0	0	0	543	623	
14	0	0	0	0	544	623	
15	0	0	0	0	546	623	
0	0	0	0	0	548	626	
1	0	0	0	0	550	622	
2	0	0	0	0	551	622	
3	0	0	0	0	551	622	
4	0	0	0	0	552	617	
5	0	0	0	0	553	622	
6	0	0	0	0	553	621	
7	0	0	0	0	553	622	
8	0	0	0	0	552	626	
9	0	0	0	0	551	621	
10	0	0	0	0	551	621	
11	0	0	0	0	549	620	
12	0	0	0	0	548	616	
13	0	0	0	0	548	621	
14	0	0	0	0	548	621	
15	0	0	0	0	550	620	
0	0	0	0	0	551	625	
1	0	0	0	0	552	621	
2	0	0	0	0	553	620	
3	0	0	0	0	555	620	
4	0	0	0	0	556	615	
5	0	0	0	0	556	620	
6	0	0	0	0	556	620	
7	0	0	0	0	556	620	
8	0	0	0	0	557	624	
9	0	0	0	0	558	620	
10	0	0	0	0	556	620	
11	0	0	0	0	556	620	
12	0	0	0	0	556	615	
13	0	0	0	0	556	620	
14	0	0	0	0	555	621	
15	0	0	0	0	555	621	
0	0	0	0	0	555	625	
1	0	0	0	0	555	621	
2	0	0	0	0	553	621	
3	0	0	0	0	553	621	
4	0	0	0	0	552	617	
5	0	0	0	0	552	622	
6	0	0	0	0	552	622	
7	0	0	0	0	552	622	
8	0	0	0	0	553	626	
9	0	0	0	0	553	622	
10	0	0	0	0	553	622	
11	0	0	0	0	554	622	
12	0	0	0	0	554	617	
13	0	0	0	0	554	623	
14	0	0	0	0	553	622	
15	0	0	0	0	553	622	
0	0	0	0	0	552	626	
1	0	0	0	0	552	622	
2	0	0	0	0	551	622	
3	0	0	0	0	551	622	
4	0	0	0	0	549	617	
5	0	0	0	0	548	622	
6	0	0	0	0	548	622	
7	0	0	0	0	548	622	
8	0	0	0	0	548	625	
9	0	0	0	0	548	622	
10	0	0	0	0	550	622	
11	0	0	0	0	550	622	
12	0	0	0	0	550	617	
13	0	0	0	0	550	622	
14	0	0	0	0	550	621	
15	0	0	0	0	550	621	
0	0	0	0	0	550	626	
1	0	0	0	0	549	622	
2	0	0	0	0	547	621	
3	0	0	0	0	544	621	
4	0	0	0	0	543	617	
5	0	0	0	0	540	621	
6	0	0	0	0	538	622	
7	0	0	0	0	537	622	
8	0	0	0	0	537	626	
9	0	0	0	0	537	622	
10	0	0	0	0	538	622	
11	0	0	0	0	539	622	
12	0	0	0	0	538	617	
13	0	0	0	0	538	622	
14	0	0	0	0	539	622	
15	0	0	0	0	540	622	
0	0	0	0	0	540	627	
1	0	0	0	0	542	623	
2	0	0	0	0	543	623	
3	0	0	0	0	542	622	
4	0	0	0	0	542	618	
5	0	0	0	0	541	623	
6	0	0	0	0	540	623	
7	0	0	0	0	538	623	
8	0	0	0	0	536	628	
9	0	0	0	0	534	623	
10	0	0	0	0	531	623	
11	0	0	0	0	530	623	
12	0	0	0	0	529	618	
13	0	0	0	0	529	623	
14	0	0	0	0	528	622	
15	0	0	0	0	528	623	
0	0	0	0	0	529	627	
1	0	0	0	0	531	623	
2	0	0	0	0	532	623	
3	0	0	0	0	533	623	
4	0	0	0	0	533	617	
5	0	0	0	0	534	622	
6	0	0	0	0	535	622	
7	0	0	0	0	535	622	
8	0	0	0	0	535	627	
9	0	0	0	0	535	622	
10	0	0	0	0	534	622	
11	0	0	0	0	534	622	
12	0	0	0	0	533	617	
13	0	0	0	0	532	623	
14	0	0	0	0	531	622	
15	0	0	0	0	530	622	
0	0	0	0	0	529	627	
1	0	0	0	0	529	623	
2	0	0	0	0	529	623	
3	0	0	0	0	529	623	
4	0	0	0	0	529	617	
5	0	0	0	0	529	622	
6	0	0	0	0	528	623	
7	0	0	0	0	529	623	
8	0	0	0	0	530	627	
9	0	0	0	0	531	622	
10	0	0	0	0	531	622	
11	0	0	0	0	532	623	
12	0	0	0	0	532	618	
13	0	0	0	0	531	623	
14	0	0	0	0	531	623	
15	0	0	0	0	530	623	
0	0	0	0	0	529	627	
1	0	0	0	0	528	622	
2	0	0	0	0	527	622	
3	0	0	0	0	526	622	
4	0	0	0	0	525	618	
5	0	0	0	0	524	623	
6	0	0	0	0	523	622	
7	0	0	0	0	522	623	
8	0	0	0	0	523	626	
9	0	0	0	0	523	622	
10	0	0	0	0	524	623	
11	0	0	0	0	524	622	
12	0	0	0	0	526	618	
13	0	0	0	0	527	623	
14	0	0	0	0	528	622	
15	0	0	0	0	529	623	
0	0	0	0	0	530	627	
1	0	0	0	0	530	623	
2	0	0	0	0	529	622	
3	0	0	0	0	529	622	
4	0	0	0	0	529	619	
5	0	0	0	0	529	622	
6	0	0	0	0	528	622	
7	0	0	0	0	527	623	
8	0	0	0	0	526	626	
9	0	0	0	0	527	622	
10	0	0	0	0	527	622	
11	0	0	0	0	528	622	
12	0	0	0	0	529	617	
13	0	0	0	0	529	623	
14	0	0	0	0	531	623	
15	0	0	0	0	531	622	
0	0	0	0	0	531	625	
1	0	0	0	0	532	621	
2	0	0	0	0	532	621	
3	0	0	0	0	531	622	
4	0	0	0	0	530	616	
5	0	0	0	0	530	621	
6	0	0	0	0	529	621	
7	0	0	0	0	528	621	
8	0	0	0	0	526	625	
9	0	0	0	0	524	621	
10	0	0	0	0	522	621	
11	0	0	0	0	520	620	
12	0	0	0	0	519	615	
13	0	0	0	0	518	621	
14	0	0	0	0	518	620	
15	0	0	0	0	519	621	
0	0	0	0	0	519	625	
1	0	0	0	0	520	620	
2	0	0	0	0	522	621	
3	0	0	0	0	524	621	
4	0	0	0	0	524	616	
5	0	0	0	0	525	621	
6	0	0	0	0	526	621	
7	0	0	0	0	526	622	
8	0	0	0	0	526	625	
9	0	0	0	0	526	622	
10	0	0	0	0	526	622	
11	0	0	0	0	525	621	
12	0	0	0	0	525	616	
13	0	0	0	0	524	622	
14	0	0	0	0	523	622	
15	0	0	0	0	521	622	
0	0	0	0	0	519	626	
1	0	0	0	0	518	622	
2	0	0	0	0	516	622	
3	0	0	0	0	514	622	
4	0	0	0	0	513	617	
5	0	0	0	0	514	622	
6	0	0	0	0	514	621	
7	0	0	0	0	515	621	
8	0	0	0	0	516	626	
9	0	0	0	0	516	623	
10	0	0	0	0	516	622	
11	0	0	0	0	516	622	
12	0	0	0	0	516	617	
13	0	0	0	0	516	622	
14	0	0	0	0	517	622	
15	0	0	0	0	517	622	
0	0	0	0	0	518	626	
1	0	0	0	0	518	622	
2	0	0	0	0	518	622	
3	0	0	0	0	517	622	
4	0	0	0	0	516	617	
5	0	0	0	0	517	622	
6	0	0	0	0	517	622	
7	0	0	0	0	518	622	
8	0	0	0	0	518	627	
9	0	0	0	0	518	622	
10	0	0	0	0	518	622	
11	0	0	0	0	518	622	
12	0	0	0	0	519	618	
13	0	0	0	0	519	622	
14	0	0	0	0	520	622	
15	0	0	0	0	521	622	
0	0	0	0	0	521	627	
1	0	0	0	0	522	622	
2	0	0	0	0	521	623	
3	0	0	0	0	521	623	
4	0	0	0	0	521	619	
5	0	0	0	0	521	623	
6	0	0	0	0	520	623	
7	0	0	0	0	520	623	
8	0	0	0	0	519	627	
9	0	0	0	0	520	623	
10	0	0	0	0	520	623	
11	0	0	0	0	520	623	
12	0	0	0	0	520	618	
13	0	0	0	0	520	623	
14	0	0	0	0	520	623	
15	0	0	0	0	520	623	
0	0	0	0	0	520	627	
1	0	0	0	0	521	623	
2	0	0	0	0	520	623	
3	0	0	0	0	521	622	
4	0	0	0	0	521	618	
5	0	0	0	0	522	623	
6	0	0	0	0	522	623	
7	0	0	0	0	522	622	
8	0	0	0	0	522	626	
9	0	0	0	0	521	622	
10	0	0	0	0	521	622	
11	0	0	0	0	521	622	
12	0	0	0	0	521	617	
13	0	0	0	0	521	622	
14	0	0	0	0	521	622	
15	0	0	0	0	521	623	
0	0	0	0	0	521	626	
1	0	0	0	0	521	621	
2	0	0	0	0	521	623	
3	0	0	0	0	520	622	
4	0	0	0	0	519	618	
5	0	0	0	0	519	622	
6	0	0	0	0	519	622	
7	0	0	0	0	518	623	
8	0	0	0	0	519	627	
9	0	0	0	0	519	622	
10	0	0	0	0	519	621	
11	0	0	0	0	521	622	
12	0	0	0	0	521	617	
13	0	0	0	0	521	622	
14	0	0	0	0	519	622	
15	0	0	0	0	519	622	
0	0	0	0	0	519	626	
1	0	0	0	0	519	622	
2	0	0	0	0	519	622	
3	0	0	0	0	519	622	
4	0	0	0	0	519	617	
5	0	0	0	0	520	621	
6	0	0	0	0	522	622	
7	0	0	0	0	522	622	
8	0	0	0	0	523	625	
9	0	0	0	0	523	620	
10	0	0	0	0	523	621	
11	0	0	0	0	523	621	
12	0	0	0	0	523	616	
13	0	0	0	0	522	621	
14	0	0	0	0	522	620	
15	0	0	0	0	521	620	
0	0	0	0	0	520	625	
1	0	0	0	0	519	621	
2	0	0	0	0	518	620	
3	0	0	0	0	517	620	
4	0	0	0	0	516	615	
5	0	0	0	0	516	621	
6	0	0	0	0	515	620	
7	0	0	0	0	515	620	
8	0	0	0	0	515	624	
9	0	0	0	0	516	620	
10	0	0	0	0	518	620	
11	0	0	0	0	517	620	
12	0	0	0	0	518	615	
13	0	0	0	0	517	620	
14	0	0	0	0	515	620	
15	0	0	0	0	512	621	
0	0	0	0	0	509	624	
1	0	0	0	0	505	620	
2	0	0	0	0	501	620	
3	0	0	0	0	495	621	
4	0	0	0	0	490	617	
5	0	0	0	0	484	620	
6	0	0	0	0	478	621	
7	0	0	0	0	471	621	
8	0	0	0	0	464	625	
9	0	0	0	0	456	621	
10	0	0	0	0	447	621	
11	0	0	0	0	439	621	
12	0	0	0	0	432	616	
13	0	0	0	0	425	621	
14	0	0	0	0	421	621	
15	0	0	0	0	416	622	
0	0	0	0	0	409	626	
1	0	0	0	0	404	622	
2	0	0	0	0	399	622	
3	0	0	0	0	395	623	
4	0	0	0	0	390	617	
5	0	0	0	0	384	622	
6	0	0	0	0	380	622	
7	0	0	0	0	380	622	
8	0	0	0	0	382	626	
9	0	0	0	0	388	623	
10	0	0	0	0	398	623	
11	0	0	0	0	415	623	
12	0	0	0	0	439	617	
13	0	0	0	0	467	623	
14	0	0	0	0	499	623	
15	0	0	0	0	533	624	
0	0	0	0	0	565	628	
1	0	0	0	0	594	623	
2	0	0	0	0	628	623	
3	0	0	0	0	663	623	
4	0	0	0	0	693	618	
5	0	0	0	0	720	623	
6	0	0	0	0	746	622	
7	0	0	0	0	766	623	
8	0	0	0	0	779	627	
9	0	0	0	0	788	623	
10	0	0	0	0	800	623	
11	0	0	0	0	819	623	
12	0	0	0	0	838	619	
13	0	0	0	0	856	623	
14	0	0	0	0	885	623	
15	0	0	0	0	905	624	
0	0	0	0	0	909	627	
1	0	0	0	0	900	623	
2	0	0	0	0	886	623	
3	0	0	0	0	867	623	
4	0	0	0	0	847	619	
5	0	0	0	0	825	623	
6	0	0	0	0	802	623	
7	0	0	0	0	779	623	
8	0	0	0	0	757	627	
9	0	0	0	0	736	623	
10	0	0	0	0	715	623	
11	0	0	0	0	696	623	
12	0	0	0	0	674	618	
13	0	0	0	0	654	622	
14	0	0	0	0	634	622	
15	0	0	0	0	615	622	
0	0	0	0	0	599	627	
1	0	0	0	0	583	622	
2	0	0	0	0	569	622	
3	0	0	0	0	557	622	
4	0	0	0	0	546	616	
5	0	0	0	0	536	622	
6	0	0	0	0	527	622	
7	0	0	0	0	519	622	
8	0	0	0	0	512	626	
9	0	0	0	0	504	622	
10	0	0	0	0	498	622	
11	0	0	0	0	492	621	
12	0	0	0	0	486	616	
13	0	0	0	0	481	622	
14	0	0	0	0	476	622	
15	0	0	0	0	472	622	
0	0	0	0	0	468	625	
1	0	0	0	0	464	622	
2	0	0	0	0	460	622	
3	0	0	0	0	456	622	
4	0	0	0	0	452	617	
5	0	0	0	0	448	622	
6	0	0	0	0	445	621	
7	0	0	0	0	443	622	
8	0	0	0	0	441	626	
9	0	0	0	0	439	622	
10	0	0	0	0	436	622	
11	0	0	0	0	435	623	
12	0	0	0	0	433	618	
13	0	0	0	0	433	622	
14	0	0	0	0	432	622	
15	0	0	0	0	432	622	
0	0	0	0	0	431	626	
1	0	0	0	0	431	623	
2	0	0	0	0	430	623	
3	0	0	0	0	430	623	
4	0	0	0	0	430	618	
5	0	0	0	0	430	623	
6	0	0	0	0	431	623	
7	0	0	0	0	432	623	
8	0	0	0	0	433	627	
9	0	0	0	0	432	623	
10	0	0	0	0	431	622	
11	0	0	0	0	430	622	
12	0	0	0	0	430	617	
13	0	0	0	0	430	623	
14	0	0	0	0	430	622	
15	0	0	0	0	431	622	
0	0	0	0	0	430	626	
1	0	0	0	0	430	622	
2	0	0	0	0	430	621	
3	0	0	0	0	431	621	
4	0	0	0	0	432	616	
5	0	0	0	0	434	621	
6	0	0	0	0	435	620	
7	0	0	0	0	437	621	
8	0	0	0	0	437	625	
9	0	0	0	0	438	620	
10	0	0	0	0	439	620	
11	0	0	0	0	439	620	
12	0	0	0	0	439	616	
13	0	0	0	0	439	620	
14	0	0	0	0	438	620	
15	0	0	0	0	439	620	
0	0	0	0	0	439	624	
1	0	0	0	0	439	620	
2	0	0	0	0	439	620	
3	0	0	0	0	439	620	
4	0	0	0	0	439	615	
5	0	0	0	0	439	620	
6	0	0	0	0	440	620	
7	0	0	0	0	440	621	
8	0	0	0	0	441	625	
9	0	0	0	0	442	620	
10	0	0	0	0	442	620	
11	0	0	0	0	443	621	
12	0	0	0	0	444	615	
13	0	0	0	0	444	620	
14	0	0	0	0	445	620	
15	0	0	0	0	445	620	
0	0	0	0	0	445	625	
1	0	0	0	0	444	620	
2	0	0	0	0	443	621	
3	0	0	0	0	442	620	
4	0	0	0	0	442	615	
5	0	0	0	0	441	620	
6	0	0	0	0	440	621	
7	0	0	0	0	441	620	
8	0	0	0	0	442	624	
9	0	0	0	0	442	620	
10	0	0	0	0	442	620	
11	0	0	0	0	442	620	
12	0	0	0	0	441	615	
13	0	0	0	0	441	620	
14	0	0	0	0	440	620	
15	0	0	0	0	440	620	
0	0	0	0	0	441	624	
1	0	0	0	0	441	620	
2	0	0	0	0	442	619	
3	0	0	0	0	443	619	
4	0	0	0	0	444	614	
5	0	0	0	0	443	619	
6	0	0	0	0	444	618	
7	0	0	0	0	445	619	
8	0	0	0	0	446	623	
9	0	0	0	0	447	619	
10	0	0	0	0	447	619	
11	0	0	0	0	449	619	
12	0	0	0	0	451	614	
13	0	0	0	0	451	619	
14	0	0	0	0	452	619	
15	0	0	0	0	453	619	
0	0	0	0	0	453	623	
1	0	0	0	0	453	618	
2	0	0	0	0	453	618	
3	0	0	0	0	452	619	
4	0	0	0	0	451	613	
5	0	0	0	0	451	619	
6	0	0	0	0	450	618	
7	0	0	0	0	448	618	
8	0	0	0	0	447	623	
9	0	0	0	0	446	619	
10	0	0	0	0	444	618	
11	0	0	0	0	443	618	
12	0	0	0	0	443	614	
13	0	0	0	0	443	619	
14	0	0	0	0	444	619	
15	0	0	0	0	444	620	
0	0	0	0	0	445	624	
1	0	0	0	0	445	620	
2	0	0	0	0	446	620	
3	0	0	0	0	446	620	
4	0	0	0	0	445	616	
5	0	0	0	0	445	622	
6	0	0	0	0	446	622	
7	0	0	0	0	446	623	
8	0	0	0	0	446	627	
9	0	0	0	0	446	623	
10	0	0	0	0	446	623	
11	0	0	0	0	445	624	
12	0	0	0	0	445	619	
13	0	0	0	0	444	624	
14	0	0	0	0	445	624	
15	0	0	0	0	445	625	
0	0	0	0	0	445	629	
1	0	0	0	0	446	624	
2	0	0	0	0	447	625	
3	0	0	0	0	448	624	
4	0	0	0	0	450	620	
5	0	0	0	0	451	625	
6	0	0	0	0	454	625	
7	0	0	0	0	455	625	
8	0	0	0	0	457	630	
9	0	0	0	0	458	625	
10	0	0	0	0	459	625	
11	0	0	0	0	460	626	
12	0	0	0	0	460	620	
13	0	0	0	0	460	625	
14	0	0	0	0	460	625	
15	0	0	0	0	459	625	
0	0	0	0	0	458	629	
1	0	0	0	0	456	624	
2	0	0	0	0	456	625	
3	0	0	0	0	456	624	
4	0	0	0	0	456	620	
5	0	0	0	0	457	624	
6	0	0	0	0	459	625	
7	0	0	0	0	460	624	
8	0	0	0	0	461	628	
9	0	0	0	0	463	623	
10	0	0	0	0	465	624	
11	0	0	0	0	467	623	
12	0	0	0	0	470	619	
13	0	0	0	0	472	623	
14	0	0	0	0	474	623	
15	0	0	0	0	476	624	
0	0	0	0	0	479	627	
1	0	0	0	0	481	623	
2	0	0	0	0	482	624	
3	0	0	0	0	484	623	
4	0	0	0	0	486	619	
5	0	0	0	0	487	623	
6	0	0	0	0	489	623	
7	0	0	0	0	491	623	
8	0	0	0	0	492	627	
9	0	0	0	0	492	623	
10	0	0	0	0	493	622	
11	0	0	0	0	495	622	
12	0	0	0	0	497	617	
13	0	0	0	0	499	622	
14	0	0	0	0	503	622	
15	0	0	0	0	505	622	
0	0	0	0	0	508	627	
1	0	0	0	0	510	623	
2	0	0	0	0	512	622	
3	0	0	0	0	514	623	
4	0	0	0	0	515	617	
5	0	0	0	0	516	623	
6	0	0	0	0	517	622	
7	0	0	0	0	518	622	
8	0	0	0	0	519	626	
9	0	0	0	0	520	622	
10	0	0	0	0	521	622	
11	0	0	0	0	523	622	
12	0	0	0	0	524	616	
13	0	0	0	0	526	622	
14	0	0	0	0	527	622	
15	0	0	0	0	529	622	
0	0	0	0	0	531	627	
1	0	0	0	0	533	622	
2	0	0	0	0	535	623	
3	0	0	0	0	537	623	
4	0	0	0	0	540	618	
5	0	0	0	0	541	622	
6	0	0	0	0	543	622	
7	0	0	0	0	544	623	
8	0	0	0	0	544	627	
9	0	0	0	0	545	622	
10	0	0	0	0	547	622	
11	0	0	0	0	547	622	
12	0	0	0	0	547	618	
13	0	0	0	0	546	623	
14	0	0	0	0	544	623	
15	0	0	0	0	543	623	
0	0	0	0	0	543	626	
1	0	0	0	0	544	623	
2	0	0	0	0	544	622	
3	0	0	0	0	544	622	
4	0	0	0	0	546	617	
5	0	0	0	0	548	622	
6	0	0	0	0	551	623	
7	0	0	0	0	554	623	
8	0	0	0	0	556	627	
9	0	0	0	0	558	623	
10	0	0	0	0	558	622	
11	0	0	0	0	558	622	
12	0	0	0	0	558	618	
13	0	0	0	0	559	623	
14	0	0	0	0	559	622	
15	0	0	0	0	558	623	
0	0	0	0	0	558	627	
1	0	0	0	0	558	622	
2	0	0	0	0	558	622	
3	0	0	0	0	557	622	
4	0	0	0	0	557	617	
5	0	0	0	0	557	622	
6	0	0	0	0	557	622	
7	0	0	0	0	558	623	
8	0	0	0	0	558	627	
9	0	0	0	0	558	622	
10	0	0	0	0	558	623	
11	0	0	0	0	557	622	
12	0	0	0	0	558	618	
13	0	0	0	0	558	622	
14	0	0	0	0	558	623	
15	0	0	0	0	558	623	
0	0	0	0	0	559	627	
1	0	0	0	0	560	623	
2	0	0	0	0	559	623	
3	0	0	0	0	559	622	
4	0	0	0	0	558	618	
5	0	0	0	0	558	622	
6	0	0	0	0	557	622	
7	0	0	0	0	557	622	
8	0	0	0	0	555	626	
9	0	0	0	0	555	622	
10	0	0	0	0	554	622	
11	0	0	0	0	553	622	
12	0	0	0	0	551	617	
13	0	0	0	0	550	622	
14	0	0	0	0	548	623	
15	0	0	0	0	548	623	
0	0	0	0	0	548	627	
1	0	0	0	0	548	622	
2	0	0	0	0	548	622	
3	0	0	0	0	548	621	
4	0	0	0	0	548	617	
5	0	0	0	0	548	622	
6	0	0	0	0	548	621	
7	0	0	0	0	547	622	
8	0	0	0	0	547	625	
9	0	0	0	0	547	621	
10	0	0	0	0	546	622	
11	0	0	0	0	545	621	
12	0	0	0	0	544	617	
13	0	0	0	0	544	621	
14	0	0	0	0	545	620	
15	0	0	0	0	545	621	
0	0	0	0	0	545	625	
1	0	0	0	0	545	620	
2	0	0	0	0	545	620	
3	0	0	0	0	545	620	
4	0	0	0	0	545	615	
5	0	0	0	0	545	620	
6	0	0	0	0	544	620	
7	0	0	0	0	543	620	
8	0	0	0	0	543	625	
9	0	0	0	0	543	621	
10	0	0	0	0	542	620	
11	0	0	0	0	542	620	
12	0	0	0	0	541	616	
13	0	0	0	0	540	620	
14	0	0	0	0	538	620	
15	0	0	0	0	538	621	
0	0	0	0	0	537	625	
1	0	0	0	0	536	621	
2	0	0	0	0	537	620	
3	0	0	0	0	538	621	
4	0	0	0	0	538	615	
5	0	0	0	0	537	620	
6	0	0	0	0	537	620	
7	0	0	0	0	537	620	
8	0	0	0	0	537	624	
9	0	0	0	0	536	620	
10	0	0	0	0	536	620	
11	0	0	0	0	536	620	
12	0	0	0	0	536	615	
13	0	0	0	0	536	620	
14	0	0	0	0	536	620	
15	0	0	0	0	535	620	
0	0	0	0	0	535	625	
1	0	0	0	0	534	621	
2	0	0	0	0	534	621	
3	0	0	0	0	534	621	
4	0	0	0	0	534	616	
5	0	0	0	0	534	622	
6	0	0	0	0	534	621	
7	0	0	0	0	533	621	
8	0	0	0	0	532	626	
9	0	0	0	0	531	621	
10	0	0	0	0	530	621	
11	0	0	0	0	529	622	
12	0	0	0	0	529	616	
13	0	0	0	0	528	621	
14	0	0	0	0	528	621	
15	0	0	0	0	529	622	
0	0	0	0	0	529	625	
1	0	0	0	0	529	622	
2	0	0	0	0	531	621	
3	0	0	0	0	531	621	
4	0	0	0	0	532	616	
5	0	0	0	0	531	621	
6	0	0	0	0	530	621	
7	0	0	0	0	530	621	
8	0	0	0	0	530	625	
9	0	0	0	0	531	621	
10	0	0	0	0	531	621	
11	0	0	0	0	531	621	
12	0	0	0	0	530	617	
13	0	0	0	0	531	621	
14	0	0	0	0	530	622	
15	0	0	0	0	530	621	
0	0	0	0	0	530	625	
1	0	0	0	0	528	621	
2	0	0	0	0	527	621	
3	0	0	0	0	526	621	
4	0	0	0	0	525	617	
5	0	0	0	0	524	621	
6	0	0	0	0	523	622	
7	0	0	0	0	523	622	
8	0	0	0	0	522	626	
9	0	0	0	0	523	622	
10	0	0	0	0	524	622	
11	0	0	0	0	525	622	
12	0	0	0	0	524	617	
13	0	0	0	0	523	623	
14	0	0	0	0	522	622	
15	0	0	0	0	523	623	
0	0	0	0	0	523	627	
1	0	0	0	0	526	623	
2	0	0	0	0	527	623	
3	0	0	0	0	527	623	
4	0	0	0	0	528	619	
5	0	0	0	0	528	623	
6	0	0	0	0	529	623	
7	0	0	0	0	531	624	
8	0	0	0	0	531	627	
9	0	0	0	0	531	624	
10	0	0	0	0	529	624	
11	0	0	0	0	528	624	
12	0	0	0	0	526	619	
13	0	0	0	0	525	624	
14	0	0	0	0	524	624	
15	0	0	0	0	523	623	
0	0	0	0	0	521	627	
1	0	0	0	0	520	623	
2	0	0	0	0	520	623	
3	0	0	0	0	520	623	
4	0	0	0	0	521	618	
5	0	0	0	0	522	623	
6	0	0	0	0	524	624	
7	0	0	0	0	525	624	
8	0	0	0	0	526	627	
9	0	0	0	0	526	623	
10	0	0	0	0	525	623	
11	0	0	0	0	525	623	
12	0	0	0	0	524	618	
13	0	0	0	0	524	623	
14	0	0	0	0	524	623	
15	0	0	0	0	523	623	
0	0	0	0	0	523	627	
1	0	0	0	0	522	623	
2	0	0	0	0	522	623	
3	0	0	0	0	522	622	
4	0	0	0	0	521	617	
5	0	0	0	0	521	623	
6	0	0	0	0	520	622	
7	0	0	0	0	520	622	
8	0	0	0	0	520	625	
9	0	0	0	0	519	621	
10	0	0	0	0	517	621	
11	0	0	0	0	515	620	
12	0	0	0	0	514	616	
13	0	0	0	0	512	622	
14	0	0	0	0	511	621	
15	0	0	0	0	511	621	
0	0	0	0	0	512	625	
1	0	0	0	0	512	622	
2	0	0	0	0	514	621	
3	0	0	0	0	516	621	
4	0	0	0	0	518	616	
5	0	0	0	0	519	620	
6	0	0	0	0	520	621	
7	0	0	0	0	521	621	
8	0	0	0	0	522	624	
9	0	0	0	0	523	620	
10	0	0	0	0	523	620	
11	0	0	0	0	524	620	
12	0	0	0	0	523	616	
13	0	0	0	0	523	621	
14	0	0	0	0	523	622	
15	0	0	0	0	523	621	
0	0	0	0	0	524	625	
1	0	0	0	0	524	621	
2	0	0	0	0	525	620	
3	0	0	0	0	526	620	
4	0	0	0	0	526	616	
5	0	0	0	0	525	621	
6	0	0	0	0	526	621	
7	0	0	0	0	526	621	
8	0	0	0	0	526	625	
9	0	0	0	0	525	620	
10	0	0	0	0	525	621	
11	0	0	0	0	524	621	
12	0	0	0	0	524	616	
13	0	0	0	0	524	621	
14	0	0	0	0	524	620	
15	0	0	0	0	524	621	
0	0	0	0	0	523	625	
1	0	0	0	0	522	620	
2	0	0	0	0	521	620	
3	0	0	0	0	521	620	
4	0	0	0	0	522	615	
5	0	0	0	0	523	620	
6	0	0	0	0	524	620	
7	0	0	0	0	525	620	
8	0	0	0	0	526	624	
9	0	0	0	0	526	620	
10	0	0	0	0	526	620	
11	0	0	0	0	525	620	
12	0	0	0	0	525	615	
13	0	0	0	0	525	620	
14	0	0	0	0	525	620	
15	0	0	0	0	524	620	
0	0	0	0	0	524	624	
1	0	0	0	0	525	621	
2	0	0	0	0	525	620	
3	0	0	0	0	526	619	
4	0	0	0	0	526	615	
5	0	0	0	0	525	620	
6	0	0	0	0	525	620	
7	0	0	0	0	525	620	
8	0	0	0	0	526	624	
9	0	0	0	0	527	620	
10	0	0	0	0	527	620	
11	0	0	0	0	526	621	
12	0	0	0	0	525	616	
13	0	0	0	0	525	620	
14	0	0	0	0	525	620	
15	0	0	0	0	525	621	
0	0	0	0	0	523	625	
1	0	0	0	0	523	620	
2	0	0	0	0	523	621	
3	0	0	0	0	522	621	
4	0	0	0	0	521	615	
5	0	0	0	0	521	621	
6	0	0	0	0	521	621	
7	0	0	0	0	521	621	
8	0	0	0	0	521	625	
9	0	0	0	0	521	621	
10	0	0	0	0	521	621	
11	0	0	0	0	521	621	
12	0	0	0	0	521	617	
13	0	0	0	0	520	622	
14	0	0	0	0	520	621	
15	0	0	0	0	521	622	
0	0	0	0	0	521	626	
1	0	0	0	0	522	622	
2	0	0	0	0	523	621	
3	0	0	0	0	523	621	
4	0	0	0	0	523	617	
5	0	0	0	0	523	621	
6	0	0	0	0	523	621	
7	0	0	0	0	522	622	
8	0	0	0	0	521	626	
9	0	0	0	0	520	622	
10	0	0	0	0	518	622	
11	0	0	0	0	515	622	
12	0	0	0	0	513	617	
13	0	0	0	0	510	622	
14	0	0	0	0	505	622	
15	0	0	0	0	498	622	
0	0	0	0	0	492	626	
1	0	0	0	0	485	622	
2	0	0	0	0	479	622	
3	0	0	0	0	473	622	
4	0	0	0	0	467	617	
5	0	0	0	0	460	623	
6	0	0	0	0	453	623	
7	0	0	0	0	445	623	
8	0	0	0	0	438	627	
9	0	0	0	0	432	622	
10	0	0	0	0	426	622	
11	0	0	0	0	420	622	
12	0	0	0	0	415	617	
13	0	0	0	0	409	622	
14	0	0	0	0	405	622	
15	0	0	0	0	400	622	
0	0	0	0	0	395	626	
1	0	0	0	0	390	622	
2	0	0	0	0	385	622	
3	0	0	0	0	384	620	
4	0	0	0	0	387	616	
5	0	0	0	0	392	622	
6	0	0	0	0	402	622	
7	0	0	0	0	419	622	
8	0	0	0	0	442	627	
9	0	0	0	0	468	622	
10	0	0	0	0	497	622	
11	0	0	0	0	531	622	
12	0	0	0	0	562	618	
13	0	0	0	0	591	622	
14	0	0	0	0	621	622	
15	0	0	0	0	656	622	
0	0	0	0	0	688	626	
1	0	0	0	0	716	622	
2	0	0	0	0	742	622	
3	0	0	0	0	768	621	
4	0	0	0	0	786	617	
5	0	0	0	0	800	622	
6	0	0	0	0	814	622	
7	0	0	0	0	830	622	
8	0	0	0	0	850	626	
9	0	0	0	0	866	621	
10	0	0	0	0	885	621	
11	0	0	0	0	904	621	
12	0	0	0	0	911	616	
13	0	0	0	0	903	620	
14	0	0	0	0	889	620	
15	0	0	0	0	871	621	
0	0	0	0	0	851	625	
1	0	0	0	0	829	621	
2	0	0	0	0	805	621	
3	0	0	0	0	781	620	
4	0	0	0	0	757	615	
5	0	0	0	0	734	620	
6	0	0	0	0	713	620	
7	0	0	0	0	692	620	
8	0	0	0	0	673	624	
9	0	0	0	0	655	621	
10	0	0	0	0	637	621	
11	0	0	0	0	620	620	
12	0	0	0	0	604	616	
13	0	0	0	0	588	620	
14	0	0	0	0	574	620	
15	0	0	0	0	560	621	
0	0	0	0	0	547	625	
1	0	0	0	0	535	622	
2	0	0	0	0	524	621	
3	0	0	0	0	514	621	
4	0	0	0	0	506	617	
5	0	0	0	0	497	621	
6	0	0	0	0	489	622	
7	0	0	0	0	481	622	
8	0	0	0	0	475	626	
9	0	0	0	0	469	622	
10	0	0	0	0	464	622	
11	0	0	0	0	461	622	
12	0	0	0	0	458	618	
13	0	0	0	0	454	622	
14	0	0	0	0	450	622	
15	0	0	0	0	447	623	
0	0	0	0	0	444	627	
1	0	0	0	0	441	623	
2	0	0	0	0	439	623	
3	0	0	0	0	437	623	
4	0	0	0	0	436	618	
5	0	0	0	0	434	623	
6	0	0	0	0	432	623	
7	0	0	0	0	431	623	
8	0	0	0	0	430	627	
9	0	0	0	0	430	623	
10	0	0	0	0	429	623	
11	0	0	0	0	428	623	
12	0	0	0	0	428	618	
13	0	0	0	0	427	623	
14	0	0	0	0	426	623	
15	0	0	0	0	425	623	
0	0	0	0	0	425	627	
1	0	0	0	0	425	623	
2	0	0	0	0	425	623	
3	0	0	0	0	424	623	
4	0	0	0	0	424	618	
5	0	0	0	0	425	623	
6	0	0	0	0	426	623	
7	0	0	0	0	428	623	
8	0	0	0	0	429	627	
9	0	0	0	0	429	622	
10	0	0	0	0	430	622	
11	0	0	0	0	429	622	
12	0	0	0	0	428	617	
13	0	0	0	0	427	622	
14	0	0	0	0	427	622	
15	0	0	0	0	428	622	
0	0	0	0	0	428	625	
1	0	0	0	0	430	622	
2	0	0	0	0	429	622	
3	0	0	0	0	430	622	
4	0	0	0	0	431	617	
5	0	0	0	0	431	621	
6	0	0	0	0	431	621	
7	0	0	0	0	432	622	
8	0	0	0	0	432	625	
9	0	0	0	0	432	621	
10	0	0	0	0	433	620	
11	0	0	0	0	434	620	
12	0	0	0	0	434	616	
13	0	0	0	0	435	621	
14	0	0	0	0	435	620	
15	0	0	0	0	435	620	
0	0	0	0	0	435	625	
1	0	0	0	0	436	620	
2	0	0	0	0	436	620	
3	0	0	0	0	437	620	
4	0	0	0	0	438	615	
5	0	0	0	0	439	619	
6	0	0	0	0	440	619	
7	0	0	0	0	441	620	
8	0	0	0	0	443	624	
9	0	0	0	0	444	619	
10	0	0	0	0	443	620	
11	0	0	0	0	443	619	
12	0	0	0	0	441	615	
13	0	0	0	0	440	620	
14	0	0	0	0	440	620	
15	0	0	0	0	438	621	
0	0	0	0	0	436	624	
1	0	0	0	0	435	620	
2	0	0	0	0	434	620	
3	0	0	0	0	434	620	
4	0	0	0	0	434	615	
5	0	0	0	0	435	620	
6	0	0	0	0	436	620	
7	0	0	0	0	438	620	
8	0	0	0	0	439	624	
9	0	0	0	0	441	621	
10	0	0	0	0	443	620	
11	0	0	0	0	444	620	
12	0	0	0	0	444	615	
13	0	0	0	0	445	621	
14	0	0	0	0	445	621	
15	0	0	0	0	446	621	
0	0	0	0	0	446	625	
1	0	0	0	0	445	621	
2	0	0	0	0	445	621	
3	0	0	0	0	444	621	
4	0	0	0	0	444	616	
5	0	0	0	0	442	622	
6	0	0	0	0	441	621	
7	0	0	0	0	440	621	
8	0	0	0	0	440	626	
9	0	0	0	0	440	621	
10	0	0	0	0	439	621	
11	0	0	0	0	439	621	
12	0	0	0	0	439	616	
13	0	0	0	0	440	622	
14	0	0	0	0	441	621	
15	0	0	0	0	440	622	
0	0	0	0	0	441	626	
1	0	0	0	0	441	622	
2	0	0	0	0	441	623	
3	0	0	0	0	442	622	
4	0	0	0	0	442	618	
5	0	0	0	0	443	622	
6	0	0	0	0	443	622	
7	0	0	0	0	444	623	
8	0	0	0	0	443	627	
9	0	0	0	0	443	623	
10	0	0	0	0	441	623	
11	0	0	0	0	441	622	
12	0	0	0	0	441	618	
13	0	0	0	0	439	622	
14	0	0	0	0	439	622	
15	0	0	0	0	438	623	
0	0	0	0	0	438	627	
1	0	0	0	0	438	623	
2	0	0	0	0	438	622	
3	0	0	0	0	439	623	
4	0	0	0	0	439	617	
5	0	0	0	0	440	622	
6	0	0	0	0	441	622	
7	0	0	0	0	441	622	
8	0	0	0	0	442	625	
9	0	0	0	0	444	622	
10	0	0	0	0	444	622	
11	0	0	0	0	445	621	
12	0	0	0	0	445	616	
13	0	0	0	0	446	621	
14	0	0	0	0	446	621	
15	0	0	0	0	445	621	
0	0	0	0	0	445	625	
1	0	0	0	0	445	620	
2	0	0	0	0	444	620	
3	0	0	0	0	443	620	
4	0	0	0	0	442	615	
5	0	0	0	0	442	620	
6	0	0	0	0	441	619	
7	0	0	0	0	443	620	
8	0	0	0	0	444	624	
9	0	0	0	0	447	620	
10	0	0	0	0	449	620	
11	0	0	0	0	452	619	
12	0	0	0	0	455	615	
13	0	0	0	0	457	619	
14	0	0	0	0	459	619	
15	0	0	0	0	460	620	
0	0	0	0	0	462	624	
1	0	0	0	0	463	620	
2	0	0	0	0	464	619	
3	0	0	0	0	464	619	
4	0	0	0	0	464	615	
5	0	0	0	0	464	619	
6	0	0	0	0	465	619	
7	0	0	0	0	466	619	
8	0	0	0	0	468	623	
9	0	0	0	0	470	619	
10	0	0	0	0	470	619	
11	0	0	0	0	472	618	
12	0	0	0	0	473	614	
13	0	0	0	0	474	618	
14	0	0	0	0	476	619	
15	0	0	0	0	478	619	
0	0	0	0	0	480	623	
1	0	0	0	0	483	619	
2	0	0	0	0	486	618	
3	0	0	0	0	489	619	
4	0	0	0	0	492	614	
5	0	0	0	0	494	619	
6	0	0	0	0	496	619	
7	0	0	0	0	496	618	
8	0	0	0	0	498	623	
9	0	0	0	0	499	619	
10	0	0	0	0	501	619	
11	0	0	0	0	503	619	
12	0	0	0	0	505	615	
13	0	0	0	0	507	619	
14	0	0	0	0	509	619	
15	0	0	0	0	511	619	
0	0	0	0	0	513	624	
1	0	0	0	0	515	620	
2	0	0	0	0	517	620	
3	0	0	0	0	518	620	
4	0	0	0	0	520	615	
5	0	0	0	0	522	620	
6	0	0	0	0	524	620	
7	0	0	0	0	526	621	
8	0	0	0	0	526	625	
9	0	0	0	0	527	621	
10	0	0	0	0	528	620	
11	0	0	0	0	529	621	
12	0	0	0	0	529	617	
13	0	0	0	0	529	622	
14	0	0	0	0	531	621	
15	0	0	0	0	532	622	
0	0	0	0	0	534	625	
1	0	0	0	0	536	622	
2	0	0	0	0	538	622	
3	0	0	0	0	540	622	
4	0	0	0	0	542	617	
5	0	0	0	0	543	622	
6	0	0	0	0	544	622	
7	0	0	0	0	545	622	
8	0	0	0	0	546	627	
9	0	0	0	0	547	623	
10	0	0	0	0	548	623	
11	0	0	0	0	548	623	
12	0	0	0	0	549	618	
13	0	0	0	0	550	623	
14	0	0	0	0	550	623	
15	0	0	0	0	550	623	
0	0	0	0	0	550	627	
1	0	0	0	0	550	623	
2	0	0	0	0	550	623	
3	0	0	0	0	551	623	
4	0	0	0	0	551	618	
5	0	0	0	0	552	623	
6	0	0	0	0	552	623	
7	0	0	0	0	553	623	
8	0	0	0	0	554	628	
9	0	0	0	0	555	623	
10	0	0	0	0	556	623	
11	0	0	0	0	556	623	
12	0	0	0	0	557	619	
13	0	0	0	0	558	623	
14	0	0	0	0	559	623	
15	0	0	0	0	559	623	
0	0	0	0	0	558	627	
1	0	0	0	0	558	623	
2	0	0	0	0	557	623	
3	0	0	0	0	556	623	
4	0	0	0	0	555	617	
5	0	0	0	0	555	623	
6	0	0	0	0	555	622	
7	0	0	0	0	555	622	
8	0	0	0	0	555	626	
9	0	0	0	0	556	622	
10	0	0	0	0	556	622	
11	0	0	0	0	557	622	
12	0	0	0	0	558	617	
13	0	0	0	0	559	621	
14	0	0	0	0	559	621	
15	0	0	0	0	559	622	
0	0	0	0	0	559	625	
1	0	0	0	0	558	621	
2	0	0	0	0	557	621	
3	0	0	0	0	556	620	
4	0	0	0	0	554	615	
5	0	0	0	0	552	620	
6	0	0	0	0	552	620	
7	0	0	0	0	553	620	
8	0	0	0	0	553	624	
9	0	0	0	0	554	620	
10	0	0	0	0	554	620	
11	0	0	0	0	554	620	
12	0	0	0	0	554	615	
13	0	0	0	0	553	620	
14	0	0	0	0	553	619	
15	0	0	0	0	551	620	
0	0	0	0	0	551	624	
1	0	0	0	0	551	620	
2	0	0	0	0	551	619	
3	0	0	0	0	551	619	
4	0	0	0	0	550	615	
5	0	0	0	0	550	619	
6	0	0	0	0	550	619	
7	0	0	0	0	549	620	
8	0	0	0	0	548	623	
9	0	0	0	0	547	619	
10	0	0	0	0	547	619	
11	0	0	0	0	546	619	
12	0	0	0	0	546	615	
13	0	0	0	0	545	620	
14	0	0	0	0	544	620	
15	0	0	0	0	544	620	
0	0	0	0	0	543	624	
1	0	0	0	0	543	620	
2	0	0	0	0	543	620	
3	0	0	0	0	544	620	
4	0	0	0	0	545	615	
5	0	0	0	0	545	620	
6	0	0	0	0	546	621	
7	0	0	0	0	546	621	
8	0	0	0	0	546	625	
9	0	0	0	0	546	621	
10	0	0	0	0	545	621	
11	0	0	0	0	545	622	
12	0	0	0	0	544	617	
13	0	0	0	0	543	622	
14	0	0	0	0	543	622	
15	0	0	0	0	541	622	
0	0	0	0	0	539	627	
1	0	0	0	0	538	622	
2	0	0	0	0	536	622	
3	0	0	0	0	535	623	
4	0	0	0	0	534	618	
5	0	0	0	0	534	623	
6	0	0	0	0	535	623	
7	0	0	0	0	536	623	
8	0	0	0	0	536	627	
9	0	0	0	0	537	623	
10	0	0	0	0	537	624	
11	0	0	0	0	538	623	
12	0	0	0	0	538	619	
13	0	0	0	0	538	623	
14	0	0	0	0	538	623	
15	0	0	0	0	538	624	
0	0	0	0	0	537	628	
1	0	0	0	0	537	624	
2	0	0	0	0	536	624	
3	0	0	0	0	535	624	
4	0	0	0	0	534	619	
5	0	0	0	0	532	625	
6	0	0	0	0	532	625	
7	0	0	0	0	532	626	
8	0	0	0	0	532	630	
9	0	0	0	0	532	627	
10	0	0	0	0	532	626	
11	0	0	0	0	534	627	
12	0	0	0	0	535	622	
13	0	0	0	0	536	627	
14	0	0	0	0	537	627	
15	0	0	0	0	537	627	
0	0	0	0	0	537	632	
1	0	0	0	0	537	627	
2	0	0	0	0	536	627	
3	0	0	0	0	536	628	
4	0	0	0	0	534	624	
5	0	0	0	0	532	629	
6	0	0	0	0	531	629	
7	0	0	0	0	530	630	
8	0	0	0	0	529	634	
9	0	0	0	0	528	630	
10	0	0	0	0	527	630	
11	0	0	0	0	527	630	
12	0	0	0	0	527	625	
13	0	0	0	0	527	631	
14	0	0	0	0	526	631	
15	0	0	0	0	527	631	
0	0	0	0	0	527	635	
1	0	0	0	0	528	631	
2	0	0	0	0	529	631	
3	0	0	0	0	530	631	
4	0	0	0	0	531	626	
5	0	0	0	0	532	631	
6	0	0	0	0	533	630	
7	0	0	0	0	534	631	
8	0	0	0	0	534	635	
9	0	0	0	0	535	630	
10	0	0	0	0	536	631	
11	0	0	0	0	536	630	
12	0	0	0	0	537	626	
13	0	0	0	0	537	630	
14	0	0	0	0	537	631	
15	0	0	0	0	537	630	
0	0	0	0	0	538	634	
1	0	0	0	0	538	630	
2	0	0	0	0	537	630	
3	0	0	0	0	537	628	
4	0	0	0	0	537	624	
5	0	0	0	0	536	628	
6	0	0	0	0	535	629	
7	0	0	0	0	532	627	
8	0	0	0	0	529	632	
9	0	0	0	0	526	627	
10	0	0	0	0	521	626	
11	0	0	0	0	517	626	
12	0	0	0	0	515	621	
13	0	0	0	0	515	625	
14	0	0	0	0	516	625	
15	0	0	0	0	518	625	
0	0	0	0	0	521	629	
1	0	0	0	0	524	624	
2	0	0	0	0	527	624	
3	0	0	0	0	528	623	
4	0	0	0	0	528	619	
5	0	0	0	0	528	623	
6	0	0	0	0	527	622	
7	0	0	0	0	527	622	
8	0	0	0	0	526	626	
9	0	0	0	0	525	621	
10	0	0	0	0	524	621	
11	0	0	0	0	524	620	
12	0	0	0	0	524	616	
13	0	0	0	0	525	621	
14	0	0	0	0	525	620	
15	0	0	0	0	525	620	
0	0	0	0	0	525	624	
1	0	0	0	0	525	619	
2	0	0	0	0	525	620	
3	0	0	0	0	524	619	
4	0	0	0	0	523	615	
5	0	0	0	0	523	619	
6	0	0	0	0	522	619	
7	0	0	0	0	521	618	
8	0	0	0	0	518	622	
9	0	0	0	0	515	617	
10	0	0	0	0	512	618	
11	0	0	0	0	510	617	
12	0	0	0	0	508	613	
13	0	0	0	0	506	617	
14	0	0	0	0	506	617	
15	0	0	0	0	506	616	
0	0	0	0	0	508	621	
1	0	0	0	0	510	617	
2	0	0	0	0	512	617	
3	0	0	0	0	512	618	
