# OpenSignals Text File Format. Version 1
# {"98:D3:91:FD:59:64": {"position": 0, "device": "bitalino_rev", "device name": "98:D3:91:FD:59:64", "device connection": "BTH98:D3:91:FD:59:64", "sampling rate": 1000, "resolution": [4, 1, 1, 1, 1, 10, 10], "firmware version": 1281, "comments": "", "keywords": "", "mode": 0, "sync interval": 2, "date": "2021-9-15", "time": "11:30:17.789", "channels": [2, 5], "sensor": ["RAW", "RAW"], "label": ["A2", "A5"], "column": ["nSeq", "I1", "I2", "O1", "O2", "A2", "A5"], "special": [{}, {}], "digital IO": [0, 0, 1, 1], "convertedValues": 0}}
# EndOfHeader
0	0	0	0	0	520	633	
1	0	0	0	0	522	633	
2	0	0	0	0	523	633	
3	0	0	0	0	523	633	
4	0	0	0	0	523	633	
5	0	0	0	0	524	632	
6	0	0	0	0	524	632	
7	0	0	0	0	525	632	
8	0	0	0	0	525	631	
9	0	0	0	0	526	631	
10	0	0	0	0	526	631	
11	0	0	0	0	525	631	
12	0	0	0	0	526	630	
13	0	0	0	0	527	630	
14	0	0	0	0	530	629	
15	0	0	0	0	532	630	
0	0	0	0	0	535	629	
1	0	0	0	0	535	628	
2	0	0	0	0	536	628	
3	0	0	0	0	537	628	
4	0	0	0	0	538	627	
5	0	0	0	0	538	627	
6	0	0	0	0	538	627	
7	0	0	0	0	539	627	
8	0	0	0	0	540	626	
9	0	0	0	0	540	626	
10	0	0	0	0	540	626	
11	0	0	0	0	540	624	
12	0	0	0	0	541	624	
13	0	0	0	0	540	624	
14	0	0	0	0	540	623	
15	0	0	0	0	539	624	
0	0	0	0	0	538	622	
1	0	0	0	0	537	622	
2	0	0	0	0	535	621	
3	0	0	0	0	534	621	
4	0	0	0	0	533	620	
5	0	0	0	0	531	619	
6	0	0	0	0	531	618	
7	0	0	0	0	532	618	
8	0	0	0	0	534	617	
9	0	0	0	0	534	616	
10	0	0	0	0	535	615	
11	0	0	0	0	534	614	
12	0	0	0	0	534	614	
13	0	0	0	0	533	613	
14	0	0	0	0	533	612	
15	0	0	0	0	533	612	
0	0	0	0	0	533	612	
1	0	0	0	0	532	611	
2	0	0	0	0	531	611	
3	0	0	0	0	531	610	
4	0	0	0	0	531	610	
5	0	0	0	0	532	610	
6	0	0	0	0	532	611	
7	0	0	0	0	532	610	
8	0	0	0	0	534	611	
9	0	0	0	0	535	610	
10	0	0	0	0	535	611	
11	0	0	0	0	535	612	
12	0	0	0	0	536	612	
13	0	0	0	0	535	614	
14	0	0	0	0	535	614	
15	0	0	0	0	534	615	
0	0	0	0	0	534	617	
1	0	0	0	0	535	617	
2	0	0	0	0	535	619	
3	0	0	0	0	533	621	
4	0	0	0	0	532	621	
5	0	0	0	0	532	623	
6	0	0	0	0	531	623	
7	0	0	0	0	529	625	
8	0	0	0	0	528	625	
9	0	0	0	0	527	626	
10	0	0	0	0	526	626	
11	0	0	0	0	524	627	
12	0	0	0	0	523	627	
13	0	0	0	0	522	627	
14	0	0	0	0	523	627	
15	0	0	0	0	523	627	
0	0	0	0	0	523	626	
1	0	0	0	0	521	627	
2	0	0	0	0	521	626	
3	0	0	0	0	521	626	
4	0	0	0	0	521	626	
5	0	0	0	0	521	626	
6	0	0	0	0	523	626	
7	0	0	0	0	523	627	
8	0	0	0	0	522	625	
9	0	0	0	0	523	626	
10	0	0	0	0	522	625	
11	0	0	0	0	523	627	
12	0	0	0	0	523	627	
13	0	0	0	0	524	627	
14	0	0	0	0	524	626	
15	0	0	0	0	524	627	
0	0	0	0	0	525	627	
1	0	0	0	0	526	627	
2	0	0	0	0	526	627	
3	0	0	0	0	526	627	
4	0	0	0	0	527	628	
5	0	0	0	0	526	628	
6	0	0	0	0	526	628	
7	0	0	0	0	526	629	
8	0	0	0	0	525	629	
9	0	0	0	0	524	629	
10	0	0	0	0	524	630	
11	0	0	0	0	523	630	
12	0	0	0	0	523	630	
13	0	0	0	0	522	630	
14	0	0	0	0	521	631	
15	0	0	0	0	520	631	
0	0	0	0	0	519	631	
1	0	0	0	0	518	631	
2	0	0	0	0	517	632	
3	0	0	0	0	516	632	
4	0	0	0	0	516	633	
5	0	0	0	0	516	632	
6	0	0	0	0	515	633	
7	0	0	0	0	515	633	
8	0	0	0	0	515	633	
9	0	0	0	0	515	633	
10	0	0	0	0	516	633	
11	0	0	0	0	516	634	
12	0	0	0	0	516	633	
13	0	0	0	0	515	632	
14	0	0	0	0	514	632	
15	0	0	0	0	513	632	
0	0	0	0	0	512	631	
1	0	0	0	0	512	630	
2	0	0	0	0	511	629	
3	0	0	0	0	511	629	
4	0	0	0	0	511	627	
5	0	0	0	0	510	627	
6	0	0	0	0	509	627	
7	0	0	0	0	508	627	
8	0	0	0	0	508	625	
9	0	0	0	0	507	625	
10	0	0	0	0	507	624	
11	0	0	0	0	508	624	
12	0	0	0	0	507	623	
13	0	0	0	0	507	623	
14	0	0	0	0	507	622	
15	0	0	0	0	507	622	
0	0	0	0	0	506	621	
1	0	0	0	0	506	621	
2	0	0	0	0	507	620	
3	0	0	0	0	507	619	
4	0	0	0	0	506	619	
5	0	0	0	0	505	619	
6	0	0	0	0	505	619	
7	0	0	0	0	504	618	
8	0	0	0	0	503	617	
9	0	0	0	0	502	617	
10	0	0	0	0	502	616	
11	0	0	0	0	501	617	
12	0	0	0	0	501	616	
13	0	0	0	0	500	616	
14	0	0	0	0	500	616	
15	0	0	0	0	500	616	
0	0	0	0	0	500	617	
1	0	0	0	0	500	617	
2	0	0	0	0	500	618	
3	0	0	0	0	500	618	
4	0	0	0	0	500	618	
5	0	0	0	0	500	618	
6	0	0	0	0	501	619	
7	0	0	0	0	500	619	
8	0	0	0	0	500	619	
9	0	0	0	0	500	619	
10	0	0	0	0	499	620	
11	0	0	0	0	499	620	
12	0	0	0	0	498	621	
13	0	0	0	0	496	622	
14	0	0	0	0	496	623	
15	0	0	0	0	496	624	
0	0	0	0	0	496	624	
1	0	0	0	0	496	626	
2	0	0	0	0	497	626	
3	0	0	0	0	498	627	
4	0	0	0	0	498	628	
5	0	0	0	0	497	629	
6	0	0	0	0	496	629	
7	0	0	0	0	496	630	
8	0	0	0	0	495	630	
9	0	0	0	0	494	630	
10	0	0	0	0	494	630	
11	0	0	0	0	494	630	
12	0	0	0	0	493	630	
13	0	0	0	0	494	629	
14	0	0	0	0	493	627	
15	0	0	0	0	492	628	
0	0	0	0	0	492	626	
1	0	0	0	0	493	625	
2	0	0	0	0	492	625	
3	0	0	0	0	492	624	
4	0	0	0	0	493	623	
5	0	0	0	0	493	622	
6	0	0	0	0	494	620	
7	0	0	0	0	493	620	
8	0	0	0	0	494	618	
9	0	0	0	0	494	616	
10	0	0	0	0	493	615	
11	0	0	0	0	493	614	
12	0	0	0	0	493	613	
13	0	0	0	0	493	611	
14	0	0	0	0	494	611	
15	0	0	0	0	494	611	
0	0	0	0	0	495	610	
1	0	0	0	0	496	609	
2	0	0	0	0	496	609	
3	0	0	0	0	494	609	
4	0	0	0	0	494	609	
5	0	0	0	0	494	609	
6	0	0	0	0	495	608	
7	0	0	0	0	495	608	
8	0	0	0	0	494	608	
9	0	0	0	0	494	608	
10	0	0	0	0	494	608	
11	0	0	0	0	495	609	
12	0	0	0	0	495	609	
13	0	0	0	0	495	609	
14	0	0	0	0	494	609	
15	0	0	0	0	495	610	
0	0	0	0	0	495	611	
1	0	0	0	0	494	612	
2	0	0	0	0	493	615	
3	0	0	0	0	492	617	
4	0	0	0	0	490	620	
5	0	0	0	0	490	621	
6	0	0	0	0	489	623	
7	0	0	0	0	490	624	
8	0	0	0	0	490	625	
9	0	0	0	0	490	627	
10	0	0	0	0	491	628	
11	0	0	0	0	490	630	
12	0	0	0	0	490	630	
13	0	0	0	0	490	631	
14	0	0	0	0	491	633	
15	0	0	0	0	492	633	
0	0	0	0	0	493	633	
1	0	0	0	0	493	635	
2	0	0	0	0	494	635	
3	0	0	0	0	494	636	
4	0	0	0	0	495	635	
5	0	0	0	0	496	635	
6	0	0	0	0	496	635	
7	0	0	0	0	495	635	
8	0	0	0	0	494	635	
9	0	0	0	0	495	635	
10	0	0	0	0	494	636	
11	0	0	0	0	494	637	
12	0	0	0	0	494	636	
13	0	0	0	0	494	636	
14	0	0	0	0	495	637	
15	0	0	0	0	495	638	
0	0	0	0	0	495	638	
1	0	0	0	0	495	638	
2	0	0	0	0	495	638	
3	0	0	0	0	495	638	
4	0	0	0	0	494	639	
5	0	0	0	0	495	639	
6	0	0	0	0	495	638	
7	0	0	0	0	494	639	
8	0	0	0	0	494	638	
9	0	0	0	0	495	638	
10	0	0	0	0	496	639	
11	0	0	0	0	496	639	
12	0	0	0	0	496	640	
13	0	0	0	0	496	641	
14	0	0	0	0	496	642	
15	0	0	0	0	496	642	
0	0	0	0	0	496	642	
1	0	0	0	0	496	642	
2	0	0	0	0	496	642	
3	0	0	0	0	496	641	
4	0	0	0	0	495	641	
5	0	0	0	0	496	640	
6	0	0	0	0	496	639	
7	0	0	0	0	497	639	
8	0	0	0	0	497	639	
9	0	0	0	0	497	639	
10	0	0	0	0	496	639	
11	0	0	0	0	497	638	
12	0	0	0	0	499	639	
13	0	0	0	0	499	639	
14	0	0	0	0	499	638	
15	0	0	0	0	499	640	
0	0	0	0	0	500	639	
1	0	0	0	0	501	639	
2	0	0	0	0	503	639	
3	0	0	0	0	503	639	
4	0	0	0	0	503	639	
5	0	0	0	0	502	638	
6	0	0	0	0	502	639	
7	0	0	0	0	502	639	
8	0	0	0	0	502	638	
9	0	0	0	0	502	637	
10	0	0	0	0	502	637	
11	0	0	0	0	503	637	
12	0	0	0	0	503	636	
13	0	0	0	0	504	636	
14	0	0	0	0	504	635	
15	0	0	0	0	503	635	
0	0	0	0	0	502	633	
1	0	0	0	0	501	632	
2	0	0	0	0	499	632	
3	0	0	0	0	498	632	
4	0	0	0	0	498	630	
5	0	0	0	0	497	630	
6	0	0	0	0	498	628	
7	0	0	0	0	498	628	
8	0	0	0	0	499	627	
9	0	0	0	0	502	625	
10	0	0	0	0	504	625	
11	0	0	0	0	505	624	
12	0	0	0	0	505	624	
13	0	0	0	0	506	623	
14	0	0	0	0	506	623	
15	0	0	0	0	505	623	
0	0	0	0	0	505	623	
1	0	0	0	0	505	622	
2	0	0	0	0	505	620	
3	0	0	0	0	505	621	
4	0	0	0	0	505	620	
5	0	0	0	0	505	620	
6	0	0	0	0	505	619	
7	0	0	0	0	506	620	
8	0	0	0	0	507	619	
9	0	0	0	0	507	619	
10	0	0	0	0	507	619	
11	0	0	0	0	507	618	
12	0	0	0	0	508	618	
13	0	0	0	0	507	617	
14	0	0	0	0	508	617	
15	0	0	0	0	508	617	
0	0	0	0	0	508	618	
1	0	0	0	0	509	619	
2	0	0	0	0	509	620	
3	0	0	0	0	509	620	
4	0	0	0	0	509	621	
5	0	0	0	0	510	621	
6	0	0	0	0	511	621	
7	0	0	0	0	512	622	
8	0	0	0	0	512	621	
9	0	0	0	0	513	621	
10	0	0	0	0	513	621	
11	0	0	0	0	513	621	
12	0	0	0	0	513	620	
13	0	0	0	0	513	621	
14	0	0	0	0	512	621	
15	0	0	0	0	512	621	
0	0	0	0	0	511	620	
1	0	0	0	0	511	620	
2	0	0	0	0	510	620	
3	0	0	0	0	509	620	
4	0	0	0	0	508	620	
5	0	0	0	0	507	620	
6	0	0	0	0	507	620	
7	0	0	0	0	507	620	
8	0	0	0	0	508	620	
9	0	0	0	0	508	620	
10	0	0	0	0	508	620	
11	0	0	0	0	508	620	
12	0	0	0	0	508	621	
13	0	0	0	0	508	621	
14	0	0	0	0	509	620	
15	0	0	0	0	510	621	
0	0	0	0	0	509	621	
1	0	0	0	0	509	621	
2	0	0	0	0	508	622	
3	0	0	0	0	507	622	
4	0	0	0	0	506	623	
5	0	0	0	0	506	623	
6	0	0	0	0	506	624	
7	0	0	0	0	506	625	
8	0	0	0	0	506	625	
9	0	0	0	0	507	625	
10	0	0	0	0	508	625	
11	0	0	0	0	509	626	
12	0	0	0	0	511	626	
13	0	0	0	0	512	627	
14	0	0	0	0	513	627	
15	0	0	0	0	514	627	
0	0	0	0	0	515	627	
1	0	0	0	0	515	627	
2	0	0	0	0	515	628	
3	0	0	0	0	514	629	
4	0	0	0	0	513	628	
5	0	0	0	0	512	629	
6	0	0	0	0	511	629	
7	0	0	0	0	511	630	
8	0	0	0	0	511	630	
9	0	0	0	0	512	630	
10	0	0	0	0	511	630	
11	0	0	0	0	511	630	
12	0	0	0	0	510	629	
13	0	0	0	0	509	630	
14	0	0	0	0	509	629	
15	0	0	0	0	508	630	
0	0	0	0	0	508	629	
1	0	0	0	0	505	630	
2	0	0	0	0	503	630	
3	0	0	0	0	501	631	
4	0	0	0	0	499	631	
5	0	0	0	0	496	632	
6	0	0	0	0	494	633	
7	0	0	0	0	491	633	
8	0	0	0	0	487	633	
9	0	0	0	0	480	633	
10	0	0	0	0	471	633	
11	0	0	0	0	461	634	
12	0	0	0	0	450	634	
13	0	0	0	0	439	634	
14	0	0	0	0	430	634	
15	0	0	0	0	420	635	
0	0	0	0	0	413	634	
1	0	0	0	0	406	634	
2	0	0	0	0	400	635	
3	0	0	0	0	398	634	
4	0	0	0	0	397	635	
5	0	0	0	0	398	635	
6	0	0	0	0	399	636	
7	0	0	0	0	403	636	
8	0	0	0	0	408	636	
9	0	0	0	0	414	636	
10	0	0	0	0	421	637	
11	0	0	0	0	428	637	
12	0	0	0	0	434	637	
13	0	0	0	0	440	637	
14	0	0	0	0	446	637	
15	0	0	0	0	452	638	
0	0	0	0	0	462	638	
1	0	0	0	0	477	638	
2	0	0	0	0	497	638	
3	0	0	0	0	520	638	
4	0	0	0	0	546	639	
5	0	0	0	0	576	638	
6	0	0	0	0	612	638	
7	0	0	0	0	654	637	
8	0	0	0	0	700	637	
9	0	0	0	0	750	637	
10	0	0	0	0	796	636	
11	0	0	0	0	838	636	
12	0	0	0	0	877	636	
13	0	0	0	0	908	635	
14	0	0	0	0	930	634	
15	0	0	0	0	945	634	
0	0	0	0	0	952	634	
1	0	0	0	0	954	632	
2	0	0	0	0	952	632	
3	0	0	0	0	947	632	
4	0	0	0	0	938	631	
5	0	0	0	0	925	630	
6	0	0	0	0	912	631	
7	0	0	0	0	892	631	
8	0	0	0	0	870	631	
9	0	0	0	0	844	630	
10	0	0	0	0	815	631	
11	0	0	0	0	785	631	
12	0	0	0	0	757	630	
13	0	0	0	0	732	630	
14	0	0	0	0	710	630	
15	0	0	0	0	689	631	
0	0	0	0	0	670	630	
1	0	0	0	0	651	630	
2	0	0	0	0	633	630	
3	0	0	0	0	617	630	
4	0	0	0	0	604	628	
5	0	0	0	0	592	627	
6	0	0	0	0	580	627	
7	0	0	0	0	568	627	
8	0	0	0	0	556	626	
9	0	0	0	0	543	625	
10	0	0	0	0	531	625	
11	0	0	0	0	518	625	
12	0	0	0	0	506	624	
13	0	0	0	0	495	624	
14	0	0	0	0	484	624	
15	0	0	0	0	474	624	
0	0	0	0	0	465	624	
1	0	0	0	0	458	623	
2	0	0	0	0	451	624	
3	0	0	0	0	443	624	
4	0	0	0	0	437	623	
5	0	0	0	0	431	622	
6	0	0	0	0	425	622	
7	0	0	0	0	421	623	
8	0	0	0	0	417	622	
9	0	0	0	0	414	621	
10	0	0	0	0	411	621	
11	0	0	0	0	408	621	
12	0	0	0	0	407	620	
13	0	0	0	0	405	619	
14	0	0	0	0	403	619	
15	0	0	0	0	402	619	
0	0	0	0	0	401	619	
1	0	0	0	0	401	618	
2	0	0	0	0	400	618	
3	0	0	0	0	400	618	
4	0	0	0	0	401	617	
5	0	0	0	0	401	618	
6	0	0	0	0	401	618	
7	0	0	0	0	401	618	
8	0	0	0	0	401	618	
9	0	0	0	0	401	618	
10	0	0	0	0	401	618	
11	0	0	0	0	400	618	
12	0	0	0	0	400	618	
13	0	0	0	0	401	618	
14	0	0	0	0	402	618	
15	0	0	0	0	401	619	
0	0	0	0	0	401	618	
1	0	0	0	0	402	618	
2	0	0	0	0	403	618	
3	0	0	0	0	402	619	
4	0	0	0	0	402	619	
5	0	0	0	0	403	619	
6	0	0	0	0	403	619	
7	0	0	0	0	404	620	
8	0	0	0	0	406	619	
9	0	0	0	0	407	619	
10	0	0	0	0	408	619	
11	0	0	0	0	409	620	
12	0	0	0	0	410	620	
13	0	0	0	0	410	620	
14	0	0	0	0	412	620	
15	0	0	0	0	412	620	
0	0	0	0	0	413	621	
1	0	0	0	0	414	621	
2	0	0	0	0	414	621	
3	0	0	0	0	415	621	
4	0	0	0	0	416	622	
5	0	0	0	0	417	621	
6	0	0	0	0	418	621	
7	0	0	0	0	418	621	
8	0	0	0	0	419	620	
9	0	0	0	0	419	620	
10	0	0	0	0	420	620	
11	0	0	0	0	420	620	
12	0	0	0	0	420	619	
13	0	0	0	0	420	620	
14	0	0	0	0	420	620	
15	0	0	0	0	422	620	
0	0	0	0	0	423	619	
1	0	0	0	0	423	620	
2	0	0	0	0	424	619	
3	0	0	0	0	425	620	
4	0	0	0	0	425	619	
5	0	0	0	0	427	619	
6	0	0	0	0	427	619	
7	0	0	0	0	428	618	
8	0	0	0	0	429	617	
9	0	0	0	0	430	617	
10	0	0	0	0	431	617	
11	0	0	0	0	432	618	
12	0	0	0	0	432	616	
13	0	0	0	0	432	616	
14	0	0	0	0	433	616	
15	0	0	0	0	432	616	
0	0	0	0	0	433	615	
1	0	0	0	0	433	614	
2	0	0	0	0	433	615	
3	0	0	0	0	433	615	
4	0	0	0	0	434	614	
5	0	0	0	0	434	614	
6	0	0	0	0	435	614	
7	0	0	0	0	436	615	
8	0	0	0	0	437	615	
9	0	0	0	0	438	614	
10	0	0	0	0	439	615	
11	0	0	0	0	439	615	
12	0	0	0	0	440	615	
13	0	0	0	0	441	615	
14	0	0	0	0	441	615	
15	0	0	0	0	441	615	
0	0	0	0	0	441	615	
1	0	0	0	0	442	616	
2	0	0	0	0	442	616	
3	0	0	0	0	441	616	
4	0	0	0	0	441	615	
5	0	0	0	0	442	614	
6	0	0	0	0	442	614	
7	0	0	0	0	442	615	
8	0	0	0	0	443	614	
9	0	0	0	0	443	614	
10	0	0	0	0	444	614	
11	0	0	0	0	445	613	
12	0	0	0	0	447	613	
13	0	0	0	0	448	613	
14	0	0	0	0	448	612	
15	0	0	0	0	448	611	
0	0	0	0	0	448	609	
1	0	0	0	0	449	608	
2	0	0	0	0	449	608	
3	0	0	0	0	449	609	
4	0	0	0	0	449	609	
5	0	0	0	0	449	609	
6	0	0	0	0	450	611	
7	0	0	0	0	450	616	
8	0	0	0	0	451	622	
9	0	0	0	0	451	625	
10	0	0	0	0	451	629	
11	0	0	0	0	452	630	
12	0	0	0	0	453	630	
13	0	0	0	0	453	630	
14	0	0	0	0	453	629	
15	0	0	0	0	453	629	
0	0	0	0	0	453	628	
1	0	0	0	0	454	627	
2	0	0	0	0	454	627	
3	0	0	0	0	454	625	
4	0	0	0	0	455	624	
5	0	0	0	0	455	622	
6	0	0	0	0	455	621	
7	0	0	0	0	456	620	
8	0	0	0	0	456	619	
9	0	0	0	0	456	619	
10	0	0	0	0	457	618	
11	0	0	0	0	457	619	
12	0	0	0	0	458	619	
13	0	0	0	0	459	620	
14	0	0	0	0	459	620	
15	0	0	0	0	460	622	
0	0	0	0	0	461	622	
1	0	0	0	0	462	623	
2	0	0	0	0	463	623	
3	0	0	0	0	464	623	
4	0	0	0	0	465	623	
5	0	0	0	0	467	622	
6	0	0	0	0	467	622	
7	0	0	0	0	467	623	
8	0	0	0	0	468	623	
9	0	0	0	0	467	623	
10	0	0	0	0	468	623	
11	0	0	0	0	468	622	
12	0	0	0	0	470	622	
13	0	0	0	0	472	621	
14	0	0	0	0	472	620	
15	0	0	0	0	473	620	
0	0	0	0	0	474	619	
1	0	0	0	0	475	619	
2	0	0	0	0	477	619	
3	0	0	0	0	479	618	
4	0	0	0	0	480	618	
5	0	0	0	0	481	616	
6	0	0	0	0	483	618	
7	0	0	0	0	484	618	
8	0	0	0	0	485	619	
9	0	0	0	0	486	619	
10	0	0	0	0	487	619	
11	0	0	0	0	488	620	
12	0	0	0	0	489	620	
13	0	0	0	0	491	621	
14	0	0	0	0	492	620	
15	0	0	0	0	494	620	
0	0	0	0	0	495	621	
1	0	0	0	0	496	621	
2	0	0	0	0	497	620	
3	0	0	0	0	498	620	
4	0	0	0	0	498	620	
5	0	0	0	0	499	620	
6	0	0	0	0	501	620	
7	0	0	0	0	502	620	
8	0	0	0	0	503	620	
9	0	0	0	0	504	619	
10	0	0	0	0	505	619	
11	0	0	0	0	507	619	
12	0	0	0	0	508	619	
13	0	0	0	0	509	619	
14	0	0	0	0	510	618	
15	0	0	0	0	512	618	
0	0	0	0	0	513	616	
1	0	0	0	0	515	615	
2	0	0	0	0	516	615	
3	0	0	0	0	517	615	
4	0	0	0	0	518	615	
5	0	0	0	0	519	615	
6	0	0	0	0	519	615	
7	0	0	0	0	519	615	
8	0	0	0	0	520	616	
9	0	0	0	0	521	617	
10	0	0	0	0	522	616	
11	0	0	0	0	523	617	
12	0	0	0	0	524	617	
13	0	0	0	0	524	618	
14	0	0	0	0	525	618	
15	0	0	0	0	526	619	
0	0	0	0	0	525	620	
1	0	0	0	0	525	620	
2	0	0	0	0	525	621	
3	0	0	0	0	525	622	
4	0	0	0	0	526	623	
5	0	0	0	0	526	624	
6	0	0	0	0	525	625	
7	0	0	0	0	524	626	
8	0	0	0	0	524	627	
9	0	0	0	0	524	627	
10	0	0	0	0	526	627	
11	0	0	0	0	527	628	
12	0	0	0	0	527	628	
13	0	0	0	0	527	628	
14	0	0	0	0	527	629	
15	0	0	0	0	526	630	
0	0	0	0	0	526	631	
1	0	0	0	0	525	632	
2	0	0	0	0	526	633	
3	0	0	0	0	525	634	
4	0	0	0	0	524	635	
5	0	0	0	0	525	636	
6	0	0	0	0	524	636	
7	0	0	0	0	524	637	
8	0	0	0	0	524	638	
9	0	0	0	0	523	638	
10	0	0	0	0	524	638	
11	0	0	0	0	525	637	
12	0	0	0	0	526	638	
13	0	0	0	0	525	638	
14	0	0	0	0	525	638	
15	0	0	0	0	525	639	
0	0	0	0	0	525	639	
1	0	0	0	0	526	639	
2	0	0	0	0	525	638	
3	0	0	0	0	524	637	
4	0	0	0	0	525	637	
5	0	0	0	0	524	637	
6	0	0	0	0	524	637	
7	0	0	0	0	524	638	
8	0	0	0	0	524	637	
9	0	0	0	0	524	638	
10	0	0	0	0	524	638	
11	0	0	0	0	524	639	
12	0	0	0	0	523	639	
13	0	0	0	0	523	639	
14	0	0	0	0	523	638	
15	0	0	0	0	524	639	
0	0	0	0	0	524	638	
1	0	0	0	0	524	638	
2	0	0	0	0	524	638	
3	0	0	0	0	524	636	
4	0	0	0	0	524	636	
5	0	0	0	0	524	635	
6	0	0	0	0	524	634	
7	0	0	0	0	524	634	
8	0	0	0	0	524	633	
9	0	0	0	0	524	632	
10	0	0	0	0	524	632	
11	0	0	0	0	524	631	
12	0	0	0	0	524	631	
13	0	0	0	0	524	630	
14	0	0	0	0	524	630	
15	0	0	0	0	524	629	
0	0	0	0	0	524	628	
1	0	0	0	0	524	627	
2	0	0	0	0	524	626	
3	0	0	0	0	524	626	
4	0	0	0	0	525	626	
5	0	0	0	0	526	626	
6	0	0	0	0	526	625	
7	0	0	0	0	527	626	
8	0	0	0	0	527	625	
9	0	0	0	0	526	624	
10	0	0	0	0	526	625	
11	0	0	0	0	526	625	
12	0	0	0	0	525	625	
13	0	0	0	0	524	624	
14	0	0	0	0	524	624	
15	0	0	0	0	524	624	
0	0	0	0	0	525	624	
1	0	0	0	0	526	624	
2	0	0	0	0	526	624	
3	0	0	0	0	526	624	
4	0	0	0	0	526	624	
5	0	0	0	0	526	624	
6	0	0	0	0	525	623	
7	0	0	0	0	525	624	
8	0	0	0	0	525	622	
9	0	0	0	0	524	622	
10	0	0	0	0	524	621	
11	0	0	0	0	525	621	
12	0	0	0	0	524	620	
13	0	0	0	0	524	620	
14	0	0	0	0	524	619	
15	0	0	0	0	524	619	
0	0	0	0	0	524	618	
1	0	0	0	0	524	617	
2	0	0	0	0	524	616	
3	0	0	0	0	523	617	
4	0	0	0	0	522	616	
5	0	0	0	0	521	616	
6	0	0	0	0	521	615	
7	0	0	0	0	520	615	
8	0	0	0	0	520	615	
9	0	0	0	0	521	615	
10	0	0	0	0	521	614	
11	0	0	0	0	521	614	
12	0	0	0	0	520	614	
13	0	0	0	0	519	614	
14	0	0	0	0	518	614	
15	0	0	0	0	518	615	
0	0	0	0	0	517	616	
1	0	0	0	0	517	616	
2	0	0	0	0	518	617	
3	0	0	0	0	518	618	
4	0	0	0	0	519	619	
5	0	0	0	0	519	619	
6	0	0	0	0	519	619	
7	0	0	0	0	518	619	
8	0	0	0	0	518	619	
9	0	0	0	0	517	619	
10	0	0	0	0	518	619	
11	0	0	0	0	518	619	
12	0	0	0	0	517	620	
13	0	0	0	0	517	619	
14	0	0	0	0	518	619	
15	0	0	0	0	518	619	
0	0	0	0	0	518	618	
1	0	0	0	0	518	618	
2	0	0	0	0	517	617	
3	0	0	0	0	517	616	
4	0	0	0	0	516	615	
5	0	0	0	0	516	615	
6	0	0	0	0	516	615	
7	0	0	0	0	516	616	
8	0	0	0	0	516	615	
9	0	0	0	0	516	615	
10	0	0	0	0	516	614	
11	0	0	0	0	515	615	
12	0	0	0	0	515	614	
13	0	0	0	0	515	613	
14	0	0	0	0	515	614	
15	0	0	0	0	514	614	
0	0	0	0	0	514	614	
1	0	0	0	0	514	614	
2	0	0	0	0	514	614	
3	0	0	0	0	513	614	
4	0	0	0	0	512	614	
5	0	0	0	0	511	614	
6	0	0	0	0	510	612	
7	0	0	0	0	511	613	
8	0	0	0	0	512	612	
9	0	0	0	0	512	612	
10	0	0	0	0	512	614	
11	0	0	0	0	511	614	
12	0	0	0	0	512	616	
13	0	0	0	0	513	618	
14	0	0	0	0	513	619	
15	0	0	0	0	512	620	
0	0	0	0	0	513	620	
1	0	0	0	0	513	620	
2	0	0	0	0	512	621	
3	0	0	0	0	512	621	
4	0	0	0	0	512	620	
5	0	0	0	0	512	621	
6	0	0	0	0	512	621	
7	0	0	0	0	512	623	
8	0	0	0	0	511	622	
9	0	0	0	0	511	623	
10	0	0	0	0	511	623	
11	0	0	0	0	510	623	
12	0	0	0	0	511	623	
13	0	0	0	0	511	623	
14	0	0	0	0	512	624	
15	0	0	0	0	513	623	
0	0	0	0	0	513	623	
1	0	0	0	0	514	623	
2	0	0	0	0	514	623	
3	0	0	0	0	513	623	
4	0	0	0	0	513	623	
5	0	0	0	0	513	623	
6	0	0	0	0	513	623	
7	0	0	0	0	513	624	
8	0	0	0	0	514	624	
9	0	0	0	0	513	624	
10	0	0	0	0	514	624	
11	0	0	0	0	513	625	
12	0	0	0	0	513	626	
13	0	0	0	0	513	626	
14	0	0	0	0	513	627	
15	0	0	0	0	513	627	
0	0	0	0	0	513	627	
1	0	0	0	0	514	627	
2	0	0	0	0	515	627	
3	0	0	0	0	515	628	
4	0	0	0	0	515	628	
5	0	0	0	0	515	628	
6	0	0	0	0	515	629	
7	0	0	0	0	516	630	
8	0	0	0	0	517	631	
9	0	0	0	0	517	631	
10	0	0	0	0	517	632	
11	0	0	0	0	516	633	
12	0	0	0	0	516	633	
13	0	0	0	0	516	633	
14	0	0	0	0	517	634	
15	0	0	0	0	517	635	
0	0	0	0	0	518	634	
1	0	0	0	0	518	634	
2	0	0	0	0	518	634	
3	0	0	0	0	518	634	
4	0	0	0	0	518	633	
5	0	0	0	0	518	634	
6	0	0	0	0	517	632	
7	0	0	0	0	516	633	
8	0	0	0	0	516	632	
9	0	0	0	0	516	632	
10	0	0	0	0	516	631	
11	0	0	0	0	515	631	
12	0	0	0	0	515	631	
13	0	0	0	0	515	630	
14	0	0	0	0	514	630	
15	0	0	0	0	514	630	
0	0	0	0	0	514	629	
1	0	0	0	0	514	629	
2	0	0	0	0	514	628	
3	0	0	0	0	515	628	
4	0	0	0	0	514	628	
5	0	0	0	0	514	627	
6	0	0	0	0	514	627	
7	0	0	0	0	515	627	
8	0	0	0	0	515	627	
9	0	0	0	0	516	626	
10	0	0	0	0	516	625	
11	0	0	0	0	516	626	
12	0	0	0	0	517	625	
13	0	0	0	0	517	625	
14	0	0	0	0	516	624	
15	0	0	0	0	516	624	
0	0	0	0	0	516	624	
1	0	0	0	0	516	624	
2	0	0	0	0	516	624	
3	0	0	0	0	516	624	
4	0	0	0	0	515	624	
5	0	0	0	0	515	624	
6	0	0	0	0	515	624	
7	0	0	0	0	515	624	
8	0	0	0	0	515	624	
9	0	0	0	0	516	623	
10	0	0	0	0	517	623	
11	0	0	0	0	518	623	
12	0	0	0	0	518	623	
13	0	0	0	0	519	623	
14	0	0	0	0	519	622	
15	0	0	0	0	519	623	
0	0	0	0	0	519	622	
1	0	0	0	0	519	622	
2	0	0	0	0	519	622	
3	0	0	0	0	518	621	
4	0	0	0	0	518	620	
5	0	0	0	0	518	621	
6	0	0	0	0	517	621	
7	0	0	0	0	517	621	
8	0	0	0	0	517	621	
9	0	0	0	0	517	620	
10	0	0	0	0	516	621	
11	0	0	0	0	516	621	
12	0	0	0	0	516	621	
13	0	0	0	0	517	620	
14	0	0	0	0	516	621	
15	0	0	0	0	516	621	
0	0	0	0	0	515	621	
1	0	0	0	0	515	621	
2	0	0	0	0	515	620	
3	0	0	0	0	515	620	
4	0	0	0	0	515	621	
5	0	0	0	0	514	621	
6	0	0	0	0	514	621	
7	0	0	0	0	513	621	
8	0	0	0	0	513	621	
9	0	0	0	0	513	621	
10	0	0	0	0	513	622	
11	0	0	0	0	513	622	
12	0	0	0	0	513	622	
13	0	0	0	0	513	622	
14	0	0	0	0	514	622	
15	0	0	0	0	514	623	
0	0	0	0	0	513	623	
1	0	0	0	0	513	622	
2	0	0	0	0	512	623	
3	0	0	0	0	512	623	
4	0	0	0	0	512	623	
5	0	0	0	0	512	624	
6	0	0	0	0	512	624	
7	0	0	0	0	512	624	
8	0	0	0	0	512	626	
9	0	0	0	0	512	625	
10	0	0	0	0	513	626	
11	0	0	0	0	513	627	
12	0	0	0	0	513	626	
13	0	0	0	0	513	627	
14	0	0	0	0	513	627	
15	0	0	0	0	513	627	
0	0	0	0	0	512	627	
1	0	0	0	0	512	627	
2	0	0	0	0	512	627	
3	0	0	0	0	512	627	
4	0	0	0	0	512	627	
5	0	0	0	0	512	627	
6	0	0	0	0	511	627	
7	0	0	0	0	511	627	
8	0	0	0	0	510	627	
9	0	0	0	0	510	627	
10	0	0	0	0	510	627	
11	0	0	0	0	509	627	
12	0	0	0	0	509	627	
13	0	0	0	0	509	627	
14	0	0	0	0	508	627	
15	0	0	0	0	508	627	
0	0	0	0	0	508	627	
1	0	0	0	0	509	626	
2	0	0	0	0	509	626	
3	0	0	0	0	509	626	
4	0	0	0	0	509	626	
5	0	0	0	0	509	626	
6	0	0	0	0	510	626	
7	0	0	0	0	510	627	
8	0	0	0	0	509	626	
9	0	0	0	0	509	626	
10	0	0	0	0	509	625	
11	0	0	0	0	509	626	
12	0	0	0	0	509	626	
13	0	0	0	0	509	626	
14	0	0	0	0	509	626	
15	0	0	0	0	509	626	
0	0	0	0	0	509	625	
1	0	0	0	0	509	625	
2	0	0	0	0	508	623	
3	0	0	0	0	507	622	
4	0	0	0	0	507	621	
5	0	0	0	0	506	620	
6	0	0	0	0	505	620	
7	0	0	0	0	506	621	
8	0	0	0	0	506	622	
9	0	0	0	0	505	624	
10	0	0	0	0	506	626	
11	0	0	0	0	506	627	
12	0	0	0	0	507	627	
13	0	0	0	0	507	627	
14	0	0	0	0	508	627	
15	0	0	0	0	508	627	
0	0	0	0	0	508	627	
1	0	0	0	0	508	627	
2	0	0	0	0	509	627	
3	0	0	0	0	509	627	
4	0	0	0	0	510	628	
5	0	0	0	0	510	627	
6	0	0	0	0	510	627	
7	0	0	0	0	510	627	
8	0	0	0	0	511	626	
9	0	0	0	0	511	626	
10	0	0	0	0	511	625	
11	0	0	0	0	510	625	
12	0	0	0	0	510	623	
13	0	0	0	0	509	623	
14	0	0	0	0	510	621	
15	0	0	0	0	509	621	
0	0	0	0	0	509	619	
1	0	0	0	0	509	617	
2	0	0	0	0	509	616	
3	0	0	0	0	509	615	
4	0	0	0	0	509	615	
5	0	0	0	0	509	614	
6	0	0	0	0	509	614	
7	0	0	0	0	509	614	
8	0	0	0	0	509	613	
9	0	0	0	0	509	614	
10	0	0	0	0	509	614	
11	0	0	0	0	510	614	
12	0	0	0	0	510	614	
13	0	0	0	0	510	614	
14	0	0	0	0	510	615	
15	0	0	0	0	510	615	
0	0	0	0	0	509	615	
1	0	0	0	0	510	616	
2	0	0	0	0	510	617	
3	0	0	0	0	510	617	
4	0	0	0	0	509	617	
5	0	0	0	0	509	617	
6	0	0	0	0	509	618	
7	0	0	0	0	509	619	
8	0	0	0	0	509	619	
9	0	0	0	0	509	619	
10	0	0	0	0	509	620	
11	0	0	0	0	509	620	
12	0	0	0	0	509	620	
13	0	0	0	0	509	620	
14	0	0	0	0	509	621	
15	0	0	0	0	510	622	
0	0	0	0	0	510	622	
1	0	0	0	0	510	622	
2	0	0	0	0	510	623	
3	0	0	0	0	510	624	
4	0	0	0	0	511	624	
5	0	0	0	0	511	624	
6	0	0	0	0	511	625	
7	0	0	0	0	511	625	
8	0	0	0	0	511	625	
9	0	0	0	0	511	626	
10	0	0	0	0	511	626	
11	0	0	0	0	512	626	
12	0	0	0	0	511	626	
13	0	0	0	0	510	626	
14	0	0	0	0	509	627	
15	0	0	0	0	508	627	
0	0	0	0	0	509	627	
1	0	0	0	0	508	627	
2	0	0	0	0	508	627	
3	0	0	0	0	508	627	
4	0	0	0	0	508	627	
5	0	0	0	0	508	627	
6	0	0	0	0	508	627	
7	0	0	0	0	507	627	
8	0	0	0	0	507	627	
9	0	0	0	0	507	627	
10	0	0	0	0	508	626	
11	0	0	0	0	508	625	
12	0	0	0	0	508	625	
13	0	0	0	0	508	624	
14	0	0	0	0	508	624	
15	0	0	0	0	508	624	
0	0	0	0	0	507	623	
1	0	0	0	0	508	624	
2	0	0	0	0	508	624	
3	0	0	0	0	509	624	
4	0	0	0	0	508	625	
5	0	0	0	0	508	624	
6	0	0	0	0	507	625	
7	0	0	0	0	507	627	
8	0	0	0	0	507	626	
9	0	0	0	0	507	627	
10	0	0	0	0	507	627	
11	0	0	0	0	507	628	
12	0	0	0	0	507	628	
13	0	0	0	0	506	629	
14	0	0	0	0	506	629	
15	0	0	0	0	506	630	
0	0	0	0	0	504	630	
1	0	0	0	0	501	630	
2	0	0	0	0	497	630	
3	0	0	0	0	492	629	
4	0	0	0	0	485	629	
5	0	0	0	0	476	628	
6	0	0	0	0	467	628	
7	0	0	0	0	457	628	
8	0	0	0	0	448	627	
9	0	0	0	0	438	626	
10	0	0	0	0	429	626	
11	0	0	0	0	420	626	
12	0	0	0	0	413	625	
13	0	0	0	0	408	624	
14	0	0	0	0	406	624	
15	0	0	0	0	406	624	
0	0	0	0	0	408	624	
1	0	0	0	0	411	623	
2	0	0	0	0	416	624	
3	0	0	0	0	422	624	
4	0	0	0	0	429	624	
5	0	0	0	0	436	624	
6	0	0	0	0	443	624	
7	0	0	0	0	449	624	
8	0	0	0	0	455	624	
9	0	0	0	0	462	624	
10	0	0	0	0	468	624	
11	0	0	0	0	480	624	
12	0	0	0	0	499	624	
13	0	0	0	0	523	624	
14	0	0	0	0	550	625	
15	0	0	0	0	579	625	
0	0	0	0	0	612	625	
1	0	0	0	0	652	625	
2	0	0	0	0	696	624	
3	0	0	0	0	743	625	
4	0	0	0	0	790	624	
5	0	0	0	0	833	624	
6	0	0	0	0	872	624	
7	0	0	0	0	903	623	
8	0	0	0	0	927	623	
9	0	0	0	0	945	622	
10	0	0	0	0	954	622	
11	0	0	0	0	957	622	
12	0	0	0	0	955	621	
13	0	0	0	0	949	621	
14	0	0	0	0	940	621	
15	0	0	0	0	927	622	
0	0	0	0	0	913	621	
1	0	0	0	0	895	622	
2	0	0	0	0	872	623	
3	0	0	0	0	846	623	
4	0	0	0	0	817	623	
5	0	0	0	0	788	624	
6	0	0	0	0	758	623	
7	0	0	0	0	732	625	
8	0	0	0	0	707	624	
9	0	0	0	0	685	624	
10	0	0	0	0	666	624	
11	0	0	0	0	648	623	
12	0	0	0	0	632	624	
13	0	0	0	0	617	623	
14	0	0	0	0	605	622	
15	0	0	0	0	594	623	
0	0	0	0	0	583	623	
1	0	0	0	0	573	622	
2	0	0	0	0	562	622	
3	0	0	0	0	552	622	
4	0	0	0	0	542	623	
5	0	0	0	0	531	622	
6	0	0	0	0	519	622	
7	0	0	0	0	508	622	
8	0	0	0	0	498	621	
9	0	0	0	0	489	621	
10	0	0	0	0	480	620	
11	0	0	0	0	473	620	
12	0	0	0	0	466	620	
13	0	0	0	0	459	620	
14	0	0	0	0	452	620	
15	0	0	0	0	446	621	
0	0	0	0	0	441	620	
1	0	0	0	0	436	620	
2	0	0	0	0	432	620	
3	0	0	0	0	429	620	
4	0	0	0	0	426	620	
5	0	0	0	0	424	619	
6	0	0	0	0	422	618	
7	0	0	0	0	420	618	
8	0	0	0	0	419	617	
9	0	0	0	0	416	617	
10	0	0	0	0	415	616	
11	0	0	0	0	414	617	
12	0	0	0	0	413	616	
13	0	0	0	0	412	616	
14	0	0	0	0	413	615	
15	0	0	0	0	412	615	
0	0	0	0	0	413	615	
1	0	0	0	0	412	616	
2	0	0	0	0	411	617	
3	0	0	0	0	410	618	
4	0	0	0	0	410	619	
5	0	0	0	0	411	620	
6	0	0	0	0	412	621	
7	0	0	0	0	411	622	
8	0	0	0	0	411	623	
9	0	0	0	0	412	624	
10	0	0	0	0	412	625	
11	0	0	0	0	412	627	
12	0	0	0	0	413	628	
13	0	0	0	0	414	629	
14	0	0	0	0	415	630	
15	0	0	0	0	415	632	
0	0	0	0	0	416	632	
1	0	0	0	0	418	633	
2	0	0	0	0	418	633	
3	0	0	0	0	419	633	
4	0	0	0	0	419	633	
5	0	0	0	0	421	633	
6	0	0	0	0	421	634	
7	0	0	0	0	420	634	
8	0	0	0	0	419	633	
9	0	0	0	0	419	633	
10	0	0	0	0	419	632	
11	0	0	0	0	419	633	
12	0	0	0	0	420	632	
13	0	0	0	0	420	632	
14	0	0	0	0	422	632	
15	0	0	0	0	423	632	
0	0	0	0	0	425	632	
1	0	0	0	0	425	631	
2	0	0	0	0	426	632	
3	0	0	0	0	427	632	
4	0	0	0	0	428	631	
5	0	0	0	0	428	631	
6	0	0	0	0	429	631	
7	0	0	0	0	429	631	
8	0	0	0	0	428	630	
9	0	0	0	0	428	631	
10	0	0	0	0	429	631	
11	0	0	0	0	428	630	
12	0	0	0	0	429	629	
13	0	0	0	0	430	629	
14	0	0	0	0	431	628	
15	0	0	0	0	431	629	
0	0	0	0	0	431	628	
1	0	0	0	0	431	627	
2	0	0	0	0	432	627	
3	0	0	0	0	432	627	
4	0	0	0	0	433	627	
5	0	0	0	0	433	625	
6	0	0	0	0	434	625	
7	0	0	0	0	435	625	
8	0	0	0	0	436	624	
9	0	0	0	0	436	623	
10	0	0	0	0	436	622	
11	0	0	0	0	436	621	
12	0	0	0	0	438	622	
13	0	0	0	0	438	620	
14	0	0	0	0	439	620	
15	0	0	0	0	439	620	
0	0	0	0	0	440	619	
1	0	0	0	0	440	618	
2	0	0	0	0	441	618	
3	0	0	0	0	443	618	
4	0	0	0	0	443	618	
5	0	0	0	0	444	617	
6	0	0	0	0	444	617	
7	0	0	0	0	445	618	
8	0	0	0	0	446	618	
9	0	0	0	0	447	617	
10	0	0	0	0	447	617	
11	0	0	0	0	447	617	
12	0	0	0	0	448	617	
13	0	0	0	0	448	618	
14	0	0	0	0	448	618	
15	0	0	0	0	448	618	
0	0	0	0	0	448	618	
1	0	0	0	0	448	618	
2	0	0	0	0	448	619	
3	0	0	0	0	448	619	
4	0	0	0	0	448	619	
5	0	0	0	0	448	619	
6	0	0	0	0	448	620	
7	0	0	0	0	448	620	
8	0	0	0	0	449	620	
9	0	0	0	0	450	620	
10	0	0	0	0	450	620	
11	0	0	0	0	449	621	
12	0	0	0	0	450	621	
13	0	0	0	0	451	622	
14	0	0	0	0	450	622	
15	0	0	0	0	449	623	
0	0	0	0	0	450	623	
1	0	0	0	0	450	623	
2	0	0	0	0	450	624	
3	0	0	0	0	451	624	
4	0	0	0	0	453	624	
5	0	0	0	0	453	625	
6	0	0	0	0	455	625	
7	0	0	0	0	454	625	
8	0	0	0	0	454	626	
9	0	0	0	0	455	626	
10	0	0	0	0	455	626	
11	0	0	0	0	454	626	
12	0	0	0	0	454	626	
13	0	0	0	0	455	627	
14	0	0	0	0	455	627	
15	0	0	0	0	455	627	
0	0	0	0	0	455	627	
1	0	0	0	0	455	627	
2	0	0	0	0	456	627	
3	0	0	0	0	456	627	
4	0	0	0	0	457	627	
5	0	0	0	0	457	628	
6	0	0	0	0	458	627	
7	0	0	0	0	459	628	
8	0	0	0	0	460	627	
9	0	0	0	0	461	627	
10	0	0	0	0	462	627	
11	0	0	0	0	463	627	
12	0	0	0	0	464	627	
13	0	0	0	0	465	627	
14	0	0	0	0	465	627	
15	0	0	0	0	466	627	
0	0	0	0	0	467	627	
1	0	0	0	0	469	626	
2	0	0	0	0	471	627	
3	0	0	0	0	472	627	
4	0	0	0	0	473	627	
5	0	0	0	0	474	626	
6	0	0	0	0	474	626	
7	0	0	0	0	474	626	
8	0	0	0	0	474	626	
9	0	0	0	0	475	627	
10	0	0	0	0	476	626	
11	0	0	0	0	477	627	
12	0	0	0	0	479	626	
13	0	0	0	0	480	626	
14	0	0	0	0	483	625	
15	0	0	0	0	484	626	
0	0	0	0	0	484	626	
1	0	0	0	0	486	625	
2	0	0	0	0	487	625	
3	0	0	0	0	489	626	
4	0	0	0	0	490	626	
5	0	0	0	0	491	625	
6	0	0	0	0	492	626	
7	0	0	0	0	494	625	
8	0	0	0	0	496	625	
9	0	0	0	0	496	625	
10	0	0	0	0	496	624	
11	0	0	0	0	496	624	
12	0	0	0	0	498	624	
13	0	0	0	0	500	624	
14	0	0	0	0	500	623	
15	0	0	0	0	501	624	
0	0	0	0	0	503	623	
1	0	0	0	0	503	623	
2	0	0	0	0	504	623	
3	0	0	0	0	506	623	
4	0	0	0	0	507	622	
5	0	0	0	0	508	622	
6	0	0	0	0	509	622	
7	0	0	0	0	510	622	
8	0	0	0	0	512	621	
9	0	0	0	0	514	620	
10	0	0	0	0	515	620	
11	0	0	0	0	515	620	
12	0	0	0	0	516	620	
13	0	0	0	0	517	620	
14	0	0	0	0	518	619	
15	0	0	0	0	519	620	
0	0	0	0	0	522	620	
1	0	0	0	0	525	620	
2	0	0	0	0	524	619	
3	0	0	0	0	520	619	
4	0	0	0	0	520	619	
5	0	0	0	0	520	619	
6	0	0	0	0	521	618	
7	0	0	0	0	524	619	
8	0	0	0	0	526	619	
9	0	0	0	0	526	619	
10	0	0	0	0	527	618	
11	0	0	0	0	529	619	
12	0	0	0	0	528	619	
13	0	0	0	0	529	619	
14	0	0	0	0	530	619	
15	0	0	0	0	531	619	
0	0	0	0	0	533	620	
1	0	0	0	0	531	619	
2	0	0	0	0	529	619	
3	0	0	0	0	526	619	
4	0	0	0	0	525	620	
5	0	0	0	0	524	620	
6	0	0	0	0	525	620	
7	0	0	0	0	528	621	
8	0	0	0	0	528	620	
9	0	0	0	0	528	620	
10	0	0	0	0	531	621	
11	0	0	0	0	532	622	
12	0	0	0	0	535	623	
13	0	0	0	0	537	623	
14	0	0	0	0	540	623	
15	0	0	0	0	540	624	
0	0	0	0	0	539	624	
1	0	0	0	0	538	624	
2	0	0	0	0	538	624	
3	0	0	0	0	537	625	
4	0	0	0	0	537	625	
5	0	0	0	0	535	625	
6	0	0	0	0	536	626	
7	0	0	0	0	536	626	
8	0	0	0	0	535	627	
9	0	0	0	0	536	627	
10	0	0	0	0	536	627	
11	0	0	0	0	535	628	
12	0	0	0	0	535	628	
13	0	0	0	0	535	628	
14	0	0	0	0	535	628	
15	0	0	0	0	532	629	
0	0	0	0	0	530	629	
1	0	0	0	0	527	629	
2	0	0	0	0	524	629	
3	0	0	0	0	521	630	
4	0	0	0	0	517	630	
5	0	0	0	0	518	630	
6	0	0	0	0	519	630	
7	0	0	0	0	521	630	
8	0	0	0	0	523	631	
9	0	0	0	0	524	630	
10	0	0	0	0	526	630	
11	0	0	0	0	526	630	
12	0	0	0	0	527	629	
13	0	0	0	0	528	630	
14	0	0	0	0	529	629	
15	0	0	0	0	531	630	
0	0	0	0	0	532	629	
1	0	0	0	0	532	629	
2	0	0	0	0	533	629	
3	0	0	0	0	534	628	
4	0	0	0	0	534	628	
5	0	0	0	0	534	628	
6	0	0	0	0	535	627	
7	0	0	0	0	535	628	
8	0	0	0	0	534	627	
9	0	0	0	0	535	627	
10	0	0	0	0	535	627	
11	0	0	0	0	534	627	
12	0	0	0	0	534	626	
13	0	0	0	0	534	626	
14	0	0	0	0	533	626	
15	0	0	0	0	532	626	
0	0	0	0	0	531	625	
1	0	0	0	0	532	625	
2	0	0	0	0	532	625	
3	0	0	0	0	534	625	
4	0	0	0	0	536	625	
5	0	0	0	0	536	624	
6	0	0	0	0	537	624	
7	0	0	0	0	536	624	
8	0	0	0	0	536	624	
9	0	0	0	0	536	624	
10	0	0	0	0	536	623	
11	0	0	0	0	536	623	
12	0	0	0	0	536	623	
13	0	0	0	0	537	622	
14	0	0	0	0	536	622	
15	0	0	0	0	537	623	
0	0	0	0	0	537	622	
1	0	0	0	0	537	622	
2	0	0	0	0	537	622	
3	0	0	0	0	537	623	
4	0	0	0	0	536	621	
5	0	0	0	0	536	621	
6	0	0	0	0	535	622	
7	0	0	0	0	533	622	
8	0	0	0	0	535	621	
9	0	0	0	0	536	621	
10	0	0	0	0	536	622	
11	0	0	0	0	535	621	
12	0	0	0	0	534	622	
13	0	0	0	0	532	621	
14	0	0	0	0	532	621	
15	0	0	0	0	532	622	
0	0	0	0	0	530	622	
1	0	0	0	0	527	621	
2	0	0	0	0	527	622	
3	0	0	0	0	526	622	
4	0	0	0	0	525	622	
5	0	0	0	0	525	622	
6	0	0	0	0	526	622	
7	0	0	0	0	527	623	
8	0	0	0	0	526	623	
9	0	0	0	0	527	624	
10	0	0	0	0	528	624	
11	0	0	0	0	528	624	
12	0	0	0	0	527	623	
13	0	0	0	0	528	624	
14	0	0	0	0	529	624	
15	0	0	0	0	530	625	
0	0	0	0	0	529	625	
1	0	0	0	0	528	625	
2	0	0	0	0	528	625	
3	0	0	0	0	528	627	
4	0	0	0	0	527	626	
5	0	0	0	0	528	627	
6	0	0	0	0	528	627	
7	0	0	0	0	528	628	
8	0	0	0	0	528	628	
9	0	0	0	0	528	628	
10	0	0	0	0	528	628	
11	0	0	0	0	529	629	
12	0	0	0	0	529	628	
13	0	0	0	0	527	629	
14	0	0	0	0	525	630	
15	0	0	0	0	526	630	
0	0	0	0	0	524	628	
1	0	0	0	0	524	629	
2	0	0	0	0	524	629	
3	0	0	0	0	527	629	
4	0	0	0	0	528	629	
5	0	0	0	0	529	629	
6	0	0	0	0	529	628	
7	0	0	0	0	529	629	
8	0	0	0	0	528	628	
9	0	0	0	0	527	628	
10	0	0	0	0	526	628	
11	0	0	0	0	525	627	
12	0	0	0	0	524	627	
13	0	0	0	0	523	626	
14	0	0	0	0	523	626	
15	0	0	0	0	523	627	
0	0	0	0	0	522	626	
1	0	0	0	0	522	626	
2	0	0	0	0	521	626	
3	0	0	0	0	521	625	
4	0	0	0	0	521	625	
5	0	0	0	0	521	625	
6	0	0	0	0	521	625	
7	0	0	0	0	521	626	
8	0	0	0	0	521	625	
9	0	0	0	0	521	625	
10	0	0	0	0	520	625	
11	0	0	0	0	520	626	
12	0	0	0	0	520	626	
13	0	0	0	0	521	626	
14	0	0	0	0	522	626	
15	0	0	0	0	522	626	
0	0	0	0	0	522	626	
1	0	0	0	0	522	626	
2	0	0	0	0	523	625	
3	0	0	0	0	523	626	
4	0	0	0	0	523	625	
5	0	0	0	0	523	625	
6	0	0	0	0	523	624	
7	0	0	0	0	523	624	
8	0	0	0	0	523	623	
9	0	0	0	0	523	623	
10	0	0	0	0	524	623	
11	0	0	0	0	523	623	
12	0	0	0	0	523	623	
13	0	0	0	0	522	622	
14	0	0	0	0	521	621	
15	0	0	0	0	522	622	
0	0	0	0	0	521	621	
1	0	0	0	0	520	621	
2	0	0	0	0	519	620	
3	0	0	0	0	517	620	
4	0	0	0	0	517	620	
5	0	0	0	0	516	620	
6	0	0	0	0	517	620	
7	0	0	0	0	517	620	
8	0	0	0	0	518	620	
9	0	0	0	0	518	620	
10	0	0	0	0	518	619	
11	0	0	0	0	518	619	
12	0	0	0	0	518	619	
13	0	0	0	0	518	619	
14	0	0	0	0	518	619	
15	0	0	0	0	518	619	
0	0	0	0	0	518	619	
1	0	0	0	0	519	619	
2	0	0	0	0	519	619	
3	0	0	0	0	518	620	
4	0	0	0	0	519	620	
5	0	0	0	0	519	620	
6	0	0	0	0	519	619	
7	0	0	0	0	521	620	
8	0	0	0	0	521	620	
9	0	0	0	0	522	620	
10	0	0	0	0	521	620	
11	0	0	0	0	519	620	
12	0	0	0	0	518	621	
13	0	0	0	0	518	621	
14	0	0	0	0	519	622	
15	0	0	0	0	521	622	
0	0	0	0	0	521	622	
1	0	0	0	0	523	622	
2	0	0	0	0	524	622	
3	0	0	0	0	524	622	
4	0	0	0	0	522	622	
5	0	0	0	0	521	622	
6	0	0	0	0	520	623	
7	0	0	0	0	520	623	
8	0	0	0	0	519	623	
9	0	0	0	0	519	623	
10	0	0	0	0	519	623	
11	0	0	0	0	519	623	
12	0	0	0	0	519	623	
13	0	0	0	0	518	624	
14	0	0	0	0	517	623	
15	0	0	0	0	517	624	
0	0	0	0	0	516	624	
1	0	0	0	0	517	624	
2	0	0	0	0	518	624	
3	0	0	0	0	519	624	
4	0	0	0	0	519	624	
5	0	0	0	0	518	624	
6	0	0	0	0	518	624	
7	0	0	0	0	519	624	
8	0	0	0	0	519	624	
9	0	0	0	0	519	624	
10	0	0	0	0	519	623	
11	0	0	0	0	519	623	
12	0	0	0	0	520	623	
13	0	0	0	0	519	622	
14	0	0	0	0	519	622	
15	0	0	0	0	519	622	
0	0	0	0	0	519	621	
1	0	0	0	0	517	621	
2	0	0	0	0	517	620	
3	0	0	0	0	516	621	
4	0	0	0	0	516	620	
5	0	0	0	0	516	620	
6	0	0	0	0	515	619	
7	0	0	0	0	517	620	
8	0	0	0	0	518	619	
9	0	0	0	0	518	618	
10	0	0	0	0	519	618	
11	0	0	0	0	518	618	
12	0	0	0	0	519	617	
13	0	0	0	0	519	616	
14	0	0	0	0	520	616	
15	0	0	0	0	522	616	
0	0	0	0	0	522	615	
1	0	0	0	0	522	616	
2	0	0	0	0	522	615	
3	0	0	0	0	522	615	
4	0	0	0	0	523	615	
5	0	0	0	0	523	616	
6	0	0	0	0	524	616	
7	0	0	0	0	524	616	
8	0	0	0	0	523	616	
9	0	0	0	0	522	616	
10	0	0	0	0	522	616	
11	0	0	0	0	521	616	
12	0	0	0	0	520	616	
13	0	0	0	0	519	616	
14	0	0	0	0	518	617	
15	0	0	0	0	516	617	
0	0	0	0	0	517	616	
1	0	0	0	0	518	616	
2	0	0	0	0	519	616	
3	0	0	0	0	519	616	
4	0	0	0	0	521	617	
5	0	0	0	0	522	617	
6	0	0	0	0	522	617	
7	0	0	0	0	523	618	
8	0	0	0	0	523	618	
9	0	0	0	0	523	619	
10	0	0	0	0	523	619	
11	0	0	0	0	522	620	
12	0	0	0	0	521	620	
13	0	0	0	0	521	620	
14	0	0	0	0	520	621	
15	0	0	0	0	519	622	
0	0	0	0	0	519	622	
1	0	0	0	0	519	622	
2	0	0	0	0	518	623	
3	0	0	0	0	517	624	
4	0	0	0	0	517	624	
5	0	0	0	0	517	625	
6	0	0	0	0	516	624	
7	0	0	0	0	515	626	
8	0	0	0	0	513	627	
9	0	0	0	0	513	627	
10	0	0	0	0	513	627	
11	0	0	0	0	512	628	
12	0	0	0	0	512	628	
13	0	0	0	0	512	629	
14	0	0	0	0	512	629	
15	0	0	0	0	511	630	
0	0	0	0	0	511	629	
1	0	0	0	0	512	629	
2	0	0	0	0	511	629	
3	0	0	0	0	511	630	
4	0	0	0	0	512	628	
5	0	0	0	0	512	628	
6	0	0	0	0	512	629	
7	0	0	0	0	512	629	
8	0	0	0	0	513	628	
9	0	0	0	0	513	628	
10	0	0	0	0	512	628	
11	0	0	0	0	513	629	
12	0	0	0	0	512	629	
13	0	0	0	0	511	629	
14	0	0	0	0	512	629	
15	0	0	0	0	512	629	
0	0	0	0	0	512	628	
1	0	0	0	0	510	628	
2	0	0	0	0	509	628	
3	0	0	0	0	509	629	
4	0	0	0	0	509	628	
5	0	0	0	0	509	629	
6	0	0	0	0	508	629	
7	0	0	0	0	506	629	
8	0	0	0	0	506	628	
9	0	0	0	0	507	629	
10	0	0	0	0	507	628	
11	0	0	0	0	507	629	
12	0	0	0	0	508	627	
13	0	0	0	0	508	627	
14	0	0	0	0	508	627	
15	0	0	0	0	508	627	
0	0	0	0	0	508	627	
1	0	0	0	0	508	627	
2	0	0	0	0	509	626	
3	0	0	0	0	509	625	
4	0	0	0	0	509	625	
5	0	0	0	0	509	624	
6	0	0	0	0	509	624	
7	0	0	0	0	508	624	
8	0	0	0	0	507	623	
9	0	0	0	0	507	623	
10	0	0	0	0	507	622	
11	0	0	0	0	506	623	
12	0	0	0	0	505	622	
13	0	0	0	0	505	620	
14	0	0	0	0	506	621	
15	0	0	0	0	505	620	
0	0	0	0	0	505	620	
1	0	0	0	0	506	620	
2	0	0	0	0	504	619	
3	0	0	0	0	503	620	
4	0	0	0	0	501	618	
5	0	0	0	0	497	619	
6	0	0	0	0	493	619	
7	0	0	0	0	487	619	
8	0	0	0	0	479	618	
9	0	0	0	0	470	618	
10	0	0	0	0	461	617	
11	0	0	0	0	450	618	
12	0	0	0	0	440	618	
13	0	0	0	0	431	617	
14	0	0	0	0	422	617	
15	0	0	0	0	414	617	
0	0	0	0	0	408	616	
1	0	0	0	0	403	616	
2	0	0	0	0	401	616	
3	0	0	0	0	400	616	
4	0	0	0	0	402	615	
5	0	0	0	0	405	615	
6	0	0	0	0	410	615	
7	0	0	0	0	417	615	
8	0	0	0	0	425	615	
9	0	0	0	0	433	615	
10	0	0	0	0	440	615	
11	0	0	0	0	446	615	
12	0	0	0	0	453	615	
13	0	0	0	0	460	615	
14	0	0	0	0	467	615	
15	0	0	0	0	477	616	
0	0	0	0	0	494	615	
1	0	0	0	0	516	616	
2	0	0	0	0	540	616	
3	0	0	0	0	567	616	
4	0	0	0	0	597	617	
5	0	0	0	0	630	617	
6	0	0	0	0	670	617	
7	0	0	0	0	711	618	
8	0	0	0	0	751	617	
9	0	0	0	0	787	617	
10	0	0	0	0	818	618	
11	0	0	0	0	846	619	
12	0	0	0	0	867	619	
13	0	0	0	0	881	619	
14	0	0	0	0	887	620	
15	0	0	0	0	886	620	
0	0	0	0	0	880	621	
1	0	0	0	0	869	621	
2	0	0	0	0	857	621	
3	0	0	0	0	843	622	
4	0	0	0	0	826	623	
5	0	0	0	0	807	624	
6	0	0	0	0	785	624	
7	0	0	0	0	761	625	
8	0	0	0	0	736	625	
9	0	0	0	0	713	625	
10	0	0	0	0	692	625	
11	0	0	0	0	672	627	
12	0	0	0	0	653	627	
13	0	0	0	0	636	627	
14	0	0	0	0	621	628	
15	0	0	0	0	608	628	
0	0	0	0	0	596	628	
1	0	0	0	0	587	628	
2	0	0	0	0	578	627	
3	0	0	0	0	569	628	
4	0	0	0	0	560	628	
5	0	0	0	0	552	628	
6	0	0	0	0	545	628	
7	0	0	0	0	537	629	
8	0	0	0	0	529	629	
9	0	0	0	0	519	628	
10	0	0	0	0	509	629	
11	0	0	0	0	501	630	
12	0	0	0	0	493	629	
13	0	0	0	0	486	628	
14	0	0	0	0	479	630	
15	0	0	0	0	472	629	
0	0	0	0	0	466	629	
1	0	0	0	0	460	629	
2	0	0	0	0	454	629	
3	0	0	0	0	448	629	
4	0	0	0	0	444	629	
5	0	0	0	0	440	628	
6	0	0	0	0	437	629	
7	0	0	0	0	433	629	
8	0	0	0	0	431	628	
9	0	0	0	0	428	628	
10	0	0	0	0	425	628	
11	0	0	0	0	423	628	
12	0	0	0	0	421	628	
13	0	0	0	0	419	627	
14	0	0	0	0	418	627	
15	0	0	0	0	417	628	
0	0	0	0	0	416	627	
1	0	0	0	0	415	626	
2	0	0	0	0	414	627	
3	0	0	0	0	414	626	
4	0	0	0	0	414	627	
5	0	0	0	0	413	626	
6	0	0	0	0	413	626	
7	0	0	0	0	414	627	
8	0	0	0	0	414	626	
9	0	0	0	0	415	626	
10	0	0	0	0	415	626	
11	0	0	0	0	416	626	
12	0	0	0	0	417	625	
13	0	0	0	0	419	624	
14	0	0	0	0	419	624	
15	0	0	0	0	419	625	
0	0	0	0	0	420	624	
1	0	0	0	0	419	625	
2	0	0	0	0	419	625	
3	0	0	0	0	420	624	
4	0	0	0	0	420	624	
5	0	0	0	0	420	624	
6	0	0	0	0	421	624	
7	0	0	0	0	422	623	
8	0	0	0	0	423	623	
9	0	0	0	0	423	622	
10	0	0	0	0	423	621	
11	0	0	0	0	424	621	
12	0	0	0	0	424	620	
13	0	0	0	0	425	619	
14	0	0	0	0	425	620	
15	0	0	0	0	426	620	
0	0	0	0	0	427	619	
1	0	0	0	0	428	619	
2	0	0	0	0	429	619	
3	0	0	0	0	430	619	
4	0	0	0	0	430	618	
5	0	0	0	0	429	619	
6	0	0	0	0	429	618	
7	0	0	0	0	428	618	
8	0	0	0	0	428	617	
9	0	0	0	0	428	617	
10	0	0	0	0	429	617	
11	0	0	0	0	430	617	
12	0	0	0	0	431	617	
13	0	0	0	0	433	617	
14	0	0	0	0	433	617	
15	0	0	0	0	433	618	
0	0	0	0	0	434	618	
1	0	0	0	0	435	619	
2	0	0	0	0	435	619	
3	0	0	0	0	435	619	
4	0	0	0	0	437	619	
5	0	0	0	0	438	619	
6	0	0	0	0	440	619	
7	0	0	0	0	440	620	
8	0	0	0	0	440	619	
9	0	0	0	0	440	620	
10	0	0	0	0	440	619	
11	0	0	0	0	440	620	
12	0	0	0	0	440	620	
13	0	0	0	0	440	620	
14	0	0	0	0	440	619	
15	0	0	0	0	440	620	
0	0	0	0	0	440	620	
1	0	0	0	0	441	620	
2	0	0	0	0	442	620	
3	0	0	0	0	441	620	
4	0	0	0	0	441	619	
5	0	0	0	0	441	619	
6	0	0	0	0	441	619	
7	0	0	0	0	442	619	
8	0	0	0	0	442	618	
9	0	0	0	0	442	618	
10	0	0	0	0	442	618	
11	0	0	0	0	442	618	
12	0	0	0	0	443	617	
13	0	0	0	0	443	618	
14	0	0	0	0	443	616	
15	0	0	0	0	444	617	
0	0	0	0	0	444	616	
1	0	0	0	0	445	615	
2	0	0	0	0	447	615	
3	0	0	0	0	448	615	
4	0	0	0	0	448	616	
5	0	0	0	0	447	615	
6	0	0	0	0	447	615	
7	0	0	0	0	447	615	
8	0	0	0	0	448	615	
9	0	0	0	0	448	615	
10	0	0	0	0	448	614	
11	0	0	0	0	448	615	
12	0	0	0	0	448	615	
13	0	0	0	0	448	614	
14	0	0	0	0	448	614	
15	0	0	0	0	448	614	
0	0	0	0	0	449	614	
1	0	0	0	0	450	615	
2	0	0	0	0	450	615	
3	0	0	0	0	451	615	
4	0	0	0	0	451	615	
5	0	0	0	0	451	615	
6	0	0	0	0	451	614	
7	0	0	0	0	451	614	
8	0	0	0	0	451	614	
9	0	0	0	0	451	614	
10	0	0	0	0	451	615	
11	0	0	0	0	451	615	
12	0	0	0	0	451	615	
13	0	0	0	0	452	615	
14	0	0	0	0	454	616	
15	0	0	0	0	455	616	
0	0	0	0	0	455	616	
1	0	0	0	0	455	617	
2	0	0	0	0	455	617	
3	0	0	0	0	454	617	
4	0	0	0	0	454	618	
5	0	0	0	0	454	618	
6	0	0	0	0	455	618	
7	0	0	0	0	455	620	
8	0	0	0	0	457	619	
9	0	0	0	0	457	619	
10	0	0	0	0	458	619	
11	0	0	0	0	459	619	
12	0	0	0	0	460	620	
13	0	0	0	0	461	620	
14	0	0	0	0	462	620	
15	0	0	0	0	463	621	
0	0	0	0	0	464	621	
1	0	0	0	0	465	621	
2	0	0	0	0	467	621	
3	0	0	0	0	467	620	
4	0	0	0	0	468	620	
5	0	0	0	0	467	620	
6	0	0	0	0	467	619	
7	0	0	0	0	468	620	
8	0	0	0	0	468	619	
9	0	0	0	0	468	619	
10	0	0	0	0	469	619	
11	0	0	0	0	470	619	
12	0	0	0	0	471	618	
13	0	0	0	0	472	618	
14	0	0	0	0	473	617	
15	0	0	0	0	474	617	
0	0	0	0	0	476	616	
1	0	0	0	0	478	616	
2	0	0	0	0	479	615	
3	0	0	0	0	480	616	
4	0	0	0	0	481	615	
5	0	0	0	0	483	615	
6	0	0	0	0	484	615	
7	0	0	0	0	485	615	
8	0	0	0	0	487	615	
9	0	0	0	0	487	615	
10	0	0	0	0	488	615	
11	0	0	0	0	489	615	
12	0	0	0	0	490	617	
13	0	0	0	0	491	618	
14	0	0	0	0	492	618	
15	0	0	0	0	494	618	
0	0	0	0	0	494	619	
1	0	0	0	0	496	619	
2	0	0	0	0	497	620	
3	0	0	0	0	499	620	
4	0	0	0	0	501	620	
5	0	0	0	0	502	621	
6	0	0	0	0	503	621	
7	0	0	0	0	504	622	
8	0	0	0	0	504	622	
9	0	0	0	0	506	623	
10	0	0	0	0	506	624	
11	0	0	0	0	507	625	
12	0	0	0	0	507	626	
13	0	0	0	0	508	628	
14	0	0	0	0	509	630	
15	0	0	0	0	509	632	
0	0	0	0	0	510	633	
1	0	0	0	0	511	635	
2	0	0	0	0	511	638	
3	0	0	0	0	511	641	
4	0	0	0	0	511	641	
5	0	0	0	0	511	642	
6	0	0	0	0	511	642	
7	0	0	0	0	511	643	
8	0	0	0	0	511	641	
9	0	0	0	0	512	641	
10	0	0	0	0	513	641	
11	0	0	0	0	512	640	
12	0	0	0	0	512	641	
13	0	0	0	0	512	641	
14	0	0	0	0	513	641	
15	0	0	0	0	513	641	
0	0	0	0	0	513	639	
1	0	0	0	0	513	639	
2	0	0	0	0	513	638	
3	0	0	0	0	512	636	
4	0	0	0	0	513	636	
5	0	0	0	0	513	636	
6	0	0	0	0	513	636	
7	0	0	0	0	512	636	
8	0	0	0	0	512	636	
9	0	0	0	0	513	636	
10	0	0	0	0	513	637	
11	0	0	0	0	512	637	
12	0	0	0	0	512	637	
13	0	0	0	0	512	636	
14	0	0	0	0	510	636	
15	0	0	0	0	510	636	
0	0	0	0	0	510	635	
1	0	0	0	0	510	635	
2	0	0	0	0	510	634	
3	0	0	0	0	511	635	
4	0	0	0	0	511	635	
5	0	0	0	0	512	634	
6	0	0	0	0	512	633	
7	0	0	0	0	512	634	
8	0	0	0	0	512	634	
9	0	0	0	0	513	633	
10	0	0	0	0	513	634	
11	0	0	0	0	513	633	
12	0	0	0	0	513	633	
13	0	0	0	0	512	632	
14	0	0	0	0	512	632	
15	0	0	0	0	512	632	
0	0	0	0	0	512	630	
1	0	0	0	0	513	630	
2	0	0	0	0	513	629	
3	0	0	0	0	512	628	
4	0	0	0	0	512	628	
5	0	0	0	0	512	628	
6	0	0	0	0	512	626	
7	0	0	0	0	511	625	
8	0	0	0	0	511	624	
9	0	0	0	0	511	623	
10	0	0	0	0	511	622	
11	0	0	0	0	512	622	
12	0	0	0	0	512	619	
13	0	0	0	0	512	618	
14	0	0	0	0	511	617	
15	0	0	0	0	511	616	
0	0	0	0	0	511	615	
1	0	0	0	0	511	613	
2	0	0	0	0	511	613	
3	0	0	0	0	511	612	
4	0	0	0	0	511	612	
5	0	0	0	0	512	611	
6	0	0	0	0	513	611	
7	0	0	0	0	513	611	
8	0	0	0	0	513	611	
9	0	0	0	0	513	610	
10	0	0	0	0	512	611	
11	0	0	0	0	512	611	
12	0	0	0	0	511	611	
13	0	0	0	0	510	612	
14	0	0	0	0	510	612	
15	0	0	0	0	510	613	
0	0	0	0	0	510	612	
1	0	0	0	0	510	613	
2	0	0	0	0	510	613	
3	0	0	0	0	510	613	
4	0	0	0	0	509	613	
5	0	0	0	0	510	613	
6	0	0	0	0	511	613	
7	0	0	0	0	511	615	
8	0	0	0	0	511	614	
9	0	0	0	0	511	614	
10	0	0	0	0	511	615	
11	0	0	0	0	512	615	
12	0	0	0	0	512	616	
13	0	0	0	0	512	616	
14	0	0	0	0	512	617	
15	0	0	0	0	511	619	
0	0	0	0	0	511	619	
1	0	0	0	0	511	620	
2	0	0	0	0	511	620	
3	0	0	0	0	510	621	
4	0	0	0	0	510	622	
5	0	0	0	0	511	623	
6	0	0	0	0	511	624	
7	0	0	0	0	511	626	
8	0	0	0	0	511	626	
9	0	0	0	0	511	626	
10	0	0	0	0	512	628	
11	0	0	0	0	512	628	
12	0	0	0	0	511	629	
13	0	0	0	0	511	628	
14	0	0	0	0	511	629	
15	0	0	0	0	511	630	
0	0	0	0	0	512	630	
1	0	0	0	0	511	630	
2	0	0	0	0	511	629	
3	0	0	0	0	510	630	
4	0	0	0	0	510	630	
5	0	0	0	0	510	630	
6	0	0	0	0	509	630	
7	0	0	0	0	509	630	
8	0	0	0	0	507	630	
9	0	0	0	0	507	630	
10	0	0	0	0	507	630	
11	0	0	0	0	508	629	
12	0	0	0	0	507	629	
13	0	0	0	0	506	630	
14	0	0	0	0	506	629	
15	0	0	0	0	505	629	
0	0	0	0	0	505	628	
1	0	0	0	0	505	628	
2	0	0	0	0	504	628	
3	0	0	0	0	505	628	
4	0	0	0	0	505	627	
5	0	0	0	0	505	627	
6	0	0	0	0	506	627	
7	0	0	0	0	506	628	
8	0	0	0	0	505	627	
9	0	0	0	0	504	627	
10	0	0	0	0	504	627	
11	0	0	0	0	504	627	
12	0	0	0	0	505	627	
13	0	0	0	0	507	627	
14	0	0	0	0	508	626	
15	0	0	0	0	508	627	
0	0	0	0	0	508	626	
1	0	0	0	0	508	626	
2	0	0	0	0	507	627	
3	0	0	0	0	507	627	
4	0	0	0	0	508	628	
5	0	0	0	0	508	628	
6	0	0	0	0	507	627	
7	0	0	0	0	508	629	
8	0	0	0	0	508	628	
9	0	0	0	0	508	628	
10	0	0	0	0	508	627	
11	0	0	0	0	508	627	
12	0	0	0	0	509	627	
13	0	0	0	0	509	626	
14	0	0	0	0	509	626	
15	0	0	0	0	508	625	
0	0	0	0	0	508	625	
1	0	0	0	0	507	624	
2	0	0	0	0	507	624	
3	0	0	0	0	506	624	
4	0	0	0	0	507	623	
5	0	0	0	0	507	623	
6	0	0	0	0	508	623	
7	0	0	0	0	508	623	
8	0	0	0	0	508	622	
9	0	0	0	0	508	621	
10	0	0	0	0	508	621	
11	0	0	0	0	508	621	
12	0	0	0	0	508	622	
13	0	0	0	0	508	620	
14	0	0	0	0	508	621	
15	0	0	0	0	509	621	
0	0	0	0	0	510	621	
1	0	0	0	0	510	620	
2	0	0	0	0	511	620	
3	0	0	0	0	512	620	
4	0	0	0	0	512	620	
5	0	0	0	0	512	621	
6	0	0	0	0	512	620	
7	0	0	0	0	512	621	
8	0	0	0	0	512	621	
9	0	0	0	0	512	621	
10	0	0	0	0	513	621	
11	0	0	0	0	512	622	
12	0	0	0	0	512	621	
13	0	0	0	0	512	621	
14	0	0	0	0	512	621	
15	0	0	0	0	512	621	
0	0	0	0	0	513	622	
1	0	0	0	0	513	622	
2	0	0	0	0	513	622	
3	0	0	0	0	512	623	
4	0	0	0	0	512	624	
5	0	0	0	0	512	624	
6	0	0	0	0	512	625	
7	0	0	0	0	514	626	
8	0	0	0	0	515	626	
9	0	0	0	0	516	627	
10	0	0	0	0	516	627	
11	0	0	0	0	516	627	
12	0	0	0	0	513	628	
13	0	0	0	0	512	628	
14	0	0	0	0	512	629	
15	0	0	0	0	512	630	
0	0	0	0	0	512	631	
1	0	0	0	0	512	632	
2	0	0	0	0	513	632	
3	0	0	0	0	513	632	
4	0	0	0	0	514	631	
5	0	0	0	0	514	629	
6	0	0	0	0	514	628	
7	0	0	0	0	513	629	
8	0	0	0	0	513	628	
9	0	0	0	0	513	629	
10	0	0	0	0	514	630	
11	0	0	0	0	515	630	
12	0	0	0	0	514	630	
13	0	0	0	0	514	631	
14	0	0	0	0	513	630	
15	0	0	0	0	512	630	
0	0	0	0	0	511	631	
1	0	0	0	0	511	632	
2	0	0	0	0	512	632	
3	0	0	0	0	512	632	
4	0	0	0	0	511	632	
5	0	0	0	0	510	633	
6	0	0	0	0	510	633	
7	0	0	0	0	511	635	
8	0	0	0	0	512	635	
9	0	0	0	0	512	636	
10	0	0	0	0	512	637	
11	0	0	0	0	512	637	
12	0	0	0	0	512	638	
13	0	0	0	0	512	639	
14	0	0	0	0	512	639	
15	0	0	0	0	512	640	
0	0	0	0	0	512	639	
1	0	0	0	0	512	639	
2	0	0	0	0	512	639	
3	0	0	0	0	513	638	
4	0	0	0	0	515	638	
5	0	0	0	0	515	636	
6	0	0	0	0	515	635	
7	0	0	0	0	514	633	
8	0	0	0	0	514	632	
9	0	0	0	0	513	631	
10	0	0	0	0	512	629	
11	0	0	0	0	512	627	
12	0	0	0	0	512	626	
13	0	0	0	0	511	624	
14	0	0	0	0	511	623	
15	0	0	0	0	510	622	
0	0	0	0	0	510	621	
1	0	0	0	0	510	620	
2	0	0	0	0	510	619	
3	0	0	0	0	510	618	
4	0	0	0	0	510	617	
5	0	0	0	0	510	617	
6	0	0	0	0	510	616	
7	0	0	0	0	510	617	
8	0	0	0	0	510	615	
9	0	0	0	0	509	616	
10	0	0	0	0	509	616	
11	0	0	0	0	508	615	
12	0	0	0	0	509	616	
13	0	0	0	0	510	615	
14	0	0	0	0	511	616	
15	0	0	0	0	511	616	
0	0	0	0	0	511	616	
1	0	0	0	0	511	616	
2	0	0	0	0	510	616	
3	0	0	0	0	510	617	
4	0	0	0	0	510	617	
5	0	0	0	0	508	617	
6	0	0	0	0	508	617	
7	0	0	0	0	508	617	
8	0	0	0	0	508	617	
9	0	0	0	0	508	618	
10	0	0	0	0	508	618	
11	0	0	0	0	509	619	
12	0	0	0	0	508	619	
13	0	0	0	0	507	619	
14	0	0	0	0	507	619	
15	0	0	0	0	507	619	
0	0	0	0	0	508	620	
1	0	0	0	0	508	620	
2	0	0	0	0	509	621	
3	0	0	0	0	509	621	
4	0	0	0	0	508	620	
5	0	0	0	0	508	621	
6	0	0	0	0	508	621	
7	0	0	0	0	508	621	
8	0	0	0	0	508	622	
9	0	0	0	0	508	621	
10	0	0	0	0	508	621	
11	0	0	0	0	510	621	
12	0	0	0	0	510	621	
13	0	0	0	0	512	621	
14	0	0	0	0	512	621	
15	0	0	0	0	512	620	
0	0	0	0	0	513	619	
1	0	0	0	0	514	619	
2	0	0	0	0	514	619	
3	0	0	0	0	515	618	
4	0	0	0	0	515	618	
5	0	0	0	0	515	618	
6	0	0	0	0	515	618	
7	0	0	0	0	515	619	
8	0	0	0	0	514	617	
9	0	0	0	0	513	617	
10	0	0	0	0	513	618	
11	0	0	0	0	513	618	
12	0	0	0	0	513	618	
13	0	0	0	0	513	618	
14	0	0	0	0	514	618	
15	0	0	0	0	514	618	
0	0	0	0	0	513	618	
1	0	0	0	0	514	618	
2	0	0	0	0	513	618	
3	0	0	0	0	513	617	
4	0	0	0	0	513	616	
5	0	0	0	0	514	616	
6	0	0	0	0	513	616	
7	0	0	0	0	512	616	
8	0	0	0	0	512	616	
9	0	0	0	0	511	616	
10	0	0	0	0	510	616	
11	0	0	0	0	510	617	
12	0	0	0	0	509	616	
13	0	0	0	0	509	616	
14	0	0	0	0	509	616	
15	0	0	0	0	509	617	
0	0	0	0	0	509	616	
1	0	0	0	0	508	616	
2	0	0	0	0	508	617	
3	0	0	0	0	508	617	
4	0	0	0	0	508	617	
5	0	0	0	0	508	618	
6	0	0	0	0	508	619	
7	0	0	0	0	507	619	
8	0	0	0	0	507	619	
9	0	0	0	0	507	619	
10	0	0	0	0	506	619	
11	0	0	0	0	505	620	
12	0	0	0	0	505	620	
13	0	0	0	0	506	620	
14	0	0	0	0	507	620	
15	0	0	0	0	508	620	
0	0	0	0	0	508	620	
1	0	0	0	0	508	620	
2	0	0	0	0	508	620	
3	0	0	0	0	509	620	
4	0	0	0	0	510	621	
5	0	0	0	0	510	621	
6	0	0	0	0	510	621	
7	0	0	0	0	510	622	
8	0	0	0	0	511	621	
9	0	0	0	0	510	622	
10	0	0	0	0	509	622	
11	0	0	0	0	509	622	
12	0	0	0	0	510	623	
13	0	0	0	0	510	623	
14	0	0	0	0	510	623	
15	0	0	0	0	511	623	
0	0	0	0	0	511	623	
1	0	0	0	0	512	623	
2	0	0	0	0	512	623	
3	0	0	0	0	512	624	
4	0	0	0	0	512	623	
5	0	0	0	0	512	623	
6	0	0	0	0	512	623	
7	0	0	0	0	513	623	
8	0	0	0	0	513	623	
9	0	0	0	0	512	623	
10	0	0	0	0	512	622	
11	0	0	0	0	511	623	
12	0	0	0	0	510	623	
13	0	0	0	0	510	623	
14	0	0	0	0	510	623	
15	0	0	0	0	509	624	
0	0	0	0	0	508	624	
1	0	0	0	0	508	623	
2	0	0	0	0	508	624	
3	0	0	0	0	507	625	
4	0	0	0	0	508	624	
5	0	0	0	0	507	625	
6	0	0	0	0	506	625	
7	0	0	0	0	505	625	
8	0	0	0	0	503	625	
9	0	0	0	0	501	626	
10	0	0	0	0	497	626	
11	0	0	0	0	494	627	
12	0	0	0	0	489	627	
13	0	0	0	0	482	627	
14	0	0	0	0	474	627	
15	0	0	0	0	465	627	
0	0	0	0	0	455	627	
1	0	0	0	0	446	627	
2	0	0	0	0	438	627	
3	0	0	0	0	431	627	
4	0	0	0	0	423	626	
5	0	0	0	0	417	626	
6	0	0	0	0	414	626	
7	0	0	0	0	412	626	
8	0	0	0	0	412	625	
9	0	0	0	0	413	625	
10	0	0	0	0	416	625	
11	0	0	0	0	421	625	
12	0	0	0	0	427	624	
13	0	0	0	0	433	624	
14	0	0	0	0	437	624	
15	0	0	0	0	442	624	
0	0	0	0	0	447	624	
1	0	0	0	0	452	623	
2	0	0	0	0	459	624	
3	0	0	0	0	467	624	
4	0	0	0	0	480	623	
5	0	0	0	0	499	623	
6	0	0	0	0	523	623	
7	0	0	0	0	549	624	
8	0	0	0	0	578	623	
9	0	0	0	0	612	623	
10	0	0	0	0	648	623	
11	0	0	0	0	691	624	
12	0	0	0	0	736	623	
13	0	0	0	0	778	623	
14	0	0	0	0	816	623	
15	0	0	0	0	849	624	
0	0	0	0	0	875	623	
1	0	0	0	0	895	623	
2	0	0	0	0	908	624	
3	0	0	0	0	915	623	
4	0	0	0	0	915	623	
5	0	0	0	0	911	624	
6	0	0	0	0	905	623	
7	0	0	0	0	896	623	
8	0	0	0	0	884	622	
9	0	0	0	0	871	623	
10	0	0	0	0	853	623	
11	0	0	0	0	834	623	
12	0	0	0	0	811	624	
13	0	0	0	0	786	624	
14	0	0	0	0	759	624	
15	0	0	0	0	734	625	
0	0	0	0	0	710	625	
1	0	0	0	0	689	625	
2	0	0	0	0	670	626	
3	0	0	0	0	653	626	
4	0	0	0	0	636	627	
5	0	0	0	0	621	627	
6	0	0	0	0	608	627	
7	0	0	0	0	596	628	
8	0	0	0	0	586	628	
9	0	0	0	0	575	629	
10	0	0	0	0	564	629	
11	0	0	0	0	552	630	
12	0	0	0	0	542	630	
13	0	0	0	0	530	630	
14	0	0	0	0	520	630	
15	0	0	0	0	510	632	
0	0	0	0	0	500	632	
1	0	0	0	0	490	632	
2	0	0	0	0	482	633	
3	0	0	0	0	474	633	
4	0	0	0	0	468	632	
5	0	0	0	0	462	632	
6	0	0	0	0	455	632	
7	0	0	0	0	448	633	
8	0	0	0	0	443	632	
9	0	0	0	0	438	632	
10	0	0	0	0	434	632	
11	0	0	0	0	429	632	
12	0	0	0	0	426	632	
13	0	0	0	0	424	631	
14	0	0	0	0	423	631	
15	0	0	0	0	421	631	
0	0	0	0	0	419	630	
1	0	0	0	0	419	630	
2	0	0	0	0	419	630	
3	0	0	0	0	418	630	
4	0	0	0	0	416	629	
5	0	0	0	0	415	628	
6	0	0	0	0	415	628	
7	0	0	0	0	414	628	
8	0	0	0	0	414	628	
9	0	0	0	0	415	627	
10	0	0	0	0	415	628	
11	0	0	0	0	415	627	
12	0	0	0	0	415	627	
13	0	0	0	0	415	626	
14	0	0	0	0	415	626	
15	0	0	0	0	415	626	
0	0	0	0	0	415	625	
1	0	0	0	0	416	626	
2	0	0	0	0	416	624	
3	0	0	0	0	416	624	
4	0	0	0	0	415	623	
5	0	0	0	0	416	624	
6	0	0	0	0	416	623	
7	0	0	0	0	416	623	
8	0	0	0	0	415	622	
9	0	0	0	0	415	622	
10	0	0	0	0	416	622	
11	0	0	0	0	416	621	
12	0	0	0	0	416	621	
13	0	0	0	0	416	620	
14	0	0	0	0	416	620	
15	0	0	0	0	417	621	
0	0	0	0	0	417	620	
1	0	0	0	0	419	620	
2	0	0	0	0	420	621	
3	0	0	0	0	421	621	
4	0	0	0	0	422	620	
5	0	0	0	0	423	621	
6	0	0	0	0	423	621	
7	0	0	0	0	423	621	
8	0	0	0	0	423	621	
9	0	0	0	0	424	621	
10	0	0	0	0	425	621	
11	0	0	0	0	427	621	
12	0	0	0	0	428	621	
13	0	0	0	0	428	621	
14	0	0	0	0	428	621	
15	0	0	0	0	429	621	
0	0	0	0	0	429	620	
1	0	0	0	0	430	620	
2	0	0	0	0	431	620	
3	0	0	0	0	431	619	
4	0	0	0	0	432	619	
5	0	0	0	0	433	620	
6	0	0	0	0	434	620	
7	0	0	0	0	434	620	
8	0	0	0	0	435	621	
9	0	0	0	0	434	620	
10	0	0	0	0	434	621	
11	0	0	0	0	435	622	
12	0	0	0	0	436	621	
13	0	0	0	0	437	622	
14	0	0	0	0	436	622	
15	0	0	0	0	438	622	
0	0	0	0	0	438	623	
1	0	0	0	0	438	623	
2	0	0	0	0	439	623	
3	0	0	0	0	439	623	
4	0	0	0	0	440	623	
5	0	0	0	0	441	623	
6	0	0	0	0	440	623	
7	0	0	0	0	440	624	
8	0	0	0	0	440	624	
9	0	0	0	0	440	624	
10	0	0	0	0	440	625	
11	0	0	0	0	441	624	
12	0	0	0	0	441	625	
13	0	0	0	0	442	625	
14	0	0	0	0	443	625	
15	0	0	0	0	443	626	
0	0	0	0	0	443	626	
1	0	0	0	0	444	625	
2	0	0	0	0	444	625	
3	0	0	0	0	446	626	
4	0	0	0	0	446	626	
5	0	0	0	0	446	625	
6	0	0	0	0	446	625	
7	0	0	0	0	446	625	
8	0	0	0	0	446	625	
9	0	0	0	0	446	626	
10	0	0	0	0	447	626	
11	0	0	0	0	447	626	
12	0	0	0	0	447	626	
13	0	0	0	0	447	626	
14	0	0	0	0	447	626	
15	0	0	0	0	447	626	
0	0	0	0	0	446	626	
1	0	0	0	0	446	626	
2	0	0	0	0	446	625	
3	0	0	0	0	446	625	
4	0	0	0	0	446	625	
5	0	0	0	0	446	625	
6	0	0	0	0	446	626	
7	0	0	0	0	446	626	
8	0	0	0	0	448	626	
9	0	0	0	0	448	626	
10	0	0	0	0	449	626	
11	0	0	0	0	449	627	
12	0	0	0	0	450	627	
13	0	0	0	0	451	627	
14	0	0	0	0	451	627	
15	0	0	0	0	451	627	
0	0	0	0	0	451	626	
1	0	0	0	0	451	626	
2	0	0	0	0	452	626	
3	0	0	0	0	452	626	
4	0	0	0	0	452	626	
5	0	0	0	0	452	627	
6	0	0	0	0	452	626	
7	0	0	0	0	453	627	
8	0	0	0	0	453	626	
9	0	0	0	0	454	627	
10	0	0	0	0	455	626	
11	0	0	0	0	457	627	
12	0	0	0	0	458	627	
13	0	0	0	0	459	626	
14	0	0	0	0	459	626	
15	0	0	0	0	459	627	
0	0	0	0	0	460	627	
1	0	0	0	0	461	627	
2	0	0	0	0	461	627	
3	0	0	0	0	461	627	
4	0	0	0	0	462	626	
5	0	0	0	0	462	627	
6	0	0	0	0	463	626	
7	0	0	0	0	463	627	
8	0	0	0	0	465	627	
9	0	0	0	0	466	627	
10	0	0	0	0	467	627	
11	0	0	0	0	468	628	
12	0	0	0	0	469	627	
13	0	0	0	0	471	627	
14	0	0	0	0	472	627	
15	0	0	0	0	473	628	
0	0	0	0	0	473	627	
1	0	0	0	0	474	628	
2	0	0	0	0	474	627	
3	0	0	0	0	475	627	
4	0	0	0	0	476	627	
5	0	0	0	0	476	627	
6	0	0	0	0	478	626	
7	0	0	0	0	479	627	
8	0	0	0	0	480	627	
9	0	0	0	0	481	627	
10	0	0	0	0	483	626	
11	0	0	0	0	484	627	
12	0	0	0	0	486	626	
13	0	0	0	0	487	627	
14	0	0	0	0	488	626	
15	0	0	0	0	489	625	
0	0	0	0	0	490	625	
1	0	0	0	0	491	625	
2	0	0	0	0	492	625	
3	0	0	0	0	493	625	
4	0	0	0	0	494	624	
5	0	0	0	0	495	624	
6	0	0	0	0	496	623	
7	0	0	0	0	497	624	
8	0	0	0	0	498	624	
9	0	0	0	0	499	623	
10	0	0	0	0	499	623	
11	0	0	0	0	501	624	
12	0	0	0	0	502	623	
13	0	0	0	0	504	623	
14	0	0	0	0	505	623	
15	0	0	0	0	507	623	
0	0	0	0	0	509	623	
1	0	0	0	0	511	622	
2	0	0	0	0	512	623	
3	0	0	0	0	512	622	
4	0	0	0	0	513	622	
5	0	0	0	0	513	622	
6	0	0	0	0	513	621	
7	0	0	0	0	514	621	
8	0	0	0	0	515	621	
9	0	0	0	0	516	620	
10	0	0	0	0	518	620	
11	0	0	0	0	519	620	
12	0	0	0	0	519	620	
13	0	0	0	0	521	620	
14	0	0	0	0	521	620	
15	0	0	0	0	522	620	
0	0	0	0	0	521	620	
1	0	0	0	0	522	620	
2	0	0	0	0	523	619	
3	0	0	0	0	524	620	
4	0	0	0	0	524	620	
5	0	0	0	0	524	620	
6	0	0	0	0	524	619	
7	0	0	0	0	524	620	
8	0	0	0	0	524	620	
9	0	0	0	0	524	620	
10	0	0	0	0	523	620	
11	0	0	0	0	523	621	
12	0	0	0	0	522	620	
13	0	0	0	0	522	620	
14	0	0	0	0	521	621	
15	0	0	0	0	520	622	
0	0	0	0	0	520	621	
1	0	0	0	0	520	621	
2	0	0	0	0	520	622	
3	0	0	0	0	520	623	
4	0	0	0	0	520	622	
5	0	0	0	0	521	622	
6	0	0	0	0	520	623	
7	0	0	0	0	520	624	
8	0	0	0	0	521	624	
9	0	0	0	0	520	623	
10	0	0	0	0	520	624	
11	0	0	0	0	520	624	
12	0	0	0	0	519	624	
13	0	0	0	0	519	624	
14	0	0	0	0	519	624	
15	0	0	0	0	518	624	
0	0	0	0	0	518	625	
1	0	0	0	0	518	624	
2	0	0	0	0	518	625	
3	0	0	0	0	518	625	
4	0	0	0	0	518	625	
5	0	0	0	0	518	624	
6	0	0	0	0	518	624	
7	0	0	0	0	518	625	
8	0	0	0	0	517	625	
9	0	0	0	0	518	624	
10	0	0	0	0	518	625	
11	0	0	0	0	518	625	
12	0	0	0	0	518	625	
13	0	0	0	0	518	625	
14	0	0	0	0	518	625	
15	0	0	0	0	518	625	
0	0	0	0	0	518	625	
1	0	0	0	0	518	625	
2	0	0	0	0	518	625	
3	0	0	0	0	519	625	
4	0	0	0	0	519	624	
5	0	0	0	0	519	625	
6	0	0	0	0	519	625	
7	0	0	0	0	519	625	
8	0	0	0	0	519	626	
9	0	0	0	0	519	625	
10	0	0	0	0	519	625	
11	0	0	0	0	520	625	
12	0	0	0	0	520	625	
13	0	0	0	0	519	625	
14	0	0	0	0	519	625	
15	0	0	0	0	518	625	
0	0	0	0	0	517	625	
1	0	0	0	0	516	625	
2	0	0	0	0	515	625	
3	0	0	0	0	515	625	
4	0	0	0	0	515	625	
5	0	0	0	0	516	625	
6	0	0	0	0	516	625	
7	0	0	0	0	516	625	
8	0	0	0	0	516	624	
9	0	0	0	0	515	625	
10	0	0	0	0	516	624	
11	0	0	0	0	517	624	
12	0	0	0	0	517	624	
13	0	0	0	0	517	624	
14	0	0	0	0	518	624	
15	0	0	0	0	518	624	
0	0	0	0	0	518	624	
1	0	0	0	0	518	624	
2	0	0	0	0	518	624	
3	0	0	0	0	518	625	
4	0	0	0	0	519	624	
5	0	0	0	0	519	624	
6	0	0	0	0	519	624	
7	0	0	0	0	520	624	
8	0	0	0	0	519	624	
9	0	0	0	0	518	624	
10	0	0	0	0	518	624	
11	0	0	0	0	518	625	
12	0	0	0	0	517	625	
13	0	0	0	0	516	625	
14	0	0	0	0	515	625	
15	0	0	0	0	515	625	
0	0	0	0	0	516	625	
1	0	0	0	0	515	625	
2	0	0	0	0	515	625	
3	0	0	0	0	516	626	
4	0	0	0	0	515	625	
5	0	0	0	0	516	625	
6	0	0	0	0	516	625	
7	0	0	0	0	516	626	
8	0	0	0	0	515	625	
9	0	0	0	0	515	626	
10	0	0	0	0	515	626	
11	0	0	0	0	514	625	
12	0	0	0	0	513	625	
13	0	0	0	0	513	625	
14	0	0	0	0	513	625	
15	0	0	0	0	513	625	
0	0	0	0	0	513	625	
1	0	0	0	0	513	625	
2	0	0	0	0	513	625	
3	0	0	0	0	512	624	
4	0	0	0	0	513	624	
5	0	0	0	0	512	624	
6	0	0	0	0	512	624	
7	0	0	0	0	512	624	
8	0	0	0	0	513	624	
9	0	0	0	0	513	624	
10	0	0	0	0	513	622	
11	0	0	0	0	513	623	
12	0	0	0	0	513	623	
13	0	0	0	0	513	623	
14	0	0	0	0	512	622	
15	0	0	0	0	511	622	
0	0	0	0	0	509	621	
1	0	0	0	0	509	621	
2	0	0	0	0	511	621	
3	0	0	0	0	512	621	
4	0	0	0	0	512	621	
5	0	0	0	0	512	621	
6	0	0	0	0	511	620	
7	0	0	0	0	512	621	
8	0	0	0	0	511	622	
9	0	0	0	0	510	622	
10	0	0	0	0	511	621	
11	0	0	0	0	511	622	
12	0	0	0	0	511	621	
13	0	0	0	0	512	622	
14	0	0	0	0	512	622	
15	0	0	0	0	512	623	
0	0	0	0	0	512	622	
1	0	0	0	0	512	622	
2	0	0	0	0	511	622	
3	0	0	0	0	511	623	
4	0	0	0	0	511	623	
5	0	0	0	0	510	623	
6	0	0	0	0	509	623	
7	0	0	0	0	510	624	
8	0	0	0	0	509	624	
9	0	0	0	0	508	624	
10	0	0	0	0	508	624	
11	0	0	0	0	507	624	
12	0	0	0	0	507	623	
13	0	0	0	0	507	624	
14	0	0	0	0	507	624	
15	0	0	0	0	508	625	
0	0	0	0	0	508	624	
1	0	0	0	0	508	624	
2	0	0	0	0	508	624	
3	0	0	0	0	508	624	
4	0	0	0	0	507	624	
5	0	0	0	0	507	624	
6	0	0	0	0	507	624	
7	0	0	0	0	507	624	
8	0	0	0	0	508	623	
9	0	0	0	0	509	623	
10	0	0	0	0	509	624	
11	0	0	0	0	509	623	
12	0	0	0	0	509	623	
13	0	0	0	0	508	623	
14	0	0	0	0	509	623	
15	0	0	0	0	508	623	
0	0	0	0	0	507	622	
1	0	0	0	0	507	623	
2	0	0	0	0	507	623	
3	0	0	0	0	507	623	
4	0	0	0	0	507	622	
5	0	0	0	0	507	622	
6	0	0	0	0	507	622	
7	0	0	0	0	507	622	
8	0	0	0	0	507	622	
9	0	0	0	0	507	622	
10	0	0	0	0	508	622	
11	0	0	0	0	507	622	
12	0	0	0	0	507	622	
13	0	0	0	0	507	622	
14	0	0	0	0	507	622	
15	0	0	0	0	507	623	
0	0	0	0	0	507	622	
1	0	0	0	0	507	622	
2	0	0	0	0	508	622	
3	0	0	0	0	508	623	
4	0	0	0	0	509	622	
5	0	0	0	0	509	623	
6	0	0	0	0	509	623	
7	0	0	0	0	509	624	
8	0	0	0	0	509	623	
9	0	0	0	0	509	623	
10	0	0	0	0	509	623	
11	0	0	0	0	509	624	
12	0	0	0	0	510	623	
13	0	0	0	0	510	624	
14	0	0	0	0	509	624	
15	0	0	0	0	509	624	
0	0	0	0	0	508	624	
1	0	0	0	0	508	624	
2	0	0	0	0	508	624	
3	0	0	0	0	509	624	
4	0	0	0	0	510	624	
5	0	0	0	0	510	623	
6	0	0	0	0	510	624	
7	0	0	0	0	511	625	
8	0	0	0	0	511	624	
9	0	0	0	0	511	623	
10	0	0	0	0	511	624	
11	0	0	0	0	511	624	
12	0	0	0	0	511	624	
13	0	0	0	0	511	623	
14	0	0	0	0	512	623	
15	0	0	0	0	512	624	
0	0	0	0	0	512	623	
1	0	0	0	0	512	623	
2	0	0	0	0	511	623	
3	0	0	0	0	511	624	
4	0	0	0	0	511	623	
5	0	0	0	0	511	623	
6	0	0	0	0	511	623	
7	0	0	0	0	512	624	
8	0	0	0	0	511	623	
9	0	0	0	0	511	623	
10	0	0	0	0	512	623	
11	0	0	0	0	512	623	
12	0	0	0	0	512	623	
13	0	0	0	0	513	623	
14	0	0	0	0	514	624	
15	0	0	0	0	514	624	
0	0	0	0	0	514	624	
1	0	0	0	0	513	624	
2	0	0	0	0	513	623	
3	0	0	0	0	514	624	
4	0	0	0	0	513	623	
5	0	0	0	0	513	623	
6	0	0	0	0	513	623	
7	0	0	0	0	513	624	
8	0	0	0	0	512	623	
9	0	0	0	0	512	623	
10	0	0	0	0	511	623	
11	0	0	0	0	511	622	
12	0	0	0	0	512	623	
13	0	0	0	0	511	622	
14	0	0	0	0	511	623	
15	0	0	0	0	510	623	
0	0	0	0	0	511	622	
1	0	0	0	0	511	623	
2	0	0	0	0	511	623	
3	0	0	0	0	510	624	
4	0	0	0	0	511	623	
5	0	0	0	0	510	624	
6	0	0	0	0	511	623	
7	0	0	0	0	511	624	
8	0	0	0	0	511	624	
9	0	0	0	0	510	624	
10	0	0	0	0	510	624	
11	0	0	0	0	510	624	
12	0	0	0	0	510	625	
13	0	0	0	0	511	624	
14	0	0	0	0	510	624	
15	0	0	0	0	510	624	
0	0	0	0	0	509	623	
1	0	0	0	0	510	624	
2	0	0	0	0	510	624	
3	0	0	0	0	510	624	
4	0	0	0	0	510	624	
5	0	0	0	0	510	624	
6	0	0	0	0	510	624	
7	0	0	0	0	510	625	
8	0	0	0	0	511	625	
9	0	0	0	0	511	625	
10	0	0	0	0	512	625	
11	0	0	0	0	512	625	
12	0	0	0	0	514	625	
13	0	0	0	0	515	625	
14	0	0	0	0	515	625	
15	0	0	0	0	516	625	
0	0	0	0	0	516	625	
1	0	0	0	0	516	625	
2	0	0	0	0	515	625	
3	0	0	0	0	515	625	
4	0	0	0	0	515	625	
5	0	0	0	0	514	625	
6	0	0	0	0	515	625	
7	0	0	0	0	515	625	
8	0	0	0	0	514	625	
9	0	0	0	0	515	625	
10	0	0	0	0	515	625	
11	0	0	0	0	515	625	
12	0	0	0	0	515	625	
13	0	0	0	0	514	625	
14	0	0	0	0	514	624	
15	0	0	0	0	515	625	
0	0	0	0	0	515	625	
1	0	0	0	0	515	624	
2	0	0	0	0	514	624	
3	0	0	0	0	514	625	
4	0	0	0	0	514	624	
5	0	0	0	0	513	624	
6	0	0	0	0	513	624	
7	0	0	0	0	512	624	
8	0	0	0	0	512	624	
9	0	0	0	0	511	623	
10	0	0	0	0	511	624	
11	0	0	0	0	511	624	
12	0	0	0	0	512	623	
13	0	0	0	0	511	623	
14	0	0	0	0	511	623	
15	0	0	0	0	511	624	
0	0	0	0	0	511	622	
1	0	0	0	0	511	623	
2	0	0	0	0	511	622	
3	0	0	0	0	511	623	
4	0	0	0	0	511	623	
5	0	0	0	0	510	622	
6	0	0	0	0	510	622	
7	0	0	0	0	510	623	
8	0	0	0	0	510	622	
9	0	0	0	0	510	623	
10	0	0	0	0	511	622	
11	0	0	0	0	511	622	
12	0	0	0	0	510	622	
13	0	0	0	0	510	623	
14	0	0	0	0	510	623	
15	0	0	0	0	510	623	
0	0	0	0	0	510	622	
1	0	0	0	0	510	623	
2	0	0	0	0	511	623	
3	0	0	0	0	512	623	
4	0	0	0	0	513	622	
5	0	0	0	0	512	623	
6	0	0	0	0	513	623	
7	0	0	0	0	513	622	
8	0	0	0	0	513	623	
9	0	0	0	0	513	622	
10	0	0	0	0	513	622	
11	0	0	0	0	513	622	
12	0	0	0	0	512	622	
13	0	0	0	0	512	622	
14	0	0	0	0	512	621	
15	0	0	0	0	512	622	
0	0	0	0	0	511	622	
1	0	0	0	0	511	622	
2	0	0	0	0	510	622	
3	0	0	0	0	509	622	
4	0	0	0	0	509	622	
5	0	0	0	0	509	621	
6	0	0	0	0	509	621	
7	0	0	0	0	509	622	
8	0	0	0	0	508	622	
9	0	0	0	0	508	623	
10	0	0	0	0	509	623	
11	0	0	0	0	508	623	
12	0	0	0	0	508	623	
13	0	0	0	0	508	623	
14	0	0	0	0	508	623	
15	0	0	0	0	508	624	
0	0	0	0	0	508	623	
1	0	0	0	0	508	624	
2	0	0	0	0	508	624	
3	0	0	0	0	507	624	
4	0	0	0	0	507	624	
5	0	0	0	0	506	624	
6	0	0	0	0	505	624	
7	0	0	0	0	505	624	
8	0	0	0	0	504	624	
9	0	0	0	0	503	624	
10	0	0	0	0	502	625	
11	0	0	0	0	499	626	
12	0	0	0	0	495	625	
13	0	0	0	0	490	625	
14	0	0	0	0	483	625	
15	0	0	0	0	475	625	
0	0	0	0	0	466	626	
1	0	0	0	0	456	625	
2	0	0	0	0	447	626	
3	0	0	0	0	438	625	
4	0	0	0	0	431	624	
5	0	0	0	0	424	626	
6	0	0	0	0	419	625	
7	0	0	0	0	416	625	
8	0	0	0	0	416	624	
9	0	0	0	0	417	624	
10	0	0	0	0	419	624	
11	0	0	0	0	423	624	
12	0	0	0	0	428	624	
13	0	0	0	0	432	624	
14	0	0	0	0	439	624	
15	0	0	0	0	444	624	
0	0	0	0	0	448	624	
1	0	0	0	0	453	624	
2	0	0	0	0	459	623	
3	0	0	0	0	465	624	
4	0	0	0	0	472	624	
5	0	0	0	0	485	624	
6	0	0	0	0	504	625	
7	0	0	0	0	527	624	
8	0	0	0	0	552	624	
9	0	0	0	0	580	624	
10	0	0	0	0	612	624	
11	0	0	0	0	646	624	
12	0	0	0	0	686	624	
13	0	0	0	0	725	624	
14	0	0	0	0	763	625	
15	0	0	0	0	795	624	
0	0	0	0	0	824	624	
1	0	0	0	0	846	623	
2	0	0	0	0	862	623	
3	0	0	0	0	872	623	
4	0	0	0	0	875	623	
5	0	0	0	0	872	623	
6	0	0	0	0	869	624	
7	0	0	0	0	862	624	
8	0	0	0	0	854	623	
9	0	0	0	0	844	623	
10	0	0	0	0	832	623	
11	0	0	0	0	818	623	
12	0	0	0	0	800	623	
13	0	0	0	0	780	623	
14	0	0	0	0	759	624	
15	0	0	0	0	737	624	
0	0	0	0	0	716	624	
1	0	0	0	0	697	624	
2	0	0	0	0	679	624	
3	0	0	0	0	662	624	
4	0	0	0	0	646	624	
5	0	0	0	0	631	624	
6	0	0	0	0	617	624	
7	0	0	0	0	607	625	
8	0	0	0	0	595	624	
9	0	0	0	0	585	624	
10	0	0	0	0	575	624	
11	0	0	0	0	564	624	
12	0	0	0	0	554	624	
13	0	0	0	0	544	624	
14	0	0	0	0	532	624	
15	0	0	0	0	523	625	
0	0	0	0	0	512	624	
1	0	0	0	0	503	624	
2	0	0	0	0	494	624	
3	0	0	0	0	486	624	
4	0	0	0	0	478	624	
5	0	0	0	0	471	624	
6	0	0	0	0	465	624	
7	0	0	0	0	459	625	
8	0	0	0	0	454	623	
9	0	0	0	0	450	623	
10	0	0	0	0	447	624	
11	0	0	0	0	444	624	
12	0	0	0	0	440	623	
13	0	0	0	0	438	623	
14	0	0	0	0	435	623	
15	0	0	0	0	433	623	
0	0	0	0	0	432	623	
1	0	0	0	0	431	623	
2	0	0	0	0	429	622	
3	0	0	0	0	428	623	
4	0	0	0	0	427	622	
5	0	0	0	0	427	622	
6	0	0	0	0	426	622	
7	0	0	0	0	425	623	
8	0	0	0	0	424	622	
9	0	0	0	0	423	622	
10	0	0	0	0	423	622	
11	0	0	0	0	423	622	
12	0	0	0	0	424	621	
13	0	0	0	0	424	622	
14	0	0	0	0	424	622	
15	0	0	0	0	425	623	
0	0	0	0	0	424	623	
1	0	0	0	0	425	622	
2	0	0	0	0	425	622	
3	0	0	0	0	426	623	
4	0	0	0	0	426	623	
5	0	0	0	0	426	622	
6	0	0	0	0	427	623	
7	0	0	0	0	427	624	
8	0	0	0	0	427	624	
9	0	0	0	0	427	623	
10	0	0	0	0	427	623	
11	0	0	0	0	427	624	
12	0	0	0	0	427	623	
13	0	0	0	0	427	624	
14	0	0	0	0	428	624	
15	0	0	0	0	430	624	
0	0	0	0	0	430	624	
1	0	0	0	0	431	623	
2	0	0	0	0	430	623	
3	0	0	0	0	431	624	
4	0	0	0	0	431	623	
5	0	0	0	0	431	623	
6	0	0	0	0	432	623	
7	0	0	0	0	433	623	
8	0	0	0	0	435	623	
9	0	0	0	0	435	623	
10	0	0	0	0	436	623	
11	0	0	0	0	436	623	
12	0	0	0	0	437	623	
13	0	0	0	0	438	623	
14	0	0	0	0	439	623	
15	0	0	0	0	439	624	
0	0	0	0	0	439	623	
1	0	0	0	0	440	623	
2	0	0	0	0	440	623	
3	0	0	0	0	440	623	
4	0	0	0	0	440	623	
5	0	0	0	0	441	623	
6	0	0	0	0	441	623	
7	0	0	0	0	442	624	
8	0	0	0	0	443	623	
9	0	0	0	0	443	623	
10	0	0	0	0	444	624	
11	0	0	0	0	445	624	
12	0	0	0	0	446	624	
13	0	0	0	0	446	624	
14	0	0	0	0	447	623	
15	0	0	0	0	447	624	
0	0	0	0	0	447	624	
1	0	0	0	0	448	624	
2	0	0	0	0	448	624	
3	0	0	0	0	448	624	
4	0	0	0	0	448	624	
5	0	0	0	0	448	624	
6	0	0	0	0	449	624	
7	0	0	0	0	449	625	
8	0	0	0	0	451	624	
9	0	0	0	0	451	624	
10	0	0	0	0	451	624	
11	0	0	0	0	452	624	
12	0	0	0	0	452	625	
13	0	0	0	0	452	624	
14	0	0	0	0	452	624	
15	0	0	0	0	452	624	
0	0	0	0	0	452	624	
1	0	0	0	0	452	623	
2	0	0	0	0	453	623	
3	0	0	0	0	453	623	
4	0	0	0	0	452	623	
5	0	0	0	0	452	623	
6	0	0	0	0	454	624	
7	0	0	0	0	454	623	
8	0	0	0	0	453	623	
9	0	0	0	0	454	623	
10	0	0	0	0	455	623	
11	0	0	0	0	456	623	
12	0	0	0	0	457	623	
13	0	0	0	0	458	624	
14	0	0	0	0	457	623	
15	0	0	0	0	457	624	
0	0	0	0	0	457	624	
1	0	0	0	0	458	624	
2	0	0	0	0	458	624	
3	0	0	0	0	458	625	
4	0	0	0	0	459	624	
5	0	0	0	0	459	624	
6	0	0	0	0	460	624	
7	0	0	0	0	460	624	
8	0	0	0	0	461	624	
9	0	0	0	0	461	624	
10	0	0	0	0	461	624	
11	0	0	0	0	461	624	
12	0	0	0	0	462	623	
13	0	0	0	0	462	623	
14	0	0	0	0	463	624	
15	0	0	0	0	463	624	
0	0	0	0	0	463	623	
1	0	0	0	0	464	623	
2	0	0	0	0	464	623	
3	0	0	0	0	465	623	
4	0	0	0	0	465	623	
5	0	0	0	0	466	622	
6	0	0	0	0	466	623	
7	0	0	0	0	466	623	
8	0	0	0	0	467	623	
9	0	0	0	0	467	623	
10	0	0	0	0	467	623	
11	0	0	0	0	468	624	
12	0	0	0	0	469	623	
13	0	0	0	0	470	623	
14	0	0	0	0	470	622	
15	0	0	0	0	471	623	
0	0	0	0	0	472	623	
1	0	0	0	0	472	624	
2	0	0	0	0	472	623	
3	0	0	0	0	474	623	
4	0	0	0	0	474	623	
5	0	0	0	0	475	623	
6	0	0	0	0	475	623	
7	0	0	0	0	476	624	
8	0	0	0	0	476	623	
9	0	0	0	0	477	623	
10	0	0	0	0	478	623	
11	0	0	0	0	478	624	
12	0	0	0	0	479	624	
13	0	0	0	0	480	624	
14	0	0	0	0	481	624	
15	0	0	0	0	483	624	
0	0	0	0	0	483	624	
1	0	0	0	0	484	624	
2	0	0	0	0	485	624	
3	0	0	0	0	487	624	
4	0	0	0	0	488	623	
5	0	0	0	0	488	624	
6	0	0	0	0	490	624	
7	0	0	0	0	491	624	
8	0	0	0	0	492	623	
9	0	0	0	0	493	623	
10	0	0	0	0	495	623	
11	0	0	0	0	496	623	
12	0	0	0	0	497	623	
13	0	0	0	0	498	623	
14	0	0	0	0	499	623	
15	0	0	0	0	499	623	
0	0	0	0	0	500	623	
1	0	0	0	0	501	623	
2	0	0	0	0	502	623	
3	0	0	0	0	502	623	
4	0	0	0	0	503	622	
5	0	0	0	0	504	622	
6	0	0	0	0	506	623	
7	0	0	0	0	507	623	
8	0	0	0	0	508	622	
9	0	0	0	0	509	622	
10	0	0	0	0	510	622	
11	0	0	0	0	512	622	
12	0	0	0	0	512	622	
13	0	0	0	0	513	622	
14	0	0	0	0	514	622	
15	0	0	0	0	515	622	
0	0	0	0	0	516	622	
1	0	0	0	0	516	622	
2	0	0	0	0	517	622	
3	0	0	0	0	517	622	
4	0	0	0	0	517	622	
5	0	0	0	0	517	622	
6	0	0	0	0	518	623	
7	0	0	0	0	518	623	
8	0	0	0	0	519	623	
9	0	0	0	0	519	623	
10	0	0	0	0	520	623	
11	0	0	0	0	521	623	
12	0	0	0	0	522	623	
13	0	0	0	0	524	624	
14	0	0	0	0	525	623	
15	0	0	0	0	526	624	
0	0	0	0	0	526	624	
1	0	0	0	0	526	623	
2	0	0	0	0	525	623	
3	0	0	0	0	526	624	
4	0	0	0	0	526	624	
5	0	0	0	0	525	623	
6	0	0	0	0	525	623	
7	0	0	0	0	525	624	
8	0	0	0	0	525	624	
9	0	0	0	0	526	624	
10	0	0	0	0	526	624	
11	0	0	0	0	526	624	
12	0	0	0	0	526	624	
13	0	0	0	0	525	625	
14	0	0	0	0	524	624	
15	0	0	0	0	524	624	
0	0	0	0	0	524	624	
1	0	0	0	0	524	624	
2	0	0	0	0	524	625	
3	0	0	0	0	523	625	
4	0	0	0	0	523	625	
5	0	0	0	0	523	626	
6	0	0	0	0	523	626	
7	0	0	0	0	523	626	
8	0	0	0	0	522	626	
9	0	0	0	0	523	626	
10	0	0	0	0	522	626	
11	0	0	0	0	522	626	
12	0	0	0	0	521	626	
13	0	0	0	0	521	626	
14	0	0	0	0	520	626	
15	0	0	0	0	521	626	
0	0	0	0	0	521	625	
1	0	0	0	0	521	626	
2	0	0	0	0	521	626	
3	0	0	0	0	521	626	
4	0	0	0	0	522	625	
5	0	0	0	0	521	625	
6	0	0	0	0	521	626	
7	0	0	0	0	521	626	
8	0	0	0	0	522	626	
9	0	0	0	0	522	625	
10	0	0	0	0	521	625	
11	0	0	0	0	521	625	
12	0	0	0	0	521	624	
13	0	0	0	0	521	625	
14	0	0	0	0	521	624	
15	0	0	0	0	520	624	
0	0	0	0	0	521	624	
1	0	0	0	0	521	624	
2	0	0	0	0	521	624	
3	0	0	0	0	520	624	
4	0	0	0	0	520	623	
5	0	0	0	0	519	624	
6	0	0	0	0	520	623	
7	0	0	0	0	520	624	
8	0	0	0	0	521	623	
9	0	0	0	0	521	623	
10	0	0	0	0	521	623	
11	0	0	0	0	521	623	
12	0	0	0	0	521	623	
13	0	0	0	0	521	623	
14	0	0	0	0	521	622	
15	0	0	0	0	522	623	
0	0	0	0	0	521	623	
1	0	0	0	0	521	622	
2	0	0	0	0	521	622	
3	0	0	0	0	521	622	
4	0	0	0	0	521	622	
5	0	0	0	0	520	622	
6	0	0	0	0	520	622	
7	0	0	0	0	520	623	
8	0	0	0	0	521	622	
9	0	0	0	0	521	622	
10	0	0	0	0	521	622	
11	0	0	0	0	521	622	
12	0	0	0	0	521	622	
13	0	0	0	0	520	622	
14	0	0	0	0	521	622	
15	0	0	0	0	521	623	
0	0	0	0	0	521	622	
1	0	0	0	0	520	622	
2	0	0	0	0	519	622	
3	0	0	0	0	520	623	
4	0	0	0	0	521	622	
5	0	0	0	0	521	622	
6	0	0	0	0	520	622	
7	0	0	0	0	520	622	
8	0	0	0	0	521	622	
9	0	0	0	0	521	621	
10	0	0	0	0	521	621	
11	0	0	0	0	521	622	
12	0	0	0	0	521	622	
13	0	0	0	0	521	622	
14	0	0	0	0	521	621	
15	0	0	0	0	521	622	
0	0	0	0	0	520	622	
1	0	0	0	0	520	622	
2	0	0	0	0	520	622	
3	0	0	0	0	520	623	
4	0	0	0	0	519	623	
5	0	0	0	0	518	623	
6	0	0	0	0	517	622	
7	0	0	0	0	518	623	
8	0	0	0	0	517	622	
9	0	0	0	0	517	623	
10	0	0	0	0	517	623	
11	0	0	0	0	517	623	
12	0	0	0	0	516	624	
13	0	0	0	0	516	623	
14	0	0	0	0	515	623	
15	0	0	0	0	515	623	
0	0	0	0	0	515	623	
1	0	0	0	0	515	623	
2	0	0	0	0	515	623	
3	0	0	0	0	514	623	
4	0	0	0	0	514	623	
5	0	0	0	0	514	623	
6	0	0	0	0	515	623	
7	0	0	0	0	515	624	
8	0	0	0	0	515	623	
9	0	0	0	0	515	623	
10	0	0	0	0	514	623	
11	0	0	0	0	515	624	
12	0	0	0	0	514	624	
13	0	0	0	0	514	624	
14	0	0	0	0	513	624	
15	0	0	0	0	512	624	
0	0	0	0	0	513	624	
1	0	0	0	0	512	624	
2	0	0	0	0	512	624	
3	0	0	0	0	512	625	
4	0	0	0	0	512	625	
5	0	0	0	0	512	625	
6	0	0	0	0	512	625	
7	0	0	0	0	513	626	
8	0	0	0	0	513	625	
9	0	0	0	0	513	625	
10	0	0	0	0	512	625	
11	0	0	0	0	511	625	
12	0	0	0	0	510	625	
13	0	0	0	0	510	625	
14	0	0	0	0	511	625	
15	0	0	0	0	510	626	
0	0	0	0	0	511	625	
1	0	0	0	0	511	625	
2	0	0	0	0	511	625	
3	0	0	0	0	511	625	
4	0	0	0	0	512	625	
5	0	0	0	0	511	625	
6	0	0	0	0	511	625	
7	0	0	0	0	511	625	
8	0	0	0	0	512	624	
9	0	0	0	0	512	624	
10	0	0	0	0	512	624	
11	0	0	0	0	512	624	
12	0	0	0	0	512	624	
13	0	0	0	0	511	624	
14	0	0	0	0	511	624	
15	0	0	0	0	511	624	
0	0	0	0	0	511	623	
1	0	0	0	0	511	624	
2	0	0	0	0	510	623	
3	0	0	0	0	509	623	
4	0	0	0	0	509	623	
5	0	0	0	0	510	623	
6	0	0	0	0	511	623	
7	0	0	0	0	511	623	
8	0	0	0	0	512	623	
9	0	0	0	0	512	623	
10	0	0	0	0	512	622	
11	0	0	0	0	512	622	
12	0	0	0	0	513	623	
13	0	0	0	0	513	623	
14	0	0	0	0	512	624	
15	0	0	0	0	512	623	
0	0	0	0	0	512	623	
1	0	0	0	0	512	623	
2	0	0	0	0	512	623	
3	0	0	0	0	512	623	
4	0	0	0	0	512	623	
5	0	0	0	0	512	623	
6	0	0	0	0	512	623	
7	0	0	0	0	512	624	
8	0	0	0	0	512	623	
9	0	0	0	0	513	623	
10	0	0	0	0	513	623	
11	0	0	0	0	514	623	
12	0	0	0	0	514	623	
13	0	0	0	0	514	623	
14	0	0	0	0	514	623	
15	0	0	0	0	514	624	
0	0	0	0	0	513	623	
1	0	0	0	0	514	624	
2	0	0	0	0	514	624	
3	0	0	0	0	513	624	
4	0	0	0	0	513	624	
5	0	0	0	0	512	624	
6	0	0	0	0	513	624	
7	0	0	0	0	513	624	
8	0	0	0	0	514	624	
9	0	0	0	0	513	624	
10	0	0	0	0	513	625	
11	0	0	0	0	513	625	
12	0	0	0	0	513	624	
13	0	0	0	0	514	625	
14	0	0	0	0	514	625	
15	0	0	0	0	515	624	
0	0	0	0	0	514	624	
1	0	0	0	0	513	624	
2	0	0	0	0	513	624	
3	0	0	0	0	513	624	
4	0	0	0	0	512	624	
5	0	0	0	0	512	624	
6	0	0	0	0	512	624	
7	0	0	0	0	512	625	
8	0	0	0	0	512	625	
9	0	0	0	0	512	624	
10	0	0	0	0	513	625	
11	0	0	0	0	513	625	
12	0	0	0	0	513	625	
13	0	0	0	0	513	625	
14	0	0	0	0	514	626	
15	0	0	0	0	514	626	
0	0	0	0	0	513	625	
1	0	0	0	0	514	626	
2	0	0	0	0	513	625	
3	0	0	0	0	513	625	
4	0	0	0	0	513	625	
5	0	0	0	0	513	625	
6	0	0	0	0	512	625	
7	0	0	0	0	513	625	
8	0	0	0	0	513	624	
9	0	0	0	0	513	625	
10	0	0	0	0	513	625	
11	0	0	0	0	513	625	
12	0	0	0	0	512	625	
13	0	0	0	0	513	625	
14	0	0	0	0	513	625	
15	0	0	0	0	513	625	
0	0	0	0	0	514	625	
1	0	0	0	0	513	624	
2	0	0	0	0	513	624	
3	0	0	0	0	513	625	
4	0	0	0	0	512	625	
5	0	0	0	0	511	625	
6	0	0	0	0	511	624	
7	0	0	0	0	511	625	
8	0	0	0	0	511	624	
9	0	0	0	0	511	624	
10	0	0	0	0	511	623	
11	0	0	0	0	512	623	
12	0	0	0	0	512	623	
13	0	0	0	0	513	623	
14	0	0	0	0	514	623	
15	0	0	0	0	515	624	
0	0	0	0	0	514	623	
1	0	0	0	0	514	623	
2	0	0	0	0	513	624	
3	0	0	0	0	513	624	
4	0	0	0	0	512	623	
5	0	0	0	0	513	623	
6	0	0	0	0	512	622	
7	0	0	0	0	512	623	
8	0	0	0	0	512	622	
9	0	0	0	0	512	622	
10	0	0	0	0	512	623	
11	0	0	0	0	512	623	
12	0	0	0	0	512	623	
13	0	0	0	0	512	623	
14	0	0	0	0	513	623	
15	0	0	0	0	513	623	
0	0	0	0	0	512	623	
1	0	0	0	0	513	624	
2	0	0	0	0	513	623	
3	0	0	0	0	512	623	
4	0	0	0	0	512	623	
5	0	0	0	0	512	623	
6	0	0	0	0	511	623	
7	0	0	0	0	511	624	
8	0	0	0	0	511	624	
9	0	0	0	0	510	624	
10	0	0	0	0	510	624	
11	0	0	0	0	511	624	
12	0	0	0	0	511	624	
13	0	0	0	0	511	624	
14	0	0	0	0	512	624	
15	0	0	0	0	512	625	
0	0	0	0	0	512	624	
1	0	0	0	0	512	624	
2	0	0	0	0	512	625	
3	0	0	0	0	512	624	
4	0	0	0	0	512	624	
5	0	0	0	0	513	624	
6	0	0	0	0	513	624	
7	0	0	0	0	514	625	
8	0	0	0	0	514	624	
9	0	0	0	0	515	624	
10	0	0	0	0	515	624	
11	0	0	0	0	516	625	
12	0	0	0	0	516	625	
13	0	0	0	0	516	625	
14	0	0	0	0	515	624	
15	0	0	0	0	515	625	
0	0	0	0	0	516	624	
1	0	0	0	0	516	624	
2	0	0	0	0	515	624	
3	0	0	0	0	515	625	
4	0	0	0	0	515	624	
5	0	0	0	0	515	624	
6	0	0	0	0	515	624	
7	0	0	0	0	515	625	
8	0	0	0	0	515	624	
9	0	0	0	0	515	624	
10	0	0	0	0	514	624	
11	0	0	0	0	514	625	
12	0	0	0	0	514	625	
13	0	0	0	0	513	625	
14	0	0	0	0	514	625	
15	0	0	0	0	513	625	
0	0	0	0	0	512	625	
1	0	0	0	0	512	625	
2	0	0	0	0	512	624	
3	0	0	0	0	510	625	
4	0	0	0	0	509	625	
5	0	0	0	0	508	625	
6	0	0	0	0	508	625	
7	0	0	0	0	508	625	
8	0	0	0	0	508	625	
9	0	0	0	0	507	625	
10	0	0	0	0	508	625	
11	0	0	0	0	508	625	
12	0	0	0	0	508	626	
13	0	0	0	0	508	626	
14	0	0	0	0	509	626	
15	0	0	0	0	509	626	
0	0	0	0	0	510	626	
1	0	0	0	0	509	626	
2	0	0	0	0	509	626	
3	0	0	0	0	508	625	
4	0	0	0	0	508	626	
5	0	0	0	0	508	626	
6	0	0	0	0	508	626	
7	0	0	0	0	508	627	
8	0	0	0	0	508	626	
9	0	0	0	0	509	627	
10	0	0	0	0	509	626	
11	0	0	0	0	509	627	
12	0	0	0	0	509	627	
13	0	0	0	0	509	627	
14	0	0	0	0	509	627	
15	0	0	0	0	510	626	
0	0	0	0	0	509	625	
1	0	0	0	0	509	626	
2	0	0	0	0	509	626	
3	0	0	0	0	509	626	
4	0	0	0	0	509	625	
5	0	0	0	0	509	625	
6	0	0	0	0	509	625	
7	0	0	0	0	509	625	
8	0	0	0	0	508	625	
9	0	0	0	0	508	624	
10	0	0	0	0	508	625	
11	0	0	0	0	508	625	
12	0	0	0	0	508	624	
13	0	0	0	0	509	625	
14	0	0	0	0	509	624	
15	0	0	0	0	509	625	
0	0	0	0	0	510	624	
1	0	0	0	0	509	624	
2	0	0	0	0	508	624	
3	0	0	0	0	508	624	
4	0	0	0	0	508	624	
5	0	0	0	0	508	624	
6	0	0	0	0	508	624	
7	0	0	0	0	508	624	
8	0	0	0	0	509	623	
9	0	0	0	0	509	623	
10	0	0	0	0	509	623	
11	0	0	0	0	508	623	
12	0	0	0	0	507	623	
13	0	0	0	0	507	623	
14	0	0	0	0	507	622	
15	0	0	0	0	506	623	
0	0	0	0	0	505	622	
1	0	0	0	0	505	622	
2	0	0	0	0	505	622	
3	0	0	0	0	505	623	
4	0	0	0	0	505	622	
5	0	0	0	0	505	622	
6	0	0	0	0	505	623	
7	0	0	0	0	504	623	
8	0	0	0	0	501	622	
9	0	0	0	0	498	622	
10	0	0	0	0	493	622	
11	0	0	0	0	487	623	
12	0	0	0	0	480	623	
13	0	0	0	0	472	623	
14	0	0	0	0	463	623	
15	0	0	0	0	454	624	
0	0	0	0	0	446	624	
1	0	0	0	0	438	624	
2	0	0	0	0	431	624	
3	0	0	0	0	423	624	
4	0	0	0	0	418	624	
5	0	0	0	0	415	624	
6	0	0	0	0	414	624	
7	0	0	0	0	415	624	
8	0	0	0	0	416	624	
9	0	0	0	0	420	624	
10	0	0	0	0	424	624	
11	0	0	0	0	430	624	
12	0	0	0	0	435	624	
13	0	0	0	0	441	625	
14	0	0	0	0	446	624	
15	0	0	0	0	450	625	
0	0	0	0	0	455	624	
1	0	0	0	0	461	624	
2	0	0	0	0	470	624	
3	0	0	0	0	483	624	
4	0	0	0	0	504	624	
5	0	0	0	0	527	625	
6	0	0	0	0	552	625	
7	0	0	0	0	582	625	
8	0	0	0	0	614	625	
9	0	0	0	0	650	624	
10	0	0	0	0	691	625	
11	0	0	0	0	733	625	
12	0	0	0	0	771	625	
13	0	0	0	0	804	624	
14	0	0	0	0	833	624	
15	0	0	0	0	856	625	
0	0	0	0	0	871	624	
1	0	0	0	0	880	624	
2	0	0	0	0	882	624	
3	0	0	0	0	881	624	
4	0	0	0	0	878	624	
5	0	0	0	0	872	623	
6	0	0	0	0	864	623	
7	0	0	0	0	855	623	
8	0	0	0	0	843	622	
9	0	0	0	0	828	623	
10	0	0	0	0	811	622	
11	0	0	0	0	791	623	
12	0	0	0	0	768	622	
13	0	0	0	0	744	622	
14	0	0	0	0	722	623	
15	0	0	0	0	702	623	
0	0	0	0	0	684	623	
1	0	0	0	0	666	623	
2	0	0	0	0	649	623	
3	0	0	0	0	635	623	
4	0	0	0	0	622	623	
5	0	0	0	0	609	623	
6	0	0	0	0	597	624	
7	0	0	0	0	587	624	
8	0	0	0	0	576	623	
9	0	0	0	0	565	623	
10	0	0	0	0	555	624	
11	0	0	0	0	544	625	
12	0	0	0	0	533	625	
13	0	0	0	0	522	625	
14	0	0	0	0	511	625	
15	0	0	0	0	502	625	
0	0	0	0	0	493	624	
1	0	0	0	0	485	625	
2	0	0	0	0	478	625	
3	0	0	0	0	470	625	
4	0	0	0	0	464	625	
5	0	0	0	0	457	626	
6	0	0	0	0	452	625	
7	0	0	0	0	447	626	
8	0	0	0	0	442	626	
9	0	0	0	0	438	626	
10	0	0	0	0	435	626	
11	0	0	0	0	432	627	
12	0	0	0	0	430	627	
13	0	0	0	0	428	627	
14	0	0	0	0	427	627	
15	0	0	0	0	426	628	
0	0	0	0	0	424	627	
1	0	0	0	0	423	628	
2	0	0	0	0	423	627	
3	0	0	0	0	422	628	
4	0	0	0	0	421	628	
5	0	0	0	0	420	628	
6	0	0	0	0	420	628	
7	0	0	0	0	419	628	
8	0	0	0	0	420	628	
9	0	0	0	0	420	627	
10	0	0	0	0	420	628	
11	0	0	0	0	420	628	
12	0	0	0	0	420	627	
13	0	0	0	0	420	627	
14	0	0	0	0	419	627	
15	0	0	0	0	419	627	
0	0	0	0	0	419	627	
1	0	0	0	0	419	627	
2	0	0	0	0	420	627	
3	0	0	0	0	420	627	
4	0	0	0	0	421	626	
5	0	0	0	0	422	626	
6	0	0	0	0	422	626	
7	0	0	0	0	423	627	
8	0	0	0	0	423	626	
9	0	0	0	0	423	626	
10	0	0	0	0	423	626	
11	0	0	0	0	424	626	
12	0	0	0	0	424	626	
13	0	0	0	0	425	625	
14	0	0	0	0	426	625	
15	0	0	0	0	427	625	
0	0	0	0	0	428	624	
1	0	0	0	0	429	625	
2	0	0	0	0	428	624	
3	0	0	0	0	428	624	
4	0	0	0	0	430	623	
5	0	0	0	0	430	623	
6	0	0	0	0	430	623	
7	0	0	0	0	431	623	
8	0	0	0	0	431	622	
9	0	0	0	0	432	622	
10	0	0	0	0	432	622	
11	0	0	0	0	433	622	
12	0	0	0	0	433	622	
13	0	0	0	0	433	622	
14	0	0	0	0	433	621	
15	0	0	0	0	433	622	
0	0	0	0	0	434	622	
1	0	0	0	0	435	621	
2	0	0	0	0	436	621	
3	0	0	0	0	435	621	
4	0	0	0	0	436	621	
5	0	0	0	0	436	621	
6	0	0	0	0	437	621	
7	0	0	0	0	437	621	
8	0	0	0	0	438	622	
9	0	0	0	0	439	622	
10	0	0	0	0	438	622	
11	0	0	0	0	438	622	
12	0	0	0	0	439	622	
13	0	0	0	0	440	622	
14	0	0	0	0	441	622	
15	0	0	0	0	441	623	
0	0	0	0	0	442	622	
1	0	0	0	0	443	623	
2	0	0	0	0	444	623	
3	0	0	0	0	445	622	
4	0	0	0	0	445	623	
5	0	0	0	0	445	623	
6	0	0	0	0	446	624	
7	0	0	0	0	446	624	
8	0	0	0	0	447	624	
9	0	0	0	0	447	624	
10	0	0	0	0	447	624	
11	0	0	0	0	447	624	
12	0	0	0	0	447	624	
13	0	0	0	0	448	624	
14	0	0	0	0	448	625	
15	0	0	0	0	448	624	
0	0	0	0	0	448	624	
1	0	0	0	0	448	624	
2	0	0	0	0	448	624	
3	0	0	0	0	447	624	
4	0	0	0	0	447	625	
5	0	0	0	0	446	624	
6	0	0	0	0	447	625	
7	0	0	0	0	447	625	
8	0	0	0	0	447	625	
9	0	0	0	0	448	625	
10	0	0	0	0	449	625	
11	0	0	0	0	449	625	
12	0	0	0	0	449	625	
13	0	0	0	0	449	625	
14	0	0	0	0	449	626	
15	0	0	0	0	450	626	
0	0	0	0	0	450	625	
1	0	0	0	0	450	625	
2	0	0	0	0	450	625	
3	0	0	0	0	450	625	
4	0	0	0	0	451	625	
5	0	0	0	0	450	625	
6	0	0	0	0	451	624	
7	0	0	0	0	451	625	
8	0	0	0	0	451	625	
9	0	0	0	0	452	624	
10	0	0	0	0	453	625	
11	0	0	0	0	453	625	
12	0	0	0	0	453	625	
13	0	0	0	0	454	625	
14	0	0	0	0	454	625	
15	0	0	0	0	454	626	
0	0	0	0	0	455	626	
1	0	0	0	0	455	626	
2	0	0	0	0	456	625	
3	0	0	0	0	457	625	
4	0	0	0	0	457	625	
5	0	0	0	0	456	626	
6	0	0	0	0	457	625	
7	0	0	0	0	457	627	
8	0	0	0	0	458	625	
9	0	0	0	0	459	626	
10	0	0	0	0	459	625	
11	0	0	0	0	460	626	
12	0	0	0	0	461	626	
13	0	0	0	0	462	625	
14	0	0	0	0	462	625	
15	0	0	0	0	463	626	
0	0	0	0	0	463	625	
1	0	0	0	0	463	626	
2	0	0	0	0	464	625	
3	0	0	0	0	466	626	
4	0	0	0	0	466	625	
5	0	0	0	0	466	625	
6	0	0	0	0	466	625	
7	0	0	0	0	466	625	
8	0	0	0	0	466	625	
9	0	0	0	0	467	625	
10	0	0	0	0	467	625	
11	0	0	0	0	469	625	
12	0	0	0	0	471	625	
13	0	0	0	0	472	625	
14	0	0	0	0	473	625	
15	0	0	0	0	474	625	
0	0	0	0	0	475	624	
1	0	0	0	0	477	624	
2	0	0	0	0	479	624	
3	0	0	0	0	480	625	
4	0	0	0	0	481	625	
5	0	0	0	0	483	625	
6	0	0	0	0	484	625	
7	0	0	0	0	484	625	
8	0	0	0	0	486	625	
9	0	0	0	0	488	625	
10	0	0	0	0	489	625	
11	0	0	0	0	490	626	
12	0	0	0	0	492	625	
13	0	0	0	0	493	625	
14	0	0	0	0	494	626	
15	0	0	0	0	495	627	
0	0	0	0	0	496	626	
1	0	0	0	0	498	627	
2	0	0	0	0	499	626	
3	0	0	0	0	501	627	
4	0	0	0	0	502	627	
5	0	0	0	0	503	627	
6	0	0	0	0	504	627	
7	0	0	0	0	504	627	
8	0	0	0	0	505	627	
9	0	0	0	0	505	627	
10	0	0	0	0	506	627	
11	0	0	0	0	507	628	
12	0	0	0	0	507	628	
13	0	0	0	0	507	628	
14	0	0	0	0	508	628	
15	0	0	0	0	508	629	
0	0	0	0	0	510	628	
1	0	0	0	0	511	629	
2	0	0	0	0	513	630	
3	0	0	0	0	514	629	
4	0	0	0	0	516	629	
5	0	0	0	0	517	629	
6	0	0	0	0	517	629	
7	0	0	0	0	519	630	
8	0	0	0	0	520	630	
9	0	0	0	0	520	630	
10	0	0	0	0	521	629	
11	0	0	0	0	522	629	
12	0	0	0	0	522	630	
13	0	0	0	0	521	629	
14	0	0	0	0	521	629	
15	0	0	0	0	520	630	
0	0	0	0	0	520	629	
1	0	0	0	0	519	629	
2	0	0	0	0	519	628	
3	0	0	0	0	519	628	
4	0	0	0	0	519	628	
5	0	0	0	0	519	628	
6	0	0	0	0	518	627	
7	0	0	0	0	519	627	
8	0	0	0	0	519	627	
9	0	0	0	0	518	627	
10	0	0	0	0	518	626	
11	0	0	0	0	518	626	
12	0	0	0	0	518	626	
13	0	0	0	0	519	626	
14	0	0	0	0	518	625	
15	0	0	0	0	518	625	
0	0	0	0	0	519	624	
1	0	0	0	0	519	624	
2	0	0	0	0	520	623	
3	0	0	0	0	520	623	
4	0	0	0	0	520	622	
5	0	0	0	0	520	622	
6	0	0	0	0	521	621	
7	0	0	0	0	521	621	
8	0	0	0	0	521	620	
9	0	0	0	0	521	620	
10	0	0	0	0	520	619	
11	0	0	0	0	521	619	
12	0	0	0	0	520	618	
13	0	0	0	0	520	618	
14	0	0	0	0	520	618	
15	0	0	0	0	519	618	
0	0	0	0	0	519	617	
1	0	0	0	0	519	617	
2	0	0	0	0	519	617	
3	0	0	0	0	519	617	
4	0	0	0	0	519	617	
5	0	0	0	0	519	617	
6	0	0	0	0	519	618	
7	0	0	0	0	518	618	
8	0	0	0	0	518	617	
9	0	0	0	0	517	617	
10	0	0	0	0	516	618	
11	0	0	0	0	516	619	
12	0	0	0	0	515	618	
13	0	0	0	0	515	618	
14	0	0	0	0	515	619	
15	0	0	0	0	515	619	
0	0	0	0	0	516	619	
1	0	0	0	0	517	619	
2	0	0	0	0	517	618	
3	0	0	0	0	516	619	
4	0	0	0	0	516	619	
5	0	0	0	0	516	619	
6	0	0	0	0	516	619	
7	0	0	0	0	516	620	
8	0	0	0	0	516	620	
9	0	0	0	0	516	620	
10	0	0	0	0	516	620	
11	0	0	0	0	515	620	
12	0	0	0	0	515	620	
13	0	0	0	0	515	620	
14	0	0	0	0	515	621	
15	0	0	0	0	515	622	
0	0	0	0	0	515	621	
1	0	0	0	0	515	622	
2	0	0	0	0	516	622	
3	0	0	0	0	515	622	
4	0	0	0	0	515	623	
5	0	0	0	0	515	623	
6	0	0	0	0	514	623	
7	0	0	0	0	514	624	
8	0	0	0	0	513	624	
9	0	0	0	0	513	624	
10	0	0	0	0	513	624	
11	0	0	0	0	513	625	
12	0	0	0	0	513	625	
13	0	0	0	0	513	625	
14	0	0	0	0	514	625	
15	0	0	0	0	514	626	
0	0	0	0	0	515	626	
1	0	0	0	0	516	627	
2	0	0	0	0	515	627	
3	0	0	0	0	516	627	
4	0	0	0	0	516	627	
5	0	0	0	0	516	628	
6	0	0	0	0	517	628	
7	0	0	0	0	516	629	
8	0	0	0	0	516	629	
9	0	0	0	0	516	629	
10	0	0	0	0	516	629	
11	0	0	0	0	515	630	
12	0	0	0	0	515	630	
13	0	0	0	0	515	630	
14	0	0	0	0	514	629	
15	0	0	0	0	513	630	
0	0	0	0	0	513	630	
1	0	0	0	0	513	630	
2	0	0	0	0	513	631	
3	0	0	0	0	513	631	
4	0	0	0	0	514	632	
5	0	0	0	0	514	631	
6	0	0	0	0	513	631	
7	0	0	0	0	514	632	
8	0	0	0	0	515	631	
9	0	0	0	0	514	630	
10	0	0	0	0	514	631	
11	0	0	0	0	513	631	
12	0	0	0	0	512	631	
13	0	0	0	0	512	631	
14	0	0	0	0	511	630	
15	0	0	0	0	511	630	
0	0	0	0	0	511	630	
1	0	0	0	0	511	630	
2	0	0	0	0	511	629	
3	0	0	0	0	511	628	
4	0	0	0	0	510	629	
5	0	0	0	0	510	628	
6	0	0	0	0	511	628	
7	0	0	0	0	512	628	
8	0	0	0	0	512	628	
9	0	0	0	0	512	627	
10	0	0	0	0	512	627	
11	0	0	0	0	511	627	
12	0	0	0	0	511	626	
13	0	0	0	0	511	626	
14	0	0	0	0	511	627	
15	0	0	0	0	512	626	
0	0	0	0	0	512	625	
1	0	0	0	0	513	625	
2	0	0	0	0	512	625	
3	0	0	0	0	512	625	
4	0	0	0	0	511	625	
5	0	0	0	0	510	624	
6	0	0	0	0	509	624	
7	0	0	0	0	508	624	
8	0	0	0	0	508	624	
9	0	0	0	0	507	624	
10	0	0	0	0	506	623	
11	0	0	0	0	506	623	
12	0	0	0	0	506	622	
13	0	0	0	0	505	622	
14	0	0	0	0	505	621	
15	0	0	0	0	506	621	
0	0	0	0	0	506	621	
1	0	0	0	0	507	621	
2	0	0	0	0	508	620	
3	0	0	0	0	508	621	
4	0	0	0	0	508	620	
5	0	0	0	0	508	619	
6	0	0	0	0	508	619	
7	0	0	0	0	509	619	
8	0	0	0	0	509	618	
9	0	0	0	0	510	618	
10	0	0	0	0	510	618	
11	0	0	0	0	510	617	
12	0	0	0	0	510	617	
13	0	0	0	0	511	616	
14	0	0	0	0	511	615	
15	0	0	0	0	511	616	
0	0	0	0	0	511	616	
1	0	0	0	0	510	615	
2	0	0	0	0	510	615	
3	0	0	0	0	510	615	
4	0	0	0	0	509	614	
5	0	0	0	0	511	614	
6	0	0	0	0	511	614	
7	0	0	0	0	510	615	
8	0	0	0	0	510	614	
9	0	0	0	0	510	614	
10	0	0	0	0	510	614	
11	0	0	0	0	510	615	
12	0	0	0	0	510	614	
13	0	0	0	0	510	615	
14	0	0	0	0	511	615	
15	0	0	0	0	511	615	
0	0	0	0	0	512	616	
1	0	0	0	0	511	616	
2	0	0	0	0	511	617	
3	0	0	0	0	511	618	
4	0	0	0	0	511	618	
5	0	0	0	0	511	620	
6	0	0	0	0	511	619	
7	0	0	0	0	510	620	
8	0	0	0	0	510	620	
9	0	0	0	0	510	621	
10	0	0	0	0	510	622	
11	0	0	0	0	509	622	
12	0	0	0	0	510	623	
13	0	0	0	0	511	623	
14	0	0	0	0	512	623	
15	0	0	0	0	513	625	
0	0	0	0	0	512	625	
1	0	0	0	0	513	625	
2	0	0	0	0	513	625	
3	0	0	0	0	513	626	
4	0	0	0	0	513	627	
5	0	0	0	0	515	626	
6	0	0	0	0	515	627	
7	0	0	0	0	516	627	
8	0	0	0	0	516	627	
9	0	0	0	0	516	627	
10	0	0	0	0	517	628	
11	0	0	0	0	517	628	
12	0	0	0	0	517	628	
13	0	0	0	0	517	628	
14	0	0	0	0	518	630	
15	0	0	0	0	517	629	
0	0	0	0	0	518	629	
1	0	0	0	0	517	629	
2	0	0	0	0	517	629	
3	0	0	0	0	519	630	
4	0	0	0	0	519	629	
5	0	0	0	0	518	629	
6	0	0	0	0	519	629	
7	0	0	0	0	518	629	
8	0	0	0	0	518	629	
9	0	0	0	0	518	628	
10	0	0	0	0	518	628	
11	0	0	0	0	518	629	
12	0	0	0	0	518	628	
13	0	0	0	0	518	628	
14	0	0	0	0	517	628	
15	0	0	0	0	517	629	
0	0	0	0	0	516	628	
1	0	0	0	0	516	628	
2	0	0	0	0	515	627	
3	0	0	0	0	515	628	
4	0	0	0	0	515	627	
5	0	0	0	0	516	627	
6	0	0	0	0	516	627	
7	0	0	0	0	516	627	
8	0	0	0	0	516	626	
9	0	0	0	0	517	625	
10	0	0	0	0	517	625	
11	0	0	0	0	516	624	
12	0	0	0	0	516	624	
13	0	0	0	0	515	623	
14	0	0	0	0	515	623	
15	0	0	0	0	515	623	
0	0	0	0	0	516	622	
1	0	0	0	0	517	622	
2	0	0	0	0	517	621	
3	0	0	0	0	518	618	
4	0	0	0	0	518	615	
5	0	0	0	0	518	614	
6	0	0	0	0	518	614	
7	0	0	0	0	518	615	
8	0	0	0	0	517	615	
9	0	0	0	0	517	617	
10	0	0	0	0	518	617	
11	0	0	0	0	518	618	
12	0	0	0	0	518	619	
13	0	0	0	0	518	620	
14	0	0	0	0	519	620	
15	0	0	0	0	519	621	
0	0	0	0	0	519	621	
1	0	0	0	0	519	621	
2	0	0	0	0	519	621	
3	0	0	0	0	519	621	
4	0	0	0	0	520	620	
5	0	0	0	0	519	620	
6	0	0	0	0	519	619	
7	0	0	0	0	519	619	
8	0	0	0	0	519	619	
9	0	0	0	0	519	618	
10	0	0	0	0	520	618	
11	0	0	0	0	521	618	
12	0	0	0	0	521	617	
13	0	0	0	0	521	617	
14	0	0	0	0	521	617	
15	0	0	0	0	521	619	
0	0	0	0	0	522	620	
1	0	0	0	0	521	620	
2	0	0	0	0	522	620	
3	0	0	0	0	522	621	
4	0	0	0	0	522	622	
5	0	0	0	0	522	623	
6	0	0	0	0	521	623	
7	0	0	0	0	521	623	
8	0	0	0	0	520	624	
9	0	0	0	0	520	624	
10	0	0	0	0	520	624	
11	0	0	0	0	519	624	
12	0	0	0	0	519	623	
13	0	0	0	0	518	623	
14	0	0	0	0	518	623	
15	0	0	0	0	518	623	
0	0	0	0	0	518	623	
1	0	0	0	0	518	622	
2	0	0	0	0	518	622	
3	0	0	0	0	517	622	
4	0	0	0	0	517	622	
5	0	0	0	0	517	622	
6	0	0	0	0	518	622	
7	0	0	0	0	519	621	
8	0	0	0	0	519	621	
9	0	0	0	0	519	621	
10	0	0	0	0	519	621	
11	0	0	0	0	519	621	
12	0	0	0	0	519	622	
13	0	0	0	0	519	622	
14	0	0	0	0	518	622	
15	0	0	0	0	517	622	
0	0	0	0	0	516	622	
1	0	0	0	0	516	623	
2	0	0	0	0	516	623	
3	0	0	0	0	516	623	
4	0	0	0	0	515	624	
5	0	0	0	0	514	624	
6	0	0	0	0	513	624	
7	0	0	0	0	513	625	
8	0	0	0	0	514	625	
9	0	0	0	0	514	625	
10	0	0	0	0	514	625	
11	0	0	0	0	515	625	
12	0	0	0	0	515	626	
13	0	0	0	0	514	625	
14	0	0	0	0	514	626	
15	0	0	0	0	515	626	
0	0	0	0	0	514	626	
1	0	0	0	0	514	627	
2	0	0	0	0	513	627	
3	0	0	0	0	514	628	
4	0	0	0	0	515	627	
5	0	0	0	0	516	628	
6	0	0	0	0	517	628	
7	0	0	0	0	517	628	
8	0	0	0	0	517	629	
9	0	0	0	0	519	629	
10	0	0	0	0	518	630	
11	0	0	0	0	518	630	
12	0	0	0	0	517	629	
13	0	0	0	0	517	629	
14	0	0	0	0	517	629	
15	0	0	0	0	516	629	
0	0	0	0	0	516	628	
1	0	0	0	0	516	628	
2	0	0	0	0	516	628	
3	0	0	0	0	517	628	
4	0	0	0	0	517	626	
5	0	0	0	0	517	627	
6	0	0	0	0	517	625	
7	0	0	0	0	517	625	
8	0	0	0	0	516	625	
9	0	0	0	0	516	624	
10	0	0	0	0	516	624	
11	0	0	0	0	515	624	
12	0	0	0	0	515	622	
13	0	0	0	0	514	622	
14	0	0	0	0	513	621	
15	0	0	0	0	513	621	
0	0	0	0	0	512	620	
1	0	0	0	0	512	620	
2	0	0	0	0	512	620	
3	0	0	0	0	512	619	
4	0	0	0	0	512	618	
5	0	0	0	0	511	617	
6	0	0	0	0	511	617	
7	0	0	0	0	510	617	
8	0	0	0	0	509	615	
9	0	0	0	0	509	615	
10	0	0	0	0	510	614	
11	0	0	0	0	510	614	
12	0	0	0	0	511	614	
13	0	0	0	0	511	613	
14	0	0	0	0	510	613	
15	0	0	0	0	510	612	
0	0	0	0	0	510	611	
1	0	0	0	0	510	611	
2	0	0	0	0	509	610	
3	0	0	0	0	508	611	
4	0	0	0	0	508	610	
5	0	0	0	0	508	610	
6	0	0	0	0	507	609	
7	0	0	0	0	507	610	
8	0	0	0	0	508	610	
9	0	0	0	0	508	609	
10	0	0	0	0	508	608	
11	0	0	0	0	509	607	
12	0	0	0	0	510	606	
13	0	0	0	0	511	606	
14	0	0	0	0	512	604	
15	0	0	0	0	513	604	
0	0	0	0	0	513	604	
1	0	0	0	0	515	604	
2	0	0	0	0	515	604	
3	0	0	0	0	516	604	
4	0	0	0	0	516	604	
5	0	0	0	0	517	604	
6	0	0	0	0	516	604	
7	0	0	0	0	515	604	
8	0	0	0	0	515	604	
9	0	0	0	0	515	604	
10	0	0	0	0	516	604	
11	0	0	0	0	516	604	
12	0	0	0	0	516	605	
13	0	0	0	0	515	605	
14	0	0	0	0	515	605	
15	0	0	0	0	513	606	
0	0	0	0	0	512	606	
1	0	0	0	0	512	607	
2	0	0	0	0	511	608	
3	0	0	0	0	510	608	
4	0	0	0	0	509	608	
5	0	0	0	0	508	609	
6	0	0	0	0	508	610	
7	0	0	0	0	508	611	
8	0	0	0	0	508	611	
9	0	0	0	0	507	612	
10	0	0	0	0	508	612	
11	0	0	0	0	508	613	
12	0	0	0	0	507	614	
13	0	0	0	0	506	614	
14	0	0	0	0	506	615	
15	0	0	0	0	506	615	
0	0	0	0	0	506	616	
1	0	0	0	0	505	616	
2	0	0	0	0	505	616	
3	0	0	0	0	505	618	
4	0	0	0	0	504	617	
5	0	0	0	0	505	617	
6	0	0	0	0	504	619	
7	0	0	0	0	504	620	
8	0	0	0	0	504	619	
9	0	0	0	0	504	620	
10	0	0	0	0	505	620	
11	0	0	0	0	505	620	
12	0	0	0	0	505	621	
13	0	0	0	0	504	621	
14	0	0	0	0	504	621	
15	0	0	0	0	505	623	
0	0	0	0	0	504	622	
1	0	0	0	0	504	622	
2	0	0	0	0	505	623	
3	0	0	0	0	505	624	
4	0	0	0	0	505	624	
5	0	0	0	0	504	625	
6	0	0	0	0	504	625	
7	0	0	0	0	504	625	
8	0	0	0	0	504	625	
9	0	0	0	0	503	625	
10	0	0	0	0	503	625	
11	0	0	0	0	503	625	
12	0	0	0	0	503	625	
13	0	0	0	0	503	625	
14	0	0	0	0	504	626	
15	0	0	0	0	505	626	
0	0	0	0	0	505	627	
1	0	0	0	0	505	627	
2	0	0	0	0	504	627	
3	0	0	0	0	504	628	
4	0	0	0	0	503	628	
5	0	0	0	0	503	628	
6	0	0	0	0	502	628	
7	0	0	0	0	502	629	
8	0	0	0	0	502	630	
9	0	0	0	0	503	630	
10	0	0	0	0	503	631	
11	0	0	0	0	504	631	
12	0	0	0	0	503	632	
13	0	0	0	0	503	632	
14	0	0	0	0	503	632	
15	0	0	0	0	503	633	
0	0	0	0	0	502	633	
1	0	0	0	0	504	635	
2	0	0	0	0	505	635	
3	0	0	0	0	504	635	
4	0	0	0	0	505	636	
5	0	0	0	0	505	636	
6	0	0	0	0	506	636	
7	0	0	0	0	506	637	
8	0	0	0	0	506	637	
9	0	0	0	0	506	638	
10	0	0	0	0	507	638	
11	0	0	0	0	507	638	
12	0	0	0	0	507	639	
13	0	0	0	0	505	640	
14	0	0	0	0	504	640	
15	0	0	0	0	503	641	
0	0	0	0	0	500	641	
1	0	0	0	0	495	641	
2	0	0	0	0	489	641	
3	0	0	0	0	483	643	
4	0	0	0	0	476	642	
5	0	0	0	0	467	643	
6	0	0	0	0	457	644	
7	0	0	0	0	447	644	
8	0	0	0	0	438	645	
9	0	0	0	0	429	646	
10	0	0	0	0	421	646	
11	0	0	0	0	413	646	
12	0	0	0	0	408	646	
13	0	0	0	0	405	646	
14	0	0	0	0	404	646	
15	0	0	0	0	406	647	
0	0	0	0	0	409	646	
1	0	0	0	0	414	647	
2	0	0	0	0	420	646	
3	0	0	0	0	427	646	
4	0	0	0	0	432	645	
5	0	0	0	0	436	646	
6	0	0	0	0	441	646	
7	0	0	0	0	446	645	
8	0	0	0	0	451	644	
9	0	0	0	0	460	644	
10	0	0	0	0	475	643	
11	0	0	0	0	494	643	
12	0	0	0	0	517	643	
13	0	0	0	0	543	643	
14	0	0	0	0	573	643	
15	0	0	0	0	610	644	
0	0	0	0	0	649	643	
1	0	0	0	0	692	642	
2	0	0	0	0	739	641	
3	0	0	0	0	784	640	
4	0	0	0	0	825	640	
5	0	0	0	0	860	639	
6	0	0	0	0	888	638	
7	0	0	0	0	909	638	
8	0	0	0	0	923	637	
9	0	0	0	0	931	636	
10	0	0	0	0	932	635	
11	0	0	0	0	931	634	
12	0	0	0	0	926	632	
13	0	0	0	0	917	631	
14	0	0	0	0	904	631	
15	0	0	0	0	890	630	
0	0	0	0	0	873	628	
1	0	0	0	0	853	627	
2	0	0	0	0	829	627	
3	0	0	0	0	803	626	
4	0	0	0	0	775	625	
5	0	0	0	0	748	625	
6	0	0	0	0	724	624	
7	0	0	0	0	703	623	
8	0	0	0	0	683	622	
9	0	0	0	0	665	622	
10	0	0	0	0	648	621	
11	0	0	0	0	633	621	
12	0	0	0	0	617	620	
13	0	0	0	0	604	619	
14	0	0	0	0	592	618	
15	0	0	0	0	580	619	
0	0	0	0	0	568	618	
1	0	0	0	0	556	617	
2	0	0	0	0	543	616	
3	0	0	0	0	529	616	
4	0	0	0	0	516	616	
5	0	0	0	0	504	615	
6	0	0	0	0	492	615	
7	0	0	0	0	481	616	
8	0	0	0	0	471	615	
9	0	0	0	0	462	615	
10	0	0	0	0	455	615	
11	0	0	0	0	448	616	
12	0	0	0	0	441	616	
13	0	0	0	0	435	615	
14	0	0	0	0	429	616	
15	0	0	0	0	425	616	
0	0	0	0	0	421	616	
1	0	0	0	0	417	616	
2	0	0	0	0	415	617	
3	0	0	0	0	412	616	
4	0	0	0	0	411	616	
5	0	0	0	0	408	618	
6	0	0	0	0	407	617	
7	0	0	0	0	407	619	
8	0	0	0	0	407	619	
9	0	0	0	0	407	619	
10	0	0	0	0	406	619	
11	0	0	0	0	406	620	
12	0	0	0	0	405	620	
13	0	0	0	0	405	620	
14	0	0	0	0	405	620	
15	0	0	0	0	405	621	
0	0	0	0	0	404	621	
1	0	0	0	0	403	621	
2	0	0	0	0	403	622	
3	0	0	0	0	403	622	
4	0	0	0	0	402	622	
5	0	0	0	0	403	623	
6	0	0	0	0	402	623	
7	0	0	0	0	403	624	
8	0	0	0	0	404	624	
9	0	0	0	0	406	624	
10	0	0	0	0	406	624	
11	0	0	0	0	406	624	
12	0	0	0	0	406	624	
13	0	0	0	0	406	624	
14	0	0	0	0	405	624	
15	0	0	0	0	405	624	
0	0	0	0	0	406	624	
1	0	0	0	0	405	624	
2	0	0	0	0	406	624	
3	0	0	0	0	407	625	
4	0	0	0	0	407	625	
5	0	0	0	0	408	624	
6	0	0	0	0	409	625	
7	0	0	0	0	409	625	
8	0	0	0	0	409	624	
9	0	0	0	0	410	625	
10	0	0	0	0	410	625	
11	0	0	0	0	410	625	
12	0	0	0	0	411	625	
13	0	0	0	0	412	625	
14	0	0	0	0	412	625	
15	0	0	0	0	413	626	
0	0	0	0	0	414	626	
1	0	0	0	0	415	626	
2	0	0	0	0	416	625	
3	0	0	0	0	417	627	
4	0	0	0	0	418	627	
5	0	0	0	0	419	627	
6	0	0	0	0	419	627	
7	0	0	0	0	419	628	
8	0	0	0	0	420	628	
9	0	0	0	0	420	628	
10	0	0	0	0	420	628	
11	0	0	0	0	421	630	
12	0	0	0	0	421	630	
13	0	0	0	0	422	630	
14	0	0	0	0	422	630	
15	0	0	0	0	423	630	
0	0	0	0	0	423	630	
1	0	0	0	0	424	628	
2	0	0	0	0	426	631	
3	0	0	0	0	427	630	
4	0	0	0	0	427	630	
5	0	0	0	0	428	630	
6	0	0	0	0	428	630	
7	0	0	0	0	429	630	
8	0	0	0	0	430	630	
9	0	0	0	0	430	630	
10	0	0	0	0	431	630	
11	0	0	0	0	431	630	
12	0	0	0	0	431	629	
13	0	0	0	0	431	630	
14	0	0	0	0	433	629	
15	0	0	0	0	433	630	
0	0	0	0	0	434	630	
1	0	0	0	0	435	629	
2	0	0	0	0	435	630	
3	0	0	0	0	435	629	
4	0	0	0	0	435	629	
5	0	0	0	0	435	629	
6	0	0	0	0	435	629	
7	0	0	0	0	435	630	
8	0	0	0	0	434	628	
9	0	0	0	0	433	629	
10	0	0	0	0	433	628	
11	0	0	0	0	435	629	
12	0	0	0	0	435	628	
13	0	0	0	0	436	629	
14	0	0	0	0	437	629	
15	0	0	0	0	438	629	
0	0	0	0	0	440	629	
1	0	0	0	0	442	629	
2	0	0	0	0	443	629	
3	0	0	0	0	443	629	
4	0	0	0	0	443	629	
5	0	0	0	0	443	629	
6	0	0	0	0	443	629	
7	0	0	0	0	444	628	
8	0	0	0	0	445	628	
9	0	0	0	0	445	628	
10	0	0	0	0	446	628	
11	0	0	0	0	446	628	
12	0	0	0	0	446	629	
13	0	0	0	0	447	627	
14	0	0	0	0	446	627	
15	0	0	0	0	445	628	
0	0	0	0	0	445	627	
1	0	0	0	0	445	627	
2	0	0	0	0	445	626	
3	0	0	0	0	445	626	
4	0	0	0	0	445	626	
5	0	0	0	0	444	627	
6	0	0	0	0	444	625	
7	0	0	0	0	444	626	
8	0	0	0	0	445	625	
9	0	0	0	0	446	625	
10	0	0	0	0	447	625	
11	0	0	0	0	448	625	
12	0	0	0	0	448	624	
13	0	0	0	0	448	625	
14	0	0	0	0	448	625	
15	0	0	0	0	449	625	
0	0	0	0	0	449	625	
1	0	0	0	0	450	625	
2	0	0	0	0	451	624	
3	0	0	0	0	452	625	
4	0	0	0	0	453	625	
5	0	0	0	0	454	625	
6	0	0	0	0	454	625	
7	0	0	0	0	454	626	
8	0	0	0	0	455	626	
9	0	0	0	0	457	625	
10	0	0	0	0	459	626	
11	0	0	0	0	459	626	
12	0	0	0	0	459	626	
13	0	0	0	0	459	627	
14	0	0	0	0	459	627	
15	0	0	0	0	460	627	
0	0	0	0	0	460	627	
1	0	0	0	0	461	627	
2	0	0	0	0	463	627	
3	0	0	0	0	463	627	
4	0	0	0	0	464	627	
5	0	0	0	0	466	627	
6	0	0	0	0	467	628	
7	0	0	0	0	468	628	
8	0	0	0	0	470	628	
9	0	0	0	0	472	627	
10	0	0	0	0	473	627	
11	0	0	0	0	474	628	
12	0	0	0	0	476	628	
13	0	0	0	0	477	628	
14	0	0	0	0	479	628	
15	0	0	0	0	481	629	
0	0	0	0	0	483	628	
1	0	0	0	0	485	629	
2	0	0	0	0	486	628	
3	0	0	0	0	488	628	
4	0	0	0	0	488	627	
5	0	0	0	0	490	628	
6	0	0	0	0	491	628	
7	0	0	0	0	491	628	
8	0	0	0	0	491	627	
9	0	0	0	0	491	627	
10	0	0	0	0	490	627	
11	0	0	0	0	490	627	
12	0	0	0	0	489	627	
13	0	0	0	0	491	627	
14	0	0	0	0	493	626	
15	0	0	0	0	494	626	
0	0	0	0	0	496	625	
1	0	0	0	0	498	625	
2	0	0	0	0	500	624	
3	0	0	0	0	501	624	
4	0	0	0	0	503	624	
5	0	0	0	0	504	624	
6	0	0	0	0	505	623	
7	0	0	0	0	507	623	
8	0	0	0	0	508	622	
9	0	0	0	0	510	622	
10	0	0	0	0	511	621	
11	0	0	0	0	512	620	
12	0	0	0	0	512	620	
13	0	0	0	0	513	620	
14	0	0	0	0	514	619	
15	0	0	0	0	515	620	
0	0	0	0	0	515	619	
1	0	0	0	0	515	619	
2	0	0	0	0	515	618	
3	0	0	0	0	515	617	
4	0	0	0	0	517	617	
5	0	0	0	0	518	617	
6	0	0	0	0	518	616	
7	0	0	0	0	519	616	
8	0	0	0	0	519	615	
9	0	0	0	0	520	615	
10	0	0	0	0	521	615	
11	0	0	0	0	521	615	
12	0	0	0	0	521	615	
13	0	0	0	0	520	615	
14	0	0	0	0	521	615	
15	0	0	0	0	521	614	
0	0	0	0	0	521	614	
1	0	0	0	0	521	614	
2	0	0	0	0	521	613	
3	0	0	0	0	522	613	
4	0	0	0	0	522	612	
5	0	0	0	0	522	612	
6	0	0	0	0	521	612	
7	0	0	0	0	521	613	
8	0	0	0	0	521	613	
9	0	0	0	0	521	612	
10	0	0	0	0	520	612	
11	0	0	0	0	520	613	
12	0	0	0	0	519	612	
13	0	0	0	0	520	613	
14	0	0	0	0	519	613	
15	0	0	0	0	519	614	
0	0	0	0	0	519	613	
1	0	0	0	0	519	613	
2	0	0	0	0	519	614	
3	0	0	0	0	519	614	
4	0	0	0	0	519	614	
5	0	0	0	0	519	614	
6	0	0	0	0	519	615	
7	0	0	0	0	519	615	
8	0	0	0	0	519	615	
9	0	0	0	0	519	615	
10	0	0	0	0	519	615	
11	0	0	0	0	519	617	
12	0	0	0	0	520	616	
13	0	0	0	0	520	616	
14	0	0	0	0	520	616	
15	0	0	0	0	520	616	
0	0	0	0	0	520	616	
1	0	0	0	0	520	616	
2	0	0	0	0	520	616	
3	0	0	0	0	520	616	
4	0	0	0	0	520	616	
5	0	0	0	0	520	615	
6	0	0	0	0	520	616	
7	0	0	0	0	520	616	
8	0	0	0	0	520	616	
9	0	0	0	0	519	616	
10	0	0	0	0	519	615	
11	0	0	0	0	519	616	
12	0	0	0	0	518	616	
13	0	0	0	0	517	616	
14	0	0	0	0	517	616	
15	0	0	0	0	517	617	
0	0	0	0	0	518	617	
1	0	0	0	0	519	617	
2	0	0	0	0	520	616	
3	0	0	0	0	521	616	
4	0	0	0	0	521	616	
5	0	0	0	0	522	616	
6	0	0	0	0	522	617	
7	0	0	0	0	522	616	
8	0	0	0	0	521	616	
9	0	0	0	0	521	616	
10	0	0	0	0	521	616	
11	0	0	0	0	521	616	
12	0	0	0	0	520	617	
13	0	0	0	0	520	616	
14	0	0	0	0	520	616	
15	0	0	0	0	521	617	
0	0	0	0	0	521	617	
1	0	0	0	0	523	617	
2	0	0	0	0	523	617	
3	0	0	0	0	523	617	
4	0	0	0	0	523	617	
5	0	0	0	0	523	617	
6	0	0	0	0	523	616	
7	0	0	0	0	522	616	
8	0	0	0	0	521	615	
9	0	0	0	0	521	615	
10	0	0	0	0	520	615	
11	0	0	0	0	520	615	
12	0	0	0	0	519	615	
13	0	0	0	0	519	615	
14	0	0	0	0	518	615	
15	0	0	0	0	518	615	
0	0	0	0	0	518	615	
1	0	0	0	0	517	615	
2	0	0	0	0	516	615	
3	0	0	0	0	517	616	
4	0	0	0	0	516	616	
5	0	0	0	0	516	617	
6	0	0	0	0	515	617	
7	0	0	0	0	516	617	
8	0	0	0	0	517	617	
9	0	0	0	0	518	618	
10	0	0	0	0	518	618	
11	0	0	0	0	518	619	
12	0	0	0	0	518	619	
13	0	0	0	0	517	619	
14	0	0	0	0	517	620	
15	0	0	0	0	517	621	
0	0	0	0	0	517	621	
1	0	0	0	0	516	622	
2	0	0	0	0	517	622	
3	0	0	0	0	518	623	
4	0	0	0	0	518	623	
5	0	0	0	0	517	623	
6	0	0	0	0	516	623	
7	0	0	0	0	516	624	
8	0	0	0	0	516	624	
9	0	0	0	0	516	624	
10	0	0	0	0	516	624	
11	0	0	0	0	516	625	
12	0	0	0	0	516	625	
13	0	0	0	0	516	625	
14	0	0	0	0	515	626	
15	0	0	0	0	516	626	
0	0	0	0	0	515	626	
1	0	0	0	0	515	627	
2	0	0	0	0	515	627	
3	0	0	0	0	514	628	
4	0	0	0	0	513	628	
5	0	0	0	0	513	628	
6	0	0	0	0	513	629	
7	0	0	0	0	513	630	
8	0	0	0	0	512	629	
9	0	0	0	0	513	629	
10	0	0	0	0	512	629	
11	0	0	0	0	513	631	
12	0	0	0	0	513	630	
13	0	0	0	0	514	631	
14	0	0	0	0	515	630	
15	0	0	0	0	516	630	
0	0	0	0	0	516	630	
1	0	0	0	0	516	630	
2	0	0	0	0	516	630	
3	0	0	0	0	516	630	
4	0	0	0	0	516	630	
5	0	0	0	0	517	630	
6	0	0	0	0	516	629	
7	0	0	0	0	516	629	
8	0	0	0	0	515	628	
9	0	0	0	0	515	628	
10	0	0	0	0	516	628	
11	0	0	0	0	515	628	
12	0	0	0	0	515	628	
13	0	0	0	0	515	628	
14	0	0	0	0	515	627	
15	0	0	0	0	515	628	
0	0	0	0	0	514	627	
1	0	0	0	0	514	627	
2	0	0	0	0	515	627	
3	0	0	0	0	514	627	
4	0	0	0	0	515	627	
5	0	0	0	0	515	625	
6	0	0	0	0	515	626	
7	0	0	0	0	515	626	
8	0	0	0	0	515	625	
9	0	0	0	0	515	625	
10	0	0	0	0	515	625	
11	0	0	0	0	514	625	
12	0	0	0	0	515	626	
13	0	0	0	0	515	626	
14	0	0	0	0	515	626	
15	0	0	0	0	515	627	
0	0	0	0	0	516	626	
1	0	0	0	0	516	626	
2	0	0	0	0	515	626	
3	0	0	0	0	514	628	
4	0	0	0	0	513	627	
5	0	0	0	0	513	627	
6	0	0	0	0	514	627	
7	0	0	0	0	516	628	
8	0	0	0	0	517	628	
9	0	0	0	0	517	628	
10	0	0	0	0	518	629	
11	0	0	0	0	519	628	
12	0	0	0	0	519	628	
13	0	0	0	0	520	629	
14	0	0	0	0	520	630	
15	0	0	0	0	520	630	
0	0	0	0	0	520	631	
1	0	0	0	0	519	632	
2	0	0	0	0	519	632	
3	0	0	0	0	518	632	
4	0	0	0	0	518	633	
5	0	0	0	0	518	633	
6	0	0	0	0	518	633	
7	0	0	0	0	517	634	
8	0	0	0	0	517	633	
9	0	0	0	0	517	634	
10	0	0	0	0	518	635	
11	0	0	0	0	517	634	
12	0	0	0	0	517	635	
13	0	0	0	0	517	635	
14	0	0	0	0	517	634	
15	0	0	0	0	518	635	
0	0	0	0	0	518	634	
1	0	0	0	0	518	634	
2	0	0	0	0	518	633	
3	0	0	0	0	518	634	
4	0	0	0	0	519	633	
5	0	0	0	0	519	633	
6	0	0	0	0	519	633	
7	0	0	0	0	518	633	
8	0	0	0	0	518	632	
9	0	0	0	0	519	632	
10	0	0	0	0	519	632	
11	0	0	0	0	518	631	
12	0	0	0	0	516	631	
13	0	0	0	0	516	631	
14	0	0	0	0	516	630	
15	0	0	0	0	516	630	
0	0	0	0	0	517	630	
1	0	0	0	0	517	628	
2	0	0	0	0	517	628	
3	0	0	0	0	518	628	
4	0	0	0	0	517	627	
5	0	0	0	0	518	627	
6	0	0	0	0	517	626	
7	0	0	0	0	518	626	
8	0	0	0	0	519	625	
9	0	0	0	0	519	624	
10	0	0	0	0	518	623	
11	0	0	0	0	518	623	
12	0	0	0	0	517	622	
13	0	0	0	0	517	622	
14	0	0	0	0	516	622	
15	0	0	0	0	517	622	
0	0	0	0	0	516	621	
1	0	0	0	0	515	622	
2	0	0	0	0	515	621	
3	0	0	0	0	516	620	
4	0	0	0	0	515	620	
5	0	0	0	0	515	620	
6	0	0	0	0	514	620	
7	0	0	0	0	514	620	
8	0	0	0	0	514	620	
9	0	0	0	0	514	620	
10	0	0	0	0	515	620	
11	0	0	0	0	517	620	
12	0	0	0	0	518	621	
13	0	0	0	0	519	621	
14	0	0	0	0	518	622	
15	0	0	0	0	518	622	
0	0	0	0	0	519	623	
1	0	0	0	0	519	623	
2	0	0	0	0	519	623	
3	0	0	0	0	520	624	
4	0	0	0	0	520	625	
5	0	0	0	0	520	624	
6	0	0	0	0	519	625	
7	0	0	0	0	519	626	
8	0	0	0	0	518	626	
9	0	0	0	0	516	627	
10	0	0	0	0	516	628	
11	0	0	0	0	517	629	
12	0	0	0	0	516	629	
13	0	0	0	0	517	629	
14	0	0	0	0	516	630	
15	0	0	0	0	517	632	
0	0	0	0	0	516	632	
1	0	0	0	0	516	632	
2	0	0	0	0	517	633	
3	0	0	0	0	517	633	
4	0	0	0	0	518	633	
5	0	0	0	0	518	634	
6	0	0	0	0	518	635	
7	0	0	0	0	518	635	
8	0	0	0	0	519	635	
9	0	0	0	0	519	635	
10	0	0	0	0	520	635	
11	0	0	0	0	521	635	
12	0	0	0	0	522	635	
13	0	0	0	0	522	635	
14	0	0	0	0	523	636	
15	0	0	0	0	524	635	
0	0	0	0	0	524	636	
1	0	0	0	0	524	636	
2	0	0	0	0	523	636	
3	0	0	0	0	523	636	
4	0	0	0	0	522	635	
5	0	0	0	0	521	635	
6	0	0	0	0	521	635	
7	0	0	0	0	520	635	
8	0	0	0	0	519	633	
9	0	0	0	0	517	633	
10	0	0	0	0	516	633	
11	0	0	0	0	514	633	
12	0	0	0	0	513	632	
13	0	0	0	0	513	631	
14	0	0	0	0	514	630	
15	0	0	0	0	515	631	
0	0	0	0	0	516	630	
1	0	0	0	0	516	629	
2	0	0	0	0	517	628	
3	0	0	0	0	517	627	
4	0	0	0	0	518	625	
5	0	0	0	0	518	624	
6	0	0	0	0	517	622	
7	0	0	0	0	517	621	
8	0	0	0	0	516	618	
9	0	0	0	0	516	617	
10	0	0	0	0	516	616	
11	0	0	0	0	515	615	
12	0	0	0	0	515	615	
13	0	0	0	0	515	615	
14	0	0	0	0	515	614	
15	0	0	0	0	515	615	
0	0	0	0	0	514	615	
1	0	0	0	0	514	615	
2	0	0	0	0	514	615	
3	0	0	0	0	513	616	
4	0	0	0	0	513	617	
5	0	0	0	0	513	616	
6	0	0	0	0	514	617	
7	0	0	0	0	514	617	
8	0	0	0	0	514	616	
9	0	0	0	0	514	617	
10	0	0	0	0	514	616	
11	0	0	0	0	513	617	
12	0	0	0	0	512	616	
13	0	0	0	0	512	616	
14	0	0	0	0	513	616	
15	0	0	0	0	512	616	
0	0	0	0	0	512	615	
1	0	0	0	0	512	615	
2	0	0	0	0	511	615	
3	0	0	0	0	511	616	
4	0	0	0	0	512	615	
5	0	0	0	0	512	615	
6	0	0	0	0	512	615	
7	0	0	0	0	511	615	
8	0	0	0	0	511	616	
9	0	0	0	0	511	616	
10	0	0	0	0	511	617	
11	0	0	0	0	512	617	
12	0	0	0	0	512	617	
13	0	0	0	0	511	618	
14	0	0	0	0	512	619	
15	0	0	0	0	512	619	
0	0	0	0	0	512	619	
1	0	0	0	0	512	619	
2	0	0	0	0	512	620	
3	0	0	0	0	512	619	
4	0	0	0	0	511	619	
5	0	0	0	0	512	617	
6	0	0	0	0	511	619	
7	0	0	0	0	511	618	
8	0	0	0	0	511	618	
9	0	0	0	0	511	617	
10	0	0	0	0	511	617	
11	0	0	0	0	511	617	
12	0	0	0	0	510	616	
13	0	0	0	0	509	616	
14	0	0	0	0	510	615	
15	0	0	0	0	511	616	
0	0	0	0	0	510	615	
1	0	0	0	0	509	615	
2	0	0	0	0	509	615	
3	0	0	0	0	508	615	
4	0	0	0	0	509	615	
5	0	0	0	0	510	615	
6	0	0	0	0	510	614	
7	0	0	0	0	511	614	
8	0	0	0	0	510	614	
9	0	0	0	0	510	614	
10	0	0	0	0	508	614	
11	0	0	0	0	507	614	
12	0	0	0	0	506	614	
13	0	0	0	0	506	614	
14	0	0	0	0	506	614	
15	0	0	0	0	507	615	
0	0	0	0	0	506	614	
1	0	0	0	0	507	615	
2	0	0	0	0	507	615	
3	0	0	0	0	506	615	
4	0	0	0	0	506	615	
5	0	0	0	0	506	615	
6	0	0	0	0	507	615	
7	0	0	0	0	507	615	
8	0	0	0	0	507	615	
9	0	0	0	0	508	616	
10	0	0	0	0	509	616	
11	0	0	0	0	508	617	
12	0	0	0	0	508	617	
13	0	0	0	0	508	617	
14	0	0	0	0	507	617	
15	0	0	0	0	507	617	
0	0	0	0	0	507	617	
1	0	0	0	0	507	617	
2	0	0	0	0	507	616	
3	0	0	0	0	508	617	
4	0	0	0	0	508	617	
5	0	0	0	0	507	616	
6	0	0	0	0	507	616	
7	0	0	0	0	507	616	
8	0	0	0	0	506	616	
9	0	0	0	0	506	617	
10	0	0	0	0	507	616	
11	0	0	0	0	507	616	
12	0	0	0	0	508	616	
13	0	0	0	0	508	616	
14	0	0	0	0	508	616	
15	0	0	0	0	508	617	
0	0	0	0	0	509	617	
1	0	0	0	0	511	617	
2	0	0	0	0	511	617	
3	0	0	0	0	512	617	
4	0	0	0	0	513	617	
5	0	0	0	0	513	617	
6	0	0	0	0	513	619	
7	0	0	0	0	512	619	
8	0	0	0	0	512	620	
9	0	0	0	0	512	621	
10	0	0	0	0	512	622	
11	0	0	0	0	511	623	
12	0	0	0	0	511	624	
13	0	0	0	0	511	625	
14	0	0	0	0	511	626	
15	0	0	0	0	511	626	
0	0	0	0	0	512	625	
1	0	0	0	0	511	625	
2	0	0	0	0	512	625	
3	0	0	0	0	512	624	
4	0	0	0	0	512	624	
5	0	0	0	0	512	623	
6	0	0	0	0	511	624	
7	0	0	0	0	512	624	
8	0	0	0	0	511	625	
9	0	0	0	0	512	625	
10	0	0	0	0	512	627	
11	0	0	0	0	510	627	
12	0	0	0	0	510	627	
13	0	0	0	0	509	627	
14	0	0	0	0	510	627	
15	0	0	0	0	510	627	
0	0	0	0	0	510	627	
1	0	0	0	0	510	626	
2	0	0	0	0	509	627	
3	0	0	0	0	509	626	
4	0	0	0	0	510	626	
5	0	0	0	0	510	625	
6	0	0	0	0	510	626	
7	0	0	0	0	510	626	
8	0	0	0	0	509	626	
9	0	0	0	0	510	627	
10	0	0	0	0	511	626	
11	0	0	0	0	511	627	
12	0	0	0	0	511	626	
13	0	0	0	0	510	627	
14	0	0	0	0	511	627	
15	0	0	0	0	511	627	
0	0	0	0	0	510	627	
1	0	0	0	0	511	627	
2	0	0	0	0	512	626	
3	0	0	0	0	512	626	
4	0	0	0	0	511	626	
5	0	0	0	0	511	627	
6	0	0	0	0	511	626	
7	0	0	0	0	511	627	
8	0	0	0	0	511	626	
9	0	0	0	0	511	626	
10	0	0	0	0	510	626	
11	0	0	0	0	509	626	
12	0	0	0	0	508	626	
13	0	0	0	0	509	625	
14	0	0	0	0	510	625	
15	0	0	0	0	511	625	
0	0	0	0	0	511	624	
1	0	0	0	0	512	624	
2	0	0	0	0	512	624	
3	0	0	0	0	510	624	
4	0	0	0	0	510	624	
5	0	0	0	0	509	624	
6	0	0	0	0	509	623	
7	0	0	0	0	509	624	
8	0	0	0	0	508	623	
9	0	0	0	0	508	623	
10	0	0	0	0	509	623	
11	0	0	0	0	510	623	
12	0	0	0	0	509	621	
13	0	0	0	0	509	621	
14	0	0	0	0	509	620	
15	0	0	0	0	510	619	
0	0	0	0	0	510	618	
1	0	0	0	0	510	617	
2	0	0	0	0	509	617	
3	0	0	0	0	509	617	
4	0	0	0	0	508	616	
5	0	0	0	0	508	616	
6	0	0	0	0	509	617	
7	0	0	0	0	509	617	
8	0	0	0	0	509	617	
9	0	0	0	0	508	617	
10	0	0	0	0	508	618	
11	0	0	0	0	507	618	
12	0	0	0	0	507	618	
13	0	0	0	0	507	619	
14	0	0	0	0	505	619	
15	0	0	0	0	503	620	
0	0	0	0	0	500	620	
1	0	0	0	0	496	620	
2	0	0	0	0	491	621	
3	0	0	0	0	484	621	
4	0	0	0	0	476	621	
5	0	0	0	0	467	620	
6	0	0	0	0	457	620	
7	0	0	0	0	448	621	
8	0	0	0	0	439	621	
9	0	0	0	0	432	621	
10	0	0	0	0	424	621	
11	0	0	0	0	419	621	
12	0	0	0	0	416	621	
13	0	0	0	0	414	621	
14	0	0	0	0	415	622	
15	0	0	0	0	416	622	
0	0	0	0	0	419	623	
1	0	0	0	0	423	623	
2	0	0	0	0	429	623	
3	0	0	0	0	436	623	
4	0	0	0	0	442	623	
5	0	0	0	0	448	623	
6	0	0	0	0	454	624	
7	0	0	0	0	460	624	
8	0	0	0	0	466	624	
9	0	0	0	0	475	623	
10	0	0	0	0	489	623	
11	0	0	0	0	509	623	
12	0	0	0	0	532	623	
13	0	0	0	0	557	622	
14	0	0	0	0	586	622	
15	0	0	0	0	620	622	
0	0	0	0	0	657	622	
1	0	0	0	0	699	622	
2	0	0	0	0	743	622	
3	0	0	0	0	784	622	
4	0	0	0	0	820	621	
5	0	0	0	0	854	622	
6	0	0	0	0	879	622	
7	0	0	0	0	896	622	
8	0	0	0	0	908	622	
9	0	0	0	0	913	623	
10	0	0	0	0	914	624	
11	0	0	0	0	910	624	
12	0	0	0	0	905	624	
13	0	0	0	0	896	625	
14	0	0	0	0	884	625	
15	0	0	0	0	871	626	
0	0	0	0	0	854	625	
1	0	0	0	0	835	627	
2	0	0	0	0	813	627	
3	0	0	0	0	788	627	
4	0	0	0	0	761	625	
5	0	0	0	0	736	625	
6	0	0	0	0	715	625	
7	0	0	0	0	696	625	
8	0	0	0	0	677	625	
9	0	0	0	0	659	624	
10	0	0	0	0	642	624	
11	0	0	0	0	628	626	
12	0	0	0	0	615	625	
13	0	0	0	0	602	627	
14	0	0	0	0	590	630	
15	0	0	0	0	579	630	
0	0	0	0	0	567	630	
1	0	0	0	0	556	629	
2	0	0	0	0	546	628	
3	0	0	0	0	535	629	
4	0	0	0	0	524	629	
5	0	0	0	0	513	628	
6	0	0	0	0	503	630	
7	0	0	0	0	492	631	
8	0	0	0	0	483	631	
9	0	0	0	0	475	630	
10	0	0	0	0	467	630	
11	0	0	0	0	461	631	
12	0	0	0	0	454	632	
13	0	0	0	0	448	632	
14	0	0	0	0	443	631	
15	0	0	0	0	438	632	
0	0	0	0	0	435	631	
1	0	0	0	0	432	632	
2	0	0	0	0	429	632	
3	0	0	0	0	427	632	
4	0	0	0	0	426	632	
5	0	0	0	0	424	632	
6	0	0	0	0	422	632	
7	0	0	0	0	420	633	
8	0	0	0	0	419	632	
9	0	0	0	0	418	633	
10	0	0	0	0	417	634	
11	0	0	0	0	417	633	
12	0	0	0	0	417	633	
13	0	0	0	0	416	634	
14	0	0	0	0	416	634	
15	0	0	0	0	416	635	
0	0	0	0	0	415	633	
1	0	0	0	0	415	635	
2	0	0	0	0	415	635	
3	0	0	0	0	415	634	
4	0	0	0	0	415	634	
5	0	0	0	0	416	633	
6	0	0	0	0	416	633	
7	0	0	0	0	416	634	
8	0	0	0	0	416	633	
9	0	0	0	0	417	633	
10	0	0	0	0	418	633	
11	0	0	0	0	419	634	
12	0	0	0	0	420	633	
13	0	0	0	0	420	633	
14	0	0	0	0	421	633	
15	0	0	0	0	420	632	
0	0	0	0	0	421	632	
1	0	0	0	0	422	632	
2	0	0	0	0	422	631	
3	0	0	0	0	422	631	
4	0	0	0	0	422	630	
5	0	0	0	0	422	630	
6	0	0	0	0	423	630	
7	0	0	0	0	424	630	
8	0	0	0	0	424	629	
9	0	0	0	0	423	629	
10	0	0	0	0	424	629	
11	0	0	0	0	423	628	
12	0	0	0	0	423	628	
13	0	0	0	0	423	628	
14	0	0	0	0	423	629	
15	0	0	0	0	423	629	
0	0	0	0	0	424	628	
1	0	0	0	0	425	628	
2	0	0	0	0	426	628	
3	0	0	0	0	427	628	
4	0	0	0	0	428	628	
5	0	0	0	0	429	629	
6	0	0	0	0	430	628	
7	0	0	0	0	431	628	
8	0	0	0	0	431	628	
9	0	0	0	0	432	628	
10	0	0	0	0	432	628	
11	0	0	0	0	432	628	
12	0	0	0	0	433	627	
13	0	0	0	0	434	627	
14	0	0	0	0	434	628	
15	0	0	0	0	433	628	
0	0	0	0	0	434	627	
1	0	0	0	0	435	627	
2	0	0	0	0	436	625	
3	0	0	0	0	437	625	
4	0	0	0	0	438	624	
5	0	0	0	0	438	624	
6	0	0	0	0	438	623	
7	0	0	0	0	438	623	
8	0	0	0	0	439	622	
9	0	0	0	0	439	622	
10	0	0	0	0	439	622	
11	0	0	0	0	440	622	
12	0	0	0	0	440	621	
13	0	0	0	0	441	621	
14	0	0	0	0	441	621	
15	0	0	0	0	442	620	
0	0	0	0	0	443	619	
1	0	0	0	0	443	620	
2	0	0	0	0	442	619	
3	0	0	0	0	443	619	
4	0	0	0	0	443	618	
5	0	0	0	0	443	619	
6	0	0	0	0	443	617	
7	0	0	0	0	444	618	
8	0	0	0	0	444	617	
9	0	0	0	0	444	617	
10	0	0	0	0	445	617	
11	0	0	0	0	445	617	
12	0	0	0	0	446	616	
13	0	0	0	0	446	616	
14	0	0	0	0	447	616	
15	0	0	0	0	448	616	
0	0	0	0	0	448	615	
1	0	0	0	0	448	615	
2	0	0	0	0	448	615	
3	0	0	0	0	448	615	
4	0	0	0	0	448	615	
5	0	0	0	0	448	615	
6	0	0	0	0	448	615	
7	0	0	0	0	448	615	
8	0	0	0	0	447	615	
9	0	0	0	0	448	615	
10	0	0	0	0	448	614	
11	0	0	0	0	448	615	
12	0	0	0	0	448	614	
13	0	0	0	0	448	615	
14	0	0	0	0	449	614	
15	0	0	0	0	449	615	
0	0	0	0	0	449	614	
1	0	0	0	0	449	614	
2	0	0	0	0	449	614	
3	0	0	0	0	450	614	
4	0	0	0	0	452	614	
5	0	0	0	0	452	614	
6	0	0	0	0	451	614	
7	0	0	0	0	449	614	
8	0	0	0	0	449	614	
9	0	0	0	0	450	615	
10	0	0	0	0	451	615	
11	0	0	0	0	452	615	
12	0	0	0	0	453	615	
13	0	0	0	0	453	615	
14	0	0	0	0	453	614	
15	0	0	0	0	454	615	
0	0	0	0	0	454	615	
1	0	0	0	0	455	616	
2	0	0	0	0	457	615	
3	0	0	0	0	458	616	
4	0	0	0	0	459	617	
5	0	0	0	0	460	616	
6	0	0	0	0	460	617	
7	0	0	0	0	461	618	
8	0	0	0	0	461	618	
9	0	0	0	0	462	618	
10	0	0	0	0	462	619	
11	0	0	0	0	464	619	
12	0	0	0	0	465	619	
13	0	0	0	0	466	620	
14	0	0	0	0	467	620	
15	0	0	0	0	468	621	
0	0	0	0	0	469	620	
1	0	0	0	0	470	621	
2	0	0	0	0	472	622	
3	0	0	0	0	472	623	
4	0	0	0	0	474	623	
5	0	0	0	0	474	623	
6	0	0	0	0	475	624	
7	0	0	0	0	476	624	
8	0	0	0	0	477	625	
9	0	0	0	0	478	625	
10	0	0	0	0	479	625	
11	0	0	0	0	480	627	
12	0	0	0	0	480	627	
13	0	0	0	0	482	627	
14	0	0	0	0	483	627	
15	0	0	0	0	483	628	
0	0	0	0	0	484	628	
1	0	0	0	0	485	628	
2	0	0	0	0	487	630	
3	0	0	0	0	487	630	
4	0	0	0	0	488	630	
5	0	0	0	0	489	630	
6	0	0	0	0	491	630	
7	0	0	0	0	493	631	
8	0	0	0	0	494	630	
9	0	0	0	0	495	630	
10	0	0	0	0	496	630	
11	0	0	0	0	497	630	
12	0	0	0	0	499	630	
13	0	0	0	0	500	630	
14	0	0	0	0	501	630	
15	0	0	0	0	501	630	
0	0	0	0	0	503	630	
1	0	0	0	0	505	630	
2	0	0	0	0	507	629	
3	0	0	0	0	508	629	
4	0	0	0	0	508	628	
5	0	0	0	0	508	627	
6	0	0	0	0	510	627	
7	0	0	0	0	511	627	
8	0	0	0	0	512	625	
9	0	0	0	0	512	625	
10	0	0	0	0	512	624	
11	0	0	0	0	513	623	
12	0	0	0	0	514	623	
13	0	0	0	0	515	622	
14	0	0	0	0	515	623	
15	0	0	0	0	515	622	
0	0	0	0	0	516	622	
1	0	0	0	0	517	623	
2	0	0	0	0	518	623	
3	0	0	0	0	518	624	
4	0	0	0	0	519	624	
5	0	0	0	0	521	624	
6	0	0	0	0	521	624	
7	0	0	0	0	522	624	
8	0	0	0	0	523	625	
9	0	0	0	0	522	625	
10	0	0	0	0	521	625	
11	0	0	0	0	521	625	
12	0	0	0	0	521	624	
13	0	0	0	0	521	624	
14	0	0	0	0	521	624	
15	0	0	0	0	521	624	
0	0	0	0	0	522	623	
1	0	0	0	0	522	623	
2	0	0	0	0	522	622	
3	0	0	0	0	521	622	
4	0	0	0	0	521	622	
5	0	0	0	0	521	622	
6	0	0	0	0	522	622	
7	0	0	0	0	522	621	
8	0	0	0	0	521	621	
9	0	0	0	0	521	622	
10	0	0	0	0	521	621	
11	0	0	0	0	521	621	
12	0	0	0	0	521	621	
13	0	0	0	0	521	622	
14	0	0	0	0	521	622	
15	0	0	0	0	521	622	
0	0	0	0	0	521	621	
1	0	0	0	0	521	622	
2	0	0	0	0	521	621	
3	0	0	0	0	521	621	
4	0	0	0	0	521	621	
5	0	0	0	0	520	621	
6	0	0	0	0	520	621	
7	0	0	0	0	520	622	
8	0	0	0	0	520	622	
9	0	0	0	0	521	622	
10	0	0	0	0	521	622	
11	0	0	0	0	521	622	
12	0	0	0	0	521	622	
13	0	0	0	0	520	622	
14	0	0	0	0	520	622	
15	0	0	0	0	520	622	
0	0	0	0	0	519	622	
1	0	0	0	0	519	622	
2	0	0	0	0	519	623	
3	0	0	0	0	519	622	
4	0	0	0	0	519	622	
5	0	0	0	0	519	622	
6	0	0	0	0	518	622	
7	0	0	0	0	518	623	
8	0	0	0	0	518	623	
9	0	0	0	0	518	623	
10	0	0	0	0	518	623	
11	0	0	0	0	518	623	
12	0	0	0	0	518	623	
13	0	0	0	0	518	623	
14	0	0	0	0	518	622	
15	0	0	0	0	519	623	
0	0	0	0	0	518	623	
1	0	0	0	0	519	623	
2	0	0	0	0	519	623	
3	0	0	0	0	519	623	
4	0	0	0	0	518	623	
5	0	0	0	0	518	623	
6	0	0	0	0	518	624	
7	0	0	0	0	518	623	
8	0	0	0	0	518	624	
9	0	0	0	0	518	624	
10	0	0	0	0	518	624	
11	0	0	0	0	518	624	
12	0	0	0	0	519	624	
13	0	0	0	0	519	624	
14	0	0	0	0	519	624	
15	0	0	0	0	519	624	
0	0	0	0	0	519	624	
1	0	0	0	0	519	625	
2	0	0	0	0	519	625	
3	0	0	0	0	519	626	
4	0	0	0	0	519	626	
5	0	0	0	0	518	626	
6	0	0	0	0	518	627	
7	0	0	0	0	517	627	
8	0	0	0	0	517	626	
9	0	0	0	0	518	627	
10	0	0	0	0	518	627	
11	0	0	0	0	517	627	
12	0	0	0	0	517	627	
13	0	0	0	0	517	627	
14	0	0	0	0	518	627	
15	0	0	0	0	517	628	
0	0	0	0	0	517	628	
1	0	0	0	0	517	628	
2	0	0	0	0	517	628	
3	0	0	0	0	516	627	
4	0	0	0	0	515	628	
5	0	0	0	0	515	627	
6	0	0	0	0	514	627	
7	0	0	0	0	513	627	
8	0	0	0	0	513	627	
9	0	0	0	0	514	627	
10	0	0	0	0	514	626	
11	0	0	0	0	513	627	
12	0	0	0	0	513	626	
13	0	0	0	0	514	626	
14	0	0	0	0	514	626	
15	0	0	0	0	514	627	
0	0	0	0	0	513	626	
1	0	0	0	0	513	626	
2	0	0	0	0	512	626	
3	0	0	0	0	512	627	
4	0	0	0	0	512	626	
5	0	0	0	0	512	627	
6	0	0	0	0	512	626	
7	0	0	0	0	512	627	
8	0	0	0	0	511	626	
9	0	0	0	0	510	627	
10	0	0	0	0	511	626	
11	0	0	0	0	512	626	
12	0	0	0	0	511	625	
13	0	0	0	0	511	625	
14	0	0	0	0	510	625	
15	0	0	0	0	510	625	
0	0	0	0	0	510	625	
1	0	0	0	0	509	625	
2	0	0	0	0	510	625	
3	0	0	0	0	510	625	
4	0	0	0	0	511	625	
5	0	0	0	0	511	624	
6	0	0	0	0	510	624	
7	0	0	0	0	509	625	
8	0	0	0	0	509	624	
9	0	0	0	0	510	624	
10	0	0	0	0	510	624	
11	0	0	0	0	509	624	
12	0	0	0	0	509	624	
13	0	0	0	0	509	623	
14	0	0	0	0	509	622	
15	0	0	0	0	510	623	
0	0	0	0	0	510	622	
1	0	0	0	0	510	622	
2	0	0	0	0	511	621	
3	0	0	0	0	511	621	
4	0	0	0	0	511	620	
5	0	0	0	0	510	620	
6	0	0	0	0	510	620	
7	0	0	0	0	510	620	
8	0	0	0	0	510	618	
9	0	0	0	0	510	619	
10	0	0	0	0	510	619	
11	0	0	0	0	511	618	
12	0	0	0	0	511	618	
13	0	0	0	0	511	618	
14	0	0	0	0	511	617	
15	0	0	0	0	511	618	
0	0	0	0	0	511	618	
1	0	0	0	0	511	619	
2	0	0	0	0	511	619	
3	0	0	0	0	511	619	
4	0	0	0	0	511	620	
5	0	0	0	0	510	620	
6	0	0	0	0	509	619	
7	0	0	0	0	510	620	
8	0	0	0	0	509	620	
9	0	0	0	0	509	621	
10	0	0	0	0	509	621	
11	0	0	0	0	509	621	
12	0	0	0	0	508	622	
13	0	0	0	0	509	622	
14	0	0	0	0	508	622	
15	0	0	0	0	509	623	
0	0	0	0	0	511	623	
1	0	0	0	0	511	623	
2	0	0	0	0	511	623	
3	0	0	0	0	511	623	
4	0	0	0	0	511	624	
5	0	0	0	0	512	624	
6	0	0	0	0	512	624	
7	0	0	0	0	512	625	
8	0	0	0	0	512	626	
9	0	0	0	0	511	626	
10	0	0	0	0	511	626	
11	0	0	0	0	511	626	
12	0	0	0	0	511	626	
13	0	0	0	0	511	626	
14	0	0	0	0	511	627	
15	0	0	0	0	512	627	
0	0	0	0	0	512	627	
1	0	0	0	0	512	627	
2	0	0	0	0	512	627	
3	0	0	0	0	512	627	
4	0	0	0	0	512	627	
5	0	0	0	0	512	627	
6	0	0	0	0	512	627	
7	0	0	0	0	512	628	
8	0	0	0	0	512	628	
9	0	0	0	0	512	627	
10	0	0	0	0	513	627	
11	0	0	0	0	513	628	
12	0	0	0	0	513	628	
13	0	0	0	0	513	628	
14	0	0	0	0	513	628	
15	0	0	0	0	514	628	
0	0	0	0	0	514	628	
1	0	0	0	0	513	627	
2	0	0	0	0	514	627	
3	0	0	0	0	514	627	
4	0	0	0	0	514	627	
5	0	0	0	0	513	627	
6	0	0	0	0	512	627	
7	0	0	0	0	512	627	
8	0	0	0	0	512	627	
9	0	0	0	0	512	626	
10	0	0	0	0	512	626	
11	0	0	0	0	513	626	
12	0	0	0	0	513	625	
13	0	0	0	0	513	625	
14	0	0	0	0	512	624	
15	0	0	0	0	512	624	
0	0	0	0	0	512	624	
1	0	0	0	0	512	623	
2	0	0	0	0	512	623	
3	0	0	0	0	512	623	
4	0	0	0	0	512	622	
5	0	0	0	0	513	623	
6	0	0	0	0	513	623	
7	0	0	0	0	512	623	
8	0	0	0	0	512	622	
9	0	0	0	0	512	622	
10	0	0	0	0	512	622	
11	0	0	0	0	513	623	
12	0	0	0	0	513	622	
13	0	0	0	0	513	622	
14	0	0	0	0	514	623	
15	0	0	0	0	514	623	
0	0	0	0	0	514	623	
1	0	0	0	0	514	623	
2	0	0	0	0	514	623	
3	0	0	0	0	515	623	
4	0	0	0	0	515	623	
5	0	0	0	0	517	623	
6	0	0	0	0	516	624	
7	0	0	0	0	515	624	
8	0	0	0	0	515	624	
9	0	0	0	0	514	624	
10	0	0	0	0	514	624	
11	0	0	0	0	513	624	
12	0	0	0	0	513	625	
13	0	0	0	0	512	625	
14	0	0	0	0	512	625	
15	0	0	0	0	512	626	
0	0	0	0	0	511	627	
1	0	0	0	0	511	626	
2	0	0	0	0	511	627	
3	0	0	0	0	511	627	
4	0	0	0	0	511	628	
5	0	0	0	0	512	628	
6	0	0	0	0	512	628	
7	0	0	0	0	512	629	
8	0	0	0	0	511	629	
9	0	0	0	0	510	630	
10	0	0	0	0	511	631	
11	0	0	0	0	510	631	
12	0	0	0	0	511	630	
13	0	0	0	0	512	631	
14	0	0	0	0	512	632	
15	0	0	0	0	512	632	
0	0	0	0	0	512	632	
1	0	0	0	0	512	632	
2	0	0	0	0	512	632	
3	0	0	0	0	512	632	
