# OpenSignals Text File Format. Version 1
# {"98:D3:91:FD:69:48": {"position": 0, "device": "bitalino_rev", "device name": "98:D3:91:FD:69:48", "device connection": "BTH98:D3:91:FD:69:48", "sampling rate": 1000, "resolution": [4, 1, 1, 1, 1, 10, 10], "firmware version": 1281, "comments": "", "keywords": "", "mode": 0, "sync interval": 2, "date": "2021-9-14", "time": "12:19:57.881", "channels": [2, 5], "sensor": ["RAW", "RAW"], "label": ["A2", "A5"], "column": ["nSeq", "I1", "I2", "O1", "O2", "A2", "A5"], "special": [{}, {}], "digital IO": [0, 0, 1, 1], "convertedValues": 0}}
# EndOfHeader
0	0	0	0	0	511	409	
1	0	0	0	0	511	409	
2	0	0	0	0	511	409	
3	0	0	0	0	512	409	
4	0	0	0	0	512	409	
5	0	0	0	0	512	409	
6	0	0	0	0	512	409	
7	0	0	0	0	512	409	
8	0	0	0	0	512	409	
9	0	0	0	0	511	408	
10	0	0	0	0	511	409	
11	0	0	0	0	510	408	
12	0	0	0	0	509	409	
13	0	0	0	0	510	408	
14	0	0	0	0	510	408	
15	0	0	0	0	511	408	
0	0	0	0	0	511	408	
1	0	0	0	0	512	408	
2	0	0	0	0	511	408	
3	0	0	0	0	511	408	
4	0	0	0	0	511	409	
5	0	0	0	0	511	408	
6	0	0	0	0	510	409	
7	0	0	0	0	511	408	
8	0	0	0	0	511	408	
9	0	0	0	0	511	408	
10	0	0	0	0	511	408	
11	0	0	0	0	512	408	
12	0	0	0	0	512	409	
13	0	0	0	0	512	408	
14	0	0	0	0	513	409	
15	0	0	0	0	513	408	
0	0	0	0	0	513	408	
1	0	0	0	0	513	408	
2	0	0	0	0	512	408	
3	0	0	0	0	513	408	
4	0	0	0	0	513	408	
5	0	0	0	0	514	408	
6	0	0	0	0	513	408	
7	0	0	0	0	514	408	
8	0	0	0	0	515	407	
9	0	0	0	0	515	408	
10	0	0	0	0	516	408	
11	0	0	0	0	516	408	
12	0	0	0	0	516	409	
13	0	0	0	0	516	408	
14	0	0	0	0	516	408	
15	0	0	0	0	516	408	
0	0	0	0	0	516	408	
1	0	0	0	0	517	408	
2	0	0	0	0	518	408	
3	0	0	0	0	519	408	
4	0	0	0	0	519	409	
5	0	0	0	0	519	408	
6	0	0	0	0	519	408	
7	0	0	0	0	519	408	
8	0	0	0	0	519	408	
9	0	0	0	0	518	408	
10	0	0	0	0	518	409	
11	0	0	0	0	516	408	
12	0	0	0	0	516	410	
13	0	0	0	0	516	408	
14	0	0	0	0	515	409	
15	0	0	0	0	514	408	
0	0	0	0	0	513	409	
1	0	0	0	0	513	409	
2	0	0	0	0	513	409	
3	0	0	0	0	513	409	
4	0	0	0	0	513	409	
5	0	0	0	0	513	409	
6	0	0	0	0	513	409	
7	0	0	0	0	513	408	
8	0	0	0	0	512	409	
9	0	0	0	0	511	408	
10	0	0	0	0	511	408	
11	0	0	0	0	510	409	
12	0	0	0	0	510	409	
13	0	0	0	0	510	408	
14	0	0	0	0	509	408	
15	0	0	0	0	508	408	
0	0	0	0	0	509	407	
1	0	0	0	0	509	407	
2	0	0	0	0	509	407	
3	0	0	0	0	509	407	
4	0	0	0	0	509	408	
5	0	0	0	0	510	407	
6	0	0	0	0	510	407	
7	0	0	0	0	510	407	
8	0	0	0	0	510	407	
9	0	0	0	0	509	407	
10	0	0	0	0	508	407	
11	0	0	0	0	509	407	
12	0	0	0	0	509	408	
13	0	0	0	0	509	407	
14	0	0	0	0	509	408	
15	0	0	0	0	509	408	
0	0	0	0	0	510	408	
1	0	0	0	0	511	408	
2	0	0	0	0	511	408	
3	0	0	0	0	512	408	
4	0	0	0	0	512	409	
5	0	0	0	0	511	408	
6	0	0	0	0	511	408	
7	0	0	0	0	510	408	
8	0	0	0	0	509	408	
9	0	0	0	0	508	408	
10	0	0	0	0	507	408	
11	0	0	0	0	505	408	
12	0	0	0	0	505	409	
13	0	0	0	0	504	408	
14	0	0	0	0	504	408	
15	0	0	0	0	504	409	
0	0	0	0	0	504	408	
1	0	0	0	0	505	408	
2	0	0	0	0	505	409	
3	0	0	0	0	504	408	
4	0	0	0	0	502	410	
5	0	0	0	0	500	409	
6	0	0	0	0	497	409	
7	0	0	0	0	494	409	
8	0	0	0	0	491	408	
9	0	0	0	0	487	408	
10	0	0	0	0	482	408	
11	0	0	0	0	478	409	
12	0	0	0	0	473	408	
13	0	0	0	0	470	408	
14	0	0	0	0	466	408	
15	0	0	0	0	463	408	
0	0	0	0	0	460	408	
1	0	0	0	0	455	407	
2	0	0	0	0	451	408	
3	0	0	0	0	447	407	
4	0	0	0	0	444	408	
5	0	0	0	0	440	408	
6	0	0	0	0	435	407	
7	0	0	0	0	433	408	
8	0	0	0	0	433	408	
9	0	0	0	0	434	408	
10	0	0	0	0	437	408	
11	0	0	0	0	440	408	
12	0	0	0	0	444	408	
13	0	0	0	0	449	408	
14	0	0	0	0	456	408	
15	0	0	0	0	465	408	
0	0	0	0	0	476	408	
1	0	0	0	0	486	408	
2	0	0	0	0	497	408	
3	0	0	0	0	509	408	
4	0	0	0	0	520	409	
5	0	0	0	0	532	409	
6	0	0	0	0	544	409	
7	0	0	0	0	553	409	
8	0	0	0	0	563	409	
9	0	0	0	0	572	409	
10	0	0	0	0	582	409	
11	0	0	0	0	591	410	
12	0	0	0	0	601	411	
13	0	0	0	0	609	409	
14	0	0	0	0	619	410	
15	0	0	0	0	629	409	
0	0	0	0	0	639	409	
1	0	0	0	0	650	409	
2	0	0	0	0	662	409	
3	0	0	0	0	675	409	
4	0	0	0	0	688	409	
5	0	0	0	0	700	409	
6	0	0	0	0	707	408	
7	0	0	0	0	711	408	
8	0	0	0	0	713	408	
9	0	0	0	0	712	408	
10	0	0	0	0	706	407	
11	0	0	0	0	698	407	
12	0	0	0	0	687	408	
13	0	0	0	0	674	408	
14	0	0	0	0	660	407	
15	0	0	0	0	646	407	
0	0	0	0	0	631	407	
1	0	0	0	0	616	408	
2	0	0	0	0	602	407	
3	0	0	0	0	587	408	
4	0	0	0	0	575	409	
5	0	0	0	0	563	408	
6	0	0	0	0	552	408	
7	0	0	0	0	542	408	
8	0	0	0	0	533	408	
9	0	0	0	0	525	408	
10	0	0	0	0	518	408	
11	0	0	0	0	511	409	
12	0	0	0	0	504	409	
13	0	0	0	0	499	408	
14	0	0	0	0	495	409	
15	0	0	0	0	490	409	
0	0	0	0	0	486	408	
1	0	0	0	0	482	409	
2	0	0	0	0	479	408	
3	0	0	0	0	476	408	
4	0	0	0	0	475	409	
5	0	0	0	0	473	409	
6	0	0	0	0	473	409	
7	0	0	0	0	472	409	
8	0	0	0	0	472	408	
9	0	0	0	0	471	408	
10	0	0	0	0	471	408	
11	0	0	0	0	471	408	
12	0	0	0	0	471	409	
13	0	0	0	0	471	408	
14	0	0	0	0	470	408	
15	0	0	0	0	470	408	
0	0	0	0	0	469	408	
1	0	0	0	0	468	408	
2	0	0	0	0	468	408	
3	0	0	0	0	468	408	
4	0	0	0	0	468	410	
5	0	0	0	0	469	408	
6	0	0	0	0	469	407	
7	0	0	0	0	470	408	
8	0	0	0	0	470	408	
9	0	0	0	0	470	407	
10	0	0	0	0	469	408	
11	0	0	0	0	469	408	
12	0	0	0	0	469	409	
13	0	0	0	0	468	408	
14	0	0	0	0	469	408	
15	0	0	0	0	470	407	
0	0	0	0	0	470	407	
1	0	0	0	0	470	408	
2	0	0	0	0	470	408	
3	0	0	0	0	470	408	
4	0	0	0	0	470	408	
5	0	0	0	0	471	407	
6	0	0	0	0	471	408	
7	0	0	0	0	471	408	
8	0	0	0	0	471	408	
9	0	0	0	0	471	408	
10	0	0	0	0	472	408	
11	0	0	0	0	473	407	
12	0	0	0	0	473	408	
13	0	0	0	0	474	407	
14	0	0	0	0	475	408	
15	0	0	0	0	475	408	
0	0	0	0	0	476	408	
1	0	0	0	0	476	407	
2	0	0	0	0	476	407	
3	0	0	0	0	477	408	
4	0	0	0	0	477	408	
5	0	0	0	0	477	408	
6	0	0	0	0	478	408	
7	0	0	0	0	477	408	
8	0	0	0	0	476	408	
9	0	0	0	0	476	408	
10	0	0	0	0	476	408	
11	0	0	0	0	477	408	
12	0	0	0	0	477	409	
13	0	0	0	0	477	408	
14	0	0	0	0	476	408	
15	0	0	0	0	476	408	
0	0	0	0	0	475	408	
1	0	0	0	0	475	408	
2	0	0	0	0	476	408	
3	0	0	0	0	476	408	
4	0	0	0	0	476	408	
5	0	0	0	0	477	408	
6	0	0	0	0	477	408	
7	0	0	0	0	478	408	
8	0	0	0	0	478	407	
9	0	0	0	0	478	408	
10	0	0	0	0	479	408	
11	0	0	0	0	479	408	
12	0	0	0	0	479	408	
13	0	0	0	0	480	408	
14	0	0	0	0	480	408	
15	0	0	0	0	480	408	
0	0	0	0	0	481	408	
1	0	0	0	0	481	408	
2	0	0	0	0	481	408	
3	0	0	0	0	482	409	
4	0	0	0	0	483	410	
5	0	0	0	0	483	409	
6	0	0	0	0	483	409	
7	0	0	0	0	482	409	
8	0	0	0	0	481	409	
9	0	0	0	0	481	409	
10	0	0	0	0	482	409	
11	0	0	0	0	483	408	
12	0	0	0	0	483	409	
13	0	0	0	0	483	409	
14	0	0	0	0	483	409	
15	0	0	0	0	483	409	
0	0	0	0	0	483	408	
1	0	0	0	0	482	408	
2	0	0	0	0	483	410	
3	0	0	0	0	483	409	
4	0	0	0	0	483	409	
5	0	0	0	0	483	409	
6	0	0	0	0	483	409	
7	0	0	0	0	483	409	
8	0	0	0	0	483	409	
9	0	0	0	0	483	409	
10	0	0	0	0	484	409	
11	0	0	0	0	484	408	
12	0	0	0	0	484	408	
13	0	0	0	0	484	408	
14	0	0	0	0	484	408	
15	0	0	0	0	483	408	
0	0	0	0	0	483	408	
1	0	0	0	0	483	408	
2	0	0	0	0	483	408	
3	0	0	0	0	482	408	
4	0	0	0	0	482	409	
5	0	0	0	0	482	408	
6	0	0	0	0	482	408	
7	0	0	0	0	481	408	
8	0	0	0	0	482	408	
9	0	0	0	0	482	408	
10	0	0	0	0	481	408	
11	0	0	0	0	482	408	
12	0	0	0	0	482	408	
13	0	0	0	0	482	408	
14	0	0	0	0	482	407	
15	0	0	0	0	482	407	
0	0	0	0	0	482	407	
1	0	0	0	0	482	407	
2	0	0	0	0	483	408	
3	0	0	0	0	483	407	
4	0	0	0	0	484	408	
5	0	0	0	0	484	407	
6	0	0	0	0	483	407	
7	0	0	0	0	483	407	
8	0	0	0	0	482	406	
9	0	0	0	0	482	407	
10	0	0	0	0	483	408	
11	0	0	0	0	482	407	
12	0	0	0	0	483	408	
13	0	0	0	0	484	407	
14	0	0	0	0	483	407	
15	0	0	0	0	483	408	
0	0	0	0	0	483	408	
1	0	0	0	0	484	408	
2	0	0	0	0	484	408	
3	0	0	0	0	483	408	
4	0	0	0	0	484	409	
5	0	0	0	0	485	408	
6	0	0	0	0	485	408	
7	0	0	0	0	486	408	
8	0	0	0	0	486	408	
9	0	0	0	0	487	408	
10	0	0	0	0	487	408	
11	0	0	0	0	487	408	
12	0	0	0	0	487	409	
13	0	0	0	0	487	409	
14	0	0	0	0	487	409	
15	0	0	0	0	487	409	
0	0	0	0	0	487	409	
1	0	0	0	0	487	409	
2	0	0	0	0	488	409	
3	0	0	0	0	490	410	
4	0	0	0	0	492	410	
5	0	0	0	0	494	409	
6	0	0	0	0	495	409	
7	0	0	0	0	496	410	
8	0	0	0	0	496	409	
9	0	0	0	0	497	410	
10	0	0	0	0	497	410	
11	0	0	0	0	496	410	
12	0	0	0	0	497	410	
13	0	0	0	0	497	410	
14	0	0	0	0	497	409	
15	0	0	0	0	497	409	
0	0	0	0	0	497	409	
1	0	0	0	0	498	410	
2	0	0	0	0	498	410	
3	0	0	0	0	498	410	
4	0	0	0	0	498	410	
5	0	0	0	0	498	410	
6	0	0	0	0	498	410	
7	0	0	0	0	500	410	
8	0	0	0	0	501	410	
9	0	0	0	0	502	410	
10	0	0	0	0	503	409	
11	0	0	0	0	503	410	
12	0	0	0	0	504	412	
13	0	0	0	0	505	411	
14	0	0	0	0	506	410	
15	0	0	0	0	507	410	
0	0	0	0	0	507	410	
1	0	0	0	0	507	411	
2	0	0	0	0	508	410	
3	0	0	0	0	508	410	
4	0	0	0	0	508	410	
5	0	0	0	0	509	410	
6	0	0	0	0	509	410	
7	0	0	0	0	509	410	
8	0	0	0	0	509	410	
9	0	0	0	0	509	410	
10	0	0	0	0	510	411	
11	0	0	0	0	510	410	
12	0	0	0	0	511	411	
13	0	0	0	0	511	411	
14	0	0	0	0	512	410	
15	0	0	0	0	512	410	
0	0	0	0	0	512	409	
1	0	0	0	0	513	410	
2	0	0	0	0	514	410	
3	0	0	0	0	514	410	
4	0	0	0	0	515	411	
5	0	0	0	0	515	410	
6	0	0	0	0	515	409	
7	0	0	0	0	515	409	
8	0	0	0	0	514	409	
9	0	0	0	0	514	409	
10	0	0	0	0	514	409	
11	0	0	0	0	513	408	
12	0	0	0	0	513	409	
13	0	0	0	0	514	409	
14	0	0	0	0	514	409	
15	0	0	0	0	514	409	
0	0	0	0	0	514	408	
1	0	0	0	0	515	409	
2	0	0	0	0	515	409	
3	0	0	0	0	515	409	
4	0	0	0	0	516	409	
5	0	0	0	0	516	408	
6	0	0	0	0	515	408	
7	0	0	0	0	515	408	
8	0	0	0	0	515	407	
9	0	0	0	0	515	408	
10	0	0	0	0	515	408	
11	0	0	0	0	516	407	
12	0	0	0	0	516	408	
13	0	0	0	0	517	407	
14	0	0	0	0	519	408	
15	0	0	0	0	519	407	
0	0	0	0	0	519	407	
1	0	0	0	0	519	407	
2	0	0	0	0	519	406	
3	0	0	0	0	521	407	
4	0	0	0	0	521	407	
5	0	0	0	0	520	406	
6	0	0	0	0	520	406	
7	0	0	0	0	520	405	
8	0	0	0	0	522	405	
9	0	0	0	0	522	405	
10	0	0	0	0	523	405	
11	0	0	0	0	523	406	
12	0	0	0	0	523	406	
13	0	0	0	0	523	405	
14	0	0	0	0	521	406	
15	0	0	0	0	521	405	
0	0	0	0	0	521	405	
1	0	0	0	0	521	405	
2	0	0	0	0	521	406	
3	0	0	0	0	520	406	
4	0	0	0	0	520	407	
5	0	0	0	0	521	407	
6	0	0	0	0	520	406	
7	0	0	0	0	521	407	
8	0	0	0	0	521	406	
9	0	0	0	0	521	406	
10	0	0	0	0	521	405	
11	0	0	0	0	521	406	
12	0	0	0	0	521	406	
13	0	0	0	0	522	406	
14	0	0	0	0	522	406	
15	0	0	0	0	523	406	
0	0	0	0	0	524	407	
1	0	0	0	0	524	407	
2	0	0	0	0	524	406	
3	0	0	0	0	524	406	
4	0	0	0	0	523	408	
5	0	0	0	0	523	407	
6	0	0	0	0	523	407	
7	0	0	0	0	523	407	
8	0	0	0	0	523	408	
9	0	0	0	0	523	407	
10	0	0	0	0	523	406	
11	0	0	0	0	522	407	
12	0	0	0	0	522	408	
13	0	0	0	0	522	408	
14	0	0	0	0	522	408	
15	0	0	0	0	522	407	
0	0	0	0	0	523	407	
1	0	0	0	0	522	407	
2	0	0	0	0	521	408	
3	0	0	0	0	522	408	
4	0	0	0	0	522	408	
5	0	0	0	0	522	407	
6	0	0	0	0	521	408	
7	0	0	0	0	522	408	
8	0	0	0	0	522	408	
9	0	0	0	0	521	408	
10	0	0	0	0	521	408	
11	0	0	0	0	520	408	
12	0	0	0	0	519	409	
13	0	0	0	0	519	408	
14	0	0	0	0	518	408	
15	0	0	0	0	518	408	
0	0	0	0	0	518	409	
1	0	0	0	0	517	409	
2	0	0	0	0	517	410	
3	0	0	0	0	516	409	
4	0	0	0	0	516	410	
5	0	0	0	0	516	409	
6	0	0	0	0	517	410	
7	0	0	0	0	516	409	
8	0	0	0	0	516	409	
9	0	0	0	0	515	409	
10	0	0	0	0	516	410	
11	0	0	0	0	515	410	
12	0	0	0	0	515	411	
13	0	0	0	0	515	410	
14	0	0	0	0	515	410	
15	0	0	0	0	515	411	
0	0	0	0	0	515	410	
1	0	0	0	0	514	410	
2	0	0	0	0	515	411	
3	0	0	0	0	515	411	
4	0	0	0	0	516	411	
5	0	0	0	0	516	410	
6	0	0	0	0	516	411	
7	0	0	0	0	516	411	
8	0	0	0	0	517	411	
9	0	0	0	0	517	410	
10	0	0	0	0	516	410	
11	0	0	0	0	516	410	
12	0	0	0	0	516	411	
13	0	0	0	0	517	411	
14	0	0	0	0	516	410	
15	0	0	0	0	516	410	
0	0	0	0	0	516	409	
1	0	0	0	0	516	410	
2	0	0	0	0	516	409	
3	0	0	0	0	516	409	
4	0	0	0	0	516	410	
5	0	0	0	0	516	409	
6	0	0	0	0	515	409	
7	0	0	0	0	516	409	
8	0	0	0	0	516	409	
9	0	0	0	0	515	409	
10	0	0	0	0	516	409	
11	0	0	0	0	516	409	
12	0	0	0	0	516	410	
13	0	0	0	0	516	408	
14	0	0	0	0	516	409	
15	0	0	0	0	516	408	
0	0	0	0	0	517	408	
1	0	0	0	0	517	408	
2	0	0	0	0	517	408	
3	0	0	0	0	516	408	
4	0	0	0	0	516	409	
5	0	0	0	0	515	408	
6	0	0	0	0	515	408	
7	0	0	0	0	515	408	
8	0	0	0	0	514	408	
9	0	0	0	0	515	408	
10	0	0	0	0	515	408	
11	0	0	0	0	516	408	
12	0	0	0	0	516	408	
13	0	0	0	0	516	408	
14	0	0	0	0	516	408	
15	0	0	0	0	516	409	
0	0	0	0	0	515	408	
1	0	0	0	0	516	409	
2	0	0	0	0	515	409	
3	0	0	0	0	516	409	
4	0	0	0	0	517	410	
5	0	0	0	0	516	410	
6	0	0	0	0	515	410	
7	0	0	0	0	515	410	
8	0	0	0	0	515	409	
9	0	0	0	0	514	410	
10	0	0	0	0	515	409	
11	0	0	0	0	514	409	
12	0	0	0	0	514	411	
13	0	0	0	0	515	409	
14	0	0	0	0	514	409	
15	0	0	0	0	515	409	
0	0	0	0	0	515	408	
1	0	0	0	0	516	409	
2	0	0	0	0	517	408	
3	0	0	0	0	516	409	
4	0	0	0	0	516	409	
5	0	0	0	0	516	408	
6	0	0	0	0	516	408	
7	0	0	0	0	517	408	
8	0	0	0	0	517	408	
9	0	0	0	0	517	408	
10	0	0	0	0	517	408	
11	0	0	0	0	517	407	
12	0	0	0	0	517	408	
13	0	0	0	0	517	407	
14	0	0	0	0	516	406	
15	0	0	0	0	516	406	
0	0	0	0	0	516	406	
1	0	0	0	0	515	406	
2	0	0	0	0	515	406	
3	0	0	0	0	515	406	
4	0	0	0	0	516	406	
5	0	0	0	0	516	406	
6	0	0	0	0	516	405	
7	0	0	0	0	517	405	
8	0	0	0	0	517	404	
9	0	0	0	0	517	405	
10	0	0	0	0	516	405	
11	0	0	0	0	516	406	
12	0	0	0	0	516	406	
13	0	0	0	0	516	406	
14	0	0	0	0	516	406	
15	0	0	0	0	516	406	
0	0	0	0	0	515	407	
1	0	0	0	0	515	406	
2	0	0	0	0	515	407	
3	0	0	0	0	516	407	
4	0	0	0	0	516	407	
5	0	0	0	0	515	407	
6	0	0	0	0	516	407	
7	0	0	0	0	516	406	
8	0	0	0	0	515	406	
9	0	0	0	0	515	406	
10	0	0	0	0	516	406	
11	0	0	0	0	516	407	
12	0	0	0	0	515	407	
13	0	0	0	0	515	406	
14	0	0	0	0	515	406	
15	0	0	0	0	516	407	
0	0	0	0	0	516	407	
1	0	0	0	0	516	408	
2	0	0	0	0	516	407	
3	0	0	0	0	516	408	
4	0	0	0	0	516	409	
5	0	0	0	0	515	408	
6	0	0	0	0	516	409	
7	0	0	0	0	515	409	
8	0	0	0	0	515	408	
9	0	0	0	0	516	408	
10	0	0	0	0	516	408	
11	0	0	0	0	517	408	
12	0	0	0	0	517	409	
13	0	0	0	0	517	408	
14	0	0	0	0	517	408	
15	0	0	0	0	516	408	
0	0	0	0	0	515	408	
1	0	0	0	0	515	409	
2	0	0	0	0	515	409	
3	0	0	0	0	514	408	
4	0	0	0	0	514	410	
5	0	0	0	0	515	409	
6	0	0	0	0	516	409	
7	0	0	0	0	516	410	
8	0	0	0	0	516	409	
9	0	0	0	0	515	410	
10	0	0	0	0	515	409	
11	0	0	0	0	515	409	
12	0	0	0	0	515	410	
13	0	0	0	0	514	408	
14	0	0	0	0	514	409	
15	0	0	0	0	514	409	
0	0	0	0	0	515	408	
1	0	0	0	0	515	409	
2	0	0	0	0	515	409	
3	0	0	0	0	515	409	
4	0	0	0	0	515	410	
5	0	0	0	0	515	409	
6	0	0	0	0	515	409	
7	0	0	0	0	515	409	
8	0	0	0	0	515	408	
9	0	0	0	0	514	409	
10	0	0	0	0	514	409	
11	0	0	0	0	513	408	
12	0	0	0	0	514	409	
13	0	0	0	0	514	408	
14	0	0	0	0	514	408	
15	0	0	0	0	514	408	
0	0	0	0	0	514	408	
1	0	0	0	0	514	408	
2	0	0	0	0	514	408	
3	0	0	0	0	514	408	
4	0	0	0	0	514	409	
5	0	0	0	0	514	408	
6	0	0	0	0	513	408	
7	0	0	0	0	513	408	
8	0	0	0	0	513	408	
9	0	0	0	0	512	408	
10	0	0	0	0	512	408	
11	0	0	0	0	512	408	
12	0	0	0	0	512	408	
13	0	0	0	0	512	407	
14	0	0	0	0	512	407	
15	0	0	0	0	512	408	
0	0	0	0	0	512	408	
1	0	0	0	0	512	408	
2	0	0	0	0	512	409	
3	0	0	0	0	511	409	
4	0	0	0	0	511	409	
5	0	0	0	0	510	409	
6	0	0	0	0	511	408	
7	0	0	0	0	512	408	
8	0	0	0	0	512	409	
9	0	0	0	0	512	409	
10	0	0	0	0	512	409	
11	0	0	0	0	512	409	
12	0	0	0	0	512	410	
13	0	0	0	0	512	409	
14	0	0	0	0	511	409	
15	0	0	0	0	512	410	
0	0	0	0	0	512	409	
1	0	0	0	0	512	410	
2	0	0	0	0	512	410	
3	0	0	0	0	513	411	
4	0	0	0	0	512	411	
5	0	0	0	0	512	411	
6	0	0	0	0	512	411	
7	0	0	0	0	511	411	
8	0	0	0	0	511	410	
9	0	0	0	0	510	411	
10	0	0	0	0	510	411	
11	0	0	0	0	511	411	
12	0	0	0	0	510	411	
13	0	0	0	0	509	411	
14	0	0	0	0	510	411	
15	0	0	0	0	509	410	
0	0	0	0	0	509	410	
1	0	0	0	0	510	410	
2	0	0	0	0	510	411	
3	0	0	0	0	511	410	
4	0	0	0	0	511	411	
5	0	0	0	0	511	410	
6	0	0	0	0	511	409	
7	0	0	0	0	510	409	
8	0	0	0	0	510	409	
9	0	0	0	0	511	409	
10	0	0	0	0	510	409	
11	0	0	0	0	510	409	
12	0	0	0	0	509	409	
13	0	0	0	0	509	408	
14	0	0	0	0	509	409	
15	0	0	0	0	509	409	
0	0	0	0	0	509	408	
1	0	0	0	0	510	409	
2	0	0	0	0	511	408	
3	0	0	0	0	511	408	
4	0	0	0	0	512	409	
5	0	0	0	0	513	408	
6	0	0	0	0	514	408	
7	0	0	0	0	515	408	
8	0	0	0	0	515	408	
9	0	0	0	0	515	408	
10	0	0	0	0	515	408	
11	0	0	0	0	515	408	
12	0	0	0	0	515	409	
13	0	0	0	0	515	408	
14	0	0	0	0	515	408	
15	0	0	0	0	514	408	
0	0	0	0	0	514	407	
1	0	0	0	0	514	407	
2	0	0	0	0	514	407	
3	0	0	0	0	515	407	
4	0	0	0	0	515	408	
5	0	0	0	0	516	406	
6	0	0	0	0	516	407	
7	0	0	0	0	516	407	
8	0	0	0	0	517	406	
9	0	0	0	0	517	407	
10	0	0	0	0	518	406	
11	0	0	0	0	518	406	
12	0	0	0	0	519	407	
13	0	0	0	0	519	406	
14	0	0	0	0	519	406	
15	0	0	0	0	519	407	
0	0	0	0	0	519	406	
1	0	0	0	0	520	406	
2	0	0	0	0	520	406	
3	0	0	0	0	519	407	
4	0	0	0	0	519	407	
5	0	0	0	0	519	407	
6	0	0	0	0	519	407	
7	0	0	0	0	518	407	
8	0	0	0	0	518	407	
9	0	0	0	0	516	406	
10	0	0	0	0	516	407	
11	0	0	0	0	516	407	
12	0	0	0	0	516	408	
13	0	0	0	0	516	407	
14	0	0	0	0	516	408	
15	0	0	0	0	516	408	
0	0	0	0	0	515	408	
1	0	0	0	0	514	408	
2	0	0	0	0	513	408	
3	0	0	0	0	512	408	
4	0	0	0	0	512	408	
5	0	0	0	0	511	408	
6	0	0	0	0	512	409	
7	0	0	0	0	512	408	
8	0	0	0	0	512	408	
9	0	0	0	0	511	408	
10	0	0	0	0	511	408	
11	0	0	0	0	510	409	
12	0	0	0	0	510	409	
13	0	0	0	0	509	409	
14	0	0	0	0	509	409	
15	0	0	0	0	509	409	
0	0	0	0	0	509	409	
1	0	0	0	0	509	410	
2	0	0	0	0	510	409	
3	0	0	0	0	510	409	
4	0	0	0	0	511	410	
5	0	0	0	0	511	409	
6	0	0	0	0	510	409	
7	0	0	0	0	510	409	
8	0	0	0	0	510	409	
9	0	0	0	0	510	409	
10	0	0	0	0	509	409	
11	0	0	0	0	508	409	
12	0	0	0	0	507	409	
13	0	0	0	0	506	409	
14	0	0	0	0	505	408	
15	0	0	0	0	505	409	
0	0	0	0	0	505	408	
1	0	0	0	0	504	409	
2	0	0	0	0	504	409	
3	0	0	0	0	504	409	
4	0	0	0	0	504	410	
5	0	0	0	0	504	409	
6	0	0	0	0	505	409	
7	0	0	0	0	506	409	
8	0	0	0	0	506	409	
9	0	0	0	0	507	409	
10	0	0	0	0	507	408	
11	0	0	0	0	506	409	
12	0	0	0	0	506	410	
13	0	0	0	0	505	409	
14	0	0	0	0	504	409	
15	0	0	0	0	502	409	
0	0	0	0	0	499	408	
1	0	0	0	0	495	409	
2	0	0	0	0	492	409	
3	0	0	0	0	488	410	
4	0	0	0	0	484	410	
5	0	0	0	0	480	409	
6	0	0	0	0	477	409	
7	0	0	0	0	473	409	
8	0	0	0	0	471	408	
9	0	0	0	0	467	410	
10	0	0	0	0	463	409	
11	0	0	0	0	459	409	
12	0	0	0	0	455	409	
13	0	0	0	0	451	409	
14	0	0	0	0	449	409	
15	0	0	0	0	445	408	
0	0	0	0	0	441	408	
1	0	0	0	0	438	408	
2	0	0	0	0	436	409	
3	0	0	0	0	436	409	
4	0	0	0	0	437	409	
5	0	0	0	0	439	409	
6	0	0	0	0	443	409	
7	0	0	0	0	447	408	
8	0	0	0	0	454	408	
9	0	0	0	0	461	409	
10	0	0	0	0	471	409	
11	0	0	0	0	480	408	
12	0	0	0	0	489	409	
13	0	0	0	0	500	408	
14	0	0	0	0	512	408	
15	0	0	0	0	523	408	
0	0	0	0	0	535	408	
1	0	0	0	0	545	408	
2	0	0	0	0	556	408	
3	0	0	0	0	564	408	
4	0	0	0	0	574	409	
5	0	0	0	0	584	408	
6	0	0	0	0	594	408	
7	0	0	0	0	604	409	
8	0	0	0	0	613	408	
9	0	0	0	0	622	408	
10	0	0	0	0	632	408	
11	0	0	0	0	642	408	
12	0	0	0	0	654	408	
13	0	0	0	0	668	408	
14	0	0	0	0	681	408	
15	0	0	0	0	694	408	
0	0	0	0	0	704	408	
1	0	0	0	0	711	408	
2	0	0	0	0	713	408	
3	0	0	0	0	714	407	
4	0	0	0	0	711	408	
5	0	0	0	0	705	407	
6	0	0	0	0	695	407	
7	0	0	0	0	683	407	
8	0	0	0	0	670	407	
9	0	0	0	0	656	408	
10	0	0	0	0	642	408	
11	0	0	0	0	626	408	
12	0	0	0	0	611	408	
13	0	0	0	0	596	408	
14	0	0	0	0	582	407	
15	0	0	0	0	569	408	
0	0	0	0	0	558	407	
1	0	0	0	0	548	408	
2	0	0	0	0	538	408	
3	0	0	0	0	529	408	
4	0	0	0	0	521	408	
5	0	0	0	0	514	408	
6	0	0	0	0	508	408	
7	0	0	0	0	502	408	
8	0	0	0	0	496	408	
9	0	0	0	0	492	408	
10	0	0	0	0	488	408	
11	0	0	0	0	485	408	
12	0	0	0	0	483	408	
13	0	0	0	0	481	408	
14	0	0	0	0	480	408	
15	0	0	0	0	478	407	
0	0	0	0	0	477	408	
1	0	0	0	0	476	408	
2	0	0	0	0	476	408	
3	0	0	0	0	475	408	
4	0	0	0	0	475	409	
5	0	0	0	0	475	408	
6	0	0	0	0	475	407	
7	0	0	0	0	474	408	
8	0	0	0	0	473	407	
9	0	0	0	0	472	408	
10	0	0	0	0	472	408	
11	0	0	0	0	472	408	
12	0	0	0	0	472	409	
13	0	0	0	0	471	408	
14	0	0	0	0	471	408	
15	0	0	0	0	470	408	
0	0	0	0	0	470	408	
1	0	0	0	0	469	409	
2	0	0	0	0	469	409	
3	0	0	0	0	468	409	
4	0	0	0	0	468	409	
5	0	0	0	0	468	409	
6	0	0	0	0	468	409	
7	0	0	0	0	469	409	
8	0	0	0	0	468	409	
9	0	0	0	0	468	409	
10	0	0	0	0	468	409	
11	0	0	0	0	467	409	
12	0	0	0	0	467	410	
13	0	0	0	0	467	409	
14	0	0	0	0	467	409	
15	0	0	0	0	468	409	
0	0	0	0	0	470	409	
1	0	0	0	0	472	410	
2	0	0	0	0	472	409	
3	0	0	0	0	473	409	
4	0	0	0	0	473	410	
5	0	0	0	0	473	409	
6	0	0	0	0	473	409	
7	0	0	0	0	474	409	
8	0	0	0	0	475	408	
9	0	0	0	0	475	409	
10	0	0	0	0	475	409	
11	0	0	0	0	476	408	
12	0	0	0	0	476	409	
13	0	0	0	0	475	408	
14	0	0	0	0	475	408	
15	0	0	0	0	475	408	
0	0	0	0	0	474	408	
1	0	0	0	0	475	408	
2	0	0	0	0	475	408	
3	0	0	0	0	475	407	
4	0	0	0	0	476	408	
5	0	0	0	0	476	407	
6	0	0	0	0	476	408	
7	0	0	0	0	477	408	
8	0	0	0	0	476	406	
9	0	0	0	0	476	407	
10	0	0	0	0	477	407	
11	0	0	0	0	478	407	
12	0	0	0	0	478	407	
13	0	0	0	0	478	406	
14	0	0	0	0	477	407	
15	0	0	0	0	478	407	
0	0	0	0	0	478	407	
1	0	0	0	0	479	408	
2	0	0	0	0	480	407	
3	0	0	0	0	481	407	
4	0	0	0	0	481	408	
5	0	0	0	0	481	407	
6	0	0	0	0	481	407	
7	0	0	0	0	481	408	
8	0	0	0	0	480	407	
9	0	0	0	0	479	407	
10	0	0	0	0	479	407	
11	0	0	0	0	478	407	
12	0	0	0	0	478	408	
13	0	0	0	0	479	407	
14	0	0	0	0	478	408	
15	0	0	0	0	479	408	
0	0	0	0	0	479	407	
1	0	0	0	0	480	408	
2	0	0	0	0	480	407	
3	0	0	0	0	480	407	
4	0	0	0	0	480	408	
5	0	0	0	0	481	407	
6	0	0	0	0	481	408	
7	0	0	0	0	481	408	
8	0	0	0	0	481	408	
9	0	0	0	0	480	408	
10	0	0	0	0	480	408	
11	0	0	0	0	480	408	
12	0	0	0	0	480	409	
13	0	0	0	0	479	409	
14	0	0	0	0	480	408	
15	0	0	0	0	480	408	
0	0	0	0	0	480	409	
1	0	0	0	0	480	409	
2	0	0	0	0	480	409	
3	0	0	0	0	481	409	
4	0	0	0	0	481	410	
5	0	0	0	0	482	410	
6	0	0	0	0	483	410	
7	0	0	0	0	483	409	
8	0	0	0	0	483	409	
9	0	0	0	0	484	409	
10	0	0	0	0	484	409	
11	0	0	0	0	483	409	
12	0	0	0	0	484	411	
13	0	0	0	0	484	409	
14	0	0	0	0	484	409	
15	0	0	0	0	485	409	
0	0	0	0	0	485	409	
1	0	0	0	0	486	410	
2	0	0	0	0	486	409	
3	0	0	0	0	487	409	
4	0	0	0	0	487	410	
5	0	0	0	0	486	409	
6	0	0	0	0	487	409	
7	0	0	0	0	487	409	
8	0	0	0	0	487	409	
9	0	0	0	0	486	409	
10	0	0	0	0	485	409	
11	0	0	0	0	485	409	
12	0	0	0	0	485	410	
13	0	0	0	0	484	409	
14	0	0	0	0	484	409	
15	0	0	0	0	484	409	
0	0	0	0	0	485	408	
1	0	0	0	0	485	408	
2	0	0	0	0	485	408	
3	0	0	0	0	485	409	
4	0	0	0	0	485	409	
5	0	0	0	0	485	409	
6	0	0	0	0	485	408	
7	0	0	0	0	484	409	
8	0	0	0	0	484	408	
9	0	0	0	0	483	408	
10	0	0	0	0	483	408	
11	0	0	0	0	483	408	
12	0	0	0	0	484	409	
13	0	0	0	0	485	408	
14	0	0	0	0	485	408	
15	0	0	0	0	485	408	
0	0	0	0	0	485	408	
1	0	0	0	0	485	408	
2	0	0	0	0	485	408	
3	0	0	0	0	486	408	
4	0	0	0	0	486	408	
5	0	0	0	0	486	408	
6	0	0	0	0	486	407	
7	0	0	0	0	486	407	
8	0	0	0	0	487	406	
9	0	0	0	0	487	407	
10	0	0	0	0	487	407	
11	0	0	0	0	488	407	
12	0	0	0	0	488	407	
13	0	0	0	0	488	407	
14	0	0	0	0	488	407	
15	0	0	0	0	488	407	
0	0	0	0	0	489	407	
1	0	0	0	0	491	407	
2	0	0	0	0	492	407	
3	0	0	0	0	493	408	
4	0	0	0	0	494	408	
5	0	0	0	0	495	407	
6	0	0	0	0	496	407	
7	0	0	0	0	496	407	
8	0	0	0	0	497	408	
9	0	0	0	0	497	408	
10	0	0	0	0	498	408	
11	0	0	0	0	499	408	
12	0	0	0	0	500	409	
13	0	0	0	0	500	408	
14	0	0	0	0	500	409	
15	0	0	0	0	501	409	
0	0	0	0	0	501	409	
1	0	0	0	0	501	409	
2	0	0	0	0	502	408	
3	0	0	0	0	502	409	
4	0	0	0	0	502	410	
5	0	0	0	0	504	409	
6	0	0	0	0	504	409	
7	0	0	0	0	505	409	
8	0	0	0	0	506	409	
9	0	0	0	0	507	410	
10	0	0	0	0	508	410	
11	0	0	0	0	508	409	
12	0	0	0	0	509	410	
13	0	0	0	0	509	409	
14	0	0	0	0	510	410	
15	0	0	0	0	510	409	
0	0	0	0	0	511	409	
1	0	0	0	0	511	410	
2	0	0	0	0	512	409	
3	0	0	0	0	511	409	
4	0	0	0	0	511	410	
5	0	0	0	0	511	409	
6	0	0	0	0	511	410	
7	0	0	0	0	511	409	
8	0	0	0	0	512	409	
9	0	0	0	0	513	410	
10	0	0	0	0	513	410	
11	0	0	0	0	513	410	
12	0	0	0	0	513	411	
13	0	0	0	0	512	409	
14	0	0	0	0	513	409	
15	0	0	0	0	513	409	
0	0	0	0	0	514	409	
1	0	0	0	0	514	409	
2	0	0	0	0	515	409	
3	0	0	0	0	516	409	
4	0	0	0	0	516	410	
5	0	0	0	0	516	409	
6	0	0	0	0	517	409	
7	0	0	0	0	516	409	
8	0	0	0	0	516	409	
9	0	0	0	0	515	409	
10	0	0	0	0	515	409	
11	0	0	0	0	516	409	
12	0	0	0	0	516	409	
13	0	0	0	0	517	409	
14	0	0	0	0	518	408	
15	0	0	0	0	519	409	
0	0	0	0	0	519	408	
1	0	0	0	0	520	409	
2	0	0	0	0	521	408	
3	0	0	0	0	521	409	
4	0	0	0	0	520	409	
5	0	0	0	0	520	408	
6	0	0	0	0	521	409	
7	0	0	0	0	521	409	
8	0	0	0	0	521	408	
9	0	0	0	0	522	408	
10	0	0	0	0	522	408	
11	0	0	0	0	522	408	
12	0	0	0	0	521	408	
13	0	0	0	0	521	408	
14	0	0	0	0	522	408	
15	0	0	0	0	522	408	
0	0	0	0	0	522	408	
1	0	0	0	0	522	408	
2	0	0	0	0	522	408	
3	0	0	0	0	522	408	
4	0	0	0	0	521	408	
5	0	0	0	0	521	408	
6	0	0	0	0	523	408	
7	0	0	0	0	524	407	
8	0	0	0	0	524	407	
9	0	0	0	0	524	407	
10	0	0	0	0	524	407	
11	0	0	0	0	525	407	
12	0	0	0	0	525	408	
13	0	0	0	0	526	407	
14	0	0	0	0	526	407	
15	0	0	0	0	526	407	
0	0	0	0	0	526	408	
1	0	0	0	0	526	407	
2	0	0	0	0	525	408	
3	0	0	0	0	524	408	
4	0	0	0	0	524	408	
5	0	0	0	0	523	408	
6	0	0	0	0	522	407	
7	0	0	0	0	523	408	
8	0	0	0	0	523	407	
9	0	0	0	0	523	407	
10	0	0	0	0	523	407	
11	0	0	0	0	524	407	
12	0	0	0	0	524	408	
13	0	0	0	0	525	407	
14	0	0	0	0	525	408	
15	0	0	0	0	526	407	
0	0	0	0	0	525	407	
1	0	0	0	0	525	408	
2	0	0	0	0	525	408	
3	0	0	0	0	524	407	
4	0	0	0	0	524	408	
5	0	0	0	0	523	407	
6	0	0	0	0	523	407	
7	0	0	0	0	522	407	
8	0	0	0	0	522	407	
9	0	0	0	0	522	407	
10	0	0	0	0	522	407	
11	0	0	0	0	522	408	
12	0	0	0	0	522	408	
13	0	0	0	0	522	408	
14	0	0	0	0	522	408	
15	0	0	0	0	522	408	
0	0	0	0	0	523	407	
1	0	0	0	0	523	408	
2	0	0	0	0	523	408	
3	0	0	0	0	521	408	
4	0	0	0	0	521	409	
5	0	0	0	0	520	408	
6	0	0	0	0	520	408	
7	0	0	0	0	520	408	
8	0	0	0	0	520	408	
9	0	0	0	0	520	408	
10	0	0	0	0	519	409	
11	0	0	0	0	519	409	
12	0	0	0	0	519	409	
13	0	0	0	0	518	408	
14	0	0	0	0	518	409	
15	0	0	0	0	517	409	
0	0	0	0	0	516	408	
1	0	0	0	0	516	409	
2	0	0	0	0	516	409	
3	0	0	0	0	515	409	
4	0	0	0	0	515	410	
5	0	0	0	0	516	409	
6	0	0	0	0	517	409	
7	0	0	0	0	518	409	
8	0	0	0	0	518	409	
9	0	0	0	0	519	409	
10	0	0	0	0	519	409	
11	0	0	0	0	519	408	
12	0	0	0	0	518	409	
13	0	0	0	0	518	408	
14	0	0	0	0	518	409	
15	0	0	0	0	518	409	
0	0	0	0	0	519	409	
1	0	0	0	0	519	410	
2	0	0	0	0	519	409	
3	0	0	0	0	519	410	
4	0	0	0	0	519	410	
5	0	0	0	0	519	409	
6	0	0	0	0	519	408	
7	0	0	0	0	518	409	
8	0	0	0	0	518	409	
9	0	0	0	0	518	409	
10	0	0	0	0	518	409	
11	0	0	0	0	518	409	
12	0	0	0	0	518	409	
13	0	0	0	0	517	409	
14	0	0	0	0	517	408	
15	0	0	0	0	518	408	
0	0	0	0	0	516	409	
1	0	0	0	0	516	409	
2	0	0	0	0	515	408	
3	0	0	0	0	514	408	
4	0	0	0	0	514	409	
5	0	0	0	0	515	409	
6	0	0	0	0	515	408	
7	0	0	0	0	515	409	
8	0	0	0	0	515	409	
9	0	0	0	0	515	408	
10	0	0	0	0	515	408	
11	0	0	0	0	515	408	
12	0	0	0	0	515	409	
13	0	0	0	0	515	409	
14	0	0	0	0	516	409	
15	0	0	0	0	516	408	
0	0	0	0	0	517	409	
1	0	0	0	0	517	409	
2	0	0	0	0	516	409	
3	0	0	0	0	517	409	
4	0	0	0	0	517	409	
5	0	0	0	0	517	408	
6	0	0	0	0	517	408	
7	0	0	0	0	516	409	
8	0	0	0	0	516	408	
9	0	0	0	0	517	409	
10	0	0	0	0	518	408	
11	0	0	0	0	518	409	
12	0	0	0	0	518	409	
13	0	0	0	0	518	409	
14	0	0	0	0	518	409	
15	0	0	0	0	518	409	
0	0	0	0	0	517	409	
1	0	0	0	0	516	409	
2	0	0	0	0	516	409	
3	0	0	0	0	515	408	
4	0	0	0	0	515	409	
5	0	0	0	0	515	408	
6	0	0	0	0	515	408	
7	0	0	0	0	515	409	
8	0	0	0	0	515	408	
9	0	0	0	0	515	408	
10	0	0	0	0	515	408	
11	0	0	0	0	515	408	
12	0	0	0	0	515	408	
13	0	0	0	0	515	408	
14	0	0	0	0	515	407	
15	0	0	0	0	516	407	
0	0	0	0	0	516	406	
1	0	0	0	0	515	408	
2	0	0	0	0	516	407	
3	0	0	0	0	516	407	
4	0	0	0	0	516	408	
5	0	0	0	0	516	407	
6	0	0	0	0	515	407	
7	0	0	0	0	516	407	
8	0	0	0	0	515	406	
9	0	0	0	0	515	407	
10	0	0	0	0	515	407	
11	0	0	0	0	515	407	
12	0	0	0	0	514	408	
13	0	0	0	0	513	407	
14	0	0	0	0	513	408	
15	0	0	0	0	512	408	
0	0	0	0	0	512	407	
1	0	0	0	0	513	408	
2	0	0	0	0	512	407	
3	0	0	0	0	512	408	
4	0	0	0	0	512	408	
5	0	0	0	0	513	407	
6	0	0	0	0	514	407	
7	0	0	0	0	515	408	
8	0	0	0	0	516	408	
9	0	0	0	0	516	407	
10	0	0	0	0	516	408	
11	0	0	0	0	517	408	
12	0	0	0	0	517	409	
13	0	0	0	0	517	408	
14	0	0	0	0	517	408	
15	0	0	0	0	516	408	
0	0	0	0	0	517	408	
1	0	0	0	0	517	408	
2	0	0	0	0	518	409	
3	0	0	0	0	518	409	
4	0	0	0	0	518	409	
5	0	0	0	0	518	409	
6	0	0	0	0	519	408	
7	0	0	0	0	519	409	
8	0	0	0	0	518	408	
9	0	0	0	0	518	409	
10	0	0	0	0	518	409	
11	0	0	0	0	518	409	
12	0	0	0	0	517	409	
13	0	0	0	0	518	408	
14	0	0	0	0	518	409	
15	0	0	0	0	518	408	
0	0	0	0	0	518	408	
1	0	0	0	0	518	408	
2	0	0	0	0	518	409	
3	0	0	0	0	518	408	
4	0	0	0	0	517	409	
5	0	0	0	0	517	408	
6	0	0	0	0	516	408	
7	0	0	0	0	515	408	
8	0	0	0	0	515	408	
9	0	0	0	0	514	408	
10	0	0	0	0	514	408	
11	0	0	0	0	514	408	
12	0	0	0	0	515	409	
13	0	0	0	0	515	408	
14	0	0	0	0	515	408	
15	0	0	0	0	516	408	
0	0	0	0	0	515	408	
1	0	0	0	0	515	408	
2	0	0	0	0	516	408	
3	0	0	0	0	515	408	
4	0	0	0	0	516	408	
5	0	0	0	0	516	408	
6	0	0	0	0	518	408	
7	0	0	0	0	518	407	
8	0	0	0	0	517	407	
9	0	0	0	0	517	408	
10	0	0	0	0	517	408	
11	0	0	0	0	517	408	
12	0	0	0	0	517	409	
13	0	0	0	0	517	408	
14	0	0	0	0	516	408	
15	0	0	0	0	515	408	
0	0	0	0	0	515	408	
1	0	0	0	0	515	409	
2	0	0	0	0	515	408	
3	0	0	0	0	515	409	
4	0	0	0	0	516	411	
5	0	0	0	0	516	410	
6	0	0	0	0	517	409	
7	0	0	0	0	517	410	
8	0	0	0	0	517	409	
9	0	0	0	0	518	409	
10	0	0	0	0	518	409	
11	0	0	0	0	518	409	
12	0	0	0	0	518	411	
13	0	0	0	0	517	410	
14	0	0	0	0	517	410	
15	0	0	0	0	517	410	
0	0	0	0	0	517	409	
1	0	0	0	0	517	410	
2	0	0	0	0	517	409	
3	0	0	0	0	517	410	
4	0	0	0	0	517	410	
5	0	0	0	0	516	409	
6	0	0	0	0	516	409	
7	0	0	0	0	515	409	
8	0	0	0	0	515	408	
9	0	0	0	0	515	409	
10	0	0	0	0	516	409	
11	0	0	0	0	516	408	
12	0	0	0	0	515	409	
13	0	0	0	0	515	409	
14	0	0	0	0	514	408	
15	0	0	0	0	514	408	
0	0	0	0	0	514	408	
1	0	0	0	0	513	408	
2	0	0	0	0	513	408	
3	0	0	0	0	513	408	
4	0	0	0	0	513	409	
5	0	0	0	0	513	408	
6	0	0	0	0	513	408	
7	0	0	0	0	513	408	
8	0	0	0	0	513	408	
9	0	0	0	0	513	408	
10	0	0	0	0	513	408	
11	0	0	0	0	513	407	
12	0	0	0	0	513	408	
13	0	0	0	0	513	407	
14	0	0	0	0	513	407	
15	0	0	0	0	512	407	
0	0	0	0	0	512	406	
1	0	0	0	0	512	406	
2	0	0	0	0	512	406	
3	0	0	0	0	512	406	
4	0	0	0	0	511	407	
5	0	0	0	0	511	407	
6	0	0	0	0	511	406	
7	0	0	0	0	511	406	
8	0	0	0	0	510	405	
9	0	0	0	0	510	406	
10	0	0	0	0	511	406	
11	0	0	0	0	511	407	
12	0	0	0	0	511	408	
13	0	0	0	0	512	407	
14	0	0	0	0	513	406	
15	0	0	0	0	513	407	
0	0	0	0	0	512	406	
1	0	0	0	0	512	407	
2	0	0	0	0	513	407	
3	0	0	0	0	513	408	
4	0	0	0	0	513	409	
5	0	0	0	0	512	408	
6	0	0	0	0	511	408	
7	0	0	0	0	511	409	
8	0	0	0	0	509	408	
9	0	0	0	0	508	408	
10	0	0	0	0	509	409	
11	0	0	0	0	509	408	
12	0	0	0	0	508	409	
13	0	0	0	0	509	408	
14	0	0	0	0	509	408	
15	0	0	0	0	510	408	
0	0	0	0	0	511	408	
1	0	0	0	0	512	408	
2	0	0	0	0	513	409	
3	0	0	0	0	514	408	
4	0	0	0	0	514	409	
5	0	0	0	0	514	409	
6	0	0	0	0	515	409	
7	0	0	0	0	515	409	
8	0	0	0	0	515	408	
9	0	0	0	0	515	409	
10	0	0	0	0	515	408	
11	0	0	0	0	515	409	
12	0	0	0	0	515	409	
13	0	0	0	0	515	409	
14	0	0	0	0	515	409	
15	0	0	0	0	516	409	
0	0	0	0	0	517	409	
1	0	0	0	0	518	409	
2	0	0	0	0	519	409	
3	0	0	0	0	519	409	
4	0	0	0	0	520	410	
5	0	0	0	0	520	409	
6	0	0	0	0	520	409	
7	0	0	0	0	520	410	
8	0	0	0	0	521	409	
9	0	0	0	0	521	409	
10	0	0	0	0	521	409	
11	0	0	0	0	521	409	
12	0	0	0	0	521	410	
13	0	0	0	0	521	409	
14	0	0	0	0	520	410	
15	0	0	0	0	520	409	
0	0	0	0	0	520	409	
1	0	0	0	0	519	409	
2	0	0	0	0	519	409	
3	0	0	0	0	518	409	
4	0	0	0	0	518	410	
5	0	0	0	0	518	409	
6	0	0	0	0	517	409	
7	0	0	0	0	518	410	
8	0	0	0	0	518	408	
9	0	0	0	0	518	410	
10	0	0	0	0	517	409	
11	0	0	0	0	516	410	
12	0	0	0	0	516	410	
13	0	0	0	0	515	409	
14	0	0	0	0	515	409	
15	0	0	0	0	515	409	
0	0	0	0	0	513	408	
1	0	0	0	0	513	409	
2	0	0	0	0	513	409	
3	0	0	0	0	513	408	
4	0	0	0	0	513	409	
5	0	0	0	0	513	409	
6	0	0	0	0	513	409	
7	0	0	0	0	512	409	
8	0	0	0	0	512	409	
9	0	0	0	0	512	409	
10	0	0	0	0	512	409	
11	0	0	0	0	512	409	
12	0	0	0	0	511	411	
13	0	0	0	0	510	410	
14	0	0	0	0	510	409	
15	0	0	0	0	509	409	
0	0	0	0	0	509	409	
1	0	0	0	0	509	409	
2	0	0	0	0	509	409	
3	0	0	0	0	510	409	
4	0	0	0	0	510	409	
5	0	0	0	0	510	409	
6	0	0	0	0	509	409	
7	0	0	0	0	509	408	
8	0	0	0	0	509	408	
9	0	0	0	0	508	408	
10	0	0	0	0	508	409	
11	0	0	0	0	508	409	
12	0	0	0	0	508	409	
13	0	0	0	0	508	408	
14	0	0	0	0	508	408	
15	0	0	0	0	508	408	
0	0	0	0	0	507	408	
1	0	0	0	0	507	408	
2	0	0	0	0	507	408	
3	0	0	0	0	508	408	
4	0	0	0	0	508	408	
5	0	0	0	0	508	407	
6	0	0	0	0	508	407	
7	0	0	0	0	507	407	
8	0	0	0	0	505	406	
9	0	0	0	0	505	407	
10	0	0	0	0	503	407	
11	0	0	0	0	499	407	
12	0	0	0	0	496	407	
13	0	0	0	0	494	407	
14	0	0	0	0	492	407	
15	0	0	0	0	487	407	
0	0	0	0	0	484	407	
1	0	0	0	0	480	407	
2	0	0	0	0	476	407	
3	0	0	0	0	472	407	
4	0	0	0	0	469	408	
5	0	0	0	0	465	408	
6	0	0	0	0	461	408	
7	0	0	0	0	456	408	
8	0	0	0	0	453	408	
9	0	0	0	0	449	408	
10	0	0	0	0	448	409	
11	0	0	0	0	444	408	
12	0	0	0	0	441	410	
13	0	0	0	0	440	409	
14	0	0	0	0	440	408	
15	0	0	0	0	441	408	
0	0	0	0	0	444	408	
1	0	0	0	0	447	408	
2	0	0	0	0	451	408	
3	0	0	0	0	457	408	
4	0	0	0	0	465	409	
5	0	0	0	0	474	408	
6	0	0	0	0	483	408	
7	0	0	0	0	494	409	
8	0	0	0	0	504	408	
9	0	0	0	0	515	409	
10	0	0	0	0	526	409	
11	0	0	0	0	537	410	
12	0	0	0	0	548	411	
13	0	0	0	0	558	411	
14	0	0	0	0	566	410	
15	0	0	0	0	575	410	
0	0	0	0	0	584	409	
1	0	0	0	0	594	410	
2	0	0	0	0	604	410	
3	0	0	0	0	613	409	
4	0	0	0	0	623	411	
5	0	0	0	0	632	410	
6	0	0	0	0	643	410	
7	0	0	0	0	655	409	
8	0	0	0	0	667	409	
9	0	0	0	0	679	409	
10	0	0	0	0	691	409	
11	0	0	0	0	702	409	
12	0	0	0	0	708	410	
13	0	0	0	0	711	409	
14	0	0	0	0	711	409	
15	0	0	0	0	708	409	
0	0	0	0	0	701	408	
1	0	0	0	0	692	409	
2	0	0	0	0	682	408	
3	0	0	0	0	669	409	
4	0	0	0	0	656	409	
5	0	0	0	0	642	409	
6	0	0	0	0	627	409	
7	0	0	0	0	613	409	
8	0	0	0	0	598	408	
9	0	0	0	0	584	409	
10	0	0	0	0	571	409	
11	0	0	0	0	558	409	
12	0	0	0	0	547	410	
13	0	0	0	0	536	409	
14	0	0	0	0	527	409	
15	0	0	0	0	520	409	
0	0	0	0	0	513	408	
1	0	0	0	0	507	408	
2	0	0	0	0	502	408	
3	0	0	0	0	496	408	
4	0	0	0	0	492	408	
5	0	0	0	0	488	408	
6	0	0	0	0	485	407	
7	0	0	0	0	482	408	
8	0	0	0	0	480	407	
9	0	0	0	0	478	408	
10	0	0	0	0	476	407	
11	0	0	0	0	475	407	
12	0	0	0	0	474	408	
13	0	0	0	0	473	407	
14	0	0	0	0	472	407	
15	0	0	0	0	471	407	
0	0	0	0	0	470	407	
1	0	0	0	0	469	408	
2	0	0	0	0	469	407	
3	0	0	0	0	469	407	
4	0	0	0	0	468	408	
5	0	0	0	0	469	407	
6	0	0	0	0	469	408	
7	0	0	0	0	468	407	
8	0	0	0	0	468	407	
9	0	0	0	0	468	407	
10	0	0	0	0	468	408	
11	0	0	0	0	469	408	
12	0	0	0	0	469	408	
13	0	0	0	0	469	408	
14	0	0	0	0	469	408	
15	0	0	0	0	470	408	
0	0	0	0	0	470	407	
1	0	0	0	0	469	408	
2	0	0	0	0	469	408	
3	0	0	0	0	468	408	
4	0	0	0	0	467	408	
5	0	0	0	0	467	408	
6	0	0	0	0	467	408	
7	0	0	0	0	468	409	
8	0	0	0	0	468	408	
9	0	0	0	0	469	409	
10	0	0	0	0	469	409	
11	0	0	0	0	470	409	
12	0	0	0	0	471	410	
13	0	0	0	0	472	409	
14	0	0	0	0	473	409	
15	0	0	0	0	473	409	
0	0	0	0	0	474	409	
1	0	0	0	0	474	409	
2	0	0	0	0	475	409	
3	0	0	0	0	475	409	
4	0	0	0	0	475	410	
5	0	0	0	0	475	409	
6	0	0	0	0	474	409	
7	0	0	0	0	472	409	
8	0	0	0	0	472	408	
9	0	0	0	0	471	409	
10	0	0	0	0	472	409	
11	0	0	0	0	472	408	
12	0	0	0	0	472	409	
13	0	0	0	0	473	408	
14	0	0	0	0	474	408	
15	0	0	0	0	475	408	
0	0	0	0	0	475	407	
1	0	0	0	0	476	408	
2	0	0	0	0	477	408	
3	0	0	0	0	477	408	
4	0	0	0	0	478	408	
5	0	0	0	0	479	408	
6	0	0	0	0	478	408	
7	0	0	0	0	478	408	
8	0	0	0	0	479	407	
9	0	0	0	0	479	408	
10	0	0	0	0	480	408	
11	0	0	0	0	479	407	
12	0	0	0	0	479	408	
13	0	0	0	0	479	408	
14	0	0	0	0	480	408	
15	0	0	0	0	481	408	
0	0	0	0	0	482	407	
1	0	0	0	0	482	408	
2	0	0	0	0	482	408	
3	0	0	0	0	483	408	
4	0	0	0	0	483	409	
5	0	0	0	0	483	408	
6	0	0	0	0	483	408	
7	0	0	0	0	483	408	
8	0	0	0	0	483	408	
9	0	0	0	0	483	409	
10	0	0	0	0	483	408	
11	0	0	0	0	483	408	
12	0	0	0	0	483	409	
13	0	0	0	0	483	408	
14	0	0	0	0	483	409	
15	0	0	0	0	483	408	
0	0	0	0	0	483	408	
1	0	0	0	0	482	408	
2	0	0	0	0	483	408	
3	0	0	0	0	483	408	
4	0	0	0	0	484	409	
5	0	0	0	0	484	408	
6	0	0	0	0	484	408	
7	0	0	0	0	485	408	
8	0	0	0	0	484	407	
9	0	0	0	0	484	409	
10	0	0	0	0	483	408	
11	0	0	0	0	484	408	
12	0	0	0	0	484	409	
13	0	0	0	0	485	409	
14	0	0	0	0	485	409	
15	0	0	0	0	486	409	
0	0	0	0	0	486	409	
1	0	0	0	0	486	409	
2	0	0	0	0	486	409	
3	0	0	0	0	485	409	
4	0	0	0	0	485	410	
5	0	0	0	0	485	409	
6	0	0	0	0	484	409	
7	0	0	0	0	483	409	
8	0	0	0	0	483	409	
9	0	0	0	0	483	409	
10	0	0	0	0	483	409	
11	0	0	0	0	483	409	
12	0	0	0	0	484	411	
13	0	0	0	0	484	410	
14	0	0	0	0	484	410	
15	0	0	0	0	485	410	
0	0	0	0	0	485	409	
1	0	0	0	0	485	410	
2	0	0	0	0	485	410	
3	0	0	0	0	486	410	
4	0	0	0	0	486	411	
5	0	0	0	0	485	410	
6	0	0	0	0	485	410	
7	0	0	0	0	484	410	
8	0	0	0	0	484	409	
9	0	0	0	0	483	409	
10	0	0	0	0	482	409	
11	0	0	0	0	482	409	
12	0	0	0	0	481	410	
13	0	0	0	0	481	409	
14	0	0	0	0	481	409	
15	0	0	0	0	481	409	
0	0	0	0	0	481	409	
1	0	0	0	0	481	409	
2	0	0	0	0	481	409	
3	0	0	0	0	482	409	
4	0	0	0	0	482	409	
5	0	0	0	0	481	408	
6	0	0	0	0	482	408	
7	0	0	0	0	482	408	
8	0	0	0	0	482	408	
9	0	0	0	0	482	408	
10	0	0	0	0	482	408	
11	0	0	0	0	482	408	
12	0	0	0	0	483	409	
13	0	0	0	0	483	408	
14	0	0	0	0	483	408	
15	0	0	0	0	484	408	
0	0	0	0	0	485	407	
1	0	0	0	0	487	407	
2	0	0	0	0	487	408	
3	0	0	0	0	487	408	
4	0	0	0	0	488	409	
5	0	0	0	0	489	408	
6	0	0	0	0	489	408	
7	0	0	0	0	491	408	
8	0	0	0	0	491	408	
9	0	0	0	0	490	408	
10	0	0	0	0	490	408	
11	0	0	0	0	491	408	
12	0	0	0	0	490	409	
13	0	0	0	0	490	408	
14	0	0	0	0	490	408	
15	0	0	0	0	491	408	
0	0	0	0	0	492	407	
1	0	0	0	0	493	408	
2	0	0	0	0	493	408	
3	0	0	0	0	494	407	
4	0	0	0	0	495	408	
5	0	0	0	0	495	408	
6	0	0	0	0	496	408	
7	0	0	0	0	497	408	
8	0	0	0	0	498	408	
9	0	0	0	0	499	408	
10	0	0	0	0	500	408	
11	0	0	0	0	502	408	
12	0	0	0	0	503	409	
13	0	0	0	0	503	409	
14	0	0	0	0	503	408	
15	0	0	0	0	504	409	
0	0	0	0	0	504	408	
1	0	0	0	0	504	409	
2	0	0	0	0	504	408	
3	0	0	0	0	504	408	
4	0	0	0	0	505	409	
5	0	0	0	0	506	408	
6	0	0	0	0	507	409	
7	0	0	0	0	507	408	
8	0	0	0	0	507	408	
9	0	0	0	0	508	409	
10	0	0	0	0	508	409	
11	0	0	0	0	508	409	
12	0	0	0	0	509	409	
13	0	0	0	0	509	408	
14	0	0	0	0	510	409	
15	0	0	0	0	510	409	
0	0	0	0	0	510	408	
1	0	0	0	0	511	408	
2	0	0	0	0	510	408	
3	0	0	0	0	511	408	
4	0	0	0	0	511	409	
5	0	0	0	0	510	408	
6	0	0	0	0	511	408	
7	0	0	0	0	511	408	
8	0	0	0	0	511	408	
9	0	0	0	0	512	408	
10	0	0	0	0	512	408	
11	0	0	0	0	513	408	
12	0	0	0	0	513	409	
13	0	0	0	0	513	408	
14	0	0	0	0	513	408	
15	0	0	0	0	514	408	
0	0	0	0	0	515	408	
1	0	0	0	0	515	408	
2	0	0	0	0	515	408	
3	0	0	0	0	515	408	
4	0	0	0	0	515	409	
5	0	0	0	0	515	408	
6	0	0	0	0	516	408	
7	0	0	0	0	516	409	
8	0	0	0	0	516	408	
9	0	0	0	0	517	408	
10	0	0	0	0	517	408	
11	0	0	0	0	516	408	
12	0	0	0	0	516	409	
13	0	0	0	0	515	408	
14	0	0	0	0	515	409	
15	0	0	0	0	516	408	
0	0	0	0	0	517	407	
1	0	0	0	0	517	408	
2	0	0	0	0	518	408	
3	0	0	0	0	519	407	
4	0	0	0	0	519	408	
5	0	0	0	0	519	408	
6	0	0	0	0	520	407	
7	0	0	0	0	520	408	
8	0	0	0	0	520	407	
9	0	0	0	0	521	408	
10	0	0	0	0	521	407	
11	0	0	0	0	521	408	
12	0	0	0	0	521	408	
13	0	0	0	0	520	407	
14	0	0	0	0	521	407	
15	0	0	0	0	521	407	
0	0	0	0	0	521	407	
1	0	0	0	0	521	407	
2	0	0	0	0	521	407	
3	0	0	0	0	522	407	
4	0	0	0	0	521	408	
5	0	0	0	0	522	407	
6	0	0	0	0	522	408	
7	0	0	0	0	522	407	
8	0	0	0	0	522	407	
9	0	0	0	0	523	407	
10	0	0	0	0	523	407	
11	0	0	0	0	523	407	
12	0	0	0	0	523	408	
13	0	0	0	0	523	407	
14	0	0	0	0	524	407	
15	0	0	0	0	523	407	
0	0	0	0	0	523	407	
1	0	0	0	0	523	407	
2	0	0	0	0	523	408	
3	0	0	0	0	523	408	
4	0	0	0	0	523	408	
5	0	0	0	0	523	408	
6	0	0	0	0	522	408	
7	0	0	0	0	522	408	
8	0	0	0	0	521	408	
9	0	0	0	0	521	408	
10	0	0	0	0	521	408	
11	0	0	0	0	521	409	
12	0	0	0	0	522	410	
13	0	0	0	0	523	409	
14	0	0	0	0	523	409	
15	0	0	0	0	524	409	
0	0	0	0	0	523	408	
1	0	0	0	0	523	409	
2	0	0	0	0	522	409	
3	0	0	0	0	521	409	
4	0	0	0	0	521	409	
5	0	0	0	0	520	409	
6	0	0	0	0	519	409	
7	0	0	0	0	520	409	
8	0	0	0	0	521	409	
9	0	0	0	0	521	409	
10	0	0	0	0	520	409	
11	0	0	0	0	520	409	
12	0	0	0	0	519	410	
13	0	0	0	0	519	409	
14	0	0	0	0	519	409	
15	0	0	0	0	519	409	
0	0	0	0	0	519	409	
1	0	0	0	0	518	409	
2	0	0	0	0	518	409	
3	0	0	0	0	518	409	
4	0	0	0	0	519	409	
5	0	0	0	0	519	409	
6	0	0	0	0	519	409	
7	0	0	0	0	520	409	
8	0	0	0	0	519	408	
9	0	0	0	0	518	410	
10	0	0	0	0	518	409	
11	0	0	0	0	518	409	
12	0	0	0	0	518	410	
13	0	0	0	0	519	409	
14	0	0	0	0	518	408	
15	0	0	0	0	519	409	
0	0	0	0	0	519	408	
1	0	0	0	0	519	409	
2	0	0	0	0	519	409	
3	0	0	0	0	520	408	
4	0	0	0	0	520	410	
5	0	0	0	0	520	409	
6	0	0	0	0	519	409	
7	0	0	0	0	518	409	
8	0	0	0	0	517	409	
9	0	0	0	0	516	409	
10	0	0	0	0	515	409	
11	0	0	0	0	514	409	
12	0	0	0	0	513	410	
13	0	0	0	0	513	409	
14	0	0	0	0	514	409	
15	0	0	0	0	515	408	
0	0	0	0	0	515	408	
1	0	0	0	0	515	409	
2	0	0	0	0	515	408	
3	0	0	0	0	516	409	
4	0	0	0	0	516	409	
5	0	0	0	0	516	409	
6	0	0	0	0	516	408	
7	0	0	0	0	516	408	
8	0	0	0	0	516	408	
9	0	0	0	0	515	409	
10	0	0	0	0	515	408	
11	0	0	0	0	516	408	
12	0	0	0	0	515	409	
13	0	0	0	0	515	408	
14	0	0	0	0	515	408	
15	0	0	0	0	515	409	
0	0	0	0	0	515	408	
1	0	0	0	0	515	408	
2	0	0	0	0	515	408	
3	0	0	0	0	515	408	
4	0	0	0	0	515	409	
5	0	0	0	0	514	407	
6	0	0	0	0	515	408	
7	0	0	0	0	515	408	
8	0	0	0	0	515	407	
9	0	0	0	0	515	407	
10	0	0	0	0	515	407	
11	0	0	0	0	515	408	
12	0	0	0	0	516	408	
13	0	0	0	0	517	408	
14	0	0	0	0	517	408	
15	0	0	0	0	517	408	
0	0	0	0	0	516	407	
1	0	0	0	0	516	408	
2	0	0	0	0	515	408	
3	0	0	0	0	515	408	
4	0	0	0	0	515	408	
5	0	0	0	0	514	408	
6	0	0	0	0	515	408	
7	0	0	0	0	515	408	
8	0	0	0	0	515	408	
9	0	0	0	0	515	408	
10	0	0	0	0	515	408	
11	0	0	0	0	515	409	
12	0	0	0	0	515	409	
13	0	0	0	0	515	408	
14	0	0	0	0	514	408	
15	0	0	0	0	515	408	
0	0	0	0	0	514	407	
1	0	0	0	0	514	408	
2	0	0	0	0	514	408	
3	0	0	0	0	515	408	
4	0	0	0	0	515	409	
5	0	0	0	0	515	408	
6	0	0	0	0	515	408	
7	0	0	0	0	515	408	
8	0	0	0	0	515	407	
9	0	0	0	0	514	408	
10	0	0	0	0	514	408	
11	0	0	0	0	514	408	
12	0	0	0	0	515	408	
13	0	0	0	0	516	408	
14	0	0	0	0	516	408	
15	0	0	0	0	515	409	
0	0	0	0	0	515	408	
1	0	0	0	0	515	409	
2	0	0	0	0	515	408	
3	0	0	0	0	515	409	
4	0	0	0	0	515	409	
5	0	0	0	0	515	408	
6	0	0	0	0	515	408	
7	0	0	0	0	515	408	
8	0	0	0	0	515	408	
9	0	0	0	0	515	409	
10	0	0	0	0	514	409	
11	0	0	0	0	514	409	
12	0	0	0	0	514	409	
13	0	0	0	0	513	408	
14	0	0	0	0	513	409	
15	0	0	0	0	513	409	
0	0	0	0	0	514	408	
1	0	0	0	0	514	409	
2	0	0	0	0	514	408	
3	0	0	0	0	515	408	
4	0	0	0	0	515	409	
5	0	0	0	0	515	408	
6	0	0	0	0	516	408	
7	0	0	0	0	515	408	
8	0	0	0	0	516	408	
9	0	0	0	0	515	408	
10	0	0	0	0	515	408	
11	0	0	0	0	515	408	
12	0	0	0	0	514	408	
13	0	0	0	0	515	408	
14	0	0	0	0	515	407	
15	0	0	0	0	515	407	
0	0	0	0	0	515	406	
1	0	0	0	0	515	406	
2	0	0	0	0	515	407	
3	0	0	0	0	515	407	
4	0	0	0	0	514	407	
5	0	0	0	0	513	407	
6	0	0	0	0	512	407	
7	0	0	0	0	512	407	
8	0	0	0	0	512	407	
9	0	0	0	0	512	407	
10	0	0	0	0	512	406	
11	0	0	0	0	512	407	
12	0	0	0	0	512	408	
13	0	0	0	0	512	406	
14	0	0	0	0	512	407	
15	0	0	0	0	512	407	
0	0	0	0	0	512	406	
1	0	0	0	0	512	407	
2	0	0	0	0	512	407	
3	0	0	0	0	512	407	
4	0	0	0	0	512	408	
5	0	0	0	0	512	407	
6	0	0	0	0	512	407	
7	0	0	0	0	512	407	
8	0	0	0	0	512	407	
9	0	0	0	0	512	408	
10	0	0	0	0	513	408	
11	0	0	0	0	513	408	
12	0	0	0	0	513	408	
13	0	0	0	0	513	408	
14	0	0	0	0	513	408	
15	0	0	0	0	514	408	
0	0	0	0	0	514	408	
1	0	0	0	0	513	408	
2	0	0	0	0	513	408	
3	0	0	0	0	513	409	
4	0	0	0	0	514	410	
5	0	0	0	0	513	409	
6	0	0	0	0	512	409	
7	0	0	0	0	511	409	
8	0	0	0	0	511	408	
9	0	0	0	0	510	409	
10	0	0	0	0	510	409	
11	0	0	0	0	509	409	
12	0	0	0	0	508	410	
13	0	0	0	0	508	410	
14	0	0	0	0	508	409	
15	0	0	0	0	508	409	
0	0	0	0	0	506	409	
1	0	0	0	0	506	409	
2	0	0	0	0	506	410	
3	0	0	0	0	505	409	
4	0	0	0	0	505	410	
5	0	0	0	0	506	409	
6	0	0	0	0	507	410	
7	0	0	0	0	508	410	
8	0	0	0	0	509	409	
9	0	0	0	0	510	410	
10	0	0	0	0	511	409	
11	0	0	0	0	512	409	
12	0	0	0	0	512	410	
13	0	0	0	0	512	410	
14	0	0	0	0	511	410	
15	0	0	0	0	511	409	
0	0	0	0	0	511	409	
1	0	0	0	0	511	409	
2	0	0	0	0	510	409	
3	0	0	0	0	511	410	
4	0	0	0	0	510	410	
5	0	0	0	0	510	409	
6	0	0	0	0	510	410	
7	0	0	0	0	508	410	
8	0	0	0	0	509	409	
9	0	0	0	0	507	409	
10	0	0	0	0	507	409	
11	0	0	0	0	507	410	
12	0	0	0	0	507	410	
13	0	0	0	0	506	409	
14	0	0	0	0	505	409	
15	0	0	0	0	505	409	
0	0	0	0	0	505	409	
1	0	0	0	0	505	408	
2	0	0	0	0	505	408	
3	0	0	0	0	505	408	
4	0	0	0	0	505	409	
5	0	0	0	0	506	409	
6	0	0	0	0	505	408	
7	0	0	0	0	505	408	
8	0	0	0	0	505	407	
9	0	0	0	0	505	408	
10	0	0	0	0	506	408	
11	0	0	0	0	507	407	
12	0	0	0	0	507	408	
13	0	0	0	0	506	408	
14	0	0	0	0	505	407	
15	0	0	0	0	505	407	
0	0	0	0	0	504	407	
1	0	0	0	0	505	407	
2	0	0	0	0	506	407	
3	0	0	0	0	507	407	
4	0	0	0	0	507	408	
5	0	0	0	0	507	406	
6	0	0	0	0	507	407	
7	0	0	0	0	508	407	
8	0	0	0	0	509	407	
9	0	0	0	0	510	407	
10	0	0	0	0	511	406	
11	0	0	0	0	511	407	
12	0	0	0	0	512	408	
13	0	0	0	0	512	407	
14	0	0	0	0	513	407	
15	0	0	0	0	513	407	
0	0	0	0	0	514	408	
1	0	0	0	0	514	407	
2	0	0	0	0	515	408	
3	0	0	0	0	516	407	
4	0	0	0	0	516	408	
5	0	0	0	0	516	408	
6	0	0	0	0	515	407	
7	0	0	0	0	516	408	
8	0	0	0	0	515	408	
9	0	0	0	0	515	408	
10	0	0	0	0	515	409	
11	0	0	0	0	515	408	
12	0	0	0	0	513	409	
13	0	0	0	0	514	409	
14	0	0	0	0	513	409	
15	0	0	0	0	514	408	
0	0	0	0	0	514	409	
1	0	0	0	0	514	408	
2	0	0	0	0	515	408	
3	0	0	0	0	515	409	
4	0	0	0	0	515	409	
5	0	0	0	0	515	408	
6	0	0	0	0	515	408	
7	0	0	0	0	515	408	
8	0	0	0	0	514	409	
9	0	0	0	0	514	408	
10	0	0	0	0	512	408	
11	0	0	0	0	512	409	
12	0	0	0	0	510	410	
13	0	0	0	0	510	408	
14	0	0	0	0	510	409	
15	0	0	0	0	511	409	
0	0	0	0	0	510	408	
1	0	0	0	0	509	409	
2	0	0	0	0	508	409	
3	0	0	0	0	507	409	
4	0	0	0	0	506	410	
5	0	0	0	0	505	409	
6	0	0	0	0	506	409	
7	0	0	0	0	507	409	
8	0	0	0	0	508	409	
9	0	0	0	0	509	409	
10	0	0	0	0	510	409	
11	0	0	0	0	509	409	
12	0	0	0	0	510	410	
13	0	0	0	0	510	409	
14	0	0	0	0	510	409	
15	0	0	0	0	510	409	
0	0	0	0	0	510	409	
1	0	0	0	0	510	410	
2	0	0	0	0	510	410	
3	0	0	0	0	510	409	
4	0	0	0	0	509	409	
5	0	0	0	0	509	409	
6	0	0	0	0	508	409	
7	0	0	0	0	508	408	
8	0	0	0	0	508	408	
9	0	0	0	0	507	409	
10	0	0	0	0	508	408	
11	0	0	0	0	507	408	
12	0	0	0	0	507	409	
13	0	0	0	0	508	408	
14	0	0	0	0	507	408	
15	0	0	0	0	507	408	
0	0	0	0	0	506	408	
1	0	0	0	0	505	407	
2	0	0	0	0	504	407	
3	0	0	0	0	504	407	
4	0	0	0	0	503	408	
5	0	0	0	0	503	407	
6	0	0	0	0	503	407	
7	0	0	0	0	504	407	
8	0	0	0	0	505	407	
9	0	0	0	0	506	407	
10	0	0	0	0	507	407	
11	0	0	0	0	507	407	
12	0	0	0	0	507	408	
13	0	0	0	0	507	407	
14	0	0	0	0	506	408	
15	0	0	0	0	504	408	
0	0	0	0	0	502	407	
1	0	0	0	0	499	408	
2	0	0	0	0	496	408	
3	0	0	0	0	493	408	
4	0	0	0	0	488	408	
5	0	0	0	0	484	408	
6	0	0	0	0	480	408	
7	0	0	0	0	475	408	
8	0	0	0	0	471	408	
9	0	0	0	0	466	407	
10	0	0	0	0	462	408	
11	0	0	0	0	456	409	
12	0	0	0	0	451	409	
13	0	0	0	0	447	408	
14	0	0	0	0	444	408	
15	0	0	0	0	440	408	
0	0	0	0	0	437	408	
1	0	0	0	0	433	408	
2	0	0	0	0	431	409	
3	0	0	0	0	429	409	
4	0	0	0	0	430	409	
5	0	0	0	0	432	408	
6	0	0	0	0	435	409	
7	0	0	0	0	440	408	
8	0	0	0	0	446	408	
9	0	0	0	0	454	408	
10	0	0	0	0	463	408	
11	0	0	0	0	473	409	
12	0	0	0	0	482	409	
13	0	0	0	0	493	408	
14	0	0	0	0	504	408	
15	0	0	0	0	516	407	
0	0	0	0	0	529	407	
1	0	0	0	0	542	408	
2	0	0	0	0	553	408	
3	0	0	0	0	563	408	
4	0	0	0	0	573	408	
5	0	0	0	0	580	407	
6	0	0	0	0	588	407	
7	0	0	0	0	597	408	
8	0	0	0	0	606	407	
9	0	0	0	0	614	408	
10	0	0	0	0	623	408	
11	0	0	0	0	632	408	
12	0	0	0	0	640	408	
13	0	0	0	0	650	408	
14	0	0	0	0	661	408	
15	0	0	0	0	671	409	
0	0	0	0	0	680	408	
1	0	0	0	0	686	408	
2	0	0	0	0	689	409	
3	0	0	0	0	689	408	
4	0	0	0	0	687	409	
5	0	0	0	0	684	409	
6	0	0	0	0	677	408	
7	0	0	0	0	668	408	
8	0	0	0	0	659	408	
9	0	0	0	0	648	408	
10	0	0	0	0	638	410	
11	0	0	0	0	627	409	
12	0	0	0	0	615	409	
13	0	0	0	0	604	409	
14	0	0	0	0	591	409	
15	0	0	0	0	579	409	
0	0	0	0	0	568	409	
1	0	0	0	0	557	409	
2	0	0	0	0	547	409	
3	0	0	0	0	539	409	
4	0	0	0	0	530	410	
5	0	0	0	0	523	409	
6	0	0	0	0	516	409	
7	0	0	0	0	509	409	
8	0	0	0	0	504	409	
9	0	0	0	0	499	409	
10	0	0	0	0	494	409	
11	0	0	0	0	490	409	
12	0	0	0	0	487	409	
13	0	0	0	0	484	408	
14	0	0	0	0	481	408	
15	0	0	0	0	480	408	
0	0	0	0	0	478	408	
1	0	0	0	0	476	408	
2	0	0	0	0	475	408	
3	0	0	0	0	475	408	
4	0	0	0	0	475	408	
5	0	0	0	0	475	408	
6	0	0	0	0	475	408	
7	0	0	0	0	475	408	
8	0	0	0	0	473	408	
9	0	0	0	0	472	408	
10	0	0	0	0	472	408	
11	0	0	0	0	472	408	
12	0	0	0	0	471	408	
13	0	0	0	0	471	408	
14	0	0	0	0	472	407	
15	0	0	0	0	472	408	
0	0	0	0	0	471	408	
1	0	0	0	0	472	408	
2	0	0	0	0	472	408	
3	0	0	0	0	472	408	
4	0	0	0	0	472	409	
5	0	0	0	0	474	408	
6	0	0	0	0	474	408	
7	0	0	0	0	475	408	
8	0	0	0	0	476	408	
9	0	0	0	0	475	408	
10	0	0	0	0	475	408	
11	0	0	0	0	475	408	
12	0	0	0	0	476	409	
13	0	0	0	0	476	408	
14	0	0	0	0	476	409	
15	0	0	0	0	474	408	
0	0	0	0	0	473	408	
1	0	0	0	0	472	408	
2	0	0	0	0	472	408	
3	0	0	0	0	472	409	
4	0	0	0	0	471	409	
5	0	0	0	0	471	409	
6	0	0	0	0	472	409	
7	0	0	0	0	472	409	
8	0	0	0	0	473	408	
9	0	0	0	0	474	408	
10	0	0	0	0	474	408	
11	0	0	0	0	474	408	
12	0	0	0	0	475	409	
13	0	0	0	0	476	408	
14	0	0	0	0	476	409	
15	0	0	0	0	477	408	
0	0	0	0	0	478	408	
1	0	0	0	0	478	409	
2	0	0	0	0	478	409	
3	0	0	0	0	479	409	
4	0	0	0	0	478	410	
5	0	0	0	0	477	409	
6	0	0	0	0	477	409	
7	0	0	0	0	478	410	
8	0	0	0	0	477	409	
9	0	0	0	0	476	409	
10	0	0	0	0	476	410	
11	0	0	0	0	477	411	
12	0	0	0	0	478	411	
13	0	0	0	0	479	410	
14	0	0	0	0	479	410	
15	0	0	0	0	480	410	
0	0	0	0	0	481	409	
1	0	0	0	0	481	410	
2	0	0	0	0	481	410	
3	0	0	0	0	482	409	
4	0	0	0	0	482	410	
5	0	0	0	0	483	409	
6	0	0	0	0	483	410	
7	0	0	0	0	483	409	
8	0	0	0	0	483	408	
9	0	0	0	0	483	408	
10	0	0	0	0	484	408	
11	0	0	0	0	485	408	
12	0	0	0	0	485	409	
13	0	0	0	0	486	408	
14	0	0	0	0	485	407	
15	0	0	0	0	486	407	
0	0	0	0	0	486	407	
1	0	0	0	0	486	407	
2	0	0	0	0	486	408	
3	0	0	0	0	487	407	
4	0	0	0	0	487	408	
5	0	0	0	0	487	407	
6	0	0	0	0	487	407	
7	0	0	0	0	486	407	
8	0	0	0	0	486	407	
9	0	0	0	0	486	407	
10	0	0	0	0	486	408	
11	0	0	0	0	485	408	
12	0	0	0	0	484	408	
13	0	0	0	0	483	407	
14	0	0	0	0	483	407	
15	0	0	0	0	484	408	
0	0	0	0	0	485	407	
1	0	0	0	0	484	407	
2	0	0	0	0	484	407	
3	0	0	0	0	485	408	
4	0	0	0	0	487	408	
5	0	0	0	0	487	408	
6	0	0	0	0	486	408	
7	0	0	0	0	486	408	
8	0	0	0	0	485	408	
9	0	0	0	0	486	409	
10	0	0	0	0	485	408	
11	0	0	0	0	484	409	
12	0	0	0	0	484	409	
13	0	0	0	0	483	409	
14	0	0	0	0	483	409	
15	0	0	0	0	484	409	
0	0	0	0	0	484	408	
1	0	0	0	0	485	409	
2	0	0	0	0	486	409	
3	0	0	0	0	487	409	
4	0	0	0	0	488	410	
5	0	0	0	0	489	408	
6	0	0	0	0	490	408	
7	0	0	0	0	490	408	
8	0	0	0	0	491	408	
9	0	0	0	0	492	408	
10	0	0	0	0	491	408	
11	0	0	0	0	491	408	
12	0	0	0	0	490	409	
13	0	0	0	0	489	408	
14	0	0	0	0	489	408	
15	0	0	0	0	488	408	
0	0	0	0	0	487	408	
1	0	0	0	0	487	409	
2	0	0	0	0	486	408	
3	0	0	0	0	486	408	
4	0	0	0	0	487	409	
5	0	0	0	0	487	408	
6	0	0	0	0	487	408	
7	0	0	0	0	486	408	
8	0	0	0	0	487	408	
9	0	0	0	0	488	408	
10	0	0	0	0	488	408	
11	0	0	0	0	489	408	
12	0	0	0	0	489	408	
13	0	0	0	0	489	408	
14	0	0	0	0	490	408	
15	0	0	0	0	490	408	
0	0	0	0	0	491	408	
1	0	0	0	0	491	408	
2	0	0	0	0	491	408	
3	0	0	0	0	491	408	
4	0	0	0	0	492	408	
5	0	0	0	0	492	408	
6	0	0	0	0	492	408	
7	0	0	0	0	492	407	
8	0	0	0	0	492	407	
9	0	0	0	0	493	408	
10	0	0	0	0	493	408	
11	0	0	0	0	493	408	
12	0	0	0	0	494	408	
13	0	0	0	0	495	408	
14	0	0	0	0	496	407	
15	0	0	0	0	496	408	
0	0	0	0	0	496	407	
1	0	0	0	0	496	408	
2	0	0	0	0	496	408	
3	0	0	0	0	497	407	
4	0	0	0	0	497	408	
5	0	0	0	0	497	407	
6	0	0	0	0	497	407	
7	0	0	0	0	497	407	
8	0	0	0	0	498	407	
9	0	0	0	0	499	407	
10	0	0	0	0	500	408	
11	0	0	0	0	500	407	
12	0	0	0	0	501	408	
13	0	0	0	0	501	407	
14	0	0	0	0	501	408	
15	0	0	0	0	502	408	
0	0	0	0	0	503	407	
1	0	0	0	0	503	407	
2	0	0	0	0	504	408	
3	0	0	0	0	504	408	
4	0	0	0	0	504	408	
5	0	0	0	0	504	407	
6	0	0	0	0	505	408	
7	0	0	0	0	505	407	
8	0	0	0	0	506	407	
9	0	0	0	0	507	408	
10	0	0	0	0	507	408	
11	0	0	0	0	507	408	
12	0	0	0	0	508	408	
13	0	0	0	0	508	408	
14	0	0	0	0	509	408	
15	0	0	0	0	509	408	
0	0	0	0	0	510	408	
1	0	0	0	0	510	408	
2	0	0	0	0	510	408	
3	0	0	0	0	511	408	
4	0	0	0	0	512	409	
5	0	0	0	0	512	409	
6	0	0	0	0	512	409	
7	0	0	0	0	512	408	
8	0	0	0	0	512	408	
9	0	0	0	0	512	409	
10	0	0	0	0	512	408	
11	0	0	0	0	512	408	
12	0	0	0	0	512	409	
13	0	0	0	0	512	409	
14	0	0	0	0	511	408	
15	0	0	0	0	511	409	
0	0	0	0	0	510	408	
1	0	0	0	0	510	408	
2	0	0	0	0	510	409	
3	0	0	0	0	511	409	
4	0	0	0	0	512	409	
5	0	0	0	0	512	409	
6	0	0	0	0	514	409	
7	0	0	0	0	515	409	
8	0	0	0	0	515	409	
9	0	0	0	0	518	409	
10	0	0	0	0	519	409	
11	0	0	0	0	519	409	
12	0	0	0	0	519	410	
13	0	0	0	0	519	409	
14	0	0	0	0	519	409	
15	0	0	0	0	517	409	
0	0	0	0	0	516	408	
1	0	0	0	0	515	409	
2	0	0	0	0	515	409	
3	0	0	0	0	517	409	
4	0	0	0	0	517	410	
5	0	0	0	0	518	409	
6	0	0	0	0	516	409	
7	0	0	0	0	515	409	
8	0	0	0	0	515	409	
9	0	0	0	0	515	409	
10	0	0	0	0	516	409	
11	0	0	0	0	516	409	
12	0	0	0	0	517	409	
13	0	0	0	0	518	409	
14	0	0	0	0	518	409	
15	0	0	0	0	518	408	
0	0	0	0	0	518	409	
1	0	0	0	0	518	409	
2	0	0	0	0	519	409	
3	0	0	0	0	518	408	
4	0	0	0	0	518	409	
5	0	0	0	0	518	409	
6	0	0	0	0	518	408	
7	0	0	0	0	518	408	
8	0	0	0	0	519	408	
9	0	0	0	0	519	408	
10	0	0	0	0	519	407	
11	0	0	0	0	519	408	
12	0	0	0	0	519	408	
13	0	0	0	0	520	408	
14	0	0	0	0	519	408	
15	0	0	0	0	520	408	
0	0	0	0	0	520	407	
1	0	0	0	0	520	407	
2	0	0	0	0	520	407	
3	0	0	0	0	520	407	
4	0	0	0	0	520	408	
5	0	0	0	0	520	407	
6	0	0	0	0	521	407	
7	0	0	0	0	521	407	
8	0	0	0	0	520	407	
9	0	0	0	0	520	408	
10	0	0	0	0	519	407	
11	0	0	0	0	519	408	
12	0	0	0	0	519	408	
13	0	0	0	0	518	407	
14	0	0	0	0	516	408	
15	0	0	0	0	515	407	
0	0	0	0	0	515	407	
1	0	0	0	0	514	407	
2	0	0	0	0	514	407	
3	0	0	0	0	515	407	
4	0	0	0	0	516	408	
5	0	0	0	0	516	408	
6	0	0	0	0	517	408	
7	0	0	0	0	517	408	
8	0	0	0	0	517	408	
9	0	0	0	0	517	408	
10	0	0	0	0	518	408	
11	0	0	0	0	517	408	
12	0	0	0	0	517	408	
13	0	0	0	0	517	408	
14	0	0	0	0	516	408	
15	0	0	0	0	516	409	
0	0	0	0	0	516	408	
1	0	0	0	0	516	409	
2	0	0	0	0	515	409	
3	0	0	0	0	515	409	
4	0	0	0	0	514	410	
5	0	0	0	0	513	409	
6	0	0	0	0	513	408	
7	0	0	0	0	513	409	
8	0	0	0	0	513	408	
9	0	0	0	0	513	409	
10	0	0	0	0	513	409	
11	0	0	0	0	514	409	
12	0	0	0	0	514	410	
13	0	0	0	0	514	409	
14	0	0	0	0	515	409	
15	0	0	0	0	515	409	
0	0	0	0	0	517	408	
1	0	0	0	0	518	408	
2	0	0	0	0	518	409	
3	0	0	0	0	517	409	
4	0	0	0	0	516	410	
5	0	0	0	0	516	408	
6	0	0	0	0	516	408	
7	0	0	0	0	516	409	
8	0	0	0	0	516	409	
9	0	0	0	0	517	409	
10	0	0	0	0	517	409	
11	0	0	0	0	516	409	
12	0	0	0	0	517	410	
13	0	0	0	0	518	409	
14	0	0	0	0	519	409	
15	0	0	0	0	519	408	
0	0	0	0	0	519	409	
1	0	0	0	0	519	409	
2	0	0	0	0	519	409	
3	0	0	0	0	519	409	
4	0	0	0	0	519	410	
5	0	0	0	0	519	409	
6	0	0	0	0	519	409	
7	0	0	0	0	518	409	
8	0	0	0	0	517	409	
9	0	0	0	0	517	408	
10	0	0	0	0	517	409	
11	0	0	0	0	516	408	
12	0	0	0	0	516	409	
13	0	0	0	0	516	408	
14	0	0	0	0	517	408	
15	0	0	0	0	517	408	
0	0	0	0	0	516	407	
1	0	0	0	0	517	408	
2	0	0	0	0	518	408	
3	0	0	0	0	519	408	
4	0	0	0	0	519	409	
5	0	0	0	0	519	408	
6	0	0	0	0	520	408	
7	0	0	0	0	519	408	
8	0	0	0	0	519	407	
9	0	0	0	0	519	407	
10	0	0	0	0	518	408	
11	0	0	0	0	517	408	
12	0	0	0	0	516	408	
13	0	0	0	0	515	407	
14	0	0	0	0	514	408	
15	0	0	0	0	513	407	
0	0	0	0	0	512	407	
1	0	0	0	0	512	407	
2	0	0	0	0	513	407	
3	0	0	0	0	514	407	
4	0	0	0	0	514	408	
5	0	0	0	0	515	407	
6	0	0	0	0	517	407	
7	0	0	0	0	517	408	
8	0	0	0	0	518	407	
9	0	0	0	0	518	408	
10	0	0	0	0	518	408	
11	0	0	0	0	517	408	
12	0	0	0	0	517	408	
13	0	0	0	0	517	408	
14	0	0	0	0	516	408	
15	0	0	0	0	516	408	
0	0	0	0	0	516	408	
1	0	0	0	0	515	408	
2	0	0	0	0	515	408	
3	0	0	0	0	515	408	
4	0	0	0	0	515	408	
5	0	0	0	0	514	409	
6	0	0	0	0	514	409	
7	0	0	0	0	514	408	
8	0	0	0	0	514	409	
9	0	0	0	0	515	408	
10	0	0	0	0	516	409	
11	0	0	0	0	516	409	
12	0	0	0	0	516	409	
13	0	0	0	0	516	409	
14	0	0	0	0	517	408	
15	0	0	0	0	517	409	
0	0	0	0	0	516	408	
1	0	0	0	0	516	409	
2	0	0	0	0	517	409	
3	0	0	0	0	518	410	
4	0	0	0	0	518	410	
5	0	0	0	0	518	409	
6	0	0	0	0	518	409	
7	0	0	0	0	519	409	
8	0	0	0	0	519	409	
9	0	0	0	0	518	409	
10	0	0	0	0	517	409	
11	0	0	0	0	517	410	
12	0	0	0	0	517	411	
13	0	0	0	0	516	410	
14	0	0	0	0	516	409	
15	0	0	0	0	516	409	
0	0	0	0	0	517	409	
1	0	0	0	0	517	409	
2	0	0	0	0	516	409	
3	0	0	0	0	516	409	
4	0	0	0	0	516	409	
5	0	0	0	0	516	409	
6	0	0	0	0	516	409	
7	0	0	0	0	516	408	
8	0	0	0	0	517	408	
9	0	0	0	0	516	408	
10	0	0	0	0	515	408	
11	0	0	0	0	515	408	
12	0	0	0	0	515	409	
13	0	0	0	0	514	408	
14	0	0	0	0	515	408	
15	0	0	0	0	514	409	
0	0	0	0	0	515	407	
1	0	0	0	0	515	408	
2	0	0	0	0	515	408	
3	0	0	0	0	515	408	
4	0	0	0	0	516	408	
5	0	0	0	0	516	407	
6	0	0	0	0	516	408	
7	0	0	0	0	516	408	
8	0	0	0	0	517	407	
9	0	0	0	0	517	407	
10	0	0	0	0	517	407	
11	0	0	0	0	518	407	
12	0	0	0	0	518	408	
13	0	0	0	0	518	408	
14	0	0	0	0	518	408	
15	0	0	0	0	517	408	
0	0	0	0	0	517	407	
1	0	0	0	0	517	408	
2	0	0	0	0	517	408	
3	0	0	0	0	517	408	
4	0	0	0	0	517	408	
5	0	0	0	0	516	408	
6	0	0	0	0	516	408	
7	0	0	0	0	516	408	
8	0	0	0	0	517	408	
9	0	0	0	0	517	408	
10	0	0	0	0	517	408	
11	0	0	0	0	518	408	
12	0	0	0	0	518	408	
13	0	0	0	0	518	407	
14	0	0	0	0	518	408	
15	0	0	0	0	518	407	
0	0	0	0	0	518	407	
1	0	0	0	0	518	408	
2	0	0	0	0	518	407	
3	0	0	0	0	517	407	
4	0	0	0	0	518	408	
5	0	0	0	0	518	408	
6	0	0	0	0	517	408	
7	0	0	0	0	516	408	
8	0	0	0	0	516	408	
9	0	0	0	0	517	408	
10	0	0	0	0	517	408	
11	0	0	0	0	517	408	
12	0	0	0	0	516	409	
13	0	0	0	0	516	408	
14	0	0	0	0	516	408	
15	0	0	0	0	515	408	
0	0	0	0	0	512	408	
1	0	0	0	0	512	409	
2	0	0	0	0	512	409	
3	0	0	0	0	511	409	
4	0	0	0	0	511	410	
5	0	0	0	0	510	409	
6	0	0	0	0	511	409	
7	0	0	0	0	510	409	
8	0	0	0	0	511	408	
9	0	0	0	0	512	409	
10	0	0	0	0	512	409	
11	0	0	0	0	512	409	
12	0	0	0	0	511	410	
13	0	0	0	0	511	409	
14	0	0	0	0	511	409	
15	0	0	0	0	512	409	
0	0	0	0	0	513	409	
1	0	0	0	0	513	410	
2	0	0	0	0	514	409	
3	0	0	0	0	514	410	
4	0	0	0	0	514	410	
5	0	0	0	0	515	410	
6	0	0	0	0	515	409	
7	0	0	0	0	515	409	
8	0	0	0	0	515	408	
9	0	0	0	0	513	408	
10	0	0	0	0	513	409	
11	0	0	0	0	512	409	
12	0	0	0	0	512	410	
13	0	0	0	0	511	409	
14	0	0	0	0	511	408	
15	0	0	0	0	511	409	
0	0	0	0	0	511	409	
1	0	0	0	0	512	408	
2	0	0	0	0	513	408	
3	0	0	0	0	514	408	
4	0	0	0	0	515	409	
5	0	0	0	0	516	409	
6	0	0	0	0	516	408	
7	0	0	0	0	516	408	
8	0	0	0	0	516	407	
9	0	0	0	0	515	408	
10	0	0	0	0	514	408	
11	0	0	0	0	514	408	
12	0	0	0	0	515	409	
13	0	0	0	0	515	409	
14	0	0	0	0	514	409	
15	0	0	0	0	514	409	
0	0	0	0	0	514	408	
1	0	0	0	0	515	408	
2	0	0	0	0	515	409	
3	0	0	0	0	516	409	
4	0	0	0	0	518	410	
5	0	0	0	0	519	409	
6	0	0	0	0	520	409	
7	0	0	0	0	521	409	
8	0	0	0	0	522	408	
9	0	0	0	0	523	408	
10	0	0	0	0	523	408	
11	0	0	0	0	523	408	
12	0	0	0	0	523	409	
13	0	0	0	0	524	409	
14	0	0	0	0	525	408	
15	0	0	0	0	525	408	
0	0	0	0	0	524	409	
1	0	0	0	0	525	408	
2	0	0	0	0	524	409	
3	0	0	0	0	524	409	
4	0	0	0	0	524	410	
5	0	0	0	0	523	409	
6	0	0	0	0	523	408	
7	0	0	0	0	523	409	
8	0	0	0	0	521	408	
9	0	0	0	0	521	408	
10	0	0	0	0	521	408	
11	0	0	0	0	520	408	
12	0	0	0	0	519	409	
13	0	0	0	0	519	409	
14	0	0	0	0	518	408	
15	0	0	0	0	518	408	
0	0	0	0	0	516	408	
1	0	0	0	0	515	409	
2	0	0	0	0	515	408	
3	0	0	0	0	514	409	
4	0	0	0	0	514	410	
5	0	0	0	0	513	408	
6	0	0	0	0	513	409	
7	0	0	0	0	513	409	
8	0	0	0	0	513	409	
9	0	0	0	0	513	409	
10	0	0	0	0	513	409	
11	0	0	0	0	514	409	
12	0	0	0	0	515	409	
13	0	0	0	0	515	409	
14	0	0	0	0	515	409	
15	0	0	0	0	514	408	
0	0	0	0	0	514	409	
1	0	0	0	0	514	409	
2	0	0	0	0	514	408	
3	0	0	0	0	514	408	
4	0	0	0	0	515	408	
5	0	0	0	0	514	408	
6	0	0	0	0	515	408	
7	0	0	0	0	515	408	
8	0	0	0	0	515	407	
9	0	0	0	0	515	408	
10	0	0	0	0	515	408	
11	0	0	0	0	515	407	
12	0	0	0	0	515	407	
13	0	0	0	0	515	406	
14	0	0	0	0	515	407	
15	0	0	0	0	515	407	
0	0	0	0	0	515	407	
1	0	0	0	0	514	407	
2	0	0	0	0	514	407	
3	0	0	0	0	513	407	
4	0	0	0	0	513	408	
5	0	0	0	0	511	407	
6	0	0	0	0	512	407	
7	0	0	0	0	512	407	
8	0	0	0	0	512	407	
9	0	0	0	0	512	407	
10	0	0	0	0	510	408	
11	0	0	0	0	509	408	
12	0	0	0	0	508	408	
13	0	0	0	0	507	407	
14	0	0	0	0	505	407	
15	0	0	0	0	504	407	
0	0	0	0	0	501	407	
1	0	0	0	0	498	407	
2	0	0	0	0	495	407	
3	0	0	0	0	491	408	
4	0	0	0	0	487	408	
5	0	0	0	0	482	407	
6	0	0	0	0	477	408	
7	0	0	0	0	473	408	
8	0	0	0	0	470	407	
9	0	0	0	0	467	407	
10	0	0	0	0	464	408	
11	0	0	0	0	460	407	
12	0	0	0	0	455	408	
13	0	0	0	0	451	407	
14	0	0	0	0	447	408	
15	0	0	0	0	442	407	
0	0	0	0	0	438	408	
1	0	0	0	0	434	408	
2	0	0	0	0	432	408	
3	0	0	0	0	432	408	
4	0	0	0	0	435	408	
5	0	0	0	0	438	408	
6	0	0	0	0	441	408	
7	0	0	0	0	447	408	
8	0	0	0	0	454	408	
9	0	0	0	0	463	407	
10	0	0	0	0	473	408	
11	0	0	0	0	483	408	
12	0	0	0	0	494	408	
13	0	0	0	0	505	408	
14	0	0	0	0	519	408	
15	0	0	0	0	531	409	
0	0	0	0	0	543	409	
1	0	0	0	0	555	409	
2	0	0	0	0	567	408	
3	0	0	0	0	578	408	
4	0	0	0	0	587	408	
5	0	0	0	0	595	408	
6	0	0	0	0	603	408	
7	0	0	0	0	609	408	
8	0	0	0	0	615	408	
9	0	0	0	0	620	408	
10	0	0	0	0	627	408	
11	0	0	0	0	635	408	
12	0	0	0	0	645	409	
13	0	0	0	0	656	408	
14	0	0	0	0	666	408	
15	0	0	0	0	677	408	
0	0	0	0	0	686	407	
1	0	0	0	0	691	408	
2	0	0	0	0	694	407	
3	0	0	0	0	692	408	
4	0	0	0	0	690	408	
5	0	0	0	0	684	407	
6	0	0	0	0	676	407	
7	0	0	0	0	668	408	
8	0	0	0	0	659	408	
9	0	0	0	0	649	408	
10	0	0	0	0	639	408	
11	0	0	0	0	628	408	
12	0	0	0	0	615	409	
13	0	0	0	0	603	408	
14	0	0	0	0	590	408	
15	0	0	0	0	577	408	
0	0	0	0	0	566	408	
1	0	0	0	0	555	408	
2	0	0	0	0	544	408	
3	0	0	0	0	535	408	
4	0	0	0	0	527	409	
5	0	0	0	0	519	408	
6	0	0	0	0	513	408	
7	0	0	0	0	507	408	
8	0	0	0	0	502	408	
9	0	0	0	0	496	408	
10	0	0	0	0	492	408	
11	0	0	0	0	487	409	
12	0	0	0	0	483	409	
13	0	0	0	0	480	408	
14	0	0	0	0	478	408	
15	0	0	0	0	476	408	
0	0	0	0	0	475	408	
1	0	0	0	0	475	408	
2	0	0	0	0	475	409	
3	0	0	0	0	475	409	
4	0	0	0	0	475	410	
5	0	0	0	0	475	409	
6	0	0	0	0	475	408	
7	0	0	0	0	475	409	
8	0	0	0	0	475	410	
9	0	0	0	0	475	409	
10	0	0	0	0	474	409	
11	0	0	0	0	473	409	
12	0	0	0	0	472	410	
13	0	0	0	0	471	409	
14	0	0	0	0	470	409	
15	0	0	0	0	469	409	
0	0	0	0	0	469	409	
1	0	0	0	0	469	409	
2	0	0	0	0	467	410	
3	0	0	0	0	467	409	
4	0	0	0	0	468	410	
5	0	0	0	0	468	410	
6	0	0	0	0	468	409	
7	0	0	0	0	470	409	
8	0	0	0	0	471	408	
9	0	0	0	0	472	410	
10	0	0	0	0	473	409	
11	0	0	0	0	473	409	
12	0	0	0	0	475	410	
13	0	0	0	0	475	409	
14	0	0	0	0	475	408	
15	0	0	0	0	475	409	
0	0	0	0	0	475	408	
1	0	0	0	0	475	409	
2	0	0	0	0	475	409	
3	0	0	0	0	475	408	
4	0	0	0	0	475	409	
5	0	0	0	0	475	409	
6	0	0	0	0	475	409	
7	0	0	0	0	475	409	
8	0	0	0	0	476	408	
9	0	0	0	0	475	409	
10	0	0	0	0	474	408	
11	0	0	0	0	475	409	
12	0	0	0	0	474	409	
13	0	0	0	0	475	408	
14	0	0	0	0	475	408	
15	0	0	0	0	475	408	
0	0	0	0	0	477	409	
1	0	0	0	0	478	408	
2	0	0	0	0	479	408	
3	0	0	0	0	479	408	
4	0	0	0	0	479	408	
5	0	0	0	0	479	408	
6	0	0	0	0	479	408	
7	0	0	0	0	478	408	
8	0	0	0	0	480	407	
9	0	0	0	0	480	408	
10	0	0	0	0	480	408	
11	0	0	0	0	480	408	
12	0	0	0	0	481	409	
13	0	0	0	0	481	408	
14	0	0	0	0	480	408	
15	0	0	0	0	480	408	
0	0	0	0	0	481	408	
1	0	0	0	0	481	408	
2	0	0	0	0	482	408	
3	0	0	0	0	482	408	
4	0	0	0	0	482	409	
5	0	0	0	0	482	408	
6	0	0	0	0	482	408	
7	0	0	0	0	482	408	
8	0	0	0	0	481	408	
9	0	0	0	0	482	408	
10	0	0	0	0	483	409	
11	0	0	0	0	483	408	
12	0	0	0	0	483	409	
13	0	0	0	0	485	408	
14	0	0	0	0	486	408	
15	0	0	0	0	486	408	
0	0	0	0	0	487	408	
1	0	0	0	0	487	408	
2	0	0	0	0	488	408	
3	0	0	0	0	488	408	
4	0	0	0	0	488	409	
5	0	0	0	0	488	408	
6	0	0	0	0	488	408	
7	0	0	0	0	488	408	
8	0	0	0	0	488	409	
9	0	0	0	0	487	409	
10	0	0	0	0	487	409	
11	0	0	0	0	487	409	
12	0	0	0	0	487	410	
13	0	0	0	0	487	409	
14	0	0	0	0	487	409	
15	0	0	0	0	487	409	
0	0	0	0	0	488	409	
1	0	0	0	0	489	409	
2	0	0	0	0	488	409	
3	0	0	0	0	487	410	
4	0	0	0	0	487	411	
5	0	0	0	0	487	409	
6	0	0	0	0	487	410	
7	0	0	0	0	487	410	
8	0	0	0	0	487	409	
9	0	0	0	0	487	410	
10	0	0	0	0	487	410	
11	0	0	0	0	487	410	
12	0	0	0	0	487	411	
13	0	0	0	0	488	409	
14	0	0	0	0	487	410	
15	0	0	0	0	487	410	
0	0	0	0	0	487	409	
1	0	0	0	0	487	410	
2	0	0	0	0	487	410	
3	0	0	0	0	487	409	
4	0	0	0	0	487	411	
5	0	0	0	0	487	409	
6	0	0	0	0	487	409	
7	0	0	0	0	487	408	
8	0	0	0	0	487	408	
9	0	0	0	0	488	408	
10	0	0	0	0	488	408	
11	0	0	0	0	489	408	
12	0	0	0	0	488	409	
13	0	0	0	0	488	408	
14	0	0	0	0	487	408	
15	0	0	0	0	487	408	
0	0	0	0	0	487	408	
1	0	0	0	0	487	408	
2	0	0	0	0	489	407	
3	0	0	0	0	489	407	
4	0	0	0	0	489	408	
5	0	0	0	0	489	408	
6	0	0	0	0	488	407	
7	0	0	0	0	487	407	
8	0	0	0	0	486	406	
9	0	0	0	0	485	407	
10	0	0	0	0	485	408	
11	0	0	0	0	485	408	
12	0	0	0	0	484	408	
13	0	0	0	0	484	407	
14	0	0	0	0	485	407	
15	0	0	0	0	486	407	
0	0	0	0	0	486	407	
1	0	0	0	0	487	407	
2	0	0	0	0	487	407	
3	0	0	0	0	489	407	
4	0	0	0	0	490	408	
5	0	0	0	0	492	407	
6	0	0	0	0	493	407	
7	0	0	0	0	494	407	
8	0	0	0	0	494	408	
9	0	0	0	0	494	408	
10	0	0	0	0	494	408	
11	0	0	0	0	494	408	
12	0	0	0	0	493	409	
13	0	0	0	0	492	407	
14	0	0	0	0	492	408	
15	0	0	0	0	492	408	
0	0	0	0	0	491	407	
1	0	0	0	0	491	408	
2	0	0	0	0	492	408	
3	0	0	0	0	492	408	
4	0	0	0	0	493	409	
5	0	0	0	0	495	409	
6	0	0	0	0	496	409	
7	0	0	0	0	496	409	
8	0	0	0	0	497	408	
9	0	0	0	0	498	408	
10	0	0	0	0	499	409	
11	0	0	0	0	500	409	
12	0	0	0	0	500	409	
13	0	0	0	0	500	409	
14	0	0	0	0	501	409	
15	0	0	0	0	501	409	
0	0	0	0	0	502	408	
1	0	0	0	0	502	408	
2	0	0	0	0	503	409	
3	0	0	0	0	502	408	
4	0	0	0	0	502	410	
5	0	0	0	0	502	410	
6	0	0	0	0	503	409	
7	0	0	0	0	503	409	
8	0	0	0	0	503	408	
9	0	0	0	0	503	409	
10	0	0	0	0	503	408	
11	0	0	0	0	503	409	
12	0	0	0	0	503	410	
13	0	0	0	0	503	409	
14	0	0	0	0	503	409	
15	0	0	0	0	504	408	
0	0	0	0	0	505	409	
1	0	0	0	0	506	408	
2	0	0	0	0	507	408	
3	0	0	0	0	508	409	
4	0	0	0	0	509	409	
5	0	0	0	0	510	408	
6	0	0	0	0	511	408	
7	0	0	0	0	511	408	
8	0	0	0	0	511	407	
9	0	0	0	0	512	408	
10	0	0	0	0	512	408	
11	0	0	0	0	512	408	
12	0	0	0	0	512	409	
13	0	0	0	0	512	407	
14	0	0	0	0	513	408	
15	0	0	0	0	514	408	
0	0	0	0	0	515	408	
1	0	0	0	0	514	408	
2	0	0	0	0	515	408	
3	0	0	0	0	514	408	
4	0	0	0	0	514	409	
5	0	0	0	0	514	408	
6	0	0	0	0	513	408	
7	0	0	0	0	513	408	
8	0	0	0	0	513	408	
9	0	0	0	0	513	408	
10	0	0	0	0	512	407	
11	0	0	0	0	512	408	
12	0	0	0	0	513	408	
13	0	0	0	0	512	408	
14	0	0	0	0	512	407	
15	0	0	0	0	514	408	
0	0	0	0	0	515	407	
1	0	0	0	0	515	408	
2	0	0	0	0	515	408	
3	0	0	0	0	515	408	
4	0	0	0	0	515	408	
5	0	0	0	0	516	408	
6	0	0	0	0	516	408	
7	0	0	0	0	516	408	
8	0	0	0	0	515	408	
9	0	0	0	0	515	408	
10	0	0	0	0	516	408	
11	0	0	0	0	516	408	
12	0	0	0	0	517	409	
13	0	0	0	0	516	409	
14	0	0	0	0	516	408	
15	0	0	0	0	516	409	
0	0	0	0	0	516	408	
1	0	0	0	0	516	408	
2	0	0	0	0	518	408	
3	0	0	0	0	518	408	
4	0	0	0	0	518	410	
5	0	0	0	0	518	408	
6	0	0	0	0	517	409	
7	0	0	0	0	517	409	
8	0	0	0	0	518	408	
9	0	0	0	0	517	408	
10	0	0	0	0	516	408	
11	0	0	0	0	516	409	
12	0	0	0	0	517	409	
13	0	0	0	0	517	409	
14	0	0	0	0	516	409	
15	0	0	0	0	515	409	
0	0	0	0	0	515	408	
1	0	0	0	0	515	408	
2	0	0	0	0	515	408	
3	0	0	0	0	515	408	
4	0	0	0	0	515	409	
5	0	0	0	0	516	408	
6	0	0	0	0	516	408	
7	0	0	0	0	517	409	
8	0	0	0	0	519	408	
9	0	0	0	0	519	408	
10	0	0	0	0	520	408	
11	0	0	0	0	520	408	
12	0	0	0	0	519	409	
13	0	0	0	0	519	408	
14	0	0	0	0	519	407	
15	0	0	0	0	519	408	
0	0	0	0	0	518	407	
1	0	0	0	0	517	408	
2	0	0	0	0	516	408	
3	0	0	0	0	516	408	
4	0	0	0	0	516	408	
5	0	0	0	0	516	408	
6	0	0	0	0	515	408	
7	0	0	0	0	515	409	
8	0	0	0	0	514	408	
9	0	0	0	0	515	408	
10	0	0	0	0	514	409	
11	0	0	0	0	513	409	
12	0	0	0	0	514	409	
13	0	0	0	0	514	408	
14	0	0	0	0	515	408	
15	0	0	0	0	515	408	
0	0	0	0	0	515	408	
1	0	0	0	0	515	409	
2	0	0	0	0	515	408	
3	0	0	0	0	516	409	
4	0	0	0	0	517	409	
5	0	0	0	0	518	409	
6	0	0	0	0	518	409	
7	0	0	0	0	518	409	
8	0	0	0	0	518	409	
9	0	0	0	0	517	410	
10	0	0	0	0	516	410	
11	0	0	0	0	517	409	
12	0	0	0	0	517	410	
13	0	0	0	0	517	409	
14	0	0	0	0	517	410	
15	0	0	0	0	516	410	
0	0	0	0	0	516	409	
1	0	0	0	0	516	409	
2	0	0	0	0	515	409	
3	0	0	0	0	516	409	
4	0	0	0	0	515	410	
5	0	0	0	0	515	409	
6	0	0	0	0	516	409	
7	0	0	0	0	516	409	
8	0	0	0	0	517	409	
9	0	0	0	0	517	409	
10	0	0	0	0	517	409	
11	0	0	0	0	516	409	
12	0	0	0	0	516	409	
13	0	0	0	0	515	409	
14	0	0	0	0	515	408	
15	0	0	0	0	514	408	
0	0	0	0	0	513	408	
1	0	0	0	0	513	408	
2	0	0	0	0	512	408	
3	0	0	0	0	513	408	
4	0	0	0	0	513	409	
5	0	0	0	0	514	408	
6	0	0	0	0	514	408	
7	0	0	0	0	514	408	
8	0	0	0	0	514	408	
9	0	0	0	0	514	408	
10	0	0	0	0	514	408	
11	0	0	0	0	515	408	
12	0	0	0	0	515	409	
13	0	0	0	0	515	408	
14	0	0	0	0	515	408	
15	0	0	0	0	515	408	
0	0	0	0	0	515	408	
1	0	0	0	0	516	408	
2	0	0	0	0	517	408	
3	0	0	0	0	518	408	
4	0	0	0	0	519	408	
5	0	0	0	0	518	408	
6	0	0	0	0	517	408	
7	0	0	0	0	516	408	
8	0	0	0	0	515	408	
9	0	0	0	0	516	408	
10	0	0	0	0	516	408	
11	0	0	0	0	517	408	
12	0	0	0	0	519	408	
13	0	0	0	0	518	407	
14	0	0	0	0	518	408	
15	0	0	0	0	518	409	
0	0	0	0	0	517	408	
1	0	0	0	0	516	408	
2	0	0	0	0	515	408	
3	0	0	0	0	515	408	
4	0	0	0	0	515	408	
5	0	0	0	0	515	408	
6	0	0	0	0	515	408	
7	0	0	0	0	516	408	
8	0	0	0	0	516	408	
9	0	0	0	0	516	408	
10	0	0	0	0	516	409	
11	0	0	0	0	516	409	
12	0	0	0	0	518	409	
13	0	0	0	0	518	408	
14	0	0	0	0	518	408	
15	0	0	0	0	519	408	
0	0	0	0	0	519	408	
1	0	0	0	0	519	409	
2	0	0	0	0	519	409	
3	0	0	0	0	518	409	
4	0	0	0	0	518	409	
5	0	0	0	0	518	408	
6	0	0	0	0	518	409	
7	0	0	0	0	518	409	
8	0	0	0	0	518	408	
9	0	0	0	0	517	408	
10	0	0	0	0	516	408	
11	0	0	0	0	515	408	
12	0	0	0	0	514	408	
13	0	0	0	0	514	408	
14	0	0	0	0	514	408	
15	0	0	0	0	514	408	
0	0	0	0	0	514	408	
1	0	0	0	0	514	409	
2	0	0	0	0	514	409	
3	0	0	0	0	514	409	
4	0	0	0	0	514	409	
5	0	0	0	0	513	409	
6	0	0	0	0	513	408	
7	0	0	0	0	513	408	
8	0	0	0	0	514	408	
9	0	0	0	0	513	408	
10	0	0	0	0	514	409	
11	0	0	0	0	513	409	
12	0	0	0	0	512	410	
13	0	0	0	0	512	409	
14	0	0	0	0	512	408	
15	0	0	0	0	513	408	
0	0	0	0	0	512	408	
1	0	0	0	0	512	408	
2	0	0	0	0	512	408	
3	0	0	0	0	512	409	
4	0	0	0	0	513	409	
5	0	0	0	0	515	408	
6	0	0	0	0	516	409	
7	0	0	0	0	516	408	
8	0	0	0	0	517	409	
9	0	0	0	0	516	409	
10	0	0	0	0	516	409	
11	0	0	0	0	516	409	
12	0	0	0	0	516	410	
13	0	0	0	0	516	410	
14	0	0	0	0	515	409	
15	0	0	0	0	515	409	
0	0	0	0	0	515	409	
1	0	0	0	0	515	409	
2	0	0	0	0	515	409	
3	0	0	0	0	515	409	
4	0	0	0	0	516	410	
5	0	0	0	0	516	409	
6	0	0	0	0	517	409	
7	0	0	0	0	518	409	
8	0	0	0	0	518	409	
9	0	0	0	0	518	409	
10	0	0	0	0	518	408	
11	0	0	0	0	518	409	
12	0	0	0	0	517	409	
13	0	0	0	0	516	408	
14	0	0	0	0	515	408	
15	0	0	0	0	515	408	
0	0	0	0	0	515	408	
1	0	0	0	0	515	408	
2	0	0	0	0	514	408	
3	0	0	0	0	515	408	
4	0	0	0	0	515	408	
5	0	0	0	0	514	408	
6	0	0	0	0	513	408	
7	0	0	0	0	512	408	
8	0	0	0	0	512	408	
9	0	0	0	0	511	408	
10	0	0	0	0	510	407	
11	0	0	0	0	509	408	
12	0	0	0	0	509	408	
13	0	0	0	0	510	408	
14	0	0	0	0	510	408	
15	0	0	0	0	511	408	
0	0	0	0	0	511	407	
1	0	0	0	0	512	408	
2	0	0	0	0	514	408	
3	0	0	0	0	515	408	
4	0	0	0	0	516	408	
5	0	0	0	0	516	408	
6	0	0	0	0	515	408	
7	0	0	0	0	515	407	
8	0	0	0	0	515	407	
9	0	0	0	0	514	407	
10	0	0	0	0	513	407	
11	0	0	0	0	513	408	
12	0	0	0	0	513	408	
13	0	0	0	0	512	408	
14	0	0	0	0	513	407	
15	0	0	0	0	513	407	
0	0	0	0	0	514	407	
1	0	0	0	0	513	407	
2	0	0	0	0	513	407	
3	0	0	0	0	513	408	
4	0	0	0	0	514	408	
5	0	0	0	0	515	407	
6	0	0	0	0	517	408	
7	0	0	0	0	517	408	
8	0	0	0	0	516	407	
9	0	0	0	0	516	408	
10	0	0	0	0	516	408	
11	0	0	0	0	516	408	
12	0	0	0	0	516	408	
13	0	0	0	0	517	408	
14	0	0	0	0	518	408	
15	0	0	0	0	519	408	
0	0	0	0	0	519	408	
1	0	0	0	0	519	408	
2	0	0	0	0	519	408	
3	0	0	0	0	520	409	
4	0	0	0	0	521	410	
5	0	0	0	0	522	409	
6	0	0	0	0	523	408	
7	0	0	0	0	524	408	
8	0	0	0	0	525	408	
9	0	0	0	0	526	408	
10	0	0	0	0	526	408	
11	0	0	0	0	525	408	
12	0	0	0	0	524	409	
13	0	0	0	0	524	408	
14	0	0	0	0	524	409	
15	0	0	0	0	523	409	
0	0	0	0	0	523	408	
1	0	0	0	0	523	409	
2	0	0	0	0	523	409	
3	0	0	0	0	522	409	
4	0	0	0	0	522	409	
5	0	0	0	0	521	408	
6	0	0	0	0	521	409	
7	0	0	0	0	520	409	
8	0	0	0	0	520	409	
9	0	0	0	0	519	409	
10	0	0	0	0	519	409	
11	0	0	0	0	519	409	
12	0	0	0	0	519	409	
13	0	0	0	0	518	409	
14	0	0	0	0	517	408	
15	0	0	0	0	516	409	
0	0	0	0	0	515	408	
1	0	0	0	0	515	408	
2	0	0	0	0	514	409	
3	0	0	0	0	514	408	
4	0	0	0	0	513	409	
5	0	0	0	0	512	408	
6	0	0	0	0	513	409	
7	0	0	0	0	512	409	
8	0	0	0	0	513	408	
9	0	0	0	0	513	409	
10	0	0	0	0	513	408	
11	0	0	0	0	513	409	
12	0	0	0	0	514	411	
13	0	0	0	0	513	409	
14	0	0	0	0	513	409	
15	0	0	0	0	513	410	
0	0	0	0	0	513	409	
1	0	0	0	0	514	409	
2	0	0	0	0	514	409	
3	0	0	0	0	513	409	
4	0	0	0	0	513	411	
5	0	0	0	0	513	409	
6	0	0	0	0	513	410	
7	0	0	0	0	514	409	
8	0	0	0	0	513	409	
9	0	0	0	0	513	409	
10	0	0	0	0	513	410	
11	0	0	0	0	513	409	
12	0	0	0	0	512	410	
13	0	0	0	0	512	409	
14	0	0	0	0	512	408	
15	0	0	0	0	511	409	
0	0	0	0	0	511	408	
1	0	0	0	0	511	409	
2	0	0	0	0	511	409	
3	0	0	0	0	512	408	
4	0	0	0	0	512	409	
5	0	0	0	0	512	409	
6	0	0	0	0	512	409	
7	0	0	0	0	512	409	
8	0	0	0	0	511	409	
9	0	0	0	0	511	408	
10	0	0	0	0	511	409	
11	0	0	0	0	511	408	
12	0	0	0	0	511	409	
13	0	0	0	0	510	408	
14	0	0	0	0	509	409	
15	0	0	0	0	507	408	
0	0	0	0	0	504	408	
1	0	0	0	0	501	409	
2	0	0	0	0	498	408	
3	0	0	0	0	495	408	
4	0	0	0	0	491	409	
5	0	0	0	0	487	409	
6	0	0	0	0	483	409	
7	0	0	0	0	478	409	
8	0	0	0	0	474	409	
9	0	0	0	0	469	408	
10	0	0	0	0	465	408	
11	0	0	0	0	461	409	
12	0	0	0	0	457	410	
13	0	0	0	0	452	409	
14	0	0	0	0	448	409	
15	0	0	0	0	444	408	
0	0	0	0	0	440	408	
1	0	0	0	0	438	408	
2	0	0	0	0	434	408	
3	0	0	0	0	432	408	
4	0	0	0	0	431	409	
5	0	0	0	0	432	408	
6	0	0	0	0	436	408	
7	0	0	0	0	439	408	
8	0	0	0	0	444	407	
9	0	0	0	0	449	408	
10	0	0	0	0	457	408	
11	0	0	0	0	467	408	
12	0	0	0	0	479	409	
13	0	0	0	0	491	408	
14	0	0	0	0	504	408	
15	0	0	0	0	518	408	
0	0	0	0	0	531	407	
1	0	0	0	0	545	407	
2	0	0	0	0	558	408	
3	0	0	0	0	568	408	
4	0	0	0	0	578	408	
5	0	0	0	0	590	408	
6	0	0	0	0	598	407	
7	0	0	0	0	607	407	
8	0	0	0	0	615	407	
9	0	0	0	0	623	407	
10	0	0	0	0	631	407	
11	0	0	0	0	640	407	
12	0	0	0	0	648	408	
13	0	0	0	0	659	407	
14	0	0	0	0	669	407	
15	0	0	0	0	681	408	
0	0	0	0	0	693	408	
1	0	0	0	0	703	408	
2	0	0	0	0	708	408	
3	0	0	0	0	711	408	
4	0	0	0	0	711	409	
5	0	0	0	0	708	408	
6	0	0	0	0	703	408	
7	0	0	0	0	693	408	
8	0	0	0	0	682	408	
9	0	0	0	0	670	409	
10	0	0	0	0	657	409	
11	0	0	0	0	645	409	
12	0	0	0	0	631	409	
13	0	0	0	0	615	408	
14	0	0	0	0	600	409	
15	0	0	0	0	587	409	
0	0	0	0	0	574	409	
1	0	0	0	0	562	409	
2	0	0	0	0	551	409	
3	0	0	0	0	541	408	
4	0	0	0	0	532	409	
5	0	0	0	0	524	408	
6	0	0	0	0	516	408	
7	0	0	0	0	511	409	
8	0	0	0	0	505	409	
9	0	0	0	0	499	409	
10	0	0	0	0	495	409	
11	0	0	0	0	491	409	
12	0	0	0	0	487	409	
13	0	0	0	0	483	408	
14	0	0	0	0	480	408	
15	0	0	0	0	478	409	
0	0	0	0	0	476	408	
1	0	0	0	0	475	409	
2	0	0	0	0	473	409	
3	0	0	0	0	472	409	
4	0	0	0	0	471	410	
5	0	0	0	0	471	409	
6	0	0	0	0	471	409	
7	0	0	0	0	471	408	
8	0	0	0	0	471	409	
9	0	0	0	0	471	409	
10	0	0	0	0	471	409	
11	0	0	0	0	471	409	
12	0	0	0	0	471	409	
13	0	0	0	0	471	408	
14	0	0	0	0	471	409	
15	0	0	0	0	470	409	
0	0	0	0	0	470	409	
1	0	0	0	0	470	409	
2	0	0	0	0	470	409	
3	0	0	0	0	471	409	
4	0	0	0	0	470	410	
5	0	0	0	0	469	409	
6	0	0	0	0	469	409	
7	0	0	0	0	468	408	
8	0	0	0	0	467	409	
9	0	0	0	0	467	408	
10	0	0	0	0	467	408	
11	0	0	0	0	468	409	
12	0	0	0	0	469	409	
13	0	0	0	0	469	408	
14	0	0	0	0	470	408	
15	0	0	0	0	470	408	
0	0	0	0	0	470	408	
1	0	0	0	0	470	408	
2	0	0	0	0	470	408	
3	0	0	0	0	469	407	
4	0	0	0	0	470	409	
5	0	0	0	0	471	407	
6	0	0	0	0	471	407	
7	0	0	0	0	471	407	
8	0	0	0	0	472	407	
9	0	0	0	0	471	407	
10	0	0	0	0	471	408	
11	0	0	0	0	471	407	
12	0	0	0	0	472	407	
13	0	0	0	0	473	407	
14	0	0	0	0	473	407	
15	0	0	0	0	473	407	
0	0	0	0	0	472	407	
1	0	0	0	0	473	407	
2	0	0	0	0	473	408	
3	0	0	0	0	473	408	
4	0	0	0	0	473	408	
5	0	0	0	0	474	407	
6	0	0	0	0	474	407	
7	0	0	0	0	474	407	
8	0	0	0	0	475	407	
9	0	0	0	0	475	408	
10	0	0	0	0	475	408	
11	0	0	0	0	475	408	
12	0	0	0	0	475	408	
13	0	0	0	0	475	408	
14	0	0	0	0	475	408	
15	0	0	0	0	475	408	
0	0	0	0	0	476	408	
1	0	0	0	0	476	408	
2	0	0	0	0	476	408	
3	0	0	0	0	477	408	
4	0	0	0	0	477	409	
5	0	0	0	0	477	408	
6	0	0	0	0	478	409	
7	0	0	0	0	478	409	
8	0	0	0	0	478	409	
9	0	0	0	0	478	408	
10	0	0	0	0	478	409	
11	0	0	0	0	479	408	
12	0	0	0	0	479	410	
13	0	0	0	0	479	409	
14	0	0	0	0	479	408	
15	0	0	0	0	479	408	
0	0	0	0	0	480	409	
1	0	0	0	0	480	408	
2	0	0	0	0	480	408	
3	0	0	0	0	481	409	
4	0	0	0	0	480	409	
5	0	0	0	0	481	409	
6	0	0	0	0	481	409	
7	0	0	0	0	482	408	
8	0	0	0	0	483	409	
9	0	0	0	0	483	409	
10	0	0	0	0	484	409	
11	0	0	0	0	486	409	
12	0	0	0	0	485	409	
13	0	0	0	0	484	409	
14	0	0	0	0	483	409	
15	0	0	0	0	483	409	
0	0	0	0	0	482	408	
1	0	0	0	0	480	408	
2	0	0	0	0	480	408	
3	0	0	0	0	479	408	
4	0	0	0	0	479	409	
5	0	0	0	0	479	408	
6	0	0	0	0	479	408	
7	0	0	0	0	479	409	
8	0	0	0	0	480	408	
9	0	0	0	0	480	409	
10	0	0	0	0	481	409	
11	0	0	0	0	482	408	
12	0	0	0	0	482	409	
13	0	0	0	0	482	408	
14	0	0	0	0	482	409	
15	0	0	0	0	483	409	
0	0	0	0	0	483	409	
1	0	0	0	0	483	409	
2	0	0	0	0	483	409	
3	0	0	0	0	483	409	
4	0	0	0	0	483	410	
5	0	0	0	0	482	409	
6	0	0	0	0	481	409	
7	0	0	0	0	480	409	
8	0	0	0	0	480	409	
9	0	0	0	0	479	409	
10	0	0	0	0	478	409	
11	0	0	0	0	478	409	
12	0	0	0	0	479	410	
13	0	0	0	0	480	409	
14	0	0	0	0	480	409	
15	0	0	0	0	480	409	
0	0	0	0	0	481	408	
1	0	0	0	0	482	409	
2	0	0	0	0	483	408	
3	0	0	0	0	483	408	
4	0	0	0	0	484	408	
5	0	0	0	0	484	408	
6	0	0	0	0	484	408	
7	0	0	0	0	484	408	
8	0	0	0	0	483	408	
9	0	0	0	0	483	408	
10	0	0	0	0	483	408	
11	0	0	0	0	483	407	
12	0	0	0	0	483	409	
13	0	0	0	0	483	407	
14	0	0	0	0	483	408	
15	0	0	0	0	482	407	
0	0	0	0	0	483	407	
1	0	0	0	0	482	408	
2	0	0	0	0	483	407	
3	0	0	0	0	484	407	
4	0	0	0	0	485	408	
5	0	0	0	0	485	406	
6	0	0	0	0	486	407	
7	0	0	0	0	487	407	
8	0	0	0	0	488	406	
9	0	0	0	0	489	407	
10	0	0	0	0	489	407	
11	0	0	0	0	490	407	
12	0	0	0	0	489	407	
13	0	0	0	0	489	407	
14	0	0	0	0	489	407	
15	0	0	0	0	489	407	
0	0	0	0	0	490	407	
1	0	0	0	0	490	407	
2	0	0	0	0	492	407	
3	0	0	0	0	492	407	
4	0	0	0	0	492	408	
5	0	0	0	0	493	407	
6	0	0	0	0	495	407	
7	0	0	0	0	496	407	
8	0	0	0	0	497	407	
9	0	0	0	0	497	407	
10	0	0	0	0	498	407	
11	0	0	0	0	499	407	
12	0	0	0	0	499	408	
13	0	0	0	0	500	407	
14	0	0	0	0	500	408	
15	0	0	0	0	500	408	
0	0	0	0	0	500	408	
1	0	0	0	0	500	408	
2	0	0	0	0	500	408	
3	0	0	0	0	501	408	
4	0	0	0	0	501	409	
5	0	0	0	0	501	408	
6	0	0	0	0	502	408	
7	0	0	0	0	503	409	
8	0	0	0	0	504	408	
9	0	0	0	0	504	409	
10	0	0	0	0	505	409	
11	0	0	0	0	505	408	
12	0	0	0	0	506	409	
13	0	0	0	0	507	409	
14	0	0	0	0	507	409	
15	0	0	0	0	508	409	
0	0	0	0	0	508	409	
1	0	0	0	0	510	410	
2	0	0	0	0	510	410	
3	0	0	0	0	510	409	
4	0	0	0	0	510	410	
5	0	0	0	0	509	409	
6	0	0	0	0	509	410	
7	0	0	0	0	508	410	
8	0	0	0	0	509	410	
9	0	0	0	0	510	410	
10	0	0	0	0	510	409	
11	0	0	0	0	512	409	
12	0	0	0	0	513	411	
13	0	0	0	0	514	410	
14	0	0	0	0	514	411	
15	0	0	0	0	514	410	
0	0	0	0	0	514	410	
1	0	0	0	0	513	410	
2	0	0	0	0	513	410	
3	0	0	0	0	512	410	
4	0	0	0	0	512	411	
5	0	0	0	0	513	410	
6	0	0	0	0	514	410	
7	0	0	0	0	515	409	
8	0	0	0	0	516	409	
9	0	0	0	0	517	409	
10	0	0	0	0	517	410	
11	0	0	0	0	518	409	
12	0	0	0	0	517	410	
13	0	0	0	0	518	409	
14	0	0	0	0	518	409	
15	0	0	0	0	517	408	
0	0	0	0	0	518	408	
1	0	0	0	0	518	408	
2	0	0	0	0	519	408	
3	0	0	0	0	519	408	
4	0	0	0	0	519	409	
5	0	0	0	0	520	407	
6	0	0	0	0	520	407	
7	0	0	0	0	520	408	
8	0	0	0	0	521	407	
9	0	0	0	0	521	408	
10	0	0	0	0	521	408	
11	0	0	0	0	521	407	
12	0	0	0	0	521	408	
13	0	0	0	0	521	408	
14	0	0	0	0	522	408	
15	0	0	0	0	521	408	
0	0	0	0	0	521	408	
1	0	0	0	0	520	408	
2	0	0	0	0	520	407	
3	0	0	0	0	520	408	
4	0	0	0	0	520	408	
5	0	0	0	0	520	408	
6	0	0	0	0	521	407	
7	0	0	0	0	521	407	
8	0	0	0	0	522	407	
9	0	0	0	0	523	407	
10	0	0	0	0	523	408	
11	0	0	0	0	524	408	
12	0	0	0	0	523	409	
13	0	0	0	0	524	408	
14	0	0	0	0	524	407	
15	0	0	0	0	524	407	
0	0	0	0	0	524	407	
1	0	0	0	0	524	407	
2	0	0	0	0	524	408	
3	0	0	0	0	523	407	
4	0	0	0	0	522	408	
5	0	0	0	0	522	408	
6	0	0	0	0	521	408	
7	0	0	0	0	521	408	
8	0	0	0	0	521	408	
9	0	0	0	0	522	408	
10	0	0	0	0	522	407	
11	0	0	0	0	522	408	
12	0	0	0	0	522	409	
13	0	0	0	0	522	408	
14	0	0	0	0	522	408	
15	0	0	0	0	523	408	
0	0	0	0	0	524	407	
1	0	0	0	0	525	408	
2	0	0	0	0	525	408	
3	0	0	0	0	525	408	
4	0	0	0	0	525	409	
5	0	0	0	0	525	408	
6	0	0	0	0	524	409	
7	0	0	0	0	525	409	
8	0	0	0	0	524	409	
9	0	0	0	0	523	409	
10	0	0	0	0	523	409	
11	0	0	0	0	523	409	
12	0	0	0	0	522	410	
13	0	0	0	0	522	410	
14	0	0	0	0	522	410	
15	0	0	0	0	522	410	
0	0	0	0	0	521	409	
1	0	0	0	0	521	409	
2	0	0	0	0	520	410	
3	0	0	0	0	520	410	
4	0	0	0	0	520	410	
5	0	0	0	0	520	410	
6	0	0	0	0	519	409	
7	0	0	0	0	519	410	
8	0	0	0	0	517	409	
9	0	0	0	0	516	409	
10	0	0	0	0	516	409	
11	0	0	0	0	515	409	
12	0	0	0	0	515	411	
13	0	0	0	0	515	409	
14	0	0	0	0	515	409	
15	0	0	0	0	516	409	
0	0	0	0	0	516	409	
1	0	0	0	0	516	409	
2	0	0	0	0	517	410	
3	0	0	0	0	517	409	
4	0	0	0	0	517	410	
5	0	0	0	0	517	409	
6	0	0	0	0	518	408	
7	0	0	0	0	518	408	
8	0	0	0	0	519	408	
9	0	0	0	0	519	408	
10	0	0	0	0	519	408	
11	0	0	0	0	519	409	
12	0	0	0	0	519	408	
13	0	0	0	0	518	408	
14	0	0	0	0	518	408	
15	0	0	0	0	518	408	
0	0	0	0	0	517	408	
1	0	0	0	0	516	409	
2	0	0	0	0	517	408	
3	0	0	0	0	516	409	
4	0	0	0	0	516	409	
5	0	0	0	0	516	408	
6	0	0	0	0	516	408	
7	0	0	0	0	516	408	
8	0	0	0	0	516	408	
9	0	0	0	0	516	408	
10	0	0	0	0	516	408	
11	0	0	0	0	517	409	
12	0	0	0	0	518	409	
13	0	0	0	0	519	408	
14	0	0	0	0	519	408	
15	0	0	0	0	519	408	
0	0	0	0	0	519	408	
1	0	0	0	0	518	408	
2	0	0	0	0	518	408	
3	0	0	0	0	518	408	
4	0	0	0	0	518	409	
5	0	0	0	0	518	409	
6	0	0	0	0	518	408	
7	0	0	0	0	518	409	
8	0	0	0	0	518	408	
9	0	0	0	0	518	408	
10	0	0	0	0	517	408	
11	0	0	0	0	518	408	
12	0	0	0	0	518	408	
13	0	0	0	0	518	407	
14	0	0	0	0	518	407	
15	0	0	0	0	518	408	
0	0	0	0	0	518	408	
1	0	0	0	0	519	407	
2	0	0	0	0	519	407	
3	0	0	0	0	518	407	
4	0	0	0	0	518	407	
5	0	0	0	0	518	407	
6	0	0	0	0	517	407	
7	0	0	0	0	518	407	
8	0	0	0	0	517	406	
9	0	0	0	0	517	407	
10	0	0	0	0	516	407	
11	0	0	0	0	516	407	
12	0	0	0	0	515	407	
13	0	0	0	0	515	407	
14	0	0	0	0	516	407	
15	0	0	0	0	516	407	
0	0	0	0	0	516	407	
1	0	0	0	0	517	408	
2	0	0	0	0	517	407	
3	0	0	0	0	517	408	
4	0	0	0	0	518	408	
5	0	0	0	0	519	408	
6	0	0	0	0	519	408	
7	0	0	0	0	519	408	
8	0	0	0	0	519	408	
9	0	0	0	0	518	408	
10	0	0	0	0	518	408	
11	0	0	0	0	518	408	
12	0	0	0	0	517	409	
13	0	0	0	0	517	408	
14	0	0	0	0	517	408	
15	0	0	0	0	519	408	
0	0	0	0	0	519	408	
1	0	0	0	0	519	408	
2	0	0	0	0	519	408	
3	0	0	0	0	519	409	
4	0	0	0	0	519	408	
5	0	0	0	0	519	408	
6	0	0	0	0	518	408	
7	0	0	0	0	518	408	
8	0	0	0	0	518	408	
9	0	0	0	0	518	408	
10	0	0	0	0	518	408	
11	0	0	0	0	518	408	
12	0	0	0	0	518	409	
13	0	0	0	0	518	408	
14	0	0	0	0	518	408	
15	0	0	0	0	518	408	
0	0	0	0	0	519	408	
1	0	0	0	0	519	408	
2	0	0	0	0	519	408	
3	0	0	0	0	519	408	
4	0	0	0	0	518	409	
5	0	0	0	0	519	408	
6	0	0	0	0	518	408	
7	0	0	0	0	518	408	
8	0	0	0	0	517	408	
9	0	0	0	0	517	408	
10	0	0	0	0	517	408	
11	0	0	0	0	516	408	
12	0	0	0	0	516	409	
13	0	0	0	0	516	408	
14	0	0	0	0	516	409	
15	0	0	0	0	517	409	
0	0	0	0	0	516	408	
1	0	0	0	0	516	409	
2	0	0	0	0	516	409	
3	0	0	0	0	516	409	
4	0	0	0	0	515	410	
5	0	0	0	0	515	409	
6	0	0	0	0	514	409	
7	0	0	0	0	515	409	
8	0	0	0	0	515	409	
9	0	0	0	0	517	409	
10	0	0	0	0	517	408	
11	0	0	0	0	517	409	
12	0	0	0	0	518	409	
13	0	0	0	0	517	408	
14	0	0	0	0	515	408	
15	0	0	0	0	515	409	
0	0	0	0	0	515	408	
1	0	0	0	0	515	408	
2	0	0	0	0	515	408	
3	0	0	0	0	515	408	
4	0	0	0	0	516	409	
5	0	0	0	0	516	409	
6	0	0	0	0	515	408	
7	0	0	0	0	515	408	
8	0	0	0	0	515	408	
9	0	0	0	0	515	409	
10	0	0	0	0	515	408	
11	0	0	0	0	516	409	
12	0	0	0	0	516	409	
13	0	0	0	0	518	409	
14	0	0	0	0	518	408	
15	0	0	0	0	517	408	
0	0	0	0	0	517	409	
1	0	0	0	0	516	409	
2	0	0	0	0	516	409	
3	0	0	0	0	516	409	
4	0	0	0	0	517	410	
5	0	0	0	0	516	409	
6	0	0	0	0	515	409	
7	0	0	0	0	515	410	
8	0	0	0	0	514	409	
9	0	0	0	0	513	409	
10	0	0	0	0	514	410	
11	0	0	0	0	513	410	
12	0	0	0	0	513	410	
13	0	0	0	0	513	409	
14	0	0	0	0	515	409	
15	0	0	0	0	516	409	
0	0	0	0	0	516	409	
1	0	0	0	0	516	408	
2	0	0	0	0	518	409	
3	0	0	0	0	519	409	
4	0	0	0	0	520	410	
5	0	0	0	0	520	408	
6	0	0	0	0	519	408	
7	0	0	0	0	519	408	
8	0	0	0	0	520	408	
9	0	0	0	0	520	408	
10	0	0	0	0	520	409	
11	0	0	0	0	521	408	
12	0	0	0	0	521	408	
13	0	0	0	0	522	408	
14	0	0	0	0	522	408	
15	0	0	0	0	523	408	
0	0	0	0	0	523	407	
1	0	0	0	0	524	408	
2	0	0	0	0	524	407	
3	0	0	0	0	524	407	
4	0	0	0	0	525	408	
5	0	0	0	0	525	407	
6	0	0	0	0	525	407	
7	0	0	0	0	525	407	
8	0	0	0	0	524	407	
9	0	0	0	0	525	407	
10	0	0	0	0	526	408	
11	0	0	0	0	526	408	
12	0	0	0	0	526	408	
13	0	0	0	0	525	407	
14	0	0	0	0	525	408	
15	0	0	0	0	524	408	
0	0	0	0	0	523	407	
1	0	0	0	0	521	408	
2	0	0	0	0	521	408	
3	0	0	0	0	521	408	
4	0	0	0	0	520	409	
5	0	0	0	0	519	408	
6	0	0	0	0	520	408	
7	0	0	0	0	519	407	
8	0	0	0	0	519	408	
9	0	0	0	0	518	408	
10	0	0	0	0	517	408	
11	0	0	0	0	515	408	
12	0	0	0	0	514	409	
13	0	0	0	0	513	408	
14	0	0	0	0	513	408	
15	0	0	0	0	513	408	
0	0	0	0	0	513	408	
1	0	0	0	0	513	408	
2	0	0	0	0	513	408	
3	0	0	0	0	513	408	
4	0	0	0	0	514	408	
5	0	0	0	0	513	408	
6	0	0	0	0	513	407	
7	0	0	0	0	514	407	
8	0	0	0	0	515	407	
9	0	0	0	0	515	407	
10	0	0	0	0	515	408	
11	0	0	0	0	515	408	
12	0	0	0	0	515	409	
13	0	0	0	0	515	408	
14	0	0	0	0	515	407	
15	0	0	0	0	515	408	
0	0	0	0	0	514	408	
1	0	0	0	0	514	408	
2	0	0	0	0	514	408	
3	0	0	0	0	514	408	
4	0	0	0	0	514	409	
5	0	0	0	0	514	409	
6	0	0	0	0	515	409	
7	0	0	0	0	515	409	
8	0	0	0	0	514	408	
9	0	0	0	0	513	409	
10	0	0	0	0	513	409	
11	0	0	0	0	513	409	
12	0	0	0	0	514	410	
13	0	0	0	0	514	410	
14	0	0	0	0	515	409	
15	0	0	0	0	515	409	
0	0	0	0	0	514	409	
1	0	0	0	0	514	409	
2	0	0	0	0	514	410	
3	0	0	0	0	515	409	
4	0	0	0	0	515	409	
5	0	0	0	0	515	408	
6	0	0	0	0	516	409	
7	0	0	0	0	515	409	
8	0	0	0	0	514	408	
9	0	0	0	0	513	409	
10	0	0	0	0	511	409	
11	0	0	0	0	508	409	
12	0	0	0	0	504	409	
13	0	0	0	0	500	409	
14	0	0	0	0	496	409	
15	0	0	0	0	492	409	
0	0	0	0	0	487	408	
1	0	0	0	0	483	408	
2	0	0	0	0	479	409	
3	0	0	0	0	475	409	
4	0	0	0	0	470	409	
5	0	0	0	0	466	408	
6	0	0	0	0	462	408	
7	0	0	0	0	458	408	
8	0	0	0	0	455	408	
9	0	0	0	0	450	409	
10	0	0	0	0	447	409	
11	0	0	0	0	443	409	
12	0	0	0	0	439	410	
13	0	0	0	0	437	408	
14	0	0	0	0	435	409	
15	0	0	0	0	436	409	
0	0	0	0	0	438	408	
1	0	0	0	0	441	409	
2	0	0	0	0	446	409	
3	0	0	0	0	452	409	
4	0	0	0	0	461	410	
5	0	0	0	0	471	408	
6	0	0	0	0	482	409	
7	0	0	0	0	494	409	
8	0	0	0	0	505	408	
9	0	0	0	0	519	409	
10	0	0	0	0	532	409	
11	0	0	0	0	546	409	
12	0	0	0	0	559	409	
13	0	0	0	0	571	409	
14	0	0	0	0	582	409	
15	0	0	0	0	591	409	
0	0	0	0	0	600	409	
1	0	0	0	0	610	408	
2	0	0	0	0	618	409	
3	0	0	0	0	626	409	
4	0	0	0	0	634	409	
5	0	0	0	0	643	409	
6	0	0	0	0	652	408	
7	0	0	0	0	662	408	
8	0	0	0	0	673	408	
9	0	0	0	0	684	409	
10	0	0	0	0	695	409	
11	0	0	0	0	706	408	
12	0	0	0	0	712	409	
13	0	0	0	0	715	408	
14	0	0	0	0	714	408	
15	0	0	0	0	710	408	
0	0	0	0	0	705	408	
1	0	0	0	0	696	408	
2	0	0	0	0	685	408	
3	0	0	0	0	672	408	
4	0	0	0	0	659	409	
5	0	0	0	0	645	407	
6	0	0	0	0	632	408	
7	0	0	0	0	617	408	
8	0	0	0	0	602	407	
9	0	0	0	0	588	408	
10	0	0	0	0	575	407	
11	0	0	0	0	562	408	
12	0	0	0	0	552	408	
13	0	0	0	0	542	408	
14	0	0	0	0	533	408	
15	0	0	0	0	525	408	
0	0	0	0	0	518	408	
1	0	0	0	0	511	408	
2	0	0	0	0	505	408	
3	0	0	0	0	499	407	
4	0	0	0	0	494	408	
5	0	0	0	0	489	408	
6	0	0	0	0	485	408	
7	0	0	0	0	482	408	
8	0	0	0	0	479	408	
9	0	0	0	0	477	408	
10	0	0	0	0	475	408	
11	0	0	0	0	473	408	
12	0	0	0	0	472	409	
13	0	0	0	0	471	407	
14	0	0	0	0	470	408	
15	0	0	0	0	468	408	
0	0	0	0	0	467	407	
1	0	0	0	0	467	408	
2	0	0	0	0	467	408	
3	0	0	0	0	467	407	
4	0	0	0	0	468	408	
5	0	0	0	0	467	407	
6	0	0	0	0	467	407	
7	0	0	0	0	468	407	
8	0	0	0	0	467	406	
9	0	0	0	0	468	407	
10	0	0	0	0	468	407	
11	0	0	0	0	469	407	
12	0	0	0	0	469	408	
13	0	0	0	0	470	407	
14	0	0	0	0	470	407	
15	0	0	0	0	469	407	
0	0	0	0	0	468	407	
1	0	0	0	0	468	407	
2	0	0	0	0	467	407	
3	0	0	0	0	467	407	
4	0	0	0	0	468	408	
5	0	0	0	0	467	407	
6	0	0	0	0	468	407	
7	0	0	0	0	468	408	
8	0	0	0	0	469	408	
9	0	0	0	0	470	408	
10	0	0	0	0	471	408	
11	0	0	0	0	470	408	
12	0	0	0	0	470	409	
13	0	0	0	0	471	408	
14	0	0	0	0	470	408	
15	0	0	0	0	469	408	
0	0	0	0	0	469	408	
1	0	0	0	0	469	408	
2	0	0	0	0	468	408	
3	0	0	0	0	468	409	
4	0	0	0	0	469	410	
5	0	0	0	0	469	408	
6	0	0	0	0	469	409	
7	0	0	0	0	470	409	
8	0	0	0	0	470	408	
9	0	0	0	0	470	409	
10	0	0	0	0	470	409	
11	0	0	0	0	470	409	
12	0	0	0	0	471	409	
13	0	0	0	0	472	409	
14	0	0	0	0	473	408	
15	0	0	0	0	474	409	
0	0	0	0	0	475	408	
1	0	0	0	0	476	408	
2	0	0	0	0	477	409	
3	0	0	0	0	478	409	
4	0	0	0	0	478	410	
5	0	0	0	0	478	409	
6	0	0	0	0	478	408	
7	0	0	0	0	479	409	
8	0	0	0	0	479	408	
9	0	0	0	0	479	408	
10	0	0	0	0	479	408	
11	0	0	0	0	478	409	
12	0	0	0	0	478	410	
13	0	0	0	0	478	409	
14	0	0	0	0	479	408	
15	0	0	0	0	479	408	
0	0	0	0	0	480	408	
1	0	0	0	0	479	408	
2	0	0	0	0	479	408	
3	0	0	0	0	479	408	
4	0	0	0	0	479	410	
5	0	0	0	0	479	409	
6	0	0	0	0	479	409	
7	0	0	0	0	480	408	
8	0	0	0	0	480	408	
9	0	0	0	0	480	409	
10	0	0	0	0	480	409	
11	0	0	0	0	481	409	
12	0	0	0	0	481	409	
13	0	0	0	0	482	409	
14	0	0	0	0	483	409	
15	0	0	0	0	483	410	
0	0	0	0	0	483	409	
1	0	0	0	0	484	409	
2	0	0	0	0	485	409	
3	0	0	0	0	485	409	
4	0	0	0	0	486	410	
5	0	0	0	0	486	409	
6	0	0	0	0	486	410	
7	0	0	0	0	486	409	
8	0	0	0	0	486	409	
9	0	0	0	0	486	409	
10	0	0	0	0	486	409	
11	0	0	0	0	485	409	
12	0	0	0	0	485	409	
13	0	0	0	0	484	409	
14	0	0	0	0	483	408	
15	0	0	0	0	483	408	
0	0	0	0	0	482	408	
1	0	0	0	0	482	408	
2	0	0	0	0	482	408	
3	0	0	0	0	483	408	
4	0	0	0	0	483	409	
5	0	0	0	0	483	408	
6	0	0	0	0	482	409	
7	0	0	0	0	482	409	
8	0	0	0	0	482	408	
9	0	0	0	0	482	409	
10	0	0	0	0	482	409	
11	0	0	0	0	482	409	
12	0	0	0	0	482	409	
13	0	0	0	0	481	408	
14	0	0	0	0	481	408	
15	0	0	0	0	482	409	
0	0	0	0	0	482	409	
1	0	0	0	0	482	409	
2	0	0	0	0	481	410	
3	0	0	0	0	482	409	
4	0	0	0	0	481	410	
5	0	0	0	0	481	409	
6	0	0	0	0	481	410	
7	0	0	0	0	481	409	
8	0	0	0	0	481	409	
9	0	0	0	0	482	409	
10	0	0	0	0	483	410	
11	0	0	0	0	483	410	
12	0	0	0	0	483	410	
13	0	0	0	0	483	409	
14	0	0	0	0	483	409	
15	0	0	0	0	484	409	
0	0	0	0	0	485	409	
1	0	0	0	0	485	409	
2	0	0	0	0	486	408	
3	0	0	0	0	487	408	
4	0	0	0	0	487	409	
5	0	0	0	0	487	408	
6	0	0	0	0	487	408	
7	0	0	0	0	488	408	
8	0	0	0	0	488	408	
9	0	0	0	0	488	408	
10	0	0	0	0	489	408	
11	0	0	0	0	489	408	
12	0	0	0	0	488	408	
13	0	0	0	0	489	408	
14	0	0	0	0	489	408	
15	0	0	0	0	489	408	
0	0	0	0	0	489	407	
1	0	0	0	0	490	407	
2	0	0	0	0	490	407	
3	0	0	0	0	491	407	
4	0	0	0	0	492	408	
5	0	0	0	0	492	407	
6	0	0	0	0	492	408	
7	0	0	0	0	493	408	
8	0	0	0	0	494	408	
9	0	0	0	0	494	408	
10	0	0	0	0	494	408	
11	0	0	0	0	495	408	
12	0	0	0	0	495	409	
13	0	0	0	0	495	408	
14	0	0	0	0	496	408	
15	0	0	0	0	496	408	
0	0	0	0	0	497	407	
1	0	0	0	0	497	408	
2	0	0	0	0	497	408	
3	0	0	0	0	497	408	
4	0	0	0	0	498	409	
5	0	0	0	0	498	408	
6	0	0	0	0	499	408	
7	0	0	0	0	499	407	
8	0	0	0	0	500	407	
9	0	0	0	0	501	408	
10	0	0	0	0	503	408	
11	0	0	0	0	504	408	
12	0	0	0	0	505	408	
13	0	0	0	0	506	407	
14	0	0	0	0	507	408	
15	0	0	0	0	507	408	
0	0	0	0	0	507	408	
1	0	0	0	0	507	408	
2	0	0	0	0	508	408	
3	0	0	0	0	507	408	
4	0	0	0	0	507	409	
5	0	0	0	0	508	408	
6	0	0	0	0	508	408	
7	0	0	0	0	510	408	
8	0	0	0	0	510	408	
9	0	0	0	0	509	408	
10	0	0	0	0	510	408	
11	0	0	0	0	510	408	
12	0	0	0	0	511	408	
13	0	0	0	0	512	408	
14	0	0	0	0	513	408	
15	0	0	0	0	513	408	
0	0	0	0	0	514	407	
1	0	0	0	0	514	408	
2	0	0	0	0	513	408	
3	0	0	0	0	512	408	
4	0	0	0	0	513	409	
5	0	0	0	0	513	408	
6	0	0	0	0	512	407	
7	0	0	0	0	512	408	
8	0	0	0	0	513	407	
9	0	0	0	0	513	407	
10	0	0	0	0	514	408	
11	0	0	0	0	515	407	
12	0	0	0	0	515	408	
13	0	0	0	0	516	407	
14	0	0	0	0	518	407	
15	0	0	0	0	518	407	
0	0	0	0	0	519	407	
1	0	0	0	0	518	408	
2	0	0	0	0	518	407	
3	0	0	0	0	518	407	
4	0	0	0	0	518	408	
5	0	0	0	0	518	408	
6	0	0	0	0	518	408	
7	0	0	0	0	518	408	
8	0	0	0	0	518	408	
9	0	0	0	0	518	408	
10	0	0	0	0	518	407	
11	0	0	0	0	518	408	
12	0	0	0	0	519	409	
13	0	0	0	0	519	409	
14	0	0	0	0	520	409	
15	0	0	0	0	520	409	
0	0	0	0	0	520	408	
1	0	0	0	0	520	409	
2	0	0	0	0	520	409	
3	0	0	0	0	520	408	
4	0	0	0	0	519	409	
5	0	0	0	0	520	408	
6	0	0	0	0	520	408	
7	0	0	0	0	520	408	
8	0	0	0	0	519	408	
9	0	0	0	0	520	409	
10	0	0	0	0	521	409	
11	0	0	0	0	521	408	
12	0	0	0	0	522	409	
13	0	0	0	0	522	408	
14	0	0	0	0	521	409	
15	0	0	0	0	521	409	
0	0	0	0	0	522	408	
1	0	0	0	0	521	409	
2	0	0	0	0	522	408	
3	0	0	0	0	521	408	
4	0	0	0	0	521	409	
5	0	0	0	0	521	408	
6	0	0	0	0	521	408	
7	0	0	0	0	521	408	
8	0	0	0	0	521	408	
9	0	0	0	0	521	409	
10	0	0	0	0	523	408	
11	0	0	0	0	523	408	
12	0	0	0	0	523	409	
13	0	0	0	0	522	409	
14	0	0	0	0	521	409	
15	0	0	0	0	521	408	
0	0	0	0	0	520	409	
1	0	0	0	0	520	409	
2	0	0	0	0	520	410	
3	0	0	0	0	520	409	
4	0	0	0	0	520	410	
5	0	0	0	0	520	409	
6	0	0	0	0	521	409	
7	0	0	0	0	522	409	
8	0	0	0	0	523	408	
9	0	0	0	0	523	409	
10	0	0	0	0	524	409	
11	0	0	0	0	523	409	
12	0	0	0	0	523	410	
13	0	0	0	0	523	409	
14	0	0	0	0	523	409	
15	0	0	0	0	523	409	
0	0	0	0	0	522	409	
1	0	0	0	0	522	409	
2	0	0	0	0	521	409	
3	0	0	0	0	521	409	
4	0	0	0	0	520	410	
5	0	0	0	0	519	409	
6	0	0	0	0	519	409	
7	0	0	0	0	518	409	
8	0	0	0	0	518	408	
9	0	0	0	0	519	409	
10	0	0	0	0	519	408	
11	0	0	0	0	519	409	
12	0	0	0	0	518	409	
13	0	0	0	0	518	408	
14	0	0	0	0	517	408	
15	0	0	0	0	517	408	
0	0	0	0	0	517	408	
1	0	0	0	0	516	408	
2	0	0	0	0	516	408	
3	0	0	0	0	516	408	
4	0	0	0	0	516	408	
5	0	0	0	0	515	407	
6	0	0	0	0	516	407	
7	0	0	0	0	516	408	
8	0	0	0	0	515	407	
9	0	0	0	0	514	407	
10	0	0	0	0	515	407	
11	0	0	0	0	514	407	
12	0	0	0	0	514	408	
13	0	0	0	0	514	408	
14	0	0	0	0	514	408	
15	0	0	0	0	515	408	
0	0	0	0	0	514	407	
1	0	0	0	0	514	408	
2	0	0	0	0	515	407	
3	0	0	0	0	515	407	
4	0	0	0	0	515	409	
5	0	0	0	0	515	408	
6	0	0	0	0	515	408	
7	0	0	0	0	515	407	
8	0	0	0	0	516	407	
9	0	0	0	0	516	408	
10	0	0	0	0	516	409	
11	0	0	0	0	515	408	
12	0	0	0	0	515	409	
13	0	0	0	0	514	409	
14	0	0	0	0	514	409	
15	0	0	0	0	514	410	
0	0	0	0	0	514	408	
1	0	0	0	0	515	409	
2	0	0	0	0	515	409	
3	0	0	0	0	515	408	
4	0	0	0	0	514	410	
5	0	0	0	0	513	409	
6	0	0	0	0	514	409	
7	0	0	0	0	515	409	
8	0	0	0	0	515	409	
9	0	0	0	0	515	409	
10	0	0	0	0	516	408	
11	0	0	0	0	516	408	
12	0	0	0	0	516	409	
13	0	0	0	0	516	408	
14	0	0	0	0	515	408	
15	0	0	0	0	515	408	
0	0	0	0	0	515	408	
1	0	0	0	0	515	408	
2	0	0	0	0	514	409	
3	0	0	0	0	514	408	
4	0	0	0	0	514	409	
5	0	0	0	0	514	408	
6	0	0	0	0	515	409	
7	0	0	0	0	515	409	
8	0	0	0	0	515	408	
9	0	0	0	0	515	409	
10	0	0	0	0	515	409	
11	0	0	0	0	515	409	
12	0	0	0	0	515	410	
13	0	0	0	0	515	409	
14	0	0	0	0	515	409	
15	0	0	0	0	515	410	
0	0	0	0	0	515	409	
1	0	0	0	0	514	410	
2	0	0	0	0	514	409	
3	0	0	0	0	513	409	
4	0	0	0	0	512	410	
5	0	0	0	0	513	409	
6	0	0	0	0	513	409	
7	0	0	0	0	513	409	
8	0	0	0	0	514	409	
9	0	0	0	0	514	409	
10	0	0	0	0	514	410	
11	0	0	0	0	514	409	
12	0	0	0	0	514	410	
13	0	0	0	0	513	409	
14	0	0	0	0	514	409	
15	0	0	0	0	513	409	
0	0	0	0	0	514	409	
1	0	0	0	0	514	409	
2	0	0	0	0	515	409	
3	0	0	0	0	516	409	
4	0	0	0	0	516	410	
5	0	0	0	0	516	409	
6	0	0	0	0	516	409	
7	0	0	0	0	515	409	
8	0	0	0	0	514	408	
9	0	0	0	0	514	409	
10	0	0	0	0	515	409	
11	0	0	0	0	514	409	
12	0	0	0	0	514	409	
13	0	0	0	0	515	409	
14	0	0	0	0	515	408	
15	0	0	0	0	515	409	
0	0	0	0	0	515	408	
1	0	0	0	0	515	408	
2	0	0	0	0	515	408	
3	0	0	0	0	515	408	
4	0	0	0	0	515	409	
5	0	0	0	0	515	408	
6	0	0	0	0	515	409	
7	0	0	0	0	516	408	
8	0	0	0	0	515	408	
9	0	0	0	0	515	408	
10	0	0	0	0	515	409	
11	0	0	0	0	514	408	
12	0	0	0	0	514	409	
13	0	0	0	0	514	408	
14	0	0	0	0	514	408	
15	0	0	0	0	514	407	
0	0	0	0	0	514	407	
1	0	0	0	0	515	408	
2	0	0	0	0	516	408	
3	0	0	0	0	516	407	
4	0	0	0	0	515	408	
5	0	0	0	0	516	408	
6	0	0	0	0	515	407	
7	0	0	0	0	515	407	
8	0	0	0	0	515	407	
9	0	0	0	0	516	406	
10	0	0	0	0	515	407	
11	0	0	0	0	517	408	
12	0	0	0	0	517	408	
13	0	0	0	0	516	408	
14	0	0	0	0	517	408	
15	0	0	0	0	516	408	
0	0	0	0	0	515	408	
1	0	0	0	0	515	408	
2	0	0	0	0	515	408	
3	0	0	0	0	515	408	
4	0	0	0	0	514	409	
5	0	0	0	0	514	408	
6	0	0	0	0	514	408	
7	0	0	0	0	513	408	
8	0	0	0	0	513	408	
9	0	0	0	0	514	408	
10	0	0	0	0	515	408	
11	0	0	0	0	515	408	
12	0	0	0	0	516	408	
13	0	0	0	0	516	408	
14	0	0	0	0	516	408	
15	0	0	0	0	515	408	
0	0	0	0	0	516	408	
1	0	0	0	0	515	408	
2	0	0	0	0	515	408	
3	0	0	0	0	514	408	
4	0	0	0	0	513	408	
5	0	0	0	0	512	408	
6	0	0	0	0	512	407	
7	0	0	0	0	512	408	
8	0	0	0	0	511	407	
9	0	0	0	0	511	408	
10	0	0	0	0	511	408	
11	0	0	0	0	511	407	
12	0	0	0	0	511	408	
13	0	0	0	0	511	407	
14	0	0	0	0	512	406	
15	0	0	0	0	512	406	
0	0	0	0	0	512	407	
1	0	0	0	0	512	407	
2	0	0	0	0	513	406	
3	0	0	0	0	513	407	
4	0	0	0	0	513	408	
5	0	0	0	0	513	407	
6	0	0	0	0	512	408	
7	0	0	0	0	512	407	
8	0	0	0	0	512	407	
9	0	0	0	0	512	408	
10	0	0	0	0	512	408	
11	0	0	0	0	512	408	
12	0	0	0	0	512	409	
13	0	0	0	0	512	408	
14	0	0	0	0	512	408	
15	0	0	0	0	513	408	
0	0	0	0	0	513	407	
1	0	0	0	0	512	408	
2	0	0	0	0	513	408	
3	0	0	0	0	513	408	
4	0	0	0	0	514	409	
5	0	0	0	0	515	408	
6	0	0	0	0	516	408	
7	0	0	0	0	517	408	
8	0	0	0	0	518	409	
9	0	0	0	0	518	408	
10	0	0	0	0	517	409	
11	0	0	0	0	517	409	
12	0	0	0	0	518	409	
13	0	0	0	0	518	409	
14	0	0	0	0	519	409	
15	0	0	0	0	519	410	
0	0	0	0	0	519	410	
1	0	0	0	0	519	410	
2	0	0	0	0	519	410	
3	0	0	0	0	519	409	
4	0	0	0	0	519	410	
5	0	0	0	0	519	409	
6	0	0	0	0	519	410	
7	0	0	0	0	518	410	
8	0	0	0	0	518	409	
9	0	0	0	0	517	409	
10	0	0	0	0	517	409	
11	0	0	0	0	518	409	
12	0	0	0	0	518	410	
13	0	0	0	0	518	408	
14	0	0	0	0	519	409	
15	0	0	0	0	519	409	
0	0	0	0	0	520	408	
1	0	0	0	0	521	408	
2	0	0	0	0	521	408	
3	0	0	0	0	521	409	
4	0	0	0	0	521	409	
5	0	0	0	0	521	408	
6	0	0	0	0	520	408	
7	0	0	0	0	520	408	
8	0	0	0	0	520	408	
9	0	0	0	0	520	408	
10	0	0	0	0	519	409	
11	0	0	0	0	519	408	
12	0	0	0	0	519	409	
13	0	0	0	0	517	408	
14	0	0	0	0	516	408	
15	0	0	0	0	515	409	
0	0	0	0	0	515	408	
1	0	0	0	0	515	409	
2	0	0	0	0	514	409	
3	0	0	0	0	514	409	
4	0	0	0	0	513	409	
5	0	0	0	0	513	409	
6	0	0	0	0	513	409	
7	0	0	0	0	512	409	
8	0	0	0	0	512	409	
9	0	0	0	0	512	409	
10	0	0	0	0	512	409	
11	0	0	0	0	512	409	
12	0	0	0	0	512	409	
13	0	0	0	0	512	408	
14	0	0	0	0	512	408	
15	0	0	0	0	512	408	
0	0	0	0	0	512	408	
1	0	0	0	0	512	408	
2	0	0	0	0	513	408	
3	0	0	0	0	513	407	
4	0	0	0	0	514	408	
5	0	0	0	0	513	408	
6	0	0	0	0	512	407	
7	0	0	0	0	512	408	
8	0	0	0	0	512	407	
9	0	0	0	0	512	407	
10	0	0	0	0	511	407	
11	0	0	0	0	511	407	
12	0	0	0	0	511	408	
13	0	0	0	0	510	407	
14	0	0	0	0	511	408	
15	0	0	0	0	510	407	
0	0	0	0	0	510	407	
1	0	0	0	0	510	408	
2	0	0	0	0	510	408	
3	0	0	0	0	510	408	
4	0	0	0	0	509	408	
5	0	0	0	0	509	408	
6	0	0	0	0	509	408	
7	0	0	0	0	510	408	
8	0	0	0	0	510	408	
9	0	0	0	0	509	408	
10	0	0	0	0	508	408	
11	0	0	0	0	507	409	
12	0	0	0	0	505	409	
13	0	0	0	0	504	408	
14	0	0	0	0	501	408	
15	0	0	0	0	498	408	
0	0	0	0	0	495	408	
1	0	0	0	0	490	408	
2	0	0	0	0	487	409	
3	0	0	0	0	483	409	
4	0	0	0	0	479	409	
5	0	0	0	0	475	409	
6	0	0	0	0	472	409	
7	0	0	0	0	468	410	
8	0	0	0	0	464	409	
9	0	0	0	0	460	410	
10	0	0	0	0	455	410	
11	0	0	0	0	451	410	
12	0	0	0	0	448	410	
13	0	0	0	0	444	409	
14	0	0	0	0	440	409	
15	0	0	0	0	436	409	
0	0	0	0	0	433	409	
1	0	0	0	0	432	410	
2	0	0	0	0	432	410	
3	0	0	0	0	435	410	
4	0	0	0	0	437	411	
5	0	0	0	0	441	409	
6	0	0	0	0	447	410	
7	0	0	0	0	454	409	
8	0	0	0	0	463	408	
9	0	0	0	0	473	409	
10	0	0	0	0	484	409	
11	0	0	0	0	496	409	
12	0	0	0	0	507	409	
13	0	0	0	0	520	409	
14	0	0	0	0	532	409	
15	0	0	0	0	545	409	
0	0	0	0	0	558	409	
1	0	0	0	0	569	408	
2	0	0	0	0	580	408	
3	0	0	0	0	589	409	
4	0	0	0	0	598	409	
5	0	0	0	0	608	409	
6	0	0	0	0	616	409	
7	0	0	0	0	624	409	
8	0	0	0	0	633	408	
9	0	0	0	0	642	408	
10	0	0	0	0	652	408	
11	0	0	0	0	664	408	
12	0	0	0	0	677	408	
13	0	0	0	0	689	408	
14	0	0	0	0	701	408	
15	0	0	0	0	711	408	
0	0	0	0	0	717	408	
1	0	0	0	0	719	407	
2	0	0	0	0	719	408	
3	0	0	0	0	715	408	
4	0	0	0	0	709	408	
5	0	0	0	0	699	408	
6	0	0	0	0	686	408	
7	0	0	0	0	672	408	
8	0	0	0	0	657	407	
9	0	0	0	0	641	407	
10	0	0	0	0	625	408	
11	0	0	0	0	609	408	
12	0	0	0	0	593	408	
13	0	0	0	0	579	408	
14	0	0	0	0	567	408	
15	0	0	0	0	556	408	
0	0	0	0	0	545	408	
1	0	0	0	0	536	408	
2	0	0	0	0	529	408	
3	0	0	0	0	521	408	
4	0	0	0	0	515	409	
5	0	0	0	0	508	408	
6	0	0	0	0	502	408	
7	0	0	0	0	497	408	
8	0	0	0	0	492	408	
9	0	0	0	0	488	409	
10	0	0	0	0	484	408	
11	0	0	0	0	480	408	
12	0	0	0	0	477	409	
13	0	0	0	0	475	408	
14	0	0	0	0	475	408	
15	0	0	0	0	474	408	
0	0	0	0	0	473	408	
1	0	0	0	0	471	409	
2	0	0	0	0	471	408	
3	0	0	0	0	470	409	
4	0	0	0	0	470	409	
5	0	0	0	0	470	408	
6	0	0	0	0	469	408	
7	0	0	0	0	468	408	
8	0	0	0	0	468	408	
9	0	0	0	0	468	408	
10	0	0	0	0	468	408	
11	0	0	0	0	469	409	
12	0	0	0	0	469	409	
13	0	0	0	0	469	409	
14	0	0	0	0	468	409	
15	0	0	0	0	468	409	
0	0	0	0	0	468	408	
1	0	0	0	0	468	409	
2	0	0	0	0	468	409	
3	0	0	0	0	468	408	
4	0	0	0	0	468	409	
5	0	0	0	0	468	408	
6	0	0	0	0	469	408	
7	0	0	0	0	470	408	
8	0	0	0	0	470	408	
9	0	0	0	0	470	408	
10	0	0	0	0	470	408	
11	0	0	0	0	470	408	
12	0	0	0	0	471	408	
13	0	0	0	0	471	408	
14	0	0	0	0	472	408	
15	0	0	0	0	472	408	
0	0	0	0	0	472	408	
1	0	0	0	0	472	408	
2	0	0	0	0	473	408	
3	0	0	0	0	473	408	
4	0	0	0	0	473	409	
5	0	0	0	0	473	408	
6	0	0	0	0	472	409	
7	0	0	0	0	472	409	
8	0	0	0	0	472	408	
9	0	0	0	0	473	408	
10	0	0	0	0	473	408	
11	0	0	0	0	473	408	
12	0	0	0	0	472	409	
13	0	0	0	0	472	408	
14	0	0	0	0	472	408	
15	0	0	0	0	472	408	
0	0	0	0	0	472	408	
1	0	0	0	0	472	408	
2	0	0	0	0	472	408	
3	0	0	0	0	473	408	
4	0	0	0	0	473	408	
5	0	0	0	0	474	408	
6	0	0	0	0	474	408	
7	0	0	0	0	475	408	
8	0	0	0	0	475	408	
9	0	0	0	0	475	408	
10	0	0	0	0	476	408	
11	0	0	0	0	476	408	
12	0	0	0	0	477	408	
13	0	0	0	0	477	408	
14	0	0	0	0	477	408	
15	0	0	0	0	477	408	
0	0	0	0	0	478	408	
1	0	0	0	0	478	408	
2	0	0	0	0	478	408	
3	0	0	0	0	478	407	
4	0	0	0	0	478	408	
5	0	0	0	0	478	408	
6	0	0	0	0	479	407	
7	0	0	0	0	479	407	
8	0	0	0	0	480	407	
9	0	0	0	0	480	407	
10	0	0	0	0	480	408	
11	0	0	0	0	480	407	
12	0	0	0	0	481	408	
13	0	0	0	0	480	407	
14	0	0	0	0	481	407	
15	0	0	0	0	480	407	
0	0	0	0	0	481	407	
1	0	0	0	0	481	407	
2	0	0	0	0	482	407	
3	0	0	0	0	482	407	
4	0	0	0	0	481	408	
5	0	0	0	0	481	408	
6	0	0	0	0	481	408	
7	0	0	0	0	481	408	
8	0	0	0	0	481	407	
9	0	0	0	0	482	407	
10	0	0	0	0	482	408	
11	0	0	0	0	482	408	
12	0	0	0	0	482	409	
13	0	0	0	0	482	408	
14	0	0	0	0	482	408	
15	0	0	0	0	483	408	
0	0	0	0	0	484	408	
1	0	0	0	0	483	408	
2	0	0	0	0	483	408	
3	0	0	0	0	483	408	
4	0	0	0	0	482	409	
5	0	0	0	0	482	408	
6	0	0	0	0	483	409	
7	0	0	0	0	482	409	
8	0	0	0	0	482	408	
9	0	0	0	0	482	409	
10	0	0	0	0	482	409	
11	0	0	0	0	483	409	
12	0	0	0	0	483	410	
13	0	0	0	0	483	409	
14	0	0	0	0	483	409	
15	0	0	0	0	483	409	
0	0	0	0	0	483	409	
1	0	0	0	0	482	409	
2	0	0	0	0	481	409	
3	0	0	0	0	481	408	
4	0	0	0	0	480	409	
5	0	0	0	0	480	408	
6	0	0	0	0	480	409	
7	0	0	0	0	480	408	
8	0	0	0	0	480	409	
9	0	0	0	0	481	408	
10	0	0	0	0	481	409	
11	0	0	0	0	482	409	
12	0	0	0	0	482	410	
13	0	0	0	0	482	409	
14	0	0	0	0	482	409	
15	0	0	0	0	483	409	
0	0	0	0	0	483	409	
1	0	0	0	0	484	409	
2	0	0	0	0	484	409	
3	0	0	0	0	483	409	
4	0	0	0	0	482	410	
5	0	0	0	0	482	409	
6	0	0	0	0	481	408	
7	0	0	0	0	482	409	
8	0	0	0	0	482	409	
9	0	0	0	0	482	409	
10	0	0	0	0	482	410	
11	0	0	0	0	483	409	
12	0	0	0	0	483	411	
13	0	0	0	0	483	409	
14	0	0	0	0	483	409	
15	0	0	0	0	484	410	
0	0	0	0	0	484	409	
1	0	0	0	0	485	409	
2	0	0	0	0	486	409	
3	0	0	0	0	486	410	
4	0	0	0	0	487	411	
5	0	0	0	0	488	409	
6	0	0	0	0	489	410	
7	0	0	0	0	490	410	
8	0	0	0	0	490	410	
9	0	0	0	0	490	409	
10	0	0	0	0	491	409	
11	0	0	0	0	491	409	
12	0	0	0	0	491	409	
13	0	0	0	0	492	408	
14	0	0	0	0	492	409	
15	0	0	0	0	492	409	
0	0	0	0	0	492	409	
1	0	0	0	0	492	409	
2	0	0	0	0	492	409	
3	0	0	0	0	492	409	
4	0	0	0	0	493	410	
5	0	0	0	0	494	408	
6	0	0	0	0	495	409	
7	0	0	0	0	496	409	
8	0	0	0	0	496	408	
9	0	0	0	0	496	409	
10	0	0	0	0	496	409	
11	0	0	0	0	496	409	
12	0	0	0	0	497	409	
13	0	0	0	0	498	409	
14	0	0	0	0	499	409	
15	0	0	0	0	499	409	
0	0	0	0	0	499	409	
1	0	0	0	0	500	409	
2	0	0	0	0	500	409	
3	0	0	0	0	501	409	
4	0	0	0	0	502	410	
5	0	0	0	0	503	409	
6	0	0	0	0	503	409	
7	0	0	0	0	503	409	
8	0	0	0	0	504	409	
9	0	0	0	0	504	409	
10	0	0	0	0	505	409	
11	0	0	0	0	505	408	
12	0	0	0	0	506	410	
13	0	0	0	0	507	409	
14	0	0	0	0	508	408	
15	0	0	0	0	508	409	
0	0	0	0	0	509	408	
1	0	0	0	0	509	409	
2	0	0	0	0	510	409	
3	0	0	0	0	511	408	
4	0	0	0	0	511	409	
5	0	0	0	0	511	408	
6	0	0	0	0	512	408	
7	0	0	0	0	512	408	
8	0	0	0	0	512	408	
9	0	0	0	0	513	408	
10	0	0	0	0	512	408	
11	0	0	0	0	513	408	
12	0	0	0	0	513	409	
13	0	0	0	0	513	407	
14	0	0	0	0	513	407	
15	0	0	0	0	514	408	
0	0	0	0	0	515	408	
1	0	0	0	0	515	408	
2	0	0	0	0	516	408	
3	0	0	0	0	517	408	
4	0	0	0	0	517	408	
5	0	0	0	0	517	408	
6	0	0	0	0	518	407	
7	0	0	0	0	518	408	
8	0	0	0	0	519	408	
9	0	0	0	0	519	407	
10	0	0	0	0	519	408	
11	0	0	0	0	518	407	
12	0	0	0	0	517	408	
13	0	0	0	0	517	407	
14	0	0	0	0	517	407	
15	0	0	0	0	517	408	
0	0	0	0	0	518	407	
1	0	0	0	0	518	407	
2	0	0	0	0	519	407	
3	0	0	0	0	521	407	
4	0	0	0	0	520	408	
5	0	0	0	0	520	407	
6	0	0	0	0	520	407	
7	0	0	0	0	520	406	
8	0	0	0	0	520	405	
9	0	0	0	0	521	406	
10	0	0	0	0	521	406	
11	0	0	0	0	521	407	
12	0	0	0	0	522	407	
13	0	0	0	0	522	407	
14	0	0	0	0	521	407	
15	0	0	0	0	521	407	
0	0	0	0	0	521	407	
1	0	0	0	0	522	406	
2	0	0	0	0	523	407	
3	0	0	0	0	523	407	
4	0	0	0	0	524	408	
5	0	0	0	0	524	407	
6	0	0	0	0	524	407	
7	0	0	0	0	524	407	
8	0	0	0	0	524	407	
9	0	0	0	0	524	407	
10	0	0	0	0	524	408	
11	0	0	0	0	524	408	
12	0	0	0	0	524	408	
13	0	0	0	0	524	408	
14	0	0	0	0	523	408	
15	0	0	0	0	523	408	
0	0	0	0	0	523	408	
1	0	0	0	0	523	408	
2	0	0	0	0	524	408	
3	0	0	0	0	524	408	
4	0	0	0	0	524	409	
5	0	0	0	0	524	409	
6	0	0	0	0	524	409	
7	0	0	0	0	524	409	
8	0	0	0	0	525	408	
9	0	0	0	0	525	408	
10	0	0	0	0	525	408	
11	0	0	0	0	524	409	
12	0	0	0	0	523	409	
13	0	0	0	0	523	408	
14	0	0	0	0	523	408	
15	0	0	0	0	522	408	
0	0	0	0	0	522	407	
1	0	0	0	0	522	408	
2	0	0	0	0	521	408	
3	0	0	0	0	521	408	
4	0	0	0	0	521	409	
5	0	0	0	0	520	408	
6	0	0	0	0	520	408	
7	0	0	0	0	519	408	
8	0	0	0	0	519	408	
9	0	0	0	0	519	408	
10	0	0	0	0	519	409	
11	0	0	0	0	520	409	
12	0	0	0	0	520	409	
13	0	0	0	0	520	409	
14	0	0	0	0	520	409	
15	0	0	0	0	519	408	
0	0	0	0	0	519	408	
1	0	0	0	0	521	408	
2	0	0	0	0	521	409	
3	0	0	0	0	522	408	
4	0	0	0	0	521	409	
5	0	0	0	0	521	408	
6	0	0	0	0	520	408	
7	0	0	0	0	520	409	
8	0	0	0	0	519	408	
9	0	0	0	0	519	409	
10	0	0	0	0	519	409	
11	0	0	0	0	519	408	
12	0	0	0	0	518	409	
13	0	0	0	0	519	409	
14	0	0	0	0	519	408	
15	0	0	0	0	519	409	
0	0	0	0	0	519	409	
1	0	0	0	0	519	409	
2	0	0	0	0	519	409	
3	0	0	0	0	519	409	
4	0	0	0	0	518	410	
5	0	0	0	0	518	409	
6	0	0	0	0	517	409	
7	0	0	0	0	517	409	
8	0	0	0	0	516	409	
9	0	0	0	0	516	409	
10	0	0	0	0	517	409	
11	0	0	0	0	517	410	
12	0	0	0	0	517	411	
13	0	0	0	0	516	410	
14	0	0	0	0	517	409	
15	0	0	0	0	516	409	
0	0	0	0	0	516	409	
1	0	0	0	0	517	409	
2	0	0	0	0	517	409	
3	0	0	0	0	518	409	
4	0	0	0	0	518	411	
5	0	0	0	0	519	410	
6	0	0	0	0	519	409	
7	0	0	0	0	519	410	
8	0	0	0	0	519	409	
9	0	0	0	0	518	409	
10	0	0	0	0	518	409	
11	0	0	0	0	516	409	
12	0	0	0	0	515	409	
13	0	0	0	0	515	408	
14	0	0	0	0	514	409	
15	0	0	0	0	514	409	
0	0	0	0	0	513	408	
1	0	0	0	0	513	408	
2	0	0	0	0	514	408	
3	0	0	0	0	515	408	
4	0	0	0	0	515	409	
5	0	0	0	0	515	408	
6	0	0	0	0	515	408	
7	0	0	0	0	515	408	
8	0	0	0	0	515	408	
9	0	0	0	0	515	408	
10	0	0	0	0	514	408	
11	0	0	0	0	513	408	
12	0	0	0	0	514	409	
13	0	0	0	0	514	409	
14	0	0	0	0	515	408	
15	0	0	0	0	514	409	
0	0	0	0	0	515	408	
1	0	0	0	0	515	409	
2	0	0	0	0	515	409	
3	0	0	0	0	514	409	
4	0	0	0	0	514	410	
5	0	0	0	0	515	409	
6	0	0	0	0	515	409	
7	0	0	0	0	515	409	
8	0	0	0	0	515	409	
9	0	0	0	0	515	409	
10	0	0	0	0	515	409	
11	0	0	0	0	516	409	
12	0	0	0	0	516	410	
13	0	0	0	0	516	409	
14	0	0	0	0	516	409	
15	0	0	0	0	517	409	
0	0	0	0	0	518	409	
1	0	0	0	0	518	409	
2	0	0	0	0	518	409	
3	0	0	0	0	518	409	
4	0	0	0	0	518	410	
5	0	0	0	0	518	409	
6	0	0	0	0	518	409	
7	0	0	0	0	517	408	
8	0	0	0	0	517	409	
9	0	0	0	0	517	409	
10	0	0	0	0	516	408	
11	0	0	0	0	516	409	
12	0	0	0	0	516	409	
13	0	0	0	0	515	408	
14	0	0	0	0	515	408	
15	0	0	0	0	516	408	
0	0	0	0	0	516	408	
1	0	0	0	0	516	408	
2	0	0	0	0	516	408	
3	0	0	0	0	516	408	
4	0	0	0	0	516	409	
5	0	0	0	0	515	408	
6	0	0	0	0	515	408	
7	0	0	0	0	515	408	
8	0	0	0	0	515	408	
9	0	0	0	0	515	408	
10	0	0	0	0	515	408	
11	0	0	0	0	515	408	
12	0	0	0	0	515	408	
13	0	0	0	0	514	408	
14	0	0	0	0	513	408	
15	0	0	0	0	513	408	
0	0	0	0	0	513	408	
1	0	0	0	0	513	408	
2	0	0	0	0	513	408	
3	0	0	0	0	513	408	
4	0	0	0	0	514	409	
5	0	0	0	0	514	408	
6	0	0	0	0	515	408	
7	0	0	0	0	515	408	
8	0	0	0	0	516	408	
9	0	0	0	0	517	408	
10	0	0	0	0	517	408	
11	0	0	0	0	518	408	
12	0	0	0	0	518	409	
13	0	0	0	0	518	408	
14	0	0	0	0	518	408	
15	0	0	0	0	518	408	
0	0	0	0	0	518	407	
1	0	0	0	0	518	408	
2	0	0	0	0	517	408	
3	0	0	0	0	516	408	
4	0	0	0	0	516	408	
5	0	0	0	0	515	408	
6	0	0	0	0	515	408	
7	0	0	0	0	516	408	
8	0	0	0	0	516	408	
9	0	0	0	0	516	408	
10	0	0	0	0	516	408	
11	0	0	0	0	516	407	
12	0	0	0	0	516	408	
13	0	0	0	0	515	408	
14	0	0	0	0	515	408	
15	0	0	0	0	515	408	
0	0	0	0	0	515	408	
1	0	0	0	0	515	408	
2	0	0	0	0	515	408	
3	0	0	0	0	515	408	
4	0	0	0	0	515	408	
5	0	0	0	0	515	407	
6	0	0	0	0	515	407	
7	0	0	0	0	514	407	
8	0	0	0	0	514	408	
9	0	0	0	0	514	408	
10	0	0	0	0	515	407	
11	0	0	0	0	515	408	
12	0	0	0	0	515	409	
13	0	0	0	0	515	408	
14	0	0	0	0	515	408	
15	0	0	0	0	515	408	
0	0	0	0	0	514	408	
1	0	0	0	0	514	408	
2	0	0	0	0	513	408	
3	0	0	0	0	512	407	
4	0	0	0	0	514	409	
5	0	0	0	0	513	407	
6	0	0	0	0	513	408	
7	0	0	0	0	513	408	
8	0	0	0	0	512	408	
9	0	0	0	0	512	408	
10	0	0	0	0	512	408	
11	0	0	0	0	511	408	
12	0	0	0	0	511	409	
13	0	0	0	0	511	408	
14	0	0	0	0	511	408	
15	0	0	0	0	512	408	
0	0	0	0	0	512	407	
1	0	0	0	0	512	407	
2	0	0	0	0	512	408	
3	0	0	0	0	512	408	
4	0	0	0	0	512	408	
5	0	0	0	0	512	408	
6	0	0	0	0	512	408	
7	0	0	0	0	512	408	
8	0	0	0	0	511	407	
9	0	0	0	0	512	408	
10	0	0	0	0	512	408	
11	0	0	0	0	514	408	
12	0	0	0	0	515	409	
13	0	0	0	0	515	408	
14	0	0	0	0	514	408	
15	0	0	0	0	513	409	
0	0	0	0	0	512	408	
1	0	0	0	0	512	409	
2	0	0	0	0	511	408	
3	0	0	0	0	511	408	
4	0	0	0	0	510	409	
5	0	0	0	0	511	408	
6	0	0	0	0	511	409	
7	0	0	0	0	511	409	
8	0	0	0	0	511	409	
9	0	0	0	0	511	409	
10	0	0	0	0	511	408	
11	0	0	0	0	510	409	
12	0	0	0	0	509	409	
13	0	0	0	0	508	409	
14	0	0	0	0	508	409	
15	0	0	0	0	508	409	
0	0	0	0	0	508	408	
1	0	0	0	0	508	409	
2	0	0	0	0	508	409	
3	0	0	0	0	509	409	
4	0	0	0	0	508	410	
5	0	0	0	0	510	409	
6	0	0	0	0	511	409	
7	0	0	0	0	511	409	
8	0	0	0	0	512	408	
9	0	0	0	0	512	409	
10	0	0	0	0	512	409	
11	0	0	0	0	513	409	
12	0	0	0	0	513	410	
13	0	0	0	0	513	409	
14	0	0	0	0	514	408	
15	0	0	0	0	515	409	
0	0	0	0	0	516	408	
1	0	0	0	0	517	409	
2	0	0	0	0	517	410	
3	0	0	0	0	516	409	
4	0	0	0	0	516	410	
5	0	0	0	0	517	409	
6	0	0	0	0	517	409	
7	0	0	0	0	517	410	
8	0	0	0	0	517	409	
9	0	0	0	0	518	409	
10	0	0	0	0	519	410	
11	0	0	0	0	520	410	
12	0	0	0	0	520	410	
13	0	0	0	0	520	409	
14	0	0	0	0	521	411	
15	0	0	0	0	521	410	
0	0	0	0	0	521	409	
1	0	0	0	0	521	410	
2	0	0	0	0	521	410	
3	0	0	0	0	520	409	
4	0	0	0	0	520	410	
5	0	0	0	0	520	409	
6	0	0	0	0	521	410	
7	0	0	0	0	520	409	
8	0	0	0	0	520	409	
9	0	0	0	0	519	409	
10	0	0	0	0	519	409	
11	0	0	0	0	518	408	
12	0	0	0	0	517	410	
13	0	0	0	0	516	409	
14	0	0	0	0	516	409	
15	0	0	0	0	517	409	
0	0	0	0	0	516	408	
1	0	0	0	0	515	409	
2	0	0	0	0	515	408	
3	0	0	0	0	513	408	
4	0	0	0	0	512	408	
5	0	0	0	0	512	408	
6	0	0	0	0	512	408	
7	0	0	0	0	512	408	
8	0	0	0	0	512	407	
9	0	0	0	0	512	408	
10	0	0	0	0	513	406	
11	0	0	0	0	514	407	
12	0	0	0	0	514	408	
13	0	0	0	0	515	407	
14	0	0	0	0	515	407	
15	0	0	0	0	514	407	
0	0	0	0	0	513	406	
1	0	0	0	0	512	408	
2	0	0	0	0	512	408	
3	0	0	0	0	512	408	
4	0	0	0	0	513	408	
5	0	0	0	0	513	408	
6	0	0	0	0	513	408	
7	0	0	0	0	513	408	
8	0	0	0	0	513	408	
9	0	0	0	0	513	408	
10	0	0	0	0	514	408	
11	0	0	0	0	514	408	
12	0	0	0	0	513	408	
13	0	0	0	0	513	408	
14	0	0	0	0	512	408	
15	0	0	0	0	511	408	
0	0	0	0	0	510	408	
1	0	0	0	0	510	408	
2	0	0	0	0	509	408	
3	0	0	0	0	509	408	
4	0	0	0	0	509	408	
5	0	0	0	0	509	408	
6	0	0	0	0	509	407	
7	0	0	0	0	509	407	
8	0	0	0	0	508	407	
9	0	0	0	0	508	408	
10	0	0	0	0	508	407	
11	0	0	0	0	509	408	
12	0	0	0	0	509	408	
13	0	0	0	0	508	407	
14	0	0	0	0	508	407	
15	0	0	0	0	508	408	
0	0	0	0	0	506	408	
1	0	0	0	0	504	408	
2	0	0	0	0	501	408	
3	0	0	0	0	498	408	
4	0	0	0	0	495	409	
5	0	0	0	0	492	408	
6	0	0	0	0	487	408	
7	0	0	0	0	483	408	
8	0	0	0	0	479	408	
9	0	0	0	0	475	408	
10	0	0	0	0	472	409	
11	0	0	0	0	467	408	
12	0	0	0	0	463	409	
13	0	0	0	0	459	408	
14	0	0	0	0	455	408	
15	0	0	0	0	450	409	
0	0	0	0	0	447	408	
1	0	0	0	0	444	409	
2	0	0	0	0	440	409	
3	0	0	0	0	438	409	
4	0	0	0	0	436	409	
5	0	0	0	0	436	409	
6	0	0	0	0	438	408	
7	0	0	0	0	440	409	
8	0	0	0	0	443	409	
9	0	0	0	0	448	409	
10	0	0	0	0	453	408	
11	0	0	0	0	461	408	
12	0	0	0	0	471	409	
13	0	0	0	0	480	408	
14	0	0	0	0	490	408	
15	0	0	0	0	501	408	
0	0	0	0	0	512	408	
1	0	0	0	0	523	408	
2	0	0	0	0	535	408	
3	0	0	0	0	545	408	
4	0	0	0	0	555	409	
5	0	0	0	0	565	408	
6	0	0	0	0	575	408	
7	0	0	0	0	586	408	
8	0	0	0	0	597	408	
9	0	0	0	0	607	408	
10	0	0	0	0	616	409	
11	0	0	0	0	626	408	
12	0	0	0	0	637	409	
13	0	0	0	0	649	409	
14	0	0	0	0	660	409	
15	0	0	0	0	673	408	
0	0	0	0	0	687	409	
1	0	0	0	0	700	409	
2	0	0	0	0	710	409	
3	0	0	0	0	716	409	
4	0	0	0	0	718	410	
5	0	0	0	0	719	410	
6	0	0	0	0	715	409	
7	0	0	0	0	708	410	
8	0	0	0	0	698	409	
9	0	0	0	0	686	410	
10	0	0	0	0	672	410	
11	0	0	0	0	656	409	
12	0	0	0	0	641	411	
13	0	0	0	0	625	409	
14	0	0	0	0	610	410	
15	0	0	0	0	595	410	
0	0	0	0	0	580	409	
1	0	0	0	0	568	409	
2	0	0	0	0	557	409	
3	0	0	0	0	546	409	
4	0	0	0	0	537	409	
5	0	0	0	0	528	409	
6	0	0	0	0	520	409	
7	0	0	0	0	514	408	
8	0	0	0	0	508	408	
9	0	0	0	0	503	408	
10	0	0	0	0	498	408	
11	0	0	0	0	494	408	
12	0	0	0	0	489	409	
13	0	0	0	0	486	408	
14	0	0	0	0	483	407	
15	0	0	0	0	480	408	
0	0	0	0	0	478	408	
1	0	0	0	0	476	408	
2	0	0	0	0	474	408	
3	0	0	0	0	473	408	
4	0	0	0	0	472	408	
5	0	0	0	0	472	408	
6	0	0	0	0	471	408	
7	0	0	0	0	471	407	
8	0	0	0	0	470	407	
9	0	0	0	0	469	407	
10	0	0	0	0	468	408	
11	0	0	0	0	468	408	
12	0	0	0	0	468	409	
13	0	0	0	0	469	407	
14	0	0	0	0	469	407	
15	0	0	0	0	468	408	
0	0	0	0	0	468	407	
1	0	0	0	0	468	408	
2	0	0	0	0	468	408	
3	0	0	0	0	468	408	
4	0	0	0	0	469	408	
5	0	0	0	0	469	408	
6	0	0	0	0	468	408	
7	0	0	0	0	469	408	
8	0	0	0	0	469	408	
9	0	0	0	0	468	408	
10	0	0	0	0	469	408	
11	0	0	0	0	468	407	
12	0	0	0	0	467	407	
13	0	0	0	0	466	407	
14	0	0	0	0	467	407	
15	0	0	0	0	467	407	
0	0	0	0	0	468	408	
1	0	0	0	0	469	408	
2	0	0	0	0	470	408	
3	0	0	0	0	472	408	
4	0	0	0	0	472	409	
5	0	0	0	0	473	408	
6	0	0	0	0	473	409	
7	0	0	0	0	474	409	
8	0	0	0	0	475	408	
9	0	0	0	0	474	408	
10	0	0	0	0	474	408	
11	0	0	0	0	474	409	
12	0	0	0	0	474	409	
13	0	0	0	0	475	409	
14	0	0	0	0	475	409	
15	0	0	0	0	475	409	
0	0	0	0	0	475	408	
1	0	0	0	0	475	408	
2	0	0	0	0	475	409	
3	0	0	0	0	476	409	
4	0	0	0	0	476	409	
5	0	0	0	0	476	408	
6	0	0	0	0	477	408	
7	0	0	0	0	477	408	
8	0	0	0	0	477	408	
9	0	0	0	0	477	409	
10	0	0	0	0	478	409	
11	0	0	0	0	479	409	
12	0	0	0	0	479	410	
13	0	0	0	0	479	409	
14	0	0	0	0	479	409	
15	0	0	0	0	479	409	
0	0	0	0	0	478	408	
1	0	0	0	0	478	409	
2	0	0	0	0	478	409	
3	0	0	0	0	477	409	
4	0	0	0	0	477	409	
5	0	0	0	0	476	409	
6	0	0	0	0	476	409	
7	0	0	0	0	477	409	
8	0	0	0	0	478	408	
9	0	0	0	0	478	408	
10	0	0	0	0	478	408	
11	0	0	0	0	479	409	
12	0	0	0	0	479	409	
13	0	0	0	0	480	409	
14	0	0	0	0	481	409	
15	0	0	0	0	481	408	
0	0	0	0	0	481	408	
1	0	0	0	0	480	408	
2	0	0	0	0	480	408	
3	0	0	0	0	480	408	
4	0	0	0	0	480	409	
5	0	0	0	0	481	408	
6	0	0	0	0	480	408	
7	0	0	0	0	481	408	
8	0	0	0	0	481	408	
9	0	0	0	0	481	408	
10	0	0	0	0	481	408	
11	0	0	0	0	482	408	
12	0	0	0	0	482	408	
13	0	0	0	0	481	408	
14	0	0	0	0	482	408	
15	0	0	0	0	482	408	
0	0	0	0	0	482	408	
1	0	0	0	0	482	408	
2	0	0	0	0	483	408	
3	0	0	0	0	483	407	
4	0	0	0	0	483	408	
5	0	0	0	0	483	408	
6	0	0	0	0	483	407	
7	0	0	0	0	483	408	
8	0	0	0	0	483	408	
9	0	0	0	0	481	408	
10	0	0	0	0	481	408	
11	0	0	0	0	480	408	
12	0	0	0	0	480	408	
13	0	0	0	0	480	408	
14	0	0	0	0	481	408	
15	0	0	0	0	481	409	
0	0	0	0	0	481	408	
1	0	0	0	0	481	409	
2	0	0	0	0	481	409	
3	0	0	0	0	481	408	
4	0	0	0	0	481	409	
5	0	0	0	0	481	409	
6	0	0	0	0	481	409	
7	0	0	0	0	482	409	
8	0	0	0	0	482	408	
9	0	0	0	0	482	409	
10	0	0	0	0	482	409	
11	0	0	0	0	482	409	
12	0	0	0	0	482	411	
13	0	0	0	0	481	410	
14	0	0	0	0	481	410	
15	0	0	0	0	480	409	
0	0	0	0	0	480	409	
1	0	0	0	0	479	410	
2	0	0	0	0	479	410	
3	0	0	0	0	480	410	
4	0	0	0	0	480	411	
5	0	0	0	0	480	409	
6	0	0	0	0	480	409	
7	0	0	0	0	480	409	
8	0	0	0	0	480	409	
9	0	0	0	0	481	409	
10	0	0	0	0	481	409	
11	0	0	0	0	481	409	
12	0	0	0	0	481	409	
13	0	0	0	0	482	409	
14	0	0	0	0	483	409	
15	0	0	0	0	483	408	
0	0	0	0	0	482	409	
1	0	0	0	0	482	409	
2	0	0	0	0	483	408	
3	0	0	0	0	484	409	
4	0	0	0	0	484	409	
5	0	0	0	0	484	409	
6	0	0	0	0	485	409	
7	0	0	0	0	485	409	
8	0	0	0	0	486	409	
9	0	0	0	0	486	409	
10	0	0	0	0	486	409	
11	0	0	0	0	486	408	
12	0	0	0	0	487	409	
13	0	0	0	0	487	409	
14	0	0	0	0	487	409	
15	0	0	0	0	487	408	
0	0	0	0	0	487	408	
1	0	0	0	0	488	408	
2	0	0	0	0	489	408	
3	0	0	0	0	491	408	
4	0	0	0	0	492	409	
5	0	0	0	0	492	408	
6	0	0	0	0	494	408	
7	0	0	0	0	495	408	
8	0	0	0	0	495	408	
9	0	0	0	0	495	408	
10	0	0	0	0	496	408	
11	0	0	0	0	496	408	
12	0	0	0	0	496	409	
13	0	0	0	0	496	408	
14	0	0	0	0	497	408	
15	0	0	0	0	497	408	
0	0	0	0	0	497	408	
1	0	0	0	0	497	408	
2	0	0	0	0	498	408	
3	0	0	0	0	499	408	
4	0	0	0	0	499	409	
5	0	0	0	0	500	408	
6	0	0	0	0	501	409	
7	0	0	0	0	501	408	
8	0	0	0	0	501	408	
9	0	0	0	0	501	408	
10	0	0	0	0	502	408	
11	0	0	0	0	502	408	
12	0	0	0	0	503	408	
13	0	0	0	0	504	407	
14	0	0	0	0	504	408	
15	0	0	0	0	504	408	
0	0	0	0	0	505	408	
1	0	0	0	0	505	408	
2	0	0	0	0	506	408	
3	0	0	0	0	506	407	
4	0	0	0	0	507	408	
5	0	0	0	0	508	408	
6	0	0	0	0	508	408	
7	0	0	0	0	509	407	
8	0	0	0	0	510	407	
9	0	0	0	0	510	408	
10	0	0	0	0	511	407	
11	0	0	0	0	512	408	
12	0	0	0	0	512	408	
13	0	0	0	0	512	408	
14	0	0	0	0	512	408	
15	0	0	0	0	512	408	
0	0	0	0	0	512	407	
1	0	0	0	0	513	408	
2	0	0	0	0	513	408	
3	0	0	0	0	513	408	
4	0	0	0	0	514	409	
5	0	0	0	0	514	408	
6	0	0	0	0	514	408	
7	0	0	0	0	515	409	
8	0	0	0	0	516	408	
9	0	0	0	0	515	408	
10	0	0	0	0	515	409	
11	0	0	0	0	515	408	
12	0	0	0	0	516	409	
13	0	0	0	0	516	408	
14	0	0	0	0	517	409	
15	0	0	0	0	517	408	
0	0	0	0	0	516	408	
1	0	0	0	0	517	408	
2	0	0	0	0	517	408	
3	0	0	0	0	518	408	
4	0	0	0	0	518	409	
5	0	0	0	0	518	409	
6	0	0	0	0	519	408	
7	0	0	0	0	518	409	
8	0	0	0	0	517	408	
9	0	0	0	0	518	408	
10	0	0	0	0	519	408	
11	0	0	0	0	519	408	
12	0	0	0	0	519	409	
13	0	0	0	0	519	408	
14	0	0	0	0	519	408	
15	0	0	0	0	519	408	
0	0	0	0	0	519	408	
1	0	0	0	0	518	408	
2	0	0	0	0	518	408	
3	0	0	0	0	518	408	
4	0	0	0	0	518	408	
5	0	0	0	0	517	408	
6	0	0	0	0	517	408	
7	0	0	0	0	517	407	
8	0	0	0	0	518	407	
9	0	0	0	0	517	407	
10	0	0	0	0	518	408	
11	0	0	0	0	518	407	
12	0	0	0	0	518	407	
13	0	0	0	0	519	406	
14	0	0	0	0	519	407	
15	0	0	0	0	520	407	
0	0	0	0	0	519	406	
1	0	0	0	0	520	407	
2	0	0	0	0	520	408	
3	0	0	0	0	519	407	
4	0	0	0	0	519	408	
5	0	0	0	0	519	407	
6	0	0	0	0	519	407	
7	0	0	0	0	518	407	
8	0	0	0	0	517	407	
9	0	0	0	0	517	408	
10	0	0	0	0	518	408	
11	0	0	0	0	518	407	
12	0	0	0	0	518	408	
13	0	0	0	0	519	407	
14	0	0	0	0	519	407	
15	0	0	0	0	519	407	
0	0	0	0	0	520	407	
1	0	0	0	0	520	407	
2	0	0	0	0	520	407	
3	0	0	0	0	520	408	
