# OpenSignals Text File Format. Version 1
# {"98:D3:91:FD:59:64": {"position": 0, "device": "bitalino_rev", "device name": "98:D3:91:FD:59:64", "device connection": "BTH98:D3:91:FD:59:64", "sampling rate": 1000, "resolution": [4, 1, 1, 1, 1, 10, 10], "firmware version": 1281, "comments": "", "keywords": "", "mode": 0, "sync interval": 2, "date": "2021-9-19", "time": "14:54:6.856", "channels": [2, 5], "sensor": ["RAW", "RAW"], "label": ["A2", "A5"], "column": ["nSeq", "I1", "I2", "O1", "O2", "A2", "A5"], "special": [{}, {}], "digital IO": [0, 0, 1, 1], "convertedValues": 0}}
# EndOfHeader
0	0	0	0	0	494	624	
1	0	0	0	0	494	624	
2	0	0	0	0	494	623	
3	0	0	0	0	494	623	
4	0	0	0	0	493	623	
5	0	0	0	0	493	624	
6	0	0	0	0	494	623	
7	0	0	0	0	494	623	
8	0	0	0	0	495	624	
9	0	0	0	0	496	624	
10	0	0	0	0	496	624	
11	0	0	0	0	495	623	
12	0	0	0	0	496	623	
13	0	0	0	0	496	623	
14	0	0	0	0	496	623	
15	0	0	0	0	497	623	
0	0	0	0	0	497	623	
1	0	0	0	0	499	623	
2	0	0	0	0	500	623	
3	0	0	0	0	500	623	
4	0	0	0	0	501	623	
5	0	0	0	0	501	623	
6	0	0	0	0	501	622	
7	0	0	0	0	502	623	
8	0	0	0	0	502	623	
9	0	0	0	0	503	623	
10	0	0	0	0	503	623	
11	0	0	0	0	503	623	
12	0	0	0	0	502	623	
13	0	0	0	0	503	624	
14	0	0	0	0	504	623	
15	0	0	0	0	504	623	
0	0	0	0	0	504	622	
1	0	0	0	0	505	623	
2	0	0	0	0	505	622	
3	0	0	0	0	505	623	
4	0	0	0	0	505	623	
5	0	0	0	0	506	624	
6	0	0	0	0	506	623	
7	0	0	0	0	506	623	
8	0	0	0	0	506	623	
9	0	0	0	0	506	623	
10	0	0	0	0	507	623	
11	0	0	0	0	506	624	
12	0	0	0	0	506	623	
13	0	0	0	0	506	624	
14	0	0	0	0	506	624	
15	0	0	0	0	507	624	
0	0	0	0	0	508	624	
1	0	0	0	0	508	624	
2	0	0	0	0	508	624	
3	0	0	0	0	509	624	
4	0	0	0	0	510	624	
5	0	0	0	0	510	624	
6	0	0	0	0	510	624	
7	0	0	0	0	511	624	
8	0	0	0	0	510	624	
9	0	0	0	0	511	624	
10	0	0	0	0	510	624	
11	0	0	0	0	511	623	
12	0	0	0	0	511	624	
13	0	0	0	0	511	624	
14	0	0	0	0	511	624	
15	0	0	0	0	511	623	
0	0	0	0	0	511	623	
1	0	0	0	0	512	623	
2	0	0	0	0	512	624	
3	0	0	0	0	512	623	
4	0	0	0	0	511	624	
5	0	0	0	0	511	624	
6	0	0	0	0	512	623	
7	0	0	0	0	512	624	
8	0	0	0	0	513	624	
9	0	0	0	0	513	624	
10	0	0	0	0	513	624	
11	0	0	0	0	514	624	
12	0	0	0	0	514	624	
13	0	0	0	0	513	624	
14	0	0	0	0	513	624	
15	0	0	0	0	514	624	
0	0	0	0	0	513	624	
1	0	0	0	0	512	624	
2	0	0	0	0	512	624	
3	0	0	0	0	512	624	
4	0	0	0	0	511	624	
5	0	0	0	0	511	624	
6	0	0	0	0	510	624	
7	0	0	0	0	510	624	
8	0	0	0	0	510	624	
9	0	0	0	0	510	623	
10	0	0	0	0	510	624	
11	0	0	0	0	510	624	
12	0	0	0	0	510	624	
13	0	0	0	0	510	624	
14	0	0	0	0	510	624	
15	0	0	0	0	510	624	
0	0	0	0	0	511	624	
1	0	0	0	0	511	624	
2	0	0	0	0	511	623	
3	0	0	0	0	511	624	
4	0	0	0	0	511	624	
5	0	0	0	0	510	624	
6	0	0	0	0	509	623	
7	0	0	0	0	509	624	
8	0	0	0	0	508	623	
9	0	0	0	0	507	624	
10	0	0	0	0	506	623	
11	0	0	0	0	506	623	
12	0	0	0	0	507	623	
13	0	0	0	0	507	624	
14	0	0	0	0	508	624	
15	0	0	0	0	509	624	
0	0	0	0	0	511	624	
1	0	0	0	0	511	624	
2	0	0	0	0	512	624	
3	0	0	0	0	514	624	
4	0	0	0	0	515	624	
5	0	0	0	0	516	624	
6	0	0	0	0	518	624	
7	0	0	0	0	519	624	
8	0	0	0	0	520	624	
9	0	0	0	0	520	624	
10	0	0	0	0	522	623	
11	0	0	0	0	523	623	
12	0	0	0	0	525	623	
13	0	0	0	0	526	623	
14	0	0	0	0	527	623	
15	0	0	0	0	527	623	
0	0	0	0	0	527	623	
1	0	0	0	0	527	622	
2	0	0	0	0	527	623	
3	0	0	0	0	526	623	
4	0	0	0	0	526	623	
5	0	0	0	0	526	623	
6	0	0	0	0	526	623	
7	0	0	0	0	526	623	
8	0	0	0	0	525	623	
9	0	0	0	0	525	623	
10	0	0	0	0	525	623	
11	0	0	0	0	524	623	
12	0	0	0	0	523	623	
13	0	0	0	0	522	623	
14	0	0	0	0	521	623	
15	0	0	0	0	521	623	
0	0	0	0	0	520	624	
1	0	0	0	0	519	623	
2	0	0	0	0	518	624	
3	0	0	0	0	517	623	
4	0	0	0	0	515	623	
5	0	0	0	0	513	624	
6	0	0	0	0	512	623	
7	0	0	0	0	511	624	
8	0	0	0	0	510	623	
9	0	0	0	0	508	624	
10	0	0	0	0	507	623	
11	0	0	0	0	505	623	
12	0	0	0	0	504	624	
13	0	0	0	0	503	623	
14	0	0	0	0	502	623	
15	0	0	0	0	501	623	
0	0	0	0	0	499	623	
1	0	0	0	0	498	624	
2	0	0	0	0	497	623	
3	0	0	0	0	496	624	
4	0	0	0	0	495	623	
5	0	0	0	0	494	624	
6	0	0	0	0	492	624	
7	0	0	0	0	491	624	
8	0	0	0	0	491	624	
9	0	0	0	0	490	624	
10	0	0	0	0	490	623	
11	0	0	0	0	489	624	
12	0	0	0	0	488	624	
13	0	0	0	0	487	624	
14	0	0	0	0	486	624	
15	0	0	0	0	485	624	
0	0	0	0	0	484	624	
1	0	0	0	0	483	624	
2	0	0	0	0	483	624	
3	0	0	0	0	482	623	
4	0	0	0	0	482	624	
5	0	0	0	0	481	624	
6	0	0	0	0	481	624	
7	0	0	0	0	481	624	
8	0	0	0	0	481	624	
9	0	0	0	0	481	624	
10	0	0	0	0	481	624	
11	0	0	0	0	482	624	
12	0	0	0	0	482	624	
13	0	0	0	0	482	625	
14	0	0	0	0	482	624	
15	0	0	0	0	482	624	
0	0	0	0	0	482	624	
1	0	0	0	0	482	624	
2	0	0	0	0	482	624	
3	0	0	0	0	482	624	
4	0	0	0	0	482	624	
5	0	0	0	0	482	624	
6	0	0	0	0	481	624	
7	0	0	0	0	481	624	
8	0	0	0	0	481	624	
9	0	0	0	0	481	624	
10	0	0	0	0	480	624	
11	0	0	0	0	480	624	
12	0	0	0	0	480	623	
13	0	0	0	0	481	624	
14	0	0	0	0	480	624	
15	0	0	0	0	481	624	
0	0	0	0	0	481	624	
1	0	0	0	0	480	624	
2	0	0	0	0	481	624	
3	0	0	0	0	481	624	
4	0	0	0	0	480	624	
5	0	0	0	0	480	624	
6	0	0	0	0	479	623	
7	0	0	0	0	478	624	
8	0	0	0	0	476	623	
9	0	0	0	0	473	623	
10	0	0	0	0	471	624	
11	0	0	0	0	468	624	
12	0	0	0	0	466	624	
13	0	0	0	0	463	625	
14	0	0	0	0	460	624	
15	0	0	0	0	456	624	
0	0	0	0	0	454	624	
1	0	0	0	0	451	624	
2	0	0	0	0	451	623	
3	0	0	0	0	451	624	
4	0	0	0	0	451	624	
5	0	0	0	0	451	624	
6	0	0	0	0	452	624	
7	0	0	0	0	454	623	
8	0	0	0	0	456	624	
9	0	0	0	0	458	624	
10	0	0	0	0	462	624	
11	0	0	0	0	465	623	
12	0	0	0	0	470	623	
13	0	0	0	0	476	624	
14	0	0	0	0	482	623	
15	0	0	0	0	490	623	
0	0	0	0	0	499	624	
1	0	0	0	0	509	624	
2	0	0	0	0	519	624	
3	0	0	0	0	533	624	
4	0	0	0	0	547	623	
5	0	0	0	0	563	624	
6	0	0	0	0	580	623	
7	0	0	0	0	599	624	
8	0	0	0	0	617	624	
9	0	0	0	0	638	624	
10	0	0	0	0	659	624	
11	0	0	0	0	680	624	
12	0	0	0	0	700	624	
13	0	0	0	0	719	624	
14	0	0	0	0	733	624	
15	0	0	0	0	740	624	
0	0	0	0	0	741	624	
1	0	0	0	0	736	623	
2	0	0	0	0	726	623	
3	0	0	0	0	713	624	
4	0	0	0	0	699	624	
5	0	0	0	0	680	624	
6	0	0	0	0	661	624	
7	0	0	0	0	643	624	
8	0	0	0	0	629	624	
9	0	0	0	0	616	624	
10	0	0	0	0	604	624	
11	0	0	0	0	592	623	
12	0	0	0	0	581	623	
13	0	0	0	0	571	624	
14	0	0	0	0	561	624	
15	0	0	0	0	552	624	
0	0	0	0	0	543	624	
1	0	0	0	0	534	624	
2	0	0	0	0	526	624	
3	0	0	0	0	519	623	
4	0	0	0	0	512	624	
5	0	0	0	0	506	623	
6	0	0	0	0	502	623	
7	0	0	0	0	498	624	
8	0	0	0	0	494	624	
9	0	0	0	0	492	624	
10	0	0	0	0	489	624	
11	0	0	0	0	487	623	
12	0	0	0	0	484	623	
13	0	0	0	0	482	624	
14	0	0	0	0	480	623	
15	0	0	0	0	479	623	
0	0	0	0	0	478	624	
1	0	0	0	0	478	624	
2	0	0	0	0	477	624	
3	0	0	0	0	476	624	
4	0	0	0	0	475	623	
5	0	0	0	0	475	623	
6	0	0	0	0	475	623	
7	0	0	0	0	475	624	
8	0	0	0	0	474	624	
9	0	0	0	0	473	624	
10	0	0	0	0	472	623	
11	0	0	0	0	472	623	
12	0	0	0	0	471	624	
13	0	0	0	0	470	624	
14	0	0	0	0	470	624	
15	0	0	0	0	470	624	
0	0	0	0	0	470	623	
1	0	0	0	0	470	624	
2	0	0	0	0	470	623	
3	0	0	0	0	470	624	
4	0	0	0	0	469	624	
5	0	0	0	0	469	624	
6	0	0	0	0	469	624	
7	0	0	0	0	469	624	
8	0	0	0	0	470	624	
9	0	0	0	0	471	623	
10	0	0	0	0	472	623	
11	0	0	0	0	472	624	
12	0	0	0	0	473	624	
13	0	0	0	0	474	624	
14	0	0	0	0	474	624	
15	0	0	0	0	474	624	
0	0	0	0	0	474	624	
1	0	0	0	0	474	624	
2	0	0	0	0	474	623	
3	0	0	0	0	475	624	
4	0	0	0	0	475	624	
5	0	0	0	0	475	624	
6	0	0	0	0	475	623	
7	0	0	0	0	476	623	
8	0	0	0	0	476	623	
9	0	0	0	0	477	623	
10	0	0	0	0	478	622	
11	0	0	0	0	478	623	
12	0	0	0	0	479	622	
13	0	0	0	0	480	623	
14	0	0	0	0	481	623	
15	0	0	0	0	483	623	
0	0	0	0	0	483	623	
1	0	0	0	0	484	623	
2	0	0	0	0	486	623	
3	0	0	0	0	487	624	
4	0	0	0	0	487	623	
5	0	0	0	0	487	624	
6	0	0	0	0	488	624	
7	0	0	0	0	489	623	
8	0	0	0	0	489	624	
9	0	0	0	0	490	623	
10	0	0	0	0	491	624	
11	0	0	0	0	492	624	
12	0	0	0	0	493	624	
13	0	0	0	0	494	624	
14	0	0	0	0	496	624	
15	0	0	0	0	497	624	
0	0	0	0	0	497	624	
1	0	0	0	0	497	624	
2	0	0	0	0	499	624	
3	0	0	0	0	500	624	
4	0	0	0	0	500	624	
5	0	0	0	0	500	624	
6	0	0	0	0	500	624	
7	0	0	0	0	500	624	
8	0	0	0	0	500	624	
9	0	0	0	0	501	624	
10	0	0	0	0	501	624	
11	0	0	0	0	500	624	
12	0	0	0	0	500	624	
13	0	0	0	0	502	625	
14	0	0	0	0	501	624	
15	0	0	0	0	501	624	
0	0	0	0	0	501	624	
1	0	0	0	0	501	623	
2	0	0	0	0	502	624	
3	0	0	0	0	503	624	
4	0	0	0	0	504	623	
5	0	0	0	0	504	623	
6	0	0	0	0	505	623	
7	0	0	0	0	506	623	
8	0	0	0	0	507	622	
9	0	0	0	0	507	622	
10	0	0	0	0	507	623	
11	0	0	0	0	506	623	
12	0	0	0	0	506	623	
13	0	0	0	0	505	623	
14	0	0	0	0	506	623	
15	0	0	0	0	506	623	
0	0	0	0	0	505	623	
1	0	0	0	0	506	623	
2	0	0	0	0	506	623	
3	0	0	0	0	505	623	
4	0	0	0	0	505	623	
5	0	0	0	0	505	623	
6	0	0	0	0	505	624	
7	0	0	0	0	505	623	
8	0	0	0	0	505	623	
9	0	0	0	0	505	623	
10	0	0	0	0	505	623	
11	0	0	0	0	505	624	
12	0	0	0	0	505	623	
13	0	0	0	0	505	623	
14	0	0	0	0	505	623	
15	0	0	0	0	505	622	
0	0	0	0	0	506	622	
1	0	0	0	0	506	623	
2	0	0	0	0	506	623	
3	0	0	0	0	505	624	
4	0	0	0	0	505	623	
5	0	0	0	0	505	623	
6	0	0	0	0	504	623	
7	0	0	0	0	504	623	
8	0	0	0	0	505	623	
9	0	0	0	0	505	623	
10	0	0	0	0	505	624	
11	0	0	0	0	505	623	
12	0	0	0	0	505	624	
13	0	0	0	0	505	624	
14	0	0	0	0	505	623	
15	0	0	0	0	506	623	
0	0	0	0	0	507	623	
1	0	0	0	0	507	624	
2	0	0	0	0	506	624	
3	0	0	0	0	506	624	
4	0	0	0	0	506	624	
5	0	0	0	0	507	624	
6	0	0	0	0	507	624	
7	0	0	0	0	507	624	
8	0	0	0	0	507	624	
9	0	0	0	0	507	624	
10	0	0	0	0	507	624	
11	0	0	0	0	508	624	
12	0	0	0	0	508	624	
13	0	0	0	0	509	624	
14	0	0	0	0	510	624	
15	0	0	0	0	510	624	
0	0	0	0	0	511	624	
1	0	0	0	0	511	624	
2	0	0	0	0	511	624	
3	0	0	0	0	512	624	
4	0	0	0	0	512	624	
5	0	0	0	0	512	624	
6	0	0	0	0	513	624	
7	0	0	0	0	513	624	
8	0	0	0	0	514	624	
9	0	0	0	0	514	624	
10	0	0	0	0	515	624	
11	0	0	0	0	515	624	
12	0	0	0	0	516	624	
13	0	0	0	0	517	624	
14	0	0	0	0	517	624	
15	0	0	0	0	518	624	
0	0	0	0	0	518	624	
1	0	0	0	0	517	624	
2	0	0	0	0	518	624	
3	0	0	0	0	519	624	
4	0	0	0	0	519	625	
5	0	0	0	0	518	624	
6	0	0	0	0	519	624	
7	0	0	0	0	519	624	
8	0	0	0	0	520	624	
9	0	0	0	0	520	624	
10	0	0	0	0	520	624	
11	0	0	0	0	521	624	
12	0	0	0	0	522	625	
13	0	0	0	0	522	625	
14	0	0	0	0	523	624	
15	0	0	0	0	524	624	
0	0	0	0	0	524	624	
1	0	0	0	0	524	624	
2	0	0	0	0	524	625	
3	0	0	0	0	526	624	
4	0	0	0	0	526	624	
5	0	0	0	0	526	624	
6	0	0	0	0	526	624	
7	0	0	0	0	525	624	
8	0	0	0	0	524	624	
9	0	0	0	0	524	623	
10	0	0	0	0	524	624	
11	0	0	0	0	524	623	
12	0	0	0	0	524	623	
13	0	0	0	0	525	624	
14	0	0	0	0	525	623	
15	0	0	0	0	524	623	
0	0	0	0	0	524	623	
1	0	0	0	0	524	622	
2	0	0	0	0	524	623	
3	0	0	0	0	525	622	
4	0	0	0	0	524	622	
5	0	0	0	0	524	623	
6	0	0	0	0	524	623	
7	0	0	0	0	524	623	
8	0	0	0	0	525	622	
9	0	0	0	0	524	622	
10	0	0	0	0	526	623	
11	0	0	0	0	526	623	
12	0	0	0	0	526	623	
13	0	0	0	0	527	623	
14	0	0	0	0	527	623	
15	0	0	0	0	527	622	
0	0	0	0	0	527	623	
1	0	0	0	0	527	623	
2	0	0	0	0	528	623	
3	0	0	0	0	528	623	
4	0	0	0	0	530	623	
5	0	0	0	0	530	623	
6	0	0	0	0	531	623	
7	0	0	0	0	531	623	
8	0	0	0	0	531	622	
9	0	0	0	0	531	623	
10	0	0	0	0	531	623	
11	0	0	0	0	532	623	
12	0	0	0	0	532	623	
13	0	0	0	0	532	623	
14	0	0	0	0	532	623	
15	0	0	0	0	532	622	
0	0	0	0	0	531	623	
1	0	0	0	0	532	623	
2	0	0	0	0	532	624	
3	0	0	0	0	532	623	
4	0	0	0	0	532	623	
5	0	0	0	0	533	624	
6	0	0	0	0	533	623	
7	0	0	0	0	534	623	
8	0	0	0	0	534	623	
9	0	0	0	0	534	623	
10	0	0	0	0	534	623	
11	0	0	0	0	533	623	
12	0	0	0	0	533	623	
13	0	0	0	0	531	623	
14	0	0	0	0	531	623	
15	0	0	0	0	531	623	
0	0	0	0	0	531	623	
1	0	0	0	0	530	623	
2	0	0	0	0	531	623	
3	0	0	0	0	530	624	
4	0	0	0	0	529	623	
5	0	0	0	0	528	624	
6	0	0	0	0	527	623	
7	0	0	0	0	527	623	
8	0	0	0	0	527	624	
9	0	0	0	0	526	624	
10	0	0	0	0	526	624	
11	0	0	0	0	526	623	
12	0	0	0	0	525	624	
13	0	0	0	0	524	624	
14	0	0	0	0	523	624	
15	0	0	0	0	523	624	
0	0	0	0	0	522	624	
1	0	0	0	0	522	624	
2	0	0	0	0	521	624	
3	0	0	0	0	522	624	
4	0	0	0	0	522	623	
5	0	0	0	0	522	624	
6	0	0	0	0	523	623	
7	0	0	0	0	522	624	
8	0	0	0	0	521	624	
9	0	0	0	0	521	624	
10	0	0	0	0	521	624	
11	0	0	0	0	521	624	
12	0	0	0	0	522	624	
13	0	0	0	0	522	625	
14	0	0	0	0	522	624	
15	0	0	0	0	523	624	
0	0	0	0	0	524	625	
1	0	0	0	0	524	624	
2	0	0	0	0	524	624	
3	0	0	0	0	524	625	
4	0	0	0	0	524	624	
5	0	0	0	0	524	624	
6	0	0	0	0	523	623	
7	0	0	0	0	524	623	
8	0	0	0	0	524	623	
9	0	0	0	0	524	623	
10	0	0	0	0	524	623	
11	0	0	0	0	524	623	
12	0	0	0	0	523	624	
13	0	0	0	0	523	623	
14	0	0	0	0	524	623	
15	0	0	0	0	524	623	
0	0	0	0	0	523	624	
1	0	0	0	0	523	623	
2	0	0	0	0	523	624	
3	0	0	0	0	523	624	
4	0	0	0	0	523	624	
5	0	0	0	0	524	623	
6	0	0	0	0	525	624	
7	0	0	0	0	525	624	
8	0	0	0	0	525	623	
9	0	0	0	0	525	624	
10	0	0	0	0	526	623	
11	0	0	0	0	527	623	
12	0	0	0	0	527	624	
13	0	0	0	0	529	624	
14	0	0	0	0	531	624	
15	0	0	0	0	533	623	
0	0	0	0	0	534	624	
1	0	0	0	0	536	624	
2	0	0	0	0	536	623	
3	0	0	0	0	538	623	
4	0	0	0	0	539	623	
5	0	0	0	0	539	624	
6	0	0	0	0	539	624	
7	0	0	0	0	539	624	
8	0	0	0	0	539	623	
9	0	0	0	0	539	623	
10	0	0	0	0	539	623	
11	0	0	0	0	539	623	
12	0	0	0	0	539	624	
13	0	0	0	0	539	623	
14	0	0	0	0	540	623	
15	0	0	0	0	540	623	
0	0	0	0	0	541	623	
1	0	0	0	0	541	624	
2	0	0	0	0	541	623	
3	0	0	0	0	542	623	
4	0	0	0	0	542	624	
5	0	0	0	0	542	623	
6	0	0	0	0	542	623	
7	0	0	0	0	542	623	
8	0	0	0	0	542	623	
9	0	0	0	0	542	623	
10	0	0	0	0	543	623	
11	0	0	0	0	543	624	
12	0	0	0	0	543	624	
13	0	0	0	0	544	624	
14	0	0	0	0	545	623	
15	0	0	0	0	546	624	
0	0	0	0	0	547	624	
1	0	0	0	0	547	623	
2	0	0	0	0	547	623	
3	0	0	0	0	548	623	
4	0	0	0	0	548	622	
5	0	0	0	0	549	623	
6	0	0	0	0	550	623	
7	0	0	0	0	551	623	
8	0	0	0	0	551	623	
9	0	0	0	0	550	623	
10	0	0	0	0	550	623	
11	0	0	0	0	550	624	
12	0	0	0	0	549	623	
13	0	0	0	0	550	624	
14	0	0	0	0	550	623	
15	0	0	0	0	550	623	
0	0	0	0	0	550	623	
1	0	0	0	0	550	623	
2	0	0	0	0	550	624	
3	0	0	0	0	550	624	
4	0	0	0	0	548	623	
5	0	0	0	0	548	623	
6	0	0	0	0	547	623	
7	0	0	0	0	547	623	
8	0	0	0	0	546	623	
9	0	0	0	0	546	623	
10	0	0	0	0	546	623	
11	0	0	0	0	546	623	
12	0	0	0	0	547	623	
13	0	0	0	0	547	623	
14	0	0	0	0	547	623	
15	0	0	0	0	547	623	
0	0	0	0	0	547	623	
1	0	0	0	0	547	623	
2	0	0	0	0	547	623	
3	0	0	0	0	547	623	
4	0	0	0	0	547	623	
5	0	0	0	0	547	623	
6	0	0	0	0	547	624	
7	0	0	0	0	547	624	
8	0	0	0	0	547	623	
9	0	0	0	0	547	623	
10	0	0	0	0	547	623	
11	0	0	0	0	547	624	
12	0	0	0	0	547	623	
13	0	0	0	0	548	624	
14	0	0	0	0	548	623	
15	0	0	0	0	548	623	
0	0	0	0	0	549	623	
1	0	0	0	0	548	623	
2	0	0	0	0	549	623	
3	0	0	0	0	549	624	
4	0	0	0	0	548	624	
5	0	0	0	0	548	624	
6	0	0	0	0	548	623	
7	0	0	0	0	548	624	
8	0	0	0	0	548	624	
9	0	0	0	0	547	623	
10	0	0	0	0	546	623	
11	0	0	0	0	545	624	
12	0	0	0	0	544	623	
13	0	0	0	0	543	623	
14	0	0	0	0	543	623	
15	0	0	0	0	543	623	
0	0	0	0	0	544	623	
1	0	0	0	0	544	624	
2	0	0	0	0	545	623	
3	0	0	0	0	545	623	
4	0	0	0	0	545	623	
5	0	0	0	0	544	624	
6	0	0	0	0	543	623	
7	0	0	0	0	543	623	
8	0	0	0	0	543	624	
9	0	0	0	0	543	624	
10	0	0	0	0	542	623	
11	0	0	0	0	541	623	
12	0	0	0	0	540	623	
13	0	0	0	0	541	624	
14	0	0	0	0	541	624	
15	0	0	0	0	541	625	
0	0	0	0	0	541	625	
1	0	0	0	0	541	624	
2	0	0	0	0	540	624	
3	0	0	0	0	540	624	
4	0	0	0	0	540	624	
5	0	0	0	0	539	624	
6	0	0	0	0	539	624	
7	0	0	0	0	539	624	
8	0	0	0	0	539	624	
9	0	0	0	0	539	624	
10	0	0	0	0	539	624	
11	0	0	0	0	539	623	
12	0	0	0	0	539	623	
13	0	0	0	0	539	624	
14	0	0	0	0	539	624	
15	0	0	0	0	538	623	
0	0	0	0	0	538	624	
1	0	0	0	0	538	623	
2	0	0	0	0	538	623	
3	0	0	0	0	537	623	
4	0	0	0	0	536	623	
5	0	0	0	0	536	624	
6	0	0	0	0	535	624	
7	0	0	0	0	535	624	
8	0	0	0	0	534	624	
9	0	0	0	0	533	623	
10	0	0	0	0	533	623	
11	0	0	0	0	533	624	
12	0	0	0	0	533	623	
13	0	0	0	0	533	624	
14	0	0	0	0	533	624	
15	0	0	0	0	533	624	
0	0	0	0	0	533	624	
1	0	0	0	0	533	623	
2	0	0	0	0	532	624	
3	0	0	0	0	531	624	
4	0	0	0	0	530	623	
5	0	0	0	0	529	624	
6	0	0	0	0	527	624	
7	0	0	0	0	527	623	
8	0	0	0	0	526	623	
9	0	0	0	0	525	624	
10	0	0	0	0	524	623	
11	0	0	0	0	525	624	
12	0	0	0	0	525	624	
13	0	0	0	0	524	624	
14	0	0	0	0	524	624	
15	0	0	0	0	524	623	
0	0	0	0	0	524	623	
1	0	0	0	0	525	623	
2	0	0	0	0	526	624	
3	0	0	0	0	526	623	
4	0	0	0	0	527	624	
5	0	0	0	0	529	624	
6	0	0	0	0	529	624	
7	0	0	0	0	530	624	
8	0	0	0	0	529	624	
9	0	0	0	0	529	623	
10	0	0	0	0	529	623	
11	0	0	0	0	530	624	
12	0	0	0	0	531	624	
13	0	0	0	0	531	624	
14	0	0	0	0	532	623	
15	0	0	0	0	533	624	
0	0	0	0	0	533	624	
1	0	0	0	0	533	624	
2	0	0	0	0	533	624	
3	0	0	0	0	533	623	
4	0	0	0	0	534	623	
5	0	0	0	0	534	624	
6	0	0	0	0	534	624	
7	0	0	0	0	534	623	
8	0	0	0	0	534	624	
9	0	0	0	0	534	623	
10	0	0	0	0	534	623	
11	0	0	0	0	534	624	
12	0	0	0	0	535	624	
13	0	0	0	0	535	624	
14	0	0	0	0	535	623	
15	0	0	0	0	535	623	
0	0	0	0	0	534	623	
1	0	0	0	0	534	623	
2	0	0	0	0	534	623	
3	0	0	0	0	534	623	
4	0	0	0	0	533	623	
5	0	0	0	0	532	623	
6	0	0	0	0	532	623	
7	0	0	0	0	531	623	
8	0	0	0	0	531	623	
9	0	0	0	0	532	623	
10	0	0	0	0	533	622	
11	0	0	0	0	533	623	
12	0	0	0	0	533	623	
13	0	0	0	0	533	623	
14	0	0	0	0	533	623	
15	0	0	0	0	534	622	
0	0	0	0	0	533	623	
1	0	0	0	0	533	623	
2	0	0	0	0	532	623	
3	0	0	0	0	532	623	
4	0	0	0	0	532	623	
5	0	0	0	0	532	623	
6	0	0	0	0	532	623	
7	0	0	0	0	531	623	
8	0	0	0	0	531	623	
9	0	0	0	0	531	623	
10	0	0	0	0	532	623	
11	0	0	0	0	532	623	
12	0	0	0	0	533	623	
13	0	0	0	0	534	623	
14	0	0	0	0	535	622	
15	0	0	0	0	536	623	
0	0	0	0	0	536	623	
1	0	0	0	0	537	623	
2	0	0	0	0	537	622	
3	0	0	0	0	537	623	
4	0	0	0	0	537	623	
5	0	0	0	0	537	623	
6	0	0	0	0	536	623	
7	0	0	0	0	536	623	
8	0	0	0	0	536	623	
9	0	0	0	0	536	623	
10	0	0	0	0	536	623	
11	0	0	0	0	536	623	
12	0	0	0	0	536	623	
13	0	0	0	0	535	624	
14	0	0	0	0	535	623	
15	0	0	0	0	535	623	
0	0	0	0	0	535	623	
1	0	0	0	0	536	623	
2	0	0	0	0	535	623	
3	0	0	0	0	535	623	
4	0	0	0	0	535	623	
5	0	0	0	0	533	624	
6	0	0	0	0	532	624	
7	0	0	0	0	532	623	
8	0	0	0	0	532	623	
9	0	0	0	0	531	623	
10	0	0	0	0	531	623	
11	0	0	0	0	531	623	
12	0	0	0	0	531	623	
13	0	0	0	0	531	624	
14	0	0	0	0	531	623	
15	0	0	0	0	532	624	
0	0	0	0	0	532	623	
1	0	0	0	0	532	624	
2	0	0	0	0	532	624	
3	0	0	0	0	532	624	
4	0	0	0	0	532	624	
5	0	0	0	0	532	624	
6	0	0	0	0	532	624	
7	0	0	0	0	532	624	
8	0	0	0	0	533	624	
9	0	0	0	0	533	624	
10	0	0	0	0	534	624	
11	0	0	0	0	535	624	
12	0	0	0	0	535	624	
13	0	0	0	0	534	624	
14	0	0	0	0	535	624	
15	0	0	0	0	534	624	
0	0	0	0	0	534	623	
1	0	0	0	0	533	624	
2	0	0	0	0	533	623	
3	0	0	0	0	533	624	
4	0	0	0	0	533	623	
5	0	0	0	0	533	623	
6	0	0	0	0	532	623	
7	0	0	0	0	533	623	
8	0	0	0	0	533	623	
9	0	0	0	0	534	623	
10	0	0	0	0	533	623	
11	0	0	0	0	532	623	
12	0	0	0	0	532	623	
13	0	0	0	0	532	624	
14	0	0	0	0	531	623	
15	0	0	0	0	530	623	
0	0	0	0	0	529	623	
1	0	0	0	0	529	624	
2	0	0	0	0	528	624	
3	0	0	0	0	528	624	
4	0	0	0	0	528	624	
5	0	0	0	0	528	624	
6	0	0	0	0	527	624	
7	0	0	0	0	527	624	
8	0	0	0	0	527	624	
9	0	0	0	0	526	624	
10	0	0	0	0	527	624	
11	0	0	0	0	526	623	
12	0	0	0	0	527	623	
13	0	0	0	0	526	624	
14	0	0	0	0	526	624	
15	0	0	0	0	526	624	
0	0	0	0	0	525	624	
1	0	0	0	0	525	624	
2	0	0	0	0	525	623	
3	0	0	0	0	524	623	
4	0	0	0	0	525	623	
5	0	0	0	0	524	624	
6	0	0	0	0	524	624	
7	0	0	0	0	523	624	
8	0	0	0	0	523	624	
9	0	0	0	0	522	624	
10	0	0	0	0	522	623	
11	0	0	0	0	521	623	
12	0	0	0	0	521	623	
13	0	0	0	0	521	624	
14	0	0	0	0	521	624	
15	0	0	0	0	521	623	
0	0	0	0	0	521	623	
1	0	0	0	0	521	623	
2	0	0	0	0	521	623	
3	0	0	0	0	521	624	
4	0	0	0	0	521	623	
5	0	0	0	0	520	623	
6	0	0	0	0	521	623	
7	0	0	0	0	520	623	
8	0	0	0	0	520	623	
9	0	0	0	0	519	623	
10	0	0	0	0	519	623	
11	0	0	0	0	519	623	
12	0	0	0	0	518	623	
13	0	0	0	0	518	624	
14	0	0	0	0	517	623	
15	0	0	0	0	517	623	
0	0	0	0	0	516	623	
1	0	0	0	0	515	623	
2	0	0	0	0	515	623	
3	0	0	0	0	515	623	
4	0	0	0	0	515	623	
5	0	0	0	0	515	623	
6	0	0	0	0	515	623	
7	0	0	0	0	515	623	
8	0	0	0	0	515	623	
9	0	0	0	0	515	623	
10	0	0	0	0	514	622	
11	0	0	0	0	513	623	
12	0	0	0	0	513	623	
13	0	0	0	0	513	623	
14	0	0	0	0	513	623	
15	0	0	0	0	513	623	
0	0	0	0	0	515	623	
1	0	0	0	0	515	623	
2	0	0	0	0	515	623	
3	0	0	0	0	515	624	
4	0	0	0	0	515	623	
5	0	0	0	0	515	624	
6	0	0	0	0	515	624	
7	0	0	0	0	515	623	
8	0	0	0	0	515	623	
9	0	0	0	0	515	623	
10	0	0	0	0	515	624	
11	0	0	0	0	514	623	
12	0	0	0	0	514	623	
13	0	0	0	0	514	623	
14	0	0	0	0	515	624	
15	0	0	0	0	515	624	
0	0	0	0	0	515	624	
1	0	0	0	0	515	623	
2	0	0	0	0	515	624	
3	0	0	0	0	515	624	
4	0	0	0	0	515	624	
5	0	0	0	0	514	623	
6	0	0	0	0	515	624	
7	0	0	0	0	514	624	
8	0	0	0	0	514	624	
9	0	0	0	0	514	624	
10	0	0	0	0	515	624	
11	0	0	0	0	514	624	
12	0	0	0	0	514	624	
13	0	0	0	0	514	624	
14	0	0	0	0	514	624	
15	0	0	0	0	514	624	
0	0	0	0	0	515	623	
1	0	0	0	0	515	624	
2	0	0	0	0	516	623	
3	0	0	0	0	517	624	
4	0	0	0	0	516	623	
5	0	0	0	0	517	624	
6	0	0	0	0	516	623	
7	0	0	0	0	517	623	
8	0	0	0	0	517	623	
9	0	0	0	0	516	624	
10	0	0	0	0	516	623	
11	0	0	0	0	517	623	
12	0	0	0	0	517	623	
13	0	0	0	0	517	623	
14	0	0	0	0	517	623	
15	0	0	0	0	518	623	
0	0	0	0	0	517	623	
1	0	0	0	0	518	624	
2	0	0	0	0	519	624	
3	0	0	0	0	520	623	
4	0	0	0	0	520	624	
5	0	0	0	0	521	624	
6	0	0	0	0	520	623	
7	0	0	0	0	519	624	
8	0	0	0	0	519	624	
9	0	0	0	0	518	623	
10	0	0	0	0	518	623	
11	0	0	0	0	518	623	
12	0	0	0	0	518	623	
13	0	0	0	0	518	624	
14	0	0	0	0	518	624	
15	0	0	0	0	519	623	
0	0	0	0	0	520	623	
1	0	0	0	0	521	624	
2	0	0	0	0	523	624	
3	0	0	0	0	525	624	
4	0	0	0	0	527	624	
5	0	0	0	0	529	624	
6	0	0	0	0	530	624	
7	0	0	0	0	531	624	
8	0	0	0	0	532	624	
9	0	0	0	0	532	623	
10	0	0	0	0	533	624	
11	0	0	0	0	533	623	
12	0	0	0	0	534	623	
13	0	0	0	0	534	624	
14	0	0	0	0	536	623	
15	0	0	0	0	537	623	
0	0	0	0	0	538	624	
1	0	0	0	0	538	623	
2	0	0	0	0	538	623	
3	0	0	0	0	538	623	
4	0	0	0	0	537	623	
5	0	0	0	0	538	623	
6	0	0	0	0	538	624	
7	0	0	0	0	539	623	
8	0	0	0	0	540	624	
9	0	0	0	0	540	623	
10	0	0	0	0	541	624	
11	0	0	0	0	541	623	
12	0	0	0	0	541	623	
13	0	0	0	0	541	623	
14	0	0	0	0	541	624	
15	0	0	0	0	541	624	
0	0	0	0	0	540	623	
1	0	0	0	0	540	623	
2	0	0	0	0	539	623	
3	0	0	0	0	538	623	
4	0	0	0	0	537	623	
5	0	0	0	0	536	624	
6	0	0	0	0	534	623	
7	0	0	0	0	532	623	
8	0	0	0	0	531	623	
9	0	0	0	0	529	623	
10	0	0	0	0	528	623	
11	0	0	0	0	528	623	
12	0	0	0	0	527	623	
13	0	0	0	0	527	624	
14	0	0	0	0	525	624	
15	0	0	0	0	524	624	
0	0	0	0	0	524	623	
1	0	0	0	0	523	623	
2	0	0	0	0	523	623	
3	0	0	0	0	523	623	
4	0	0	0	0	523	623	
5	0	0	0	0	522	623	
6	0	0	0	0	522	623	
7	0	0	0	0	522	623	
8	0	0	0	0	523	623	
9	0	0	0	0	523	622	
10	0	0	0	0	524	622	
11	0	0	0	0	525	622	
12	0	0	0	0	526	623	
13	0	0	0	0	526	622	
14	0	0	0	0	527	622	
15	0	0	0	0	527	622	
0	0	0	0	0	527	623	
1	0	0	0	0	527	623	
2	0	0	0	0	528	623	
3	0	0	0	0	529	623	
4	0	0	0	0	529	623	
5	0	0	0	0	530	624	
6	0	0	0	0	530	623	
7	0	0	0	0	530	624	
8	0	0	0	0	531	623	
9	0	0	0	0	531	623	
10	0	0	0	0	531	623	
11	0	0	0	0	531	623	
12	0	0	0	0	531	623	
13	0	0	0	0	531	623	
14	0	0	0	0	531	623	
15	0	0	0	0	532	623	
0	0	0	0	0	532	623	
1	0	0	0	0	532	623	
2	0	0	0	0	532	623	
3	0	0	0	0	532	623	
4	0	0	0	0	531	623	
5	0	0	0	0	531	624	
6	0	0	0	0	531	623	
7	0	0	0	0	531	623	
8	0	0	0	0	531	624	
9	0	0	0	0	531	623	
10	0	0	0	0	531	624	
11	0	0	0	0	530	623	
12	0	0	0	0	529	624	
13	0	0	0	0	529	623	
14	0	0	0	0	528	623	
15	0	0	0	0	528	623	
0	0	0	0	0	527	623	
1	0	0	0	0	527	623	
2	0	0	0	0	527	623	
3	0	0	0	0	527	623	
4	0	0	0	0	527	623	
5	0	0	0	0	527	624	
6	0	0	0	0	527	623	
7	0	0	0	0	527	623	
8	0	0	0	0	526	623	
9	0	0	0	0	525	623	
10	0	0	0	0	524	623	
11	0	0	0	0	523	624	
12	0	0	0	0	521	624	
13	0	0	0	0	519	624	
14	0	0	0	0	518	624	
15	0	0	0	0	515	624	
0	0	0	0	0	512	625	
1	0	0	0	0	509	624	
2	0	0	0	0	506	625	
3	0	0	0	0	503	624	
4	0	0	0	0	501	624	
5	0	0	0	0	501	624	
6	0	0	0	0	500	624	
7	0	0	0	0	500	625	
8	0	0	0	0	502	624	
9	0	0	0	0	503	625	
10	0	0	0	0	505	624	
11	0	0	0	0	507	625	
12	0	0	0	0	511	625	
13	0	0	0	0	515	625	
14	0	0	0	0	520	624	
15	0	0	0	0	527	624	
0	0	0	0	0	534	624	
1	0	0	0	0	543	624	
2	0	0	0	0	552	624	
3	0	0	0	0	561	624	
4	0	0	0	0	571	624	
5	0	0	0	0	583	624	
6	0	0	0	0	596	624	
7	0	0	0	0	611	624	
8	0	0	0	0	626	623	
9	0	0	0	0	643	623	
10	0	0	0	0	661	624	
11	0	0	0	0	680	624	
12	0	0	0	0	700	623	
13	0	0	0	0	720	624	
14	0	0	0	0	739	623	
15	0	0	0	0	755	623	
0	0	0	0	0	766	623	
1	0	0	0	0	771	624	
2	0	0	0	0	770	624	
3	0	0	0	0	763	624	
4	0	0	0	0	753	623	
5	0	0	0	0	741	623	
6	0	0	0	0	726	623	
7	0	0	0	0	709	624	
8	0	0	0	0	691	623	
9	0	0	0	0	673	624	
10	0	0	0	0	660	624	
11	0	0	0	0	648	624	
12	0	0	0	0	636	624	
13	0	0	0	0	624	624	
14	0	0	0	0	613	624	
15	0	0	0	0	603	623	
0	0	0	0	0	593	624	
1	0	0	0	0	584	624	
2	0	0	0	0	576	623	
3	0	0	0	0	568	623	
4	0	0	0	0	561	623	
5	0	0	0	0	555	623	
6	0	0	0	0	549	623	
7	0	0	0	0	545	623	
8	0	0	0	0	540	623	
9	0	0	0	0	536	623	
10	0	0	0	0	532	623	
11	0	0	0	0	529	623	
12	0	0	0	0	526	623	
13	0	0	0	0	524	623	
14	0	0	0	0	521	623	
15	0	0	0	0	520	623	
0	0	0	0	0	519	623	
1	0	0	0	0	517	623	
2	0	0	0	0	516	623	
3	0	0	0	0	514	623	
4	0	0	0	0	513	623	
5	0	0	0	0	513	624	
6	0	0	0	0	512	623	
7	0	0	0	0	512	623	
8	0	0	0	0	511	623	
9	0	0	0	0	511	622	
10	0	0	0	0	510	623	
11	0	0	0	0	510	623	
12	0	0	0	0	510	623	
13	0	0	0	0	509	623	
14	0	0	0	0	508	623	
15	0	0	0	0	508	623	
0	0	0	0	0	507	623	
1	0	0	0	0	506	623	
2	0	0	0	0	506	623	
3	0	0	0	0	505	623	
4	0	0	0	0	505	623	
5	0	0	0	0	506	623	
6	0	0	0	0	507	623	
7	0	0	0	0	507	622	
8	0	0	0	0	506	623	
9	0	0	0	0	507	623	
10	0	0	0	0	507	624	
11	0	0	0	0	508	623	
12	0	0	0	0	508	623	
13	0	0	0	0	508	623	
14	0	0	0	0	508	622	
15	0	0	0	0	508	623	
0	0	0	0	0	508	623	
1	0	0	0	0	509	623	
2	0	0	0	0	509	623	
3	0	0	0	0	509	623	
4	0	0	0	0	510	623	
5	0	0	0	0	510	623	
6	0	0	0	0	509	623	
7	0	0	0	0	509	623	
8	0	0	0	0	509	623	
9	0	0	0	0	510	623	
10	0	0	0	0	510	623	
11	0	0	0	0	511	623	
12	0	0	0	0	511	624	
13	0	0	0	0	512	623	
14	0	0	0	0	512	623	
15	0	0	0	0	512	623	
0	0	0	0	0	512	623	
1	0	0	0	0	512	623	
2	0	0	0	0	512	623	
3	0	0	0	0	513	623	
4	0	0	0	0	513	623	
5	0	0	0	0	514	624	
6	0	0	0	0	514	623	
7	0	0	0	0	513	623	
8	0	0	0	0	513	623	
9	0	0	0	0	513	623	
10	0	0	0	0	514	624	
11	0	0	0	0	514	623	
12	0	0	0	0	514	624	
13	0	0	0	0	513	624	
14	0	0	0	0	512	624	
15	0	0	0	0	512	624	
0	0	0	0	0	512	624	
1	0	0	0	0	512	624	
2	0	0	0	0	513	624	
3	0	0	0	0	514	624	
4	0	0	0	0	514	624	
5	0	0	0	0	515	624	
6	0	0	0	0	516	624	
7	0	0	0	0	517	624	
8	0	0	0	0	517	624	
9	0	0	0	0	518	624	
10	0	0	0	0	518	624	
11	0	0	0	0	517	625	
12	0	0	0	0	518	624	
13	0	0	0	0	517	624	
14	0	0	0	0	518	624	
15	0	0	0	0	518	624	
0	0	0	0	0	518	624	
1	0	0	0	0	518	624	
2	0	0	0	0	518	623	
3	0	0	0	0	519	623	
4	0	0	0	0	519	624	
5	0	0	0	0	520	624	
6	0	0	0	0	521	624	
7	0	0	0	0	522	624	
8	0	0	0	0	523	623	
9	0	0	0	0	524	623	
10	0	0	0	0	524	623	
11	0	0	0	0	524	623	
12	0	0	0	0	525	622	
13	0	0	0	0	524	623	
14	0	0	0	0	524	623	
15	0	0	0	0	525	623	
0	0	0	0	0	525	623	
1	0	0	0	0	526	623	
2	0	0	0	0	526	623	
3	0	0	0	0	527	623	
4	0	0	0	0	527	623	
5	0	0	0	0	527	623	
6	0	0	0	0	526	623	
7	0	0	0	0	526	624	
8	0	0	0	0	525	624	
9	0	0	0	0	525	624	
10	0	0	0	0	526	623	
11	0	0	0	0	527	624	
12	0	0	0	0	527	624	
13	0	0	0	0	527	623	
14	0	0	0	0	528	623	
15	0	0	0	0	529	624	
0	0	0	0	0	529	624	
1	0	0	0	0	529	624	
2	0	0	0	0	529	625	
3	0	0	0	0	528	624	
4	0	0	0	0	529	624	
5	0	0	0	0	529	624	
6	0	0	0	0	528	624	
7	0	0	0	0	529	624	
8	0	0	0	0	529	624	
9	0	0	0	0	529	624	
10	0	0	0	0	529	624	
11	0	0	0	0	529	624	
12	0	0	0	0	529	624	
13	0	0	0	0	529	625	
14	0	0	0	0	529	624	
15	0	0	0	0	529	624	
0	0	0	0	0	529	624	
1	0	0	0	0	530	624	
2	0	0	0	0	531	624	
3	0	0	0	0	532	624	
4	0	0	0	0	531	624	
5	0	0	0	0	532	624	
6	0	0	0	0	531	623	
7	0	0	0	0	531	623	
8	0	0	0	0	531	624	
9	0	0	0	0	531	623	
10	0	0	0	0	531	623	
11	0	0	0	0	531	623	
12	0	0	0	0	531	623	
13	0	0	0	0	531	624	
14	0	0	0	0	531	624	
15	0	0	0	0	531	624	
0	0	0	0	0	531	624	
1	0	0	0	0	531	624	
2	0	0	0	0	531	624	
3	0	0	0	0	532	624	
4	0	0	0	0	532	624	
5	0	0	0	0	532	624	
6	0	0	0	0	531	623	
7	0	0	0	0	532	624	
8	0	0	0	0	532	624	
9	0	0	0	0	531	624	
10	0	0	0	0	531	624	
11	0	0	0	0	532	624	
12	0	0	0	0	532	624	
13	0	0	0	0	531	624	
14	0	0	0	0	531	624	
15	0	0	0	0	531	624	
0	0	0	0	0	530	624	
1	0	0	0	0	530	624	
2	0	0	0	0	530	623	
3	0	0	0	0	530	624	
4	0	0	0	0	530	624	
5	0	0	0	0	531	624	
6	0	0	0	0	531	624	
7	0	0	0	0	531	623	
8	0	0	0	0	531	624	
9	0	0	0	0	531	624	
10	0	0	0	0	532	624	
11	0	0	0	0	532	624	
12	0	0	0	0	532	624	
13	0	0	0	0	532	624	
14	0	0	0	0	533	623	
15	0	0	0	0	532	623	
0	0	0	0	0	532	624	
1	0	0	0	0	532	623	
2	0	0	0	0	532	623	
3	0	0	0	0	531	623	
4	0	0	0	0	531	623	
5	0	0	0	0	531	624	
6	0	0	0	0	531	623	
7	0	0	0	0	530	624	
8	0	0	0	0	530	624	
9	0	0	0	0	530	624	
10	0	0	0	0	531	624	
11	0	0	0	0	531	624	
12	0	0	0	0	532	623	
13	0	0	0	0	532	624	
14	0	0	0	0	533	623	
15	0	0	0	0	533	623	
0	0	0	0	0	533	623	
1	0	0	0	0	534	623	
2	0	0	0	0	534	623	
3	0	0	0	0	535	623	
4	0	0	0	0	536	623	
5	0	0	0	0	536	623	
6	0	0	0	0	536	623	
7	0	0	0	0	536	623	
8	0	0	0	0	536	623	
9	0	0	0	0	537	623	
10	0	0	0	0	537	623	
11	0	0	0	0	538	623	
12	0	0	0	0	538	623	
13	0	0	0	0	539	623	
14	0	0	0	0	539	623	
15	0	0	0	0	539	622	
0	0	0	0	0	539	622	
1	0	0	0	0	539	622	
2	0	0	0	0	539	622	
3	0	0	0	0	539	622	
4	0	0	0	0	539	622	
5	0	0	0	0	540	623	
6	0	0	0	0	539	622	
7	0	0	0	0	539	622	
8	0	0	0	0	539	622	
9	0	0	0	0	539	622	
10	0	0	0	0	539	622	
11	0	0	0	0	538	622	
12	0	0	0	0	537	622	
13	0	0	0	0	537	622	
14	0	0	0	0	536	622	
15	0	0	0	0	536	623	
0	0	0	0	0	536	623	
1	0	0	0	0	535	622	
2	0	0	0	0	535	622	
3	0	0	0	0	535	622	
4	0	0	0	0	534	623	
5	0	0	0	0	534	623	
6	0	0	0	0	534	623	
7	0	0	0	0	534	623	
8	0	0	0	0	534	623	
9	0	0	0	0	533	623	
10	0	0	0	0	532	623	
11	0	0	0	0	531	623	
12	0	0	0	0	530	624	
13	0	0	0	0	530	623	
14	0	0	0	0	529	623	
15	0	0	0	0	527	623	
0	0	0	0	0	527	624	
1	0	0	0	0	526	623	
2	0	0	0	0	524	624	
3	0	0	0	0	524	624	
4	0	0	0	0	523	624	
5	0	0	0	0	521	624	
6	0	0	0	0	520	624	
7	0	0	0	0	521	624	
8	0	0	0	0	520	624	
9	0	0	0	0	520	624	
10	0	0	0	0	519	623	
11	0	0	0	0	519	624	
12	0	0	0	0	518	624	
13	0	0	0	0	517	624	
14	0	0	0	0	516	624	
15	0	0	0	0	516	623	
0	0	0	0	0	516	623	
1	0	0	0	0	516	623	
2	0	0	0	0	515	624	
3	0	0	0	0	514	623	
4	0	0	0	0	513	623	
5	0	0	0	0	513	624	
6	0	0	0	0	513	624	
7	0	0	0	0	512	623	
8	0	0	0	0	511	624	
9	0	0	0	0	511	624	
10	0	0	0	0	510	623	
11	0	0	0	0	510	624	
12	0	0	0	0	509	624	
13	0	0	0	0	507	624	
14	0	0	0	0	506	624	
15	0	0	0	0	505	624	
0	0	0	0	0	504	625	
1	0	0	0	0	504	624	
2	0	0	0	0	504	624	
3	0	0	0	0	504	624	
4	0	0	0	0	503	625	
5	0	0	0	0	503	625	
6	0	0	0	0	502	625	
7	0	0	0	0	501	624	
8	0	0	0	0	500	624	
9	0	0	0	0	500	624	
10	0	0	0	0	499	624	
11	0	0	0	0	498	624	
12	0	0	0	0	497	624	
13	0	0	0	0	498	624	
14	0	0	0	0	498	624	
15	0	0	0	0	498	624	
0	0	0	0	0	498	624	
1	0	0	0	0	497	624	
2	0	0	0	0	497	624	
3	0	0	0	0	497	623	
4	0	0	0	0	496	624	
5	0	0	0	0	496	623	
6	0	0	0	0	496	624	
7	0	0	0	0	495	624	
8	0	0	0	0	495	623	
9	0	0	0	0	496	623	
10	0	0	0	0	496	624	
11	0	0	0	0	496	623	
12	0	0	0	0	497	623	
13	0	0	0	0	497	624	
14	0	0	0	0	497	623	
15	0	0	0	0	498	624	
0	0	0	0	0	497	624	
1	0	0	0	0	498	623	
2	0	0	0	0	498	623	
3	0	0	0	0	498	623	
4	0	0	0	0	499	623	
5	0	0	0	0	499	623	
6	0	0	0	0	499	623	
7	0	0	0	0	500	623	
8	0	0	0	0	500	623	
9	0	0	0	0	500	623	
10	0	0	0	0	500	623	
11	0	0	0	0	500	623	
12	0	0	0	0	500	623	
13	0	0	0	0	500	623	
14	0	0	0	0	501	623	
15	0	0	0	0	502	623	
0	0	0	0	0	502	623	
1	0	0	0	0	502	623	
2	0	0	0	0	502	623	
3	0	0	0	0	503	623	
4	0	0	0	0	504	623	
5	0	0	0	0	504	624	
6	0	0	0	0	505	623	
7	0	0	0	0	505	623	
8	0	0	0	0	507	623	
9	0	0	0	0	507	623	
10	0	0	0	0	507	623	
11	0	0	0	0	508	624	
12	0	0	0	0	507	623	
13	0	0	0	0	508	624	
14	0	0	0	0	508	623	
15	0	0	0	0	508	623	
0	0	0	0	0	508	623	
1	0	0	0	0	508	623	
2	0	0	0	0	508	623	
3	0	0	0	0	508	623	
4	0	0	0	0	509	623	
5	0	0	0	0	509	623	
6	0	0	0	0	510	623	
7	0	0	0	0	510	622	
8	0	0	0	0	511	623	
9	0	0	0	0	511	623	
10	0	0	0	0	511	623	
11	0	0	0	0	511	623	
12	0	0	0	0	511	623	
13	0	0	0	0	511	623	
14	0	0	0	0	511	623	
15	0	0	0	0	512	623	
0	0	0	0	0	513	623	
1	0	0	0	0	513	623	
2	0	0	0	0	513	623	
3	0	0	0	0	513	623	
4	0	0	0	0	513	624	
5	0	0	0	0	513	624	
6	0	0	0	0	513	624	
7	0	0	0	0	513	623	
8	0	0	0	0	513	623	
9	0	0	0	0	514	623	
10	0	0	0	0	513	624	
11	0	0	0	0	513	623	
12	0	0	0	0	513	623	
13	0	0	0	0	512	623	
14	0	0	0	0	513	622	
15	0	0	0	0	513	623	
0	0	0	0	0	514	623	
1	0	0	0	0	515	623	
2	0	0	0	0	514	623	
3	0	0	0	0	515	623	
4	0	0	0	0	515	623	
5	0	0	0	0	515	623	
6	0	0	0	0	515	623	
7	0	0	0	0	515	623	
8	0	0	0	0	515	622	
9	0	0	0	0	514	623	
10	0	0	0	0	515	623	
11	0	0	0	0	515	623	
12	0	0	0	0	515	622	
13	0	0	0	0	515	624	
14	0	0	0	0	515	623	
15	0	0	0	0	514	623	
0	0	0	0	0	514	623	
1	0	0	0	0	514	623	
2	0	0	0	0	514	624	
3	0	0	0	0	514	623	
4	0	0	0	0	514	624	
5	0	0	0	0	514	624	
6	0	0	0	0	515	624	
7	0	0	0	0	515	623	
8	0	0	0	0	515	623	
9	0	0	0	0	514	623	
10	0	0	0	0	514	624	
11	0	0	0	0	514	624	
12	0	0	0	0	514	624	
13	0	0	0	0	514	624	
14	0	0	0	0	514	624	
15	0	0	0	0	514	624	
0	0	0	0	0	514	624	
1	0	0	0	0	514	624	
2	0	0	0	0	513	625	
3	0	0	0	0	513	624	
4	0	0	0	0	513	625	
5	0	0	0	0	513	625	
6	0	0	0	0	513	625	
7	0	0	0	0	513	624	
8	0	0	0	0	514	625	
9	0	0	0	0	514	625	
10	0	0	0	0	514	625	
11	0	0	0	0	513	625	
12	0	0	0	0	513	625	
13	0	0	0	0	512	625	
14	0	0	0	0	512	625	
15	0	0	0	0	512	625	
0	0	0	0	0	513	624	
1	0	0	0	0	513	624	
2	0	0	0	0	513	624	
3	0	0	0	0	512	624	
4	0	0	0	0	512	624	
5	0	0	0	0	511	624	
6	0	0	0	0	511	624	
7	0	0	0	0	510	624	
8	0	0	0	0	511	623	
9	0	0	0	0	511	623	
10	0	0	0	0	511	624	
11	0	0	0	0	511	623	
12	0	0	0	0	511	623	
13	0	0	0	0	511	623	
14	0	0	0	0	512	623	
15	0	0	0	0	512	624	
0	0	0	0	0	512	624	
1	0	0	0	0	512	623	
2	0	0	0	0	511	623	
3	0	0	0	0	511	624	
4	0	0	0	0	510	623	
5	0	0	0	0	510	624	
6	0	0	0	0	509	624	
7	0	0	0	0	509	623	
8	0	0	0	0	508	624	
9	0	0	0	0	508	623	
10	0	0	0	0	507	624	
11	0	0	0	0	506	624	
12	0	0	0	0	505	624	
13	0	0	0	0	505	623	
14	0	0	0	0	504	624	
15	0	0	0	0	504	623	
0	0	0	0	0	504	624	
1	0	0	0	0	503	624	
2	0	0	0	0	502	624	
3	0	0	0	0	502	624	
4	0	0	0	0	501	624	
5	0	0	0	0	500	624	
6	0	0	0	0	499	623	
7	0	0	0	0	498	623	
8	0	0	0	0	497	624	
9	0	0	0	0	497	623	
10	0	0	0	0	496	623	
11	0	0	0	0	496	623	
12	0	0	0	0	496	623	
13	0	0	0	0	496	624	
14	0	0	0	0	496	624	
15	0	0	0	0	495	624	
0	0	0	0	0	495	623	
1	0	0	0	0	495	624	
2	0	0	0	0	495	623	
3	0	0	0	0	496	623	
4	0	0	0	0	495	623	
5	0	0	0	0	495	624	
6	0	0	0	0	495	623	
7	0	0	0	0	495	623	
8	0	0	0	0	496	623	
9	0	0	0	0	496	623	
10	0	0	0	0	496	623	
11	0	0	0	0	496	623	
12	0	0	0	0	495	623	
13	0	0	0	0	496	624	
14	0	0	0	0	496	623	
15	0	0	0	0	495	623	
0	0	0	0	0	495	623	
1	0	0	0	0	495	623	
2	0	0	0	0	495	623	
3	0	0	0	0	494	623	
4	0	0	0	0	494	623	
5	0	0	0	0	494	623	
6	0	0	0	0	494	623	
7	0	0	0	0	494	623	
8	0	0	0	0	494	623	
9	0	0	0	0	493	623	
10	0	0	0	0	492	623	
11	0	0	0	0	493	623	
12	0	0	0	0	492	623	
13	0	0	0	0	493	624	
14	0	0	0	0	493	623	
15	0	0	0	0	494	623	
0	0	0	0	0	494	623	
1	0	0	0	0	494	623	
2	0	0	0	0	494	623	
3	0	0	0	0	494	623	
4	0	0	0	0	494	624	
5	0	0	0	0	494	624	
6	0	0	0	0	495	623	
7	0	0	0	0	495	624	
8	0	0	0	0	494	623	
9	0	0	0	0	495	623	
10	0	0	0	0	495	623	
11	0	0	0	0	495	623	
12	0	0	0	0	496	623	
13	0	0	0	0	496	623	
14	0	0	0	0	496	623	
15	0	0	0	0	497	623	
0	0	0	0	0	496	623	
1	0	0	0	0	497	623	
2	0	0	0	0	497	623	
3	0	0	0	0	497	623	
4	0	0	0	0	497	623	
5	0	0	0	0	497	623	
6	0	0	0	0	498	623	
7	0	0	0	0	498	623	
8	0	0	0	0	498	623	
9	0	0	0	0	498	623	
10	0	0	0	0	497	623	
11	0	0	0	0	498	623	
12	0	0	0	0	498	623	
13	0	0	0	0	497	624	
14	0	0	0	0	498	623	
15	0	0	0	0	497	623	
0	0	0	0	0	497	623	
1	0	0	0	0	497	623	
2	0	0	0	0	497	623	
3	0	0	0	0	498	623	
4	0	0	0	0	498	623	
5	0	0	0	0	498	624	
6	0	0	0	0	499	623	
7	0	0	0	0	499	623	
8	0	0	0	0	500	624	
9	0	0	0	0	501	623	
10	0	0	0	0	500	624	
11	0	0	0	0	501	623	
12	0	0	0	0	502	623	
13	0	0	0	0	503	623	
14	0	0	0	0	503	624	
15	0	0	0	0	503	624	
0	0	0	0	0	502	624	
1	0	0	0	0	502	623	
2	0	0	0	0	502	624	
3	0	0	0	0	502	624	
4	0	0	0	0	502	624	
5	0	0	0	0	502	624	
6	0	0	0	0	502	624	
7	0	0	0	0	502	624	
8	0	0	0	0	502	624	
9	0	0	0	0	502	624	
10	0	0	0	0	503	624	
11	0	0	0	0	502	624	
12	0	0	0	0	502	624	
13	0	0	0	0	502	624	
14	0	0	0	0	501	624	
15	0	0	0	0	502	624	
0	0	0	0	0	502	624	
1	0	0	0	0	503	624	
2	0	0	0	0	503	624	
3	0	0	0	0	503	624	
4	0	0	0	0	503	624	
5	0	0	0	0	503	624	
6	0	0	0	0	503	624	
7	0	0	0	0	503	624	
8	0	0	0	0	503	624	
9	0	0	0	0	502	624	
10	0	0	0	0	502	624	
11	0	0	0	0	502	624	
12	0	0	0	0	501	624	
13	0	0	0	0	501	624	
14	0	0	0	0	500	624	
15	0	0	0	0	500	623	
0	0	0	0	0	499	624	
1	0	0	0	0	499	624	
2	0	0	0	0	499	624	
3	0	0	0	0	499	624	
4	0	0	0	0	499	624	
5	0	0	0	0	499	624	
6	0	0	0	0	498	625	
7	0	0	0	0	498	625	
8	0	0	0	0	499	625	
9	0	0	0	0	498	624	
10	0	0	0	0	499	624	
11	0	0	0	0	499	624	
12	0	0	0	0	499	624	
13	0	0	0	0	499	624	
14	0	0	0	0	499	623	
15	0	0	0	0	499	624	
0	0	0	0	0	499	624	
1	0	0	0	0	499	624	
2	0	0	0	0	499	624	
3	0	0	0	0	499	624	
4	0	0	0	0	498	624	
5	0	0	0	0	498	624	
6	0	0	0	0	498	624	
7	0	0	0	0	498	624	
8	0	0	0	0	498	624	
9	0	0	0	0	498	624	
10	0	0	0	0	497	623	
11	0	0	0	0	498	623	
12	0	0	0	0	498	623	
13	0	0	0	0	498	624	
14	0	0	0	0	499	624	
15	0	0	0	0	498	624	
0	0	0	0	0	498	624	
1	0	0	0	0	499	624	
2	0	0	0	0	499	623	
3	0	0	0	0	499	623	
4	0	0	0	0	499	624	
5	0	0	0	0	499	624	
6	0	0	0	0	499	623	
7	0	0	0	0	499	623	
8	0	0	0	0	499	623	
9	0	0	0	0	500	623	
10	0	0	0	0	500	623	
11	0	0	0	0	499	623	
12	0	0	0	0	499	624	
13	0	0	0	0	499	624	
14	0	0	0	0	499	623	
15	0	0	0	0	498	623	
0	0	0	0	0	499	623	
1	0	0	0	0	499	623	
2	0	0	0	0	500	623	
3	0	0	0	0	500	623	
4	0	0	0	0	500	623	
5	0	0	0	0	500	624	
6	0	0	0	0	500	623	
7	0	0	0	0	500	623	
8	0	0	0	0	500	623	
9	0	0	0	0	500	623	
10	0	0	0	0	499	623	
11	0	0	0	0	499	623	
12	0	0	0	0	499	623	
13	0	0	0	0	499	623	
14	0	0	0	0	498	623	
15	0	0	0	0	496	624	
0	0	0	0	0	496	623	
1	0	0	0	0	495	623	
2	0	0	0	0	496	623	
3	0	0	0	0	496	623	
4	0	0	0	0	496	623	
5	0	0	0	0	496	624	
6	0	0	0	0	496	623	
7	0	0	0	0	497	623	
8	0	0	0	0	497	623	
9	0	0	0	0	497	624	
10	0	0	0	0	497	624	
11	0	0	0	0	498	624	
12	0	0	0	0	499	624	
13	0	0	0	0	499	624	
14	0	0	0	0	499	624	
15	0	0	0	0	498	624	
0	0	0	0	0	497	624	
1	0	0	0	0	498	624	
2	0	0	0	0	498	624	
3	0	0	0	0	498	624	
4	0	0	0	0	499	624	
5	0	0	0	0	499	625	
6	0	0	0	0	498	624	
7	0	0	0	0	498	624	
8	0	0	0	0	498	624	
9	0	0	0	0	498	624	
10	0	0	0	0	498	624	
11	0	0	0	0	499	624	
12	0	0	0	0	499	624	
13	0	0	0	0	499	625	
14	0	0	0	0	499	623	
15	0	0	0	0	499	624	
0	0	0	0	0	499	623	
1	0	0	0	0	499	623	
2	0	0	0	0	499	623	
3	0	0	0	0	499	624	
4	0	0	0	0	499	624	
5	0	0	0	0	499	623	
6	0	0	0	0	499	624	
7	0	0	0	0	499	623	
8	0	0	0	0	499	623	
9	0	0	0	0	499	623	
10	0	0	0	0	499	623	
11	0	0	0	0	499	623	
12	0	0	0	0	499	622	
13	0	0	0	0	499	623	
14	0	0	0	0	499	623	
15	0	0	0	0	499	623	
0	0	0	0	0	499	623	
1	0	0	0	0	499	623	
2	0	0	0	0	498	623	
3	0	0	0	0	498	622	
4	0	0	0	0	499	623	
5	0	0	0	0	499	623	
6	0	0	0	0	500	623	
7	0	0	0	0	500	623	
8	0	0	0	0	502	623	
9	0	0	0	0	502	623	
10	0	0	0	0	502	623	
11	0	0	0	0	502	623	
12	0	0	0	0	502	623	
13	0	0	0	0	502	624	
14	0	0	0	0	503	623	
15	0	0	0	0	503	623	
0	0	0	0	0	502	623	
1	0	0	0	0	502	624	
2	0	0	0	0	501	623	
3	0	0	0	0	501	623	
4	0	0	0	0	500	623	
5	0	0	0	0	501	623	
6	0	0	0	0	500	623	
7	0	0	0	0	501	624	
8	0	0	0	0	501	624	
9	0	0	0	0	502	623	
10	0	0	0	0	502	624	
11	0	0	0	0	502	623	
12	0	0	0	0	502	623	
13	0	0	0	0	501	623	
14	0	0	0	0	500	623	
15	0	0	0	0	499	623	
0	0	0	0	0	499	623	
1	0	0	0	0	499	624	
2	0	0	0	0	499	623	
3	0	0	0	0	500	623	
4	0	0	0	0	502	623	
5	0	0	0	0	502	623	
6	0	0	0	0	503	624	
7	0	0	0	0	504	623	
8	0	0	0	0	504	624	
9	0	0	0	0	504	623	
10	0	0	0	0	503	623	
11	0	0	0	0	503	623	
12	0	0	0	0	503	624	
13	0	0	0	0	502	624	
14	0	0	0	0	501	624	
15	0	0	0	0	502	623	
0	0	0	0	0	502	623	
1	0	0	0	0	501	623	
2	0	0	0	0	502	623	
3	0	0	0	0	502	623	
4	0	0	0	0	504	623	
5	0	0	0	0	506	624	
6	0	0	0	0	508	623	
7	0	0	0	0	510	623	
8	0	0	0	0	511	624	
9	0	0	0	0	512	624	
10	0	0	0	0	513	624	
11	0	0	0	0	513	624	
12	0	0	0	0	514	623	
13	0	0	0	0	514	623	
14	0	0	0	0	515	623	
15	0	0	0	0	515	624	
0	0	0	0	0	515	623	
1	0	0	0	0	515	624	
2	0	0	0	0	517	624	
3	0	0	0	0	518	624	
4	0	0	0	0	519	624	
5	0	0	0	0	519	624	
6	0	0	0	0	519	624	
7	0	0	0	0	519	624	
8	0	0	0	0	519	624	
9	0	0	0	0	520	624	
10	0	0	0	0	520	624	
11	0	0	0	0	520	624	
12	0	0	0	0	521	624	
13	0	0	0	0	521	623	
14	0	0	0	0	521	623	
15	0	0	0	0	521	624	
0	0	0	0	0	521	624	
1	0	0	0	0	521	624	
2	0	0	0	0	521	623	
3	0	0	0	0	522	624	
4	0	0	0	0	521	624	
5	0	0	0	0	521	624	
6	0	0	0	0	521	624	
7	0	0	0	0	520	624	
8	0	0	0	0	519	624	
9	0	0	0	0	518	623	
10	0	0	0	0	516	624	
11	0	0	0	0	515	624	
12	0	0	0	0	514	624	
13	0	0	0	0	514	624	
14	0	0	0	0	514	623	
15	0	0	0	0	514	624	
0	0	0	0	0	514	624	
1	0	0	0	0	513	623	
2	0	0	0	0	512	624	
3	0	0	0	0	512	624	
4	0	0	0	0	511	624	
5	0	0	0	0	511	624	
6	0	0	0	0	510	623	
7	0	0	0	0	510	624	
8	0	0	0	0	510	624	
9	0	0	0	0	509	623	
10	0	0	0	0	509	623	
11	0	0	0	0	509	623	
12	0	0	0	0	510	623	
13	0	0	0	0	509	623	
14	0	0	0	0	509	623	
15	0	0	0	0	509	623	
0	0	0	0	0	509	623	
1	0	0	0	0	510	624	
2	0	0	0	0	510	624	
3	0	0	0	0	510	624	
4	0	0	0	0	510	623	
5	0	0	0	0	510	623	
6	0	0	0	0	509	623	
7	0	0	0	0	508	623	
8	0	0	0	0	508	623	
9	0	0	0	0	508	624	
10	0	0	0	0	507	623	
11	0	0	0	0	506	624	
12	0	0	0	0	505	624	
13	0	0	0	0	505	624	
14	0	0	0	0	505	623	
15	0	0	0	0	505	623	
0	0	0	0	0	505	623	
1	0	0	0	0	504	623	
2	0	0	0	0	504	623	
3	0	0	0	0	504	624	
4	0	0	0	0	503	623	
5	0	0	0	0	504	624	
6	0	0	0	0	503	623	
7	0	0	0	0	503	623	
8	0	0	0	0	503	623	
9	0	0	0	0	503	623	
10	0	0	0	0	502	624	
11	0	0	0	0	501	624	
12	0	0	0	0	500	624	
13	0	0	0	0	500	624	
14	0	0	0	0	499	623	
15	0	0	0	0	499	624	
0	0	0	0	0	498	623	
1	0	0	0	0	498	623	
2	0	0	0	0	498	623	
3	0	0	0	0	497	623	
4	0	0	0	0	497	623	
5	0	0	0	0	496	623	
6	0	0	0	0	496	623	
7	0	0	0	0	495	623	
8	0	0	0	0	494	623	
9	0	0	0	0	494	623	
10	0	0	0	0	492	623	
11	0	0	0	0	491	623	
12	0	0	0	0	490	622	
13	0	0	0	0	488	623	
14	0	0	0	0	487	623	
15	0	0	0	0	484	624	
0	0	0	0	0	482	623	
1	0	0	0	0	479	623	
2	0	0	0	0	476	623	
3	0	0	0	0	472	623	
4	0	0	0	0	468	623	
5	0	0	0	0	465	623	
6	0	0	0	0	462	623	
7	0	0	0	0	461	623	
8	0	0	0	0	461	624	
9	0	0	0	0	460	623	
10	0	0	0	0	460	623	
11	0	0	0	0	459	624	
12	0	0	0	0	461	623	
13	0	0	0	0	463	624	
14	0	0	0	0	465	624	
15	0	0	0	0	468	623	
0	0	0	0	0	473	623	
1	0	0	0	0	477	623	
2	0	0	0	0	483	624	
3	0	0	0	0	491	624	
4	0	0	0	0	500	624	
5	0	0	0	0	510	624	
6	0	0	0	0	520	624	
7	0	0	0	0	531	624	
8	0	0	0	0	543	624	
9	0	0	0	0	557	624	
10	0	0	0	0	574	624	
11	0	0	0	0	591	624	
12	0	0	0	0	609	624	
13	0	0	0	0	629	624	
14	0	0	0	0	650	624	
15	0	0	0	0	672	624	
0	0	0	0	0	693	624	
1	0	0	0	0	713	624	
2	0	0	0	0	732	624	
3	0	0	0	0	745	624	
4	0	0	0	0	752	624	
5	0	0	0	0	752	624	
6	0	0	0	0	747	624	
7	0	0	0	0	736	624	
8	0	0	0	0	723	623	
9	0	0	0	0	706	624	
10	0	0	0	0	687	624	
11	0	0	0	0	666	624	
12	0	0	0	0	647	624	
13	0	0	0	0	630	625	
14	0	0	0	0	614	624	
15	0	0	0	0	599	623	
0	0	0	0	0	585	624	
1	0	0	0	0	572	624	
2	0	0	0	0	559	624	
3	0	0	0	0	547	623	
4	0	0	0	0	536	623	
5	0	0	0	0	526	624	
6	0	0	0	0	517	623	
7	0	0	0	0	509	623	
8	0	0	0	0	502	623	
9	0	0	0	0	495	623	
10	0	0	0	0	489	623	
11	0	0	0	0	483	623	
12	0	0	0	0	479	623	
13	0	0	0	0	476	624	
14	0	0	0	0	472	623	
15	0	0	0	0	470	624	
0	0	0	0	0	467	623	
1	0	0	0	0	465	623	
2	0	0	0	0	464	623	
3	0	0	0	0	462	623	
4	0	0	0	0	462	623	
5	0	0	0	0	460	624	
6	0	0	0	0	459	623	
7	0	0	0	0	458	623	
8	0	0	0	0	457	623	
9	0	0	0	0	455	624	
10	0	0	0	0	455	624	
11	0	0	0	0	454	624	
12	0	0	0	0	453	623	
13	0	0	0	0	453	624	
14	0	0	0	0	452	623	
15	0	0	0	0	451	624	
0	0	0	0	0	451	624	
1	0	0	0	0	450	624	
2	0	0	0	0	450	623	
3	0	0	0	0	449	624	
4	0	0	0	0	448	623	
5	0	0	0	0	448	624	
6	0	0	0	0	448	624	
7	0	0	0	0	448	623	
8	0	0	0	0	447	624	
9	0	0	0	0	447	623	
10	0	0	0	0	447	624	
11	0	0	0	0	447	624	
12	0	0	0	0	447	623	
13	0	0	0	0	448	623	
14	0	0	0	0	448	624	
15	0	0	0	0	447	623	
0	0	0	0	0	446	623	
1	0	0	0	0	446	623	
2	0	0	0	0	447	623	
3	0	0	0	0	447	623	
4	0	0	0	0	448	623	
5	0	0	0	0	448	623	
6	0	0	0	0	448	623	
7	0	0	0	0	449	623	
8	0	0	0	0	449	623	
9	0	0	0	0	449	623	
10	0	0	0	0	449	623	
11	0	0	0	0	449	623	
12	0	0	0	0	450	623	
13	0	0	0	0	449	623	
14	0	0	0	0	449	623	
15	0	0	0	0	449	623	
0	0	0	0	0	449	623	
1	0	0	0	0	450	623	
2	0	0	0	0	449	622	
3	0	0	0	0	450	623	
4	0	0	0	0	449	623	
5	0	0	0	0	450	623	
6	0	0	0	0	451	623	
7	0	0	0	0	451	623	
8	0	0	0	0	451	623	
9	0	0	0	0	452	623	
10	0	0	0	0	452	623	
11	0	0	0	0	453	623	
12	0	0	0	0	453	623	
13	0	0	0	0	453	624	
14	0	0	0	0	454	623	
15	0	0	0	0	455	623	
0	0	0	0	0	455	624	
1	0	0	0	0	455	623	
2	0	0	0	0	455	623	
3	0	0	0	0	455	624	
4	0	0	0	0	455	623	
5	0	0	0	0	455	624	
6	0	0	0	0	455	623	
7	0	0	0	0	457	624	
8	0	0	0	0	457	624	
9	0	0	0	0	457	624	
10	0	0	0	0	459	624	
11	0	0	0	0	460	624	
12	0	0	0	0	461	624	
13	0	0	0	0	461	624	
14	0	0	0	0	461	624	
15	0	0	0	0	461	623	
0	0	0	0	0	462	623	
1	0	0	0	0	463	623	
2	0	0	0	0	464	624	
3	0	0	0	0	464	623	
4	0	0	0	0	464	623	
5	0	0	0	0	464	623	
6	0	0	0	0	464	623	
7	0	0	0	0	464	623	
8	0	0	0	0	464	623	
9	0	0	0	0	464	623	
10	0	0	0	0	464	623	
11	0	0	0	0	464	623	
12	0	0	0	0	464	622	
13	0	0	0	0	464	623	
14	0	0	0	0	464	622	
15	0	0	0	0	465	623	
0	0	0	0	0	466	622	
1	0	0	0	0	466	623	
2	0	0	0	0	466	623	
3	0	0	0	0	467	622	
4	0	0	0	0	467	623	
5	0	0	0	0	467	624	
6	0	0	0	0	467	623	
7	0	0	0	0	467	623	
8	0	0	0	0	467	623	
9	0	0	0	0	467	623	
10	0	0	0	0	467	623	
11	0	0	0	0	468	624	
12	0	0	0	0	467	623	
13	0	0	0	0	468	623	
14	0	0	0	0	469	623	
15	0	0	0	0	470	623	
0	0	0	0	0	471	624	
1	0	0	0	0	472	623	
2	0	0	0	0	472	623	
3	0	0	0	0	472	623	
4	0	0	0	0	474	624	
5	0	0	0	0	475	624	
6	0	0	0	0	476	623	
7	0	0	0	0	477	623	
8	0	0	0	0	477	624	
9	0	0	0	0	477	624	
10	0	0	0	0	477	624	
11	0	0	0	0	478	624	
12	0	0	0	0	480	624	
13	0	0	0	0	480	624	
14	0	0	0	0	481	624	
15	0	0	0	0	481	624	
0	0	0	0	0	482	624	
1	0	0	0	0	482	624	
2	0	0	0	0	483	624	
3	0	0	0	0	484	624	
4	0	0	0	0	485	624	
5	0	0	0	0	485	624	
6	0	0	0	0	485	624	
7	0	0	0	0	485	625	
8	0	0	0	0	486	624	
9	0	0	0	0	485	625	
10	0	0	0	0	486	624	
11	0	0	0	0	487	624	
12	0	0	0	0	487	624	
13	0	0	0	0	488	625	
14	0	0	0	0	489	625	
15	0	0	0	0	490	624	
0	0	0	0	0	491	625	
1	0	0	0	0	491	625	
2	0	0	0	0	492	625	
3	0	0	0	0	492	625	
4	0	0	0	0	493	625	
5	0	0	0	0	493	625	
6	0	0	0	0	493	624	
7	0	0	0	0	494	624	
8	0	0	0	0	494	624	
9	0	0	0	0	495	624	
10	0	0	0	0	496	624	
11	0	0	0	0	496	625	
12	0	0	0	0	497	624	
13	0	0	0	0	497	624	
14	0	0	0	0	498	624	
15	0	0	0	0	498	624	
0	0	0	0	0	499	624	
1	0	0	0	0	499	624	
2	0	0	0	0	499	624	
3	0	0	0	0	500	624	
4	0	0	0	0	500	624	
5	0	0	0	0	499	624	
6	0	0	0	0	500	624	
7	0	0	0	0	500	624	
8	0	0	0	0	500	624	
9	0	0	0	0	501	624	
10	0	0	0	0	501	624	
11	0	0	0	0	501	624	
12	0	0	0	0	501	624	
13	0	0	0	0	501	625	
14	0	0	0	0	502	624	
15	0	0	0	0	502	624	
0	0	0	0	0	503	624	
1	0	0	0	0	503	624	
2	0	0	0	0	504	624	
3	0	0	0	0	504	624	
4	0	0	0	0	504	624	
5	0	0	0	0	505	624	
6	0	0	0	0	505	623	
7	0	0	0	0	506	624	
8	0	0	0	0	506	624	
9	0	0	0	0	506	624	
10	0	0	0	0	507	624	
11	0	0	0	0	507	623	
12	0	0	0	0	507	623	
13	0	0	0	0	507	624	
14	0	0	0	0	507	623	
15	0	0	0	0	507	623	
0	0	0	0	0	506	622	
1	0	0	0	0	506	623	
2	0	0	0	0	506	623	
3	0	0	0	0	507	623	
4	0	0	0	0	508	623	
5	0	0	0	0	508	623	
6	0	0	0	0	508	623	
7	0	0	0	0	509	623	
8	0	0	0	0	509	623	
9	0	0	0	0	509	623	
10	0	0	0	0	509	623	
11	0	0	0	0	509	623	
12	0	0	0	0	510	623	
13	0	0	0	0	511	623	
14	0	0	0	0	511	622	
15	0	0	0	0	512	623	
0	0	0	0	0	512	623	
1	0	0	0	0	512	623	
2	0	0	0	0	512	623	
3	0	0	0	0	512	623	
4	0	0	0	0	512	623	
5	0	0	0	0	512	623	
6	0	0	0	0	512	623	
7	0	0	0	0	512	622	
8	0	0	0	0	512	623	
9	0	0	0	0	512	622	
10	0	0	0	0	511	622	
11	0	0	0	0	511	622	
12	0	0	0	0	511	623	
13	0	0	0	0	511	622	
14	0	0	0	0	511	622	
15	0	0	0	0	511	623	
0	0	0	0	0	511	622	
1	0	0	0	0	511	622	
2	0	0	0	0	512	622	
3	0	0	0	0	512	622	
4	0	0	0	0	511	623	
5	0	0	0	0	511	623	
6	0	0	0	0	512	622	
7	0	0	0	0	512	623	
8	0	0	0	0	513	623	
9	0	0	0	0	513	623	
10	0	0	0	0	513	623	
11	0	0	0	0	513	623	
12	0	0	0	0	513	623	
13	0	0	0	0	512	624	
14	0	0	0	0	512	623	
15	0	0	0	0	512	623	
0	0	0	0	0	512	623	
1	0	0	0	0	512	623	
2	0	0	0	0	512	623	
3	0	0	0	0	512	623	
4	0	0	0	0	511	624	
5	0	0	0	0	510	624	
6	0	0	0	0	510	623	
7	0	0	0	0	509	624	
8	0	0	0	0	508	623	
9	0	0	0	0	507	623	
10	0	0	0	0	507	623	
11	0	0	0	0	506	624	
12	0	0	0	0	504	623	
13	0	0	0	0	503	624	
14	0	0	0	0	502	623	
15	0	0	0	0	502	624	
0	0	0	0	0	502	624	
1	0	0	0	0	502	623	
2	0	0	0	0	502	624	
3	0	0	0	0	502	624	
4	0	0	0	0	502	624	
5	0	0	0	0	502	624	
6	0	0	0	0	501	623	
7	0	0	0	0	501	623	
8	0	0	0	0	501	624	
9	0	0	0	0	501	624	
10	0	0	0	0	500	624	
11	0	0	0	0	500	624	
12	0	0	0	0	499	624	
13	0	0	0	0	499	624	
14	0	0	0	0	498	624	
15	0	0	0	0	497	624	
0	0	0	0	0	496	624	
1	0	0	0	0	496	624	
2	0	0	0	0	496	624	
3	0	0	0	0	495	624	
4	0	0	0	0	496	624	
5	0	0	0	0	496	625	
6	0	0	0	0	496	623	
7	0	0	0	0	497	624	
8	0	0	0	0	496	624	
9	0	0	0	0	496	624	
10	0	0	0	0	496	624	
11	0	0	0	0	496	624	
12	0	0	0	0	496	624	
13	0	0	0	0	497	624	
14	0	0	0	0	497	624	
15	0	0	0	0	497	624	
0	0	0	0	0	497	624	
1	0	0	0	0	497	624	
2	0	0	0	0	496	624	
3	0	0	0	0	496	624	
4	0	0	0	0	497	624	
5	0	0	0	0	496	624	
6	0	0	0	0	497	623	
7	0	0	0	0	497	624	
8	0	0	0	0	498	623	
9	0	0	0	0	498	624	
10	0	0	0	0	499	624	
11	0	0	0	0	499	623	
12	0	0	0	0	498	624	
13	0	0	0	0	499	624	
14	0	0	0	0	500	623	
15	0	0	0	0	500	624	
0	0	0	0	0	500	624	
1	0	0	0	0	499	624	
2	0	0	0	0	500	624	
3	0	0	0	0	500	624	
4	0	0	0	0	500	624	
5	0	0	0	0	500	624	
6	0	0	0	0	500	624	
7	0	0	0	0	499	624	
8	0	0	0	0	499	625	
9	0	0	0	0	499	623	
10	0	0	0	0	500	624	
11	0	0	0	0	502	624	
12	0	0	0	0	501	624	
13	0	0	0	0	501	624	
14	0	0	0	0	501	624	
15	0	0	0	0	500	623	
0	0	0	0	0	499	623	
1	0	0	0	0	499	623	
2	0	0	0	0	500	623	
3	0	0	0	0	501	624	
4	0	0	0	0	501	624	
5	0	0	0	0	502	623	
6	0	0	0	0	502	623	
7	0	0	0	0	502	623	
8	0	0	0	0	501	623	
9	0	0	0	0	502	623	
10	0	0	0	0	502	623	
11	0	0	0	0	502	623	
12	0	0	0	0	503	622	
13	0	0	0	0	504	622	
14	0	0	0	0	504	623	
15	0	0	0	0	504	623	
0	0	0	0	0	504	623	
1	0	0	0	0	503	623	
2	0	0	0	0	503	623	
3	0	0	0	0	504	623	
4	0	0	0	0	504	623	
5	0	0	0	0	504	623	
6	0	0	0	0	503	623	
7	0	0	0	0	503	623	
8	0	0	0	0	503	623	
9	0	0	0	0	503	623	
10	0	0	0	0	502	623	
11	0	0	0	0	502	624	
12	0	0	0	0	502	624	
13	0	0	0	0	502	624	
14	0	0	0	0	502	624	
15	0	0	0	0	503	624	
0	0	0	0	0	502	624	
1	0	0	0	0	502	623	
2	0	0	0	0	502	624	
3	0	0	0	0	503	624	
4	0	0	0	0	502	624	
5	0	0	0	0	502	624	
6	0	0	0	0	502	624	
7	0	0	0	0	502	624	
8	0	0	0	0	502	623	
9	0	0	0	0	502	624	
10	0	0	0	0	502	623	
11	0	0	0	0	502	623	
12	0	0	0	0	502	624	
13	0	0	0	0	502	623	
14	0	0	0	0	502	624	
15	0	0	0	0	502	624	
0	0	0	0	0	503	624	
1	0	0	0	0	503	624	
2	0	0	0	0	503	624	
3	0	0	0	0	504	623	
4	0	0	0	0	504	623	
5	0	0	0	0	505	623	
6	0	0	0	0	506	623	
7	0	0	0	0	506	623	
8	0	0	0	0	506	623	
9	0	0	0	0	506	623	
10	0	0	0	0	506	623	
11	0	0	0	0	507	623	
12	0	0	0	0	506	623	
13	0	0	0	0	506	623	
14	0	0	0	0	506	624	
15	0	0	0	0	506	624	
0	0	0	0	0	506	623	
1	0	0	0	0	507	624	
2	0	0	0	0	507	624	
3	0	0	0	0	507	624	
4	0	0	0	0	507	624	
5	0	0	0	0	508	623	
6	0	0	0	0	508	624	
7	0	0	0	0	508	623	
8	0	0	0	0	509	624	
9	0	0	0	0	508	623	
10	0	0	0	0	508	624	
11	0	0	0	0	508	623	
12	0	0	0	0	508	623	
13	0	0	0	0	508	624	
14	0	0	0	0	509	623	
15	0	0	0	0	510	624	
0	0	0	0	0	510	623	
1	0	0	0	0	510	622	
2	0	0	0	0	509	623	
3	0	0	0	0	509	623	
4	0	0	0	0	509	623	
5	0	0	0	0	509	623	
6	0	0	0	0	509	623	
7	0	0	0	0	509	622	
8	0	0	0	0	509	623	
9	0	0	0	0	510	622	
10	0	0	0	0	510	622	
11	0	0	0	0	510	622	
12	0	0	0	0	509	623	
13	0	0	0	0	509	623	
14	0	0	0	0	509	624	
15	0	0	0	0	510	623	
0	0	0	0	0	509	623	
1	0	0	0	0	510	623	
2	0	0	0	0	510	623	
3	0	0	0	0	511	624	
4	0	0	0	0	511	623	
5	0	0	0	0	511	624	
6	0	0	0	0	511	623	
7	0	0	0	0	510	624	
8	0	0	0	0	511	623	
9	0	0	0	0	511	624	
10	0	0	0	0	511	623	
11	0	0	0	0	511	624	
12	0	0	0	0	510	623	
13	0	0	0	0	511	624	
14	0	0	0	0	512	623	
15	0	0	0	0	512	623	
0	0	0	0	0	512	623	
1	0	0	0	0	512	623	
2	0	0	0	0	512	623	
3	0	0	0	0	512	624	
4	0	0	0	0	512	623	
5	0	0	0	0	512	624	
6	0	0	0	0	513	624	
7	0	0	0	0	512	623	
8	0	0	0	0	512	624	
9	0	0	0	0	512	623	
10	0	0	0	0	512	624	
11	0	0	0	0	512	623	
12	0	0	0	0	511	624	
13	0	0	0	0	512	624	
14	0	0	0	0	511	624	
15	0	0	0	0	512	624	
0	0	0	0	0	512	624	
1	0	0	0	0	511	624	
2	0	0	0	0	510	623	
3	0	0	0	0	510	624	
4	0	0	0	0	510	624	
5	0	0	0	0	509	624	
6	0	0	0	0	509	623	
7	0	0	0	0	509	624	
8	0	0	0	0	508	624	
9	0	0	0	0	508	624	
10	0	0	0	0	508	624	
11	0	0	0	0	508	623	
12	0	0	0	0	509	623	
13	0	0	0	0	509	624	
14	0	0	0	0	508	623	
15	0	0	0	0	508	623	
0	0	0	0	0	507	624	
1	0	0	0	0	506	623	
2	0	0	0	0	506	623	
3	0	0	0	0	506	623	
4	0	0	0	0	505	623	
5	0	0	0	0	506	624	
6	0	0	0	0	505	623	
7	0	0	0	0	505	623	
8	0	0	0	0	505	623	
9	0	0	0	0	505	623	
10	0	0	0	0	505	623	
11	0	0	0	0	505	623	
12	0	0	0	0	505	623	
13	0	0	0	0	505	623	
14	0	0	0	0	505	623	
15	0	0	0	0	505	623	
0	0	0	0	0	505	624	
1	0	0	0	0	504	623	
2	0	0	0	0	504	623	
3	0	0	0	0	504	623	
4	0	0	0	0	504	623	
5	0	0	0	0	504	624	
6	0	0	0	0	503	624	
7	0	0	0	0	503	623	
8	0	0	0	0	503	623	
9	0	0	0	0	503	623	
10	0	0	0	0	503	623	
11	0	0	0	0	503	623	
12	0	0	0	0	503	623	
13	0	0	0	0	502	623	
14	0	0	0	0	503	624	
15	0	0	0	0	503	623	
0	0	0	0	0	502	623	
1	0	0	0	0	502	623	
2	0	0	0	0	500	623	
3	0	0	0	0	500	622	
4	0	0	0	0	501	623	
5	0	0	0	0	501	623	
6	0	0	0	0	502	623	
7	0	0	0	0	502	623	
8	0	0	0	0	502	622	
9	0	0	0	0	503	623	
10	0	0	0	0	503	623	
11	0	0	0	0	502	623	
12	0	0	0	0	501	623	
13	0	0	0	0	502	623	
14	0	0	0	0	504	623	
15	0	0	0	0	504	623	
0	0	0	0	0	504	623	
1	0	0	0	0	504	624	
2	0	0	0	0	504	624	
3	0	0	0	0	504	624	
4	0	0	0	0	504	623	
5	0	0	0	0	504	624	
6	0	0	0	0	504	624	
7	0	0	0	0	505	623	
8	0	0	0	0	505	623	
9	0	0	0	0	504	623	
10	0	0	0	0	504	623	
11	0	0	0	0	504	623	
12	0	0	0	0	504	624	
13	0	0	0	0	503	624	
14	0	0	0	0	503	623	
15	0	0	0	0	503	624	
0	0	0	0	0	503	624	
1	0	0	0	0	502	623	
2	0	0	0	0	502	624	
3	0	0	0	0	502	624	
4	0	0	0	0	502	624	
5	0	0	0	0	502	624	
6	0	0	0	0	501	623	
7	0	0	0	0	502	623	
8	0	0	0	0	502	623	
9	0	0	0	0	502	624	
10	0	0	0	0	503	624	
11	0	0	0	0	503	624	
12	0	0	0	0	503	623	
13	0	0	0	0	503	624	
14	0	0	0	0	503	623	
15	0	0	0	0	503	623	
0	0	0	0	0	504	624	
1	0	0	0	0	504	623	
2	0	0	0	0	504	623	
3	0	0	0	0	504	623	
4	0	0	0	0	503	623	
5	0	0	0	0	503	623	
6	0	0	0	0	503	623	
7	0	0	0	0	503	624	
8	0	0	0	0	502	624	
9	0	0	0	0	502	623	
10	0	0	0	0	502	623	
11	0	0	0	0	502	624	
12	0	0	0	0	502	623	
13	0	0	0	0	501	623	
14	0	0	0	0	501	623	
15	0	0	0	0	501	623	
0	0	0	0	0	501	623	
1	0	0	0	0	501	623	
2	0	0	0	0	502	623	
3	0	0	0	0	502	623	
4	0	0	0	0	502	623	
5	0	0	0	0	503	623	
6	0	0	0	0	503	623	
7	0	0	0	0	503	623	
8	0	0	0	0	503	623	
9	0	0	0	0	503	623	
10	0	0	0	0	503	623	
11	0	0	0	0	503	623	
12	0	0	0	0	502	623	
13	0	0	0	0	502	624	
14	0	0	0	0	502	623	
15	0	0	0	0	502	624	
0	0	0	0	0	502	624	
1	0	0	0	0	502	624	
2	0	0	0	0	501	624	
3	0	0	0	0	501	623	
4	0	0	0	0	501	624	
5	0	0	0	0	501	624	
6	0	0	0	0	501	623	
7	0	0	0	0	501	623	
8	0	0	0	0	501	624	
9	0	0	0	0	501	623	
10	0	0	0	0	501	624	
11	0	0	0	0	501	624	
12	0	0	0	0	502	624	
13	0	0	0	0	502	624	
14	0	0	0	0	501	624	
15	0	0	0	0	501	624	
0	0	0	0	0	501	624	
1	0	0	0	0	500	623	
2	0	0	0	0	500	624	
3	0	0	0	0	500	624	
4	0	0	0	0	499	623	
5	0	0	0	0	499	623	
6	0	0	0	0	499	623	
7	0	0	0	0	499	623	
8	0	0	0	0	499	623	
9	0	0	0	0	499	623	
10	0	0	0	0	498	624	
11	0	0	0	0	498	623	
12	0	0	0	0	498	624	
13	0	0	0	0	497	624	
14	0	0	0	0	496	624	
15	0	0	0	0	496	624	
0	0	0	0	0	495	624	
1	0	0	0	0	495	623	
2	0	0	0	0	496	624	
3	0	0	0	0	496	624	
4	0	0	0	0	497	624	
5	0	0	0	0	497	623	
6	0	0	0	0	496	624	
7	0	0	0	0	496	623	
8	0	0	0	0	495	624	
9	0	0	0	0	495	624	
10	0	0	0	0	495	624	
11	0	0	0	0	496	624	
12	0	0	0	0	496	624	
13	0	0	0	0	495	624	
14	0	0	0	0	495	624	
15	0	0	0	0	495	624	
0	0	0	0	0	496	624	
1	0	0	0	0	495	624	
2	0	0	0	0	496	623	
3	0	0	0	0	495	623	
4	0	0	0	0	494	623	
5	0	0	0	0	494	624	
6	0	0	0	0	494	623	
7	0	0	0	0	494	624	
8	0	0	0	0	495	623	
9	0	0	0	0	494	623	
10	0	0	0	0	495	623	
11	0	0	0	0	494	623	
12	0	0	0	0	493	623	
13	0	0	0	0	493	624	
14	0	0	0	0	493	624	
15	0	0	0	0	492	624	
0	0	0	0	0	493	624	
1	0	0	0	0	493	623	
2	0	0	0	0	493	624	
3	0	0	0	0	493	624	
4	0	0	0	0	493	624	
5	0	0	0	0	494	624	
6	0	0	0	0	493	624	
7	0	0	0	0	493	624	
8	0	0	0	0	494	624	
9	0	0	0	0	494	624	
10	0	0	0	0	494	623	
11	0	0	0	0	494	624	
12	0	0	0	0	494	623	
13	0	0	0	0	495	624	
14	0	0	0	0	494	624	
15	0	0	0	0	495	624	
0	0	0	0	0	496	623	
1	0	0	0	0	496	623	
2	0	0	0	0	496	624	
3	0	0	0	0	497	623	
4	0	0	0	0	497	624	
5	0	0	0	0	497	624	
6	0	0	0	0	496	624	
7	0	0	0	0	496	623	
8	0	0	0	0	496	624	
9	0	0	0	0	496	623	
10	0	0	0	0	496	624	
11	0	0	0	0	496	623	
12	0	0	0	0	495	624	
13	0	0	0	0	496	624	
14	0	0	0	0	496	623	
15	0	0	0	0	496	624	
0	0	0	0	0	496	624	
1	0	0	0	0	496	624	
2	0	0	0	0	496	623	
3	0	0	0	0	496	624	
4	0	0	0	0	497	623	
5	0	0	0	0	497	624	
6	0	0	0	0	497	623	
7	0	0	0	0	497	623	
8	0	0	0	0	497	623	
9	0	0	0	0	497	623	
10	0	0	0	0	496	623	
11	0	0	0	0	496	623	
12	0	0	0	0	496	624	
13	0	0	0	0	495	624	
14	0	0	0	0	494	623	
15	0	0	0	0	494	623	
0	0	0	0	0	494	624	
1	0	0	0	0	494	623	
2	0	0	0	0	493	623	
3	0	0	0	0	493	623	
4	0	0	0	0	493	624	
5	0	0	0	0	493	624	
6	0	0	0	0	493	623	
7	0	0	0	0	494	623	
8	0	0	0	0	494	623	
9	0	0	0	0	495	623	
10	0	0	0	0	495	623	
11	0	0	0	0	494	623	
12	0	0	0	0	494	623	
13	0	0	0	0	494	623	
14	0	0	0	0	494	623	
15	0	0	0	0	494	623	
0	0	0	0	0	493	623	
1	0	0	0	0	492	623	
2	0	0	0	0	492	624	
3	0	0	0	0	492	622	
4	0	0	0	0	490	623	
5	0	0	0	0	490	624	
6	0	0	0	0	489	623	
7	0	0	0	0	490	623	
8	0	0	0	0	489	623	
9	0	0	0	0	489	623	
10	0	0	0	0	488	623	
11	0	0	0	0	488	624	
12	0	0	0	0	488	623	
13	0	0	0	0	488	623	
14	0	0	0	0	488	623	
15	0	0	0	0	488	623	
0	0	0	0	0	488	623	
1	0	0	0	0	489	623	
2	0	0	0	0	488	623	
3	0	0	0	0	488	623	
4	0	0	0	0	487	623	
5	0	0	0	0	487	623	
6	0	0	0	0	486	624	
7	0	0	0	0	485	623	
8	0	0	0	0	484	623	
9	0	0	0	0	483	623	
10	0	0	0	0	483	623	
11	0	0	0	0	483	623	
12	0	0	0	0	481	623	
13	0	0	0	0	480	624	
14	0	0	0	0	479	623	
15	0	0	0	0	478	624	
0	0	0	0	0	477	623	
1	0	0	0	0	477	623	
2	0	0	0	0	476	623	
3	0	0	0	0	475	623	
4	0	0	0	0	475	624	
5	0	0	0	0	474	624	
6	0	0	0	0	473	624	
7	0	0	0	0	472	623	
8	0	0	0	0	471	623	
9	0	0	0	0	471	623	
10	0	0	0	0	470	624	
11	0	0	0	0	470	624	
12	0	0	0	0	470	624	
13	0	0	0	0	471	624	
14	0	0	0	0	471	623	
15	0	0	0	0	472	624	
0	0	0	0	0	472	624	
1	0	0	0	0	472	623	
2	0	0	0	0	472	623	
3	0	0	0	0	472	624	
4	0	0	0	0	471	624	
5	0	0	0	0	470	624	
6	0	0	0	0	469	623	
7	0	0	0	0	469	623	
8	0	0	0	0	469	623	
9	0	0	0	0	469	624	
10	0	0	0	0	469	624	
11	0	0	0	0	470	623	
12	0	0	0	0	471	623	
13	0	0	0	0	472	624	
14	0	0	0	0	473	623	
15	0	0	0	0	474	623	
0	0	0	0	0	475	623	
1	0	0	0	0	476	623	
2	0	0	0	0	477	623	
3	0	0	0	0	478	623	
4	0	0	0	0	479	622	
5	0	0	0	0	480	623	
6	0	0	0	0	481	622	
7	0	0	0	0	482	623	
8	0	0	0	0	483	623	
9	0	0	0	0	483	623	
10	0	0	0	0	482	623	
11	0	0	0	0	483	622	
12	0	0	0	0	484	623	
13	0	0	0	0	484	623	
14	0	0	0	0	484	623	
15	0	0	0	0	485	623	
0	0	0	0	0	485	624	
1	0	0	0	0	485	624	
2	0	0	0	0	485	624	
3	0	0	0	0	485	623	
4	0	0	0	0	486	624	
5	0	0	0	0	486	624	
6	0	0	0	0	487	624	
7	0	0	0	0	487	624	
8	0	0	0	0	487	623	
9	0	0	0	0	486	624	
10	0	0	0	0	486	624	
11	0	0	0	0	486	624	
12	0	0	0	0	486	624	
13	0	0	0	0	485	624	
14	0	0	0	0	485	624	
15	0	0	0	0	485	624	
0	0	0	0	0	484	623	
1	0	0	0	0	484	623	
2	0	0	0	0	483	623	
3	0	0	0	0	482	624	
4	0	0	0	0	482	624	
5	0	0	0	0	480	624	
6	0	0	0	0	480	624	
7	0	0	0	0	479	624	
8	0	0	0	0	477	624	
9	0	0	0	0	477	624	
10	0	0	0	0	476	624	
11	0	0	0	0	476	623	
12	0	0	0	0	476	624	
13	0	0	0	0	476	624	
14	0	0	0	0	476	624	
15	0	0	0	0	476	624	
0	0	0	0	0	477	623	
1	0	0	0	0	477	624	
2	0	0	0	0	477	623	
3	0	0	0	0	477	623	
4	0	0	0	0	477	624	
5	0	0	0	0	478	624	
6	0	0	0	0	478	623	
7	0	0	0	0	478	623	
8	0	0	0	0	479	624	
9	0	0	0	0	479	624	
10	0	0	0	0	479	624	
11	0	0	0	0	478	624	
12	0	0	0	0	477	624	
13	0	0	0	0	478	624	
14	0	0	0	0	478	623	
15	0	0	0	0	478	624	
0	0	0	0	0	478	624	
1	0	0	0	0	478	623	
2	0	0	0	0	479	624	
3	0	0	0	0	478	623	
4	0	0	0	0	478	623	
5	0	0	0	0	478	624	
6	0	0	0	0	479	623	
7	0	0	0	0	479	623	
8	0	0	0	0	480	624	
9	0	0	0	0	480	623	
10	0	0	0	0	480	623	
11	0	0	0	0	480	623	
12	0	0	0	0	480	623	
13	0	0	0	0	480	624	
14	0	0	0	0	480	624	
15	0	0	0	0	480	623	
0	0	0	0	0	479	623	
1	0	0	0	0	480	624	
2	0	0	0	0	480	623	
3	0	0	0	0	480	623	
4	0	0	0	0	480	624	
5	0	0	0	0	480	623	
6	0	0	0	0	479	623	
7	0	0	0	0	479	624	
8	0	0	0	0	479	624	
9	0	0	0	0	479	624	
10	0	0	0	0	480	623	
11	0	0	0	0	481	624	
12	0	0	0	0	481	623	
13	0	0	0	0	481	624	
14	0	0	0	0	482	624	
15	0	0	0	0	482	624	
0	0	0	0	0	482	624	
1	0	0	0	0	483	624	
2	0	0	0	0	483	624	
3	0	0	0	0	483	623	
4	0	0	0	0	483	623	
5	0	0	0	0	482	623	
6	0	0	0	0	480	624	
7	0	0	0	0	479	624	
8	0	0	0	0	477	624	
9	0	0	0	0	475	624	
10	0	0	0	0	473	624	
11	0	0	0	0	470	624	
12	0	0	0	0	467	624	
13	0	0	0	0	465	623	
14	0	0	0	0	462	623	
15	0	0	0	0	459	623	
0	0	0	0	0	457	624	
1	0	0	0	0	456	623	
2	0	0	0	0	455	623	
3	0	0	0	0	455	624	
4	0	0	0	0	456	624	
5	0	0	0	0	457	623	
6	0	0	0	0	459	623	
7	0	0	0	0	460	623	
8	0	0	0	0	463	623	
9	0	0	0	0	468	623	
10	0	0	0	0	473	623	
11	0	0	0	0	479	623	
12	0	0	0	0	486	623	
13	0	0	0	0	494	624	
14	0	0	0	0	502	624	
15	0	0	0	0	512	623	
0	0	0	0	0	522	623	
1	0	0	0	0	534	623	
2	0	0	0	0	547	624	
3	0	0	0	0	563	624	
4	0	0	0	0	579	623	
5	0	0	0	0	596	624	
6	0	0	0	0	615	624	
7	0	0	0	0	635	623	
8	0	0	0	0	656	624	
9	0	0	0	0	677	624	
10	0	0	0	0	697	624	
11	0	0	0	0	715	624	
12	0	0	0	0	729	624	
13	0	0	0	0	736	624	
14	0	0	0	0	738	624	
15	0	0	0	0	734	624	
0	0	0	0	0	724	624	
1	0	0	0	0	713	624	
2	0	0	0	0	697	624	
3	0	0	0	0	680	624	
4	0	0	0	0	661	624	
5	0	0	0	0	642	624	
6	0	0	0	0	626	624	
7	0	0	0	0	612	623	
8	0	0	0	0	597	624	
9	0	0	0	0	583	624	
10	0	0	0	0	571	624	
11	0	0	0	0	559	624	
12	0	0	0	0	547	624	
13	0	0	0	0	536	624	
14	0	0	0	0	526	624	
15	0	0	0	0	517	624	
0	0	0	0	0	508	624	
1	0	0	0	0	502	624	
2	0	0	0	0	495	624	
3	0	0	0	0	489	624	
4	0	0	0	0	483	624	
5	0	0	0	0	479	624	
6	0	0	0	0	475	624	
7	0	0	0	0	472	624	
8	0	0	0	0	468	624	
9	0	0	0	0	466	624	
10	0	0	0	0	464	624	
11	0	0	0	0	462	624	
12	0	0	0	0	460	624	
13	0	0	0	0	459	624	
14	0	0	0	0	457	624	
15	0	0	0	0	456	624	
0	0	0	0	0	455	624	
1	0	0	0	0	455	624	
2	0	0	0	0	454	624	
3	0	0	0	0	453	624	
4	0	0	0	0	451	624	
5	0	0	0	0	452	624	
6	0	0	0	0	451	624	
7	0	0	0	0	451	623	
8	0	0	0	0	451	623	
9	0	0	0	0	451	624	
10	0	0	0	0	451	623	
11	0	0	0	0	451	623	
12	0	0	0	0	450	623	
13	0	0	0	0	450	624	
14	0	0	0	0	449	623	
15	0	0	0	0	449	623	
0	0	0	0	0	448	623	
1	0	0	0	0	449	623	
2	0	0	0	0	449	624	
3	0	0	0	0	449	624	
4	0	0	0	0	450	623	
5	0	0	0	0	450	623	
6	0	0	0	0	451	623	
7	0	0	0	0	451	623	
8	0	0	0	0	450	623	
9	0	0	0	0	451	623	
10	0	0	0	0	451	623	
11	0	0	0	0	451	623	
12	0	0	0	0	451	623	
13	0	0	0	0	450	624	
14	0	0	0	0	450	623	
15	0	0	0	0	450	623	
0	0	0	0	0	451	623	
1	0	0	0	0	451	624	
2	0	0	0	0	451	624	
3	0	0	0	0	451	624	
4	0	0	0	0	451	624	
5	0	0	0	0	452	624	
6	0	0	0	0	453	623	
7	0	0	0	0	453	624	
8	0	0	0	0	454	623	
9	0	0	0	0	454	624	
10	0	0	0	0	455	623	
11	0	0	0	0	455	623	
12	0	0	0	0	456	623	
13	0	0	0	0	457	624	
14	0	0	0	0	458	624	
15	0	0	0	0	458	623	
0	0	0	0	0	459	623	
1	0	0	0	0	459	623	
2	0	0	0	0	459	624	
3	0	0	0	0	460	624	
4	0	0	0	0	460	624	
5	0	0	0	0	460	624	
6	0	0	0	0	461	624	
7	0	0	0	0	462	624	
8	0	0	0	0	463	624	
9	0	0	0	0	464	624	
10	0	0	0	0	465	624	
11	0	0	0	0	466	624	
12	0	0	0	0	466	624	
13	0	0	0	0	466	624	
14	0	0	0	0	467	624	
15	0	0	0	0	467	624	
0	0	0	0	0	467	624	
1	0	0	0	0	467	624	
2	0	0	0	0	467	624	
3	0	0	0	0	468	624	
4	0	0	0	0	467	624	
5	0	0	0	0	468	624	
6	0	0	0	0	469	624	
7	0	0	0	0	469	624	
8	0	0	0	0	469	624	
9	0	0	0	0	469	624	
10	0	0	0	0	469	624	
11	0	0	0	0	470	624	
12	0	0	0	0	470	624	
13	0	0	0	0	470	624	
14	0	0	0	0	471	624	
15	0	0	0	0	472	623	
0	0	0	0	0	472	624	
1	0	0	0	0	472	624	
2	0	0	0	0	472	624	
3	0	0	0	0	472	624	
4	0	0	0	0	472	624	
5	0	0	0	0	473	624	
6	0	0	0	0	473	623	
7	0	0	0	0	474	624	
8	0	0	0	0	474	623	
9	0	0	0	0	475	623	
10	0	0	0	0	475	623	
11	0	0	0	0	475	624	
12	0	0	0	0	474	623	
13	0	0	0	0	475	623	
14	0	0	0	0	474	623	
15	0	0	0	0	475	623	
0	0	0	0	0	475	623	
1	0	0	0	0	475	624	
2	0	0	0	0	475	623	
3	0	0	0	0	475	623	
4	0	0	0	0	474	623	
5	0	0	0	0	475	623	
6	0	0	0	0	475	623	
7	0	0	0	0	475	623	
8	0	0	0	0	475	623	
9	0	0	0	0	476	623	
10	0	0	0	0	476	623	
11	0	0	0	0	477	623	
12	0	0	0	0	477	623	
13	0	0	0	0	476	623	
14	0	0	0	0	476	624	
15	0	0	0	0	477	623	
0	0	0	0	0	478	623	
1	0	0	0	0	478	624	
2	0	0	0	0	478	624	
3	0	0	0	0	478	624	
4	0	0	0	0	479	624	
5	0	0	0	0	479	624	
6	0	0	0	0	479	624	
7	0	0	0	0	480	625	
8	0	0	0	0	481	625	
9	0	0	0	0	481	624	
10	0	0	0	0	481	624	
11	0	0	0	0	482	624	
12	0	0	0	0	482	624	
13	0	0	0	0	483	625	
14	0	0	0	0	483	624	
15	0	0	0	0	483	625	
0	0	0	0	0	482	625	
1	0	0	0	0	482	624	
2	0	0	0	0	482	625	
3	0	0	0	0	483	624	
4	0	0	0	0	483	624	
5	0	0	0	0	484	624	
6	0	0	0	0	485	625	
7	0	0	0	0	486	625	
8	0	0	0	0	486	624	
9	0	0	0	0	486	625	
10	0	0	0	0	486	624	
11	0	0	0	0	486	624	
12	0	0	0	0	486	624	
13	0	0	0	0	486	625	
14	0	0	0	0	486	624	
15	0	0	0	0	486	624	
0	0	0	0	0	485	624	
1	0	0	0	0	485	624	
2	0	0	0	0	486	624	
3	0	0	0	0	486	624	
4	0	0	0	0	485	624	
5	0	0	0	0	485	624	
6	0	0	0	0	486	624	
7	0	0	0	0	486	624	
8	0	0	0	0	487	624	
9	0	0	0	0	486	624	
10	0	0	0	0	487	623	
11	0	0	0	0	487	624	
12	0	0	0	0	487	624	
13	0	0	0	0	487	624	
14	0	0	0	0	487	624	
15	0	0	0	0	486	624	
0	0	0	0	0	486	624	
1	0	0	0	0	485	624	
2	0	0	0	0	485	624	
3	0	0	0	0	486	624	
4	0	0	0	0	485	624	
5	0	0	0	0	486	624	
6	0	0	0	0	486	624	
7	0	0	0	0	486	624	
8	0	0	0	0	486	624	
9	0	0	0	0	487	624	
10	0	0	0	0	488	624	
11	0	0	0	0	488	624	
12	0	0	0	0	489	624	
13	0	0	0	0	490	624	
14	0	0	0	0	490	623	
15	0	0	0	0	491	623	
0	0	0	0	0	492	624	
1	0	0	0	0	492	624	
2	0	0	0	0	493	624	
3	0	0	0	0	494	624	
4	0	0	0	0	494	624	
5	0	0	0	0	494	624	
6	0	0	0	0	494	624	
7	0	0	0	0	494	623	
8	0	0	0	0	494	623	
9	0	0	0	0	495	624	
10	0	0	0	0	495	623	
11	0	0	0	0	496	623	
12	0	0	0	0	496	623	
13	0	0	0	0	497	623	
14	0	0	0	0	498	623	
15	0	0	0	0	498	623	
0	0	0	0	0	498	623	
1	0	0	0	0	498	624	
2	0	0	0	0	499	623	
3	0	0	0	0	500	624	
4	0	0	0	0	500	623	
5	0	0	0	0	500	623	
6	0	0	0	0	500	623	
7	0	0	0	0	500	623	
8	0	0	0	0	500	623	
9	0	0	0	0	501	623	
10	0	0	0	0	501	623	
11	0	0	0	0	501	622	
12	0	0	0	0	501	623	
13	0	0	0	0	501	623	
14	0	0	0	0	502	623	
15	0	0	0	0	503	622	
0	0	0	0	0	503	623	
1	0	0	0	0	503	622	
2	0	0	0	0	503	623	
3	0	0	0	0	504	623	
4	0	0	0	0	504	623	
5	0	0	0	0	504	623	
6	0	0	0	0	505	623	
7	0	0	0	0	506	623	
8	0	0	0	0	507	623	
9	0	0	0	0	508	623	
10	0	0	0	0	508	623	
11	0	0	0	0	509	623	
12	0	0	0	0	509	623	
13	0	0	0	0	509	623	
14	0	0	0	0	509	623	
15	0	0	0	0	509	624	
0	0	0	0	0	509	623	
1	0	0	0	0	509	624	
2	0	0	0	0	509	624	
3	0	0	0	0	509	624	
4	0	0	0	0	509	624	
5	0	0	0	0	508	624	
6	0	0	0	0	507	624	
7	0	0	0	0	507	624	
8	0	0	0	0	506	624	
9	0	0	0	0	505	624	
10	0	0	0	0	505	624	
11	0	0	0	0	505	623	
12	0	0	0	0	504	624	
13	0	0	0	0	503	624	
14	0	0	0	0	503	623	
15	0	0	0	0	502	623	
0	0	0	0	0	502	623	
1	0	0	0	0	501	623	
2	0	0	0	0	500	623	
3	0	0	0	0	499	623	
4	0	0	0	0	498	623	
5	0	0	0	0	498	623	
6	0	0	0	0	497	622	
7	0	0	0	0	497	623	
8	0	0	0	0	496	622	
9	0	0	0	0	496	622	
10	0	0	0	0	495	622	
11	0	0	0	0	495	623	
12	0	0	0	0	495	623	
13	0	0	0	0	495	624	
14	0	0	0	0	494	623	
15	0	0	0	0	494	624	
0	0	0	0	0	494	623	
1	0	0	0	0	493	623	
2	0	0	0	0	493	624	
3	0	0	0	0	493	623	
4	0	0	0	0	493	623	
5	0	0	0	0	493	624	
6	0	0	0	0	492	622	
7	0	0	0	0	492	623	
8	0	0	0	0	492	623	
9	0	0	0	0	491	623	
10	0	0	0	0	492	624	
11	0	0	0	0	492	624	
12	0	0	0	0	492	623	
13	0	0	0	0	492	623	
14	0	0	0	0	491	623	
15	0	0	0	0	491	623	
0	0	0	0	0	491	623	
1	0	0	0	0	491	623	
2	0	0	0	0	491	623	
3	0	0	0	0	491	622	
4	0	0	0	0	491	623	
5	0	0	0	0	490	624	
6	0	0	0	0	490	623	
7	0	0	0	0	489	624	
8	0	0	0	0	489	624	
9	0	0	0	0	488	624	
10	0	0	0	0	488	624	
11	0	0	0	0	488	624	
12	0	0	0	0	487	623	
13	0	0	0	0	487	624	
14	0	0	0	0	487	624	
15	0	0	0	0	487	624	
0	0	0	0	0	487	624	
1	0	0	0	0	487	624	
2	0	0	0	0	487	624	
3	0	0	0	0	486	624	
4	0	0	0	0	486	624	
5	0	0	0	0	487	624	
6	0	0	0	0	486	624	
7	0	0	0	0	487	624	
8	0	0	0	0	486	624	
9	0	0	0	0	487	624	
10	0	0	0	0	487	624	
11	0	0	0	0	487	625	
12	0	0	0	0	487	624	
13	0	0	0	0	487	624	
14	0	0	0	0	487	624	
15	0	0	0	0	487	623	
0	0	0	0	0	488	623	
1	0	0	0	0	488	624	
2	0	0	0	0	488	624	
3	0	0	0	0	488	623	
4	0	0	0	0	488	624	
5	0	0	0	0	487	624	
6	0	0	0	0	488	623	
7	0	0	0	0	487	624	
8	0	0	0	0	487	623	
9	0	0	0	0	488	624	
10	0	0	0	0	488	624	
11	0	0	0	0	489	624	
12	0	0	0	0	489	624	
13	0	0	0	0	489	624	
14	0	0	0	0	489	624	
15	0	0	0	0	490	624	
0	0	0	0	0	490	624	
1	0	0	0	0	491	624	
2	0	0	0	0	491	624	
3	0	0	0	0	491	623	
4	0	0	0	0	491	624	
5	0	0	0	0	491	624	
6	0	0	0	0	491	624	
7	0	0	0	0	492	624	
8	0	0	0	0	492	624	
9	0	0	0	0	492	624	
10	0	0	0	0	493	624	
11	0	0	0	0	493	624	
12	0	0	0	0	493	624	
13	0	0	0	0	493	624	
14	0	0	0	0	493	623	
15	0	0	0	0	494	623	
0	0	0	0	0	494	623	
1	0	0	0	0	494	624	
2	0	0	0	0	493	624	
3	0	0	0	0	492	623	
4	0	0	0	0	492	623	
5	0	0	0	0	491	623	
6	0	0	0	0	491	623	
7	0	0	0	0	491	624	
8	0	0	0	0	491	623	
9	0	0	0	0	491	623	
10	0	0	0	0	491	623	
11	0	0	0	0	491	623	
12	0	0	0	0	491	623	
13	0	0	0	0	491	624	
14	0	0	0	0	490	623	
15	0	0	0	0	490	623	
0	0	0	0	0	489	623	
1	0	0	0	0	488	623	
2	0	0	0	0	488	623	
3	0	0	0	0	490	623	
4	0	0	0	0	490	624	
5	0	0	0	0	490	624	
6	0	0	0	0	490	623	
7	0	0	0	0	490	624	
8	0	0	0	0	490	624	
9	0	0	0	0	489	623	
10	0	0	0	0	489	624	
11	0	0	0	0	489	624	
12	0	0	0	0	489	624	
13	0	0	0	0	490	624	
14	0	0	0	0	489	624	
15	0	0	0	0	489	623	
0	0	0	0	0	489	623	
1	0	0	0	0	489	623	
2	0	0	0	0	489	623	
3	0	0	0	0	489	623	
4	0	0	0	0	489	623	
5	0	0	0	0	489	624	
6	0	0	0	0	489	624	
7	0	0	0	0	491	623	
8	0	0	0	0	491	624	
9	0	0	0	0	491	622	
10	0	0	0	0	490	623	
11	0	0	0	0	489	623	
12	0	0	0	0	489	623	
13	0	0	0	0	489	623	
14	0	0	0	0	488	623	
15	0	0	0	0	488	623	
0	0	0	0	0	489	622	
1	0	0	0	0	489	622	
2	0	0	0	0	490	623	
3	0	0	0	0	491	622	
4	0	0	0	0	492	622	
5	0	0	0	0	492	623	
6	0	0	0	0	492	623	
7	0	0	0	0	492	623	
8	0	0	0	0	493	623	
9	0	0	0	0	493	623	
10	0	0	0	0	493	623	
11	0	0	0	0	494	623	
12	0	0	0	0	493	623	
13	0	0	0	0	493	623	
14	0	0	0	0	492	623	
15	0	0	0	0	493	623	
0	0	0	0	0	493	623	
1	0	0	0	0	493	623	
2	0	0	0	0	493	622	
3	0	0	0	0	493	623	
4	0	0	0	0	492	623	
5	0	0	0	0	492	624	
6	0	0	0	0	492	624	
7	0	0	0	0	492	623	
8	0	0	0	0	492	623	
9	0	0	0	0	492	623	
10	0	0	0	0	493	623	
11	0	0	0	0	493	623	
12	0	0	0	0	493	624	
13	0	0	0	0	493	624	
14	0	0	0	0	493	623	
15	0	0	0	0	493	624	
0	0	0	0	0	493	623	
1	0	0	0	0	493	624	
2	0	0	0	0	492	624	
3	0	0	0	0	491	623	
4	0	0	0	0	490	624	
5	0	0	0	0	489	624	
6	0	0	0	0	489	623	
7	0	0	0	0	489	623	
8	0	0	0	0	489	624	
9	0	0	0	0	489	624	
10	0	0	0	0	489	624	
11	0	0	0	0	488	624	
12	0	0	0	0	488	624	
13	0	0	0	0	488	625	
14	0	0	0	0	488	624	
15	0	0	0	0	487	624	
0	0	0	0	0	487	624	
1	0	0	0	0	487	624	
2	0	0	0	0	486	625	
3	0	0	0	0	486	624	
4	0	0	0	0	485	624	
5	0	0	0	0	484	625	
6	0	0	0	0	484	624	
7	0	0	0	0	485	624	
8	0	0	0	0	484	624	
9	0	0	0	0	484	624	
10	0	0	0	0	483	624	
11	0	0	0	0	483	624	
12	0	0	0	0	482	624	
13	0	0	0	0	482	625	
14	0	0	0	0	481	624	
15	0	0	0	0	480	624	
0	0	0	0	0	480	624	
1	0	0	0	0	479	624	
2	0	0	0	0	478	625	
3	0	0	0	0	478	624	
4	0	0	0	0	478	624	
5	0	0	0	0	478	624	
6	0	0	0	0	478	624	
7	0	0	0	0	478	625	
8	0	0	0	0	477	624	
9	0	0	0	0	477	624	
10	0	0	0	0	476	624	
11	0	0	0	0	476	624	
12	0	0	0	0	476	624	
13	0	0	0	0	475	625	
14	0	0	0	0	475	624	
15	0	0	0	0	474	624	
0	0	0	0	0	474	624	
1	0	0	0	0	473	625	
2	0	0	0	0	472	624	
3	0	0	0	0	472	624	
4	0	0	0	0	472	624	
5	0	0	0	0	472	624	
6	0	0	0	0	472	624	
7	0	0	0	0	472	624	
8	0	0	0	0	472	624	
9	0	0	0	0	472	624	
10	0	0	0	0	472	624	
11	0	0	0	0	472	624	
12	0	0	0	0	472	624	
13	0	0	0	0	472	624	
14	0	0	0	0	472	623	
15	0	0	0	0	472	623	
0	0	0	0	0	472	624	
1	0	0	0	0	472	623	
2	0	0	0	0	471	623	
3	0	0	0	0	471	623	
4	0	0	0	0	470	623	
5	0	0	0	0	470	624	
6	0	0	0	0	469	622	
7	0	0	0	0	470	623	
8	0	0	0	0	469	623	
9	0	0	0	0	469	623	
10	0	0	0	0	469	623	
11	0	0	0	0	468	622	
12	0	0	0	0	469	623	
13	0	0	0	0	469	623	
14	0	0	0	0	469	623	
15	0	0	0	0	469	623	
0	0	0	0	0	469	623	
1	0	0	0	0	469	623	
2	0	0	0	0	468	623	
3	0	0	0	0	468	623	
4	0	0	0	0	468	622	
5	0	0	0	0	468	623	
6	0	0	0	0	468	623	
7	0	0	0	0	469	623	
8	0	0	0	0	468	623	
9	0	0	0	0	468	623	
10	0	0	0	0	467	623	
11	0	0	0	0	467	623	
12	0	0	0	0	467	623	
13	0	0	0	0	467	623	
14	0	0	0	0	467	623	
15	0	0	0	0	467	623	
0	0	0	0	0	468	623	
1	0	0	0	0	468	622	
2	0	0	0	0	467	622	
3	0	0	0	0	468	623	
4	0	0	0	0	468	623	
5	0	0	0	0	468	623	
6	0	0	0	0	467	623	
7	0	0	0	0	468	624	
8	0	0	0	0	468	623	
9	0	0	0	0	468	623	
10	0	0	0	0	468	623	
11	0	0	0	0	469	624	
12	0	0	0	0	470	623	
13	0	0	0	0	470	624	
14	0	0	0	0	470	624	
15	0	0	0	0	470	624	
0	0	0	0	0	469	623	
1	0	0	0	0	469	624	
2	0	0	0	0	469	624	
3	0	0	0	0	469	623	
4	0	0	0	0	470	624	
5	0	0	0	0	470	624	
6	0	0	0	0	470	624	
7	0	0	0	0	471	623	
8	0	0	0	0	471	623	
9	0	0	0	0	472	624	
10	0	0	0	0	472	624	
11	0	0	0	0	472	624	
12	0	0	0	0	472	624	
13	0	0	0	0	472	624	
14	0	0	0	0	472	624	
15	0	0	0	0	472	624	
0	0	0	0	0	471	623	
1	0	0	0	0	472	624	
2	0	0	0	0	472	624	
3	0	0	0	0	472	624	
4	0	0	0	0	472	624	
5	0	0	0	0	472	624	
6	0	0	0	0	473	624	
7	0	0	0	0	474	624	
8	0	0	0	0	474	624	
9	0	0	0	0	473	624	
10	0	0	0	0	474	624	
11	0	0	0	0	475	625	
12	0	0	0	0	476	624	
13	0	0	0	0	476	624	
14	0	0	0	0	476	624	
15	0	0	0	0	475	624	
0	0	0	0	0	476	624	
1	0	0	0	0	477	624	
2	0	0	0	0	478	624	
3	0	0	0	0	478	624	
4	0	0	0	0	479	624	
5	0	0	0	0	479	624	
6	0	0	0	0	480	624	
7	0	0	0	0	480	624	
8	0	0	0	0	480	624	
9	0	0	0	0	480	624	
10	0	0	0	0	479	624	
11	0	0	0	0	479	624	
12	0	0	0	0	478	624	
13	0	0	0	0	478	624	
14	0	0	0	0	478	624	
15	0	0	0	0	477	624	
0	0	0	0	0	477	624	
1	0	0	0	0	476	624	
2	0	0	0	0	476	624	
3	0	0	0	0	476	624	
4	0	0	0	0	476	624	
5	0	0	0	0	477	624	
6	0	0	0	0	477	624	
7	0	0	0	0	478	624	
8	0	0	0	0	478	624	
9	0	0	0	0	478	625	
10	0	0	0	0	479	624	
11	0	0	0	0	479	624	
12	0	0	0	0	479	624	
13	0	0	0	0	479	624	
14	0	0	0	0	480	623	
15	0	0	0	0	479	623	
0	0	0	0	0	480	623	
1	0	0	0	0	480	623	
2	0	0	0	0	480	624	
3	0	0	0	0	480	624	
4	0	0	0	0	480	623	
5	0	0	0	0	479	624	
6	0	0	0	0	479	624	
7	0	0	0	0	479	624	
8	0	0	0	0	479	624	
9	0	0	0	0	479	624	
10	0	0	0	0	479	624	
11	0	0	0	0	480	624	
12	0	0	0	0	479	624	
13	0	0	0	0	479	624	
14	0	0	0	0	478	624	
15	0	0	0	0	478	623	
0	0	0	0	0	477	624	
1	0	0	0	0	477	623	
2	0	0	0	0	477	624	
3	0	0	0	0	477	623	
4	0	0	0	0	477	623	
5	0	0	0	0	476	624	
6	0	0	0	0	476	623	
7	0	0	0	0	475	624	
8	0	0	0	0	475	623	
9	0	0	0	0	475	623	
10	0	0	0	0	475	624	
11	0	0	0	0	475	624	
12	0	0	0	0	475	623	
13	0	0	0	0	475	623	
14	0	0	0	0	476	623	
15	0	0	0	0	475	623	
0	0	0	0	0	475	623	
1	0	0	0	0	475	623	
2	0	0	0	0	475	624	
3	0	0	0	0	475	623	
4	0	0	0	0	475	624	
5	0	0	0	0	475	624	
6	0	0	0	0	475	623	
7	0	0	0	0	476	623	
8	0	0	0	0	476	623	
9	0	0	0	0	476	623	
10	0	0	0	0	477	623	
11	0	0	0	0	478	623	
12	0	0	0	0	478	623	
13	0	0	0	0	478	623	
14	0	0	0	0	478	623	
15	0	0	0	0	479	624	
0	0	0	0	0	478	624	
1	0	0	0	0	478	623	
2	0	0	0	0	479	624	
3	0	0	0	0	479	624	
4	0	0	0	0	479	624	
5	0	0	0	0	479	624	
6	0	0	0	0	480	624	
7	0	0	0	0	480	624	
8	0	0	0	0	480	623	
9	0	0	0	0	480	623	
10	0	0	0	0	481	624	
11	0	0	0	0	481	623	
12	0	0	0	0	482	623	
13	0	0	0	0	482	623	
14	0	0	0	0	483	622	
15	0	0	0	0	483	623	
0	0	0	0	0	484	623	
1	0	0	0	0	484	623	
2	0	0	0	0	484	623	
3	0	0	0	0	484	623	
4	0	0	0	0	484	624	
5	0	0	0	0	484	623	
6	0	0	0	0	484	623	
7	0	0	0	0	485	623	
8	0	0	0	0	485	623	
9	0	0	0	0	486	623	
10	0	0	0	0	486	624	
11	0	0	0	0	487	623	
12	0	0	0	0	487	623	
13	0	0	0	0	488	623	
14	0	0	0	0	488	623	
15	0	0	0	0	489	623	
0	0	0	0	0	490	623	
1	0	0	0	0	491	623	
2	0	0	0	0	492	624	
3	0	0	0	0	492	624	
4	0	0	0	0	492	624	
5	0	0	0	0	493	624	
6	0	0	0	0	493	623	
7	0	0	0	0	493	623	
8	0	0	0	0	493	624	
9	0	0	0	0	494	623	
10	0	0	0	0	494	623	
11	0	0	0	0	494	624	
12	0	0	0	0	494	623	
13	0	0	0	0	494	624	
14	0	0	0	0	495	624	
15	0	0	0	0	495	624	
0	0	0	0	0	495	624	
1	0	0	0	0	495	624	
2	0	0	0	0	495	624	
3	0	0	0	0	495	623	
4	0	0	0	0	495	623	
5	0	0	0	0	495	623	
6	0	0	0	0	495	624	
7	0	0	0	0	495	623	
8	0	0	0	0	495	623	
9	0	0	0	0	495	624	
10	0	0	0	0	495	624	
11	0	0	0	0	496	623	
12	0	0	0	0	496	624	
13	0	0	0	0	496	624	
14	0	0	0	0	496	624	
15	0	0	0	0	496	623	
0	0	0	0	0	496	623	
1	0	0	0	0	495	623	
2	0	0	0	0	496	623	
3	0	0	0	0	496	623	
4	0	0	0	0	496	623	
5	0	0	0	0	496	624	
6	0	0	0	0	496	623	
7	0	0	0	0	497	623	
8	0	0	0	0	497	624	
9	0	0	0	0	497	624	
10	0	0	0	0	498	624	
11	0	0	0	0	498	624	
12	0	0	0	0	498	624	
13	0	0	0	0	498	624	
14	0	0	0	0	498	623	
15	0	0	0	0	498	623	
0	0	0	0	0	498	624	
1	0	0	0	0	498	624	
2	0	0	0	0	499	624	
3	0	0	0	0	498	623	
4	0	0	0	0	498	623	
5	0	0	0	0	498	623	
6	0	0	0	0	497	623	
7	0	0	0	0	497	623	
8	0	0	0	0	496	623	
9	0	0	0	0	496	623	
10	0	0	0	0	497	623	
11	0	0	0	0	496	623	
12	0	0	0	0	497	624	
13	0	0	0	0	498	623	
14	0	0	0	0	499	624	
15	0	0	0	0	500	623	
0	0	0	0	0	502	624	
1	0	0	0	0	502	624	
2	0	0	0	0	502	624	
3	0	0	0	0	502	624	
4	0	0	0	0	502	624	
5	0	0	0	0	502	624	
6	0	0	0	0	503	624	
7	0	0	0	0	503	623	
8	0	0	0	0	503	623	
9	0	0	0	0	502	624	
10	0	0	0	0	502	623	
11	0	0	0	0	502	623	
12	0	0	0	0	502	623	
13	0	0	0	0	502	624	
14	0	0	0	0	503	624	
15	0	0	0	0	503	624	
0	0	0	0	0	503	624	
1	0	0	0	0	504	624	
2	0	0	0	0	504	623	
3	0	0	0	0	504	624	
4	0	0	0	0	504	623	
5	0	0	0	0	503	624	
6	0	0	0	0	503	623	
7	0	0	0	0	503	623	
8	0	0	0	0	503	624	
9	0	0	0	0	504	623	
10	0	0	0	0	504	623	
11	0	0	0	0	504	623	
12	0	0	0	0	504	624	
13	0	0	0	0	504	624	
14	0	0	0	0	504	623	
15	0	0	0	0	504	623	
0	0	0	0	0	504	624	
1	0	0	0	0	504	623	
2	0	0	0	0	503	623	
3	0	0	0	0	503	624	
4	0	0	0	0	502	624	
5	0	0	0	0	502	624	
6	0	0	0	0	502	624	
7	0	0	0	0	502	624	
8	0	0	0	0	502	624	
9	0	0	0	0	503	624	
10	0	0	0	0	504	623	
11	0	0	0	0	505	624	
12	0	0	0	0	507	623	
13	0	0	0	0	507	623	
14	0	0	0	0	509	624	
15	0	0	0	0	510	624	
0	0	0	0	0	511	624	
1	0	0	0	0	512	624	
2	0	0	0	0	512	624	
3	0	0	0	0	512	623	
4	0	0	0	0	513	623	
5	0	0	0	0	513	624	
6	0	0	0	0	514	624	
7	0	0	0	0	515	624	
8	0	0	0	0	516	624	
9	0	0	0	0	517	624	
10	0	0	0	0	518	624	
11	0	0	0	0	518	624	
12	0	0	0	0	519	623	
13	0	0	0	0	519	624	
14	0	0	0	0	519	623	
15	0	0	0	0	520	623	
0	0	0	0	0	520	624	
1	0	0	0	0	520	624	
2	0	0	0	0	521	624	
3	0	0	0	0	522	623	
4	0	0	0	0	523	623	
5	0	0	0	0	523	624	
6	0	0	0	0	523	623	
7	0	0	0	0	523	623	
8	0	0	0	0	523	623	
9	0	0	0	0	523	623	
10	0	0	0	0	523	623	
11	0	0	0	0	523	624	
12	0	0	0	0	522	623	
13	0	0	0	0	522	623	
14	0	0	0	0	522	623	
15	0	0	0	0	522	623	
0	0	0	0	0	522	623	
1	0	0	0	0	521	623	
2	0	0	0	0	520	623	
3	0	0	0	0	519	623	
4	0	0	0	0	518	623	
5	0	0	0	0	517	623	
6	0	0	0	0	516	623	
7	0	0	0	0	514	623	
8	0	0	0	0	513	623	
9	0	0	0	0	513	622	
10	0	0	0	0	512	622	
11	0	0	0	0	511	623	
12	0	0	0	0	510	623	
13	0	0	0	0	510	623	
14	0	0	0	0	511	623	
15	0	0	0	0	511	623	
0	0	0	0	0	511	623	
1	0	0	0	0	511	623	
2	0	0	0	0	511	622	
3	0	0	0	0	512	624	
4	0	0	0	0	512	624	
5	0	0	0	0	512	624	
6	0	0	0	0	512	623	
7	0	0	0	0	513	624	
8	0	0	0	0	513	624	
9	0	0	0	0	512	623	
10	0	0	0	0	512	623	
11	0	0	0	0	512	624	
12	0	0	0	0	513	623	
13	0	0	0	0	514	624	
14	0	0	0	0	515	624	
15	0	0	0	0	515	624	
0	0	0	0	0	515	624	
1	0	0	0	0	515	624	
2	0	0	0	0	515	624	
3	0	0	0	0	515	624	
4	0	0	0	0	516	623	
5	0	0	0	0	516	623	
6	0	0	0	0	515	623	
7	0	0	0	0	515	624	
8	0	0	0	0	515	624	
9	0	0	0	0	516	623	
10	0	0	0	0	515	623	
11	0	0	0	0	514	624	
12	0	0	0	0	513	624	
13	0	0	0	0	513	624	
14	0	0	0	0	512	624	
15	0	0	0	0	511	624	
0	0	0	0	0	510	624	
1	0	0	0	0	510	624	
2	0	0	0	0	509	624	
3	0	0	0	0	509	624	
4	0	0	0	0	508	624	
5	0	0	0	0	507	624	
6	0	0	0	0	506	624	
7	0	0	0	0	506	624	
8	0	0	0	0	506	624	
9	0	0	0	0	506	624	
10	0	0	0	0	505	624	
11	0	0	0	0	505	624	
12	0	0	0	0	505	624	
13	0	0	0	0	505	624	
14	0	0	0	0	505	624	
15	0	0	0	0	504	624	
0	0	0	0	0	504	624	
1	0	0	0	0	503	624	
2	0	0	0	0	502	624	
3	0	0	0	0	500	625	
4	0	0	0	0	498	624	
5	0	0	0	0	495	624	
6	0	0	0	0	491	624	
7	0	0	0	0	488	624	
8	0	0	0	0	485	624	
9	0	0	0	0	482	624	
10	0	0	0	0	479	623	
11	0	0	0	0	475	624	
12	0	0	0	0	472	624	
13	0	0	0	0	468	624	
14	0	0	0	0	466	624	
15	0	0	0	0	465	624	
0	0	0	0	0	464	624	
1	0	0	0	0	463	624	
2	0	0	0	0	462	624	
3	0	0	0	0	463	624	
4	0	0	0	0	463	624	
5	0	0	0	0	463	623	
6	0	0	0	0	464	623	
7	0	0	0	0	467	623	
8	0	0	0	0	472	624	
9	0	0	0	0	476	624	
10	0	0	0	0	483	624	
11	0	0	0	0	491	624	
12	0	0	0	0	499	623	
13	0	0	0	0	509	623	
14	0	0	0	0	518	623	
15	0	0	0	0	529	623	
0	0	0	0	0	542	623	
1	0	0	0	0	556	623	
2	0	0	0	0	573	624	
3	0	0	0	0	590	623	
4	0	0	0	0	607	623	
5	0	0	0	0	625	624	
6	0	0	0	0	644	624	
7	0	0	0	0	664	624	
8	0	0	0	0	683	624	
9	0	0	0	0	702	623	
10	0	0	0	0	716	624	
11	0	0	0	0	724	623	
12	0	0	0	0	726	623	
13	0	0	0	0	722	624	
14	0	0	0	0	713	624	
15	0	0	0	0	702	624	
0	0	0	0	0	686	624	
1	0	0	0	0	668	623	
2	0	0	0	0	649	624	
3	0	0	0	0	631	624	
4	0	0	0	0	615	624	
5	0	0	0	0	600	624	
6	0	0	0	0	587	624	
7	0	0	0	0	574	624	
8	0	0	0	0	561	623	
9	0	0	0	0	549	624	
10	0	0	0	0	537	623	
11	0	0	0	0	526	623	
12	0	0	0	0	516	623	
13	0	0	0	0	507	624	
14	0	0	0	0	498	623	
15	0	0	0	0	491	624	
0	0	0	0	0	484	624	
1	0	0	0	0	479	624	
2	0	0	0	0	473	624	
3	0	0	0	0	468	624	
4	0	0	0	0	464	624	
5	0	0	0	0	461	624	
6	0	0	0	0	458	624	
7	0	0	0	0	455	624	
8	0	0	0	0	453	624	
9	0	0	0	0	452	624	
10	0	0	0	0	449	624	
11	0	0	0	0	449	624	
12	0	0	0	0	448	624	
13	0	0	0	0	447	624	
14	0	0	0	0	446	623	
15	0	0	0	0	445	624	
0	0	0	0	0	444	623	
1	0	0	0	0	442	623	
2	0	0	0	0	441	623	
3	0	0	0	0	440	623	
4	0	0	0	0	440	623	
5	0	0	0	0	439	623	
6	0	0	0	0	439	623	
7	0	0	0	0	438	623	
8	0	0	0	0	438	623	
9	0	0	0	0	438	623	
10	0	0	0	0	437	623	
11	0	0	0	0	437	623	
12	0	0	0	0	438	622	
13	0	0	0	0	438	623	
14	0	0	0	0	439	623	
15	0	0	0	0	439	624	
0	0	0	0	0	440	623	
1	0	0	0	0	440	623	
2	0	0	0	0	441	623	
3	0	0	0	0	441	622	
4	0	0	0	0	441	623	
5	0	0	0	0	441	623	
6	0	0	0	0	440	623	
7	0	0	0	0	440	623	
8	0	0	0	0	439	623	
9	0	0	0	0	439	622	
10	0	0	0	0	439	623	
11	0	0	0	0	439	623	
12	0	0	0	0	440	623	
13	0	0	0	0	440	623	
14	0	0	0	0	439	623	
15	0	0	0	0	439	622	
0	0	0	0	0	439	622	
1	0	0	0	0	440	622	
2	0	0	0	0	440	622	
3	0	0	0	0	439	621	
4	0	0	0	0	439	623	
5	0	0	0	0	438	623	
6	0	0	0	0	438	622	
7	0	0	0	0	438	622	
8	0	0	0	0	438	622	
9	0	0	0	0	439	622	
10	0	0	0	0	440	622	
11	0	0	0	0	440	623	
12	0	0	0	0	440	622	
13	0	0	0	0	440	623	
14	0	0	0	0	441	623	
15	0	0	0	0	441	622	
0	0	0	0	0	441	622	
1	0	0	0	0	440	623	
2	0	0	0	0	441	624	
3	0	0	0	0	441	623	
4	0	0	0	0	441	623	
5	0	0	0	0	442	623	
6	0	0	0	0	441	623	
7	0	0	0	0	441	624	
8	0	0	0	0	441	624	
9	0	0	0	0	443	623	
10	0	0	0	0	443	624	
11	0	0	0	0	443	624	
12	0	0	0	0	443	624	
13	0	0	0	0	443	624	
14	0	0	0	0	443	624	
15	0	0	0	0	443	624	
0	0	0	0	0	443	624	
1	0	0	0	0	443	624	
2	0	0	0	0	443	625	
3	0	0	0	0	443	624	
4	0	0	0	0	443	624	
5	0	0	0	0	443	624	
6	0	0	0	0	443	624	
7	0	0	0	0	443	624	
8	0	0	0	0	444	624	
9	0	0	0	0	444	624	
10	0	0	0	0	444	624	
11	0	0	0	0	444	624	
12	0	0	0	0	444	624	
13	0	0	0	0	444	624	
14	0	0	0	0	444	624	
15	0	0	0	0	445	624	
0	0	0	0	0	445	624	
1	0	0	0	0	444	624	
2	0	0	0	0	445	624	
3	0	0	0	0	445	624	
4	0	0	0	0	445	624	
5	0	0	0	0	445	624	
6	0	0	0	0	445	624	
7	0	0	0	0	446	624	
8	0	0	0	0	446	624	
9	0	0	0	0	446	623	
10	0	0	0	0	447	624	
11	0	0	0	0	447	623	
12	0	0	0	0	446	623	
13	0	0	0	0	446	624	
14	0	0	0	0	447	623	
15	0	0	0	0	447	623	
0	0	0	0	0	447	623	
1	0	0	0	0	447	623	
2	0	0	0	0	448	623	
3	0	0	0	0	448	623	
4	0	0	0	0	449	623	
5	0	0	0	0	449	623	
6	0	0	0	0	449	623	
7	0	0	0	0	450	623	
8	0	0	0	0	449	623	
9	0	0	0	0	450	623	
10	0	0	0	0	451	623	
11	0	0	0	0	451	624	
12	0	0	0	0	452	623	
13	0	0	0	0	452	623	
14	0	0	0	0	453	623	
15	0	0	0	0	454	623	
0	0	0	0	0	455	623	
1	0	0	0	0	456	623	
2	0	0	0	0	457	623	
3	0	0	0	0	458	623	
4	0	0	0	0	459	623	
5	0	0	0	0	460	623	
6	0	0	0	0	460	623	
7	0	0	0	0	461	623	
8	0	0	0	0	462	623	
9	0	0	0	0	462	623	
10	0	0	0	0	462	623	
11	0	0	0	0	463	623	
12	0	0	0	0	464	623	
13	0	0	0	0	465	624	
14	0	0	0	0	465	624	
15	0	0	0	0	467	624	
0	0	0	0	0	468	624	
1	0	0	0	0	469	624	
2	0	0	0	0	470	623	
3	0	0	0	0	472	624	
4	0	0	0	0	473	624	
5	0	0	0	0	474	624	
6	0	0	0	0	476	624	
7	0	0	0	0	477	624	
8	0	0	0	0	478	624	
9	0	0	0	0	480	624	
10	0	0	0	0	481	624	
11	0	0	0	0	482	624	
12	0	0	0	0	483	624	
13	0	0	0	0	484	624	
14	0	0	0	0	485	624	
15	0	0	0	0	486	624	
0	0	0	0	0	487	623	
1	0	0	0	0	488	623	
2	0	0	0	0	490	624	
3	0	0	0	0	491	624	
4	0	0	0	0	492	624	
5	0	0	0	0	493	624	
6	0	0	0	0	494	624	
7	0	0	0	0	494	624	
8	0	0	0	0	495	624	
9	0	0	0	0	496	624	
10	0	0	0	0	497	624	
11	0	0	0	0	498	624	
12	0	0	0	0	499	624	
13	0	0	0	0	500	624	
14	0	0	0	0	502	623	
15	0	0	0	0	502	624	
0	0	0	0	0	503	624	
1	0	0	0	0	504	624	
2	0	0	0	0	505	624	
3	0	0	0	0	506	624	
4	0	0	0	0	507	624	
5	0	0	0	0	508	624	
6	0	0	0	0	509	624	
7	0	0	0	0	511	624	
8	0	0	0	0	512	624	
9	0	0	0	0	512	625	
10	0	0	0	0	513	625	
11	0	0	0	0	515	625	
12	0	0	0	0	516	624	
13	0	0	0	0	518	625	
14	0	0	0	0	519	625	
15	0	0	0	0	520	625	
0	0	0	0	0	520	625	
1	0	0	0	0	521	625	
2	0	0	0	0	523	625	
3	0	0	0	0	523	624	
4	0	0	0	0	525	624	
5	0	0	0	0	525	625	
6	0	0	0	0	526	625	
7	0	0	0	0	527	624	
8	0	0	0	0	528	624	
9	0	0	0	0	529	624	
10	0	0	0	0	530	624	
11	0	0	0	0	531	624	
12	0	0	0	0	531	623	
13	0	0	0	0	532	624	
14	0	0	0	0	532	624	
15	0	0	0	0	533	624	
0	0	0	0	0	533	623	
1	0	0	0	0	534	623	
2	0	0	0	0	534	623	
3	0	0	0	0	535	623	
4	0	0	0	0	535	623	
5	0	0	0	0	536	624	
6	0	0	0	0	536	623	
7	0	0	0	0	536	623	
8	0	0	0	0	536	622	
9	0	0	0	0	536	623	
10	0	0	0	0	537	623	
11	0	0	0	0	537	622	
12	0	0	0	0	537	622	
13	0	0	0	0	538	623	
14	0	0	0	0	538	622	
15	0	0	0	0	539	622	
0	0	0	0	0	540	622	
1	0	0	0	0	539	622	
2	0	0	0	0	539	622	
3	0	0	0	0	540	622	
4	0	0	0	0	540	622	
5	0	0	0	0	540	622	
6	0	0	0	0	541	622	
7	0	0	0	0	541	622	
8	0	0	0	0	541	622	
9	0	0	0	0	541	623	
10	0	0	0	0	541	622	
11	0	0	0	0	541	622	
12	0	0	0	0	541	623	
13	0	0	0	0	540	623	
14	0	0	0	0	540	623	
15	0	0	0	0	540	622	
0	0	0	0	0	540	623	
1	0	0	0	0	540	622	
2	0	0	0	0	540	623	
3	0	0	0	0	540	623	
4	0	0	0	0	538	623	
5	0	0	0	0	537	623	
6	0	0	0	0	536	623	
7	0	0	0	0	535	623	
8	0	0	0	0	533	623	
9	0	0	0	0	533	623	
10	0	0	0	0	532	623	
11	0	0	0	0	531	623	
12	0	0	0	0	530	622	
13	0	0	0	0	529	623	
14	0	0	0	0	527	623	
15	0	0	0	0	527	623	
0	0	0	0	0	526	622	
1	0	0	0	0	525	623	
2	0	0	0	0	524	623	
3	0	0	0	0	523	623	
4	0	0	0	0	521	622	
5	0	0	0	0	521	623	
6	0	0	0	0	520	623	
7	0	0	0	0	519	623	
8	0	0	0	0	518	623	
9	0	0	0	0	516	623	
10	0	0	0	0	515	623	
11	0	0	0	0	515	624	
12	0	0	0	0	513	623	
13	0	0	0	0	512	624	
14	0	0	0	0	511	623	
15	0	0	0	0	510	624	
0	0	0	0	0	509	624	
1	0	0	0	0	508	624	
2	0	0	0	0	508	624	
3	0	0	0	0	508	623	
4	0	0	0	0	507	623	
5	0	0	0	0	507	624	
6	0	0	0	0	506	624	
7	0	0	0	0	504	623	
8	0	0	0	0	504	623	
9	0	0	0	0	503	623	
10	0	0	0	0	502	624	
11	0	0	0	0	502	624	
12	0	0	0	0	500	623	
13	0	0	0	0	500	624	
14	0	0	0	0	500	624	
15	0	0	0	0	500	623	
0	0	0	0	0	500	624	
1	0	0	0	0	500	623	
2	0	0	0	0	500	623	
3	0	0	0	0	500	624	
4	0	0	0	0	500	623	
5	0	0	0	0	500	624	
6	0	0	0	0	500	623	
7	0	0	0	0	500	624	
8	0	0	0	0	500	624	
9	0	0	0	0	499	624	
10	0	0	0	0	500	624	
11	0	0	0	0	500	624	
12	0	0	0	0	502	624	
13	0	0	0	0	502	624	
14	0	0	0	0	502	624	
15	0	0	0	0	501	623	
0	0	0	0	0	501	623	
1	0	0	0	0	502	624	
2	0	0	0	0	501	624	
3	0	0	0	0	501	624	
4	0	0	0	0	501	624	
5	0	0	0	0	501	624	
6	0	0	0	0	502	624	
7	0	0	0	0	502	623	
8	0	0	0	0	503	623	
9	0	0	0	0	503	624	
10	0	0	0	0	503	624	
11	0	0	0	0	503	624	
12	0	0	0	0	504	623	
13	0	0	0	0	504	624	
14	0	0	0	0	504	624	
15	0	0	0	0	505	624	
0	0	0	0	0	505	623	
1	0	0	0	0	507	623	
2	0	0	0	0	507	623	
3	0	0	0	0	508	623	
4	0	0	0	0	508	624	
5	0	0	0	0	509	623	
6	0	0	0	0	510	623	
7	0	0	0	0	511	624	
8	0	0	0	0	511	623	
9	0	0	0	0	511	623	
10	0	0	0	0	511	624	
11	0	0	0	0	512	624	
12	0	0	0	0	512	624	
13	0	0	0	0	512	624	
14	0	0	0	0	512	624	
15	0	0	0	0	512	623	
0	0	0	0	0	512	624	
1	0	0	0	0	513	623	
2	0	0	0	0	513	623	
3	0	0	0	0	513	623	
4	0	0	0	0	513	623	
5	0	0	0	0	514	623	
6	0	0	0	0	515	623	
7	0	0	0	0	515	623	
8	0	0	0	0	516	623	
9	0	0	0	0	517	623	
10	0	0	0	0	517	623	
11	0	0	0	0	518	622	
12	0	0	0	0	519	622	
13	0	0	0	0	519	623	
14	0	0	0	0	520	623	
15	0	0	0	0	521	623	
0	0	0	0	0	521	623	
1	0	0	0	0	521	623	
2	0	0	0	0	522	623	
3	0	0	0	0	523	623	
4	0	0	0	0	523	623	
5	0	0	0	0	523	623	
6	0	0	0	0	524	623	
7	0	0	0	0	524	623	
8	0	0	0	0	525	623	
9	0	0	0	0	526	622	
10	0	0	0	0	526	623	
11	0	0	0	0	527	623	
12	0	0	0	0	527	623	
13	0	0	0	0	527	623	
14	0	0	0	0	528	623	
15	0	0	0	0	528	622	
0	0	0	0	0	529	623	
1	0	0	0	0	528	623	
2	0	0	0	0	528	623	
3	0	0	0	0	529	623	
4	0	0	0	0	530	623	
5	0	0	0	0	530	624	
6	0	0	0	0	530	624	
7	0	0	0	0	530	624	
8	0	0	0	0	530	624	
9	0	0	0	0	530	624	
10	0	0	0	0	531	624	
11	0	0	0	0	530	624	
12	0	0	0	0	530	624	
13	0	0	0	0	531	624	
14	0	0	0	0	530	623	
15	0	0	0	0	531	624	
0	0	0	0	0	531	624	
1	0	0	0	0	531	623	
2	0	0	0	0	531	623	
3	0	0	0	0	531	623	
4	0	0	0	0	531	623	
5	0	0	0	0	531	624	
6	0	0	0	0	530	624	
7	0	0	0	0	530	624	
8	0	0	0	0	529	624	
9	0	0	0	0	529	624	
10	0	0	0	0	529	624	
11	0	0	0	0	528	624	
12	0	0	0	0	528	624	
13	0	0	0	0	527	624	
14	0	0	0	0	527	624	
15	0	0	0	0	526	624	
0	0	0	0	0	525	624	
1	0	0	0	0	525	623	
2	0	0	0	0	524	624	
3	0	0	0	0	525	623	
4	0	0	0	0	525	624	
5	0	0	0	0	525	623	
6	0	0	0	0	525	624	
7	0	0	0	0	524	624	
8	0	0	0	0	525	624	
9	0	0	0	0	525	624	
10	0	0	0	0	525	624	
11	0	0	0	0	525	624	
12	0	0	0	0	525	624	
13	0	0	0	0	524	624	
14	0	0	0	0	524	623	
15	0	0	0	0	523	623	
0	0	0	0	0	523	624	
1	0	0	0	0	523	623	
2	0	0	0	0	521	623	
3	0	0	0	0	520	623	
4	0	0	0	0	520	624	
5	0	0	0	0	519	624	
6	0	0	0	0	518	624	
7	0	0	0	0	518	624	
8	0	0	0	0	518	624	
9	0	0	0	0	518	624	
10	0	0	0	0	519	624	
11	0	0	0	0	519	624	
12	0	0	0	0	519	624	
13	0	0	0	0	519	624	
14	0	0	0	0	519	624	
15	0	0	0	0	519	624	
0	0	0	0	0	519	624	
1	0	0	0	0	518	624	
2	0	0	0	0	519	624	
3	0	0	0	0	519	624	
4	0	0	0	0	519	624	
5	0	0	0	0	519	624	
6	0	0	0	0	519	624	
7	0	0	0	0	518	623	
8	0	0	0	0	518	623	
9	0	0	0	0	519	623	
10	0	0	0	0	519	623	
11	0	0	0	0	520	624	
12	0	0	0	0	520	623	
13	0	0	0	0	520	623	
14	0	0	0	0	520	623	
15	0	0	0	0	521	623	
0	0	0	0	0	523	623	
1	0	0	0	0	523	623	
2	0	0	0	0	524	623	
3	0	0	0	0	523	624	
4	0	0	0	0	523	623	
5	0	0	0	0	521	624	
6	0	0	0	0	520	623	
7	0	0	0	0	521	624	
8	0	0	0	0	520	623	
9	0	0	0	0	520	623	
10	0	0	0	0	520	623	
11	0	0	0	0	520	623	
12	0	0	0	0	520	623	
13	0	0	0	0	521	624	
14	0	0	0	0	521	624	
15	0	0	0	0	522	623	
0	0	0	0	0	522	624	
1	0	0	0	0	521	624	
2	0	0	0	0	521	624	
3	0	0	0	0	521	624	
4	0	0	0	0	521	624	
5	0	0	0	0	521	625	
6	0	0	0	0	521	624	
7	0	0	0	0	522	624	
8	0	0	0	0	522	624	
9	0	0	0	0	522	624	
10	0	0	0	0	523	624	
11	0	0	0	0	523	624	
12	0	0	0	0	523	624	
13	0	0	0	0	522	624	
14	0	0	0	0	523	624	
15	0	0	0	0	523	624	
0	0	0	0	0	523	623	
1	0	0	0	0	522	623	
2	0	0	0	0	522	624	
3	0	0	0	0	522	624	
4	0	0	0	0	522	624	
5	0	0	0	0	521	623	
6	0	0	0	0	522	623	
7	0	0	0	0	522	624	
8	0	0	0	0	521	624	
9	0	0	0	0	520	623	
10	0	0	0	0	520	623	
11	0	0	0	0	520	623	
12	0	0	0	0	520	623	
13	0	0	0	0	520	623	
14	0	0	0	0	520	624	
15	0	0	0	0	520	624	
0	0	0	0	0	520	623	
1	0	0	0	0	521	623	
2	0	0	0	0	520	624	
3	0	0	0	0	519	623	
4	0	0	0	0	519	623	
5	0	0	0	0	518	624	
6	0	0	0	0	519	623	
7	0	0	0	0	519	623	
8	0	0	0	0	518	623	
9	0	0	0	0	518	623	
10	0	0	0	0	519	623	
11	0	0	0	0	519	623	
12	0	0	0	0	519	624	
13	0	0	0	0	520	623	
14	0	0	0	0	520	623	
15	0	0	0	0	520	622	
0	0	0	0	0	519	623	
1	0	0	0	0	519	623	
2	0	0	0	0	519	622	
3	0	0	0	0	519	622	
4	0	0	0	0	519	623	
5	0	0	0	0	518	623	
6	0	0	0	0	518	623	
7	0	0	0	0	517	623	
8	0	0	0	0	517	623	
9	0	0	0	0	517	623	
10	0	0	0	0	517	623	
11	0	0	0	0	517	623	
12	0	0	0	0	518	623	
13	0	0	0	0	518	623	
14	0	0	0	0	518	622	
15	0	0	0	0	519	623	
0	0	0	0	0	520	622	
1	0	0	0	0	521	622	
2	0	0	0	0	521	622	
3	0	0	0	0	522	623	
4	0	0	0	0	523	623	
5	0	0	0	0	523	623	
6	0	0	0	0	523	623	
7	0	0	0	0	524	623	
8	0	0	0	0	525	623	
9	0	0	0	0	526	623	
10	0	0	0	0	527	623	
11	0	0	0	0	527	623	
12	0	0	0	0	527	623	
13	0	0	0	0	528	622	
14	0	0	0	0	528	623	
15	0	0	0	0	529	623	
0	0	0	0	0	530	623	
1	0	0	0	0	530	623	
2	0	0	0	0	531	624	
3	0	0	0	0	531	624	
4	0	0	0	0	532	624	
5	0	0	0	0	532	624	
6	0	0	0	0	533	624	
7	0	0	0	0	534	624	
8	0	0	0	0	534	624	
9	0	0	0	0	536	624	
10	0	0	0	0	536	624	
11	0	0	0	0	536	624	
12	0	0	0	0	536	623	
13	0	0	0	0	536	624	
14	0	0	0	0	537	624	
15	0	0	0	0	537	624	
0	0	0	0	0	538	624	
1	0	0	0	0	538	624	
2	0	0	0	0	539	623	
3	0	0	0	0	540	624	
4	0	0	0	0	540	623	
5	0	0	0	0	540	624	
6	0	0	0	0	540	623	
7	0	0	0	0	540	624	
8	0	0	0	0	540	624	
9	0	0	0	0	540	623	
10	0	0	0	0	539	623	
11	0	0	0	0	540	624	
12	0	0	0	0	540	623	
13	0	0	0	0	540	624	
14	0	0	0	0	540	623	
15	0	0	0	0	540	624	
0	0	0	0	0	540	624	
1	0	0	0	0	540	624	
2	0	0	0	0	540	624	
3	0	0	0	0	539	623	
4	0	0	0	0	539	623	
5	0	0	0	0	539	624	
6	0	0	0	0	539	623	
7	0	0	0	0	539	624	
8	0	0	0	0	539	624	
9	0	0	0	0	539	623	
10	0	0	0	0	539	623	
11	0	0	0	0	539	623	
12	0	0	0	0	539	623	
13	0	0	0	0	540	624	
14	0	0	0	0	540	623	
15	0	0	0	0	540	622	
0	0	0	0	0	540	623	
1	0	0	0	0	540	623	
2	0	0	0	0	540	623	
3	0	0	0	0	541	623	
4	0	0	0	0	541	623	
5	0	0	0	0	540	624	
6	0	0	0	0	540	624	
7	0	0	0	0	540	623	
8	0	0	0	0	540	624	
9	0	0	0	0	541	624	
10	0	0	0	0	541	624	
11	0	0	0	0	541	624	
12	0	0	0	0	542	623	
13	0	0	0	0	543	624	
14	0	0	0	0	543	623	
15	0	0	0	0	544	624	
0	0	0	0	0	544	623	
1	0	0	0	0	545	623	
2	0	0	0	0	545	624	
3	0	0	0	0	546	624	
4	0	0	0	0	545	624	
5	0	0	0	0	546	624	
6	0	0	0	0	546	624	
7	0	0	0	0	546	623	
8	0	0	0	0	547	624	
9	0	0	0	0	546	624	
10	0	0	0	0	547	624	
11	0	0	0	0	547	624	
12	0	0	0	0	546	624	
13	0	0	0	0	546	624	
14	0	0	0	0	546	624	
15	0	0	0	0	546	624	
0	0	0	0	0	546	624	
1	0	0	0	0	547	624	
2	0	0	0	0	547	624	
3	0	0	0	0	546	624	
4	0	0	0	0	545	624	
5	0	0	0	0	544	624	
6	0	0	0	0	544	624	
7	0	0	0	0	543	624	
8	0	0	0	0	543	624	
9	0	0	0	0	542	623	
10	0	0	0	0	542	624	
11	0	0	0	0	542	624	
12	0	0	0	0	543	624	
13	0	0	0	0	543	624	
14	0	0	0	0	543	623	
15	0	0	0	0	542	623	
0	0	0	0	0	541	623	
1	0	0	0	0	542	624	
2	0	0	0	0	542	623	
3	0	0	0	0	542	623	
4	0	0	0	0	541	623	
5	0	0	0	0	541	623	
6	0	0	0	0	541	623	
7	0	0	0	0	540	624	
8	0	0	0	0	540	624	
9	0	0	0	0	540	624	
10	0	0	0	0	539	623	
11	0	0	0	0	539	624	
12	0	0	0	0	538	623	
13	0	0	0	0	538	623	
14	0	0	0	0	539	623	
15	0	0	0	0	539	623	
0	0	0	0	0	539	623	
1	0	0	0	0	539	623	
2	0	0	0	0	539	623	
3	0	0	0	0	540	623	
4	0	0	0	0	540	624	
5	0	0	0	0	541	623	
6	0	0	0	0	541	623	
7	0	0	0	0	541	623	
8	0	0	0	0	540	623	
9	0	0	0	0	540	623	
10	0	0	0	0	540	623	
11	0	0	0	0	540	623	
12	0	0	0	0	540	623	
13	0	0	0	0	540	623	
14	0	0	0	0	540	623	
15	0	0	0	0	539	623	
0	0	0	0	0	538	624	
1	0	0	0	0	538	624	
2	0	0	0	0	538	624	
3	0	0	0	0	537	624	
4	0	0	0	0	537	624	
5	0	0	0	0	538	624	
6	0	0	0	0	539	624	
7	0	0	0	0	539	624	
8	0	0	0	0	539	623	
9	0	0	0	0	540	624	
10	0	0	0	0	541	624	
11	0	0	0	0	542	624	
12	0	0	0	0	542	623	
13	0	0	0	0	542	624	
14	0	0	0	0	543	624	
15	0	0	0	0	543	623	
0	0	0	0	0	543	623	
1	0	0	0	0	543	623	
2	0	0	0	0	544	623	
3	0	0	0	0	545	624	
4	0	0	0	0	544	623	
5	0	0	0	0	544	624	
6	0	0	0	0	544	623	
7	0	0	0	0	544	623	
8	0	0	0	0	545	623	
9	0	0	0	0	544	622	
10	0	0	0	0	545	623	
11	0	0	0	0	545	623	
12	0	0	0	0	545	623	
13	0	0	0	0	545	623	
14	0	0	0	0	545	623	
15	0	0	0	0	546	624	
0	0	0	0	0	547	624	
1	0	0	0	0	546	623	
2	0	0	0	0	546	624	
3	0	0	0	0	546	623	
4	0	0	0	0	547	624	
5	0	0	0	0	547	624	
6	0	0	0	0	547	623	
7	0	0	0	0	547	624	
8	0	0	0	0	547	624	
9	0	0	0	0	548	624	
10	0	0	0	0	548	623	
11	0	0	0	0	548	623	
12	0	0	0	0	548	623	
13	0	0	0	0	548	624	
14	0	0	0	0	547	624	
15	0	0	0	0	546	623	
0	0	0	0	0	545	624	
1	0	0	0	0	544	624	
2	0	0	0	0	544	624	
3	0	0	0	0	543	624	
4	0	0	0	0	543	624	
5	0	0	0	0	543	624	
6	0	0	0	0	543	623	
7	0	0	0	0	543	623	
8	0	0	0	0	543	623	
9	0	0	0	0	543	624	
10	0	0	0	0	543	623	
11	0	0	0	0	543	624	
12	0	0	0	0	542	623	
13	0	0	0	0	543	624	
14	0	0	0	0	543	623	
15	0	0	0	0	542	624	
0	0	0	0	0	542	624	
1	0	0	0	0	540	624	
2	0	0	0	0	541	624	
3	0	0	0	0	540	624	
4	0	0	0	0	540	624	
5	0	0	0	0	540	623	
6	0	0	0	0	539	624	
7	0	0	0	0	539	624	
8	0	0	0	0	538	623	
9	0	0	0	0	537	623	
10	0	0	0	0	537	624	
11	0	0	0	0	536	623	
12	0	0	0	0	536	623	
13	0	0	0	0	536	623	
14	0	0	0	0	536	623	
15	0	0	0	0	536	624	
0	0	0	0	0	536	623	
1	0	0	0	0	536	623	
2	0	0	0	0	536	623	
3	0	0	0	0	536	624	
4	0	0	0	0	536	624	
5	0	0	0	0	535	624	
6	0	0	0	0	535	624	
7	0	0	0	0	536	623	
8	0	0	0	0	537	623	
9	0	0	0	0	538	624	
10	0	0	0	0	539	624	
11	0	0	0	0	539	624	
12	0	0	0	0	540	624	
13	0	0	0	0	541	624	
14	0	0	0	0	541	623	
15	0	0	0	0	541	623	
0	0	0	0	0	541	624	
1	0	0	0	0	540	623	
2	0	0	0	0	540	624	
3	0	0	0	0	540	624	
4	0	0	0	0	539	623	
5	0	0	0	0	539	624	
6	0	0	0	0	540	623	
7	0	0	0	0	541	624	
8	0	0	0	0	542	624	
9	0	0	0	0	543	623	
10	0	0	0	0	544	624	
11	0	0	0	0	546	623	
12	0	0	0	0	547	623	
13	0	0	0	0	550	624	
14	0	0	0	0	551	623	
15	0	0	0	0	552	624	
0	0	0	0	0	553	624	
1	0	0	0	0	554	624	
2	0	0	0	0	555	624	
3	0	0	0	0	555	624	
4	0	0	0	0	555	623	
5	0	0	0	0	555	624	
6	0	0	0	0	556	624	
7	0	0	0	0	557	623	
8	0	0	0	0	558	624	
9	0	0	0	0	559	623	
10	0	0	0	0	560	624	
11	0	0	0	0	560	623	
12	0	0	0	0	561	623	
13	0	0	0	0	561	624	
14	0	0	0	0	562	624	
15	0	0	0	0	561	623	
0	0	0	0	0	561	623	
1	0	0	0	0	562	624	
2	0	0	0	0	562	624	
3	0	0	0	0	563	624	
4	0	0	0	0	563	623	
5	0	0	0	0	563	624	
6	0	0	0	0	563	624	
7	0	0	0	0	563	624	
8	0	0	0	0	563	624	
9	0	0	0	0	563	623	
10	0	0	0	0	563	623	
11	0	0	0	0	563	623	
12	0	0	0	0	563	624	
13	0	0	0	0	563	624	
14	0	0	0	0	561	624	
15	0	0	0	0	560	623	
0	0	0	0	0	559	624	
1	0	0	0	0	558	624	
2	0	0	0	0	556	623	
3	0	0	0	0	554	624	
4	0	0	0	0	552	624	
5	0	0	0	0	551	624	
6	0	0	0	0	550	623	
7	0	0	0	0	548	624	
8	0	0	0	0	547	624	
9	0	0	0	0	546	623	
10	0	0	0	0	545	623	
11	0	0	0	0	545	623	
12	0	0	0	0	545	624	
13	0	0	0	0	545	624	
14	0	0	0	0	545	623	
15	0	0	0	0	545	624	
0	0	0	0	0	545	623	
1	0	0	0	0	545	623	
2	0	0	0	0	546	623	
3	0	0	0	0	546	623	
4	0	0	0	0	546	624	
5	0	0	0	0	546	624	
6	0	0	0	0	546	624	
7	0	0	0	0	546	624	
8	0	0	0	0	545	624	
9	0	0	0	0	545	623	
10	0	0	0	0	545	624	
11	0	0	0	0	545	624	
12	0	0	0	0	545	624	
13	0	0	0	0	545	624	
14	0	0	0	0	545	624	
15	0	0	0	0	545	623	
0	0	0	0	0	545	623	
1	0	0	0	0	546	623	
2	0	0	0	0	545	623	
3	0	0	0	0	546	623	
4	0	0	0	0	546	623	
5	0	0	0	0	546	624	
6	0	0	0	0	546	624	
7	0	0	0	0	545	623	
8	0	0	0	0	544	624	
9	0	0	0	0	543	623	
10	0	0	0	0	543	623	
11	0	0	0	0	543	623	
12	0	0	0	0	542	623	
13	0	0	0	0	542	624	
14	0	0	0	0	542	623	
15	0	0	0	0	542	624	
0	0	0	0	0	542	623	
1	0	0	0	0	542	624	
2	0	0	0	0	542	623	
3	0	0	0	0	541	624	
4	0	0	0	0	541	624	
5	0	0	0	0	541	624	
6	0	0	0	0	540	623	
7	0	0	0	0	540	624	
8	0	0	0	0	540	624	
9	0	0	0	0	540	624	
10	0	0	0	0	540	623	
11	0	0	0	0	540	623	
12	0	0	0	0	539	624	
13	0	0	0	0	537	624	
14	0	0	0	0	536	624	
15	0	0	0	0	536	623	
0	0	0	0	0	535	623	
1	0	0	0	0	533	623	
2	0	0	0	0	531	623	
3	0	0	0	0	528	623	
4	0	0	0	0	526	623	
5	0	0	0	0	523	624	
6	0	0	0	0	520	623	
7	0	0	0	0	517	623	
8	0	0	0	0	514	623	
9	0	0	0	0	511	623	
10	0	0	0	0	508	623	
11	0	0	0	0	505	623	
12	0	0	0	0	503	624	
13	0	0	0	0	502	623	
14	0	0	0	0	500	623	
15	0	0	0	0	499	623	
0	0	0	0	0	499	623	
1	0	0	0	0	501	623	
2	0	0	0	0	501	624	
3	0	0	0	0	502	623	
4	0	0	0	0	503	624	
5	0	0	0	0	506	624	
6	0	0	0	0	510	623	
7	0	0	0	0	515	623	
8	0	0	0	0	521	623	
9	0	0	0	0	529	624	
10	0	0	0	0	537	624	
11	0	0	0	0	547	623	
12	0	0	0	0	557	624	
13	0	0	0	0	568	623	
14	0	0	0	0	580	623	
15	0	0	0	0	595	624	
0	0	0	0	0	610	623	
1	0	0	0	0	625	623	
2	0	0	0	0	642	624	
3	0	0	0	0	660	624	
4	0	0	0	0	680	624	
5	0	0	0	0	700	624	
6	0	0	0	0	719	624	
7	0	0	0	0	736	624	
8	0	0	0	0	750	624	
9	0	0	0	0	756	624	
10	0	0	0	0	757	623	
11	0	0	0	0	752	624	
12	0	0	0	0	742	624	
13	0	0	0	0	728	624	
14	0	0	0	0	715	624	
15	0	0	0	0	697	624	
0	0	0	0	0	678	624	
1	0	0	0	0	659	624	
2	0	0	0	0	643	624	
3	0	0	0	0	629	624	
4	0	0	0	0	616	624	
5	0	0	0	0	604	624	
6	0	0	0	0	593	624	
7	0	0	0	0	582	624	
8	0	0	0	0	571	624	
9	0	0	0	0	561	624	
10	0	0	0	0	551	624	
11	0	0	0	0	542	624	
12	0	0	0	0	534	624	
13	0	0	0	0	527	624	
14	0	0	0	0	520	624	
15	0	0	0	0	515	624	
0	0	0	0	0	510	624	
1	0	0	0	0	505	624	
2	0	0	0	0	502	624	
3	0	0	0	0	499	624	
4	0	0	0	0	497	625	
5	0	0	0	0	496	624	
6	0	0	0	0	494	624	
7	0	0	0	0	492	624	
8	0	0	0	0	491	624	
9	0	0	0	0	489	624	
10	0	0	0	0	488	624	
11	0	0	0	0	487	624	
12	0	0	0	0	486	624	
13	0	0	0	0	485	624	
14	0	0	0	0	484	624	
15	0	0	0	0	485	624	
0	0	0	0	0	485	624	
1	0	0	0	0	486	624	
2	0	0	0	0	485	624	
3	0	0	0	0	485	624	
4	0	0	0	0	485	623	
5	0	0	0	0	484	624	
6	0	0	0	0	484	623	
7	0	0	0	0	483	624	
8	0	0	0	0	482	624	
9	0	0	0	0	482	623	
10	0	0	0	0	481	623	
11	0	0	0	0	481	623	
12	0	0	0	0	482	623	
13	0	0	0	0	483	624	
14	0	0	0	0	483	622	
15	0	0	0	0	483	623	
0	0	0	0	0	483	623	
1	0	0	0	0	483	623	
2	0	0	0	0	483	622	
3	0	0	0	0	483	622	
4	0	0	0	0	483	622	
5	0	0	0	0	483	623	
6	0	0	0	0	484	623	
7	0	0	0	0	484	622	
8	0	0	0	0	484	623	
9	0	0	0	0	484	622	
10	0	0	0	0	484	622	
11	0	0	0	0	485	622	
12	0	0	0	0	485	622	
13	0	0	0	0	486	623	
14	0	0	0	0	486	622	
15	0	0	0	0	487	623	
0	0	0	0	0	487	623	
1	0	0	0	0	487	622	
2	0	0	0	0	488	622	
3	0	0	0	0	489	623	
4	0	0	0	0	491	623	
5	0	0	0	0	490	624	
6	0	0	0	0	491	623	
7	0	0	0	0	491	623	
8	0	0	0	0	491	623	
9	0	0	0	0	492	623	
10	0	0	0	0	491	623	
11	0	0	0	0	491	623	
12	0	0	0	0	491	623	
13	0	0	0	0	491	623	
14	0	0	0	0	492	623	
15	0	0	0	0	491	623	
0	0	0	0	0	491	623	
1	0	0	0	0	492	623	
2	0	0	0	0	492	624	
3	0	0	0	0	493	623	
4	0	0	0	0	494	624	
5	0	0	0	0	494	624	
6	0	0	0	0	494	624	
7	0	0	0	0	495	624	
8	0	0	0	0	495	624	
9	0	0	0	0	495	624	
10	0	0	0	0	495	624	
11	0	0	0	0	495	624	
12	0	0	0	0	495	624	
13	0	0	0	0	496	624	
14	0	0	0	0	496	624	
15	0	0	0	0	496	624	
0	0	0	0	0	497	624	
1	0	0	0	0	497	624	
2	0	0	0	0	498	624	
3	0	0	0	0	498	625	
4	0	0	0	0	498	624	
5	0	0	0	0	498	625	
6	0	0	0	0	499	624	
7	0	0	0	0	499	624	
8	0	0	0	0	499	624	
9	0	0	0	0	499	624	
10	0	0	0	0	499	624	
11	0	0	0	0	498	624	
12	0	0	0	0	497	624	
13	0	0	0	0	498	624	
14	0	0	0	0	499	624	
15	0	0	0	0	500	623	
0	0	0	0	0	500	624	
1	0	0	0	0	501	623	
2	0	0	0	0	502	623	
3	0	0	0	0	502	624	
4	0	0	0	0	501	623	
5	0	0	0	0	502	623	
6	0	0	0	0	502	623	
7	0	0	0	0	502	624	
8	0	0	0	0	501	623	
9	0	0	0	0	502	623	
10	0	0	0	0	502	623	
11	0	0	0	0	503	623	
12	0	0	0	0	503	623	
13	0	0	0	0	504	623	
14	0	0	0	0	504	623	
15	0	0	0	0	504	623	
0	0	0	0	0	504	623	
1	0	0	0	0	503	623	
2	0	0	0	0	504	623	
3	0	0	0	0	504	623	
4	0	0	0	0	504	623	
5	0	0	0	0	504	624	
6	0	0	0	0	504	624	
7	0	0	0	0	504	624	
8	0	0	0	0	504	624	
9	0	0	0	0	504	623	
10	0	0	0	0	505	624	
11	0	0	0	0	505	624	
12	0	0	0	0	505	624	
13	0	0	0	0	506	624	
14	0	0	0	0	506	624	
15	0	0	0	0	507	624	
0	0	0	0	0	506	624	
1	0	0	0	0	506	624	
2	0	0	0	0	507	624	
3	0	0	0	0	506	623	
4	0	0	0	0	506	624	
5	0	0	0	0	505	624	
6	0	0	0	0	504	624	
7	0	0	0	0	504	624	
8	0	0	0	0	502	624	
9	0	0	0	0	502	624	
10	0	0	0	0	501	624	
11	0	0	0	0	500	624	
12	0	0	0	0	499	624	
13	0	0	0	0	499	624	
14	0	0	0	0	498	624	
15	0	0	0	0	497	624	
0	0	0	0	0	496	624	
1	0	0	0	0	495	624	
2	0	0	0	0	494	623	
3	0	0	0	0	492	623	
4	0	0	0	0	492	624	
5	0	0	0	0	492	624	
6	0	0	0	0	491	624	
7	0	0	0	0	491	623	
8	0	0	0	0	491	623	
9	0	0	0	0	489	624	
10	0	0	0	0	489	624	
11	0	0	0	0	488	624	
12	0	0	0	0	487	624	
13	0	0	0	0	486	624	
14	0	0	0	0	485	624	
15	0	0	0	0	485	624	
0	0	0	0	0	486	625	
1	0	0	0	0	486	624	
2	0	0	0	0	487	624	
3	0	0	0	0	488	624	
4	0	0	0	0	489	624	
5	0	0	0	0	489	624	
6	0	0	0	0	489	625	
7	0	0	0	0	490	624	
8	0	0	0	0	492	624	
9	0	0	0	0	492	624	
10	0	0	0	0	492	624	
11	0	0	0	0	491	623	
12	0	0	0	0	492	623	
13	0	0	0	0	492	623	
14	0	0	0	0	492	623	
15	0	0	0	0	493	624	
0	0	0	0	0	494	624	
1	0	0	0	0	495	624	
2	0	0	0	0	495	624	
3	0	0	0	0	496	624	
4	0	0	0	0	496	624	
5	0	0	0	0	497	624	
6	0	0	0	0	497	624	
7	0	0	0	0	498	624	
8	0	0	0	0	499	624	
9	0	0	0	0	500	624	
10	0	0	0	0	501	624	
11	0	0	0	0	502	624	
12	0	0	0	0	502	624	
13	0	0	0	0	502	624	
14	0	0	0	0	503	623	
15	0	0	0	0	504	623	
0	0	0	0	0	505	623	
1	0	0	0	0	505	623	
2	0	0	0	0	506	623	
3	0	0	0	0	506	623	
4	0	0	0	0	506	623	
5	0	0	0	0	507	623	
6	0	0	0	0	507	622	
7	0	0	0	0	508	623	
8	0	0	0	0	508	622	
9	0	0	0	0	509	623	
10	0	0	0	0	509	623	
11	0	0	0	0	509	622	
12	0	0	0	0	509	623	
13	0	0	0	0	509	622	
14	0	0	0	0	510	622	
15	0	0	0	0	512	622	
0	0	0	0	0	512	622	
1	0	0	0	0	513	622	
2	0	0	0	0	514	622	
3	0	0	0	0	516	622	
4	0	0	0	0	517	622	
5	0	0	0	0	518	623	
6	0	0	0	0	519	622	
7	0	0	0	0	519	622	
8	0	0	0	0	520	622	
9	0	0	0	0	521	622	
10	0	0	0	0	521	622	
11	0	0	0	0	522	623	
12	0	0	0	0	522	622	
13	0	0	0	0	522	622	
14	0	0	0	0	522	622	
15	0	0	0	0	523	622	
0	0	0	0	0	523	623	
1	0	0	0	0	523	623	
2	0	0	0	0	522	622	
3	0	0	0	0	523	623	
4	0	0	0	0	524	623	
5	0	0	0	0	524	623	
6	0	0	0	0	524	623	
7	0	0	0	0	526	623	
8	0	0	0	0	527	622	
9	0	0	0	0	527	623	
10	0	0	0	0	527	623	
11	0	0	0	0	527	623	
12	0	0	0	0	527	623	
13	0	0	0	0	528	623	
14	0	0	0	0	528	623	
15	0	0	0	0	528	623	
0	0	0	0	0	528	623	
1	0	0	0	0	528	624	
2	0	0	0	0	528	624	
3	0	0	0	0	528	624	
4	0	0	0	0	527	624	
5	0	0	0	0	527	624	
6	0	0	0	0	526	623	
7	0	0	0	0	526	624	
8	0	0	0	0	525	624	
9	0	0	0	0	524	623	
10	0	0	0	0	524	623	
11	0	0	0	0	523	624	
12	0	0	0	0	522	623	
13	0	0	0	0	521	624	
14	0	0	0	0	520	623	
15	0	0	0	0	519	623	
0	0	0	0	0	519	624	
1	0	0	0	0	518	624	
2	0	0	0	0	517	624	
3	0	0	0	0	516	624	
4	0	0	0	0	515	624	
5	0	0	0	0	514	624	
6	0	0	0	0	513	624	
7	0	0	0	0	512	624	
8	0	0	0	0	512	625	
9	0	0	0	0	511	625	
10	0	0	0	0	509	626	
11	0	0	0	0	509	627	
12	0	0	0	0	509	626	
13	0	0	0	0	508	627	
14	0	0	0	0	508	626	
15	0	0	0	0	507	626	
0	0	0	0	0	507	626	
1	0	0	0	0	507	626	
2	0	0	0	0	505	626	
3	0	0	0	0	504	626	
4	0	0	0	0	504	625	
5	0	0	0	0	504	626	
6	0	0	0	0	504	625	
7	0	0	0	0	504	624	
8	0	0	0	0	504	624	
9	0	0	0	0	504	624	
10	0	0	0	0	504	624	
11	0	0	0	0	504	624	
12	0	0	0	0	504	624	
13	0	0	0	0	505	624	
14	0	0	0	0	504	623	
15	0	0	0	0	504	623	
0	0	0	0	0	503	623	
1	0	0	0	0	503	623	
2	0	0	0	0	502	622	
3	0	0	0	0	502	622	
4	0	0	0	0	502	623	
5	0	0	0	0	502	623	
6	0	0	0	0	502	622	
7	0	0	0	0	503	623	
8	0	0	0	0	504	623	
9	0	0	0	0	504	622	
10	0	0	0	0	505	623	
11	0	0	0	0	506	623	
12	0	0	0	0	506	622	
13	0	0	0	0	506	622	
14	0	0	0	0	507	622	
15	0	0	0	0	507	622	
0	0	0	0	0	508	621	
1	0	0	0	0	508	621	
2	0	0	0	0	509	621	
3	0	0	0	0	510	622	
4	0	0	0	0	510	622	
5	0	0	0	0	510	622	
6	0	0	0	0	511	622	
7	0	0	0	0	512	621	
8	0	0	0	0	511	621	
9	0	0	0	0	511	621	
10	0	0	0	0	512	621	
11	0	0	0	0	511	621	
12	0	0	0	0	511	622	
13	0	0	0	0	512	622	
14	0	0	0	0	512	622	
15	0	0	0	0	511	623	
0	0	0	0	0	511	623	
1	0	0	0	0	511	623	
2	0	0	0	0	512	623	
3	0	0	0	0	512	624	
4	0	0	0	0	513	624	
5	0	0	0	0	513	625	
6	0	0	0	0	513	624	
7	0	0	0	0	513	624	
8	0	0	0	0	514	624	
9	0	0	0	0	514	624	
10	0	0	0	0	514	625	
11	0	0	0	0	515	625	
12	0	0	0	0	515	625	
13	0	0	0	0	515	624	
14	0	0	0	0	516	624	
15	0	0	0	0	516	623	
0	0	0	0	0	517	624	
1	0	0	0	0	518	625	
2	0	0	0	0	518	624	
3	0	0	0	0	519	624	
4	0	0	0	0	519	624	
5	0	0	0	0	519	624	
6	0	0	0	0	520	624	
7	0	0	0	0	520	623	
8	0	0	0	0	520	623	
9	0	0	0	0	520	624	
10	0	0	0	0	520	623	
11	0	0	0	0	520	623	
12	0	0	0	0	520	623	
13	0	0	0	0	521	623	
14	0	0	0	0	521	622	
15	0	0	0	0	522	622	
0	0	0	0	0	522	622	
1	0	0	0	0	522	622	
2	0	0	0	0	523	622	
3	0	0	0	0	523	623	
4	0	0	0	0	523	622	
5	0	0	0	0	524	623	
6	0	0	0	0	523	623	
7	0	0	0	0	522	624	
8	0	0	0	0	521	623	
9	0	0	0	0	520	623	
10	0	0	0	0	520	623	
11	0	0	0	0	520	623	
12	0	0	0	0	521	623	
13	0	0	0	0	521	623	
14	0	0	0	0	521	624	
15	0	0	0	0	522	624	
0	0	0	0	0	523	624	
1	0	0	0	0	522	624	
2	0	0	0	0	523	624	
3	0	0	0	0	523	623	
4	0	0	0	0	523	623	
5	0	0	0	0	523	624	
6	0	0	0	0	522	624	
7	0	0	0	0	521	624	
8	0	0	0	0	520	623	
9	0	0	0	0	520	624	
10	0	0	0	0	520	623	
11	0	0	0	0	521	624	
12	0	0	0	0	521	624	
13	0	0	0	0	521	624	
14	0	0	0	0	521	624	
15	0	0	0	0	521	623	
0	0	0	0	0	521	624	
1	0	0	0	0	522	624	
2	0	0	0	0	521	624	
3	0	0	0	0	521	624	
4	0	0	0	0	521	624	
5	0	0	0	0	521	624	
6	0	0	0	0	522	623	
7	0	0	0	0	522	624	
8	0	0	0	0	522	624	
9	0	0	0	0	522	624	
10	0	0	0	0	521	624	
11	0	0	0	0	522	624	
12	0	0	0	0	522	624	
13	0	0	0	0	522	624	
14	0	0	0	0	522	624	
15	0	0	0	0	523	624	
0	0	0	0	0	523	623	
1	0	0	0	0	524	623	
2	0	0	0	0	525	624	
3	0	0	0	0	524	623	
4	0	0	0	0	524	623	
5	0	0	0	0	525	624	
6	0	0	0	0	524	623	
7	0	0	0	0	524	623	
8	0	0	0	0	524	623	
9	0	0	0	0	523	622	
10	0	0	0	0	523	623	
11	0	0	0	0	523	623	
12	0	0	0	0	523	623	
13	0	0	0	0	524	623	
14	0	0	0	0	523	623	
15	0	0	0	0	522	623	
0	0	0	0	0	521	623	
1	0	0	0	0	521	623	
2	0	0	0	0	520	623	
3	0	0	0	0	519	623	
4	0	0	0	0	519	623	
5	0	0	0	0	519	623	
6	0	0	0	0	519	623	
7	0	0	0	0	519	623	
8	0	0	0	0	520	623	
9	0	0	0	0	520	623	
10	0	0	0	0	520	623	
11	0	0	0	0	519	623	
12	0	0	0	0	519	622	
13	0	0	0	0	519	623	
14	0	0	0	0	518	623	
15	0	0	0	0	518	623	
0	0	0	0	0	518	623	
1	0	0	0	0	518	623	
2	0	0	0	0	518	623	
3	0	0	0	0	517	623	
4	0	0	0	0	516	623	
5	0	0	0	0	516	623	
6	0	0	0	0	516	623	
7	0	0	0	0	516	623	
8	0	0	0	0	516	623	
9	0	0	0	0	517	624	
10	0	0	0	0	517	623	
11	0	0	0	0	518	623	
12	0	0	0	0	518	623	
13	0	0	0	0	518	624	
14	0	0	0	0	518	624	
15	0	0	0	0	519	624	
0	0	0	0	0	519	623	
1	0	0	0	0	519	623	
2	0	0	0	0	518	624	
3	0	0	0	0	518	623	
4	0	0	0	0	518	624	
5	0	0	0	0	517	624	
6	0	0	0	0	518	624	
7	0	0	0	0	518	624	
8	0	0	0	0	519	623	
9	0	0	0	0	519	623	
10	0	0	0	0	520	624	
11	0	0	0	0	521	623	
12	0	0	0	0	521	624	
13	0	0	0	0	521	624	
14	0	0	0	0	522	624	
15	0	0	0	0	524	623	
0	0	0	0	0	524	624	
1	0	0	0	0	525	624	
2	0	0	0	0	525	624	
3	0	0	0	0	526	624	
4	0	0	0	0	526	624	
5	0	0	0	0	526	624	
6	0	0	0	0	526	624	
7	0	0	0	0	526	624	
8	0	0	0	0	527	624	
9	0	0	0	0	527	624	
10	0	0	0	0	527	624	
11	0	0	0	0	527	624	
12	0	0	0	0	528	624	
13	0	0	0	0	527	625	
14	0	0	0	0	527	624	
15	0	0	0	0	528	624	
0	0	0	0	0	528	624	
1	0	0	0	0	529	623	
2	0	0	0	0	530	624	
3	0	0	0	0	529	624	
4	0	0	0	0	529	624	
5	0	0	0	0	529	623	
6	0	0	0	0	529	623	
7	0	0	0	0	531	623	
8	0	0	0	0	531	623	
9	0	0	0	0	532	623	
10	0	0	0	0	531	623	
11	0	0	0	0	531	623	
12	0	0	0	0	532	623	
13	0	0	0	0	532	623	
14	0	0	0	0	531	623	
15	0	0	0	0	531	623	
0	0	0	0	0	531	623	
1	0	0	0	0	531	623	
2	0	0	0	0	531	623	
3	0	0	0	0	532	623	
4	0	0	0	0	533	623	
5	0	0	0	0	535	623	
6	0	0	0	0	535	623	
7	0	0	0	0	536	623	
8	0	0	0	0	536	623	
9	0	0	0	0	536	623	
10	0	0	0	0	536	623	
11	0	0	0	0	536	624	
12	0	0	0	0	536	623	
13	0	0	0	0	536	624	
14	0	0	0	0	536	623	
15	0	0	0	0	536	623	
0	0	0	0	0	536	624	
1	0	0	0	0	536	623	
2	0	0	0	0	536	622	
3	0	0	0	0	536	623	
4	0	0	0	0	535	623	
5	0	0	0	0	535	623	
6	0	0	0	0	535	623	
7	0	0	0	0	535	623	
8	0	0	0	0	535	623	
9	0	0	0	0	536	623	
10	0	0	0	0	536	624	
11	0	0	0	0	537	624	
12	0	0	0	0	537	624	
13	0	0	0	0	537	623	
14	0	0	0	0	537	623	
15	0	0	0	0	538	624	
0	0	0	0	0	538	624	
1	0	0	0	0	538	623	
2	0	0	0	0	538	622	
3	0	0	0	0	538	623	
4	0	0	0	0	538	624	
5	0	0	0	0	538	624	
6	0	0	0	0	538	623	
7	0	0	0	0	537	623	
8	0	0	0	0	537	623	
9	0	0	0	0	536	623	
10	0	0	0	0	536	624	
11	0	0	0	0	536	623	
12	0	0	0	0	536	624	
13	0	0	0	0	536	624	
14	0	0	0	0	536	623	
15	0	0	0	0	536	623	
0	0	0	0	0	537	623	
1	0	0	0	0	537	623	
2	0	0	0	0	536	623	
3	0	0	0	0	537	623	
4	0	0	0	0	536	623	
5	0	0	0	0	537	623	
6	0	0	0	0	536	623	
7	0	0	0	0	536	623	
8	0	0	0	0	536	623	
9	0	0	0	0	535	623	
10	0	0	0	0	535	623	
11	0	0	0	0	536	623	
12	0	0	0	0	535	624	
13	0	0	0	0	535	624	
14	0	0	0	0	536	624	
15	0	0	0	0	536	624	
0	0	0	0	0	536	623	
1	0	0	0	0	536	623	
2	0	0	0	0	536	624	
3	0	0	0	0	536	623	
4	0	0	0	0	535	624	
5	0	0	0	0	535	624	
6	0	0	0	0	535	623	
7	0	0	0	0	535	623	
8	0	0	0	0	534	623	
9	0	0	0	0	534	624	
10	0	0	0	0	533	624	
11	0	0	0	0	533	623	
12	0	0	0	0	533	623	
13	0	0	0	0	532	624	
14	0	0	0	0	531	624	
15	0	0	0	0	530	624	
0	0	0	0	0	530	624	
1	0	0	0	0	530	624	
2	0	0	0	0	530	624	
3	0	0	0	0	530	624	
4	0	0	0	0	530	624	
5	0	0	0	0	529	624	
6	0	0	0	0	530	624	
7	0	0	0	0	529	624	
8	0	0	0	0	529	624	
9	0	0	0	0	529	624	
10	0	0	0	0	528	624	
11	0	0	0	0	528	624	
12	0	0	0	0	528	624	
13	0	0	0	0	528	624	
14	0	0	0	0	528	624	
15	0	0	0	0	527	623	
0	0	0	0	0	528	624	
1	0	0	0	0	527	623	
2	0	0	0	0	527	624	
3	0	0	0	0	526	624	
4	0	0	0	0	526	623	
5	0	0	0	0	527	624	
6	0	0	0	0	527	623	
7	0	0	0	0	527	623	
8	0	0	0	0	527	623	
9	0	0	0	0	527	623	
10	0	0	0	0	527	623	
11	0	0	0	0	526	623	
12	0	0	0	0	526	624	
13	0	0	0	0	525	624	
14	0	0	0	0	524	624	
15	0	0	0	0	524	623	
0	0	0	0	0	523	623	
1	0	0	0	0	523	624	
2	0	0	0	0	523	624	
3	0	0	0	0	522	624	
4	0	0	0	0	522	624	
5	0	0	0	0	521	624	
6	0	0	0	0	522	624	
7	0	0	0	0	522	624	
8	0	0	0	0	523	624	
9	0	0	0	0	523	624	
10	0	0	0	0	522	624	
11	0	0	0	0	522	624	
12	0	0	0	0	521	624	
13	0	0	0	0	521	625	
14	0	0	0	0	520	624	
15	0	0	0	0	520	624	
0	0	0	0	0	519	624	
1	0	0	0	0	519	623	
2	0	0	0	0	518	624	
3	0	0	0	0	517	623	
4	0	0	0	0	516	624	
5	0	0	0	0	516	624	
6	0	0	0	0	515	623	
7	0	0	0	0	513	623	
8	0	0	0	0	512	624	
9	0	0	0	0	512	623	
10	0	0	0	0	511	623	
11	0	0	0	0	510	623	
12	0	0	0	0	509	624	
13	0	0	0	0	507	623	
14	0	0	0	0	505	623	
15	0	0	0	0	504	623	
0	0	0	0	0	502	623	
1	0	0	0	0	502	623	
2	0	0	0	0	501	623	
3	0	0	0	0	500	623	
4	0	0	0	0	499	622	
5	0	0	0	0	499	623	
6	0	0	0	0	499	623	
7	0	0	0	0	499	623	
8	0	0	0	0	498	623	
9	0	0	0	0	498	623	
10	0	0	0	0	498	623	
11	0	0	0	0	498	623	
12	0	0	0	0	499	623	
13	0	0	0	0	498	623	
14	0	0	0	0	498	622	
15	0	0	0	0	498	622	
0	0	0	0	0	498	623	
1	0	0	0	0	498	623	
2	0	0	0	0	498	622	
3	0	0	0	0	498	623	
4	0	0	0	0	498	623	
5	0	0	0	0	498	622	
6	0	0	0	0	499	623	
7	0	0	0	0	499	623	
8	0	0	0	0	500	623	
9	0	0	0	0	500	623	
10	0	0	0	0	500	622	
11	0	0	0	0	500	623	
12	0	0	0	0	499	623	
13	0	0	0	0	499	623	
14	0	0	0	0	498	623	
15	0	0	0	0	498	623	
0	0	0	0	0	498	623	
1	0	0	0	0	499	623	
2	0	0	0	0	499	624	
3	0	0	0	0	499	623	
4	0	0	0	0	499	623	
5	0	0	0	0	499	623	
6	0	0	0	0	499	623	
7	0	0	0	0	499	623	
8	0	0	0	0	499	623	
9	0	0	0	0	499	623	
10	0	0	0	0	499	624	
11	0	0	0	0	499	624	
12	0	0	0	0	499	624	
13	0	0	0	0	499	624	
14	0	0	0	0	500	623	
15	0	0	0	0	500	624	
0	0	0	0	0	500	624	
1	0	0	0	0	499	624	
2	0	0	0	0	500	624	
3	0	0	0	0	500	623	
4	0	0	0	0	500	623	
5	0	0	0	0	500	624	
6	0	0	0	0	500	624	
7	0	0	0	0	499	623	
8	0	0	0	0	499	624	
9	0	0	0	0	499	623	
10	0	0	0	0	499	624	
11	0	0	0	0	499	623	
12	0	0	0	0	499	623	
13	0	0	0	0	499	624	
14	0	0	0	0	500	624	
15	0	0	0	0	500	624	
0	0	0	0	0	500	624	
1	0	0	0	0	501	624	
2	0	0	0	0	502	624	
3	0	0	0	0	503	624	
4	0	0	0	0	503	624	
5	0	0	0	0	504	624	
6	0	0	0	0	504	624	
7	0	0	0	0	504	624	
8	0	0	0	0	504	624	
9	0	0	0	0	503	624	
10	0	0	0	0	503	623	
11	0	0	0	0	503	623	
12	0	0	0	0	503	624	
13	0	0	0	0	503	624	
14	0	0	0	0	503	624	
15	0	0	0	0	503	624	
0	0	0	0	0	503	624	
1	0	0	0	0	503	624	
2	0	0	0	0	503	624	
3	0	0	0	0	502	624	
4	0	0	0	0	503	624	
5	0	0	0	0	502	624	
6	0	0	0	0	502	624	
7	0	0	0	0	501	623	
8	0	0	0	0	501	623	
9	0	0	0	0	501	623	
10	0	0	0	0	501	624	
11	0	0	0	0	501	624	
12	0	0	0	0	500	624	
13	0	0	0	0	500	624	
14	0	0	0	0	501	624	
15	0	0	0	0	502	623	
0	0	0	0	0	502	624	
1	0	0	0	0	504	624	
2	0	0	0	0	504	624	
3	0	0	0	0	504	624	
4	0	0	0	0	505	624	
5	0	0	0	0	504	624	
6	0	0	0	0	505	624	
7	0	0	0	0	505	624	
8	0	0	0	0	505	624	
9	0	0	0	0	504	624	
10	0	0	0	0	504	624	
11	0	0	0	0	505	624	
12	0	0	0	0	505	624	
13	0	0	0	0	506	624	
14	0	0	0	0	507	624	
15	0	0	0	0	508	624	
0	0	0	0	0	510	624	
1	0	0	0	0	511	624	
2	0	0	0	0	513	624	
3	0	0	0	0	515	624	
4	0	0	0	0	516	624	
5	0	0	0	0	518	624	
6	0	0	0	0	519	624	
7	0	0	0	0	519	624	
8	0	0	0	0	520	624	
9	0	0	0	0	521	623	
10	0	0	0	0	523	624	
11	0	0	0	0	523	624	
12	0	0	0	0	524	624	
13	0	0	0	0	525	624	
14	0	0	0	0	526	624	
15	0	0	0	0	527	623	
0	0	0	0	0	527	623	
1	0	0	0	0	529	623	
2	0	0	0	0	529	623	
3	0	0	0	0	530	623	
4	0	0	0	0	530	623	
5	0	0	0	0	531	623	
6	0	0	0	0	531	623	
7	0	0	0	0	532	623	
8	0	0	0	0	532	622	
9	0	0	0	0	532	623	
10	0	0	0	0	534	623	
11	0	0	0	0	534	623	
12	0	0	0	0	535	623	
13	0	0	0	0	535	623	
14	0	0	0	0	536	623	
15	0	0	0	0	536	623	
0	0	0	0	0	536	623	
1	0	0	0	0	535	623	
2	0	0	0	0	535	623	
3	0	0	0	0	535	623	
4	0	0	0	0	534	623	
5	0	0	0	0	534	623	
6	0	0	0	0	533	623	
7	0	0	0	0	533	623	
8	0	0	0	0	533	623	
9	0	0	0	0	532	623	
10	0	0	0	0	531	623	
11	0	0	0	0	529	623	
12	0	0	0	0	527	623	
13	0	0	0	0	525	624	
14	0	0	0	0	524	623	
15	0	0	0	0	522	623	
0	0	0	0	0	519	623	
1	0	0	0	0	519	623	
2	0	0	0	0	517	624	
3	0	0	0	0	516	623	
4	0	0	0	0	516	623	
5	0	0	0	0	517	624	
6	0	0	0	0	517	624	
7	0	0	0	0	519	624	
8	0	0	0	0	519	624	
9	0	0	0	0	519	624	
10	0	0	0	0	520	623	
11	0	0	0	0	521	623	
12	0	0	0	0	520	624	
13	0	0	0	0	520	624	
14	0	0	0	0	520	624	
15	0	0	0	0	520	624	
0	0	0	0	0	521	623	
1	0	0	0	0	521	624	
2	0	0	0	0	520	624	
3	0	0	0	0	519	624	
4	0	0	0	0	520	623	
5	0	0	0	0	519	624	
6	0	0	0	0	519	623	
7	0	0	0	0	519	624	
8	0	0	0	0	519	624	
9	0	0	0	0	519	624	
10	0	0	0	0	518	623	
11	0	0	0	0	517	623	
12	0	0	0	0	516	623	
13	0	0	0	0	515	624	
14	0	0	0	0	514	624	
15	0	0	0	0	512	622	
0	0	0	0	0	510	623	
1	0	0	0	0	509	623	
2	0	0	0	0	508	624	
3	0	0	0	0	507	623	
4	0	0	0	0	505	623	
5	0	0	0	0	504	624	
6	0	0	0	0	503	623	
7	0	0	0	0	501	623	
8	0	0	0	0	499	624	
9	0	0	0	0	498	623	
10	0	0	0	0	497	624	
11	0	0	0	0	496	623	
12	0	0	0	0	495	624	
13	0	0	0	0	494	624	
14	0	0	0	0	493	623	
15	0	0	0	0	492	624	
0	0	0	0	0	491	624	
1	0	0	0	0	490	623	
2	0	0	0	0	488	624	
3	0	0	0	0	487	623	
4	0	0	0	0	486	623	
5	0	0	0	0	486	623	
6	0	0	0	0	485	624	
7	0	0	0	0	484	623	
8	0	0	0	0	483	622	
9	0	0	0	0	482	623	
10	0	0	0	0	480	623	
11	0	0	0	0	478	623	
12	0	0	0	0	476	623	
13	0	0	0	0	473	623	
14	0	0	0	0	471	623	
15	0	0	0	0	467	623	
0	0	0	0	0	464	623	
1	0	0	0	0	461	624	
2	0	0	0	0	457	623	
3	0	0	0	0	454	623	
4	0	0	0	0	451	624	
5	0	0	0	0	448	624	
6	0	0	0	0	446	624	
7	0	0	0	0	445	623	
8	0	0	0	0	446	624	
9	0	0	0	0	446	624	
10	0	0	0	0	447	624	
11	0	0	0	0	448	623	
12	0	0	0	0	450	624	
13	0	0	0	0	452	624	
14	0	0	0	0	455	623	
15	0	0	0	0	460	624	
0	0	0	0	0	465	624	
1	0	0	0	0	472	624	
2	0	0	0	0	479	624	
3	0	0	0	0	487	624	
4	0	0	0	0	497	624	
5	0	0	0	0	508	624	
6	0	0	0	0	518	623	
7	0	0	0	0	529	624	
8	0	0	0	0	542	624	
9	0	0	0	0	556	623	
10	0	0	0	0	572	624	
11	0	0	0	0	590	624	
12	0	0	0	0	608	624	
13	0	0	0	0	626	624	
14	0	0	0	0	647	623	
15	0	0	0	0	668	623	
0	0	0	0	0	688	623	
1	0	0	0	0	707	623	
2	0	0	0	0	721	623	
3	0	0	0	0	729	623	
4	0	0	0	0	731	623	
5	0	0	0	0	728	624	
6	0	0	0	0	719	624	
7	0	0	0	0	707	624	
8	0	0	0	0	692	623	
9	0	0	0	0	675	624	
10	0	0	0	0	656	623	
11	0	0	0	0	637	624	
12	0	0	0	0	620	624	
13	0	0	0	0	605	624	
14	0	0	0	0	592	624	
15	0	0	0	0	580	623	
0	0	0	0	0	568	624	
1	0	0	0	0	557	624	
2	0	0	0	0	545	623	
3	0	0	0	0	534	624	
4	0	0	0	0	523	624	
5	0	0	0	0	514	624	
6	0	0	0	0	506	624	
7	0	0	0	0	498	623	
8	0	0	0	0	492	624	
9	0	0	0	0	486	624	
10	0	0	0	0	480	624	
11	0	0	0	0	476	624	
12	0	0	0	0	472	623	
13	0	0	0	0	469	624	
14	0	0	0	0	465	624	
15	0	0	0	0	463	624	
0	0	0	0	0	460	624	
1	0	0	0	0	458	624	
2	0	0	0	0	455	624	
3	0	0	0	0	453	624	
