# OpenSignals Text File Format. Version 1
# {"98:D3:91:FD:69:48": {"position": 0, "device": "bitalino_rev", "device name": "98:D3:91:FD:69:48", "device connection": "BTH98:D3:91:FD:69:48", "sampling rate": 1000, "resolution": [4, 1, 1, 1, 1, 10, 10], "firmware version": 1281, "comments": "", "keywords": "", "mode": 0, "sync interval": 2, "date": "2021-9-8", "time": "18:44:27.571", "channels": [2, 5], "sensor": ["RAW", "RAW"], "label": ["A2", "A5"], "column": ["nSeq", "I1", "I2", "O1", "O2", "A2", "A5"], "special": [{}, {}], "digital IO": [0, 0, 1, 1], "convertedValues": 0}}
# EndOfHeader
0	0	0	0	0	510	411	
1	0	0	0	0	510	412	
2	0	0	0	0	511	411	
3	0	0	0	0	511	412	
4	0	0	0	0	513	412	
5	0	0	0	0	514	411	
6	0	0	0	0	514	411	
7	0	0	0	0	514	411	
8	0	0	0	0	514	412	
9	0	0	0	0	514	411	
10	0	0	0	0	514	411	
11	0	0	0	0	514	411	
12	0	0	0	0	513	412	
13	0	0	0	0	513	411	
14	0	0	0	0	513	411	
15	0	0	0	0	513	411	
0	0	0	0	0	513	411	
1	0	0	0	0	512	411	
2	0	0	0	0	512	411	
3	0	0	0	0	513	411	
4	0	0	0	0	513	411	
5	0	0	0	0	513	411	
6	0	0	0	0	513	411	
7	0	0	0	0	513	410	
8	0	0	0	0	513	410	
9	0	0	0	0	513	410	
10	0	0	0	0	513	410	
11	0	0	0	0	514	409	
12	0	0	0	0	514	410	
13	0	0	0	0	513	410	
14	0	0	0	0	513	410	
15	0	0	0	0	513	409	
0	0	0	0	0	512	409	
1	0	0	0	0	512	409	
2	0	0	0	0	511	409	
3	0	0	0	0	511	409	
4	0	0	0	0	511	409	
5	0	0	0	0	510	409	
6	0	0	0	0	511	408	
7	0	0	0	0	510	408	
8	0	0	0	0	511	408	
9	0	0	0	0	511	409	
10	0	0	0	0	510	408	
11	0	0	0	0	511	408	
12	0	0	0	0	512	408	
13	0	0	0	0	512	408	
14	0	0	0	0	511	408	
15	0	0	0	0	511	407	
0	0	0	0	0	512	407	
1	0	0	0	0	511	408	
2	0	0	0	0	511	407	
3	0	0	0	0	510	407	
4	0	0	0	0	511	408	
5	0	0	0	0	511	408	
6	0	0	0	0	511	407	
7	0	0	0	0	511	407	
8	0	0	0	0	511	407	
9	0	0	0	0	510	407	
10	0	0	0	0	511	407	
11	0	0	0	0	511	406	
12	0	0	0	0	512	407	
13	0	0	0	0	512	407	
14	0	0	0	0	512	407	
15	0	0	0	0	513	406	
0	0	0	0	0	514	406	
1	0	0	0	0	515	406	
2	0	0	0	0	514	406	
3	0	0	0	0	514	406	
4	0	0	0	0	513	406	
5	0	0	0	0	513	406	
6	0	0	0	0	514	406	
7	0	0	0	0	514	406	
8	0	0	0	0	513	406	
9	0	0	0	0	512	406	
10	0	0	0	0	513	406	
11	0	0	0	0	513	406	
12	0	0	0	0	513	406	
13	0	0	0	0	513	405	
14	0	0	0	0	513	406	
15	0	0	0	0	514	406	
0	0	0	0	0	514	406	
1	0	0	0	0	514	406	
2	0	0	0	0	514	406	
3	0	0	0	0	515	405	
4	0	0	0	0	515	405	
5	0	0	0	0	515	406	
6	0	0	0	0	515	405	
7	0	0	0	0	514	406	
8	0	0	0	0	514	406	
9	0	0	0	0	514	406	
10	0	0	0	0	514	406	
11	0	0	0	0	513	406	
12	0	0	0	0	513	406	
13	0	0	0	0	513	406	
14	0	0	0	0	513	405	
15	0	0	0	0	514	407	
0	0	0	0	0	514	406	
1	0	0	0	0	513	406	
2	0	0	0	0	514	407	
3	0	0	0	0	514	406	
4	0	0	0	0	514	406	
5	0	0	0	0	514	406	
6	0	0	0	0	515	406	
7	0	0	0	0	516	406	
8	0	0	0	0	516	406	
9	0	0	0	0	517	406	
10	0	0	0	0	516	406	
11	0	0	0	0	515	406	
12	0	0	0	0	515	406	
13	0	0	0	0	515	406	
14	0	0	0	0	514	406	
15	0	0	0	0	514	406	
0	0	0	0	0	514	406	
1	0	0	0	0	514	406	
2	0	0	0	0	513	406	
3	0	0	0	0	513	406	
4	0	0	0	0	512	406	
5	0	0	0	0	511	406	
6	0	0	0	0	511	406	
7	0	0	0	0	511	406	
8	0	0	0	0	511	407	
9	0	0	0	0	511	407	
10	0	0	0	0	512	407	
11	0	0	0	0	513	407	
12	0	0	0	0	513	407	
13	0	0	0	0	512	407	
14	0	0	0	0	513	406	
15	0	0	0	0	513	406	
0	0	0	0	0	513	406	
1	0	0	0	0	512	406	
2	0	0	0	0	512	406	
3	0	0	0	0	513	407	
4	0	0	0	0	513	406	
5	0	0	0	0	513	407	
6	0	0	0	0	513	406	
7	0	0	0	0	513	407	
8	0	0	0	0	513	407	
9	0	0	0	0	512	408	
10	0	0	0	0	512	408	
11	0	0	0	0	512	408	
12	0	0	0	0	512	408	
13	0	0	0	0	511	407	
14	0	0	0	0	512	408	
15	0	0	0	0	512	407	
0	0	0	0	0	512	407	
1	0	0	0	0	513	407	
2	0	0	0	0	513	407	
3	0	0	0	0	513	407	
4	0	0	0	0	512	408	
5	0	0	0	0	512	408	
6	0	0	0	0	512	408	
7	0	0	0	0	511	408	
8	0	0	0	0	510	407	
9	0	0	0	0	510	407	
10	0	0	0	0	509	407	
11	0	0	0	0	508	407	
12	0	0	0	0	508	407	
13	0	0	0	0	508	408	
14	0	0	0	0	507	407	
15	0	0	0	0	507	408	
0	0	0	0	0	506	408	
1	0	0	0	0	507	408	
2	0	0	0	0	508	408	
3	0	0	0	0	508	408	
4	0	0	0	0	508	408	
5	0	0	0	0	509	408	
6	0	0	0	0	510	408	
7	0	0	0	0	511	408	
8	0	0	0	0	511	408	
9	0	0	0	0	510	409	
10	0	0	0	0	510	408	
11	0	0	0	0	511	409	
12	0	0	0	0	511	408	
13	0	0	0	0	510	409	
14	0	0	0	0	510	409	
15	0	0	0	0	511	409	
0	0	0	0	0	511	408	
1	0	0	0	0	510	408	
2	0	0	0	0	510	409	
3	0	0	0	0	510	409	
4	0	0	0	0	511	409	
5	0	0	0	0	511	409	
6	0	0	0	0	512	409	
7	0	0	0	0	512	410	
8	0	0	0	0	512	410	
9	0	0	0	0	512	410	
10	0	0	0	0	513	410	
11	0	0	0	0	513	409	
12	0	0	0	0	515	410	
13	0	0	0	0	515	409	
14	0	0	0	0	515	410	
15	0	0	0	0	514	410	
0	0	0	0	0	514	410	
1	0	0	0	0	514	410	
2	0	0	0	0	514	409	
3	0	0	0	0	513	410	
4	0	0	0	0	513	411	
5	0	0	0	0	513	409	
6	0	0	0	0	513	410	
7	0	0	0	0	513	409	
8	0	0	0	0	513	411	
9	0	0	0	0	513	409	
10	0	0	0	0	514	410	
11	0	0	0	0	515	409	
12	0	0	0	0	515	409	
13	0	0	0	0	515	410	
14	0	0	0	0	515	410	
15	0	0	0	0	515	409	
0	0	0	0	0	514	409	
1	0	0	0	0	514	409	
2	0	0	0	0	513	409	
3	0	0	0	0	512	409	
4	0	0	0	0	512	409	
5	0	0	0	0	513	409	
6	0	0	0	0	513	409	
7	0	0	0	0	513	410	
8	0	0	0	0	513	409	
9	0	0	0	0	513	410	
10	0	0	0	0	514	409	
11	0	0	0	0	513	410	
12	0	0	0	0	513	409	
13	0	0	0	0	513	410	
14	0	0	0	0	513	411	
15	0	0	0	0	512	410	
0	0	0	0	0	512	411	
1	0	0	0	0	511	411	
2	0	0	0	0	511	410	
3	0	0	0	0	509	410	
4	0	0	0	0	508	410	
5	0	0	0	0	509	410	
6	0	0	0	0	509	410	
7	0	0	0	0	509	409	
8	0	0	0	0	509	409	
9	0	0	0	0	509	410	
10	0	0	0	0	508	409	
11	0	0	0	0	508	409	
12	0	0	0	0	508	409	
13	0	0	0	0	508	409	
14	0	0	0	0	508	409	
15	0	0	0	0	508	409	
0	0	0	0	0	508	409	
1	0	0	0	0	508	409	
2	0	0	0	0	508	409	
3	0	0	0	0	509	410	
4	0	0	0	0	510	409	
5	0	0	0	0	510	409	
6	0	0	0	0	510	409	
7	0	0	0	0	511	409	
8	0	0	0	0	510	409	
9	0	0	0	0	510	409	
10	0	0	0	0	511	409	
11	0	0	0	0	511	408	
12	0	0	0	0	511	409	
13	0	0	0	0	510	408	
14	0	0	0	0	510	409	
15	0	0	0	0	510	408	
0	0	0	0	0	510	408	
1	0	0	0	0	510	408	
2	0	0	0	0	510	408	
3	0	0	0	0	510	407	
4	0	0	0	0	511	408	
5	0	0	0	0	510	408	
6	0	0	0	0	509	408	
7	0	0	0	0	509	407	
8	0	0	0	0	510	407	
9	0	0	0	0	511	407	
10	0	0	0	0	511	407	
11	0	0	0	0	510	407	
12	0	0	0	0	510	407	
13	0	0	0	0	511	407	
14	0	0	0	0	511	407	
15	0	0	0	0	511	407	
0	0	0	0	0	511	407	
1	0	0	0	0	510	407	
2	0	0	0	0	510	407	
3	0	0	0	0	510	407	
4	0	0	0	0	509	406	
5	0	0	0	0	508	406	
6	0	0	0	0	508	406	
7	0	0	0	0	508	406	
8	0	0	0	0	508	406	
9	0	0	0	0	507	405	
10	0	0	0	0	507	405	
11	0	0	0	0	507	406	
12	0	0	0	0	507	406	
13	0	0	0	0	508	406	
14	0	0	0	0	507	406	
15	0	0	0	0	506	406	
0	0	0	0	0	505	406	
1	0	0	0	0	503	406	
2	0	0	0	0	500	406	
3	0	0	0	0	497	406	
4	0	0	0	0	494	405	
5	0	0	0	0	490	406	
6	0	0	0	0	486	406	
7	0	0	0	0	484	406	
8	0	0	0	0	481	406	
9	0	0	0	0	479	405	
10	0	0	0	0	478	406	
11	0	0	0	0	477	405	
12	0	0	0	0	478	406	
13	0	0	0	0	480	406	
14	0	0	0	0	483	406	
15	0	0	0	0	488	406	
0	0	0	0	0	494	405	
1	0	0	0	0	504	406	
2	0	0	0	0	513	406	
3	0	0	0	0	523	406	
4	0	0	0	0	533	406	
5	0	0	0	0	544	406	
6	0	0	0	0	555	406	
7	0	0	0	0	567	406	
8	0	0	0	0	577	406	
9	0	0	0	0	588	406	
10	0	0	0	0	599	407	
11	0	0	0	0	608	406	
12	0	0	0	0	617	406	
13	0	0	0	0	625	407	
14	0	0	0	0	633	406	
15	0	0	0	0	639	406	
0	0	0	0	0	645	405	
1	0	0	0	0	650	406	
2	0	0	0	0	653	406	
3	0	0	0	0	654	406	
4	0	0	0	0	654	406	
5	0	0	0	0	652	405	
6	0	0	0	0	649	406	
7	0	0	0	0	646	406	
8	0	0	0	0	639	406	
9	0	0	0	0	632	406	
10	0	0	0	0	623	407	
11	0	0	0	0	614	406	
12	0	0	0	0	604	406	
13	0	0	0	0	593	405	
14	0	0	0	0	583	406	
15	0	0	0	0	572	407	
0	0	0	0	0	561	406	
1	0	0	0	0	551	406	
2	0	0	0	0	541	407	
3	0	0	0	0	533	406	
4	0	0	0	0	526	407	
5	0	0	0	0	519	407	
6	0	0	0	0	514	407	
7	0	0	0	0	511	407	
8	0	0	0	0	507	407	
9	0	0	0	0	503	408	
10	0	0	0	0	501	407	
11	0	0	0	0	497	408	
12	0	0	0	0	496	408	
13	0	0	0	0	493	408	
14	0	0	0	0	489	408	
15	0	0	0	0	487	408	
0	0	0	0	0	485	407	
1	0	0	0	0	483	407	
2	0	0	0	0	482	408	
3	0	0	0	0	481	408	
4	0	0	0	0	480	408	
5	0	0	0	0	479	408	
6	0	0	0	0	480	408	
7	0	0	0	0	480	408	
8	0	0	0	0	479	408	
9	0	0	0	0	479	409	
10	0	0	0	0	479	408	
11	0	0	0	0	479	408	
12	0	0	0	0	480	409	
13	0	0	0	0	480	409	
14	0	0	0	0	481	409	
15	0	0	0	0	481	409	
0	0	0	0	0	481	408	
1	0	0	0	0	481	408	
2	0	0	0	0	481	409	
3	0	0	0	0	480	409	
4	0	0	0	0	480	409	
5	0	0	0	0	480	408	
6	0	0	0	0	480	409	
7	0	0	0	0	480	409	
8	0	0	0	0	480	408	
9	0	0	0	0	479	409	
10	0	0	0	0	480	409	
11	0	0	0	0	480	409	
12	0	0	0	0	481	409	
13	0	0	0	0	481	408	
14	0	0	0	0	481	409	
15	0	0	0	0	482	409	
0	0	0	0	0	483	408	
1	0	0	0	0	484	409	
2	0	0	0	0	485	408	
3	0	0	0	0	486	408	
4	0	0	0	0	486	408	
5	0	0	0	0	487	408	
6	0	0	0	0	488	408	
7	0	0	0	0	487	408	
8	0	0	0	0	486	408	
9	0	0	0	0	486	408	
10	0	0	0	0	485	408	
11	0	0	0	0	485	408	
12	0	0	0	0	486	408	
13	0	0	0	0	486	408	
14	0	0	0	0	487	408	
15	0	0	0	0	488	408	
0	0	0	0	0	488	408	
1	0	0	0	0	488	408	
2	0	0	0	0	488	408	
3	0	0	0	0	489	407	
4	0	0	0	0	489	408	
5	0	0	0	0	489	408	
6	0	0	0	0	489	408	
7	0	0	0	0	489	407	
8	0	0	0	0	489	407	
9	0	0	0	0	488	407	
10	0	0	0	0	488	407	
11	0	0	0	0	488	407	
12	0	0	0	0	488	407	
13	0	0	0	0	488	406	
14	0	0	0	0	489	407	
15	0	0	0	0	489	406	
0	0	0	0	0	489	407	
1	0	0	0	0	489	406	
2	0	0	0	0	489	406	
3	0	0	0	0	490	405	
4	0	0	0	0	490	406	
5	0	0	0	0	490	405	
6	0	0	0	0	491	405	
7	0	0	0	0	491	405	
8	0	0	0	0	491	405	
9	0	0	0	0	491	405	
10	0	0	0	0	491	404	
11	0	0	0	0	491	405	
12	0	0	0	0	491	405	
13	0	0	0	0	491	404	
14	0	0	0	0	492	404	
15	0	0	0	0	493	404	
0	0	0	0	0	492	404	
1	0	0	0	0	492	405	
2	0	0	0	0	493	404	
3	0	0	0	0	494	404	
4	0	0	0	0	493	404	
5	0	0	0	0	494	404	
6	0	0	0	0	494	404	
7	0	0	0	0	495	403	
8	0	0	0	0	495	404	
9	0	0	0	0	496	405	
10	0	0	0	0	496	404	
11	0	0	0	0	497	403	
12	0	0	0	0	497	404	
13	0	0	0	0	497	404	
14	0	0	0	0	497	404	
15	0	0	0	0	497	403	
0	0	0	0	0	497	404	
1	0	0	0	0	497	403	
2	0	0	0	0	496	403	
3	0	0	0	0	496	403	
4	0	0	0	0	496	403	
5	0	0	0	0	496	403	
6	0	0	0	0	496	403	
7	0	0	0	0	495	403	
8	0	0	0	0	495	403	
9	0	0	0	0	495	402	
10	0	0	0	0	495	402	
11	0	0	0	0	497	402	
12	0	0	0	0	497	402	
13	0	0	0	0	498	403	
14	0	0	0	0	498	402	
15	0	0	0	0	498	403	
0	0	0	0	0	498	402	
1	0	0	0	0	497	402	
2	0	0	0	0	498	402	
3	0	0	0	0	498	401	
4	0	0	0	0	498	402	
5	0	0	0	0	499	402	
6	0	0	0	0	499	402	
7	0	0	0	0	499	402	
8	0	0	0	0	498	403	
9	0	0	0	0	497	402	
10	0	0	0	0	498	402	
11	0	0	0	0	497	403	
12	0	0	0	0	497	403	
13	0	0	0	0	498	403	
14	0	0	0	0	498	403	
15	0	0	0	0	498	403	
0	0	0	0	0	499	403	
1	0	0	0	0	500	403	
2	0	0	0	0	500	403	
3	0	0	0	0	501	402	
4	0	0	0	0	502	402	
5	0	0	0	0	502	402	
6	0	0	0	0	502	402	
7	0	0	0	0	503	403	
8	0	0	0	0	503	403	
9	0	0	0	0	503	404	
10	0	0	0	0	503	404	
11	0	0	0	0	502	404	
12	0	0	0	0	502	404	
13	0	0	0	0	502	403	
14	0	0	0	0	502	403	
15	0	0	0	0	502	403	
0	0	0	0	0	502	403	
1	0	0	0	0	502	404	
2	0	0	0	0	503	404	
3	0	0	0	0	504	404	
4	0	0	0	0	504	404	
5	0	0	0	0	504	404	
6	0	0	0	0	504	404	
7	0	0	0	0	504	404	
8	0	0	0	0	504	404	
9	0	0	0	0	504	404	
10	0	0	0	0	505	404	
11	0	0	0	0	505	404	
12	0	0	0	0	506	404	
13	0	0	0	0	505	404	
14	0	0	0	0	504	404	
15	0	0	0	0	504	404	
0	0	0	0	0	504	405	
1	0	0	0	0	504	404	
2	0	0	0	0	505	404	
3	0	0	0	0	506	405	
4	0	0	0	0	506	405	
5	0	0	0	0	507	405	
6	0	0	0	0	507	406	
7	0	0	0	0	508	406	
8	0	0	0	0	508	406	
9	0	0	0	0	508	407	
10	0	0	0	0	508	406	
11	0	0	0	0	510	407	
12	0	0	0	0	511	407	
13	0	0	0	0	511	408	
14	0	0	0	0	511	409	
15	0	0	0	0	512	409	
0	0	0	0	0	512	409	
1	0	0	0	0	512	409	
2	0	0	0	0	512	409	
3	0	0	0	0	512	409	
4	0	0	0	0	512	409	
5	0	0	0	0	512	409	
6	0	0	0	0	513	410	
7	0	0	0	0	513	410	
8	0	0	0	0	512	409	
9	0	0	0	0	512	409	
10	0	0	0	0	513	409	
11	0	0	0	0	513	410	
12	0	0	0	0	514	410	
13	0	0	0	0	514	409	
14	0	0	0	0	513	409	
15	0	0	0	0	515	409	
0	0	0	0	0	516	409	
1	0	0	0	0	516	410	
2	0	0	0	0	517	409	
3	0	0	0	0	518	409	
4	0	0	0	0	519	409	
5	0	0	0	0	521	409	
6	0	0	0	0	521	409	
7	0	0	0	0	521	409	
8	0	0	0	0	520	409	
9	0	0	0	0	519	409	
10	0	0	0	0	519	409	
11	0	0	0	0	519	409	
12	0	0	0	0	519	409	
13	0	0	0	0	519	409	
14	0	0	0	0	519	409	
15	0	0	0	0	520	410	
0	0	0	0	0	519	410	
1	0	0	0	0	519	409	
2	0	0	0	0	519	409	
3	0	0	0	0	519	409	
4	0	0	0	0	519	409	
5	0	0	0	0	519	410	
6	0	0	0	0	519	409	
7	0	0	0	0	519	409	
8	0	0	0	0	519	410	
9	0	0	0	0	518	409	
10	0	0	0	0	518	410	
11	0	0	0	0	518	410	
12	0	0	0	0	517	410	
13	0	0	0	0	517	409	
14	0	0	0	0	517	409	
15	0	0	0	0	518	409	
0	0	0	0	0	516	409	
1	0	0	0	0	515	409	
2	0	0	0	0	516	409	
3	0	0	0	0	515	410	
4	0	0	0	0	515	410	
5	0	0	0	0	516	409	
6	0	0	0	0	516	410	
7	0	0	0	0	515	410	
8	0	0	0	0	515	410	
9	0	0	0	0	515	411	
10	0	0	0	0	514	410	
11	0	0	0	0	513	411	
12	0	0	0	0	512	410	
13	0	0	0	0	512	411	
14	0	0	0	0	510	411	
15	0	0	0	0	510	411	
0	0	0	0	0	509	411	
1	0	0	0	0	508	411	
2	0	0	0	0	507	411	
3	0	0	0	0	506	411	
4	0	0	0	0	505	411	
5	0	0	0	0	505	412	
6	0	0	0	0	504	412	
7	0	0	0	0	503	412	
8	0	0	0	0	502	412	
9	0	0	0	0	502	412	
10	0	0	0	0	501	412	
11	0	0	0	0	501	412	
12	0	0	0	0	500	412	
13	0	0	0	0	499	413	
14	0	0	0	0	499	412	
15	0	0	0	0	499	412	
0	0	0	0	0	498	413	
1	0	0	0	0	497	413	
2	0	0	0	0	497	412	
3	0	0	0	0	496	412	
4	0	0	0	0	496	413	
5	0	0	0	0	496	413	
6	0	0	0	0	496	413	
7	0	0	0	0	496	414	
8	0	0	0	0	496	413	
9	0	0	0	0	496	413	
10	0	0	0	0	495	413	
11	0	0	0	0	495	413	
12	0	0	0	0	494	413	
13	0	0	0	0	495	412	
14	0	0	0	0	496	413	
15	0	0	0	0	498	414	
0	0	0	0	0	498	413	
1	0	0	0	0	498	413	
2	0	0	0	0	497	413	
3	0	0	0	0	497	413	
4	0	0	0	0	497	413	
5	0	0	0	0	497	414	
6	0	0	0	0	497	413	
7	0	0	0	0	498	413	
8	0	0	0	0	499	413	
9	0	0	0	0	499	414	
10	0	0	0	0	499	413	
11	0	0	0	0	499	414	
12	0	0	0	0	498	413	
13	0	0	0	0	498	412	
14	0	0	0	0	498	414	
15	0	0	0	0	498	414	
0	0	0	0	0	498	413	
1	0	0	0	0	499	414	
2	0	0	0	0	500	414	
3	0	0	0	0	501	414	
4	0	0	0	0	502	414	
5	0	0	0	0	502	413	
6	0	0	0	0	503	414	
7	0	0	0	0	502	414	
8	0	0	0	0	503	413	
9	0	0	0	0	503	414	
10	0	0	0	0	503	413	
11	0	0	0	0	504	413	
12	0	0	0	0	504	413	
13	0	0	0	0	503	413	
14	0	0	0	0	502	413	
15	0	0	0	0	502	413	
0	0	0	0	0	502	413	
1	0	0	0	0	502	413	
2	0	0	0	0	501	413	
3	0	0	0	0	501	413	
4	0	0	0	0	502	413	
5	0	0	0	0	502	412	
6	0	0	0	0	502	412	
7	0	0	0	0	502	413	
8	0	0	0	0	501	412	
9	0	0	0	0	501	413	
10	0	0	0	0	502	412	
11	0	0	0	0	502	412	
12	0	0	0	0	502	412	
13	0	0	0	0	502	411	
14	0	0	0	0	503	411	
15	0	0	0	0	503	411	
0	0	0	0	0	503	411	
1	0	0	0	0	503	412	
2	0	0	0	0	504	411	
3	0	0	0	0	504	411	
4	0	0	0	0	504	411	
5	0	0	0	0	504	410	
6	0	0	0	0	505	411	
7	0	0	0	0	505	411	
8	0	0	0	0	505	410	
9	0	0	0	0	505	411	
10	0	0	0	0	506	410	
11	0	0	0	0	507	410	
12	0	0	0	0	507	410	
13	0	0	0	0	508	409	
14	0	0	0	0	508	409	
15	0	0	0	0	507	409	
0	0	0	0	0	507	409	
1	0	0	0	0	507	410	
2	0	0	0	0	507	409	
3	0	0	0	0	506	409	
4	0	0	0	0	506	409	
5	0	0	0	0	506	409	
6	0	0	0	0	506	409	
7	0	0	0	0	506	409	
8	0	0	0	0	507	409	
9	0	0	0	0	507	409	
10	0	0	0	0	508	409	
11	0	0	0	0	508	408	
12	0	0	0	0	509	409	
13	0	0	0	0	510	408	
14	0	0	0	0	509	408	
15	0	0	0	0	509	408	
0	0	0	0	0	509	408	
1	0	0	0	0	508	409	
2	0	0	0	0	508	408	
3	0	0	0	0	507	409	
4	0	0	0	0	507	408	
5	0	0	0	0	507	408	
6	0	0	0	0	507	408	
7	0	0	0	0	507	408	
8	0	0	0	0	506	407	
9	0	0	0	0	505	408	
10	0	0	0	0	505	408	
11	0	0	0	0	506	408	
12	0	0	0	0	506	408	
13	0	0	0	0	506	407	
14	0	0	0	0	506	407	
15	0	0	0	0	506	407	
0	0	0	0	0	506	407	
1	0	0	0	0	506	408	
2	0	0	0	0	506	408	
3	0	0	0	0	507	408	
4	0	0	0	0	508	407	
5	0	0	0	0	508	406	
6	0	0	0	0	508	407	
7	0	0	0	0	508	407	
8	0	0	0	0	507	407	
9	0	0	0	0	506	407	
10	0	0	0	0	506	407	
11	0	0	0	0	507	406	
12	0	0	0	0	508	406	
13	0	0	0	0	508	406	
14	0	0	0	0	508	406	
15	0	0	0	0	508	406	
0	0	0	0	0	508	407	
1	0	0	0	0	507	406	
2	0	0	0	0	507	405	
3	0	0	0	0	506	405	
4	0	0	0	0	507	406	
5	0	0	0	0	508	405	
6	0	0	0	0	508	405	
7	0	0	0	0	509	406	
8	0	0	0	0	509	405	
9	0	0	0	0	508	406	
10	0	0	0	0	508	404	
11	0	0	0	0	509	406	
12	0	0	0	0	509	405	
13	0	0	0	0	510	405	
14	0	0	0	0	510	405	
15	0	0	0	0	510	405	
0	0	0	0	0	509	405	
1	0	0	0	0	509	406	
2	0	0	0	0	508	405	
3	0	0	0	0	508	406	
4	0	0	0	0	508	406	
5	0	0	0	0	508	405	
6	0	0	0	0	507	405	
7	0	0	0	0	508	406	
8	0	0	0	0	508	406	
9	0	0	0	0	508	406	
10	0	0	0	0	509	406	
11	0	0	0	0	509	406	
12	0	0	0	0	509	406	
13	0	0	0	0	509	405	
14	0	0	0	0	509	406	
15	0	0	0	0	510	406	
0	0	0	0	0	510	406	
1	0	0	0	0	510	407	
2	0	0	0	0	510	406	
3	0	0	0	0	510	406	
4	0	0	0	0	510	407	
5	0	0	0	0	511	405	
6	0	0	0	0	511	406	
7	0	0	0	0	511	406	
8	0	0	0	0	511	406	
9	0	0	0	0	512	407	
10	0	0	0	0	512	407	
11	0	0	0	0	512	407	
12	0	0	0	0	511	407	
13	0	0	0	0	511	406	
14	0	0	0	0	511	407	
15	0	0	0	0	512	407	
0	0	0	0	0	512	407	
1	0	0	0	0	512	408	
2	0	0	0	0	512	407	
3	0	0	0	0	512	407	
4	0	0	0	0	512	406	
5	0	0	0	0	511	407	
6	0	0	0	0	510	407	
7	0	0	0	0	510	408	
8	0	0	0	0	511	408	
9	0	0	0	0	511	409	
10	0	0	0	0	510	408	
11	0	0	0	0	510	408	
12	0	0	0	0	510	408	
13	0	0	0	0	511	408	
14	0	0	0	0	511	409	
15	0	0	0	0	511	409	
0	0	0	0	0	511	409	
1	0	0	0	0	511	409	
2	0	0	0	0	511	408	
3	0	0	0	0	511	409	
4	0	0	0	0	511	408	
5	0	0	0	0	511	408	
6	0	0	0	0	511	408	
7	0	0	0	0	512	409	
8	0	0	0	0	512	409	
9	0	0	0	0	512	409	
10	0	0	0	0	512	408	
11	0	0	0	0	513	409	
12	0	0	0	0	512	408	
13	0	0	0	0	512	408	
14	0	0	0	0	511	408	
15	0	0	0	0	511	409	
0	0	0	0	0	511	408	
1	0	0	0	0	511	409	
2	0	0	0	0	511	408	
3	0	0	0	0	511	408	
4	0	0	0	0	511	408	
5	0	0	0	0	511	408	
6	0	0	0	0	510	408	
7	0	0	0	0	509	407	
8	0	0	0	0	510	408	
9	0	0	0	0	510	409	
10	0	0	0	0	511	408	
11	0	0	0	0	511	408	
12	0	0	0	0	511	408	
13	0	0	0	0	511	408	
14	0	0	0	0	511	408	
15	0	0	0	0	511	408	
0	0	0	0	0	511	408	
1	0	0	0	0	511	409	
2	0	0	0	0	511	408	
3	0	0	0	0	512	408	
4	0	0	0	0	512	408	
5	0	0	0	0	512	408	
6	0	0	0	0	512	408	
7	0	0	0	0	511	408	
8	0	0	0	0	511	408	
9	0	0	0	0	511	409	
10	0	0	0	0	512	408	
11	0	0	0	0	513	408	
12	0	0	0	0	513	408	
13	0	0	0	0	512	409	
14	0	0	0	0	512	409	
15	0	0	0	0	512	409	
0	0	0	0	0	511	409	
1	0	0	0	0	511	409	
2	0	0	0	0	511	409	
3	0	0	0	0	511	409	
4	0	0	0	0	511	408	
5	0	0	0	0	511	408	
6	0	0	0	0	511	409	
7	0	0	0	0	511	409	
8	0	0	0	0	512	408	
9	0	0	0	0	511	409	
10	0	0	0	0	511	409	
11	0	0	0	0	510	409	
12	0	0	0	0	511	409	
13	0	0	0	0	512	409	
14	0	0	0	0	512	408	
15	0	0	0	0	512	409	
0	0	0	0	0	512	409	
1	0	0	0	0	512	410	
2	0	0	0	0	512	409	
3	0	0	0	0	512	409	
4	0	0	0	0	512	409	
5	0	0	0	0	512	409	
6	0	0	0	0	512	410	
7	0	0	0	0	512	409	
8	0	0	0	0	512	410	
9	0	0	0	0	512	411	
10	0	0	0	0	511	410	
11	0	0	0	0	512	410	
12	0	0	0	0	512	411	
13	0	0	0	0	512	410	
14	0	0	0	0	512	411	
15	0	0	0	0	512	411	
0	0	0	0	0	512	411	
1	0	0	0	0	513	412	
2	0	0	0	0	514	411	
3	0	0	0	0	514	411	
4	0	0	0	0	514	411	
5	0	0	0	0	515	410	
6	0	0	0	0	514	410	
7	0	0	0	0	514	411	
8	0	0	0	0	515	411	
9	0	0	0	0	515	412	
10	0	0	0	0	515	411	
11	0	0	0	0	515	412	
12	0	0	0	0	516	411	
13	0	0	0	0	515	411	
14	0	0	0	0	515	411	
15	0	0	0	0	514	412	
0	0	0	0	0	514	411	
1	0	0	0	0	514	412	
2	0	0	0	0	514	411	
3	0	0	0	0	515	412	
4	0	0	0	0	515	412	
5	0	0	0	0	514	411	
6	0	0	0	0	513	411	
7	0	0	0	0	512	412	
8	0	0	0	0	512	412	
9	0	0	0	0	512	412	
10	0	0	0	0	511	411	
11	0	0	0	0	512	411	
12	0	0	0	0	512	411	
13	0	0	0	0	513	411	
14	0	0	0	0	514	412	
15	0	0	0	0	514	411	
0	0	0	0	0	513	412	
1	0	0	0	0	513	412	
2	0	0	0	0	512	412	
3	0	0	0	0	513	411	
4	0	0	0	0	513	412	
5	0	0	0	0	513	411	
6	0	0	0	0	513	411	
7	0	0	0	0	514	411	
8	0	0	0	0	515	411	
9	0	0	0	0	515	412	
10	0	0	0	0	515	411	
11	0	0	0	0	515	410	
12	0	0	0	0	515	410	
13	0	0	0	0	515	409	
14	0	0	0	0	515	409	
15	0	0	0	0	515	409	
0	0	0	0	0	514	409	
1	0	0	0	0	513	410	
2	0	0	0	0	514	409	
3	0	0	0	0	514	409	
4	0	0	0	0	514	409	
5	0	0	0	0	513	409	
6	0	0	0	0	513	409	
7	0	0	0	0	512	409	
8	0	0	0	0	512	409	
9	0	0	0	0	512	410	
10	0	0	0	0	512	409	
11	0	0	0	0	512	408	
12	0	0	0	0	513	409	
13	0	0	0	0	514	408	
14	0	0	0	0	514	408	
15	0	0	0	0	514	409	
0	0	0	0	0	515	408	
1	0	0	0	0	515	409	
2	0	0	0	0	515	408	
3	0	0	0	0	515	409	
4	0	0	0	0	515	408	
5	0	0	0	0	515	408	
6	0	0	0	0	515	408	
7	0	0	0	0	516	409	
8	0	0	0	0	516	409	
9	0	0	0	0	516	409	
10	0	0	0	0	517	409	
11	0	0	0	0	516	408	
12	0	0	0	0	516	408	
13	0	0	0	0	516	408	
14	0	0	0	0	516	408	
15	0	0	0	0	517	407	
0	0	0	0	0	516	408	
1	0	0	0	0	516	408	
2	0	0	0	0	516	408	
3	0	0	0	0	516	408	
4	0	0	0	0	516	407	
5	0	0	0	0	516	408	
6	0	0	0	0	515	408	
7	0	0	0	0	515	408	
8	0	0	0	0	515	409	
9	0	0	0	0	515	409	
10	0	0	0	0	514	408	
11	0	0	0	0	513	408	
12	0	0	0	0	513	409	
13	0	0	0	0	513	408	
14	0	0	0	0	513	408	
15	0	0	0	0	512	408	
0	0	0	0	0	511	408	
1	0	0	0	0	511	408	
2	0	0	0	0	511	408	
3	0	0	0	0	511	407	
4	0	0	0	0	511	408	
5	0	0	0	0	512	407	
6	0	0	0	0	513	408	
7	0	0	0	0	513	407	
8	0	0	0	0	514	407	
9	0	0	0	0	514	408	
10	0	0	0	0	514	407	
11	0	0	0	0	514	407	
12	0	0	0	0	514	407	
13	0	0	0	0	513	406	
14	0	0	0	0	512	407	
15	0	0	0	0	512	406	
0	0	0	0	0	512	406	
1	0	0	0	0	512	407	
2	0	0	0	0	512	406	
3	0	0	0	0	511	406	
4	0	0	0	0	510	406	
5	0	0	0	0	510	406	
6	0	0	0	0	510	406	
7	0	0	0	0	510	405	
8	0	0	0	0	510	405	
9	0	0	0	0	511	406	
10	0	0	0	0	511	405	
11	0	0	0	0	512	404	
12	0	0	0	0	513	404	
13	0	0	0	0	513	404	
14	0	0	0	0	513	404	
15	0	0	0	0	513	404	
0	0	0	0	0	514	404	
1	0	0	0	0	514	404	
2	0	0	0	0	514	403	
3	0	0	0	0	514	403	
4	0	0	0	0	514	403	
5	0	0	0	0	515	403	
6	0	0	0	0	515	403	
7	0	0	0	0	514	403	
8	0	0	0	0	513	403	
9	0	0	0	0	512	403	
10	0	0	0	0	512	402	
11	0	0	0	0	512	403	
12	0	0	0	0	513	402	
13	0	0	0	0	513	402	
14	0	0	0	0	513	402	
15	0	0	0	0	513	402	
0	0	0	0	0	514	401	
1	0	0	0	0	514	403	
2	0	0	0	0	513	401	
3	0	0	0	0	512	401	
4	0	0	0	0	512	401	
5	0	0	0	0	511	401	
6	0	0	0	0	510	401	
7	0	0	0	0	509	401	
8	0	0	0	0	508	401	
9	0	0	0	0	508	403	
10	0	0	0	0	505	402	
11	0	0	0	0	502	402	
12	0	0	0	0	499	402	
13	0	0	0	0	496	401	
14	0	0	0	0	492	402	
15	0	0	0	0	489	401	
0	0	0	0	0	486	402	
1	0	0	0	0	483	403	
2	0	0	0	0	481	402	
3	0	0	0	0	480	402	
4	0	0	0	0	480	402	
5	0	0	0	0	481	402	
6	0	0	0	0	482	402	
7	0	0	0	0	484	402	
8	0	0	0	0	487	402	
9	0	0	0	0	492	403	
10	0	0	0	0	499	403	
11	0	0	0	0	508	402	
12	0	0	0	0	518	403	
13	0	0	0	0	528	403	
14	0	0	0	0	538	403	
15	0	0	0	0	548	403	
0	0	0	0	0	559	403	
1	0	0	0	0	568	405	
2	0	0	0	0	579	403	
3	0	0	0	0	591	403	
4	0	0	0	0	602	403	
5	0	0	0	0	612	403	
6	0	0	0	0	623	404	
7	0	0	0	0	632	403	
8	0	0	0	0	639	403	
9	0	0	0	0	645	404	
10	0	0	0	0	651	403	
11	0	0	0	0	655	403	
12	0	0	0	0	658	404	
13	0	0	0	0	660	405	
14	0	0	0	0	659	406	
15	0	0	0	0	659	405	
0	0	0	0	0	656	405	
1	0	0	0	0	652	406	
2	0	0	0	0	644	404	
3	0	0	0	0	635	405	
4	0	0	0	0	625	405	
5	0	0	0	0	615	405	
6	0	0	0	0	604	404	
7	0	0	0	0	593	404	
8	0	0	0	0	583	404	
9	0	0	0	0	572	405	
10	0	0	0	0	562	405	
11	0	0	0	0	552	406	
12	0	0	0	0	543	406	
13	0	0	0	0	535	406	
14	0	0	0	0	527	406	
15	0	0	0	0	521	407	
0	0	0	0	0	515	407	
1	0	0	0	0	510	408	
2	0	0	0	0	505	407	
3	0	0	0	0	500	407	
4	0	0	0	0	497	407	
5	0	0	0	0	494	407	
6	0	0	0	0	492	407	
7	0	0	0	0	490	408	
8	0	0	0	0	488	409	
9	0	0	0	0	487	409	
10	0	0	0	0	485	408	
11	0	0	0	0	483	409	
12	0	0	0	0	483	409	
13	0	0	0	0	482	409	
14	0	0	0	0	481	409	
15	0	0	0	0	481	409	
0	0	0	0	0	481	408	
1	0	0	0	0	481	409	
2	0	0	0	0	481	409	
3	0	0	0	0	481	408	
4	0	0	0	0	481	409	
5	0	0	0	0	481	408	
6	0	0	0	0	480	409	
7	0	0	0	0	480	408	
8	0	0	0	0	480	409	
9	0	0	0	0	479	409	
10	0	0	0	0	479	408	
11	0	0	0	0	479	409	
12	0	0	0	0	479	409	
13	0	0	0	0	479	409	
14	0	0	0	0	479	409	
15	0	0	0	0	479	410	
0	0	0	0	0	479	410	
1	0	0	0	0	479	409	
2	0	0	0	0	480	408	
3	0	0	0	0	480	409	
4	0	0	0	0	481	408	
5	0	0	0	0	481	408	
6	0	0	0	0	482	409	
7	0	0	0	0	482	409	
8	0	0	0	0	482	409	
9	0	0	0	0	483	410	
10	0	0	0	0	482	409	
11	0	0	0	0	483	409	
12	0	0	0	0	483	409	
13	0	0	0	0	483	409	
14	0	0	0	0	483	409	
15	0	0	0	0	483	409	
0	0	0	0	0	485	409	
1	0	0	0	0	485	410	
2	0	0	0	0	485	409	
3	0	0	0	0	486	410	
4	0	0	0	0	485	411	
5	0	0	0	0	485	410	
6	0	0	0	0	484	409	
7	0	0	0	0	485	410	
8	0	0	0	0	486	410	
9	0	0	0	0	486	412	
10	0	0	0	0	487	412	
11	0	0	0	0	487	411	
12	0	0	0	0	487	410	
13	0	0	0	0	487	410	
14	0	0	0	0	488	411	
15	0	0	0	0	488	411	
0	0	0	0	0	488	411	
1	0	0	0	0	489	412	
2	0	0	0	0	489	410	
3	0	0	0	0	489	410	
4	0	0	0	0	490	410	
5	0	0	0	0	490	410	
6	0	0	0	0	491	411	
7	0	0	0	0	491	411	
8	0	0	0	0	491	411	
9	0	0	0	0	492	412	
10	0	0	0	0	492	411	
11	0	0	0	0	493	411	
12	0	0	0	0	494	411	
13	0	0	0	0	495	410	
14	0	0	0	0	495	410	
15	0	0	0	0	495	410	
0	0	0	0	0	495	410	
1	0	0	0	0	496	411	
2	0	0	0	0	496	411	
3	0	0	0	0	496	411	
4	0	0	0	0	496	410	
5	0	0	0	0	495	411	
6	0	0	0	0	494	411	
7	0	0	0	0	494	411	
8	0	0	0	0	493	411	
9	0	0	0	0	494	412	
10	0	0	0	0	494	411	
11	0	0	0	0	494	412	
12	0	0	0	0	494	411	
13	0	0	0	0	495	411	
14	0	0	0	0	495	411	
15	0	0	0	0	495	411	
0	0	0	0	0	496	412	
1	0	0	0	0	496	412	
2	0	0	0	0	496	412	
3	0	0	0	0	497	412	
4	0	0	0	0	497	412	
5	0	0	0	0	497	411	
6	0	0	0	0	497	412	
7	0	0	0	0	497	412	
8	0	0	0	0	497	412	
9	0	0	0	0	498	412	
10	0	0	0	0	498	412	
11	0	0	0	0	498	412	
12	0	0	0	0	499	412	
13	0	0	0	0	499	412	
14	0	0	0	0	499	412	
15	0	0	0	0	499	411	
0	0	0	0	0	499	412	
1	0	0	0	0	499	413	
2	0	0	0	0	499	412	
3	0	0	0	0	499	411	
4	0	0	0	0	500	412	
5	0	0	0	0	500	412	
6	0	0	0	0	500	412	
7	0	0	0	0	500	412	
8	0	0	0	0	500	412	
9	0	0	0	0	500	413	
10	0	0	0	0	501	412	
11	0	0	0	0	500	412	
12	0	0	0	0	501	412	
13	0	0	0	0	501	412	
14	0	0	0	0	501	412	
15	0	0	0	0	501	413	
0	0	0	0	0	501	413	
1	0	0	0	0	502	412	
2	0	0	0	0	502	412	
3	0	0	0	0	502	412	
4	0	0	0	0	503	412	
5	0	0	0	0	503	412	
6	0	0	0	0	504	412	
7	0	0	0	0	504	412	
8	0	0	0	0	505	412	
9	0	0	0	0	505	413	
10	0	0	0	0	506	413	
11	0	0	0	0	507	413	
12	0	0	0	0	508	412	
13	0	0	0	0	508	412	
14	0	0	0	0	508	413	
15	0	0	0	0	508	413	
0	0	0	0	0	508	412	
1	0	0	0	0	508	413	
2	0	0	0	0	507	412	
3	0	0	0	0	506	412	
4	0	0	0	0	506	412	
5	0	0	0	0	505	411	
6	0	0	0	0	505	411	
7	0	0	0	0	506	411	
8	0	0	0	0	507	411	
9	0	0	0	0	507	411	
10	0	0	0	0	508	410	
11	0	0	0	0	508	410	
12	0	0	0	0	509	409	
13	0	0	0	0	509	409	
14	0	0	0	0	510	409	
15	0	0	0	0	511	409	
0	0	0	0	0	511	408	
1	0	0	0	0	511	410	
2	0	0	0	0	511	409	
3	0	0	0	0	511	409	
4	0	0	0	0	511	409	
5	0	0	0	0	510	409	
6	0	0	0	0	510	408	
7	0	0	0	0	510	408	
8	0	0	0	0	510	408	
9	0	0	0	0	511	408	
10	0	0	0	0	511	408	
11	0	0	0	0	510	407	
12	0	0	0	0	511	408	
13	0	0	0	0	511	407	
14	0	0	0	0	511	408	
15	0	0	0	0	511	407	
0	0	0	0	0	511	407	
1	0	0	0	0	511	408	
2	0	0	0	0	511	406	
3	0	0	0	0	512	407	
4	0	0	0	0	512	407	
5	0	0	0	0	512	406	
6	0	0	0	0	513	407	
7	0	0	0	0	514	407	
8	0	0	0	0	515	407	
9	0	0	0	0	515	407	
10	0	0	0	0	515	407	
11	0	0	0	0	515	407	
12	0	0	0	0	515	406	
13	0	0	0	0	515	406	
14	0	0	0	0	515	406	
15	0	0	0	0	516	406	
0	0	0	0	0	516	406	
1	0	0	0	0	517	407	
2	0	0	0	0	517	407	
3	0	0	0	0	517	407	
4	0	0	0	0	518	407	
5	0	0	0	0	519	407	
6	0	0	0	0	519	407	
7	0	0	0	0	520	407	
8	0	0	0	0	520	407	
9	0	0	0	0	521	407	
10	0	0	0	0	521	407	
11	0	0	0	0	521	407	
12	0	0	0	0	521	407	
13	0	0	0	0	521	407	
14	0	0	0	0	522	408	
15	0	0	0	0	522	408	
0	0	0	0	0	522	408	
1	0	0	0	0	522	410	
2	0	0	0	0	523	409	
3	0	0	0	0	523	410	
4	0	0	0	0	523	410	
5	0	0	0	0	523	410	
6	0	0	0	0	524	411	
7	0	0	0	0	524	411	
8	0	0	0	0	525	411	
9	0	0	0	0	526	412	
10	0	0	0	0	526	412	
11	0	0	0	0	526	412	
12	0	0	0	0	526	412	
13	0	0	0	0	525	411	
14	0	0	0	0	525	411	
15	0	0	0	0	526	412	
0	0	0	0	0	526	412	
1	0	0	0	0	526	414	
2	0	0	0	0	525	414	
3	0	0	0	0	525	414	
4	0	0	0	0	524	414	
5	0	0	0	0	524	413	
6	0	0	0	0	523	412	
7	0	0	0	0	522	412	
8	0	0	0	0	521	411	
9	0	0	0	0	520	410	
10	0	0	0	0	520	410	
11	0	0	0	0	519	409	
12	0	0	0	0	520	409	
13	0	0	0	0	519	408	
14	0	0	0	0	518	409	
15	0	0	0	0	518	409	
0	0	0	0	0	517	408	
1	0	0	0	0	516	409	
2	0	0	0	0	516	408	
3	0	0	0	0	515	407	
4	0	0	0	0	514	407	
5	0	0	0	0	514	407	
6	0	0	0	0	514	407	
7	0	0	0	0	513	406	
8	0	0	0	0	512	406	
9	0	0	0	0	511	407	
10	0	0	0	0	511	404	
11	0	0	0	0	511	404	
12	0	0	0	0	510	404	
13	0	0	0	0	510	403	
14	0	0	0	0	509	402	
15	0	0	0	0	508	402	
0	0	0	0	0	507	402	
1	0	0	0	0	506	403	
2	0	0	0	0	505	402	
3	0	0	0	0	505	402	
4	0	0	0	0	504	402	
5	0	0	0	0	504	401	
6	0	0	0	0	503	403	
7	0	0	0	0	502	403	
8	0	0	0	0	502	403	
9	0	0	0	0	501	403	
10	0	0	0	0	501	402	
11	0	0	0	0	501	403	
12	0	0	0	0	501	403	
13	0	0	0	0	501	403	
14	0	0	0	0	500	403	
15	0	0	0	0	500	403	
0	0	0	0	0	500	403	
1	0	0	0	0	501	403	
2	0	0	0	0	501	403	
3	0	0	0	0	501	402	
4	0	0	0	0	500	402	
5	0	0	0	0	500	402	
6	0	0	0	0	499	402	
7	0	0	0	0	500	401	
8	0	0	0	0	500	401	
9	0	0	0	0	500	401	
10	0	0	0	0	500	401	
11	0	0	0	0	501	401	
12	0	0	0	0	501	400	
13	0	0	0	0	501	400	
14	0	0	0	0	500	401	
15	0	0	0	0	499	401	
0	0	0	0	0	499	400	
1	0	0	0	0	498	401	
2	0	0	0	0	499	400	
3	0	0	0	0	499	400	
4	0	0	0	0	500	400	
5	0	0	0	0	499	400	
6	0	0	0	0	500	400	
7	0	0	0	0	499	399	
8	0	0	0	0	500	400	
9	0	0	0	0	501	401	
10	0	0	0	0	501	400	
11	0	0	0	0	502	400	
12	0	0	0	0	502	399	
13	0	0	0	0	504	400	
14	0	0	0	0	504	400	
15	0	0	0	0	505	401	
0	0	0	0	0	505	402	
1	0	0	0	0	505	402	
2	0	0	0	0	505	402	
3	0	0	0	0	504	402	
4	0	0	0	0	504	402	
5	0	0	0	0	503	402	
6	0	0	0	0	503	403	
7	0	0	0	0	503	403	
8	0	0	0	0	504	403	
9	0	0	0	0	504	404	
10	0	0	0	0	503	403	
11	0	0	0	0	503	403	
12	0	0	0	0	503	404	
13	0	0	0	0	503	403	
14	0	0	0	0	502	404	
15	0	0	0	0	502	404	
0	0	0	0	0	502	404	
1	0	0	0	0	502	406	
2	0	0	0	0	502	405	
3	0	0	0	0	503	406	
4	0	0	0	0	504	406	
5	0	0	0	0	504	406	
6	0	0	0	0	504	406	
7	0	0	0	0	505	407	
8	0	0	0	0	505	407	
9	0	0	0	0	506	408	
10	0	0	0	0	507	408	
11	0	0	0	0	507	408	
12	0	0	0	0	508	408	
13	0	0	0	0	508	408	
14	0	0	0	0	508	409	
15	0	0	0	0	508	409	
0	0	0	0	0	509	408	
1	0	0	0	0	509	409	
2	0	0	0	0	509	409	
3	0	0	0	0	509	409	
4	0	0	0	0	509	410	
5	0	0	0	0	508	409	
6	0	0	0	0	509	409	
7	0	0	0	0	508	409	
8	0	0	0	0	508	410	
9	0	0	0	0	509	411	
10	0	0	0	0	509	411	
11	0	0	0	0	510	411	
12	0	0	0	0	510	411	
13	0	0	0	0	511	411	
14	0	0	0	0	511	411	
15	0	0	0	0	511	412	
0	0	0	0	0	511	412	
1	0	0	0	0	510	413	
2	0	0	0	0	510	413	
3	0	0	0	0	511	413	
4	0	0	0	0	511	413	
5	0	0	0	0	511	413	
6	0	0	0	0	511	413	
7	0	0	0	0	511	414	
8	0	0	0	0	511	414	
9	0	0	0	0	511	415	
10	0	0	0	0	511	415	
11	0	0	0	0	511	415	
12	0	0	0	0	511	415	
13	0	0	0	0	510	415	
14	0	0	0	0	510	415	
15	0	0	0	0	510	415	
0	0	0	0	0	510	415	
1	0	0	0	0	510	415	
2	0	0	0	0	511	415	
3	0	0	0	0	511	415	
4	0	0	0	0	511	415	
5	0	0	0	0	512	414	
6	0	0	0	0	512	415	
7	0	0	0	0	512	415	
8	0	0	0	0	512	415	
9	0	0	0	0	512	415	
10	0	0	0	0	512	415	
11	0	0	0	0	511	414	
12	0	0	0	0	511	414	
13	0	0	0	0	512	414	
14	0	0	0	0	512	414	
15	0	0	0	0	512	414	
0	0	0	0	0	512	414	
1	0	0	0	0	512	414	
2	0	0	0	0	512	414	
3	0	0	0	0	512	413	
4	0	0	0	0	511	414	
5	0	0	0	0	511	413	
6	0	0	0	0	511	413	
7	0	0	0	0	511	413	
8	0	0	0	0	511	413	
9	0	0	0	0	511	413	
10	0	0	0	0	511	412	
11	0	0	0	0	512	412	
12	0	0	0	0	512	412	
13	0	0	0	0	512	411	
14	0	0	0	0	512	412	
15	0	0	0	0	512	412	
0	0	0	0	0	512	412	
1	0	0	0	0	512	412	
2	0	0	0	0	512	412	
3	0	0	0	0	512	412	
4	0	0	0	0	512	412	
5	0	0	0	0	512	411	
6	0	0	0	0	512	412	
7	0	0	0	0	512	412	
8	0	0	0	0	512	412	
9	0	0	0	0	512	412	
10	0	0	0	0	512	411	
11	0	0	0	0	512	411	
12	0	0	0	0	512	412	
13	0	0	0	0	512	411	
14	0	0	0	0	512	411	
15	0	0	0	0	512	412	
0	0	0	0	0	512	412	
1	0	0	0	0	513	412	
2	0	0	0	0	513	412	
3	0	0	0	0	514	412	
4	0	0	0	0	513	412	
5	0	0	0	0	515	412	
6	0	0	0	0	514	413	
7	0	0	0	0	514	412	
8	0	0	0	0	514	411	
9	0	0	0	0	513	412	
10	0	0	0	0	512	412	
11	0	0	0	0	512	412	
12	0	0	0	0	512	411	
13	0	0	0	0	512	411	
14	0	0	0	0	512	412	
15	0	0	0	0	512	412	
0	0	0	0	0	512	412	
1	0	0	0	0	512	412	
2	0	0	0	0	512	411	
3	0	0	0	0	512	411	
4	0	0	0	0	513	410	
5	0	0	0	0	513	411	
6	0	0	0	0	512	411	
7	0	0	0	0	512	411	
8	0	0	0	0	512	411	
9	0	0	0	0	512	412	
10	0	0	0	0	513	412	
11	0	0	0	0	514	412	
12	0	0	0	0	514	412	
13	0	0	0	0	515	412	
14	0	0	0	0	514	412	
15	0	0	0	0	514	412	
0	0	0	0	0	513	412	
1	0	0	0	0	514	413	
2	0	0	0	0	513	412	
3	0	0	0	0	514	413	
4	0	0	0	0	514	413	
5	0	0	0	0	515	413	
6	0	0	0	0	515	413	
7	0	0	0	0	516	414	
8	0	0	0	0	517	414	
9	0	0	0	0	516	414	
10	0	0	0	0	516	414	
11	0	0	0	0	516	414	
12	0	0	0	0	516	414	
13	0	0	0	0	515	413	
14	0	0	0	0	515	414	
15	0	0	0	0	516	414	
0	0	0	0	0	516	414	
1	0	0	0	0	515	414	
2	0	0	0	0	515	414	
3	0	0	0	0	516	414	
4	0	0	0	0	515	414	
5	0	0	0	0	515	414	
6	0	0	0	0	514	415	
7	0	0	0	0	514	414	
8	0	0	0	0	514	414	
9	0	0	0	0	513	415	
10	0	0	0	0	514	414	
11	0	0	0	0	514	414	
12	0	0	0	0	513	413	
13	0	0	0	0	513	413	
14	0	0	0	0	513	413	
15	0	0	0	0	513	413	
0	0	0	0	0	513	413	
1	0	0	0	0	512	413	
2	0	0	0	0	512	412	
3	0	0	0	0	512	413	
4	0	0	0	0	511	412	
5	0	0	0	0	512	412	
6	0	0	0	0	511	412	
7	0	0	0	0	511	412	
8	0	0	0	0	511	411	
9	0	0	0	0	512	412	
10	0	0	0	0	512	412	
11	0	0	0	0	512	412	
12	0	0	0	0	512	412	
13	0	0	0	0	512	412	
14	0	0	0	0	512	411	
15	0	0	0	0	513	412	
0	0	0	0	0	513	411	
1	0	0	0	0	513	412	
2	0	0	0	0	513	411	
3	0	0	0	0	514	411	
4	0	0	0	0	514	410	
5	0	0	0	0	515	409	
6	0	0	0	0	515	409	
7	0	0	0	0	515	408	
8	0	0	0	0	515	409	
9	0	0	0	0	515	409	
10	0	0	0	0	515	408	
11	0	0	0	0	515	408	
12	0	0	0	0	515	408	
13	0	0	0	0	515	408	
14	0	0	0	0	515	408	
15	0	0	0	0	515	407	
0	0	0	0	0	515	408	
1	0	0	0	0	515	408	
2	0	0	0	0	515	406	
3	0	0	0	0	515	406	
4	0	0	0	0	515	406	
5	0	0	0	0	515	406	
6	0	0	0	0	515	406	
7	0	0	0	0	515	406	
8	0	0	0	0	514	406	
9	0	0	0	0	514	406	
10	0	0	0	0	514	406	
11	0	0	0	0	513	405	
12	0	0	0	0	514	404	
13	0	0	0	0	514	404	
14	0	0	0	0	514	404	
15	0	0	0	0	513	404	
0	0	0	0	0	513	404	
1	0	0	0	0	513	405	
2	0	0	0	0	515	404	
3	0	0	0	0	516	404	
4	0	0	0	0	515	403	
5	0	0	0	0	515	403	
6	0	0	0	0	515	403	
7	0	0	0	0	515	404	
8	0	0	0	0	514	403	
9	0	0	0	0	514	404	
10	0	0	0	0	514	403	
11	0	0	0	0	514	403	
12	0	0	0	0	514	403	
13	0	0	0	0	513	403	
14	0	0	0	0	513	403	
15	0	0	0	0	514	403	
0	0	0	0	0	515	403	
1	0	0	0	0	515	403	
2	0	0	0	0	516	403	
3	0	0	0	0	516	403	
4	0	0	0	0	516	403	
5	0	0	0	0	516	402	
6	0	0	0	0	516	402	
7	0	0	0	0	516	402	
8	0	0	0	0	516	401	
9	0	0	0	0	515	402	
10	0	0	0	0	515	401	
11	0	0	0	0	515	402	
12	0	0	0	0	516	401	
13	0	0	0	0	515	401	
14	0	0	0	0	515	401	
15	0	0	0	0	515	402	
0	0	0	0	0	515	401	
1	0	0	0	0	515	403	
2	0	0	0	0	515	402	
3	0	0	0	0	515	401	
4	0	0	0	0	515	402	
5	0	0	0	0	515	401	
6	0	0	0	0	515	402	
7	0	0	0	0	514	403	
8	0	0	0	0	514	402	
9	0	0	0	0	514	404	
10	0	0	0	0	514	403	
11	0	0	0	0	515	403	
12	0	0	0	0	515	403	
13	0	0	0	0	515	402	
14	0	0	0	0	515	403	
15	0	0	0	0	515	403	
0	0	0	0	0	516	403	
1	0	0	0	0	516	403	
2	0	0	0	0	517	403	
3	0	0	0	0	517	403	
4	0	0	0	0	516	404	
5	0	0	0	0	516	403	
6	0	0	0	0	515	403	
7	0	0	0	0	516	403	
8	0	0	0	0	515	403	
9	0	0	0	0	516	403	
10	0	0	0	0	516	403	
11	0	0	0	0	515	403	
12	0	0	0	0	516	404	
13	0	0	0	0	516	404	
14	0	0	0	0	516	403	
15	0	0	0	0	516	403	
0	0	0	0	0	517	404	
1	0	0	0	0	516	405	
2	0	0	0	0	517	404	
3	0	0	0	0	518	404	
4	0	0	0	0	518	404	
5	0	0	0	0	518	403	
6	0	0	0	0	517	404	
7	0	0	0	0	516	404	
8	0	0	0	0	515	404	
9	0	0	0	0	515	405	
10	0	0	0	0	515	404	
11	0	0	0	0	515	404	
12	0	0	0	0	514	404	
13	0	0	0	0	514	404	
14	0	0	0	0	514	404	
15	0	0	0	0	514	404	
0	0	0	0	0	513	404	
1	0	0	0	0	513	405	
2	0	0	0	0	513	405	
3	0	0	0	0	514	405	
4	0	0	0	0	513	405	
5	0	0	0	0	513	405	
6	0	0	0	0	513	404	
7	0	0	0	0	512	404	
8	0	0	0	0	512	404	
9	0	0	0	0	512	405	
10	0	0	0	0	512	404	
11	0	0	0	0	512	404	
12	0	0	0	0	512	404	
13	0	0	0	0	512	404	
14	0	0	0	0	513	405	
15	0	0	0	0	513	405	
0	0	0	0	0	513	404	
1	0	0	0	0	513	405	
2	0	0	0	0	514	404	
3	0	0	0	0	513	405	
4	0	0	0	0	512	405	
5	0	0	0	0	512	404	
6	0	0	0	0	513	404	
7	0	0	0	0	513	404	
8	0	0	0	0	514	404	
9	0	0	0	0	513	405	
10	0	0	0	0	514	404	
11	0	0	0	0	513	404	
12	0	0	0	0	513	404	
13	0	0	0	0	513	403	
14	0	0	0	0	513	404	
15	0	0	0	0	513	404	
0	0	0	0	0	513	404	
1	0	0	0	0	513	405	
2	0	0	0	0	513	405	
3	0	0	0	0	513	405	
4	0	0	0	0	513	405	
5	0	0	0	0	513	405	
6	0	0	0	0	513	405	
7	0	0	0	0	513	405	
8	0	0	0	0	512	404	
9	0	0	0	0	512	405	
10	0	0	0	0	511	405	
11	0	0	0	0	511	404	
12	0	0	0	0	511	405	
13	0	0	0	0	510	406	
14	0	0	0	0	510	406	
15	0	0	0	0	510	404	
0	0	0	0	0	511	405	
1	0	0	0	0	512	406	
2	0	0	0	0	512	405	
3	0	0	0	0	513	405	
4	0	0	0	0	512	405	
5	0	0	0	0	512	405	
6	0	0	0	0	512	405	
7	0	0	0	0	512	406	
8	0	0	0	0	511	406	
9	0	0	0	0	510	407	
10	0	0	0	0	509	406	
11	0	0	0	0	508	407	
12	0	0	0	0	506	406	
13	0	0	0	0	504	406	
14	0	0	0	0	501	406	
15	0	0	0	0	498	407	
0	0	0	0	0	494	407	
1	0	0	0	0	490	408	
2	0	0	0	0	486	407	
3	0	0	0	0	483	407	
4	0	0	0	0	481	408	
5	0	0	0	0	479	407	
6	0	0	0	0	478	407	
7	0	0	0	0	478	407	
8	0	0	0	0	479	408	
9	0	0	0	0	480	408	
10	0	0	0	0	483	407	
11	0	0	0	0	487	408	
12	0	0	0	0	492	408	
13	0	0	0	0	500	407	
14	0	0	0	0	509	408	
15	0	0	0	0	519	408	
0	0	0	0	0	528	408	
1	0	0	0	0	538	409	
2	0	0	0	0	548	408	
3	0	0	0	0	560	408	
4	0	0	0	0	571	408	
5	0	0	0	0	583	408	
6	0	0	0	0	595	409	
7	0	0	0	0	605	409	
8	0	0	0	0	615	408	
9	0	0	0	0	625	409	
10	0	0	0	0	633	409	
11	0	0	0	0	641	409	
12	0	0	0	0	646	409	
13	0	0	0	0	650	408	
14	0	0	0	0	653	409	
15	0	0	0	0	654	409	
0	0	0	0	0	655	409	
1	0	0	0	0	653	410	
2	0	0	0	0	651	411	
3	0	0	0	0	646	410	
4	0	0	0	0	639	410	
5	0	0	0	0	630	409	
6	0	0	0	0	620	410	
7	0	0	0	0	611	410	
8	0	0	0	0	600	410	
9	0	0	0	0	590	411	
10	0	0	0	0	579	411	
11	0	0	0	0	568	410	
12	0	0	0	0	559	410	
13	0	0	0	0	548	411	
14	0	0	0	0	540	410	
15	0	0	0	0	531	410	
0	0	0	0	0	525	410	
1	0	0	0	0	518	412	
2	0	0	0	0	513	411	
3	0	0	0	0	508	411	
4	0	0	0	0	504	411	
5	0	0	0	0	500	411	
6	0	0	0	0	496	411	
7	0	0	0	0	494	410	
8	0	0	0	0	492	410	
9	0	0	0	0	490	412	
10	0	0	0	0	489	410	
11	0	0	0	0	488	410	
12	0	0	0	0	487	410	
13	0	0	0	0	487	410	
14	0	0	0	0	486	410	
15	0	0	0	0	486	411	
0	0	0	0	0	485	411	
1	0	0	0	0	484	412	
2	0	0	0	0	483	411	
3	0	0	0	0	482	412	
4	0	0	0	0	481	412	
5	0	0	0	0	480	412	
6	0	0	0	0	480	412	
7	0	0	0	0	481	412	
8	0	0	0	0	481	412	
9	0	0	0	0	481	413	
10	0	0	0	0	482	412	
11	0	0	0	0	482	412	
12	0	0	0	0	482	412	
13	0	0	0	0	483	412	
14	0	0	0	0	484	412	
15	0	0	0	0	485	413	
0	0	0	0	0	485	412	
1	0	0	0	0	484	412	
2	0	0	0	0	483	412	
3	0	0	0	0	483	412	
4	0	0	0	0	483	412	
5	0	0	0	0	483	412	
6	0	0	0	0	482	412	
7	0	0	0	0	481	412	
8	0	0	0	0	481	412	
9	0	0	0	0	481	412	
10	0	0	0	0	481	413	
11	0	0	0	0	481	413	
12	0	0	0	0	481	413	
13	0	0	0	0	481	412	
14	0	0	0	0	482	413	
15	0	0	0	0	483	413	
0	0	0	0	0	483	412	
1	0	0	0	0	483	413	
2	0	0	0	0	484	412	
3	0	0	0	0	484	413	
4	0	0	0	0	484	413	
5	0	0	0	0	485	412	
6	0	0	0	0	486	413	
7	0	0	0	0	486	412	
8	0	0	0	0	487	413	
9	0	0	0	0	488	412	
10	0	0	0	0	489	412	
11	0	0	0	0	490	412	
12	0	0	0	0	490	412	
13	0	0	0	0	491	412	
14	0	0	0	0	491	412	
15	0	0	0	0	492	413	
0	0	0	0	0	491	413	
1	0	0	0	0	492	413	
2	0	0	0	0	493	413	
3	0	0	0	0	493	413	
4	0	0	0	0	493	413	
5	0	0	0	0	493	413	
6	0	0	0	0	494	413	
7	0	0	0	0	494	414	
8	0	0	0	0	494	414	
9	0	0	0	0	494	415	
10	0	0	0	0	494	414	
11	0	0	0	0	495	414	
12	0	0	0	0	495	415	
13	0	0	0	0	495	413	
14	0	0	0	0	494	414	
15	0	0	0	0	493	414	
0	0	0	0	0	492	414	
1	0	0	0	0	494	415	
2	0	0	0	0	495	415	
3	0	0	0	0	494	414	
4	0	0	0	0	495	414	
5	0	0	0	0	495	414	
6	0	0	0	0	496	414	
7	0	0	0	0	496	413	
8	0	0	0	0	496	414	
9	0	0	0	0	496	414	
10	0	0	0	0	496	414	
11	0	0	0	0	497	414	
12	0	0	0	0	498	413	
13	0	0	0	0	498	413	
14	0	0	0	0	498	413	
15	0	0	0	0	498	413	
0	0	0	0	0	498	413	
1	0	0	0	0	498	414	
2	0	0	0	0	497	413	
3	0	0	0	0	497	413	
4	0	0	0	0	499	412	
5	0	0	0	0	499	413	
6	0	0	0	0	500	413	
7	0	0	0	0	500	413	
8	0	0	0	0	501	412	
9	0	0	0	0	500	413	
10	0	0	0	0	500	413	
11	0	0	0	0	500	413	
12	0	0	0	0	500	412	
13	0	0	0	0	499	412	
14	0	0	0	0	500	412	
15	0	0	0	0	500	412	
0	0	0	0	0	500	412	
1	0	0	0	0	500	413	
2	0	0	0	0	500	412	
3	0	0	0	0	501	412	
4	0	0	0	0	501	412	
5	0	0	0	0	502	412	
6	0	0	0	0	502	411	
7	0	0	0	0	501	412	
8	0	0	0	0	502	412	
9	0	0	0	0	502	412	
10	0	0	0	0	502	412	
11	0	0	0	0	502	411	
12	0	0	0	0	503	411	
13	0	0	0	0	503	411	
14	0	0	0	0	503	412	
15	0	0	0	0	504	412	
0	0	0	0	0	505	411	
1	0	0	0	0	505	411	
2	0	0	0	0	505	409	
3	0	0	0	0	505	410	
4	0	0	0	0	506	409	
5	0	0	0	0	506	409	
6	0	0	0	0	507	409	
7	0	0	0	0	508	409	
8	0	0	0	0	509	409	
9	0	0	0	0	509	410	
10	0	0	0	0	509	408	
11	0	0	0	0	510	408	
12	0	0	0	0	510	409	
13	0	0	0	0	509	408	
14	0	0	0	0	509	409	
15	0	0	0	0	509	409	
0	0	0	0	0	509	408	
1	0	0	0	0	509	409	
2	0	0	0	0	509	408	
3	0	0	0	0	509	408	
4	0	0	0	0	509	408	
5	0	0	0	0	509	407	
6	0	0	0	0	509	408	
7	0	0	0	0	509	408	
8	0	0	0	0	510	408	
9	0	0	0	0	509	409	
10	0	0	0	0	509	408	
11	0	0	0	0	509	407	
12	0	0	0	0	510	408	
13	0	0	0	0	510	407	
14	0	0	0	0	510	407	
15	0	0	0	0	510	407	
0	0	0	0	0	510	407	
1	0	0	0	0	510	408	
2	0	0	0	0	511	407	
3	0	0	0	0	511	407	
4	0	0	0	0	512	407	
5	0	0	0	0	512	406	
6	0	0	0	0	512	406	
7	0	0	0	0	512	406	
8	0	0	0	0	512	406	
9	0	0	0	0	512	407	
10	0	0	0	0	511	406	
11	0	0	0	0	512	406	
12	0	0	0	0	513	406	
13	0	0	0	0	513	406	
14	0	0	0	0	513	406	
15	0	0	0	0	513	405	
0	0	0	0	0	514	405	
1	0	0	0	0	515	406	
2	0	0	0	0	514	407	
3	0	0	0	0	514	406	
4	0	0	0	0	514	406	
5	0	0	0	0	514	405	
6	0	0	0	0	514	405	
7	0	0	0	0	514	405	
8	0	0	0	0	514	405	
9	0	0	0	0	515	406	
10	0	0	0	0	514	405	
11	0	0	0	0	515	405	
12	0	0	0	0	516	406	
13	0	0	0	0	517	405	
14	0	0	0	0	518	406	
15	0	0	0	0	519	405	
0	0	0	0	0	519	405	
1	0	0	0	0	520	407	
2	0	0	0	0	520	406	
3	0	0	0	0	521	406	
4	0	0	0	0	522	406	
5	0	0	0	0	523	405	
6	0	0	0	0	523	405	
7	0	0	0	0	522	406	
8	0	0	0	0	523	406	
9	0	0	0	0	522	406	
10	0	0	0	0	522	406	
11	0	0	0	0	522	406	
12	0	0	0	0	522	406	
13	0	0	0	0	523	406	
14	0	0	0	0	523	406	
15	0	0	0	0	523	405	
0	0	0	0	0	523	406	
1	0	0	0	0	523	407	
2	0	0	0	0	523	406	
3	0	0	0	0	524	405	
4	0	0	0	0	523	405	
5	0	0	0	0	524	405	
6	0	0	0	0	525	405	
7	0	0	0	0	525	405	
8	0	0	0	0	526	405	
9	0	0	0	0	527	406	
10	0	0	0	0	527	405	
11	0	0	0	0	527	405	
12	0	0	0	0	527	405	
13	0	0	0	0	527	405	
14	0	0	0	0	528	405	
15	0	0	0	0	527	405	
0	0	0	0	0	527	405	
1	0	0	0	0	526	406	
2	0	0	0	0	526	405	
3	0	0	0	0	526	405	
4	0	0	0	0	525	405	
5	0	0	0	0	524	405	
6	0	0	0	0	523	404	
7	0	0	0	0	522	404	
8	0	0	0	0	522	405	
9	0	0	0	0	520	406	
10	0	0	0	0	520	405	
11	0	0	0	0	520	405	
12	0	0	0	0	520	405	
13	0	0	0	0	520	404	
14	0	0	0	0	519	404	
15	0	0	0	0	519	405	
0	0	0	0	0	518	405	
1	0	0	0	0	518	405	
2	0	0	0	0	518	404	
3	0	0	0	0	517	404	
4	0	0	0	0	515	404	
5	0	0	0	0	514	404	
6	0	0	0	0	513	404	
7	0	0	0	0	512	405	
8	0	0	0	0	511	404	
9	0	0	0	0	511	406	
10	0	0	0	0	510	404	
11	0	0	0	0	509	404	
12	0	0	0	0	509	404	
13	0	0	0	0	508	404	
14	0	0	0	0	507	405	
15	0	0	0	0	506	405	
0	0	0	0	0	506	404	
1	0	0	0	0	506	405	
2	0	0	0	0	505	404	
3	0	0	0	0	504	404	
4	0	0	0	0	504	404	
5	0	0	0	0	503	404	
6	0	0	0	0	502	404	
7	0	0	0	0	501	404	
8	0	0	0	0	500	404	
9	0	0	0	0	499	405	
10	0	0	0	0	497	404	
11	0	0	0	0	496	404	
12	0	0	0	0	495	405	
13	0	0	0	0	494	404	
14	0	0	0	0	494	404	
15	0	0	0	0	494	404	
0	0	0	0	0	494	404	
1	0	0	0	0	494	406	
2	0	0	0	0	494	405	
3	0	0	0	0	493	405	
4	0	0	0	0	492	405	
5	0	0	0	0	492	405	
6	0	0	0	0	492	406	
7	0	0	0	0	491	406	
8	0	0	0	0	491	406	
9	0	0	0	0	490	407	
10	0	0	0	0	490	406	
11	0	0	0	0	489	407	
12	0	0	0	0	487	407	
13	0	0	0	0	487	406	
14	0	0	0	0	487	406	
15	0	0	0	0	488	406	
0	0	0	0	0	488	406	
1	0	0	0	0	488	407	
2	0	0	0	0	487	406	
3	0	0	0	0	487	406	
4	0	0	0	0	487	406	
5	0	0	0	0	487	406	
6	0	0	0	0	488	406	
7	0	0	0	0	487	406	
8	0	0	0	0	488	406	
9	0	0	0	0	488	407	
10	0	0	0	0	488	406	
11	0	0	0	0	489	406	
12	0	0	0	0	489	406	
13	0	0	0	0	488	406	
14	0	0	0	0	489	407	
15	0	0	0	0	490	406	
0	0	0	0	0	489	407	
1	0	0	0	0	489	407	
2	0	0	0	0	488	407	
3	0	0	0	0	488	407	
4	0	0	0	0	488	407	
5	0	0	0	0	489	406	
6	0	0	0	0	490	407	
7	0	0	0	0	491	407	
8	0	0	0	0	491	407	
9	0	0	0	0	492	407	
10	0	0	0	0	493	407	
11	0	0	0	0	493	407	
12	0	0	0	0	493	407	
13	0	0	0	0	494	407	
14	0	0	0	0	493	407	
15	0	0	0	0	493	407	
0	0	0	0	0	493	407	
1	0	0	0	0	492	408	
2	0	0	0	0	492	408	
3	0	0	0	0	492	408	
4	0	0	0	0	493	407	
5	0	0	0	0	492	407	
6	0	0	0	0	492	407	
7	0	0	0	0	491	408	
8	0	0	0	0	491	407	
9	0	0	0	0	491	408	
10	0	0	0	0	490	407	
11	0	0	0	0	491	408	
12	0	0	0	0	492	408	
13	0	0	0	0	493	408	
14	0	0	0	0	493	408	
15	0	0	0	0	493	408	
0	0	0	0	0	493	408	
1	0	0	0	0	493	410	
2	0	0	0	0	493	409	
3	0	0	0	0	493	409	
4	0	0	0	0	493	410	
5	0	0	0	0	492	410	
6	0	0	0	0	492	410	
7	0	0	0	0	491	410	
8	0	0	0	0	492	410	
9	0	0	0	0	492	411	
10	0	0	0	0	492	411	
11	0	0	0	0	492	410	
12	0	0	0	0	493	411	
13	0	0	0	0	492	411	
14	0	0	0	0	492	411	
15	0	0	0	0	492	411	
0	0	0	0	0	492	411	
1	0	0	0	0	491	411	
2	0	0	0	0	491	411	
3	0	0	0	0	492	411	
4	0	0	0	0	493	411	
5	0	0	0	0	494	411	
6	0	0	0	0	494	411	
7	0	0	0	0	495	411	
8	0	0	0	0	495	411	
9	0	0	0	0	495	412	
10	0	0	0	0	495	411	
11	0	0	0	0	494	411	
12	0	0	0	0	494	411	
13	0	0	0	0	494	410	
14	0	0	0	0	494	410	
15	0	0	0	0	495	410	
0	0	0	0	0	495	410	
1	0	0	0	0	494	411	
2	0	0	0	0	495	409	
3	0	0	0	0	496	410	
4	0	0	0	0	497	410	
5	0	0	0	0	497	411	
6	0	0	0	0	497	410	
7	0	0	0	0	497	411	
8	0	0	0	0	497	410	
9	0	0	0	0	497	411	
10	0	0	0	0	497	410	
11	0	0	0	0	498	410	
12	0	0	0	0	498	411	
13	0	0	0	0	498	410	
14	0	0	0	0	497	410	
15	0	0	0	0	497	410	
0	0	0	0	0	497	411	
1	0	0	0	0	497	410	
2	0	0	0	0	497	410	
3	0	0	0	0	496	410	
4	0	0	0	0	496	409	
5	0	0	0	0	496	409	
6	0	0	0	0	496	409	
7	0	0	0	0	495	410	
8	0	0	0	0	496	410	
9	0	0	0	0	496	411	
10	0	0	0	0	495	410	
11	0	0	0	0	494	409	
12	0	0	0	0	495	410	
13	0	0	0	0	496	409	
14	0	0	0	0	496	409	
15	0	0	0	0	496	410	
0	0	0	0	0	496	410	
1	0	0	0	0	496	411	
2	0	0	0	0	495	410	
3	0	0	0	0	495	410	
4	0	0	0	0	496	410	
5	0	0	0	0	497	411	
6	0	0	0	0	498	411	
7	0	0	0	0	498	411	
8	0	0	0	0	498	411	
9	0	0	0	0	498	413	
10	0	0	0	0	499	412	
11	0	0	0	0	498	412	
12	0	0	0	0	497	412	
13	0	0	0	0	498	411	
14	0	0	0	0	499	411	
15	0	0	0	0	500	411	
0	0	0	0	0	500	411	
1	0	0	0	0	500	412	
2	0	0	0	0	499	412	
3	0	0	0	0	500	411	
4	0	0	0	0	499	411	
5	0	0	0	0	499	411	
6	0	0	0	0	498	411	
7	0	0	0	0	498	411	
8	0	0	0	0	499	411	
9	0	0	0	0	499	412	
10	0	0	0	0	499	411	
11	0	0	0	0	498	411	
12	0	0	0	0	499	411	
13	0	0	0	0	499	411	
14	0	0	0	0	500	411	
15	0	0	0	0	500	411	
0	0	0	0	0	500	412	
1	0	0	0	0	499	412	
2	0	0	0	0	499	412	
3	0	0	0	0	499	412	
4	0	0	0	0	499	412	
5	0	0	0	0	501	412	
6	0	0	0	0	501	412	
7	0	0	0	0	499	412	
8	0	0	0	0	499	412	
9	0	0	0	0	499	413	
10	0	0	0	0	499	411	
11	0	0	0	0	499	411	
12	0	0	0	0	498	411	
13	0	0	0	0	498	411	
14	0	0	0	0	498	411	
15	0	0	0	0	498	411	
0	0	0	0	0	497	411	
1	0	0	0	0	496	412	
2	0	0	0	0	496	411	
3	0	0	0	0	497	411	
4	0	0	0	0	497	411	
5	0	0	0	0	499	411	
6	0	0	0	0	499	411	
7	0	0	0	0	499	411	
8	0	0	0	0	499	411	
9	0	0	0	0	500	411	
10	0	0	0	0	501	411	
11	0	0	0	0	500	411	
12	0	0	0	0	501	411	
13	0	0	0	0	501	411	
14	0	0	0	0	500	411	
15	0	0	0	0	500	411	
0	0	0	0	0	499	412	
1	0	0	0	0	499	411	
2	0	0	0	0	498	411	
3	0	0	0	0	499	411	
4	0	0	0	0	499	412	
5	0	0	0	0	499	411	
6	0	0	0	0	499	411	
7	0	0	0	0	498	411	
8	0	0	0	0	497	411	
9	0	0	0	0	497	412	
10	0	0	0	0	498	411	
11	0	0	0	0	497	410	
12	0	0	0	0	497	411	
13	0	0	0	0	499	411	
14	0	0	0	0	499	411	
15	0	0	0	0	499	411	
0	0	0	0	0	499	410	
1	0	0	0	0	499	411	
2	0	0	0	0	499	411	
3	0	0	0	0	499	411	
4	0	0	0	0	499	411	
5	0	0	0	0	500	410	
6	0	0	0	0	500	410	
7	0	0	0	0	500	410	
8	0	0	0	0	499	410	
9	0	0	0	0	499	411	
10	0	0	0	0	500	410	
11	0	0	0	0	500	410	
12	0	0	0	0	500	410	
13	0	0	0	0	500	409	
14	0	0	0	0	500	409	
15	0	0	0	0	501	410	
0	0	0	0	0	501	409	
1	0	0	0	0	501	410	
2	0	0	0	0	502	409	
3	0	0	0	0	502	409	
4	0	0	0	0	502	408	
5	0	0	0	0	501	408	
6	0	0	0	0	499	408	
7	0	0	0	0	499	407	
8	0	0	0	0	499	408	
9	0	0	0	0	499	408	
10	0	0	0	0	499	407	
11	0	0	0	0	499	407	
12	0	0	0	0	498	407	
13	0	0	0	0	499	407	
14	0	0	0	0	499	406	
15	0	0	0	0	500	406	
0	0	0	0	0	500	406	
1	0	0	0	0	499	407	
2	0	0	0	0	499	406	
3	0	0	0	0	499	406	
4	0	0	0	0	500	406	
5	0	0	0	0	501	405	
6	0	0	0	0	500	406	
7	0	0	0	0	500	406	
8	0	0	0	0	499	406	
9	0	0	0	0	499	406	
10	0	0	0	0	498	405	
11	0	0	0	0	498	405	
12	0	0	0	0	499	404	
13	0	0	0	0	499	404	
14	0	0	0	0	498	405	
15	0	0	0	0	497	405	
0	0	0	0	0	498	404	
1	0	0	0	0	498	405	
2	0	0	0	0	499	404	
3	0	0	0	0	500	404	
4	0	0	0	0	500	404	
5	0	0	0	0	500	404	
6	0	0	0	0	501	404	
7	0	0	0	0	502	404	
8	0	0	0	0	502	403	
9	0	0	0	0	502	404	
10	0	0	0	0	502	404	
11	0	0	0	0	502	404	
12	0	0	0	0	502	403	
13	0	0	0	0	502	404	
14	0	0	0	0	502	404	
15	0	0	0	0	502	404	
0	0	0	0	0	501	403	
1	0	0	0	0	502	405	
2	0	0	0	0	502	403	
3	0	0	0	0	501	404	
4	0	0	0	0	501	403	
5	0	0	0	0	500	403	
6	0	0	0	0	501	404	
7	0	0	0	0	500	403	
8	0	0	0	0	500	403	
9	0	0	0	0	500	405	
10	0	0	0	0	500	404	
11	0	0	0	0	500	403	
12	0	0	0	0	500	403	
13	0	0	0	0	501	403	
14	0	0	0	0	502	403	
15	0	0	0	0	503	404	
0	0	0	0	0	504	404	
1	0	0	0	0	504	405	
2	0	0	0	0	504	404	
3	0	0	0	0	504	404	
4	0	0	0	0	504	404	
5	0	0	0	0	505	404	
6	0	0	0	0	505	404	
7	0	0	0	0	505	404	
8	0	0	0	0	505	404	
9	0	0	0	0	505	405	
10	0	0	0	0	506	404	
11	0	0	0	0	508	405	
12	0	0	0	0	508	405	
13	0	0	0	0	509	403	
14	0	0	0	0	509	404	
15	0	0	0	0	510	405	
0	0	0	0	0	510	404	
1	0	0	0	0	511	404	
2	0	0	0	0	511	403	
3	0	0	0	0	511	404	
4	0	0	0	0	511	404	
5	0	0	0	0	510	404	
6	0	0	0	0	509	404	
7	0	0	0	0	508	404	
8	0	0	0	0	509	405	
9	0	0	0	0	509	406	
10	0	0	0	0	508	405	
11	0	0	0	0	507	405	
12	0	0	0	0	505	406	
13	0	0	0	0	505	404	
14	0	0	0	0	504	406	
15	0	0	0	0	503	406	
0	0	0	0	0	503	405	
1	0	0	0	0	504	406	
2	0	0	0	0	503	406	
3	0	0	0	0	504	405	
4	0	0	0	0	504	405	
5	0	0	0	0	504	406	
6	0	0	0	0	504	406	
7	0	0	0	0	505	405	
8	0	0	0	0	506	406	
9	0	0	0	0	506	406	
10	0	0	0	0	506	405	
11	0	0	0	0	506	405	
12	0	0	0	0	506	405	
13	0	0	0	0	506	405	
14	0	0	0	0	505	405	
15	0	0	0	0	505	405	
0	0	0	0	0	504	406	
1	0	0	0	0	504	408	
2	0	0	0	0	504	407	
3	0	0	0	0	504	407	
4	0	0	0	0	504	406	
5	0	0	0	0	505	406	
6	0	0	0	0	505	406	
7	0	0	0	0	505	405	
8	0	0	0	0	506	405	
9	0	0	0	0	506	406	
10	0	0	0	0	506	405	
11	0	0	0	0	506	406	
12	0	0	0	0	507	405	
13	0	0	0	0	508	405	
14	0	0	0	0	507	405	
15	0	0	0	0	507	405	
0	0	0	0	0	507	405	
1	0	0	0	0	507	406	
2	0	0	0	0	506	406	
3	0	0	0	0	506	405	
4	0	0	0	0	505	404	
5	0	0	0	0	505	404	
6	0	0	0	0	506	405	
7	0	0	0	0	507	405	
8	0	0	0	0	508	406	
9	0	0	0	0	509	406	
10	0	0	0	0	509	405	
11	0	0	0	0	509	405	
12	0	0	0	0	510	404	
13	0	0	0	0	510	404	
14	0	0	0	0	510	404	
15	0	0	0	0	508	404	
0	0	0	0	0	506	404	
1	0	0	0	0	506	405	
2	0	0	0	0	506	405	
3	0	0	0	0	507	405	
4	0	0	0	0	507	405	
5	0	0	0	0	507	404	
6	0	0	0	0	507	405	
7	0	0	0	0	506	405	
8	0	0	0	0	505	405	
9	0	0	0	0	505	406	
10	0	0	0	0	506	406	
11	0	0	0	0	506	405	
12	0	0	0	0	505	405	
13	0	0	0	0	506	405	
14	0	0	0	0	506	405	
15	0	0	0	0	506	406	
0	0	0	0	0	506	405	
1	0	0	0	0	504	407	
2	0	0	0	0	503	406	
3	0	0	0	0	500	407	
4	0	0	0	0	496	406	
5	0	0	0	0	493	406	
6	0	0	0	0	490	407	
7	0	0	0	0	487	407	
8	0	0	0	0	483	407	
9	0	0	0	0	480	408	
10	0	0	0	0	477	407	
11	0	0	0	0	475	407	
12	0	0	0	0	475	407	
13	0	0	0	0	476	407	
14	0	0	0	0	478	407	
15	0	0	0	0	481	408	
0	0	0	0	0	485	408	
1	0	0	0	0	491	409	
2	0	0	0	0	498	408	
3	0	0	0	0	507	408	
4	0	0	0	0	516	409	
5	0	0	0	0	527	408	
6	0	0	0	0	538	409	
7	0	0	0	0	549	409	
8	0	0	0	0	560	409	
9	0	0	0	0	571	410	
10	0	0	0	0	581	409	
11	0	0	0	0	593	409	
12	0	0	0	0	603	410	
13	0	0	0	0	612	409	
14	0	0	0	0	621	410	
15	0	0	0	0	630	409	
0	0	0	0	0	638	409	
1	0	0	0	0	644	410	
2	0	0	0	0	650	409	
3	0	0	0	0	654	410	
4	0	0	0	0	657	411	
5	0	0	0	0	658	410	
6	0	0	0	0	659	410	
7	0	0	0	0	658	410	
8	0	0	0	0	656	411	
9	0	0	0	0	652	412	
10	0	0	0	0	646	411	
11	0	0	0	0	638	411	
12	0	0	0	0	629	411	
13	0	0	0	0	620	411	
14	0	0	0	0	610	412	
15	0	0	0	0	599	411	
0	0	0	0	0	588	411	
1	0	0	0	0	575	412	
2	0	0	0	0	564	411	
3	0	0	0	0	553	411	
4	0	0	0	0	543	411	
5	0	0	0	0	535	411	
6	0	0	0	0	527	411	
7	0	0	0	0	521	411	
8	0	0	0	0	515	411	
9	0	0	0	0	511	412	
10	0	0	0	0	507	411	
11	0	0	0	0	504	411	
12	0	0	0	0	501	411	
13	0	0	0	0	498	411	
14	0	0	0	0	495	412	
15	0	0	0	0	492	412	
0	0	0	0	0	490	412	
1	0	0	0	0	489	412	
2	0	0	0	0	489	412	
3	0	0	0	0	487	412	
4	0	0	0	0	486	412	
5	0	0	0	0	486	411	
6	0	0	0	0	485	411	
7	0	0	0	0	483	412	
8	0	0	0	0	483	411	
9	0	0	0	0	481	413	
10	0	0	0	0	481	412	
11	0	0	0	0	482	412	
12	0	0	0	0	482	411	
13	0	0	0	0	483	412	
14	0	0	0	0	483	411	
15	0	0	0	0	482	412	
0	0	0	0	0	483	411	
1	0	0	0	0	483	413	
2	0	0	0	0	483	412	
3	0	0	0	0	483	412	
4	0	0	0	0	483	412	
5	0	0	0	0	483	411	
6	0	0	0	0	482	411	
7	0	0	0	0	482	411	
8	0	0	0	0	482	411	
9	0	0	0	0	482	412	
10	0	0	0	0	482	411	
11	0	0	0	0	483	411	
12	0	0	0	0	483	411	
13	0	0	0	0	482	410	
14	0	0	0	0	483	411	
15	0	0	0	0	483	411	
0	0	0	0	0	484	411	
1	0	0	0	0	484	412	
2	0	0	0	0	485	411	
3	0	0	0	0	486	411	
4	0	0	0	0	487	411	
5	0	0	0	0	487	411	
6	0	0	0	0	487	411	
7	0	0	0	0	488	411	
8	0	0	0	0	487	411	
9	0	0	0	0	487	412	
10	0	0	0	0	487	412	
11	0	0	0	0	487	411	
12	0	0	0	0	487	412	
13	0	0	0	0	487	411	
14	0	0	0	0	487	411	
15	0	0	0	0	487	411	
0	0	0	0	0	487	411	
1	0	0	0	0	488	412	
2	0	0	0	0	489	411	
3	0	0	0	0	489	411	
4	0	0	0	0	489	411	
5	0	0	0	0	490	411	
6	0	0	0	0	491	411	
7	0	0	0	0	492	411	
8	0	0	0	0	492	411	
9	0	0	0	0	493	412	
10	0	0	0	0	494	411	
11	0	0	0	0	495	411	
12	0	0	0	0	495	411	
13	0	0	0	0	495	410	
14	0	0	0	0	495	412	
15	0	0	0	0	495	411	
0	0	0	0	0	495	412	
1	0	0	0	0	495	412	
2	0	0	0	0	495	411	
3	0	0	0	0	496	411	
4	0	0	0	0	496	412	
5	0	0	0	0	495	411	
6	0	0	0	0	495	411	
7	0	0	0	0	496	412	
8	0	0	0	0	496	411	
9	0	0	0	0	495	411	
10	0	0	0	0	495	411	
11	0	0	0	0	496	411	
12	0	0	0	0	496	411	
13	0	0	0	0	496	411	
14	0	0	0	0	496	411	
15	0	0	0	0	497	411	
0	0	0	0	0	498	411	
1	0	0	0	0	499	412	
2	0	0	0	0	500	411	
3	0	0	0	0	500	411	
4	0	0	0	0	501	411	
5	0	0	0	0	501	411	
6	0	0	0	0	502	410	
7	0	0	0	0	503	410	
8	0	0	0	0	503	410	
9	0	0	0	0	502	411	
10	0	0	0	0	502	411	
11	0	0	0	0	502	411	
12	0	0	0	0	502	411	
13	0	0	0	0	502	410	
14	0	0	0	0	503	410	
15	0	0	0	0	504	410	
0	0	0	0	0	504	411	
1	0	0	0	0	504	411	
2	0	0	0	0	505	410	
3	0	0	0	0	504	411	
4	0	0	0	0	505	410	
5	0	0	0	0	505	410	
6	0	0	0	0	505	410	
7	0	0	0	0	505	410	
8	0	0	0	0	505	410	
9	0	0	0	0	505	411	
10	0	0	0	0	505	410	
11	0	0	0	0	505	410	
12	0	0	0	0	505	410	
13	0	0	0	0	506	409	
14	0	0	0	0	507	410	
15	0	0	0	0	507	410	
0	0	0	0	0	507	410	
1	0	0	0	0	508	411	
2	0	0	0	0	508	410	
3	0	0	0	0	508	410	
4	0	0	0	0	508	410	
5	0	0	0	0	508	410	
6	0	0	0	0	508	410	
7	0	0	0	0	509	410	
8	0	0	0	0	510	410	
9	0	0	0	0	510	411	
10	0	0	0	0	508	410	
11	0	0	0	0	508	410	
12	0	0	0	0	507	410	
13	0	0	0	0	508	410	
14	0	0	0	0	507	410	
15	0	0	0	0	507	410	
0	0	0	0	0	508	411	
1	0	0	0	0	508	411	
2	0	0	0	0	508	411	
3	0	0	0	0	510	409	
4	0	0	0	0	510	410	
5	0	0	0	0	510	409	
6	0	0	0	0	511	410	
7	0	0	0	0	512	410	
8	0	0	0	0	512	409	
9	0	0	0	0	512	411	
10	0	0	0	0	511	410	
11	0	0	0	0	511	410	
12	0	0	0	0	510	411	
13	0	0	0	0	511	410	
14	0	0	0	0	510	410	
15	0	0	0	0	510	410	
0	0	0	0	0	511	410	
1	0	0	0	0	511	410	
2	0	0	0	0	512	410	
3	0	0	0	0	512	409	
4	0	0	0	0	512	410	
5	0	0	0	0	512	409	
6	0	0	0	0	512	409	
7	0	0	0	0	513	409	
8	0	0	0	0	513	409	
9	0	0	0	0	513	409	
10	0	0	0	0	514	409	
11	0	0	0	0	514	409	
12	0	0	0	0	514	409	
13	0	0	0	0	514	408	
14	0	0	0	0	513	408	
15	0	0	0	0	513	408	
0	0	0	0	0	513	408	
1	0	0	0	0	514	409	
2	0	0	0	0	514	408	
3	0	0	0	0	515	408	
4	0	0	0	0	515	408	
5	0	0	0	0	515	407	
6	0	0	0	0	514	408	
7	0	0	0	0	514	408	
8	0	0	0	0	514	408	
9	0	0	0	0	515	408	
10	0	0	0	0	515	407	
11	0	0	0	0	515	407	
12	0	0	0	0	515	407	
13	0	0	0	0	516	407	
14	0	0	0	0	515	408	
15	0	0	0	0	515	407	
0	0	0	0	0	516	408	
1	0	0	0	0	517	408	
2	0	0	0	0	516	408	
3	0	0	0	0	516	407	
4	0	0	0	0	518	407	
5	0	0	0	0	518	407	
6	0	0	0	0	519	407	
7	0	0	0	0	520	407	
8	0	0	0	0	520	407	
9	0	0	0	0	519	408	
10	0	0	0	0	520	407	
11	0	0	0	0	520	407	
12	0	0	0	0	520	407	
13	0	0	0	0	520	407	
14	0	0	0	0	520	407	
15	0	0	0	0	520	406	
0	0	0	0	0	522	406	
1	0	0	0	0	523	407	
2	0	0	0	0	524	407	
3	0	0	0	0	524	407	
4	0	0	0	0	524	406	
5	0	0	0	0	525	406	
6	0	0	0	0	524	406	
7	0	0	0	0	524	406	
8	0	0	0	0	524	406	
9	0	0	0	0	525	407	
10	0	0	0	0	525	406	
11	0	0	0	0	526	405	
12	0	0	0	0	527	405	
13	0	0	0	0	527	405	
14	0	0	0	0	527	406	
15	0	0	0	0	527	406	
0	0	0	0	0	527	406	
1	0	0	0	0	526	406	
2	0	0	0	0	525	406	
3	0	0	0	0	525	406	
4	0	0	0	0	525	406	
5	0	0	0	0	526	406	
6	0	0	0	0	526	407	
7	0	0	0	0	526	406	
8	0	0	0	0	526	406	
9	0	0	0	0	526	407	
10	0	0	0	0	526	406	
11	0	0	0	0	526	406	
12	0	0	0	0	526	406	
13	0	0	0	0	526	405	
14	0	0	0	0	526	406	
15	0	0	0	0	525	405	
0	0	0	0	0	525	405	
1	0	0	0	0	525	406	
2	0	0	0	0	525	404	
3	0	0	0	0	525	405	
4	0	0	0	0	524	405	
5	0	0	0	0	524	405	
6	0	0	0	0	523	404	
7	0	0	0	0	522	405	
8	0	0	0	0	521	404	
9	0	0	0	0	520	406	
10	0	0	0	0	519	405	
11	0	0	0	0	519	405	
12	0	0	0	0	518	405	
13	0	0	0	0	517	405	
14	0	0	0	0	516	405	
15	0	0	0	0	516	405	
0	0	0	0	0	515	404	
1	0	0	0	0	515	404	
2	0	0	0	0	514	404	
3	0	0	0	0	514	405	
4	0	0	0	0	513	404	
5	0	0	0	0	512	403	
6	0	0	0	0	512	404	
7	0	0	0	0	510	404	
8	0	0	0	0	510	404	
9	0	0	0	0	508	404	
10	0	0	0	0	507	404	
11	0	0	0	0	506	403	
12	0	0	0	0	505	403	
13	0	0	0	0	505	403	
14	0	0	0	0	505	403	
15	0	0	0	0	504	403	
0	0	0	0	0	504	403	
1	0	0	0	0	505	404	
2	0	0	0	0	505	403	
3	0	0	0	0	504	403	
4	0	0	0	0	504	404	
5	0	0	0	0	503	403	
6	0	0	0	0	502	403	
7	0	0	0	0	502	404	
8	0	0	0	0	502	403	
9	0	0	0	0	502	404	
10	0	0	0	0	502	403	
11	0	0	0	0	502	404	
12	0	0	0	0	502	403	
13	0	0	0	0	502	403	
14	0	0	0	0	502	404	
15	0	0	0	0	502	404	
0	0	0	0	0	502	404	
1	0	0	0	0	502	404	
2	0	0	0	0	503	403	
3	0	0	0	0	503	404	
4	0	0	0	0	503	404	
5	0	0	0	0	503	403	
6	0	0	0	0	503	404	
7	0	0	0	0	503	403	
8	0	0	0	0	504	403	
9	0	0	0	0	504	404	
10	0	0	0	0	505	403	
11	0	0	0	0	505	404	
12	0	0	0	0	505	403	
13	0	0	0	0	505	403	
14	0	0	0	0	504	404	
15	0	0	0	0	504	404	
0	0	0	0	0	504	404	
1	0	0	0	0	504	404	
2	0	0	0	0	503	404	
3	0	0	0	0	502	405	
4	0	0	0	0	502	404	
5	0	0	0	0	503	404	
6	0	0	0	0	503	404	
7	0	0	0	0	503	404	
8	0	0	0	0	503	405	
9	0	0	0	0	504	405	
10	0	0	0	0	504	405	
11	0	0	0	0	504	404	
12	0	0	0	0	504	405	
13	0	0	0	0	504	405	
14	0	0	0	0	505	405	
15	0	0	0	0	505	405	
0	0	0	0	0	505	405	
1	0	0	0	0	505	406	
2	0	0	0	0	505	405	
3	0	0	0	0	506	406	
4	0	0	0	0	506	406	
5	0	0	0	0	506	406	
6	0	0	0	0	507	406	
7	0	0	0	0	507	406	
8	0	0	0	0	507	407	
9	0	0	0	0	507	407	
10	0	0	0	0	507	405	
11	0	0	0	0	507	406	
12	0	0	0	0	507	406	
13	0	0	0	0	507	406	
14	0	0	0	0	507	406	
15	0	0	0	0	506	407	
0	0	0	0	0	506	407	
1	0	0	0	0	505	407	
2	0	0	0	0	505	406	
3	0	0	0	0	506	407	
4	0	0	0	0	506	407	
5	0	0	0	0	506	407	
6	0	0	0	0	506	407	
7	0	0	0	0	507	408	
8	0	0	0	0	508	408	
9	0	0	0	0	508	408	
10	0	0	0	0	507	408	
11	0	0	0	0	507	409	
12	0	0	0	0	507	408	
13	0	0	0	0	506	407	
14	0	0	0	0	507	408	
15	0	0	0	0	507	408	
0	0	0	0	0	506	408	
1	0	0	0	0	507	409	
2	0	0	0	0	508	408	
3	0	0	0	0	508	408	
4	0	0	0	0	507	408	
5	0	0	0	0	507	408	
6	0	0	0	0	507	408	
7	0	0	0	0	507	409	
8	0	0	0	0	507	408	
9	0	0	0	0	507	409	
10	0	0	0	0	507	408	
11	0	0	0	0	507	408	
12	0	0	0	0	506	408	
13	0	0	0	0	505	408	
14	0	0	0	0	505	408	
15	0	0	0	0	505	409	
0	0	0	0	0	505	409	
1	0	0	0	0	505	410	
2	0	0	0	0	507	409	
3	0	0	0	0	507	409	
4	0	0	0	0	508	409	
5	0	0	0	0	508	408	
6	0	0	0	0	509	408	
7	0	0	0	0	509	408	
8	0	0	0	0	509	409	
9	0	0	0	0	509	410	
10	0	0	0	0	508	409	
11	0	0	0	0	509	409	
12	0	0	0	0	508	409	
13	0	0	0	0	508	408	
14	0	0	0	0	508	408	
15	0	0	0	0	507	408	
0	0	0	0	0	506	409	
1	0	0	0	0	506	410	
2	0	0	0	0	507	409	
3	0	0	0	0	507	409	
4	0	0	0	0	506	409	
5	0	0	0	0	506	408	
6	0	0	0	0	507	409	
7	0	0	0	0	508	410	
8	0	0	0	0	508	410	
9	0	0	0	0	508	410	
10	0	0	0	0	509	409	
11	0	0	0	0	510	409	
12	0	0	0	0	510	410	
13	0	0	0	0	510	409	
14	0	0	0	0	510	410	
15	0	0	0	0	509	410	
0	0	0	0	0	509	409	
1	0	0	0	0	508	411	
2	0	0	0	0	509	410	
3	0	0	0	0	508	410	
4	0	0	0	0	508	411	
5	0	0	0	0	509	410	
6	0	0	0	0	508	411	
7	0	0	0	0	508	410	
8	0	0	0	0	508	410	
9	0	0	0	0	508	411	
10	0	0	0	0	509	410	
11	0	0	0	0	509	410	
12	0	0	0	0	509	410	
13	0	0	0	0	509	409	
14	0	0	0	0	509	410	
15	0	0	0	0	509	410	
0	0	0	0	0	508	410	
1	0	0	0	0	508	411	
2	0	0	0	0	508	410	
3	0	0	0	0	507	410	
4	0	0	0	0	507	410	
5	0	0	0	0	508	410	
6	0	0	0	0	508	410	
7	0	0	0	0	508	411	
8	0	0	0	0	508	411	
9	0	0	0	0	508	412	
10	0	0	0	0	508	411	
11	0	0	0	0	507	411	
12	0	0	0	0	508	411	
13	0	0	0	0	508	410	
14	0	0	0	0	508	411	
15	0	0	0	0	509	411	
0	0	0	0	0	510	411	
1	0	0	0	0	511	412	
2	0	0	0	0	511	411	
3	0	0	0	0	511	412	
4	0	0	0	0	511	411	
5	0	0	0	0	510	411	
6	0	0	0	0	510	411	
7	0	0	0	0	511	411	
8	0	0	0	0	510	411	
9	0	0	0	0	511	412	
10	0	0	0	0	511	412	
11	0	0	0	0	510	412	
12	0	0	0	0	510	411	
13	0	0	0	0	510	411	
14	0	0	0	0	510	411	
15	0	0	0	0	510	410	
0	0	0	0	0	510	411	
1	0	0	0	0	510	412	
2	0	0	0	0	511	411	
3	0	0	0	0	511	412	
4	0	0	0	0	511	412	
5	0	0	0	0	512	412	
6	0	0	0	0	512	412	
7	0	0	0	0	512	412	
8	0	0	0	0	512	411	
9	0	0	0	0	511	412	
10	0	0	0	0	511	412	
11	0	0	0	0	512	412	
12	0	0	0	0	513	411	
13	0	0	0	0	513	411	
14	0	0	0	0	513	411	
15	0	0	0	0	514	412	
0	0	0	0	0	514	412	
1	0	0	0	0	514	412	
2	0	0	0	0	514	412	
3	0	0	0	0	514	412	
4	0	0	0	0	514	412	
5	0	0	0	0	515	412	
6	0	0	0	0	515	413	
7	0	0	0	0	515	412	
8	0	0	0	0	515	412	
9	0	0	0	0	515	412	
10	0	0	0	0	515	412	
11	0	0	0	0	515	412	
12	0	0	0	0	514	412	
13	0	0	0	0	513	411	
14	0	0	0	0	513	412	
15	0	0	0	0	513	412	
0	0	0	0	0	513	412	
1	0	0	0	0	513	413	
2	0	0	0	0	512	412	
3	0	0	0	0	512	413	
4	0	0	0	0	512	413	
5	0	0	0	0	512	412	
6	0	0	0	0	512	412	
7	0	0	0	0	514	412	
8	0	0	0	0	515	412	
9	0	0	0	0	515	413	
10	0	0	0	0	515	412	
11	0	0	0	0	515	413	
12	0	0	0	0	515	412	
13	0	0	0	0	516	412	
14	0	0	0	0	517	412	
15	0	0	0	0	517	412	
0	0	0	0	0	517	412	
1	0	0	0	0	517	412	
2	0	0	0	0	517	412	
3	0	0	0	0	517	412	
4	0	0	0	0	517	412	
5	0	0	0	0	517	412	
6	0	0	0	0	516	412	
7	0	0	0	0	515	412	
8	0	0	0	0	515	412	
9	0	0	0	0	515	412	
10	0	0	0	0	515	412	
11	0	0	0	0	514	412	
12	0	0	0	0	515	412	
13	0	0	0	0	515	411	
14	0	0	0	0	515	411	
15	0	0	0	0	515	411	
0	0	0	0	0	516	411	
1	0	0	0	0	516	412	
2	0	0	0	0	516	411	
3	0	0	0	0	516	411	
4	0	0	0	0	517	411	
5	0	0	0	0	519	411	
6	0	0	0	0	519	412	
7	0	0	0	0	519	412	
8	0	0	0	0	519	412	
9	0	0	0	0	519	412	
10	0	0	0	0	519	411	
11	0	0	0	0	519	411	
12	0	0	0	0	519	411	
13	0	0	0	0	519	411	
14	0	0	0	0	519	411	
15	0	0	0	0	519	412	
0	0	0	0	0	519	412	
1	0	0	0	0	519	412	
2	0	0	0	0	519	411	
3	0	0	0	0	519	411	
4	0	0	0	0	519	411	
5	0	0	0	0	519	411	
6	0	0	0	0	519	411	
7	0	0	0	0	519	411	
8	0	0	0	0	519	411	
9	0	0	0	0	519	412	
10	0	0	0	0	519	411	
11	0	0	0	0	519	411	
12	0	0	0	0	519	411	
13	0	0	0	0	519	411	
14	0	0	0	0	518	411	
15	0	0	0	0	518	411	
0	0	0	0	0	518	411	
1	0	0	0	0	517	411	
2	0	0	0	0	517	410	
3	0	0	0	0	517	410	
4	0	0	0	0	516	411	
5	0	0	0	0	517	409	
6	0	0	0	0	517	410	
7	0	0	0	0	518	410	
8	0	0	0	0	518	411	
9	0	0	0	0	519	411	
10	0	0	0	0	518	411	
11	0	0	0	0	518	410	
12	0	0	0	0	519	411	
13	0	0	0	0	519	409	
14	0	0	0	0	519	410	
15	0	0	0	0	520	411	
0	0	0	0	0	520	410	
1	0	0	0	0	520	410	
2	0	0	0	0	520	409	
3	0	0	0	0	520	410	
4	0	0	0	0	519	411	
5	0	0	0	0	519	409	
6	0	0	0	0	518	410	
7	0	0	0	0	518	409	
8	0	0	0	0	518	409	
9	0	0	0	0	518	411	
10	0	0	0	0	517	410	
11	0	0	0	0	517	410	
12	0	0	0	0	517	410	
13	0	0	0	0	517	409	
14	0	0	0	0	517	409	
15	0	0	0	0	516	410	
0	0	0	0	0	516	409	
1	0	0	0	0	515	411	
2	0	0	0	0	515	410	
3	0	0	0	0	515	409	
4	0	0	0	0	515	409	
5	0	0	0	0	514	408	
6	0	0	0	0	515	409	
7	0	0	0	0	514	409	
8	0	0	0	0	513	409	
9	0	0	0	0	514	409	
10	0	0	0	0	515	408	
11	0	0	0	0	515	408	
12	0	0	0	0	516	408	
13	0	0	0	0	516	407	
14	0	0	0	0	517	408	
15	0	0	0	0	517	408	
0	0	0	0	0	518	407	
1	0	0	0	0	518	408	
2	0	0	0	0	518	407	
3	0	0	0	0	518	406	
4	0	0	0	0	518	407	
5	0	0	0	0	518	407	
6	0	0	0	0	518	408	
7	0	0	0	0	518	407	
8	0	0	0	0	518	407	
9	0	0	0	0	519	408	
10	0	0	0	0	519	407	
11	0	0	0	0	518	407	
12	0	0	0	0	518	407	
13	0	0	0	0	517	406	
14	0	0	0	0	516	407	
15	0	0	0	0	516	407	
0	0	0	0	0	516	407	
1	0	0	0	0	517	407	
2	0	0	0	0	516	407	
3	0	0	0	0	516	406	
4	0	0	0	0	517	407	
5	0	0	0	0	517	406	
6	0	0	0	0	518	406	
7	0	0	0	0	518	406	
8	0	0	0	0	519	406	
9	0	0	0	0	518	407	
10	0	0	0	0	519	406	
11	0	0	0	0	519	406	
12	0	0	0	0	519	406	
13	0	0	0	0	519	405	
14	0	0	0	0	519	405	
15	0	0	0	0	520	405	
0	0	0	0	0	521	405	
1	0	0	0	0	521	406	
2	0	0	0	0	520	405	
3	0	0	0	0	520	405	
4	0	0	0	0	520	405	
5	0	0	0	0	521	405	
6	0	0	0	0	521	405	
7	0	0	0	0	522	406	
8	0	0	0	0	521	406	
9	0	0	0	0	522	406	
10	0	0	0	0	521	405	
11	0	0	0	0	520	406	
12	0	0	0	0	520	405	
13	0	0	0	0	520	405	
14	0	0	0	0	519	405	
15	0	0	0	0	519	405	
0	0	0	0	0	519	406	
1	0	0	0	0	518	407	
2	0	0	0	0	517	406	
3	0	0	0	0	517	406	
4	0	0	0	0	517	406	
5	0	0	0	0	517	405	
6	0	0	0	0	516	406	
7	0	0	0	0	515	405	
8	0	0	0	0	516	405	
9	0	0	0	0	516	406	
10	0	0	0	0	516	405	
11	0	0	0	0	516	405	
12	0	0	0	0	516	404	
13	0	0	0	0	517	405	
14	0	0	0	0	517	405	
15	0	0	0	0	518	405	
0	0	0	0	0	517	406	
1	0	0	0	0	517	406	
2	0	0	0	0	516	405	
3	0	0	0	0	515	405	
4	0	0	0	0	515	406	
5	0	0	0	0	515	406	
6	0	0	0	0	514	406	
7	0	0	0	0	514	406	
8	0	0	0	0	513	406	
9	0	0	0	0	513	407	
10	0	0	0	0	513	406	
11	0	0	0	0	513	406	
12	0	0	0	0	513	406	
13	0	0	0	0	513	406	
14	0	0	0	0	513	406	
15	0	0	0	0	513	406	
0	0	0	0	0	513	405	
1	0	0	0	0	513	407	
2	0	0	0	0	512	406	
3	0	0	0	0	512	406	
4	0	0	0	0	512	406	
5	0	0	0	0	513	406	
6	0	0	0	0	513	407	
7	0	0	0	0	512	406	
8	0	0	0	0	513	406	
9	0	0	0	0	513	407	
10	0	0	0	0	512	406	
11	0	0	0	0	512	406	
12	0	0	0	0	513	406	
13	0	0	0	0	512	406	
14	0	0	0	0	512	406	
15	0	0	0	0	513	407	
0	0	0	0	0	513	406	
1	0	0	0	0	513	407	
2	0	0	0	0	514	406	
3	0	0	0	0	513	406	
4	0	0	0	0	513	406	
5	0	0	0	0	513	406	
6	0	0	0	0	514	406	
7	0	0	0	0	514	406	
8	0	0	0	0	514	406	
9	0	0	0	0	514	406	
10	0	0	0	0	514	406	
11	0	0	0	0	514	405	
12	0	0	0	0	514	406	
13	0	0	0	0	513	406	
14	0	0	0	0	513	406	
15	0	0	0	0	512	406	
0	0	0	0	0	512	406	
1	0	0	0	0	510	406	
2	0	0	0	0	510	405	
3	0	0	0	0	509	406	
4	0	0	0	0	508	406	
5	0	0	0	0	507	405	
6	0	0	0	0	506	406	
7	0	0	0	0	504	405	
8	0	0	0	0	502	405	
9	0	0	0	0	499	406	
10	0	0	0	0	495	405	
11	0	0	0	0	491	406	
12	0	0	0	0	487	406	
13	0	0	0	0	483	405	
14	0	0	0	0	482	405	
15	0	0	0	0	481	405	
0	0	0	0	0	480	405	
1	0	0	0	0	480	406	
2	0	0	0	0	481	406	
3	0	0	0	0	483	405	
4	0	0	0	0	487	405	
5	0	0	0	0	491	405	
6	0	0	0	0	497	405	
7	0	0	0	0	506	405	
8	0	0	0	0	514	405	
9	0	0	0	0	524	406	
10	0	0	0	0	534	405	
11	0	0	0	0	544	405	
12	0	0	0	0	555	405	
13	0	0	0	0	566	406	
14	0	0	0	0	576	406	
15	0	0	0	0	587	406	
0	0	0	0	0	597	406	
1	0	0	0	0	607	407	
2	0	0	0	0	616	406	
3	0	0	0	0	626	407	
4	0	0	0	0	633	407	
5	0	0	0	0	640	406	
6	0	0	0	0	647	407	
7	0	0	0	0	652	407	
8	0	0	0	0	655	407	
9	0	0	0	0	657	408	
10	0	0	0	0	657	407	
11	0	0	0	0	657	407	
12	0	0	0	0	656	407	
13	0	0	0	0	653	407	
14	0	0	0	0	647	407	
15	0	0	0	0	639	407	
0	0	0	0	0	630	408	
1	0	0	0	0	620	408	
2	0	0	0	0	609	408	
3	0	0	0	0	599	408	
4	0	0	0	0	587	408	
5	0	0	0	0	574	408	
6	0	0	0	0	563	408	
7	0	0	0	0	551	408	
8	0	0	0	0	540	408	
9	0	0	0	0	531	409	
10	0	0	0	0	521	408	
11	0	0	0	0	513	408	
12	0	0	0	0	507	408	
13	0	0	0	0	502	408	
14	0	0	0	0	497	408	
15	0	0	0	0	494	408	
0	0	0	0	0	490	408	
1	0	0	0	0	487	408	
2	0	0	0	0	485	408	
3	0	0	0	0	483	408	
4	0	0	0	0	482	408	
5	0	0	0	0	480	408	
6	0	0	0	0	478	408	
7	0	0	0	0	477	407	
8	0	0	0	0	476	408	
9	0	0	0	0	476	408	
10	0	0	0	0	476	408	
11	0	0	0	0	476	408	
12	0	0	0	0	475	408	
13	0	0	0	0	474	408	
14	0	0	0	0	473	408	
15	0	0	0	0	473	408	
0	0	0	0	0	473	408	
1	0	0	0	0	472	409	
2	0	0	0	0	472	408	
3	0	0	0	0	473	408	
4	0	0	0	0	472	408	
5	0	0	0	0	473	408	
6	0	0	0	0	473	408	
7	0	0	0	0	473	408	
8	0	0	0	0	474	409	
9	0	0	0	0	474	409	
10	0	0	0	0	474	408	
11	0	0	0	0	474	408	
12	0	0	0	0	473	408	
13	0	0	0	0	473	408	
14	0	0	0	0	473	408	
15	0	0	0	0	473	409	
0	0	0	0	0	474	408	
1	0	0	0	0	473	409	
2	0	0	0	0	474	408	
3	0	0	0	0	474	408	
4	0	0	0	0	474	408	
5	0	0	0	0	474	408	
6	0	0	0	0	475	408	
7	0	0	0	0	476	408	
8	0	0	0	0	476	407	
9	0	0	0	0	477	409	
10	0	0	0	0	478	408	
11	0	0	0	0	478	408	
12	0	0	0	0	478	408	
13	0	0	0	0	478	408	
14	0	0	0	0	479	408	
15	0	0	0	0	479	408	
0	0	0	0	0	480	408	
1	0	0	0	0	480	409	
2	0	0	0	0	480	408	
3	0	0	0	0	481	408	
4	0	0	0	0	481	408	
5	0	0	0	0	482	408	
6	0	0	0	0	482	408	
7	0	0	0	0	482	407	
8	0	0	0	0	482	407	
9	0	0	0	0	483	408	
10	0	0	0	0	483	407	
11	0	0	0	0	483	407	
12	0	0	0	0	484	407	
13	0	0	0	0	484	407	
14	0	0	0	0	485	407	
15	0	0	0	0	486	407	
0	0	0	0	0	486	407	
1	0	0	0	0	486	408	
2	0	0	0	0	486	408	
3	0	0	0	0	486	408	
4	0	0	0	0	486	409	
5	0	0	0	0	486	408	
6	0	0	0	0	486	408	
7	0	0	0	0	486	409	
8	0	0	0	0	486	409	
9	0	0	0	0	486	409	
10	0	0	0	0	486	408	
11	0	0	0	0	487	408	
12	0	0	0	0	487	408	
13	0	0	0	0	488	408	
14	0	0	0	0	489	407	
15	0	0	0	0	490	408	
0	0	0	0	0	490	408	
1	0	0	0	0	491	408	
2	0	0	0	0	491	408	
3	0	0	0	0	492	407	
4	0	0	0	0	492	408	
5	0	0	0	0	492	407	
6	0	0	0	0	493	408	
7	0	0	0	0	493	408	
8	0	0	0	0	492	408	
9	0	0	0	0	492	408	
10	0	0	0	0	492	408	
11	0	0	0	0	493	408	
12	0	0	0	0	493	408	
13	0	0	0	0	493	407	
14	0	0	0	0	493	408	
15	0	0	0	0	493	409	
0	0	0	0	0	493	409	
1	0	0	0	0	494	410	
2	0	0	0	0	494	410	
3	0	0	0	0	495	410	
4	0	0	0	0	495	409	
5	0	0	0	0	495	408	
6	0	0	0	0	496	409	
7	0	0	0	0	496	409	
8	0	0	0	0	497	410	
9	0	0	0	0	497	411	
10	0	0	0	0	497	412	
11	0	0	0	0	497	412	
12	0	0	0	0	498	413	
13	0	0	0	0	497	410	
14	0	0	0	0	497	409	
15	0	0	0	0	497	408	
0	0	0	0	0	497	409	
1	0	0	0	0	497	408	
2	0	0	0	0	497	407	
3	0	0	0	0	497	407	
4	0	0	0	0	497	407	
5	0	0	0	0	497	408	
6	0	0	0	0	497	409	
7	0	0	0	0	497	408	
8	0	0	0	0	497	408	
9	0	0	0	0	497	411	
10	0	0	0	0	498	412	
11	0	0	0	0	499	412	
12	0	0	0	0	499	409	
13	0	0	0	0	499	407	
14	0	0	0	0	499	407	
15	0	0	0	0	499	408	
0	0	0	0	0	499	408	
1	0	0	0	0	499	409	
2	0	0	0	0	499	408	
3	0	0	0	0	500	408	
4	0	0	0	0	501	408	
5	0	0	0	0	501	408	
6	0	0	0	0	501	408	
7	0	0	0	0	500	409	
8	0	0	0	0	501	409	
9	0	0	0	0	500	411	
10	0	0	0	0	500	410	
11	0	0	0	0	501	409	
12	0	0	0	0	501	411	
13	0	0	0	0	501	409	
14	0	0	0	0	501	409	
15	0	0	0	0	501	409	
0	0	0	0	0	502	408	
1	0	0	0	0	502	409	
2	0	0	0	0	503	409	
3	0	0	0	0	503	408	
4	0	0	0	0	503	409	
5	0	0	0	0	504	408	
6	0	0	0	0	504	408	
7	0	0	0	0	504	408	
8	0	0	0	0	504	408	
9	0	0	0	0	504	408	
10	0	0	0	0	503	408	
11	0	0	0	0	503	408	
12	0	0	0	0	503	408	
13	0	0	0	0	503	407	
14	0	0	0	0	503	406	
15	0	0	0	0	504	406	
0	0	0	0	0	505	406	
1	0	0	0	0	505	407	
2	0	0	0	0	505	406	
3	0	0	0	0	505	406	
4	0	0	0	0	505	406	
5	0	0	0	0	505	405	
6	0	0	0	0	505	406	
7	0	0	0	0	505	407	
8	0	0	0	0	505	407	
9	0	0	0	0	506	408	
10	0	0	0	0	505	406	
11	0	0	0	0	506	405	
12	0	0	0	0	507	405	
13	0	0	0	0	507	405	
14	0	0	0	0	508	406	
15	0	0	0	0	508	407	
0	0	0	0	0	508	407	
1	0	0	0	0	508	408	
2	0	0	0	0	509	408	
3	0	0	0	0	510	409	
4	0	0	0	0	510	408	
5	0	0	0	0	511	408	
6	0	0	0	0	512	408	
7	0	0	0	0	512	409	
8	0	0	0	0	512	410	
9	0	0	0	0	513	411	
10	0	0	0	0	514	409	
11	0	0	0	0	514	410	
12	0	0	0	0	514	411	
13	0	0	0	0	514	411	
14	0	0	0	0	515	411	
15	0	0	0	0	515	412	
0	0	0	0	0	515	412	
1	0	0	0	0	516	413	
2	0	0	0	0	516	413	
3	0	0	0	0	516	413	
4	0	0	0	0	517	413	
5	0	0	0	0	516	413	
6	0	0	0	0	517	412	
7	0	0	0	0	517	412	
8	0	0	0	0	518	411	
9	0	0	0	0	518	411	
10	0	0	0	0	519	411	
11	0	0	0	0	519	411	
12	0	0	0	0	520	410	
13	0	0	0	0	520	409	
14	0	0	0	0	520	410	
15	0	0	0	0	520	409	
0	0	0	0	0	520	408	
1	0	0	0	0	520	409	
2	0	0	0	0	519	408	
3	0	0	0	0	519	408	
4	0	0	0	0	519	407	
5	0	0	0	0	519	407	
6	0	0	0	0	519	407	
7	0	0	0	0	519	407	
8	0	0	0	0	519	407	
9	0	0	0	0	519	407	
10	0	0	0	0	518	407	
11	0	0	0	0	518	407	
12	0	0	0	0	519	406	
13	0	0	0	0	519	405	
14	0	0	0	0	519	406	
15	0	0	0	0	520	405	
0	0	0	0	0	520	404	
1	0	0	0	0	520	405	
2	0	0	0	0	519	404	
3	0	0	0	0	519	403	
4	0	0	0	0	519	403	
5	0	0	0	0	519	403	
6	0	0	0	0	519	402	
7	0	0	0	0	519	403	
8	0	0	0	0	518	403	
9	0	0	0	0	517	403	
10	0	0	0	0	516	403	
11	0	0	0	0	515	403	
12	0	0	0	0	515	402	
13	0	0	0	0	515	402	
14	0	0	0	0	515	402	
15	0	0	0	0	515	402	
0	0	0	0	0	515	403	
1	0	0	0	0	514	403	
2	0	0	0	0	514	403	
3	0	0	0	0	513	403	
4	0	0	0	0	513	404	
5	0	0	0	0	512	403	
6	0	0	0	0	512	404	
7	0	0	0	0	511	404	
8	0	0	0	0	510	404	
9	0	0	0	0	509	405	
10	0	0	0	0	509	405	
11	0	0	0	0	509	406	
12	0	0	0	0	508	405	
13	0	0	0	0	508	405	
14	0	0	0	0	508	406	
15	0	0	0	0	507	405	
0	0	0	0	0	506	406	
1	0	0	0	0	505	407	
2	0	0	0	0	504	406	
3	0	0	0	0	504	406	
4	0	0	0	0	503	407	
5	0	0	0	0	503	406	
6	0	0	0	0	502	407	
7	0	0	0	0	502	407	
8	0	0	0	0	501	407	
9	0	0	0	0	501	408	
10	0	0	0	0	502	408	
11	0	0	0	0	501	408	
12	0	0	0	0	500	408	
13	0	0	0	0	500	408	
14	0	0	0	0	500	410	
15	0	0	0	0	500	410	
0	0	0	0	0	499	410	
1	0	0	0	0	500	411	
2	0	0	0	0	500	410	
3	0	0	0	0	499	411	
4	0	0	0	0	499	411	
5	0	0	0	0	499	411	
6	0	0	0	0	499	411	
7	0	0	0	0	500	411	
8	0	0	0	0	500	411	
9	0	0	0	0	501	412	
10	0	0	0	0	501	411	
11	0	0	0	0	501	411	
12	0	0	0	0	501	411	
13	0	0	0	0	502	411	
14	0	0	0	0	502	412	
15	0	0	0	0	502	413	
0	0	0	0	0	503	412	
1	0	0	0	0	504	413	
2	0	0	0	0	504	412	
3	0	0	0	0	503	412	
4	0	0	0	0	503	412	
5	0	0	0	0	503	411	
6	0	0	0	0	503	412	
7	0	0	0	0	503	412	
8	0	0	0	0	503	411	
9	0	0	0	0	503	412	
10	0	0	0	0	503	412	
11	0	0	0	0	503	412	
12	0	0	0	0	503	412	
13	0	0	0	0	504	412	
14	0	0	0	0	504	413	
15	0	0	0	0	503	413	
0	0	0	0	0	503	412	
1	0	0	0	0	504	413	
2	0	0	0	0	504	412	
3	0	0	0	0	504	412	
4	0	0	0	0	504	411	
5	0	0	0	0	504	411	
6	0	0	0	0	504	411	
7	0	0	0	0	504	411	
8	0	0	0	0	504	410	
9	0	0	0	0	504	411	
10	0	0	0	0	505	410	
11	0	0	0	0	505	410	
12	0	0	0	0	504	410	
13	0	0	0	0	504	410	
14	0	0	0	0	504	410	
15	0	0	0	0	504	410	
0	0	0	0	0	505	410	
1	0	0	0	0	505	411	
2	0	0	0	0	506	411	
3	0	0	0	0	506	410	
4	0	0	0	0	507	410	
5	0	0	0	0	507	409	
6	0	0	0	0	506	410	
7	0	0	0	0	507	409	
8	0	0	0	0	508	408	
9	0	0	0	0	508	409	
10	0	0	0	0	508	409	
11	0	0	0	0	507	408	
12	0	0	0	0	508	408	
13	0	0	0	0	508	408	
14	0	0	0	0	508	408	
15	0	0	0	0	508	408	
0	0	0	0	0	508	408	
1	0	0	0	0	508	409	
2	0	0	0	0	508	409	
3	0	0	0	0	508	408	
4	0	0	0	0	508	407	
5	0	0	0	0	508	408	
6	0	0	0	0	508	408	
7	0	0	0	0	508	408	
8	0	0	0	0	508	408	
9	0	0	0	0	508	408	
10	0	0	0	0	508	408	
11	0	0	0	0	508	408	
12	0	0	0	0	508	408	
13	0	0	0	0	508	408	
14	0	0	0	0	508	408	
15	0	0	0	0	508	408	
0	0	0	0	0	507	408	
1	0	0	0	0	506	409	
2	0	0	0	0	506	409	
3	0	0	0	0	507	410	
4	0	0	0	0	507	410	
5	0	0	0	0	507	409	
6	0	0	0	0	508	410	
7	0	0	0	0	508	411	
8	0	0	0	0	509	411	
9	0	0	0	0	510	412	
10	0	0	0	0	511	412	
11	0	0	0	0	512	412	
12	0	0	0	0	512	413	
13	0	0	0	0	512	413	
14	0	0	0	0	512	414	
15	0	0	0	0	512	414	
0	0	0	0	0	512	413	
1	0	0	0	0	512	414	
2	0	0	0	0	512	413	
3	0	0	0	0	512	413	
4	0	0	0	0	511	413	
5	0	0	0	0	511	412	
6	0	0	0	0	511	413	
7	0	0	0	0	511	413	
8	0	0	0	0	510	413	
9	0	0	0	0	510	413	
10	0	0	0	0	511	412	
11	0	0	0	0	510	412	
12	0	0	0	0	510	413	
13	0	0	0	0	509	413	
14	0	0	0	0	510	412	
15	0	0	0	0	511	413	
0	0	0	0	0	511	413	
1	0	0	0	0	511	413	
2	0	0	0	0	512	413	
3	0	0	0	0	512	413	
4	0	0	0	0	512	413	
5	0	0	0	0	512	413	
6	0	0	0	0	512	413	
7	0	0	0	0	511	412	
8	0	0	0	0	511	412	
9	0	0	0	0	511	413	
10	0	0	0	0	511	412	
11	0	0	0	0	511	413	
12	0	0	0	0	511	412	
13	0	0	0	0	510	411	
14	0	0	0	0	510	412	
15	0	0	0	0	510	412	
0	0	0	0	0	511	412	
1	0	0	0	0	511	413	
2	0	0	0	0	512	411	
3	0	0	0	0	512	411	
4	0	0	0	0	512	411	
5	0	0	0	0	512	412	
6	0	0	0	0	512	412	
7	0	0	0	0	512	411	
8	0	0	0	0	512	412	
9	0	0	0	0	512	412	
10	0	0	0	0	513	412	
11	0	0	0	0	513	412	
12	0	0	0	0	513	412	
13	0	0	0	0	514	411	
14	0	0	0	0	514	412	
15	0	0	0	0	515	411	
0	0	0	0	0	514	410	
1	0	0	0	0	514	411	
2	0	0	0	0	514	410	
3	0	0	0	0	514	410	
4	0	0	0	0	514	410	
5	0	0	0	0	515	410	
6	0	0	0	0	514	411	
7	0	0	0	0	514	411	
8	0	0	0	0	515	411	
9	0	0	0	0	515	412	
10	0	0	0	0	516	411	
11	0	0	0	0	516	412	
12	0	0	0	0	516	412	
13	0	0	0	0	516	411	
14	0	0	0	0	516	412	
15	0	0	0	0	516	412	
0	0	0	0	0	516	412	
1	0	0	0	0	516	412	
2	0	0	0	0	517	412	
3	0	0	0	0	516	412	
4	0	0	0	0	516	412	
5	0	0	0	0	516	412	
6	0	0	0	0	516	413	
7	0	0	0	0	516	412	
8	0	0	0	0	517	412	
9	0	0	0	0	516	412	
10	0	0	0	0	517	412	
11	0	0	0	0	517	412	
12	0	0	0	0	518	412	
13	0	0	0	0	518	412	
14	0	0	0	0	519	411	
15	0	0	0	0	519	412	
0	0	0	0	0	519	412	
1	0	0	0	0	519	412	
2	0	0	0	0	519	411	
3	0	0	0	0	519	411	
4	0	0	0	0	519	411	
5	0	0	0	0	519	411	
6	0	0	0	0	519	411	
7	0	0	0	0	519	411	
8	0	0	0	0	519	411	
9	0	0	0	0	519	412	
10	0	0	0	0	519	411	
11	0	0	0	0	520	411	
12	0	0	0	0	520	411	
13	0	0	0	0	520	410	
14	0	0	0	0	520	411	
15	0	0	0	0	521	412	
0	0	0	0	0	521	412	
1	0	0	0	0	521	412	
2	0	0	0	0	521	411	
3	0	0	0	0	521	411	
4	0	0	0	0	521	411	
5	0	0	0	0	521	411	
6	0	0	0	0	520	411	
7	0	0	0	0	521	411	
8	0	0	0	0	520	411	
9	0	0	0	0	521	411	
10	0	0	0	0	521	410	
11	0	0	0	0	521	411	
12	0	0	0	0	521	411	
13	0	0	0	0	521	410	
14	0	0	0	0	521	411	
15	0	0	0	0	522	410	
0	0	0	0	0	523	410	
1	0	0	0	0	523	411	
2	0	0	0	0	523	411	
3	0	0	0	0	522	410	
4	0	0	0	0	521	410	
5	0	0	0	0	521	409	
6	0	0	0	0	521	409	
7	0	0	0	0	521	409	
8	0	0	0	0	522	409	
9	0	0	0	0	521	409	
10	0	0	0	0	521	408	
11	0	0	0	0	521	408	
12	0	0	0	0	521	407	
13	0	0	0	0	521	407	
14	0	0	0	0	521	407	
15	0	0	0	0	521	407	
0	0	0	0	0	521	406	
1	0	0	0	0	521	407	
2	0	0	0	0	521	405	
3	0	0	0	0	521	406	
4	0	0	0	0	522	406	
5	0	0	0	0	522	406	
6	0	0	0	0	523	406	
7	0	0	0	0	523	405	
8	0	0	0	0	524	406	
9	0	0	0	0	523	406	
10	0	0	0	0	523	406	
11	0	0	0	0	523	405	
12	0	0	0	0	523	405	
13	0	0	0	0	523	405	
14	0	0	0	0	523	405	
15	0	0	0	0	522	405	
0	0	0	0	0	521	404	
1	0	0	0	0	521	405	
2	0	0	0	0	521	404	
3	0	0	0	0	521	404	
4	0	0	0	0	521	405	
5	0	0	0	0	520	404	
6	0	0	0	0	520	404	
7	0	0	0	0	520	405	
8	0	0	0	0	520	404	
9	0	0	0	0	520	405	
10	0	0	0	0	520	404	
11	0	0	0	0	519	406	
12	0	0	0	0	520	404	
13	0	0	0	0	519	405	
14	0	0	0	0	519	406	
15	0	0	0	0	519	406	
0	0	0	0	0	519	405	
1	0	0	0	0	520	407	
2	0	0	0	0	520	406	
3	0	0	0	0	520	407	
4	0	0	0	0	520	406	
5	0	0	0	0	520	406	
6	0	0	0	0	520	407	
7	0	0	0	0	519	407	
8	0	0	0	0	519	407	
9	0	0	0	0	519	408	
10	0	0	0	0	518	407	
11	0	0	0	0	518	407	
12	0	0	0	0	519	407	
13	0	0	0	0	520	407	
14	0	0	0	0	520	407	
15	0	0	0	0	521	407	
0	0	0	0	0	521	408	
1	0	0	0	0	521	409	
2	0	0	0	0	521	408	
3	0	0	0	0	519	409	
4	0	0	0	0	519	408	
5	0	0	0	0	520	408	
6	0	0	0	0	520	409	
7	0	0	0	0	520	410	
8	0	0	0	0	519	410	
9	0	0	0	0	519	411	
10	0	0	0	0	519	410	
11	0	0	0	0	518	410	
12	0	0	0	0	518	411	
13	0	0	0	0	518	410	
14	0	0	0	0	518	411	
15	0	0	0	0	519	411	
0	0	0	0	0	519	410	
1	0	0	0	0	519	411	
2	0	0	0	0	519	409	
3	0	0	0	0	519	409	
4	0	0	0	0	519	409	
5	0	0	0	0	520	409	
6	0	0	0	0	520	410	
7	0	0	0	0	520	410	
8	0	0	0	0	520	409	
9	0	0	0	0	520	409	
10	0	0	0	0	520	408	
11	0	0	0	0	519	408	
12	0	0	0	0	520	408	
13	0	0	0	0	520	408	
14	0	0	0	0	521	408	
15	0	0	0	0	520	409	
0	0	0	0	0	520	408	
1	0	0	0	0	521	410	
2	0	0	0	0	521	409	
3	0	0	0	0	521	409	
4	0	0	0	0	521	409	
5	0	0	0	0	521	408	
6	0	0	0	0	521	409	
7	0	0	0	0	521	409	
8	0	0	0	0	521	410	
9	0	0	0	0	521	410	
10	0	0	0	0	521	409	
11	0	0	0	0	522	410	
12	0	0	0	0	522	410	
13	0	0	0	0	521	411	
14	0	0	0	0	521	411	
15	0	0	0	0	520	410	
0	0	0	0	0	519	410	
1	0	0	0	0	519	411	
2	0	0	0	0	519	410	
3	0	0	0	0	519	410	
4	0	0	0	0	519	410	
5	0	0	0	0	519	411	
6	0	0	0	0	518	411	
7	0	0	0	0	519	411	
8	0	0	0	0	519	411	
9	0	0	0	0	519	412	
10	0	0	0	0	520	411	
11	0	0	0	0	520	410	
12	0	0	0	0	521	411	
13	0	0	0	0	520	410	
14	0	0	0	0	520	411	
15	0	0	0	0	520	411	
0	0	0	0	0	520	411	
1	0	0	0	0	519	413	
2	0	0	0	0	520	412	
3	0	0	0	0	520	411	
4	0	0	0	0	519	410	
5	0	0	0	0	519	410	
6	0	0	0	0	519	411	
7	0	0	0	0	518	411	
8	0	0	0	0	516	410	
9	0	0	0	0	516	411	
10	0	0	0	0	516	410	
11	0	0	0	0	516	410	
12	0	0	0	0	516	410	
13	0	0	0	0	516	410	
14	0	0	0	0	516	410	
15	0	0	0	0	516	411	
0	0	0	0	0	516	411	
1	0	0	0	0	515	411	
2	0	0	0	0	515	411	
3	0	0	0	0	515	410	
4	0	0	0	0	516	410	
5	0	0	0	0	516	410	
6	0	0	0	0	515	410	
7	0	0	0	0	514	411	
8	0	0	0	0	514	410	
9	0	0	0	0	514	411	
10	0	0	0	0	514	410	
11	0	0	0	0	514	411	
12	0	0	0	0	515	410	
13	0	0	0	0	514	410	
14	0	0	0	0	514	411	
15	0	0	0	0	515	411	
0	0	0	0	0	515	410	
1	0	0	0	0	516	411	
2	0	0	0	0	517	409	
3	0	0	0	0	517	410	
4	0	0	0	0	517	409	
5	0	0	0	0	517	409	
6	0	0	0	0	516	409	
7	0	0	0	0	516	409	
8	0	0	0	0	516	409	
9	0	0	0	0	516	411	
10	0	0	0	0	517	410	
11	0	0	0	0	517	410	
12	0	0	0	0	517	409	
13	0	0	0	0	517	409	
14	0	0	0	0	516	409	
15	0	0	0	0	517	409	
0	0	0	0	0	516	409	
1	0	0	0	0	516	410	
2	0	0	0	0	517	409	
3	0	0	0	0	517	409	
4	0	0	0	0	517	408	
5	0	0	0	0	517	409	
6	0	0	0	0	517	408	
7	0	0	0	0	517	409	
8	0	0	0	0	517	408	
9	0	0	0	0	517	409	
10	0	0	0	0	518	409	
11	0	0	0	0	517	410	
12	0	0	0	0	517	409	
13	0	0	0	0	516	409	
14	0	0	0	0	516	409	
15	0	0	0	0	515	409	
0	0	0	0	0	515	409	
1	0	0	0	0	514	410	
2	0	0	0	0	514	409	
3	0	0	0	0	514	409	
4	0	0	0	0	514	409	
5	0	0	0	0	513	408	
6	0	0	0	0	512	409	
7	0	0	0	0	511	409	
8	0	0	0	0	510	409	
9	0	0	0	0	509	410	
10	0	0	0	0	507	408	
11	0	0	0	0	504	409	
12	0	0	0	0	501	409	
13	0	0	0	0	498	409	
14	0	0	0	0	494	409	
15	0	0	0	0	491	409	
0	0	0	0	0	487	409	
1	0	0	0	0	486	411	
2	0	0	0	0	484	411	
3	0	0	0	0	484	410	
4	0	0	0	0	485	411	
5	0	0	0	0	488	410	
6	0	0	0	0	491	410	
7	0	0	0	0	496	410	
8	0	0	0	0	502	410	
9	0	0	0	0	510	412	
10	0	0	0	0	519	411	
11	0	0	0	0	528	412	
12	0	0	0	0	538	411	
13	0	0	0	0	548	411	
14	0	0	0	0	558	412	
15	0	0	0	0	569	413	
0	0	0	0	0	580	412	
1	0	0	0	0	591	413	
2	0	0	0	0	601	412	
3	0	0	0	0	611	412	
4	0	0	0	0	621	411	
5	0	0	0	0	631	411	
6	0	0	0	0	640	411	
7	0	0	0	0	648	411	
8	0	0	0	0	654	412	
9	0	0	0	0	658	412	
10	0	0	0	0	662	411	
11	0	0	0	0	664	411	
12	0	0	0	0	664	410	
13	0	0	0	0	664	409	
14	0	0	0	0	662	409	
15	0	0	0	0	659	409	
0	0	0	0	0	654	409	
1	0	0	0	0	647	411	
2	0	0	0	0	638	410	
3	0	0	0	0	628	410	
4	0	0	0	0	618	410	
5	0	0	0	0	608	410	
6	0	0	0	0	596	410	
7	0	0	0	0	583	410	
8	0	0	0	0	571	410	
9	0	0	0	0	560	410	
10	0	0	0	0	551	409	
11	0	0	0	0	542	410	
12	0	0	0	0	533	411	
13	0	0	0	0	526	410	
14	0	0	0	0	519	411	
15	0	0	0	0	514	410	
0	0	0	0	0	509	409	
1	0	0	0	0	506	410	
2	0	0	0	0	502	409	
3	0	0	0	0	499	409	
4	0	0	0	0	496	409	
5	0	0	0	0	494	408	
6	0	0	0	0	493	408	
7	0	0	0	0	491	409	
8	0	0	0	0	489	409	
9	0	0	0	0	488	410	
10	0	0	0	0	487	409	
11	0	0	0	0	486	410	
12	0	0	0	0	485	409	
13	0	0	0	0	484	409	
14	0	0	0	0	483	409	
15	0	0	0	0	483	409	
0	0	0	0	0	483	409	
1	0	0	0	0	483	409	
2	0	0	0	0	483	408	
3	0	0	0	0	483	409	
4	0	0	0	0	483	408	
5	0	0	0	0	483	408	
6	0	0	0	0	482	408	
7	0	0	0	0	482	409	
8	0	0	0	0	482	408	
9	0	0	0	0	482	409	
10	0	0	0	0	482	409	
11	0	0	0	0	482	409	
12	0	0	0	0	482	409	
13	0	0	0	0	483	408	
14	0	0	0	0	483	409	
15	0	0	0	0	483	409	
0	0	0	0	0	483	409	
1	0	0	0	0	483	410	
2	0	0	0	0	482	408	
3	0	0	0	0	483	408	
4	0	0	0	0	483	409	
5	0	0	0	0	483	408	
6	0	0	0	0	482	408	
7	0	0	0	0	483	408	
8	0	0	0	0	482	409	
9	0	0	0	0	484	409	
10	0	0	0	0	484	409	
11	0	0	0	0	485	409	
12	0	0	0	0	486	409	
13	0	0	0	0	486	408	
14	0	0	0	0	485	409	
15	0	0	0	0	486	409	
0	0	0	0	0	487	409	
1	0	0	0	0	487	409	
2	0	0	0	0	487	408	
3	0	0	0	0	487	409	
4	0	0	0	0	487	408	
5	0	0	0	0	487	408	
6	0	0	0	0	487	409	
7	0	0	0	0	487	409	
8	0	0	0	0	487	409	
9	0	0	0	0	487	411	
10	0	0	0	0	487	410	
11	0	0	0	0	487	410	
12	0	0	0	0	487	410	
13	0	0	0	0	487	411	
14	0	0	0	0	488	410	
15	0	0	0	0	488	410	
0	0	0	0	0	489	410	
1	0	0	0	0	490	411	
2	0	0	0	0	490	411	
3	0	0	0	0	490	411	
4	0	0	0	0	490	411	
5	0	0	0	0	490	410	
6	0	0	0	0	490	411	
7	0	0	0	0	490	411	
8	0	0	0	0	490	411	
9	0	0	0	0	490	411	
10	0	0	0	0	490	411	
11	0	0	0	0	490	411	
12	0	0	0	0	491	411	
13	0	0	0	0	491	411	
14	0	0	0	0	491	411	
15	0	0	0	0	491	411	
0	0	0	0	0	492	411	
1	0	0	0	0	492	411	
2	0	0	0	0	492	410	
3	0	0	0	0	492	410	
4	0	0	0	0	492	410	
5	0	0	0	0	492	409	
6	0	0	0	0	492	409	
7	0	0	0	0	492	409	
8	0	0	0	0	493	409	
9	0	0	0	0	493	410	
10	0	0	0	0	494	409	
11	0	0	0	0	494	409	
12	0	0	0	0	495	409	
13	0	0	0	0	495	408	
14	0	0	0	0	495	408	
15	0	0	0	0	494	408	
0	0	0	0	0	494	408	
1	0	0	0	0	494	409	
2	0	0	0	0	494	408	
3	0	0	0	0	494	408	
4	0	0	0	0	494	408	
5	0	0	0	0	494	408	
6	0	0	0	0	495	409	
7	0	0	0	0	495	408	
8	0	0	0	0	496	408	
9	0	0	0	0	496	408	
10	0	0	0	0	496	408	
11	0	0	0	0	496	408	
12	0	0	0	0	497	408	
13	0	0	0	0	499	408	
14	0	0	0	0	499	408	
15	0	0	0	0	499	408	
0	0	0	0	0	499	408	
1	0	0	0	0	499	409	
2	0	0	0	0	498	408	
3	0	0	0	0	498	409	
4	0	0	0	0	497	409	
5	0	0	0	0	497	409	
6	0	0	0	0	499	409	
7	0	0	0	0	499	408	
8	0	0	0	0	499	409	
9	0	0	0	0	500	409	
10	0	0	0	0	500	409	
11	0	0	0	0	500	410	
12	0	0	0	0	500	410	
13	0	0	0	0	501	409	
14	0	0	0	0	501	410	
15	0	0	0	0	502	410	
0	0	0	0	0	502	410	
1	0	0	0	0	502	411	
2	0	0	0	0	502	410	
3	0	0	0	0	502	411	
4	0	0	0	0	502	411	
5	0	0	0	0	502	410	
6	0	0	0	0	502	411	
7	0	0	0	0	503	411	
8	0	0	0	0	503	411	
9	0	0	0	0	503	412	
10	0	0	0	0	504	411	
11	0	0	0	0	503	411	
12	0	0	0	0	503	410	
13	0	0	0	0	503	410	
14	0	0	0	0	503	410	
15	0	0	0	0	504	410	
0	0	0	0	0	504	409	
1	0	0	0	0	504	411	
2	0	0	0	0	504	409	
3	0	0	0	0	505	410	
4	0	0	0	0	505	411	
5	0	0	0	0	505	410	
6	0	0	0	0	505	410	
7	0	0	0	0	505	409	
8	0	0	0	0	505	410	
9	0	0	0	0	506	410	
10	0	0	0	0	506	409	
11	0	0	0	0	507	409	
12	0	0	0	0	506	409	
13	0	0	0	0	506	409	
14	0	0	0	0	506	409	
15	0	0	0	0	505	409	
0	0	0	0	0	505	410	
1	0	0	0	0	505	410	
2	0	0	0	0	505	409	
3	0	0	0	0	507	409	
4	0	0	0	0	506	409	
5	0	0	0	0	505	409	
6	0	0	0	0	506	409	
7	0	0	0	0	506	409	
8	0	0	0	0	506	409	
9	0	0	0	0	506	409	
10	0	0	0	0	506	409	
11	0	0	0	0	507	409	
12	0	0	0	0	507	409	
13	0	0	0	0	508	409	
14	0	0	0	0	508	409	
15	0	0	0	0	508	409	
0	0	0	0	0	509	409	
1	0	0	0	0	509	410	
2	0	0	0	0	510	409	
3	0	0	0	0	510	409	
4	0	0	0	0	510	409	
5	0	0	0	0	510	409	
6	0	0	0	0	511	410	
7	0	0	0	0	512	409	
8	0	0	0	0	513	410	
9	0	0	0	0	512	409	
10	0	0	0	0	513	410	
11	0	0	0	0	514	410	
12	0	0	0	0	514	410	
13	0	0	0	0	515	409	
14	0	0	0	0	515	410	
15	0	0	0	0	515	410	
0	0	0	0	0	515	409	
1	0	0	0	0	515	411	
2	0	0	0	0	515	411	
3	0	0	0	0	515	411	
4	0	0	0	0	515	411	
5	0	0	0	0	515	410	
6	0	0	0	0	515	410	
7	0	0	0	0	514	411	
8	0	0	0	0	514	411	
9	0	0	0	0	515	412	
10	0	0	0	0	515	410	
11	0	0	0	0	516	410	
12	0	0	0	0	516	410	
13	0	0	0	0	516	411	
14	0	0	0	0	516	411	
15	0	0	0	0	516	410	
0	0	0	0	0	517	409	
1	0	0	0	0	517	410	
2	0	0	0	0	517	409	
3	0	0	0	0	516	409	
4	0	0	0	0	516	409	
5	0	0	0	0	517	409	
6	0	0	0	0	517	409	
7	0	0	0	0	517	409	
8	0	0	0	0	518	409	
9	0	0	0	0	518	410	
10	0	0	0	0	519	409	
11	0	0	0	0	519	409	
12	0	0	0	0	518	410	
13	0	0	0	0	518	409	
14	0	0	0	0	518	409	
15	0	0	0	0	518	408	
0	0	0	0	0	518	408	
1	0	0	0	0	518	409	
2	0	0	0	0	518	408	
3	0	0	0	0	519	408	
4	0	0	0	0	519	409	
5	0	0	0	0	519	409	
6	0	0	0	0	519	409	
7	0	0	0	0	519	409	
8	0	0	0	0	518	409	
9	0	0	0	0	516	409	
10	0	0	0	0	516	408	
11	0	0	0	0	516	408	
12	0	0	0	0	516	408	
13	0	0	0	0	516	408	
14	0	0	0	0	516	408	
15	0	0	0	0	515	408	
0	0	0	0	0	515	408	
1	0	0	0	0	514	408	
2	0	0	0	0	513	408	
3	0	0	0	0	513	408	
4	0	0	0	0	512	408	
5	0	0	0	0	511	407	
6	0	0	0	0	510	408	
7	0	0	0	0	510	408	
8	0	0	0	0	508	408	
9	0	0	0	0	507	408	
10	0	0	0	0	506	407	
11	0	0	0	0	506	407	
12	0	0	0	0	505	407	
13	0	0	0	0	505	406	
14	0	0	0	0	505	407	
15	0	0	0	0	504	407	
0	0	0	0	0	503	408	
1	0	0	0	0	502	407	
2	0	0	0	0	501	407	
3	0	0	0	0	500	407	
4	0	0	0	0	499	407	
5	0	0	0	0	499	407	
6	0	0	0	0	499	408	
7	0	0	0	0	499	408	
8	0	0	0	0	499	408	
9	0	0	0	0	499	409	
10	0	0	0	0	498	408	
11	0	0	0	0	498	408	
12	0	0	0	0	498	408	
13	0	0	0	0	498	407	
14	0	0	0	0	498	408	
15	0	0	0	0	497	408	
0	0	0	0	0	497	408	
1	0	0	0	0	496	409	
2	0	0	0	0	496	409	
3	0	0	0	0	497	408	
4	0	0	0	0	496	408	
5	0	0	0	0	496	408	
6	0	0	0	0	496	409	
7	0	0	0	0	496	408	
8	0	0	0	0	496	409	
9	0	0	0	0	496	409	
10	0	0	0	0	496	408	
11	0	0	0	0	496	408	
12	0	0	0	0	496	409	
13	0	0	0	0	496	408	
14	0	0	0	0	496	408	
15	0	0	0	0	496	408	
0	0	0	0	0	497	408	
1	0	0	0	0	497	409	
2	0	0	0	0	497	409	
3	0	0	0	0	498	409	
4	0	0	0	0	498	409	
5	0	0	0	0	499	408	
6	0	0	0	0	499	408	
7	0	0	0	0	499	408	
8	0	0	0	0	499	409	
9	0	0	0	0	498	409	
10	0	0	0	0	498	408	
11	0	0	0	0	498	408	
12	0	0	0	0	498	408	
13	0	0	0	0	498	408	
14	0	0	0	0	498	408	
15	0	0	0	0	498	408	
0	0	0	0	0	499	408	
1	0	0	0	0	499	408	
2	0	0	0	0	499	408	
3	0	0	0	0	500	408	
4	0	0	0	0	500	408	
5	0	0	0	0	500	407	
6	0	0	0	0	500	407	
7	0	0	0	0	500	408	
8	0	0	0	0	500	408	
9	0	0	0	0	500	408	
10	0	0	0	0	500	408	
11	0	0	0	0	500	407	
12	0	0	0	0	500	407	
13	0	0	0	0	500	407	
14	0	0	0	0	500	408	
15	0	0	0	0	500	408	
0	0	0	0	0	500	408	
1	0	0	0	0	500	409	
2	0	0	0	0	501	408	
3	0	0	0	0	501	408	
4	0	0	0	0	501	408	
5	0	0	0	0	502	408	
6	0	0	0	0	502	409	
7	0	0	0	0	503	409	
8	0	0	0	0	504	408	
9	0	0	0	0	505	409	
10	0	0	0	0	505	409	
11	0	0	0	0	505	409	
12	0	0	0	0	505	409	
13	0	0	0	0	506	409	
14	0	0	0	0	505	410	
15	0	0	0	0	505	410	
0	0	0	0	0	505	410	
1	0	0	0	0	505	411	
2	0	0	0	0	504	411	
3	0	0	0	0	504	410	
4	0	0	0	0	504	411	
5	0	0	0	0	504	410	
6	0	0	0	0	504	411	
7	0	0	0	0	503	411	
8	0	0	0	0	503	411	
9	0	0	0	0	503	413	
10	0	0	0	0	503	412	
11	0	0	0	0	503	412	
12	0	0	0	0	503	412	
13	0	0	0	0	503	412	
14	0	0	0	0	502	412	
15	0	0	0	0	502	412	
0	0	0	0	0	502	412	
1	0	0	0	0	502	413	
2	0	0	0	0	503	412	
3	0	0	0	0	504	412	
4	0	0	0	0	504	412	
5	0	0	0	0	505	412	
6	0	0	0	0	505	412	
7	0	0	0	0	505	412	
8	0	0	0	0	505	412	
9	0	0	0	0	506	412	
10	0	0	0	0	505	412	
11	0	0	0	0	505	411	
12	0	0	0	0	505	411	
13	0	0	0	0	505	410	
14	0	0	0	0	505	410	
15	0	0	0	0	504	410	
0	0	0	0	0	504	411	
1	0	0	0	0	504	412	
2	0	0	0	0	504	412	
3	0	0	0	0	504	412	
4	0	0	0	0	504	411	
5	0	0	0	0	505	411	
6	0	0	0	0	505	412	
7	0	0	0	0	505	412	
8	0	0	0	0	506	412	
9	0	0	0	0	505	412	
10	0	0	0	0	505	411	
11	0	0	0	0	505	411	
12	0	0	0	0	504	411	
13	0	0	0	0	504	412	
14	0	0	0	0	505	411	
15	0	0	0	0	505	412	
0	0	0	0	0	505	412	
1	0	0	0	0	506	412	
2	0	0	0	0	506	411	
3	0	0	0	0	507	411	
4	0	0	0	0	507	411	
5	0	0	0	0	507	411	
6	0	0	0	0	508	411	
7	0	0	0	0	508	411	
8	0	0	0	0	507	411	
9	0	0	0	0	507	411	
10	0	0	0	0	507	409	
11	0	0	0	0	506	410	
12	0	0	0	0	507	410	
13	0	0	0	0	507	409	
14	0	0	0	0	507	409	
15	0	0	0	0	505	409	
0	0	0	0	0	505	409	
1	0	0	0	0	505	409	
2	0	0	0	0	505	408	
3	0	0	0	0	506	408	
4	0	0	0	0	506	408	
5	0	0	0	0	507	407	
6	0	0	0	0	507	407	
7	0	0	0	0	507	408	
8	0	0	0	0	507	408	
9	0	0	0	0	508	408	
10	0	0	0	0	507	407	
11	0	0	0	0	508	407	
12	0	0	0	0	508	407	
13	0	0	0	0	508	406	
14	0	0	0	0	508	406	
15	0	0	0	0	509	407	
0	0	0	0	0	508	406	
1	0	0	0	0	508	408	
2	0	0	0	0	508	407	
3	0	0	0	0	508	407	
4	0	0	0	0	507	407	
5	0	0	0	0	507	407	
6	0	0	0	0	506	407	
7	0	0	0	0	506	408	
8	0	0	0	0	505	407	
9	0	0	0	0	505	408	
10	0	0	0	0	505	407	
11	0	0	0	0	505	407	
12	0	0	0	0	505	407	
13	0	0	0	0	504	407	
14	0	0	0	0	504	406	
15	0	0	0	0	505	407	
0	0	0	0	0	504	405	
1	0	0	0	0	505	408	
2	0	0	0	0	506	406	
3	0	0	0	0	507	406	
4	0	0	0	0	507	407	
5	0	0	0	0	507	406	
6	0	0	0	0	508	407	
7	0	0	0	0	508	407	
8	0	0	0	0	508	407	
9	0	0	0	0	507	409	
10	0	0	0	0	507	408	
11	0	0	0	0	508	408	
12	0	0	0	0	508	408	
13	0	0	0	0	508	408	
14	0	0	0	0	508	409	
15	0	0	0	0	508	409	
0	0	0	0	0	508	409	
1	0	0	0	0	509	410	
2	0	0	0	0	509	409	
3	0	0	0	0	509	410	
4	0	0	0	0	509	410	
5	0	0	0	0	509	410	
6	0	0	0	0	509	410	
7	0	0	0	0	508	411	
8	0	0	0	0	508	411	
9	0	0	0	0	507	411	
10	0	0	0	0	507	411	
11	0	0	0	0	508	410	
12	0	0	0	0	508	411	
13	0	0	0	0	508	410	
14	0	0	0	0	508	410	
15	0	0	0	0	508	411	
0	0	0	0	0	508	411	
1	0	0	0	0	508	412	
2	0	0	0	0	508	411	
3	0	0	0	0	508	411	
4	0	0	0	0	508	412	
5	0	0	0	0	507	411	
6	0	0	0	0	508	412	
7	0	0	0	0	508	412	
8	0	0	0	0	507	412	
9	0	0	0	0	508	413	
10	0	0	0	0	508	412	
11	0	0	0	0	508	412	
12	0	0	0	0	508	412	
13	0	0	0	0	508	412	
14	0	0	0	0	508	412	
15	0	0	0	0	508	412	
0	0	0	0	0	508	412	
1	0	0	0	0	509	413	
2	0	0	0	0	509	411	
3	0	0	0	0	509	412	
4	0	0	0	0	509	411	
5	0	0	0	0	509	411	
6	0	0	0	0	509	412	
7	0	0	0	0	509	411	
8	0	0	0	0	509	411	
9	0	0	0	0	509	411	
10	0	0	0	0	509	411	
11	0	0	0	0	508	411	
12	0	0	0	0	508	411	
13	0	0	0	0	508	411	
14	0	0	0	0	508	412	
15	0	0	0	0	507	412	
0	0	0	0	0	507	412	
1	0	0	0	0	506	411	
2	0	0	0	0	506	411	
3	0	0	0	0	505	412	
4	0	0	0	0	505	411	
5	0	0	0	0	505	410	
6	0	0	0	0	505	411	
7	0	0	0	0	506	411	
8	0	0	0	0	506	410	
9	0	0	0	0	508	411	
10	0	0	0	0	508	411	
11	0	0	0	0	509	410	
12	0	0	0	0	509	411	
13	0	0	0	0	509	410	
14	0	0	0	0	509	411	
15	0	0	0	0	508	410	
0	0	0	0	0	508	410	
1	0	0	0	0	507	411	
2	0	0	0	0	507	410	
3	0	0	0	0	507	411	
4	0	0	0	0	507	410	
5	0	0	0	0	506	410	
6	0	0	0	0	505	410	
7	0	0	0	0	505	410	
8	0	0	0	0	504	410	
9	0	0	0	0	504	411	
10	0	0	0	0	504	410	
11	0	0	0	0	504	410	
12	0	0	0	0	505	410	
13	0	0	0	0	505	410	
14	0	0	0	0	506	410	
15	0	0	0	0	506	409	
0	0	0	0	0	506	410	
1	0	0	0	0	506	411	
2	0	0	0	0	506	410	
3	0	0	0	0	507	410	
4	0	0	0	0	507	410	
5	0	0	0	0	507	410	
6	0	0	0	0	506	409	
7	0	0	0	0	506	409	
8	0	0	0	0	506	409	
9	0	0	0	0	506	411	
10	0	0	0	0	506	409	
11	0	0	0	0	506	410	
12	0	0	0	0	506	409	
13	0	0	0	0	505	408	
14	0	0	0	0	504	409	
15	0	0	0	0	505	409	
0	0	0	0	0	505	408	
1	0	0	0	0	505	409	
2	0	0	0	0	505	409	
3	0	0	0	0	505	408	
4	0	0	0	0	505	408	
5	0	0	0	0	506	408	
6	0	0	0	0	506	408	
7	0	0	0	0	506	408	
8	0	0	0	0	506	408	
9	0	0	0	0	506	409	
10	0	0	0	0	505	408	
11	0	0	0	0	505	408	
12	0	0	0	0	505	408	
13	0	0	0	0	505	408	
14	0	0	0	0	505	408	
15	0	0	0	0	506	408	
0	0	0	0	0	507	408	
1	0	0	0	0	507	408	
2	0	0	0	0	507	408	
3	0	0	0	0	507	407	
4	0	0	0	0	507	408	
5	0	0	0	0	507	408	
6	0	0	0	0	507	408	
7	0	0	0	0	508	407	
8	0	0	0	0	508	407	
9	0	0	0	0	508	408	
10	0	0	0	0	508	407	
11	0	0	0	0	508	407	
12	0	0	0	0	508	407	
13	0	0	0	0	508	407	
14	0	0	0	0	507	408	
15	0	0	0	0	507	408	
0	0	0	0	0	506	408	
1	0	0	0	0	505	408	
2	0	0	0	0	505	408	
3	0	0	0	0	505	408	
4	0	0	0	0	505	408	
5	0	0	0	0	505	408	
6	0	0	0	0	505	408	
7	0	0	0	0	506	408	
8	0	0	0	0	507	408	
9	0	0	0	0	507	409	
10	0	0	0	0	508	409	
11	0	0	0	0	509	409	
12	0	0	0	0	510	409	
13	0	0	0	0	510	408	
14	0	0	0	0	511	409	
15	0	0	0	0	511	409	
0	0	0	0	0	511	409	
1	0	0	0	0	511	410	
2	0	0	0	0	511	409	
3	0	0	0	0	511	409	
4	0	0	0	0	511	409	
5	0	0	0	0	511	408	
6	0	0	0	0	510	410	
7	0	0	0	0	510	409	
8	0	0	0	0	508	409	
9	0	0	0	0	508	411	
10	0	0	0	0	508	409	
11	0	0	0	0	508	410	
12	0	0	0	0	508	410	
13	0	0	0	0	508	410	
14	0	0	0	0	508	410	
15	0	0	0	0	508	410	
0	0	0	0	0	508	410	
1	0	0	0	0	507	411	
2	0	0	0	0	507	410	
3	0	0	0	0	506	410	
4	0	0	0	0	506	409	
5	0	0	0	0	506	409	
6	0	0	0	0	506	409	
7	0	0	0	0	505	409	
8	0	0	0	0	506	410	
9	0	0	0	0	506	410	
10	0	0	0	0	505	409	
11	0	0	0	0	505	409	
12	0	0	0	0	505	410	
13	0	0	0	0	505	409	
14	0	0	0	0	506	410	
15	0	0	0	0	505	409	
0	0	0	0	0	506	409	
1	0	0	0	0	506	410	
2	0	0	0	0	506	409	
3	0	0	0	0	506	409	
4	0	0	0	0	507	409	
5	0	0	0	0	506	409	
6	0	0	0	0	507	409	
7	0	0	0	0	507	409	
8	0	0	0	0	506	409	
9	0	0	0	0	506	410	
10	0	0	0	0	506	408	
11	0	0	0	0	507	409	
12	0	0	0	0	507	410	
13	0	0	0	0	507	409	
14	0	0	0	0	507	410	
15	0	0	0	0	507	409	
0	0	0	0	0	508	408	
1	0	0	0	0	507	410	
2	0	0	0	0	507	409	
3	0	0	0	0	507	409	
4	0	0	0	0	506	409	
5	0	0	0	0	506	408	
6	0	0	0	0	506	409	
7	0	0	0	0	506	409	
8	0	0	0	0	507	409	
9	0	0	0	0	507	410	
10	0	0	0	0	507	408	
11	0	0	0	0	507	409	
12	0	0	0	0	507	409	
13	0	0	0	0	507	408	
14	0	0	0	0	506	408	
15	0	0	0	0	505	409	
0	0	0	0	0	505	409	
1	0	0	0	0	505	410	
2	0	0	0	0	505	409	
3	0	0	0	0	505	409	
4	0	0	0	0	505	409	
5	0	0	0	0	504	409	
6	0	0	0	0	504	408	
7	0	0	0	0	504	409	
8	0	0	0	0	504	409	
9	0	0	0	0	504	409	
10	0	0	0	0	504	409	
11	0	0	0	0	503	409	
12	0	0	0	0	503	409	
13	0	0	0	0	503	409	
14	0	0	0	0	502	409	
15	0	0	0	0	500	410	
0	0	0	0	0	498	409	
1	0	0	0	0	496	410	
2	0	0	0	0	493	410	
3	0	0	0	0	490	410	
4	0	0	0	0	487	409	
5	0	0	0	0	483	409	
6	0	0	0	0	480	410	
7	0	0	0	0	478	409	
8	0	0	0	0	476	410	
9	0	0	0	0	475	411	
10	0	0	0	0	474	410	
11	0	0	0	0	475	409	
12	0	0	0	0	478	410	
13	0	0	0	0	482	409	
14	0	0	0	0	487	410	
15	0	0	0	0	493	409	
0	0	0	0	0	501	409	
1	0	0	0	0	511	411	
2	0	0	0	0	519	410	
3	0	0	0	0	529	410	
4	0	0	0	0	538	409	
5	0	0	0	0	548	409	
6	0	0	0	0	558	411	
7	0	0	0	0	569	411	
8	0	0	0	0	579	411	
9	0	0	0	0	590	411	
10	0	0	0	0	600	410	
11	0	0	0	0	609	411	
12	0	0	0	0	619	411	
13	0	0	0	0	627	410	
14	0	0	0	0	634	411	
15	0	0	0	0	640	411	
0	0	0	0	0	645	411	
1	0	0	0	0	648	412	
2	0	0	0	0	650	411	
3	0	0	0	0	649	411	
4	0	0	0	0	649	411	
5	0	0	0	0	647	411	
6	0	0	0	0	643	411	
7	0	0	0	0	636	411	
8	0	0	0	0	629	411	
9	0	0	0	0	621	412	
10	0	0	0	0	611	411	
11	0	0	0	0	601	410	
12	0	0	0	0	590	410	
13	0	0	0	0	579	410	
14	0	0	0	0	568	411	
15	0	0	0	0	557	410	
0	0	0	0	0	547	410	
1	0	0	0	0	537	411	
2	0	0	0	0	529	410	
3	0	0	0	0	522	410	
4	0	0	0	0	515	411	
5	0	0	0	0	510	409	
6	0	0	0	0	505	410	
7	0	0	0	0	500	409	
8	0	0	0	0	496	409	
9	0	0	0	0	493	411	
10	0	0	0	0	490	409	
11	0	0	0	0	488	409	
12	0	0	0	0	487	409	
13	0	0	0	0	484	409	
14	0	0	0	0	483	409	
15	0	0	0	0	482	409	
0	0	0	0	0	480	409	
1	0	0	0	0	479	410	
2	0	0	0	0	478	410	
3	0	0	0	0	476	409	
4	0	0	0	0	476	409	
5	0	0	0	0	475	409	
6	0	0	0	0	475	410	
7	0	0	0	0	475	409	
8	0	0	0	0	475	409	
9	0	0	0	0	475	410	
10	0	0	0	0	474	409	
11	0	0	0	0	474	409	
12	0	0	0	0	474	409	
13	0	0	0	0	474	409	
14	0	0	0	0	473	409	
15	0	0	0	0	474	409	
0	0	0	0	0	474	409	
1	0	0	0	0	474	410	
2	0	0	0	0	473	410	
3	0	0	0	0	474	410	
4	0	0	0	0	473	409	
5	0	0	0	0	473	409	
6	0	0	0	0	474	409	
7	0	0	0	0	473	409	
8	0	0	0	0	474	409	
9	0	0	0	0	475	410	
10	0	0	0	0	476	408	
11	0	0	0	0	476	410	
12	0	0	0	0	477	409	
13	0	0	0	0	477	409	
14	0	0	0	0	477	409	
15	0	0	0	0	478	409	
0	0	0	0	0	478	409	
1	0	0	0	0	479	410	
2	0	0	0	0	479	409	
3	0	0	0	0	479	409	
4	0	0	0	0	479	409	
5	0	0	0	0	479	409	
6	0	0	0	0	480	409	
7	0	0	0	0	480	410	
8	0	0	0	0	480	410	
9	0	0	0	0	480	410	
10	0	0	0	0	481	409	
11	0	0	0	0	482	409	
12	0	0	0	0	482	409	
13	0	0	0	0	482	409	
14	0	0	0	0	482	409	
15	0	0	0	0	482	409	
0	0	0	0	0	482	409	
1	0	0	0	0	483	411	
2	0	0	0	0	483	410	
3	0	0	0	0	484	409	
4	0	0	0	0	484	410	
5	0	0	0	0	485	409	
6	0	0	0	0	485	410	
7	0	0	0	0	486	409	
8	0	0	0	0	486	409	
9	0	0	0	0	486	410	
10	0	0	0	0	486	409	
11	0	0	0	0	486	409	
12	0	0	0	0	486	409	
13	0	0	0	0	485	409	
14	0	0	0	0	486	409	
15	0	0	0	0	485	410	
0	0	0	0	0	485	409	
1	0	0	0	0	486	411	
2	0	0	0	0	486	409	
3	0	0	0	0	486	410	
4	0	0	0	0	486	409	
5	0	0	0	0	486	408	
6	0	0	0	0	487	409	
7	0	0	0	0	487	409	
8	0	0	0	0	488	409	
9	0	0	0	0	488	409	
10	0	0	0	0	489	409	
11	0	0	0	0	489	408	
12	0	0	0	0	489	408	
13	0	0	0	0	490	409	
14	0	0	0	0	490	409	
15	0	0	0	0	490	409	
0	0	0	0	0	490	409	
1	0	0	0	0	491	410	
2	0	0	0	0	491	409	
3	0	0	0	0	490	409	
4	0	0	0	0	489	409	
5	0	0	0	0	489	409	
6	0	0	0	0	491	409	
7	0	0	0	0	491	409	
8	0	0	0	0	493	410	
9	0	0	0	0	493	410	
10	0	0	0	0	494	410	
11	0	0	0	0	495	409	
12	0	0	0	0	495	410	
13	0	0	0	0	495	409	
14	0	0	0	0	495	409	
15	0	0	0	0	495	411	
0	0	0	0	0	495	410	
1	0	0	0	0	494	411	
2	0	0	0	0	495	411	
3	0	0	0	0	495	411	
4	0	0	0	0	495	411	
5	0	0	0	0	495	411	
6	0	0	0	0	495	411	
7	0	0	0	0	495	411	
8	0	0	0	0	495	411	
9	0	0	0	0	495	412	
10	0	0	0	0	494	411	
11	0	0	0	0	495	412	
12	0	0	0	0	495	412	
13	0	0	0	0	495	412	
14	0	0	0	0	496	412	
15	0	0	0	0	496	411	
0	0	0	0	0	497	412	
1	0	0	0	0	497	412	
2	0	0	0	0	497	411	
3	0	0	0	0	498	411	
4	0	0	0	0	497	412	
5	0	0	0	0	498	411	
6	0	0	0	0	498	411	
7	0	0	0	0	497	411	
8	0	0	0	0	497	411	
9	0	0	0	0	497	411	
10	0	0	0	0	498	411	
11	0	0	0	0	498	411	
12	0	0	0	0	499	411	
13	0	0	0	0	498	411	
14	0	0	0	0	499	411	
15	0	0	0	0	499	411	
0	0	0	0	0	499	410	
1	0	0	0	0	499	411	
2	0	0	0	0	499	410	
3	0	0	0	0	499	410	
4	0	0	0	0	499	410	
5	0	0	0	0	500	409	
6	0	0	0	0	500	410	
7	0	0	0	0	500	410	
8	0	0	0	0	500	411	
9	0	0	0	0	500	411	
10	0	0	0	0	500	410	
11	0	0	0	0	501	410	
12	0	0	0	0	502	409	
13	0	0	0	0	502	409	
14	0	0	0	0	502	409	
15	0	0	0	0	501	409	
0	0	0	0	0	502	409	
1	0	0	0	0	501	410	
2	0	0	0	0	502	409	
3	0	0	0	0	503	409	
4	0	0	0	0	504	409	
5	0	0	0	0	504	409	
6	0	0	0	0	504	409	
7	0	0	0	0	504	408	
8	0	0	0	0	505	409	
9	0	0	0	0	505	409	
10	0	0	0	0	504	409	
11	0	0	0	0	504	409	
12	0	0	0	0	504	409	
13	0	0	0	0	504	409	
14	0	0	0	0	504	409	
15	0	0	0	0	505	409	
0	0	0	0	0	505	409	
1	0	0	0	0	506	410	
2	0	0	0	0	506	410	
3	0	0	0	0	506	409	
4	0	0	0	0	506	409	
5	0	0	0	0	506	409	
6	0	0	0	0	506	408	
7	0	0	0	0	507	408	
8	0	0	0	0	507	408	
9	0	0	0	0	507	409	
10	0	0	0	0	508	408	
11	0	0	0	0	509	408	
12	0	0	0	0	509	409	
13	0	0	0	0	509	408	
14	0	0	0	0	510	409	
15	0	0	0	0	510	409	
0	0	0	0	0	510	409	
1	0	0	0	0	511	410	
2	0	0	0	0	512	409	
3	0	0	0	0	512	409	
4	0	0	0	0	513	409	
5	0	0	0	0	513	409	
6	0	0	0	0	513	409	
7	0	0	0	0	513	408	
8	0	0	0	0	513	409	
9	0	0	0	0	513	409	
10	0	0	0	0	513	408	
11	0	0	0	0	513	409	
12	0	0	0	0	513	409	
13	0	0	0	0	513	408	
14	0	0	0	0	513	408	
15	0	0	0	0	513	408	
0	0	0	0	0	514	408	
1	0	0	0	0	514	409	
2	0	0	0	0	514	408	
3	0	0	0	0	514	408	
4	0	0	0	0	514	408	
5	0	0	0	0	514	408	
6	0	0	0	0	514	408	
7	0	0	0	0	514	408	
8	0	0	0	0	513	408	
9	0	0	0	0	514	408	
10	0	0	0	0	515	408	
11	0	0	0	0	515	408	
12	0	0	0	0	514	408	
13	0	0	0	0	514	407	
14	0	0	0	0	514	407	
15	0	0	0	0	513	408	
0	0	0	0	0	513	408	
1	0	0	0	0	513	409	
2	0	0	0	0	514	407	
3	0	0	0	0	514	408	
4	0	0	0	0	514	407	
5	0	0	0	0	515	408	
6	0	0	0	0	515	408	
7	0	0	0	0	515	408	
8	0	0	0	0	515	408	
9	0	0	0	0	515	408	
10	0	0	0	0	515	408	
11	0	0	0	0	515	408	
12	0	0	0	0	515	408	
13	0	0	0	0	514	408	
14	0	0	0	0	514	408	
15	0	0	0	0	514	409	
0	0	0	0	0	514	408	
1	0	0	0	0	514	409	
2	0	0	0	0	513	408	
3	0	0	0	0	513	410	
4	0	0	0	0	512	409	
5	0	0	0	0	512	410	
6	0	0	0	0	511	409	
7	0	0	0	0	511	409	
8	0	0	0	0	511	409	
9	0	0	0	0	510	411	
10	0	0	0	0	510	410	
11	0	0	0	0	509	410	
12	0	0	0	0	508	410	
13	0	0	0	0	507	410	
14	0	0	0	0	506	411	
15	0	0	0	0	506	410	
0	0	0	0	0	505	411	
1	0	0	0	0	505	411	
2	0	0	0	0	504	410	
3	0	0	0	0	503	411	
4	0	0	0	0	503	411	
5	0	0	0	0	503	410	
6	0	0	0	0	503	411	
7	0	0	0	0	502	410	
8	0	0	0	0	501	410	
9	0	0	0	0	500	412	
10	0	0	0	0	500	410	
11	0	0	0	0	500	411	
12	0	0	0	0	500	411	
13	0	0	0	0	500	410	
14	0	0	0	0	499	410	
15	0	0	0	0	499	410	
0	0	0	0	0	499	410	
1	0	0	0	0	499	411	
2	0	0	0	0	498	410	
3	0	0	0	0	497	411	
4	0	0	0	0	497	411	
5	0	0	0	0	497	411	
6	0	0	0	0	497	411	
7	0	0	0	0	497	411	
8	0	0	0	0	496	410	
9	0	0	0	0	496	411	
10	0	0	0	0	496	410	
11	0	0	0	0	496	409	
12	0	0	0	0	496	409	
13	0	0	0	0	495	409	
14	0	0	0	0	495	410	
15	0	0	0	0	495	410	
0	0	0	0	0	495	410	
1	0	0	0	0	495	411	
2	0	0	0	0	495	409	
3	0	0	0	0	495	409	
4	0	0	0	0	495	409	
5	0	0	0	0	494	409	
6	0	0	0	0	494	410	
7	0	0	0	0	494	409	
8	0	0	0	0	493	408	
9	0	0	0	0	493	409	
10	0	0	0	0	493	408	
11	0	0	0	0	494	408	
12	0	0	0	0	494	408	
13	0	0	0	0	494	409	
14	0	0	0	0	494	408	
15	0	0	0	0	495	408	
0	0	0	0	0	495	408	
1	0	0	0	0	495	409	
2	0	0	0	0	496	408	
3	0	0	0	0	496	408	
4	0	0	0	0	496	408	
5	0	0	0	0	496	408	
6	0	0	0	0	495	408	
7	0	0	0	0	496	408	
8	0	0	0	0	496	408	
9	0	0	0	0	496	408	
10	0	0	0	0	497	408	
11	0	0	0	0	497	408	
12	0	0	0	0	497	408	
13	0	0	0	0	497	408	
14	0	0	0	0	498	409	
15	0	0	0	0	498	408	
0	0	0	0	0	498	408	
1	0	0	0	0	498	409	
2	0	0	0	0	499	408	
3	0	0	0	0	499	408	
4	0	0	0	0	500	409	
5	0	0	0	0	500	409	
6	0	0	0	0	501	409	
7	0	0	0	0	502	409	
8	0	0	0	0	502	408	
9	0	0	0	0	502	409	
10	0	0	0	0	503	408	
11	0	0	0	0	502	408	
12	0	0	0	0	502	408	
13	0	0	0	0	502	408	
14	0	0	0	0	502	409	
15	0	0	0	0	501	409	
0	0	0	0	0	500	409	
1	0	0	0	0	500	410	
2	0	0	0	0	501	409	
3	0	0	0	0	501	410	
4	0	0	0	0	501	409	
5	0	0	0	0	501	409	
6	0	0	0	0	502	409	
7	0	0	0	0	502	409	
8	0	0	0	0	502	409	
9	0	0	0	0	502	410	
10	0	0	0	0	503	409	
11	0	0	0	0	503	409	
12	0	0	0	0	503	409	
13	0	0	0	0	503	409	
14	0	0	0	0	503	409	
15	0	0	0	0	503	409	
0	0	0	0	0	504	409	
1	0	0	0	0	504	410	
2	0	0	0	0	503	410	
3	0	0	0	0	502	410	
4	0	0	0	0	501	410	
5	0	0	0	0	501	409	
6	0	0	0	0	501	410	
7	0	0	0	0	501	409	
8	0	0	0	0	502	409	
9	0	0	0	0	502	409	
10	0	0	0	0	501	410	
11	0	0	0	0	502	409	
12	0	0	0	0	503	409	
13	0	0	0	0	503	409	
14	0	0	0	0	504	408	
15	0	0	0	0	504	409	
0	0	0	0	0	504	409	
1	0	0	0	0	505	409	
2	0	0	0	0	505	409	
3	0	0	0	0	505	409	
4	0	0	0	0	505	410	
5	0	0	0	0	505	409	
6	0	0	0	0	505	409	
7	0	0	0	0	505	410	
8	0	0	0	0	506	409	
9	0	0	0	0	506	409	
10	0	0	0	0	505	409	
11	0	0	0	0	505	409	
12	0	0	0	0	505	409	
13	0	0	0	0	505	408	
14	0	0	0	0	505	408	
15	0	0	0	0	505	409	
0	0	0	0	0	505	409	
1	0	0	0	0	505	410	
2	0	0	0	0	504	410	
3	0	0	0	0	504	409	
4	0	0	0	0	505	409	
5	0	0	0	0	505	409	
6	0	0	0	0	506	410	
7	0	0	0	0	506	410	
8	0	0	0	0	506	410	
9	0	0	0	0	506	410	
10	0	0	0	0	506	409	
11	0	0	0	0	507	409	
12	0	0	0	0	508	409	
13	0	0	0	0	507	409	
14	0	0	0	0	507	409	
15	0	0	0	0	506	409	
0	0	0	0	0	506	410	
1	0	0	0	0	505	411	
2	0	0	0	0	505	410	
3	0	0	0	0	506	409	
4	0	0	0	0	506	409	
5	0	0	0	0	506	408	
6	0	0	0	0	506	408	
7	0	0	0	0	506	409	
8	0	0	0	0	506	408	
9	0	0	0	0	505	409	
10	0	0	0	0	505	408	
11	0	0	0	0	505	409	
12	0	0	0	0	506	409	
13	0	0	0	0	506	409	
14	0	0	0	0	506	409	
15	0	0	0	0	506	409	
0	0	0	0	0	507	409	
1	0	0	0	0	507	410	
2	0	0	0	0	508	409	
3	0	0	0	0	508	409	
4	0	0	0	0	508	409	
5	0	0	0	0	508	409	
6	0	0	0	0	508	409	
7	0	0	0	0	508	409	
8	0	0	0	0	509	409	
9	0	0	0	0	509	408	
10	0	0	0	0	510	407	
11	0	0	0	0	510	405	
12	0	0	0	0	510	405	
13	0	0	0	0	511	408	
14	0	0	0	0	510	408	
15	0	0	0	0	510	406	
0	0	0	0	0	510	408	
1	0	0	0	0	511	411	
2	0	0	0	0	511	411	
3	0	0	0	0	511	412	
4	0	0	0	0	511	415	
5	0	0	0	0	511	415	
6	0	0	0	0	512	415	
7	0	0	0	0	512	415	
8	0	0	0	0	512	415	
9	0	0	0	0	512	415	
10	0	0	0	0	511	414	
11	0	0	0	0	511	413	
12	0	0	0	0	512	413	
13	0	0	0	0	512	412	
14	0	0	0	0	512	412	
15	0	0	0	0	512	412	
0	0	0	0	0	513	412	
1	0	0	0	0	513	413	
2	0	0	0	0	513	412	
3	0	0	0	0	513	412	
4	0	0	0	0	512	412	
5	0	0	0	0	513	412	
6	0	0	0	0	512	412	
7	0	0	0	0	512	411	
8	0	0	0	0	513	411	
9	0	0	0	0	512	411	
10	0	0	0	0	512	410	
11	0	0	0	0	512	409	
12	0	0	0	0	512	409	
13	0	0	0	0	512	409	
14	0	0	0	0	512	408	
15	0	0	0	0	511	408	
0	0	0	0	0	511	409	
1	0	0	0	0	512	411	
2	0	0	0	0	512	409	
3	0	0	0	0	512	409	
4	0	0	0	0	513	410	
5	0	0	0	0	513	409	
6	0	0	0	0	513	409	
7	0	0	0	0	513	408	
8	0	0	0	0	513	408	
9	0	0	0	0	513	408	
10	0	0	0	0	513	407	
11	0	0	0	0	514	408	
12	0	0	0	0	514	407	
13	0	0	0	0	514	407	
14	0	0	0	0	514	408	
15	0	0	0	0	514	408	
0	0	0	0	0	514	407	
1	0	0	0	0	514	407	
2	0	0	0	0	515	408	
3	0	0	0	0	514	408	
4	0	0	0	0	513	408	
5	0	0	0	0	513	407	
6	0	0	0	0	513	407	
7	0	0	0	0	513	407	
8	0	0	0	0	513	407	
9	0	0	0	0	513	408	
10	0	0	0	0	514	407	
11	0	0	0	0	514	407	
12	0	0	0	0	514	407	
13	0	0	0	0	515	407	
14	0	0	0	0	515	407	
15	0	0	0	0	515	406	
0	0	0	0	0	516	407	
1	0	0	0	0	516	408	
2	0	0	0	0	516	407	
3	0	0	0	0	517	407	
4	0	0	0	0	517	407	
5	0	0	0	0	517	407	
6	0	0	0	0	516	407	
7	0	0	0	0	516	408	
8	0	0	0	0	516	408	
9	0	0	0	0	515	408	
10	0	0	0	0	515	407	
11	0	0	0	0	516	407	
12	0	0	0	0	515	407	
13	0	0	0	0	515	406	
14	0	0	0	0	515	408	
15	0	0	0	0	515	408	
0	0	0	0	0	516	407	
1	0	0	0	0	516	408	
2	0	0	0	0	517	407	
3	0	0	0	0	518	407	
4	0	0	0	0	518	407	
5	0	0	0	0	518	408	
6	0	0	0	0	517	408	
7	0	0	0	0	517	407	
8	0	0	0	0	516	408	
9	0	0	0	0	517	408	
10	0	0	0	0	517	408	
11	0	0	0	0	517	408	
12	0	0	0	0	517	409	
13	0	0	0	0	517	408	
14	0	0	0	0	518	408	
15	0	0	0	0	518	408	
0	0	0	0	0	519	409	
1	0	0	0	0	519	410	
2	0	0	0	0	519	409	
3	0	0	0	0	519	409	
4	0	0	0	0	519	410	
5	0	0	0	0	519	410	
6	0	0	0	0	519	410	
7	0	0	0	0	518	410	
8	0	0	0	0	517	411	
9	0	0	0	0	516	411	
10	0	0	0	0	517	410	
11	0	0	0	0	517	411	
12	0	0	0	0	517	411	
13	0	0	0	0	517	410	
14	0	0	0	0	518	411	
15	0	0	0	0	519	412	
0	0	0	0	0	518	411	
1	0	0	0	0	518	412	
2	0	0	0	0	518	412	
3	0	0	0	0	517	412	
4	0	0	0	0	518	412	
5	0	0	0	0	518	412	
6	0	0	0	0	517	412	
7	0	0	0	0	518	412	
8	0	0	0	0	517	412	
9	0	0	0	0	517	413	
10	0	0	0	0	517	412	
11	0	0	0	0	516	412	
12	0	0	0	0	516	411	
13	0	0	0	0	516	412	
14	0	0	0	0	517	412	
15	0	0	0	0	516	412	
0	0	0	0	0	515	412	
1	0	0	0	0	515	412	
2	0	0	0	0	515	411	
3	0	0	0	0	515	412	
4	0	0	0	0	515	411	
5	0	0	0	0	516	411	
6	0	0	0	0	517	411	
7	0	0	0	0	518	411	
8	0	0	0	0	518	411	
9	0	0	0	0	518	412	
10	0	0	0	0	518	411	
11	0	0	0	0	518	410	
12	0	0	0	0	518	410	
13	0	0	0	0	519	410	
14	0	0	0	0	519	410	
15	0	0	0	0	518	410	
0	0	0	0	0	518	410	
1	0	0	0	0	518	411	
2	0	0	0	0	518	409	
3	0	0	0	0	518	410	
4	0	0	0	0	518	410	
5	0	0	0	0	517	409	
6	0	0	0	0	517	410	
7	0	0	0	0	518	410	
8	0	0	0	0	517	410	
9	0	0	0	0	517	411	
10	0	0	0	0	517	410	
11	0	0	0	0	517	409	
12	0	0	0	0	517	409	
13	0	0	0	0	517	409	
14	0	0	0	0	517	408	
15	0	0	0	0	517	409	
0	0	0	0	0	516	408	
1	0	0	0	0	516	409	
2	0	0	0	0	515	408	
3	0	0	0	0	515	410	
4	0	0	0	0	515	409	
5	0	0	0	0	515	409	
6	0	0	0	0	515	409	
7	0	0	0	0	515	410	
8	0	0	0	0	515	409	
9	0	0	0	0	513	411	
10	0	0	0	0	513	409	
11	0	0	0	0	513	410	
12	0	0	0	0	512	409	
13	0	0	0	0	512	409	
14	0	0	0	0	514	409	
15	0	0	0	0	515	409	
0	0	0	0	0	515	409	
1	0	0	0	0	515	410	
2	0	0	0	0	515	409	
3	0	0	0	0	515	409	
4	0	0	0	0	514	409	
5	0	0	0	0	515	409	
6	0	0	0	0	515	410	
7	0	0	0	0	515	410	
8	0	0	0	0	517	410	
9	0	0	0	0	517	412	
10	0	0	0	0	517	411	
11	0	0	0	0	517	411	
12	0	0	0	0	518	411	
13	0	0	0	0	517	410	
14	0	0	0	0	516	410	
15	0	0	0	0	517	411	
0	0	0	0	0	517	411	
1	0	0	0	0	517	411	
2	0	0	0	0	516	411	
3	0	0	0	0	516	411	
4	0	0	0	0	517	411	
5	0	0	0	0	516	410	
6	0	0	0	0	516	410	
7	0	0	0	0	516	410	
8	0	0	0	0	515	410	
9	0	0	0	0	516	411	
10	0	0	0	0	516	410	
11	0	0	0	0	516	410	
12	0	0	0	0	516	410	
13	0	0	0	0	516	409	
14	0	0	0	0	516	409	
15	0	0	0	0	516	409	
0	0	0	0	0	516	409	
1	0	0	0	0	516	411	
2	0	0	0	0	516	410	
3	0	0	0	0	516	410	
4	0	0	0	0	516	410	
5	0	0	0	0	516	408	
6	0	0	0	0	516	409	
7	0	0	0	0	517	409	
8	0	0	0	0	517	409	
9	0	0	0	0	517	410	
10	0	0	0	0	517	409	
11	0	0	0	0	517	410	
12	0	0	0	0	516	409	
13	0	0	0	0	516	408	
14	0	0	0	0	515	409	
15	0	0	0	0	514	409	
0	0	0	0	0	513	408	
1	0	0	0	0	513	409	
2	0	0	0	0	512	408	
3	0	0	0	0	512	409	
4	0	0	0	0	511	408	
5	0	0	0	0	510	407	
6	0	0	0	0	510	408	
7	0	0	0	0	511	408	
8	0	0	0	0	511	408	
9	0	0	0	0	510	409	
10	0	0	0	0	510	408	
11	0	0	0	0	510	407	
12	0	0	0	0	511	408	
13	0	0	0	0	511	407	
14	0	0	0	0	510	408	
15	0	0	0	0	510	408	
0	0	0	0	0	510	407	
1	0	0	0	0	511	408	
2	0	0	0	0	511	408	
3	0	0	0	0	511	408	
4	0	0	0	0	511	408	
5	0	0	0	0	511	408	
6	0	0	0	0	511	408	
7	0	0	0	0	510	408	
8	0	0	0	0	509	408	
9	0	0	0	0	509	408	
10	0	0	0	0	509	408	
11	0	0	0	0	509	408	
12	0	0	0	0	510	408	
13	0	0	0	0	511	408	
14	0	0	0	0	511	408	
15	0	0	0	0	510	408	
0	0	0	0	0	510	408	
1	0	0	0	0	510	408	
2	0	0	0	0	511	408	
3	0	0	0	0	511	408	
4	0	0	0	0	510	408	
5	0	0	0	0	510	408	
6	0	0	0	0	511	408	
7	0	0	0	0	511	408	
8	0	0	0	0	512	408	
9	0	0	0	0	512	409	
10	0	0	0	0	511	408	
11	0	0	0	0	512	407	
12	0	0	0	0	512	408	
13	0	0	0	0	512	408	
14	0	0	0	0	512	408	
15	0	0	0	0	512	407	
0	0	0	0	0	512	408	
1	0	0	0	0	513	409	
2	0	0	0	0	513	408	
3	0	0	0	0	513	408	
4	0	0	0	0	512	408	
5	0	0	0	0	512	408	
6	0	0	0	0	511	408	
7	0	0	0	0	512	408	
8	0	0	0	0	512	408	
9	0	0	0	0	511	410	
10	0	0	0	0	510	408	
11	0	0	0	0	510	408	
12	0	0	0	0	509	409	
13	0	0	0	0	508	408	
14	0	0	0	0	508	409	
15	0	0	0	0	507	409	
0	0	0	0	0	506	409	
1	0	0	0	0	505	409	
2	0	0	0	0	504	408	
3	0	0	0	0	503	408	
4	0	0	0	0	503	409	
5	0	0	0	0	502	408	
6	0	0	0	0	500	409	
7	0	0	0	0	497	409	
8	0	0	0	0	494	409	
9	0	0	0	0	491	409	
10	0	0	0	0	487	409	
11	0	0	0	0	484	409	
12	0	0	0	0	481	408	
13	0	0	0	0	479	409	
14	0	0	0	0	477	409	
15	0	0	0	0	477	409	
0	0	0	0	0	477	410	
1	0	0	0	0	479	411	
2	0	0	0	0	482	410	
3	0	0	0	0	486	410	
4	0	0	0	0	491	410	
5	0	0	0	0	499	409	
6	0	0	0	0	508	409	
7	0	0	0	0	517	410	
8	0	0	0	0	527	409	
9	0	0	0	0	537	410	
10	0	0	0	0	547	409	
11	0	0	0	0	558	409	
12	0	0	0	0	569	410	
13	0	0	0	0	580	409	
14	0	0	0	0	591	408	
15	0	0	0	0	600	408	
0	0	0	0	0	610	408	
1	0	0	0	0	620	410	
2	0	0	0	0	628	409	
3	0	0	0	0	634	408	
4	0	0	0	0	639	408	
5	0	0	0	0	644	408	
6	0	0	0	0	647	409	
7	0	0	0	0	648	409	
8	0	0	0	0	648	409	
9	0	0	0	0	648	411	
10	0	0	0	0	647	410	
11	0	0	0	0	644	411	
12	0	0	0	0	638	411	
13	0	0	0	0	630	410	
14	0	0	0	0	621	411	
15	0	0	0	0	612	411	
0	0	0	0	0	603	411	
1	0	0	0	0	594	412	
2	0	0	0	0	583	411	
3	0	0	0	0	573	411	
4	0	0	0	0	563	411	
5	0	0	0	0	553	411	
6	0	0	0	0	543	411	
7	0	0	0	0	535	411	
8	0	0	0	0	527	412	
9	0	0	0	0	520	412	
10	0	0	0	0	515	411	
11	0	0	0	0	509	411	
12	0	0	0	0	505	411	
13	0	0	0	0	501	411	
14	0	0	0	0	497	411	
15	0	0	0	0	495	411	
0	0	0	0	0	492	411	
1	0	0	0	0	491	412	
2	0	0	0	0	490	412	
3	0	0	0	0	488	412	
4	0	0	0	0	486	413	
5	0	0	0	0	485	412	
6	0	0	0	0	484	413	
7	0	0	0	0	483	414	
8	0	0	0	0	483	414	
9	0	0	0	0	482	413	
10	0	0	0	0	481	415	
11	0	0	0	0	481	415	
12	0	0	0	0	481	415	
13	0	0	0	0	481	415	
14	0	0	0	0	481	415	
15	0	0	0	0	481	415	
0	0	0	0	0	481	415	
1	0	0	0	0	481	415	
2	0	0	0	0	481	415	
3	0	0	0	0	481	414	
4	0	0	0	0	482	414	
5	0	0	0	0	483	413	
6	0	0	0	0	484	413	
7	0	0	0	0	485	413	
8	0	0	0	0	485	413	
9	0	0	0	0	485	413	
10	0	0	0	0	485	413	
11	0	0	0	0	485	412	
12	0	0	0	0	484	412	
13	0	0	0	0	484	411	
14	0	0	0	0	483	411	
15	0	0	0	0	483	410	
0	0	0	0	0	483	409	
1	0	0	0	0	484	410	
2	0	0	0	0	484	409	
3	0	0	0	0	483	408	
4	0	0	0	0	483	407	
5	0	0	0	0	483	406	
6	0	0	0	0	484	407	
7	0	0	0	0	484	407	
8	0	0	0	0	484	407	
9	0	0	0	0	484	407	
10	0	0	0	0	484	406	
11	0	0	0	0	484	405	
12	0	0	0	0	485	405	
13	0	0	0	0	485	404	
14	0	0	0	0	484	404	
15	0	0	0	0	484	404	
0	0	0	0	0	484	404	
1	0	0	0	0	485	405	
2	0	0	0	0	486	403	
3	0	0	0	0	485	403	
4	0	0	0	0	485	403	
5	0	0	0	0	485	403	
6	0	0	0	0	486	403	
7	0	0	0	0	486	401	
8	0	0	0	0	487	403	
9	0	0	0	0	488	404	
10	0	0	0	0	488	403	
11	0	0	0	0	489	402	
12	0	0	0	0	489	402	
13	0	0	0	0	490	402	
14	0	0	0	0	491	403	
15	0	0	0	0	491	402	
0	0	0	0	0	492	403	
1	0	0	0	0	492	403	
2	0	0	0	0	493	403	
3	0	0	0	0	493	403	
4	0	0	0	0	493	403	
5	0	0	0	0	494	403	
6	0	0	0	0	494	402	
7	0	0	0	0	494	402	
8	0	0	0	0	494	403	
9	0	0	0	0	494	404	
10	0	0	0	0	493	403	
11	0	0	0	0	492	403	
12	0	0	0	0	492	404	
13	0	0	0	0	492	403	
14	0	0	0	0	493	404	
15	0	0	0	0	493	404	
0	0	0	0	0	494	405	
1	0	0	0	0	495	405	
2	0	0	0	0	496	404	
3	0	0	0	0	496	405	
4	0	0	0	0	497	405	
5	0	0	0	0	497	405	
6	0	0	0	0	498	405	
7	0	0	0	0	498	405	
8	0	0	0	0	498	406	
9	0	0	0	0	498	406	
10	0	0	0	0	498	406	
11	0	0	0	0	498	406	
12	0	0	0	0	499	406	
13	0	0	0	0	498	406	
14	0	0	0	0	497	407	
15	0	0	0	0	497	407	
0	0	0	0	0	496	407	
1	0	0	0	0	497	407	
2	0	0	0	0	497	407	
3	0	0	0	0	498	407	
4	0	0	0	0	498	407	
5	0	0	0	0	499	406	
6	0	0	0	0	499	407	
7	0	0	0	0	500	407	
8	0	0	0	0	499	407	
9	0	0	0	0	501	408	
10	0	0	0	0	501	407	
11	0	0	0	0	501	408	
12	0	0	0	0	501	408	
13	0	0	0	0	501	407	
14	0	0	0	0	501	408	
15	0	0	0	0	501	407	
0	0	0	0	0	501	407	
1	0	0	0	0	501	408	
2	0	0	0	0	502	407	
3	0	0	0	0	502	407	
4	0	0	0	0	502	407	
5	0	0	0	0	501	407	
6	0	0	0	0	501	406	
7	0	0	0	0	502	407	
8	0	0	0	0	502	407	
9	0	0	0	0	503	408	
10	0	0	0	0	503	407	
11	0	0	0	0	503	407	
12	0	0	0	0	504	407	
13	0	0	0	0	504	406	
14	0	0	0	0	504	407	
15	0	0	0	0	503	407	
0	0	0	0	0	503	407	
1	0	0	0	0	503	407	
2	0	0	0	0	503	407	
3	0	0	0	0	503	406	
4	0	0	0	0	504	407	
5	0	0	0	0	504	406	
6	0	0	0	0	504	407	
7	0	0	0	0	504	407	
8	0	0	0	0	504	407	
9	0	0	0	0	505	407	
10	0	0	0	0	505	406	
11	0	0	0	0	505	407	
12	0	0	0	0	504	407	
13	0	0	0	0	504	407	
14	0	0	0	0	504	407	
15	0	0	0	0	505	407	
0	0	0	0	0	505	407	
1	0	0	0	0	506	409	
2	0	0	0	0	506	408	
3	0	0	0	0	506	408	
4	0	0	0	0	507	408	
5	0	0	0	0	507	408	
6	0	0	0	0	507	409	
7	0	0	0	0	507	409	
8	0	0	0	0	508	409	
9	0	0	0	0	508	410	
10	0	0	0	0	507	409	
11	0	0	0	0	506	409	
12	0	0	0	0	505	409	
13	0	0	0	0	505	408	
14	0	0	0	0	505	409	
15	0	0	0	0	506	409	
0	0	0	0	0	506	410	
1	0	0	0	0	505	410	
2	0	0	0	0	506	409	
3	0	0	0	0	507	409	
4	0	0	0	0	508	409	
5	0	0	0	0	508	409	
6	0	0	0	0	508	410	
7	0	0	0	0	508	409	
8	0	0	0	0	508	409	
9	0	0	0	0	508	410	
10	0	0	0	0	508	409	
11	0	0	0	0	507	409	
12	0	0	0	0	508	409	
13	0	0	0	0	508	408	
14	0	0	0	0	509	409	
15	0	0	0	0	509	408	
0	0	0	0	0	510	409	
1	0	0	0	0	510	409	
2	0	0	0	0	510	408	
3	0	0	0	0	511	408	
4	0	0	0	0	511	408	
5	0	0	0	0	512	408	
6	0	0	0	0	512	408	
7	0	0	0	0	512	408	
8	0	0	0	0	512	408	
9	0	0	0	0	512	409	
10	0	0	0	0	513	408	
11	0	0	0	0	513	408	
12	0	0	0	0	513	409	
13	0	0	0	0	513	408	
14	0	0	0	0	513	409	
15	0	0	0	0	513	410	
0	0	0	0	0	513	409	
1	0	0	0	0	513	410	
2	0	0	0	0	514	409	
3	0	0	0	0	514	409	
4	0	0	0	0	514	410	
5	0	0	0	0	514	409	
6	0	0	0	0	514	410	
7	0	0	0	0	515	409	
8	0	0	0	0	515	410	
9	0	0	0	0	515	411	
10	0	0	0	0	516	410	
11	0	0	0	0	516	410	
12	0	0	0	0	516	410	
13	0	0	0	0	516	410	
14	0	0	0	0	517	411	
15	0	0	0	0	517	410	
0	0	0	0	0	517	411	
1	0	0	0	0	517	412	
2	0	0	0	0	517	412	
3	0	0	0	0	517	412	
4	0	0	0	0	517	412	
5	0	0	0	0	517	412	
6	0	0	0	0	517	413	
7	0	0	0	0	517	413	
8	0	0	0	0	517	413	
9	0	0	0	0	517	414	
10	0	0	0	0	517	413	
11	0	0	0	0	518	414	
12	0	0	0	0	518	414	
13	0	0	0	0	518	414	
14	0	0	0	0	517	414	
15	0	0	0	0	517	414	
0	0	0	0	0	517	415	
1	0	0	0	0	517	415	
2	0	0	0	0	518	415	
3	0	0	0	0	518	415	
4	0	0	0	0	518	415	
5	0	0	0	0	518	415	
6	0	0	0	0	517	415	
7	0	0	0	0	516	415	
8	0	0	0	0	515	415	
9	0	0	0	0	514	416	
10	0	0	0	0	514	415	
11	0	0	0	0	513	416	
12	0	0	0	0	512	416	
13	0	0	0	0	512	415	
14	0	0	0	0	511	416	
15	0	0	0	0	511	416	
0	0	0	0	0	509	416	
1	0	0	0	0	508	417	
2	0	0	0	0	508	417	
3	0	0	0	0	507	416	
4	0	0	0	0	506	416	
5	0	0	0	0	506	416	
6	0	0	0	0	505	416	
7	0	0	0	0	505	417	
8	0	0	0	0	504	417	
9	0	0	0	0	503	418	
10	0	0	0	0	502	418	
11	0	0	0	0	502	418	
12	0	0	0	0	501	417	
13	0	0	0	0	500	417	
14	0	0	0	0	500	417	
15	0	0	0	0	499	417	
0	0	0	0	0	499	417	
1	0	0	0	0	498	418	
2	0	0	0	0	498	417	
3	0	0	0	0	498	418	
4	0	0	0	0	498	418	
5	0	0	0	0	497	417	
6	0	0	0	0	496	417	
7	0	0	0	0	497	417	
8	0	0	0	0	498	418	
9	0	0	0	0	497	418	
10	0	0	0	0	496	417	
11	0	0	0	0	496	417	
12	0	0	0	0	495	417	
13	0	0	0	0	495	417	
14	0	0	0	0	494	417	
15	0	0	0	0	494	418	
0	0	0	0	0	494	417	
1	0	0	0	0	493	418	
2	0	0	0	0	493	417	
3	0	0	0	0	492	417	
4	0	0	0	0	493	417	
5	0	0	0	0	493	416	
6	0	0	0	0	493	416	
7	0	0	0	0	493	416	
8	0	0	0	0	494	417	
9	0	0	0	0	494	417	
10	0	0	0	0	494	416	
11	0	0	0	0	495	416	
12	0	0	0	0	496	416	
13	0	0	0	0	496	417	
14	0	0	0	0	496	417	
15	0	0	0	0	497	417	
0	0	0	0	0	497	417	
1	0	0	0	0	498	417	
2	0	0	0	0	498	417	
3	0	0	0	0	498	417	
4	0	0	0	0	498	417	
5	0	0	0	0	498	416	
6	0	0	0	0	499	417	
7	0	0	0	0	497	417	
8	0	0	0	0	497	417	
9	0	0	0	0	497	417	
10	0	0	0	0	497	416	
11	0	0	0	0	496	416	
12	0	0	0	0	496	416	
13	0	0	0	0	497	416	
14	0	0	0	0	497	417	
15	0	0	0	0	497	416	
0	0	0	0	0	497	416	
1	0	0	0	0	497	416	
2	0	0	0	0	496	416	
3	0	0	0	0	497	416	
4	0	0	0	0	497	416	
5	0	0	0	0	497	416	
6	0	0	0	0	497	416	
7	0	0	0	0	498	416	
8	0	0	0	0	499	416	
9	0	0	0	0	499	417	
10	0	0	0	0	500	416	
11	0	0	0	0	501	416	
12	0	0	0	0	502	415	
13	0	0	0	0	502	415	
14	0	0	0	0	502	415	
15	0	0	0	0	503	415	
0	0	0	0	0	502	415	
1	0	0	0	0	503	415	
2	0	0	0	0	503	415	
3	0	0	0	0	503	415	
4	0	0	0	0	504	414	
5	0	0	0	0	504	414	
6	0	0	0	0	503	414	
7	0	0	0	0	503	414	
8	0	0	0	0	502	414	
9	0	0	0	0	501	414	
10	0	0	0	0	501	413	
11	0	0	0	0	501	413	
12	0	0	0	0	501	413	
13	0	0	0	0	500	413	
14	0	0	0	0	500	413	
15	0	0	0	0	500	412	
0	0	0	0	0	500	411	
1	0	0	0	0	501	412	
2	0	0	0	0	502	411	
3	0	0	0	0	502	411	
