# OpenSignals Text File Format
# {"98:D3:C1:FD:2F:E5":{"sensor":["RAW","RAW"],"device name":"98:D3:C1:FD:2F:E5","column":["nSeq","I1","I2","O1","O2","A2","A5"],"sync interval":2,"time":"16:40:34","comments":"","device connection":"BTH98:D3:C1:FD:2F:E5","channels":[2,5],"date":"2021-09-26","mode":0,"digital IO":[0,0,1,1],"firmware version":0,"device":"bitalino_rev","position":0,"sampling rate":1000,"label":["A2","A5"],"resolution":[10,10],"special":[{},{}]}}
# EndOfHeader
0	0	0	0	0	397	615
1	0	0	0	0	393	616
2	0	0	0	0	391	616
3	0	0	0	0	391	616
4	0	0	0	0	393	616
5	0	0	0	0	397	617
6	0	0	0	0	401	616
7	0	0	0	0	406	616
8	0	0	0	0	412	616
9	0	0	0	0	419	617
10	0	0	0	0	425	617
11	0	0	0	0	430	616
12	0	0	0	0	435	616
13	0	0	0	0	441	616
14	0	0	0	0	450	616
15	0	0	0	0	466	616
0	0	0	0	0	489	616
1	0	0	0	0	515	616
2	0	0	0	0	546	616
3	0	0	0	0	585	616
4	0	0	0	0	632	616
5	0	0	0	0	684	616
6	0	0	0	0	737	616
7	0	0	0	0	795	616
8	0	0	0	0	849	615
9	0	0	0	0	899	616
10	0	0	0	0	941	615
11	0	0	0	0	975	616
12	0	0	0	0	1003	615
13	0	0	0	0	1020	616
14	0	0	0	0	1022	616
15	0	0	0	0	1022	616
0	0	0	0	0	1022	616
1	0	0	0	0	1022	617
2	0	0	0	0	1022	616
3	0	0	0	0	1013	616
4	0	0	0	0	994	616
5	0	0	0	0	971	616
6	0	0	0	0	946	616
7	0	0	0	0	916	616
8	0	0	0	0	883	616
9	0	0	0	0	846	617
10	0	0	0	0	812	616
11	0	0	0	0	781	616
12	0	0	0	0	752	616
13	0	0	0	0	726	617
14	0	0	0	0	702	616
15	0	0	0	0	679	616
0	0	0	0	0	657	616
1	0	0	0	0	637	616
2	0	0	0	0	619	616
3	0	0	0	0	602	616
4	0	0	0	0	586	616
5	0	0	0	0	570	616
6	0	0	0	0	554	616
7	0	0	0	0	540	616
8	0	0	0	0	526	616
9	0	0	0	0	513	616
10	0	0	0	0	500	616
11	0	0	0	0	487	616
12	0	0	0	0	477	616
13	0	0	0	0	468	616
14	0	0	0	0	460	616
15	0	0	0	0	452	616
0	0	0	0	0	446	616
1	0	0	0	0	438	616
2	0	0	0	0	432	616
3	0	0	0	0	425	616
4	0	0	0	0	419	615
5	0	0	0	0	412	616
6	0	0	0	0	406	616
7	0	0	0	0	400	616
8	0	0	0	0	394	617
9	0	0	0	0	390	617
10	0	0	0	0	386	616
11	0	0	0	0	383	616
12	0	0	0	0	382	616
13	0	0	0	0	381	616
14	0	0	0	0	382	615
15	0	0	0	0	382	616
0	0	0	0	0	383	615
1	0	0	0	0	384	616
2	0	0	0	0	385	615
3	0	0	0	0	387	615
4	0	0	0	0	389	615
5	0	0	0	0	390	616
6	0	0	0	0	391	616
7	0	0	0	0	391	616
8	0	0	0	0	390	616
9	0	0	0	0	389	616
10	0	0	0	0	388	615
11	0	0	0	0	386	615
12	0	0	0	0	385	616
13	0	0	0	0	384	615
14	0	0	0	0	384	616
15	0	0	0	0	384	616
0	0	0	0	0	385	616
1	0	0	0	0	386	617
2	0	0	0	0	388	615
3	0	0	0	0	390	616
4	0	0	0	0	392	616
5	0	0	0	0	395	616
6	0	0	0	0	399	616
7	0	0	0	0	401	615
8	0	0	0	0	404	615
9	0	0	0	0	407	616
10	0	0	0	0	408	616
11	0	0	0	0	408	616
12	0	0	0	0	409	616
13	0	0	0	0	408	616
14	0	0	0	0	408	616
15	0	0	0	0	406	615
0	0	0	0	0	405	615
1	0	0	0	0	404	617
2	0	0	0	0	403	615
3	0	0	0	0	403	616
4	0	0	0	0	403	616
5	0	0	0	0	404	616
6	0	0	0	0	406	616
7	0	0	0	0	408	616
8	0	0	0	0	411	616
9	0	0	0	0	413	616
10	0	0	0	0	416	615
11	0	0	0	0	418	615
12	0	0	0	0	420	615
13	0	0	0	0	423	616
14	0	0	0	0	423	615
15	0	0	0	0	424	615
0	0	0	0	0	424	615
1	0	0	0	0	423	615
2	0	0	0	0	422	616
3	0	0	0	0	420	616
4	0	0	0	0	418	616
5	0	0	0	0	417	616
6	0	0	0	0	417	616
7	0	0	0	0	417	616
8	0	0	0	0	418	615
9	0	0	0	0	419	616
10	0	0	0	0	420	615
11	0	0	0	0	422	617
12	0	0	0	0	424	617
13	0	0	0	0	428	616
14	0	0	0	0	431	616
15	0	0	0	0	433	616
0	0	0	0	0	435	615
1	0	0	0	0	437	616
2	0	0	0	0	438	616
3	0	0	0	0	439	616
4	0	0	0	0	438	615
5	0	0	0	0	436	615
6	0	0	0	0	435	616
7	0	0	0	0	432	615
8	0	0	0	0	430	615
9	0	0	0	0	428	616
10	0	0	0	0	428	616
11	0	0	0	0	428	616
12	0	0	0	0	428	616
13	0	0	0	0	429	616
14	0	0	0	0	432	616
15	0	0	0	0	433	615
0	0	0	0	0	436	616
1	0	0	0	0	439	617
2	0	0	0	0	441	616
3	0	0	0	0	444	616
4	0	0	0	0	445	616
5	0	0	0	0	447	615
6	0	0	0	0	447	616
7	0	0	0	0	447	615
8	0	0	0	0	447	615
9	0	0	0	0	445	616
10	0	0	0	0	443	615
11	0	0	0	0	441	615
12	0	0	0	0	439	616
13	0	0	0	0	438	616
14	0	0	0	0	436	616
15	0	0	0	0	435	616
0	0	0	0	0	436	616
1	0	0	0	0	438	616
2	0	0	0	0	439	616
3	0	0	0	0	440	616
4	0	0	0	0	443	616
5	0	0	0	0	444	616
6	0	0	0	0	446	616
7	0	0	0	0	448	616
8	0	0	0	0	450	616
9	0	0	0	0	451	616
10	0	0	0	0	451	615
11	0	0	0	0	451	616
12	0	0	0	0	451	615
13	0	0	0	0	449	615
14	0	0	0	0	447	616
15	0	0	0	0	445	616
0	0	0	0	0	443	615
1	0	0	0	0	441	616
2	0	0	0	0	440	616
3	0	0	0	0	440	616
4	0	0	0	0	441	616
5	0	0	0	0	442	616
6	0	0	0	0	443	615
7	0	0	0	0	444	616
8	0	0	0	0	446	616
9	0	0	0	0	449	616
10	0	0	0	0	452	616
11	0	0	0	0	454	615
12	0	0	0	0	456	615
13	0	0	0	0	457	616
14	0	0	0	0	458	616
15	0	0	0	0	458	616
0	0	0	0	0	458	616
1	0	0	0	0	456	616
2	0	0	0	0	455	615
3	0	0	0	0	453	616
4	0	0	0	0	452	615
5	0	0	0	0	451	616
6	0	0	0	0	450	615
7	0	0	0	0	449	615
8	0	0	0	0	450	616
9	0	0	0	0	451	617
10	0	0	0	0	452	616
11	0	0	0	0	455	615
12	0	0	0	0	458	615
13	0	0	0	0	461	615
14	0	0	0	0	464	616
15	0	0	0	0	467	616
0	0	0	0	0	469	616
1	0	0	0	0	471	616
2	0	0	0	0	472	616
3	0	0	0	0	473	616
4	0	0	0	0	474	616
5	0	0	0	0	474	616
6	0	0	0	0	473	615
7	0	0	0	0	471	616
8	0	0	0	0	470	616
9	0	0	0	0	470	617
10	0	0	0	0	470	616
11	0	0	0	0	470	617
12	0	0	0	0	470	616
13	0	0	0	0	471	616
14	0	0	0	0	473	616
15	0	0	0	0	475	616
0	0	0	0	0	477	616
1	0	0	0	0	480	617
2	0	0	0	0	483	616
3	0	0	0	0	486	616
4	0	0	0	0	488	616
5	0	0	0	0	491	616
6	0	0	0	0	492	616
7	0	0	0	0	494	616
8	0	0	0	0	494	616
9	0	0	0	0	494	616
10	0	0	0	0	493	616
11	0	0	0	0	492	615
12	0	0	0	0	491	616
13	0	0	0	0	490	616
14	0	0	0	0	489	616
15	0	0	0	0	490	616
0	0	0	0	0	491	616
1	0	0	0	0	492	616
2	0	0	0	0	495	615
3	0	0	0	0	497	616
4	0	0	0	0	500	616
5	0	0	0	0	504	617
6	0	0	0	0	508	616
7	0	0	0	0	511	615
8	0	0	0	0	513	615
9	0	0	0	0	516	617
10	0	0	0	0	518	616
11	0	0	0	0	519	616
12	0	0	0	0	519	616
13	0	0	0	0	517	616
14	0	0	0	0	516	616
15	0	0	0	0	515	616
0	0	0	0	0	513	616
1	0	0	0	0	512	617
2	0	0	0	0	512	616
3	0	0	0	0	511	615
4	0	0	0	0	512	616
5	0	0	0	0	513	616
6	0	0	0	0	515	616
7	0	0	0	0	516	616
8	0	0	0	0	518	616
9	0	0	0	0	521	617
10	0	0	0	0	523	616
11	0	0	0	0	526	616
12	0	0	0	0	528	616
13	0	0	0	0	531	616
14	0	0	0	0	531	616
15	0	0	0	0	531	616
0	0	0	0	0	531	615
1	0	0	0	0	530	616
2	0	0	0	0	528	616
3	0	0	0	0	526	615
4	0	0	0	0	525	615
5	0	0	0	0	524	615
6	0	0	0	0	523	615
7	0	0	0	0	522	616
8	0	0	0	0	521	616
9	0	0	0	0	522	616
10	0	0	0	0	523	615
11	0	0	0	0	525	615
12	0	0	0	0	527	615
13	0	0	0	0	529	616
14	0	0	0	0	531	615
15	0	0	0	0	534	616
0	0	0	0	0	537	616
1	0	0	0	0	538	617
2	0	0	0	0	539	616
3	0	0	0	0	539	615
4	0	0	0	0	538	615
5	0	0	0	0	537	615
6	0	0	0	0	536	615
7	0	0	0	0	534	615
8	0	0	0	0	531	616
9	0	0	0	0	529	616
10	0	0	0	0	527	615
11	0	0	0	0	527	616
12	0	0	0	0	526	615
13	0	0	0	0	527	616
14	0	0	0	0	527	617
15	0	0	0	0	528	616
0	0	0	0	0	529	616
1	0	0	0	0	532	616
2	0	0	0	0	534	616
3	0	0	0	0	537	616
4	0	0	0	0	539	616
5	0	0	0	0	541	616
6	0	0	0	0	542	616
7	0	0	0	0	542	616
8	0	0	0	0	541	616
9	0	0	0	0	540	616
10	0	0	0	0	537	617
11	0	0	0	0	534	616
12	0	0	0	0	532	615
13	0	0	0	0	530	616
14	0	0	0	0	527	616
15	0	0	0	0	527	615
0	0	0	0	0	527	616
1	0	0	0	0	527	616
2	0	0	0	0	528	615
3	0	0	0	0	529	615
4	0	0	0	0	531	615
5	0	0	0	0	533	616
6	0	0	0	0	535	616
7	0	0	0	0	536	616
8	0	0	0	0	538	616
9	0	0	0	0	539	616
10	0	0	0	0	538	615
11	0	0	0	0	539	615
12	0	0	0	0	538	616
13	0	0	0	0	536	616
14	0	0	0	0	533	616
15	0	0	0	0	530	616
0	0	0	0	0	528	615
1	0	0	0	0	526	616
2	0	0	0	0	525	616
3	0	0	0	0	524	616
4	0	0	0	0	523	615
5	0	0	0	0	523	616
6	0	0	0	0	523	615
7	0	0	0	0	524	615
8	0	0	0	0	526	615
9	0	0	0	0	527	616
10	0	0	0	0	529	616
11	0	0	0	0	531	616
12	0	0	0	0	534	616
13	0	0	0	0	535	616
14	0	0	0	0	535	616
15	0	0	0	0	535	616
0	0	0	0	0	533	616
1	0	0	0	0	531	616
2	0	0	0	0	529	616
3	0	0	0	0	527	616
4	0	0	0	0	524	616
5	0	0	0	0	523	616
6	0	0	0	0	521	615
7	0	0	0	0	520	616
8	0	0	0	0	519	616
9	0	0	0	0	519	617
10	0	0	0	0	520	615
11	0	0	0	0	521	616
12	0	0	0	0	523	616
13	0	0	0	0	524	616
14	0	0	0	0	526	616
15	0	0	0	0	528	616
0	0	0	0	0	529	615
1	0	0	0	0	531	616
2	0	0	0	0	531	615
3	0	0	0	0	531	616
4	0	0	0	0	530	615
5	0	0	0	0	528	616
6	0	0	0	0	526	616
7	0	0	0	0	524	616
8	0	0	0	0	521	616
9	0	0	0	0	519	616
10	0	0	0	0	517	615
11	0	0	0	0	516	616
12	0	0	0	0	516	615
13	0	0	0	0	516	616
14	0	0	0	0	516	616
15	0	0	0	0	517	616
0	0	0	0	0	519	616
1	0	0	0	0	520	616
2	0	0	0	0	523	615
3	0	0	0	0	525	616
4	0	0	0	0	527	616
5	0	0	0	0	528	616
6	0	0	0	0	529	616
7	0	0	0	0	529	616
8	0	0	0	0	528	616
9	0	0	0	0	527	616
10	0	0	0	0	525	616
11	0	0	0	0	523	615
12	0	0	0	0	521	615
13	0	0	0	0	519	616
14	0	0	0	0	517	615
15	0	0	0	0	516	616
0	0	0	0	0	516	616
1	0	0	0	0	516	616
2	0	0	0	0	517	615
3	0	0	0	0	518	616
4	0	0	0	0	519	616
5	0	0	0	0	520	616
6	0	0	0	0	523	616
7	0	0	0	0	525	615
8	0	0	0	0	526	616
9	0	0	0	0	527	616
10	0	0	0	0	527	616
11	0	0	0	0	528	616
12	0	0	0	0	528	616
13	0	0	0	0	527	616
14	0	0	0	0	526	616
15	0	0	0	0	524	616
0	0	0	0	0	521	616
1	0	0	0	0	520	616
2	0	0	0	0	519	615
3	0	0	0	0	518	615
4	0	0	0	0	518	616
5	0	0	0	0	518	616
6	0	0	0	0	518	616
7	0	0	0	0	519	616
8	0	0	0	0	519	616
9	0	0	0	0	521	617
10	0	0	0	0	524	616
11	0	0	0	0	526	616
12	0	0	0	0	527	616
13	0	0	0	0	528	616
14	0	0	0	0	529	616
15	0	0	0	0	529	616
0	0	0	0	0	529	616
1	0	0	0	0	526	616
2	0	0	0	0	525	616
3	0	0	0	0	522	615
4	0	0	0	0	520	616
5	0	0	0	0	518	616
6	0	0	0	0	515	615
7	0	0	0	0	515	616
8	0	0	0	0	515	615
9	0	0	0	0	517	617
10	0	0	0	0	518	616
11	0	0	0	0	519	615
12	0	0	0	0	520	616
13	0	0	0	0	522	616
14	0	0	0	0	524	616
15	0	0	0	0	526	616
0	0	0	0	0	528	615
1	0	0	0	0	529	616
2	0	0	0	0	531	616
3	0	0	0	0	531	616
4	0	0	0	0	530	616
5	0	0	0	0	529	616
6	0	0	0	0	527	616
7	0	0	0	0	524	616
8	0	0	0	0	522	616
9	0	0	0	0	520	616
10	0	0	0	0	518	616
11	0	0	0	0	517	616
12	0	0	0	0	516	616
13	0	0	0	0	517	616
14	0	0	0	0	518	616
15	0	0	0	0	519	615
0	0	0	0	0	521	616
1	0	0	0	0	522	616
2	0	0	0	0	524	616
3	0	0	0	0	526	616
4	0	0	0	0	527	616
5	0	0	0	0	529	616
6	0	0	0	0	529	616
7	0	0	0	0	530	616
8	0	0	0	0	530	616
9	0	0	0	0	529	617
10	0	0	0	0	527	616
11	0	0	0	0	524	616
12	0	0	0	0	522	616
13	0	0	0	0	520	616
14	0	0	0	0	518	616
15	0	0	0	0	517	616
0	0	0	0	0	517	616
1	0	0	0	0	517	616
2	0	0	0	0	518	616
3	0	0	0	0	519	616
4	0	0	0	0	520	616
5	0	0	0	0	521	616
6	0	0	0	0	522	616
7	0	0	0	0	523	615
8	0	0	0	0	525	616
9	0	0	0	0	526	617
10	0	0	0	0	526	615
11	0	0	0	0	526	615
12	0	0	0	0	526	615
13	0	0	0	0	525	615
14	0	0	0	0	524	615
15	0	0	0	0	522	615
0	0	0	0	0	520	615
1	0	0	0	0	518	616
2	0	0	0	0	516	615
3	0	0	0	0	515	615
4	0	0	0	0	515	615
5	0	0	0	0	515	616
6	0	0	0	0	516	616
7	0	0	0	0	518	615
8	0	0	0	0	519	616
9	0	0	0	0	520	616
10	0	0	0	0	522	616
11	0	0	0	0	524	616
12	0	0	0	0	525	616
13	0	0	0	0	527	616
14	0	0	0	0	527	616
15	0	0	0	0	527	616
0	0	0	0	0	526	615
1	0	0	0	0	524	616
2	0	0	0	0	522	616
3	0	0	0	0	519	616
4	0	0	0	0	517	616
5	0	0	0	0	515	616
6	0	0	0	0	513	616
7	0	0	0	0	512	616
8	0	0	0	0	511	616
9	0	0	0	0	511	616
10	0	0	0	0	511	615
11	0	0	0	0	512	616
12	0	0	0	0	513	616
13	0	0	0	0	515	616
14	0	0	0	0	517	616
15	0	0	0	0	519	616
0	0	0	0	0	521	616
1	0	0	0	0	523	616
2	0	0	0	0	524	616
3	0	0	0	0	524	616
4	0	0	0	0	524	615
5	0	0	0	0	522	615
6	0	0	0	0	519	616
7	0	0	0	0	517	616
8	0	0	0	0	514	616
9	0	0	0	0	512	617
10	0	0	0	0	510	616
11	0	0	0	0	509	616
12	0	0	0	0	508	616
13	0	0	0	0	508	616
14	0	0	0	0	509	616
15	0	0	0	0	510	616
0	0	0	0	0	512	616
1	0	0	0	0	513	616
2	0	0	0	0	515	616
3	0	0	0	0	518	617
4	0	0	0	0	519	616
5	0	0	0	0	521	616
6	0	0	0	0	521	615
7	0	0	0	0	521	617
8	0	0	0	0	520	616
9	0	0	0	0	519	617
10	0	0	0	0	517	616
11	0	0	0	0	515	616
12	0	0	0	0	512	616
13	0	0	0	0	511	616
14	0	0	0	0	509	615
15	0	0	0	0	508	616
0	0	0	0	0	508	615
1	0	0	0	0	508	616
2	0	0	0	0	508	616
3	0	0	0	0	509	615
4	0	0	0	0	511	615
5	0	0	0	0	512	616
6	0	0	0	0	514	616
7	0	0	0	0	515	616
8	0	0	0	0	516	615
9	0	0	0	0	518	616
10	0	0	0	0	519	615
11	0	0	0	0	519	616
12	0	0	0	0	519	616
13	0	0	0	0	518	616
14	0	0	0	0	516	616
15	0	0	0	0	514	616
0	0	0	0	0	511	616
1	0	0	0	0	510	616
2	0	0	0	0	509	616
3	0	0	0	0	508	616
4	0	0	0	0	507	615
5	0	0	0	0	507	616
6	0	0	0	0	508	616
7	0	0	0	0	509	616
8	0	0	0	0	511	616
9	0	0	0	0	512	617
10	0	0	0	0	515	616
11	0	0	0	0	516	616
12	0	0	0	0	518	615
13	0	0	0	0	519	616
14	0	0	0	0	519	616
15	0	0	0	0	519	616
0	0	0	0	0	518	616
1	0	0	0	0	516	617
2	0	0	0	0	515	616
3	0	0	0	0	512	616
4	0	0	0	0	510	615
5	0	0	0	0	508	616
6	0	0	0	0	507	616
7	0	0	0	0	505	616
8	0	0	0	0	505	615
9	0	0	0	0	505	616
10	0	0	0	0	506	615
11	0	0	0	0	508	616
12	0	0	0	0	509	616
13	0	0	0	0	510	616
14	0	0	0	0	512	616
15	0	0	0	0	514	615
0	0	0	0	0	515	616
1	0	0	0	0	518	616
2	0	0	0	0	518	616
3	0	0	0	0	517	616
4	0	0	0	0	516	616
5	0	0	0	0	515	615
6	0	0	0	0	513	616
7	0	0	0	0	512	616
8	0	0	0	0	509	616
9	0	0	0	0	507	616
10	0	0	0	0	505	616
11	0	0	0	0	504	616
12	0	0	0	0	504	616
13	0	0	0	0	505	617
14	0	0	0	0	505	616
15	0	0	0	0	506	616
0	0	0	0	0	508	616
1	0	0	0	0	510	617
2	0	0	0	0	511	615
3	0	0	0	0	513	616
4	0	0	0	0	515	616
5	0	0	0	0	517	616
6	0	0	0	0	517	616
7	0	0	0	0	518	615
8	0	0	0	0	517	615
9	0	0	0	0	515	616
10	0	0	0	0	513	616
11	0	0	0	0	511	615
12	0	0	0	0	508	615
13	0	0	0	0	507	615
14	0	0	0	0	504	615
15	0	0	0	0	503	615
0	0	0	0	0	503	616
1	0	0	0	0	504	617
2	0	0	0	0	504	615
3	0	0	0	0	505	616
4	0	0	0	0	507	616
5	0	0	0	0	508	616
6	0	0	0	0	510	616
7	0	0	0	0	512	616
8	0	0	0	0	514	616
9	0	0	0	0	516	617
10	0	0	0	0	516	616
11	0	0	0	0	515	616
12	0	0	0	0	515	616
13	0	0	0	0	513	615
14	0	0	0	0	512	616
15	0	0	0	0	510	616
0	0	0	0	0	508	615
1	0	0	0	0	505	617
2	0	0	0	0	504	615
3	0	0	0	0	503	616
4	0	0	0	0	502	616
5	0	0	0	0	502	616
6	0	0	0	0	503	616
7	0	0	0	0	504	615
8	0	0	0	0	505	616
9	0	0	0	0	507	616
10	0	0	0	0	509	615
11	0	0	0	0	511	616
12	0	0	0	0	513	616
13	0	0	0	0	514	616
14	0	0	0	0	515	616
15	0	0	0	0	515	616
0	0	0	0	0	514	616
1	0	0	0	0	512	616
2	0	0	0	0	511	615
3	0	0	0	0	509	615
4	0	0	0	0	507	615
5	0	0	0	0	504	615
6	0	0	0	0	503	615
7	0	0	0	0	502	615
8	0	0	0	0	502	616
9	0	0	0	0	503	617
10	0	0	0	0	503	616
11	0	0	0	0	504	616
12	0	0	0	0	506	617
13	0	0	0	0	508	616
14	0	0	0	0	509	616
15	0	0	0	0	511	616
0	0	0	0	0	512	616
1	0	0	0	0	513	616
2	0	0	0	0	513	616
3	0	0	0	0	513	616
4	0	0	0	0	512	616
5	0	0	0	0	512	617
6	0	0	0	0	510	617
7	0	0	0	0	507	616
8	0	0	0	0	504	616
9	0	0	0	0	503	617
10	0	0	0	0	501	616
11	0	0	0	0	500	616
12	0	0	0	0	499	616
13	0	0	0	0	499	617
14	0	0	0	0	499	616
15	0	0	0	0	499	616
0	0	0	0	0	500	616
1	0	0	0	0	502	616
2	0	0	0	0	503	616
3	0	0	0	0	505	616
4	0	0	0	0	507	616
5	0	0	0	0	508	617
6	0	0	0	0	509	616
7	0	0	0	0	510	616
8	0	0	0	0	510	615
9	0	0	0	0	508	616
10	0	0	0	0	506	615
11	0	0	0	0	504	615
12	0	0	0	0	501	616
13	0	0	0	0	499	616
14	0	0	0	0	497	615
15	0	0	0	0	496	616
0	0	0	0	0	496	615
1	0	0	0	0	496	616
2	0	0	0	0	497	616
3	0	0	0	0	498	616
4	0	0	0	0	500	616
5	0	0	0	0	502	617
6	0	0	0	0	505	616
7	0	0	0	0	508	616
8	0	0	0	0	510	616
9	0	0	0	0	513	617
10	0	0	0	0	514	616
11	0	0	0	0	515	616
12	0	0	0	0	515	616
13	0	0	0	0	514	616
14	0	0	0	0	513	616
15	0	0	0	0	512	616
0	0	0	0	0	510	616
1	0	0	0	0	508	617
2	0	0	0	0	506	616
3	0	0	0	0	505	616
4	0	0	0	0	505	616
5	0	0	0	0	506	616
6	0	0	0	0	507	616
7	0	0	0	0	508	616
8	0	0	0	0	510	615
9	0	0	0	0	511	616
10	0	0	0	0	513	615
11	0	0	0	0	515	616
12	0	0	0	0	516	615
13	0	0	0	0	518	616
14	0	0	0	0	519	615
15	0	0	0	0	519	616
0	0	0	0	0	518	615
1	0	0	0	0	517	616
2	0	0	0	0	515	616
3	0	0	0	0	513	615
4	0	0	0	0	511	616
5	0	0	0	0	509	616
6	0	0	0	0	507	615
7	0	0	0	0	506	616
8	0	0	0	0	504	615
9	0	0	0	0	504	617
10	0	0	0	0	505	615
11	0	0	0	0	506	616
12	0	0	0	0	507	616
13	0	0	0	0	508	615
14	0	0	0	0	510	616
15	0	0	0	0	512	616
0	0	0	0	0	515	616
1	0	0	0	0	516	616
2	0	0	0	0	517	615
3	0	0	0	0	517	616
4	0	0	0	0	516	616
5	0	0	0	0	515	616
6	0	0	0	0	513	616
7	0	0	0	0	511	616
8	0	0	0	0	509	616
9	0	0	0	0	508	616
10	0	0	0	0	507	616
11	0	0	0	0	506	616
12	0	0	0	0	505	616
13	0	0	0	0	506	616
14	0	0	0	0	506	615
15	0	0	0	0	507	615
0	0	0	0	0	509	616
1	0	0	0	0	510	616
2	0	0	0	0	511	616
3	0	0	0	0	513	616
4	0	0	0	0	515	615
5	0	0	0	0	516	616
6	0	0	0	0	516	616
7	0	0	0	0	516	616
8	0	0	0	0	515	616
9	0	0	0	0	513	617
10	0	0	0	0	512	616
11	0	0	0	0	510	616
12	0	0	0	0	507	615
13	0	0	0	0	505	616
14	0	0	0	0	504	616
15	0	0	0	0	503	616
0	0	0	0	0	503	616
1	0	0	0	0	502	617
2	0	0	0	0	503	616
3	0	0	0	0	504	616
4	0	0	0	0	506	616
5	0	0	0	0	508	616
6	0	0	0	0	509	616
7	0	0	0	0	512	616
8	0	0	0	0	513	615
9	0	0	0	0	515	616
10	0	0	0	0	515	616
11	0	0	0	0	516	616
12	0	0	0	0	515	615
13	0	0	0	0	515	616
14	0	0	0	0	512	616
15	0	0	0	0	511	616
0	0	0	0	0	508	616
1	0	0	0	0	505	617
2	0	0	0	0	503	616
3	0	0	0	0	501	617
4	0	0	0	0	499	616
5	0	0	0	0	497	616
6	0	0	0	0	495	616
7	0	0	0	0	492	616
8	0	0	0	0	487	616
9	0	0	0	0	481	616
10	0	0	0	0	474	616
11	0	0	0	0	465	615
12	0	0	0	0	456	616
13	0	0	0	0	447	616
14	0	0	0	0	437	616
15	0	0	0	0	426	616
0	0	0	0	0	416	616
1	0	0	0	0	406	615
2	0	0	0	0	399	616
3	0	0	0	0	392	615
4	0	0	0	0	388	615
5	0	0	0	0	386	616
6	0	0	0	0	386	615
7	0	0	0	0	389	616
8	0	0	0	0	394	616
9	0	0	0	0	401	617
10	0	0	0	0	411	616
11	0	0	0	0	420	616
12	0	0	0	0	428	616
13	0	0	0	0	436	616
14	0	0	0	0	446	616
15	0	0	0	0	458	616
0	0	0	0	0	476	615
1	0	0	0	0	499	617
2	0	0	0	0	525	616
3	0	0	0	0	555	615
4	0	0	0	0	591	615
5	0	0	0	0	633	615
6	0	0	0	0	680	615
7	0	0	0	0	730	616
8	0	0	0	0	783	615
9	0	0	0	0	835	616
10	0	0	0	0	882	615
11	0	0	0	0	924	616
12	0	0	0	0	959	615
13	0	0	0	0	989	615
14	0	0	0	0	1011	616
15	0	0	0	0	1022	616
0	0	0	0	0	1022	616
1	0	0	0	0	1022	616
2	0	0	0	0	1022	616
3	0	0	0	0	1022	616
4	0	0	0	0	1022	615
5	0	0	0	0	1009	616
6	0	0	0	0	987	615
7	0	0	0	0	961	615
8	0	0	0	0	930	616
9	0	0	0	0	894	617
10	0	0	0	0	855	616
11	0	0	0	0	815	616
12	0	0	0	0	779	616
13	0	0	0	0	746	616
14	0	0	0	0	716	616
15	0	0	0	0	688	616
0	0	0	0	0	664	616
1	0	0	0	0	643	616
2	0	0	0	0	626	616
3	0	0	0	0	611	615
4	0	0	0	0	600	616
5	0	0	0	0	588	616
6	0	0	0	0	576	615
7	0	0	0	0	565	616
8	0	0	0	0	554	616
9	0	0	0	0	542	616
10	0	0	0	0	529	616
11	0	0	0	0	516	616
12	0	0	0	0	503	615
13	0	0	0	0	488	615
14	0	0	0	0	475	616
15	0	0	0	0	461	616
0	0	0	0	0	450	615
1	0	0	0	0	439	616
2	0	0	0	0	430	616
3	0	0	0	0	421	616
4	0	0	0	0	414	616
5	0	0	0	0	408	616
6	0	0	0	0	404	616
7	0	0	0	0	401	616
8	0	0	0	0	399	615
9	0	0	0	0	397	616
10	0	0	0	0	396	616
11	0	0	0	0	396	616
12	0	0	0	0	396	616
13	0	0	0	0	396	616
14	0	0	0	0	395	616
15	0	0	0	0	393	616
0	0	0	0	0	391	616
1	0	0	0	0	390	616
2	0	0	0	0	388	616
3	0	0	0	0	385	616
4	0	0	0	0	383	616
5	0	0	0	0	381	616
6	0	0	0	0	380	616
7	0	0	0	0	379	616
8	0	0	0	0	379	615
9	0	0	0	0	380	616
10	0	0	0	0	382	616
11	0	0	0	0	383	615
12	0	0	0	0	385	615
13	0	0	0	0	387	616
14	0	0	0	0	389	616
15	0	0	0	0	392	616
0	0	0	0	0	394	616
1	0	0	0	0	396	617
2	0	0	0	0	398	616
3	0	0	0	0	398	616
4	0	0	0	0	398	616
5	0	0	0	0	397	616
6	0	0	0	0	396	616
7	0	0	0	0	395	616
8	0	0	0	0	394	616
9	0	0	0	0	393	617
10	0	0	0	0	392	615
11	0	0	0	0	392	616
12	0	0	0	0	393	615
13	0	0	0	0	394	616
14	0	0	0	0	396	616
15	0	0	0	0	397	616
0	0	0	0	0	399	616
1	0	0	0	0	402	616
2	0	0	0	0	405	616
3	0	0	0	0	408	616
4	0	0	0	0	411	615
5	0	0	0	0	413	616
6	0	0	0	0	414	616
7	0	0	0	0	415	616
8	0	0	0	0	416	616
9	0	0	0	0	416	616
10	0	0	0	0	416	616
11	0	0	0	0	414	615
12	0	0	0	0	413	616
13	0	0	0	0	412	616
14	0	0	0	0	412	616
15	0	0	0	0	412	616
0	0	0	0	0	412	615
1	0	0	0	0	412	616
2	0	0	0	0	413	616
3	0	0	0	0	415	615
4	0	0	0	0	417	616
5	0	0	0	0	419	616
6	0	0	0	0	423	615
7	0	0	0	0	426	616
8	0	0	0	0	428	615
9	0	0	0	0	431	616
10	0	0	0	0	431	615
11	0	0	0	0	432	615
12	0	0	0	0	432	615
13	0	0	0	0	431	615
14	0	0	0	0	430	616
15	0	0	0	0	428	616
0	0	0	0	0	427	616
1	0	0	0	0	425	616
2	0	0	0	0	424	616
3	0	0	0	0	424	616
4	0	0	0	0	424	616
5	0	0	0	0	424	617
6	0	0	0	0	425	616
7	0	0	0	0	426	616
8	0	0	0	0	428	616
9	0	0	0	0	430	616
10	0	0	0	0	432	616
11	0	0	0	0	434	616
12	0	0	0	0	437	615
13	0	0	0	0	440	616
14	0	0	0	0	441	616
15	0	0	0	0	442	616
0	0	0	0	0	442	616
1	0	0	0	0	441	616
2	0	0	0	0	440	616
3	0	0	0	0	439	616
4	0	0	0	0	438	615
5	0	0	0	0	435	616
6	0	0	0	0	434	615
7	0	0	0	0	433	616
8	0	0	0	0	432	616
9	0	0	0	0	433	616
10	0	0	0	0	433	615
11	0	0	0	0	434	615
12	0	0	0	0	435	616
13	0	0	0	0	438	616
14	0	0	0	0	440	616
15	0	0	0	0	442	616
0	0	0	0	0	444	615
1	0	0	0	0	447	616
2	0	0	0	0	448	615
3	0	0	0	0	449	616
4	0	0	0	0	449	615
5	0	0	0	0	448	616
6	0	0	0	0	448	616
7	0	0	0	0	446	615
8	0	0	0	0	444	615
9	0	0	0	0	441	616
10	0	0	0	0	440	616
11	0	0	0	0	440	616
12	0	0	0	0	439	616
13	0	0	0	0	439	615
14	0	0	0	0	439	615
15	0	0	0	0	440	615
0	0	0	0	0	443	616
1	0	0	0	0	445	617
2	0	0	0	0	448	616
3	0	0	0	0	450	616
4	0	0	0	0	452	616
5	0	0	0	0	454	616
6	0	0	0	0	455	616
7	0	0	0	0	455	616
8	0	0	0	0	455	615
9	0	0	0	0	454	616
10	0	0	0	0	453	616
11	0	0	0	0	452	616
12	0	0	0	0	450	615
13	0	0	0	0	448	616
14	0	0	0	0	447	616
15	0	0	0	0	446	615
0	0	0	0	0	446	616
1	0	0	0	0	447	616
2	0	0	0	0	448	616
3	0	0	0	0	449	616
4	0	0	0	0	451	616
5	0	0	0	0	454	616
6	0	0	0	0	456	616
7	0	0	0	0	458	616
8	0	0	0	0	461	615
9	0	0	0	0	464	617
10	0	0	0	0	465	615
11	0	0	0	0	466	615
12	0	0	0	0	466	616
13	0	0	0	0	466	616
14	0	0	0	0	465	615
15	0	0	0	0	463	616
0	0	0	0	0	462	616
1	0	0	0	0	460	616
2	0	0	0	0	459	616
3	0	0	0	0	460	616
4	0	0	0	0	460	615
5	0	0	0	0	461	616
6	0	0	0	0	463	616
7	0	0	0	0	465	616
8	0	0	0	0	468	616
9	0	0	0	0	471	616
10	0	0	0	0	473	616
11	0	0	0	0	476	615
12	0	0	0	0	479	616
13	0	0	0	0	482	616
14	0	0	0	0	484	616
15	0	0	0	0	486	616
0	0	0	0	0	486	615
1	0	0	0	0	486	616
2	0	0	0	0	486	615
3	0	0	0	0	485	615
4	0	0	0	0	484	616
5	0	0	0	0	484	616
6	0	0	0	0	483	616
7	0	0	0	0	483	616
8	0	0	0	0	483	616
9	0	0	0	0	485	616
10	0	0	0	0	486	616
11	0	0	0	0	488	615
12	0	0	0	0	491	615
13	0	0	0	0	494	615
14	0	0	0	0	497	616
15	0	0	0	0	500	616
0	0	0	0	0	503	615
1	0	0	0	0	505	617
2	0	0	0	0	507	616
3	0	0	0	0	508	616
4	0	0	0	0	510	616
5	0	0	0	0	509	616
6	0	0	0	0	509	616
7	0	0	0	0	508	616
8	0	0	0	0	507	616
9	0	0	0	0	506	616
10	0	0	0	0	505	616
11	0	0	0	0	505	616
12	0	0	0	0	505	616
13	0	0	0	0	507	616
14	0	0	0	0	508	616
15	0	0	0	0	511	616
0	0	0	0	0	513	616
1	0	0	0	0	515	616
2	0	0	0	0	518	616
3	0	0	0	0	520	616
4	0	0	0	0	522	615
5	0	0	0	0	524	616
6	0	0	0	0	526	615
7	0	0	0	0	527	616
8	0	0	0	0	527	616
9	0	0	0	0	528	616
10	0	0	0	0	527	616
11	0	0	0	0	527	616
12	0	0	0	0	525	616
13	0	0	0	0	524	616
14	0	0	0	0	524	616
15	0	0	0	0	523	616
0	0	0	0	0	523	615
1	0	0	0	0	524	616
2	0	0	0	0	525	615
3	0	0	0	0	527	615
4	0	0	0	0	529	616
5	0	0	0	0	531	616
6	0	0	0	0	533	616
7	0	0	0	0	535	615
8	0	0	0	0	536	615
9	0	0	0	0	538	616
10	0	0	0	0	539	615
11	0	0	0	0	540	616
12	0	0	0	0	539	616
13	0	0	0	0	538	615
14	0	0	0	0	536	615
15	0	0	0	0	534	615
0	0	0	0	0	532	616
1	0	0	0	0	531	616
2	0	0	0	0	529	615
3	0	0	0	0	528	615
4	0	0	0	0	528	615
5	0	0	0	0	528	616
6	0	0	0	0	528	616
7	0	0	0	0	529	615
8	0	0	0	0	531	616
9	0	0	0	0	532	616
10	0	0	0	0	535	615
11	0	0	0	0	537	616
12	0	0	0	0	538	615
13	0	0	0	0	540	616
14	0	0	0	0	540	615
15	0	0	0	0	540	615
0	0	0	0	0	540	616
1	0	0	0	0	538	616
2	0	0	0	0	536	616
3	0	0	0	0	534	616
4	0	0	0	0	532	616
5	0	0	0	0	531	616
6	0	0	0	0	529	615
7	0	0	0	0	528	615
8	0	0	0	0	527	615
9	0	0	0	0	527	616
10	0	0	0	0	528	615
11	0	0	0	0	529	615
12	0	0	0	0	531	616
13	0	0	0	0	533	615
14	0	0	0	0	534	615
15	0	0	0	0	536	616
0	0	0	0	0	538	616
1	0	0	0	0	540	617
2	0	0	0	0	540	615
3	0	0	0	0	540	616
4	0	0	0	0	540	616
5	0	0	0	0	539	616
6	0	0	0	0	536	616
7	0	0	0	0	534	615
8	0	0	0	0	531	615
9	0	0	0	0	529	616
10	0	0	0	0	527	615
11	0	0	0	0	526	616
12	0	0	0	0	525	616
13	0	0	0	0	524	615
14	0	0	0	0	525	616
15	0	0	0	0	525	615
0	0	0	0	0	527	615
1	0	0	0	0	528	616
2	0	0	0	0	530	616
3	0	0	0	0	532	616
4	0	0	0	0	533	615
5	0	0	0	0	534	616
6	0	0	0	0	536	615
7	0	0	0	0	535	616
8	0	0	0	0	535	616
9	0	0	0	0	534	616
10	0	0	0	0	531	616
11	0	0	0	0	529	616
12	0	0	0	0	526	616
13	0	0	0	0	524	616
14	0	0	0	0	521	616
15	0	0	0	0	520	616
0	0	0	0	0	519	615
1	0	0	0	0	519	616
2	0	0	0	0	520	615
3	0	0	0	0	521	615
4	0	0	0	0	523	616
5	0	0	0	0	524	616
6	0	0	0	0	526	615
7	0	0	0	0	528	615
8	0	0	0	0	530	615
9	0	0	0	0	531	616
10	0	0	0	0	532	615
11	0	0	0	0	532	615
12	0	0	0	0	532	616
13	0	0	0	0	531	616
14	0	0	0	0	528	615
15	0	0	0	0	525	615
0	0	0	0	0	523	615
1	0	0	0	0	521	616
2	0	0	0	0	519	615
3	0	0	0	0	517	616
4	0	0	0	0	517	616
5	0	0	0	0	517	616
6	0	0	0	0	518	616
7	0	0	0	0	518	616
8	0	0	0	0	519	616
9	0	0	0	0	521	616
10	0	0	0	0	523	616
11	0	0	0	0	525	616
12	0	0	0	0	527	615
13	0	0	0	0	528	616
14	0	0	0	0	529	616
15	0	0	0	0	530	616
0	0	0	0	0	530	616
1	0	0	0	0	529	616
2	0	0	0	0	527	616
3	0	0	0	0	524	617
4	0	0	0	0	523	616
5	0	0	0	0	520	616
6	0	0	0	0	519	616
7	0	0	0	0	518	615
8	0	0	0	0	517	615
9	0	0	0	0	516	616
10	0	0	0	0	517	616
11	0	0	0	0	518	616
12	0	0	0	0	519	615
13	0	0	0	0	521	615
14	0	0	0	0	523	615
15	0	0	0	0	525	616
0	0	0	0	0	526	615
1	0	0	0	0	527	616
2	0	0	0	0	528	615
3	0	0	0	0	528	615
4	0	0	0	0	528	615
5	0	0	0	0	528	615
6	0	0	0	0	527	616
7	0	0	0	0	525	615
8	0	0	0	0	523	616
9	0	0	0	0	521	617
10	0	0	0	0	519	615
11	0	0	0	0	518	616
12	0	0	0	0	516	615
13	0	0	0	0	517	615
14	0	0	0	0	518	616
15	0	0	0	0	519	615
0	0	0	0	0	520	616
1	0	0	0	0	523	617
2	0	0	0	0	525	615
3	0	0	0	0	527	616
4	0	0	0	0	528	615
5	0	0	0	0	530	615
6	0	0	0	0	531	615
7	0	0	0	0	531	615
8	0	0	0	0	531	615
9	0	0	0	0	531	616
10	0	0	0	0	529	616
11	0	0	0	0	526	616
12	0	0	0	0	524	615
13	0	0	0	0	523	616
14	0	0	0	0	521	616
15	0	0	0	0	519	616
0	0	0	0	0	519	616
1	0	0	0	0	518	616
2	0	0	0	0	519	616
3	0	0	0	0	519	615
4	0	0	0	0	520	616
5	0	0	0	0	522	615
6	0	0	0	0	524	615
7	0	0	0	0	526	616
8	0	0	0	0	527	616
9	0	0	0	0	529	616
10	0	0	0	0	530	616
11	0	0	0	0	530	616
12	0	0	0	0	529	616
13	0	0	0	0	527	616
14	0	0	0	0	526	615
15	0	0	0	0	524	616
0	0	0	0	0	521	615
1	0	0	0	0	519	616
2	0	0	0	0	516	615
3	0	0	0	0	515	615
4	0	0	0	0	514	616
5	0	0	0	0	515	616
6	0	0	0	0	515	616
7	0	0	0	0	515	616
8	0	0	0	0	517	616
9	0	0	0	0	519	616
10	0	0	0	0	521	615
11	0	0	0	0	524	616
12	0	0	0	0	526	616
13	0	0	0	0	528	616
14	0	0	0	0	529	615
15	0	0	0	0	529	616
0	0	0	0	0	528	615
1	0	0	0	0	527	616
2	0	0	0	0	525	615
3	0	0	0	0	522	615
4	0	0	0	0	520	616
5	0	0	0	0	518	616
6	0	0	0	0	516	615
7	0	0	0	0	515	616
8	0	0	0	0	514	615
9	0	0	0	0	514	616
10	0	0	0	0	515	615
11	0	0	0	0	515	615
12	0	0	0	0	517	616
13	0	0	0	0	519	616
14	0	0	0	0	521	616
15	0	0	0	0	524	616
0	0	0	0	0	526	616
1	0	0	0	0	527	617
2	0	0	0	0	529	616
3	0	0	0	0	529	616
4	0	0	0	0	529	615
5	0	0	0	0	527	615
6	0	0	0	0	526	615
7	0	0	0	0	524	616
8	0	0	0	0	521	616
9	0	0	0	0	519	616
10	0	0	0	0	517	615
11	0	0	0	0	516	616
12	0	0	0	0	515	616
13	0	0	0	0	515	616
14	0	0	0	0	515	615
15	0	0	0	0	516	616
0	0	0	0	0	518	616
1	0	0	0	0	519	617
2	0	0	0	0	520	616
3	0	0	0	0	523	616
4	0	0	0	0	524	615
5	0	0	0	0	527	616
6	0	0	0	0	528	615
7	0	0	0	0	527	616
8	0	0	0	0	527	616
9	0	0	0	0	526	616
10	0	0	0	0	525	616
11	0	0	0	0	522	615
12	0	0	0	0	520	616
13	0	0	0	0	518	616
14	0	0	0	0	515	615
15	0	0	0	0	515	615
0	0	0	0	0	514	616
1	0	0	0	0	514	616
2	0	0	0	0	514	616
3	0	0	0	0	514	617
4	0	0	0	0	516	616
5	0	0	0	0	518	616
6	0	0	0	0	519	616
7	0	0	0	0	521	616
8	0	0	0	0	524	615
9	0	0	0	0	525	617
10	0	0	0	0	526	615
11	0	0	0	0	526	616
12	0	0	0	0	526	615
13	0	0	0	0	524	615
14	0	0	0	0	523	615
15	0	0	0	0	520	615
0	0	0	0	0	517	615
1	0	0	0	0	514	616
2	0	0	0	0	513	615
3	0	0	0	0	512	616
4	0	0	0	0	511	615
5	0	0	0	0	511	616
6	0	0	0	0	512	615
7	0	0	0	0	512	615
8	0	0	0	0	512	616
9	0	0	0	0	513	616
10	0	0	0	0	515	615
11	0	0	0	0	517	615
12	0	0	0	0	519	616
13	0	0	0	0	520	616
14	0	0	0	0	522	616
15	0	0	0	0	522	615
0	0	0	0	0	522	616
1	0	0	0	0	521	616
2	0	0	0	0	519	616
3	0	0	0	0	518	616
4	0	0	0	0	515	616
5	0	0	0	0	513	616
6	0	0	0	0	511	615
7	0	0	0	0	510	616
8	0	0	0	0	509	615
9	0	0	0	0	510	617
10	0	0	0	0	510	616
11	0	0	0	0	511	615
12	0	0	0	0	512	616
13	0	0	0	0	513	616
14	0	0	0	0	515	615
15	0	0	0	0	517	616
0	0	0	0	0	519	616
1	0	0	0	0	521	616
2	0	0	0	0	520	616
3	0	0	0	0	521	616
4	0	0	0	0	521	615
5	0	0	0	0	520	615
6	0	0	0	0	519	615
7	0	0	0	0	518	615
8	0	0	0	0	515	615
9	0	0	0	0	512	616
10	0	0	0	0	511	615
11	0	0	0	0	510	615
12	0	0	0	0	508	615
13	0	0	0	0	508	615
14	0	0	0	0	508	615
15	0	0	0	0	509	615
0	0	0	0	0	510	616
1	0	0	0	0	512	616
2	0	0	0	0	514	616
3	0	0	0	0	515	616
4	0	0	0	0	516	616
5	0	0	0	0	519	617
6	0	0	0	0	520	615
7	0	0	0	0	520	616
8	0	0	0	0	519	616
9	0	0	0	0	518	616
10	0	0	0	0	516	615
11	0	0	0	0	514	615
12	0	0	0	0	512	615
13	0	0	0	0	510	616
14	0	0	0	0	508	616
15	0	0	0	0	507	616
0	0	0	0	0	506	616
1	0	0	0	0	506	616
2	0	0	0	0	506	616
3	0	0	0	0	507	616
4	0	0	0	0	508	615
5	0	0	0	0	510	615
6	0	0	0	0	511	616
7	0	0	0	0	513	615
8	0	0	0	0	516	615
9	0	0	0	0	518	616
10	0	0	0	0	518	615
11	0	0	0	0	518	616
12	0	0	0	0	517	616
13	0	0	0	0	516	616
14	0	0	0	0	514	616
15	0	0	0	0	512	616
0	0	0	0	0	510	616
1	0	0	0	0	508	616
2	0	0	0	0	506	615
3	0	0	0	0	505	616
4	0	0	0	0	504	615
5	0	0	0	0	504	616
6	0	0	0	0	504	615
7	0	0	0	0	505	615
8	0	0	0	0	506	615
9	0	0	0	0	508	616
10	0	0	0	0	510	615
11	0	0	0	0	512	616
12	0	0	0	0	515	616
13	0	0	0	0	517	616
14	0	0	0	0	518	616
15	0	0	0	0	518	616
0	0	0	0	0	518	615
1	0	0	0	0	517	616
2	0	0	0	0	515	615
3	0	0	0	0	513	616
4	0	0	0	0	511	615
5	0	0	0	0	509	616
6	0	0	0	0	508	616
7	0	0	0	0	506	616
8	0	0	0	0	505	616
9	0	0	0	0	504	617
10	0	0	0	0	505	616
11	0	0	0	0	506	616
12	0	0	0	0	508	617
13	0	0	0	0	509	616
14	0	0	0	0	511	616
15	0	0	0	0	512	616
0	0	0	0	0	514	615
1	0	0	0	0	516	616
2	0	0	0	0	517	616
3	0	0	0	0	517	616
4	0	0	0	0	516	615
5	0	0	0	0	516	615
6	0	0	0	0	515	615
7	0	0	0	0	512	616
8	0	0	0	0	510	615
9	0	0	0	0	508	616
10	0	0	0	0	505	615
11	0	0	0	0	504	616
12	0	0	0	0	504	615
13	0	0	0	0	503	615
14	0	0	0	0	504	615
15	0	0	0	0	505	615
0	0	0	0	0	506	615
1	0	0	0	0	507	616
2	0	0	0	0	509	615
3	0	0	0	0	511	616
4	0	0	0	0	512	615
5	0	0	0	0	515	616
6	0	0	0	0	516	616
7	0	0	0	0	517	616
8	0	0	0	0	517	615
9	0	0	0	0	516	616
10	0	0	0	0	515	615
11	0	0	0	0	513	615
12	0	0	0	0	512	615
13	0	0	0	0	510	616
14	0	0	0	0	508	616
15	0	0	0	0	506	616
0	0	0	0	0	505	615
1	0	0	0	0	505	616
2	0	0	0	0	505	615
3	0	0	0	0	505	615
4	0	0	0	0	507	615
5	0	0	0	0	509	616
6	0	0	0	0	510	616
7	0	0	0	0	512	616
8	0	0	0	0	513	616
9	0	0	0	0	515	617
10	0	0	0	0	516	616
11	0	0	0	0	517	616
12	0	0	0	0	517	616
13	0	0	0	0	516	615
14	0	0	0	0	515	616
15	0	0	0	0	513	615
0	0	0	0	0	511	616
1	0	0	0	0	508	617
2	0	0	0	0	505	616
3	0	0	0	0	504	616
4	0	0	0	0	503	615
5	0	0	0	0	503	616
6	0	0	0	0	503	616
7	0	0	0	0	503	615
8	0	0	0	0	503	616
9	0	0	0	0	505	616
10	0	0	0	0	506	616
11	0	0	0	0	508	615
12	0	0	0	0	509	615
13	0	0	0	0	510	615
14	0	0	0	0	511	616
15	0	0	0	0	511	616
0	0	0	0	0	511	615
1	0	0	0	0	511	616
2	0	0	0	0	508	616
3	0	0	0	0	507	616
4	0	0	0	0	504	616
5	0	0	0	0	502	616
6	0	0	0	0	500	616
7	0	0	0	0	499	616
8	0	0	0	0	498	615
9	0	0	0	0	497	617
10	0	0	0	0	497	616
11	0	0	0	0	498	616
12	0	0	0	0	499	616
13	0	0	0	0	501	616
14	0	0	0	0	502	616
15	0	0	0	0	505	616
0	0	0	0	0	507	615
1	0	0	0	0	509	617
2	0	0	0	0	511	615
3	0	0	0	0	512	616
4	0	0	0	0	512	616
5	0	0	0	0	512	615
6	0	0	0	0	511	616
7	0	0	0	0	509	616
8	0	0	0	0	507	616
9	0	0	0	0	506	617
10	0	0	0	0	504	615
11	0	0	0	0	504	616
12	0	0	0	0	504	616
13	0	0	0	0	505	616
14	0	0	0	0	507	616
15	0	0	0	0	507	616
0	0	0	0	0	509	616
1	0	0	0	0	510	616
2	0	0	0	0	511	615
3	0	0	0	0	513	615
4	0	0	0	0	514	616
5	0	0	0	0	515	616
6	0	0	0	0	516	615
7	0	0	0	0	516	615
8	0	0	0	0	516	616
9	0	0	0	0	515	616
10	0	0	0	0	513	615
11	0	0	0	0	512	615
12	0	0	0	0	510	615
13	0	0	0	0	509	615
14	0	0	0	0	507	615
15	0	0	0	0	506	615
0	0	0	0	0	505	615
1	0	0	0	0	505	616
2	0	0	0	0	505	616
3	0	0	0	0	506	615
4	0	0	0	0	508	615
5	0	0	0	0	509	616
6	0	0	0	0	511	616
7	0	0	0	0	513	616
8	0	0	0	0	514	615
9	0	0	0	0	516	617
10	0	0	0	0	518	616
11	0	0	0	0	518	616
12	0	0	0	0	519	616
13	0	0	0	0	518	616
14	0	0	0	0	517	616
15	0	0	0	0	515	616
0	0	0	0	0	512	616
1	0	0	0	0	510	616
2	0	0	0	0	508	615
3	0	0	0	0	507	615
4	0	0	0	0	506	615
5	0	0	0	0	506	616
6	0	0	0	0	507	616
7	0	0	0	0	508	615
8	0	0	0	0	509	616
9	0	0	0	0	510	616
10	0	0	0	0	511	616
11	0	0	0	0	513	616
12	0	0	0	0	515	615
13	0	0	0	0	517	616
14	0	0	0	0	519	616
15	0	0	0	0	519	615
0	0	0	0	0	519	615
1	0	0	0	0	518	616
2	0	0	0	0	516	616
3	0	0	0	0	514	616
4	0	0	0	0	511	616
5	0	0	0	0	509	616
6	0	0	0	0	508	615
7	0	0	0	0	507	615
8	0	0	0	0	506	616
9	0	0	0	0	506	617
10	0	0	0	0	506	615
11	0	0	0	0	506	616
12	0	0	0	0	507	616
13	0	0	0	0	508	616
14	0	0	0	0	510	616
15	0	0	0	0	512	616
0	0	0	0	0	513	616
1	0	0	0	0	514	617
2	0	0	0	0	515	616
3	0	0	0	0	515	616
4	0	0	0	0	515	616
5	0	0	0	0	514	616
6	0	0	0	0	513	616
7	0	0	0	0	511	615
8	0	0	0	0	509	616
9	0	0	0	0	506	616
10	0	0	0	0	504	616
11	0	0	0	0	503	616
12	0	0	0	0	502	616
13	0	0	0	0	502	616
14	0	0	0	0	502	616
15	0	0	0	0	502	616
0	0	0	0	0	503	616
1	0	0	0	0	504	617
2	0	0	0	0	504	616
3	0	0	0	0	506	616
4	0	0	0	0	505	615
5	0	0	0	0	504	616
6	0	0	0	0	499	615
7	0	0	0	0	493	615
8	0	0	0	0	485	615
9	0	0	0	0	474	616
10	0	0	0	0	461	615
11	0	0	0	0	449	615
12	0	0	0	0	435	615
13	0	0	0	0	422	616
14	0	0	0	0	410	615
15	0	0	0	0	399	615
0	0	0	0	0	390	615
1	0	0	0	0	384	617
2	0	0	0	0	382	616
3	0	0	0	0	381	615
4	0	0	0	0	383	615
5	0	0	0	0	387	616
6	0	0	0	0	393	615
7	0	0	0	0	401	615
8	0	0	0	0	411	615
9	0	0	0	0	421	616
10	0	0	0	0	430	616
11	0	0	0	0	437	615
12	0	0	0	0	444	615
13	0	0	0	0	452	616
14	0	0	0	0	463	616
15	0	0	0	0	480	616
0	0	0	0	0	501	615
1	0	0	0	0	526	616
2	0	0	0	0	556	615
3	0	0	0	0	595	616
4	0	0	0	0	641	616
5	0	0	0	0	692	616
6	0	0	0	0	745	615
7	0	0	0	0	800	616
8	0	0	0	0	853	616
9	0	0	0	0	901	616
10	0	0	0	0	943	615
11	0	0	0	0	978	615
12	0	0	0	0	1006	615
13	0	0	0	0	1021	616
14	0	0	0	0	1022	616
15	0	0	0	0	1022	615
0	0	0	0	0	1022	615
1	0	0	0	0	1022	617
2	0	0	0	0	1022	615
3	0	0	0	0	1014	616
4	0	0	0	0	992	615
5	0	0	0	0	966	616
6	0	0	0	0	936	616
7	0	0	0	0	903	616
8	0	0	0	0	866	615
9	0	0	0	0	829	617
10	0	0	0	0	793	616
11	0	0	0	0	761	615
12	0	0	0	0	734	615
13	0	0	0	0	708	616
14	0	0	0	0	686	616
15	0	0	0	0	666	615
0	0	0	0	0	648	616
1	0	0	0	0	634	617
2	0	0	0	0	620	615
3	0	0	0	0	607	615
4	0	0	0	0	592	615
5	0	0	0	0	577	615
6	0	0	0	0	562	616
7	0	0	0	0	547	616
8	0	0	0	0	532	616
9	0	0	0	0	516	616
10	0	0	0	0	500	616
11	0	0	0	0	486	616
12	0	0	0	0	474	616
13	0	0	0	0	462	615
14	0	0	0	0	452	615
15	0	0	0	0	444	615
0	0	0	0	0	436	616
1	0	0	0	0	430	617
2	0	0	0	0	423	615
3	0	0	0	0	419	615
4	0	0	0	0	415	615
5	0	0	0	0	412	616
6	0	0	0	0	408	615
7	0	0	0	0	405	615
8	0	0	0	0	402	616
9	0	0	0	0	399	617
10	0	0	0	0	396	616
11	0	0	0	0	391	616
12	0	0	0	0	387	616
13	0	0	0	0	384	616
14	0	0	0	0	382	616
15	0	0	0	0	380	615
0	0	0	0	0	379	615
1	0	0	0	0	378	616
2	0	0	0	0	378	616
3	0	0	0	0	378	615
4	0	0	0	0	380	616
5	0	0	0	0	381	616
6	0	0	0	0	382	616
7	0	0	0	0	384	615
8	0	0	0	0	387	615
9	0	0	0	0	390	616
10	0	0	0	0	391	615
11	0	0	0	0	393	615
12	0	0	0	0	394	616
13	0	0	0	0	394	616
14	0	0	0	0	393	616
15	0	0	0	0	392	616
0	0	0	0	0	391	615
1	0	0	0	0	390	616
2	0	0	0	0	389	616
3	0	0	0	0	388	615
4	0	0	0	0	387	616
5	0	0	0	0	388	616
6	0	0	0	0	389	616
7	0	0	0	0	391	616
8	0	0	0	0	393	616
9	0	0	0	0	396	616
10	0	0	0	0	398	615
11	0	0	0	0	401	615
12	0	0	0	0	403	615
13	0	0	0	0	405	615
14	0	0	0	0	408	615
15	0	0	0	0	410	615
0	0	0	0	0	410	615
1	0	0	0	0	411	615
2	0	0	0	0	410	615
3	0	0	0	0	408	615
4	0	0	0	0	407	615
5	0	0	0	0	406	615
6	0	0	0	0	406	615
7	0	0	0	0	405	615
8	0	0	0	0	405	615
9	0	0	0	0	406	616
10	0	0	0	0	407	615
11	0	0	0	0	409	615
12	0	0	0	0	412	616
13	0	0	0	0	415	616
14	0	0	0	0	417	615
15	0	0	0	0	419	615
0	0	0	0	0	422	615
1	0	0	0	0	425	616
2	0	0	0	0	427	615
3	0	0	0	0	428	616
4	0	0	0	0	428	615
5	0	0	0	0	428	616
6	0	0	0	0	427	616
7	0	0	0	0	426	616
8	0	0	0	0	424	616
9	0	0	0	0	423	616
10	0	0	0	0	422	615
11	0	0	0	0	420	616
12	0	0	0	0	420	616
13	0	0	0	0	421	615
14	0	0	0	0	422	616
15	0	0	0	0	423	615
0	0	0	0	0	424	616
1	0	0	0	0	427	616
2	0	0	0	0	429	616
3	0	0	0	0	432	616
4	0	0	0	0	434	615
5	0	0	0	0	436	616
6	0	0	0	0	437	615
7	0	0	0	0	439	616
8	0	0	0	0	439	615
9	0	0	0	0	439	616
10	0	0	0	0	437	616
11	0	0	0	0	435	615
12	0	0	0	0	433	616
13	0	0	0	0	432	616
14	0	0	0	0	431	615
15	0	0	0	0	430	616
0	0	0	0	0	429	616
1	0	0	0	0	430	616
2	0	0	0	0	431	615
3	0	0	0	0	432	615
4	0	0	0	0	433	616
5	0	0	0	0	435	616
6	0	0	0	0	438	615
7	0	0	0	0	440	616
8	0	0	0	0	442	615
9	0	0	0	0	445	617
10	0	0	0	0	446	615
11	0	0	0	0	448	615
12	0	0	0	0	448	615
13	0	0	0	0	447	615
14	0	0	0	0	447	616
15	0	0	0	0	444	615
0	0	0	0	0	442	615
1	0	0	0	0	441	616
2	0	0	0	0	438	615
3	0	0	0	0	437	616
4	0	0	0	0	437	616
5	0	0	0	0	438	616
6	0	0	0	0	439	616
7	0	0	0	0	439	616
8	0	0	0	0	440	616
9	0	0	0	0	441	616
10	0	0	0	0	442	616
11	0	0	0	0	444	615
12	0	0	0	0	446	615
13	0	0	0	0	448	615
14	0	0	0	0	449	616
15	0	0	0	0	450	616
0	0	0	0	0	451	616
1	0	0	0	0	451	616
2	0	0	0	0	451	615
3	0	0	0	0	450	615
4	0	0	0	0	448	616
5	0	0	0	0	446	616
6	0	0	0	0	444	615
7	0	0	0	0	443	616
8	0	0	0	0	442	616
9	0	0	0	0	442	616
10	0	0	0	0	442	615
11	0	0	0	0	443	616
12	0	0	0	0	445	616
13	0	0	0	0	446	615
14	0	0	0	0	449	616
15	0	0	0	0	451	616
0	0	0	0	0	454	616
1	0	0	0	0	456	616
2	0	0	0	0	459	615
3	0	0	0	0	461	615
4	0	0	0	0	462	615
5	0	0	0	0	462	615
6	0	0	0	0	461	616
7	0	0	0	0	460	616
8	0	0	0	0	459	616
9	0	0	0	0	457	616
10	0	0	0	0	455	616
11	0	0	0	0	455	616
12	0	0	0	0	454	615
13	0	0	0	0	455	616
14	0	0	0	0	456	615
15	0	0	0	0	457	615
0	0	0	0	0	460	616
1	0	0	0	0	462	616
2	0	0	0	0	465	616
3	0	0	0	0	468	616
4	0	0	0	0	471	616
5	0	0	0	0	473	616
6	0	0	0	0	476	616
7	0	0	0	0	477	616
8	0	0	0	0	478	616
9	0	0	0	0	478	617
10	0	0	0	0	478	616
11	0	0	0	0	476	616
12	0	0	0	0	475	615
13	0	0	0	0	474	616
14	0	0	0	0	472	615
15	0	0	0	0	472	616
0	0	0	0	0	473	616
1	0	0	0	0	473	617
2	0	0	0	0	476	616
3	0	0	0	0	477	616
4	0	0	0	0	480	616
5	0	0	0	0	483	616
6	0	0	0	0	486	616
7	0	0	0	0	489	616
8	0	0	0	0	492	615
9	0	0	0	0	495	615
10	0	0	0	0	498	615
11	0	0	0	0	500	616
12	0	0	0	0	501	616
13	0	0	0	0	502	616
14	0	0	0	0	503	616
15	0	0	0	0	502	616
0	0	0	0	0	500	617
1	0	0	0	0	500	617
2	0	0	0	0	499	616
3	0	0	0	0	499	616
4	0	0	0	0	499	616
5	0	0	0	0	499	616
6	0	0	0	0	500	616
7	0	0	0	0	501	615
8	0	0	0	0	504	616
9	0	0	0	0	507	616
10	0	0	0	0	509	616
11	0	0	0	0	512	616
12	0	0	0	0	515	615
13	0	0	0	0	519	617
14	0	0	0	0	521	616
15	0	0	0	0	523	616
0	0	0	0	0	524	615
1	0	0	0	0	525	615
2	0	0	0	0	525	616
3	0	0	0	0	524	616
4	0	0	0	0	523	616
5	0	0	0	0	521	615
6	0	0	0	0	520	615
7	0	0	0	0	519	616
8	0	0	0	0	518	616
9	0	0	0	0	519	616
10	0	0	0	0	519	615
11	0	0	0	0	521	615
12	0	0	0	0	523	615
13	0	0	0	0	525	616
14	0	0	0	0	527	616
15	0	0	0	0	530	616
0	0	0	0	0	532	615
1	0	0	0	0	535	616
2	0	0	0	0	536	616
3	0	0	0	0	537	615
4	0	0	0	0	538	616
5	0	0	0	0	537	616
6	0	0	0	0	536	616
7	0	0	0	0	534	615
8	0	0	0	0	532	616
9	0	0	0	0	531	616
10	0	0	0	0	529	615
11	0	0	0	0	527	616
12	0	0	0	0	527	615
13	0	0	0	0	527	616
14	0	0	0	0	528	615
15	0	0	0	0	529	615
0	0	0	0	0	531	615
1	0	0	0	0	532	616
2	0	0	0	0	534	616
3	0	0	0	0	536	615
4	0	0	0	0	538	615
5	0	0	0	0	540	616
6	0	0	0	0	541	616
7	0	0	0	0	542	616
8	0	0	0	0	542	616
9	0	0	0	0	542	616
10	0	0	0	0	541	616
11	0	0	0	0	539	615
12	0	0	0	0	537	615
13	0	0	0	0	535	615
14	0	0	0	0	532	615
15	0	0	0	0	531	616
0	0	0	0	0	530	616
1	0	0	0	0	529	617
2	0	0	0	0	530	616
3	0	0	0	0	531	616
4	0	0	0	0	532	615
5	0	0	0	0	534	616
6	0	0	0	0	536	615
7	0	0	0	0	537	615
8	0	0	0	0	539	615
9	0	0	0	0	541	616
10	0	0	0	0	543	615
11	0	0	0	0	543	615
12	0	0	0	0	543	615
13	0	0	0	0	542	615
14	0	0	0	0	540	615
15	0	0	0	0	539	616
0	0	0	0	0	536	615
1	0	0	0	0	534	615
2	0	0	0	0	531	615
3	0	0	0	0	530	616
4	0	0	0	0	528	616
5	0	0	0	0	528	616
6	0	0	0	0	528	616
7	0	0	0	0	528	615
8	0	0	0	0	529	616
9	0	0	0	0	531	617
10	0	0	0	0	532	616
11	0	0	0	0	535	616
12	0	0	0	0	537	615
13	0	0	0	0	539	616
14	0	0	0	0	540	616
15	0	0	0	0	540	615
0	0	0	0	0	539	616
1	0	0	0	0	539	616
2	0	0	0	0	536	616
3	0	0	0	0	533	615
4	0	0	0	0	531	616
5	0	0	0	0	528	616
6	0	0	0	0	527	615
7	0	0	0	0	525	616
8	0	0	0	0	524	615
9	0	0	0	0	523	617
10	0	0	0	0	523	615
11	0	0	0	0	523	616
12	0	0	0	0	524	616
13	0	0	0	0	525	616
14	0	0	0	0	526	616
15	0	0	0	0	528	615
0	0	0	0	0	530	616
1	0	0	0	0	532	617
2	0	0	0	0	533	615
3	0	0	0	0	534	615
4	0	0	0	0	534	615
5	0	0	0	0	532	615
6	0	0	0	0	531	615
7	0	0	0	0	529	616
8	0	0	0	0	527	615
9	0	0	0	0	525	616
10	0	0	0	0	522	615
11	0	0	0	0	521	615
12	0	0	0	0	520	615
13	0	0	0	0	519	615
14	0	0	0	0	519	615
15	0	0	0	0	520	615
0	0	0	0	0	521	616
1	0	0	0	0	523	617
2	0	0	0	0	524	615
3	0	0	0	0	526	616
4	0	0	0	0	527	616
5	0	0	0	0	529	616
6	0	0	0	0	530	616
7	0	0	0	0	530	615
8	0	0	0	0	531	616
9	0	0	0	0	530	616
10	0	0	0	0	528	616
11	0	0	0	0	527	616
12	0	0	0	0	525	616
13	0	0	0	0	523	616
14	0	0	0	0	521	616
15	0	0	0	0	519	615
0	0	0	0	0	519	615
1	0	0	0	0	519	616
2	0	0	0	0	519	615
3	0	0	0	0	519	615
4	0	0	0	0	520	615
5	0	0	0	0	521	616
6	0	0	0	0	523	615
7	0	0	0	0	525	615
8	0	0	0	0	527	615
9	0	0	0	0	528	617
10	0	0	0	0	529	616
11	0	0	0	0	530	616
12	0	0	0	0	529	616
13	0	0	0	0	528	615
14	0	0	0	0	527	615
15	0	0	0	0	524	615
0	0	0	0	0	522	615
1	0	0	0	0	520	616
2	0	0	0	0	518	616
3	0	0	0	0	517	616
4	0	0	0	0	516	615
5	0	0	0	0	516	616
6	0	0	0	0	517	616
7	0	0	0	0	517	615
8	0	0	0	0	518	616
9	0	0	0	0	519	616
10	0	0	0	0	521	616
11	0	0	0	0	524	616
12	0	0	0	0	525	615
13	0	0	0	0	527	616
14	0	0	0	0	528	616
15	0	0	0	0	529	616
0	0	0	0	0	529	616
1	0	0	0	0	528	616
2	0	0	0	0	528	616
3	0	0	0	0	527	616
4	0	0	0	0	525	615
5	0	0	0	0	523	616
6	0	0	0	0	521	615
7	0	0	0	0	519	615
8	0	0	0	0	519	616
9	0	0	0	0	518	616
10	0	0	0	0	518	616
11	0	0	0	0	519	616
12	0	0	0	0	520	616
13	0	0	0	0	522	616
14	0	0	0	0	524	616
15	0	0	0	0	526	616
0	0	0	0	0	527	616
1	0	0	0	0	529	616
2	0	0	0	0	530	615
3	0	0	0	0	531	615
4	0	0	0	0	531	615
5	0	0	0	0	530	615
6	0	0	0	0	528	615
7	0	0	0	0	527	615
8	0	0	0	0	526	616
9	0	0	0	0	524	617
10	0	0	0	0	521	616
11	0	0	0	0	519	615
12	0	0	0	0	519	615
13	0	0	0	0	519	615
14	0	0	0	0	518	615
15	0	0	0	0	518	615
0	0	0	0	0	519	615
1	0	0	0	0	521	616
2	0	0	0	0	523	615
3	0	0	0	0	525	616
4	0	0	0	0	527	616
5	0	0	0	0	528	616
6	0	0	0	0	529	616
7	0	0	0	0	529	615
8	0	0	0	0	529	616
9	0	0	0	0	529	616
10	0	0	0	0	527	616
11	0	0	0	0	527	616
12	0	0	0	0	524	616
13	0	0	0	0	522	616
14	0	0	0	0	520	616
15	0	0	0	0	519	616
0	0	0	0	0	518	616
1	0	0	0	0	518	616
2	0	0	0	0	518	616
3	0	0	0	0	518	616
4	0	0	0	0	519	616
5	0	0	0	0	521	615
6	0	0	0	0	523	616
7	0	0	0	0	524	616
8	0	0	0	0	526	616
9	0	0	0	0	528	616
10	0	0	0	0	529	616
11	0	0	0	0	530	615
12	0	0	0	0	529	615
13	0	0	0	0	528	615
14	0	0	0	0	527	616
15	0	0	0	0	524	615
0	0	0	0	0	521	615
1	0	0	0	0	519	616
2	0	0	0	0	516	615
3	0	0	0	0	515	616
4	0	0	0	0	514	616
5	0	0	0	0	513	616
6	0	0	0	0	513	615
7	0	0	0	0	514	615
8	0	0	0	0	516	616
9	0	0	0	0	518	616
10	0	0	0	0	520	616
11	0	0	0	0	523	616
12	0	0	0	0	524	615
13	0	0	0	0	526	616
14	0	0	0	0	527	616
15	0	0	0	0	527	616
0	0	0	0	0	527	616
1	0	0	0	0	527	617
2	0	0	0	0	526	616
3	0	0	0	0	524	616
4	0	0	0	0	521	616
5	0	0	0	0	519	616
6	0	0	0	0	517	616
7	0	0	0	0	515	616
8	0	0	0	0	513	616
9	0	0	0	0	513	616
10	0	0	0	0	512	616
11	0	0	0	0	513	616
12	0	0	0	0	514	616
13	0	0	0	0	515	616
14	0	0	0	0	518	616
15	0	0	0	0	519	616
0	0	0	0	0	521	615
1	0	0	0	0	523	616
2	0	0	0	0	524	615
3	0	0	0	0	525	615
4	0	0	0	0	524	616
5	0	0	0	0	524	615
6	0	0	0	0	523	616
7	0	0	0	0	521	616
8	0	0	0	0	519	616
9	0	0	0	0	518	616
10	0	0	0	0	515	616
11	0	0	0	0	514	616
12	0	0	0	0	513	616
13	0	0	0	0	513	616
14	0	0	0	0	512	616
15	0	0	0	0	512	615
0	0	0	0	0	513	615
1	0	0	0	0	514	616
2	0	0	0	0	516	615
3	0	0	0	0	518	615
4	0	0	0	0	520	615
5	0	0	0	0	521	616
6	0	0	0	0	522	616
7	0	0	0	0	523	617
8	0	0	0	0	523	616
9	0	0	0	0	522	617
10	0	0	0	0	521	616
11	0	0	0	0	519	616
12	0	0	0	0	517	616
13	0	0	0	0	515	616
14	0	0	0	0	512	615
15	0	0	0	0	511	615
0	0	0	0	0	509	616
1	0	0	0	0	509	617
2	0	0	0	0	508	616
3	0	0	0	0	509	616
4	0	0	0	0	510	616
5	0	0	0	0	512	616
6	0	0	0	0	513	616
7	0	0	0	0	515	616
8	0	0	0	0	517	615
9	0	0	0	0	519	617
10	0	0	0	0	521	615
11	0	0	0	0	521	616
12	0	0	0	0	521	616
13	0	0	0	0	521	616
14	0	0	0	0	519	616
15	0	0	0	0	518	616
0	0	0	0	0	516	615
1	0	0	0	0	514	616
2	0	0	0	0	512	616
3	0	0	0	0	511	616
4	0	0	0	0	510	616
5	0	0	0	0	509	616
6	0	0	0	0	510	616
7	0	0	0	0	510	616
8	0	0	0	0	511	615
9	0	0	0	0	513	616
10	0	0	0	0	515	616
11	0	0	0	0	516	616
12	0	0	0	0	518	615
13	0	0	0	0	520	616
14	0	0	0	0	521	615
15	0	0	0	0	521	616
0	0	0	0	0	521	616
1	0	0	0	0	520	616
2	0	0	0	0	519	616
3	0	0	0	0	516	616
4	0	0	0	0	514	616
5	0	0	0	0	511	616
6	0	0	0	0	509	615
7	0	0	0	0	507	616
8	0	0	0	0	506	616
9	0	0	0	0	506	616
10	0	0	0	0	506	616
11	0	0	0	0	507	615
12	0	0	0	0	508	616
13	0	0	0	0	510	616
14	0	0	0	0	512	616
15	0	0	0	0	514	615
0	0	0	0	0	516	615
1	0	0	0	0	519	616
2	0	0	0	0	519	615
3	0	0	0	0	520	615
4	0	0	0	0	520	615
5	0	0	0	0	519	616
6	0	0	0	0	517	616
7	0	0	0	0	515	616
8	0	0	0	0	513	615
9	0	0	0	0	511	616
10	0	0	0	0	509	616
11	0	0	0	0	507	616
12	0	0	0	0	506	616
13	0	0	0	0	505	617
14	0	0	0	0	506	616
15	0	0	0	0	507	615
0	0	0	0	0	508	615
1	0	0	0	0	510	616
2	0	0	0	0	511	615
3	0	0	0	0	513	615
4	0	0	0	0	516	615
5	0	0	0	0	517	615
6	0	0	0	0	518	615
7	0	0	0	0	519	615
8	0	0	0	0	519	615
9	0	0	0	0	518	616
10	0	0	0	0	517	616
11	0	0	0	0	515	615
12	0	0	0	0	513	615
13	0	0	0	0	511	615
14	0	0	0	0	509	616
15	0	0	0	0	507	616
0	0	0	0	0	507	615
1	0	0	0	0	505	616
2	0	0	0	0	505	615
3	0	0	0	0	504	615
4	0	0	0	0	505	615
5	0	0	0	0	507	615
6	0	0	0	0	508	616
7	0	0	0	0	511	615
8	0	0	0	0	512	615
9	0	0	0	0	513	616
10	0	0	0	0	515	615
11	0	0	0	0	515	615
12	0	0	0	0	515	616
13	0	0	0	0	515	616
14	0	0	0	0	513	616
15	0	0	0	0	511	616
0	0	0	0	0	510	615
1	0	0	0	0	508	616
2	0	0	0	0	505	615
3	0	0	0	0	504	616
4	0	0	0	0	503	615
5	0	0	0	0	503	615
6	0	0	0	0	504	615
7	0	0	0	0	504	616
8	0	0	0	0	505	616
9	0	0	0	0	507	616
10	0	0	0	0	509	616
11	0	0	0	0	511	615
12	0	0	0	0	512	616
13	0	0	0	0	513	616
14	0	0	0	0	515	616
15	0	0	0	0	515	616
0	0	0	0	0	515	615
1	0	0	0	0	515	616
2	0	0	0	0	514	615
3	0	0	0	0	512	615
4	0	0	0	0	509	616
5	0	0	0	0	507	615
6	0	0	0	0	505	616
7	0	0	0	0	504	616
8	0	0	0	0	503	615
9	0	0	0	0	503	616
10	0	0	0	0	503	616
11	0	0	0	0	503	615
12	0	0	0	0	504	616
13	0	0	0	0	505	616
14	0	0	0	0	508	615
15	0	0	0	0	509	616
0	0	0	0	0	511	616
1	0	0	0	0	513	617
2	0	0	0	0	514	616
3	0	0	0	0	515	615
4	0	0	0	0	514	616
5	0	0	0	0	514	616
6	0	0	0	0	513	616
7	0	0	0	0	511	615
8	0	0	0	0	509	615
9	0	0	0	0	507	616
10	0	0	0	0	504	615
11	0	0	0	0	503	616
12	0	0	0	0	502	615
13	0	0	0	0	501	616
14	0	0	0	0	501	615
15	0	0	0	0	501	615
0	0	0	0	0	503	616
1	0	0	0	0	504	616
2	0	0	0	0	506	616
3	0	0	0	0	507	615
4	0	0	0	0	510	615
5	0	0	0	0	512	616
6	0	0	0	0	513	616
7	0	0	0	0	513	616
8	0	0	0	0	513	616
9	0	0	0	0	512	616
10	0	0	0	0	511	616
11	0	0	0	0	508	616
12	0	0	0	0	505	616
13	0	0	0	0	503	616
14	0	0	0	0	500	616
15	0	0	0	0	498	616
0	0	0	0	0	496	615
1	0	0	0	0	496	616
2	0	0	0	0	495	615
3	0	0	0	0	495	616
4	0	0	0	0	496	616
5	0	0	0	0	498	615
6	0	0	0	0	500	616
7	0	0	0	0	502	615
8	0	0	0	0	503	616
9	0	0	0	0	505	616
10	0	0	0	0	507	616
11	0	0	0	0	508	616
12	0	0	0	0	508	616
13	0	0	0	0	507	616
14	0	0	0	0	505	616
15	0	0	0	0	504	615
0	0	0	0	0	502	616
1	0	0	0	0	499	616
2	0	0	0	0	497	615
3	0	0	0	0	497	616
4	0	0	0	0	495	616
5	0	0	0	0	496	616
6	0	0	0	0	496	616
7	0	0	0	0	497	615
8	0	0	0	0	499	616
9	0	0	0	0	502	616
10	0	0	0	0	504	616
11	0	0	0	0	506	615
12	0	0	0	0	509	615
13	0	0	0	0	511	616
14	0	0	0	0	514	616
15	0	0	0	0	515	615
0	0	0	0	0	517	616
1	0	0	0	0	516	616
2	0	0	0	0	515	616
3	0	0	0	0	514	615
4	0	0	0	0	512	615
5	0	0	0	0	510	615
6	0	0	0	0	507	615
7	0	0	0	0	505	615
8	0	0	0	0	504	615
9	0	0	0	0	503	616
10	0	0	0	0	504	615
11	0	0	0	0	503	615
12	0	0	0	0	504	615
13	0	0	0	0	505	616
14	0	0	0	0	506	615
15	0	0	0	0	508	615
0	0	0	0	0	510	616
1	0	0	0	0	512	616
2	0	0	0	0	514	615
3	0	0	0	0	515	615
4	0	0	0	0	515	616
5	0	0	0	0	515	616
6	0	0	0	0	515	616
7	0	0	0	0	513	616
8	0	0	0	0	511	616
9	0	0	0	0	509	616
10	0	0	0	0	507	616
11	0	0	0	0	506	616
12	0	0	0	0	504	615
13	0	0	0	0	504	616
14	0	0	0	0	504	615
15	0	0	0	0	504	615
0	0	0	0	0	505	615
1	0	0	0	0	506	616
2	0	0	0	0	507	616
3	0	0	0	0	509	616
4	0	0	0	0	511	616
5	0	0	0	0	513	616
6	0	0	0	0	514	616
7	0	0	0	0	514	616
8	0	0	0	0	514	616
9	0	0	0	0	513	616
10	0	0	0	0	512	616
11	0	0	0	0	511	615
12	0	0	0	0	510	616
13	0	0	0	0	508	616
14	0	0	0	0	506	616
15	0	0	0	0	504	617
0	0	0	0	0	504	616
1	0	0	0	0	504	617
2	0	0	0	0	504	615
3	0	0	0	0	504	615
4	0	0	0	0	505	616
5	0	0	0	0	506	615
6	0	0	0	0	508	615
7	0	0	0	0	509	615
8	0	0	0	0	511	615
9	0	0	0	0	513	616
10	0	0	0	0	514	615
11	0	0	0	0	514	615
12	0	0	0	0	514	615
13	0	0	0	0	513	615
14	0	0	0	0	512	616
15	0	0	0	0	510	615
0	0	0	0	0	508	615
1	0	0	0	0	506	616
2	0	0	0	0	504	616
3	0	0	0	0	503	615
4	0	0	0	0	502	615
5	0	0	0	0	502	616
6	0	0	0	0	503	616
7	0	0	0	0	503	616
8	0	0	0	0	504	615
9	0	0	0	0	505	616
10	0	0	0	0	507	616
11	0	0	0	0	509	616
12	0	0	0	0	511	615
13	0	0	0	0	513	616
14	0	0	0	0	515	616
15	0	0	0	0	515	616
0	0	0	0	0	515	616
1	0	0	0	0	514	616
2	0	0	0	0	512	616
3	0	0	0	0	510	616
4	0	0	0	0	506	616
5	0	0	0	0	502	616
6	0	0	0	0	498	616
7	0	0	0	0	494	616
8	0	0	0	0	489	615
9	0	0	0	0	483	617
10	0	0	0	0	476	615
11	0	0	0	0	467	615
12	0	0	0	0	459	615
13	0	0	0	0	449	616
14	0	0	0	0	440	616
15	0	0	0	0	430	616
0	0	0	0	0	422	615
1	0	0	0	0	414	616
2	0	0	0	0	406	616
3	0	0	0	0	399	616
4	0	0	0	0	396	616
5	0	0	0	0	391	615
6	0	0	0	0	390	616
7	0	0	0	0	389	616
8	0	0	0	0	391	616
9	0	0	0	0	393	616
10	0	0	0	0	399	615
11	0	0	0	0	406	616
12	0	0	0	0	413	616
13	0	0	0	0	419	616
14	0	0	0	0	427	616
15	0	0	0	0	434	615
0	0	0	0	0	446	616
1	0	0	0	0	462	616
2	0	0	0	0	484	616
3	0	0	0	0	511	616
4	0	0	0	0	541	615
5	0	0	0	0	578	616
6	0	0	0	0	624	616
7	0	0	0	0	673	616
8	0	0	0	0	725	615
9	0	0	0	0	780	616
10	0	0	0	0	833	616
11	0	0	0	0	881	616
12	0	0	0	0	923	615
13	0	0	0	0	959	616
14	0	0	0	0	986	615
15	0	0	0	0	1008	615
0	0	0	0	0	1020	616
1	0	0	0	0	1022	616
2	0	0	0	0	1022	616
3	0	0	0	0	1022	615
4	0	0	0	0	1022	616
5	0	0	0	0	1018	616
6	0	0	0	0	1002	615
7	0	0	0	0	984	615
8	0	0	0	0	960	616
9	0	0	0	0	932	617
10	0	0	0	0	900	616
11	0	0	0	0	865	617
12	0	0	0	0	828	616
13	0	0	0	0	794	616
14	0	0	0	0	763	616
15	0	0	0	0	733	616
0	0	0	0	0	705	616
1	0	0	0	0	679	616
2	0	0	0	0	655	616
3	0	0	0	0	635	616
4	0	0	0	0	617	616
5	0	0	0	0	603	616
6	0	0	0	0	589	615
7	0	0	0	0	575	615
8	0	0	0	0	562	616
9	0	0	0	0	551	616
10	0	0	0	0	539	615
11	0	0	0	0	527	615
12	0	0	0	0	515	616
13	0	0	0	0	503	616
14	0	0	0	0	492	616
15	0	0	0	0	481	616
0	0	0	0	0	470	616
1	0	0	0	0	460	616
2	0	0	0	0	450	616
3	0	0	0	0	439	616
4	0	0	0	0	429	616
5	0	0	0	0	420	616
6	0	0	0	0	412	616
7	0	0	0	0	405	617
8	0	0	0	0	399	615
9	0	0	0	0	395	615
10	0	0	0	0	392	616
11	0	0	0	0	390	615
12	0	0	0	0	388	616
13	0	0	0	0	387	615
14	0	0	0	0	387	616
15	0	0	0	0	387	616
0	0	0	0	0	388	616
1	0	0	0	0	390	617
2	0	0	0	0	391	616
3	0	0	0	0	391	616
4	0	0	0	0	391	615
5	0	0	0	0	390	616
6	0	0	0	0	388	616
7	0	0	0	0	387	616
8	0	0	0	0	384	615
9	0	0	0	0	382	616
10	0	0	0	0	381	615
11	0	0	0	0	380	615
12	0	0	0	0	379	615
13	0	0	0	0	379	615
14	0	0	0	0	380	616
15	0	0	0	0	381	616
0	0	0	0	0	383	616
1	0	0	0	0	385	617
2	0	0	0	0	387	616
3	0	0	0	0	390	616
4	0	0	0	0	392	616
5	0	0	0	0	395	617
6	0	0	0	0	398	616
7	0	0	0	0	400	616
8	0	0	0	0	401	616
9	0	0	0	0	401	616
10	0	0	0	0	401	616
11	0	0	0	0	399	615
12	0	0	0	0	399	615
13	0	0	0	0	397	616
14	0	0	0	0	396	615
15	0	0	0	0	396	616
0	0	0	0	0	395	616
1	0	0	0	0	396	616
2	0	0	0	0	396	616
3	0	0	0	0	397	616
4	0	0	0	0	399	616
5	0	0	0	0	402	615
6	0	0	0	0	405	616
7	0	0	0	0	408	616
8	0	0	0	0	411	615
9	0	0	0	0	414	616
10	0	0	0	0	416	615
11	0	0	0	0	418	615
12	0	0	0	0	419	615
13	0	0	0	0	420	615
14	0	0	0	0	420	615
15	0	0	0	0	419	615
0	0	0	0	0	417	615
1	0	0	0	0	416	616
2	0	0	0	0	415	615
3	0	0	0	0	414	616
4	0	0	0	0	414	616
5	0	0	0	0	414	616
6	0	0	0	0	415	615
7	0	0	0	0	416	615
8	0	0	0	0	417	616
9	0	0	0	0	420	616
10	0	0	0	0	423	615
11	0	0	0	0	425	615
12	0	0	0	0	428	615
13	0	0	0	0	431	616
14	0	0	0	0	433	615
15	0	0	0	0	435	615
0	0	0	0	0	436	615
1	0	0	0	0	436	616
2	0	0	0	0	435	616
3	0	0	0	0	434	616
4	0	0	0	0	433	616
5	0	0	0	0	431	616
6	0	0	0	0	429	616
7	0	0	0	0	428	616
8	0	0	0	0	427	616
9	0	0	0	0	427	616
10	0	0	0	0	428	616
11	0	0	0	0	428	616
12	0	0	0	0	430	615
13	0	0	0	0	432	616
14	0	0	0	0	434	616
15	0	0	0	0	436	615
0	0	0	0	0	439	615
1	0	0	0	0	441	616
2	0	0	0	0	444	615
3	0	0	0	0	445	616
4	0	0	0	0	445	615
5	0	0	0	0	445	615
6	0	0	0	0	444	615
7	0	0	0	0	443	615
8	0	0	0	0	440	615
9	0	0	0	0	439	616
10	0	0	0	0	437	615
11	0	0	0	0	435	616
12	0	0	0	0	435	615
13	0	0	0	0	434	616
14	0	0	0	0	435	615
15	0	0	0	0	435	615
0	0	0	0	0	437	616
1	0	0	0	0	439	616
2	0	0	0	0	440	615
3	0	0	0	0	442	616
4	0	0	0	0	444	616
5	0	0	0	0	446	616
6	0	0	0	0	448	616
7	0	0	0	0	450	616
8	0	0	0	0	450	616
9	0	0	0	0	450	616
10	0	0	0	0	450	616
11	0	0	0	0	448	616
12	0	0	0	0	447	617
13	0	0	0	0	444	616
14	0	0	0	0	443	616
15	0	0	0	0	441	616
0	0	0	0	0	440	616
1	0	0	0	0	440	616
2	0	0	0	0	440	615
3	0	0	0	0	441	616
4	0	0	0	0	443	616
5	0	0	0	0	445	616
6	0	0	0	0	447	615
7	0	0	0	0	449	616
8	0	0	0	0	451	615
9	0	0	0	0	453	616
10	0	0	0	0	455	615
11	0	0	0	0	456	615
12	0	0	0	0	457	615
13	0	0	0	0	457	615
14	0	0	0	0	457	615
15	0	0	0	0	455	615
0	0	0	0	0	454	615
1	0	0	0	0	452	616
2	0	0	0	0	450	616
3	0	0	0	0	448	616
4	0	0	0	0	448	616
5	0	0	0	0	447	616
6	0	0	0	0	448	616
7	0	0	0	0	448	616
8	0	0	0	0	450	616
9	0	0	0	0	452	616
10	0	0	0	0	455	616
11	0	0	0	0	457	616
12	0	0	0	0	460	616
13	0	0	0	0	463	616
14	0	0	0	0	466	615
15	0	0	0	0	467	615
0	0	0	0	0	469	616
1	0	0	0	0	469	616
2	0	0	0	0	468	616
3	0	0	0	0	467	616
4	0	0	0	0	465	616
5	0	0	0	0	464	616
6	0	0	0	0	463	616
7	0	0	0	0	463	616
8	0	0	0	0	462	615
9	0	0	0	0	463	616
10	0	0	0	0	464	615
11	0	0	0	0	465	616
12	0	0	0	0	468	616
13	0	0	0	0	471	616
14	0	0	0	0	474	616
15	0	0	0	0	477	615
0	0	0	0	0	481	616
1	0	0	0	0	484	616
2	0	0	0	0	487	615
3	0	0	0	0	489	616
4	0	0	0	0	490	616
5	0	0	0	0	490	616
6	0	0	0	0	491	617
7	0	0	0	0	490	616
8	0	0	0	0	489	616
9	0	0	0	0	488	617
10	0	0	0	0	487	616
11	0	0	0	0	486	616
12	0	0	0	0	487	616
13	0	0	0	0	487	616
14	0	0	0	0	488	616
15	0	0	0	0	489	615
0	0	0	0	0	491	615
1	0	0	0	0	493	616
2	0	0	0	0	496	615
3	0	0	0	0	499	616
4	0	0	0	0	503	615
5	0	0	0	0	506	616
6	0	0	0	0	509	616
7	0	0	0	0	511	616
8	0	0	0	0	512	616
9	0	0	0	0	512	616
10	0	0	0	0	512	616
11	0	0	0	0	512	616
12	0	0	0	0	511	616
13	0	0	0	0	510	616
14	0	0	0	0	508	616
15	0	0	0	0	508	616
0	0	0	0	0	507	616
1	0	0	0	0	508	617
2	0	0	0	0	509	616
3	0	0	0	0	511	616
4	0	0	0	0	512	616
5	0	0	0	0	515	616
6	0	0	0	0	518	616
7	0	0	0	0	521	616
8	0	0	0	0	524	616
9	0	0	0	0	527	616
10	0	0	0	0	529	616
11	0	0	0	0	531	616
12	0	0	0	0	532	616
13	0	0	0	0	532	616
14	0	0	0	0	532	616
15	0	0	0	0	531	616
0	0	0	0	0	530	616
1	0	0	0	0	528	617
2	0	0	0	0	527	616
3	0	0	0	0	525	616
4	0	0	0	0	524	616
5	0	0	0	0	525	616
6	0	0	0	0	525	616
7	0	0	0	0	525	616
8	0	0	0	0	526	615
9	0	0	0	0	528	616
10	0	0	0	0	530	615
11	0	0	0	0	532	615
12	0	0	0	0	534	616
13	0	0	0	0	537	616
14	0	0	0	0	539	616
15	0	0	0	0	540	616
0	0	0	0	0	540	615
1	0	0	0	0	541	616
2	0	0	0	0	541	616
3	0	0	0	0	539	615
4	0	0	0	0	537	615
5	0	0	0	0	536	615
6	0	0	0	0	533	615
7	0	0	0	0	531	615
8	0	0	0	0	530	615
9	0	0	0	0	529	616
10	0	0	0	0	529	616
11	0	0	0	0	531	615
12	0	0	0	0	532	615
13	0	0	0	0	534	616
14	0	0	0	0	536	616
15	0	0	0	0	539	615
0	0	0	0	0	540	615
1	0	0	0	0	542	616
2	0	0	0	0	543	615
3	0	0	0	0	545	616
4	0	0	0	0	545	615
5	0	0	0	0	545	616
6	0	0	0	0	544	616
7	0	0	0	0	543	616
8	0	0	0	0	540	616
9	0	0	0	0	538	617
10	0	0	0	0	536	616
11	0	0	0	0	534	616
12	0	0	0	0	532	615
13	0	0	0	0	531	616
14	0	0	0	0	531	616
15	0	0	0	0	531	616
0	0	0	0	0	531	616
1	0	0	0	0	532	616
2	0	0	0	0	533	616
3	0	0	0	0	535	616
4	0	0	0	0	537	616
5	0	0	0	0	539	616
6	0	0	0	0	541	616
7	0	0	0	0	542	616
8	0	0	0	0	543	616
9	0	0	0	0	542	617
10	0	0	0	0	541	616
11	0	0	0	0	539	616
12	0	0	0	0	536	616
13	0	0	0	0	534	616
14	0	0	0	0	532	616
15	0	0	0	0	530	616
0	0	0	0	0	527	616
1	0	0	0	0	527	617
2	0	0	0	0	527	616
3	0	0	0	0	527	615
4	0	0	0	0	527	615
5	0	0	0	0	528	615
6	0	0	0	0	529	615
7	0	0	0	0	531	616
8	0	0	0	0	533	615
9	0	0	0	0	535	616
10	0	0	0	0	536	616
11	0	0	0	0	538	616
12	0	0	0	0	538	616
13	0	0	0	0	537	616
14	0	0	0	0	536	615
15	0	0	0	0	533	616
0	0	0	0	0	530	616
1	0	0	0	0	527	617
2	0	0	0	0	524	615
3	0	0	0	0	523	616
4	0	0	0	0	521	616
5	0	0	0	0	520	616
6	0	0	0	0	521	616
7	0	0	0	0	521	616
8	0	0	0	0	522	616
9	0	0	0	0	524	616
10	0	0	0	0	525	615
11	0	0	0	0	527	616
12	0	0	0	0	529	615
13	0	0	0	0	531	616
14	0	0	0	0	532	615
15	0	0	0	0	534	616
0	0	0	0	0	534	616
1	0	0	0	0	534	616
2	0	0	0	0	533	616
3	0	0	0	0	531	616
4	0	0	0	0	529	616
5	0	0	0	0	528	616
6	0	0	0	0	525	616
7	0	0	0	0	525	616
8	0	0	0	0	523	616
9	0	0	0	0	522	617
10	0	0	0	0	521	616
11	0	0	0	0	521	616
12	0	0	0	0	522	616
13	0	0	0	0	524	616
14	0	0	0	0	525	616
15	0	0	0	0	527	616
0	0	0	0	0	529	615
1	0	0	0	0	531	617
2	0	0	0	0	532	616
3	0	0	0	0	533	616
4	0	0	0	0	533	616
5	0	0	0	0	533	616
6	0	0	0	0	532	617
7	0	0	0	0	530	616
8	0	0	0	0	528	616
9	0	0	0	0	527	616
10	0	0	0	0	524	616
11	0	0	0	0	522	616
12	0	0	0	0	520	616
13	0	0	0	0	519	616
14	0	0	0	0	519	616
15	0	0	0	0	519	616
0	0	0	0	0	519	616
1	0	0	0	0	520	616
2	0	0	0	0	522	616
3	0	0	0	0	524	616
4	0	0	0	0	526	615
5	0	0	0	0	527	616
6	0	0	0	0	529	615
7	0	0	0	0	530	615
8	0	0	0	0	530	615
9	0	0	0	0	530	616
10	0	0	0	0	529	615
11	0	0	0	0	528	616
12	0	0	0	0	526	616
13	0	0	0	0	524	617
14	0	0	0	0	521	616
15	0	0	0	0	520	616
0	0	0	0	0	519	616
1	0	0	0	0	518	616
2	0	0	0	0	518	615
3	0	0	0	0	519	615
4	0	0	0	0	519	616
5	0	0	0	0	522	615
6	0	0	0	0	524	615
7	0	0	0	0	526	616
8	0	0	0	0	528	615
9	0	0	0	0	530	616
10	0	0	0	0	532	616
11	0	0	0	0	532	615
12	0	0	0	0	533	615
13	0	0	0	0	532	615
14	0	0	0	0	531	616
15	0	0	0	0	529	616
0	0	0	0	0	527	615
1	0	0	0	0	525	616
2	0	0	0	0	521	615
3	0	0	0	0	520	616
4	0	0	0	0	518	616
5	0	0	0	0	518	616
6	0	0	0	0	518	616
7	0	0	0	0	519	616
8	0	0	0	0	519	616
9	0	0	0	0	521	616
10	0	0	0	0	522	615
11	0	0	0	0	524	616
12	0	0	0	0	526	616
13	0	0	0	0	527	616
14	0	0	0	0	529	616
15	0	0	0	0	530	616
0	0	0	0	0	530	615
1	0	0	0	0	529	616
2	0	0	0	0	528	616
3	0	0	0	0	526	616
4	0	0	0	0	524	615
5	0	0	0	0	523	616
6	0	0	0	0	519	615
7	0	0	0	0	518	616
8	0	0	0	0	517	616
9	0	0	0	0	516	616
10	0	0	0	0	516	616
11	0	0	0	0	516	615
12	0	0	0	0	517	616
13	0	0	0	0	518	616
14	0	0	0	0	519	616
15	0	0	0	0	521	616
0	0	0	0	0	524	615
1	0	0	0	0	526	616
2	0	0	0	0	528	615
3	0	0	0	0	529	615
4	0	0	0	0	529	615
5	0	0	0	0	529	616
6	0	0	0	0	528	616
7	0	0	0	0	526	616
8	0	0	0	0	524	615
9	0	0	0	0	521	616
10	0	0	0	0	519	616
11	0	0	0	0	517	616
12	0	0	0	0	515	616
13	0	0	0	0	515	616
14	0	0	0	0	515	616
15	0	0	0	0	514	616
0	0	0	0	0	515	615
1	0	0	0	0	516	616
2	0	0	0	0	518	616
3	0	0	0	0	520	616
4	0	0	0	0	521	615
5	0	0	0	0	524	616
6	0	0	0	0	526	616
7	0	0	0	0	527	615
8	0	0	0	0	527	615
9	0	0	0	0	527	616
10	0	0	0	0	526	616
11	0	0	0	0	524	616
12	0	0	0	0	521	616
13	0	0	0	0	519	616
14	0	0	0	0	517	615
15	0	0	0	0	515	616
0	0	0	0	0	514	615
1	0	0	0	0	513	616
2	0	0	0	0	513	615
3	0	0	0	0	514	615
4	0	0	0	0	515	615
5	0	0	0	0	516	615
6	0	0	0	0	518	615
7	0	0	0	0	520	615
8	0	0	0	0	523	615
9	0	0	0	0	524	616
10	0	0	0	0	525	615
11	0	0	0	0	527	616
12	0	0	0	0	526	615
13	0	0	0	0	525	615
14	0	0	0	0	524	616
15	0	0	0	0	521	615
0	0	0	0	0	519	615
1	0	0	0	0	516	617
2	0	0	0	0	514	615
3	0	0	0	0	512	616
4	0	0	0	0	512	616
5	0	0	0	0	511	615
6	0	0	0	0	511	615
7	0	0	0	0	512	616
8	0	0	0	0	513	616
9	0	0	0	0	513	616
10	0	0	0	0	515	616
11	0	0	0	0	517	615
12	0	0	0	0	519	615
13	0	0	0	0	521	616
14	0	0	0	0	523	616
15	0	0	0	0	524	616
0	0	0	0	0	524	617
1	0	0	0	0	524	617
2	0	0	0	0	523	617
3	0	0	0	0	520	617
4	0	0	0	0	518	616
5	0	0	0	0	516	617
6	0	0	0	0	513	616
7	0	0	0	0	512	616
8	0	0	0	0	511	615
9	0	0	0	0	510	616
10	0	0	0	0	510	616
11	0	0	0	0	511	616
12	0	0	0	0	512	616
13	0	0	0	0	513	616
14	0	0	0	0	514	616
15	0	0	0	0	515	617
0	0	0	0	0	518	617
1	0	0	0	0	519	617
2	0	0	0	0	521	616
3	0	0	0	0	522	616
4	0	0	0	0	523	616
5	0	0	0	0	521	616
6	0	0	0	0	521	616
7	0	0	0	0	519	616
8	0	0	0	0	517	616
9	0	0	0	0	515	616
10	0	0	0	0	512	615
11	0	0	0	0	510	616
12	0	0	0	0	508	615
13	0	0	0	0	508	616
14	0	0	0	0	508	616
15	0	0	0	0	508	616
0	0	0	0	0	509	615
1	0	0	0	0	510	616
2	0	0	0	0	512	615
3	0	0	0	0	513	617
4	0	0	0	0	515	615
5	0	0	0	0	517	616
6	0	0	0	0	519	616
7	0	0	0	0	520	616
8	0	0	0	0	520	615
9	0	0	0	0	520	616
10	0	0	0	0	519	615
11	0	0	0	0	518	615
12	0	0	0	0	516	615
13	0	0	0	0	513	615
14	0	0	0	0	511	616
15	0	0	0	0	509	616
0	0	0	0	0	508	616
1	0	0	0	0	507	616
2	0	0	0	0	507	616
3	0	0	0	0	507	616
4	0	0	0	0	508	616
5	0	0	0	0	509	616
6	0	0	0	0	511	616
7	0	0	0	0	512	616
8	0	0	0	0	514	616
9	0	0	0	0	516	616
10	0	0	0	0	518	615
11	0	0	0	0	519	615
12	0	0	0	0	519	615
13	0	0	0	0	519	615
14	0	0	0	0	518	616
15	0	0	0	0	515	616
0	0	0	0	0	514	616
1	0	0	0	0	512	617
2	0	0	0	0	509	616
3	0	0	0	0	508	616
4	0	0	0	0	507	615
5	0	0	0	0	505	616
6	0	0	0	0	505	616
7	0	0	0	0	506	615
8	0	0	0	0	507	615
9	0	0	0	0	508	615
10	0	0	0	0	510	615
11	0	0	0	0	512	616
12	0	0	0	0	513	615
13	0	0	0	0	514	616
14	0	0	0	0	515	616
15	0	0	0	0	516	616
0	0	0	0	0	516	615
1	0	0	0	0	515	616
2	0	0	0	0	514	616
3	0	0	0	0	512	616
4	0	0	0	0	511	615
5	0	0	0	0	509	616
6	0	0	0	0	508	616
7	0	0	0	0	506	617
8	0	0	0	0	504	616
9	0	0	0	0	503	616
10	0	0	0	0	503	616
11	0	0	0	0	504	615
12	0	0	0	0	504	615
13	0	0	0	0	506	615
14	0	0	0	0	507	615
15	0	0	0	0	510	615
0	0	0	0	0	512	615
1	0	0	0	0	514	616
2	0	0	0	0	515	615
3	0	0	0	0	516	616
4	0	0	0	0	516	616
5	0	0	0	0	516	616
6	0	0	0	0	515	616
7	0	0	0	0	513	616
8	0	0	0	0	511	616
9	0	0	0	0	508	616
10	0	0	0	0	505	615
11	0	0	0	0	504	616
12	0	0	0	0	503	615
13	0	0	0	0	502	615
14	0	0	0	0	502	616
15	0	0	0	0	502	616
0	0	0	0	0	503	616
1	0	0	0	0	504	616
2	0	0	0	0	506	615
3	0	0	0	0	508	616
4	0	0	0	0	511	616
5	0	0	0	0	513	616
6	0	0	0	0	515	615
7	0	0	0	0	516	615
8	0	0	0	0	516	615
9	0	0	0	0	516	616
10	0	0	0	0	516	615
11	0	0	0	0	514	615
12	0	0	0	0	512	616
13	0	0	0	0	510	615
14	0	0	0	0	507	615
15	0	0	0	0	505	616
0	0	0	0	0	504	615
1	0	0	0	0	504	616
2	0	0	0	0	504	616
3	0	0	0	0	504	615
4	0	0	0	0	505	616
5	0	0	0	0	506	616
6	0	0	0	0	508	616
7	0	0	0	0	509	616
8	0	0	0	0	511	615
9	0	0	0	0	513	617
10	0	0	0	0	515	615
11	0	0	0	0	515	615
12	0	0	0	0	516	616
13	0	0	0	0	516	615
14	0	0	0	0	516	615
15	0	0	0	0	513	615
0	0	0	0	0	512	615
1	0	0	0	0	509	616
2	0	0	0	0	507	615
3	0	0	0	0	505	616
4	0	0	0	0	503	616
5	0	0	0	0	503	616
6	0	0	0	0	502	616
7	0	0	0	0	503	615
8	0	0	0	0	504	616
9	0	0	0	0	505	617
10	0	0	0	0	507	615
11	0	0	0	0	510	616
12	0	0	0	0	511	615
13	0	0	0	0	513	616
14	0	0	0	0	515	616
15	0	0	0	0	516	616
0	0	0	0	0	516	616
1	0	0	0	0	515	616
2	0	0	0	0	515	616
3	0	0	0	0	513	616
4	0	0	0	0	511	616
5	0	0	0	0	508	617
6	0	0	0	0	506	615
7	0	0	0	0	504	616
8	0	0	0	0	504	616
9	0	0	0	0	502	617
10	0	0	0	0	502	616
11	0	0	0	0	503	616
12	0	0	0	0	503	615
13	0	0	0	0	504	616
14	0	0	0	0	506	616
15	0	0	0	0	508	616
0	0	0	0	0	510	615
1	0	0	0	0	512	616
2	0	0	0	0	513	615
3	0	0	0	0	513	616
4	0	0	0	0	514	616
5	0	0	0	0	513	615
6	0	0	0	0	513	616
7	0	0	0	0	511	616
8	0	0	0	0	508	615
9	0	0	0	0	507	616
10	0	0	0	0	505	615
11	0	0	0	0	503	616
12	0	0	0	0	500	615
13	0	0	0	0	499	616
14	0	0	0	0	499	616
15	0	0	0	0	499	615
0	0	0	0	0	500	615
1	0	0	0	0	501	616
2	0	0	0	0	502	616
3	0	0	0	0	503	616
4	0	0	0	0	504	616
5	0	0	0	0	506	616
6	0	0	0	0	507	616
7	0	0	0	0	508	616
8	0	0	0	0	509	616
9	0	0	0	0	508	616
10	0	0	0	0	508	616
11	0	0	0	0	507	615
12	0	0	0	0	505	616
13	0	0	0	0	503	616
14	0	0	0	0	500	615
15	0	0	0	0	499	615
0	0	0	0	0	498	615
1	0	0	0	0	499	615
2	0	0	0	0	499	615
3	0	0	0	0	500	615
4	0	0	0	0	501	615
5	0	0	0	0	503	616
6	0	0	0	0	506	616
7	0	0	0	0	509	615
8	0	0	0	0	512	615
9	0	0	0	0	514	616
10	0	0	0	0	516	615
11	0	0	0	0	518	616
12	0	0	0	0	519	616
13	0	0	0	0	519	616
14	0	0	0	0	518	616
15	0	0	0	0	516	616
0	0	0	0	0	514	616
1	0	0	0	0	512	617
2	0	0	0	0	510	616
3	0	0	0	0	508	616
4	0	0	0	0	506	616
5	0	0	0	0	505	616
6	0	0	0	0	505	616
7	0	0	0	0	505	616
8	0	0	0	0	507	616
9	0	0	0	0	508	616
10	0	0	0	0	510	616
11	0	0	0	0	512	616
12	0	0	0	0	514	616
13	0	0	0	0	515	616
14	0	0	0	0	518	616
15	0	0	0	0	519	616
0	0	0	0	0	519	616
1	0	0	0	0	519	616
2	0	0	0	0	519	616
3	0	0	0	0	517	616
4	0	0	0	0	514	616
5	0	0	0	0	512	616
6	0	0	0	0	509	615
7	0	0	0	0	507	616
8	0	0	0	0	505	616
9	0	0	0	0	504	616
10	0	0	0	0	505	616
11	0	0	0	0	505	615
12	0	0	0	0	506	616
13	0	0	0	0	508	616
14	0	0	0	0	509	616
15	0	0	0	0	512	616
0	0	0	0	0	514	616
1	0	0	0	0	516	617
2	0	0	0	0	518	616
3	0	0	0	0	519	616
4	0	0	0	0	519	616
5	0	0	0	0	518	615
6	0	0	0	0	518	616
7	0	0	0	0	516	616
8	0	0	0	0	515	615
9	0	0	0	0	512	617
10	0	0	0	0	510	615
11	0	0	0	0	508	616
12	0	0	0	0	507	616
13	0	0	0	0	506	616
14	0	0	0	0	506	616
15	0	0	0	0	506	615
0	0	0	0	0	507	615
1	0	0	0	0	508	616
2	0	0	0	0	510	616
3	0	0	0	0	511	616
4	0	0	0	0	513	616
5	0	0	0	0	515	616
6	0	0	0	0	516	615
7	0	0	0	0	516	616
8	0	0	0	0	516	616
9	0	0	0	0	516	617
10	0	0	0	0	516	616
11	0	0	0	0	514	616
12	0	0	0	0	512	616
13	0	0	0	0	511	616
14	0	0	0	0	509	616
15	0	0	0	0	507	616
0	0	0	0	0	505	616
1	0	0	0	0	504	616
2	0	0	0	0	504	616
3	0	0	0	0	504	616
4	0	0	0	0	504	616
5	0	0	0	0	506	616
6	0	0	0	0	507	616
7	0	0	0	0	510	615
8	0	0	0	0	511	615
9	0	0	0	0	512	616
10	0	0	0	0	514	616
11	0	0	0	0	515	616
12	0	0	0	0	515	615
13	0	0	0	0	513	615
14	0	0	0	0	512	616
15	0	0	0	0	509	616
0	0	0	0	0	504	615
1	0	0	0	0	497	617
2	0	0	0	0	489	616
3	0	0	0	0	480	616
4	0	0	0	0	467	615
5	0	0	0	0	455	616
6	0	0	0	0	444	615
7	0	0	0	0	433	616
8	0	0	0	0	422	615
9	0	0	0	0	414	616
10	0	0	0	0	405	615
11	0	0	0	0	399	615
12	0	0	0	0	395	615
13	0	0	0	0	392	615
14	0	0	0	0	392	616
15	0	0	0	0	393	616
0	0	0	0	0	395	616
1	0	0	0	0	398	616
2	0	0	0	0	403	616
3	0	0	0	0	408	616
4	0	0	0	0	415	616
5	0	0	0	0	420	616
6	0	0	0	0	424	615
7	0	0	0	0	430	616
8	0	0	0	0	436	616
9	0	0	0	0	445	616
10	0	0	0	0	461	616
11	0	0	0	0	483	615
12	0	0	0	0	510	616
13	0	0	0	0	540	616
14	0	0	0	0	579	615
15	0	0	0	0	627	615
0	0	0	0	0	679	616
1	0	0	0	0	733	616
2	0	0	0	0	790	615
3	0	0	0	0	845	615
4	0	0	0	0	895	616
5	0	0	0	0	936	616
6	0	0	0	0	971	616
7	0	0	0	0	997	615
8	0	0	0	0	1015	616
9	0	0	0	0	1022	616
10	0	0	0	0	1022	616
11	0	0	0	0	1022	616
12	0	0	0	0	1022	615
13	0	0	0	0	1020	616
14	0	0	0	0	1006	616
15	0	0	0	0	988	616
0	0	0	0	0	966	616
1	0	0	0	0	941	617
2	0	0	0	0	912	616
3	0	0	0	0	879	615
4	0	0	0	0	844	616
5	0	0	0	0	810	616
6	0	0	0	0	779	616
7	0	0	0	0	750	616
8	0	0	0	0	723	616
9	0	0	0	0	697	616
10	0	0	0	0	674	615
11	0	0	0	0	651	616
12	0	0	0	0	632	616
13	0	0	0	0	615	616
14	0	0	0	0	599	616
15	0	0	0	0	584	616
0	0	0	0	0	568	616
1	0	0	0	0	554	616
2	0	0	0	0	541	615
3	0	0	0	0	527	615
4	0	0	0	0	515	616
5	0	0	0	0	502	616
6	0	0	0	0	491	616
7	0	0	0	0	480	616
8	0	0	0	0	471	615
9	0	0	0	0	463	616
10	0	0	0	0	455	615
11	0	0	0	0	448	615
12	0	0	0	0	440	616
13	0	0	0	0	432	616
14	0	0	0	0	424	616
15	0	0	0	0	417	616
0	0	0	0	0	410	615
1	0	0	0	0	403	617
2	0	0	0	0	398	616
3	0	0	0	0	393	616
4	0	0	0	0	389	616
5	0	0	0	0	385	616
6	0	0	0	0	383	616
7	0	0	0	0	382	615
8	0	0	0	0	381	616
9	0	0	0	0	381	616
10	0	0	0	0	382	615
11	0	0	0	0	383	615
12	0	0	0	0	385	615
13	0	0	0	0	387	616
14	0	0	0	0	389	616
15	0	0	0	0	390	616
0	0	0	0	0	391	616
1	0	0	0	0	391	616
2	0	0	0	0	391	616
3	0	0	0	0	390	616
4	0	0	0	0	388	615
5	0	0	0	0	387	616
6	0	0	0	0	384	616
7	0	0	0	0	383	616
8	0	0	0	0	382	616
9	0	0	0	0	382	616
10	0	0	0	0	382	616
11	0	0	0	0	383	616
12	0	0	0	0	385	616
13	0	0	0	0	387	616
14	0	0	0	0	390	616
15	0	0	0	0	393	615
0	0	0	0	0	396	616
1	0	0	0	0	399	616
2	0	0	0	0	401	616
3	0	0	0	0	403	615
4	0	0	0	0	405	615
5	0	0	0	0	407	616
6	0	0	0	0	407	616
7	0	0	0	0	407	615
8	0	0	0	0	405	616
9	0	0	0	0	404	617
10	0	0	0	0	402	616
11	0	0	0	0	402	617
12	0	0	0	0	400	615
13	0	0	0	0	400	616
14	0	0	0	0	400	616
15	0	0	0	0	402	615
0	0	0	0	0	404	616
1	0	0	0	0	407	616
2	0	0	0	0	409	616
3	0	0	0	0	412	616
4	0	0	0	0	415	615
5	0	0	0	0	418	616
6	0	0	0	0	421	616
7	0	0	0	0	423	616
8	0	0	0	0	424	616
9	0	0	0	0	425	616
10	0	0	0	0	425	616
11	0	0	0	0	423	615
12	0	0	0	0	422	615
13	0	0	0	0	420	616
14	0	0	0	0	419	615
15	0	0	0	0	418	616
0	0	0	0	0	418	616
1	0	0	0	0	417	617
2	0	0	0	0	417	617
3	0	0	0	0	418	616
4	0	0	0	0	420	616
5	0	0	0	0	421	616
6	0	0	0	0	423	616
7	0	0	0	0	426	616
8	0	0	0	0	428	616
9	0	0	0	0	431	616
10	0	0	0	0	434	615
11	0	0	0	0	436	615
12	0	0	0	0	437	616
13	0	0	0	0	437	615
14	0	0	0	0	437	616
15	0	0	0	0	435	616
0	0	0	0	0	434	616
1	0	0	0	0	432	616
2	0	0	0	0	431	615
3	0	0	0	0	430	616
4	0	0	0	0	428	615
5	0	0	0	0	428	616
6	0	0	0	0	428	615
7	0	0	0	0	429	615
8	0	0	0	0	430	616
9	0	0	0	0	432	616
10	0	0	0	0	434	616
11	0	0	0	0	437	616
12	0	0	0	0	440	616
13	0	0	0	0	443	616
14	0	0	0	0	446	616
15	0	0	0	0	447	616
0	0	0	0	0	448	615
1	0	0	0	0	448	616
2	0	0	0	0	448	616
3	0	0	0	0	447	615
4	0	0	0	0	445	616
5	0	0	0	0	443	616
6	0	0	0	0	440	616
7	0	0	0	0	439	616
8	0	0	0	0	437	615
9	0	0	0	0	436	616
10	0	0	0	0	435	615
11	0	0	0	0	436	615
12	0	0	0	0	437	616
13	0	0	0	0	438	616
14	0	0	0	0	440	616
15	0	0	0	0	443	616
0	0	0	0	0	445	616
1	0	0	0	0	448	617
2	0	0	0	0	450	616
3	0	0	0	0	451	616
4	0	0	0	0	452	616
5	0	0	0	0	452	615
6	0	0	0	0	452	616
7	0	0	0	0	451	616
8	0	0	0	0	450	616
9	0	0	0	0	449	616
10	0	0	0	0	446	616
11	0	0	0	0	444	616
12	0	0	0	0	444	615
13	0	0	0	0	443	616
14	0	0	0	0	443	615
15	0	0	0	0	443	615
0	0	0	0	0	444	615
1	0	0	0	0	446	616
2	0	0	0	0	447	616
3	0	0	0	0	448	616
4	0	0	0	0	450	616
5	0	0	0	0	452	616
6	0	0	0	0	454	616
7	0	0	0	0	456	616
8	0	0	0	0	457	616
9	0	0	0	0	457	616
10	0	0	0	0	457	616
11	0	0	0	0	457	615
12	0	0	0	0	455	616
13	0	0	0	0	454	616
14	0	0	0	0	452	615
15	0	0	0	0	451	616
0	0	0	0	0	450	616
1	0	0	0	0	449	616
2	0	0	0	0	451	616
3	0	0	0	0	451	615
4	0	0	0	0	452	616
5	0	0	0	0	454	616
6	0	0	0	0	457	615
7	0	0	0	0	459	616
8	0	0	0	0	462	615
9	0	0	0	0	464	616
10	0	0	0	0	467	615
11	0	0	0	0	470	616
12	0	0	0	0	471	616
13	0	0	0	0	472	615
14	0	0	0	0	472	615
15	0	0	0	0	471	616
0	0	0	0	0	470	615
1	0	0	0	0	469	616
2	0	0	0	0	468	616
3	0	0	0	0	467	616
4	0	0	0	0	467	616
5	0	0	0	0	467	616
6	0	0	0	0	468	615
7	0	0	0	0	470	616
8	0	0	0	0	472	616
9	0	0	0	0	474	616
10	0	0	0	0	476	616
11	0	0	0	0	480	615
12	0	0	0	0	483	616
13	0	0	0	0	487	616
14	0	0	0	0	489	615
15	0	0	0	0	492	616
0	0	0	0	0	494	615
1	0	0	0	0	495	616
2	0	0	0	0	495	615
3	0	0	0	0	495	615
4	0	0	0	0	494	616
5	0	0	0	0	493	616
6	0	0	0	0	491	616
7	0	0	0	0	491	615
8	0	0	0	0	491	615
9	0	0	0	0	492	616
10	0	0	0	0	493	616
11	0	0	0	0	494	615
12	0	0	0	0	496	615
13	0	0	0	0	499	616
14	0	0	0	0	502	616
15	0	0	0	0	505	616
0	0	0	0	0	508	615
1	0	0	0	0	511	617
2	0	0	0	0	513	616
3	0	0	0	0	515	616
4	0	0	0	0	517	615
5	0	0	0	0	518	615
6	0	0	0	0	519	616
7	0	0	0	0	518	615
8	0	0	0	0	517	615
9	0	0	0	0	516	616
10	0	0	0	0	515	616
11	0	0	0	0	514	616
12	0	0	0	0	514	615
13	0	0	0	0	514	616
14	0	0	0	0	514	615
15	0	0	0	0	515	615
0	0	0	0	0	516	616
1	0	0	0	0	518	616
2	0	0	0	0	520	615
3	0	0	0	0	523	616
4	0	0	0	0	525	615
5	0	0	0	0	528	615
6	0	0	0	0	531	616
7	0	0	0	0	533	615
8	0	0	0	0	534	615
9	0	0	0	0	534	617
10	0	0	0	0	535	616
11	0	0	0	0	534	616
12	0	0	0	0	532	616
13	0	0	0	0	530	616
14	0	0	0	0	529	616
15	0	0	0	0	528	616
0	0	0	0	0	527	616
1	0	0	0	0	526	616
2	0	0	0	0	526	615
3	0	0	0	0	526	615
4	0	0	0	0	527	615
5	0	0	0	0	528	616
6	0	0	0	0	530	616
7	0	0	0	0	532	615
8	0	0	0	0	535	615
9	0	0	0	0	537	616
10	0	0	0	0	539	615
11	0	0	0	0	541	616
12	0	0	0	0	542	616
13	0	0	0	0	543	616
14	0	0	0	0	542	616
15	0	0	0	0	540	616
0	0	0	0	0	538	615
1	0	0	0	0	536	616
2	0	0	0	0	534	615
3	0	0	0	0	531	616
4	0	0	0	0	531	616
5	0	0	0	0	529	615
6	0	0	0	0	530	616
7	0	0	0	0	531	616
8	0	0	0	0	531	616
9	0	0	0	0	533	616
10	0	0	0	0	534	616
11	0	0	0	0	536	616
12	0	0	0	0	538	616
13	0	0	0	0	539	616
14	0	0	0	0	541	616
15	0	0	0	0	542	616
0	0	0	0	0	542	616
1	0	0	0	0	541	616
2	0	0	0	0	541	616
3	0	0	0	0	540	616
4	0	0	0	0	538	615
5	0	0	0	0	536	616
6	0	0	0	0	532	616
7	0	0	0	0	530	616
8	0	0	0	0	528	616
9	0	0	0	0	527	617
10	0	0	0	0	526	616
11	0	0	0	0	526	615
12	0	0	0	0	527	616
13	0	0	0	0	528	616
14	0	0	0	0	529	616
15	0	0	0	0	531	616
0	0	0	0	0	534	615
1	0	0	0	0	536	616
2	0	0	0	0	537	615
3	0	0	0	0	538	615
4	0	0	0	0	538	616
5	0	0	0	0	538	616
6	0	0	0	0	537	616
7	0	0	0	0	536	616
8	0	0	0	0	533	616
9	0	0	0	0	531	616
10	0	0	0	0	528	615
11	0	0	0	0	527	616
12	0	0	0	0	525	615
13	0	0	0	0	524	616
14	0	0	0	0	524	616
15	0	0	0	0	524	616
0	0	0	0	0	524	616
1	0	0	0	0	524	617
2	0	0	0	0	525	616
3	0	0	0	0	527	616
4	0	0	0	0	528	615
5	0	0	0	0	529	616
6	0	0	0	0	531	616
7	0	0	0	0	532	616
8	0	0	0	0	533	616
9	0	0	0	0	533	616
10	0	0	0	0	532	615
11	0	0	0	0	530	615
12	0	0	0	0	528	615
13	0	0	0	0	526	616
14	0	0	0	0	524	616
15	0	0	0	0	522	616
0	0	0	0	0	520	616
1	0	0	0	0	520	616
2	0	0	0	0	519	616
3	0	0	0	0	519	616
4	0	0	0	0	520	616
5	0	0	0	0	521	616
6	0	0	0	0	523	616
7	0	0	0	0	524	616
8	0	0	0	0	526	615
9	0	0	0	0	528	617
10	0	0	0	0	530	616
11	0	0	0	0	531	616
12	0	0	0	0	532	616
13	0	0	0	0	532	616
14	0	0	0	0	532	616
15	0	0	0	0	530	616
0	0	0	0	0	528	616
1	0	0	0	0	526	616
2	0	0	0	0	524	616
3	0	0	0	0	522	616
4	0	0	0	0	520	615
5	0	0	0	0	519	616
6	0	0	0	0	518	615
7	0	0	0	0	517	616
8	0	0	0	0	518	616
9	0	0	0	0	518	617
10	0	0	0	0	520	616
11	0	0	0	0	521	616
12	0	0	0	0	523	616
13	0	0	0	0	525	616
14	0	0	0	0	527	616
15	0	0	0	0	529	616
0	0	0	0	0	529	616
1	0	0	0	0	530	616
2	0	0	0	0	529	616
3	0	0	0	0	528	615
4	0	0	0	0	527	615
5	0	0	0	0	525	616
6	0	0	0	0	523	616
7	0	0	0	0	520	616
8	0	0	0	0	519	616
9	0	0	0	0	518	617
10	0	0	0	0	517	615
11	0	0	0	0	518	616
12	0	0	0	0	518	616
13	0	0	0	0	519	616
14	0	0	0	0	521	616
15	0	0	0	0	523	616
0	0	0	0	0	525	615
1	0	0	0	0	527	616
2	0	0	0	0	529	616
3	0	0	0	0	531	615
4	0	0	0	0	531	615
5	0	0	0	0	531	615
6	0	0	0	0	531	616
7	0	0	0	0	529	616
8	0	0	0	0	527	616
9	0	0	0	0	525	617
10	0	0	0	0	523	615
11	0	0	0	0	521	616
12	0	0	0	0	519	615
13	0	0	0	0	518	615
14	0	0	0	0	518	616
15	0	0	0	0	518	615
0	0	0	0	0	519	616
1	0	0	0	0	520	616
2	0	0	0	0	522	616
3	0	0	0	0	524	616
4	0	0	0	0	527	616
5	0	0	0	0	528	616
6	0	0	0	0	531	615
7	0	0	0	0	532	616
8	0	0	0	0	533	615
9	0	0	0	0	532	616
10	0	0	0	0	532	616
11	0	0	0	0	530	615
12	0	0	0	0	528	615
13	0	0	0	0	526	616
14	0	0	0	0	524	615
15	0	0	0	0	521	616
0	0	0	0	0	519	616
1	0	0	0	0	518	616
2	0	0	0	0	518	616
3	0	0	0	0	518	616
4	0	0	0	0	519	616
5	0	0	0	0	520	616
6	0	0	0	0	521	616
7	0	0	0	0	524	616
8	0	0	0	0	526	615
9	0	0	0	0	527	616
10	0	0	0	0	529	615
11	0	0	0	0	531	615
12	0	0	0	0	532	615
13	0	0	0	0	532	615
14	0	0	0	0	531	615
15	0	0	0	0	530	615
0	0	0	0	0	528	615
1	0	0	0	0	526	615
2	0	0	0	0	524	615
3	0	0	0	0	521	616
4	0	0	0	0	519	615
5	0	0	0	0	519	615
6	0	0	0	0	517	615
7	0	0	0	0	517	615
8	0	0	0	0	518	616
9	0	0	0	0	519	616
10	0	0	0	0	520	615
11	0	0	0	0	523	615
12	0	0	0	0	524	616
13	0	0	0	0	527	615
14	0	0	0	0	529	616
15	0	0	0	0	530	616
0	0	0	0	0	531	616
1	0	0	0	0	531	616
2	0	0	0	0	531	616
3	0	0	0	0	529	616
4	0	0	0	0	527	616
5	0	0	0	0	525	616
6	0	0	0	0	522	616
7	0	0	0	0	521	616
8	0	0	0	0	519	616
9	0	0	0	0	518	616
10	0	0	0	0	518	616
11	0	0	0	0	519	617
12	0	0	0	0	519	616
13	0	0	0	0	520	616
14	0	0	0	0	521	616
15	0	0	0	0	523	616
0	0	0	0	0	524	615
1	0	0	0	0	525	617
2	0	0	0	0	527	616
3	0	0	0	0	528	616
4	0	0	0	0	528	616
5	0	0	0	0	527	616
6	0	0	0	0	527	616
7	0	0	0	0	525	616
8	0	0	0	0	523	615
9	0	0	0	0	520	617
10	0	0	0	0	517	616
11	0	0	0	0	515	616
12	0	0	0	0	514	616
13	0	0	0	0	512	616
14	0	0	0	0	512	615
15	0	0	0	0	512	616
0	0	0	0	0	513	616
1	0	0	0	0	513	616
2	0	0	0	0	515	616
3	0	0	0	0	517	616
4	0	0	0	0	519	615
5	0	0	0	0	521	616
6	0	0	0	0	523	616
7	0	0	0	0	525	615
8	0	0	0	0	525	615
9	0	0	0	0	525	615
10	0	0	0	0	525	616
11	0	0	0	0	524	615
12	0	0	0	0	522	616
13	0	0	0	0	519	616
14	0	0	0	0	517	615
15	0	0	0	0	516	616
0	0	0	0	0	514	616
1	0	0	0	0	512	617
2	0	0	0	0	512	616
3	0	0	0	0	512	616
4	0	0	0	0	513	616
5	0	0	0	0	514	616
6	0	0	0	0	516	616
7	0	0	0	0	518	616
8	0	0	0	0	519	615
9	0	0	0	0	521	616
10	0	0	0	0	523	615
11	0	0	0	0	524	616
12	0	0	0	0	524	616
13	0	0	0	0	524	616
14	0	0	0	0	524	616
15	0	0	0	0	522	616
0	0	0	0	0	520	617
1	0	0	0	0	518	617
2	0	0	0	0	515	616
3	0	0	0	0	513	616
4	0	0	0	0	511	616
5	0	0	0	0	510	615
6	0	0	0	0	509	615
7	0	0	0	0	508	615
8	0	0	0	0	509	615
9	0	0	0	0	510	616
10	0	0	0	0	512	615
11	0	0	0	0	513	616
12	0	0	0	0	515	615
13	0	0	0	0	517	616
14	0	0	0	0	519	616
15	0	0	0	0	520	616
0	0	0	0	0	520	615
1	0	0	0	0	519	616
2	0	0	0	0	519	616
3	0	0	0	0	519	615
4	0	0	0	0	516	616
5	0	0	0	0	514	616
6	0	0	0	0	512	616
7	0	0	0	0	510	616
8	0	0	0	0	508	616
9	0	0	0	0	507	616
10	0	0	0	0	507	615
11	0	0	0	0	507	616
12	0	0	0	0	508	616
13	0	0	0	0	509	615
14	0	0	0	0	511	615
15	0	0	0	0	512	616
0	0	0	0	0	514	616
1	0	0	0	0	516	617
2	0	0	0	0	518	616
3	0	0	0	0	519	616
4	0	0	0	0	519	616
5	0	0	0	0	519	616
6	0	0	0	0	519	615
7	0	0	0	0	518	615
8	0	0	0	0	516	616
9	0	0	0	0	514	617
10	0	0	0	0	512	615
11	0	0	0	0	509	617
12	0	0	0	0	507	616
13	0	0	0	0	506	616
14	0	0	0	0	506	615
15	0	0	0	0	506	616
0	0	0	0	0	507	616
1	0	0	0	0	507	617
2	0	0	0	0	508	616
3	0	0	0	0	510	615
4	0	0	0	0	511	616
5	0	0	0	0	513	616
6	0	0	0	0	515	616
7	0	0	0	0	517	616
8	0	0	0	0	518	616
9	0	0	0	0	518	616
10	0	0	0	0	518	616
11	0	0	0	0	516	616
12	0	0	0	0	514	615
13	0	0	0	0	512	616
14	0	0	0	0	510	616
15	0	0	0	0	508	616
0	0	0	0	0	506	616
1	0	0	0	0	505	616
2	0	0	0	0	504	616
3	0	0	0	0	504	616
4	0	0	0	0	505	616
5	0	0	0	0	506	615
6	0	0	0	0	508	615
7	0	0	0	0	510	616
8	0	0	0	0	512	616
9	0	0	0	0	513	616
10	0	0	0	0	515	616
11	0	0	0	0	516	616
12	0	0	0	0	518	616
13	0	0	0	0	518	616
14	0	0	0	0	517	616
15	0	0	0	0	516	616
0	0	0	0	0	515	616
1	0	0	0	0	513	617
2	0	0	0	0	511	616
3	0	0	0	0	509	616
4	0	0	0	0	507	615
5	0	0	0	0	505	616
6	0	0	0	0	504	616
7	0	0	0	0	504	616
8	0	0	0	0	504	616
9	0	0	0	0	506	616
10	0	0	0	0	507	616
11	0	0	0	0	509	616
12	0	0	0	0	510	616
13	0	0	0	0	511	616
14	0	0	0	0	513	616
15	0	0	0	0	515	615
0	0	0	0	0	515	616
1	0	0	0	0	515	615
2	0	0	0	0	515	615
3	0	0	0	0	514	616
4	0	0	0	0	512	615
5	0	0	0	0	510	616
6	0	0	0	0	508	615
7	0	0	0	0	507	616
8	0	0	0	0	505	615
9	0	0	0	0	504	616
10	0	0	0	0	503	616
11	0	0	0	0	503	615
12	0	0	0	0	504	616
13	0	0	0	0	505	616
14	0	0	0	0	506	616
15	0	0	0	0	507	615
0	0	0	0	0	510	615
1	0	0	0	0	512	616
2	0	0	0	0	514	616
3	0	0	0	0	515	616
4	0	0	0	0	515	616
5	0	0	0	0	516	615
6	0	0	0	0	516	616
7	0	0	0	0	515	616
8	0	0	0	0	513	616
9	0	0	0	0	511	616
10	0	0	0	0	508	616
11	0	0	0	0	507	616
12	0	0	0	0	505	615
13	0	0	0	0	504	616
14	0	0	0	0	503	616
15	0	0	0	0	503	616
0	0	0	0	0	504	616
1	0	0	0	0	505	617
2	0	0	0	0	506	616
3	0	0	0	0	508	615
4	0	0	0	0	510	615
5	0	0	0	0	512	616
6	0	0	0	0	514	616
7	0	0	0	0	515	616
8	0	0	0	0	515	615
9	0	0	0	0	515	616
10	0	0	0	0	515	615
11	0	0	0	0	513	615
12	0	0	0	0	511	615
13	0	0	0	0	509	616
14	0	0	0	0	507	615
15	0	0	0	0	505	616
0	0	0	0	0	504	616
1	0	0	0	0	503	616
2	0	0	0	0	502	615
3	0	0	0	0	502	615
4	0	0	0	0	503	615
5	0	0	0	0	504	616
6	0	0	0	0	506	616
7	0	0	0	0	508	616
8	0	0	0	0	510	615
9	0	0	0	0	511	617
10	0	0	0	0	513	616
11	0	0	0	0	514	616
12	0	0	0	0	515	616
13	0	0	0	0	515	616
14	0	0	0	0	515	616
15	0	0	0	0	514	615
0	0	0	0	0	512	615
1	0	0	0	0	510	616
2	0	0	0	0	508	616
3	0	0	0	0	506	616
4	0	0	0	0	504	615
5	0	0	0	0	503	616
6	0	0	0	0	502	615
7	0	0	0	0	502	615
8	0	0	0	0	503	615
9	0	0	0	0	504	616
10	0	0	0	0	505	616
11	0	0	0	0	507	615
12	0	0	0	0	508	615
13	0	0	0	0	510	616
14	0	0	0	0	512	615
15	0	0	0	0	512	616
0	0	0	0	0	512	616
1	0	0	0	0	512	616
2	0	0	0	0	512	616
3	0	0	0	0	510	616
4	0	0	0	0	508	616
5	0	0	0	0	505	615
6	0	0	0	0	502	616
7	0	0	0	0	500	616
8	0	0	0	0	499	615
9	0	0	0	0	497	616
10	0	0	0	0	497	616
11	0	0	0	0	497	615
12	0	0	0	0	499	615
13	0	0	0	0	499	616
14	0	0	0	0	501	615
15	0	0	0	0	503	615
0	0	0	0	0	504	615
1	0	0	0	0	506	617
2	0	0	0	0	508	616
3	0	0	0	0	510	616
4	0	0	0	0	511	616
5	0	0	0	0	510	616
6	0	0	0	0	510	616
7	0	0	0	0	508	615
8	0	0	0	0	507	615
9	0	0	0	0	505	616
10	0	0	0	0	504	616
11	0	0	0	0	503	616
12	0	0	0	0	501	616
13	0	0	0	0	502	616
14	0	0	0	0	502	616
15	0	0	0	0	502	616
0	0	0	0	0	503	616
1	0	0	0	0	504	616
2	0	0	0	0	507	615
3	0	0	0	0	509	616
4	0	0	0	0	511	616
5	0	0	0	0	514	616
6	0	0	0	0	516	616
7	0	0	0	0	518	616
8	0	0	0	0	519	616
9	0	0	0	0	519	616
10	0	0	0	0	519	616
11	0	0	0	0	517	616
12	0	0	0	0	515	616
13	0	0	0	0	513	616
14	0	0	0	0	510	616
15	0	0	0	0	509	616
0	0	0	0	0	507	616
1	0	0	0	0	506	616
2	0	0	0	0	505	616
3	0	0	0	0	505	616
4	0	0	0	0	506	616
5	0	0	0	0	507	616
6	0	0	0	0	509	615
7	0	0	0	0	510	615
8	0	0	0	0	513	615
9	0	0	0	0	515	616
10	0	0	0	0	516	615
11	0	0	0	0	518	615
12	0	0	0	0	519	615
13	0	0	0	0	519	615
14	0	0	0	0	519	616
15	0	0	0	0	517	616
0	0	0	0	0	515	615
1	0	0	0	0	512	616
2	0	0	0	0	511	616
3	0	0	0	0	509	615
4	0	0	0	0	508	615
5	0	0	0	0	506	616
6	0	0	0	0	505	616
7	0	0	0	0	505	616
8	0	0	0	0	506	617
9	0	0	0	0	507	616
10	0	0	0	0	508	616
11	0	0	0	0	510	615
12	0	0	0	0	512	615
13	0	0	0	0	514	615
14	0	0	0	0	516	615
15	0	0	0	0	519	615
0	0	0	0	0	519	615
1	0	0	0	0	520	616
2	0	0	0	0	519	616
3	0	0	0	0	519	615
4	0	0	0	0	516	615
5	0	0	0	0	514	616
6	0	0	0	0	512	616
7	0	0	0	0	510	616
8	0	0	0	0	508	616
9	0	0	0	0	507	617
10	0	0	0	0	505	616
11	0	0	0	0	506	616
12	0	0	0	0	506	616
13	0	0	0	0	507	616
14	0	0	0	0	508	616
15	0	0	0	0	510	616
0	0	0	0	0	512	616
1	0	0	0	0	513	616
2	0	0	0	0	515	615
3	0	0	0	0	516	616
4	0	0	0	0	517	616
5	0	0	0	0	517	616
6	0	0	0	0	516	616
7	0	0	0	0	515	616
8	0	0	0	0	513	616
9	0	0	0	0	511	616
10	0	0	0	0	508	616
11	0	0	0	0	505	616
12	0	0	0	0	504	615
13	0	0	0	0	502	615
14	0	0	0	0	502	616
15	0	0	0	0	503	615
0	0	0	0	0	503	615
1	0	0	0	0	504	616
2	0	0	0	0	505	616
3	0	0	0	0	507	616
4	0	0	0	0	509	616
5	0	0	0	0	511	616
6	0	0	0	0	512	616
7	0	0	0	0	512	616
8	0	0	0	0	513	616
9	0	0	0	0	512	616
10	0	0	0	0	511	615
11	0	0	0	0	508	615
12	0	0	0	0	503	616
13	0	0	0	0	496	616
14	0	0	0	0	487	616
15	0	0	0	0	477	615
0	0	0	0	0	465	615
1	0	0	0	0	454	616
2	0	0	0	0	441	616
3	0	0	0	0	430	616
4	0	0	0	0	419	616
5	0	0	0	0	411	616
6	0	0	0	0	403	616
7	0	0	0	0	396	615
8	0	0	0	0	392	615
9	0	0	0	0	390	616
10	0	0	0	0	391	615
11	0	0	0	0	392	616
12	0	0	0	0	395	616
13	0	0	0	0	399	616
14	0	0	0	0	405	616
15	0	0	0	0	412	616
0	0	0	0	0	420	615
1	0	0	0	0	426	617
2	0	0	0	0	431	616
3	0	0	0	0	435	616
4	0	0	0	0	441	615
5	0	0	0	0	451	616
6	0	0	0	0	468	616
7	0	0	0	0	491	615
8	0	0	0	0	517	616
9	0	0	0	0	548	616
10	0	0	0	0	588	616
11	0	0	0	0	636	615
12	0	0	0	0	688	615
13	0	0	0	0	743	616
14	0	0	0	0	799	616
15	0	0	0	0	853	616
0	0	0	0	0	902	616
1	0	0	0	0	942	616
2	0	0	0	0	974	616
3	0	0	0	0	1000	616
4	0	0	0	0	1017	616
5	0	0	0	0	1022	615
6	0	0	0	0	1022	615
7	0	0	0	0	1022	617
8	0	0	0	0	1022	616
9	0	0	0	0	1020	616
10	0	0	0	0	1004	616
11	0	0	0	0	985	616
12	0	0	0	0	962	616
13	0	0	0	0	936	616
14	0	0	0	0	907	616
15	0	0	0	0	874	616
0	0	0	0	0	839	616
1	0	0	0	0	805	617
2	0	0	0	0	775	616
3	0	0	0	0	747	616
4	0	0	0	0	720	616
5	0	0	0	0	696	615
6	0	0	0	0	672	616
7	0	0	0	0	652	616
8	0	0	0	0	632	616
9	0	0	0	0	615	616
10	0	0	0	0	600	615
11	0	0	0	0	584	616
12	0	0	0	0	568	615
13	0	0	0	0	554	616
14	0	0	0	0	539	616
15	0	0	0	0	526	616
0	0	0	0	0	513	616
1	0	0	0	0	501	616
2	0	0	0	0	489	616
3	0	0	0	0	479	615
4	0	0	0	0	469	616
5	0	0	0	0	461	616
6	0	0	0	0	454	616
7	0	0	0	0	447	616
8	0	0	0	0	439	616
9	0	0	0	0	432	616
10	0	0	0	0	426	615
11	0	0	0	0	420	616
12	0	0	0	0	413	616
13	0	0	0	0	407	616
14	0	0	0	0	401	616
15	0	0	0	0	396	615
0	0	0	0	0	391	615
1	0	0	0	0	388	616
2	0	0	0	0	385	616
3	0	0	0	0	384	615
4	0	0	0	0	383	615
5	0	0	0	0	383	616
6	0	0	0	0	384	616
7	0	0	0	0	385	616
8	0	0	0	0	386	616
9	0	0	0	0	388	617
10	0	0	0	0	390	616
11	0	0	0	0	391	616
12	0	0	0	0	391	615
13	0	0	0	0	391	615
14	0	0	0	0	391	616
15	0	0	0	0	391	616
0	0	0	0	0	390	615
1	0	0	0	0	389	616
2	0	0	0	0	387	615
3	0	0	0	0	386	616
4	0	0	0	0	385	615
5	0	0	0	0	385	616
6	0	0	0	0	385	616
7	0	0	0	0	386	616
8	0	0	0	0	387	616
9	0	0	0	0	388	616
10	0	0	0	0	391	615
11	0	0	0	0	394	615
12	0	0	0	0	396	615
13	0	0	0	0	399	616
14	0	0	0	0	402	616
15	0	0	0	0	404	616
0	0	0	0	0	406	616
1	0	0	0	0	407	616
2	0	0	0	0	407	616
3	0	0	0	0	407	615
4	0	0	0	0	406	616
5	0	0	0	0	404	616
6	0	0	0	0	403	615
7	0	0	0	0	402	615
8	0	0	0	0	401	615
9	0	0	0	0	401	615
10	0	0	0	0	402	615
11	0	0	0	0	403	615
12	0	0	0	0	405	616
13	0	0	0	0	407	616
14	0	0	0	0	409	616
15	0	0	0	0	411	616
0	0	0	0	0	414	616
1	0	0	0	0	417	617
2	0	0	0	0	420	616
3	0	0	0	0	423	615
4	0	0	0	0	425	616
5	0	0	0	0	427	616
6	0	0	0	0	427	615
7	0	0	0	0	427	616
8	0	0	0	0	425	616
9	0	0	0	0	424	617
10	0	0	0	0	423	616
11	0	0	0	0	422	616
12	0	0	0	0	420	616
13	0	0	0	0	419	617
14	0	0	0	0	419	616
15	0	0	0	0	420	615
0	0	0	0	0	421	616
1	0	0	0	0	423	617
2	0	0	0	0	424	616
3	0	0	0	0	427	616
4	0	0	0	0	429	616
5	0	0	0	0	432	616
6	0	0	0	0	434	616
7	0	0	0	0	436	616
8	0	0	0	0	438	615
9	0	0	0	0	439	615
10	0	0	0	0	439	616
11	0	0	0	0	439	616
12	0	0	0	0	438	616
13	0	0	0	0	436	616
14	0	0	0	0	434	616
15	0	0	0	0	433	616
0	0	0	0	0	431	615
1	0	0	0	0	430	616
2	0	0	0	0	430	616
3	0	0	0	0	430	616
4	0	0	0	0	431	616
5	0	0	0	0	432	616
6	0	0	0	0	435	616
7	0	0	0	0	437	616
8	0	0	0	0	439	615
9	0	0	0	0	442	617
10	0	0	0	0	444	615
11	0	0	0	0	446	616
12	0	0	0	0	447	616
13	0	0	0	0	448	616
14	0	0	0	0	448	616
15	0	0	0	0	447	616
0	0	0	0	0	445	616
1	0	0	0	0	443	616
2	0	0	0	0	441	616
3	0	0	0	0	440	615
4	0	0	0	0	438	615
5	0	0	0	0	437	616
6	0	0	0	0	437	616
7	0	0	0	0	437	616
8	0	0	0	0	439	616
9	0	0	0	0	440	616
10	0	0	0	0	441	616
11	0	0	0	0	443	616
12	0	0	0	0	445	615
13	0	0	0	0	447	615
14	0	0	0	0	449	615
15	0	0	0	0	451	615
0	0	0	0	0	452	615
1	0	0	0	0	453	616
2	0	0	0	0	454	616
3	0	0	0	0	453	615
4	0	0	0	0	451	615
5	0	0	0	0	448	616
6	0	0	0	0	447	615
7	0	0	0	0	446	616
8	0	0	0	0	444	616
9	0	0	0	0	443	617
10	0	0	0	0	443	616
11	0	0	0	0	444	616
12	0	0	0	0	444	616
13	0	0	0	0	446	616
14	0	0	0	0	447	616
15	0	0	0	0	449	616
0	0	0	0	0	451	616
1	0	0	0	0	454	617
2	0	0	0	0	456	616
3	0	0	0	0	459	616
4	0	0	0	0	460	616
5	0	0	0	0	461	616
6	0	0	0	0	461	616
7	0	0	0	0	461	616
8	0	0	0	0	459	616
9	0	0	0	0	457	616
10	0	0	0	0	454	615
11	0	0	0	0	453	616
12	0	0	0	0	452	615
13	0	0	0	0	451	615
14	0	0	0	0	450	616
15	0	0	0	0	451	616
0	0	0	0	0	452	616
1	0	0	0	0	453	616
2	0	0	0	0	455	616
3	0	0	0	0	457	616
4	0	0	0	0	459	616
5	0	0	0	0	462	616
6	0	0	0	0	465	615
7	0	0	0	0	468	616
8	0	0	0	0	471	616
9	0	0	0	0	472	616
10	0	0	0	0	472	616
11	0	0	0	0	472	616
12	0	0	0	0	472	616
13	0	0	0	0	471	616
14	0	0	0	0	469	615
15	0	0	0	0	468	616
0	0	0	0	0	468	616
1	0	0	0	0	468	616
2	0	0	0	0	468	616
3	0	0	0	0	470	616
4	0	0	0	0	471	616
5	0	0	0	0	473	615
6	0	0	0	0	476	616
7	0	0	0	0	479	615
8	0	0	0	0	482	615
9	0	0	0	0	485	616
10	0	0	0	0	488	616
11	0	0	0	0	491	616
12	0	0	0	0	493	616
13	0	0	0	0	494	616
14	0	0	0	0	495	615
15	0	0	0	0	496	616
0	0	0	0	0	495	615
1	0	0	0	0	494	616
2	0	0	0	0	493	615
3	0	0	0	0	492	616
4	0	0	0	0	492	615
5	0	0	0	0	492	616
6	0	0	0	0	492	616
7	0	0	0	0	493	616
8	0	0	0	0	494	615
9	0	0	0	0	496	616
10	0	0	0	0	498	615
11	0	0	0	0	501	615
12	0	0	0	0	504	615
13	0	0	0	0	508	616
14	0	0	0	0	510	616
15	0	0	0	0	513	615
0	0	0	0	0	515	616
1	0	0	0	0	516	617
2	0	0	0	0	516	616
3	0	0	0	0	516	616
4	0	0	0	0	516	616
5	0	0	0	0	515	616
6	0	0	0	0	513	615
7	0	0	0	0	513	616
8	0	0	0	0	512	616
9	0	0	0	0	512	617
10	0	0	0	0	512	616
11	0	0	0	0	513	616
12	0	0	0	0	514	616
13	0	0	0	0	515	616
14	0	0	0	0	518	615
15	0	0	0	0	520	616
0	0	0	0	0	523	616
1	0	0	0	0	526	617
2	0	0	0	0	529	616
3	0	0	0	0	531	616
4	0	0	0	0	534	616
5	0	0	0	0	534	616
6	0	0	0	0	534	616
7	0	0	0	0	534	616
8	0	0	0	0	533	616
9	0	0	0	0	531	617
10	0	0	0	0	528	615
11	0	0	0	0	527	615
12	0	0	0	0	527	616
13	0	0	0	0	526	616
14	0	0	0	0	526	616
15	0	0	0	0	526	616
0	0	0	0	0	526	617
1	0	0	0	0	527	617
2	0	0	0	0	529	616
3	0	0	0	0	531	616
4	0	0	0	0	533	615
5	0	0	0	0	536	616
6	0	0	0	0	538	616
7	0	0	0	0	539	616
8	0	0	0	0	540	616
9	0	0	0	0	541	616
10	0	0	0	0	541	616
11	0	0	0	0	540	615
12	0	0	0	0	537	615
13	0	0	0	0	536	616
14	0	0	0	0	535	616
15	0	0	0	0	533	616
0	0	0	0	0	532	616
1	0	0	0	0	531	616
2	0	0	0	0	531	616
3	0	0	0	0	531	615
4	0	0	0	0	532	615
5	0	0	0	0	533	615
6	0	0	0	0	535	616
7	0	0	0	0	536	615
8	0	0	0	0	538	615
9	0	0	0	0	540	616
10	0	0	0	0	541	616
11	0	0	0	0	542	615
12	0	0	0	0	543	615
13	0	0	0	0	543	616
14	0	0	0	0	543	616
15	0	0	0	0	542	615
0	0	0	0	0	539	616
1	0	0	0	0	537	617
2	0	0	0	0	534	617
3	0	0	0	0	532	617
4	0	0	0	0	531	616
5	0	0	0	0	529	617
6	0	0	0	0	528	617
7	0	0	0	0	528	616
8	0	0	0	0	528	616
9	0	0	0	0	529	616
10	0	0	0	0	530	616
11	0	0	0	0	532	616
12	0	0	0	0	534	615
13	0	0	0	0	535	616
14	0	0	0	0	537	616
15	0	0	0	0	538	616
0	0	0	0	0	539	616
1	0	0	0	0	540	617
2	0	0	0	0	539	616
3	0	0	0	0	538	616
4	0	0	0	0	536	616
5	0	0	0	0	535	616
6	0	0	0	0	531	616
7	0	0	0	0	529	616
8	0	0	0	0	527	615
9	0	0	0	0	526	617
10	0	0	0	0	525	616
11	0	0	0	0	524	616
12	0	0	0	0	525	616
13	0	0	0	0	525	616
14	0	0	0	0	526	616
15	0	0	0	0	527	616
0	0	0	0	0	529	616
1	0	0	0	0	531	617
2	0	0	0	0	532	615
3	0	0	0	0	534	615
4	0	0	0	0	536	616
5	0	0	0	0	536	615
6	0	0	0	0	535	616
7	0	0	0	0	534	615
8	0	0	0	0	532	615
9	0	0	0	0	530	616
10	0	0	0	0	527	615
11	0	0	0	0	525	616
12	0	0	0	0	523	615
13	0	0	0	0	521	616
14	0	0	0	0	519	616
15	0	0	0	0	519	617
0	0	0	0	0	520	616
1	0	0	0	0	520	616
2	0	0	0	0	522	615
3	0	0	0	0	523	616
4	0	0	0	0	524	616
5	0	0	0	0	527	617
6	0	0	0	0	528	616
7	0	0	0	0	531	616
8	0	0	0	0	532	616
9	0	0	0	0	531	616
10	0	0	0	0	531	617
11	0	0	0	0	531	615
12	0	0	0	0	528	616
13	0	0	0	0	526	616
14	0	0	0	0	523	616
15	0	0	0	0	521	616
0	0	0	0	0	519	616
1	0	0	0	0	518	616
2	0	0	0	0	518	616
3	0	0	0	0	517	616
4	0	0	0	0	518	616
5	0	0	0	0	518	616
6	0	0	0	0	519	616
7	0	0	0	0	521	615
8	0	0	0	0	523	615
9	0	0	0	0	525	617
10	0	0	0	0	526	615
11	0	0	0	0	528	615
12	0	0	0	0	529	616
13	0	0	0	0	529	616
14	0	0	0	0	529	616
15	0	0	0	0	528	616
0	0	0	0	0	527	617
1	0	0	0	0	525	617
2	0	0	0	0	523	616
3	0	0	0	0	520	616
4	0	0	0	0	518	616
5	0	0	0	0	517	617
6	0	0	0	0	516	616
7	0	0	0	0	516	615
8	0	0	0	0	517	616
9	0	0	0	0	518	617
10	0	0	0	0	519	615
11	0	0	0	0	521	615
12	0	0	0	0	523	615
13	0	0	0	0	525	616
14	0	0	0	0	527	615
15	0	0	0	0	529	616
0	0	0	0	0	529	615
1	0	0	0	0	529	616
2	0	0	0	0	529	615
3	0	0	0	0	528	616
4	0	0	0	0	527	616
5	0	0	0	0	525	616
6	0	0	0	0	522	615
7	0	0	0	0	521	615
8	0	0	0	0	519	615
9	0	0	0	0	518	617
10	0	0	0	0	518	615
11	0	0	0	0	517	616
12	0	0	0	0	518	616
13	0	0	0	0	519	616
14	0	0	0	0	520	616
15	0	0	0	0	522	616
0	0	0	0	0	523	616
1	0	0	0	0	526	616
2	0	0	0	0	527	615
3	0	0	0	0	529	616
4	0	0	0	0	531	616
5	0	0	0	0	531	615
6	0	0	0	0	531	616
7	0	0	0	0	530	616
8	0	0	0	0	528	616
9	0	0	0	0	527	616
10	0	0	0	0	524	615
11	0	0	0	0	522	615
12	0	0	0	0	521	615
13	0	0	0	0	519	616
14	0	0	0	0	519	616
15	0	0	0	0	519	616
0	0	0	0	0	519	616
1	0	0	0	0	519	617
2	0	0	0	0	520	616
3	0	0	0	0	522	616
4	0	0	0	0	523	616
5	0	0	0	0	525	615
6	0	0	0	0	526	616
7	0	0	0	0	528	616
8	0	0	0	0	528	616
9	0	0	0	0	529	616
10	0	0	0	0	529	616
11	0	0	0	0	528	616
12	0	0	0	0	526	616
13	0	0	0	0	524	615
14	0	0	0	0	522	616
15	0	0	0	0	520	616
0	0	0	0	0	519	616
1	0	0	0	0	517	617
2	0	0	0	0	516	616
3	0	0	0	0	516	615
4	0	0	0	0	517	616
5	0	0	0	0	518	616
6	0	0	0	0	519	616
7	0	0	0	0	521	615
8	0	0	0	0	523	615
9	0	0	0	0	524	616
10	0	0	0	0	527	616
11	0	0	0	0	528	616
12	0	0	0	0	530	616
13	0	0	0	0	529	616
14	0	0	0	0	529	616
15	0	0	0	0	528	616
0	0	0	0	0	526	616
1	0	0	0	0	524	617
2	0	0	0	0	522	616
3	0	0	0	0	520	616
4	0	0	0	0	518	616
5	0	0	0	0	517	616
6	0	0	0	0	516	616
7	0	0	0	0	515	616
8	0	0	0	0	515	616
9	0	0	0	0	516	616
10	0	0	0	0	518	616
11	0	0	0	0	519	615
12	0	0	0	0	522	615
13	0	0	0	0	524	616
14	0	0	0	0	526	615
15	0	0	0	0	528	615
0	0	0	0	0	529	615
1	0	0	0	0	529	616
2	0	0	0	0	528	616
3	0	0	0	0	527	616
4	0	0	0	0	525	616
5	0	0	0	0	523	616
6	0	0	0	0	521	616
7	0	0	0	0	518	616
8	0	0	0	0	517	616
9	0	0	0	0	515	616
10	0	0	0	0	515	616
11	0	0	0	0	515	615
12	0	0	0	0	515	616
13	0	0	0	0	515	616
14	0	0	0	0	516	616
15	0	0	0	0	518	615
0	0	0	0	0	519	616
1	0	0	0	0	521	617
2	0	0	0	0	523	615
3	0	0	0	0	524	616
4	0	0	0	0	525	615
5	0	0	0	0	525	615
6	0	0	0	0	524	616
7	0	0	0	0	524	615
8	0	0	0	0	522	615
9	0	0	0	0	521	616
10	0	0	0	0	519	616
11	0	0	0	0	517	616
12	0	0	0	0	515	615
13	0	0	0	0	514	615
14	0	0	0	0	514	615
15	0	0	0	0	514	615
0	0	0	0	0	514	615
1	0	0	0	0	515	616
2	0	0	0	0	516	616
3	0	0	0	0	518	616
4	0	0	0	0	519	615
5	0	0	0	0	521	616
6	0	0	0	0	523	615
7	0	0	0	0	524	616
8	0	0	0	0	525	616
9	0	0	0	0	524	617
10	0	0	0	0	524	616
11	0	0	0	0	522	616
12	0	0	0	0	520	616
13	0	0	0	0	518	616
14	0	0	0	0	516	616
15	0	0	0	0	513	616
0	0	0	0	0	511	616
1	0	0	0	0	510	617
2	0	0	0	0	508	616
3	0	0	0	0	508	615
4	0	0	0	0	509	615
5	0	0	0	0	510	616
6	0	0	0	0	511	616
7	0	0	0	0	513	616
8	0	0	0	0	514	615
9	0	0	0	0	516	616
10	0	0	0	0	518	615
11	0	0	0	0	519	615
12	0	0	0	0	520	615
13	0	0	0	0	521	615
14	0	0	0	0	521	616
15	0	0	0	0	520	616
0	0	0	0	0	519	616
1	0	0	0	0	517	616
2	0	0	0	0	515	615
3	0	0	0	0	513	615
4	0	0	0	0	511	615
5	0	0	0	0	509	616
6	0	0	0	0	508	616
7	0	0	0	0	508	616
8	0	0	0	0	509	616
9	0	0	0	0	510	617
10	0	0	0	0	511	616
11	0	0	0	0	512	616
12	0	0	0	0	514	616
13	0	0	0	0	516	616
14	0	0	0	0	518	616
15	0	0	0	0	519	616
0	0	0	0	0	519	616
1	0	0	0	0	519	616
2	0	0	0	0	519	616
3	0	0	0	0	518	616
4	0	0	0	0	516	616
5	0	0	0	0	515	616
6	0	0	0	0	512	616
7	0	0	0	0	511	616
8	0	0	0	0	509	616
9	0	0	0	0	508	617
10	0	0	0	0	507	616
11	0	0	0	0	506	615
12	0	0	0	0	505	616
13	0	0	0	0	506	616
14	0	0	0	0	507	616
15	0	0	0	0	510	616
0	0	0	0	0	512	615
1	0	0	0	0	514	616
2	0	0	0	0	516	616
3	0	0	0	0	518	616
4	0	0	0	0	519	616
5	0	0	0	0	519	616
6	0	0	0	0	519	616
7	0	0	0	0	518	616
8	0	0	0	0	515	616
9	0	0	0	0	513	616
10	0	0	0	0	511	616
11	0	0	0	0	509	616
12	0	0	0	0	507	616
13	0	0	0	0	506	616
14	0	0	0	0	504	616
15	0	0	0	0	505	616
0	0	0	0	0	505	616
1	0	0	0	0	505	616
2	0	0	0	0	507	616
3	0	0	0	0	509	616
4	0	0	0	0	511	616
5	0	0	0	0	512	615
6	0	0	0	0	514	615
7	0	0	0	0	515	615
8	0	0	0	0	517	616
9	0	0	0	0	517	616
10	0	0	0	0	517	615
11	0	0	0	0	515	616
12	0	0	0	0	515	616
13	0	0	0	0	512	615
14	0	0	0	0	510	616
15	0	0	0	0	508	616
0	0	0	0	0	506	615
1	0	0	0	0	505	617
2	0	0	0	0	504	615
3	0	0	0	0	504	615
4	0	0	0	0	505	616
5	0	0	0	0	505	616
6	0	0	0	0	507	616
7	0	0	0	0	508	616
8	0	0	0	0	510	615
9	0	0	0	0	512	616
10	0	0	0	0	513	615
11	0	0	0	0	515	615
12	0	0	0	0	517	616
13	0	0	0	0	517	616
14	0	0	0	0	517	616
15	0	0	0	0	516	615
0	0	0	0	0	515	616
1	0	0	0	0	513	617
2	0	0	0	0	511	616
3	0	0	0	0	509	616
4	0	0	0	0	507	616
5	0	0	0	0	505	616
6	0	0	0	0	505	616
7	0	0	0	0	504	616
8	0	0	0	0	504	615
9	0	0	0	0	505	616
10	0	0	0	0	507	616
11	0	0	0	0	509	616
12	0	0	0	0	511	615
13	0	0	0	0	513	616
14	0	0	0	0	514	615
15	0	0	0	0	516	616
0	0	0	0	0	517	616
1	0	0	0	0	517	616
2	0	0	0	0	518	616
3	0	0	0	0	517	616
4	0	0	0	0	515	616
5	0	0	0	0	513	616
6	0	0	0	0	512	616
7	0	0	0	0	510	616
8	0	0	0	0	509	616
9	0	0	0	0	507	616
10	0	0	0	0	506	615
11	0	0	0	0	506	615
12	0	0	0	0	506	616
13	0	0	0	0	507	616
14	0	0	0	0	509	615
15	0	0	0	0	510	615
0	0	0	0	0	512	615
1	0	0	0	0	513	616
2	0	0	0	0	515	615
3	0	0	0	0	516	616
4	0	0	0	0	517	615
5	0	0	0	0	518	615
6	0	0	0	0	518	615
7	0	0	0	0	517	615
8	0	0	0	0	515	615
9	0	0	0	0	513	616
10	0	0	0	0	510	615
11	0	0	0	0	508	616
12	0	0	0	0	506	615
13	0	0	0	0	504	616
14	0	0	0	0	504	616
15	0	0	0	0	504	616
0	0	0	0	0	504	616
1	0	0	0	0	505	617
2	0	0	0	0	506	616
3	0	0	0	0	508	615
4	0	0	0	0	509	615
5	0	0	0	0	511	616
6	0	0	0	0	513	616
7	0	0	0	0	514	615
8	0	0	0	0	515	615
9	0	0	0	0	515	616
10	0	0	0	0	515	616
11	0	0	0	0	515	616
12	0	0	0	0	514	616
13	0	0	0	0	512	615
14	0	0	0	0	510	616
15	0	0	0	0	508	616
0	0	0	0	0	506	616
1	0	0	0	0	505	616
2	0	0	0	0	504	615
3	0	0	0	0	504	616
4	0	0	0	0	504	616
5	0	0	0	0	504	615
6	0	0	0	0	505	616
7	0	0	0	0	508	616
8	0	0	0	0	510	616
9	0	0	0	0	511	616
10	0	0	0	0	513	616
11	0	0	0	0	515	616
12	0	0	0	0	516	615
13	0	0	0	0	516	615
14	0	0	0	0	516	616
15	0	0	0	0	515	616
0	0	0	0	0	513	616
1	0	0	0	0	510	616
2	0	0	0	0	508	616
3	0	0	0	0	505	615
4	0	0	0	0	504	615
5	0	0	0	0	502	616
6	0	0	0	0	501	616
7	0	0	0	0	500	616
8	0	0	0	0	500	616
9	0	0	0	0	500	617
10	0	0	0	0	502	615
11	0	0	0	0	504	616
12	0	0	0	0	505	615
13	0	0	0	0	508	616
14	0	0	0	0	510	616
15	0	0	0	0	511	616
0	0	0	0	0	511	615
1	0	0	0	0	511	616
2	0	0	0	0	511	616
3	0	0	0	0	510	616
4	0	0	0	0	508	616
5	0	0	0	0	504	616
6	0	0	0	0	502	617
7	0	0	0	0	500	617
8	0	0	0	0	499	616
9	0	0	0	0	498	617
10	0	0	0	0	497	616
11	0	0	0	0	497	616
12	0	0	0	0	498	616
13	0	0	0	0	499	616
14	0	0	0	0	500	616
15	0	0	0	0	502	616
0	0	0	0	0	503	615
1	0	0	0	0	505	616
2	0	0	0	0	508	616
3	0	0	0	0	509	615
4	0	0	0	0	511	615
5	0	0	0	0	511	615
6	0	0	0	0	511	616
7	0	0	0	0	510	616
8	0	0	0	0	509	616
9	0	0	0	0	508	616
10	0	0	0	0	506	615
11	0	0	0	0	505	616
12	0	0	0	0	504	616
13	0	0	0	0	503	616
14	0	0	0	0	502	616
15	0	0	0	0	502	615
0	0	0	0	0	504	615
1	0	0	0	0	506	616
2	0	0	0	0	508	616
3	0	0	0	0	511	616
4	0	0	0	0	512	615
5	0	0	0	0	515	616
6	0	0	0	0	517	615
7	0	0	0	0	518	616
8	0	0	0	0	519	615
9	0	0	0	0	519	616
10	0	0	0	0	519	615
11	0	0	0	0	518	616
12	0	0	0	0	516	616
13	0	0	0	0	513	616
14	0	0	0	0	510	616
15	0	0	0	0	508	616
0	0	0	0	0	505	616
1	0	0	0	0	504	616
2	0	0	0	0	503	616
3	0	0	0	0	504	616
4	0	0	0	0	504	616
5	0	0	0	0	505	617
6	0	0	0	0	508	617
7	0	0	0	0	509	616
8	0	0	0	0	511	616
9	0	0	0	0	512	617
10	0	0	0	0	513	616
11	0	0	0	0	515	616
12	0	0	0	0	516	616
13	0	0	0	0	516	617
14	0	0	0	0	515	616
15	0	0	0	0	515	616
0	0	0	0	0	514	616
1	0	0	0	0	512	617
2	0	0	0	0	510	616
3	0	0	0	0	508	616
4	0	0	0	0	507	616
5	0	0	0	0	506	616
6	0	0	0	0	505	616
7	0	0	0	0	504	616
8	0	0	0	0	505	616
9	0	0	0	0	505	617
10	0	0	0	0	507	616
11	0	0	0	0	508	616
12	0	0	0	0	509	616
13	0	0	0	0	511	616
14	0	0	0	0	513	616
15	0	0	0	0	514	615
0	0	0	0	0	515	616
1	0	0	0	0	516	617
2	0	0	0	0	516	616
3	0	0	0	0	515	616
4	0	0	0	0	514	616
5	0	0	0	0	512	616
6	0	0	0	0	510	615
7	0	0	0	0	508	616
8	0	0	0	0	505	616
9	0	0	0	0	504	616
10	0	0	0	0	503	616
11	0	0	0	0	503	616
12	0	0	0	0	504	616
13	0	0	0	0	505	616
14	0	0	0	0	506	616
15	0	0	0	0	508	616
0	0	0	0	0	511	616
1	0	0	0	0	512	616
2	0	0	0	0	513	616
3	0	0	0	0	515	616
4	0	0	0	0	516	616
5	0	0	0	0	517	616
6	0	0	0	0	517	616
7	0	0	0	0	516	616
8	0	0	0	0	513	615
9	0	0	0	0	511	616
10	0	0	0	0	508	615
11	0	0	0	0	506	616
12	0	0	0	0	504	615
13	0	0	0	0	503	616
14	0	0	0	0	503	616
15	0	0	0	0	502	616
0	0	0	0	0	502	616
1	0	0	0	0	501	616
2	0	0	0	0	502	616
3	0	0	0	0	503	616
4	0	0	0	0	504	616
5	0	0	0	0	505	616
6	0	0	0	0	506	615
7	0	0	0	0	507	616
8	0	0	0	0	506	616
9	0	0	0	0	503	616
10	0	0	0	0	498	616
11	0	0	0	0	490	616
12	0	0	0	0	480	616
13	0	0	0	0	467	616
14	0	0	0	0	454	615
15	0	0	0	0	440	616
0	0	0	0	0	426	615
1	0	0	0	0	415	616
2	0	0	0	0	403	616
3	0	0	0	0	394	616
4	0	0	0	0	387	616
5	0	0	0	0	384	616
6	0	0	0	0	382	616
7	0	0	0	0	383	616
8	0	0	0	0	385	616
9	0	0	0	0	391	616
10	0	0	0	0	398	616
11	0	0	0	0	408	616
12	0	0	0	0	418	616
13	0	0	0	0	427	616
14	0	0	0	0	434	616
15	0	0	0	0	440	616
0	0	0	0	0	445	615
1	0	0	0	0	452	616
2	0	0	0	0	464	616
3	0	0	0	0	483	616
4	0	0	0	0	505	616
5	0	0	0	0	531	616
6	0	0	0	0	565	616
7	0	0	0	0	608	616
8	0	0	0	0	657	616
9	0	0	0	0	708	616
10	0	0	0	0	764	616
11	0	0	0	0	820	615
12	0	0	0	0	872	615
13	0	0	0	0	919	615
14	0	0	0	0	957	615
15	0	0	0	0	989	615
0	0	0	0	0	1012	615
1	0	0	0	0	1022	616
2	0	0	0	0	1022	615
3	0	0	0	0	1022	615
4	0	0	0	0	1022	616
5	0	0	0	0	1022	615
6	0	0	0	0	1018	615
7	0	0	0	0	998	616
8	0	0	0	0	974	615
9	0	0	0	0	948	616
10	0	0	0	0	918	615
11	0	0	0	0	885	615
12	0	0	0	0	849	615
13	0	0	0	0	813	616
14	0	0	0	0	780	616
15	0	0	0	0	750	615
0	0	0	0	0	724	616
1	0	0	0	0	700	616
2	0	0	0	0	678	616
3	0	0	0	0	658	616
4	0	0	0	0	642	616
5	0	0	0	0	627	616
6	0	0	0	0	614	616
7	0	0	0	0	599	615
8	0	0	0	0	583	616
9	0	0	0	0	568	617
10	0	0	0	0	553	615
11	0	0	0	0	537	616
12	0	0	0	0	522	616
13	0	0	0	0	507	616
14	0	0	0	0	492	616
15	0	0	0	0	480	616
0	0	0	0	0	468	616
1	0	0	0	0	458	617
2	0	0	0	0	450	616
3	0	0	0	0	443	616
4	0	0	0	0	437	616
5	0	0	0	0	431	616
6	0	0	0	0	426	616
7	0	0	0	0	422	616
8	0	0	0	0	418	616
9	0	0	0	0	414	616
10	0	0	0	0	411	616
11	0	0	0	0	407	616
12	0	0	0	0	403	616
13	0	0	0	0	399	616
14	0	0	0	0	394	616
15	0	0	0	0	390	616
0	0	0	0	0	386	616
1	0	0	0	0	383	616
2	0	0	0	0	380	616
3	0	0	0	0	379	615
4	0	0	0	0	378	616
5	0	0	0	0	378	616
6	0	0	0	0	379	615
7	0	0	0	0	381	616
8	0	0	0	0	383	615
9	0	0	0	0	385	616
10	0	0	0	0	387	615
11	0	0	0	0	390	616
12	0	0	0	0	391	616
13	0	0	0	0	392	616
14	0	0	0	0	392	616
15	0	0	0	0	392	616
0	0	0	0	0	391	616
1	0	0	0	0	390	616
2	0	0	0	0	388	616
3	0	0	0	0	387	616
4	0	0	0	0	387	616
5	0	0	0	0	386	616
6	0	0	0	0	386	615
7	0	0	0	0	387	615
8	0	0	0	0	388	616
9	0	0	0	0	390	616
10	0	0	0	0	393	616
11	0	0	0	0	396	615
12	0	0	0	0	398	616
13	0	0	0	0	401	616
14	0	0	0	0	404	615
15	0	0	0	0	407	615
0	0	0	0	0	410	615
1	0	0	0	0	412	616
2	0	0	0	0	412	616
3	0	0	0	0	413	616
4	0	0	0	0	413	615
5	0	0	0	0	412	616
6	0	0	0	0	411	615
7	0	0	0	0	410	615
8	0	0	0	0	408	615
9	0	0	0	0	407	616
10	0	0	0	0	407	616
11	0	0	0	0	407	616
12	0	0	0	0	408	616
13	0	0	0	0	409	615
14	0	0	0	0	411	615
15	0	0	0	0	413	616
0	0	0	0	0	416	616
1	0	0	0	0	419	616
2	0	0	0	0	422	615
3	0	0	0	0	425	615
4	0	0	0	0	427	615
5	0	0	0	0	429	615
6	0	0	0	0	429	616
7	0	0	0	0	429	616
8	0	0	0	0	428	616
9	0	0	0	0	426	616
10	0	0	0	0	425	616
11	0	0	0	0	423	615
12	0	0	0	0	422	615
13	0	0	0	0	421	616
14	0	0	0	0	420	616
15	0	0	0	0	421	615
0	0	0	0	0	422	616
1	0	0	0	0	423	616
2	0	0	0	0	425	616
3	0	0	0	0	427	615
4	0	0	0	0	429	616
5	0	0	0	0	432	616
6	0	0	0	0	434	616
7	0	0	0	0	436	615
8	0	0	0	0	439	615
9	0	0	0	0	439	616
10	0	0	0	0	440	616
11	0	0	0	0	440	615
12	0	0	0	0	439	616
13	0	0	0	0	437	616
14	0	0	0	0	435	616
15	0	0	0	0	433	616
0	0	0	0	0	432	616
1	0	0	0	0	431	617
2	0	0	0	0	431	616
3	0	0	0	0	431	615
4	0	0	0	0	432	616
5	0	0	0	0	433	616
6	0	0	0	0	435	616
7	0	0	0	0	437	615
8	0	0	0	0	439	616
9	0	0	0	0	441	616
10	0	0	0	0	443	615
11	0	0	0	0	446	616
12	0	0	0	0	447	615
13	0	0	0	0	448	615
14	0	0	0	0	448	616
15	0	0	0	0	448	615
0	0	0	0	0	447	615
1	0	0	0	0	445	616
2	0	0	0	0	443	615
3	0	0	0	0	442	616
4	0	0	0	0	440	616
5	0	0	0	0	439	616
6	0	0	0	0	439	616
7	0	0	0	0	439	616
8	0	0	0	0	440	616
9	0	0	0	0	440	616
10	0	0	0	0	442	616
11	0	0	0	0	444	616
12	0	0	0	0	447	616
13	0	0	0	0	449	616
14	0	0	0	0	451	616
15	0	0	0	0	453	616
0	0	0	0	0	454	616
1	0	0	0	0	454	616
2	0	0	0	0	454	616
3	0	0	0	0	454	616
4	0	0	0	0	452	616
5	0	0	0	0	450	616
6	0	0	0	0	448	616
7	0	0	0	0	446	615
8	0	0	0	0	444	616
9	0	0	0	0	443	617
10	0	0	0	0	443	616
11	0	0	0	0	443	616
12	0	0	0	0	444	616
13	0	0	0	0	446	616
14	0	0	0	0	448	616
15	0	0	0	0	450	616
0	0	0	0	0	452	615
1	0	0	0	0	455	616
2	0	0	0	0	456	615
3	0	0	0	0	459	615
4	0	0	0	0	461	615
5	0	0	0	0	462	616
6	0	0	0	0	463	616
7	0	0	0	0	463	615
8	0	0	0	0	462	616
9	0	0	0	0	461	617
10	0	0	0	0	459	615
11	0	0	0	0	458	615
12	0	0	0	0	456	615
13	0	0	0	0	455	616
14	0	0	0	0	456	616
15	0	0	0	0	457	615
0	0	0	0	0	458	615
1	0	0	0	0	460	616
2	0	0	0	0	462	616
3	0	0	0	0	464	616
4	0	0	0	0	466	615
5	0	0	0	0	469	616
6	0	0	0	0	472	615
7	0	0	0	0	474	615
8	0	0	0	0	477	616
9	0	0	0	0	478	616
10	0	0	0	0	479	615
11	0	0	0	0	479	615
12	0	0	0	0	479	615
13	0	0	0	0	479	615
14	0	0	0	0	477	615
15	0	0	0	0	476	616
0	0	0	0	0	475	615
1	0	0	0	0	474	616
2	0	0	0	0	474	615
3	0	0	0	0	475	615
4	0	0	0	0	476	616
5	0	0	0	0	478	616
6	0	0	0	0	480	616
7	0	0	0	0	483	615
8	0	0	0	0	485	616
9	0	0	0	0	489	617
10	0	0	0	0	491	616
11	0	0	0	0	494	617
12	0	0	0	0	497	616
13	0	0	0	0	498	615
14	0	0	0	0	500	616
15	0	0	0	0	501	616
0	0	0	0	0	500	616
1	0	0	0	0	499	616
2	0	0	0	0	498	615
3	0	0	0	0	497	615
4	0	0	0	0	496	615
5	0	0	0	0	495	615
6	0	0	0	0	495	616
7	0	0	0	0	496	615
8	0	0	0	0	496	616
9	0	0	0	0	498	616
10	0	0	0	0	501	616
11	0	0	0	0	504	616
12	0	0	0	0	507	616
13	0	0	0	0	510	616
14	0	0	0	0	513	616
15	0	0	0	0	516	616
0	0	0	0	0	519	616
1	0	0	0	0	521	616
2	0	0	0	0	522	616
3	0	0	0	0	522	616
4	0	0	0	0	521	615
5	0	0	0	0	520	616
6	0	0	0	0	519	615
7	0	0	0	0	518	615
8	0	0	0	0	516	616
9	0	0	0	0	516	617
10	0	0	0	0	515	615
11	0	0	0	0	516	616
12	0	0	0	0	517	616
13	0	0	0	0	518	616
14	0	0	0	0	520	615
15	0	0	0	0	523	616
0	0	0	0	0	525	616
1	0	0	0	0	527	616
2	0	0	0	0	528	615
3	0	0	0	0	531	615
4	0	0	0	0	533	615
5	0	0	0	0	534	615
6	0	0	0	0	535	615
7	0	0	0	0	534	615
8	0	0	0	0	534	616
9	0	0	0	0	532	616
10	0	0	0	0	531	615
11	0	0	0	0	529	615
12	0	0	0	0	527	615
13	0	0	0	0	527	615
14	0	0	0	0	526	616
15	0	0	0	0	525	615
0	0	0	0	0	526	616
1	0	0	0	0	527	616
2	0	0	0	0	528	616
3	0	0	0	0	530	616
4	0	0	0	0	532	616
5	0	0	0	0	534	616
6	0	0	0	0	536	615
7	0	0	0	0	538	615
8	0	0	0	0	540	616
9	0	0	0	0	541	616
10	0	0	0	0	542	617
11	0	0	0	0	541	616
12	0	0	0	0	540	616
13	0	0	0	0	539	616
14	0	0	0	0	537	616
15	0	0	0	0	535	616
0	0	0	0	0	534	616
1	0	0	0	0	531	616
2	0	0	0	0	530	615
3	0	0	0	0	530	616
4	0	0	0	0	530	616
5	0	0	0	0	530	615
6	0	0	0	0	531	616
7	0	0	0	0	532	615
8	0	0	0	0	534	615
9	0	0	0	0	536	616
10	0	0	0	0	539	615
11	0	0	0	0	541	615
12	0	0	0	0	542	615
13	0	0	0	0	543	615
14	0	0	0	0	543	616
15	0	0	0	0	543	616
0	0	0	0	0	541	616
1	0	0	0	0	539	616
2	0	0	0	0	537	616
3	0	0	0	0	535	616
4	0	0	0	0	532	615
5	0	0	0	0	531	616
6	0	0	0	0	529	615
7	0	0	0	0	528	616
8	0	0	0	0	528	615
9	0	0	0	0	528	616
10	0	0	0	0	529	616
11	0	0	0	0	531	616
12	0	0	0	0	532	616
13	0	0	0	0	534	616
14	0	0	0	0	536	615
15	0	0	0	0	537	615
0	0	0	0	0	539	615
1	0	0	0	0	539	616
2	0	0	0	0	540	616
3	0	0	0	0	539	616
4	0	0	0	0	537	616
5	0	0	0	0	536	616
6	0	0	0	0	532	616
7	0	0	0	0	530	616
8	0	0	0	0	527	616
9	0	0	0	0	524	616
10	0	0	0	0	524	616
11	0	0	0	0	523	616
12	0	0	0	0	523	616
13	0	0	0	0	523	616
14	0	0	0	0	524	616
15	0	0	0	0	525	616
0	0	0	0	0	527	615
1	0	0	0	0	528	616
2	0	0	0	0	531	615
3	0	0	0	0	532	616
4	0	0	0	0	533	616
5	0	0	0	0	534	615
6	0	0	0	0	533	616
7	0	0	0	0	533	615
8	0	0	0	0	531	616
9	0	0	0	0	528	617
10	0	0	0	0	526	616
11	0	0	0	0	524	616
12	0	0	0	0	521	616
13	0	0	0	0	520	616
14	0	0	0	0	519	616
15	0	0	0	0	519	616
0	0	0	0	0	519	616
1	0	0	0	0	519	617
2	0	0	0	0	521	616
3	0	0	0	0	522	616
4	0	0	0	0	524	616
5	0	0	0	0	526	616
6	0	0	0	0	528	616
7	0	0	0	0	531	616
8	0	0	0	0	532	615
9	0	0	0	0	532	616
10	0	0	0	0	531	616
11	0	0	0	0	531	615
12	0	0	0	0	531	616
13	0	0	0	0	529	616
14	0	0	0	0	526	616
15	0	0	0	0	524	616
0	0	0	0	0	522	616
1	0	0	0	0	521	617
2	0	0	0	0	520	616
3	0	0	0	0	519	616
4	0	0	0	0	520	616
5	0	0	0	0	520	616
6	0	0	0	0	521	616
7	0	0	0	0	523	616
8	0	0	0	0	524	616
9	0	0	0	0	526	617
10	0	0	0	0	527	616
11	0	0	0	0	528	616
12	0	0	0	0	530	616
13	0	0	0	0	531	616
14	0	0	0	0	530	616
15	0	0	0	0	529	616
0	0	0	0	0	528	615
1	0	0	0	0	527	616
2	0	0	0	0	525	615
3	0	0	0	0	523	615
4	0	0	0	0	521	616
5	0	0	0	0	519	616
6	0	0	0	0	518	615
7	0	0	0	0	518	616
8	0	0	0	0	519	616
9	0	0	0	0	519	616
10	0	0	0	0	520	616
11	0	0	0	0	521	616
12	0	0	0	0	523	615
13	0	0	0	0	525	616
14	0	0	0	0	527	616
15	0	0	0	0	530	616
0	0	0	0	0	532	616
1	0	0	0	0	533	616
2	0	0	0	0	533	615
3	0	0	0	0	532	615
4	0	0	0	0	531	615
5	0	0	0	0	528	615
6	0	0	0	0	526	615
7	0	0	0	0	523	616
8	0	0	0	0	521	616
9	0	0	0	0	520	616
10	0	0	0	0	519	615
11	0	0	0	0	518	616
12	0	0	0	0	518	616
13	0	0	0	0	518	616
14	0	0	0	0	519	615
15	0	0	0	0	521	615
0	0	0	0	0	522	616
1	0	0	0	0	525	616
2	0	0	0	0	527	615
3	0	0	0	0	529	616
4	0	0	0	0	530	615
5	0	0	0	0	530	616
6	0	0	0	0	531	616
7	0	0	0	0	530	615
8	0	0	0	0	528	615
9	0	0	0	0	527	616
10	0	0	0	0	525	616
11	0	0	0	0	523	616
12	0	0	0	0	521	616
13	0	0	0	0	520	616
14	0	0	0	0	519	616
15	0	0	0	0	518	616
0	0	0	0	0	519	616
1	0	0	0	0	518	616
2	0	0	0	0	519	615
3	0	0	0	0	521	616
4	0	0	0	0	523	615
5	0	0	0	0	524	616
6	0	0	0	0	526	616
7	0	0	0	0	528	615
8	0	0	0	0	529	615
9	0	0	0	0	531	616
10	0	0	0	0	531	616
11	0	0	0	0	530	616
12	0	0	0	0	529	615
13	0	0	0	0	527	616
14	0	0	0	0	524	615
15	0	0	0	0	523	616
0	0	0	0	0	521	616
1	0	0	0	0	519	616
2	0	0	0	0	518	615
3	0	0	0	0	517	615
4	0	0	0	0	517	616
5	0	0	0	0	517	616
6	0	0	0	0	518	617
7	0	0	0	0	519	616
8	0	0	0	0	521	616
9	0	0	0	0	524	617
10	0	0	0	0	525	615
11	0	0	0	0	527	615
12	0	0	0	0	529	616
13	0	0	0	0	529	615
14	0	0	0	0	529	616
15	0	0	0	0	528	615
0	0	0	0	0	527	616
1	0	0	0	0	524	616
2	0	0	0	0	523	616
3	0	0	0	0	520	616
4	0	0	0	0	519	616
5	0	0	0	0	517	616
6	0	0	0	0	516	615
7	0	0	0	0	515	615
8	0	0	0	0	515	615
9	0	0	0	0	515	616
10	0	0	0	0	516	615
11	0	0	0	0	517	615
12	0	0	0	0	519	615
13	0	0	0	0	520	616
14	0	0	0	0	521	615
15	0	0	0	0	524	616
0	0	0	0	0	525	616
1	0	0	0	0	526	616
2	0	0	0	0	526	615
3	0	0	0	0	525	615
4	0	0	0	0	524	615
5	0	0	0	0	523	616
6	0	0	0	0	522	616
7	0	0	0	0	519	616
8	0	0	0	0	517	616
9	0	0	0	0	516	616
10	0	0	0	0	514	615
11	0	0	0	0	513	615
12	0	0	0	0	513	616
13	0	0	0	0	514	616
14	0	0	0	0	515	615
15	0	0	0	0	517	615
0	0	0	0	0	519	616
1	0	0	0	0	520	616
2	0	0	0	0	522	616
3	0	0	0	0	523	616
4	0	0	0	0	525	616
5	0	0	0	0	526	616
6	0	0	0	0	526	616
7	0	0	0	0	525	615
8	0	0	0	0	523	616
9	0	0	0	0	521	616
10	0	0	0	0	519	615
11	0	0	0	0	516	616
12	0	0	0	0	515	616
13	0	0	0	0	513	616
14	0	0	0	0	512	616
15	0	0	0	0	511	616
0	0	0	0	0	511	616
1	0	0	0	0	511	617
2	0	0	0	0	512	616
3	0	0	0	0	514	616
4	0	0	0	0	515	616
5	0	0	0	0	516	616
6	0	0	0	0	519	616
7	0	0	0	0	520	615
8	0	0	0	0	522	615
9	0	0	0	0	523	616
10	0	0	0	0	523	615
11	0	0	0	0	523	615
12	0	0	0	0	521	615
13	0	0	0	0	520	616
14	0	0	0	0	518	615
15	0	0	0	0	515	616
0	0	0	0	0	513	616
1	0	0	0	0	512	616
2	0	0	0	0	510	616
3	0	0	0	0	510	615
4	0	0	0	0	510	616
5	0	0	0	0	511	616
6	0	0	0	0	511	615
7	0	0	0	0	513	616
8	0	0	0	0	515	615
9	0	0	0	0	517	616
10	0	0	0	0	519	616
11	0	0	0	0	520	615
12	0	0	0	0	522	616
13	0	0	0	0	522	616
14	0	0	0	0	521	616
15	0	0	0	0	521	616
0	0	0	0	0	519	616
1	0	0	0	0	517	616
2	0	0	0	0	514	615
3	0	0	0	0	512	615
4	0	0	0	0	510	616
5	0	0	0	0	508	616
6	0	0	0	0	507	616
7	0	0	0	0	507	615
8	0	0	0	0	507	616
9	0	0	0	0	508	616
10	0	0	0	0	509	616
11	0	0	0	0	510	615
12	0	0	0	0	512	615
13	0	0	0	0	514	616
14	0	0	0	0	516	616
15	0	0	0	0	518	616
0	0	0	0	0	519	615
1	0	0	0	0	519	616
2	0	0	0	0	519	616
3	0	0	0	0	519	616
4	0	0	0	0	518	616
5	0	0	0	0	516	615
6	0	0	0	0	513	616
7	0	0	0	0	512	616
8	0	0	0	0	510	616
9	0	0	0	0	508	617
10	0	0	0	0	507	616
11	0	0	0	0	507	616
12	0	0	0	0	507	616
13	0	0	0	0	507	616
14	0	0	0	0	508	616
15	0	0	0	0	510	616
0	0	0	0	0	512	616
1	0	0	0	0	513	616
2	0	0	0	0	515	616
3	0	0	0	0	517	616
4	0	0	0	0	519	616
5	0	0	0	0	519	616
6	0	0	0	0	519	616
7	0	0	0	0	518	616
8	0	0	0	0	517	616
9	0	0	0	0	515	616
10	0	0	0	0	513	616
11	0	0	0	0	511	616
12	0	0	0	0	509	616
13	0	0	0	0	507	616
14	0	0	0	0	506	616
15	0	0	0	0	505	615
0	0	0	0	0	505	616
1	0	0	0	0	506	616
2	0	0	0	0	507	616
3	0	0	0	0	508	616
4	0	0	0	0	510	616
5	0	0	0	0	512	616
6	0	0	0	0	513	616
7	0	0	0	0	515	616
8	0	0	0	0	517	616
9	0	0	0	0	518	616
10	0	0	0	0	518	616
11	0	0	0	0	517	616
12	0	0	0	0	515	616
13	0	0	0	0	513	616
14	0	0	0	0	512	616
15	0	0	0	0	510	616
0	0	0	0	0	507	616
1	0	0	0	0	504	616
2	0	0	0	0	503	616
3	0	0	0	0	503	616
4	0	0	0	0	503	616
5	0	0	0	0	504	616
6	0	0	0	0	504	616
7	0	0	0	0	506	616
8	0	0	0	0	508	615
9	0	0	0	0	510	617
10	0	0	0	0	512	616
11	0	0	0	0	513	616
12	0	0	0	0	515	615
13	0	0	0	0	516	616
14	0	0	0	0	517	616
15	0	0	0	0	516	616
0	0	0	0	0	515	616
1	0	0	0	0	514	616
2	0	0	0	0	512	616
3	0	0	0	0	510	616
4	0	0	0	0	508	615
5	0	0	0	0	506	616
6	0	0	0	0	505	616
7	0	0	0	0	504	615
8	0	0	0	0	504	615
9	0	0	0	0	504	616
10	0	0	0	0	505	615
11	0	0	0	0	506	615
12	0	0	0	0	508	615
13	0	0	0	0	510	615
14	0	0	0	0	511	616
15	0	0	0	0	513	616
0	0	0	0	0	514	616
1	0	0	0	0	515	617
2	0	0	0	0	515	616
3	0	0	0	0	515	616
4	0	0	0	0	513	616
5	0	0	0	0	512	616
6	0	0	0	0	509	616
7	0	0	0	0	507	616
8	0	0	0	0	504	616
9	0	0	0	0	503	615
10	0	0	0	0	502	615
11	0	0	0	0	501	615
12	0	0	0	0	502	616
13	0	0	0	0	502	615
14	0	0	0	0	504	615
15	0	0	0	0	505	616
0	0	0	0	0	507	615
1	0	0	0	0	508	616
2	0	0	0	0	510	616
3	0	0	0	0	512	616
4	0	0	0	0	513	615
5	0	0	0	0	513	615
6	0	0	0	0	513	616
7	0	0	0	0	513	615
8	0	0	0	0	512	616
9	0	0	0	0	511	616
10	0	0	0	0	509	615
11	0	0	0	0	507	616
12	0	0	0	0	505	616
13	0	0	0	0	504	616
14	0	0	0	0	502	616
15	0	0	0	0	501	616
0	0	0	0	0	501	616
1	0	0	0	0	501	617
2	0	0	0	0	501	616
3	0	0	0	0	503	616
4	0	0	0	0	505	616
5	0	0	0	0	506	615
6	0	0	0	0	508	616
7	0	0	0	0	510	616
8	0	0	0	0	512	616
9	0	0	0	0	513	616
10	0	0	0	0	513	616
11	0	0	0	0	513	616
12	0	0	0	0	512	615
13	0	0	0	0	510	616
14	0	0	0	0	508	615
15	0	0	0	0	506	616
0	0	0	0	0	504	616
1	0	0	0	0	502	616
2	0	0	0	0	501	615
3	0	0	0	0	500	615
4	0	0	0	0	501	616
5	0	0	0	0	501	615
6	0	0	0	0	503	615
7	0	0	0	0	504	615
8	0	0	0	0	504	616
9	0	0	0	0	505	616
10	0	0	0	0	507	616
11	0	0	0	0	509	616
12	0	0	0	0	510	616
13	0	0	0	0	511	616
14	0	0	0	0	510	616
15	0	0	0	0	509	615
0	0	0	0	0	508	615
1	0	0	0	0	505	616
2	0	0	0	0	503	615
3	0	0	0	0	500	616
4	0	0	0	0	498	616
5	0	0	0	0	496	616
6	0	0	0	0	495	616
7	0	0	0	0	494	616
8	0	0	0	0	495	616
9	0	0	0	0	495	617
10	0	0	0	0	496	616
11	0	0	0	0	497	616
12	0	0	0	0	499	616
13	0	0	0	0	501	617
14	0	0	0	0	503	616
15	0	0	0	0	505	616
0	0	0	0	0	508	616
1	0	0	0	0	509	616
2	0	0	0	0	509	616
3	0	0	0	0	509	616
4	0	0	0	0	508	615
5	0	0	0	0	506	616
6	0	0	0	0	504	616
7	0	0	0	0	502	616
8	0	0	0	0	499	616
9	0	0	0	0	497	616
10	0	0	0	0	496	616
11	0	0	0	0	496	616
12	0	0	0	0	497	616
13	0	0	0	0	498	616
14	0	0	0	0	499	616
15	0	0	0	0	502	616
0	0	0	0	0	504	615
1	0	0	0	0	507	616
2	0	0	0	0	510	616
3	0	0	0	0	512	615
4	0	0	0	0	513	615
5	0	0	0	0	516	615
6	0	0	0	0	517	616
7	0	0	0	0	517	616
8	0	0	0	0	516	616
9	0	0	0	0	515	616
10	0	0	0	0	512	615
11	0	0	0	0	510	616
12	0	0	0	0	507	616
13	0	0	0	0	504	616
14	0	0	0	0	504	616
15	0	0	0	0	503	615
0	0	0	0	0	502	615
1	0	0	0	0	503	616
2	0	0	0	0	503	615
3	0	0	0	0	504	616
4	0	0	0	0	507	616
5	0	0	0	0	510	616
6	0	0	0	0	512	616
7	0	0	0	0	514	615
8	0	0	0	0	515	616
9	0	0	0	0	516	616
10	0	0	0	0	516	616
11	0	0	0	0	516	615
12	0	0	0	0	515	616
13	0	0	0	0	513	616
14	0	0	0	0	512	616
15	0	0	0	0	510	616
0	0	0	0	0	507	615
1	0	0	0	0	505	616
2	0	0	0	0	504	615
3	0	0	0	0	504	616
4	0	0	0	0	504	615
5	0	0	0	0	503	615
6	0	0	0	0	504	615
7	0	0	0	0	505	615
8	0	0	0	0	507	615
9	0	0	0	0	508	616
10	0	0	0	0	510	615
11	0	0	0	0	512	615
12	0	0	0	0	513	616
13	0	0	0	0	514	615
14	0	0	0	0	514	615
15	0	0	0	0	514	616
0	0	0	0	0	514	616
1	0	0	0	0	512	617
2	0	0	0	0	510	616
3	0	0	0	0	508	616
4	0	0	0	0	506	616
5	0	0	0	0	505	616
6	0	0	0	0	503	616
7	0	0	0	0	502	615
8	0	0	0	0	502	616
9	0	0	0	0	503	617
10	0	0	0	0	504	616
11	0	0	0	0	506	616
12	0	0	0	0	507	616
13	0	0	0	0	510	616
14	0	0	0	0	511	616
15	0	0	0	0	513	616
0	0	0	0	0	515	615
1	0	0	0	0	516	616
2	0	0	0	0	517	615
3	0	0	0	0	517	615
4	0	0	0	0	516	615
5	0	0	0	0	513	616
6	0	0	0	0	512	616
7	0	0	0	0	510	616
8	0	0	0	0	507	616
9	0	0	0	0	505	616
10	0	0	0	0	504	617
11	0	0	0	0	504	616
12	0	0	0	0	503	616
13	0	0	0	0	504	616
14	0	0	0	0	505	616
15	0	0	0	0	506	616
0	0	0	0	0	508	616
1	0	0	0	0	509	617
2	0	0	0	0	512	616
3	0	0	0	0	513	616
4	0	0	0	0	515	615
5	0	0	0	0	515	616
6	0	0	0	0	515	616
7	0	0	0	0	514	615
8	0	0	0	0	512	616
9	0	0	0	0	509	616
10	0	0	0	0	504	615
11	0	0	0	0	499	616
12	0	0	0	0	492	616
13	0	0	0	0	484	616
14	0	0	0	0	475	616
15	0	0	0	0	465	615
0	0	0	0	0	454	616
1	0	0	0	0	444	616
2	0	0	0	0	433	616
3	0	0	0	0	424	615
4	0	0	0	0	415	616
5	0	0	0	0	407	616
6	0	0	0	0	400	616
7	0	0	0	0	396	616
8	0	0	0	0	394	615
9	0	0	0	0	393	616
10	0	0	0	0	394	616
11	0	0	0	0	396	616
12	0	0	0	0	399	616
13	0	0	0	0	404	616
14	0	0	0	0	411	616
15	0	0	0	0	416	616
0	0	0	0	0	422	615
1	0	0	0	0	427	616
2	0	0	0	0	432	616
3	0	0	0	0	439	615
4	0	0	0	0	450	615
5	0	0	0	0	467	615
6	0	0	0	0	491	615
7	0	0	0	0	518	615
8	0	0	0	0	551	615
9	0	0	0	0	591	616
10	0	0	0	0	639	615
11	0	0	0	0	690	615
12	0	0	0	0	744	615
13	0	0	0	0	800	616
14	0	0	0	0	852	616
15	0	0	0	0	899	616
0	0	0	0	0	937	615
1	0	0	0	0	969	617
2	0	0	0	0	994	616
3	0	0	0	0	1011	616
4	0	0	0	0	1020	616
5	0	0	0	0	1022	615
6	0	0	0	0	1022	615
7	0	0	0	0	1021	615
8	0	0	0	0	1014	615
9	0	0	0	0	999	616
10	0	0	0	0	981	615
11	0	0	0	0	960	616
12	0	0	0	0	935	615
13	0	0	0	0	905	616
14	0	0	0	0	873	616
15	0	0	0	0	839	616
0	0	0	0	0	805	616
1	0	0	0	0	774	617
2	0	0	0	0	745	616
3	0	0	0	0	718	616
4	0	0	0	0	692	616
5	0	0	0	0	668	616
6	0	0	0	0	646	616
7	0	0	0	0	627	616
8	0	0	0	0	610	616
9	0	0	0	0	594	617
10	0	0	0	0	579	616
11	0	0	0	0	565	616
12	0	0	0	0	552	616
13	0	0	0	0	541	616
14	0	0	0	0	528	616
15	0	0	0	0	517	616
0	0	0	0	0	506	615
1	0	0	0	0	495	616
2	0	0	0	0	484	616
3	0	0	0	0	475	616
4	0	0	0	0	467	616
5	0	0	0	0	459	616
6	0	0	0	0	451	616
7	0	0	0	0	441	616
8	0	0	0	0	433	615
9	0	0	0	0	425	616
10	0	0	0	0	417	616
11	0	0	0	0	410	616
12	0	0	0	0	404	616
13	0	0	0	0	399	616
14	0	0	0	0	395	616
15	0	0	0	0	391	615
0	0	0	0	0	389	616
1	0	0	0	0	387	616
2	0	0	0	0	387	617
3	0	0	0	0	387	615
4	0	0	0	0	387	615
5	0	0	0	0	387	616
6	0	0	0	0	389	616
7	0	0	0	0	391	615
8	0	0	0	0	391	616
9	0	0	0	0	392	616
10	0	0	0	0	392	615
11	0	0	0	0	391	615
12	0	0	0	0	391	616
13	0	0	0	0	390	616
14	0	0	0	0	388	616
15	0	0	0	0	387	617
0	0	0	0	0	385	616
1	0	0	0	0	384	617
2	0	0	0	0	384	616
3	0	0	0	0	384	616
4	0	0	0	0	384	616
5	0	0	0	0	385	615
6	0	0	0	0	386	616
7	0	0	0	0	388	616
8	0	0	0	0	391	616
9	0	0	0	0	393	616
10	0	0	0	0	396	615
11	0	0	0	0	399	615
12	0	0	0	0	402	616
13	0	0	0	0	404	616
14	0	0	0	0	406	616
15	0	0	0	0	407	616
0	0	0	0	0	407	615
1	0	0	0	0	406	616
2	0	0	0	0	405	616
3	0	0	0	0	404	617
4	0	0	0	0	403	615
5	0	0	0	0	401	616
6	0	0	0	0	401	616
7	0	0	0	0	400	615
8	0	0	0	0	401	616
9	0	0	0	0	403	616
10	0	0	0	0	403	616
11	0	0	0	0	406	616
12	0	0	0	0	408	615
13	0	0	0	0	410	616
14	0	0	0	0	413	615
15	0	0	0	0	416	615
0	0	0	0	0	419	616
1	0	0	0	0	421	616
2	0	0	0	0	422	616
3	0	0	0	0	422	616
4	0	0	0	0	423	616
5	0	0	0	0	423	616
6	0	0	0	0	422	616
7	0	0	0	0	420	615
8	0	0	0	0	419	616
9	0	0	0	0	418	617
10	0	0	0	0	417	616
11	0	0	0	0	418	616
12	0	0	0	0	418	616
13	0	0	0	0	419	616
14	0	0	0	0	421	616
15	0	0	0	0	423	615
0	0	0	0	0	425	615
1	0	0	0	0	427	616
2	0	0	0	0	430	616
3	0	0	0	0	432	615
4	0	0	0	0	435	616
5	0	0	0	0	436	616
6	0	0	0	0	437	615
7	0	0	0	0	438	616
8	0	0	0	0	438	616
9	0	0	0	0	436	616
10	0	0	0	0	435	616
11	0	0	0	0	433	616
12	0	0	0	0	432	616
13	0	0	0	0	431	616
14	0	0	0	0	430	616
15	0	0	0	0	429	616
0	0	0	0	0	430	615
1	0	0	0	0	431	616
2	0	0	0	0	432	615
3	0	0	0	0	434	616
4	0	0	0	0	436	615
5	0	0	0	0	438	616
6	0	0	0	0	441	616
7	0	0	0	0	444	616
8	0	0	0	0	446	616
9	0	0	0	0	447	616
10	0	0	0	0	447	616
11	0	0	0	0	447	616
12	0	0	0	0	446	615
13	0	0	0	0	445	616
14	0	0	0	0	443	615
15	0	0	0	0	441	615
0	0	0	0	0	439	615
1	0	0	0	0	438	616
2	0	0	0	0	438	616
3	0	0	0	0	438	616
4	0	0	0	0	438	615
5	0	0	0	0	439	616
6	0	0	0	0	440	616
7	0	0	0	0	441	616
8	0	0	0	0	443	616
9	0	0	0	0	445	617
10	0	0	0	0	448	616
11	0	0	0	0	449	615
12	0	0	0	0	452	616
13	0	0	0	0	453	616
14	0	0	0	0	454	616
15	0	0	0	0	453	616
0	0	0	0	0	453	616
1	0	0	0	0	452	617
2	0	0	0	0	450	617
3	0	0	0	0	448	616
4	0	0	0	0	446	616
5	0	0	0	0	445	616
6	0	0	0	0	444	616
7	0	0	0	0	443	616
8	0	0	0	0	443	616
9	0	0	0	0	444	616
10	0	0	0	0	444	615
11	0	0	0	0	446	615
12	0	0	0	0	447	615
13	0	0	0	0	449	616
14	0	0	0	0	451	615
15	0	0	0	0	453	615
0	0	0	0	0	455	616
1	0	0	0	0	457	616
2	0	0	0	0	458	616
3	0	0	0	0	458	616
4	0	0	0	0	459	616
5	0	0	0	0	458	617
6	0	0	0	0	457	616
7	0	0	0	0	456	616
8	0	0	0	0	454	616
9	0	0	0	0	452	616
10	0	0	0	0	451	616
11	0	0	0	0	451	616
12	0	0	0	0	451	616
13	0	0	0	0	452	616
14	0	0	0	0	453	615
15	0	0	0	0	455	615
0	0	0	0	0	458	615
1	0	0	0	0	460	616
2	0	0	0	0	463	616
3	0	0	0	0	465	616
4	0	0	0	0	467	616
5	0	0	0	0	469	616
6	0	0	0	0	470	616
7	0	0	0	0	470	616
8	0	0	0	0	470	616
9	0	0	0	0	470	616
10	0	0	0	0	468	616
11	0	0	0	0	467	616
12	0	0	0	0	466	616
13	0	0	0	0	466	616
14	0	0	0	0	466	616
15	0	0	0	0	467	616
0	0	0	0	0	468	616
1	0	0	0	0	470	617
2	0	0	0	0	472	616
3	0	0	0	0	475	616
4	0	0	0	0	478	616
5	0	0	0	0	480	616
6	0	0	0	0	483	616
7	0	0	0	0	487	616
8	0	0	0	0	490	616
9	0	0	0	0	493	617
10	0	0	0	0	494	616
11	0	0	0	0	495	616
12	0	0	0	0	495	616
13	0	0	0	0	494	616
14	0	0	0	0	493	615
15	0	0	0	0	492	615
0	0	0	0	0	490	615
1	0	0	0	0	489	616
2	0	0	0	0	489	616
3	0	0	0	0	490	616
4	0	0	0	0	492	615
5	0	0	0	0	494	616
6	0	0	0	0	496	616
7	0	0	0	0	499	616
8	0	0	0	0	502	616
9	0	0	0	0	504	616
10	0	0	0	0	508	616
11	0	0	0	0	511	615
12	0	0	0	0	514	615
13	0	0	0	0	516	615
14	0	0	0	0	517	616
15	0	0	0	0	518	616
0	0	0	0	0	518	616
1	0	0	0	0	517	616
2	0	0	0	0	517	616
3	0	0	0	0	515	616
4	0	0	0	0	515	615
5	0	0	0	0	514	616
6	0	0	0	0	513	616
7	0	0	0	0	513	616
8	0	0	0	0	513	617
9	0	0	0	0	514	617
10	0	0	0	0	516	616
11	0	0	0	0	517	616
12	0	0	0	0	519	616
13	0	0	0	0	521	616
14	0	0	0	0	524	615
15	0	0	0	0	526	616
0	0	0	0	0	529	615
1	0	0	0	0	531	616
2	0	0	0	0	533	616
3	0	0	0	0	533	615
4	0	0	0	0	533	616
5	0	0	0	0	532	616
6	0	0	0	0	531	615
7	0	0	0	0	529	616
8	0	0	0	0	527	616
9	0	0	0	0	525	617
10	0	0	0	0	525	616
11	0	0	0	0	524	616
12	0	0	0	0	524	616
13	0	0	0	0	525	616
14	0	0	0	0	526	616
15	0	0	0	0	528	616
0	0	0	0	0	531	616
1	0	0	0	0	533	616
2	0	0	0	0	536	615
3	0	0	0	0	538	616
4	0	0	0	0	540	616
5	0	0	0	0	542	616
6	0	0	0	0	542	616
7	0	0	0	0	542	616
8	0	0	0	0	541	616
9	0	0	0	0	540	616
10	0	0	0	0	538	616
11	0	0	0	0	536	617
12	0	0	0	0	534	616
13	0	0	0	0	531	616
14	0	0	0	0	530	616
15	0	0	0	0	529	615
0	0	0	0	0	529	616
1	0	0	0	0	529	616
2	0	0	0	0	531	616
3	0	0	0	0	532	616
4	0	0	0	0	534	615
5	0	0	0	0	536	616
6	0	0	0	0	539	616
7	0	0	0	0	541	616
8	0	0	0	0	543	616
9	0	0	0	0	544	617
10	0	0	0	0	544	616
11	0	0	0	0	544	616
12	0	0	0	0	543	616
13	0	0	0	0	541	616
14	0	0	0	0	539	615
15	0	0	0	0	537	615
0	0	0	0	0	536	616
1	0	0	0	0	535	617
2	0	0	0	0	533	616
3	0	0	0	0	532	616
4	0	0	0	0	532	617
5	0	0	0	0	531	616
6	0	0	0	0	532	616
7	0	0	0	0	532	616
8	0	0	0	0	534	615
9	0	0	0	0	535	616
10	0	0	0	0	537	615
11	0	0	0	0	539	616
12	0	0	0	0	540	616
13	0	0	0	0	541	616
14	0	0	0	0	541	617
15	0	0	0	0	540	616
0	0	0	0	0	540	616
1	0	0	0	0	538	616
2	0	0	0	0	536	615
3	0	0	0	0	534	616
4	0	0	0	0	531	616
5	0	0	0	0	529	616
6	0	0	0	0	526	616
7	0	0	0	0	525	616
8	0	0	0	0	525	616
9	0	0	0	0	525	617
10	0	0	0	0	525	616
11	0	0	0	0	526	616
12	0	0	0	0	527	615
13	0	0	0	0	529	616
14	0	0	0	0	531	616
15	0	0	0	0	533	616
0	0	0	0	0	535	617
1	0	0	0	0	536	616
2	0	0	0	0	536	616
3	0	0	0	0	536	616
4	0	0	0	0	535	616
5	0	0	0	0	533	616
6	0	0	0	0	530	616
7	0	0	0	0	528	616
8	0	0	0	0	526	615
9	0	0	0	0	524	617
10	0	0	0	0	523	616
11	0	0	0	0	522	616
12	0	0	0	0	522	616
13	0	0	0	0	522	616
14	0	0	0	0	522	615
15	0	0	0	0	524	616
0	0	0	0	0	526	615
1	0	0	0	0	528	616
2	0	0	0	0	529	616
3	0	0	0	0	531	616
4	0	0	0	0	532	616
5	0	0	0	0	534	616
6	0	0	0	0	534	616
7	0	0	0	0	534	616
8	0	0	0	0	532	616
9	0	0	0	0	531	617
10	0	0	0	0	529	615
11	0	0	0	0	526	615
12	0	0	0	0	524	615
13	0	0	0	0	522	615
14	0	0	0	0	521	615
15	0	0	0	0	520	615
0	0	0	0	0	519	615
1	0	0	0	0	519	615
2	0	0	0	0	519	615
3	0	0	0	0	519	615
4	0	0	0	0	521	615
5	0	0	0	0	523	616
6	0	0	0	0	525	615
7	0	0	0	0	527	616
8	0	0	0	0	529	616
9	0	0	0	0	531	617
10	0	0	0	0	532	616
11	0	0	0	0	532	616
12	0	0	0	0	531	616
13	0	0	0	0	530	617
14	0	0	0	0	527	616
15	0	0	0	0	524	617
0	0	0	0	0	522	616
1	0	0	0	0	520	617
2	0	0	0	0	519	615
3	0	0	0	0	518	616
4	0	0	0	0	517	616
5	0	0	0	0	517	616
6	0	0	0	0	518	616
7	0	0	0	0	519	616
8	0	0	0	0	520	616
9	0	0	0	0	522	618
10	0	0	0	0	524	617
11	0	0	0	0	526	616
12	0	0	0	0	528	616
13	0	0	0	0	530	616
14	0	0	0	0	531	616
15	0	0	0	0	531	616
0	0	0	0	0	530	616
1	0	0	0	0	528	617
2	0	0	0	0	526	616
3	0	0	0	0	524	616
4	0	0	0	0	520	616
5	0	0	0	0	519	615
6	0	0	0	0	517	616
7	0	0	0	0	516	616
8	0	0	0	0	516	616
9	0	0	0	0	516	616
10	0	0	0	0	517	615
11	0	0	0	0	518	615
12	0	0	0	0	519	615
13	0	0	0	0	521	616
14	0	0	0	0	524	615
15	0	0	0	0	526	615
0	0	0	0	0	527	615
1	0	0	0	0	528	616
2	0	0	0	0	528	615
3	0	0	0	0	528	615
4	0	0	0	0	528	616
5	0	0	0	0	527	616
6	0	0	0	0	526	616
7	0	0	0	0	523	616
8	0	0	0	0	521	616
9	0	0	0	0	519	617
10	0	0	0	0	517	616
11	0	0	0	0	516	615
12	0	0	0	0	516	616
13	0	0	0	0	517	616
14	0	0	0	0	518	616
15	0	0	0	0	519	615
0	0	0	0	0	521	615
1	0	0	0	0	523	616
2	0	0	0	0	524	615
3	0	0	0	0	526	616
4	0	0	0	0	527	616
5	0	0	0	0	529	615
6	0	0	0	0	529	616
7	0	0	0	0	529	616
8	0	0	0	0	528	616
9	0	0	0	0	526	616
10	0	0	0	0	524	616
11	0	0	0	0	522	616
12	0	0	0	0	519	615
13	0	0	0	0	518	616
14	0	0	0	0	517	616
15	0	0	0	0	517	616
0	0	0	0	0	518	616
1	0	0	0	0	518	617
2	0	0	0	0	518	616
3	0	0	0	0	519	616
4	0	0	0	0	520	616
5	0	0	0	0	522	616
6	0	0	0	0	523	616
7	0	0	0	0	525	616
8	0	0	0	0	527	616
9	0	0	0	0	527	616
10	0	0	0	0	527	616
11	0	0	0	0	527	616
12	0	0	0	0	527	616
13	0	0	0	0	525	616
14	0	0	0	0	523	616
15	0	0	0	0	521	616
0	0	0	0	0	519	616
1	0	0	0	0	517	616
2	0	0	0	0	515	616
3	0	0	0	0	514	615
4	0	0	0	0	513	615
