# OpenSignals Text File Format. Version 1
# {"98:D3:91:FD:69:48": {"position": 0, "device": "bitalino_rev", "device name": "98:D3:91:FD:69:48", "device connection": "BTH98:D3:91:FD:69:48", "sampling rate": 1000, "resolution": [4, 1, 1, 1, 1, 10, 10], "firmware version": 1281, "comments": "", "keywords": "", "mode": 0, "sync interval": 2, "date": "2021-9-5", "time": "14:59:12.28", "channels": [2, 5], "sensor": ["RAW", "RAW"], "label": ["A2", "A5"], "column": ["nSeq", "I1", "I2", "O1", "O2", "A2", "A5"], "special": [{}, {}], "digital IO": [0, 0, 1, 1], "convertedValues": 0}}
# EndOfHeader
0	0	0	0	0	498	403	
1	0	0	0	0	500	407	
2	0	0	0	0	504	407	
3	0	0	0	0	509	408	
4	0	0	0	0	512	411	
5	0	0	0	0	516	408	
6	0	0	0	0	520	408	
7	0	0	0	0	523	408	
8	0	0	0	0	524	404	
9	0	0	0	0	524	408	
10	0	0	0	0	523	407	
11	0	0	0	0	522	408	
12	0	0	0	0	520	411	
13	0	0	0	0	519	408	
14	0	0	0	0	517	408	
15	0	0	0	0	515	408	
0	0	0	0	0	512	405	
1	0	0	0	0	509	408	
2	0	0	0	0	507	408	
3	0	0	0	0	506	407	
4	0	0	0	0	505	411	
5	0	0	0	0	507	408	
6	0	0	0	0	509	408	
7	0	0	0	0	512	408	
8	0	0	0	0	516	404	
9	0	0	0	0	519	408	
10	0	0	0	0	522	408	
11	0	0	0	0	524	408	
12	0	0	0	0	525	410	
13	0	0	0	0	525	407	
14	0	0	0	0	525	408	
15	0	0	0	0	523	408	
0	0	0	0	0	521	404	
1	0	0	0	0	518	408	
2	0	0	0	0	515	408	
3	0	0	0	0	511	408	
4	0	0	0	0	506	411	
5	0	0	0	0	501	407	
6	0	0	0	0	499	408	
7	0	0	0	0	499	408	
8	0	0	0	0	499	404	
9	0	0	0	0	500	407	
10	0	0	0	0	504	408	
11	0	0	0	0	507	408	
12	0	0	0	0	511	411	
13	0	0	0	0	515	408	
14	0	0	0	0	518	408	
15	0	0	0	0	519	407	
0	0	0	0	0	519	405	
1	0	0	0	0	519	408	
2	0	0	0	0	518	408	
3	0	0	0	0	516	408	
4	0	0	0	0	516	411	
5	0	0	0	0	515	407	
6	0	0	0	0	513	408	
7	0	0	0	0	512	408	
8	0	0	0	0	508	404	
9	0	0	0	0	505	407	
10	0	0	0	0	503	408	
11	0	0	0	0	502	407	
12	0	0	0	0	502	410	
13	0	0	0	0	503	407	
14	0	0	0	0	504	408	
15	0	0	0	0	508	408	
0	0	0	0	0	512	404	
1	0	0	0	0	515	408	
2	0	0	0	0	518	408	
3	0	0	0	0	520	408	
4	0	0	0	0	521	411	
5	0	0	0	0	521	408	
6	0	0	0	0	520	408	
7	0	0	0	0	519	408	
8	0	0	0	0	518	405	
9	0	0	0	0	517	408	
10	0	0	0	0	516	408	
11	0	0	0	0	513	408	
12	0	0	0	0	511	411	
13	0	0	0	0	508	409	
14	0	0	0	0	506	409	
15	0	0	0	0	506	409	
0	0	0	0	0	505	405	
1	0	0	0	0	505	408	
2	0	0	0	0	508	408	
3	0	0	0	0	511	408	
4	0	0	0	0	513	411	
5	0	0	0	0	516	409	
6	0	0	0	0	519	409	
7	0	0	0	0	521	408	
8	0	0	0	0	523	405	
9	0	0	0	0	523	408	
10	0	0	0	0	522	408	
11	0	0	0	0	521	408	
12	0	0	0	0	520	411	
13	0	0	0	0	518	408	
14	0	0	0	0	517	408	
15	0	0	0	0	514	408	
0	0	0	0	0	510	405	
1	0	0	0	0	506	408	
2	0	0	0	0	504	408	
3	0	0	0	0	502	408	
4	0	0	0	0	502	412	
5	0	0	0	0	504	408	
6	0	0	0	0	505	408	
7	0	0	0	0	508	408	
8	0	0	0	0	510	405	
9	0	0	0	0	512	408	
10	0	0	0	0	514	408	
11	0	0	0	0	513	409	
12	0	0	0	0	511	411	
13	0	0	0	0	508	408	
14	0	0	0	0	505	408	
15	0	0	0	0	503	408	
0	0	0	0	0	500	404	
1	0	0	0	0	498	408	
2	0	0	0	0	496	408	
3	0	0	0	0	494	408	
4	0	0	0	0	491	410	
5	0	0	0	0	488	408	
6	0	0	0	0	488	408	
7	0	0	0	0	491	408	
8	0	0	0	0	494	404	
9	0	0	0	0	500	407	
10	0	0	0	0	506	407	
11	0	0	0	0	514	407	
12	0	0	0	0	522	410	
13	0	0	0	0	531	408	
14	0	0	0	0	539	408	
15	0	0	0	0	547	408	
0	0	0	0	0	557	404	
1	0	0	0	0	565	407	
2	0	0	0	0	573	407	
3	0	0	0	0	581	407	
4	0	0	0	0	590	410	
5	0	0	0	0	598	407	
6	0	0	0	0	606	408	
7	0	0	0	0	614	408	
8	0	0	0	0	623	404	
9	0	0	0	0	631	408	
10	0	0	0	0	641	408	
11	0	0	0	0	650	408	
12	0	0	0	0	660	411	
13	0	0	0	0	668	408	
14	0	0	0	0	677	408	
15	0	0	0	0	685	408	
0	0	0	0	0	691	404	
1	0	0	0	0	696	408	
2	0	0	0	0	701	407	
3	0	0	0	0	703	407	
4	0	0	0	0	703	410	
5	0	0	0	0	700	407	
6	0	0	0	0	696	408	
7	0	0	0	0	689	408	
8	0	0	0	0	681	404	
9	0	0	0	0	674	407	
10	0	0	0	0	666	407	
11	0	0	0	0	657	407	
12	0	0	0	0	648	410	
13	0	0	0	0	639	408	
14	0	0	0	0	631	408	
15	0	0	0	0	624	407	
0	0	0	0	0	616	404	
1	0	0	0	0	609	407	
2	0	0	0	0	602	407	
3	0	0	0	0	596	407	
4	0	0	0	0	591	410	
5	0	0	0	0	586	407	
6	0	0	0	0	582	406	
7	0	0	0	0	576	407	
8	0	0	0	0	571	404	
9	0	0	0	0	565	407	
10	0	0	0	0	558	407	
11	0	0	0	0	550	408	
12	0	0	0	0	542	410	
13	0	0	0	0	534	408	
14	0	0	0	0	527	408	
15	0	0	0	0	519	408	
0	0	0	0	0	511	404	
1	0	0	0	0	502	408	
2	0	0	0	0	495	408	
3	0	0	0	0	488	408	
4	0	0	0	0	482	411	
5	0	0	0	0	478	407	
6	0	0	0	0	476	407	
7	0	0	0	0	475	408	
8	0	0	0	0	474	404	
9	0	0	0	0	473	407	
10	0	0	0	0	473	408	
11	0	0	0	0	472	407	
12	0	0	0	0	471	410	
13	0	0	0	0	469	408	
14	0	0	0	0	467	407	
15	0	0	0	0	465	407	
0	0	0	0	0	463	404	
1	0	0	0	0	461	407	
2	0	0	0	0	459	407	
3	0	0	0	0	455	407	
4	0	0	0	0	451	410	
5	0	0	0	0	448	408	
6	0	0	0	0	446	407	
7	0	0	0	0	445	407	
8	0	0	0	0	445	404	
9	0	0	0	0	445	407	
10	0	0	0	0	448	408	
11	0	0	0	0	451	408	
12	0	0	0	0	455	411	
13	0	0	0	0	458	408	
14	0	0	0	0	460	408	
15	0	0	0	0	462	408	
0	0	0	0	0	462	405	
1	0	0	0	0	462	408	
2	0	0	0	0	461	408	
3	0	0	0	0	460	408	
4	0	0	0	0	459	411	
5	0	0	0	0	458	408	
6	0	0	0	0	457	408	
7	0	0	0	0	455	408	
8	0	0	0	0	451	405	
9	0	0	0	0	449	408	
10	0	0	0	0	448	408	
11	0	0	0	0	448	408	
12	0	0	0	0	450	411	
13	0	0	0	0	452	409	
14	0	0	0	0	455	408	
15	0	0	0	0	459	408	
0	0	0	0	0	463	404	
1	0	0	0	0	466	408	
2	0	0	0	0	471	408	
3	0	0	0	0	472	408	
4	0	0	0	0	473	411	
5	0	0	0	0	473	408	
6	0	0	0	0	472	408	
7	0	0	0	0	471	408	
8	0	0	0	0	469	404	
9	0	0	0	0	467	408	
10	0	0	0	0	465	409	
11	0	0	0	0	462	408	
12	0	0	0	0	459	411	
13	0	0	0	0	457	408	
14	0	0	0	0	456	408	
15	0	0	0	0	457	408	
0	0	0	0	0	458	405	
1	0	0	0	0	460	408	
2	0	0	0	0	463	408	
3	0	0	0	0	467	408	
4	0	0	0	0	471	410	
5	0	0	0	0	475	407	
6	0	0	0	0	479	408	
7	0	0	0	0	482	407	
8	0	0	0	0	484	404	
9	0	0	0	0	485	408	
10	0	0	0	0	485	407	
11	0	0	0	0	483	407	
12	0	0	0	0	481	410	
13	0	0	0	0	479	407	
14	0	0	0	0	478	407	
15	0	0	0	0	476	407	
0	0	0	0	0	472	403	
1	0	0	0	0	470	407	
2	0	0	0	0	467	407	
3	0	0	0	0	466	406	
4	0	0	0	0	467	410	
5	0	0	0	0	468	407	
6	0	0	0	0	471	407	
7	0	0	0	0	475	407	
8	0	0	0	0	479	404	
9	0	0	0	0	483	408	
10	0	0	0	0	487	408	
11	0	0	0	0	489	408	
12	0	0	0	0	491	410	
13	0	0	0	0	492	408	
14	0	0	0	0	492	408	
15	0	0	0	0	491	408	
0	0	0	0	0	490	404	
1	0	0	0	0	489	408	
2	0	0	0	0	488	408	
3	0	0	0	0	485	407	
4	0	0	0	0	482	410	
5	0	0	0	0	479	408	
6	0	0	0	0	478	408	
7	0	0	0	0	476	408	
8	0	0	0	0	476	405	
9	0	0	0	0	476	408	
10	0	0	0	0	477	408	
11	0	0	0	0	479	408	
12	0	0	0	0	481	411	
13	0	0	0	0	484	408	
14	0	0	0	0	487	408	
15	0	0	0	0	490	408	
0	0	0	0	0	491	405	
1	0	0	0	0	492	408	
2	0	0	0	0	491	408	
3	0	0	0	0	491	409	
4	0	0	0	0	489	412	
5	0	0	0	0	488	409	
6	0	0	0	0	486	409	
7	0	0	0	0	484	409	
8	0	0	0	0	481	406	
9	0	0	0	0	477	410	
10	0	0	0	0	476	409	
11	0	0	0	0	476	409	
12	0	0	0	0	477	412	
13	0	0	0	0	478	409	
14	0	0	0	0	482	409	
15	0	0	0	0	486	409	
0	0	0	0	0	489	405	
1	0	0	0	0	493	408	
2	0	0	0	0	497	408	
3	0	0	0	0	500	408	
4	0	0	0	0	502	412	
5	0	0	0	0	502	409	
6	0	0	0	0	501	408	
7	0	0	0	0	499	408	
8	0	0	0	0	498	405	
9	0	0	0	0	496	409	
10	0	0	0	0	494	408	
11	0	0	0	0	491	408	
12	0	0	0	0	488	411	
13	0	0	0	0	485	408	
14	0	0	0	0	483	408	
15	0	0	0	0	482	408	
0	0	0	0	0	481	406	
1	0	0	0	0	483	409	
2	0	0	0	0	485	408	
3	0	0	0	0	489	409	
4	0	0	0	0	493	411	
5	0	0	0	0	496	409	
6	0	0	0	0	499	408	
7	0	0	0	0	502	408	
8	0	0	0	0	504	405	
9	0	0	0	0	504	408	
10	0	0	0	0	504	408	
11	0	0	0	0	503	408	
12	0	0	0	0	502	411	
13	0	0	0	0	500	408	
14	0	0	0	0	499	408	
15	0	0	0	0	496	408	
0	0	0	0	0	493	405	
1	0	0	0	0	491	408	
2	0	0	0	0	488	408	
3	0	0	0	0	487	408	
4	0	0	0	0	485	411	
5	0	0	0	0	486	408	
6	0	0	0	0	488	408	
7	0	0	0	0	492	408	
8	0	0	0	0	496	404	
9	0	0	0	0	500	408	
10	0	0	0	0	504	408	
11	0	0	0	0	507	409	
12	0	0	0	0	509	412	
13	0	0	0	0	510	409	
14	0	0	0	0	510	409	
15	0	0	0	0	510	408	
0	0	0	0	0	508	405	
1	0	0	0	0	506	409	
2	0	0	0	0	503	408	
3	0	0	0	0	499	408	
4	0	0	0	0	494	411	
5	0	0	0	0	489	408	
6	0	0	0	0	486	407	
7	0	0	0	0	485	407	
8	0	0	0	0	485	404	
9	0	0	0	0	487	407	
10	0	0	0	0	490	407	
11	0	0	0	0	493	407	
12	0	0	0	0	497	410	
13	0	0	0	0	502	407	
14	0	0	0	0	505	406	
15	0	0	0	0	507	407	
0	0	0	0	0	508	404	
1	0	0	0	0	509	407	
2	0	0	0	0	508	407	
3	0	0	0	0	506	407	
4	0	0	0	0	504	410	
5	0	0	0	0	502	407	
6	0	0	0	0	501	407	
7	0	0	0	0	498	406	
8	0	0	0	0	495	403	
9	0	0	0	0	491	407	
10	0	0	0	0	488	406	
11	0	0	0	0	487	406	
12	0	0	0	0	486	409	
13	0	0	0	0	487	407	
14	0	0	0	0	489	407	
15	0	0	0	0	492	407	
0	0	0	0	0	495	403	
1	0	0	0	0	498	407	
2	0	0	0	0	501	407	
3	0	0	0	0	504	407	
4	0	0	0	0	504	410	
5	0	0	0	0	504	407	
6	0	0	0	0	504	407	
7	0	0	0	0	503	407	
8	0	0	0	0	501	404	
9	0	0	0	0	499	407	
10	0	0	0	0	498	407	
11	0	0	0	0	495	407	
12	0	0	0	0	492	410	
13	0	0	0	0	489	408	
14	0	0	0	0	487	407	
15	0	0	0	0	487	407	
0	0	0	0	0	488	404	
1	0	0	0	0	490	407	
2	0	0	0	0	493	407	
3	0	0	0	0	497	406	
4	0	0	0	0	502	409	
5	0	0	0	0	505	407	
6	0	0	0	0	509	407	
7	0	0	0	0	512	406	
8	0	0	0	0	514	402	
9	0	0	0	0	515	407	
10	0	0	0	0	515	406	
11	0	0	0	0	515	407	
12	0	0	0	0	513	409	
13	0	0	0	0	513	407	
14	0	0	0	0	512	407	
15	0	0	0	0	509	407	
0	0	0	0	0	506	403	
1	0	0	0	0	502	407	
2	0	0	0	0	499	407	
3	0	0	0	0	498	407	
4	0	0	0	0	498	410	
5	0	0	0	0	499	408	
6	0	0	0	0	503	407	
7	0	0	0	0	507	407	
8	0	0	0	0	512	404	
9	0	0	0	0	516	408	
10	0	0	0	0	520	408	
11	0	0	0	0	523	407	
12	0	0	0	0	524	409	
13	0	0	0	0	525	407	
14	0	0	0	0	525	407	
15	0	0	0	0	525	407	
0	0	0	0	0	525	403	
1	0	0	0	0	525	407	
2	0	0	0	0	524	407	
3	0	0	0	0	521	406	
4	0	0	0	0	519	409	
5	0	0	0	0	515	407	
6	0	0	0	0	513	407	
7	0	0	0	0	512	407	
8	0	0	0	0	512	403	
9	0	0	0	0	513	406	
10	0	0	0	0	516	407	
11	0	0	0	0	520	407	
12	0	0	0	0	524	410	
13	0	0	0	0	527	408	
14	0	0	0	0	530	407	
15	0	0	0	0	534	407	
0	0	0	0	0	535	404	
1	0	0	0	0	535	407	
2	0	0	0	0	535	407	
3	0	0	0	0	536	407	
4	0	0	0	0	535	409	
5	0	0	0	0	534	408	
6	0	0	0	0	533	408	
7	0	0	0	0	531	408	
8	0	0	0	0	527	404	
9	0	0	0	0	524	408	
10	0	0	0	0	522	408	
11	0	0	0	0	521	408	
12	0	0	0	0	520	410	
13	0	0	0	0	521	407	
14	0	0	0	0	524	407	
15	0	0	0	0	527	407	
0	0	0	0	0	530	404	
1	0	0	0	0	534	407	
2	0	0	0	0	537	408	
3	0	0	0	0	537	407	
4	0	0	0	0	536	410	
5	0	0	0	0	534	408	
6	0	0	0	0	533	408	
7	0	0	0	0	531	408	
8	0	0	0	0	528	404	
9	0	0	0	0	527	408	
10	0	0	0	0	525	408	
11	0	0	0	0	523	407	
12	0	0	0	0	519	410	
13	0	0	0	0	516	408	
14	0	0	0	0	515	408	
15	0	0	0	0	515	408	
0	0	0	0	0	516	405	
1	0	0	0	0	518	408	
2	0	0	0	0	522	408	
3	0	0	0	0	525	408	
4	0	0	0	0	528	411	
5	0	0	0	0	532	408	
6	0	0	0	0	535	408	
7	0	0	0	0	536	408	
8	0	0	0	0	536	404	
9	0	0	0	0	536	408	
10	0	0	0	0	535	408	
11	0	0	0	0	534	408	
12	0	0	0	0	532	412	
13	0	0	0	0	530	409	
14	0	0	0	0	528	408	
15	0	0	0	0	525	409	
0	0	0	0	0	522	406	
1	0	0	0	0	519	408	
2	0	0	0	0	517	409	
3	0	0	0	0	516	409	
4	0	0	0	0	517	413	
5	0	0	0	0	518	409	
6	0	0	0	0	520	409	
7	0	0	0	0	524	409	
8	0	0	0	0	527	406	
9	0	0	0	0	530	409	
10	0	0	0	0	533	409	
11	0	0	0	0	536	409	
12	0	0	0	0	536	412	
13	0	0	0	0	536	410	
14	0	0	0	0	535	409	
15	0	0	0	0	534	409	
0	0	0	0	0	532	406	
1	0	0	0	0	530	409	
2	0	0	0	0	528	409	
3	0	0	0	0	524	409	
4	0	0	0	0	520	411	
5	0	0	0	0	516	409	
6	0	0	0	0	514	409	
7	0	0	0	0	513	408	
8	0	0	0	0	513	405	
9	0	0	0	0	515	408	
10	0	0	0	0	519	408	
11	0	0	0	0	522	408	
12	0	0	0	0	526	411	
13	0	0	0	0	529	408	
14	0	0	0	0	532	408	
15	0	0	0	0	534	408	
0	0	0	0	0	534	404	
1	0	0	0	0	533	408	
2	0	0	0	0	531	408	
3	0	0	0	0	528	408	
4	0	0	0	0	527	411	
5	0	0	0	0	524	408	
6	0	0	0	0	523	408	
7	0	0	0	0	520	408	
8	0	0	0	0	517	405	
9	0	0	0	0	514	409	
10	0	0	0	0	512	409	
11	0	0	0	0	511	409	
12	0	0	0	0	512	412	
13	0	0	0	0	513	409	
14	0	0	0	0	516	409	
15	0	0	0	0	518	409	
0	0	0	0	0	521	406	
1	0	0	0	0	524	409	
2	0	0	0	0	527	409	
3	0	0	0	0	528	409	
4	0	0	0	0	527	412	
5	0	0	0	0	526	409	
6	0	0	0	0	524	409	
7	0	0	0	0	522	410	
8	0	0	0	0	521	406	
9	0	0	0	0	519	409	
10	0	0	0	0	516	409	
11	0	0	0	0	513	409	
12	0	0	0	0	509	412	
13	0	0	0	0	505	409	
14	0	0	0	0	503	409	
15	0	0	0	0	501	409	
0	0	0	0	0	501	406	
1	0	0	0	0	502	409	
2	0	0	0	0	504	409	
3	0	0	0	0	507	409	
4	0	0	0	0	511	412	
5	0	0	0	0	514	408	
6	0	0	0	0	518	408	
7	0	0	0	0	520	409	
8	0	0	0	0	521	405	
9	0	0	0	0	522	409	
10	0	0	0	0	521	408	
11	0	0	0	0	520	408	
12	0	0	0	0	519	410	
13	0	0	0	0	517	408	
14	0	0	0	0	515	408	
15	0	0	0	0	512	408	
0	0	0	0	0	509	405	
1	0	0	0	0	505	408	
2	0	0	0	0	503	408	
3	0	0	0	0	502	408	
4	0	0	0	0	502	411	
5	0	0	0	0	504	408	
6	0	0	0	0	507	408	
7	0	0	0	0	509	408	
8	0	0	0	0	512	405	
9	0	0	0	0	516	408	
10	0	0	0	0	519	408	
11	0	0	0	0	522	409	
12	0	0	0	0	522	411	
13	0	0	0	0	522	408	
14	0	0	0	0	522	407	
15	0	0	0	0	519	407	
0	0	0	0	0	517	404	
1	0	0	0	0	515	408	
2	0	0	0	0	513	407	
3	0	0	0	0	510	407	
4	0	0	0	0	506	410	
5	0	0	0	0	503	407	
6	0	0	0	0	501	408	
7	0	0	0	0	499	407	
8	0	0	0	0	499	403	
9	0	0	0	0	501	407	
10	0	0	0	0	504	408	
11	0	0	0	0	507	408	
12	0	0	0	0	510	409	
13	0	0	0	0	513	407	
14	0	0	0	0	515	408	
15	0	0	0	0	515	408	
0	0	0	0	0	515	404	
1	0	0	0	0	516	408	
2	0	0	0	0	515	408	
3	0	0	0	0	515	407	
4	0	0	0	0	515	410	
5	0	0	0	0	514	408	
6	0	0	0	0	513	407	
7	0	0	0	0	511	407	
8	0	0	0	0	507	404	
9	0	0	0	0	504	407	
10	0	0	0	0	502	407	
11	0	0	0	0	502	407	
12	0	0	0	0	502	410	
13	0	0	0	0	503	407	
14	0	0	0	0	505	407	
15	0	0	0	0	508	408	
0	0	0	0	0	512	404	
1	0	0	0	0	515	408	
2	0	0	0	0	518	407	
3	0	0	0	0	520	408	
4	0	0	0	0	521	410	
5	0	0	0	0	521	408	
6	0	0	0	0	521	408	
7	0	0	0	0	521	408	
8	0	0	0	0	520	404	
9	0	0	0	0	519	408	
10	0	0	0	0	517	407	
11	0	0	0	0	513	408	
12	0	0	0	0	509	411	
13	0	0	0	0	504	407	
14	0	0	0	0	501	408	
15	0	0	0	0	500	408	
0	0	0	0	0	501	404	
1	0	0	0	0	501	408	
2	0	0	0	0	504	407	
3	0	0	0	0	507	408	
4	0	0	0	0	511	410	
5	0	0	0	0	514	407	
6	0	0	0	0	518	407	
7	0	0	0	0	519	408	
8	0	0	0	0	519	404	
9	0	0	0	0	519	407	
10	0	0	0	0	519	408	
11	0	0	0	0	517	407	
12	0	0	0	0	516	410	
13	0	0	0	0	514	408	
14	0	0	0	0	514	407	
15	0	0	0	0	511	407	
0	0	0	0	0	508	404	
1	0	0	0	0	504	407	
2	0	0	0	0	502	408	
3	0	0	0	0	501	408	
4	0	0	0	0	501	410	
5	0	0	0	0	502	407	
6	0	0	0	0	504	407	
7	0	0	0	0	507	407	
8	0	0	0	0	510	403	
9	0	0	0	0	513	406	
10	0	0	0	0	515	406	
11	0	0	0	0	516	406	
12	0	0	0	0	516	409	
13	0	0	0	0	515	407	
14	0	0	0	0	515	407	
15	0	0	0	0	512	407	
0	0	0	0	0	511	403	
1	0	0	0	0	511	407	
2	0	0	0	0	510	407	
3	0	0	0	0	507	407	
4	0	0	0	0	504	408	
5	0	0	0	0	500	406	
6	0	0	0	0	497	407	
7	0	0	0	0	495	406	
8	0	0	0	0	495	403	
9	0	0	0	0	496	407	
10	0	0	0	0	499	406	
11	0	0	0	0	504	407	
12	0	0	0	0	509	409	
13	0	0	0	0	513	406	
14	0	0	0	0	516	406	
15	0	0	0	0	519	406	
0	0	0	0	0	519	403	
1	0	0	0	0	518	406	
2	0	0	0	0	518	407	
3	0	0	0	0	516	407	
4	0	0	0	0	515	410	
5	0	0	0	0	514	407	
6	0	0	0	0	513	407	
7	0	0	0	0	510	407	
8	0	0	0	0	507	403	
9	0	0	0	0	503	407	
10	0	0	0	0	500	407	
11	0	0	0	0	500	407	
12	0	0	0	0	499	410	
13	0	0	0	0	501	408	
14	0	0	0	0	503	407	
15	0	0	0	0	506	408	
0	0	0	0	0	510	403	
1	0	0	0	0	513	407	
2	0	0	0	0	516	408	
3	0	0	0	0	518	407	
4	0	0	0	0	519	411	
5	0	0	0	0	519	408	
6	0	0	0	0	519	408	
7	0	0	0	0	517	408	
8	0	0	0	0	515	403	
9	0	0	0	0	512	407	
10	0	0	0	0	510	407	
11	0	0	0	0	507	407	
12	0	0	0	0	503	409	
13	0	0	0	0	499	408	
14	0	0	0	0	495	407	
15	0	0	0	0	493	408	
0	0	0	0	0	493	404	
1	0	0	0	0	493	407	
2	0	0	0	0	496	408	
3	0	0	0	0	499	407	
4	0	0	0	0	503	411	
5	0	0	0	0	506	407	
6	0	0	0	0	509	407	
7	0	0	0	0	511	407	
8	0	0	0	0	511	403	
9	0	0	0	0	511	406	
10	0	0	0	0	512	407	
11	0	0	0	0	511	407	
12	0	0	0	0	511	410	
13	0	0	0	0	509	407	
14	0	0	0	0	507	407	
15	0	0	0	0	504	407	
0	0	0	0	0	500	404	
1	0	0	0	0	496	407	
2	0	0	0	0	494	407	
3	0	0	0	0	494	407	
4	0	0	0	0	495	410	
5	0	0	0	0	496	408	
6	0	0	0	0	500	408	
7	0	0	0	0	504	407	
8	0	0	0	0	509	404	
9	0	0	0	0	512	408	
10	0	0	0	0	515	408	
11	0	0	0	0	516	408	
12	0	0	0	0	517	410	
13	0	0	0	0	517	408	
14	0	0	0	0	516	408	
15	0	0	0	0	514	407	
0	0	0	0	0	511	404	
1	0	0	0	0	508	407	
2	0	0	0	0	506	407	
3	0	0	0	0	502	407	
4	0	0	0	0	499	410	
5	0	0	0	0	496	407	
6	0	0	0	0	494	406	
7	0	0	0	0	494	407	
8	0	0	0	0	495	403	
9	0	0	0	0	496	407	
10	0	0	0	0	498	408	
11	0	0	0	0	502	407	
12	0	0	0	0	506	411	
13	0	0	0	0	509	407	
14	0	0	0	0	511	408	
15	0	0	0	0	513	408	
0	0	0	0	0	514	403	
1	0	0	0	0	513	408	
2	0	0	0	0	512	408	
3	0	0	0	0	511	408	
4	0	0	0	0	510	411	
5	0	0	0	0	507	408	
6	0	0	0	0	505	408	
7	0	0	0	0	501	407	
8	0	0	0	0	498	404	
9	0	0	0	0	495	407	
10	0	0	0	0	493	408	
11	0	0	0	0	491	408	
12	0	0	0	0	491	410	
13	0	0	0	0	492	408	
14	0	0	0	0	494	407	
15	0	0	0	0	496	407	
0	0	0	0	0	499	404	
1	0	0	0	0	503	408	
2	0	0	0	0	506	408	
3	0	0	0	0	509	408	
4	0	0	0	0	510	411	
5	0	0	0	0	511	407	
6	0	0	0	0	511	408	
7	0	0	0	0	510	408	
8	0	0	0	0	509	404	
9	0	0	0	0	508	408	
10	0	0	0	0	506	408	
11	0	0	0	0	503	408	
12	0	0	0	0	499	411	
13	0	0	0	0	495	408	
14	0	0	0	0	492	408	
15	0	0	0	0	492	408	
0	0	0	0	0	492	405	
1	0	0	0	0	494	408	
2	0	0	0	0	497	408	
3	0	0	0	0	500	408	
4	0	0	0	0	504	411	
5	0	0	0	0	507	408	
6	0	0	0	0	510	408	
7	0	0	0	0	512	408	
8	0	0	0	0	512	404	
9	0	0	0	0	511	408	
10	0	0	0	0	509	408	
11	0	0	0	0	506	408	
12	0	0	0	0	504	411	
13	0	0	0	0	502	408	
14	0	0	0	0	499	408	
15	0	0	0	0	496	407	
0	0	0	0	0	493	404	
1	0	0	0	0	490	408	
2	0	0	0	0	489	408	
3	0	0	0	0	489	408	
4	0	0	0	0	490	411	
5	0	0	0	0	492	408	
6	0	0	0	0	495	408	
7	0	0	0	0	499	408	
8	0	0	0	0	503	404	
9	0	0	0	0	507	407	
10	0	0	0	0	511	408	
11	0	0	0	0	513	408	
12	0	0	0	0	514	410	
13	0	0	0	0	515	408	
14	0	0	0	0	514	408	
15	0	0	0	0	512	408	
0	0	0	0	0	510	404	
1	0	0	0	0	508	408	
2	0	0	0	0	505	408	
3	0	0	0	0	501	408	
4	0	0	0	0	497	411	
5	0	0	0	0	494	408	
6	0	0	0	0	491	409	
7	0	0	0	0	489	409	
8	0	0	0	0	489	406	
9	0	0	0	0	490	408	
10	0	0	0	0	493	409	
11	0	0	0	0	496	408	
12	0	0	0	0	500	411	
13	0	0	0	0	504	409	
14	0	0	0	0	508	408	
15	0	0	0	0	508	409	
0	0	0	0	0	509	405	
1	0	0	0	0	508	408	
2	0	0	0	0	507	408	
3	0	0	0	0	506	408	
4	0	0	0	0	505	411	
5	0	0	0	0	504	408	
6	0	0	0	0	502	408	
7	0	0	0	0	499	408	
8	0	0	0	0	496	405	
9	0	0	0	0	492	408	
10	0	0	0	0	491	408	
11	0	0	0	0	490	408	
12	0	0	0	0	491	411	
13	0	0	0	0	492	408	
14	0	0	0	0	496	408	
15	0	0	0	0	499	408	
0	0	0	0	0	503	405	
1	0	0	0	0	507	408	
2	0	0	0	0	510	408	
3	0	0	0	0	512	408	
4	0	0	0	0	513	411	
5	0	0	0	0	513	408	
6	0	0	0	0	511	407	
7	0	0	0	0	511	408	
8	0	0	0	0	510	403	
9	0	0	0	0	508	408	
10	0	0	0	0	505	408	
11	0	0	0	0	503	408	
12	0	0	0	0	499	411	
13	0	0	0	0	496	408	
14	0	0	0	0	494	408	
15	0	0	0	0	493	408	
0	0	0	0	0	493	404	
1	0	0	0	0	494	407	
2	0	0	0	0	497	407	
3	0	0	0	0	500	407	
4	0	0	0	0	504	410	
5	0	0	0	0	507	407	
6	0	0	0	0	510	407	
7	0	0	0	0	512	407	
8	0	0	0	0	512	404	
9	0	0	0	0	512	407	
10	0	0	0	0	511	407	
11	0	0	0	0	509	407	
12	0	0	0	0	507	410	
13	0	0	0	0	504	407	
14	0	0	0	0	502	407	
15	0	0	0	0	500	408	
0	0	0	0	0	496	403	
1	0	0	0	0	492	407	
2	0	0	0	0	489	408	
3	0	0	0	0	487	407	
4	0	0	0	0	487	410	
5	0	0	0	0	489	407	
6	0	0	0	0	492	407	
7	0	0	0	0	496	408	
8	0	0	0	0	499	404	
9	0	0	0	0	503	408	
10	0	0	0	0	508	408	
11	0	0	0	0	511	408	
12	0	0	0	0	512	411	
13	0	0	0	0	512	408	
14	0	0	0	0	511	408	
15	0	0	0	0	510	408	
0	0	0	0	0	507	405	
1	0	0	0	0	504	408	
2	0	0	0	0	501	408	
3	0	0	0	0	498	408	
4	0	0	0	0	495	411	
5	0	0	0	0	492	408	
6	0	0	0	0	491	408	
7	0	0	0	0	491	409	
8	0	0	0	0	492	406	
9	0	0	0	0	494	408	
10	0	0	0	0	496	408	
11	0	0	0	0	499	408	
12	0	0	0	0	503	411	
13	0	0	0	0	507	409	
14	0	0	0	0	511	409	
15	0	0	0	0	513	408	
0	0	0	0	0	515	404	
1	0	0	0	0	516	409	
2	0	0	0	0	516	408	
3	0	0	0	0	516	409	
4	0	0	0	0	515	412	
5	0	0	0	0	513	408	
6	0	0	0	0	512	408	
7	0	0	0	0	510	408	
8	0	0	0	0	507	404	
9	0	0	0	0	504	408	
10	0	0	0	0	502	408	
11	0	0	0	0	501	407	
12	0	0	0	0	502	411	
13	0	0	0	0	503	408	
14	0	0	0	0	505	408	
15	0	0	0	0	509	408	
0	0	0	0	0	512	404	
1	0	0	0	0	516	408	
2	0	0	0	0	519	408	
3	0	0	0	0	520	408	
4	0	0	0	0	521	411	
5	0	0	0	0	520	408	
6	0	0	0	0	519	408	
7	0	0	0	0	517	408	
8	0	0	0	0	514	405	
9	0	0	0	0	511	408	
10	0	0	0	0	509	408	
11	0	0	0	0	506	408	
12	0	0	0	0	503	412	
13	0	0	0	0	499	408	
14	0	0	0	0	496	408	
15	0	0	0	0	495	407	
0	0	0	0	0	495	405	
1	0	0	0	0	495	408	
2	0	0	0	0	498	408	
3	0	0	0	0	501	407	
4	0	0	0	0	505	411	
5	0	0	0	0	508	407	
6	0	0	0	0	510	408	
7	0	0	0	0	511	408	
8	0	0	0	0	512	404	
9	0	0	0	0	512	408	
10	0	0	0	0	512	407	
11	0	0	0	0	511	407	
12	0	0	0	0	509	411	
13	0	0	0	0	507	408	
14	0	0	0	0	505	408	
15	0	0	0	0	502	407	
0	0	0	0	0	497	403	
1	0	0	0	0	494	407	
2	0	0	0	0	493	406	
3	0	0	0	0	493	407	
4	0	0	0	0	494	410	
5	0	0	0	0	496	407	
6	0	0	0	0	499	407	
7	0	0	0	0	503	407	
8	0	0	0	0	505	403	
9	0	0	0	0	509	407	
10	0	0	0	0	512	407	
11	0	0	0	0	513	408	
12	0	0	0	0	513	411	
13	0	0	0	0	513	408	
14	0	0	0	0	513	408	
15	0	0	0	0	511	408	
0	0	0	0	0	508	404	
1	0	0	0	0	506	408	
2	0	0	0	0	504	408	
3	0	0	0	0	502	408	
4	0	0	0	0	497	411	
5	0	0	0	0	492	408	
6	0	0	0	0	488	408	
7	0	0	0	0	486	408	
8	0	0	0	0	484	404	
9	0	0	0	0	482	408	
10	0	0	0	0	482	408	
11	0	0	0	0	483	408	
12	0	0	0	0	485	411	
13	0	0	0	0	487	408	
14	0	0	0	0	487	408	
15	0	0	0	0	488	408	
0	0	0	0	0	489	404	
1	0	0	0	0	490	407	
2	0	0	0	0	490	407	
3	0	0	0	0	489	407	
4	0	0	0	0	489	410	
5	0	0	0	0	490	408	
6	0	0	0	0	491	408	
7	0	0	0	0	493	407	
8	0	0	0	0	493	404	
9	0	0	0	0	494	408	
10	0	0	0	0	496	408	
11	0	0	0	0	501	408	
12	0	0	0	0	507	411	
13	0	0	0	0	516	408	
14	0	0	0	0	527	407	
15	0	0	0	0	540	408	
0	0	0	0	0	553	404	
1	0	0	0	0	566	408	
2	0	0	0	0	578	407	
3	0	0	0	0	589	407	
4	0	0	0	0	600	410	
5	0	0	0	0	611	407	
6	0	0	0	0	622	406	
7	0	0	0	0	632	407	
8	0	0	0	0	641	403	
9	0	0	0	0	650	407	
10	0	0	0	0	659	407	
11	0	0	0	0	667	407	
12	0	0	0	0	670	409	
13	0	0	0	0	671	407	
14	0	0	0	0	673	407	
15	0	0	0	0	676	407	
0	0	0	0	0	679	403	
1	0	0	0	0	681	407	
2	0	0	0	0	684	407	
3	0	0	0	0	686	407	
4	0	0	0	0	686	409	
5	0	0	0	0	685	407	
6	0	0	0	0	684	407	
7	0	0	0	0	679	407	
8	0	0	0	0	675	404	
9	0	0	0	0	669	407	
10	0	0	0	0	662	407	
11	0	0	0	0	653	407	
12	0	0	0	0	644	411	
13	0	0	0	0	634	408	
14	0	0	0	0	624	408	
15	0	0	0	0	612	408	
0	0	0	0	0	599	403	
1	0	0	0	0	586	408	
2	0	0	0	0	574	408	
3	0	0	0	0	565	408	
4	0	0	0	0	557	410	
5	0	0	0	0	551	408	
6	0	0	0	0	547	408	
7	0	0	0	0	543	408	
8	0	0	0	0	540	404	
9	0	0	0	0	537	408	
10	0	0	0	0	535	407	
11	0	0	0	0	531	407	
12	0	0	0	0	526	410	
13	0	0	0	0	520	408	
14	0	0	0	0	514	407	
15	0	0	0	0	507	408	
0	0	0	0	0	499	404	
1	0	0	0	0	490	407	
2	0	0	0	0	482	407	
3	0	0	0	0	472	407	
4	0	0	0	0	463	409	
5	0	0	0	0	455	408	
6	0	0	0	0	449	407	
7	0	0	0	0	446	408	
8	0	0	0	0	445	404	
9	0	0	0	0	445	408	
10	0	0	0	0	447	408	
11	0	0	0	0	449	408	
12	0	0	0	0	452	411	
13	0	0	0	0	455	408	
14	0	0	0	0	457	408	
15	0	0	0	0	459	408	
0	0	0	0	0	460	405	
1	0	0	0	0	459	409	
2	0	0	0	0	458	408	
3	0	0	0	0	456	408	
4	0	0	0	0	455	411	
5	0	0	0	0	452	408	
6	0	0	0	0	449	408	
7	0	0	0	0	446	408	
8	0	0	0	0	443	404	
9	0	0	0	0	440	408	
10	0	0	0	0	438	408	
11	0	0	0	0	438	408	
12	0	0	0	0	439	410	
13	0	0	0	0	441	408	
14	0	0	0	0	445	408	
15	0	0	0	0	448	407	
0	0	0	0	0	452	404	
1	0	0	0	0	455	407	
2	0	0	0	0	459	407	
3	0	0	0	0	461	407	
4	0	0	0	0	462	410	
5	0	0	0	0	462	407	
6	0	0	0	0	461	408	
7	0	0	0	0	460	407	
8	0	0	0	0	458	404	
9	0	0	0	0	456	408	
10	0	0	0	0	454	408	
11	0	0	0	0	451	408	
12	0	0	0	0	447	411	
13	0	0	0	0	443	408	
14	0	0	0	0	441	408	
15	0	0	0	0	441	408	
0	0	0	0	0	441	404	
1	0	0	0	0	443	408	
2	0	0	0	0	446	408	
3	0	0	0	0	449	407	
4	0	0	0	0	453	411	
5	0	0	0	0	456	408	
6	0	0	0	0	458	407	
7	0	0	0	0	460	407	
8	0	0	0	0	460	403	
9	0	0	0	0	460	408	
10	0	0	0	0	460	407	
11	0	0	0	0	459	408	
12	0	0	0	0	457	411	
13	0	0	0	0	456	408	
14	0	0	0	0	455	408	
15	0	0	0	0	452	408	
0	0	0	0	0	449	405	
1	0	0	0	0	447	408	
2	0	0	0	0	446	408	
3	0	0	0	0	446	408	
4	0	0	0	0	448	411	
5	0	0	0	0	450	409	
6	0	0	0	0	454	409	
7	0	0	0	0	458	409	
8	0	0	0	0	463	405	
9	0	0	0	0	468	409	
10	0	0	0	0	472	408	
11	0	0	0	0	475	409	
12	0	0	0	0	476	412	
13	0	0	0	0	478	408	
14	0	0	0	0	478	408	
15	0	0	0	0	477	408	
0	0	0	0	0	476	405	
1	0	0	0	0	475	408	
2	0	0	0	0	473	408	
3	0	0	0	0	470	407	
4	0	0	0	0	465	411	
5	0	0	0	0	460	408	
6	0	0	0	0	457	408	
7	0	0	0	0	457	408	
8	0	0	0	0	457	404	
9	0	0	0	0	460	408	
10	0	0	0	0	463	407	
11	0	0	0	0	465	408	
12	0	0	0	0	467	410	
13	0	0	0	0	469	408	
14	0	0	0	0	471	408	
15	0	0	0	0	472	408	
0	0	0	0	0	472	404	
1	0	0	0	0	472	407	
2	0	0	0	0	472	408	
3	0	0	0	0	472	408	
4	0	0	0	0	472	411	
5	0	0	0	0	472	407	
6	0	0	0	0	471	408	
7	0	0	0	0	470	408	
8	0	0	0	0	467	404	
9	0	0	0	0	465	407	
10	0	0	0	0	464	407	
11	0	0	0	0	465	407	
12	0	0	0	0	467	409	
13	0	0	0	0	469	406	
14	0	0	0	0	472	407	
15	0	0	0	0	476	407	
0	0	0	0	0	480	403	
1	0	0	0	0	483	407	
2	0	0	0	0	487	406	
3	0	0	0	0	489	407	
4	0	0	0	0	490	410	
5	0	0	0	0	490	407	
6	0	0	0	0	489	408	
7	0	0	0	0	488	408	
8	0	0	0	0	486	404	
9	0	0	0	0	484	408	
10	0	0	0	0	482	408	
11	0	0	0	0	479	408	
12	0	0	0	0	475	411	
13	0	0	0	0	471	409	
14	0	0	0	0	468	409	
15	0	0	0	0	467	409	
0	0	0	0	0	467	405	
1	0	0	0	0	468	409	
2	0	0	0	0	471	410	
3	0	0	0	0	475	410	
4	0	0	0	0	479	412	
5	0	0	0	0	483	409	
6	0	0	0	0	486	410	
7	0	0	0	0	488	409	
8	0	0	0	0	488	406	
9	0	0	0	0	489	410	
10	0	0	0	0	488	409	
11	0	0	0	0	488	409	
12	0	0	0	0	487	412	
13	0	0	0	0	485	410	
14	0	0	0	0	484	410	
15	0	0	0	0	481	410	
0	0	0	0	0	478	407	
1	0	0	0	0	475	409	
2	0	0	0	0	472	409	
3	0	0	0	0	471	409	
4	0	0	0	0	470	412	
5	0	0	0	0	472	409	
6	0	0	0	0	475	409	
7	0	0	0	0	479	410	
8	0	0	0	0	483	407	
9	0	0	0	0	487	410	
10	0	0	0	0	491	409	
11	0	0	0	0	494	409	
12	0	0	0	0	496	412	
13	0	0	0	0	496	409	
14	0	0	0	0	496	409	
15	0	0	0	0	495	408	
0	0	0	0	0	493	405	
1	0	0	0	0	492	408	
2	0	0	0	0	490	408	
3	0	0	0	0	488	408	
4	0	0	0	0	484	411	
5	0	0	0	0	481	408	
6	0	0	0	0	480	408	
7	0	0	0	0	479	408	
8	0	0	0	0	478	404	
9	0	0	0	0	479	408	
10	0	0	0	0	480	408	
11	0	0	0	0	483	408	
12	0	0	0	0	487	410	
13	0	0	0	0	489	408	
14	0	0	0	0	492	408	
15	0	0	0	0	494	408	
0	0	0	0	0	495	404	
1	0	0	0	0	496	408	
2	0	0	0	0	495	408	
3	0	0	0	0	494	408	
4	0	0	0	0	493	411	
5	0	0	0	0	492	408	
6	0	0	0	0	490	408	
7	0	0	0	0	487	408	
8	0	0	0	0	483	404	
9	0	0	0	0	479	407	
10	0	0	0	0	476	407	
11	0	0	0	0	475	407	
12	0	0	0	0	475	409	
13	0	0	0	0	477	406	
14	0	0	0	0	480	407	
15	0	0	0	0	484	407	
0	0	0	0	0	489	403	
1	0	0	0	0	493	407	
2	0	0	0	0	496	406	
3	0	0	0	0	498	407	
4	0	0	0	0	499	409	
5	0	0	0	0	499	407	
6	0	0	0	0	498	407	
7	0	0	0	0	496	407	
8	0	0	0	0	494	404	
9	0	0	0	0	492	407	
10	0	0	0	0	489	407	
11	0	0	0	0	486	407	
12	0	0	0	0	483	410	
13	0	0	0	0	479	407	
14	0	0	0	0	478	407	
15	0	0	0	0	478	407	
0	0	0	0	0	478	404	
1	0	0	0	0	480	407	
2	0	0	0	0	484	407	
3	0	0	0	0	488	408	
4	0	0	0	0	492	410	
5	0	0	0	0	496	408	
6	0	0	0	0	499	407	
7	0	0	0	0	501	408	
8	0	0	0	0	502	404	
9	0	0	0	0	502	407	
10	0	0	0	0	500	408	
11	0	0	0	0	499	407	
12	0	0	0	0	497	410	
13	0	0	0	0	495	407	
14	0	0	0	0	493	407	
15	0	0	0	0	489	407	
0	0	0	0	0	486	403	
1	0	0	0	0	482	407	
2	0	0	0	0	481	407	
3	0	0	0	0	480	406	
4	0	0	0	0	481	409	
5	0	0	0	0	482	407	
6	0	0	0	0	484	408	
7	0	0	0	0	488	407	
8	0	0	0	0	491	403	
9	0	0	0	0	495	407	
10	0	0	0	0	498	407	
11	0	0	0	0	500	407	
12	0	0	0	0	502	410	
13	0	0	0	0	502	408	
14	0	0	0	0	502	408	
15	0	0	0	0	501	407	
0	0	0	0	0	500	404	
1	0	0	0	0	498	407	
2	0	0	0	0	497	407	
3	0	0	0	0	495	407	
4	0	0	0	0	494	410	
5	0	0	0	0	491	407	
6	0	0	0	0	490	407	
7	0	0	0	0	491	408	
8	0	0	0	0	492	403	
9	0	0	0	0	494	407	
10	0	0	0	0	497	406	
11	0	0	0	0	502	407	
12	0	0	0	0	505	410	
13	0	0	0	0	508	407	
14	0	0	0	0	511	407	
15	0	0	0	0	512	407	
0	0	0	0	0	513	403	
1	0	0	0	0	513	406	
2	0	0	0	0	513	406	
3	0	0	0	0	513	407	
4	0	0	0	0	513	410	
5	0	0	0	0	513	407	
6	0	0	0	0	513	407	
7	0	0	0	0	511	407	
8	0	0	0	0	509	403	
9	0	0	0	0	506	407	
10	0	0	0	0	505	407	
11	0	0	0	0	506	406	
12	0	0	0	0	507	409	
13	0	0	0	0	509	407	
14	0	0	0	0	512	407	
15	0	0	0	0	516	407	
0	0	0	0	0	520	404	
1	0	0	0	0	524	407	
2	0	0	0	0	527	407	
3	0	0	0	0	528	406	
4	0	0	0	0	529	409	
5	0	0	0	0	529	407	
6	0	0	0	0	529	406	
7	0	0	0	0	528	406	
8	0	0	0	0	527	403	
9	0	0	0	0	526	407	
10	0	0	0	0	524	407	
11	0	0	0	0	521	406	
12	0	0	0	0	519	409	
13	0	0	0	0	516	406	
14	0	0	0	0	513	407	
15	0	0	0	0	512	407	
0	0	0	0	0	511	403	
1	0	0	0	0	512	408	
2	0	0	0	0	514	408	
3	0	0	0	0	518	407	
4	0	0	0	0	522	411	
5	0	0	0	0	525	407	
6	0	0	0	0	528	408	
7	0	0	0	0	530	407	
8	0	0	0	0	531	404	
9	0	0	0	0	532	408	
10	0	0	0	0	533	408	
11	0	0	0	0	533	407	
12	0	0	0	0	531	411	
13	0	0	0	0	530	408	
14	0	0	0	0	529	408	
15	0	0	0	0	527	408	
0	0	0	0	0	525	405	
1	0	0	0	0	521	408	
2	0	0	0	0	520	408	
3	0	0	0	0	519	407	
4	0	0	0	0	519	410	
5	0	0	0	0	520	408	
6	0	0	0	0	523	408	
7	0	0	0	0	526	408	
8	0	0	0	0	529	404	
9	0	0	0	0	533	407	
10	0	0	0	0	536	407	
11	0	0	0	0	537	407	
12	0	0	0	0	537	410	
13	0	0	0	0	537	408	
14	0	0	0	0	537	407	
15	0	0	0	0	537	407	
0	0	0	0	0	536	404	
1	0	0	0	0	534	408	
2	0	0	0	0	531	408	
3	0	0	0	0	527	408	
4	0	0	0	0	523	411	
5	0	0	0	0	519	408	
6	0	0	0	0	515	408	
7	0	0	0	0	513	408	
8	0	0	0	0	513	405	
9	0	0	0	0	514	408	
10	0	0	0	0	517	408	
11	0	0	0	0	521	408	
12	0	0	0	0	526	411	
13	0	0	0	0	530	408	
14	0	0	0	0	533	408	
15	0	0	0	0	535	408	
0	0	0	0	0	535	404	
1	0	0	0	0	534	407	
2	0	0	0	0	534	408	
3	0	0	0	0	533	408	
4	0	0	0	0	531	411	
5	0	0	0	0	529	408	
6	0	0	0	0	528	407	
7	0	0	0	0	525	407	
8	0	0	0	0	522	404	
9	0	0	0	0	518	407	
10	0	0	0	0	515	408	
11	0	0	0	0	513	408	
12	0	0	0	0	512	411	
13	0	0	0	0	512	408	
14	0	0	0	0	514	408	
15	0	0	0	0	517	408	
0	0	0	0	0	520	406	
1	0	0	0	0	524	409	
2	0	0	0	0	527	409	
3	0	0	0	0	529	408	
4	0	0	0	0	529	412	
5	0	0	0	0	528	408	
6	0	0	0	0	527	409	
7	0	0	0	0	525	409	
8	0	0	0	0	523	406	
9	0	0	0	0	521	410	
10	0	0	0	0	520	409	
11	0	0	0	0	517	409	
12	0	0	0	0	513	412	
13	0	0	0	0	510	409	
14	0	0	0	0	508	409	
15	0	0	0	0	508	409	
0	0	0	0	0	507	406	
1	0	0	0	0	508	409	
2	0	0	0	0	511	409	
3	0	0	0	0	514	408	
4	0	0	0	0	517	411	
5	0	0	0	0	520	408	
6	0	0	0	0	523	408	
7	0	0	0	0	525	409	
8	0	0	0	0	526	405	
9	0	0	0	0	525	408	
10	0	0	0	0	525	409	
11	0	0	0	0	524	409	
12	0	0	0	0	522	411	
13	0	0	0	0	520	408	
14	0	0	0	0	519	408	
15	0	0	0	0	516	409	
0	0	0	0	0	513	406	
1	0	0	0	0	510	409	
2	0	0	0	0	507	408	
3	0	0	0	0	506	408	
4	0	0	0	0	507	412	
5	0	0	0	0	509	409	
6	0	0	0	0	512	408	
7	0	0	0	0	515	408	
8	0	0	0	0	518	405	
9	0	0	0	0	521	407	
10	0	0	0	0	524	408	
11	0	0	0	0	526	408	
12	0	0	0	0	527	411	
13	0	0	0	0	526	408	
14	0	0	0	0	525	408	
15	0	0	0	0	523	407	
0	0	0	0	0	521	404	
1	0	0	0	0	519	408	
2	0	0	0	0	518	408	
3	0	0	0	0	514	408	
4	0	0	0	0	511	410	
5	0	0	0	0	508	408	
6	0	0	0	0	506	407	
7	0	0	0	0	506	407	
8	0	0	0	0	506	404	
9	0	0	0	0	508	407	
10	0	0	0	0	511	407	
11	0	0	0	0	514	408	
12	0	0	0	0	518	411	
13	0	0	0	0	521	408	
14	0	0	0	0	525	407	
15	0	0	0	0	527	407	
0	0	0	0	0	528	404	
1	0	0	0	0	527	408	
2	0	0	0	0	527	408	
3	0	0	0	0	525	407	
4	0	0	0	0	524	410	
5	0	0	0	0	521	408	
6	0	0	0	0	519	408	
7	0	0	0	0	514	408	
8	0	0	0	0	510	405	
9	0	0	0	0	507	408	
10	0	0	0	0	504	408	
11	0	0	0	0	502	408	
12	0	0	0	0	502	411	
13	0	0	0	0	504	409	
14	0	0	0	0	506	408	
15	0	0	0	0	509	408	
0	0	0	0	0	513	405	
1	0	0	0	0	516	408	
2	0	0	0	0	520	408	
3	0	0	0	0	521	408	
4	0	0	0	0	521	411	
5	0	0	0	0	521	408	
6	0	0	0	0	521	408	
7	0	0	0	0	520	408	
8	0	0	0	0	519	404	
9	0	0	0	0	516	408	
10	0	0	0	0	514	408	
11	0	0	0	0	512	408	
12	0	0	0	0	508	411	
13	0	0	0	0	503	408	
14	0	0	0	0	501	408	
15	0	0	0	0	499	408	
0	0	0	0	0	499	404	
1	0	0	0	0	501	408	
2	0	0	0	0	504	407	
3	0	0	0	0	508	407	
4	0	0	0	0	513	410	
5	0	0	0	0	516	408	
6	0	0	0	0	519	408	
7	0	0	0	0	521	408	
8	0	0	0	0	521	403	
9	0	0	0	0	522	408	
10	0	0	0	0	521	408	
11	0	0	0	0	520	407	
12	0	0	0	0	519	410	
13	0	0	0	0	517	407	
14	0	0	0	0	515	407	
15	0	0	0	0	512	407	
0	0	0	0	0	509	403	
1	0	0	0	0	507	407	
2	0	0	0	0	505	408	
3	0	0	0	0	505	407	
4	0	0	0	0	505	411	
5	0	0	0	0	508	408	
6	0	0	0	0	512	408	
7	0	0	0	0	515	407	
8	0	0	0	0	518	403	
9	0	0	0	0	522	408	
10	0	0	0	0	525	408	
11	0	0	0	0	526	408	
12	0	0	0	0	526	411	
13	0	0	0	0	525	408	
14	0	0	0	0	523	408	
15	0	0	0	0	522	408	
0	0	0	0	0	519	405	
1	0	0	0	0	517	409	
2	0	0	0	0	515	409	
3	0	0	0	0	512	409	
4	0	0	0	0	509	412	
5	0	0	0	0	505	408	
6	0	0	0	0	503	408	
7	0	0	0	0	501	408	
8	0	0	0	0	501	405	
9	0	0	0	0	502	408	
10	0	0	0	0	505	408	
11	0	0	0	0	508	408	
12	0	0	0	0	512	411	
13	0	0	0	0	515	408	
14	0	0	0	0	519	408	
15	0	0	0	0	521	408	
0	0	0	0	0	523	404	
1	0	0	0	0	524	407	
2	0	0	0	0	523	408	
3	0	0	0	0	521	408	
4	0	0	0	0	520	411	
5	0	0	0	0	519	408	
6	0	0	0	0	517	408	
7	0	0	0	0	514	408	
8	0	0	0	0	511	404	
9	0	0	0	0	508	408	
10	0	0	0	0	506	408	
11	0	0	0	0	505	408	
12	0	0	0	0	505	411	
13	0	0	0	0	507	408	
14	0	0	0	0	508	408	
15	0	0	0	0	511	408	
0	0	0	0	0	513	405	
1	0	0	0	0	515	408	
2	0	0	0	0	518	408	
3	0	0	0	0	519	408	
4	0	0	0	0	519	411	
5	0	0	0	0	520	408	
6	0	0	0	0	519	408	
7	0	0	0	0	519	407	
8	0	0	0	0	516	404	
9	0	0	0	0	515	408	
10	0	0	0	0	513	408	
11	0	0	0	0	510	407	
12	0	0	0	0	507	410	
13	0	0	0	0	504	408	
14	0	0	0	0	502	407	
15	0	0	0	0	502	407	
0	0	0	0	0	503	404	
1	0	0	0	0	505	407	
2	0	0	0	0	509	407	
3	0	0	0	0	512	407	
4	0	0	0	0	517	409	
5	0	0	0	0	520	407	
6	0	0	0	0	524	407	
7	0	0	0	0	525	406	
8	0	0	0	0	525	403	
9	0	0	0	0	524	408	
10	0	0	0	0	524	408	
11	0	0	0	0	522	408	
12	0	0	0	0	519	411	
13	0	0	0	0	518	407	
14	0	0	0	0	516	408	
15	0	0	0	0	512	408	
0	0	0	0	0	508	404	
1	0	0	0	0	504	408	
2	0	0	0	0	500	408	
3	0	0	0	0	499	408	
4	0	0	0	0	499	411	
5	0	0	0	0	500	408	
6	0	0	0	0	503	407	
7	0	0	0	0	507	408	
8	0	0	0	0	510	405	
9	0	0	0	0	514	407	
10	0	0	0	0	517	408	
11	0	0	0	0	519	407	
12	0	0	0	0	520	410	
13	0	0	0	0	519	407	
14	0	0	0	0	519	408	
15	0	0	0	0	517	408	
0	0	0	0	0	515	404	
1	0	0	0	0	512	407	
2	0	0	0	0	511	408	
3	0	0	0	0	507	408	
4	0	0	0	0	504	410	
5	0	0	0	0	500	408	
6	0	0	0	0	498	407	
7	0	0	0	0	498	407	
8	0	0	0	0	498	404	
9	0	0	0	0	501	407	
10	0	0	0	0	505	408	
11	0	0	0	0	510	407	
12	0	0	0	0	514	410	
13	0	0	0	0	518	408	
14	0	0	0	0	520	407	
15	0	0	0	0	523	407	
0	0	0	0	0	524	404	
1	0	0	0	0	524	408	
2	0	0	0	0	523	408	
3	0	0	0	0	522	408	
4	0	0	0	0	520	411	
5	0	0	0	0	519	407	
6	0	0	0	0	517	407	
7	0	0	0	0	514	407	
8	0	0	0	0	510	404	
9	0	0	0	0	507	407	
10	0	0	0	0	504	407	
11	0	0	0	0	502	407	
12	0	0	0	0	501	409	
13	0	0	0	0	502	407	
14	0	0	0	0	504	407	
15	0	0	0	0	507	407	
0	0	0	0	0	510	403	
1	0	0	0	0	512	407	
2	0	0	0	0	515	408	
3	0	0	0	0	516	408	
4	0	0	0	0	518	410	
5	0	0	0	0	518	407	
6	0	0	0	0	517	408	
7	0	0	0	0	516	408	
8	0	0	0	0	514	403	
9	0	0	0	0	513	407	
10	0	0	0	0	511	407	
11	0	0	0	0	507	406	
12	0	0	0	0	503	410	
13	0	0	0	0	499	408	
14	0	0	0	0	498	408	
15	0	0	0	0	498	408	
0	0	0	0	0	498	404	
1	0	0	0	0	499	408	
2	0	0	0	0	501	408	
3	0	0	0	0	504	408	
4	0	0	0	0	508	411	
5	0	0	0	0	510	408	
6	0	0	0	0	512	409	
7	0	0	0	0	513	408	
8	0	0	0	0	513	404	
9	0	0	0	0	513	408	
10	0	0	0	0	513	408	
11	0	0	0	0	512	408	
12	0	0	0	0	512	411	
13	0	0	0	0	510	408	
14	0	0	0	0	508	408	
15	0	0	0	0	504	409	
0	0	0	0	0	500	405	
1	0	0	0	0	496	408	
2	0	0	0	0	493	408	
3	0	0	0	0	491	408	
4	0	0	0	0	490	411	
5	0	0	0	0	492	408	
6	0	0	0	0	494	408	
7	0	0	0	0	498	408	
8	0	0	0	0	501	405	
9	0	0	0	0	505	408	
10	0	0	0	0	509	408	
11	0	0	0	0	512	408	
12	0	0	0	0	515	412	
13	0	0	0	0	516	409	
14	0	0	0	0	517	408	
15	0	0	0	0	516	408	
0	0	0	0	0	517	405	
1	0	0	0	0	517	408	
2	0	0	0	0	516	408	
3	0	0	0	0	514	408	
4	0	0	0	0	511	411	
5	0	0	0	0	508	408	
6	0	0	0	0	507	408	
7	0	0	0	0	507	408	
8	0	0	0	0	508	405	
9	0	0	0	0	510	408	
10	0	0	0	0	512	408	
11	0	0	0	0	515	408	
12	0	0	0	0	517	411	
13	0	0	0	0	519	408	
14	0	0	0	0	521	408	
15	0	0	0	0	522	408	
0	0	0	0	0	523	404	
1	0	0	0	0	523	408	
2	0	0	0	0	522	408	
3	0	0	0	0	521	408	
4	0	0	0	0	520	411	
5	0	0	0	0	519	408	
6	0	0	0	0	516	407	
7	0	0	0	0	513	407	
8	0	0	0	0	509	404	
9	0	0	0	0	505	408	
10	0	0	0	0	503	408	
11	0	0	0	0	502	408	
12	0	0	0	0	503	411	
13	0	0	0	0	505	408	
14	0	0	0	0	508	408	
15	0	0	0	0	511	408	
0	0	0	0	0	513	404	
1	0	0	0	0	518	408	
2	0	0	0	0	520	408	
3	0	0	0	0	522	408	
4	0	0	0	0	524	410	
5	0	0	0	0	524	407	
6	0	0	0	0	524	408	
7	0	0	0	0	523	408	
8	0	0	0	0	521	403	
9	0	0	0	0	519	408	
10	0	0	0	0	516	408	
11	0	0	0	0	512	408	
12	0	0	0	0	508	411	
13	0	0	0	0	504	408	
14	0	0	0	0	502	408	
15	0	0	0	0	501	408	
0	0	0	0	0	502	404	
1	0	0	0	0	503	408	
2	0	0	0	0	506	408	
3	0	0	0	0	510	408	
4	0	0	0	0	515	411	
5	0	0	0	0	519	408	
6	0	0	0	0	522	407	
7	0	0	0	0	524	408	
8	0	0	0	0	524	404	
9	0	0	0	0	524	407	
10	0	0	0	0	523	408	
11	0	0	0	0	522	407	
12	0	0	0	0	522	410	
13	0	0	0	0	521	408	
14	0	0	0	0	519	407	
15	0	0	0	0	516	408	
0	0	0	0	0	513	404	
1	0	0	0	0	511	408	
2	0	0	0	0	510	408	
3	0	0	0	0	509	408	
4	0	0	0	0	509	410	
5	0	0	0	0	510	408	
6	0	0	0	0	512	407	
7	0	0	0	0	514	408	
8	0	0	0	0	517	404	
9	0	0	0	0	520	408	
10	0	0	0	0	522	408	
11	0	0	0	0	524	408	
12	0	0	0	0	524	411	
13	0	0	0	0	525	408	
14	0	0	0	0	525	408	
15	0	0	0	0	523	408	
0	0	0	0	0	522	404	
1	0	0	0	0	520	408	
2	0	0	0	0	518	408	
3	0	0	0	0	515	408	
4	0	0	0	0	511	411	
5	0	0	0	0	508	408	
6	0	0	0	0	506	408	
7	0	0	0	0	505	408	
8	0	0	0	0	506	404	
9	0	0	0	0	508	408	
10	0	0	0	0	510	408	
11	0	0	0	0	514	408	
12	0	0	0	0	517	411	
13	0	0	0	0	520	408	
14	0	0	0	0	523	408	
15	0	0	0	0	524	408	
0	0	0	0	0	525	405	
1	0	0	0	0	524	408	
2	0	0	0	0	523	408	
3	0	0	0	0	521	408	
4	0	0	0	0	519	411	
5	0	0	0	0	516	408	
6	0	0	0	0	514	408	
7	0	0	0	0	511	408	
8	0	0	0	0	507	404	
9	0	0	0	0	503	407	
10	0	0	0	0	500	407	
11	0	0	0	0	500	407	
12	0	0	0	0	500	410	
13	0	0	0	0	502	408	
14	0	0	0	0	504	407	
15	0	0	0	0	508	408	
0	0	0	0	0	511	404	
1	0	0	0	0	513	408	
2	0	0	0	0	515	408	
3	0	0	0	0	516	408	
4	0	0	0	0	517	411	
5	0	0	0	0	517	408	
6	0	0	0	0	517	408	
7	0	0	0	0	516	408	
8	0	0	0	0	515	406	
9	0	0	0	0	514	408	
10	0	0	0	0	512	408	
11	0	0	0	0	509	408	
12	0	0	0	0	507	410	
13	0	0	0	0	504	408	
14	0	0	0	0	502	408	
15	0	0	0	0	502	408	
0	0	0	0	0	501	404	
1	0	0	0	0	503	408	
2	0	0	0	0	506	408	
3	0	0	0	0	510	408	
4	0	0	0	0	513	411	
5	0	0	0	0	517	408	
6	0	0	0	0	520	408	
7	0	0	0	0	522	408	
8	0	0	0	0	523	404	
9	0	0	0	0	522	408	
10	0	0	0	0	521	408	
11	0	0	0	0	520	408	
12	0	0	0	0	518	411	
13	0	0	0	0	517	408	
14	0	0	0	0	515	408	
15	0	0	0	0	512	408	
0	0	0	0	0	510	404	
1	0	0	0	0	507	408	
2	0	0	0	0	505	408	
3	0	0	0	0	504	408	
4	0	0	0	0	505	411	
5	0	0	0	0	507	408	
6	0	0	0	0	510	409	
7	0	0	0	0	513	409	
8	0	0	0	0	516	405	
9	0	0	0	0	519	408	
10	0	0	0	0	521	409	
11	0	0	0	0	522	408	
12	0	0	0	0	523	411	
13	0	0	0	0	522	408	
14	0	0	0	0	521	408	
15	0	0	0	0	519	408	
0	0	0	0	0	518	405	
1	0	0	0	0	515	408	
2	0	0	0	0	513	408	
3	0	0	0	0	510	408	
4	0	0	0	0	506	411	
5	0	0	0	0	502	408	
6	0	0	0	0	500	408	
7	0	0	0	0	500	408	
8	0	0	0	0	500	405	
9	0	0	0	0	503	408	
10	0	0	0	0	507	407	
11	0	0	0	0	512	408	
12	0	0	0	0	516	410	
13	0	0	0	0	520	408	
14	0	0	0	0	523	407	
15	0	0	0	0	525	408	
0	0	0	0	0	527	404	
1	0	0	0	0	527	408	
2	0	0	0	0	527	408	
3	0	0	0	0	525	408	
4	0	0	0	0	524	411	
5	0	0	0	0	521	408	
6	0	0	0	0	519	408	
7	0	0	0	0	515	408	
8	0	0	0	0	512	404	
9	0	0	0	0	509	408	
10	0	0	0	0	506	408	
11	0	0	0	0	505	408	
12	0	0	0	0	507	411	
13	0	0	0	0	508	408	
14	0	0	0	0	511	408	
15	0	0	0	0	513	408	
0	0	0	0	0	516	404	
1	0	0	0	0	519	408	
2	0	0	0	0	522	408	
3	0	0	0	0	524	408	
4	0	0	0	0	524	410	
5	0	0	0	0	523	408	
6	0	0	0	0	521	408	
7	0	0	0	0	519	408	
8	0	0	0	0	518	405	
9	0	0	0	0	516	408	
10	0	0	0	0	514	408	
11	0	0	0	0	510	408	
12	0	0	0	0	507	411	
13	0	0	0	0	505	408	
14	0	0	0	0	503	408	
15	0	0	0	0	503	408	
0	0	0	0	0	503	405	
1	0	0	0	0	504	408	
2	0	0	0	0	506	408	
3	0	0	0	0	508	407	
4	0	0	0	0	510	411	
5	0	0	0	0	513	408	
6	0	0	0	0	515	408	
7	0	0	0	0	516	408	
8	0	0	0	0	517	405	
9	0	0	0	0	517	407	
10	0	0	0	0	516	408	
11	0	0	0	0	514	408	
12	0	0	0	0	513	411	
13	0	0	0	0	512	408	
14	0	0	0	0	510	408	
15	0	0	0	0	507	407	
0	0	0	0	0	505	404	
1	0	0	0	0	502	407	
2	0	0	0	0	501	408	
3	0	0	0	0	501	408	
4	0	0	0	0	501	410	
5	0	0	0	0	502	407	
6	0	0	0	0	506	407	
7	0	0	0	0	510	408	
8	0	0	0	0	513	403	
9	0	0	0	0	516	408	
10	0	0	0	0	519	408	
11	0	0	0	0	520	407	
12	0	0	0	0	521	411	
13	0	0	0	0	520	408	
14	0	0	0	0	518	408	
15	0	0	0	0	515	408	
0	0	0	0	0	512	404	
1	0	0	0	0	509	407	
2	0	0	0	0	504	408	
3	0	0	0	0	497	408	
4	0	0	0	0	491	411	
5	0	0	0	0	485	408	
6	0	0	0	0	481	407	
7	0	0	0	0	478	407	
8	0	0	0	0	477	404	
9	0	0	0	0	478	408	
10	0	0	0	0	482	407	
11	0	0	0	0	485	407	
12	0	0	0	0	490	410	
13	0	0	0	0	495	407	
14	0	0	0	0	501	407	
15	0	0	0	0	506	407	
0	0	0	0	0	511	403	
1	0	0	0	0	515	407	
2	0	0	0	0	519	407	
3	0	0	0	0	522	407	
4	0	0	0	0	526	410	
5	0	0	0	0	529	407	
6	0	0	0	0	532	407	
7	0	0	0	0	537	407	
8	0	0	0	0	542	403	
9	0	0	0	0	549	407	
10	0	0	0	0	556	408	
11	0	0	0	0	566	407	
12	0	0	0	0	577	409	
13	0	0	0	0	590	406	
14	0	0	0	0	605	407	
15	0	0	0	0	620	407	
0	0	0	0	0	637	403	
1	0	0	0	0	652	406	
2	0	0	0	0	664	406	
3	0	0	0	0	674	406	
4	0	0	0	0	684	409	
5	0	0	0	0	691	407	
6	0	0	0	0	696	407	
7	0	0	0	0	699	406	
8	0	0	0	0	701	403	
9	0	0	0	0	702	406	
10	0	0	0	0	702	407	
11	0	0	0	0	700	407	
12	0	0	0	0	696	409	
13	0	0	0	0	690	406	
14	0	0	0	0	684	406	
15	0	0	0	0	679	406	
0	0	0	0	0	676	403	
1	0	0	0	0	673	406	
2	0	0	0	0	670	407	
3	0	0	0	0	667	407	
4	0	0	0	0	664	409	
5	0	0	0	0	659	407	
6	0	0	0	0	653	406	
7	0	0	0	0	646	407	
8	0	0	0	0	639	403	
9	0	0	0	0	630	407	
10	0	0	0	0	620	407	
11	0	0	0	0	609	408	
12	0	0	0	0	599	411	
13	0	0	0	0	589	408	
14	0	0	0	0	579	408	
15	0	0	0	0	568	408	
0	0	0	0	0	557	405	
1	0	0	0	0	547	408	
2	0	0	0	0	539	408	
3	0	0	0	0	532	408	
4	0	0	0	0	526	411	
5	0	0	0	0	521	408	
6	0	0	0	0	517	408	
7	0	0	0	0	514	408	
8	0	0	0	0	512	405	
9	0	0	0	0	508	409	
10	0	0	0	0	505	408	
11	0	0	0	0	501	408	
12	0	0	0	0	496	411	
13	0	0	0	0	490	408	
14	0	0	0	0	485	409	
15	0	0	0	0	481	408	
0	0	0	0	0	476	405	
1	0	0	0	0	471	409	
2	0	0	0	0	467	409	
3	0	0	0	0	461	409	
4	0	0	0	0	455	412	
5	0	0	0	0	450	408	
6	0	0	0	0	447	408	
7	0	0	0	0	445	408	
8	0	0	0	0	444	404	
9	0	0	0	0	445	408	
10	0	0	0	0	447	408	
11	0	0	0	0	449	408	
12	0	0	0	0	452	411	
13	0	0	0	0	455	408	
14	0	0	0	0	456	408	
15	0	0	0	0	458	408	
0	0	0	0	0	459	404	
1	0	0	0	0	459	408	
2	0	0	0	0	457	408	
3	0	0	0	0	456	408	
4	0	0	0	0	455	411	
5	0	0	0	0	454	407	
6	0	0	0	0	452	408	
7	0	0	0	0	450	407	
8	0	0	0	0	447	404	
9	0	0	0	0	444	408	
10	0	0	0	0	443	408	
11	0	0	0	0	443	407	
12	0	0	0	0	444	410	
13	0	0	0	0	447	407	
14	0	0	0	0	450	407	
15	0	0	0	0	454	407	
0	0	0	0	0	457	404	
1	0	0	0	0	460	408	
2	0	0	0	0	462	408	
3	0	0	0	0	463	408	
4	0	0	0	0	464	411	
5	0	0	0	0	463	408	
6	0	0	0	0	463	408	
7	0	0	0	0	461	408	
8	0	0	0	0	460	403	
9	0	0	0	0	458	408	
10	0	0	0	0	457	408	
11	0	0	0	0	455	408	
12	0	0	0	0	452	411	
13	0	0	0	0	451	408	
14	0	0	0	0	450	408	
15	0	0	0	0	449	408	
0	0	0	0	0	450	405	
1	0	0	0	0	452	408	
2	0	0	0	0	455	408	
3	0	0	0	0	459	409	
4	0	0	0	0	463	412	
5	0	0	0	0	468	408	
6	0	0	0	0	471	409	
7	0	0	0	0	473	408	
8	0	0	0	0	475	405	
9	0	0	0	0	476	409	
10	0	0	0	0	476	408	
11	0	0	0	0	476	408	
12	0	0	0	0	475	411	
13	0	0	0	0	474	408	
14	0	0	0	0	473	408	
15	0	0	0	0	470	408	
0	0	0	0	0	467	404	
1	0	0	0	0	465	407	
2	0	0	0	0	464	408	
3	0	0	0	0	464	407	
4	0	0	0	0	464	411	
5	0	0	0	0	466	408	
6	0	0	0	0	470	408	
7	0	0	0	0	474	407	
8	0	0	0	0	477	405	
9	0	0	0	0	481	408	
10	0	0	0	0	483	408	
11	0	0	0	0	485	408	
12	0	0	0	0	486	410	
13	0	0	0	0	485	408	
14	0	0	0	0	484	407	
15	0	0	0	0	483	407	
0	0	0	0	0	480	404	
1	0	0	0	0	479	408	
2	0	0	0	0	477	407	
3	0	0	0	0	474	408	
4	0	0	0	0	471	411	
5	0	0	0	0	470	408	
6	0	0	0	0	468	407	
7	0	0	0	0	468	407	
8	0	0	0	0	469	403	
9	0	0	0	0	472	407	
10	0	0	0	0	475	407	
11	0	0	0	0	479	407	
12	0	0	0	0	482	410	
13	0	0	0	0	485	407	
14	0	0	0	0	487	407	
15	0	0	0	0	488	407	
0	0	0	0	0	489	404	
1	0	0	0	0	489	408	
2	0	0	0	0	489	407	
3	0	0	0	0	489	408	
4	0	0	0	0	488	409	
5	0	0	0	0	487	407	
6	0	0	0	0	486	408	
7	0	0	0	0	482	408	
8	0	0	0	0	478	404	
9	0	0	0	0	475	408	
10	0	0	0	0	473	408	
11	0	0	0	0	472	408	
12	0	0	0	0	473	411	
13	0	0	0	0	476	408	
14	0	0	0	0	479	408	
15	0	0	0	0	481	408	
0	0	0	0	0	483	405	
1	0	0	0	0	486	408	
2	0	0	0	0	489	408	
3	0	0	0	0	492	408	
4	0	0	0	0	494	411	
5	0	0	0	0	494	408	
6	0	0	0	0	494	408	
7	0	0	0	0	492	409	
8	0	0	0	0	491	405	
9	0	0	0	0	489	408	
10	0	0	0	0	489	408	
11	0	0	0	0	487	409	
12	0	0	0	0	486	411	
13	0	0	0	0	483	409	
14	0	0	0	0	483	409	
15	0	0	0	0	482	409	
0	0	0	0	0	484	405	
1	0	0	0	0	487	409	
2	0	0	0	0	490	408	
3	0	0	0	0	493	408	
4	0	0	0	0	497	411	
5	0	0	0	0	501	409	
6	0	0	0	0	504	409	
7	0	0	0	0	505	409	
8	0	0	0	0	505	406	
9	0	0	0	0	504	409	
10	0	0	0	0	502	409	
11	0	0	0	0	499	409	
12	0	0	0	0	497	412	
13	0	0	0	0	495	409	
14	0	0	0	0	492	409	
15	0	0	0	0	489	408	
0	0	0	0	0	486	405	
1	0	0	0	0	484	408	
2	0	0	0	0	483	408	
3	0	0	0	0	482	408	
4	0	0	0	0	483	411	
5	0	0	0	0	485	409	
6	0	0	0	0	487	408	
7	0	0	0	0	492	408	
8	0	0	0	0	495	404	
9	0	0	0	0	498	408	
10	0	0	0	0	501	408	
11	0	0	0	0	502	408	
12	0	0	0	0	503	411	
13	0	0	0	0	503	408	
14	0	0	0	0	503	408	
15	0	0	0	0	502	407	
0	0	0	0	0	501	405	
1	0	0	0	0	500	408	
2	0	0	0	0	499	408	
3	0	0	0	0	495	408	
4	0	0	0	0	492	411	
5	0	0	0	0	488	408	
6	0	0	0	0	486	408	
7	0	0	0	0	484	408	
8	0	0	0	0	484	404	
9	0	0	0	0	485	408	
10	0	0	0	0	488	408	
11	0	0	0	0	492	408	
12	0	0	0	0	495	410	
13	0	0	0	0	498	407	
14	0	0	0	0	501	408	
15	0	0	0	0	503	408	
0	0	0	0	0	503	403	
1	0	0	0	0	503	407	
2	0	0	0	0	502	407	
3	0	0	0	0	500	407	
4	0	0	0	0	499	409	
5	0	0	0	0	496	407	
6	0	0	0	0	495	407	
7	0	0	0	0	492	406	
8	0	0	0	0	489	403	
9	0	0	0	0	487	407	
10	0	0	0	0	486	407	
11	0	0	0	0	487	407	
12	0	0	0	0	488	410	
13	0	0	0	0	490	407	
14	0	0	0	0	493	407	
15	0	0	0	0	496	407	
0	0	0	0	0	499	403	
1	0	0	0	0	501	407	
2	0	0	0	0	503	407	
3	0	0	0	0	503	406	
4	0	0	0	0	503	410	
5	0	0	0	0	502	407	
6	0	0	0	0	501	407	
7	0	0	0	0	498	407	
8	0	0	0	0	496	403	
9	0	0	0	0	494	407	
10	0	0	0	0	492	407	
11	0	0	0	0	488	407	
12	0	0	0	0	485	409	
13	0	0	0	0	483	407	
14	0	0	0	0	481	407	
15	0	0	0	0	481	407	
0	0	0	0	0	481	404	
1	0	0	0	0	484	408	
2	0	0	0	0	487	407	
3	0	0	0	0	489	407	
4	0	0	0	0	493	410	
5	0	0	0	0	495	407	
6	0	0	0	0	497	408	
7	0	0	0	0	497	407	
8	0	0	0	0	497	404	
9	0	0	0	0	497	408	
10	0	0	0	0	496	408	
11	0	0	0	0	494	407	
12	0	0	0	0	492	411	
13	0	0	0	0	491	408	
14	0	0	0	0	490	408	
15	0	0	0	0	487	408	
0	0	0	0	0	485	404	
1	0	0	0	0	484	408	
2	0	0	0	0	486	408	
3	0	0	0	0	487	408	
4	0	0	0	0	490	411	
5	0	0	0	0	494	408	
6	0	0	0	0	497	408	
7	0	0	0	0	501	408	
8	0	0	0	0	504	404	
9	0	0	0	0	508	407	
10	0	0	0	0	511	407	
11	0	0	0	0	512	407	
12	0	0	0	0	514	409	
13	0	0	0	0	515	407	
14	0	0	0	0	515	407	
15	0	0	0	0	514	407	
0	0	0	0	0	512	403	
1	0	0	0	0	511	408	
2	0	0	0	0	509	407	
3	0	0	0	0	505	407	
4	0	0	0	0	501	410	
5	0	0	0	0	498	407	
6	0	0	0	0	497	407	
7	0	0	0	0	496	406	
8	0	0	0	0	498	403	
9	0	0	0	0	500	407	
10	0	0	0	0	504	407	
11	0	0	0	0	508	407	
12	0	0	0	0	512	410	
13	0	0	0	0	515	406	
14	0	0	0	0	519	406	
15	0	0	0	0	522	406	
0	0	0	0	0	524	403	
1	0	0	0	0	526	407	
2	0	0	0	0	527	407	
3	0	0	0	0	527	407	
4	0	0	0	0	527	409	
5	0	0	0	0	527	407	
6	0	0	0	0	525	407	
7	0	0	0	0	523	407	
8	0	0	0	0	520	403	
9	0	0	0	0	518	407	
10	0	0	0	0	518	407	
11	0	0	0	0	519	407	
12	0	0	0	0	520	410	
13	0	0	0	0	524	406	
14	0	0	0	0	527	407	
15	0	0	0	0	531	407	
0	0	0	0	0	534	403	
1	0	0	0	0	536	407	
2	0	0	0	0	538	407	
3	0	0	0	0	540	407	
4	0	0	0	0	540	409	
5	0	0	0	0	540	407	
6	0	0	0	0	540	407	
7	0	0	0	0	539	407	
8	0	0	0	0	537	404	
9	0	0	0	0	536	407	
10	0	0	0	0	533	407	
11	0	0	0	0	530	407	
12	0	0	0	0	527	410	
13	0	0	0	0	525	407	
14	0	0	0	0	524	407	
15	0	0	0	0	524	407	
0	0	0	0	0	525	403	
1	0	0	0	0	527	407	
2	0	0	0	0	530	408	
3	0	0	0	0	534	407	
4	0	0	0	0	538	410	
5	0	0	0	0	540	408	
6	0	0	0	0	543	408	
7	0	0	0	0	544	407	
8	0	0	0	0	545	404	
9	0	0	0	0	545	408	
10	0	0	0	0	544	408	
11	0	0	0	0	544	408	
12	0	0	0	0	543	410	
13	0	0	0	0	541	407	
14	0	0	0	0	538	407	
15	0	0	0	0	535	408	
0	0	0	0	0	531	404	
1	0	0	0	0	528	408	
2	0	0	0	0	527	408	
3	0	0	0	0	526	407	
4	0	0	0	0	527	410	
5	0	0	0	0	528	408	
6	0	0	0	0	531	407	
7	0	0	0	0	534	407	
8	0	0	0	0	536	404	
9	0	0	0	0	539	408	
10	0	0	0	0	540	408	
11	0	0	0	0	540	408	
12	0	0	0	0	540	412	
13	0	0	0	0	539	409	
14	0	0	0	0	537	408	
15	0	0	0	0	536	408	
0	0	0	0	0	534	406	
1	0	0	0	0	531	408	
2	0	0	0	0	529	409	
3	0	0	0	0	526	408	
4	0	0	0	0	521	411	
5	0	0	0	0	517	408	
6	0	0	0	0	515	408	
7	0	0	0	0	515	408	
8	0	0	0	0	516	405	
9	0	0	0	0	518	408	
10	0	0	0	0	520	408	
11	0	0	0	0	523	408	
12	0	0	0	0	526	411	
13	0	0	0	0	528	408	
14	0	0	0	0	529	408	
15	0	0	0	0	529	408	
0	0	0	0	0	530	405	
1	0	0	0	0	529	409	
2	0	0	0	0	529	409	
3	0	0	0	0	527	409	
4	0	0	0	0	527	412	
5	0	0	0	0	526	409	
6	0	0	0	0	524	408	
7	0	0	0	0	522	408	
8	0	0	0	0	518	405	
9	0	0	0	0	515	409	
10	0	0	0	0	513	409	
11	0	0	0	0	514	409	
12	0	0	0	0	514	411	
13	0	0	0	0	516	408	
14	0	0	0	0	520	408	
15	0	0	0	0	523	408	
0	0	0	0	0	525	405	
1	0	0	0	0	527	408	
2	0	0	0	0	528	408	
3	0	0	0	0	529	409	
4	0	0	0	0	530	411	
5	0	0	0	0	530	408	
6	0	0	0	0	529	408	
7	0	0	0	0	527	408	
8	0	0	0	0	526	406	
9	0	0	0	0	524	408	
10	0	0	0	0	522	408	
11	0	0	0	0	519	408	
12	0	0	0	0	515	411	
13	0	0	0	0	512	408	
14	0	0	0	0	510	408	
15	0	0	0	0	510	408	
0	0	0	0	0	510	404	
1	0	0	0	0	512	408	
2	0	0	0	0	515	408	
3	0	0	0	0	517	408	
4	0	0	0	0	520	412	
5	0	0	0	0	524	408	
6	0	0	0	0	526	408	
7	0	0	0	0	527	408	
8	0	0	0	0	527	404	
9	0	0	0	0	527	408	
10	0	0	0	0	527	408	
11	0	0	0	0	527	408	
12	0	0	0	0	527	411	
13	0	0	0	0	526	408	
14	0	0	0	0	523	409	
15	0	0	0	0	518	408	
0	0	0	0	0	513	405	
1	0	0	0	0	509	409	
2	0	0	0	0	505	409	
3	0	0	0	0	504	408	
4	0	0	0	0	504	412	
5	0	0	0	0	505	409	
6	0	0	0	0	508	408	
7	0	0	0	0	511	409	
8	0	0	0	0	515	405	
9	0	0	0	0	520	409	
10	0	0	0	0	524	409	
11	0	0	0	0	528	408	
12	0	0	0	0	528	411	
13	0	0	0	0	528	409	
14	0	0	0	0	526	409	
15	0	0	0	0	524	409	
0	0	0	0	0	522	405	
1	0	0	0	0	521	409	
2	0	0	0	0	519	409	
3	0	0	0	0	516	409	
4	0	0	0	0	512	412	
5	0	0	0	0	508	409	
6	0	0	0	0	506	409	
7	0	0	0	0	505	408	
8	0	0	0	0	506	405	
9	0	0	0	0	508	408	
10	0	0	0	0	510	409	
11	0	0	0	0	513	409	
12	0	0	0	0	517	411	
13	0	0	0	0	520	409	
14	0	0	0	0	523	408	
15	0	0	0	0	525	408	
0	0	0	0	0	526	406	
1	0	0	0	0	526	409	
2	0	0	0	0	525	408	
3	0	0	0	0	523	408	
4	0	0	0	0	522	411	
5	0	0	0	0	521	408	
6	0	0	0	0	519	408	
7	0	0	0	0	518	408	
8	0	0	0	0	513	404	
9	0	0	0	0	510	409	
10	0	0	0	0	508	408	
11	0	0	0	0	507	408	
12	0	0	0	0	507	411	
13	0	0	0	0	508	408	
14	0	0	0	0	509	408	
15	0	0	0	0	511	408	
0	0	0	0	0	513	404	
1	0	0	0	0	516	408	
2	0	0	0	0	519	408	
3	0	0	0	0	520	408	
4	0	0	0	0	521	411	
5	0	0	0	0	522	408	
6	0	0	0	0	521	408	
7	0	0	0	0	520	408	
8	0	0	0	0	518	404	
9	0	0	0	0	515	408	
10	0	0	0	0	513	408	
11	0	0	0	0	511	407	
12	0	0	0	0	508	410	
13	0	0	0	0	508	407	
14	0	0	0	0	508	408	
15	0	0	0	0	508	407	
0	0	0	0	0	510	404	
1	0	0	0	0	511	408	
2	0	0	0	0	514	408	
3	0	0	0	0	517	407	
4	0	0	0	0	521	410	
5	0	0	0	0	524	408	
6	0	0	0	0	526	408	
7	0	0	0	0	526	408	
8	0	0	0	0	525	404	
9	0	0	0	0	524	408	
10	0	0	0	0	522	407	
11	0	0	0	0	520	407	
12	0	0	0	0	518	411	
13	0	0	0	0	515	407	
14	0	0	0	0	513	407	
15	0	0	0	0	511	408	
0	0	0	0	0	508	405	
1	0	0	0	0	505	408	
2	0	0	0	0	504	408	
3	0	0	0	0	504	408	
4	0	0	0	0	505	411	
5	0	0	0	0	507	408	
6	0	0	0	0	509	408	
7	0	0	0	0	512	408	
8	0	0	0	0	515	405	
9	0	0	0	0	517	408	
10	0	0	0	0	520	408	
11	0	0	0	0	521	408	
12	0	0	0	0	520	411	
13	0	0	0	0	519	409	
14	0	0	0	0	517	408	
15	0	0	0	0	515	407	
0	0	0	0	0	513	404	
1	0	0	0	0	511	408	
2	0	0	0	0	509	408	
3	0	0	0	0	507	408	
4	0	0	0	0	504	411	
5	0	0	0	0	503	408	
6	0	0	0	0	502	407	
7	0	0	0	0	503	408	
8	0	0	0	0	505	403	
9	0	0	0	0	508	408	
10	0	0	0	0	511	407	
11	0	0	0	0	515	407	
12	0	0	0	0	518	410	
13	0	0	0	0	520	408	
14	0	0	0	0	522	407	
15	0	0	0	0	522	408	
0	0	0	0	0	522	404	
1	0	0	0	0	522	408	
2	0	0	0	0	522	408	
3	0	0	0	0	522	407	
4	0	0	0	0	521	410	
5	0	0	0	0	520	408	
6	0	0	0	0	518	407	
7	0	0	0	0	515	407	
8	0	0	0	0	511	404	
9	0	0	0	0	509	408	
10	0	0	0	0	508	407	
11	0	0	0	0	508	407	
12	0	0	0	0	509	410	
13	0	0	0	0	512	407	
14	0	0	0	0	516	407	
15	0	0	0	0	520	407	
0	0	0	0	0	524	403	
1	0	0	0	0	527	407	
2	0	0	0	0	530	407	
3	0	0	0	0	531	406	
4	0	0	0	0	531	410	
5	0	0	0	0	530	407	
6	0	0	0	0	528	407	
7	0	0	0	0	527	407	
8	0	0	0	0	524	403	
9	0	0	0	0	522	407	
10	0	0	0	0	519	408	
11	0	0	0	0	515	408	
12	0	0	0	0	512	410	
13	0	0	0	0	509	407	
14	0	0	0	0	508	408	
15	0	0	0	0	507	407	
0	0	0	0	0	509	404	
1	0	0	0	0	512	407	
2	0	0	0	0	515	407	
3	0	0	0	0	519	407	
4	0	0	0	0	523	410	
5	0	0	0	0	527	407	
6	0	0	0	0	528	408	
7	0	0	0	0	528	407	
8	0	0	0	0	527	404	
9	0	0	0	0	526	407	
10	0	0	0	0	524	408	
11	0	0	0	0	523	407	
12	0	0	0	0	523	410	
13	0	0	0	0	521	408	
14	0	0	0	0	520	407	
15	0	0	0	0	517	408	
0	0	0	0	0	515	404	
1	0	0	0	0	513	408	
2	0	0	0	0	511	408	
3	0	0	0	0	511	408	
4	0	0	0	0	511	410	
5	0	0	0	0	513	407	
6	0	0	0	0	516	407	
7	0	0	0	0	519	408	
8	0	0	0	0	522	403	
9	0	0	0	0	524	407	
10	0	0	0	0	525	408	
11	0	0	0	0	524	407	
12	0	0	0	0	524	410	
13	0	0	0	0	523	407	
14	0	0	0	0	521	407	
15	0	0	0	0	519	407	
0	0	0	0	0	518	403	
1	0	0	0	0	516	407	
2	0	0	0	0	515	406	
3	0	0	0	0	513	406	
4	0	0	0	0	511	409	
5	0	0	0	0	509	407	
6	0	0	0	0	508	407	
7	0	0	0	0	509	406	
8	0	0	0	0	509	403	
9	0	0	0	0	510	407	
10	0	0	0	0	512	406	
11	0	0	0	0	515	406	
12	0	0	0	0	518	409	
13	0	0	0	0	521	406	
14	0	0	0	0	524	406	
15	0	0	0	0	525	406	
0	0	0	0	0	526	403	
1	0	0	0	0	526	407	
2	0	0	0	0	524	407	
3	0	0	0	0	524	406	
4	0	0	0	0	523	409	
5	0	0	0	0	521	407	
6	0	0	0	0	519	407	
7	0	0	0	0	515	407	
8	0	0	0	0	510	403	
9	0	0	0	0	506	407	
10	0	0	0	0	504	407	
11	0	0	0	0	502	408	
12	0	0	0	0	503	411	
13	0	0	0	0	504	408	
14	0	0	0	0	507	408	
15	0	0	0	0	510	407	
0	0	0	0	0	512	404	
1	0	0	0	0	516	407	
2	0	0	0	0	519	407	
3	0	0	0	0	521	407	
4	0	0	0	0	521	410	
5	0	0	0	0	522	407	
6	0	0	0	0	520	407	
7	0	0	0	0	518	407	
8	0	0	0	0	516	403	
9	0	0	0	0	514	406	
10	0	0	0	0	512	407	
11	0	0	0	0	509	407	
12	0	0	0	0	506	409	
13	0	0	0	0	503	407	
14	0	0	0	0	501	406	
15	0	0	0	0	501	406	
0	0	0	0	0	502	403	
1	0	0	0	0	504	406	
2	0	0	0	0	507	407	
3	0	0	0	0	510	407	
4	0	0	0	0	512	409	
5	0	0	0	0	515	407	
6	0	0	0	0	517	407	
7	0	0	0	0	518	407	
8	0	0	0	0	519	403	
9	0	0	0	0	519	407	
10	0	0	0	0	519	407	
11	0	0	0	0	518	407	
12	0	0	0	0	518	411	
13	0	0	0	0	516	408	
14	0	0	0	0	515	408	
15	0	0	0	0	512	408	
0	0	0	0	0	510	404	
1	0	0	0	0	507	408	
2	0	0	0	0	506	408	
3	0	0	0	0	505	408	
4	0	0	0	0	506	411	
5	0	0	0	0	508	408	
6	0	0	0	0	511	408	
7	0	0	0	0	514	408	
8	0	0	0	0	518	405	
9	0	0	0	0	521	408	
10	0	0	0	0	524	408	
11	0	0	0	0	524	408	
12	0	0	0	0	524	411	
13	0	0	0	0	523	408	
14	0	0	0	0	521	408	
15	0	0	0	0	518	408	
0	0	0	0	0	516	404	
1	0	0	0	0	513	408	
2	0	0	0	0	510	408	
3	0	0	0	0	505	408	
4	0	0	0	0	502	411	
5	0	0	0	0	499	408	
6	0	0	0	0	497	408	
7	0	0	0	0	496	408	
8	0	0	0	0	497	404	
9	0	0	0	0	499	408	
10	0	0	0	0	503	408	
11	0	0	0	0	506	408	
12	0	0	0	0	510	411	
13	0	0	0	0	513	408	
14	0	0	0	0	515	408	
15	0	0	0	0	517	408	
0	0	0	0	0	519	405	
1	0	0	0	0	518	408	
2	0	0	0	0	517	409	
3	0	0	0	0	515	408	
4	0	0	0	0	513	411	
5	0	0	0	0	512	408	
6	0	0	0	0	512	408	
7	0	0	0	0	509	409	
8	0	0	0	0	507	405	
9	0	0	0	0	504	408	
10	0	0	0	0	503	408	
11	0	0	0	0	503	408	
12	0	0	0	0	504	412	
13	0	0	0	0	505	408	
14	0	0	0	0	509	408	
15	0	0	0	0	513	408	
0	0	0	0	0	516	405	
1	0	0	0	0	520	408	
2	0	0	0	0	523	408	
3	0	0	0	0	524	408	
4	0	0	0	0	524	411	
5	0	0	0	0	524	409	
6	0	0	0	0	523	409	
7	0	0	0	0	521	409	
8	0	0	0	0	519	406	
9	0	0	0	0	516	409	
10	0	0	0	0	513	409	
11	0	0	0	0	509	409	
12	0	0	0	0	505	411	
13	0	0	0	0	502	409	
14	0	0	0	0	501	409	
15	0	0	0	0	501	409	
0	0	0	0	0	502	406	
1	0	0	0	0	505	409	
2	0	0	0	0	508	410	
3	0	0	0	0	512	409	
4	0	0	0	0	515	412	
5	0	0	0	0	517	409	
6	0	0	0	0	519	409	
7	0	0	0	0	519	409	
8	0	0	0	0	519	405	
9	0	0	0	0	519	409	
10	0	0	0	0	519	408	
11	0	0	0	0	518	409	
12	0	0	0	0	515	412	
13	0	0	0	0	514	409	
14	0	0	0	0	511	409	
15	0	0	0	0	508	409	
0	0	0	0	0	504	405	
1	0	0	0	0	502	409	
2	0	0	0	0	500	408	
3	0	0	0	0	500	408	
4	0	0	0	0	502	411	
5	0	0	0	0	504	408	
6	0	0	0	0	508	409	
7	0	0	0	0	511	409	
8	0	0	0	0	514	405	
9	0	0	0	0	517	409	
10	0	0	0	0	520	409	
11	0	0	0	0	522	408	
12	0	0	0	0	522	412	
13	0	0	0	0	523	409	
14	0	0	0	0	523	409	
15	0	0	0	0	522	408	
0	0	0	0	0	520	405	
1	0	0	0	0	519	409	
2	0	0	0	0	517	408	
3	0	0	0	0	513	409	
4	0	0	0	0	510	411	
5	0	0	0	0	507	408	
6	0	0	0	0	504	408	
7	0	0	0	0	504	408	
8	0	0	0	0	504	404	
9	0	0	0	0	507	408	
10	0	0	0	0	510	408	
11	0	0	0	0	514	408	
12	0	0	0	0	518	412	
13	0	0	0	0	520	408	
14	0	0	0	0	523	409	
15	0	0	0	0	524	409	
0	0	0	0	0	524	406	
1	0	0	0	0	523	409	
2	0	0	0	0	522	409	
3	0	0	0	0	521	409	
4	0	0	0	0	520	412	
5	0	0	0	0	519	408	
6	0	0	0	0	516	409	
7	0	0	0	0	513	409	
8	0	0	0	0	509	405	
9	0	0	0	0	506	409	
10	0	0	0	0	504	408	
11	0	0	0	0	502	408	
12	0	0	0	0	502	411	
13	0	0	0	0	503	408	
14	0	0	0	0	505	408	
15	0	0	0	0	509	408	
0	0	0	0	0	512	405	
1	0	0	0	0	514	408	
2	0	0	0	0	515	408	
3	0	0	0	0	516	408	
4	0	0	0	0	515	412	
5	0	0	0	0	515	410	
6	0	0	0	0	513	408	
7	0	0	0	0	512	409	
8	0	0	0	0	511	406	
9	0	0	0	0	509	408	
10	0	0	0	0	508	408	
11	0	0	0	0	506	409	
12	0	0	0	0	503	411	
13	0	0	0	0	500	408	
14	0	0	0	0	498	409	
15	0	0	0	0	498	409	
0	0	0	0	0	499	406	
1	0	0	0	0	501	409	
2	0	0	0	0	504	410	
3	0	0	0	0	507	409	
4	0	0	0	0	509	412	
5	0	0	0	0	512	410	
6	0	0	0	0	514	409	
7	0	0	0	0	515	409	
8	0	0	0	0	515	406	
9	0	0	0	0	515	409	
10	0	0	0	0	515	409	
11	0	0	0	0	514	409	
12	0	0	0	0	513	412	
13	0	0	0	0	512	409	
14	0	0	0	0	510	409	
15	0	0	0	0	508	408	
0	0	0	0	0	505	406	
1	0	0	0	0	502	409	
2	0	0	0	0	501	409	
3	0	0	0	0	501	409	
4	0	0	0	0	502	412	
5	0	0	0	0	504	408	
6	0	0	0	0	507	408	
7	0	0	0	0	510	409	
8	0	0	0	0	512	405	
9	0	0	0	0	514	408	
10	0	0	0	0	516	409	
11	0	0	0	0	517	409	
12	0	0	0	0	518	412	
13	0	0	0	0	517	409	
14	0	0	0	0	516	409	
15	0	0	0	0	514	408	
0	0	0	0	0	512	405	
1	0	0	0	0	510	409	
2	0	0	0	0	508	409	
3	0	0	0	0	505	408	
4	0	0	0	0	502	412	
5	0	0	0	0	500	408	
6	0	0	0	0	499	409	
7	0	0	0	0	499	409	
8	0	0	0	0	500	406	
9	0	0	0	0	502	409	
10	0	0	0	0	505	409	
11	0	0	0	0	508	409	
12	0	0	0	0	511	411	
13	0	0	0	0	515	409	
14	0	0	0	0	517	408	
15	0	0	0	0	519	408	
0	0	0	0	0	519	406	
1	0	0	0	0	518	408	
2	0	0	0	0	517	409	
3	0	0	0	0	515	409	
4	0	0	0	0	513	412	
5	0	0	0	0	512	409	
6	0	0	0	0	509	409	
7	0	0	0	0	505	408	
8	0	0	0	0	503	405	
9	0	0	0	0	500	409	
10	0	0	0	0	499	408	
11	0	0	0	0	499	408	
12	0	0	0	0	500	411	
13	0	0	0	0	503	408	
14	0	0	0	0	506	408	
15	0	0	0	0	510	408	
0	0	0	0	0	513	403	
1	0	0	0	0	516	407	
2	0	0	0	0	518	407	
3	0	0	0	0	518	408	
4	0	0	0	0	517	411	
5	0	0	0	0	515	408	
6	0	0	0	0	514	408	
7	0	0	0	0	512	407	
8	0	0	0	0	510	404	
9	0	0	0	0	508	407	
10	0	0	0	0	506	407	
11	0	0	0	0	503	407	
12	0	0	0	0	499	410	
13	0	0	0	0	497	408	
14	0	0	0	0	496	407	
15	0	0	0	0	495	407	
0	0	0	0	0	496	404	
1	0	0	0	0	498	408	
2	0	0	0	0	501	408	
3	0	0	0	0	504	407	
4	0	0	0	0	508	410	
5	0	0	0	0	511	408	
6	0	0	0	0	514	407	
7	0	0	0	0	515	408	
8	0	0	0	0	515	404	
9	0	0	0	0	514	407	
10	0	0	0	0	514	407	
11	0	0	0	0	513	407	
12	0	0	0	0	512	410	
13	0	0	0	0	510	408	
14	0	0	0	0	508	408	
15	0	0	0	0	506	407	
0	0	0	0	0	503	403	
1	0	0	0	0	500	407	
2	0	0	0	0	499	407	
3	0	0	0	0	499	407	
4	0	0	0	0	499	409	
5	0	0	0	0	502	407	
6	0	0	0	0	505	408	
7	0	0	0	0	508	408	
8	0	0	0	0	511	405	
9	0	0	0	0	514	408	
10	0	0	0	0	516	408	
11	0	0	0	0	517	408	
12	0	0	0	0	517	410	
13	0	0	0	0	516	407	
14	0	0	0	0	515	408	
15	0	0	0	0	513	408	
0	0	0	0	0	513	404	
1	0	0	0	0	511	407	
2	0	0	0	0	509	407	
3	0	0	0	0	505	407	
4	0	0	0	0	502	410	
5	0	0	0	0	499	407	
6	0	0	0	0	497	407	
7	0	0	0	0	497	407	
8	0	0	0	0	498	403	
9	0	0	0	0	499	407	
10	0	0	0	0	502	407	
11	0	0	0	0	504	408	
12	0	0	0	0	508	411	
13	0	0	0	0	512	408	
14	0	0	0	0	515	408	
15	0	0	0	0	516	407	
0	0	0	0	0	516	403	
1	0	0	0	0	516	406	
2	0	0	0	0	515	407	
3	0	0	0	0	513	406	
4	0	0	0	0	512	410	
5	0	0	0	0	511	407	
6	0	0	0	0	509	407	
7	0	0	0	0	507	407	
8	0	0	0	0	503	403	
9	0	0	0	0	501	407	
10	0	0	0	0	501	407	
11	0	0	0	0	500	407	
12	0	0	0	0	502	410	
13	0	0	0	0	504	406	
14	0	0	0	0	507	407	
15	0	0	0	0	509	407	
0	0	0	0	0	513	403	
1	0	0	0	0	516	407	
2	0	0	0	0	519	407	
3	0	0	0	0	521	407	
4	0	0	0	0	522	410	
5	0	0	0	0	522	408	
6	0	0	0	0	520	407	
7	0	0	0	0	519	407	
8	0	0	0	0	516	404	
9	0	0	0	0	514	407	
10	0	0	0	0	511	407	
11	0	0	0	0	507	407	
12	0	0	0	0	504	409	
13	0	0	0	0	501	407	
14	0	0	0	0	499	407	
15	0	0	0	0	498	407	
0	0	0	0	0	499	403	
1	0	0	0	0	501	407	
2	0	0	0	0	504	407	
3	0	0	0	0	506	406	
4	0	0	0	0	510	410	
5	0	0	0	0	513	407	
6	0	0	0	0	515	407	
7	0	0	0	0	517	407	
8	0	0	0	0	518	403	
9	0	0	0	0	519	407	
10	0	0	0	0	519	407	
11	0	0	0	0	517	407	
12	0	0	0	0	515	409	
13	0	0	0	0	513	407	
14	0	0	0	0	511	406	
15	0	0	0	0	508	406	
0	0	0	0	0	504	403	
1	0	0	0	0	502	407	
2	0	0	0	0	500	407	
3	0	0	0	0	499	407	
4	0	0	0	0	500	410	
5	0	0	0	0	501	407	
6	0	0	0	0	503	407	
7	0	0	0	0	506	407	
8	0	0	0	0	509	403	
9	0	0	0	0	512	407	
10	0	0	0	0	515	407	
11	0	0	0	0	516	408	
12	0	0	0	0	516	410	
13	0	0	0	0	515	407	
14	0	0	0	0	514	407	
15	0	0	0	0	512	407	
0	0	0	0	0	511	405	
1	0	0	0	0	508	407	
2	0	0	0	0	505	407	
3	0	0	0	0	502	407	
4	0	0	0	0	498	409	
5	0	0	0	0	496	408	
6	0	0	0	0	494	407	
7	0	0	0	0	494	408	
8	0	0	0	0	495	404	
9	0	0	0	0	498	407	
10	0	0	0	0	501	407	
11	0	0	0	0	504	407	
12	0	0	0	0	508	410	
13	0	0	0	0	510	407	
14	0	0	0	0	513	407	
15	0	0	0	0	514	407	
0	0	0	0	0	515	403	
1	0	0	0	0	515	407	
2	0	0	0	0	514	407	
3	0	0	0	0	513	407	
4	0	0	0	0	513	410	
5	0	0	0	0	512	407	
6	0	0	0	0	511	407	
7	0	0	0	0	508	407	
8	0	0	0	0	505	404	
9	0	0	0	0	503	408	
10	0	0	0	0	501	407	
11	0	0	0	0	501	407	
12	0	0	0	0	501	410	
13	0	0	0	0	502	407	
14	0	0	0	0	505	408	
15	0	0	0	0	507	407	
0	0	0	0	0	509	403	
1	0	0	0	0	510	408	
2	0	0	0	0	511	407	
3	0	0	0	0	510	407	
4	0	0	0	0	507	410	
5	0	0	0	0	503	407	
6	0	0	0	0	498	407	
7	0	0	0	0	493	407	
8	0	0	0	0	489	404	
9	0	0	0	0	484	408	
10	0	0	0	0	480	408	
11	0	0	0	0	476	409	
12	0	0	0	0	473	410	
13	0	0	0	0	472	408	
14	0	0	0	0	472	408	
15	0	0	0	0	472	408	
0	0	0	0	0	476	404	
1	0	0	0	0	481	408	
2	0	0	0	0	489	408	
3	0	0	0	0	497	408	
4	0	0	0	0	505	411	
5	0	0	0	0	512	408	
6	0	0	0	0	520	408	
7	0	0	0	0	527	408	
8	0	0	0	0	535	404	
9	0	0	0	0	543	408	
10	0	0	0	0	551	408	
11	0	0	0	0	559	408	
12	0	0	0	0	567	412	
13	0	0	0	0	575	408	
14	0	0	0	0	583	409	
15	0	0	0	0	591	408	
0	0	0	0	0	600	406	
1	0	0	0	0	608	408	
2	0	0	0	0	620	408	
3	0	0	0	0	631	408	
4	0	0	0	0	643	411	
5	0	0	0	0	655	408	
6	0	0	0	0	668	408	
7	0	0	0	0	678	408	
8	0	0	0	0	688	404	
9	0	0	0	0	695	408	
10	0	0	0	0	700	408	
11	0	0	0	0	703	408	
12	0	0	0	0	703	411	
13	0	0	0	0	702	408	
14	0	0	0	0	700	407	
15	0	0	0	0	696	408	
0	0	0	0	0	690	404	
1	0	0	0	0	682	408	
2	0	0	0	0	675	408	
3	0	0	0	0	667	408	
4	0	0	0	0	657	410	
5	0	0	0	0	648	408	
6	0	0	0	0	640	408	
7	0	0	0	0	633	408	
8	0	0	0	0	626	404	
9	0	0	0	0	621	408	
10	0	0	0	0	616	408	
11	0	0	0	0	612	408	
12	0	0	0	0	607	411	
13	0	0	0	0	601	408	
14	0	0	0	0	594	408	
15	0	0	0	0	587	408	
0	0	0	0	0	579	405	
1	0	0	0	0	572	409	
2	0	0	0	0	564	408	
3	0	0	0	0	557	408	
4	0	0	0	0	548	412	
5	0	0	0	0	540	408	
6	0	0	0	0	533	409	
7	0	0	0	0	523	408	
8	0	0	0	0	514	405	
9	0	0	0	0	504	408	
10	0	0	0	0	497	408	
11	0	0	0	0	492	408	
12	0	0	0	0	487	411	
13	0	0	0	0	484	408	
14	0	0	0	0	481	408	
15	0	0	0	0	480	408	
0	0	0	0	0	479	405	
1	0	0	0	0	478	409	
2	0	0	0	0	477	409	
3	0	0	0	0	476	408	
4	0	0	0	0	474	412	
5	0	0	0	0	472	409	
6	0	0	0	0	468	409	
7	0	0	0	0	465	409	
8	0	0	0	0	461	406	
9	0	0	0	0	457	408	
10	0	0	0	0	454	409	
11	0	0	0	0	449	408	
12	0	0	0	0	445	411	
13	0	0	0	0	441	408	
14	0	0	0	0	437	407	
15	0	0	0	0	435	408	
0	0	0	0	0	436	405	
1	0	0	0	0	438	408	
2	0	0	0	0	440	408	
3	0	0	0	0	444	408	
4	0	0	0	0	447	411	
5	0	0	0	0	451	408	
6	0	0	0	0	453	408	
7	0	0	0	0	454	408	
8	0	0	0	0	455	405	
9	0	0	0	0	455	407	
10	0	0	0	0	454	408	
11	0	0	0	0	453	408	
12	0	0	0	0	451	411	
13	0	0	0	0	450	408	
14	0	0	0	0	449	408	
15	0	0	0	0	446	407	
0	0	0	0	0	443	404	
1	0	0	0	0	441	408	
2	0	0	0	0	440	407	
3	0	0	0	0	439	407	
4	0	0	0	0	440	410	
5	0	0	0	0	442	407	
6	0	0	0	0	445	407	
7	0	0	0	0	449	407	
8	0	0	0	0	452	403	
9	0	0	0	0	455	408	
10	0	0	0	0	456	407	
11	0	0	0	0	458	407	
12	0	0	0	0	459	410	
13	0	0	0	0	459	408	
14	0	0	0	0	458	407	
15	0	0	0	0	457	408	
0	0	0	0	0	455	404	
1	0	0	0	0	454	408	
2	0	0	0	0	452	408	
3	0	0	0	0	449	408	
4	0	0	0	0	446	411	
5	0	0	0	0	444	408	
6	0	0	0	0	443	408	
7	0	0	0	0	444	408	
8	0	0	0	0	445	404	
9	0	0	0	0	448	408	
10	0	0	0	0	452	408	
11	0	0	0	0	456	408	
12	0	0	0	0	461	411	
13	0	0	0	0	465	408	
14	0	0	0	0	468	408	
15	0	0	0	0	470	408	
0	0	0	0	0	470	405	
1	0	0	0	0	470	408	
2	0	0	0	0	468	408	
3	0	0	0	0	466	408	
4	0	0	0	0	463	411	
5	0	0	0	0	460	409	
6	0	0	0	0	457	409	
7	0	0	0	0	454	408	
8	0	0	0	0	451	404	
9	0	0	0	0	451	408	
10	0	0	0	0	451	408	
11	0	0	0	0	452	408	
12	0	0	0	0	454	411	
13	0	0	0	0	457	408	
14	0	0	0	0	460	408	
15	0	0	0	0	463	408	
0	0	0	0	0	467	405	
1	0	0	0	0	471	407	
2	0	0	0	0	473	408	
3	0	0	0	0	475	407	
4	0	0	0	0	476	410	
5	0	0	0	0	476	408	
6	0	0	0	0	476	407	
7	0	0	0	0	474	407	
8	0	0	0	0	472	403	
9	0	0	0	0	470	408	
10	0	0	0	0	468	407	
11	0	0	0	0	465	406	
12	0	0	0	0	463	409	
13	0	0	0	0	460	407	
14	0	0	0	0	459	407	
15	0	0	0	0	460	407	
0	0	0	0	0	460	403	
1	0	0	0	0	463	406	
2	0	0	0	0	466	406	
3	0	0	0	0	471	406	
4	0	0	0	0	474	409	
5	0	0	0	0	478	406	
6	0	0	0	0	480	406	
7	0	0	0	0	483	406	
8	0	0	0	0	484	403	
9	0	0	0	0	485	406	
10	0	0	0	0	485	407	
11	0	0	0	0	484	406	
12	0	0	0	0	482	410	
13	0	0	0	0	481	407	
14	0	0	0	0	478	407	
15	0	0	0	0	474	407	
0	0	0	0	0	470	404	
1	0	0	0	0	467	407	
2	0	0	0	0	466	407	
3	0	0	0	0	466	407	
4	0	0	0	0	467	410	
5	0	0	0	0	470	408	
6	0	0	0	0	473	408	
7	0	0	0	0	477	407	
8	0	0	0	0	480	405	
9	0	0	0	0	483	408	
10	0	0	0	0	484	408	
11	0	0	0	0	486	408	
12	0	0	0	0	487	411	
13	0	0	0	0	486	408	
14	0	0	0	0	486	408	
15	0	0	0	0	484	408	
0	0	0	0	0	483	405	
1	0	0	0	0	481	408	
2	0	0	0	0	479	408	
3	0	0	0	0	476	408	
4	0	0	0	0	473	411	
5	0	0	0	0	470	409	
6	0	0	0	0	470	408	
7	0	0	0	0	471	408	
8	0	0	0	0	472	404	
9	0	0	0	0	474	408	
10	0	0	0	0	476	408	
11	0	0	0	0	480	408	
12	0	0	0	0	483	411	
13	0	0	0	0	486	408	
14	0	0	0	0	489	408	
15	0	0	0	0	490	408	
0	0	0	0	0	490	404	
1	0	0	0	0	489	408	
2	0	0	0	0	488	408	
3	0	0	0	0	487	408	
4	0	0	0	0	485	411	
5	0	0	0	0	483	408	
6	0	0	0	0	481	408	
7	0	0	0	0	477	408	
8	0	0	0	0	473	404	
9	0	0	0	0	470	407	
10	0	0	0	0	469	408	
11	0	0	0	0	469	408	
12	0	0	0	0	470	410	
13	0	0	0	0	471	408	
14	0	0	0	0	473	408	
15	0	0	0	0	475	408	
0	0	0	0	0	478	404	
1	0	0	0	0	481	408	
2	0	0	0	0	484	407	
3	0	0	0	0	485	408	
4	0	0	0	0	486	411	
5	0	0	0	0	486	408	
6	0	0	0	0	485	408	
7	0	0	0	0	484	408	
8	0	0	0	0	483	404	
9	0	0	0	0	482	408	
10	0	0	0	0	481	408	
11	0	0	0	0	479	408	
12	0	0	0	0	477	410	
13	0	0	0	0	476	408	
14	0	0	0	0	474	408	
15	0	0	0	0	475	408	
0	0	0	0	0	476	404	
1	0	0	0	0	478	408	
2	0	0	0	0	482	408	
3	0	0	0	0	486	408	
4	0	0	0	0	489	410	
5	0	0	0	0	493	408	
6	0	0	0	0	495	408	
7	0	0	0	0	496	407	
8	0	0	0	0	496	404	
9	0	0	0	0	495	408	
10	0	0	0	0	494	407	
11	0	0	0	0	493	407	
12	0	0	0	0	491	411	
13	0	0	0	0	490	407	
14	0	0	0	0	488	408	
15	0	0	0	0	484	408	
0	0	0	0	0	480	404	
1	0	0	0	0	477	408	
2	0	0	0	0	475	408	
3	0	0	0	0	475	408	
4	0	0	0	0	475	410	
5	0	0	0	0	478	408	
6	0	0	0	0	481	408	
7	0	0	0	0	485	408	
8	0	0	0	0	488	404	
9	0	0	0	0	492	408	
10	0	0	0	0	494	407	
11	0	0	0	0	495	407	
12	0	0	0	0	494	411	
13	0	0	0	0	493	407	
14	0	0	0	0	492	407	
15	0	0	0	0	490	407	
0	0	0	0	0	487	404	
1	0	0	0	0	485	407	
2	0	0	0	0	482	408	
3	0	0	0	0	479	408	
4	0	0	0	0	476	410	
5	0	0	0	0	473	407	
6	0	0	0	0	472	408	
7	0	0	0	0	472	408	
8	0	0	0	0	473	404	
9	0	0	0	0	477	408	
10	0	0	0	0	481	408	
11	0	0	0	0	485	408	
12	0	0	0	0	490	411	
13	0	0	0	0	493	409	
14	0	0	0	0	496	408	
15	0	0	0	0	499	408	
0	0	0	0	0	500	404	
1	0	0	0	0	501	408	
2	0	0	0	0	501	407	
3	0	0	0	0	499	408	
4	0	0	0	0	498	410	
5	0	0	0	0	496	407	
6	0	0	0	0	495	408	
7	0	0	0	0	492	407	
8	0	0	0	0	489	404	
9	0	0	0	0	487	407	
10	0	0	0	0	486	407	
11	0	0	0	0	485	408	
12	0	0	0	0	486	410	
13	0	0	0	0	488	407	
14	0	0	0	0	491	407	
15	0	0	0	0	494	407	
0	0	0	0	0	497	404	
1	0	0	0	0	499	407	
2	0	0	0	0	501	407	
3	0	0	0	0	503	407	
4	0	0	0	0	503	410	
5	0	0	0	0	503	407	
6	0	0	0	0	503	407	
7	0	0	0	0	503	407	
8	0	0	0	0	502	404	
9	0	0	0	0	500	408	
10	0	0	0	0	499	407	
11	0	0	0	0	496	407	
12	0	0	0	0	494	409	
13	0	0	0	0	493	406	
14	0	0	0	0	493	407	
15	0	0	0	0	494	407	
0	0	0	0	0	497	404	
1	0	0	0	0	502	407	
2	0	0	0	0	505	407	
3	0	0	0	0	510	407	
4	0	0	0	0	514	409	
5	0	0	0	0	518	406	
6	0	0	0	0	521	407	
7	0	0	0	0	524	407	
8	0	0	0	0	525	403	
9	0	0	0	0	526	406	
10	0	0	0	0	526	407	
11	0	0	0	0	525	407	
12	0	0	0	0	525	410	
13	0	0	0	0	524	407	
14	0	0	0	0	522	407	
15	0	0	0	0	519	407	
0	0	0	0	0	516	403	
1	0	0	0	0	513	407	
2	0	0	0	0	512	407	
3	0	0	0	0	512	407	
4	0	0	0	0	512	410	
5	0	0	0	0	515	406	
6	0	0	0	0	518	406	
7	0	0	0	0	522	407	
8	0	0	0	0	526	403	
9	0	0	0	0	529	407	
10	0	0	0	0	531	407	
11	0	0	0	0	532	407	
12	0	0	0	0	533	409	
13	0	0	0	0	533	406	
14	0	0	0	0	532	407	
15	0	0	0	0	531	407	
0	0	0	0	0	529	403	
1	0	0	0	0	527	407	
2	0	0	0	0	524	407	
3	0	0	0	0	521	407	
4	0	0	0	0	519	410	
5	0	0	0	0	516	407	
6	0	0	0	0	516	407	
7	0	0	0	0	517	407	
8	0	0	0	0	518	404	
9	0	0	0	0	521	407	
10	0	0	0	0	525	408	
11	0	0	0	0	528	408	
12	0	0	0	0	532	410	
13	0	0	0	0	535	408	
14	0	0	0	0	537	408	
15	0	0	0	0	538	408	
0	0	0	0	0	538	404	
1	0	0	0	0	537	408	
2	0	0	0	0	536	408	
3	0	0	0	0	535	409	
4	0	0	0	0	534	411	
5	0	0	0	0	531	409	
6	0	0	0	0	528	409	
7	0	0	0	0	525	409	
8	0	0	0	0	520	406	
9	0	0	0	0	518	409	
10	0	0	0	0	516	409	
11	0	0	0	0	515	409	
12	0	0	0	0	515	412	
13	0	0	0	0	516	409	
14	0	0	0	0	519	409	
15	0	0	0	0	521	409	
0	0	0	0	0	524	406	
1	0	0	0	0	527	409	
2	0	0	0	0	529	409	
3	0	0	0	0	530	409	
4	0	0	0	0	530	412	
5	0	0	0	0	531	409	
6	0	0	0	0	531	409	
7	0	0	0	0	531	409	
8	0	0	0	0	529	404	
9	0	0	0	0	528	409	
10	0	0	0	0	526	408	
11	0	0	0	0	523	408	
12	0	0	0	0	520	412	
13	0	0	0	0	517	408	
14	0	0	0	0	514	408	
15	0	0	0	0	514	409	
0	0	0	0	0	513	405	
1	0	0	0	0	515	408	
2	0	0	0	0	517	408	
3	0	0	0	0	519	408	
4	0	0	0	0	523	411	
5	0	0	0	0	526	408	
6	0	0	0	0	529	408	
7	0	0	0	0	531	408	
8	0	0	0	0	532	404	
9	0	0	0	0	532	408	
10	0	0	0	0	532	408	
11	0	0	0	0	531	408	
12	0	0	0	0	529	411	
13	0	0	0	0	526	408	
14	0	0	0	0	524	408	
15	0	0	0	0	519	408	
0	0	0	0	0	515	404	
1	0	0	0	0	512	408	
2	0	0	0	0	511	408	
3	0	0	0	0	511	408	
4	0	0	0	0	511	411	
5	0	0	0	0	514	409	
6	0	0	0	0	516	408	
7	0	0	0	0	520	408	
8	0	0	0	0	523	406	
9	0	0	0	0	526	409	
10	0	0	0	0	528	408	
11	0	0	0	0	530	408	
12	0	0	0	0	531	411	
13	0	0	0	0	531	408	
14	0	0	0	0	531	408	
15	0	0	0	0	529	408	
0	0	0	0	0	528	405	
1	0	0	0	0	526	408	
2	0	0	0	0	524	408	
3	0	0	0	0	520	408	
4	0	0	0	0	516	411	
5	0	0	0	0	513	408	
6	0	0	0	0	511	408	
7	0	0	0	0	510	407	
8	0	0	0	0	510	404	
9	0	0	0	0	511	408	
10	0	0	0	0	513	408	
11	0	0	0	0	515	408	
12	0	0	0	0	518	411	
13	0	0	0	0	520	408	
14	0	0	0	0	522	407	
15	0	0	0	0	523	408	
0	0	0	0	0	523	403	
1	0	0	0	0	522	408	
2	0	0	0	0	521	408	
3	0	0	0	0	519	407	
4	0	0	0	0	516	411	
5	0	0	0	0	514	408	
6	0	0	0	0	511	408	
7	0	0	0	0	507	408	
8	0	0	0	0	504	404	
9	0	0	0	0	500	408	
10	0	0	0	0	499	408	
11	0	0	0	0	498	408	
12	0	0	0	0	500	410	
13	0	0	0	0	502	407	
14	0	0	0	0	504	407	
15	0	0	0	0	508	408	
0	0	0	0	0	512	404	
1	0	0	0	0	515	408	
2	0	0	0	0	516	408	
3	0	0	0	0	517	408	
4	0	0	0	0	517	411	
5	0	0	0	0	515	407	
6	0	0	0	0	515	408	
7	0	0	0	0	513	408	
8	0	0	0	0	511	405	
9	0	0	0	0	509	408	
10	0	0	0	0	506	408	
11	0	0	0	0	504	408	
12	0	0	0	0	500	410	
13	0	0	0	0	499	408	
14	0	0	0	0	498	408	
15	0	0	0	0	499	408	
0	0	0	0	0	501	404	
1	0	0	0	0	504	408	
2	0	0	0	0	508	408	
3	0	0	0	0	512	407	
4	0	0	0	0	515	411	
5	0	0	0	0	518	408	
6	0	0	0	0	520	408	
7	0	0	0	0	521	408	
8	0	0	0	0	520	404	
9	0	0	0	0	521	408	
10	0	0	0	0	519	408	
11	0	0	0	0	517	408	
12	0	0	0	0	515	411	
13	0	0	0	0	513	408	
14	0	0	0	0	512	408	
15	0	0	0	0	509	408	
0	0	0	0	0	506	405	
1	0	0	0	0	503	408	
2	0	0	0	0	501	408	
3	0	0	0	0	500	408	
4	0	0	0	0	501	411	
5	0	0	0	0	503	408	
6	0	0	0	0	506	408	
7	0	0	0	0	509	408	
8	0	0	0	0	512	404	
9	0	0	0	0	514	408	
10	0	0	0	0	517	408	
11	0	0	0	0	518	408	
12	0	0	0	0	519	411	
13	0	0	0	0	520	408	
14	0	0	0	0	519	408	
15	0	0	0	0	518	407	
0	0	0	0	0	517	404	
1	0	0	0	0	516	408	
2	0	0	0	0	514	408	
3	0	0	0	0	511	407	
4	0	0	0	0	508	410	
5	0	0	0	0	505	407	
6	0	0	0	0	504	407	
7	0	0	0	0	504	407	
8	0	0	0	0	504	403	
9	0	0	0	0	506	407	
10	0	0	0	0	509	407	
11	0	0	0	0	513	407	
12	0	0	0	0	516	410	
13	0	0	0	0	519	408	
14	0	0	0	0	522	407	
15	0	0	0	0	523	407	
0	0	0	0	0	523	404	
1	0	0	0	0	523	407	
2	0	0	0	0	522	408	
3	0	0	0	0	521	408	
4	0	0	0	0	519	411	
5	0	0	0	0	516	408	
6	0	0	0	0	514	407	
7	0	0	0	0	510	408	
8	0	0	0	0	506	404	
9	0	0	0	0	502	408	
10	0	0	0	0	501	408	
11	0	0	0	0	501	408	
12	0	0	0	0	502	411	
13	0	0	0	0	504	408	
14	0	0	0	0	507	408	
15	0	0	0	0	510	407	
0	0	0	0	0	512	404	
1	0	0	0	0	514	408	
2	0	0	0	0	516	407	
3	0	0	0	0	516	408	
4	0	0	0	0	516	410	
5	0	0	0	0	514	407	
6	0	0	0	0	513	407	
7	0	0	0	0	511	407	
8	0	0	0	0	510	403	
9	0	0	0	0	509	407	
10	0	0	0	0	507	408	
11	0	0	0	0	505	407	
12	0	0	0	0	502	410	
13	0	0	0	0	500	407	
14	0	0	0	0	499	407	
15	0	0	0	0	499	407	
0	0	0	0	0	500	403	
1	0	0	0	0	503	407	
2	0	0	0	0	506	408	
3	0	0	0	0	509	408	
4	0	0	0	0	512	410	
5	0	0	0	0	514	408	
6	0	0	0	0	517	408	
7	0	0	0	0	518	407	
8	0	0	0	0	519	404	
9	0	0	0	0	518	407	
10	0	0	0	0	517	407	
11	0	0	0	0	516	407	
12	0	0	0	0	515	410	
13	0	0	0	0	514	407	
14	0	0	0	0	512	408	
15	0	0	0	0	509	408	
0	0	0	0	0	506	403	
1	0	0	0	0	504	408	
2	0	0	0	0	503	407	
3	0	0	0	0	502	408	
4	0	0	0	0	503	411	
5	0	0	0	0	505	408	
6	0	0	0	0	508	408	
7	0	0	0	0	511	408	
8	0	0	0	0	512	405	
9	0	0	0	0	514	408	
10	0	0	0	0	516	407	
11	0	0	0	0	516	407	
12	0	0	0	0	515	409	
13	0	0	0	0	513	407	
14	0	0	0	0	512	406	
15	0	0	0	0	510	406	
0	0	0	0	0	507	403	
1	0	0	0	0	505	406	
2	0	0	0	0	503	406	
3	0	0	0	0	500	406	
4	0	0	0	0	497	410	
5	0	0	0	0	495	406	
6	0	0	0	0	494	407	
7	0	0	0	0	495	407	
8	0	0	0	0	498	403	
9	0	0	0	0	502	408	
10	0	0	0	0	507	408	
11	0	0	0	0	510	407	
12	0	0	0	0	513	410	
13	0	0	0	0	517	408	
14	0	0	0	0	519	408	
15	0	0	0	0	520	407	
0	0	0	0	0	520	404	
1	0	0	0	0	520	408	
2	0	0	0	0	521	408	
3	0	0	0	0	520	408	
4	0	0	0	0	518	411	
5	0	0	0	0	516	408	
6	0	0	0	0	514	408	
7	0	0	0	0	511	408	
8	0	0	0	0	508	405	
9	0	0	0	0	506	408	
10	0	0	0	0	505	408	
11	0	0	0	0	505	408	
12	0	0	0	0	506	411	
13	0	0	0	0	508	408	
14	0	0	0	0	512	408	
15	0	0	0	0	515	408	
0	0	0	0	0	519	405	
1	0	0	0	0	523	409	
2	0	0	0	0	525	408	
3	0	0	0	0	526	408	
4	0	0	0	0	526	411	
5	0	0	0	0	525	408	
6	0	0	0	0	524	408	
7	0	0	0	0	522	408	
8	0	0	0	0	520	406	
9	0	0	0	0	518	409	
10	0	0	0	0	515	409	
11	0	0	0	0	512	408	
12	0	0	0	0	509	411	
13	0	0	0	0	508	408	
14	0	0	0	0	506	408	
15	0	0	0	0	507	409	
0	0	0	0	0	508	405	
1	0	0	0	0	511	409	
2	0	0	0	0	513	408	
3	0	0	0	0	516	408	
4	0	0	0	0	519	411	
5	0	0	0	0	520	408	
6	0	0	0	0	522	408	
7	0	0	0	0	523	408	
8	0	0	0	0	523	405	
9	0	0	0	0	523	408	
10	0	0	0	0	523	408	
11	0	0	0	0	522	408	
12	0	0	0	0	521	411	
13	0	0	0	0	520	408	
14	0	0	0	0	519	408	
15	0	0	0	0	517	408	
0	0	0	0	0	513	405	
1	0	0	0	0	511	408	
2	0	0	0	0	510	408	
3	0	0	0	0	511	408	
4	0	0	0	0	511	411	
5	0	0	0	0	513	408	
6	0	0	0	0	515	408	
7	0	0	0	0	518	408	
8	0	0	0	0	521	405	
9	0	0	0	0	524	409	
10	0	0	0	0	527	408	
11	0	0	0	0	527	408	
12	0	0	0	0	527	412	
13	0	0	0	0	527	409	
14	0	0	0	0	527	409	
15	0	0	0	0	525	409	
0	0	0	0	0	524	406	
1	0	0	0	0	522	409	
2	0	0	0	0	519	409	
3	0	0	0	0	515	409	
4	0	0	0	0	512	411	
5	0	0	0	0	510	408	
6	0	0	0	0	509	408	
7	0	0	0	0	509	409	
8	0	0	0	0	510	404	
9	0	0	0	0	512	408	
10	0	0	0	0	515	408	
11	0	0	0	0	518	408	
12	0	0	0	0	521	411	
13	0	0	0	0	523	408	
14	0	0	0	0	524	408	
15	0	0	0	0	525	408	
0	0	0	0	0	525	404	
1	0	0	0	0	524	408	
2	0	0	0	0	524	408	
3	0	0	0	0	523	408	
4	0	0	0	0	522	411	
5	0	0	0	0	521	408	
6	0	0	0	0	519	408	
7	0	0	0	0	516	408	
8	0	0	0	0	513	405	
9	0	0	0	0	511	408	
10	0	0	0	0	510	408	
11	0	0	0	0	509	408	
12	0	0	0	0	509	412	
13	0	0	0	0	511	409	
14	0	0	0	0	513	409	
15	0	0	0	0	515	408	
0	0	0	0	0	518	405	
1	0	0	0	0	520	409	
2	0	0	0	0	523	409	
3	0	0	0	0	523	408	
4	0	0	0	0	523	412	
5	0	0	0	0	522	408	
6	0	0	0	0	521	409	
7	0	0	0	0	520	408	
8	0	0	0	0	518	405	
9	0	0	0	0	516	408	
10	0	0	0	0	514	408	
11	0	0	0	0	511	408	
12	0	0	0	0	507	411	
13	0	0	0	0	504	408	
14	0	0	0	0	502	408	
15	0	0	0	0	501	409	
0	0	0	0	0	500	406	
1	0	0	0	0	502	408	
2	0	0	0	0	504	408	
3	0	0	0	0	507	408	
4	0	0	0	0	511	411	
5	0	0	0	0	514	408	
6	0	0	0	0	516	408	
7	0	0	0	0	516	408	
8	0	0	0	0	516	404	
9	0	0	0	0	515	408	
10	0	0	0	0	514	408	
11	0	0	0	0	512	408	
12	0	0	0	0	510	411	
13	0	0	0	0	508	409	
14	0	0	0	0	504	408	
15	0	0	0	0	500	408	
0	0	0	0	0	497	405	
1	0	0	0	0	495	408	
2	0	0	0	0	495	408	
3	0	0	0	0	495	408	
4	0	0	0	0	497	411	
5	0	0	0	0	499	409	
6	0	0	0	0	503	408	
7	0	0	0	0	506	408	
8	0	0	0	0	509	405	
9	0	0	0	0	511	408	
10	0	0	0	0	513	408	
11	0	0	0	0	514	408	
12	0	0	0	0	514	411	
13	0	0	0	0	513	408	
14	0	0	0	0	512	408	
15	0	0	0	0	509	408	
0	0	0	0	0	507	404	
1	0	0	0	0	505	408	
2	0	0	0	0	503	408	
3	0	0	0	0	500	408	
4	0	0	0	0	498	411	
5	0	0	0	0	497	408	
6	0	0	0	0	497	408	
7	0	0	0	0	497	408	
8	0	0	0	0	498	404	
9	0	0	0	0	501	407	
10	0	0	0	0	504	407	
11	0	0	0	0	508	408	
12	0	0	0	0	512	410	
13	0	0	0	0	515	408	
14	0	0	0	0	517	408	
15	0	0	0	0	519	408	
0	0	0	0	0	519	404	
1	0	0	0	0	518	408	
2	0	0	0	0	517	407	
3	0	0	0	0	515	407	
4	0	0	0	0	514	410	
5	0	0	0	0	512	408	
6	0	0	0	0	511	408	
7	0	0	0	0	508	408	
8	0	0	0	0	503	404	
9	0	0	0	0	500	407	
10	0	0	0	0	498	408	
11	0	0	0	0	497	408	
12	0	0	0	0	498	411	
13	0	0	0	0	499	408	
14	0	0	0	0	502	408	
15	0	0	0	0	505	408	
0	0	0	0	0	509	404	
1	0	0	0	0	512	408	
2	0	0	0	0	514	408	
3	0	0	0	0	516	408	
4	0	0	0	0	517	411	
5	0	0	0	0	516	408	
6	0	0	0	0	515	408	
7	0	0	0	0	514	408	
8	0	0	0	0	513	405	
9	0	0	0	0	511	408	
10	0	0	0	0	509	408	
11	0	0	0	0	507	407	
12	0	0	0	0	502	411	
13	0	0	0	0	499	408	
14	0	0	0	0	498	407	
15	0	0	0	0	497	406	
0	0	0	0	0	497	404	
1	0	0	0	0	499	407	
2	0	0	0	0	502	407	
3	0	0	0	0	505	408	
4	0	0	0	0	508	410	
5	0	0	0	0	512	408	
6	0	0	0	0	514	407	
7	0	0	0	0	515	408	
8	0	0	0	0	515	404	
9	0	0	0	0	515	408	
10	0	0	0	0	515	408	
11	0	0	0	0	514	407	
12	0	0	0	0	513	410	
13	0	0	0	0	512	408	
14	0	0	0	0	511	407	
15	0	0	0	0	507	407	
0	0	0	0	0	504	404	
1	0	0	0	0	502	407	
2	0	0	0	0	501	408	
3	0	0	0	0	500	408	
4	0	0	0	0	501	411	
5	0	0	0	0	503	407	
6	0	0	0	0	505	408	
7	0	0	0	0	507	407	
8	0	0	0	0	510	404	
9	0	0	0	0	513	408	
10	0	0	0	0	515	407	
11	0	0	0	0	516	407	
12	0	0	0	0	516	410	
13	0	0	0	0	516	407	
14	0	0	0	0	515	407	
15	0	0	0	0	514	408	
0	0	0	0	0	512	404	
1	0	0	0	0	509	407	
2	0	0	0	0	507	408	
3	0	0	0	0	502	407	
4	0	0	0	0	497	410	
5	0	0	0	0	495	408	
6	0	0	0	0	493	407	
7	0	0	0	0	494	408	
8	0	0	0	0	496	405	
9	0	0	0	0	498	408	
10	0	0	0	0	501	408	
11	0	0	0	0	505	408	
12	0	0	0	0	509	410	
13	0	0	0	0	511	408	
14	0	0	0	0	512	407	
15	0	0	0	0	513	407	
0	0	0	0	0	513	404	
1	0	0	0	0	513	407	
2	0	0	0	0	512	407	
3	0	0	0	0	511	407	
4	0	0	0	0	510	409	
5	0	0	0	0	509	407	
6	0	0	0	0	507	407	
7	0	0	0	0	504	407	
8	0	0	0	0	501	403	
9	0	0	0	0	499	407	
10	0	0	0	0	499	407	
11	0	0	0	0	499	407	
12	0	0	0	0	500	410	
13	0	0	0	0	502	407	
14	0	0	0	0	504	407	
15	0	0	0	0	508	407	
0	0	0	0	0	512	403	
1	0	0	0	0	515	407	
2	0	0	0	0	517	407	
3	0	0	0	0	519	407	
4	0	0	0	0	519	409	
5	0	0	0	0	518	407	
6	0	0	0	0	518	407	
7	0	0	0	0	516	408	
8	0	0	0	0	514	404	
9	0	0	0	0	512	408	
10	0	0	0	0	510	408	
11	0	0	0	0	507	408	
12	0	0	0	0	503	411	
13	0	0	0	0	501	408	
14	0	0	0	0	499	408	
15	0	0	0	0	499	408	
0	0	0	0	0	500	405	
1	0	0	0	0	501	408	
2	0	0	0	0	503	408	
3	0	0	0	0	504	408	
4	0	0	0	0	505	411	
5	0	0	0	0	506	407	
6	0	0	0	0	504	408	
7	0	0	0	0	502	408	
8	0	0	0	0	499	405	
9	0	0	0	0	496	408	
10	0	0	0	0	492	408	
11	0	0	0	0	490	408	
12	0	0	0	0	487	411	
13	0	0	0	0	486	408	
14	0	0	0	0	484	407	
15	0	0	0	0	483	408	
0	0	0	0	0	481	404	
1	0	0	0	0	481	407	
2	0	0	0	0	483	408	
3	0	0	0	0	487	407	
4	0	0	0	0	493	410	
5	0	0	0	0	499	408	
6	0	0	0	0	507	408	
7	0	0	0	0	515	408	
8	0	0	0	0	522	404	
9	0	0	0	0	530	408	
10	0	0	0	0	537	408	
11	0	0	0	0	545	407	
12	0	0	0	0	553	411	
13	0	0	0	0	561	407	
14	0	0	0	0	570	408	
15	0	0	0	0	577	407	
0	0	0	0	0	585	403	
1	0	0	0	0	593	408	
2	0	0	0	0	601	407	
3	0	0	0	0	610	408	
4	0	0	0	0	618	411	
5	0	0	0	0	627	408	
6	0	0	0	0	637	408	
7	0	0	0	0	647	408	
8	0	0	0	0	658	404	
9	0	0	0	0	668	408	
10	0	0	0	0	678	408	
11	0	0	0	0	686	407	
12	0	0	0	0	694	411	
13	0	0	0	0	700	408	
14	0	0	0	0	704	407	
15	0	0	0	0	707	407	
0	0	0	0	0	707	403	
1	0	0	0	0	704	407	
2	0	0	0	0	700	407	
3	0	0	0	0	693	407	
4	0	0	0	0	687	410	
5	0	0	0	0	679	408	
6	0	0	0	0	670	407	
7	0	0	0	0	660	407	
8	0	0	0	0	650	404	
9	0	0	0	0	640	408	
10	0	0	0	0	632	407	
11	0	0	0	0	623	408	
12	0	0	0	0	616	410	
13	0	0	0	0	609	407	
14	0	0	0	0	602	408	
15	0	0	0	0	596	408	
0	0	0	0	0	591	405	
1	0	0	0	0	585	409	
2	0	0	0	0	579	409	
3	0	0	0	0	573	409	
4	0	0	0	0	567	411	
5	0	0	0	0	561	408	
6	0	0	0	0	553	409	
7	0	0	0	0	545	408	
8	0	0	0	0	538	406	
9	0	0	0	0	531	409	
10	0	0	0	0	522	408	
11	0	0	0	0	513	408	
12	0	0	0	0	504	411	
13	0	0	0	0	496	408	
14	0	0	0	0	490	408	
15	0	0	0	0	485	408	
0	0	0	0	0	481	405	
1	0	0	0	0	478	408	
2	0	0	0	0	476	408	
3	0	0	0	0	475	408	
4	0	0	0	0	474	411	
5	0	0	0	0	474	408	
6	0	0	0	0	473	408	
7	0	0	0	0	471	407	
8	0	0	0	0	469	404	
9	0	0	0	0	466	408	
10	0	0	0	0	463	408	
11	0	0	0	0	460	407	
12	0	0	0	0	458	410	
13	0	0	0	0	455	407	
14	0	0	0	0	451	408	
15	0	0	0	0	448	408	
0	0	0	0	0	444	405	
1	0	0	0	0	441	408	
2	0	0	0	0	440	408	
3	0	0	0	0	440	408	
4	0	0	0	0	440	411	
5	0	0	0	0	442	408	
6	0	0	0	0	446	408	
7	0	0	0	0	448	408	
8	0	0	0	0	451	404	
9	0	0	0	0	454	408	
10	0	0	0	0	456	408	
11	0	0	0	0	456	408	
12	0	0	0	0	457	411	
13	0	0	0	0	456	408	
14	0	0	0	0	455	408	
15	0	0	0	0	452	408	
0	0	0	0	0	451	405	
1	0	0	0	0	449	408	
2	0	0	0	0	448	408	
3	0	0	0	0	445	408	
4	0	0	0	0	441	411	
5	0	0	0	0	439	408	
6	0	0	0	0	439	409	
7	0	0	0	0	440	408	
8	0	0	0	0	442	405	
9	0	0	0	0	445	408	
10	0	0	0	0	448	408	
11	0	0	0	0	452	408	
12	0	0	0	0	455	411	
13	0	0	0	0	459	408	
14	0	0	0	0	461	408	
15	0	0	0	0	463	408	
0	0	0	0	0	464	405	
1	0	0	0	0	464	408	
2	0	0	0	0	464	408	
3	0	0	0	0	463	408	
4	0	0	0	0	463	411	
5	0	0	0	0	461	408	
6	0	0	0	0	459	407	
7	0	0	0	0	456	408	
8	0	0	0	0	454	404	
9	0	0	0	0	452	408	
10	0	0	0	0	451	408	
11	0	0	0	0	452	408	
12	0	0	0	0	454	410	
13	0	0	0	0	457	408	
14	0	0	0	0	461	408	
15	0	0	0	0	465	408	
0	0	0	0	0	468	403	
1	0	0	0	0	472	408	
2	0	0	0	0	474	408	
3	0	0	0	0	476	408	
4	0	0	0	0	476	411	
5	0	0	0	0	476	408	
6	0	0	0	0	476	408	
7	0	0	0	0	476	408	
8	0	0	0	0	475	404	
9	0	0	0	0	473	408	
10	0	0	0	0	471	408	
11	0	0	0	0	468	407	
12	0	0	0	0	466	410	
13	0	0	0	0	464	408	
14	0	0	0	0	464	408	
15	0	0	0	0	464	408	
0	0	0	0	0	465	404	
1	0	0	0	0	468	407	
2	0	0	0	0	472	408	
3	0	0	0	0	475	407	
4	0	0	0	0	479	410	
5	0	0	0	0	482	408	
6	0	0	0	0	483	408	
7	0	0	0	0	485	408	
8	0	0	0	0	485	404	
9	0	0	0	0	485	408	
10	0	0	0	0	484	408	
11	0	0	0	0	483	408	
12	0	0	0	0	482	411	
13	0	0	0	0	481	408	
14	0	0	0	0	480	408	
15	0	0	0	0	478	408	
0	0	0	0	0	475	404	
1	0	0	0	0	473	408	
2	0	0	0	0	474	408	
3	0	0	0	0	475	408	
4	0	0	0	0	476	411	
5	0	0	0	0	479	408	
6	0	0	0	0	483	408	
7	0	0	0	0	486	407	
8	0	0	0	0	489	404	
9	0	0	0	0	492	407	
10	0	0	0	0	494	407	
11	0	0	0	0	495	407	
12	0	0	0	0	495	409	
13	0	0	0	0	494	407	
14	0	0	0	0	493	408	
15	0	0	0	0	492	407	
0	0	0	0	0	491	403	
1	0	0	0	0	489	407	
2	0	0	0	0	487	407	
3	0	0	0	0	484	407	
4	0	0	0	0	481	410	
5	0	0	0	0	479	407	
6	0	0	0	0	479	408	
7	0	0	0	0	480	408	
8	0	0	0	0	481	405	
9	0	0	0	0	484	408	
10	0	0	0	0	488	408	
11	0	0	0	0	492	408	
12	0	0	0	0	496	411	
13	0	0	0	0	498	408	
14	0	0	0	0	501	408	
15	0	0	0	0	503	408	
0	0	0	0	0	503	404	
1	0	0	0	0	503	408	
2	0	0	0	0	502	408	
3	0	0	0	0	501	408	
4	0	0	0	0	498	411	
5	0	0	0	0	497	409	
6	0	0	0	0	495	408	
7	0	0	0	0	491	409	
8	0	0	0	0	488	405	
9	0	0	0	0	486	408	
10	0	0	0	0	485	408	
11	0	0	0	0	485	409	
12	0	0	0	0	486	412	
13	0	0	0	0	489	409	
14	0	0	0	0	492	408	
15	0	0	0	0	495	409	
0	0	0	0	0	498	405	
1	0	0	0	0	500	408	
2	0	0	0	0	502	409	
3	0	0	0	0	503	408	
4	0	0	0	0	502	411	
5	0	0	0	0	502	408	
6	0	0	0	0	500	408	
7	0	0	0	0	499	408	
8	0	0	0	0	496	405	
9	0	0	0	0	494	408	
10	0	0	0	0	490	408	
11	0	0	0	0	487	408	
12	0	0	0	0	484	411	
13	0	0	0	0	482	408	
14	0	0	0	0	481	408	
15	0	0	0	0	481	408	
0	0	0	0	0	483	405	
1	0	0	0	0	487	408	
2	0	0	0	0	490	408	
3	0	0	0	0	493	408	
4	0	0	0	0	496	410	
5	0	0	0	0	497	407	
6	0	0	0	0	499	408	
7	0	0	0	0	500	408	
8	0	0	0	0	500	404	
9	0	0	0	0	499	407	
10	0	0	0	0	498	408	
11	0	0	0	0	497	408	
12	0	0	0	0	495	410	
13	0	0	0	0	494	407	
14	0	0	0	0	491	408	
15	0	0	0	0	488	407	
0	0	0	0	0	485	404	
1	0	0	0	0	484	408	
2	0	0	0	0	483	408	
3	0	0	0	0	483	408	
4	0	0	0	0	484	411	
5	0	0	0	0	487	408	
6	0	0	0	0	490	408	
7	0	0	0	0	494	408	
8	0	0	0	0	498	404	
9	0	0	0	0	502	407	
10	0	0	0	0	504	407	
11	0	0	0	0	505	407	
12	0	0	0	0	504	410	
13	0	0	0	0	503	407	
14	0	0	0	0	502	407	
15	0	0	0	0	500	407	
0	0	0	0	0	497	404	
1	0	0	0	0	496	407	
2	0	0	0	0	493	407	
3	0	0	0	0	488	407	
4	0	0	0	0	484	410	
5	0	0	0	0	481	407	
6	0	0	0	0	479	407	
7	0	0	0	0	479	407	
8	0	0	0	0	479	403	
9	0	0	0	0	481	406	
10	0	0	0	0	485	407	
11	0	0	0	0	489	406	
12	0	0	0	0	493	410	
13	0	0	0	0	496	407	
14	0	0	0	0	499	408	
15	0	0	0	0	500	407	
0	0	0	0	0	500	404	
1	0	0	0	0	500	407	
2	0	0	0	0	498	407	
3	0	0	0	0	496	406	
4	0	0	0	0	494	409	
5	0	0	0	0	492	407	
6	0	0	0	0	489	407	
7	0	0	0	0	487	406	
8	0	0	0	0	485	403	
9	0	0	0	0	483	407	
10	0	0	0	0	482	407	
11	0	0	0	0	483	407	
12	0	0	0	0	484	410	
13	0	0	0	0	487	406	
14	0	0	0	0	491	407	
15	0	0	0	0	495	408	
0	0	0	0	0	499	404	
1	0	0	0	0	502	408	
2	0	0	0	0	504	407	
3	0	0	0	0	505	407	
4	0	0	0	0	505	410	
5	0	0	0	0	505	407	
6	0	0	0	0	505	407	
7	0	0	0	0	505	407	
8	0	0	0	0	504	404	
9	0	0	0	0	503	407	
10	0	0	0	0	500	407	
11	0	0	0	0	497	407	
12	0	0	0	0	495	411	
13	0	0	0	0	493	408	
14	0	0	0	0	493	407	
15	0	0	0	0	494	407	
0	0	0	0	0	495	405	
1	0	0	0	0	498	408	
2	0	0	0	0	502	408	
3	0	0	0	0	506	408	
4	0	0	0	0	510	411	
5	0	0	0	0	513	408	
6	0	0	0	0	515	408	
7	0	0	0	0	516	408	
8	0	0	0	0	516	405	
9	0	0	0	0	515	408	
10	0	0	0	0	513	407	
11	0	0	0	0	512	407	
12	0	0	0	0	509	410	
13	0	0	0	0	507	407	
14	0	0	0	0	505	408	
15	0	0	0	0	503	408	
0	0	0	0	0	501	404	
1	0	0	0	0	499	407	
2	0	0	0	0	500	407	
3	0	0	0	0	502	407	
4	0	0	0	0	504	410	
5	0	0	0	0	508	407	
6	0	0	0	0	512	408	
7	0	0	0	0	517	407	
8	0	0	0	0	521	403	
9	0	0	0	0	525	407	
10	0	0	0	0	528	408	
11	0	0	0	0	530	407	
12	0	0	0	0	532	411	
13	0	0	0	0	534	408	
14	0	0	0	0	534	408	
15	0	0	0	0	534	408	
0	0	0	0	0	534	404	
1	0	0	0	0	533	408	
2	0	0	0	0	532	408	
3	0	0	0	0	528	408	
4	0	0	0	0	526	411	
5	0	0	0	0	524	408	
6	0	0	0	0	523	408	
7	0	0	0	0	522	407	
8	0	0	0	0	523	404	
9	0	0	0	0	524	408	
10	0	0	0	0	527	407	
11	0	0	0	0	531	408	
12	0	0	0	0	536	411	
13	0	0	0	0	539	408	
14	0	0	0	0	541	408	
15	0	0	0	0	542	408	
0	0	0	0	0	542	404	
1	0	0	0	0	541	407	
2	0	0	0	0	540	407	
3	0	0	0	0	537	407	
4	0	0	0	0	535	409	
5	0	0	0	0	534	408	
6	0	0	0	0	531	407	
7	0	0	0	0	528	407	
8	0	0	0	0	526	404	
9	0	0	0	0	526	407	
10	0	0	0	0	526	408	
11	0	0	0	0	527	408	
12	0	0	0	0	528	411	
13	0	0	0	0	531	408	
14	0	0	0	0	534	408	
15	0	0	0	0	536	408	
0	0	0	0	0	540	405	
1	0	0	0	0	541	408	
2	0	0	0	0	543	408	
3	0	0	0	0	543	408	
4	0	0	0	0	542	411	
5	0	0	0	0	541	408	
6	0	0	0	0	540	408	
7	0	0	0	0	539	408	
8	0	0	0	0	537	405	
9	0	0	0	0	535	408	
10	0	0	0	0	533	408	
11	0	0	0	0	530	408	
12	0	0	0	0	527	410	
13	0	0	0	0	526	408	
14	0	0	0	0	524	408	
15	0	0	0	0	524	408	
0	0	0	0	0	525	404	
1	0	0	0	0	527	407	
2	0	0	0	0	529	407	
3	0	0	0	0	532	407	
4	0	0	0	0	536	411	
5	0	0	0	0	538	408	
6	0	0	0	0	539	407	
7	0	0	0	0	540	408	
8	0	0	0	0	540	404	
9	0	0	0	0	539	408	
10	0	0	0	0	537	407	
11	0	0	0	0	536	407	
12	0	0	0	0	534	411	
13	0	0	0	0	532	407	
14	0	0	0	0	530	408	
15	0	0	0	0	527	408	
0	0	0	0	0	524	404	
1	0	0	0	0	521	408	
2	0	0	0	0	519	408	
3	0	0	0	0	519	407	
4	0	0	0	0	520	410	
5	0	0	0	0	521	408	
6	0	0	0	0	525	408	
7	0	0	0	0	527	408	
8	0	0	0	0	530	405	
9	0	0	0	0	532	408	
10	0	0	0	0	535	408	
11	0	0	0	0	537	408	
12	0	0	0	0	537	411	
13	0	0	0	0	537	408	
14	0	0	0	0	537	409	
15	0	0	0	0	536	408	
0	0	0	0	0	533	405	
1	0	0	0	0	530	408	
2	0	0	0	0	528	408	
3	0	0	0	0	524	408	
4	0	0	0	0	520	411	
5	0	0	0	0	516	409	
6	0	0	0	0	514	408	
7	0	0	0	0	515	408	
8	0	0	0	0	516	405	
9	0	0	0	0	518	408	
10	0	0	0	0	521	409	
11	0	0	0	0	525	408	
12	0	0	0	0	528	411	
13	0	0	0	0	531	408	
14	0	0	0	0	533	408	
15	0	0	0	0	535	408	
0	0	0	0	0	536	405	
1	0	0	0	0	536	409	
2	0	0	0	0	535	408	
3	0	0	0	0	534	409	
4	0	0	0	0	533	412	
5	0	0	0	0	531	408	
6	0	0	0	0	527	408	
7	0	0	0	0	524	408	
8	0	0	0	0	520	405	
9	0	0	0	0	517	409	
10	0	0	0	0	516	408	
11	0	0	0	0	515	408	
12	0	0	0	0	516	411	
13	0	0	0	0	517	408	
14	0	0	0	0	519	408	
15	0	0	0	0	522	407	
0	0	0	0	0	524	404	
1	0	0	0	0	527	408	
2	0	0	0	0	529	408	
3	0	0	0	0	529	409	
4	0	0	0	0	530	411	
5	0	0	0	0	529	408	
6	0	0	0	0	529	408	
7	0	0	0	0	528	408	
8	0	0	0	0	527	404	
9	0	0	0	0	525	408	
10	0	0	0	0	523	408	
11	0	0	0	0	520	407	
12	0	0	0	0	516	410	
13	0	0	0	0	514	408	
14	0	0	0	0	513	407	
15	0	0	0	0	513	408	
0	0	0	0	0	514	403	
1	0	0	0	0	516	407	
2	0	0	0	0	519	408	
3	0	0	0	0	522	407	
4	0	0	0	0	526	410	
5	0	0	0	0	529	408	
6	0	0	0	0	531	408	
7	0	0	0	0	531	408	
8	0	0	0	0	531	404	
9	0	0	0	0	531	408	
10	0	0	0	0	530	408	
11	0	0	0	0	528	407	
12	0	0	0	0	527	411	
13	0	0	0	0	525	408	
14	0	0	0	0	522	408	
15	0	0	0	0	519	408	
0	0	0	0	0	515	404	
1	0	0	0	0	513	408	
2	0	0	0	0	512	408	
3	0	0	0	0	512	408	
4	0	0	0	0	513	411	
5	0	0	0	0	515	408	
6	0	0	0	0	519	408	
7	0	0	0	0	522	408	
8	0	0	0	0	525	405	
9	0	0	0	0	527	409	
10	0	0	0	0	528	408	
11	0	0	0	0	528	408	
12	0	0	0	0	528	412	
13	0	0	0	0	527	409	
14	0	0	0	0	526	408	
15	0	0	0	0	525	408	
0	0	0	0	0	523	405	
1	0	0	0	0	521	408	
2	0	0	0	0	519	408	
3	0	0	0	0	515	408	
4	0	0	0	0	512	411	
5	0	0	0	0	510	408	
6	0	0	0	0	509	408	
7	0	0	0	0	510	408	
8	0	0	0	0	512	405	
9	0	0	0	0	514	408	
10	0	0	0	0	517	408	
11	0	0	0	0	520	407	
12	0	0	0	0	524	410	
13	0	0	0	0	527	408	
14	0	0	0	0	528	408	
15	0	0	0	0	529	408	
0	0	0	0	0	528	404	
1	0	0	0	0	527	408	
2	0	0	0	0	526	408	
3	0	0	0	0	523	408	
4	0	0	0	0	521	411	
5	0	0	0	0	519	408	
6	0	0	0	0	516	407	
7	0	0	0	0	513	407	
8	0	0	0	0	510	404	
9	0	0	0	0	506	408	
10	0	0	0	0	505	407	
11	0	0	0	0	505	407	
12	0	0	0	0	508	410	
13	0	0	0	0	511	407	
14	0	0	0	0	514	408	
15	0	0	0	0	517	407	
0	0	0	0	0	520	404	
1	0	0	0	0	523	407	
2	0	0	0	0	525	407	
3	0	0	0	0	525	406	
4	0	0	0	0	526	409	
5	0	0	0	0	526	407	
6	0	0	0	0	525	407	
7	0	0	0	0	524	407	
8	0	0	0	0	522	403	
9	0	0	0	0	521	407	
10	0	0	0	0	519	407	
11	0	0	0	0	515	406	
12	0	0	0	0	511	409	
13	0	0	0	0	508	407	
14	0	0	0	0	507	407	
15	0	0	0	0	506	407	
0	0	0	0	0	507	403	
1	0	0	0	0	508	407	
2	0	0	0	0	511	408	
3	0	0	0	0	513	408	
4	0	0	0	0	517	411	
5	0	0	0	0	520	408	
6	0	0	0	0	522	408	
7	0	0	0	0	523	409	
8	0	0	0	0	522	405	
9	0	0	0	0	523	408	
10	0	0	0	0	522	409	
11	0	0	0	0	521	408	
12	0	0	0	0	518	411	
13	0	0	0	0	516	408	
14	0	0	0	0	513	408	
15	0	0	0	0	509	408	
0	0	0	0	0	505	406	
1	0	0	0	0	501	408	
2	0	0	0	0	499	408	
3	0	0	0	0	498	409	
4	0	0	0	0	497	412	
5	0	0	0	0	499	408	
6	0	0	0	0	501	408	
7	0	0	0	0	505	408	
8	0	0	0	0	509	405	
9	0	0	0	0	512	408	
10	0	0	0	0	515	408	
11	0	0	0	0	515	408	
12	0	0	0	0	515	410	
13	0	0	0	0	513	408	
14	0	0	0	0	512	408	
15	0	0	0	0	510	408	
0	0	0	0	0	509	404	
1	0	0	0	0	507	407	
2	0	0	0	0	504	407	
3	0	0	0	0	501	408	
4	0	0	0	0	498	410	
5	0	0	0	0	496	408	
6	0	0	0	0	496	408	
7	0	0	0	0	496	408	
8	0	0	0	0	498	404	
9	0	0	0	0	501	408	
10	0	0	0	0	504	408	
11	0	0	0	0	508	408	
12	0	0	0	0	512	411	
13	0	0	0	0	515	408	
14	0	0	0	0	518	408	
15	0	0	0	0	519	408	
0	0	0	0	0	519	404	
1	0	0	0	0	517	408	
2	0	0	0	0	516	407	
3	0	0	0	0	514	408	
4	0	0	0	0	513	411	
5	0	0	0	0	512	408	
6	0	0	0	0	510	408	
7	0	0	0	0	507	408	
8	0	0	0	0	503	405	
9	0	0	0	0	501	408	
10	0	0	0	0	500	408	
11	0	0	0	0	501	409	
12	0	0	0	0	502	411	
13	0	0	0	0	505	408	
14	0	0	0	0	509	409	
15	0	0	0	0	514	409	
0	0	0	0	0	518	405	
1	0	0	0	0	521	408	
2	0	0	0	0	523	409	
3	0	0	0	0	524	409	
4	0	0	0	0	524	412	
5	0	0	0	0	524	409	
6	0	0	0	0	523	409	
7	0	0	0	0	521	409	
8	0	0	0	0	517	406	
9	0	0	0	0	514	409	
10	0	0	0	0	510	409	
11	0	0	0	0	505	409	
12	0	0	0	0	501	412	
13	0	0	0	0	499	409	
14	0	0	0	0	498	408	
15	0	0	0	0	500	409	
0	0	0	0	0	503	405	
1	0	0	0	0	506	408	
2	0	0	0	0	510	409	
3	0	0	0	0	514	408	
4	0	0	0	0	518	412	
5	0	0	0	0	521	409	
6	0	0	0	0	523	409	
7	0	0	0	0	524	409	
8	0	0	0	0	524	406	
9	0	0	0	0	523	408	
10	0	0	0	0	522	409	
11	0	0	0	0	521	408	
12	0	0	0	0	520	411	
13	0	0	0	0	519	408	
14	0	0	0	0	518	408	
15	0	0	0	0	515	408	
0	0	0	0	0	512	405	
1	0	0	0	0	511	408	
2	0	0	0	0	510	408	
3	0	0	0	0	511	408	
4	0	0	0	0	512	411	
5	0	0	0	0	514	408	
6	0	0	0	0	518	408	
7	0	0	0	0	521	409	
8	0	0	0	0	525	404	
9	0	0	0	0	527	408	
10	0	0	0	0	529	408	
11	0	0	0	0	530	408	
12	0	0	0	0	530	411	
13	0	0	0	0	529	408	
14	0	0	0	0	529	408	
15	0	0	0	0	528	408	
0	0	0	0	0	527	404	
1	0	0	0	0	525	408	
2	0	0	0	0	524	408	
3	0	0	0	0	519	407	
4	0	0	0	0	516	411	
5	0	0	0	0	514	408	
6	0	0	0	0	512	408	
7	0	0	0	0	512	407	
8	0	0	0	0	512	403	
9	0	0	0	0	514	408	
10	0	0	0	0	517	407	
11	0	0	0	0	520	407	
12	0	0	0	0	523	410	
13	0	0	0	0	524	407	
14	0	0	0	0	526	408	
15	0	0	0	0	526	407	
0	0	0	0	0	526	403	
1	0	0	0	0	524	408	
2	0	0	0	0	524	408	
3	0	0	0	0	522	407	
4	0	0	0	0	519	410	
5	0	0	0	0	518	407	
6	0	0	0	0	516	407	
7	0	0	0	0	513	407	
8	0	0	0	0	510	404	
9	0	0	0	0	508	408	
10	0	0	0	0	507	408	
11	0	0	0	0	506	407	
12	0	0	0	0	507	411	
13	0	0	0	0	509	408	
14	0	0	0	0	512	407	
15	0	0	0	0	516	408	
0	0	0	0	0	519	404	
1	0	0	0	0	523	408	
2	0	0	0	0	527	408	
3	0	0	0	0	527	407	
4	0	0	0	0	528	410	
5	0	0	0	0	529	407	
6	0	0	0	0	527	408	
7	0	0	0	0	526	407	
8	0	0	0	0	524	404	
9	0	0	0	0	523	407	
10	0	0	0	0	520	406	
11	0	0	0	0	516	407	
12	0	0	0	0	513	410	
13	0	0	0	0	511	408	
14	0	0	0	0	510	407	
15	0	0	0	0	511	407	
0	0	0	0	0	512	404	
1	0	0	0	0	515	407	
2	0	0	0	0	518	407	
3	0	0	0	0	520	407	
4	0	0	0	0	523	410	
5	0	0	0	0	525	407	
6	0	0	0	0	527	408	
7	0	0	0	0	527	408	
8	0	0	0	0	527	404	
9	0	0	0	0	526	408	
10	0	0	0	0	524	408	
11	0	0	0	0	522	407	
12	0	0	0	0	519	411	
13	0	0	0	0	516	408	
14	0	0	0	0	514	408	
15	0	0	0	0	511	408	
0	0	0	0	0	508	404	
1	0	0	0	0	505	408	
2	0	0	0	0	504	407	
3	0	0	0	0	504	408	
4	0	0	0	0	504	410	
5	0	0	0	0	506	407	
6	0	0	0	0	509	408	
7	0	0	0	0	511	407	
8	0	0	0	0	514	404	
9	0	0	0	0	516	408	
10	0	0	0	0	518	408	
11	0	0	0	0	518	408	
12	0	0	0	0	518	411	
13	0	0	0	0	517	408	
14	0	0	0	0	516	408	
15	0	0	0	0	514	408	
0	0	0	0	0	513	404	
1	0	0	0	0	511	408	
2	0	0	0	0	510	408	
3	0	0	0	0	507	408	
4	0	0	0	0	504	411	
5	0	0	0	0	503	407	
6	0	0	0	0	503	407	
7	0	0	0	0	505	408	
8	0	0	0	0	506	404	
9	0	0	0	0	508	408	
10	0	0	0	0	512	408	
11	0	0	0	0	515	408	
12	0	0	0	0	519	411	
13	0	0	0	0	523	408	
14	0	0	0	0	525	408	
15	0	0	0	0	527	408	
0	0	0	0	0	528	404	
1	0	0	0	0	528	408	
2	0	0	0	0	526	408	
3	0	0	0	0	524	409	
4	0	0	0	0	522	411	
5	0	0	0	0	520	409	
6	0	0	0	0	517	408	
7	0	0	0	0	513	408	
8	0	0	0	0	510	405	
9	0	0	0	0	508	408	
10	0	0	0	0	507	408	
11	0	0	0	0	508	408	
12	0	0	0	0	509	410	
13	0	0	0	0	511	408	
14	0	0	0	0	513	408	
15	0	0	0	0	516	408	
0	0	0	0	0	519	405	
1	0	0	0	0	522	408	
2	0	0	0	0	524	408	
3	0	0	0	0	524	408	
4	0	0	0	0	524	411	
5	0	0	0	0	524	408	
6	0	0	0	0	524	408	
7	0	0	0	0	523	408	
8	0	0	0	0	521	404	
9	0	0	0	0	519	408	
10	0	0	0	0	518	408	
11	0	0	0	0	514	408	
12	0	0	0	0	511	410	
13	0	0	0	0	509	408	
14	0	0	0	0	509	408	
15	0	0	0	0	510	408	
0	0	0	0	0	513	405	
1	0	0	0	0	516	408	
2	0	0	0	0	519	408	
3	0	0	0	0	522	408	
4	0	0	0	0	525	411	
5	0	0	0	0	527	409	
6	0	0	0	0	527	408	
7	0	0	0	0	527	408	
8	0	0	0	0	525	405	
9	0	0	0	0	523	408	
10	0	0	0	0	521	408	
11	0	0	0	0	519	408	
12	0	0	0	0	518	411	
13	0	0	0	0	517	408	
14	0	0	0	0	515	408	
15	0	0	0	0	513	407	
0	0	0	0	0	511	404	
1	0	0	0	0	509	408	
2	0	0	0	0	508	408	
3	0	0	0	0	508	408	
4	0	0	0	0	508	410	
5	0	0	0	0	511	407	
6	0	0	0	0	515	408	
7	0	0	0	0	518	408	
8	0	0	0	0	522	404	
9	0	0	0	0	525	408	
10	0	0	0	0	528	408	
11	0	0	0	0	529	408	
12	0	0	0	0	529	411	
13	0	0	0	0	529	408	
14	0	0	0	0	527	408	
15	0	0	0	0	526	408	
0	0	0	0	0	523	404	
1	0	0	0	0	521	408	
2	0	0	0	0	518	408	
3	0	0	0	0	513	408	
4	0	0	0	0	509	411	
5	0	0	0	0	507	408	
6	0	0	0	0	506	408	
7	0	0	0	0	507	408	
8	0	0	0	0	508	405	
9	0	0	0	0	511	408	
10	0	0	0	0	513	409	
11	0	0	0	0	515	409	
12	0	0	0	0	517	411	
13	0	0	0	0	519	408	
14	0	0	0	0	521	408	
15	0	0	0	0	521	408	
0	0	0	0	0	521	405	
1	0	0	0	0	520	408	
2	0	0	0	0	519	408	
3	0	0	0	0	518	408	
4	0	0	0	0	516	411	
5	0	0	0	0	515	408	
6	0	0	0	0	511	408	
7	0	0	0	0	507	408	
8	0	0	0	0	504	404	
9	0	0	0	0	503	408	
10	0	0	0	0	502	408	
11	0	0	0	0	503	408	
12	0	0	0	0	503	411	
13	0	0	0	0	505	408	
14	0	0	0	0	507	408	
15	0	0	0	0	510	408	
0	0	0	0	0	512	404	
1	0	0	0	0	515	408	
2	0	0	0	0	516	408	
3	0	0	0	0	516	408	
4	0	0	0	0	517	410	
5	0	0	0	0	518	407	
6	0	0	0	0	518	408	
7	0	0	0	0	516	408	
8	0	0	0	0	515	404	
9	0	0	0	0	515	408	
10	0	0	0	0	513	408	
11	0	0	0	0	510	408	
12	0	0	0	0	507	411	
13	0	0	0	0	504	408	
14	0	0	0	0	504	408	
15	0	0	0	0	504	408	
0	0	0	0	0	505	405	
1	0	0	0	0	509	408	
2	0	0	0	0	513	408	
3	0	0	0	0	517	408	
4	0	0	0	0	521	411	
5	0	0	0	0	524	408	
6	0	0	0	0	526	408	
7	0	0	0	0	527	408	
8	0	0	0	0	528	404	
9	0	0	0	0	528	408	
10	0	0	0	0	527	408	
11	0	0	0	0	526	408	
12	0	0	0	0	523	411	
13	0	0	0	0	520	408	
14	0	0	0	0	515	408	
15	0	0	0	0	510	408	
0	0	0	0	0	505	404	
1	0	0	0	0	501	408	
2	0	0	0	0	500	408	
3	0	0	0	0	501	407	
4	0	0	0	0	501	410	
5	0	0	0	0	503	408	
6	0	0	0	0	505	408	
7	0	0	0	0	508	407	
8	0	0	0	0	511	404	
9	0	0	0	0	513	408	
10	0	0	0	0	515	408	
11	0	0	0	0	516	408	
12	0	0	0	0	516	410	
13	0	0	0	0	517	408	
14	0	0	0	0	517	408	
15	0	0	0	0	517	408	
0	0	0	0	0	516	404	
1	0	0	0	0	516	408	
2	0	0	0	0	515	408	
3	0	0	0	0	511	408	
4	0	0	0	0	508	411	
5	0	0	0	0	505	408	
6	0	0	0	0	504	408	
7	0	0	0	0	504	408	
8	0	0	0	0	505	404	
9	0	0	0	0	508	407	
10	0	0	0	0	510	408	
11	0	0	0	0	512	407	
12	0	0	0	0	514	410	
13	0	0	0	0	516	407	
14	0	0	0	0	518	407	
15	0	0	0	0	518	407	
0	0	0	0	0	518	404	
1	0	0	0	0	518	408	
2	0	0	0	0	516	407	
3	0	0	0	0	515	407	
4	0	0	0	0	514	410	
5	0	0	0	0	513	407	
6	0	0	0	0	511	408	
7	0	0	0	0	508	408	
8	0	0	0	0	505	404	
9	0	0	0	0	502	408	
10	0	0	0	0	499	407	
11	0	0	0	0	499	407	
12	0	0	0	0	500	410	
13	0	0	0	0	504	408	
14	0	0	0	0	508	408	
15	0	0	0	0	512	408	
0	0	0	0	0	515	405	
1	0	0	0	0	519	408	
2	0	0	0	0	520	408	
3	0	0	0	0	521	407	
4	0	0	0	0	522	410	
5	0	0	0	0	522	407	
6	0	0	0	0	522	408	
7	0	0	0	0	520	408	
8	0	0	0	0	518	405	
9	0	0	0	0	517	408	
10	0	0	0	0	514	408	
11	0	0	0	0	510	409	
12	0	0	0	0	507	411	
13	0	0	0	0	504	408	
14	0	0	0	0	503	408	
15	0	0	0	0	503	408	
0	0	0	0	0	504	404	
1	0	0	0	0	506	407	
2	0	0	0	0	509	407	
3	0	0	0	0	512	407	
4	0	0	0	0	515	410	
5	0	0	0	0	518	407	
6	0	0	0	0	519	407	
7	0	0	0	0	520	407	
8	0	0	0	0	521	404	
9	0	0	0	0	521	407	
10	0	0	0	0	522	406	
11	0	0	0	0	522	407	
12	0	0	0	0	521	410	
13	0	0	0	0	520	407	
14	0	0	0	0	518	407	
15	0	0	0	0	514	408	
0	0	0	0	0	511	404	
1	0	0	0	0	509	407	
2	0	0	0	0	509	407	
3	0	0	0	0	510	407	
4	0	0	0	0	511	410	
5	0	0	0	0	513	408	
6	0	0	0	0	516	407	
7	0	0	0	0	519	407	
8	0	0	0	0	523	404	
9	0	0	0	0	526	408	
10	0	0	0	0	526	408	
11	0	0	0	0	526	408	
12	0	0	0	0	524	410	
13	0	0	0	0	519	408	
14	0	0	0	0	515	408	
15	0	0	0	0	510	408	
0	0	0	0	0	504	404	
1	0	0	0	0	498	408	
2	0	0	0	0	492	408	
3	0	0	0	0	485	408	
4	0	0	0	0	479	410	
5	0	0	0	0	476	408	
6	0	0	0	0	474	407	
7	0	0	0	0	475	408	
8	0	0	0	0	477	404	
9	0	0	0	0	481	408	
10	0	0	0	0	486	408	
11	0	0	0	0	494	408	
12	0	0	0	0	501	411	
13	0	0	0	0	508	407	
14	0	0	0	0	514	407	
15	0	0	0	0	519	408	
0	0	0	0	0	524	404	
1	0	0	0	0	528	407	
2	0	0	0	0	532	407	
3	0	0	0	0	537	407	
4	0	0	0	0	543	410	
5	0	0	0	0	551	407	
6	0	0	0	0	558	408	
7	0	0	0	0	565	408	
8	0	0	0	0	572	404	
9	0	0	0	0	580	408	
10	0	0	0	0	590	407	
11	0	0	0	0	600	408	
12	0	0	0	0	612	411	
13	0	0	0	0	625	408	
14	0	0	0	0	640	408	
15	0	0	0	0	654	408	
0	0	0	0	0	667	405	
1	0	0	0	0	677	408	
2	0	0	0	0	686	408	
3	0	0	0	0	691	408	
4	0	0	0	0	693	411	
5	0	0	0	0	694	408	
6	0	0	0	0	691	409	
7	0	0	0	0	688	409	
8	0	0	0	0	684	405	
9	0	0	0	0	677	409	
10	0	0	0	0	671	408	
11	0	0	0	0	663	409	
12	0	0	0	0	654	411	
13	0	0	0	0	647	408	
14	0	0	0	0	641	409	
15	0	0	0	0	634	409	
0	0	0	0	0	628	405	
1	0	0	0	0	624	408	
2	0	0	0	0	621	408	
3	0	0	0	0	618	409	
4	0	0	0	0	614	412	
5	0	0	0	0	608	409	
6	0	0	0	0	602	408	
7	0	0	0	0	595	408	
8	0	0	0	0	587	405	
9	0	0	0	0	578	408	
10	0	0	0	0	570	408	
11	0	0	0	0	562	408	
12	0	0	0	0	554	411	
13	0	0	0	0	547	408	
14	0	0	0	0	539	408	
15	0	0	0	0	528	408	
0	0	0	0	0	518	405	
1	0	0	0	0	509	408	
2	0	0	0	0	503	408	
3	0	0	0	0	497	408	
4	0	0	0	0	493	411	
5	0	0	0	0	491	409	
6	0	0	0	0	489	408	
7	0	0	0	0	487	408	
8	0	0	0	0	487	405	
9	0	0	0	0	485	408	
10	0	0	0	0	485	409	
11	0	0	0	0	483	408	
12	0	0	0	0	481	411	
13	0	0	0	0	479	409	
14	0	0	0	0	476	408	
15	0	0	0	0	473	408	
0	0	0	0	0	470	405	
1	0	0	0	0	465	408	
2	0	0	0	0	462	408	
3	0	0	0	0	458	408	
4	0	0	0	0	454	411	
5	0	0	0	0	451	408	
6	0	0	0	0	449	408	
7	0	0	0	0	450	408	
8	0	0	0	0	451	404	
9	0	0	0	0	454	408	
10	0	0	0	0	456	408	
11	0	0	0	0	460	408	
12	0	0	0	0	464	411	
13	0	0	0	0	468	408	
14	0	0	0	0	470	408	
15	0	0	0	0	471	408	
0	0	0	0	0	472	405	
1	0	0	0	0	472	408	
2	0	0	0	0	471	408	
3	0	0	0	0	469	408	
4	0	0	0	0	467	412	
5	0	0	0	0	466	408	
6	0	0	0	0	463	409	
7	0	0	0	0	459	408	
8	0	0	0	0	455	404	
9	0	0	0	0	452	409	
10	0	0	0	0	451	409	
11	0	0	0	0	451	408	
12	0	0	0	0	453	412	
13	0	0	0	0	456	409	
14	0	0	0	0	460	409	
15	0	0	0	0	464	409	
0	0	0	0	0	468	405	
1	0	0	0	0	472	409	
2	0	0	0	0	475	408	
3	0	0	0	0	476	408	
4	0	0	0	0	477	411	
5	0	0	0	0	478	408	
6	0	0	0	0	478	408	
7	0	0	0	0	477	408	
8	0	0	0	0	476	405	
9	0	0	0	0	474	408	
10	0	0	0	0	472	408	
11	0	0	0	0	469	408	
12	0	0	0	0	465	411	
13	0	0	0	0	463	408	
14	0	0	0	0	462	408	
15	0	0	0	0	463	408	
0	0	0	0	0	464	405	
1	0	0	0	0	467	408	
2	0	0	0	0	471	408	
3	0	0	0	0	474	408	
4	0	0	0	0	478	412	
5	0	0	0	0	481	408	
6	0	0	0	0	483	408	
7	0	0	0	0	484	409	
8	0	0	0	0	485	405	
9	0	0	0	0	485	408	
10	0	0	0	0	485	409	
11	0	0	0	0	483	408	
12	0	0	0	0	483	412	
13	0	0	0	0	482	409	
14	0	0	0	0	480	409	
15	0	0	0	0	477	408	
0	0	0	0	0	475	405	
1	0	0	0	0	472	409	
2	0	0	0	0	472	409	
3	0	0	0	0	472	409	
4	0	0	0	0	475	412	
5	0	0	0	0	478	409	
6	0	0	0	0	481	409	
7	0	0	0	0	484	409	
8	0	0	0	0	487	405	
9	0	0	0	0	490	409	
10	0	0	0	0	491	408	
11	0	0	0	0	491	408	
12	0	0	0	0	491	411	
13	0	0	0	0	491	408	
14	0	0	0	0	489	408	
15	0	0	0	0	489	408	
0	0	0	0	0	489	405	
1	0	0	0	0	488	409	
2	0	0	0	0	486	409	
3	0	0	0	0	483	408	
4	0	0	0	0	481	411	
5	0	0	0	0	479	409	
6	0	0	0	0	478	409	
7	0	0	0	0	477	409	
8	0	0	0	0	478	406	
9	0	0	0	0	479	408	
10	0	0	0	0	481	409	
11	0	0	0	0	484	409	
12	0	0	0	0	487	412	
13	0	0	0	0	490	409	
14	0	0	0	0	492	409	
15	0	0	0	0	493	409	
0	0	0	0	0	493	406	
1	0	0	0	0	494	409	
2	0	0	0	0	494	409	
3	0	0	0	0	492	409	
4	0	0	0	0	492	412	
5	0	0	0	0	490	409	
6	0	0	0	0	487	409	
7	0	0	0	0	484	410	
8	0	0	0	0	481	407	
9	0	0	0	0	479	410	
10	0	0	0	0	479	410	
11	0	0	0	0	479	409	
12	0	0	0	0	480	413	
13	0	0	0	0	483	409	
14	0	0	0	0	486	410	
15	0	0	0	0	489	409	
0	0	0	0	0	492	407	
1	0	0	0	0	495	409	
2	0	0	0	0	497	409	
3	0	0	0	0	499	409	
4	0	0	0	0	498	412	
5	0	0	0	0	498	410	
6	0	0	0	0	497	409	
7	0	0	0	0	496	409	
8	0	0	0	0	495	407	
9	0	0	0	0	494	409	
10	0	0	0	0	492	409	
11	0	0	0	0	488	410	
12	0	0	0	0	486	412	
13	0	0	0	0	484	409	
14	0	0	0	0	484	409	
15	0	0	0	0	484	409	
0	0	0	0	0	485	406	
1	0	0	0	0	488	409	
2	0	0	0	0	491	410	
3	0	0	0	0	494	409	
4	0	0	0	0	497	413	
5	0	0	0	0	499	410	
6	0	0	0	0	501	409	
7	0	0	0	0	502	409	
8	0	0	0	0	502	407	
9	0	0	0	0	501	411	
10	0	0	0	0	500	409	
11	0	0	0	0	499	409	
12	0	0	0	0	498	412	
13	0	0	0	0	497	409	
14	0	0	0	0	495	410	
15	0	0	0	0	492	410	
0	0	0	0	0	489	406	
1	0	0	0	0	487	410	
2	0	0	0	0	486	410	
3	0	0	0	0	486	409	
4	0	0	0	0	486	412	
5	0	0	0	0	488	409	
6	0	0	0	0	491	409	
7	0	0	0	0	494	409	
8	0	0	0	0	498	405	
9	0	0	0	0	501	409	
10	0	0	0	0	503	408	
11	0	0	0	0	504	408	
12	0	0	0	0	505	411	
13	0	0	0	0	505	408	
14	0	0	0	0	503	408	
15	0	0	0	0	501	408	
0	0	0	0	0	499	404	
1	0	0	0	0	498	408	
2	0	0	0	0	496	408	
3	0	0	0	0	494	408	
4	0	0	0	0	492	411	
5	0	0	0	0	490	408	
6	0	0	0	0	491	408	
7	0	0	0	0	491	408	
8	0	0	0	0	493	405	
9	0	0	0	0	495	408	
10	0	0	0	0	497	408	
11	0	0	0	0	500	408	
12	0	0	0	0	503	411	
13	0	0	0	0	505	408	
14	0	0	0	0	506	408	
15	0	0	0	0	507	408	
0	0	0	0	0	506	404	
1	0	0	0	0	505	408	
2	0	0	0	0	503	408	
3	0	0	0	0	501	408	
4	0	0	0	0	498	411	
5	0	0	0	0	496	408	
6	0	0	0	0	493	407	
7	0	0	0	0	490	408	
8	0	0	0	0	487	404	
9	0	0	0	0	485	408	
10	0	0	0	0	485	408	
11	0	0	0	0	486	408	
12	0	0	0	0	488	411	
13	0	0	0	0	492	408	
14	0	0	0	0	495	408	
15	0	0	0	0	499	407	
0	0	0	0	0	502	404	
1	0	0	0	0	505	407	
2	0	0	0	0	508	407	
3	0	0	0	0	508	408	
4	0	0	0	0	509	410	
5	0	0	0	0	508	407	
6	0	0	0	0	507	407	
7	0	0	0	0	505	407	
8	0	0	0	0	503	403	
9	0	0	0	0	502	407	
10	0	0	0	0	500	407	
11	0	0	0	0	496	407	
12	0	0	0	0	492	410	
13	0	0	0	0	490	407	
14	0	0	0	0	489	408	
15	0	0	0	0	489	407	
0	0	0	0	0	490	404	
1	0	0	0	0	492	407	
2	0	0	0	0	494	407	
3	0	0	0	0	496	407	
4	0	0	0	0	499	410	
5	0	0	0	0	502	408	
6	0	0	0	0	504	408	
7	0	0	0	0	504	408	
8	0	0	0	0	504	404	
9	0	0	0	0	503	407	
10	0	0	0	0	502	407	
11	0	0	0	0	501	407	
12	0	0	0	0	499	410	
13	0	0	0	0	497	407	
14	0	0	0	0	496	408	
15	0	0	0	0	493	407	
0	0	0	0	0	490	404	
1	0	0	0	0	487	408	
2	0	0	0	0	487	408	
3	0	0	0	0	487	408	
4	0	0	0	0	489	410	
5	0	0	0	0	492	407	
6	0	0	0	0	494	407	
7	0	0	0	0	498	407	
8	0	0	0	0	502	404	
9	0	0	0	0	505	407	
10	0	0	0	0	508	408	
11	0	0	0	0	509	407	
12	0	0	0	0	510	410	
13	0	0	0	0	509	408	
14	0	0	0	0	508	407	
15	0	0	0	0	507	408	
0	0	0	0	0	505	404	
1	0	0	0	0	503	407	
2	0	0	0	0	501	407	
3	0	0	0	0	499	407	
4	0	0	0	0	496	410	
5	0	0	0	0	495	407	
6	0	0	0	0	495	407	
7	0	0	0	0	496	407	
8	0	0	0	0	499	403	
9	0	0	0	0	503	407	
10	0	0	0	0	508	407	
11	0	0	0	0	511	407	
12	0	0	0	0	516	409	
13	0	0	0	0	520	407	
14	0	0	0	0	522	407	
15	0	0	0	0	522	407	
0	0	0	0	0	522	403	
1	0	0	0	0	522	407	
2	0	0	0	0	521	407	
3	0	0	0	0	520	407	
4	0	0	0	0	518	410	
5	0	0	0	0	516	407	
6	0	0	0	0	515	407	
7	0	0	0	0	512	408	
8	0	0	0	0	508	404	
9	0	0	0	0	507	407	
10	0	0	0	0	506	408	
11	0	0	0	0	506	407	
12	0	0	0	0	508	410	
13	0	0	0	0	511	407	
14	0	0	0	0	514	407	
15	0	0	0	0	518	407	
0	0	0	0	0	523	404	
1	0	0	0	0	526	408	
2	0	0	0	0	528	408	
3	0	0	0	0	529	407	
4	0	0	0	0	529	410	
5	0	0	0	0	530	407	
6	0	0	0	0	531	407	
7	0	0	0	0	530	408	
8	0	0	0	0	528	404	
9	0	0	0	0	527	407	
10	0	0	0	0	524	407	
11	0	0	0	0	521	407	
12	0	0	0	0	518	411	
13	0	0	0	0	516	407	
14	0	0	0	0	515	407	
15	0	0	0	0	516	408	
0	0	0	0	0	517	404	
1	0	0	0	0	519	408	
2	0	0	0	0	522	408	
3	0	0	0	0	525	407	
4	0	0	0	0	528	410	
5	0	0	0	0	531	407	
6	0	0	0	0	532	407	
7	0	0	0	0	533	407	
8	0	0	0	0	534	404	
9	0	0	0	0	533	408	
10	0	0	0	0	532	407	
11	0	0	0	0	531	407	
12	0	0	0	0	529	409	
13	0	0	0	0	527	407	
14	0	0	0	0	524	408	
15	0	0	0	0	520	407	
0	0	0	0	0	516	403	
1	0	0	0	0	514	407	
2	0	0	0	0	512	407	
3	0	0	0	0	512	407	
4	0	0	0	0	512	410	
5	0	0	0	0	514	407	
6	0	0	0	0	517	407	
7	0	0	0	0	519	408	
8	0	0	0	0	523	404	
9	0	0	0	0	526	407	
10	0	0	0	0	527	408	
11	0	0	0	0	528	407	
12	0	0	0	0	528	410	
13	0	0	0	0	528	408	
14	0	0	0	0	527	408	
15	0	0	0	0	525	407	
0	0	0	0	0	523	404	
1	0	0	0	0	521	408	
2	0	0	0	0	519	408	
3	0	0	0	0	514	408	
4	0	0	0	0	511	411	
5	0	0	0	0	508	408	
6	0	0	0	0	506	408	
7	0	0	0	0	505	408	
8	0	0	0	0	506	405	
9	0	0	0	0	507	408	
10	0	0	0	0	508	408	
11	0	0	0	0	511	408	
12	0	0	0	0	513	411	
13	0	0	0	0	516	408	
14	0	0	0	0	519	408	
15	0	0	0	0	520	408	
0	0	0	0	0	521	404	
1	0	0	0	0	522	408	
2	0	0	0	0	521	408	
3	0	0	0	0	519	408	
4	0	0	0	0	518	411	
5	0	0	0	0	518	408	
6	0	0	0	0	515	408	
7	0	0	0	0	513	408	
8	0	0	0	0	510	405	
9	0	0	0	0	508	408	
10	0	0	0	0	508	408	
11	0	0	0	0	508	408	
12	0	0	0	0	510	411	
13	0	0	0	0	512	409	
14	0	0	0	0	515	409	
15	0	0	0	0	519	408	
0	0	0	0	0	521	405	
1	0	0	0	0	524	408	
2	0	0	0	0	525	408	
3	0	0	0	0	526	408	
4	0	0	0	0	525	412	
5	0	0	0	0	526	408	
6	0	0	0	0	524	408	
7	0	0	0	0	523	408	
8	0	0	0	0	521	405	
9	0	0	0	0	520	408	
10	0	0	0	0	517	408	
11	0	0	0	0	514	407	
12	0	0	0	0	512	410	
13	0	0	0	0	511	408	
14	0	0	0	0	511	407	
15	0	0	0	0	511	408	
0	0	0	0	0	512	404	
1	0	0	0	0	514	407	
2	0	0	0	0	517	408	
3	0	0	0	0	521	407	
4	0	0	0	0	524	410	
5	0	0	0	0	527	407	
6	0	0	0	0	528	407	
7	0	0	0	0	528	407	
8	0	0	0	0	528	403	
9	0	0	0	0	528	407	
10	0	0	0	0	527	406	
11	0	0	0	0	526	407	
12	0	0	0	0	524	410	
13	0	0	0	0	521	408	
14	0	0	0	0	518	407	
15	0	0	0	0	513	408	
0	0	0	0	0	510	404	
1	0	0	0	0	508	408	
2	0	0	0	0	506	407	
3	0	0	0	0	506	407	
4	0	0	0	0	507	410	
5	0	0	0	0	509	407	
6	0	0	0	0	512	408	
7	0	0	0	0	515	408	
8	0	0	0	0	518	404	
9	0	0	0	0	520	408	
10	0	0	0	0	521	408	
11	0	0	0	0	522	408	
12	0	0	0	0	521	411	
13	0	0	0	0	520	408	
14	0	0	0	0	518	408	
15	0	0	0	0	516	408	
0	0	0	0	0	513	404	
1	0	0	0	0	511	408	
2	0	0	0	0	507	408	
3	0	0	0	0	504	408	
4	0	0	0	0	499	411	
5	0	0	0	0	497	408	
6	0	0	0	0	496	407	
7	0	0	0	0	496	408	
8	0	0	0	0	497	404	
9	0	0	0	0	499	408	
10	0	0	0	0	503	408	
11	0	0	0	0	506	408	
12	0	0	0	0	510	411	
13	0	0	0	0	512	408	
14	0	0	0	0	514	409	
15	0	0	0	0	515	408	
0	0	0	0	0	515	404	
1	0	0	0	0	515	408	
2	0	0	0	0	514	408	
3	0	0	0	0	512	409	
4	0	0	0	0	510	411	
5	0	0	0	0	508	408	
6	0	0	0	0	505	408	
7	0	0	0	0	501	408	
8	0	0	0	0	497	404	
9	0	0	0	0	495	409	
10	0	0	0	0	494	408	
11	0	0	0	0	495	408	
12	0	0	0	0	496	411	
13	0	0	0	0	498	408	
14	0	0	0	0	501	408	
15	0	0	0	0	505	408	
0	0	0	0	0	508	405	
1	0	0	0	0	512	408	
2	0	0	0	0	513	408	
3	0	0	0	0	513	408	
4	0	0	0	0	511	410	
5	0	0	0	0	509	408	
6	0	0	0	0	507	407	
7	0	0	0	0	504	407	
8	0	0	0	0	502	404	
9	0	0	0	0	500	407	
10	0	0	0	0	496	407	
11	0	0	0	0	492	407	
12	0	0	0	0	488	410	
13	0	0	0	0	487	407	
14	0	0	0	0	486	407	
15	0	0	0	0	487	408	
0	0	0	0	0	488	403	
1	0	0	0	0	491	407	
2	0	0	0	0	492	407	
3	0	0	0	0	495	407	
4	0	0	0	0	498	410	
5	0	0	0	0	501	408	
6	0	0	0	0	503	408	
7	0	0	0	0	504	408	
8	0	0	0	0	504	404	
9	0	0	0	0	503	407	
10	0	0	0	0	502	407	
11	0	0	0	0	499	407	
12	0	0	0	0	497	409	
13	0	0	0	0	494	407	
14	0	0	0	0	491	407	
15	0	0	0	0	487	406	
0	0	0	0	0	485	404	
1	0	0	0	0	484	406	
2	0	0	0	0	484	406	
3	0	0	0	0	485	406	
4	0	0	0	0	487	409	
5	0	0	0	0	490	407	
6	0	0	0	0	494	407	
7	0	0	0	0	499	407	
8	0	0	0	0	503	402	
9	0	0	0	0	505	406	
10	0	0	0	0	507	407	
11	0	0	0	0	507	406	
12	0	0	0	0	507	409	
13	0	0	0	0	507	407	
14	0	0	0	0	507	406	
15	0	0	0	0	506	407	
0	0	0	0	0	505	403	
1	0	0	0	0	503	407	
2	0	0	0	0	502	406	
3	0	0	0	0	499	406	
4	0	0	0	0	497	409	
5	0	0	0	0	495	407	
6	0	0	0	0	494	406	
7	0	0	0	0	495	407	
8	0	0	0	0	495	403	
9	0	0	0	0	497	407	
10	0	0	0	0	499	406	
11	0	0	0	0	503	405	
12	0	0	0	0	506	409	
13	0	0	0	0	510	406	
14	0	0	0	0	512	406	
15	0	0	0	0	512	406	
0	0	0	0	0	510	402	
1	0	0	0	0	508	407	
2	0	0	0	0	506	406	
3	0	0	0	0	504	406	
4	0	0	0	0	502	409	
5	0	0	0	0	499	406	
6	0	0	0	0	497	405	
7	0	0	0	0	496	405	
8	0	0	0	0	494	402	
9	0	0	0	0	495	405	
10	0	0	0	0	496	405	
11	0	0	0	0	497	405	
12	0	0	0	0	499	408	
13	0	0	0	0	502	406	
14	0	0	0	0	504	406	
15	0	0	0	0	508	405	
0	0	0	0	0	511	403	
1	0	0	0	0	515	405	
2	0	0	0	0	517	406	
3	0	0	0	0	517	406	
4	0	0	0	0	517	408	
5	0	0	0	0	517	405	
6	0	0	0	0	517	405	
7	0	0	0	0	517	406	
8	0	0	0	0	516	402	
9	0	0	0	0	515	406	
10	0	0	0	0	513	405	
11	0	0	0	0	511	406	
12	0	0	0	0	509	408	
13	0	0	0	0	506	406	
14	0	0	0	0	504	406	
15	0	0	0	0	505	407	
0	0	0	0	0	505	403	
1	0	0	0	0	509	407	
2	0	0	0	0	512	406	
3	0	0	0	0	515	408	
4	0	0	0	0	518	410	
5	0	0	0	0	521	407	
6	0	0	0	0	523	407	
7	0	0	0	0	524	407	
8	0	0	0	0	524	404	
9	0	0	0	0	523	407	
10	0	0	0	0	521	408	
11	0	0	0	0	519	408	
12	0	0	0	0	516	409	
13	0	0	0	0	513	407	
14	0	0	0	0	511	407	
15	0	0	0	0	508	407	
0	0	0	0	0	506	404	
1	0	0	0	0	504	407	
2	0	0	0	0	503	406	
3	0	0	0	0	503	406	
4	0	0	0	0	504	410	
5	0	0	0	0	505	407	
6	0	0	0	0	507	406	
7	0	0	0	0	509	407	
8	0	0	0	0	512	403	
9	0	0	0	0	514	407	
10	0	0	0	0	516	407	
11	0	0	0	0	515	407	
12	0	0	0	0	515	409	
13	0	0	0	0	514	407	
14	0	0	0	0	512	407	
15	0	0	0	0	511	406	
0	0	0	0	0	510	403	
1	0	0	0	0	508	407	
2	0	0	0	0	504	407	
3	0	0	0	0	501	407	
4	0	0	0	0	499	409	
5	0	0	0	0	496	407	
6	0	0	0	0	496	407	
7	0	0	0	0	497	407	
8	0	0	0	0	499	403	
9	0	0	0	0	503	407	
10	0	0	0	0	507	407	
11	0	0	0	0	510	406	
12	0	0	0	0	515	409	
13	0	0	0	0	519	407	
14	0	0	0	0	521	407	
15	0	0	0	0	522	407	
0	0	0	0	0	521	403	
1	0	0	0	0	520	407	
2	0	0	0	0	519	407	
3	0	0	0	0	518	408	
4	0	0	0	0	515	410	
5	0	0	0	0	513	407	
6	0	0	0	0	510	408	
7	0	0	0	0	506	407	
8	0	0	0	0	502	404	
9	0	0	0	0	499	408	
10	0	0	0	0	498	408	
11	0	0	0	0	497	408	
12	0	0	0	0	498	411	
13	0	0	0	0	500	408	
14	0	0	0	0	503	408	
15	0	0	0	0	505	409	
0	0	0	0	0	508	404	
1	0	0	0	0	510	408	
2	0	0	0	0	512	408	
3	0	0	0	0	513	408	
4	0	0	0	0	513	410	
5	0	0	0	0	513	407	
6	0	0	0	0	512	408	
7	0	0	0	0	511	408	
8	0	0	0	0	509	404	
9	0	0	0	0	507	408	
10	0	0	0	0	504	408	
11	0	0	0	0	502	408	
12	0	0	0	0	498	410	
13	0	0	0	0	496	407	
14	0	0	0	0	496	407	
15	0	0	0	0	496	407	
0	0	0	0	0	497	404	
1	0	0	0	0	499	408	
2	0	0	0	0	500	408	
3	0	0	0	0	503	407	
4	0	0	0	0	505	410	
5	0	0	0	0	508	408	
6	0	0	0	0	510	407	
7	0	0	0	0	510	407	
8	0	0	0	0	510	404	
9	0	0	0	0	510	407	
10	0	0	0	0	508	408	
11	0	0	0	0	507	407	
12	0	0	0	0	507	411	
13	0	0	0	0	506	407	
14	0	0	0	0	504	407	
15	0	0	0	0	501	407	
0	0	0	0	0	499	403	
1	0	0	0	0	497	407	
2	0	0	0	0	496	407	
3	0	0	0	0	497	408	
4	0	0	0	0	499	410	
5	0	0	0	0	503	407	
6	0	0	0	0	507	407	
7	0	0	0	0	510	407	
8	0	0	0	0	513	404	
9	0	0	0	0	515	408	
10	0	0	0	0	517	408	
11	0	0	0	0	517	408	
12	0	0	0	0	516	410	
13	0	0	0	0	516	408	
14	0	0	0	0	516	408	
15	0	0	0	0	515	408	
0	0	0	0	0	513	405	
1	0	0	0	0	512	408	
2	0	0	0	0	509	408	
3	0	0	0	0	505	408	
4	0	0	0	0	502	411	
5	0	0	0	0	499	408	
6	0	0	0	0	498	408	
7	0	0	0	0	498	408	
8	0	0	0	0	501	405	
9	0	0	0	0	504	408	
10	0	0	0	0	507	409	
11	0	0	0	0	510	408	
12	0	0	0	0	513	412	
13	0	0	0	0	516	408	
14	0	0	0	0	518	408	
15	0	0	0	0	519	408	
0	0	0	0	0	518	406	
1	0	0	0	0	518	408	
2	0	0	0	0	515	409	
3	0	0	0	0	513	409	
4	0	0	0	0	511	412	
5	0	0	0	0	510	408	
6	0	0	0	0	507	408	
7	0	0	0	0	505	409	
8	0	0	0	0	501	405	
9	0	0	0	0	499	408	
10	0	0	0	0	499	408	
11	0	0	0	0	500	408	
12	0	0	0	0	501	412	
13	0	0	0	0	503	408	
14	0	0	0	0	506	409	
15	0	0	0	0	510	408	
0	0	0	0	0	513	405	
1	0	0	0	0	515	408	
2	0	0	0	0	517	408	
3	0	0	0	0	518	408	
4	0	0	0	0	518	411	
5	0	0	0	0	518	408	
6	0	0	0	0	519	408	
7	0	0	0	0	519	408	
8	0	0	0	0	518	405	
9	0	0	0	0	517	409	
10	0	0	0	0	515	409	
11	0	0	0	0	512	408	
12	0	0	0	0	509	412	
13	0	0	0	0	507	409	
14	0	0	0	0	507	409	
15	0	0	0	0	507	409	
0	0	0	0	0	508	406	
1	0	0	0	0	511	409	
2	0	0	0	0	514	409	
3	0	0	0	0	517	408	
4	0	0	0	0	521	412	
5	0	0	0	0	524	409	
6	0	0	0	0	526	408	
7	0	0	0	0	528	408	
8	0	0	0	0	529	405	
9	0	0	0	0	529	408	
10	0	0	0	0	528	409	
11	0	0	0	0	526	408	
12	0	0	0	0	524	411	
13	0	0	0	0	522	409	
14	0	0	0	0	519	409	
15	0	0	0	0	515	408	
0	0	0	0	0	512	405	
1	0	0	0	0	510	408	
2	0	0	0	0	510	409	
3	0	0	0	0	511	408	
4	0	0	0	0	512	412	
5	0	0	0	0	515	408	
6	0	0	0	0	518	408	
7	0	0	0	0	521	409	
8	0	0	0	0	524	405	
9	0	0	0	0	525	409	
10	0	0	0	0	526	409	
11	0	0	0	0	526	409	
12	0	0	0	0	524	412	
13	0	0	0	0	521	409	
14	0	0	0	0	518	409	
15	0	0	0	0	516	409	
0	0	0	0	0	513	406	
1	0	0	0	0	511	409	
2	0	0	0	0	508	410	
3	0	0	0	0	503	409	
4	0	0	0	0	499	412	
5	0	0	0	0	497	409	
6	0	0	0	0	496	409	
7	0	0	0	0	497	408	
8	0	0	0	0	498	406	
9	0	0	0	0	501	409	
10	0	0	0	0	504	408	
11	0	0	0	0	507	408	
12	0	0	0	0	511	412	
13	0	0	0	0	513	408	
14	0	0	0	0	515	408	
15	0	0	0	0	515	409	
0	0	0	0	0	516	405	
1	0	0	0	0	516	408	
2	0	0	0	0	515	408	
3	0	0	0	0	513	408	
4	0	0	0	0	512	411	
5	0	0	0	0	509	408	
6	0	0	0	0	507	408	
7	0	0	0	0	504	408	
8	0	0	0	0	501	406	
9	0	0	0	0	499	408	
10	0	0	0	0	499	408	
11	0	0	0	0	500	408	
12	0	0	0	0	502	412	
13	0	0	0	0	505	408	
14	0	0	0	0	507	408	
15	0	0	0	0	510	409	
0	0	0	0	0	512	405	
1	0	0	0	0	515	409	
2	0	0	0	0	516	408	
3	0	0	0	0	518	408	
4	0	0	0	0	518	411	
5	0	0	0	0	517	409	
6	0	0	0	0	515	408	
7	0	0	0	0	514	408	
8	0	0	0	0	512	405	
9	0	0	0	0	509	408	
10	0	0	0	0	506	408	
11	0	0	0	0	502	408	
12	0	0	0	0	498	412	
13	0	0	0	0	495	408	
14	0	0	0	0	493	408	
15	0	0	0	0	492	409	
0	0	0	0	0	493	405	
1	0	0	0	0	496	408	
2	0	0	0	0	500	409	
3	0	0	0	0	504	408	
4	0	0	0	0	510	412	
5	0	0	0	0	513	408	
6	0	0	0	0	516	408	
7	0	0	0	0	518	408	
8	0	0	0	0	518	404	
9	0	0	0	0	517	408	
10	0	0	0	0	516	408	
11	0	0	0	0	515	409	
12	0	0	0	0	514	411	
13	0	0	0	0	512	408	
14	0	0	0	0	508	409	
15	0	0	0	0	504	408	
0	0	0	0	0	500	405	
1	0	0	0	0	497	408	
2	0	0	0	0	497	409	
3	0	0	0	0	496	408	
4	0	0	0	0	497	411	
5	0	0	0	0	499	408	
6	0	0	0	0	502	409	
7	0	0	0	0	504	409	
8	0	0	0	0	507	405	
9	0	0	0	0	508	409	
10	0	0	0	0	509	409	
11	0	0	0	0	511	409	
12	0	0	0	0	511	412	
13	0	0	0	0	511	409	
14	0	0	0	0	509	409	
15	0	0	0	0	508	409	
0	0	0	0	0	508	406	
1	0	0	0	0	508	409	
2	0	0	0	0	506	410	
3	0	0	0	0	504	410	
4	0	0	0	0	501	413	
5	0	0	0	0	500	409	
6	0	0	0	0	500	411	
7	0	0	0	0	500	410	
8	0	0	0	0	502	407	
9	0	0	0	0	505	410	
10	0	0	0	0	509	410	
11	0	0	0	0	513	410	
12	0	0	0	0	516	413	
13	0	0	0	0	520	410	
14	0	0	0	0	522	410	
15	0	0	0	0	522	410	
0	0	0	0	0	521	407	
1	0	0	0	0	520	409	
2	0	0	0	0	519	409	
3	0	0	0	0	516	410	
4	0	0	0	0	515	413	
5	0	0	0	0	512	409	
6	0	0	0	0	510	409	
7	0	0	0	0	507	408	
8	0	0	0	0	503	406	
9	0	0	0	0	500	409	
10	0	0	0	0	499	408	
11	0	0	0	0	499	409	
12	0	0	0	0	501	411	
13	0	0	0	0	504	409	
14	0	0	0	0	507	408	
15	0	0	0	0	511	408	
0	0	0	0	0	514	405	
1	0	0	0	0	516	409	
2	0	0	0	0	518	409	
3	0	0	0	0	519	408	
4	0	0	0	0	520	411	
5	0	0	0	0	520	409	
6	0	0	0	0	519	408	
7	0	0	0	0	518	408	
8	0	0	0	0	516	404	
9	0	0	0	0	513	408	
10	0	0	0	0	510	407	
11	0	0	0	0	507	408	
12	0	0	0	0	504	411	
13	0	0	0	0	502	408	
14	0	0	0	0	502	407	
15	0	0	0	0	502	408	
0	0	0	0	0	503	404	
1	0	0	0	0	504	408	
2	0	0	0	0	507	407	
3	0	0	0	0	510	408	
4	0	0	0	0	512	410	
5	0	0	0	0	515	408	
6	0	0	0	0	517	407	
7	0	0	0	0	518	407	
8	0	0	0	0	517	404	
9	0	0	0	0	517	407	
10	0	0	0	0	515	408	
11	0	0	0	0	514	407	
12	0	0	0	0	512	410	
13	0	0	0	0	509	407	
14	0	0	0	0	506	408	
15	0	0	0	0	502	408	
0	0	0	0	0	498	404	
1	0	0	0	0	496	408	
2	0	0	0	0	494	408	
3	0	0	0	0	493	408	
