# OpenSignals Text File Format
# {"98:D3:C1:FD:2F:E5":{"sensor":["RAW","RAW"],"device name":"98:D3:C1:FD:2F:E5","column":["nSeq","I1","I2","O1","O2","A2","A5"],"sync interval":2,"time":"15:50:01","comments":"","device connection":"BTH98:D3:C1:FD:2F:E5","channels":[2,5],"date":"2021-09-26","mode":0,"digital IO":[0,0,1,1],"firmware version":0,"device":"bitalino_rev","position":0,"sampling rate":1000,"label":["A2","A5"],"resolution":[10,10],"special":[{},{}]}}
# EndOfHeader
0	0	0	0	0	522	617
1	0	0	0	0	519	616
2	0	0	0	0	516	616
3	0	0	0	0	513	617
4	0	0	0	0	511	617
5	0	0	0	0	511	616
6	0	0	0	0	511	617
7	0	0	0	0	511	617
8	0	0	0	0	513	616
9	0	0	0	0	515	616
10	0	0	0	0	517	616
11	0	0	0	0	519	616
12	0	0	0	0	521	616
13	0	0	0	0	523	616
14	0	0	0	0	524	616
15	0	0	0	0	524	616
0	0	0	0	0	524	616
1	0	0	0	0	521	616
2	0	0	0	0	518	616
3	0	0	0	0	514	617
4	0	0	0	0	510	616
5	0	0	0	0	507	616
6	0	0	0	0	504	616
7	0	0	0	0	503	615
8	0	0	0	0	502	616
9	0	0	0	0	502	616
10	0	0	0	0	502	616
11	0	0	0	0	503	616
12	0	0	0	0	504	615
13	0	0	0	0	507	615
14	0	0	0	0	510	615
15	0	0	0	0	513	616
0	0	0	0	0	515	615
1	0	0	0	0	517	615
2	0	0	0	0	519	615
3	0	0	0	0	518	615
4	0	0	0	0	518	616
5	0	0	0	0	516	616
6	0	0	0	0	514	616
7	0	0	0	0	513	616
8	0	0	0	0	511	616
9	0	0	0	0	509	615
10	0	0	0	0	507	615
11	0	0	0	0	506	615
12	0	0	0	0	506	616
13	0	0	0	0	507	615
14	0	0	0	0	508	616
15	0	0	0	0	509	616
0	0	0	0	0	511	615
1	0	0	0	0	513	616
2	0	0	0	0	516	616
3	0	0	0	0	519	615
4	0	0	0	0	522	616
5	0	0	0	0	525	615
6	0	0	0	0	527	617
7	0	0	0	0	527	616
8	0	0	0	0	528	616
9	0	0	0	0	528	616
10	0	0	0	0	527	616
11	0	0	0	0	525	617
12	0	0	0	0	522	617
13	0	0	0	0	519	616
14	0	0	0	0	516	616
15	0	0	0	0	514	617
0	0	0	0	0	512	616
1	0	0	0	0	511	616
2	0	0	0	0	511	616
3	0	0	0	0	510	616
4	0	0	0	0	510	616
5	0	0	0	0	511	616
6	0	0	0	0	512	616
7	0	0	0	0	515	615
8	0	0	0	0	518	616
9	0	0	0	0	522	615
10	0	0	0	0	524	616
11	0	0	0	0	526	616
12	0	0	0	0	526	616
13	0	0	0	0	526	616
14	0	0	0	0	523	615
15	0	0	0	0	519	616
0	0	0	0	0	514	616
1	0	0	0	0	511	616
2	0	0	0	0	510	616
3	0	0	0	0	508	616
4	0	0	0	0	507	617
5	0	0	0	0	506	617
6	0	0	0	0	506	617
7	0	0	0	0	508	617
8	0	0	0	0	509	616
9	0	0	0	0	511	617
10	0	0	0	0	513	616
11	0	0	0	0	516	616
12	0	0	0	0	519	616
13	0	0	0	0	521	616
14	0	0	0	0	521	616
15	0	0	0	0	522	616
0	0	0	0	0	522	616
1	0	0	0	0	520	616
2	0	0	0	0	517	615
3	0	0	0	0	515	616
4	0	0	0	0	511	616
5	0	0	0	0	509	616
6	0	0	0	0	507	615
7	0	0	0	0	505	615
8	0	0	0	0	504	616
9	0	0	0	0	504	616
10	0	0	0	0	505	616
11	0	0	0	0	505	616
12	0	0	0	0	507	616
13	0	0	0	0	509	617
14	0	0	0	0	511	616
15	0	0	0	0	514	617
0	0	0	0	0	516	616
1	0	0	0	0	519	616
2	0	0	0	0	519	616
3	0	0	0	0	519	615
4	0	0	0	0	518	616
5	0	0	0	0	517	616
6	0	0	0	0	515	616
7	0	0	0	0	512	616
8	0	0	0	0	509	616
9	0	0	0	0	507	615
10	0	0	0	0	505	615
11	0	0	0	0	503	615
12	0	0	0	0	503	616
13	0	0	0	0	503	616
14	0	0	0	0	504	616
15	0	0	0	0	505	616
0	0	0	0	0	505	616
1	0	0	0	0	506	616
2	0	0	0	0	507	616
3	0	0	0	0	508	615
4	0	0	0	0	509	616
5	0	0	0	0	509	616
6	0	0	0	0	509	616
7	0	0	0	0	507	615
8	0	0	0	0	504	615
9	0	0	0	0	499	616
10	0	0	0	0	492	616
11	0	0	0	0	482	616
12	0	0	0	0	470	616
13	0	0	0	0	458	616
14	0	0	0	0	446	615
15	0	0	0	0	433	615
0	0	0	0	0	422	615
1	0	0	0	0	411	615
2	0	0	0	0	403	615
3	0	0	0	0	397	615
4	0	0	0	0	393	616
5	0	0	0	0	391	616
6	0	0	0	0	392	616
7	0	0	0	0	395	616
8	0	0	0	0	400	616
9	0	0	0	0	407	616
10	0	0	0	0	414	616
11	0	0	0	0	423	616
12	0	0	0	0	432	616
13	0	0	0	0	439	616
14	0	0	0	0	444	616
15	0	0	0	0	449	616
0	0	0	0	0	453	615
1	0	0	0	0	460	616
2	0	0	0	0	473	615
3	0	0	0	0	493	616
4	0	0	0	0	516	616
5	0	0	0	0	544	616
6	0	0	0	0	579	616
7	0	0	0	0	624	616
8	0	0	0	0	673	616
9	0	0	0	0	728	616
10	0	0	0	0	784	616
11	0	0	0	0	838	616
12	0	0	0	0	887	617
13	0	0	0	0	929	615
14	0	0	0	0	964	616
15	0	0	0	0	990	615
0	0	0	0	0	1008	615
1	0	0	0	0	1016	616
2	0	0	0	0	1019	616
3	0	0	0	0	1016	616
4	0	0	0	0	1007	617
5	0	0	0	0	992	616
6	0	0	0	0	972	616
7	0	0	0	0	948	616
8	0	0	0	0	924	616
9	0	0	0	0	893	615
10	0	0	0	0	860	616
11	0	0	0	0	825	616
12	0	0	0	0	790	616
13	0	0	0	0	759	616
14	0	0	0	0	732	617
15	0	0	0	0	707	616
0	0	0	0	0	686	615
1	0	0	0	0	666	615
2	0	0	0	0	647	616
3	0	0	0	0	629	615
4	0	0	0	0	615	616
5	0	0	0	0	601	615
6	0	0	0	0	586	615
7	0	0	0	0	571	615
8	0	0	0	0	557	615
9	0	0	0	0	543	615
10	0	0	0	0	529	616
11	0	0	0	0	515	616
12	0	0	0	0	503	616
13	0	0	0	0	491	616
14	0	0	0	0	480	616
15	0	0	0	0	471	616
0	0	0	0	0	463	615
1	0	0	0	0	456	617
2	0	0	0	0	451	617
3	0	0	0	0	445	616
4	0	0	0	0	440	616
5	0	0	0	0	435	616
6	0	0	0	0	430	616
7	0	0	0	0	425	615
8	0	0	0	0	420	616
9	0	0	0	0	416	616
10	0	0	0	0	411	615
11	0	0	0	0	408	616
12	0	0	0	0	403	616
13	0	0	0	0	400	616
14	0	0	0	0	397	615
15	0	0	0	0	394	616
0	0	0	0	0	392	616
1	0	0	0	0	392	616
2	0	0	0	0	392	616
3	0	0	0	0	392	615
4	0	0	0	0	394	616
5	0	0	0	0	396	615
6	0	0	0	0	397	616
7	0	0	0	0	398	616
8	0	0	0	0	400	616
9	0	0	0	0	401	616
10	0	0	0	0	401	616
11	0	0	0	0	401	616
12	0	0	0	0	401	616
13	0	0	0	0	401	616
14	0	0	0	0	399	616
15	0	0	0	0	397	616
0	0	0	0	0	395	616
1	0	0	0	0	393	616
2	0	0	0	0	393	616
3	0	0	0	0	392	616
4	0	0	0	0	392	616
5	0	0	0	0	393	615
6	0	0	0	0	396	616
7	0	0	0	0	399	616
8	0	0	0	0	404	616
9	0	0	0	0	408	616
10	0	0	0	0	412	615
11	0	0	0	0	415	615
12	0	0	0	0	419	616
13	0	0	0	0	421	615
14	0	0	0	0	423	616
15	0	0	0	0	425	615
0	0	0	0	0	426	616
1	0	0	0	0	425	615
2	0	0	0	0	423	615
3	0	0	0	0	421	616
4	0	0	0	0	418	616
5	0	0	0	0	416	616
6	0	0	0	0	415	616
7	0	0	0	0	414	616
8	0	0	0	0	412	616
9	0	0	0	0	412	616
10	0	0	0	0	412	616
11	0	0	0	0	412	616
12	0	0	0	0	415	616
13	0	0	0	0	417	616
14	0	0	0	0	420	616
15	0	0	0	0	423	616
0	0	0	0	0	427	616
1	0	0	0	0	431	616
2	0	0	0	0	433	616
3	0	0	0	0	435	616
4	0	0	0	0	437	616
5	0	0	0	0	438	616
6	0	0	0	0	436	615
7	0	0	0	0	435	615
8	0	0	0	0	433	615
9	0	0	0	0	431	616
10	0	0	0	0	430	616
11	0	0	0	0	428	616
12	0	0	0	0	426	617
13	0	0	0	0	426	616
14	0	0	0	0	427	616
15	0	0	0	0	429	616
0	0	0	0	0	432	615
1	0	0	0	0	434	617
2	0	0	0	0	437	616
3	0	0	0	0	440	616
4	0	0	0	0	444	616
5	0	0	0	0	446	616
6	0	0	0	0	447	616
7	0	0	0	0	449	616
8	0	0	0	0	451	615
9	0	0	0	0	451	615
10	0	0	0	0	448	615
11	0	0	0	0	444	616
12	0	0	0	0	441	616
13	0	0	0	0	438	616
14	0	0	0	0	435	616
15	0	0	0	0	433	616
0	0	0	0	0	432	616
1	0	0	0	0	432	616
2	0	0	0	0	433	616
3	0	0	0	0	435	616
4	0	0	0	0	439	616
5	0	0	0	0	444	616
6	0	0	0	0	449	616
7	0	0	0	0	454	616
8	0	0	0	0	458	616
9	0	0	0	0	461	616
10	0	0	0	0	461	616
11	0	0	0	0	460	616
12	0	0	0	0	457	616
13	0	0	0	0	452	616
14	0	0	0	0	448	616
15	0	0	0	0	444	616
0	0	0	0	0	440	616
1	0	0	0	0	436	616
2	0	0	0	0	435	615
3	0	0	0	0	435	615
4	0	0	0	0	435	616
5	0	0	0	0	437	616
6	0	0	0	0	441	616
7	0	0	0	0	445	615
8	0	0	0	0	448	615
9	0	0	0	0	450	616
10	0	0	0	0	452	616
11	0	0	0	0	455	616
12	0	0	0	0	457	616
13	0	0	0	0	460	616
14	0	0	0	0	462	616
15	0	0	0	0	463	616
0	0	0	0	0	463	616
1	0	0	0	0	463	616
2	0	0	0	0	461	616
3	0	0	0	0	459	616
4	0	0	0	0	456	616
5	0	0	0	0	453	616
6	0	0	0	0	448	616
7	0	0	0	0	445	616
8	0	0	0	0	443	616
9	0	0	0	0	441	616
10	0	0	0	0	440	616
11	0	0	0	0	442	616
12	0	0	0	0	444	616
13	0	0	0	0	448	616
14	0	0	0	0	451	616
15	0	0	0	0	455	616
0	0	0	0	0	459	616
1	0	0	0	0	463	616
2	0	0	0	0	465	616
3	0	0	0	0	466	616
4	0	0	0	0	468	617
5	0	0	0	0	467	616
6	0	0	0	0	464	615
7	0	0	0	0	461	617
8	0	0	0	0	458	616
9	0	0	0	0	455	617
10	0	0	0	0	453	616
11	0	0	0	0	451	616
12	0	0	0	0	451	616
13	0	0	0	0	452	616
14	0	0	0	0	455	616
15	0	0	0	0	458	616
0	0	0	0	0	461	616
1	0	0	0	0	464	616
2	0	0	0	0	468	616
3	0	0	0	0	473	615
4	0	0	0	0	477	616
5	0	0	0	0	479	615
6	0	0	0	0	481	616
7	0	0	0	0	483	615
8	0	0	0	0	482	615
9	0	0	0	0	480	615
10	0	0	0	0	478	616
11	0	0	0	0	477	616
12	0	0	0	0	475	616
13	0	0	0	0	474	616
14	0	0	0	0	473	615
15	0	0	0	0	473	615
0	0	0	0	0	474	616
1	0	0	0	0	474	615
2	0	0	0	0	473	616
3	0	0	0	0	474	616
4	0	0	0	0	477	616
5	0	0	0	0	480	616
6	0	0	0	0	484	615
7	0	0	0	0	489	615
8	0	0	0	0	496	615
9	0	0	0	0	501	615
10	0	0	0	0	504	615
11	0	0	0	0	505	616
12	0	0	0	0	507	616
13	0	0	0	0	507	616
14	0	0	0	0	506	615
15	0	0	0	0	504	615
0	0	0	0	0	501	616
1	0	0	0	0	499	616
2	0	0	0	0	497	616
3	0	0	0	0	495	615
4	0	0	0	0	496	616
5	0	0	0	0	497	616
6	0	0	0	0	498	617
7	0	0	0	0	500	616
8	0	0	0	0	503	616
9	0	0	0	0	506	616
10	0	0	0	0	510	617
11	0	0	0	0	513	617
12	0	0	0	0	518	617
13	0	0	0	0	521	616
14	0	0	0	0	523	616
15	0	0	0	0	524	616
0	0	0	0	0	525	616
1	0	0	0	0	524	616
2	0	0	0	0	522	615
3	0	0	0	0	519	617
4	0	0	0	0	515	616
5	0	0	0	0	512	616
6	0	0	0	0	510	616
7	0	0	0	0	509	616
8	0	0	0	0	508	616
9	0	0	0	0	508	616
10	0	0	0	0	509	616
11	0	0	0	0	511	616
12	0	0	0	0	515	616
13	0	0	0	0	519	616
14	0	0	0	0	524	615
15	0	0	0	0	528	616
0	0	0	0	0	532	616
1	0	0	0	0	536	616
2	0	0	0	0	537	616
3	0	0	0	0	538	615
4	0	0	0	0	537	616
5	0	0	0	0	534	615
6	0	0	0	0	530	616
7	0	0	0	0	526	615
8	0	0	0	0	522	616
9	0	0	0	0	519	616
10	0	0	0	0	519	616
11	0	0	0	0	519	616
12	0	0	0	0	519	616
13	0	0	0	0	519	615
14	0	0	0	0	520	615
15	0	0	0	0	521	616
0	0	0	0	0	520	615
1	0	0	0	0	522	616
2	0	0	0	0	524	616
3	0	0	0	0	526	615
4	0	0	0	0	528	616
5	0	0	0	0	531	615
6	0	0	0	0	532	616
7	0	0	0	0	532	616
8	0	0	0	0	533	616
9	0	0	0	0	535	615
10	0	0	0	0	536	616
11	0	0	0	0	535	616
12	0	0	0	0	533	616
13	0	0	0	0	532	616
14	0	0	0	0	530	616
15	0	0	0	0	527	616
0	0	0	0	0	527	615
1	0	0	0	0	527	615
2	0	0	0	0	526	615
3	0	0	0	0	527	616
4	0	0	0	0	527	616
5	0	0	0	0	531	616
6	0	0	0	0	534	617
7	0	0	0	0	536	616
8	0	0	0	0	540	616
9	0	0	0	0	542	616
10	0	0	0	0	543	616
11	0	0	0	0	542	616
12	0	0	0	0	539	616
13	0	0	0	0	536	616
14	0	0	0	0	532	616
15	0	0	0	0	528	616
0	0	0	0	0	524	615
1	0	0	0	0	520	616
2	0	0	0	0	516	616
3	0	0	0	0	515	616
4	0	0	0	0	515	616
5	0	0	0	0	515	616
6	0	0	0	0	517	616
7	0	0	0	0	519	616
8	0	0	0	0	522	616
9	0	0	0	0	525	616
10	0	0	0	0	528	615
11	0	0	0	0	532	616
12	0	0	0	0	535	616
13	0	0	0	0	536	616
14	0	0	0	0	538	616
15	0	0	0	0	537	616
0	0	0	0	0	536	616
1	0	0	0	0	534	616
2	0	0	0	0	530	617
3	0	0	0	0	526	616
4	0	0	0	0	521	617
5	0	0	0	0	518	616
6	0	0	0	0	515	616
7	0	0	0	0	512	616
8	0	0	0	0	510	616
9	0	0	0	0	509	616
10	0	0	0	0	509	616
11	0	0	0	0	511	616
12	0	0	0	0	513	615
13	0	0	0	0	515	615
14	0	0	0	0	519	615
15	0	0	0	0	523	615
0	0	0	0	0	527	616
1	0	0	0	0	531	615
2	0	0	0	0	533	615
3	0	0	0	0	533	616
4	0	0	0	0	532	616
5	0	0	0	0	530	616
6	0	0	0	0	527	616
7	0	0	0	0	523	616
8	0	0	0	0	519	616
9	0	0	0	0	517	616
10	0	0	0	0	514	616
11	0	0	0	0	512	616
12	0	0	0	0	511	616
13	0	0	0	0	512	616
14	0	0	0	0	514	616
15	0	0	0	0	515	616
0	0	0	0	0	518	615
1	0	0	0	0	520	616
2	0	0	0	0	524	616
3	0	0	0	0	527	616
4	0	0	0	0	530	616
5	0	0	0	0	532	616
6	0	0	0	0	533	616
7	0	0	0	0	533	616
8	0	0	0	0	532	616
9	0	0	0	0	529	616
10	0	0	0	0	527	616
11	0	0	0	0	524	616
12	0	0	0	0	519	616
13	0	0	0	0	515	615
14	0	0	0	0	512	616
15	0	0	0	0	511	616
0	0	0	0	0	511	616
1	0	0	0	0	512	617
2	0	0	0	0	513	616
3	0	0	0	0	516	616
4	0	0	0	0	520	616
5	0	0	0	0	524	617
6	0	0	0	0	527	616
7	0	0	0	0	531	616
8	0	0	0	0	533	616
9	0	0	0	0	535	616
10	0	0	0	0	536	617
11	0	0	0	0	535	616
12	0	0	0	0	534	617
13	0	0	0	0	531	616
14	0	0	0	0	527	616
15	0	0	0	0	522	616
0	0	0	0	0	518	616
1	0	0	0	0	516	615
2	0	0	0	0	515	616
3	0	0	0	0	513	615
4	0	0	0	0	513	616
5	0	0	0	0	513	615
6	0	0	0	0	514	616
7	0	0	0	0	516	616
8	0	0	0	0	519	616
9	0	0	0	0	521	616
10	0	0	0	0	525	616
11	0	0	0	0	530	616
12	0	0	0	0	535	616
13	0	0	0	0	539	616
14	0	0	0	0	540	616
15	0	0	0	0	540	616
0	0	0	0	0	540	617
1	0	0	0	0	538	616
2	0	0	0	0	533	616
3	0	0	0	0	529	616
4	0	0	0	0	524	616
5	0	0	0	0	519	616
6	0	0	0	0	516	616
7	0	0	0	0	513	616
8	0	0	0	0	512	615
9	0	0	0	0	512	615
10	0	0	0	0	513	615
11	0	0	0	0	515	615
12	0	0	0	0	518	615
13	0	0	0	0	521	616
14	0	0	0	0	525	616
15	0	0	0	0	529	615
0	0	0	0	0	532	615
1	0	0	0	0	535	615
2	0	0	0	0	537	616
3	0	0	0	0	537	615
4	0	0	0	0	537	616
5	0	0	0	0	535	615
6	0	0	0	0	531	616
7	0	0	0	0	527	616
8	0	0	0	0	523	616
9	0	0	0	0	519	616
10	0	0	0	0	517	615
11	0	0	0	0	514	616
12	0	0	0	0	513	616
13	0	0	0	0	512	616
14	0	0	0	0	513	616
15	0	0	0	0	516	615
0	0	0	0	0	519	616
1	0	0	0	0	522	616
2	0	0	0	0	525	616
3	0	0	0	0	527	616
4	0	0	0	0	530	616
5	0	0	0	0	533	615
6	0	0	0	0	535	616
7	0	0	0	0	535	615
8	0	0	0	0	534	616
9	0	0	0	0	532	616
10	0	0	0	0	529	615
11	0	0	0	0	525	615
12	0	0	0	0	520	616
13	0	0	0	0	517	616
14	0	0	0	0	515	616
15	0	0	0	0	513	616
0	0	0	0	0	511	616
1	0	0	0	0	511	615
2	0	0	0	0	512	615
3	0	0	0	0	513	615
4	0	0	0	0	516	615
5	0	0	0	0	518	616
6	0	0	0	0	521	615
7	0	0	0	0	525	616
8	0	0	0	0	528	616
9	0	0	0	0	531	616
10	0	0	0	0	533	616
11	0	0	0	0	533	616
12	0	0	0	0	531	616
13	0	0	0	0	529	615
14	0	0	0	0	524	615
15	0	0	0	0	520	616
0	0	0	0	0	515	616
1	0	0	0	0	511	616
2	0	0	0	0	508	616
3	0	0	0	0	504	616
4	0	0	0	0	504	616
5	0	0	0	0	504	616
6	0	0	0	0	505	615
7	0	0	0	0	507	616
8	0	0	0	0	510	615
9	0	0	0	0	513	616
10	0	0	0	0	517	616
11	0	0	0	0	521	615
12	0	0	0	0	526	616
13	0	0	0	0	529	615
14	0	0	0	0	531	616
15	0	0	0	0	531	616
0	0	0	0	0	531	616
1	0	0	0	0	530	615
2	0	0	0	0	526	616
3	0	0	0	0	523	616
4	0	0	0	0	518	615
5	0	0	0	0	514	615
6	0	0	0	0	511	616
7	0	0	0	0	509	616
8	0	0	0	0	509	617
9	0	0	0	0	509	616
10	0	0	0	0	509	617
11	0	0	0	0	509	616
12	0	0	0	0	511	616
13	0	0	0	0	513	616
14	0	0	0	0	515	616
15	0	0	0	0	518	616
0	0	0	0	0	520	615
1	0	0	0	0	524	616
2	0	0	0	0	526	616
3	0	0	0	0	526	616
4	0	0	0	0	524	616
5	0	0	0	0	523	615
6	0	0	0	0	521	615
7	0	0	0	0	518	616
8	0	0	0	0	513	616
9	0	0	0	0	510	616
10	0	0	0	0	507	616
11	0	0	0	0	504	616
12	0	0	0	0	503	616
13	0	0	0	0	502	616
14	0	0	0	0	503	616
15	0	0	0	0	505	616
0	0	0	0	0	508	616
1	0	0	0	0	511	616
2	0	0	0	0	514	616
3	0	0	0	0	518	617
4	0	0	0	0	521	616
5	0	0	0	0	524	617
6	0	0	0	0	525	616
7	0	0	0	0	525	616
8	0	0	0	0	524	615
9	0	0	0	0	523	616
10	0	0	0	0	520	616
11	0	0	0	0	516	616
12	0	0	0	0	512	616
13	0	0	0	0	509	616
14	0	0	0	0	507	616
15	0	0	0	0	505	617
0	0	0	0	0	504	616
1	0	0	0	0	504	617
2	0	0	0	0	505	617
3	0	0	0	0	507	617
4	0	0	0	0	511	617
5	0	0	0	0	514	617
6	0	0	0	0	519	617
7	0	0	0	0	524	617
8	0	0	0	0	527	616
9	0	0	0	0	531	617
10	0	0	0	0	534	617
11	0	0	0	0	535	617
12	0	0	0	0	535	616
13	0	0	0	0	533	616
14	0	0	0	0	529	616
15	0	0	0	0	526	616
0	0	0	0	0	522	615
1	0	0	0	0	519	616
2	0	0	0	0	515	616
3	0	0	0	0	513	616
4	0	0	0	0	511	617
5	0	0	0	0	510	616
6	0	0	0	0	508	616
7	0	0	0	0	509	616
8	0	0	0	0	510	616
9	0	0	0	0	513	616
10	0	0	0	0	515	616
11	0	0	0	0	519	616
12	0	0	0	0	524	617
13	0	0	0	0	527	616
14	0	0	0	0	530	616
15	0	0	0	0	530	616
0	0	0	0	0	529	615
1	0	0	0	0	527	615
2	0	0	0	0	523	615
3	0	0	0	0	519	615
4	0	0	0	0	515	616
5	0	0	0	0	511	615
6	0	0	0	0	509	616
7	0	0	0	0	508	615
8	0	0	0	0	507	616
9	0	0	0	0	507	616
10	0	0	0	0	508	616
11	0	0	0	0	510	615
12	0	0	0	0	512	615
13	0	0	0	0	515	616
14	0	0	0	0	519	615
15	0	0	0	0	522	615
0	0	0	0	0	525	615
1	0	0	0	0	528	615
2	0	0	0	0	529	616
3	0	0	0	0	530	616
4	0	0	0	0	529	616
5	0	0	0	0	528	615
6	0	0	0	0	525	616
7	0	0	0	0	521	616
8	0	0	0	0	517	616
9	0	0	0	0	513	616
10	0	0	0	0	511	615
11	0	0	0	0	508	616
12	0	0	0	0	508	616
13	0	0	0	0	508	616
14	0	0	0	0	509	615
15	0	0	0	0	510	616
0	0	0	0	0	513	616
1	0	0	0	0	515	616
2	0	0	0	0	519	616
3	0	0	0	0	523	616
4	0	0	0	0	526	616
5	0	0	0	0	528	616
6	0	0	0	0	530	615
7	0	0	0	0	530	616
8	0	0	0	0	529	615
9	0	0	0	0	527	616
10	0	0	0	0	524	616
11	0	0	0	0	520	616
12	0	0	0	0	516	616
13	0	0	0	0	512	615
14	0	0	0	0	510	616
15	0	0	0	0	508	616
0	0	0	0	0	507	616
1	0	0	0	0	508	616
2	0	0	0	0	508	616
3	0	0	0	0	509	616
4	0	0	0	0	511	616
5	0	0	0	0	514	617
6	0	0	0	0	517	616
7	0	0	0	0	520	616
8	0	0	0	0	524	616
9	0	0	0	0	526	615
10	0	0	0	0	526	616
11	0	0	0	0	525	615
12	0	0	0	0	524	616
13	0	0	0	0	520	616
14	0	0	0	0	515	615
15	0	0	0	0	508	616
0	0	0	0	0	499	615
1	0	0	0	0	489	616
2	0	0	0	0	479	616
3	0	0	0	0	467	616
4	0	0	0	0	455	616
5	0	0	0	0	443	616
6	0	0	0	0	432	615
7	0	0	0	0	423	616
8	0	0	0	0	415	615
9	0	0	0	0	408	617
10	0	0	0	0	403	615
11	0	0	0	0	400	616
12	0	0	0	0	400	617
13	0	0	0	0	400	616
14	0	0	0	0	402	616
15	0	0	0	0	405	616
0	0	0	0	0	409	616
1	0	0	0	0	414	616
2	0	0	0	0	419	616
3	0	0	0	0	426	616
4	0	0	0	0	430	617
5	0	0	0	0	435	616
6	0	0	0	0	442	617
7	0	0	0	0	447	616
8	0	0	0	0	455	616
9	0	0	0	0	468	616
10	0	0	0	0	490	616
11	0	0	0	0	516	616
12	0	0	0	0	546	616
13	0	0	0	0	581	616
14	0	0	0	0	622	616
15	0	0	0	0	670	616
0	0	0	0	0	723	617
1	0	0	0	0	776	616
2	0	0	0	0	827	616
3	0	0	0	0	870	616
4	0	0	0	0	907	616
5	0	0	0	0	939	616
6	0	0	0	0	963	616
7	0	0	0	0	979	616
8	0	0	0	0	984	616
9	0	0	0	0	984	616
10	0	0	0	0	978	616
11	0	0	0	0	967	616
12	0	0	0	0	952	616
13	0	0	0	0	933	616
14	0	0	0	0	911	615
15	0	0	0	0	888	615
0	0	0	0	0	860	616
1	0	0	0	0	831	616
2	0	0	0	0	801	616
3	0	0	0	0	773	616
4	0	0	0	0	747	616
5	0	0	0	0	723	616
6	0	0	0	0	701	616
7	0	0	0	0	680	616
8	0	0	0	0	661	616
9	0	0	0	0	643	616
10	0	0	0	0	626	616
11	0	0	0	0	611	616
12	0	0	0	0	595	616
13	0	0	0	0	582	616
14	0	0	0	0	569	615
15	0	0	0	0	557	615
0	0	0	0	0	547	615
1	0	0	0	0	537	615
2	0	0	0	0	528	616
3	0	0	0	0	519	615
4	0	0	0	0	512	616
5	0	0	0	0	505	617
6	0	0	0	0	499	617
7	0	0	0	0	494	617
8	0	0	0	0	489	616
9	0	0	0	0	484	616
10	0	0	0	0	478	616
11	0	0	0	0	471	616
12	0	0	0	0	464	615
13	0	0	0	0	456	615
14	0	0	0	0	448	615
15	0	0	0	0	439	615
0	0	0	0	0	432	615
1	0	0	0	0	425	616
2	0	0	0	0	419	615
3	0	0	0	0	415	615
4	0	0	0	0	412	616
5	0	0	0	0	411	615
6	0	0	0	0	409	616
7	0	0	0	0	409	616
8	0	0	0	0	409	616
9	0	0	0	0	410	616
10	0	0	0	0	412	616
11	0	0	0	0	414	616
12	0	0	0	0	417	617
13	0	0	0	0	419	616
14	0	0	0	0	420	616
15	0	0	0	0	419	616
0	0	0	0	0	418	616
1	0	0	0	0	415	615
2	0	0	0	0	412	615
3	0	0	0	0	409	616
4	0	0	0	0	406	617
5	0	0	0	0	402	616
6	0	0	0	0	399	616
7	0	0	0	0	397	616
8	0	0	0	0	397	617
9	0	0	0	0	398	616
10	0	0	0	0	400	616
11	0	0	0	0	403	616
12	0	0	0	0	407	616
13	0	0	0	0	410	615
14	0	0	0	0	414	615
15	0	0	0	0	417	616
0	0	0	0	0	421	616
1	0	0	0	0	424	616
2	0	0	0	0	426	616
3	0	0	0	0	427	615
4	0	0	0	0	427	616
5	0	0	0	0	426	616
6	0	0	0	0	423	616
7	0	0	0	0	420	616
8	0	0	0	0	416	616
9	0	0	0	0	414	616
10	0	0	0	0	412	616
11	0	0	0	0	411	616
12	0	0	0	0	410	616
13	0	0	0	0	411	616
14	0	0	0	0	412	616
15	0	0	0	0	415	616
0	0	0	0	0	417	615
1	0	0	0	0	420	615
2	0	0	0	0	423	616
3	0	0	0	0	427	615
4	0	0	0	0	430	616
5	0	0	0	0	433	616
6	0	0	0	0	435	616
7	0	0	0	0	436	616
8	0	0	0	0	436	616
9	0	0	0	0	435	616
10	0	0	0	0	432	616
11	0	0	0	0	429	617
12	0	0	0	0	426	617
13	0	0	0	0	423	616
14	0	0	0	0	422	615
15	0	0	0	0	420	616
0	0	0	0	0	420	616
1	0	0	0	0	421	616
2	0	0	0	0	423	616
3	0	0	0	0	425	616
4	0	0	0	0	429	616
5	0	0	0	0	432	615
6	0	0	0	0	437	616
7	0	0	0	0	441	616
8	0	0	0	0	444	616
9	0	0	0	0	447	616
10	0	0	0	0	449	616
11	0	0	0	0	449	617
12	0	0	0	0	449	617
13	0	0	0	0	448	616
14	0	0	0	0	445	616
15	0	0	0	0	442	616
0	0	0	0	0	439	616
1	0	0	0	0	436	616
2	0	0	0	0	434	616
3	0	0	0	0	432	615
4	0	0	0	0	432	616
5	0	0	0	0	433	616
6	0	0	0	0	434	616
7	0	0	0	0	436	616
8	0	0	0	0	439	615
9	0	0	0	0	441	616
10	0	0	0	0	444	615
11	0	0	0	0	447	616
12	0	0	0	0	451	616
13	0	0	0	0	453	616
14	0	0	0	0	455	616
15	0	0	0	0	455	616
0	0	0	0	0	454	616
1	0	0	0	0	453	616
2	0	0	0	0	449	616
3	0	0	0	0	446	617
4	0	0	0	0	443	617
5	0	0	0	0	440	617
6	0	0	0	0	438	615
7	0	0	0	0	437	616
8	0	0	0	0	436	616
9	0	0	0	0	438	616
10	0	0	0	0	440	616
11	0	0	0	0	443	616
12	0	0	0	0	446	616
13	0	0	0	0	449	616
14	0	0	0	0	453	616
15	0	0	0	0	456	616
0	0	0	0	0	460	616
1	0	0	0	0	462	616
2	0	0	0	0	463	617
3	0	0	0	0	463	616
4	0	0	0	0	463	616
5	0	0	0	0	460	616
6	0	0	0	0	457	616
7	0	0	0	0	454	617
8	0	0	0	0	450	616
9	0	0	0	0	447	616
10	0	0	0	0	444	616
11	0	0	0	0	443	616
12	0	0	0	0	442	616
13	0	0	0	0	444	616
14	0	0	0	0	445	616
15	0	0	0	0	448	616
0	0	0	0	0	452	616
1	0	0	0	0	455	616
2	0	0	0	0	459	616
3	0	0	0	0	463	616
4	0	0	0	0	466	616
5	0	0	0	0	469	616
6	0	0	0	0	471	616
7	0	0	0	0	471	616
8	0	0	0	0	471	616
9	0	0	0	0	469	616
10	0	0	0	0	467	615
11	0	0	0	0	463	615
12	0	0	0	0	460	616
13	0	0	0	0	456	616
14	0	0	0	0	455	616
15	0	0	0	0	454	616
0	0	0	0	0	454	616
1	0	0	0	0	455	616
2	0	0	0	0	457	616
3	0	0	0	0	460	616
4	0	0	0	0	464	616
5	0	0	0	0	468	615
6	0	0	0	0	472	615
7	0	0	0	0	477	615
8	0	0	0	0	480	616
9	0	0	0	0	484	616
10	0	0	0	0	487	616
11	0	0	0	0	487	615
12	0	0	0	0	487	616
13	0	0	0	0	487	615
14	0	0	0	0	484	615
15	0	0	0	0	481	615
0	0	0	0	0	477	615
1	0	0	0	0	476	615
2	0	0	0	0	475	615
3	0	0	0	0	474	615
4	0	0	0	0	475	616
5	0	0	0	0	477	615
6	0	0	0	0	480	616
7	0	0	0	0	483	616
8	0	0	0	0	487	616
9	0	0	0	0	491	615
10	0	0	0	0	495	616
11	0	0	0	0	499	615
12	0	0	0	0	503	615
13	0	0	0	0	507	615
14	0	0	0	0	511	616
15	0	0	0	0	512	615
0	0	0	0	0	512	616
1	0	0	0	0	512	616
2	0	0	0	0	509	616
3	0	0	0	0	507	615
4	0	0	0	0	504	616
5	0	0	0	0	503	615
6	0	0	0	0	502	616
7	0	0	0	0	501	615
8	0	0	0	0	502	616
9	0	0	0	0	504	616
10	0	0	0	0	506	616
11	0	0	0	0	509	616
12	0	0	0	0	512	616
13	0	0	0	0	516	616
14	0	0	0	0	520	616
15	0	0	0	0	526	616
0	0	0	0	0	530	616
1	0	0	0	0	533	616
2	0	0	0	0	535	616
3	0	0	0	0	535	616
4	0	0	0	0	535	616
5	0	0	0	0	533	616
6	0	0	0	0	530	616
7	0	0	0	0	527	615
8	0	0	0	0	523	616
9	0	0	0	0	520	616
10	0	0	0	0	519	615
11	0	0	0	0	518	616
12	0	0	0	0	518	616
13	0	0	0	0	519	616
14	0	0	0	0	520	616
15	0	0	0	0	522	617
0	0	0	0	0	525	616
1	0	0	0	0	528	616
2	0	0	0	0	532	616
3	0	0	0	0	534	616
4	0	0	0	0	537	616
5	0	0	0	0	540	616
6	0	0	0	0	541	616
7	0	0	0	0	541	616
8	0	0	0	0	540	616
9	0	0	0	0	537	617
10	0	0	0	0	535	616
11	0	0	0	0	531	617
12	0	0	0	0	527	617
13	0	0	0	0	524	616
14	0	0	0	0	521	616
15	0	0	0	0	520	616
0	0	0	0	0	520	616
1	0	0	0	0	521	615
2	0	0	0	0	523	616
3	0	0	0	0	526	616
4	0	0	0	0	529	616
5	0	0	0	0	532	616
6	0	0	0	0	536	616
7	0	0	0	0	539	616
8	0	0	0	0	543	616
9	0	0	0	0	545	616
10	0	0	0	0	546	617
11	0	0	0	0	544	616
12	0	0	0	0	542	616
13	0	0	0	0	537	616
14	0	0	0	0	532	615
15	0	0	0	0	528	616
0	0	0	0	0	523	616
1	0	0	0	0	519	616
2	0	0	0	0	517	616
3	0	0	0	0	516	615
4	0	0	0	0	517	616
5	0	0	0	0	518	615
6	0	0	0	0	521	616
7	0	0	0	0	523	615
8	0	0	0	0	525	615
9	0	0	0	0	528	616
10	0	0	0	0	531	615
11	0	0	0	0	534	616
12	0	0	0	0	536	616
13	0	0	0	0	537	616
14	0	0	0	0	538	616
15	0	0	0	0	537	616
0	0	0	0	0	536	616
1	0	0	0	0	532	615
2	0	0	0	0	527	615
3	0	0	0	0	523	616
4	0	0	0	0	519	616
5	0	0	0	0	516	615
6	0	0	0	0	513	615
7	0	0	0	0	512	615
8	0	0	0	0	511	616
9	0	0	0	0	511	616
10	0	0	0	0	511	616
11	0	0	0	0	513	616
12	0	0	0	0	516	617
13	0	0	0	0	519	616
14	0	0	0	0	522	616
15	0	0	0	0	524	616
0	0	0	0	0	527	616
1	0	0	0	0	529	615
2	0	0	0	0	530	616
3	0	0	0	0	529	615
4	0	0	0	0	528	617
5	0	0	0	0	526	616
6	0	0	0	0	523	616
7	0	0	0	0	519	615
8	0	0	0	0	514	615
9	0	0	0	0	511	615
10	0	0	0	0	510	615
11	0	0	0	0	508	616
12	0	0	0	0	508	616
13	0	0	0	0	509	616
14	0	0	0	0	510	616
15	0	0	0	0	512	616
0	0	0	0	0	514	615
1	0	0	0	0	517	616
2	0	0	0	0	520	616
3	0	0	0	0	524	616
4	0	0	0	0	527	616
5	0	0	0	0	530	615
6	0	0	0	0	531	616
7	0	0	0	0	531	616
8	0	0	0	0	531	616
9	0	0	0	0	528	616
10	0	0	0	0	525	615
11	0	0	0	0	521	616
12	0	0	0	0	517	616
13	0	0	0	0	514	616
14	0	0	0	0	511	616
15	0	0	0	0	508	616
0	0	0	0	0	508	616
1	0	0	0	0	508	616
2	0	0	0	0	509	616
3	0	0	0	0	511	616
4	0	0	0	0	512	616
5	0	0	0	0	514	616
6	0	0	0	0	516	615
7	0	0	0	0	520	616
8	0	0	0	0	522	615
9	0	0	0	0	525	616
10	0	0	0	0	526	616
11	0	0	0	0	526	616
12	0	0	0	0	525	616
13	0	0	0	0	523	616
14	0	0	0	0	519	616
15	0	0	0	0	515	616
0	0	0	0	0	512	615
1	0	0	0	0	510	616
2	0	0	0	0	509	616
3	0	0	0	0	508	616
4	0	0	0	0	509	616
5	0	0	0	0	510	616
6	0	0	0	0	512	616
7	0	0	0	0	514	616
8	0	0	0	0	517	616
9	0	0	0	0	519	616
10	0	0	0	0	521	615
11	0	0	0	0	524	615
12	0	0	0	0	527	616
13	0	0	0	0	529	615
14	0	0	0	0	529	616
15	0	0	0	0	531	615
0	0	0	0	0	531	615
1	0	0	0	0	532	616
2	0	0	0	0	530	616
3	0	0	0	0	528	616
4	0	0	0	0	525	616
5	0	0	0	0	522	616
6	0	0	0	0	519	616
7	0	0	0	0	517	615
8	0	0	0	0	515	616
9	0	0	0	0	512	615
10	0	0	0	0	510	616
11	0	0	0	0	508	616
12	0	0	0	0	507	616
13	0	0	0	0	507	616
14	0	0	0	0	508	617
15	0	0	0	0	511	616
0	0	0	0	0	514	617
1	0	0	0	0	517	616
2	0	0	0	0	520	616
3	0	0	0	0	521	615
4	0	0	0	0	523	616
5	0	0	0	0	523	616
6	0	0	0	0	522	616
7	0	0	0	0	520	616
8	0	0	0	0	517	616
9	0	0	0	0	515	616
10	0	0	0	0	513	616
11	0	0	0	0	512	615
12	0	0	0	0	513	615
13	0	0	0	0	513	615
14	0	0	0	0	514	615
15	0	0	0	0	516	615
0	0	0	0	0	518	615
1	0	0	0	0	521	616
2	0	0	0	0	524	615
3	0	0	0	0	527	615
4	0	0	0	0	531	616
5	0	0	0	0	533	615
6	0	0	0	0	533	616
7	0	0	0	0	531	616
8	0	0	0	0	529	616
9	0	0	0	0	525	616
10	0	0	0	0	520	616
11	0	0	0	0	516	616
12	0	0	0	0	511	616
13	0	0	0	0	507	616
14	0	0	0	0	505	616
15	0	0	0	0	504	616
0	0	0	0	0	504	616
1	0	0	0	0	505	616
2	0	0	0	0	508	615
3	0	0	0	0	511	616
4	0	0	0	0	513	616
5	0	0	0	0	518	617
6	0	0	0	0	521	615
7	0	0	0	0	524	615
8	0	0	0	0	529	616
9	0	0	0	0	532	615
10	0	0	0	0	534	616
11	0	0	0	0	534	616
12	0	0	0	0	534	616
13	0	0	0	0	531	617
14	0	0	0	0	527	616
15	0	0	0	0	523	617
0	0	0	0	0	518	616
1	0	0	0	0	513	616
2	0	0	0	0	511	616
3	0	0	0	0	508	617
4	0	0	0	0	507	617
5	0	0	0	0	507	617
6	0	0	0	0	508	616
7	0	0	0	0	510	616
8	0	0	0	0	514	616
9	0	0	0	0	518	617
10	0	0	0	0	521	616
11	0	0	0	0	526	616
12	0	0	0	0	529	616
13	0	0	0	0	531	616
14	0	0	0	0	531	616
15	0	0	0	0	531	616
0	0	0	0	0	531	616
1	0	0	0	0	528	616
2	0	0	0	0	524	616
3	0	0	0	0	521	616
4	0	0	0	0	518	616
5	0	0	0	0	515	615
6	0	0	0	0	512	616
7	0	0	0	0	511	616
8	0	0	0	0	511	616
9	0	0	0	0	512	616
10	0	0	0	0	513	616
11	0	0	0	0	515	616
12	0	0	0	0	518	617
13	0	0	0	0	521	616
14	0	0	0	0	524	616
15	0	0	0	0	527	616
0	0	0	0	0	531	616
1	0	0	0	0	533	616
2	0	0	0	0	535	616
3	0	0	0	0	534	616
4	0	0	0	0	533	616
5	0	0	0	0	531	616
6	0	0	0	0	527	615
7	0	0	0	0	524	615
8	0	0	0	0	519	615
9	0	0	0	0	516	616
10	0	0	0	0	515	615
11	0	0	0	0	514	615
12	0	0	0	0	514	616
13	0	0	0	0	515	615
14	0	0	0	0	516	615
15	0	0	0	0	519	615
0	0	0	0	0	522	615
1	0	0	0	0	525	615
2	0	0	0	0	529	615
3	0	0	0	0	534	615
4	0	0	0	0	537	616
5	0	0	0	0	539	615
6	0	0	0	0	539	616
7	0	0	0	0	536	616
8	0	0	0	0	534	617
9	0	0	0	0	530	616
10	0	0	0	0	526	616
11	0	0	0	0	520	617
12	0	0	0	0	515	616
13	0	0	0	0	511	616
14	0	0	0	0	507	615
15	0	0	0	0	504	615
0	0	0	0	0	504	616
1	0	0	0	0	504	616
2	0	0	0	0	505	616
3	0	0	0	0	508	616
4	0	0	0	0	511	616
5	0	0	0	0	514	616
6	0	0	0	0	516	615
7	0	0	0	0	518	616
8	0	0	0	0	520	615
9	0	0	0	0	522	615
10	0	0	0	0	523	615
11	0	0	0	0	524	615
12	0	0	0	0	524	616
13	0	0	0	0	522	616
14	0	0	0	0	520	616
15	0	0	0	0	517	616
0	0	0	0	0	513	617
1	0	0	0	0	509	617
2	0	0	0	0	506	617
3	0	0	0	0	504	617
4	0	0	0	0	504	617
5	0	0	0	0	505	616
6	0	0	0	0	506	616
7	0	0	0	0	508	616
8	0	0	0	0	510	616
9	0	0	0	0	512	616
10	0	0	0	0	513	616
11	0	0	0	0	513	616
12	0	0	0	0	513	616
13	0	0	0	0	513	616
14	0	0	0	0	511	616
15	0	0	0	0	509	616
0	0	0	0	0	508	615
1	0	0	0	0	505	616
2	0	0	0	0	502	616
3	0	0	0	0	500	616
4	0	0	0	0	499	616
5	0	0	0	0	499	616
6	0	0	0	0	499	616
7	0	0	0	0	500	616
8	0	0	0	0	502	617
9	0	0	0	0	502	616
10	0	0	0	0	503	617
11	0	0	0	0	505	616
12	0	0	0	0	509	616
13	0	0	0	0	513	616
14	0	0	0	0	517	616
15	0	0	0	0	521	616
0	0	0	0	0	526	616
1	0	0	0	0	528	615
2	0	0	0	0	531	616
3	0	0	0	0	531	616
4	0	0	0	0	530	616
5	0	0	0	0	527	616
6	0	0	0	0	523	616
7	0	0	0	0	519	616
8	0	0	0	0	514	616
9	0	0	0	0	509	617
10	0	0	0	0	505	616
11	0	0	0	0	503	616
12	0	0	0	0	502	617
13	0	0	0	0	502	616
14	0	0	0	0	502	616
15	0	0	0	0	504	616
0	0	0	0	0	507	616
1	0	0	0	0	510	616
2	0	0	0	0	513	616
3	0	0	0	0	517	616
4	0	0	0	0	521	616
5	0	0	0	0	523	616
6	0	0	0	0	524	616
7	0	0	0	0	524	615
8	0	0	0	0	523	615
9	0	0	0	0	519	615
10	0	0	0	0	516	615
11	0	0	0	0	513	615
12	0	0	0	0	510	615
13	0	0	0	0	509	615
14	0	0	0	0	508	616
15	0	0	0	0	508	616
0	0	0	0	0	509	617
1	0	0	0	0	510	617
2	0	0	0	0	512	617
3	0	0	0	0	514	617
4	0	0	0	0	516	616
5	0	0	0	0	518	615
6	0	0	0	0	520	615
7	0	0	0	0	523	615
8	0	0	0	0	525	615
9	0	0	0	0	527	615
10	0	0	0	0	528	616
11	0	0	0	0	528	616
12	0	0	0	0	528	616
13	0	0	0	0	525	616
14	0	0	0	0	523	615
15	0	0	0	0	518	616
0	0	0	0	0	515	615
1	0	0	0	0	513	616
2	0	0	0	0	511	615
3	0	0	0	0	508	615
4	0	0	0	0	508	616
5	0	0	0	0	508	617
6	0	0	0	0	508	617
7	0	0	0	0	510	616
8	0	0	0	0	512	617
9	0	0	0	0	515	617
10	0	0	0	0	520	616
11	0	0	0	0	524	616
12	0	0	0	0	528	616
13	0	0	0	0	531	616
14	0	0	0	0	531	616
15	0	0	0	0	531	616
0	0	0	0	0	529	616
1	0	0	0	0	526	616
2	0	0	0	0	520	616
3	0	0	0	0	513	616
4	0	0	0	0	506	616
5	0	0	0	0	500	616
6	0	0	0	0	496	615
7	0	0	0	0	494	615
8	0	0	0	0	494	616
9	0	0	0	0	496	615
10	0	0	0	0	498	616
11	0	0	0	0	502	616
12	0	0	0	0	505	617
13	0	0	0	0	508	617
14	0	0	0	0	512	616
15	0	0	0	0	515	616
0	0	0	0	0	519	616
1	0	0	0	0	523	615
2	0	0	0	0	524	616
3	0	0	0	0	523	616
4	0	0	0	0	520	617
5	0	0	0	0	516	617
6	0	0	0	0	509	616
7	0	0	0	0	501	616
8	0	0	0	0	490	615
9	0	0	0	0	479	615
10	0	0	0	0	466	614
11	0	0	0	0	451	614
12	0	0	0	0	438	614
13	0	0	0	0	426	615
14	0	0	0	0	416	615
15	0	0	0	0	408	615
0	0	0	0	0	401	615
1	0	0	0	0	396	615
2	0	0	0	0	394	616
3	0	0	0	0	395	615
4	0	0	0	0	397	616
5	0	0	0	0	399	616
6	0	0	0	0	401	616
7	0	0	0	0	404	616
8	0	0	0	0	409	617
9	0	0	0	0	414	617
10	0	0	0	0	418	617
11	0	0	0	0	423	617
12	0	0	0	0	426	617
13	0	0	0	0	430	616
14	0	0	0	0	436	616
15	0	0	0	0	446	615
0	0	0	0	0	464	615
1	0	0	0	0	488	616
2	0	0	0	0	516	616
3	0	0	0	0	551	616
4	0	0	0	0	595	616
5	0	0	0	0	647	616
6	0	0	0	0	702	615
7	0	0	0	0	760	615
8	0	0	0	0	821	615
9	0	0	0	0	877	615
10	0	0	0	0	927	616
11	0	0	0	0	967	615
12	0	0	0	0	1000	617
13	0	0	0	0	1020	616
14	0	0	0	0	1022	616
15	0	0	0	0	1022	616
0	0	0	0	0	1022	616
1	0	0	0	0	1022	616
2	0	0	0	0	1022	616
3	0	0	0	0	1021	615
4	0	0	0	0	1004	616
5	0	0	0	0	982	615
6	0	0	0	0	958	615
7	0	0	0	0	931	615
8	0	0	0	0	901	615
9	0	0	0	0	868	615
10	0	0	0	0	834	615
11	0	0	0	0	803	616
12	0	0	0	0	774	615
13	0	0	0	0	746	615
14	0	0	0	0	721	615
15	0	0	0	0	697	615
0	0	0	0	0	674	615
1	0	0	0	0	650	615
2	0	0	0	0	628	615
3	0	0	0	0	607	616
4	0	0	0	0	587	616
5	0	0	0	0	568	616
6	0	0	0	0	549	616
7	0	0	0	0	531	616
8	0	0	0	0	515	616
9	0	0	0	0	500	616
10	0	0	0	0	487	616
11	0	0	0	0	475	616
12	0	0	0	0	464	616
13	0	0	0	0	455	617
14	0	0	0	0	448	616
15	0	0	0	0	443	616
0	0	0	0	0	438	616
1	0	0	0	0	432	615
2	0	0	0	0	425	616
3	0	0	0	0	417	615
4	0	0	0	0	410	615
5	0	0	0	0	401	615
6	0	0	0	0	393	615
7	0	0	0	0	386	616
8	0	0	0	0	379	615
9	0	0	0	0	372	615
10	0	0	0	0	367	616
11	0	0	0	0	362	615
12	0	0	0	0	359	617
13	0	0	0	0	358	615
14	0	0	0	0	358	616
15	0	0	0	0	359	616
0	0	0	0	0	361	615
1	0	0	0	0	365	616
2	0	0	0	0	369	616
3	0	0	0	0	373	617
4	0	0	0	0	377	617
5	0	0	0	0	381	616
6	0	0	0	0	384	616
7	0	0	0	0	385	615
8	0	0	0	0	387	615
9	0	0	0	0	387	616
10	0	0	0	0	385	615
11	0	0	0	0	383	616
12	0	0	0	0	379	616
13	0	0	0	0	376	616
14	0	0	0	0	374	616
15	0	0	0	0	372	616
0	0	0	0	0	373	616
1	0	0	0	0	374	615
2	0	0	0	0	376	615
3	0	0	0	0	379	615
4	0	0	0	0	383	615
5	0	0	0	0	388	615
6	0	0	0	0	393	615
7	0	0	0	0	398	616
8	0	0	0	0	402	616
9	0	0	0	0	406	616
10	0	0	0	0	408	616
11	0	0	0	0	408	616
12	0	0	0	0	408	616
13	0	0	0	0	407	616
14	0	0	0	0	404	615
15	0	0	0	0	401	616
0	0	0	0	0	398	616
1	0	0	0	0	396	616
2	0	0	0	0	394	617
3	0	0	0	0	393	615
4	0	0	0	0	393	616
5	0	0	0	0	394	615
6	0	0	0	0	395	615
7	0	0	0	0	397	615
8	0	0	0	0	401	615
9	0	0	0	0	405	616
10	0	0	0	0	410	615
11	0	0	0	0	415	616
12	0	0	0	0	421	616
13	0	0	0	0	425	616
14	0	0	0	0	428	616
15	0	0	0	0	430	615
0	0	0	0	0	430	615
1	0	0	0	0	428	616
2	0	0	0	0	426	615
3	0	0	0	0	423	616
4	0	0	0	0	421	616
5	0	0	0	0	419	617
6	0	0	0	0	417	617
7	0	0	0	0	415	617
8	0	0	0	0	415	617
9	0	0	0	0	415	617
10	0	0	0	0	416	616
11	0	0	0	0	417	615
12	0	0	0	0	419	615
13	0	0	0	0	421	615
14	0	0	0	0	424	615
15	0	0	0	0	427	616
0	0	0	0	0	430	616
1	0	0	0	0	433	616
2	0	0	0	0	434	616
3	0	0	0	0	436	616
4	0	0	0	0	436	617
5	0	0	0	0	435	616
6	0	0	0	0	433	615
7	0	0	0	0	431	615
8	0	0	0	0	427	615
9	0	0	0	0	425	615
10	0	0	0	0	423	615
11	0	0	0	0	422	615
12	0	0	0	0	422	616
13	0	0	0	0	423	616
14	0	0	0	0	423	617
15	0	0	0	0	425	616
0	0	0	0	0	428	615
1	0	0	0	0	431	616
2	0	0	0	0	434	616
3	0	0	0	0	436	615
4	0	0	0	0	439	616
5	0	0	0	0	441	616
6	0	0	0	0	442	617
7	0	0	0	0	443	617
8	0	0	0	0	443	617
9	0	0	0	0	442	616
10	0	0	0	0	440	616
11	0	0	0	0	440	616
12	0	0	0	0	438	616
13	0	0	0	0	435	615
14	0	0	0	0	432	615
15	0	0	0	0	429	616
0	0	0	0	0	427	616
1	0	0	0	0	425	616
2	0	0	0	0	424	615
3	0	0	0	0	425	616
4	0	0	0	0	428	616
5	0	0	0	0	430	616
6	0	0	0	0	434	616
7	0	0	0	0	439	616
8	0	0	0	0	444	616
9	0	0	0	0	448	616
10	0	0	0	0	451	616
11	0	0	0	0	452	616
12	0	0	0	0	452	617
13	0	0	0	0	451	616
14	0	0	0	0	449	616
15	0	0	0	0	446	616
0	0	0	0	0	442	616
1	0	0	0	0	440	616
2	0	0	0	0	438	615
3	0	0	0	0	436	615
4	0	0	0	0	434	615
5	0	0	0	0	434	616
6	0	0	0	0	434	616
7	0	0	0	0	436	615
8	0	0	0	0	438	615
9	0	0	0	0	440	615
10	0	0	0	0	444	615
11	0	0	0	0	447	616
12	0	0	0	0	451	616
13	0	0	0	0	454	616
14	0	0	0	0	455	616
15	0	0	0	0	455	616
0	0	0	0	0	456	616
1	0	0	0	0	457	616
2	0	0	0	0	456	615
3	0	0	0	0	455	615
4	0	0	0	0	452	615
5	0	0	0	0	450	615
6	0	0	0	0	448	615
7	0	0	0	0	447	615
8	0	0	0	0	447	615
9	0	0	0	0	447	615
10	0	0	0	0	447	615
11	0	0	0	0	449	615
12	0	0	0	0	451	616
13	0	0	0	0	454	615
14	0	0	0	0	458	615
15	0	0	0	0	462	616
0	0	0	0	0	465	616
1	0	0	0	0	469	616
2	0	0	0	0	473	616
3	0	0	0	0	477	616
4	0	0	0	0	480	617
5	0	0	0	0	480	617
6	0	0	0	0	478	616
7	0	0	0	0	475	616
8	0	0	0	0	472	616
9	0	0	0	0	470	616
10	0	0	0	0	468	616
11	0	0	0	0	466	615
12	0	0	0	0	466	616
13	0	0	0	0	467	616
14	0	0	0	0	470	616
15	0	0	0	0	475	616
0	0	0	0	0	481	616
1	0	0	0	0	488	616
2	0	0	0	0	495	615
3	0	0	0	0	500	615
4	0	0	0	0	506	616
5	0	0	0	0	511	616
6	0	0	0	0	515	616
7	0	0	0	0	516	615
8	0	0	0	0	517	616
9	0	0	0	0	516	616
10	0	0	0	0	514	616
11	0	0	0	0	511	616
12	0	0	0	0	508	616
13	0	0	0	0	504	615
14	0	0	0	0	502	616
15	0	0	0	0	500	616
0	0	0	0	0	499	615
1	0	0	0	0	499	615
2	0	0	0	0	499	616
3	0	0	0	0	500	615
4	0	0	0	0	503	616
5	0	0	0	0	506	616
6	0	0	0	0	510	616
7	0	0	0	0	516	615
8	0	0	0	0	524	615
9	0	0	0	0	531	615
10	0	0	0	0	536	615
11	0	0	0	0	539	615
12	0	0	0	0	541	616
13	0	0	0	0	540	615
14	0	0	0	0	537	616
15	0	0	0	0	533	616
0	0	0	0	0	528	615
1	0	0	0	0	525	616
2	0	0	0	0	522	616
3	0	0	0	0	521	615
4	0	0	0	0	521	616
5	0	0	0	0	521	615
6	0	0	0	0	522	616
7	0	0	0	0	524	616
8	0	0	0	0	527	616
9	0	0	0	0	532	616
10	0	0	0	0	536	617
11	0	0	0	0	540	616
12	0	0	0	0	545	617
13	0	0	0	0	548	616
14	0	0	0	0	550	616
15	0	0	0	0	549	616
0	0	0	0	0	548	616
1	0	0	0	0	544	616
2	0	0	0	0	540	615
3	0	0	0	0	536	616
4	0	0	0	0	532	616
5	0	0	0	0	529	616
6	0	0	0	0	526	616
7	0	0	0	0	524	616
8	0	0	0	0	523	617
9	0	0	0	0	523	616
10	0	0	0	0	524	616
11	0	0	0	0	526	616
12	0	0	0	0	529	617
13	0	0	0	0	533	617
14	0	0	0	0	537	616
15	0	0	0	0	542	616
0	0	0	0	0	547	617
1	0	0	0	0	551	616
2	0	0	0	0	553	616
3	0	0	0	0	554	616
4	0	0	0	0	554	616
5	0	0	0	0	551	615
6	0	0	0	0	546	615
7	0	0	0	0	542	616
8	0	0	0	0	537	616
9	0	0	0	0	533	616
10	0	0	0	0	530	616
11	0	0	0	0	528	615
12	0	0	0	0	528	617
13	0	0	0	0	527	616
14	0	0	0	0	528	615
15	0	0	0	0	531	616
0	0	0	0	0	534	616
1	0	0	0	0	539	616
2	0	0	0	0	543	615
3	0	0	0	0	547	616
4	0	0	0	0	551	616
5	0	0	0	0	555	616
6	0	0	0	0	556	615
7	0	0	0	0	556	616
8	0	0	0	0	555	616
9	0	0	0	0	551	616
10	0	0	0	0	547	615
11	0	0	0	0	542	617
12	0	0	0	0	536	616
13	0	0	0	0	532	616
14	0	0	0	0	528	616
15	0	0	0	0	525	616
0	0	0	0	0	524	616
1	0	0	0	0	523	616
2	0	0	0	0	524	616
3	0	0	0	0	527	616
4	0	0	0	0	530	615
5	0	0	0	0	534	615
6	0	0	0	0	537	616
7	0	0	0	0	542	616
8	0	0	0	0	546	616
9	0	0	0	0	549	616
10	0	0	0	0	550	616
11	0	0	0	0	550	616
12	0	0	0	0	548	616
13	0	0	0	0	545	616
14	0	0	0	0	539	616
15	0	0	0	0	532	616
0	0	0	0	0	525	615
1	0	0	0	0	519	615
2	0	0	0	0	515	616
3	0	0	0	0	512	616
4	0	0	0	0	510	616
5	0	0	0	0	510	615
6	0	0	0	0	510	616
7	0	0	0	0	512	616
8	0	0	0	0	515	616
9	0	0	0	0	521	616
10	0	0	0	0	526	616
11	0	0	0	0	532	616
12	0	0	0	0	537	615
13	0	0	0	0	540	616
14	0	0	0	0	542	616
15	0	0	0	0	543	616
0	0	0	0	0	541	615
1	0	0	0	0	536	615
2	0	0	0	0	531	616
3	0	0	0	0	526	615
4	0	0	0	0	519	616
5	0	0	0	0	514	616
6	0	0	0	0	510	616
7	0	0	0	0	507	616
8	0	0	0	0	508	616
9	0	0	0	0	511	616
10	0	0	0	0	515	616
11	0	0	0	0	518	616
12	0	0	0	0	520	616
13	0	0	0	0	522	616
14	0	0	0	0	524	615
15	0	0	0	0	527	616
0	0	0	0	0	531	616
1	0	0	0	0	534	616
2	0	0	0	0	536	616
3	0	0	0	0	536	616
4	0	0	0	0	535	616
5	0	0	0	0	532	616
6	0	0	0	0	528	615
7	0	0	0	0	522	616
8	0	0	0	0	516	616
9	0	0	0	0	513	616
10	0	0	0	0	512	615
11	0	0	0	0	512	616
12	0	0	0	0	512	616
13	0	0	0	0	513	616
14	0	0	0	0	513	616
15	0	0	0	0	514	616
0	0	0	0	0	516	616
1	0	0	0	0	519	616
2	0	0	0	0	522	615
3	0	0	0	0	527	615
4	0	0	0	0	531	616
5	0	0	0	0	535	615
6	0	0	0	0	536	615
7	0	0	0	0	536	616
8	0	0	0	0	536	615
9	0	0	0	0	533	616
10	0	0	0	0	529	615
11	0	0	0	0	526	615
12	0	0	0	0	522	616
13	0	0	0	0	519	615
14	0	0	0	0	515	615
15	0	0	0	0	512	615
0	0	0	0	0	512	615
1	0	0	0	0	512	615
2	0	0	0	0	513	615
3	0	0	0	0	515	615
4	0	0	0	0	519	615
5	0	0	0	0	524	616
6	0	0	0	0	529	615
7	0	0	0	0	535	615
8	0	0	0	0	539	615
9	0	0	0	0	543	615
10	0	0	0	0	544	616
11	0	0	0	0	543	615
12	0	0	0	0	542	616
13	0	0	0	0	537	616
14	0	0	0	0	532	615
15	0	0	0	0	527	615
0	0	0	0	0	523	616
1	0	0	0	0	519	616
2	0	0	0	0	516	616
3	0	0	0	0	513	616
4	0	0	0	0	512	616
5	0	0	0	0	511	616
6	0	0	0	0	511	616
7	0	0	0	0	513	615
8	0	0	0	0	517	615
9	0	0	0	0	522	616
10	0	0	0	0	526	616
11	0	0	0	0	530	616
12	0	0	0	0	534	616
13	0	0	0	0	537	615
14	0	0	0	0	539	616
15	0	0	0	0	540	616
0	0	0	0	0	541	616
1	0	0	0	0	540	616
2	0	0	0	0	537	615
3	0	0	0	0	534	617
4	0	0	0	0	529	616
5	0	0	0	0	526	615
6	0	0	0	0	523	615
7	0	0	0	0	520	615
8	0	0	0	0	519	616
9	0	0	0	0	519	615
10	0	0	0	0	519	615
11	0	0	0	0	521	615
12	0	0	0	0	525	615
13	0	0	0	0	529	615
14	0	0	0	0	534	616
15	0	0	0	0	539	615
0	0	0	0	0	544	615
1	0	0	0	0	546	615
2	0	0	0	0	547	616
3	0	0	0	0	546	616
4	0	0	0	0	544	616
5	0	0	0	0	540	616
6	0	0	0	0	536	616
7	0	0	0	0	530	616
8	0	0	0	0	524	616
9	0	0	0	0	519	616
10	0	0	0	0	515	616
11	0	0	0	0	513	615
12	0	0	0	0	512	616
13	0	0	0	0	512	616
14	0	0	0	0	513	616
15	0	0	0	0	517	616
0	0	0	0	0	519	616
1	0	0	0	0	523	616
2	0	0	0	0	527	615
3	0	0	0	0	531	616
4	0	0	0	0	536	616
5	0	0	0	0	539	615
6	0	0	0	0	541	616
7	0	0	0	0	544	616
8	0	0	0	0	543	616
9	0	0	0	0	540	616
10	0	0	0	0	534	616
11	0	0	0	0	528	616
12	0	0	0	0	522	616
13	0	0	0	0	517	616
14	0	0	0	0	514	616
15	0	0	0	0	512	615
0	0	0	0	0	511	616
1	0	0	0	0	511	616
2	0	0	0	0	512	616
3	0	0	0	0	514	616
4	0	0	0	0	518	616
5	0	0	0	0	523	616
6	0	0	0	0	528	615
7	0	0	0	0	535	615
8	0	0	0	0	540	615
9	0	0	0	0	543	615
10	0	0	0	0	542	616
11	0	0	0	0	540	615
12	0	0	0	0	537	615
13	0	0	0	0	530	615
14	0	0	0	0	524	615
15	0	0	0	0	517	616
0	0	0	0	0	509	616
1	0	0	0	0	503	616
2	0	0	0	0	499	616
3	0	0	0	0	498	616
4	0	0	0	0	499	616
5	0	0	0	0	503	616
6	0	0	0	0	507	616
7	0	0	0	0	511	615
8	0	0	0	0	515	615
9	0	0	0	0	520	616
10	0	0	0	0	525	616
11	0	0	0	0	530	615
12	0	0	0	0	534	616
13	0	0	0	0	536	615
14	0	0	0	0	537	615
15	0	0	0	0	536	615
0	0	0	0	0	533	615
1	0	0	0	0	529	616
2	0	0	0	0	525	615
3	0	0	0	0	520	615
4	0	0	0	0	513	616
5	0	0	0	0	508	615
6	0	0	0	0	502	616
7	0	0	0	0	497	616
8	0	0	0	0	494	616
9	0	0	0	0	493	617
10	0	0	0	0	492	616
11	0	0	0	0	494	616
12	0	0	0	0	497	617
13	0	0	0	0	501	616
14	0	0	0	0	506	616
15	0	0	0	0	511	616
0	0	0	0	0	516	615
1	0	0	0	0	522	616
2	0	0	0	0	526	616
3	0	0	0	0	529	616
4	0	0	0	0	531	616
5	0	0	0	0	529	615
6	0	0	0	0	526	616
7	0	0	0	0	521	616
8	0	0	0	0	515	616
9	0	0	0	0	511	616
10	0	0	0	0	508	616
11	0	0	0	0	505	616
12	0	0	0	0	505	616
13	0	0	0	0	505	616
14	0	0	0	0	507	616
15	0	0	0	0	511	615
0	0	0	0	0	516	615
1	0	0	0	0	522	616
2	0	0	0	0	528	615
3	0	0	0	0	533	616
4	0	0	0	0	537	616
5	0	0	0	0	539	616
6	0	0	0	0	539	616
7	0	0	0	0	536	616
8	0	0	0	0	533	616
9	0	0	0	0	526	617
10	0	0	0	0	519	616
11	0	0	0	0	512	616
12	0	0	0	0	507	616
13	0	0	0	0	503	616
14	0	0	0	0	501	615
15	0	0	0	0	500	615
0	0	0	0	0	500	616
1	0	0	0	0	502	615
2	0	0	0	0	504	616
3	0	0	0	0	508	616
4	0	0	0	0	513	616
5	0	0	0	0	517	616
6	0	0	0	0	523	616
7	0	0	0	0	527	616
8	0	0	0	0	531	615
9	0	0	0	0	535	616
10	0	0	0	0	536	616
11	0	0	0	0	535	615
12	0	0	0	0	533	616
13	0	0	0	0	529	615
14	0	0	0	0	524	615
15	0	0	0	0	519	616
0	0	0	0	0	514	616
1	0	0	0	0	510	616
2	0	0	0	0	506	615
3	0	0	0	0	503	615
4	0	0	0	0	501	616
5	0	0	0	0	501	615
6	0	0	0	0	502	615
7	0	0	0	0	505	615
8	0	0	0	0	508	615
9	0	0	0	0	511	616
10	0	0	0	0	516	615
11	0	0	0	0	520	615
12	0	0	0	0	526	617
13	0	0	0	0	529	616
14	0	0	0	0	531	617
15	0	0	0	0	531	616
0	0	0	0	0	531	616
1	0	0	0	0	527	616
2	0	0	0	0	522	615
3	0	0	0	0	517	616
4	0	0	0	0	511	616
5	0	0	0	0	508	615
6	0	0	0	0	504	616
7	0	0	0	0	502	616
8	0	0	0	0	501	616
9	0	0	0	0	501	616
10	0	0	0	0	502	616
11	0	0	0	0	504	616
12	0	0	0	0	508	616
13	0	0	0	0	512	616
14	0	0	0	0	516	616
15	0	0	0	0	522	615
0	0	0	0	0	527	616
1	0	0	0	0	532	615
2	0	0	0	0	534	616
3	0	0	0	0	534	615
4	0	0	0	0	533	617
5	0	0	0	0	530	617
6	0	0	0	0	525	616
7	0	0	0	0	520	616
8	0	0	0	0	515	615
9	0	0	0	0	509	616
10	0	0	0	0	504	616
11	0	0	0	0	499	616
12	0	0	0	0	496	616
13	0	0	0	0	493	615
14	0	0	0	0	492	616
15	0	0	0	0	492	616
0	0	0	0	0	494	615
1	0	0	0	0	497	616
2	0	0	0	0	501	616
3	0	0	0	0	507	615
4	0	0	0	0	513	616
5	0	0	0	0	518	616
6	0	0	0	0	523	616
7	0	0	0	0	525	615
8	0	0	0	0	524	616
9	0	0	0	0	519	615
10	0	0	0	0	511	616
11	0	0	0	0	500	616
12	0	0	0	0	487	616
13	0	0	0	0	473	616
14	0	0	0	0	459	616
15	0	0	0	0	446	616
0	0	0	0	0	433	616
1	0	0	0	0	422	616
2	0	0	0	0	413	616
3	0	0	0	0	406	616
4	0	0	0	0	399	616
5	0	0	0	0	397	616
6	0	0	0	0	396	616
7	0	0	0	0	398	616
8	0	0	0	0	400	616
9	0	0	0	0	404	615
10	0	0	0	0	408	616
11	0	0	0	0	414	616
12	0	0	0	0	421	616
13	0	0	0	0	426	615
14	0	0	0	0	428	615
15	0	0	0	0	432	615
0	0	0	0	0	436	616
1	0	0	0	0	443	616
2	0	0	0	0	452	616
3	0	0	0	0	469	615
4	0	0	0	0	494	616
5	0	0	0	0	520	616
6	0	0	0	0	553	616
7	0	0	0	0	595	616
8	0	0	0	0	646	616
9	0	0	0	0	700	616
10	0	0	0	0	758	616
11	0	0	0	0	818	615
12	0	0	0	0	874	616
13	0	0	0	0	925	615
14	0	0	0	0	966	616
15	0	0	0	0	997	616
0	0	0	0	0	1018	615
1	0	0	0	0	1022	616
2	0	0	0	0	1022	615
3	0	0	0	0	1022	616
4	0	0	0	0	1022	616
5	0	0	0	0	1021	615
6	0	0	0	0	1007	615
7	0	0	0	0	989	616
8	0	0	0	0	968	615
9	0	0	0	0	944	615
10	0	0	0	0	916	616
11	0	0	0	0	886	616
12	0	0	0	0	852	616
13	0	0	0	0	818	616
14	0	0	0	0	787	616
15	0	0	0	0	759	615
0	0	0	0	0	734	616
1	0	0	0	0	711	615
2	0	0	0	0	688	616
3	0	0	0	0	668	616
4	0	0	0	0	648	616
5	0	0	0	0	630	616
6	0	0	0	0	610	616
7	0	0	0	0	592	616
8	0	0	0	0	574	615
9	0	0	0	0	556	616
10	0	0	0	0	537	616
11	0	0	0	0	520	615
12	0	0	0	0	506	617
13	0	0	0	0	493	615
14	0	0	0	0	481	615
15	0	0	0	0	471	615
0	0	0	0	0	462	615
1	0	0	0	0	455	616
2	0	0	0	0	450	616
3	0	0	0	0	446	616
4	0	0	0	0	441	616
5	0	0	0	0	436	616
6	0	0	0	0	429	616
7	0	0	0	0	423	616
8	0	0	0	0	416	615
9	0	0	0	0	408	616
10	0	0	0	0	401	616
11	0	0	0	0	394	615
12	0	0	0	0	387	616
13	0	0	0	0	382	616
14	0	0	0	0	378	616
15	0	0	0	0	376	616
0	0	0	0	0	375	616
1	0	0	0	0	376	616
2	0	0	0	0	376	616
3	0	0	0	0	379	616
4	0	0	0	0	381	616
5	0	0	0	0	384	616
6	0	0	0	0	386	616
7	0	0	0	0	389	616
8	0	0	0	0	391	616
9	0	0	0	0	391	616
10	0	0	0	0	391	616
11	0	0	0	0	392	616
12	0	0	0	0	392	617
13	0	0	0	0	391	616
14	0	0	0	0	390	616
15	0	0	0	0	388	616
0	0	0	0	0	387	616
1	0	0	0	0	385	616
2	0	0	0	0	383	616
3	0	0	0	0	381	616
4	0	0	0	0	381	616
5	0	0	0	0	382	615
6	0	0	0	0	383	616
7	0	0	0	0	385	615
8	0	0	0	0	388	616
9	0	0	0	0	391	616
10	0	0	0	0	395	615
11	0	0	0	0	399	616
12	0	0	0	0	403	616
13	0	0	0	0	408	616
14	0	0	0	0	412	616
15	0	0	0	0	413	615
0	0	0	0	0	415	616
1	0	0	0	0	414	615
2	0	0	0	0	412	615
3	0	0	0	0	408	616
4	0	0	0	0	404	616
5	0	0	0	0	401	616
6	0	0	0	0	400	616
7	0	0	0	0	398	616
8	0	0	0	0	398	616
9	0	0	0	0	399	616
10	0	0	0	0	401	616
11	0	0	0	0	404	616
12	0	0	0	0	409	616
13	0	0	0	0	412	616
14	0	0	0	0	417	616
15	0	0	0	0	421	616
0	0	0	0	0	425	616
1	0	0	0	0	428	616
2	0	0	0	0	430	616
3	0	0	0	0	430	615
4	0	0	0	0	427	616
5	0	0	0	0	423	615
6	0	0	0	0	419	615
7	0	0	0	0	414	616
8	0	0	0	0	409	615
9	0	0	0	0	407	616
10	0	0	0	0	406	616
11	0	0	0	0	408	615
12	0	0	0	0	410	616
13	0	0	0	0	412	616
14	0	0	0	0	415	616
15	0	0	0	0	419	616
0	0	0	0	0	423	615
1	0	0	0	0	428	616
2	0	0	0	0	432	615
3	0	0	0	0	437	616
4	0	0	0	0	440	616
5	0	0	0	0	442	616
6	0	0	0	0	441	616
7	0	0	0	0	440	616
8	0	0	0	0	437	616
9	0	0	0	0	431	616
10	0	0	0	0	427	615
11	0	0	0	0	423	615
12	0	0	0	0	420	616
13	0	0	0	0	418	616
14	0	0	0	0	417	616
15	0	0	0	0	418	615
0	0	0	0	0	419	615
1	0	0	0	0	421	615
2	0	0	0	0	423	615
3	0	0	0	0	425	615
4	0	0	0	0	427	615
5	0	0	0	0	430	615
6	0	0	0	0	433	615
7	0	0	0	0	436	616
8	0	0	0	0	439	616
9	0	0	0	0	441	616
10	0	0	0	0	442	615
11	0	0	0	0	442	616
12	0	0	0	0	443	615
13	0	0	0	0	442	616
14	0	0	0	0	439	616
15	0	0	0	0	435	616
0	0	0	0	0	432	616
1	0	0	0	0	429	616
2	0	0	0	0	426	616
3	0	0	0	0	424	616
4	0	0	0	0	423	616
5	0	0	0	0	425	616
6	0	0	0	0	428	616
7	0	0	0	0	432	616
8	0	0	0	0	436	616
9	0	0	0	0	441	617
10	0	0	0	0	446	615
11	0	0	0	0	451	616
12	0	0	0	0	455	615
13	0	0	0	0	457	615
14	0	0	0	0	458	616
15	0	0	0	0	456	615
0	0	0	0	0	455	615
1	0	0	0	0	451	615
2	0	0	0	0	446	615
3	0	0	0	0	440	615
4	0	0	0	0	435	615
5	0	0	0	0	432	616
6	0	0	0	0	428	615
7	0	0	0	0	426	615
8	0	0	0	0	426	616
9	0	0	0	0	428	615
10	0	0	0	0	430	615
11	0	0	0	0	435	615
12	0	0	0	0	441	615
13	0	0	0	0	447	616
14	0	0	0	0	452	615
15	0	0	0	0	457	616
0	0	0	0	0	461	616
1	0	0	0	0	463	615
2	0	0	0	0	464	616
3	0	0	0	0	463	616
4	0	0	0	0	463	616
5	0	0	0	0	460	616
6	0	0	0	0	457	615
7	0	0	0	0	452	616
8	0	0	0	0	447	616
9	0	0	0	0	444	616
10	0	0	0	0	442	616
11	0	0	0	0	442	615
12	0	0	0	0	444	617
13	0	0	0	0	447	616
14	0	0	0	0	449	616
15	0	0	0	0	454	616
0	0	0	0	0	458	616
1	0	0	0	0	463	616
2	0	0	0	0	469	616
3	0	0	0	0	473	615
4	0	0	0	0	478	616
5	0	0	0	0	481	616
6	0	0	0	0	483	616
7	0	0	0	0	484	616
8	0	0	0	0	484	616
9	0	0	0	0	482	615
10	0	0	0	0	480	615
11	0	0	0	0	475	616
12	0	0	0	0	470	617
13	0	0	0	0	467	615
14	0	0	0	0	466	616
15	0	0	0	0	465	615
0	0	0	0	0	467	615
1	0	0	0	0	469	616
2	0	0	0	0	471	616
3	0	0	0	0	476	616
4	0	0	0	0	482	616
5	0	0	0	0	487	616
6	0	0	0	0	492	615
7	0	0	0	0	497	616
8	0	0	0	0	501	615
9	0	0	0	0	505	616
10	0	0	0	0	506	615
11	0	0	0	0	508	616
12	0	0	0	0	507	616
13	0	0	0	0	504	616
14	0	0	0	0	503	616
15	0	0	0	0	501	615
0	0	0	0	0	500	616
1	0	0	0	0	500	616
2	0	0	0	0	499	616
3	0	0	0	0	499	616
4	0	0	0	0	499	617
5	0	0	0	0	498	616
6	0	0	0	0	498	616
7	0	0	0	0	500	616
8	0	0	0	0	501	616
9	0	0	0	0	504	616
10	0	0	0	0	507	616
11	0	0	0	0	510	616
12	0	0	0	0	514	616
13	0	0	0	0	518	616
14	0	0	0	0	523	616
15	0	0	0	0	528	616
0	0	0	0	0	531	616
1	0	0	0	0	531	616
2	0	0	0	0	529	616
3	0	0	0	0	527	617
4	0	0	0	0	523	616
5	0	0	0	0	519	616
6	0	0	0	0	518	616
7	0	0	0	0	515	615
8	0	0	0	0	514	616
9	0	0	0	0	512	616
10	0	0	0	0	511	615
11	0	0	0	0	512	616
12	0	0	0	0	514	616
13	0	0	0	0	517	616
14	0	0	0	0	521	616
15	0	0	0	0	526	616
0	0	0	0	0	532	616
1	0	0	0	0	536	616
2	0	0	0	0	540	616
3	0	0	0	0	542	616
4	0	0	0	0	543	616
5	0	0	0	0	541	616
6	0	0	0	0	538	616
7	0	0	0	0	533	617
8	0	0	0	0	528	616
9	0	0	0	0	525	616
10	0	0	0	0	522	616
11	0	0	0	0	521	616
12	0	0	0	0	522	616
13	0	0	0	0	524	616
14	0	0	0	0	524	616
15	0	0	0	0	527	616
0	0	0	0	0	529	616
1	0	0	0	0	533	616
2	0	0	0	0	537	616
3	0	0	0	0	540	616
4	0	0	0	0	544	616
5	0	0	0	0	547	615
6	0	0	0	0	548	616
7	0	0	0	0	549	615
8	0	0	0	0	549	616
9	0	0	0	0	546	615
10	0	0	0	0	543	616
11	0	0	0	0	539	616
12	0	0	0	0	534	616
13	0	0	0	0	530	616
14	0	0	0	0	526	615
15	0	0	0	0	524	616
0	0	0	0	0	522	616
1	0	0	0	0	521	616
2	0	0	0	0	521	616
3	0	0	0	0	522	616
4	0	0	0	0	524	615
5	0	0	0	0	527	616
6	0	0	0	0	531	616
7	0	0	0	0	536	616
8	0	0	0	0	542	615
9	0	0	0	0	547	615
10	0	0	0	0	550	616
11	0	0	0	0	551	616
12	0	0	0	0	551	616
13	0	0	0	0	547	615
14	0	0	0	0	543	616
15	0	0	0	0	536	616
0	0	0	0	0	529	616
1	0	0	0	0	523	616
2	0	0	0	0	518	616
3	0	0	0	0	514	616
4	0	0	0	0	512	616
5	0	0	0	0	511	616
6	0	0	0	0	511	616
7	0	0	0	0	514	615
8	0	0	0	0	519	616
9	0	0	0	0	525	616
10	0	0	0	0	532	616
11	0	0	0	0	539	616
12	0	0	0	0	544	616
13	0	0	0	0	546	615
14	0	0	0	0	547	615
15	0	0	0	0	546	615
0	0	0	0	0	544	616
1	0	0	0	0	540	616
2	0	0	0	0	535	616
3	0	0	0	0	530	616
4	0	0	0	0	524	616
5	0	0	0	0	519	615
6	0	0	0	0	515	616
7	0	0	0	0	511	616
8	0	0	0	0	509	616
9	0	0	0	0	510	615
10	0	0	0	0	510	616
11	0	0	0	0	513	616
12	0	0	0	0	516	616
13	0	0	0	0	520	616
14	0	0	0	0	525	616
15	0	0	0	0	529	615
0	0	0	0	0	534	615
1	0	0	0	0	538	616
2	0	0	0	0	540	616
3	0	0	0	0	541	616
4	0	0	0	0	539	616
5	0	0	0	0	536	615
6	0	0	0	0	531	616
7	0	0	0	0	526	616
8	0	0	0	0	519	615
9	0	0	0	0	515	616
10	0	0	0	0	511	616
11	0	0	0	0	509	616
12	0	0	0	0	508	617
13	0	0	0	0	508	616
14	0	0	0	0	509	616
15	0	0	0	0	512	616
0	0	0	0	0	516	616
1	0	0	0	0	519	616
2	0	0	0	0	525	617
3	0	0	0	0	529	616
4	0	0	0	0	533	617
5	0	0	0	0	536	616
6	0	0	0	0	536	616
7	0	0	0	0	536	616
8	0	0	0	0	535	616
9	0	0	0	0	531	616
10	0	0	0	0	527	616
11	0	0	0	0	523	616
12	0	0	0	0	518	616
13	0	0	0	0	515	615
14	0	0	0	0	512	616
15	0	0	0	0	512	615
0	0	0	0	0	511	616
1	0	0	0	0	510	616
2	0	0	0	0	512	616
3	0	0	0	0	514	616
4	0	0	0	0	517	616
5	0	0	0	0	520	617
6	0	0	0	0	524	616
7	0	0	0	0	528	616
8	0	0	0	0	531	616
9	0	0	0	0	534	615
10	0	0	0	0	535	616
11	0	0	0	0	536	616
12	0	0	0	0	536	617
13	0	0	0	0	532	615
14	0	0	0	0	527	615
15	0	0	0	0	523	616
0	0	0	0	0	518	616
1	0	0	0	0	514	615
2	0	0	0	0	512	616
3	0	0	0	0	510	615
4	0	0	0	0	511	616
5	0	0	0	0	512	615
6	0	0	0	0	515	615
7	0	0	0	0	518	615
8	0	0	0	0	520	615
9	0	0	0	0	524	615
10	0	0	0	0	529	615
11	0	0	0	0	533	615
12	0	0	0	0	537	615
13	0	0	0	0	539	615
14	0	0	0	0	540	616
15	0	0	0	0	540	615
0	0	0	0	0	539	616
1	0	0	0	0	536	615
2	0	0	0	0	532	615
3	0	0	0	0	528	616
4	0	0	0	0	524	616
5	0	0	0	0	519	616
6	0	0	0	0	516	616
7	0	0	0	0	513	616
8	0	0	0	0	512	616
9	0	0	0	0	513	615
10	0	0	0	0	514	616
11	0	0	0	0	517	616
12	0	0	0	0	519	616
13	0	0	0	0	522	616
14	0	0	0	0	526	616
15	0	0	0	0	530	615
0	0	0	0	0	536	615
1	0	0	0	0	539	616
2	0	0	0	0	542	616
3	0	0	0	0	542	616
4	0	0	0	0	540	616
5	0	0	0	0	537	616
6	0	0	0	0	533	616
7	0	0	0	0	529	616
8	0	0	0	0	525	616
9	0	0	0	0	521	616
10	0	0	0	0	518	616
11	0	0	0	0	515	616
12	0	0	0	0	513	616
13	0	0	0	0	511	615
14	0	0	0	0	511	616
15	0	0	0	0	512	616
0	0	0	0	0	513	616
1	0	0	0	0	516	616
2	0	0	0	0	520	615
3	0	0	0	0	525	616
4	0	0	0	0	529	616
5	0	0	0	0	534	615
6	0	0	0	0	537	615
7	0	0	0	0	538	615
8	0	0	0	0	540	616
9	0	0	0	0	538	616
10	0	0	0	0	534	616
11	0	0	0	0	528	616
12	0	0	0	0	522	616
13	0	0	0	0	517	616
14	0	0	0	0	513	615
15	0	0	0	0	511	615
0	0	0	0	0	509	616
1	0	0	0	0	508	616
2	0	0	0	0	509	616
3	0	0	0	0	512	616
4	0	0	0	0	515	616
5	0	0	0	0	519	616
6	0	0	0	0	525	615
7	0	0	0	0	529	616
8	0	0	0	0	534	616
9	0	0	0	0	537	616
10	0	0	0	0	537	616
11	0	0	0	0	537	616
12	0	0	0	0	535	616
13	0	0	0	0	531	616
14	0	0	0	0	526	616
15	0	0	0	0	521	616
0	0	0	0	0	515	615
1	0	0	0	0	512	616
2	0	0	0	0	509	616
3	0	0	0	0	507	615
4	0	0	0	0	507	616
5	0	0	0	0	508	615
6	0	0	0	0	510	616
7	0	0	0	0	512	615
8	0	0	0	0	514	615
9	0	0	0	0	518	616
10	0	0	0	0	523	616
11	0	0	0	0	527	615
12	0	0	0	0	531	616
13	0	0	0	0	533	616
14	0	0	0	0	533	616
15	0	0	0	0	531	616
0	0	0	0	0	530	616
1	0	0	0	0	527	616
2	0	0	0	0	523	616
3	0	0	0	0	519	616
4	0	0	0	0	513	616
5	0	0	0	0	509	615
6	0	0	0	0	506	616
7	0	0	0	0	503	615
8	0	0	0	0	502	616
9	0	0	0	0	502	616
10	0	0	0	0	503	616
11	0	0	0	0	506	616
12	0	0	0	0	508	616
13	0	0	0	0	512	616
14	0	0	0	0	517	615
15	0	0	0	0	521	616
0	0	0	0	0	523	615
1	0	0	0	0	525	615
2	0	0	0	0	524	616
3	0	0	0	0	523	616
4	0	0	0	0	520	616
5	0	0	0	0	516	616
6	0	0	0	0	512	616
7	0	0	0	0	507	616
8	0	0	0	0	503	616
9	0	0	0	0	501	616
10	0	0	0	0	499	616
11	0	0	0	0	498	616
12	0	0	0	0	497	616
13	0	0	0	0	498	616
14	0	0	0	0	499	616
15	0	0	0	0	501	615
0	0	0	0	0	503	616
1	0	0	0	0	505	616
2	0	0	0	0	510	616
3	0	0	0	0	515	616
4	0	0	0	0	521	617
5	0	0	0	0	525	616
6	0	0	0	0	528	617
7	0	0	0	0	528	616
8	0	0	0	0	528	616
9	0	0	0	0	526	616
10	0	0	0	0	523	616
11	0	0	0	0	519	616
12	0	0	0	0	516	616
13	0	0	0	0	514	616
14	0	0	0	0	512	616
15	0	0	0	0	509	616
0	0	0	0	0	510	617
1	0	0	0	0	509	616
2	0	0	0	0	509	617
3	0	0	0	0	511	616
4	0	0	0	0	514	616
5	0	0	0	0	517	616
6	0	0	0	0	521	617
7	0	0	0	0	525	616
8	0	0	0	0	528	616
9	0	0	0	0	530	616
10	0	0	0	0	531	617
11	0	0	0	0	529	616
12	0	0	0	0	528	616
13	0	0	0	0	524	615
14	0	0	0	0	519	615
15	0	0	0	0	516	616
0	0	0	0	0	511	616
1	0	0	0	0	507	616
2	0	0	0	0	504	616
3	0	0	0	0	504	616
4	0	0	0	0	504	617
5	0	0	0	0	504	617
6	0	0	0	0	506	616
7	0	0	0	0	510	616
8	0	0	0	0	513	615
9	0	0	0	0	517	616
10	0	0	0	0	520	616
11	0	0	0	0	524	616
12	0	0	0	0	527	616
13	0	0	0	0	529	616
14	0	0	0	0	529	617
15	0	0	0	0	528	616
0	0	0	0	0	526	616
1	0	0	0	0	523	616
2	0	0	0	0	519	616
3	0	0	0	0	514	616
4	0	0	0	0	510	616
5	0	0	0	0	507	616
6	0	0	0	0	503	616
7	0	0	0	0	502	616
8	0	0	0	0	500	617
9	0	0	0	0	500	616
10	0	0	0	0	501	616
11	0	0	0	0	504	616
12	0	0	0	0	507	616
13	0	0	0	0	510	616
14	0	0	0	0	514	616
15	0	0	0	0	519	616
0	0	0	0	0	524	616
1	0	0	0	0	526	616
2	0	0	0	0	526	616
3	0	0	0	0	526	615
4	0	0	0	0	525	616
5	0	0	0	0	521	615
6	0	0	0	0	518	615
7	0	0	0	0	513	616
8	0	0	0	0	510	615
9	0	0	0	0	506	616
10	0	0	0	0	502	616
11	0	0	0	0	500	616
12	0	0	0	0	499	616
13	0	0	0	0	499	616
14	0	0	0	0	500	616
15	0	0	0	0	503	616
0	0	0	0	0	506	616
1	0	0	0	0	510	616
2	0	0	0	0	515	616
3	0	0	0	0	519	615
4	0	0	0	0	522	616
5	0	0	0	0	523	615
6	0	0	0	0	523	615
7	0	0	0	0	522	615
8	0	0	0	0	520	615
9	0	0	0	0	517	615
10	0	0	0	0	512	615
11	0	0	0	0	507	615
12	0	0	0	0	502	616
13	0	0	0	0	498	616
14	0	0	0	0	496	616
15	0	0	0	0	495	615
0	0	0	0	0	493	616
1	0	0	0	0	492	616
2	0	0	0	0	492	616
3	0	0	0	0	493	616
4	0	0	0	0	492	616
5	0	0	0	0	490	615
6	0	0	0	0	487	616
7	0	0	0	0	482	616
8	0	0	0	0	476	616
9	0	0	0	0	467	616
10	0	0	0	0	457	616
11	0	0	0	0	447	616
12	0	0	0	0	435	616
13	0	0	0	0	423	616
14	0	0	0	0	410	616
15	0	0	0	0	400	616
0	0	0	0	0	392	615
1	0	0	0	0	387	615
2	0	0	0	0	384	616
3	0	0	0	0	384	616
4	0	0	0	0	387	616
5	0	0	0	0	393	616
6	0	0	0	0	400	615
7	0	0	0	0	410	615
8	0	0	0	0	422	615
9	0	0	0	0	435	616
10	0	0	0	0	448	616
11	0	0	0	0	460	616
12	0	0	0	0	473	616
13	0	0	0	0	492	616
14	0	0	0	0	515	616
15	0	0	0	0	541	616
0	0	0	0	0	571	616
1	0	0	0	0	603	617
2	0	0	0	0	642	616
3	0	0	0	0	686	616
4	0	0	0	0	733	617
5	0	0	0	0	783	616
6	0	0	0	0	830	616
7	0	0	0	0	873	615
8	0	0	0	0	911	616
9	0	0	0	0	943	616
10	0	0	0	0	969	616
11	0	0	0	0	988	615
12	0	0	0	0	1000	616
13	0	0	0	0	1008	616
14	0	0	0	0	1012	616
15	0	0	0	0	1010	616
0	0	0	0	0	1002	616
1	0	0	0	0	987	616
2	0	0	0	0	967	617
3	0	0	0	0	941	616
4	0	0	0	0	911	617
5	0	0	0	0	876	617
6	0	0	0	0	837	616
7	0	0	0	0	799	617
8	0	0	0	0	763	616
9	0	0	0	0	732	616
10	0	0	0	0	704	616
11	0	0	0	0	679	616
12	0	0	0	0	658	617
13	0	0	0	0	639	616
14	0	0	0	0	624	616
15	0	0	0	0	612	617
0	0	0	0	0	601	617
1	0	0	0	0	592	616
2	0	0	0	0	583	616
3	0	0	0	0	574	616
4	0	0	0	0	565	616
5	0	0	0	0	554	616
6	0	0	0	0	541	616
7	0	0	0	0	528	616
8	0	0	0	0	514	615
9	0	0	0	0	499	616
10	0	0	0	0	483	615
11	0	0	0	0	469	616
12	0	0	0	0	455	616
13	0	0	0	0	442	616
14	0	0	0	0	431	616
15	0	0	0	0	422	616
0	0	0	0	0	414	616
1	0	0	0	0	408	615
2	0	0	0	0	404	615
3	0	0	0	0	402	615
4	0	0	0	0	401	615
5	0	0	0	0	402	615
6	0	0	0	0	403	615
7	0	0	0	0	406	615
8	0	0	0	0	407	615
9	0	0	0	0	408	615
10	0	0	0	0	408	616
11	0	0	0	0	407	615
12	0	0	0	0	405	616
13	0	0	0	0	401	616
14	0	0	0	0	396	616
15	0	0	0	0	391	616
0	0	0	0	0	387	616
1	0	0	0	0	383	616
2	0	0	0	0	380	617
3	0	0	0	0	379	616
4	0	0	0	0	379	616
5	0	0	0	0	380	616
6	0	0	0	0	382	616
7	0	0	0	0	386	616
8	0	0	0	0	391	616
9	0	0	0	0	395	616
10	0	0	0	0	399	616
11	0	0	0	0	404	616
12	0	0	0	0	409	617
13	0	0	0	0	412	616
14	0	0	0	0	412	616
15	0	0	0	0	413	616
0	0	0	0	0	412	616
1	0	0	0	0	409	615
2	0	0	0	0	406	615
3	0	0	0	0	401	615
4	0	0	0	0	397	616
5	0	0	0	0	394	615
6	0	0	0	0	392	616
7	0	0	0	0	391	615
8	0	0	0	0	391	616
9	0	0	0	0	391	616
10	0	0	0	0	394	616
11	0	0	0	0	397	617
12	0	0	0	0	401	616
13	0	0	0	0	407	616
14	0	0	0	0	414	615
15	0	0	0	0	421	616
0	0	0	0	0	428	615
1	0	0	0	0	433	615
2	0	0	0	0	437	616
3	0	0	0	0	438	616
4	0	0	0	0	437	617
5	0	0	0	0	433	615
6	0	0	0	0	428	615
7	0	0	0	0	421	616
8	0	0	0	0	415	615
9	0	0	0	0	410	616
10	0	0	0	0	407	615
11	0	0	0	0	405	615
12	0	0	0	0	405	616
13	0	0	0	0	406	616
14	0	0	0	0	409	615
15	0	0	0	0	413	615
0	0	0	0	0	418	615
1	0	0	0	0	423	615
2	0	0	0	0	430	615
3	0	0	0	0	436	615
4	0	0	0	0	441	616
5	0	0	0	0	444	616
6	0	0	0	0	446	616
7	0	0	0	0	445	616
8	0	0	0	0	444	616
9	0	0	0	0	440	616
10	0	0	0	0	437	616
11	0	0	0	0	433	616
12	0	0	0	0	429	616
13	0	0	0	0	427	616
14	0	0	0	0	423	616
15	0	0	0	0	422	616
0	0	0	0	0	423	616
1	0	0	0	0	423	616
2	0	0	0	0	423	616
3	0	0	0	0	426	615
4	0	0	0	0	430	615
5	0	0	0	0	434	615
6	0	0	0	0	440	615
7	0	0	0	0	445	616
8	0	0	0	0	449	616
9	0	0	0	0	451	615
10	0	0	0	0	452	616
11	0	0	0	0	452	615
12	0	0	0	0	451	616
13	0	0	0	0	447	616
14	0	0	0	0	442	616
15	0	0	0	0	437	616
0	0	0	0	0	433	616
1	0	0	0	0	430	615
2	0	0	0	0	428	616
3	0	0	0	0	427	616
4	0	0	0	0	428	617
5	0	0	0	0	430	615
6	0	0	0	0	432	616
7	0	0	0	0	435	616
8	0	0	0	0	439	616
9	0	0	0	0	444	616
10	0	0	0	0	449	616
11	0	0	0	0	453	616
12	0	0	0	0	457	617
13	0	0	0	0	459	616
14	0	0	0	0	460	616
15	0	0	0	0	460	616
0	0	0	0	0	459	616
1	0	0	0	0	455	615
2	0	0	0	0	451	615
3	0	0	0	0	446	616
4	0	0	0	0	442	616
5	0	0	0	0	439	616
6	0	0	0	0	436	616
7	0	0	0	0	436	616
8	0	0	0	0	436	616
9	0	0	0	0	437	615
10	0	0	0	0	440	616
11	0	0	0	0	443	616
12	0	0	0	0	447	616
13	0	0	0	0	451	616
14	0	0	0	0	457	616
15	0	0	0	0	462	616
0	0	0	0	0	466	615
1	0	0	0	0	468	615
2	0	0	0	0	469	616
3	0	0	0	0	469	615
4	0	0	0	0	467	616
5	0	0	0	0	463	616
6	0	0	0	0	458	616
7	0	0	0	0	454	616
8	0	0	0	0	450	616
9	0	0	0	0	448	616
10	0	0	0	0	445	615
11	0	0	0	0	444	615
12	0	0	0	0	444	616
13	0	0	0	0	445	616
14	0	0	0	0	447	617
15	0	0	0	0	450	616
0	0	0	0	0	455	616
1	0	0	0	0	460	616
2	0	0	0	0	465	615
3	0	0	0	0	472	616
4	0	0	0	0	478	616
5	0	0	0	0	482	616
6	0	0	0	0	484	616
7	0	0	0	0	485	616
8	0	0	0	0	486	616
9	0	0	0	0	484	616
10	0	0	0	0	480	616
11	0	0	0	0	475	616
12	0	0	0	0	469	616
13	0	0	0	0	465	616
14	0	0	0	0	462	616
15	0	0	0	0	459	616
0	0	0	0	0	457	616
1	0	0	0	0	458	616
2	0	0	0	0	462	616
3	0	0	0	0	467	616
4	0	0	0	0	472	616
5	0	0	0	0	479	616
6	0	0	0	0	485	615
7	0	0	0	0	492	616
8	0	0	0	0	497	616
9	0	0	0	0	500	616
10	0	0	0	0	502	616
11	0	0	0	0	502	615
12	0	0	0	0	502	616
13	0	0	0	0	499	616
14	0	0	0	0	496	616
15	0	0	0	0	492	616
0	0	0	0	0	489	616
1	0	0	0	0	486	615
2	0	0	0	0	483	616
3	0	0	0	0	482	616
4	0	0	0	0	483	616
5	0	0	0	0	484	616
6	0	0	0	0	487	616
7	0	0	0	0	492	616
8	0	0	0	0	496	615
9	0	0	0	0	501	616
10	0	0	0	0	507	615
11	0	0	0	0	512	615
12	0	0	0	0	516	616
13	0	0	0	0	519	615
14	0	0	0	0	520	615
15	0	0	0	0	521	615
0	0	0	0	0	521	616
1	0	0	0	0	520	616
2	0	0	0	0	517	616
3	0	0	0	0	513	616
4	0	0	0	0	510	616
5	0	0	0	0	507	616
6	0	0	0	0	505	616
7	0	0	0	0	504	616
8	0	0	0	0	504	616
9	0	0	0	0	505	616
10	0	0	0	0	507	616
11	0	0	0	0	510	616
12	0	0	0	0	513	616
13	0	0	0	0	518	616
14	0	0	0	0	523	616
15	0	0	0	0	528	615
0	0	0	0	0	534	616
1	0	0	0	0	537	615
2	0	0	0	0	539	616
3	0	0	0	0	539	615
4	0	0	0	0	538	616
5	0	0	0	0	535	616
6	0	0	0	0	531	616
7	0	0	0	0	526	616
8	0	0	0	0	521	616
9	0	0	0	0	518	616
10	0	0	0	0	515	616
11	0	0	0	0	513	616
12	0	0	0	0	513	617
13	0	0	0	0	515	616
14	0	0	0	0	517	616
15	0	0	0	0	520	616
0	0	0	0	0	523	616
1	0	0	0	0	527	617
2	0	0	0	0	533	616
3	0	0	0	0	538	616
4	0	0	0	0	543	617
5	0	0	0	0	546	615
6	0	0	0	0	547	616
7	0	0	0	0	548	616
8	0	0	0	0	546	616
9	0	0	0	0	542	616
10	0	0	0	0	537	616
11	0	0	0	0	533	616
12	0	0	0	0	529	616
13	0	0	0	0	526	616
14	0	0	0	0	523	616
15	0	0	0	0	521	616
0	0	0	0	0	521	616
1	0	0	0	0	521	616
2	0	0	0	0	524	616
3	0	0	0	0	526	616
4	0	0	0	0	528	617
5	0	0	0	0	531	616
6	0	0	0	0	536	616
7	0	0	0	0	539	616
8	0	0	0	0	541	616
9	0	0	0	0	542	616
10	0	0	0	0	543	616
11	0	0	0	0	543	617
12	0	0	0	0	542	617
13	0	0	0	0	540	616
14	0	0	0	0	537	616
15	0	0	0	0	533	617
0	0	0	0	0	530	617
1	0	0	0	0	527	616
2	0	0	0	0	525	616
3	0	0	0	0	523	615
4	0	0	0	0	522	617
5	0	0	0	0	521	615
6	0	0	0	0	521	615
7	0	0	0	0	522	616
8	0	0	0	0	524	615
9	0	0	0	0	527	616
10	0	0	0	0	530	615
11	0	0	0	0	536	616
12	0	0	0	0	540	617
13	0	0	0	0	543	616
14	0	0	0	0	543	616
15	0	0	0	0	543	616
0	0	0	0	0	541	616
1	0	0	0	0	538	616
2	0	0	0	0	534	616
3	0	0	0	0	529	616
4	0	0	0	0	525	616
5	0	0	0	0	520	616
6	0	0	0	0	516	616
7	0	0	0	0	514	616
8	0	0	0	0	514	617
9	0	0	0	0	513	616
10	0	0	0	0	514	617
11	0	0	0	0	517	616
12	0	0	0	0	520	616
13	0	0	0	0	524	616
14	0	0	0	0	527	615
15	0	0	0	0	531	616
0	0	0	0	0	534	616
1	0	0	0	0	536	616
2	0	0	0	0	537	616
3	0	0	0	0	537	617
4	0	0	0	0	536	616
5	0	0	0	0	533	616
6	0	0	0	0	528	616
7	0	0	0	0	523	617
8	0	0	0	0	518	617
9	0	0	0	0	513	616
10	0	0	0	0	510	617
11	0	0	0	0	508	616
12	0	0	0	0	508	617
13	0	0	0	0	509	616
14	0	0	0	0	511	616
15	0	0	0	0	514	616
0	0	0	0	0	517	616
1	0	0	0	0	520	616
2	0	0	0	0	525	616
3	0	0	0	0	529	617
4	0	0	0	0	532	616
5	0	0	0	0	534	616
6	0	0	0	0	535	616
7	0	0	0	0	534	615
8	0	0	0	0	532	615
9	0	0	0	0	527	616
10	0	0	0	0	523	615
11	0	0	0	0	519	615
12	0	0	0	0	515	616
13	0	0	0	0	512	616
14	0	0	0	0	510	615
15	0	0	0	0	509	615
0	0	0	0	0	510	615
1	0	0	0	0	511	615
2	0	0	0	0	514	616
3	0	0	0	0	518	615
4	0	0	0	0	523	615
5	0	0	0	0	527	615
6	0	0	0	0	531	616
7	0	0	0	0	534	615
8	0	0	0	0	536	615
9	0	0	0	0	536	616
10	0	0	0	0	535	616
11	0	0	0	0	533	616
12	0	0	0	0	528	616
13	0	0	0	0	523	616
14	0	0	0	0	517	616
15	0	0	0	0	511	616
0	0	0	0	0	505	616
1	0	0	0	0	503	616
2	0	0	0	0	502	616
3	0	0	0	0	503	616
4	0	0	0	0	505	616
5	0	0	0	0	508	616
6	0	0	0	0	512	616
7	0	0	0	0	516	616
8	0	0	0	0	520	615
9	0	0	0	0	525	616
10	0	0	0	0	529	615
11	0	0	0	0	534	615
12	0	0	0	0	537	616
13	0	0	0	0	539	615
14	0	0	0	0	539	616
15	0	0	0	0	537	616
0	0	0	0	0	535	616
1	0	0	0	0	530	616
2	0	0	0	0	525	616
3	0	0	0	0	520	615
4	0	0	0	0	516	616
5	0	0	0	0	513	616
6	0	0	0	0	511	616
7	0	0	0	0	509	616
8	0	0	0	0	509	616
9	0	0	0	0	510	615
10	0	0	0	0	512	616
11	0	0	0	0	515	615
12	0	0	0	0	519	616
13	0	0	0	0	524	616
14	0	0	0	0	528	615
15	0	0	0	0	532	616
0	0	0	0	0	536	616
1	0	0	0	0	538	616
2	0	0	0	0	539	616
3	0	0	0	0	538	615
4	0	0	0	0	536	616
5	0	0	0	0	533	615
6	0	0	0	0	529	616
7	0	0	0	0	524	616
8	0	0	0	0	521	615
9	0	0	0	0	517	615
10	0	0	0	0	514	615
11	0	0	0	0	512	615
12	0	0	0	0	513	616
13	0	0	0	0	514	616
14	0	0	0	0	515	616
15	0	0	0	0	518	616
0	0	0	0	0	520	615
1	0	0	0	0	524	615
2	0	0	0	0	529	615
3	0	0	0	0	533	616
4	0	0	0	0	535	616
5	0	0	0	0	536	615
6	0	0	0	0	536	616
7	0	0	0	0	536	616
8	0	0	0	0	535	616
9	0	0	0	0	532	616
10	0	0	0	0	529	615
11	0	0	0	0	526	616
12	0	0	0	0	523	616
13	0	0	0	0	520	616
14	0	0	0	0	519	616
15	0	0	0	0	517	616
0	0	0	0	0	516	616
1	0	0	0	0	516	616
2	0	0	0	0	517	616
3	0	0	0	0	519	616
4	0	0	0	0	521	616
5	0	0	0	0	523	616
6	0	0	0	0	525	616
7	0	0	0	0	528	616
8	0	0	0	0	531	616
9	0	0	0	0	532	616
10	0	0	0	0	533	616
11	0	0	0	0	532	616
12	0	0	0	0	531	616
13	0	0	0	0	528	616
14	0	0	0	0	525	616
15	0	0	0	0	521	616
0	0	0	0	0	518	616
1	0	0	0	0	516	616
2	0	0	0	0	513	616
3	0	0	0	0	512	616
4	0	0	0	0	511	616
5	0	0	0	0	512	616
6	0	0	0	0	513	615
7	0	0	0	0	516	615
8	0	0	0	0	519	615
9	0	0	0	0	522	615
10	0	0	0	0	524	615
11	0	0	0	0	527	616
12	0	0	0	0	529	616
13	0	0	0	0	530	616
14	0	0	0	0	529	616
15	0	0	0	0	527	616
0	0	0	0	0	526	616
1	0	0	0	0	523	616
2	0	0	0	0	519	615
3	0	0	0	0	515	616
4	0	0	0	0	511	617
5	0	0	0	0	508	617
6	0	0	0	0	506	616
7	0	0	0	0	505	616
8	0	0	0	0	505	616
9	0	0	0	0	505	615
10	0	0	0	0	506	616
11	0	0	0	0	508	616
12	0	0	0	0	509	615
13	0	0	0	0	512	616
14	0	0	0	0	516	616
15	0	0	0	0	520	616
0	0	0	0	0	524	616
1	0	0	0	0	526	616
2	0	0	0	0	527	616
3	0	0	0	0	527	616
4	0	0	0	0	525	616
5	0	0	0	0	521	616
6	0	0	0	0	517	616
7	0	0	0	0	513	616
8	0	0	0	0	508	616
9	0	0	0	0	504	616
10	0	0	0	0	501	616
11	0	0	0	0	500	615
12	0	0	0	0	500	616
13	0	0	0	0	502	616
14	0	0	0	0	504	616
15	0	0	0	0	507	616
0	0	0	0	0	511	616
1	0	0	0	0	516	616
2	0	0	0	0	520	616
3	0	0	0	0	523	616
4	0	0	0	0	526	616
5	0	0	0	0	527	616
6	0	0	0	0	528	616
7	0	0	0	0	528	616
8	0	0	0	0	527	616
9	0	0	0	0	525	616
10	0	0	0	0	522	616
11	0	0	0	0	519	616
12	0	0	0	0	516	616
13	0	0	0	0	513	615
14	0	0	0	0	512	615
15	0	0	0	0	511	615
0	0	0	0	0	510	616
1	0	0	0	0	509	616
2	0	0	0	0	510	616
3	0	0	0	0	511	616
4	0	0	0	0	513	616
5	0	0	0	0	516	617
6	0	0	0	0	519	616
7	0	0	0	0	521	617
8	0	0	0	0	523	616
9	0	0	0	0	524	616
10	0	0	0	0	523	616
11	0	0	0	0	522	616
12	0	0	0	0	520	617
13	0	0	0	0	518	616
14	0	0	0	0	515	616
15	0	0	0	0	512	615
0	0	0	0	0	510	616
1	0	0	0	0	508	615
2	0	0	0	0	507	616
3	0	0	0	0	506	616
4	0	0	0	0	506	616
5	0	0	0	0	508	615
6	0	0	0	0	509	616
7	0	0	0	0	511	615
8	0	0	0	0	512	616
9	0	0	0	0	515	616
10	0	0	0	0	518	615
11	0	0	0	0	521	616
12	0	0	0	0	523	616
13	0	0	0	0	524	616
14	0	0	0	0	524	616
15	0	0	0	0	524	616
0	0	0	0	0	524	616
1	0	0	0	0	522	616
2	0	0	0	0	519	616
3	0	0	0	0	516	616
4	0	0	0	0	513	616
5	0	0	0	0	510	615
6	0	0	0	0	508	616
7	0	0	0	0	506	615
8	0	0	0	0	506	616
9	0	0	0	0	506	615
10	0	0	0	0	507	616
11	0	0	0	0	509	616
12	0	0	0	0	511	616
13	0	0	0	0	513	616
14	0	0	0	0	515	616
15	0	0	0	0	518	616
0	0	0	0	0	520	616
1	0	0	0	0	521	616
2	0	0	0	0	522	617
3	0	0	0	0	521	617
4	0	0	0	0	521	617
5	0	0	0	0	518	617
6	0	0	0	0	515	616
7	0	0	0	0	512	616
8	0	0	0	0	509	615
9	0	0	0	0	507	615
10	0	0	0	0	505	615
11	0	0	0	0	504	615
12	0	0	0	0	504	616
13	0	0	0	0	504	616
14	0	0	0	0	505	616
15	0	0	0	0	508	616
0	0	0	0	0	510	615
1	0	0	0	0	512	615
2	0	0	0	0	513	615
3	0	0	0	0	515	616
4	0	0	0	0	516	616
5	0	0	0	0	517	616
6	0	0	0	0	516	616
7	0	0	0	0	514	616
8	0	0	0	0	511	616
9	0	0	0	0	505	616
10	0	0	0	0	497	616
11	0	0	0	0	487	616
12	0	0	0	0	476	616
13	0	0	0	0	464	616
14	0	0	0	0	451	616
15	0	0	0	0	439	616
0	0	0	0	0	428	616
1	0	0	0	0	418	615
2	0	0	0	0	409	616
3	0	0	0	0	403	615
4	0	0	0	0	399	616
5	0	0	0	0	398	616
6	0	0	0	0	399	615
7	0	0	0	0	403	615
8	0	0	0	0	408	616
9	0	0	0	0	414	616
10	0	0	0	0	420	616
11	0	0	0	0	427	615
12	0	0	0	0	432	616
13	0	0	0	0	438	616
14	0	0	0	0	442	615
15	0	0	0	0	446	616
0	0	0	0	0	449	615
1	0	0	0	0	455	616
2	0	0	0	0	467	615
3	0	0	0	0	488	615
4	0	0	0	0	514	616
5	0	0	0	0	544	616
6	0	0	0	0	581	616
7	0	0	0	0	625	616
8	0	0	0	0	675	615
9	0	0	0	0	729	616
10	0	0	0	0	783	615
11	0	0	0	0	835	616
12	0	0	0	0	881	616
13	0	0	0	0	921	616
14	0	0	0	0	952	616
15	0	0	0	0	976	616
0	0	0	0	0	993	616
1	0	0	0	0	999	616
2	0	0	0	0	999	616
3	0	0	0	0	995	616
4	0	0	0	0	986	617
5	0	0	0	0	972	616
6	0	0	0	0	953	616
7	0	0	0	0	932	617
8	0	0	0	0	909	616
9	0	0	0	0	883	616
10	0	0	0	0	855	617
11	0	0	0	0	824	616
12	0	0	0	0	792	616
13	0	0	0	0	763	616
14	0	0	0	0	737	616
15	0	0	0	0	714	616
0	0	0	0	0	694	616
1	0	0	0	0	675	616
2	0	0	0	0	657	616
3	0	0	0	0	641	616
4	0	0	0	0	625	617
5	0	0	0	0	609	616
6	0	0	0	0	594	616
7	0	0	0	0	578	617
8	0	0	0	0	562	617
9	0	0	0	0	549	617
10	0	0	0	0	537	616
11	0	0	0	0	525	617
12	0	0	0	0	512	617
13	0	0	0	0	500	617
14	0	0	0	0	488	616
15	0	0	0	0	479	617
0	0	0	0	0	471	616
1	0	0	0	0	464	617
2	0	0	0	0	459	616
3	0	0	0	0	455	616
4	0	0	0	0	451	616
5	0	0	0	0	447	616
6	0	0	0	0	441	616
7	0	0	0	0	435	616
8	0	0	0	0	428	616
9	0	0	0	0	420	616
10	0	0	0	0	414	615
11	0	0	0	0	407	615
12	0	0	0	0	400	616
13	0	0	0	0	395	615
14	0	0	0	0	391	615
15	0	0	0	0	390	615
0	0	0	0	0	389	616
1	0	0	0	0	388	616
2	0	0	0	0	390	616
3	0	0	0	0	393	616
4	0	0	0	0	397	617
5	0	0	0	0	399	616
6	0	0	0	0	403	616
7	0	0	0	0	406	616
8	0	0	0	0	410	616
9	0	0	0	0	411	615
10	0	0	0	0	413	616
11	0	0	0	0	413	616
12	0	0	0	0	411	616
13	0	0	0	0	408	616
14	0	0	0	0	403	616
15	0	0	0	0	399	616
0	0	0	0	0	396	616
1	0	0	0	0	394	616
2	0	0	0	0	393	616
3	0	0	0	0	393	615
4	0	0	0	0	396	616
5	0	0	0	0	397	616
6	0	0	0	0	399	616
7	0	0	0	0	403	616
8	0	0	0	0	406	615
9	0	0	0	0	411	616
10	0	0	0	0	415	616
11	0	0	0	0	419	616
12	0	0	0	0	424	616
13	0	0	0	0	426	616
14	0	0	0	0	428	616
15	0	0	0	0	428	616
0	0	0	0	0	427	616
1	0	0	0	0	424	616
2	0	0	0	0	421	616
3	0	0	0	0	417	616
4	0	0	0	0	414	615
5	0	0	0	0	412	615
6	0	0	0	0	411	616
7	0	0	0	0	411	615
8	0	0	0	0	413	615
9	0	0	0	0	414	616
10	0	0	0	0	418	616
11	0	0	0	0	422	616
12	0	0	0	0	426	616
13	0	0	0	0	430	616
14	0	0	0	0	434	616
15	0	0	0	0	438	616
0	0	0	0	0	442	616
1	0	0	0	0	444	616
2	0	0	0	0	444	616
3	0	0	0	0	444	615
4	0	0	0	0	443	616
5	0	0	0	0	440	616
6	0	0	0	0	436	615
7	0	0	0	0	432	616
8	0	0	0	0	429	615
9	0	0	0	0	427	616
10	0	0	0	0	425	616
11	0	0	0	0	424	615
12	0	0	0	0	425	616
13	0	0	0	0	425	615
14	0	0	0	0	428	615
15	0	0	0	0	432	615
0	0	0	0	0	436	615
1	0	0	0	0	440	615
2	0	0	0	0	445	615
3	0	0	0	0	448	616
4	0	0	0	0	451	615
5	0	0	0	0	452	615
6	0	0	0	0	453	615
7	0	0	0	0	453	615
8	0	0	0	0	450	616
9	0	0	0	0	447	616
10	0	0	0	0	442	616
11	0	0	0	0	438	616
12	0	0	0	0	435	616
13	0	0	0	0	432	615
14	0	0	0	0	430	616
15	0	0	0	0	430	615
0	0	0	0	0	430	616
1	0	0	0	0	431	616
2	0	0	0	0	433	615
3	0	0	0	0	437	616
4	0	0	0	0	440	616
5	0	0	0	0	445	616
6	0	0	0	0	449	616
7	0	0	0	0	453	615
8	0	0	0	0	456	616
9	0	0	0	0	458	615
10	0	0	0	0	458	616
11	0	0	0	0	457	616
12	0	0	0	0	455	615
13	0	0	0	0	451	616
14	0	0	0	0	447	616
15	0	0	0	0	442	616
0	0	0	0	0	439	616
1	0	0	0	0	436	616
2	0	0	0	0	435	615
3	0	0	0	0	434	615
4	0	0	0	0	434	615
5	0	0	0	0	436	615
6	0	0	0	0	439	616
7	0	0	0	0	441	616
8	0	0	0	0	444	617
9	0	0	0	0	448	617
10	0	0	0	0	452	616
11	0	0	0	0	455	617
12	0	0	0	0	459	616
13	0	0	0	0	460	616
14	0	0	0	0	460	616
15	0	0	0	0	459	616
0	0	0	0	0	456	616
1	0	0	0	0	452	616
2	0	0	0	0	449	616
3	0	0	0	0	446	617
4	0	0	0	0	442	616
5	0	0	0	0	439	616
6	0	0	0	0	438	616
7	0	0	0	0	438	616
8	0	0	0	0	439	616
9	0	0	0	0	441	616
10	0	0	0	0	444	616
11	0	0	0	0	448	616
12	0	0	0	0	451	616
13	0	0	0	0	454	617
14	0	0	0	0	458	616
15	0	0	0	0	462	616
0	0	0	0	0	464	616
1	0	0	0	0	466	616
2	0	0	0	0	466	616
3	0	0	0	0	466	616
4	0	0	0	0	465	617
5	0	0	0	0	462	616
6	0	0	0	0	458	616
7	0	0	0	0	454	616
8	0	0	0	0	452	616
9	0	0	0	0	449	616
10	0	0	0	0	447	616
11	0	0	0	0	448	616
12	0	0	0	0	449	616
13	0	0	0	0	451	615
14	0	0	0	0	455	616
15	0	0	0	0	458	615
0	0	0	0	0	462	615
1	0	0	0	0	467	616
2	0	0	0	0	472	616
3	0	0	0	0	478	616
4	0	0	0	0	483	616
5	0	0	0	0	486	616
6	0	0	0	0	487	616
7	0	0	0	0	487	615
8	0	0	0	0	486	616
9	0	0	0	0	484	616
10	0	0	0	0	480	616
11	0	0	0	0	478	617
12	0	0	0	0	476	616
13	0	0	0	0	476	616
14	0	0	0	0	477	615
15	0	0	0	0	478	616
0	0	0	0	0	481	616
1	0	0	0	0	483	616
2	0	0	0	0	486	616
3	0	0	0	0	488	616
4	0	0	0	0	492	616
5	0	0	0	0	495	615
6	0	0	0	0	499	615
7	0	0	0	0	503	615
8	0	0	0	0	507	616
9	0	0	0	0	510	615
10	0	0	0	0	512	615
11	0	0	0	0	512	615
12	0	0	0	0	512	615
13	0	0	0	0	511	615
14	0	0	0	0	507	616
15	0	0	0	0	504	616
0	0	0	0	0	500	616
1	0	0	0	0	499	616
2	0	0	0	0	498	616
3	0	0	0	0	499	615
4	0	0	0	0	502	617
5	0	0	0	0	504	616
6	0	0	0	0	510	615
7	0	0	0	0	515	616
8	0	0	0	0	518	615
9	0	0	0	0	522	616
10	0	0	0	0	526	615
11	0	0	0	0	529	616
12	0	0	0	0	531	616
13	0	0	0	0	532	615
14	0	0	0	0	532	616
15	0	0	0	0	531	616
0	0	0	0	0	529	616
1	0	0	0	0	527	615
2	0	0	0	0	523	615
3	0	0	0	0	519	615
4	0	0	0	0	518	616
5	0	0	0	0	516	615
6	0	0	0	0	515	615
7	0	0	0	0	515	615
8	0	0	0	0	518	616
9	0	0	0	0	519	616
10	0	0	0	0	522	616
11	0	0	0	0	524	616
12	0	0	0	0	526	616
13	0	0	0	0	530	616
14	0	0	0	0	534	616
15	0	0	0	0	537	616
0	0	0	0	0	540	616
1	0	0	0	0	542	615
2	0	0	0	0	542	616
3	0	0	0	0	540	615
4	0	0	0	0	538	615
5	0	0	0	0	534	615
6	0	0	0	0	531	615
7	0	0	0	0	526	616
8	0	0	0	0	523	617
9	0	0	0	0	520	617
10	0	0	0	0	519	618
11	0	0	0	0	518	617
12	0	0	0	0	519	617
13	0	0	0	0	520	617
14	0	0	0	0	524	616
15	0	0	0	0	527	616
0	0	0	0	0	531	615
1	0	0	0	0	534	615
2	0	0	0	0	538	616
3	0	0	0	0	542	616
4	0	0	0	0	545	616
5	0	0	0	0	547	616
6	0	0	0	0	547	617
7	0	0	0	0	545	616
8	0	0	0	0	543	616
9	0	0	0	0	539	616
10	0	0	0	0	535	616
11	0	0	0	0	530	616
12	0	0	0	0	527	616
13	0	0	0	0	524	616
14	0	0	0	0	523	616
15	0	0	0	0	521	615
0	0	0	0	0	521	615
1	0	0	0	0	521	615
2	0	0	0	0	523	615
3	0	0	0	0	525	615
4	0	0	0	0	528	615
5	0	0	0	0	531	616
6	0	0	0	0	535	617
7	0	0	0	0	539	617
8	0	0	0	0	541	617
9	0	0	0	0	543	617
10	0	0	0	0	543	617
11	0	0	0	0	542	617
12	0	0	0	0	539	617
13	0	0	0	0	536	616
14	0	0	0	0	531	616
15	0	0	0	0	527	616
0	0	0	0	0	524	616
1	0	0	0	0	521	616
2	0	0	0	0	519	616
3	0	0	0	0	518	616
4	0	0	0	0	519	616
5	0	0	0	0	520	615
6	0	0	0	0	522	616
7	0	0	0	0	524	615
8	0	0	0	0	527	615
9	0	0	0	0	530	615
10	0	0	0	0	533	615
11	0	0	0	0	536	616
12	0	0	0	0	537	616
13	0	0	0	0	537	616
14	0	0	0	0	536	616
15	0	0	0	0	534	616
0	0	0	0	0	532	616
1	0	0	0	0	529	616
2	0	0	0	0	525	616
3	0	0	0	0	520	616
4	0	0	0	0	517	617
5	0	0	0	0	515	616
6	0	0	0	0	513	616
7	0	0	0	0	513	615
8	0	0	0	0	513	616
9	0	0	0	0	514	616
10	0	0	0	0	515	616
11	0	0	0	0	518	615
12	0	0	0	0	520	616
13	0	0	0	0	523	616
14	0	0	0	0	526	616
15	0	0	0	0	529	615
0	0	0	0	0	532	616
1	0	0	0	0	532	615
2	0	0	0	0	531	616
3	0	0	0	0	530	616
4	0	0	0	0	527	616
5	0	0	0	0	523	616
6	0	0	0	0	519	616
7	0	0	0	0	515	616
8	0	0	0	0	512	615
9	0	0	0	0	510	616
10	0	0	0	0	509	616
11	0	0	0	0	509	615
12	0	0	0	0	511	617
13	0	0	0	0	512	616
14	0	0	0	0	513	616
15	0	0	0	0	515	617
0	0	0	0	0	518	616
1	0	0	0	0	521	617
2	0	0	0	0	524	616
3	0	0	0	0	526	616
4	0	0	0	0	528	616
5	0	0	0	0	529	616
6	0	0	0	0	529	616
7	0	0	0	0	528	616
8	0	0	0	0	526	616
9	0	0	0	0	522	616
10	0	0	0	0	519	616
11	0	0	0	0	515	616
12	0	0	0	0	512	617
13	0	0	0	0	510	616
14	0	0	0	0	509	616
15	0	0	0	0	508	616
0	0	0	0	0	509	616
1	0	0	0	0	511	616
2	0	0	0	0	514	616
3	0	0	0	0	516	616
4	0	0	0	0	520	616
5	0	0	0	0	524	616
6	0	0	0	0	527	616
7	0	0	0	0	530	616
8	0	0	0	0	533	616
9	0	0	0	0	533	616
10	0	0	0	0	532	617
11	0	0	0	0	531	617
12	0	0	0	0	529	617
13	0	0	0	0	527	616
14	0	0	0	0	523	616
15	0	0	0	0	520	616
0	0	0	0	0	517	615
1	0	0	0	0	515	616
2	0	0	0	0	513	615
3	0	0	0	0	513	616
4	0	0	0	0	513	616
5	0	0	0	0	515	616
6	0	0	0	0	516	616
7	0	0	0	0	519	616
8	0	0	0	0	521	615
9	0	0	0	0	524	616
10	0	0	0	0	527	616
11	0	0	0	0	530	615
12	0	0	0	0	533	616
13	0	0	0	0	535	616
14	0	0	0	0	535	616
15	0	0	0	0	534	616
0	0	0	0	0	532	616
1	0	0	0	0	528	616
2	0	0	0	0	524	615
3	0	0	0	0	519	616
4	0	0	0	0	516	616
5	0	0	0	0	513	615
6	0	0	0	0	511	616
7	0	0	0	0	511	615
8	0	0	0	0	511	616
9	0	0	0	0	512	616
10	0	0	0	0	515	616
11	0	0	0	0	518	615
12	0	0	0	0	520	616
13	0	0	0	0	524	616
14	0	0	0	0	527	616
15	0	0	0	0	530	616
0	0	0	0	0	532	616
1	0	0	0	0	533	616
2	0	0	0	0	532	616
3	0	0	0	0	531	616
4	0	0	0	0	528	616
5	0	0	0	0	524	615
6	0	0	0	0	521	616
7	0	0	0	0	518	616
8	0	0	0	0	515	616
9	0	0	0	0	512	616
10	0	0	0	0	511	616
11	0	0	0	0	510	616
12	0	0	0	0	510	615
13	0	0	0	0	511	616
14	0	0	0	0	513	615
15	0	0	0	0	516	616
0	0	0	0	0	519	616
1	0	0	0	0	522	615
2	0	0	0	0	526	616
3	0	0	0	0	529	616
4	0	0	0	0	531	617
5	0	0	0	0	531	616
6	0	0	0	0	530	617
7	0	0	0	0	529	615
8	0	0	0	0	526	615
9	0	0	0	0	522	615
10	0	0	0	0	518	615
11	0	0	0	0	515	616
12	0	0	0	0	511	616
13	0	0	0	0	508	615
14	0	0	0	0	507	616
15	0	0	0	0	506	615
0	0	0	0	0	506	616
1	0	0	0	0	508	615
2	0	0	0	0	510	616
3	0	0	0	0	512	616
4	0	0	0	0	514	616
5	0	0	0	0	517	616
6	0	0	0	0	520	616
7	0	0	0	0	524	616
8	0	0	0	0	527	616
9	0	0	0	0	528	616
10	0	0	0	0	527	617
11	0	0	0	0	527	617
12	0	0	0	0	525	616
13	0	0	0	0	521	616
14	0	0	0	0	516	616
15	0	0	0	0	512	616
0	0	0	0	0	508	615
1	0	0	0	0	505	616
2	0	0	0	0	504	615
3	0	0	0	0	503	616
4	0	0	0	0	504	616
5	0	0	0	0	504	616
6	0	0	0	0	505	616
7	0	0	0	0	508	616
8	0	0	0	0	511	615
9	0	0	0	0	514	616
10	0	0	0	0	516	615
11	0	0	0	0	519	616
12	0	0	0	0	522	616
13	0	0	0	0	523	615
14	0	0	0	0	523	616
15	0	0	0	0	520	615
0	0	0	0	0	517	616
1	0	0	0	0	513	616
2	0	0	0	0	509	615
3	0	0	0	0	505	616
4	0	0	0	0	502	616
5	0	0	0	0	500	616
6	0	0	0	0	497	615
7	0	0	0	0	496	615
8	0	0	0	0	497	616
9	0	0	0	0	498	615
10	0	0	0	0	500	616
11	0	0	0	0	502	616
12	0	0	0	0	506	616
13	0	0	0	0	510	615
14	0	0	0	0	515	616
15	0	0	0	0	518	616
0	0	0	0	0	521	616
1	0	0	0	0	523	616
2	0	0	0	0	523	616
3	0	0	0	0	523	616
4	0	0	0	0	521	616
5	0	0	0	0	519	616
6	0	0	0	0	515	617
7	0	0	0	0	512	616
8	0	0	0	0	510	616
9	0	0	0	0	508	616
10	0	0	0	0	507	616
11	0	0	0	0	507	616
12	0	0	0	0	508	617
13	0	0	0	0	509	616
14	0	0	0	0	511	615
15	0	0	0	0	513	616
0	0	0	0	0	516	616
1	0	0	0	0	519	616
2	0	0	0	0	522	615
3	0	0	0	0	525	616
4	0	0	0	0	526	616
5	0	0	0	0	527	615
6	0	0	0	0	527	616
7	0	0	0	0	527	615
8	0	0	0	0	524	616
9	0	0	0	0	521	616
10	0	0	0	0	518	616
11	0	0	0	0	515	616
12	0	0	0	0	512	616
13	0	0	0	0	510	617
14	0	0	0	0	508	616
15	0	0	0	0	507	616
0	0	0	0	0	507	616
1	0	0	0	0	507	615
2	0	0	0	0	508	616
3	0	0	0	0	511	616
4	0	0	0	0	515	616
5	0	0	0	0	518	617
6	0	0	0	0	521	616
7	0	0	0	0	525	616
8	0	0	0	0	528	616
9	0	0	0	0	529	616
10	0	0	0	0	529	617
11	0	0	0	0	527	617
12	0	0	0	0	523	616
13	0	0	0	0	519	616
14	0	0	0	0	515	616
15	0	0	0	0	510	616
0	0	0	0	0	507	616
1	0	0	0	0	505	616
2	0	0	0	0	504	616
3	0	0	0	0	504	616
4	0	0	0	0	504	617
5	0	0	0	0	504	616
6	0	0	0	0	507	616
7	0	0	0	0	510	616
8	0	0	0	0	513	615
9	0	0	0	0	517	616
10	0	0	0	0	520	616
11	0	0	0	0	523	615
12	0	0	0	0	525	616
13	0	0	0	0	526	615
14	0	0	0	0	526	616
15	0	0	0	0	524	616
0	0	0	0	0	522	616
1	0	0	0	0	519	616
2	0	0	0	0	515	615
3	0	0	0	0	512	616
4	0	0	0	0	508	616
5	0	0	0	0	506	615
6	0	0	0	0	505	615
7	0	0	0	0	505	615
8	0	0	0	0	507	615
9	0	0	0	0	508	616
10	0	0	0	0	511	615
11	0	0	0	0	513	615
12	0	0	0	0	516	615
13	0	0	0	0	519	615
14	0	0	0	0	522	615
15	0	0	0	0	524	615
0	0	0	0	0	526	615
1	0	0	0	0	527	615
2	0	0	0	0	526	616
3	0	0	0	0	525	616
4	0	0	0	0	522	616
5	0	0	0	0	519	616
6	0	0	0	0	515	616
7	0	0	0	0	511	616
8	0	0	0	0	507	616
9	0	0	0	0	504	616
10	0	0	0	0	502	616
11	0	0	0	0	502	616
12	0	0	0	0	500	616
13	0	0	0	0	499	616
14	0	0	0	0	497	616
15	0	0	0	0	496	616
0	0	0	0	0	492	616
1	0	0	0	0	487	616
2	0	0	0	0	481	616
3	0	0	0	0	474	615
4	0	0	0	0	466	616
5	0	0	0	0	455	615
6	0	0	0	0	445	616
7	0	0	0	0	434	615
8	0	0	0	0	423	616
9	0	0	0	0	412	616
10	0	0	0	0	403	616
11	0	0	0	0	397	616
12	0	0	0	0	394	616
13	0	0	0	0	393	616
14	0	0	0	0	395	616
15	0	0	0	0	400	616
0	0	0	0	0	407	616
1	0	0	0	0	415	616
2	0	0	0	0	425	616
3	0	0	0	0	434	615
4	0	0	0	0	444	616
5	0	0	0	0	455	616
6	0	0	0	0	467	616
7	0	0	0	0	484	616
8	0	0	0	0	509	617
9	0	0	0	0	535	617
10	0	0	0	0	565	616
11	0	0	0	0	599	616
12	0	0	0	0	638	616
13	0	0	0	0	682	616
14	0	0	0	0	729	616
15	0	0	0	0	779	615
0	0	0	0	0	829	616
1	0	0	0	0	874	616
2	0	0	0	0	915	616
3	0	0	0	0	949	615
4	0	0	0	0	977	616
5	0	0	0	0	998	616
6	0	0	0	0	1012	616
7	0	0	0	0	1020	616
8	0	0	0	0	1022	616
9	0	0	0	0	1022	615
10	0	0	0	0	1022	616
11	0	0	0	0	1014	616
12	0	0	0	0	997	615
13	0	0	0	0	975	616
14	0	0	0	0	950	616
15	0	0	0	0	919	616
0	0	0	0	0	883	616
1	0	0	0	0	842	616
2	0	0	0	0	804	615
3	0	0	0	0	768	616
4	0	0	0	0	736	616
5	0	0	0	0	708	616
6	0	0	0	0	681	616
7	0	0	0	0	659	615
8	0	0	0	0	639	617
9	0	0	0	0	623	616
10	0	0	0	0	609	615
11	0	0	0	0	598	616
12	0	0	0	0	587	616
13	0	0	0	0	576	616
14	0	0	0	0	565	615
15	0	0	0	0	554	616
0	0	0	0	0	542	616
1	0	0	0	0	529	615
2	0	0	0	0	514	616
3	0	0	0	0	499	616
4	0	0	0	0	484	616
5	0	0	0	0	469	616
6	0	0	0	0	455	616
7	0	0	0	0	441	615
8	0	0	0	0	429	615
9	0	0	0	0	419	615
10	0	0	0	0	410	612
11	0	0	0	0	404	614
12	0	0	0	0	399	616
13	0	0	0	0	396	617
14	0	0	0	0	395	619
15	0	0	0	0	395	621
0	0	0	0	0	395	622
1	0	0	0	0	395	619
2	0	0	0	0	396	618
3	0	0	0	0	399	616
4	0	0	0	0	400	615
5	0	0	0	0	399	612
6	0	0	0	0	398	614
7	0	0	0	0	396	615
8	0	0	0	0	392	616
9	0	0	0	0	388	616
10	0	0	0	0	384	617
11	0	0	0	0	380	618
12	0	0	0	0	378	617
13	0	0	0	0	376	614
14	0	0	0	0	375	614
15	0	0	0	0	375	616
0	0	0	0	0	376	616
1	0	0	0	0	378	615
2	0	0	0	0	381	615
3	0	0	0	0	384	617
4	0	0	0	0	388	617
5	0	0	0	0	392	616
6	0	0	0	0	396	617
7	0	0	0	0	399	617
8	0	0	0	0	402	616
9	0	0	0	0	403	613
10	0	0	0	0	403	614
11	0	0	0	0	403	616
12	0	0	0	0	400	617
13	0	0	0	0	398	616
14	0	0	0	0	395	616
15	0	0	0	0	392	618
0	0	0	0	0	390	617
1	0	0	0	0	389	617
2	0	0	0	0	388	616
3	0	0	0	0	389	615
4	0	0	0	0	391	615
5	0	0	0	0	393	614
6	0	0	0	0	397	615
7	0	0	0	0	401	616
8	0	0	0	0	405	615
9	0	0	0	0	410	615
10	0	0	0	0	413	616
11	0	0	0	0	417	616
12	0	0	0	0	419	616
13	0	0	0	0	420	615
14	0	0	0	0	420	616
15	0	0	0	0	420	616
0	0	0	0	0	418	615
1	0	0	0	0	415	615
2	0	0	0	0	411	616
3	0	0	0	0	408	617
4	0	0	0	0	405	616
5	0	0	0	0	404	615
6	0	0	0	0	404	617
7	0	0	0	0	404	616
8	0	0	0	0	405	615
9	0	0	0	0	407	615
10	0	0	0	0	410	615
11	0	0	0	0	415	616
12	0	0	0	0	419	615
13	0	0	0	0	424	615
14	0	0	0	0	429	616
15	0	0	0	0	433	616
0	0	0	0	0	436	615
1	0	0	0	0	438	616
2	0	0	0	0	437	617
3	0	0	0	0	436	616
4	0	0	0	0	433	615
5	0	0	0	0	429	615
6	0	0	0	0	425	616
7	0	0	0	0	422	616
8	0	0	0	0	418	615
9	0	0	0	0	416	615
10	0	0	0	0	415	616
11	0	0	0	0	416	616
12	0	0	0	0	417	616
13	0	0	0	0	419	616
14	0	0	0	0	421	616
15	0	0	0	0	425	615
0	0	0	0	0	428	615
1	0	0	0	0	432	616
2	0	0	0	0	436	616
3	0	0	0	0	440	616
4	0	0	0	0	444	616
5	0	0	0	0	446	615
6	0	0	0	0	445	616
7	0	0	0	0	444	616
8	0	0	0	0	441	615
9	0	0	0	0	438	616
10	0	0	0	0	433	616
11	0	0	0	0	430	616
12	0	0	0	0	428	615
13	0	0	0	0	427	615
14	0	0	0	0	427	616
15	0	0	0	0	427	615
0	0	0	0	0	427	615
1	0	0	0	0	426	616
2	0	0	0	0	426	616
3	0	0	0	0	428	616
4	0	0	0	0	430	616
5	0	0	0	0	432	616
6	0	0	0	0	433	615
7	0	0	0	0	436	616
8	0	0	0	0	439	616
9	0	0	0	0	439	616
10	0	0	0	0	439	617
11	0	0	0	0	439	616
12	0	0	0	0	437	616
13	0	0	0	0	435	616
14	0	0	0	0	433	616
15	0	0	0	0	431	616
0	0	0	0	0	430	616
1	0	0	0	0	428	616
2	0	0	0	0	426	615
3	0	0	0	0	425	616
4	0	0	0	0	426	617
5	0	0	0	0	427	616
6	0	0	0	0	430	617
7	0	0	0	0	434	616
8	0	0	0	0	439	616
9	0	0	0	0	444	616
10	0	0	0	0	448	616
11	0	0	0	0	452	616
12	0	0	0	0	455	616
13	0	0	0	0	457	616
14	0	0	0	0	457	616
15	0	0	0	0	456	616
0	0	0	0	0	453	616
1	0	0	0	0	449	616
2	0	0	0	0	446	615
3	0	0	0	0	443	616
4	0	0	0	0	441	616
5	0	0	0	0	440	616
6	0	0	0	0	439	616
7	0	0	0	0	440	615
8	0	0	0	0	442	615
9	0	0	0	0	444	615
10	0	0	0	0	447	616
11	0	0	0	0	449	615
12	0	0	0	0	453	616
13	0	0	0	0	457	615
14	0	0	0	0	462	615
15	0	0	0	0	466	615
0	0	0	0	0	469	615
1	0	0	0	0	472	616
2	0	0	0	0	472	616
3	0	0	0	0	472	615
4	0	0	0	0	470	616
5	0	0	0	0	468	616
6	0	0	0	0	466	615
7	0	0	0	0	463	615
8	0	0	0	0	461	615
9	0	0	0	0	460	615
10	0	0	0	0	460	616
11	0	0	0	0	460	616
12	0	0	0	0	463	616
13	0	0	0	0	465	616
14	0	0	0	0	470	615
15	0	0	0	0	474	615
0	0	0	0	0	478	615
1	0	0	0	0	483	616
2	0	0	0	0	487	616
3	0	0	0	0	492	616
4	0	0	0	0	496	616
5	0	0	0	0	497	616
6	0	0	0	0	497	616
7	0	0	0	0	497	616
8	0	0	0	0	496	616
9	0	0	0	0	494	616
10	0	0	0	0	492	616
11	0	0	0	0	490	616
12	0	0	0	0	487	617
13	0	0	0	0	486	616
14	0	0	0	0	485	616
15	0	0	0	0	486	615
0	0	0	0	0	487	616
1	0	0	0	0	489	616
2	0	0	0	0	493	616
3	0	0	0	0	496	616
4	0	0	0	0	500	616
5	0	0	0	0	505	616
6	0	0	0	0	510	615
7	0	0	0	0	515	616
8	0	0	0	0	518	616
9	0	0	0	0	519	615
10	0	0	0	0	520	616
11	0	0	0	0	520	616
12	0	0	0	0	519	616
13	0	0	0	0	517	615
14	0	0	0	0	514	616
15	0	0	0	0	512	616
0	0	0	0	0	509	616
1	0	0	0	0	508	616
2	0	0	0	0	508	616
3	0	0	0	0	508	615
4	0	0	0	0	509	616
5	0	0	0	0	511	615
6	0	0	0	0	513	616
7	0	0	0	0	517	616
8	0	0	0	0	520	615
9	0	0	0	0	524	616
10	0	0	0	0	528	616
11	0	0	0	0	532	616
12	0	0	0	0	535	616
13	0	0	0	0	537	616
14	0	0	0	0	537	616
15	0	0	0	0	537	616
0	0	0	0	0	535	616
1	0	0	0	0	531	616
2	0	0	0	0	529	616
3	0	0	0	0	527	616
4	0	0	0	0	524	616
5	0	0	0	0	522	615
6	0	0	0	0	520	616
7	0	0	0	0	521	616
8	0	0	0	0	522	615
9	0	0	0	0	524	616
10	0	0	0	0	527	615
11	0	0	0	0	531	615
12	0	0	0	0	534	616
13	0	0	0	0	538	616
14	0	0	0	0	542	616
15	0	0	0	0	545	616
0	0	0	0	0	548	615
1	0	0	0	0	548	616
2	0	0	0	0	548	616
3	0	0	0	0	547	616
4	0	0	0	0	545	616
5	0	0	0	0	542	615
6	0	0	0	0	539	616
7	0	0	0	0	535	616
8	0	0	0	0	532	615
9	0	0	0	0	529	616
10	0	0	0	0	528	615
11	0	0	0	0	528	615
12	0	0	0	0	529	616
13	0	0	0	0	531	615
14	0	0	0	0	533	615
15	0	0	0	0	536	616
0	0	0	0	0	539	616
1	0	0	0	0	543	616
2	0	0	0	0	547	616
3	0	0	0	0	550	616
4	0	0	0	0	552	616
5	0	0	0	0	552	616
6	0	0	0	0	551	616
7	0	0	0	0	550	616
8	0	0	0	0	547	616
9	0	0	0	0	543	616
10	0	0	0	0	539	616
11	0	0	0	0	535	616
12	0	0	0	0	531	616
13	0	0	0	0	528	616
14	0	0	0	0	526	616
15	0	0	0	0	526	616
0	0	0	0	0	527	616
1	0	0	0	0	527	616
2	0	0	0	0	529	616
3	0	0	0	0	532	616
4	0	0	0	0	535	616
5	0	0	0	0	539	616
6	0	0	0	0	543	616
7	0	0	0	0	546	616
8	0	0	0	0	548	616
9	0	0	0	0	549	616
10	0	0	0	0	549	616
11	0	0	0	0	547	616
12	0	0	0	0	543	616
13	0	0	0	0	540	615
14	0	0	0	0	536	616
15	0	0	0	0	532	616
0	0	0	0	0	529	616
1	0	0	0	0	527	616
2	0	0	0	0	526	616
3	0	0	0	0	525	616
4	0	0	0	0	524	616
5	0	0	0	0	525	616
6	0	0	0	0	525	616
7	0	0	0	0	527	616
8	0	0	0	0	529	616
9	0	0	0	0	531	617
10	0	0	0	0	535	615
11	0	0	0	0	537	616
12	0	0	0	0	539	616
13	0	0	0	0	540	615
14	0	0	0	0	540	616
15	0	0	0	0	540	616
0	0	0	0	0	537	616
1	0	0	0	0	534	616
2	0	0	0	0	530	616
3	0	0	0	0	526	616
4	0	0	0	0	523	616
5	0	0	0	0	520	616
6	0	0	0	0	519	615
7	0	0	0	0	518	616
8	0	0	0	0	519	616
9	0	0	0	0	519	616
10	0	0	0	0	521	616
11	0	0	0	0	524	616
12	0	0	0	0	527	616
13	0	0	0	0	529	616
14	0	0	0	0	532	616
15	0	0	0	0	536	616
0	0	0	0	0	537	615
1	0	0	0	0	537	616
2	0	0	0	0	536	616
3	0	0	0	0	536	616
4	0	0	0	0	532	616
5	0	0	0	0	528	616
6	0	0	0	0	524	616
7	0	0	0	0	519	617
8	0	0	0	0	518	616
9	0	0	0	0	516	616
10	0	0	0	0	514	616
11	0	0	0	0	514	616
12	0	0	0	0	515	615
13	0	0	0	0	517	615
14	0	0	0	0	519	616
15	0	0	0	0	522	616
0	0	0	0	0	524	616
1	0	0	0	0	528	616
2	0	0	0	0	531	616
3	0	0	0	0	534	616
4	0	0	0	0	536	616
5	0	0	0	0	536	615
6	0	0	0	0	535	616
7	0	0	0	0	534	616
8	0	0	0	0	531	615
9	0	0	0	0	527	616
10	0	0	0	0	524	615
11	0	0	0	0	520	615
12	0	0	0	0	516	615
13	0	0	0	0	514	615
14	0	0	0	0	512	615
15	0	0	0	0	512	615
0	0	0	0	0	513	615
1	0	0	0	0	514	615
2	0	0	0	0	516	616
3	0	0	0	0	519	615
4	0	0	0	0	523	616
5	0	0	0	0	527	615
6	0	0	0	0	530	616
7	0	0	0	0	533	616
8	0	0	0	0	535	616
9	0	0	0	0	536	616
10	0	0	0	0	535	616
11	0	0	0	0	534	616
12	0	0	0	0	531	616
13	0	0	0	0	528	616
14	0	0	0	0	525	616
15	0	0	0	0	521	616
0	0	0	0	0	518	616
1	0	0	0	0	515	616
2	0	0	0	0	514	617
3	0	0	0	0	514	616
4	0	0	0	0	514	616
5	0	0	0	0	515	616
6	0	0	0	0	519	616
7	0	0	0	0	521	616
8	0	0	0	0	525	615
9	0	0	0	0	528	616
10	0	0	0	0	531	616
11	0	0	0	0	534	616
12	0	0	0	0	536	617
13	0	0	0	0	536	616
14	0	0	0	0	536	616
15	0	0	0	0	535	617
0	0	0	0	0	532	616
1	0	0	0	0	528	617
2	0	0	0	0	524	615
3	0	0	0	0	521	616
4	0	0	0	0	518	616
5	0	0	0	0	516	616
6	0	0	0	0	514	616
7	0	0	0	0	514	616
8	0	0	0	0	515	616
9	0	0	0	0	515	616
10	0	0	0	0	517	616
11	0	0	0	0	520	616
12	0	0	0	0	523	615
13	0	0	0	0	526	616
14	0	0	0	0	528	616
15	0	0	0	0	531	615
0	0	0	0	0	532	615
1	0	0	0	0	533	615
2	0	0	0	0	532	616
3	0	0	0	0	531	615
4	0	0	0	0	528	616
5	0	0	0	0	525	616
6	0	0	0	0	522	616
7	0	0	0	0	518	616
8	0	0	0	0	516	616
9	0	0	0	0	515	616
10	0	0	0	0	514	616
11	0	0	0	0	515	616
12	0	0	0	0	515	617
13	0	0	0	0	516	617
14	0	0	0	0	518	616
15	0	0	0	0	520	616
0	0	0	0	0	522	616
1	0	0	0	0	524	616
2	0	0	0	0	527	616
3	0	0	0	0	529	616
4	0	0	0	0	531	616
5	0	0	0	0	531	616
6	0	0	0	0	530	616
7	0	0	0	0	528	616
8	0	0	0	0	526	615
9	0	0	0	0	522	616
10	0	0	0	0	518	616
11	0	0	0	0	513	616
12	0	0	0	0	510	616
13	0	0	0	0	507	615
14	0	0	0	0	504	616
15	0	0	0	0	504	615
0	0	0	0	0	504	616
1	0	0	0	0	504	616
2	0	0	0	0	506	616
3	0	0	0	0	508	616
4	0	0	0	0	510	616
5	0	0	0	0	513	617
6	0	0	0	0	517	616
7	0	0	0	0	520	617
8	0	0	0	0	523	616
9	0	0	0	0	524	616
10	0	0	0	0	524	616
11	0	0	0	0	524	616
12	0	0	0	0	520	616
13	0	0	0	0	516	616
14	0	0	0	0	511	616
15	0	0	0	0	507	616
0	0	0	0	0	504	616
1	0	0	0	0	502	616
2	0	0	0	0	500	615
3	0	0	0	0	499	615
4	0	0	0	0	500	616
5	0	0	0	0	501	615
6	0	0	0	0	503	616
7	0	0	0	0	506	616
8	0	0	0	0	509	616
9	0	0	0	0	512	617
10	0	0	0	0	515	617
11	0	0	0	0	519	616
12	0	0	0	0	521	616
13	0	0	0	0	522	616
14	0	0	0	0	521	616
15	0	0	0	0	520	616
0	0	0	0	0	518	616
1	0	0	0	0	515	616
2	0	0	0	0	512	616
3	0	0	0	0	509	616
4	0	0	0	0	507	616
5	0	0	0	0	506	616
6	0	0	0	0	505	616
7	0	0	0	0	506	616
8	0	0	0	0	507	616
9	0	0	0	0	508	616
10	0	0	0	0	511	616
11	0	0	0	0	514	616
12	0	0	0	0	517	616
13	0	0	0	0	522	616
14	0	0	0	0	526	616
15	0	0	0	0	530	616
0	0	0	0	0	532	616
1	0	0	0	0	533	616
2	0	0	0	0	532	616
3	0	0	0	0	531	616
4	0	0	0	0	527	616
5	0	0	0	0	524	616
6	0	0	0	0	519	615
7	0	0	0	0	515	616
8	0	0	0	0	512	616
9	0	0	0	0	509	616
10	0	0	0	0	508	616
11	0	0	0	0	508	616
12	0	0	0	0	510	616
13	0	0	0	0	511	616
14	0	0	0	0	513	616
15	0	0	0	0	517	616
0	0	0	0	0	521	616
1	0	0	0	0	524	617
2	0	0	0	0	527	616
3	0	0	0	0	529	617
4	0	0	0	0	531	617
5	0	0	0	0	531	615
6	0	0	0	0	531	616
7	0	0	0	0	530	616
8	0	0	0	0	527	616
9	0	0	0	0	524	616
10	0	0	0	0	521	616
11	0	0	0	0	517	616
12	0	0	0	0	513	616
13	0	0	0	0	512	616
14	0	0	0	0	510	616
15	0	0	0	0	511	616
0	0	0	0	0	511	616
1	0	0	0	0	512	616
2	0	0	0	0	514	617
3	0	0	0	0	516	616
4	0	0	0	0	519	616
5	0	0	0	0	522	616
6	0	0	0	0	525	616
7	0	0	0	0	528	616
8	0	0	0	0	529	616
9	0	0	0	0	529	615
10	0	0	0	0	529	615
11	0	0	0	0	527	616
12	0	0	0	0	525	616
13	0	0	0	0	521	615
14	0	0	0	0	518	616
15	0	0	0	0	515	616
0	0	0	0	0	512	616
1	0	0	0	0	510	617
2	0	0	0	0	508	617
3	0	0	0	0	508	616
4	0	0	0	0	509	617
5	0	0	0	0	510	616
6	0	0	0	0	512	616
7	0	0	0	0	514	616
8	0	0	0	0	517	616
9	0	0	0	0	520	616
10	0	0	0	0	523	616
11	0	0	0	0	526	616
12	0	0	0	0	527	617
13	0	0	0	0	527	616
14	0	0	0	0	526	616
15	0	0	0	0	524	616
0	0	0	0	0	521	616
1	0	0	0	0	519	616
2	0	0	0	0	515	616
3	0	0	0	0	512	616
4	0	0	0	0	509	616
5	0	0	0	0	508	615
6	0	0	0	0	506	615
7	0	0	0	0	505	615
8	0	0	0	0	505	616
9	0	0	0	0	507	617
10	0	0	0	0	509	616
11	0	0	0	0	511	616
12	0	0	0	0	514	617
13	0	0	0	0	517	616
14	0	0	0	0	519	616
15	0	0	0	0	522	616
0	0	0	0	0	522	616
1	0	0	0	0	519	616
2	0	0	0	0	516	617
3	0	0	0	0	511	616
4	0	0	0	0	501	616
5	0	0	0	0	490	616
6	0	0	0	0	476	616
7	0	0	0	0	462	616
8	0	0	0	0	448	615
9	0	0	0	0	435	615
10	0	0	0	0	423	616
11	0	0	0	0	415	616
12	0	0	0	0	407	616
13	0	0	0	0	401	616
14	0	0	0	0	399	616
15	0	0	0	0	400	615
0	0	0	0	0	403	615
1	0	0	0	0	408	616
2	0	0	0	0	414	615
3	0	0	0	0	422	616
4	0	0	0	0	430	616
5	0	0	0	0	438	616
6	0	0	0	0	446	616
7	0	0	0	0	451	616
8	0	0	0	0	455	616
9	0	0	0	0	459	616
10	0	0	0	0	462	616
11	0	0	0	0	469	616
12	0	0	0	0	483	616
13	0	0	0	0	504	616
14	0	0	0	0	528	615
15	0	0	0	0	558	616
0	0	0	0	0	596	616
1	0	0	0	0	641	616
2	0	0	0	0	692	616
3	0	0	0	0	746	616
4	0	0	0	0	800	616
5	0	0	0	0	850	616
6	0	0	0	0	895	615
7	0	0	0	0	932	616
8	0	0	0	0	962	615
9	0	0	0	0	984	615
10	0	0	0	0	996	616
11	0	0	0	0	1000	615
12	0	0	0	0	1000	616
13	0	0	0	0	994	616
14	0	0	0	0	982	616
15	0	0	0	0	966	617
0	0	0	0	0	945	616
1	0	0	0	0	923	616
2	0	0	0	0	897	616
3	0	0	0	0	869	616
4	0	0	0	0	838	616
5	0	0	0	0	805	616
6	0	0	0	0	774	616
7	0	0	0	0	748	616
8	0	0	0	0	725	616
9	0	0	0	0	705	616
10	0	0	0	0	687	616
11	0	0	0	0	671	616
12	0	0	0	0	655	616
13	0	0	0	0	639	616
14	0	0	0	0	625	616
15	0	0	0	0	611	616
0	0	0	0	0	595	615
1	0	0	0	0	578	616
2	0	0	0	0	560	616
3	0	0	0	0	543	616
4	0	0	0	0	526	617
5	0	0	0	0	511	616
6	0	0	0	0	496	616
7	0	0	0	0	484	616
8	0	0	0	0	474	616
9	0	0	0	0	466	616
10	0	0	0	0	460	616
11	0	0	0	0	454	616
12	0	0	0	0	450	616
13	0	0	0	0	446	616
14	0	0	0	0	443	617
15	0	0	0	0	440	616
0	0	0	0	0	438	616
1	0	0	0	0	434	615
2	0	0	0	0	430	616
3	0	0	0	0	425	616
4	0	0	0	0	419	616
5	0	0	0	0	413	616
6	0	0	0	0	407	615
7	0	0	0	0	402	616
8	0	0	0	0	397	616
9	0	0	0	0	393	616
10	0	0	0	0	391	616
11	0	0	0	0	391	615
12	0	0	0	0	391	616
13	0	0	0	0	392	616
14	0	0	0	0	394	615
15	0	0	0	0	397	616
0	0	0	0	0	400	615
1	0	0	0	0	403	615
2	0	0	0	0	406	616
3	0	0	0	0	408	616
4	0	0	0	0	410	616
5	0	0	0	0	411	615
6	0	0	0	0	411	616
7	0	0	0	0	411	615
8	0	0	0	0	408	616
9	0	0	0	0	405	616
10	0	0	0	0	401	616
11	0	0	0	0	397	616
12	0	0	0	0	395	616
13	0	0	0	0	393	616
14	0	0	0	0	394	616
15	0	0	0	0	396	615
0	0	0	0	0	398	615
1	0	0	0	0	400	615
2	0	0	0	0	404	616
3	0	0	0	0	407	616
4	0	0	0	0	412	617
5	0	0	0	0	416	616
6	0	0	0	0	422	616
7	0	0	0	0	426	616
8	0	0	0	0	430	616
9	0	0	0	0	432	616
10	0	0	0	0	432	617
11	0	0	0	0	430	616
12	0	0	0	0	427	617
13	0	0	0	0	423	616
14	0	0	0	0	419	615
15	0	0	0	0	415	616
0	0	0	0	0	412	615
1	0	0	0	0	409	616
2	0	0	0	0	408	616
3	0	0	0	0	408	616
4	0	0	0	0	408	616
5	0	0	0	0	411	616
6	0	0	0	0	414	616
7	0	0	0	0	419	616
8	0	0	0	0	423	616
9	0	0	0	0	428	616
10	0	0	0	0	433	616
11	0	0	0	0	438	616
12	0	0	0	0	441	616
13	0	0	0	0	442	616
14	0	0	0	0	443	616
15	0	0	0	0	441	616
0	0	0	0	0	439	616
1	0	0	0	0	435	616
2	0	0	0	0	431	616
3	0	0	0	0	427	616
4	0	0	0	0	423	616
5	0	0	0	0	421	616
6	0	0	0	0	419	615
7	0	0	0	0	418	615
8	0	0	0	0	419	616
9	0	0	0	0	420	616
10	0	0	0	0	424	616
11	0	0	0	0	428	617
12	0	0	0	0	431	616
13	0	0	0	0	435	616
14	0	0	0	0	440	615
15	0	0	0	0	444	616
0	0	0	0	0	447	616
1	0	0	0	0	448	616
2	0	0	0	0	448	616
3	0	0	0	0	448	616
4	0	0	0	0	445	616
5	0	0	0	0	441	616
6	0	0	0	0	438	615
7	0	0	0	0	434	616
8	0	0	0	0	432	616
9	0	0	0	0	430	616
10	0	0	0	0	429	616
11	0	0	0	0	429	616
12	0	0	0	0	430	616
13	0	0	0	0	431	615
14	0	0	0	0	433	616
15	0	0	0	0	437	615
0	0	0	0	0	441	615
1	0	0	0	0	445	616
2	0	0	0	0	448	616
3	0	0	0	0	452	616
4	0	0	0	0	455	616
5	0	0	0	0	456	616
6	0	0	0	0	456	616
7	0	0	0	0	455	616
8	0	0	0	0	453	616
9	0	0	0	0	451	616
10	0	0	0	0	447	616
11	0	0	0	0	442	617
12	0	0	0	0	439	616
13	0	0	0	0	436	616
14	0	0	0	0	435	616
15	0	0	0	0	436	616
0	0	0	0	0	437	616
1	0	0	0	0	439	616
2	0	0	0	0	442	616
3	0	0	0	0	445	616
4	0	0	0	0	448	616
5	0	0	0	0	451	616
6	0	0	0	0	455	616
7	0	0	0	0	460	616
8	0	0	0	0	462	616
9	0	0	0	0	463	616
10	0	0	0	0	463	616
11	0	0	0	0	462	616
12	0	0	0	0	460	616
13	0	0	0	0	456	616
14	0	0	0	0	453	616
15	0	0	0	0	449	615
0	0	0	0	0	446	616
1	0	0	0	0	445	616
2	0	0	0	0	444	616
3	0	0	0	0	444	615
4	0	0	0	0	445	616
5	0	0	0	0	447	616
6	0	0	0	0	450	616
7	0	0	0	0	454	616
8	0	0	0	0	459	616
9	0	0	0	0	463	616
10	0	0	0	0	467	616
11	0	0	0	0	470	616
12	0	0	0	0	472	617
13	0	0	0	0	472	616
14	0	0	0	0	473	616
15	0	0	0	0	473	616
0	0	0	0	0	471	616
1	0	0	0	0	468	616
2	0	0	0	0	465	616
3	0	0	0	0	462	617
4	0	0	0	0	459	616
5	0	0	0	0	458	615
6	0	0	0	0	458	616
7	0	0	0	0	459	615
8	0	0	0	0	460	616
9	0	0	0	0	463	616
10	0	0	0	0	467	616
11	0	0	0	0	471	616
12	0	0	0	0	475	616
13	0	0	0	0	480	617
14	0	0	0	0	485	616
15	0	0	0	0	489	616
0	0	0	0	0	493	617
1	0	0	0	0	495	616
2	0	0	0	0	496	616
3	0	0	0	0	496	616
4	0	0	0	0	494	616
5	0	0	0	0	492	616
6	0	0	0	0	489	616
7	0	0	0	0	487	616
8	0	0	0	0	486	616
9	0	0	0	0	484	616
10	0	0	0	0	484	616
11	0	0	0	0	484	616
12	0	0	0	0	486	616
13	0	0	0	0	488	616
14	0	0	0	0	492	616
15	0	0	0	0	496	616
0	0	0	0	0	499	616
1	0	0	0	0	504	616
2	0	0	0	0	509	617
3	0	0	0	0	512	616
4	0	0	0	0	514	617
5	0	0	0	0	516	616
6	0	0	0	0	516	617
7	0	0	0	0	516	616
8	0	0	0	0	513	616
9	0	0	0	0	510	616
10	0	0	0	0	505	616
11	0	0	0	0	502	616
12	0	0	0	0	499	616
13	0	0	0	0	498	616
14	0	0	0	0	498	616
15	0	0	0	0	499	615
0	0	0	0	0	501	616
1	0	0	0	0	504	616
2	0	0	0	0	510	616
3	0	0	0	0	513	616
4	0	0	0	0	518	616
5	0	0	0	0	522	616
6	0	0	0	0	526	615
7	0	0	0	0	529	615
8	0	0	0	0	532	616
9	0	0	0	0	533	616
10	0	0	0	0	532	616
11	0	0	0	0	531	616
12	0	0	0	0	528	616
13	0	0	0	0	524	616
14	0	0	0	0	520	615
15	0	0	0	0	516	615
0	0	0	0	0	514	616
1	0	0	0	0	512	616
2	0	0	0	0	512	616
3	0	0	0	0	512	615
4	0	0	0	0	514	617
5	0	0	0	0	516	616
6	0	0	0	0	520	616
7	0	0	0	0	524	615
8	0	0	0	0	527	616
9	0	0	0	0	531	616
10	0	0	0	0	535	616
11	0	0	0	0	539	616
12	0	0	0	0	541	616
13	0	0	0	0	543	616
14	0	0	0	0	543	616
15	0	0	0	0	543	615
0	0	0	0	0	540	616
1	0	0	0	0	536	616
2	0	0	0	0	532	616
3	0	0	0	0	528	616
4	0	0	0	0	525	616
5	0	0	0	0	523	615
6	0	0	0	0	521	616
7	0	0	0	0	519	616
8	0	0	0	0	519	616
9	0	0	0	0	520	616
10	0	0	0	0	522	616
11	0	0	0	0	524	616
12	0	0	0	0	528	616
13	0	0	0	0	532	616
14	0	0	0	0	535	616
15	0	0	0	0	537	616
0	0	0	0	0	540	615
1	0	0	0	0	539	615
2	0	0	0	0	539	616
3	0	0	0	0	537	615
4	0	0	0	0	534	616
5	0	0	0	0	530	616
6	0	0	0	0	526	615
7	0	0	0	0	523	616
8	0	0	0	0	520	615
9	0	0	0	0	518	616
10	0	0	0	0	518	616
11	0	0	0	0	518	616
12	0	0	0	0	520	616
13	0	0	0	0	521	615
14	0	0	0	0	524	616
15	0	0	0	0	527	615
0	0	0	0	0	530	615
1	0	0	0	0	534	616
2	0	0	0	0	537	616
3	0	0	0	0	541	616
4	0	0	0	0	543	616
5	0	0	0	0	543	616
6	0	0	0	0	542	616
7	0	0	0	0	540	616
8	0	0	0	0	537	616
9	0	0	0	0	533	616
10	0	0	0	0	529	616
11	0	0	0	0	525	616
12	0	0	0	0	521	616
13	0	0	0	0	518	616
14	0	0	0	0	516	616
15	0	0	0	0	516	616
0	0	0	0	0	517	616
1	0	0	0	0	518	616
2	0	0	0	0	520	616
3	0	0	0	0	523	616
4	0	0	0	0	526	616
5	0	0	0	0	529	616
6	0	0	0	0	532	616
7	0	0	0	0	535	616
8	0	0	0	0	537	616
9	0	0	0	0	538	616
10	0	0	0	0	538	616
11	0	0	0	0	537	615
12	0	0	0	0	534	616
13	0	0	0	0	529	616
14	0	0	0	0	524	616
15	0	0	0	0	519	617
0	0	0	0	0	515	616
1	0	0	0	0	512	616
2	0	0	0	0	510	616
3	0	0	0	0	509	615
4	0	0	0	0	509	616
5	0	0	0	0	510	616
6	0	0	0	0	512	616
7	0	0	0	0	516	616
8	0	0	0	0	520	617
9	0	0	0	0	524	616
10	0	0	0	0	527	616
11	0	0	0	0	531	616
12	0	0	0	0	534	616
13	0	0	0	0	534	616
14	0	0	0	0	533	616
15	0	0	0	0	531	616
0	0	0	0	0	527	616
1	0	0	0	0	523	616
2	0	0	0	0	519	616
3	0	0	0	0	515	617
4	0	0	0	0	513	617
5	0	0	0	0	512	616
6	0	0	0	0	512	616
7	0	0	0	0	512	615
8	0	0	0	0	513	616
9	0	0	0	0	515	616
10	0	0	0	0	517	615
11	0	0	0	0	519	616
12	0	0	0	0	522	616
13	0	0	0	0	525	615
14	0	0	0	0	529	615
15	0	0	0	0	532	615
0	0	0	0	0	534	615
1	0	0	0	0	534	616
2	0	0	0	0	534	616
3	0	0	0	0	532	616
4	0	0	0	0	529	616
5	0	0	0	0	526	616
6	0	0	0	0	522	617
7	0	0	0	0	518	616
8	0	0	0	0	516	616
9	0	0	0	0	513	616
10	0	0	0	0	512	616
11	0	0	0	0	512	616
12	0	0	0	0	512	617
13	0	0	0	0	513	616
14	0	0	0	0	515	616
15	0	0	0	0	518	616
0	0	0	0	0	521	615
1	0	0	0	0	525	616
2	0	0	0	0	528	616
3	0	0	0	0	531	616
4	0	0	0	0	533	616
5	0	0	0	0	534	616
6	0	0	0	0	534	616
7	0	0	0	0	532	616
8	0	0	0	0	529	616
9	0	0	0	0	526	617
10	0	0	0	0	523	616
11	0	0	0	0	518	617
12	0	0	0	0	515	617
13	0	0	0	0	512	616
14	0	0	0	0	512	617
15	0	0	0	0	512	616
0	0	0	0	0	512	617
1	0	0	0	0	513	616
2	0	0	0	0	516	616
3	0	0	0	0	519	616
4	0	0	0	0	521	616
5	0	0	0	0	525	616
6	0	0	0	0	528	616
7	0	0	0	0	530	615
8	0	0	0	0	532	616
9	0	0	0	0	532	615
10	0	0	0	0	531	616
11	0	0	0	0	528	616
12	0	0	0	0	525	616
13	0	0	0	0	521	616
14	0	0	0	0	516	615
15	0	0	0	0	512	615
0	0	0	0	0	510	615
1	0	0	0	0	508	615
2	0	0	0	0	506	616
3	0	0	0	0	505	615
4	0	0	0	0	506	616
5	0	0	0	0	507	616
6	0	0	0	0	509	616
7	0	0	0	0	512	617
8	0	0	0	0	515	615
9	0	0	0	0	519	616
10	0	0	0	0	523	616
11	0	0	0	0	526	615
12	0	0	0	0	526	617
13	0	0	0	0	526	616
14	0	0	0	0	526	616
15	0	0	0	0	524	616
0	0	0	0	0	520	615
1	0	0	0	0	516	616
2	0	0	0	0	513	616
3	0	0	0	0	509	616
4	0	0	0	0	507	617
5	0	0	0	0	505	616
6	0	0	0	0	504	616
7	0	0	0	0	504	615
8	0	0	0	0	505	616
9	0	0	0	0	506	616
10	0	0	0	0	508	616
11	0	0	0	0	511	616
12	0	0	0	0	513	616
13	0	0	0	0	517	616
14	0	0	0	0	521	615
15	0	0	0	0	524	616
0	0	0	0	0	527	615
1	0	0	0	0	527	616
2	0	0	0	0	527	616
3	0	0	0	0	526	616
4	0	0	0	0	522	616
5	0	0	0	0	518	616
6	0	0	0	0	513	617
7	0	0	0	0	510	616
8	0	0	0	0	507	616
9	0	0	0	0	504	616
10	0	0	0	0	503	616
11	0	0	0	0	503	616
12	0	0	0	0	504	616
13	0	0	0	0	505	616
14	0	0	0	0	507	616
15	0	0	0	0	511	616
0	0	0	0	0	514	617
1	0	0	0	0	518	617
2	0	0	0	0	521	617
3	0	0	0	0	524	617
4	0	0	0	0	526	617
5	0	0	0	0	525	616
6	0	0	0	0	524	616
7	0	0	0	0	522	616
8	0	0	0	0	518	616
9	0	0	0	0	513	616
10	0	0	0	0	508	616
11	0	0	0	0	504	616
12	0	0	0	0	500	617
13	0	0	0	0	498	616
14	0	0	0	0	497	615
15	0	0	0	0	497	615
0	0	0	0	0	498	616
1	0	0	0	0	500	615
2	0	0	0	0	502	615
3	0	0	0	0	506	615
4	0	0	0	0	509	615
5	0	0	0	0	512	615
6	0	0	0	0	516	615
7	0	0	0	0	519	615
8	0	0	0	0	521	616
9	0	0	0	0	521	615
10	0	0	0	0	520	616
11	0	0	0	0	519	617
12	0	0	0	0	516	616
13	0	0	0	0	513	616
14	0	0	0	0	510	616
15	0	0	0	0	507	616
0	0	0	0	0	505	616
1	0	0	0	0	503	616
2	0	0	0	0	503	616
3	0	0	0	0	505	616
4	0	0	0	0	507	616
5	0	0	0	0	508	616
6	0	0	0	0	511	616
7	0	0	0	0	515	616
8	0	0	0	0	518	616
9	0	0	0	0	521	617
10	0	0	0	0	525	616
11	0	0	0	0	528	616
12	0	0	0	0	529	616
13	0	0	0	0	530	616
14	0	0	0	0	530	615
15	0	0	0	0	529	616
0	0	0	0	0	525	616
1	0	0	0	0	521	616
2	0	0	0	0	518	616
3	0	0	0	0	514	617
4	0	0	0	0	511	617
5	0	0	0	0	510	616
6	0	0	0	0	510	616
7	0	0	0	0	510	616
8	0	0	0	0	512	616
9	0	0	0	0	512	616
10	0	0	0	0	515	616
11	0	0	0	0	518	616
12	0	0	0	0	520	616
13	0	0	0	0	524	616
14	0	0	0	0	528	615
15	0	0	0	0	530	615
0	0	0	0	0	532	616
1	0	0	0	0	532	616
2	0	0	0	0	531	616
3	0	0	0	0	530	616
4	0	0	0	0	526	616
5	0	0	0	0	521	615
6	0	0	0	0	518	615
7	0	0	0	0	514	616
8	0	0	0	0	511	616
9	0	0	0	0	508	616
10	0	0	0	0	506	615
11	0	0	0	0	506	616
12	0	0	0	0	507	616
13	0	0	0	0	508	616
14	0	0	0	0	511	616
15	0	0	0	0	514	616
0	0	0	0	0	517	616
1	0	0	0	0	520	616
2	0	0	0	0	524	616
3	0	0	0	0	526	617
4	0	0	0	0	529	617
5	0	0	0	0	529	616
6	0	0	0	0	529	616
7	0	0	0	0	528	616
8	0	0	0	0	524	615
9	0	0	0	0	521	616
10	0	0	0	0	517	615
11	0	0	0	0	512	616
12	0	0	0	0	510	616
13	0	0	0	0	508	615
14	0	0	0	0	507	616
15	0	0	0	0	506	616
0	0	0	0	0	507	616
1	0	0	0	0	508	615
2	0	0	0	0	510	615
3	0	0	0	0	512	616
4	0	0	0	0	516	616
5	0	0	0	0	519	616
6	0	0	0	0	523	617
7	0	0	0	0	526	616
8	0	0	0	0	528	616
9	0	0	0	0	529	616
10	0	0	0	0	528	616
11	0	0	0	0	526	617
12	0	0	0	0	523	616
13	0	0	0	0	519	616
14	0	0	0	0	514	616
15	0	0	0	0	510	616
0	0	0	0	0	506	616
1	0	0	0	0	503	616
2	0	0	0	0	501	616
3	0	0	0	0	500	615
4	0	0	0	0	501	617
5	0	0	0	0	502	616
6	0	0	0	0	504	616
7	0	0	0	0	508	616
8	0	0	0	0	512	615
9	0	0	0	0	515	616
10	0	0	0	0	518	615
11	0	0	0	0	520	615
12	0	0	0	0	522	616
13	0	0	0	0	521	616
14	0	0	0	0	519	616
15	0	0	0	0	514	616
0	0	0	0	0	505	616
1	0	0	0	0	496	616
2	0	0	0	0	483	616
3	0	0	0	0	470	616
4	0	0	0	0	456	616
5	0	0	0	0	443	616
6	0	0	0	0	431	616
7	0	0	0	0	420	616
8	0	0	0	0	412	616
9	0	0	0	0	404	616
10	0	0	0	0	400	616
11	0	0	0	0	398	616
12	0	0	0	0	399	617
13	0	0	0	0	402	616
14	0	0	0	0	406	616
15	0	0	0	0	413	616
0	0	0	0	0	420	616
1	0	0	0	0	429	615
2	0	0	0	0	437	616
3	0	0	0	0	444	616
4	0	0	0	0	449	616
5	0	0	0	0	453	616
6	0	0	0	0	455	616
7	0	0	0	0	458	616
8	0	0	0	0	464	616
9	0	0	0	0	478	616
10	0	0	0	0	499	617
11	0	0	0	0	524	616
12	0	0	0	0	553	617
13	0	0	0	0	588	616
14	0	0	0	0	632	616
15	0	0	0	0	682	616
0	0	0	0	0	736	616
1	0	0	0	0	790	617
2	0	0	0	0	840	616
3	0	0	0	0	885	616
4	0	0	0	0	923	617
5	0	0	0	0	952	616
6	0	0	0	0	972	616
7	0	0	0	0	984	616
8	0	0	0	0	986	616
9	0	0	0	0	983	616
10	0	0	0	0	974	616
11	0	0	0	0	961	616
12	0	0	0	0	942	617
13	0	0	0	0	921	616
14	0	0	0	0	899	617
15	0	0	0	0	873	616
0	0	0	0	0	844	616
1	0	0	0	0	812	617
2	0	0	0	0	782	616
3	0	0	0	0	753	616
4	0	0	0	0	728	616
5	0	0	0	0	705	616
6	0	0	0	0	685	616
7	0	0	0	0	668	617
8	0	0	0	0	652	617
9	0	0	0	0	638	616
10	0	0	0	0	624	616
11	0	0	0	0	612	615
12	0	0	0	0	598	616
13	0	0	0	0	583	616
14	0	0	0	0	568	615
15	0	0	0	0	553	617
0	0	0	0	0	540	616
1	0	0	0	0	526	616
2	0	0	0	0	514	616
3	0	0	0	0	503	616
4	0	0	0	0	494	616
5	0	0	0	0	485	615
6	0	0	0	0	478	616
7	0	0	0	0	472	615
8	0	0	0	0	467	616
9	0	0	0	0	464	616
10	0	0	0	0	460	616
11	0	0	0	0	457	616
12	0	0	0	0	452	617
13	0	0	0	0	447	616
14	0	0	0	0	440	616
15	0	0	0	0	434	616
0	0	0	0	0	427	615
1	0	0	0	0	419	616
2	0	0	0	0	413	615
3	0	0	0	0	407	616
4	0	0	0	0	402	616
5	0	0	0	0	399	616
6	0	0	0	0	397	616
7	0	0	0	0	396	615
8	0	0	0	0	396	616
9	0	0	0	0	396	616
10	0	0	0	0	399	616
11	0	0	0	0	401	616
12	0	0	0	0	404	616
13	0	0	0	0	407	616
14	0	0	0	0	411	616
15	0	0	0	0	414	616
0	0	0	0	0	417	616
1	0	0	0	0	418	615
2	0	0	0	0	417	616
3	0	0	0	0	417	616
4	0	0	0	0	414	616
5	0	0	0	0	411	616
6	0	0	0	0	408	616
7	0	0	0	0	404	616
8	0	0	0	0	402	615
9	0	0	0	0	401	616
10	0	0	0	0	400	615
11	0	0	0	0	401	615
12	0	0	0	0	402	617
13	0	0	0	0	404	616
14	0	0	0	0	408	616
15	0	0	0	0	411	616
0	0	0	0	0	415	615
1	0	0	0	0	419	616
2	0	0	0	0	423	615
3	0	0	0	0	427	616
4	0	0	0	0	430	616
5	0	0	0	0	431	616
6	0	0	0	0	431	616
7	0	0	0	0	430	616
8	0	0	0	0	428	616
9	0	0	0	0	425	616
10	0	0	0	0	423	616
11	0	0	0	0	420	616
12	0	0	0	0	417	616
13	0	0	0	0	415	615
14	0	0	0	0	415	616
15	0	0	0	0	416	615
0	0	0	0	0	417	615
1	0	0	0	0	419	615
2	0	0	0	0	422	616
3	0	0	0	0	425	616
4	0	0	0	0	428	616
5	0	0	0	0	432	616
6	0	0	0	0	435	615
7	0	0	0	0	439	615
8	0	0	0	0	441	615
9	0	0	0	0	442	616
10	0	0	0	0	442	615
11	0	0	0	0	441	616
12	0	0	0	0	439	616
13	0	0	0	0	436	616
14	0	0	0	0	433	616
15	0	0	0	0	430	616
0	0	0	0	0	428	616
1	0	0	0	0	427	616
2	0	0	0	0	426	616
3	0	0	0	0	427	615
4	0	0	0	0	427	616
5	0	0	0	0	429	615
6	0	0	0	0	432	615
7	0	0	0	0	436	615
8	0	0	0	0	439	615
9	0	0	0	0	443	616
10	0	0	0	0	447	616
11	0	0	0	0	450	616
12	0	0	0	0	452	616
13	0	0	0	0	452	616
14	0	0	0	0	451	616
15	0	0	0	0	450	616
0	0	0	0	0	448	617
1	0	0	0	0	445	617
2	0	0	0	0	441	616
3	0	0	0	0	438	616
4	0	0	0	0	436	616
5	0	0	0	0	434	616
6	0	0	0	0	433	617
7	0	0	0	0	434	616
8	0	0	0	0	435	616
9	0	0	0	0	437	615
10	0	0	0	0	440	616
11	0	0	0	0	444	615
12	0	0	0	0	447	615
13	0	0	0	0	451	616
14	0	0	0	0	455	616
15	0	0	0	0	457	615
0	0	0	0	0	460	616
1	0	0	0	0	459	616
2	0	0	0	0	459	616
3	0	0	0	0	457	616
4	0	0	0	0	454	616
5	0	0	0	0	450	616
6	0	0	0	0	445	615
7	0	0	0	0	442	616
8	0	0	0	0	439	616
9	0	0	0	0	438	616
10	0	0	0	0	438	616
11	0	0	0	0	438	615
12	0	0	0	0	439	617
13	0	0	0	0	441	615
14	0	0	0	0	444	616
15	0	0	0	0	447	616
0	0	0	0	0	451	616
1	0	0	0	0	455	616
2	0	0	0	0	459	616
3	0	0	0	0	462	616
4	0	0	0	0	464	616
5	0	0	0	0	466	616
6	0	0	0	0	467	616
7	0	0	0	0	465	616
8	0	0	0	0	462	616
9	0	0	0	0	459	616
10	0	0	0	0	455	616
11	0	0	0	0	452	616
12	0	0	0	0	450	616
13	0	0	0	0	449	615
14	0	0	0	0	448	615
15	0	0	0	0	449	615
0	0	0	0	0	450	615
1	0	0	0	0	452	615
2	0	0	0	0	455	616
3	0	0	0	0	458	616
4	0	0	0	0	461	616
5	0	0	0	0	465	617
6	0	0	0	0	469	616
7	0	0	0	0	472	616
8	0	0	0	0	474	616
9	0	0	0	0	474	616
10	0	0	0	0	475	616
11	0	0	0	0	473	617
12	0	0	0	0	472	617
13	0	0	0	0	469	616
14	0	0	0	0	466	616
15	0	0	0	0	464	616
0	0	0	0	0	462	616
1	0	0	0	0	461	615
2	0	0	0	0	462	615
3	0	0	0	0	463	615
4	0	0	0	0	464	615
5	0	0	0	0	467	615
6	0	0	0	0	471	615
7	0	0	0	0	476	616
8	0	0	0	0	479	616
9	0	0	0	0	483	617
10	0	0	0	0	488	617
11	0	0	0	0	492	617
12	0	0	0	0	495	617
13	0	0	0	0	496	617
14	0	0	0	0	497	617
15	0	0	0	0	496	617
0	0	0	0	0	494	617
1	0	0	0	0	492	617
2	0	0	0	0	489	615
3	0	0	0	0	487	615
4	0	0	0	0	484	615
5	0	0	0	0	483	616
6	0	0	0	0	484	616
7	0	0	0	0	485	616
8	0	0	0	0	488	616
9	0	0	0	0	490	615
10	0	0	0	0	495	615
11	0	0	0	0	499	616
12	0	0	0	0	504	616
13	0	0	0	0	510	616
14	0	0	0	0	514	616
15	0	0	0	0	517	616
0	0	0	0	0	519	616
1	0	0	0	0	520	616
2	0	0	0	0	519	616
3	0	0	0	0	518	616
4	0	0	0	0	516	616
5	0	0	0	0	513	615
6	0	0	0	0	511	615
7	0	0	0	0	508	616
8	0	0	0	0	506	615
9	0	0	0	0	506	615
10	0	0	0	0	506	616
11	0	0	0	0	507	616
12	0	0	0	0	509	615
13	0	0	0	0	511	616
14	0	0	0	0	514	616
15	0	0	0	0	517	616
0	0	0	0	0	521	616
1	0	0	0	0	525	616
2	0	0	0	0	529	616
3	0	0	0	0	532	616
4	0	0	0	0	535	616
5	0	0	0	0	535	615
6	0	0	0	0	535	616
7	0	0	0	0	534	616
8	0	0	0	0	531	616
9	0	0	0	0	527	616
10	0	0	0	0	523	616
11	0	0	0	0	519	616
12	0	0	0	0	516	617
13	0	0	0	0	514	616
14	0	0	0	0	513	616
15	0	0	0	0	513	617
0	0	0	0	0	514	617
1	0	0	0	0	516	616
2	0	0	0	0	519	616
3	0	0	0	0	522	616
4	0	0	0	0	525	616
5	0	0	0	0	529	616
6	0	0	0	0	533	616
7	0	0	0	0	536	616
8	0	0	0	0	538	615
9	0	0	0	0	538	615
10	0	0	0	0	538	615
11	0	0	0	0	536	615
12	0	0	0	0	532	616
13	0	0	0	0	528	615
14	0	0	0	0	524	615
15	0	0	0	0	521	616
0	0	0	0	0	518	616
1	0	0	0	0	516	616
2	0	0	0	0	515	617
3	0	0	0	0	515	617
4	0	0	0	0	516	617
5	0	0	0	0	518	617
6	0	0	0	0	520	616
7	0	0	0	0	522	616
8	0	0	0	0	525	616
9	0	0	0	0	529	616
10	0	0	0	0	532	615
11	0	0	0	0	535	615
12	0	0	0	0	537	615
13	0	0	0	0	537	615
14	0	0	0	0	536	615
15	0	0	0	0	535	615
0	0	0	0	0	531	615
1	0	0	0	0	528	615
2	0	0	0	0	524	616
3	0	0	0	0	521	616
4	0	0	0	0	519	616
5	0	0	0	0	517	616
6	0	0	0	0	515	617
7	0	0	0	0	515	616
8	0	0	0	0	516	617
9	0	0	0	0	518	616
10	0	0	0	0	521	616
11	0	0	0	0	523	616
12	0	0	0	0	526	616
13	0	0	0	0	528	616
14	0	0	0	0	531	616
15	0	0	0	0	533	616
0	0	0	0	0	534	616
1	0	0	0	0	535	616
2	0	0	0	0	535	616
3	0	0	0	0	533	616
4	0	0	0	0	530	616
5	0	0	0	0	527	616
6	0	0	0	0	523	615
7	0	0	0	0	519	616
8	0	0	0	0	516	616
9	0	0	0	0	513	616
10	0	0	0	0	512	616
11	0	0	0	0	511	616
12	0	0	0	0	511	617
13	0	0	0	0	512	616
14	0	0	0	0	514	617
15	0	0	0	0	516	616
0	0	0	0	0	519	616
1	0	0	0	0	523	616
2	0	0	0	0	525	617
3	0	0	0	0	527	616
4	0	0	0	0	529	616
5	0	0	0	0	529	616
6	0	0	0	0	530	617
7	0	0	0	0	529	616
8	0	0	0	0	526	615
9	0	0	0	0	522	616
10	0	0	0	0	518	615
11	0	0	0	0	514	616
12	0	0	0	0	511	616
13	0	0	0	0	510	616
14	0	0	0	0	508	616
15	0	0	0	0	508	616
0	0	0	0	0	509	616
1	0	0	0	0	510	616
2	0	0	0	0	513	616
3	0	0	0	0	516	615
4	0	0	0	0	520	616
5	0	0	0	0	524	616
6	0	0	0	0	527	616
7	0	0	0	0	530	616
8	0	0	0	0	532	615
9	0	0	0	0	533	616
10	0	0	0	0	532	616
11	0	0	0	0	530	615
12	0	0	0	0	527	615
13	0	0	0	0	524	616
14	0	0	0	0	520	615
15	0	0	0	0	517	616
0	0	0	0	0	515	616
1	0	0	0	0	512	616
2	0	0	0	0	511	616
3	0	0	0	0	511	616
4	0	0	0	0	512	617
5	0	0	0	0	513	615
6	0	0	0	0	516	616
7	0	0	0	0	519	616
8	0	0	0	0	522	616
9	0	0	0	0	525	616
10	0	0	0	0	527	616
11	0	0	0	0	531	616
12	0	0	0	0	533	616
13	0	0	0	0	534	616
14	0	0	0	0	534	616
15	0	0	0	0	533	616
0	0	0	0	0	531	615
1	0	0	0	0	527	616
2	0	0	0	0	523	616
3	0	0	0	0	520	617
4	0	0	0	0	517	616
5	0	0	0	0	514	616
6	0	0	0	0	513	616
7	0	0	0	0	513	616
8	0	0	0	0	513	616
9	0	0	0	0	514	616
10	0	0	0	0	515	616
11	0	0	0	0	517	616
12	0	0	0	0	519	616
13	0	0	0	0	522	615
14	0	0	0	0	525	615
15	0	0	0	0	528	615
0	0	0	0	0	530	616
1	0	0	0	0	531	615
2	0	0	0	0	531	615
3	0	0	0	0	529	615
4	0	0	0	0	525	616
5	0	0	0	0	522	616
6	0	0	0	0	518	615
7	0	0	0	0	515	616
8	0	0	0	0	512	616
9	0	0	0	0	511	616
10	0	0	0	0	510	616
11	0	0	0	0	510	616
12	0	0	0	0	511	617
13	0	0	0	0	512	617
14	0	0	0	0	514	617
15	0	0	0	0	517	617
0	0	0	0	0	520	616
1	0	0	0	0	524	615
2	0	0	0	0	527	615
3	0	0	0	0	529	615
4	0	0	0	0	531	616
5	0	0	0	0	531	617
6	0	0	0	0	531	619
7	0	0	0	0	529	620
8	0	0	0	0	526	618
9	0	0	0	0	522	616
10	0	0	0	0	519	615
11	0	0	0	0	515	615
12	0	0	0	0	512	614
13	0	0	0	0	510	615
14	0	0	0	0	509	616
15	0	0	0	0	509	616
0	0	0	0	0	510	616
1	0	0	0	0	511	617
2	0	0	0	0	513	617
3	0	0	0	0	516	616
4	0	0	0	0	519	615
5	0	0	0	0	522	615
6	0	0	0	0	524	615
7	0	0	0	0	527	616
8	0	0	0	0	529	616
9	0	0	0	0	529	615
10	0	0	0	0	529	617
11	0	0	0	0	528	617
12	0	0	0	0	525	617
13	0	0	0	0	521	617
14	0	0	0	0	517	617
15	0	0	0	0	513	616
0	0	0	0	0	511	615
1	0	0	0	0	508	615
2	0	0	0	0	508	616
3	0	0	0	0	507	617
4	0	0	0	0	508	616
5	0	0	0	0	510	616
6	0	0	0	0	513	616
7	0	0	0	0	516	616
8	0	0	0	0	519	615
9	0	0	0	0	522	616
10	0	0	0	0	525	616
11	0	0	0	0	527	615
12	0	0	0	0	529	615
13	0	0	0	0	530	616
14	0	0	0	0	529	616
15	0	0	0	0	528	616
0	0	0	0	0	526	616
1	0	0	0	0	522	616
2	0	0	0	0	517	615
3	0	0	0	0	513	616
4	0	0	0	0	510	616
5	0	0	0	0	508	616
6	0	0	0	0	507	616
7	0	0	0	0	507	616
8	0	0	0	0	507	616
9	0	0	0	0	508	616
10	0	0	0	0	511	616
11	0	0	0	0	513	617
12	0	0	0	0	516	617
13	0	0	0	0	519	617
14	0	0	0	0	522	617
15	0	0	0	0	524	616
0	0	0	0	0	525	615
1	0	0	0	0	525	616
2	0	0	0	0	526	616
3	0	0	0	0	524	615
4	0	0	0	0	521	616
5	0	0	0	0	518	616
6	0	0	0	0	514	615
7	0	0	0	0	510	616
8	0	0	0	0	507	616
9	0	0	0	0	504	616
10	0	0	0	0	503	617
11	0	0	0	0	503	616
12	0	0	0	0	503	616
13	0	0	0	0	504	616
14	0	0	0	0	507	616
15	0	0	0	0	510	617
0	0	0	0	0	513	616
1	0	0	0	0	516	616
2	0	0	0	0	520	616
3	0	0	0	0	524	616
4	0	0	0	0	526	616
5	0	0	0	0	526	616
6	0	0	0	0	526	616
7	0	0	0	0	524	616
8	0	0	0	0	522	616
9	0	0	0	0	519	617
10	0	0	0	0	516	616
11	0	0	0	0	513	617
12	0	0	0	0	511	617
13	0	0	0	0	511	616
14	0	0	0	0	510	616
15	0	0	0	0	511	616
0	0	0	0	0	511	616
1	0	0	0	0	512	616
2	0	0	0	0	515	616
3	0	0	0	0	518	616
4	0	0	0	0	522	616
5	0	0	0	0	525	616
6	0	0	0	0	528	616
7	0	0	0	0	531	616
8	0	0	0	0	533	616
9	0	0	0	0	533	615
10	0	0	0	0	532	615
11	0	0	0	0	531	615
12	0	0	0	0	528	615
13	0	0	0	0	525	615
14	0	0	0	0	521	615
15	0	0	0	0	518	615
0	0	0	0	0	515	615
1	0	0	0	0	513	616
2	0	0	0	0	512	616
3	0	0	0	0	513	617
4	0	0	0	0	514	618
5	0	0	0	0	515	617
6	0	0	0	0	517	618
7	0	0	0	0	519	617
8	0	0	0	0	521	618
9	0	0	0	0	523	617
10	0	0	0	0	526	618
11	0	0	0	0	529	618
12	0	0	0	0	531	618
13	0	0	0	0	531	617
14	0	0	0	0	529	616
15	0	0	0	0	527	615
0	0	0	0	0	524	615
1	0	0	0	0	521	615
2	0	0	0	0	517	614
3	0	0	0	0	513	614
4	0	0	0	0	511	615
5	0	0	0	0	509	615
6	0	0	0	0	508	616
7	0	0	0	0	508	616
8	0	0	0	0	509	617
9	0	0	0	0	511	616
10	0	0	0	0	513	617
11	0	0	0	0	516	617
12	0	0	0	0	518	618
13	0	0	0	0	521	618
14	0	0	0	0	523	617
15	0	0	0	0	526	618
0	0	0	0	0	528	618
1	0	0	0	0	528	617
2	0	0	0	0	527	617
3	0	0	0	0	526	616
4	0	0	0	0	524	615
5	0	0	0	0	520	615
6	0	0	0	0	516	615
7	0	0	0	0	513	615
8	0	0	0	0	510	614
9	0	0	0	0	508	615
10	0	0	0	0	507	615
11	0	0	0	0	508	616
12	0	0	0	0	509	616
13	0	0	0	0	510	616
14	0	0	0	0	512	617
15	0	0	0	0	514	617
0	0	0	0	0	517	616
1	0	0	0	0	520	616
2	0	0	0	0	523	617
3	0	0	0	0	526	616
4	0	0	0	0	527	616
5	0	0	0	0	527	616
6	0	0	0	0	527	616
7	0	0	0	0	524	616
8	0	0	0	0	521	615
9	0	0	0	0	517	615
10	0	0	0	0	512	615
11	0	0	0	0	509	615
12	0	0	0	0	506	615
13	0	0	0	0	504	615
14	0	0	0	0	502	615
15	0	0	0	0	502	615
0	0	0	0	0	502	616
1	0	0	0	0	502	616
2	0	0	0	0	504	617
3	0	0	0	0	505	616
4	0	0	0	0	505	616
5	0	0	0	0	505	615
6	0	0	0	0	503	615
7	0	0	0	0	497	615
8	0	0	0	0	489	616
9	0	0	0	0	479	616
10	0	0	0	0	467	616
11	0	0	0	0	454	616
12	0	0	0	0	439	617
13	0	0	0	0	425	616
14	0	0	0	0	412	616
15	0	0	0	0	400	616
0	0	0	0	0	392	616
1	0	0	0	0	387	616
2	0	0	0	0	385	616
3	0	0	0	0	385	617
4	0	0	0	0	388	617
5	0	0	0	0	395	616
6	0	0	0	0	405	617
7	0	0	0	0	415	616
8	0	0	0	0	427	616
9	0	0	0	0	438	616
10	0	0	0	0	449	616
11	0	0	0	0	459	616
12	0	0	0	0	467	616
13	0	0	0	0	476	616
14	0	0	0	0	490	616
15	0	0	0	0	510	616
0	0	0	0	0	532	616
1	0	0	0	0	559	616
2	0	0	0	0	591	616
3	0	0	0	0	632	616
4	0	0	0	0	678	617
5	0	0	0	0	729	616
6	0	0	0	0	781	616
7	0	0	0	0	831	616
8	0	0	0	0	876	616
9	0	0	0	0	914	616
10	0	0	0	0	948	616
11	0	0	0	0	975	616
12	0	0	0	0	994	616
13	0	0	0	0	1005	615
14	0	0	0	0	1011	615
15	0	0	0	0	1013	615
0	0	0	0	0	1008	615
1	0	0	0	0	996	615
2	0	0	0	0	978	615
3	0	0	0	0	956	615
4	0	0	0	0	929	616
5	0	0	0	0	897	616
6	0	0	0	0	862	616
7	0	0	0	0	824	616
8	0	0	0	0	787	616
9	0	0	0	0	753	616
10	0	0	0	0	724	617
11	0	0	0	0	698	616
12	0	0	0	0	675	616
13	0	0	0	0	656	616
14	0	0	0	0	639	616
15	0	0	0	0	626	616
0	0	0	0	0	615	616
1	0	0	0	0	607	616
2	0	0	0	0	597	616
3	0	0	0	0	587	616
4	0	0	0	0	576	616
5	0	0	0	0	564	616
6	0	0	0	0	551	616
7	0	0	0	0	536	616
8	0	0	0	0	519	616
9	0	0	0	0	504	616
10	0	0	0	0	487	616
11	0	0	0	0	473	616
12	0	0	0	0	461	617
13	0	0	0	0	450	617
14	0	0	0	0	440	616
15	0	0	0	0	433	616
0	0	0	0	0	427	617
1	0	0	0	0	422	616
2	0	0	0	0	418	616
3	0	0	0	0	416	616
4	0	0	0	0	415	616
5	0	0	0	0	415	616
6	0	0	0	0	415	616
7	0	0	0	0	415	616
8	0	0	0	0	414	616
9	0	0	0	0	412	616
10	0	0	0	0	410	616
11	0	0	0	0	407	616
12	0	0	0	0	403	616
13	0	0	0	0	399	616
14	0	0	0	0	395	616
15	0	0	0	0	390	616
0	0	0	0	0	387	616
1	0	0	0	0	384	616
2	0	0	0	0	384	616
3	0	0	0	0	384	616
4	0	0	0	0	385	616
5	0	0	0	0	387	616
6	0	0	0	0	390	616
7	0	0	0	0	393	616
8	0	0	0	0	397	615
9	0	0	0	0	401	616
10	0	0	0	0	406	616
11	0	0	0	0	409	616
12	0	0	0	0	411	617
13	0	0	0	0	411	616
14	0	0	0	0	412	616
15	0	0	0	0	411	616
0	0	0	0	0	409	616
1	0	0	0	0	406	616
2	0	0	0	0	403	615
3	0	0	0	0	400	616
4	0	0	0	0	398	616
5	0	0	0	0	397	615
6	0	0	0	0	397	616
7	0	0	0	0	398	616
8	0	0	0	0	399	617
9	0	0	0	0	402	615
10	0	0	0	0	405	616
11	0	0	0	0	409	616
12	0	0	0	0	413	615
13	0	0	0	0	417	616
14	0	0	0	0	422	615
15	0	0	0	0	425	615
0	0	0	0	0	427	616
1	0	0	0	0	427	616
2	0	0	0	0	426	616
3	0	0	0	0	424	616
4	0	0	0	0	422	616
5	0	0	0	0	419	615
6	0	0	0	0	416	615
7	0	0	0	0	414	616
8	0	0	0	0	412	616
9	0	0	0	0	411	616
10	0	0	0	0	411	616
11	0	0	0	0	412	615
12	0	0	0	0	414	616
13	0	0	0	0	415	615
14	0	0	0	0	419	615
15	0	0	0	0	423	616
0	0	0	0	0	426	616
1	0	0	0	0	430	617
2	0	0	0	0	433	616
3	0	0	0	0	436	616
4	0	0	0	0	437	616
5	0	0	0	0	438	616
6	0	0	0	0	437	616
7	0	0	0	0	436	617
8	0	0	0	0	433	617
9	0	0	0	0	430	616
10	0	0	0	0	427	616
11	0	0	0	0	423	616
12	0	0	0	0	422	615
13	0	0	0	0	421	616
14	0	0	0	0	421	616
15	0	0	0	0	422	616
0	0	0	0	0	423	616
1	0	0	0	0	424	616
2	0	0	0	0	428	617
3	0	0	0	0	431	617
4	0	0	0	0	434	617
5	0	0	0	0	438	617
6	0	0	0	0	440	616
7	0	0	0	0	444	616
8	0	0	0	0	445	616
9	0	0	0	0	446	616
10	0	0	0	0	444	616
11	0	0	0	0	444	616
12	0	0	0	0	441	615
13	0	0	0	0	439	615
14	0	0	0	0	436	614
15	0	0	0	0	433	615
0	0	0	0	0	431	614
1	0	0	0	0	430	615
2	0	0	0	0	430	615
3	0	0	0	0	431	616
4	0	0	0	0	432	617
5	0	0	0	0	433	618
6	0	0	0	0	436	618
7	0	0	0	0	440	618
8	0	0	0	0	443	617
9	0	0	0	0	447	617
10	0	0	0	0	450	616
11	0	0	0	0	454	617
12	0	0	0	0	456	617
13	0	0	0	0	457	616
14	0	0	0	0	457	616
15	0	0	0	0	455	615
0	0	0	0	0	452	616
1	0	0	0	0	448	615
2	0	0	0	0	445	614
3	0	0	0	0	442	615
4	0	0	0	0	439	614
5	0	0	0	0	437	615
6	0	0	0	0	437	615
7	0	0	0	0	437	615
8	0	0	0	0	438	616
9	0	0	0	0	440	616
10	0	0	0	0	443	617
11	0	0	0	0	446	617
12	0	0	0	0	449	617
13	0	0	0	0	453	616
14	0	0	0	0	457	617
15	0	0	0	0	461	616
0	0	0	0	0	463	616
1	0	0	0	0	463	615
2	0	0	0	0	463	616
3	0	0	0	0	462	615
4	0	0	0	0	459	616
5	0	0	0	0	456	616
6	0	0	0	0	452	616
7	0	0	0	0	450	616
8	0	0	0	0	448	615
9	0	0	0	0	447	616
10	0	0	0	0	447	616
11	0	0	0	0	448	616
12	0	0	0	0	449	617
13	0	0	0	0	451	616
14	0	0	0	0	454	616
15	0	0	0	0	458	616
0	0	0	0	0	462	616
1	0	0	0	0	466	617
2	0	0	0	0	470	616
3	0	0	0	0	473	616
4	0	0	0	0	474	616
5	0	0	0	0	475	615
6	0	0	0	0	475	615
7	0	0	0	0	474	614
8	0	0	0	0	472	615
9	0	0	0	0	469	615
10	0	0	0	0	466	615
11	0	0	0	0	464	616
12	0	0	0	0	462	616
13	0	0	0	0	462	616
14	0	0	0	0	463	616
15	0	0	0	0	464	616
0	0	0	0	0	466	616
1	0	0	0	0	469	615
2	0	0	0	0	473	616
3	0	0	0	0	478	616
4	0	0	0	0	482	617
5	0	0	0	0	487	616
6	0	0	0	0	491	617
7	0	0	0	0	495	617
8	0	0	0	0	498	616
9	0	0	0	0	499	616
10	0	0	0	0	499	616
11	0	0	0	0	498	615
12	0	0	0	0	495	616
13	0	0	0	0	492	616
14	0	0	0	0	488	615
15	0	0	0	0	486	616
0	0	0	0	0	485	616
1	0	0	0	0	484	616
2	0	0	0	0	484	616
3	0	0	0	0	486	615
4	0	0	0	0	488	616
5	0	0	0	0	491	615
6	0	0	0	0	495	615
7	0	0	0	0	499	615
8	0	0	0	0	503	615
9	0	0	0	0	508	616
10	0	0	0	0	512	615
11	0	0	0	0	516	617
12	0	0	0	0	519	617
13	0	0	0	0	519	616
14	0	0	0	0	520	617
15	0	0	0	0	519	617
0	0	0	0	0	517	616
1	0	0	0	0	514	616
2	0	0	0	0	511	617
3	0	0	0	0	508	616
4	0	0	0	0	507	617
5	0	0	0	0	506	617
6	0	0	0	0	506	617
7	0	0	0	0	508	616
8	0	0	0	0	510	617
9	0	0	0	0	512	616
10	0	0	0	0	515	615
11	0	0	0	0	519	616
12	0	0	0	0	523	615
13	0	0	0	0	526	615
14	0	0	0	0	530	615
15	0	0	0	0	533	616
0	0	0	0	0	535	616
1	0	0	0	0	535	616
2	0	0	0	0	534	617
3	0	0	0	0	532	616
4	0	0	0	0	529	617
5	0	0	0	0	527	616
6	0	0	0	0	523	616
7	0	0	0	0	520	617
8	0	0	0	0	518	616
9	0	0	0	0	516	616
10	0	0	0	0	516	616
11	0	0	0	0	517	616
12	0	0	0	0	518	616
13	0	0	0	0	520	615
14	0	0	0	0	523	615
15	0	0	0	0	526	615
0	0	0	0	0	530	615
1	0	0	0	0	535	615
2	0	0	0	0	538	616
3	0	0	0	0	541	616
4	0	0	0	0	542	616
5	0	0	0	0	543	616
6	0	0	0	0	542	616
7	0	0	0	0	540	615
8	0	0	0	0	537	615
9	0	0	0	0	533	615
10	0	0	0	0	529	615
11	0	0	0	0	526	616
12	0	0	0	0	524	616
13	0	0	0	0	523	616
14	0	0	0	0	522	615
15	0	0	0	0	523	616
0	0	0	0	0	524	616
1	0	0	0	0	526	616
2	0	0	0	0	529	616
3	0	0	0	0	531	616
4	0	0	0	0	535	616
5	0	0	0	0	539	617
6	0	0	0	0	542	616
7	0	0	0	0	544	616
8	0	0	0	0	545	616
9	0	0	0	0	545	616
10	0	0	0	0	544	616
11	0	0	0	0	542	616
12	0	0	0	0	538	617
13	0	0	0	0	534	617
14	0	0	0	0	529	616
15	0	0	0	0	525	616
0	0	0	0	0	522	615
1	0	0	0	0	520	616
2	0	0	0	0	520	616
3	0	0	0	0	521	615
4	0	0	0	0	522	616
5	0	0	0	0	524	616
6	0	0	0	0	526	616
7	0	0	0	0	528	616
8	0	0	0	0	530	615
9	0	0	0	0	533	616
10	0	0	0	0	535	616
11	0	0	0	0	537	616
12	0	0	0	0	538	616
13	0	0	0	0	537	616
14	0	0	0	0	536	616
15	0	0	0	0	535	616
0	0	0	0	0	532	616
1	0	0	0	0	528	615
2	0	0	0	0	524	616
3	0	0	0	0	521	616
4	0	0	0	0	518	616
5	0	0	0	0	516	616
6	0	0	0	0	515	615
7	0	0	0	0	515	616
8	0	0	0	0	516	616
9	0	0	0	0	517	615
10	0	0	0	0	519	616
11	0	0	0	0	521	616
12	0	0	0	0	524	617
13	0	0	0	0	527	616
14	0	0	0	0	531	616
15	0	0	0	0	534	616
0	0	0	0	0	536	615
1	0	0	0	0	535	615
2	0	0	0	0	534	615
3	0	0	0	0	531	616
4	0	0	0	0	527	616
5	0	0	0	0	523	616
6	0	0	0	0	519	616
7	0	0	0	0	515	616
8	0	0	0	0	512	616
9	0	0	0	0	511	615
10	0	0	0	0	510	616
11	0	0	0	0	511	616
12	0	0	0	0	512	617
13	0	0	0	0	513	616
14	0	0	0	0	516	616
15	0	0	0	0	519	616
0	0	0	0	0	522	615
1	0	0	0	0	526	616
2	0	0	0	0	528	616
3	0	0	0	0	531	616
4	0	0	0	0	533	616
5	0	0	0	0	533	616
6	0	0	0	0	532	616
7	0	0	0	0	530	616
8	0	0	0	0	526	616
9	0	0	0	0	523	616
10	0	0	0	0	518	616
11	0	0	0	0	515	616
12	0	0	0	0	512	616
13	0	0	0	0	511	616
14	0	0	0	0	510	616
15	0	0	0	0	510	617
0	0	0	0	0	512	615
1	0	0	0	0	514	615
2	0	0	0	0	516	616
3	0	0	0	0	519	615
4	0	0	0	0	522	616
5	0	0	0	0	525	616
6	0	0	0	0	528	616
7	0	0	0	0	531	616
8	0	0	0	0	532	616
9	0	0	0	0	532	616
10	0	0	0	0	531	616
11	0	0	0	0	528	615
12	0	0	0	0	525	616
13	0	0	0	0	521	616
14	0	0	0	0	518	615
15	0	0	0	0	514	616
0	0	0	0	0	511	616
1	0	0	0	0	510	616
2	0	0	0	0	510	616
3	0	0	0	0	509	615
4	0	0	0	0	511	616
5	0	0	0	0	512	616
6	0	0	0	0	515	616
7	0	0	0	0	518	616
8	0	0	0	0	522	616
9	0	0	0	0	526	617
10	0	0	0	0	529	616
11	0	0	0	0	532	616
12	0	0	0	0	533	617
13	0	0	0	0	533	616
14	0	0	0	0	532	616
15	0	0	0	0	530	616
0	0	0	0	0	526	616
1	0	0	0	0	522	616
2	0	0	0	0	519	616
3	0	0	0	0	515	616
4	0	0	0	0	513	616
5	0	0	0	0	511	616
6	0	0	0	0	510	616
7	0	0	0	0	511	616
8	0	0	0	0	512	616
9	0	0	0	0	513	616
10	0	0	0	0	516	616
11	0	0	0	0	519	616
12	0	0	0	0	522	616
13	0	0	0	0	525	616
14	0	0	0	0	528	616
15	0	0	0	0	531	616
0	0	0	0	0	532	616
1	0	0	0	0	531	616
2	0	0	0	0	531	616
3	0	0	0	0	528	616
4	0	0	0	0	525	616
5	0	0	0	0	521	617
6	0	0	0	0	517	616
7	0	0	0	0	513	616
8	0	0	0	0	511	615
9	0	0	0	0	509	615
10	0	0	0	0	509	616
11	0	0	0	0	509	616
12	0	0	0	0	509	616
13	0	0	0	0	511	616
14	0	0	0	0	514	617
15	0	0	0	0	517	616
0	0	0	0	0	519	616
1	0	0	0	0	523	616
2	0	0	0	0	526	616
3	0	0	0	0	529	616
4	0	0	0	0	530	617
5	0	0	0	0	530	616
6	0	0	0	0	529	616
7	0	0	0	0	528	615
8	0	0	0	0	525	616
9	0	0	0	0	521	616
10	0	0	0	0	517	616
11	0	0	0	0	514	616
12	0	0	0	0	512	615
13	0	0	0	0	511	615
14	0	0	0	0	510	616
15	0	0	0	0	510	616
0	0	0	0	0	510	616
1	0	0	0	0	511	616
2	0	0	0	0	513	616
3	0	0	0	0	516	617
4	0	0	0	0	519	616
5	0	0	0	0	521	616
6	0	0	0	0	524	616
7	0	0	0	0	526	616
8	0	0	0	0	527	615
9	0	0	0	0	527	616
10	0	0	0	0	525	616
11	0	0	0	0	523	616
12	0	0	0	0	519	616
13	0	0	0	0	515	616
14	0	0	0	0	512	615
15	0	0	0	0	509	615
0	0	0	0	0	506	615
1	0	0	0	0	505	617
2	0	0	0	0	505	616
3	0	0	0	0	505	616
4	0	0	0	0	506	617
5	0	0	0	0	508	616
6	0	0	0	0	511	616
7	0	0	0	0	513	616
8	0	0	0	0	516	616
9	0	0	0	0	519	616
10	0	0	0	0	523	616
11	0	0	0	0	526	616
12	0	0	0	0	527	617
13	0	0	0	0	527	617
14	0	0	0	0	526	617
15	0	0	0	0	524	617
0	0	0	0	0	520	617
1	0	0	0	0	517	616
2	0	0	0	0	513	616
3	0	0	0	0	511	616
4	0	0	0	0	510	617
5	0	0	0	0	508	616
6	0	0	0	0	509	616
7	0	0	0	0	511	616
8	0	0	0	0	513	616
9	0	0	0	0	516	616
10	0	0	0	0	519	616
11	0	0	0	0	524	616
12	0	0	0	0	527	616
13	0	0	0	0	531	616
14	0	0	0	0	534	615
15	0	0	0	0	537	615
0	0	0	0	0	537	615
1	0	0	0	0	537	615
2	0	0	0	0	536	616
3	0	0	0	0	533	616
4	0	0	0	0	529	616
5	0	0	0	0	526	616
6	0	0	0	0	522	616
7	0	0	0	0	518	616
8	0	0	0	0	515	615
9	0	0	0	0	513	615
10	0	0	0	0	514	616
11	0	0	0	0	514	615
12	0	0	0	0	515	616
13	0	0	0	0	515	616
14	0	0	0	0	518	616
15	0	0	0	0	521	616
0	0	0	0	0	524	615
1	0	0	0	0	527	616
2	0	0	0	0	530	616
3	0	0	0	0	533	616
4	0	0	0	0	534	616
5	0	0	0	0	533	616
6	0	0	0	0	532	617
7	0	0	0	0	530	616
8	0	0	0	0	527	616
9	0	0	0	0	523	616
10	0	0	0	0	519	616
11	0	0	0	0	515	616
12	0	0	0	0	512	616
13	0	0	0	0	511	616
14	0	0	0	0	510	616
15	0	0	0	0	510	615
0	0	0	0	0	511	616
1	0	0	0	0	513	615
2	0	0	0	0	515	615
3	0	0	0	0	518	615
4	0	0	0	0	521	616
5	0	0	0	0	524	616
6	0	0	0	0	527	616
7	0	0	0	0	529	616
8	0	0	0	0	530	616
9	0	0	0	0	529	615
10	0	0	0	0	529	616
11	0	0	0	0	527	616
12	0	0	0	0	523	616
13	0	0	0	0	519	616
14	0	0	0	0	515	615
15	0	0	0	0	512	616
0	0	0	0	0	510	616
1	0	0	0	0	508	616
2	0	0	0	0	507	616
3	0	0	0	0	507	615
4	0	0	0	0	508	616
5	0	0	0	0	510	616
6	0	0	0	0	512	616
7	0	0	0	0	515	616
8	0	0	0	0	518	616
9	0	0	0	0	521	617
10	0	0	0	0	524	616
11	0	0	0	0	527	616
12	0	0	0	0	528	616
13	0	0	0	0	528	616
14	0	0	0	0	527	616
15	0	0	0	0	525	616
0	0	0	0	0	522	616
1	0	0	0	0	519	616
2	0	0	0	0	515	616
3	0	0	0	0	512	616
4	0	0	0	0	510	616
5	0	0	0	0	508	616
