# OpenSignals Text File Format. Version 1
# {"98:D3:91:FD:69:48": {"position": 0, "device": "bitalino_rev", "device name": "98:D3:91:FD:69:48", "device connection": "BTH98:D3:91:FD:69:48", "sampling rate": 1000, "resolution": [4, 1, 1, 1, 1, 10, 10], "firmware version": 1281, "comments": "", "keywords": "", "mode": 0, "sync interval": 2, "date": "2021-9-13", "time": "21:49:51.438", "channels": [2, 5], "sensor": ["RAW", "RAW"], "label": ["A2", "A5"], "column": ["nSeq", "I1", "I2", "O1", "O2", "A2", "A5"], "special": [{}, {}], "digital IO": [0, 0, 1, 1], "convertedValues": 0}}
# EndOfHeader
0	0	0	0	0	512	423	
1	0	0	0	0	512	423	
2	0	0	0	0	511	423	
3	0	0	0	0	510	423	
4	0	0	0	0	510	423	
5	0	0	0	0	511	423	
6	0	0	0	0	510	423	
7	0	0	0	0	509	423	
8	0	0	0	0	509	423	
9	0	0	0	0	509	423	
10	0	0	0	0	508	423	
11	0	0	0	0	508	422	
12	0	0	0	0	508	422	
13	0	0	0	0	508	422	
14	0	0	0	0	509	423	
15	0	0	0	0	510	422	
0	0	0	0	0	510	422	
1	0	0	0	0	510	422	
2	0	0	0	0	510	423	
3	0	0	0	0	510	423	
4	0	0	0	0	511	423	
5	0	0	0	0	510	422	
6	0	0	0	0	510	422	
7	0	0	0	0	509	422	
8	0	0	0	0	509	423	
9	0	0	0	0	509	422	
10	0	0	0	0	508	422	
11	0	0	0	0	508	423	
12	0	0	0	0	508	422	
13	0	0	0	0	508	421	
14	0	0	0	0	508	423	
15	0	0	0	0	507	422	
0	0	0	0	0	506	422	
1	0	0	0	0	507	421	
2	0	0	0	0	507	422	
3	0	0	0	0	507	422	
4	0	0	0	0	507	422	
5	0	0	0	0	507	423	
6	0	0	0	0	508	423	
7	0	0	0	0	507	423	
8	0	0	0	0	508	423	
9	0	0	0	0	508	423	
10	0	0	0	0	508	423	
11	0	0	0	0	508	422	
12	0	0	0	0	508	422	
13	0	0	0	0	508	422	
14	0	0	0	0	508	422	
15	0	0	0	0	508	422	
0	0	0	0	0	508	421	
1	0	0	0	0	509	421	
2	0	0	0	0	509	422	
3	0	0	0	0	510	422	
4	0	0	0	0	511	421	
5	0	0	0	0	511	420	
6	0	0	0	0	511	422	
7	0	0	0	0	511	421	
8	0	0	0	0	510	421	
9	0	0	0	0	510	420	
10	0	0	0	0	510	422	
11	0	0	0	0	510	421	
12	0	0	0	0	509	422	
13	0	0	0	0	509	421	
14	0	0	0	0	508	422	
15	0	0	0	0	507	420	
0	0	0	0	0	505	421	
1	0	0	0	0	505	421	
2	0	0	0	0	504	422	
3	0	0	0	0	503	421	
4	0	0	0	0	502	421	
5	0	0	0	0	502	421	
6	0	0	0	0	501	421	
7	0	0	0	0	499	422	
8	0	0	0	0	497	422	
9	0	0	0	0	496	421	
10	0	0	0	0	493	422	
11	0	0	0	0	492	421	
12	0	0	0	0	491	421	
13	0	0	0	0	489	422	
14	0	0	0	0	489	421	
15	0	0	0	0	488	420	
0	0	0	0	0	488	420	
1	0	0	0	0	487	421	
2	0	0	0	0	488	422	
3	0	0	0	0	490	421	
4	0	0	0	0	493	420	
5	0	0	0	0	496	420	
6	0	0	0	0	500	421	
7	0	0	0	0	505	421	
8	0	0	0	0	511	421	
9	0	0	0	0	517	421	
10	0	0	0	0	526	422	
11	0	0	0	0	534	420	
12	0	0	0	0	543	420	
13	0	0	0	0	552	420	
14	0	0	0	0	561	420	
15	0	0	0	0	571	420	
0	0	0	0	0	580	421	
1	0	0	0	0	590	420	
2	0	0	0	0	598	421	
3	0	0	0	0	603	420	
4	0	0	0	0	608	420	
5	0	0	0	0	610	420	
6	0	0	0	0	612	420	
7	0	0	0	0	615	420	
8	0	0	0	0	614	419	
9	0	0	0	0	612	420	
10	0	0	0	0	609	420	
11	0	0	0	0	605	420	
12	0	0	0	0	601	420	
13	0	0	0	0	596	420	
14	0	0	0	0	592	420	
15	0	0	0	0	588	419	
0	0	0	0	0	586	420	
1	0	0	0	0	583	420	
2	0	0	0	0	580	420	
3	0	0	0	0	576	420	
4	0	0	0	0	573	420	
5	0	0	0	0	568	420	
6	0	0	0	0	563	421	
7	0	0	0	0	558	420	
8	0	0	0	0	552	421	
9	0	0	0	0	547	420	
10	0	0	0	0	542	421	
11	0	0	0	0	537	420	
12	0	0	0	0	532	420	
13	0	0	0	0	528	421	
14	0	0	0	0	524	421	
15	0	0	0	0	520	420	
0	0	0	0	0	517	421	
1	0	0	0	0	513	421	
2	0	0	0	0	510	422	
3	0	0	0	0	508	421	
4	0	0	0	0	506	421	
5	0	0	0	0	504	420	
6	0	0	0	0	502	421	
7	0	0	0	0	501	421	
8	0	0	0	0	499	421	
9	0	0	0	0	498	421	
10	0	0	0	0	497	422	
11	0	0	0	0	496	422	
12	0	0	0	0	495	422	
13	0	0	0	0	494	422	
14	0	0	0	0	492	422	
15	0	0	0	0	491	422	
0	0	0	0	0	490	422	
1	0	0	0	0	489	421	
2	0	0	0	0	487	423	
3	0	0	0	0	487	422	
4	0	0	0	0	486	422	
5	0	0	0	0	485	422	
6	0	0	0	0	485	423	
7	0	0	0	0	485	422	
8	0	0	0	0	484	422	
9	0	0	0	0	484	420	
10	0	0	0	0	483	422	
11	0	0	0	0	484	423	
12	0	0	0	0	484	422	
13	0	0	0	0	484	422	
14	0	0	0	0	484	422	
15	0	0	0	0	484	423	
0	0	0	0	0	485	422	
1	0	0	0	0	485	422	
2	0	0	0	0	485	423	
3	0	0	0	0	486	423	
4	0	0	0	0	487	423	
5	0	0	0	0	487	423	
6	0	0	0	0	487	423	
7	0	0	0	0	487	422	
8	0	0	0	0	488	422	
9	0	0	0	0	487	423	
10	0	0	0	0	487	424	
11	0	0	0	0	487	423	
12	0	0	0	0	486	423	
13	0	0	0	0	486	423	
14	0	0	0	0	486	423	
15	0	0	0	0	487	423	
0	0	0	0	0	487	423	
1	0	0	0	0	486	423	
2	0	0	0	0	486	423	
3	0	0	0	0	486	423	
4	0	0	0	0	487	423	
5	0	0	0	0	487	423	
6	0	0	0	0	487	423	
7	0	0	0	0	488	423	
8	0	0	0	0	488	423	
9	0	0	0	0	488	423	
10	0	0	0	0	488	423	
11	0	0	0	0	488	423	
12	0	0	0	0	489	423	
13	0	0	0	0	490	423	
14	0	0	0	0	491	423	
15	0	0	0	0	491	423	
0	0	0	0	0	492	423	
1	0	0	0	0	492	423	
2	0	0	0	0	493	424	
3	0	0	0	0	493	423	
4	0	0	0	0	493	423	
5	0	0	0	0	493	423	
6	0	0	0	0	492	423	
7	0	0	0	0	491	423	
8	0	0	0	0	491	423	
9	0	0	0	0	491	423	
10	0	0	0	0	491	424	
11	0	0	0	0	491	423	
12	0	0	0	0	491	423	
13	0	0	0	0	491	423	
14	0	0	0	0	492	423	
15	0	0	0	0	493	423	
0	0	0	0	0	493	423	
1	0	0	0	0	494	423	
2	0	0	0	0	494	424	
3	0	0	0	0	494	423	
4	0	0	0	0	494	424	
5	0	0	0	0	495	424	
6	0	0	0	0	495	424	
7	0	0	0	0	495	425	
8	0	0	0	0	495	425	
9	0	0	0	0	496	425	
10	0	0	0	0	496	425	
11	0	0	0	0	496	425	
12	0	0	0	0	496	425	
13	0	0	0	0	495	425	
14	0	0	0	0	496	425	
15	0	0	0	0	496	425	
0	0	0	0	0	496	425	
1	0	0	0	0	496	426	
2	0	0	0	0	496	426	
3	0	0	0	0	496	426	
4	0	0	0	0	496	426	
5	0	0	0	0	496	426	
6	0	0	0	0	496	427	
7	0	0	0	0	496	426	
8	0	0	0	0	496	426	
9	0	0	0	0	496	426	
10	0	0	0	0	496	427	
11	0	0	0	0	495	426	
12	0	0	0	0	495	426	
13	0	0	0	0	495	427	
14	0	0	0	0	495	426	
15	0	0	0	0	494	427	
0	0	0	0	0	495	427	
1	0	0	0	0	494	427	
2	0	0	0	0	494	428	
3	0	0	0	0	495	426	
4	0	0	0	0	495	427	
5	0	0	0	0	496	427	
6	0	0	0	0	496	427	
7	0	0	0	0	496	427	
8	0	0	0	0	496	426	
9	0	0	0	0	497	426	
10	0	0	0	0	497	427	
11	0	0	0	0	497	425	
12	0	0	0	0	497	426	
13	0	0	0	0	497	425	
14	0	0	0	0	497	426	
15	0	0	0	0	497	425	
0	0	0	0	0	497	425	
1	0	0	0	0	498	425	
2	0	0	0	0	499	425	
3	0	0	0	0	499	425	
4	0	0	0	0	501	425	
5	0	0	0	0	501	425	
6	0	0	0	0	502	425	
7	0	0	0	0	502	424	
8	0	0	0	0	503	424	
9	0	0	0	0	504	424	
10	0	0	0	0	503	425	
11	0	0	0	0	504	424	
12	0	0	0	0	504	424	
13	0	0	0	0	504	423	
14	0	0	0	0	504	424	
15	0	0	0	0	504	423	
0	0	0	0	0	504	423	
1	0	0	0	0	505	423	
2	0	0	0	0	505	424	
3	0	0	0	0	506	423	
4	0	0	0	0	506	424	
5	0	0	0	0	506	423	
6	0	0	0	0	505	423	
7	0	0	0	0	505	423	
8	0	0	0	0	505	423	
9	0	0	0	0	504	423	
10	0	0	0	0	504	423	
11	0	0	0	0	504	423	
12	0	0	0	0	504	424	
13	0	0	0	0	504	423	
14	0	0	0	0	504	423	
15	0	0	0	0	504	423	
0	0	0	0	0	504	423	
1	0	0	0	0	505	423	
2	0	0	0	0	506	423	
3	0	0	0	0	505	423	
4	0	0	0	0	506	423	
5	0	0	0	0	506	423	
6	0	0	0	0	506	422	
7	0	0	0	0	506	422	
8	0	0	0	0	507	423	
9	0	0	0	0	507	422	
10	0	0	0	0	507	423	
11	0	0	0	0	508	422	
12	0	0	0	0	509	423	
13	0	0	0	0	509	423	
14	0	0	0	0	510	423	
15	0	0	0	0	510	423	
0	0	0	0	0	509	423	
1	0	0	0	0	510	423	
2	0	0	0	0	510	423	
3	0	0	0	0	511	423	
4	0	0	0	0	512	422	
5	0	0	0	0	512	422	
6	0	0	0	0	512	423	
7	0	0	0	0	513	422	
8	0	0	0	0	513	421	
9	0	0	0	0	514	422	
10	0	0	0	0	514	423	
11	0	0	0	0	514	422	
12	0	0	0	0	514	422	
13	0	0	0	0	514	422	
14	0	0	0	0	515	423	
15	0	0	0	0	514	422	
0	0	0	0	0	514	422	
1	0	0	0	0	513	421	
2	0	0	0	0	513	422	
3	0	0	0	0	513	422	
4	0	0	0	0	513	423	
5	0	0	0	0	513	422	
6	0	0	0	0	513	422	
7	0	0	0	0	513	423	
8	0	0	0	0	515	422	
9	0	0	0	0	515	422	
10	0	0	0	0	516	422	
11	0	0	0	0	516	421	
12	0	0	0	0	516	421	
13	0	0	0	0	516	421	
14	0	0	0	0	515	421	
15	0	0	0	0	515	422	
0	0	0	0	0	516	421	
1	0	0	0	0	516	420	
2	0	0	0	0	515	421	
3	0	0	0	0	515	420	
4	0	0	0	0	516	421	
5	0	0	0	0	516	421	
6	0	0	0	0	515	421	
7	0	0	0	0	516	421	
8	0	0	0	0	517	421	
9	0	0	0	0	516	421	
10	0	0	0	0	517	421	
11	0	0	0	0	516	421	
12	0	0	0	0	516	422	
13	0	0	0	0	516	422	
14	0	0	0	0	516	421	
15	0	0	0	0	516	421	
0	0	0	0	0	516	421	
1	0	0	0	0	516	420	
2	0	0	0	0	516	422	
3	0	0	0	0	517	421	
4	0	0	0	0	517	421	
5	0	0	0	0	517	421	
6	0	0	0	0	518	422	
7	0	0	0	0	517	421	
8	0	0	0	0	518	421	
9	0	0	0	0	517	421	
10	0	0	0	0	517	422	
11	0	0	0	0	517	421	
12	0	0	0	0	516	420	
13	0	0	0	0	515	421	
14	0	0	0	0	515	421	
15	0	0	0	0	515	420	
0	0	0	0	0	515	421	
1	0	0	0	0	515	420	
2	0	0	0	0	516	422	
3	0	0	0	0	515	420	
4	0	0	0	0	515	420	
5	0	0	0	0	515	420	
6	0	0	0	0	514	420	
7	0	0	0	0	514	421	
8	0	0	0	0	513	421	
9	0	0	0	0	513	421	
10	0	0	0	0	512	422	
11	0	0	0	0	513	421	
12	0	0	0	0	513	421	
13	0	0	0	0	513	421	
14	0	0	0	0	513	421	
15	0	0	0	0	512	420	
0	0	0	0	0	512	420	
1	0	0	0	0	512	421	
2	0	0	0	0	512	422	
3	0	0	0	0	511	421	
4	0	0	0	0	512	421	
5	0	0	0	0	511	421	
6	0	0	0	0	511	421	
7	0	0	0	0	510	421	
8	0	0	0	0	511	421	
9	0	0	0	0	511	422	
10	0	0	0	0	510	422	
11	0	0	0	0	510	421	
12	0	0	0	0	511	423	
13	0	0	0	0	512	422	
14	0	0	0	0	511	422	
15	0	0	0	0	511	422	
0	0	0	0	0	511	422	
1	0	0	0	0	511	423	
2	0	0	0	0	510	423	
3	0	0	0	0	510	422	
4	0	0	0	0	510	422	
5	0	0	0	0	510	422	
6	0	0	0	0	509	422	
7	0	0	0	0	509	421	
8	0	0	0	0	508	421	
9	0	0	0	0	507	421	
10	0	0	0	0	507	422	
11	0	0	0	0	508	421	
12	0	0	0	0	508	421	
13	0	0	0	0	508	420	
14	0	0	0	0	508	419	
15	0	0	0	0	508	420	
0	0	0	0	0	508	420	
1	0	0	0	0	507	420	
2	0	0	0	0	507	420	
3	0	0	0	0	507	420	
4	0	0	0	0	506	421	
5	0	0	0	0	506	422	
6	0	0	0	0	506	422	
7	0	0	0	0	505	421	
8	0	0	0	0	504	421	
9	0	0	0	0	504	421	
10	0	0	0	0	504	422	
11	0	0	0	0	504	422	
12	0	0	0	0	504	422	
13	0	0	0	0	503	421	
14	0	0	0	0	502	422	
15	0	0	0	0	502	422	
0	0	0	0	0	501	421	
1	0	0	0	0	501	421	
2	0	0	0	0	500	421	
3	0	0	0	0	500	420	
4	0	0	0	0	501	421	
5	0	0	0	0	502	421	
6	0	0	0	0	502	421	
7	0	0	0	0	503	421	
8	0	0	0	0	504	421	
9	0	0	0	0	504	421	
10	0	0	0	0	504	422	
11	0	0	0	0	503	420	
12	0	0	0	0	503	420	
13	0	0	0	0	503	421	
14	0	0	0	0	503	422	
15	0	0	0	0	503	421	
0	0	0	0	0	503	421	
1	0	0	0	0	503	421	
2	0	0	0	0	502	422	
3	0	0	0	0	502	422	
4	0	0	0	0	503	421	
5	0	0	0	0	503	421	
6	0	0	0	0	503	421	
7	0	0	0	0	503	421	
8	0	0	0	0	504	421	
9	0	0	0	0	504	420	
10	0	0	0	0	504	421	
11	0	0	0	0	505	420	
12	0	0	0	0	506	420	
13	0	0	0	0	506	419	
14	0	0	0	0	505	420	
15	0	0	0	0	505	420	
0	0	0	0	0	505	420	
1	0	0	0	0	505	420	
2	0	0	0	0	505	421	
3	0	0	0	0	505	420	
4	0	0	0	0	504	421	
5	0	0	0	0	505	421	
6	0	0	0	0	505	422	
7	0	0	0	0	505	421	
8	0	0	0	0	504	422	
9	0	0	0	0	504	422	
10	0	0	0	0	504	422	
11	0	0	0	0	504	421	
12	0	0	0	0	504	421	
13	0	0	0	0	504	422	
14	0	0	0	0	505	422	
15	0	0	0	0	505	422	
0	0	0	0	0	506	422	
1	0	0	0	0	506	422	
2	0	0	0	0	506	422	
3	0	0	0	0	505	422	
4	0	0	0	0	506	421	
5	0	0	0	0	506	421	
6	0	0	0	0	506	422	
7	0	0	0	0	507	422	
8	0	0	0	0	507	422	
9	0	0	0	0	507	421	
10	0	0	0	0	507	422	
11	0	0	0	0	507	421	
12	0	0	0	0	508	422	
13	0	0	0	0	507	422	
14	0	0	0	0	507	422	
15	0	0	0	0	507	421	
0	0	0	0	0	506	421	
1	0	0	0	0	506	421	
2	0	0	0	0	505	423	
3	0	0	0	0	506	421	
4	0	0	0	0	506	422	
5	0	0	0	0	505	421	
6	0	0	0	0	506	422	
7	0	0	0	0	506	422	
8	0	0	0	0	505	422	
9	0	0	0	0	505	423	
10	0	0	0	0	504	423	
11	0	0	0	0	504	423	
12	0	0	0	0	504	423	
13	0	0	0	0	504	423	
14	0	0	0	0	504	424	
15	0	0	0	0	503	424	
0	0	0	0	0	504	423	
1	0	0	0	0	504	424	
2	0	0	0	0	505	424	
3	0	0	0	0	505	424	
4	0	0	0	0	506	424	
5	0	0	0	0	506	425	
6	0	0	0	0	506	424	
7	0	0	0	0	507	424	
8	0	0	0	0	507	424	
9	0	0	0	0	507	424	
10	0	0	0	0	506	425	
11	0	0	0	0	507	424	
12	0	0	0	0	506	424	
13	0	0	0	0	507	424	
14	0	0	0	0	507	424	
15	0	0	0	0	507	425	
0	0	0	0	0	507	425	
1	0	0	0	0	508	425	
2	0	0	0	0	509	425	
3	0	0	0	0	510	425	
4	0	0	0	0	510	425	
5	0	0	0	0	510	425	
6	0	0	0	0	510	425	
7	0	0	0	0	511	425	
8	0	0	0	0	510	425	
9	0	0	0	0	510	424	
10	0	0	0	0	510	425	
11	0	0	0	0	510	425	
12	0	0	0	0	510	425	
13	0	0	0	0	509	425	
14	0	0	0	0	510	425	
15	0	0	0	0	510	425	
0	0	0	0	0	510	425	
1	0	0	0	0	510	424	
2	0	0	0	0	510	426	
3	0	0	0	0	511	425	
4	0	0	0	0	511	425	
5	0	0	0	0	511	425	
6	0	0	0	0	510	426	
7	0	0	0	0	510	425	
8	0	0	0	0	510	425	
9	0	0	0	0	509	425	
10	0	0	0	0	509	427	
11	0	0	0	0	510	426	
12	0	0	0	0	510	426	
13	0	0	0	0	510	426	
14	0	0	0	0	509	426	
15	0	0	0	0	509	426	
0	0	0	0	0	510	426	
1	0	0	0	0	510	426	
2	0	0	0	0	510	427	
3	0	0	0	0	510	425	
4	0	0	0	0	510	426	
5	0	0	0	0	511	426	
6	0	0	0	0	511	426	
7	0	0	0	0	511	425	
8	0	0	0	0	510	426	
9	0	0	0	0	510	425	
10	0	0	0	0	511	426	
11	0	0	0	0	511	426	
12	0	0	0	0	511	425	
13	0	0	0	0	511	425	
14	0	0	0	0	511	425	
15	0	0	0	0	510	425	
0	0	0	0	0	511	425	
1	0	0	0	0	510	424	
2	0	0	0	0	510	425	
3	0	0	0	0	510	425	
4	0	0	0	0	510	424	
5	0	0	0	0	509	424	
6	0	0	0	0	509	425	
7	0	0	0	0	510	424	
8	0	0	0	0	510	424	
9	0	0	0	0	510	424	
10	0	0	0	0	510	424	
11	0	0	0	0	510	424	
12	0	0	0	0	510	424	
13	0	0	0	0	510	425	
14	0	0	0	0	510	425	
15	0	0	0	0	511	424	
0	0	0	0	0	510	424	
1	0	0	0	0	511	425	
2	0	0	0	0	511	424	
3	0	0	0	0	511	424	
4	0	0	0	0	511	424	
5	0	0	0	0	511	424	
6	0	0	0	0	510	424	
7	0	0	0	0	510	423	
8	0	0	0	0	510	423	
9	0	0	0	0	509	424	
10	0	0	0	0	510	424	
11	0	0	0	0	510	423	
12	0	0	0	0	509	423	
13	0	0	0	0	509	423	
14	0	0	0	0	508	424	
15	0	0	0	0	508	423	
0	0	0	0	0	508	423	
1	0	0	0	0	508	424	
2	0	0	0	0	509	425	
3	0	0	0	0	509	423	
4	0	0	0	0	509	423	
5	0	0	0	0	509	424	
6	0	0	0	0	509	424	
7	0	0	0	0	510	424	
8	0	0	0	0	510	424	
9	0	0	0	0	510	423	
10	0	0	0	0	509	425	
11	0	0	0	0	509	424	
12	0	0	0	0	508	424	
13	0	0	0	0	509	424	
14	0	0	0	0	510	424	
15	0	0	0	0	510	424	
0	0	0	0	0	511	424	
1	0	0	0	0	511	424	
2	0	0	0	0	511	424	
3	0	0	0	0	511	424	
4	0	0	0	0	511	423	
5	0	0	0	0	511	423	
6	0	0	0	0	511	424	
7	0	0	0	0	511	424	
8	0	0	0	0	510	423	
9	0	0	0	0	510	424	
10	0	0	0	0	511	425	
11	0	0	0	0	512	424	
12	0	0	0	0	512	424	
13	0	0	0	0	512	424	
14	0	0	0	0	513	425	
15	0	0	0	0	513	425	
0	0	0	0	0	514	424	
1	0	0	0	0	514	423	
2	0	0	0	0	514	425	
3	0	0	0	0	514	424	
4	0	0	0	0	513	425	
5	0	0	0	0	513	423	
6	0	0	0	0	513	425	
7	0	0	0	0	513	425	
8	0	0	0	0	513	424	
9	0	0	0	0	512	424	
10	0	0	0	0	512	425	
11	0	0	0	0	512	424	
12	0	0	0	0	511	424	
13	0	0	0	0	512	424	
14	0	0	0	0	512	424	
15	0	0	0	0	511	423	
0	0	0	0	0	511	423	
1	0	0	0	0	511	424	
2	0	0	0	0	512	425	
3	0	0	0	0	511	423	
4	0	0	0	0	512	424	
5	0	0	0	0	511	424	
6	0	0	0	0	511	424	
7	0	0	0	0	512	423	
8	0	0	0	0	512	423	
9	0	0	0	0	512	423	
10	0	0	0	0	512	424	
11	0	0	0	0	512	423	
12	0	0	0	0	512	424	
13	0	0	0	0	512	424	
14	0	0	0	0	511	424	
15	0	0	0	0	511	424	
0	0	0	0	0	510	424	
1	0	0	0	0	510	423	
2	0	0	0	0	510	424	
3	0	0	0	0	510	423	
4	0	0	0	0	510	423	
5	0	0	0	0	510	424	
6	0	0	0	0	510	424	
7	0	0	0	0	510	424	
8	0	0	0	0	510	423	
9	0	0	0	0	510	424	
10	0	0	0	0	511	424	
11	0	0	0	0	511	422	
12	0	0	0	0	511	422	
13	0	0	0	0	511	424	
14	0	0	0	0	511	424	
15	0	0	0	0	511	423	
0	0	0	0	0	511	423	
1	0	0	0	0	511	424	
2	0	0	0	0	511	425	
3	0	0	0	0	511	424	
4	0	0	0	0	511	423	
5	0	0	0	0	511	423	
6	0	0	0	0	511	424	
7	0	0	0	0	511	424	
8	0	0	0	0	510	423	
9	0	0	0	0	510	423	
10	0	0	0	0	510	424	
11	0	0	0	0	509	424	
12	0	0	0	0	510	423	
13	0	0	0	0	511	424	
14	0	0	0	0	512	424	
15	0	0	0	0	512	425	
0	0	0	0	0	512	424	
1	0	0	0	0	512	424	
2	0	0	0	0	512	425	
3	0	0	0	0	512	424	
4	0	0	0	0	512	423	
5	0	0	0	0	512	424	
6	0	0	0	0	512	424	
7	0	0	0	0	513	424	
8	0	0	0	0	512	424	
9	0	0	0	0	512	424	
10	0	0	0	0	512	425	
11	0	0	0	0	512	424	
12	0	0	0	0	513	424	
13	0	0	0	0	513	425	
14	0	0	0	0	513	425	
15	0	0	0	0	512	425	
0	0	0	0	0	512	424	
1	0	0	0	0	512	425	
2	0	0	0	0	511	425	
3	0	0	0	0	511	424	
4	0	0	0	0	511	424	
5	0	0	0	0	511	424	
6	0	0	0	0	510	425	
7	0	0	0	0	511	424	
8	0	0	0	0	511	424	
9	0	0	0	0	510	423	
10	0	0	0	0	510	424	
11	0	0	0	0	510	423	
12	0	0	0	0	510	424	
13	0	0	0	0	510	423	
14	0	0	0	0	510	423	
15	0	0	0	0	510	423	
0	0	0	0	0	511	423	
1	0	0	0	0	511	423	
2	0	0	0	0	511	423	
3	0	0	0	0	510	423	
4	0	0	0	0	509	422	
5	0	0	0	0	509	422	
6	0	0	0	0	509	423	
7	0	0	0	0	509	423	
8	0	0	0	0	510	422	
9	0	0	0	0	509	423	
10	0	0	0	0	510	423	
11	0	0	0	0	510	422	
12	0	0	0	0	510	423	
13	0	0	0	0	510	423	
14	0	0	0	0	510	422	
15	0	0	0	0	510	423	
0	0	0	0	0	510	422	
1	0	0	0	0	511	423	
2	0	0	0	0	511	423	
3	0	0	0	0	512	423	
4	0	0	0	0	511	423	
5	0	0	0	0	511	423	
6	0	0	0	0	512	423	
7	0	0	0	0	512	423	
8	0	0	0	0	512	423	
9	0	0	0	0	512	422	
10	0	0	0	0	511	423	
11	0	0	0	0	510	422	
12	0	0	0	0	510	422	
13	0	0	0	0	509	422	
14	0	0	0	0	509	422	
15	0	0	0	0	509	422	
0	0	0	0	0	510	422	
1	0	0	0	0	509	422	
2	0	0	0	0	510	423	
3	0	0	0	0	510	422	
4	0	0	0	0	510	422	
5	0	0	0	0	511	423	
6	0	0	0	0	511	423	
7	0	0	0	0	511	422	
8	0	0	0	0	511	422	
9	0	0	0	0	511	423	
10	0	0	0	0	511	423	
11	0	0	0	0	511	422	
12	0	0	0	0	512	423	
13	0	0	0	0	512	423	
14	0	0	0	0	511	422	
15	0	0	0	0	511	422	
0	0	0	0	0	511	422	
1	0	0	0	0	511	423	
2	0	0	0	0	511	423	
3	0	0	0	0	511	422	
4	0	0	0	0	511	422	
5	0	0	0	0	511	422	
6	0	0	0	0	511	423	
7	0	0	0	0	511	422	
8	0	0	0	0	512	422	
9	0	0	0	0	512	423	
10	0	0	0	0	512	423	
11	0	0	0	0	512	422	
12	0	0	0	0	511	422	
13	0	0	0	0	511	422	
14	0	0	0	0	510	423	
15	0	0	0	0	509	421	
0	0	0	0	0	509	422	
1	0	0	0	0	508	422	
2	0	0	0	0	508	423	
3	0	0	0	0	508	422	
4	0	0	0	0	508	423	
5	0	0	0	0	509	423	
6	0	0	0	0	509	423	
7	0	0	0	0	510	423	
8	0	0	0	0	510	422	
9	0	0	0	0	510	422	
10	0	0	0	0	510	423	
11	0	0	0	0	510	421	
12	0	0	0	0	510	422	
13	0	0	0	0	509	421	
14	0	0	0	0	509	422	
15	0	0	0	0	509	421	
0	0	0	0	0	509	421	
1	0	0	0	0	509	422	
2	0	0	0	0	510	422	
3	0	0	0	0	510	421	
4	0	0	0	0	511	422	
5	0	0	0	0	511	423	
6	0	0	0	0	511	423	
7	0	0	0	0	511	423	
8	0	0	0	0	511	423	
9	0	0	0	0	511	423	
10	0	0	0	0	510	423	
11	0	0	0	0	511	422	
12	0	0	0	0	511	423	
13	0	0	0	0	510	423	
14	0	0	0	0	510	423	
15	0	0	0	0	509	422	
0	0	0	0	0	510	422	
1	0	0	0	0	509	422	
2	0	0	0	0	508	423	
3	0	0	0	0	508	422	
4	0	0	0	0	508	422	
5	0	0	0	0	508	422	
6	0	0	0	0	508	423	
7	0	0	0	0	508	423	
8	0	0	0	0	509	423	
9	0	0	0	0	509	423	
10	0	0	0	0	509	423	
11	0	0	0	0	510	423	
12	0	0	0	0	511	423	
13	0	0	0	0	512	423	
14	0	0	0	0	513	424	
15	0	0	0	0	512	423	
0	0	0	0	0	512	423	
1	0	0	0	0	512	422	
2	0	0	0	0	513	423	
3	0	0	0	0	514	423	
4	0	0	0	0	515	423	
5	0	0	0	0	515	423	
6	0	0	0	0	514	423	
7	0	0	0	0	514	422	
8	0	0	0	0	513	423	
9	0	0	0	0	513	423	
10	0	0	0	0	513	423	
11	0	0	0	0	512	423	
12	0	0	0	0	512	423	
13	0	0	0	0	512	423	
14	0	0	0	0	512	423	
15	0	0	0	0	513	423	
0	0	0	0	0	513	423	
1	0	0	0	0	513	423	
2	0	0	0	0	514	424	
3	0	0	0	0	514	423	
4	0	0	0	0	514	423	
5	0	0	0	0	514	423	
6	0	0	0	0	515	423	
7	0	0	0	0	515	423	
8	0	0	0	0	515	423	
9	0	0	0	0	515	422	
10	0	0	0	0	515	423	
11	0	0	0	0	515	423	
12	0	0	0	0	515	423	
13	0	0	0	0	515	423	
14	0	0	0	0	515	423	
15	0	0	0	0	514	423	
0	0	0	0	0	515	423	
1	0	0	0	0	515	423	
2	0	0	0	0	515	424	
3	0	0	0	0	515	423	
4	0	0	0	0	514	423	
5	0	0	0	0	515	423	
6	0	0	0	0	515	424	
7	0	0	0	0	514	423	
8	0	0	0	0	514	423	
9	0	0	0	0	514	423	
10	0	0	0	0	514	423	
11	0	0	0	0	514	423	
12	0	0	0	0	514	423	
13	0	0	0	0	513	423	
14	0	0	0	0	512	423	
15	0	0	0	0	512	423	
0	0	0	0	0	512	423	
1	0	0	0	0	512	423	
2	0	0	0	0	513	424	
3	0	0	0	0	512	423	
4	0	0	0	0	513	423	
5	0	0	0	0	512	423	
6	0	0	0	0	512	423	
7	0	0	0	0	512	423	
8	0	0	0	0	512	423	
9	0	0	0	0	512	424	
10	0	0	0	0	512	424	
11	0	0	0	0	512	424	
12	0	0	0	0	512	424	
13	0	0	0	0	512	423	
14	0	0	0	0	512	424	
15	0	0	0	0	512	424	
0	0	0	0	0	512	423	
1	0	0	0	0	512	423	
2	0	0	0	0	512	424	
3	0	0	0	0	513	423	
4	0	0	0	0	513	423	
5	0	0	0	0	514	423	
6	0	0	0	0	514	423	
7	0	0	0	0	513	423	
8	0	0	0	0	514	423	
9	0	0	0	0	513	423	
10	0	0	0	0	513	423	
11	0	0	0	0	513	423	
12	0	0	0	0	513	423	
13	0	0	0	0	513	423	
14	0	0	0	0	512	423	
15	0	0	0	0	512	423	
0	0	0	0	0	512	423	
1	0	0	0	0	511	424	
2	0	0	0	0	511	425	
3	0	0	0	0	511	423	
4	0	0	0	0	512	424	
5	0	0	0	0	512	424	
6	0	0	0	0	512	424	
7	0	0	0	0	512	423	
8	0	0	0	0	512	424	
9	0	0	0	0	512	424	
10	0	0	0	0	513	425	
11	0	0	0	0	512	423	
12	0	0	0	0	513	424	
13	0	0	0	0	513	424	
14	0	0	0	0	512	424	
15	0	0	0	0	512	423	
0	0	0	0	0	512	423	
1	0	0	0	0	512	424	
2	0	0	0	0	511	425	
3	0	0	0	0	512	424	
4	0	0	0	0	512	423	
5	0	0	0	0	512	424	
6	0	0	0	0	512	425	
7	0	0	0	0	512	424	
8	0	0	0	0	511	425	
9	0	0	0	0	511	424	
10	0	0	0	0	511	425	
11	0	0	0	0	511	425	
12	0	0	0	0	511	425	
13	0	0	0	0	510	425	
14	0	0	0	0	510	424	
15	0	0	0	0	509	425	
0	0	0	0	0	509	424	
1	0	0	0	0	508	424	
2	0	0	0	0	507	425	
3	0	0	0	0	506	424	
4	0	0	0	0	506	424	
5	0	0	0	0	505	424	
6	0	0	0	0	504	424	
7	0	0	0	0	503	424	
8	0	0	0	0	501	424	
9	0	0	0	0	498	424	
10	0	0	0	0	497	425	
11	0	0	0	0	496	424	
12	0	0	0	0	495	424	
13	0	0	0	0	495	424	
14	0	0	0	0	494	425	
15	0	0	0	0	493	424	
0	0	0	0	0	492	424	
1	0	0	0	0	492	424	
2	0	0	0	0	492	424	
3	0	0	0	0	493	424	
4	0	0	0	0	496	424	
5	0	0	0	0	499	424	
6	0	0	0	0	504	423	
7	0	0	0	0	509	424	
8	0	0	0	0	513	424	
9	0	0	0	0	519	424	
10	0	0	0	0	527	425	
11	0	0	0	0	536	423	
12	0	0	0	0	545	423	
13	0	0	0	0	554	424	
14	0	0	0	0	563	424	
15	0	0	0	0	572	424	
0	0	0	0	0	582	424	
1	0	0	0	0	591	423	
2	0	0	0	0	599	423	
3	0	0	0	0	606	424	
4	0	0	0	0	611	423	
5	0	0	0	0	615	423	
6	0	0	0	0	617	424	
7	0	0	0	0	619	423	
8	0	0	0	0	620	423	
9	0	0	0	0	619	423	
10	0	0	0	0	615	424	
11	0	0	0	0	611	423	
12	0	0	0	0	607	424	
13	0	0	0	0	603	424	
14	0	0	0	0	599	424	
15	0	0	0	0	595	423	
0	0	0	0	0	592	423	
1	0	0	0	0	589	423	
2	0	0	0	0	585	424	
3	0	0	0	0	582	423	
4	0	0	0	0	577	423	
5	0	0	0	0	573	424	
6	0	0	0	0	568	424	
7	0	0	0	0	563	424	
8	0	0	0	0	558	424	
9	0	0	0	0	553	424	
10	0	0	0	0	547	424	
11	0	0	0	0	543	424	
12	0	0	0	0	538	424	
13	0	0	0	0	534	423	
14	0	0	0	0	529	424	
15	0	0	0	0	526	424	
0	0	0	0	0	522	423	
1	0	0	0	0	519	424	
2	0	0	0	0	515	424	
3	0	0	0	0	513	423	
4	0	0	0	0	510	423	
5	0	0	0	0	508	423	
6	0	0	0	0	505	424	
7	0	0	0	0	503	423	
8	0	0	0	0	501	423	
9	0	0	0	0	499	423	
10	0	0	0	0	498	424	
11	0	0	0	0	497	423	
12	0	0	0	0	496	423	
13	0	0	0	0	495	423	
14	0	0	0	0	494	422	
15	0	0	0	0	492	422	
0	0	0	0	0	491	422	
1	0	0	0	0	489	423	
2	0	0	0	0	487	423	
3	0	0	0	0	487	423	
4	0	0	0	0	486	423	
5	0	0	0	0	487	423	
6	0	0	0	0	487	423	
7	0	0	0	0	486	423	
8	0	0	0	0	486	423	
9	0	0	0	0	486	423	
10	0	0	0	0	486	424	
11	0	0	0	0	486	423	
12	0	0	0	0	486	423	
13	0	0	0	0	486	423	
14	0	0	0	0	486	423	
15	0	0	0	0	486	424	
0	0	0	0	0	487	423	
1	0	0	0	0	487	423	
2	0	0	0	0	487	424	
3	0	0	0	0	487	423	
4	0	0	0	0	487	424	
5	0	0	0	0	487	423	
6	0	0	0	0	486	424	
7	0	0	0	0	486	423	
8	0	0	0	0	487	423	
9	0	0	0	0	487	423	
10	0	0	0	0	487	424	
11	0	0	0	0	487	424	
12	0	0	0	0	486	423	
13	0	0	0	0	486	423	
14	0	0	0	0	486	423	
15	0	0	0	0	486	423	
0	0	0	0	0	487	423	
1	0	0	0	0	487	423	
2	0	0	0	0	488	423	
3	0	0	0	0	488	423	
4	0	0	0	0	490	423	
5	0	0	0	0	490	423	
6	0	0	0	0	490	424	
7	0	0	0	0	489	423	
8	0	0	0	0	489	423	
9	0	0	0	0	488	423	
10	0	0	0	0	488	423	
11	0	0	0	0	487	423	
12	0	0	0	0	487	423	
13	0	0	0	0	487	423	
14	0	0	0	0	487	423	
15	0	0	0	0	487	423	
0	0	0	0	0	488	423	
1	0	0	0	0	489	422	
2	0	0	0	0	490	424	
3	0	0	0	0	490	423	
4	0	0	0	0	490	423	
5	0	0	0	0	491	423	
6	0	0	0	0	491	423	
7	0	0	0	0	493	423	
8	0	0	0	0	493	423	
9	0	0	0	0	493	423	
10	0	0	0	0	494	423	
11	0	0	0	0	493	422	
12	0	0	0	0	493	422	
13	0	0	0	0	493	423	
14	0	0	0	0	493	423	
15	0	0	0	0	493	422	
0	0	0	0	0	494	422	
1	0	0	0	0	494	423	
2	0	0	0	0	494	423	
3	0	0	0	0	494	422	
4	0	0	0	0	495	423	
5	0	0	0	0	494	422	
6	0	0	0	0	495	423	
7	0	0	0	0	494	422	
8	0	0	0	0	494	422	
9	0	0	0	0	495	423	
10	0	0	0	0	495	423	
11	0	0	0	0	496	423	
12	0	0	0	0	495	422	
13	0	0	0	0	495	423	
14	0	0	0	0	495	423	
15	0	0	0	0	494	423	
0	0	0	0	0	494	423	
1	0	0	0	0	494	423	
2	0	0	0	0	495	423	
3	0	0	0	0	495	423	
4	0	0	0	0	496	423	
5	0	0	0	0	497	424	
6	0	0	0	0	497	423	
7	0	0	0	0	497	423	
8	0	0	0	0	498	423	
9	0	0	0	0	498	423	
10	0	0	0	0	498	423	
11	0	0	0	0	498	423	
12	0	0	0	0	498	423	
13	0	0	0	0	498	423	
14	0	0	0	0	497	423	
15	0	0	0	0	497	423	
0	0	0	0	0	496	423	
1	0	0	0	0	497	423	
2	0	0	0	0	498	423	
3	0	0	0	0	498	423	
4	0	0	0	0	498	423	
5	0	0	0	0	498	423	
6	0	0	0	0	498	423	
7	0	0	0	0	499	423	
8	0	0	0	0	500	423	
9	0	0	0	0	500	423	
10	0	0	0	0	499	423	
11	0	0	0	0	500	423	
12	0	0	0	0	500	423	
13	0	0	0	0	500	422	
14	0	0	0	0	500	423	
15	0	0	0	0	500	423	
0	0	0	0	0	500	422	
1	0	0	0	0	500	423	
2	0	0	0	0	500	423	
3	0	0	0	0	500	423	
4	0	0	0	0	500	423	
5	0	0	0	0	501	423	
6	0	0	0	0	501	423	
7	0	0	0	0	501	423	
8	0	0	0	0	502	424	
9	0	0	0	0	502	424	
10	0	0	0	0	502	424	
11	0	0	0	0	503	423	
12	0	0	0	0	503	423	
13	0	0	0	0	504	423	
14	0	0	0	0	503	423	
15	0	0	0	0	502	423	
0	0	0	0	0	502	423	
1	0	0	0	0	502	423	
2	0	0	0	0	503	424	
3	0	0	0	0	504	423	
4	0	0	0	0	504	423	
5	0	0	0	0	504	423	
6	0	0	0	0	504	424	
7	0	0	0	0	505	424	
8	0	0	0	0	505	423	
9	0	0	0	0	505	423	
10	0	0	0	0	505	424	
11	0	0	0	0	505	423	
12	0	0	0	0	505	423	
13	0	0	0	0	506	423	
14	0	0	0	0	507	423	
15	0	0	0	0	507	423	
0	0	0	0	0	507	423	
1	0	0	0	0	507	423	
2	0	0	0	0	508	424	
3	0	0	0	0	508	423	
4	0	0	0	0	509	423	
5	0	0	0	0	509	424	
6	0	0	0	0	509	424	
7	0	0	0	0	511	424	
8	0	0	0	0	510	424	
9	0	0	0	0	510	425	
10	0	0	0	0	510	425	
11	0	0	0	0	510	425	
12	0	0	0	0	509	424	
13	0	0	0	0	508	424	
14	0	0	0	0	509	424	
15	0	0	0	0	509	423	
0	0	0	0	0	510	424	
1	0	0	0	0	510	423	
2	0	0	0	0	510	424	
3	0	0	0	0	510	424	
4	0	0	0	0	510	423	
5	0	0	0	0	510	424	
6	0	0	0	0	510	423	
7	0	0	0	0	511	423	
8	0	0	0	0	511	423	
9	0	0	0	0	511	424	
10	0	0	0	0	511	425	
11	0	0	0	0	511	423	
12	0	0	0	0	512	424	
13	0	0	0	0	512	423	
14	0	0	0	0	512	424	
15	0	0	0	0	513	423	
0	0	0	0	0	513	423	
1	0	0	0	0	513	424	
2	0	0	0	0	513	424	
3	0	0	0	0	513	423	
4	0	0	0	0	514	423	
5	0	0	0	0	513	423	
6	0	0	0	0	513	423	
7	0	0	0	0	513	423	
8	0	0	0	0	513	423	
9	0	0	0	0	513	423	
10	0	0	0	0	513	424	
11	0	0	0	0	513	423	
12	0	0	0	0	513	423	
13	0	0	0	0	512	423	
14	0	0	0	0	512	423	
15	0	0	0	0	512	423	
0	0	0	0	0	512	423	
1	0	0	0	0	512	423	
2	0	0	0	0	512	423	
3	0	0	0	0	513	423	
4	0	0	0	0	513	422	
5	0	0	0	0	513	423	
6	0	0	0	0	513	423	
7	0	0	0	0	513	423	
8	0	0	0	0	514	423	
9	0	0	0	0	514	423	
10	0	0	0	0	514	423	
11	0	0	0	0	514	423	
12	0	0	0	0	515	423	
13	0	0	0	0	515	423	
14	0	0	0	0	516	423	
15	0	0	0	0	516	422	
0	0	0	0	0	516	423	
1	0	0	0	0	516	422	
2	0	0	0	0	515	423	
3	0	0	0	0	515	423	
4	0	0	0	0	515	423	
5	0	0	0	0	516	423	
6	0	0	0	0	516	423	
7	0	0	0	0	516	423	
8	0	0	0	0	516	422	
9	0	0	0	0	515	422	
10	0	0	0	0	515	423	
11	0	0	0	0	515	422	
12	0	0	0	0	515	422	
13	0	0	0	0	514	423	
14	0	0	0	0	514	423	
15	0	0	0	0	514	423	
0	0	0	0	0	515	423	
1	0	0	0	0	515	423	
2	0	0	0	0	515	424	
3	0	0	0	0	514	423	
4	0	0	0	0	514	424	
5	0	0	0	0	513	423	
6	0	0	0	0	513	424	
7	0	0	0	0	513	424	
8	0	0	0	0	512	423	
9	0	0	0	0	513	423	
10	0	0	0	0	512	423	
11	0	0	0	0	512	423	
12	0	0	0	0	511	423	
13	0	0	0	0	511	423	
14	0	0	0	0	511	423	
15	0	0	0	0	511	423	
0	0	0	0	0	511	424	
1	0	0	0	0	510	423	
2	0	0	0	0	510	425	
3	0	0	0	0	511	423	
4	0	0	0	0	511	424	
5	0	0	0	0	511	423	
6	0	0	0	0	510	423	
7	0	0	0	0	509	424	
8	0	0	0	0	508	424	
9	0	0	0	0	508	423	
10	0	0	0	0	508	424	
11	0	0	0	0	508	425	
12	0	0	0	0	508	424	
13	0	0	0	0	508	424	
14	0	0	0	0	508	424	
15	0	0	0	0	508	424	
0	0	0	0	0	508	424	
1	0	0	0	0	508	424	
2	0	0	0	0	508	425	
3	0	0	0	0	508	424	
4	0	0	0	0	508	424	
5	0	0	0	0	509	424	
6	0	0	0	0	509	425	
7	0	0	0	0	509	424	
8	0	0	0	0	509	424	
9	0	0	0	0	509	424	
10	0	0	0	0	509	425	
11	0	0	0	0	508	424	
12	0	0	0	0	507	424	
13	0	0	0	0	506	424	
14	0	0	0	0	505	424	
15	0	0	0	0	505	424	
0	0	0	0	0	505	424	
1	0	0	0	0	506	424	
2	0	0	0	0	505	424	
3	0	0	0	0	505	424	
4	0	0	0	0	505	423	
5	0	0	0	0	504	424	
6	0	0	0	0	504	424	
7	0	0	0	0	504	424	
8	0	0	0	0	505	425	
9	0	0	0	0	504	425	
10	0	0	0	0	505	425	
11	0	0	0	0	504	424	
12	0	0	0	0	504	423	
13	0	0	0	0	504	423	
14	0	0	0	0	504	424	
15	0	0	0	0	504	423	
0	0	0	0	0	504	423	
1	0	0	0	0	504	423	
2	0	0	0	0	504	424	
3	0	0	0	0	504	423	
4	0	0	0	0	503	423	
5	0	0	0	0	503	423	
6	0	0	0	0	503	424	
7	0	0	0	0	503	423	
8	0	0	0	0	503	423	
9	0	0	0	0	502	423	
10	0	0	0	0	501	424	
11	0	0	0	0	500	423	
12	0	0	0	0	500	423	
13	0	0	0	0	499	424	
14	0	0	0	0	499	423	
15	0	0	0	0	499	423	
0	0	0	0	0	499	423	
1	0	0	0	0	500	423	
2	0	0	0	0	500	425	
3	0	0	0	0	500	423	
4	0	0	0	0	501	423	
5	0	0	0	0	501	423	
6	0	0	0	0	501	424	
7	0	0	0	0	502	424	
8	0	0	0	0	502	423	
9	0	0	0	0	502	423	
10	0	0	0	0	501	424	
11	0	0	0	0	502	423	
12	0	0	0	0	502	423	
13	0	0	0	0	502	423	
14	0	0	0	0	502	423	
15	0	0	0	0	502	423	
0	0	0	0	0	503	423	
1	0	0	0	0	502	423	
2	0	0	0	0	502	424	
3	0	0	0	0	502	423	
4	0	0	0	0	502	423	
5	0	0	0	0	502	423	
6	0	0	0	0	503	424	
7	0	0	0	0	504	423	
8	0	0	0	0	505	423	
9	0	0	0	0	504	423	
10	0	0	0	0	504	425	
11	0	0	0	0	504	423	
12	0	0	0	0	503	423	
13	0	0	0	0	503	423	
14	0	0	0	0	503	423	
15	0	0	0	0	503	424	
0	0	0	0	0	503	423	
1	0	0	0	0	503	423	
2	0	0	0	0	503	424	
3	0	0	0	0	502	423	
4	0	0	0	0	503	423	
5	0	0	0	0	503	424	
6	0	0	0	0	502	424	
7	0	0	0	0	503	424	
8	0	0	0	0	503	423	
9	0	0	0	0	504	423	
10	0	0	0	0	504	424	
11	0	0	0	0	505	423	
12	0	0	0	0	506	423	
13	0	0	0	0	506	424	
14	0	0	0	0	507	424	
15	0	0	0	0	507	424	
0	0	0	0	0	507	424	
1	0	0	0	0	507	423	
2	0	0	0	0	508	423	
3	0	0	0	0	507	423	
4	0	0	0	0	507	424	
5	0	0	0	0	507	424	
6	0	0	0	0	505	424	
7	0	0	0	0	506	424	
8	0	0	0	0	506	424	
9	0	0	0	0	505	423	
10	0	0	0	0	505	424	
11	0	0	0	0	505	423	
12	0	0	0	0	505	423	
13	0	0	0	0	506	424	
14	0	0	0	0	506	424	
15	0	0	0	0	506	424	
0	0	0	0	0	506	424	
1	0	0	0	0	506	423	
2	0	0	0	0	507	425	
3	0	0	0	0	508	423	
4	0	0	0	0	508	424	
5	0	0	0	0	507	423	
6	0	0	0	0	507	423	
7	0	0	0	0	507	424	
8	0	0	0	0	506	423	
9	0	0	0	0	506	424	
10	0	0	0	0	506	424	
11	0	0	0	0	506	424	
12	0	0	0	0	507	423	
13	0	0	0	0	507	423	
14	0	0	0	0	506	424	
15	0	0	0	0	506	423	
0	0	0	0	0	506	424	
1	0	0	0	0	506	423	
2	0	0	0	0	505	424	
3	0	0	0	0	506	423	
4	0	0	0	0	506	423	
5	0	0	0	0	506	424	
6	0	0	0	0	507	424	
7	0	0	0	0	506	424	
8	0	0	0	0	506	424	
9	0	0	0	0	506	424	
10	0	0	0	0	506	425	
11	0	0	0	0	506	424	
12	0	0	0	0	506	423	
13	0	0	0	0	506	423	
14	0	0	0	0	506	423	
15	0	0	0	0	506	423	
0	0	0	0	0	506	423	
1	0	0	0	0	507	423	
2	0	0	0	0	507	424	
3	0	0	0	0	508	423	
4	0	0	0	0	508	424	
5	0	0	0	0	509	423	
6	0	0	0	0	510	423	
7	0	0	0	0	510	423	
8	0	0	0	0	511	423	
9	0	0	0	0	511	423	
10	0	0	0	0	512	424	
11	0	0	0	0	512	423	
12	0	0	0	0	513	424	
13	0	0	0	0	513	424	
14	0	0	0	0	513	424	
15	0	0	0	0	512	424	
0	0	0	0	0	512	424	
1	0	0	0	0	511	424	
2	0	0	0	0	511	425	
3	0	0	0	0	510	424	
4	0	0	0	0	510	424	
5	0	0	0	0	510	424	
6	0	0	0	0	510	425	
7	0	0	0	0	510	424	
8	0	0	0	0	510	424	
9	0	0	0	0	510	424	
10	0	0	0	0	509	424	
11	0	0	0	0	508	424	
12	0	0	0	0	508	424	
13	0	0	0	0	508	424	
14	0	0	0	0	509	425	
15	0	0	0	0	509	424	
0	0	0	0	0	509	424	
1	0	0	0	0	510	424	
2	0	0	0	0	510	425	
3	0	0	0	0	511	424	
4	0	0	0	0	511	424	
5	0	0	0	0	511	423	
6	0	0	0	0	510	424	
7	0	0	0	0	511	423	
8	0	0	0	0	511	424	
9	0	0	0	0	511	423	
10	0	0	0	0	510	423	
11	0	0	0	0	510	423	
12	0	0	0	0	510	423	
13	0	0	0	0	509	423	
14	0	0	0	0	508	423	
15	0	0	0	0	508	424	
0	0	0	0	0	509	424	
1	0	0	0	0	509	423	
2	0	0	0	0	509	425	
3	0	0	0	0	510	424	
4	0	0	0	0	510	424	
5	0	0	0	0	509	424	
6	0	0	0	0	509	423	
7	0	0	0	0	508	424	
8	0	0	0	0	508	423	
9	0	0	0	0	508	424	
10	0	0	0	0	509	424	
11	0	0	0	0	508	424	
12	0	0	0	0	509	425	
13	0	0	0	0	509	424	
14	0	0	0	0	510	425	
15	0	0	0	0	510	424	
0	0	0	0	0	510	424	
1	0	0	0	0	510	424	
2	0	0	0	0	511	424	
3	0	0	0	0	511	424	
4	0	0	0	0	512	424	
5	0	0	0	0	512	424	
6	0	0	0	0	512	425	
7	0	0	0	0	512	424	
8	0	0	0	0	512	424	
9	0	0	0	0	511	423	
10	0	0	0	0	511	424	
11	0	0	0	0	511	424	
12	0	0	0	0	510	424	
13	0	0	0	0	510	424	
14	0	0	0	0	509	424	
15	0	0	0	0	508	424	
0	0	0	0	0	509	424	
1	0	0	0	0	509	424	
2	0	0	0	0	509	425	
3	0	0	0	0	509	424	
4	0	0	0	0	509	423	
5	0	0	0	0	510	424	
6	0	0	0	0	510	424	
7	0	0	0	0	511	423	
8	0	0	0	0	511	424	
9	0	0	0	0	512	423	
10	0	0	0	0	512	424	
11	0	0	0	0	512	423	
12	0	0	0	0	512	423	
13	0	0	0	0	513	423	
14	0	0	0	0	513	423	
15	0	0	0	0	512	423	
0	0	0	0	0	512	423	
1	0	0	0	0	512	423	
2	0	0	0	0	512	424	
3	0	0	0	0	511	423	
4	0	0	0	0	511	424	
5	0	0	0	0	510	423	
6	0	0	0	0	510	424	
7	0	0	0	0	509	423	
8	0	0	0	0	509	423	
9	0	0	0	0	510	423	
10	0	0	0	0	510	423	
11	0	0	0	0	511	423	
12	0	0	0	0	511	423	
13	0	0	0	0	511	423	
14	0	0	0	0	511	423	
15	0	0	0	0	511	424	
0	0	0	0	0	511	424	
1	0	0	0	0	511	423	
2	0	0	0	0	511	424	
3	0	0	0	0	511	424	
4	0	0	0	0	511	423	
5	0	0	0	0	510	423	
6	0	0	0	0	510	423	
7	0	0	0	0	511	423	
8	0	0	0	0	511	424	
9	0	0	0	0	511	423	
10	0	0	0	0	512	424	
11	0	0	0	0	512	423	
12	0	0	0	0	511	423	
13	0	0	0	0	512	423	
14	0	0	0	0	512	423	
15	0	0	0	0	512	423	
0	0	0	0	0	512	423	
1	0	0	0	0	512	423	
2	0	0	0	0	511	424	
3	0	0	0	0	512	423	
4	0	0	0	0	512	423	
5	0	0	0	0	512	423	
6	0	0	0	0	513	423	
7	0	0	0	0	513	423	
8	0	0	0	0	513	423	
9	0	0	0	0	512	422	
10	0	0	0	0	512	423	
11	0	0	0	0	512	422	
12	0	0	0	0	512	423	
13	0	0	0	0	512	423	
14	0	0	0	0	512	423	
15	0	0	0	0	512	423	
0	0	0	0	0	512	422	
1	0	0	0	0	512	423	
2	0	0	0	0	512	423	
3	0	0	0	0	512	422	
4	0	0	0	0	512	422	
5	0	0	0	0	511	422	
6	0	0	0	0	511	422	
7	0	0	0	0	512	423	
8	0	0	0	0	512	423	
9	0	0	0	0	512	422	
10	0	0	0	0	512	423	
11	0	0	0	0	512	422	
12	0	0	0	0	512	423	
13	0	0	0	0	512	422	
14	0	0	0	0	512	422	
15	0	0	0	0	512	422	
0	0	0	0	0	512	422	
1	0	0	0	0	512	422	
2	0	0	0	0	512	423	
3	0	0	0	0	512	422	
4	0	0	0	0	511	422	
5	0	0	0	0	511	423	
6	0	0	0	0	510	423	
7	0	0	0	0	510	423	
8	0	0	0	0	510	422	
9	0	0	0	0	510	422	
10	0	0	0	0	511	423	
11	0	0	0	0	511	423	
12	0	0	0	0	511	423	
13	0	0	0	0	511	423	
14	0	0	0	0	511	423	
15	0	0	0	0	512	423	
0	0	0	0	0	511	422	
1	0	0	0	0	511	423	
2	0	0	0	0	511	423	
3	0	0	0	0	510	423	
4	0	0	0	0	510	423	
5	0	0	0	0	510	423	
6	0	0	0	0	510	424	
7	0	0	0	0	509	423	
8	0	0	0	0	509	423	
9	0	0	0	0	509	424	
10	0	0	0	0	509	424	
11	0	0	0	0	509	423	
12	0	0	0	0	509	423	
13	0	0	0	0	510	423	
14	0	0	0	0	510	424	
15	0	0	0	0	511	423	
0	0	0	0	0	512	423	
1	0	0	0	0	512	423	
2	0	0	0	0	512	425	
3	0	0	0	0	512	423	
4	0	0	0	0	512	423	
5	0	0	0	0	512	423	
6	0	0	0	0	512	423	
7	0	0	0	0	512	423	
8	0	0	0	0	512	423	
9	0	0	0	0	512	423	
10	0	0	0	0	512	423	
11	0	0	0	0	513	423	
12	0	0	0	0	513	423	
13	0	0	0	0	513	423	
14	0	0	0	0	512	423	
15	0	0	0	0	513	423	
0	0	0	0	0	512	423	
1	0	0	0	0	512	423	
2	0	0	0	0	512	424	
3	0	0	0	0	512	423	
4	0	0	0	0	512	423	
5	0	0	0	0	512	423	
6	0	0	0	0	512	423	
7	0	0	0	0	512	423	
8	0	0	0	0	512	423	
9	0	0	0	0	512	423	
10	0	0	0	0	512	423	
11	0	0	0	0	513	423	
12	0	0	0	0	513	423	
13	0	0	0	0	512	422	
14	0	0	0	0	512	423	
15	0	0	0	0	512	423	
0	0	0	0	0	512	423	
1	0	0	0	0	512	423	
2	0	0	0	0	511	423	
3	0	0	0	0	511	423	
4	0	0	0	0	511	423	
5	0	0	0	0	511	423	
6	0	0	0	0	511	423	
7	0	0	0	0	511	422	
8	0	0	0	0	511	423	
9	0	0	0	0	511	423	
10	0	0	0	0	512	423	
11	0	0	0	0	512	423	
12	0	0	0	0	513	423	
13	0	0	0	0	513	423	
14	0	0	0	0	513	423	
15	0	0	0	0	514	423	
0	0	0	0	0	514	423	
1	0	0	0	0	514	423	
2	0	0	0	0	514	423	
3	0	0	0	0	513	423	
4	0	0	0	0	513	423	
5	0	0	0	0	512	423	
6	0	0	0	0	512	423	
7	0	0	0	0	512	423	
8	0	0	0	0	511	423	
9	0	0	0	0	511	423	
10	0	0	0	0	511	423	
11	0	0	0	0	511	423	
12	0	0	0	0	511	423	
13	0	0	0	0	512	423	
14	0	0	0	0	512	424	
15	0	0	0	0	512	423	
0	0	0	0	0	511	423	
1	0	0	0	0	511	423	
2	0	0	0	0	511	423	
3	0	0	0	0	510	423	
4	0	0	0	0	510	423	
5	0	0	0	0	510	423	
6	0	0	0	0	510	423	
7	0	0	0	0	510	423	
8	0	0	0	0	511	423	
9	0	0	0	0	511	423	
10	0	0	0	0	511	423	
11	0	0	0	0	512	423	
12	0	0	0	0	511	423	
13	0	0	0	0	511	423	
14	0	0	0	0	512	423	
15	0	0	0	0	512	423	
0	0	0	0	0	512	423	
1	0	0	0	0	512	423	
2	0	0	0	0	511	424	
3	0	0	0	0	511	423	
4	0	0	0	0	511	423	
5	0	0	0	0	511	424	
6	0	0	0	0	511	424	
7	0	0	0	0	511	424	
8	0	0	0	0	511	423	
9	0	0	0	0	511	423	
10	0	0	0	0	511	425	
11	0	0	0	0	511	423	
12	0	0	0	0	511	423	
13	0	0	0	0	511	423	
14	0	0	0	0	511	424	
15	0	0	0	0	510	423	
0	0	0	0	0	511	423	
1	0	0	0	0	511	423	
2	0	0	0	0	512	423	
3	0	0	0	0	512	423	
4	0	0	0	0	512	423	
5	0	0	0	0	513	424	
6	0	0	0	0	513	423	
7	0	0	0	0	513	423	
8	0	0	0	0	512	423	
9	0	0	0	0	512	423	
10	0	0	0	0	512	423	
11	0	0	0	0	511	423	
12	0	0	0	0	511	423	
13	0	0	0	0	511	423	
14	0	0	0	0	511	423	
15	0	0	0	0	510	423	
0	0	0	0	0	509	423	
1	0	0	0	0	509	423	
2	0	0	0	0	509	423	
3	0	0	0	0	510	423	
4	0	0	0	0	510	423	
5	0	0	0	0	511	423	
6	0	0	0	0	511	424	
7	0	0	0	0	512	423	
8	0	0	0	0	512	423	
9	0	0	0	0	512	424	
10	0	0	0	0	511	424	
11	0	0	0	0	512	423	
12	0	0	0	0	512	423	
13	0	0	0	0	512	424	
14	0	0	0	0	513	423	
15	0	0	0	0	513	423	
0	0	0	0	0	514	423	
1	0	0	0	0	514	423	
2	0	0	0	0	513	425	
3	0	0	0	0	513	424	
4	0	0	0	0	513	423	
5	0	0	0	0	513	424	
6	0	0	0	0	513	423	
7	0	0	0	0	513	424	
8	0	0	0	0	513	424	
9	0	0	0	0	513	423	
10	0	0	0	0	513	424	
11	0	0	0	0	512	423	
12	0	0	0	0	512	423	
13	0	0	0	0	512	423	
14	0	0	0	0	513	424	
15	0	0	0	0	514	424	
0	0	0	0	0	514	424	
1	0	0	0	0	514	423	
2	0	0	0	0	515	424	
3	0	0	0	0	515	424	
4	0	0	0	0	515	423	
5	0	0	0	0	514	423	
6	0	0	0	0	512	424	
7	0	0	0	0	512	424	
8	0	0	0	0	512	423	
9	0	0	0	0	512	424	
10	0	0	0	0	511	425	
11	0	0	0	0	512	424	
12	0	0	0	0	512	424	
13	0	0	0	0	512	424	
14	0	0	0	0	512	423	
15	0	0	0	0	512	423	
0	0	0	0	0	512	423	
1	0	0	0	0	512	423	
2	0	0	0	0	512	424	
3	0	0	0	0	512	424	
4	0	0	0	0	512	424	
5	0	0	0	0	513	423	
6	0	0	0	0	513	423	
7	0	0	0	0	512	423	
8	0	0	0	0	511	423	
9	0	0	0	0	511	423	
10	0	0	0	0	511	424	
11	0	0	0	0	511	423	
12	0	0	0	0	511	423	
13	0	0	0	0	511	424	
14	0	0	0	0	511	424	
15	0	0	0	0	512	423	
0	0	0	0	0	512	423	
1	0	0	0	0	512	424	
2	0	0	0	0	513	425	
3	0	0	0	0	513	424	
4	0	0	0	0	512	423	
5	0	0	0	0	512	424	
6	0	0	0	0	511	423	
7	0	0	0	0	511	424	
8	0	0	0	0	511	423	
9	0	0	0	0	511	423	
10	0	0	0	0	512	424	
11	0	0	0	0	512	423	
12	0	0	0	0	512	423	
13	0	0	0	0	512	423	
14	0	0	0	0	512	423	
15	0	0	0	0	512	423	
0	0	0	0	0	512	423	
1	0	0	0	0	512	423	
2	0	0	0	0	512	424	
3	0	0	0	0	511	423	
4	0	0	0	0	512	423	
5	0	0	0	0	511	423	
6	0	0	0	0	511	423	
7	0	0	0	0	511	423	
8	0	0	0	0	512	423	
9	0	0	0	0	512	423	
10	0	0	0	0	512	424	
11	0	0	0	0	512	423	
12	0	0	0	0	512	423	
13	0	0	0	0	512	423	
14	0	0	0	0	511	423	
15	0	0	0	0	511	423	
0	0	0	0	0	510	423	
1	0	0	0	0	510	423	
2	0	0	0	0	509	423	
3	0	0	0	0	509	423	
4	0	0	0	0	509	423	
5	0	0	0	0	509	423	
6	0	0	0	0	508	423	
7	0	0	0	0	508	423	
8	0	0	0	0	508	423	
9	0	0	0	0	508	423	
10	0	0	0	0	509	424	
11	0	0	0	0	508	423	
12	0	0	0	0	509	423	
13	0	0	0	0	509	423	
14	0	0	0	0	508	423	
15	0	0	0	0	509	423	
0	0	0	0	0	509	424	
1	0	0	0	0	510	423	
2	0	0	0	0	510	423	
3	0	0	0	0	509	423	
4	0	0	0	0	509	423	
5	0	0	0	0	509	423	
6	0	0	0	0	509	423	
7	0	0	0	0	509	423	
8	0	0	0	0	509	423	
9	0	0	0	0	510	423	
10	0	0	0	0	510	423	
11	0	0	0	0	511	423	
12	0	0	0	0	510	423	
13	0	0	0	0	509	423	
14	0	0	0	0	509	423	
15	0	0	0	0	508	423	
0	0	0	0	0	508	423	
1	0	0	0	0	508	423	
2	0	0	0	0	508	423	
3	0	0	0	0	507	423	
4	0	0	0	0	507	423	
5	0	0	0	0	506	423	
6	0	0	0	0	506	423	
7	0	0	0	0	505	423	
8	0	0	0	0	504	424	
9	0	0	0	0	504	423	
10	0	0	0	0	503	423	
11	0	0	0	0	502	423	
12	0	0	0	0	500	423	
13	0	0	0	0	499	423	
14	0	0	0	0	497	423	
15	0	0	0	0	496	423	
0	0	0	0	0	494	423	
1	0	0	0	0	492	423	
2	0	0	0	0	490	424	
3	0	0	0	0	488	423	
4	0	0	0	0	488	424	
5	0	0	0	0	487	423	
6	0	0	0	0	487	424	
7	0	0	0	0	487	423	
8	0	0	0	0	489	423	
9	0	0	0	0	492	423	
10	0	0	0	0	496	424	
11	0	0	0	0	500	424	
12	0	0	0	0	505	424	
13	0	0	0	0	509	423	
14	0	0	0	0	515	423	
15	0	0	0	0	523	423	
0	0	0	0	0	531	423	
1	0	0	0	0	540	423	
2	0	0	0	0	548	423	
3	0	0	0	0	557	423	
4	0	0	0	0	567	423	
5	0	0	0	0	576	423	
6	0	0	0	0	586	423	
7	0	0	0	0	594	423	
8	0	0	0	0	601	423	
9	0	0	0	0	606	423	
10	0	0	0	0	609	423	
11	0	0	0	0	612	423	
12	0	0	0	0	614	424	
13	0	0	0	0	615	423	
14	0	0	0	0	615	423	
15	0	0	0	0	612	423	
0	0	0	0	0	609	423	
1	0	0	0	0	604	423	
2	0	0	0	0	600	423	
3	0	0	0	0	596	423	
4	0	0	0	0	591	423	
5	0	0	0	0	589	423	
6	0	0	0	0	586	423	
7	0	0	0	0	583	423	
8	0	0	0	0	579	423	
9	0	0	0	0	575	423	
10	0	0	0	0	571	423	
11	0	0	0	0	567	423	
12	0	0	0	0	561	423	
13	0	0	0	0	557	423	
14	0	0	0	0	551	424	
15	0	0	0	0	547	423	
0	0	0	0	0	543	423	
1	0	0	0	0	539	423	
2	0	0	0	0	535	424	
3	0	0	0	0	531	422	
4	0	0	0	0	527	423	
5	0	0	0	0	524	423	
6	0	0	0	0	519	423	
7	0	0	0	0	515	423	
8	0	0	0	0	512	423	
9	0	0	0	0	509	423	
10	0	0	0	0	507	423	
11	0	0	0	0	504	422	
12	0	0	0	0	502	423	
13	0	0	0	0	499	423	
14	0	0	0	0	497	423	
15	0	0	0	0	495	423	
0	0	0	0	0	494	423	
1	0	0	0	0	492	423	
2	0	0	0	0	491	423	
3	0	0	0	0	491	423	
4	0	0	0	0	490	422	
5	0	0	0	0	489	422	
6	0	0	0	0	488	423	
7	0	0	0	0	487	423	
8	0	0	0	0	487	423	
9	0	0	0	0	486	423	
10	0	0	0	0	485	424	
11	0	0	0	0	485	423	
12	0	0	0	0	484	423	
13	0	0	0	0	484	423	
14	0	0	0	0	483	423	
15	0	0	0	0	482	423	
0	0	0	0	0	483	423	
1	0	0	0	0	483	423	
2	0	0	0	0	483	424	
3	0	0	0	0	483	423	
4	0	0	0	0	484	423	
5	0	0	0	0	485	423	
6	0	0	0	0	485	423	
7	0	0	0	0	485	424	
8	0	0	0	0	485	423	
9	0	0	0	0	485	423	
10	0	0	0	0	485	423	
11	0	0	0	0	486	423	
12	0	0	0	0	486	423	
13	0	0	0	0	486	423	
14	0	0	0	0	486	424	
15	0	0	0	0	486	424	
0	0	0	0	0	486	424	
1	0	0	0	0	487	423	
2	0	0	0	0	487	425	
3	0	0	0	0	487	424	
4	0	0	0	0	487	423	
5	0	0	0	0	487	424	
6	0	0	0	0	488	424	
7	0	0	0	0	488	423	
8	0	0	0	0	488	423	
9	0	0	0	0	489	423	
10	0	0	0	0	490	424	
11	0	0	0	0	491	423	
12	0	0	0	0	491	423	
13	0	0	0	0	491	423	
14	0	0	0	0	491	423	
15	0	0	0	0	491	423	
0	0	0	0	0	491	424	
1	0	0	0	0	491	423	
2	0	0	0	0	491	424	
3	0	0	0	0	491	423	
4	0	0	0	0	491	423	
5	0	0	0	0	491	423	
6	0	0	0	0	491	424	
7	0	0	0	0	491	424	
8	0	0	0	0	492	424	
9	0	0	0	0	492	423	
10	0	0	0	0	493	425	
11	0	0	0	0	493	423	
12	0	0	0	0	494	425	
13	0	0	0	0	494	423	
14	0	0	0	0	494	424	
15	0	0	0	0	494	424	
0	0	0	0	0	494	423	
1	0	0	0	0	494	423	
2	0	0	0	0	494	424	
3	0	0	0	0	493	423	
4	0	0	0	0	493	423	
5	0	0	0	0	494	423	
6	0	0	0	0	494	424	
7	0	0	0	0	495	423	
8	0	0	0	0	495	423	
9	0	0	0	0	495	423	
10	0	0	0	0	495	424	
11	0	0	0	0	496	423	
12	0	0	0	0	496	424	
13	0	0	0	0	496	424	
14	0	0	0	0	496	424	
15	0	0	0	0	496	423	
0	0	0	0	0	496	424	
1	0	0	0	0	496	423	
2	0	0	0	0	496	424	
3	0	0	0	0	496	424	
4	0	0	0	0	496	423	
5	0	0	0	0	496	424	
6	0	0	0	0	496	424	
7	0	0	0	0	496	424	
8	0	0	0	0	497	423	
9	0	0	0	0	497	423	
10	0	0	0	0	497	424	
11	0	0	0	0	498	423	
12	0	0	0	0	498	423	
13	0	0	0	0	498	424	
14	0	0	0	0	499	424	
15	0	0	0	0	499	424	
0	0	0	0	0	498	423	
1	0	0	0	0	498	423	
2	0	0	0	0	498	424	
3	0	0	0	0	497	424	
4	0	0	0	0	498	423	
5	0	0	0	0	497	424	
6	0	0	0	0	498	424	
7	0	0	0	0	498	424	
8	0	0	0	0	498	423	
9	0	0	0	0	499	424	
10	0	0	0	0	499	424	
11	0	0	0	0	499	423	
12	0	0	0	0	499	423	
13	0	0	0	0	500	423	
14	0	0	0	0	501	424	
15	0	0	0	0	501	423	
0	0	0	0	0	501	423	
1	0	0	0	0	501	424	
2	0	0	0	0	501	424	
3	0	0	0	0	501	423	
4	0	0	0	0	501	423	
5	0	0	0	0	501	423	
6	0	0	0	0	500	423	
7	0	0	0	0	500	423	
8	0	0	0	0	499	423	
9	0	0	0	0	499	423	
10	0	0	0	0	499	423	
11	0	0	0	0	499	423	
12	0	0	0	0	499	423	
13	0	0	0	0	500	423	
14	0	0	0	0	500	423	
15	0	0	0	0	500	423	
0	0	0	0	0	502	423	
1	0	0	0	0	502	422	
2	0	0	0	0	502	423	
3	0	0	0	0	503	423	
4	0	0	0	0	503	422	
5	0	0	0	0	503	423	
6	0	0	0	0	503	423	
7	0	0	0	0	503	423	
8	0	0	0	0	503	422	
9	0	0	0	0	504	423	
10	0	0	0	0	504	423	
11	0	0	0	0	504	423	
12	0	0	0	0	504	423	
13	0	0	0	0	504	423	
14	0	0	0	0	504	423	
15	0	0	0	0	504	422	
0	0	0	0	0	505	423	
1	0	0	0	0	504	423	
2	0	0	0	0	504	423	
3	0	0	0	0	504	423	
4	0	0	0	0	504	423	
5	0	0	0	0	504	424	
6	0	0	0	0	505	423	
7	0	0	0	0	505	423	
8	0	0	0	0	506	423	
9	0	0	0	0	508	423	
10	0	0	0	0	508	424	
11	0	0	0	0	508	423	
12	0	0	0	0	509	423	
13	0	0	0	0	509	423	
14	0	0	0	0	510	423	
15	0	0	0	0	510	423	
0	0	0	0	0	511	423	
1	0	0	0	0	511	423	
2	0	0	0	0	512	423	
3	0	0	0	0	512	423	
4	0	0	0	0	512	423	
5	0	0	0	0	512	423	
6	0	0	0	0	512	423	
7	0	0	0	0	511	423	
8	0	0	0	0	510	423	
9	0	0	0	0	510	423	
10	0	0	0	0	509	424	
11	0	0	0	0	509	423	
12	0	0	0	0	509	424	
13	0	0	0	0	508	423	
14	0	0	0	0	508	424	
15	0	0	0	0	509	423	
0	0	0	0	0	510	424	
1	0	0	0	0	510	423	
2	0	0	0	0	511	424	
3	0	0	0	0	512	423	
4	0	0	0	0	512	423	
5	0	0	0	0	512	423	
6	0	0	0	0	511	423	
7	0	0	0	0	511	423	
8	0	0	0	0	512	423	
9	0	0	0	0	512	423	
10	0	0	0	0	513	424	
11	0	0	0	0	514	423	
12	0	0	0	0	515	423	
13	0	0	0	0	515	423	
14	0	0	0	0	515	423	
15	0	0	0	0	516	423	
0	0	0	0	0	516	423	
1	0	0	0	0	517	423	
2	0	0	0	0	517	423	
3	0	0	0	0	517	423	
4	0	0	0	0	516	423	
5	0	0	0	0	516	423	
6	0	0	0	0	516	423	
7	0	0	0	0	515	423	
8	0	0	0	0	515	423	
9	0	0	0	0	515	423	
10	0	0	0	0	515	423	
11	0	0	0	0	516	423	
12	0	0	0	0	516	423	
13	0	0	0	0	517	423	
14	0	0	0	0	518	424	
15	0	0	0	0	518	423	
0	0	0	0	0	519	423	
1	0	0	0	0	519	423	
2	0	0	0	0	518	425	
3	0	0	0	0	518	424	
4	0	0	0	0	518	423	
5	0	0	0	0	518	424	
6	0	0	0	0	517	425	
7	0	0	0	0	517	424	
8	0	0	0	0	516	423	
9	0	0	0	0	516	423	
10	0	0	0	0	517	424	
11	0	0	0	0	516	423	
12	0	0	0	0	516	424	
13	0	0	0	0	516	424	
14	0	0	0	0	515	424	
15	0	0	0	0	515	424	
0	0	0	0	0	515	424	
1	0	0	0	0	515	423	
2	0	0	0	0	515	425	
3	0	0	0	0	515	424	
4	0	0	0	0	515	424	
5	0	0	0	0	515	424	
6	0	0	0	0	515	424	
7	0	0	0	0	515	424	
8	0	0	0	0	515	424	
9	0	0	0	0	515	424	
10	0	0	0	0	515	424	
11	0	0	0	0	514	424	
12	0	0	0	0	515	423	
13	0	0	0	0	515	424	
14	0	0	0	0	514	424	
15	0	0	0	0	513	424	
0	0	0	0	0	513	424	
1	0	0	0	0	512	425	
2	0	0	0	0	512	425	
3	0	0	0	0	512	424	
4	0	0	0	0	512	424	
5	0	0	0	0	512	423	
6	0	0	0	0	513	424	
7	0	0	0	0	513	423	
8	0	0	0	0	514	424	
9	0	0	0	0	514	423	
10	0	0	0	0	513	423	
11	0	0	0	0	513	423	
12	0	0	0	0	513	423	
13	0	0	0	0	513	424	
14	0	0	0	0	512	424	
15	0	0	0	0	512	423	
0	0	0	0	0	512	424	
1	0	0	0	0	512	423	
2	0	0	0	0	512	425	
3	0	0	0	0	511	424	
4	0	0	0	0	511	424	
5	0	0	0	0	510	424	
6	0	0	0	0	510	425	
7	0	0	0	0	510	424	
8	0	0	0	0	510	424	
9	0	0	0	0	509	425	
10	0	0	0	0	508	425	
11	0	0	0	0	508	424	
12	0	0	0	0	506	424	
13	0	0	0	0	505	424	
14	0	0	0	0	504	425	
15	0	0	0	0	504	424	
0	0	0	0	0	504	423	
1	0	0	0	0	504	423	
2	0	0	0	0	505	425	
3	0	0	0	0	506	424	
4	0	0	0	0	507	424	
5	0	0	0	0	507	424	
6	0	0	0	0	506	424	
7	0	0	0	0	507	424	
8	0	0	0	0	507	424	
9	0	0	0	0	506	425	
10	0	0	0	0	506	425	
11	0	0	0	0	505	424	
12	0	0	0	0	505	424	
13	0	0	0	0	505	424	
14	0	0	0	0	505	425	
15	0	0	0	0	504	424	
0	0	0	0	0	504	424	
1	0	0	0	0	503	424	
2	0	0	0	0	503	424	
3	0	0	0	0	503	424	
4	0	0	0	0	503	423	
5	0	0	0	0	503	424	
6	0	0	0	0	504	424	
7	0	0	0	0	504	423	
8	0	0	0	0	504	423	
9	0	0	0	0	504	423	
10	0	0	0	0	504	424	
11	0	0	0	0	504	423	
12	0	0	0	0	504	424	
13	0	0	0	0	503	423	
14	0	0	0	0	503	424	
15	0	0	0	0	502	424	
0	0	0	0	0	501	423	
1	0	0	0	0	501	423	
2	0	0	0	0	500	424	
3	0	0	0	0	500	423	
4	0	0	0	0	500	423	
5	0	0	0	0	500	423	
6	0	0	0	0	501	423	
7	0	0	0	0	502	424	
8	0	0	0	0	502	423	
9	0	0	0	0	502	423	
10	0	0	0	0	501	424	
11	0	0	0	0	502	423	
12	0	0	0	0	501	423	
13	0	0	0	0	501	423	
14	0	0	0	0	502	424	
15	0	0	0	0	501	423	
0	0	0	0	0	501	423	
1	0	0	0	0	501	423	
2	0	0	0	0	501	423	
3	0	0	0	0	501	423	
4	0	0	0	0	501	423	
5	0	0	0	0	502	423	
6	0	0	0	0	502	423	
7	0	0	0	0	502	423	
8	0	0	0	0	503	423	
9	0	0	0	0	503	423	
10	0	0	0	0	503	424	
11	0	0	0	0	504	423	
12	0	0	0	0	503	423	
13	0	0	0	0	503	424	
14	0	0	0	0	503	423	
15	0	0	0	0	502	423	
0	0	0	0	0	502	424	
1	0	0	0	0	503	424	
2	0	0	0	0	502	424	
3	0	0	0	0	502	423	
4	0	0	0	0	502	423	
5	0	0	0	0	503	423	
6	0	0	0	0	503	423	
7	0	0	0	0	503	423	
8	0	0	0	0	502	423	
9	0	0	0	0	502	423	
10	0	0	0	0	501	424	
11	0	0	0	0	501	423	
12	0	0	0	0	501	423	
13	0	0	0	0	500	423	
14	0	0	0	0	500	424	
15	0	0	0	0	500	423	
0	0	0	0	0	500	424	
1	0	0	0	0	500	424	
2	0	0	0	0	500	424	
3	0	0	0	0	500	424	
4	0	0	0	0	500	424	
5	0	0	0	0	500	423	
6	0	0	0	0	499	424	
7	0	0	0	0	500	424	
8	0	0	0	0	500	424	
9	0	0	0	0	500	424	
10	0	0	0	0	500	424	
11	0	0	0	0	501	424	
12	0	0	0	0	500	425	
13	0	0	0	0	501	424	
14	0	0	0	0	501	425	
15	0	0	0	0	501	424	
0	0	0	0	0	501	424	
1	0	0	0	0	502	424	
2	0	0	0	0	503	424	
3	0	0	0	0	504	424	
4	0	0	0	0	504	424	
5	0	0	0	0	505	424	
6	0	0	0	0	506	424	
7	0	0	0	0	506	424	
8	0	0	0	0	506	423	
9	0	0	0	0	506	423	
10	0	0	0	0	506	424	
11	0	0	0	0	505	423	
12	0	0	0	0	505	423	
13	0	0	0	0	504	424	
14	0	0	0	0	504	424	
15	0	0	0	0	504	424	
0	0	0	0	0	504	423	
1	0	0	0	0	504	423	
2	0	0	0	0	504	424	
3	0	0	0	0	504	423	
4	0	0	0	0	504	424	
5	0	0	0	0	504	423	
6	0	0	0	0	503	423	
7	0	0	0	0	503	423	
8	0	0	0	0	504	423	
9	0	0	0	0	504	423	
10	0	0	0	0	504	424	
11	0	0	0	0	505	423	
12	0	0	0	0	505	423	
13	0	0	0	0	505	423	
14	0	0	0	0	505	424	
15	0	0	0	0	506	423	
0	0	0	0	0	507	423	
1	0	0	0	0	507	423	
2	0	0	0	0	507	423	
3	0	0	0	0	507	423	
4	0	0	0	0	507	423	
5	0	0	0	0	507	423	
6	0	0	0	0	507	424	
7	0	0	0	0	507	423	
8	0	0	0	0	508	423	
9	0	0	0	0	509	423	
10	0	0	0	0	509	424	
11	0	0	0	0	510	423	
12	0	0	0	0	510	423	
13	0	0	0	0	511	423	
14	0	0	0	0	511	424	
15	0	0	0	0	511	423	
0	0	0	0	0	512	423	
1	0	0	0	0	512	423	
2	0	0	0	0	512	424	
3	0	0	0	0	512	424	
4	0	0	0	0	511	423	
5	0	0	0	0	512	423	
6	0	0	0	0	511	423	
7	0	0	0	0	511	423	
8	0	0	0	0	511	423	
9	0	0	0	0	510	424	
10	0	0	0	0	510	424	
11	0	0	0	0	510	423	
12	0	0	0	0	509	424	
13	0	0	0	0	509	424	
14	0	0	0	0	510	424	
15	0	0	0	0	511	424	
0	0	0	0	0	510	424	
1	0	0	0	0	510	424	
2	0	0	0	0	510	424	
3	0	0	0	0	510	423	
4	0	0	0	0	509	424	
5	0	0	0	0	508	424	
6	0	0	0	0	508	424	
7	0	0	0	0	507	423	
8	0	0	0	0	507	424	
9	0	0	0	0	508	423	
10	0	0	0	0	508	425	
11	0	0	0	0	509	424	
12	0	0	0	0	509	424	
13	0	0	0	0	509	424	
14	0	0	0	0	509	424	
15	0	0	0	0	510	423	
0	0	0	0	0	511	423	
1	0	0	0	0	511	423	
2	0	0	0	0	511	423	
3	0	0	0	0	512	423	
4	0	0	0	0	512	423	
5	0	0	0	0	512	423	
6	0	0	0	0	512	423	
7	0	0	0	0	512	423	
8	0	0	0	0	511	422	
9	0	0	0	0	511	423	
10	0	0	0	0	511	424	
11	0	0	0	0	510	423	
12	0	0	0	0	510	423	
13	0	0	0	0	510	423	
14	0	0	0	0	508	423	
15	0	0	0	0	508	423	
0	0	0	0	0	508	423	
1	0	0	0	0	507	423	
2	0	0	0	0	508	423	
3	0	0	0	0	508	423	
4	0	0	0	0	508	423	
5	0	0	0	0	508	422	
6	0	0	0	0	508	423	
7	0	0	0	0	508	423	
8	0	0	0	0	508	423	
9	0	0	0	0	508	423	
10	0	0	0	0	508	424	
11	0	0	0	0	508	423	
12	0	0	0	0	508	423	
13	0	0	0	0	508	423	
14	0	0	0	0	509	423	
15	0	0	0	0	509	423	
0	0	0	0	0	510	423	
1	0	0	0	0	510	423	
2	0	0	0	0	510	424	
3	0	0	0	0	512	423	
4	0	0	0	0	511	424	
5	0	0	0	0	511	423	
6	0	0	0	0	511	424	
7	0	0	0	0	510	423	
8	0	0	0	0	510	423	
9	0	0	0	0	509	423	
10	0	0	0	0	509	424	
11	0	0	0	0	509	423	
12	0	0	0	0	510	423	
13	0	0	0	0	511	424	
14	0	0	0	0	511	423	
15	0	0	0	0	511	423	
0	0	0	0	0	511	423	
1	0	0	0	0	511	423	
2	0	0	0	0	511	424	
3	0	0	0	0	512	423	
4	0	0	0	0	511	423	
5	0	0	0	0	511	423	
6	0	0	0	0	511	423	
7	0	0	0	0	512	423	
8	0	0	0	0	512	423	
9	0	0	0	0	512	423	
10	0	0	0	0	512	423	
11	0	0	0	0	512	423	
12	0	0	0	0	513	423	
13	0	0	0	0	512	424	
14	0	0	0	0	512	423	
15	0	0	0	0	512	423	
0	0	0	0	0	512	423	
1	0	0	0	0	512	423	
2	0	0	0	0	511	423	
3	0	0	0	0	511	423	
4	0	0	0	0	511	423	
5	0	0	0	0	511	423	
6	0	0	0	0	511	424	
7	0	0	0	0	510	423	
8	0	0	0	0	511	423	
9	0	0	0	0	511	423	
10	0	0	0	0	512	424	
11	0	0	0	0	512	423	
12	0	0	0	0	513	423	
13	0	0	0	0	513	423	
14	0	0	0	0	513	423	
15	0	0	0	0	513	423	
0	0	0	0	0	513	424	
1	0	0	0	0	513	423	
2	0	0	0	0	512	425	
3	0	0	0	0	513	423	
4	0	0	0	0	512	423	
5	0	0	0	0	512	423	
6	0	0	0	0	512	424	
7	0	0	0	0	511	424	
8	0	0	0	0	511	423	
9	0	0	0	0	511	423	
10	0	0	0	0	511	423	
11	0	0	0	0	511	423	
12	0	0	0	0	511	423	
13	0	0	0	0	510	423	
14	0	0	0	0	510	423	
15	0	0	0	0	511	424	
0	0	0	0	0	511	423	
1	0	0	0	0	511	423	
2	0	0	0	0	511	424	
3	0	0	0	0	511	423	
4	0	0	0	0	511	423	
5	0	0	0	0	511	424	
6	0	0	0	0	512	425	
7	0	0	0	0	512	424	
8	0	0	0	0	512	423	
9	0	0	0	0	512	424	
10	0	0	0	0	512	424	
11	0	0	0	0	513	424	
12	0	0	0	0	513	424	
13	0	0	0	0	513	425	
14	0	0	0	0	512	425	
15	0	0	0	0	513	423	
0	0	0	0	0	513	424	
1	0	0	0	0	513	424	
2	0	0	0	0	514	425	
3	0	0	0	0	514	425	
4	0	0	0	0	514	423	
5	0	0	0	0	514	424	
6	0	0	0	0	514	424	
7	0	0	0	0	513	424	
8	0	0	0	0	513	424	
9	0	0	0	0	512	424	
10	0	0	0	0	512	425	
11	0	0	0	0	511	423	
12	0	0	0	0	511	424	
13	0	0	0	0	512	424	
14	0	0	0	0	511	424	
15	0	0	0	0	511	424	
0	0	0	0	0	511	423	
1	0	0	0	0	511	423	
2	0	0	0	0	511	424	
3	0	0	0	0	510	423	
4	0	0	0	0	510	423	
5	0	0	0	0	509	424	
6	0	0	0	0	509	424	
7	0	0	0	0	508	424	
8	0	0	0	0	508	423	
9	0	0	0	0	508	424	
10	0	0	0	0	509	425	
11	0	0	0	0	508	423	
12	0	0	0	0	509	424	
13	0	0	0	0	508	424	
14	0	0	0	0	509	424	
15	0	0	0	0	508	424	
0	0	0	0	0	509	424	
1	0	0	0	0	510	424	
2	0	0	0	0	510	424	
3	0	0	0	0	511	423	
4	0	0	0	0	511	424	
5	0	0	0	0	511	423	
6	0	0	0	0	511	424	
7	0	0	0	0	511	424	
8	0	0	0	0	511	424	
9	0	0	0	0	511	423	
10	0	0	0	0	511	423	
11	0	0	0	0	512	423	
12	0	0	0	0	512	423	
13	0	0	0	0	512	424	
14	0	0	0	0	512	425	
15	0	0	0	0	512	424	
0	0	0	0	0	512	425	
1	0	0	0	0	512	423	
2	0	0	0	0	512	424	
3	0	0	0	0	512	423	
4	0	0	0	0	512	424	
5	0	0	0	0	512	424	
6	0	0	0	0	513	424	
7	0	0	0	0	512	424	
8	0	0	0	0	512	423	
9	0	0	0	0	512	423	
10	0	0	0	0	512	424	
11	0	0	0	0	512	423	
12	0	0	0	0	513	423	
13	0	0	0	0	512	424	
14	0	0	0	0	512	424	
15	0	0	0	0	512	424	
0	0	0	0	0	512	424	
1	0	0	0	0	512	423	
2	0	0	0	0	512	425	
3	0	0	0	0	512	424	
4	0	0	0	0	512	423	
5	0	0	0	0	512	424	
6	0	0	0	0	511	424	
7	0	0	0	0	510	424	
8	0	0	0	0	510	424	
9	0	0	0	0	510	424	
10	0	0	0	0	510	425	
11	0	0	0	0	510	423	
12	0	0	0	0	510	424	
13	0	0	0	0	510	423	
14	0	0	0	0	509	424	
15	0	0	0	0	509	423	
0	0	0	0	0	509	423	
1	0	0	0	0	509	424	
2	0	0	0	0	509	424	
3	0	0	0	0	510	423	
4	0	0	0	0	510	424	
5	0	0	0	0	511	423	
6	0	0	0	0	511	423	
7	0	0	0	0	511	423	
8	0	0	0	0	512	424	
9	0	0	0	0	512	424	
10	0	0	0	0	511	424	
11	0	0	0	0	511	423	
12	0	0	0	0	511	423	
13	0	0	0	0	510	424	
14	0	0	0	0	510	424	
15	0	0	0	0	510	424	
0	0	0	0	0	511	424	
1	0	0	0	0	511	424	
2	0	0	0	0	512	425	
3	0	0	0	0	512	424	
4	0	0	0	0	512	424	
5	0	0	0	0	513	424	
6	0	0	0	0	512	424	
7	0	0	0	0	512	424	
8	0	0	0	0	512	424	
9	0	0	0	0	512	423	
10	0	0	0	0	512	425	
11	0	0	0	0	512	424	
12	0	0	0	0	512	424	
13	0	0	0	0	511	425	
14	0	0	0	0	511	425	
15	0	0	0	0	510	424	
0	0	0	0	0	509	424	
1	0	0	0	0	508	424	
2	0	0	0	0	508	425	
3	0	0	0	0	507	424	
4	0	0	0	0	507	424	
5	0	0	0	0	507	424	
6	0	0	0	0	508	424	
7	0	0	0	0	509	424	
8	0	0	0	0	509	424	
9	0	0	0	0	509	424	
10	0	0	0	0	510	424	
11	0	0	0	0	511	424	
12	0	0	0	0	510	424	
13	0	0	0	0	510	424	
14	0	0	0	0	510	423	
15	0	0	0	0	510	423	
0	0	0	0	0	510	424	
1	0	0	0	0	510	424	
2	0	0	0	0	509	424	
3	0	0	0	0	509	424	
4	0	0	0	0	509	423	
5	0	0	0	0	509	423	
6	0	0	0	0	509	424	
7	0	0	0	0	510	424	
8	0	0	0	0	510	423	
9	0	0	0	0	510	423	
10	0	0	0	0	510	424	
11	0	0	0	0	510	423	
12	0	0	0	0	510	423	
13	0	0	0	0	509	423	
14	0	0	0	0	510	423	
15	0	0	0	0	510	423	
0	0	0	0	0	512	423	
1	0	0	0	0	512	423	
2	0	0	0	0	513	424	
3	0	0	0	0	513	423	
4	0	0	0	0	513	424	
5	0	0	0	0	515	423	
6	0	0	0	0	515	423	
7	0	0	0	0	515	423	
8	0	0	0	0	515	423	
9	0	0	0	0	515	424	
10	0	0	0	0	515	424	
11	0	0	0	0	515	423	
12	0	0	0	0	515	423	
13	0	0	0	0	515	424	
14	0	0	0	0	514	424	
15	0	0	0	0	514	423	
0	0	0	0	0	513	423	
1	0	0	0	0	512	423	
2	0	0	0	0	512	424	
3	0	0	0	0	512	423	
4	0	0	0	0	512	423	
5	0	0	0	0	512	423	
6	0	0	0	0	513	424	
7	0	0	0	0	512	423	
8	0	0	0	0	513	423	
9	0	0	0	0	512	423	
10	0	0	0	0	512	425	
11	0	0	0	0	511	423	
12	0	0	0	0	511	424	
13	0	0	0	0	510	424	
14	0	0	0	0	510	424	
15	0	0	0	0	510	423	
0	0	0	0	0	510	423	
1	0	0	0	0	510	424	
2	0	0	0	0	510	424	
3	0	0	0	0	510	423	
4	0	0	0	0	510	423	
5	0	0	0	0	510	423	
6	0	0	0	0	510	423	
7	0	0	0	0	511	424	
8	0	0	0	0	511	423	
9	0	0	0	0	512	423	
10	0	0	0	0	512	423	
11	0	0	0	0	511	423	
12	0	0	0	0	511	423	
13	0	0	0	0	510	423	
14	0	0	0	0	509	424	
15	0	0	0	0	509	423	
0	0	0	0	0	509	424	
1	0	0	0	0	509	424	
2	0	0	0	0	509	424	
3	0	0	0	0	509	423	
4	0	0	0	0	510	423	
5	0	0	0	0	510	423	
6	0	0	0	0	510	424	
7	0	0	0	0	510	424	
8	0	0	0	0	510	424	
9	0	0	0	0	511	424	
10	0	0	0	0	511	424	
11	0	0	0	0	511	423	
12	0	0	0	0	512	423	
13	0	0	0	0	512	423	
14	0	0	0	0	512	423	
15	0	0	0	0	511	423	
0	0	0	0	0	512	424	
1	0	0	0	0	511	424	
2	0	0	0	0	511	424	
3	0	0	0	0	510	423	
4	0	0	0	0	510	423	
5	0	0	0	0	511	423	
6	0	0	0	0	511	424	
7	0	0	0	0	512	424	
8	0	0	0	0	512	423	
9	0	0	0	0	512	423	
10	0	0	0	0	512	424	
11	0	0	0	0	513	423	
12	0	0	0	0	513	423	
13	0	0	0	0	513	423	
14	0	0	0	0	512	424	
15	0	0	0	0	511	424	
0	0	0	0	0	511	424	
1	0	0	0	0	511	424	
2	0	0	0	0	511	425	
3	0	0	0	0	510	423	
4	0	0	0	0	511	424	
5	0	0	0	0	510	424	
6	0	0	0	0	509	424	
7	0	0	0	0	510	424	
8	0	0	0	0	511	423	
9	0	0	0	0	511	423	
10	0	0	0	0	510	424	
11	0	0	0	0	509	424	
12	0	0	0	0	509	424	
13	0	0	0	0	509	423	
14	0	0	0	0	510	423	
15	0	0	0	0	510	424	
0	0	0	0	0	511	424	
1	0	0	0	0	510	424	
2	0	0	0	0	510	425	
3	0	0	0	0	510	425	
4	0	0	0	0	511	424	
5	0	0	0	0	510	424	
6	0	0	0	0	510	425	
7	0	0	0	0	510	425	
8	0	0	0	0	509	424	
9	0	0	0	0	509	424	
10	0	0	0	0	510	425	
11	0	0	0	0	510	424	
12	0	0	0	0	510	424	
13	0	0	0	0	510	425	
14	0	0	0	0	510	424	
15	0	0	0	0	511	424	
0	0	0	0	0	511	425	
1	0	0	0	0	512	423	
2	0	0	0	0	512	425	
3	0	0	0	0	511	424	
4	0	0	0	0	511	424	
5	0	0	0	0	511	424	
6	0	0	0	0	510	424	
7	0	0	0	0	509	425	
8	0	0	0	0	507	425	
9	0	0	0	0	506	424	
10	0	0	0	0	504	425	
11	0	0	0	0	503	424	
12	0	0	0	0	501	424	
13	0	0	0	0	499	424	
14	0	0	0	0	496	424	
15	0	0	0	0	495	424	
0	0	0	0	0	493	424	
1	0	0	0	0	492	424	
2	0	0	0	0	492	425	
3	0	0	0	0	491	424	
4	0	0	0	0	491	425	
5	0	0	0	0	490	424	
6	0	0	0	0	490	425	
7	0	0	0	0	490	424	
8	0	0	0	0	492	424	
9	0	0	0	0	494	425	
10	0	0	0	0	495	425	
11	0	0	0	0	500	424	
12	0	0	0	0	505	423	
13	0	0	0	0	510	424	
14	0	0	0	0	516	424	
15	0	0	0	0	523	424	
0	0	0	0	0	530	424	
1	0	0	0	0	539	423	
2	0	0	0	0	547	424	
3	0	0	0	0	556	424	
4	0	0	0	0	564	424	
5	0	0	0	0	573	424	
6	0	0	0	0	582	424	
7	0	0	0	0	590	424	
8	0	0	0	0	596	423	
9	0	0	0	0	601	424	
10	0	0	0	0	605	425	
11	0	0	0	0	607	423	
12	0	0	0	0	608	424	
13	0	0	0	0	610	424	
14	0	0	0	0	609	424	
15	0	0	0	0	608	424	
0	0	0	0	0	604	424	
1	0	0	0	0	599	423	
2	0	0	0	0	594	424	
3	0	0	0	0	590	424	
4	0	0	0	0	586	424	
5	0	0	0	0	583	424	
6	0	0	0	0	581	424	
7	0	0	0	0	579	423	
8	0	0	0	0	575	423	
9	0	0	0	0	572	424	
10	0	0	0	0	569	425	
11	0	0	0	0	566	423	
12	0	0	0	0	561	424	
13	0	0	0	0	556	424	
14	0	0	0	0	552	425	
15	0	0	0	0	547	424	
0	0	0	0	0	543	424	
1	0	0	0	0	539	424	
2	0	0	0	0	535	425	
3	0	0	0	0	531	424	
4	0	0	0	0	526	424	
5	0	0	0	0	522	423	
6	0	0	0	0	519	424	
7	0	0	0	0	516	423	
8	0	0	0	0	513	423	
9	0	0	0	0	511	423	
10	0	0	0	0	509	424	
11	0	0	0	0	507	423	
12	0	0	0	0	504	424	
13	0	0	0	0	503	424	
14	0	0	0	0	501	424	
15	0	0	0	0	499	423	
0	0	0	0	0	498	423	
1	0	0	0	0	496	423	
2	0	0	0	0	494	424	
3	0	0	0	0	492	424	
4	0	0	0	0	490	424	
5	0	0	0	0	489	423	
6	0	0	0	0	487	424	
7	0	0	0	0	487	423	
8	0	0	0	0	486	423	
9	0	0	0	0	486	423	
10	0	0	0	0	486	424	
11	0	0	0	0	486	424	
12	0	0	0	0	487	424	
13	0	0	0	0	487	424	
14	0	0	0	0	487	424	
15	0	0	0	0	487	424	
0	0	0	0	0	487	424	
1	0	0	0	0	486	423	
2	0	0	0	0	486	424	
3	0	0	0	0	485	423	
4	0	0	0	0	485	423	
5	0	0	0	0	485	423	
6	0	0	0	0	484	423	
7	0	0	0	0	484	423	
8	0	0	0	0	484	423	
9	0	0	0	0	484	423	
10	0	0	0	0	484	423	
11	0	0	0	0	484	423	
12	0	0	0	0	485	423	
13	0	0	0	0	485	423	
14	0	0	0	0	486	423	
15	0	0	0	0	487	423	
0	0	0	0	0	487	423	
1	0	0	0	0	486	423	
2	0	0	0	0	486	424	
3	0	0	0	0	486	424	
4	0	0	0	0	486	423	
5	0	0	0	0	487	423	
6	0	0	0	0	487	423	
7	0	0	0	0	487	423	
8	0	0	0	0	488	423	
9	0	0	0	0	488	423	
10	0	0	0	0	489	423	
11	0	0	0	0	489	423	
12	0	0	0	0	489	423	
13	0	0	0	0	490	423	
14	0	0	0	0	490	423	
15	0	0	0	0	491	424	
0	0	0	0	0	491	423	
1	0	0	0	0	491	423	
2	0	0	0	0	492	424	
3	0	0	0	0	493	423	
4	0	0	0	0	493	424	
5	0	0	0	0	493	424	
6	0	0	0	0	493	423	
7	0	0	0	0	493	423	
8	0	0	0	0	493	423	
9	0	0	0	0	493	423	
10	0	0	0	0	493	425	
11	0	0	0	0	492	424	
12	0	0	0	0	491	424	
13	0	0	0	0	490	423	
14	0	0	0	0	491	423	
15	0	0	0	0	491	424	
0	0	0	0	0	491	424	
1	0	0	0	0	491	424	
2	0	0	0	0	491	425	
3	0	0	0	0	492	424	
4	0	0	0	0	492	424	
5	0	0	0	0	493	424	
6	0	0	0	0	494	424	
7	0	0	0	0	494	424	
8	0	0	0	0	494	424	
9	0	0	0	0	494	424	
10	0	0	0	0	494	425	
11	0	0	0	0	495	425	
12	0	0	0	0	496	424	
13	0	0	0	0	496	424	
14	0	0	0	0	496	426	
15	0	0	0	0	495	425	
0	0	0	0	0	496	424	
1	0	0	0	0	496	424	
2	0	0	0	0	496	425	
3	0	0	0	0	496	424	
4	0	0	0	0	496	425	
5	0	0	0	0	496	425	
6	0	0	0	0	496	425	
7	0	0	0	0	496	425	
8	0	0	0	0	496	424	
9	0	0	0	0	496	424	
10	0	0	0	0	496	425	
11	0	0	0	0	496	424	
12	0	0	0	0	496	424	
13	0	0	0	0	496	424	
14	0	0	0	0	496	424	
15	0	0	0	0	496	424	
0	0	0	0	0	496	424	
1	0	0	0	0	496	425	
2	0	0	0	0	496	425	
3	0	0	0	0	496	424	
4	0	0	0	0	496	424	
5	0	0	0	0	496	424	
6	0	0	0	0	496	424	
7	0	0	0	0	497	424	
8	0	0	0	0	497	424	
9	0	0	0	0	498	423	
10	0	0	0	0	499	424	
11	0	0	0	0	499	424	
12	0	0	0	0	500	425	
13	0	0	0	0	501	424	
14	0	0	0	0	501	425	
15	0	0	0	0	501	424	
0	0	0	0	0	500	424	
1	0	0	0	0	500	424	
2	0	0	0	0	500	425	
3	0	0	0	0	499	424	
4	0	0	0	0	499	423	
5	0	0	0	0	498	424	
6	0	0	0	0	498	424	
7	0	0	0	0	498	424	
8	0	0	0	0	499	424	
9	0	0	0	0	499	424	
10	0	0	0	0	500	425	
11	0	0	0	0	499	424	
12	0	0	0	0	499	424	
13	0	0	0	0	499	425	
14	0	0	0	0	500	424	
15	0	0	0	0	501	424	
0	0	0	0	0	502	425	
1	0	0	0	0	502	423	
2	0	0	0	0	503	425	
3	0	0	0	0	503	424	
4	0	0	0	0	504	424	
5	0	0	0	0	504	424	
6	0	0	0	0	504	424	
7	0	0	0	0	504	425	
8	0	0	0	0	503	424	
9	0	0	0	0	504	424	
10	0	0	0	0	504	425	
11	0	0	0	0	505	425	
12	0	0	0	0	506	424	
13	0	0	0	0	506	424	
14	0	0	0	0	507	424	
15	0	0	0	0	507	424	
0	0	0	0	0	507	424	
1	0	0	0	0	507	424	
2	0	0	0	0	507	425	
3	0	0	0	0	507	424	
4	0	0	0	0	506	424	
5	0	0	0	0	505	424	
6	0	0	0	0	504	424	
7	0	0	0	0	504	423	
8	0	0	0	0	505	425	
9	0	0	0	0	506	424	
10	0	0	0	0	506	425	
11	0	0	0	0	506	424	
12	0	0	0	0	506	424	
13	0	0	0	0	507	425	
14	0	0	0	0	507	425	
15	0	0	0	0	508	425	
0	0	0	0	0	508	425	
1	0	0	0	0	508	425	
2	0	0	0	0	508	426	
3	0	0	0	0	507	425	
4	0	0	0	0	507	425	
5	0	0	0	0	507	425	
6	0	0	0	0	508	425	
7	0	0	0	0	509	425	
8	0	0	0	0	510	424	
9	0	0	0	0	511	424	
10	0	0	0	0	511	425	
11	0	0	0	0	511	424	
12	0	0	0	0	511	425	
13	0	0	0	0	511	425	
14	0	0	0	0	511	425	
15	0	0	0	0	512	424	
0	0	0	0	0	511	425	
1	0	0	0	0	511	424	
2	0	0	0	0	511	425	
3	0	0	0	0	511	424	
4	0	0	0	0	511	424	
5	0	0	0	0	511	424	
6	0	0	0	0	512	424	
7	0	0	0	0	513	424	
8	0	0	0	0	515	425	
9	0	0	0	0	515	424	
10	0	0	0	0	514	425	
11	0	0	0	0	514	424	
12	0	0	0	0	514	424	
13	0	0	0	0	513	424	
14	0	0	0	0	514	425	
15	0	0	0	0	515	424	
0	0	0	0	0	515	424	
1	0	0	0	0	515	424	
2	0	0	0	0	516	425	
3	0	0	0	0	516	424	
4	0	0	0	0	517	424	
5	0	0	0	0	517	424	
6	0	0	0	0	517	424	
7	0	0	0	0	517	424	
8	0	0	0	0	517	424	
9	0	0	0	0	517	424	
10	0	0	0	0	518	425	
11	0	0	0	0	517	424	
12	0	0	0	0	518	424	
13	0	0	0	0	518	423	
14	0	0	0	0	518	424	
15	0	0	0	0	518	424	
0	0	0	0	0	518	424	
1	0	0	0	0	518	424	
2	0	0	0	0	518	425	
3	0	0	0	0	518	423	
4	0	0	0	0	518	424	
5	0	0	0	0	518	424	
6	0	0	0	0	518	423	
7	0	0	0	0	518	423	
8	0	0	0	0	519	424	
9	0	0	0	0	519	424	
10	0	0	0	0	518	425	
11	0	0	0	0	518	423	
12	0	0	0	0	518	424	
13	0	0	0	0	518	423	
14	0	0	0	0	518	424	
15	0	0	0	0	518	423	
0	0	0	0	0	518	423	
1	0	0	0	0	517	424	
2	0	0	0	0	517	425	
3	0	0	0	0	517	424	
4	0	0	0	0	518	424	
5	0	0	0	0	517	423	
6	0	0	0	0	516	424	
7	0	0	0	0	515	424	
8	0	0	0	0	515	424	
9	0	0	0	0	515	424	
10	0	0	0	0	514	425	
11	0	0	0	0	513	424	
12	0	0	0	0	512	424	
13	0	0	0	0	512	424	
14	0	0	0	0	512	424	
15	0	0	0	0	512	424	
0	0	0	0	0	513	424	
1	0	0	0	0	512	424	
2	0	0	0	0	512	425	
3	0	0	0	0	512	424	
4	0	0	0	0	513	424	
5	0	0	0	0	513	423	
6	0	0	0	0	513	424	
7	0	0	0	0	513	425	
8	0	0	0	0	513	424	
9	0	0	0	0	513	424	
10	0	0	0	0	512	425	
11	0	0	0	0	512	424	
12	0	0	0	0	511	424	
13	0	0	0	0	511	424	
14	0	0	0	0	511	424	
15	0	0	0	0	512	424	
0	0	0	0	0	512	424	
1	0	0	0	0	512	424	
2	0	0	0	0	511	425	
3	0	0	0	0	511	424	
4	0	0	0	0	511	424	
5	0	0	0	0	511	424	
6	0	0	0	0	512	425	
7	0	0	0	0	511	424	
8	0	0	0	0	511	425	
9	0	0	0	0	510	424	
10	0	0	0	0	510	425	
11	0	0	0	0	510	425	
12	0	0	0	0	510	424	
13	0	0	0	0	510	424	
14	0	0	0	0	510	424	
15	0	0	0	0	509	424	
0	0	0	0	0	509	424	
1	0	0	0	0	508	425	
2	0	0	0	0	507	425	
3	0	0	0	0	507	425	
4	0	0	0	0	506	424	
5	0	0	0	0	506	424	
6	0	0	0	0	506	424	
7	0	0	0	0	506	424	
8	0	0	0	0	505	424	
9	0	0	0	0	505	423	
10	0	0	0	0	505	424	
11	0	0	0	0	505	424	
12	0	0	0	0	505	424	
13	0	0	0	0	505	424	
14	0	0	0	0	505	424	
15	0	0	0	0	505	424	
0	0	0	0	0	505	424	
1	0	0	0	0	504	424	
2	0	0	0	0	504	424	
3	0	0	0	0	504	423	
4	0	0	0	0	504	424	
5	0	0	0	0	503	423	
6	0	0	0	0	503	424	
7	0	0	0	0	502	423	
8	0	0	0	0	502	423	
9	0	0	0	0	502	423	
10	0	0	0	0	503	423	
11	0	0	0	0	503	423	
12	0	0	0	0	503	423	
13	0	0	0	0	504	423	
14	0	0	0	0	503	423	
15	0	0	0	0	504	423	
0	0	0	0	0	503	423	
1	0	0	0	0	503	423	
2	0	0	0	0	503	424	
3	0	0	0	0	503	423	
4	0	0	0	0	503	423	
5	0	0	0	0	503	423	
6	0	0	0	0	503	424	
7	0	0	0	0	503	423	
8	0	0	0	0	503	423	
9	0	0	0	0	503	423	
10	0	0	0	0	503	424	
11	0	0	0	0	503	423	
12	0	0	0	0	503	423	
13	0	0	0	0	504	423	
14	0	0	0	0	504	424	
15	0	0	0	0	505	424	
0	0	0	0	0	505	424	
1	0	0	0	0	506	423	
2	0	0	0	0	506	423	
3	0	0	0	0	506	423	
4	0	0	0	0	505	423	
5	0	0	0	0	505	423	
6	0	0	0	0	505	423	
7	0	0	0	0	505	424	
8	0	0	0	0	505	424	
9	0	0	0	0	504	423	
10	0	0	0	0	504	425	
11	0	0	0	0	503	424	
12	0	0	0	0	502	423	
13	0	0	0	0	502	424	
14	0	0	0	0	502	424	
15	0	0	0	0	502	423	
0	0	0	0	0	501	423	
1	0	0	0	0	502	424	
2	0	0	0	0	502	424	
3	0	0	0	0	503	423	
4	0	0	0	0	504	424	
5	0	0	0	0	504	424	
6	0	0	0	0	504	424	
7	0	0	0	0	504	424	
8	0	0	0	0	505	424	
9	0	0	0	0	505	424	
10	0	0	0	0	506	424	
11	0	0	0	0	505	424	
12	0	0	0	0	505	424	
13	0	0	0	0	505	424	
14	0	0	0	0	504	424	
15	0	0	0	0	504	424	
0	0	0	0	0	504	424	
1	0	0	0	0	504	424	
2	0	0	0	0	505	425	
3	0	0	0	0	505	424	
4	0	0	0	0	505	424	
5	0	0	0	0	506	425	
6	0	0	0	0	507	425	
7	0	0	0	0	506	425	
8	0	0	0	0	506	425	
9	0	0	0	0	505	423	
10	0	0	0	0	504	425	
11	0	0	0	0	504	424	
12	0	0	0	0	504	425	
13	0	0	0	0	504	424	
14	0	0	0	0	504	424	
15	0	0	0	0	505	425	
0	0	0	0	0	505	423	
1	0	0	0	0	505	424	
2	0	0	0	0	505	425	
3	0	0	0	0	504	423	
4	0	0	0	0	504	424	
5	0	0	0	0	504	424	
6	0	0	0	0	504	424	
7	0	0	0	0	504	424	
8	0	0	0	0	503	424	
9	0	0	0	0	503	424	
10	0	0	0	0	503	424	
11	0	0	0	0	503	425	
12	0	0	0	0	504	425	
13	0	0	0	0	504	424	
14	0	0	0	0	504	424	
15	0	0	0	0	505	424	
0	0	0	0	0	505	424	
1	0	0	0	0	504	424	
2	0	0	0	0	504	423	
3	0	0	0	0	504	423	
4	0	0	0	0	505	424	
5	0	0	0	0	505	424	
6	0	0	0	0	505	424	
7	0	0	0	0	505	424	
8	0	0	0	0	505	424	
9	0	0	0	0	506	424	
10	0	0	0	0	506	425	
11	0	0	0	0	507	424	
12	0	0	0	0	508	423	
13	0	0	0	0	508	424	
14	0	0	0	0	509	424	
15	0	0	0	0	509	424	
0	0	0	0	0	509	423	
1	0	0	0	0	510	423	
2	0	0	0	0	510	425	
3	0	0	0	0	509	424	
4	0	0	0	0	509	423	
5	0	0	0	0	508	423	
6	0	0	0	0	508	423	
7	0	0	0	0	509	424	
8	0	0	0	0	509	423	
9	0	0	0	0	509	423	
10	0	0	0	0	508	424	
11	0	0	0	0	508	423	
12	0	0	0	0	509	424	
13	0	0	0	0	509	424	
14	0	0	0	0	509	425	
15	0	0	0	0	508	424	
0	0	0	0	0	509	424	
1	0	0	0	0	509	424	
2	0	0	0	0	509	425	
3	0	0	0	0	509	424	
4	0	0	0	0	510	425	
5	0	0	0	0	509	424	
6	0	0	0	0	508	425	
7	0	0	0	0	508	425	
8	0	0	0	0	507	425	
9	0	0	0	0	507	425	
10	0	0	0	0	506	425	
11	0	0	0	0	505	424	
12	0	0	0	0	505	424	
13	0	0	0	0	506	424	
14	0	0	0	0	506	425	
15	0	0	0	0	506	425	
0	0	0	0	0	507	425	
1	0	0	0	0	507	425	
2	0	0	0	0	508	425	
3	0	0	0	0	510	425	
4	0	0	0	0	511	424	
5	0	0	0	0	512	424	
6	0	0	0	0	512	425	
7	0	0	0	0	512	425	
8	0	0	0	0	512	425	
9	0	0	0	0	512	425	
10	0	0	0	0	512	426	
11	0	0	0	0	513	425	
12	0	0	0	0	513	425	
13	0	0	0	0	514	425	
14	0	0	0	0	514	425	
15	0	0	0	0	513	425	
0	0	0	0	0	512	425	
1	0	0	0	0	511	425	
2	0	0	0	0	511	425	
3	0	0	0	0	511	426	
4	0	0	0	0	511	425	
5	0	0	0	0	511	425	
6	0	0	0	0	510	425	
7	0	0	0	0	509	425	
8	0	0	0	0	509	425	
9	0	0	0	0	509	425	
10	0	0	0	0	509	426	
11	0	0	0	0	510	425	
12	0	0	0	0	511	426	
13	0	0	0	0	511	425	
14	0	0	0	0	512	425	
15	0	0	0	0	512	425	
0	0	0	0	0	512	425	
1	0	0	0	0	512	426	
2	0	0	0	0	512	426	
3	0	0	0	0	512	425	
4	0	0	0	0	512	425	
5	0	0	0	0	512	425	
6	0	0	0	0	512	426	
7	0	0	0	0	512	425	
8	0	0	0	0	512	425	
9	0	0	0	0	511	425	
10	0	0	0	0	511	426	
11	0	0	0	0	511	425	
12	0	0	0	0	510	425	
13	0	0	0	0	510	426	
14	0	0	0	0	509	426	
15	0	0	0	0	509	425	
0	0	0	0	0	509	425	
1	0	0	0	0	509	425	
2	0	0	0	0	510	425	
3	0	0	0	0	510	425	
4	0	0	0	0	511	425	
5	0	0	0	0	511	425	
6	0	0	0	0	512	425	
7	0	0	0	0	512	425	
8	0	0	0	0	511	425	
9	0	0	0	0	510	425	
10	0	0	0	0	510	426	
11	0	0	0	0	510	425	
12	0	0	0	0	509	426	
13	0	0	0	0	509	425	
14	0	0	0	0	509	425	
15	0	0	0	0	509	425	
0	0	0	0	0	509	425	
1	0	0	0	0	510	425	
2	0	0	0	0	509	426	
3	0	0	0	0	509	425	
4	0	0	0	0	509	425	
5	0	0	0	0	510	425	
6	0	0	0	0	510	425	
7	0	0	0	0	510	425	
8	0	0	0	0	510	425	
9	0	0	0	0	511	425	
10	0	0	0	0	511	425	
11	0	0	0	0	512	424	
12	0	0	0	0	511	425	
13	0	0	0	0	511	425	
14	0	0	0	0	511	426	
15	0	0	0	0	510	424	
0	0	0	0	0	510	425	
1	0	0	0	0	510	424	
2	0	0	0	0	509	425	
3	0	0	0	0	510	424	
4	0	0	0	0	510	425	
5	0	0	0	0	510	424	
6	0	0	0	0	510	425	
7	0	0	0	0	510	425	
8	0	0	0	0	511	425	
9	0	0	0	0	511	425	
10	0	0	0	0	512	425	
11	0	0	0	0	512	425	
12	0	0	0	0	512	425	
13	0	0	0	0	512	425	
14	0	0	0	0	512	425	
15	0	0	0	0	513	425	
0	0	0	0	0	513	425	
1	0	0	0	0	513	425	
2	0	0	0	0	513	425	
3	0	0	0	0	512	425	
4	0	0	0	0	512	425	
5	0	0	0	0	511	425	
6	0	0	0	0	511	425	
7	0	0	0	0	511	424	
8	0	0	0	0	510	424	
9	0	0	0	0	510	424	
10	0	0	0	0	510	425	
11	0	0	0	0	511	424	
12	0	0	0	0	511	424	
13	0	0	0	0	512	423	
14	0	0	0	0	512	424	
15	0	0	0	0	513	424	
0	0	0	0	0	513	424	
1	0	0	0	0	513	424	
2	0	0	0	0	512	424	
3	0	0	0	0	512	424	
4	0	0	0	0	512	423	
5	0	0	0	0	512	424	
6	0	0	0	0	511	424	
7	0	0	0	0	511	424	
8	0	0	0	0	511	424	
9	0	0	0	0	511	424	
10	0	0	0	0	511	425	
11	0	0	0	0	511	424	
12	0	0	0	0	510	423	
13	0	0	0	0	510	424	
14	0	0	0	0	511	423	
15	0	0	0	0	510	423	
0	0	0	0	0	510	423	
1	0	0	0	0	509	424	
2	0	0	0	0	509	424	
3	0	0	0	0	509	423	
4	0	0	0	0	510	424	
5	0	0	0	0	510	424	
6	0	0	0	0	509	424	
7	0	0	0	0	509	424	
8	0	0	0	0	509	424	
9	0	0	0	0	509	424	
10	0	0	0	0	509	425	
11	0	0	0	0	509	424	
12	0	0	0	0	509	424	
13	0	0	0	0	509	425	
14	0	0	0	0	509	425	
15	0	0	0	0	508	425	
0	0	0	0	0	508	425	
1	0	0	0	0	509	424	
2	0	0	0	0	510	425	
3	0	0	0	0	511	424	
4	0	0	0	0	511	424	
5	0	0	0	0	512	425	
6	0	0	0	0	511	425	
7	0	0	0	0	511	425	
8	0	0	0	0	511	424	
9	0	0	0	0	511	425	
10	0	0	0	0	511	426	
11	0	0	0	0	511	425	
12	0	0	0	0	511	425	
13	0	0	0	0	511	425	
14	0	0	0	0	512	425	
15	0	0	0	0	511	425	
0	0	0	0	0	512	425	
1	0	0	0	0	512	425	
2	0	0	0	0	512	425	
3	0	0	0	0	512	424	
4	0	0	0	0	511	425	
5	0	0	0	0	511	426	
6	0	0	0	0	510	425	
7	0	0	0	0	510	425	
8	0	0	0	0	510	424	
9	0	0	0	0	510	425	
10	0	0	0	0	509	425	
11	0	0	0	0	509	425	
12	0	0	0	0	508	425	
13	0	0	0	0	508	425	
14	0	0	0	0	508	425	
15	0	0	0	0	509	425	
0	0	0	0	0	508	425	
1	0	0	0	0	509	425	
2	0	0	0	0	510	425	
3	0	0	0	0	511	425	
4	0	0	0	0	512	425	
5	0	0	0	0	513	425	
6	0	0	0	0	513	426	
7	0	0	0	0	513	425	
8	0	0	0	0	513	425	
9	0	0	0	0	513	425	
10	0	0	0	0	512	426	
11	0	0	0	0	512	425	
12	0	0	0	0	512	425	
13	0	0	0	0	512	425	
14	0	0	0	0	512	426	
15	0	0	0	0	512	426	
0	0	0	0	0	512	426	
1	0	0	0	0	512	425	
2	0	0	0	0	512	426	
3	0	0	0	0	512	426	
4	0	0	0	0	512	425	
5	0	0	0	0	512	425	
6	0	0	0	0	512	426	
7	0	0	0	0	512	425	
8	0	0	0	0	513	425	
9	0	0	0	0	512	425	
10	0	0	0	0	513	425	
11	0	0	0	0	513	425	
12	0	0	0	0	513	425	
13	0	0	0	0	513	425	
14	0	0	0	0	513	426	
15	0	0	0	0	512	425	
0	0	0	0	0	512	425	
1	0	0	0	0	511	426	
2	0	0	0	0	510	425	
3	0	0	0	0	509	425	
4	0	0	0	0	508	425	
5	0	0	0	0	508	425	
6	0	0	0	0	508	426	
7	0	0	0	0	509	425	
8	0	0	0	0	509	425	
9	0	0	0	0	509	425	
10	0	0	0	0	509	426	
11	0	0	0	0	510	426	
12	0	0	0	0	510	425	
13	0	0	0	0	511	425	
14	0	0	0	0	511	425	
15	0	0	0	0	511	425	
0	0	0	0	0	511	425	
1	0	0	0	0	511	425	
2	0	0	0	0	510	426	
3	0	0	0	0	510	425	
4	0	0	0	0	509	425	
5	0	0	0	0	509	425	
6	0	0	0	0	509	425	
7	0	0	0	0	509	424	
8	0	0	0	0	509	425	
9	0	0	0	0	509	426	
10	0	0	0	0	509	425	
11	0	0	0	0	509	425	
12	0	0	0	0	508	424	
13	0	0	0	0	507	425	
14	0	0	0	0	507	426	
15	0	0	0	0	507	425	
0	0	0	0	0	508	425	
1	0	0	0	0	507	424	
2	0	0	0	0	507	425	
3	0	0	0	0	508	425	
4	0	0	0	0	508	424	
5	0	0	0	0	510	425	
6	0	0	0	0	511	425	
7	0	0	0	0	511	425	
8	0	0	0	0	512	425	
9	0	0	0	0	512	425	
10	0	0	0	0	511	426	
11	0	0	0	0	512	425	
12	0	0	0	0	512	424	
13	0	0	0	0	511	424	
14	0	0	0	0	511	424	
15	0	0	0	0	511	424	
0	0	0	0	0	512	424	
1	0	0	0	0	512	424	
2	0	0	0	0	512	425	
3	0	0	0	0	512	423	
4	0	0	0	0	513	424	
5	0	0	0	0	513	423	
6	0	0	0	0	514	425	
7	0	0	0	0	515	424	
8	0	0	0	0	515	424	
9	0	0	0	0	514	424	
10	0	0	0	0	513	425	
11	0	0	0	0	513	424	
12	0	0	0	0	512	423	
13	0	0	0	0	512	424	
14	0	0	0	0	512	424	
15	0	0	0	0	512	423	
0	0	0	0	0	512	423	
1	0	0	0	0	512	423	
2	0	0	0	0	513	423	
3	0	0	0	0	513	423	
4	0	0	0	0	513	423	
5	0	0	0	0	514	423	
6	0	0	0	0	515	424	
7	0	0	0	0	514	423	
8	0	0	0	0	514	423	
9	0	0	0	0	514	423	
10	0	0	0	0	513	424	
11	0	0	0	0	514	423	
12	0	0	0	0	514	423	
13	0	0	0	0	514	423	
14	0	0	0	0	514	424	
15	0	0	0	0	513	423	
0	0	0	0	0	513	423	
1	0	0	0	0	512	423	
2	0	0	0	0	512	424	
3	0	0	0	0	511	423	
4	0	0	0	0	511	423	
5	0	0	0	0	510	423	
6	0	0	0	0	509	424	
7	0	0	0	0	509	424	
8	0	0	0	0	510	423	
9	0	0	0	0	510	424	
10	0	0	0	0	511	424	
11	0	0	0	0	511	423	
12	0	0	0	0	511	424	
13	0	0	0	0	511	424	
14	0	0	0	0	511	424	
15	0	0	0	0	511	424	
0	0	0	0	0	511	424	
1	0	0	0	0	511	424	
2	0	0	0	0	511	424	
3	0	0	0	0	511	424	
4	0	0	0	0	512	424	
5	0	0	0	0	511	424	
6	0	0	0	0	512	424	
7	0	0	0	0	512	425	
8	0	0	0	0	513	424	
9	0	0	0	0	513	424	
10	0	0	0	0	513	424	
11	0	0	0	0	513	424	
12	0	0	0	0	513	424	
13	0	0	0	0	513	424	
14	0	0	0	0	513	424	
15	0	0	0	0	512	424	
0	0	0	0	0	512	424	
1	0	0	0	0	512	424	
2	0	0	0	0	512	424	
3	0	0	0	0	512	423	
4	0	0	0	0	512	423	
5	0	0	0	0	513	424	
6	0	0	0	0	513	423	
7	0	0	0	0	513	422	
8	0	0	0	0	512	423	
9	0	0	0	0	513	423	
10	0	0	0	0	513	423	
11	0	0	0	0	512	423	
12	0	0	0	0	513	423	
13	0	0	0	0	513	423	
14	0	0	0	0	513	423	
15	0	0	0	0	513	423	
0	0	0	0	0	513	423	
1	0	0	0	0	513	423	
2	0	0	0	0	513	423	
3	0	0	0	0	513	423	
4	0	0	0	0	513	423	
5	0	0	0	0	513	423	
6	0	0	0	0	513	423	
7	0	0	0	0	513	423	
8	0	0	0	0	512	423	
9	0	0	0	0	512	423	
10	0	0	0	0	511	424	
11	0	0	0	0	511	423	
12	0	0	0	0	511	423	
13	0	0	0	0	511	423	
14	0	0	0	0	511	424	
15	0	0	0	0	512	423	
0	0	0	0	0	512	423	
1	0	0	0	0	511	423	
2	0	0	0	0	511	423	
3	0	0	0	0	511	424	
4	0	0	0	0	512	423	
5	0	0	0	0	512	424	
6	0	0	0	0	511	424	
7	0	0	0	0	510	423	
8	0	0	0	0	510	424	
9	0	0	0	0	510	424	
10	0	0	0	0	510	424	
11	0	0	0	0	510	423	
12	0	0	0	0	510	424	
13	0	0	0	0	510	424	
14	0	0	0	0	510	425	
15	0	0	0	0	510	424	
0	0	0	0	0	510	424	
1	0	0	0	0	510	424	
2	0	0	0	0	511	424	
3	0	0	0	0	510	424	
4	0	0	0	0	510	423	
5	0	0	0	0	510	423	
6	0	0	0	0	508	424	
7	0	0	0	0	507	424	
8	0	0	0	0	505	423	
9	0	0	0	0	503	424	
10	0	0	0	0	502	425	
11	0	0	0	0	499	423	
12	0	0	0	0	497	424	
13	0	0	0	0	495	424	
14	0	0	0	0	492	425	
15	0	0	0	0	492	424	
0	0	0	0	0	492	425	
1	0	0	0	0	492	424	
2	0	0	0	0	492	425	
3	0	0	0	0	491	424	
4	0	0	0	0	492	425	
5	0	0	0	0	492	424	
6	0	0	0	0	494	425	
7	0	0	0	0	496	424	
8	0	0	0	0	500	424	
9	0	0	0	0	505	425	
10	0	0	0	0	509	425	
11	0	0	0	0	514	425	
12	0	0	0	0	519	425	
13	0	0	0	0	526	424	
14	0	0	0	0	534	425	
15	0	0	0	0	542	425	
0	0	0	0	0	550	424	
1	0	0	0	0	558	424	
2	0	0	0	0	565	425	
3	0	0	0	0	574	424	
4	0	0	0	0	582	425	
5	0	0	0	0	590	425	
6	0	0	0	0	597	425	
7	0	0	0	0	601	425	
8	0	0	0	0	603	425	
9	0	0	0	0	605	425	
10	0	0	0	0	606	426	
11	0	0	0	0	607	425	
12	0	0	0	0	606	425	
13	0	0	0	0	603	425	
14	0	0	0	0	600	425	
15	0	0	0	0	596	425	
0	0	0	0	0	592	426	
1	0	0	0	0	588	425	
2	0	0	0	0	584	425	
3	0	0	0	0	583	424	
4	0	0	0	0	580	425	
5	0	0	0	0	577	425	
6	0	0	0	0	573	426	
7	0	0	0	0	569	425	
8	0	0	0	0	566	425	
9	0	0	0	0	561	425	
10	0	0	0	0	557	426	
11	0	0	0	0	552	425	
12	0	0	0	0	547	425	
13	0	0	0	0	543	425	
14	0	0	0	0	539	425	
15	0	0	0	0	535	425	
0	0	0	0	0	531	425	
1	0	0	0	0	527	425	
2	0	0	0	0	523	425	
3	0	0	0	0	518	425	
4	0	0	0	0	514	425	
5	0	0	0	0	512	425	
6	0	0	0	0	509	425	
7	0	0	0	0	506	425	
8	0	0	0	0	504	425	
9	0	0	0	0	501	424	
10	0	0	0	0	500	425	
11	0	0	0	0	499	425	
12	0	0	0	0	497	425	
13	0	0	0	0	496	425	
14	0	0	0	0	496	425	
15	0	0	0	0	495	426	
0	0	0	0	0	494	425	
1	0	0	0	0	492	424	
2	0	0	0	0	491	426	
3	0	0	0	0	491	425	
4	0	0	0	0	490	425	
5	0	0	0	0	489	425	
6	0	0	0	0	489	425	
7	0	0	0	0	489	426	
8	0	0	0	0	488	424	
9	0	0	0	0	487	425	
10	0	0	0	0	487	426	
11	0	0	0	0	487	425	
12	0	0	0	0	487	424	
13	0	0	0	0	487	425	
14	0	0	0	0	486	425	
15	0	0	0	0	485	425	
0	0	0	0	0	485	424	
1	0	0	0	0	486	425	
2	0	0	0	0	487	425	
3	0	0	0	0	487	424	
4	0	0	0	0	488	424	
5	0	0	0	0	488	425	
6	0	0	0	0	488	424	
7	0	0	0	0	489	425	
8	0	0	0	0	489	425	
9	0	0	0	0	490	425	
10	0	0	0	0	490	425	
11	0	0	0	0	490	425	
12	0	0	0	0	490	425	
13	0	0	0	0	490	424	
14	0	0	0	0	491	425	
15	0	0	0	0	491	424	
0	0	0	0	0	491	425	
1	0	0	0	0	491	424	
2	0	0	0	0	491	425	
3	0	0	0	0	491	425	
4	0	0	0	0	491	424	
5	0	0	0	0	492	425	
6	0	0	0	0	491	424	
7	0	0	0	0	491	424	
8	0	0	0	0	491	424	
9	0	0	0	0	490	424	
10	0	0	0	0	490	425	
11	0	0	0	0	490	424	
12	0	0	0	0	490	425	
13	0	0	0	0	490	424	
14	0	0	0	0	490	425	
15	0	0	0	0	491	424	
0	0	0	0	0	491	424	
1	0	0	0	0	491	423	
2	0	0	0	0	492	425	
3	0	0	0	0	492	424	
4	0	0	0	0	493	424	
5	0	0	0	0	493	424	
6	0	0	0	0	494	425	
7	0	0	0	0	495	425	
8	0	0	0	0	495	424	
9	0	0	0	0	495	425	
10	0	0	0	0	495	425	
11	0	0	0	0	495	424	
12	0	0	0	0	494	423	
13	0	0	0	0	495	424	
14	0	0	0	0	495	425	
15	0	0	0	0	495	424	
0	0	0	0	0	495	424	
1	0	0	0	0	496	424	
2	0	0	0	0	496	425	
3	0	0	0	0	495	424	
4	0	0	0	0	496	424	
5	0	0	0	0	496	424	
6	0	0	0	0	496	425	
7	0	0	0	0	496	424	
8	0	0	0	0	496	424	
9	0	0	0	0	496	424	
10	0	0	0	0	496	425	
11	0	0	0	0	497	424	
12	0	0	0	0	497	424	
13	0	0	0	0	498	424	
14	0	0	0	0	498	425	
15	0	0	0	0	498	425	
0	0	0	0	0	498	424	
1	0	0	0	0	499	425	
2	0	0	0	0	499	425	
3	0	0	0	0	499	424	
4	0	0	0	0	499	424	
5	0	0	0	0	499	425	
6	0	0	0	0	499	425	
7	0	0	0	0	499	425	
8	0	0	0	0	499	425	
9	0	0	0	0	499	425	
10	0	0	0	0	498	426	
11	0	0	0	0	498	424	
12	0	0	0	0	498	425	
13	0	0	0	0	499	425	
14	0	0	0	0	499	425	
15	0	0	0	0	499	424	
0	0	0	0	0	499	424	
1	0	0	0	0	499	425	
2	0	0	0	0	499	425	
3	0	0	0	0	499	425	
4	0	0	0	0	499	424	
5	0	0	0	0	499	424	
6	0	0	0	0	499	425	
7	0	0	0	0	499	424	
8	0	0	0	0	500	423	
9	0	0	0	0	500	424	
10	0	0	0	0	500	425	
11	0	0	0	0	500	424	
12	0	0	0	0	501	424	
13	0	0	0	0	501	424	
14	0	0	0	0	502	425	
15	0	0	0	0	502	424	
0	0	0	0	0	502	424	
1	0	0	0	0	503	424	
2	0	0	0	0	503	425	
3	0	0	0	0	502	424	
4	0	0	0	0	501	424	
5	0	0	0	0	502	425	
6	0	0	0	0	501	425	
7	0	0	0	0	501	425	
8	0	0	0	0	501	425	
9	0	0	0	0	501	424	
10	0	0	0	0	500	425	
11	0	0	0	0	500	424	
12	0	0	0	0	500	424	
13	0	0	0	0	500	425	
14	0	0	0	0	501	425	
15	0	0	0	0	501	425	
0	0	0	0	0	502	424	
1	0	0	0	0	502	424	
2	0	0	0	0	503	425	
3	0	0	0	0	503	424	
4	0	0	0	0	503	423	
5	0	0	0	0	503	424	
6	0	0	0	0	503	424	
7	0	0	0	0	504	424	
8	0	0	0	0	504	424	
9	0	0	0	0	504	423	
10	0	0	0	0	505	424	
11	0	0	0	0	505	424	
12	0	0	0	0	506	423	
13	0	0	0	0	507	423	
14	0	0	0	0	506	424	
15	0	0	0	0	506	424	
0	0	0	0	0	507	424	
1	0	0	0	0	508	423	
2	0	0	0	0	508	424	
3	0	0	0	0	508	424	
4	0	0	0	0	509	424	
5	0	0	0	0	509	423	
6	0	0	0	0	509	424	
7	0	0	0	0	509	424	
8	0	0	0	0	510	424	
9	0	0	0	0	510	424	
10	0	0	0	0	510	424	
11	0	0	0	0	511	424	
12	0	0	0	0	510	423	
13	0	0	0	0	511	424	
14	0	0	0	0	511	424	
15	0	0	0	0	511	424	
0	0	0	0	0	511	424	
1	0	0	0	0	511	423	
2	0	0	0	0	512	425	
3	0	0	0	0	512	424	
4	0	0	0	0	512	424	
5	0	0	0	0	512	423	
6	0	0	0	0	512	424	
7	0	0	0	0	513	424	
8	0	0	0	0	513	424	
9	0	0	0	0	514	424	
10	0	0	0	0	514	424	
11	0	0	0	0	513	423	
12	0	0	0	0	513	423	
13	0	0	0	0	513	423	
14	0	0	0	0	513	424	
15	0	0	0	0	513	424	
0	0	0	0	0	512	424	
1	0	0	0	0	513	424	
2	0	0	0	0	513	425	
3	0	0	0	0	514	424	
4	0	0	0	0	514	424	
5	0	0	0	0	514	424	
6	0	0	0	0	515	424	
7	0	0	0	0	515	424	
8	0	0	0	0	515	424	
9	0	0	0	0	515	424	
10	0	0	0	0	515	425	
11	0	0	0	0	516	424	
12	0	0	0	0	516	423	
13	0	0	0	0	515	424	
14	0	0	0	0	515	424	
15	0	0	0	0	516	424	
0	0	0	0	0	516	424	
1	0	0	0	0	516	423	
2	0	0	0	0	516	424	
3	0	0	0	0	516	423	
4	0	0	0	0	516	423	
5	0	0	0	0	515	424	
6	0	0	0	0	515	424	
7	0	0	0	0	516	424	
8	0	0	0	0	516	424	
9	0	0	0	0	516	423	
10	0	0	0	0	515	424	
11	0	0	0	0	515	423	
12	0	0	0	0	515	423	
13	0	0	0	0	515	423	
14	0	0	0	0	515	423	
15	0	0	0	0	516	423	
0	0	0	0	0	515	423	
1	0	0	0	0	515	423	
2	0	0	0	0	515	423	
3	0	0	0	0	515	423	
4	0	0	0	0	516	423	
5	0	0	0	0	516	423	
6	0	0	0	0	516	424	
7	0	0	0	0	516	423	
8	0	0	0	0	517	423	
9	0	0	0	0	516	423	
10	0	0	0	0	516	424	
11	0	0	0	0	516	423	
12	0	0	0	0	517	423	
13	0	0	0	0	516	423	
14	0	0	0	0	516	423	
15	0	0	0	0	515	423	
0	0	0	0	0	516	423	
1	0	0	0	0	516	423	
2	0	0	0	0	516	425	
3	0	0	0	0	516	423	
4	0	0	0	0	515	423	
5	0	0	0	0	515	423	
6	0	0	0	0	515	423	
7	0	0	0	0	515	423	
8	0	0	0	0	515	424	
9	0	0	0	0	514	423	
10	0	0	0	0	514	423	
11	0	0	0	0	514	423	
12	0	0	0	0	515	423	
13	0	0	0	0	515	424	
14	0	0	0	0	515	424	
15	0	0	0	0	515	424	
0	0	0	0	0	515	424	
1	0	0	0	0	514	424	
2	0	0	0	0	514	426	
3	0	0	0	0	514	424	
4	0	0	0	0	514	424	
5	0	0	0	0	513	424	
6	0	0	0	0	513	424	
7	0	0	0	0	512	423	
8	0	0	0	0	512	424	
9	0	0	0	0	512	424	
10	0	0	0	0	512	425	
11	0	0	0	0	512	423	
12	0	0	0	0	512	423	
13	0	0	0	0	511	424	
14	0	0	0	0	511	424	
15	0	0	0	0	510	424	
0	0	0	0	0	510	423	
1	0	0	0	0	510	424	
2	0	0	0	0	509	424	
3	0	0	0	0	509	424	
4	0	0	0	0	508	424	
5	0	0	0	0	509	423	
6	0	0	0	0	509	424	
7	0	0	0	0	509	423	
8	0	0	0	0	509	424	
9	0	0	0	0	508	424	
10	0	0	0	0	507	424	
11	0	0	0	0	506	424	
12	0	0	0	0	505	424	
13	0	0	0	0	506	424	
14	0	0	0	0	505	424	
15	0	0	0	0	505	424	
0	0	0	0	0	505	424	
1	0	0	0	0	505	423	
2	0	0	0	0	506	424	
3	0	0	0	0	506	423	
4	0	0	0	0	507	424	
5	0	0	0	0	508	424	
6	0	0	0	0	508	424	
7	0	0	0	0	508	424	
8	0	0	0	0	507	424	
9	0	0	0	0	506	423	
10	0	0	0	0	505	424	
11	0	0	0	0	505	424	
12	0	0	0	0	505	423	
13	0	0	0	0	505	423	
14	0	0	0	0	505	423	
15	0	0	0	0	506	423	
0	0	0	0	0	506	423	
1	0	0	0	0	506	423	
2	0	0	0	0	507	425	
3	0	0	0	0	507	423	
4	0	0	0	0	508	423	
5	0	0	0	0	507	423	
6	0	0	0	0	507	424	
7	0	0	0	0	506	424	
8	0	0	0	0	505	424	
9	0	0	0	0	505	423	
10	0	0	0	0	505	424	
11	0	0	0	0	504	423	
12	0	0	0	0	504	423	
13	0	0	0	0	504	423	
14	0	0	0	0	504	424	
15	0	0	0	0	504	423	
0	0	0	0	0	503	423	
1	0	0	0	0	503	423	
2	0	0	0	0	503	423	
3	0	0	0	0	503	423	
4	0	0	0	0	503	423	
5	0	0	0	0	503	422	
6	0	0	0	0	503	423	
7	0	0	0	0	503	423	
8	0	0	0	0	503	423	
9	0	0	0	0	503	423	
10	0	0	0	0	503	423	
11	0	0	0	0	503	423	
12	0	0	0	0	503	423	
13	0	0	0	0	504	423	
14	0	0	0	0	504	423	
15	0	0	0	0	503	423	
0	0	0	0	0	503	423	
1	0	0	0	0	503	423	
2	0	0	0	0	504	423	
3	0	0	0	0	503	423	
4	0	0	0	0	503	422	
5	0	0	0	0	503	423	
6	0	0	0	0	503	423	
7	0	0	0	0	503	422	
8	0	0	0	0	503	422	
9	0	0	0	0	503	422	
10	0	0	0	0	503	422	
11	0	0	0	0	503	422	
12	0	0	0	0	503	422	
13	0	0	0	0	503	422	
14	0	0	0	0	503	422	
15	0	0	0	0	503	422	
0	0	0	0	0	503	421	
1	0	0	0	0	503	422	
2	0	0	0	0	503	423	
3	0	0	0	0	503	423	
4	0	0	0	0	503	422	
5	0	0	0	0	503	423	
6	0	0	0	0	503	423	
7	0	0	0	0	503	423	
8	0	0	0	0	504	423	
9	0	0	0	0	504	422	
10	0	0	0	0	504	423	
11	0	0	0	0	505	423	
12	0	0	0	0	505	423	
13	0	0	0	0	506	423	
14	0	0	0	0	507	423	
15	0	0	0	0	507	423	
0	0	0	0	0	507	423	
1	0	0	0	0	508	423	
2	0	0	0	0	508	424	
3	0	0	0	0	508	424	
4	0	0	0	0	508	423	
5	0	0	0	0	508	424	
6	0	0	0	0	508	424	
7	0	0	0	0	507	424	
8	0	0	0	0	507	424	
9	0	0	0	0	507	423	
10	0	0	0	0	507	425	
11	0	0	0	0	507	424	
12	0	0	0	0	508	424	
13	0	0	0	0	508	425	
14	0	0	0	0	508	424	
15	0	0	0	0	509	424	
0	0	0	0	0	509	423	
1	0	0	0	0	510	423	
2	0	0	0	0	510	424	
3	0	0	0	0	510	423	
4	0	0	0	0	510	424	
5	0	0	0	0	510	424	
6	0	0	0	0	510	424	
7	0	0	0	0	510	424	
8	0	0	0	0	510	424	
9	0	0	0	0	510	424	
10	0	0	0	0	510	425	
11	0	0	0	0	510	424	
12	0	0	0	0	509	424	
13	0	0	0	0	509	423	
14	0	0	0	0	510	424	
15	0	0	0	0	510	424	
0	0	0	0	0	509	425	
1	0	0	0	0	509	425	
2	0	0	0	0	509	425	
3	0	0	0	0	509	424	
4	0	0	0	0	509	424	
5	0	0	0	0	509	425	
6	0	0	0	0	510	424	
7	0	0	0	0	509	425	
8	0	0	0	0	510	425	
9	0	0	0	0	510	424	
10	0	0	0	0	510	425	
11	0	0	0	0	510	424	
12	0	0	0	0	511	424	
13	0	0	0	0	511	425	
14	0	0	0	0	511	425	
15	0	0	0	0	510	425	
0	0	0	0	0	510	425	
1	0	0	0	0	511	425	
2	0	0	0	0	511	425	
3	0	0	0	0	511	424	
4	0	0	0	0	510	425	
5	0	0	0	0	510	425	
6	0	0	0	0	509	425	
7	0	0	0	0	509	425	
8	0	0	0	0	508	425	
9	0	0	0	0	509	424	
10	0	0	0	0	509	425	
11	0	0	0	0	508	425	
12	0	0	0	0	508	425	
13	0	0	0	0	508	425	
14	0	0	0	0	509	426	
15	0	0	0	0	509	426	
0	0	0	0	0	508	425	
1	0	0	0	0	509	425	
2	0	0	0	0	509	426	
3	0	0	0	0	509	425	
4	0	0	0	0	509	425	
5	0	0	0	0	509	425	
6	0	0	0	0	509	427	
7	0	0	0	0	509	425	
8	0	0	0	0	509	425	
9	0	0	0	0	510	426	
10	0	0	0	0	510	427	
11	0	0	0	0	510	426	
12	0	0	0	0	511	426	
13	0	0	0	0	511	426	
14	0	0	0	0	510	427	
15	0	0	0	0	510	426	
0	0	0	0	0	510	427	
1	0	0	0	0	511	427	
2	0	0	0	0	511	427	
3	0	0	0	0	512	427	
4	0	0	0	0	512	426	
5	0	0	0	0	512	426	
6	0	0	0	0	511	427	
7	0	0	0	0	511	427	
8	0	0	0	0	512	426	
9	0	0	0	0	511	427	
10	0	0	0	0	512	428	
11	0	0	0	0	512	426	
12	0	0	0	0	512	426	
13	0	0	0	0	512	426	
14	0	0	0	0	512	427	
15	0	0	0	0	512	427	
0	0	0	0	0	512	426	
1	0	0	0	0	512	427	
2	0	0	0	0	512	427	
3	0	0	0	0	513	426	
4	0	0	0	0	513	427	
5	0	0	0	0	513	426	
6	0	0	0	0	512	426	
7	0	0	0	0	511	426	
8	0	0	0	0	511	426	
9	0	0	0	0	510	426	
10	0	0	0	0	511	426	
11	0	0	0	0	511	425	
12	0	0	0	0	511	426	
13	0	0	0	0	511	426	
14	0	0	0	0	511	427	
15	0	0	0	0	511	426	
0	0	0	0	0	511	426	
1	0	0	0	0	511	426	
2	0	0	0	0	511	426	
3	0	0	0	0	511	426	
4	0	0	0	0	510	426	
5	0	0	0	0	510	425	
6	0	0	0	0	511	426	
7	0	0	0	0	510	426	
8	0	0	0	0	511	427	
9	0	0	0	0	510	426	
10	0	0	0	0	510	427	
11	0	0	0	0	510	427	
12	0	0	0	0	510	426	
13	0	0	0	0	510	427	
14	0	0	0	0	510	427	
15	0	0	0	0	509	426	
0	0	0	0	0	510	426	
1	0	0	0	0	509	426	
2	0	0	0	0	509	427	
3	0	0	0	0	509	426	
4	0	0	0	0	509	426	
5	0	0	0	0	510	426	
6	0	0	0	0	510	426	
7	0	0	0	0	510	427	
8	0	0	0	0	511	426	
9	0	0	0	0	511	426	
10	0	0	0	0	512	427	
11	0	0	0	0	512	426	
12	0	0	0	0	513	426	
13	0	0	0	0	513	426	
14	0	0	0	0	513	426	
15	0	0	0	0	514	426	
0	0	0	0	0	513	425	
1	0	0	0	0	513	425	
2	0	0	0	0	512	425	
3	0	0	0	0	512	425	
4	0	0	0	0	512	425	
5	0	0	0	0	511	425	
6	0	0	0	0	511	426	
7	0	0	0	0	511	425	
8	0	0	0	0	511	425	
9	0	0	0	0	512	425	
10	0	0	0	0	512	425	
11	0	0	0	0	512	425	
12	0	0	0	0	512	425	
13	0	0	0	0	513	425	
14	0	0	0	0	513	425	
15	0	0	0	0	513	425	
0	0	0	0	0	512	425	
1	0	0	0	0	512	425	
2	0	0	0	0	512	425	
3	0	0	0	0	511	425	
4	0	0	0	0	512	425	
5	0	0	0	0	512	424	
6	0	0	0	0	513	425	
7	0	0	0	0	513	424	
8	0	0	0	0	514	425	
9	0	0	0	0	513	424	
10	0	0	0	0	513	425	
11	0	0	0	0	513	424	
12	0	0	0	0	513	424	
13	0	0	0	0	512	424	
14	0	0	0	0	512	425	
15	0	0	0	0	512	424	
0	0	0	0	0	512	425	
1	0	0	0	0	512	424	
2	0	0	0	0	512	424	
3	0	0	0	0	512	423	
4	0	0	0	0	512	424	
5	0	0	0	0	512	424	
6	0	0	0	0	512	424	
7	0	0	0	0	511	425	
8	0	0	0	0	512	424	
9	0	0	0	0	512	424	
10	0	0	0	0	512	424	
11	0	0	0	0	512	423	
12	0	0	0	0	512	423	
13	0	0	0	0	511	423	
14	0	0	0	0	511	424	
15	0	0	0	0	512	423	
0	0	0	0	0	512	424	
1	0	0	0	0	512	423	
2	0	0	0	0	512	424	
3	0	0	0	0	512	423	
4	0	0	0	0	512	423	
5	0	0	0	0	512	424	
6	0	0	0	0	512	425	
7	0	0	0	0	511	423	
8	0	0	0	0	511	423	
9	0	0	0	0	512	424	
10	0	0	0	0	512	425	
11	0	0	0	0	512	424	
12	0	0	0	0	513	424	
13	0	0	0	0	513	425	
14	0	0	0	0	513	424	
15	0	0	0	0	513	424	
0	0	0	0	0	514	424	
1	0	0	0	0	514	424	
2	0	0	0	0	514	424	
3	0	0	0	0	514	424	
4	0	0	0	0	514	425	
5	0	0	0	0	514	424	
6	0	0	0	0	513	424	
7	0	0	0	0	513	424	
8	0	0	0	0	513	424	
9	0	0	0	0	512	424	
10	0	0	0	0	512	425	
11	0	0	0	0	512	424	
12	0	0	0	0	512	424	
13	0	0	0	0	511	425	
14	0	0	0	0	511	424	
15	0	0	0	0	511	424	
0	0	0	0	0	510	424	
1	0	0	0	0	511	424	
2	0	0	0	0	511	425	
3	0	0	0	0	511	424	
4	0	0	0	0	511	424	
5	0	0	0	0	511	424	
6	0	0	0	0	511	424	
7	0	0	0	0	510	424	
8	0	0	0	0	510	425	
9	0	0	0	0	511	424	
10	0	0	0	0	511	424	
11	0	0	0	0	511	424	
12	0	0	0	0	511	424	
13	0	0	0	0	511	424	
14	0	0	0	0	511	424	
15	0	0	0	0	511	424	
0	0	0	0	0	511	424	
1	0	0	0	0	511	424	
2	0	0	0	0	512	425	
3	0	0	0	0	512	424	
4	0	0	0	0	512	424	
5	0	0	0	0	513	425	
6	0	0	0	0	512	425	
7	0	0	0	0	512	425	
8	0	0	0	0	512	425	
9	0	0	0	0	511	425	
10	0	0	0	0	509	425	
11	0	0	0	0	509	425	
12	0	0	0	0	508	424	
13	0	0	0	0	509	424	
14	0	0	0	0	509	425	
15	0	0	0	0	509	424	
0	0	0	0	0	509	424	
1	0	0	0	0	509	424	
2	0	0	0	0	510	424	
3	0	0	0	0	511	424	
4	0	0	0	0	511	423	
5	0	0	0	0	512	423	
6	0	0	0	0	512	425	
7	0	0	0	0	512	424	
8	0	0	0	0	512	424	
9	0	0	0	0	512	424	
10	0	0	0	0	513	425	
11	0	0	0	0	513	424	
12	0	0	0	0	514	423	
13	0	0	0	0	513	424	
14	0	0	0	0	513	424	
15	0	0	0	0	513	424	
0	0	0	0	0	512	424	
1	0	0	0	0	513	424	
2	0	0	0	0	514	425	
3	0	0	0	0	513	424	
4	0	0	0	0	513	424	
5	0	0	0	0	513	424	
6	0	0	0	0	513	424	
7	0	0	0	0	513	423	
8	0	0	0	0	513	424	
9	0	0	0	0	513	424	
10	0	0	0	0	514	424	
11	0	0	0	0	514	423	
12	0	0	0	0	513	424	
13	0	0	0	0	512	425	
14	0	0	0	0	512	425	
15	0	0	0	0	512	424	
0	0	0	0	0	512	423	
1	0	0	0	0	512	423	
2	0	0	0	0	512	424	
3	0	0	0	0	512	424	
4	0	0	0	0	511	424	
5	0	0	0	0	512	423	
6	0	0	0	0	512	424	
7	0	0	0	0	512	424	
8	0	0	0	0	512	424	
9	0	0	0	0	512	423	
10	0	0	0	0	513	425	
11	0	0	0	0	512	424	
12	0	0	0	0	512	423	
13	0	0	0	0	511	424	
14	0	0	0	0	511	424	
15	0	0	0	0	511	424	
0	0	0	0	0	510	424	
1	0	0	0	0	510	424	
2	0	0	0	0	510	425	
3	0	0	0	0	510	424	
4	0	0	0	0	509	425	
5	0	0	0	0	510	424	
6	0	0	0	0	510	424	
7	0	0	0	0	510	424	
8	0	0	0	0	511	424	
9	0	0	0	0	511	424	
10	0	0	0	0	511	425	
11	0	0	0	0	511	424	
12	0	0	0	0	511	424	
13	0	0	0	0	510	424	
14	0	0	0	0	511	424	
15	0	0	0	0	511	425	
0	0	0	0	0	511	424	
1	0	0	0	0	511	424	
2	0	0	0	0	512	424	
3	0	0	0	0	512	423	
4	0	0	0	0	512	424	
5	0	0	0	0	512	424	
6	0	0	0	0	512	424	
7	0	0	0	0	513	423	
8	0	0	0	0	513	424	
9	0	0	0	0	513	424	
10	0	0	0	0	513	425	
11	0	0	0	0	513	424	
12	0	0	0	0	513	424	
13	0	0	0	0	513	424	
14	0	0	0	0	513	424	
15	0	0	0	0	514	424	
0	0	0	0	0	514	424	
1	0	0	0	0	514	424	
2	0	0	0	0	515	424	
3	0	0	0	0	515	423	
4	0	0	0	0	516	423	
5	0	0	0	0	515	423	
6	0	0	0	0	515	423	
7	0	0	0	0	515	423	
8	0	0	0	0	515	423	
9	0	0	0	0	515	424	
10	0	0	0	0	515	424	
11	0	0	0	0	515	423	
12	0	0	0	0	515	423	
13	0	0	0	0	514	424	
14	0	0	0	0	513	424	
15	0	0	0	0	514	424	
0	0	0	0	0	514	424	
1	0	0	0	0	515	425	
2	0	0	0	0	515	425	
3	0	0	0	0	515	425	
4	0	0	0	0	514	425	
5	0	0	0	0	515	425	
6	0	0	0	0	515	425	
7	0	0	0	0	515	424	
8	0	0	0	0	515	425	
9	0	0	0	0	515	425	
10	0	0	0	0	515	425	
11	0	0	0	0	515	425	
12	0	0	0	0	516	425	
13	0	0	0	0	516	425	
14	0	0	0	0	515	424	
15	0	0	0	0	515	424	
0	0	0	0	0	516	424	
1	0	0	0	0	515	424	
2	0	0	0	0	515	425	
3	0	0	0	0	515	425	
4	0	0	0	0	514	425	
5	0	0	0	0	514	424	
6	0	0	0	0	514	425	
7	0	0	0	0	513	424	
8	0	0	0	0	513	424	
9	0	0	0	0	513	424	
10	0	0	0	0	513	425	
11	0	0	0	0	512	425	
12	0	0	0	0	512	424	
13	0	0	0	0	513	424	
14	0	0	0	0	512	425	
15	0	0	0	0	512	424	
0	0	0	0	0	512	424	
1	0	0	0	0	513	424	
2	0	0	0	0	513	425	
3	0	0	0	0	514	424	
4	0	0	0	0	514	424	
5	0	0	0	0	513	424	
6	0	0	0	0	513	425	
7	0	0	0	0	513	423	
8	0	0	0	0	513	424	
9	0	0	0	0	513	424	
10	0	0	0	0	512	425	
11	0	0	0	0	512	424	
12	0	0	0	0	513	424	
13	0	0	0	0	512	424	
14	0	0	0	0	512	425	
15	0	0	0	0	511	424	
0	0	0	0	0	511	425	
1	0	0	0	0	512	425	
2	0	0	0	0	511	425	
3	0	0	0	0	511	425	
4	0	0	0	0	511	425	
5	0	0	0	0	511	424	
6	0	0	0	0	511	425	
7	0	0	0	0	511	425	
8	0	0	0	0	511	425	
9	0	0	0	0	511	424	
10	0	0	0	0	511	425	
11	0	0	0	0	511	424	
12	0	0	0	0	511	424	
13	0	0	0	0	510	425	
14	0	0	0	0	509	424	
15	0	0	0	0	508	425	
0	0	0	0	0	508	425	
1	0	0	0	0	508	425	
2	0	0	0	0	508	425	
3	0	0	0	0	509	424	
4	0	0	0	0	509	424	
5	0	0	0	0	509	424	
6	0	0	0	0	509	424	
7	0	0	0	0	510	424	
8	0	0	0	0	510	424	
9	0	0	0	0	511	424	
10	0	0	0	0	511	425	
11	0	0	0	0	511	425	
12	0	0	0	0	511	424	
13	0	0	0	0	511	424	
14	0	0	0	0	511	424	
15	0	0	0	0	511	424	
0	0	0	0	0	511	423	
1	0	0	0	0	511	424	
2	0	0	0	0	511	424	
3	0	0	0	0	511	424	
4	0	0	0	0	510	423	
5	0	0	0	0	509	425	
6	0	0	0	0	509	425	
7	0	0	0	0	509	424	
8	0	0	0	0	510	425	
9	0	0	0	0	510	424	
10	0	0	0	0	510	425	
11	0	0	0	0	510	424	
12	0	0	0	0	510	424	
13	0	0	0	0	510	425	
14	0	0	0	0	511	425	
15	0	0	0	0	511	424	
0	0	0	0	0	511	424	
1	0	0	0	0	511	424	
2	0	0	0	0	511	425	
3	0	0	0	0	510	424	
4	0	0	0	0	510	424	
5	0	0	0	0	509	425	
6	0	0	0	0	508	424	
7	0	0	0	0	508	424	
8	0	0	0	0	506	424	
9	0	0	0	0	505	425	
10	0	0	0	0	503	425	
11	0	0	0	0	502	425	
12	0	0	0	0	500	425	
13	0	0	0	0	497	424	
14	0	0	0	0	495	425	
15	0	0	0	0	493	425	
0	0	0	0	0	492	424	
1	0	0	0	0	491	425	
2	0	0	0	0	491	425	
3	0	0	0	0	491	425	
4	0	0	0	0	491	425	
5	0	0	0	0	491	425	
6	0	0	0	0	491	424	
7	0	0	0	0	492	424	
8	0	0	0	0	493	425	
9	0	0	0	0	496	424	
10	0	0	0	0	499	425	
11	0	0	0	0	502	424	
12	0	0	0	0	508	424	
13	0	0	0	0	513	424	
14	0	0	0	0	519	425	
15	0	0	0	0	526	424	
0	0	0	0	0	534	424	
1	0	0	0	0	542	424	
2	0	0	0	0	549	424	
3	0	0	0	0	557	424	
4	0	0	0	0	565	424	
5	0	0	0	0	574	424	
6	0	0	0	0	583	425	
7	0	0	0	0	590	425	
8	0	0	0	0	595	424	
9	0	0	0	0	598	424	
10	0	0	0	0	601	425	
11	0	0	0	0	602	424	
12	0	0	0	0	603	424	
13	0	0	0	0	603	424	
14	0	0	0	0	601	424	
15	0	0	0	0	599	425	
0	0	0	0	0	596	424	
1	0	0	0	0	592	424	
2	0	0	0	0	588	425	
3	0	0	0	0	583	424	
4	0	0	0	0	579	424	
5	0	0	0	0	575	425	
6	0	0	0	0	574	425	
7	0	0	0	0	570	424	
8	0	0	0	0	566	424	
9	0	0	0	0	562	424	
10	0	0	0	0	558	425	
11	0	0	0	0	553	424	
12	0	0	0	0	548	424	
13	0	0	0	0	543	424	
14	0	0	0	0	539	424	
15	0	0	0	0	536	424	
0	0	0	0	0	532	424	
1	0	0	0	0	528	424	
2	0	0	0	0	525	425	
3	0	0	0	0	521	424	
4	0	0	0	0	518	425	
5	0	0	0	0	515	425	
6	0	0	0	0	512	425	
7	0	0	0	0	510	425	
8	0	0	0	0	508	425	
9	0	0	0	0	506	425	
10	0	0	0	0	503	425	
11	0	0	0	0	501	425	
12	0	0	0	0	499	424	
13	0	0	0	0	498	425	
14	0	0	0	0	497	425	
15	0	0	0	0	496	424	
0	0	0	0	0	495	424	
1	0	0	0	0	493	424	
2	0	0	0	0	492	424	
3	0	0	0	0	491	423	
4	0	0	0	0	491	424	
5	0	0	0	0	491	424	
6	0	0	0	0	490	424	
7	0	0	0	0	489	424	
8	0	0	0	0	489	424	
9	0	0	0	0	489	424	
10	0	0	0	0	489	425	
11	0	0	0	0	488	424	
12	0	0	0	0	488	425	
13	0	0	0	0	488	423	
14	0	0	0	0	488	425	
15	0	0	0	0	488	424	
0	0	0	0	0	487	424	
1	0	0	0	0	487	424	
2	0	0	0	0	487	425	
3	0	0	0	0	487	424	
4	0	0	0	0	487	425	
5	0	0	0	0	487	424	
6	0	0	0	0	488	425	
7	0	0	0	0	488	424	
8	0	0	0	0	488	423	
9	0	0	0	0	489	424	
10	0	0	0	0	488	425	
11	0	0	0	0	489	425	
12	0	0	0	0	489	425	
13	0	0	0	0	490	424	
14	0	0	0	0	490	425	
15	0	0	0	0	491	424	
0	0	0	0	0	490	424	
1	0	0	0	0	490	424	
2	0	0	0	0	490	425	
3	0	0	0	0	491	424	
4	0	0	0	0	491	424	
5	0	0	0	0	491	424	
6	0	0	0	0	491	424	
7	0	0	0	0	491	424	
8	0	0	0	0	491	424	
9	0	0	0	0	491	424	
10	0	0	0	0	491	425	
11	0	0	0	0	492	424	
12	0	0	0	0	492	425	
13	0	0	0	0	491	424	
14	0	0	0	0	491	424	
15	0	0	0	0	492	424	
0	0	0	0	0	492	423	
1	0	0	0	0	491	424	
2	0	0	0	0	492	425	
3	0	0	0	0	492	424	
4	0	0	0	0	492	424	
5	0	0	0	0	492	425	
6	0	0	0	0	492	425	
7	0	0	0	0	492	424	
8	0	0	0	0	492	425	
9	0	0	0	0	492	425	
10	0	0	0	0	492	425	
11	0	0	0	0	493	425	
12	0	0	0	0	493	424	
13	0	0	0	0	494	424	
14	0	0	0	0	494	424	
15	0	0	0	0	495	425	
0	0	0	0	0	495	424	
1	0	0	0	0	495	425	
2	0	0	0	0	496	425	
3	0	0	0	0	496	424	
4	0	0	0	0	496	424	
5	0	0	0	0	496	425	
6	0	0	0	0	497	425	
7	0	0	0	0	497	425	
8	0	0	0	0	497	425	
9	0	0	0	0	497	425	
10	0	0	0	0	497	426	
11	0	0	0	0	497	425	
12	0	0	0	0	496	425	
13	0	0	0	0	497	425	
14	0	0	0	0	498	426	
15	0	0	0	0	497	426	
0	0	0	0	0	498	425	
1	0	0	0	0	498	425	
2	0	0	0	0	497	426	
3	0	0	0	0	497	425	
4	0	0	0	0	496	425	
5	0	0	0	0	496	426	
6	0	0	0	0	496	426	
7	0	0	0	0	497	425	
8	0	0	0	0	497	425	
9	0	0	0	0	498	425	
10	0	0	0	0	498	426	
11	0	0	0	0	498	425	
12	0	0	0	0	498	425	
13	0	0	0	0	499	424	
14	0	0	0	0	499	425	
15	0	0	0	0	499	425	
0	0	0	0	0	499	425	
1	0	0	0	0	499	425	
2	0	0	0	0	498	426	
3	0	0	0	0	499	425	
4	0	0	0	0	498	426	
5	0	0	0	0	499	426	
6	0	0	0	0	498	425	
7	0	0	0	0	497	426	
8	0	0	0	0	497	426	
9	0	0	0	0	497	425	
10	0	0	0	0	497	426	
11	0	0	0	0	497	425	
12	0	0	0	0	498	425	
13	0	0	0	0	498	425	
14	0	0	0	0	499	425	
15	0	0	0	0	499	425	
0	0	0	0	0	499	425	
1	0	0	0	0	500	425	
2	0	0	0	0	500	425	
3	0	0	0	0	500	425	
4	0	0	0	0	500	425	
5	0	0	0	0	500	424	
6	0	0	0	0	500	425	
7	0	0	0	0	501	424	
8	0	0	0	0	502	424	
9	0	0	0	0	501	424	
10	0	0	0	0	502	425	
11	0	0	0	0	502	424	
12	0	0	0	0	502	424	
13	0	0	0	0	502	425	
14	0	0	0	0	502	425	
15	0	0	0	0	503	425	
0	0	0	0	0	502	424	
1	0	0	0	0	502	424	
2	0	0	0	0	502	425	
3	0	0	0	0	502	425	
4	0	0	0	0	502	424	
5	0	0	0	0	503	424	
6	0	0	0	0	503	425	
7	0	0	0	0	504	424	
8	0	0	0	0	504	424	
9	0	0	0	0	505	424	
10	0	0	0	0	505	424	
11	0	0	0	0	506	424	
12	0	0	0	0	506	424	
13	0	0	0	0	506	424	
14	0	0	0	0	506	425	
15	0	0	0	0	506	424	
0	0	0	0	0	506	423	
1	0	0	0	0	506	424	
2	0	0	0	0	506	424	
3	0	0	0	0	507	425	
4	0	0	0	0	508	424	
5	0	0	0	0	509	424	
6	0	0	0	0	509	424	
7	0	0	0	0	509	424	
8	0	0	0	0	509	424	
9	0	0	0	0	509	424	
10	0	0	0	0	509	425	
11	0	0	0	0	510	424	
12	0	0	0	0	510	425	
13	0	0	0	0	509	424	
14	0	0	0	0	508	424	
15	0	0	0	0	508	424	
0	0	0	0	0	508	424	
1	0	0	0	0	508	424	
2	0	0	0	0	508	425	
3	0	0	0	0	509	424	
4	0	0	0	0	510	424	
5	0	0	0	0	509	424	
6	0	0	0	0	510	424	
7	0	0	0	0	511	424	
8	0	0	0	0	511	424	
9	0	0	0	0	511	424	
10	0	0	0	0	512	424	
11	0	0	0	0	512	424	
12	0	0	0	0	512	424	
13	0	0	0	0	513	424	
14	0	0	0	0	513	424	
15	0	0	0	0	513	424	
0	0	0	0	0	513	424	
1	0	0	0	0	513	423	
2	0	0	0	0	514	425	
3	0	0	0	0	514	424	
4	0	0	0	0	514	425	
5	0	0	0	0	515	425	
6	0	0	0	0	515	424	
7	0	0	0	0	515	424	
8	0	0	0	0	516	424	
9	0	0	0	0	516	424	
10	0	0	0	0	515	424	
11	0	0	0	0	515	424	
12	0	0	0	0	515	423	
13	0	0	0	0	514	424	
14	0	0	0	0	515	424	
15	0	0	0	0	515	423	
0	0	0	0	0	515	423	
1	0	0	0	0	515	423	
2	0	0	0	0	515	423	
3	0	0	0	0	516	423	
4	0	0	0	0	516	423	
5	0	0	0	0	517	423	
6	0	0	0	0	517	423	
7	0	0	0	0	517	423	
8	0	0	0	0	517	423	
9	0	0	0	0	517	422	
10	0	0	0	0	517	423	
11	0	0	0	0	518	423	
12	0	0	0	0	518	423	
13	0	0	0	0	518	423	
14	0	0	0	0	517	423	
15	0	0	0	0	518	423	
0	0	0	0	0	517	423	
1	0	0	0	0	516	423	
2	0	0	0	0	516	423	
3	0	0	0	0	515	423	
4	0	0	0	0	515	423	
5	0	0	0	0	515	423	
6	0	0	0	0	515	423	
7	0	0	0	0	514	423	
8	0	0	0	0	513	423	
9	0	0	0	0	513	423	
10	0	0	0	0	512	423	
11	0	0	0	0	512	423	
12	0	0	0	0	512	423	
13	0	0	0	0	512	423	
14	0	0	0	0	512	423	
15	0	0	0	0	512	423	
0	0	0	0	0	512	423	
1	0	0	0	0	512	423	
2	0	0	0	0	512	424	
3	0	0	0	0	512	423	
4	0	0	0	0	512	423	
5	0	0	0	0	512	423	
6	0	0	0	0	512	423	
7	0	0	0	0	512	423	
8	0	0	0	0	512	423	
9	0	0	0	0	511	423	
10	0	0	0	0	511	423	
11	0	0	0	0	511	423	
12	0	0	0	0	511	423	
13	0	0	0	0	512	423	
14	0	0	0	0	511	423	
15	0	0	0	0	511	424	
0	0	0	0	0	511	423	
1	0	0	0	0	511	424	
2	0	0	0	0	511	424	
3	0	0	0	0	510	424	
4	0	0	0	0	510	424	
5	0	0	0	0	510	423	
6	0	0	0	0	509	424	
7	0	0	0	0	509	425	
8	0	0	0	0	508	424	
9	0	0	0	0	509	423	
10	0	0	0	0	510	424	
11	0	0	0	0	510	424	
12	0	0	0	0	510	424	
13	0	0	0	0	509	424	
14	0	0	0	0	509	424	
15	0	0	0	0	509	424	
0	0	0	0	0	509	424	
1	0	0	0	0	509	424	
2	0	0	0	0	508	425	
3	0	0	0	0	508	425	
4	0	0	0	0	508	425	
5	0	0	0	0	508	424	
6	0	0	0	0	508	424	
7	0	0	0	0	507	424	
8	0	0	0	0	507	425	
9	0	0	0	0	506	424	
10	0	0	0	0	506	425	
11	0	0	0	0	506	425	
12	0	0	0	0	506	425	
13	0	0	0	0	506	424	
14	0	0	0	0	506	424	
15	0	0	0	0	505	424	
0	0	0	0	0	505	424	
1	0	0	0	0	504	424	
2	0	0	0	0	505	424	
3	0	0	0	0	504	424	
4	0	0	0	0	504	424	
5	0	0	0	0	504	424	
6	0	0	0	0	504	424	
7	0	0	0	0	504	424	
8	0	0	0	0	504	424	
9	0	0	0	0	504	424	
10	0	0	0	0	503	425	
11	0	0	0	0	503	424	
12	0	0	0	0	503	423	
13	0	0	0	0	502	424	
14	0	0	0	0	501	425	
15	0	0	0	0	500	423	
0	0	0	0	0	500	424	
1	0	0	0	0	499	424	
2	0	0	0	0	499	425	
3	0	0	0	0	499	425	
4	0	0	0	0	499	424	
5	0	0	0	0	499	424	
6	0	0	0	0	499	425	
7	0	0	0	0	500	424	
8	0	0	0	0	500	424	
9	0	0	0	0	499	424	
10	0	0	0	0	499	425	
11	0	0	0	0	500	425	
12	0	0	0	0	499	425	
13	0	0	0	0	499	425	
14	0	0	0	0	500	425	
15	0	0	0	0	499	425	
0	0	0	0	0	499	425	
1	0	0	0	0	499	424	
2	0	0	0	0	499	426	
3	0	0	0	0	499	425	
4	0	0	0	0	500	424	
5	0	0	0	0	499	426	
6	0	0	0	0	499	425	
7	0	0	0	0	498	425	
8	0	0	0	0	498	425	
9	0	0	0	0	498	426	
10	0	0	0	0	499	426	
11	0	0	0	0	499	425	
12	0	0	0	0	499	425	
13	0	0	0	0	499	426	
14	0	0	0	0	499	426	
15	0	0	0	0	499	426	
0	0	0	0	0	499	426	
1	0	0	0	0	499	425	
2	0	0	0	0	499	426	
3	0	0	0	0	500	425	
4	0	0	0	0	500	424	
5	0	0	0	0	500	425	
6	0	0	0	0	500	425	
7	0	0	0	0	501	425	
8	0	0	0	0	501	425	
9	0	0	0	0	502	425	
10	0	0	0	0	501	425	
11	0	0	0	0	501	425	
12	0	0	0	0	502	426	
13	0	0	0	0	501	426	
14	0	0	0	0	501	426	
15	0	0	0	0	500	425	
0	0	0	0	0	500	425	
1	0	0	0	0	501	425	
2	0	0	0	0	500	426	
3	0	0	0	0	499	426	
4	0	0	0	0	499	425	
5	0	0	0	0	500	425	
6	0	0	0	0	500	426	
7	0	0	0	0	500	425	
8	0	0	0	0	500	425	
9	0	0	0	0	501	425	
10	0	0	0	0	501	426	
11	0	0	0	0	500	425	
12	0	0	0	0	501	425	
13	0	0	0	0	501	425	
14	0	0	0	0	502	425	
15	0	0	0	0	502	425	
0	0	0	0	0	502	425	
1	0	0	0	0	502	425	
2	0	0	0	0	502	426	
3	0	0	0	0	502	425	
4	0	0	0	0	502	424	
5	0	0	0	0	502	426	
6	0	0	0	0	501	425	
7	0	0	0	0	501	425	
8	0	0	0	0	502	425	
9	0	0	0	0	502	424	
10	0	0	0	0	503	425	
11	0	0	0	0	503	424	
12	0	0	0	0	503	424	
13	0	0	0	0	504	425	
14	0	0	0	0	503	425	
15	0	0	0	0	503	425	
0	0	0	0	0	503	425	
1	0	0	0	0	504	425	
2	0	0	0	0	504	425	
3	0	0	0	0	505	424	
4	0	0	0	0	506	425	
5	0	0	0	0	505	425	
6	0	0	0	0	505	425	
7	0	0	0	0	505	424	
8	0	0	0	0	504	425	
9	0	0	0	0	504	425	
10	0	0	0	0	504	425	
11	0	0	0	0	504	424	
12	0	0	0	0	504	424	
13	0	0	0	0	504	423	
14	0	0	0	0	504	425	
15	0	0	0	0	504	424	
0	0	0	0	0	505	423	
1	0	0	0	0	505	423	
2	0	0	0	0	505	424	
3	0	0	0	0	506	425	
4	0	0	0	0	507	424	
5	0	0	0	0	508	423	
6	0	0	0	0	509	425	
7	0	0	0	0	509	424	
8	0	0	0	0	509	424	
9	0	0	0	0	509	424	
10	0	0	0	0	509	425	
11	0	0	0	0	509	424	
12	0	0	0	0	509	424	
13	0	0	0	0	508	424	
14	0	0	0	0	508	424	
15	0	0	0	0	507	424	
0	0	0	0	0	507	424	
1	0	0	0	0	507	424	
2	0	0	0	0	508	425	
3	0	0	0	0	508	424	
4	0	0	0	0	508	424	
5	0	0	0	0	508	424	
6	0	0	0	0	508	424	
7	0	0	0	0	509	424	
8	0	0	0	0	509	423	
9	0	0	0	0	508	423	
10	0	0	0	0	508	425	
11	0	0	0	0	508	424	
12	0	0	0	0	508	424	
13	0	0	0	0	508	424	
14	0	0	0	0	508	424	
15	0	0	0	0	507	424	
0	0	0	0	0	506	424	
1	0	0	0	0	506	424	
2	0	0	0	0	506	425	
3	0	0	0	0	506	424	
4	0	0	0	0	507	424	
5	0	0	0	0	507	425	
6	0	0	0	0	508	425	
7	0	0	0	0	508	424	
8	0	0	0	0	508	425	
9	0	0	0	0	509	424	
10	0	0	0	0	510	424	
11	0	0	0	0	510	423	
12	0	0	0	0	510	424	
13	0	0	0	0	510	424	
14	0	0	0	0	511	424	
15	0	0	0	0	511	423	
0	0	0	0	0	511	423	
1	0	0	0	0	511	423	
2	0	0	0	0	511	424	
3	0	0	0	0	511	424	
4	0	0	0	0	511	423	
5	0	0	0	0	510	423	
6	0	0	0	0	510	424	
7	0	0	0	0	510	423	
8	0	0	0	0	510	423	
9	0	0	0	0	510	423	
10	0	0	0	0	509	425	
11	0	0	0	0	509	423	
12	0	0	0	0	509	424	
13	0	0	0	0	509	424	
14	0	0	0	0	509	424	
15	0	0	0	0	509	423	
0	0	0	0	0	509	423	
1	0	0	0	0	509	423	
2	0	0	0	0	508	424	
3	0	0	0	0	508	423	
4	0	0	0	0	509	423	
5	0	0	0	0	508	423	
6	0	0	0	0	508	423	
7	0	0	0	0	507	423	
8	0	0	0	0	507	423	
9	0	0	0	0	508	423	
10	0	0	0	0	507	424	
11	0	0	0	0	508	423	
12	0	0	0	0	508	423	
13	0	0	0	0	508	423	
14	0	0	0	0	508	423	
15	0	0	0	0	508	423	
0	0	0	0	0	508	423	
1	0	0	0	0	508	423	
2	0	0	0	0	509	424	
3	0	0	0	0	509	423	
4	0	0	0	0	508	423	
5	0	0	0	0	508	423	
6	0	0	0	0	507	424	
7	0	0	0	0	507	424	
8	0	0	0	0	507	424	
9	0	0	0	0	506	425	
10	0	0	0	0	506	425	
11	0	0	0	0	507	424	
12	0	0	0	0	507	424	
13	0	0	0	0	508	424	
14	0	0	0	0	508	424	
15	0	0	0	0	509	424	
0	0	0	0	0	509	424	
1	0	0	0	0	510	424	
2	0	0	0	0	509	425	
3	0	0	0	0	509	424	
4	0	0	0	0	510	423	
5	0	0	0	0	510	424	
6	0	0	0	0	510	424	
7	0	0	0	0	510	424	
8	0	0	0	0	509	424	
9	0	0	0	0	509	424	
10	0	0	0	0	508	424	
11	0	0	0	0	508	424	
12	0	0	0	0	508	424	
13	0	0	0	0	508	424	
14	0	0	0	0	508	424	
15	0	0	0	0	508	423	
0	0	0	0	0	508	424	
1	0	0	0	0	508	425	
2	0	0	0	0	508	425	
3	0	0	0	0	508	425	
4	0	0	0	0	508	425	
5	0	0	0	0	508	424	
6	0	0	0	0	509	425	
7	0	0	0	0	509	425	
8	0	0	0	0	508	425	
9	0	0	0	0	508	424	
10	0	0	0	0	508	425	
11	0	0	0	0	508	425	
12	0	0	0	0	508	425	
13	0	0	0	0	508	425	
14	0	0	0	0	508	425	
15	0	0	0	0	507	424	
0	0	0	0	0	507	424	
1	0	0	0	0	506	425	
2	0	0	0	0	507	425	
3	0	0	0	0	506	425	
4	0	0	0	0	507	425	
5	0	0	0	0	507	424	
6	0	0	0	0	508	425	
7	0	0	0	0	508	424	
8	0	0	0	0	508	424	
9	0	0	0	0	508	425	
10	0	0	0	0	509	426	
11	0	0	0	0	509	425	
12	0	0	0	0	509	425	
13	0	0	0	0	509	425	
14	0	0	0	0	509	425	
15	0	0	0	0	508	424	
0	0	0	0	0	508	425	
1	0	0	0	0	508	425	
2	0	0	0	0	508	426	
3	0	0	0	0	509	425	
4	0	0	0	0	509	425	
5	0	0	0	0	510	425	
6	0	0	0	0	510	426	
7	0	0	0	0	510	426	
8	0	0	0	0	510	425	
9	0	0	0	0	510	425	
10	0	0	0	0	509	425	
11	0	0	0	0	509	424	
12	0	0	0	0	509	425	
13	0	0	0	0	508	425	
14	0	0	0	0	508	426	
15	0	0	0	0	507	425	
0	0	0	0	0	507	425	
1	0	0	0	0	508	425	
2	0	0	0	0	508	425	
3	0	0	0	0	509	426	
4	0	0	0	0	509	425	
5	0	0	0	0	509	425	
6	0	0	0	0	510	425	
7	0	0	0	0	510	425	
8	0	0	0	0	509	425	
9	0	0	0	0	510	425	
10	0	0	0	0	509	426	
11	0	0	0	0	508	424	
12	0	0	0	0	508	425	
13	0	0	0	0	508	425	
14	0	0	0	0	508	425	
15	0	0	0	0	508	425	
0	0	0	0	0	508	425	
1	0	0	0	0	509	425	
2	0	0	0	0	509	426	
3	0	0	0	0	509	425	
4	0	0	0	0	509	425	
5	0	0	0	0	509	425	
6	0	0	0	0	509	425	
7	0	0	0	0	509	425	
8	0	0	0	0	509	425	
9	0	0	0	0	510	424	
10	0	0	0	0	509	425	
11	0	0	0	0	509	425	
12	0	0	0	0	509	425	
13	0	0	0	0	509	425	
14	0	0	0	0	509	425	
15	0	0	0	0	508	424	
0	0	0	0	0	508	424	
1	0	0	0	0	508	425	
2	0	0	0	0	508	425	
3	0	0	0	0	509	424	
4	0	0	0	0	509	425	
5	0	0	0	0	509	424	
6	0	0	0	0	509	425	
7	0	0	0	0	510	424	
8	0	0	0	0	509	425	
9	0	0	0	0	510	425	
10	0	0	0	0	509	426	
11	0	0	0	0	509	425	
12	0	0	0	0	510	425	
13	0	0	0	0	509	424	
14	0	0	0	0	509	425	
15	0	0	0	0	509	424	
0	0	0	0	0	509	424	
1	0	0	0	0	509	424	
2	0	0	0	0	510	426	
3	0	0	0	0	510	425	
4	0	0	0	0	511	425	
5	0	0	0	0	511	425	
6	0	0	0	0	511	425	
7	0	0	0	0	511	424	
8	0	0	0	0	511	424	
9	0	0	0	0	511	424	
10	0	0	0	0	511	424	
11	0	0	0	0	511	424	
12	0	0	0	0	511	424	
13	0	0	0	0	511	424	
14	0	0	0	0	511	425	
15	0	0	0	0	511	425	
0	0	0	0	0	510	424	
1	0	0	0	0	510	424	
2	0	0	0	0	510	425	
3	0	0	0	0	510	424	
4	0	0	0	0	510	424	
5	0	0	0	0	509	424	
6	0	0	0	0	508	424	
7	0	0	0	0	509	424	
8	0	0	0	0	508	424	
9	0	0	0	0	508	424	
10	0	0	0	0	508	425	
11	0	0	0	0	508	424	
12	0	0	0	0	508	424	
13	0	0	0	0	508	424	
14	0	0	0	0	508	424	
15	0	0	0	0	508	423	
0	0	0	0	0	508	424	
1	0	0	0	0	508	424	
2	0	0	0	0	509	425	
3	0	0	0	0	509	425	
4	0	0	0	0	510	424	
5	0	0	0	0	510	424	
6	0	0	0	0	510	424	
7	0	0	0	0	510	424	
8	0	0	0	0	510	424	
9	0	0	0	0	509	424	
10	0	0	0	0	509	425	
11	0	0	0	0	508	424	
12	0	0	0	0	508	424	
13	0	0	0	0	507	424	
14	0	0	0	0	507	425	
15	0	0	0	0	507	425	
0	0	0	0	0	507	424	
1	0	0	0	0	508	424	
2	0	0	0	0	508	425	
3	0	0	0	0	509	423	
4	0	0	0	0	509	424	
5	0	0	0	0	508	424	
6	0	0	0	0	509	424	
7	0	0	0	0	509	424	
8	0	0	0	0	510	424	
9	0	0	0	0	510	425	
10	0	0	0	0	510	425	
11	0	0	0	0	510	425	
12	0	0	0	0	511	424	
13	0	0	0	0	510	424	
14	0	0	0	0	509	425	
15	0	0	0	0	509	424	
0	0	0	0	0	510	425	
1	0	0	0	0	509	424	
2	0	0	0	0	510	425	
3	0	0	0	0	509	425	
4	0	0	0	0	509	424	
5	0	0	0	0	509	424	
6	0	0	0	0	509	424	
7	0	0	0	0	509	424	
8	0	0	0	0	509	423	
9	0	0	0	0	508	424	
10	0	0	0	0	508	425	
11	0	0	0	0	507	424	
12	0	0	0	0	507	424	
13	0	0	0	0	508	424	
14	0	0	0	0	508	424	
15	0	0	0	0	509	424	
0	0	0	0	0	509	425	
1	0	0	0	0	509	425	
2	0	0	0	0	510	425	
3	0	0	0	0	510	424	
4	0	0	0	0	510	424	
5	0	0	0	0	510	425	
6	0	0	0	0	510	425	
7	0	0	0	0	510	424	
8	0	0	0	0	510	424	
9	0	0	0	0	510	424	
10	0	0	0	0	510	425	
11	0	0	0	0	510	424	
12	0	0	0	0	510	424	
13	0	0	0	0	510	424	
14	0	0	0	0	511	425	
15	0	0	0	0	511	425	
0	0	0	0	0	511	424	
1	0	0	0	0	511	424	
2	0	0	0	0	511	425	
3	0	0	0	0	512	425	
4	0	0	0	0	512	425	
5	0	0	0	0	513	425	
6	0	0	0	0	512	425	
7	0	0	0	0	512	426	
8	0	0	0	0	512	425	
9	0	0	0	0	512	425	
10	0	0	0	0	512	425	
11	0	0	0	0	512	424	
12	0	0	0	0	511	424	
13	0	0	0	0	511	425	
14	0	0	0	0	511	425	
15	0	0	0	0	512	424	
0	0	0	0	0	512	425	
1	0	0	0	0	512	425	
2	0	0	0	0	513	426	
3	0	0	0	0	513	425	
4	0	0	0	0	513	425	
5	0	0	0	0	513	425	
6	0	0	0	0	513	425	
7	0	0	0	0	513	425	
8	0	0	0	0	513	425	
9	0	0	0	0	512	425	
10	0	0	0	0	512	425	
11	0	0	0	0	511	424	
12	0	0	0	0	511	425	
13	0	0	0	0	512	425	
14	0	0	0	0	512	424	
15	0	0	0	0	512	425	
0	0	0	0	0	512	424	
1	0	0	0	0	511	424	
2	0	0	0	0	511	425	
3	0	0	0	0	511	425	
4	0	0	0	0	511	424	
5	0	0	0	0	509	425	
6	0	0	0	0	509	425	
7	0	0	0	0	509	425	
8	0	0	0	0	509	424	
9	0	0	0	0	509	425	
10	0	0	0	0	509	426	
11	0	0	0	0	508	425	
12	0	0	0	0	508	425	
13	0	0	0	0	508	426	
14	0	0	0	0	508	425	
15	0	0	0	0	507	425	
0	0	0	0	0	507	425	
1	0	0	0	0	507	425	
2	0	0	0	0	507	426	
3	0	0	0	0	507	425	
4	0	0	0	0	507	425	
5	0	0	0	0	508	425	
6	0	0	0	0	509	425	
7	0	0	0	0	510	425	
8	0	0	0	0	511	425	
9	0	0	0	0	511	425	
10	0	0	0	0	511	426	
11	0	0	0	0	511	425	
12	0	0	0	0	512	425	
13	0	0	0	0	512	425	
14	0	0	0	0	512	425	
15	0	0	0	0	512	425	
0	0	0	0	0	512	425	
1	0	0	0	0	511	424	
2	0	0	0	0	511	425	
3	0	0	0	0	511	425	
4	0	0	0	0	511	425	
5	0	0	0	0	511	425	
6	0	0	0	0	510	425	
7	0	0	0	0	510	425	
8	0	0	0	0	510	425	
9	0	0	0	0	509	424	
10	0	0	0	0	509	425	
11	0	0	0	0	508	424	
12	0	0	0	0	509	425	
13	0	0	0	0	509	425	
14	0	0	0	0	509	425	
15	0	0	0	0	510	424	
0	0	0	0	0	510	424	
1	0	0	0	0	510	424	
2	0	0	0	0	510	425	
3	0	0	0	0	510	424	
4	0	0	0	0	510	424	
5	0	0	0	0	510	424	
6	0	0	0	0	510	425	
7	0	0	0	0	510	425	
8	0	0	0	0	510	425	
9	0	0	0	0	510	425	
10	0	0	0	0	511	425	
11	0	0	0	0	511	424	
12	0	0	0	0	511	424	
13	0	0	0	0	511	424	
14	0	0	0	0	511	425	
15	0	0	0	0	511	424	
0	0	0	0	0	511	424	
1	0	0	0	0	511	423	
2	0	0	0	0	511	424	
3	0	0	0	0	511	423	
4	0	0	0	0	511	424	
5	0	0	0	0	510	423	
6	0	0	0	0	511	424	
7	0	0	0	0	511	424	
8	0	0	0	0	511	424	
9	0	0	0	0	511	423	
10	0	0	0	0	511	424	
11	0	0	0	0	511	424	
12	0	0	0	0	511	424	
13	0	0	0	0	512	424	
14	0	0	0	0	511	425	
15	0	0	0	0	510	424	
0	0	0	0	0	509	424	
1	0	0	0	0	508	423	
2	0	0	0	0	508	425	
3	0	0	0	0	508	424	
4	0	0	0	0	508	423	
5	0	0	0	0	508	424	
6	0	0	0	0	508	424	
7	0	0	0	0	508	424	
8	0	0	0	0	508	424	
9	0	0	0	0	507	424	
10	0	0	0	0	506	425	
11	0	0	0	0	505	424	
12	0	0	0	0	504	424	
13	0	0	0	0	503	423	
14	0	0	0	0	500	424	
15	0	0	0	0	498	423	
0	0	0	0	0	495	424	
1	0	0	0	0	493	424	
2	0	0	0	0	491	424	
3	0	0	0	0	489	423	
4	0	0	0	0	489	424	
5	0	0	0	0	489	424	
6	0	0	0	0	488	424	
7	0	0	0	0	488	424	
8	0	0	0	0	487	423	
9	0	0	0	0	487	423	
10	0	0	0	0	488	424	
11	0	0	0	0	489	424	
12	0	0	0	0	492	424	
13	0	0	0	0	496	424	
14	0	0	0	0	500	424	
15	0	0	0	0	504	424	
0	0	0	0	0	510	424	
1	0	0	0	0	515	424	
2	0	0	0	0	523	425	
3	0	0	0	0	531	424	
4	0	0	0	0	541	424	
5	0	0	0	0	550	424	
6	0	0	0	0	560	424	
7	0	0	0	0	569	424	
8	0	0	0	0	579	424	
9	0	0	0	0	588	424	
10	0	0	0	0	596	425	
11	0	0	0	0	604	424	
12	0	0	0	0	609	423	
13	0	0	0	0	612	424	
14	0	0	0	0	615	424	
15	0	0	0	0	616	424	
0	0	0	0	0	617	424	
1	0	0	0	0	616	425	
2	0	0	0	0	615	425	
3	0	0	0	0	611	424	
4	0	0	0	0	607	425	
5	0	0	0	0	603	424	
6	0	0	0	0	599	425	
7	0	0	0	0	594	425	
8	0	0	0	0	591	424	
9	0	0	0	0	588	424	
10	0	0	0	0	585	425	
11	0	0	0	0	581	425	
12	0	0	0	0	577	425	
13	0	0	0	0	572	424	
14	0	0	0	0	568	425	
15	0	0	0	0	562	425	
0	0	0	0	0	557	424	
1	0	0	0	0	551	424	
2	0	0	0	0	547	424	
3	0	0	0	0	542	424	
4	0	0	0	0	538	423	
5	0	0	0	0	534	424	
6	0	0	0	0	530	425	
7	0	0	0	0	526	424	
8	0	0	0	0	522	425	
9	0	0	0	0	518	425	
10	0	0	0	0	514	425	
11	0	0	0	0	511	425	
12	0	0	0	0	507	424	
13	0	0	0	0	504	424	
14	0	0	0	0	501	425	
15	0	0	0	0	499	425	
0	0	0	0	0	496	425	
1	0	0	0	0	495	425	
2	0	0	0	0	494	425	
3	0	0	0	0	493	425	
4	0	0	0	0	492	424	
5	0	0	0	0	491	424	
6	0	0	0	0	489	425	
7	0	0	0	0	487	425	
8	0	0	0	0	486	423	
9	0	0	0	0	486	424	
10	0	0	0	0	485	425	
11	0	0	0	0	484	424	
12	0	0	0	0	484	424	
13	0	0	0	0	484	424	
14	0	0	0	0	485	424	
15	0	0	0	0	485	424	
0	0	0	0	0	485	425	
1	0	0	0	0	485	424	
2	0	0	0	0	485	425	
3	0	0	0	0	485	424	
4	0	0	0	0	486	424	
5	0	0	0	0	486	424	
6	0	0	0	0	486	425	
7	0	0	0	0	485	424	
8	0	0	0	0	485	424	
9	0	0	0	0	486	425	
10	0	0	0	0	486	425	
11	0	0	0	0	486	424	
12	0	0	0	0	487	425	
13	0	0	0	0	487	425	
14	0	0	0	0	487	425	
15	0	0	0	0	487	424	
0	0	0	0	0	486	425	
1	0	0	0	0	485	425	
2	0	0	0	0	485	426	
3	0	0	0	0	485	425	
4	0	0	0	0	486	425	
5	0	0	0	0	485	425	
6	0	0	0	0	486	426	
7	0	0	0	0	486	425	
8	0	0	0	0	486	426	
9	0	0	0	0	487	425	
10	0	0	0	0	487	426	
11	0	0	0	0	488	425	
12	0	0	0	0	487	425	
13	0	0	0	0	487	425	
14	0	0	0	0	487	426	
15	0	0	0	0	487	425	
0	0	0	0	0	487	424	
1	0	0	0	0	487	424	
2	0	0	0	0	488	425	
3	0	0	0	0	488	424	
4	0	0	0	0	489	424	
5	0	0	0	0	490	425	
6	0	0	0	0	491	425	
7	0	0	0	0	490	424	
8	0	0	0	0	491	425	
9	0	0	0	0	491	424	
10	0	0	0	0	491	425	
11	0	0	0	0	491	425	
12	0	0	0	0	492	425	
13	0	0	0	0	491	425	
14	0	0	0	0	491	426	
15	0	0	0	0	492	426	
0	0	0	0	0	492	425	
1	0	0	0	0	492	424	
2	0	0	0	0	493	426	
3	0	0	0	0	494	426	
4	0	0	0	0	494	425	
5	0	0	0	0	494	425	
6	0	0	0	0	495	425	
7	0	0	0	0	495	424	
8	0	0	0	0	496	425	
9	0	0	0	0	496	425	
10	0	0	0	0	495	426	
11	0	0	0	0	495	425	
12	0	0	0	0	493	426	
13	0	0	0	0	493	425	
14	0	0	0	0	493	427	
15	0	0	0	0	493	426	
0	0	0	0	0	493	425	
1	0	0	0	0	494	425	
2	0	0	0	0	495	427	
3	0	0	0	0	495	426	
4	0	0	0	0	496	425	
5	0	0	0	0	496	425	
6	0	0	0	0	497	425	
7	0	0	0	0	497	425	
8	0	0	0	0	497	425	
9	0	0	0	0	498	425	
10	0	0	0	0	498	425	
11	0	0	0	0	498	424	
12	0	0	0	0	498	425	
13	0	0	0	0	498	425	
14	0	0	0	0	498	426	
15	0	0	0	0	499	425	
0	0	0	0	0	499	425	
1	0	0	0	0	499	425	
2	0	0	0	0	498	425	
3	0	0	0	0	497	425	
4	0	0	0	0	496	425	
5	0	0	0	0	496	424	
6	0	0	0	0	496	425	
7	0	0	0	0	496	425	
8	0	0	0	0	496	425	
9	0	0	0	0	496	424	
10	0	0	0	0	496	425	
11	0	0	0	0	497	425	
12	0	0	0	0	497	425	
13	0	0	0	0	497	425	
14	0	0	0	0	497	425	
15	0	0	0	0	498	425	
0	0	0	0	0	498	424	
1	0	0	0	0	499	425	
2	0	0	0	0	499	425	
3	0	0	0	0	499	424	
4	0	0	0	0	498	425	
5	0	0	0	0	499	425	
6	0	0	0	0	499	425	
7	0	0	0	0	500	424	
8	0	0	0	0	500	425	
9	0	0	0	0	500	425	
10	0	0	0	0	500	425	
11	0	0	0	0	500	424	
12	0	0	0	0	500	424	
13	0	0	0	0	500	424	
14	0	0	0	0	501	424	
15	0	0	0	0	502	424	
0	0	0	0	0	501	424	
1	0	0	0	0	501	423	
2	0	0	0	0	501	424	
3	0	0	0	0	502	424	
4	0	0	0	0	502	424	
5	0	0	0	0	503	424	
6	0	0	0	0	503	424	
7	0	0	0	0	502	424	
8	0	0	0	0	502	423	
9	0	0	0	0	502	424	
10	0	0	0	0	503	423	
11	0	0	0	0	503	423	
12	0	0	0	0	503	423	
13	0	0	0	0	504	423	
14	0	0	0	0	504	423	
15	0	0	0	0	504	423	
0	0	0	0	0	504	423	
1	0	0	0	0	504	423	
2	0	0	0	0	505	424	
3	0	0	0	0	505	424	
4	0	0	0	0	506	423	
5	0	0	0	0	507	423	
6	0	0	0	0	507	424	
7	0	0	0	0	507	423	
8	0	0	0	0	508	423	
9	0	0	0	0	508	423	
10	0	0	0	0	508	424	
11	0	0	0	0	507	424	
12	0	0	0	0	508	424	
13	0	0	0	0	508	424	
14	0	0	0	0	508	423	
15	0	0	0	0	508	423	
0	0	0	0	0	509	424	
1	0	0	0	0	509	423	
2	0	0	0	0	509	424	
3	0	0	0	0	509	424	
4	0	0	0	0	509	424	
5	0	0	0	0	509	423	
6	0	0	0	0	509	423	
7	0	0	0	0	509	424	
8	0	0	0	0	509	423	
9	0	0	0	0	510	424	
10	0	0	0	0	510	425	
11	0	0	0	0	511	423	
12	0	0	0	0	511	424	
13	0	0	0	0	512	423	
14	0	0	0	0	512	423	
15	0	0	0	0	512	424	
0	0	0	0	0	513	424	
1	0	0	0	0	513	424	
2	0	0	0	0	513	425	
3	0	0	0	0	512	424	
4	0	0	0	0	512	425	
5	0	0	0	0	512	424	
6	0	0	0	0	513	424	
7	0	0	0	0	512	424	
8	0	0	0	0	513	424	
9	0	0	0	0	513	424	
10	0	0	0	0	514	425	
11	0	0	0	0	514	424	
12	0	0	0	0	514	423	
13	0	0	0	0	514	424	
14	0	0	0	0	515	425	
15	0	0	0	0	515	424	
0	0	0	0	0	515	424	
1	0	0	0	0	515	424	
2	0	0	0	0	515	424	
3	0	0	0	0	515	424	
4	0	0	0	0	515	424	
5	0	0	0	0	515	424	
6	0	0	0	0	516	424	
7	0	0	0	0	516	424	
8	0	0	0	0	516	424	
9	0	0	0	0	516	425	
10	0	0	0	0	516	425	
11	0	0	0	0	516	424	
12	0	0	0	0	518	424	
13	0	0	0	0	518	424	
14	0	0	0	0	518	425	
15	0	0	0	0	518	424	
0	0	0	0	0	518	425	
1	0	0	0	0	518	425	
2	0	0	0	0	518	424	
3	0	0	0	0	519	424	
4	0	0	0	0	518	424	
5	0	0	0	0	518	424	
6	0	0	0	0	519	424	
7	0	0	0	0	519	423	
8	0	0	0	0	519	424	
9	0	0	0	0	518	424	
10	0	0	0	0	518	426	
11	0	0	0	0	518	425	
12	0	0	0	0	518	424	
13	0	0	0	0	518	424	
14	0	0	0	0	518	425	
15	0	0	0	0	517	425	
0	0	0	0	0	517	424	
1	0	0	0	0	517	425	
2	0	0	0	0	517	425	
3	0	0	0	0	517	425	
4	0	0	0	0	516	424	
5	0	0	0	0	516	425	
6	0	0	0	0	515	425	
7	0	0	0	0	516	424	
8	0	0	0	0	515	425	
9	0	0	0	0	515	425	
10	0	0	0	0	515	426	
11	0	0	0	0	515	425	
12	0	0	0	0	514	424	
13	0	0	0	0	514	425	
14	0	0	0	0	513	425	
15	0	0	0	0	514	425	
0	0	0	0	0	514	426	
1	0	0	0	0	514	425	
2	0	0	0	0	515	426	
3	0	0	0	0	515	425	
4	0	0	0	0	515	425	
5	0	0	0	0	514	425	
6	0	0	0	0	514	424	
7	0	0	0	0	515	425	
8	0	0	0	0	515	425	
9	0	0	0	0	515	425	
10	0	0	0	0	515	425	
11	0	0	0	0	516	425	
12	0	0	0	0	516	425	
13	0	0	0	0	516	425	
14	0	0	0	0	515	425	
15	0	0	0	0	515	424	
0	0	0	0	0	514	425	
1	0	0	0	0	512	425	
2	0	0	0	0	512	425	
3	0	0	0	0	512	425	
4	0	0	0	0	511	425	
5	0	0	0	0	511	425	
6	0	0	0	0	511	425	
7	0	0	0	0	511	425	
8	0	0	0	0	511	425	
9	0	0	0	0	511	425	
10	0	0	0	0	511	425	
11	0	0	0	0	511	425	
12	0	0	0	0	511	425	
13	0	0	0	0	511	425	
14	0	0	0	0	511	425	
15	0	0	0	0	510	425	
0	0	0	0	0	509	425	
1	0	0	0	0	508	425	
2	0	0	0	0	508	426	
3	0	0	0	0	507	425	
4	0	0	0	0	507	425	
5	0	0	0	0	506	425	
6	0	0	0	0	505	425	
7	0	0	0	0	504	425	
8	0	0	0	0	503	425	
9	0	0	0	0	503	425	
10	0	0	0	0	502	426	
11	0	0	0	0	502	425	
12	0	0	0	0	502	425	
13	0	0	0	0	502	425	
14	0	0	0	0	502	425	
15	0	0	0	0	503	425	
0	0	0	0	0	503	425	
1	0	0	0	0	503	424	
2	0	0	0	0	503	425	
3	0	0	0	0	502	425	
4	0	0	0	0	502	425	
5	0	0	0	0	501	425	
6	0	0	0	0	501	425	
7	0	0	0	0	502	425	
8	0	0	0	0	502	425	
9	0	0	0	0	503	425	
10	0	0	0	0	504	426	
11	0	0	0	0	504	425	
12	0	0	0	0	504	424	
13	0	0	0	0	504	424	
14	0	0	0	0	504	425	
15	0	0	0	0	503	425	
0	0	0	0	0	503	425	
1	0	0	0	0	503	424	
2	0	0	0	0	503	424	
3	0	0	0	0	503	424	
4	0	0	0	0	503	424	
5	0	0	0	0	503	424	
6	0	0	0	0	503	425	
7	0	0	0	0	503	424	
8	0	0	0	0	504	424	
9	0	0	0	0	503	424	
10	0	0	0	0	503	425	
11	0	0	0	0	503	424	
12	0	0	0	0	503	424	
13	0	0	0	0	503	424	
14	0	0	0	0	502	425	
15	0	0	0	0	503	424	
0	0	0	0	0	503	424	
1	0	0	0	0	502	423	
2	0	0	0	0	502	425	
3	0	0	0	0	502	423	
4	0	0	0	0	503	424	
5	0	0	0	0	503	424	
6	0	0	0	0	503	424	
7	0	0	0	0	504	423	
8	0	0	0	0	504	423	
9	0	0	0	0	504	424	
10	0	0	0	0	504	425	
11	0	0	0	0	505	424	
12	0	0	0	0	506	424	
13	0	0	0	0	506	425	
14	0	0	0	0	506	425	
15	0	0	0	0	506	424	
0	0	0	0	0	507	424	
1	0	0	0	0	507	424	
2	0	0	0	0	508	424	
3	0	0	0	0	508	424	
4	0	0	0	0	508	424	
5	0	0	0	0	507	424	
6	0	0	0	0	507	424	
7	0	0	0	0	506	424	
8	0	0	0	0	506	424	
9	0	0	0	0	506	423	
10	0	0	0	0	507	424	
11	0	0	0	0	507	424	
12	0	0	0	0	507	424	
13	0	0	0	0	507	424	
14	0	0	0	0	507	424	
15	0	0	0	0	508	423	
0	0	0	0	0	508	423	
1	0	0	0	0	508	424	
2	0	0	0	0	508	424	
3	0	0	0	0	507	424	
4	0	0	0	0	507	424	
5	0	0	0	0	507	424	
6	0	0	0	0	507	425	
7	0	0	0	0	508	424	
8	0	0	0	0	507	424	
9	0	0	0	0	507	424	
10	0	0	0	0	507	426	
11	0	0	0	0	507	425	
12	0	0	0	0	506	425	
13	0	0	0	0	506	425	
14	0	0	0	0	505	425	
15	0	0	0	0	505	425	
0	0	0	0	0	506	424	
1	0	0	0	0	507	425	
2	0	0	0	0	507	425	
3	0	0	0	0	507	424	
