# OpenSignals Text File Format. Version 1
# {"98:D3:91:FD:69:48": {"position": 0, "device": "bitalino_rev", "device name": "98:D3:91:FD:69:48", "device connection": "BTH98:D3:91:FD:69:48", "sampling rate": 1000, "resolution": [4, 1, 1, 1, 1, 10, 10], "firmware version": 1281, "comments": "", "keywords": "", "mode": 0, "sync interval": 2, "date": "2021-9-19", "time": "15:59:6.758", "channels": [2, 5], "sensor": ["RAW", "RAW"], "label": ["A2", "A5"], "column": ["nSeq", "I1", "I2", "O1", "O2", "A2", "A5"], "special": [{}, {}], "digital IO": [0, 0, 1, 1], "convertedValues": 0}}
# EndOfHeader
0	0	0	0	0	511	409	
1	0	0	0	0	509	410	
2	0	0	0	0	507	411	
3	0	0	0	0	506	410	
4	0	0	0	0	504	410	
5	0	0	0	0	504	410	
6	0	0	0	0	502	410	
7	0	0	0	0	500	410	
8	0	0	0	0	498	410	
9	0	0	0	0	496	410	
10	0	0	0	0	495	411	
11	0	0	0	0	492	411	
12	0	0	0	0	491	411	
13	0	0	0	0	489	410	
14	0	0	0	0	487	411	
15	0	0	0	0	486	411	
0	0	0	0	0	483	410	
1	0	0	0	0	482	410	
2	0	0	0	0	480	412	
3	0	0	0	0	478	411	
4	0	0	0	0	478	411	
5	0	0	0	0	477	411	
6	0	0	0	0	476	411	
7	0	0	0	0	475	410	
8	0	0	0	0	474	409	
9	0	0	0	0	473	410	
10	0	0	0	0	472	411	
11	0	0	0	0	471	409	
12	0	0	0	0	470	409	
13	0	0	0	0	468	409	
14	0	0	0	0	467	409	
15	0	0	0	0	465	409	
0	0	0	0	0	464	409	
1	0	0	0	0	462	409	
2	0	0	0	0	462	410	
3	0	0	0	0	462	409	
4	0	0	0	0	461	409	
5	0	0	0	0	461	409	
6	0	0	0	0	460	410	
7	0	0	0	0	460	409	
8	0	0	0	0	459	410	
9	0	0	0	0	459	409	
10	0	0	0	0	459	409	
11	0	0	0	0	459	409	
12	0	0	0	0	458	409	
13	0	0	0	0	459	410	
14	0	0	0	0	459	409	
15	0	0	0	0	459	409	
0	0	0	0	0	459	408	
1	0	0	0	0	458	408	
2	0	0	0	0	457	410	
3	0	0	0	0	456	409	
4	0	0	0	0	455	409	
5	0	0	0	0	455	408	
6	0	0	0	0	454	409	
7	0	0	0	0	454	408	
8	0	0	0	0	453	408	
9	0	0	0	0	452	408	
10	0	0	0	0	452	409	
11	0	0	0	0	452	408	
12	0	0	0	0	451	408	
13	0	0	0	0	451	408	
14	0	0	0	0	451	409	
15	0	0	0	0	451	408	
0	0	0	0	0	451	409	
1	0	0	0	0	450	409	
2	0	0	0	0	450	409	
3	0	0	0	0	450	408	
4	0	0	0	0	450	409	
5	0	0	0	0	450	408	
6	0	0	0	0	450	409	
7	0	0	0	0	450	408	
8	0	0	0	0	449	409	
9	0	0	0	0	449	409	
10	0	0	0	0	449	409	
11	0	0	0	0	448	409	
12	0	0	0	0	447	409	
13	0	0	0	0	446	409	
14	0	0	0	0	445	409	
15	0	0	0	0	445	409	
0	0	0	0	0	445	409	
1	0	0	0	0	445	408	
2	0	0	0	0	446	410	
3	0	0	0	0	446	409	
4	0	0	0	0	446	409	
5	0	0	0	0	447	409	
6	0	0	0	0	447	409	
7	0	0	0	0	447	409	
8	0	0	0	0	447	409	
9	0	0	0	0	447	409	
10	0	0	0	0	447	410	
11	0	0	0	0	447	410	
12	0	0	0	0	446	410	
13	0	0	0	0	445	410	
14	0	0	0	0	444	410	
15	0	0	0	0	444	411	
0	0	0	0	0	444	411	
1	0	0	0	0	443	411	
2	0	0	0	0	443	411	
3	0	0	0	0	442	411	
4	0	0	0	0	441	411	
5	0	0	0	0	441	412	
6	0	0	0	0	440	412	
7	0	0	0	0	441	411	
8	0	0	0	0	440	411	
9	0	0	0	0	440	411	
10	0	0	0	0	440	412	
11	0	0	0	0	440	411	
12	0	0	0	0	440	411	
13	0	0	0	0	439	411	
14	0	0	0	0	439	412	
15	0	0	0	0	438	411	
0	0	0	0	0	437	412	
1	0	0	0	0	436	411	
2	0	0	0	0	435	412	
3	0	0	0	0	434	412	
4	0	0	0	0	433	412	
5	0	0	0	0	432	412	
6	0	0	0	0	431	412	
7	0	0	0	0	431	411	
8	0	0	0	0	430	412	
9	0	0	0	0	430	412	
10	0	0	0	0	429	412	
11	0	0	0	0	430	412	
12	0	0	0	0	429	411	
13	0	0	0	0	430	411	
14	0	0	0	0	430	412	
15	0	0	0	0	430	411	
0	0	0	0	0	429	411	
1	0	0	0	0	429	411	
2	0	0	0	0	428	412	
3	0	0	0	0	428	411	
4	0	0	0	0	427	411	
5	0	0	0	0	427	411	
6	0	0	0	0	426	411	
7	0	0	0	0	425	411	
8	0	0	0	0	424	409	
9	0	0	0	0	424	409	
10	0	0	0	0	423	411	
11	0	0	0	0	422	410	
12	0	0	0	0	422	410	
13	0	0	0	0	422	409	
14	0	0	0	0	422	410	
15	0	0	0	0	422	410	
0	0	0	0	0	423	410	
1	0	0	0	0	424	409	
2	0	0	0	0	424	410	
3	0	0	0	0	425	409	
4	0	0	0	0	425	409	
5	0	0	0	0	425	409	
6	0	0	0	0	426	410	
7	0	0	0	0	426	409	
8	0	0	0	0	426	409	
9	0	0	0	0	427	409	
10	0	0	0	0	428	410	
11	0	0	0	0	428	409	
12	0	0	0	0	429	409	
13	0	0	0	0	430	409	
14	0	0	0	0	431	409	
15	0	0	0	0	432	409	
0	0	0	0	0	432	409	
1	0	0	0	0	433	409	
2	0	0	0	0	435	411	
3	0	0	0	0	436	409	
4	0	0	0	0	438	409	
5	0	0	0	0	439	409	
6	0	0	0	0	440	409	
7	0	0	0	0	442	409	
8	0	0	0	0	443	409	
9	0	0	0	0	444	409	
10	0	0	0	0	445	411	
11	0	0	0	0	444	409	
12	0	0	0	0	444	409	
13	0	0	0	0	444	409	
14	0	0	0	0	444	410	
15	0	0	0	0	444	410	
0	0	0	0	0	443	410	
1	0	0	0	0	443	410	
2	0	0	0	0	443	410	
3	0	0	0	0	442	410	
4	0	0	0	0	442	410	
5	0	0	0	0	441	409	
6	0	0	0	0	441	410	
7	0	0	0	0	440	409	
8	0	0	0	0	440	410	
9	0	0	0	0	440	409	
10	0	0	0	0	439	410	
11	0	0	0	0	438	410	
12	0	0	0	0	438	411	
13	0	0	0	0	437	410	
14	0	0	0	0	436	410	
15	0	0	0	0	435	410	
0	0	0	0	0	434	410	
1	0	0	0	0	432	409	
2	0	0	0	0	431	411	
3	0	0	0	0	430	411	
4	0	0	0	0	429	411	
5	0	0	0	0	429	410	
6	0	0	0	0	428	411	
7	0	0	0	0	428	411	
8	0	0	0	0	427	411	
9	0	0	0	0	427	411	
10	0	0	0	0	428	412	
11	0	0	0	0	427	410	
12	0	0	0	0	426	411	
13	0	0	0	0	426	411	
14	0	0	0	0	426	411	
15	0	0	0	0	426	410	
0	0	0	0	0	425	411	
1	0	0	0	0	424	410	
2	0	0	0	0	423	411	
3	0	0	0	0	423	410	
4	0	0	0	0	423	410	
5	0	0	0	0	422	410	
6	0	0	0	0	421	409	
7	0	0	0	0	420	409	
8	0	0	0	0	418	409	
9	0	0	0	0	418	409	
10	0	0	0	0	417	410	
11	0	0	0	0	416	409	
12	0	0	0	0	415	409	
13	0	0	0	0	415	409	
14	0	0	0	0	415	410	
15	0	0	0	0	415	410	
0	0	0	0	0	414	410	
1	0	0	0	0	414	410	
2	0	0	0	0	414	411	
3	0	0	0	0	414	410	
4	0	0	0	0	414	410	
5	0	0	0	0	413	410	
6	0	0	0	0	414	409	
7	0	0	0	0	413	410	
8	0	0	0	0	412	410	
9	0	0	0	0	413	409	
10	0	0	0	0	413	410	
11	0	0	0	0	412	409	
12	0	0	0	0	412	409	
13	0	0	0	0	412	409	
14	0	0	0	0	412	409	
15	0	0	0	0	412	409	
0	0	0	0	0	412	410	
1	0	0	0	0	412	409	
2	0	0	0	0	413	410	
3	0	0	0	0	414	409	
4	0	0	0	0	415	409	
5	0	0	0	0	417	409	
6	0	0	0	0	417	409	
7	0	0	0	0	419	409	
8	0	0	0	0	419	409	
9	0	0	0	0	419	409	
10	0	0	0	0	420	410	
11	0	0	0	0	420	408	
12	0	0	0	0	421	409	
13	0	0	0	0	422	409	
14	0	0	0	0	422	410	
15	0	0	0	0	422	409	
0	0	0	0	0	423	409	
1	0	0	0	0	423	409	
2	0	0	0	0	423	410	
3	0	0	0	0	424	410	
4	0	0	0	0	425	409	
5	0	0	0	0	427	409	
6	0	0	0	0	428	409	
7	0	0	0	0	429	410	
8	0	0	0	0	429	409	
9	0	0	0	0	430	410	
10	0	0	0	0	430	410	
11	0	0	0	0	429	410	
12	0	0	0	0	428	410	
13	0	0	0	0	427	410	
14	0	0	0	0	425	409	
15	0	0	0	0	423	409	
0	0	0	0	0	422	410	
1	0	0	0	0	420	409	
2	0	0	0	0	419	410	
3	0	0	0	0	417	410	
4	0	0	0	0	417	410	
5	0	0	0	0	416	410	
6	0	0	0	0	415	410	
7	0	0	0	0	415	410	
8	0	0	0	0	417	412	
9	0	0	0	0	419	411	
10	0	0	0	0	421	411	
11	0	0	0	0	424	411	
12	0	0	0	0	428	409	
13	0	0	0	0	434	409	
14	0	0	0	0	440	410	
15	0	0	0	0	448	409	
0	0	0	0	0	456	409	
1	0	0	0	0	465	409	
2	0	0	0	0	474	411	
3	0	0	0	0	485	409	
4	0	0	0	0	496	410	
5	0	0	0	0	508	410	
6	0	0	0	0	519	410	
7	0	0	0	0	530	410	
8	0	0	0	0	540	410	
9	0	0	0	0	549	410	
10	0	0	0	0	559	411	
11	0	0	0	0	568	410	
12	0	0	0	0	578	410	
13	0	0	0	0	588	409	
14	0	0	0	0	595	411	
15	0	0	0	0	603	410	
0	0	0	0	0	609	410	
1	0	0	0	0	615	410	
2	0	0	0	0	620	411	
3	0	0	0	0	623	410	
4	0	0	0	0	624	410	
5	0	0	0	0	622	409	
6	0	0	0	0	618	410	
7	0	0	0	0	609	409	
8	0	0	0	0	596	411	
9	0	0	0	0	579	410	
10	0	0	0	0	564	411	
11	0	0	0	0	553	410	
12	0	0	0	0	543	410	
13	0	0	0	0	536	409	
14	0	0	0	0	530	409	
15	0	0	0	0	524	409	
0	0	0	0	0	519	410	
1	0	0	0	0	515	409	
2	0	0	0	0	511	410	
3	0	0	0	0	507	410	
4	0	0	0	0	504	410	
5	0	0	0	0	502	410	
6	0	0	0	0	499	410	
7	0	0	0	0	496	409	
8	0	0	0	0	495	410	
9	0	0	0	0	492	410	
10	0	0	0	0	491	411	
11	0	0	0	0	489	410	
12	0	0	0	0	487	410	
13	0	0	0	0	485	410	
14	0	0	0	0	482	410	
15	0	0	0	0	480	409	
0	0	0	0	0	478	410	
1	0	0	0	0	475	409	
2	0	0	0	0	474	411	
3	0	0	0	0	473	410	
4	0	0	0	0	473	411	
5	0	0	0	0	473	411	
6	0	0	0	0	473	411	
7	0	0	0	0	473	410	
8	0	0	0	0	473	410	
9	0	0	0	0	474	411	
10	0	0	0	0	475	411	
11	0	0	0	0	475	410	
12	0	0	0	0	476	410	
13	0	0	0	0	476	410	
14	0	0	0	0	477	410	
15	0	0	0	0	477	410	
0	0	0	0	0	477	410	
1	0	0	0	0	477	411	
2	0	0	0	0	478	411	
3	0	0	0	0	479	410	
4	0	0	0	0	480	411	
5	0	0	0	0	481	411	
6	0	0	0	0	481	411	
7	0	0	0	0	483	411	
8	0	0	0	0	484	410	
9	0	0	0	0	486	411	
10	0	0	0	0	488	412	
11	0	0	0	0	490	411	
12	0	0	0	0	491	411	
13	0	0	0	0	493	411	
14	0	0	0	0	495	411	
15	0	0	0	0	497	411	
0	0	0	0	0	499	411	
1	0	0	0	0	501	411	
2	0	0	0	0	502	412	
3	0	0	0	0	503	410	
4	0	0	0	0	504	411	
5	0	0	0	0	505	411	
6	0	0	0	0	506	411	
7	0	0	0	0	507	411	
8	0	0	0	0	508	411	
9	0	0	0	0	509	410	
10	0	0	0	0	511	411	
11	0	0	0	0	512	410	
12	0	0	0	0	512	410	
13	0	0	0	0	513	409	
14	0	0	0	0	515	410	
15	0	0	0	0	515	409	
0	0	0	0	0	516	409	
1	0	0	0	0	518	410	
2	0	0	0	0	518	410	
3	0	0	0	0	519	409	
4	0	0	0	0	520	410	
5	0	0	0	0	521	409	
6	0	0	0	0	522	410	
7	0	0	0	0	522	409	
8	0	0	0	0	523	410	
9	0	0	0	0	523	409	
10	0	0	0	0	523	410	
11	0	0	0	0	523	410	
12	0	0	0	0	523	410	
13	0	0	0	0	523	410	
14	0	0	0	0	524	410	
15	0	0	0	0	524	410	
0	0	0	0	0	526	410	
1	0	0	0	0	527	410	
2	0	0	0	0	528	411	
3	0	0	0	0	530	411	
4	0	0	0	0	531	410	
5	0	0	0	0	532	411	
6	0	0	0	0	533	410	
7	0	0	0	0	535	410	
8	0	0	0	0	536	410	
9	0	0	0	0	537	410	
10	0	0	0	0	539	411	
11	0	0	0	0	540	410	
12	0	0	0	0	540	410	
13	0	0	0	0	541	411	
14	0	0	0	0	542	411	
15	0	0	0	0	542	411	
0	0	0	0	0	542	410	
1	0	0	0	0	542	411	
2	0	0	0	0	542	412	
3	0	0	0	0	542	411	
4	0	0	0	0	542	411	
5	0	0	0	0	543	411	
6	0	0	0	0	544	411	
7	0	0	0	0	544	411	
8	0	0	0	0	545	411	
9	0	0	0	0	546	412	
10	0	0	0	0	546	412	
11	0	0	0	0	547	411	
12	0	0	0	0	547	412	
13	0	0	0	0	547	412	
14	0	0	0	0	546	412	
15	0	0	0	0	545	412	
0	0	0	0	0	545	412	
1	0	0	0	0	545	412	
2	0	0	0	0	544	412	
3	0	0	0	0	543	412	
4	0	0	0	0	543	412	
5	0	0	0	0	543	412	
6	0	0	0	0	542	413	
7	0	0	0	0	542	412	
8	0	0	0	0	542	412	
9	0	0	0	0	543	413	
10	0	0	0	0	542	413	
11	0	0	0	0	543	413	
12	0	0	0	0	542	412	
13	0	0	0	0	543	412	
14	0	0	0	0	543	412	
15	0	0	0	0	543	412	
0	0	0	0	0	543	412	
1	0	0	0	0	543	412	
2	0	0	0	0	543	412	
3	0	0	0	0	543	411	
4	0	0	0	0	543	411	
5	0	0	0	0	543	411	
6	0	0	0	0	542	411	
7	0	0	0	0	542	410	
8	0	0	0	0	541	411	
9	0	0	0	0	540	409	
10	0	0	0	0	540	410	
11	0	0	0	0	540	409	
12	0	0	0	0	539	409	
13	0	0	0	0	539	409	
14	0	0	0	0	538	410	
15	0	0	0	0	539	409	
0	0	0	0	0	539	409	
1	0	0	0	0	539	408	
2	0	0	0	0	539	409	
3	0	0	0	0	540	408	
4	0	0	0	0	540	408	
5	0	0	0	0	540	408	
6	0	0	0	0	540	408	
7	0	0	0	0	540	408	
8	0	0	0	0	540	408	
9	0	0	0	0	539	407	
10	0	0	0	0	538	408	
11	0	0	0	0	538	408	
12	0	0	0	0	537	408	
13	0	0	0	0	537	408	
14	0	0	0	0	537	408	
15	0	0	0	0	538	408	
0	0	0	0	0	538	408	
1	0	0	0	0	538	408	
2	0	0	0	0	539	408	
3	0	0	0	0	540	408	
4	0	0	0	0	540	408	
5	0	0	0	0	542	408	
6	0	0	0	0	542	408	
7	0	0	0	0	542	408	
8	0	0	0	0	542	410	
9	0	0	0	0	542	409	
10	0	0	0	0	542	410	
11	0	0	0	0	541	408	
12	0	0	0	0	541	408	
13	0	0	0	0	540	409	
14	0	0	0	0	540	409	
15	0	0	0	0	540	409	
0	0	0	0	0	539	409	
1	0	0	0	0	538	409	
2	0	0	0	0	537	411	
3	0	0	0	0	537	410	
4	0	0	0	0	536	410	
5	0	0	0	0	536	410	
6	0	0	0	0	536	410	
7	0	0	0	0	536	410	
8	0	0	0	0	536	410	
9	0	0	0	0	536	411	
10	0	0	0	0	535	411	
11	0	0	0	0	535	411	
12	0	0	0	0	535	411	
13	0	0	0	0	535	411	
14	0	0	0	0	534	411	
15	0	0	0	0	534	411	
0	0	0	0	0	533	411	
1	0	0	0	0	533	412	
2	0	0	0	0	531	412	
3	0	0	0	0	530	411	
4	0	0	0	0	529	411	
5	0	0	0	0	529	410	
6	0	0	0	0	529	411	
7	0	0	0	0	529	411	
8	0	0	0	0	529	411	
9	0	0	0	0	529	410	
10	0	0	0	0	529	411	
11	0	0	0	0	529	410	
12	0	0	0	0	530	411	
13	0	0	0	0	532	411	
14	0	0	0	0	533	410	
15	0	0	0	0	534	410	
0	0	0	0	0	535	410	
1	0	0	0	0	536	409	
2	0	0	0	0	536	411	
3	0	0	0	0	536	410	
4	0	0	0	0	537	409	
5	0	0	0	0	538	410	
6	0	0	0	0	539	409	
7	0	0	0	0	540	409	
8	0	0	0	0	542	409	
9	0	0	0	0	542	409	
10	0	0	0	0	543	410	
11	0	0	0	0	544	408	
12	0	0	0	0	545	409	
13	0	0	0	0	546	408	
14	0	0	0	0	547	408	
15	0	0	0	0	548	408	
0	0	0	0	0	550	408	
1	0	0	0	0	551	408	
2	0	0	0	0	552	408	
3	0	0	0	0	554	408	
4	0	0	0	0	555	408	
5	0	0	0	0	556	408	
6	0	0	0	0	558	408	
7	0	0	0	0	557	408	
8	0	0	0	0	558	408	
9	0	0	0	0	558	408	
10	0	0	0	0	558	409	
11	0	0	0	0	558	409	
12	0	0	0	0	558	408	
13	0	0	0	0	559	408	
14	0	0	0	0	559	408	
15	0	0	0	0	560	408	
0	0	0	0	0	560	408	
1	0	0	0	0	561	408	
2	0	0	0	0	561	409	
3	0	0	0	0	562	409	
4	0	0	0	0	562	409	
5	0	0	0	0	562	408	
6	0	0	0	0	562	409	
7	0	0	0	0	563	408	
8	0	0	0	0	563	408	
9	0	0	0	0	563	408	
10	0	0	0	0	564	409	
11	0	0	0	0	563	408	
12	0	0	0	0	563	410	
13	0	0	0	0	563	409	
14	0	0	0	0	563	409	
15	0	0	0	0	563	409	
0	0	0	0	0	562	410	
1	0	0	0	0	561	409	
2	0	0	0	0	561	410	
3	0	0	0	0	560	410	
4	0	0	0	0	560	410	
5	0	0	0	0	559	409	
6	0	0	0	0	559	410	
7	0	0	0	0	558	411	
8	0	0	0	0	558	410	
9	0	0	0	0	558	410	
10	0	0	0	0	558	411	
11	0	0	0	0	558	411	
12	0	0	0	0	558	410	
13	0	0	0	0	557	411	
14	0	0	0	0	557	411	
15	0	0	0	0	557	411	
0	0	0	0	0	556	411	
1	0	0	0	0	556	411	
2	0	0	0	0	555	412	
3	0	0	0	0	554	411	
4	0	0	0	0	553	411	
5	0	0	0	0	553	410	
6	0	0	0	0	552	411	
7	0	0	0	0	551	411	
8	0	0	0	0	551	411	
9	0	0	0	0	551	411	
10	0	0	0	0	551	411	
11	0	0	0	0	550	410	
12	0	0	0	0	550	411	
13	0	0	0	0	549	411	
14	0	0	0	0	549	412	
15	0	0	0	0	549	411	
0	0	0	0	0	549	410	
1	0	0	0	0	549	411	
2	0	0	0	0	549	411	
3	0	0	0	0	548	410	
4	0	0	0	0	548	411	
5	0	0	0	0	547	410	
6	0	0	0	0	546	411	
7	0	0	0	0	545	410	
8	0	0	0	0	544	410	
9	0	0	0	0	543	410	
10	0	0	0	0	543	411	
11	0	0	0	0	542	410	
12	0	0	0	0	542	410	
13	0	0	0	0	541	410	
14	0	0	0	0	541	410	
15	0	0	0	0	541	411	
0	0	0	0	0	540	410	
1	0	0	0	0	541	411	
2	0	0	0	0	542	410	
3	0	0	0	0	542	410	
4	0	0	0	0	543	411	
5	0	0	0	0	543	410	
6	0	0	0	0	544	411	
7	0	0	0	0	545	410	
8	0	0	0	0	545	410	
9	0	0	0	0	545	410	
10	0	0	0	0	545	410	
11	0	0	0	0	544	410	
12	0	0	0	0	544	410	
13	0	0	0	0	544	410	
14	0	0	0	0	545	410	
15	0	0	0	0	545	410	
0	0	0	0	0	546	410	
1	0	0	0	0	547	410	
2	0	0	0	0	548	411	
3	0	0	0	0	548	410	
4	0	0	0	0	550	411	
5	0	0	0	0	551	410	
6	0	0	0	0	552	410	
7	0	0	0	0	553	410	
8	0	0	0	0	553	411	
9	0	0	0	0	554	410	
10	0	0	0	0	555	412	
11	0	0	0	0	555	411	
12	0	0	0	0	555	411	
13	0	0	0	0	555	411	
14	0	0	0	0	555	411	
15	0	0	0	0	555	411	
0	0	0	0	0	555	412	
1	0	0	0	0	555	411	
2	0	0	0	0	554	411	
3	0	0	0	0	554	409	
4	0	0	0	0	555	410	
5	0	0	0	0	554	410	
6	0	0	0	0	554	411	
7	0	0	0	0	555	410	
8	0	0	0	0	555	410	
9	0	0	0	0	555	410	
10	0	0	0	0	555	410	
11	0	0	0	0	555	409	
12	0	0	0	0	555	409	
13	0	0	0	0	554	409	
14	0	0	0	0	554	410	
15	0	0	0	0	553	410	
0	0	0	0	0	552	409	
1	0	0	0	0	552	410	
2	0	0	0	0	551	411	
3	0	0	0	0	551	411	
4	0	0	0	0	550	411	
5	0	0	0	0	548	412	
6	0	0	0	0	548	412	
7	0	0	0	0	547	411	
8	0	0	0	0	547	412	
9	0	0	0	0	546	412	
10	0	0	0	0	546	413	
11	0	0	0	0	546	412	
12	0	0	0	0	545	412	
13	0	0	0	0	544	412	
14	0	0	0	0	544	413	
15	0	0	0	0	545	412	
0	0	0	0	0	545	413	
1	0	0	0	0	545	412	
2	0	0	0	0	544	412	
3	0	0	0	0	544	411	
4	0	0	0	0	543	411	
5	0	0	0	0	542	411	
6	0	0	0	0	541	411	
7	0	0	0	0	540	410	
8	0	0	0	0	539	409	
9	0	0	0	0	539	410	
10	0	0	0	0	538	411	
11	0	0	0	0	538	410	
12	0	0	0	0	538	410	
13	0	0	0	0	537	410	
14	0	0	0	0	537	410	
15	0	0	0	0	538	410	
0	0	0	0	0	539	410	
1	0	0	0	0	539	410	
2	0	0	0	0	539	411	
3	0	0	0	0	539	410	
4	0	0	0	0	540	410	
5	0	0	0	0	541	410	
6	0	0	0	0	541	410	
7	0	0	0	0	541	409	
8	0	0	0	0	541	409	
9	0	0	0	0	541	410	
10	0	0	0	0	540	410	
11	0	0	0	0	540	410	
12	0	0	0	0	539	409	
13	0	0	0	0	539	410	
14	0	0	0	0	538	410	
15	0	0	0	0	537	409	
0	0	0	0	0	537	410	
1	0	0	0	0	536	409	
2	0	0	0	0	536	411	
3	0	0	0	0	535	409	
4	0	0	0	0	535	411	
5	0	0	0	0	536	411	
6	0	0	0	0	534	411	
7	0	0	0	0	534	412	
8	0	0	0	0	532	411	
9	0	0	0	0	531	411	
10	0	0	0	0	531	412	
11	0	0	0	0	530	411	
12	0	0	0	0	530	411	
13	0	0	0	0	529	411	
14	0	0	0	0	528	412	
15	0	0	0	0	528	411	
0	0	0	0	0	527	411	
1	0	0	0	0	527	411	
2	0	0	0	0	527	412	
3	0	0	0	0	527	411	
4	0	0	0	0	527	412	
5	0	0	0	0	527	411	
6	0	0	0	0	527	411	
7	0	0	0	0	527	410	
8	0	0	0	0	528	410	
9	0	0	0	0	529	411	
10	0	0	0	0	530	411	
11	0	0	0	0	531	411	
12	0	0	0	0	531	411	
13	0	0	0	0	532	411	
14	0	0	0	0	534	411	
15	0	0	0	0	535	411	
0	0	0	0	0	536	410	
1	0	0	0	0	537	411	
2	0	0	0	0	537	411	
3	0	0	0	0	537	411	
4	0	0	0	0	538	411	
5	0	0	0	0	539	410	
6	0	0	0	0	540	411	
7	0	0	0	0	540	410	
8	0	0	0	0	542	411	
9	0	0	0	0	542	409	
10	0	0	0	0	544	410	
11	0	0	0	0	545	410	
12	0	0	0	0	546	409	
13	0	0	0	0	546	409	
14	0	0	0	0	547	409	
15	0	0	0	0	548	408	
0	0	0	0	0	549	409	
1	0	0	0	0	549	409	
2	0	0	0	0	549	410	
3	0	0	0	0	550	409	
4	0	0	0	0	550	409	
5	0	0	0	0	549	409	
6	0	0	0	0	549	410	
7	0	0	0	0	548	409	
8	0	0	0	0	548	409	
9	0	0	0	0	547	409	
10	0	0	0	0	547	409	
11	0	0	0	0	546	409	
12	0	0	0	0	545	409	
13	0	0	0	0	544	409	
14	0	0	0	0	543	410	
15	0	0	0	0	543	409	
0	0	0	0	0	543	409	
1	0	0	0	0	543	409	
2	0	0	0	0	543	410	
3	0	0	0	0	542	409	
4	0	0	0	0	540	409	
5	0	0	0	0	539	409	
6	0	0	0	0	538	410	
7	0	0	0	0	536	409	
8	0	0	0	0	535	409	
9	0	0	0	0	533	410	
10	0	0	0	0	531	410	
11	0	0	0	0	529	409	
12	0	0	0	0	528	409	
13	0	0	0	0	527	410	
14	0	0	0	0	525	411	
15	0	0	0	0	524	410	
0	0	0	0	0	523	409	
1	0	0	0	0	521	409	
2	0	0	0	0	520	410	
3	0	0	0	0	520	409	
4	0	0	0	0	519	409	
5	0	0	0	0	519	409	
6	0	0	0	0	518	409	
7	0	0	0	0	518	409	
8	0	0	0	0	518	409	
9	0	0	0	0	517	409	
10	0	0	0	0	517	410	
11	0	0	0	0	517	409	
12	0	0	0	0	516	409	
13	0	0	0	0	515	409	
14	0	0	0	0	515	409	
15	0	0	0	0	514	409	
0	0	0	0	0	513	409	
1	0	0	0	0	514	409	
2	0	0	0	0	513	410	
3	0	0	0	0	514	408	
4	0	0	0	0	514	409	
5	0	0	0	0	514	409	
6	0	0	0	0	515	409	
7	0	0	0	0	516	409	
8	0	0	0	0	515	409	
9	0	0	0	0	515	408	
10	0	0	0	0	515	409	
11	0	0	0	0	515	408	
12	0	0	0	0	515	408	
13	0	0	0	0	516	408	
14	0	0	0	0	516	409	
15	0	0	0	0	516	408	
0	0	0	0	0	517	408	
1	0	0	0	0	518	408	
2	0	0	0	0	518	408	
3	0	0	0	0	518	408	
4	0	0	0	0	518	407	
5	0	0	0	0	518	408	
6	0	0	0	0	518	408	
7	0	0	0	0	519	408	
8	0	0	0	0	520	408	
9	0	0	0	0	522	409	
10	0	0	0	0	523	409	
11	0	0	0	0	524	408	
12	0	0	0	0	525	409	
13	0	0	0	0	526	408	
14	0	0	0	0	527	409	
15	0	0	0	0	528	409	
0	0	0	0	0	529	409	
1	0	0	0	0	529	409	
2	0	0	0	0	529	410	
3	0	0	0	0	530	409	
4	0	0	0	0	530	409	
5	0	0	0	0	531	409	
6	0	0	0	0	531	410	
7	0	0	0	0	532	409	
8	0	0	0	0	533	410	
9	0	0	0	0	533	410	
10	0	0	0	0	533	411	
11	0	0	0	0	533	410	
12	0	0	0	0	533	410	
13	0	0	0	0	534	410	
14	0	0	0	0	534	410	
15	0	0	0	0	535	410	
0	0	0	0	0	536	411	
1	0	0	0	0	537	411	
2	0	0	0	0	537	412	
3	0	0	0	0	538	411	
4	0	0	0	0	540	411	
5	0	0	0	0	539	411	
6	0	0	0	0	540	411	
7	0	0	0	0	540	410	
8	0	0	0	0	540	410	
9	0	0	0	0	540	410	
10	0	0	0	0	540	410	
11	0	0	0	0	540	411	
12	0	0	0	0	540	410	
13	0	0	0	0	540	410	
14	0	0	0	0	540	411	
15	0	0	0	0	540	410	
0	0	0	0	0	541	411	
1	0	0	0	0	541	410	
2	0	0	0	0	542	411	
3	0	0	0	0	543	411	
4	0	0	0	0	544	410	
5	0	0	0	0	545	410	
6	0	0	0	0	545	411	
7	0	0	0	0	546	411	
8	0	0	0	0	545	410	
9	0	0	0	0	545	410	
10	0	0	0	0	545	411	
11	0	0	0	0	544	411	
12	0	0	0	0	544	411	
13	0	0	0	0	543	410	
14	0	0	0	0	542	411	
15	0	0	0	0	541	411	
0	0	0	0	0	540	410	
1	0	0	0	0	539	411	
2	0	0	0	0	538	411	
3	0	0	0	0	537	410	
4	0	0	0	0	536	410	
5	0	0	0	0	535	411	
6	0	0	0	0	533	411	
7	0	0	0	0	523	411	
8	0	0	0	0	511	410	
9	0	0	0	0	496	410	
10	0	0	0	0	481	411	
11	0	0	0	0	467	410	
12	0	0	0	0	453	410	
13	0	0	0	0	439	410	
14	0	0	0	0	427	411	
15	0	0	0	0	416	411	
0	0	0	0	0	406	411	
1	0	0	0	0	397	409	
2	0	0	0	0	388	410	
3	0	0	0	0	381	411	
4	0	0	0	0	374	411	
5	0	0	0	0	368	411	
6	0	0	0	0	363	410	
7	0	0	0	0	357	410	
8	0	0	0	0	352	411	
9	0	0	0	0	348	411	
10	0	0	0	0	343	411	
11	0	0	0	0	340	411	
12	0	0	0	0	339	411	
13	0	0	0	0	337	412	
14	0	0	0	0	335	412	
15	0	0	0	0	333	411	
0	0	0	0	0	331	412	
1	0	0	0	0	329	411	
2	0	0	0	0	328	412	
3	0	0	0	0	327	411	
4	0	0	0	0	327	411	
5	0	0	0	0	326	411	
6	0	0	0	0	325	411	
7	0	0	0	0	324	410	
8	0	0	0	0	324	410	
9	0	0	0	0	324	411	
10	0	0	0	0	324	411	
11	0	0	0	0	324	410	
12	0	0	0	0	325	410	
13	0	0	0	0	327	409	
14	0	0	0	0	327	411	
15	0	0	0	0	329	410	
0	0	0	0	0	330	409	
1	0	0	0	0	332	409	
2	0	0	0	0	333	410	
3	0	0	0	0	335	410	
4	0	0	0	0	337	409	
5	0	0	0	0	338	409	
6	0	0	0	0	340	410	
7	0	0	0	0	342	409	
8	0	0	0	0	343	409	
9	0	0	0	0	345	409	
10	0	0	0	0	347	409	
11	0	0	0	0	348	408	
12	0	0	0	0	351	409	
13	0	0	0	0	352	408	
14	0	0	0	0	354	409	
15	0	0	0	0	357	408	
0	0	0	0	0	359	408	
1	0	0	0	0	361	408	
2	0	0	0	0	363	409	
3	0	0	0	0	366	408	
4	0	0	0	0	368	408	
5	0	0	0	0	371	408	
6	0	0	0	0	373	408	
7	0	0	0	0	376	408	
8	0	0	0	0	379	408	
9	0	0	0	0	381	408	
10	0	0	0	0	383	409	
11	0	0	0	0	385	409	
12	0	0	0	0	387	409	
13	0	0	0	0	389	408	
14	0	0	0	0	391	408	
15	0	0	0	0	393	409	
0	0	0	0	0	395	408	
1	0	0	0	0	396	408	
2	0	0	0	0	397	409	
3	0	0	0	0	399	408	
4	0	0	0	0	401	408	
5	0	0	0	0	403	408	
6	0	0	0	0	406	408	
7	0	0	0	0	409	408	
8	0	0	0	0	412	408	
9	0	0	0	0	415	408	
10	0	0	0	0	417	409	
11	0	0	0	0	419	408	
12	0	0	0	0	421	408	
13	0	0	0	0	423	408	
14	0	0	0	0	425	408	
15	0	0	0	0	425	408	
0	0	0	0	0	427	408	
1	0	0	0	0	428	408	
2	0	0	0	0	429	409	
3	0	0	0	0	430	408	
4	0	0	0	0	431	408	
5	0	0	0	0	433	409	
6	0	0	0	0	435	409	
7	0	0	0	0	436	408	
8	0	0	0	0	438	409	
9	0	0	0	0	440	409	
10	0	0	0	0	441	409	
11	0	0	0	0	443	409	
12	0	0	0	0	445	409	
13	0	0	0	0	447	409	
14	0	0	0	0	449	409	
15	0	0	0	0	452	409	
0	0	0	0	0	453	409	
1	0	0	0	0	455	409	
2	0	0	0	0	456	409	
3	0	0	0	0	457	409	
4	0	0	0	0	459	409	
5	0	0	0	0	460	409	
6	0	0	0	0	461	409	
7	0	0	0	0	462	409	
8	0	0	0	0	463	409	
9	0	0	0	0	463	409	
10	0	0	0	0	464	409	
11	0	0	0	0	465	408	
12	0	0	0	0	466	409	
13	0	0	0	0	467	409	
14	0	0	0	0	468	409	
15	0	0	0	0	470	408	
0	0	0	0	0	471	408	
1	0	0	0	0	473	409	
2	0	0	0	0	475	409	
3	0	0	0	0	476	409	
4	0	0	0	0	477	409	
5	0	0	0	0	479	409	
6	0	0	0	0	479	410	
7	0	0	0	0	480	409	
8	0	0	0	0	481	409	
9	0	0	0	0	482	409	
10	0	0	0	0	483	410	
11	0	0	0	0	484	410	
12	0	0	0	0	486	409	
13	0	0	0	0	487	409	
14	0	0	0	0	488	409	
15	0	0	0	0	489	409	
0	0	0	0	0	490	409	
1	0	0	0	0	491	410	
2	0	0	0	0	492	410	
3	0	0	0	0	493	410	
4	0	0	0	0	493	409	
5	0	0	0	0	495	410	
6	0	0	0	0	496	410	
7	0	0	0	0	499	411	
8	0	0	0	0	500	410	
9	0	0	0	0	502	410	
10	0	0	0	0	504	411	
11	0	0	0	0	505	411	
12	0	0	0	0	506	410	
13	0	0	0	0	508	410	
14	0	0	0	0	508	410	
15	0	0	0	0	510	410	
0	0	0	0	0	511	411	
1	0	0	0	0	512	411	
2	0	0	0	0	513	412	
3	0	0	0	0	515	411	
4	0	0	0	0	517	411	
5	0	0	0	0	519	410	
6	0	0	0	0	520	411	
7	0	0	0	0	523	411	
8	0	0	0	0	525	411	
9	0	0	0	0	527	411	
10	0	0	0	0	529	412	
11	0	0	0	0	531	412	
12	0	0	0	0	534	412	
13	0	0	0	0	536	411	
14	0	0	0	0	537	412	
15	0	0	0	0	538	411	
0	0	0	0	0	539	412	
1	0	0	0	0	541	411	
2	0	0	0	0	542	412	
3	0	0	0	0	543	412	
4	0	0	0	0	544	411	
5	0	0	0	0	543	412	
6	0	0	0	0	544	412	
7	0	0	0	0	544	411	
8	0	0	0	0	544	412	
9	0	0	0	0	544	412	
10	0	0	0	0	543	413	
11	0	0	0	0	543	411	
12	0	0	0	0	542	412	
13	0	0	0	0	542	412	
14	0	0	0	0	540	412	
15	0	0	0	0	540	411	
0	0	0	0	0	541	412	
1	0	0	0	0	541	412	
2	0	0	0	0	541	412	
3	0	0	0	0	542	411	
4	0	0	0	0	543	412	
5	0	0	0	0	546	411	
6	0	0	0	0	548	412	
7	0	0	0	0	551	412	
8	0	0	0	0	555	412	
9	0	0	0	0	561	412	
10	0	0	0	0	568	412	
11	0	0	0	0	575	412	
12	0	0	0	0	585	412	
13	0	0	0	0	594	412	
14	0	0	0	0	605	412	
15	0	0	0	0	615	413	
0	0	0	0	0	628	412	
1	0	0	0	0	640	412	
2	0	0	0	0	652	412	
3	0	0	0	0	663	412	
4	0	0	0	0	672	413	
5	0	0	0	0	681	412	
6	0	0	0	0	690	413	
7	0	0	0	0	699	413	
8	0	0	0	0	707	413	
9	0	0	0	0	714	413	
10	0	0	0	0	720	413	
11	0	0	0	0	725	413	
12	0	0	0	0	729	412	
13	0	0	0	0	732	412	
14	0	0	0	0	734	412	
15	0	0	0	0	735	413	
0	0	0	0	0	731	412	
1	0	0	0	0	726	412	
2	0	0	0	0	718	412	
3	0	0	0	0	706	412	
4	0	0	0	0	690	412	
5	0	0	0	0	673	413	
6	0	0	0	0	659	413	
7	0	0	0	0	647	413	
8	0	0	0	0	636	413	
9	0	0	0	0	626	413	
10	0	0	0	0	617	414	
11	0	0	0	0	610	412	
12	0	0	0	0	603	413	
13	0	0	0	0	596	413	
14	0	0	0	0	590	412	
15	0	0	0	0	584	413	
0	0	0	0	0	579	412	
1	0	0	0	0	574	412	
2	0	0	0	0	569	412	
3	0	0	0	0	564	412	
4	0	0	0	0	560	412	
5	0	0	0	0	556	411	
6	0	0	0	0	551	412	
7	0	0	0	0	547	412	
8	0	0	0	0	544	411	
9	0	0	0	0	540	411	
10	0	0	0	0	536	412	
11	0	0	0	0	533	411	
12	0	0	0	0	530	411	
13	0	0	0	0	528	410	
14	0	0	0	0	526	411	
15	0	0	0	0	523	410	
0	0	0	0	0	520	409	
1	0	0	0	0	518	410	
2	0	0	0	0	515	410	
3	0	0	0	0	514	409	
4	0	0	0	0	512	409	
5	0	0	0	0	511	409	
6	0	0	0	0	510	409	
7	0	0	0	0	508	408	
8	0	0	0	0	508	409	
9	0	0	0	0	507	409	
10	0	0	0	0	507	409	
11	0	0	0	0	507	409	
12	0	0	0	0	507	409	
13	0	0	0	0	507	408	
14	0	0	0	0	507	409	
15	0	0	0	0	507	408	
0	0	0	0	0	508	408	
1	0	0	0	0	509	408	
2	0	0	0	0	510	409	
3	0	0	0	0	510	408	
4	0	0	0	0	511	409	
5	0	0	0	0	511	409	
6	0	0	0	0	512	409	
7	0	0	0	0	513	409	
8	0	0	0	0	513	409	
9	0	0	0	0	514	408	
10	0	0	0	0	515	409	
11	0	0	0	0	516	408	
12	0	0	0	0	517	409	
13	0	0	0	0	519	408	
14	0	0	0	0	521	409	
15	0	0	0	0	524	408	
0	0	0	0	0	526	408	
1	0	0	0	0	528	409	
2	0	0	0	0	529	409	
3	0	0	0	0	531	409	
4	0	0	0	0	533	408	
5	0	0	0	0	534	408	
6	0	0	0	0	536	408	
7	0	0	0	0	536	408	
8	0	0	0	0	538	408	
9	0	0	0	0	539	409	
10	0	0	0	0	540	409	
11	0	0	0	0	541	409	
12	0	0	0	0	542	409	
13	0	0	0	0	543	409	
14	0	0	0	0	545	408	
15	0	0	0	0	547	409	
0	0	0	0	0	547	409	
1	0	0	0	0	549	408	
2	0	0	0	0	551	409	
3	0	0	0	0	553	408	
4	0	0	0	0	555	409	
5	0	0	0	0	556	409	
6	0	0	0	0	559	410	
7	0	0	0	0	560	408	
8	0	0	0	0	562	408	
9	0	0	0	0	563	408	
10	0	0	0	0	564	409	
11	0	0	0	0	565	407	
12	0	0	0	0	567	408	
13	0	0	0	0	568	408	
14	0	0	0	0	570	408	
15	0	0	0	0	572	409	
0	0	0	0	0	573	408	
1	0	0	0	0	574	408	
2	0	0	0	0	576	409	
3	0	0	0	0	577	408	
4	0	0	0	0	580	409	
5	0	0	0	0	582	408	
6	0	0	0	0	584	408	
7	0	0	0	0	587	408	
8	0	0	0	0	589	408	
9	0	0	0	0	591	408	
10	0	0	0	0	593	409	
11	0	0	0	0	596	408	
12	0	0	0	0	598	408	
13	0	0	0	0	599	408	
14	0	0	0	0	600	409	
15	0	0	0	0	601	408	
0	0	0	0	0	601	408	
1	0	0	0	0	603	408	
2	0	0	0	0	604	409	
3	0	0	0	0	605	409	
4	0	0	0	0	605	409	
5	0	0	0	0	605	409	
6	0	0	0	0	605	409	
7	0	0	0	0	604	409	
8	0	0	0	0	605	409	
9	0	0	0	0	605	409	
10	0	0	0	0	605	409	
11	0	0	0	0	606	409	
12	0	0	0	0	606	409	
13	0	0	0	0	607	409	
14	0	0	0	0	607	410	
15	0	0	0	0	607	409	
0	0	0	0	0	607	409	
1	0	0	0	0	608	410	
2	0	0	0	0	607	411	
3	0	0	0	0	607	411	
4	0	0	0	0	606	411	
5	0	0	0	0	606	410	
6	0	0	0	0	606	411	
7	0	0	0	0	606	411	
8	0	0	0	0	605	411	
9	0	0	0	0	605	411	
10	0	0	0	0	605	411	
11	0	0	0	0	604	410	
12	0	0	0	0	605	411	
13	0	0	0	0	604	410	
14	0	0	0	0	603	411	
15	0	0	0	0	603	410	
0	0	0	0	0	603	411	
1	0	0	0	0	602	411	
2	0	0	0	0	603	412	
3	0	0	0	0	602	411	
4	0	0	0	0	601	411	
5	0	0	0	0	600	411	
6	0	0	0	0	600	411	
7	0	0	0	0	599	411	
8	0	0	0	0	599	411	
9	0	0	0	0	598	411	
10	0	0	0	0	597	412	
11	0	0	0	0	596	411	
12	0	0	0	0	595	411	
13	0	0	0	0	594	411	
14	0	0	0	0	592	410	
15	0	0	0	0	591	411	
0	0	0	0	0	591	412	
1	0	0	0	0	590	411	
2	0	0	0	0	590	411	
3	0	0	0	0	590	411	
4	0	0	0	0	590	411	
5	0	0	0	0	590	411	
6	0	0	0	0	590	411	
7	0	0	0	0	590	411	
8	0	0	0	0	590	411	
9	0	0	0	0	589	410	
10	0	0	0	0	589	412	
11	0	0	0	0	588	411	
12	0	0	0	0	588	411	
13	0	0	0	0	587	411	
14	0	0	0	0	587	411	
15	0	0	0	0	587	411	
0	0	0	0	0	587	411	
1	0	0	0	0	587	411	
2	0	0	0	0	587	412	
3	0	0	0	0	586	411	
4	0	0	0	0	586	411	
5	0	0	0	0	585	411	
6	0	0	0	0	585	411	
7	0	0	0	0	584	411	
8	0	0	0	0	583	412	
9	0	0	0	0	583	411	
10	0	0	0	0	583	412	
11	0	0	0	0	583	412	
12	0	0	0	0	582	411	
13	0	0	0	0	582	411	
14	0	0	0	0	582	411	
15	0	0	0	0	581	411	
0	0	0	0	0	579	411	
1	0	0	0	0	578	411	
2	0	0	0	0	576	412	
3	0	0	0	0	575	411	
4	0	0	0	0	574	411	
5	0	0	0	0	573	411	
6	0	0	0	0	572	411	
7	0	0	0	0	571	411	
8	0	0	0	0	570	411	
9	0	0	0	0	569	411	
10	0	0	0	0	569	411	
11	0	0	0	0	568	411	
12	0	0	0	0	567	411	
13	0	0	0	0	566	412	
14	0	0	0	0	566	411	
15	0	0	0	0	564	411	
0	0	0	0	0	565	410	
1	0	0	0	0	564	410	
2	0	0	0	0	563	412	
3	0	0	0	0	563	411	
4	0	0	0	0	562	411	
5	0	0	0	0	562	411	
6	0	0	0	0	560	411	
7	0	0	0	0	561	411	
8	0	0	0	0	560	410	
9	0	0	0	0	560	409	
10	0	0	0	0	559	411	
11	0	0	0	0	559	410	
12	0	0	0	0	559	410	
13	0	0	0	0	558	410	
14	0	0	0	0	557	410	
15	0	0	0	0	557	409	
0	0	0	0	0	558	409	
1	0	0	0	0	558	409	
2	0	0	0	0	558	410	
3	0	0	0	0	559	410	
4	0	0	0	0	560	409	
5	0	0	0	0	560	408	
6	0	0	0	0	561	409	
7	0	0	0	0	560	409	
8	0	0	0	0	561	410	
9	0	0	0	0	560	409	
10	0	0	0	0	560	409	
11	0	0	0	0	559	409	
12	0	0	0	0	559	409	
13	0	0	0	0	558	409	
14	0	0	0	0	558	409	
15	0	0	0	0	558	408	
0	0	0	0	0	558	408	
1	0	0	0	0	559	409	
2	0	0	0	0	560	409	
3	0	0	0	0	560	408	
4	0	0	0	0	561	408	
5	0	0	0	0	562	408	
6	0	0	0	0	562	408	
7	0	0	0	0	562	408	
8	0	0	0	0	561	408	
9	0	0	0	0	561	408	
10	0	0	0	0	560	408	
11	0	0	0	0	559	408	
12	0	0	0	0	558	408	
13	0	0	0	0	556	408	
14	0	0	0	0	555	408	
15	0	0	0	0	553	408	
0	0	0	0	0	552	408	
1	0	0	0	0	551	408	
2	0	0	0	0	551	408	
3	0	0	0	0	550	408	
4	0	0	0	0	549	408	
5	0	0	0	0	550	408	
6	0	0	0	0	549	408	
7	0	0	0	0	548	408	
8	0	0	0	0	548	408	
9	0	0	0	0	547	408	
10	0	0	0	0	546	408	
11	0	0	0	0	545	408	
12	0	0	0	0	544	408	
13	0	0	0	0	544	408	
14	0	0	0	0	544	408	
15	0	0	0	0	544	408	
0	0	0	0	0	543	408	
1	0	0	0	0	542	408	
2	0	0	0	0	541	408	
3	0	0	0	0	541	408	
4	0	0	0	0	540	408	
5	0	0	0	0	539	408	
6	0	0	0	0	538	408	
7	0	0	0	0	536	408	
8	0	0	0	0	535	408	
9	0	0	0	0	535	408	
10	0	0	0	0	535	409	
11	0	0	0	0	534	408	
12	0	0	0	0	534	408	
13	0	0	0	0	534	408	
14	0	0	0	0	534	408	
15	0	0	0	0	533	408	
0	0	0	0	0	532	408	
1	0	0	0	0	532	408	
2	0	0	0	0	531	409	
3	0	0	0	0	530	408	
4	0	0	0	0	529	408	
5	0	0	0	0	527	408	
6	0	0	0	0	526	409	
7	0	0	0	0	524	409	
8	0	0	0	0	523	408	
9	0	0	0	0	522	409	
10	0	0	0	0	521	409	
11	0	0	0	0	519	408	
12	0	0	0	0	519	409	
13	0	0	0	0	517	409	
14	0	0	0	0	516	409	
15	0	0	0	0	515	409	
0	0	0	0	0	514	410	
1	0	0	0	0	513	409	
2	0	0	0	0	513	410	
3	0	0	0	0	512	408	
4	0	0	0	0	512	409	
5	0	0	0	0	510	409	
6	0	0	0	0	510	410	
7	0	0	0	0	508	410	
8	0	0	0	0	507	410	
9	0	0	0	0	506	410	
10	0	0	0	0	505	411	
11	0	0	0	0	505	411	
12	0	0	0	0	504	410	
13	0	0	0	0	504	410	
14	0	0	0	0	503	411	
15	0	0	0	0	503	410	
0	0	0	0	0	503	410	
1	0	0	0	0	504	411	
2	0	0	0	0	504	411	
3	0	0	0	0	504	410	
4	0	0	0	0	504	410	
5	0	0	0	0	504	410	
6	0	0	0	0	504	411	
7	0	0	0	0	504	411	
8	0	0	0	0	505	410	
9	0	0	0	0	505	410	
10	0	0	0	0	505	411	
11	0	0	0	0	505	411	
12	0	0	0	0	505	410	
13	0	0	0	0	505	411	
14	0	0	0	0	505	411	
15	0	0	0	0	505	411	
0	0	0	0	0	505	411	
1	0	0	0	0	505	411	
2	0	0	0	0	504	411	
3	0	0	0	0	504	411	
4	0	0	0	0	504	411	
5	0	0	0	0	504	410	
6	0	0	0	0	504	411	
7	0	0	0	0	504	411	
8	0	0	0	0	504	411	
9	0	0	0	0	505	411	
10	0	0	0	0	506	412	
11	0	0	0	0	507	412	
12	0	0	0	0	507	411	
13	0	0	0	0	508	411	
14	0	0	0	0	508	411	
15	0	0	0	0	508	411	
0	0	0	0	0	508	411	
1	0	0	0	0	508	412	
2	0	0	0	0	508	412	
3	0	0	0	0	508	412	
4	0	0	0	0	508	411	
5	0	0	0	0	508	412	
6	0	0	0	0	509	412	
7	0	0	0	0	510	412	
8	0	0	0	0	511	412	
9	0	0	0	0	511	412	
10	0	0	0	0	512	412	
11	0	0	0	0	512	412	
12	0	0	0	0	512	412	
13	0	0	0	0	513	412	
14	0	0	0	0	513	412	
15	0	0	0	0	514	412	
0	0	0	0	0	515	412	
1	0	0	0	0	515	412	
2	0	0	0	0	516	413	
3	0	0	0	0	516	412	
4	0	0	0	0	516	412	
5	0	0	0	0	516	412	
6	0	0	0	0	516	412	
7	0	0	0	0	516	412	
8	0	0	0	0	515	412	
9	0	0	0	0	516	412	
10	0	0	0	0	516	413	
11	0	0	0	0	517	412	
12	0	0	0	0	517	412	
13	0	0	0	0	519	412	
14	0	0	0	0	520	412	
15	0	0	0	0	521	412	
0	0	0	0	0	523	411	
1	0	0	0	0	525	412	
2	0	0	0	0	526	413	
3	0	0	0	0	527	412	
4	0	0	0	0	527	412	
5	0	0	0	0	527	412	
6	0	0	0	0	528	413	
7	0	0	0	0	529	412	
8	0	0	0	0	529	412	
9	0	0	0	0	530	412	
10	0	0	0	0	530	412	
11	0	0	0	0	530	412	
12	0	0	0	0	530	412	
13	0	0	0	0	531	412	
14	0	0	0	0	531	412	
15	0	0	0	0	532	411	
0	0	0	0	0	533	412	
1	0	0	0	0	534	411	
2	0	0	0	0	534	412	
3	0	0	0	0	535	411	
4	0	0	0	0	536	411	
5	0	0	0	0	537	412	
6	0	0	0	0	538	412	
7	0	0	0	0	539	411	
8	0	0	0	0	539	412	
9	0	0	0	0	539	411	
10	0	0	0	0	540	412	
11	0	0	0	0	540	411	
12	0	0	0	0	540	411	
13	0	0	0	0	540	411	
14	0	0	0	0	540	411	
15	0	0	0	0	540	411	
0	0	0	0	0	539	411	
1	0	0	0	0	537	410	
2	0	0	0	0	537	410	
3	0	0	0	0	536	410	
4	0	0	0	0	536	410	
5	0	0	0	0	536	409	
6	0	0	0	0	535	410	
7	0	0	0	0	535	409	
8	0	0	0	0	534	409	
9	0	0	0	0	534	408	
10	0	0	0	0	534	409	
11	0	0	0	0	534	408	
12	0	0	0	0	533	408	
13	0	0	0	0	531	408	
14	0	0	0	0	531	408	
15	0	0	0	0	530	408	
0	0	0	0	0	528	408	
1	0	0	0	0	526	407	
2	0	0	0	0	524	408	
3	0	0	0	0	523	407	
4	0	0	0	0	521	407	
5	0	0	0	0	519	407	
6	0	0	0	0	519	407	
7	0	0	0	0	518	407	
8	0	0	0	0	517	408	
9	0	0	0	0	517	407	
10	0	0	0	0	517	408	
11	0	0	0	0	517	407	
12	0	0	0	0	516	407	
13	0	0	0	0	515	408	
14	0	0	0	0	515	407	
15	0	0	0	0	515	407	
0	0	0	0	0	514	407	
1	0	0	0	0	514	408	
2	0	0	0	0	513	407	
3	0	0	0	0	511	408	
4	0	0	0	0	510	407	
5	0	0	0	0	508	407	
6	0	0	0	0	507	407	
7	0	0	0	0	505	407	
8	0	0	0	0	503	407	
9	0	0	0	0	501	407	
10	0	0	0	0	499	408	
11	0	0	0	0	497	407	
12	0	0	0	0	495	407	
13	0	0	0	0	493	408	
14	0	0	0	0	492	408	
15	0	0	0	0	491	407	
0	0	0	0	0	491	408	
1	0	0	0	0	490	407	
2	0	0	0	0	488	408	
3	0	0	0	0	486	407	
4	0	0	0	0	484	407	
5	0	0	0	0	483	407	
6	0	0	0	0	483	408	
7	0	0	0	0	481	408	
8	0	0	0	0	481	407	
9	0	0	0	0	479	408	
10	0	0	0	0	478	408	
11	0	0	0	0	477	408	
12	0	0	0	0	476	407	
13	0	0	0	0	473	408	
14	0	0	0	0	472	407	
15	0	0	0	0	470	407	
0	0	0	0	0	469	407	
1	0	0	0	0	469	407	
2	0	0	0	0	468	408	
3	0	0	0	0	468	407	
4	0	0	0	0	468	408	
5	0	0	0	0	468	408	
6	0	0	0	0	468	407	
7	0	0	0	0	468	408	
8	0	0	0	0	467	408	
9	0	0	0	0	467	408	
10	0	0	0	0	467	408	
11	0	0	0	0	466	407	
12	0	0	0	0	465	408	
13	0	0	0	0	464	408	
14	0	0	0	0	463	408	
15	0	0	0	0	463	408	
0	0	0	0	0	462	408	
1	0	0	0	0	462	408	
2	0	0	0	0	462	408	
3	0	0	0	0	462	408	
4	0	0	0	0	462	408	
5	0	0	0	0	462	408	
6	0	0	0	0	462	408	
7	0	0	0	0	462	409	
8	0	0	0	0	463	409	
9	0	0	0	0	464	409	
10	0	0	0	0	465	409	
11	0	0	0	0	466	409	
12	0	0	0	0	467	409	
13	0	0	0	0	467	408	
14	0	0	0	0	467	409	
15	0	0	0	0	468	409	
0	0	0	0	0	468	409	
1	0	0	0	0	468	409	
2	0	0	0	0	469	410	
3	0	0	0	0	471	409	
4	0	0	0	0	472	410	
5	0	0	0	0	473	409	
6	0	0	0	0	474	410	
7	0	0	0	0	475	410	
8	0	0	0	0	476	409	
9	0	0	0	0	477	409	
10	0	0	0	0	478	411	
11	0	0	0	0	479	410	
12	0	0	0	0	480	409	
13	0	0	0	0	481	411	
14	0	0	0	0	482	411	
15	0	0	0	0	483	410	
0	0	0	0	0	484	410	
1	0	0	0	0	485	411	
2	0	0	0	0	487	411	
3	0	0	0	0	487	411	
4	0	0	0	0	488	411	
5	0	0	0	0	489	411	
6	0	0	0	0	490	412	
7	0	0	0	0	492	411	
8	0	0	0	0	492	411	
9	0	0	0	0	491	411	
10	0	0	0	0	492	412	
11	0	0	0	0	492	411	
12	0	0	0	0	492	411	
13	0	0	0	0	493	411	
14	0	0	0	0	494	411	
15	0	0	0	0	495	411	
0	0	0	0	0	495	411	
1	0	0	0	0	496	411	
2	0	0	0	0	497	412	
3	0	0	0	0	499	411	
4	0	0	0	0	500	411	
5	0	0	0	0	500	411	
6	0	0	0	0	502	411	
7	0	0	0	0	502	411	
8	0	0	0	0	502	411	
9	0	0	0	0	502	411	
10	0	0	0	0	502	412	
11	0	0	0	0	502	411	
12	0	0	0	0	502	411	
13	0	0	0	0	502	411	
14	0	0	0	0	502	412	
15	0	0	0	0	503	411	
0	0	0	0	0	504	412	
1	0	0	0	0	504	411	
2	0	0	0	0	505	412	
3	0	0	0	0	507	411	
4	0	0	0	0	508	411	
5	0	0	0	0	509	412	
6	0	0	0	0	510	412	
7	0	0	0	0	511	411	
8	0	0	0	0	513	411	
9	0	0	0	0	515	411	
10	0	0	0	0	516	412	
11	0	0	0	0	516	411	
12	0	0	0	0	516	411	
13	0	0	0	0	516	411	
14	0	0	0	0	516	411	
15	0	0	0	0	516	411	
0	0	0	0	0	517	411	
1	0	0	0	0	517	411	
2	0	0	0	0	518	412	
3	0	0	0	0	518	411	
4	0	0	0	0	519	412	
5	0	0	0	0	519	411	
6	0	0	0	0	519	412	
7	0	0	0	0	519	411	
8	0	0	0	0	520	411	
9	0	0	0	0	522	411	
10	0	0	0	0	523	412	
11	0	0	0	0	524	411	
12	0	0	0	0	525	412	
13	0	0	0	0	525	412	
14	0	0	0	0	526	412	
15	0	0	0	0	526	411	
0	0	0	0	0	526	412	
1	0	0	0	0	526	412	
2	0	0	0	0	525	412	
3	0	0	0	0	525	411	
4	0	0	0	0	526	411	
5	0	0	0	0	526	411	
6	0	0	0	0	527	411	
7	0	0	0	0	527	410	
8	0	0	0	0	527	411	
9	0	0	0	0	528	411	
10	0	0	0	0	529	412	
11	0	0	0	0	532	411	
12	0	0	0	0	533	411	
13	0	0	0	0	535	411	
14	0	0	0	0	536	411	
15	0	0	0	0	537	411	
0	0	0	0	0	539	411	
1	0	0	0	0	540	410	
2	0	0	0	0	542	412	
3	0	0	0	0	543	411	
4	0	0	0	0	543	410	
5	0	0	0	0	544	411	
6	0	0	0	0	544	411	
7	0	0	0	0	544	410	
8	0	0	0	0	543	411	
9	0	0	0	0	544	410	
10	0	0	0	0	545	411	
11	0	0	0	0	546	411	
12	0	0	0	0	547	411	
13	0	0	0	0	548	410	
14	0	0	0	0	548	411	
15	0	0	0	0	549	410	
0	0	0	0	0	548	409	
1	0	0	0	0	549	409	
2	0	0	0	0	550	411	
3	0	0	0	0	550	410	
4	0	0	0	0	550	409	
5	0	0	0	0	550	410	
6	0	0	0	0	550	410	
7	0	0	0	0	550	410	
8	0	0	0	0	549	410	
9	0	0	0	0	548	409	
10	0	0	0	0	547	410	
11	0	0	0	0	546	410	
12	0	0	0	0	545	409	
13	0	0	0	0	544	409	
14	0	0	0	0	543	410	
15	0	0	0	0	543	409	
0	0	0	0	0	543	410	
1	0	0	0	0	543	409	
2	0	0	0	0	542	410	
3	0	0	0	0	541	409	
4	0	0	0	0	540	410	
5	0	0	0	0	540	410	
6	0	0	0	0	540	410	
7	0	0	0	0	539	409	
8	0	0	0	0	538	408	
9	0	0	0	0	537	409	
10	0	0	0	0	536	410	
11	0	0	0	0	536	409	
12	0	0	0	0	536	409	
13	0	0	0	0	536	410	
14	0	0	0	0	535	409	
15	0	0	0	0	534	409	
0	0	0	0	0	532	409	
1	0	0	0	0	532	409	
2	0	0	0	0	532	410	
3	0	0	0	0	531	409	
4	0	0	0	0	531	409	
5	0	0	0	0	531	410	
6	0	0	0	0	529	410	
7	0	0	0	0	529	410	
8	0	0	0	0	529	409	
9	0	0	0	0	529	410	
10	0	0	0	0	527	410	
11	0	0	0	0	527	410	
12	0	0	0	0	527	410	
13	0	0	0	0	527	410	
14	0	0	0	0	526	411	
15	0	0	0	0	525	410	
0	0	0	0	0	524	411	
1	0	0	0	0	522	410	
2	0	0	0	0	521	411	
3	0	0	0	0	519	410	
4	0	0	0	0	518	410	
5	0	0	0	0	516	409	
6	0	0	0	0	515	410	
7	0	0	0	0	513	409	
8	0	0	0	0	512	411	
9	0	0	0	0	511	411	
10	0	0	0	0	510	411	
11	0	0	0	0	509	411	
12	0	0	0	0	508	411	
13	0	0	0	0	508	412	
14	0	0	0	0	509	411	
15	0	0	0	0	508	411	
0	0	0	0	0	507	411	
1	0	0	0	0	506	410	
2	0	0	0	0	505	411	
3	0	0	0	0	504	411	
4	0	0	0	0	504	411	
5	0	0	0	0	503	411	
6	0	0	0	0	502	411	
7	0	0	0	0	501	411	
8	0	0	0	0	500	410	
9	0	0	0	0	499	410	
10	0	0	0	0	499	411	
11	0	0	0	0	499	410	
12	0	0	0	0	499	411	
13	0	0	0	0	499	411	
14	0	0	0	0	498	411	
15	0	0	0	0	498	410	
0	0	0	0	0	498	410	
1	0	0	0	0	499	410	
2	0	0	0	0	499	411	
3	0	0	0	0	499	410	
4	0	0	0	0	500	410	
5	0	0	0	0	500	409	
6	0	0	0	0	500	410	
7	0	0	0	0	500	410	
8	0	0	0	0	500	409	
9	0	0	0	0	499	409	
10	0	0	0	0	499	410	
11	0	0	0	0	498	410	
12	0	0	0	0	497	409	
13	0	0	0	0	496	409	
14	0	0	0	0	495	409	
15	0	0	0	0	495	409	
0	0	0	0	0	494	409	
1	0	0	0	0	494	409	
2	0	0	0	0	494	410	
3	0	0	0	0	495	409	
4	0	0	0	0	495	409	
5	0	0	0	0	495	410	
6	0	0	0	0	495	410	
7	0	0	0	0	495	410	
8	0	0	0	0	495	410	
9	0	0	0	0	495	409	
10	0	0	0	0	495	410	
11	0	0	0	0	495	410	
12	0	0	0	0	495	410	
13	0	0	0	0	494	410	
14	0	0	0	0	493	410	
15	0	0	0	0	492	410	
0	0	0	0	0	492	410	
1	0	0	0	0	492	410	
2	0	0	0	0	492	411	
3	0	0	0	0	493	410	
4	0	0	0	0	494	410	
5	0	0	0	0	495	410	
6	0	0	0	0	497	412	
7	0	0	0	0	498	411	
8	0	0	0	0	500	410	
9	0	0	0	0	502	411	
10	0	0	0	0	502	411	
11	0	0	0	0	503	411	
12	0	0	0	0	504	411	
13	0	0	0	0	505	411	
14	0	0	0	0	507	411	
15	0	0	0	0	508	410	
0	0	0	0	0	509	410	
1	0	0	0	0	510	411	
2	0	0	0	0	511	410	
3	0	0	0	0	511	410	
4	0	0	0	0	511	411	
5	0	0	0	0	512	411	
6	0	0	0	0	511	410	
7	0	0	0	0	510	410	
8	0	0	0	0	509	411	
9	0	0	0	0	510	410	
10	0	0	0	0	510	411	
11	0	0	0	0	511	409	
12	0	0	0	0	511	410	
13	0	0	0	0	511	411	
14	0	0	0	0	511	411	
15	0	0	0	0	510	410	
0	0	0	0	0	508	410	
1	0	0	0	0	507	409	
2	0	0	0	0	504	410	
3	0	0	0	0	501	410	
4	0	0	0	0	498	410	
5	0	0	0	0	496	410	
6	0	0	0	0	495	411	
7	0	0	0	0	494	410	
8	0	0	0	0	492	410	
9	0	0	0	0	492	409	
10	0	0	0	0	492	411	
11	0	0	0	0	494	410	
12	0	0	0	0	496	410	
13	0	0	0	0	499	409	
14	0	0	0	0	502	410	
15	0	0	0	0	507	410	
0	0	0	0	0	512	409	
1	0	0	0	0	521	410	
2	0	0	0	0	530	410	
3	0	0	0	0	538	410	
4	0	0	0	0	547	410	
5	0	0	0	0	557	410	
6	0	0	0	0	567	411	
7	0	0	0	0	577	410	
8	0	0	0	0	588	410	
9	0	0	0	0	598	410	
10	0	0	0	0	606	410	
11	0	0	0	0	614	411	
12	0	0	0	0	622	410	
13	0	0	0	0	629	410	
14	0	0	0	0	638	410	
15	0	0	0	0	646	410	
0	0	0	0	0	653	410	
1	0	0	0	0	659	410	
2	0	0	0	0	664	411	
3	0	0	0	0	668	410	
4	0	0	0	0	670	410	
5	0	0	0	0	672	410	
6	0	0	0	0	672	411	
7	0	0	0	0	670	411	
8	0	0	0	0	666	410	
9	0	0	0	0	659	410	
10	0	0	0	0	649	411	
11	0	0	0	0	634	410	
12	0	0	0	0	619	411	
13	0	0	0	0	607	411	
14	0	0	0	0	599	411	
15	0	0	0	0	593	412	
0	0	0	0	0	589	411	
1	0	0	0	0	585	411	
2	0	0	0	0	583	412	
3	0	0	0	0	581	411	
4	0	0	0	0	579	410	
5	0	0	0	0	577	411	
6	0	0	0	0	575	411	
7	0	0	0	0	573	411	
8	0	0	0	0	571	410	
9	0	0	0	0	570	411	
10	0	0	0	0	569	412	
11	0	0	0	0	568	411	
12	0	0	0	0	567	411	
13	0	0	0	0	566	412	
14	0	0	0	0	564	412	
15	0	0	0	0	563	411	
0	0	0	0	0	561	411	
1	0	0	0	0	559	411	
2	0	0	0	0	558	412	
3	0	0	0	0	556	412	
4	0	0	0	0	555	411	
5	0	0	0	0	554	411	
6	0	0	0	0	552	412	
7	0	0	0	0	552	412	
8	0	0	0	0	552	411	
9	0	0	0	0	551	412	
10	0	0	0	0	551	412	
11	0	0	0	0	551	411	
12	0	0	0	0	552	411	
13	0	0	0	0	552	412	
14	0	0	0	0	552	413	
15	0	0	0	0	552	412	
0	0	0	0	0	552	412	
1	0	0	0	0	552	412	
2	0	0	0	0	553	413	
3	0	0	0	0	553	412	
4	0	0	0	0	554	412	
5	0	0	0	0	554	412	
6	0	0	0	0	554	412	
7	0	0	0	0	554	412	
8	0	0	0	0	553	412	
9	0	0	0	0	553	412	
10	0	0	0	0	553	412	
11	0	0	0	0	553	412	
12	0	0	0	0	553	412	
13	0	0	0	0	554	412	
14	0	0	0	0	555	412	
15	0	0	0	0	556	412	
0	0	0	0	0	556	412	
1	0	0	0	0	556	412	
2	0	0	0	0	556	412	
3	0	0	0	0	555	412	
4	0	0	0	0	556	412	
5	0	0	0	0	557	412	
6	0	0	0	0	557	412	
7	0	0	0	0	557	412	
8	0	0	0	0	557	412	
9	0	0	0	0	556	412	
10	0	0	0	0	556	413	
11	0	0	0	0	556	412	
12	0	0	0	0	556	412	
13	0	0	0	0	555	412	
14	0	0	0	0	554	413	
15	0	0	0	0	553	412	
0	0	0	0	0	553	412	
1	0	0	0	0	553	412	
2	0	0	0	0	553	412	
3	0	0	0	0	552	411	
4	0	0	0	0	552	412	
5	0	0	0	0	551	411	
6	0	0	0	0	551	412	
7	0	0	0	0	550	412	
8	0	0	0	0	550	412	
9	0	0	0	0	549	411	
10	0	0	0	0	549	412	
11	0	0	0	0	548	411	
12	0	0	0	0	548	411	
13	0	0	0	0	547	412	
14	0	0	0	0	545	412	
15	0	0	0	0	544	412	
0	0	0	0	0	543	411	
1	0	0	0	0	542	411	
2	0	0	0	0	541	412	
3	0	0	0	0	539	412	
4	0	0	0	0	537	412	
5	0	0	0	0	537	412	
6	0	0	0	0	536	412	
7	0	0	0	0	535	412	
8	0	0	0	0	534	412	
9	0	0	0	0	532	412	
10	0	0	0	0	531	412	
11	0	0	0	0	530	411	
12	0	0	0	0	529	412	
13	0	0	0	0	528	412	
14	0	0	0	0	527	412	
15	0	0	0	0	525	412	
0	0	0	0	0	524	411	
1	0	0	0	0	522	412	
2	0	0	0	0	520	411	
3	0	0	0	0	518	411	
4	0	0	0	0	516	411	
5	0	0	0	0	515	411	
6	0	0	0	0	513	412	
7	0	0	0	0	512	411	
8	0	0	0	0	511	411	
9	0	0	0	0	510	411	
10	0	0	0	0	509	412	
11	0	0	0	0	508	412	
12	0	0	0	0	507	411	
13	0	0	0	0	506	411	
14	0	0	0	0	505	411	
15	0	0	0	0	504	411	
0	0	0	0	0	503	412	
1	0	0	0	0	502	411	
2	0	0	0	0	503	412	
3	0	0	0	0	502	411	
4	0	0	0	0	501	411	
5	0	0	0	0	499	411	
6	0	0	0	0	498	411	
7	0	0	0	0	496	411	
8	0	0	0	0	495	410	
9	0	0	0	0	495	410	
10	0	0	0	0	494	411	
11	0	0	0	0	493	409	
12	0	0	0	0	494	409	
13	0	0	0	0	495	410	
14	0	0	0	0	495	410	
15	0	0	0	0	496	410	
0	0	0	0	0	495	409	
1	0	0	0	0	495	408	
2	0	0	0	0	495	409	
3	0	0	0	0	494	408	
4	0	0	0	0	494	408	
5	0	0	0	0	494	409	
6	0	0	0	0	494	409	
7	0	0	0	0	494	408	
8	0	0	0	0	494	408	
9	0	0	0	0	494	408	
10	0	0	0	0	493	409	
11	0	0	0	0	493	408	
12	0	0	0	0	492	408	
13	0	0	0	0	492	407	
14	0	0	0	0	491	408	
15	0	0	0	0	491	407	
0	0	0	0	0	491	407	
1	0	0	0	0	490	407	
2	0	0	0	0	490	407	
3	0	0	0	0	489	406	
4	0	0	0	0	489	406	
5	0	0	0	0	488	407	
6	0	0	0	0	488	407	
7	0	0	0	0	487	406	
8	0	0	0	0	487	406	
9	0	0	0	0	487	406	
10	0	0	0	0	488	407	
11	0	0	0	0	488	406	
12	0	0	0	0	488	405	
13	0	0	0	0	488	406	
14	0	0	0	0	488	406	
15	0	0	0	0	488	406	
0	0	0	0	0	487	405	
1	0	0	0	0	487	406	
2	0	0	0	0	489	407	
3	0	0	0	0	488	406	
4	0	0	0	0	489	407	
5	0	0	0	0	489	406	
6	0	0	0	0	491	406	
7	0	0	0	0	491	407	
8	0	0	0	0	491	406	
9	0	0	0	0	492	405	
10	0	0	0	0	492	406	
11	0	0	0	0	492	406	
12	0	0	0	0	493	406	
13	0	0	0	0	493	406	
14	0	0	0	0	492	407	
15	0	0	0	0	491	406	
0	0	0	0	0	491	405	
1	0	0	0	0	491	406	
2	0	0	0	0	492	407	
3	0	0	0	0	492	406	
4	0	0	0	0	493	406	
5	0	0	0	0	493	406	
6	0	0	0	0	493	407	
7	0	0	0	0	493	406	
8	0	0	0	0	494	407	
9	0	0	0	0	494	406	
10	0	0	0	0	495	408	
11	0	0	0	0	495	407	
12	0	0	0	0	495	407	
13	0	0	0	0	495	407	
14	0	0	0	0	495	408	
15	0	0	0	0	496	408	
0	0	0	0	0	496	408	
1	0	0	0	0	495	408	
2	0	0	0	0	496	409	
3	0	0	0	0	496	408	
4	0	0	0	0	496	408	
5	0	0	0	0	496	408	
6	0	0	0	0	497	408	
7	0	0	0	0	497	408	
8	0	0	0	0	497	408	
9	0	0	0	0	498	408	
10	0	0	0	0	498	408	
11	0	0	0	0	498	408	
12	0	0	0	0	499	408	
13	0	0	0	0	499	408	
14	0	0	0	0	499	408	
15	0	0	0	0	500	408	
0	0	0	0	0	501	408	
1	0	0	0	0	502	408	
2	0	0	0	0	504	408	
3	0	0	0	0	505	408	
4	0	0	0	0	506	407	
5	0	0	0	0	507	408	
6	0	0	0	0	508	408	
7	0	0	0	0	508	408	
8	0	0	0	0	508	408	
9	0	0	0	0	509	408	
10	0	0	0	0	509	408	
11	0	0	0	0	509	408	
12	0	0	0	0	509	407	
13	0	0	0	0	510	408	
14	0	0	0	0	511	408	
15	0	0	0	0	512	407	
0	0	0	0	0	512	408	
1	0	0	0	0	513	407	
2	0	0	0	0	514	407	
3	0	0	0	0	515	408	
4	0	0	0	0	517	408	
5	0	0	0	0	518	408	
6	0	0	0	0	519	408	
7	0	0	0	0	520	408	
8	0	0	0	0	521	408	
9	0	0	0	0	521	407	
10	0	0	0	0	522	408	
11	0	0	0	0	522	407	
12	0	0	0	0	522	408	
13	0	0	0	0	523	408	
14	0	0	0	0	523	408	
15	0	0	0	0	523	408	
0	0	0	0	0	522	408	
1	0	0	0	0	522	408	
2	0	0	0	0	521	409	
3	0	0	0	0	521	408	
4	0	0	0	0	522	409	
5	0	0	0	0	522	409	
6	0	0	0	0	523	409	
7	0	0	0	0	524	409	
8	0	0	0	0	525	409	
9	0	0	0	0	525	410	
10	0	0	0	0	526	411	
11	0	0	0	0	526	411	
12	0	0	0	0	527	411	
13	0	0	0	0	527	411	
14	0	0	0	0	527	412	
15	0	0	0	0	528	412	
0	0	0	0	0	527	411	
1	0	0	0	0	528	411	
2	0	0	0	0	527	411	
3	0	0	0	0	527	411	
4	0	0	0	0	527	412	
5	0	0	0	0	527	412	
6	0	0	0	0	527	413	
7	0	0	0	0	527	412	
8	0	0	0	0	527	413	
9	0	0	0	0	528	412	
10	0	0	0	0	527	413	
11	0	0	0	0	527	413	
12	0	0	0	0	528	413	
13	0	0	0	0	529	414	
14	0	0	0	0	530	413	
15	0	0	0	0	531	412	
0	0	0	0	0	531	413	
1	0	0	0	0	532	412	
2	0	0	0	0	532	414	
3	0	0	0	0	532	412	
4	0	0	0	0	532	413	
5	0	0	0	0	533	413	
6	0	0	0	0	533	414	
7	0	0	0	0	532	414	
8	0	0	0	0	532	413	
9	0	0	0	0	532	413	
10	0	0	0	0	532	414	
11	0	0	0	0	531	413	
12	0	0	0	0	531	414	
13	0	0	0	0	531	413	
14	0	0	0	0	531	413	
15	0	0	0	0	531	414	
0	0	0	0	0	532	413	
1	0	0	0	0	532	414	
2	0	0	0	0	533	414	
3	0	0	0	0	534	413	
4	0	0	0	0	535	414	
5	0	0	0	0	536	414	
6	0	0	0	0	535	414	
7	0	0	0	0	536	413	
8	0	0	0	0	537	413	
9	0	0	0	0	538	413	
10	0	0	0	0	538	414	
11	0	0	0	0	538	414	
12	0	0	0	0	537	413	
13	0	0	0	0	536	413	
14	0	0	0	0	536	414	
15	0	0	0	0	536	413	
0	0	0	0	0	537	413	
1	0	0	0	0	537	414	
2	0	0	0	0	538	415	
3	0	0	0	0	538	414	
4	0	0	0	0	539	414	
5	0	0	0	0	539	414	
6	0	0	0	0	539	415	
7	0	0	0	0	539	414	
8	0	0	0	0	539	414	
9	0	0	0	0	539	415	
10	0	0	0	0	540	415	
11	0	0	0	0	540	414	
12	0	0	0	0	540	414	
13	0	0	0	0	540	415	
14	0	0	0	0	540	415	
15	0	0	0	0	540	415	
0	0	0	0	0	539	415	
1	0	0	0	0	538	415	
2	0	0	0	0	538	415	
3	0	0	0	0	537	414	
4	0	0	0	0	538	414	
5	0	0	0	0	537	414	
6	0	0	0	0	537	415	
7	0	0	0	0	537	414	
8	0	0	0	0	537	414	
9	0	0	0	0	538	415	
10	0	0	0	0	538	415	
11	0	0	0	0	539	415	
12	0	0	0	0	539	415	
13	0	0	0	0	539	415	
14	0	0	0	0	539	415	
15	0	0	0	0	538	415	
0	0	0	0	0	537	415	
1	0	0	0	0	536	414	
2	0	0	0	0	535	415	
3	0	0	0	0	534	415	
4	0	0	0	0	533	415	
5	0	0	0	0	532	414	
6	0	0	0	0	531	415	
7	0	0	0	0	530	414	
8	0	0	0	0	529	414	
9	0	0	0	0	529	414	
10	0	0	0	0	529	414	
11	0	0	0	0	529	413	
12	0	0	0	0	528	413	
13	0	0	0	0	528	413	
14	0	0	0	0	528	414	
15	0	0	0	0	527	414	
0	0	0	0	0	526	413	
1	0	0	0	0	524	414	
2	0	0	0	0	523	414	
3	0	0	0	0	522	414	
4	0	0	0	0	520	413	
5	0	0	0	0	518	413	
6	0	0	0	0	517	413	
7	0	0	0	0	515	413	
8	0	0	0	0	514	413	
9	0	0	0	0	513	412	
10	0	0	0	0	513	414	
11	0	0	0	0	512	413	
12	0	0	0	0	512	412	
13	0	0	0	0	511	412	
14	0	0	0	0	511	412	
15	0	0	0	0	510	412	
0	0	0	0	0	510	412	
1	0	0	0	0	509	412	
2	0	0	0	0	510	412	
3	0	0	0	0	509	412	
4	0	0	0	0	509	411	
5	0	0	0	0	509	411	
6	0	0	0	0	509	412	
7	0	0	0	0	509	410	
8	0	0	0	0	508	411	
9	0	0	0	0	508	411	
10	0	0	0	0	509	411	
11	0	0	0	0	508	411	
12	0	0	0	0	508	411	
13	0	0	0	0	508	411	
14	0	0	0	0	508	410	
15	0	0	0	0	507	410	
0	0	0	0	0	506	410	
1	0	0	0	0	506	410	
2	0	0	0	0	506	411	
3	0	0	0	0	505	410	
4	0	0	0	0	505	409	
5	0	0	0	0	504	409	
6	0	0	0	0	504	409	
7	0	0	0	0	503	409	
8	0	0	0	0	502	408	
9	0	0	0	0	501	408	
10	0	0	0	0	499	409	
11	0	0	0	0	498	408	
12	0	0	0	0	497	408	
13	0	0	0	0	496	408	
14	0	0	0	0	494	408	
15	0	0	0	0	493	407	
0	0	0	0	0	492	407	
1	0	0	0	0	490	407	
2	0	0	0	0	489	408	
3	0	0	0	0	489	407	
4	0	0	0	0	489	407	
5	0	0	0	0	488	407	
6	0	0	0	0	487	407	
7	0	0	0	0	487	406	
8	0	0	0	0	487	406	
9	0	0	0	0	487	406	
10	0	0	0	0	487	407	
11	0	0	0	0	488	406	
12	0	0	0	0	488	406	
13	0	0	0	0	488	406	
14	0	0	0	0	488	407	
15	0	0	0	0	488	406	
0	0	0	0	0	489	406	
1	0	0	0	0	489	406	
2	0	0	0	0	489	407	
3	0	0	0	0	490	406	
4	0	0	0	0	489	406	
5	0	0	0	0	490	405	
6	0	0	0	0	490	406	
7	0	0	0	0	490	406	
8	0	0	0	0	491	405	
9	0	0	0	0	492	405	
10	0	0	0	0	493	407	
11	0	0	0	0	494	406	
12	0	0	0	0	496	406	
13	0	0	0	0	497	406	
14	0	0	0	0	498	406	
15	0	0	0	0	498	406	
0	0	0	0	0	499	406	
1	0	0	0	0	500	406	
2	0	0	0	0	501	407	
3	0	0	0	0	502	406	
4	0	0	0	0	502	406	
5	0	0	0	0	502	405	
6	0	0	0	0	502	406	
7	0	0	0	0	502	406	
8	0	0	0	0	502	406	
9	0	0	0	0	502	406	
10	0	0	0	0	502	407	
11	0	0	0	0	503	406	
12	0	0	0	0	503	407	
13	0	0	0	0	504	406	
14	0	0	0	0	504	407	
15	0	0	0	0	505	408	
0	0	0	0	0	504	407	
1	0	0	0	0	505	407	
2	0	0	0	0	505	407	
3	0	0	0	0	506	407	
4	0	0	0	0	506	407	
5	0	0	0	0	505	407	
6	0	0	0	0	505	408	
7	0	0	0	0	505	407	
8	0	0	0	0	504	408	
9	0	0	0	0	504	406	
10	0	0	0	0	504	407	
11	0	0	0	0	504	407	
12	0	0	0	0	504	408	
13	0	0	0	0	503	408	
14	0	0	0	0	503	408	
15	0	0	0	0	504	407	
0	0	0	0	0	503	408	
1	0	0	0	0	503	408	
2	0	0	0	0	503	408	
3	0	0	0	0	503	408	
4	0	0	0	0	503	407	
5	0	0	0	0	503	408	
6	0	0	0	0	503	408	
7	0	0	0	0	503	408	
8	0	0	0	0	503	408	
9	0	0	0	0	504	408	
10	0	0	0	0	504	408	
11	0	0	0	0	504	408	
12	0	0	0	0	504	408	
13	0	0	0	0	504	409	
14	0	0	0	0	504	408	
15	0	0	0	0	504	408	
0	0	0	0	0	504	409	
1	0	0	0	0	504	408	
2	0	0	0	0	503	409	
3	0	0	0	0	503	408	
4	0	0	0	0	504	408	
5	0	0	0	0	504	408	
6	0	0	0	0	505	408	
7	0	0	0	0	505	408	
8	0	0	0	0	506	408	
9	0	0	0	0	508	408	
10	0	0	0	0	509	409	
11	0	0	0	0	510	408	
12	0	0	0	0	510	409	
13	0	0	0	0	510	408	
14	0	0	0	0	511	409	
15	0	0	0	0	512	409	
0	0	0	0	0	512	409	
1	0	0	0	0	512	409	
2	0	0	0	0	513	409	
3	0	0	0	0	513	409	
4	0	0	0	0	514	408	
5	0	0	0	0	515	409	
6	0	0	0	0	515	409	
7	0	0	0	0	515	409	
8	0	0	0	0	516	410	
9	0	0	0	0	517	410	
10	0	0	0	0	518	410	
11	0	0	0	0	519	410	
12	0	0	0	0	519	410	
13	0	0	0	0	519	409	
14	0	0	0	0	520	410	
15	0	0	0	0	521	410	
0	0	0	0	0	522	410	
1	0	0	0	0	522	410	
2	0	0	0	0	523	410	
3	0	0	0	0	524	410	
4	0	0	0	0	524	409	
5	0	0	0	0	524	410	
6	0	0	0	0	524	410	
7	0	0	0	0	524	410	
8	0	0	0	0	524	410	
9	0	0	0	0	524	411	
10	0	0	0	0	525	411	
11	0	0	0	0	526	410	
12	0	0	0	0	527	410	
13	0	0	0	0	527	411	
14	0	0	0	0	528	411	
15	0	0	0	0	530	411	
0	0	0	0	0	531	410	
1	0	0	0	0	532	411	
2	0	0	0	0	534	411	
3	0	0	0	0	535	411	
4	0	0	0	0	536	412	
5	0	0	0	0	537	410	
6	0	0	0	0	539	412	
7	0	0	0	0	540	411	
8	0	0	0	0	541	412	
9	0	0	0	0	542	412	
10	0	0	0	0	543	412	
11	0	0	0	0	543	412	
12	0	0	0	0	544	412	
13	0	0	0	0	545	412	
14	0	0	0	0	547	413	
15	0	0	0	0	548	412	
0	0	0	0	0	549	413	
1	0	0	0	0	550	412	
2	0	0	0	0	551	413	
3	0	0	0	0	553	412	
4	0	0	0	0	555	413	
5	0	0	0	0	556	413	
6	0	0	0	0	558	413	
7	0	0	0	0	559	412	
8	0	0	0	0	560	413	
9	0	0	0	0	561	413	
10	0	0	0	0	563	414	
11	0	0	0	0	563	413	
12	0	0	0	0	563	413	
13	0	0	0	0	563	413	
14	0	0	0	0	563	413	
15	0	0	0	0	564	413	
0	0	0	0	0	564	413	
1	0	0	0	0	564	413	
2	0	0	0	0	563	414	
3	0	0	0	0	563	414	
4	0	0	0	0	563	414	
5	0	0	0	0	563	414	
6	0	0	0	0	564	414	
7	0	0	0	0	564	414	
8	0	0	0	0	565	413	
9	0	0	0	0	566	413	
10	0	0	0	0	566	414	
11	0	0	0	0	567	413	
12	0	0	0	0	567	413	
13	0	0	0	0	567	413	
14	0	0	0	0	567	414	
15	0	0	0	0	566	413	
0	0	0	0	0	565	413	
1	0	0	0	0	564	413	
2	0	0	0	0	563	414	
3	0	0	0	0	562	413	
4	0	0	0	0	561	413	
5	0	0	0	0	560	413	
6	0	0	0	0	560	413	
7	0	0	0	0	559	413	
8	0	0	0	0	558	412	
9	0	0	0	0	557	412	
10	0	0	0	0	557	413	
11	0	0	0	0	557	412	
12	0	0	0	0	556	412	
13	0	0	0	0	557	413	
14	0	0	0	0	556	413	
15	0	0	0	0	556	413	
0	0	0	0	0	556	413	
1	0	0	0	0	555	412	
2	0	0	0	0	554	413	
3	0	0	0	0	553	412	
4	0	0	0	0	552	412	
5	0	0	0	0	551	412	
6	0	0	0	0	550	412	
7	0	0	0	0	550	412	
8	0	0	0	0	548	412	
9	0	0	0	0	547	412	
10	0	0	0	0	546	412	
11	0	0	0	0	545	412	
12	0	0	0	0	544	411	
13	0	0	0	0	544	412	
14	0	0	0	0	543	412	
15	0	0	0	0	544	411	
0	0	0	0	0	545	411	
1	0	0	0	0	547	411	
2	0	0	0	0	548	411	
3	0	0	0	0	549	411	
4	0	0	0	0	550	411	
5	0	0	0	0	551	411	
6	0	0	0	0	553	411	
7	0	0	0	0	555	410	
8	0	0	0	0	556	410	
9	0	0	0	0	557	410	
10	0	0	0	0	558	411	
11	0	0	0	0	559	410	
12	0	0	0	0	559	410	
13	0	0	0	0	560	410	
14	0	0	0	0	561	411	
15	0	0	0	0	561	410	
0	0	0	0	0	561	410	
1	0	0	0	0	561	410	
2	0	0	0	0	560	411	
3	0	0	0	0	560	411	
4	0	0	0	0	560	410	
5	0	0	0	0	561	410	
6	0	0	0	0	561	410	
7	0	0	0	0	561	409	
8	0	0	0	0	560	410	
9	0	0	0	0	559	409	
10	0	0	0	0	559	410	
11	0	0	0	0	558	409	
12	0	0	0	0	556	409	
13	0	0	0	0	555	409	
14	0	0	0	0	553	409	
15	0	0	0	0	552	409	
0	0	0	0	0	551	409	
1	0	0	0	0	550	408	
2	0	0	0	0	548	409	
3	0	0	0	0	547	408	
4	0	0	0	0	547	408	
5	0	0	0	0	546	408	
6	0	0	0	0	545	408	
7	0	0	0	0	545	408	
8	0	0	0	0	544	408	
9	0	0	0	0	544	408	
10	0	0	0	0	543	408	
11	0	0	0	0	543	408	
12	0	0	0	0	544	408	
13	0	0	0	0	543	408	
14	0	0	0	0	544	408	
15	0	0	0	0	543	407	
0	0	0	0	0	543	408	
1	0	0	0	0	542	408	
2	0	0	0	0	541	408	
3	0	0	0	0	540	407	
4	0	0	0	0	540	407	
5	0	0	0	0	539	407	
6	0	0	0	0	539	407	
7	0	0	0	0	539	407	
8	0	0	0	0	539	407	
9	0	0	0	0	539	407	
10	0	0	0	0	539	408	
11	0	0	0	0	539	406	
12	0	0	0	0	539	406	
13	0	0	0	0	539	406	
14	0	0	0	0	539	406	
15	0	0	0	0	539	406	
0	0	0	0	0	540	407	
1	0	0	0	0	541	406	
2	0	0	0	0	541	407	
3	0	0	0	0	541	406	
4	0	0	0	0	541	407	
5	0	0	0	0	540	407	
6	0	0	0	0	540	407	
7	0	0	0	0	540	407	
8	0	0	0	0	540	407	
9	0	0	0	0	540	407	
10	0	0	0	0	540	407	
11	0	0	0	0	539	407	
12	0	0	0	0	539	408	
13	0	0	0	0	538	408	
14	0	0	0	0	539	408	
15	0	0	0	0	539	407	
0	0	0	0	0	539	407	
1	0	0	0	0	539	407	
2	0	0	0	0	539	408	
3	0	0	0	0	539	407	
4	0	0	0	0	539	408	
5	0	0	0	0	539	408	
6	0	0	0	0	539	408	
7	0	0	0	0	538	408	
8	0	0	0	0	537	408	
9	0	0	0	0	537	408	
10	0	0	0	0	537	409	
11	0	0	0	0	536	408	
12	0	0	0	0	536	408	
13	0	0	0	0	536	408	
14	0	0	0	0	536	409	
15	0	0	0	0	536	408	
0	0	0	0	0	536	408	
1	0	0	0	0	536	408	
2	0	0	0	0	536	409	
3	0	0	0	0	536	408	
4	0	0	0	0	536	409	
5	0	0	0	0	536	409	
6	0	0	0	0	537	409	
7	0	0	0	0	538	410	
8	0	0	0	0	539	409	
9	0	0	0	0	540	409	
10	0	0	0	0	540	410	
11	0	0	0	0	540	409	
12	0	0	0	0	540	410	
13	0	0	0	0	541	410	
14	0	0	0	0	542	411	
15	0	0	0	0	542	410	
0	0	0	0	0	542	410	
1	0	0	0	0	542	409	
2	0	0	0	0	542	411	
3	0	0	0	0	542	411	
4	0	0	0	0	543	410	
5	0	0	0	0	543	409	
6	0	0	0	0	542	410	
7	0	0	0	0	542	409	
8	0	0	0	0	541	411	
9	0	0	0	0	540	410	
10	0	0	0	0	539	411	
11	0	0	0	0	538	410	
12	0	0	0	0	536	411	
13	0	0	0	0	535	412	
14	0	0	0	0	532	411	
15	0	0	0	0	531	412	
0	0	0	0	0	529	412	
1	0	0	0	0	526	411	
2	0	0	0	0	523	411	
3	0	0	0	0	521	411	
4	0	0	0	0	519	412	
5	0	0	0	0	516	412	
6	0	0	0	0	516	412	
7	0	0	0	0	515	412	
8	0	0	0	0	517	412	
9	0	0	0	0	519	412	
10	0	0	0	0	520	413	
11	0	0	0	0	524	412	
12	0	0	0	0	528	412	
13	0	0	0	0	534	413	
14	0	0	0	0	540	413	
15	0	0	0	0	547	412	
0	0	0	0	0	556	412	
1	0	0	0	0	565	413	
2	0	0	0	0	575	413	
3	0	0	0	0	586	413	
4	0	0	0	0	597	413	
5	0	0	0	0	608	413	
6	0	0	0	0	620	414	
7	0	0	0	0	630	413	
8	0	0	0	0	639	413	
9	0	0	0	0	648	414	
10	0	0	0	0	657	414	
11	0	0	0	0	665	413	
12	0	0	0	0	674	413	
13	0	0	0	0	683	413	
14	0	0	0	0	690	414	
15	0	0	0	0	696	414	
0	0	0	0	0	702	413	
1	0	0	0	0	706	413	
2	0	0	0	0	710	414	
3	0	0	0	0	712	414	
4	0	0	0	0	710	414	
5	0	0	0	0	705	414	
6	0	0	0	0	698	415	
7	0	0	0	0	686	414	
8	0	0	0	0	670	414	
9	0	0	0	0	653	414	
10	0	0	0	0	638	414	
11	0	0	0	0	626	414	
12	0	0	0	0	616	414	
13	0	0	0	0	608	414	
14	0	0	0	0	600	414	
15	0	0	0	0	593	413	
0	0	0	0	0	587	414	
1	0	0	0	0	581	413	
2	0	0	0	0	577	414	
3	0	0	0	0	573	413	
4	0	0	0	0	570	413	
5	0	0	0	0	566	413	
6	0	0	0	0	563	413	
7	0	0	0	0	560	413	
8	0	0	0	0	556	413	
9	0	0	0	0	553	412	
10	0	0	0	0	550	413	
11	0	0	0	0	546	412	
12	0	0	0	0	542	412	
13	0	0	0	0	539	412	
14	0	0	0	0	536	412	
15	0	0	0	0	534	412	
0	0	0	0	0	531	411	
1	0	0	0	0	529	411	
2	0	0	0	0	527	412	
3	0	0	0	0	526	411	
4	0	0	0	0	524	411	
5	0	0	0	0	522	411	
6	0	0	0	0	521	411	
7	0	0	0	0	521	411	
8	0	0	0	0	520	410	
9	0	0	0	0	519	411	
10	0	0	0	0	519	411	
11	0	0	0	0	518	410	
12	0	0	0	0	518	410	
13	0	0	0	0	518	409	
14	0	0	0	0	517	410	
15	0	0	0	0	516	409	
0	0	0	0	0	515	409	
1	0	0	0	0	514	409	
2	0	0	0	0	513	409	
3	0	0	0	0	513	409	
4	0	0	0	0	512	409	
5	0	0	0	0	512	409	
6	0	0	0	0	512	409	
7	0	0	0	0	511	409	
8	0	0	0	0	511	409	
9	0	0	0	0	511	409	
10	0	0	0	0	511	410	
11	0	0	0	0	511	409	
12	0	0	0	0	511	408	
13	0	0	0	0	512	409	
14	0	0	0	0	512	408	
15	0	0	0	0	513	408	
0	0	0	0	0	512	408	
1	0	0	0	0	513	408	
2	0	0	0	0	513	409	
3	0	0	0	0	512	408	
4	0	0	0	0	512	408	
5	0	0	0	0	512	408	
6	0	0	0	0	511	408	
7	0	0	0	0	510	408	
8	0	0	0	0	509	408	
9	0	0	0	0	509	408	
10	0	0	0	0	509	408	
11	0	0	0	0	509	408	
12	0	0	0	0	508	408	
13	0	0	0	0	507	408	
14	0	0	0	0	507	407	
15	0	0	0	0	507	407	
0	0	0	0	0	507	408	
1	0	0	0	0	507	407	
2	0	0	0	0	507	407	
3	0	0	0	0	507	406	
4	0	0	0	0	507	407	
5	0	0	0	0	506	407	
6	0	0	0	0	504	407	
7	0	0	0	0	504	406	
8	0	0	0	0	503	406	
9	0	0	0	0	501	406	
10	0	0	0	0	500	407	
11	0	0	0	0	499	406	
12	0	0	0	0	497	406	
13	0	0	0	0	495	406	
14	0	0	0	0	494	407	
15	0	0	0	0	492	406	
0	0	0	0	0	491	406	
1	0	0	0	0	491	407	
2	0	0	0	0	491	408	
3	0	0	0	0	489	407	
4	0	0	0	0	488	407	
5	0	0	0	0	488	406	
6	0	0	0	0	487	407	
7	0	0	0	0	487	407	
8	0	0	0	0	487	407	
9	0	0	0	0	487	407	
10	0	0	0	0	487	408	
11	0	0	0	0	487	407	
12	0	0	0	0	486	407	
13	0	0	0	0	486	407	
14	0	0	0	0	485	407	
15	0	0	0	0	484	407	
0	0	0	0	0	483	407	
1	0	0	0	0	482	407	
2	0	0	0	0	481	408	
3	0	0	0	0	481	407	
4	0	0	0	0	481	408	
5	0	0	0	0	480	407	
6	0	0	0	0	479	408	
7	0	0	0	0	479	408	
8	0	0	0	0	478	408	
9	0	0	0	0	478	408	
10	0	0	0	0	478	409	
11	0	0	0	0	477	409	
12	0	0	0	0	477	409	
13	0	0	0	0	476	409	
14	0	0	0	0	475	410	
15	0	0	0	0	474	410	
0	0	0	0	0	473	409	
1	0	0	0	0	472	409	
2	0	0	0	0	470	410	
3	0	0	0	0	470	410	
4	0	0	0	0	468	410	
5	0	0	0	0	468	411	
6	0	0	0	0	466	411	
7	0	0	0	0	465	411	
8	0	0	0	0	464	411	
9	0	0	0	0	464	410	
10	0	0	0	0	463	411	
11	0	0	0	0	463	410	
12	0	0	0	0	463	410	
13	0	0	0	0	463	411	
14	0	0	0	0	463	411	
15	0	0	0	0	463	411	
0	0	0	0	0	463	410	
1	0	0	0	0	462	410	
2	0	0	0	0	462	411	
3	0	0	0	0	462	410	
4	0	0	0	0	460	409	
5	0	0	0	0	460	409	
6	0	0	0	0	459	409	
7	0	0	0	0	458	409	
8	0	0	0	0	457	409	
9	0	0	0	0	457	410	
10	0	0	0	0	456	409	
11	0	0	0	0	455	408	
12	0	0	0	0	456	409	
13	0	0	0	0	455	409	
14	0	0	0	0	455	409	
15	0	0	0	0	455	409	
0	0	0	0	0	455	409	
1	0	0	0	0	456	409	
2	0	0	0	0	456	409	
3	0	0	0	0	456	408	
4	0	0	0	0	456	409	
5	0	0	0	0	457	409	
6	0	0	0	0	457	409	
7	0	0	0	0	457	409	
8	0	0	0	0	457	409	
9	0	0	0	0	457	409	
10	0	0	0	0	457	409	
11	0	0	0	0	458	409	
12	0	0	0	0	458	409	
13	0	0	0	0	459	409	
14	0	0	0	0	458	410	
15	0	0	0	0	459	409	
0	0	0	0	0	459	410	
1	0	0	0	0	460	410	
2	0	0	0	0	460	411	
3	0	0	0	0	461	410	
4	0	0	0	0	462	410	
5	0	0	0	0	462	411	
6	0	0	0	0	462	411	
7	0	0	0	0	462	410	
8	0	0	0	0	463	410	
9	0	0	0	0	464	410	
10	0	0	0	0	464	411	
11	0	0	0	0	464	411	
12	0	0	0	0	464	411	
13	0	0	0	0	464	411	
14	0	0	0	0	464	411	
15	0	0	0	0	464	411	
0	0	0	0	0	464	411	
1	0	0	0	0	464	412	
2	0	0	0	0	464	413	
3	0	0	0	0	465	412	
4	0	0	0	0	466	412	
5	0	0	0	0	467	412	
6	0	0	0	0	467	412	
7	0	0	0	0	468	412	
8	0	0	0	0	469	412	
9	0	0	0	0	469	412	
10	0	0	0	0	469	413	
11	0	0	0	0	470	412	
12	0	0	0	0	470	412	
13	0	0	0	0	471	412	
14	0	0	0	0	472	413	
15	0	0	0	0	472	413	
0	0	0	0	0	472	413	
1	0	0	0	0	473	413	
2	0	0	0	0	473	413	
3	0	0	0	0	472	413	
4	0	0	0	0	472	412	
5	0	0	0	0	472	413	
6	0	0	0	0	473	413	
7	0	0	0	0	474	413	
8	0	0	0	0	475	412	
9	0	0	0	0	475	412	
10	0	0	0	0	475	413	
11	0	0	0	0	476	413	
12	0	0	0	0	477	413	
13	0	0	0	0	478	412	
14	0	0	0	0	479	412	
15	0	0	0	0	480	413	
0	0	0	0	0	481	412	
1	0	0	0	0	481	412	
2	0	0	0	0	482	413	
3	0	0	0	0	483	412	
4	0	0	0	0	484	412	
5	0	0	0	0	485	412	
6	0	0	0	0	486	412	
7	0	0	0	0	487	412	
8	0	0	0	0	487	412	
9	0	0	0	0	488	411	
10	0	0	0	0	490	412	
11	0	0	0	0	490	411	
12	0	0	0	0	491	411	
13	0	0	0	0	492	411	
14	0	0	0	0	494	411	
15	0	0	0	0	495	411	
0	0	0	0	0	496	410	
1	0	0	0	0	497	410	
2	0	0	0	0	498	411	
3	0	0	0	0	499	410	
4	0	0	0	0	499	410	
5	0	0	0	0	499	410	
6	0	0	0	0	498	411	
7	0	0	0	0	499	410	
8	0	0	0	0	499	411	
9	0	0	0	0	499	410	
10	0	0	0	0	499	412	
11	0	0	0	0	499	410	
12	0	0	0	0	499	410	
13	0	0	0	0	499	411	
14	0	0	0	0	499	411	
15	0	0	0	0	500	410	
0	0	0	0	0	500	410	
1	0	0	0	0	500	410	
2	0	0	0	0	501	410	
3	0	0	0	0	500	410	
4	0	0	0	0	500	410	
5	0	0	0	0	500	410	
6	0	0	0	0	500	409	
7	0	0	0	0	500	409	
8	0	0	0	0	500	409	
9	0	0	0	0	499	409	
10	0	0	0	0	498	409	
11	0	0	0	0	498	408	
12	0	0	0	0	497	408	
13	0	0	0	0	497	408	
14	0	0	0	0	497	408	
15	0	0	0	0	497	408	
0	0	0	0	0	497	408	
1	0	0	0	0	497	408	
2	0	0	0	0	497	409	
3	0	0	0	0	496	408	
4	0	0	0	0	496	408	
5	0	0	0	0	498	408	
6	0	0	0	0	517	408	
7	0	0	0	0	543	408	
8	0	0	0	0	572	408	
9	0	0	0	0	601	408	
10	0	0	0	0	629	408	
11	0	0	0	0	655	408	
12	0	0	0	0	679	408	
13	0	0	0	0	701	408	
14	0	0	0	0	720	408	
15	0	0	0	0	738	407	
0	0	0	0	0	754	408	
1	0	0	0	0	767	408	
2	0	0	0	0	780	408	
3	0	0	0	0	790	407	
4	0	0	0	0	799	407	
5	0	0	0	0	807	407	
6	0	0	0	0	815	408	
7	0	0	0	0	823	407	
8	0	0	0	0	829	408	
9	0	0	0	0	834	407	
10	0	0	0	0	839	408	
11	0	0	0	0	844	408	
12	0	0	0	0	847	408	
13	0	0	0	0	850	408	
14	0	0	0	0	853	408	
15	0	0	0	0	856	408	
0	0	0	0	0	857	408	
1	0	0	0	0	858	408	
2	0	0	0	0	859	408	
3	0	0	0	0	859	408	
4	0	0	0	0	859	408	
5	0	0	0	0	859	409	
6	0	0	0	0	857	408	
7	0	0	0	0	857	408	
8	0	0	0	0	855	408	
9	0	0	0	0	854	408	
10	0	0	0	0	852	408	
11	0	0	0	0	849	408	
12	0	0	0	0	848	408	
13	0	0	0	0	847	408	
14	0	0	0	0	846	408	
15	0	0	0	0	845	408	
0	0	0	0	0	843	407	
1	0	0	0	0	841	408	
2	0	0	0	0	839	409	
3	0	0	0	0	838	408	
4	0	0	0	0	835	408	
5	0	0	0	0	833	408	
6	0	0	0	0	831	409	
7	0	0	0	0	828	408	
8	0	0	0	0	825	408	
9	0	0	0	0	823	408	
10	0	0	0	0	820	409	
11	0	0	0	0	817	408	
12	0	0	0	0	814	408	
13	0	0	0	0	810	408	
14	0	0	0	0	807	409	
15	0	0	0	0	805	408	
0	0	0	0	0	803	408	
1	0	0	0	0	800	407	
2	0	0	0	0	798	409	
3	0	0	0	0	795	408	
4	0	0	0	0	793	408	
5	0	0	0	0	791	408	
6	0	0	0	0	789	409	
7	0	0	0	0	787	409	
8	0	0	0	0	784	409	
9	0	0	0	0	781	408	
10	0	0	0	0	778	410	
11	0	0	0	0	775	408	
12	0	0	0	0	772	409	
13	0	0	0	0	769	409	
14	0	0	0	0	765	409	
15	0	0	0	0	762	409	
0	0	0	0	0	759	409	
1	0	0	0	0	756	410	
2	0	0	0	0	753	410	
3	0	0	0	0	751	409	
4	0	0	0	0	748	409	
5	0	0	0	0	746	410	
6	0	0	0	0	743	410	
7	0	0	0	0	740	410	
8	0	0	0	0	738	410	
9	0	0	0	0	735	410	
10	0	0	0	0	732	411	
11	0	0	0	0	729	410	
12	0	0	0	0	726	411	
13	0	0	0	0	722	411	
14	0	0	0	0	719	411	
15	0	0	0	0	715	411	
0	0	0	0	0	711	411	
1	0	0	0	0	707	411	
2	0	0	0	0	703	412	
3	0	0	0	0	699	411	
4	0	0	0	0	694	411	
5	0	0	0	0	690	411	
6	0	0	0	0	686	412	
7	0	0	0	0	682	412	
8	0	0	0	0	678	412	
9	0	0	0	0	674	412	
10	0	0	0	0	671	413	
11	0	0	0	0	668	413	
12	0	0	0	0	665	412	
13	0	0	0	0	662	413	
14	0	0	0	0	659	413	
15	0	0	0	0	655	413	
0	0	0	0	0	653	412	
1	0	0	0	0	648	413	
2	0	0	0	0	645	414	
3	0	0	0	0	641	413	
4	0	0	0	0	638	413	
5	0	0	0	0	634	413	
6	0	0	0	0	631	413	
7	0	0	0	0	628	413	
8	0	0	0	0	624	413	
9	0	0	0	0	621	412	
10	0	0	0	0	618	414	
11	0	0	0	0	615	413	
12	0	0	0	0	614	413	
13	0	0	0	0	611	412	
14	0	0	0	0	608	413	
15	0	0	0	0	607	413	
0	0	0	0	0	605	413	
1	0	0	0	0	604	412	
2	0	0	0	0	601	413	
3	0	0	0	0	600	413	
4	0	0	0	0	597	412	
5	0	0	0	0	596	413	
6	0	0	0	0	593	412	
7	0	0	0	0	591	412	
8	0	0	0	0	588	412	
9	0	0	0	0	586	412	
10	0	0	0	0	583	413	
11	0	0	0	0	581	413	
12	0	0	0	0	577	413	
13	0	0	0	0	575	413	
14	0	0	0	0	572	413	
15	0	0	0	0	569	412	
0	0	0	0	0	568	412	
1	0	0	0	0	565	412	
2	0	0	0	0	563	412	
3	0	0	0	0	561	412	
4	0	0	0	0	559	412	
5	0	0	0	0	557	412	
6	0	0	0	0	554	412	
7	0	0	0	0	552	412	
8	0	0	0	0	550	412	
9	0	0	0	0	547	411	
10	0	0	0	0	544	412	
11	0	0	0	0	543	411	
12	0	0	0	0	540	411	
13	0	0	0	0	538	412	
14	0	0	0	0	535	411	
15	0	0	0	0	533	411	
0	0	0	0	0	531	411	
1	0	0	0	0	529	411	
2	0	0	0	0	528	412	
3	0	0	0	0	526	410	
4	0	0	0	0	525	411	
5	0	0	0	0	523	410	
6	0	0	0	0	522	411	
7	0	0	0	0	521	410	
8	0	0	0	0	519	410	
9	0	0	0	0	519	410	
10	0	0	0	0	517	411	
11	0	0	0	0	516	410	
12	0	0	0	0	515	411	
13	0	0	0	0	515	411	
14	0	0	0	0	514	410	
15	0	0	0	0	513	411	
0	0	0	0	0	513	411	
1	0	0	0	0	513	411	
2	0	0	0	0	512	411	
3	0	0	0	0	511	410	
4	0	0	0	0	510	410	
5	0	0	0	0	509	409	
6	0	0	0	0	509	410	
7	0	0	0	0	508	410	
8	0	0	0	0	508	409	
9	0	0	0	0	507	409	
10	0	0	0	0	507	410	
11	0	0	0	0	507	409	
12	0	0	0	0	506	410	
13	0	0	0	0	505	410	
14	0	0	0	0	505	411	
15	0	0	0	0	505	410	
0	0	0	0	0	504	410	
1	0	0	0	0	504	409	
2	0	0	0	0	503	411	
3	0	0	0	0	501	409	
4	0	0	0	0	500	409	
5	0	0	0	0	499	410	
6	0	0	0	0	498	410	
7	0	0	0	0	497	410	
8	0	0	0	0	496	410	
9	0	0	0	0	494	409	
10	0	0	0	0	493	410	
11	0	0	0	0	492	409	
12	0	0	0	0	491	409	
13	0	0	0	0	489	409	
14	0	0	0	0	487	409	
15	0	0	0	0	487	409	
0	0	0	0	0	485	409	
1	0	0	0	0	484	409	
2	0	0	0	0	483	411	
3	0	0	0	0	481	409	
4	0	0	0	0	480	409	
5	0	0	0	0	479	409	
6	0	0	0	0	478	409	
7	0	0	0	0	476	409	
8	0	0	0	0	475	408	
9	0	0	0	0	473	409	
10	0	0	0	0	472	409	
11	0	0	0	0	470	408	
12	0	0	0	0	468	409	
13	0	0	0	0	466	409	
14	0	0	0	0	464	409	
15	0	0	0	0	462	408	
0	0	0	0	0	461	408	
1	0	0	0	0	459	408	
2	0	0	0	0	457	409	
3	0	0	0	0	456	408	
4	0	0	0	0	456	408	
5	0	0	0	0	455	408	
6	0	0	0	0	455	408	
7	0	0	0	0	455	408	
8	0	0	0	0	455	408	
9	0	0	0	0	454	408	
10	0	0	0	0	454	409	
11	0	0	0	0	452	408	
12	0	0	0	0	451	408	
13	0	0	0	0	449	408	
14	0	0	0	0	446	408	
15	0	0	0	0	446	408	
0	0	0	0	0	446	408	
1	0	0	0	0	445	408	
2	0	0	0	0	445	408	
3	0	0	0	0	444	408	
4	0	0	0	0	444	408	
5	0	0	0	0	444	408	
6	0	0	0	0	443	408	
7	0	0	0	0	443	408	
8	0	0	0	0	443	408	
9	0	0	0	0	443	408	
10	0	0	0	0	443	408	
11	0	0	0	0	443	408	
12	0	0	0	0	443	408	
13	0	0	0	0	443	408	
14	0	0	0	0	444	408	
15	0	0	0	0	443	408	
0	0	0	0	0	443	408	
1	0	0	0	0	443	408	
2	0	0	0	0	442	408	
3	0	0	0	0	441	408	
4	0	0	0	0	441	408	
5	0	0	0	0	440	408	
6	0	0	0	0	440	408	
7	0	0	0	0	440	408	
8	0	0	0	0	441	408	
9	0	0	0	0	442	408	
10	0	0	0	0	441	409	
11	0	0	0	0	442	408	
12	0	0	0	0	443	409	
13	0	0	0	0	443	408	
14	0	0	0	0	443	409	
15	0	0	0	0	444	408	
0	0	0	0	0	444	408	
1	0	0	0	0	444	408	
2	0	0	0	0	443	409	
3	0	0	0	0	444	409	
4	0	0	0	0	444	408	
5	0	0	0	0	444	409	
6	0	0	0	0	444	409	
7	0	0	0	0	444	410	
8	0	0	0	0	444	409	
9	0	0	0	0	444	409	
10	0	0	0	0	444	409	
11	0	0	0	0	446	409	
12	0	0	0	0	448	409	
13	0	0	0	0	449	409	
14	0	0	0	0	449	410	
15	0	0	0	0	451	409	
0	0	0	0	0	452	409	
1	0	0	0	0	452	409	
2	0	0	0	0	453	410	
3	0	0	0	0	454	410	
4	0	0	0	0	454	410	
5	0	0	0	0	455	409	
6	0	0	0	0	455	411	
7	0	0	0	0	455	410	
8	0	0	0	0	456	409	
9	0	0	0	0	457	410	
10	0	0	0	0	457	411	
11	0	0	0	0	458	409	
12	0	0	0	0	457	409	
13	0	0	0	0	457	410	
14	0	0	0	0	458	410	
15	0	0	0	0	458	409	
0	0	0	0	0	459	409	
1	0	0	0	0	460	409	
2	0	0	0	0	460	410	
3	0	0	0	0	461	410	
4	0	0	0	0	461	410	
5	0	0	0	0	461	409	
6	0	0	0	0	462	410	
7	0	0	0	0	463	410	
8	0	0	0	0	463	409	
9	0	0	0	0	464	410	
10	0	0	0	0	464	410	
11	0	0	0	0	464	409	
12	0	0	0	0	463	410	
13	0	0	0	0	463	410	
14	0	0	0	0	462	410	
15	0	0	0	0	462	410	
0	0	0	0	0	462	409	
1	0	0	0	0	461	409	
2	0	0	0	0	460	411	
3	0	0	0	0	460	409	
4	0	0	0	0	459	410	
5	0	0	0	0	459	410	
6	0	0	0	0	458	410	
7	0	0	0	0	457	410	
8	0	0	0	0	457	409	
9	0	0	0	0	458	409	
10	0	0	0	0	457	410	
11	0	0	0	0	456	410	
12	0	0	0	0	455	410	
13	0	0	0	0	455	409	
14	0	0	0	0	454	410	
15	0	0	0	0	454	409	
0	0	0	0	0	453	409	
1	0	0	0	0	452	409	
2	0	0	0	0	451	410	
3	0	0	0	0	451	410	
4	0	0	0	0	449	409	
5	0	0	0	0	448	410	
6	0	0	0	0	447	409	
7	0	0	0	0	446	410	
8	0	0	0	0	445	410	
9	0	0	0	0	444	410	
10	0	0	0	0	444	410	
11	0	0	0	0	444	409	
12	0	0	0	0	443	409	
13	0	0	0	0	443	409	
14	0	0	0	0	446	409	
15	0	0	0	0	451	409	
0	0	0	0	0	457	408	
1	0	0	0	0	463	408	
2	0	0	0	0	470	409	
3	0	0	0	0	476	409	
4	0	0	0	0	482	409	
5	0	0	0	0	488	409	
6	0	0	0	0	494	410	
7	0	0	0	0	499	409	
8	0	0	0	0	504	409	
9	0	0	0	0	508	409	
10	0	0	0	0	511	409	
11	0	0	0	0	515	409	
12	0	0	0	0	519	409	
13	0	0	0	0	524	409	
14	0	0	0	0	528	409	
15	0	0	0	0	532	409	
0	0	0	0	0	536	409	
1	0	0	0	0	539	409	
2	0	0	0	0	543	410	
3	0	0	0	0	547	409	
4	0	0	0	0	551	410	
5	0	0	0	0	554	409	
6	0	0	0	0	557	410	
7	0	0	0	0	560	410	
8	0	0	0	0	562	409	
9	0	0	0	0	564	410	
10	0	0	0	0	566	410	
11	0	0	0	0	568	410	
12	0	0	0	0	569	409	
13	0	0	0	0	571	410	
14	0	0	0	0	572	410	
15	0	0	0	0	574	410	
0	0	0	0	0	575	409	
1	0	0	0	0	577	409	
2	0	0	0	0	579	411	
3	0	0	0	0	580	410	
4	0	0	0	0	581	410	
5	0	0	0	0	582	410	
6	0	0	0	0	583	411	
7	0	0	0	0	584	411	
8	0	0	0	0	584	411	
9	0	0	0	0	584	411	
10	0	0	0	0	584	412	
11	0	0	0	0	585	411	
12	0	0	0	0	585	411	
13	0	0	0	0	585	411	
14	0	0	0	0	584	411	
15	0	0	0	0	584	411	
0	0	0	0	0	583	411	
1	0	0	0	0	583	411	
2	0	0	0	0	583	412	
3	0	0	0	0	582	411	
4	0	0	0	0	582	411	
5	0	0	0	0	582	412	
6	0	0	0	0	582	411	
7	0	0	0	0	582	411	
8	0	0	0	0	581	412	
9	0	0	0	0	580	412	
10	0	0	0	0	579	412	
11	0	0	0	0	579	412	
12	0	0	0	0	578	412	
13	0	0	0	0	577	412	
14	0	0	0	0	577	412	
15	0	0	0	0	575	412	
0	0	0	0	0	574	411	
1	0	0	0	0	573	412	
2	0	0	0	0	572	412	
3	0	0	0	0	572	411	
4	0	0	0	0	571	412	
5	0	0	0	0	570	412	
6	0	0	0	0	569	412	
7	0	0	0	0	568	412	
8	0	0	0	0	568	412	
9	0	0	0	0	568	412	
10	0	0	0	0	568	412	
11	0	0	0	0	567	412	
12	0	0	0	0	566	411	
13	0	0	0	0	565	412	
14	0	0	0	0	565	412	
15	0	0	0	0	564	412	
0	0	0	0	0	563	412	
1	0	0	0	0	562	412	
2	0	0	0	0	560	412	
3	0	0	0	0	559	412	
4	0	0	0	0	558	412	
5	0	0	0	0	558	412	
6	0	0	0	0	557	412	
7	0	0	0	0	556	412	
8	0	0	0	0	555	412	
9	0	0	0	0	553	411	
10	0	0	0	0	552	412	
11	0	0	0	0	551	411	
12	0	0	0	0	550	412	
13	0	0	0	0	549	412	
14	0	0	0	0	548	412	
15	0	0	0	0	547	412	
0	0	0	0	0	546	412	
1	0	0	0	0	545	412	
2	0	0	0	0	545	412	
3	0	0	0	0	544	413	
4	0	0	0	0	543	412	
5	0	0	0	0	543	412	
6	0	0	0	0	542	413	
7	0	0	0	0	542	412	
8	0	0	0	0	542	412	
9	0	0	0	0	541	413	
10	0	0	0	0	540	413	
11	0	0	0	0	539	413	
12	0	0	0	0	537	413	
13	0	0	0	0	537	412	
14	0	0	0	0	536	412	
15	0	0	0	0	535	412	
0	0	0	0	0	534	412	
1	0	0	0	0	534	412	
2	0	0	0	0	533	413	
3	0	0	0	0	532	412	
4	0	0	0	0	532	412	
5	0	0	0	0	531	412	
6	0	0	0	0	531	413	
7	0	0	0	0	530	413	
8	0	0	0	0	528	412	
9	0	0	0	0	527	412	
10	0	0	0	0	526	413	
11	0	0	0	0	525	412	
12	0	0	0	0	524	412	
13	0	0	0	0	523	412	
14	0	0	0	0	523	412	
15	0	0	0	0	522	412	
0	0	0	0	0	520	413	
1	0	0	0	0	518	412	
2	0	0	0	0	516	413	
3	0	0	0	0	515	412	
4	0	0	0	0	514	412	
5	0	0	0	0	513	412	
6	0	0	0	0	512	413	
7	0	0	0	0	511	412	
8	0	0	0	0	510	412	
9	0	0	0	0	508	412	
10	0	0	0	0	507	412	
11	0	0	0	0	505	412	
12	0	0	0	0	504	412	
13	0	0	0	0	502	412	
14	0	0	0	0	500	412	
15	0	0	0	0	498	412	
0	0	0	0	0	496	411	
1	0	0	0	0	493	412	
2	0	0	0	0	490	412	
3	0	0	0	0	487	411	
4	0	0	0	0	484	411	
5	0	0	0	0	481	412	
6	0	0	0	0	477	412	
7	0	0	0	0	474	411	
8	0	0	0	0	470	412	
9	0	0	0	0	467	411	
10	0	0	0	0	465	412	
11	0	0	0	0	465	411	
12	0	0	0	0	464	411	
13	0	0	0	0	464	412	
14	0	0	0	0	464	411	
15	0	0	0	0	465	411	
0	0	0	0	0	466	411	
1	0	0	0	0	468	411	
2	0	0	0	0	470	411	
3	0	0	0	0	473	411	
4	0	0	0	0	478	411	
5	0	0	0	0	483	411	
6	0	0	0	0	490	410	
7	0	0	0	0	496	410	
8	0	0	0	0	504	410	
9	0	0	0	0	512	411	
10	0	0	0	0	520	410	
11	0	0	0	0	529	409	
12	0	0	0	0	538	410	
13	0	0	0	0	546	409	
14	0	0	0	0	554	410	
15	0	0	0	0	562	409	
0	0	0	0	0	569	409	
1	0	0	0	0	577	409	
2	0	0	0	0	584	409	
3	0	0	0	0	590	408	
4	0	0	0	0	595	409	
5	0	0	0	0	600	408	
6	0	0	0	0	604	409	
7	0	0	0	0	606	408	
8	0	0	0	0	607	408	
9	0	0	0	0	606	408	
10	0	0	0	0	603	408	
11	0	0	0	0	598	408	
12	0	0	0	0	590	408	
13	0	0	0	0	577	408	
14	0	0	0	0	561	408	
15	0	0	0	0	544	408	
0	0	0	0	0	529	409	
1	0	0	0	0	516	409	
2	0	0	0	0	506	408	
3	0	0	0	0	497	408	
4	0	0	0	0	490	408	
5	0	0	0	0	483	408	
6	0	0	0	0	478	409	
7	0	0	0	0	472	408	
8	0	0	0	0	468	408	
9	0	0	0	0	463	407	
10	0	0	0	0	458	408	
11	0	0	0	0	455	408	
12	0	0	0	0	451	408	
13	0	0	0	0	447	408	
14	0	0	0	0	443	408	
15	0	0	0	0	439	407	
0	0	0	0	0	436	407	
1	0	0	0	0	433	407	
2	0	0	0	0	430	408	
3	0	0	0	0	427	407	
4	0	0	0	0	423	408	
5	0	0	0	0	421	408	
6	0	0	0	0	418	408	
7	0	0	0	0	417	408	
8	0	0	0	0	416	408	
9	0	0	0	0	414	408	
10	0	0	0	0	414	408	
11	0	0	0	0	413	407	
12	0	0	0	0	412	408	
13	0	0	0	0	412	408	
14	0	0	0	0	411	408	
15	0	0	0	0	410	408	
0	0	0	0	0	409	408	
1	0	0	0	0	409	408	
2	0	0	0	0	408	408	
3	0	0	0	0	408	408	
4	0	0	0	0	408	408	
5	0	0	0	0	406	408	
6	0	0	0	0	406	408	
7	0	0	0	0	406	408	
8	0	0	0	0	405	408	
9	0	0	0	0	405	408	
10	0	0	0	0	405	408	
11	0	0	0	0	406	408	
12	0	0	0	0	406	408	
13	0	0	0	0	406	408	
14	0	0	0	0	406	408	
15	0	0	0	0	407	408	
0	0	0	0	0	407	408	
1	0	0	0	0	408	408	
2	0	0	0	0	408	409	
3	0	0	0	0	410	408	
4	0	0	0	0	410	408	
5	0	0	0	0	410	408	
6	0	0	0	0	411	409	
7	0	0	0	0	411	408	
8	0	0	0	0	411	408	
9	0	0	0	0	411	408	
10	0	0	0	0	411	409	
11	0	0	0	0	411	409	
12	0	0	0	0	411	409	
13	0	0	0	0	412	408	
14	0	0	0	0	412	409	
15	0	0	0	0	412	409	
0	0	0	0	0	413	408	
1	0	0	0	0	413	408	
2	0	0	0	0	414	409	
3	0	0	0	0	414	408	
4	0	0	0	0	414	408	
5	0	0	0	0	415	408	
6	0	0	0	0	415	409	
7	0	0	0	0	414	408	
8	0	0	0	0	413	408	
9	0	0	0	0	412	408	
10	0	0	0	0	412	409	
11	0	0	0	0	412	408	
12	0	0	0	0	411	408	
13	0	0	0	0	410	408	
14	0	0	0	0	410	409	
15	0	0	0	0	410	409	
0	0	0	0	0	410	408	
1	0	0	0	0	411	408	
2	0	0	0	0	412	409	
3	0	0	0	0	412	409	
4	0	0	0	0	413	409	
5	0	0	0	0	414	409	
6	0	0	0	0	415	409	
7	0	0	0	0	416	409	
8	0	0	0	0	417	410	
9	0	0	0	0	419	410	
10	0	0	0	0	420	410	
11	0	0	0	0	422	409	
12	0	0	0	0	424	409	
13	0	0	0	0	425	409	
14	0	0	0	0	427	409	
15	0	0	0	0	429	410	
0	0	0	0	0	431	410	
1	0	0	0	0	433	410	
2	0	0	0	0	436	411	
3	0	0	0	0	438	410	
4	0	0	0	0	440	409	
5	0	0	0	0	444	410	
6	0	0	0	0	447	410	
7	0	0	0	0	451	410	
8	0	0	0	0	454	410	
9	0	0	0	0	457	410	
10	0	0	0	0	460	411	
11	0	0	0	0	463	410	
12	0	0	0	0	466	411	
13	0	0	0	0	469	410	
14	0	0	0	0	472	411	
15	0	0	0	0	474	411	
0	0	0	0	0	475	411	
1	0	0	0	0	476	410	
2	0	0	0	0	477	411	
3	0	0	0	0	478	410	
4	0	0	0	0	478	411	
5	0	0	0	0	478	411	
6	0	0	0	0	478	411	
7	0	0	0	0	479	411	
8	0	0	0	0	480	411	
9	0	0	0	0	480	411	
10	0	0	0	0	481	412	
11	0	0	0	0	483	411	
12	0	0	0	0	484	411	
13	0	0	0	0	484	411	
14	0	0	0	0	486	411	
15	0	0	0	0	486	411	
0	0	0	0	0	487	411	
1	0	0	0	0	486	411	
2	0	0	0	0	486	411	
3	0	0	0	0	486	410	
4	0	0	0	0	485	411	
5	0	0	0	0	484	410	
6	0	0	0	0	484	410	
7	0	0	0	0	483	409	
8	0	0	0	0	482	411	
9	0	0	0	0	482	409	
10	0	0	0	0	481	411	
11	0	0	0	0	480	410	
12	0	0	0	0	480	410	
13	0	0	0	0	479	410	
14	0	0	0	0	479	410	
15	0	0	0	0	479	409	
0	0	0	0	0	479	408	
1	0	0	0	0	479	409	
2	0	0	0	0	478	409	
3	0	0	0	0	476	408	
4	0	0	0	0	475	408	
5	0	0	0	0	473	409	
6	0	0	0	0	472	408	
7	0	0	0	0	470	408	
8	0	0	0	0	468	409	
9	0	0	0	0	467	408	
10	0	0	0	0	465	409	
11	0	0	0	0	463	408	
12	0	0	0	0	462	408	
13	0	0	0	0	460	408	
14	0	0	0	0	458	408	
15	0	0	0	0	456	408	
0	0	0	0	0	455	408	
1	0	0	0	0	454	408	
2	0	0	0	0	453	409	
3	0	0	0	0	452	408	
4	0	0	0	0	452	408	
5	0	0	0	0	451	408	
6	0	0	0	0	451	408	
7	0	0	0	0	451	408	
8	0	0	0	0	449	408	
9	0	0	0	0	449	408	
10	0	0	0	0	449	409	
11	0	0	0	0	448	408	
12	0	0	0	0	447	408	
13	0	0	0	0	446	408	
14	0	0	0	0	445	409	
15	0	0	0	0	443	408	
0	0	0	0	0	442	409	
1	0	0	0	0	442	409	
2	0	0	0	0	441	410	
3	0	0	0	0	440	409	
4	0	0	0	0	439	410	
5	0	0	0	0	438	409	
6	0	0	0	0	436	410	
7	0	0	0	0	435	409	
8	0	0	0	0	434	410	
9	0	0	0	0	434	411	
10	0	0	0	0	433	412	
11	0	0	0	0	432	411	
12	0	0	0	0	431	411	
13	0	0	0	0	430	412	
14	0	0	0	0	428	412	
15	0	0	0	0	427	412	
0	0	0	0	0	425	412	
1	0	0	0	0	424	412	
2	0	0	0	0	423	413	
3	0	0	0	0	421	412	
4	0	0	0	0	419	412	
5	0	0	0	0	417	412	
6	0	0	0	0	416	413	
7	0	0	0	0	414	412	
8	0	0	0	0	412	412	
9	0	0	0	0	411	413	
10	0	0	0	0	410	414	
11	0	0	0	0	409	412	
12	0	0	0	0	409	412	
13	0	0	0	0	408	413	
14	0	0	0	0	408	413	
15	0	0	0	0	407	413	
0	0	0	0	0	407	412	
1	0	0	0	0	407	412	
2	0	0	0	0	406	413	
3	0	0	0	0	405	412	
4	0	0	0	0	405	412	
5	0	0	0	0	404	411	
6	0	0	0	0	403	412	
7	0	0	0	0	402	411	
8	0	0	0	0	402	411	
9	0	0	0	0	402	411	
10	0	0	0	0	402	412	
11	0	0	0	0	402	411	
12	0	0	0	0	402	411	
13	0	0	0	0	402	411	
14	0	0	0	0	403	411	
15	0	0	0	0	404	410	
0	0	0	0	0	404	410	
1	0	0	0	0	405	410	
2	0	0	0	0	405	411	
3	0	0	0	0	406	411	
4	0	0	0	0	406	411	
5	0	0	0	0	405	410	
6	0	0	0	0	406	411	
7	0	0	0	0	406	410	
8	0	0	0	0	406	410	
9	0	0	0	0	406	411	
10	0	0	0	0	405	412	
11	0	0	0	0	405	411	
12	0	0	0	0	405	410	
13	0	0	0	0	405	410	
14	0	0	0	0	405	411	
15	0	0	0	0	404	409	
0	0	0	0	0	404	410	
1	0	0	0	0	405	410	
2	0	0	0	0	404	411	
3	0	0	0	0	404	410	
4	0	0	0	0	403	411	
5	0	0	0	0	403	411	
6	0	0	0	0	403	411	
7	0	0	0	0	403	411	
8	0	0	0	0	403	411	
9	0	0	0	0	402	411	
10	0	0	0	0	401	412	
11	0	0	0	0	400	411	
12	0	0	0	0	399	412	
13	0	0	0	0	398	411	
14	0	0	0	0	398	412	
15	0	0	0	0	397	412	
0	0	0	0	0	397	412	
1	0	0	0	0	396	411	
2	0	0	0	0	394	413	
3	0	0	0	0	393	412	
4	0	0	0	0	392	412	
5	0	0	0	0	391	412	
6	0	0	0	0	390	412	
7	0	0	0	0	389	412	
8	0	0	0	0	389	411	
9	0	0	0	0	388	412	
10	0	0	0	0	388	412	
11	0	0	0	0	387	412	
12	0	0	0	0	387	411	
13	0	0	0	0	387	411	
14	0	0	0	0	387	411	
15	0	0	0	0	386	411	
0	0	0	0	0	386	411	
1	0	0	0	0	385	411	
2	0	0	0	0	385	412	
3	0	0	0	0	384	411	
4	0	0	0	0	384	411	
5	0	0	0	0	384	411	
6	0	0	0	0	383	412	
7	0	0	0	0	383	411	
8	0	0	0	0	383	410	
9	0	0	0	0	382	409	
10	0	0	0	0	382	411	
11	0	0	0	0	382	409	
12	0	0	0	0	381	410	
13	0	0	0	0	380	410	
14	0	0	0	0	381	410	
15	0	0	0	0	381	410	
0	0	0	0	0	381	409	
1	0	0	0	0	381	409	
2	0	0	0	0	381	410	
3	0	0	0	0	381	409	
4	0	0	0	0	380	409	
5	0	0	0	0	380	408	
6	0	0	0	0	380	409	
7	0	0	0	0	379	409	
8	0	0	0	0	379	409	
9	0	0	0	0	377	409	
10	0	0	0	0	376	409	
11	0	0	0	0	375	408	
12	0	0	0	0	374	408	
13	0	0	0	0	373	409	
14	0	0	0	0	372	408	
15	0	0	0	0	371	408	
0	0	0	0	0	372	409	
1	0	0	0	0	371	409	
2	0	0	0	0	371	409	
3	0	0	0	0	371	409	
4	0	0	0	0	371	408	
5	0	0	0	0	371	408	
6	0	0	0	0	370	409	
7	0	0	0	0	369	408	
8	0	0	0	0	369	408	
9	0	0	0	0	368	409	
10	0	0	0	0	367	409	
11	0	0	0	0	366	408	
12	0	0	0	0	365	408	
13	0	0	0	0	365	408	
14	0	0	0	0	365	409	
15	0	0	0	0	365	408	
0	0	0	0	0	364	408	
1	0	0	0	0	365	408	
2	0	0	0	0	365	409	
3	0	0	0	0	365	409	
4	0	0	0	0	365	409	
5	0	0	0	0	366	408	
6	0	0	0	0	368	409	
7	0	0	0	0	369	409	
8	0	0	0	0	371	408	
9	0	0	0	0	370	409	
10	0	0	0	0	370	409	
11	0	0	0	0	370	408	
12	0	0	0	0	370	409	
13	0	0	0	0	370	409	
14	0	0	0	0	370	409	
15	0	0	0	0	370	408	
0	0	0	0	0	370	408	
1	0	0	0	0	371	408	
2	0	0	0	0	371	409	
3	0	0	0	0	372	409	
4	0	0	0	0	374	408	
5	0	0	0	0	374	409	
6	0	0	0	0	375	409	
7	0	0	0	0	376	409	
8	0	0	0	0	377	409	
9	0	0	0	0	377	409	
10	0	0	0	0	379	409	
11	0	0	0	0	380	409	
12	0	0	0	0	380	409	
13	0	0	0	0	380	409	
14	0	0	0	0	381	409	
15	0	0	0	0	382	409	
0	0	0	0	0	382	409	
1	0	0	0	0	382	409	
2	0	0	0	0	383	410	
3	0	0	0	0	382	409	
4	0	0	0	0	382	408	
5	0	0	0	0	382	409	
6	0	0	0	0	381	409	
7	0	0	0	0	382	409	
8	0	0	0	0	382	409	
9	0	0	0	0	382	409	
10	0	0	0	0	382	411	
11	0	0	0	0	382	409	
12	0	0	0	0	382	409	
13	0	0	0	0	382	409	
14	0	0	0	0	383	409	
15	0	0	0	0	383	410	
0	0	0	0	0	384	409	
1	0	0	0	0	385	409	
2	0	0	0	0	385	410	
3	0	0	0	0	385	409	
4	0	0	0	0	384	410	
5	0	0	0	0	384	409	
6	0	0	0	0	384	409	
7	0	0	0	0	384	409	
8	0	0	0	0	385	410	
9	0	0	0	0	386	410	
10	0	0	0	0	387	410	
11	0	0	0	0	387	410	
12	0	0	0	0	388	410	
13	0	0	0	0	389	410	
14	0	0	0	0	391	410	
15	0	0	0	0	392	410	
0	0	0	0	0	393	410	
1	0	0	0	0	394	410	
2	0	0	0	0	396	411	
3	0	0	0	0	398	409	
4	0	0	0	0	399	410	
5	0	0	0	0	400	410	
6	0	0	0	0	401	411	
7	0	0	0	0	402	410	
8	0	0	0	0	403	411	
9	0	0	0	0	403	410	
10	0	0	0	0	405	412	
11	0	0	0	0	405	410	
12	0	0	0	0	406	411	
13	0	0	0	0	407	410	
14	0	0	0	0	408	411	
15	0	0	0	0	408	412	
0	0	0	0	0	409	411	
1	0	0	0	0	410	412	
2	0	0	0	0	412	412	
3	0	0	0	0	413	411	
4	0	0	0	0	415	411	
5	0	0	0	0	416	411	
6	0	0	0	0	417	411	
7	0	0	0	0	419	411	
8	0	0	0	0	421	411	
9	0	0	0	0	422	411	
10	0	0	0	0	422	411	
11	0	0	0	0	423	412	
12	0	0	0	0	424	411	
13	0	0	0	0	425	411	
14	0	0	0	0	426	412	
15	0	0	0	0	427	412	
0	0	0	0	0	427	411	
1	0	0	0	0	427	411	
2	0	0	0	0	428	412	
3	0	0	0	0	429	412	
4	0	0	0	0	430	411	
5	0	0	0	0	431	411	
6	0	0	0	0	432	411	
7	0	0	0	0	434	410	
8	0	0	0	0	435	411	
9	0	0	0	0	437	411	
10	0	0	0	0	438	411	
11	0	0	0	0	440	411	
12	0	0	0	0	442	410	
13	0	0	0	0	444	410	
14	0	0	0	0	445	410	
15	0	0	0	0	447	409	
0	0	0	0	0	448	409	
1	0	0	0	0	448	410	
2	0	0	0	0	449	410	
3	0	0	0	0	450	409	
4	0	0	0	0	451	409	
5	0	0	0	0	451	409	
6	0	0	0	0	452	410	
7	0	0	0	0	453	409	
8	0	0	0	0	454	409	
9	0	0	0	0	456	410	
10	0	0	0	0	457	410	
11	0	0	0	0	459	410	
12	0	0	0	0	460	409	
13	0	0	0	0	461	410	
14	0	0	0	0	462	411	
15	0	0	0	0	463	410	
0	0	0	0	0	463	410	
1	0	0	0	0	464	410	
2	0	0	0	0	465	411	
3	0	0	0	0	465	411	
4	0	0	0	0	466	411	
5	0	0	0	0	466	411	
6	0	0	0	0	466	411	
7	0	0	0	0	465	411	
8	0	0	0	0	465	411	
9	0	0	0	0	465	411	
10	0	0	0	0	464	412	
11	0	0	0	0	464	411	
12	0	0	0	0	464	412	
13	0	0	0	0	464	411	
14	0	0	0	0	464	411	
15	0	0	0	0	463	411	
0	0	0	0	0	462	411	
1	0	0	0	0	462	411	
2	0	0	0	0	462	411	
3	0	0	0	0	462	411	
4	0	0	0	0	462	411	
5	0	0	0	0	461	411	
6	0	0	0	0	461	411	
7	0	0	0	0	461	411	
8	0	0	0	0	460	411	
9	0	0	0	0	460	411	
10	0	0	0	0	459	411	
11	0	0	0	0	457	411	
12	0	0	0	0	457	411	
13	0	0	0	0	456	411	
14	0	0	0	0	455	411	
15	0	0	0	0	455	411	
0	0	0	0	0	456	411	
1	0	0	0	0	456	410	
2	0	0	0	0	457	411	
3	0	0	0	0	457	411	
4	0	0	0	0	457	411	
5	0	0	0	0	457	411	
6	0	0	0	0	458	411	
7	0	0	0	0	459	411	
8	0	0	0	0	459	411	
9	0	0	0	0	460	411	
10	0	0	0	0	459	411	
11	0	0	0	0	459	411	
12	0	0	0	0	458	411	
13	0	0	0	0	459	410	
14	0	0	0	0	458	410	
15	0	0	0	0	458	410	
0	0	0	0	0	458	409	
1	0	0	0	0	457	409	
2	0	0	0	0	456	410	
3	0	0	0	0	455	409	
4	0	0	0	0	456	408	
5	0	0	0	0	457	409	
6	0	0	0	0	457	409	
7	0	0	0	0	458	408	
8	0	0	0	0	459	409	
9	0	0	0	0	465	408	
10	0	0	0	0	475	408	
11	0	0	0	0	487	408	
12	0	0	0	0	498	408	
13	0	0	0	0	508	408	
14	0	0	0	0	519	408	
15	0	0	0	0	528	408	
0	0	0	0	0	537	408	
1	0	0	0	0	546	408	
2	0	0	0	0	553	408	
3	0	0	0	0	560	409	
4	0	0	0	0	566	408	
5	0	0	0	0	571	408	
6	0	0	0	0	576	408	
7	0	0	0	0	580	408	
8	0	0	0	0	585	408	
9	0	0	0	0	588	408	
10	0	0	0	0	591	408	
11	0	0	0	0	594	408	
12	0	0	0	0	597	408	
13	0	0	0	0	600	408	
14	0	0	0	0	604	409	
15	0	0	0	0	611	409	
0	0	0	0	0	619	409	
1	0	0	0	0	627	409	
2	0	0	0	0	633	410	
3	0	0	0	0	639	409	
4	0	0	0	0	645	409	
5	0	0	0	0	651	409	
6	0	0	0	0	655	409	
7	0	0	0	0	659	409	
8	0	0	0	0	663	409	
9	0	0	0	0	665	409	
10	0	0	0	0	668	409	
11	0	0	0	0	671	409	
12	0	0	0	0	674	409	
13	0	0	0	0	676	409	
14	0	0	0	0	678	410	
15	0	0	0	0	679	409	
0	0	0	0	0	682	409	
1	0	0	0	0	685	410	
2	0	0	0	0	687	410	
3	0	0	0	0	689	410	
4	0	0	0	0	690	410	
5	0	0	0	0	692	410	
6	0	0	0	0	694	410	
7	0	0	0	0	695	411	
8	0	0	0	0	696	410	
9	0	0	0	0	697	409	
10	0	0	0	0	699	411	
11	0	0	0	0	700	411	
12	0	0	0	0	700	410	
13	0	0	0	0	702	410	
14	0	0	0	0	702	411	
15	0	0	0	0	702	411	
0	0	0	0	0	702	410	
1	0	0	0	0	702	410	
2	0	0	0	0	702	410	
3	0	0	0	0	702	410	
4	0	0	0	0	701	410	
5	0	0	0	0	700	410	
6	0	0	0	0	699	410	
7	0	0	0	0	698	409	
8	0	0	0	0	696	409	
9	0	0	0	0	694	409	
10	0	0	0	0	693	410	
11	0	0	0	0	692	409	
12	0	0	0	0	690	409	
13	0	0	0	0	688	409	
14	0	0	0	0	686	409	
15	0	0	0	0	684	409	
0	0	0	0	0	681	408	
1	0	0	0	0	678	409	
2	0	0	0	0	676	409	
3	0	0	0	0	673	409	
4	0	0	0	0	671	409	
5	0	0	0	0	670	409	
6	0	0	0	0	668	409	
7	0	0	0	0	667	409	
8	0	0	0	0	665	409	
9	0	0	0	0	664	409	
10	0	0	0	0	663	410	
11	0	0	0	0	662	409	
12	0	0	0	0	661	409	
13	0	0	0	0	660	409	
14	0	0	0	0	659	409	
15	0	0	0	0	657	409	
0	0	0	0	0	655	409	
1	0	0	0	0	653	410	
2	0	0	0	0	651	410	
3	0	0	0	0	648	409	
4	0	0	0	0	646	409	
5	0	0	0	0	644	409	
6	0	0	0	0	641	409	
7	0	0	0	0	639	409	
8	0	0	0	0	637	409	
9	0	0	0	0	635	409	
10	0	0	0	0	632	409	
11	0	0	0	0	630	409	
12	0	0	0	0	627	409	
13	0	0	0	0	626	409	
14	0	0	0	0	624	410	
15	0	0	0	0	622	409	
0	0	0	0	0	620	410	
1	0	0	0	0	618	409	
2	0	0	0	0	615	410	
3	0	0	0	0	613	410	
4	0	0	0	0	611	410	
5	0	0	0	0	608	410	
6	0	0	0	0	607	410	
7	0	0	0	0	604	409	
8	0	0	0	0	601	410	
9	0	0	0	0	598	409	
10	0	0	0	0	596	409	
11	0	0	0	0	595	409	
12	0	0	0	0	593	409	
13	0	0	0	0	592	410	
14	0	0	0	0	591	409	
15	0	0	0	0	590	409	
0	0	0	0	0	590	409	
1	0	0	0	0	589	409	
2	0	0	0	0	588	410	
3	0	0	0	0	587	409	
4	0	0	0	0	585	409	
5	0	0	0	0	583	409	
6	0	0	0	0	582	409	
7	0	0	0	0	580	409	
8	0	0	0	0	578	410	
9	0	0	0	0	576	410	
10	0	0	0	0	575	411	
11	0	0	0	0	574	410	
12	0	0	0	0	572	410	
13	0	0	0	0	571	410	
14	0	0	0	0	569	411	
15	0	0	0	0	568	410	
0	0	0	0	0	567	410	
1	0	0	0	0	566	409	
2	0	0	0	0	564	411	
3	0	0	0	0	564	410	
4	0	0	0	0	562	410	
5	0	0	0	0	561	410	
6	0	0	0	0	560	411	
7	0	0	0	0	560	410	
8	0	0	0	0	560	410	
9	0	0	0	0	559	410	
10	0	0	0	0	559	411	
11	0	0	0	0	559	410	
12	0	0	0	0	558	410	
13	0	0	0	0	559	411	
14	0	0	0	0	559	411	
15	0	0	0	0	559	410	
0	0	0	0	0	558	410	
1	0	0	0	0	557	411	
2	0	0	0	0	556	411	
3	0	0	0	0	556	411	
4	0	0	0	0	557	411	
5	0	0	0	0	557	410	
6	0	0	0	0	557	411	
7	0	0	0	0	556	411	
8	0	0	0	0	555	411	
9	0	0	0	0	554	411	
10	0	0	0	0	554	412	
11	0	0	0	0	553	412	
12	0	0	0	0	553	412	
13	0	0	0	0	554	412	
14	0	0	0	0	553	412	
15	0	0	0	0	553	412	
0	0	0	0	0	553	411	
1	0	0	0	0	552	411	
2	0	0	0	0	551	412	
3	0	0	0	0	550	411	
4	0	0	0	0	548	411	
5	0	0	0	0	547	411	
6	0	0	0	0	547	411	
7	0	0	0	0	547	410	
8	0	0	0	0	546	411	
9	0	0	0	0	545	411	
10	0	0	0	0	545	411	
11	0	0	0	0	544	411	
12	0	0	0	0	545	411	
13	0	0	0	0	544	410	
14	0	0	0	0	543	411	
15	0	0	0	0	543	411	
0	0	0	0	0	543	410	
1	0	0	0	0	542	410	
2	0	0	0	0	539	412	
3	0	0	0	0	538	411	
4	0	0	0	0	537	411	
5	0	0	0	0	536	411	
6	0	0	0	0	534	411	
7	0	0	0	0	533	411	
8	0	0	0	0	532	411	
9	0	0	0	0	531	411	
10	0	0	0	0	531	411	
11	0	0	0	0	530	411	
12	0	0	0	0	529	411	
13	0	0	0	0	529	410	
14	0	0	0	0	529	411	
15	0	0	0	0	528	411	
0	0	0	0	0	528	410	
1	0	0	0	0	527	410	
2	0	0	0	0	527	410	
3	0	0	0	0	527	409	
4	0	0	0	0	527	409	
5	0	0	0	0	526	409	
6	0	0	0	0	525	410	
7	0	0	0	0	524	409	
8	0	0	0	0	523	409	
9	0	0	0	0	522	409	
10	0	0	0	0	521	410	
11	0	0	0	0	520	409	
12	0	0	0	0	519	409	
13	0	0	0	0	518	410	
14	0	0	0	0	516	409	
15	0	0	0	0	515	410	
0	0	0	0	0	514	409	
1	0	0	0	0	513	410	
2	0	0	0	0	512	410	
3	0	0	0	0	511	410	
4	0	0	0	0	511	409	
5	0	0	0	0	510	409	
6	0	0	0	0	510	409	
7	0	0	0	0	509	409	
8	0	0	0	0	509	408	
9	0	0	0	0	508	408	
10	0	0	0	0	507	408	
11	0	0	0	0	506	408	
12	0	0	0	0	505	409	
13	0	0	0	0	504	409	
14	0	0	0	0	504	408	
15	0	0	0	0	503	408	
0	0	0	0	0	502	408	
1	0	0	0	0	499	408	
2	0	0	0	0	498	408	
3	0	0	0	0	496	408	
4	0	0	0	0	495	408	
5	0	0	0	0	494	408	
6	0	0	0	0	493	408	
7	0	0	0	0	493	408	
8	0	0	0	0	492	409	
9	0	0	0	0	492	408	
10	0	0	0	0	492	409	
11	0	0	0	0	491	409	
12	0	0	0	0	491	408	
13	0	0	0	0	490	409	
14	0	0	0	0	489	408	
15	0	0	0	0	488	408	
0	0	0	0	0	487	408	
1	0	0	0	0	486	409	
2	0	0	0	0	484	409	
3	0	0	0	0	483	408	
4	0	0	0	0	481	408	
5	0	0	0	0	480	409	
6	0	0	0	0	479	409	
7	0	0	0	0	478	409	
8	0	0	0	0	477	409	
9	0	0	0	0	476	408	
10	0	0	0	0	476	409	
11	0	0	0	0	475	409	
12	0	0	0	0	475	409	
13	0	0	0	0	475	409	
14	0	0	0	0	475	409	
15	0	0	0	0	474	409	
0	0	0	0	0	474	410	
1	0	0	0	0	474	408	
2	0	0	0	0	474	409	
3	0	0	0	0	473	409	
4	0	0	0	0	472	410	
5	0	0	0	0	472	409	
6	0	0	0	0	472	410	
7	0	0	0	0	472	410	
8	0	0	0	0	471	410	
9	0	0	0	0	470	409	
10	0	0	0	0	469	411	
11	0	0	0	0	468	409	
12	0	0	0	0	467	409	
13	0	0	0	0	466	410	
14	0	0	0	0	465	411	
15	0	0	0	0	464	410	
0	0	0	0	0	462	410	
1	0	0	0	0	461	409	
2	0	0	0	0	459	410	
3	0	0	0	0	457	410	
4	0	0	0	0	455	409	
5	0	0	0	0	454	410	
6	0	0	0	0	451	411	
7	0	0	0	0	449	410	
8	0	0	0	0	448	410	
9	0	0	0	0	447	410	
10	0	0	0	0	446	410	
11	0	0	0	0	446	411	
12	0	0	0	0	446	409	
13	0	0	0	0	448	409	
14	0	0	0	0	449	410	
15	0	0	0	0	452	410	
0	0	0	0	0	455	410	
1	0	0	0	0	460	409	
2	0	0	0	0	467	411	
3	0	0	0	0	475	409	
4	0	0	0	0	483	410	
5	0	0	0	0	491	409	
6	0	0	0	0	499	411	
7	0	0	0	0	508	410	
8	0	0	0	0	518	411	
9	0	0	0	0	527	409	
10	0	0	0	0	536	411	
11	0	0	0	0	545	410	
12	0	0	0	0	553	410	
13	0	0	0	0	561	410	
14	0	0	0	0	569	411	
15	0	0	0	0	577	410	
0	0	0	0	0	584	411	
1	0	0	0	0	590	411	
2	0	0	0	0	596	411	
3	0	0	0	0	601	411	
4	0	0	0	0	604	410	
5	0	0	0	0	606	411	
6	0	0	0	0	607	411	
7	0	0	0	0	607	410	
8	0	0	0	0	604	411	
9	0	0	0	0	600	411	
10	0	0	0	0	592	411	
11	0	0	0	0	581	411	
12	0	0	0	0	567	410	
13	0	0	0	0	550	410	
14	0	0	0	0	537	411	
15	0	0	0	0	526	410	
0	0	0	0	0	518	410	
1	0	0	0	0	511	410	
2	0	0	0	0	506	411	
3	0	0	0	0	501	411	
4	0	0	0	0	497	410	
5	0	0	0	0	494	411	
6	0	0	0	0	490	411	
7	0	0	0	0	486	411	
8	0	0	0	0	483	411	
9	0	0	0	0	480	411	
10	0	0	0	0	478	411	
11	0	0	0	0	475	411	
12	0	0	0	0	473	411	
13	0	0	0	0	471	411	
14	0	0	0	0	470	411	
15	0	0	0	0	468	411	
0	0	0	0	0	465	411	
1	0	0	0	0	463	411	
2	0	0	0	0	461	412	
3	0	0	0	0	459	411	
4	0	0	0	0	457	411	
5	0	0	0	0	455	411	
6	0	0	0	0	453	412	
7	0	0	0	0	451	411	
8	0	0	0	0	450	412	
9	0	0	0	0	449	412	
10	0	0	0	0	448	412	
11	0	0	0	0	447	411	
12	0	0	0	0	446	412	
13	0	0	0	0	446	411	
14	0	0	0	0	446	411	
15	0	0	0	0	446	412	
0	0	0	0	0	446	411	
1	0	0	0	0	446	411	
2	0	0	0	0	446	412	
3	0	0	0	0	446	412	
4	0	0	0	0	446	411	
5	0	0	0	0	445	412	
6	0	0	0	0	444	412	
7	0	0	0	0	444	412	
8	0	0	0	0	443	412	
9	0	0	0	0	442	412	
10	0	0	0	0	442	413	
11	0	0	0	0	443	412	
12	0	0	0	0	443	412	
13	0	0	0	0	443	412	
14	0	0	0	0	443	412	
15	0	0	0	0	444	412	
0	0	0	0	0	444	412	
1	0	0	0	0	444	412	
2	0	0	0	0	445	413	
3	0	0	0	0	446	412	
4	0	0	0	0	447	410	
5	0	0	0	0	448	411	
6	0	0	0	0	448	412	
7	0	0	0	0	448	411	
8	0	0	0	0	449	412	
9	0	0	0	0	450	411	
10	0	0	0	0	450	412	
11	0	0	0	0	450	411	
12	0	0	0	0	450	411	
13	0	0	0	0	450	411	
14	0	0	0	0	450	411	
15	0	0	0	0	450	411	
0	0	0	0	0	449	411	
1	0	0	0	0	450	411	
2	0	0	0	0	449	412	
3	0	0	0	0	449	412	
4	0	0	0	0	449	411	
5	0	0	0	0	449	411	
6	0	0	0	0	450	411	
7	0	0	0	0	450	411	
8	0	0	0	0	451	411	
9	0	0	0	0	451	411	
10	0	0	0	0	452	411	
11	0	0	0	0	452	411	
12	0	0	0	0	453	411	
13	0	0	0	0	454	411	
14	0	0	0	0	453	411	
15	0	0	0	0	453	410	
0	0	0	0	0	453	411	
1	0	0	0	0	453	410	
2	0	0	0	0	453	411	
3	0	0	0	0	453	409	
4	0	0	0	0	453	409	
5	0	0	0	0	453	410	
6	0	0	0	0	454	410	
7	0	0	0	0	454	411	
8	0	0	0	0	454	411	
9	0	0	0	0	454	410	
10	0	0	0	0	455	412	
11	0	0	0	0	456	412	
12	0	0	0	0	457	411	
13	0	0	0	0	458	411	
14	0	0	0	0	459	411	
15	0	0	0	0	460	410	
0	0	0	0	0	461	411	
1	0	0	0	0	462	410	
2	0	0	0	0	462	411	
3	0	0	0	0	463	410	
4	0	0	0	0	464	411	
5	0	0	0	0	465	411	
6	0	0	0	0	464	411	
7	0	0	0	0	465	412	
8	0	0	0	0	466	411	
9	0	0	0	0	465	410	
10	0	0	0	0	465	411	
11	0	0	0	0	465	410	
12	0	0	0	0	465	411	
13	0	0	0	0	465	411	
14	0	0	0	0	465	411	
15	0	0	0	0	466	411	
0	0	0	0	0	466	411	
1	0	0	0	0	467	411	
2	0	0	0	0	467	412	
3	0	0	0	0	467	411	
4	0	0	0	0	468	411	
5	0	0	0	0	468	412	
6	0	0	0	0	469	412	
7	0	0	0	0	470	412	
8	0	0	0	0	470	412	
9	0	0	0	0	470	412	
10	0	0	0	0	470	412	
11	0	0	0	0	470	412	
12	0	0	0	0	470	412	
13	0	0	0	0	471	412	
14	0	0	0	0	472	412	
15	0	0	0	0	472	412	
0	0	0	0	0	472	412	
1	0	0	0	0	472	412	
2	0	0	0	0	472	412	
3	0	0	0	0	473	411	
4	0	0	0	0	474	411	
5	0	0	0	0	475	411	
6	0	0	0	0	475	412	
7	0	0	0	0	475	411	
8	0	0	0	0	476	411	
9	0	0	0	0	476	410	
10	0	0	0	0	475	411	
11	0	0	0	0	476	410	
12	0	0	0	0	475	409	
13	0	0	0	0	474	410	
14	0	0	0	0	473	409	
15	0	0	0	0	472	409	
0	0	0	0	0	471	409	
1	0	0	0	0	470	409	
2	0	0	0	0	469	409	
3	0	0	0	0	468	409	
4	0	0	0	0	467	410	
5	0	0	0	0	467	408	
6	0	0	0	0	467	409	
7	0	0	0	0	467	409	
8	0	0	0	0	468	409	
9	0	0	0	0	468	408	
10	0	0	0	0	468	409	
11	0	0	0	0	469	408	
12	0	0	0	0	469	408	
13	0	0	0	0	469	409	
14	0	0	0	0	469	408	
15	0	0	0	0	468	408	
0	0	0	0	0	468	409	
1	0	0	0	0	467	408	
2	0	0	0	0	467	408	
3	0	0	0	0	466	408	
4	0	0	0	0	465	408	
5	0	0	0	0	465	408	
6	0	0	0	0	465	409	
7	0	0	0	0	466	409	
8	0	0	0	0	466	408	
9	0	0	0	0	466	408	
10	0	0	0	0	466	409	
11	0	0	0	0	466	408	
12	0	0	0	0	466	409	
13	0	0	0	0	466	409	
14	0	0	0	0	466	410	
15	0	0	0	0	465	408	
0	0	0	0	0	465	409	
1	0	0	0	0	464	409	
2	0	0	0	0	463	409	
3	0	0	0	0	462	408	
4	0	0	0	0	462	409	
5	0	0	0	0	462	408	
6	0	0	0	0	462	409	
7	0	0	0	0	461	409	
8	0	0	0	0	461	409	
9	0	0	0	0	461	409	
10	0	0	0	0	460	409	
11	0	0	0	0	460	409	
12	0	0	0	0	460	409	
13	0	0	0	0	459	409	
14	0	0	0	0	459	410	
15	0	0	0	0	459	410	
0	0	0	0	0	459	409	
1	0	0	0	0	458	409	
2	0	0	0	0	457	410	
3	0	0	0	0	457	409	
4	0	0	0	0	457	409	
5	0	0	0	0	458	409	
6	0	0	0	0	458	409	
7	0	0	0	0	459	409	
8	0	0	0	0	459	409	
9	0	0	0	0	459	409	
10	0	0	0	0	459	410	
11	0	0	0	0	459	409	
12	0	0	0	0	459	409	
13	0	0	0	0	459	409	
14	0	0	0	0	460	409	
15	0	0	0	0	461	409	
0	0	0	0	0	462	408	
1	0	0	0	0	463	409	
2	0	0	0	0	465	410	
3	0	0	0	0	466	408	
4	0	0	0	0	467	409	
5	0	0	0	0	469	409	
6	0	0	0	0	471	409	
7	0	0	0	0	473	409	
8	0	0	0	0	475	408	
9	0	0	0	0	476	408	
10	0	0	0	0	478	409	
11	0	0	0	0	480	408	
12	0	0	0	0	480	408	
13	0	0	0	0	481	409	
14	0	0	0	0	483	409	
15	0	0	0	0	483	409	
0	0	0	0	0	483	409	
1	0	0	0	0	484	409	
2	0	0	0	0	485	410	
3	0	0	0	0	486	409	
4	0	0	0	0	486	409	
5	0	0	0	0	487	409	
6	0	0	0	0	488	409	
7	0	0	0	0	489	409	
8	0	0	0	0	490	409	
9	0	0	0	0	491	409	
10	0	0	0	0	492	408	
11	0	0	0	0	493	409	
12	0	0	0	0	493	409	
13	0	0	0	0	493	409	
14	0	0	0	0	493	409	
15	0	0	0	0	494	409	
0	0	0	0	0	494	409	
1	0	0	0	0	494	409	
2	0	0	0	0	493	409	
3	0	0	0	0	493	409	
4	0	0	0	0	492	410	
5	0	0	0	0	492	410	
6	0	0	0	0	492	410	
7	0	0	0	0	492	409	
8	0	0	0	0	492	410	
9	0	0	0	0	493	409	
10	0	0	0	0	494	411	
11	0	0	0	0	494	410	
12	0	0	0	0	494	409	
13	0	0	0	0	494	410	
14	0	0	0	0	495	410	
15	0	0	0	0	495	409	
0	0	0	0	0	496	410	
1	0	0	0	0	495	410	
2	0	0	0	0	495	411	
3	0	0	0	0	495	410	
4	0	0	0	0	495	410	
5	0	0	0	0	495	410	
6	0	0	0	0	495	411	
7	0	0	0	0	495	411	
8	0	0	0	0	494	410	
9	0	0	0	0	494	410	
10	0	0	0	0	494	411	
11	0	0	0	0	494	410	
12	0	0	0	0	494	410	
13	0	0	0	0	494	410	
14	0	0	0	0	494	411	
15	0	0	0	0	494	410	
0	0	0	0	0	494	410	
1	0	0	0	0	495	411	
2	0	0	0	0	495	411	
3	0	0	0	0	495	410	
4	0	0	0	0	495	411	
5	0	0	0	0	496	410	
6	0	0	0	0	496	411	
7	0	0	0	0	496	409	
8	0	0	0	0	495	411	
9	0	0	0	0	494	410	
10	0	0	0	0	493	411	
11	0	0	0	0	492	410	
12	0	0	0	0	491	410	
13	0	0	0	0	490	411	
14	0	0	0	0	489	411	
15	0	0	0	0	488	410	
0	0	0	0	0	487	411	
1	0	0	0	0	487	410	
2	0	0	0	0	487	412	
3	0	0	0	0	487	411	
4	0	0	0	0	486	411	
5	0	0	0	0	486	411	
6	0	0	0	0	486	411	
7	0	0	0	0	486	410	
8	0	0	0	0	486	410	
9	0	0	0	0	485	410	
10	0	0	0	0	484	411	
11	0	0	0	0	483	410	
12	0	0	0	0	482	410	
13	0	0	0	0	481	410	
14	0	0	0	0	480	410	
15	0	0	0	0	480	410	
0	0	0	0	0	479	411	
1	0	0	0	0	479	410	
2	0	0	0	0	478	411	
3	0	0	0	0	478	410	
4	0	0	0	0	477	409	
5	0	0	0	0	477	410	
6	0	0	0	0	477	410	
7	0	0	0	0	478	409	
8	0	0	0	0	478	410	
9	0	0	0	0	477	409	
10	0	0	0	0	478	411	
11	0	0	0	0	478	410	
12	0	0	0	0	479	410	
13	0	0	0	0	479	410	
14	0	0	0	0	479	411	
15	0	0	0	0	480	410	
0	0	0	0	0	480	411	
1	0	0	0	0	480	411	
2	0	0	0	0	480	411	
3	0	0	0	0	480	411	
4	0	0	0	0	480	411	
5	0	0	0	0	480	410	
6	0	0	0	0	480	411	
7	0	0	0	0	480	411	
8	0	0	0	0	481	411	
9	0	0	0	0	481	411	
10	0	0	0	0	482	412	
11	0	0	0	0	483	412	
12	0	0	0	0	485	412	
13	0	0	0	0	486	412	
14	0	0	0	0	487	412	
15	0	0	0	0	487	412	
0	0	0	0	0	489	412	
1	0	0	0	0	489	412	
2	0	0	0	0	489	412	
3	0	0	0	0	490	411	
4	0	0	0	0	490	411	
5	0	0	0	0	490	411	
6	0	0	0	0	490	412	
7	0	0	0	0	489	412	
8	0	0	0	0	489	412	
9	0	0	0	0	489	411	
10	0	0	0	0	489	412	
11	0	0	0	0	490	412	
12	0	0	0	0	490	412	
13	0	0	0	0	490	412	
14	0	0	0	0	491	412	
15	0	0	0	0	491	412	
0	0	0	0	0	491	412	
1	0	0	0	0	491	411	
2	0	0	0	0	491	412	
3	0	0	0	0	492	411	
4	0	0	0	0	492	411	
5	0	0	0	0	492	411	
6	0	0	0	0	492	411	
7	0	0	0	0	492	410	
8	0	0	0	0	491	411	
9	0	0	0	0	491	411	
10	0	0	0	0	491	411	
11	0	0	0	0	490	411	
12	0	0	0	0	490	410	
13	0	0	0	0	491	410	
14	0	0	0	0	491	411	
15	0	0	0	0	492	411	
0	0	0	0	0	491	410	
1	0	0	0	0	492	410	
2	0	0	0	0	492	410	
3	0	0	0	0	492	410	
4	0	0	0	0	493	410	
5	0	0	0	0	494	410	
6	0	0	0	0	495	410	
7	0	0	0	0	496	410	
8	0	0	0	0	497	410	
9	0	0	0	0	499	409	
10	0	0	0	0	499	411	
11	0	0	0	0	500	411	
12	0	0	0	0	499	411	
13	0	0	0	0	499	411	
14	0	0	0	0	499	410	
15	0	0	0	0	500	411	
0	0	0	0	0	499	411	
1	0	0	0	0	499	411	
2	0	0	0	0	500	412	
3	0	0	0	0	500	411	
4	0	0	0	0	501	411	
5	0	0	0	0	502	411	
6	0	0	0	0	502	412	
7	0	0	0	0	502	411	
8	0	0	0	0	502	411	
9	0	0	0	0	502	411	
10	0	0	0	0	503	411	
11	0	0	0	0	502	411	
12	0	0	0	0	502	410	
13	0	0	0	0	501	411	
14	0	0	0	0	500	410	
15	0	0	0	0	500	410	
0	0	0	0	0	499	411	
1	0	0	0	0	497	410	
2	0	0	0	0	497	411	
3	0	0	0	0	496	410	
4	0	0	0	0	495	410	
5	0	0	0	0	494	409	
6	0	0	0	0	494	410	
7	0	0	0	0	493	410	
8	0	0	0	0	492	409	
9	0	0	0	0	490	409	
10	0	0	0	0	489	410	
11	0	0	0	0	489	409	
12	0	0	0	0	488	409	
13	0	0	0	0	489	409	
14	0	0	0	0	489	410	
15	0	0	0	0	489	409	
0	0	0	0	0	489	409	
1	0	0	0	0	489	409	
2	0	0	0	0	489	410	
3	0	0	0	0	488	409	
4	0	0	0	0	488	409	
5	0	0	0	0	488	409	
6	0	0	0	0	488	409	
7	0	0	0	0	488	409	
8	0	0	0	0	488	409	
9	0	0	0	0	488	409	
10	0	0	0	0	489	410	
11	0	0	0	0	490	408	
12	0	0	0	0	490	409	
13	0	0	0	0	491	409	
14	0	0	0	0	491	409	
15	0	0	0	0	492	409	
0	0	0	0	0	492	409	
1	0	0	0	0	493	410	
2	0	0	0	0	494	410	
3	0	0	0	0	495	409	
4	0	0	0	0	496	410	
5	0	0	0	0	496	409	
6	0	0	0	0	496	411	
7	0	0	0	0	496	411	
8	0	0	0	0	497	411	
9	0	0	0	0	496	410	
10	0	0	0	0	496	412	
11	0	0	0	0	496	411	
12	0	0	0	0	496	411	
13	0	0	0	0	496	411	
14	0	0	0	0	496	411	
15	0	0	0	0	496	411	
0	0	0	0	0	496	411	
1	0	0	0	0	496	411	
2	0	0	0	0	496	412	
3	0	0	0	0	495	411	
4	0	0	0	0	494	411	
5	0	0	0	0	493	411	
6	0	0	0	0	493	412	
7	0	0	0	0	492	411	
8	0	0	0	0	492	411	
9	0	0	0	0	490	412	
10	0	0	0	0	489	412	
11	0	0	0	0	488	412	
12	0	0	0	0	488	412	
13	0	0	0	0	487	412	
14	0	0	0	0	487	411	
15	0	0	0	0	486	411	
0	0	0	0	0	486	412	
1	0	0	0	0	484	412	
2	0	0	0	0	484	412	
3	0	0	0	0	484	410	
4	0	0	0	0	484	411	
5	0	0	0	0	484	411	
6	0	0	0	0	484	411	
7	0	0	0	0	484	411	
8	0	0	0	0	484	411	
9	0	0	0	0	486	410	
10	0	0	0	0	486	411	
11	0	0	0	0	487	410	
12	0	0	0	0	487	409	
13	0	0	0	0	488	410	
14	0	0	0	0	488	410	
15	0	0	0	0	489	410	
0	0	0	0	0	490	409	
1	0	0	0	0	490	409	
2	0	0	0	0	490	410	
3	0	0	0	0	490	409	
4	0	0	0	0	491	409	
5	0	0	0	0	492	409	
6	0	0	0	0	492	409	
7	0	0	0	0	492	409	
8	0	0	0	0	492	408	
9	0	0	0	0	492	408	
10	0	0	0	0	493	408	
11	0	0	0	0	494	408	
12	0	0	0	0	494	408	
13	0	0	0	0	494	408	
14	0	0	0	0	495	408	
15	0	0	0	0	496	407	
0	0	0	0	0	496	407	
1	0	0	0	0	496	407	
2	0	0	0	0	497	408	
3	0	0	0	0	497	408	
4	0	0	0	0	497	408	
5	0	0	0	0	497	408	
6	0	0	0	0	497	408	
7	0	0	0	0	498	408	
8	0	0	0	0	498	407	
9	0	0	0	0	498	407	
10	0	0	0	0	498	408	
11	0	0	0	0	499	407	
12	0	0	0	0	499	408	
13	0	0	0	0	499	408	
14	0	0	0	0	501	408	
15	0	0	0	0	502	408	
0	0	0	0	0	503	408	
1	0	0	0	0	503	408	
2	0	0	0	0	504	408	
3	0	0	0	0	505	407	
4	0	0	0	0	505	408	
5	0	0	0	0	506	408	
6	0	0	0	0	506	409	
7	0	0	0	0	506	408	
8	0	0	0	0	507	408	
9	0	0	0	0	507	408	
10	0	0	0	0	507	409	
11	0	0	0	0	506	408	
12	0	0	0	0	505	408	
13	0	0	0	0	505	408	
14	0	0	0	0	505	408	
15	0	0	0	0	505	408	
0	0	0	0	0	504	408	
1	0	0	0	0	504	408	
2	0	0	0	0	504	409	
3	0	0	0	0	504	408	
4	0	0	0	0	504	408	
5	0	0	0	0	504	408	
6	0	0	0	0	504	408	
7	0	0	0	0	504	408	
8	0	0	0	0	504	408	
9	0	0	0	0	504	408	
10	0	0	0	0	504	408	
11	0	0	0	0	504	408	
12	0	0	0	0	504	408	
13	0	0	0	0	504	408	
14	0	0	0	0	503	408	
15	0	0	0	0	504	408	
0	0	0	0	0	504	408	
1	0	0	0	0	504	408	
2	0	0	0	0	504	409	
3	0	0	0	0	504	408	
4	0	0	0	0	504	408	
5	0	0	0	0	505	408	
6	0	0	0	0	506	408	
7	0	0	0	0	508	409	
8	0	0	0	0	508	408	
9	0	0	0	0	509	408	
10	0	0	0	0	510	409	
11	0	0	0	0	511	409	
12	0	0	0	0	511	409	
13	0	0	0	0	511	409	
14	0	0	0	0	511	409	
15	0	0	0	0	512	408	
0	0	0	0	0	512	408	
1	0	0	0	0	512	408	
2	0	0	0	0	512	409	
3	0	0	0	0	512	409	
4	0	0	0	0	512	410	
5	0	0	0	0	511	409	
6	0	0	0	0	511	410	
7	0	0	0	0	511	409	
8	0	0	0	0	511	410	
9	0	0	0	0	511	409	
10	0	0	0	0	511	410	
11	0	0	0	0	510	410	
12	0	0	0	0	510	409	
13	0	0	0	0	510	409	
14	0	0	0	0	511	410	
15	0	0	0	0	510	409	
0	0	0	0	0	509	411	
1	0	0	0	0	508	409	
2	0	0	0	0	507	411	
3	0	0	0	0	506	411	
4	0	0	0	0	505	411	
5	0	0	0	0	505	411	
6	0	0	0	0	503	411	
7	0	0	0	0	502	411	
8	0	0	0	0	501	410	
9	0	0	0	0	500	410	
10	0	0	0	0	499	411	
11	0	0	0	0	498	410	
12	0	0	0	0	498	410	
13	0	0	0	0	498	410	
14	0	0	0	0	498	411	
15	0	0	0	0	497	410	
0	0	0	0	0	498	410	
1	0	0	0	0	499	411	
2	0	0	0	0	500	412	
3	0	0	0	0	500	410	
4	0	0	0	0	500	410	
5	0	0	0	0	500	411	
6	0	0	0	0	500	411	
7	0	0	0	0	500	411	
8	0	0	0	0	499	410	
9	0	0	0	0	500	411	
10	0	0	0	0	499	411	
11	0	0	0	0	500	411	
12	0	0	0	0	499	411	
13	0	0	0	0	500	411	
14	0	0	0	0	500	411	
15	0	0	0	0	500	410	
0	0	0	0	0	501	410	
1	0	0	0	0	501	410	
2	0	0	0	0	501	411	
3	0	0	0	0	502	410	
4	0	0	0	0	502	410	
5	0	0	0	0	503	410	
6	0	0	0	0	503	410	
7	0	0	0	0	503	410	
8	0	0	0	0	503	411	
9	0	0	0	0	504	410	
10	0	0	0	0	504	411	
11	0	0	0	0	504	410	
12	0	0	0	0	504	410	
13	0	0	0	0	504	411	
14	0	0	0	0	504	411	
15	0	0	0	0	504	410	
0	0	0	0	0	504	410	
1	0	0	0	0	504	410	
2	0	0	0	0	504	411	
3	0	0	0	0	504	410	
4	0	0	0	0	504	411	
5	0	0	0	0	504	411	
6	0	0	0	0	503	411	
7	0	0	0	0	503	411	
8	0	0	0	0	504	411	
9	0	0	0	0	504	411	
10	0	0	0	0	505	411	
11	0	0	0	0	505	411	
12	0	0	0	0	505	411	
13	0	0	0	0	506	411	
14	0	0	0	0	506	411	
15	0	0	0	0	507	411	
0	0	0	0	0	507	411	
1	0	0	0	0	507	411	
2	0	0	0	0	508	412	
3	0	0	0	0	508	411	
4	0	0	0	0	508	411	
5	0	0	0	0	508	411	
6	0	0	0	0	509	412	
7	0	0	0	0	510	411	
8	0	0	0	0	511	411	
9	0	0	0	0	512	411	
10	0	0	0	0	513	411	
11	0	0	0	0	515	411	
12	0	0	0	0	516	411	
13	0	0	0	0	518	411	
14	0	0	0	0	520	412	
15	0	0	0	0	520	411	
0	0	0	0	0	521	411	
1	0	0	0	0	523	411	
2	0	0	0	0	524	412	
3	0	0	0	0	526	411	
4	0	0	0	0	527	411	
5	0	0	0	0	528	412	
6	0	0	0	0	530	412	
7	0	0	0	0	531	412	
8	0	0	0	0	533	411	
9	0	0	0	0	534	411	
10	0	0	0	0	536	412	
11	0	0	0	0	536	411	
12	0	0	0	0	537	411	
13	0	0	0	0	538	411	
14	0	0	0	0	539	411	
15	0	0	0	0	540	412	
0	0	0	0	0	541	411	
1	0	0	0	0	543	411	
2	0	0	0	0	544	412	
3	0	0	0	0	545	411	
4	0	0	0	0	546	411	
5	0	0	0	0	547	411	
6	0	0	0	0	547	411	
7	0	0	0	0	548	411	
8	0	0	0	0	548	412	
9	0	0	0	0	547	412	
10	0	0	0	0	547	412	
11	0	0	0	0	547	412	
12	0	0	0	0	548	412	
13	0	0	0	0	548	412	
14	0	0	0	0	549	412	
15	0	0	0	0	549	412	
0	0	0	0	0	550	412	
1	0	0	0	0	550	411	
2	0	0	0	0	549	412	
3	0	0	0	0	550	411	
4	0	0	0	0	549	411	
5	0	0	0	0	549	411	
6	0	0	0	0	548	412	
7	0	0	0	0	548	412	
8	0	0	0	0	549	412	
9	0	0	0	0	549	412	
10	0	0	0	0	550	412	
11	0	0	0	0	550	412	
12	0	0	0	0	549	411	
13	0	0	0	0	548	411	
14	0	0	0	0	547	411	
15	0	0	0	0	547	411	
0	0	0	0	0	545	411	
1	0	0	0	0	545	410	
2	0	0	0	0	544	410	
3	0	0	0	0	543	410	
4	0	0	0	0	542	410	
5	0	0	0	0	542	410	
6	0	0	0	0	541	410	
7	0	0	0	0	542	410	
8	0	0	0	0	541	410	
9	0	0	0	0	541	409	
10	0	0	0	0	540	411	
11	0	0	0	0	540	409	
12	0	0	0	0	540	409	
13	0	0	0	0	540	409	
14	0	0	0	0	539	409	
15	0	0	0	0	539	409	
0	0	0	0	0	538	409	
1	0	0	0	0	537	409	
2	0	0	0	0	537	410	
3	0	0	0	0	536	409	
4	0	0	0	0	535	409	
5	0	0	0	0	534	409	
6	0	0	0	0	534	409	
7	0	0	0	0	533	409	
8	0	0	0	0	532	410	
9	0	0	0	0	531	409	
10	0	0	0	0	531	410	
11	0	0	0	0	530	409	
12	0	0	0	0	530	408	
13	0	0	0	0	529	409	
14	0	0	0	0	529	409	
15	0	0	0	0	530	409	
0	0	0	0	0	529	409	
1	0	0	0	0	528	409	
2	0	0	0	0	528	410	
3	0	0	0	0	527	409	
4	0	0	0	0	527	410	
5	0	0	0	0	526	409	
6	0	0	0	0	525	410	
7	0	0	0	0	524	409	
8	0	0	0	0	524	411	
9	0	0	0	0	523	410	
10	0	0	0	0	524	410	
11	0	0	0	0	524	410	
12	0	0	0	0	524	410	
13	0	0	0	0	524	409	
14	0	0	0	0	524	410	
15	0	0	0	0	525	410	
0	0	0	0	0	526	411	
1	0	0	0	0	527	410	
2	0	0	0	0	527	410	
3	0	0	0	0	527	409	
4	0	0	0	0	528	409	
5	0	0	0	0	528	410	
6	0	0	0	0	528	411	
7	0	0	0	0	529	410	
8	0	0	0	0	530	410	
9	0	0	0	0	531	410	
10	0	0	0	0	531	411	
11	0	0	0	0	531	410	
12	0	0	0	0	531	410	
13	0	0	0	0	532	411	
14	0	0	0	0	532	410	
15	0	0	0	0	532	410	
0	0	0	0	0	532	410	
1	0	0	0	0	532	410	
2	0	0	0	0	533	410	
3	0	0	0	0	533	409	
4	0	0	0	0	532	410	
5	0	0	0	0	531	410	
6	0	0	0	0	531	410	
7	0	0	0	0	531	410	
8	0	0	0	0	529	409	
9	0	0	0	0	527	410	
10	0	0	0	0	525	410	
11	0	0	0	0	523	410	
12	0	0	0	0	520	409	
13	0	0	0	0	518	410	
14	0	0	0	0	515	409	
15	0	0	0	0	512	409	
0	0	0	0	0	510	409	
1	0	0	0	0	508	409	
2	0	0	0	0	507	409	
3	0	0	0	0	507	409	
4	0	0	0	0	508	409	
5	0	0	0	0	509	409	
6	0	0	0	0	510	409	
7	0	0	0	0	513	409	
8	0	0	0	0	518	409	
9	0	0	0	0	524	408	
10	0	0	0	0	530	409	
11	0	0	0	0	538	409	
12	0	0	0	0	546	409	
13	0	0	0	0	555	409	
14	0	0	0	0	563	410	
15	0	0	0	0	572	408	
0	0	0	0	0	582	409	
1	0	0	0	0	592	409	
2	0	0	0	0	602	410	
3	0	0	0	0	611	409	
4	0	0	0	0	618	408	
5	0	0	0	0	626	408	
6	0	0	0	0	635	410	
7	0	0	0	0	643	409	
8	0	0	0	0	652	409	
9	0	0	0	0	658	409	
10	0	0	0	0	664	410	
11	0	0	0	0	669	409	
12	0	0	0	0	674	409	
13	0	0	0	0	677	409	
14	0	0	0	0	679	409	
15	0	0	0	0	681	409	
0	0	0	0	0	679	409	
1	0	0	0	0	674	410	
2	0	0	0	0	666	410	
3	0	0	0	0	654	409	
4	0	0	0	0	638	409	
5	0	0	0	0	620	409	
6	0	0	0	0	606	410	
7	0	0	0	0	594	409	
8	0	0	0	0	583	409	
9	0	0	0	0	575	409	
10	0	0	0	0	568	410	
11	0	0	0	0	561	410	
12	0	0	0	0	555	410	
13	0	0	0	0	549	410	
14	0	0	0	0	544	411	
15	0	0	0	0	539	410	
0	0	0	0	0	535	410	
1	0	0	0	0	531	409	
2	0	0	0	0	527	410	
3	0	0	0	0	524	409	
4	0	0	0	0	522	409	
5	0	0	0	0	519	409	
6	0	0	0	0	517	410	
7	0	0	0	0	513	409	
8	0	0	0	0	510	410	
9	0	0	0	0	506	409	
10	0	0	0	0	503	411	
11	0	0	0	0	500	409	
12	0	0	0	0	497	409	
13	0	0	0	0	495	410	
14	0	0	0	0	493	410	
15	0	0	0	0	491	409	
0	0	0	0	0	489	410	
1	0	0	0	0	488	410	
2	0	0	0	0	487	410	
3	0	0	0	0	485	409	
4	0	0	0	0	484	409	
5	0	0	0	0	484	409	
6	0	0	0	0	483	410	
7	0	0	0	0	483	409	
8	0	0	0	0	483	409	
9	0	0	0	0	482	409	
10	0	0	0	0	482	411	
11	0	0	0	0	482	410	
12	0	0	0	0	481	410	
13	0	0	0	0	481	409	
14	0	0	0	0	480	410	
15	0	0	0	0	480	409	
0	0	0	0	0	480	410	
1	0	0	0	0	479	409	
2	0	0	0	0	479	411	
3	0	0	0	0	480	410	
4	0	0	0	0	480	410	
5	0	0	0	0	479	411	
6	0	0	0	0	480	411	
7	0	0	0	0	480	411	
8	0	0	0	0	481	410	
9	0	0	0	0	482	411	
10	0	0	0	0	483	411	
11	0	0	0	0	483	410	
12	0	0	0	0	484	411	
13	0	0	0	0	485	410	
14	0	0	0	0	486	411	
15	0	0	0	0	486	411	
0	0	0	0	0	487	410	
1	0	0	0	0	487	409	
2	0	0	0	0	487	411	
3	0	0	0	0	487	411	
4	0	0	0	0	487	410	
5	0	0	0	0	487	411	
6	0	0	0	0	488	411	
7	0	0	0	0	489	410	
8	0	0	0	0	489	410	
9	0	0	0	0	489	410	
10	0	0	0	0	489	411	
11	0	0	0	0	491	411	
12	0	0	0	0	491	410	
13	0	0	0	0	492	410	
14	0	0	0	0	493	410	
15	0	0	0	0	494	411	
0	0	0	0	0	495	411	
1	0	0	0	0	495	411	
2	0	0	0	0	496	411	
3	0	0	0	0	496	411	
4	0	0	0	0	497	411	
5	0	0	0	0	498	411	
6	0	0	0	0	499	412	
7	0	0	0	0	499	411	
8	0	0	0	0	500	411	
9	0	0	0	0	500	411	
10	0	0	0	0	500	411	
11	0	0	0	0	499	410	
12	0	0	0	0	500	410	
13	0	0	0	0	501	410	
14	0	0	0	0	502	411	
15	0	0	0	0	503	410	
0	0	0	0	0	504	410	
1	0	0	0	0	505	410	
2	0	0	0	0	507	411	
3	0	0	0	0	509	411	
4	0	0	0	0	510	411	
5	0	0	0	0	511	411	
6	0	0	0	0	512	411	
7	0	0	0	0	513	411	
8	0	0	0	0	515	411	
9	0	0	0	0	515	411	
10	0	0	0	0	515	411	
11	0	0	0	0	516	410	
12	0	0	0	0	517	411	
13	0	0	0	0	517	410	
14	0	0	0	0	518	411	
15	0	0	0	0	519	411	
0	0	0	0	0	519	411	
1	0	0	0	0	520	411	
2	0	0	0	0	520	412	
3	0	0	0	0	521	412	
4	0	0	0	0	522	412	
5	0	0	0	0	523	411	
6	0	0	0	0	524	412	
7	0	0	0	0	524	411	
8	0	0	0	0	524	411	
9	0	0	0	0	524	411	
10	0	0	0	0	524	412	
11	0	0	0	0	524	411	
12	0	0	0	0	524	412	
13	0	0	0	0	523	412	
14	0	0	0	0	522	412	
15	0	0	0	0	521	412	
0	0	0	0	0	521	412	
1	0	0	0	0	521	412	
2	0	0	0	0	521	413	
3	0	0	0	0	521	412	
4	0	0	0	0	521	412	
5	0	0	0	0	521	412	
6	0	0	0	0	521	412	
7	0	0	0	0	522	412	
8	0	0	0	0	522	412	
9	0	0	0	0	523	412	
10	0	0	0	0	524	412	
11	0	0	0	0	525	411	
12	0	0	0	0	526	411	
13	0	0	0	0	526	412	
14	0	0	0	0	526	412	
15	0	0	0	0	526	411	
0	0	0	0	0	526	411	
1	0	0	0	0	527	411	
2	0	0	0	0	527	411	
3	0	0	0	0	527	411	
4	0	0	0	0	526	411	
5	0	0	0	0	526	410	
6	0	0	0	0	525	410	
7	0	0	0	0	525	409	
8	0	0	0	0	525	410	
9	0	0	0	0	524	409	
10	0	0	0	0	524	410	
11	0	0	0	0	524	409	
12	0	0	0	0	524	410	
13	0	0	0	0	524	410	
14	0	0	0	0	523	410	
15	0	0	0	0	523	409	
0	0	0	0	0	523	409	
1	0	0	0	0	522	409	
2	0	0	0	0	522	410	
3	0	0	0	0	521	409	
4	0	0	0	0	521	409	
5	0	0	0	0	520	409	
6	0	0	0	0	519	409	
7	0	0	0	0	518	408	
8	0	0	0	0	518	408	
9	0	0	0	0	518	408	
10	0	0	0	0	517	409	
11	0	0	0	0	517	408	
12	0	0	0	0	517	408	
13	0	0	0	0	516	408	
14	0	0	0	0	517	408	
15	0	0	0	0	516	408	
0	0	0	0	0	516	408	
1	0	0	0	0	516	408	
2	0	0	0	0	517	408	
3	0	0	0	0	518	408	
4	0	0	0	0	518	409	
5	0	0	0	0	518	409	
6	0	0	0	0	518	409	
7	0	0	0	0	517	409	
8	0	0	0	0	516	409	
9	0	0	0	0	516	408	
10	0	0	0	0	516	410	
11	0	0	0	0	515	409	
12	0	0	0	0	515	409	
13	0	0	0	0	515	409	
14	0	0	0	0	515	409	
15	0	0	0	0	515	409	
0	0	0	0	0	514	409	
1	0	0	0	0	514	409	
2	0	0	0	0	515	411	
3	0	0	0	0	515	410	
4	0	0	0	0	515	410	
5	0	0	0	0	514	410	
6	0	0	0	0	515	411	
7	0	0	0	0	513	410	
8	0	0	0	0	513	410	
9	0	0	0	0	512	411	
10	0	0	0	0	511	411	
11	0	0	0	0	511	410	
12	0	0	0	0	511	411	
13	0	0	0	0	510	411	
14	0	0	0	0	508	410	
15	0	0	0	0	508	410	
0	0	0	0	0	508	410	
1	0	0	0	0	507	411	
2	0	0	0	0	507	411	
3	0	0	0	0	506	411	
4	0	0	0	0	506	410	
5	0	0	0	0	505	409	
6	0	0	0	0	505	410	
7	0	0	0	0	505	410	
8	0	0	0	0	505	409	
9	0	0	0	0	506	410	
10	0	0	0	0	506	410	
11	0	0	0	0	506	410	
12	0	0	0	0	507	409	
13	0	0	0	0	507	409	
14	0	0	0	0	505	410	
15	0	0	0	0	505	409	
0	0	0	0	0	505	409	
1	0	0	0	0	505	409	
2	0	0	0	0	505	410	
3	0	0	0	0	505	410	
4	0	0	0	0	505	409	
5	0	0	0	0	504	409	
6	0	0	0	0	504	409	
7	0	0	0	0	505	409	
8	0	0	0	0	505	409	
9	0	0	0	0	505	409	
10	0	0	0	0	505	410	
11	0	0	0	0	505	409	
12	0	0	0	0	506	409	
13	0	0	0	0	506	409	
14	0	0	0	0	507	408	
15	0	0	0	0	507	409	
0	0	0	0	0	508	408	
1	0	0	0	0	508	409	
2	0	0	0	0	508	409	
3	0	0	0	0	509	408	
4	0	0	0	0	509	409	
5	0	0	0	0	508	409	
6	0	0	0	0	508	409	
7	0	0	0	0	507	409	
8	0	0	0	0	506	409	
9	0	0	0	0	506	409	
10	0	0	0	0	505	410	
11	0	0	0	0	505	409	
12	0	0	0	0	504	410	
13	0	0	0	0	504	410	
14	0	0	0	0	504	410	
15	0	0	0	0	504	410	
0	0	0	0	0	504	411	
1	0	0	0	0	504	411	
2	0	0	0	0	504	411	
3	0	0	0	0	505	410	
4	0	0	0	0	505	411	
5	0	0	0	0	505	411	
6	0	0	0	0	505	411	
7	0	0	0	0	504	410	
8	0	0	0	0	504	411	
9	0	0	0	0	503	411	
10	0	0	0	0	502	412	
11	0	0	0	0	501	412	
12	0	0	0	0	500	411	
13	0	0	0	0	499	412	
14	0	0	0	0	499	412	
15	0	0	0	0	498	411	
0	0	0	0	0	498	411	
1	0	0	0	0	499	411	
2	0	0	0	0	499	412	
3	0	0	0	0	499	411	
4	0	0	0	0	499	411	
5	0	0	0	0	499	411	
6	0	0	0	0	500	411	
7	0	0	0	0	499	410	
8	0	0	0	0	500	411	
9	0	0	0	0	499	411	
10	0	0	0	0	499	411	
11	0	0	0	0	499	411	
12	0	0	0	0	499	410	
13	0	0	0	0	499	411	
14	0	0	0	0	499	411	
15	0	0	0	0	498	411	
0	0	0	0	0	498	411	
1	0	0	0	0	497	410	
2	0	0	0	0	497	411	
3	0	0	0	0	496	410	
4	0	0	0	0	496	410	
5	0	0	0	0	495	411	
6	0	0	0	0	495	410	
7	0	0	0	0	494	410	
8	0	0	0	0	493	410	
9	0	0	0	0	493	411	
10	0	0	0	0	494	411	
11	0	0	0	0	493	411	
12	0	0	0	0	493	410	
13	0	0	0	0	492	410	
14	0	0	0	0	491	411	
15	0	0	0	0	491	409	
0	0	0	0	0	490	409	
1	0	0	0	0	489	409	
2	0	0	0	0	488	411	
3	0	0	0	0	487	409	
4	0	0	0	0	487	409	
5	0	0	0	0	486	409	
6	0	0	0	0	485	410	
7	0	0	0	0	485	410	
8	0	0	0	0	484	409	
9	0	0	0	0	485	410	
10	0	0	0	0	485	411	
11	0	0	0	0	486	410	
12	0	0	0	0	486	409	
13	0	0	0	0	486	409	
14	0	0	0	0	487	410	
15	0	0	0	0	487	410	
0	0	0	0	0	487	410	
1	0	0	0	0	487	410	
2	0	0	0	0	488	411	
3	0	0	0	0	490	411	
4	0	0	0	0	490	410	
5	0	0	0	0	491	410	
6	0	0	0	0	491	410	
7	0	0	0	0	490	410	
8	0	0	0	0	490	410	
9	0	0	0	0	489	410	
10	0	0	0	0	489	411	
11	0	0	0	0	489	409	
12	0	0	0	0	489	409	
13	0	0	0	0	489	410	
14	0	0	0	0	489	410	
15	0	0	0	0	489	410	
0	0	0	0	0	491	409	
1	0	0	0	0	492	409	
2	0	0	0	0	491	411	
3	0	0	0	0	492	409	
4	0	0	0	0	493	409	
5	0	0	0	0	493	410	
6	0	0	0	0	493	410	
7	0	0	0	0	493	410	
8	0	0	0	0	493	410	
9	0	0	0	0	493	410	
10	0	0	0	0	493	411	
11	0	0	0	0	493	410	
12	0	0	0	0	493	409	
13	0	0	0	0	493	410	
14	0	0	0	0	492	411	
15	0	0	0	0	493	410	
0	0	0	0	0	493	410	
1	0	0	0	0	493	410	
2	0	0	0	0	493	411	
3	0	0	0	0	493	411	
4	0	0	0	0	493	411	
5	0	0	0	0	494	410	
6	0	0	0	0	494	411	
7	0	0	0	0	494	410	
8	0	0	0	0	494	410	
9	0	0	0	0	493	411	
10	0	0	0	0	492	411	
11	0	0	0	0	492	410	
12	0	0	0	0	492	410	
13	0	0	0	0	492	409	
14	0	0	0	0	492	410	
15	0	0	0	0	491	410	
0	0	0	0	0	491	410	
1	0	0	0	0	490	410	
2	0	0	0	0	490	411	
3	0	0	0	0	490	410	
4	0	0	0	0	490	410	
5	0	0	0	0	490	409	
6	0	0	0	0	491	410	
7	0	0	0	0	491	410	
8	0	0	0	0	491	409	
9	0	0	0	0	491	410	
10	0	0	0	0	491	410	
11	0	0	0	0	492	410	
12	0	0	0	0	491	410	
13	0	0	0	0	491	410	
14	0	0	0	0	490	411	
15	0	0	0	0	490	410	
0	0	0	0	0	489	410	
1	0	0	0	0	489	410	
2	0	0	0	0	489	411	
3	0	0	0	0	489	410	
4	0	0	0	0	490	410	
5	0	0	0	0	489	410	
6	0	0	0	0	489	411	
7	0	0	0	0	489	410	
8	0	0	0	0	490	410	
9	0	0	0	0	491	410	
10	0	0	0	0	492	412	
11	0	0	0	0	492	410	
12	0	0	0	0	492	411	
13	0	0	0	0	493	411	
14	0	0	0	0	494	411	
15	0	0	0	0	496	411	
0	0	0	0	0	496	411	
1	0	0	0	0	497	411	
2	0	0	0	0	497	412	
3	0	0	0	0	498	411	
4	0	0	0	0	498	411	
5	0	0	0	0	498	411	
6	0	0	0	0	497	411	
7	0	0	0	0	497	411	
8	0	0	0	0	497	411	
9	0	0	0	0	498	411	
10	0	0	0	0	497	411	
11	0	0	0	0	497	412	
12	0	0	0	0	497	411	
13	0	0	0	0	497	411	
14	0	0	0	0	498	412	
15	0	0	0	0	497	411	
0	0	0	0	0	497	411	
1	0	0	0	0	496	411	
2	0	0	0	0	496	412	
3	0	0	0	0	496	411	
4	0	0	0	0	496	411	
5	0	0	0	0	495	411	
6	0	0	0	0	494	412	
7	0	0	0	0	494	411	
8	0	0	0	0	494	411	
9	0	0	0	0	493	411	
10	0	0	0	0	493	412	
11	0	0	0	0	493	411	
12	0	0	0	0	493	411	
13	0	0	0	0	492	411	
14	0	0	0	0	492	411	
15	0	0	0	0	493	411	
0	0	0	0	0	494	411	
1	0	0	0	0	495	411	
2	0	0	0	0	496	412	
3	0	0	0	0	497	411	
4	0	0	0	0	498	411	
5	0	0	0	0	499	411	
6	0	0	0	0	501	411	
7	0	0	0	0	502	411	
8	0	0	0	0	503	411	
9	0	0	0	0	504	411	
10	0	0	0	0	506	412	
11	0	0	0	0	506	411	
12	0	0	0	0	507	411	
13	0	0	0	0	507	411	
14	0	0	0	0	507	411	
15	0	0	0	0	508	411	
0	0	0	0	0	508	411	
1	0	0	0	0	508	410	
2	0	0	0	0	509	411	
3	0	0	0	0	510	410	
4	0	0	0	0	511	411	
5	0	0	0	0	511	411	
6	0	0	0	0	511	411	
7	0	0	0	0	512	411	
8	0	0	0	0	512	410	
9	0	0	0	0	513	410	
10	0	0	0	0	513	411	
11	0	0	0	0	513	410	
12	0	0	0	0	513	410	
13	0	0	0	0	514	410	
14	0	0	0	0	513	410	
15	0	0	0	0	513	410	
0	0	0	0	0	513	410	
1	0	0	0	0	512	410	
2	0	0	0	0	512	411	
3	0	0	0	0	512	411	
4	0	0	0	0	511	411	
5	0	0	0	0	511	411	
6	0	0	0	0	510	411	
7	0	0	0	0	509	411	
8	0	0	0	0	508	411	
9	0	0	0	0	508	411	
10	0	0	0	0	507	412	
11	0	0	0	0	507	412	
12	0	0	0	0	508	412	
13	0	0	0	0	508	411	
14	0	0	0	0	508	412	
15	0	0	0	0	509	411	
0	0	0	0	0	509	411	
1	0	0	0	0	508	411	
2	0	0	0	0	509	412	
3	0	0	0	0	510	411	
4	0	0	0	0	510	411	
5	0	0	0	0	509	411	
6	0	0	0	0	510	411	
7	0	0	0	0	510	411	
8	0	0	0	0	510	410	
9	0	0	0	0	511	410	
10	0	0	0	0	511	411	
11	0	0	0	0	512	410	
12	0	0	0	0	513	410	
13	0	0	0	0	513	410	
14	0	0	0	0	514	412	
15	0	0	0	0	515	410	
0	0	0	0	0	516	410	
1	0	0	0	0	516	410	
2	0	0	0	0	516	411	
3	0	0	0	0	516	411	
4	0	0	0	0	516	411	
5	0	0	0	0	515	410	
6	0	0	0	0	516	410	
7	0	0	0	0	515	410	
8	0	0	0	0	515	410	
9	0	0	0	0	514	410	
10	0	0	0	0	514	411	
11	0	0	0	0	514	409	
12	0	0	0	0	514	411	
13	0	0	0	0	514	409	
14	0	0	0	0	513	410	
15	0	0	0	0	513	409	
0	0	0	0	0	512	410	
1	0	0	0	0	512	410	
2	0	0	0	0	512	410	
3	0	0	0	0	512	410	
4	0	0	0	0	512	410	
5	0	0	0	0	512	409	
6	0	0	0	0	513	411	
7	0	0	0	0	512	409	
8	0	0	0	0	512	409	
9	0	0	0	0	511	409	
10	0	0	0	0	511	410	
11	0	0	0	0	511	409	
12	0	0	0	0	510	409	
13	0	0	0	0	510	409	
14	0	0	0	0	509	409	
15	0	0	0	0	508	409	
0	0	0	0	0	507	409	
1	0	0	0	0	507	409	
2	0	0	0	0	506	409	
3	0	0	0	0	504	409	
4	0	0	0	0	504	408	
5	0	0	0	0	504	408	
6	0	0	0	0	503	409	
7	0	0	0	0	503	408	
8	0	0	0	0	503	408	
9	0	0	0	0	504	409	
10	0	0	0	0	504	409	
11	0	0	0	0	504	409	
12	0	0	0	0	504	408	
13	0	0	0	0	504	409	
14	0	0	0	0	505	409	
15	0	0	0	0	505	409	
0	0	0	0	0	505	409	
1	0	0	0	0	504	409	
2	0	0	0	0	505	410	
3	0	0	0	0	504	409	
4	0	0	0	0	504	409	
5	0	0	0	0	505	408	
6	0	0	0	0	505	410	
7	0	0	0	0	504	409	
8	0	0	0	0	505	409	
9	0	0	0	0	505	409	
10	0	0	0	0	505	410	
11	0	0	0	0	505	408	
12	0	0	0	0	505	408	
13	0	0	0	0	505	409	
14	0	0	0	0	505	409	
15	0	0	0	0	506	408	
0	0	0	0	0	506	408	
1	0	0	0	0	506	409	
2	0	0	0	0	506	409	
3	0	0	0	0	505	409	
4	0	0	0	0	505	408	
5	0	0	0	0	504	409	
6	0	0	0	0	503	409	
7	0	0	0	0	503	409	
8	0	0	0	0	502	409	
9	0	0	0	0	502	409	
10	0	0	0	0	502	409	
11	0	0	0	0	501	409	
12	0	0	0	0	502	408	
13	0	0	0	0	502	409	
14	0	0	0	0	502	409	
15	0	0	0	0	502	409	
0	0	0	0	0	502	409	
1	0	0	0	0	502	408	
2	0	0	0	0	502	409	
3	0	0	0	0	502	409	
4	0	0	0	0	502	409	
5	0	0	0	0	501	409	
6	0	0	0	0	501	410	
7	0	0	0	0	501	409	
8	0	0	0	0	501	409	
9	0	0	0	0	500	409	
10	0	0	0	0	499	410	
11	0	0	0	0	499	408	
12	0	0	0	0	497	408	
13	0	0	0	0	496	408	
14	0	0	0	0	496	409	
15	0	0	0	0	495	408	
0	0	0	0	0	495	408	
1	0	0	0	0	495	409	
2	0	0	0	0	494	409	
3	0	0	0	0	494	409	
4	0	0	0	0	493	409	
5	0	0	0	0	493	408	
6	0	0	0	0	493	409	
7	0	0	0	0	494	408	
8	0	0	0	0	494	408	
9	0	0	0	0	493	409	
10	0	0	0	0	493	409	
11	0	0	0	0	492	408	
12	0	0	0	0	492	408	
13	0	0	0	0	492	408	
14	0	0	0	0	491	408	
15	0	0	0	0	491	408	
0	0	0	0	0	491	408	
1	0	0	0	0	489	408	
2	0	0	0	0	489	409	
3	0	0	0	0	488	408	
4	0	0	0	0	488	408	
5	0	0	0	0	488	408	
6	0	0	0	0	488	409	
7	0	0	0	0	488	408	
8	0	0	0	0	488	408	
9	0	0	0	0	488	408	
10	0	0	0	0	488	409	
11	0	0	0	0	488	408	
12	0	0	0	0	488	408	
13	0	0	0	0	488	408	
14	0	0	0	0	488	409	
15	0	0	0	0	487	408	
0	0	0	0	0	487	408	
1	0	0	0	0	487	408	
2	0	0	0	0	487	409	
3	0	0	0	0	486	409	
4	0	0	0	0	486	409	
5	0	0	0	0	485	409	
6	0	0	0	0	486	409	
7	0	0	0	0	486	409	
8	0	0	0	0	485	409	
9	0	0	0	0	485	409	
10	0	0	0	0	485	410	
11	0	0	0	0	485	409	
12	0	0	0	0	485	410	
13	0	0	0	0	484	409	
14	0	0	0	0	484	409	
15	0	0	0	0	484	409	
0	0	0	0	0	484	409	
1	0	0	0	0	484	409	
2	0	0	0	0	484	410	
3	0	0	0	0	484	409	
4	0	0	0	0	484	409	
5	0	0	0	0	483	410	
6	0	0	0	0	483	411	
7	0	0	0	0	482	410	
8	0	0	0	0	481	410	
9	0	0	0	0	481	410	
10	0	0	0	0	481	410	
11	0	0	0	0	480	410	
12	0	0	0	0	480	410	
13	0	0	0	0	479	410	
14	0	0	0	0	479	410	
15	0	0	0	0	479	409	
0	0	0	0	0	479	409	
1	0	0	0	0	479	409	
2	0	0	0	0	479	409	
3	0	0	0	0	479	409	
4	0	0	0	0	480	410	
5	0	0	0	0	479	409	
6	0	0	0	0	480	410	
7	0	0	0	0	479	409	
8	0	0	0	0	479	410	
9	0	0	0	0	479	409	
10	0	0	0	0	479	409	
11	0	0	0	0	480	410	
12	0	0	0	0	480	409	
13	0	0	0	0	480	410	
14	0	0	0	0	480	410	
15	0	0	0	0	480	409	
0	0	0	0	0	480	409	
1	0	0	0	0	480	409	
2	0	0	0	0	481	410	
3	0	0	0	0	481	410	
4	0	0	0	0	482	409	
5	0	0	0	0	483	410	
6	0	0	0	0	483	410	
7	0	0	0	0	484	410	
8	0	0	0	0	486	410	
9	0	0	0	0	486	410	
10	0	0	0	0	487	411	
11	0	0	0	0	487	410	
12	0	0	0	0	488	410	
13	0	0	0	0	488	410	
14	0	0	0	0	487	410	
15	0	0	0	0	487	411	
0	0	0	0	0	487	411	
1	0	0	0	0	488	411	
2	0	0	0	0	489	411	
3	0	0	0	0	490	411	
