# OpenSignals Text File Format
# {"98:D3:91:FD:69:48":{"sensor":["ECGBIT","ACCBITREV"],"device name":"98:D3:91:FD:69:48","column":["nSeq","I1","I2","O1","O2","A2","A5"],"sync interval":2,"time":"12:02:39","comments":"","device connection":"BTH98:D3:91:FD:69:48","channels":[2,5],"date":"2021-09-16","mode":0,"digital IO":[0,0,1,1],"firmware version":0,"device":"bitalino_rev","position":0,"sampling rate":1000,"label":["A2","A5"],"resolution":[10,10],"special":[{},{}]}}
# EndOfHeader
0	0	0	0	0	508	411
1	0	0	0	0	507	411
2	0	0	0	0	507	411
3	0	0	0	0	507	412
4	0	0	0	0	506	411
5	0	0	0	0	505	411
6	0	0	0	0	505	412
7	0	0	0	0	505	411
8	0	0	0	0	504	412
9	0	0	0	0	505	412
10	0	0	0	0	507	412
11	0	0	0	0	507	412
12	0	0	0	0	507	412
13	0	0	0	0	507	412
14	0	0	0	0	508	412
15	0	0	0	0	509	411
0	0	0	0	0	510	412
1	0	0	0	0	511	412
2	0	0	0	0	511	412
3	0	0	0	0	512	412
4	0	0	0	0	513	412
5	0	0	0	0	515	412
6	0	0	0	0	515	412
7	0	0	0	0	516	411
8	0	0	0	0	516	413
9	0	0	0	0	516	412
10	0	0	0	0	516	413
11	0	0	0	0	518	413
12	0	0	0	0	518	412
13	0	0	0	0	518	412
14	0	0	0	0	518	412
15	0	0	0	0	517	412
0	0	0	0	0	518	413
1	0	0	0	0	517	413
2	0	0	0	0	518	412
3	0	0	0	0	518	413
4	0	0	0	0	517	413
5	0	0	0	0	517	412
6	0	0	0	0	517	412
7	0	0	0	0	518	412
8	0	0	0	0	518	414
9	0	0	0	0	519	414
10	0	0	0	0	519	414
11	0	0	0	0	519	413
12	0	0	0	0	519	414
13	0	0	0	0	519	413
14	0	0	0	0	519	413
15	0	0	0	0	519	412
0	0	0	0	0	520	414
1	0	0	0	0	520	414
2	0	0	0	0	519	414
3	0	0	0	0	520	413
4	0	0	0	0	519	413
5	0	0	0	0	518	414
6	0	0	0	0	516	413
7	0	0	0	0	514	413
8	0	0	0	0	513	414
9	0	0	0	0	513	413
10	0	0	0	0	512	413
11	0	0	0	0	511	414
12	0	0	0	0	512	413
13	0	0	0	0	511	413
14	0	0	0	0	511	414
15	0	0	0	0	511	412
0	0	0	0	0	511	413
1	0	0	0	0	510	414
2	0	0	0	0	510	414
3	0	0	0	0	509	413
4	0	0	0	0	509	414
5	0	0	0	0	509	413
6	0	0	0	0	508	414
7	0	0	0	0	508	413
8	0	0	0	0	508	413
9	0	0	0	0	508	413
10	0	0	0	0	508	413
11	0	0	0	0	508	413
12	0	0	0	0	508	413
13	0	0	0	0	508	412
14	0	0	0	0	507	412
15	0	0	0	0	508	412
0	0	0	0	0	508	412
1	0	0	0	0	508	412
2	0	0	0	0	509	412
3	0	0	0	0	508	412
4	0	0	0	0	508	412
5	0	0	0	0	509	412
6	0	0	0	0	509	412
7	0	0	0	0	509	411
8	0	0	0	0	510	412
9	0	0	0	0	509	412
10	0	0	0	0	509	412
11	0	0	0	0	509	412
12	0	0	0	0	509	412
13	0	0	0	0	509	411
14	0	0	0	0	508	411
15	0	0	0	0	508	410
0	0	0	0	0	507	411
1	0	0	0	0	508	412
2	0	0	0	0	507	412
3	0	0	0	0	507	411
4	0	0	0	0	508	412
5	0	0	0	0	508	412
6	0	0	0	0	509	411
7	0	0	0	0	509	411
8	0	0	0	0	509	412
9	0	0	0	0	508	412
10	0	0	0	0	507	412
11	0	0	0	0	506	412
12	0	0	0	0	506	412
13	0	0	0	0	505	411
14	0	0	0	0	506	411
15	0	0	0	0	506	410
0	0	0	0	0	506	412
1	0	0	0	0	505	411
2	0	0	0	0	505	411
3	0	0	0	0	505	411
4	0	0	0	0	505	411
5	0	0	0	0	505	410
6	0	0	0	0	506	410
7	0	0	0	0	507	409
8	0	0	0	0	507	411
9	0	0	0	0	507	411
10	0	0	0	0	508	411
11	0	0	0	0	508	410
12	0	0	0	0	508	411
13	0	0	0	0	509	410
14	0	0	0	0	508	411
15	0	0	0	0	508	409
0	0	0	0	0	509	410
1	0	0	0	0	508	411
2	0	0	0	0	509	411
3	0	0	0	0	508	410
4	0	0	0	0	508	411
5	0	0	0	0	508	411
6	0	0	0	0	508	411
7	0	0	0	0	508	410
8	0	0	0	0	508	410
9	0	0	0	0	508	410
10	0	0	0	0	508	410
11	0	0	0	0	509	410
12	0	0	0	0	509	411
13	0	0	0	0	509	411
14	0	0	0	0	509	411
15	0	0	0	0	510	410
0	0	0	0	0	510	411
1	0	0	0	0	510	412
2	0	0	0	0	510	411
3	0	0	0	0	509	411
4	0	0	0	0	509	411
5	0	0	0	0	508	412
6	0	0	0	0	507	411
7	0	0	0	0	507	411
8	0	0	0	0	507	412
9	0	0	0	0	508	412
10	0	0	0	0	507	412
11	0	0	0	0	508	412
12	0	0	0	0	509	412
13	0	0	0	0	509	413
14	0	0	0	0	509	412
15	0	0	0	0	510	412
0	0	0	0	0	511	413
1	0	0	0	0	511	413
2	0	0	0	0	511	413
3	0	0	0	0	512	412
4	0	0	0	0	511	413
5	0	0	0	0	510	412
6	0	0	0	0	509	412
7	0	0	0	0	507	412
8	0	0	0	0	504	413
9	0	0	0	0	499	413
10	0	0	0	0	495	413
11	0	0	0	0	491	413
12	0	0	0	0	487	413
13	0	0	0	0	483	413
14	0	0	0	0	480	412
15	0	0	0	0	476	412
0	0	0	0	0	473	413
1	0	0	0	0	471	413
2	0	0	0	0	470	413
3	0	0	0	0	470	412
4	0	0	0	0	471	412
5	0	0	0	0	472	412
6	0	0	0	0	474	412
7	0	0	0	0	477	411
8	0	0	0	0	480	412
9	0	0	0	0	486	411
10	0	0	0	0	492	412
11	0	0	0	0	502	412
12	0	0	0	0	513	412
13	0	0	0	0	526	412
14	0	0	0	0	539	412
15	0	0	0	0	553	411
0	0	0	0	0	567	412
1	0	0	0	0	582	412
2	0	0	0	0	598	412
3	0	0	0	0	615	412
4	0	0	0	0	632	412
5	0	0	0	0	647	412
6	0	0	0	0	661	412
7	0	0	0	0	675	411
8	0	0	0	0	687	412
9	0	0	0	0	699	412
10	0	0	0	0	708	412
11	0	0	0	0	717	412
12	0	0	0	0	724	412
13	0	0	0	0	729	412
14	0	0	0	0	731	412
15	0	0	0	0	732	411
0	0	0	0	0	732	412
1	0	0	0	0	729	412
2	0	0	0	0	726	412
3	0	0	0	0	721	412
4	0	0	0	0	716	412
5	0	0	0	0	708	413
6	0	0	0	0	699	412
7	0	0	0	0	688	412
8	0	0	0	0	677	412
9	0	0	0	0	664	413
10	0	0	0	0	651	413
11	0	0	0	0	636	413
12	0	0	0	0	621	413
13	0	0	0	0	604	413
14	0	0	0	0	587	412
15	0	0	0	0	571	412
0	0	0	0	0	558	413
1	0	0	0	0	546	413
2	0	0	0	0	535	413
3	0	0	0	0	526	412
4	0	0	0	0	516	413
5	0	0	0	0	508	413
6	0	0	0	0	501	412
7	0	0	0	0	493	412
8	0	0	0	0	488	413
9	0	0	0	0	484	412
10	0	0	0	0	483	412
11	0	0	0	0	481	412
12	0	0	0	0	479	412
13	0	0	0	0	477	413
14	0	0	0	0	476	413
15	0	0	0	0	474	412
0	0	0	0	0	473	413
1	0	0	0	0	472	412
2	0	0	0	0	470	413
3	0	0	0	0	469	413
4	0	0	0	0	468	413
5	0	0	0	0	467	412
6	0	0	0	0	465	412
7	0	0	0	0	464	411
8	0	0	0	0	464	412
9	0	0	0	0	463	412
10	0	0	0	0	462	412
11	0	0	0	0	461	412
12	0	0	0	0	461	412
13	0	0	0	0	461	412
14	0	0	0	0	461	413
15	0	0	0	0	462	412
0	0	0	0	0	462	412
1	0	0	0	0	461	413
2	0	0	0	0	462	412
3	0	0	0	0	462	412
4	0	0	0	0	462	413
5	0	0	0	0	463	413
6	0	0	0	0	463	412
7	0	0	0	0	464	412
8	0	0	0	0	465	412
9	0	0	0	0	465	412
10	0	0	0	0	465	412
11	0	0	0	0	465	412
12	0	0	0	0	465	412
13	0	0	0	0	465	412
14	0	0	0	0	464	412
15	0	0	0	0	464	411
0	0	0	0	0	465	412
1	0	0	0	0	465	412
2	0	0	0	0	465	412
3	0	0	0	0	467	412
4	0	0	0	0	467	412
5	0	0	0	0	467	412
6	0	0	0	0	467	412
7	0	0	0	0	468	411
8	0	0	0	0	468	412
9	0	0	0	0	468	411
10	0	0	0	0	469	412
11	0	0	0	0	470	412
12	0	0	0	0	470	411
13	0	0	0	0	470	412
14	0	0	0	0	470	411
15	0	0	0	0	470	410
0	0	0	0	0	471	412
1	0	0	0	0	471	412
2	0	0	0	0	471	412
3	0	0	0	0	471	411
4	0	0	0	0	471	411
5	0	0	0	0	471	412
6	0	0	0	0	472	411
7	0	0	0	0	472	410
8	0	0	0	0	473	411
9	0	0	0	0	473	410
10	0	0	0	0	473	411
11	0	0	0	0	475	411
12	0	0	0	0	475	410
13	0	0	0	0	476	411
14	0	0	0	0	477	411
15	0	0	0	0	478	409
0	0	0	0	0	478	411
1	0	0	0	0	478	411
2	0	0	0	0	478	411
3	0	0	0	0	480	410
4	0	0	0	0	480	410
5	0	0	0	0	481	411
6	0	0	0	0	480	410
7	0	0	0	0	481	409
8	0	0	0	0	481	411
9	0	0	0	0	482	410
10	0	0	0	0	482	411
11	0	0	0	0	482	410
12	0	0	0	0	483	411
13	0	0	0	0	483	411
14	0	0	0	0	484	411
15	0	0	0	0	484	410
0	0	0	0	0	485	411
1	0	0	0	0	486	411
2	0	0	0	0	486	411
3	0	0	0	0	487	411
4	0	0	0	0	487	411
5	0	0	0	0	487	411
6	0	0	0	0	487	412
7	0	0	0	0	487	411
8	0	0	0	0	488	411
9	0	0	0	0	487	411
10	0	0	0	0	487	411
11	0	0	0	0	488	411
12	0	0	0	0	488	412
13	0	0	0	0	488	411
14	0	0	0	0	488	411
15	0	0	0	0	488	411
0	0	0	0	0	489	412
1	0	0	0	0	489	412
2	0	0	0	0	489	412
3	0	0	0	0	490	412
4	0	0	0	0	491	412
5	0	0	0	0	491	412
6	0	0	0	0	492	412
7	0	0	0	0	492	411
8	0	0	0	0	492	412
9	0	0	0	0	493	413
10	0	0	0	0	493	412
11	0	0	0	0	493	412
12	0	0	0	0	494	413
13	0	0	0	0	495	412
14	0	0	0	0	495	413
15	0	0	0	0	495	412
0	0	0	0	0	496	412
1	0	0	0	0	495	413
2	0	0	0	0	495	412
3	0	0	0	0	495	413
4	0	0	0	0	495	413
5	0	0	0	0	495	413
6	0	0	0	0	495	413
7	0	0	0	0	495	412
8	0	0	0	0	496	412
9	0	0	0	0	496	412
10	0	0	0	0	498	412
11	0	0	0	0	498	412
12	0	0	0	0	498	412
13	0	0	0	0	498	412
14	0	0	0	0	499	413
15	0	0	0	0	499	412
0	0	0	0	0	500	413
1	0	0	0	0	500	413
2	0	0	0	0	500	412
3	0	0	0	0	500	413
4	0	0	0	0	500	413
5	0	0	0	0	500	413
6	0	0	0	0	501	413
7	0	0	0	0	502	412
8	0	0	0	0	502	413
9	0	0	0	0	502	413
10	0	0	0	0	503	413
11	0	0	0	0	504	413
12	0	0	0	0	504	413
13	0	0	0	0	505	413
14	0	0	0	0	505	414
15	0	0	0	0	506	412
0	0	0	0	0	507	413
1	0	0	0	0	507	413
2	0	0	0	0	507	413
3	0	0	0	0	507	414
4	0	0	0	0	508	413
5	0	0	0	0	508	413
6	0	0	0	0	508	412
7	0	0	0	0	507	412
8	0	0	0	0	507	413
9	0	0	0	0	508	413
10	0	0	0	0	507	413
11	0	0	0	0	508	413
12	0	0	0	0	508	413
13	0	0	0	0	508	413
14	0	0	0	0	508	413
15	0	0	0	0	508	412
0	0	0	0	0	510	413
1	0	0	0	0	511	413
2	0	0	0	0	511	413
3	0	0	0	0	511	413
4	0	0	0	0	511	413
5	0	0	0	0	511	413
6	0	0	0	0	512	413
7	0	0	0	0	512	412
8	0	0	0	0	512	413
9	0	0	0	0	512	413
10	0	0	0	0	513	412
11	0	0	0	0	513	412
12	0	0	0	0	514	413
13	0	0	0	0	514	413
14	0	0	0	0	514	413
15	0	0	0	0	515	411
0	0	0	0	0	515	412
1	0	0	0	0	515	413
2	0	0	0	0	515	413
3	0	0	0	0	516	413
4	0	0	0	0	516	413
5	0	0	0	0	517	413
6	0	0	0	0	517	412
7	0	0	0	0	517	411
8	0	0	0	0	516	412
9	0	0	0	0	516	412
10	0	0	0	0	517	412
11	0	0	0	0	517	411
12	0	0	0	0	518	412
13	0	0	0	0	518	412
14	0	0	0	0	518	411
15	0	0	0	0	517	411
0	0	0	0	0	519	412
1	0	0	0	0	519	412
2	0	0	0	0	519	412
3	0	0	0	0	520	412
4	0	0	0	0	520	412
5	0	0	0	0	521	412
6	0	0	0	0	522	411
7	0	0	0	0	523	410
8	0	0	0	0	524	411
9	0	0	0	0	526	411
10	0	0	0	0	527	411
11	0	0	0	0	527	411
12	0	0	0	0	527	411
13	0	0	0	0	528	411
14	0	0	0	0	528	411
15	0	0	0	0	528	410
0	0	0	0	0	528	411
1	0	0	0	0	528	411
2	0	0	0	0	527	411
3	0	0	0	0	527	411
4	0	0	0	0	527	411
5	0	0	0	0	526	410
6	0	0	0	0	526	410
7	0	0	0	0	527	409
8	0	0	0	0	527	411
9	0	0	0	0	527	410
10	0	0	0	0	526	410
11	0	0	0	0	527	411
12	0	0	0	0	527	410
13	0	0	0	0	527	411
14	0	0	0	0	528	410
15	0	0	0	0	528	410
0	0	0	0	0	529	411
1	0	0	0	0	528	412
2	0	0	0	0	528	412
3	0	0	0	0	527	412
4	0	0	0	0	526	411
5	0	0	0	0	526	411
6	0	0	0	0	524	411
7	0	0	0	0	524	410
8	0	0	0	0	523	411
9	0	0	0	0	522	412
10	0	0	0	0	520	411
11	0	0	0	0	519	411
12	0	0	0	0	518	412
13	0	0	0	0	518	412
14	0	0	0	0	517	411
15	0	0	0	0	517	410
0	0	0	0	0	517	412
1	0	0	0	0	517	412
2	0	0	0	0	516	412
3	0	0	0	0	516	411
4	0	0	0	0	515	411
5	0	0	0	0	514	411
6	0	0	0	0	512	411
7	0	0	0	0	511	410
8	0	0	0	0	510	411
9	0	0	0	0	507	411
10	0	0	0	0	505	412
11	0	0	0	0	503	412
12	0	0	0	0	502	412
13	0	0	0	0	501	412
14	0	0	0	0	499	412
15	0	0	0	0	498	411
0	0	0	0	0	497	412
1	0	0	0	0	496	411
2	0	0	0	0	495	411
3	0	0	0	0	494	412
4	0	0	0	0	495	412
5	0	0	0	0	495	412
6	0	0	0	0	495	412
7	0	0	0	0	494	411
8	0	0	0	0	495	412
9	0	0	0	0	494	412
10	0	0	0	0	492	412
11	0	0	0	0	492	412
12	0	0	0	0	491	413
13	0	0	0	0	491	413
14	0	0	0	0	490	412
15	0	0	0	0	489	412
0	0	0	0	0	489	413
1	0	0	0	0	488	413
2	0	0	0	0	488	413
3	0	0	0	0	487	412
4	0	0	0	0	487	413
5	0	0	0	0	488	413
6	0	0	0	0	488	413
7	0	0	0	0	488	413
8	0	0	0	0	489	412
9	0	0	0	0	489	413
10	0	0	0	0	490	413
11	0	0	0	0	490	413
12	0	0	0	0	489	413
13	0	0	0	0	489	413
14	0	0	0	0	489	413
15	0	0	0	0	488	412
0	0	0	0	0	489	413
1	0	0	0	0	488	413
2	0	0	0	0	487	413
3	0	0	0	0	487	413
4	0	0	0	0	486	413
5	0	0	0	0	485	413
6	0	0	0	0	486	412
7	0	0	0	0	486	412
8	0	0	0	0	486	412
9	0	0	0	0	486	412
10	0	0	0	0	487	413
11	0	0	0	0	488	412
12	0	0	0	0	489	413
13	0	0	0	0	490	413
14	0	0	0	0	491	413
15	0	0	0	0	492	412
0	0	0	0	0	493	412
1	0	0	0	0	492	412
2	0	0	0	0	492	412
3	0	0	0	0	493	412
4	0	0	0	0	492	413
5	0	0	0	0	492	413
6	0	0	0	0	491	412
7	0	0	0	0	491	412
8	0	0	0	0	491	412
9	0	0	0	0	491	412
10	0	0	0	0	492	412
11	0	0	0	0	492	413
12	0	0	0	0	492	412
13	0	0	0	0	493	413
14	0	0	0	0	493	412
15	0	0	0	0	493	411
0	0	0	0	0	493	412
1	0	0	0	0	494	412
2	0	0	0	0	495	412
3	0	0	0	0	495	412
4	0	0	0	0	496	412
5	0	0	0	0	497	412
6	0	0	0	0	497	411
7	0	0	0	0	498	411
8	0	0	0	0	499	411
9	0	0	0	0	498	412
10	0	0	0	0	498	412
11	0	0	0	0	497	412
12	0	0	0	0	497	412
13	0	0	0	0	497	412
14	0	0	0	0	497	412
15	0	0	0	0	496	412
0	0	0	0	0	497	412
1	0	0	0	0	496	412
2	0	0	0	0	497	412
3	0	0	0	0	497	411
4	0	0	0	0	498	412
5	0	0	0	0	498	412
6	0	0	0	0	499	412
7	0	0	0	0	499	411
8	0	0	0	0	499	412
9	0	0	0	0	499	412
10	0	0	0	0	500	412
11	0	0	0	0	500	412
12	0	0	0	0	500	412
13	0	0	0	0	499	412
14	0	0	0	0	497	412
15	0	0	0	0	496	410
0	0	0	0	0	497	412
1	0	0	0	0	499	412
2	0	0	0	0	499	411
3	0	0	0	0	499	411
4	0	0	0	0	498	412
5	0	0	0	0	499	411
6	0	0	0	0	499	411
7	0	0	0	0	499	411
8	0	0	0	0	499	411
9	0	0	0	0	499	410
10	0	0	0	0	499	411
11	0	0	0	0	499	411
12	0	0	0	0	499	411
13	0	0	0	0	499	411
14	0	0	0	0	499	411
15	0	0	0	0	500	410
0	0	0	0	0	500	411
1	0	0	0	0	500	411
2	0	0	0	0	499	412
3	0	0	0	0	499	411
4	0	0	0	0	499	412
5	0	0	0	0	499	412
6	0	0	0	0	498	411
7	0	0	0	0	499	411
8	0	0	0	0	497	412
9	0	0	0	0	497	412
10	0	0	0	0	497	411
11	0	0	0	0	497	412
12	0	0	0	0	497	411
13	0	0	0	0	497	412
14	0	0	0	0	498	411
15	0	0	0	0	499	410
0	0	0	0	0	499	411
1	0	0	0	0	499	411
2	0	0	0	0	499	411
3	0	0	0	0	500	412
4	0	0	0	0	501	412
5	0	0	0	0	502	411
6	0	0	0	0	502	412
7	0	0	0	0	502	411
8	0	0	0	0	502	412
9	0	0	0	0	503	411
10	0	0	0	0	503	412
11	0	0	0	0	503	411
12	0	0	0	0	502	411
13	0	0	0	0	503	411
14	0	0	0	0	502	411
15	0	0	0	0	502	410
0	0	0	0	0	502	411
1	0	0	0	0	502	411
2	0	0	0	0	502	411
3	0	0	0	0	502	411
4	0	0	0	0	504	412
5	0	0	0	0	504	411
6	0	0	0	0	504	411
7	0	0	0	0	504	411
8	0	0	0	0	504	411
9	0	0	0	0	504	411
10	0	0	0	0	503	412
11	0	0	0	0	503	411
12	0	0	0	0	504	412
13	0	0	0	0	504	412
14	0	0	0	0	504	412
15	0	0	0	0	504	411
0	0	0	0	0	504	412
1	0	0	0	0	503	412
2	0	0	0	0	503	412
3	0	0	0	0	503	412
4	0	0	0	0	504	412
5	0	0	0	0	505	412
6	0	0	0	0	506	412
7	0	0	0	0	507	412
8	0	0	0	0	507	413
9	0	0	0	0	507	413
10	0	0	0	0	507	413
11	0	0	0	0	507	414
12	0	0	0	0	507	414
13	0	0	0	0	507	413
14	0	0	0	0	508	412
15	0	0	0	0	508	412
0	0	0	0	0	508	412
1	0	0	0	0	507	413
2	0	0	0	0	507	413
3	0	0	0	0	506	413
4	0	0	0	0	506	413
5	0	0	0	0	507	413
6	0	0	0	0	507	413
7	0	0	0	0	507	412
8	0	0	0	0	508	414
9	0	0	0	0	508	414
10	0	0	0	0	508	414
11	0	0	0	0	508	413
12	0	0	0	0	508	413
13	0	0	0	0	508	413
14	0	0	0	0	509	414
15	0	0	0	0	509	413
0	0	0	0	0	510	413
1	0	0	0	0	510	414
2	0	0	0	0	510	414
3	0	0	0	0	509	413
4	0	0	0	0	508	413
5	0	0	0	0	508	413
6	0	0	0	0	508	414
7	0	0	0	0	507	412
8	0	0	0	0	507	413
9	0	0	0	0	507	413
10	0	0	0	0	507	413
11	0	0	0	0	508	413
12	0	0	0	0	508	412
13	0	0	0	0	509	413
14	0	0	0	0	508	412
15	0	0	0	0	509	412
0	0	0	0	0	509	412
1	0	0	0	0	510	412
2	0	0	0	0	509	412
3	0	0	0	0	509	413
4	0	0	0	0	509	413
5	0	0	0	0	508	413
6	0	0	0	0	507	413
7	0	0	0	0	507	412
8	0	0	0	0	506	412
9	0	0	0	0	505	413
10	0	0	0	0	505	413
11	0	0	0	0	505	412
12	0	0	0	0	506	412
13	0	0	0	0	506	412
14	0	0	0	0	506	411
15	0	0	0	0	507	411
0	0	0	0	0	508	411
1	0	0	0	0	508	411
2	0	0	0	0	509	411
3	0	0	0	0	509	411
4	0	0	0	0	508	412
5	0	0	0	0	509	412
6	0	0	0	0	509	412
7	0	0	0	0	510	410
8	0	0	0	0	510	411
9	0	0	0	0	510	411
10	0	0	0	0	509	410
11	0	0	0	0	509	411
12	0	0	0	0	509	411
13	0	0	0	0	509	411
14	0	0	0	0	509	411
15	0	0	0	0	510	409
0	0	0	0	0	511	411
1	0	0	0	0	510	411
2	0	0	0	0	510	411
3	0	0	0	0	510	411
4	0	0	0	0	510	411
5	0	0	0	0	510	410
6	0	0	0	0	510	411
7	0	0	0	0	511	409
8	0	0	0	0	510	410
9	0	0	0	0	510	411
10	0	0	0	0	510	410
11	0	0	0	0	510	410
12	0	0	0	0	512	410
13	0	0	0	0	513	410
14	0	0	0	0	512	410
15	0	0	0	0	512	409
0	0	0	0	0	512	411
1	0	0	0	0	511	411
2	0	0	0	0	511	411
3	0	0	0	0	510	411
4	0	0	0	0	510	411
5	0	0	0	0	510	411
6	0	0	0	0	510	411
7	0	0	0	0	512	410
8	0	0	0	0	513	411
9	0	0	0	0	513	410
10	0	0	0	0	514	411
11	0	0	0	0	515	410
12	0	0	0	0	516	410
13	0	0	0	0	515	410
14	0	0	0	0	515	411
15	0	0	0	0	515	409
0	0	0	0	0	514	410
1	0	0	0	0	513	411
2	0	0	0	0	512	411
3	0	0	0	0	511	411
4	0	0	0	0	510	411
5	0	0	0	0	510	410
6	0	0	0	0	510	411
7	0	0	0	0	511	410
8	0	0	0	0	511	411
9	0	0	0	0	512	412
10	0	0	0	0	512	411
11	0	0	0	0	512	411
12	0	0	0	0	512	411
13	0	0	0	0	512	411
14	0	0	0	0	513	411
15	0	0	0	0	513	411
0	0	0	0	0	513	412
1	0	0	0	0	513	412
2	0	0	0	0	513	412
3	0	0	0	0	514	412
4	0	0	0	0	514	413
5	0	0	0	0	515	411
6	0	0	0	0	515	412
7	0	0	0	0	515	411
8	0	0	0	0	515	412
9	0	0	0	0	515	412
10	0	0	0	0	514	413
11	0	0	0	0	514	412
12	0	0	0	0	514	412
13	0	0	0	0	513	412
14	0	0	0	0	513	412
15	0	0	0	0	513	411
0	0	0	0	0	513	412
1	0	0	0	0	513	412
2	0	0	0	0	513	412
3	0	0	0	0	513	413
4	0	0	0	0	513	412
5	0	0	0	0	513	412
6	0	0	0	0	512	413
7	0	0	0	0	513	412
8	0	0	0	0	514	413
9	0	0	0	0	514	412
10	0	0	0	0	514	412
11	0	0	0	0	513	412
12	0	0	0	0	513	413
13	0	0	0	0	513	413
14	0	0	0	0	512	413
15	0	0	0	0	513	412
0	0	0	0	0	513	414
1	0	0	0	0	513	414
2	0	0	0	0	514	414
3	0	0	0	0	514	413
4	0	0	0	0	515	413
5	0	0	0	0	515	413
6	0	0	0	0	515	413
7	0	0	0	0	515	412
8	0	0	0	0	514	413
9	0	0	0	0	513	413
10	0	0	0	0	512	413
11	0	0	0	0	512	413
12	0	0	0	0	512	413
13	0	0	0	0	512	413
14	0	0	0	0	512	413
15	0	0	0	0	512	412
0	0	0	0	0	512	413
1	0	0	0	0	512	413
2	0	0	0	0	512	413
3	0	0	0	0	512	413
4	0	0	0	0	513	413
5	0	0	0	0	514	413
6	0	0	0	0	515	412
7	0	0	0	0	515	411
8	0	0	0	0	516	413
9	0	0	0	0	517	412
10	0	0	0	0	517	412
11	0	0	0	0	517	412
12	0	0	0	0	517	413
13	0	0	0	0	517	413
14	0	0	0	0	517	412
15	0	0	0	0	516	411
0	0	0	0	0	516	413
1	0	0	0	0	515	412
2	0	0	0	0	514	412
3	0	0	0	0	513	412
4	0	0	0	0	513	412
5	0	0	0	0	513	412
6	0	0	0	0	512	412
7	0	0	0	0	512	412
8	0	0	0	0	512	413
9	0	0	0	0	512	412
10	0	0	0	0	512	412
11	0	0	0	0	512	412
12	0	0	0	0	513	412
13	0	0	0	0	513	412
14	0	0	0	0	514	412
15	0	0	0	0	515	412
0	0	0	0	0	515	412
1	0	0	0	0	515	412
2	0	0	0	0	515	412
3	0	0	0	0	514	412
4	0	0	0	0	515	412
5	0	0	0	0	515	412
6	0	0	0	0	515	412
7	0	0	0	0	515	411
8	0	0	0	0	515	412
9	0	0	0	0	515	412
10	0	0	0	0	515	412
11	0	0	0	0	515	412
12	0	0	0	0	515	411
13	0	0	0	0	515	412
14	0	0	0	0	515	412
15	0	0	0	0	516	411
0	0	0	0	0	516	412
1	0	0	0	0	516	412
2	0	0	0	0	516	411
3	0	0	0	0	517	412
4	0	0	0	0	517	412
5	0	0	0	0	516	411
6	0	0	0	0	516	412
7	0	0	0	0	516	411
8	0	0	0	0	516	412
9	0	0	0	0	517	412
10	0	0	0	0	517	412
11	0	0	0	0	518	412
12	0	0	0	0	517	411
13	0	0	0	0	517	411
14	0	0	0	0	517	411
15	0	0	0	0	517	410
0	0	0	0	0	516	411
1	0	0	0	0	515	411
2	0	0	0	0	515	411
3	0	0	0	0	517	411
4	0	0	0	0	519	411
5	0	0	0	0	520	411
6	0	0	0	0	521	411
7	0	0	0	0	522	409
8	0	0	0	0	521	411
9	0	0	0	0	521	412
10	0	0	0	0	521	412
11	0	0	0	0	522	411
12	0	0	0	0	522	412
13	0	0	0	0	521	412
14	0	0	0	0	521	411
15	0	0	0	0	520	410
0	0	0	0	0	520	411
1	0	0	0	0	519	412
2	0	0	0	0	519	412
3	0	0	0	0	518	412
4	0	0	0	0	517	411
5	0	0	0	0	516	411
6	0	0	0	0	515	412
7	0	0	0	0	515	411
8	0	0	0	0	515	411
9	0	0	0	0	515	412
10	0	0	0	0	515	412
11	0	0	0	0	515	412
12	0	0	0	0	516	411
13	0	0	0	0	516	411
14	0	0	0	0	516	411
15	0	0	0	0	515	410
0	0	0	0	0	515	411
1	0	0	0	0	515	411
2	0	0	0	0	515	411
3	0	0	0	0	515	411
4	0	0	0	0	515	411
5	0	0	0	0	516	411
6	0	0	0	0	516	411
7	0	0	0	0	516	410
8	0	0	0	0	516	411
9	0	0	0	0	516	411
10	0	0	0	0	516	411
11	0	0	0	0	516	411
12	0	0	0	0	516	411
13	0	0	0	0	516	411
14	0	0	0	0	517	411
15	0	0	0	0	518	410
0	0	0	0	0	518	411
1	0	0	0	0	518	412
2	0	0	0	0	519	411
3	0	0	0	0	519	411
4	0	0	0	0	519	412
5	0	0	0	0	519	412
6	0	0	0	0	520	412
7	0	0	0	0	519	411
8	0	0	0	0	519	412
9	0	0	0	0	518	412
10	0	0	0	0	517	412
11	0	0	0	0	517	412
12	0	0	0	0	517	411
13	0	0	0	0	517	412
14	0	0	0	0	517	411
15	0	0	0	0	517	411
0	0	0	0	0	517	412
1	0	0	0	0	516	412
2	0	0	0	0	516	412
3	0	0	0	0	516	412
4	0	0	0	0	516	412
5	0	0	0	0	516	412
6	0	0	0	0	515	412
7	0	0	0	0	515	411
8	0	0	0	0	515	412
9	0	0	0	0	515	412
10	0	0	0	0	515	412
11	0	0	0	0	515	412
12	0	0	0	0	516	412
13	0	0	0	0	516	412
14	0	0	0	0	516	412
15	0	0	0	0	517	411
0	0	0	0	0	518	412
1	0	0	0	0	519	412
2	0	0	0	0	520	412
3	0	0	0	0	521	412
4	0	0	0	0	522	412
5	0	0	0	0	523	412
6	0	0	0	0	524	412
7	0	0	0	0	524	411
8	0	0	0	0	525	412
9	0	0	0	0	524	412
10	0	0	0	0	525	412
11	0	0	0	0	524	412
12	0	0	0	0	525	412
13	0	0	0	0	525	412
14	0	0	0	0	525	412
15	0	0	0	0	526	412
0	0	0	0	0	526	413
1	0	0	0	0	526	413
2	0	0	0	0	526	413
3	0	0	0	0	526	412
4	0	0	0	0	526	413
5	0	0	0	0	527	413
6	0	0	0	0	527	413
7	0	0	0	0	527	412
8	0	0	0	0	527	413
9	0	0	0	0	527	413
10	0	0	0	0	527	413
11	0	0	0	0	527	412
12	0	0	0	0	527	413
13	0	0	0	0	527	413
14	0	0	0	0	526	413
15	0	0	0	0	526	412
0	0	0	0	0	526	414
1	0	0	0	0	526	414
2	0	0	0	0	526	413
3	0	0	0	0	526	413
4	0	0	0	0	525	414
5	0	0	0	0	524	413
6	0	0	0	0	525	413
7	0	0	0	0	524	412
8	0	0	0	0	524	413
9	0	0	0	0	524	414
10	0	0	0	0	522	413
11	0	0	0	0	522	414
12	0	0	0	0	520	414
13	0	0	0	0	520	414
14	0	0	0	0	520	413
15	0	0	0	0	521	413
0	0	0	0	0	521	414
1	0	0	0	0	521	413
2	0	0	0	0	520	413
3	0	0	0	0	519	414
4	0	0	0	0	519	414
5	0	0	0	0	518	414
6	0	0	0	0	517	413
7	0	0	0	0	516	412
8	0	0	0	0	516	413
9	0	0	0	0	515	413
10	0	0	0	0	515	413
11	0	0	0	0	515	413
12	0	0	0	0	515	413
13	0	0	0	0	515	412
14	0	0	0	0	514	413
15	0	0	0	0	514	412
0	0	0	0	0	515	412
1	0	0	0	0	515	411
2	0	0	0	0	515	412
3	0	0	0	0	515	412
4	0	0	0	0	515	412
5	0	0	0	0	515	412
6	0	0	0	0	515	412
7	0	0	0	0	514	411
8	0	0	0	0	514	412
9	0	0	0	0	515	412
10	0	0	0	0	514	412
11	0	0	0	0	514	412
12	0	0	0	0	514	412
13	0	0	0	0	513	412
14	0	0	0	0	513	412
15	0	0	0	0	514	410
0	0	0	0	0	514	411
1	0	0	0	0	513	412
2	0	0	0	0	512	411
3	0	0	0	0	511	411
4	0	0	0	0	512	411
5	0	0	0	0	514	411
6	0	0	0	0	514	412
7	0	0	0	0	514	410
8	0	0	0	0	513	411
9	0	0	0	0	513	411
10	0	0	0	0	512	411
11	0	0	0	0	512	411
12	0	0	0	0	512	411
13	0	0	0	0	512	410
14	0	0	0	0	511	411
15	0	0	0	0	512	410
0	0	0	0	0	512	411
1	0	0	0	0	512	411
2	0	0	0	0	512	411
3	0	0	0	0	512	411
4	0	0	0	0	513	411
5	0	0	0	0	514	412
6	0	0	0	0	514	411
7	0	0	0	0	515	410
8	0	0	0	0	516	411
9	0	0	0	0	517	411
10	0	0	0	0	518	411
11	0	0	0	0	518	411
12	0	0	0	0	519	412
13	0	0	0	0	519	412
14	0	0	0	0	519	411
15	0	0	0	0	519	409
0	0	0	0	0	519	411
1	0	0	0	0	518	411
2	0	0	0	0	518	411
3	0	0	0	0	518	411
4	0	0	0	0	518	410
5	0	0	0	0	518	410
6	0	0	0	0	517	410
7	0	0	0	0	517	409
8	0	0	0	0	516	410
9	0	0	0	0	516	409
10	0	0	0	0	516	409
11	0	0	0	0	516	410
12	0	0	0	0	515	409
13	0	0	0	0	515	410
14	0	0	0	0	515	410
15	0	0	0	0	515	409
0	0	0	0	0	514	410
1	0	0	0	0	514	410
2	0	0	0	0	515	411
3	0	0	0	0	515	411
4	0	0	0	0	515	411
5	0	0	0	0	515	411
6	0	0	0	0	516	410
7	0	0	0	0	518	410
8	0	0	0	0	518	411
9	0	0	0	0	518	411
10	0	0	0	0	518	411
11	0	0	0	0	518	411
12	0	0	0	0	519	411
13	0	0	0	0	519	411
14	0	0	0	0	519	411
15	0	0	0	0	520	409
0	0	0	0	0	521	411
1	0	0	0	0	521	411
2	0	0	0	0	522	412
3	0	0	0	0	522	411
4	0	0	0	0	522	411
5	0	0	0	0	523	411
6	0	0	0	0	522	411
7	0	0	0	0	522	411
8	0	0	0	0	523	412
9	0	0	0	0	522	412
10	0	0	0	0	521	412
11	0	0	0	0	519	412
12	0	0	0	0	517	412
13	0	0	0	0	515	412
14	0	0	0	0	512	413
15	0	0	0	0	509	412
0	0	0	0	0	505	413
1	0	0	0	0	501	413
2	0	0	0	0	497	413
3	0	0	0	0	493	413
4	0	0	0	0	490	413
5	0	0	0	0	488	413
6	0	0	0	0	485	413
7	0	0	0	0	483	412
8	0	0	0	0	482	413
9	0	0	0	0	482	413
10	0	0	0	0	482	413
11	0	0	0	0	484	413
12	0	0	0	0	487	414
13	0	0	0	0	490	414
14	0	0	0	0	494	414
15	0	0	0	0	499	412
0	0	0	0	0	507	414
1	0	0	0	0	516	414
2	0	0	0	0	528	414
3	0	0	0	0	541	414
4	0	0	0	0	554	413
5	0	0	0	0	568	414
6	0	0	0	0	582	413
7	0	0	0	0	596	413
8	0	0	0	0	612	413
9	0	0	0	0	629	414
10	0	0	0	0	645	413
11	0	0	0	0	660	413
12	0	0	0	0	674	413
13	0	0	0	0	687	413
14	0	0	0	0	698	413
15	0	0	0	0	709	412
0	0	0	0	0	718	413
1	0	0	0	0	726	413
2	0	0	0	0	733	413
3	0	0	0	0	736	413
4	0	0	0	0	738	413
5	0	0	0	0	738	413
6	0	0	0	0	737	413
7	0	0	0	0	735	412
8	0	0	0	0	732	413
9	0	0	0	0	726	413
10	0	0	0	0	719	414
11	0	0	0	0	711	414
12	0	0	0	0	701	413
13	0	0	0	0	690	413
14	0	0	0	0	679	413
15	0	0	0	0	667	412
0	0	0	0	0	653	413
1	0	0	0	0	638	412
2	0	0	0	0	622	412
3	0	0	0	0	605	413
4	0	0	0	0	589	413
5	0	0	0	0	575	412
6	0	0	0	0	562	412
7	0	0	0	0	551	411
8	0	0	0	0	542	412
9	0	0	0	0	531	412
10	0	0	0	0	523	412
11	0	0	0	0	515	412
12	0	0	0	0	508	412
13	0	0	0	0	502	412
14	0	0	0	0	497	412
15	0	0	0	0	494	412
0	0	0	0	0	491	412
1	0	0	0	0	488	412
2	0	0	0	0	486	412
3	0	0	0	0	484	411
4	0	0	0	0	483	412
5	0	0	0	0	483	412
6	0	0	0	0	481	411
7	0	0	0	0	480	411
8	0	0	0	0	479	412
9	0	0	0	0	477	412
10	0	0	0	0	475	412
11	0	0	0	0	473	412
12	0	0	0	0	472	411
13	0	0	0	0	471	411
14	0	0	0	0	470	410
15	0	0	0	0	468	410
0	0	0	0	0	467	410
1	0	0	0	0	465	411
2	0	0	0	0	464	410
3	0	0	0	0	464	411
4	0	0	0	0	465	410
5	0	0	0	0	467	410
6	0	0	0	0	468	411
7	0	0	0	0	467	411
8	0	0	0	0	467	412
9	0	0	0	0	466	412
10	0	0	0	0	466	411
11	0	0	0	0	468	411
12	0	0	0	0	468	411
13	0	0	0	0	469	411
14	0	0	0	0	468	410
15	0	0	0	0	468	410
0	0	0	0	0	468	411
1	0	0	0	0	467	411
2	0	0	0	0	467	411
3	0	0	0	0	467	410
4	0	0	0	0	467	410
5	0	0	0	0	467	410
6	0	0	0	0	468	410
7	0	0	0	0	467	409
8	0	0	0	0	467	411
9	0	0	0	0	467	411
10	0	0	0	0	468	411
11	0	0	0	0	467	411
12	0	0	0	0	467	411
13	0	0	0	0	468	411
14	0	0	0	0	468	411
15	0	0	0	0	469	410
0	0	0	0	0	470	411
1	0	0	0	0	470	411
2	0	0	0	0	470	411
3	0	0	0	0	470	411
4	0	0	0	0	470	411
5	0	0	0	0	470	411
6	0	0	0	0	470	411
7	0	0	0	0	470	410
8	0	0	0	0	470	411
9	0	0	0	0	470	411
10	0	0	0	0	470	412
11	0	0	0	0	469	411
12	0	0	0	0	469	412
13	0	0	0	0	470	412
14	0	0	0	0	470	411
15	0	0	0	0	470	410
0	0	0	0	0	470	411
1	0	0	0	0	469	411
2	0	0	0	0	468	411
3	0	0	0	0	468	411
4	0	0	0	0	469	412
5	0	0	0	0	469	412
6	0	0	0	0	469	411
7	0	0	0	0	470	410
8	0	0	0	0	470	412
9	0	0	0	0	471	412
10	0	0	0	0	472	412
11	0	0	0	0	472	412
12	0	0	0	0	473	411
13	0	0	0	0	473	411
14	0	0	0	0	474	411
15	0	0	0	0	475	410
0	0	0	0	0	475	412
1	0	0	0	0	475	412
2	0	0	0	0	475	412
3	0	0	0	0	475	412
4	0	0	0	0	476	412
5	0	0	0	0	477	411
6	0	0	0	0	478	412
7	0	0	0	0	478	411
8	0	0	0	0	480	412
9	0	0	0	0	481	413
10	0	0	0	0	482	412
11	0	0	0	0	483	412
12	0	0	0	0	483	412
13	0	0	0	0	484	412
14	0	0	0	0	484	412
15	0	0	0	0	486	411
0	0	0	0	0	486	413
1	0	0	0	0	487	412
2	0	0	0	0	488	413
3	0	0	0	0	488	412
4	0	0	0	0	488	413
5	0	0	0	0	489	412
6	0	0	0	0	489	412
7	0	0	0	0	490	411
8	0	0	0	0	490	412
9	0	0	0	0	490	413
10	0	0	0	0	490	412
11	0	0	0	0	490	413
12	0	0	0	0	490	413
13	0	0	0	0	489	413
14	0	0	0	0	489	413
15	0	0	0	0	488	412
0	0	0	0	0	489	413
1	0	0	0	0	490	413
2	0	0	0	0	490	413
3	0	0	0	0	491	413
4	0	0	0	0	490	414
5	0	0	0	0	490	414
6	0	0	0	0	490	414
7	0	0	0	0	491	412
8	0	0	0	0	492	413
9	0	0	0	0	492	413
10	0	0	0	0	491	413
11	0	0	0	0	490	413
12	0	0	0	0	491	413
13	0	0	0	0	491	413
14	0	0	0	0	492	413
15	0	0	0	0	493	412
0	0	0	0	0	493	413
1	0	0	0	0	493	413
2	0	0	0	0	493	413
3	0	0	0	0	494	413
4	0	0	0	0	495	413
5	0	0	0	0	495	412
6	0	0	0	0	495	412
7	0	0	0	0	496	411
8	0	0	0	0	496	413
9	0	0	0	0	496	412
10	0	0	0	0	496	412
11	0	0	0	0	496	412
12	0	0	0	0	495	412
13	0	0	0	0	495	412
14	0	0	0	0	495	412
15	0	0	0	0	495	411
0	0	0	0	0	496	411
1	0	0	0	0	496	412
2	0	0	0	0	497	412
3	0	0	0	0	498	412
4	0	0	0	0	499	412
5	0	0	0	0	499	412
6	0	0	0	0	499	412
7	0	0	0	0	500	411
8	0	0	0	0	500	412
9	0	0	0	0	499	412
10	0	0	0	0	500	412
11	0	0	0	0	500	412
12	0	0	0	0	500	411
13	0	0	0	0	500	412
14	0	0	0	0	501	412
15	0	0	0	0	503	411
0	0	0	0	0	503	412
1	0	0	0	0	504	412
2	0	0	0	0	505	412
3	0	0	0	0	506	412
4	0	0	0	0	506	412
5	0	0	0	0	507	412
6	0	0	0	0	507	412
7	0	0	0	0	507	411
8	0	0	0	0	508	412
9	0	0	0	0	509	412
10	0	0	0	0	509	412
11	0	0	0	0	509	412
12	0	0	0	0	510	413
13	0	0	0	0	510	412
14	0	0	0	0	511	412
15	0	0	0	0	511	411
0	0	0	0	0	510	413
1	0	0	0	0	510	412
2	0	0	0	0	510	412
3	0	0	0	0	512	412
4	0	0	0	0	514	412
5	0	0	0	0	515	412
6	0	0	0	0	515	412
7	0	0	0	0	516	411
8	0	0	0	0	517	412
9	0	0	0	0	517	412
10	0	0	0	0	518	412
11	0	0	0	0	518	412
12	0	0	0	0	518	411
13	0	0	0	0	518	411
14	0	0	0	0	518	412
15	0	0	0	0	518	411
0	0	0	0	0	518	412
1	0	0	0	0	517	412
2	0	0	0	0	517	412
3	0	0	0	0	518	412
4	0	0	0	0	518	412
5	0	0	0	0	519	412
6	0	0	0	0	520	412
7	0	0	0	0	521	411
8	0	0	0	0	522	412
9	0	0	0	0	523	412
10	0	0	0	0	523	412
11	0	0	0	0	523	412
12	0	0	0	0	523	412
13	0	0	0	0	523	412
14	0	0	0	0	523	412
15	0	0	0	0	522	410
0	0	0	0	0	522	412
1	0	0	0	0	522	412
2	0	0	0	0	522	412
3	0	0	0	0	523	412
4	0	0	0	0	523	412
5	0	0	0	0	524	412
6	0	0	0	0	523	411
7	0	0	0	0	523	410
8	0	0	0	0	523	411
9	0	0	0	0	523	411
10	0	0	0	0	523	411
11	0	0	0	0	524	411
12	0	0	0	0	524	411
13	0	0	0	0	525	411
14	0	0	0	0	526	411
15	0	0	0	0	526	410
0	0	0	0	0	527	411
1	0	0	0	0	527	411
2	0	0	0	0	527	411
3	0	0	0	0	527	411
4	0	0	0	0	527	410
5	0	0	0	0	526	410
6	0	0	0	0	525	410
7	0	0	0	0	524	408
8	0	0	0	0	524	410
9	0	0	0	0	522	410
10	0	0	0	0	521	411
11	0	0	0	0	519	410
12	0	0	0	0	518	411
13	0	0	0	0	517	410
14	0	0	0	0	515	411
15	0	0	0	0	514	409
0	0	0	0	0	513	411
1	0	0	0	0	512	411
2	0	0	0	0	512	410
3	0	0	0	0	511	411
4	0	0	0	0	512	410
5	0	0	0	0	511	411
6	0	0	0	0	511	410
7	0	0	0	0	511	410
8	0	0	0	0	509	411
9	0	0	0	0	508	411
10	0	0	0	0	507	411
11	0	0	0	0	507	411
12	0	0	0	0	505	412
13	0	0	0	0	504	411
14	0	0	0	0	502	411
15	0	0	0	0	502	410
0	0	0	0	0	501	411
1	0	0	0	0	499	411
2	0	0	0	0	498	411
3	0	0	0	0	498	411
4	0	0	0	0	497	411
5	0	0	0	0	496	411
6	0	0	0	0	496	411
7	0	0	0	0	496	410
8	0	0	0	0	496	411
9	0	0	0	0	495	411
10	0	0	0	0	494	412
11	0	0	0	0	494	411
12	0	0	0	0	494	412
13	0	0	0	0	492	412
14	0	0	0	0	491	412
15	0	0	0	0	489	411
0	0	0	0	0	488	412
1	0	0	0	0	487	412
2	0	0	0	0	487	412
3	0	0	0	0	486	412
4	0	0	0	0	485	413
5	0	0	0	0	485	412
6	0	0	0	0	485	412
7	0	0	0	0	484	411
8	0	0	0	0	483	412
9	0	0	0	0	483	412
10	0	0	0	0	483	413
11	0	0	0	0	484	413
12	0	0	0	0	484	413
13	0	0	0	0	483	413
14	0	0	0	0	483	413
15	0	0	0	0	483	412
0	0	0	0	0	482	413
1	0	0	0	0	483	413
2	0	0	0	0	483	413
3	0	0	0	0	481	412
4	0	0	0	0	480	413
5	0	0	0	0	480	413
6	0	0	0	0	480	413
7	0	0	0	0	480	412
8	0	0	0	0	479	413
9	0	0	0	0	479	413
10	0	0	0	0	479	414
11	0	0	0	0	480	413
12	0	0	0	0	480	413
13	0	0	0	0	481	414
14	0	0	0	0	481	413
15	0	0	0	0	481	412
0	0	0	0	0	482	414
1	0	0	0	0	482	414
2	0	0	0	0	483	414
3	0	0	0	0	484	414
4	0	0	0	0	484	413
5	0	0	0	0	484	414
6	0	0	0	0	484	413
7	0	0	0	0	484	412
8	0	0	0	0	485	413
9	0	0	0	0	484	414
10	0	0	0	0	485	414
11	0	0	0	0	485	414
12	0	0	0	0	486	413
13	0	0	0	0	486	414
14	0	0	0	0	486	414
15	0	0	0	0	485	412
0	0	0	0	0	486	413
1	0	0	0	0	486	413
2	0	0	0	0	487	413
3	0	0	0	0	487	413
4	0	0	0	0	487	413
5	0	0	0	0	487	413
6	0	0	0	0	487	413
7	0	0	0	0	486	412
8	0	0	0	0	485	413
9	0	0	0	0	485	413
10	0	0	0	0	485	412
11	0	0	0	0	484	413
12	0	0	0	0	484	414
13	0	0	0	0	484	413
14	0	0	0	0	485	413
15	0	0	0	0	486	412
0	0	0	0	0	487	413
1	0	0	0	0	488	413
2	0	0	0	0	489	413
3	0	0	0	0	490	412
4	0	0	0	0	490	413
5	0	0	0	0	491	412
6	0	0	0	0	490	412
7	0	0	0	0	489	411
8	0	0	0	0	489	412
9	0	0	0	0	489	412
10	0	0	0	0	488	412
11	0	0	0	0	489	412
12	0	0	0	0	488	412
13	0	0	0	0	487	412
14	0	0	0	0	487	412
15	0	0	0	0	486	411
0	0	0	0	0	486	412
1	0	0	0	0	487	412
2	0	0	0	0	488	411
3	0	0	0	0	489	412
4	0	0	0	0	491	412
5	0	0	0	0	491	411
6	0	0	0	0	492	412
7	0	0	0	0	492	410
8	0	0	0	0	494	412
9	0	0	0	0	495	412
10	0	0	0	0	496	411
11	0	0	0	0	496	411
12	0	0	0	0	496	411
13	0	0	0	0	496	411
14	0	0	0	0	497	411
15	0	0	0	0	497	410
0	0	0	0	0	497	410
1	0	0	0	0	496	410
2	0	0	0	0	497	411
3	0	0	0	0	496	411
4	0	0	0	0	496	410
5	0	0	0	0	497	410
6	0	0	0	0	497	411
7	0	0	0	0	496	409
8	0	0	0	0	497	410
9	0	0	0	0	498	410
10	0	0	0	0	498	409
11	0	0	0	0	499	411
12	0	0	0	0	500	410
13	0	0	0	0	501	409
14	0	0	0	0	502	409
15	0	0	0	0	502	408
0	0	0	0	0	503	409
1	0	0	0	0	503	409
2	0	0	0	0	502	409
3	0	0	0	0	502	410
4	0	0	0	0	501	409
5	0	0	0	0	501	410
6	0	0	0	0	501	409
7	0	0	0	0	501	409
8	0	0	0	0	501	410
9	0	0	0	0	500	410
10	0	0	0	0	500	410
11	0	0	0	0	499	410
12	0	0	0	0	499	410
13	0	0	0	0	499	409
14	0	0	0	0	499	409
15	0	0	0	0	499	408
0	0	0	0	0	499	410
1	0	0	0	0	500	410
2	0	0	0	0	500	411
3	0	0	0	0	500	410
4	0	0	0	0	499	411
5	0	0	0	0	499	411
6	0	0	0	0	500	411
7	0	0	0	0	500	411
8	0	0	0	0	501	412
9	0	0	0	0	501	412
10	0	0	0	0	500	413
11	0	0	0	0	500	412
12	0	0	0	0	500	413
13	0	0	0	0	500	413
14	0	0	0	0	501	412
15	0	0	0	0	501	412
0	0	0	0	0	501	412
1	0	0	0	0	499	413
2	0	0	0	0	499	412
3	0	0	0	0	499	412
4	0	0	0	0	500	413
5	0	0	0	0	501	413
6	0	0	0	0	502	413
7	0	0	0	0	503	412
8	0	0	0	0	503	412
9	0	0	0	0	504	414
10	0	0	0	0	504	413
11	0	0	0	0	505	413
12	0	0	0	0	506	413
13	0	0	0	0	506	413
14	0	0	0	0	507	413
15	0	0	0	0	506	412
0	0	0	0	0	506	414
1	0	0	0	0	506	413
2	0	0	0	0	505	412
3	0	0	0	0	506	413
4	0	0	0	0	507	413
5	0	0	0	0	507	412
6	0	0	0	0	508	413
7	0	0	0	0	508	412
8	0	0	0	0	509	413
9	0	0	0	0	510	413
10	0	0	0	0	510	413
11	0	0	0	0	511	412
12	0	0	0	0	511	413
13	0	0	0	0	512	412
14	0	0	0	0	512	412
15	0	0	0	0	512	412
0	0	0	0	0	513	413
1	0	0	0	0	512	413
2	0	0	0	0	512	413
3	0	0	0	0	512	413
4	0	0	0	0	512	413
5	0	0	0	0	511	413
6	0	0	0	0	511	413
7	0	0	0	0	510	412
8	0	0	0	0	510	414
9	0	0	0	0	510	414
10	0	0	0	0	510	414
11	0	0	0	0	510	414
12	0	0	0	0	510	414
13	0	0	0	0	510	414
14	0	0	0	0	510	414
15	0	0	0	0	509	412
0	0	0	0	0	509	414
1	0	0	0	0	508	414
2	0	0	0	0	509	414
3	0	0	0	0	508	413
4	0	0	0	0	508	412
5	0	0	0	0	508	413
6	0	0	0	0	507	412
7	0	0	0	0	508	411
8	0	0	0	0	508	412
9	0	0	0	0	507	412
10	0	0	0	0	507	412
11	0	0	0	0	507	411
12	0	0	0	0	507	412
13	0	0	0	0	507	411
14	0	0	0	0	506	411
15	0	0	0	0	506	410
0	0	0	0	0	507	411
1	0	0	0	0	506	412
2	0	0	0	0	507	412
3	0	0	0	0	507	412
4	0	0	0	0	508	412
5	0	0	0	0	508	411
6	0	0	0	0	508	412
7	0	0	0	0	508	411
8	0	0	0	0	508	412
9	0	0	0	0	508	411
10	0	0	0	0	509	412
11	0	0	0	0	508	412
12	0	0	0	0	509	412
13	0	0	0	0	509	412
14	0	0	0	0	509	412
15	0	0	0	0	509	411
0	0	0	0	0	510	412
1	0	0	0	0	510	412
2	0	0	0	0	510	412
3	0	0	0	0	510	412
4	0	0	0	0	509	412
5	0	0	0	0	509	412
6	0	0	0	0	510	412
7	0	0	0	0	510	411
8	0	0	0	0	511	412
9	0	0	0	0	511	412
10	0	0	0	0	512	412
11	0	0	0	0	512	412
12	0	0	0	0	512	412
13	0	0	0	0	512	412
14	0	0	0	0	511	412
15	0	0	0	0	510	410
0	0	0	0	0	510	412
1	0	0	0	0	510	411
2	0	0	0	0	511	411
3	0	0	0	0	511	411
4	0	0	0	0	511	411
5	0	0	0	0	510	411
6	0	0	0	0	510	411
7	0	0	0	0	511	409
8	0	0	0	0	511	411
9	0	0	0	0	511	411
10	0	0	0	0	511	410
11	0	0	0	0	511	411
12	0	0	0	0	512	410
13	0	0	0	0	511	410
14	0	0	0	0	511	409
15	0	0	0	0	511	409
0	0	0	0	0	510	410
1	0	0	0	0	510	410
2	0	0	0	0	509	410
3	0	0	0	0	508	410
4	0	0	0	0	507	410
5	0	0	0	0	507	411
6	0	0	0	0	507	410
7	0	0	0	0	507	409
8	0	0	0	0	508	409
9	0	0	0	0	509	410
10	0	0	0	0	508	409
11	0	0	0	0	509	410
12	0	0	0	0	510	410
13	0	0	0	0	510	410
14	0	0	0	0	511	411
15	0	0	0	0	511	409
0	0	0	0	0	512	409
1	0	0	0	0	512	410
2	0	0	0	0	512	411
3	0	0	0	0	512	411
4	0	0	0	0	512	410
5	0	0	0	0	512	410
6	0	0	0	0	512	410
7	0	0	0	0	512	409
8	0	0	0	0	512	411
9	0	0	0	0	512	410
10	0	0	0	0	511	411
11	0	0	0	0	511	411
12	0	0	0	0	511	411
13	0	0	0	0	512	411
14	0	0	0	0	511	411
15	0	0	0	0	511	410
0	0	0	0	0	512	411
1	0	0	0	0	512	411
2	0	0	0	0	512	411
3	0	0	0	0	512	411
4	0	0	0	0	512	411
5	0	0	0	0	512	411
6	0	0	0	0	512	411
7	0	0	0	0	513	411
8	0	0	0	0	513	412
9	0	0	0	0	513	412
10	0	0	0	0	513	413
11	0	0	0	0	512	412
12	0	0	0	0	511	412
13	0	0	0	0	511	412
14	0	0	0	0	511	412
15	0	0	0	0	510	412
0	0	0	0	0	511	413
1	0	0	0	0	511	413
2	0	0	0	0	511	413
3	0	0	0	0	510	413
4	0	0	0	0	511	413
5	0	0	0	0	511	413
6	0	0	0	0	511	413
7	0	0	0	0	511	412
8	0	0	0	0	512	413
9	0	0	0	0	513	414
10	0	0	0	0	514	413
11	0	0	0	0	515	413
12	0	0	0	0	514	413
13	0	0	0	0	514	414
14	0	0	0	0	514	414
15	0	0	0	0	515	413
0	0	0	0	0	515	414
1	0	0	0	0	514	415
2	0	0	0	0	514	414
3	0	0	0	0	513	414
4	0	0	0	0	512	413
5	0	0	0	0	512	414
6	0	0	0	0	512	414
7	0	0	0	0	512	413
8	0	0	0	0	513	414
9	0	0	0	0	513	414
10	0	0	0	0	514	414
11	0	0	0	0	514	414
12	0	0	0	0	513	414
13	0	0	0	0	513	414
14	0	0	0	0	514	414
15	0	0	0	0	513	413
0	0	0	0	0	513	414
1	0	0	0	0	512	414
2	0	0	0	0	511	414
3	0	0	0	0	511	414
4	0	0	0	0	510	413
5	0	0	0	0	509	413
6	0	0	0	0	510	413
7	0	0	0	0	510	412
8	0	0	0	0	511	413
9	0	0	0	0	511	413
10	0	0	0	0	511	414
11	0	0	0	0	511	414
12	0	0	0	0	511	414
13	0	0	0	0	512	414
14	0	0	0	0	512	414
15	0	0	0	0	513	412
0	0	0	0	0	513	414
1	0	0	0	0	513	414
2	0	0	0	0	513	414
3	0	0	0	0	513	413
4	0	0	0	0	513	413
5	0	0	0	0	513	412
6	0	0	0	0	513	413
7	0	0	0	0	513	412
8	0	0	0	0	513	414
9	0	0	0	0	512	413
10	0	0	0	0	511	413
11	0	0	0	0	510	413
12	0	0	0	0	510	413
13	0	0	0	0	510	413
14	0	0	0	0	510	413
15	0	0	0	0	509	412
0	0	0	0	0	509	413
1	0	0	0	0	509	413
2	0	0	0	0	509	412
3	0	0	0	0	510	413
4	0	0	0	0	510	413
5	0	0	0	0	510	413
6	0	0	0	0	510	412
7	0	0	0	0	510	412
8	0	0	0	0	510	413
9	0	0	0	0	509	412
10	0	0	0	0	509	412
11	0	0	0	0	508	412
12	0	0	0	0	508	412
13	0	0	0	0	507	411
14	0	0	0	0	507	412
15	0	0	0	0	507	411
0	0	0	0	0	508	411
1	0	0	0	0	508	411
2	0	0	0	0	508	411
3	0	0	0	0	508	411
4	0	0	0	0	508	411
5	0	0	0	0	509	410
6	0	0	0	0	510	409
7	0	0	0	0	510	408
8	0	0	0	0	510	409
9	0	0	0	0	510	409
10	0	0	0	0	510	409
11	0	0	0	0	510	409
12	0	0	0	0	509	409
13	0	0	0	0	508	409
14	0	0	0	0	508	409
15	0	0	0	0	507	408
0	0	0	0	0	506	410
1	0	0	0	0	505	410
2	0	0	0	0	506	410
3	0	0	0	0	506	409
4	0	0	0	0	507	409
5	0	0	0	0	508	410
6	0	0	0	0	508	409
7	0	0	0	0	509	408
8	0	0	0	0	509	409
9	0	0	0	0	508	410
10	0	0	0	0	508	410
11	0	0	0	0	509	410
12	0	0	0	0	511	410
13	0	0	0	0	512	410
14	0	0	0	0	513	410
15	0	0	0	0	512	409
0	0	0	0	0	512	410
1	0	0	0	0	512	409
2	0	0	0	0	512	410
3	0	0	0	0	512	409
4	0	0	0	0	512	409
5	0	0	0	0	511	409
6	0	0	0	0	511	409
7	0	0	0	0	511	408
8	0	0	0	0	512	410
9	0	0	0	0	512	410
10	0	0	0	0	511	410
11	0	0	0	0	512	411
12	0	0	0	0	512	412
13	0	0	0	0	512	411
14	0	0	0	0	512	411
15	0	0	0	0	512	410
0	0	0	0	0	512	412
1	0	0	0	0	512	411
2	0	0	0	0	511	412
3	0	0	0	0	511	411
4	0	0	0	0	510	412
5	0	0	0	0	510	412
6	0	0	0	0	510	411
7	0	0	0	0	510	411
8	0	0	0	0	510	412
9	0	0	0	0	510	412
10	0	0	0	0	510	412
11	0	0	0	0	510	412
12	0	0	0	0	510	411
13	0	0	0	0	510	412
14	0	0	0	0	510	412
15	0	0	0	0	509	412
0	0	0	0	0	510	412
1	0	0	0	0	509	412
2	0	0	0	0	510	412
3	0	0	0	0	510	413
4	0	0	0	0	510	413
5	0	0	0	0	509	413
6	0	0	0	0	510	413
7	0	0	0	0	509	412
8	0	0	0	0	509	413
9	0	0	0	0	510	412
10	0	0	0	0	510	414
11	0	0	0	0	510	414
12	0	0	0	0	510	413
13	0	0	0	0	509	413
14	0	0	0	0	508	413
15	0	0	0	0	507	412
0	0	0	0	0	507	414
1	0	0	0	0	505	414
2	0	0	0	0	504	414
3	0	0	0	0	504	414
4	0	0	0	0	504	414
5	0	0	0	0	504	414
6	0	0	0	0	504	414
7	0	0	0	0	504	413
8	0	0	0	0	505	414
9	0	0	0	0	505	414
10	0	0	0	0	505	415
11	0	0	0	0	505	414
12	0	0	0	0	505	415
13	0	0	0	0	505	414
14	0	0	0	0	506	414
15	0	0	0	0	507	413
0	0	0	0	0	509	414
1	0	0	0	0	510	415
2	0	0	0	0	510	414
3	0	0	0	0	511	414
4	0	0	0	0	512	414
5	0	0	0	0	513	414
6	0	0	0	0	513	413
7	0	0	0	0	513	412
8	0	0	0	0	514	414
9	0	0	0	0	515	414
10	0	0	0	0	516	414
11	0	0	0	0	516	413
12	0	0	0	0	517	413
13	0	0	0	0	518	413
14	0	0	0	0	518	413
15	0	0	0	0	518	412
0	0	0	0	0	519	413
1	0	0	0	0	519	413
2	0	0	0	0	519	412
3	0	0	0	0	519	412
4	0	0	0	0	520	413
5	0	0	0	0	520	412
6	0	0	0	0	520	412
7	0	0	0	0	520	412
8	0	0	0	0	521	412
9	0	0	0	0	520	412
10	0	0	0	0	520	412
11	0	0	0	0	519	412
12	0	0	0	0	519	412
13	0	0	0	0	519	412
14	0	0	0	0	520	412
15	0	0	0	0	521	412
0	0	0	0	0	521	412
1	0	0	0	0	521	412
2	0	0	0	0	521	412
3	0	0	0	0	519	412
4	0	0	0	0	518	411
5	0	0	0	0	517	412
6	0	0	0	0	515	411
7	0	0	0	0	514	410
8	0	0	0	0	512	412
9	0	0	0	0	511	412
10	0	0	0	0	511	411
11	0	0	0	0	510	411
12	0	0	0	0	510	411
13	0	0	0	0	510	411
14	0	0	0	0	510	411
15	0	0	0	0	510	409
0	0	0	0	0	511	411
1	0	0	0	0	511	411
2	0	0	0	0	512	411
3	0	0	0	0	513	411
4	0	0	0	0	513	411
5	0	0	0	0	514	411
6	0	0	0	0	514	411
7	0	0	0	0	514	409
8	0	0	0	0	514	410
9	0	0	0	0	514	410
10	0	0	0	0	513	411
11	0	0	0	0	513	410
12	0	0	0	0	512	411
13	0	0	0	0	511	410
14	0	0	0	0	510	410
15	0	0	0	0	509	409
0	0	0	0	0	509	410
1	0	0	0	0	509	410
2	0	0	0	0	509	410
3	0	0	0	0	510	411
4	0	0	0	0	511	410
5	0	0	0	0	512	410
6	0	0	0	0	512	411
7	0	0	0	0	513	409
8	0	0	0	0	514	411
9	0	0	0	0	514	411
10	0	0	0	0	514	410
11	0	0	0	0	514	411
12	0	0	0	0	514	410
13	0	0	0	0	513	411
14	0	0	0	0	513	411
15	0	0	0	0	512	410
0	0	0	0	0	512	412
1	0	0	0	0	510	411
2	0	0	0	0	509	411
3	0	0	0	0	508	410
4	0	0	0	0	508	411
5	0	0	0	0	508	411
6	0	0	0	0	508	411
7	0	0	0	0	508	410
8	0	0	0	0	508	411
9	0	0	0	0	509	412
10	0	0	0	0	510	412
11	0	0	0	0	510	412
12	0	0	0	0	510	412
13	0	0	0	0	510	412
14	0	0	0	0	510	412
15	0	0	0	0	510	411
0	0	0	0	0	510	412
1	0	0	0	0	510	412
2	0	0	0	0	510	412
3	0	0	0	0	510	412
4	0	0	0	0	510	412
5	0	0	0	0	511	412
6	0	0	0	0	511	412
7	0	0	0	0	511	411
8	0	0	0	0	510	412
9	0	0	0	0	510	412
10	0	0	0	0	510	412
11	0	0	0	0	510	411
12	0	0	0	0	511	412
13	0	0	0	0	510	412
14	0	0	0	0	510	412
15	0	0	0	0	510	411
0	0	0	0	0	508	412
1	0	0	0	0	508	411
2	0	0	0	0	507	412
3	0	0	0	0	507	411
4	0	0	0	0	509	412
5	0	0	0	0	510	413
6	0	0	0	0	509	412
7	0	0	0	0	509	411
8	0	0	0	0	508	412
9	0	0	0	0	508	412
10	0	0	0	0	508	412
11	0	0	0	0	508	413
12	0	0	0	0	508	412
13	0	0	0	0	508	412
14	0	0	0	0	509	412
15	0	0	0	0	510	411
0	0	0	0	0	510	412
1	0	0	0	0	511	412
2	0	0	0	0	511	412
3	0	0	0	0	511	412
4	0	0	0	0	512	412
5	0	0	0	0	512	412
6	0	0	0	0	512	413
7	0	0	0	0	513	411
8	0	0	0	0	512	413
9	0	0	0	0	512	413
10	0	0	0	0	511	413
11	0	0	0	0	511	413
12	0	0	0	0	510	413
13	0	0	0	0	511	413
14	0	0	0	0	511	413
15	0	0	0	0	511	412
0	0	0	0	0	511	412
1	0	0	0	0	512	412
2	0	0	0	0	512	412
3	0	0	0	0	512	412
4	0	0	0	0	512	412
5	0	0	0	0	511	413
6	0	0	0	0	511	412
7	0	0	0	0	509	412
8	0	0	0	0	507	413
9	0	0	0	0	503	412
10	0	0	0	0	499	412
11	0	0	0	0	495	412
12	0	0	0	0	492	412
13	0	0	0	0	487	412
14	0	0	0	0	482	411
15	0	0	0	0	478	411
0	0	0	0	0	475	412
1	0	0	0	0	471	411
2	0	0	0	0	468	412
3	0	0	0	0	467	411
4	0	0	0	0	467	411
5	0	0	0	0	469	411
6	0	0	0	0	472	411
7	0	0	0	0	475	410
8	0	0	0	0	479	411
9	0	0	0	0	484	411
10	0	0	0	0	489	410
11	0	0	0	0	497	411
12	0	0	0	0	506	411
13	0	0	0	0	517	410
14	0	0	0	0	529	411
15	0	0	0	0	542	409
0	0	0	0	0	556	411
1	0	0	0	0	569	411
2	0	0	0	0	583	410
3	0	0	0	0	599	410
4	0	0	0	0	615	411
5	0	0	0	0	631	411
6	0	0	0	0	645	411
7	0	0	0	0	659	410
8	0	0	0	0	671	411
9	0	0	0	0	681	411
10	0	0	0	0	691	411
11	0	0	0	0	701	411
12	0	0	0	0	710	411
13	0	0	0	0	716	411
14	0	0	0	0	720	411
15	0	0	0	0	723	410
0	0	0	0	0	724	411
1	0	0	0	0	724	411
2	0	0	0	0	722	411
3	0	0	0	0	719	411
4	0	0	0	0	715	411
5	0	0	0	0	708	412
6	0	0	0	0	699	412
7	0	0	0	0	688	411
8	0	0	0	0	675	412
9	0	0	0	0	663	412
10	0	0	0	0	650	412
11	0	0	0	0	636	413
12	0	0	0	0	622	413
13	0	0	0	0	606	413
14	0	0	0	0	590	413
15	0	0	0	0	575	411
0	0	0	0	0	562	413
1	0	0	0	0	550	413
2	0	0	0	0	540	413
3	0	0	0	0	531	413
4	0	0	0	0	523	413
5	0	0	0	0	515	414
6	0	0	0	0	508	413
7	0	0	0	0	502	412
8	0	0	0	0	497	414
9	0	0	0	0	493	414
10	0	0	0	0	489	413
11	0	0	0	0	486	413
12	0	0	0	0	483	413
13	0	0	0	0	481	414
14	0	0	0	0	480	413
15	0	0	0	0	478	412
0	0	0	0	0	477	412
1	0	0	0	0	476	412
2	0	0	0	0	475	413
3	0	0	0	0	474	413
4	0	0	0	0	473	412
5	0	0	0	0	472	412
6	0	0	0	0	471	413
7	0	0	0	0	470	412
8	0	0	0	0	470	413
9	0	0	0	0	468	413
10	0	0	0	0	468	414
11	0	0	0	0	467	414
12	0	0	0	0	467	413
13	0	0	0	0	467	414
14	0	0	0	0	467	413
15	0	0	0	0	467	412
0	0	0	0	0	467	412
1	0	0	0	0	467	413
2	0	0	0	0	467	413
3	0	0	0	0	467	413
4	0	0	0	0	467	412
5	0	0	0	0	467	413
6	0	0	0	0	467	413
7	0	0	0	0	469	412
8	0	0	0	0	470	413
9	0	0	0	0	470	413
10	0	0	0	0	470	413
11	0	0	0	0	470	413
12	0	0	0	0	470	412
13	0	0	0	0	471	414
14	0	0	0	0	471	412
15	0	0	0	0	471	411
0	0	0	0	0	472	412
1	0	0	0	0	471	412
2	0	0	0	0	471	412
3	0	0	0	0	472	412
4	0	0	0	0	472	412
5	0	0	0	0	472	411
6	0	0	0	0	473	412
7	0	0	0	0	473	410
8	0	0	0	0	474	411
9	0	0	0	0	474	412
10	0	0	0	0	474	412
11	0	0	0	0	475	412
12	0	0	0	0	476	411
13	0	0	0	0	476	411
14	0	0	0	0	477	411
15	0	0	0	0	477	409
0	0	0	0	0	478	411
1	0	0	0	0	477	411
2	0	0	0	0	477	411
3	0	0	0	0	477	411
4	0	0	0	0	478	411
5	0	0	0	0	478	411
6	0	0	0	0	479	411
7	0	0	0	0	479	410
8	0	0	0	0	480	411
9	0	0	0	0	479	412
10	0	0	0	0	480	412
11	0	0	0	0	480	411
12	0	0	0	0	480	411
13	0	0	0	0	480	411
14	0	0	0	0	480	411
15	0	0	0	0	480	410
0	0	0	0	0	481	412
1	0	0	0	0	481	411
2	0	0	0	0	481	411
3	0	0	0	0	481	411
4	0	0	0	0	482	411
5	0	0	0	0	483	412
6	0	0	0	0	485	411
7	0	0	0	0	485	410
8	0	0	0	0	486	411
9	0	0	0	0	487	411
10	0	0	0	0	487	411
11	0	0	0	0	487	411
12	0	0	0	0	487	411
13	0	0	0	0	486	411
14	0	0	0	0	486	411
15	0	0	0	0	486	410
0	0	0	0	0	486	411
1	0	0	0	0	486	410
2	0	0	0	0	487	411
3	0	0	0	0	487	411
4	0	0	0	0	487	411
5	0	0	0	0	488	411
6	0	0	0	0	489	411
7	0	0	0	0	491	410
8	0	0	0	0	492	411
9	0	0	0	0	492	412
10	0	0	0	0	492	411
11	0	0	0	0	492	411
12	0	0	0	0	493	411
13	0	0	0	0	492	412
14	0	0	0	0	492	412
15	0	0	0	0	492	411
0	0	0	0	0	492	412
1	0	0	0	0	491	412
2	0	0	0	0	491	412
3	0	0	0	0	492	411
4	0	0	0	0	492	411
5	0	0	0	0	492	411
6	0	0	0	0	493	411
7	0	0	0	0	493	410
8	0	0	0	0	494	411
9	0	0	0	0	494	411
10	0	0	0	0	496	412
11	0	0	0	0	496	412
12	0	0	0	0	496	411
13	0	0	0	0	496	411
14	0	0	0	0	497	411
15	0	0	0	0	497	410
0	0	0	0	0	497	412
1	0	0	0	0	497	412
2	0	0	0	0	497	412
3	0	0	0	0	498	412
4	0	0	0	0	497	411
5	0	0	0	0	497	412
6	0	0	0	0	497	412
7	0	0	0	0	497	412
8	0	0	0	0	498	413
9	0	0	0	0	497	413
10	0	0	0	0	497	413
11	0	0	0	0	497	413
12	0	0	0	0	498	413
13	0	0	0	0	499	413
14	0	0	0	0	499	413
15	0	0	0	0	500	413
0	0	0	0	0	501	413
1	0	0	0	0	501	414
2	0	0	0	0	503	414
3	0	0	0	0	504	414
4	0	0	0	0	504	413
5	0	0	0	0	504	413
6	0	0	0	0	504	413
7	0	0	0	0	504	412
8	0	0	0	0	504	413
9	0	0	0	0	504	413
10	0	0	0	0	504	413
11	0	0	0	0	503	413
12	0	0	0	0	504	413
13	0	0	0	0	504	413
14	0	0	0	0	504	412
15	0	0	0	0	504	412
0	0	0	0	0	505	413
1	0	0	0	0	504	412
2	0	0	0	0	505	412
3	0	0	0	0	507	412
4	0	0	0	0	507	412
5	0	0	0	0	508	413
6	0	0	0	0	509	412
7	0	0	0	0	510	412
8	0	0	0	0	511	412
9	0	0	0	0	511	412
10	0	0	0	0	511	413
11	0	0	0	0	511	413
12	0	0	0	0	511	413
13	0	0	0	0	511	413
14	0	0	0	0	511	412
15	0	0	0	0	512	412
0	0	0	0	0	513	412
1	0	0	0	0	513	412
2	0	0	0	0	513	412
3	0	0	0	0	513	412
4	0	0	0	0	513	413
5	0	0	0	0	515	412
6	0	0	0	0	516	412
7	0	0	0	0	517	411
8	0	0	0	0	518	412
9	0	0	0	0	518	413
10	0	0	0	0	518	412
11	0	0	0	0	519	412
12	0	0	0	0	520	412
13	0	0	0	0	520	412
14	0	0	0	0	520	413
15	0	0	0	0	521	412
0	0	0	0	0	521	412
1	0	0	0	0	522	412
2	0	0	0	0	523	412
3	0	0	0	0	523	412
4	0	0	0	0	524	411
5	0	0	0	0	524	412
6	0	0	0	0	524	412
7	0	0	0	0	525	410
8	0	0	0	0	525	412
9	0	0	0	0	526	412
10	0	0	0	0	526	412
11	0	0	0	0	527	412
12	0	0	0	0	527	412
13	0	0	0	0	528	412
14	0	0	0	0	529	412
15	0	0	0	0	529	410
0	0	0	0	0	530	411
1	0	0	0	0	531	411
2	0	0	0	0	531	411
3	0	0	0	0	530	411
4	0	0	0	0	530	411
5	0	0	0	0	530	411
6	0	0	0	0	530	411
7	0	0	0	0	531	410
8	0	0	0	0	532	411
9	0	0	0	0	531	411
10	0	0	0	0	531	411
11	0	0	0	0	531	411
12	0	0	0	0	530	411
13	0	0	0	0	531	411
14	0	0	0	0	531	411
15	0	0	0	0	530	410
0	0	0	0	0	531	410
1	0	0	0	0	531	411
2	0	0	0	0	531	410
3	0	0	0	0	531	411
4	0	0	0	0	531	411
5	0	0	0	0	530	411
6	0	0	0	0	530	410
7	0	0	0	0	530	410
8	0	0	0	0	530	411
9	0	0	0	0	529	411
10	0	0	0	0	528	411
11	0	0	0	0	528	411
12	0	0	0	0	527	410
13	0	0	0	0	527	410
14	0	0	0	0	526	409
15	0	0	0	0	525	408
0	0	0	0	0	526	410
1	0	0	0	0	527	410
2	0	0	0	0	527	411
3	0	0	0	0	527	411
4	0	0	0	0	527	411
5	0	0	0	0	527	411
6	0	0	0	0	527	410
7	0	0	0	0	527	411
8	0	0	0	0	526	411
9	0	0	0	0	525	411
10	0	0	0	0	524	411
11	0	0	0	0	523	412
12	0	0	0	0	523	411
13	0	0	0	0	521	412
14	0	0	0	0	520	410
15	0	0	0	0	518	410
0	0	0	0	0	516	411
1	0	0	0	0	515	411
2	0	0	0	0	513	411
3	0	0	0	0	513	411
4	0	0	0	0	512	412
5	0	0	0	0	512	411
6	0	0	0	0	511	411
7	0	0	0	0	510	410
8	0	0	0	0	509	411
9	0	0	0	0	508	411
10	0	0	0	0	506	411
11	0	0	0	0	504	410
12	0	0	0	0	503	411
13	0	0	0	0	502	411
14	0	0	0	0	500	412
15	0	0	0	0	499	410
0	0	0	0	0	498	411
1	0	0	0	0	496	411
2	0	0	0	0	496	411
3	0	0	0	0	496	412
4	0	0	0	0	495	412
5	0	0	0	0	495	412
6	0	0	0	0	495	412
7	0	0	0	0	494	410
8	0	0	0	0	494	412
9	0	0	0	0	494	412
10	0	0	0	0	494	412
11	0	0	0	0	494	413
12	0	0	0	0	494	412
13	0	0	0	0	494	412
14	0	0	0	0	494	412
15	0	0	0	0	494	412
0	0	0	0	0	494	413
1	0	0	0	0	492	413
2	0	0	0	0	492	412
3	0	0	0	0	492	413
4	0	0	0	0	491	413
5	0	0	0	0	491	414
6	0	0	0	0	491	414
7	0	0	0	0	490	412
8	0	0	0	0	489	414
9	0	0	0	0	489	414
10	0	0	0	0	489	414
11	0	0	0	0	488	413
12	0	0	0	0	487	414
13	0	0	0	0	487	414
14	0	0	0	0	487	413
15	0	0	0	0	487	413
0	0	0	0	0	487	413
1	0	0	0	0	486	414
2	0	0	0	0	486	414
3	0	0	0	0	486	414
4	0	0	0	0	486	414
5	0	0	0	0	486	414
6	0	0	0	0	485	414
7	0	0	0	0	484	413
8	0	0	0	0	485	414
9	0	0	0	0	485	414
10	0	0	0	0	485	414
11	0	0	0	0	485	414
12	0	0	0	0	486	414
13	0	0	0	0	487	414
14	0	0	0	0	487	413
15	0	0	0	0	487	413
0	0	0	0	0	488	413
1	0	0	0	0	489	414
2	0	0	0	0	489	414
3	0	0	0	0	489	414
4	0	0	0	0	490	413
5	0	0	0	0	490	414
6	0	0	0	0	490	413
7	0	0	0	0	490	412
8	0	0	0	0	490	413
9	0	0	0	0	491	413
10	0	0	0	0	492	413
11	0	0	0	0	492	413
12	0	0	0	0	492	413
13	0	0	0	0	491	412
14	0	0	0	0	491	413
15	0	0	0	0	490	412
0	0	0	0	0	490	413
1	0	0	0	0	490	413
2	0	0	0	0	491	412
3	0	0	0	0	491	412
4	0	0	0	0	492	413
5	0	0	0	0	492	412
6	0	0	0	0	493	412
7	0	0	0	0	493	411
8	0	0	0	0	495	412
9	0	0	0	0	495	412
10	0	0	0	0	495	411
11	0	0	0	0	496	412
12	0	0	0	0	496	412
13	0	0	0	0	496	411
14	0	0	0	0	496	411
15	0	0	0	0	495	410
0	0	0	0	0	494	411
1	0	0	0	0	494	412
2	0	0	0	0	494	411
3	0	0	0	0	493	411
4	0	0	0	0	494	411
5	0	0	0	0	494	411
6	0	0	0	0	494	411
7	0	0	0	0	494	409
8	0	0	0	0	494	411
9	0	0	0	0	495	411
10	0	0	0	0	495	412
11	0	0	0	0	495	411
12	0	0	0	0	495	411
13	0	0	0	0	495	411
14	0	0	0	0	495	410
15	0	0	0	0	495	409
0	0	0	0	0	495	411
1	0	0	0	0	495	411
2	0	0	0	0	495	411
3	0	0	0	0	496	410
4	0	0	0	0	496	410
5	0	0	0	0	496	410
6	0	0	0	0	495	410
7	0	0	0	0	494	409
8	0	0	0	0	493	410
9	0	0	0	0	494	410
10	0	0	0	0	495	410
11	0	0	0	0	497	410
12	0	0	0	0	497	410
13	0	0	0	0	497	410
14	0	0	0	0	497	409
15	0	0	0	0	497	408
0	0	0	0	0	497	410
1	0	0	0	0	496	409
2	0	0	0	0	496	409
3	0	0	0	0	496	409
4	0	0	0	0	496	410
5	0	0	0	0	496	409
6	0	0	0	0	496	410
7	0	0	0	0	497	409
8	0	0	0	0	497	410
9	0	0	0	0	497	410
10	0	0	0	0	497	411
11	0	0	0	0	496	411
12	0	0	0	0	497	411
13	0	0	0	0	497	411
14	0	0	0	0	497	411
15	0	0	0	0	497	410
0	0	0	0	0	497	411
1	0	0	0	0	497	412
2	0	0	0	0	498	411
3	0	0	0	0	499	412
4	0	0	0	0	500	411
5	0	0	0	0	500	413
6	0	0	0	0	500	412
7	0	0	0	0	500	411
8	0	0	0	0	500	412
9	0	0	0	0	499	412
10	0	0	0	0	499	412
11	0	0	0	0	499	412
12	0	0	0	0	498	412
13	0	0	0	0	497	412
14	0	0	0	0	497	413
15	0	0	0	0	497	412
0	0	0	0	0	496	413
1	0	0	0	0	497	413
2	0	0	0	0	497	413
3	0	0	0	0	497	412
4	0	0	0	0	499	413
5	0	0	0	0	500	413
6	0	0	0	0	500	413
7	0	0	0	0	502	412
8	0	0	0	0	503	413
9	0	0	0	0	504	413
10	0	0	0	0	504	413
11	0	0	0	0	504	413
12	0	0	0	0	504	413
13	0	0	0	0	504	413
14	0	0	0	0	504	413
15	0	0	0	0	504	412
0	0	0	0	0	504	413
1	0	0	0	0	503	413
2	0	0	0	0	503	414
3	0	0	0	0	502	413
4	0	0	0	0	502	414
5	0	0	0	0	503	413
6	0	0	0	0	504	413
7	0	0	0	0	504	412
8	0	0	0	0	505	413
9	0	0	0	0	506	413
10	0	0	0	0	508	413
11	0	0	0	0	508	414
12	0	0	0	0	509	413
13	0	0	0	0	509	414
14	0	0	0	0	509	414
15	0	0	0	0	509	412
0	0	0	0	0	510	413
1	0	0	0	0	509	413
2	0	0	0	0	509	414
3	0	0	0	0	509	413
4	0	0	0	0	510	414
5	0	0	0	0	509	414
6	0	0	0	0	509	413
7	0	0	0	0	509	412
8	0	0	0	0	508	414
9	0	0	0	0	508	413
10	0	0	0	0	507	413
11	0	0	0	0	507	413
12	0	0	0	0	507	413
13	0	0	0	0	508	413
14	0	0	0	0	509	413
15	0	0	0	0	510	412
0	0	0	0	0	510	413
1	0	0	0	0	510	413
2	0	0	0	0	511	413
3	0	0	0	0	511	412
4	0	0	0	0	511	413
5	0	0	0	0	511	412
6	0	0	0	0	511	412
7	0	0	0	0	511	412
8	0	0	0	0	510	412
9	0	0	0	0	511	412
10	0	0	0	0	511	413
11	0	0	0	0	511	413
12	0	0	0	0	511	412
13	0	0	0	0	511	412
14	0	0	0	0	511	412
15	0	0	0	0	511	411
0	0	0	0	0	512	411
1	0	0	0	0	512	411
2	0	0	0	0	512	412
3	0	0	0	0	511	412
4	0	0	0	0	511	411
5	0	0	0	0	511	412
6	0	0	0	0	511	411
7	0	0	0	0	512	410
8	0	0	0	0	513	412
9	0	0	0	0	513	412
10	0	0	0	0	513	412
11	0	0	0	0	512	411
12	0	0	0	0	512	412
13	0	0	0	0	512	411
14	0	0	0	0	511	411
15	0	0	0	0	511	409
0	0	0	0	0	512	411
1	0	0	0	0	511	411
2	0	0	0	0	512	411
3	0	0	0	0	511	411
4	0	0	0	0	511	411
5	0	0	0	0	512	411
6	0	0	0	0	512	411
7	0	0	0	0	512	410
8	0	0	0	0	513	411
9	0	0	0	0	512	411
10	0	0	0	0	512	411
11	0	0	0	0	512	411
12	0	0	0	0	513	411
13	0	0	0	0	513	411
14	0	0	0	0	512	410
15	0	0	0	0	512	410
0	0	0	0	0	511	410
1	0	0	0	0	511	411
2	0	0	0	0	510	410
3	0	0	0	0	510	410
4	0	0	0	0	511	410
5	0	0	0	0	511	411
6	0	0	0	0	511	410
7	0	0	0	0	510	410
8	0	0	0	0	510	411
9	0	0	0	0	510	410
10	0	0	0	0	510	410
11	0	0	0	0	510	411
12	0	0	0	0	510	411
13	0	0	0	0	511	411
14	0	0	0	0	511	411
15	0	0	0	0	511	409
0	0	0	0	0	511	410
1	0	0	0	0	511	410
2	0	0	0	0	511	410
3	0	0	0	0	510	411
4	0	0	0	0	510	411
5	0	0	0	0	509	411
6	0	0	0	0	509	410
7	0	0	0	0	509	409
8	0	0	0	0	509	410
9	0	0	0	0	509	411
10	0	0	0	0	508	410
11	0	0	0	0	507	410
12	0	0	0	0	508	410
13	0	0	0	0	510	411
14	0	0	0	0	510	410
15	0	0	0	0	510	410
0	0	0	0	0	511	411
1	0	0	0	0	510	411
2	0	0	0	0	511	411
3	0	0	0	0	511	412
4	0	0	0	0	511	412
5	0	0	0	0	511	412
6	0	0	0	0	512	412
7	0	0	0	0	511	411
8	0	0	0	0	512	412
9	0	0	0	0	512	412
10	0	0	0	0	512	412
11	0	0	0	0	512	413
12	0	0	0	0	511	412
13	0	0	0	0	511	412
14	0	0	0	0	510	412
15	0	0	0	0	510	411
0	0	0	0	0	510	412
1	0	0	0	0	509	412
2	0	0	0	0	509	412
3	0	0	0	0	510	412
4	0	0	0	0	510	412
5	0	0	0	0	510	412
6	0	0	0	0	510	412
7	0	0	0	0	510	412
8	0	0	0	0	511	412
9	0	0	0	0	511	412
10	0	0	0	0	511	413
11	0	0	0	0	511	413
12	0	0	0	0	510	412
13	0	0	0	0	510	412
14	0	0	0	0	510	412
15	0	0	0	0	509	411
0	0	0	0	0	509	412
1	0	0	0	0	509	412
2	0	0	0	0	509	412
3	0	0	0	0	508	412
4	0	0	0	0	509	413
5	0	0	0	0	508	412
6	0	0	0	0	509	412
7	0	0	0	0	509	411
8	0	0	0	0	510	412
9	0	0	0	0	510	412
10	0	0	0	0	510	412
11	0	0	0	0	510	412
12	0	0	0	0	511	412
13	0	0	0	0	512	412
14	0	0	0	0	512	413
15	0	0	0	0	512	411
0	0	0	0	0	512	412
1	0	0	0	0	512	412
2	0	0	0	0	512	412
3	0	0	0	0	512	412
4	0	0	0	0	511	413
5	0	0	0	0	511	413
6	0	0	0	0	511	412
7	0	0	0	0	511	412
8	0	0	0	0	511	413
9	0	0	0	0	511	413
10	0	0	0	0	511	412
11	0	0	0	0	510	413
12	0	0	0	0	511	414
13	0	0	0	0	510	413
14	0	0	0	0	511	413
15	0	0	0	0	511	412
0	0	0	0	0	511	413
1	0	0	0	0	511	412
2	0	0	0	0	512	413
3	0	0	0	0	512	412
4	0	0	0	0	512	413
5	0	0	0	0	511	414
6	0	0	0	0	511	413
7	0	0	0	0	511	412
8	0	0	0	0	510	413
9	0	0	0	0	509	413
10	0	0	0	0	509	413
11	0	0	0	0	509	413
12	0	0	0	0	510	413
13	0	0	0	0	511	413
14	0	0	0	0	512	413
15	0	0	0	0	512	412
0	0	0	0	0	514	413
1	0	0	0	0	514	414
2	0	0	0	0	514	413
3	0	0	0	0	514	413
4	0	0	0	0	513	413
5	0	0	0	0	513	413
6	0	0	0	0	513	413
7	0	0	0	0	512	412
8	0	0	0	0	512	413
9	0	0	0	0	511	412
10	0	0	0	0	511	413
11	0	0	0	0	512	412
12	0	0	0	0	511	412
13	0	0	0	0	511	412
14	0	0	0	0	511	412
15	0	0	0	0	511	411
0	0	0	0	0	510	412
1	0	0	0	0	510	412
2	0	0	0	0	511	412
3	0	0	0	0	510	412
4	0	0	0	0	511	412
5	0	0	0	0	510	412
6	0	0	0	0	509	411
7	0	0	0	0	510	411
8	0	0	0	0	510	412
9	0	0	0	0	511	412
10	0	0	0	0	511	412
11	0	0	0	0	511	412
12	0	0	0	0	511	411
13	0	0	0	0	510	411
14	0	0	0	0	510	411
15	0	0	0	0	509	410
0	0	0	0	0	509	412
1	0	0	0	0	509	411
2	0	0	0	0	508	411
3	0	0	0	0	509	411
4	0	0	0	0	509	411
5	0	0	0	0	509	411
6	0	0	0	0	510	411
7	0	0	0	0	510	410
8	0	0	0	0	511	411
9	0	0	0	0	511	411
10	0	0	0	0	511	411
11	0	0	0	0	512	412
12	0	0	0	0	512	412
13	0	0	0	0	511	411
14	0	0	0	0	511	412
15	0	0	0	0	511	410
0	0	0	0	0	511	412
1	0	0	0	0	511	411
2	0	0	0	0	511	411
3	0	0	0	0	510	411
4	0	0	0	0	510	411
5	0	0	0	0	510	411
6	0	0	0	0	510	411
7	0	0	0	0	510	410
8	0	0	0	0	510	411
9	0	0	0	0	511	411
10	0	0	0	0	511	411
11	0	0	0	0	512	412
12	0	0	0	0	512	411
13	0	0	0	0	512	411
14	0	0	0	0	512	411
15	0	0	0	0	512	410
0	0	0	0	0	511	411
1	0	0	0	0	510	411
2	0	0	0	0	510	411
3	0	0	0	0	510	411
4	0	0	0	0	509	412
5	0	0	0	0	510	411
6	0	0	0	0	511	411
7	0	0	0	0	511	410
8	0	0	0	0	511	411
9	0	0	0	0	511	411
10	0	0	0	0	511	411
11	0	0	0	0	512	411
12	0	0	0	0	512	412
13	0	0	0	0	512	411
14	0	0	0	0	513	412
15	0	0	0	0	513	410
0	0	0	0	0	513	411
1	0	0	0	0	512	411
2	0	0	0	0	512	411
3	0	0	0	0	512	411
4	0	0	0	0	512	411
5	0	0	0	0	512	411
6	0	0	0	0	512	411
7	0	0	0	0	512	410
8	0	0	0	0	512	411
9	0	0	0	0	511	412
10	0	0	0	0	511	411
11	0	0	0	0	510	412
12	0	0	0	0	510	412
13	0	0	0	0	510	412
14	0	0	0	0	509	411
15	0	0	0	0	509	410
0	0	0	0	0	509	412
1	0	0	0	0	509	411
2	0	0	0	0	509	411
3	0	0	0	0	509	410
4	0	0	0	0	510	411
5	0	0	0	0	509	411
6	0	0	0	0	508	411
7	0	0	0	0	507	410
8	0	0	0	0	507	411
9	0	0	0	0	507	411
10	0	0	0	0	507	411
11	0	0	0	0	507	411
12	0	0	0	0	507	412
13	0	0	0	0	507	412
14	0	0	0	0	506	412
15	0	0	0	0	505	411
0	0	0	0	0	505	412
1	0	0	0	0	505	412
2	0	0	0	0	505	412
3	0	0	0	0	505	412
4	0	0	0	0	506	412
5	0	0	0	0	507	413
6	0	0	0	0	507	412
7	0	0	0	0	508	412
8	0	0	0	0	509	413
9	0	0	0	0	509	412
10	0	0	0	0	510	413
11	0	0	0	0	510	413
12	0	0	0	0	511	413
13	0	0	0	0	511	414
14	0	0	0	0	512	412
15	0	0	0	0	513	412
0	0	0	0	0	515	412
1	0	0	0	0	515	413
2	0	0	0	0	515	413
3	0	0	0	0	515	412
4	0	0	0	0	516	412
5	0	0	0	0	516	412
6	0	0	0	0	517	412
7	0	0	0	0	516	412
8	0	0	0	0	516	413
9	0	0	0	0	516	413
10	0	0	0	0	517	413
11	0	0	0	0	518	413
12	0	0	0	0	518	412
13	0	0	0	0	518	413
14	0	0	0	0	519	412
15	0	0	0	0	519	412
0	0	0	0	0	519	412
1	0	0	0	0	519	412
2	0	0	0	0	519	412
3	0	0	0	0	519	413
4	0	0	0	0	519	412
5	0	0	0	0	519	412
6	0	0	0	0	518	412
7	0	0	0	0	517	411
8	0	0	0	0	518	412
9	0	0	0	0	518	412
10	0	0	0	0	518	412
11	0	0	0	0	519	412
12	0	0	0	0	519	412
13	0	0	0	0	519	412
14	0	0	0	0	519	412
15	0	0	0	0	520	411
0	0	0	0	0	521	411
1	0	0	0	0	520	411
2	0	0	0	0	521	412
3	0	0	0	0	521	411
4	0	0	0	0	520	411
5	0	0	0	0	520	412
6	0	0	0	0	519	411
7	0	0	0	0	518	410
8	0	0	0	0	517	412
9	0	0	0	0	516	412
10	0	0	0	0	515	412
11	0	0	0	0	514	412
12	0	0	0	0	514	412
13	0	0	0	0	513	412
14	0	0	0	0	513	411
15	0	0	0	0	512	411
0	0	0	0	0	512	411
1	0	0	0	0	512	411
2	0	0	0	0	512	411
3	0	0	0	0	511	412
4	0	0	0	0	511	412
5	0	0	0	0	511	412
6	0	0	0	0	511	411
7	0	0	0	0	511	411
8	0	0	0	0	512	412
9	0	0	0	0	512	413
10	0	0	0	0	512	412
11	0	0	0	0	512	413
12	0	0	0	0	511	413
13	0	0	0	0	511	412
14	0	0	0	0	510	412
15	0	0	0	0	510	411
0	0	0	0	0	510	412
1	0	0	0	0	510	412
2	0	0	0	0	510	412
3	0	0	0	0	511	412
4	0	0	0	0	511	413
5	0	0	0	0	511	412
6	0	0	0	0	512	412
7	0	0	0	0	512	412
8	0	0	0	0	512	412
9	0	0	0	0	512	412
10	0	0	0	0	512	413
11	0	0	0	0	512	412
12	0	0	0	0	512	412
13	0	0	0	0	512	412
14	0	0	0	0	511	412
15	0	0	0	0	511	411
0	0	0	0	0	512	411
1	0	0	0	0	511	412
2	0	0	0	0	511	412
3	0	0	0	0	510	412
4	0	0	0	0	509	412
5	0	0	0	0	508	412
6	0	0	0	0	508	412
7	0	0	0	0	508	411
8	0	0	0	0	508	412
9	0	0	0	0	507	412
10	0	0	0	0	507	412
11	0	0	0	0	506	412
12	0	0	0	0	505	411
13	0	0	0	0	504	411
14	0	0	0	0	504	411
15	0	0	0	0	503	411
0	0	0	0	0	503	412
1	0	0	0	0	503	411
2	0	0	0	0	504	412
3	0	0	0	0	505	412
4	0	0	0	0	506	412
5	0	0	0	0	507	412
6	0	0	0	0	508	412
7	0	0	0	0	509	411
8	0	0	0	0	510	412
9	0	0	0	0	511	413
10	0	0	0	0	512	412
11	0	0	0	0	512	412
12	0	0	0	0	513	413
13	0	0	0	0	513	413
14	0	0	0	0	515	413
15	0	0	0	0	515	411
0	0	0	0	0	515	413
1	0	0	0	0	514	412
2	0	0	0	0	514	413
3	0	0	0	0	514	412
4	0	0	0	0	514	412
5	0	0	0	0	514	412
6	0	0	0	0	513	412
7	0	0	0	0	512	411
8	0	0	0	0	511	412
9	0	0	0	0	510	412
10	0	0	0	0	510	413
11	0	0	0	0	510	412
12	0	0	0	0	510	413
13	0	0	0	0	509	412
14	0	0	0	0	510	411
15	0	0	0	0	510	411
0	0	0	0	0	510	412
1	0	0	0	0	511	412
2	0	0	0	0	512	412
3	0	0	0	0	512	412
4	0	0	0	0	512	412
5	0	0	0	0	513	412
6	0	0	0	0	513	412
7	0	0	0	0	512	411
8	0	0	0	0	512	412
9	0	0	0	0	512	412
10	0	0	0	0	511	412
11	0	0	0	0	511	412
12	0	0	0	0	511	412
13	0	0	0	0	509	412
14	0	0	0	0	509	411
15	0	0	0	0	509	410
0	0	0	0	0	510	411
1	0	0	0	0	509	411
2	0	0	0	0	509	411
3	0	0	0	0	508	411
4	0	0	0	0	508	411
5	0	0	0	0	507	410
6	0	0	0	0	507	410
7	0	0	0	0	505	409
8	0	0	0	0	502	410
9	0	0	0	0	498	411
10	0	0	0	0	494	411
11	0	0	0	0	490	410
12	0	0	0	0	486	411
13	0	0	0	0	482	410
14	0	0	0	0	477	409
15	0	0	0	0	472	409
0	0	0	0	0	469	410
1	0	0	0	0	465	410
2	0	0	0	0	464	410
3	0	0	0	0	463	411
4	0	0	0	0	464	410
5	0	0	0	0	466	411
6	0	0	0	0	468	410
7	0	0	0	0	472	409
8	0	0	0	0	476	411
9	0	0	0	0	481	412
10	0	0	0	0	487	412
11	0	0	0	0	494	412
12	0	0	0	0	503	411
13	0	0	0	0	514	412
14	0	0	0	0	527	412
15	0	0	0	0	540	410
0	0	0	0	0	553	412
1	0	0	0	0	566	412
2	0	0	0	0	580	412
3	0	0	0	0	594	412
4	0	0	0	0	609	412
5	0	0	0	0	624	412
6	0	0	0	0	639	412
7	0	0	0	0	652	411
8	0	0	0	0	664	412
9	0	0	0	0	673	412
10	0	0	0	0	683	412
11	0	0	0	0	691	412
12	0	0	0	0	699	412
13	0	0	0	0	704	412
14	0	0	0	0	707	412
15	0	0	0	0	710	411
0	0	0	0	0	711	412
1	0	0	0	0	710	412
2	0	0	0	0	708	412
3	0	0	0	0	705	412
4	0	0	0	0	702	412
5	0	0	0	0	695	412
6	0	0	0	0	687	412
7	0	0	0	0	677	411
8	0	0	0	0	667	412
9	0	0	0	0	655	412
10	0	0	0	0	644	412
11	0	0	0	0	631	412
12	0	0	0	0	615	412
13	0	0	0	0	599	412
14	0	0	0	0	583	412
15	0	0	0	0	568	411
0	0	0	0	0	555	412
1	0	0	0	0	543	412
2	0	0	0	0	532	413
3	0	0	0	0	522	412
4	0	0	0	0	513	412
5	0	0	0	0	507	413
6	0	0	0	0	500	413
7	0	0	0	0	493	412
8	0	0	0	0	488	413
9	0	0	0	0	484	414
10	0	0	0	0	480	413
11	0	0	0	0	478	412
12	0	0	0	0	476	414
13	0	0	0	0	474	413
14	0	0	0	0	472	413
15	0	0	0	0	470	413
0	0	0	0	0	468	413
1	0	0	0	0	467	414
2	0	0	0	0	467	414
3	0	0	0	0	466	414
4	0	0	0	0	465	414
5	0	0	0	0	465	414
6	0	0	0	0	465	414
7	0	0	0	0	465	414
8	0	0	0	0	465	414
9	0	0	0	0	465	415
10	0	0	0	0	465	414
11	0	0	0	0	464	415
12	0	0	0	0	464	414
13	0	0	0	0	464	415
14	0	0	0	0	464	415
15	0	0	0	0	464	413
0	0	0	0	0	464	414
1	0	0	0	0	463	414
2	0	0	0	0	463	415
3	0	0	0	0	463	414
4	0	0	0	0	463	414
5	0	0	0	0	463	414
6	0	0	0	0	463	413
7	0	0	0	0	463	412
8	0	0	0	0	464	414
9	0	0	0	0	464	413
10	0	0	0	0	465	414
11	0	0	0	0	466	413
12	0	0	0	0	467	413
13	0	0	0	0	467	413
14	0	0	0	0	467	412
15	0	0	0	0	468	411
0	0	0	0	0	469	412
1	0	0	0	0	470	412
2	0	0	0	0	470	411
3	0	0	0	0	470	412
4	0	0	0	0	470	412
5	0	0	0	0	469	411
6	0	0	0	0	469	411
7	0	0	0	0	470	410
8	0	0	0	0	470	411
9	0	0	0	0	471	411
10	0	0	0	0	472	410
11	0	0	0	0	472	410
12	0	0	0	0	473	410
13	0	0	0	0	473	410
14	0	0	0	0	473	409
15	0	0	0	0	475	408
0	0	0	0	0	475	409
1	0	0	0	0	476	409
2	0	0	0	0	476	409
3	0	0	0	0	476	409
4	0	0	0	0	476	409
5	0	0	0	0	478	408
6	0	0	0	0	478	408
7	0	0	0	0	478	407
8	0	0	0	0	478	408
9	0	0	0	0	479	408
10	0	0	0	0	480	408
11	0	0	0	0	480	407
12	0	0	0	0	480	408
13	0	0	0	0	481	408
14	0	0	0	0	481	408
15	0	0	0	0	481	407
0	0	0	0	0	482	408
1	0	0	0	0	482	409
2	0	0	0	0	483	409
3	0	0	0	0	484	409
4	0	0	0	0	484	410
5	0	0	0	0	485	409
6	0	0	0	0	485	409
7	0	0	0	0	486	408
8	0	0	0	0	486	410
9	0	0	0	0	486	410
10	0	0	0	0	486	411
11	0	0	0	0	486	410
12	0	0	0	0	486	410
13	0	0	0	0	486	410
14	0	0	0	0	486	411
15	0	0	0	0	487	411
0	0	0	0	0	487	412
1	0	0	0	0	487	411
2	0	0	0	0	487	411
3	0	0	0	0	488	412
4	0	0	0	0	488	412
5	0	0	0	0	489	411
6	0	0	0	0	490	412
7	0	0	0	0	491	410
8	0	0	0	0	491	412
9	0	0	0	0	492	411
10	0	0	0	0	492	411
11	0	0	0	0	492	412
12	0	0	0	0	492	412
13	0	0	0	0	492	412
14	0	0	0	0	492	412
15	0	0	0	0	492	410
0	0	0	0	0	491	412
1	0	0	0	0	492	412
2	0	0	0	0	492	412
3	0	0	0	0	492	412
4	0	0	0	0	492	412
5	0	0	0	0	492	412
6	0	0	0	0	493	412
7	0	0	0	0	494	411
8	0	0	0	0	494	412
9	0	0	0	0	494	412
10	0	0	0	0	495	411
11	0	0	0	0	495	412
12	0	0	0	0	495	412
13	0	0	0	0	495	413
14	0	0	0	0	495	412
15	0	0	0	0	495	411
0	0	0	0	0	496	412
1	0	0	0	0	496	413
2	0	0	0	0	496	413
3	0	0	0	0	497	413
4	0	0	0	0	497	413
5	0	0	0	0	496	414
6	0	0	0	0	496	414
7	0	0	0	0	496	413
8	0	0	0	0	496	414
9	0	0	0	0	496	414
10	0	0	0	0	496	414
11	0	0	0	0	497	414
12	0	0	0	0	497	414
13	0	0	0	0	498	414
14	0	0	0	0	499	414
15	0	0	0	0	500	413
0	0	0	0	0	501	415
1	0	0	0	0	501	414
2	0	0	0	0	502	415
3	0	0	0	0	500	414
4	0	0	0	0	500	414
5	0	0	0	0	500	415
6	0	0	0	0	499	415
7	0	0	0	0	499	414
8	0	0	0	0	498	414
9	0	0	0	0	496	414
10	0	0	0	0	496	415
11	0	0	0	0	495	414
12	0	0	0	0	495	415
13	0	0	0	0	495	414
14	0	0	0	0	496	414
15	0	0	0	0	497	413
0	0	0	0	0	499	414
1	0	0	0	0	500	414
2	0	0	0	0	502	413
3	0	0	0	0	504	413
4	0	0	0	0	505	413
5	0	0	0	0	506	413
6	0	0	0	0	508	413
7	0	0	0	0	509	412
8	0	0	0	0	511	413
9	0	0	0	0	512	413
10	0	0	0	0	512	413
11	0	0	0	0	512	413
12	0	0	0	0	512	413
13	0	0	0	0	512	412
14	0	0	0	0	513	412
15	0	0	0	0	513	411
0	0	0	0	0	514	412
1	0	0	0	0	514	412
2	0	0	0	0	514	412
3	0	0	0	0	514	412
4	0	0	0	0	513	412
5	0	0	0	0	514	412
6	0	0	0	0	515	411
7	0	0	0	0	515	411
8	0	0	0	0	516	411
9	0	0	0	0	516	411
10	0	0	0	0	516	411
11	0	0	0	0	516	411
12	0	0	0	0	517	411
13	0	0	0	0	517	411
14	0	0	0	0	518	411
15	0	0	0	0	518	409
0	0	0	0	0	518	410
1	0	0	0	0	518	410
2	0	0	0	0	518	410
3	0	0	0	0	518	410
4	0	0	0	0	519	409
5	0	0	0	0	519	409
6	0	0	0	0	519	410
7	0	0	0	0	519	409
8	0	0	0	0	519	410
9	0	0	0	0	520	409
10	0	0	0	0	520	409
11	0	0	0	0	520	409
12	0	0	0	0	520	410
13	0	0	0	0	521	410
14	0	0	0	0	521	410
15	0	0	0	0	522	409
0	0	0	0	0	523	409
1	0	0	0	0	522	410
2	0	0	0	0	523	409
3	0	0	0	0	524	410
4	0	0	0	0	524	410
5	0	0	0	0	524	410
6	0	0	0	0	524	410
7	0	0	0	0	525	410
8	0	0	0	0	526	410
9	0	0	0	0	527	411
10	0	0	0	0	527	410
11	0	0	0	0	528	410
12	0	0	0	0	528	410
13	0	0	0	0	529	410
14	0	0	0	0	530	411
15	0	0	0	0	530	410
0	0	0	0	0	530	411
1	0	0	0	0	531	411
2	0	0	0	0	531	411
3	0	0	0	0	531	411
4	0	0	0	0	531	412
5	0	0	0	0	531	411
6	0	0	0	0	531	411
7	0	0	0	0	531	411
8	0	0	0	0	531	412
9	0	0	0	0	531	411
10	0	0	0	0	531	412
11	0	0	0	0	530	412
12	0	0	0	0	529	412
13	0	0	0	0	529	412
14	0	0	0	0	529	412
15	0	0	0	0	528	412
0	0	0	0	0	528	413
1	0	0	0	0	528	412
2	0	0	0	0	528	412
3	0	0	0	0	528	412
4	0	0	0	0	527	413
5	0	0	0	0	527	413
6	0	0	0	0	526	413
7	0	0	0	0	526	412
8	0	0	0	0	525	412
9	0	0	0	0	524	413
10	0	0	0	0	522	413
11	0	0	0	0	521	412
12	0	0	0	0	521	412
13	0	0	0	0	519	412
14	0	0	0	0	519	412
15	0	0	0	0	518	411
0	0	0	0	0	518	412
1	0	0	0	0	516	412
2	0	0	0	0	516	412
3	0	0	0	0	515	412
4	0	0	0	0	513	412
5	0	0	0	0	513	412
6	0	0	0	0	512	412
7	0	0	0	0	512	411
8	0	0	0	0	511	412
9	0	0	0	0	510	412
10	0	0	0	0	508	412
11	0	0	0	0	508	412
12	0	0	0	0	507	412
13	0	0	0	0	506	413
14	0	0	0	0	505	412
15	0	0	0	0	504	412
0	0	0	0	0	502	412
1	0	0	0	0	501	413
2	0	0	0	0	500	412
3	0	0	0	0	499	413
4	0	0	0	0	497	413
5	0	0	0	0	496	413
6	0	0	0	0	495	413
7	0	0	0	0	493	412
8	0	0	0	0	492	413
9	0	0	0	0	490	413
10	0	0	0	0	489	414
11	0	0	0	0	488	414
12	0	0	0	0	488	414
13	0	0	0	0	488	414
14	0	0	0	0	488	414
15	0	0	0	0	488	413
0	0	0	0	0	487	414
1	0	0	0	0	487	414
2	0	0	0	0	486	414
3	0	0	0	0	486	414
4	0	0	0	0	485	414
5	0	0	0	0	484	414
6	0	0	0	0	483	414
7	0	0	0	0	483	412
8	0	0	0	0	483	414
9	0	0	0	0	481	413
10	0	0	0	0	481	414
11	0	0	0	0	480	413
12	0	0	0	0	480	413
13	0	0	0	0	479	413
14	0	0	0	0	478	413
15	0	0	0	0	479	412
0	0	0	0	0	478	413
1	0	0	0	0	478	412
2	0	0	0	0	478	413
3	0	0	0	0	478	412
4	0	0	0	0	479	412
5	0	0	0	0	479	412
6	0	0	0	0	480	412
7	0	0	0	0	479	411
8	0	0	0	0	480	412
9	0	0	0	0	480	412
10	0	0	0	0	480	412
11	0	0	0	0	480	412
12	0	0	0	0	481	412
13	0	0	0	0	481	411
14	0	0	0	0	480	411
15	0	0	0	0	480	409
0	0	0	0	0	480	411
1	0	0	0	0	479	410
2	0	0	0	0	480	411
3	0	0	0	0	481	411
4	0	0	0	0	481	411
5	0	0	0	0	482	411
6	0	0	0	0	483	410
7	0	0	0	0	484	410
8	0	0	0	0	485	411
9	0	0	0	0	485	411
10	0	0	0	0	485	411
11	0	0	0	0	485	411
12	0	0	0	0	486	411
13	0	0	0	0	485	411
14	0	0	0	0	484	411
15	0	0	0	0	483	410
0	0	0	0	0	483	411
1	0	0	0	0	483	411
2	0	0	0	0	482	411
3	0	0	0	0	481	412
4	0	0	0	0	481	411
5	0	0	0	0	481	411
6	0	0	0	0	482	411
7	0	0	0	0	482	409
8	0	0	0	0	482	411
9	0	0	0	0	483	411
10	0	0	0	0	483	410
11	0	0	0	0	483	410
12	0	0	0	0	482	410
13	0	0	0	0	482	411
14	0	0	0	0	483	410
15	0	0	0	0	482	409
0	0	0	0	0	483	411
1	0	0	0	0	482	411
2	0	0	0	0	481	411
3	0	0	0	0	481	411
4	0	0	0	0	481	410
5	0	0	0	0	481	411
6	0	0	0	0	481	411
7	0	0	0	0	481	410
8	0	0	0	0	481	412
9	0	0	0	0	481	411
10	0	0	0	0	482	411
11	0	0	0	0	483	411
12	0	0	0	0	483	411
13	0	0	0	0	484	411
14	0	0	0	0	485	411
15	0	0	0	0	486	410
0	0	0	0	0	487	412
1	0	0	0	0	487	412
2	0	0	0	0	488	412
3	0	0	0	0	487	412
4	0	0	0	0	488	412
5	0	0	0	0	488	411
6	0	0	0	0	488	411
7	0	0	0	0	488	411
8	0	0	0	0	489	412
9	0	0	0	0	489	411
10	0	0	0	0	489	411
11	0	0	0	0	489	411
12	0	0	0	0	490	411
13	0	0	0	0	490	411
14	0	0	0	0	491	411
15	0	0	0	0	492	411
0	0	0	0	0	493	412
1	0	0	0	0	493	412
2	0	0	0	0	493	412
3	0	0	0	0	493	412
4	0	0	0	0	493	412
5	0	0	0	0	494	413
6	0	0	0	0	493	413
7	0	0	0	0	493	412
8	0	0	0	0	493	413
9	0	0	0	0	493	412
10	0	0	0	0	493	412
11	0	0	0	0	493	412
12	0	0	0	0	493	412
13	0	0	0	0	492	412
14	0	0	0	0	491	413
15	0	0	0	0	491	412
0	0	0	0	0	491	413
1	0	0	0	0	491	413
2	0	0	0	0	491	413
3	0	0	0	0	492	412
4	0	0	0	0	492	413
5	0	0	0	0	493	413
6	0	0	0	0	494	413
7	0	0	0	0	494	412
8	0	0	0	0	495	413
9	0	0	0	0	495	413
10	0	0	0	0	495	413
11	0	0	0	0	495	414
12	0	0	0	0	494	413
13	0	0	0	0	494	414
14	0	0	0	0	494	414
15	0	0	0	0	494	412
0	0	0	0	0	493	414
1	0	0	0	0	492	413
2	0	0	0	0	492	413
3	0	0	0	0	492	413
4	0	0	0	0	492	414
5	0	0	0	0	491	414
6	0	0	0	0	492	414
7	0	0	0	0	491	412
8	0	0	0	0	491	413
9	0	0	0	0	489	414
10	0	0	0	0	489	412
11	0	0	0	0	489	413
12	0	0	0	0	490	413
13	0	0	0	0	490	413
14	0	0	0	0	490	412
15	0	0	0	0	490	412
0	0	0	0	0	490	413
1	0	0	0	0	490	413
2	0	0	0	0	491	414
3	0	0	0	0	491	413
4	0	0	0	0	492	414
5	0	0	0	0	493	414
6	0	0	0	0	494	413
7	0	0	0	0	494	412
8	0	0	0	0	495	413
9	0	0	0	0	496	413
10	0	0	0	0	496	413
11	0	0	0	0	496	413
12	0	0	0	0	496	412
13	0	0	0	0	496	412
14	0	0	0	0	496	412
15	0	0	0	0	496	411
0	0	0	0	0	497	412
1	0	0	0	0	497	412
2	0	0	0	0	498	412
3	0	0	0	0	498	412
4	0	0	0	0	499	412
5	0	0	0	0	499	412
6	0	0	0	0	500	412
7	0	0	0	0	500	411
8	0	0	0	0	499	412
9	0	0	0	0	499	411
10	0	0	0	0	499	412
11	0	0	0	0	499	412
12	0	0	0	0	500	412
13	0	0	0	0	500	412
14	0	0	0	0	500	412
15	0	0	0	0	500	411
0	0	0	0	0	500	412
1	0	0	0	0	500	411
2	0	0	0	0	500	412
3	0	0	0	0	500	411
4	0	0	0	0	500	411
5	0	0	0	0	499	411
6	0	0	0	0	499	411
7	0	0	0	0	499	410
8	0	0	0	0	499	411
9	0	0	0	0	498	411
10	0	0	0	0	498	411
11	0	0	0	0	498	411
12	0	0	0	0	497	411
13	0	0	0	0	497	411
14	0	0	0	0	497	411
15	0	0	0	0	497	410
0	0	0	0	0	498	410
1	0	0	0	0	499	411
2	0	0	0	0	499	411
3	0	0	0	0	499	411
4	0	0	0	0	500	410
5	0	0	0	0	500	411
6	0	0	0	0	499	410
7	0	0	0	0	499	409
8	0	0	0	0	498	410
9	0	0	0	0	498	410
10	0	0	0	0	498	411
11	0	0	0	0	497	410
12	0	0	0	0	498	409
13	0	0	0	0	498	409
14	0	0	0	0	498	409
15	0	0	0	0	498	408
0	0	0	0	0	499	410
1	0	0	0	0	498	409
2	0	0	0	0	498	410
3	0	0	0	0	498	410
4	0	0	0	0	498	410
5	0	0	0	0	498	410
6	0	0	0	0	498	409
7	0	0	0	0	499	409
8	0	0	0	0	501	410
9	0	0	0	0	501	410
10	0	0	0	0	501	410
11	0	0	0	0	501	410
12	0	0	0	0	503	411
13	0	0	0	0	503	411
14	0	0	0	0	504	411
15	0	0	0	0	503	410
0	0	0	0	0	503	411
1	0	0	0	0	503	412
2	0	0	0	0	503	411
3	0	0	0	0	503	411
4	0	0	0	0	503	412
5	0	0	0	0	503	412
6	0	0	0	0	503	412
7	0	0	0	0	504	411
8	0	0	0	0	504	412
9	0	0	0	0	504	412
10	0	0	0	0	504	412
11	0	0	0	0	504	412
12	0	0	0	0	504	412
13	0	0	0	0	504	412
14	0	0	0	0	504	412
15	0	0	0	0	503	411
0	0	0	0	0	503	412
1	0	0	0	0	502	412
2	0	0	0	0	502	412
3	0	0	0	0	501	412
4	0	0	0	0	500	412
5	0	0	0	0	499	412
6	0	0	0	0	499	412
7	0	0	0	0	499	411
8	0	0	0	0	499	412
9	0	0	0	0	499	412
10	0	0	0	0	499	412
11	0	0	0	0	499	412
12	0	0	0	0	499	412
13	0	0	0	0	500	412
14	0	0	0	0	501	412
15	0	0	0	0	502	411
0	0	0	0	0	502	411
1	0	0	0	0	503	412
2	0	0	0	0	503	412
3	0	0	0	0	503	412
4	0	0	0	0	504	412
5	0	0	0	0	504	412
6	0	0	0	0	503	412
7	0	0	0	0	503	411
8	0	0	0	0	503	412
9	0	0	0	0	503	412
10	0	0	0	0	503	413
11	0	0	0	0	503	413
12	0	0	0	0	503	413
13	0	0	0	0	504	413
14	0	0	0	0	503	413
15	0	0	0	0	503	412
0	0	0	0	0	503	414
1	0	0	0	0	503	413
2	0	0	0	0	504	413
3	0	0	0	0	504	413
4	0	0	0	0	505	413
5	0	0	0	0	505	413
6	0	0	0	0	505	413
7	0	0	0	0	505	413
8	0	0	0	0	505	413
9	0	0	0	0	505	414
10	0	0	0	0	505	414
11	0	0	0	0	505	414
12	0	0	0	0	505	413
13	0	0	0	0	505	413
14	0	0	0	0	505	413
15	0	0	0	0	506	412
0	0	0	0	0	506	413
1	0	0	0	0	505	413
2	0	0	0	0	505	413
3	0	0	0	0	506	412
4	0	0	0	0	506	414
5	0	0	0	0	505	413
6	0	0	0	0	504	414
7	0	0	0	0	504	412
8	0	0	0	0	504	413
9	0	0	0	0	504	413
10	0	0	0	0	504	413
11	0	0	0	0	504	412
12	0	0	0	0	504	412
13	0	0	0	0	504	413
14	0	0	0	0	504	412
15	0	0	0	0	505	411
0	0	0	0	0	505	412
1	0	0	0	0	504	412
2	0	0	0	0	503	412
3	0	0	0	0	503	412
4	0	0	0	0	502	412
5	0	0	0	0	503	411
6	0	0	0	0	503	412
7	0	0	0	0	503	411
8	0	0	0	0	503	412
9	0	0	0	0	504	411
10	0	0	0	0	504	412
11	0	0	0	0	505	412
12	0	0	0	0	505	411
13	0	0	0	0	506	412
14	0	0	0	0	507	411
15	0	0	0	0	507	411
0	0	0	0	0	507	412
1	0	0	0	0	507	412
2	0	0	0	0	506	412
3	0	0	0	0	506	412
4	0	0	0	0	505	411
5	0	0	0	0	505	412
6	0	0	0	0	505	412
7	0	0	0	0	505	410
8	0	0	0	0	506	412
9	0	0	0	0	506	411
10	0	0	0	0	506	411
11	0	0	0	0	506	412
12	0	0	0	0	506	412
13	0	0	0	0	505	411
14	0	0	0	0	506	411
15	0	0	0	0	506	410
0	0	0	0	0	506	412
1	0	0	0	0	506	411
2	0	0	0	0	505	412
3	0	0	0	0	505	411
4	0	0	0	0	505	411
5	0	0	0	0	505	412
6	0	0	0	0	505	412
7	0	0	0	0	505	411
8	0	0	0	0	505	412
9	0	0	0	0	504	412
10	0	0	0	0	504	412
11	0	0	0	0	504	412
12	0	0	0	0	504	411
13	0	0	0	0	503	411
14	0	0	0	0	503	411
15	0	0	0	0	503	410
0	0	0	0	0	503	411
1	0	0	0	0	503	412
2	0	0	0	0	502	411
3	0	0	0	0	502	411
4	0	0	0	0	502	411
5	0	0	0	0	504	411
6	0	0	0	0	504	412
7	0	0	0	0	503	411
8	0	0	0	0	504	412
9	0	0	0	0	504	412
10	0	0	0	0	504	412
11	0	0	0	0	504	412
12	0	0	0	0	505	411
13	0	0	0	0	504	411
14	0	0	0	0	503	411
15	0	0	0	0	502	410
0	0	0	0	0	501	411
1	0	0	0	0	502	412
2	0	0	0	0	502	412
3	0	0	0	0	503	411
4	0	0	0	0	503	411
5	0	0	0	0	504	411
6	0	0	0	0	505	411
7	0	0	0	0	505	411
8	0	0	0	0	507	411
9	0	0	0	0	507	412
10	0	0	0	0	507	412
11	0	0	0	0	507	412
12	0	0	0	0	507	412
13	0	0	0	0	506	412
14	0	0	0	0	507	412
15	0	0	0	0	506	411
0	0	0	0	0	506	411
1	0	0	0	0	505	412
2	0	0	0	0	504	412
3	0	0	0	0	504	412
4	0	0	0	0	504	411
5	0	0	0	0	505	411
6	0	0	0	0	505	411
7	0	0	0	0	506	410
8	0	0	0	0	506	411
9	0	0	0	0	507	411
10	0	0	0	0	508	412
11	0	0	0	0	507	411
12	0	0	0	0	507	411
13	0	0	0	0	507	411
14	0	0	0	0	507	411
15	0	0	0	0	507	410
0	0	0	0	0	507	411
1	0	0	0	0	507	412
2	0	0	0	0	507	411
3	0	0	0	0	507	412
4	0	0	0	0	507	412
5	0	0	0	0	506	411
6	0	0	0	0	505	411
7	0	0	0	0	505	410
8	0	0	0	0	505	411
9	0	0	0	0	506	411
10	0	0	0	0	505	411
11	0	0	0	0	506	411
12	0	0	0	0	505	412
13	0	0	0	0	506	411
14	0	0	0	0	506	411
15	0	0	0	0	506	411
0	0	0	0	0	507	412
1	0	0	0	0	507	412
2	0	0	0	0	507	412
3	0	0	0	0	508	412
4	0	0	0	0	508	412
5	0	0	0	0	510	412
6	0	0	0	0	511	412
7	0	0	0	0	511	411
8	0	0	0	0	512	412
9	0	0	0	0	512	412
10	0	0	0	0	512	413
11	0	0	0	0	512	412
12	0	0	0	0	513	412
13	0	0	0	0	513	412
14	0	0	0	0	513	412
15	0	0	0	0	514	411
0	0	0	0	0	514	412
1	0	0	0	0	515	412
2	0	0	0	0	516	412
3	0	0	0	0	517	412
4	0	0	0	0	517	412
5	0	0	0	0	518	412
6	0	0	0	0	518	412
7	0	0	0	0	519	411
8	0	0	0	0	518	412
9	0	0	0	0	518	412
10	0	0	0	0	519	412
11	0	0	0	0	519	412
12	0	0	0	0	519	413
13	0	0	0	0	519	412
14	0	0	0	0	520	412
15	0	0	0	0	520	412
0	0	0	0	0	521	412
1	0	0	0	0	520	412
2	0	0	0	0	520	412
3	0	0	0	0	520	412
4	0	0	0	0	521	412
5	0	0	0	0	521	412
6	0	0	0	0	522	413
7	0	0	0	0	524	412
8	0	0	0	0	525	412
9	0	0	0	0	526	412
10	0	0	0	0	526	412
11	0	0	0	0	526	412
12	0	0	0	0	526	412
13	0	0	0	0	527	412
14	0	0	0	0	527	412
15	0	0	0	0	527	412
0	0	0	0	0	525	412
1	0	0	0	0	524	412
2	0	0	0	0	524	412
3	0	0	0	0	523	412
4	0	0	0	0	522	411
5	0	0	0	0	522	412
6	0	0	0	0	522	412
7	0	0	0	0	521	411
8	0	0	0	0	521	412
9	0	0	0	0	520	412
10	0	0	0	0	519	412
11	0	0	0	0	518	412
12	0	0	0	0	517	412
13	0	0	0	0	516	411
14	0	0	0	0	516	411
15	0	0	0	0	515	411
0	0	0	0	0	514	412
1	0	0	0	0	513	412
2	0	0	0	0	513	412
3	0	0	0	0	513	412
4	0	0	0	0	513	413
5	0	0	0	0	512	412
6	0	0	0	0	512	412
7	0	0	0	0	512	410
8	0	0	0	0	512	412
9	0	0	0	0	512	412
10	0	0	0	0	512	412
11	0	0	0	0	513	412
12	0	0	0	0	514	412
13	0	0	0	0	515	412
14	0	0	0	0	516	412
15	0	0	0	0	516	410
0	0	0	0	0	516	412
1	0	0	0	0	517	412
2	0	0	0	0	516	412
3	0	0	0	0	516	412
4	0	0	0	0	516	412
5	0	0	0	0	516	412
6	0	0	0	0	517	412
7	0	0	0	0	517	411
8	0	0	0	0	518	412
9	0	0	0	0	518	412
10	0	0	0	0	518	413
11	0	0	0	0	517	412
12	0	0	0	0	516	412
13	0	0	0	0	516	412
14	0	0	0	0	515	412
15	0	0	0	0	514	411
0	0	0	0	0	512	412
1	0	0	0	0	511	412
2	0	0	0	0	512	412
3	0	0	0	0	512	411
4	0	0	0	0	513	412
5	0	0	0	0	513	412
6	0	0	0	0	513	412
7	0	0	0	0	513	411
8	0	0	0	0	513	412
9	0	0	0	0	512	411
10	0	0	0	0	513	412
11	0	0	0	0	513	412
12	0	0	0	0	513	412
13	0	0	0	0	512	412
14	0	0	0	0	512	412
15	0	0	0	0	512	411
0	0	0	0	0	512	412
1	0	0	0	0	512	412
2	0	0	0	0	512	412
3	0	0	0	0	512	412
4	0	0	0	0	513	412
5	0	0	0	0	513	412
6	0	0	0	0	515	412
7	0	0	0	0	516	411
8	0	0	0	0	517	412
9	0	0	0	0	518	412
10	0	0	0	0	518	412
11	0	0	0	0	518	412
12	0	0	0	0	518	412
13	0	0	0	0	518	412
14	0	0	0	0	518	412
15	0	0	0	0	519	411
0	0	0	0	0	519	412
1	0	0	0	0	518	412
2	0	0	0	0	518	411
3	0	0	0	0	518	411
4	0	0	0	0	518	411
5	0	0	0	0	519	412
6	0	0	0	0	519	411
7	0	0	0	0	519	410
8	0	0	0	0	519	411
9	0	0	0	0	519	411
10	0	0	0	0	519	411
11	0	0	0	0	519	412
12	0	0	0	0	519	411
13	0	0	0	0	519	411
14	0	0	0	0	519	411
15	0	0	0	0	519	411
0	0	0	0	0	519	412
1	0	0	0	0	519	412
2	0	0	0	0	519	412
3	0	0	0	0	519	412
4	0	0	0	0	518	412
5	0	0	0	0	518	411
6	0	0	0	0	516	411
7	0	0	0	0	516	410
8	0	0	0	0	516	411
9	0	0	0	0	516	411
10	0	0	0	0	516	411
11	0	0	0	0	516	411
12	0	0	0	0	516	410
13	0	0	0	0	517	412
14	0	0	0	0	517	411
15	0	0	0	0	517	410
0	0	0	0	0	518	411
1	0	0	0	0	517	412
2	0	0	0	0	516	411
3	0	0	0	0	513	412
4	0	0	0	0	511	411
5	0	0	0	0	507	411
6	0	0	0	0	503	411
7	0	0	0	0	498	410
8	0	0	0	0	494	411
9	0	0	0	0	487	412
10	0	0	0	0	482	412
11	0	0	0	0	477	412
12	0	0	0	0	472	412
13	0	0	0	0	469	411
14	0	0	0	0	467	411
15	0	0	0	0	466	411
0	0	0	0	0	466	412
1	0	0	0	0	468	411
2	0	0	0	0	471	411
3	0	0	0	0	474	411
4	0	0	0	0	479	411
5	0	0	0	0	483	411
6	0	0	0	0	489	411
7	0	0	0	0	496	410
8	0	0	0	0	505	411
9	0	0	0	0	515	411
10	0	0	0	0	527	412
11	0	0	0	0	541	412
12	0	0	0	0	554	412
13	0	0	0	0	568	412
14	0	0	0	0	583	412
15	0	0	0	0	598	411
0	0	0	0	0	612	412
1	0	0	0	0	627	412
2	0	0	0	0	642	412
3	0	0	0	0	657	412
4	0	0	0	0	672	411
5	0	0	0	0	684	412
6	0	0	0	0	694	411
7	0	0	0	0	702	411
8	0	0	0	0	709	412
9	0	0	0	0	714	412
10	0	0	0	0	716	412
11	0	0	0	0	716	412
12	0	0	0	0	716	412
13	0	0	0	0	715	412
14	0	0	0	0	713	412
15	0	0	0	0	709	412
0	0	0	0	0	704	412
1	0	0	0	0	696	412
2	0	0	0	0	688	412
3	0	0	0	0	679	412
4	0	0	0	0	668	412
5	0	0	0	0	657	412
6	0	0	0	0	645	412
7	0	0	0	0	632	411
8	0	0	0	0	618	412
9	0	0	0	0	603	412
10	0	0	0	0	587	412
11	0	0	0	0	573	413
12	0	0	0	0	560	412
13	0	0	0	0	548	412
14	0	0	0	0	538	412
15	0	0	0	0	528	412
0	0	0	0	0	520	413
1	0	0	0	0	512	413
2	0	0	0	0	506	412
3	0	0	0	0	500	412
4	0	0	0	0	495	413
5	0	0	0	0	489	413
6	0	0	0	0	485	412
7	0	0	0	0	482	412
8	0	0	0	0	480	413
9	0	0	0	0	478	413
10	0	0	0	0	476	413
11	0	0	0	0	475	414
12	0	0	0	0	473	412
13	0	0	0	0	473	413
14	0	0	0	0	473	414
15	0	0	0	0	472	413
0	0	0	0	0	472	413
1	0	0	0	0	472	413
2	0	0	0	0	471	413
3	0	0	0	0	470	413
4	0	0	0	0	469	413
5	0	0	0	0	468	413
6	0	0	0	0	468	413
7	0	0	0	0	467	412
8	0	0	0	0	468	413
9	0	0	0	0	467	413
10	0	0	0	0	467	413
11	0	0	0	0	467	413
12	0	0	0	0	468	414
13	0	0	0	0	468	413
14	0	0	0	0	468	414
15	0	0	0	0	469	412
0	0	0	0	0	469	413
1	0	0	0	0	469	413
2	0	0	0	0	470	414
3	0	0	0	0	470	412
4	0	0	0	0	470	413
5	0	0	0	0	471	413
6	0	0	0	0	471	412
7	0	0	0	0	471	412
8	0	0	0	0	471	412
9	0	0	0	0	472	412
10	0	0	0	0	472	412
11	0	0	0	0	472	412
12	0	0	0	0	473	412
13	0	0	0	0	473	413
14	0	0	0	0	473	412
15	0	0	0	0	472	411
0	0	0	0	0	472	412
1	0	0	0	0	472	412
2	0	0	0	0	472	412
3	0	0	0	0	473	411
4	0	0	0	0	473	411
5	0	0	0	0	474	411
6	0	0	0	0	476	411
7	0	0	0	0	476	411
8	0	0	0	0	477	411
9	0	0	0	0	477	411
10	0	0	0	0	478	411
11	0	0	0	0	478	411
12	0	0	0	0	479	412
13	0	0	0	0	479	412
14	0	0	0	0	480	411
15	0	0	0	0	480	410
0	0	0	0	0	480	411
1	0	0	0	0	480	411
2	0	0	0	0	481	411
3	0	0	0	0	482	411
4	0	0	0	0	482	411
5	0	0	0	0	483	411
6	0	0	0	0	483	411
7	0	0	0	0	483	409
8	0	0	0	0	482	411
9	0	0	0	0	482	410
10	0	0	0	0	483	410
11	0	0	0	0	483	410
12	0	0	0	0	483	410
13	0	0	0	0	484	409
14	0	0	0	0	485	410
15	0	0	0	0	487	409
0	0	0	0	0	488	410
1	0	0	0	0	489	410
2	0	0	0	0	489	410
3	0	0	0	0	489	409
4	0	0	0	0	489	410
5	0	0	0	0	489	410
6	0	0	0	0	489	409
7	0	0	0	0	489	409
8	0	0	0	0	489	410
9	0	0	0	0	489	410
10	0	0	0	0	490	410
11	0	0	0	0	490	411
12	0	0	0	0	491	410
13	0	0	0	0	491	410
14	0	0	0	0	492	411
15	0	0	0	0	492	409
0	0	0	0	0	493	411
1	0	0	0	0	493	410
2	0	0	0	0	494	410
3	0	0	0	0	495	410
4	0	0	0	0	496	411
5	0	0	0	0	495	410
6	0	0	0	0	495	410
7	0	0	0	0	494	409
8	0	0	0	0	494	411
9	0	0	0	0	494	411
10	0	0	0	0	494	411
11	0	0	0	0	494	411
12	0	0	0	0	493	411
13	0	0	0	0	493	411
14	0	0	0	0	493	411
15	0	0	0	0	493	411
0	0	0	0	0	494	412
1	0	0	0	0	494	411
2	0	0	0	0	495	412
3	0	0	0	0	495	412
4	0	0	0	0	496	412
5	0	0	0	0	496	412
6	0	0	0	0	496	412
7	0	0	0	0	497	411
8	0	0	0	0	498	412
9	0	0	0	0	499	412
10	0	0	0	0	499	413
11	0	0	0	0	499	413
12	0	0	0	0	500	413
13	0	0	0	0	499	413
14	0	0	0	0	499	412
15	0	0	0	0	498	412
0	0	0	0	0	498	413
1	0	0	0	0	498	412
2	0	0	0	0	498	412
3	0	0	0	0	499	413
4	0	0	0	0	499	413
5	0	0	0	0	500	413
6	0	0	0	0	501	413
7	0	0	0	0	503	412
8	0	0	0	0	503	414
9	0	0	0	0	504	414
10	0	0	0	0	505	413
11	0	0	0	0	506	414
12	0	0	0	0	507	415
13	0	0	0	0	507	414
14	0	0	0	0	507	414
15	0	0	0	0	507	413
0	0	0	0	0	506	414
1	0	0	0	0	506	414
2	0	0	0	0	506	413
3	0	0	0	0	505	413
4	0	0	0	0	505	414
5	0	0	0	0	505	414
6	0	0	0	0	506	414
7	0	0	0	0	507	413
8	0	0	0	0	507	414
9	0	0	0	0	508	414
10	0	0	0	0	508	414
11	0	0	0	0	508	414
12	0	0	0	0	508	414
13	0	0	0	0	509	413
14	0	0	0	0	510	413
15	0	0	0	0	511	412
0	0	0	0	0	511	413
1	0	0	0	0	511	414
2	0	0	0	0	512	414
3	0	0	0	0	512	414
4	0	0	0	0	512	414
5	0	0	0	0	512	413
6	0	0	0	0	512	413
7	0	0	0	0	512	412
8	0	0	0	0	513	412
9	0	0	0	0	513	413
10	0	0	0	0	513	412
11	0	0	0	0	514	412
12	0	0	0	0	515	412
13	0	0	0	0	515	412
14	0	0	0	0	515	412
15	0	0	0	0	516	411
0	0	0	0	0	517	413
1	0	0	0	0	517	412
2	0	0	0	0	518	412
3	0	0	0	0	519	412
4	0	0	0	0	519	412
5	0	0	0	0	519	412
6	0	0	0	0	519	412
7	0	0	0	0	519	411
8	0	0	0	0	519	412
9	0	0	0	0	520	412
10	0	0	0	0	520	412
11	0	0	0	0	519	412
12	0	0	0	0	519	412
13	0	0	0	0	519	411
14	0	0	0	0	520	411
15	0	0	0	0	521	410
0	0	0	0	0	522	411
1	0	0	0	0	522	411
2	0	0	0	0	523	411
3	0	0	0	0	524	411
4	0	0	0	0	525	411
5	0	0	0	0	526	411
6	0	0	0	0	527	411
7	0	0	0	0	527	410
8	0	0	0	0	528	412
9	0	0	0	0	528	412
10	0	0	0	0	528	412
11	0	0	0	0	528	412
12	0	0	0	0	529	411
13	0	0	0	0	529	411
14	0	0	0	0	529	411
15	0	0	0	0	529	410
0	0	0	0	0	529	411
1	0	0	0	0	530	410
2	0	0	0	0	530	410
3	0	0	0	0	531	410
4	0	0	0	0	532	411
5	0	0	0	0	532	411
6	0	0	0	0	532	411
7	0	0	0	0	532	410
8	0	0	0	0	532	411
9	0	0	0	0	532	411
10	0	0	0	0	532	411
11	0	0	0	0	533	411
12	0	0	0	0	533	411
13	0	0	0	0	533	410
14	0	0	0	0	534	410
15	0	0	0	0	534	409
0	0	0	0	0	534	409
1	0	0	0	0	534	410
2	0	0	0	0	534	410
3	0	0	0	0	534	409
4	0	0	0	0	534	409
5	0	0	0	0	533	409
6	0	0	0	0	533	408
7	0	0	0	0	533	408
8	0	0	0	0	532	409
9	0	0	0	0	533	408
10	0	0	0	0	534	409
11	0	0	0	0	534	409
12	0	0	0	0	534	409
13	0	0	0	0	535	409
14	0	0	0	0	534	409
15	0	0	0	0	534	408
0	0	0	0	0	534	409
1	0	0	0	0	533	409
2	0	0	0	0	532	410
3	0	0	0	0	531	409
4	0	0	0	0	531	410
5	0	0	0	0	530	410
6	0	0	0	0	529	410
7	0	0	0	0	528	409
8	0	0	0	0	527	411
9	0	0	0	0	527	410
10	0	0	0	0	526	411
11	0	0	0	0	525	411
12	0	0	0	0	523	411
13	0	0	0	0	522	411
14	0	0	0	0	520	411
15	0	0	0	0	519	411
0	0	0	0	0	518	412
1	0	0	0	0	517	412
2	0	0	0	0	515	412
3	0	0	0	0	513	412
4	0	0	0	0	511	412
5	0	0	0	0	510	411
6	0	0	0	0	508	412
7	0	0	0	0	507	410
8	0	0	0	0	505	411
9	0	0	0	0	504	412
10	0	0	0	0	502	412
11	0	0	0	0	501	412
12	0	0	0	0	500	411
13	0	0	0	0	499	412
14	0	0	0	0	498	412
15	0	0	0	0	497	411
0	0	0	0	0	497	412
1	0	0	0	0	496	412
2	0	0	0	0	495	412
3	0	0	0	0	495	412
4	0	0	0	0	494	412
5	0	0	0	0	494	412
6	0	0	0	0	493	412
7	0	0	0	0	493	412
8	0	0	0	0	493	413
9	0	0	0	0	493	412
10	0	0	0	0	492	413
11	0	0	0	0	492	413
12	0	0	0	0	492	413
13	0	0	0	0	490	413
14	0	0	0	0	490	413
15	0	0	0	0	489	411
0	0	0	0	0	489	412
1	0	0	0	0	488	412
2	0	0	0	0	487	413
3	0	0	0	0	487	412
4	0	0	0	0	486	413
5	0	0	0	0	485	413
6	0	0	0	0	486	413
7	0	0	0	0	486	412
8	0	0	0	0	487	413
9	0	0	0	0	487	413
10	0	0	0	0	487	413
11	0	0	0	0	487	413
12	0	0	0	0	487	413
13	0	0	0	0	487	413
14	0	0	0	0	489	414
15	0	0	0	0	488	412
0	0	0	0	0	487	413
1	0	0	0	0	487	412
2	0	0	0	0	486	413
3	0	0	0	0	486	413
4	0	0	0	0	486	412
5	0	0	0	0	486	413
6	0	0	0	0	486	412
7	0	0	0	0	486	411
8	0	0	0	0	486	412
9	0	0	0	0	486	412
10	0	0	0	0	486	412
11	0	0	0	0	487	412
12	0	0	0	0	487	412
13	0	0	0	0	487	412
14	0	0	0	0	487	412
15	0	0	0	0	487	411
0	0	0	0	0	487	413
1	0	0	0	0	487	413
2	0	0	0	0	487	413
3	0	0	0	0	487	413
4	0	0	0	0	487	413
5	0	0	0	0	488	412
6	0	0	0	0	488	413
7	0	0	0	0	489	411
8	0	0	0	0	489	413
9	0	0	0	0	489	413
10	0	0	0	0	491	412
11	0	0	0	0	491	412
12	0	0	0	0	491	412
13	0	0	0	0	491	411
14	0	0	0	0	491	412
15	0	0	0	0	492	411
0	0	0	0	0	493	412
1	0	0	0	0	493	412
2	0	0	0	0	493	411
3	0	0	0	0	493	411
4	0	0	0	0	494	412
5	0	0	0	0	494	412
6	0	0	0	0	494	411
7	0	0	0	0	494	411
8	0	0	0	0	494	412
9	0	0	0	0	494	412
10	0	0	0	0	494	412
11	0	0	0	0	493	412
12	0	0	0	0	492	412
13	0	0	0	0	492	412
14	0	0	0	0	492	412
15	0	0	0	0	493	411
0	0	0	0	0	493	411
1	0	0	0	0	494	411
2	0	0	0	0	495	411
3	0	0	0	0	496	412
4	0	0	0	0	497	412
5	0	0	0	0	498	411
6	0	0	0	0	499	411
7	0	0	0	0	499	411
8	0	0	0	0	499	412
9	0	0	0	0	500	411
10	0	0	0	0	501	411
11	0	0	0	0	502	411
12	0	0	0	0	503	412
13	0	0	0	0	503	411
14	0	0	0	0	504	411
15	0	0	0	0	504	410
0	0	0	0	0	504	411
1	0	0	0	0	505	411
2	0	0	0	0	505	411
3	0	0	0	0	506	411
4	0	0	0	0	506	411
5	0	0	0	0	506	411
6	0	0	0	0	507	411
7	0	0	0	0	508	411
8	0	0	0	0	508	411
9	0	0	0	0	508	411
10	0	0	0	0	508	411
11	0	0	0	0	509	411
12	0	0	0	0	508	411
13	0	0	0	0	508	411
14	0	0	0	0	507	412
15	0	0	0	0	506	409
0	0	0	0	0	505	411
1	0	0	0	0	505	411
2	0	0	0	0	505	411
3	0	0	0	0	505	411
4	0	0	0	0	505	411
5	0	0	0	0	505	412
6	0	0	0	0	505	411
7	0	0	0	0	505	410
8	0	0	0	0	506	411
9	0	0	0	0	506	412
10	0	0	0	0	506	411
11	0	0	0	0	507	411
12	0	0	0	0	507	411
13	0	0	0	0	508	411
14	0	0	0	0	508	411
15	0	0	0	0	509	410
0	0	0	0	0	510	411
1	0	0	0	0	509	411
2	0	0	0	0	509	411
3	0	0	0	0	509	411
4	0	0	0	0	509	411
5	0	0	0	0	508	411
6	0	0	0	0	508	411
7	0	0	0	0	508	410
8	0	0	0	0	508	412
9	0	0	0	0	509	412
10	0	0	0	0	509	412
11	0	0	0	0	509	412
12	0	0	0	0	509	411
13	0	0	0	0	509	412
14	0	0	0	0	510	412
15	0	0	0	0	510	410
0	0	0	0	0	511	412
1	0	0	0	0	511	412
2	0	0	0	0	511	411
3	0	0	0	0	512	411
4	0	0	0	0	513	411
5	0	0	0	0	513	412
6	0	0	0	0	512	411
7	0	0	0	0	512	410
8	0	0	0	0	511	412
9	0	0	0	0	511	412
10	0	0	0	0	510	411
11	0	0	0	0	511	412
12	0	0	0	0	510	411
13	0	0	0	0	510	412
14	0	0	0	0	510	412
15	0	0	0	0	510	411
0	0	0	0	0	509	412
1	0	0	0	0	510	412
2	0	0	0	0	510	412
3	0	0	0	0	510	412
4	0	0	0	0	510	412
5	0	0	0	0	509	412
6	0	0	0	0	509	412
7	0	0	0	0	510	412
8	0	0	0	0	510	412
9	0	0	0	0	510	412
10	0	0	0	0	510	412
11	0	0	0	0	510	412
12	0	0	0	0	511	412
13	0	0	0	0	511	412
14	0	0	0	0	511	412
15	0	0	0	0	511	412
0	0	0	0	0	512	412
1	0	0	0	0	512	413
2	0	0	0	0	512	414
3	0	0	0	0	512	413
4	0	0	0	0	513	413
5	0	0	0	0	513	414
6	0	0	0	0	513	413
7	0	0	0	0	513	412
8	0	0	0	0	513	413
9	0	0	0	0	514	412
10	0	0	0	0	513	412
11	0	0	0	0	513	413
12	0	0	0	0	512	412
13	0	0	0	0	511	413
14	0	0	0	0	511	412
15	0	0	0	0	511	412
0	0	0	0	0	510	413
1	0	0	0	0	510	413
2	0	0	0	0	509	413
3	0	0	0	0	508	414
4	0	0	0	0	508	413
5	0	0	0	0	508	413
6	0	0	0	0	508	412
7	0	0	0	0	507	412
8	0	0	0	0	507	412
9	0	0	0	0	507	412
10	0	0	0	0	508	412
11	0	0	0	0	508	412
12	0	0	0	0	509	412
13	0	0	0	0	509	412
14	0	0	0	0	510	412
15	0	0	0	0	510	411
0	0	0	0	0	511	412
1	0	0	0	0	511	412
2	0	0	0	0	510	412
3	0	0	0	0	510	412
4	0	0	0	0	510	412
5	0	0	0	0	509	412
6	0	0	0	0	508	412
7	0	0	0	0	508	411
8	0	0	0	0	507	412
9	0	0	0	0	508	412
10	0	0	0	0	508	412
11	0	0	0	0	507	412
12	0	0	0	0	506	412
13	0	0	0	0	506	412
14	0	0	0	0	506	412
15	0	0	0	0	506	411
0	0	0	0	0	506	412
1	0	0	0	0	506	412
2	0	0	0	0	506	412
3	0	0	0	0	507	412
4	0	0	0	0	507	412
5	0	0	0	0	507	412
6	0	0	0	0	507	412
7	0	0	0	0	506	411
8	0	0	0	0	507	412
9	0	0	0	0	507	412
10	0	0	0	0	507	412
11	0	0	0	0	507	411
12	0	0	0	0	507	412
13	0	0	0	0	507	412
14	0	0	0	0	508	412
15	0	0	0	0	508	411
0	0	0	0	0	508	412
1	0	0	0	0	508	412
2	0	0	0	0	508	412
3	0	0	0	0	508	412
4	0	0	0	0	508	412
5	0	0	0	0	509	412
6	0	0	0	0	509	412
7	0	0	0	0	509	411
8	0	0	0	0	510	412
9	0	0	0	0	510	412
10	0	0	0	0	509	412
11	0	0	0	0	508	411
12	0	0	0	0	508	412
13	0	0	0	0	508	412
14	0	0	0	0	508	411
15	0	0	0	0	507	410
0	0	0	0	0	508	411
1	0	0	0	0	508	411
2	0	0	0	0	508	411
3	0	0	0	0	508	411
4	0	0	0	0	508	411
5	0	0	0	0	508	411
6	0	0	0	0	509	411
7	0	0	0	0	510	409
8	0	0	0	0	511	410
9	0	0	0	0	511	411
10	0	0	0	0	512	411
11	0	0	0	0	512	410
12	0	0	0	0	513	410
13	0	0	0	0	512	410
14	0	0	0	0	512	410
15	0	0	0	0	512	409
0	0	0	0	0	512	410
1	0	0	0	0	511	410
2	0	0	0	0	511	410
3	0	0	0	0	510	410
4	0	0	0	0	509	410
5	0	0	0	0	509	410
6	0	0	0	0	510	410
7	0	0	0	0	510	410
8	0	0	0	0	510	410
9	0	0	0	0	510	410
10	0	0	0	0	511	411
11	0	0	0	0	511	411
12	0	0	0	0	512	411
13	0	0	0	0	512	411
14	0	0	0	0	512	411
15	0	0	0	0	512	410
0	0	0	0	0	513	411
1	0	0	0	0	513	411
2	0	0	0	0	513	411
3	0	0	0	0	513	411
4	0	0	0	0	513	411
5	0	0	0	0	513	411
6	0	0	0	0	512	411
7	0	0	0	0	512	409
8	0	0	0	0	512	410
9	0	0	0	0	512	411
10	0	0	0	0	512	411
11	0	0	0	0	511	411
12	0	0	0	0	511	411
13	0	0	0	0	510	411
14	0	0	0	0	510	411
15	0	0	0	0	511	410
0	0	0	0	0	512	412
1	0	0	0	0	512	412
2	0	0	0	0	512	412
3	0	0	0	0	511	412
4	0	0	0	0	511	412
5	0	0	0	0	511	413
6	0	0	0	0	511	412
7	0	0	0	0	511	411
8	0	0	0	0	512	412
9	0	0	0	0	512	412
10	0	0	0	0	512	412
11	0	0	0	0	512	412
12	0	0	0	0	513	412
13	0	0	0	0	513	412
14	0	0	0	0	513	412
15	0	0	0	0	513	412
0	0	0	0	0	512	412
1	0	0	0	0	513	412
2	0	0	0	0	513	412
3	0	0	0	0	514	413
4	0	0	0	0	514	412
5	0	0	0	0	514	412
6	0	0	0	0	514	412
7	0	0	0	0	514	412
8	0	0	0	0	514	413
9	0	0	0	0	513	413
10	0	0	0	0	513	413
11	0	0	0	0	513	412
12	0	0	0	0	513	412
13	0	0	0	0	512	412
14	0	0	0	0	512	412
15	0	0	0	0	512	411
0	0	0	0	0	513	412
1	0	0	0	0	513	412
2	0	0	0	0	515	412
3	0	0	0	0	515	412
4	0	0	0	0	515	413
5	0	0	0	0	515	412
6	0	0	0	0	517	413
7	0	0	0	0	517	412
8	0	0	0	0	518	412
9	0	0	0	0	518	413
10	0	0	0	0	518	413
11	0	0	0	0	519	412
12	0	0	0	0	519	412
13	0	0	0	0	519	412
14	0	0	0	0	519	412
15	0	0	0	0	519	412
0	0	0	0	0	519	413
1	0	0	0	0	518	413
2	0	0	0	0	517	413
3	0	0	0	0	517	412
4	0	0	0	0	517	413
5	0	0	0	0	517	413
6	0	0	0	0	516	413
7	0	0	0	0	516	412
8	0	0	0	0	516	414
9	0	0	0	0	516	413
10	0	0	0	0	516	414
11	0	0	0	0	516	413
12	0	0	0	0	516	413
13	0	0	0	0	515	413
14	0	0	0	0	516	413
15	0	0	0	0	515	412
0	0	0	0	0	516	413
1	0	0	0	0	516	414
2	0	0	0	0	516	413
3	0	0	0	0	516	413
4	0	0	0	0	516	413
5	0	0	0	0	516	413
6	0	0	0	0	515	413
7	0	0	0	0	515	412
8	0	0	0	0	515	412
9	0	0	0	0	516	413
10	0	0	0	0	516	412
11	0	0	0	0	516	412
12	0	0	0	0	515	412
13	0	0	0	0	515	413
14	0	0	0	0	515	412
15	0	0	0	0	515	411
0	0	0	0	0	515	412
1	0	0	0	0	515	412
2	0	0	0	0	516	412
3	0	0	0	0	516	412
4	0	0	0	0	515	412
5	0	0	0	0	515	412
6	0	0	0	0	514	411
7	0	0	0	0	513	410
8	0	0	0	0	512	412
9	0	0	0	0	510	412
10	0	0	0	0	510	411
11	0	0	0	0	508	412
12	0	0	0	0	508	411
13	0	0	0	0	508	411
14	0	0	0	0	508	411
15	0	0	0	0	509	410
0	0	0	0	0	509	411
1	0	0	0	0	509	411
2	0	0	0	0	509	411
3	0	0	0	0	510	411
4	0	0	0	0	511	411
5	0	0	0	0	512	411
6	0	0	0	0	512	411
7	0	0	0	0	511	410
8	0	0	0	0	512	411
9	0	0	0	0	512	411
10	0	0	0	0	512	411
11	0	0	0	0	513	411
12	0	0	0	0	513	412
13	0	0	0	0	513	411
14	0	0	0	0	514	411
15	0	0	0	0	514	411
0	0	0	0	0	515	411
1	0	0	0	0	515	411
2	0	0	0	0	516	412
3	0	0	0	0	516	411
4	0	0	0	0	516	411
5	0	0	0	0	517	411
6	0	0	0	0	518	411
7	0	0	0	0	519	410
8	0	0	0	0	519	411
9	0	0	0	0	520	412
10	0	0	0	0	521	412
11	0	0	0	0	521	411
12	0	0	0	0	522	411
13	0	0	0	0	522	411
14	0	0	0	0	523	411
15	0	0	0	0	523	410
0	0	0	0	0	523	411
1	0	0	0	0	523	411
2	0	0	0	0	522	411
3	0	0	0	0	522	411
4	0	0	0	0	522	411
5	0	0	0	0	523	410
6	0	0	0	0	523	411
7	0	0	0	0	523	409
8	0	0	0	0	523	410
9	0	0	0	0	523	411
10	0	0	0	0	523	410
11	0	0	0	0	524	410
12	0	0	0	0	524	410
13	0	0	0	0	523	410
14	0	0	0	0	524	409
15	0	0	0	0	525	409
0	0	0	0	0	524	410
1	0	0	0	0	524	410
2	0	0	0	0	524	409
3	0	0	0	0	523	410
4	0	0	0	0	522	411
5	0	0	0	0	520	410
6	0	0	0	0	519	410
7	0	0	0	0	518	409
8	0	0	0	0	518	411
9	0	0	0	0	518	411
10	0	0	0	0	517	412
11	0	0	0	0	516	411
12	0	0	0	0	516	411
13	0	0	0	0	516	411
14	0	0	0	0	518	412
15	0	0	0	0	518	411
0	0	0	0	0	518	412
1	0	0	0	0	519	412
2	0	0	0	0	519	412
3	0	0	0	0	520	412
4	0	0	0	0	520	412
5	0	0	0	0	521	412
6	0	0	0	0	520	412
7	0	0	0	0	520	412
8	0	0	0	0	520	413
9	0	0	0	0	519	413
10	0	0	0	0	519	412
11	0	0	0	0	519	413
12	0	0	0	0	519	412
13	0	0	0	0	519	412
14	0	0	0	0	519	412
15	0	0	0	0	518	411
0	0	0	0	0	518	412
1	0	0	0	0	518	412
2	0	0	0	0	519	412
3	0	0	0	0	519	411
4	0	0	0	0	520	412
5	0	0	0	0	520	412
6	0	0	0	0	520	412
7	0	0	0	0	520	411
8	0	0	0	0	520	412
9	0	0	0	0	520	412
10	0	0	0	0	519	412
11	0	0	0	0	519	411
12	0	0	0	0	519	411
13	0	0	0	0	519	411
14	0	0	0	0	518	412
15	0	0	0	0	518	411
0	0	0	0	0	517	412
1	0	0	0	0	517	412
2	0	0	0	0	517	412
3	0	0	0	0	517	412
4	0	0	0	0	516	412
5	0	0	0	0	516	412
6	0	0	0	0	516	411
7	0	0	0	0	516	411
8	0	0	0	0	516	412
9	0	0	0	0	516	412
10	0	0	0	0	516	412
11	0	0	0	0	515	412
12	0	0	0	0	514	412
13	0	0	0	0	514	412
14	0	0	0	0	514	412
15	0	0	0	0	513	411
0	0	0	0	0	512	412
1	0	0	0	0	512	412
2	0	0	0	0	511	412
3	0	0	0	0	511	413
4	0	0	0	0	511	412
5	0	0	0	0	512	413
6	0	0	0	0	512	413
7	0	0	0	0	513	412
8	0	0	0	0	513	413
9	0	0	0	0	514	412
10	0	0	0	0	514	413
11	0	0	0	0	515	413
12	0	0	0	0	515	413
13	0	0	0	0	515	413
14	0	0	0	0	515	412
15	0	0	0	0	514	412
0	0	0	0	0	514	412
1	0	0	0	0	513	412
2	0	0	0	0	513	412
3	0	0	0	0	513	413
4	0	0	0	0	512	413
5	0	0	0	0	512	413
6	0	0	0	0	511	412
7	0	0	0	0	511	411
8	0	0	0	0	511	412
9	0	0	0	0	511	413
10	0	0	0	0	511	412
11	0	0	0	0	511	412
12	0	0	0	0	510	413
13	0	0	0	0	509	413
14	0	0	0	0	509	412
15	0	0	0	0	509	411
0	0	0	0	0	509	413
1	0	0	0	0	510	413
2	0	0	0	0	510	413
3	0	0	0	0	510	412
4	0	0	0	0	511	413
5	0	0	0	0	511	413
6	0	0	0	0	511	412
7	0	0	0	0	511	412
8	0	0	0	0	512	413
9	0	0	0	0	511	413
10	0	0	0	0	511	412
11	0	0	0	0	511	413
12	0	0	0	0	510	412
13	0	0	0	0	509	412
14	0	0	0	0	508	413
15	0	0	0	0	507	411
0	0	0	0	0	505	412
1	0	0	0	0	503	412
2	0	0	0	0	500	413
3	0	0	0	0	496	412
4	0	0	0	0	493	413
5	0	0	0	0	489	412
6	0	0	0	0	486	413
7	0	0	0	0	482	412
8	0	0	0	0	478	412
9	0	0	0	0	473	412
10	0	0	0	0	470	413
11	0	0	0	0	467	412
12	0	0	0	0	465	412
13	0	0	0	0	463	412
14	0	0	0	0	464	412
15	0	0	0	0	466	411
0	0	0	0	0	469	411
1	0	0	0	0	472	411
2	0	0	0	0	476	411
3	0	0	0	0	480	411
4	0	0	0	0	487	411
5	0	0	0	0	495	411
6	0	0	0	0	506	411
7	0	0	0	0	518	410
8	0	0	0	0	531	411
9	0	0	0	0	546	411
10	0	0	0	0	560	412
11	0	0	0	0	575	412
12	0	0	0	0	591	412
13	0	0	0	0	607	412
14	0	0	0	0	624	411
15	0	0	0	0	640	410
0	0	0	0	0	655	411
1	0	0	0	0	668	411
2	0	0	0	0	680	411
3	0	0	0	0	689	411
4	0	0	0	0	699	411
5	0	0	0	0	707	411
6	0	0	0	0	714	411
7	0	0	0	0	719	411
8	0	0	0	0	722	411
9	0	0	0	0	724	411
10	0	0	0	0	725	411
11	0	0	0	0	724	411
12	0	0	0	0	723	411
13	0	0	0	0	719	410
14	0	0	0	0	715	410
15	0	0	0	0	708	410
0	0	0	0	0	700	411
1	0	0	0	0	688	410
2	0	0	0	0	675	411
3	0	0	0	0	662	410
4	0	0	0	0	647	410
5	0	0	0	0	632	411
6	0	0	0	0	615	410
7	0	0	0	0	598	409
8	0	0	0	0	581	411
9	0	0	0	0	566	411
10	0	0	0	0	552	410
11	0	0	0	0	541	410
12	0	0	0	0	530	411
13	0	0	0	0	520	410
14	0	0	0	0	512	410
15	0	0	0	0	505	409
0	0	0	0	0	498	411
1	0	0	0	0	492	411
2	0	0	0	0	487	411
3	0	0	0	0	484	411
4	0	0	0	0	481	412
5	0	0	0	0	478	411
6	0	0	0	0	476	412
7	0	0	0	0	473	410
8	0	0	0	0	472	412
9	0	0	0	0	471	412
10	0	0	0	0	469	412
11	0	0	0	0	468	412
12	0	0	0	0	468	413
13	0	0	0	0	467	412
14	0	0	0	0	466	412
15	0	0	0	0	465	411
0	0	0	0	0	465	413
1	0	0	0	0	464	413
2	0	0	0	0	463	412
3	0	0	0	0	463	412
4	0	0	0	0	464	412
5	0	0	0	0	464	412
6	0	0	0	0	464	412
7	0	0	0	0	464	411
8	0	0	0	0	464	412
9	0	0	0	0	464	411
10	0	0	0	0	465	411
11	0	0	0	0	464	412
12	0	0	0	0	464	412
13	0	0	0	0	464	412
14	0	0	0	0	464	412
15	0	0	0	0	463	411
0	0	0	0	0	463	412
1	0	0	0	0	463	412
2	0	0	0	0	463	412
3	0	0	0	0	464	412
4	0	0	0	0	465	411
5	0	0	0	0	466	412
6	0	0	0	0	467	412
7	0	0	0	0	468	411
8	0	0	0	0	468	411
9	0	0	0	0	469	412
10	0	0	0	0	469	412
11	0	0	0	0	470	412
12	0	0	0	0	471	412
13	0	0	0	0	472	412
14	0	0	0	0	473	412
15	0	0	0	0	473	411
0	0	0	0	0	474	412
1	0	0	0	0	474	412
2	0	0	0	0	474	412
3	0	0	0	0	474	412
4	0	0	0	0	474	412
5	0	0	0	0	475	412
6	0	0	0	0	475	412
7	0	0	0	0	475	410
8	0	0	0	0	476	412
9	0	0	0	0	476	412
10	0	0	0	0	477	413
11	0	0	0	0	477	412
12	0	0	0	0	478	413
13	0	0	0	0	479	413
14	0	0	0	0	479	413
15	0	0	0	0	480	412
0	0	0	0	0	480	413
1	0	0	0	0	480	413
2	0	0	0	0	479	413
3	0	0	0	0	480	412
4	0	0	0	0	479	412
5	0	0	0	0	479	412
6	0	0	0	0	478	412
7	0	0	0	0	477	411
8	0	0	0	0	478	412
9	0	0	0	0	478	413
10	0	0	0	0	478	412
11	0	0	0	0	479	412
12	0	0	0	0	480	412
13	0	0	0	0	481	412
14	0	0	0	0	482	413
15	0	0	0	0	483	412
0	0	0	0	0	483	413
1	0	0	0	0	484	412
2	0	0	0	0	485	412
3	0	0	0	0	486	412
4	0	0	0	0	486	413
5	0	0	0	0	486	412
6	0	0	0	0	486	412
7	0	0	0	0	486	411
8	0	0	0	0	487	412
9	0	0	0	0	486	412
10	0	0	0	0	486	412
11	0	0	0	0	486	412
12	0	0	0	0	485	412
13	0	0	0	0	485	412
14	0	0	0	0	486	412
15	0	0	0	0	486	411
0	0	0	0	0	487	412
1	0	0	0	0	487	412
2	0	0	0	0	488	412
3	0	0	0	0	489	412
4	0	0	0	0	490	412
5	0	0	0	0	491	412
6	0	0	0	0	492	412
7	0	0	0	0	492	411
8	0	0	0	0	493	412
9	0	0	0	0	494	412
10	0	0	0	0	495	412
11	0	0	0	0	495	412
12	0	0	0	0	495	412
13	0	0	0	0	495	412
14	0	0	0	0	495	412
15	0	0	0	0	495	411
0	0	0	0	0	495	412
1	0	0	0	0	495	411
2	0	0	0	0	496	411
3	0	0	0	0	497	412
4	0	0	0	0	497	412
5	0	0	0	0	499	412
6	0	0	0	0	499	411
7	0	0	0	0	500	411
8	0	0	0	0	502	412
9	0	0	0	0	502	411
10	0	0	0	0	502	412
11	0	0	0	0	502	412
12	0	0	0	0	502	412
13	0	0	0	0	503	412
14	0	0	0	0	503	412
15	0	0	0	0	503	411
0	0	0	0	0	504	412
1	0	0	0	0	504	412
2	0	0	0	0	505	412
3	0	0	0	0	505	412
4	0	0	0	0	504	413
5	0	0	0	0	504	412
6	0	0	0	0	504	412
7	0	0	0	0	504	411
8	0	0	0	0	504	412
9	0	0	0	0	504	412
10	0	0	0	0	505	412
11	0	0	0	0	506	412
12	0	0	0	0	506	412
13	0	0	0	0	507	412
14	0	0	0	0	507	412
15	0	0	0	0	507	411
0	0	0	0	0	507	412
1	0	0	0	0	507	412
2	0	0	0	0	508	412
3	0	0	0	0	508	412
4	0	0	0	0	508	412
5	0	0	0	0	507	411
6	0	0	0	0	507	411
7	0	0	0	0	506	410
8	0	0	0	0	507	411
9	0	0	0	0	507	411
10	0	0	0	0	508	411
11	0	0	0	0	508	411
12	0	0	0	0	509	411
13	0	0	0	0	509	411
14	0	0	0	0	510	411
15	0	0	0	0	510	410
0	0	0	0	0	511	411
1	0	0	0	0	511	411
2	0	0	0	0	511	411
3	0	0	0	0	512	411
4	0	0	0	0	511	411
5	0	0	0	0	512	412
6	0	0	0	0	512	411
7	0	0	0	0	512	409
8	0	0	0	0	512	411
9	0	0	0	0	512	411
10	0	0	0	0	512	411
11	0	0	0	0	513	411
12	0	0	0	0	514	411
13	0	0	0	0	514	412
14	0	0	0	0	516	411
15	0	0	0	0	516	411
0	0	0	0	0	517	411
1	0	0	0	0	517	411
2	0	0	0	0	518	411
3	0	0	0	0	518	411
4	0	0	0	0	519	411
5	0	0	0	0	519	412
6	0	0	0	0	520	411
7	0	0	0	0	521	411
8	0	0	0	0	521	412
9	0	0	0	0	522	412
10	0	0	0	0	523	413
11	0	0	0	0	524	412
12	0	0	0	0	524	412
13	0	0	0	0	524	412
14	0	0	0	0	524	412
15	0	0	0	0	523	410
0	0	0	0	0	523	412
1	0	0	0	0	522	412
2	0	0	0	0	522	412
3	0	0	0	0	523	412
4	0	0	0	0	525	412
5	0	0	0	0	525	411
6	0	0	0	0	525	411
7	0	0	0	0	526	411
8	0	0	0	0	526	412
9	0	0	0	0	527	411
10	0	0	0	0	527	411
11	0	0	0	0	528	411
12	0	0	0	0	529	412
13	0	0	0	0	529	411
14	0	0	0	0	529	411
15	0	0	0	0	529	410
0	0	0	0	0	529	411
1	0	0	0	0	529	412
2	0	0	0	0	529	412
3	0	0	0	0	529	412
4	0	0	0	0	528	412
5	0	0	0	0	528	411
6	0	0	0	0	528	412
7	0	0	0	0	529	411
8	0	0	0	0	530	411
9	0	0	0	0	530	412
10	0	0	0	0	531	412
11	0	0	0	0	531	412
12	0	0	0	0	532	412
13	0	0	0	0	533	411
14	0	0	0	0	534	411
15	0	0	0	0	535	411
0	0	0	0	0	536	411
1	0	0	0	0	536	412
2	0	0	0	0	535	412
3	0	0	0	0	536	412
4	0	0	0	0	536	412
5	0	0	0	0	535	412
6	0	0	0	0	534	412
7	0	0	0	0	534	411
8	0	0	0	0	534	413
9	0	0	0	0	534	413
10	0	0	0	0	533	413
11	0	0	0	0	533	412
12	0	0	0	0	533	413
13	0	0	0	0	533	413
14	0	0	0	0	532	413
15	0	0	0	0	532	412
0	0	0	0	0	532	413
1	0	0	0	0	532	413
2	0	0	0	0	531	413
3	0	0	0	0	530	413
4	0	0	0	0	529	413
5	0	0	0	0	529	412
6	0	0	0	0	527	413
7	0	0	0	0	527	411
8	0	0	0	0	526	412
9	0	0	0	0	524	412
10	0	0	0	0	523	412
11	0	0	0	0	522	413
12	0	0	0	0	521	412
13	0	0	0	0	519	412
14	0	0	0	0	518	412
15	0	0	0	0	517	411
0	0	0	0	0	516	413
1	0	0	0	0	515	413
2	0	0	0	0	515	413
3	0	0	0	0	513	412
4	0	0	0	0	513	412
5	0	0	0	0	511	413
6	0	0	0	0	510	412
7	0	0	0	0	510	411
8	0	0	0	0	508	412
9	0	0	0	0	507	412
10	0	0	0	0	506	412
11	0	0	0	0	504	412
12	0	0	0	0	503	413
13	0	0	0	0	501	413
14	0	0	0	0	500	413
15	0	0	0	0	499	412
0	0	0	0	0	498	412
1	0	0	0	0	497	413
2	0	0	0	0	496	412
3	0	0	0	0	495	412
4	0	0	0	0	494	412
5	0	0	0	0	493	412
6	0	0	0	0	493	413
7	0	0	0	0	492	412
8	0	0	0	0	491	413
9	0	0	0	0	489	412
10	0	0	0	0	488	412
11	0	0	0	0	487	412
12	0	0	0	0	486	412
13	0	0	0	0	485	413
14	0	0	0	0	485	412
15	0	0	0	0	484	411
0	0	0	0	0	484	412
1	0	0	0	0	483	412
2	0	0	0	0	483	412
3	0	0	0	0	483	412
4	0	0	0	0	482	412
5	0	0	0	0	481	412
6	0	0	0	0	481	412
7	0	0	0	0	481	411
8	0	0	0	0	481	412
9	0	0	0	0	481	412
10	0	0	0	0	482	412
11	0	0	0	0	483	412
12	0	0	0	0	483	412
13	0	0	0	0	483	411
14	0	0	0	0	483	411
15	0	0	0	0	484	410
0	0	0	0	0	485	412
1	0	0	0	0	486	411
2	0	0	0	0	486	411
3	0	0	0	0	486	411
4	0	0	0	0	487	411
5	0	0	0	0	486	410
6	0	0	0	0	486	411
7	0	0	0	0	485	409
8	0	0	0	0	485	410
9	0	0	0	0	485	410
10	0	0	0	0	484	410
11	0	0	0	0	485	410
12	0	0	0	0	485	411
13	0	0	0	0	485	411
14	0	0	0	0	486	411
15	0	0	0	0	486	410
0	0	0	0	0	487	411
1	0	0	0	0	487	411
2	0	0	0	0	487	411
3	0	0	0	0	488	411
4	0	0	0	0	487	411
5	0	0	0	0	488	411
6	0	0	0	0	488	411
7	0	0	0	0	489	409
8	0	0	0	0	489	411
9	0	0	0	0	489	411
10	0	0	0	0	488	412
11	0	0	0	0	488	411
12	0	0	0	0	488	411
13	0	0	0	0	489	411
14	0	0	0	0	489	411
15	0	0	0	0	490	410
0	0	0	0	0	491	411
1	0	0	0	0	491	411
2	0	0	0	0	491	411
3	0	0	0	0	491	411
4	0	0	0	0	492	411
5	0	0	0	0	492	411
6	0	0	0	0	492	411
7	0	0	0	0	491	411
8	0	0	0	0	491	412
9	0	0	0	0	491	412
10	0	0	0	0	492	411
11	0	0	0	0	492	411
12	0	0	0	0	492	411
13	0	0	0	0	492	411
14	0	0	0	0	493	412
15	0	0	0	0	493	410
0	0	0	0	0	493	412
1	0	0	0	0	491	411
2	0	0	0	0	492	411
3	0	0	0	0	492	411
4	0	0	0	0	492	412
5	0	0	0	0	492	411
6	0	0	0	0	492	411
7	0	0	0	0	493	411
8	0	0	0	0	494	412
9	0	0	0	0	494	412
10	0	0	0	0	494	411
11	0	0	0	0	494	412
12	0	0	0	0	494	412
13	0	0	0	0	494	412
14	0	0	0	0	494	412
15	0	0	0	0	494	411
0	0	0	0	0	494	412
1	0	0	0	0	493	412
2	0	0	0	0	493	412
3	0	0	0	0	493	412
4	0	0	0	0	493	412
5	0	0	0	0	492	412
6	0	0	0	0	493	411
7	0	0	0	0	493	411
8	0	0	0	0	493	412
9	0	0	0	0	493	412
10	0	0	0	0	494	412
11	0	0	0	0	494	412
12	0	0	0	0	495	412
13	0	0	0	0	496	412
14	0	0	0	0	496	412
15	0	0	0	0	496	411
0	0	0	0	0	497	412
1	0	0	0	0	497	413
2	0	0	0	0	497	412
3	0	0	0	0	497	412
4	0	0	0	0	497	412
5	0	0	0	0	497	412
6	0	0	0	0	496	412
7	0	0	0	0	496	412
8	0	0	0	0	496	413
9	0	0	0	0	495	413
10	0	0	0	0	495	413
11	0	0	0	0	496	413
12	0	0	0	0	495	413
13	0	0	0	0	495	413
14	0	0	0	0	495	413
15	0	0	0	0	494	412
0	0	0	0	0	494	412
1	0	0	0	0	494	413
2	0	0	0	0	495	413
3	0	0	0	0	496	413
4	0	0	0	0	497	413
5	0	0	0	0	496	413
6	0	0	0	0	496	413
7	0	0	0	0	496	412
8	0	0	0	0	496	414
9	0	0	0	0	496	414
10	0	0	0	0	496	414
11	0	0	0	0	496	414
12	0	0	0	0	495	414
13	0	0	0	0	494	414
14	0	0	0	0	494	413
15	0	0	0	0	493	413
0	0	0	0	0	494	413
1	0	0	0	0	493	414
2	0	0	0	0	493	414
3	0	0	0	0	494	414
4	0	0	0	0	494	414
5	0	0	0	0	495	413
6	0	0	0	0	496	413
7	0	0	0	0	496	412
8	0	0	0	0	497	414
9	0	0	0	0	498	413
10	0	0	0	0	499	414
11	0	0	0	0	499	413
12	0	0	0	0	499	414
13	0	0	0	0	500	413
14	0	0	0	0	500	413
15	0	0	0	0	500	412
0	0	0	0	0	500	412
1	0	0	0	0	499	412
2	0	0	0	0	499	412
3	0	0	0	0	499	412
4	0	0	0	0	499	412
5	0	0	0	0	499	413
6	0	0	0	0	499	412
7	0	0	0	0	499	411
8	0	0	0	0	500	412
9	0	0	0	0	500	412
10	0	0	0	0	502	412
11	0	0	0	0	503	412
12	0	0	0	0	502	412
13	0	0	0	0	503	412
14	0	0	0	0	503	411
15	0	0	0	0	503	410
0	0	0	0	0	502	411
1	0	0	0	0	502	411
2	0	0	0	0	502	411
3	0	0	0	0	501	411
4	0	0	0	0	500	411
5	0	0	0	0	500	411
6	0	0	0	0	500	411
7	0	0	0	0	500	409
8	0	0	0	0	500	411
9	0	0	0	0	500	411
10	0	0	0	0	501	411
11	0	0	0	0	501	411
12	0	0	0	0	502	411
13	0	0	0	0	502	411
14	0	0	0	0	502	411
15	0	0	0	0	501	410
0	0	0	0	0	500	411
1	0	0	0	0	500	411
2	0	0	0	0	500	411
3	0	0	0	0	499	411
4	0	0	0	0	500	412
5	0	0	0	0	500	412
6	0	0	0	0	500	411
7	0	0	0	0	500	410
8	0	0	0	0	501	411
9	0	0	0	0	501	411
10	0	0	0	0	501	411
11	0	0	0	0	502	410
12	0	0	0	0	503	410
13	0	0	0	0	503	411
14	0	0	0	0	504	410
15	0	0	0	0	504	409
0	0	0	0	0	505	411
1	0	0	0	0	505	410
2	0	0	0	0	505	410
3	0	0	0	0	505	411
4	0	0	0	0	505	410
5	0	0	0	0	505	410
6	0	0	0	0	506	410
7	0	0	0	0	506	409
8	0	0	0	0	507	410
9	0	0	0	0	507	410
10	0	0	0	0	507	410
11	0	0	0	0	505	409
12	0	0	0	0	505	410
13	0	0	0	0	504	410
14	0	0	0	0	504	410
15	0	0	0	0	503	409
0	0	0	0	0	504	410
1	0	0	0	0	503	410
2	0	0	0	0	504	411
3	0	0	0	0	505	411
4	0	0	0	0	505	411
5	0	0	0	0	505	411
6	0	0	0	0	505	411
7	0	0	0	0	505	410
8	0	0	0	0	506	411
9	0	0	0	0	507	411
10	0	0	0	0	507	411
11	0	0	0	0	507	411
12	0	0	0	0	508	411
13	0	0	0	0	507	411
14	0	0	0	0	507	411
15	0	0	0	0	507	410
0	0	0	0	0	507	412
1	0	0	0	0	506	412
2	0	0	0	0	506	412
3	0	0	0	0	506	412
4	0	0	0	0	507	412
5	0	0	0	0	508	412
6	0	0	0	0	508	412
7	0	0	0	0	508	411
8	0	0	0	0	509	412
9	0	0	0	0	509	412
10	0	0	0	0	509	413
11	0	0	0	0	509	412
12	0	0	0	0	509	412
13	0	0	0	0	509	413
14	0	0	0	0	510	412
15	0	0	0	0	510	412
0	0	0	0	0	511	412
1	0	0	0	0	510	413
2	0	0	0	0	509	412
3	0	0	0	0	508	413
4	0	0	0	0	509	412
5	0	0	0	0	508	413
6	0	0	0	0	508	413
7	0	0	0	0	508	412
8	0	0	0	0	508	413
9	0	0	0	0	508	413
10	0	0	0	0	509	413
11	0	0	0	0	509	413
12	0	0	0	0	510	414
13	0	0	0	0	511	413
14	0	0	0	0	511	413
15	0	0	0	0	511	413
0	0	0	0	0	512	414
1	0	0	0	0	512	413
2	0	0	0	0	513	414
3	0	0	0	0	512	414
4	0	0	0	0	512	413
5	0	0	0	0	511	414
6	0	0	0	0	511	413
7	0	0	0	0	510	412
8	0	0	0	0	510	413
9	0	0	0	0	509	412
10	0	0	0	0	510	413
11	0	0	0	0	510	413
12	0	0	0	0	510	413
13	0	0	0	0	510	412
14	0	0	0	0	510	412
15	0	0	0	0	510	412
0	0	0	0	0	510	413
1	0	0	0	0	510	413
2	0	0	0	0	510	413
3	0	0	0	0	510	412
4	0	0	0	0	510	412
5	0	0	0	0	510	412
6	0	0	0	0	510	412
7	0	0	0	0	511	412
8	0	0	0	0	511	413
9	0	0	0	0	511	412
10	0	0	0	0	511	412
11	0	0	0	0	510	412
12	0	0	0	0	509	412
13	0	0	0	0	509	413
14	0	0	0	0	509	412
15	0	0	0	0	509	412
0	0	0	0	0	509	412
1	0	0	0	0	509	413
2	0	0	0	0	509	412
3	0	0	0	0	509	412
4	0	0	0	0	509	412
5	0	0	0	0	509	412
6	0	0	0	0	509	412
7	0	0	0	0	509	411
8	0	0	0	0	509	412
9	0	0	0	0	510	412
10	0	0	0	0	510	412
11	0	0	0	0	511	412
12	0	0	0	0	512	412
13	0	0	0	0	512	412
14	0	0	0	0	512	412
15	0	0	0	0	511	411
0	0	0	0	0	511	412
1	0	0	0	0	511	411
2	0	0	0	0	512	411
3	0	0	0	0	513	412
4	0	0	0	0	514	411
5	0	0	0	0	515	411
6	0	0	0	0	515	411
7	0	0	0	0	515	410
8	0	0	0	0	515	411
9	0	0	0	0	515	411
10	0	0	0	0	515	412
11	0	0	0	0	515	411
12	0	0	0	0	515	412
13	0	0	0	0	515	412
14	0	0	0	0	515	411
15	0	0	0	0	515	410
0	0	0	0	0	515	411
1	0	0	0	0	514	411
2	0	0	0	0	514	411
3	0	0	0	0	514	411
4	0	0	0	0	513	411
5	0	0	0	0	513	411
6	0	0	0	0	513	411
7	0	0	0	0	513	410
8	0	0	0	0	513	412
9	0	0	0	0	514	411
10	0	0	0	0	514	411
11	0	0	0	0	514	411
12	0	0	0	0	515	412
13	0	0	0	0	514	411
14	0	0	0	0	514	412
15	0	0	0	0	514	411
0	0	0	0	0	514	412
1	0	0	0	0	513	411
2	0	0	0	0	513	411
3	0	0	0	0	513	411
4	0	0	0	0	512	410
5	0	0	0	0	512	411
6	0	0	0	0	512	410
7	0	0	0	0	512	409
8	0	0	0	0	512	410
9	0	0	0	0	512	410
10	0	0	0	0	512	410
11	0	0	0	0	512	411
12	0	0	0	0	512	410
13	0	0	0	0	513	410
14	0	0	0	0	512	410
15	0	0	0	0	512	409
0	0	0	0	0	512	409
1	0	0	0	0	512	410
2	0	0	0	0	512	410
3	0	0	0	0	512	410
4	0	0	0	0	511	410
5	0	0	0	0	511	409
6	0	0	0	0	512	411
7	0	0	0	0	513	409
8	0	0	0	0	513	411
9	0	0	0	0	513	411
10	0	0	0	0	513	411
11	0	0	0	0	512	410
12	0	0	0	0	512	410
13	0	0	0	0	512	410
14	0	0	0	0	512	409
15	0	0	0	0	512	408
0	0	0	0	0	512	409
1	0	0	0	0	512	410
2	0	0	0	0	513	411
3	0	0	0	0	513	410
4	0	0	0	0	513	410
5	0	0	0	0	514	410
6	0	0	0	0	515	410
7	0	0	0	0	515	410
8	0	0	0	0	516	412
9	0	0	0	0	516	412
10	0	0	0	0	515	411
11	0	0	0	0	515	412
12	0	0	0	0	515	412
13	0	0	0	0	514	412
14	0	0	0	0	514	412
15	0	0	0	0	513	411
0	0	0	0	0	512	412
1	0	0	0	0	512	412
2	0	0	0	0	511	412
3	0	0	0	0	511	412
4	0	0	0	0	511	412
5	0	0	0	0	511	412
6	0	0	0	0	511	412
7	0	0	0	0	511	411
8	0	0	0	0	512	412
9	0	0	0	0	511	412
10	0	0	0	0	511	412
11	0	0	0	0	511	412
12	0	0	0	0	510	412
13	0	0	0	0	511	411
14	0	0	0	0	510	411
15	0	0	0	0	511	410
0	0	0	0	0	511	412
1	0	0	0	0	510	411
2	0	0	0	0	510	411
3	0	0	0	0	509	411
4	0	0	0	0	509	411
5	0	0	0	0	509	412
6	0	0	0	0	508	412
7	0	0	0	0	508	411
8	0	0	0	0	508	411
9	0	0	0	0	508	412
10	0	0	0	0	509	412
11	0	0	0	0	508	412
12	0	0	0	0	508	411
13	0	0	0	0	507	412
14	0	0	0	0	507	411
15	0	0	0	0	507	411
0	0	0	0	0	507	411
1	0	0	0	0	507	412
2	0	0	0	0	508	412
3	0	0	0	0	509	412
4	0	0	0	0	510	412
5	0	0	0	0	511	412
6	0	0	0	0	511	411
7	0	0	0	0	512	411
8	0	0	0	0	512	412
9	0	0	0	0	513	412
10	0	0	0	0	515	412
11	0	0	0	0	515	412
12	0	0	0	0	515	412
13	0	0	0	0	515	412
14	0	0	0	0	516	413
15	0	0	0	0	517	411
0	0	0	0	0	518	413
1	0	0	0	0	518	413
2	0	0	0	0	518	413
3	0	0	0	0	519	413
4	0	0	0	0	519	413
5	0	0	0	0	520	414
6	0	0	0	0	521	413
7	0	0	0	0	522	412
8	0	0	0	0	522	414
9	0	0	0	0	523	413
10	0	0	0	0	522	414
11	0	0	0	0	523	414
12	0	0	0	0	523	413
13	0	0	0	0	523	413
14	0	0	0	0	523	413
15	0	0	0	0	523	412
0	0	0	0	0	523	414
1	0	0	0	0	522	413
2	0	0	0	0	522	413
3	0	0	0	0	522	413
4	0	0	0	0	522	413
5	0	0	0	0	521	413
6	0	0	0	0	521	412
7	0	0	0	0	521	412
8	0	0	0	0	520	413
9	0	0	0	0	520	413
10	0	0	0	0	520	412
11	0	0	0	0	520	412
12	0	0	0	0	521	412
13	0	0	0	0	522	412
14	0	0	0	0	521	413
15	0	0	0	0	521	411
0	0	0	0	0	520	413
1	0	0	0	0	520	412
2	0	0	0	0	519	412
3	0	0	0	0	519	412
4	0	0	0	0	519	412
5	0	0	0	0	519	411
6	0	0	0	0	519	412
7	0	0	0	0	519	410
8	0	0	0	0	520	412
9	0	0	0	0	519	412
10	0	0	0	0	519	412
11	0	0	0	0	519	412
12	0	0	0	0	518	412
13	0	0	0	0	517	412
14	0	0	0	0	517	412
15	0	0	0	0	517	411
0	0	0	0	0	517	412
1	0	0	0	0	517	412
2	0	0	0	0	516	412
3	0	0	0	0	515	412
4	0	0	0	0	514	412
5	0	0	0	0	513	412
6	0	0	0	0	512	411
7	0	0	0	0	512	411
8	0	0	0	0	511	411
9	0	0	0	0	510	411
10	0	0	0	0	511	411
11	0	0	0	0	511	411
12	0	0	0	0	513	412
13	0	0	0	0	515	411
14	0	0	0	0	515	411
15	0	0	0	0	515	410
0	0	0	0	0	515	411
1	0	0	0	0	515	412
2	0	0	0	0	515	411
3	0	0	0	0	514	411
4	0	0	0	0	514	411
5	0	0	0	0	513	412
6	0	0	0	0	513	411
7	0	0	0	0	513	410
8	0	0	0	0	513	411
9	0	0	0	0	513	411
10	0	0	0	0	512	411
11	0	0	0	0	513	411
12	0	0	0	0	513	411
13	0	0	0	0	513	411
14	0	0	0	0	513	411
15	0	0	0	0	514	410
0	0	0	0	0	514	411
1	0	0	0	0	514	411
2	0	0	0	0	514	411
3	0	0	0	0	514	411
4	0	0	0	0	514	411
5	0	0	0	0	514	411
6	0	0	0	0	514	411
7	0	0	0	0	514	409
8	0	0	0	0	513	411
9	0	0	0	0	513	411
10	0	0	0	0	513	411
11	0	0	0	0	513	410
12	0	0	0	0	513	410
13	0	0	0	0	513	411
14	0	0	0	0	512	410
15	0	0	0	0	512	408
0	0	0	0	0	512	410
1	0	0	0	0	511	410
2	0	0	0	0	511	410
3	0	0	0	0	511	410
4	0	0	0	0	511	410
5	0	0	0	0	511	411
6	0	0	0	0	511	410
7	0	0	0	0	511	409
8	0	0	0	0	511	411
9	0	0	0	0	511	411
10	0	0	0	0	511	411
11	0	0	0	0	511	411
12	0	0	0	0	511	411
13	0	0	0	0	510	411
14	0	0	0	0	510	411
15	0	0	0	0	509	410
0	0	0	0	0	508	411
1	0	0	0	0	508	411
2	0	0	0	0	507	411
3	0	0	0	0	507	411
4	0	0	0	0	507	411
5	0	0	0	0	507	412
6	0	0	0	0	508	412
7	0	0	0	0	507	411
8	0	0	0	0	507	412
9	0	0	0	0	508	412
10	0	0	0	0	509	412
11	0	0	0	0	509	412
12	0	0	0	0	510	412
13	0	0	0	0	510	412
14	0	0	0	0	510	412
15	0	0	0	0	510	411
0	0	0	0	0	511	413
1	0	0	0	0	510	412
2	0	0	0	0	510	412
3	0	0	0	0	509	412
4	0	0	0	0	508	412
5	0	0	0	0	507	412
6	0	0	0	0	507	412
7	0	0	0	0	507	412
8	0	0	0	0	507	413
9	0	0	0	0	507	413
10	0	0	0	0	507	413
11	0	0	0	0	507	413
12	0	0	0	0	507	413
13	0	0	0	0	505	413
14	0	0	0	0	503	413
15	0	0	0	0	500	413
0	0	0	0	0	497	413
1	0	0	0	0	492	413
2	0	0	0	0	489	414
3	0	0	0	0	485	414
4	0	0	0	0	481	414
5	0	0	0	0	477	414
6	0	0	0	0	474	414
7	0	0	0	0	471	413
8	0	0	0	0	469	413
9	0	0	0	0	468	414
10	0	0	0	0	468	414
11	0	0	0	0	469	414
12	0	0	0	0	472	414
13	0	0	0	0	475	414
14	0	0	0	0	478	415
15	0	0	0	0	483	413
0	0	0	0	0	489	415
1	0	0	0	0	497	415
2	0	0	0	0	508	415
3	0	0	0	0	520	414
4	0	0	0	0	534	414
5	0	0	0	0	546	415
6	0	0	0	0	560	414
7	0	0	0	0	574	413
8	0	0	0	0	590	413
9	0	0	0	0	605	413
10	0	0	0	0	621	414
11	0	0	0	0	637	413
12	0	0	0	0	651	414
13	0	0	0	0	663	414
14	0	0	0	0	675	413
15	0	0	0	0	686	413
0	0	0	0	0	696	413
1	0	0	0	0	705	413
2	0	0	0	0	714	413
3	0	0	0	0	720	413
4	0	0	0	0	725	413
5	0	0	0	0	728	412
6	0	0	0	0	728	413
7	0	0	0	0	728	412
8	0	0	0	0	726	413
9	0	0	0	0	723	412
10	0	0	0	0	717	412
11	0	0	0	0	711	412
12	0	0	0	0	703	412
13	0	0	0	0	691	412
14	0	0	0	0	679	411
15	0	0	0	0	667	411
0	0	0	0	0	653	411
1	0	0	0	0	638	412
2	0	0	0	0	622	412
3	0	0	0	0	606	411
4	0	0	0	0	588	412
5	0	0	0	0	572	411
6	0	0	0	0	559	411
7	0	0	0	0	546	411
8	0	0	0	0	536	412
9	0	0	0	0	526	412
10	0	0	0	0	517	411
11	0	0	0	0	509	412
12	0	0	0	0	502	411
13	0	0	0	0	495	411
14	0	0	0	0	489	411
15	0	0	0	0	485	410
0	0	0	0	0	482	411
1	0	0	0	0	479	411
2	0	0	0	0	476	411
3	0	0	0	0	474	411
4	0	0	0	0	473	410
5	0	0	0	0	472	411
6	0	0	0	0	470	411
7	0	0	0	0	470	410
8	0	0	0	0	469	410
9	0	0	0	0	468	410
10	0	0	0	0	467	410
11	0	0	0	0	466	411
12	0	0	0	0	466	409
13	0	0	0	0	465	410
14	0	0	0	0	464	410
15	0	0	0	0	462	409
0	0	0	0	0	461	411
1	0	0	0	0	460	410
2	0	0	0	0	460	409
3	0	0	0	0	460	410
4	0	0	0	0	460	411
5	0	0	0	0	461	410
6	0	0	0	0	461	410
7	0	0	0	0	461	408
8	0	0	0	0	462	410
9	0	0	0	0	463	409
10	0	0	0	0	463	410
11	0	0	0	0	464	409
12	0	0	0	0	464	409
13	0	0	0	0	465	409
14	0	0	0	0	465	409
15	0	0	0	0	466	408
0	0	0	0	0	466	409
1	0	0	0	0	466	409
2	0	0	0	0	466	410
3	0	0	0	0	467	409
4	0	0	0	0	468	410
5	0	0	0	0	468	409
6	0	0	0	0	467	410
7	0	0	0	0	468	408
8	0	0	0	0	470	410
9	0	0	0	0	471	410
10	0	0	0	0	472	411
11	0	0	0	0	471	411
12	0	0	0	0	471	411
13	0	0	0	0	472	411
14	0	0	0	0	471	411
15	0	0	0	0	472	410
0	0	0	0	0	472	412
1	0	0	0	0	472	412
2	0	0	0	0	472	411
3	0	0	0	0	473	412
4	0	0	0	0	473	411
5	0	0	0	0	473	411
6	0	0	0	0	474	411
7	0	0	0	0	476	410
8	0	0	0	0	477	412
9	0	0	0	0	478	411
10	0	0	0	0	479	412
11	0	0	0	0	480	412
12	0	0	0	0	480	412
13	0	0	0	0	480	412
14	0	0	0	0	482	413
15	0	0	0	0	482	412
0	0	0	0	0	482	412
1	0	0	0	0	483	412
2	0	0	0	0	483	413
3	0	0	0	0	484	413
4	0	0	0	0	484	413
5	0	0	0	0	484	413
6	0	0	0	0	484	413
7	0	0	0	0	484	412
8	0	0	0	0	485	414
9	0	0	0	0	486	413
10	0	0	0	0	486	413
11	0	0	0	0	487	414
12	0	0	0	0	487	414
13	0	0	0	0	487	414
14	0	0	0	0	487	414
15	0	0	0	0	487	412
0	0	0	0	0	488	414
1	0	0	0	0	488	414
2	0	0	0	0	488	414
3	0	0	0	0	488	414
4	0	0	0	0	488	414
5	0	0	0	0	489	414
6	0	0	0	0	489	414
7	0	0	0	0	489	412
8	0	0	0	0	489	414
9	0	0	0	0	489	415
10	0	0	0	0	490	414
11	0	0	0	0	490	414
12	0	0	0	0	491	414
13	0	0	0	0	491	414
14	0	0	0	0	491	414
15	0	0	0	0	492	413
0	0	0	0	0	493	414
1	0	0	0	0	493	413
2	0	0	0	0	493	414
3	0	0	0	0	494	413
4	0	0	0	0	493	413
5	0	0	0	0	493	413
6	0	0	0	0	493	414
7	0	0	0	0	493	413
8	0	0	0	0	493	414
9	0	0	0	0	494	414
10	0	0	0	0	494	414
11	0	0	0	0	495	414
12	0	0	0	0	496	413
13	0	0	0	0	496	413
14	0	0	0	0	497	414
15	0	0	0	0	497	413
0	0	0	0	0	498	413
1	0	0	0	0	499	412
2	0	0	0	0	500	413
3	0	0	0	0	501	412
4	0	0	0	0	500	412
5	0	0	0	0	501	412
6	0	0	0	0	500	412
7	0	0	0	0	500	411
8	0	0	0	0	501	412
9	0	0	0	0	500	412
10	0	0	0	0	500	412
11	0	0	0	0	500	411
12	0	0	0	0	500	412
13	0	0	0	0	500	412
14	0	0	0	0	500	411
15	0	0	0	0	500	410
0	0	0	0	0	501	412
1	0	0	0	0	500	411
2	0	0	0	0	501	410
3	0	0	0	0	502	410
4	0	0	0	0	503	410
5	0	0	0	0	503	410
6	0	0	0	0	504	411
7	0	0	0	0	503	409
8	0	0	0	0	504	410
9	0	0	0	0	504	409
10	0	0	0	0	504	408
11	0	0	0	0	505	408
12	0	0	0	0	505	408
13	0	0	0	0	505	408
14	0	0	0	0	507	407
15	0	0	0	0	507	407
0	0	0	0	0	507	407
1	0	0	0	0	507	408
2	0	0	0	0	507	407
3	0	0	0	0	507	408
4	0	0	0	0	507	408
5	0	0	0	0	506	408
6	0	0	0	0	507	407
7	0	0	0	0	507	406
8	0	0	0	0	508	408
9	0	0	0	0	508	408
10	0	0	0	0	510	409
11	0	0	0	0	510	409
12	0	0	0	0	511	408
13	0	0	0	0	511	409
14	0	0	0	0	512	408
15	0	0	0	0	512	408
0	0	0	0	0	513	409
1	0	0	0	0	513	409
2	0	0	0	0	513	410
3	0	0	0	0	513	409
4	0	0	0	0	514	410
5	0	0	0	0	515	410
6	0	0	0	0	515	410
7	0	0	0	0	515	409
8	0	0	0	0	516	410
9	0	0	0	0	517	411
10	0	0	0	0	518	410
11	0	0	0	0	519	411
12	0	0	0	0	520	411
13	0	0	0	0	521	411
14	0	0	0	0	522	411
15	0	0	0	0	523	411
0	0	0	0	0	524	412
1	0	0	0	0	524	412
2	0	0	0	0	524	411
3	0	0	0	0	525	411
4	0	0	0	0	526	412
5	0	0	0	0	526	412
6	0	0	0	0	526	412
7	0	0	0	0	526	411
8	0	0	0	0	527	412
9	0	0	0	0	527	412
10	0	0	0	0	528	413
11	0	0	0	0	529	412
12	0	0	0	0	530	412
13	0	0	0	0	531	413
14	0	0	0	0	532	412
15	0	0	0	0	533	412
0	0	0	0	0	533	413
1	0	0	0	0	534	412
2	0	0	0	0	534	412
3	0	0	0	0	536	413
4	0	0	0	0	536	413
5	0	0	0	0	536	413
6	0	0	0	0	536	412
7	0	0	0	0	536	412
8	0	0	0	0	536	412
9	0	0	0	0	537	413
10	0	0	0	0	539	412
11	0	0	0	0	538	413
12	0	0	0	0	537	413
13	0	0	0	0	537	414
14	0	0	0	0	537	414
15	0	0	0	0	537	413
0	0	0	0	0	538	414
1	0	0	0	0	539	413
2	0	0	0	0	539	413
3	0	0	0	0	539	414
4	0	0	0	0	539	414
5	0	0	0	0	540	415
6	0	0	0	0	540	414
7	0	0	0	0	541	413
8	0	0	0	0	541	415
9	0	0	0	0	542	415
10	0	0	0	0	542	416
11	0	0	0	0	543	415
12	0	0	0	0	543	414
13	0	0	0	0	544	415
14	0	0	0	0	544	415
15	0	0	0	0	543	414
0	0	0	0	0	543	415
1	0	0	0	0	542	415
2	0	0	0	0	542	415
3	0	0	0	0	541	414
4	0	0	0	0	541	415
5	0	0	0	0	541	415
6	0	0	0	0	541	413
7	0	0	0	0	540	413
8	0	0	0	0	539	415
9	0	0	0	0	538	414
10	0	0	0	0	538	414
11	0	0	0	0	537	414
12	0	0	0	0	536	415
13	0	0	0	0	536	414
14	0	0	0	0	535	414
15	0	0	0	0	535	412
0	0	0	0	0	535	414
1	0	0	0	0	534	414
2	0	0	0	0	532	413
3	0	0	0	0	531	413
4	0	0	0	0	530	414
5	0	0	0	0	529	413
6	0	0	0	0	528	413
7	0	0	0	0	526	412
8	0	0	0	0	525	413
9	0	0	0	0	524	413
10	0	0	0	0	524	413
11	0	0	0	0	523	413
12	0	0	0	0	522	412
13	0	0	0	0	521	412
14	0	0	0	0	521	412
15	0	0	0	0	521	411
0	0	0	0	0	520	412
1	0	0	0	0	519	412
2	0	0	0	0	518	412
3	0	0	0	0	516	412
4	0	0	0	0	515	412
5	0	0	0	0	514	412
6	0	0	0	0	512	411
7	0	0	0	0	511	410
8	0	0	0	0	509	411
9	0	0	0	0	508	411
10	0	0	0	0	507	411
11	0	0	0	0	506	411
12	0	0	0	0	505	411
13	0	0	0	0	504	410
14	0	0	0	0	502	410
15	0	0	0	0	501	409
0	0	0	0	0	501	411
1	0	0	0	0	501	410
2	0	0	0	0	500	410
3	0	0	0	0	500	409
4	0	0	0	0	499	409
5	0	0	0	0	499	409
6	0	0	0	0	498	409
7	0	0	0	0	497	408
8	0	0	0	0	497	409
9	0	0	0	0	495	409
10	0	0	0	0	495	409
11	0	0	0	0	495	410
12	0	0	0	0	495	409
13	0	0	0	0	494	409
14	0	0	0	0	493	409
15	0	0	0	0	493	408
0	0	0	0	0	493	409
1	0	0	0	0	492	409
2	0	0	0	0	492	409
3	0	0	0	0	492	409
4	0	0	0	0	491	409
5	0	0	0	0	491	408
6	0	0	0	0	491	409
7	0	0	0	0	492	407
8	0	0	0	0	492	409
9	0	0	0	0	492	409
10	0	0	0	0	492	408
11	0	0	0	0	492	408
12	0	0	0	0	492	408
13	0	0	0	0	492	408
14	0	0	0	0	492	408
15	0	0	0	0	492	408
0	0	0	0	0	492	409
1	0	0	0	0	492	409
2	0	0	0	0	492	409
3	0	0	0	0	492	409
4	0	0	0	0	492	409
5	0	0	0	0	492	409
6	0	0	0	0	492	410
7	0	0	0	0	493	409
8	0	0	0	0	494	410
9	0	0	0	0	495	411
10	0	0	0	0	495	410
11	0	0	0	0	494	411
12	0	0	0	0	494	411
13	0	0	0	0	495	411
14	0	0	0	0	495	411
15	0	0	0	0	494	410
0	0	0	0	0	494	412
1	0	0	0	0	493	412
2	0	0	0	0	493	411
3	0	0	0	0	493	412
4	0	0	0	0	493	411
5	0	0	0	0	493	413
6	0	0	0	0	492	412
7	0	0	0	0	492	412
8	0	0	0	0	493	413
9	0	0	0	0	493	413
10	0	0	0	0	493	414
11	0	0	0	0	493	413
12	0	0	0	0	493	413
13	0	0	0	0	494	413
14	0	0	0	0	495	413
15	0	0	0	0	495	412
0	0	0	0	0	496	414
1	0	0	0	0	496	414
2	0	0	0	0	497	414
3	0	0	0	0	497	414
4	0	0	0	0	498	415
5	0	0	0	0	497	415
6	0	0	0	0	497	414
7	0	0	0	0	496	413
8	0	0	0	0	496	414
9	0	0	0	0	496	415
10	0	0	0	0	496	415
11	0	0	0	0	496	414
12	0	0	0	0	496	413
13	0	0	0	0	496	414
14	0	0	0	0	496	414
15	0	0	0	0	497	414
0	0	0	0	0	498	415
1	0	0	0	0	499	415
2	0	0	0	0	499	415
3	0	0	0	0	499	415
4	0	0	0	0	499	415
5	0	0	0	0	500	415
6	0	0	0	0	500	415
7	0	0	0	0	501	414
8	0	0	0	0	501	415
9	0	0	0	0	502	415
10	0	0	0	0	502	415
11	0	0	0	0	503	415
12	0	0	0	0	502	415
13	0	0	0	0	502	415
14	0	0	0	0	503	414
15	0	0	0	0	503	414
0	0	0	0	0	503	414
1	0	0	0	0	503	415
2	0	0	0	0	504	414
3	0	0	0	0	504	415
4	0	0	0	0	504	415
5	0	0	0	0	504	415
6	0	0	0	0	503	415
7	0	0	0	0	503	413
8	0	0	0	0	504	414
9	0	0	0	0	503	414
10	0	0	0	0	504	414
11	0	0	0	0	504	414
12	0	0	0	0	505	414
13	0	0	0	0	505	413
14	0	0	0	0	505	414
15	0	0	0	0	505	412
0	0	0	0	0	506	414
1	0	0	0	0	506	413
2	0	0	0	0	507	413
3	0	0	0	0	506	413
4	0	0	0	0	506	413
5	0	0	0	0	507	413
6	0	0	0	0	507	413
7	0	0	0	0	508	411
8	0	0	0	0	508	412
9	0	0	0	0	508	412
10	0	0	0	0	508	412
11	0	0	0	0	508	412
12	0	0	0	0	508	412
13	0	0	0	0	508	412
14	0	0	0	0	508	411
15	0	0	0	0	507	411
0	0	0	0	0	507	411
1	0	0	0	0	506	411
2	0	0	0	0	506	411
3	0	0	0	0	506	411
4	0	0	0	0	507	411
5	0	0	0	0	506	410
6	0	0	0	0	505	410
7	0	0	0	0	504	409
8	0	0	0	0	504	409
9	0	0	0	0	506	409
10	0	0	0	0	508	409
11	0	0	0	0	507	409
12	0	0	0	0	508	409
13	0	0	0	0	508	408
14	0	0	0	0	508	408
15	0	0	0	0	508	407
0	0	0	0	0	508	409
1	0	0	0	0	508	409
2	0	0	0	0	508	408
3	0	0	0	0	509	409
4	0	0	0	0	509	408
5	0	0	0	0	508	408
6	0	0	0	0	508	408
7	0	0	0	0	508	408
8	0	0	0	0	507	408
9	0	0	0	0	507	408
10	0	0	0	0	507	408
11	0	0	0	0	507	409
12	0	0	0	0	507	409
13	0	0	0	0	507	410
14	0	0	0	0	507	410
15	0	0	0	0	508	409
0	0	0	0	0	508	411
1	0	0	0	0	509	411
2	0	0	0	0	510	411
3	0	0	0	0	509	411
4	0	0	0	0	509	411
5	0	0	0	0	509	410
6	0	0	0	0	509	410
7	0	0	0	0	509	409
8	0	0	0	0	509	410
9	0	0	0	0	509	410
10	0	0	0	0	508	410
11	0	0	0	0	508	409
12	0	0	0	0	508	409
13	0	0	0	0	509	409
14	0	0	0	0	509	410
15	0	0	0	0	509	409
0	0	0	0	0	508	409
1	0	0	0	0	508	409
2	0	0	0	0	508	409
3	0	0	0	0	507	409
4	0	0	0	0	507	409
5	0	0	0	0	508	409
6	0	0	0	0	508	409
7	0	0	0	0	508	408
8	0	0	0	0	508	409
9	0	0	0	0	508	409
10	0	0	0	0	508	409
11	0	0	0	0	508	410
12	0	0	0	0	508	410
13	0	0	0	0	507	410
14	0	0	0	0	507	411
15	0	0	0	0	506	409
0	0	0	0	0	505	411
1	0	0	0	0	505	411
2	0	0	0	0	505	411
3	0	0	0	0	505	411
4	0	0	0	0	505	412
5	0	0	0	0	506	412
6	0	0	0	0	506	412
7	0	0	0	0	507	416
8	0	0	0	0	507	412
9	0	0	0	0	507	412
10	0	0	0	0	508	412
11	0	0	0	0	509	406
12	0	0	0	0	510	412
13	0	0	0	0	510	412
14	0	0	0	0	509	413
15	0	0	0	0	509	417
0	0	0	0	0	509	413
1	0	0	0	0	509	413
2	0	0	0	0	509	413
3	0	0	0	0	509	407
4	0	0	0	0	509	413
5	0	0	0	0	510	413
6	0	0	0	0	511	413
7	0	0	0	0	511	418
8	0	0	0	0	512	414
9	0	0	0	0	511	414
10	0	0	0	0	511	414
11	0	0	0	0	510	408
12	0	0	0	0	510	414
13	0	0	0	0	511	414
14	0	0	0	0	510	414
15	0	0	0	0	511	418
0	0	0	0	0	511	414
1	0	0	0	0	511	414
2	0	0	0	0	511	413
3	0	0	0	0	511	408
4	0	0	0	0	511	414
5	0	0	0	0	511	414
6	0	0	0	0	511	414
7	0	0	0	0	511	418
8	0	0	0	0	511	414
9	0	0	0	0	511	414
10	0	0	0	0	512	413
11	0	0	0	0	512	408
12	0	0	0	0	513	413
13	0	0	0	0	513	413
14	0	0	0	0	513	413
15	0	0	0	0	514	418
0	0	0	0	0	514	413
1	0	0	0	0	514	412
2	0	0	0	0	514	412
3	0	0	0	0	515	406
4	0	0	0	0	515	412
5	0	0	0	0	514	412
6	0	0	0	0	514	412
7	0	0	0	0	513	417
8	0	0	0	0	513	412
9	0	0	0	0	512	412
10	0	0	0	0	512	412
11	0	0	0	0	511	407
12	0	0	0	0	511	412
13	0	0	0	0	510	412
14	0	0	0	0	510	413
15	0	0	0	0	510	417
0	0	0	0	0	511	413
1	0	0	0	0	512	412
2	0	0	0	0	512	412
3	0	0	0	0	513	407
4	0	0	0	0	513	412
5	0	0	0	0	513	412
6	0	0	0	0	512	412
7	0	0	0	0	512	417
8	0	0	0	0	512	412
9	0	0	0	0	512	412
10	0	0	0	0	512	412
11	0	0	0	0	512	407
12	0	0	0	0	512	413
13	0	0	0	0	511	413
14	0	0	0	0	510	412
15	0	0	0	0	508	416
0	0	0	0	0	508	412
1	0	0	0	0	508	412
2	0	0	0	0	508	412
3	0	0	0	0	507	406
4	0	0	0	0	507	412
5	0	0	0	0	508	412
6	0	0	0	0	510	412
7	0	0	0	0	511	417
8	0	0	0	0	512	412
9	0	0	0	0	511	412
10	0	0	0	0	511	412
11	0	0	0	0	511	406
12	0	0	0	0	511	411
13	0	0	0	0	512	411
14	0	0	0	0	512	412
15	0	0	0	0	512	416
0	0	0	0	0	513	411
1	0	0	0	0	514	412
2	0	0	0	0	514	411
3	0	0	0	0	514	405
4	0	0	0	0	514	412
5	0	0	0	0	513	411
6	0	0	0	0	513	411
7	0	0	0	0	512	415
8	0	0	0	0	513	411
9	0	0	0	0	512	411
10	0	0	0	0	512	410
11	0	0	0	0	513	405
12	0	0	0	0	514	411
13	0	0	0	0	514	411
14	0	0	0	0	514	410
15	0	0	0	0	514	414
0	0	0	0	0	515	410
1	0	0	0	0	515	410
2	0	0	0	0	515	410
3	0	0	0	0	515	404
4	0	0	0	0	514	410
5	0	0	0	0	513	409
6	0	0	0	0	513	410
7	0	0	0	0	512	414
8	0	0	0	0	512	408
9	0	0	0	0	513	409
10	0	0	0	0	513	409
11	0	0	0	0	513	403
12	0	0	0	0	513	409
13	0	0	0	0	513	409
14	0	0	0	0	513	409
15	0	0	0	0	514	414
0	0	0	0	0	514	409
1	0	0	0	0	513	409
2	0	0	0	0	512	409
3	0	0	0	0	513	403
4	0	0	0	0	512	409
5	0	0	0	0	512	411
6	0	0	0	0	512	411
7	0	0	0	0	512	415
8	0	0	0	0	512	411
9	0	0	0	0	512	411
10	0	0	0	0	511	410
11	0	0	0	0	511	404
12	0	0	0	0	511	411
13	0	0	0	0	511	411
14	0	0	0	0	511	411
15	0	0	0	0	511	416
0	0	0	0	0	511	412
1	0	0	0	0	511	412
2	0	0	0	0	512	412
3	0	0	0	0	511	406
4	0	0	0	0	511	412
5	0	0	0	0	512	412
6	0	0	0	0	511	412
7	0	0	0	0	512	417
8	0	0	0	0	512	412
9	0	0	0	0	511	413
10	0	0	0	0	512	413
11	0	0	0	0	512	407
12	0	0	0	0	512	412
13	0	0	0	0	512	413
14	0	0	0	0	511	413
15	0	0	0	0	510	417
0	0	0	0	0	510	413
1	0	0	0	0	510	413
2	0	0	0	0	509	412
3	0	0	0	0	510	406
4	0	0	0	0	510	412
5	0	0	0	0	510	412
6	0	0	0	0	510	412
7	0	0	0	0	510	417
