# OpenSignals Text File Format. Version 1
# {"98:D3:91:FD:69:48": {"position": 0, "device": "bitalino_rev", "device name": "98:D3:91:FD:69:48", "device connection": "BTH98:D3:91:FD:69:48", "sampling rate": 1000, "resolution": [4, 1, 1, 1, 1, 10, 10], "firmware version": 1281, "comments": "", "keywords": "", "mode": 0, "sync interval": 2, "date": "2021-9-19", "time": "15:9:41.634", "channels": [2, 5], "sensor": ["RAW", "RAW"], "label": ["A2", "A5"], "column": ["nSeq", "I1", "I2", "O1", "O2", "A2", "A5"], "special": [{}, {}], "digital IO": [0, 0, 1, 1], "convertedValues": 0}}
# EndOfHeader
0	0	0	0	0	470	420	
1	0	0	0	0	475	420	
2	0	0	0	0	483	419	
3	0	0	0	0	494	419	
4	0	0	0	0	507	419	
5	0	0	0	0	523	419	
6	0	0	0	0	543	419	
7	0	0	0	0	563	419	
8	0	0	0	0	581	419	
9	0	0	0	0	598	419	
10	0	0	0	0	613	419	
11	0	0	0	0	628	419	
12	0	0	0	0	646	418	
13	0	0	0	0	663	419	
14	0	0	0	0	678	418	
15	0	0	0	0	690	418	
0	0	0	0	0	699	419	
1	0	0	0	0	708	418	
2	0	0	0	0	716	418	
3	0	0	0	0	723	419	
4	0	0	0	0	731	419	
5	0	0	0	0	736	419	
6	0	0	0	0	738	419	
7	0	0	0	0	738	418	
8	0	0	0	0	736	419	
9	0	0	0	0	733	419	
10	0	0	0	0	727	419	
11	0	0	0	0	717	420	
12	0	0	0	0	706	419	
13	0	0	0	0	692	419	
14	0	0	0	0	679	419	
15	0	0	0	0	665	418	
0	0	0	0	0	651	419	
1	0	0	0	0	636	419	
2	0	0	0	0	620	418	
3	0	0	0	0	606	420	
4	0	0	0	0	591	419	
5	0	0	0	0	578	419	
6	0	0	0	0	568	419	
7	0	0	0	0	556	419	
8	0	0	0	0	547	419	
9	0	0	0	0	538	419	
10	0	0	0	0	531	419	
11	0	0	0	0	524	420	
12	0	0	0	0	516	419	
13	0	0	0	0	510	419	
14	0	0	0	0	504	419	
15	0	0	0	0	497	419	
0	0	0	0	0	490	419	
1	0	0	0	0	484	419	
2	0	0	0	0	477	420	
3	0	0	0	0	472	420	
4	0	0	0	0	467	419	
5	0	0	0	0	462	419	
6	0	0	0	0	456	419	
7	0	0	0	0	452	419	
8	0	0	0	0	449	419	
9	0	0	0	0	447	419	
10	0	0	0	0	446	419	
11	0	0	0	0	445	420	
12	0	0	0	0	445	419	
13	0	0	0	0	446	419	
14	0	0	0	0	446	419	
15	0	0	0	0	446	418	
0	0	0	0	0	446	419	
1	0	0	0	0	446	419	
2	0	0	0	0	444	419	
3	0	0	0	0	443	420	
4	0	0	0	0	441	419	
5	0	0	0	0	441	418	
6	0	0	0	0	442	418	
7	0	0	0	0	442	418	
8	0	0	0	0	442	418	
9	0	0	0	0	443	418	
10	0	0	0	0	444	418	
11	0	0	0	0	444	419	
12	0	0	0	0	444	418	
13	0	0	0	0	444	419	
14	0	0	0	0	443	418	
15	0	0	0	0	443	418	
0	0	0	0	0	444	418	
1	0	0	0	0	445	418	
2	0	0	0	0	446	418	
3	0	0	0	0	446	419	
4	0	0	0	0	446	418	
5	0	0	0	0	447	417	
6	0	0	0	0	447	418	
7	0	0	0	0	447	418	
8	0	0	0	0	447	417	
9	0	0	0	0	448	418	
10	0	0	0	0	449	418	
11	0	0	0	0	449	418	
12	0	0	0	0	450	418	
13	0	0	0	0	452	418	
14	0	0	0	0	453	418	
15	0	0	0	0	455	418	
0	0	0	0	0	456	418	
1	0	0	0	0	457	418	
2	0	0	0	0	458	419	
3	0	0	0	0	458	419	
4	0	0	0	0	459	418	
5	0	0	0	0	458	418	
6	0	0	0	0	459	417	
7	0	0	0	0	459	418	
8	0	0	0	0	458	418	
9	0	0	0	0	458	418	
10	0	0	0	0	459	418	
11	0	0	0	0	459	419	
12	0	0	0	0	461	418	
13	0	0	0	0	462	418	
14	0	0	0	0	463	418	
15	0	0	0	0	463	418	
0	0	0	0	0	463	418	
1	0	0	0	0	464	418	
2	0	0	0	0	464	418	
3	0	0	0	0	466	419	
4	0	0	0	0	467	419	
5	0	0	0	0	467	418	
6	0	0	0	0	468	418	
7	0	0	0	0	468	418	
8	0	0	0	0	470	419	
9	0	0	0	0	470	419	
10	0	0	0	0	469	418	
11	0	0	0	0	468	419	
12	0	0	0	0	467	418	
13	0	0	0	0	467	419	
14	0	0	0	0	467	418	
15	0	0	0	0	467	417	
0	0	0	0	0	467	418	
1	0	0	0	0	467	418	
2	0	0	0	0	468	418	
3	0	0	0	0	470	419	
4	0	0	0	0	472	418	
5	0	0	0	0	474	418	
6	0	0	0	0	475	418	
7	0	0	0	0	476	418	
8	0	0	0	0	476	419	
9	0	0	0	0	476	419	
10	0	0	0	0	476	419	
11	0	0	0	0	476	420	
12	0	0	0	0	476	419	
13	0	0	0	0	476	419	
14	0	0	0	0	477	419	
15	0	0	0	0	478	419	
0	0	0	0	0	479	419	
1	0	0	0	0	480	419	
2	0	0	0	0	480	419	
3	0	0	0	0	481	419	
4	0	0	0	0	482	419	
5	0	0	0	0	481	419	
6	0	0	0	0	481	419	
7	0	0	0	0	482	419	
8	0	0	0	0	483	419	
9	0	0	0	0	484	419	
10	0	0	0	0	483	419	
11	0	0	0	0	483	419	
12	0	0	0	0	482	419	
13	0	0	0	0	480	419	
14	0	0	0	0	480	419	
15	0	0	0	0	479	418	
0	0	0	0	0	480	419	
1	0	0	0	0	480	419	
2	0	0	0	0	480	419	
3	0	0	0	0	480	419	
4	0	0	0	0	481	418	
5	0	0	0	0	483	418	
6	0	0	0	0	484	418	
7	0	0	0	0	485	419	
8	0	0	0	0	486	419	
9	0	0	0	0	489	419	
10	0	0	0	0	489	419	
11	0	0	0	0	487	419	
12	0	0	0	0	483	419	
13	0	0	0	0	481	419	
14	0	0	0	0	480	419	
15	0	0	0	0	478	418	
0	0	0	0	0	477	418	
1	0	0	0	0	476	418	
2	0	0	0	0	474	419	
3	0	0	0	0	474	419	
4	0	0	0	0	474	419	
5	0	0	0	0	474	419	
6	0	0	0	0	475	419	
7	0	0	0	0	476	418	
8	0	0	0	0	477	419	
9	0	0	0	0	478	418	
10	0	0	0	0	480	419	
11	0	0	0	0	480	420	
12	0	0	0	0	479	419	
13	0	0	0	0	477	419	
14	0	0	0	0	475	419	
15	0	0	0	0	475	419	
0	0	0	0	0	476	418	
1	0	0	0	0	478	419	
2	0	0	0	0	478	419	
3	0	0	0	0	479	419	
4	0	0	0	0	480	418	
5	0	0	0	0	482	419	
6	0	0	0	0	484	418	
7	0	0	0	0	485	419	
8	0	0	0	0	485	419	
9	0	0	0	0	484	419	
10	0	0	0	0	484	419	
11	0	0	0	0	484	420	
12	0	0	0	0	485	419	
13	0	0	0	0	486	419	
14	0	0	0	0	487	419	
15	0	0	0	0	486	418	
0	0	0	0	0	484	419	
1	0	0	0	0	483	419	
2	0	0	0	0	483	419	
3	0	0	0	0	483	420	
4	0	0	0	0	484	419	
5	0	0	0	0	484	419	
6	0	0	0	0	485	419	
7	0	0	0	0	486	419	
8	0	0	0	0	487	419	
9	0	0	0	0	488	419	
10	0	0	0	0	489	419	
11	0	0	0	0	490	420	
12	0	0	0	0	490	419	
13	0	0	0	0	492	419	
14	0	0	0	0	492	419	
15	0	0	0	0	492	419	
0	0	0	0	0	491	419	
1	0	0	0	0	490	419	
2	0	0	0	0	489	419	
3	0	0	0	0	490	419	
4	0	0	0	0	492	419	
5	0	0	0	0	492	419	
6	0	0	0	0	492	419	
7	0	0	0	0	492	418	
8	0	0	0	0	493	419	
9	0	0	0	0	493	419	
10	0	0	0	0	494	419	
11	0	0	0	0	495	419	
12	0	0	0	0	496	419	
13	0	0	0	0	496	419	
14	0	0	0	0	496	419	
15	0	0	0	0	496	418	
0	0	0	0	0	496	419	
1	0	0	0	0	497	419	
2	0	0	0	0	498	419	
3	0	0	0	0	500	419	
4	0	0	0	0	501	418	
5	0	0	0	0	501	418	
6	0	0	0	0	502	418	
7	0	0	0	0	503	417	
8	0	0	0	0	504	419	
9	0	0	0	0	505	419	
10	0	0	0	0	505	419	
11	0	0	0	0	506	419	
12	0	0	0	0	507	418	
13	0	0	0	0	508	418	
14	0	0	0	0	509	418	
15	0	0	0	0	510	417	
0	0	0	0	0	510	418	
1	0	0	0	0	510	418	
2	0	0	0	0	510	418	
3	0	0	0	0	508	419	
4	0	0	0	0	507	418	
5	0	0	0	0	507	418	
6	0	0	0	0	508	418	
7	0	0	0	0	507	418	
8	0	0	0	0	507	419	
9	0	0	0	0	507	418	
10	0	0	0	0	506	418	
11	0	0	0	0	507	419	
12	0	0	0	0	507	418	
13	0	0	0	0	507	419	
14	0	0	0	0	508	418	
15	0	0	0	0	508	417	
0	0	0	0	0	509	418	
1	0	0	0	0	509	418	
2	0	0	0	0	509	417	
3	0	0	0	0	509	418	
4	0	0	0	0	510	418	
5	0	0	0	0	510	419	
6	0	0	0	0	509	419	
7	0	0	0	0	509	418	
8	0	0	0	0	509	418	
9	0	0	0	0	510	419	
10	0	0	0	0	510	419	
11	0	0	0	0	510	419	
12	0	0	0	0	512	419	
13	0	0	0	0	512	418	
14	0	0	0	0	514	418	
15	0	0	0	0	514	419	
0	0	0	0	0	514	418	
1	0	0	0	0	515	418	
2	0	0	0	0	516	419	
3	0	0	0	0	516	419	
4	0	0	0	0	518	419	
5	0	0	0	0	518	418	
6	0	0	0	0	518	419	
7	0	0	0	0	519	418	
8	0	0	0	0	519	419	
9	0	0	0	0	520	419	
10	0	0	0	0	519	419	
11	0	0	0	0	519	419	
12	0	0	0	0	519	418	
13	0	0	0	0	519	419	
14	0	0	0	0	519	419	
15	0	0	0	0	518	417	
0	0	0	0	0	518	418	
1	0	0	0	0	518	419	
2	0	0	0	0	519	418	
3	0	0	0	0	520	419	
4	0	0	0	0	521	418	
5	0	0	0	0	521	419	
6	0	0	0	0	521	419	
7	0	0	0	0	521	418	
8	0	0	0	0	520	418	
9	0	0	0	0	519	418	
10	0	0	0	0	519	418	
11	0	0	0	0	519	419	
12	0	0	0	0	519	419	
13	0	0	0	0	519	419	
14	0	0	0	0	519	419	
15	0	0	0	0	519	418	
0	0	0	0	0	521	419	
1	0	0	0	0	521	419	
2	0	0	0	0	521	419	
3	0	0	0	0	521	420	
4	0	0	0	0	521	419	
5	0	0	0	0	521	419	
6	0	0	0	0	521	419	
7	0	0	0	0	521	419	
8	0	0	0	0	520	419	
9	0	0	0	0	520	419	
10	0	0	0	0	519	419	
11	0	0	0	0	519	420	
12	0	0	0	0	519	419	
13	0	0	0	0	520	419	
14	0	0	0	0	520	419	
15	0	0	0	0	521	419	
0	0	0	0	0	521	419	
1	0	0	0	0	521	419	
2	0	0	0	0	520	419	
3	0	0	0	0	521	420	
4	0	0	0	0	521	419	
5	0	0	0	0	521	420	
6	0	0	0	0	519	420	
7	0	0	0	0	518	419	
8	0	0	0	0	518	420	
9	0	0	0	0	518	420	
10	0	0	0	0	519	420	
11	0	0	0	0	520	420	
12	0	0	0	0	521	420	
13	0	0	0	0	521	419	
14	0	0	0	0	521	419	
15	0	0	0	0	521	419	
0	0	0	0	0	521	419	
1	0	0	0	0	520	419	
2	0	0	0	0	519	419	
3	0	0	0	0	519	419	
4	0	0	0	0	520	419	
5	0	0	0	0	519	419	
6	0	0	0	0	519	419	
7	0	0	0	0	518	418	
8	0	0	0	0	518	419	
9	0	0	0	0	519	419	
10	0	0	0	0	519	419	
11	0	0	0	0	520	420	
12	0	0	0	0	520	419	
13	0	0	0	0	521	419	
14	0	0	0	0	521	419	
15	0	0	0	0	521	419	
0	0	0	0	0	521	419	
1	0	0	0	0	520	419	
2	0	0	0	0	519	420	
3	0	0	0	0	518	419	
4	0	0	0	0	518	419	
5	0	0	0	0	517	419	
6	0	0	0	0	517	419	
7	0	0	0	0	517	419	
8	0	0	0	0	516	420	
9	0	0	0	0	516	419	
10	0	0	0	0	516	419	
11	0	0	0	0	517	419	
12	0	0	0	0	516	419	
13	0	0	0	0	516	419	
14	0	0	0	0	516	419	
15	0	0	0	0	515	419	
0	0	0	0	0	514	420	
1	0	0	0	0	513	419	
2	0	0	0	0	513	420	
3	0	0	0	0	513	421	
4	0	0	0	0	512	419	
5	0	0	0	0	512	419	
6	0	0	0	0	512	419	
7	0	0	0	0	513	420	
8	0	0	0	0	514	420	
9	0	0	0	0	514	420	
10	0	0	0	0	513	419	
11	0	0	0	0	512	420	
12	0	0	0	0	513	419	
13	0	0	0	0	515	419	
14	0	0	0	0	516	419	
15	0	0	0	0	516	418	
0	0	0	0	0	518	419	
1	0	0	0	0	518	419	
2	0	0	0	0	518	419	
3	0	0	0	0	517	420	
4	0	0	0	0	516	419	
5	0	0	0	0	515	419	
6	0	0	0	0	515	419	
7	0	0	0	0	515	419	
8	0	0	0	0	514	419	
9	0	0	0	0	513	419	
10	0	0	0	0	514	419	
11	0	0	0	0	514	419	
12	0	0	0	0	514	419	
13	0	0	0	0	514	418	
14	0	0	0	0	514	419	
15	0	0	0	0	514	418	
0	0	0	0	0	514	418	
1	0	0	0	0	515	418	
2	0	0	0	0	515	418	
3	0	0	0	0	515	419	
4	0	0	0	0	516	418	
5	0	0	0	0	516	419	
6	0	0	0	0	516	418	
7	0	0	0	0	515	417	
8	0	0	0	0	515	418	
9	0	0	0	0	515	417	
10	0	0	0	0	515	417	
11	0	0	0	0	515	419	
12	0	0	0	0	514	418	
13	0	0	0	0	514	418	
14	0	0	0	0	514	418	
15	0	0	0	0	514	417	
0	0	0	0	0	515	417	
1	0	0	0	0	516	417	
2	0	0	0	0	515	417	
3	0	0	0	0	515	418	
4	0	0	0	0	514	418	
5	0	0	0	0	515	417	
6	0	0	0	0	515	417	
7	0	0	0	0	514	417	
8	0	0	0	0	514	418	
9	0	0	0	0	514	417	
10	0	0	0	0	514	417	
11	0	0	0	0	514	419	
12	0	0	0	0	514	418	
13	0	0	0	0	514	418	
14	0	0	0	0	514	418	
15	0	0	0	0	513	418	
0	0	0	0	0	513	418	
1	0	0	0	0	515	418	
2	0	0	0	0	517	418	
3	0	0	0	0	519	419	
4	0	0	0	0	522	418	
5	0	0	0	0	524	418	
6	0	0	0	0	524	419	
7	0	0	0	0	524	418	
8	0	0	0	0	524	419	
9	0	0	0	0	523	419	
10	0	0	0	0	521	419	
11	0	0	0	0	520	419	
12	0	0	0	0	519	419	
13	0	0	0	0	518	419	
14	0	0	0	0	517	418	
15	0	0	0	0	516	418	
0	0	0	0	0	515	418	
1	0	0	0	0	515	418	
2	0	0	0	0	516	418	
3	0	0	0	0	515	419	
4	0	0	0	0	515	418	
5	0	0	0	0	515	419	
6	0	0	0	0	515	419	
7	0	0	0	0	517	418	
8	0	0	0	0	518	419	
9	0	0	0	0	518	417	
10	0	0	0	0	519	417	
11	0	0	0	0	519	418	
12	0	0	0	0	519	418	
13	0	0	0	0	519	418	
14	0	0	0	0	519	418	
15	0	0	0	0	521	417	
0	0	0	0	0	522	418	
1	0	0	0	0	522	418	
2	0	0	0	0	523	418	
3	0	0	0	0	523	419	
4	0	0	0	0	523	418	
5	0	0	0	0	524	418	
6	0	0	0	0	523	417	
7	0	0	0	0	523	417	
8	0	0	0	0	523	418	
9	0	0	0	0	523	418	
10	0	0	0	0	521	418	
11	0	0	0	0	519	419	
12	0	0	0	0	519	418	
13	0	0	0	0	519	418	
14	0	0	0	0	518	419	
15	0	0	0	0	519	418	
0	0	0	0	0	520	418	
1	0	0	0	0	521	418	
2	0	0	0	0	521	418	
3	0	0	0	0	521	419	
4	0	0	0	0	520	418	
5	0	0	0	0	518	419	
6	0	0	0	0	516	419	
7	0	0	0	0	515	418	
8	0	0	0	0	515	418	
9	0	0	0	0	515	418	
10	0	0	0	0	516	418	
11	0	0	0	0	518	419	
12	0	0	0	0	518	419	
13	0	0	0	0	517	419	
14	0	0	0	0	517	419	
15	0	0	0	0	518	418	
0	0	0	0	0	517	419	
1	0	0	0	0	517	419	
2	0	0	0	0	517	419	
3	0	0	0	0	516	419	
4	0	0	0	0	517	419	
5	0	0	0	0	518	419	
6	0	0	0	0	518	419	
7	0	0	0	0	517	419	
8	0	0	0	0	517	419	
9	0	0	0	0	516	419	
10	0	0	0	0	516	419	
11	0	0	0	0	515	419	
12	0	0	0	0	514	419	
13	0	0	0	0	512	418	
14	0	0	0	0	512	419	
15	0	0	0	0	512	418	
0	0	0	0	0	512	419	
1	0	0	0	0	512	418	
2	0	0	0	0	512	419	
3	0	0	0	0	513	420	
4	0	0	0	0	514	419	
5	0	0	0	0	513	419	
6	0	0	0	0	512	419	
7	0	0	0	0	511	419	
8	0	0	0	0	512	419	
9	0	0	0	0	512	419	
10	0	0	0	0	512	419	
11	0	0	0	0	512	419	
12	0	0	0	0	512	419	
13	0	0	0	0	513	419	
14	0	0	0	0	515	419	
15	0	0	0	0	516	419	
0	0	0	0	0	518	419	
1	0	0	0	0	519	419	
2	0	0	0	0	519	419	
3	0	0	0	0	519	419	
4	0	0	0	0	519	419	
5	0	0	0	0	518	419	
6	0	0	0	0	518	419	
7	0	0	0	0	518	419	
8	0	0	0	0	519	419	
9	0	0	0	0	521	419	
10	0	0	0	0	523	419	
11	0	0	0	0	524	420	
12	0	0	0	0	525	419	
13	0	0	0	0	526	419	
14	0	0	0	0	526	419	
15	0	0	0	0	526	419	
0	0	0	0	0	525	418	
1	0	0	0	0	524	419	
2	0	0	0	0	524	419	
3	0	0	0	0	523	419	
4	0	0	0	0	522	418	
5	0	0	0	0	522	419	
6	0	0	0	0	523	419	
7	0	0	0	0	525	418	
8	0	0	0	0	526	419	
9	0	0	0	0	526	419	
10	0	0	0	0	527	419	
11	0	0	0	0	525	420	
12	0	0	0	0	524	419	
13	0	0	0	0	524	419	
14	0	0	0	0	525	419	
15	0	0	0	0	526	419	
0	0	0	0	0	527	419	
1	0	0	0	0	527	419	
2	0	0	0	0	528	418	
3	0	0	0	0	528	420	
4	0	0	0	0	530	419	
5	0	0	0	0	530	419	
6	0	0	0	0	531	419	
7	0	0	0	0	531	419	
8	0	0	0	0	530	419	
9	0	0	0	0	528	419	
10	0	0	0	0	526	419	
11	0	0	0	0	524	419	
12	0	0	0	0	523	419	
13	0	0	0	0	522	419	
14	0	0	0	0	520	419	
15	0	0	0	0	519	419	
0	0	0	0	0	518	419	
1	0	0	0	0	517	419	
2	0	0	0	0	517	420	
3	0	0	0	0	518	419	
4	0	0	0	0	519	419	
5	0	0	0	0	519	419	
6	0	0	0	0	519	420	
7	0	0	0	0	520	419	
8	0	0	0	0	520	419	
9	0	0	0	0	519	419	
10	0	0	0	0	519	419	
11	0	0	0	0	519	420	
12	0	0	0	0	518	419	
13	0	0	0	0	517	419	
14	0	0	0	0	515	419	
15	0	0	0	0	514	419	
0	0	0	0	0	513	419	
1	0	0	0	0	512	419	
2	0	0	0	0	511	419	
3	0	0	0	0	511	419	
4	0	0	0	0	510	419	
5	0	0	0	0	509	418	
6	0	0	0	0	510	419	
7	0	0	0	0	510	419	
8	0	0	0	0	511	419	
9	0	0	0	0	511	419	
10	0	0	0	0	510	419	
11	0	0	0	0	510	419	
12	0	0	0	0	511	419	
13	0	0	0	0	511	419	
14	0	0	0	0	510	419	
15	0	0	0	0	510	419	
0	0	0	0	0	509	419	
1	0	0	0	0	509	419	
2	0	0	0	0	508	419	
3	0	0	0	0	507	420	
4	0	0	0	0	507	419	
5	0	0	0	0	508	419	
6	0	0	0	0	507	419	
7	0	0	0	0	508	419	
8	0	0	0	0	507	419	
9	0	0	0	0	508	419	
10	0	0	0	0	507	418	
11	0	0	0	0	507	419	
12	0	0	0	0	506	418	
13	0	0	0	0	507	419	
14	0	0	0	0	508	419	
15	0	0	0	0	508	417	
0	0	0	0	0	507	418	
1	0	0	0	0	506	418	
2	0	0	0	0	506	417	
3	0	0	0	0	505	419	
4	0	0	0	0	504	417	
5	0	0	0	0	504	418	
6	0	0	0	0	505	418	
7	0	0	0	0	505	418	
8	0	0	0	0	504	418	
9	0	0	0	0	505	418	
10	0	0	0	0	505	418	
11	0	0	0	0	504	419	
12	0	0	0	0	504	418	
13	0	0	0	0	505	417	
14	0	0	0	0	506	417	
15	0	0	0	0	507	417	
0	0	0	0	0	507	417	
1	0	0	0	0	506	417	
2	0	0	0	0	506	417	
3	0	0	0	0	505	418	
4	0	0	0	0	504	417	
5	0	0	0	0	504	417	
6	0	0	0	0	504	418	
7	0	0	0	0	504	418	
8	0	0	0	0	504	419	
9	0	0	0	0	504	418	
10	0	0	0	0	504	418	
11	0	0	0	0	503	419	
12	0	0	0	0	502	418	
13	0	0	0	0	500	419	
14	0	0	0	0	498	418	
15	0	0	0	0	495	419	
0	0	0	0	0	491	418	
1	0	0	0	0	486	419	
2	0	0	0	0	482	419	
3	0	0	0	0	478	419	
4	0	0	0	0	473	418	
5	0	0	0	0	470	419	
6	0	0	0	0	467	418	
7	0	0	0	0	464	418	
8	0	0	0	0	461	419	
9	0	0	0	0	459	419	
10	0	0	0	0	456	419	
11	0	0	0	0	454	420	
12	0	0	0	0	452	419	
13	0	0	0	0	452	419	
14	0	0	0	0	451	418	
15	0	0	0	0	452	417	
0	0	0	0	0	453	418	
1	0	0	0	0	454	419	
2	0	0	0	0	455	418	
3	0	0	0	0	455	419	
4	0	0	0	0	457	418	
5	0	0	0	0	460	418	
6	0	0	0	0	464	418	
7	0	0	0	0	471	417	
8	0	0	0	0	480	418	
9	0	0	0	0	491	417	
10	0	0	0	0	507	418	
11	0	0	0	0	526	419	
12	0	0	0	0	549	418	
13	0	0	0	0	570	418	
14	0	0	0	0	590	418	
15	0	0	0	0	610	418	
0	0	0	0	0	631	418	
1	0	0	0	0	652	418	
2	0	0	0	0	674	418	
3	0	0	0	0	695	419	
4	0	0	0	0	712	419	
5	0	0	0	0	726	419	
6	0	0	0	0	737	418	
7	0	0	0	0	746	418	
8	0	0	0	0	754	418	
9	0	0	0	0	760	418	
10	0	0	0	0	764	418	
11	0	0	0	0	765	419	
12	0	0	0	0	764	418	
13	0	0	0	0	762	419	
14	0	0	0	0	757	419	
15	0	0	0	0	751	419	
0	0	0	0	0	741	419	
1	0	0	0	0	730	418	
2	0	0	0	0	716	418	
3	0	0	0	0	701	419	
4	0	0	0	0	685	418	
5	0	0	0	0	669	418	
6	0	0	0	0	652	418	
7	0	0	0	0	636	418	
8	0	0	0	0	620	418	
9	0	0	0	0	606	418	
10	0	0	0	0	591	418	
11	0	0	0	0	577	419	
12	0	0	0	0	564	418	
13	0	0	0	0	551	418	
14	0	0	0	0	540	418	
15	0	0	0	0	530	418	
0	0	0	0	0	522	418	
1	0	0	0	0	514	419	
2	0	0	0	0	507	419	
3	0	0	0	0	499	420	
4	0	0	0	0	493	419	
5	0	0	0	0	487	418	
6	0	0	0	0	482	419	
7	0	0	0	0	476	419	
8	0	0	0	0	471	419	
9	0	0	0	0	467	419	
10	0	0	0	0	463	419	
11	0	0	0	0	461	419	
12	0	0	0	0	458	418	
13	0	0	0	0	456	419	
14	0	0	0	0	453	419	
15	0	0	0	0	449	419	
0	0	0	0	0	446	418	
1	0	0	0	0	444	419	
2	0	0	0	0	443	419	
3	0	0	0	0	444	419	
4	0	0	0	0	442	419	
5	0	0	0	0	441	419	
6	0	0	0	0	441	418	
7	0	0	0	0	440	419	
8	0	0	0	0	441	418	
9	0	0	0	0	441	418	
10	0	0	0	0	441	418	
11	0	0	0	0	441	419	
12	0	0	0	0	441	417	
13	0	0	0	0	441	418	
14	0	0	0	0	441	417	
15	0	0	0	0	440	417	
0	0	0	0	0	441	418	
1	0	0	0	0	442	417	
2	0	0	0	0	442	418	
3	0	0	0	0	442	419	
4	0	0	0	0	442	418	
5	0	0	0	0	443	417	
6	0	0	0	0	443	417	
7	0	0	0	0	444	418	
8	0	0	0	0	445	418	
9	0	0	0	0	447	418	
10	0	0	0	0	448	419	
11	0	0	0	0	450	419	
12	0	0	0	0	451	418	
13	0	0	0	0	453	418	
14	0	0	0	0	455	419	
15	0	0	0	0	455	418	
0	0	0	0	0	454	419	
1	0	0	0	0	454	419	
2	0	0	0	0	453	418	
3	0	0	0	0	454	419	
4	0	0	0	0	455	418	
5	0	0	0	0	458	418	
6	0	0	0	0	460	417	
7	0	0	0	0	461	418	
8	0	0	0	0	463	418	
9	0	0	0	0	464	419	
10	0	0	0	0	465	419	
11	0	0	0	0	467	419	
12	0	0	0	0	467	418	
13	0	0	0	0	467	418	
14	0	0	0	0	467	419	
15	0	0	0	0	468	419	
0	0	0	0	0	468	419	
1	0	0	0	0	470	419	
2	0	0	0	0	470	419	
3	0	0	0	0	470	420	
4	0	0	0	0	471	418	
5	0	0	0	0	472	418	
6	0	0	0	0	472	419	
7	0	0	0	0	472	417	
8	0	0	0	0	473	418	
9	0	0	0	0	474	419	
10	0	0	0	0	474	418	
11	0	0	0	0	473	419	
12	0	0	0	0	472	418	
13	0	0	0	0	471	418	
14	0	0	0	0	471	419	
15	0	0	0	0	472	418	
0	0	0	0	0	472	419	
1	0	0	0	0	473	419	
2	0	0	0	0	472	418	
3	0	0	0	0	472	419	
4	0	0	0	0	474	419	
5	0	0	0	0	475	419	
6	0	0	0	0	477	419	
7	0	0	0	0	478	418	
8	0	0	0	0	478	419	
9	0	0	0	0	479	418	
10	0	0	0	0	479	419	
11	0	0	0	0	479	420	
12	0	0	0	0	479	419	
13	0	0	0	0	479	419	
14	0	0	0	0	480	419	
15	0	0	0	0	480	419	
0	0	0	0	0	480	419	
1	0	0	0	0	481	419	
2	0	0	0	0	481	419	
3	0	0	0	0	481	419	
4	0	0	0	0	480	419	
5	0	0	0	0	480	419	
6	0	0	0	0	480	419	
7	0	0	0	0	480	419	
8	0	0	0	0	479	418	
9	0	0	0	0	478	419	
10	0	0	0	0	478	419	
11	0	0	0	0	478	419	
12	0	0	0	0	479	419	
13	0	0	0	0	480	419	
14	0	0	0	0	480	418	
15	0	0	0	0	480	419	
0	0	0	0	0	480	418	
1	0	0	0	0	480	419	
2	0	0	0	0	480	419	
3	0	0	0	0	480	419	
4	0	0	0	0	480	419	
5	0	0	0	0	481	418	
6	0	0	0	0	482	418	
7	0	0	0	0	483	418	
8	0	0	0	0	483	419	
9	0	0	0	0	484	419	
10	0	0	0	0	485	418	
11	0	0	0	0	484	419	
12	0	0	0	0	484	418	
13	0	0	0	0	484	418	
14	0	0	0	0	483	419	
15	0	0	0	0	482	418	
0	0	0	0	0	482	419	
1	0	0	0	0	481	419	
2	0	0	0	0	482	418	
3	0	0	0	0	483	419	
4	0	0	0	0	484	418	
5	0	0	0	0	485	419	
6	0	0	0	0	486	419	
7	0	0	0	0	485	418	
8	0	0	0	0	484	419	
9	0	0	0	0	486	419	
10	0	0	0	0	486	418	
11	0	0	0	0	486	419	
12	0	0	0	0	486	418	
13	0	0	0	0	486	419	
14	0	0	0	0	485	419	
15	0	0	0	0	484	418	
0	0	0	0	0	483	419	
1	0	0	0	0	483	419	
2	0	0	0	0	483	418	
3	0	0	0	0	484	419	
4	0	0	0	0	485	418	
5	0	0	0	0	485	419	
6	0	0	0	0	484	419	
7	0	0	0	0	483	418	
8	0	0	0	0	482	419	
9	0	0	0	0	481	419	
10	0	0	0	0	482	419	
11	0	0	0	0	483	420	
12	0	0	0	0	483	419	
13	0	0	0	0	483	419	
14	0	0	0	0	484	418	
15	0	0	0	0	485	419	
0	0	0	0	0	486	419	
1	0	0	0	0	486	419	
2	0	0	0	0	485	419	
3	0	0	0	0	484	419	
4	0	0	0	0	484	419	
5	0	0	0	0	484	419	
6	0	0	0	0	484	419	
7	0	0	0	0	483	418	
8	0	0	0	0	483	419	
9	0	0	0	0	484	419	
10	0	0	0	0	485	419	
11	0	0	0	0	485	419	
12	0	0	0	0	486	419	
13	0	0	0	0	487	418	
14	0	0	0	0	487	418	
15	0	0	0	0	487	419	
0	0	0	0	0	487	419	
1	0	0	0	0	488	419	
2	0	0	0	0	491	418	
3	0	0	0	0	492	419	
4	0	0	0	0	494	419	
5	0	0	0	0	495	418	
6	0	0	0	0	495	419	
7	0	0	0	0	495	418	
8	0	0	0	0	496	419	
9	0	0	0	0	496	418	
10	0	0	0	0	497	418	
11	0	0	0	0	499	419	
12	0	0	0	0	500	418	
13	0	0	0	0	499	419	
14	0	0	0	0	497	419	
15	0	0	0	0	495	417	
0	0	0	0	0	495	419	
1	0	0	0	0	495	418	
2	0	0	0	0	496	418	
3	0	0	0	0	496	419	
4	0	0	0	0	496	418	
5	0	0	0	0	498	418	
6	0	0	0	0	500	419	
7	0	0	0	0	501	418	
8	0	0	0	0	502	419	
9	0	0	0	0	504	419	
10	0	0	0	0	506	418	
11	0	0	0	0	508	419	
12	0	0	0	0	509	418	
13	0	0	0	0	510	418	
14	0	0	0	0	510	418	
15	0	0	0	0	511	418	
0	0	0	0	0	511	419	
1	0	0	0	0	512	418	
2	0	0	0	0	513	418	
3	0	0	0	0	514	419	
4	0	0	0	0	513	418	
5	0	0	0	0	514	418	
6	0	0	0	0	514	417	
7	0	0	0	0	513	418	
8	0	0	0	0	513	418	
9	0	0	0	0	513	418	
10	0	0	0	0	513	417	
11	0	0	0	0	514	419	
12	0	0	0	0	515	418	
13	0	0	0	0	516	418	
14	0	0	0	0	516	417	
15	0	0	0	0	517	417	
0	0	0	0	0	517	418	
1	0	0	0	0	518	418	
2	0	0	0	0	519	418	
3	0	0	0	0	519	419	
4	0	0	0	0	520	419	
5	0	0	0	0	519	418	
6	0	0	0	0	518	419	
7	0	0	0	0	518	419	
8	0	0	0	0	519	419	
9	0	0	0	0	520	417	
10	0	0	0	0	521	419	
11	0	0	0	0	522	419	
12	0	0	0	0	524	418	
13	0	0	0	0	524	418	
14	0	0	0	0	524	418	
15	0	0	0	0	522	418	
0	0	0	0	0	520	418	
1	0	0	0	0	519	418	
2	0	0	0	0	519	418	
3	0	0	0	0	519	419	
4	0	0	0	0	519	419	
5	0	0	0	0	519	419	
6	0	0	0	0	519	418	
7	0	0	0	0	519	418	
8	0	0	0	0	520	419	
9	0	0	0	0	520	419	
10	0	0	0	0	521	419	
11	0	0	0	0	521	419	
12	0	0	0	0	522	418	
13	0	0	0	0	523	418	
14	0	0	0	0	525	418	
15	0	0	0	0	525	418	
0	0	0	0	0	526	418	
1	0	0	0	0	527	418	
2	0	0	0	0	527	418	
3	0	0	0	0	527	419	
4	0	0	0	0	526	418	
5	0	0	0	0	525	418	
6	0	0	0	0	525	419	
7	0	0	0	0	526	418	
8	0	0	0	0	527	418	
9	0	0	0	0	527	419	
10	0	0	0	0	527	418	
11	0	0	0	0	527	419	
12	0	0	0	0	528	418	
13	0	0	0	0	528	418	
14	0	0	0	0	528	418	
15	0	0	0	0	527	418	
0	0	0	0	0	527	418	
1	0	0	0	0	525	418	
2	0	0	0	0	524	418	
3	0	0	0	0	524	419	
4	0	0	0	0	524	419	
5	0	0	0	0	526	419	
6	0	0	0	0	528	418	
7	0	0	0	0	529	419	
8	0	0	0	0	529	418	
9	0	0	0	0	529	419	
10	0	0	0	0	529	419	
11	0	0	0	0	527	419	
12	0	0	0	0	527	419	
13	0	0	0	0	527	419	
14	0	0	0	0	528	419	
15	0	0	0	0	529	419	
0	0	0	0	0	528	419	
1	0	0	0	0	527	419	
2	0	0	0	0	526	418	
3	0	0	0	0	526	419	
4	0	0	0	0	525	418	
5	0	0	0	0	525	417	
6	0	0	0	0	525	418	
7	0	0	0	0	527	419	
8	0	0	0	0	529	419	
9	0	0	0	0	531	418	
10	0	0	0	0	534	418	
11	0	0	0	0	535	419	
12	0	0	0	0	535	418	
13	0	0	0	0	534	418	
14	0	0	0	0	533	419	
15	0	0	0	0	532	418	
0	0	0	0	0	532	418	
1	0	0	0	0	532	419	
2	0	0	0	0	532	418	
3	0	0	0	0	532	419	
4	0	0	0	0	532	418	
5	0	0	0	0	532	419	
6	0	0	0	0	531	418	
7	0	0	0	0	529	417	
8	0	0	0	0	527	417	
9	0	0	0	0	526	418	
10	0	0	0	0	525	418	
11	0	0	0	0	524	420	
12	0	0	0	0	524	419	
13	0	0	0	0	523	419	
14	0	0	0	0	524	419	
15	0	0	0	0	524	419	
0	0	0	0	0	523	419	
1	0	0	0	0	523	419	
2	0	0	0	0	523	419	
3	0	0	0	0	523	419	
4	0	0	0	0	524	419	
5	0	0	0	0	524	419	
6	0	0	0	0	524	419	
7	0	0	0	0	524	418	
8	0	0	0	0	524	419	
9	0	0	0	0	524	419	
10	0	0	0	0	523	419	
11	0	0	0	0	523	419	
12	0	0	0	0	523	419	
13	0	0	0	0	523	419	
14	0	0	0	0	522	419	
15	0	0	0	0	521	419	
0	0	0	0	0	521	419	
1	0	0	0	0	521	419	
2	0	0	0	0	521	419	
3	0	0	0	0	521	420	
4	0	0	0	0	521	419	
5	0	0	0	0	521	419	
6	0	0	0	0	520	419	
7	0	0	0	0	519	419	
8	0	0	0	0	519	420	
9	0	0	0	0	519	419	
10	0	0	0	0	518	419	
11	0	0	0	0	519	420	
12	0	0	0	0	519	419	
13	0	0	0	0	520	420	
14	0	0	0	0	519	419	
15	0	0	0	0	518	419	
0	0	0	0	0	517	419	
1	0	0	0	0	516	419	
2	0	0	0	0	514	419	
3	0	0	0	0	513	419	
4	0	0	0	0	513	418	
5	0	0	0	0	513	419	
6	0	0	0	0	515	418	
7	0	0	0	0	515	418	
8	0	0	0	0	516	419	
9	0	0	0	0	516	419	
10	0	0	0	0	516	418	
11	0	0	0	0	516	419	
12	0	0	0	0	516	419	
13	0	0	0	0	515	418	
14	0	0	0	0	514	419	
15	0	0	0	0	513	418	
0	0	0	0	0	513	418	
1	0	0	0	0	514	418	
2	0	0	0	0	514	418	
3	0	0	0	0	515	418	
4	0	0	0	0	515	418	
5	0	0	0	0	513	418	
6	0	0	0	0	512	418	
7	0	0	0	0	513	418	
8	0	0	0	0	514	417	
9	0	0	0	0	515	418	
10	0	0	0	0	515	418	
11	0	0	0	0	515	418	
12	0	0	0	0	514	417	
13	0	0	0	0	513	418	
14	0	0	0	0	513	418	
15	0	0	0	0	513	418	
0	0	0	0	0	512	418	
1	0	0	0	0	511	418	
2	0	0	0	0	511	418	
3	0	0	0	0	511	419	
4	0	0	0	0	510	419	
5	0	0	0	0	510	417	
6	0	0	0	0	509	418	
7	0	0	0	0	509	417	
8	0	0	0	0	509	417	
9	0	0	0	0	510	417	
10	0	0	0	0	510	418	
11	0	0	0	0	511	419	
12	0	0	0	0	511	418	
13	0	0	0	0	512	418	
14	0	0	0	0	513	418	
15	0	0	0	0	512	417	
0	0	0	0	0	512	419	
1	0	0	0	0	512	418	
2	0	0	0	0	511	419	
3	0	0	0	0	511	419	
4	0	0	0	0	510	418	
5	0	0	0	0	510	419	
6	0	0	0	0	510	419	
7	0	0	0	0	510	419	
8	0	0	0	0	509	418	
9	0	0	0	0	509	419	
10	0	0	0	0	509	418	
11	0	0	0	0	510	419	
12	0	0	0	0	509	419	
13	0	0	0	0	508	419	
14	0	0	0	0	508	419	
15	0	0	0	0	508	418	
0	0	0	0	0	509	418	
1	0	0	0	0	509	418	
2	0	0	0	0	509	418	
3	0	0	0	0	509	419	
4	0	0	0	0	509	418	
5	0	0	0	0	509	419	
6	0	0	0	0	509	419	
7	0	0	0	0	509	418	
8	0	0	0	0	509	419	
9	0	0	0	0	509	419	
10	0	0	0	0	509	419	
11	0	0	0	0	510	420	
12	0	0	0	0	510	419	
13	0	0	0	0	510	418	
14	0	0	0	0	510	419	
15	0	0	0	0	509	418	
0	0	0	0	0	509	419	
1	0	0	0	0	509	418	
2	0	0	0	0	509	418	
3	0	0	0	0	508	419	
4	0	0	0	0	507	418	
5	0	0	0	0	507	419	
6	0	0	0	0	508	418	
7	0	0	0	0	508	418	
8	0	0	0	0	507	419	
9	0	0	0	0	507	418	
10	0	0	0	0	506	418	
11	0	0	0	0	506	419	
12	0	0	0	0	507	418	
13	0	0	0	0	508	418	
14	0	0	0	0	509	418	
15	0	0	0	0	510	417	
0	0	0	0	0	510	418	
1	0	0	0	0	511	418	
2	0	0	0	0	511	418	
3	0	0	0	0	511	419	
4	0	0	0	0	510	418	
5	0	0	0	0	509	417	
6	0	0	0	0	509	417	
7	0	0	0	0	508	417	
8	0	0	0	0	508	418	
9	0	0	0	0	507	418	
10	0	0	0	0	505	418	
11	0	0	0	0	505	419	
12	0	0	0	0	504	418	
13	0	0	0	0	503	418	
14	0	0	0	0	502	418	
15	0	0	0	0	502	418	
0	0	0	0	0	502	418	
1	0	0	0	0	504	418	
2	0	0	0	0	505	418	
3	0	0	0	0	505	419	
4	0	0	0	0	505	417	
5	0	0	0	0	506	418	
6	0	0	0	0	506	419	
7	0	0	0	0	506	418	
8	0	0	0	0	506	418	
9	0	0	0	0	506	418	
10	0	0	0	0	506	418	
11	0	0	0	0	505	419	
12	0	0	0	0	504	418	
13	0	0	0	0	502	418	
14	0	0	0	0	500	419	
15	0	0	0	0	500	419	
0	0	0	0	0	501	419	
1	0	0	0	0	501	419	
2	0	0	0	0	501	419	
3	0	0	0	0	500	419	
4	0	0	0	0	500	418	
5	0	0	0	0	500	419	
6	0	0	0	0	500	419	
7	0	0	0	0	499	418	
8	0	0	0	0	499	419	
9	0	0	0	0	496	419	
10	0	0	0	0	495	418	
11	0	0	0	0	494	419	
12	0	0	0	0	495	418	
13	0	0	0	0	496	419	
14	0	0	0	0	497	419	
15	0	0	0	0	498	419	
0	0	0	0	0	499	419	
1	0	0	0	0	501	419	
2	0	0	0	0	504	419	
3	0	0	0	0	506	420	
4	0	0	0	0	507	418	
5	0	0	0	0	508	419	
6	0	0	0	0	509	419	
7	0	0	0	0	510	419	
8	0	0	0	0	512	420	
9	0	0	0	0	512	420	
10	0	0	0	0	512	419	
11	0	0	0	0	512	420	
12	0	0	0	0	512	419	
13	0	0	0	0	511	419	
14	0	0	0	0	510	419	
15	0	0	0	0	508	420	
0	0	0	0	0	507	419	
1	0	0	0	0	506	419	
2	0	0	0	0	505	419	
3	0	0	0	0	506	420	
4	0	0	0	0	507	419	
5	0	0	0	0	509	419	
6	0	0	0	0	510	419	
7	0	0	0	0	512	419	
8	0	0	0	0	512	418	
9	0	0	0	0	512	418	
10	0	0	0	0	513	419	
11	0	0	0	0	514	419	
12	0	0	0	0	515	418	
13	0	0	0	0	515	419	
14	0	0	0	0	516	417	
15	0	0	0	0	517	418	
0	0	0	0	0	517	418	
1	0	0	0	0	517	419	
2	0	0	0	0	516	418	
3	0	0	0	0	516	419	
4	0	0	0	0	515	418	
5	0	0	0	0	515	418	
6	0	0	0	0	515	418	
7	0	0	0	0	515	418	
8	0	0	0	0	516	418	
9	0	0	0	0	515	417	
10	0	0	0	0	514	418	
11	0	0	0	0	513	418	
12	0	0	0	0	512	418	
13	0	0	0	0	511	418	
14	0	0	0	0	509	417	
15	0	0	0	0	508	417	
0	0	0	0	0	507	418	
1	0	0	0	0	506	418	
2	0	0	0	0	506	418	
3	0	0	0	0	506	419	
4	0	0	0	0	506	417	
5	0	0	0	0	507	419	
6	0	0	0	0	507	418	
7	0	0	0	0	507	418	
8	0	0	0	0	507	419	
9	0	0	0	0	508	418	
10	0	0	0	0	508	418	
11	0	0	0	0	508	419	
12	0	0	0	0	507	418	
13	0	0	0	0	507	418	
14	0	0	0	0	506	418	
15	0	0	0	0	505	417	
0	0	0	0	0	504	418	
1	0	0	0	0	503	418	
2	0	0	0	0	502	419	
3	0	0	0	0	503	419	
4	0	0	0	0	504	418	
5	0	0	0	0	504	419	
6	0	0	0	0	504	418	
7	0	0	0	0	503	418	
8	0	0	0	0	503	419	
9	0	0	0	0	503	418	
10	0	0	0	0	503	419	
11	0	0	0	0	503	419	
12	0	0	0	0	503	418	
13	0	0	0	0	503	418	
14	0	0	0	0	503	419	
15	0	0	0	0	503	418	
0	0	0	0	0	503	418	
1	0	0	0	0	503	419	
2	0	0	0	0	503	418	
3	0	0	0	0	503	419	
4	0	0	0	0	503	418	
5	0	0	0	0	504	418	
6	0	0	0	0	503	419	
7	0	0	0	0	503	417	
8	0	0	0	0	504	417	
9	0	0	0	0	504	417	
10	0	0	0	0	505	418	
11	0	0	0	0	505	419	
12	0	0	0	0	504	418	
13	0	0	0	0	505	417	
14	0	0	0	0	504	417	
15	0	0	0	0	503	418	
0	0	0	0	0	503	417	
1	0	0	0	0	503	418	
2	0	0	0	0	503	418	
3	0	0	0	0	503	419	
4	0	0	0	0	502	417	
5	0	0	0	0	501	418	
6	0	0	0	0	500	418	
7	0	0	0	0	499	418	
8	0	0	0	0	499	417	
9	0	0	0	0	499	417	
10	0	0	0	0	499	418	
11	0	0	0	0	499	419	
12	0	0	0	0	497	418	
13	0	0	0	0	496	418	
14	0	0	0	0	496	418	
15	0	0	0	0	497	418	
0	0	0	0	0	498	418	
1	0	0	0	0	501	418	
2	0	0	0	0	503	418	
3	0	0	0	0	504	419	
4	0	0	0	0	505	418	
5	0	0	0	0	506	419	
6	0	0	0	0	507	418	
7	0	0	0	0	506	418	
8	0	0	0	0	505	418	
9	0	0	0	0	506	418	
10	0	0	0	0	506	418	
11	0	0	0	0	506	419	
12	0	0	0	0	506	419	
13	0	0	0	0	505	418	
14	0	0	0	0	504	419	
15	0	0	0	0	501	418	
0	0	0	0	0	499	419	
1	0	0	0	0	496	419	
2	0	0	0	0	492	418	
3	0	0	0	0	487	419	
4	0	0	0	0	482	418	
5	0	0	0	0	478	418	
6	0	0	0	0	474	419	
7	0	0	0	0	470	418	
8	0	0	0	0	466	419	
9	0	0	0	0	464	419	
10	0	0	0	0	462	418	
11	0	0	0	0	461	419	
12	0	0	0	0	459	418	
13	0	0	0	0	458	419	
14	0	0	0	0	458	419	
15	0	0	0	0	458	418	
0	0	0	0	0	458	419	
1	0	0	0	0	457	419	
2	0	0	0	0	458	418	
3	0	0	0	0	459	419	
4	0	0	0	0	459	419	
5	0	0	0	0	459	419	
6	0	0	0	0	461	418	
7	0	0	0	0	463	418	
8	0	0	0	0	467	419	
9	0	0	0	0	476	418	
10	0	0	0	0	487	419	
11	0	0	0	0	500	419	
12	0	0	0	0	515	418	
13	0	0	0	0	535	418	
14	0	0	0	0	556	418	
15	0	0	0	0	575	418	
0	0	0	0	0	594	419	
1	0	0	0	0	613	419	
2	0	0	0	0	633	418	
3	0	0	0	0	654	419	
4	0	0	0	0	675	418	
5	0	0	0	0	695	418	
6	0	0	0	0	711	418	
7	0	0	0	0	725	418	
8	0	0	0	0	735	418	
9	0	0	0	0	744	418	
10	0	0	0	0	754	419	
11	0	0	0	0	763	419	
12	0	0	0	0	768	419	
13	0	0	0	0	771	418	
14	0	0	0	0	772	418	
15	0	0	0	0	771	418	
0	0	0	0	0	767	418	
1	0	0	0	0	760	417	
2	0	0	0	0	751	418	
3	0	0	0	0	739	419	
4	0	0	0	0	724	418	
5	0	0	0	0	708	418	
6	0	0	0	0	691	418	
7	0	0	0	0	673	417	
8	0	0	0	0	654	418	
9	0	0	0	0	636	417	
10	0	0	0	0	619	418	
11	0	0	0	0	605	419	
12	0	0	0	0	591	418	
13	0	0	0	0	578	418	
14	0	0	0	0	567	418	
15	0	0	0	0	556	418	
0	0	0	0	0	545	419	
1	0	0	0	0	536	418	
2	0	0	0	0	527	419	
3	0	0	0	0	519	419	
4	0	0	0	0	511	419	
5	0	0	0	0	503	419	
6	0	0	0	0	495	419	
7	0	0	0	0	487	418	
8	0	0	0	0	481	419	
9	0	0	0	0	476	419	
10	0	0	0	0	472	419	
11	0	0	0	0	469	419	
12	0	0	0	0	465	418	
13	0	0	0	0	462	419	
14	0	0	0	0	459	419	
15	0	0	0	0	456	419	
0	0	0	0	0	453	419	
1	0	0	0	0	451	419	
2	0	0	0	0	449	419	
3	0	0	0	0	447	419	
4	0	0	0	0	446	419	
5	0	0	0	0	445	418	
6	0	0	0	0	444	419	
7	0	0	0	0	443	418	
8	0	0	0	0	444	418	
9	0	0	0	0	444	419	
10	0	0	0	0	446	419	
11	0	0	0	0	446	420	
12	0	0	0	0	446	418	
13	0	0	0	0	447	419	
14	0	0	0	0	448	419	
15	0	0	0	0	449	419	
0	0	0	0	0	450	418	
1	0	0	0	0	451	418	
2	0	0	0	0	451	419	
3	0	0	0	0	451	419	
4	0	0	0	0	451	419	
5	0	0	0	0	452	419	
6	0	0	0	0	452	418	
7	0	0	0	0	452	419	
8	0	0	0	0	452	419	
9	0	0	0	0	452	419	
10	0	0	0	0	453	419	
11	0	0	0	0	454	419	
12	0	0	0	0	454	419	
13	0	0	0	0	454	418	
14	0	0	0	0	453	418	
15	0	0	0	0	453	418	
0	0	0	0	0	453	418	
1	0	0	0	0	453	418	
2	0	0	0	0	454	418	
3	0	0	0	0	455	419	
4	0	0	0	0	455	418	
5	0	0	0	0	456	419	
6	0	0	0	0	457	418	
7	0	0	0	0	459	418	
8	0	0	0	0	461	418	
9	0	0	0	0	462	418	
10	0	0	0	0	462	418	
11	0	0	0	0	462	419	
12	0	0	0	0	461	418	
13	0	0	0	0	460	418	
14	0	0	0	0	461	418	
15	0	0	0	0	461	419	
0	0	0	0	0	462	419	
1	0	0	0	0	463	418	
2	0	0	0	0	466	419	
3	0	0	0	0	468	419	
4	0	0	0	0	468	418	
5	0	0	0	0	468	418	
6	0	0	0	0	468	418	
7	0	0	0	0	469	418	
8	0	0	0	0	470	418	
9	0	0	0	0	471	417	
10	0	0	0	0	472	418	
11	0	0	0	0	472	419	
12	0	0	0	0	474	419	
13	0	0	0	0	474	418	
14	0	0	0	0	474	418	
15	0	0	0	0	474	418	
0	0	0	0	0	475	418	
1	0	0	0	0	474	418	
2	0	0	0	0	474	418	
3	0	0	0	0	474	419	
4	0	0	0	0	474	418	
5	0	0	0	0	475	418	
6	0	0	0	0	475	418	
7	0	0	0	0	476	418	
8	0	0	0	0	476	418	
9	0	0	0	0	476	418	
10	0	0	0	0	476	418	
11	0	0	0	0	477	419	
12	0	0	0	0	477	419	
13	0	0	0	0	478	419	
14	0	0	0	0	479	418	
15	0	0	0	0	479	418	
0	0	0	0	0	479	418	
1	0	0	0	0	481	418	
2	0	0	0	0	481	419	
3	0	0	0	0	481	419	
4	0	0	0	0	481	418	
5	0	0	0	0	480	418	
6	0	0	0	0	480	418	
7	0	0	0	0	480	418	
8	0	0	0	0	480	419	
9	0	0	0	0	481	419	
10	0	0	0	0	480	419	
11	0	0	0	0	481	419	
12	0	0	0	0	481	418	
13	0	0	0	0	481	418	
14	0	0	0	0	482	419	
15	0	0	0	0	482	419	
0	0	0	0	0	483	419	
1	0	0	0	0	483	419	
2	0	0	0	0	483	418	
3	0	0	0	0	483	419	
4	0	0	0	0	484	418	
5	0	0	0	0	485	418	
6	0	0	0	0	485	418	
7	0	0	0	0	485	418	
8	0	0	0	0	485	417	
9	0	0	0	0	484	418	
10	0	0	0	0	483	417	
11	0	0	0	0	482	418	
12	0	0	0	0	481	418	
13	0	0	0	0	480	418	
14	0	0	0	0	480	418	
15	0	0	0	0	481	417	
0	0	0	0	0	480	418	
1	0	0	0	0	481	417	
2	0	0	0	0	481	418	
3	0	0	0	0	481	419	
4	0	0	0	0	480	417	
5	0	0	0	0	479	418	
6	0	0	0	0	480	418	
7	0	0	0	0	481	417	
8	0	0	0	0	481	418	
9	0	0	0	0	481	417	
10	0	0	0	0	483	418	
11	0	0	0	0	483	419	
12	0	0	0	0	483	418	
13	0	0	0	0	483	418	
14	0	0	0	0	484	419	
15	0	0	0	0	484	418	
0	0	0	0	0	485	418	
1	0	0	0	0	484	419	
2	0	0	0	0	484	419	
3	0	0	0	0	483	419	
4	0	0	0	0	483	418	
5	0	0	0	0	481	418	
6	0	0	0	0	481	418	
7	0	0	0	0	481	418	
8	0	0	0	0	481	418	
9	0	0	0	0	482	418	
10	0	0	0	0	483	418	
11	0	0	0	0	483	419	
12	0	0	0	0	483	418	
13	0	0	0	0	483	418	
14	0	0	0	0	483	418	
15	0	0	0	0	483	418	
0	0	0	0	0	482	418	
1	0	0	0	0	481	418	
2	0	0	0	0	480	418	
3	0	0	0	0	479	418	
4	0	0	0	0	479	419	
5	0	0	0	0	479	418	
6	0	0	0	0	479	418	
7	0	0	0	0	478	417	
8	0	0	0	0	479	418	
9	0	0	0	0	478	419	
10	0	0	0	0	478	419	
11	0	0	0	0	479	419	
12	0	0	0	0	479	419	
13	0	0	0	0	478	419	
14	0	0	0	0	477	419	
15	0	0	0	0	477	419	
0	0	0	0	0	478	419	
1	0	0	0	0	479	419	
2	0	0	0	0	480	419	
3	0	0	0	0	481	419	
4	0	0	0	0	482	419	
5	0	0	0	0	484	419	
6	0	0	0	0	486	419	
7	0	0	0	0	488	419	
8	0	0	0	0	489	419	
9	0	0	0	0	489	419	
10	0	0	0	0	489	419	
11	0	0	0	0	488	419	
12	0	0	0	0	489	419	
13	0	0	0	0	490	419	
14	0	0	0	0	491	418	
15	0	0	0	0	492	418	
0	0	0	0	0	492	419	
1	0	0	0	0	493	418	
2	0	0	0	0	494	419	
3	0	0	0	0	495	420	
4	0	0	0	0	496	419	
5	0	0	0	0	496	419	
6	0	0	0	0	497	419	
7	0	0	0	0	498	418	
8	0	0	0	0	499	418	
9	0	0	0	0	500	418	
10	0	0	0	0	502	418	
11	0	0	0	0	503	419	
12	0	0	0	0	504	418	
13	0	0	0	0	503	418	
14	0	0	0	0	502	419	
15	0	0	0	0	501	418	
0	0	0	0	0	501	419	
1	0	0	0	0	502	419	
2	0	0	0	0	503	419	
3	0	0	0	0	504	419	
4	0	0	0	0	504	418	
5	0	0	0	0	505	418	
6	0	0	0	0	505	417	
7	0	0	0	0	504	419	
8	0	0	0	0	505	418	
9	0	0	0	0	505	418	
10	0	0	0	0	505	418	
11	0	0	0	0	506	418	
12	0	0	0	0	509	418	
13	0	0	0	0	511	418	
14	0	0	0	0	513	419	
15	0	0	0	0	515	418	
0	0	0	0	0	516	417	
1	0	0	0	0	517	419	
2	0	0	0	0	517	418	
3	0	0	0	0	517	419	
4	0	0	0	0	518	418	
5	0	0	0	0	518	418	
6	0	0	0	0	517	418	
7	0	0	0	0	517	417	
8	0	0	0	0	516	418	
9	0	0	0	0	517	418	
10	0	0	0	0	517	418	
11	0	0	0	0	518	419	
12	0	0	0	0	518	418	
13	0	0	0	0	519	418	
14	0	0	0	0	519	419	
15	0	0	0	0	519	418	
0	0	0	0	0	520	419	
1	0	0	0	0	520	419	
2	0	0	0	0	520	419	
3	0	0	0	0	521	420	
4	0	0	0	0	521	419	
5	0	0	0	0	521	419	
6	0	0	0	0	522	419	
7	0	0	0	0	523	418	
8	0	0	0	0	523	419	
9	0	0	0	0	523	419	
10	0	0	0	0	523	419	
11	0	0	0	0	524	419	
12	0	0	0	0	524	418	
13	0	0	0	0	524	418	
14	0	0	0	0	524	419	
15	0	0	0	0	524	419	
0	0	0	0	0	525	419	
1	0	0	0	0	525	419	
2	0	0	0	0	525	419	
3	0	0	0	0	523	420	
4	0	0	0	0	522	419	
5	0	0	0	0	521	419	
6	0	0	0	0	520	419	
7	0	0	0	0	522	419	
8	0	0	0	0	524	419	
9	0	0	0	0	526	419	
10	0	0	0	0	527	419	
11	0	0	0	0	527	420	
12	0	0	0	0	527	419	
13	0	0	0	0	527	419	
14	0	0	0	0	526	418	
15	0	0	0	0	525	418	
0	0	0	0	0	525	419	
1	0	0	0	0	526	419	
2	0	0	0	0	526	418	
3	0	0	0	0	526	419	
4	0	0	0	0	526	419	
5	0	0	0	0	527	419	
6	0	0	0	0	528	419	
7	0	0	0	0	528	418	
8	0	0	0	0	530	419	
9	0	0	0	0	530	419	
10	0	0	0	0	531	419	
11	0	0	0	0	531	420	
12	0	0	0	0	530	419	
13	0	0	0	0	530	419	
14	0	0	0	0	529	419	
15	0	0	0	0	529	419	
0	0	0	0	0	528	419	
1	0	0	0	0	528	419	
2	0	0	0	0	527	419	
3	0	0	0	0	527	419	
4	0	0	0	0	526	419	
5	0	0	0	0	525	419	
6	0	0	0	0	524	419	
7	0	0	0	0	524	418	
8	0	0	0	0	524	418	
9	0	0	0	0	523	418	
10	0	0	0	0	525	418	
11	0	0	0	0	526	419	
12	0	0	0	0	527	418	
13	0	0	0	0	528	418	
14	0	0	0	0	529	419	
15	0	0	0	0	528	418	
0	0	0	0	0	527	418	
1	0	0	0	0	527	418	
2	0	0	0	0	527	418	
3	0	0	0	0	525	418	
4	0	0	0	0	524	418	
5	0	0	0	0	524	418	
6	0	0	0	0	524	417	
7	0	0	0	0	524	417	
8	0	0	0	0	523	417	
9	0	0	0	0	523	417	
10	0	0	0	0	522	417	
11	0	0	0	0	522	419	
12	0	0	0	0	522	418	
13	0	0	0	0	522	417	
14	0	0	0	0	522	417	
15	0	0	0	0	522	418	
0	0	0	0	0	521	418	
1	0	0	0	0	520	417	
2	0	0	0	0	519	417	
3	0	0	0	0	519	418	
4	0	0	0	0	519	418	
5	0	0	0	0	518	417	
6	0	0	0	0	518	417	
7	0	0	0	0	518	416	
8	0	0	0	0	518	417	
9	0	0	0	0	518	417	
10	0	0	0	0	518	417	
11	0	0	0	0	519	418	
12	0	0	0	0	519	417	
13	0	0	0	0	519	417	
14	0	0	0	0	519	417	
15	0	0	0	0	520	417	
0	0	0	0	0	520	417	
1	0	0	0	0	519	418	
2	0	0	0	0	518	417	
3	0	0	0	0	517	417	
4	0	0	0	0	516	417	
5	0	0	0	0	517	418	
6	0	0	0	0	518	417	
7	0	0	0	0	517	417	
8	0	0	0	0	517	418	
9	0	0	0	0	517	417	
10	0	0	0	0	517	417	
11	0	0	0	0	517	418	
12	0	0	0	0	518	418	
13	0	0	0	0	518	418	
14	0	0	0	0	518	418	
15	0	0	0	0	518	418	
0	0	0	0	0	518	419	
1	0	0	0	0	517	418	
2	0	0	0	0	516	418	
3	0	0	0	0	516	418	
4	0	0	0	0	515	418	
5	0	0	0	0	514	417	
6	0	0	0	0	513	419	
7	0	0	0	0	512	418	
8	0	0	0	0	511	418	
9	0	0	0	0	510	418	
10	0	0	0	0	510	418	
11	0	0	0	0	509	419	
12	0	0	0	0	509	419	
13	0	0	0	0	510	418	
14	0	0	0	0	512	419	
15	0	0	0	0	512	418	
0	0	0	0	0	512	418	
1	0	0	0	0	512	417	
2	0	0	0	0	511	418	
3	0	0	0	0	510	419	
4	0	0	0	0	508	418	
5	0	0	0	0	509	419	
6	0	0	0	0	511	419	
7	0	0	0	0	511	419	
8	0	0	0	0	511	419	
9	0	0	0	0	512	419	
10	0	0	0	0	513	419	
11	0	0	0	0	514	420	
12	0	0	0	0	514	419	
13	0	0	0	0	515	419	
14	0	0	0	0	515	419	
15	0	0	0	0	515	419	
0	0	0	0	0	514	418	
1	0	0	0	0	513	419	
2	0	0	0	0	512	419	
3	0	0	0	0	513	419	
4	0	0	0	0	514	418	
5	0	0	0	0	514	419	
6	0	0	0	0	516	418	
7	0	0	0	0	517	418	
8	0	0	0	0	517	418	
9	0	0	0	0	518	418	
10	0	0	0	0	518	417	
11	0	0	0	0	518	418	
12	0	0	0	0	516	418	
13	0	0	0	0	516	417	
14	0	0	0	0	515	417	
15	0	0	0	0	516	417	
0	0	0	0	0	516	417	
1	0	0	0	0	516	417	
2	0	0	0	0	515	417	
3	0	0	0	0	515	418	
4	0	0	0	0	516	417	
5	0	0	0	0	517	417	
6	0	0	0	0	517	417	
7	0	0	0	0	518	417	
8	0	0	0	0	519	417	
9	0	0	0	0	517	417	
10	0	0	0	0	515	417	
11	0	0	0	0	514	418	
12	0	0	0	0	513	416	
13	0	0	0	0	513	417	
14	0	0	0	0	513	417	
15	0	0	0	0	513	417	
0	0	0	0	0	514	418	
1	0	0	0	0	515	417	
2	0	0	0	0	514	417	
3	0	0	0	0	512	419	
4	0	0	0	0	511	417	
5	0	0	0	0	511	418	
6	0	0	0	0	512	418	
7	0	0	0	0	512	418	
8	0	0	0	0	511	418	
9	0	0	0	0	511	418	
10	0	0	0	0	511	418	
11	0	0	0	0	510	419	
12	0	0	0	0	511	419	
13	0	0	0	0	511	419	
14	0	0	0	0	511	418	
15	0	0	0	0	513	417	
0	0	0	0	0	515	418	
1	0	0	0	0	517	418	
2	0	0	0	0	518	419	
3	0	0	0	0	519	419	
4	0	0	0	0	520	418	
5	0	0	0	0	520	418	
6	0	0	0	0	520	419	
7	0	0	0	0	520	419	
8	0	0	0	0	519	419	
9	0	0	0	0	519	419	
10	0	0	0	0	519	419	
11	0	0	0	0	519	419	
12	0	0	0	0	518	419	
13	0	0	0	0	517	418	
14	0	0	0	0	517	419	
15	0	0	0	0	517	419	
0	0	0	0	0	515	419	
1	0	0	0	0	516	419	
2	0	0	0	0	515	419	
3	0	0	0	0	514	420	
4	0	0	0	0	514	419	
5	0	0	0	0	514	419	
6	0	0	0	0	515	420	
7	0	0	0	0	515	419	
8	0	0	0	0	517	419	
9	0	0	0	0	517	420	
10	0	0	0	0	517	420	
11	0	0	0	0	516	421	
12	0	0	0	0	514	419	
13	0	0	0	0	513	419	
14	0	0	0	0	512	419	
15	0	0	0	0	512	419	
0	0	0	0	0	512	419	
1	0	0	0	0	512	419	
2	0	0	0	0	513	419	
3	0	0	0	0	513	419	
4	0	0	0	0	514	419	
5	0	0	0	0	514	419	
6	0	0	0	0	514	419	
7	0	0	0	0	514	418	
8	0	0	0	0	514	419	
9	0	0	0	0	514	418	
10	0	0	0	0	513	418	
11	0	0	0	0	513	419	
12	0	0	0	0	513	418	
13	0	0	0	0	514	418	
14	0	0	0	0	514	418	
15	0	0	0	0	514	417	
0	0	0	0	0	513	418	
1	0	0	0	0	514	418	
2	0	0	0	0	513	417	
3	0	0	0	0	512	418	
4	0	0	0	0	512	417	
5	0	0	0	0	512	417	
6	0	0	0	0	512	417	
7	0	0	0	0	513	417	
8	0	0	0	0	514	417	
9	0	0	0	0	515	417	
10	0	0	0	0	515	418	
11	0	0	0	0	515	418	
12	0	0	0	0	515	418	
13	0	0	0	0	515	417	
14	0	0	0	0	515	418	
15	0	0	0	0	515	418	
0	0	0	0	0	516	418	
1	0	0	0	0	516	418	
2	0	0	0	0	517	418	
3	0	0	0	0	518	419	
4	0	0	0	0	518	418	
5	0	0	0	0	518	419	
6	0	0	0	0	518	418	
7	0	0	0	0	518	418	
8	0	0	0	0	518	418	
9	0	0	0	0	519	418	
10	0	0	0	0	519	418	
11	0	0	0	0	520	419	
12	0	0	0	0	519	418	
13	0	0	0	0	520	419	
14	0	0	0	0	520	419	
15	0	0	0	0	519	418	
0	0	0	0	0	519	419	
1	0	0	0	0	519	419	
2	0	0	0	0	520	419	
3	0	0	0	0	521	419	
4	0	0	0	0	521	418	
5	0	0	0	0	521	419	
6	0	0	0	0	522	418	
7	0	0	0	0	523	418	
8	0	0	0	0	523	418	
9	0	0	0	0	522	418	
10	0	0	0	0	520	419	
11	0	0	0	0	519	419	
12	0	0	0	0	518	419	
13	0	0	0	0	517	418	
14	0	0	0	0	516	419	
15	0	0	0	0	517	418	
0	0	0	0	0	517	418	
1	0	0	0	0	518	419	
2	0	0	0	0	519	418	
3	0	0	0	0	518	420	
4	0	0	0	0	517	418	
5	0	0	0	0	516	419	
6	0	0	0	0	516	418	
7	0	0	0	0	515	418	
8	0	0	0	0	514	419	
9	0	0	0	0	514	419	
10	0	0	0	0	514	419	
11	0	0	0	0	513	419	
12	0	0	0	0	512	419	
13	0	0	0	0	512	418	
14	0	0	0	0	511	419	
15	0	0	0	0	511	418	
0	0	0	0	0	510	418	
1	0	0	0	0	509	417	
2	0	0	0	0	509	418	
3	0	0	0	0	509	419	
4	0	0	0	0	508	418	
5	0	0	0	0	508	418	
6	0	0	0	0	508	418	
7	0	0	0	0	506	418	
8	0	0	0	0	504	418	
9	0	0	0	0	504	418	
10	0	0	0	0	503	419	
11	0	0	0	0	503	419	
12	0	0	0	0	502	418	
13	0	0	0	0	502	418	
14	0	0	0	0	502	418	
15	0	0	0	0	503	417	
0	0	0	0	0	504	418	
1	0	0	0	0	504	418	
2	0	0	0	0	504	418	
3	0	0	0	0	504	419	
4	0	0	0	0	504	418	
5	0	0	0	0	506	418	
6	0	0	0	0	508	418	
7	0	0	0	0	508	417	
8	0	0	0	0	507	418	
9	0	0	0	0	506	418	
10	0	0	0	0	505	418	
11	0	0	0	0	504	419	
12	0	0	0	0	504	418	
13	0	0	0	0	504	419	
14	0	0	0	0	504	418	
15	0	0	0	0	504	418	
0	0	0	0	0	503	418	
1	0	0	0	0	503	418	
2	0	0	0	0	503	417	
3	0	0	0	0	504	419	
4	0	0	0	0	502	418	
5	0	0	0	0	502	418	
6	0	0	0	0	502	418	
7	0	0	0	0	502	418	
8	0	0	0	0	502	417	
9	0	0	0	0	503	418	
10	0	0	0	0	503	418	
11	0	0	0	0	503	419	
12	0	0	0	0	503	418	
13	0	0	0	0	503	418	
14	0	0	0	0	502	418	
15	0	0	0	0	502	417	
0	0	0	0	0	502	419	
1	0	0	0	0	502	418	
2	0	0	0	0	502	419	
3	0	0	0	0	500	419	
4	0	0	0	0	501	418	
5	0	0	0	0	501	418	
6	0	0	0	0	501	419	
7	0	0	0	0	501	419	
8	0	0	0	0	502	418	
9	0	0	0	0	502	418	
10	0	0	0	0	502	418	
11	0	0	0	0	501	419	
12	0	0	0	0	502	418	
13	0	0	0	0	504	419	
14	0	0	0	0	503	419	
15	0	0	0	0	502	418	
0	0	0	0	0	502	418	
1	0	0	0	0	503	419	
2	0	0	0	0	504	418	
3	0	0	0	0	504	419	
4	0	0	0	0	503	418	
5	0	0	0	0	500	418	
6	0	0	0	0	497	418	
7	0	0	0	0	493	417	
8	0	0	0	0	490	418	
9	0	0	0	0	486	418	
10	0	0	0	0	481	417	
11	0	0	0	0	478	418	
12	0	0	0	0	474	418	
13	0	0	0	0	472	417	
14	0	0	0	0	468	418	
15	0	0	0	0	466	418	
0	0	0	0	0	464	419	
1	0	0	0	0	462	418	
2	0	0	0	0	460	419	
3	0	0	0	0	459	419	
4	0	0	0	0	458	418	
5	0	0	0	0	458	418	
6	0	0	0	0	459	418	
7	0	0	0	0	460	418	
8	0	0	0	0	462	418	
9	0	0	0	0	462	418	
10	0	0	0	0	462	418	
11	0	0	0	0	461	418	
12	0	0	0	0	462	417	
13	0	0	0	0	463	417	
14	0	0	0	0	467	417	
15	0	0	0	0	475	417	
0	0	0	0	0	486	417	
1	0	0	0	0	497	417	
2	0	0	0	0	512	418	
3	0	0	0	0	531	418	
4	0	0	0	0	551	417	
5	0	0	0	0	569	417	
6	0	0	0	0	586	417	
7	0	0	0	0	604	417	
8	0	0	0	0	623	418	
9	0	0	0	0	643	417	
10	0	0	0	0	663	418	
11	0	0	0	0	683	418	
12	0	0	0	0	700	417	
13	0	0	0	0	714	418	
14	0	0	0	0	724	417	
15	0	0	0	0	734	417	
0	0	0	0	0	744	417	
1	0	0	0	0	753	418	
2	0	0	0	0	759	418	
3	0	0	0	0	761	419	
4	0	0	0	0	761	418	
5	0	0	0	0	759	418	
6	0	0	0	0	755	419	
7	0	0	0	0	750	418	
8	0	0	0	0	742	418	
9	0	0	0	0	731	419	
10	0	0	0	0	718	418	
11	0	0	0	0	704	419	
12	0	0	0	0	687	419	
13	0	0	0	0	669	418	
14	0	0	0	0	652	419	
15	0	0	0	0	635	418	
0	0	0	0	0	620	419	
1	0	0	0	0	606	419	
2	0	0	0	0	593	419	
3	0	0	0	0	581	419	
4	0	0	0	0	569	419	
5	0	0	0	0	557	419	
6	0	0	0	0	547	419	
7	0	0	0	0	537	419	
8	0	0	0	0	528	418	
9	0	0	0	0	519	419	
10	0	0	0	0	511	419	
11	0	0	0	0	504	420	
12	0	0	0	0	496	419	
13	0	0	0	0	489	420	
14	0	0	0	0	483	419	
15	0	0	0	0	477	419	
0	0	0	0	0	472	419	
1	0	0	0	0	467	419	
2	0	0	0	0	465	419	
3	0	0	0	0	462	419	
4	0	0	0	0	460	418	
5	0	0	0	0	458	418	
6	0	0	0	0	457	419	
7	0	0	0	0	456	418	
8	0	0	0	0	456	417	
9	0	0	0	0	455	418	
10	0	0	0	0	454	418	
11	0	0	0	0	451	419	
12	0	0	0	0	449	418	
13	0	0	0	0	448	418	
14	0	0	0	0	448	417	
15	0	0	0	0	448	417	
0	0	0	0	0	448	417	
1	0	0	0	0	447	418	
2	0	0	0	0	447	418	
3	0	0	0	0	446	419	
4	0	0	0	0	445	418	
5	0	0	0	0	445	418	
6	0	0	0	0	446	418	
7	0	0	0	0	446	417	
8	0	0	0	0	447	418	
9	0	0	0	0	447	418	
10	0	0	0	0	448	417	
11	0	0	0	0	449	419	
12	0	0	0	0	449	417	
13	0	0	0	0	449	418	
14	0	0	0	0	449	417	
15	0	0	0	0	451	417	
0	0	0	0	0	452	417	
1	0	0	0	0	453	418	
2	0	0	0	0	453	418	
3	0	0	0	0	452	419	
4	0	0	0	0	453	418	
5	0	0	0	0	454	417	
6	0	0	0	0	456	418	
7	0	0	0	0	457	417	
8	0	0	0	0	458	418	
9	0	0	0	0	460	417	
10	0	0	0	0	461	418	
11	0	0	0	0	461	418	
12	0	0	0	0	461	417	
13	0	0	0	0	460	417	
14	0	0	0	0	460	418	
15	0	0	0	0	460	417	
0	0	0	0	0	460	418	
1	0	0	0	0	460	419	
2	0	0	0	0	460	418	
3	0	0	0	0	461	419	
4	0	0	0	0	462	419	
5	0	0	0	0	463	418	
6	0	0	0	0	464	419	
7	0	0	0	0	464	418	
8	0	0	0	0	464	419	
9	0	0	0	0	465	418	
10	0	0	0	0	466	419	
11	0	0	0	0	466	420	
12	0	0	0	0	467	419	
13	0	0	0	0	467	419	
14	0	0	0	0	468	419	
15	0	0	0	0	469	419	
0	0	0	0	0	469	418	
1	0	0	0	0	470	418	
2	0	0	0	0	470	418	
3	0	0	0	0	471	420	
4	0	0	0	0	472	418	
5	0	0	0	0	472	418	
6	0	0	0	0	473	418	
7	0	0	0	0	475	418	
8	0	0	0	0	476	418	
9	0	0	0	0	477	418	
10	0	0	0	0	476	418	
11	0	0	0	0	475	419	
12	0	0	0	0	473	418	
13	0	0	0	0	473	418	
14	0	0	0	0	472	418	
15	0	0	0	0	472	417	
0	0	0	0	0	472	418	
1	0	0	0	0	472	417	
2	0	0	0	0	474	418	
3	0	0	0	0	476	418	
4	0	0	0	0	478	418	
5	0	0	0	0	480	418	
6	0	0	0	0	480	417	
7	0	0	0	0	480	417	
8	0	0	0	0	481	418	
9	0	0	0	0	481	418	
10	0	0	0	0	481	418	
11	0	0	0	0	482	419	
12	0	0	0	0	483	418	
13	0	0	0	0	483	418	
14	0	0	0	0	484	419	
15	0	0	0	0	485	418	
0	0	0	0	0	484	419	
1	0	0	0	0	483	418	
2	0	0	0	0	483	418	
3	0	0	0	0	482	419	
4	0	0	0	0	482	418	
5	0	0	0	0	482	419	
6	0	0	0	0	482	418	
7	0	0	0	0	481	418	
8	0	0	0	0	482	418	
9	0	0	0	0	482	418	
10	0	0	0	0	482	418	
11	0	0	0	0	481	419	
12	0	0	0	0	482	418	
13	0	0	0	0	483	418	
14	0	0	0	0	483	419	
15	0	0	0	0	483	417	
0	0	0	0	0	483	419	
1	0	0	0	0	483	418	
2	0	0	0	0	484	418	
3	0	0	0	0	484	418	
4	0	0	0	0	484	418	
5	0	0	0	0	483	418	
6	0	0	0	0	483	419	
7	0	0	0	0	482	418	
8	0	0	0	0	482	418	
9	0	0	0	0	483	419	
10	0	0	0	0	484	419	
11	0	0	0	0	485	419	
12	0	0	0	0	486	419	
13	0	0	0	0	486	419	
14	0	0	0	0	487	419	
15	0	0	0	0	488	418	
0	0	0	0	0	489	419	
1	0	0	0	0	489	419	
2	0	0	0	0	489	418	
3	0	0	0	0	489	419	
4	0	0	0	0	489	419	
5	0	0	0	0	488	418	
6	0	0	0	0	487	419	
7	0	0	0	0	486	418	
8	0	0	0	0	486	419	
9	0	0	0	0	484	419	
10	0	0	0	0	484	419	
11	0	0	0	0	484	419	
12	0	0	0	0	483	418	
13	0	0	0	0	484	419	
14	0	0	0	0	483	419	
15	0	0	0	0	483	418	
0	0	0	0	0	482	419	
1	0	0	0	0	482	419	
2	0	0	0	0	483	419	
3	0	0	0	0	483	419	
4	0	0	0	0	483	418	
5	0	0	0	0	484	418	
6	0	0	0	0	484	418	
7	0	0	0	0	485	418	
8	0	0	0	0	487	418	
9	0	0	0	0	487	418	
10	0	0	0	0	487	418	
11	0	0	0	0	487	418	
12	0	0	0	0	487	418	
13	0	0	0	0	487	418	
14	0	0	0	0	489	418	
15	0	0	0	0	490	417	
0	0	0	0	0	492	417	
1	0	0	0	0	493	418	
2	0	0	0	0	493	418	
3	0	0	0	0	492	418	
4	0	0	0	0	491	418	
5	0	0	0	0	491	418	
6	0	0	0	0	490	418	
7	0	0	0	0	491	418	
8	0	0	0	0	492	418	
9	0	0	0	0	493	418	
10	0	0	0	0	493	418	
11	0	0	0	0	494	418	
12	0	0	0	0	495	418	
13	0	0	0	0	495	417	
14	0	0	0	0	496	418	
15	0	0	0	0	496	417	
0	0	0	0	0	496	418	
1	0	0	0	0	496	417	
2	0	0	0	0	496	417	
3	0	0	0	0	497	418	
4	0	0	0	0	498	417	
5	0	0	0	0	499	417	
6	0	0	0	0	499	417	
7	0	0	0	0	500	417	
8	0	0	0	0	501	417	
9	0	0	0	0	502	418	
10	0	0	0	0	502	418	
11	0	0	0	0	502	419	
12	0	0	0	0	503	418	
13	0	0	0	0	503	417	
14	0	0	0	0	504	417	
15	0	0	0	0	504	417	
0	0	0	0	0	505	418	
1	0	0	0	0	506	417	
2	0	0	0	0	508	418	
3	0	0	0	0	508	419	
4	0	0	0	0	508	418	
5	0	0	0	0	508	418	
6	0	0	0	0	508	419	
7	0	0	0	0	509	418	
8	0	0	0	0	510	418	
9	0	0	0	0	511	418	
10	0	0	0	0	512	419	
11	0	0	0	0	512	419	
12	0	0	0	0	511	419	
13	0	0	0	0	510	419	
14	0	0	0	0	508	419	
15	0	0	0	0	507	419	
0	0	0	0	0	505	419	
1	0	0	0	0	505	419	
2	0	0	0	0	505	419	
3	0	0	0	0	506	419	
4	0	0	0	0	506	419	
5	0	0	0	0	506	419	
6	0	0	0	0	507	419	
7	0	0	0	0	507	418	
8	0	0	0	0	507	418	
9	0	0	0	0	507	419	
10	0	0	0	0	507	419	
11	0	0	0	0	508	420	
12	0	0	0	0	508	419	
13	0	0	0	0	508	419	
14	0	0	0	0	509	418	
15	0	0	0	0	510	419	
0	0	0	0	0	509	418	
1	0	0	0	0	508	419	
2	0	0	0	0	505	418	
3	0	0	0	0	504	419	
4	0	0	0	0	504	419	
5	0	0	0	0	505	418	
6	0	0	0	0	506	418	
7	0	0	0	0	505	418	
8	0	0	0	0	506	419	
9	0	0	0	0	507	419	
10	0	0	0	0	507	419	
11	0	0	0	0	508	419	
12	0	0	0	0	508	419	
13	0	0	0	0	509	419	
14	0	0	0	0	510	419	
15	0	0	0	0	510	418	
0	0	0	0	0	511	419	
1	0	0	0	0	511	418	
2	0	0	0	0	510	418	
3	0	0	0	0	511	419	
4	0	0	0	0	510	418	
5	0	0	0	0	511	419	
6	0	0	0	0	510	419	
7	0	0	0	0	509	419	
8	0	0	0	0	509	419	
9	0	0	0	0	509	419	
10	0	0	0	0	510	419	
11	0	0	0	0	509	419	
12	0	0	0	0	508	418	
13	0	0	0	0	507	418	
14	0	0	0	0	506	418	
15	0	0	0	0	504	417	
0	0	0	0	0	503	418	
1	0	0	0	0	503	419	
2	0	0	0	0	504	419	
3	0	0	0	0	505	419	
4	0	0	0	0	505	418	
5	0	0	0	0	506	419	
6	0	0	0	0	506	418	
7	0	0	0	0	505	418	
8	0	0	0	0	505	418	
9	0	0	0	0	504	418	
10	0	0	0	0	504	418	
11	0	0	0	0	503	419	
12	0	0	0	0	503	419	
13	0	0	0	0	503	418	
14	0	0	0	0	504	418	
15	0	0	0	0	505	418	
0	0	0	0	0	506	418	
1	0	0	0	0	508	418	
2	0	0	0	0	510	419	
3	0	0	0	0	511	420	
4	0	0	0	0	510	419	
5	0	0	0	0	509	419	
6	0	0	0	0	509	419	
7	0	0	0	0	508	418	
8	0	0	0	0	508	419	
9	0	0	0	0	508	419	
10	0	0	0	0	508	419	
11	0	0	0	0	508	419	
12	0	0	0	0	509	419	
13	0	0	0	0	510	419	
14	0	0	0	0	510	419	
15	0	0	0	0	510	419	
0	0	0	0	0	511	419	
1	0	0	0	0	511	418	
2	0	0	0	0	511	419	
3	0	0	0	0	511	419	
4	0	0	0	0	511	419	
5	0	0	0	0	512	418	
6	0	0	0	0	512	418	
7	0	0	0	0	513	418	
8	0	0	0	0	512	419	
9	0	0	0	0	513	419	
10	0	0	0	0	513	419	
11	0	0	0	0	512	420	
12	0	0	0	0	511	419	
13	0	0	0	0	510	418	
14	0	0	0	0	509	418	
15	0	0	0	0	508	418	
0	0	0	0	0	507	418	
1	0	0	0	0	507	418	
2	0	0	0	0	507	418	
3	0	0	0	0	507	419	
4	0	0	0	0	507	418	
5	0	0	0	0	508	418	
6	0	0	0	0	508	418	
7	0	0	0	0	508	418	
8	0	0	0	0	506	418	
9	0	0	0	0	506	418	
10	0	0	0	0	506	418	
11	0	0	0	0	507	419	
12	0	0	0	0	506	419	
13	0	0	0	0	506	419	
14	0	0	0	0	504	419	
15	0	0	0	0	503	418	
0	0	0	0	0	501	418	
1	0	0	0	0	499	418	
2	0	0	0	0	499	418	
3	0	0	0	0	500	419	
4	0	0	0	0	502	417	
5	0	0	0	0	504	417	
6	0	0	0	0	507	417	
7	0	0	0	0	507	416	
8	0	0	0	0	508	417	
9	0	0	0	0	508	417	
10	0	0	0	0	508	417	
11	0	0	0	0	509	418	
12	0	0	0	0	509	417	
13	0	0	0	0	510	417	
14	0	0	0	0	509	417	
15	0	0	0	0	509	416	
0	0	0	0	0	509	417	
1	0	0	0	0	510	417	
2	0	0	0	0	510	417	
3	0	0	0	0	510	418	
4	0	0	0	0	509	417	
5	0	0	0	0	511	416	
6	0	0	0	0	511	417	
7	0	0	0	0	510	417	
8	0	0	0	0	509	418	
9	0	0	0	0	509	417	
10	0	0	0	0	511	418	
11	0	0	0	0	511	418	
12	0	0	0	0	511	418	
13	0	0	0	0	512	418	
14	0	0	0	0	512	418	
15	0	0	0	0	513	417	
0	0	0	0	0	513	417	
1	0	0	0	0	513	418	
2	0	0	0	0	513	418	
3	0	0	0	0	512	418	
4	0	0	0	0	512	418	
5	0	0	0	0	512	418	
6	0	0	0	0	512	418	
7	0	0	0	0	512	418	
8	0	0	0	0	512	418	
9	0	0	0	0	512	418	
10	0	0	0	0	513	418	
11	0	0	0	0	514	419	
12	0	0	0	0	514	418	
13	0	0	0	0	514	418	
14	0	0	0	0	513	418	
15	0	0	0	0	513	418	
0	0	0	0	0	513	418	
1	0	0	0	0	515	418	
2	0	0	0	0	517	418	
3	0	0	0	0	518	419	
4	0	0	0	0	517	418	
5	0	0	0	0	518	418	
6	0	0	0	0	517	418	
7	0	0	0	0	516	418	
8	0	0	0	0	515	418	
9	0	0	0	0	513	418	
10	0	0	0	0	513	418	
11	0	0	0	0	513	418	
12	0	0	0	0	514	418	
13	0	0	0	0	515	417	
14	0	0	0	0	515	418	
15	0	0	0	0	515	417	
0	0	0	0	0	515	419	
1	0	0	0	0	515	419	
2	0	0	0	0	514	418	
3	0	0	0	0	514	419	
4	0	0	0	0	515	419	
5	0	0	0	0	514	418	
6	0	0	0	0	513	418	
7	0	0	0	0	512	418	
8	0	0	0	0	512	418	
9	0	0	0	0	512	419	
10	0	0	0	0	512	418	
11	0	0	0	0	511	419	
12	0	0	0	0	510	419	
13	0	0	0	0	508	419	
14	0	0	0	0	508	418	
15	0	0	0	0	508	418	
0	0	0	0	0	509	418	
1	0	0	0	0	510	418	
2	0	0	0	0	512	418	
3	0	0	0	0	513	419	
4	0	0	0	0	514	418	
5	0	0	0	0	515	418	
6	0	0	0	0	515	419	
7	0	0	0	0	515	418	
8	0	0	0	0	514	419	
9	0	0	0	0	514	418	
10	0	0	0	0	515	418	
11	0	0	0	0	515	418	
12	0	0	0	0	515	418	
13	0	0	0	0	515	417	
14	0	0	0	0	514	418	
15	0	0	0	0	514	418	
0	0	0	0	0	515	418	
1	0	0	0	0	516	417	
2	0	0	0	0	518	418	
3	0	0	0	0	518	419	
4	0	0	0	0	519	418	
5	0	0	0	0	519	418	
6	0	0	0	0	519	418	
7	0	0	0	0	519	417	
8	0	0	0	0	519	418	
9	0	0	0	0	519	419	
10	0	0	0	0	519	418	
11	0	0	0	0	519	419	
12	0	0	0	0	519	418	
13	0	0	0	0	520	418	
14	0	0	0	0	521	419	
15	0	0	0	0	522	417	
0	0	0	0	0	524	418	
1	0	0	0	0	524	419	
2	0	0	0	0	524	419	
3	0	0	0	0	524	419	
4	0	0	0	0	523	418	
5	0	0	0	0	522	418	
6	0	0	0	0	522	418	
7	0	0	0	0	521	418	
8	0	0	0	0	520	419	
9	0	0	0	0	519	418	
10	0	0	0	0	519	418	
11	0	0	0	0	519	419	
12	0	0	0	0	517	418	
13	0	0	0	0	516	418	
14	0	0	0	0	516	418	
15	0	0	0	0	515	417	
0	0	0	0	0	515	417	
1	0	0	0	0	515	418	
2	0	0	0	0	515	418	
3	0	0	0	0	515	417	
4	0	0	0	0	516	417	
5	0	0	0	0	518	417	
6	0	0	0	0	519	417	
7	0	0	0	0	519	418	
8	0	0	0	0	519	418	
9	0	0	0	0	518	417	
10	0	0	0	0	519	418	
11	0	0	0	0	518	419	
12	0	0	0	0	519	418	
13	0	0	0	0	519	417	
14	0	0	0	0	518	418	
15	0	0	0	0	518	418	
0	0	0	0	0	519	418	
1	0	0	0	0	520	418	
2	0	0	0	0	520	418	
3	0	0	0	0	520	419	
4	0	0	0	0	520	418	
5	0	0	0	0	519	418	
6	0	0	0	0	519	417	
7	0	0	0	0	519	417	
8	0	0	0	0	519	417	
9	0	0	0	0	519	417	
10	0	0	0	0	521	418	
11	0	0	0	0	521	418	
12	0	0	0	0	522	417	
13	0	0	0	0	523	417	
14	0	0	0	0	524	418	
15	0	0	0	0	523	417	
0	0	0	0	0	523	418	
1	0	0	0	0	522	418	
2	0	0	0	0	523	418	
3	0	0	0	0	524	419	
4	0	0	0	0	526	418	
5	0	0	0	0	526	418	
6	0	0	0	0	526	418	
7	0	0	0	0	526	418	
8	0	0	0	0	528	418	
9	0	0	0	0	528	419	
10	0	0	0	0	528	419	
11	0	0	0	0	528	419	
12	0	0	0	0	528	418	
13	0	0	0	0	527	418	
14	0	0	0	0	526	418	
15	0	0	0	0	525	419	
0	0	0	0	0	523	418	
1	0	0	0	0	524	418	
2	0	0	0	0	524	418	
3	0	0	0	0	524	419	
4	0	0	0	0	524	418	
5	0	0	0	0	524	418	
6	0	0	0	0	524	418	
7	0	0	0	0	525	419	
8	0	0	0	0	526	418	
9	0	0	0	0	526	418	
10	0	0	0	0	526	418	
11	0	0	0	0	526	419	
12	0	0	0	0	525	418	
13	0	0	0	0	523	419	
14	0	0	0	0	523	418	
15	0	0	0	0	524	418	
0	0	0	0	0	524	419	
1	0	0	0	0	526	418	
2	0	0	0	0	525	418	
3	0	0	0	0	524	419	
4	0	0	0	0	524	419	
5	0	0	0	0	523	419	
6	0	0	0	0	522	418	
7	0	0	0	0	521	418	
8	0	0	0	0	520	418	
9	0	0	0	0	518	418	
10	0	0	0	0	517	418	
11	0	0	0	0	516	419	
12	0	0	0	0	516	418	
13	0	0	0	0	517	418	
14	0	0	0	0	517	418	
15	0	0	0	0	518	418	
0	0	0	0	0	520	419	
1	0	0	0	0	521	419	
2	0	0	0	0	522	418	
3	0	0	0	0	523	419	
4	0	0	0	0	521	418	
5	0	0	0	0	519	418	
6	0	0	0	0	519	418	
7	0	0	0	0	519	418	
8	0	0	0	0	520	419	
9	0	0	0	0	521	418	
10	0	0	0	0	521	419	
11	0	0	0	0	521	420	
12	0	0	0	0	522	419	
13	0	0	0	0	521	419	
14	0	0	0	0	521	419	
15	0	0	0	0	520	419	
0	0	0	0	0	519	419	
1	0	0	0	0	518	418	
2	0	0	0	0	516	419	
3	0	0	0	0	516	419	
4	0	0	0	0	516	418	
5	0	0	0	0	516	419	
6	0	0	0	0	516	418	
7	0	0	0	0	515	418	
8	0	0	0	0	515	419	
9	0	0	0	0	515	418	
10	0	0	0	0	514	419	
11	0	0	0	0	514	419	
12	0	0	0	0	514	419	
13	0	0	0	0	514	418	
14	0	0	0	0	513	419	
15	0	0	0	0	513	419	
0	0	0	0	0	513	418	
1	0	0	0	0	512	419	
2	0	0	0	0	511	418	
3	0	0	0	0	511	419	
4	0	0	0	0	510	418	
5	0	0	0	0	509	419	
6	0	0	0	0	509	418	
7	0	0	0	0	509	418	
8	0	0	0	0	511	419	
9	0	0	0	0	513	419	
10	0	0	0	0	514	419	
11	0	0	0	0	514	419	
12	0	0	0	0	513	419	
13	0	0	0	0	513	419	
14	0	0	0	0	512	418	
15	0	0	0	0	513	419	
0	0	0	0	0	514	418	
1	0	0	0	0	515	418	
2	0	0	0	0	517	418	
3	0	0	0	0	517	419	
4	0	0	0	0	518	418	
5	0	0	0	0	519	418	
6	0	0	0	0	519	418	
7	0	0	0	0	519	417	
8	0	0	0	0	517	418	
9	0	0	0	0	517	418	
10	0	0	0	0	516	418	
11	0	0	0	0	515	419	
12	0	0	0	0	514	417	
13	0	0	0	0	514	418	
14	0	0	0	0	513	417	
15	0	0	0	0	513	417	
0	0	0	0	0	513	418	
1	0	0	0	0	513	418	
2	0	0	0	0	513	418	
3	0	0	0	0	512	419	
4	0	0	0	0	511	418	
5	0	0	0	0	509	419	
6	0	0	0	0	508	419	
7	0	0	0	0	506	419	
8	0	0	0	0	502	419	
9	0	0	0	0	498	418	
10	0	0	0	0	494	419	
11	0	0	0	0	491	418	
12	0	0	0	0	487	418	
13	0	0	0	0	483	418	
14	0	0	0	0	480	418	
15	0	0	0	0	476	418	
0	0	0	0	0	473	418	
1	0	0	0	0	470	418	
2	0	0	0	0	467	418	
3	0	0	0	0	465	419	
4	0	0	0	0	463	418	
5	0	0	0	0	462	419	
6	0	0	0	0	462	419	
7	0	0	0	0	460	418	
8	0	0	0	0	460	419	
9	0	0	0	0	460	419	
10	0	0	0	0	462	419	
11	0	0	0	0	463	420	
12	0	0	0	0	463	419	
13	0	0	0	0	464	419	
14	0	0	0	0	465	419	
15	0	0	0	0	465	418	
0	0	0	0	0	465	418	
1	0	0	0	0	467	419	
2	0	0	0	0	470	419	
3	0	0	0	0	476	419	
4	0	0	0	0	485	419	
5	0	0	0	0	497	419	
6	0	0	0	0	513	419	
7	0	0	0	0	532	418	
8	0	0	0	0	552	419	
9	0	0	0	0	571	419	
10	0	0	0	0	588	418	
11	0	0	0	0	603	419	
12	0	0	0	0	618	418	
13	0	0	0	0	634	419	
14	0	0	0	0	650	418	
15	0	0	0	0	664	418	
0	0	0	0	0	675	417	
1	0	0	0	0	684	418	
2	0	0	0	0	692	418	
3	0	0	0	0	699	419	
4	0	0	0	0	705	418	
5	0	0	0	0	710	418	
6	0	0	0	0	713	418	
7	0	0	0	0	715	418	
8	0	0	0	0	713	417	
9	0	0	0	0	712	418	
10	0	0	0	0	708	418	
11	0	0	0	0	703	418	
12	0	0	0	0	694	417	
13	0	0	0	0	684	417	
14	0	0	0	0	674	417	
15	0	0	0	0	660	417	
0	0	0	0	0	646	417	
1	0	0	0	0	633	418	
2	0	0	0	0	621	417	
3	0	0	0	0	608	419	
4	0	0	0	0	595	417	
5	0	0	0	0	582	418	
6	0	0	0	0	570	417	
7	0	0	0	0	559	418	
8	0	0	0	0	550	418	
9	0	0	0	0	542	418	
10	0	0	0	0	534	417	
11	0	0	0	0	525	418	
12	0	0	0	0	516	417	
13	0	0	0	0	507	418	
14	0	0	0	0	498	418	
15	0	0	0	0	489	417	
0	0	0	0	0	481	417	
1	0	0	0	0	475	418	
2	0	0	0	0	471	417	
3	0	0	0	0	467	417	
4	0	0	0	0	465	417	
5	0	0	0	0	464	417	
6	0	0	0	0	464	417	
7	0	0	0	0	463	417	
8	0	0	0	0	462	417	
9	0	0	0	0	462	418	
10	0	0	0	0	461	418	
11	0	0	0	0	460	419	
12	0	0	0	0	457	418	
13	0	0	0	0	455	418	
14	0	0	0	0	454	418	
15	0	0	0	0	451	417	
0	0	0	0	0	449	419	
1	0	0	0	0	448	418	
2	0	0	0	0	448	419	
3	0	0	0	0	448	419	
4	0	0	0	0	448	418	
5	0	0	0	0	448	418	
6	0	0	0	0	448	419	
7	0	0	0	0	448	418	
8	0	0	0	0	448	419	
9	0	0	0	0	449	419	
10	0	0	0	0	450	419	
11	0	0	0	0	450	419	
12	0	0	0	0	451	419	
13	0	0	0	0	452	419	
14	0	0	0	0	453	419	
15	0	0	0	0	454	419	
0	0	0	0	0	454	419	
1	0	0	0	0	453	419	
2	0	0	0	0	454	419	
3	0	0	0	0	454	420	
4	0	0	0	0	454	419	
5	0	0	0	0	455	419	
6	0	0	0	0	455	419	
7	0	0	0	0	454	418	
8	0	0	0	0	454	418	
9	0	0	0	0	455	418	
10	0	0	0	0	455	418	
11	0	0	0	0	457	419	
12	0	0	0	0	459	419	
13	0	0	0	0	460	418	
14	0	0	0	0	461	419	
15	0	0	0	0	463	419	
0	0	0	0	0	465	419	
1	0	0	0	0	465	418	
2	0	0	0	0	465	418	
3	0	0	0	0	466	419	
4	0	0	0	0	466	418	
5	0	0	0	0	465	418	
6	0	0	0	0	464	418	
7	0	0	0	0	463	418	
8	0	0	0	0	463	419	
9	0	0	0	0	464	419	
10	0	0	0	0	466	418	
11	0	0	0	0	468	419	
12	0	0	0	0	471	418	
13	0	0	0	0	474	418	
14	0	0	0	0	474	418	
15	0	0	0	0	474	418	
0	0	0	0	0	474	418	
1	0	0	0	0	474	418	
2	0	0	0	0	475	419	
3	0	0	0	0	475	419	
4	0	0	0	0	476	419	
5	0	0	0	0	478	419	
6	0	0	0	0	478	419	
7	0	0	0	0	477	418	
8	0	0	0	0	477	418	
9	0	0	0	0	478	418	
10	0	0	0	0	478	418	
11	0	0	0	0	478	419	
12	0	0	0	0	479	418	
13	0	0	0	0	479	418	
14	0	0	0	0	479	417	
15	0	0	0	0	480	418	
0	0	0	0	0	480	418	
1	0	0	0	0	481	419	
2	0	0	0	0	481	418	
3	0	0	0	0	482	419	
4	0	0	0	0	482	418	
5	0	0	0	0	481	418	
6	0	0	0	0	482	418	
7	0	0	0	0	482	418	
8	0	0	0	0	483	419	
9	0	0	0	0	485	419	
10	0	0	0	0	486	419	
11	0	0	0	0	486	419	
12	0	0	0	0	487	418	
13	0	0	0	0	489	419	
14	0	0	0	0	490	419	
15	0	0	0	0	490	419	
0	0	0	0	0	490	419	
1	0	0	0	0	490	419	
2	0	0	0	0	490	419	
3	0	0	0	0	489	420	
4	0	0	0	0	489	419	
5	0	0	0	0	488	420	
6	0	0	0	0	488	419	
7	0	0	0	0	489	419	
8	0	0	0	0	490	419	
9	0	0	0	0	491	419	
10	0	0	0	0	492	419	
11	0	0	0	0	492	419	
12	0	0	0	0	492	419	
13	0	0	0	0	492	419	
14	0	0	0	0	492	419	
15	0	0	0	0	490	418	
0	0	0	0	0	488	419	
1	0	0	0	0	486	419	
2	0	0	0	0	484	419	
3	0	0	0	0	484	420	
4	0	0	0	0	483	419	
5	0	0	0	0	483	419	
6	0	0	0	0	483	419	
7	0	0	0	0	483	419	
8	0	0	0	0	484	418	
9	0	0	0	0	487	419	
10	0	0	0	0	487	419	
11	0	0	0	0	488	420	
12	0	0	0	0	490	419	
13	0	0	0	0	492	418	
14	0	0	0	0	493	418	
15	0	0	0	0	494	418	
0	0	0	0	0	494	418	
1	0	0	0	0	493	419	
2	0	0	0	0	491	419	
3	0	0	0	0	489	420	
4	0	0	0	0	487	417	
5	0	0	0	0	485	418	
6	0	0	0	0	484	417	
7	0	0	0	0	484	418	
8	0	0	0	0	485	417	
9	0	0	0	0	485	418	
10	0	0	0	0	486	418	
11	0	0	0	0	487	419	
12	0	0	0	0	488	417	
13	0	0	0	0	489	417	
14	0	0	0	0	489	417	
15	0	0	0	0	490	417	
0	0	0	0	0	491	417	
1	0	0	0	0	491	417	
2	0	0	0	0	491	417	
3	0	0	0	0	491	418	
4	0	0	0	0	491	418	
5	0	0	0	0	489	417	
6	0	0	0	0	488	417	
7	0	0	0	0	487	417	
8	0	0	0	0	487	417	
9	0	0	0	0	487	417	
10	0	0	0	0	487	417	
11	0	0	0	0	488	418	
12	0	0	0	0	489	418	
13	0	0	0	0	491	417	
14	0	0	0	0	492	418	
15	0	0	0	0	491	417	
0	0	0	0	0	491	417	
1	0	0	0	0	491	417	
2	0	0	0	0	491	417	
3	0	0	0	0	492	419	
4	0	0	0	0	492	417	
5	0	0	0	0	493	418	
6	0	0	0	0	493	418	
7	0	0	0	0	493	417	
8	0	0	0	0	492	418	
9	0	0	0	0	492	418	
10	0	0	0	0	492	418	
11	0	0	0	0	492	419	
12	0	0	0	0	492	418	
13	0	0	0	0	493	417	
14	0	0	0	0	494	419	
15	0	0	0	0	496	417	
0	0	0	0	0	497	418	
1	0	0	0	0	497	418	
2	0	0	0	0	497	418	
3	0	0	0	0	497	419	
4	0	0	0	0	497	418	
5	0	0	0	0	498	418	
6	0	0	0	0	498	418	
7	0	0	0	0	497	418	
8	0	0	0	0	497	419	
9	0	0	0	0	497	418	
10	0	0	0	0	498	418	
11	0	0	0	0	498	418	
12	0	0	0	0	500	417	
13	0	0	0	0	500	417	
14	0	0	0	0	502	418	
15	0	0	0	0	504	417	
0	0	0	0	0	504	417	
1	0	0	0	0	503	418	
2	0	0	0	0	502	417	
3	0	0	0	0	501	419	
4	0	0	0	0	500	419	
5	0	0	0	0	500	418	
6	0	0	0	0	501	418	
7	0	0	0	0	501	417	
8	0	0	0	0	501	418	
9	0	0	0	0	501	418	
10	0	0	0	0	502	417	
11	0	0	0	0	503	417	
12	0	0	0	0	503	417	
13	0	0	0	0	502	417	
14	0	0	0	0	501	417	
15	0	0	0	0	501	417	
0	0	0	0	0	502	418	
1	0	0	0	0	503	418	
2	0	0	0	0	504	418	
3	0	0	0	0	505	418	
4	0	0	0	0	507	418	
5	0	0	0	0	506	418	
6	0	0	0	0	505	418	
7	0	0	0	0	505	417	
8	0	0	0	0	504	418	
9	0	0	0	0	504	418	
10	0	0	0	0	504	418	
11	0	0	0	0	505	419	
12	0	0	0	0	507	418	
13	0	0	0	0	509	418	
14	0	0	0	0	512	417	
15	0	0	0	0	512	416	
0	0	0	0	0	513	417	
1	0	0	0	0	513	416	
2	0	0	0	0	514	416	
3	0	0	0	0	514	415	
4	0	0	0	0	513	414	
5	0	0	0	0	513	413	
6	0	0	0	0	512	411	
7	0	0	0	0	513	410	
8	0	0	0	0	512	409	
9	0	0	0	0	511	409	
10	0	0	0	0	510	410	
11	0	0	0	0	509	410	
12	0	0	0	0	509	411	
13	0	0	0	0	508	412	
14	0	0	0	0	509	412	
15	0	0	0	0	510	414	
0	0	0	0	0	512	415	
1	0	0	0	0	514	417	
2	0	0	0	0	515	419	
3	0	0	0	0	516	421	
4	0	0	0	0	519	422	
5	0	0	0	0	519	423	
6	0	0	0	0	520	426	
7	0	0	0	0	523	427	
8	0	0	0	0	523	429	
9	0	0	0	0	523	431	
10	0	0	0	0	523	433	
11	0	0	0	0	523	434	
12	0	0	0	0	523	433	
13	0	0	0	0	524	435	
14	0	0	0	0	524	433	
15	0	0	0	0	521	433	
0	0	0	0	0	520	432	
1	0	0	0	0	520	430	
2	0	0	0	0	520	428	
3	0	0	0	0	520	428	
4	0	0	0	0	519	423	
5	0	0	0	0	520	422	
6	0	0	0	0	520	420	
7	0	0	0	0	521	418	
8	0	0	0	0	522	417	
9	0	0	0	0	521	415	
10	0	0	0	0	520	414	
11	0	0	0	0	519	414	
12	0	0	0	0	519	413	
13	0	0	0	0	519	413	
14	0	0	0	0	519	413	
15	0	0	0	0	520	413	
0	0	0	0	0	521	413	
1	0	0	0	0	521	414	
2	0	0	0	0	520	415	
3	0	0	0	0	520	416	
4	0	0	0	0	522	416	
5	0	0	0	0	523	416	
6	0	0	0	0	525	416	
7	0	0	0	0	527	417	
8	0	0	0	0	529	418	
9	0	0	0	0	530	419	
10	0	0	0	0	531	419	
11	0	0	0	0	533	421	
12	0	0	0	0	535	420	
13	0	0	0	0	535	421	
14	0	0	0	0	534	421	
15	0	0	0	0	534	421	
0	0	0	0	0	534	421	
1	0	0	0	0	535	420	
2	0	0	0	0	535	420	
3	0	0	0	0	536	419	
4	0	0	0	0	535	418	
5	0	0	0	0	535	418	
6	0	0	0	0	535	417	
7	0	0	0	0	535	416	
8	0	0	0	0	536	415	
9	0	0	0	0	536	415	
10	0	0	0	0	537	415	
11	0	0	0	0	537	414	
12	0	0	0	0	537	413	
13	0	0	0	0	538	413	
14	0	0	0	0	538	413	
15	0	0	0	0	538	413	
0	0	0	0	0	538	414	
1	0	0	0	0	537	414	
2	0	0	0	0	535	415	
3	0	0	0	0	534	416	
4	0	0	0	0	532	416	
5	0	0	0	0	531	416	
6	0	0	0	0	531	416	
7	0	0	0	0	532	416	
8	0	0	0	0	532	418	
9	0	0	0	0	532	418	
10	0	0	0	0	532	418	
11	0	0	0	0	533	419	
12	0	0	0	0	534	419	
13	0	0	0	0	534	420	
14	0	0	0	0	532	420	
15	0	0	0	0	531	420	
0	0	0	0	0	530	421	
1	0	0	0	0	530	422	
2	0	0	0	0	529	422	
3	0	0	0	0	528	423	
4	0	0	0	0	528	422	
5	0	0	0	0	528	422	
6	0	0	0	0	528	422	
7	0	0	0	0	527	422	
8	0	0	0	0	526	422	
9	0	0	0	0	525	422	
10	0	0	0	0	525	422	
11	0	0	0	0	525	423	
12	0	0	0	0	525	421	
13	0	0	0	0	526	421	
14	0	0	0	0	527	421	
15	0	0	0	0	528	421	
0	0	0	0	0	529	422	
1	0	0	0	0	529	422	
2	0	0	0	0	526	422	
3	0	0	0	0	526	422	
4	0	0	0	0	524	422	
5	0	0	0	0	524	422	
6	0	0	0	0	524	422	
7	0	0	0	0	524	421	
8	0	0	0	0	523	422	
9	0	0	0	0	523	422	
10	0	0	0	0	523	421	
11	0	0	0	0	522	422	
12	0	0	0	0	522	421	
13	0	0	0	0	522	419	
14	0	0	0	0	522	420	
15	0	0	0	0	522	419	
0	0	0	0	0	523	419	
1	0	0	0	0	522	418	
2	0	0	0	0	521	417	
3	0	0	0	0	520	417	
4	0	0	0	0	520	416	
5	0	0	0	0	519	416	
6	0	0	0	0	519	415	
7	0	0	0	0	519	415	
8	0	0	0	0	518	414	
9	0	0	0	0	518	414	
10	0	0	0	0	519	413	
11	0	0	0	0	520	415	
12	0	0	0	0	521	413	
13	0	0	0	0	521	413	
14	0	0	0	0	522	413	
15	0	0	0	0	523	412	
0	0	0	0	0	523	413	
1	0	0	0	0	524	413	
2	0	0	0	0	524	412	
3	0	0	0	0	524	413	
4	0	0	0	0	523	413	
5	0	0	0	0	524	413	
6	0	0	0	0	525	414	
7	0	0	0	0	525	413	
8	0	0	0	0	526	414	
9	0	0	0	0	527	414	
10	0	0	0	0	527	415	
11	0	0	0	0	527	416	
12	0	0	0	0	525	415	
13	0	0	0	0	524	416	
14	0	0	0	0	523	416	
15	0	0	0	0	523	415	
0	0	0	0	0	522	415	
1	0	0	0	0	521	416	
2	0	0	0	0	521	415	
3	0	0	0	0	522	416	
4	0	0	0	0	522	415	
5	0	0	0	0	522	416	
6	0	0	0	0	521	416	
7	0	0	0	0	521	415	
8	0	0	0	0	520	416	
9	0	0	0	0	520	416	
10	0	0	0	0	519	417	
11	0	0	0	0	518	418	
12	0	0	0	0	516	417	
13	0	0	0	0	516	417	
14	0	0	0	0	516	417	
15	0	0	0	0	515	417	
0	0	0	0	0	515	417	
1	0	0	0	0	516	418	
2	0	0	0	0	518	418	
3	0	0	0	0	519	419	
4	0	0	0	0	520	419	
5	0	0	0	0	519	419	
6	0	0	0	0	519	419	
7	0	0	0	0	519	420	
8	0	0	0	0	519	420	
9	0	0	0	0	519	420	
10	0	0	0	0	519	420	
11	0	0	0	0	520	421	
12	0	0	0	0	520	420	
13	0	0	0	0	520	421	
14	0	0	0	0	520	421	
15	0	0	0	0	519	421	
0	0	0	0	0	519	422	
1	0	0	0	0	518	422	
2	0	0	0	0	517	422	
3	0	0	0	0	517	423	
4	0	0	0	0	515	423	
5	0	0	0	0	515	422	
6	0	0	0	0	516	423	
7	0	0	0	0	517	421	
8	0	0	0	0	517	421	
9	0	0	0	0	517	421	
10	0	0	0	0	516	420	
11	0	0	0	0	514	422	
12	0	0	0	0	512	420	
13	0	0	0	0	511	419	
14	0	0	0	0	509	420	
15	0	0	0	0	509	419	
0	0	0	0	0	509	419	
1	0	0	0	0	510	419	
2	0	0	0	0	512	418	
3	0	0	0	0	513	419	
4	0	0	0	0	514	418	
5	0	0	0	0	513	417	
6	0	0	0	0	513	417	
7	0	0	0	0	513	417	
8	0	0	0	0	513	418	
9	0	0	0	0	512	417	
10	0	0	0	0	509	417	
11	0	0	0	0	507	418	
12	0	0	0	0	506	416	
13	0	0	0	0	505	416	
14	0	0	0	0	505	416	
15	0	0	0	0	505	416	
0	0	0	0	0	505	416	
1	0	0	0	0	504	415	
2	0	0	0	0	504	415	
3	0	0	0	0	504	417	
4	0	0	0	0	503	416	
5	0	0	0	0	504	417	
6	0	0	0	0	505	416	
7	0	0	0	0	507	415	
8	0	0	0	0	508	416	
9	0	0	0	0	509	417	
10	0	0	0	0	509	417	
11	0	0	0	0	508	418	
12	0	0	0	0	506	417	
13	0	0	0	0	505	417	
14	0	0	0	0	504	417	
15	0	0	0	0	503	417	
0	0	0	0	0	502	417	
1	0	0	0	0	501	417	
2	0	0	0	0	501	417	
3	0	0	0	0	502	418	
4	0	0	0	0	504	417	
5	0	0	0	0	505	417	
6	0	0	0	0	506	418	
7	0	0	0	0	507	417	
8	0	0	0	0	506	418	
9	0	0	0	0	507	418	
10	0	0	0	0	507	419	
11	0	0	0	0	505	419	
12	0	0	0	0	504	419	
13	0	0	0	0	504	419	
14	0	0	0	0	506	419	
15	0	0	0	0	509	419	
0	0	0	0	0	510	419	
1	0	0	0	0	511	419	
2	0	0	0	0	511	419	
3	0	0	0	0	512	420	
4	0	0	0	0	512	419	
5	0	0	0	0	512	419	
6	0	0	0	0	512	419	
7	0	0	0	0	512	419	
8	0	0	0	0	511	419	
9	0	0	0	0	511	420	
10	0	0	0	0	510	419	
11	0	0	0	0	510	420	
12	0	0	0	0	509	420	
13	0	0	0	0	508	420	
14	0	0	0	0	508	420	
15	0	0	0	0	507	420	
0	0	0	0	0	507	420	
1	0	0	0	0	508	420	
2	0	0	0	0	508	420	
3	0	0	0	0	509	420	
4	0	0	0	0	509	420	
5	0	0	0	0	509	420	
6	0	0	0	0	509	419	
7	0	0	0	0	508	419	
8	0	0	0	0	508	419	
9	0	0	0	0	508	419	
10	0	0	0	0	508	419	
11	0	0	0	0	507	420	
12	0	0	0	0	506	419	
13	0	0	0	0	507	419	
14	0	0	0	0	508	419	
15	0	0	0	0	507	419	
0	0	0	0	0	506	419	
1	0	0	0	0	504	419	
2	0	0	0	0	502	418	
3	0	0	0	0	499	419	
4	0	0	0	0	498	419	
5	0	0	0	0	497	419	
6	0	0	0	0	497	418	
7	0	0	0	0	498	418	
8	0	0	0	0	499	418	
9	0	0	0	0	501	417	
10	0	0	0	0	502	417	
11	0	0	0	0	503	418	
12	0	0	0	0	503	417	
13	0	0	0	0	504	417	
14	0	0	0	0	504	416	
15	0	0	0	0	504	416	
0	0	0	0	0	504	417	
1	0	0	0	0	504	417	
2	0	0	0	0	503	416	
3	0	0	0	0	502	417	
4	0	0	0	0	501	416	
5	0	0	0	0	501	416	
6	0	0	0	0	501	416	
7	0	0	0	0	501	417	
8	0	0	0	0	501	416	
9	0	0	0	0	500	416	
10	0	0	0	0	499	417	
11	0	0	0	0	496	417	
12	0	0	0	0	493	417	
13	0	0	0	0	492	417	
14	0	0	0	0	490	417	
15	0	0	0	0	489	417	
0	0	0	0	0	489	418	
1	0	0	0	0	492	418	
2	0	0	0	0	495	418	
3	0	0	0	0	497	419	
4	0	0	0	0	496	418	
5	0	0	0	0	494	418	
6	0	0	0	0	495	418	
7	0	0	0	0	497	418	
8	0	0	0	0	496	419	
9	0	0	0	0	494	418	
10	0	0	0	0	492	419	
11	0	0	0	0	492	420	
12	0	0	0	0	492	419	
13	0	0	0	0	492	419	
14	0	0	0	0	492	419	
15	0	0	0	0	492	419	
0	0	0	0	0	491	418	
1	0	0	0	0	491	419	
2	0	0	0	0	491	419	
3	0	0	0	0	491	419	
4	0	0	0	0	490	418	
5	0	0	0	0	489	418	
6	0	0	0	0	489	419	
7	0	0	0	0	488	418	
8	0	0	0	0	489	418	
9	0	0	0	0	490	417	
10	0	0	0	0	492	418	
11	0	0	0	0	493	419	
12	0	0	0	0	494	418	
13	0	0	0	0	496	417	
14	0	0	0	0	496	418	
15	0	0	0	0	494	417	
0	0	0	0	0	494	417	
1	0	0	0	0	494	417	
2	0	0	0	0	493	417	
3	0	0	0	0	492	417	
4	0	0	0	0	492	417	
5	0	0	0	0	492	418	
6	0	0	0	0	492	417	
7	0	0	0	0	492	417	
8	0	0	0	0	493	418	
9	0	0	0	0	494	418	
10	0	0	0	0	495	417	
11	0	0	0	0	495	419	
12	0	0	0	0	495	418	
13	0	0	0	0	495	418	
14	0	0	0	0	495	419	
15	0	0	0	0	496	418	
0	0	0	0	0	496	418	
1	0	0	0	0	497	418	
2	0	0	0	0	497	418	
3	0	0	0	0	497	419	
4	0	0	0	0	496	419	
5	0	0	0	0	494	418	
6	0	0	0	0	491	418	
7	0	0	0	0	486	417	
8	0	0	0	0	481	417	
9	0	0	0	0	477	417	
10	0	0	0	0	472	417	
11	0	0	0	0	468	418	
12	0	0	0	0	466	417	
13	0	0	0	0	464	416	
14	0	0	0	0	462	417	
15	0	0	0	0	460	416	
0	0	0	0	0	458	417	
1	0	0	0	0	455	416	
2	0	0	0	0	453	417	
3	0	0	0	0	451	417	
4	0	0	0	0	451	417	
5	0	0	0	0	451	417	
6	0	0	0	0	450	417	
7	0	0	0	0	450	417	
8	0	0	0	0	450	418	
9	0	0	0	0	449	418	
10	0	0	0	0	450	419	
11	0	0	0	0	451	419	
12	0	0	0	0	454	418	
13	0	0	0	0	459	418	
14	0	0	0	0	466	419	
15	0	0	0	0	477	419	
0	0	0	0	0	490	418	
1	0	0	0	0	506	418	
2	0	0	0	0	527	418	
3	0	0	0	0	548	419	
4	0	0	0	0	569	418	
5	0	0	0	0	591	419	
6	0	0	0	0	612	419	
7	0	0	0	0	633	417	
8	0	0	0	0	655	417	
9	0	0	0	0	678	418	
10	0	0	0	0	699	418	
11	0	0	0	0	715	419	
12	0	0	0	0	727	417	
13	0	0	0	0	737	417	
14	0	0	0	0	746	418	
15	0	0	0	0	754	417	
0	0	0	0	0	762	417	
1	0	0	0	0	767	418	
2	0	0	0	0	767	417	
3	0	0	0	0	764	418	
4	0	0	0	0	760	418	
5	0	0	0	0	755	418	
6	0	0	0	0	750	418	
7	0	0	0	0	742	418	
8	0	0	0	0	731	417	
9	0	0	0	0	718	418	
10	0	0	0	0	703	418	
11	0	0	0	0	688	419	
12	0	0	0	0	673	418	
13	0	0	0	0	657	418	
14	0	0	0	0	640	418	
15	0	0	0	0	623	418	
0	0	0	0	0	608	419	
1	0	0	0	0	593	419	
2	0	0	0	0	580	418	
3	0	0	0	0	568	419	
4	0	0	0	0	556	418	
5	0	0	0	0	545	419	
6	0	0	0	0	535	418	
7	0	0	0	0	526	418	
8	0	0	0	0	518	418	
9	0	0	0	0	510	418	
10	0	0	0	0	502	418	
11	0	0	0	0	495	419	
12	0	0	0	0	489	418	
13	0	0	0	0	483	418	
14	0	0	0	0	476	418	
15	0	0	0	0	472	418	
0	0	0	0	0	466	418	
1	0	0	0	0	462	419	
2	0	0	0	0	457	418	
3	0	0	0	0	454	419	
4	0	0	0	0	452	419	
5	0	0	0	0	450	419	
6	0	0	0	0	449	419	
7	0	0	0	0	448	419	
8	0	0	0	0	448	419	
9	0	0	0	0	448	419	
10	0	0	0	0	448	419	
11	0	0	0	0	447	419	
12	0	0	0	0	446	419	
13	0	0	0	0	445	419	
14	0	0	0	0	445	419	
15	0	0	0	0	445	419	
0	0	0	0	0	445	419	
1	0	0	0	0	445	419	
2	0	0	0	0	445	419	
3	0	0	0	0	445	419	
4	0	0	0	0	445	419	
5	0	0	0	0	445	419	
6	0	0	0	0	444	419	
7	0	0	0	0	444	418	
8	0	0	0	0	443	418	
9	0	0	0	0	443	418	
10	0	0	0	0	443	417	
11	0	0	0	0	443	419	
12	0	0	0	0	444	418	
13	0	0	0	0	444	418	
14	0	0	0	0	446	418	
15	0	0	0	0	447	418	
0	0	0	0	0	448	418	
1	0	0	0	0	448	418	
2	0	0	0	0	449	417	
3	0	0	0	0	450	419	
4	0	0	0	0	451	417	
5	0	0	0	0	452	418	
6	0	0	0	0	451	418	
7	0	0	0	0	452	418	
8	0	0	0	0	453	418	
9	0	0	0	0	452	417	
10	0	0	0	0	453	417	
11	0	0	0	0	454	419	
12	0	0	0	0	454	419	
13	0	0	0	0	454	418	
14	0	0	0	0	454	419	
15	0	0	0	0	455	418	
0	0	0	0	0	455	418	
1	0	0	0	0	456	419	
2	0	0	0	0	457	419	
3	0	0	0	0	458	419	
4	0	0	0	0	459	419	
5	0	0	0	0	460	418	
6	0	0	0	0	460	418	
7	0	0	0	0	460	418	
8	0	0	0	0	462	418	
9	0	0	0	0	463	418	
10	0	0	0	0	465	418	
11	0	0	0	0	467	419	
12	0	0	0	0	468	418	
13	0	0	0	0	469	418	
14	0	0	0	0	471	418	
15	0	0	0	0	472	418	
0	0	0	0	0	472	418	
1	0	0	0	0	471	418	
2	0	0	0	0	471	418	
3	0	0	0	0	472	419	
4	0	0	0	0	471	418	
5	0	0	0	0	471	419	
6	0	0	0	0	471	419	
7	0	0	0	0	471	418	
8	0	0	0	0	470	419	
9	0	0	0	0	469	419	
10	0	0	0	0	469	419	
11	0	0	0	0	469	419	
12	0	0	0	0	470	419	
13	0	0	0	0	471	419	
14	0	0	0	0	470	419	
15	0	0	0	0	471	419	
0	0	0	0	0	473	419	
1	0	0	0	0	475	419	
2	0	0	0	0	476	419	
3	0	0	0	0	476	420	
4	0	0	0	0	475	419	
5	0	0	0	0	473	419	
6	0	0	0	0	471	418	
7	0	0	0	0	469	418	
8	0	0	0	0	468	418	
9	0	0	0	0	469	418	
10	0	0	0	0	471	417	
11	0	0	0	0	472	418	
12	0	0	0	0	474	417	
13	0	0	0	0	475	417	
14	0	0	0	0	477	418	
15	0	0	0	0	480	418	
0	0	0	0	0	481	418	
1	0	0	0	0	481	418	
2	0	0	0	0	481	418	
3	0	0	0	0	480	418	
4	0	0	0	0	480	417	
5	0	0	0	0	481	417	
6	0	0	0	0	481	417	
7	0	0	0	0	480	417	
8	0	0	0	0	480	417	
9	0	0	0	0	482	417	
10	0	0	0	0	483	417	
11	0	0	0	0	484	418	
12	0	0	0	0	484	418	
13	0	0	0	0	485	418	
14	0	0	0	0	484	417	
15	0	0	0	0	482	417	
0	0	0	0	0	480	417	
1	0	0	0	0	480	417	
2	0	0	0	0	479	417	
3	0	0	0	0	479	418	
4	0	0	0	0	479	417	
5	0	0	0	0	480	417	
6	0	0	0	0	480	417	
7	0	0	0	0	480	416	
8	0	0	0	0	479	417	
9	0	0	0	0	478	417	
10	0	0	0	0	478	417	
11	0	0	0	0	476	418	
12	0	0	0	0	476	417	
13	0	0	0	0	476	417	
14	0	0	0	0	476	418	
15	0	0	0	0	476	417	
0	0	0	0	0	476	418	
1	0	0	0	0	478	418	
2	0	0	0	0	479	418	
3	0	0	0	0	478	419	
4	0	0	0	0	479	418	
5	0	0	0	0	479	418	
6	0	0	0	0	479	419	
7	0	0	0	0	479	417	
8	0	0	0	0	478	419	
9	0	0	0	0	476	418	
10	0	0	0	0	476	418	
11	0	0	0	0	478	419	
12	0	0	0	0	479	419	
13	0	0	0	0	481	419	
14	0	0	0	0	482	419	
15	0	0	0	0	483	419	
0	0	0	0	0	483	419	
1	0	0	0	0	484	418	
2	0	0	0	0	484	419	
3	0	0	0	0	483	419	
4	0	0	0	0	482	418	
5	0	0	0	0	481	419	
6	0	0	0	0	481	418	
7	0	0	0	0	481	418	
8	0	0	0	0	480	419	
9	0	0	0	0	481	418	
10	0	0	0	0	482	418	
11	0	0	0	0	481	418	
12	0	0	0	0	482	418	
13	0	0	0	0	482	418	
14	0	0	0	0	482	418	
15	0	0	0	0	483	419	
0	0	0	0	0	483	418	
1	0	0	0	0	485	418	
2	0	0	0	0	485	418	
3	0	0	0	0	486	419	
4	0	0	0	0	487	418	
5	0	0	0	0	487	418	
6	0	0	0	0	487	418	
7	0	0	0	0	487	418	
8	0	0	0	0	486	417	
9	0	0	0	0	486	418	
10	0	0	0	0	487	418	
11	0	0	0	0	487	419	
12	0	0	0	0	487	418	
13	0	0	0	0	486	417	
14	0	0	0	0	485	418	
15	0	0	0	0	485	417	
0	0	0	0	0	485	419	
1	0	0	0	0	485	418	
2	0	0	0	0	486	418	
3	0	0	0	0	487	419	
4	0	0	0	0	487	418	
5	0	0	0	0	488	418	
6	0	0	0	0	489	418	
7	0	0	0	0	491	418	
8	0	0	0	0	492	419	
9	0	0	0	0	492	419	
10	0	0	0	0	492	419	
11	0	0	0	0	493	419	
12	0	0	0	0	496	418	
13	0	0	0	0	497	419	
14	0	0	0	0	498	418	
15	0	0	0	0	498	418	
0	0	0	0	0	498	419	
1	0	0	0	0	499	419	
2	0	0	0	0	501	418	
3	0	0	0	0	501	419	
4	0	0	0	0	502	418	
5	0	0	0	0	503	418	
6	0	0	0	0	503	418	
7	0	0	0	0	504	418	
8	0	0	0	0	504	418	
9	0	0	0	0	504	419	
10	0	0	0	0	505	419	
11	0	0	0	0	505	419	
12	0	0	0	0	506	418	
13	0	0	0	0	506	418	
14	0	0	0	0	506	419	
15	0	0	0	0	505	419	
0	0	0	0	0	505	418	
1	0	0	0	0	505	419	
2	0	0	0	0	505	419	
3	0	0	0	0	506	419	
4	0	0	0	0	508	419	
5	0	0	0	0	508	419	
6	0	0	0	0	510	419	
7	0	0	0	0	511	419	
8	0	0	0	0	511	419	
9	0	0	0	0	512	419	
10	0	0	0	0	511	419	
11	0	0	0	0	511	419	
12	0	0	0	0	511	419	
13	0	0	0	0	511	419	
14	0	0	0	0	511	419	
15	0	0	0	0	512	419	
0	0	0	0	0	515	419	
1	0	0	0	0	514	419	
2	0	0	0	0	514	419	
3	0	0	0	0	514	420	
4	0	0	0	0	514	419	
5	0	0	0	0	515	419	
6	0	0	0	0	514	419	
7	0	0	0	0	515	418	
8	0	0	0	0	515	419	
9	0	0	0	0	516	419	
10	0	0	0	0	516	418	
11	0	0	0	0	516	419	
12	0	0	0	0	515	418	
13	0	0	0	0	515	419	
14	0	0	0	0	516	418	
15	0	0	0	0	517	418	
0	0	0	0	0	518	419	
1	0	0	0	0	519	418	
2	0	0	0	0	521	418	
3	0	0	0	0	522	419	
4	0	0	0	0	523	419	
5	0	0	0	0	523	418	
6	0	0	0	0	521	418	
7	0	0	0	0	520	419	
8	0	0	0	0	521	419	
9	0	0	0	0	522	419	
10	0	0	0	0	522	419	
11	0	0	0	0	523	419	
12	0	0	0	0	522	419	
13	0	0	0	0	521	419	
14	0	0	0	0	522	419	
15	0	0	0	0	523	418	
0	0	0	0	0	523	419	
1	0	0	0	0	522	419	
2	0	0	0	0	520	418	
3	0	0	0	0	521	418	
4	0	0	0	0	522	419	
5	0	0	0	0	523	418	
6	0	0	0	0	522	418	
7	0	0	0	0	522	417	
8	0	0	0	0	523	418	
9	0	0	0	0	523	418	
10	0	0	0	0	523	418	
11	0	0	0	0	523	420	
12	0	0	0	0	524	418	
13	0	0	0	0	524	419	
14	0	0	0	0	525	418	
15	0	0	0	0	526	418	
0	0	0	0	0	527	419	
1	0	0	0	0	527	419	
2	0	0	0	0	527	419	
3	0	0	0	0	526	419	
4	0	0	0	0	526	418	
5	0	0	0	0	524	419	
6	0	0	0	0	524	418	
7	0	0	0	0	524	418	
8	0	0	0	0	524	419	
9	0	0	0	0	526	418	
10	0	0	0	0	527	419	
11	0	0	0	0	526	419	
12	0	0	0	0	526	418	
13	0	0	0	0	526	418	
14	0	0	0	0	527	418	
15	0	0	0	0	527	418	
0	0	0	0	0	527	418	
1	0	0	0	0	528	418	
2	0	0	0	0	528	419	
3	0	0	0	0	529	419	
4	0	0	0	0	530	417	
5	0	0	0	0	530	418	
6	0	0	0	0	531	418	
7	0	0	0	0	531	418	
8	0	0	0	0	531	418	
9	0	0	0	0	530	418	
10	0	0	0	0	529	418	
11	0	0	0	0	528	419	
12	0	0	0	0	528	417	
13	0	0	0	0	528	418	
14	0	0	0	0	528	418	
15	0	0	0	0	528	417	
0	0	0	0	0	529	417	
1	0	0	0	0	530	417	
2	0	0	0	0	531	417	
3	0	0	0	0	531	418	
4	0	0	0	0	532	417	
5	0	0	0	0	531	417	
6	0	0	0	0	531	417	
7	0	0	0	0	531	417	
8	0	0	0	0	531	417	
9	0	0	0	0	529	418	
10	0	0	0	0	528	418	
11	0	0	0	0	528	418	
12	0	0	0	0	528	417	
13	0	0	0	0	528	418	
14	0	0	0	0	529	418	
15	0	0	0	0	529	417	
0	0	0	0	0	529	418	
1	0	0	0	0	528	418	
2	0	0	0	0	527	418	
3	0	0	0	0	527	418	
4	0	0	0	0	527	418	
5	0	0	0	0	526	418	
6	0	0	0	0	525	417	
7	0	0	0	0	526	417	
8	0	0	0	0	526	418	
9	0	0	0	0	525	418	
10	0	0	0	0	526	418	
11	0	0	0	0	526	419	
12	0	0	0	0	526	418	
13	0	0	0	0	528	418	
14	0	0	0	0	528	418	
15	0	0	0	0	528	418	
0	0	0	0	0	528	418	
1	0	0	0	0	529	418	
2	0	0	0	0	529	418	
3	0	0	0	0	528	419	
4	0	0	0	0	526	419	
5	0	0	0	0	525	419	
6	0	0	0	0	525	418	
7	0	0	0	0	525	418	
8	0	0	0	0	525	418	
9	0	0	0	0	525	418	
10	0	0	0	0	525	418	
11	0	0	0	0	525	419	
12	0	0	0	0	524	418	
13	0	0	0	0	524	419	
14	0	0	0	0	524	418	
15	0	0	0	0	523	418	
0	0	0	0	0	524	418	
1	0	0	0	0	524	418	
2	0	0	0	0	524	419	
3	0	0	0	0	525	419	
4	0	0	0	0	524	418	
5	0	0	0	0	525	418	
6	0	0	0	0	525	418	
7	0	0	0	0	525	417	
8	0	0	0	0	525	418	
9	0	0	0	0	524	418	
10	0	0	0	0	524	418	
11	0	0	0	0	523	419	
12	0	0	0	0	523	418	
13	0	0	0	0	523	418	
14	0	0	0	0	523	418	
15	0	0	0	0	523	418	
0	0	0	0	0	522	419	
1	0	0	0	0	522	419	
2	0	0	0	0	520	418	
3	0	0	0	0	521	419	
4	0	0	0	0	522	418	
5	0	0	0	0	523	417	
6	0	0	0	0	523	417	
7	0	0	0	0	524	417	
8	0	0	0	0	526	417	
9	0	0	0	0	527	417	
10	0	0	0	0	527	418	
11	0	0	0	0	527	419	
12	0	0	0	0	527	417	
13	0	0	0	0	527	418	
14	0	0	0	0	526	418	
15	0	0	0	0	526	417	
0	0	0	0	0	526	418	
1	0	0	0	0	526	418	
2	0	0	0	0	526	418	
3	0	0	0	0	526	418	
4	0	0	0	0	526	417	
5	0	0	0	0	527	418	
6	0	0	0	0	525	417	
7	0	0	0	0	523	418	
8	0	0	0	0	520	418	
9	0	0	0	0	519	418	
10	0	0	0	0	519	419	
11	0	0	0	0	519	418	
12	0	0	0	0	519	419	
13	0	0	0	0	519	417	
14	0	0	0	0	517	418	
15	0	0	0	0	517	417	
0	0	0	0	0	517	418	
1	0	0	0	0	518	418	
2	0	0	0	0	518	418	
3	0	0	0	0	519	419	
4	0	0	0	0	520	419	
5	0	0	0	0	521	419	
6	0	0	0	0	521	418	
7	0	0	0	0	522	419	
8	0	0	0	0	523	418	
9	0	0	0	0	523	418	
10	0	0	0	0	523	418	
11	0	0	0	0	523	419	
12	0	0	0	0	522	418	
13	0	0	0	0	522	418	
14	0	0	0	0	522	418	
15	0	0	0	0	521	418	
0	0	0	0	0	521	418	
1	0	0	0	0	522	418	
2	0	0	0	0	523	418	
3	0	0	0	0	524	419	
4	0	0	0	0	524	418	
5	0	0	0	0	523	418	
6	0	0	0	0	522	418	
7	0	0	0	0	520	418	
8	0	0	0	0	520	418	
9	0	0	0	0	520	419	
10	0	0	0	0	519	419	
11	0	0	0	0	518	419	
12	0	0	0	0	516	418	
13	0	0	0	0	515	418	
14	0	0	0	0	515	418	
15	0	0	0	0	514	418	
0	0	0	0	0	513	419	
1	0	0	0	0	514	419	
2	0	0	0	0	515	419	
3	0	0	0	0	517	419	
4	0	0	0	0	518	418	
5	0	0	0	0	519	418	
6	0	0	0	0	518	419	
7	0	0	0	0	516	418	
8	0	0	0	0	514	418	
9	0	0	0	0	513	418	
10	0	0	0	0	513	418	
11	0	0	0	0	513	419	
12	0	0	0	0	513	418	
13	0	0	0	0	514	418	
14	0	0	0	0	515	419	
15	0	0	0	0	517	418	
0	0	0	0	0	518	418	
1	0	0	0	0	518	419	
2	0	0	0	0	518	418	
3	0	0	0	0	518	419	
4	0	0	0	0	517	418	
5	0	0	0	0	517	418	
6	0	0	0	0	515	417	
7	0	0	0	0	515	417	
8	0	0	0	0	515	418	
9	0	0	0	0	516	418	
10	0	0	0	0	516	418	
11	0	0	0	0	515	419	
12	0	0	0	0	515	418	
13	0	0	0	0	514	418	
14	0	0	0	0	514	418	
15	0	0	0	0	515	418	
0	0	0	0	0	515	417	
1	0	0	0	0	516	418	
2	0	0	0	0	518	418	
3	0	0	0	0	518	418	
4	0	0	0	0	518	417	
5	0	0	0	0	519	418	
6	0	0	0	0	519	418	
7	0	0	0	0	519	417	
8	0	0	0	0	519	417	
9	0	0	0	0	519	418	
10	0	0	0	0	519	418	
11	0	0	0	0	519	419	
12	0	0	0	0	520	418	
13	0	0	0	0	521	417	
14	0	0	0	0	523	417	
15	0	0	0	0	524	417	
0	0	0	0	0	525	417	
1	0	0	0	0	525	417	
2	0	0	0	0	524	418	
3	0	0	0	0	524	419	
4	0	0	0	0	524	418	
5	0	0	0	0	523	418	
6	0	0	0	0	523	418	
7	0	0	0	0	522	417	
8	0	0	0	0	522	418	
9	0	0	0	0	522	418	
10	0	0	0	0	522	418	
11	0	0	0	0	523	419	
12	0	0	0	0	523	418	
13	0	0	0	0	524	417	
14	0	0	0	0	525	417	
15	0	0	0	0	525	417	
0	0	0	0	0	525	418	
1	0	0	0	0	526	417	
2	0	0	0	0	527	417	
3	0	0	0	0	526	419	
4	0	0	0	0	525	418	
5	0	0	0	0	524	418	
6	0	0	0	0	523	418	
7	0	0	0	0	523	418	
8	0	0	0	0	523	418	
9	0	0	0	0	521	418	
10	0	0	0	0	520	418	
11	0	0	0	0	519	419	
12	0	0	0	0	518	419	
13	0	0	0	0	517	419	
14	0	0	0	0	516	419	
15	0	0	0	0	515	418	
0	0	0	0	0	515	418	
1	0	0	0	0	515	418	
2	0	0	0	0	516	418	
3	0	0	0	0	516	419	
4	0	0	0	0	517	418	
5	0	0	0	0	517	418	
6	0	0	0	0	519	418	
7	0	0	0	0	518	418	
8	0	0	0	0	516	418	
9	0	0	0	0	515	418	
10	0	0	0	0	513	417	
11	0	0	0	0	512	419	
12	0	0	0	0	510	418	
13	0	0	0	0	507	418	
14	0	0	0	0	505	418	
15	0	0	0	0	504	417	
0	0	0	0	0	504	417	
1	0	0	0	0	505	417	
2	0	0	0	0	505	417	
3	0	0	0	0	507	419	
4	0	0	0	0	509	417	
5	0	0	0	0	512	419	
6	0	0	0	0	513	417	
7	0	0	0	0	513	417	
8	0	0	0	0	512	418	
9	0	0	0	0	512	418	
10	0	0	0	0	512	417	
11	0	0	0	0	512	418	
12	0	0	0	0	511	418	
13	0	0	0	0	508	418	
14	0	0	0	0	505	418	
15	0	0	0	0	503	417	
0	0	0	0	0	502	417	
1	0	0	0	0	501	418	
2	0	0	0	0	502	419	
3	0	0	0	0	503	418	
4	0	0	0	0	505	418	
5	0	0	0	0	507	419	
6	0	0	0	0	510	418	
7	0	0	0	0	511	418	
8	0	0	0	0	511	419	
9	0	0	0	0	511	419	
10	0	0	0	0	512	419	
11	0	0	0	0	512	419	
12	0	0	0	0	512	419	
13	0	0	0	0	512	419	
14	0	0	0	0	512	419	
15	0	0	0	0	512	419	
0	0	0	0	0	512	419	
1	0	0	0	0	511	419	
2	0	0	0	0	510	418	
3	0	0	0	0	511	419	
4	0	0	0	0	511	418	
5	0	0	0	0	512	418	
6	0	0	0	0	511	419	
7	0	0	0	0	510	418	
8	0	0	0	0	509	418	
9	0	0	0	0	509	419	
10	0	0	0	0	509	419	
11	0	0	0	0	509	419	
12	0	0	0	0	509	418	
13	0	0	0	0	508	418	
14	0	0	0	0	507	418	
15	0	0	0	0	506	417	
0	0	0	0	0	507	419	
1	0	0	0	0	508	418	
2	0	0	0	0	509	418	
3	0	0	0	0	512	419	
4	0	0	0	0	512	418	
5	0	0	0	0	512	418	
6	0	0	0	0	512	418	
7	0	0	0	0	512	419	
8	0	0	0	0	513	419	
9	0	0	0	0	514	419	
10	0	0	0	0	514	419	
11	0	0	0	0	514	419	
12	0	0	0	0	513	417	
13	0	0	0	0	512	418	
14	0	0	0	0	512	418	
15	0	0	0	0	510	417	
0	0	0	0	0	507	418	
1	0	0	0	0	503	417	
2	0	0	0	0	498	418	
3	0	0	0	0	494	419	
4	0	0	0	0	489	418	
5	0	0	0	0	486	419	
6	0	0	0	0	481	418	
7	0	0	0	0	478	417	
8	0	0	0	0	474	418	
9	0	0	0	0	473	417	
10	0	0	0	0	472	418	
11	0	0	0	0	470	419	
12	0	0	0	0	469	418	
13	0	0	0	0	467	418	
14	0	0	0	0	466	418	
15	0	0	0	0	465	418	
0	0	0	0	0	466	417	
1	0	0	0	0	466	418	
2	0	0	0	0	466	419	
3	0	0	0	0	466	419	
4	0	0	0	0	466	418	
5	0	0	0	0	467	417	
6	0	0	0	0	467	418	
7	0	0	0	0	467	418	
8	0	0	0	0	469	418	
9	0	0	0	0	473	418	
10	0	0	0	0	481	418	
11	0	0	0	0	492	418	
12	0	0	0	0	505	418	
13	0	0	0	0	521	418	
14	0	0	0	0	541	417	
15	0	0	0	0	561	418	
0	0	0	0	0	579	418	
1	0	0	0	0	597	418	
2	0	0	0	0	616	418	
3	0	0	0	0	636	419	
4	0	0	0	0	657	418	
5	0	0	0	0	679	418	
6	0	0	0	0	697	418	
7	0	0	0	0	713	417	
8	0	0	0	0	725	418	
9	0	0	0	0	735	418	
10	0	0	0	0	743	418	
11	0	0	0	0	753	419	
12	0	0	0	0	761	417	
13	0	0	0	0	765	417	
14	0	0	0	0	767	418	
15	0	0	0	0	767	418	
0	0	0	0	0	766	418	
1	0	0	0	0	762	418	
2	0	0	0	0	755	419	
3	0	0	0	0	744	419	
4	0	0	0	0	732	418	
5	0	0	0	0	719	417	
6	0	0	0	0	702	418	
7	0	0	0	0	684	418	
8	0	0	0	0	666	418	
9	0	0	0	0	648	418	
10	0	0	0	0	631	417	
11	0	0	0	0	614	419	
12	0	0	0	0	599	418	
13	0	0	0	0	585	417	
14	0	0	0	0	573	418	
15	0	0	0	0	560	418	
0	0	0	0	0	549	418	
1	0	0	0	0	538	418	
2	0	0	0	0	527	418	
3	0	0	0	0	518	418	
4	0	0	0	0	509	416	
5	0	0	0	0	502	416	
6	0	0	0	0	497	417	
7	0	0	0	0	491	417	
8	0	0	0	0	483	417	
9	0	0	0	0	477	417	
10	0	0	0	0	472	417	
11	0	0	0	0	467	418	
12	0	0	0	0	464	417	
13	0	0	0	0	461	417	
14	0	0	0	0	458	418	
15	0	0	0	0	456	417	
0	0	0	0	0	453	418	
1	0	0	0	0	451	418	
2	0	0	0	0	449	418	
3	0	0	0	0	447	419	
4	0	0	0	0	446	417	
5	0	0	0	0	444	418	
6	0	0	0	0	443	418	
7	0	0	0	0	443	417	
8	0	0	0	0	442	418	
9	0	0	0	0	442	417	
10	0	0	0	0	441	418	
11	0	0	0	0	441	418	
12	0	0	0	0	443	417	
13	0	0	0	0	444	417	
14	0	0	0	0	444	417	
15	0	0	0	0	445	417	
0	0	0	0	0	445	417	
1	0	0	0	0	444	417	
2	0	0	0	0	445	417	
3	0	0	0	0	445	419	
4	0	0	0	0	446	417	
5	0	0	0	0	445	417	
6	0	0	0	0	444	418	
7	0	0	0	0	444	417	
8	0	0	0	0	446	417	
9	0	0	0	0	446	418	
10	0	0	0	0	446	417	
11	0	0	0	0	446	419	
12	0	0	0	0	447	418	
13	0	0	0	0	447	417	
14	0	0	0	0	445	418	
15	0	0	0	0	445	417	
0	0	0	0	0	446	418	
1	0	0	0	0	447	417	
2	0	0	0	0	448	418	
3	0	0	0	0	450	419	
4	0	0	0	0	450	418	
5	0	0	0	0	451	418	
6	0	0	0	0	452	418	
7	0	0	0	0	454	418	
8	0	0	0	0	455	418	
9	0	0	0	0	456	418	
10	0	0	0	0	457	418	
11	0	0	0	0	458	418	
12	0	0	0	0	458	418	
13	0	0	0	0	459	418	
14	0	0	0	0	459	417	
15	0	0	0	0	458	417	
0	0	0	0	0	459	418	
1	0	0	0	0	460	418	
2	0	0	0	0	460	418	
3	0	0	0	0	461	418	
4	0	0	0	0	461	418	
5	0	0	0	0	462	417	
6	0	0	0	0	463	418	
7	0	0	0	0	464	418	
8	0	0	0	0	464	418	
9	0	0	0	0	466	417	
10	0	0	0	0	467	418	
11	0	0	0	0	468	418	
12	0	0	0	0	468	418	
13	0	0	0	0	469	418	
14	0	0	0	0	470	419	
15	0	0	0	0	471	418	
0	0	0	0	0	471	419	
1	0	0	0	0	471	418	
2	0	0	0	0	471	418	
3	0	0	0	0	470	419	
4	0	0	0	0	468	418	
5	0	0	0	0	468	418	
6	0	0	0	0	468	418	
7	0	0	0	0	469	418	
8	0	0	0	0	469	418	
9	0	0	0	0	469	418	
10	0	0	0	0	469	418	
11	0	0	0	0	468	419	
12	0	0	0	0	469	418	
13	0	0	0	0	470	419	
14	0	0	0	0	471	418	
15	0	0	0	0	471	418	
0	0	0	0	0	472	418	
1	0	0	0	0	472	418	
2	0	0	0	0	472	418	
3	0	0	0	0	472	419	
4	0	0	0	0	473	419	
5	0	0	0	0	474	419	
6	0	0	0	0	475	418	
7	0	0	0	0	476	417	
8	0	0	0	0	475	418	
9	0	0	0	0	475	418	
10	0	0	0	0	475	418	
11	0	0	0	0	475	419	
12	0	0	0	0	476	418	
13	0	0	0	0	476	417	
14	0	0	0	0	477	418	
15	0	0	0	0	478	418	
0	0	0	0	0	477	418	
1	0	0	0	0	478	418	
2	0	0	0	0	477	418	
3	0	0	0	0	478	419	
4	0	0	0	0	479	418	
5	0	0	0	0	480	418	
6	0	0	0	0	481	418	
7	0	0	0	0	480	418	
8	0	0	0	0	479	418	
9	0	0	0	0	479	418	
10	0	0	0	0	479	418	
11	0	0	0	0	478	419	
12	0	0	0	0	479	419	
13	0	0	0	0	480	419	
14	0	0	0	0	480	418	
15	0	0	0	0	481	418	
0	0	0	0	0	481	419	
1	0	0	0	0	482	418	
2	0	0	0	0	482	419	
3	0	0	0	0	482	419	
4	0	0	0	0	481	418	
5	0	0	0	0	482	419	
6	0	0	0	0	481	418	
7	0	0	0	0	481	418	
8	0	0	0	0	480	418	
9	0	0	0	0	479	419	
10	0	0	0	0	479	418	
11	0	0	0	0	478	419	
12	0	0	0	0	478	418	
13	0	0	0	0	478	418	
14	0	0	0	0	479	418	
15	0	0	0	0	480	417	
0	0	0	0	0	480	418	
1	0	0	0	0	480	418	
2	0	0	0	0	480	417	
3	0	0	0	0	480	419	
4	0	0	0	0	480	419	
5	0	0	0	0	480	418	
6	0	0	0	0	479	418	
7	0	0	0	0	479	418	
8	0	0	0	0	478	418	
9	0	0	0	0	477	418	
10	0	0	0	0	476	418	
11	0	0	0	0	475	419	
12	0	0	0	0	476	418	
13	0	0	0	0	476	418	
14	0	0	0	0	477	418	
15	0	0	0	0	477	417	
0	0	0	0	0	476	418	
1	0	0	0	0	476	418	
2	0	0	0	0	476	418	
3	0	0	0	0	476	419	
4	0	0	0	0	477	418	
5	0	0	0	0	479	417	
6	0	0	0	0	479	417	
7	0	0	0	0	479	417	
8	0	0	0	0	479	417	
9	0	0	0	0	479	418	
10	0	0	0	0	480	418	
11	0	0	0	0	480	418	
12	0	0	0	0	481	419	
13	0	0	0	0	481	418	
14	0	0	0	0	482	418	
15	0	0	0	0	482	418	
0	0	0	0	0	483	417	
1	0	0	0	0	483	417	
2	0	0	0	0	482	418	
3	0	0	0	0	482	419	
4	0	0	0	0	483	418	
5	0	0	0	0	484	418	
6	0	0	0	0	483	418	
7	0	0	0	0	483	417	
8	0	0	0	0	483	417	
9	0	0	0	0	483	418	
10	0	0	0	0	483	419	
11	0	0	0	0	484	418	
12	0	0	0	0	484	418	
13	0	0	0	0	485	418	
14	0	0	0	0	484	418	
15	0	0	0	0	483	417	
0	0	0	0	0	484	418	
1	0	0	0	0	485	418	
2	0	0	0	0	487	418	
3	0	0	0	0	489	418	
4	0	0	0	0	491	418	
5	0	0	0	0	492	417	
6	0	0	0	0	495	418	
7	0	0	0	0	498	417	
8	0	0	0	0	500	417	
9	0	0	0	0	502	417	
10	0	0	0	0	504	417	
11	0	0	0	0	504	418	
12	0	0	0	0	505	417	
13	0	0	0	0	507	417	
14	0	0	0	0	507	418	
15	0	0	0	0	507	417	
0	0	0	0	0	508	418	
1	0	0	0	0	507	418	
2	0	0	0	0	505	417	
3	0	0	0	0	505	417	
4	0	0	0	0	505	417	
5	0	0	0	0	505	417	
6	0	0	0	0	506	417	
7	0	0	0	0	508	418	
8	0	0	0	0	510	418	
9	0	0	0	0	511	418	
10	0	0	0	0	513	418	
11	0	0	0	0	512	419	
12	0	0	0	0	512	417	
13	0	0	0	0	511	418	
14	0	0	0	0	511	418	
15	0	0	0	0	511	418	
0	0	0	0	0	511	418	
1	0	0	0	0	511	418	
2	0	0	0	0	511	417	
3	0	0	0	0	511	419	
4	0	0	0	0	512	417	
5	0	0	0	0	515	417	
6	0	0	0	0	516	419	
7	0	0	0	0	517	418	
8	0	0	0	0	519	418	
9	0	0	0	0	520	418	
10	0	0	0	0	521	418	
11	0	0	0	0	522	419	
12	0	0	0	0	521	417	
13	0	0	0	0	521	419	
14	0	0	0	0	521	418	
15	0	0	0	0	522	417	
0	0	0	0	0	522	418	
1	0	0	0	0	523	418	
2	0	0	0	0	523	418	
3	0	0	0	0	523	419	
4	0	0	0	0	523	417	
5	0	0	0	0	524	418	
6	0	0	0	0	524	417	
7	0	0	0	0	525	418	
8	0	0	0	0	525	418	
9	0	0	0	0	525	418	
10	0	0	0	0	526	418	
11	0	0	0	0	527	419	
12	0	0	0	0	527	418	
13	0	0	0	0	527	418	
14	0	0	0	0	528	418	
15	0	0	0	0	529	418	
0	0	0	0	0	529	417	
1	0	0	0	0	530	418	
2	0	0	0	0	531	417	
3	0	0	0	0	532	418	
4	0	0	0	0	533	418	
5	0	0	0	0	533	417	
6	0	0	0	0	533	418	
7	0	0	0	0	533	418	
8	0	0	0	0	532	418	
9	0	0	0	0	532	417	
10	0	0	0	0	532	418	
11	0	0	0	0	534	418	
12	0	0	0	0	535	418	
13	0	0	0	0	535	418	
14	0	0	0	0	534	418	
15	0	0	0	0	534	417	
0	0	0	0	0	533	417	
1	0	0	0	0	533	418	
2	0	0	0	0	533	418	
3	0	0	0	0	532	418	
4	0	0	0	0	532	418	
5	0	0	0	0	532	418	
6	0	0	0	0	531	418	
7	0	0	0	0	531	417	
8	0	0	0	0	531	418	
9	0	0	0	0	531	418	
10	0	0	0	0	532	418	
11	0	0	0	0	534	418	
12	0	0	0	0	535	417	
13	0	0	0	0	535	417	
14	0	0	0	0	535	418	
15	0	0	0	0	534	417	
0	0	0	0	0	535	418	
1	0	0	0	0	535	418	
2	0	0	0	0	534	418	
3	0	0	0	0	535	419	
4	0	0	0	0	534	418	
5	0	0	0	0	534	419	
6	0	0	0	0	533	419	
7	0	0	0	0	532	418	
8	0	0	0	0	531	419	
9	0	0	0	0	531	419	
10	0	0	0	0	531	419	
11	0	0	0	0	529	419	
12	0	0	0	0	528	419	
13	0	0	0	0	528	418	
14	0	0	0	0	528	419	
15	0	0	0	0	528	419	
0	0	0	0	0	527	419	
1	0	0	0	0	528	419	
2	0	0	0	0	530	419	
3	0	0	0	0	532	419	
4	0	0	0	0	535	418	
5	0	0	0	0	536	418	
6	0	0	0	0	537	419	
7	0	0	0	0	537	417	
8	0	0	0	0	536	419	
9	0	0	0	0	536	418	
10	0	0	0	0	535	418	
11	0	0	0	0	535	419	
12	0	0	0	0	535	418	
13	0	0	0	0	534	418	
14	0	0	0	0	533	418	
15	0	0	0	0	533	418	
0	0	0	0	0	533	418	
1	0	0	0	0	534	418	
2	0	0	0	0	533	418	
3	0	0	0	0	533	419	
4	0	0	0	0	532	417	
5	0	0	0	0	532	418	
6	0	0	0	0	532	417	
7	0	0	0	0	531	417	
8	0	0	0	0	530	418	
9	0	0	0	0	529	417	
10	0	0	0	0	530	417	
11	0	0	0	0	530	417	
12	0	0	0	0	531	417	
13	0	0	0	0	532	417	
14	0	0	0	0	532	417	
15	0	0	0	0	532	417	
0	0	0	0	0	533	417	
1	0	0	0	0	533	417	
2	0	0	0	0	533	418	
3	0	0	0	0	533	418	
4	0	0	0	0	533	417	
5	0	0	0	0	533	417	
6	0	0	0	0	534	417	
7	0	0	0	0	535	417	
8	0	0	0	0	535	417	
9	0	0	0	0	535	417	
10	0	0	0	0	534	417	
11	0	0	0	0	533	418	
12	0	0	0	0	531	417	
13	0	0	0	0	529	417	
14	0	0	0	0	529	417	
15	0	0	0	0	528	417	
0	0	0	0	0	528	417	
1	0	0	0	0	529	417	
2	0	0	0	0	529	418	
3	0	0	0	0	529	418	
4	0	0	0	0	528	417	
5	0	0	0	0	528	418	
6	0	0	0	0	528	418	
7	0	0	0	0	528	417	
8	0	0	0	0	528	419	
9	0	0	0	0	528	418	
10	0	0	0	0	528	419	
11	0	0	0	0	528	419	
12	0	0	0	0	528	419	
13	0	0	0	0	528	418	
14	0	0	0	0	527	418	
15	0	0	0	0	527	418	
0	0	0	0	0	527	418	
1	0	0	0	0	526	418	
2	0	0	0	0	524	418	
3	0	0	0	0	523	419	
4	0	0	0	0	522	418	
5	0	0	0	0	521	419	
6	0	0	0	0	521	418	
7	0	0	0	0	522	418	
8	0	0	0	0	521	418	
9	0	0	0	0	522	418	
10	0	0	0	0	522	417	
11	0	0	0	0	522	419	
12	0	0	0	0	522	417	
13	0	0	0	0	523	417	
14	0	0	0	0	523	418	
15	0	0	0	0	523	418	
0	0	0	0	0	523	418	
1	0	0	0	0	523	418	
2	0	0	0	0	522	418	
3	0	0	0	0	522	419	
4	0	0	0	0	521	419	
5	0	0	0	0	521	418	
6	0	0	0	0	521	419	
7	0	0	0	0	520	418	
8	0	0	0	0	518	418	
9	0	0	0	0	517	418	
10	0	0	0	0	517	419	
11	0	0	0	0	518	419	
12	0	0	0	0	519	419	
13	0	0	0	0	520	418	
14	0	0	0	0	521	417	
15	0	0	0	0	521	417	
0	0	0	0	0	521	417	
1	0	0	0	0	522	418	
2	0	0	0	0	522	417	
3	0	0	0	0	521	418	
4	0	0	0	0	519	418	
5	0	0	0	0	518	418	
6	0	0	0	0	518	417	
7	0	0	0	0	517	417	
8	0	0	0	0	518	417	
9	0	0	0	0	518	417	
10	0	0	0	0	518	418	
11	0	0	0	0	517	419	
12	0	0	0	0	517	418	
13	0	0	0	0	516	418	
14	0	0	0	0	516	418	
15	0	0	0	0	515	418	
0	0	0	0	0	515	418	
1	0	0	0	0	515	418	
2	0	0	0	0	515	419	
3	0	0	0	0	515	419	
4	0	0	0	0	514	419	
5	0	0	0	0	515	419	
6	0	0	0	0	515	419	
7	0	0	0	0	515	418	
8	0	0	0	0	515	419	
9	0	0	0	0	513	419	
10	0	0	0	0	513	418	
11	0	0	0	0	512	419	
12	0	0	0	0	512	418	
13	0	0	0	0	512	418	
14	0	0	0	0	512	418	
15	0	0	0	0	513	417	
0	0	0	0	0	512	418	
1	0	0	0	0	513	417	
2	0	0	0	0	512	419	
3	0	0	0	0	512	419	
4	0	0	0	0	512	418	
5	0	0	0	0	512	419	
6	0	0	0	0	512	418	
7	0	0	0	0	512	418	
8	0	0	0	0	512	418	
9	0	0	0	0	513	419	
10	0	0	0	0	514	419	
11	0	0	0	0	514	420	
12	0	0	0	0	512	418	
13	0	0	0	0	511	418	
14	0	0	0	0	511	418	
15	0	0	0	0	511	418	
0	0	0	0	0	511	418	
1	0	0	0	0	510	418	
2	0	0	0	0	509	418	
3	0	0	0	0	509	419	
4	0	0	0	0	508	417	
5	0	0	0	0	508	418	
6	0	0	0	0	508	418	
7	0	0	0	0	508	417	
8	0	0	0	0	507	418	
9	0	0	0	0	504	418	
10	0	0	0	0	503	417	
11	0	0	0	0	503	418	
12	0	0	0	0	503	417	
13	0	0	0	0	503	417	
14	0	0	0	0	503	416	
15	0	0	0	0	504	417	
0	0	0	0	0	504	417	
1	0	0	0	0	506	417	
2	0	0	0	0	507	417	
3	0	0	0	0	507	418	
4	0	0	0	0	507	417	
5	0	0	0	0	507	417	
6	0	0	0	0	507	417	
7	0	0	0	0	506	417	
8	0	0	0	0	505	417	
9	0	0	0	0	504	417	
10	0	0	0	0	504	417	
11	0	0	0	0	504	418	
12	0	0	0	0	504	417	
13	0	0	0	0	504	417	
14	0	0	0	0	505	417	
15	0	0	0	0	505	418	
0	0	0	0	0	506	418	
1	0	0	0	0	507	417	
2	0	0	0	0	508	418	
3	0	0	0	0	509	419	
4	0	0	0	0	509	418	
5	0	0	0	0	510	418	
6	0	0	0	0	511	418	
7	0	0	0	0	512	419	
8	0	0	0	0	513	419	
9	0	0	0	0	514	419	
10	0	0	0	0	515	419	
11	0	0	0	0	515	419	
12	0	0	0	0	515	418	
13	0	0	0	0	514	419	
14	0	0	0	0	513	419	
15	0	0	0	0	513	418	
0	0	0	0	0	514	418	
1	0	0	0	0	513	418	
2	0	0	0	0	512	417	
3	0	0	0	0	511	419	
4	0	0	0	0	510	418	
5	0	0	0	0	509	417	
6	0	0	0	0	509	417	
7	0	0	0	0	510	417	
8	0	0	0	0	511	417	
9	0	0	0	0	512	418	
10	0	0	0	0	514	417	
11	0	0	0	0	515	417	
12	0	0	0	0	515	417	
13	0	0	0	0	514	417	
14	0	0	0	0	513	417	
15	0	0	0	0	514	416	
0	0	0	0	0	513	416	
1	0	0	0	0	513	417	
2	0	0	0	0	512	417	
3	0	0	0	0	511	417	
4	0	0	0	0	511	417	
5	0	0	0	0	510	417	
6	0	0	0	0	510	417	
7	0	0	0	0	510	417	
8	0	0	0	0	511	417	
9	0	0	0	0	511	417	
10	0	0	0	0	511	417	
11	0	0	0	0	512	418	
12	0	0	0	0	512	417	
13	0	0	0	0	512	417	
14	0	0	0	0	512	417	
15	0	0	0	0	511	416	
0	0	0	0	0	510	417	
1	0	0	0	0	508	417	
2	0	0	0	0	507	417	
3	0	0	0	0	507	418	
4	0	0	0	0	507	416	
5	0	0	0	0	507	417	
6	0	0	0	0	507	417	
7	0	0	0	0	506	417	
8	0	0	0	0	505	417	
9	0	0	0	0	505	417	
10	0	0	0	0	505	417	
11	0	0	0	0	506	418	
12	0	0	0	0	507	418	
13	0	0	0	0	506	417	
14	0	0	0	0	505	417	
15	0	0	0	0	506	417	
0	0	0	0	0	507	417	
1	0	0	0	0	507	417	
2	0	0	0	0	507	417	
3	0	0	0	0	508	419	
4	0	0	0	0	509	417	
5	0	0	0	0	509	418	
6	0	0	0	0	508	417	
7	0	0	0	0	506	418	
8	0	0	0	0	504	418	
9	0	0	0	0	503	418	
10	0	0	0	0	501	418	
11	0	0	0	0	501	419	
12	0	0	0	0	500	419	
13	0	0	0	0	500	418	
14	0	0	0	0	501	419	
15	0	0	0	0	502	418	
0	0	0	0	0	502	419	
1	0	0	0	0	502	418	
2	0	0	0	0	502	418	
3	0	0	0	0	503	419	
4	0	0	0	0	503	419	
5	0	0	0	0	504	418	
6	0	0	0	0	504	419	
7	0	0	0	0	504	418	
8	0	0	0	0	504	418	
9	0	0	0	0	505	418	
10	0	0	0	0	506	419	
11	0	0	0	0	507	419	
12	0	0	0	0	508	418	
13	0	0	0	0	509	419	
14	0	0	0	0	509	418	
15	0	0	0	0	510	418	
0	0	0	0	0	510	419	
1	0	0	0	0	510	418	
2	0	0	0	0	510	419	
3	0	0	0	0	510	419	
4	0	0	0	0	511	418	
5	0	0	0	0	511	419	
6	0	0	0	0	511	418	
7	0	0	0	0	510	418	
8	0	0	0	0	509	418	
9	0	0	0	0	509	418	
10	0	0	0	0	509	418	
11	0	0	0	0	509	418	
12	0	0	0	0	509	418	
13	0	0	0	0	509	418	
14	0	0	0	0	510	417	
15	0	0	0	0	510	417	
0	0	0	0	0	510	418	
1	0	0	0	0	512	418	
2	0	0	0	0	512	418	
3	0	0	0	0	512	419	
4	0	0	0	0	513	417	
5	0	0	0	0	512	418	
6	0	0	0	0	512	418	
7	0	0	0	0	513	417	
8	0	0	0	0	513	418	
9	0	0	0	0	513	418	
10	0	0	0	0	513	417	
11	0	0	0	0	512	419	
12	0	0	0	0	511	418	
13	0	0	0	0	508	419	
14	0	0	0	0	504	418	
15	0	0	0	0	500	418	
0	0	0	0	0	495	419	
1	0	0	0	0	491	419	
2	0	0	0	0	486	419	
3	0	0	0	0	483	419	
4	0	0	0	0	480	419	
5	0	0	0	0	477	419	
6	0	0	0	0	473	418	
7	0	0	0	0	470	418	
8	0	0	0	0	466	418	
9	0	0	0	0	463	419	
10	0	0	0	0	462	418	
11	0	0	0	0	460	419	
12	0	0	0	0	460	419	
13	0	0	0	0	459	418	
14	0	0	0	0	459	419	
15	0	0	0	0	460	417	
0	0	0	0	0	460	419	
1	0	0	0	0	459	418	
2	0	0	0	0	457	418	
3	0	0	0	0	457	419	
4	0	0	0	0	457	418	
5	0	0	0	0	459	418	
6	0	0	0	0	465	419	
7	0	0	0	0	474	418	
8	0	0	0	0	485	418	
9	0	0	0	0	499	418	
10	0	0	0	0	515	418	
11	0	0	0	0	535	419	
12	0	0	0	0	552	418	
13	0	0	0	0	568	417	
14	0	0	0	0	585	418	
15	0	0	0	0	605	417	
0	0	0	0	0	624	417	
1	0	0	0	0	644	418	
2	0	0	0	0	663	418	
3	0	0	0	0	680	418	
4	0	0	0	0	694	417	
5	0	0	0	0	705	417	
6	0	0	0	0	713	417	
7	0	0	0	0	722	417	
8	0	0	0	0	733	417	
9	0	0	0	0	741	418	
10	0	0	0	0	745	417	
11	0	0	0	0	747	418	
12	0	0	0	0	745	417	
13	0	0	0	0	743	417	
14	0	0	0	0	737	417	
15	0	0	0	0	729	417	
0	0	0	0	0	720	417	
1	0	0	0	0	708	417	
2	0	0	0	0	693	417	
3	0	0	0	0	677	418	
4	0	0	0	0	661	418	
5	0	0	0	0	645	417	
6	0	0	0	0	628	417	
7	0	0	0	0	613	417	
8	0	0	0	0	599	417	
9	0	0	0	0	585	418	
10	0	0	0	0	572	417	
11	0	0	0	0	560	418	
12	0	0	0	0	549	418	
13	0	0	0	0	537	417	
14	0	0	0	0	526	417	
15	0	0	0	0	515	417	
0	0	0	0	0	506	418	
1	0	0	0	0	498	418	
2	0	0	0	0	490	418	
3	0	0	0	0	483	418	
4	0	0	0	0	476	418	
5	0	0	0	0	469	417	
6	0	0	0	0	463	418	
7	0	0	0	0	459	417	
8	0	0	0	0	455	418	
9	0	0	0	0	451	418	
10	0	0	0	0	448	418	
11	0	0	0	0	446	419	
12	0	0	0	0	443	418	
13	0	0	0	0	442	419	
14	0	0	0	0	440	418	
15	0	0	0	0	438	417	
0	0	0	0	0	436	418	
1	0	0	0	0	435	418	
2	0	0	0	0	434	418	
3	0	0	0	0	433	418	
4	0	0	0	0	433	417	
5	0	0	0	0	432	417	
6	0	0	0	0	432	417	
7	0	0	0	0	432	417	
8	0	0	0	0	432	417	
9	0	0	0	0	432	417	
10	0	0	0	0	433	417	
11	0	0	0	0	433	418	
12	0	0	0	0	434	418	
13	0	0	0	0	435	418	
14	0	0	0	0	435	418	
15	0	0	0	0	435	417	
0	0	0	0	0	436	417	
1	0	0	0	0	436	417	
2	0	0	0	0	436	417	
3	0	0	0	0	437	418	
4	0	0	0	0	437	417	
5	0	0	0	0	438	417	
6	0	0	0	0	438	418	
7	0	0	0	0	439	416	
8	0	0	0	0	440	417	
9	0	0	0	0	440	417	
10	0	0	0	0	441	417	
11	0	0	0	0	441	418	
12	0	0	0	0	442	417	
13	0	0	0	0	443	417	
14	0	0	0	0	444	418	
15	0	0	0	0	444	417	
0	0	0	0	0	444	417	
1	0	0	0	0	444	417	
2	0	0	0	0	444	418	
3	0	0	0	0	446	418	
4	0	0	0	0	447	418	
5	0	0	0	0	447	418	
6	0	0	0	0	447	417	
7	0	0	0	0	446	417	
8	0	0	0	0	446	418	
9	0	0	0	0	447	418	
10	0	0	0	0	448	418	
11	0	0	0	0	449	419	
12	0	0	0	0	450	418	
13	0	0	0	0	451	418	
14	0	0	0	0	451	418	
15	0	0	0	0	452	418	
0	0	0	0	0	453	419	
1	0	0	0	0	454	418	
2	0	0	0	0	454	418	
3	0	0	0	0	453	419	
4	0	0	0	0	454	418	
5	0	0	0	0	454	418	
6	0	0	0	0	454	419	
7	0	0	0	0	454	418	
8	0	0	0	0	454	417	
9	0	0	0	0	455	418	
10	0	0	0	0	455	418	
11	0	0	0	0	455	419	
12	0	0	0	0	457	418	
13	0	0	0	0	459	418	
14	0	0	0	0	460	417	
15	0	0	0	0	461	416	
0	0	0	0	0	462	417	
1	0	0	0	0	463	417	
2	0	0	0	0	463	417	
3	0	0	0	0	464	418	
4	0	0	0	0	465	418	
5	0	0	0	0	465	418	
6	0	0	0	0	465	417	
7	0	0	0	0	465	417	
8	0	0	0	0	466	418	
9	0	0	0	0	467	418	
10	0	0	0	0	467	418	
11	0	0	0	0	469	418	
12	0	0	0	0	467	418	
13	0	0	0	0	465	418	
14	0	0	0	0	462	417	
15	0	0	0	0	460	418	
0	0	0	0	0	460	418	
1	0	0	0	0	460	419	
2	0	0	0	0	460	418	
3	0	0	0	0	462	419	
4	0	0	0	0	462	418	
5	0	0	0	0	462	418	
6	0	0	0	0	462	418	
7	0	0	0	0	463	418	
8	0	0	0	0	464	418	
9	0	0	0	0	465	419	
10	0	0	0	0	466	418	
11	0	0	0	0	467	418	
12	0	0	0	0	470	418	
13	0	0	0	0	471	419	
14	0	0	0	0	473	418	
15	0	0	0	0	474	418	
0	0	0	0	0	474	419	
1	0	0	0	0	474	419	
2	0	0	0	0	473	418	
3	0	0	0	0	471	420	
4	0	0	0	0	470	419	
5	0	0	0	0	470	418	
6	0	0	0	0	471	419	
7	0	0	0	0	472	418	
8	0	0	0	0	472	418	
9	0	0	0	0	473	418	
10	0	0	0	0	474	418	
11	0	0	0	0	475	419	
12	0	0	0	0	476	419	
13	0	0	0	0	476	418	
14	0	0	0	0	476	419	
15	0	0	0	0	476	418	
0	0	0	0	0	477	418	
1	0	0	0	0	478	417	
2	0	0	0	0	478	418	
3	0	0	0	0	479	418	
4	0	0	0	0	480	417	
5	0	0	0	0	480	418	
6	0	0	0	0	481	418	
7	0	0	0	0	482	417	
8	0	0	0	0	483	418	
9	0	0	0	0	482	419	
10	0	0	0	0	482	417	
11	0	0	0	0	483	419	
12	0	0	0	0	482	419	
13	0	0	0	0	482	418	
14	0	0	0	0	482	418	
15	0	0	0	0	483	418	
0	0	0	0	0	483	418	
1	0	0	0	0	483	417	
2	0	0	0	0	484	417	
3	0	0	0	0	485	419	
4	0	0	0	0	487	417	
5	0	0	0	0	487	417	
6	0	0	0	0	486	418	
7	0	0	0	0	486	417	
8	0	0	0	0	485	417	
9	0	0	0	0	486	418	
10	0	0	0	0	486	417	
11	0	0	0	0	486	418	
12	0	0	0	0	487	417	
13	0	0	0	0	487	417	
14	0	0	0	0	487	417	
15	0	0	0	0	487	417	
0	0	0	0	0	487	417	
1	0	0	0	0	488	418	
2	0	0	0	0	488	418	
3	0	0	0	0	489	419	
4	0	0	0	0	489	418	
5	0	0	0	0	490	418	
6	0	0	0	0	491	418	
7	0	0	0	0	492	417	
8	0	0	0	0	493	418	
9	0	0	0	0	493	418	
10	0	0	0	0	492	417	
11	0	0	0	0	492	418	
12	0	0	0	0	491	417	
13	0	0	0	0	490	417	
14	0	0	0	0	491	417	
15	0	0	0	0	491	417	
0	0	0	0	0	493	417	
1	0	0	0	0	494	418	
2	0	0	0	0	495	417	
3	0	0	0	0	496	419	
4	0	0	0	0	496	418	
5	0	0	0	0	496	417	
6	0	0	0	0	495	417	
7	0	0	0	0	496	417	
8	0	0	0	0	496	418	
9	0	0	0	0	497	418	
10	0	0	0	0	498	418	
11	0	0	0	0	499	419	
12	0	0	0	0	500	417	
13	0	0	0	0	500	417	
14	0	0	0	0	500	417	
15	0	0	0	0	502	417	
0	0	0	0	0	503	418	
1	0	0	0	0	504	417	
2	0	0	0	0	506	417	
3	0	0	0	0	508	418	
4	0	0	0	0	509	419	
5	0	0	0	0	509	417	
6	0	0	0	0	510	417	
7	0	0	0	0	511	417	
8	0	0	0	0	511	417	
9	0	0	0	0	511	418	
10	0	0	0	0	512	417	
11	0	0	0	0	512	418	
12	0	0	0	0	512	418	
13	0	0	0	0	512	417	
14	0	0	0	0	512	418	
15	0	0	0	0	513	417	
0	0	0	0	0	514	417	
1	0	0	0	0	514	417	
2	0	0	0	0	513	417	
3	0	0	0	0	513	418	
4	0	0	0	0	513	418	
5	0	0	0	0	512	417	
6	0	0	0	0	512	417	
7	0	0	0	0	512	417	
8	0	0	0	0	513	417	
9	0	0	0	0	514	417	
10	0	0	0	0	516	418	
11	0	0	0	0	516	418	
12	0	0	0	0	518	417	
13	0	0	0	0	519	418	
14	0	0	0	0	519	417	
15	0	0	0	0	519	417	
0	0	0	0	0	518	417	
1	0	0	0	0	518	417	
2	0	0	0	0	519	417	
3	0	0	0	0	519	418	
4	0	0	0	0	519	418	
5	0	0	0	0	521	417	
6	0	0	0	0	523	417	
7	0	0	0	0	524	417	
8	0	0	0	0	523	418	
9	0	0	0	0	520	418	
10	0	0	0	0	518	418	
11	0	0	0	0	517	418	
12	0	0	0	0	518	418	
13	0	0	0	0	519	417	
14	0	0	0	0	521	417	
15	0	0	0	0	522	416	
0	0	0	0	0	524	418	
1	0	0	0	0	526	418	
2	0	0	0	0	527	418	
3	0	0	0	0	527	418	
4	0	0	0	0	527	418	
5	0	0	0	0	527	418	
6	0	0	0	0	527	418	
7	0	0	0	0	527	417	
8	0	0	0	0	526	418	
9	0	0	0	0	525	417	
10	0	0	0	0	524	417	
11	0	0	0	0	523	419	
12	0	0	0	0	523	418	
13	0	0	0	0	524	418	
14	0	0	0	0	524	418	
15	0	0	0	0	525	418	
0	0	0	0	0	526	418	
1	0	0	0	0	527	418	
2	0	0	0	0	527	418	
3	0	0	0	0	526	418	
4	0	0	0	0	525	418	
5	0	0	0	0	525	419	
6	0	0	0	0	525	419	
7	0	0	0	0	526	418	
8	0	0	0	0	525	419	
9	0	0	0	0	526	419	
10	0	0	0	0	526	419	
11	0	0	0	0	526	419	
12	0	0	0	0	527	418	
13	0	0	0	0	527	418	
14	0	0	0	0	528	418	
15	0	0	0	0	527	419	
0	0	0	0	0	526	419	
1	0	0	0	0	526	419	
2	0	0	0	0	526	419	
3	0	0	0	0	526	419	
4	0	0	0	0	526	418	
5	0	0	0	0	526	419	
6	0	0	0	0	527	419	
7	0	0	0	0	527	418	
8	0	0	0	0	526	419	
9	0	0	0	0	526	419	
10	0	0	0	0	527	419	
11	0	0	0	0	527	419	
12	0	0	0	0	527	419	
13	0	0	0	0	526	418	
14	0	0	0	0	526	418	
15	0	0	0	0	527	418	
0	0	0	0	0	528	418	
1	0	0	0	0	528	417	
2	0	0	0	0	527	417	
3	0	0	0	0	526	419	
4	0	0	0	0	525	418	
5	0	0	0	0	526	418	
6	0	0	0	0	525	418	
7	0	0	0	0	524	418	
8	0	0	0	0	524	417	
9	0	0	0	0	523	419	
10	0	0	0	0	522	418	
11	0	0	0	0	523	419	
12	0	0	0	0	523	418	
13	0	0	0	0	525	418	
14	0	0	0	0	526	418	
15	0	0	0	0	527	418	
0	0	0	0	0	526	418	
1	0	0	0	0	526	417	
2	0	0	0	0	526	418	
3	0	0	0	0	525	418	
4	0	0	0	0	524	417	
5	0	0	0	0	524	417	
6	0	0	0	0	524	418	
7	0	0	0	0	524	418	
8	0	0	0	0	523	418	
9	0	0	0	0	522	418	
10	0	0	0	0	520	418	
11	0	0	0	0	520	419	
12	0	0	0	0	519	418	
13	0	0	0	0	519	418	
14	0	0	0	0	518	418	
15	0	0	0	0	518	417	
0	0	0	0	0	519	418	
1	0	0	0	0	519	418	
2	0	0	0	0	519	418	
3	0	0	0	0	520	419	
4	0	0	0	0	520	418	
5	0	0	0	0	520	418	
6	0	0	0	0	520	419	
7	0	0	0	0	520	418	
8	0	0	0	0	520	418	
9	0	0	0	0	521	418	
10	0	0	0	0	522	417	
11	0	0	0	0	522	419	
12	0	0	0	0	521	418	
13	0	0	0	0	520	418	
14	0	0	0	0	519	418	
15	0	0	0	0	519	417	
0	0	0	0	0	519	418	
1	0	0	0	0	519	419	
2	0	0	0	0	519	418	
3	0	0	0	0	517	419	
4	0	0	0	0	516	418	
5	0	0	0	0	515	418	
6	0	0	0	0	514	419	
7	0	0	0	0	514	418	
8	0	0	0	0	514	418	
9	0	0	0	0	515	419	
10	0	0	0	0	515	419	
11	0	0	0	0	514	419	
12	0	0	0	0	513	419	
13	0	0	0	0	512	418	
14	0	0	0	0	511	419	
15	0	0	0	0	511	418	
0	0	0	0	0	511	418	
1	0	0	0	0	512	418	
2	0	0	0	0	514	418	
3	0	0	0	0	514	419	
4	0	0	0	0	514	418	
5	0	0	0	0	512	418	
6	0	0	0	0	511	418	
7	0	0	0	0	510	417	
8	0	0	0	0	509	417	
9	0	0	0	0	510	417	
10	0	0	0	0	510	418	
11	0	0	0	0	512	418	
12	0	0	0	0	514	417	
13	0	0	0	0	514	417	
14	0	0	0	0	512	417	
15	0	0	0	0	510	416	
0	0	0	0	0	509	417	
1	0	0	0	0	508	417	
2	0	0	0	0	509	417	
3	0	0	0	0	510	418	
4	0	0	0	0	509	417	
5	0	0	0	0	509	418	
6	0	0	0	0	508	417	
7	0	0	0	0	508	416	
8	0	0	0	0	509	417	
9	0	0	0	0	510	417	
10	0	0	0	0	511	417	
11	0	0	0	0	512	418	
12	0	0	0	0	512	417	
13	0	0	0	0	512	417	
14	0	0	0	0	512	417	
15	0	0	0	0	512	417	
0	0	0	0	0	512	417	
1	0	0	0	0	511	418	
2	0	0	0	0	510	418	
3	0	0	0	0	510	418	
4	0	0	0	0	509	417	
5	0	0	0	0	508	417	
6	0	0	0	0	508	417	
7	0	0	0	0	509	417	
8	0	0	0	0	509	418	
9	0	0	0	0	509	417	
10	0	0	0	0	509	417	
11	0	0	0	0	508	418	
12	0	0	0	0	508	417	
13	0	0	0	0	508	418	
14	0	0	0	0	509	417	
15	0	0	0	0	509	418	
0	0	0	0	0	509	417	
1	0	0	0	0	510	418	
2	0	0	0	0	510	418	
3	0	0	0	0	510	418	
4	0	0	0	0	510	418	
5	0	0	0	0	508	418	
6	0	0	0	0	507	418	
7	0	0	0	0	508	418	
8	0	0	0	0	508	419	
9	0	0	0	0	509	417	
10	0	0	0	0	509	418	
11	0	0	0	0	511	419	
12	0	0	0	0	511	418	
13	0	0	0	0	511	418	
14	0	0	0	0	511	418	
15	0	0	0	0	511	417	
0	0	0	0	0	511	417	
1	0	0	0	0	510	418	
2	0	0	0	0	510	418	
3	0	0	0	0	511	419	
4	0	0	0	0	511	418	
5	0	0	0	0	511	418	
6	0	0	0	0	509	418	
7	0	0	0	0	508	418	
8	0	0	0	0	509	418	
9	0	0	0	0	508	418	
10	0	0	0	0	508	418	
11	0	0	0	0	508	419	
12	0	0	0	0	507	418	
13	0	0	0	0	507	417	
14	0	0	0	0	507	418	
15	0	0	0	0	507	418	
0	0	0	0	0	506	419	
1	0	0	0	0	505	418	
2	0	0	0	0	505	418	
3	0	0	0	0	504	418	
4	0	0	0	0	504	418	
5	0	0	0	0	503	418	
6	0	0	0	0	503	418	
7	0	0	0	0	503	417	
8	0	0	0	0	503	418	
9	0	0	0	0	504	418	
10	0	0	0	0	505	418	
11	0	0	0	0	504	419	
12	0	0	0	0	504	418	
13	0	0	0	0	504	418	
14	0	0	0	0	504	418	
15	0	0	0	0	504	418	
0	0	0	0	0	503	417	
1	0	0	0	0	502	419	
2	0	0	0	0	502	419	
3	0	0	0	0	502	419	
4	0	0	0	0	502	418	
5	0	0	0	0	502	418	
6	0	0	0	0	502	418	
7	0	0	0	0	502	418	
8	0	0	0	0	501	419	
9	0	0	0	0	500	418	
10	0	0	0	0	499	418	
11	0	0	0	0	497	419	
12	0	0	0	0	496	418	
13	0	0	0	0	496	418	
14	0	0	0	0	495	418	
15	0	0	0	0	495	418	
0	0	0	0	0	496	418	
1	0	0	0	0	497	418	
2	0	0	0	0	497	418	
3	0	0	0	0	498	419	
4	0	0	0	0	499	418	
5	0	0	0	0	499	418	
6	0	0	0	0	500	418	
7	0	0	0	0	500	417	
8	0	0	0	0	499	418	
9	0	0	0	0	500	418	
10	0	0	0	0	500	418	
11	0	0	0	0	502	419	
12	0	0	0	0	504	418	
13	0	0	0	0	503	417	
14	0	0	0	0	502	418	
15	0	0	0	0	502	418	
0	0	0	0	0	502	417	
1	0	0	0	0	503	418	
2	0	0	0	0	504	418	
3	0	0	0	0	506	419	
4	0	0	0	0	508	418	
5	0	0	0	0	509	418	
6	0	0	0	0	509	419	
7	0	0	0	0	508	418	
8	0	0	0	0	508	419	
9	0	0	0	0	509	418	
10	0	0	0	0	508	418	
11	0	0	0	0	508	419	
12	0	0	0	0	508	418	
13	0	0	0	0	507	418	
14	0	0	0	0	506	418	
15	0	0	0	0	505	418	
0	0	0	0	0	505	418	
1	0	0	0	0	505	418	
2	0	0	0	0	508	418	
3	0	0	0	0	511	418	
4	0	0	0	0	514	418	
5	0	0	0	0	515	418	
6	0	0	0	0	516	418	
7	0	0	0	0	516	418	
8	0	0	0	0	518	419	
9	0	0	0	0	519	417	
10	0	0	0	0	520	418	
11	0	0	0	0	521	419	
12	0	0	0	0	522	418	
13	0	0	0	0	522	418	
14	0	0	0	0	522	417	
15	0	0	0	0	522	417	
0	0	0	0	0	522	417	
1	0	0	0	0	522	418	
2	0	0	0	0	522	417	
3	0	0	0	0	521	418	
4	0	0	0	0	520	418	
5	0	0	0	0	520	418	
6	0	0	0	0	519	418	
7	0	0	0	0	519	417	
8	0	0	0	0	518	417	
9	0	0	0	0	518	417	
10	0	0	0	0	517	417	
11	0	0	0	0	516	418	
12	0	0	0	0	514	418	
13	0	0	0	0	512	418	
14	0	0	0	0	512	418	
15	0	0	0	0	512	418	
0	0	0	0	0	513	418	
1	0	0	0	0	513	418	
2	0	0	0	0	513	417	
3	0	0	0	0	513	419	
4	0	0	0	0	514	417	
5	0	0	0	0	515	417	
6	0	0	0	0	515	417	
7	0	0	0	0	514	417	
8	0	0	0	0	513	418	
9	0	0	0	0	512	417	
10	0	0	0	0	512	418	
11	0	0	0	0	512	418	
12	0	0	0	0	512	417	
13	0	0	0	0	511	418	
14	0	0	0	0	510	418	
15	0	0	0	0	509	417	
0	0	0	0	0	508	417	
1	0	0	0	0	508	417	
2	0	0	0	0	508	417	
3	0	0	0	0	508	419	
4	0	0	0	0	509	418	
5	0	0	0	0	509	417	
6	0	0	0	0	510	417	
7	0	0	0	0	510	417	
8	0	0	0	0	510	418	
9	0	0	0	0	508	417	
10	0	0	0	0	508	418	
11	0	0	0	0	508	419	
12	0	0	0	0	508	419	
13	0	0	0	0	507	418	
14	0	0	0	0	506	418	
15	0	0	0	0	506	418	
0	0	0	0	0	507	418	
1	0	0	0	0	509	418	
2	0	0	0	0	510	418	
3	0	0	0	0	511	419	
4	0	0	0	0	510	418	
5	0	0	0	0	508	419	
6	0	0	0	0	508	419	
7	0	0	0	0	508	418	
8	0	0	0	0	509	419	
9	0	0	0	0	510	419	
10	0	0	0	0	510	418	
11	0	0	0	0	512	419	
12	0	0	0	0	513	418	
13	0	0	0	0	513	418	
14	0	0	0	0	513	418	
15	0	0	0	0	512	418	
0	0	0	0	0	511	418	
1	0	0	0	0	509	418	
2	0	0	0	0	508	418	
3	0	0	0	0	508	419	
4	0	0	0	0	507	418	
5	0	0	0	0	507	418	
6	0	0	0	0	505	418	
7	0	0	0	0	504	418	
8	0	0	0	0	504	418	
9	0	0	0	0	505	418	
10	0	0	0	0	505	418	
11	0	0	0	0	504	419	
12	0	0	0	0	504	418	
13	0	0	0	0	504	417	
14	0	0	0	0	504	418	
15	0	0	0	0	505	418	
0	0	0	0	0	505	418	
1	0	0	0	0	506	418	
2	0	0	0	0	506	417	
3	0	0	0	0	507	419	
4	0	0	0	0	508	418	
5	0	0	0	0	509	418	
6	0	0	0	0	510	418	
7	0	0	0	0	510	417	
8	0	0	0	0	510	417	
9	0	0	0	0	510	418	
10	0	0	0	0	508	417	
11	0	0	0	0	506	419	
12	0	0	0	0	502	418	
13	0	0	0	0	498	417	
14	0	0	0	0	493	417	
15	0	0	0	0	489	418	
0	0	0	0	0	483	417	
1	0	0	0	0	478	417	
2	0	0	0	0	472	417	
3	0	0	0	0	466	418	
4	0	0	0	0	461	418	
5	0	0	0	0	457	418	
6	0	0	0	0	454	418	
7	0	0	0	0	452	417	
8	0	0	0	0	451	418	
9	0	0	0	0	452	418	
10	0	0	0	0	454	418	
11	0	0	0	0	458	418	
12	0	0	0	0	461	418	
13	0	0	0	0	464	417	
14	0	0	0	0	467	418	
15	0	0	0	0	469	418	
0	0	0	0	0	470	418	
1	0	0	0	0	471	418	
2	0	0	0	0	473	418	
3	0	0	0	0	475	419	
4	0	0	0	0	480	418	
5	0	0	0	0	487	418	
6	0	0	0	0	498	418	
7	0	0	0	0	511	417	
8	0	0	0	0	528	418	
9	0	0	0	0	548	418	
10	0	0	0	0	568	418	
11	0	0	0	0	587	419	
12	0	0	0	0	603	418	
13	0	0	0	0	619	418	
14	0	0	0	0	636	418	
15	0	0	0	0	654	418	
0	0	0	0	0	671	418	
1	0	0	0	0	688	418	
2	0	0	0	0	700	419	
3	0	0	0	0	709	419	
4	0	0	0	0	718	419	
5	0	0	0	0	723	419	
6	0	0	0	0	729	419	
7	0	0	0	0	733	419	
8	0	0	0	0	734	418	
9	0	0	0	0	731	419	
10	0	0	0	0	728	419	
11	0	0	0	0	723	419	
12	0	0	0	0	718	419	
13	0	0	0	0	710	418	
14	0	0	0	0	701	418	
15	0	0	0	0	691	417	
0	0	0	0	0	680	418	
1	0	0	0	0	668	418	
2	0	0	0	0	657	418	
3	0	0	0	0	646	419	
4	0	0	0	0	633	417	
5	0	0	0	0	619	417	
6	0	0	0	0	605	417	
7	0	0	0	0	592	416	
8	0	0	0	0	581	418	
9	0	0	0	0	570	417	
10	0	0	0	0	560	417	
11	0	0	0	0	551	418	
12	0	0	0	0	542	416	
13	0	0	0	0	534	418	
14	0	0	0	0	527	417	
15	0	0	0	0	519	417	
0	0	0	0	0	511	416	
1	0	0	0	0	503	417	
2	0	0	0	0	494	417	
3	0	0	0	0	488	418	
4	0	0	0	0	483	417	
5	0	0	0	0	479	417	
6	0	0	0	0	476	417	
7	0	0	0	0	473	417	
8	0	0	0	0	472	418	
9	0	0	0	0	471	417	
10	0	0	0	0	469	418	
11	0	0	0	0	467	418	
12	0	0	0	0	467	417	
13	0	0	0	0	465	417	
14	0	0	0	0	463	417	
15	0	0	0	0	463	417	
0	0	0	0	0	463	417	
1	0	0	0	0	462	417	
2	0	0	0	0	461	417	
3	0	0	0	0	460	418	
4	0	0	0	0	460	418	
5	0	0	0	0	458	418	
6	0	0	0	0	456	418	
7	0	0	0	0	454	418	
8	0	0	0	0	454	417	
9	0	0	0	0	455	417	
10	0	0	0	0	456	417	
11	0	0	0	0	456	418	
12	0	0	0	0	456	418	
13	0	0	0	0	455	418	
14	0	0	0	0	455	418	
15	0	0	0	0	455	417	
0	0	0	0	0	455	419	
1	0	0	0	0	455	418	
2	0	0	0	0	456	419	
3	0	0	0	0	457	419	
4	0	0	0	0	457	419	
5	0	0	0	0	458	418	
6	0	0	0	0	459	418	
7	0	0	0	0	460	418	
8	0	0	0	0	460	419	
9	0	0	0	0	461	419	
10	0	0	0	0	463	419	
11	0	0	0	0	463	419	
12	0	0	0	0	463	418	
13	0	0	0	0	463	419	
14	0	0	0	0	463	418	
15	0	0	0	0	464	419	
0	0	0	0	0	465	419	
1	0	0	0	0	467	419	
2	0	0	0	0	469	419	
3	0	0	0	0	471	419	
4	0	0	0	0	473	419	
5	0	0	0	0	475	418	
6	0	0	0	0	476	418	
7	0	0	0	0	477	418	
8	0	0	0	0	478	418	
9	0	0	0	0	478	418	
10	0	0	0	0	478	419	
11	0	0	0	0	478	418	
12	0	0	0	0	477	418	
13	0	0	0	0	477	418	
14	0	0	0	0	476	418	
15	0	0	0	0	477	418	
0	0	0	0	0	477	417	
1	0	0	0	0	479	418	
2	0	0	0	0	479	417	
3	0	0	0	0	478	418	
4	0	0	0	0	478	418	
5	0	0	0	0	478	417	
6	0	0	0	0	478	418	
7	0	0	0	0	479	417	
8	0	0	0	0	480	417	
9	0	0	0	0	480	417	
10	0	0	0	0	481	417	
11	0	0	0	0	482	419	
12	0	0	0	0	482	418	
13	0	0	0	0	483	417	
14	0	0	0	0	484	418	
15	0	0	0	0	486	417	
0	0	0	0	0	486	417	
1	0	0	0	0	486	418	
2	0	0	0	0	486	417	
3	0	0	0	0	487	418	
4	0	0	0	0	487	417	
5	0	0	0	0	488	417	
6	0	0	0	0	487	417	
7	0	0	0	0	488	416	
8	0	0	0	0	489	418	
9	0	0	0	0	489	417	
10	0	0	0	0	489	417	
11	0	0	0	0	488	418	
12	0	0	0	0	489	417	
13	0	0	0	0	489	418	
14	0	0	0	0	491	418	
15	0	0	0	0	491	417	
0	0	0	0	0	490	419	
1	0	0	0	0	488	418	
2	0	0	0	0	487	418	
3	0	0	0	0	487	419	
4	0	0	0	0	487	418	
5	0	0	0	0	488	419	
6	0	0	0	0	489	418	
7	0	0	0	0	490	418	
8	0	0	0	0	490	418	
9	0	0	0	0	490	418	
10	0	0	0	0	491	419	
11	0	0	0	0	492	419	
12	0	0	0	0	491	419	
13	0	0	0	0	491	419	
14	0	0	0	0	491	418	
15	0	0	0	0	492	419	
0	0	0	0	0	493	419	
1	0	0	0	0	494	418	
2	0	0	0	0	496	418	
3	0	0	0	0	497	419	
4	0	0	0	0	496	418	
5	0	0	0	0	496	417	
6	0	0	0	0	496	417	
7	0	0	0	0	496	418	
8	0	0	0	0	496	418	
9	0	0	0	0	495	418	
10	0	0	0	0	492	418	
11	0	0	0	0	490	419	
12	0	0	0	0	489	418	
13	0	0	0	0	489	418	
14	0	0	0	0	490	418	
15	0	0	0	0	490	417	
0	0	0	0	0	489	418	
1	0	0	0	0	490	418	
2	0	0	0	0	488	418	
3	0	0	0	0	489	419	
4	0	0	0	0	489	417	
5	0	0	0	0	488	418	
6	0	0	0	0	489	418	
7	0	0	0	0	489	417	
8	0	0	0	0	491	417	
9	0	0	0	0	492	417	
10	0	0	0	0	493	418	
11	0	0	0	0	494	418	
12	0	0	0	0	494	417	
13	0	0	0	0	494	417	
14	0	0	0	0	494	418	
15	0	0	0	0	493	417	
0	0	0	0	0	492	417	
1	0	0	0	0	491	417	
2	0	0	0	0	491	418	
3	0	0	0	0	491	418	
4	0	0	0	0	490	417	
5	0	0	0	0	490	417	
6	0	0	0	0	488	417	
7	0	0	0	0	489	417	
8	0	0	0	0	490	417	
9	0	0	0	0	490	418	
10	0	0	0	0	490	418	
11	0	0	0	0	488	418	
12	0	0	0	0	488	417	
13	0	0	0	0	487	417	
14	0	0	0	0	485	417	
15	0	0	0	0	485	418	
0	0	0	0	0	485	418	
1	0	0	0	0	485	417	
2	0	0	0	0	486	417	
3	0	0	0	0	487	418	
4	0	0	0	0	489	417	
5	0	0	0	0	490	418	
6	0	0	0	0	491	418	
7	0	0	0	0	491	417	
8	0	0	0	0	491	418	
9	0	0	0	0	492	418	
10	0	0	0	0	491	418	
11	0	0	0	0	491	419	
12	0	0	0	0	492	418	
13	0	0	0	0	492	418	
14	0	0	0	0	493	418	
15	0	0	0	0	492	417	
0	0	0	0	0	492	418	
1	0	0	0	0	493	418	
2	0	0	0	0	494	418	
3	0	0	0	0	494	419	
4	0	0	0	0	494	418	
5	0	0	0	0	495	418	
6	0	0	0	0	496	418	
7	0	0	0	0	495	417	
8	0	0	0	0	496	419	
9	0	0	0	0	496	418	
10	0	0	0	0	497	419	
11	0	0	0	0	497	419	
12	0	0	0	0	497	418	
13	0	0	0	0	496	419	
14	0	0	0	0	496	418	
15	0	0	0	0	496	417	
0	0	0	0	0	496	418	
1	0	0	0	0	496	418	
2	0	0	0	0	497	419	
3	0	0	0	0	496	418	
4	0	0	0	0	496	418	
5	0	0	0	0	496	418	
6	0	0	0	0	497	417	
7	0	0	0	0	498	417	
8	0	0	0	0	499	417	
9	0	0	0	0	501	417	
10	0	0	0	0	503	418	
11	0	0	0	0	504	418	
12	0	0	0	0	505	417	
13	0	0	0	0	505	417	
14	0	0	0	0	505	417	
15	0	0	0	0	505	417	
0	0	0	0	0	505	418	
1	0	0	0	0	504	418	
2	0	0	0	0	504	418	
3	0	0	0	0	503	418	
4	0	0	0	0	503	418	
5	0	0	0	0	504	418	
6	0	0	0	0	504	418	
7	0	0	0	0	504	418	
8	0	0	0	0	504	417	
9	0	0	0	0	504	418	
10	0	0	0	0	504	418	
11	0	0	0	0	504	418	
12	0	0	0	0	504	418	
13	0	0	0	0	505	418	
14	0	0	0	0	507	417	
15	0	0	0	0	507	418	
0	0	0	0	0	506	418	
1	0	0	0	0	505	418	
2	0	0	0	0	505	418	
3	0	0	0	0	505	418	
4	0	0	0	0	505	418	
5	0	0	0	0	505	418	
6	0	0	0	0	505	418	
7	0	0	0	0	505	418	
8	0	0	0	0	505	418	
9	0	0	0	0	505	418	
10	0	0	0	0	506	417	
11	0	0	0	0	506	419	
12	0	0	0	0	508	418	
13	0	0	0	0	509	417	
14	0	0	0	0	509	418	
15	0	0	0	0	509	417	
0	0	0	0	0	508	418	
1	0	0	0	0	508	418	
2	0	0	0	0	508	417	
3	0	0	0	0	508	418	
4	0	0	0	0	508	418	
5	0	0	0	0	509	418	
6	0	0	0	0	510	418	
7	0	0	0	0	511	418	
8	0	0	0	0	510	418	
9	0	0	0	0	511	418	
10	0	0	0	0	510	418	
11	0	0	0	0	510	418	
12	0	0	0	0	510	416	
13	0	0	0	0	511	417	
14	0	0	0	0	512	416	
15	0	0	0	0	513	416	
0	0	0	0	0	513	417	
1	0	0	0	0	514	417	
2	0	0	0	0	513	417	
3	0	0	0	0	513	417	
4	0	0	0	0	512	417	
5	0	0	0	0	513	417	
6	0	0	0	0	514	417	
7	0	0	0	0	515	417	
8	0	0	0	0	515	417	
9	0	0	0	0	516	417	
10	0	0	0	0	515	417	
11	0	0	0	0	515	418	
12	0	0	0	0	515	417	
13	0	0	0	0	515	417	
14	0	0	0	0	515	418	
15	0	0	0	0	516	418	
0	0	0	0	0	517	418	
1	0	0	0	0	517	418	
2	0	0	0	0	518	419	
3	0	0	0	0	518	419	
4	0	0	0	0	518	418	
5	0	0	0	0	518	419	
6	0	0	0	0	518	419	
7	0	0	0	0	517	419	
8	0	0	0	0	517	419	
9	0	0	0	0	516	419	
10	0	0	0	0	517	419	
11	0	0	0	0	516	419	
12	0	0	0	0	515	419	
13	0	0	0	0	513	419	
14	0	0	0	0	512	418	
15	0	0	0	0	512	419	
0	0	0	0	0	513	417	
1	0	0	0	0	513	419	
2	0	0	0	0	513	418	
3	0	0	0	0	513	419	
4	0	0	0	0	514	418	
5	0	0	0	0	514	418	
6	0	0	0	0	515	417	
7	0	0	0	0	515	417	
8	0	0	0	0	514	419	
9	0	0	0	0	514	418	
10	0	0	0	0	514	419	
11	0	0	0	0	514	419	
12	0	0	0	0	512	418	
13	0	0	0	0	512	418	
14	0	0	0	0	513	418	
15	0	0	0	0	514	417	
0	0	0	0	0	514	418	
1	0	0	0	0	513	418	
2	0	0	0	0	513	419	
3	0	0	0	0	513	419	
4	0	0	0	0	512	418	
5	0	0	0	0	512	418	
6	0	0	0	0	512	419	
7	0	0	0	0	512	418	
8	0	0	0	0	512	418	
9	0	0	0	0	512	417	
10	0	0	0	0	512	418	
11	0	0	0	0	512	419	
12	0	0	0	0	513	417	
13	0	0	0	0	513	419	
14	0	0	0	0	513	417	
15	0	0	0	0	513	418	
0	0	0	0	0	512	418	
1	0	0	0	0	511	418	
2	0	0	0	0	510	417	
3	0	0	0	0	509	419	
4	0	0	0	0	509	419	
5	0	0	0	0	510	418	
6	0	0	0	0	510	418	
7	0	0	0	0	511	417	
8	0	0	0	0	512	418	
9	0	0	0	0	512	418	
10	0	0	0	0	512	417	
11	0	0	0	0	512	419	
12	0	0	0	0	512	418	
13	0	0	0	0	513	417	
14	0	0	0	0	513	418	
15	0	0	0	0	514	417	
0	0	0	0	0	513	417	
1	0	0	0	0	512	417	
2	0	0	0	0	513	417	
3	0	0	0	0	513	418	
4	0	0	0	0	512	418	
5	0	0	0	0	511	417	
6	0	0	0	0	510	418	
7	0	0	0	0	508	417	
8	0	0	0	0	508	418	
9	0	0	0	0	508	418	
10	0	0	0	0	509	418	
11	0	0	0	0	509	419	
12	0	0	0	0	509	418	
13	0	0	0	0	510	417	
14	0	0	0	0	510	418	
15	0	0	0	0	510	418	
0	0	0	0	0	510	418	
1	0	0	0	0	510	418	
2	0	0	0	0	511	418	
3	0	0	0	0	509	419	
4	0	0	0	0	508	418	
5	0	0	0	0	508	418	
6	0	0	0	0	508	418	
7	0	0	0	0	508	418	
8	0	0	0	0	507	418	
9	0	0	0	0	506	418	
10	0	0	0	0	506	418	
11	0	0	0	0	506	419	
12	0	0	0	0	506	418	
13	0	0	0	0	507	418	
14	0	0	0	0	507	418	
15	0	0	0	0	505	417	
0	0	0	0	0	504	417	
1	0	0	0	0	505	418	
2	0	0	0	0	505	418	
3	0	0	0	0	506	419	
4	0	0	0	0	507	418	
5	0	0	0	0	507	417	
6	0	0	0	0	507	418	
7	0	0	0	0	507	418	
8	0	0	0	0	508	418	
9	0	0	0	0	508	418	
10	0	0	0	0	509	417	
11	0	0	0	0	511	418	
12	0	0	0	0	511	417	
13	0	0	0	0	512	418	
14	0	0	0	0	512	417	
15	0	0	0	0	512	417	
0	0	0	0	0	512	418	
1	0	0	0	0	511	418	
2	0	0	0	0	510	418	
3	0	0	0	0	510	419	
4	0	0	0	0	510	417	
5	0	0	0	0	510	418	
6	0	0	0	0	510	417	
7	0	0	0	0	510	417	
8	0	0	0	0	508	417	
9	0	0	0	0	507	417	
10	0	0	0	0	507	417	
11	0	0	0	0	508	418	
12	0	0	0	0	508	417	
13	0	0	0	0	509	417	
14	0	0	0	0	509	417	
15	0	0	0	0	510	417	
0	0	0	0	0	510	418	
1	0	0	0	0	510	418	
2	0	0	0	0	511	418	
3	0	0	0	0	511	419	
