# OpenSignals Text File Format. Version 1
# {"98:D3:91:FD:59:64": {"position": 0, "device": "bitalino_rev", "device name": "98:D3:91:FD:59:64", "device connection": "BTH98:D3:91:FD:59:64", "sampling rate": 1000, "resolution": [4, 1, 1, 1, 1, 10, 10], "firmware version": 1281, "comments": "", "keywords": "", "mode": 0, "sync interval": 2, "date": "2021-9-13", "time": "11:36:11.926", "channels": [2, 5], "sensor": ["RAW", "RAW"], "label": ["A2", "A5"], "column": ["nSeq", "I1", "I2", "O1", "O2", "A2", "A5"], "special": [{}, {}], "digital IO": [0, 0, 1, 1], "convertedValues": 0}}
# EndOfHeader
0	0	0	0	0	527	622	
1	0	0	0	0	527	622	
2	0	0	0	0	527	620	
3	0	0	0	0	527	623	
4	0	0	0	0	528	623	
5	0	0	0	0	529	623	
6	0	0	0	0	529	624	
7	0	0	0	0	530	623	
8	0	0	0	0	530	624	
9	0	0	0	0	530	624	
10	0	0	0	0	531	623	
11	0	0	0	0	531	624	
12	0	0	0	0	530	624	
13	0	0	0	0	530	624	
14	0	0	0	0	530	626	
15	0	0	0	0	530	625	
0	0	0	0	0	530	624	
1	0	0	0	0	531	625	
2	0	0	0	0	531	623	
3	0	0	0	0	532	625	
4	0	0	0	0	531	625	
5	0	0	0	0	531	625	
6	0	0	0	0	531	627	
7	0	0	0	0	531	625	
8	0	0	0	0	531	625	
9	0	0	0	0	532	625	
10	0	0	0	0	532	624	
11	0	0	0	0	532	625	
12	0	0	0	0	532	625	
13	0	0	0	0	532	625	
14	0	0	0	0	532	627	
15	0	0	0	0	532	625	
0	0	0	0	0	532	625	
1	0	0	0	0	532	625	
2	0	0	0	0	532	623	
3	0	0	0	0	531	625	
4	0	0	0	0	531	625	
5	0	0	0	0	531	624	
6	0	0	0	0	531	626	
7	0	0	0	0	531	625	
8	0	0	0	0	531	624	
9	0	0	0	0	531	624	
10	0	0	0	0	531	623	
11	0	0	0	0	531	624	
12	0	0	0	0	531	624	
13	0	0	0	0	531	624	
14	0	0	0	0	532	625	
15	0	0	0	0	532	624	
0	0	0	0	0	533	623	
1	0	0	0	0	533	623	
2	0	0	0	0	532	621	
3	0	0	0	0	532	623	
4	0	0	0	0	533	623	
5	0	0	0	0	533	622	
6	0	0	0	0	534	624	
7	0	0	0	0	534	623	
8	0	0	0	0	535	623	
9	0	0	0	0	535	623	
10	0	0	0	0	535	621	
11	0	0	0	0	534	622	
12	0	0	0	0	534	623	
13	0	0	0	0	534	623	
14	0	0	0	0	534	624	
15	0	0	0	0	534	623	
0	0	0	0	0	534	623	
1	0	0	0	0	534	622	
2	0	0	0	0	534	621	
3	0	0	0	0	533	622	
4	0	0	0	0	532	623	
5	0	0	0	0	531	623	
6	0	0	0	0	531	624	
7	0	0	0	0	530	623	
8	0	0	0	0	531	623	
9	0	0	0	0	531	623	
10	0	0	0	0	531	622	
11	0	0	0	0	532	623	
12	0	0	0	0	533	623	
13	0	0	0	0	533	623	
14	0	0	0	0	533	625	
15	0	0	0	0	534	624	
0	0	0	0	0	534	624	
1	0	0	0	0	534	624	
2	0	0	0	0	534	623	
3	0	0	0	0	533	625	
4	0	0	0	0	533	625	
5	0	0	0	0	534	625	
6	0	0	0	0	533	626	
7	0	0	0	0	533	625	
8	0	0	0	0	532	625	
9	0	0	0	0	533	625	
10	0	0	0	0	532	624	
11	0	0	0	0	532	625	
12	0	0	0	0	532	625	
13	0	0	0	0	533	625	
14	0	0	0	0	533	626	
15	0	0	0	0	533	625	
0	0	0	0	0	532	625	
1	0	0	0	0	532	625	
2	0	0	0	0	533	623	
3	0	0	0	0	534	625	
4	0	0	0	0	533	625	
5	0	0	0	0	533	625	
6	0	0	0	0	533	627	
7	0	0	0	0	533	626	
8	0	0	0	0	532	626	
9	0	0	0	0	532	626	
10	0	0	0	0	532	624	
11	0	0	0	0	531	625	
12	0	0	0	0	532	625	
13	0	0	0	0	533	625	
14	0	0	0	0	532	627	
15	0	0	0	0	532	626	
0	0	0	0	0	531	625	
1	0	0	0	0	532	625	
2	0	0	0	0	531	623	
3	0	0	0	0	531	625	
4	0	0	0	0	532	624	
5	0	0	0	0	532	625	
6	0	0	0	0	532	626	
7	0	0	0	0	533	625	
8	0	0	0	0	532	624	
9	0	0	0	0	532	624	
10	0	0	0	0	532	622	
11	0	0	0	0	532	624	
12	0	0	0	0	531	624	
13	0	0	0	0	531	624	
14	0	0	0	0	531	625	
15	0	0	0	0	531	623	
0	0	0	0	0	531	623	
1	0	0	0	0	531	623	
2	0	0	0	0	530	621	
3	0	0	0	0	530	623	
4	0	0	0	0	529	623	
5	0	0	0	0	529	623	
6	0	0	0	0	529	624	
7	0	0	0	0	530	622	
8	0	0	0	0	531	622	
9	0	0	0	0	531	622	
10	0	0	0	0	531	620	
11	0	0	0	0	531	622	
12	0	0	0	0	531	623	
13	0	0	0	0	531	622	
14	0	0	0	0	532	624	
15	0	0	0	0	532	622	
0	0	0	0	0	532	622	
1	0	0	0	0	531	622	
2	0	0	0	0	532	620	
3	0	0	0	0	532	622	
4	0	0	0	0	531	622	
5	0	0	0	0	531	621	
6	0	0	0	0	530	623	
7	0	0	0	0	530	621	
8	0	0	0	0	530	622	
9	0	0	0	0	530	622	
10	0	0	0	0	530	620	
11	0	0	0	0	530	621	
12	0	0	0	0	530	622	
13	0	0	0	0	529	622	
14	0	0	0	0	529	624	
15	0	0	0	0	529	622	
0	0	0	0	0	530	623	
1	0	0	0	0	530	622	
2	0	0	0	0	530	621	
3	0	0	0	0	530	622	
4	0	0	0	0	531	623	
5	0	0	0	0	531	623	
6	0	0	0	0	531	624	
7	0	0	0	0	532	623	
8	0	0	0	0	532	623	
9	0	0	0	0	532	623	
10	0	0	0	0	532	621	
11	0	0	0	0	532	623	
12	0	0	0	0	533	624	
13	0	0	0	0	532	624	
14	0	0	0	0	533	626	
15	0	0	0	0	533	624	
0	0	0	0	0	533	624	
1	0	0	0	0	533	625	
2	0	0	0	0	533	624	
3	0	0	0	0	533	625	
4	0	0	0	0	535	625	
5	0	0	0	0	535	625	
6	0	0	0	0	535	627	
7	0	0	0	0	536	626	
8	0	0	0	0	536	626	
9	0	0	0	0	536	626	
10	0	0	0	0	537	624	
11	0	0	0	0	538	625	
12	0	0	0	0	538	626	
13	0	0	0	0	538	625	
14	0	0	0	0	538	627	
15	0	0	0	0	538	625	
0	0	0	0	0	537	626	
1	0	0	0	0	537	626	
2	0	0	0	0	537	624	
3	0	0	0	0	538	626	
4	0	0	0	0	537	625	
5	0	0	0	0	537	626	
6	0	0	0	0	537	627	
7	0	0	0	0	536	625	
8	0	0	0	0	536	625	
9	0	0	0	0	536	625	
10	0	0	0	0	536	623	
11	0	0	0	0	536	624	
12	0	0	0	0	536	624	
13	0	0	0	0	536	624	
14	0	0	0	0	536	626	
15	0	0	0	0	536	625	
0	0	0	0	0	536	624	
1	0	0	0	0	536	624	
2	0	0	0	0	534	622	
3	0	0	0	0	535	624	
4	0	0	0	0	535	624	
5	0	0	0	0	535	624	
6	0	0	0	0	536	626	
7	0	0	0	0	536	624	
8	0	0	0	0	536	624	
9	0	0	0	0	537	623	
10	0	0	0	0	537	622	
11	0	0	0	0	537	623	
12	0	0	0	0	537	624	
13	0	0	0	0	536	623	
14	0	0	0	0	537	624	
15	0	0	0	0	537	623	
0	0	0	0	0	538	623	
1	0	0	0	0	537	622	
2	0	0	0	0	538	619	
3	0	0	0	0	537	622	
4	0	0	0	0	537	622	
5	0	0	0	0	537	622	
6	0	0	0	0	537	624	
7	0	0	0	0	537	622	
8	0	0	0	0	536	622	
9	0	0	0	0	537	622	
10	0	0	0	0	537	621	
11	0	0	0	0	538	622	
12	0	0	0	0	538	622	
13	0	0	0	0	538	622	
14	0	0	0	0	537	624	
15	0	0	0	0	536	622	
0	0	0	0	0	535	622	
1	0	0	0	0	533	622	
2	0	0	0	0	530	620	
3	0	0	0	0	527	622	
4	0	0	0	0	522	622	
5	0	0	0	0	517	623	
6	0	0	0	0	512	625	
7	0	0	0	0	507	623	
8	0	0	0	0	500	623	
9	0	0	0	0	493	623	
10	0	0	0	0	486	621	
11	0	0	0	0	479	623	
12	0	0	0	0	472	623	
13	0	0	0	0	467	623	
14	0	0	0	0	462	625	
15	0	0	0	0	459	623	
0	0	0	0	0	457	623	
1	0	0	0	0	459	623	
2	0	0	0	0	463	621	
3	0	0	0	0	469	624	
4	0	0	0	0	477	623	
5	0	0	0	0	489	624	
6	0	0	0	0	506	624	
7	0	0	0	0	524	623	
8	0	0	0	0	547	623	
9	0	0	0	0	569	623	
10	0	0	0	0	593	621	
11	0	0	0	0	617	622	
12	0	0	0	0	641	623	
13	0	0	0	0	664	623	
14	0	0	0	0	687	624	
15	0	0	0	0	709	623	
0	0	0	0	0	730	624	
1	0	0	0	0	752	623	
2	0	0	0	0	775	621	
3	0	0	0	0	798	623	
4	0	0	0	0	820	623	
5	0	0	0	0	838	623	
6	0	0	0	0	854	625	
7	0	0	0	0	867	624	
8	0	0	0	0	878	624	
9	0	0	0	0	887	624	
10	0	0	0	0	896	621	
11	0	0	0	0	902	624	
12	0	0	0	0	903	624	
13	0	0	0	0	896	624	
14	0	0	0	0	886	626	
15	0	0	0	0	871	624	
0	0	0	0	0	853	625	
1	0	0	0	0	834	625	
2	0	0	0	0	811	624	
3	0	0	0	0	787	625	
4	0	0	0	0	763	625	
5	0	0	0	0	738	625	
6	0	0	0	0	714	627	
7	0	0	0	0	690	625	
8	0	0	0	0	665	625	
9	0	0	0	0	639	626	
10	0	0	0	0	614	624	
11	0	0	0	0	593	625	
12	0	0	0	0	574	625	
13	0	0	0	0	559	626	
14	0	0	0	0	546	627	
15	0	0	0	0	534	625	
0	0	0	0	0	525	625	
1	0	0	0	0	518	625	
2	0	0	0	0	512	624	
3	0	0	0	0	507	625	
4	0	0	0	0	501	625	
5	0	0	0	0	497	624	
6	0	0	0	0	494	626	
7	0	0	0	0	491	625	
8	0	0	0	0	488	624	
9	0	0	0	0	486	625	
10	0	0	0	0	484	622	
11	0	0	0	0	482	624	
12	0	0	0	0	480	624	
13	0	0	0	0	479	624	
14	0	0	0	0	477	626	
15	0	0	0	0	476	624	
0	0	0	0	0	476	624	
1	0	0	0	0	475	624	
2	0	0	0	0	474	622	
3	0	0	0	0	473	624	
4	0	0	0	0	472	624	
5	0	0	0	0	471	624	
6	0	0	0	0	470	625	
7	0	0	0	0	470	624	
8	0	0	0	0	469	624	
9	0	0	0	0	468	624	
10	0	0	0	0	469	622	
11	0	0	0	0	469	624	
12	0	0	0	0	469	624	
13	0	0	0	0	470	623	
14	0	0	0	0	470	625	
15	0	0	0	0	469	623	
0	0	0	0	0	470	624	
1	0	0	0	0	471	624	
2	0	0	0	0	471	622	
3	0	0	0	0	471	624	
4	0	0	0	0	472	623	
5	0	0	0	0	471	623	
6	0	0	0	0	472	625	
7	0	0	0	0	472	623	
8	0	0	0	0	472	622	
9	0	0	0	0	472	623	
10	0	0	0	0	472	620	
11	0	0	0	0	472	623	
12	0	0	0	0	473	623	
13	0	0	0	0	474	622	
14	0	0	0	0	475	624	
15	0	0	0	0	475	622	
0	0	0	0	0	476	622	
1	0	0	0	0	476	623	
2	0	0	0	0	476	621	
3	0	0	0	0	477	622	
4	0	0	0	0	478	623	
5	0	0	0	0	478	623	
6	0	0	0	0	479	624	
7	0	0	0	0	480	623	
8	0	0	0	0	480	622	
9	0	0	0	0	480	623	
10	0	0	0	0	481	621	
11	0	0	0	0	481	622	
12	0	0	0	0	481	623	
13	0	0	0	0	481	623	
14	0	0	0	0	483	625	
15	0	0	0	0	484	624	
0	0	0	0	0	485	623	
1	0	0	0	0	486	624	
2	0	0	0	0	486	622	
3	0	0	0	0	486	624	
4	0	0	0	0	487	624	
5	0	0	0	0	486	624	
6	0	0	0	0	487	626	
7	0	0	0	0	487	624	
8	0	0	0	0	487	625	
9	0	0	0	0	487	625	
10	0	0	0	0	488	622	
11	0	0	0	0	488	625	
12	0	0	0	0	487	625	
13	0	0	0	0	488	624	
14	0	0	0	0	488	626	
15	0	0	0	0	488	624	
0	0	0	0	0	489	624	
1	0	0	0	0	489	624	
2	0	0	0	0	489	622	
3	0	0	0	0	490	624	
4	0	0	0	0	491	624	
5	0	0	0	0	491	625	
6	0	0	0	0	491	626	
7	0	0	0	0	492	624	
8	0	0	0	0	492	624	
9	0	0	0	0	493	624	
10	0	0	0	0	494	622	
11	0	0	0	0	494	623	
12	0	0	0	0	495	623	
13	0	0	0	0	495	623	
14	0	0	0	0	496	625	
15	0	0	0	0	497	623	
0	0	0	0	0	497	623	
1	0	0	0	0	497	623	
2	0	0	0	0	498	620	
3	0	0	0	0	498	622	
4	0	0	0	0	499	623	
5	0	0	0	0	499	623	
6	0	0	0	0	500	624	
7	0	0	0	0	500	622	
8	0	0	0	0	500	622	
9	0	0	0	0	501	622	
10	0	0	0	0	501	619	
11	0	0	0	0	501	621	
12	0	0	0	0	501	621	
13	0	0	0	0	502	622	
14	0	0	0	0	503	622	
15	0	0	0	0	503	621	
0	0	0	0	0	504	621	
1	0	0	0	0	505	621	
2	0	0	0	0	505	619	
3	0	0	0	0	505	620	
4	0	0	0	0	506	620	
5	0	0	0	0	506	620	
6	0	0	0	0	507	622	
7	0	0	0	0	507	620	
8	0	0	0	0	508	620	
9	0	0	0	0	509	620	
10	0	0	0	0	509	618	
11	0	0	0	0	509	620	
12	0	0	0	0	509	620	
13	0	0	0	0	509	620	
14	0	0	0	0	509	621	
15	0	0	0	0	510	620	
0	0	0	0	0	512	619	
1	0	0	0	0	513	620	
2	0	0	0	0	513	619	
3	0	0	0	0	514	620	
4	0	0	0	0	515	620	
5	0	0	0	0	516	620	
6	0	0	0	0	515	622	
7	0	0	0	0	515	621	
8	0	0	0	0	516	621	
9	0	0	0	0	516	620	
10	0	0	0	0	517	620	
11	0	0	0	0	517	621	
12	0	0	0	0	518	621	
13	0	0	0	0	519	622	
14	0	0	0	0	519	623	
15	0	0	0	0	519	622	
0	0	0	0	0	520	622	
1	0	0	0	0	521	623	
2	0	0	0	0	521	621	
3	0	0	0	0	522	623	
4	0	0	0	0	523	623	
5	0	0	0	0	523	624	
6	0	0	0	0	524	625	
7	0	0	0	0	525	624	
8	0	0	0	0	526	624	
9	0	0	0	0	527	624	
10	0	0	0	0	527	623	
11	0	0	0	0	528	625	
12	0	0	0	0	529	625	
13	0	0	0	0	530	625	
14	0	0	0	0	530	627	
15	0	0	0	0	531	625	
0	0	0	0	0	532	626	
1	0	0	0	0	533	625	
2	0	0	0	0	533	624	
3	0	0	0	0	534	626	
4	0	0	0	0	534	626	
5	0	0	0	0	534	626	
6	0	0	0	0	534	628	
7	0	0	0	0	534	626	
8	0	0	0	0	535	626	
9	0	0	0	0	535	626	
10	0	0	0	0	537	625	
11	0	0	0	0	537	626	
12	0	0	0	0	538	626	
13	0	0	0	0	539	626	
14	0	0	0	0	540	628	
15	0	0	0	0	540	627	
0	0	0	0	0	541	626	
1	0	0	0	0	540	626	
2	0	0	0	0	540	624	
3	0	0	0	0	540	626	
4	0	0	0	0	540	626	
5	0	0	0	0	540	626	
6	0	0	0	0	540	628	
7	0	0	0	0	540	626	
8	0	0	0	0	540	626	
9	0	0	0	0	540	626	
10	0	0	0	0	540	624	
11	0	0	0	0	540	625	
12	0	0	0	0	540	625	
13	0	0	0	0	540	625	
14	0	0	0	0	540	627	
15	0	0	0	0	540	625	
0	0	0	0	0	540	625	
1	0	0	0	0	540	625	
2	0	0	0	0	540	623	
3	0	0	0	0	540	625	
4	0	0	0	0	540	625	
5	0	0	0	0	540	625	
6	0	0	0	0	539	626	
7	0	0	0	0	539	624	
8	0	0	0	0	538	625	
9	0	0	0	0	538	624	
10	0	0	0	0	538	623	
11	0	0	0	0	537	624	
12	0	0	0	0	536	624	
13	0	0	0	0	536	624	
14	0	0	0	0	535	626	
15	0	0	0	0	535	625	
0	0	0	0	0	534	625	
1	0	0	0	0	534	625	
2	0	0	0	0	533	623	
3	0	0	0	0	533	624	
4	0	0	0	0	533	625	
5	0	0	0	0	533	624	
6	0	0	0	0	533	626	
7	0	0	0	0	532	625	
8	0	0	0	0	532	625	
9	0	0	0	0	531	624	
10	0	0	0	0	531	624	
11	0	0	0	0	531	624	
12	0	0	0	0	530	625	
13	0	0	0	0	530	624	
14	0	0	0	0	529	626	
15	0	0	0	0	528	624	
0	0	0	0	0	527	624	
1	0	0	0	0	527	625	
2	0	0	0	0	526	623	
3	0	0	0	0	525	625	
4	0	0	0	0	524	624	
5	0	0	0	0	523	624	
6	0	0	0	0	522	626	
7	0	0	0	0	521	624	
8	0	0	0	0	520	624	
9	0	0	0	0	520	624	
10	0	0	0	0	519	622	
11	0	0	0	0	519	624	
12	0	0	0	0	518	623	
13	0	0	0	0	517	623	
14	0	0	0	0	516	624	
15	0	0	0	0	515	623	
0	0	0	0	0	515	623	
1	0	0	0	0	515	622	
2	0	0	0	0	515	620	
3	0	0	0	0	515	622	
4	0	0	0	0	515	622	
5	0	0	0	0	515	623	
6	0	0	0	0	514	624	
7	0	0	0	0	513	623	
8	0	0	0	0	513	623	
9	0	0	0	0	512	623	
10	0	0	0	0	513	622	
11	0	0	0	0	512	623	
12	0	0	0	0	512	623	
13	0	0	0	0	511	624	
14	0	0	0	0	511	625	
15	0	0	0	0	510	623	
0	0	0	0	0	510	624	
1	0	0	0	0	509	624	
2	0	0	0	0	510	622	
3	0	0	0	0	509	624	
4	0	0	0	0	510	624	
5	0	0	0	0	510	624	
6	0	0	0	0	510	626	
7	0	0	0	0	509	624	
8	0	0	0	0	508	624	
9	0	0	0	0	508	624	
10	0	0	0	0	507	622	
11	0	0	0	0	508	624	
12	0	0	0	0	508	624	
13	0	0	0	0	508	624	
14	0	0	0	0	508	626	
15	0	0	0	0	508	624	
0	0	0	0	0	508	624	
1	0	0	0	0	507	624	
2	0	0	0	0	508	623	
3	0	0	0	0	508	624	
4	0	0	0	0	508	624	
5	0	0	0	0	509	624	
6	0	0	0	0	509	625	
7	0	0	0	0	508	624	
8	0	0	0	0	508	624	
9	0	0	0	0	508	625	
10	0	0	0	0	508	623	
11	0	0	0	0	508	624	
12	0	0	0	0	508	624	
13	0	0	0	0	509	624	
14	0	0	0	0	508	625	
15	0	0	0	0	509	624	
0	0	0	0	0	509	624	
1	0	0	0	0	509	624	
2	0	0	0	0	510	623	
3	0	0	0	0	510	624	
4	0	0	0	0	511	624	
5	0	0	0	0	512	623	
6	0	0	0	0	512	625	
7	0	0	0	0	512	624	
8	0	0	0	0	512	624	
9	0	0	0	0	512	624	
10	0	0	0	0	512	622	
11	0	0	0	0	511	623	
12	0	0	0	0	511	623	
13	0	0	0	0	510	623	
14	0	0	0	0	510	625	
15	0	0	0	0	510	624	
0	0	0	0	0	511	623	
1	0	0	0	0	511	623	
2	0	0	0	0	511	622	
3	0	0	0	0	511	624	
4	0	0	0	0	511	623	
5	0	0	0	0	511	623	
6	0	0	0	0	511	625	
7	0	0	0	0	511	624	
8	0	0	0	0	511	624	
9	0	0	0	0	511	624	
10	0	0	0	0	512	622	
11	0	0	0	0	513	625	
12	0	0	0	0	512	625	
13	0	0	0	0	513	624	
14	0	0	0	0	513	626	
15	0	0	0	0	512	625	
0	0	0	0	0	512	625	
1	0	0	0	0	512	625	
2	0	0	0	0	512	623	
3	0	0	0	0	512	625	
4	0	0	0	0	512	625	
5	0	0	0	0	512	625	
6	0	0	0	0	513	627	
7	0	0	0	0	513	625	
8	0	0	0	0	513	626	
9	0	0	0	0	514	625	
10	0	0	0	0	515	624	
11	0	0	0	0	515	625	
12	0	0	0	0	515	625	
13	0	0	0	0	515	625	
14	0	0	0	0	515	626	
15	0	0	0	0	515	624	
0	0	0	0	0	515	625	
1	0	0	0	0	516	625	
2	0	0	0	0	517	624	
3	0	0	0	0	517	625	
4	0	0	0	0	517	625	
5	0	0	0	0	516	625	
6	0	0	0	0	516	626	
7	0	0	0	0	516	625	
8	0	0	0	0	515	625	
9	0	0	0	0	515	625	
10	0	0	0	0	515	623	
11	0	0	0	0	515	625	
12	0	0	0	0	515	624	
13	0	0	0	0	515	625	
14	0	0	0	0	515	627	
15	0	0	0	0	515	625	
0	0	0	0	0	515	624	
1	0	0	0	0	516	625	
2	0	0	0	0	516	623	
3	0	0	0	0	515	625	
4	0	0	0	0	515	625	
5	0	0	0	0	515	625	
6	0	0	0	0	516	626	
7	0	0	0	0	515	625	
8	0	0	0	0	516	625	
9	0	0	0	0	515	624	
10	0	0	0	0	515	623	
11	0	0	0	0	515	624	
12	0	0	0	0	515	624	
13	0	0	0	0	515	625	
14	0	0	0	0	515	627	
15	0	0	0	0	516	624	
0	0	0	0	0	516	624	
1	0	0	0	0	516	625	
2	0	0	0	0	517	622	
3	0	0	0	0	517	624	
4	0	0	0	0	517	624	
5	0	0	0	0	517	624	
6	0	0	0	0	517	625	
7	0	0	0	0	517	624	
8	0	0	0	0	517	624	
9	0	0	0	0	517	624	
10	0	0	0	0	517	622	
11	0	0	0	0	517	624	
12	0	0	0	0	517	623	
13	0	0	0	0	516	623	
14	0	0	0	0	517	625	
15	0	0	0	0	516	623	
0	0	0	0	0	516	623	
1	0	0	0	0	517	623	
2	0	0	0	0	518	620	
3	0	0	0	0	518	622	
4	0	0	0	0	517	622	
5	0	0	0	0	518	622	
6	0	0	0	0	518	624	
7	0	0	0	0	518	622	
8	0	0	0	0	517	622	
9	0	0	0	0	517	622	
10	0	0	0	0	517	620	
11	0	0	0	0	516	622	
12	0	0	0	0	517	622	
13	0	0	0	0	518	622	
14	0	0	0	0	518	624	
15	0	0	0	0	517	622	
0	0	0	0	0	517	622	
1	0	0	0	0	517	622	
2	0	0	0	0	517	621	
3	0	0	0	0	517	622	
4	0	0	0	0	516	623	
5	0	0	0	0	517	622	
6	0	0	0	0	517	624	
7	0	0	0	0	516	622	
8	0	0	0	0	516	623	
9	0	0	0	0	516	622	
10	0	0	0	0	516	621	
11	0	0	0	0	516	622	
12	0	0	0	0	516	623	
13	0	0	0	0	516	622	
14	0	0	0	0	516	624	
15	0	0	0	0	516	622	
0	0	0	0	0	517	623	
1	0	0	0	0	517	623	
2	0	0	0	0	517	621	
3	0	0	0	0	517	623	
4	0	0	0	0	518	623	
5	0	0	0	0	518	622	
6	0	0	0	0	517	624	
7	0	0	0	0	517	622	
8	0	0	0	0	516	622	
9	0	0	0	0	516	623	
10	0	0	0	0	515	620	
11	0	0	0	0	515	622	
12	0	0	0	0	515	622	
13	0	0	0	0	515	623	
14	0	0	0	0	517	624	
15	0	0	0	0	518	623	
0	0	0	0	0	517	622	
1	0	0	0	0	517	623	
2	0	0	0	0	517	621	
3	0	0	0	0	517	623	
4	0	0	0	0	518	623	
5	0	0	0	0	517	623	
6	0	0	0	0	517	625	
7	0	0	0	0	517	623	
8	0	0	0	0	517	624	
9	0	0	0	0	516	624	
10	0	0	0	0	516	622	
11	0	0	0	0	516	624	
12	0	0	0	0	516	623	
13	0	0	0	0	517	624	
14	0	0	0	0	517	626	
15	0	0	0	0	517	624	
0	0	0	0	0	516	624	
1	0	0	0	0	516	624	
2	0	0	0	0	515	622	
3	0	0	0	0	514	623	
4	0	0	0	0	515	624	
5	0	0	0	0	515	624	
6	0	0	0	0	516	625	
7	0	0	0	0	516	623	
8	0	0	0	0	516	623	
9	0	0	0	0	516	624	
10	0	0	0	0	515	621	
11	0	0	0	0	515	623	
12	0	0	0	0	515	623	
13	0	0	0	0	515	623	
14	0	0	0	0	516	625	
15	0	0	0	0	515	623	
0	0	0	0	0	515	623	
1	0	0	0	0	515	623	
2	0	0	0	0	514	622	
3	0	0	0	0	514	623	
4	0	0	0	0	513	624	
5	0	0	0	0	513	623	
6	0	0	0	0	513	625	
7	0	0	0	0	513	623	
8	0	0	0	0	513	624	
9	0	0	0	0	514	624	
10	0	0	0	0	514	622	
11	0	0	0	0	515	623	
12	0	0	0	0	515	624	
13	0	0	0	0	515	624	
14	0	0	0	0	515	625	
15	0	0	0	0	515	624	
0	0	0	0	0	515	624	
1	0	0	0	0	514	624	
2	0	0	0	0	513	622	
3	0	0	0	0	513	624	
4	0	0	0	0	513	624	
5	0	0	0	0	513	624	
6	0	0	0	0	513	626	
7	0	0	0	0	514	624	
8	0	0	0	0	514	624	
9	0	0	0	0	514	624	
10	0	0	0	0	514	622	
11	0	0	0	0	514	624	
12	0	0	0	0	514	623	
13	0	0	0	0	513	624	
14	0	0	0	0	513	625	
15	0	0	0	0	514	623	
0	0	0	0	0	514	623	
1	0	0	0	0	514	623	
2	0	0	0	0	514	621	
3	0	0	0	0	514	624	
4	0	0	0	0	513	624	
5	0	0	0	0	513	623	
6	0	0	0	0	513	625	
7	0	0	0	0	513	624	
8	0	0	0	0	512	623	
9	0	0	0	0	511	623	
10	0	0	0	0	512	622	
11	0	0	0	0	512	623	
12	0	0	0	0	512	623	
13	0	0	0	0	512	623	
14	0	0	0	0	513	624	
15	0	0	0	0	512	622	
0	0	0	0	0	513	622	
1	0	0	0	0	513	623	
2	0	0	0	0	512	620	
3	0	0	0	0	512	623	
4	0	0	0	0	511	622	
5	0	0	0	0	511	623	
6	0	0	0	0	511	624	
7	0	0	0	0	511	622	
8	0	0	0	0	511	623	
9	0	0	0	0	511	623	
10	0	0	0	0	511	621	
11	0	0	0	0	510	623	
12	0	0	0	0	510	623	
13	0	0	0	0	510	623	
14	0	0	0	0	510	624	
15	0	0	0	0	510	623	
0	0	0	0	0	509	622	
1	0	0	0	0	509	623	
2	0	0	0	0	509	620	
3	0	0	0	0	509	622	
4	0	0	0	0	509	623	
5	0	0	0	0	509	623	
6	0	0	0	0	509	624	
7	0	0	0	0	510	622	
8	0	0	0	0	510	622	
9	0	0	0	0	511	622	
10	0	0	0	0	510	620	
11	0	0	0	0	511	622	
12	0	0	0	0	511	623	
13	0	0	0	0	511	622	
14	0	0	0	0	512	624	
15	0	0	0	0	511	623	
0	0	0	0	0	511	622	
1	0	0	0	0	511	622	
2	0	0	0	0	512	621	
3	0	0	0	0	512	623	
4	0	0	0	0	512	623	
5	0	0	0	0	512	623	
6	0	0	0	0	512	625	
7	0	0	0	0	512	623	
8	0	0	0	0	512	623	
9	0	0	0	0	512	623	
10	0	0	0	0	511	621	
11	0	0	0	0	510	623	
12	0	0	0	0	510	623	
13	0	0	0	0	510	623	
14	0	0	0	0	509	625	
15	0	0	0	0	508	624	
0	0	0	0	0	508	624	
1	0	0	0	0	508	624	
2	0	0	0	0	508	622	
3	0	0	0	0	508	624	
4	0	0	0	0	508	624	
5	0	0	0	0	508	624	
6	0	0	0	0	508	626	
7	0	0	0	0	508	625	
8	0	0	0	0	508	624	
9	0	0	0	0	508	625	
10	0	0	0	0	507	623	
11	0	0	0	0	507	624	
12	0	0	0	0	507	624	
13	0	0	0	0	506	624	
14	0	0	0	0	507	626	
15	0	0	0	0	507	625	
0	0	0	0	0	507	624	
1	0	0	0	0	507	624	
2	0	0	0	0	507	623	
3	0	0	0	0	507	624	
4	0	0	0	0	507	624	
5	0	0	0	0	507	625	
6	0	0	0	0	507	627	
7	0	0	0	0	507	625	
8	0	0	0	0	507	625	
9	0	0	0	0	507	624	
10	0	0	0	0	507	623	
11	0	0	0	0	507	625	
12	0	0	0	0	507	625	
13	0	0	0	0	506	625	
14	0	0	0	0	507	627	
15	0	0	0	0	506	626	
0	0	0	0	0	506	625	
1	0	0	0	0	506	625	
2	0	0	0	0	505	623	
3	0	0	0	0	505	624	
4	0	0	0	0	505	625	
5	0	0	0	0	505	624	
6	0	0	0	0	505	626	
7	0	0	0	0	505	624	
8	0	0	0	0	505	624	
9	0	0	0	0	505	624	
10	0	0	0	0	505	623	
11	0	0	0	0	505	625	
12	0	0	0	0	504	624	
13	0	0	0	0	505	624	
14	0	0	0	0	504	626	
15	0	0	0	0	504	624	
0	0	0	0	0	504	624	
1	0	0	0	0	504	624	
2	0	0	0	0	504	622	
3	0	0	0	0	504	624	
4	0	0	0	0	504	624	
5	0	0	0	0	503	624	
6	0	0	0	0	502	626	
7	0	0	0	0	503	624	
8	0	0	0	0	504	623	
9	0	0	0	0	504	623	
10	0	0	0	0	504	621	
11	0	0	0	0	503	622	
12	0	0	0	0	503	623	
13	0	0	0	0	502	622	
14	0	0	0	0	502	624	
15	0	0	0	0	502	623	
0	0	0	0	0	502	622	
1	0	0	0	0	502	621	
2	0	0	0	0	502	620	
3	0	0	0	0	502	622	
4	0	0	0	0	502	622	
5	0	0	0	0	503	622	
6	0	0	0	0	503	624	
7	0	0	0	0	502	621	
8	0	0	0	0	502	622	
9	0	0	0	0	501	622	
10	0	0	0	0	501	620	
11	0	0	0	0	501	623	
12	0	0	0	0	501	623	
13	0	0	0	0	501	624	
14	0	0	0	0	501	626	
15	0	0	0	0	501	625	
0	0	0	0	0	502	626	
1	0	0	0	0	502	625	
2	0	0	0	0	503	623	
3	0	0	0	0	502	625	
4	0	0	0	0	502	624	
5	0	0	0	0	502	624	
6	0	0	0	0	502	625	
7	0	0	0	0	502	623	
8	0	0	0	0	502	622	
9	0	0	0	0	502	622	
10	0	0	0	0	502	621	
11	0	0	0	0	502	623	
12	0	0	0	0	503	623	
13	0	0	0	0	503	623	
14	0	0	0	0	503	625	
15	0	0	0	0	502	623	
0	0	0	0	0	503	624	
1	0	0	0	0	504	624	
2	0	0	0	0	504	622	
3	0	0	0	0	503	624	
4	0	0	0	0	503	624	
5	0	0	0	0	504	624	
6	0	0	0	0	504	626	
7	0	0	0	0	504	624	
8	0	0	0	0	504	624	
9	0	0	0	0	504	624	
10	0	0	0	0	504	623	
11	0	0	0	0	505	624	
12	0	0	0	0	505	624	
13	0	0	0	0	505	624	
14	0	0	0	0	505	626	
15	0	0	0	0	505	624	
0	0	0	0	0	506	624	
1	0	0	0	0	507	624	
2	0	0	0	0	507	623	
3	0	0	0	0	506	624	
4	0	0	0	0	507	625	
5	0	0	0	0	505	624	
6	0	0	0	0	505	626	
7	0	0	0	0	505	624	
8	0	0	0	0	505	624	
9	0	0	0	0	506	624	
10	0	0	0	0	507	623	
11	0	0	0	0	506	625	
12	0	0	0	0	506	625	
13	0	0	0	0	505	625	
14	0	0	0	0	505	626	
15	0	0	0	0	506	624	
0	0	0	0	0	506	624	
1	0	0	0	0	507	624	
2	0	0	0	0	507	622	
3	0	0	0	0	506	624	
4	0	0	0	0	506	624	
5	0	0	0	0	506	624	
6	0	0	0	0	506	626	
7	0	0	0	0	505	624	
8	0	0	0	0	506	624	
9	0	0	0	0	506	625	
10	0	0	0	0	505	623	
11	0	0	0	0	505	625	
12	0	0	0	0	504	625	
13	0	0	0	0	503	624	
14	0	0	0	0	504	627	
15	0	0	0	0	504	624	
0	0	0	0	0	504	625	
1	0	0	0	0	504	625	
2	0	0	0	0	504	623	
3	0	0	0	0	504	625	
4	0	0	0	0	503	625	
5	0	0	0	0	501	625	
6	0	0	0	0	499	626	
7	0	0	0	0	496	625	
8	0	0	0	0	492	625	
9	0	0	0	0	489	625	
10	0	0	0	0	485	624	
11	0	0	0	0	480	626	
12	0	0	0	0	475	625	
13	0	0	0	0	468	625	
14	0	0	0	0	461	627	
15	0	0	0	0	454	625	
0	0	0	0	0	446	625	
1	0	0	0	0	441	625	
2	0	0	0	0	436	623	
3	0	0	0	0	431	625	
4	0	0	0	0	427	624	
5	0	0	0	0	425	624	
6	0	0	0	0	426	625	
7	0	0	0	0	429	624	
8	0	0	0	0	434	623	
9	0	0	0	0	443	624	
10	0	0	0	0	456	622	
11	0	0	0	0	472	623	
12	0	0	0	0	489	623	
13	0	0	0	0	510	623	
14	0	0	0	0	533	625	
15	0	0	0	0	556	623	
0	0	0	0	0	579	623	
1	0	0	0	0	601	622	
2	0	0	0	0	626	620	
3	0	0	0	0	651	622	
4	0	0	0	0	673	622	
5	0	0	0	0	695	622	
6	0	0	0	0	719	624	
7	0	0	0	0	743	622	
8	0	0	0	0	767	622	
9	0	0	0	0	788	623	
10	0	0	0	0	806	620	
11	0	0	0	0	821	622	
12	0	0	0	0	835	622	
13	0	0	0	0	848	622	
14	0	0	0	0	860	624	
15	0	0	0	0	869	622	
0	0	0	0	0	877	623	
1	0	0	0	0	878	623	
2	0	0	0	0	873	621	
3	0	0	0	0	863	623	
4	0	0	0	0	850	623	
5	0	0	0	0	834	623	
6	0	0	0	0	815	625	
7	0	0	0	0	791	624	
8	0	0	0	0	765	623	
9	0	0	0	0	740	624	
10	0	0	0	0	714	622	
11	0	0	0	0	688	624	
12	0	0	0	0	663	624	
13	0	0	0	0	638	624	
14	0	0	0	0	610	626	
15	0	0	0	0	584	625	
0	0	0	0	0	561	624	
1	0	0	0	0	542	625	
2	0	0	0	0	526	623	
3	0	0	0	0	512	624	
4	0	0	0	0	501	624	
5	0	0	0	0	491	624	
6	0	0	0	0	483	626	
7	0	0	0	0	478	625	
8	0	0	0	0	472	625	
9	0	0	0	0	467	624	
10	0	0	0	0	464	622	
11	0	0	0	0	461	624	
12	0	0	0	0	459	625	
13	0	0	0	0	456	624	
14	0	0	0	0	453	626	
15	0	0	0	0	451	624	
0	0	0	0	0	449	624	
1	0	0	0	0	447	624	
2	0	0	0	0	445	622	
3	0	0	0	0	443	623	
4	0	0	0	0	442	624	
5	0	0	0	0	440	624	
6	0	0	0	0	440	624	
7	0	0	0	0	439	623	
8	0	0	0	0	438	623	
9	0	0	0	0	438	623	
10	0	0	0	0	438	621	
11	0	0	0	0	438	623	
12	0	0	0	0	436	623	
13	0	0	0	0	436	622	
14	0	0	0	0	436	625	
15	0	0	0	0	435	622	
0	0	0	0	0	435	622	
1	0	0	0	0	435	623	
2	0	0	0	0	435	620	
3	0	0	0	0	434	622	
4	0	0	0	0	435	621	
5	0	0	0	0	435	622	
6	0	0	0	0	436	623	
7	0	0	0	0	436	621	
8	0	0	0	0	437	621	
9	0	0	0	0	437	621	
10	0	0	0	0	437	620	
11	0	0	0	0	437	622	
12	0	0	0	0	437	622	
13	0	0	0	0	438	622	
14	0	0	0	0	439	624	
15	0	0	0	0	440	623	
0	0	0	0	0	440	623	
1	0	0	0	0	440	623	
2	0	0	0	0	440	620	
3	0	0	0	0	439	622	
4	0	0	0	0	440	623	
5	0	0	0	0	441	623	
6	0	0	0	0	441	624	
7	0	0	0	0	441	623	
8	0	0	0	0	442	623	
9	0	0	0	0	442	623	
10	0	0	0	0	443	622	
11	0	0	0	0	443	623	
12	0	0	0	0	444	624	
13	0	0	0	0	444	624	
14	0	0	0	0	445	626	
15	0	0	0	0	447	625	
0	0	0	0	0	448	624	
1	0	0	0	0	448	624	
2	0	0	0	0	449	622	
3	0	0	0	0	449	624	
4	0	0	0	0	450	624	
5	0	0	0	0	451	624	
6	0	0	0	0	451	626	
7	0	0	0	0	451	625	
8	0	0	0	0	452	625	
9	0	0	0	0	453	625	
10	0	0	0	0	455	624	
11	0	0	0	0	455	625	
12	0	0	0	0	456	625	
13	0	0	0	0	456	625	
14	0	0	0	0	456	627	
15	0	0	0	0	457	625	
0	0	0	0	0	457	625	
1	0	0	0	0	457	625	
2	0	0	0	0	457	623	
3	0	0	0	0	458	624	
4	0	0	0	0	458	624	
5	0	0	0	0	458	623	
6	0	0	0	0	459	625	
7	0	0	0	0	459	624	
8	0	0	0	0	459	623	
9	0	0	0	0	459	623	
10	0	0	0	0	459	621	
11	0	0	0	0	459	623	
12	0	0	0	0	459	623	
13	0	0	0	0	459	623	
14	0	0	0	0	460	624	
15	0	0	0	0	459	623	
0	0	0	0	0	460	623	
1	0	0	0	0	461	622	
2	0	0	0	0	462	620	
3	0	0	0	0	463	622	
4	0	0	0	0	463	622	
5	0	0	0	0	464	622	
6	0	0	0	0	465	624	
7	0	0	0	0	466	622	
8	0	0	0	0	466	622	
9	0	0	0	0	467	622	
10	0	0	0	0	467	620	
11	0	0	0	0	468	622	
12	0	0	0	0	469	622	
13	0	0	0	0	469	622	
14	0	0	0	0	471	624	
15	0	0	0	0	471	622	
0	0	0	0	0	472	622	
1	0	0	0	0	472	622	
2	0	0	0	0	472	620	
3	0	0	0	0	472	621	
4	0	0	0	0	472	621	
5	0	0	0	0	472	620	
6	0	0	0	0	472	623	
7	0	0	0	0	473	621	
8	0	0	0	0	473	621	
9	0	0	0	0	473	621	
10	0	0	0	0	474	619	
11	0	0	0	0	475	621	
12	0	0	0	0	475	621	
13	0	0	0	0	476	621	
14	0	0	0	0	476	622	
15	0	0	0	0	477	621	
0	0	0	0	0	478	621	
1	0	0	0	0	478	621	
2	0	0	0	0	478	619	
3	0	0	0	0	479	621	
4	0	0	0	0	480	622	
5	0	0	0	0	481	622	
6	0	0	0	0	482	623	
7	0	0	0	0	483	620	
8	0	0	0	0	483	622	
9	0	0	0	0	483	622	
10	0	0	0	0	482	620	
11	0	0	0	0	481	622	
12	0	0	0	0	482	623	
13	0	0	0	0	482	623	
14	0	0	0	0	483	625	
15	0	0	0	0	483	624	
0	0	0	0	0	483	623	
1	0	0	0	0	484	624	
2	0	0	0	0	484	622	
3	0	0	0	0	485	624	
4	0	0	0	0	486	624	
5	0	0	0	0	487	625	
6	0	0	0	0	488	625	
7	0	0	0	0	488	623	
8	0	0	0	0	488	624	
9	0	0	0	0	489	624	
10	0	0	0	0	489	623	
11	0	0	0	0	490	625	
12	0	0	0	0	490	625	
13	0	0	0	0	491	625	
14	0	0	0	0	491	627	
15	0	0	0	0	492	625	
0	0	0	0	0	493	625	
1	0	0	0	0	494	626	
2	0	0	0	0	494	624	
3	0	0	0	0	494	626	
4	0	0	0	0	495	626	
5	0	0	0	0	495	626	
6	0	0	0	0	496	628	
7	0	0	0	0	497	627	
8	0	0	0	0	497	626	
9	0	0	0	0	496	627	
10	0	0	0	0	497	625	
11	0	0	0	0	498	627	
12	0	0	0	0	499	627	
13	0	0	0	0	499	626	
14	0	0	0	0	500	628	
15	0	0	0	0	500	627	
0	0	0	0	0	501	626	
1	0	0	0	0	502	626	
2	0	0	0	0	503	625	
3	0	0	0	0	503	626	
4	0	0	0	0	503	626	
5	0	0	0	0	504	626	
6	0	0	0	0	504	627	
7	0	0	0	0	504	625	
8	0	0	0	0	505	625	
9	0	0	0	0	504	625	
10	0	0	0	0	505	624	
11	0	0	0	0	505	624	
12	0	0	0	0	506	625	
13	0	0	0	0	505	625	
14	0	0	0	0	506	626	
15	0	0	0	0	506	624	
0	0	0	0	0	505	624	
1	0	0	0	0	506	623	
2	0	0	0	0	506	622	
3	0	0	0	0	506	624	
4	0	0	0	0	506	623	
5	0	0	0	0	506	623	
6	0	0	0	0	506	625	
7	0	0	0	0	506	623	
8	0	0	0	0	506	623	
9	0	0	0	0	507	624	
10	0	0	0	0	506	621	
11	0	0	0	0	506	623	
12	0	0	0	0	506	623	
13	0	0	0	0	506	623	
14	0	0	0	0	505	624	
15	0	0	0	0	505	623	
0	0	0	0	0	505	623	
1	0	0	0	0	505	623	
2	0	0	0	0	505	621	
3	0	0	0	0	505	623	
4	0	0	0	0	505	622	
5	0	0	0	0	505	623	
6	0	0	0	0	505	624	
7	0	0	0	0	504	623	
8	0	0	0	0	504	623	
9	0	0	0	0	504	623	
10	0	0	0	0	504	621	
11	0	0	0	0	504	623	
12	0	0	0	0	503	624	
13	0	0	0	0	502	623	
14	0	0	0	0	502	624	
15	0	0	0	0	501	622	
0	0	0	0	0	500	622	
1	0	0	0	0	500	623	
2	0	0	0	0	500	621	
3	0	0	0	0	500	623	
4	0	0	0	0	499	622	
5	0	0	0	0	499	622	
6	0	0	0	0	498	623	
7	0	0	0	0	497	622	
8	0	0	0	0	496	623	
9	0	0	0	0	495	623	
10	0	0	0	0	494	621	
11	0	0	0	0	492	623	
12	0	0	0	0	491	623	
13	0	0	0	0	491	623	
14	0	0	0	0	491	625	
15	0	0	0	0	491	623	
0	0	0	0	0	490	624	
1	0	0	0	0	490	624	
2	0	0	0	0	489	622	
3	0	0	0	0	488	623	
4	0	0	0	0	488	623	
5	0	0	0	0	488	624	
6	0	0	0	0	489	626	
7	0	0	0	0	488	624	
8	0	0	0	0	487	624	
9	0	0	0	0	486	624	
10	0	0	0	0	485	622	
11	0	0	0	0	485	625	
12	0	0	0	0	484	624	
13	0	0	0	0	483	624	
14	0	0	0	0	484	626	
15	0	0	0	0	484	624	
0	0	0	0	0	483	624	
1	0	0	0	0	482	624	
2	0	0	0	0	482	623	
3	0	0	0	0	482	624	
4	0	0	0	0	482	624	
5	0	0	0	0	481	624	
6	0	0	0	0	481	626	
7	0	0	0	0	481	624	
8	0	0	0	0	481	625	
9	0	0	0	0	480	624	
10	0	0	0	0	480	622	
11	0	0	0	0	480	624	
12	0	0	0	0	480	624	
13	0	0	0	0	480	624	
14	0	0	0	0	480	626	
15	0	0	0	0	480	624	
0	0	0	0	0	480	624	
1	0	0	0	0	480	625	
2	0	0	0	0	480	623	
3	0	0	0	0	479	624	
4	0	0	0	0	480	625	
5	0	0	0	0	480	624	
6	0	0	0	0	481	626	
7	0	0	0	0	482	624	
8	0	0	0	0	482	624	
9	0	0	0	0	482	625	
10	0	0	0	0	482	623	
11	0	0	0	0	482	624	
12	0	0	0	0	481	625	
13	0	0	0	0	481	624	
14	0	0	0	0	481	626	
15	0	0	0	0	481	624	
0	0	0	0	0	481	624	
1	0	0	0	0	481	624	
2	0	0	0	0	481	623	
3	0	0	0	0	481	624	
4	0	0	0	0	481	624	
5	0	0	0	0	482	624	
6	0	0	0	0	483	627	
7	0	0	0	0	483	625	
8	0	0	0	0	483	624	
9	0	0	0	0	483	624	
10	0	0	0	0	482	623	
11	0	0	0	0	482	625	
12	0	0	0	0	483	625	
13	0	0	0	0	483	625	
14	0	0	0	0	483	627	
15	0	0	0	0	483	625	
0	0	0	0	0	483	625	
1	0	0	0	0	484	625	
2	0	0	0	0	485	623	
3	0	0	0	0	485	625	
4	0	0	0	0	485	625	
5	0	0	0	0	486	624	
6	0	0	0	0	486	626	
7	0	0	0	0	485	624	
8	0	0	0	0	485	624	
9	0	0	0	0	486	624	
10	0	0	0	0	486	622	
11	0	0	0	0	487	624	
12	0	0	0	0	486	624	
13	0	0	0	0	486	624	
14	0	0	0	0	486	626	
15	0	0	0	0	486	624	
0	0	0	0	0	486	624	
1	0	0	0	0	487	624	
2	0	0	0	0	487	622	
3	0	0	0	0	487	624	
4	0	0	0	0	487	624	
5	0	0	0	0	487	624	
6	0	0	0	0	487	626	
7	0	0	0	0	488	624	
8	0	0	0	0	487	624	
9	0	0	0	0	487	624	
10	0	0	0	0	487	622	
11	0	0	0	0	486	625	
12	0	0	0	0	486	624	
13	0	0	0	0	486	625	
14	0	0	0	0	486	626	
15	0	0	0	0	487	625	
0	0	0	0	0	486	625	
1	0	0	0	0	486	625	
2	0	0	0	0	486	623	
3	0	0	0	0	486	625	
4	0	0	0	0	486	625	
5	0	0	0	0	486	625	
6	0	0	0	0	486	627	
7	0	0	0	0	486	625	
8	0	0	0	0	485	625	
9	0	0	0	0	486	625	
10	0	0	0	0	486	623	
11	0	0	0	0	487	625	
12	0	0	0	0	486	625	
13	0	0	0	0	487	625	
14	0	0	0	0	487	627	
15	0	0	0	0	487	625	
0	0	0	0	0	488	626	
1	0	0	0	0	488	626	
2	0	0	0	0	487	624	
3	0	0	0	0	488	625	
4	0	0	0	0	487	626	
5	0	0	0	0	488	626	
6	0	0	0	0	489	627	
7	0	0	0	0	489	625	
8	0	0	0	0	489	625	
9	0	0	0	0	491	625	
10	0	0	0	0	490	623	
11	0	0	0	0	490	624	
12	0	0	0	0	491	625	
13	0	0	0	0	491	624	
14	0	0	0	0	491	626	
15	0	0	0	0	492	624	
0	0	0	0	0	492	624	
1	0	0	0	0	493	624	
2	0	0	0	0	493	622	
3	0	0	0	0	494	623	
4	0	0	0	0	494	623	
5	0	0	0	0	495	623	
6	0	0	0	0	495	624	
7	0	0	0	0	495	622	
8	0	0	0	0	495	622	
9	0	0	0	0	494	622	
10	0	0	0	0	493	620	
11	0	0	0	0	493	622	
12	0	0	0	0	493	623	
13	0	0	0	0	494	622	
14	0	0	0	0	495	623	
15	0	0	0	0	494	622	
0	0	0	0	0	494	622	
1	0	0	0	0	495	621	
2	0	0	0	0	496	618	
3	0	0	0	0	497	621	
4	0	0	0	0	497	620	
5	0	0	0	0	496	620	
6	0	0	0	0	496	622	
7	0	0	0	0	496	621	
8	0	0	0	0	496	620	
9	0	0	0	0	497	621	
10	0	0	0	0	498	619	
11	0	0	0	0	498	620	
12	0	0	0	0	498	621	
13	0	0	0	0	498	621	
14	0	0	0	0	498	623	
15	0	0	0	0	498	620	
0	0	0	0	0	498	621	
1	0	0	0	0	498	621	
2	0	0	0	0	498	620	
3	0	0	0	0	498	622	
4	0	0	0	0	499	622	
5	0	0	0	0	499	622	
6	0	0	0	0	500	623	
7	0	0	0	0	500	623	
8	0	0	0	0	500	622	
9	0	0	0	0	501	622	
10	0	0	0	0	501	620	
11	0	0	0	0	500	622	
12	0	0	0	0	501	622	
13	0	0	0	0	501	622	
14	0	0	0	0	501	623	
15	0	0	0	0	502	622	
0	0	0	0	0	501	622	
1	0	0	0	0	501	623	
2	0	0	0	0	501	621	
3	0	0	0	0	502	622	
4	0	0	0	0	503	622	
5	0	0	0	0	502	622	
6	0	0	0	0	503	624	
7	0	0	0	0	503	622	
8	0	0	0	0	504	622	
9	0	0	0	0	504	622	
10	0	0	0	0	505	620	
11	0	0	0	0	505	622	
12	0	0	0	0	505	622	
13	0	0	0	0	504	622	
14	0	0	0	0	504	624	
15	0	0	0	0	504	622	
0	0	0	0	0	504	623	
1	0	0	0	0	505	623	
2	0	0	0	0	505	621	
3	0	0	0	0	504	623	
4	0	0	0	0	504	622	
5	0	0	0	0	503	622	
6	0	0	0	0	503	624	
7	0	0	0	0	503	623	
8	0	0	0	0	503	622	
9	0	0	0	0	504	622	
10	0	0	0	0	505	620	
11	0	0	0	0	506	622	
12	0	0	0	0	505	622	
13	0	0	0	0	504	623	
14	0	0	0	0	504	624	
15	0	0	0	0	504	622	
0	0	0	0	0	504	623	
1	0	0	0	0	504	623	
2	0	0	0	0	504	620	
3	0	0	0	0	504	622	
4	0	0	0	0	504	622	
5	0	0	0	0	504	622	
6	0	0	0	0	504	624	
7	0	0	0	0	504	622	
8	0	0	0	0	504	623	
9	0	0	0	0	504	623	
10	0	0	0	0	504	620	
11	0	0	0	0	504	622	
12	0	0	0	0	504	623	
13	0	0	0	0	505	623	
14	0	0	0	0	505	624	
15	0	0	0	0	505	623	
0	0	0	0	0	506	623	
1	0	0	0	0	507	624	
2	0	0	0	0	507	622	
3	0	0	0	0	506	623	
4	0	0	0	0	506	623	
5	0	0	0	0	506	623	
6	0	0	0	0	506	624	
7	0	0	0	0	505	623	
8	0	0	0	0	505	623	
9	0	0	0	0	504	623	
10	0	0	0	0	505	620	
11	0	0	0	0	505	623	
12	0	0	0	0	505	622	
13	0	0	0	0	505	622	
14	0	0	0	0	505	624	
15	0	0	0	0	505	622	
0	0	0	0	0	505	622	
1	0	0	0	0	506	622	
2	0	0	0	0	506	620	
3	0	0	0	0	506	622	
4	0	0	0	0	505	622	
5	0	0	0	0	505	621	
6	0	0	0	0	506	623	
7	0	0	0	0	505	621	
8	0	0	0	0	505	622	
9	0	0	0	0	505	621	
10	0	0	0	0	506	620	
11	0	0	0	0	506	622	
12	0	0	0	0	506	622	
13	0	0	0	0	506	621	
14	0	0	0	0	506	624	
15	0	0	0	0	506	622	
0	0	0	0	0	506	622	
1	0	0	0	0	506	622	
2	0	0	0	0	505	620	
3	0	0	0	0	505	622	
4	0	0	0	0	505	622	
5	0	0	0	0	504	622	
6	0	0	0	0	504	624	
7	0	0	0	0	504	623	
8	0	0	0	0	504	623	
9	0	0	0	0	504	623	
10	0	0	0	0	504	622	
11	0	0	0	0	505	624	
12	0	0	0	0	505	623	
13	0	0	0	0	506	624	
14	0	0	0	0	506	625	
15	0	0	0	0	507	624	
0	0	0	0	0	506	624	
1	0	0	0	0	507	624	
2	0	0	0	0	506	622	
3	0	0	0	0	507	624	
4	0	0	0	0	507	624	
5	0	0	0	0	508	624	
6	0	0	0	0	508	626	
7	0	0	0	0	508	624	
8	0	0	0	0	508	624	
9	0	0	0	0	507	625	
10	0	0	0	0	507	623	
11	0	0	0	0	507	624	
12	0	0	0	0	508	624	
13	0	0	0	0	508	624	
14	0	0	0	0	507	625	
15	0	0	0	0	507	624	
0	0	0	0	0	508	625	
1	0	0	0	0	508	624	
2	0	0	0	0	508	623	
3	0	0	0	0	508	625	
4	0	0	0	0	507	624	
5	0	0	0	0	506	624	
6	0	0	0	0	507	626	
7	0	0	0	0	506	625	
8	0	0	0	0	505	624	
9	0	0	0	0	505	624	
10	0	0	0	0	504	623	
11	0	0	0	0	504	624	
12	0	0	0	0	504	624	
13	0	0	0	0	504	624	
14	0	0	0	0	504	626	
15	0	0	0	0	503	624	
0	0	0	0	0	504	623	
1	0	0	0	0	504	624	
2	0	0	0	0	504	622	
3	0	0	0	0	504	624	
4	0	0	0	0	503	623	
5	0	0	0	0	504	624	
6	0	0	0	0	504	626	
7	0	0	0	0	503	624	
8	0	0	0	0	503	624	
9	0	0	0	0	503	624	
10	0	0	0	0	503	622	
11	0	0	0	0	502	624	
12	0	0	0	0	502	624	
13	0	0	0	0	503	624	
14	0	0	0	0	502	625	
15	0	0	0	0	503	623	
0	0	0	0	0	502	623	
1	0	0	0	0	503	623	
2	0	0	0	0	502	621	
3	0	0	0	0	502	624	
4	0	0	0	0	502	624	
5	0	0	0	0	503	623	
6	0	0	0	0	503	625	
7	0	0	0	0	504	624	
8	0	0	0	0	504	624	
9	0	0	0	0	504	624	
10	0	0	0	0	504	622	
11	0	0	0	0	505	624	
12	0	0	0	0	505	624	
13	0	0	0	0	504	625	
14	0	0	0	0	504	627	
15	0	0	0	0	504	624	
0	0	0	0	0	503	625	
1	0	0	0	0	503	626	
2	0	0	0	0	504	624	
3	0	0	0	0	504	626	
4	0	0	0	0	503	626	
5	0	0	0	0	502	626	
6	0	0	0	0	503	628	
7	0	0	0	0	504	626	
8	0	0	0	0	503	626	
9	0	0	0	0	503	627	
10	0	0	0	0	503	624	
11	0	0	0	0	503	626	
12	0	0	0	0	504	626	
13	0	0	0	0	503	626	
14	0	0	0	0	503	628	
15	0	0	0	0	503	626	
0	0	0	0	0	504	626	
1	0	0	0	0	503	626	
2	0	0	0	0	503	624	
3	0	0	0	0	503	625	
4	0	0	0	0	503	625	
5	0	0	0	0	502	625	
6	0	0	0	0	502	627	
7	0	0	0	0	502	625	
8	0	0	0	0	501	625	
9	0	0	0	0	501	624	
10	0	0	0	0	502	623	
11	0	0	0	0	502	624	
12	0	0	0	0	501	624	
13	0	0	0	0	502	624	
14	0	0	0	0	502	625	
15	0	0	0	0	502	624	
0	0	0	0	0	502	624	
1	0	0	0	0	502	624	
2	0	0	0	0	501	621	
3	0	0	0	0	502	624	
4	0	0	0	0	502	624	
5	0	0	0	0	502	624	
6	0	0	0	0	503	626	
7	0	0	0	0	503	624	
8	0	0	0	0	503	624	
9	0	0	0	0	502	624	
10	0	0	0	0	502	623	
11	0	0	0	0	502	624	
12	0	0	0	0	502	625	
13	0	0	0	0	502	625	
14	0	0	0	0	502	627	
15	0	0	0	0	502	625	
0	0	0	0	0	501	625	
1	0	0	0	0	501	625	
2	0	0	0	0	500	624	
3	0	0	0	0	500	625	
4	0	0	0	0	501	625	
5	0	0	0	0	500	625	
6	0	0	0	0	500	626	
7	0	0	0	0	500	624	
8	0	0	0	0	500	624	
9	0	0	0	0	500	624	
10	0	0	0	0	500	622	
11	0	0	0	0	500	623	
12	0	0	0	0	500	624	
13	0	0	0	0	500	624	
14	0	0	0	0	500	626	
15	0	0	0	0	500	625	
0	0	0	0	0	500	625	
1	0	0	0	0	500	625	
2	0	0	0	0	500	623	
3	0	0	0	0	500	625	
4	0	0	0	0	500	625	
5	0	0	0	0	500	625	
6	0	0	0	0	500	626	
7	0	0	0	0	500	625	
8	0	0	0	0	500	625	
9	0	0	0	0	500	626	
10	0	0	0	0	500	624	
11	0	0	0	0	501	626	
12	0	0	0	0	501	626	
13	0	0	0	0	502	626	
14	0	0	0	0	501	628	
15	0	0	0	0	500	626	
0	0	0	0	0	499	626	
1	0	0	0	0	499	627	
2	0	0	0	0	498	624	
3	0	0	0	0	498	626	
4	0	0	0	0	499	626	
5	0	0	0	0	499	626	
6	0	0	0	0	499	628	
7	0	0	0	0	498	627	
8	0	0	0	0	497	626	
9	0	0	0	0	497	626	
10	0	0	0	0	496	624	
11	0	0	0	0	496	626	
12	0	0	0	0	496	626	
13	0	0	0	0	496	626	
14	0	0	0	0	496	627	
15	0	0	0	0	495	625	
0	0	0	0	0	495	627	
1	0	0	0	0	494	626	
2	0	0	0	0	495	624	
3	0	0	0	0	495	626	
4	0	0	0	0	495	626	
5	0	0	0	0	495	625	
6	0	0	0	0	496	627	
7	0	0	0	0	496	626	
8	0	0	0	0	496	626	
9	0	0	0	0	496	626	
10	0	0	0	0	497	624	
11	0	0	0	0	498	625	
12	0	0	0	0	498	626	
13	0	0	0	0	498	626	
14	0	0	0	0	497	627	
15	0	0	0	0	497	625	
0	0	0	0	0	496	625	
1	0	0	0	0	496	625	
2	0	0	0	0	496	623	
3	0	0	0	0	496	625	
4	0	0	0	0	497	624	
5	0	0	0	0	497	625	
6	0	0	0	0	497	626	
7	0	0	0	0	497	624	
8	0	0	0	0	497	624	
9	0	0	0	0	497	624	
10	0	0	0	0	496	622	
11	0	0	0	0	496	623	
12	0	0	0	0	496	623	
13	0	0	0	0	496	622	
14	0	0	0	0	496	624	
15	0	0	0	0	496	622	
0	0	0	0	0	496	623	
1	0	0	0	0	496	622	
2	0	0	0	0	497	620	
3	0	0	0	0	497	622	
4	0	0	0	0	497	622	
5	0	0	0	0	497	622	
6	0	0	0	0	497	623	
7	0	0	0	0	497	621	
8	0	0	0	0	497	621	
9	0	0	0	0	497	621	
10	0	0	0	0	497	619	
11	0	0	0	0	496	621	
12	0	0	0	0	496	621	
13	0	0	0	0	495	621	
14	0	0	0	0	495	623	
15	0	0	0	0	495	621	
0	0	0	0	0	495	620	
1	0	0	0	0	494	621	
2	0	0	0	0	494	619	
3	0	0	0	0	494	621	
4	0	0	0	0	494	621	
5	0	0	0	0	494	621	
6	0	0	0	0	494	622	
7	0	0	0	0	495	621	
8	0	0	0	0	495	621	
9	0	0	0	0	496	621	
10	0	0	0	0	496	619	
11	0	0	0	0	495	621	
12	0	0	0	0	495	621	
13	0	0	0	0	495	621	
14	0	0	0	0	494	623	
15	0	0	0	0	495	621	
0	0	0	0	0	495	621	
1	0	0	0	0	495	622	
2	0	0	0	0	494	620	
3	0	0	0	0	494	621	
4	0	0	0	0	494	622	
5	0	0	0	0	494	622	
6	0	0	0	0	494	624	
7	0	0	0	0	494	622	
8	0	0	0	0	494	622	
9	0	0	0	0	494	622	
10	0	0	0	0	493	620	
11	0	0	0	0	493	622	
12	0	0	0	0	493	622	
13	0	0	0	0	493	622	
14	0	0	0	0	493	624	
15	0	0	0	0	493	622	
0	0	0	0	0	493	623	
1	0	0	0	0	493	622	
2	0	0	0	0	494	621	
3	0	0	0	0	494	622	
4	0	0	0	0	494	623	
5	0	0	0	0	494	623	
6	0	0	0	0	493	624	
7	0	0	0	0	493	623	
8	0	0	0	0	493	623	
9	0	0	0	0	493	623	
10	0	0	0	0	492	621	
11	0	0	0	0	492	624	
12	0	0	0	0	490	624	
13	0	0	0	0	488	624	
14	0	0	0	0	486	625	
15	0	0	0	0	483	623	
0	0	0	0	0	479	624	
1	0	0	0	0	473	624	
2	0	0	0	0	467	623	
3	0	0	0	0	462	624	
4	0	0	0	0	455	624	
5	0	0	0	0	448	624	
6	0	0	0	0	440	627	
7	0	0	0	0	433	624	
8	0	0	0	0	428	624	
9	0	0	0	0	423	624	
10	0	0	0	0	418	623	
11	0	0	0	0	414	624	
12	0	0	0	0	413	624	
13	0	0	0	0	414	624	
14	0	0	0	0	417	626	
15	0	0	0	0	423	625	
0	0	0	0	0	434	624	
1	0	0	0	0	447	624	
2	0	0	0	0	464	622	
3	0	0	0	0	483	624	
4	0	0	0	0	504	624	
5	0	0	0	0	527	623	
6	0	0	0	0	550	625	
7	0	0	0	0	572	623	
8	0	0	0	0	594	623	
9	0	0	0	0	617	623	
10	0	0	0	0	640	621	
11	0	0	0	0	662	623	
12	0	0	0	0	684	623	
13	0	0	0	0	707	623	
14	0	0	0	0	731	624	
15	0	0	0	0	753	623	
0	0	0	0	0	772	624	
1	0	0	0	0	788	623	
2	0	0	0	0	803	622	
3	0	0	0	0	815	623	
4	0	0	0	0	827	623	
5	0	0	0	0	837	623	
6	0	0	0	0	846	624	
7	0	0	0	0	851	623	
8	0	0	0	0	849	623	
9	0	0	0	0	840	623	
10	0	0	0	0	828	622	
11	0	0	0	0	813	624	
12	0	0	0	0	797	623	
13	0	0	0	0	776	623	
14	0	0	0	0	752	625	
15	0	0	0	0	726	623	
0	0	0	0	0	701	623	
1	0	0	0	0	676	623	
2	0	0	0	0	652	622	
3	0	0	0	0	627	624	
4	0	0	0	0	602	624	
5	0	0	0	0	575	624	
6	0	0	0	0	551	626	
7	0	0	0	0	531	625	
8	0	0	0	0	514	625	
9	0	0	0	0	500	625	
10	0	0	0	0	488	624	
11	0	0	0	0	479	625	
12	0	0	0	0	471	625	
13	0	0	0	0	464	625	
14	0	0	0	0	457	626	
15	0	0	0	0	453	625	
0	0	0	0	0	449	626	
1	0	0	0	0	446	625	
2	0	0	0	0	442	624	
3	0	0	0	0	439	625	
4	0	0	0	0	436	626	
5	0	0	0	0	434	625	
6	0	0	0	0	432	627	
7	0	0	0	0	430	626	
8	0	0	0	0	429	625	
9	0	0	0	0	428	626	
10	0	0	0	0	427	624	
11	0	0	0	0	425	625	
12	0	0	0	0	424	626	
13	0	0	0	0	423	627	
14	0	0	0	0	422	628	
15	0	0	0	0	421	626	
0	0	0	0	0	421	625	
1	0	0	0	0	420	626	
2	0	0	0	0	419	624	
3	0	0	0	0	418	626	
4	0	0	0	0	419	626	
5	0	0	0	0	418	626	
6	0	0	0	0	419	627	
7	0	0	0	0	419	626	
8	0	0	0	0	420	626	
9	0	0	0	0	420	625	
10	0	0	0	0	420	623	
11	0	0	0	0	420	624	
12	0	0	0	0	421	624	
13	0	0	0	0	422	624	
14	0	0	0	0	422	626	
15	0	0	0	0	423	624	
0	0	0	0	0	423	623	
1	0	0	0	0	424	624	
2	0	0	0	0	424	622	
3	0	0	0	0	424	624	
4	0	0	0	0	424	623	
5	0	0	0	0	424	623	
6	0	0	0	0	425	624	
7	0	0	0	0	425	623	
8	0	0	0	0	425	623	
9	0	0	0	0	425	623	
10	0	0	0	0	425	621	
11	0	0	0	0	425	623	
12	0	0	0	0	425	623	
13	0	0	0	0	425	622	
14	0	0	0	0	426	624	
15	0	0	0	0	427	622	
0	0	0	0	0	427	622	
1	0	0	0	0	428	622	
2	0	0	0	0	428	621	
3	0	0	0	0	428	623	
4	0	0	0	0	428	623	
5	0	0	0	0	429	623	
6	0	0	0	0	431	624	
7	0	0	0	0	431	623	
8	0	0	0	0	432	623	
9	0	0	0	0	432	623	
10	0	0	0	0	432	621	
11	0	0	0	0	433	624	
12	0	0	0	0	433	624	
13	0	0	0	0	433	624	
14	0	0	0	0	434	625	
15	0	0	0	0	435	624	
0	0	0	0	0	436	624	
1	0	0	0	0	437	624	
2	0	0	0	0	438	622	
3	0	0	0	0	438	624	
4	0	0	0	0	438	624	
5	0	0	0	0	439	624	
6	0	0	0	0	440	627	
7	0	0	0	0	440	625	
8	0	0	0	0	441	625	
9	0	0	0	0	443	625	
10	0	0	0	0	444	623	
11	0	0	0	0	445	625	
12	0	0	0	0	445	625	
13	0	0	0	0	446	625	
14	0	0	0	0	446	627	
15	0	0	0	0	446	625	
0	0	0	0	0	447	625	
1	0	0	0	0	447	625	
2	0	0	0	0	448	623	
3	0	0	0	0	448	625	
4	0	0	0	0	449	625	
5	0	0	0	0	450	625	
6	0	0	0	0	450	626	
7	0	0	0	0	450	624	
8	0	0	0	0	450	624	
9	0	0	0	0	451	624	
10	0	0	0	0	452	623	
11	0	0	0	0	453	625	
12	0	0	0	0	454	624	
13	0	0	0	0	454	624	
14	0	0	0	0	453	625	
15	0	0	0	0	454	624	
0	0	0	0	0	455	624	
1	0	0	0	0	455	623	
2	0	0	0	0	456	622	
3	0	0	0	0	457	623	
4	0	0	0	0	457	623	
5	0	0	0	0	458	623	
6	0	0	0	0	459	624	
7	0	0	0	0	460	623	
8	0	0	0	0	460	623	
9	0	0	0	0	461	623	
10	0	0	0	0	461	621	
11	0	0	0	0	462	622	
12	0	0	0	0	463	622	
13	0	0	0	0	464	622	
14	0	0	0	0	465	624	
15	0	0	0	0	466	621	
0	0	0	0	0	467	622	
1	0	0	0	0	468	622	
2	0	0	0	0	468	620	
3	0	0	0	0	470	622	
4	0	0	0	0	471	622	
5	0	0	0	0	472	622	
6	0	0	0	0	472	624	
7	0	0	0	0	472	622	
8	0	0	0	0	473	622	
9	0	0	0	0	474	622	
10	0	0	0	0	476	620	
11	0	0	0	0	476	621	
12	0	0	0	0	476	621	
13	0	0	0	0	477	622	
14	0	0	0	0	478	623	
15	0	0	0	0	478	622	
0	0	0	0	0	478	622	
1	0	0	0	0	479	622	
2	0	0	0	0	480	620	
3	0	0	0	0	481	623	
4	0	0	0	0	481	622	
5	0	0	0	0	482	622	
6	0	0	0	0	482	624	
7	0	0	0	0	483	623	
8	0	0	0	0	484	622	
9	0	0	0	0	485	622	
10	0	0	0	0	485	620	
11	0	0	0	0	485	623	
12	0	0	0	0	486	623	
13	0	0	0	0	486	622	
14	0	0	0	0	487	624	
15	0	0	0	0	488	623	
0	0	0	0	0	488	623	
1	0	0	0	0	489	624	
2	0	0	0	0	489	622	
3	0	0	0	0	489	623	
4	0	0	0	0	490	623	
5	0	0	0	0	491	623	
6	0	0	0	0	492	625	
7	0	0	0	0	492	623	
8	0	0	0	0	492	624	
9	0	0	0	0	493	624	
10	0	0	0	0	493	622	
11	0	0	0	0	495	624	
12	0	0	0	0	495	624	
13	0	0	0	0	496	624	
14	0	0	0	0	496	625	
15	0	0	0	0	497	624	
0	0	0	0	0	497	624	
1	0	0	0	0	498	625	
2	0	0	0	0	499	622	
3	0	0	0	0	500	624	
4	0	0	0	0	500	624	
5	0	0	0	0	501	625	
6	0	0	0	0	502	627	
7	0	0	0	0	502	625	
8	0	0	0	0	503	625	
9	0	0	0	0	503	625	
10	0	0	0	0	503	624	
11	0	0	0	0	504	626	
12	0	0	0	0	504	626	
13	0	0	0	0	505	626	
14	0	0	0	0	505	628	
15	0	0	0	0	505	626	
0	0	0	0	0	505	626	
1	0	0	0	0	506	627	
2	0	0	0	0	507	624	
3	0	0	0	0	508	626	
4	0	0	0	0	508	626	
5	0	0	0	0	507	626	
6	0	0	0	0	507	628	
7	0	0	0	0	508	626	
8	0	0	0	0	508	626	
9	0	0	0	0	508	625	
10	0	0	0	0	508	624	
11	0	0	0	0	508	626	
12	0	0	0	0	507	626	
13	0	0	0	0	507	625	
14	0	0	0	0	507	627	
15	0	0	0	0	507	625	
0	0	0	0	0	507	625	
1	0	0	0	0	507	625	
2	0	0	0	0	506	623	
3	0	0	0	0	506	624	
4	0	0	0	0	506	624	
5	0	0	0	0	506	624	
6	0	0	0	0	506	625	
7	0	0	0	0	506	623	
8	0	0	0	0	505	623	
9	0	0	0	0	505	623	
10	0	0	0	0	505	621	
11	0	0	0	0	504	623	
12	0	0	0	0	503	623	
13	0	0	0	0	503	622	
14	0	0	0	0	502	624	
15	0	0	0	0	502	623	
0	0	0	0	0	501	622	
1	0	0	0	0	500	623	
2	0	0	0	0	501	620	
3	0	0	0	0	501	623	
4	0	0	0	0	501	622	
5	0	0	0	0	501	622	
6	0	0	0	0	501	624	
7	0	0	0	0	500	622	
8	0	0	0	0	500	622	
9	0	0	0	0	499	622	
10	0	0	0	0	498	620	
11	0	0	0	0	497	622	
12	0	0	0	0	496	623	
13	0	0	0	0	496	622	
14	0	0	0	0	495	624	
15	0	0	0	0	494	623	
0	0	0	0	0	493	623	
1	0	0	0	0	493	623	
2	0	0	0	0	493	621	
3	0	0	0	0	492	622	
4	0	0	0	0	492	623	
5	0	0	0	0	492	622	
6	0	0	0	0	492	625	
7	0	0	0	0	491	623	
8	0	0	0	0	491	623	
9	0	0	0	0	491	623	
10	0	0	0	0	491	621	
11	0	0	0	0	491	623	
12	0	0	0	0	490	622	
13	0	0	0	0	488	623	
14	0	0	0	0	488	625	
15	0	0	0	0	487	623	
0	0	0	0	0	487	623	
1	0	0	0	0	486	623	
2	0	0	0	0	486	621	
3	0	0	0	0	484	623	
4	0	0	0	0	483	622	
5	0	0	0	0	483	623	
6	0	0	0	0	483	625	
7	0	0	0	0	482	623	
8	0	0	0	0	481	623	
9	0	0	0	0	480	623	
10	0	0	0	0	480	621	
11	0	0	0	0	480	623	
12	0	0	0	0	480	624	
13	0	0	0	0	479	623	
14	0	0	0	0	479	625	
15	0	0	0	0	480	623	
0	0	0	0	0	480	623	
1	0	0	0	0	480	623	
2	0	0	0	0	479	622	
3	0	0	0	0	478	624	
4	0	0	0	0	477	624	
5	0	0	0	0	476	623	
6	0	0	0	0	477	625	
7	0	0	0	0	477	624	
8	0	0	0	0	478	624	
9	0	0	0	0	479	623	
10	0	0	0	0	479	621	
11	0	0	0	0	478	623	
12	0	0	0	0	478	623	
13	0	0	0	0	478	623	
14	0	0	0	0	478	625	
15	0	0	0	0	479	623	
0	0	0	0	0	479	624	
1	0	0	0	0	479	624	
2	0	0	0	0	480	622	
3	0	0	0	0	480	623	
4	0	0	0	0	480	623	
5	0	0	0	0	480	624	
6	0	0	0	0	479	626	
7	0	0	0	0	480	624	
8	0	0	0	0	479	624	
9	0	0	0	0	480	624	
10	0	0	0	0	480	623	
11	0	0	0	0	480	624	
12	0	0	0	0	480	624	
13	0	0	0	0	481	624	
14	0	0	0	0	481	626	
15	0	0	0	0	480	624	
0	0	0	0	0	480	625	
1	0	0	0	0	480	624	
2	0	0	0	0	480	623	
3	0	0	0	0	481	624	
4	0	0	0	0	481	624	
5	0	0	0	0	481	624	
6	0	0	0	0	482	626	
7	0	0	0	0	483	625	
8	0	0	0	0	483	624	
9	0	0	0	0	483	625	
10	0	0	0	0	483	623	
11	0	0	0	0	483	625	
12	0	0	0	0	484	625	
13	0	0	0	0	484	624	
14	0	0	0	0	484	627	
15	0	0	0	0	484	625	
0	0	0	0	0	485	625	
1	0	0	0	0	485	625	
2	0	0	0	0	484	623	
3	0	0	0	0	484	625	
4	0	0	0	0	484	625	
5	0	0	0	0	484	625	
6	0	0	0	0	484	627	
7	0	0	0	0	483	625	
8	0	0	0	0	483	624	
9	0	0	0	0	484	625	
10	0	0	0	0	484	623	
11	0	0	0	0	485	625	
12	0	0	0	0	486	624	
13	0	0	0	0	486	624	
14	0	0	0	0	487	626	
15	0	0	0	0	486	624	
0	0	0	0	0	487	625	
1	0	0	0	0	487	624	
2	0	0	0	0	487	623	
3	0	0	0	0	487	624	
4	0	0	0	0	487	624	
5	0	0	0	0	487	624	
6	0	0	0	0	487	626	
7	0	0	0	0	487	624	
8	0	0	0	0	487	625	
9	0	0	0	0	487	624	
10	0	0	0	0	489	623	
11	0	0	0	0	489	625	
12	0	0	0	0	489	624	
13	0	0	0	0	488	625	
14	0	0	0	0	488	627	
15	0	0	0	0	489	625	
0	0	0	0	0	489	625	
1	0	0	0	0	489	624	
2	0	0	0	0	489	623	
3	0	0	0	0	489	625	
4	0	0	0	0	489	624	
5	0	0	0	0	489	625	
6	0	0	0	0	488	627	
7	0	0	0	0	488	624	
8	0	0	0	0	488	625	
9	0	0	0	0	487	624	
10	0	0	0	0	489	622	
11	0	0	0	0	489	624	
12	0	0	0	0	488	624	
13	0	0	0	0	488	624	
14	0	0	0	0	489	626	
15	0	0	0	0	489	625	
0	0	0	0	0	490	624	
1	0	0	0	0	491	624	
2	0	0	0	0	491	622	
3	0	0	0	0	492	624	
4	0	0	0	0	492	624	
5	0	0	0	0	492	623	
6	0	0	0	0	492	624	
7	0	0	0	0	493	623	
8	0	0	0	0	494	624	
9	0	0	0	0	494	624	
10	0	0	0	0	494	621	
11	0	0	0	0	493	624	
12	0	0	0	0	493	623	
13	0	0	0	0	493	623	
14	0	0	0	0	493	625	
15	0	0	0	0	493	623	
0	0	0	0	0	493	623	
1	0	0	0	0	493	623	
2	0	0	0	0	494	622	
3	0	0	0	0	495	623	
4	0	0	0	0	495	623	
5	0	0	0	0	496	623	
6	0	0	0	0	496	625	
7	0	0	0	0	496	623	
8	0	0	0	0	496	623	
9	0	0	0	0	496	623	
10	0	0	0	0	497	621	
11	0	0	0	0	497	623	
12	0	0	0	0	497	623	
13	0	0	0	0	497	622	
14	0	0	0	0	496	624	
15	0	0	0	0	496	622	
0	0	0	0	0	495	622	
1	0	0	0	0	495	622	
2	0	0	0	0	496	621	
3	0	0	0	0	495	622	
4	0	0	0	0	495	622	
5	0	0	0	0	496	622	
6	0	0	0	0	496	624	
7	0	0	0	0	496	622	
8	0	0	0	0	497	622	
9	0	0	0	0	497	622	
10	0	0	0	0	497	620	
11	0	0	0	0	498	622	
12	0	0	0	0	499	622	
13	0	0	0	0	499	622	
14	0	0	0	0	500	624	
15	0	0	0	0	500	622	
0	0	0	0	0	501	622	
1	0	0	0	0	502	623	
2	0	0	0	0	503	620	
3	0	0	0	0	503	623	
4	0	0	0	0	504	623	
5	0	0	0	0	504	623	
6	0	0	0	0	504	625	
7	0	0	0	0	503	624	
8	0	0	0	0	503	624	
9	0	0	0	0	503	624	
10	0	0	0	0	504	623	
11	0	0	0	0	505	624	
12	0	0	0	0	506	624	
13	0	0	0	0	507	624	
14	0	0	0	0	508	626	
15	0	0	0	0	508	624	
0	0	0	0	0	509	625	
1	0	0	0	0	509	624	
2	0	0	0	0	510	623	
3	0	0	0	0	511	624	
4	0	0	0	0	512	624	
5	0	0	0	0	513	624	
6	0	0	0	0	514	626	
7	0	0	0	0	514	624	
8	0	0	0	0	513	624	
9	0	0	0	0	513	624	
10	0	0	0	0	512	622	
11	0	0	0	0	511	624	
12	0	0	0	0	511	623	
13	0	0	0	0	511	624	
14	0	0	0	0	511	625	
15	0	0	0	0	511	624	
0	0	0	0	0	511	623	
1	0	0	0	0	511	623	
2	0	0	0	0	511	622	
3	0	0	0	0	511	623	
4	0	0	0	0	512	623	
5	0	0	0	0	512	623	
6	0	0	0	0	512	625	
7	0	0	0	0	512	623	
8	0	0	0	0	512	623	
9	0	0	0	0	512	623	
10	0	0	0	0	512	621	
11	0	0	0	0	512	623	
12	0	0	0	0	511	623	
13	0	0	0	0	510	623	
14	0	0	0	0	511	625	
15	0	0	0	0	510	623	
0	0	0	0	0	509	622	
1	0	0	0	0	510	623	
2	0	0	0	0	510	620	
3	0	0	0	0	510	623	
4	0	0	0	0	510	622	
5	0	0	0	0	510	622	
6	0	0	0	0	509	624	
7	0	0	0	0	509	622	
8	0	0	0	0	509	622	
9	0	0	0	0	509	623	
10	0	0	0	0	509	621	
11	0	0	0	0	508	622	
12	0	0	0	0	508	622	
13	0	0	0	0	507	622	
14	0	0	0	0	507	624	
15	0	0	0	0	506	622	
0	0	0	0	0	507	623	
1	0	0	0	0	507	622	
2	0	0	0	0	506	620	
3	0	0	0	0	505	622	
4	0	0	0	0	505	622	
5	0	0	0	0	506	621	
6	0	0	0	0	505	624	
7	0	0	0	0	506	623	
8	0	0	0	0	506	623	
9	0	0	0	0	507	623	
10	0	0	0	0	507	622	
11	0	0	0	0	507	624	
12	0	0	0	0	508	624	
13	0	0	0	0	508	624	
14	0	0	0	0	508	626	
15	0	0	0	0	509	625	
0	0	0	0	0	509	625	
1	0	0	0	0	510	625	
2	0	0	0	0	510	624	
3	0	0	0	0	510	626	
4	0	0	0	0	510	626	
5	0	0	0	0	509	626	
6	0	0	0	0	509	627	
7	0	0	0	0	508	626	
8	0	0	0	0	507	626	
9	0	0	0	0	506	626	
10	0	0	0	0	506	624	
11	0	0	0	0	507	625	
12	0	0	0	0	508	626	
13	0	0	0	0	508	625	
14	0	0	0	0	508	627	
15	0	0	0	0	509	625	
0	0	0	0	0	509	625	
1	0	0	0	0	509	625	
2	0	0	0	0	508	623	
3	0	0	0	0	508	625	
4	0	0	0	0	508	626	
5	0	0	0	0	507	625	
6	0	0	0	0	506	627	
7	0	0	0	0	505	625	
8	0	0	0	0	505	625	
9	0	0	0	0	505	625	
10	0	0	0	0	505	623	
11	0	0	0	0	506	624	
12	0	0	0	0	506	625	
13	0	0	0	0	506	624	
14	0	0	0	0	506	627	
15	0	0	0	0	506	625	
0	0	0	0	0	506	624	
1	0	0	0	0	505	624	
2	0	0	0	0	505	622	
3	0	0	0	0	504	624	
4	0	0	0	0	504	624	
5	0	0	0	0	504	624	
6	0	0	0	0	505	626	
7	0	0	0	0	505	623	
8	0	0	0	0	505	624	
9	0	0	0	0	505	624	
10	0	0	0	0	505	622	
11	0	0	0	0	504	623	
12	0	0	0	0	504	623	
13	0	0	0	0	504	623	
14	0	0	0	0	504	625	
15	0	0	0	0	504	624	
0	0	0	0	0	504	623	
1	0	0	0	0	503	624	
2	0	0	0	0	503	622	
3	0	0	0	0	502	624	
4	0	0	0	0	502	624	
5	0	0	0	0	503	622	
6	0	0	0	0	503	624	
7	0	0	0	0	503	624	
8	0	0	0	0	504	623	
9	0	0	0	0	503	623	
10	0	0	0	0	504	622	
11	0	0	0	0	503	623	
12	0	0	0	0	502	624	
13	0	0	0	0	502	624	
14	0	0	0	0	502	625	
15	0	0	0	0	503	624	
0	0	0	0	0	503	624	
1	0	0	0	0	503	624	
2	0	0	0	0	503	622	
3	0	0	0	0	503	624	
4	0	0	0	0	504	624	
5	0	0	0	0	504	624	
6	0	0	0	0	504	626	
7	0	0	0	0	503	624	
8	0	0	0	0	503	624	
9	0	0	0	0	504	624	
10	0	0	0	0	504	622	
11	0	0	0	0	504	624	
12	0	0	0	0	504	624	
13	0	0	0	0	505	624	
14	0	0	0	0	506	626	
15	0	0	0	0	505	624	
0	0	0	0	0	505	624	
1	0	0	0	0	505	624	
2	0	0	0	0	505	621	
3	0	0	0	0	504	624	
4	0	0	0	0	504	624	
5	0	0	0	0	505	624	
6	0	0	0	0	504	625	
7	0	0	0	0	504	624	
8	0	0	0	0	504	624	
9	0	0	0	0	503	623	
10	0	0	0	0	503	622	
11	0	0	0	0	503	624	
12	0	0	0	0	504	624	
13	0	0	0	0	504	624	
14	0	0	0	0	503	625	
15	0	0	0	0	503	624	
0	0	0	0	0	504	624	
1	0	0	0	0	505	624	
2	0	0	0	0	506	622	
3	0	0	0	0	506	623	
4	0	0	0	0	507	623	
5	0	0	0	0	507	624	
6	0	0	0	0	506	625	
7	0	0	0	0	506	623	
8	0	0	0	0	505	623	
9	0	0	0	0	505	624	
10	0	0	0	0	506	622	
11	0	0	0	0	508	624	
12	0	0	0	0	508	624	
13	0	0	0	0	508	624	
14	0	0	0	0	509	625	
15	0	0	0	0	509	624	
0	0	0	0	0	509	624	
1	0	0	0	0	510	623	
2	0	0	0	0	509	621	
3	0	0	0	0	508	623	
4	0	0	0	0	508	623	
5	0	0	0	0	509	623	
6	0	0	0	0	508	625	
7	0	0	0	0	508	623	
8	0	0	0	0	507	623	
9	0	0	0	0	507	623	
10	0	0	0	0	507	621	
11	0	0	0	0	507	623	
12	0	0	0	0	507	623	
13	0	0	0	0	507	623	
14	0	0	0	0	507	624	
15	0	0	0	0	508	623	
0	0	0	0	0	508	623	
1	0	0	0	0	507	622	
2	0	0	0	0	507	621	
3	0	0	0	0	507	622	
4	0	0	0	0	507	622	
5	0	0	0	0	508	621	
6	0	0	0	0	508	623	
7	0	0	0	0	509	621	
8	0	0	0	0	509	621	
9	0	0	0	0	509	621	
10	0	0	0	0	509	619	
11	0	0	0	0	508	620	
12	0	0	0	0	508	620	
13	0	0	0	0	508	620	
14	0	0	0	0	509	622	
15	0	0	0	0	508	621	
0	0	0	0	0	508	620	
1	0	0	0	0	508	621	
2	0	0	0	0	508	619	
3	0	0	0	0	508	621	
4	0	0	0	0	508	620	
5	0	0	0	0	508	620	
6	0	0	0	0	508	622	
7	0	0	0	0	508	621	
8	0	0	0	0	508	621	
9	0	0	0	0	509	621	
10	0	0	0	0	509	619	
11	0	0	0	0	509	621	
12	0	0	0	0	509	621	
13	0	0	0	0	508	621	
14	0	0	0	0	508	623	
15	0	0	0	0	509	621	
0	0	0	0	0	509	622	
1	0	0	0	0	510	622	
2	0	0	0	0	511	620	
3	0	0	0	0	511	621	
4	0	0	0	0	511	622	
5	0	0	0	0	511	622	
6	0	0	0	0	511	623	
7	0	0	0	0	510	621	
8	0	0	0	0	509	621	
9	0	0	0	0	509	622	
10	0	0	0	0	509	620	
11	0	0	0	0	509	622	
12	0	0	0	0	510	622	
13	0	0	0	0	511	621	
14	0	0	0	0	511	623	
15	0	0	0	0	511	622	
0	0	0	0	0	512	622	
1	0	0	0	0	512	622	
2	0	0	0	0	512	620	
3	0	0	0	0	512	622	
4	0	0	0	0	512	623	
5	0	0	0	0	511	623	
6	0	0	0	0	512	625	
7	0	0	0	0	512	623	
8	0	0	0	0	513	624	
9	0	0	0	0	513	624	
10	0	0	0	0	513	622	
11	0	0	0	0	514	623	
12	0	0	0	0	513	623	
13	0	0	0	0	512	623	
14	0	0	0	0	513	625	
15	0	0	0	0	513	624	
0	0	0	0	0	513	624	
1	0	0	0	0	512	625	
2	0	0	0	0	511	623	
3	0	0	0	0	511	625	
4	0	0	0	0	510	625	
5	0	0	0	0	510	625	
6	0	0	0	0	510	627	
7	0	0	0	0	510	626	
8	0	0	0	0	509	625	
9	0	0	0	0	510	625	
10	0	0	0	0	509	624	
11	0	0	0	0	509	626	
12	0	0	0	0	509	625	
13	0	0	0	0	509	625	
14	0	0	0	0	508	627	
15	0	0	0	0	507	626	
0	0	0	0	0	506	625	
1	0	0	0	0	506	625	
2	0	0	0	0	505	624	
3	0	0	0	0	505	625	
4	0	0	0	0	506	626	
5	0	0	0	0	505	626	
6	0	0	0	0	506	627	
7	0	0	0	0	507	626	
8	0	0	0	0	507	626	
9	0	0	0	0	507	626	
10	0	0	0	0	507	624	
11	0	0	0	0	507	626	
12	0	0	0	0	508	626	
13	0	0	0	0	508	626	
14	0	0	0	0	509	627	
15	0	0	0	0	509	626	
0	0	0	0	0	508	626	
1	0	0	0	0	508	626	
2	0	0	0	0	508	624	
3	0	0	0	0	509	626	
4	0	0	0	0	508	626	
5	0	0	0	0	508	627	
6	0	0	0	0	508	628	
7	0	0	0	0	508	627	
8	0	0	0	0	507	627	
9	0	0	0	0	507	627	
10	0	0	0	0	508	624	
11	0	0	0	0	508	626	
12	0	0	0	0	508	626	
13	0	0	0	0	508	626	
14	0	0	0	0	507	627	
15	0	0	0	0	507	626	
0	0	0	0	0	507	625	
1	0	0	0	0	505	625	
2	0	0	0	0	504	624	
3	0	0	0	0	503	625	
4	0	0	0	0	500	625	
5	0	0	0	0	498	625	
6	0	0	0	0	495	627	
7	0	0	0	0	490	624	
8	0	0	0	0	484	624	
9	0	0	0	0	479	623	
10	0	0	0	0	473	622	
11	0	0	0	0	467	623	
12	0	0	0	0	460	623	
13	0	0	0	0	453	623	
14	0	0	0	0	446	625	
15	0	0	0	0	441	624	
0	0	0	0	0	436	623	
1	0	0	0	0	432	623	
2	0	0	0	0	430	622	
3	0	0	0	0	430	624	
4	0	0	0	0	432	623	
5	0	0	0	0	436	623	
6	0	0	0	0	444	625	
7	0	0	0	0	454	624	
8	0	0	0	0	469	623	
9	0	0	0	0	487	623	
10	0	0	0	0	508	622	
11	0	0	0	0	530	623	
12	0	0	0	0	551	624	
13	0	0	0	0	573	623	
14	0	0	0	0	596	624	
15	0	0	0	0	618	623	
0	0	0	0	0	639	623	
1	0	0	0	0	660	623	
2	0	0	0	0	682	622	
3	0	0	0	0	703	623	
4	0	0	0	0	724	623	
5	0	0	0	0	747	623	
6	0	0	0	0	769	625	
7	0	0	0	0	788	623	
8	0	0	0	0	806	623	
9	0	0	0	0	820	623	
10	0	0	0	0	832	622	
11	0	0	0	0	840	623	
12	0	0	0	0	847	624	
13	0	0	0	0	853	624	
14	0	0	0	0	854	624	
15	0	0	0	0	849	624	
0	0	0	0	0	840	623	
1	0	0	0	0	825	624	
2	0	0	0	0	809	622	
3	0	0	0	0	791	624	
4	0	0	0	0	769	624	
5	0	0	0	0	745	624	
6	0	0	0	0	722	625	
7	0	0	0	0	700	624	
8	0	0	0	0	676	624	
9	0	0	0	0	654	625	
10	0	0	0	0	632	622	
11	0	0	0	0	608	625	
12	0	0	0	0	584	625	
13	0	0	0	0	563	625	
14	0	0	0	0	544	627	
15	0	0	0	0	529	624	
0	0	0	0	0	515	625	
1	0	0	0	0	505	625	
2	0	0	0	0	497	623	
3	0	0	0	0	490	625	
4	0	0	0	0	484	625	
5	0	0	0	0	479	624	
6	0	0	0	0	476	626	
7	0	0	0	0	472	625	
8	0	0	0	0	469	625	
9	0	0	0	0	465	624	
10	0	0	0	0	463	622	
11	0	0	0	0	461	624	
12	0	0	0	0	459	624	
13	0	0	0	0	456	625	
14	0	0	0	0	454	626	
15	0	0	0	0	451	624	
0	0	0	0	0	450	624	
1	0	0	0	0	449	624	
2	0	0	0	0	448	622	
3	0	0	0	0	446	624	
4	0	0	0	0	444	624	
5	0	0	0	0	443	624	
6	0	0	0	0	442	626	
7	0	0	0	0	441	623	
8	0	0	0	0	440	624	
9	0	0	0	0	439	624	
10	0	0	0	0	439	622	
11	0	0	0	0	439	624	
12	0	0	0	0	439	624	
13	0	0	0	0	439	624	
14	0	0	0	0	440	625	
15	0	0	0	0	440	624	
0	0	0	0	0	439	623	
1	0	0	0	0	440	624	
2	0	0	0	0	441	622	
3	0	0	0	0	442	624	
4	0	0	0	0	442	624	
5	0	0	0	0	442	624	
6	0	0	0	0	442	625	
7	0	0	0	0	442	624	
8	0	0	0	0	443	624	
9	0	0	0	0	444	624	
10	0	0	0	0	444	622	
11	0	0	0	0	444	624	
12	0	0	0	0	444	624	
13	0	0	0	0	445	624	
14	0	0	0	0	445	626	
15	0	0	0	0	444	624	
0	0	0	0	0	444	624	
1	0	0	0	0	444	624	
2	0	0	0	0	444	622	
3	0	0	0	0	444	624	
4	0	0	0	0	444	623	
5	0	0	0	0	445	623	
6	0	0	0	0	446	625	
7	0	0	0	0	447	624	
8	0	0	0	0	447	624	
9	0	0	0	0	448	624	
10	0	0	0	0	448	622	
11	0	0	0	0	447	624	
12	0	0	0	0	448	624	
13	0	0	0	0	448	623	
14	0	0	0	0	448	626	
15	0	0	0	0	449	624	
0	0	0	0	0	449	624	
1	0	0	0	0	449	624	
2	0	0	0	0	451	622	
3	0	0	0	0	451	624	
4	0	0	0	0	453	624	
5	0	0	0	0	453	624	
6	0	0	0	0	454	626	
7	0	0	0	0	455	625	
8	0	0	0	0	455	624	
9	0	0	0	0	455	624	
10	0	0	0	0	455	622	
11	0	0	0	0	455	624	
12	0	0	0	0	456	624	
13	0	0	0	0	456	623	
14	0	0	0	0	455	624	
15	0	0	0	0	455	623	
0	0	0	0	0	454	622	
1	0	0	0	0	454	622	
2	0	0	0	0	454	620	
3	0	0	0	0	453	622	
4	0	0	0	0	453	622	
5	0	0	0	0	454	622	
6	0	0	0	0	455	623	
7	0	0	0	0	455	622	
8	0	0	0	0	456	621	
9	0	0	0	0	456	621	
10	0	0	0	0	456	619	
11	0	0	0	0	457	621	
12	0	0	0	0	458	621	
13	0	0	0	0	458	620	
14	0	0	0	0	458	622	
15	0	0	0	0	458	620	
0	0	0	0	0	459	620	
1	0	0	0	0	459	620	
2	0	0	0	0	459	618	
3	0	0	0	0	459	620	
4	0	0	0	0	459	620	
5	0	0	0	0	459	620	
6	0	0	0	0	460	621	
7	0	0	0	0	460	620	
8	0	0	0	0	461	620	
9	0	0	0	0	462	620	
10	0	0	0	0	464	618	
11	0	0	0	0	464	620	
12	0	0	0	0	465	619	
13	0	0	0	0	465	620	
14	0	0	0	0	466	621	
15	0	0	0	0	467	620	
0	0	0	0	0	467	620	
1	0	0	0	0	468	620	
2	0	0	0	0	468	618	
3	0	0	0	0	468	620	
4	0	0	0	0	470	621	
5	0	0	0	0	470	620	
6	0	0	0	0	471	623	
7	0	0	0	0	471	622	
8	0	0	0	0	471	621	
9	0	0	0	0	472	621	
10	0	0	0	0	472	620	
11	0	0	0	0	472	621	
12	0	0	0	0	472	622	
13	0	0	0	0	472	622	
14	0	0	0	0	472	624	
15	0	0	0	0	473	623	
0	0	0	0	0	473	623	
1	0	0	0	0	473	623	
2	0	0	0	0	475	621	
3	0	0	0	0	476	624	
4	0	0	0	0	477	623	
5	0	0	0	0	479	623	
6	0	0	0	0	480	625	
7	0	0	0	0	481	624	
8	0	0	0	0	482	624	
9	0	0	0	0	482	625	
10	0	0	0	0	482	623	
11	0	0	0	0	483	624	
12	0	0	0	0	483	625	
13	0	0	0	0	484	624	
14	0	0	0	0	484	627	
15	0	0	0	0	485	625	
0	0	0	0	0	486	625	
1	0	0	0	0	486	626	
2	0	0	0	0	487	624	
3	0	0	0	0	487	626	
4	0	0	0	0	488	625	
5	0	0	0	0	489	625	
6	0	0	0	0	491	627	
7	0	0	0	0	492	625	
8	0	0	0	0	492	625	
9	0	0	0	0	493	625	
10	0	0	0	0	493	623	
11	0	0	0	0	494	625	
12	0	0	0	0	494	625	
13	0	0	0	0	495	624	
14	0	0	0	0	496	627	
15	0	0	0	0	496	625	
0	0	0	0	0	496	625	
1	0	0	0	0	498	625	
2	0	0	0	0	498	622	
3	0	0	0	0	499	625	
4	0	0	0	0	499	624	
5	0	0	0	0	501	624	
6	0	0	0	0	502	626	
7	0	0	0	0	502	624	
8	0	0	0	0	503	624	
9	0	0	0	0	504	624	
10	0	0	0	0	505	622	
11	0	0	0	0	506	624	
12	0	0	0	0	508	624	
13	0	0	0	0	508	624	
14	0	0	0	0	509	625	
15	0	0	0	0	510	624	
0	0	0	0	0	510	624	
1	0	0	0	0	511	624	
2	0	0	0	0	511	622	
3	0	0	0	0	511	624	
4	0	0	0	0	511	624	
5	0	0	0	0	511	623	
6	0	0	0	0	511	624	
7	0	0	0	0	512	623	
8	0	0	0	0	512	623	
9	0	0	0	0	512	622	
10	0	0	0	0	513	621	
11	0	0	0	0	512	623	
12	0	0	0	0	511	623	
13	0	0	0	0	511	623	
14	0	0	0	0	511	625	
15	0	0	0	0	510	623	
0	0	0	0	0	510	622	
1	0	0	0	0	510	623	
2	0	0	0	0	509	621	
3	0	0	0	0	509	622	
4	0	0	0	0	509	622	
5	0	0	0	0	509	622	
6	0	0	0	0	509	624	
7	0	0	0	0	508	622	
8	0	0	0	0	507	622	
9	0	0	0	0	506	622	
10	0	0	0	0	507	620	
11	0	0	0	0	507	622	
12	0	0	0	0	507	622	
13	0	0	0	0	506	622	
14	0	0	0	0	506	624	
15	0	0	0	0	504	622	
0	0	0	0	0	504	622	
1	0	0	0	0	504	622	
2	0	0	0	0	504	620	
3	0	0	0	0	504	622	
4	0	0	0	0	504	622	
5	0	0	0	0	504	622	
6	0	0	0	0	503	624	
7	0	0	0	0	502	622	
8	0	0	0	0	502	623	
9	0	0	0	0	501	623	
10	0	0	0	0	501	621	
11	0	0	0	0	500	623	
12	0	0	0	0	500	623	
13	0	0	0	0	499	623	
14	0	0	0	0	499	625	
15	0	0	0	0	498	624	
0	0	0	0	0	497	624	
1	0	0	0	0	496	623	
2	0	0	0	0	496	623	
3	0	0	0	0	497	624	
4	0	0	0	0	497	624	
5	0	0	0	0	497	625	
6	0	0	0	0	497	626	
7	0	0	0	0	496	624	
8	0	0	0	0	497	625	
9	0	0	0	0	496	625	
10	0	0	0	0	495	624	
11	0	0	0	0	495	625	
12	0	0	0	0	494	625	
13	0	0	0	0	494	625	
14	0	0	0	0	494	627	
15	0	0	0	0	494	625	
0	0	0	0	0	494	626	
1	0	0	0	0	493	626	
2	0	0	0	0	492	624	
3	0	0	0	0	491	627	
4	0	0	0	0	491	626	
5	0	0	0	0	492	627	
6	0	0	0	0	492	629	
7	0	0	0	0	492	627	
8	0	0	0	0	491	627	
9	0	0	0	0	491	627	
10	0	0	0	0	490	625	
11	0	0	0	0	489	627	
12	0	0	0	0	488	627	
13	0	0	0	0	486	625	
14	0	0	0	0	483	627	
15	0	0	0	0	482	625	
0	0	0	0	0	481	626	
1	0	0	0	0	480	625	
2	0	0	0	0	480	623	
3	0	0	0	0	479	625	
4	0	0	0	0	480	625	
5	0	0	0	0	480	625	
6	0	0	0	0	480	626	
7	0	0	0	0	479	624	
8	0	0	0	0	478	624	
9	0	0	0	0	478	624	
10	0	0	0	0	478	622	
11	0	0	0	0	478	624	
12	0	0	0	0	477	623	
13	0	0	0	0	478	623	
14	0	0	0	0	479	625	
15	0	0	0	0	479	623	
0	0	0	0	0	479	623	
1	0	0	0	0	478	623	
2	0	0	0	0	478	621	
3	0	0	0	0	479	623	
4	0	0	0	0	479	622	
5	0	0	0	0	480	623	
6	0	0	0	0	480	624	
7	0	0	0	0	481	622	
8	0	0	0	0	481	622	
9	0	0	0	0	482	622	
10	0	0	0	0	482	619	
11	0	0	0	0	482	621	
12	0	0	0	0	483	621	
13	0	0	0	0	483	620	
14	0	0	0	0	483	622	
15	0	0	0	0	483	620	
0	0	0	0	0	483	620	
1	0	0	0	0	482	621	
2	0	0	0	0	482	619	
3	0	0	0	0	483	621	
4	0	0	0	0	482	620	
5	0	0	0	0	483	620	
6	0	0	0	0	483	622	
7	0	0	0	0	483	620	
8	0	0	0	0	483	621	
9	0	0	0	0	483	620	
10	0	0	0	0	483	619	
11	0	0	0	0	482	621	
12	0	0	0	0	481	621	
13	0	0	0	0	482	621	
14	0	0	0	0	482	623	
15	0	0	0	0	483	621	
0	0	0	0	0	483	622	
1	0	0	0	0	483	622	
2	0	0	0	0	483	620	
3	0	0	0	0	484	622	
4	0	0	0	0	484	621	
5	0	0	0	0	484	622	
6	0	0	0	0	484	623	
7	0	0	0	0	484	621	
8	0	0	0	0	483	622	
9	0	0	0	0	483	623	
10	0	0	0	0	483	620	
11	0	0	0	0	483	623	
12	0	0	0	0	484	623	
13	0	0	0	0	483	623	
14	0	0	0	0	484	625	
15	0	0	0	0	484	623	
0	0	0	0	0	485	624	
1	0	0	0	0	486	624	
2	0	0	0	0	487	622	
3	0	0	0	0	487	624	
4	0	0	0	0	488	624	
5	0	0	0	0	489	625	
6	0	0	0	0	491	627	
7	0	0	0	0	492	625	
8	0	0	0	0	494	625	
9	0	0	0	0	496	625	
10	0	0	0	0	497	624	
11	0	0	0	0	498	626	
12	0	0	0	0	498	625	
13	0	0	0	0	499	626	
14	0	0	0	0	500	628	
15	0	0	0	0	501	627	
0	0	0	0	0	501	627	
1	0	0	0	0	501	627	
2	0	0	0	0	499	625	
3	0	0	0	0	498	628	
4	0	0	0	0	497	627	
5	0	0	0	0	496	627	
6	0	0	0	0	496	630	
7	0	0	0	0	495	628	
8	0	0	0	0	493	628	
9	0	0	0	0	492	627	
10	0	0	0	0	493	627	
11	0	0	0	0	494	628	
12	0	0	0	0	495	629	
13	0	0	0	0	496	628	
14	0	0	0	0	496	630	
15	0	0	0	0	497	629	
0	0	0	0	0	499	629	
1	0	0	0	0	500	628	
2	0	0	0	0	502	626	
3	0	0	0	0	502	627	
4	0	0	0	0	502	627	
5	0	0	0	0	502	627	
6	0	0	0	0	502	628	
7	0	0	0	0	501	626	
8	0	0	0	0	499	626	
9	0	0	0	0	497	626	
10	0	0	0	0	496	624	
11	0	0	0	0	495	626	
12	0	0	0	0	494	625	
13	0	0	0	0	494	625	
14	0	0	0	0	495	626	
15	0	0	0	0	496	624	
0	0	0	0	0	496	624	
1	0	0	0	0	497	624	
2	0	0	0	0	497	622	
3	0	0	0	0	497	623	
4	0	0	0	0	499	622	
5	0	0	0	0	499	622	
6	0	0	0	0	499	624	
7	0	0	0	0	498	623	
8	0	0	0	0	498	621	
9	0	0	0	0	498	622	
10	0	0	0	0	499	620	
11	0	0	0	0	499	621	
12	0	0	0	0	499	621	
13	0	0	0	0	500	622	
14	0	0	0	0	500	623	
15	0	0	0	0	501	621	
0	0	0	0	0	502	621	
1	0	0	0	0	503	621	
2	0	0	0	0	504	620	
3	0	0	0	0	505	622	
4	0	0	0	0	506	622	
5	0	0	0	0	508	621	
6	0	0	0	0	508	623	
7	0	0	0	0	509	621	
8	0	0	0	0	508	621	
9	0	0	0	0	508	622	
10	0	0	0	0	507	620	
11	0	0	0	0	507	622	
12	0	0	0	0	507	622	
13	0	0	0	0	507	622	
14	0	0	0	0	508	624	
15	0	0	0	0	509	623	
0	0	0	0	0	508	622	
1	0	0	0	0	508	623	
2	0	0	0	0	508	621	
3	0	0	0	0	508	623	
4	0	0	0	0	508	624	
5	0	0	0	0	508	624	
6	0	0	0	0	509	625	
7	0	0	0	0	510	623	
8	0	0	0	0	509	624	
9	0	0	0	0	510	624	
10	0	0	0	0	510	622	
11	0	0	0	0	510	624	
12	0	0	0	0	509	623	
13	0	0	0	0	509	624	
14	0	0	0	0	509	626	
15	0	0	0	0	509	624	
0	0	0	0	0	510	625	
1	0	0	0	0	509	625	
2	0	0	0	0	508	624	
3	0	0	0	0	507	625	
4	0	0	0	0	506	625	
5	0	0	0	0	506	625	
6	0	0	0	0	506	627	
7	0	0	0	0	506	626	
8	0	0	0	0	506	626	
9	0	0	0	0	507	626	
10	0	0	0	0	506	625	
11	0	0	0	0	505	626	
12	0	0	0	0	504	626	
13	0	0	0	0	504	627	
14	0	0	0	0	505	628	
15	0	0	0	0	507	627	
0	0	0	0	0	505	626	
1	0	0	0	0	505	627	
2	0	0	0	0	506	624	
3	0	0	0	0	506	627	
4	0	0	0	0	507	627	
5	0	0	0	0	508	627	
6	0	0	0	0	509	628	
7	0	0	0	0	508	627	
8	0	0	0	0	507	626	
9	0	0	0	0	505	626	
10	0	0	0	0	505	624	
11	0	0	0	0	504	625	
12	0	0	0	0	504	625	
13	0	0	0	0	502	625	
14	0	0	0	0	500	625	
15	0	0	0	0	500	624	
0	0	0	0	0	499	624	
1	0	0	0	0	500	624	
2	0	0	0	0	501	622	
3	0	0	0	0	500	623	
4	0	0	0	0	500	623	
5	0	0	0	0	498	623	
6	0	0	0	0	497	625	
7	0	0	0	0	496	622	
8	0	0	0	0	497	623	
9	0	0	0	0	498	622	
10	0	0	0	0	499	621	
11	0	0	0	0	499	622	
12	0	0	0	0	499	623	
13	0	0	0	0	499	622	
14	0	0	0	0	499	624	
15	0	0	0	0	501	622	
0	0	0	0	0	501	622	
1	0	0	0	0	501	622	
2	0	0	0	0	503	620	
3	0	0	0	0	505	622	
4	0	0	0	0	508	623	
5	0	0	0	0	511	622	
6	0	0	0	0	512	624	
7	0	0	0	0	515	623	
8	0	0	0	0	515	623	
9	0	0	0	0	517	623	
10	0	0	0	0	517	621	
11	0	0	0	0	517	623	
12	0	0	0	0	518	623	
13	0	0	0	0	519	622	
14	0	0	0	0	522	624	
15	0	0	0	0	526	623	
0	0	0	0	0	530	623	
1	0	0	0	0	532	623	
2	0	0	0	0	534	620	
3	0	0	0	0	535	623	
4	0	0	0	0	537	623	
5	0	0	0	0	538	623	
6	0	0	0	0	539	625	
7	0	0	0	0	540	623	
8	0	0	0	0	541	624	
9	0	0	0	0	541	624	
10	0	0	0	0	541	622	
11	0	0	0	0	540	624	
12	0	0	0	0	539	624	
13	0	0	0	0	535	624	
14	0	0	0	0	531	626	
15	0	0	0	0	526	624	
0	0	0	0	0	520	624	
1	0	0	0	0	515	624	
2	0	0	0	0	511	623	
3	0	0	0	0	508	624	
4	0	0	0	0	503	625	
5	0	0	0	0	500	625	
6	0	0	0	0	497	626	
7	0	0	0	0	494	625	
8	0	0	0	0	492	625	
9	0	0	0	0	492	625	
10	0	0	0	0	492	623	
11	0	0	0	0	492	625	
12	0	0	0	0	494	625	
13	0	0	0	0	495	625	
14	0	0	0	0	496	626	
15	0	0	0	0	497	624	
0	0	0	0	0	498	625	
1	0	0	0	0	499	625	
2	0	0	0	0	500	622	
3	0	0	0	0	501	624	
4	0	0	0	0	503	624	
5	0	0	0	0	504	624	
6	0	0	0	0	505	626	
7	0	0	0	0	506	624	
8	0	0	0	0	507	624	
9	0	0	0	0	508	624	
10	0	0	0	0	510	622	
11	0	0	0	0	511	624	
12	0	0	0	0	512	624	
13	0	0	0	0	513	624	
14	0	0	0	0	513	626	
15	0	0	0	0	513	624	
0	0	0	0	0	514	623	
1	0	0	0	0	515	624	
2	0	0	0	0	515	622	
3	0	0	0	0	516	624	
4	0	0	0	0	517	624	
5	0	0	0	0	517	624	
6	0	0	0	0	518	626	
7	0	0	0	0	518	624	
8	0	0	0	0	519	625	
9	0	0	0	0	519	624	
10	0	0	0	0	519	622	
11	0	0	0	0	519	625	
12	0	0	0	0	519	625	
13	0	0	0	0	520	626	
14	0	0	0	0	520	627	
15	0	0	0	0	520	625	
0	0	0	0	0	520	625	
1	0	0	0	0	520	625	
2	0	0	0	0	521	624	
3	0	0	0	0	521	625	
4	0	0	0	0	521	625	
5	0	0	0	0	521	625	
6	0	0	0	0	521	627	
7	0	0	0	0	521	625	
8	0	0	0	0	520	625	
9	0	0	0	0	520	624	
10	0	0	0	0	520	623	
11	0	0	0	0	520	624	
12	0	0	0	0	520	624	
13	0	0	0	0	521	624	
14	0	0	0	0	521	626	
15	0	0	0	0	520	624	
0	0	0	0	0	519	624	
1	0	0	0	0	519	624	
2	0	0	0	0	519	622	
3	0	0	0	0	519	624	
4	0	0	0	0	519	624	
5	0	0	0	0	519	624	
6	0	0	0	0	519	626	
7	0	0	0	0	519	624	
8	0	0	0	0	519	624	
9	0	0	0	0	518	624	
10	0	0	0	0	518	621	
11	0	0	0	0	518	623	
12	0	0	0	0	519	623	
13	0	0	0	0	519	623	
14	0	0	0	0	519	624	
15	0	0	0	0	519	623	
0	0	0	0	0	518	623	
1	0	0	0	0	518	624	
2	0	0	0	0	518	621	
3	0	0	0	0	518	623	
4	0	0	0	0	518	623	
5	0	0	0	0	518	623	
6	0	0	0	0	517	624	
7	0	0	0	0	517	623	
8	0	0	0	0	516	623	
9	0	0	0	0	516	623	
10	0	0	0	0	516	621	
11	0	0	0	0	517	623	
12	0	0	0	0	518	623	
13	0	0	0	0	518	623	
14	0	0	0	0	519	624	
15	0	0	0	0	519	623	
0	0	0	0	0	521	623	
1	0	0	0	0	522	623	
2	0	0	0	0	523	621	
3	0	0	0	0	523	622	
4	0	0	0	0	524	623	
5	0	0	0	0	525	623	
6	0	0	0	0	525	624	
7	0	0	0	0	525	623	
8	0	0	0	0	526	622	
9	0	0	0	0	526	622	
10	0	0	0	0	525	621	
11	0	0	0	0	525	622	
12	0	0	0	0	525	623	
13	0	0	0	0	526	623	
14	0	0	0	0	526	624	
15	0	0	0	0	526	623	
0	0	0	0	0	527	623	
1	0	0	0	0	527	623	
2	0	0	0	0	527	621	
3	0	0	0	0	527	623	
4	0	0	0	0	527	622	
5	0	0	0	0	527	623	
6	0	0	0	0	527	624	
7	0	0	0	0	527	622	
8	0	0	0	0	528	622	
9	0	0	0	0	527	623	
10	0	0	0	0	527	620	
11	0	0	0	0	528	622	
12	0	0	0	0	528	622	
13	0	0	0	0	528	622	
14	0	0	0	0	527	623	
15	0	0	0	0	527	622	
0	0	0	0	0	525	622	
1	0	0	0	0	524	622	
2	0	0	0	0	524	620	
3	0	0	0	0	524	622	
4	0	0	0	0	524	622	
5	0	0	0	0	523	621	
6	0	0	0	0	522	623	
7	0	0	0	0	521	622	
8	0	0	0	0	520	622	
9	0	0	0	0	520	622	
10	0	0	0	0	520	620	
11	0	0	0	0	520	622	
12	0	0	0	0	521	622	
13	0	0	0	0	521	621	
14	0	0	0	0	521	623	
15	0	0	0	0	520	622	
0	0	0	0	0	519	622	
1	0	0	0	0	519	623	
2	0	0	0	0	520	620	
3	0	0	0	0	520	622	
4	0	0	0	0	519	622	
5	0	0	0	0	520	622	
6	0	0	0	0	520	623	
7	0	0	0	0	519	622	
8	0	0	0	0	520	622	
9	0	0	0	0	520	622	
10	0	0	0	0	520	620	
11	0	0	0	0	520	623	
12	0	0	0	0	519	623	
13	0	0	0	0	519	623	
14	0	0	0	0	519	625	
15	0	0	0	0	518	623	
0	0	0	0	0	518	623	
1	0	0	0	0	519	623	
2	0	0	0	0	519	622	
3	0	0	0	0	520	623	
4	0	0	0	0	520	623	
5	0	0	0	0	520	624	
6	0	0	0	0	519	625	
7	0	0	0	0	519	623	
8	0	0	0	0	518	624	
9	0	0	0	0	517	624	
10	0	0	0	0	516	622	
11	0	0	0	0	514	623	
12	0	0	0	0	511	624	
13	0	0	0	0	508	624	
14	0	0	0	0	502	625	
15	0	0	0	0	497	624	
0	0	0	0	0	492	624	
1	0	0	0	0	487	623	
2	0	0	0	0	479	622	
3	0	0	0	0	471	624	
4	0	0	0	0	463	624	
5	0	0	0	0	456	624	
6	0	0	0	0	449	626	
7	0	0	0	0	443	624	
8	0	0	0	0	437	624	
9	0	0	0	0	434	624	
10	0	0	0	0	433	622	
11	0	0	0	0	435	624	
12	0	0	0	0	439	623	
13	0	0	0	0	446	623	
14	0	0	0	0	457	625	
15	0	0	0	0	472	623	
0	0	0	0	0	492	624	
1	0	0	0	0	513	624	
2	0	0	0	0	537	621	
3	0	0	0	0	561	623	
4	0	0	0	0	584	624	
5	0	0	0	0	608	623	
6	0	0	0	0	632	624	
7	0	0	0	0	654	623	
8	0	0	0	0	677	622	
9	0	0	0	0	700	622	
10	0	0	0	0	721	620	
11	0	0	0	0	744	622	
12	0	0	0	0	768	621	
13	0	0	0	0	791	621	
14	0	0	0	0	811	622	
15	0	0	0	0	828	621	
0	0	0	0	0	842	620	
1	0	0	0	0	853	619	
2	0	0	0	0	862	617	
3	0	0	0	0	870	619	
4	0	0	0	0	877	619	
5	0	0	0	0	880	619	
6	0	0	0	0	876	620	
7	0	0	0	0	866	619	
8	0	0	0	0	852	619	
9	0	0	0	0	835	619	
10	0	0	0	0	816	617	
11	0	0	0	0	795	619	
12	0	0	0	0	769	619	
13	0	0	0	0	744	620	
14	0	0	0	0	719	622	
15	0	0	0	0	695	620	
0	0	0	0	0	670	620	
1	0	0	0	0	646	621	
2	0	0	0	0	620	620	
3	0	0	0	0	593	621	
4	0	0	0	0	569	621	
5	0	0	0	0	549	622	
6	0	0	0	0	533	623	
7	0	0	0	0	519	622	
8	0	0	0	0	508	623	
9	0	0	0	0	499	622	
10	0	0	0	0	492	621	
11	0	0	0	0	485	623	
12	0	0	0	0	480	623	
13	0	0	0	0	476	624	
14	0	0	0	0	472	627	
15	0	0	0	0	469	625	
0	0	0	0	0	467	626	
1	0	0	0	0	464	626	
2	0	0	0	0	462	624	
3	0	0	0	0	459	625	
4	0	0	0	0	456	627	
5	0	0	0	0	455	627	
6	0	0	0	0	453	628	
7	0	0	0	0	451	627	
8	0	0	0	0	449	627	
9	0	0	0	0	449	627	
10	0	0	0	0	448	625	
11	0	0	0	0	448	627	
12	0	0	0	0	447	626	
13	0	0	0	0	447	627	
14	0	0	0	0	446	629	
15	0	0	0	0	446	626	
0	0	0	0	0	445	626	
1	0	0	0	0	446	626	
2	0	0	0	0	446	624	
3	0	0	0	0	446	625	
4	0	0	0	0	445	625	
5	0	0	0	0	445	625	
6	0	0	0	0	446	626	
7	0	0	0	0	447	624	
8	0	0	0	0	447	624	
9	0	0	0	0	447	624	
10	0	0	0	0	448	622	
11	0	0	0	0	449	624	
12	0	0	0	0	450	624	
13	0	0	0	0	449	623	
14	0	0	0	0	448	624	
15	0	0	0	0	446	622	
0	0	0	0	0	445	622	
1	0	0	0	0	444	621	
2	0	0	0	0	445	620	
3	0	0	0	0	446	622	
4	0	0	0	0	447	622	
5	0	0	0	0	447	622	
6	0	0	0	0	449	623	
7	0	0	0	0	449	622	
8	0	0	0	0	450	622	
9	0	0	0	0	450	621	
10	0	0	0	0	451	620	
11	0	0	0	0	451	622	
12	0	0	0	0	451	621	
13	0	0	0	0	453	622	
14	0	0	0	0	453	623	
15	0	0	0	0	454	621	
0	0	0	0	0	455	621	
1	0	0	0	0	455	621	
2	0	0	0	0	455	619	
3	0	0	0	0	455	620	
4	0	0	0	0	455	621	
5	0	0	0	0	455	621	
6	0	0	0	0	457	623	
7	0	0	0	0	459	622	
8	0	0	0	0	460	621	
9	0	0	0	0	461	621	
10	0	0	0	0	462	620	
11	0	0	0	0	462	622	
12	0	0	0	0	462	621	
13	0	0	0	0	463	621	
14	0	0	0	0	463	623	
15	0	0	0	0	464	622	
0	0	0	0	0	465	622	
1	0	0	0	0	465	622	
2	0	0	0	0	465	620	
3	0	0	0	0	465	622	
4	0	0	0	0	465	623	
5	0	0	0	0	465	622	
6	0	0	0	0	464	624	
7	0	0	0	0	465	623	
8	0	0	0	0	466	624	
9	0	0	0	0	467	624	
10	0	0	0	0	466	621	
11	0	0	0	0	467	624	
12	0	0	0	0	468	623	
13	0	0	0	0	469	624	
14	0	0	0	0	471	626	
15	0	0	0	0	472	624	
0	0	0	0	0	471	625	
1	0	0	0	0	470	625	
2	0	0	0	0	470	623	
3	0	0	0	0	471	625	
4	0	0	0	0	471	625	
5	0	0	0	0	472	625	
6	0	0	0	0	472	626	
7	0	0	0	0	471	625	
8	0	0	0	0	471	625	
9	0	0	0	0	471	625	
10	0	0	0	0	471	624	
11	0	0	0	0	472	626	
12	0	0	0	0	472	626	
13	0	0	0	0	472	626	
14	0	0	0	0	473	628	
15	0	0	0	0	474	626	
0	0	0	0	0	475	626	
1	0	0	0	0	476	626	
2	0	0	0	0	478	625	
3	0	0	0	0	479	626	
4	0	0	0	0	480	627	
5	0	0	0	0	480	626	
6	0	0	0	0	480	628	
7	0	0	0	0	480	626	
8	0	0	0	0	480	627	
9	0	0	0	0	480	626	
10	0	0	0	0	480	624	
11	0	0	0	0	480	626	
12	0	0	0	0	481	626	
13	0	0	0	0	482	625	
14	0	0	0	0	482	628	
15	0	0	0	0	483	626	
0	0	0	0	0	483	626	
1	0	0	0	0	484	626	
2	0	0	0	0	486	625	
3	0	0	0	0	487	626	
4	0	0	0	0	488	626	
5	0	0	0	0	488	625	
6	0	0	0	0	488	627	
7	0	0	0	0	489	625	
8	0	0	0	0	489	625	
9	0	0	0	0	489	625	
10	0	0	0	0	491	623	
11	0	0	0	0	490	624	
12	0	0	0	0	491	624	
13	0	0	0	0	492	624	
14	0	0	0	0	492	625	
15	0	0	0	0	493	623	
0	0	0	0	0	492	623	
1	0	0	0	0	491	623	
2	0	0	0	0	492	622	
3	0	0	0	0	492	623	
4	0	0	0	0	492	623	
5	0	0	0	0	492	623	
6	0	0	0	0	493	625	
7	0	0	0	0	493	623	
8	0	0	0	0	492	623	
9	0	0	0	0	492	623	
10	0	0	0	0	493	621	
11	0	0	0	0	494	623	
12	0	0	0	0	495	623	
13	0	0	0	0	496	623	
14	0	0	0	0	498	623	
15	0	0	0	0	499	622	
0	0	0	0	0	499	622	
1	0	0	0	0	501	622	
2	0	0	0	0	502	619	
3	0	0	0	0	503	622	
4	0	0	0	0	504	621	
5	0	0	0	0	505	621	
6	0	0	0	0	505	623	
7	0	0	0	0	506	622	
8	0	0	0	0	507	622	
9	0	0	0	0	507	621	
10	0	0	0	0	507	620	
11	0	0	0	0	508	622	
12	0	0	0	0	509	622	
13	0	0	0	0	510	621	
14	0	0	0	0	510	623	
15	0	0	0	0	510	622	
0	0	0	0	0	510	622	
1	0	0	0	0	511	622	
2	0	0	0	0	511	620	
3	0	0	0	0	512	622	
4	0	0	0	0	512	623	
5	0	0	0	0	513	623	
6	0	0	0	0	513	624	
7	0	0	0	0	514	623	
8	0	0	0	0	514	623	
9	0	0	0	0	515	623	
10	0	0	0	0	515	622	
11	0	0	0	0	516	624	
12	0	0	0	0	517	624	
13	0	0	0	0	519	624	
14	0	0	0	0	519	626	
15	0	0	0	0	519	624	
0	0	0	0	0	519	624	
1	0	0	0	0	519	624	
2	0	0	0	0	519	623	
3	0	0	0	0	519	625	
4	0	0	0	0	519	625	
5	0	0	0	0	518	625	
6	0	0	0	0	518	627	
7	0	0	0	0	518	625	
8	0	0	0	0	517	625	
9	0	0	0	0	516	626	
10	0	0	0	0	515	625	
11	0	0	0	0	513	626	
12	0	0	0	0	513	626	
13	0	0	0	0	512	627	
14	0	0	0	0	513	629	
15	0	0	0	0	512	627	
0	0	0	0	0	512	628	
1	0	0	0	0	511	627	
2	0	0	0	0	510	625	
3	0	0	0	0	510	627	
4	0	0	0	0	511	627	
5	0	0	0	0	511	627	
6	0	0	0	0	511	629	
7	0	0	0	0	511	628	
8	0	0	0	0	512	627	
9	0	0	0	0	511	627	
10	0	0	0	0	511	625	
11	0	0	0	0	511	627	
12	0	0	0	0	511	627	
13	0	0	0	0	511	627	
14	0	0	0	0	511	628	
15	0	0	0	0	510	626	
0	0	0	0	0	509	625	
1	0	0	0	0	508	626	
2	0	0	0	0	506	624	
3	0	0	0	0	505	626	
4	0	0	0	0	504	626	
5	0	0	0	0	504	625	
6	0	0	0	0	505	627	
7	0	0	0	0	504	626	
8	0	0	0	0	502	625	
9	0	0	0	0	500	626	
10	0	0	0	0	500	624	
11	0	0	0	0	499	625	
12	0	0	0	0	499	625	
13	0	0	0	0	499	625	
14	0	0	0	0	498	627	
15	0	0	0	0	498	624	
0	0	0	0	0	498	624	
1	0	0	0	0	496	624	
2	0	0	0	0	495	621	
3	0	0	0	0	495	623	
4	0	0	0	0	494	623	
5	0	0	0	0	494	623	
6	0	0	0	0	494	625	
7	0	0	0	0	493	623	
8	0	0	0	0	493	624	
9	0	0	0	0	492	623	
10	0	0	0	0	491	621	
11	0	0	0	0	490	623	
12	0	0	0	0	489	623	
13	0	0	0	0	488	623	
14	0	0	0	0	488	624	
15	0	0	0	0	487	623	
0	0	0	0	0	488	623	
1	0	0	0	0	488	623	
2	0	0	0	0	490	622	
3	0	0	0	0	491	623	
4	0	0	0	0	492	623	
5	0	0	0	0	493	623	
6	0	0	0	0	493	625	
7	0	0	0	0	494	623	
8	0	0	0	0	494	623	
9	0	0	0	0	494	623	
10	0	0	0	0	495	621	
11	0	0	0	0	495	622	
12	0	0	0	0	495	622	
13	0	0	0	0	495	622	
14	0	0	0	0	496	624	
15	0	0	0	0	497	623	
0	0	0	0	0	497	623	
1	0	0	0	0	497	624	
2	0	0	0	0	497	625	
3	0	0	0	0	497	626	
4	0	0	0	0	497	624	
5	0	0	0	0	497	623	
6	0	0	0	0	497	623	
7	0	0	0	0	496	621	
8	0	0	0	0	496	622	
9	0	0	0	0	497	622	
10	0	0	0	0	497	621	
11	0	0	0	0	497	623	
12	0	0	0	0	496	622	
13	0	0	0	0	497	621	
14	0	0	0	0	497	622	
15	0	0	0	0	496	620	
0	0	0	0	0	496	620	
1	0	0	0	0	496	620	
2	0	0	0	0	496	618	
3	0	0	0	0	497	621	
4	0	0	0	0	497	621	
5	0	0	0	0	497	622	
6	0	0	0	0	497	623	
7	0	0	0	0	498	621	
8	0	0	0	0	499	622	
9	0	0	0	0	499	622	
10	0	0	0	0	500	620	
11	0	0	0	0	499	622	
12	0	0	0	0	499	622	
13	0	0	0	0	499	622	
14	0	0	0	0	499	625	
15	0	0	0	0	499	623	
0	0	0	0	0	499	624	
1	0	0	0	0	499	624	
2	0	0	0	0	499	623	
3	0	0	0	0	499	625	
4	0	0	0	0	499	625	
5	0	0	0	0	499	625	
6	0	0	0	0	499	627	
7	0	0	0	0	500	626	
8	0	0	0	0	499	627	
9	0	0	0	0	499	627	
10	0	0	0	0	499	625	
11	0	0	0	0	499	628	
12	0	0	0	0	499	628	
13	0	0	0	0	498	627	
14	0	0	0	0	498	630	
15	0	0	0	0	497	629	
0	0	0	0	0	496	628	
1	0	0	0	0	496	628	
2	0	0	0	0	496	626	
3	0	0	0	0	497	628	
4	0	0	0	0	499	628	
5	0	0	0	0	499	628	
6	0	0	0	0	500	630	
7	0	0	0	0	502	627	
8	0	0	0	0	502	627	
9	0	0	0	0	501	628	
10	0	0	0	0	501	627	
11	0	0	0	0	502	629	
12	0	0	0	0	502	629	
13	0	0	0	0	502	629	
14	0	0	0	0	501	630	
15	0	0	0	0	499	627	
0	0	0	0	0	498	627	
1	0	0	0	0	497	627	
2	0	0	0	0	497	625	
3	0	0	0	0	497	626	
4	0	0	0	0	497	625	
5	0	0	0	0	497	625	
6	0	0	0	0	498	627	
7	0	0	0	0	497	625	
8	0	0	0	0	498	624	
9	0	0	0	0	499	625	
10	0	0	0	0	499	623	
11	0	0	0	0	499	624	
12	0	0	0	0	500	623	
13	0	0	0	0	501	624	
14	0	0	0	0	502	625	
15	0	0	0	0	502	623	
0	0	0	0	0	502	623	
1	0	0	0	0	502	624	
2	0	0	0	0	503	623	
3	0	0	0	0	503	624	
4	0	0	0	0	504	624	
5	0	0	0	0	504	624	
6	0	0	0	0	504	625	
7	0	0	0	0	504	623	
8	0	0	0	0	503	623	
9	0	0	0	0	503	623	
10	0	0	0	0	502	622	
11	0	0	0	0	502	623	
12	0	0	0	0	501	623	
13	0	0	0	0	501	622	
14	0	0	0	0	501	624	
15	0	0	0	0	501	623	
0	0	0	0	0	500	622	
1	0	0	0	0	501	623	
2	0	0	0	0	501	620	
3	0	0	0	0	502	622	
4	0	0	0	0	502	622	
5	0	0	0	0	503	621	
6	0	0	0	0	502	623	
7	0	0	0	0	502	621	
8	0	0	0	0	503	620	
9	0	0	0	0	503	621	
10	0	0	0	0	503	620	
11	0	0	0	0	502	620	
12	0	0	0	0	503	620	
13	0	0	0	0	504	620	
14	0	0	0	0	504	622	
15	0	0	0	0	504	621	
0	0	0	0	0	504	621	
1	0	0	0	0	504	620	
2	0	0	0	0	504	620	
3	0	0	0	0	504	622	
4	0	0	0	0	505	621	
5	0	0	0	0	505	621	
6	0	0	0	0	506	623	
7	0	0	0	0	507	622	
8	0	0	0	0	507	622	
9	0	0	0	0	507	622	
10	0	0	0	0	508	620	
11	0	0	0	0	509	622	
12	0	0	0	0	509	623	
13	0	0	0	0	508	622	
14	0	0	0	0	506	624	
15	0	0	0	0	505	623	
0	0	0	0	0	505	623	
1	0	0	0	0	505	624	
2	0	0	0	0	505	623	
3	0	0	0	0	505	625	
4	0	0	0	0	507	625	
5	0	0	0	0	508	625	
6	0	0	0	0	510	627	
7	0	0	0	0	510	625	
8	0	0	0	0	510	625	
9	0	0	0	0	508	625	
10	0	0	0	0	507	623	
11	0	0	0	0	506	626	
12	0	0	0	0	505	625	
13	0	0	0	0	504	626	
14	0	0	0	0	503	626	
15	0	0	0	0	502	625	
0	0	0	0	0	502	625	
1	0	0	0	0	501	624	
2	0	0	0	0	500	623	
3	0	0	0	0	500	624	
4	0	0	0	0	500	624	
5	0	0	0	0	500	623	
6	0	0	0	0	501	625	
7	0	0	0	0	502	623	
8	0	0	0	0	503	623	
9	0	0	0	0	503	623	
10	0	0	0	0	504	621	
11	0	0	0	0	504	623	
12	0	0	0	0	504	622	
13	0	0	0	0	504	622	
14	0	0	0	0	505	624	
15	0	0	0	0	507	623	
0	0	0	0	0	507	623	
1	0	0	0	0	508	623	
2	0	0	0	0	507	621	
3	0	0	0	0	507	623	
4	0	0	0	0	506	623	
5	0	0	0	0	505	623	
6	0	0	0	0	504	625	
7	0	0	0	0	504	623	
8	0	0	0	0	504	623	
9	0	0	0	0	504	623	
10	0	0	0	0	504	621	
11	0	0	0	0	505	623	
12	0	0	0	0	504	622	
13	0	0	0	0	505	622	
14	0	0	0	0	506	624	
15	0	0	0	0	506	622	
0	0	0	0	0	507	622	
1	0	0	0	0	508	622	
2	0	0	0	0	507	620	
3	0	0	0	0	507	622	
4	0	0	0	0	506	623	
5	0	0	0	0	506	622	
6	0	0	0	0	505	624	
7	0	0	0	0	504	623	
8	0	0	0	0	502	621	
9	0	0	0	0	501	622	
10	0	0	0	0	500	620	
11	0	0	0	0	500	622	
12	0	0	0	0	500	622	
13	0	0	0	0	501	622	
14	0	0	0	0	502	624	
15	0	0	0	0	500	622	
0	0	0	0	0	500	621	
1	0	0	0	0	499	622	
2	0	0	0	0	500	620	
3	0	0	0	0	500	622	
4	0	0	0	0	501	623	
5	0	0	0	0	501	623	
6	0	0	0	0	502	624	
7	0	0	0	0	504	622	
8	0	0	0	0	504	621	
9	0	0	0	0	505	620	
10	0	0	0	0	506	617	
11	0	0	0	0	506	619	
12	0	0	0	0	505	619	
13	0	0	0	0	504	619	
14	0	0	0	0	502	620	
15	0	0	0	0	501	620	
0	0	0	0	0	500	620	
1	0	0	0	0	500	620	
2	0	0	0	0	500	619	
3	0	0	0	0	500	620	
4	0	0	0	0	498	620	
5	0	0	0	0	497	620	
6	0	0	0	0	497	622	
7	0	0	0	0	497	620	
8	0	0	0	0	497	620	
9	0	0	0	0	496	620	
10	0	0	0	0	496	619	
11	0	0	0	0	497	621	
12	0	0	0	0	498	620	
13	0	0	0	0	499	621	
14	0	0	0	0	499	622	
15	0	0	0	0	499	622	
0	0	0	0	0	499	621	
1	0	0	0	0	499	622	
2	0	0	0	0	499	620	
3	0	0	0	0	501	622	
4	0	0	0	0	502	622	
5	0	0	0	0	502	623	
6	0	0	0	0	503	624	
7	0	0	0	0	503	622	
8	0	0	0	0	504	623	
9	0	0	0	0	504	623	
10	0	0	0	0	504	621	
11	0	0	0	0	503	623	
12	0	0	0	0	502	623	
13	0	0	0	0	500	623	
14	0	0	0	0	499	625	
15	0	0	0	0	498	624	
0	0	0	0	0	496	623	
1	0	0	0	0	495	623	
2	0	0	0	0	494	622	
3	0	0	0	0	494	624	
4	0	0	0	0	495	624	
5	0	0	0	0	495	624	
6	0	0	0	0	495	626	
7	0	0	0	0	496	624	
8	0	0	0	0	496	624	
9	0	0	0	0	497	624	
10	0	0	0	0	498	623	
11	0	0	0	0	499	624	
12	0	0	0	0	499	625	
13	0	0	0	0	499	624	
14	0	0	0	0	498	625	
15	0	0	0	0	498	624	
0	0	0	0	0	498	625	
1	0	0	0	0	497	624	
2	0	0	0	0	497	622	
3	0	0	0	0	498	625	
4	0	0	0	0	499	625	
5	0	0	0	0	499	624	
6	0	0	0	0	499	627	
7	0	0	0	0	499	625	
8	0	0	0	0	498	625	
9	0	0	0	0	499	625	
10	0	0	0	0	499	623	
11	0	0	0	0	499	626	
12	0	0	0	0	498	627	
13	0	0	0	0	499	627	
14	0	0	0	0	498	629	
15	0	0	0	0	499	628	
0	0	0	0	0	500	628	
1	0	0	0	0	500	628	
2	0	0	0	0	501	627	
3	0	0	0	0	501	629	
4	0	0	0	0	501	629	
5	0	0	0	0	501	629	
6	0	0	0	0	500	631	
7	0	0	0	0	500	630	
8	0	0	0	0	500	630	
9	0	0	0	0	500	630	
10	0	0	0	0	500	628	
11	0	0	0	0	500	630	
12	0	0	0	0	500	630	
13	0	0	0	0	501	630	
14	0	0	0	0	501	632	
15	0	0	0	0	500	631	
0	0	0	0	0	500	631	
1	0	0	0	0	500	631	
2	0	0	0	0	500	630	
3	0	0	0	0	499	632	
4	0	0	0	0	499	631	
5	0	0	0	0	499	631	
6	0	0	0	0	500	632	
7	0	0	0	0	501	630	
8	0	0	0	0	500	629	
9	0	0	0	0	499	629	
10	0	0	0	0	498	627	
11	0	0	0	0	498	628	
12	0	0	0	0	501	628	
13	0	0	0	0	502	628	
14	0	0	0	0	502	629	
15	0	0	0	0	502	628	
0	0	0	0	0	501	628	
1	0	0	0	0	499	628	
2	0	0	0	0	498	627	
3	0	0	0	0	497	628	
4	0	0	0	0	496	628	
5	0	0	0	0	495	627	
6	0	0	0	0	494	629	
7	0	0	0	0	493	626	
8	0	0	0	0	493	627	
9	0	0	0	0	493	626	
10	0	0	0	0	494	623	
11	0	0	0	0	494	624	
12	0	0	0	0	494	624	
13	0	0	0	0	495	623	
14	0	0	0	0	493	625	
15	0	0	0	0	493	623	
0	0	0	0	0	494	623	
1	0	0	0	0	495	624	
2	0	0	0	0	495	623	
3	0	0	0	0	495	624	
4	0	0	0	0	496	625	
5	0	0	0	0	496	624	
6	0	0	0	0	496	627	
7	0	0	0	0	496	626	
8	0	0	0	0	496	625	
9	0	0	0	0	496	625	
10	0	0	0	0	496	624	
11	0	0	0	0	497	625	
12	0	0	0	0	498	626	
13	0	0	0	0	498	625	
14	0	0	0	0	499	627	
15	0	0	0	0	501	626	
0	0	0	0	0	500	626	
1	0	0	0	0	501	626	
2	0	0	0	0	501	625	
3	0	0	0	0	501	627	
4	0	0	0	0	501	626	
5	0	0	0	0	501	626	
6	0	0	0	0	501	627	
7	0	0	0	0	500	627	
8	0	0	0	0	500	627	
9	0	0	0	0	500	627	
10	0	0	0	0	500	625	
11	0	0	0	0	499	627	
12	0	0	0	0	499	627	
13	0	0	0	0	500	627	
14	0	0	0	0	500	629	
15	0	0	0	0	500	627	
0	0	0	0	0	501	627	
1	0	0	0	0	501	627	
2	0	0	0	0	502	625	
3	0	0	0	0	502	627	
4	0	0	0	0	502	627	
5	0	0	0	0	502	627	
6	0	0	0	0	502	629	
7	0	0	0	0	502	627	
8	0	0	0	0	503	627	
9	0	0	0	0	503	627	
10	0	0	0	0	503	625	
11	0	0	0	0	504	627	
12	0	0	0	0	504	626	
13	0	0	0	0	503	626	
14	0	0	0	0	503	628	
15	0	0	0	0	503	626	
0	0	0	0	0	502	626	
1	0	0	0	0	501	626	
2	0	0	0	0	502	624	
3	0	0	0	0	502	626	
4	0	0	0	0	501	625	
5	0	0	0	0	500	625	
6	0	0	0	0	500	627	
7	0	0	0	0	500	625	
8	0	0	0	0	499	624	
9	0	0	0	0	499	624	
10	0	0	0	0	499	622	
11	0	0	0	0	500	624	
12	0	0	0	0	499	623	
13	0	0	0	0	500	623	
14	0	0	0	0	501	625	
15	0	0	0	0	501	623	
0	0	0	0	0	501	623	
1	0	0	0	0	500	623	
2	0	0	0	0	501	621	
3	0	0	0	0	501	623	
4	0	0	0	0	500	623	
5	0	0	0	0	500	623	
6	0	0	0	0	500	625	
7	0	0	0	0	501	623	
8	0	0	0	0	501	623	
9	0	0	0	0	501	622	
10	0	0	0	0	501	621	
11	0	0	0	0	499	623	
12	0	0	0	0	499	622	
13	0	0	0	0	498	622	
14	0	0	0	0	497	624	
15	0	0	0	0	498	622	
0	0	0	0	0	498	623	
1	0	0	0	0	499	623	
2	0	0	0	0	500	621	
3	0	0	0	0	499	623	
4	0	0	0	0	499	623	
5	0	0	0	0	499	623	
6	0	0	0	0	500	624	
7	0	0	0	0	499	623	
8	0	0	0	0	498	623	
9	0	0	0	0	497	623	
10	0	0	0	0	493	622	
11	0	0	0	0	489	623	
12	0	0	0	0	484	623	
13	0	0	0	0	478	623	
14	0	0	0	0	473	625	
15	0	0	0	0	468	623	
0	0	0	0	0	461	623	
1	0	0	0	0	454	622	
2	0	0	0	0	447	620	
3	0	0	0	0	441	622	
4	0	0	0	0	435	622	
5	0	0	0	0	429	622	
6	0	0	0	0	426	624	
7	0	0	0	0	424	622	
8	0	0	0	0	424	622	
9	0	0	0	0	426	622	
10	0	0	0	0	429	620	
11	0	0	0	0	436	622	
12	0	0	0	0	447	622	
13	0	0	0	0	461	622	
14	0	0	0	0	478	624	
15	0	0	0	0	498	622	
0	0	0	0	0	520	622	
1	0	0	0	0	543	622	
2	0	0	0	0	565	620	
3	0	0	0	0	589	623	
4	0	0	0	0	613	622	
5	0	0	0	0	636	623	
6	0	0	0	0	660	624	
7	0	0	0	0	684	623	
8	0	0	0	0	707	622	
9	0	0	0	0	731	623	
10	0	0	0	0	755	620	
11	0	0	0	0	778	622	
12	0	0	0	0	797	623	
13	0	0	0	0	813	622	
14	0	0	0	0	828	624	
15	0	0	0	0	841	621	
0	0	0	0	0	851	622	
1	0	0	0	0	860	623	
2	0	0	0	0	868	622	
3	0	0	0	0	871	624	
4	0	0	0	0	868	625	
5	0	0	0	0	859	626	
6	0	0	0	0	846	628	
7	0	0	0	0	831	626	
8	0	0	0	0	812	625	
9	0	0	0	0	792	625	
10	0	0	0	0	767	623	
11	0	0	0	0	742	625	
12	0	0	0	0	717	624	
13	0	0	0	0	692	623	
14	0	0	0	0	668	625	
15	0	0	0	0	643	624	
0	0	0	0	0	618	623	
1	0	0	0	0	591	623	
2	0	0	0	0	568	622	
3	0	0	0	0	548	623	
4	0	0	0	0	531	623	
5	0	0	0	0	517	623	
6	0	0	0	0	504	625	
7	0	0	0	0	495	623	
8	0	0	0	0	485	623	
9	0	0	0	0	478	623	
10	0	0	0	0	472	622	
11	0	0	0	0	467	624	
12	0	0	0	0	463	623	
13	0	0	0	0	459	623	
14	0	0	0	0	455	625	
15	0	0	0	0	454	623	
0	0	0	0	0	451	624	
1	0	0	0	0	450	623	
2	0	0	0	0	448	622	
3	0	0	0	0	446	623	
4	0	0	0	0	445	623	
5	0	0	0	0	444	623	
6	0	0	0	0	443	624	
7	0	0	0	0	443	623	
8	0	0	0	0	442	623	
9	0	0	0	0	442	624	
10	0	0	0	0	443	621	
11	0	0	0	0	443	622	
12	0	0	0	0	443	623	
13	0	0	0	0	442	623	
14	0	0	0	0	441	625	
15	0	0	0	0	440	624	
0	0	0	0	0	438	624	
1	0	0	0	0	437	624	
2	0	0	0	0	436	622	
3	0	0	0	0	435	624	
4	0	0	0	0	435	624	
5	0	0	0	0	435	624	
6	0	0	0	0	436	625	
7	0	0	0	0	435	623	
8	0	0	0	0	434	624	
9	0	0	0	0	434	624	
10	0	0	0	0	435	622	
11	0	0	0	0	435	624	
12	0	0	0	0	435	624	
13	0	0	0	0	435	624	
14	0	0	0	0	436	626	
15	0	0	0	0	437	624	
0	0	0	0	0	438	624	
1	0	0	0	0	438	624	
2	0	0	0	0	439	623	
3	0	0	0	0	440	624	
4	0	0	0	0	443	625	
5	0	0	0	0	443	624	
6	0	0	0	0	444	626	
7	0	0	0	0	445	624	
8	0	0	0	0	446	624	
9	0	0	0	0	447	625	
10	0	0	0	0	448	623	
11	0	0	0	0	448	624	
12	0	0	0	0	449	625	
13	0	0	0	0	450	624	
14	0	0	0	0	452	626	
15	0	0	0	0	453	624	
0	0	0	0	0	454	624	
1	0	0	0	0	455	625	
2	0	0	0	0	455	623	
3	0	0	0	0	455	624	
4	0	0	0	0	456	624	
5	0	0	0	0	457	624	
6	0	0	0	0	457	625	
7	0	0	0	0	458	624	
8	0	0	0	0	459	624	
9	0	0	0	0	460	624	
10	0	0	0	0	460	622	
11	0	0	0	0	460	624	
12	0	0	0	0	461	624	
13	0	0	0	0	462	623	
14	0	0	0	0	462	625	
15	0	0	0	0	462	623	
0	0	0	0	0	463	623	
1	0	0	0	0	463	623	
2	0	0	0	0	462	621	
3	0	0	0	0	463	622	
4	0	0	0	0	463	623	
5	0	0	0	0	463	622	
6	0	0	0	0	464	624	
7	0	0	0	0	464	622	
8	0	0	0	0	464	622	
9	0	0	0	0	465	622	
10	0	0	0	0	467	620	
11	0	0	0	0	467	622	
12	0	0	0	0	467	622	
13	0	0	0	0	467	622	
14	0	0	0	0	467	623	
15	0	0	0	0	467	622	
0	0	0	0	0	468	622	
1	0	0	0	0	468	622	
2	0	0	0	0	469	620	
3	0	0	0	0	469	622	
4	0	0	0	0	470	623	
5	0	0	0	0	470	623	
6	0	0	0	0	471	624	
7	0	0	0	0	472	623	
8	0	0	0	0	472	622	
9	0	0	0	0	471	622	
10	0	0	0	0	470	621	
11	0	0	0	0	470	623	
12	0	0	0	0	470	623	
13	0	0	0	0	470	623	
14	0	0	0	0	471	625	
15	0	0	0	0	472	624	
0	0	0	0	0	473	623	
1	0	0	0	0	475	623	
2	0	0	0	0	476	622	
3	0	0	0	0	476	624	
4	0	0	0	0	478	623	
5	0	0	0	0	478	624	
6	0	0	0	0	477	625	
7	0	0	0	0	477	623	
8	0	0	0	0	478	624	
9	0	0	0	0	478	624	
10	0	0	0	0	478	622	
11	0	0	0	0	479	623	
12	0	0	0	0	479	624	
13	0	0	0	0	477	624	
14	0	0	0	0	476	626	
15	0	0	0	0	477	624	
0	0	0	0	0	479	624	
1	0	0	0	0	479	624	
2	0	0	0	0	478	623	
3	0	0	0	0	478	624	
4	0	0	0	0	479	624	
5	0	0	0	0	479	624	
6	0	0	0	0	480	626	
7	0	0	0	0	482	625	
8	0	0	0	0	482	625	
9	0	0	0	0	483	625	
10	0	0	0	0	483	623	
11	0	0	0	0	484	624	
12	0	0	0	0	486	625	
13	0	0	0	0	485	624	
14	0	0	0	0	486	627	
15	0	0	0	0	485	625	
0	0	0	0	0	485	625	
1	0	0	0	0	486	625	
2	0	0	0	0	487	624	
3	0	0	0	0	488	626	
4	0	0	0	0	489	626	
5	0	0	0	0	489	626	
6	0	0	0	0	491	628	
7	0	0	0	0	491	626	
8	0	0	0	0	492	627	
9	0	0	0	0	491	627	
10	0	0	0	0	492	625	
11	0	0	0	0	494	626	
12	0	0	0	0	495	627	
13	0	0	0	0	496	626	
14	0	0	0	0	496	627	
15	0	0	0	0	497	626	
0	0	0	0	0	497	626	
1	0	0	0	0	497	626	
2	0	0	0	0	497	624	
3	0	0	0	0	497	627	
4	0	0	0	0	499	627	
5	0	0	0	0	500	627	
6	0	0	0	0	502	629	
7	0	0	0	0	503	627	
8	0	0	0	0	503	627	
9	0	0	0	0	503	626	
10	0	0	0	0	505	625	
11	0	0	0	0	505	627	
12	0	0	0	0	506	627	
13	0	0	0	0	508	627	
14	0	0	0	0	508	628	
15	0	0	0	0	509	627	
0	0	0	0	0	510	627	
1	0	0	0	0	511	627	
2	0	0	0	0	511	625	
3	0	0	0	0	512	627	
4	0	0	0	0	512	627	
5	0	0	0	0	512	627	
6	0	0	0	0	512	629	
7	0	0	0	0	513	627	
8	0	0	0	0	512	627	
9	0	0	0	0	512	627	
10	0	0	0	0	512	624	
11	0	0	0	0	513	627	
12	0	0	0	0	513	626	
13	0	0	0	0	513	626	
14	0	0	0	0	513	628	
15	0	0	0	0	513	626	
0	0	0	0	0	513	626	
1	0	0	0	0	513	626	
2	0	0	0	0	513	624	
3	0	0	0	0	514	626	
4	0	0	0	0	514	626	
5	0	0	0	0	515	626	
6	0	0	0	0	515	627	
7	0	0	0	0	514	625	
8	0	0	0	0	514	626	
9	0	0	0	0	514	625	
10	0	0	0	0	515	623	
11	0	0	0	0	515	625	
12	0	0	0	0	515	624	
13	0	0	0	0	516	625	
14	0	0	0	0	515	626	
15	0	0	0	0	515	623	
0	0	0	0	0	514	622	
1	0	0	0	0	513	623	
2	0	0	0	0	514	621	
3	0	0	0	0	514	622	
4	0	0	0	0	514	623	
5	0	0	0	0	513	622	
6	0	0	0	0	513	624	
7	0	0	0	0	513	622	
8	0	0	0	0	513	622	
9	0	0	0	0	511	622	
10	0	0	0	0	511	620	
11	0	0	0	0	510	622	
12	0	0	0	0	510	622	
13	0	0	0	0	509	621	
14	0	0	0	0	509	623	
15	0	0	0	0	509	621	
0	0	0	0	0	510	621	
1	0	0	0	0	510	621	
2	0	0	0	0	509	619	
3	0	0	0	0	508	620	
4	0	0	0	0	508	621	
5	0	0	0	0	508	620	
6	0	0	0	0	508	622	
7	0	0	0	0	506	620	
8	0	0	0	0	506	620	
9	0	0	0	0	505	620	
10	0	0	0	0	504	619	
11	0	0	0	0	504	620	
12	0	0	0	0	502	620	
13	0	0	0	0	502	621	
14	0	0	0	0	502	622	
15	0	0	0	0	500	620	
0	0	0	0	0	499	620	
1	0	0	0	0	499	620	
2	0	0	0	0	498	618	
3	0	0	0	0	497	620	
4	0	0	0	0	496	620	
5	0	0	0	0	496	620	
6	0	0	0	0	496	622	
7	0	0	0	0	495	621	
8	0	0	0	0	495	620	
9	0	0	0	0	495	620	
10	0	0	0	0	495	618	
11	0	0	0	0	494	620	
12	0	0	0	0	493	621	
13	0	0	0	0	493	621	
14	0	0	0	0	492	622	
15	0	0	0	0	492	622	
0	0	0	0	0	491	621	
1	0	0	0	0	490	622	
2	0	0	0	0	488	620	
3	0	0	0	0	488	622	
4	0	0	0	0	488	622	
5	0	0	0	0	488	622	
6	0	0	0	0	488	624	
7	0	0	0	0	488	622	
8	0	0	0	0	488	621	
9	0	0	0	0	488	622	
10	0	0	0	0	487	620	
11	0	0	0	0	486	623	
12	0	0	0	0	486	621	
13	0	0	0	0	485	622	
14	0	0	0	0	485	624	
15	0	0	0	0	485	622	
0	0	0	0	0	486	622	
1	0	0	0	0	485	623	
2	0	0	0	0	486	621	
3	0	0	0	0	486	622	
4	0	0	0	0	485	622	
5	0	0	0	0	484	622	
6	0	0	0	0	485	624	
7	0	0	0	0	486	622	
8	0	0	0	0	487	622	
9	0	0	0	0	487	622	
10	0	0	0	0	487	621	
11	0	0	0	0	488	622	
12	0	0	0	0	488	623	
13	0	0	0	0	488	622	
14	0	0	0	0	490	624	
15	0	0	0	0	491	623	
0	0	0	0	0	492	623	
1	0	0	0	0	492	623	
2	0	0	0	0	493	622	
3	0	0	0	0	492	624	
4	0	0	0	0	491	623	
5	0	0	0	0	490	624	
6	0	0	0	0	491	625	
7	0	0	0	0	492	624	
8	0	0	0	0	493	624	
9	0	0	0	0	494	624	
10	0	0	0	0	493	621	
11	0	0	0	0	494	623	
12	0	0	0	0	494	624	
13	0	0	0	0	493	623	
14	0	0	0	0	492	626	
15	0	0	0	0	492	624	
0	0	0	0	0	493	624	
1	0	0	0	0	493	624	
2	0	0	0	0	494	623	
3	0	0	0	0	494	624	
4	0	0	0	0	494	624	
5	0	0	0	0	494	624	
6	0	0	0	0	495	626	
7	0	0	0	0	495	625	
8	0	0	0	0	494	624	
9	0	0	0	0	495	624	
10	0	0	0	0	495	622	
11	0	0	0	0	495	624	
12	0	0	0	0	496	624	
13	0	0	0	0	495	624	
14	0	0	0	0	495	626	
15	0	0	0	0	496	624	
0	0	0	0	0	497	623	
1	0	0	0	0	497	623	
2	0	0	0	0	498	621	
3	0	0	0	0	499	622	
4	0	0	0	0	499	622	
5	0	0	0	0	500	623	
6	0	0	0	0	501	624	
7	0	0	0	0	501	623	
8	0	0	0	0	500	622	
9	0	0	0	0	499	622	
10	0	0	0	0	500	620	
11	0	0	0	0	500	622	
12	0	0	0	0	501	622	
13	0	0	0	0	502	622	
14	0	0	0	0	501	623	
15	0	0	0	0	501	622	
0	0	0	0	0	500	622	
1	0	0	0	0	500	621	
2	0	0	0	0	499	619	
3	0	0	0	0	499	622	
4	0	0	0	0	500	622	
5	0	0	0	0	501	622	
6	0	0	0	0	500	624	
7	0	0	0	0	499	622	
8	0	0	0	0	500	622	
9	0	0	0	0	499	623	
10	0	0	0	0	498	620	
11	0	0	0	0	499	622	
12	0	0	0	0	498	622	
13	0	0	0	0	498	622	
14	0	0	0	0	498	624	
15	0	0	0	0	499	621	
0	0	0	0	0	499	621	
1	0	0	0	0	499	621	
2	0	0	0	0	499	619	
3	0	0	0	0	499	621	
4	0	0	0	0	500	621	
5	0	0	0	0	500	622	
6	0	0	0	0	502	623	
7	0	0	0	0	502	622	
8	0	0	0	0	502	622	
9	0	0	0	0	502	622	
10	0	0	0	0	502	620	
11	0	0	0	0	503	622	
12	0	0	0	0	502	623	
13	0	0	0	0	503	622	
14	0	0	0	0	503	624	
15	0	0	0	0	503	623	
0	0	0	0	0	504	623	
1	0	0	0	0	503	623	
2	0	0	0	0	503	620	
3	0	0	0	0	503	623	
4	0	0	0	0	504	623	
5	0	0	0	0	504	623	
6	0	0	0	0	504	624	
7	0	0	0	0	504	623	
8	0	0	0	0	504	624	
9	0	0	0	0	504	624	
10	0	0	0	0	504	622	
11	0	0	0	0	505	624	
12	0	0	0	0	505	625	
13	0	0	0	0	506	624	
14	0	0	0	0	506	626	
15	0	0	0	0	505	625	
0	0	0	0	0	504	625	
1	0	0	0	0	504	625	
2	0	0	0	0	504	623	
3	0	0	0	0	503	625	
4	0	0	0	0	503	625	
5	0	0	0	0	503	625	
6	0	0	0	0	504	627	
7	0	0	0	0	505	626	
8	0	0	0	0	505	626	
9	0	0	0	0	505	625	
10	0	0	0	0	505	624	
11	0	0	0	0	506	626	
12	0	0	0	0	507	626	
13	0	0	0	0	508	627	
14	0	0	0	0	508	628	
15	0	0	0	0	509	627	
0	0	0	0	0	510	627	
1	0	0	0	0	511	628	
2	0	0	0	0	511	626	
3	0	0	0	0	510	628	
4	0	0	0	0	510	627	
5	0	0	0	0	511	627	
6	0	0	0	0	511	629	
7	0	0	0	0	511	628	
8	0	0	0	0	511	627	
9	0	0	0	0	509	627	
10	0	0	0	0	507	625	
11	0	0	0	0	506	627	
12	0	0	0	0	506	627	
13	0	0	0	0	506	627	
14	0	0	0	0	506	629	
15	0	0	0	0	506	627	
0	0	0	0	0	507	627	
1	0	0	0	0	507	627	
2	0	0	0	0	507	625	
3	0	0	0	0	508	627	
4	0	0	0	0	508	627	
5	0	0	0	0	508	627	
6	0	0	0	0	508	628	
7	0	0	0	0	507	627	
8	0	0	0	0	507	627	
9	0	0	0	0	507	627	
10	0	0	0	0	507	626	
11	0	0	0	0	507	627	
12	0	0	0	0	507	628	
13	0	0	0	0	508	628	
14	0	0	0	0	508	629	
15	0	0	0	0	508	627	
0	0	0	0	0	509	628	
1	0	0	0	0	510	627	
2	0	0	0	0	510	625	
3	0	0	0	0	511	628	
4	0	0	0	0	511	627	
5	0	0	0	0	512	628	
6	0	0	0	0	513	630	
7	0	0	0	0	513	628	
8	0	0	0	0	513	628	
9	0	0	0	0	513	628	
10	0	0	0	0	510	626	
11	0	0	0	0	508	628	
12	0	0	0	0	505	628	
13	0	0	0	0	504	628	
14	0	0	0	0	505	629	
15	0	0	0	0	506	628	
0	0	0	0	0	507	627	
1	0	0	0	0	507	627	
2	0	0	0	0	508	625	
3	0	0	0	0	509	627	
4	0	0	0	0	510	626	
5	0	0	0	0	510	625	
6	0	0	0	0	510	627	
7	0	0	0	0	511	624	
8	0	0	0	0	511	624	
9	0	0	0	0	511	624	
10	0	0	0	0	510	621	
11	0	0	0	0	509	623	
12	0	0	0	0	509	623	
13	0	0	0	0	509	623	
14	0	0	0	0	508	624	
15	0	0	0	0	507	622	
0	0	0	0	0	507	621	
1	0	0	0	0	507	621	
2	0	0	0	0	506	620	
3	0	0	0	0	507	621	
4	0	0	0	0	506	621	
5	0	0	0	0	506	620	
6	0	0	0	0	506	622	
7	0	0	0	0	505	620	
8	0	0	0	0	506	620	
9	0	0	0	0	507	619	
10	0	0	0	0	508	617	
11	0	0	0	0	508	619	
12	0	0	0	0	508	618	
13	0	0	0	0	509	618	
14	0	0	0	0	510	620	
15	0	0	0	0	510	617	
0	0	0	0	0	511	617	
1	0	0	0	0	512	617	
2	0	0	0	0	512	615	
3	0	0	0	0	511	617	
4	0	0	0	0	510	616	
5	0	0	0	0	509	616	
6	0	0	0	0	508	619	
7	0	0	0	0	507	616	
8	0	0	0	0	507	617	
9	0	0	0	0	505	616	
10	0	0	0	0	506	615	
11	0	0	0	0	507	617	
12	0	0	0	0	507	617	
13	0	0	0	0	507	617	
14	0	0	0	0	507	619	
15	0	0	0	0	508	618	
0	0	0	0	0	508	617	
1	0	0	0	0	508	617	
2	0	0	0	0	508	615	
3	0	0	0	0	507	617	
4	0	0	0	0	506	618	
5	0	0	0	0	505	618	
6	0	0	0	0	504	620	
7	0	0	0	0	504	619	
8	0	0	0	0	504	619	
9	0	0	0	0	504	619	
10	0	0	0	0	504	618	
11	0	0	0	0	505	620	
12	0	0	0	0	506	621	
13	0	0	0	0	507	621	
14	0	0	0	0	508	623	
15	0	0	0	0	508	622	
0	0	0	0	0	508	622	
1	0	0	0	0	508	623	
2	0	0	0	0	509	621	
3	0	0	0	0	510	622	
4	0	0	0	0	511	623	
5	0	0	0	0	511	623	
6	0	0	0	0	511	625	
7	0	0	0	0	511	624	
8	0	0	0	0	510	624	
9	0	0	0	0	510	625	
10	0	0	0	0	511	622	
11	0	0	0	0	510	624	
12	0	0	0	0	510	624	
13	0	0	0	0	510	624	
14	0	0	0	0	510	626	
15	0	0	0	0	509	624	
0	0	0	0	0	509	624	
1	0	0	0	0	508	624	
2	0	0	0	0	508	623	
3	0	0	0	0	507	625	
4	0	0	0	0	507	625	
5	0	0	0	0	507	625	
6	0	0	0	0	508	627	
7	0	0	0	0	508	626	
8	0	0	0	0	508	626	
9	0	0	0	0	508	626	
10	0	0	0	0	509	624	
11	0	0	0	0	509	627	
12	0	0	0	0	509	626	
13	0	0	0	0	510	626	
14	0	0	0	0	511	629	
15	0	0	0	0	511	627	
0	0	0	0	0	511	627	
1	0	0	0	0	510	627	
2	0	0	0	0	510	625	
3	0	0	0	0	510	628	
4	0	0	0	0	510	627	
5	0	0	0	0	510	627	
6	0	0	0	0	510	630	
7	0	0	0	0	511	628	
8	0	0	0	0	511	627	
9	0	0	0	0	511	627	
10	0	0	0	0	511	626	
11	0	0	0	0	510	628	
12	0	0	0	0	510	627	
13	0	0	0	0	510	628	
14	0	0	0	0	511	630	
15	0	0	0	0	510	627	
0	0	0	0	0	510	628	
1	0	0	0	0	510	627	
2	0	0	0	0	510	626	
3	0	0	0	0	511	627	
4	0	0	0	0	511	627	
5	0	0	0	0	511	627	
6	0	0	0	0	510	629	
7	0	0	0	0	509	627	
8	0	0	0	0	508	627	
9	0	0	0	0	508	627	
10	0	0	0	0	508	625	
11	0	0	0	0	507	627	
12	0	0	0	0	507	626	
13	0	0	0	0	506	626	
14	0	0	0	0	505	627	
15	0	0	0	0	505	625	
0	0	0	0	0	504	625	
1	0	0	0	0	504	625	
2	0	0	0	0	504	623	
3	0	0	0	0	504	625	
4	0	0	0	0	504	624	
5	0	0	0	0	504	624	
6	0	0	0	0	504	625	
7	0	0	0	0	504	624	
8	0	0	0	0	504	624	
9	0	0	0	0	504	624	
10	0	0	0	0	505	622	
11	0	0	0	0	506	623	
12	0	0	0	0	507	623	
13	0	0	0	0	508	623	
14	0	0	0	0	508	625	
15	0	0	0	0	509	623	
0	0	0	0	0	508	623	
1	0	0	0	0	508	623	
2	0	0	0	0	508	620	
3	0	0	0	0	509	623	
4	0	0	0	0	509	623	
5	0	0	0	0	510	622	
6	0	0	0	0	510	624	
7	0	0	0	0	510	622	
8	0	0	0	0	510	622	
9	0	0	0	0	509	622	
10	0	0	0	0	509	621	
11	0	0	0	0	510	622	
12	0	0	0	0	510	622	
13	0	0	0	0	509	623	
14	0	0	0	0	509	624	
15	0	0	0	0	510	622	
0	0	0	0	0	509	623	
1	0	0	0	0	508	623	
2	0	0	0	0	508	622	
3	0	0	0	0	508	624	
4	0	0	0	0	508	623	
5	0	0	0	0	509	623	
6	0	0	0	0	510	625	
7	0	0	0	0	512	625	
8	0	0	0	0	513	624	
9	0	0	0	0	514	624	
10	0	0	0	0	514	622	
11	0	0	0	0	515	624	
12	0	0	0	0	515	624	
13	0	0	0	0	516	624	
14	0	0	0	0	516	627	
15	0	0	0	0	517	625	
0	0	0	0	0	517	624	
1	0	0	0	0	518	625	
2	0	0	0	0	518	623	
3	0	0	0	0	519	625	
4	0	0	0	0	519	625	
5	0	0	0	0	519	624	
6	0	0	0	0	519	627	
7	0	0	0	0	519	624	
8	0	0	0	0	519	624	
9	0	0	0	0	519	624	
10	0	0	0	0	518	621	
11	0	0	0	0	518	623	
12	0	0	0	0	518	623	
13	0	0	0	0	518	623	
14	0	0	0	0	516	624	
15	0	0	0	0	516	623	
0	0	0	0	0	517	623	
1	0	0	0	0	517	622	
2	0	0	0	0	517	621	
3	0	0	0	0	515	622	
4	0	0	0	0	515	622	
5	0	0	0	0	515	623	
6	0	0	0	0	515	625	
7	0	0	0	0	515	624	
8	0	0	0	0	515	624	
9	0	0	0	0	515	624	
10	0	0	0	0	516	623	
11	0	0	0	0	516	623	
12	0	0	0	0	516	624	
13	0	0	0	0	515	624	
14	0	0	0	0	514	625	
15	0	0	0	0	513	624	
0	0	0	0	0	513	624	
1	0	0	0	0	513	624	
2	0	0	0	0	514	623	
3	0	0	0	0	514	625	
4	0	0	0	0	515	625	
5	0	0	0	0	516	625	
6	0	0	0	0	518	626	
7	0	0	0	0	518	624	
8	0	0	0	0	518	624	
9	0	0	0	0	519	624	
10	0	0	0	0	519	623	
11	0	0	0	0	519	624	
12	0	0	0	0	519	623	
13	0	0	0	0	519	623	
14	0	0	0	0	518	624	
15	0	0	0	0	517	623	
0	0	0	0	0	516	622	
1	0	0	0	0	515	623	
2	0	0	0	0	512	620	
3	0	0	0	0	509	621	
4	0	0	0	0	505	621	
5	0	0	0	0	501	621	
6	0	0	0	0	496	622	
7	0	0	0	0	491	620	
8	0	0	0	0	486	620	
9	0	0	0	0	479	620	
10	0	0	0	0	472	618	
11	0	0	0	0	464	620	
12	0	0	0	0	457	619	
13	0	0	0	0	451	620	
14	0	0	0	0	446	621	
15	0	0	0	0	441	619	
0	0	0	0	0	437	619	
1	0	0	0	0	434	619	
2	0	0	0	0	434	616	
3	0	0	0	0	436	619	
4	0	0	0	0	441	619	
5	0	0	0	0	449	619	
6	0	0	0	0	463	620	
7	0	0	0	0	480	619	
8	0	0	0	0	500	619	
9	0	0	0	0	523	619	
10	0	0	0	0	546	617	
11	0	0	0	0	569	619	
12	0	0	0	0	592	619	
13	0	0	0	0	615	619	
14	0	0	0	0	638	620	
15	0	0	0	0	662	619	
0	0	0	0	0	684	619	
1	0	0	0	0	707	620	
2	0	0	0	0	731	618	
3	0	0	0	0	756	620	
4	0	0	0	0	780	620	
5	0	0	0	0	800	620	
6	0	0	0	0	818	622	
7	0	0	0	0	833	620	
8	0	0	0	0	846	620	
9	0	0	0	0	857	620	
10	0	0	0	0	866	618	
11	0	0	0	0	875	620	
12	0	0	0	0	881	620	
13	0	0	0	0	880	620	
14	0	0	0	0	873	622	
15	0	0	0	0	861	620	
0	0	0	0	0	846	620	
1	0	0	0	0	829	620	
2	0	0	0	0	809	619	
3	0	0	0	0	785	621	
4	0	0	0	0	760	621	
5	0	0	0	0	736	621	
6	0	0	0	0	711	623	
7	0	0	0	0	686	621	
8	0	0	0	0	661	621	
9	0	0	0	0	636	621	
10	0	0	0	0	608	619	
11	0	0	0	0	583	620	
12	0	0	0	0	560	621	
13	0	0	0	0	541	621	
14	0	0	0	0	524	623	
15	0	0	0	0	510	622	
0	0	0	0	0	497	621	
1	0	0	0	0	488	622	
2	0	0	0	0	480	620	
3	0	0	0	0	474	622	
4	0	0	0	0	469	623	
5	0	0	0	0	464	623	
6	0	0	0	0	461	625	
7	0	0	0	0	458	623	
8	0	0	0	0	455	624	
9	0	0	0	0	454	624	
10	0	0	0	0	452	622	
11	0	0	0	0	449	625	
12	0	0	0	0	448	625	
13	0	0	0	0	447	625	
14	0	0	0	0	446	627	
15	0	0	0	0	445	625	
0	0	0	0	0	445	625	
1	0	0	0	0	443	624	
2	0	0	0	0	442	623	
3	0	0	0	0	442	625	
4	0	0	0	0	440	625	
5	0	0	0	0	439	625	
6	0	0	0	0	438	627	
7	0	0	0	0	437	625	
8	0	0	0	0	436	625	
9	0	0	0	0	436	625	
10	0	0	0	0	435	624	
11	0	0	0	0	433	625	
12	0	0	0	0	433	625	
13	0	0	0	0	433	625	
14	0	0	0	0	432	627	
15	0	0	0	0	433	625	
0	0	0	0	0	434	624	
1	0	0	0	0	434	625	
2	0	0	0	0	435	622	
3	0	0	0	0	436	624	
4	0	0	0	0	436	624	
5	0	0	0	0	437	624	
6	0	0	0	0	438	626	
7	0	0	0	0	439	624	
8	0	0	0	0	439	624	
9	0	0	0	0	440	624	
10	0	0	0	0	440	623	
11	0	0	0	0	441	623	
12	0	0	0	0	441	623	
13	0	0	0	0	441	623	
14	0	0	0	0	443	624	
15	0	0	0	0	443	623	
0	0	0	0	0	443	622	
1	0	0	0	0	443	622	
2	0	0	0	0	444	620	
3	0	0	0	0	446	621	
4	0	0	0	0	447	621	
5	0	0	0	0	447	621	
6	0	0	0	0	447	623	
7	0	0	0	0	447	622	
8	0	0	0	0	448	620	
9	0	0	0	0	448	620	
10	0	0	0	0	448	619	
11	0	0	0	0	448	620	
12	0	0	0	0	448	620	
13	0	0	0	0	448	619	
14	0	0	0	0	449	620	
15	0	0	0	0	449	619	
0	0	0	0	0	449	618	
1	0	0	0	0	451	618	
2	0	0	0	0	452	616	
3	0	0	0	0	454	618	
4	0	0	0	0	455	617	
5	0	0	0	0	457	618	
6	0	0	0	0	459	620	
7	0	0	0	0	461	618	
8	0	0	0	0	463	618	
9	0	0	0	0	464	618	
10	0	0	0	0	464	616	
11	0	0	0	0	465	618	
12	0	0	0	0	465	619	
13	0	0	0	0	465	619	
14	0	0	0	0	464	621	
15	0	0	0	0	464	619	
0	0	0	0	0	464	619	
1	0	0	0	0	464	620	
2	0	0	0	0	464	619	
3	0	0	0	0	464	620	
4	0	0	0	0	464	622	
5	0	0	0	0	464	622	
6	0	0	0	0	463	624	
7	0	0	0	0	463	623	
8	0	0	0	0	463	623	
9	0	0	0	0	464	623	
10	0	0	0	0	464	621	
11	0	0	0	0	464	624	
12	0	0	0	0	465	624	
13	0	0	0	0	465	624	
14	0	0	0	0	467	626	
15	0	0	0	0	468	624	
0	0	0	0	0	469	624	
1	0	0	0	0	469	625	
2	0	0	0	0	470	623	
3	0	0	0	0	470	625	
4	0	0	0	0	470	625	
5	0	0	0	0	471	625	
6	0	0	0	0	472	627	
7	0	0	0	0	472	626	
8	0	0	0	0	472	627	
9	0	0	0	0	473	627	
10	0	0	0	0	474	626	
11	0	0	0	0	475	627	
12	0	0	0	0	476	627	
13	0	0	0	0	477	628	
14	0	0	0	0	478	630	
15	0	0	0	0	478	628	
0	0	0	0	0	477	628	
1	0	0	0	0	476	628	
2	0	0	0	0	476	627	
3	0	0	0	0	476	629	
4	0	0	0	0	477	628	
5	0	0	0	0	478	629	
6	0	0	0	0	478	630	
7	0	0	0	0	480	629	
8	0	0	0	0	479	629	
9	0	0	0	0	479	628	
10	0	0	0	0	480	626	
11	0	0	0	0	480	628	
12	0	0	0	0	480	628	
13	0	0	0	0	481	627	
14	0	0	0	0	482	629	
15	0	0	0	0	482	625	
0	0	0	0	0	482	625	
1	0	0	0	0	483	625	
2	0	0	0	0	484	623	
3	0	0	0	0	485	624	
4	0	0	0	0	486	623	
5	0	0	0	0	486	622	
6	0	0	0	0	487	624	
7	0	0	0	0	488	623	
8	0	0	0	0	489	622	
9	0	0	0	0	489	621	
10	0	0	0	0	490	620	
11	0	0	0	0	491	621	
12	0	0	0	0	491	621	
13	0	0	0	0	492	621	
14	0	0	0	0	492	622	
15	0	0	0	0	492	620	
0	0	0	0	0	492	620	
1	0	0	0	0	491	620	
2	0	0	0	0	492	619	
3	0	0	0	0	493	621	
4	0	0	0	0	494	621	
5	0	0	0	0	496	621	
6	0	0	0	0	496	622	
7	0	0	0	0	496	621	
8	0	0	0	0	497	622	
9	0	0	0	0	497	622	
10	0	0	0	0	497	620	
11	0	0	0	0	497	622	
12	0	0	0	0	497	623	
13	0	0	0	0	498	623	
14	0	0	0	0	499	625	
15	0	0	0	0	500	624	
0	0	0	0	0	502	625	
1	0	0	0	0	503	624	
2	0	0	0	0	504	624	
3	0	0	0	0	505	625	
4	0	0	0	0	505	626	
5	0	0	0	0	506	626	
6	0	0	0	0	507	628	
7	0	0	0	0	508	627	
8	0	0	0	0	508	627	
9	0	0	0	0	509	627	
10	0	0	0	0	510	626	
11	0	0	0	0	511	628	
12	0	0	0	0	511	628	
13	0	0	0	0	511	628	
14	0	0	0	0	512	631	
15	0	0	0	0	512	629	
0	0	0	0	0	511	629	
1	0	0	0	0	512	629	
2	0	0	0	0	512	628	
3	0	0	0	0	511	629	
4	0	0	0	0	510	630	
5	0	0	0	0	510	630	
6	0	0	0	0	511	632	
7	0	0	0	0	511	631	
8	0	0	0	0	512	630	
9	0	0	0	0	512	631	
10	0	0	0	0	512	630	
11	0	0	0	0	513	631	
12	0	0	0	0	513	632	
13	0	0	0	0	514	632	
14	0	0	0	0	515	634	
15	0	0	0	0	514	632	
0	0	0	0	0	512	632	
1	0	0	0	0	511	632	
2	0	0	0	0	512	630	
3	0	0	0	0	512	632	
4	0	0	0	0	512	632	
5	0	0	0	0	512	633	
6	0	0	0	0	511	636	
7	0	0	0	0	512	636	
8	0	0	0	0	512	636	
9	0	0	0	0	512	636	
10	0	0	0	0	512	634	
11	0	0	0	0	512	636	
12	0	0	0	0	512	636	
13	0	0	0	0	512	636	
14	0	0	0	0	512	637	
15	0	0	0	0	511	635	
0	0	0	0	0	509	635	
1	0	0	0	0	508	634	
2	0	0	0	0	508	632	
3	0	0	0	0	508	633	
4	0	0	0	0	509	633	
5	0	0	0	0	510	632	
6	0	0	0	0	511	634	
7	0	0	0	0	510	633	
8	0	0	0	0	508	633	
9	0	0	0	0	507	634	
10	0	0	0	0	506	632	
11	0	0	0	0	506	634	
12	0	0	0	0	505	633	
13	0	0	0	0	505	634	
14	0	0	0	0	504	636	
15	0	0	0	0	502	633	
0	0	0	0	0	501	633	
1	0	0	0	0	501	633	
2	0	0	0	0	501	631	
3	0	0	0	0	502	632	
4	0	0	0	0	502	632	
5	0	0	0	0	503	632	
6	0	0	0	0	503	633	
7	0	0	0	0	502	631	
8	0	0	0	0	500	631	
9	0	0	0	0	499	631	
10	0	0	0	0	498	629	
11	0	0	0	0	496	630	
12	0	0	0	0	496	629	
13	0	0	0	0	495	630	
14	0	0	0	0	492	631	
15	0	0	0	0	491	629	
0	0	0	0	0	491	629	
1	0	0	0	0	491	629	
2	0	0	0	0	490	627	
3	0	0	0	0	489	627	
4	0	0	0	0	489	628	
5	0	0	0	0	489	627	
6	0	0	0	0	488	628	
7	0	0	0	0	489	625	
8	0	0	0	0	489	625	
9	0	0	0	0	489	625	
10	0	0	0	0	488	622	
11	0	0	0	0	488	624	
12	0	0	0	0	488	622	
13	0	0	0	0	489	623	
14	0	0	0	0	489	624	
15	0	0	0	0	489	621	
0	0	0	0	0	489	621	
1	0	0	0	0	489	620	
2	0	0	0	0	490	618	
3	0	0	0	0	492	619	
4	0	0	0	0	493	619	
5	0	0	0	0	494	618	
6	0	0	0	0	495	620	
7	0	0	0	0	494	617	
8	0	0	0	0	493	617	
9	0	0	0	0	491	617	
10	0	0	0	0	488	616	
11	0	0	0	0	486	617	
12	0	0	0	0	485	617	
13	0	0	0	0	484	617	
14	0	0	0	0	483	619	
15	0	0	0	0	482	616	
0	0	0	0	0	481	616	
1	0	0	0	0	480	615	
2	0	0	0	0	481	615	
3	0	0	0	0	482	616	
4	0	0	0	0	482	616	
5	0	0	0	0	481	615	
6	0	0	0	0	481	617	
7	0	0	0	0	482	615	
8	0	0	0	0	482	615	
9	0	0	0	0	482	615	
10	0	0	0	0	483	613	
11	0	0	0	0	483	614	
12	0	0	0	0	483	615	
13	0	0	0	0	484	615	
14	0	0	0	0	484	615	
15	0	0	0	0	484	613	
0	0	0	0	0	485	613	
1	0	0	0	0	485	613	
2	0	0	0	0	485	611	
3	0	0	0	0	486	612	
4	0	0	0	0	486	612	
5	0	0	0	0	487	611	
6	0	0	0	0	488	614	
7	0	0	0	0	487	611	
8	0	0	0	0	489	612	
9	0	0	0	0	489	611	
10	0	0	0	0	488	609	
11	0	0	0	0	487	611	
12	0	0	0	0	487	611	
13	0	0	0	0	486	611	
14	0	0	0	0	485	613	
15	0	0	0	0	483	611	
0	0	0	0	0	482	611	
1	0	0	0	0	481	611	
2	0	0	0	0	480	610	
3	0	0	0	0	481	611	
4	0	0	0	0	481	611	
5	0	0	0	0	483	611	
6	0	0	0	0	483	613	
7	0	0	0	0	484	611	
8	0	0	0	0	485	611	
9	0	0	0	0	487	611	
10	0	0	0	0	488	611	
11	0	0	0	0	489	612	
12	0	0	0	0	490	612	
13	0	0	0	0	491	613	
14	0	0	0	0	492	615	
15	0	0	0	0	492	614	
0	0	0	0	0	490	614	
1	0	0	0	0	489	614	
2	0	0	0	0	489	613	
3	0	0	0	0	490	615	
4	0	0	0	0	490	615	
5	0	0	0	0	490	616	
6	0	0	0	0	489	618	
7	0	0	0	0	489	617	
8	0	0	0	0	488	618	
9	0	0	0	0	488	619	
10	0	0	0	0	487	617	
11	0	0	0	0	488	620	
12	0	0	0	0	488	620	
13	0	0	0	0	489	620	
14	0	0	0	0	489	623	
15	0	0	0	0	490	622	
0	0	0	0	0	491	622	
1	0	0	0	0	491	623	
2	0	0	0	0	491	622	
3	0	0	0	0	492	624	
4	0	0	0	0	492	625	
5	0	0	0	0	491	625	
6	0	0	0	0	491	627	
7	0	0	0	0	491	627	
8	0	0	0	0	492	627	
9	0	0	0	0	492	628	
10	0	0	0	0	493	626	
11	0	0	0	0	492	628	
12	0	0	0	0	491	629	
13	0	0	0	0	490	630	
14	0	0	0	0	491	631	
15	0	0	0	0	490	630	
0	0	0	0	0	490	631	
1	0	0	0	0	489	630	
2	0	0	0	0	489	629	
3	0	0	0	0	489	631	
4	0	0	0	0	489	632	
5	0	0	0	0	490	632	
6	0	0	0	0	492	634	
7	0	0	0	0	493	633	
8	0	0	0	0	494	632	
9	0	0	0	0	495	633	
10	0	0	0	0	495	632	
11	0	0	0	0	495	634	
12	0	0	0	0	494	635	
13	0	0	0	0	492	634	
14	0	0	0	0	490	636	
15	0	0	0	0	489	635	
0	0	0	0	0	489	635	
1	0	0	0	0	490	635	
2	0	0	0	0	490	632	
3	0	0	0	0	491	634	
4	0	0	0	0	492	634	
5	0	0	0	0	493	634	
6	0	0	0	0	494	635	
7	0	0	0	0	495	634	
8	0	0	0	0	497	634	
9	0	0	0	0	498	633	
10	0	0	0	0	498	632	
11	0	0	0	0	497	633	
12	0	0	0	0	497	633	
13	0	0	0	0	498	633	
14	0	0	0	0	499	635	
15	0	0	0	0	500	633	
0	0	0	0	0	500	632	
1	0	0	0	0	500	632	
2	0	0	0	0	501	630	
3	0	0	0	0	502	632	
4	0	0	0	0	500	632	
5	0	0	0	0	499	632	
6	0	0	0	0	498	633	
7	0	0	0	0	498	632	
8	0	0	0	0	498	631	
9	0	0	0	0	500	631	
10	0	0	0	0	500	629	
11	0	0	0	0	500	630	
12	0	0	0	0	500	629	
13	0	0	0	0	501	629	
14	0	0	0	0	500	630	
15	0	0	0	0	499	628	
0	0	0	0	0	499	627	
1	0	0	0	0	499	627	
2	0	0	0	0	498	625	
3	0	0	0	0	498	627	
4	0	0	0	0	499	626	
5	0	0	0	0	498	626	
6	0	0	0	0	498	627	
7	0	0	0	0	498	625	
8	0	0	0	0	498	625	
9	0	0	0	0	497	625	
10	0	0	0	0	496	623	
11	0	0	0	0	497	624	
12	0	0	0	0	497	624	
13	0	0	0	0	497	623	
14	0	0	0	0	498	625	
15	0	0	0	0	499	622	
0	0	0	0	0	499	623	
1	0	0	0	0	501	622	
2	0	0	0	0	504	620	
3	0	0	0	0	507	622	
4	0	0	0	0	509	622	
5	0	0	0	0	512	622	
6	0	0	0	0	515	623	
7	0	0	0	0	517	621	
8	0	0	0	0	519	620	
9	0	0	0	0	520	619	
10	0	0	0	0	521	617	
11	0	0	0	0	521	619	
12	0	0	0	0	522	619	
13	0	0	0	0	523	619	
14	0	0	0	0	524	620	
15	0	0	0	0	525	620	
0	0	0	0	0	524	619	
1	0	0	0	0	525	620	
2	0	0	0	0	527	618	
3	0	0	0	0	528	620	
4	0	0	0	0	529	621	
5	0	0	0	0	529	621	
6	0	0	0	0	528	623	
7	0	0	0	0	528	623	
8	0	0	0	0	526	624	
9	0	0	0	0	525	624	
10	0	0	0	0	524	623	
11	0	0	0	0	524	625	
12	0	0	0	0	524	625	
13	0	0	0	0	524	626	
14	0	0	0	0	523	629	
15	0	0	0	0	522	628	
0	0	0	0	0	520	628	
1	0	0	0	0	520	629	
2	0	0	0	0	521	627	
3	0	0	0	0	520	630	
4	0	0	0	0	520	630	
5	0	0	0	0	519	631	
6	0	0	0	0	519	633	
7	0	0	0	0	519	631	
8	0	0	0	0	519	632	
9	0	0	0	0	519	631	
10	0	0	0	0	519	631	
11	0	0	0	0	520	632	
12	0	0	0	0	520	632	
13	0	0	0	0	520	632	
14	0	0	0	0	520	635	
15	0	0	0	0	520	633	
0	0	0	0	0	521	633	
1	0	0	0	0	521	633	
2	0	0	0	0	523	632	
3	0	0	0	0	524	633	
4	0	0	0	0	525	633	
5	0	0	0	0	526	633	
6	0	0	0	0	527	634	
7	0	0	0	0	528	632	
8	0	0	0	0	527	632	
9	0	0	0	0	526	632	
10	0	0	0	0	525	630	
11	0	0	0	0	523	631	
12	0	0	0	0	522	630	
13	0	0	0	0	521	630	
14	0	0	0	0	520	631	
15	0	0	0	0	521	629	
0	0	0	0	0	521	628	
1	0	0	0	0	521	627	
2	0	0	0	0	521	625	
3	0	0	0	0	521	627	
4	0	0	0	0	522	625	
5	0	0	0	0	522	625	
6	0	0	0	0	523	626	
7	0	0	0	0	522	624	
8	0	0	0	0	520	623	
9	0	0	0	0	519	622	
10	0	0	0	0	518	620	
11	0	0	0	0	517	622	
12	0	0	0	0	516	621	
13	0	0	0	0	515	620	
14	0	0	0	0	515	622	
15	0	0	0	0	516	619	
0	0	0	0	0	516	619	
1	0	0	0	0	515	618	
2	0	0	0	0	515	616	
3	0	0	0	0	516	617	
4	0	0	0	0	518	616	
5	0	0	0	0	518	616	
6	0	0	0	0	519	617	
7	0	0	0	0	518	616	
8	0	0	0	0	518	615	
9	0	0	0	0	517	615	
10	0	0	0	0	517	613	
11	0	0	0	0	516	615	
12	0	0	0	0	515	615	
13	0	0	0	0	513	615	
14	0	0	0	0	511	617	
15	0	0	0	0	508	615	
0	0	0	0	0	507	615	
1	0	0	0	0	505	615	
2	0	0	0	0	505	614	
3	0	0	0	0	505	615	
4	0	0	0	0	505	615	
5	0	0	0	0	505	615	
6	0	0	0	0	507	616	
7	0	0	0	0	509	615	
8	0	0	0	0	511	615	
9	0	0	0	0	511	615	
10	0	0	0	0	513	614	
11	0	0	0	0	514	615	
12	0	0	0	0	515	616	
13	0	0	0	0	517	617	
14	0	0	0	0	520	619	
15	0	0	0	0	520	617	
0	0	0	0	0	519	619	
1	0	0	0	0	519	619	
2	0	0	0	0	521	618	
3	0	0	0	0	521	620	
4	0	0	0	0	521	620	
5	0	0	0	0	520	620	
6	0	0	0	0	520	623	
7	0	0	0	0	520	622	
8	0	0	0	0	520	623	
9	0	0	0	0	521	624	
10	0	0	0	0	523	622	
11	0	0	0	0	525	624	
12	0	0	0	0	526	625	
13	0	0	0	0	525	626	
14	0	0	0	0	523	627	
15	0	0	0	0	521	625	
0	0	0	0	0	520	626	
1	0	0	0	0	519	626	
2	0	0	0	0	519	624	
3	0	0	0	0	520	626	
4	0	0	0	0	520	627	
5	0	0	0	0	519	627	
6	0	0	0	0	518	629	
7	0	0	0	0	516	628	
8	0	0	0	0	515	627	
9	0	0	0	0	515	627	
10	0	0	0	0	515	626	
11	0	0	0	0	518	627	
12	0	0	0	0	519	627	
13	0	0	0	0	520	627	
14	0	0	0	0	520	628	
15	0	0	0	0	522	626	
0	0	0	0	0	522	625	
1	0	0	0	0	523	625	
2	0	0	0	0	523	622	
3	0	0	0	0	522	624	
4	0	0	0	0	521	624	
5	0	0	0	0	519	623	
6	0	0	0	0	519	624	
7	0	0	0	0	518	622	
8	0	0	0	0	517	622	
9	0	0	0	0	516	622	
10	0	0	0	0	517	620	
11	0	0	0	0	517	620	
12	0	0	0	0	518	620	
13	0	0	0	0	519	620	
14	0	0	0	0	519	622	
15	0	0	0	0	519	619	
0	0	0	0	0	519	618	
1	0	0	0	0	519	617	
2	0	0	0	0	517	615	
3	0	0	0	0	516	616	
4	0	0	0	0	515	615	
5	0	0	0	0	514	614	
6	0	0	0	0	514	615	
7	0	0	0	0	514	614	
8	0	0	0	0	514	614	
9	0	0	0	0	516	613	
10	0	0	0	0	519	610	
11	0	0	0	0	519	612	
12	0	0	0	0	521	611	
13	0	0	0	0	523	611	
14	0	0	0	0	524	612	
15	0	0	0	0	524	611	
0	0	0	0	0	523	610	
1	0	0	0	0	523	610	
2	0	0	0	0	523	609	
3	0	0	0	0	522	611	
4	0	0	0	0	520	611	
5	0	0	0	0	519	610	
6	0	0	0	0	518	612	
7	0	0	0	0	518	611	
8	0	0	0	0	517	611	
9	0	0	0	0	515	612	
10	0	0	0	0	512	610	
11	0	0	0	0	511	612	
12	0	0	0	0	512	613	
13	0	0	0	0	512	613	
14	0	0	0	0	511	616	
15	0	0	0	0	510	615	
0	0	0	0	0	510	615	
1	0	0	0	0	509	616	
2	0	0	0	0	509	615	
3	0	0	0	0	506	617	
4	0	0	0	0	503	618	
5	0	0	0	0	497	618	
6	0	0	0	0	491	621	
7	0	0	0	0	484	620	
8	0	0	0	0	479	621	
9	0	0	0	0	471	621	
10	0	0	0	0	462	621	
11	0	0	0	0	454	623	
12	0	0	0	0	447	624	
13	0	0	0	0	440	625	
14	0	0	0	0	433	627	
15	0	0	0	0	429	625	
0	0	0	0	0	427	627	
1	0	0	0	0	427	627	
2	0	0	0	0	430	626	
3	0	0	0	0	435	628	
4	0	0	0	0	444	629	
5	0	0	0	0	456	630	
6	0	0	0	0	473	632	
7	0	0	0	0	491	631	
8	0	0	0	0	512	632	
9	0	0	0	0	536	633	
10	0	0	0	0	559	632	
11	0	0	0	0	583	634	
12	0	0	0	0	608	635	
13	0	0	0	0	633	635	
14	0	0	0	0	658	637	
15	0	0	0	0	683	636	
0	0	0	0	0	708	636	
1	0	0	0	0	732	636	
2	0	0	0	0	755	635	
3	0	0	0	0	778	637	
4	0	0	0	0	801	637	
5	0	0	0	0	821	637	
6	0	0	0	0	840	639	
7	0	0	0	0	856	638	
8	0	0	0	0	867	638	
9	0	0	0	0	877	638	
10	0	0	0	0	886	637	
11	0	0	0	0	891	638	
12	0	0	0	0	890	639	
13	0	0	0	0	882	639	
14	0	0	0	0	870	641	
15	0	0	0	0	852	638	
0	0	0	0	0	832	638	
1	0	0	0	0	810	638	
2	0	0	0	0	784	636	
3	0	0	0	0	760	638	
4	0	0	0	0	737	638	
5	0	0	0	0	713	638	
6	0	0	0	0	691	639	
7	0	0	0	0	671	637	
8	0	0	0	0	648	637	
9	0	0	0	0	623	637	
10	0	0	0	0	596	635	
11	0	0	0	0	573	636	
12	0	0	0	0	554	636	
13	0	0	0	0	538	635	
14	0	0	0	0	524	637	
15	0	0	0	0	513	635	
0	0	0	0	0	503	635	
1	0	0	0	0	495	634	
2	0	0	0	0	489	632	
3	0	0	0	0	484	633	
4	0	0	0	0	479	633	
5	0	0	0	0	475	632	
6	0	0	0	0	473	634	
7	0	0	0	0	470	631	
8	0	0	0	0	467	631	
9	0	0	0	0	464	630	
10	0	0	0	0	461	627	
11	0	0	0	0	457	628	
12	0	0	0	0	455	628	
13	0	0	0	0	453	627	
14	0	0	0	0	450	628	
15	0	0	0	0	448	626	
0	0	0	0	0	447	625	
1	0	0	0	0	447	625	
2	0	0	0	0	447	622	
3	0	0	0	0	449	624	
4	0	0	0	0	450	623	
5	0	0	0	0	449	623	
6	0	0	0	0	448	624	
7	0	0	0	0	448	622	
8	0	0	0	0	449	622	
9	0	0	0	0	449	622	
10	0	0	0	0	448	619	
11	0	0	0	0	448	620	
12	0	0	0	0	446	620	
13	0	0	0	0	444	620	
14	0	0	0	0	444	622	
15	0	0	0	0	445	621	
0	0	0	0	0	448	622	
1	0	0	0	0	451	622	
2	0	0	0	0	452	621	
3	0	0	0	0	451	623	
4	0	0	0	0	452	622	
5	0	0	0	0	452	622	
6	0	0	0	0	451	625	
7	0	0	0	0	449	623	
8	0	0	0	0	448	623	
9	0	0	0	0	447	623	
10	0	0	0	0	446	622	
11	0	0	0	0	445	623	
12	0	0	0	0	445	623	
13	0	0	0	0	446	623	
14	0	0	0	0	447	625	
15	0	0	0	0	447	624	
0	0	0	0	0	447	624	
1	0	0	0	0	448	624	
2	0	0	0	0	449	622	
3	0	0	0	0	451	624	
4	0	0	0	0	453	625	
5	0	0	0	0	454	625	
6	0	0	0	0	455	627	
7	0	0	0	0	455	625	
8	0	0	0	0	457	626	
9	0	0	0	0	458	625	
10	0	0	0	0	459	624	
11	0	0	0	0	459	626	
12	0	0	0	0	458	626	
13	0	0	0	0	459	625	
14	0	0	0	0	460	627	
15	0	0	0	0	461	625	
0	0	0	0	0	461	624	
1	0	0	0	0	461	624	
2	0	0	0	0	462	623	
3	0	0	0	0	462	624	
4	0	0	0	0	463	624	
5	0	0	0	0	463	624	
6	0	0	0	0	462	625	
7	0	0	0	0	461	623	
8	0	0	0	0	461	624	
9	0	0	0	0	461	623	
10	0	0	0	0	462	620	
11	0	0	0	0	463	622	
12	0	0	0	0	464	622	
13	0	0	0	0	465	621	
14	0	0	0	0	466	623	
15	0	0	0	0	466	621	
0	0	0	0	0	467	620	
1	0	0	0	0	470	620	
2	0	0	0	0	471	617	
3	0	0	0	0	472	620	
4	0	0	0	0	472	619	
5	0	0	0	0	470	619	
6	0	0	0	0	470	621	
7	0	0	0	0	470	618	
8	0	0	0	0	470	618	
9	0	0	0	0	470	618	
10	0	0	0	0	472	616	
11	0	0	0	0	474	617	
12	0	0	0	0	477	617	
13	0	0	0	0	477	617	
14	0	0	0	0	476	619	
15	0	0	0	0	473	617	
0	0	0	0	0	473	617	
1	0	0	0	0	473	617	
2	0	0	0	0	472	615	
3	0	0	0	0	472	617	
4	0	0	0	0	473	617	
5	0	0	0	0	473	617	
6	0	0	0	0	475	619	
7	0	0	0	0	476	616	
8	0	0	0	0	478	616	
9	0	0	0	0	481	616	
10	0	0	0	0	481	615	
11	0	0	0	0	483	616	
12	0	0	0	0	484	616	
13	0	0	0	0	484	616	
14	0	0	0	0	485	618	
15	0	0	0	0	487	616	
0	0	0	0	0	488	616	
1	0	0	0	0	487	617	
2	0	0	0	0	486	615	
3	0	0	0	0	486	617	
4	0	0	0	0	487	618	
5	0	0	0	0	486	618	
6	0	0	0	0	485	620	
7	0	0	0	0	483	618	
8	0	0	0	0	484	618	
9	0	0	0	0	486	618	
10	0	0	0	0	487	617	
11	0	0	0	0	487	619	
12	0	0	0	0	488	619	
13	0	0	0	0	488	619	
14	0	0	0	0	490	622	
15	0	0	0	0	492	620	
0	0	0	0	0	492	620	
1	0	0	0	0	493	621	
2	0	0	0	0	494	619	
3	0	0	0	0	495	622	
4	0	0	0	0	495	622	
5	0	0	0	0	496	623	
6	0	0	0	0	496	625	
7	0	0	0	0	497	624	
8	0	0	0	0	498	624	
9	0	0	0	0	499	625	
10	0	0	0	0	499	624	
11	0	0	0	0	500	626	
12	0	0	0	0	500	627	
13	0	0	0	0	499	627	
14	0	0	0	0	500	630	
15	0	0	0	0	501	628	
0	0	0	0	0	502	628	
1	0	0	0	0	504	628	
2	0	0	0	0	506	627	
3	0	0	0	0	508	629	
4	0	0	0	0	508	629	
5	0	0	0	0	510	629	
6	0	0	0	0	512	631	
7	0	0	0	0	514	628	
8	0	0	0	0	515	629	
9	0	0	0	0	515	628	
10	0	0	0	0	515	627	
11	0	0	0	0	515	628	
12	0	0	0	0	516	628	
13	0	0	0	0	515	627	
14	0	0	0	0	515	629	
15	0	0	0	0	515	627	
0	0	0	0	0	516	627	
1	0	0	0	0	518	627	
2	0	0	0	0	519	625	
3	0	0	0	0	520	626	
4	0	0	0	0	521	627	
5	0	0	0	0	522	626	
6	0	0	0	0	525	627	
7	0	0	0	0	527	626	
8	0	0	0	0	529	625	
9	0	0	0	0	529	625	
10	0	0	0	0	529	623	
11	0	0	0	0	528	624	
12	0	0	0	0	527	624	
13	0	0	0	0	526	624	
14	0	0	0	0	526	625	
15	0	0	0	0	527	624	
0	0	0	0	0	527	623	
1	0	0	0	0	527	623	
2	0	0	0	0	526	621	
3	0	0	0	0	524	623	
4	0	0	0	0	523	623	
5	0	0	0	0	523	623	
6	0	0	0	0	523	624	
7	0	0	0	0	524	623	
8	0	0	0	0	526	623	
9	0	0	0	0	527	623	
10	0	0	0	0	528	620	
11	0	0	0	0	529	623	
12	0	0	0	0	531	622	
13	0	0	0	0	533	621	
14	0	0	0	0	535	623	
15	0	0	0	0	539	621	
0	0	0	0	0	539	621	
1	0	0	0	0	538	621	
2	0	0	0	0	537	620	
3	0	0	0	0	534	621	
4	0	0	0	0	530	621	
5	0	0	0	0	528	622	
6	0	0	0	0	526	623	
7	0	0	0	0	525	621	
8	0	0	0	0	525	621	
9	0	0	0	0	523	621	
10	0	0	0	0	518	620	
11	0	0	0	0	512	622	
12	0	0	0	0	510	621	
13	0	0	0	0	511	621	
14	0	0	0	0	511	624	
15	0	0	0	0	512	622	
0	0	0	0	0	514	622	
1	0	0	0	0	516	622	
2	0	0	0	0	517	620	
3	0	0	0	0	516	623	
4	0	0	0	0	513	622	
5	0	0	0	0	510	622	
6	0	0	0	0	508	624	
7	0	0	0	0	508	622	
8	0	0	0	0	509	622	
9	0	0	0	0	511	622	
10	0	0	0	0	512	620	
11	0	0	0	0	513	623	
12	0	0	0	0	513	622	
13	0	0	0	0	512	622	
14	0	0	0	0	511	624	
15	0	0	0	0	509	622	
0	0	0	0	0	505	623	
1	0	0	0	0	503	622	
2	0	0	0	0	501	620	
3	0	0	0	0	497	622	
4	0	0	0	0	494	622	
5	0	0	0	0	493	621	
6	0	0	0	0	493	623	
7	0	0	0	0	494	622	
8	0	0	0	0	496	621	
9	0	0	0	0	498	621	
10	0	0	0	0	499	620	
11	0	0	0	0	500	621	
12	0	0	0	0	500	621	
13	0	0	0	0	499	621	
14	0	0	0	0	497	623	
15	0	0	0	0	496	621	
0	0	0	0	0	493	621	
1	0	0	0	0	491	620	
2	0	0	0	0	492	619	
3	0	0	0	0	493	620	
4	0	0	0	0	493	621	
5	0	0	0	0	492	620	
6	0	0	0	0	489	622	
7	0	0	0	0	484	620	
8	0	0	0	0	480	620	
9	0	0	0	0	478	620	
10	0	0	0	0	477	617	
11	0	0	0	0	479	619	
12	0	0	0	0	482	619	
13	0	0	0	0	486	619	
14	0	0	0	0	487	621	
15	0	0	0	0	487	619	
0	0	0	0	0	487	618	
1	0	0	0	0	489	619	
2	0	0	0	0	488	616	
3	0	0	0	0	487	619	
4	0	0	0	0	487	619	
5	0	0	0	0	486	618	
6	0	0	0	0	487	620	
7	0	0	0	0	488	619	
8	0	0	0	0	487	619	
9	0	0	0	0	487	618	
10	0	0	0	0	487	616	
11	0	0	0	0	487	619	
12	0	0	0	0	489	619	
13	0	0	0	0	490	619	
14	0	0	0	0	490	621	
15	0	0	0	0	490	620	
0	0	0	0	0	493	620	
1	0	0	0	0	494	620	
2	0	0	0	0	491	618	
3	0	0	0	0	488	620	
4	0	0	0	0	487	620	
5	0	0	0	0	488	621	
6	0	0	0	0	489	622	
7	0	0	0	0	489	621	
8	0	0	0	0	492	621	
9	0	0	0	0	494	622	
10	0	0	0	0	496	620	
11	0	0	0	0	496	623	
12	0	0	0	0	496	623	
13	0	0	0	0	496	623	
14	0	0	0	0	495	625	
15	0	0	0	0	492	624	
0	0	0	0	0	491	625	
1	0	0	0	0	490	626	
2	0	0	0	0	491	624	
3	0	0	0	0	494	626	
4	0	0	0	0	495	627	
5	0	0	0	0	494	627	
6	0	0	0	0	495	629	
7	0	0	0	0	496	627	
8	0	0	0	0	497	627	
9	0	0	0	0	497	628	
10	0	0	0	0	498	626	
11	0	0	0	0	499	627	
12	0	0	0	0	501	628	
13	0	0	0	0	501	628	
14	0	0	0	0	500	630	
15	0	0	0	0	499	628	
0	0	0	0	0	499	628	
1	0	0	0	0	499	628	
2	0	0	0	0	498	626	
3	0	0	0	0	498	628	
