# OpenSignals Text File Format
# {"98:D3:91:FD:58:3A":{"sensor":["ECGBIT","ACCBITREV"],"device name":"98:D3:91:FD:58:3A","column":["nSeq","I1","I2","O1","O2","A2","A5"],"sync interval":2,"time":"15:21:51","comments":"","device connection":"BTH98:D3:91:FD:58:3A","channels":[2,5],"date":"2021-09-15","mode":0,"digital IO":[0,0,1,1],"firmware version":0,"device":"bitalino_rev","position":0,"sampling rate":1000,"label":["A2","A5"],"resolution":[10,10],"special":[{},{}]}}
# EndOfHeader
0	0	0	0	0	516	617
1	0	0	0	0	516	618
2	0	0	0	0	516	617
3	0	0	0	0	515	618
4	0	0	0	0	516	617
5	0	0	0	0	516	617
6	0	0	0	0	516	618
7	0	0	0	0	515	618
8	0	0	0	0	516	618
9	0	0	0	0	516	619
10	0	0	0	0	516	618
11	0	0	0	0	517	617
12	0	0	0	0	516	618
13	0	0	0	0	515	617
14	0	0	0	0	514	618
15	0	0	0	0	513	618
0	0	0	0	0	511	618
1	0	0	0	0	509	619
2	0	0	0	0	506	618
3	0	0	0	0	500	618
4	0	0	0	0	494	617
5	0	0	0	0	486	618
6	0	0	0	0	476	617
7	0	0	0	0	467	617
8	0	0	0	0	457	617
9	0	0	0	0	446	617
10	0	0	0	0	437	617
11	0	0	0	0	427	617
12	0	0	0	0	416	617
13	0	0	0	0	407	617
14	0	0	0	0	402	617
15	0	0	0	0	399	617
0	0	0	0	0	398	618
1	0	0	0	0	396	619
2	0	0	0	0	393	618
3	0	0	0	0	393	618
4	0	0	0	0	398	619
5	0	0	0	0	409	618
6	0	0	0	0	425	619
7	0	0	0	0	441	618
8	0	0	0	0	460	619
9	0	0	0	0	484	619
10	0	0	0	0	513	618
11	0	0	0	0	551	618
12	0	0	0	0	596	618
13	0	0	0	0	648	618
14	0	0	0	0	707	618
15	0	0	0	0	772	617
0	0	0	0	0	838	618
1	0	0	0	0	905	619
2	0	0	0	0	966	618
3	0	0	0	0	1014	618
4	0	0	0	0	1022	618
5	0	0	0	0	1022	619
6	0	0	0	0	1022	618
7	0	0	0	0	1022	618
8	0	0	0	0	1022	618
9	0	0	0	0	1022	619
10	0	0	0	0	1022	619
11	0	0	0	0	1022	618
12	0	0	0	0	992	619
13	0	0	0	0	944	618
14	0	0	0	0	898	618
15	0	0	0	0	856	618
0	0	0	0	0	820	619
1	0	0	0	0	789	620
2	0	0	0	0	765	619
3	0	0	0	0	746	620
4	0	0	0	0	731	620
5	0	0	0	0	719	620
6	0	0	0	0	710	621
7	0	0	0	0	701	620
8	0	0	0	0	690	620
9	0	0	0	0	677	621
10	0	0	0	0	662	620
11	0	0	0	0	647	621
12	0	0	0	0	632	621
13	0	0	0	0	616	621
14	0	0	0	0	600	621
15	0	0	0	0	585	621
0	0	0	0	0	571	621
1	0	0	0	0	556	621
2	0	0	0	0	543	621
3	0	0	0	0	529	621
4	0	0	0	0	515	620
5	0	0	0	0	500	620
6	0	0	0	0	486	620
7	0	0	0	0	473	620
8	0	0	0	0	461	620
9	0	0	0	0	450	620
10	0	0	0	0	440	619
11	0	0	0	0	432	619
12	0	0	0	0	424	619
13	0	0	0	0	417	619
14	0	0	0	0	410	619
15	0	0	0	0	405	619
0	0	0	0	0	400	619
1	0	0	0	0	397	619
2	0	0	0	0	392	619
3	0	0	0	0	389	618
4	0	0	0	0	386	619
5	0	0	0	0	384	618
6	0	0	0	0	382	618
7	0	0	0	0	381	618
8	0	0	0	0	380	618
9	0	0	0	0	379	619
10	0	0	0	0	378	618
11	0	0	0	0	378	618
12	0	0	0	0	378	618
13	0	0	0	0	379	618
14	0	0	0	0	379	617
15	0	0	0	0	380	617
0	0	0	0	0	380	617
1	0	0	0	0	380	617
2	0	0	0	0	381	616
3	0	0	0	0	381	617
4	0	0	0	0	381	617
5	0	0	0	0	382	617
6	0	0	0	0	383	617
7	0	0	0	0	384	616
8	0	0	0	0	384	616
9	0	0	0	0	385	616
10	0	0	0	0	386	616
11	0	0	0	0	387	617
12	0	0	0	0	388	616
13	0	0	0	0	389	616
14	0	0	0	0	389	617
15	0	0	0	0	390	616
0	0	0	0	0	391	617
1	0	0	0	0	392	617
2	0	0	0	0	393	617
3	0	0	0	0	394	617
4	0	0	0	0	394	617
5	0	0	0	0	396	617
6	0	0	0	0	397	617
7	0	0	0	0	398	617
8	0	0	0	0	399	617
9	0	0	0	0	399	618
10	0	0	0	0	401	617
11	0	0	0	0	402	617
12	0	0	0	0	403	618
13	0	0	0	0	404	618
14	0	0	0	0	405	618
15	0	0	0	0	406	618
0	0	0	0	0	407	618
1	0	0	0	0	408	619
2	0	0	0	0	408	618
3	0	0	0	0	409	618
4	0	0	0	0	409	618
5	0	0	0	0	411	618
6	0	0	0	0	411	619
7	0	0	0	0	412	618
8	0	0	0	0	414	618
9	0	0	0	0	415	619
10	0	0	0	0	415	618
11	0	0	0	0	416	618
12	0	0	0	0	417	618
13	0	0	0	0	418	618
14	0	0	0	0	418	617
15	0	0	0	0	419	618
0	0	0	0	0	419	619
1	0	0	0	0	419	619
2	0	0	0	0	419	619
3	0	0	0	0	420	619
4	0	0	0	0	421	619
5	0	0	0	0	422	619
6	0	0	0	0	423	619
7	0	0	0	0	423	620
8	0	0	0	0	424	620
9	0	0	0	0	424	621
10	0	0	0	0	424	620
11	0	0	0	0	425	620
12	0	0	0	0	426	620
13	0	0	0	0	427	620
14	0	0	0	0	427	620
15	0	0	0	0	428	620
0	0	0	0	0	429	620
1	0	0	0	0	430	620
2	0	0	0	0	431	620
3	0	0	0	0	432	621
4	0	0	0	0	432	620
5	0	0	0	0	432	620
6	0	0	0	0	433	620
7	0	0	0	0	434	621
8	0	0	0	0	435	620
9	0	0	0	0	436	622
10	0	0	0	0	437	620
11	0	0	0	0	438	621
12	0	0	0	0	439	620
13	0	0	0	0	440	620
14	0	0	0	0	441	620
15	0	0	0	0	442	620
0	0	0	0	0	443	620
1	0	0	0	0	444	620
2	0	0	0	0	446	621
3	0	0	0	0	447	619
4	0	0	0	0	448	620
5	0	0	0	0	450	619
6	0	0	0	0	451	619
7	0	0	0	0	453	620
8	0	0	0	0	454	619
9	0	0	0	0	455	619
10	0	0	0	0	455	619
11	0	0	0	0	456	619
12	0	0	0	0	457	619
13	0	0	0	0	458	619
14	0	0	0	0	458	619
15	0	0	0	0	459	619
0	0	0	0	0	460	619
1	0	0	0	0	461	619
2	0	0	0	0	462	619
3	0	0	0	0	463	619
4	0	0	0	0	464	619
5	0	0	0	0	465	619
6	0	0	0	0	466	619
7	0	0	0	0	467	619
8	0	0	0	0	469	618
9	0	0	0	0	470	619
10	0	0	0	0	472	618
11	0	0	0	0	472	618
12	0	0	0	0	474	619
13	0	0	0	0	475	618
14	0	0	0	0	476	618
15	0	0	0	0	477	618
0	0	0	0	0	478	617
1	0	0	0	0	479	618
2	0	0	0	0	479	617
3	0	0	0	0	480	617
4	0	0	0	0	480	617
5	0	0	0	0	481	617
6	0	0	0	0	482	617
7	0	0	0	0	483	617
8	0	0	0	0	484	616
9	0	0	0	0	484	617
10	0	0	0	0	485	616
11	0	0	0	0	486	616
12	0	0	0	0	487	615
13	0	0	0	0	487	616
14	0	0	0	0	488	615
15	0	0	0	0	488	615
0	0	0	0	0	489	616
1	0	0	0	0	488	615
2	0	0	0	0	489	615
3	0	0	0	0	489	615
4	0	0	0	0	490	616
5	0	0	0	0	489	616
6	0	0	0	0	490	615
7	0	0	0	0	491	616
8	0	0	0	0	490	616
9	0	0	0	0	490	617
10	0	0	0	0	490	617
11	0	0	0	0	489	617
12	0	0	0	0	490	617
13	0	0	0	0	490	616
14	0	0	0	0	490	617
15	0	0	0	0	490	618
0	0	0	0	0	490	618
1	0	0	0	0	491	619
2	0	0	0	0	491	618
3	0	0	0	0	491	618
4	0	0	0	0	492	618
5	0	0	0	0	492	619
6	0	0	0	0	492	619
7	0	0	0	0	493	619
8	0	0	0	0	493	619
9	0	0	0	0	493	620
10	0	0	0	0	492	619
11	0	0	0	0	492	620
12	0	0	0	0	492	620
13	0	0	0	0	493	620
14	0	0	0	0	493	620
15	0	0	0	0	494	620
0	0	0	0	0	494	620
1	0	0	0	0	494	621
2	0	0	0	0	494	620
3	0	0	0	0	495	621
4	0	0	0	0	494	620
5	0	0	0	0	494	621
6	0	0	0	0	494	620
7	0	0	0	0	494	620
8	0	0	0	0	495	620
9	0	0	0	0	497	621
10	0	0	0	0	497	621
11	0	0	0	0	498	621
12	0	0	0	0	499	621
13	0	0	0	0	499	620
14	0	0	0	0	500	621
15	0	0	0	0	502	620
0	0	0	0	0	502	620
1	0	0	0	0	502	620
2	0	0	0	0	503	620
3	0	0	0	0	503	620
4	0	0	0	0	504	620
5	0	0	0	0	504	620
6	0	0	0	0	504	620
7	0	0	0	0	505	619
8	0	0	0	0	506	619
9	0	0	0	0	507	619
10	0	0	0	0	508	619
11	0	0	0	0	508	618
12	0	0	0	0	509	619
13	0	0	0	0	510	618
14	0	0	0	0	511	618
15	0	0	0	0	512	618
0	0	0	0	0	513	618
1	0	0	0	0	513	619
2	0	0	0	0	514	619
3	0	0	0	0	514	619
4	0	0	0	0	515	618
5	0	0	0	0	515	618
6	0	0	0	0	516	618
7	0	0	0	0	516	618
8	0	0	0	0	518	618
9	0	0	0	0	518	619
10	0	0	0	0	518	617
11	0	0	0	0	519	617
12	0	0	0	0	519	617
13	0	0	0	0	520	617
14	0	0	0	0	520	617
15	0	0	0	0	521	617
0	0	0	0	0	521	617
1	0	0	0	0	521	617
2	0	0	0	0	522	616
3	0	0	0	0	522	616
4	0	0	0	0	522	615
5	0	0	0	0	523	616
6	0	0	0	0	523	616
7	0	0	0	0	524	616
8	0	0	0	0	524	616
9	0	0	0	0	524	617
10	0	0	0	0	524	617
11	0	0	0	0	524	617
12	0	0	0	0	524	617
13	0	0	0	0	524	617
14	0	0	0	0	524	617
15	0	0	0	0	524	617
0	0	0	0	0	524	617
1	0	0	0	0	525	618
2	0	0	0	0	525	618
3	0	0	0	0	526	618
4	0	0	0	0	526	619
5	0	0	0	0	526	619
6	0	0	0	0	526	619
7	0	0	0	0	526	619
8	0	0	0	0	526	618
9	0	0	0	0	526	620
10	0	0	0	0	525	619
11	0	0	0	0	525	619
12	0	0	0	0	524	619
13	0	0	0	0	524	619
14	0	0	0	0	524	619
15	0	0	0	0	524	619
0	0	0	0	0	524	619
1	0	0	0	0	524	620
2	0	0	0	0	524	620
3	0	0	0	0	524	619
4	0	0	0	0	523	619
5	0	0	0	0	524	619
6	0	0	0	0	523	619
7	0	0	0	0	523	619
8	0	0	0	0	523	619
9	0	0	0	0	524	619
10	0	0	0	0	523	618
11	0	0	0	0	523	618
12	0	0	0	0	522	619
13	0	0	0	0	521	619
14	0	0	0	0	521	619
15	0	0	0	0	521	619
0	0	0	0	0	521	618
1	0	0	0	0	522	619
2	0	0	0	0	521	619
3	0	0	0	0	521	619
4	0	0	0	0	521	618
5	0	0	0	0	521	619
6	0	0	0	0	521	619
7	0	0	0	0	520	618
8	0	0	0	0	520	618
9	0	0	0	0	521	619
10	0	0	0	0	521	618
11	0	0	0	0	521	617
12	0	0	0	0	521	618
13	0	0	0	0	521	617
14	0	0	0	0	522	618
15	0	0	0	0	522	618
0	0	0	0	0	522	618
1	0	0	0	0	521	619
2	0	0	0	0	521	619
3	0	0	0	0	521	619
4	0	0	0	0	521	619
5	0	0	0	0	520	619
6	0	0	0	0	520	619
7	0	0	0	0	520	619
8	0	0	0	0	520	620
9	0	0	0	0	520	620
10	0	0	0	0	521	619
11	0	0	0	0	521	620
12	0	0	0	0	521	619
13	0	0	0	0	521	620
14	0	0	0	0	521	619
15	0	0	0	0	520	620
0	0	0	0	0	520	620
1	0	0	0	0	519	620
2	0	0	0	0	519	619
3	0	0	0	0	519	619
4	0	0	0	0	519	619
5	0	0	0	0	520	619
6	0	0	0	0	520	619
7	0	0	0	0	521	618
8	0	0	0	0	521	619
9	0	0	0	0	521	619
10	0	0	0	0	521	619
11	0	0	0	0	521	618
12	0	0	0	0	521	619
13	0	0	0	0	521	618
14	0	0	0	0	521	617
15	0	0	0	0	521	617
0	0	0	0	0	521	617
1	0	0	0	0	522	617
2	0	0	0	0	522	617
3	0	0	0	0	523	618
4	0	0	0	0	524	617
5	0	0	0	0	524	617
6	0	0	0	0	524	617
7	0	0	0	0	524	617
8	0	0	0	0	524	617
9	0	0	0	0	524	618
10	0	0	0	0	524	617
11	0	0	0	0	524	617
12	0	0	0	0	525	618
13	0	0	0	0	526	617
14	0	0	0	0	526	617
15	0	0	0	0	526	617
0	0	0	0	0	526	617
1	0	0	0	0	526	618
2	0	0	0	0	526	617
3	0	0	0	0	527	618
4	0	0	0	0	527	617
5	0	0	0	0	528	618
6	0	0	0	0	528	617
7	0	0	0	0	529	617
8	0	0	0	0	530	617
9	0	0	0	0	528	617
10	0	0	0	0	528	617
11	0	0	0	0	527	618
12	0	0	0	0	527	618
13	0	0	0	0	528	618
14	0	0	0	0	528	618
15	0	0	0	0	528	618
0	0	0	0	0	529	618
1	0	0	0	0	530	618
2	0	0	0	0	530	618
3	0	0	0	0	530	617
4	0	0	0	0	531	618
5	0	0	0	0	530	617
6	0	0	0	0	531	617
7	0	0	0	0	531	618
8	0	0	0	0	531	617
9	0	0	0	0	531	618
10	0	0	0	0	531	618
11	0	0	0	0	531	618
12	0	0	0	0	532	618
13	0	0	0	0	532	617
14	0	0	0	0	531	618
15	0	0	0	0	532	618
0	0	0	0	0	531	618
1	0	0	0	0	531	617
2	0	0	0	0	532	617
3	0	0	0	0	534	618
4	0	0	0	0	534	618
5	0	0	0	0	533	617
6	0	0	0	0	534	618
7	0	0	0	0	534	618
8	0	0	0	0	535	618
9	0	0	0	0	534	619
10	0	0	0	0	534	618
11	0	0	0	0	533	618
12	0	0	0	0	533	619
13	0	0	0	0	533	618
14	0	0	0	0	533	618
15	0	0	0	0	534	617
0	0	0	0	0	534	617
1	0	0	0	0	534	619
2	0	0	0	0	533	618
3	0	0	0	0	533	618
4	0	0	0	0	533	618
5	0	0	0	0	534	618
6	0	0	0	0	534	618
7	0	0	0	0	534	619
8	0	0	0	0	533	618
9	0	0	0	0	533	619
10	0	0	0	0	533	619
11	0	0	0	0	533	618
12	0	0	0	0	533	619
13	0	0	0	0	532	619
14	0	0	0	0	532	619
15	0	0	0	0	531	619
0	0	0	0	0	531	618
1	0	0	0	0	531	619
2	0	0	0	0	531	619
3	0	0	0	0	530	618
4	0	0	0	0	530	619
5	0	0	0	0	530	619
6	0	0	0	0	530	619
7	0	0	0	0	531	619
8	0	0	0	0	531	619
9	0	0	0	0	530	620
10	0	0	0	0	531	619
11	0	0	0	0	532	619
12	0	0	0	0	530	619
13	0	0	0	0	530	619
14	0	0	0	0	530	619
15	0	0	0	0	531	619
0	0	0	0	0	530	619
1	0	0	0	0	529	620
2	0	0	0	0	528	619
3	0	0	0	0	528	620
4	0	0	0	0	527	620
5	0	0	0	0	526	619
6	0	0	0	0	526	620
7	0	0	0	0	527	620
8	0	0	0	0	527	621
9	0	0	0	0	527	620
10	0	0	0	0	526	620
11	0	0	0	0	526	620
12	0	0	0	0	525	620
13	0	0	0	0	525	620
14	0	0	0	0	525	619
15	0	0	0	0	525	620
0	0	0	0	0	525	619
1	0	0	0	0	525	620
2	0	0	0	0	525	619
3	0	0	0	0	525	619
4	0	0	0	0	525	618
5	0	0	0	0	524	618
6	0	0	0	0	523	619
7	0	0	0	0	523	619
8	0	0	0	0	523	618
9	0	0	0	0	523	618
10	0	0	0	0	523	619
11	0	0	0	0	523	619
12	0	0	0	0	522	618
13	0	0	0	0	521	619
14	0	0	0	0	521	618
15	0	0	0	0	520	619
0	0	0	0	0	520	618
1	0	0	0	0	519	619
2	0	0	0	0	519	619
3	0	0	0	0	519	619
4	0	0	0	0	518	619
5	0	0	0	0	517	619
6	0	0	0	0	516	620
7	0	0	0	0	515	619
8	0	0	0	0	515	619
9	0	0	0	0	514	619
10	0	0	0	0	513	619
11	0	0	0	0	513	619
12	0	0	0	0	513	620
13	0	0	0	0	513	619
14	0	0	0	0	513	619
15	0	0	0	0	512	619
0	0	0	0	0	512	619
1	0	0	0	0	513	620
2	0	0	0	0	513	618
3	0	0	0	0	513	618
4	0	0	0	0	513	620
5	0	0	0	0	513	619
6	0	0	0	0	514	619
7	0	0	0	0	515	619
8	0	0	0	0	515	618
9	0	0	0	0	516	619
10	0	0	0	0	516	619
11	0	0	0	0	517	618
12	0	0	0	0	519	619
13	0	0	0	0	519	618
14	0	0	0	0	520	619
15	0	0	0	0	521	618
0	0	0	0	0	521	619
1	0	0	0	0	522	619
2	0	0	0	0	523	618
3	0	0	0	0	524	619
4	0	0	0	0	524	620
5	0	0	0	0	524	619
6	0	0	0	0	525	619
7	0	0	0	0	525	618
8	0	0	0	0	525	618
9	0	0	0	0	525	619
10	0	0	0	0	526	619
11	0	0	0	0	526	619
12	0	0	0	0	527	619
13	0	0	0	0	527	618
14	0	0	0	0	527	619
15	0	0	0	0	527	618
0	0	0	0	0	527	619
1	0	0	0	0	527	619
2	0	0	0	0	527	619
3	0	0	0	0	527	619
4	0	0	0	0	527	619
5	0	0	0	0	527	619
6	0	0	0	0	526	618
7	0	0	0	0	526	619
8	0	0	0	0	526	620
9	0	0	0	0	526	619
10	0	0	0	0	527	619
11	0	0	0	0	527	619
12	0	0	0	0	527	620
13	0	0	0	0	527	619
14	0	0	0	0	527	619
15	0	0	0	0	527	619
0	0	0	0	0	527	619
1	0	0	0	0	527	619
2	0	0	0	0	527	619
3	0	0	0	0	525	619
4	0	0	0	0	524	618
5	0	0	0	0	524	618
6	0	0	0	0	524	618
7	0	0	0	0	524	618
8	0	0	0	0	524	618
9	0	0	0	0	526	619
10	0	0	0	0	526	618
11	0	0	0	0	526	618
12	0	0	0	0	525	618
13	0	0	0	0	525	618
14	0	0	0	0	525	617
15	0	0	0	0	525	618
0	0	0	0	0	525	618
1	0	0	0	0	525	619
2	0	0	0	0	526	619
3	0	0	0	0	526	618
4	0	0	0	0	525	618
5	0	0	0	0	524	618
6	0	0	0	0	525	619
7	0	0	0	0	523	619
8	0	0	0	0	523	619
9	0	0	0	0	523	619
10	0	0	0	0	523	618
11	0	0	0	0	522	618
12	0	0	0	0	522	617
13	0	0	0	0	523	618
14	0	0	0	0	523	618
15	0	0	0	0	523	617
0	0	0	0	0	524	617
1	0	0	0	0	524	618
2	0	0	0	0	524	617
3	0	0	0	0	523	617
4	0	0	0	0	523	617
5	0	0	0	0	523	618
6	0	0	0	0	524	618
7	0	0	0	0	523	617
8	0	0	0	0	522	617
9	0	0	0	0	521	617
10	0	0	0	0	522	617
11	0	0	0	0	522	617
12	0	0	0	0	521	617
13	0	0	0	0	520	618
14	0	0	0	0	520	617
15	0	0	0	0	520	618
0	0	0	0	0	520	617
1	0	0	0	0	520	618
2	0	0	0	0	520	617
3	0	0	0	0	520	617
4	0	0	0	0	520	618
5	0	0	0	0	519	617
6	0	0	0	0	519	617
7	0	0	0	0	519	617
8	0	0	0	0	519	617
9	0	0	0	0	520	619
10	0	0	0	0	519	617
11	0	0	0	0	518	618
12	0	0	0	0	518	618
13	0	0	0	0	518	618
14	0	0	0	0	517	617
15	0	0	0	0	516	618
0	0	0	0	0	517	619
1	0	0	0	0	517	619
2	0	0	0	0	517	619
3	0	0	0	0	517	618
4	0	0	0	0	518	618
5	0	0	0	0	518	619
6	0	0	0	0	518	619
7	0	0	0	0	517	619
8	0	0	0	0	516	619
9	0	0	0	0	517	619
10	0	0	0	0	517	619
11	0	0	0	0	516	619
12	0	0	0	0	516	619
13	0	0	0	0	515	619
14	0	0	0	0	515	619
15	0	0	0	0	515	620
0	0	0	0	0	514	620
1	0	0	0	0	514	620
2	0	0	0	0	514	620
3	0	0	0	0	514	619
4	0	0	0	0	514	619
5	0	0	0	0	514	619
6	0	0	0	0	514	619
7	0	0	0	0	515	620
8	0	0	0	0	513	619
9	0	0	0	0	513	619
10	0	0	0	0	513	619
11	0	0	0	0	512	618
12	0	0	0	0	512	619
13	0	0	0	0	511	619
14	0	0	0	0	510	618
15	0	0	0	0	508	618
0	0	0	0	0	507	617
1	0	0	0	0	504	618
2	0	0	0	0	500	618
3	0	0	0	0	494	618
4	0	0	0	0	488	618
5	0	0	0	0	480	618
6	0	0	0	0	472	618
7	0	0	0	0	463	619
8	0	0	0	0	454	618
9	0	0	0	0	445	618
10	0	0	0	0	436	618
11	0	0	0	0	427	619
12	0	0	0	0	415	618
13	0	0	0	0	406	619
14	0	0	0	0	402	619
15	0	0	0	0	400	619
0	0	0	0	0	400	619
1	0	0	0	0	400	619
2	0	0	0	0	399	619
3	0	0	0	0	400	620
4	0	0	0	0	406	619
5	0	0	0	0	418	619
6	0	0	0	0	433	619
7	0	0	0	0	447	619
8	0	0	0	0	465	620
9	0	0	0	0	487	620
10	0	0	0	0	516	620
11	0	0	0	0	552	619
12	0	0	0	0	596	620
13	0	0	0	0	647	620
14	0	0	0	0	707	620
15	0	0	0	0	771	620
0	0	0	0	0	839	620
1	0	0	0	0	906	620
2	0	0	0	0	965	620
3	0	0	0	0	1013	620
4	0	0	0	0	1022	620
5	0	0	0	0	1022	620
6	0	0	0	0	1022	619
7	0	0	0	0	1022	620
8	0	0	0	0	1022	619
9	0	0	0	0	1022	619
10	0	0	0	0	1022	619
11	0	0	0	0	1011	619
12	0	0	0	0	964	619
13	0	0	0	0	920	619
14	0	0	0	0	876	619
15	0	0	0	0	836	618
0	0	0	0	0	804	618
1	0	0	0	0	779	619
2	0	0	0	0	760	618
3	0	0	0	0	745	619
4	0	0	0	0	732	619
5	0	0	0	0	721	619
6	0	0	0	0	712	619
7	0	0	0	0	703	618
8	0	0	0	0	692	618
9	0	0	0	0	678	618
10	0	0	0	0	664	617
11	0	0	0	0	647	618
12	0	0	0	0	631	617
13	0	0	0	0	615	618
14	0	0	0	0	599	618
15	0	0	0	0	584	619
0	0	0	0	0	569	619
1	0	0	0	0	555	619
2	0	0	0	0	541	619
3	0	0	0	0	527	618
4	0	0	0	0	513	619
5	0	0	0	0	499	618
6	0	0	0	0	486	617
7	0	0	0	0	473	618
8	0	0	0	0	461	617
9	0	0	0	0	451	618
10	0	0	0	0	441	617
11	0	0	0	0	432	617
12	0	0	0	0	424	617
13	0	0	0	0	417	617
14	0	0	0	0	411	617
15	0	0	0	0	404	616
0	0	0	0	0	399	617
1	0	0	0	0	394	617
2	0	0	0	0	390	617
3	0	0	0	0	385	617
4	0	0	0	0	381	617
5	0	0	0	0	378	618
6	0	0	0	0	376	617
7	0	0	0	0	374	617
8	0	0	0	0	373	618
9	0	0	0	0	372	618
10	0	0	0	0	372	617
11	0	0	0	0	372	618
12	0	0	0	0	373	617
13	0	0	0	0	374	618
14	0	0	0	0	374	618
15	0	0	0	0	375	617
0	0	0	0	0	375	617
1	0	0	0	0	375	618
2	0	0	0	0	376	617
3	0	0	0	0	376	617
4	0	0	0	0	377	617
5	0	0	0	0	378	617
6	0	0	0	0	380	617
7	0	0	0	0	380	617
8	0	0	0	0	382	617
9	0	0	0	0	382	617
10	0	0	0	0	383	617
11	0	0	0	0	384	617
12	0	0	0	0	385	617
13	0	0	0	0	385	617
14	0	0	0	0	387	618
15	0	0	0	0	388	619
0	0	0	0	0	389	619
1	0	0	0	0	390	619
2	0	0	0	0	391	619
3	0	0	0	0	392	618
4	0	0	0	0	394	620
5	0	0	0	0	395	619
6	0	0	0	0	395	619
7	0	0	0	0	395	620
8	0	0	0	0	395	620
9	0	0	0	0	396	620
10	0	0	0	0	397	619
11	0	0	0	0	398	619
12	0	0	0	0	398	620
13	0	0	0	0	399	620
14	0	0	0	0	400	619
15	0	0	0	0	401	619
0	0	0	0	0	401	619
1	0	0	0	0	402	619
2	0	0	0	0	402	619
3	0	0	0	0	403	619
4	0	0	0	0	403	619
5	0	0	0	0	404	620
6	0	0	0	0	405	619
7	0	0	0	0	406	619
8	0	0	0	0	407	619
9	0	0	0	0	407	620
10	0	0	0	0	408	619
11	0	0	0	0	408	620
12	0	0	0	0	408	619
13	0	0	0	0	409	619
14	0	0	0	0	410	619
15	0	0	0	0	411	619
0	0	0	0	0	411	619
1	0	0	0	0	411	620
2	0	0	0	0	412	619
3	0	0	0	0	412	619
4	0	0	0	0	414	618
5	0	0	0	0	414	619
6	0	0	0	0	415	619
7	0	0	0	0	416	619
8	0	0	0	0	417	619
9	0	0	0	0	417	619
10	0	0	0	0	418	618
11	0	0	0	0	419	618
12	0	0	0	0	419	618
13	0	0	0	0	420	618
14	0	0	0	0	422	618
15	0	0	0	0	423	619
0	0	0	0	0	424	618
1	0	0	0	0	426	618
2	0	0	0	0	426	619
3	0	0	0	0	427	618
4	0	0	0	0	428	618
5	0	0	0	0	430	618
6	0	0	0	0	430	619
7	0	0	0	0	431	618
8	0	0	0	0	431	618
9	0	0	0	0	432	619
10	0	0	0	0	432	617
11	0	0	0	0	434	617
12	0	0	0	0	435	618
13	0	0	0	0	435	618
14	0	0	0	0	436	618
15	0	0	0	0	438	619
0	0	0	0	0	440	619
1	0	0	0	0	440	619
2	0	0	0	0	441	618
3	0	0	0	0	442	619
4	0	0	0	0	443	619
5	0	0	0	0	444	619
6	0	0	0	0	446	619
7	0	0	0	0	447	619
8	0	0	0	0	448	619
9	0	0	0	0	448	619
10	0	0	0	0	449	619
11	0	0	0	0	450	618
12	0	0	0	0	451	618
13	0	0	0	0	452	618
14	0	0	0	0	453	618
15	0	0	0	0	454	619
0	0	0	0	0	456	618
1	0	0	0	0	457	618
2	0	0	0	0	457	617
3	0	0	0	0	458	617
4	0	0	0	0	460	618
5	0	0	0	0	461	617
6	0	0	0	0	462	618
7	0	0	0	0	463	617
8	0	0	0	0	465	617
9	0	0	0	0	465	618
10	0	0	0	0	466	617
11	0	0	0	0	466	618
12	0	0	0	0	467	618
13	0	0	0	0	468	618
14	0	0	0	0	469	618
15	0	0	0	0	470	619
0	0	0	0	0	471	619
1	0	0	0	0	471	619
2	0	0	0	0	472	619
3	0	0	0	0	472	619
4	0	0	0	0	472	618
5	0	0	0	0	475	619
6	0	0	0	0	475	619
7	0	0	0	0	476	619
8	0	0	0	0	476	618
9	0	0	0	0	477	619
10	0	0	0	0	478	618
11	0	0	0	0	478	618
12	0	0	0	0	479	617
13	0	0	0	0	479	618
14	0	0	0	0	479	617
15	0	0	0	0	480	618
0	0	0	0	0	480	618
1	0	0	0	0	482	618
2	0	0	0	0	483	618
3	0	0	0	0	483	617
4	0	0	0	0	484	619
5	0	0	0	0	484	619
6	0	0	0	0	485	619
7	0	0	0	0	485	618
8	0	0	0	0	485	618
9	0	0	0	0	485	619
10	0	0	0	0	486	619
11	0	0	0	0	486	618
12	0	0	0	0	486	619
13	0	0	0	0	486	618
14	0	0	0	0	486	618
15	0	0	0	0	486	619
0	0	0	0	0	487	619
1	0	0	0	0	486	619
2	0	0	0	0	486	619
3	0	0	0	0	487	619
4	0	0	0	0	487	619
5	0	0	0	0	487	619
6	0	0	0	0	487	619
7	0	0	0	0	487	619
8	0	0	0	0	487	619
9	0	0	0	0	488	619
10	0	0	0	0	489	619
11	0	0	0	0	491	620
12	0	0	0	0	492	619
13	0	0	0	0	492	619
14	0	0	0	0	493	620
15	0	0	0	0	494	619
0	0	0	0	0	494	619
1	0	0	0	0	495	619
2	0	0	0	0	496	619
3	0	0	0	0	496	619
4	0	0	0	0	495	619
5	0	0	0	0	495	619
6	0	0	0	0	496	619
7	0	0	0	0	496	619
8	0	0	0	0	497	619
9	0	0	0	0	499	619
10	0	0	0	0	499	617
11	0	0	0	0	499	618
12	0	0	0	0	500	619
13	0	0	0	0	500	618
14	0	0	0	0	502	618
15	0	0	0	0	502	618
0	0	0	0	0	502	618
1	0	0	0	0	503	619
2	0	0	0	0	504	618
3	0	0	0	0	504	618
4	0	0	0	0	505	619
5	0	0	0	0	507	618
6	0	0	0	0	508	619
7	0	0	0	0	509	619
8	0	0	0	0	511	618
9	0	0	0	0	512	620
10	0	0	0	0	512	619
11	0	0	0	0	513	619
12	0	0	0	0	514	619
13	0	0	0	0	515	619
14	0	0	0	0	515	619
15	0	0	0	0	516	618
0	0	0	0	0	517	619
1	0	0	0	0	518	620
2	0	0	0	0	519	618
3	0	0	0	0	520	618
4	0	0	0	0	520	618
5	0	0	0	0	520	618
6	0	0	0	0	521	619
7	0	0	0	0	523	618
8	0	0	0	0	523	618
9	0	0	0	0	524	618
10	0	0	0	0	524	618
11	0	0	0	0	524	618
12	0	0	0	0	524	619
13	0	0	0	0	524	619
14	0	0	0	0	524	618
15	0	0	0	0	523	619
0	0	0	0	0	524	619
1	0	0	0	0	524	619
2	0	0	0	0	524	619
3	0	0	0	0	525	619
4	0	0	0	0	525	619
5	0	0	0	0	525	619
6	0	0	0	0	526	619
7	0	0	0	0	526	618
8	0	0	0	0	527	618
9	0	0	0	0	528	619
10	0	0	0	0	528	619
11	0	0	0	0	529	619
12	0	0	0	0	529	618
13	0	0	0	0	530	619
14	0	0	0	0	530	618
15	0	0	0	0	530	618
0	0	0	0	0	530	617
1	0	0	0	0	530	618
2	0	0	0	0	530	617
3	0	0	0	0	530	617
4	0	0	0	0	531	618
5	0	0	0	0	531	618
6	0	0	0	0	531	617
7	0	0	0	0	531	617
8	0	0	0	0	531	618
9	0	0	0	0	531	618
10	0	0	0	0	531	617
11	0	0	0	0	531	618
12	0	0	0	0	530	618
13	0	0	0	0	530	619
14	0	0	0	0	531	618
15	0	0	0	0	531	618
0	0	0	0	0	531	618
1	0	0	0	0	532	619
2	0	0	0	0	533	619
3	0	0	0	0	533	618
4	0	0	0	0	531	618
5	0	0	0	0	530	618
6	0	0	0	0	529	619
7	0	0	0	0	528	619
8	0	0	0	0	528	619
9	0	0	0	0	527	620
10	0	0	0	0	528	619
11	0	0	0	0	528	619
12	0	0	0	0	527	619
13	0	0	0	0	527	620
14	0	0	0	0	527	619
15	0	0	0	0	527	620
0	0	0	0	0	527	620
1	0	0	0	0	527	620
2	0	0	0	0	527	620
3	0	0	0	0	527	619
4	0	0	0	0	526	620
5	0	0	0	0	526	619
6	0	0	0	0	526	619
7	0	0	0	0	526	620
8	0	0	0	0	526	619
9	0	0	0	0	525	620
10	0	0	0	0	525	619
11	0	0	0	0	525	619
12	0	0	0	0	526	619
13	0	0	0	0	525	619
14	0	0	0	0	524	619
15	0	0	0	0	524	619
0	0	0	0	0	524	619
1	0	0	0	0	524	620
2	0	0	0	0	524	619
3	0	0	0	0	524	619
4	0	0	0	0	524	619
5	0	0	0	0	525	619
6	0	0	0	0	524	619
7	0	0	0	0	524	618
8	0	0	0	0	524	619
9	0	0	0	0	523	620
10	0	0	0	0	523	619
11	0	0	0	0	523	619
12	0	0	0	0	524	619
13	0	0	0	0	523	618
14	0	0	0	0	523	618
15	0	0	0	0	523	618
0	0	0	0	0	522	618
1	0	0	0	0	523	619
2	0	0	0	0	523	618
3	0	0	0	0	522	619
4	0	0	0	0	522	618
5	0	0	0	0	522	617
6	0	0	0	0	522	617
7	0	0	0	0	521	617
8	0	0	0	0	521	617
9	0	0	0	0	522	618
10	0	0	0	0	523	617
11	0	0	0	0	523	617
12	0	0	0	0	522	617
13	0	0	0	0	522	616
14	0	0	0	0	523	616
15	0	0	0	0	523	616
0	0	0	0	0	522	616
1	0	0	0	0	524	617
2	0	0	0	0	524	616
3	0	0	0	0	524	617
4	0	0	0	0	524	617
5	0	0	0	0	525	617
6	0	0	0	0	524	617
7	0	0	0	0	525	617
8	0	0	0	0	526	617
9	0	0	0	0	525	618
10	0	0	0	0	525	617
11	0	0	0	0	526	619
12	0	0	0	0	525	618
13	0	0	0	0	526	619
14	0	0	0	0	525	619
15	0	0	0	0	525	619
0	0	0	0	0	526	619
1	0	0	0	0	526	619
2	0	0	0	0	527	619
3	0	0	0	0	527	619
4	0	0	0	0	526	619
5	0	0	0	0	526	619
6	0	0	0	0	526	619
7	0	0	0	0	526	619
8	0	0	0	0	526	618
9	0	0	0	0	527	619
10	0	0	0	0	527	618
11	0	0	0	0	527	619
12	0	0	0	0	526	618
13	0	0	0	0	527	619
14	0	0	0	0	526	618
15	0	0	0	0	526	618
0	0	0	0	0	526	619
1	0	0	0	0	526	619
2	0	0	0	0	526	619
3	0	0	0	0	525	619
4	0	0	0	0	526	619
5	0	0	0	0	526	619
6	0	0	0	0	525	619
7	0	0	0	0	526	619
8	0	0	0	0	527	619
9	0	0	0	0	528	619
10	0	0	0	0	527	617
11	0	0	0	0	527	618
12	0	0	0	0	526	618
13	0	0	0	0	526	618
14	0	0	0	0	526	619
15	0	0	0	0	526	619
0	0	0	0	0	527	619
1	0	0	0	0	527	619
2	0	0	0	0	528	619
3	0	0	0	0	529	619
4	0	0	0	0	529	619
5	0	0	0	0	529	619
6	0	0	0	0	530	619
7	0	0	0	0	530	619
8	0	0	0	0	530	620
9	0	0	0	0	530	620
10	0	0	0	0	529	619
11	0	0	0	0	530	620
12	0	0	0	0	530	619
13	0	0	0	0	530	619
14	0	0	0	0	529	619
15	0	0	0	0	530	618
0	0	0	0	0	531	618
1	0	0	0	0	530	619
2	0	0	0	0	529	619
3	0	0	0	0	529	619
4	0	0	0	0	529	618
5	0	0	0	0	529	619
6	0	0	0	0	529	619
7	0	0	0	0	529	619
8	0	0	0	0	529	619
9	0	0	0	0	529	619
10	0	0	0	0	529	618
11	0	0	0	0	528	619
12	0	0	0	0	529	619
13	0	0	0	0	529	619
14	0	0	0	0	529	619
15	0	0	0	0	529	618
0	0	0	0	0	529	618
1	0	0	0	0	529	619
2	0	0	0	0	529	618
3	0	0	0	0	529	619
4	0	0	0	0	529	619
5	0	0	0	0	528	618
6	0	0	0	0	526	619
7	0	0	0	0	525	619
8	0	0	0	0	524	619
9	0	0	0	0	523	619
10	0	0	0	0	524	618
11	0	0	0	0	524	619
12	0	0	0	0	523	619
13	0	0	0	0	523	619
14	0	0	0	0	523	619
15	0	0	0	0	523	618
0	0	0	0	0	523	618
1	0	0	0	0	523	618
2	0	0	0	0	523	618
3	0	0	0	0	523	618
4	0	0	0	0	523	619
5	0	0	0	0	523	619
6	0	0	0	0	522	618
7	0	0	0	0	522	617
8	0	0	0	0	522	618
9	0	0	0	0	523	618
10	0	0	0	0	522	617
11	0	0	0	0	521	617
12	0	0	0	0	521	617
13	0	0	0	0	520	617
14	0	0	0	0	520	617
15	0	0	0	0	520	617
0	0	0	0	0	519	617
1	0	0	0	0	519	617
2	0	0	0	0	519	616
3	0	0	0	0	518	616
4	0	0	0	0	518	617
5	0	0	0	0	517	617
6	0	0	0	0	516	617
7	0	0	0	0	517	617
8	0	0	0	0	516	618
9	0	0	0	0	515	619
10	0	0	0	0	515	618
11	0	0	0	0	515	618
12	0	0	0	0	514	619
13	0	0	0	0	515	618
14	0	0	0	0	514	618
15	0	0	0	0	513	619
0	0	0	0	0	513	619
1	0	0	0	0	512	619
2	0	0	0	0	512	620
3	0	0	0	0	512	619
4	0	0	0	0	511	619
5	0	0	0	0	511	620
6	0	0	0	0	511	620
7	0	0	0	0	511	619
8	0	0	0	0	511	619
9	0	0	0	0	511	619
10	0	0	0	0	511	619
11	0	0	0	0	511	619
12	0	0	0	0	512	619
13	0	0	0	0	512	619
14	0	0	0	0	512	619
15	0	0	0	0	513	618
0	0	0	0	0	514	618
1	0	0	0	0	515	618
2	0	0	0	0	515	618
3	0	0	0	0	516	617
4	0	0	0	0	516	618
5	0	0	0	0	516	618
6	0	0	0	0	517	617
7	0	0	0	0	518	618
8	0	0	0	0	519	618
9	0	0	0	0	519	618
10	0	0	0	0	519	618
11	0	0	0	0	519	617
12	0	0	0	0	519	618
13	0	0	0	0	520	619
14	0	0	0	0	521	618
15	0	0	0	0	522	619
0	0	0	0	0	522	619
1	0	0	0	0	522	619
2	0	0	0	0	521	619
3	0	0	0	0	522	619
4	0	0	0	0	523	620
5	0	0	0	0	524	619
6	0	0	0	0	524	619
7	0	0	0	0	524	619
8	0	0	0	0	524	620
9	0	0	0	0	525	620
10	0	0	0	0	525	620
11	0	0	0	0	525	620
12	0	0	0	0	525	620
13	0	0	0	0	525	620
14	0	0	0	0	526	620
15	0	0	0	0	526	620
0	0	0	0	0	525	620
1	0	0	0	0	526	620
2	0	0	0	0	525	620
3	0	0	0	0	524	619
4	0	0	0	0	524	619
5	0	0	0	0	525	619
6	0	0	0	0	524	619
7	0	0	0	0	523	619
8	0	0	0	0	523	618
9	0	0	0	0	524	618
10	0	0	0	0	523	618
11	0	0	0	0	523	618
12	0	0	0	0	523	618
13	0	0	0	0	523	617
14	0	0	0	0	524	617
15	0	0	0	0	524	617
0	0	0	0	0	524	617
1	0	0	0	0	525	618
2	0	0	0	0	525	617
3	0	0	0	0	525	617
4	0	0	0	0	525	617
5	0	0	0	0	524	617
6	0	0	0	0	524	617
7	0	0	0	0	524	618
8	0	0	0	0	524	618
9	0	0	0	0	523	618
10	0	0	0	0	523	618
11	0	0	0	0	522	617
12	0	0	0	0	521	618
13	0	0	0	0	521	618
14	0	0	0	0	521	618
15	0	0	0	0	520	618
0	0	0	0	0	519	618
1	0	0	0	0	519	619
2	0	0	0	0	519	619
3	0	0	0	0	519	619
4	0	0	0	0	519	619
5	0	0	0	0	519	619
6	0	0	0	0	520	619
7	0	0	0	0	519	620
8	0	0	0	0	519	619
9	0	0	0	0	518	620
10	0	0	0	0	518	619
11	0	0	0	0	517	619
12	0	0	0	0	517	619
13	0	0	0	0	517	618
14	0	0	0	0	517	619
15	0	0	0	0	517	619
0	0	0	0	0	517	618
1	0	0	0	0	517	619
2	0	0	0	0	517	618
3	0	0	0	0	516	618
4	0	0	0	0	517	618
5	0	0	0	0	518	617
6	0	0	0	0	517	618
7	0	0	0	0	518	618
8	0	0	0	0	518	618
9	0	0	0	0	518	619
10	0	0	0	0	518	618
11	0	0	0	0	518	618
12	0	0	0	0	518	618
13	0	0	0	0	519	618
14	0	0	0	0	519	619
15	0	0	0	0	519	618
0	0	0	0	0	519	618
1	0	0	0	0	519	618
2	0	0	0	0	519	618
3	0	0	0	0	519	619
4	0	0	0	0	519	619
5	0	0	0	0	518	619
6	0	0	0	0	518	619
7	0	0	0	0	518	619
8	0	0	0	0	518	620
9	0	0	0	0	518	620
10	0	0	0	0	518	619
11	0	0	0	0	518	620
12	0	0	0	0	518	620
13	0	0	0	0	518	619
14	0	0	0	0	518	619
15	0	0	0	0	518	620
0	0	0	0	0	518	620
1	0	0	0	0	518	620
2	0	0	0	0	518	619
3	0	0	0	0	518	619
4	0	0	0	0	517	619
5	0	0	0	0	517	619
6	0	0	0	0	517	618
7	0	0	0	0	517	619
8	0	0	0	0	517	618
9	0	0	0	0	517	619
10	0	0	0	0	517	619
11	0	0	0	0	517	618
12	0	0	0	0	517	619
13	0	0	0	0	517	619
14	0	0	0	0	516	618
15	0	0	0	0	516	618
0	0	0	0	0	516	619
1	0	0	0	0	515	619
2	0	0	0	0	515	619
3	0	0	0	0	514	619
4	0	0	0	0	513	619
5	0	0	0	0	512	618
6	0	0	0	0	510	619
7	0	0	0	0	508	619
8	0	0	0	0	505	619
9	0	0	0	0	501	619
10	0	0	0	0	495	618
11	0	0	0	0	487	617
12	0	0	0	0	480	617
13	0	0	0	0	472	617
14	0	0	0	0	463	617
15	0	0	0	0	453	617
0	0	0	0	0	444	616
1	0	0	0	0	436	617
2	0	0	0	0	426	617
3	0	0	0	0	415	617
4	0	0	0	0	408	617
5	0	0	0	0	406	618
6	0	0	0	0	405	617
7	0	0	0	0	406	617
8	0	0	0	0	408	617
9	0	0	0	0	409	618
10	0	0	0	0	412	618
11	0	0	0	0	419	618
12	0	0	0	0	431	617
13	0	0	0	0	444	618
14	0	0	0	0	457	618
15	0	0	0	0	474	618
0	0	0	0	0	493	618
1	0	0	0	0	519	619
2	0	0	0	0	553	618
3	0	0	0	0	595	619
4	0	0	0	0	645	619
5	0	0	0	0	703	619
6	0	0	0	0	764	619
7	0	0	0	0	829	619
8	0	0	0	0	892	618
9	0	0	0	0	948	619
10	0	0	0	0	994	619
11	0	0	0	0	1021	618
12	0	0	0	0	1022	619
13	0	0	0	0	1022	619
14	0	0	0	0	1022	619
15	0	0	0	0	1022	619
0	0	0	0	0	1022	619
1	0	0	0	0	1005	619
2	0	0	0	0	963	619
3	0	0	0	0	917	620
4	0	0	0	0	874	620
5	0	0	0	0	833	620
6	0	0	0	0	800	619
7	0	0	0	0	774	619
8	0	0	0	0	753	620
9	0	0	0	0	738	620
10	0	0	0	0	726	619
11	0	0	0	0	718	619
12	0	0	0	0	710	619
13	0	0	0	0	704	619
14	0	0	0	0	698	619
15	0	0	0	0	688	619
0	0	0	0	0	677	619
1	0	0	0	0	664	619
2	0	0	0	0	649	619
3	0	0	0	0	633	618
4	0	0	0	0	617	618
5	0	0	0	0	601	619
6	0	0	0	0	587	618
7	0	0	0	0	572	618
8	0	0	0	0	559	618
9	0	0	0	0	546	619
10	0	0	0	0	534	618
11	0	0	0	0	521	618
12	0	0	0	0	508	617
13	0	0	0	0	495	618
14	0	0	0	0	481	618
15	0	0	0	0	469	617
0	0	0	0	0	457	617
1	0	0	0	0	447	618
2	0	0	0	0	438	617
3	0	0	0	0	431	618
4	0	0	0	0	424	618
5	0	0	0	0	418	618
6	0	0	0	0	413	618
7	0	0	0	0	408	618
8	0	0	0	0	402	617
9	0	0	0	0	399	618
10	0	0	0	0	395	618
11	0	0	0	0	392	618
12	0	0	0	0	390	619
13	0	0	0	0	388	618
14	0	0	0	0	386	618
15	0	0	0	0	385	619
0	0	0	0	0	384	619
1	0	0	0	0	384	620
2	0	0	0	0	383	619
3	0	0	0	0	383	619
4	0	0	0	0	383	619
5	0	0	0	0	383	619
6	0	0	0	0	382	619
7	0	0	0	0	383	619
8	0	0	0	0	382	619
9	0	0	0	0	382	620
10	0	0	0	0	383	620
11	0	0	0	0	384	619
12	0	0	0	0	384	619
13	0	0	0	0	385	620
14	0	0	0	0	386	619
15	0	0	0	0	387	619
0	0	0	0	0	388	619
1	0	0	0	0	388	619
2	0	0	0	0	390	618
3	0	0	0	0	391	619
4	0	0	0	0	391	618
5	0	0	0	0	393	619
6	0	0	0	0	395	618
7	0	0	0	0	396	618
8	0	0	0	0	397	617
9	0	0	0	0	398	618
10	0	0	0	0	398	617
11	0	0	0	0	398	617
12	0	0	0	0	398	616
13	0	0	0	0	399	617
14	0	0	0	0	400	617
15	0	0	0	0	401	616
0	0	0	0	0	402	617
1	0	0	0	0	403	617
2	0	0	0	0	403	617
3	0	0	0	0	404	617
4	0	0	0	0	404	616
5	0	0	0	0	406	616
6	0	0	0	0	406	617
7	0	0	0	0	406	617
8	0	0	0	0	407	617
9	0	0	0	0	408	618
10	0	0	0	0	409	617
11	0	0	0	0	410	618
12	0	0	0	0	411	617
13	0	0	0	0	412	617
14	0	0	0	0	412	618
15	0	0	0	0	412	619
0	0	0	0	0	414	618
1	0	0	0	0	414	619
2	0	0	0	0	415	619
3	0	0	0	0	416	619
4	0	0	0	0	417	620
5	0	0	0	0	419	619
6	0	0	0	0	419	619
7	0	0	0	0	419	619
8	0	0	0	0	421	619
9	0	0	0	0	422	620
10	0	0	0	0	423	619
11	0	0	0	0	424	619
12	0	0	0	0	425	619
13	0	0	0	0	424	619
14	0	0	0	0	425	619
15	0	0	0	0	425	619
0	0	0	0	0	426	619
1	0	0	0	0	428	620
2	0	0	0	0	429	619
3	0	0	0	0	430	619
4	0	0	0	0	431	620
5	0	0	0	0	432	620
6	0	0	0	0	432	619
7	0	0	0	0	433	619
8	0	0	0	0	433	620
9	0	0	0	0	434	620
10	0	0	0	0	435	619
11	0	0	0	0	436	620
12	0	0	0	0	437	619
13	0	0	0	0	438	619
14	0	0	0	0	439	619
15	0	0	0	0	440	619
0	0	0	0	0	441	619
1	0	0	0	0	441	619
2	0	0	0	0	443	619
3	0	0	0	0	444	619
4	0	0	0	0	444	619
5	0	0	0	0	446	619
6	0	0	0	0	447	619
7	0	0	0	0	448	619
8	0	0	0	0	448	619
9	0	0	0	0	448	619
10	0	0	0	0	449	619
11	0	0	0	0	450	619
12	0	0	0	0	451	619
13	0	0	0	0	452	619
14	0	0	0	0	452	618
15	0	0	0	0	454	618
0	0	0	0	0	454	618
1	0	0	0	0	455	618
2	0	0	0	0	455	618
3	0	0	0	0	456	618
4	0	0	0	0	457	619
5	0	0	0	0	458	618
6	0	0	0	0	460	618
7	0	0	0	0	460	618
8	0	0	0	0	460	619
9	0	0	0	0	462	619
10	0	0	0	0	463	618
11	0	0	0	0	464	618
12	0	0	0	0	464	618
13	0	0	0	0	464	618
14	0	0	0	0	465	618
15	0	0	0	0	465	618
0	0	0	0	0	465	618
1	0	0	0	0	466	619
2	0	0	0	0	467	618
3	0	0	0	0	467	618
4	0	0	0	0	468	619
5	0	0	0	0	469	619
6	0	0	0	0	470	619
7	0	0	0	0	471	620
8	0	0	0	0	472	619
9	0	0	0	0	472	619
10	0	0	0	0	473	619
11	0	0	0	0	474	620
12	0	0	0	0	476	619
13	0	0	0	0	476	619
14	0	0	0	0	476	619
15	0	0	0	0	478	620
0	0	0	0	0	478	620
1	0	0	0	0	478	619
2	0	0	0	0	479	619
3	0	0	0	0	480	619
4	0	0	0	0	480	619
5	0	0	0	0	481	619
6	0	0	0	0	481	619
7	0	0	0	0	481	619
8	0	0	0	0	481	619
9	0	0	0	0	481	619
10	0	0	0	0	481	619
11	0	0	0	0	481	619
12	0	0	0	0	482	618
13	0	0	0	0	483	617
14	0	0	0	0	483	617
15	0	0	0	0	484	618
0	0	0	0	0	485	617
1	0	0	0	0	485	618
2	0	0	0	0	486	617
3	0	0	0	0	486	617
4	0	0	0	0	487	617
5	0	0	0	0	486	617
6	0	0	0	0	487	618
7	0	0	0	0	486	617
8	0	0	0	0	487	618
9	0	0	0	0	487	618
10	0	0	0	0	487	617
11	0	0	0	0	488	617
12	0	0	0	0	488	617
13	0	0	0	0	489	617
14	0	0	0	0	490	618
15	0	0	0	0	490	617
0	0	0	0	0	491	617
1	0	0	0	0	491	617
2	0	0	0	0	492	617
3	0	0	0	0	492	617
4	0	0	0	0	493	617
5	0	0	0	0	493	618
6	0	0	0	0	494	618
7	0	0	0	0	495	617
8	0	0	0	0	496	618
9	0	0	0	0	496	618
10	0	0	0	0	497	617
11	0	0	0	0	497	617
12	0	0	0	0	498	618
13	0	0	0	0	499	618
14	0	0	0	0	499	618
15	0	0	0	0	499	618
0	0	0	0	0	500	618
1	0	0	0	0	501	619
2	0	0	0	0	502	618
3	0	0	0	0	502	618
4	0	0	0	0	503	619
5	0	0	0	0	503	618
6	0	0	0	0	505	619
7	0	0	0	0	505	619
8	0	0	0	0	505	619
9	0	0	0	0	506	620
10	0	0	0	0	508	619
11	0	0	0	0	509	619
12	0	0	0	0	509	619
13	0	0	0	0	510	619
14	0	0	0	0	512	619
15	0	0	0	0	512	620
0	0	0	0	0	512	619
1	0	0	0	0	512	620
2	0	0	0	0	513	620
3	0	0	0	0	514	620
4	0	0	0	0	515	619
5	0	0	0	0	516	620
6	0	0	0	0	517	619
7	0	0	0	0	518	619
8	0	0	0	0	519	620
9	0	0	0	0	519	620
10	0	0	0	0	519	619
11	0	0	0	0	519	619
12	0	0	0	0	519	619
13	0	0	0	0	520	619
14	0	0	0	0	521	620
15	0	0	0	0	523	619
0	0	0	0	0	524	619
1	0	0	0	0	524	619
2	0	0	0	0	525	619
3	0	0	0	0	526	619
4	0	0	0	0	526	618
5	0	0	0	0	526	618
6	0	0	0	0	527	618
7	0	0	0	0	527	618
8	0	0	0	0	527	617
9	0	0	0	0	527	618
10	0	0	0	0	527	618
11	0	0	0	0	527	617
12	0	0	0	0	528	618
13	0	0	0	0	528	617
14	0	0	0	0	528	618
15	0	0	0	0	529	618
0	0	0	0	0	529	618
1	0	0	0	0	528	618
2	0	0	0	0	528	618
3	0	0	0	0	528	618
4	0	0	0	0	527	618
5	0	0	0	0	528	619
6	0	0	0	0	528	619
7	0	0	0	0	528	619
8	0	0	0	0	528	619
9	0	0	0	0	528	619
10	0	0	0	0	528	619
11	0	0	0	0	528	619
12	0	0	0	0	529	619
13	0	0	0	0	529	619
14	0	0	0	0	529	619
15	0	0	0	0	530	619
0	0	0	0	0	529	619
1	0	0	0	0	529	619
2	0	0	0	0	528	618
3	0	0	0	0	528	619
4	0	0	0	0	528	619
5	0	0	0	0	528	619
6	0	0	0	0	528	620
7	0	0	0	0	528	619
8	0	0	0	0	527	618
9	0	0	0	0	527	619
10	0	0	0	0	526	619
11	0	0	0	0	526	619
12	0	0	0	0	526	619
13	0	0	0	0	526	619
14	0	0	0	0	526	619
15	0	0	0	0	526	617
0	0	0	0	0	526	618
1	0	0	0	0	525	619
2	0	0	0	0	525	618
3	0	0	0	0	524	619
4	0	0	0	0	524	619
5	0	0	0	0	523	617
6	0	0	0	0	523	618
7	0	0	0	0	522	617
8	0	0	0	0	523	618
9	0	0	0	0	522	618
10	0	0	0	0	522	617
11	0	0	0	0	522	618
12	0	0	0	0	522	618
13	0	0	0	0	521	617
14	0	0	0	0	521	617
15	0	0	0	0	521	618
0	0	0	0	0	521	618
1	0	0	0	0	522	618
2	0	0	0	0	521	617
3	0	0	0	0	521	617
4	0	0	0	0	520	617
5	0	0	0	0	520	617
6	0	0	0	0	520	618
7	0	0	0	0	519	617
8	0	0	0	0	519	617
9	0	0	0	0	519	619
10	0	0	0	0	519	619
11	0	0	0	0	519	619
12	0	0	0	0	518	619
13	0	0	0	0	518	618
14	0	0	0	0	518	620
15	0	0	0	0	518	620
0	0	0	0	0	518	620
1	0	0	0	0	517	620
2	0	0	0	0	517	620
3	0	0	0	0	517	620
4	0	0	0	0	517	619
5	0	0	0	0	518	620
6	0	0	0	0	517	619
7	0	0	0	0	518	619
8	0	0	0	0	517	619
9	0	0	0	0	517	620
10	0	0	0	0	518	619
11	0	0	0	0	518	618
12	0	0	0	0	519	619
13	0	0	0	0	518	619
14	0	0	0	0	519	619
15	0	0	0	0	519	619
0	0	0	0	0	519	619
1	0	0	0	0	519	618
2	0	0	0	0	519	617
3	0	0	0	0	519	617
4	0	0	0	0	519	617
5	0	0	0	0	520	617
6	0	0	0	0	519	617
7	0	0	0	0	520	617
8	0	0	0	0	520	617
9	0	0	0	0	520	618
10	0	0	0	0	520	618
11	0	0	0	0	521	618
12	0	0	0	0	522	618
13	0	0	0	0	523	619
14	0	0	0	0	523	618
15	0	0	0	0	524	618
0	0	0	0	0	524	619
1	0	0	0	0	524	619
2	0	0	0	0	526	619
3	0	0	0	0	526	619
4	0	0	0	0	527	618
5	0	0	0	0	527	619
6	0	0	0	0	526	619
7	0	0	0	0	527	618
8	0	0	0	0	527	618
9	0	0	0	0	526	618
10	0	0	0	0	527	619
11	0	0	0	0	526	619
12	0	0	0	0	526	618
13	0	0	0	0	526	619
14	0	0	0	0	525	618
15	0	0	0	0	525	619
0	0	0	0	0	525	619
1	0	0	0	0	525	619
2	0	0	0	0	525	619
3	0	0	0	0	525	619
4	0	0	0	0	525	619
5	0	0	0	0	526	618
6	0	0	0	0	526	619
7	0	0	0	0	527	618
8	0	0	0	0	527	619
9	0	0	0	0	528	620
10	0	0	0	0	528	619
11	0	0	0	0	528	619
12	0	0	0	0	529	619
13	0	0	0	0	529	619
14	0	0	0	0	529	619
15	0	0	0	0	528	619
0	0	0	0	0	528	619
1	0	0	0	0	528	620
2	0	0	0	0	529	618
3	0	0	0	0	529	619
4	0	0	0	0	529	619
5	0	0	0	0	529	619
6	0	0	0	0	529	618
7	0	0	0	0	530	618
8	0	0	0	0	531	618
9	0	0	0	0	531	619
10	0	0	0	0	531	618
11	0	0	0	0	531	619
12	0	0	0	0	532	618
13	0	0	0	0	532	617
14	0	0	0	0	532	617
15	0	0	0	0	532	618
0	0	0	0	0	532	618
1	0	0	0	0	532	618
2	0	0	0	0	532	618
3	0	0	0	0	532	618
4	0	0	0	0	532	618
5	0	0	0	0	533	618
6	0	0	0	0	533	617
7	0	0	0	0	533	617
8	0	0	0	0	533	618
9	0	0	0	0	533	617
10	0	0	0	0	533	618
11	0	0	0	0	532	617
12	0	0	0	0	532	618
13	0	0	0	0	532	618
14	0	0	0	0	532	618
15	0	0	0	0	531	618
0	0	0	0	0	531	619
1	0	0	0	0	531	619
2	0	0	0	0	531	619
3	0	0	0	0	531	618
4	0	0	0	0	531	619
5	0	0	0	0	531	618
6	0	0	0	0	530	619
7	0	0	0	0	529	619
8	0	0	0	0	530	619
9	0	0	0	0	529	619
10	0	0	0	0	529	618
11	0	0	0	0	528	619
12	0	0	0	0	528	619
13	0	0	0	0	527	619
14	0	0	0	0	527	619
15	0	0	0	0	527	618
0	0	0	0	0	527	619
1	0	0	0	0	527	619
2	0	0	0	0	527	618
3	0	0	0	0	527	619
4	0	0	0	0	526	618
5	0	0	0	0	526	619
6	0	0	0	0	526	620
7	0	0	0	0	525	620
8	0	0	0	0	525	620
9	0	0	0	0	524	620
10	0	0	0	0	524	620
11	0	0	0	0	524	619
12	0	0	0	0	524	619
13	0	0	0	0	525	619
14	0	0	0	0	524	619
15	0	0	0	0	524	620
0	0	0	0	0	524	619
1	0	0	0	0	524	620
2	0	0	0	0	524	620
3	0	0	0	0	524	620
4	0	0	0	0	523	619
5	0	0	0	0	523	619
6	0	0	0	0	521	619
7	0	0	0	0	519	619
8	0	0	0	0	518	619
9	0	0	0	0	516	619
10	0	0	0	0	515	619
11	0	0	0	0	514	618
12	0	0	0	0	513	619
13	0	0	0	0	513	619
14	0	0	0	0	512	619
15	0	0	0	0	513	619
0	0	0	0	0	513	619
1	0	0	0	0	512	618
2	0	0	0	0	512	618
3	0	0	0	0	513	618
4	0	0	0	0	513	618
5	0	0	0	0	512	617
6	0	0	0	0	512	617
7	0	0	0	0	512	617
8	0	0	0	0	512	618
9	0	0	0	0	512	619
10	0	0	0	0	513	618
11	0	0	0	0	512	618
12	0	0	0	0	512	618
13	0	0	0	0	512	618
14	0	0	0	0	512	618
15	0	0	0	0	512	618
0	0	0	0	0	512	618
1	0	0	0	0	512	618
2	0	0	0	0	513	618
3	0	0	0	0	513	617
4	0	0	0	0	514	618
5	0	0	0	0	515	618
6	0	0	0	0	516	618
7	0	0	0	0	517	618
8	0	0	0	0	517	617
9	0	0	0	0	518	618
10	0	0	0	0	519	617
11	0	0	0	0	519	617
12	0	0	0	0	520	617
13	0	0	0	0	522	617
14	0	0	0	0	522	618
15	0	0	0	0	523	617
0	0	0	0	0	523	617
1	0	0	0	0	523	617
2	0	0	0	0	524	617
3	0	0	0	0	526	618
4	0	0	0	0	526	618
5	0	0	0	0	527	618
6	0	0	0	0	528	619
7	0	0	0	0	528	618
8	0	0	0	0	528	618
9	0	0	0	0	528	619
10	0	0	0	0	528	618
11	0	0	0	0	527	618
12	0	0	0	0	527	618
13	0	0	0	0	526	618
14	0	0	0	0	526	619
15	0	0	0	0	526	619
0	0	0	0	0	526	618
1	0	0	0	0	526	619
2	0	0	0	0	526	619
3	0	0	0	0	526	619
4	0	0	0	0	526	619
5	0	0	0	0	526	619
6	0	0	0	0	525	619
7	0	0	0	0	524	618
8	0	0	0	0	524	618
9	0	0	0	0	523	619
10	0	0	0	0	522	619
11	0	0	0	0	521	618
12	0	0	0	0	521	618
13	0	0	0	0	521	618
14	0	0	0	0	521	618
15	0	0	0	0	521	618
0	0	0	0	0	522	617
1	0	0	0	0	522	618
2	0	0	0	0	523	617
3	0	0	0	0	524	617
4	0	0	0	0	524	618
5	0	0	0	0	525	618
6	0	0	0	0	525	617
7	0	0	0	0	524	618
8	0	0	0	0	524	618
9	0	0	0	0	524	618
10	0	0	0	0	524	618
11	0	0	0	0	523	618
12	0	0	0	0	523	618
13	0	0	0	0	522	619
14	0	0	0	0	521	618
15	0	0	0	0	520	618
0	0	0	0	0	519	618
1	0	0	0	0	519	619
2	0	0	0	0	519	619
3	0	0	0	0	518	618
4	0	0	0	0	518	618
5	0	0	0	0	518	618
6	0	0	0	0	519	618
7	0	0	0	0	519	618
8	0	0	0	0	518	619
9	0	0	0	0	518	619
10	0	0	0	0	518	619
11	0	0	0	0	518	619
12	0	0	0	0	517	619
13	0	0	0	0	517	619
14	0	0	0	0	517	619
15	0	0	0	0	518	619
0	0	0	0	0	518	619
1	0	0	0	0	518	619
2	0	0	0	0	518	618
3	0	0	0	0	518	619
4	0	0	0	0	517	619
5	0	0	0	0	517	619
6	0	0	0	0	516	619
7	0	0	0	0	516	619
8	0	0	0	0	515	618
9	0	0	0	0	516	620
10	0	0	0	0	516	619
11	0	0	0	0	515	619
12	0	0	0	0	515	619
13	0	0	0	0	515	618
14	0	0	0	0	515	618
15	0	0	0	0	515	619
0	0	0	0	0	514	618
1	0	0	0	0	515	619
2	0	0	0	0	515	619
3	0	0	0	0	515	619
4	0	0	0	0	515	619
5	0	0	0	0	515	619
6	0	0	0	0	514	619
7	0	0	0	0	514	619
8	0	0	0	0	514	619
9	0	0	0	0	514	619
10	0	0	0	0	515	619
11	0	0	0	0	514	619
12	0	0	0	0	513	619
13	0	0	0	0	514	619
14	0	0	0	0	514	619
15	0	0	0	0	514	619
0	0	0	0	0	514	619
1	0	0	0	0	514	619
2	0	0	0	0	514	619
3	0	0	0	0	513	618
4	0	0	0	0	514	619
5	0	0	0	0	513	618
6	0	0	0	0	514	618
7	0	0	0	0	514	619
8	0	0	0	0	514	619
9	0	0	0	0	513	619
10	0	0	0	0	514	619
11	0	0	0	0	514	619
12	0	0	0	0	513	618
13	0	0	0	0	514	619
14	0	0	0	0	513	619
15	0	0	0	0	512	618
0	0	0	0	0	512	618
1	0	0	0	0	511	618
2	0	0	0	0	511	619
3	0	0	0	0	512	619
4	0	0	0	0	512	619
5	0	0	0	0	511	619
6	0	0	0	0	511	618
7	0	0	0	0	510	619
8	0	0	0	0	509	619
9	0	0	0	0	507	619
10	0	0	0	0	504	619
11	0	0	0	0	500	619
12	0	0	0	0	495	618
13	0	0	0	0	487	619
14	0	0	0	0	479	619
15	0	0	0	0	470	619
0	0	0	0	0	461	619
1	0	0	0	0	452	619
2	0	0	0	0	442	619
3	0	0	0	0	433	619
4	0	0	0	0	422	618
5	0	0	0	0	411	618
6	0	0	0	0	402	618
7	0	0	0	0	397	617
8	0	0	0	0	395	618
9	0	0	0	0	394	618
10	0	0	0	0	392	618
11	0	0	0	0	390	617
12	0	0	0	0	390	617
13	0	0	0	0	396	618
14	0	0	0	0	408	617
15	0	0	0	0	422	617
0	0	0	0	0	436	618
1	0	0	0	0	455	618
2	0	0	0	0	477	617
3	0	0	0	0	507	618
4	0	0	0	0	547	618
5	0	0	0	0	592	617
6	0	0	0	0	646	618
7	0	0	0	0	707	619
8	0	0	0	0	774	618
9	0	0	0	0	845	618
10	0	0	0	0	913	617
11	0	0	0	0	974	618
12	0	0	0	0	1020	619
13	0	0	0	0	1022	618
14	0	0	0	0	1022	618
15	0	0	0	0	1022	618
0	0	0	0	0	1022	618
1	0	0	0	0	1022	618
2	0	0	0	0	1022	618
3	0	0	0	0	1022	618
4	0	0	0	0	1022	618
5	0	0	0	0	996	618
6	0	0	0	0	949	617
7	0	0	0	0	902	617
8	0	0	0	0	859	617
9	0	0	0	0	824	618
10	0	0	0	0	795	618
11	0	0	0	0	771	617
12	0	0	0	0	752	617
13	0	0	0	0	737	617
14	0	0	0	0	724	618
15	0	0	0	0	713	617
0	0	0	0	0	704	618
1	0	0	0	0	692	618
2	0	0	0	0	679	617
3	0	0	0	0	663	618
4	0	0	0	0	647	618
5	0	0	0	0	632	618
6	0	0	0	0	616	619
7	0	0	0	0	600	618
8	0	0	0	0	584	618
9	0	0	0	0	569	619
10	0	0	0	0	555	619
11	0	0	0	0	541	619
12	0	0	0	0	527	619
13	0	0	0	0	513	619
14	0	0	0	0	498	620
15	0	0	0	0	483	620
0	0	0	0	0	468	620
1	0	0	0	0	456	621
2	0	0	0	0	444	620
3	0	0	0	0	435	620
4	0	0	0	0	425	620
5	0	0	0	0	418	620
6	0	0	0	0	411	620
7	0	0	0	0	404	620
8	0	0	0	0	398	620
9	0	0	0	0	393	620
10	0	0	0	0	388	620
11	0	0	0	0	384	619
12	0	0	0	0	381	620
13	0	0	0	0	377	619
14	0	0	0	0	375	619
15	0	0	0	0	373	619
0	0	0	0	0	372	619
1	0	0	0	0	371	619
2	0	0	0	0	371	618
3	0	0	0	0	371	618
4	0	0	0	0	370	618
5	0	0	0	0	371	618
6	0	0	0	0	371	618
7	0	0	0	0	371	618
8	0	0	0	0	371	618
9	0	0	0	0	372	619
10	0	0	0	0	373	618
11	0	0	0	0	373	618
12	0	0	0	0	374	618
13	0	0	0	0	375	618
14	0	0	0	0	376	619
15	0	0	0	0	377	618
0	0	0	0	0	379	618
1	0	0	0	0	380	618
2	0	0	0	0	381	617
3	0	0	0	0	381	619
4	0	0	0	0	382	618
5	0	0	0	0	383	618
6	0	0	0	0	383	619
7	0	0	0	0	383	618
8	0	0	0	0	384	618
9	0	0	0	0	384	618
10	0	0	0	0	385	617
11	0	0	0	0	386	617
12	0	0	0	0	388	618
13	0	0	0	0	389	618
14	0	0	0	0	390	618
15	0	0	0	0	391	618
0	0	0	0	0	391	617
1	0	0	0	0	392	618
2	0	0	0	0	393	619
3	0	0	0	0	393	618
4	0	0	0	0	395	617
5	0	0	0	0	395	618
6	0	0	0	0	396	617
7	0	0	0	0	396	618
8	0	0	0	0	397	618
9	0	0	0	0	398	619
10	0	0	0	0	399	618
11	0	0	0	0	400	619
12	0	0	0	0	401	618
13	0	0	0	0	401	618
14	0	0	0	0	402	619
15	0	0	0	0	402	619
0	0	0	0	0	403	619
1	0	0	0	0	404	619
2	0	0	0	0	406	618
3	0	0	0	0	407	618
4	0	0	0	0	407	619
5	0	0	0	0	408	618
6	0	0	0	0	408	618
7	0	0	0	0	410	619
8	0	0	0	0	411	619
9	0	0	0	0	412	619
10	0	0	0	0	414	619
11	0	0	0	0	414	618
12	0	0	0	0	415	618
13	0	0	0	0	415	618
14	0	0	0	0	416	617
15	0	0	0	0	417	617
0	0	0	0	0	418	618
1	0	0	0	0	419	618
2	0	0	0	0	419	617
3	0	0	0	0	419	617
4	0	0	0	0	419	618
5	0	0	0	0	420	618
6	0	0	0	0	422	618
7	0	0	0	0	423	618
8	0	0	0	0	423	618
9	0	0	0	0	424	618
10	0	0	0	0	425	618
11	0	0	0	0	426	617
12	0	0	0	0	427	618
13	0	0	0	0	428	617
14	0	0	0	0	429	618
15	0	0	0	0	430	618
0	0	0	0	0	432	619
1	0	0	0	0	433	619
2	0	0	0	0	434	618
3	0	0	0	0	435	618
4	0	0	0	0	436	619
5	0	0	0	0	437	618
6	0	0	0	0	439	618
7	0	0	0	0	440	618
8	0	0	0	0	441	619
9	0	0	0	0	443	619
10	0	0	0	0	444	619
11	0	0	0	0	444	619
12	0	0	0	0	446	619
13	0	0	0	0	447	619
14	0	0	0	0	448	619
15	0	0	0	0	449	619
0	0	0	0	0	450	620
1	0	0	0	0	451	620
2	0	0	0	0	452	620
3	0	0	0	0	453	620
4	0	0	0	0	454	620
5	0	0	0	0	454	619
6	0	0	0	0	455	619
7	0	0	0	0	456	619
8	0	0	0	0	457	619
9	0	0	0	0	458	620
10	0	0	0	0	460	620
11	0	0	0	0	460	619
12	0	0	0	0	462	620
13	0	0	0	0	463	619
14	0	0	0	0	463	619
15	0	0	0	0	464	619
0	0	0	0	0	465	619
1	0	0	0	0	466	619
2	0	0	0	0	467	619
3	0	0	0	0	468	619
4	0	0	0	0	470	619
5	0	0	0	0	471	618
6	0	0	0	0	471	619
7	0	0	0	0	472	619
8	0	0	0	0	473	618
9	0	0	0	0	473	618
10	0	0	0	0	475	617
11	0	0	0	0	476	617
12	0	0	0	0	477	617
13	0	0	0	0	478	618
14	0	0	0	0	478	617
15	0	0	0	0	478	618
0	0	0	0	0	479	617
1	0	0	0	0	480	618
2	0	0	0	0	482	617
3	0	0	0	0	482	617
4	0	0	0	0	483	617
5	0	0	0	0	483	617
6	0	0	0	0	483	618
7	0	0	0	0	483	618
8	0	0	0	0	483	618
9	0	0	0	0	483	619
10	0	0	0	0	484	619
11	0	0	0	0	484	618
12	0	0	0	0	485	619
13	0	0	0	0	486	619
14	0	0	0	0	486	619
15	0	0	0	0	487	619
0	0	0	0	0	487	618
1	0	0	0	0	487	619
2	0	0	0	0	487	618
3	0	0	0	0	487	619
4	0	0	0	0	488	618
5	0	0	0	0	489	618
6	0	0	0	0	489	619
7	0	0	0	0	489	619
8	0	0	0	0	489	619
9	0	0	0	0	489	619
10	0	0	0	0	490	619
11	0	0	0	0	490	619
12	0	0	0	0	491	618
13	0	0	0	0	491	618
14	0	0	0	0	491	617
15	0	0	0	0	492	617
0	0	0	0	0	492	617
1	0	0	0	0	491	618
2	0	0	0	0	491	617
3	0	0	0	0	491	618
4	0	0	0	0	491	617
5	0	0	0	0	492	618
6	0	0	0	0	492	617
7	0	0	0	0	492	618
8	0	0	0	0	492	618
9	0	0	0	0	493	619
10	0	0	0	0	494	618
11	0	0	0	0	495	618
12	0	0	0	0	496	618
13	0	0	0	0	496	618
14	0	0	0	0	496	618
15	0	0	0	0	497	618
0	0	0	0	0	498	618
1	0	0	0	0	498	618
2	0	0	0	0	499	618
3	0	0	0	0	500	618
4	0	0	0	0	501	617
5	0	0	0	0	502	618
6	0	0	0	0	503	618
7	0	0	0	0	503	618
8	0	0	0	0	503	619
9	0	0	0	0	504	618
10	0	0	0	0	506	618
11	0	0	0	0	506	618
12	0	0	0	0	507	618
13	0	0	0	0	508	618
14	0	0	0	0	509	618
15	0	0	0	0	510	618
0	0	0	0	0	510	618
1	0	0	0	0	511	620
2	0	0	0	0	511	620
3	0	0	0	0	513	619
4	0	0	0	0	514	619
5	0	0	0	0	515	619
6	0	0	0	0	515	619
7	0	0	0	0	515	619
8	0	0	0	0	516	619
9	0	0	0	0	517	620
10	0	0	0	0	517	619
11	0	0	0	0	518	620
12	0	0	0	0	518	620
13	0	0	0	0	519	620
14	0	0	0	0	520	620
15	0	0	0	0	520	620
0	0	0	0	0	521	620
1	0	0	0	0	522	620
2	0	0	0	0	523	619
3	0	0	0	0	524	620
4	0	0	0	0	525	620
5	0	0	0	0	525	620
6	0	0	0	0	526	620
7	0	0	0	0	527	620
8	0	0	0	0	527	619
9	0	0	0	0	527	619
10	0	0	0	0	527	619
11	0	0	0	0	527	619
12	0	0	0	0	528	618
13	0	0	0	0	529	618
14	0	0	0	0	529	618
15	0	0	0	0	529	618
0	0	0	0	0	529	617
1	0	0	0	0	529	618
2	0	0	0	0	530	618
3	0	0	0	0	530	618
4	0	0	0	0	530	618
5	0	0	0	0	530	617
6	0	0	0	0	530	618
7	0	0	0	0	529	618
8	0	0	0	0	529	618
9	0	0	0	0	528	619
10	0	0	0	0	529	618
11	0	0	0	0	528	618
12	0	0	0	0	528	618
13	0	0	0	0	529	619
14	0	0	0	0	528	618
15	0	0	0	0	529	618
0	0	0	0	0	529	618
1	0	0	0	0	528	618
2	0	0	0	0	529	618
3	0	0	0	0	528	618
4	0	0	0	0	529	618
5	0	0	0	0	528	618
6	0	0	0	0	529	618
7	0	0	0	0	530	618
8	0	0	0	0	530	618
9	0	0	0	0	529	619
10	0	0	0	0	529	619
11	0	0	0	0	528	619
12	0	0	0	0	527	618
13	0	0	0	0	527	618
14	0	0	0	0	526	618
15	0	0	0	0	525	618
0	0	0	0	0	525	618
1	0	0	0	0	525	619
2	0	0	0	0	525	618
3	0	0	0	0	525	618
4	0	0	0	0	524	618
5	0	0	0	0	523	618
6	0	0	0	0	522	618
7	0	0	0	0	522	618
8	0	0	0	0	521	618
9	0	0	0	0	521	619
10	0	0	0	0	521	618
11	0	0	0	0	520	618
12	0	0	0	0	521	619
13	0	0	0	0	521	619
14	0	0	0	0	522	619
15	0	0	0	0	522	618
0	0	0	0	0	523	618
1	0	0	0	0	522	618
2	0	0	0	0	521	618
3	0	0	0	0	521	618
4	0	0	0	0	519	617
5	0	0	0	0	519	618
6	0	0	0	0	519	619
7	0	0	0	0	519	619
8	0	0	0	0	519	618
9	0	0	0	0	519	619
10	0	0	0	0	519	617
11	0	0	0	0	519	617
12	0	0	0	0	518	618
13	0	0	0	0	519	617
14	0	0	0	0	519	618
15	0	0	0	0	519	618
0	0	0	0	0	519	618
1	0	0	0	0	518	618
2	0	0	0	0	519	617
3	0	0	0	0	519	617
4	0	0	0	0	518	618
5	0	0	0	0	518	617
6	0	0	0	0	517	617
7	0	0	0	0	516	618
8	0	0	0	0	516	618
9	0	0	0	0	516	618
10	0	0	0	0	516	618
11	0	0	0	0	516	618
12	0	0	0	0	516	618
13	0	0	0	0	516	618
14	0	0	0	0	515	618
15	0	0	0	0	516	618
0	0	0	0	0	515	619
1	0	0	0	0	515	619
2	0	0	0	0	516	619
3	0	0	0	0	516	619
4	0	0	0	0	516	618
5	0	0	0	0	516	618
6	0	0	0	0	516	619
7	0	0	0	0	517	619
8	0	0	0	0	517	619
9	0	0	0	0	518	619
10	0	0	0	0	518	619
11	0	0	0	0	518	618
12	0	0	0	0	518	619
13	0	0	0	0	518	618
14	0	0	0	0	519	618
15	0	0	0	0	518	619
0	0	0	0	0	517	618
1	0	0	0	0	518	619
2	0	0	0	0	517	618
3	0	0	0	0	517	619
4	0	0	0	0	517	619
5	0	0	0	0	517	618
6	0	0	0	0	518	618
7	0	0	0	0	519	619
8	0	0	0	0	519	618
9	0	0	0	0	519	619
10	0	0	0	0	518	619
11	0	0	0	0	519	619
12	0	0	0	0	519	619
13	0	0	0	0	519	619
14	0	0	0	0	520	619
15	0	0	0	0	520	619
0	0	0	0	0	520	619
1	0	0	0	0	520	619
2	0	0	0	0	521	619
3	0	0	0	0	521	619
4	0	0	0	0	521	619
5	0	0	0	0	521	619
6	0	0	0	0	521	620
7	0	0	0	0	522	619
8	0	0	0	0	522	619
9	0	0	0	0	523	620
10	0	0	0	0	522	620
11	0	0	0	0	523	619
12	0	0	0	0	523	619
13	0	0	0	0	523	619
14	0	0	0	0	523	619
15	0	0	0	0	523	619
0	0	0	0	0	523	619
1	0	0	0	0	524	619
2	0	0	0	0	524	619
3	0	0	0	0	524	619
4	0	0	0	0	524	619
5	0	0	0	0	525	619
6	0	0	0	0	525	619
7	0	0	0	0	525	619
8	0	0	0	0	524	619
9	0	0	0	0	524	619
10	0	0	0	0	524	619
11	0	0	0	0	524	619
12	0	0	0	0	524	619
13	0	0	0	0	524	618
14	0	0	0	0	523	618
15	0	0	0	0	523	619
0	0	0	0	0	523	618
1	0	0	0	0	523	619
2	0	0	0	0	523	618
3	0	0	0	0	523	618
4	0	0	0	0	523	618
5	0	0	0	0	523	617
6	0	0	0	0	523	618
7	0	0	0	0	524	617
8	0	0	0	0	524	617
9	0	0	0	0	525	617
10	0	0	0	0	525	617
11	0	0	0	0	524	618
12	0	0	0	0	524	617
13	0	0	0	0	525	617
14	0	0	0	0	525	617
15	0	0	0	0	524	617
0	0	0	0	0	524	617
1	0	0	0	0	525	618
2	0	0	0	0	526	617
3	0	0	0	0	527	617
4	0	0	0	0	526	617
5	0	0	0	0	526	618
6	0	0	0	0	526	618
7	0	0	0	0	525	617
8	0	0	0	0	525	617
9	0	0	0	0	525	619
10	0	0	0	0	525	618
11	0	0	0	0	525	618
12	0	0	0	0	525	618
13	0	0	0	0	525	618
14	0	0	0	0	524	618
15	0	0	0	0	524	618
0	0	0	0	0	524	618
1	0	0	0	0	524	619
2	0	0	0	0	524	618
3	0	0	0	0	524	619
4	0	0	0	0	524	618
5	0	0	0	0	524	619
6	0	0	0	0	525	619
7	0	0	0	0	525	619
8	0	0	0	0	525	619
9	0	0	0	0	524	619
10	0	0	0	0	524	619
11	0	0	0	0	525	618
12	0	0	0	0	525	619
13	0	0	0	0	526	618
14	0	0	0	0	526	618
15	0	0	0	0	525	618
0	0	0	0	0	525	619
1	0	0	0	0	524	619
2	0	0	0	0	524	618
3	0	0	0	0	524	619
4	0	0	0	0	523	619
5	0	0	0	0	523	618
6	0	0	0	0	522	619
7	0	0	0	0	522	619
8	0	0	0	0	521	618
9	0	0	0	0	519	619
10	0	0	0	0	519	618
11	0	0	0	0	518	618
12	0	0	0	0	517	618
13	0	0	0	0	516	619
14	0	0	0	0	515	619
15	0	0	0	0	515	618
0	0	0	0	0	514	619
1	0	0	0	0	514	619
2	0	0	0	0	513	619
3	0	0	0	0	513	618
4	0	0	0	0	512	618
5	0	0	0	0	512	619
6	0	0	0	0	512	619
7	0	0	0	0	512	618
8	0	0	0	0	512	618
9	0	0	0	0	512	619
10	0	0	0	0	513	618
11	0	0	0	0	513	618
12	0	0	0	0	513	618
13	0	0	0	0	513	618
14	0	0	0	0	513	618
15	0	0	0	0	513	618
0	0	0	0	0	512	618
1	0	0	0	0	513	619
2	0	0	0	0	513	619
3	0	0	0	0	513	617
4	0	0	0	0	513	617
5	0	0	0	0	514	617
6	0	0	0	0	515	616
7	0	0	0	0	516	616
8	0	0	0	0	517	617
9	0	0	0	0	518	617
10	0	0	0	0	519	617
11	0	0	0	0	520	618
12	0	0	0	0	521	618
13	0	0	0	0	521	618
14	0	0	0	0	522	619
15	0	0	0	0	523	619
0	0	0	0	0	524	620
1	0	0	0	0	524	620
2	0	0	0	0	525	620
3	0	0	0	0	526	620
4	0	0	0	0	526	620
5	0	0	0	0	527	620
6	0	0	0	0	527	620
7	0	0	0	0	528	620
8	0	0	0	0	528	620
9	0	0	0	0	528	620
10	0	0	0	0	528	619
11	0	0	0	0	527	620
12	0	0	0	0	528	619
13	0	0	0	0	527	619
14	0	0	0	0	526	619
15	0	0	0	0	526	620
0	0	0	0	0	526	619
1	0	0	0	0	525	619
2	0	0	0	0	524	618
3	0	0	0	0	524	618
4	0	0	0	0	524	618
5	0	0	0	0	524	618
6	0	0	0	0	524	618
7	0	0	0	0	524	618
8	0	0	0	0	524	618
9	0	0	0	0	524	618
10	0	0	0	0	524	618
11	0	0	0	0	524	618
12	0	0	0	0	524	618
13	0	0	0	0	523	619
14	0	0	0	0	523	619
15	0	0	0	0	523	618
0	0	0	0	0	523	618
1	0	0	0	0	523	619
2	0	0	0	0	523	619
3	0	0	0	0	524	619
4	0	0	0	0	524	619
5	0	0	0	0	525	619
6	0	0	0	0	525	618
7	0	0	0	0	526	618
8	0	0	0	0	527	618
9	0	0	0	0	527	618
10	0	0	0	0	527	617
11	0	0	0	0	527	617
12	0	0	0	0	527	617
13	0	0	0	0	527	617
14	0	0	0	0	528	617
15	0	0	0	0	527	616
0	0	0	0	0	527	617
1	0	0	0	0	527	617
2	0	0	0	0	526	617
3	0	0	0	0	526	617
4	0	0	0	0	526	617
5	0	0	0	0	524	617
6	0	0	0	0	524	617
7	0	0	0	0	524	617
8	0	0	0	0	523	617
9	0	0	0	0	524	618
10	0	0	0	0	524	618
11	0	0	0	0	524	618
12	0	0	0	0	524	619
13	0	0	0	0	524	618
14	0	0	0	0	523	618
15	0	0	0	0	522	618
0	0	0	0	0	522	618
1	0	0	0	0	522	618
2	0	0	0	0	522	617
3	0	0	0	0	522	618
4	0	0	0	0	521	617
5	0	0	0	0	521	618
6	0	0	0	0	521	618
7	0	0	0	0	521	618
8	0	0	0	0	521	618
9	0	0	0	0	522	619
10	0	0	0	0	522	619
11	0	0	0	0	521	619
12	0	0	0	0	521	618
13	0	0	0	0	520	618
14	0	0	0	0	520	619
15	0	0	0	0	521	619
0	0	0	0	0	521	618
1	0	0	0	0	521	619
2	0	0	0	0	520	619
3	0	0	0	0	520	620
4	0	0	0	0	520	619
5	0	0	0	0	520	619
6	0	0	0	0	519	619
7	0	0	0	0	519	619
8	0	0	0	0	520	619
9	0	0	0	0	520	619
10	0	0	0	0	520	619
11	0	0	0	0	520	619
12	0	0	0	0	521	620
13	0	0	0	0	521	619
14	0	0	0	0	520	619
15	0	0	0	0	520	619
0	0	0	0	0	519	619
1	0	0	0	0	519	620
2	0	0	0	0	518	618
3	0	0	0	0	518	618
4	0	0	0	0	518	619
5	0	0	0	0	518	618
6	0	0	0	0	518	618
7	0	0	0	0	517	618
8	0	0	0	0	517	618
9	0	0	0	0	517	618
10	0	0	0	0	517	617
11	0	0	0	0	517	617
12	0	0	0	0	517	617
13	0	0	0	0	517	617
14	0	0	0	0	516	617
15	0	0	0	0	517	617
0	0	0	0	0	518	617
1	0	0	0	0	518	618
2	0	0	0	0	518	617
3	0	0	0	0	518	618
4	0	0	0	0	518	618
5	0	0	0	0	518	618
6	0	0	0	0	517	617
7	0	0	0	0	516	618
8	0	0	0	0	515	617
9	0	0	0	0	515	618
10	0	0	0	0	513	618
11	0	0	0	0	511	618
12	0	0	0	0	508	619
13	0	0	0	0	504	619
14	0	0	0	0	499	619
15	0	0	0	0	492	619
0	0	0	0	0	484	620
1	0	0	0	0	476	620
2	0	0	0	0	467	619
3	0	0	0	0	459	619
4	0	0	0	0	449	620
5	0	0	0	0	441	619
6	0	0	0	0	432	619
7	0	0	0	0	420	619
8	0	0	0	0	411	619
9	0	0	0	0	405	619
10	0	0	0	0	403	619
11	0	0	0	0	401	619
12	0	0	0	0	400	619
13	0	0	0	0	397	619
14	0	0	0	0	397	619
15	0	0	0	0	401	618
0	0	0	0	0	411	618
1	0	0	0	0	425	618
2	0	0	0	0	440	618
3	0	0	0	0	457	618
4	0	0	0	0	478	618
5	0	0	0	0	506	618
6	0	0	0	0	542	618
7	0	0	0	0	584	618
8	0	0	0	0	635	618
9	0	0	0	0	692	618
10	0	0	0	0	757	618
11	0	0	0	0	824	618
12	0	0	0	0	892	617
13	0	0	0	0	955	617
14	0	0	0	0	1007	617
15	0	0	0	0	1022	618
0	0	0	0	0	1022	617
1	0	0	0	0	1022	619
2	0	0	0	0	1022	618
3	0	0	0	0	1022	617
4	0	0	0	0	1022	619
5	0	0	0	0	1022	618
6	0	0	0	0	1022	618
7	0	0	0	0	1001	618
8	0	0	0	0	954	618
9	0	0	0	0	908	619
10	0	0	0	0	864	619
11	0	0	0	0	827	617
12	0	0	0	0	796	618
13	0	0	0	0	772	618
14	0	0	0	0	753	618
15	0	0	0	0	736	617
0	0	0	0	0	723	618
1	0	0	0	0	713	618
2	0	0	0	0	703	617
3	0	0	0	0	692	618
4	0	0	0	0	679	618
5	0	0	0	0	665	618
6	0	0	0	0	648	619
7	0	0	0	0	633	619
8	0	0	0	0	617	619
9	0	0	0	0	602	620
10	0	0	0	0	587	619
11	0	0	0	0	572	619
12	0	0	0	0	557	619
13	0	0	0	0	543	619
14	0	0	0	0	529	618
15	0	0	0	0	515	619
0	0	0	0	0	500	618
1	0	0	0	0	485	619
2	0	0	0	0	471	618
3	0	0	0	0	459	618
4	0	0	0	0	447	618
5	0	0	0	0	437	618
6	0	0	0	0	428	618
7	0	0	0	0	419	617
8	0	0	0	0	412	618
9	0	0	0	0	405	619
10	0	0	0	0	400	619
11	0	0	0	0	395	618
12	0	0	0	0	390	619
13	0	0	0	0	386	619
14	0	0	0	0	384	619
15	0	0	0	0	381	619
0	0	0	0	0	378	618
1	0	0	0	0	376	619
2	0	0	0	0	375	619
3	0	0	0	0	374	619
4	0	0	0	0	374	619
5	0	0	0	0	373	619
6	0	0	0	0	373	619
7	0	0	0	0	374	619
8	0	0	0	0	374	619
9	0	0	0	0	374	618
10	0	0	0	0	374	618
11	0	0	0	0	375	619
12	0	0	0	0	375	619
13	0	0	0	0	375	619
14	0	0	0	0	376	619
15	0	0	0	0	377	619
0	0	0	0	0	379	619
1	0	0	0	0	380	619
2	0	0	0	0	381	619
3	0	0	0	0	382	619
4	0	0	0	0	383	619
5	0	0	0	0	384	619
6	0	0	0	0	385	618
7	0	0	0	0	385	618
8	0	0	0	0	385	618
9	0	0	0	0	386	618
10	0	0	0	0	387	617
11	0	0	0	0	388	618
12	0	0	0	0	389	618
13	0	0	0	0	389	618
14	0	0	0	0	390	618
15	0	0	0	0	391	617
0	0	0	0	0	392	618
1	0	0	0	0	393	619
2	0	0	0	0	393	618
3	0	0	0	0	395	618
4	0	0	0	0	396	618
5	0	0	0	0	396	619
6	0	0	0	0	398	618
7	0	0	0	0	399	619
8	0	0	0	0	399	617
9	0	0	0	0	399	619
10	0	0	0	0	399	618
11	0	0	0	0	400	618
12	0	0	0	0	401	618
13	0	0	0	0	402	618
14	0	0	0	0	403	619
15	0	0	0	0	404	618
0	0	0	0	0	405	619
1	0	0	0	0	406	619
2	0	0	0	0	407	618
3	0	0	0	0	408	619
4	0	0	0	0	409	619
5	0	0	0	0	409	618
6	0	0	0	0	411	619
7	0	0	0	0	412	619
8	0	0	0	0	413	619
9	0	0	0	0	414	619
10	0	0	0	0	415	619
11	0	0	0	0	415	619
12	0	0	0	0	416	618
13	0	0	0	0	417	619
14	0	0	0	0	418	618
15	0	0	0	0	418	619
0	0	0	0	0	418	618
1	0	0	0	0	419	619
2	0	0	0	0	419	618
3	0	0	0	0	420	618
4	0	0	0	0	421	617
5	0	0	0	0	422	618
6	0	0	0	0	424	617
7	0	0	0	0	425	618
8	0	0	0	0	426	617
9	0	0	0	0	427	617
10	0	0	0	0	428	617
11	0	0	0	0	429	617
12	0	0	0	0	429	617
13	0	0	0	0	430	617
14	0	0	0	0	431	617
15	0	0	0	0	432	617
0	0	0	0	0	432	617
1	0	0	0	0	433	618
2	0	0	0	0	435	617
3	0	0	0	0	436	617
4	0	0	0	0	438	618
5	0	0	0	0	439	617
6	0	0	0	0	439	618
7	0	0	0	0	440	617
8	0	0	0	0	441	618
9	0	0	0	0	442	619
10	0	0	0	0	443	619
11	0	0	0	0	443	619
12	0	0	0	0	444	618
13	0	0	0	0	445	618
14	0	0	0	0	446	619
15	0	0	0	0	447	618
0	0	0	0	0	448	618
1	0	0	0	0	449	619
2	0	0	0	0	451	619
3	0	0	0	0	452	619
4	0	0	0	0	453	619
5	0	0	0	0	455	619
6	0	0	0	0	457	619
7	0	0	0	0	458	619
8	0	0	0	0	459	619
9	0	0	0	0	460	619
10	0	0	0	0	462	619
11	0	0	0	0	462	619
12	0	0	0	0	463	619
13	0	0	0	0	463	619
14	0	0	0	0	464	619
15	0	0	0	0	465	620
0	0	0	0	0	466	619
1	0	0	0	0	467	620
2	0	0	0	0	468	620
3	0	0	0	0	470	619
4	0	0	0	0	470	619
5	0	0	0	0	471	619
6	0	0	0	0	472	618
7	0	0	0	0	472	618
8	0	0	0	0	473	618
9	0	0	0	0	474	618
10	0	0	0	0	475	618
11	0	0	0	0	476	618
12	0	0	0	0	476	618
13	0	0	0	0	477	618
14	0	0	0	0	477	618
15	0	0	0	0	478	618
0	0	0	0	0	479	618
1	0	0	0	0	479	618
2	0	0	0	0	480	618
3	0	0	0	0	481	618
4	0	0	0	0	481	618
5	0	0	0	0	483	618
6	0	0	0	0	483	619
7	0	0	0	0	483	618
8	0	0	0	0	483	618
9	0	0	0	0	484	619
10	0	0	0	0	485	618
11	0	0	0	0	485	618
12	0	0	0	0	485	619
13	0	0	0	0	485	619
14	0	0	0	0	485	618
15	0	0	0	0	486	618
0	0	0	0	0	487	619
1	0	0	0	0	487	619
2	0	0	0	0	487	618
3	0	0	0	0	487	619
4	0	0	0	0	487	619
5	0	0	0	0	488	618
6	0	0	0	0	488	618
7	0	0	0	0	489	619
8	0	0	0	0	489	619
9	0	0	0	0	490	619
10	0	0	0	0	490	619
11	0	0	0	0	491	618
12	0	0	0	0	491	618
13	0	0	0	0	491	618
14	0	0	0	0	492	618
15	0	0	0	0	492	619
0	0	0	0	0	492	619
1	0	0	0	0	492	618
2	0	0	0	0	491	618
3	0	0	0	0	491	618
4	0	0	0	0	490	618
5	0	0	0	0	491	618
6	0	0	0	0	492	618
7	0	0	0	0	492	618
8	0	0	0	0	492	617
9	0	0	0	0	492	618
10	0	0	0	0	493	618
11	0	0	0	0	494	618
12	0	0	0	0	494	617
13	0	0	0	0	494	617
14	0	0	0	0	495	617
15	0	0	0	0	496	617
0	0	0	0	0	496	617
1	0	0	0	0	496	618
2	0	0	0	0	497	617
3	0	0	0	0	498	617
4	0	0	0	0	499	617
5	0	0	0	0	500	618
6	0	0	0	0	501	617
7	0	0	0	0	502	618
8	0	0	0	0	502	618
9	0	0	0	0	503	618
10	0	0	0	0	504	618
11	0	0	0	0	505	618
12	0	0	0	0	507	618
13	0	0	0	0	508	618
14	0	0	0	0	508	618
15	0	0	0	0	510	618
0	0	0	0	0	511	619
1	0	0	0	0	512	618
2	0	0	0	0	512	618
3	0	0	0	0	513	618
4	0	0	0	0	513	618
5	0	0	0	0	514	618
6	0	0	0	0	515	618
7	0	0	0	0	515	619
8	0	0	0	0	516	619
9	0	0	0	0	518	618
10	0	0	0	0	518	619
11	0	0	0	0	519	619
12	0	0	0	0	520	619
13	0	0	0	0	521	619
14	0	0	0	0	521	619
15	0	0	0	0	522	619
0	0	0	0	0	522	619
1	0	0	0	0	523	619
2	0	0	0	0	524	619
3	0	0	0	0	524	619
4	0	0	0	0	524	619
5	0	0	0	0	524	619
6	0	0	0	0	524	619
7	0	0	0	0	526	619
8	0	0	0	0	527	619
9	0	0	0	0	527	620
10	0	0	0	0	527	619
11	0	0	0	0	527	619
12	0	0	0	0	528	619
13	0	0	0	0	528	619
14	0	0	0	0	529	619
15	0	0	0	0	530	618
0	0	0	0	0	531	618
1	0	0	0	0	531	619
2	0	0	0	0	532	618
3	0	0	0	0	531	618
4	0	0	0	0	532	617
5	0	0	0	0	531	618
6	0	0	0	0	531	617
7	0	0	0	0	531	617
8	0	0	0	0	531	617
9	0	0	0	0	531	617
10	0	0	0	0	531	617
11	0	0	0	0	531	617
12	0	0	0	0	532	618
13	0	0	0	0	532	618
14	0	0	0	0	533	618
15	0	0	0	0	533	618
0	0	0	0	0	533	617
1	0	0	0	0	533	618
2	0	0	0	0	533	618
3	0	0	0	0	534	619
4	0	0	0	0	534	619
5	0	0	0	0	534	619
6	0	0	0	0	533	619
7	0	0	0	0	533	619
8	0	0	0	0	533	619
9	0	0	0	0	533	619
10	0	0	0	0	532	619
11	0	0	0	0	532	619
12	0	0	0	0	532	619
13	0	0	0	0	531	619
14	0	0	0	0	530	619
15	0	0	0	0	531	620
0	0	0	0	0	531	620
1	0	0	0	0	530	620
2	0	0	0	0	530	620
3	0	0	0	0	529	619
4	0	0	0	0	529	619
5	0	0	0	0	529	619
6	0	0	0	0	528	619
7	0	0	0	0	528	619
8	0	0	0	0	528	619
9	0	0	0	0	528	619
10	0	0	0	0	527	619
11	0	0	0	0	527	619
12	0	0	0	0	528	619
13	0	0	0	0	527	618
14	0	0	0	0	527	619
15	0	0	0	0	526	618
0	0	0	0	0	525	618
1	0	0	0	0	526	619
2	0	0	0	0	525	618
3	0	0	0	0	526	618
4	0	0	0	0	525	617
5	0	0	0	0	524	617
6	0	0	0	0	524	617
7	0	0	0	0	524	618
8	0	0	0	0	524	617
9	0	0	0	0	524	617
10	0	0	0	0	523	617
11	0	0	0	0	524	618
12	0	0	0	0	524	617
13	0	0	0	0	524	617
14	0	0	0	0	524	618
15	0	0	0	0	524	617
0	0	0	0	0	524	617
1	0	0	0	0	524	619
2	0	0	0	0	524	618
3	0	0	0	0	523	618
4	0	0	0	0	524	618
5	0	0	0	0	524	618
6	0	0	0	0	523	618
7	0	0	0	0	523	618
8	0	0	0	0	523	619
9	0	0	0	0	523	619
10	0	0	0	0	523	619
11	0	0	0	0	522	619
12	0	0	0	0	523	619
13	0	0	0	0	522	619
14	0	0	0	0	523	619
15	0	0	0	0	523	619
0	0	0	0	0	523	619
1	0	0	0	0	522	620
2	0	0	0	0	522	619
3	0	0	0	0	521	619
4	0	0	0	0	521	619
5	0	0	0	0	521	619
6	0	0	0	0	521	619
7	0	0	0	0	521	619
8	0	0	0	0	521	619
9	0	0	0	0	521	619
10	0	0	0	0	521	619
11	0	0	0	0	522	618
12	0	0	0	0	522	618
13	0	0	0	0	522	618
14	0	0	0	0	523	618
15	0	0	0	0	522	618
0	0	0	0	0	522	618
1	0	0	0	0	521	619
2	0	0	0	0	521	619
3	0	0	0	0	521	618
4	0	0	0	0	522	618
5	0	0	0	0	522	619
6	0	0	0	0	522	619
7	0	0	0	0	523	619
8	0	0	0	0	523	619
9	0	0	0	0	524	619
10	0	0	0	0	524	618
11	0	0	0	0	524	620
12	0	0	0	0	523	619
13	0	0	0	0	524	619
14	0	0	0	0	524	619
15	0	0	0	0	524	619
0	0	0	0	0	524	619
1	0	0	0	0	523	619
2	0	0	0	0	524	619
3	0	0	0	0	524	619
4	0	0	0	0	524	619
5	0	0	0	0	524	619
6	0	0	0	0	525	619
7	0	0	0	0	525	618
8	0	0	0	0	525	619
9	0	0	0	0	525	619
10	0	0	0	0	526	619
11	0	0	0	0	526	619
12	0	0	0	0	526	619
13	0	0	0	0	525	618
14	0	0	0	0	526	619
15	0	0	0	0	526	618
0	0	0	0	0	526	619
1	0	0	0	0	527	618
2	0	0	0	0	527	617
3	0	0	0	0	527	618
4	0	0	0	0	527	617
5	0	0	0	0	527	618
6	0	0	0	0	527	617
7	0	0	0	0	527	617
8	0	0	0	0	528	617
9	0	0	0	0	528	618
10	0	0	0	0	528	618
11	0	0	0	0	528	618
12	0	0	0	0	528	618
13	0	0	0	0	528	618
14	0	0	0	0	527	618
15	0	0	0	0	527	619
0	0	0	0	0	527	619
1	0	0	0	0	526	619
2	0	0	0	0	526	619
3	0	0	0	0	526	618
4	0	0	0	0	526	619
5	0	0	0	0	526	619
6	0	0	0	0	526	619
7	0	0	0	0	527	619
8	0	0	0	0	527	619
9	0	0	0	0	527	619
10	0	0	0	0	526	618
11	0	0	0	0	526	619
12	0	0	0	0	526	619
13	0	0	0	0	526	618
14	0	0	0	0	526	618
15	0	0	0	0	526	619
0	0	0	0	0	526	618
1	0	0	0	0	526	619
2	0	0	0	0	525	619
3	0	0	0	0	525	618
4	0	0	0	0	525	619
5	0	0	0	0	524	618
6	0	0	0	0	524	619
7	0	0	0	0	525	618
8	0	0	0	0	525	619
9	0	0	0	0	525	619
10	0	0	0	0	524	618
11	0	0	0	0	524	619
12	0	0	0	0	524	619
13	0	0	0	0	524	619
14	0	0	0	0	524	618
15	0	0	0	0	524	618
0	0	0	0	0	523	618
1	0	0	0	0	523	619
2	0	0	0	0	523	619
3	0	0	0	0	523	619
4	0	0	0	0	523	618
5	0	0	0	0	523	619
6	0	0	0	0	522	619
7	0	0	0	0	522	618
8	0	0	0	0	521	618
9	0	0	0	0	521	619
10	0	0	0	0	520	618
11	0	0	0	0	519	619
12	0	0	0	0	518	618
13	0	0	0	0	518	618
14	0	0	0	0	517	618
15	0	0	0	0	517	618
0	0	0	0	0	515	618
1	0	0	0	0	515	619
2	0	0	0	0	514	618
3	0	0	0	0	514	618
4	0	0	0	0	513	617
5	0	0	0	0	513	618
6	0	0	0	0	512	617
7	0	0	0	0	512	617
8	0	0	0	0	512	617
9	0	0	0	0	511	617
10	0	0	0	0	511	617
11	0	0	0	0	511	617
12	0	0	0	0	511	617
13	0	0	0	0	511	617
14	0	0	0	0	511	617
15	0	0	0	0	511	617
0	0	0	0	0	511	618
1	0	0	0	0	510	619
2	0	0	0	0	510	617
3	0	0	0	0	510	618
4	0	0	0	0	511	618
5	0	0	0	0	511	618
6	0	0	0	0	511	619
7	0	0	0	0	512	619
8	0	0	0	0	512	618
9	0	0	0	0	512	619
10	0	0	0	0	513	619
11	0	0	0	0	513	619
12	0	0	0	0	514	619
13	0	0	0	0	515	619
14	0	0	0	0	516	619
15	0	0	0	0	517	618
0	0	0	0	0	517	619
1	0	0	0	0	517	620
2	0	0	0	0	518	619
3	0	0	0	0	519	619
4	0	0	0	0	520	618
5	0	0	0	0	520	619
6	0	0	0	0	521	619
7	0	0	0	0	521	619
8	0	0	0	0	522	619
9	0	0	0	0	522	618
10	0	0	0	0	523	618
11	0	0	0	0	523	618
12	0	0	0	0	524	618
13	0	0	0	0	524	618
14	0	0	0	0	524	618
15	0	0	0	0	524	619
0	0	0	0	0	524	618
1	0	0	0	0	523	618
2	0	0	0	0	522	618
3	0	0	0	0	522	618
4	0	0	0	0	522	618
5	0	0	0	0	522	619
6	0	0	0	0	523	619
7	0	0	0	0	523	619
8	0	0	0	0	523	619
9	0	0	0	0	523	619
10	0	0	0	0	523	618
11	0	0	0	0	523	618
12	0	0	0	0	523	618
13	0	0	0	0	523	618
14	0	0	0	0	523	619
15	0	0	0	0	523	619
0	0	0	0	0	522	619
1	0	0	0	0	521	619
2	0	0	0	0	521	619
3	0	0	0	0	521	619
4	0	0	0	0	521	618
5	0	0	0	0	521	619
6	0	0	0	0	522	618
7	0	0	0	0	522	618
8	0	0	0	0	523	619
9	0	0	0	0	523	620
10	0	0	0	0	523	618
11	0	0	0	0	524	618
12	0	0	0	0	524	618
13	0	0	0	0	523	618
14	0	0	0	0	523	619
15	0	0	0	0	524	619
0	0	0	0	0	524	618
1	0	0	0	0	523	619
2	0	0	0	0	523	619
3	0	0	0	0	523	619
4	0	0	0	0	523	619
5	0	0	0	0	523	618
6	0	0	0	0	523	619
7	0	0	0	0	523	619
8	0	0	0	0	522	619
9	0	0	0	0	521	619
10	0	0	0	0	521	619
11	0	0	0	0	521	619
12	0	0	0	0	521	618
13	0	0	0	0	522	618
14	0	0	0	0	521	618
15	0	0	0	0	521	619
0	0	0	0	0	521	619
1	0	0	0	0	520	619
2	0	0	0	0	519	619
3	0	0	0	0	519	618
4	0	0	0	0	519	618
5	0	0	0	0	518	618
6	0	0	0	0	518	618
7	0	0	0	0	518	618
8	0	0	0	0	518	618
9	0	0	0	0	517	618
10	0	0	0	0	517	618
11	0	0	0	0	517	619
12	0	0	0	0	516	619
13	0	0	0	0	516	618
14	0	0	0	0	516	618
15	0	0	0	0	516	618
0	0	0	0	0	517	618
1	0	0	0	0	516	618
2	0	0	0	0	516	619
3	0	0	0	0	516	619
4	0	0	0	0	516	618
5	0	0	0	0	516	618
6	0	0	0	0	515	618
7	0	0	0	0	515	618
8	0	0	0	0	515	619
9	0	0	0	0	515	619
10	0	0	0	0	515	618
11	0	0	0	0	515	618
12	0	0	0	0	515	618
13	0	0	0	0	515	618
14	0	0	0	0	515	618
15	0	0	0	0	515	618
0	0	0	0	0	515	619
1	0	0	0	0	515	619
2	0	0	0	0	515	619
3	0	0	0	0	514	618
4	0	0	0	0	513	619
5	0	0	0	0	513	619
6	0	0	0	0	512	619
7	0	0	0	0	512	619
8	0	0	0	0	512	619
9	0	0	0	0	513	619
10	0	0	0	0	513	619
11	0	0	0	0	512	619
12	0	0	0	0	512	619
13	0	0	0	0	512	619
14	0	0	0	0	512	619
15	0	0	0	0	512	619
0	0	0	0	0	512	618
1	0	0	0	0	512	619
2	0	0	0	0	512	619
3	0	0	0	0	512	618
4	0	0	0	0	511	618
5	0	0	0	0	512	619
6	0	0	0	0	512	619
7	0	0	0	0	512	619
8	0	0	0	0	511	619
9	0	0	0	0	511	619
10	0	0	0	0	511	619
11	0	0	0	0	510	619
12	0	0	0	0	510	619
13	0	0	0	0	509	618
14	0	0	0	0	507	618
15	0	0	0	0	506	617
0	0	0	0	0	504	618
1	0	0	0	0	502	618
2	0	0	0	0	499	618
3	0	0	0	0	494	617
4	0	0	0	0	487	617
5	0	0	0	0	478	618
6	0	0	0	0	470	617
7	0	0	0	0	462	618
8	0	0	0	0	453	617
9	0	0	0	0	444	618
10	0	0	0	0	435	618
11	0	0	0	0	425	618
12	0	0	0	0	414	618
13	0	0	0	0	405	617
14	0	0	0	0	400	618
15	0	0	0	0	398	618
0	0	0	0	0	396	618
1	0	0	0	0	395	618
2	0	0	0	0	393	617
3	0	0	0	0	393	618
4	0	0	0	0	398	618
5	0	0	0	0	409	618
6	0	0	0	0	423	618
7	0	0	0	0	437	618
8	0	0	0	0	455	618
9	0	0	0	0	477	618
10	0	0	0	0	505	618
11	0	0	0	0	543	618
12	0	0	0	0	588	618
13	0	0	0	0	639	618
14	0	0	0	0	698	618
15	0	0	0	0	763	617
0	0	0	0	0	830	617
1	0	0	0	0	898	619
2	0	0	0	0	959	618
3	0	0	0	0	1008	618
4	0	0	0	0	1022	618
5	0	0	0	0	1022	618
6	0	0	0	0	1022	618
7	0	0	0	0	1022	618
8	0	0	0	0	1022	618
9	0	0	0	0	1022	619
10	0	0	0	0	1022	619
11	0	0	0	0	1021	619
12	0	0	0	0	979	618
13	0	0	0	0	934	619
14	0	0	0	0	889	619
15	0	0	0	0	848	619
0	0	0	0	0	813	619
1	0	0	0	0	785	620
2	0	0	0	0	763	619
3	0	0	0	0	745	619
4	0	0	0	0	731	620
5	0	0	0	0	719	619
6	0	0	0	0	711	619
7	0	0	0	0	701	620
8	0	0	0	0	690	619
9	0	0	0	0	678	620
10	0	0	0	0	662	619
11	0	0	0	0	647	619
12	0	0	0	0	631	619
13	0	0	0	0	615	619
14	0	0	0	0	600	619
15	0	0	0	0	584	619
0	0	0	0	0	570	619
1	0	0	0	0	556	619
2	0	0	0	0	542	619
3	0	0	0	0	528	620
4	0	0	0	0	514	619
5	0	0	0	0	499	619
6	0	0	0	0	484	618
7	0	0	0	0	470	618
8	0	0	0	0	458	618
9	0	0	0	0	447	619
10	0	0	0	0	437	619
11	0	0	0	0	428	618
12	0	0	0	0	419	618
13	0	0	0	0	412	618
14	0	0	0	0	405	618
15	0	0	0	0	399	618
0	0	0	0	0	394	618
1	0	0	0	0	389	619
2	0	0	0	0	385	618
3	0	0	0	0	383	619
4	0	0	0	0	380	619
5	0	0	0	0	377	618
6	0	0	0	0	376	618
7	0	0	0	0	375	619
8	0	0	0	0	374	618
9	0	0	0	0	374	618
10	0	0	0	0	374	617
11	0	0	0	0	374	618
12	0	0	0	0	373	618
13	0	0	0	0	374	617
14	0	0	0	0	375	617
15	0	0	0	0	375	618
0	0	0	0	0	376	618
1	0	0	0	0	376	618
2	0	0	0	0	376	618
3	0	0	0	0	377	618
4	0	0	0	0	378	617
5	0	0	0	0	379	618
6	0	0	0	0	380	619
7	0	0	0	0	381	619
8	0	0	0	0	383	618
9	0	0	0	0	384	619
10	0	0	0	0	384	619
11	0	0	0	0	386	619
12	0	0	0	0	387	619
13	0	0	0	0	388	619
14	0	0	0	0	388	619
15	0	0	0	0	389	619
0	0	0	0	0	390	619
1	0	0	0	0	391	619
2	0	0	0	0	391	619
3	0	0	0	0	392	619
4	0	0	0	0	393	619
5	0	0	0	0	394	619
6	0	0	0	0	395	619
7	0	0	0	0	396	619
8	0	0	0	0	396	619
9	0	0	0	0	398	619
10	0	0	0	0	399	619
11	0	0	0	0	400	619
12	0	0	0	0	400	619
13	0	0	0	0	401	619
14	0	0	0	0	402	619
15	0	0	0	0	403	619
0	0	0	0	0	403	618
1	0	0	0	0	404	619
2	0	0	0	0	405	619
3	0	0	0	0	406	618
4	0	0	0	0	407	618
5	0	0	0	0	408	618
6	0	0	0	0	409	617
7	0	0	0	0	410	618
8	0	0	0	0	410	617
9	0	0	0	0	411	618
10	0	0	0	0	412	617
11	0	0	0	0	412	618
12	0	0	0	0	413	618
13	0	0	0	0	413	617
14	0	0	0	0	414	617
15	0	0	0	0	415	617
0	0	0	0	0	416	617
1	0	0	0	0	417	617
2	0	0	0	0	418	617
3	0	0	0	0	419	617
4	0	0	0	0	419	617
5	0	0	0	0	420	618
6	0	0	0	0	420	618
7	0	0	0	0	421	618
8	0	0	0	0	422	618
9	0	0	0	0	422	619
10	0	0	0	0	423	618
11	0	0	0	0	423	619
12	0	0	0	0	424	619
13	0	0	0	0	425	619
14	0	0	0	0	426	620
15	0	0	0	0	427	619
0	0	0	0	0	427	619
1	0	0	0	0	428	620
2	0	0	0	0	429	619
3	0	0	0	0	430	620
4	0	0	0	0	431	619
5	0	0	0	0	432	619
6	0	0	0	0	432	619
7	0	0	0	0	433	619
8	0	0	0	0	434	619
9	0	0	0	0	435	620
10	0	0	0	0	435	620
11	0	0	0	0	436	620
12	0	0	0	0	437	620
13	0	0	0	0	438	620
14	0	0	0	0	439	620
15	0	0	0	0	440	620
0	0	0	0	0	441	619
1	0	0	0	0	441	619
2	0	0	0	0	442	618
3	0	0	0	0	443	618
4	0	0	0	0	444	618
5	0	0	0	0	445	617
6	0	0	0	0	447	618
7	0	0	0	0	448	617
8	0	0	0	0	449	618
9	0	0	0	0	450	618
10	0	0	0	0	451	617
11	0	0	0	0	452	618
12	0	0	0	0	454	617
13	0	0	0	0	456	618
14	0	0	0	0	456	617
15	0	0	0	0	457	617
0	0	0	0	0	459	617
1	0	0	0	0	460	618
2	0	0	0	0	460	618
3	0	0	0	0	460	618
4	0	0	0	0	461	618
5	0	0	0	0	462	619
6	0	0	0	0	463	617
7	0	0	0	0	464	618
8	0	0	0	0	464	618
9	0	0	0	0	465	618
10	0	0	0	0	466	618
11	0	0	0	0	467	618
12	0	0	0	0	467	619
13	0	0	0	0	468	619
14	0	0	0	0	469	619
15	0	0	0	0	470	619
0	0	0	0	0	471	618
1	0	0	0	0	472	619
2	0	0	0	0	472	618
3	0	0	0	0	473	619
4	0	0	0	0	475	618
5	0	0	0	0	475	618
6	0	0	0	0	475	619
7	0	0	0	0	476	619
8	0	0	0	0	477	618
9	0	0	0	0	478	619
10	0	0	0	0	478	619
11	0	0	0	0	479	619
12	0	0	0	0	480	619
13	0	0	0	0	480	619
14	0	0	0	0	480	618
15	0	0	0	0	480	618
0	0	0	0	0	481	618
1	0	0	0	0	482	619
2	0	0	0	0	482	618
3	0	0	0	0	483	619
4	0	0	0	0	483	618
5	0	0	0	0	483	618
6	0	0	0	0	484	618
7	0	0	0	0	484	618
8	0	0	0	0	485	618
9	0	0	0	0	486	618
10	0	0	0	0	486	619
11	0	0	0	0	486	619
12	0	0	0	0	486	618
13	0	0	0	0	487	619
14	0	0	0	0	487	617
15	0	0	0	0	487	618
0	0	0	0	0	487	618
1	0	0	0	0	488	619
2	0	0	0	0	488	618
3	0	0	0	0	488	618
4	0	0	0	0	489	618
5	0	0	0	0	488	619
6	0	0	0	0	488	619
7	0	0	0	0	488	618
8	0	0	0	0	488	618
9	0	0	0	0	488	618
10	0	0	0	0	488	618
11	0	0	0	0	489	618
12	0	0	0	0	489	618
13	0	0	0	0	490	619
14	0	0	0	0	490	619
15	0	0	0	0	491	618
0	0	0	0	0	492	617
1	0	0	0	0	493	618
2	0	0	0	0	494	617
3	0	0	0	0	494	618
4	0	0	0	0	494	618
5	0	0	0	0	495	617
6	0	0	0	0	495	617
7	0	0	0	0	495	617
8	0	0	0	0	496	617
9	0	0	0	0	497	618
10	0	0	0	0	498	618
11	0	0	0	0	499	617
12	0	0	0	0	499	618
13	0	0	0	0	500	617
14	0	0	0	0	502	618
15	0	0	0	0	503	619
0	0	0	0	0	503	619
1	0	0	0	0	504	619
2	0	0	0	0	504	619
3	0	0	0	0	504	619
4	0	0	0	0	505	618
5	0	0	0	0	506	619
6	0	0	0	0	506	619
7	0	0	0	0	507	619
8	0	0	0	0	508	619
9	0	0	0	0	509	619
10	0	0	0	0	510	619
11	0	0	0	0	510	619
12	0	0	0	0	511	619
13	0	0	0	0	512	619
14	0	0	0	0	513	620
15	0	0	0	0	514	619
0	0	0	0	0	515	619
1	0	0	0	0	515	619
2	0	0	0	0	516	619
3	0	0	0	0	516	618
4	0	0	0	0	518	619
5	0	0	0	0	519	620
6	0	0	0	0	519	619
7	0	0	0	0	519	619
8	0	0	0	0	520	619
9	0	0	0	0	520	619
10	0	0	0	0	521	618
11	0	0	0	0	521	619
12	0	0	0	0	521	618
13	0	0	0	0	521	619
14	0	0	0	0	522	618
15	0	0	0	0	523	619
0	0	0	0	0	523	618
1	0	0	0	0	523	618
2	0	0	0	0	524	618
3	0	0	0	0	525	618
4	0	0	0	0	525	618
5	0	0	0	0	526	618
6	0	0	0	0	526	618
7	0	0	0	0	527	617
8	0	0	0	0	527	618
9	0	0	0	0	527	619
10	0	0	0	0	528	619
11	0	0	0	0	528	618
12	0	0	0	0	528	618
13	0	0	0	0	528	618
14	0	0	0	0	527	618
15	0	0	0	0	527	619
0	0	0	0	0	527	618
1	0	0	0	0	527	619
2	0	0	0	0	527	618
3	0	0	0	0	528	618
4	0	0	0	0	528	618
5	0	0	0	0	528	618
6	0	0	0	0	529	619
7	0	0	0	0	529	619
8	0	0	0	0	529	619
9	0	0	0	0	529	619
10	0	0	0	0	529	619
11	0	0	0	0	528	619
12	0	0	0	0	528	619
13	0	0	0	0	528	619
14	0	0	0	0	528	618
15	0	0	0	0	527	619
0	0	0	0	0	527	619
1	0	0	0	0	527	619
2	0	0	0	0	527	618
3	0	0	0	0	527	619
4	0	0	0	0	526	618
5	0	0	0	0	526	618
6	0	0	0	0	527	618
7	0	0	0	0	526	617
8	0	0	0	0	526	617
9	0	0	0	0	526	619
10	0	0	0	0	526	618
11	0	0	0	0	527	618
12	0	0	0	0	526	618
13	0	0	0	0	526	619
14	0	0	0	0	526	618
15	0	0	0	0	526	619
0	0	0	0	0	525	618
1	0	0	0	0	524	619
2	0	0	0	0	524	617
3	0	0	0	0	524	618
4	0	0	0	0	524	619
5	0	0	0	0	524	618
6	0	0	0	0	524	619
7	0	0	0	0	523	618
8	0	0	0	0	523	618
9	0	0	0	0	522	619
10	0	0	0	0	523	619
11	0	0	0	0	524	619
12	0	0	0	0	523	619
13	0	0	0	0	524	618
14	0	0	0	0	524	618
15	0	0	0	0	524	618
0	0	0	0	0	524	617
1	0	0	0	0	524	619
2	0	0	0	0	524	618
3	0	0	0	0	524	618
4	0	0	0	0	524	618
5	0	0	0	0	524	617
6	0	0	0	0	524	618
7	0	0	0	0	523	617
8	0	0	0	0	523	618
9	0	0	0	0	523	618
10	0	0	0	0	523	619
11	0	0	0	0	523	618
12	0	0	0	0	523	619
13	0	0	0	0	522	619
14	0	0	0	0	523	619
15	0	0	0	0	523	619
0	0	0	0	0	523	619
1	0	0	0	0	523	619
2	0	0	0	0	523	619
3	0	0	0	0	523	619
4	0	0	0	0	523	618
5	0	0	0	0	523	618
6	0	0	0	0	523	618
7	0	0	0	0	522	619
8	0	0	0	0	523	619
9	0	0	0	0	522	619
10	0	0	0	0	522	619
11	0	0	0	0	523	618
12	0	0	0	0	522	618
13	0	0	0	0	523	618
14	0	0	0	0	523	618
15	0	0	0	0	524	619
0	0	0	0	0	524	619
1	0	0	0	0	523	619
2	0	0	0	0	524	619
3	0	0	0	0	524	619
4	0	0	0	0	524	619
5	0	0	0	0	523	618
6	0	0	0	0	523	618
7	0	0	0	0	523	617
8	0	0	0	0	524	618
9	0	0	0	0	524	618
10	0	0	0	0	523	618
11	0	0	0	0	522	618
12	0	0	0	0	523	618
13	0	0	0	0	523	618
14	0	0	0	0	523	618
15	0	0	0	0	524	619
0	0	0	0	0	523	618
1	0	0	0	0	523	618
2	0	0	0	0	522	618
3	0	0	0	0	523	618
4	0	0	0	0	524	618
5	0	0	0	0	524	618
6	0	0	0	0	524	618
7	0	0	0	0	524	618
8	0	0	0	0	524	618
9	0	0	0	0	524	618
10	0	0	0	0	524	618
11	0	0	0	0	524	618
12	0	0	0	0	524	618
13	0	0	0	0	524	618
14	0	0	0	0	525	618
15	0	0	0	0	526	617
0	0	0	0	0	527	618
1	0	0	0	0	527	619
2	0	0	0	0	528	619
3	0	0	0	0	528	618
4	0	0	0	0	527	619
5	0	0	0	0	527	618
6	0	0	0	0	527	618
7	0	0	0	0	528	618
8	0	0	0	0	528	619
9	0	0	0	0	528	619
10	0	0	0	0	528	619
11	0	0	0	0	528	619
12	0	0	0	0	528	618
13	0	0	0	0	529	618
14	0	0	0	0	529	619
15	0	0	0	0	529	619
0	0	0	0	0	529	618
1	0	0	0	0	529	619
2	0	0	0	0	528	619
3	0	0	0	0	528	618
4	0	0	0	0	528	619
5	0	0	0	0	528	619
6	0	0	0	0	528	619
7	0	0	0	0	527	618
8	0	0	0	0	527	619
9	0	0	0	0	527	619
10	0	0	0	0	527	619
11	0	0	0	0	527	619
12	0	0	0	0	527	619
13	0	0	0	0	528	618
14	0	0	0	0	528	618
15	0	0	0	0	527	618
0	0	0	0	0	527	619
1	0	0	0	0	527	618
2	0	0	0	0	527	618
3	0	0	0	0	526	618
4	0	0	0	0	527	619
5	0	0	0	0	527	618
6	0	0	0	0	527	618
7	0	0	0	0	526	618
8	0	0	0	0	527	617
9	0	0	0	0	526	619
10	0	0	0	0	526	618
11	0	0	0	0	526	619
12	0	0	0	0	526	618
13	0	0	0	0	526	618
14	0	0	0	0	525	619
15	0	0	0	0	524	618
0	0	0	0	0	524	617
1	0	0	0	0	524	618
2	0	0	0	0	524	617
3	0	0	0	0	524	617
4	0	0	0	0	523	618
5	0	0	0	0	523	618
6	0	0	0	0	522	617
7	0	0	0	0	522	618
8	0	0	0	0	521	617
9	0	0	0	0	520	618
10	0	0	0	0	519	617
11	0	0	0	0	519	618
12	0	0	0	0	519	617
13	0	0	0	0	519	617
14	0	0	0	0	519	617
15	0	0	0	0	517	618
0	0	0	0	0	516	619
1	0	0	0	0	516	620
2	0	0	0	0	515	619
3	0	0	0	0	515	619
4	0	0	0	0	515	619
5	0	0	0	0	516	619
6	0	0	0	0	516	620
7	0	0	0	0	515	619
8	0	0	0	0	515	619
9	0	0	0	0	514	619
10	0	0	0	0	514	619
11	0	0	0	0	514	619
12	0	0	0	0	513	620
13	0	0	0	0	514	619
14	0	0	0	0	514	620
15	0	0	0	0	514	619
0	0	0	0	0	514	619
1	0	0	0	0	514	619
2	0	0	0	0	515	619
3	0	0	0	0	516	619
4	0	0	0	0	517	619
5	0	0	0	0	518	619
6	0	0	0	0	518	619
7	0	0	0	0	518	618
8	0	0	0	0	519	619
9	0	0	0	0	519	619
10	0	0	0	0	519	619
11	0	0	0	0	520	618
12	0	0	0	0	521	618
13	0	0	0	0	523	618
14	0	0	0	0	523	618
15	0	0	0	0	524	618
0	0	0	0	0	525	618
1	0	0	0	0	526	618
2	0	0	0	0	526	617
3	0	0	0	0	527	617
4	0	0	0	0	527	618
5	0	0	0	0	528	618
6	0	0	0	0	529	617
7	0	0	0	0	528	617
8	0	0	0	0	528	618
9	0	0	0	0	528	618
10	0	0	0	0	528	618
11	0	0	0	0	528	618
12	0	0	0	0	528	617
13	0	0	0	0	529	618
14	0	0	0	0	529	618
15	0	0	0	0	529	618
0	0	0	0	0	528	618
1	0	0	0	0	529	619
2	0	0	0	0	529	619
3	0	0	0	0	528	617
4	0	0	0	0	528	618
5	0	0	0	0	529	618
6	0	0	0	0	529	619
7	0	0	0	0	528	619
8	0	0	0	0	528	619
9	0	0	0	0	528	619
10	0	0	0	0	527	619
11	0	0	0	0	527	619
12	0	0	0	0	526	618
13	0	0	0	0	527	618
14	0	0	0	0	527	619
15	0	0	0	0	528	618
0	0	0	0	0	529	618
1	0	0	0	0	530	619
2	0	0	0	0	530	619
3	0	0	0	0	531	618
4	0	0	0	0	531	619
5	0	0	0	0	531	618
6	0	0	0	0	531	618
7	0	0	0	0	532	618
8	0	0	0	0	533	617
9	0	0	0	0	532	618
10	0	0	0	0	531	618
11	0	0	0	0	531	618
12	0	0	0	0	530	618
13	0	0	0	0	530	618
14	0	0	0	0	529	618
15	0	0	0	0	528	619
0	0	0	0	0	528	619
1	0	0	0	0	527	620
2	0	0	0	0	527	619
3	0	0	0	0	527	619
4	0	0	0	0	527	618
5	0	0	0	0	527	619
6	0	0	0	0	527	619
7	0	0	0	0	526	619
8	0	0	0	0	527	619
9	0	0	0	0	526	620
10	0	0	0	0	526	619
11	0	0	0	0	526	619
12	0	0	0	0	525	619
13	0	0	0	0	524	619
14	0	0	0	0	524	618
15	0	0	0	0	524	619
0	0	0	0	0	524	619
1	0	0	0	0	523	618
2	0	0	0	0	524	619
3	0	0	0	0	524	618
4	0	0	0	0	524	618
5	0	0	0	0	523	619
6	0	0	0	0	523	618
7	0	0	0	0	523	618
8	0	0	0	0	524	618
9	0	0	0	0	524	619
10	0	0	0	0	524	618
11	0	0	0	0	523	617
12	0	0	0	0	523	617
13	0	0	0	0	524	617
14	0	0	0	0	524	618
15	0	0	0	0	523	618
0	0	0	0	0	523	618
1	0	0	0	0	523	619
2	0	0	0	0	522	618
3	0	0	0	0	523	618
4	0	0	0	0	522	618
5	0	0	0	0	522	618
6	0	0	0	0	522	618
7	0	0	0	0	520	618
8	0	0	0	0	521	619
9	0	0	0	0	521	619
10	0	0	0	0	521	618
11	0	0	0	0	521	619
12	0	0	0	0	521	619
13	0	0	0	0	520	619
14	0	0	0	0	521	618
15	0	0	0	0	520	619
0	0	0	0	0	519	619
1	0	0	0	0	519	619
2	0	0	0	0	519	619
3	0	0	0	0	519	620
4	0	0	0	0	519	619
5	0	0	0	0	518	619
6	0	0	0	0	518	619
7	0	0	0	0	518	619
8	0	0	0	0	518	618
9	0	0	0	0	517	619
10	0	0	0	0	517	619
11	0	0	0	0	516	619
12	0	0	0	0	515	620
13	0	0	0	0	516	619
14	0	0	0	0	516	618
15	0	0	0	0	516	619
0	0	0	0	0	516	618
1	0	0	0	0	517	618
2	0	0	0	0	516	619
3	0	0	0	0	515	619
4	0	0	0	0	515	618
5	0	0	0	0	515	619
6	0	0	0	0	513	619
7	0	0	0	0	512	618
8	0	0	0	0	511	618
9	0	0	0	0	509	619
10	0	0	0	0	506	618
11	0	0	0	0	504	618
12	0	0	0	0	500	618
13	0	0	0	0	493	618
14	0	0	0	0	485	618
15	0	0	0	0	476	618
0	0	0	0	0	468	618
1	0	0	0	0	460	619
2	0	0	0	0	451	618
3	0	0	0	0	443	618
4	0	0	0	0	433	618
5	0	0	0	0	423	618
6	0	0	0	0	412	618
7	0	0	0	0	407	618
8	0	0	0	0	404	617
9	0	0	0	0	403	618
10	0	0	0	0	403	618
11	0	0	0	0	402	618
12	0	0	0	0	401	618
13	0	0	0	0	406	619
14	0	0	0	0	415	618
15	0	0	0	0	428	618
0	0	0	0	0	440	618
1	0	0	0	0	455	619
2	0	0	0	0	475	619
3	0	0	0	0	500	619
4	0	0	0	0	532	619
5	0	0	0	0	572	619
6	0	0	0	0	621	619
7	0	0	0	0	678	619
8	0	0	0	0	739	619
9	0	0	0	0	803	620
10	0	0	0	0	871	619
11	0	0	0	0	933	619
12	0	0	0	0	984	619
13	0	0	0	0	1021	618
14	0	0	0	0	1022	618
15	0	0	0	0	1022	619
0	0	0	0	0	1022	619
1	0	0	0	0	1022	619
2	0	0	0	0	1022	619
3	0	0	0	0	1022	619
4	0	0	0	0	1011	619
5	0	0	0	0	966	619
6	0	0	0	0	922	619
7	0	0	0	0	878	619
8	0	0	0	0	838	619
9	0	0	0	0	806	620
10	0	0	0	0	779	619
11	0	0	0	0	758	619
12	0	0	0	0	742	618
13	0	0	0	0	728	619
14	0	0	0	0	716	619
15	0	0	0	0	709	618
0	0	0	0	0	702	619
1	0	0	0	0	692	619
2	0	0	0	0	680	619
3	0	0	0	0	665	619
4	0	0	0	0	648	619
5	0	0	0	0	633	618
6	0	0	0	0	618	619
7	0	0	0	0	603	619
8	0	0	0	0	588	617
9	0	0	0	0	574	619
10	0	0	0	0	559	618
11	0	0	0	0	545	617
12	0	0	0	0	532	618
13	0	0	0	0	519	618
14	0	0	0	0	504	617
15	0	0	0	0	491	618
0	0	0	0	0	478	618
1	0	0	0	0	465	618
2	0	0	0	0	454	618
3	0	0	0	0	443	617
4	0	0	0	0	434	617
5	0	0	0	0	427	618
6	0	0	0	0	420	618
7	0	0	0	0	414	617
8	0	0	0	0	408	617
9	0	0	0	0	403	618
10	0	0	0	0	399	617
11	0	0	0	0	395	618
12	0	0	0	0	392	618
13	0	0	0	0	390	618
14	0	0	0	0	387	618
15	0	0	0	0	385	617
0	0	0	0	0	383	617
1	0	0	0	0	382	618
2	0	0	0	0	380	618
3	0	0	0	0	379	617
4	0	0	0	0	379	618
5	0	0	0	0	378	618
6	0	0	0	0	378	618
7	0	0	0	0	378	619
8	0	0	0	0	378	618
9	0	0	0	0	378	619
10	0	0	0	0	378	618
11	0	0	0	0	378	618
12	0	0	0	0	379	618
13	0	0	0	0	379	618
14	0	0	0	0	380	619
15	0	0	0	0	381	618
0	0	0	0	0	381	618
1	0	0	0	0	382	619
2	0	0	0	0	383	618
3	0	0	0	0	384	618
4	0	0	0	0	384	619
5	0	0	0	0	385	618
6	0	0	0	0	387	619
7	0	0	0	0	387	619
8	0	0	0	0	388	618
9	0	0	0	0	389	618
10	0	0	0	0	391	618
11	0	0	0	0	391	618
12	0	0	0	0	392	619
13	0	0	0	0	392	619
14	0	0	0	0	393	619
15	0	0	0	0	395	618
0	0	0	0	0	396	618
1	0	0	0	0	397	619
2	0	0	0	0	397	618
3	0	0	0	0	397	618
4	0	0	0	0	398	617
5	0	0	0	0	398	618
6	0	0	0	0	399	618
7	0	0	0	0	399	617
8	0	0	0	0	400	618
9	0	0	0	0	400	619
10	0	0	0	0	401	618
11	0	0	0	0	402	618
12	0	0	0	0	403	617
13	0	0	0	0	403	617
14	0	0	0	0	404	618
15	0	0	0	0	406	618
0	0	0	0	0	407	617
1	0	0	0	0	407	618
2	0	0	0	0	408	618
3	0	0	0	0	409	618
4	0	0	0	0	410	617
5	0	0	0	0	411	617
6	0	0	0	0	412	617
7	0	0	0	0	413	617
8	0	0	0	0	414	617
9	0	0	0	0	415	618
10	0	0	0	0	415	619
11	0	0	0	0	416	619
12	0	0	0	0	417	619
13	0	0	0	0	418	619
14	0	0	0	0	418	619
15	0	0	0	0	419	619
0	0	0	0	0	420	619
1	0	0	0	0	421	619
2	0	0	0	0	423	619
3	0	0	0	0	423	620
4	0	0	0	0	423	619
5	0	0	0	0	424	619
6	0	0	0	0	425	619
7	0	0	0	0	426	618
8	0	0	0	0	427	618
9	0	0	0	0	427	619
10	0	0	0	0	428	619
11	0	0	0	0	429	619
12	0	0	0	0	429	619
13	0	0	0	0	430	619
14	0	0	0	0	431	619
15	0	0	0	0	432	618
0	0	0	0	0	433	619
1	0	0	0	0	434	619
2	0	0	0	0	435	619
3	0	0	0	0	436	619
4	0	0	0	0	436	619
5	0	0	0	0	437	619
6	0	0	0	0	438	619
7	0	0	0	0	439	619
8	0	0	0	0	440	618
9	0	0	0	0	441	619
10	0	0	0	0	443	617
11	0	0	0	0	443	618
12	0	0	0	0	444	619
13	0	0	0	0	445	618
14	0	0	0	0	446	619
15	0	0	0	0	447	618
0	0	0	0	0	449	618
1	0	0	0	0	450	619
2	0	0	0	0	451	618
3	0	0	0	0	451	618
4	0	0	0	0	451	618
5	0	0	0	0	452	618
6	0	0	0	0	453	618
7	0	0	0	0	454	618
8	0	0	0	0	455	618
9	0	0	0	0	456	619
10	0	0	0	0	458	618
11	0	0	0	0	458	618
12	0	0	0	0	459	617
13	0	0	0	0	461	618
14	0	0	0	0	462	617
15	0	0	0	0	462	618
0	0	0	0	0	463	617
1	0	0	0	0	463	618
2	0	0	0	0	464	617
3	0	0	0	0	464	618
4	0	0	0	0	466	618
5	0	0	0	0	467	617
6	0	0	0	0	467	618
7	0	0	0	0	467	618
8	0	0	0	0	468	618
9	0	0	0	0	469	619
10	0	0	0	0	470	618
11	0	0	0	0	472	619
12	0	0	0	0	472	619
13	0	0	0	0	473	619
14	0	0	0	0	474	619
15	0	0	0	0	474	619
0	0	0	0	0	474	619
1	0	0	0	0	475	620
2	0	0	0	0	475	620
3	0	0	0	0	476	620
4	0	0	0	0	476	620
5	0	0	0	0	477	620
6	0	0	0	0	478	619
7	0	0	0	0	478	620
8	0	0	0	0	479	619
9	0	0	0	0	479	620
10	0	0	0	0	479	619
11	0	0	0	0	479	619
12	0	0	0	0	479	619
13	0	0	0	0	480	620
14	0	0	0	0	480	619
15	0	0	0	0	480	619
0	0	0	0	0	480	619
1	0	0	0	0	480	620
2	0	0	0	0	480	619
3	0	0	0	0	480	619
4	0	0	0	0	480	619
5	0	0	0	0	481	619
6	0	0	0	0	481	618
7	0	0	0	0	482	619
8	0	0	0	0	483	618
9	0	0	0	0	483	618
10	0	0	0	0	482	619
11	0	0	0	0	483	619
12	0	0	0	0	483	618
13	0	0	0	0	484	618
14	0	0	0	0	483	618
15	0	0	0	0	484	618
0	0	0	0	0	484	617
1	0	0	0	0	484	618
2	0	0	0	0	484	618
3	0	0	0	0	485	617
4	0	0	0	0	485	618
5	0	0	0	0	486	618
6	0	0	0	0	487	618
7	0	0	0	0	487	618
8	0	0	0	0	487	618
9	0	0	0	0	487	619
10	0	0	0	0	488	618
11	0	0	0	0	489	618
12	0	0	0	0	489	617
13	0	0	0	0	490	617
14	0	0	0	0	491	618
15	0	0	0	0	492	617
0	0	0	0	0	493	618
1	0	0	0	0	494	619
2	0	0	0	0	495	619
3	0	0	0	0	495	618
4	0	0	0	0	496	618
5	0	0	0	0	498	618
6	0	0	0	0	499	618
7	0	0	0	0	499	618
8	0	0	0	0	500	617
9	0	0	0	0	502	618
10	0	0	0	0	503	618
11	0	0	0	0	504	617
12	0	0	0	0	505	618
13	0	0	0	0	506	618
14	0	0	0	0	507	619
15	0	0	0	0	508	619
0	0	0	0	0	508	618
1	0	0	0	0	509	619
2	0	0	0	0	509	618
3	0	0	0	0	511	617
4	0	0	0	0	512	618
5	0	0	0	0	512	617
6	0	0	0	0	513	619
7	0	0	0	0	515	619
8	0	0	0	0	516	619
9	0	0	0	0	517	620
10	0	0	0	0	517	619
11	0	0	0	0	517	619
12	0	0	0	0	519	619
13	0	0	0	0	519	619
14	0	0	0	0	520	619
15	0	0	0	0	520	618
0	0	0	0	0	520	619
1	0	0	0	0	521	620
2	0	0	0	0	522	619
3	0	0	0	0	523	619
4	0	0	0	0	523	619
5	0	0	0	0	524	619
6	0	0	0	0	524	619
7	0	0	0	0	524	619
8	0	0	0	0	525	619
9	0	0	0	0	526	619
10	0	0	0	0	527	618
11	0	0	0	0	527	618
12	0	0	0	0	527	618
13	0	0	0	0	528	619
14	0	0	0	0	528	619
15	0	0	0	0	528	619
0	0	0	0	0	529	619
1	0	0	0	0	529	620
2	0	0	0	0	529	619
3	0	0	0	0	529	619
4	0	0	0	0	529	618
5	0	0	0	0	530	619
6	0	0	0	0	531	619
7	0	0	0	0	531	619
8	0	0	0	0	531	619
9	0	0	0	0	531	620
10	0	0	0	0	531	619
11	0	0	0	0	530	619
12	0	0	0	0	530	619
13	0	0	0	0	530	619
14	0	0	0	0	531	619
15	0	0	0	0	531	618
0	0	0	0	0	530	619
1	0	0	0	0	530	618
2	0	0	0	0	529	618
3	0	0	0	0	529	618
4	0	0	0	0	529	619
5	0	0	0	0	529	618
6	0	0	0	0	529	618
7	0	0	0	0	529	617
8	0	0	0	0	528	617
9	0	0	0	0	528	618
10	0	0	0	0	528	617
11	0	0	0	0	528	617
12	0	0	0	0	527	617
13	0	0	0	0	527	617
14	0	0	0	0	527	617
15	0	0	0	0	527	616
0	0	0	0	0	527	616
1	0	0	0	0	526	616
2	0	0	0	0	524	616
3	0	0	0	0	525	616
4	0	0	0	0	525	616
5	0	0	0	0	525	616
6	0	0	0	0	526	616
7	0	0	0	0	525	616
8	0	0	0	0	525	616
9	0	0	0	0	525	616
10	0	0	0	0	525	616
11	0	0	0	0	524	616
12	0	0	0	0	524	616
13	0	0	0	0	524	617
14	0	0	0	0	523	617
15	0	0	0	0	524	616
0	0	0	0	0	523	617
1	0	0	0	0	523	618
2	0	0	0	0	523	617
3	0	0	0	0	523	617
4	0	0	0	0	523	617
5	0	0	0	0	523	617
6	0	0	0	0	522	617
7	0	0	0	0	523	617
8	0	0	0	0	523	617
9	0	0	0	0	523	619
10	0	0	0	0	523	619
11	0	0	0	0	523	619
12	0	0	0	0	523	619
13	0	0	0	0	523	619
14	0	0	0	0	524	619
15	0	0	0	0	523	620
0	0	0	0	0	524	619
1	0	0	0	0	523	620
2	0	0	0	0	522	619
3	0	0	0	0	522	619
4	0	0	0	0	522	620
5	0	0	0	0	521	619
6	0	0	0	0	520	619
7	0	0	0	0	520	619
8	0	0	0	0	520	619
9	0	0	0	0	521	619
10	0	0	0	0	521	618
11	0	0	0	0	521	618
12	0	0	0	0	521	618
13	0	0	0	0	521	618
14	0	0	0	0	522	618
15	0	0	0	0	523	618
0	0	0	0	0	523	618
1	0	0	0	0	523	619
2	0	0	0	0	523	618
3	0	0	0	0	523	618
4	0	0	0	0	523	618
5	0	0	0	0	523	618
6	0	0	0	0	524	618
7	0	0	0	0	524	619
8	0	0	0	0	524	619
9	0	0	0	0	525	619
10	0	0	0	0	524	619
11	0	0	0	0	525	619
12	0	0	0	0	525	619
13	0	0	0	0	525	619
14	0	0	0	0	525	619
15	0	0	0	0	525	619
0	0	0	0	0	526	619
1	0	0	0	0	526	619
2	0	0	0	0	526	619
3	0	0	0	0	526	620
4	0	0	0	0	526	619
5	0	0	0	0	526	620
6	0	0	0	0	527	620
7	0	0	0	0	527	620
8	0	0	0	0	528	620
9	0	0	0	0	528	620
10	0	0	0	0	528	620
11	0	0	0	0	529	620
12	0	0	0	0	529	620
13	0	0	0	0	529	620
14	0	0	0	0	529	620
15	0	0	0	0	528	620
0	0	0	0	0	529	620
1	0	0	0	0	529	620
2	0	0	0	0	529	620
3	0	0	0	0	530	620
4	0	0	0	0	530	620
5	0	0	0	0	531	620
6	0	0	0	0	531	620
7	0	0	0	0	532	620
8	0	0	0	0	532	620
9	0	0	0	0	532	620
10	0	0	0	0	532	619
11	0	0	0	0	532	619
12	0	0	0	0	532	620
13	0	0	0	0	532	620
14	0	0	0	0	531	620
15	0	0	0	0	531	619
0	0	0	0	0	531	620
1	0	0	0	0	531	620
2	0	0	0	0	531	620
3	0	0	0	0	530	619
4	0	0	0	0	530	619
5	0	0	0	0	529	619
6	0	0	0	0	530	619
7	0	0	0	0	531	619
8	0	0	0	0	531	619
9	0	0	0	0	531	620
10	0	0	0	0	531	619
11	0	0	0	0	531	619
12	0	0	0	0	531	619
13	0	0	0	0	531	619
14	0	0	0	0	531	619
15	0	0	0	0	531	619
0	0	0	0	0	530	619
1	0	0	0	0	530	619
2	0	0	0	0	529	619
3	0	0	0	0	529	618
4	0	0	0	0	528	618
5	0	0	0	0	528	618
6	0	0	0	0	527	618
7	0	0	0	0	527	618
8	0	0	0	0	527	618
9	0	0	0	0	527	619
10	0	0	0	0	527	618
11	0	0	0	0	526	618
12	0	0	0	0	525	618
13	0	0	0	0	525	618
14	0	0	0	0	525	617
15	0	0	0	0	525	618
0	0	0	0	0	525	617
1	0	0	0	0	524	618
2	0	0	0	0	524	618
3	0	0	0	0	524	618
4	0	0	0	0	524	617
5	0	0	0	0	522	617
6	0	0	0	0	522	617
7	0	0	0	0	521	617
8	0	0	0	0	519	618
9	0	0	0	0	519	619
10	0	0	0	0	518	617
11	0	0	0	0	517	617
12	0	0	0	0	516	617
13	0	0	0	0	516	617
14	0	0	0	0	516	618
15	0	0	0	0	515	618
0	0	0	0	0	515	617
1	0	0	0	0	515	617
2	0	0	0	0	515	617
3	0	0	0	0	515	617
4	0	0	0	0	514	617
5	0	0	0	0	514	617
6	0	0	0	0	514	618
7	0	0	0	0	514	617
8	0	0	0	0	515	618
9	0	0	0	0	515	618
10	0	0	0	0	516	618
11	0	0	0	0	517	618
12	0	0	0	0	518	618
13	0	0	0	0	519	619
14	0	0	0	0	520	619
15	0	0	0	0	521	619
0	0	0	0	0	522	619
1	0	0	0	0	522	620
2	0	0	0	0	523	619
3	0	0	0	0	523	619
4	0	0	0	0	523	618
5	0	0	0	0	524	619
6	0	0	0	0	525	618
7	0	0	0	0	526	618
8	0	0	0	0	527	618
9	0	0	0	0	527	619
10	0	0	0	0	527	618
11	0	0	0	0	528	619
12	0	0	0	0	529	619
13	0	0	0	0	529	619
14	0	0	0	0	530	618
15	0	0	0	0	530	619
0	0	0	0	0	531	618
1	0	0	0	0	531	619
2	0	0	0	0	531	618
3	0	0	0	0	530	618
4	0	0	0	0	530	620
5	0	0	0	0	530	619
6	0	0	0	0	530	619
7	0	0	0	0	529	618
8	0	0	0	0	529	618
9	0	0	0	0	530	619
10	0	0	0	0	530	619
11	0	0	0	0	529	619
12	0	0	0	0	528	618
13	0	0	0	0	529	619
14	0	0	0	0	528	619
15	0	0	0	0	528	619
0	0	0	0	0	529	619
1	0	0	0	0	528	620
2	0	0	0	0	527	619
3	0	0	0	0	527	620
4	0	0	0	0	527	619
5	0	0	0	0	527	619
6	0	0	0	0	527	619
7	0	0	0	0	527	619
8	0	0	0	0	527	619
9	0	0	0	0	528	618
10	0	0	0	0	528	619
11	0	0	0	0	529	619
12	0	0	0	0	529	619
13	0	0	0	0	530	619
14	0	0	0	0	530	619
15	0	0	0	0	530	619
0	0	0	0	0	530	620
1	0	0	0	0	530	620
2	0	0	0	0	531	619
3	0	0	0	0	531	619
4	0	0	0	0	530	619
5	0	0	0	0	531	619
6	0	0	0	0	530	619
7	0	0	0	0	529	619
8	0	0	0	0	528	619
9	0	0	0	0	528	620
10	0	0	0	0	528	619
11	0	0	0	0	527	619
12	0	0	0	0	527	619
13	0	0	0	0	527	619
14	0	0	0	0	526	619
15	0	0	0	0	526	618
0	0	0	0	0	525	618
1	0	0	0	0	526	619
2	0	0	0	0	526	618
3	0	0	0	0	526	617
4	0	0	0	0	525	617
5	0	0	0	0	525	618
6	0	0	0	0	525	617
7	0	0	0	0	524	617
8	0	0	0	0	524	617
9	0	0	0	0	523	619
10	0	0	0	0	523	618
11	0	0	0	0	523	618
12	0	0	0	0	522	619
13	0	0	0	0	521	618
14	0	0	0	0	521	619
15	0	0	0	0	520	619
0	0	0	0	0	519	619
1	0	0	0	0	520	619
2	0	0	0	0	519	619
3	0	0	0	0	519	618
4	0	0	0	0	520	618
5	0	0	0	0	520	619
6	0	0	0	0	520	619
7	0	0	0	0	520	619
8	0	0	0	0	520	618
9	0	0	0	0	519	619
10	0	0	0	0	520	619
11	0	0	0	0	520	618
12	0	0	0	0	520	618
13	0	0	0	0	519	619
14	0	0	0	0	519	618
15	0	0	0	0	519	619
0	0	0	0	0	518	618
1	0	0	0	0	518	619
2	0	0	0	0	517	618
3	0	0	0	0	517	619
4	0	0	0	0	517	619
5	0	0	0	0	516	618
6	0	0	0	0	516	618
7	0	0	0	0	515	618
8	0	0	0	0	515	619
9	0	0	0	0	515	619
10	0	0	0	0	515	619
11	0	0	0	0	515	619
12	0	0	0	0	515	618
13	0	0	0	0	515	618
14	0	0	0	0	515	619
15	0	0	0	0	515	617
0	0	0	0	0	514	618
1	0	0	0	0	513	618
2	0	0	0	0	513	618
3	0	0	0	0	513	619
4	0	0	0	0	513	619
5	0	0	0	0	513	618
6	0	0	0	0	513	618
7	0	0	0	0	512	619
8	0	0	0	0	512	619
9	0	0	0	0	512	619
10	0	0	0	0	512	618
11	0	0	0	0	512	619
12	0	0	0	0	512	618
13	0	0	0	0	512	617
14	0	0	0	0	512	618
15	0	0	0	0	511	618
0	0	0	0	0	510	617
1	0	0	0	0	510	618
2	0	0	0	0	508	618
3	0	0	0	0	507	618
4	0	0	0	0	505	617
5	0	0	0	0	503	618
6	0	0	0	0	499	618
7	0	0	0	0	495	618
8	0	0	0	0	488	618
9	0	0	0	0	481	618
10	0	0	0	0	472	618
11	0	0	0	0	464	618
12	0	0	0	0	456	619
13	0	0	0	0	447	618
14	0	0	0	0	439	619
15	0	0	0	0	429	618
0	0	0	0	0	418	618
1	0	0	0	0	410	619
2	0	0	0	0	406	619
3	0	0	0	0	404	620
4	0	0	0	0	403	620
5	0	0	0	0	401	619
6	0	0	0	0	399	619
7	0	0	0	0	400	619
8	0	0	0	0	405	618
9	0	0	0	0	415	619
10	0	0	0	0	429	618
11	0	0	0	0	441	618
12	0	0	0	0	457	619
13	0	0	0	0	476	619
14	0	0	0	0	503	619
15	0	0	0	0	537	618
0	0	0	0	0	579	619
1	0	0	0	0	630	619
2	0	0	0	0	689	619
3	0	0	0	0	753	619
4	0	0	0	0	821	619
5	0	0	0	0	889	619
6	0	0	0	0	949	619
7	0	0	0	0	999	619
8	0	0	0	0	1022	618
9	0	0	0	0	1022	619
10	0	0	0	0	1022	618
11	0	0	0	0	1022	619
12	0	0	0	0	1022	618
13	0	0	0	0	1022	618
14	0	0	0	0	1022	618
15	0	0	0	0	1004	618
0	0	0	0	0	960	619
1	0	0	0	0	914	619
2	0	0	0	0	870	618
3	0	0	0	0	830	619
4	0	0	0	0	798	619
5	0	0	0	0	772	619
6	0	0	0	0	751	618
7	0	0	0	0	735	619
8	0	0	0	0	721	619
9	0	0	0	0	711	619
10	0	0	0	0	703	619
11	0	0	0	0	696	619
12	0	0	0	0	686	619
13	0	0	0	0	673	619
14	0	0	0	0	658	619
15	0	0	0	0	643	619
0	0	0	0	0	627	620
1	0	0	0	0	611	620
2	0	0	0	0	596	620
3	0	0	0	0	580	619
4	0	0	0	0	566	619
5	0	0	0	0	551	619
6	0	0	0	0	538	619
7	0	0	0	0	524	619
8	0	0	0	0	510	619
9	0	0	0	0	496	620
10	0	0	0	0	481	619
11	0	0	0	0	468	619
12	0	0	0	0	455	620
13	0	0	0	0	444	620
14	0	0	0	0	433	619
15	0	0	0	0	424	619
0	0	0	0	0	417	619
1	0	0	0	0	410	619
2	0	0	0	0	403	618
3	0	0	0	0	398	617
4	0	0	0	0	393	618
5	0	0	0	0	389	618
6	0	0	0	0	385	618
7	0	0	0	0	382	617
8	0	0	0	0	379	618
9	0	0	0	0	376	618
10	0	0	0	0	374	618
11	0	0	0	0	373	617
12	0	0	0	0	372	618
13	0	0	0	0	371	618
14	0	0	0	0	371	619
15	0	0	0	0	371	618
0	0	0	0	0	370	618
1	0	0	0	0	370	618
2	0	0	0	0	371	618
3	0	0	0	0	371	618
4	0	0	0	0	372	619
5	0	0	0	0	373	618
6	0	0	0	0	373	617
7	0	0	0	0	374	618
8	0	0	0	0	374	618
9	0	0	0	0	376	618
10	0	0	0	0	376	618
11	0	0	0	0	378	618
12	0	0	0	0	379	618
13	0	0	0	0	380	618
14	0	0	0	0	381	617
15	0	0	0	0	382	617
0	0	0	0	0	383	618
1	0	0	0	0	384	618
2	0	0	0	0	385	618
3	0	0	0	0	386	618
4	0	0	0	0	387	618
5	0	0	0	0	387	619
6	0	0	0	0	387	617
7	0	0	0	0	388	619
8	0	0	0	0	388	618
9	0	0	0	0	389	619
10	0	0	0	0	391	619
11	0	0	0	0	391	619
12	0	0	0	0	392	619
13	0	0	0	0	393	619
14	0	0	0	0	393	619
15	0	0	0	0	393	620
0	0	0	0	0	394	620
1	0	0	0	0	395	620
2	0	0	0	0	396	620
3	0	0	0	0	398	620
4	0	0	0	0	399	619
5	0	0	0	0	399	619
6	0	0	0	0	400	619
7	0	0	0	0	401	619
8	0	0	0	0	402	619
9	0	0	0	0	403	620
10	0	0	0	0	404	619
11	0	0	0	0	405	618
12	0	0	0	0	407	618
13	0	0	0	0	408	618
14	0	0	0	0	408	618
15	0	0	0	0	409	618
0	0	0	0	0	411	619
1	0	0	0	0	412	619
2	0	0	0	0	412	617
3	0	0	0	0	413	618
4	0	0	0	0	414	617
5	0	0	0	0	415	617
6	0	0	0	0	416	616
7	0	0	0	0	416	617
8	0	0	0	0	416	616
9	0	0	0	0	417	617
10	0	0	0	0	418	617
11	0	0	0	0	419	617
12	0	0	0	0	419	617
13	0	0	0	0	420	617
14	0	0	0	0	421	617
15	0	0	0	0	422	617
0	0	0	0	0	423	617
1	0	0	0	0	424	618
2	0	0	0	0	425	617
3	0	0	0	0	427	617
4	0	0	0	0	427	618
5	0	0	0	0	428	619
6	0	0	0	0	429	618
7	0	0	0	0	430	619
8	0	0	0	0	431	619
9	0	0	0	0	432	620
10	0	0	0	0	432	619
11	0	0	0	0	433	618
12	0	0	0	0	434	619
13	0	0	0	0	435	618
14	0	0	0	0	436	619
15	0	0	0	0	437	619
0	0	0	0	0	437	619
1	0	0	0	0	438	620
2	0	0	0	0	439	619
3	0	0	0	0	440	618
4	0	0	0	0	440	618
5	0	0	0	0	441	618
6	0	0	0	0	443	619
7	0	0	0	0	443	619
8	0	0	0	0	444	619
9	0	0	0	0	445	619
10	0	0	0	0	447	618
11	0	0	0	0	447	618
12	0	0	0	0	448	618
13	0	0	0	0	448	618
14	0	0	0	0	449	619
15	0	0	0	0	450	618
0	0	0	0	0	452	618
1	0	0	0	0	454	619
2	0	0	0	0	455	619
3	0	0	0	0	456	618
4	0	0	0	0	457	618
5	0	0	0	0	458	618
6	0	0	0	0	459	618
7	0	0	0	0	460	617
8	0	0	0	0	462	618
9	0	0	0	0	463	618
10	0	0	0	0	464	617
11	0	0	0	0	465	617
12	0	0	0	0	465	617
13	0	0	0	0	466	617
14	0	0	0	0	467	617
15	0	0	0	0	467	618
0	0	0	0	0	468	618
1	0	0	0	0	468	618
2	0	0	0	0	469	618
3	0	0	0	0	470	618
4	0	0	0	0	471	618
5	0	0	0	0	472	618
6	0	0	0	0	472	618
7	0	0	0	0	473	618
8	0	0	0	0	474	617
9	0	0	0	0	474	619
10	0	0	0	0	475	618
11	0	0	0	0	476	618
12	0	0	0	0	477	618
13	0	0	0	0	477	618
14	0	0	0	0	477	619
15	0	0	0	0	478	619
0	0	0	0	0	478	618
1	0	0	0	0	478	619
2	0	0	0	0	479	619
3	0	0	0	0	479	619
4	0	0	0	0	479	619
5	0	0	0	0	480	619
6	0	0	0	0	480	618
7	0	0	0	0	481	618
8	0	0	0	0	481	618
9	0	0	0	0	481	618
10	0	0	0	0	482	618
11	0	0	0	0	483	618
12	0	0	0	0	483	618
13	0	0	0	0	483	618
14	0	0	0	0	485	619
15	0	0	0	0	485	619
0	0	0	0	0	486	619
1	0	0	0	0	486	620
2	0	0	0	0	487	619
3	0	0	0	0	487	619
4	0	0	0	0	487	619
5	0	0	0	0	487	619
6	0	0	0	0	488	619
7	0	0	0	0	489	619
8	0	0	0	0	489	618
9	0	0	0	0	489	619
10	0	0	0	0	490	618
11	0	0	0	0	490	619
12	0	0	0	0	491	619
13	0	0	0	0	491	619
14	0	0	0	0	492	619
15	0	0	0	0	493	619
0	0	0	0	0	493	619
1	0	0	0	0	494	619
2	0	0	0	0	494	619
3	0	0	0	0	495	619
4	0	0	0	0	495	619
5	0	0	0	0	495	619
6	0	0	0	0	496	619
7	0	0	0	0	496	619
8	0	0	0	0	497	618
9	0	0	0	0	498	619
10	0	0	0	0	499	617
11	0	0	0	0	500	618
12	0	0	0	0	500	618
13	0	0	0	0	501	619
14	0	0	0	0	502	619
15	0	0	0	0	503	618
0	0	0	0	0	504	618
1	0	0	0	0	505	619
2	0	0	0	0	506	617
3	0	0	0	0	508	617
4	0	0	0	0	508	618
5	0	0	0	0	509	617
6	0	0	0	0	510	617
7	0	0	0	0	511	617
8	0	0	0	0	511	618
9	0	0	0	0	513	618
10	0	0	0	0	514	618
11	0	0	0	0	515	617
12	0	0	0	0	515	618
13	0	0	0	0	516	619
14	0	0	0	0	516	618
15	0	0	0	0	518	618
0	0	0	0	0	518	618
1	0	0	0	0	519	618
2	0	0	0	0	519	618
3	0	0	0	0	520	618
4	0	0	0	0	520	618
5	0	0	0	0	521	619
6	0	0	0	0	522	619
7	0	0	0	0	523	619
8	0	0	0	0	524	619
9	0	0	0	0	525	620
10	0	0	0	0	524	619
11	0	0	0	0	526	619
12	0	0	0	0	527	619
13	0	0	0	0	527	619
14	0	0	0	0	527	619
15	0	0	0	0	528	619
0	0	0	0	0	527	618
1	0	0	0	0	527	619
2	0	0	0	0	528	618
3	0	0	0	0	529	618
4	0	0	0	0	530	619
5	0	0	0	0	531	619
6	0	0	0	0	532	619
7	0	0	0	0	532	619
8	0	0	0	0	533	619
9	0	0	0	0	534	619
10	0	0	0	0	534	619
11	0	0	0	0	534	619
12	0	0	0	0	533	619
13	0	0	0	0	534	619
14	0	0	0	0	534	619
15	0	0	0	0	533	619
0	0	0	0	0	533	618
1	0	0	0	0	533	619
2	0	0	0	0	532	619
3	0	0	0	0	533	619
4	0	0	0	0	533	619
5	0	0	0	0	534	618
6	0	0	0	0	534	618
7	0	0	0	0	535	619
8	0	0	0	0	535	619
9	0	0	0	0	535	619
10	0	0	0	0	535	619
11	0	0	0	0	535	619
12	0	0	0	0	535	619
13	0	0	0	0	535	619
14	0	0	0	0	533	618
15	0	0	0	0	533	617
0	0	0	0	0	533	617
1	0	0	0	0	533	617
2	0	0	0	0	533	616
3	0	0	0	0	533	616
4	0	0	0	0	532	616
5	0	0	0	0	532	616
6	0	0	0	0	533	617
7	0	0	0	0	533	618
8	0	0	0	0	532	618
9	0	0	0	0	531	619
10	0	0	0	0	532	619
11	0	0	0	0	532	619
12	0	0	0	0	532	619
13	0	0	0	0	531	619
14	0	0	0	0	531	619
15	0	0	0	0	530	619
0	0	0	0	0	531	620
1	0	0	0	0	530	620
2	0	0	0	0	530	619
3	0	0	0	0	529	620
4	0	0	0	0	529	620
5	0	0	0	0	529	620
6	0	0	0	0	529	620
7	0	0	0	0	529	620
8	0	0	0	0	529	620
9	0	0	0	0	528	620
10	0	0	0	0	528	621
11	0	0	0	0	527	620
12	0	0	0	0	527	620
13	0	0	0	0	528	620
14	0	0	0	0	528	620
15	0	0	0	0	528	620
0	0	0	0	0	528	619
1	0	0	0	0	527	619
2	0	0	0	0	527	619
3	0	0	0	0	527	619
4	0	0	0	0	527	619
5	0	0	0	0	527	619
6	0	0	0	0	528	619
7	0	0	0	0	528	618
8	0	0	0	0	529	619
9	0	0	0	0	529	619
10	0	0	0	0	529	618
11	0	0	0	0	529	619
12	0	0	0	0	529	618
13	0	0	0	0	528	618
14	0	0	0	0	528	618
15	0	0	0	0	529	618
0	0	0	0	0	529	618
1	0	0	0	0	529	618
2	0	0	0	0	529	618
3	0	0	0	0	529	618
4	0	0	0	0	528	617
5	0	0	0	0	528	618
6	0	0	0	0	528	618
7	0	0	0	0	528	617
8	0	0	0	0	527	617
9	0	0	0	0	527	617
10	0	0	0	0	527	617
11	0	0	0	0	527	617
12	0	0	0	0	527	617
13	0	0	0	0	527	617
14	0	0	0	0	527	618
15	0	0	0	0	527	617
0	0	0	0	0	527	617
1	0	0	0	0	527	618
2	0	0	0	0	527	617
3	0	0	0	0	527	617
4	0	0	0	0	527	618
5	0	0	0	0	527	618
6	0	0	0	0	527	619
7	0	0	0	0	526	618
8	0	0	0	0	527	619
9	0	0	0	0	527	619
10	0	0	0	0	527	618
11	0	0	0	0	527	618
12	0	0	0	0	528	618
13	0	0	0	0	527	618
14	0	0	0	0	527	619
15	0	0	0	0	527	619
0	0	0	0	0	527	619
1	0	0	0	0	528	620
2	0	0	0	0	528	618
3	0	0	0	0	529	619
4	0	0	0	0	529	619
5	0	0	0	0	529	619
6	0	0	0	0	529	619
7	0	0	0	0	530	619
8	0	0	0	0	530	619
9	0	0	0	0	531	619
10	0	0	0	0	532	619
11	0	0	0	0	532	620
12	0	0	0	0	532	619
13	0	0	0	0	533	620
14	0	0	0	0	533	619
15	0	0	0	0	532	619
0	0	0	0	0	532	619
1	0	0	0	0	532	620
2	0	0	0	0	532	619
3	0	0	0	0	531	619
4	0	0	0	0	531	618
5	0	0	0	0	531	618
6	0	0	0	0	531	617
7	0	0	0	0	531	617
8	0	0	0	0	531	617
9	0	0	0	0	531	617
10	0	0	0	0	532	617
11	0	0	0	0	533	617
12	0	0	0	0	533	617
13	0	0	0	0	533	617
14	0	0	0	0	532	617
15	0	0	0	0	532	618
0	0	0	0	0	531	617
1	0	0	0	0	532	617
2	0	0	0	0	532	618
3	0	0	0	0	531	617
4	0	0	0	0	532	617
5	0	0	0	0	532	617
6	0	0	0	0	532	617
7	0	0	0	0	531	617
8	0	0	0	0	531	617
9	0	0	0	0	531	617
10	0	0	0	0	531	617
11	0	0	0	0	531	618
12	0	0	0	0	531	618
13	0	0	0	0	531	617
14	0	0	0	0	532	617
15	0	0	0	0	532	618
0	0	0	0	0	532	618
1	0	0	0	0	531	618
2	0	0	0	0	531	618
3	0	0	0	0	532	619
4	0	0	0	0	532	618
5	0	0	0	0	532	619
6	0	0	0	0	531	619
7	0	0	0	0	531	619
8	0	0	0	0	531	620
9	0	0	0	0	530	620
10	0	0	0	0	529	618
11	0	0	0	0	529	619
12	0	0	0	0	528	619
13	0	0	0	0	528	618
14	0	0	0	0	528	619
15	0	0	0	0	527	618
0	0	0	0	0	527	617
1	0	0	0	0	527	618
2	0	0	0	0	526	619
3	0	0	0	0	525	618
4	0	0	0	0	524	618
5	0	0	0	0	524	617
6	0	0	0	0	523	618
7	0	0	0	0	522	618
8	0	0	0	0	521	618
9	0	0	0	0	521	619
10	0	0	0	0	520	618
11	0	0	0	0	519	619
12	0	0	0	0	519	619
13	0	0	0	0	519	619
14	0	0	0	0	519	619
15	0	0	0	0	518	619
0	0	0	0	0	517	619
1	0	0	0	0	516	620
2	0	0	0	0	516	620
3	0	0	0	0	516	619
4	0	0	0	0	515	620
5	0	0	0	0	515	619
6	0	0	0	0	514	619
7	0	0	0	0	514	619
8	0	0	0	0	514	619
9	0	0	0	0	514	619
10	0	0	0	0	513	619
11	0	0	0	0	514	619
12	0	0	0	0	513	619
13	0	0	0	0	513	620
14	0	0	0	0	514	619
15	0	0	0	0	515	619
0	0	0	0	0	515	619
1	0	0	0	0	515	620
2	0	0	0	0	516	619
3	0	0	0	0	516	619
4	0	0	0	0	517	619
5	0	0	0	0	518	619
6	0	0	0	0	519	619
7	0	0	0	0	519	618
8	0	0	0	0	520	618
9	0	0	0	0	520	618
10	0	0	0	0	521	619
11	0	0	0	0	521	618
12	0	0	0	0	522	617
13	0	0	0	0	524	617
14	0	0	0	0	524	617
15	0	0	0	0	525	617
0	0	0	0	0	525	617
1	0	0	0	0	526	618
2	0	0	0	0	526	617
3	0	0	0	0	527	617
4	0	0	0	0	526	618
5	0	0	0	0	527	618
6	0	0	0	0	527	617
7	0	0	0	0	526	617
8	0	0	0	0	526	617
9	0	0	0	0	525	618
10	0	0	0	0	525	617
11	0	0	0	0	525	618
12	0	0	0	0	525	618
13	0	0	0	0	524	618
14	0	0	0	0	524	618
15	0	0	0	0	524	618
0	0	0	0	0	524	618
1	0	0	0	0	524	618
2	0	0	0	0	523	617
3	0	0	0	0	523	618
4	0	0	0	0	523	618
5	0	0	0	0	522	617
6	0	0	0	0	523	617
7	0	0	0	0	522	617
8	0	0	0	0	522	617
9	0	0	0	0	521	618
10	0	0	0	0	521	617
11	0	0	0	0	521	618
12	0	0	0	0	520	617
13	0	0	0	0	520	618
14	0	0	0	0	521	617
15	0	0	0	0	520	618
0	0	0	0	0	521	618
1	0	0	0	0	521	618
2	0	0	0	0	521	619
3	0	0	0	0	521	619
4	0	0	0	0	522	619
5	0	0	0	0	522	619
6	0	0	0	0	523	619
7	0	0	0	0	524	619
8	0	0	0	0	524	620
9	0	0	0	0	524	619
10	0	0	0	0	523	619
11	0	0	0	0	523	619
12	0	0	0	0	523	619
13	0	0	0	0	523	618
14	0	0	0	0	522	618
15	0	0	0	0	521	618
0	0	0	0	0	521	617
1	0	0	0	0	521	618
2	0	0	0	0	521	618
3	0	0	0	0	521	618
4	0	0	0	0	521	618
5	0	0	0	0	521	617
6	0	0	0	0	522	618
7	0	0	0	0	521	617
8	0	0	0	0	521	617
9	0	0	0	0	521	618
10	0	0	0	0	521	616
11	0	0	0	0	521	617
12	0	0	0	0	520	616
13	0	0	0	0	520	616
14	0	0	0	0	520	616
15	0	0	0	0	520	616
0	0	0	0	0	519	617
1	0	0	0	0	519	617
2	0	0	0	0	519	617
3	0	0	0	0	519	617
4	0	0	0	0	519	618
5	0	0	0	0	519	618
6	0	0	0	0	519	619
7	0	0	0	0	519	619
8	0	0	0	0	518	619
9	0	0	0	0	518	619
10	0	0	0	0	518	619
11	0	0	0	0	516	619
12	0	0	0	0	517	619
13	0	0	0	0	516	620
14	0	0	0	0	516	619
15	0	0	0	0	516	619
0	0	0	0	0	515	620
1	0	0	0	0	515	620
2	0	0	0	0	515	619
3	0	0	0	0	515	619
4	0	0	0	0	515	619
5	0	0	0	0	515	619
6	0	0	0	0	515	619
7	0	0	0	0	515	619
8	0	0	0	0	515	619
9	0	0	0	0	515	620
10	0	0	0	0	515	619
11	0	0	0	0	515	619
12	0	0	0	0	515	620
13	0	0	0	0	515	619
14	0	0	0	0	515	619
15	0	0	0	0	514	619
0	0	0	0	0	514	619
1	0	0	0	0	513	619
2	0	0	0	0	513	619
3	0	0	0	0	513	619
4	0	0	0	0	512	619
5	0	0	0	0	512	619
6	0	0	0	0	511	618
7	0	0	0	0	510	619
8	0	0	0	0	511	619
9	0	0	0	0	510	618
10	0	0	0	0	510	619
11	0	0	0	0	510	619
12	0	0	0	0	510	619
13	0	0	0	0	510	618
14	0	0	0	0	511	618
15	0	0	0	0	512	618
0	0	0	0	0	511	618
1	0	0	0	0	512	619
2	0	0	0	0	512	619
3	0	0	0	0	512	618
4	0	0	0	0	512	619
5	0	0	0	0	510	618
6	0	0	0	0	509	617
7	0	0	0	0	508	618
8	0	0	0	0	506	617
9	0	0	0	0	503	618
10	0	0	0	0	499	618
11	0	0	0	0	493	618
12	0	0	0	0	485	618
13	0	0	0	0	477	618
14	0	0	0	0	468	618
15	0	0	0	0	459	617
0	0	0	0	0	450	617
1	0	0	0	0	442	618
2	0	0	0	0	432	617
3	0	0	0	0	423	618
4	0	0	0	0	411	617
5	0	0	0	0	403	617
6	0	0	0	0	400	618
7	0	0	0	0	397	617
8	0	0	0	0	396	618
9	0	0	0	0	394	619
10	0	0	0	0	391	618
11	0	0	0	0	393	618
12	0	0	0	0	399	618
13	0	0	0	0	412	619
14	0	0	0	0	425	619
15	0	0	0	0	440	618
0	0	0	0	0	459	619
1	0	0	0	0	483	619
2	0	0	0	0	513	619
3	0	0	0	0	553	618
4	0	0	0	0	600	618
5	0	0	0	0	655	618
6	0	0	0	0	718	619
7	0	0	0	0	783	618
8	0	0	0	0	853	618
9	0	0	0	0	920	619
10	0	0	0	0	977	618
11	0	0	0	0	1020	618
12	0	0	0	0	1022	618
13	0	0	0	0	1022	619
14	0	0	0	0	1022	618
15	0	0	0	0	1022	617
0	0	0	0	0	1022	617
1	0	0	0	0	1022	619
2	0	0	0	0	1022	618
3	0	0	0	0	1014	617
4	0	0	0	0	965	618
5	0	0	0	0	920	617
6	0	0	0	0	875	618
7	0	0	0	0	835	618
8	0	0	0	0	802	618
9	0	0	0	0	776	619
10	0	0	0	0	755	619
11	0	0	0	0	738	618
12	0	0	0	0	724	618
13	0	0	0	0	714	619
14	0	0	0	0	706	619
15	0	0	0	0	696	619
0	0	0	0	0	685	619
1	0	0	0	0	672	619
2	0	0	0	0	656	619
3	0	0	0	0	641	619
4	0	0	0	0	625	619
5	0	0	0	0	610	619
6	0	0	0	0	595	619
7	0	0	0	0	579	618
8	0	0	0	0	565	619
9	0	0	0	0	551	620
10	0	0	0	0	537	619
11	0	0	0	0	523	619
12	0	0	0	0	509	619
13	0	0	0	0	494	619
14	0	0	0	0	480	619
15	0	0	0	0	467	620
0	0	0	0	0	455	619
1	0	0	0	0	444	619
2	0	0	0	0	435	619
3	0	0	0	0	425	619
4	0	0	0	0	416	618
5	0	0	0	0	409	619
6	0	0	0	0	403	619
7	0	0	0	0	398	619
8	0	0	0	0	392	619
9	0	0	0	0	388	619
10	0	0	0	0	384	618
11	0	0	0	0	381	619
12	0	0	0	0	379	618
13	0	0	0	0	377	619
14	0	0	0	0	375	619
15	0	0	0	0	375	618
0	0	0	0	0	373	617
1	0	0	0	0	372	618
2	0	0	0	0	371	619
3	0	0	0	0	372	619
4	0	0	0	0	372	619
5	0	0	0	0	372	618
6	0	0	0	0	373	619
7	0	0	0	0	372	619
8	0	0	0	0	372	619
9	0	0	0	0	372	619
10	0	0	0	0	372	619
11	0	0	0	0	373	618
12	0	0	0	0	374	618
13	0	0	0	0	376	618
14	0	0	0	0	376	618
15	0	0	0	0	377	618
0	0	0	0	0	379	617
1	0	0	0	0	380	618
2	0	0	0	0	381	618
3	0	0	0	0	382	617
4	0	0	0	0	383	618
5	0	0	0	0	384	618
6	0	0	0	0	384	618
7	0	0	0	0	384	618
8	0	0	0	0	385	619
9	0	0	0	0	386	619
10	0	0	0	0	387	619
11	0	0	0	0	388	618
12	0	0	0	0	388	618
13	0	0	0	0	390	619
14	0	0	0	0	391	618
15	0	0	0	0	392	619
0	0	0	0	0	392	619
1	0	0	0	0	392	619
2	0	0	0	0	393	618
3	0	0	0	0	394	619
4	0	0	0	0	395	620
5	0	0	0	0	396	619
6	0	0	0	0	396	619
7	0	0	0	0	398	619
8	0	0	0	0	399	619
9	0	0	0	0	400	619
10	0	0	0	0	401	619
11	0	0	0	0	402	619
12	0	0	0	0	402	618
13	0	0	0	0	403	619
14	0	0	0	0	404	619
15	0	0	0	0	405	619
0	0	0	0	0	406	619
1	0	0	0	0	407	619
2	0	0	0	0	408	618
3	0	0	0	0	409	618
4	0	0	0	0	410	618
5	0	0	0	0	411	618
6	0	0	0	0	412	618
7	0	0	0	0	412	617
8	0	0	0	0	414	617
9	0	0	0	0	415	617
10	0	0	0	0	416	617
11	0	0	0	0	416	617
12	0	0	0	0	418	618
13	0	0	0	0	419	618
14	0	0	0	0	419	617
15	0	0	0	0	419	617
0	0	0	0	0	421	618
1	0	0	0	0	422	618
2	0	0	0	0	423	618
3	0	0	0	0	423	617
4	0	0	0	0	424	617
5	0	0	0	0	425	618
6	0	0	0	0	425	618
7	0	0	0	0	425	619
8	0	0	0	0	427	618
9	0	0	0	0	428	619
10	0	0	0	0	428	618
11	0	0	0	0	429	619
12	0	0	0	0	430	619
13	0	0	0	0	429	619
14	0	0	0	0	431	619
15	0	0	0	0	432	619
0	0	0	0	0	433	619
1	0	0	0	0	435	620
2	0	0	0	0	435	619
3	0	0	0	0	436	619
4	0	0	0	0	438	619
5	0	0	0	0	438	619
6	0	0	0	0	440	619
7	0	0	0	0	440	619
8	0	0	0	0	442	619
9	0	0	0	0	443	620
10	0	0	0	0	444	619
11	0	0	0	0	446	619
12	0	0	0	0	446	619
13	0	0	0	0	448	619
14	0	0	0	0	449	619
15	0	0	0	0	449	618
0	0	0	0	0	450	619
1	0	0	0	0	451	618
2	0	0	0	0	453	619
3	0	0	0	0	454	618
4	0	0	0	0	455	618
5	0	0	0	0	456	618
6	0	0	0	0	458	619
7	0	0	0	0	459	619
8	0	0	0	0	461	618
9	0	0	0	0	462	619
10	0	0	0	0	463	618
11	0	0	0	0	463	618
12	0	0	0	0	464	618
13	0	0	0	0	465	618
14	0	0	0	0	465	618
15	0	0	0	0	467	619
0	0	0	0	0	468	619
1	0	0	0	0	469	619
2	0	0	0	0	470	618
3	0	0	0	0	471	618
4	0	0	0	0	471	619
5	0	0	0	0	472	619
6	0	0	0	0	472	618
7	0	0	0	0	472	618
8	0	0	0	0	474	618
9	0	0	0	0	475	619
10	0	0	0	0	475	619
11	0	0	0	0	476	620
12	0	0	0	0	476	619
13	0	0	0	0	477	619
14	0	0	0	0	477	619
15	0	0	0	0	478	619
0	0	0	0	0	479	619
1	0	0	0	0	480	619
2	0	0	0	0	480	619
3	0	0	0	0	481	619
4	0	0	0	0	482	620
5	0	0	0	0	482	619
6	0	0	0	0	482	619
7	0	0	0	0	483	619
8	0	0	0	0	483	619
9	0	0	0	0	484	619
10	0	0	0	0	484	619
11	0	0	0	0	485	618
12	0	0	0	0	485	618
13	0	0	0	0	486	618
14	0	0	0	0	486	618
15	0	0	0	0	487	618
0	0	0	0	0	487	618
1	0	0	0	0	488	618
2	0	0	0	0	488	617
3	0	0	0	0	489	618
4	0	0	0	0	489	617
5	0	0	0	0	489	618
6	0	0	0	0	490	618
7	0	0	0	0	491	618
8	0	0	0	0	490	618
9	0	0	0	0	490	618
10	0	0	0	0	491	618
11	0	0	0	0	491	618
12	0	0	0	0	491	619
13	0	0	0	0	492	619
14	0	0	0	0	492	618
15	0	0	0	0	492	618
0	0	0	0	0	492	618
1	0	0	0	0	492	619
2	0	0	0	0	493	618
3	0	0	0	0	494	618
4	0	0	0	0	494	618
5	0	0	0	0	495	618
6	0	0	0	0	495	618
7	0	0	0	0	495	618
8	0	0	0	0	496	619
9	0	0	0	0	497	618
10	0	0	0	0	497	618
11	0	0	0	0	498	618
12	0	0	0	0	499	619
13	0	0	0	0	500	619
14	0	0	0	0	500	618
15	0	0	0	0	501	618
0	0	0	0	0	502	618
1	0	0	0	0	503	619
2	0	0	0	0	504	618
3	0	0	0	0	504	619
4	0	0	0	0	504	619
5	0	0	0	0	505	619
6	0	0	0	0	506	619
7	0	0	0	0	508	619
8	0	0	0	0	508	618
9	0	0	0	0	509	618
10	0	0	0	0	510	618
11	0	0	0	0	511	618
12	0	0	0	0	512	619
13	0	0	0	0	513	618
14	0	0	0	0	513	618
15	0	0	0	0	514	618
0	0	0	0	0	514	618
1	0	0	0	0	515	619
2	0	0	0	0	516	618
3	0	0	0	0	516	618
4	0	0	0	0	517	618
5	0	0	0	0	519	618
6	0	0	0	0	519	618
7	0	0	0	0	520	618
8	0	0	0	0	521	618
9	0	0	0	0	523	619
10	0	0	0	0	522	618
11	0	0	0	0	524	618
12	0	0	0	0	524	618
13	0	0	0	0	525	618
14	0	0	0	0	525	618
15	0	0	0	0	526	618
0	0	0	0	0	526	618
1	0	0	0	0	527	619
2	0	0	0	0	528	618
3	0	0	0	0	528	618
4	0	0	0	0	528	618
5	0	0	0	0	529	618
6	0	0	0	0	529	619
7	0	0	0	0	528	619
8	0	0	0	0	528	618
9	0	0	0	0	528	619
10	0	0	0	0	528	619
11	0	0	0	0	529	619
12	0	0	0	0	529	619
13	0	0	0	0	530	620
14	0	0	0	0	531	619
15	0	0	0	0	531	619
0	0	0	0	0	531	619
1	0	0	0	0	531	619
2	0	0	0	0	531	619
3	0	0	0	0	530	619
4	0	0	0	0	530	619
5	0	0	0	0	531	619
6	0	0	0	0	531	619
7	0	0	0	0	531	619
8	0	0	0	0	531	619
9	0	0	0	0	531	619
10	0	0	0	0	531	618
11	0	0	0	0	531	617
12	0	0	0	0	531	617
13	0	0	0	0	531	617
14	0	0	0	0	531	617
15	0	0	0	0	531	617
0	0	0	0	0	531	617
1	0	0	0	0	531	618
2	0	0	0	0	530	617
3	0	0	0	0	530	618
4	0	0	0	0	530	618
5	0	0	0	0	530	618
6	0	0	0	0	531	619
7	0	0	0	0	530	617
8	0	0	0	0	530	618
9	0	0	0	0	530	619
10	0	0	0	0	530	619
11	0	0	0	0	530	619
12	0	0	0	0	530	619
13	0	0	0	0	530	619
14	0	0	0	0	530	620
15	0	0	0	0	530	619
0	0	0	0	0	529	619
1	0	0	0	0	529	620
2	0	0	0	0	529	619
3	0	0	0	0	529	619
4	0	0	0	0	529	619
5	0	0	0	0	529	619
6	0	0	0	0	529	619
7	0	0	0	0	528	619
8	0	0	0	0	529	619
9	0	0	0	0	529	619
10	0	0	0	0	528	619
11	0	0	0	0	528	619
12	0	0	0	0	528	619
13	0	0	0	0	528	619
14	0	0	0	0	527	618
15	0	0	0	0	526	619
0	0	0	0	0	526	618
1	0	0	0	0	526	619
2	0	0	0	0	526	619
3	0	0	0	0	525	619
4	0	0	0	0	524	619
5	0	0	0	0	524	619
6	0	0	0	0	523	619
7	0	0	0	0	523	618
8	0	0	0	0	523	618
9	0	0	0	0	523	618
10	0	0	0	0	523	617
11	0	0	0	0	523	618
12	0	0	0	0	524	617
13	0	0	0	0	524	618
14	0	0	0	0	524	618
15	0	0	0	0	524	619
0	0	0	0	0	524	619
1	0	0	0	0	524	619
2	0	0	0	0	523	618
3	0	0	0	0	523	619
4	0	0	0	0	523	619
5	0	0	0	0	523	620
6	0	0	0	0	523	619
7	0	0	0	0	522	620
8	0	0	0	0	523	618
9	0	0	0	0	522	619
10	0	0	0	0	522	619
11	0	0	0	0	521	618
12	0	0	0	0	521	619
13	0	0	0	0	521	618
14	0	0	0	0	522	618
15	0	0	0	0	521	618
0	0	0	0	0	521	618
1	0	0	0	0	522	619
2	0	0	0	0	522	619
3	0	0	0	0	522	618
4	0	0	0	0	522	619
5	0	0	0	0	521	618
6	0	0	0	0	520	618
7	0	0	0	0	521	619
8	0	0	0	0	521	617
9	0	0	0	0	521	619
10	0	0	0	0	521	617
11	0	0	0	0	521	617
12	0	0	0	0	521	618
13	0	0	0	0	520	619
14	0	0	0	0	519	618
15	0	0	0	0	519	617
0	0	0	0	0	519	617
1	0	0	0	0	519	619
2	0	0	0	0	519	618
3	0	0	0	0	519	617
4	0	0	0	0	519	618
5	0	0	0	0	519	618
6	0	0	0	0	518	618
7	0	0	0	0	519	618
8	0	0	0	0	519	618
9	0	0	0	0	519	618
10	0	0	0	0	519	618
11	0	0	0	0	519	618
12	0	0	0	0	519	619
13	0	0	0	0	519	618
14	0	0	0	0	519	619
15	0	0	0	0	519	619
0	0	0	0	0	520	619
1	0	0	0	0	520	619
2	0	0	0	0	520	619
3	0	0	0	0	520	619
4	0	0	0	0	520	619
5	0	0	0	0	521	619
6	0	0	0	0	521	619
7	0	0	0	0	522	619
8	0	0	0	0	523	619
9	0	0	0	0	523	620
10	0	0	0	0	523	620
11	0	0	0	0	523	618
12	0	0	0	0	523	619
13	0	0	0	0	524	619
14	0	0	0	0	524	619
15	0	0	0	0	524	619
0	0	0	0	0	524	618
1	0	0	0	0	524	619
2	0	0	0	0	525	619
3	0	0	0	0	524	618
4	0	0	0	0	525	619
5	0	0	0	0	525	619
6	0	0	0	0	525	619
7	0	0	0	0	524	618
8	0	0	0	0	525	618
9	0	0	0	0	525	618
10	0	0	0	0	525	618
11	0	0	0	0	525	618
12	0	0	0	0	524	618
13	0	0	0	0	524	618
14	0	0	0	0	525	619
15	0	0	0	0	525	618
0	0	0	0	0	525	618
1	0	0	0	0	525	618
2	0	0	0	0	525	617
3	0	0	0	0	525	618
4	0	0	0	0	525	619
5	0	0	0	0	524	618
6	0	0	0	0	523	617
7	0	0	0	0	523	618
8	0	0	0	0	522	617
9	0	0	0	0	521	618
10	0	0	0	0	521	617
11	0	0	0	0	521	618
12	0	0	0	0	520	617
13	0	0	0	0	520	618
14	0	0	0	0	520	618
15	0	0	0	0	519	618
0	0	0	0	0	519	619
1	0	0	0	0	518	619
2	0	0	0	0	518	619
3	0	0	0	0	518	618
4	0	0	0	0	517	618
5	0	0	0	0	517	617
6	0	0	0	0	516	618
7	0	0	0	0	516	618
8	0	0	0	0	515	618
9	0	0	0	0	514	619
10	0	0	0	0	513	619
11	0	0	0	0	513	618
12	0	0	0	0	513	618
13	0	0	0	0	513	618
14	0	0	0	0	512	618
15	0	0	0	0	511	618
0	0	0	0	0	511	617
1	0	0	0	0	512	619
2	0	0	0	0	512	618
3	0	0	0	0	511	618
4	0	0	0	0	511	618
5	0	0	0	0	511	618
6	0	0	0	0	511	618
7	0	0	0	0	512	618
8	0	0	0	0	512	618
9	0	0	0	0	513	618
10	0	0	0	0	513	618
11	0	0	0	0	514	617
12	0	0	0	0	514	618
13	0	0	0	0	515	618
14	0	0	0	0	516	619
15	0	0	0	0	518	618
0	0	0	0	0	518	617
1	0	0	0	0	519	618
2	0	0	0	0	519	618
3	0	0	0	0	519	617
4	0	0	0	0	520	618
5	0	0	0	0	521	618
6	0	0	0	0	522	618
7	0	0	0	0	522	618
8	0	0	0	0	523	618
9	0	0	0	0	524	619
10	0	0	0	0	524	618
11	0	0	0	0	525	618
12	0	0	0	0	525	618
13	0	0	0	0	526	618
14	0	0	0	0	526	618
15	0	0	0	0	526	619
0	0	0	0	0	526	619
1	0	0	0	0	526	619
2	0	0	0	0	525	618
3	0	0	0	0	525	618
4	0	0	0	0	525	618
5	0	0	0	0	525	618
6	0	0	0	0	524	618
7	0	0	0	0	524	618
8	0	0	0	0	525	618
9	0	0	0	0	525	619
10	0	0	0	0	524	618
11	0	0	0	0	524	618
12	0	0	0	0	523	619
13	0	0	0	0	523	619
14	0	0	0	0	523	619
15	0	0	0	0	523	618
0	0	0	0	0	524	618
1	0	0	0	0	524	619
2	0	0	0	0	523	619
3	0	0	0	0	523	618
4	0	0	0	0	523	619
5	0	0	0	0	522	618
6	0	0	0	0	523	618
7	0	0	0	0	524	619
8	0	0	0	0	524	619
9	0	0	0	0	523	618
10	0	0	0	0	523	619
11	0	0	0	0	524	618
12	0	0	0	0	524	618
13	0	0	0	0	525	618
14	0	0	0	0	525	618
15	0	0	0	0	526	618
0	0	0	0	0	525	618
1	0	0	0	0	526	619
2	0	0	0	0	526	618
3	0	0	0	0	526	618
4	0	0	0	0	526	618
5	0	0	0	0	526	618
6	0	0	0	0	525	619
7	0	0	0	0	525	619
8	0	0	0	0	525	619
9	0	0	0	0	525	619
10	0	0	0	0	524	619
11	0	0	0	0	524	618
12	0	0	0	0	524	618
13	0	0	0	0	523	619
14	0	0	0	0	523	619
15	0	0	0	0	522	619
0	0	0	0	0	522	619
1	0	0	0	0	522	620
2	0	0	0	0	521	619
3	0	0	0	0	521	619
4	0	0	0	0	521	619
5	0	0	0	0	521	619
6	0	0	0	0	521	619
7	0	0	0	0	521	619
8	0	0	0	0	520	619
9	0	0	0	0	520	619
10	0	0	0	0	520	619
11	0	0	0	0	520	619
12	0	0	0	0	519	619
13	0	0	0	0	520	619
14	0	0	0	0	519	618
15	0	0	0	0	519	618
0	0	0	0	0	519	619
1	0	0	0	0	519	619
2	0	0	0	0	519	619
3	0	0	0	0	519	619
4	0	0	0	0	519	618
5	0	0	0	0	518	618
6	0	0	0	0	517	618
7	0	0	0	0	518	619
8	0	0	0	0	517	619
9	0	0	0	0	517	615
10	0	0	0	0	518	618
11	0	0	0	0	518	618
12	0	0	0	0	518	618
13	0	0	0	0	518	620
14	0	0	0	0	518	618
15	0	0	0	0	518	617
0	0	0	0	0	518	617
1	0	0	0	0	517	615
2	0	0	0	0	517	619
3	0	0	0	0	516	618
4	0	0	0	0	516	618
5	0	0	0	0	515	621
6	0	0	0	0	515	618
7	0	0	0	0	516	618
8	0	0	0	0	516	618
9	0	0	0	0	515	616
10	0	0	0	0	515	618
11	0	0	0	0	514	619
12	0	0	0	0	515	619
13	0	0	0	0	514	621
14	0	0	0	0	513	618
15	0	0	0	0	513	619
0	0	0	0	0	513	618
1	0	0	0	0	513	616
2	0	0	0	0	513	618
3	0	0	0	0	513	619
4	0	0	0	0	513	618
5	0	0	0	0	513	621
6	0	0	0	0	513	618
7	0	0	0	0	513	618
8	0	0	0	0	514	618
9	0	0	0	0	514	616
10	0	0	0	0	514	618
11	0	0	0	0	514	618
12	0	0	0	0	515	618
13	0	0	0	0	515	620
14	0	0	0	0	514	618
15	0	0	0	0	514	617
0	0	0	0	0	513	618
1	0	0	0	0	512	615
2	0	0	0	0	512	617
3	0	0	0	0	510	618
4	0	0	0	0	508	618
5	0	0	0	0	505	621
6	0	0	0	0	500	618
7	0	0	0	0	495	618
8	0	0	0	0	488	618
9	0	0	0	0	479	615
10	0	0	0	0	471	618
11	0	0	0	0	462	618
12	0	0	0	0	453	618
13	0	0	0	0	444	620
14	0	0	0	0	435	618
15	0	0	0	0	427	618
0	0	0	0	0	416	618
1	0	0	0	0	408	616
2	0	0	0	0	404	618
3	0	0	0	0	402	618
4	0	0	0	0	400	618
5	0	0	0	0	399	621
6	0	0	0	0	397	618
7	0	0	0	0	398	618
8	0	0	0	0	404	618
9	0	0	0	0	416	615
10	0	0	0	0	429	618
11	0	0	0	0	443	618
12	0	0	0	0	460	618
13	0	0	0	0	482	620
14	0	0	0	0	511	618
15	0	0	0	0	548	619
0	0	0	0	0	592	619
1	0	0	0	0	646	616
2	0	0	0	0	706	618
3	0	0	0	0	770	618
4	0	0	0	0	839	618
5	0	0	0	0	907	620
6	0	0	0	0	964	617
7	0	0	0	0	1012	618
8	0	0	0	0	1022	618
9	0	0	0	0	1022	615
10	0	0	0	0	1022	618
11	0	0	0	0	1022	617
12	0	0	0	0	1022	617
13	0	0	0	0	1022	620
14	0	0	0	0	1022	618
15	0	0	0	0	1009	618
0	0	0	0	0	962	618
1	0	0	0	0	917	615
2	0	0	0	0	872	618
3	0	0	0	0	832	617
4	0	0	0	0	800	618
5	0	0	0	0	774	620
6	0	0	0	0	753	618
7	0	0	0	0	737	619
8	0	0	0	0	723	618
9	0	0	0	0	715	615
10	0	0	0	0	707	618
11	0	0	0	0	699	618
12	0	0	0	0	689	619
13	0	0	0	0	676	621
14	0	0	0	0	661	619
15	0	0	0	0	645	618
0	0	0	0	0	630	618
1	0	0	0	0	614	616
2	0	0	0	0	600	619
3	0	0	0	0	585	619
4	0	0	0	0	570	619
5	0	0	0	0	556	621
6	0	0	0	0	542	618
7	0	0	0	0	528	619
8	0	0	0	0	515	619
9	0	0	0	0	500	616
10	0	0	0	0	486	619
11	0	0	0	0	473	619
12	0	0	0	0	460	619
13	0	0	0	0	449	622
14	0	0	0	0	440	619
15	0	0	0	0	430	619
0	0	0	0	0	422	619
1	0	0	0	0	414	616
2	0	0	0	0	408	619
3	0	0	0	0	403	619
4	0	0	0	0	398	619
5	0	0	0	0	394	621
6	0	0	0	0	390	619
7	0	0	0	0	387	618
8	0	0	0	0	384	619
9	0	0	0	0	383	616
10	0	0	0	0	380	618
11	0	0	0	0	378	618
12	0	0	0	0	377	619
13	0	0	0	0	377	620
14	0	0	0	0	377	619
15	0	0	0	0	377	618
0	0	0	0	0	377	618
1	0	0	0	0	376	616
2	0	0	0	0	376	618
3	0	0	0	0	377	617
4	0	0	0	0	377	617
5	0	0	0	0	378	620
6	0	0	0	0	379	617
7	0	0	0	0	379	618
8	0	0	0	0	378	618
9	0	0	0	0	379	615
10	0	0	0	0	379	617
11	0	0	0	0	380	617
12	0	0	0	0	381	617
13	0	0	0	0	382	620
14	0	0	0	0	383	618
15	0	0	0	0	383	618
0	0	0	0	0	384	619
1	0	0	0	0	385	615
2	0	0	0	0	385	618
3	0	0	0	0	385	618
4	0	0	0	0	386	618
5	0	0	0	0	387	621
6	0	0	0	0	388	618
7	0	0	0	0	389	618
8	0	0	0	0	390	619
9	0	0	0	0	391	615
10	0	0	0	0	392	619
11	0	0	0	0	393	618
12	0	0	0	0	393	618
13	0	0	0	0	394	620
14	0	0	0	0	395	618
15	0	0	0	0	395	618
0	0	0	0	0	395	618
1	0	0	0	0	396	615
2	0	0	0	0	397	618
3	0	0	0	0	398	618
4	0	0	0	0	399	619
5	0	0	0	0	399	621
6	0	0	0	0	399	617
7	0	0	0	0	399	617
8	0	0	0	0	400	617
9	0	0	0	0	401	615
10	0	0	0	0	403	618
11	0	0	0	0	403	618
12	0	0	0	0	405	619
13	0	0	0	0	406	621
14	0	0	0	0	406	619
15	0	0	0	0	407	619
0	0	0	0	0	408	619
1	0	0	0	0	408	615
2	0	0	0	0	409	618
3	0	0	0	0	410	618
4	0	0	0	0	409	618
5	0	0	0	0	411	620
6	0	0	0	0	411	618
7	0	0	0	0	412	617
8	0	0	0	0	412	618
9	0	0	0	0	413	615
10	0	0	0	0	414	617
11	0	0	0	0	414	617
12	0	0	0	0	415	616
13	0	0	0	0	415	620
14	0	0	0	0	415	617
15	0	0	0	0	417	617
0	0	0	0	0	417	617
1	0	0	0	0	418	615
2	0	0	0	0	418	617
3	0	0	0	0	419	618
4	0	0	0	0	420	617
5	0	0	0	0	422	620
6	0	0	0	0	422	618
7	0	0	0	0	423	618
8	0	0	0	0	424	618
9	0	0	0	0	424	615
10	0	0	0	0	425	618
11	0	0	0	0	427	619
12	0	0	0	0	428	618
13	0	0	0	0	428	621
14	0	0	0	0	429	619
15	0	0	0	0	429	619
0	0	0	0	0	431	620
1	0	0	0	0	432	617
2	0	0	0	0	434	620
3	0	0	0	0	435	620
4	0	0	0	0	436	620
5	0	0	0	0	438	622
6	0	0	0	0	439	620
7	0	0	0	0	440	619
8	0	0	0	0	442	620
9	0	0	0	0	444	616
10	0	0	0	0	444	619
11	0	0	0	0	446	620
12	0	0	0	0	447	619
13	0	0	0	0	448	621
14	0	0	0	0	450	619
15	0	0	0	0	451	618
0	0	0	0	0	452	619
1	0	0	0	0	453	616
2	0	0	0	0	455	619
3	0	0	0	0	455	619
4	0	0	0	0	456	619
5	0	0	0	0	457	621
6	0	0	0	0	458	619
7	0	0	0	0	459	619
8	0	0	0	0	460	619
9	0	0	0	0	460	616
10	0	0	0	0	462	619
11	0	0	0	0	462	618
12	0	0	0	0	462	618
13	0	0	0	0	462	620
14	0	0	0	0	463	619
15	0	0	0	0	464	619
0	0	0	0	0	465	619
1	0	0	0	0	466	616
2	0	0	0	0	467	617
3	0	0	0	0	467	618
4	0	0	0	0	468	618
5	0	0	0	0	468	620
6	0	0	0	0	469	618
7	0	0	0	0	469	618
8	0	0	0	0	469	618
9	0	0	0	0	469	615
10	0	0	0	0	468	618
11	0	0	0	0	469	618
12	0	0	0	0	470	617
13	0	0	0	0	471	620
14	0	0	0	0	472	618
15	0	0	0	0	472	618
0	0	0	0	0	472	618
1	0	0	0	0	473	615
2	0	0	0	0	473	618
3	0	0	0	0	474	618
4	0	0	0	0	474	618
5	0	0	0	0	475	621
6	0	0	0	0	476	618
7	0	0	0	0	476	618
8	0	0	0	0	476	617
9	0	0	0	0	477	615
10	0	0	0	0	478	618
11	0	0	0	0	478	617
12	0	0	0	0	478	616
13	0	0	0	0	480	620
14	0	0	0	0	480	617
15	0	0	0	0	480	618
0	0	0	0	0	480	618
1	0	0	0	0	480	616
2	0	0	0	0	480	618
3	0	0	0	0	480	618
4	0	0	0	0	481	618
5	0	0	0	0	481	621
6	0	0	0	0	482	618
7	0	0	0	0	483	619
8	0	0	0	0	484	618
9	0	0	0	0	486	616
10	0	0	0	0	485	619
11	0	0	0	0	485	618
12	0	0	0	0	486	618
13	0	0	0	0	486	620
14	0	0	0	0	486	619
15	0	0	0	0	487	618
0	0	0	0	0	486	617
1	0	0	0	0	487	615
2	0	0	0	0	487	618
3	0	0	0	0	487	618
4	0	0	0	0	488	618
5	0	0	0	0	489	620
6	0	0	0	0	489	619
7	0	0	0	0	490	618
8	0	0	0	0	491	619
9	0	0	0	0	492	615
10	0	0	0	0	493	618
11	0	0	0	0	495	618
12	0	0	0	0	496	618
13	0	0	0	0	497	620
14	0	0	0	0	497	618
15	0	0	0	0	498	617
0	0	0	0	0	499	619
1	0	0	0	0	500	615
2	0	0	0	0	501	618
3	0	0	0	0	502	617
4	0	0	0	0	502	618
5	0	0	0	0	503	620
6	0	0	0	0	503	618
7	0	0	0	0	504	618
8	0	0	0	0	505	618
9	0	0	0	0	505	615
10	0	0	0	0	506	618
11	0	0	0	0	508	618
12	0	0	0	0	508	618
13	0	0	0	0	509	621
14	0	0	0	0	511	619
15	0	0	0	0	512	619
0	0	0	0	0	512	619
1	0	0	0	0	514	617
2	0	0	0	0	514	619
3	0	0	0	0	514	619
4	0	0	0	0	514	619
5	0	0	0	0	516	622
6	0	0	0	0	516	619
7	0	0	0	0	518	618
8	0	0	0	0	519	619
9	0	0	0	0	519	616
10	0	0	0	0	520	619
11	0	0	0	0	521	618
12	0	0	0	0	523	618
13	0	0	0	0	523	621
14	0	0	0	0	523	619
15	0	0	0	0	523	619
0	0	0	0	0	524	618
1	0	0	0	0	524	616
2	0	0	0	0	524	618
3	0	0	0	0	525	619
4	0	0	0	0	526	618
5	0	0	0	0	527	621
6	0	0	0	0	528	617
7	0	0	0	0	527	618
8	0	0	0	0	527	617
9	0	0	0	0	527	615
10	0	0	0	0	526	619
11	0	0	0	0	526	618
12	0	0	0	0	527	618
13	0	0	0	0	527	621
14	0	0	0	0	527	618
15	0	0	0	0	527	618
0	0	0	0	0	527	618
1	0	0	0	0	528	615
2	0	0	0	0	528	618
3	0	0	0	0	529	619
4	0	0	0	0	530	617
5	0	0	0	0	530	620
6	0	0	0	0	530	617
7	0	0	0	0	531	619
8	0	0	0	0	530	618
9	0	0	0	0	530	616
10	0	0	0	0	531	618
11	0	0	0	0	530	618
12	0	0	0	0	530	618
13	0	0	0	0	529	620
14	0	0	0	0	530	619
15	0	0	0	0	530	619
0	0	0	0	0	530	619
1	0	0	0	0	531	616
2	0	0	0	0	531	619
3	0	0	0	0	530	618
4	0	0	0	0	529	618
5	0	0	0	0	529	621
6	0	0	0	0	529	619
7	0	0	0	0	528	618
8	0	0	0	0	527	619
9	0	0	0	0	527	616
10	0	0	0	0	527	618
11	0	0	0	0	527	618
12	0	0	0	0	527	619
13	0	0	0	0	528	621
14	0	0	0	0	528	618
15	0	0	0	0	528	618
0	0	0	0	0	528	617
1	0	0	0	0	527	615
2	0	0	0	0	527	618
3	0	0	0	0	526	618
4	0	0	0	0	526	617
5	0	0	0	0	525	620
6	0	0	0	0	524	618
7	0	0	0	0	524	618
8	0	0	0	0	524	618
9	0	0	0	0	524	615
10	0	0	0	0	525	619
11	0	0	0	0	525	618
12	0	0	0	0	524	618
13	0	0	0	0	524	620
14	0	0	0	0	524	617
15	0	0	0	0	525	618
0	0	0	0	0	525	618
1	0	0	0	0	525	616
2	0	0	0	0	525	618
3	0	0	0	0	524	618
4	0	0	0	0	524	618
5	0	0	0	0	524	620
6	0	0	0	0	523	619
7	0	0	0	0	523	618
8	0	0	0	0	523	619
9	0	0	0	0	523	616
10	0	0	0	0	522	619
11	0	0	0	0	522	619
12	0	0	0	0	523	618
13	0	0	0	0	522	621
14	0	0	0	0	522	619
15	0	0	0	0	521	619
0	0	0	0	0	520	619
1	0	0	0	0	520	617
2	0	0	0	0	519	619
3	0	0	0	0	519	619
4	0	0	0	0	518	619
5	0	0	0	0	519	621
6	0	0	0	0	519	618
7	0	0	0	0	519	618
8	0	0	0	0	519	619
9	0	0	0	0	518	615
10	0	0	0	0	518	619
11	0	0	0	0	519	619
12	0	0	0	0	519	619
13	0	0	0	0	519	621
14	0	0	0	0	518	619
15	0	0	0	0	519	619
0	0	0	0	0	519	619
1	0	0	0	0	520	616
2	0	0	0	0	522	619
3	0	0	0	0	522	619
4	0	0	0	0	522	619
5	0	0	0	0	521	622
6	0	0	0	0	522	619
7	0	0	0	0	522	619
8	0	0	0	0	522	619
9	0	0	0	0	522	616
10	0	0	0	0	523	619
11	0	0	0	0	523	619
12	0	0	0	0	523	619
13	0	0	0	0	523	622
14	0	0	0	0	523	619
15	0	0	0	0	523	619
0	0	0	0	0	523	619
1	0	0	0	0	524	616
2	0	0	0	0	524	618
3	0	0	0	0	524	619
4	0	0	0	0	524	618
5	0	0	0	0	525	620
6	0	0	0	0	526	619
7	0	0	0	0	527	618
8	0	0	0	0	527	618
9	0	0	0	0	527	615
10	0	0	0	0	527	618
11	0	0	0	0	527	619
12	0	0	0	0	527	618
13	0	0	0	0	527	620
14	0	0	0	0	528	617
15	0	0	0	0	528	617
0	0	0	0	0	528	618
1	0	0	0	0	529	615
2	0	0	0	0	529	618
3	0	0	0	0	529	617
4	0	0	0	0	529	617
5	0	0	0	0	530	620
6	0	0	0	0	530	618
7	0	0	0	0	530	618
8	0	0	0	0	530	617
9	0	0	0	0	530	615
10	0	0	0	0	530	618
11	0	0	0	0	531	617
12	0	0	0	0	531	618
13	0	0	0	0	531	621
14	0	0	0	0	531	618
15	0	0	0	0	531	618
0	0	0	0	0	531	618
1	0	0	0	0	531	615
2	0	0	0	0	530	618
3	0	0	0	0	529	618
4	0	0	0	0	529	618
5	0	0	0	0	529	620
6	0	0	0	0	529	618
7	0	0	0	0	529	618
8	0	0	0	0	530	618
9	0	0	0	0	531	615
10	0	0	0	0	531	618
11	0	0	0	0	530	618
12	0	0	0	0	530	618
13	0	0	0	0	529	620
14	0	0	0	0	529	619
15	0	0	0	0	528	618
0	0	0	0	0	528	617
1	0	0	0	0	528	615
2	0	0	0	0	528	618
3	0	0	0	0	528	619
4	0	0	0	0	527	619
5	0	0	0	0	526	620
6	0	0	0	0	526	618
7	0	0	0	0	525	619
8	0	0	0	0	524	619
9	0	0	0	0	524	616
10	0	0	0	0	524	619
11	0	0	0	0	523	619
12	0	0	0	0	523	619
13	0	0	0	0	523	622
14	0	0	0	0	523	619
15	0	0	0	0	522	618
0	0	0	0	0	522	619
1	0	0	0	0	522	616
2	0	0	0	0	522	619
3	0	0	0	0	522	618
4	0	0	0	0	521	619
5	0	0	0	0	521	621
6	0	0	0	0	521	618
7	0	0	0	0	520	619
8	0	0	0	0	520	619
9	0	0	0	0	520	617
10	0	0	0	0	520	619
11	0	0	0	0	520	618
12	0	0	0	0	520	619
13	0	0	0	0	522	620
14	0	0	0	0	522	618
15	0	0	0	0	523	618
0	0	0	0	0	524	618
1	0	0	0	0	524	615
2	0	0	0	0	525	618
3	0	0	0	0	526	618
4	0	0	0	0	526	618
5	0	0	0	0	526	621
6	0	0	0	0	527	618
7	0	0	0	0	528	618
8	0	0	0	0	528	617
9	0	0	0	0	528	615
10	0	0	0	0	529	618
11	0	0	0	0	529	618
12	0	0	0	0	529	618
13	0	0	0	0	531	620
14	0	0	0	0	531	618
15	0	0	0	0	530	618
0	0	0	0	0	531	618
1	0	0	0	0	530	615
2	0	0	0	0	531	618
3	0	0	0	0	531	618
4	0	0	0	0	531	618
5	0	0	0	0	531	621
6	0	0	0	0	531	619
7	0	0	0	0	531	619
8	0	0	0	0	531	618
9	0	0	0	0	530	615
10	0	0	0	0	530	619
11	0	0	0	0	530	618
12	0	0	0	0	530	619
13	0	0	0	0	530	621
14	0	0	0	0	529	618
15	0	0	0	0	529	618
0	0	0	0	0	528	618
1	0	0	0	0	528	616
2	0	0	0	0	528	618
3	0	0	0	0	528	618
4	0	0	0	0	527	618
5	0	0	0	0	527	620
6	0	0	0	0	527	619
7	0	0	0	0	526	618
8	0	0	0	0	526	619
9	0	0	0	0	526	616
10	0	0	0	0	527	618
11	0	0	0	0	527	618
12	0	0	0	0	527	618
13	0	0	0	0	528	621
14	0	0	0	0	529	618
15	0	0	0	0	529	618
0	0	0	0	0	529	619
1	0	0	0	0	530	616
2	0	0	0	0	531	618
