# OpenSignals Text File Format. Version 1
# {"98:D3:91:FD:59:64": {"position": 0, "device": "bitalino_rev", "device name": "98:D3:91:FD:59:64", "device connection": "BTH98:D3:91:FD:59:64", "sampling rate": 1000, "resolution": [4, 1, 1, 1, 1, 10, 10], "firmware version": 1281, "comments": "", "keywords": "", "mode": 0, "sync interval": 2, "date": "2021-9-20", "time": "21:6:48.519", "channels": [2, 5], "sensor": ["RAW", "RAW"], "label": ["A2", "A5"], "column": ["nSeq", "I1", "I2", "O1", "O2", "A2", "A5"], "special": [{}, {}], "digital IO": [0, 0, 1, 1], "convertedValues": 0}}
# EndOfHeader
0	0	0	0	0	530	623	
1	0	0	0	0	529	622	
2	0	0	0	0	528	622	
3	0	0	0	0	527	621	
4	0	0	0	0	526	621	
5	0	0	0	0	524	620	
6	0	0	0	0	523	621	
7	0	0	0	0	523	621	
8	0	0	0	0	523	622	
9	0	0	0	0	523	622	
10	0	0	0	0	524	622	
11	0	0	0	0	524	622	
12	0	0	0	0	525	623	
13	0	0	0	0	526	623	
14	0	0	0	0	526	623	
15	0	0	0	0	527	622	
0	0	0	0	0	527	623	
1	0	0	0	0	528	622	
2	0	0	0	0	529	622	
3	0	0	0	0	529	623	
4	0	0	0	0	530	622	
5	0	0	0	0	531	622	
6	0	0	0	0	528	622	
7	0	0	0	0	527	622	
8	0	0	0	0	526	622	
9	0	0	0	0	523	622	
10	0	0	0	0	521	622	
11	0	0	0	0	519	622	
12	0	0	0	0	518	622	
13	0	0	0	0	517	622	
14	0	0	0	0	515	622	
15	0	0	0	0	515	622	
0	0	0	0	0	514	622	
1	0	0	0	0	513	622	
2	0	0	0	0	512	622	
3	0	0	0	0	512	621	
4	0	0	0	0	512	622	
5	0	0	0	0	513	621	
6	0	0	0	0	513	621	
7	0	0	0	0	514	621	
8	0	0	0	0	513	621	
9	0	0	0	0	512	620	
10	0	0	0	0	511	621	
11	0	0	0	0	510	621	
12	0	0	0	0	509	621	
13	0	0	0	0	507	621	
14	0	0	0	0	505	621	
15	0	0	0	0	504	621	
0	0	0	0	0	501	620	
1	0	0	0	0	500	621	
2	0	0	0	0	499	622	
3	0	0	0	0	499	621	
4	0	0	0	0	498	621	
5	0	0	0	0	498	621	
6	0	0	0	0	499	622	
7	0	0	0	0	498	621	
8	0	0	0	0	498	621	
9	0	0	0	0	499	621	
10	0	0	0	0	498	621	
11	0	0	0	0	497	622	
12	0	0	0	0	496	621	
13	0	0	0	0	495	622	
14	0	0	0	0	494	622	
15	0	0	0	0	491	622	
0	0	0	0	0	489	621	
1	0	0	0	0	487	622	
2	0	0	0	0	484	623	
3	0	0	0	0	482	623	
4	0	0	0	0	480	622	
5	0	0	0	0	480	623	
6	0	0	0	0	481	622	
7	0	0	0	0	482	622	
8	0	0	0	0	483	622	
9	0	0	0	0	483	622	
10	0	0	0	0	484	623	
11	0	0	0	0	484	622	
12	0	0	0	0	486	622	
13	0	0	0	0	487	622	
14	0	0	0	0	488	622	
15	0	0	0	0	490	622	
0	0	0	0	0	490	622	
1	0	0	0	0	490	622	
2	0	0	0	0	490	623	
3	0	0	0	0	489	623	
4	0	0	0	0	488	622	
5	0	0	0	0	487	622	
6	0	0	0	0	487	622	
7	0	0	0	0	485	622	
8	0	0	0	0	484	622	
9	0	0	0	0	483	622	
10	0	0	0	0	483	622	
11	0	0	0	0	483	622	
12	0	0	0	0	484	622	
13	0	0	0	0	485	622	
14	0	0	0	0	486	622	
15	0	0	0	0	487	622	
0	0	0	0	0	490	622	
1	0	0	0	0	492	621	
2	0	0	0	0	494	623	
3	0	0	0	0	495	622	
4	0	0	0	0	496	623	
5	0	0	0	0	496	622	
6	0	0	0	0	496	622	
7	0	0	0	0	495	622	
8	0	0	0	0	494	622	
9	0	0	0	0	492	622	
10	0	0	0	0	491	622	
11	0	0	0	0	489	622	
12	0	0	0	0	489	622	
13	0	0	0	0	488	622	
14	0	0	0	0	488	622	
15	0	0	0	0	488	622	
0	0	0	0	0	489	622	
1	0	0	0	0	489	622	
2	0	0	0	0	490	623	
3	0	0	0	0	491	623	
4	0	0	0	0	492	623	
5	0	0	0	0	494	623	
6	0	0	0	0	495	623	
7	0	0	0	0	496	623	
8	0	0	0	0	496	623	
9	0	0	0	0	497	623	
10	0	0	0	0	496	623	
11	0	0	0	0	496	623	
12	0	0	0	0	496	623	
13	0	0	0	0	495	623	
14	0	0	0	0	494	623	
15	0	0	0	0	494	623	
0	0	0	0	0	493	623	
1	0	0	0	0	494	623	
2	0	0	0	0	492	623	
3	0	0	0	0	492	623	
4	0	0	0	0	492	623	
5	0	0	0	0	493	623	
6	0	0	0	0	494	623	
7	0	0	0	0	496	623	
8	0	0	0	0	497	623	
9	0	0	0	0	499	623	
10	0	0	0	0	500	623	
11	0	0	0	0	501	622	
12	0	0	0	0	502	623	
13	0	0	0	0	500	622	
14	0	0	0	0	499	622	
15	0	0	0	0	498	622	
0	0	0	0	0	496	622	
1	0	0	0	0	494	622	
2	0	0	0	0	492	621	
3	0	0	0	0	492	621	
4	0	0	0	0	491	621	
5	0	0	0	0	490	621	
6	0	0	0	0	490	621	
7	0	0	0	0	491	620	
8	0	0	0	0	492	620	
9	0	0	0	0	492	621	
10	0	0	0	0	494	621	
11	0	0	0	0	495	621	
12	0	0	0	0	496	620	
13	0	0	0	0	497	620	
14	0	0	0	0	499	621	
15	0	0	0	0	499	620	
0	0	0	0	0	500	620	
1	0	0	0	0	500	620	
2	0	0	0	0	501	620	
3	0	0	0	0	500	621	
4	0	0	0	0	499	619	
5	0	0	0	0	498	620	
6	0	0	0	0	496	621	
7	0	0	0	0	496	620	
8	0	0	0	0	495	620	
9	0	0	0	0	495	620	
10	0	0	0	0	494	621	
11	0	0	0	0	494	621	
12	0	0	0	0	495	620	
13	0	0	0	0	496	621	
14	0	0	0	0	496	621	
15	0	0	0	0	497	621	
0	0	0	0	0	499	621	
1	0	0	0	0	500	621	
2	0	0	0	0	501	621	
3	0	0	0	0	503	621	
4	0	0	0	0	503	621	
5	0	0	0	0	504	621	
6	0	0	0	0	504	621	
7	0	0	0	0	504	621	
8	0	0	0	0	503	621	
9	0	0	0	0	501	622	
10	0	0	0	0	500	622	
11	0	0	0	0	500	622	
12	0	0	0	0	499	622	
13	0	0	0	0	497	621	
14	0	0	0	0	496	622	
15	0	0	0	0	496	622	
0	0	0	0	0	496	623	
1	0	0	0	0	497	622	
2	0	0	0	0	498	623	
3	0	0	0	0	499	622	
4	0	0	0	0	501	622	
5	0	0	0	0	502	622	
6	0	0	0	0	503	622	
7	0	0	0	0	504	622	
8	0	0	0	0	504	622	
9	0	0	0	0	504	622	
10	0	0	0	0	504	622	
11	0	0	0	0	503	623	
12	0	0	0	0	502	622	
13	0	0	0	0	501	622	
14	0	0	0	0	499	623	
15	0	0	0	0	497	623	
0	0	0	0	0	496	622	
1	0	0	0	0	495	622	
2	0	0	0	0	495	623	
3	0	0	0	0	495	622	
4	0	0	0	0	496	622	
5	0	0	0	0	496	622	
6	0	0	0	0	497	622	
7	0	0	0	0	498	622	
8	0	0	0	0	499	621	
9	0	0	0	0	499	622	
10	0	0	0	0	501	622	
11	0	0	0	0	501	622	
12	0	0	0	0	502	621	
13	0	0	0	0	502	622	
14	0	0	0	0	502	621	
15	0	0	0	0	502	621	
0	0	0	0	0	501	621	
1	0	0	0	0	500	621	
2	0	0	0	0	499	623	
3	0	0	0	0	499	622	
4	0	0	0	0	498	622	
5	0	0	0	0	498	622	
6	0	0	0	0	498	622	
7	0	0	0	0	498	622	
8	0	0	0	0	499	621	
9	0	0	0	0	499	621	
10	0	0	0	0	501	622	
11	0	0	0	0	503	621	
12	0	0	0	0	504	621	
13	0	0	0	0	506	621	
14	0	0	0	0	507	621	
15	0	0	0	0	508	621	
0	0	0	0	0	509	621	
1	0	0	0	0	509	622	
2	0	0	0	0	509	622	
3	0	0	0	0	508	622	
4	0	0	0	0	507	622	
5	0	0	0	0	505	621	
6	0	0	0	0	503	621	
7	0	0	0	0	501	621	
8	0	0	0	0	500	622	
9	0	0	0	0	500	622	
10	0	0	0	0	499	623	
11	0	0	0	0	499	622	
12	0	0	0	0	499	622	
13	0	0	0	0	499	622	
14	0	0	0	0	500	622	
15	0	0	0	0	502	622	
0	0	0	0	0	504	622	
1	0	0	0	0	505	622	
2	0	0	0	0	507	622	
3	0	0	0	0	508	622	
4	0	0	0	0	509	622	
5	0	0	0	0	510	622	
6	0	0	0	0	510	622	
7	0	0	0	0	510	622	
8	0	0	0	0	510	622	
9	0	0	0	0	508	622	
10	0	0	0	0	507	622	
11	0	0	0	0	506	621	
12	0	0	0	0	505	622	
13	0	0	0	0	504	622	
14	0	0	0	0	504	622	
15	0	0	0	0	505	622	
0	0	0	0	0	507	622	
1	0	0	0	0	508	622	
2	0	0	0	0	509	623	
3	0	0	0	0	510	622	
4	0	0	0	0	511	622	
5	0	0	0	0	512	622	
6	0	0	0	0	513	622	
7	0	0	0	0	513	622	
8	0	0	0	0	513	622	
9	0	0	0	0	513	622	
10	0	0	0	0	513	622	
11	0	0	0	0	512	621	
12	0	0	0	0	511	622	
13	0	0	0	0	510	621	
14	0	0	0	0	508	622	
15	0	0	0	0	506	621	
0	0	0	0	0	505	621	
1	0	0	0	0	505	621	
2	0	0	0	0	505	622	
3	0	0	0	0	505	621	
4	0	0	0	0	507	622	
5	0	0	0	0	507	621	
6	0	0	0	0	508	622	
7	0	0	0	0	509	622	
8	0	0	0	0	509	622	
9	0	0	0	0	509	622	
10	0	0	0	0	510	622	
11	0	0	0	0	511	622	
12	0	0	0	0	511	622	
13	0	0	0	0	511	622	
14	0	0	0	0	511	622	
15	0	0	0	0	510	621	
0	0	0	0	0	508	622	
1	0	0	0	0	507	622	
2	0	0	0	0	504	622	
3	0	0	0	0	503	621	
4	0	0	0	0	502	621	
5	0	0	0	0	502	621	
6	0	0	0	0	501	622	
7	0	0	0	0	501	622	
8	0	0	0	0	502	621	
9	0	0	0	0	503	622	
10	0	0	0	0	504	622	
11	0	0	0	0	505	622	
12	0	0	0	0	508	622	
13	0	0	0	0	510	623	
14	0	0	0	0	511	622	
15	0	0	0	0	511	622	
0	0	0	0	0	512	622	
1	0	0	0	0	512	622	
2	0	0	0	0	512	623	
3	0	0	0	0	512	622	
4	0	0	0	0	511	622	
5	0	0	0	0	510	622	
6	0	0	0	0	508	622	
7	0	0	0	0	507	622	
8	0	0	0	0	506	622	
9	0	0	0	0	505	622	
10	0	0	0	0	505	622	
11	0	0	0	0	505	622	
12	0	0	0	0	506	621	
13	0	0	0	0	507	621	
14	0	0	0	0	508	621	
15	0	0	0	0	509	621	
0	0	0	0	0	510	622	
1	0	0	0	0	511	621	
2	0	0	0	0	512	622	
3	0	0	0	0	513	621	
4	0	0	0	0	514	621	
5	0	0	0	0	514	622	
6	0	0	0	0	513	622	
7	0	0	0	0	512	621	
8	0	0	0	0	511	621	
9	0	0	0	0	509	621	
10	0	0	0	0	508	622	
11	0	0	0	0	507	622	
12	0	0	0	0	506	622	
13	0	0	0	0	505	622	
14	0	0	0	0	505	622	
15	0	0	0	0	505	621	
0	0	0	0	0	504	622	
1	0	0	0	0	505	622	
2	0	0	0	0	505	622	
3	0	0	0	0	506	622	
4	0	0	0	0	508	622	
5	0	0	0	0	509	622	
6	0	0	0	0	510	622	
7	0	0	0	0	510	622	
8	0	0	0	0	510	622	
9	0	0	0	0	511	623	
10	0	0	0	0	511	623	
11	0	0	0	0	510	623	
12	0	0	0	0	509	623	
13	0	0	0	0	508	623	
14	0	0	0	0	507	623	
15	0	0	0	0	505	623	
0	0	0	0	0	504	623	
1	0	0	0	0	504	624	
2	0	0	0	0	503	623	
3	0	0	0	0	503	623	
4	0	0	0	0	503	623	
5	0	0	0	0	504	623	
6	0	0	0	0	506	623	
7	0	0	0	0	507	622	
8	0	0	0	0	509	623	
9	0	0	0	0	511	622	
10	0	0	0	0	512	623	
11	0	0	0	0	513	623	
12	0	0	0	0	514	622	
13	0	0	0	0	514	622	
14	0	0	0	0	514	622	
15	0	0	0	0	513	622	
0	0	0	0	0	511	622	
1	0	0	0	0	510	621	
2	0	0	0	0	509	622	
3	0	0	0	0	507	621	
4	0	0	0	0	507	621	
5	0	0	0	0	506	622	
6	0	0	0	0	505	621	
7	0	0	0	0	505	621	
8	0	0	0	0	505	620	
9	0	0	0	0	506	620	
10	0	0	0	0	507	620	
11	0	0	0	0	508	621	
12	0	0	0	0	509	620	
13	0	0	0	0	510	621	
14	0	0	0	0	511	620	
15	0	0	0	0	512	621	
0	0	0	0	0	512	621	
1	0	0	0	0	513	621	
2	0	0	0	0	512	621	
3	0	0	0	0	511	621	
4	0	0	0	0	510	621	
5	0	0	0	0	509	621	
6	0	0	0	0	508	621	
7	0	0	0	0	507	621	
8	0	0	0	0	507	621	
9	0	0	0	0	506	620	
10	0	0	0	0	506	621	
11	0	0	0	0	507	621	
12	0	0	0	0	506	621	
13	0	0	0	0	506	620	
14	0	0	0	0	507	622	
15	0	0	0	0	508	621	
0	0	0	0	0	509	621	
1	0	0	0	0	510	621	
2	0	0	0	0	512	621	
3	0	0	0	0	513	621	
4	0	0	0	0	514	621	
5	0	0	0	0	514	621	
6	0	0	0	0	513	621	
7	0	0	0	0	512	621	
8	0	0	0	0	511	621	
9	0	0	0	0	510	620	
10	0	0	0	0	508	622	
11	0	0	0	0	506	622	
12	0	0	0	0	504	621	
13	0	0	0	0	503	622	
14	0	0	0	0	504	622	
15	0	0	0	0	504	622	
0	0	0	0	0	504	622	
1	0	0	0	0	505	622	
2	0	0	0	0	507	622	
3	0	0	0	0	508	622	
4	0	0	0	0	509	622	
5	0	0	0	0	511	622	
6	0	0	0	0	512	621	
7	0	0	0	0	514	621	
8	0	0	0	0	515	622	
9	0	0	0	0	515	622	
10	0	0	0	0	514	622	
11	0	0	0	0	513	622	
12	0	0	0	0	512	621	
13	0	0	0	0	510	622	
14	0	0	0	0	509	622	
15	0	0	0	0	508	622	
0	0	0	0	0	506	621	
1	0	0	0	0	506	621	
2	0	0	0	0	506	622	
3	0	0	0	0	506	621	
4	0	0	0	0	506	622	
5	0	0	0	0	507	622	
6	0	0	0	0	508	622	
7	0	0	0	0	509	622	
8	0	0	0	0	511	622	
9	0	0	0	0	512	623	
10	0	0	0	0	513	623	
11	0	0	0	0	514	622	
12	0	0	0	0	515	623	
13	0	0	0	0	515	622	
14	0	0	0	0	515	623	
15	0	0	0	0	515	623	
0	0	0	0	0	515	622	
1	0	0	0	0	514	622	
2	0	0	0	0	512	623	
3	0	0	0	0	511	622	
4	0	0	0	0	511	622	
5	0	0	0	0	511	623	
6	0	0	0	0	510	622	
7	0	0	0	0	511	622	
8	0	0	0	0	510	622	
9	0	0	0	0	511	622	
10	0	0	0	0	511	623	
11	0	0	0	0	512	623	
12	0	0	0	0	514	623	
13	0	0	0	0	515	622	
14	0	0	0	0	517	623	
15	0	0	0	0	518	623	
0	0	0	0	0	518	623	
1	0	0	0	0	518	623	
2	0	0	0	0	517	623	
3	0	0	0	0	516	622	
4	0	0	0	0	515	623	
5	0	0	0	0	514	623	
6	0	0	0	0	513	623	
7	0	0	0	0	511	623	
8	0	0	0	0	511	622	
9	0	0	0	0	510	622	
10	0	0	0	0	510	623	
11	0	0	0	0	510	622	
12	0	0	0	0	510	622	
13	0	0	0	0	510	622	
14	0	0	0	0	510	621	
15	0	0	0	0	511	622	
0	0	0	0	0	512	622	
1	0	0	0	0	513	622	
2	0	0	0	0	514	622	
3	0	0	0	0	515	621	
4	0	0	0	0	516	621	
5	0	0	0	0	516	621	
6	0	0	0	0	516	621	
7	0	0	0	0	515	620	
8	0	0	0	0	515	620	
9	0	0	0	0	515	620	
10	0	0	0	0	514	621	
11	0	0	0	0	514	620	
12	0	0	0	0	513	621	
13	0	0	0	0	513	621	
14	0	0	0	0	513	621	
15	0	0	0	0	514	621	
0	0	0	0	0	514	621	
1	0	0	0	0	514	620	
2	0	0	0	0	515	622	
3	0	0	0	0	515	622	
4	0	0	0	0	517	621	
5	0	0	0	0	518	621	
6	0	0	0	0	519	621	
7	0	0	0	0	519	621	
8	0	0	0	0	519	621	
9	0	0	0	0	519	621	
10	0	0	0	0	519	622	
11	0	0	0	0	520	622	
12	0	0	0	0	519	622	
13	0	0	0	0	519	622	
14	0	0	0	0	517	622	
15	0	0	0	0	516	621	
0	0	0	0	0	514	622	
1	0	0	0	0	514	622	
2	0	0	0	0	513	622	
3	0	0	0	0	513	622	
4	0	0	0	0	513	622	
5	0	0	0	0	513	622	
6	0	0	0	0	515	622	
7	0	0	0	0	515	623	
8	0	0	0	0	515	622	
9	0	0	0	0	516	621	
10	0	0	0	0	518	622	
11	0	0	0	0	519	621	
12	0	0	0	0	519	622	
13	0	0	0	0	520	622	
14	0	0	0	0	521	622	
15	0	0	0	0	521	622	
0	0	0	0	0	520	621	
1	0	0	0	0	518	622	
2	0	0	0	0	517	622	
3	0	0	0	0	516	622	
4	0	0	0	0	515	622	
5	0	0	0	0	515	621	
6	0	0	0	0	514	622	
7	0	0	0	0	513	622	
8	0	0	0	0	513	622	
9	0	0	0	0	513	622	
10	0	0	0	0	515	622	
11	0	0	0	0	516	622	
12	0	0	0	0	516	622	
13	0	0	0	0	517	622	
14	0	0	0	0	519	622	
15	0	0	0	0	521	622	
0	0	0	0	0	523	622	
1	0	0	0	0	524	622	
2	0	0	0	0	524	623	
3	0	0	0	0	523	621	
4	0	0	0	0	523	621	
5	0	0	0	0	522	622	
6	0	0	0	0	521	622	
7	0	0	0	0	521	622	
8	0	0	0	0	521	622	
9	0	0	0	0	522	622	
10	0	0	0	0	522	623	
11	0	0	0	0	522	622	
12	0	0	0	0	524	622	
13	0	0	0	0	525	622	
14	0	0	0	0	526	622	
15	0	0	0	0	528	622	
0	0	0	0	0	530	623	
1	0	0	0	0	531	623	
2	0	0	0	0	532	623	
3	0	0	0	0	534	622	
4	0	0	0	0	534	622	
5	0	0	0	0	535	623	
6	0	0	0	0	535	623	
7	0	0	0	0	534	623	
8	0	0	0	0	533	623	
9	0	0	0	0	532	622	
10	0	0	0	0	530	623	
11	0	0	0	0	529	623	
12	0	0	0	0	527	622	
13	0	0	0	0	526	623	
14	0	0	0	0	525	622	
15	0	0	0	0	524	623	
0	0	0	0	0	524	623	
1	0	0	0	0	524	622	
2	0	0	0	0	524	623	
3	0	0	0	0	526	622	
4	0	0	0	0	526	622	
5	0	0	0	0	527	622	
6	0	0	0	0	529	622	
7	0	0	0	0	531	622	
8	0	0	0	0	532	622	
9	0	0	0	0	532	622	
10	0	0	0	0	532	622	
11	0	0	0	0	532	621	
12	0	0	0	0	532	621	
13	0	0	0	0	531	622	
14	0	0	0	0	530	621	
15	0	0	0	0	528	621	
0	0	0	0	0	526	621	
1	0	0	0	0	524	621	
2	0	0	0	0	523	622	
3	0	0	0	0	522	622	
4	0	0	0	0	522	622	
5	0	0	0	0	522	622	
6	0	0	0	0	523	622	
7	0	0	0	0	524	621	
8	0	0	0	0	526	621	
9	0	0	0	0	527	622	
10	0	0	0	0	528	622	
11	0	0	0	0	529	621	
12	0	0	0	0	531	621	
13	0	0	0	0	533	621	
14	0	0	0	0	532	622	
15	0	0	0	0	531	622	
0	0	0	0	0	531	621	
1	0	0	0	0	530	621	
2	0	0	0	0	529	621	
3	0	0	0	0	527	622	
4	0	0	0	0	525	622	
5	0	0	0	0	524	622	
6	0	0	0	0	523	622	
7	0	0	0	0	523	621	
8	0	0	0	0	523	622	
9	0	0	0	0	524	622	
10	0	0	0	0	525	622	
11	0	0	0	0	526	622	
12	0	0	0	0	527	621	
13	0	0	0	0	527	621	
14	0	0	0	0	529	622	
15	0	0	0	0	530	622	
0	0	0	0	0	531	622	
1	0	0	0	0	532	622	
2	0	0	0	0	532	623	
3	0	0	0	0	532	622	
4	0	0	0	0	531	622	
5	0	0	0	0	529	622	
6	0	0	0	0	528	622	
7	0	0	0	0	526	622	
8	0	0	0	0	525	623	
9	0	0	0	0	525	622	
10	0	0	0	0	524	622	
11	0	0	0	0	524	622	
12	0	0	0	0	524	622	
13	0	0	0	0	524	622	
14	0	0	0	0	524	622	
15	0	0	0	0	524	622	
0	0	0	0	0	525	622	
1	0	0	0	0	526	622	
2	0	0	0	0	528	622	
3	0	0	0	0	528	622	
4	0	0	0	0	528	622	
5	0	0	0	0	528	622	
6	0	0	0	0	528	623	
7	0	0	0	0	526	622	
8	0	0	0	0	525	622	
9	0	0	0	0	525	622	
10	0	0	0	0	524	623	
11	0	0	0	0	523	622	
12	0	0	0	0	522	622	
13	0	0	0	0	523	622	
14	0	0	0	0	522	622	
15	0	0	0	0	521	622	
0	0	0	0	0	522	622	
1	0	0	0	0	523	622	
2	0	0	0	0	525	622	
3	0	0	0	0	526	622	
4	0	0	0	0	526	622	
5	0	0	0	0	527	622	
6	0	0	0	0	527	622	
7	0	0	0	0	528	622	
8	0	0	0	0	527	622	
9	0	0	0	0	524	622	
10	0	0	0	0	520	622	
11	0	0	0	0	516	622	
12	0	0	0	0	513	622	
13	0	0	0	0	509	622	
14	0	0	0	0	507	623	
15	0	0	0	0	504	623	
0	0	0	0	0	500	622	
1	0	0	0	0	497	622	
2	0	0	0	0	495	622	
3	0	0	0	0	495	622	
4	0	0	0	0	495	622	
5	0	0	0	0	496	621	
6	0	0	0	0	498	622	
7	0	0	0	0	500	622	
8	0	0	0	0	504	621	
9	0	0	0	0	508	621	
10	0	0	0	0	516	622	
11	0	0	0	0	526	621	
12	0	0	0	0	537	621	
13	0	0	0	0	551	621	
14	0	0	0	0	566	621	
15	0	0	0	0	582	621	
0	0	0	0	0	599	621	
1	0	0	0	0	615	621	
2	0	0	0	0	630	623	
3	0	0	0	0	645	622	
4	0	0	0	0	659	622	
5	0	0	0	0	674	622	
6	0	0	0	0	689	621	
7	0	0	0	0	703	622	
8	0	0	0	0	713	622	
9	0	0	0	0	721	621	
10	0	0	0	0	724	623	
11	0	0	0	0	723	621	
12	0	0	0	0	718	622	
13	0	0	0	0	710	622	
14	0	0	0	0	700	622	
15	0	0	0	0	690	622	
0	0	0	0	0	680	621	
1	0	0	0	0	671	623	
2	0	0	0	0	662	622	
3	0	0	0	0	653	622	
4	0	0	0	0	643	622	
5	0	0	0	0	633	621	
6	0	0	0	0	622	623	
7	0	0	0	0	608	622	
8	0	0	0	0	593	622	
9	0	0	0	0	579	622	
10	0	0	0	0	567	622	
11	0	0	0	0	555	622	
12	0	0	0	0	544	622	
13	0	0	0	0	536	621	
14	0	0	0	0	529	623	
15	0	0	0	0	523	622	
0	0	0	0	0	518	622	
1	0	0	0	0	513	621	
2	0	0	0	0	510	622	
3	0	0	0	0	506	622	
4	0	0	0	0	503	622	
5	0	0	0	0	500	622	
6	0	0	0	0	496	622	
7	0	0	0	0	493	623	
8	0	0	0	0	491	622	
9	0	0	0	0	488	622	
10	0	0	0	0	485	622	
11	0	0	0	0	481	622	
12	0	0	0	0	479	622	
13	0	0	0	0	477	622	
14	0	0	0	0	475	622	
15	0	0	0	0	473	622	
0	0	0	0	0	472	622	
1	0	0	0	0	472	622	
2	0	0	0	0	472	622	
3	0	0	0	0	472	622	
4	0	0	0	0	472	622	
5	0	0	0	0	472	622	
6	0	0	0	0	473	622	
7	0	0	0	0	474	622	
8	0	0	0	0	474	622	
9	0	0	0	0	474	622	
10	0	0	0	0	474	623	
11	0	0	0	0	473	622	
12	0	0	0	0	472	622	
13	0	0	0	0	471	622	
14	0	0	0	0	469	622	
15	0	0	0	0	467	622	
0	0	0	0	0	466	622	
1	0	0	0	0	465	622	
2	0	0	0	0	464	622	
3	0	0	0	0	464	621	
4	0	0	0	0	464	621	
5	0	0	0	0	465	621	
6	0	0	0	0	466	622	
7	0	0	0	0	467	622	
8	0	0	0	0	468	622	
9	0	0	0	0	469	622	
10	0	0	0	0	470	623	
11	0	0	0	0	471	622	
12	0	0	0	0	472	622	
13	0	0	0	0	473	622	
14	0	0	0	0	473	623	
15	0	0	0	0	473	621	
0	0	0	0	0	473	622	
1	0	0	0	0	472	622	
2	0	0	0	0	471	622	
3	0	0	0	0	469	622	
4	0	0	0	0	468	622	
5	0	0	0	0	467	622	
6	0	0	0	0	467	622	
7	0	0	0	0	467	622	
8	0	0	0	0	467	623	
9	0	0	0	0	468	622	
10	0	0	0	0	469	623	
11	0	0	0	0	471	622	
12	0	0	0	0	472	622	
13	0	0	0	0	474	623	
14	0	0	0	0	475	622	
15	0	0	0	0	476	622	
0	0	0	0	0	477	622	
1	0	0	0	0	478	622	
2	0	0	0	0	478	622	
3	0	0	0	0	478	622	
4	0	0	0	0	477	622	
5	0	0	0	0	476	622	
6	0	0	0	0	476	622	
7	0	0	0	0	475	622	
8	0	0	0	0	474	622	
9	0	0	0	0	474	622	
10	0	0	0	0	474	622	
11	0	0	0	0	475	621	
12	0	0	0	0	474	621	
13	0	0	0	0	475	622	
14	0	0	0	0	476	622	
15	0	0	0	0	476	622	
0	0	0	0	0	478	622	
1	0	0	0	0	479	622	
2	0	0	0	0	480	622	
3	0	0	0	0	481	621	
4	0	0	0	0	482	622	
5	0	0	0	0	483	621	
6	0	0	0	0	484	622	
7	0	0	0	0	483	622	
8	0	0	0	0	483	622	
9	0	0	0	0	483	621	
10	0	0	0	0	482	622	
11	0	0	0	0	481	622	
12	0	0	0	0	480	622	
13	0	0	0	0	480	622	
14	0	0	0	0	480	622	
15	0	0	0	0	481	622	
0	0	0	0	0	481	621	
1	0	0	0	0	482	622	
2	0	0	0	0	483	622	
3	0	0	0	0	486	622	
4	0	0	0	0	487	622	
5	0	0	0	0	489	622	
6	0	0	0	0	490	622	
7	0	0	0	0	491	621	
8	0	0	0	0	492	622	
9	0	0	0	0	491	622	
10	0	0	0	0	490	622	
11	0	0	0	0	489	622	
12	0	0	0	0	488	621	
13	0	0	0	0	487	621	
14	0	0	0	0	485	622	
15	0	0	0	0	483	621	
0	0	0	0	0	482	620	
1	0	0	0	0	481	621	
2	0	0	0	0	480	622	
3	0	0	0	0	481	621	
4	0	0	0	0	480	621	
5	0	0	0	0	480	621	
6	0	0	0	0	480	622	
7	0	0	0	0	481	622	
8	0	0	0	0	482	622	
9	0	0	0	0	484	622	
10	0	0	0	0	485	622	
11	0	0	0	0	486	622	
12	0	0	0	0	487	621	
13	0	0	0	0	487	621	
14	0	0	0	0	486	622	
15	0	0	0	0	485	622	
0	0	0	0	0	485	622	
1	0	0	0	0	484	622	
2	0	0	0	0	483	623	
3	0	0	0	0	481	622	
4	0	0	0	0	480	622	
5	0	0	0	0	480	622	
6	0	0	0	0	480	622	
7	0	0	0	0	481	623	
8	0	0	0	0	481	622	
9	0	0	0	0	482	622	
10	0	0	0	0	483	623	
11	0	0	0	0	484	622	
12	0	0	0	0	486	622	
13	0	0	0	0	487	622	
14	0	0	0	0	489	622	
15	0	0	0	0	490	622	
0	0	0	0	0	492	622	
1	0	0	0	0	493	623	
2	0	0	0	0	493	623	
3	0	0	0	0	492	622	
4	0	0	0	0	492	623	
5	0	0	0	0	491	623	
6	0	0	0	0	491	623	
7	0	0	0	0	489	623	
8	0	0	0	0	488	622	
9	0	0	0	0	488	623	
10	0	0	0	0	487	623	
11	0	0	0	0	487	623	
12	0	0	0	0	488	623	
13	0	0	0	0	488	623	
14	0	0	0	0	489	623	
15	0	0	0	0	491	622	
0	0	0	0	0	492	622	
1	0	0	0	0	493	622	
2	0	0	0	0	494	622	
3	0	0	0	0	494	622	
4	0	0	0	0	496	622	
5	0	0	0	0	496	622	
6	0	0	0	0	496	621	
7	0	0	0	0	496	621	
8	0	0	0	0	496	622	
9	0	0	0	0	495	621	
10	0	0	0	0	494	622	
11	0	0	0	0	492	620	
12	0	0	0	0	492	621	
13	0	0	0	0	491	622	
14	0	0	0	0	492	623	
15	0	0	0	0	492	622	
0	0	0	0	0	493	622	
1	0	0	0	0	494	622	
2	0	0	0	0	495	622	
3	0	0	0	0	496	622	
4	0	0	0	0	497	622	
5	0	0	0	0	499	621	
6	0	0	0	0	500	621	
7	0	0	0	0	502	621	
8	0	0	0	0	503	622	
9	0	0	0	0	504	621	
10	0	0	0	0	504	622	
11	0	0	0	0	503	621	
12	0	0	0	0	503	621	
13	0	0	0	0	502	621	
14	0	0	0	0	502	621	
15	0	0	0	0	501	621	
0	0	0	0	0	501	620	
1	0	0	0	0	501	621	
2	0	0	0	0	501	621	
3	0	0	0	0	500	621	
4	0	0	0	0	501	621	
5	0	0	0	0	502	622	
6	0	0	0	0	503	622	
7	0	0	0	0	504	622	
8	0	0	0	0	506	622	
9	0	0	0	0	508	621	
10	0	0	0	0	510	622	
11	0	0	0	0	512	621	
12	0	0	0	0	513	621	
13	0	0	0	0	513	621	
14	0	0	0	0	513	622	
15	0	0	0	0	512	621	
0	0	0	0	0	512	622	
1	0	0	0	0	511	622	
2	0	0	0	0	510	622	
3	0	0	0	0	509	622	
4	0	0	0	0	508	622	
5	0	0	0	0	509	622	
6	0	0	0	0	509	623	
7	0	0	0	0	509	622	
8	0	0	0	0	509	622	
9	0	0	0	0	510	622	
10	0	0	0	0	511	623	
11	0	0	0	0	512	622	
12	0	0	0	0	512	622	
13	0	0	0	0	513	622	
14	0	0	0	0	515	622	
15	0	0	0	0	516	622	
0	0	0	0	0	517	622	
1	0	0	0	0	517	622	
2	0	0	0	0	517	622	
3	0	0	0	0	517	622	
4	0	0	0	0	516	622	
5	0	0	0	0	515	622	
6	0	0	0	0	515	623	
7	0	0	0	0	513	623	
8	0	0	0	0	512	622	
9	0	0	0	0	512	622	
10	0	0	0	0	512	623	
11	0	0	0	0	511	623	
12	0	0	0	0	511	622	
13	0	0	0	0	510	622	
14	0	0	0	0	510	623	
15	0	0	0	0	511	622	
0	0	0	0	0	511	622	
1	0	0	0	0	511	622	
2	0	0	0	0	512	623	
3	0	0	0	0	512	622	
4	0	0	0	0	512	622	
5	0	0	0	0	512	622	
6	0	0	0	0	511	622	
7	0	0	0	0	509	622	
8	0	0	0	0	507	623	
9	0	0	0	0	505	622	
10	0	0	0	0	503	622	
11	0	0	0	0	501	622	
12	0	0	0	0	499	622	
13	0	0	0	0	495	622	
14	0	0	0	0	493	622	
15	0	0	0	0	491	622	
0	0	0	0	0	490	622	
1	0	0	0	0	489	622	
2	0	0	0	0	489	623	
3	0	0	0	0	489	622	
4	0	0	0	0	489	622	
5	0	0	0	0	489	623	
6	0	0	0	0	489	622	
7	0	0	0	0	491	623	
8	0	0	0	0	491	622	
9	0	0	0	0	490	622	
10	0	0	0	0	489	622	
11	0	0	0	0	487	622	
12	0	0	0	0	486	622	
13	0	0	0	0	484	622	
14	0	0	0	0	483	622	
15	0	0	0	0	481	622	
0	0	0	0	0	479	621	
1	0	0	0	0	477	621	
2	0	0	0	0	476	622	
3	0	0	0	0	475	621	
4	0	0	0	0	475	621	
5	0	0	0	0	475	621	
6	0	0	0	0	475	622	
7	0	0	0	0	475	622	
8	0	0	0	0	475	622	
9	0	0	0	0	475	622	
10	0	0	0	0	476	622	
11	0	0	0	0	478	622	
12	0	0	0	0	478	621	
13	0	0	0	0	478	621	
14	0	0	0	0	478	622	
15	0	0	0	0	478	621	
0	0	0	0	0	477	622	
1	0	0	0	0	476	622	
2	0	0	0	0	475	623	
3	0	0	0	0	473	622	
4	0	0	0	0	471	622	
5	0	0	0	0	470	622	
6	0	0	0	0	469	622	
7	0	0	0	0	469	622	
8	0	0	0	0	468	622	
9	0	0	0	0	469	622	
10	0	0	0	0	470	622	
11	0	0	0	0	472	622	
12	0	0	0	0	473	623	
13	0	0	0	0	474	622	
14	0	0	0	0	476	622	
15	0	0	0	0	477	622	
0	0	0	0	0	478	622	
1	0	0	0	0	478	622	
2	0	0	0	0	479	622	
3	0	0	0	0	479	622	
4	0	0	0	0	478	622	
5	0	0	0	0	477	622	
6	0	0	0	0	476	622	
7	0	0	0	0	476	622	
8	0	0	0	0	474	621	
9	0	0	0	0	473	622	
10	0	0	0	0	472	622	
11	0	0	0	0	472	622	
12	0	0	0	0	472	621	
13	0	0	0	0	472	621	
14	0	0	0	0	473	622	
15	0	0	0	0	474	622	
0	0	0	0	0	475	622	
1	0	0	0	0	476	622	
2	0	0	0	0	477	622	
3	0	0	0	0	479	622	
4	0	0	0	0	479	622	
5	0	0	0	0	479	621	
6	0	0	0	0	480	622	
7	0	0	0	0	480	622	
8	0	0	0	0	479	621	
9	0	0	0	0	478	622	
10	0	0	0	0	477	622	
11	0	0	0	0	476	622	
12	0	0	0	0	475	622	
13	0	0	0	0	475	622	
14	0	0	0	0	475	622	
15	0	0	0	0	475	622	
0	0	0	0	0	475	621	
1	0	0	0	0	476	622	
2	0	0	0	0	477	622	
3	0	0	0	0	478	622	
4	0	0	0	0	479	622	
5	0	0	0	0	480	622	
6	0	0	0	0	481	623	
7	0	0	0	0	483	622	
8	0	0	0	0	483	622	
9	0	0	0	0	483	622	
10	0	0	0	0	481	622	
11	0	0	0	0	481	622	
12	0	0	0	0	482	622	
13	0	0	0	0	482	623	
14	0	0	0	0	482	622	
15	0	0	0	0	481	621	
0	0	0	0	0	481	623	
1	0	0	0	0	481	623	
2	0	0	0	0	481	622	
3	0	0	0	0	481	622	
4	0	0	0	0	481	622	
5	0	0	0	0	481	622	
6	0	0	0	0	482	622	
7	0	0	0	0	483	622	
8	0	0	0	0	484	622	
9	0	0	0	0	485	622	
10	0	0	0	0	486	622	
11	0	0	0	0	488	622	
12	0	0	0	0	489	622	
13	0	0	0	0	489	622	
14	0	0	0	0	489	623	
15	0	0	0	0	489	622	
0	0	0	0	0	488	623	
1	0	0	0	0	487	623	
2	0	0	0	0	487	623	
3	0	0	0	0	486	622	
4	0	0	0	0	484	623	
5	0	0	0	0	483	623	
6	0	0	0	0	483	623	
7	0	0	0	0	483	623	
8	0	0	0	0	483	623	
9	0	0	0	0	483	623	
10	0	0	0	0	485	624	
11	0	0	0	0	486	623	
12	0	0	0	0	487	622	
13	0	0	0	0	487	621	
14	0	0	0	0	488	622	
15	0	0	0	0	491	622	
0	0	0	0	0	492	622	
1	0	0	0	0	493	622	
2	0	0	0	0	493	622	
3	0	0	0	0	492	621	
4	0	0	0	0	492	621	
5	0	0	0	0	491	622	
6	0	0	0	0	490	621	
7	0	0	0	0	488	621	
8	0	0	0	0	487	621	
9	0	0	0	0	486	622	
10	0	0	0	0	486	622	
11	0	0	0	0	486	622	
12	0	0	0	0	486	621	
13	0	0	0	0	487	621	
14	0	0	0	0	487	622	
15	0	0	0	0	489	621	
0	0	0	0	0	491	622	
1	0	0	0	0	493	621	
2	0	0	0	0	495	622	
3	0	0	0	0	497	622	
4	0	0	0	0	499	622	
5	0	0	0	0	499	622	
6	0	0	0	0	499	622	
7	0	0	0	0	499	622	
8	0	0	0	0	498	622	
9	0	0	0	0	497	622	
10	0	0	0	0	496	623	
11	0	0	0	0	495	622	
12	0	0	0	0	494	622	
13	0	0	0	0	492	622	
14	0	0	0	0	492	622	
15	0	0	0	0	492	622	
0	0	0	0	0	491	622	
1	0	0	0	0	492	622	
2	0	0	0	0	492	623	
3	0	0	0	0	494	622	
4	0	0	0	0	495	622	
5	0	0	0	0	496	622	
6	0	0	0	0	497	622	
7	0	0	0	0	499	623	
8	0	0	0	0	500	622	
9	0	0	0	0	500	623	
10	0	0	0	0	500	622	
11	0	0	0	0	499	622	
12	0	0	0	0	499	623	
13	0	0	0	0	497	622	
14	0	0	0	0	496	623	
15	0	0	0	0	496	622	
0	0	0	0	0	495	622	
1	0	0	0	0	495	623	
2	0	0	0	0	495	623	
3	0	0	0	0	495	622	
4	0	0	0	0	495	623	
5	0	0	0	0	495	622	
6	0	0	0	0	497	623	
7	0	0	0	0	497	623	
8	0	0	0	0	498	622	
9	0	0	0	0	499	622	
10	0	0	0	0	500	622	
11	0	0	0	0	502	622	
12	0	0	0	0	503	622	
13	0	0	0	0	503	622	
14	0	0	0	0	504	622	
15	0	0	0	0	503	622	
0	0	0	0	0	503	621	
1	0	0	0	0	502	622	
2	0	0	0	0	501	622	
3	0	0	0	0	499	622	
4	0	0	0	0	498	622	
5	0	0	0	0	498	622	
6	0	0	0	0	497	622	
7	0	0	0	0	498	622	
8	0	0	0	0	500	621	
9	0	0	0	0	501	621	
10	0	0	0	0	502	622	
11	0	0	0	0	504	621	
12	0	0	0	0	504	621	
13	0	0	0	0	505	621	
14	0	0	0	0	508	622	
15	0	0	0	0	509	622	
0	0	0	0	0	510	621	
1	0	0	0	0	511	622	
2	0	0	0	0	510	622	
3	0	0	0	0	509	622	
4	0	0	0	0	508	622	
5	0	0	0	0	507	622	
6	0	0	0	0	505	622	
7	0	0	0	0	504	622	
8	0	0	0	0	503	623	
9	0	0	0	0	502	622	
10	0	0	0	0	501	622	
11	0	0	0	0	501	622	
12	0	0	0	0	501	622	
13	0	0	0	0	501	622	
14	0	0	0	0	503	623	
15	0	0	0	0	504	622	
0	0	0	0	0	505	622	
1	0	0	0	0	507	622	
2	0	0	0	0	508	622	
3	0	0	0	0	510	621	
4	0	0	0	0	511	622	
5	0	0	0	0	511	622	
6	0	0	0	0	512	622	
7	0	0	0	0	511	621	
8	0	0	0	0	511	621	
9	0	0	0	0	510	621	
10	0	0	0	0	508	621	
11	0	0	0	0	507	621	
12	0	0	0	0	505	622	
13	0	0	0	0	505	621	
14	0	0	0	0	504	621	
15	0	0	0	0	504	621	
0	0	0	0	0	503	622	
1	0	0	0	0	503	621	
2	0	0	0	0	503	622	
3	0	0	0	0	504	621	
4	0	0	0	0	504	622	
5	0	0	0	0	506	622	
6	0	0	0	0	507	622	
7	0	0	0	0	508	621	
8	0	0	0	0	508	622	
9	0	0	0	0	509	622	
10	0	0	0	0	509	622	
11	0	0	0	0	509	622	
12	0	0	0	0	509	622	
13	0	0	0	0	508	622	
14	0	0	0	0	507	622	
15	0	0	0	0	505	622	
0	0	0	0	0	504	622	
1	0	0	0	0	503	622	
2	0	0	0	0	502	622	
3	0	0	0	0	502	622	
4	0	0	0	0	501	621	
5	0	0	0	0	501	622	
6	0	0	0	0	501	622	
7	0	0	0	0	501	622	
8	0	0	0	0	502	622	
9	0	0	0	0	503	622	
10	0	0	0	0	504	622	
11	0	0	0	0	505	622	
12	0	0	0	0	507	622	
13	0	0	0	0	508	621	
14	0	0	0	0	507	622	
15	0	0	0	0	507	622	
0	0	0	0	0	507	622	
1	0	0	0	0	506	622	
2	0	0	0	0	505	622	
3	0	0	0	0	504	622	
4	0	0	0	0	504	621	
5	0	0	0	0	503	622	
6	0	0	0	0	503	622	
7	0	0	0	0	503	621	
8	0	0	0	0	502	622	
9	0	0	0	0	502	622	
10	0	0	0	0	502	622	
11	0	0	0	0	503	622	
12	0	0	0	0	504	622	
13	0	0	0	0	505	622	
14	0	0	0	0	506	623	
15	0	0	0	0	508	622	
0	0	0	0	0	508	622	
1	0	0	0	0	509	622	
2	0	0	0	0	509	623	
3	0	0	0	0	509	623	
4	0	0	0	0	509	623	
5	0	0	0	0	507	622	
6	0	0	0	0	507	622	
7	0	0	0	0	506	622	
8	0	0	0	0	504	623	
9	0	0	0	0	504	621	
10	0	0	0	0	504	622	
11	0	0	0	0	504	622	
12	0	0	0	0	505	622	
13	0	0	0	0	505	622	
14	0	0	0	0	506	622	
15	0	0	0	0	507	622	
0	0	0	0	0	508	622	
1	0	0	0	0	509	622	
2	0	0	0	0	510	623	
3	0	0	0	0	511	622	
4	0	0	0	0	511	622	
5	0	0	0	0	511	622	
6	0	0	0	0	511	623	
7	0	0	0	0	511	622	
8	0	0	0	0	510	622	
9	0	0	0	0	508	622	
10	0	0	0	0	506	622	
11	0	0	0	0	504	621	
12	0	0	0	0	503	621	
13	0	0	0	0	502	622	
14	0	0	0	0	502	622	
15	0	0	0	0	501	622	
0	0	0	0	0	501	623	
1	0	0	0	0	501	622	
2	0	0	0	0	502	622	
3	0	0	0	0	503	622	
4	0	0	0	0	503	622	
5	0	0	0	0	503	622	
6	0	0	0	0	504	623	
7	0	0	0	0	505	622	
8	0	0	0	0	506	622	
9	0	0	0	0	507	622	
10	0	0	0	0	508	622	
11	0	0	0	0	508	622	
12	0	0	0	0	508	622	
13	0	0	0	0	507	622	
14	0	0	0	0	506	623	
15	0	0	0	0	505	622	
0	0	0	0	0	503	622	
1	0	0	0	0	501	622	
2	0	0	0	0	500	623	
3	0	0	0	0	499	622	
4	0	0	0	0	499	622	
5	0	0	0	0	499	622	
6	0	0	0	0	500	622	
7	0	0	0	0	502	622	
8	0	0	0	0	504	623	
9	0	0	0	0	506	622	
10	0	0	0	0	508	622	
11	0	0	0	0	509	623	
12	0	0	0	0	510	622	
13	0	0	0	0	510	622	
14	0	0	0	0	511	623	
15	0	0	0	0	510	622	
0	0	0	0	0	509	622	
1	0	0	0	0	507	622	
2	0	0	0	0	505	623	
3	0	0	0	0	504	622	
4	0	0	0	0	502	623	
5	0	0	0	0	500	622	
6	0	0	0	0	499	623	
7	0	0	0	0	500	622	
8	0	0	0	0	499	622	
9	0	0	0	0	499	622	
10	0	0	0	0	499	622	
11	0	0	0	0	499	621	
12	0	0	0	0	500	621	
13	0	0	0	0	502	621	
14	0	0	0	0	503	621	
15	0	0	0	0	505	621	
0	0	0	0	0	506	622	
1	0	0	0	0	506	621	
2	0	0	0	0	506	622	
3	0	0	0	0	505	622	
4	0	0	0	0	505	622	
5	0	0	0	0	505	622	
6	0	0	0	0	504	622	
7	0	0	0	0	503	621	
8	0	0	0	0	502	622	
9	0	0	0	0	500	622	
10	0	0	0	0	500	622	
11	0	0	0	0	499	622	
12	0	0	0	0	499	622	
13	0	0	0	0	498	622	
14	0	0	0	0	499	622	
15	0	0	0	0	499	622	
0	0	0	0	0	501	622	
1	0	0	0	0	501	622	
2	0	0	0	0	503	622	
3	0	0	0	0	504	621	
4	0	0	0	0	504	621	
5	0	0	0	0	504	621	
6	0	0	0	0	505	621	
7	0	0	0	0	505	621	
8	0	0	0	0	504	621	
9	0	0	0	0	503	620	
10	0	0	0	0	502	622	
11	0	0	0	0	502	621	
12	0	0	0	0	501	621	
13	0	0	0	0	500	621	
14	0	0	0	0	499	621	
15	0	0	0	0	499	621	
0	0	0	0	0	499	621	
1	0	0	0	0	498	621	
2	0	0	0	0	499	623	
3	0	0	0	0	499	622	
4	0	0	0	0	499	622	
5	0	0	0	0	499	622	
6	0	0	0	0	500	622	
7	0	0	0	0	501	622	
8	0	0	0	0	501	623	
9	0	0	0	0	501	622	
10	0	0	0	0	501	623	
11	0	0	0	0	501	622	
12	0	0	0	0	500	622	
13	0	0	0	0	500	623	
14	0	0	0	0	498	622	
15	0	0	0	0	497	621	
0	0	0	0	0	496	622	
1	0	0	0	0	496	621	
2	0	0	0	0	495	622	
3	0	0	0	0	495	622	
4	0	0	0	0	495	622	
5	0	0	0	0	495	622	
6	0	0	0	0	496	622	
7	0	0	0	0	496	622	
8	0	0	0	0	497	622	
9	0	0	0	0	498	621	
10	0	0	0	0	500	622	
11	0	0	0	0	501	620	
12	0	0	0	0	502	620	
13	0	0	0	0	502	620	
14	0	0	0	0	503	620	
15	0	0	0	0	504	620	
0	0	0	0	0	504	621	
1	0	0	0	0	503	621	
2	0	0	0	0	502	622	
3	0	0	0	0	501	622	
4	0	0	0	0	499	622	
5	0	0	0	0	499	622	
6	0	0	0	0	498	622	
7	0	0	0	0	498	622	
8	0	0	0	0	498	622	
9	0	0	0	0	498	621	
10	0	0	0	0	498	622	
11	0	0	0	0	499	622	
12	0	0	0	0	499	622	
13	0	0	0	0	500	623	
14	0	0	0	0	501	623	
15	0	0	0	0	502	623	
0	0	0	0	0	503	623	
1	0	0	0	0	504	622	
2	0	0	0	0	504	623	
3	0	0	0	0	504	622	
4	0	0	0	0	504	622	
5	0	0	0	0	503	622	
6	0	0	0	0	503	623	
7	0	0	0	0	501	623	
8	0	0	0	0	500	622	
9	0	0	0	0	500	622	
10	0	0	0	0	499	623	
11	0	0	0	0	499	622	
12	0	0	0	0	499	622	
13	0	0	0	0	499	622	
14	0	0	0	0	500	622	
15	0	0	0	0	500	622	
0	0	0	0	0	501	623	
1	0	0	0	0	502	622	
2	0	0	0	0	502	622	
3	0	0	0	0	504	622	
4	0	0	0	0	505	623	
5	0	0	0	0	505	622	
6	0	0	0	0	505	622	
7	0	0	0	0	504	622	
8	0	0	0	0	503	622	
9	0	0	0	0	502	622	
10	0	0	0	0	500	623	
11	0	0	0	0	499	622	
12	0	0	0	0	496	622	
13	0	0	0	0	495	622	
14	0	0	0	0	495	622	
15	0	0	0	0	494	621	
0	0	0	0	0	493	621	
1	0	0	0	0	494	621	
2	0	0	0	0	494	622	
3	0	0	0	0	495	622	
4	0	0	0	0	496	621	
5	0	0	0	0	497	622	
6	0	0	0	0	499	622	
7	0	0	0	0	501	622	
8	0	0	0	0	502	622	
9	0	0	0	0	503	622	
10	0	0	0	0	504	622	
11	0	0	0	0	505	622	
12	0	0	0	0	504	622	
13	0	0	0	0	503	622	
14	0	0	0	0	502	622	
15	0	0	0	0	500	622	
0	0	0	0	0	499	622	
1	0	0	0	0	498	622	
2	0	0	0	0	497	623	
3	0	0	0	0	496	622	
4	0	0	0	0	495	623	
5	0	0	0	0	496	623	
6	0	0	0	0	496	623	
7	0	0	0	0	497	623	
8	0	0	0	0	498	624	
9	0	0	0	0	498	623	
10	0	0	0	0	499	624	
11	0	0	0	0	500	624	
12	0	0	0	0	500	624	
13	0	0	0	0	501	624	
14	0	0	0	0	501	624	
15	0	0	0	0	501	624	
0	0	0	0	0	500	624	
1	0	0	0	0	499	624	
2	0	0	0	0	498	624	
3	0	0	0	0	497	623	
4	0	0	0	0	496	622	
5	0	0	0	0	496	623	
6	0	0	0	0	495	623	
7	0	0	0	0	495	622	
8	0	0	0	0	495	622	
9	0	0	0	0	495	621	
10	0	0	0	0	497	621	
11	0	0	0	0	499	621	
12	0	0	0	0	499	620	
13	0	0	0	0	500	621	
14	0	0	0	0	502	621	
15	0	0	0	0	503	621	
0	0	0	0	0	504	620	
1	0	0	0	0	505	621	
2	0	0	0	0	506	621	
3	0	0	0	0	506	620	
4	0	0	0	0	505	620	
5	0	0	0	0	504	620	
6	0	0	0	0	504	621	
7	0	0	0	0	502	621	
8	0	0	0	0	501	621	
9	0	0	0	0	500	621	
10	0	0	0	0	500	621	
11	0	0	0	0	499	621	
12	0	0	0	0	500	621	
13	0	0	0	0	500	621	
14	0	0	0	0	501	621	
15	0	0	0	0	501	621	
0	0	0	0	0	501	621	
1	0	0	0	0	503	621	
2	0	0	0	0	504	622	
3	0	0	0	0	505	621	
4	0	0	0	0	507	621	
5	0	0	0	0	508	621	
6	0	0	0	0	509	621	
7	0	0	0	0	510	621	
8	0	0	0	0	510	621	
9	0	0	0	0	510	620	
10	0	0	0	0	509	621	
11	0	0	0	0	508	621	
12	0	0	0	0	507	621	
13	0	0	0	0	506	621	
14	0	0	0	0	505	622	
15	0	0	0	0	505	621	
0	0	0	0	0	505	622	
1	0	0	0	0	505	622	
2	0	0	0	0	506	622	
3	0	0	0	0	507	622	
4	0	0	0	0	508	622	
5	0	0	0	0	509	622	
6	0	0	0	0	510	622	
7	0	0	0	0	512	622	
8	0	0	0	0	512	622	
9	0	0	0	0	512	621	
10	0	0	0	0	513	622	
11	0	0	0	0	513	622	
12	0	0	0	0	512	622	
13	0	0	0	0	510	622	
14	0	0	0	0	507	622	
15	0	0	0	0	505	622	
0	0	0	0	0	503	622	
1	0	0	0	0	501	621	
2	0	0	0	0	500	622	
3	0	0	0	0	499	622	
4	0	0	0	0	499	622	
5	0	0	0	0	499	622	
6	0	0	0	0	499	622	
7	0	0	0	0	500	622	
8	0	0	0	0	502	622	
9	0	0	0	0	504	622	
10	0	0	0	0	507	622	
11	0	0	0	0	508	621	
12	0	0	0	0	509	622	
13	0	0	0	0	509	622	
14	0	0	0	0	510	622	
15	0	0	0	0	510	622	
0	0	0	0	0	510	622	
1	0	0	0	0	508	623	
2	0	0	0	0	507	623	
3	0	0	0	0	505	623	
4	0	0	0	0	504	623	
5	0	0	0	0	502	623	
6	0	0	0	0	502	623	
7	0	0	0	0	501	622	
8	0	0	0	0	501	622	
9	0	0	0	0	502	622	
10	0	0	0	0	503	622	
11	0	0	0	0	504	622	
12	0	0	0	0	505	622	
13	0	0	0	0	506	621	
14	0	0	0	0	507	620	
15	0	0	0	0	510	621	
0	0	0	0	0	512	621	
1	0	0	0	0	513	621	
2	0	0	0	0	514	621	
3	0	0	0	0	514	621	
4	0	0	0	0	513	622	
5	0	0	0	0	512	622	
6	0	0	0	0	511	622	
7	0	0	0	0	509	622	
8	0	0	0	0	509	622	
9	0	0	0	0	508	623	
10	0	0	0	0	507	624	
11	0	0	0	0	506	623	
12	0	0	0	0	506	623	
13	0	0	0	0	507	622	
14	0	0	0	0	507	623	
15	0	0	0	0	507	623	
0	0	0	0	0	508	622	
1	0	0	0	0	509	623	
2	0	0	0	0	511	623	
3	0	0	0	0	512	622	
4	0	0	0	0	512	622	
5	0	0	0	0	512	622	
6	0	0	0	0	513	622	
7	0	0	0	0	513	622	
8	0	0	0	0	512	622	
9	0	0	0	0	512	622	
10	0	0	0	0	511	622	
11	0	0	0	0	508	623	
12	0	0	0	0	507	622	
13	0	0	0	0	505	623	
14	0	0	0	0	504	623	
15	0	0	0	0	504	622	
0	0	0	0	0	504	623	
1	0	0	0	0	504	622	
2	0	0	0	0	505	623	
3	0	0	0	0	505	623	
4	0	0	0	0	505	622	
5	0	0	0	0	506	623	
6	0	0	0	0	507	622	
7	0	0	0	0	509	622	
8	0	0	0	0	511	623	
9	0	0	0	0	512	623	
10	0	0	0	0	513	623	
11	0	0	0	0	512	622	
12	0	0	0	0	511	622	
13	0	0	0	0	510	622	
14	0	0	0	0	506	622	
15	0	0	0	0	502	622	
0	0	0	0	0	497	622	
1	0	0	0	0	494	622	
2	0	0	0	0	491	622	
3	0	0	0	0	487	622	
4	0	0	0	0	482	622	
5	0	0	0	0	478	622	
6	0	0	0	0	478	622	
7	0	0	0	0	478	622	
8	0	0	0	0	479	622	
9	0	0	0	0	480	623	
10	0	0	0	0	483	623	
11	0	0	0	0	487	622	
12	0	0	0	0	491	623	
13	0	0	0	0	495	623	
14	0	0	0	0	500	623	
15	0	0	0	0	505	623	
0	0	0	0	0	512	623	
1	0	0	0	0	521	623	
2	0	0	0	0	532	623	
3	0	0	0	0	547	623	
4	0	0	0	0	561	622	
5	0	0	0	0	577	622	
6	0	0	0	0	594	622	
7	0	0	0	0	611	622	
8	0	0	0	0	628	623	
9	0	0	0	0	646	622	
10	0	0	0	0	663	623	
11	0	0	0	0	679	622	
12	0	0	0	0	696	623	
13	0	0	0	0	711	622	
14	0	0	0	0	722	623	
15	0	0	0	0	730	623	
0	0	0	0	0	732	622	
1	0	0	0	0	731	623	
2	0	0	0	0	724	623	
3	0	0	0	0	715	622	
4	0	0	0	0	703	623	
5	0	0	0	0	692	622	
6	0	0	0	0	682	622	
7	0	0	0	0	671	622	
8	0	0	0	0	660	623	
9	0	0	0	0	650	622	
10	0	0	0	0	640	623	
11	0	0	0	0	628	622	
12	0	0	0	0	615	623	
13	0	0	0	0	602	623	
14	0	0	0	0	589	623	
15	0	0	0	0	576	622	
0	0	0	0	0	563	622	
1	0	0	0	0	553	622	
2	0	0	0	0	543	623	
3	0	0	0	0	535	622	
4	0	0	0	0	528	622	
5	0	0	0	0	522	623	
6	0	0	0	0	515	623	
7	0	0	0	0	510	623	
8	0	0	0	0	505	622	
9	0	0	0	0	500	622	
10	0	0	0	0	495	623	
11	0	0	0	0	489	622	
12	0	0	0	0	485	623	
13	0	0	0	0	481	622	
14	0	0	0	0	478	622	
15	0	0	0	0	476	622	
0	0	0	0	0	475	622	
1	0	0	0	0	474	622	
2	0	0	0	0	472	623	
3	0	0	0	0	473	622	
4	0	0	0	0	473	622	
5	0	0	0	0	472	623	
6	0	0	0	0	472	623	
7	0	0	0	0	472	622	
8	0	0	0	0	472	622	
9	0	0	0	0	472	622	
10	0	0	0	0	472	623	
11	0	0	0	0	471	622	
12	0	0	0	0	470	623	
13	0	0	0	0	468	623	
14	0	0	0	0	467	622	
15	0	0	0	0	465	622	
0	0	0	0	0	464	622	
1	0	0	0	0	462	623	
2	0	0	0	0	461	622	
3	0	0	0	0	460	622	
4	0	0	0	0	459	622	
5	0	0	0	0	459	622	
6	0	0	0	0	458	622	
7	0	0	0	0	459	622	
8	0	0	0	0	460	622	
9	0	0	0	0	461	621	
10	0	0	0	0	462	622	
11	0	0	0	0	462	622	
12	0	0	0	0	462	622	
13	0	0	0	0	463	622	
14	0	0	0	0	463	622	
15	0	0	0	0	463	622	
0	0	0	0	0	464	622	
1	0	0	0	0	463	622	
2	0	0	0	0	463	622	
3	0	0	0	0	463	622	
4	0	0	0	0	462	621	
5	0	0	0	0	460	621	
6	0	0	0	0	460	622	
7	0	0	0	0	461	622	
8	0	0	0	0	460	622	
9	0	0	0	0	460	621	
10	0	0	0	0	461	622	
11	0	0	0	0	462	622	
12	0	0	0	0	463	621	
13	0	0	0	0	465	622	
14	0	0	0	0	467	622	
15	0	0	0	0	468	622	
0	0	0	0	0	469	621	
1	0	0	0	0	470	621	
2	0	0	0	0	471	622	
3	0	0	0	0	471	621	
4	0	0	0	0	472	622	
5	0	0	0	0	472	622	
6	0	0	0	0	472	621	
7	0	0	0	0	472	621	
8	0	0	0	0	471	621	
9	0	0	0	0	471	621	
10	0	0	0	0	470	621	
11	0	0	0	0	471	621	
12	0	0	0	0	471	621	
13	0	0	0	0	471	621	
14	0	0	0	0	471	622	
15	0	0	0	0	472	620	
0	0	0	0	0	473	621	
1	0	0	0	0	475	621	
2	0	0	0	0	476	621	
3	0	0	0	0	479	621	
4	0	0	0	0	480	621	
5	0	0	0	0	481	622	
6	0	0	0	0	482	621	
7	0	0	0	0	483	622	
8	0	0	0	0	483	621	
9	0	0	0	0	482	622	
10	0	0	0	0	482	622	
11	0	0	0	0	481	621	
12	0	0	0	0	480	621	
13	0	0	0	0	480	621	
14	0	0	0	0	479	622	
15	0	0	0	0	477	620	
0	0	0	0	0	477	621	
1	0	0	0	0	477	621	
2	0	0	0	0	479	622	
3	0	0	0	0	481	621	
4	0	0	0	0	482	622	
5	0	0	0	0	482	622	
6	0	0	0	0	483	622	
7	0	0	0	0	486	622	
8	0	0	0	0	488	622	
9	0	0	0	0	489	622	
10	0	0	0	0	489	622	
11	0	0	0	0	488	621	
12	0	0	0	0	489	622	
13	0	0	0	0	487	621	
14	0	0	0	0	486	622	
15	0	0	0	0	486	622	
0	0	0	0	0	486	622	
1	0	0	0	0	485	622	
2	0	0	0	0	485	623	
3	0	0	0	0	484	622	
4	0	0	0	0	484	622	
5	0	0	0	0	484	622	
6	0	0	0	0	485	622	
7	0	0	0	0	486	622	
8	0	0	0	0	487	622	
9	0	0	0	0	487	622	
10	0	0	0	0	488	622	
11	0	0	0	0	490	622	
12	0	0	0	0	492	622	
13	0	0	0	0	492	621	
14	0	0	0	0	492	622	
15	0	0	0	0	493	622	
0	0	0	0	0	493	622	
1	0	0	0	0	493	622	
2	0	0	0	0	492	622	
3	0	0	0	0	492	621	
4	0	0	0	0	491	622	
5	0	0	0	0	491	622	
6	0	0	0	0	490	622	
7	0	0	0	0	489	622	
8	0	0	0	0	489	623	
9	0	0	0	0	491	622	
10	0	0	0	0	492	623	
11	0	0	0	0	493	622	
12	0	0	0	0	494	622	
13	0	0	0	0	495	622	
14	0	0	0	0	496	622	
15	0	0	0	0	497	623	
0	0	0	0	0	498	623	
1	0	0	0	0	500	623	
2	0	0	0	0	500	623	
3	0	0	0	0	499	623	
4	0	0	0	0	499	622	
5	0	0	0	0	498	623	
6	0	0	0	0	497	623	
7	0	0	0	0	495	623	
8	0	0	0	0	495	622	
9	0	0	0	0	493	623	
10	0	0	0	0	492	623	
11	0	0	0	0	493	623	
12	0	0	0	0	493	623	
13	0	0	0	0	493	622	
14	0	0	0	0	494	623	
15	0	0	0	0	494	623	
0	0	0	0	0	496	623	
1	0	0	0	0	497	623	
2	0	0	0	0	498	623	
3	0	0	0	0	499	622	
4	0	0	0	0	499	622	
5	0	0	0	0	500	622	
6	0	0	0	0	501	622	
7	0	0	0	0	502	622	
8	0	0	0	0	502	622	
9	0	0	0	0	502	622	
10	0	0	0	0	501	622	
11	0	0	0	0	500	623	
12	0	0	0	0	498	623	
13	0	0	0	0	498	623	
14	0	0	0	0	498	623	
15	0	0	0	0	498	622	
0	0	0	0	0	499	622	
1	0	0	0	0	499	622	
2	0	0	0	0	500	622	
3	0	0	0	0	502	622	
4	0	0	0	0	504	622	
5	0	0	0	0	505	622	
6	0	0	0	0	507	622	
7	0	0	0	0	508	622	
8	0	0	0	0	510	621	
9	0	0	0	0	511	621	
10	0	0	0	0	512	622	
11	0	0	0	0	512	621	
12	0	0	0	0	513	622	
13	0	0	0	0	512	622	
14	0	0	0	0	512	622	
15	0	0	0	0	511	622	
0	0	0	0	0	510	622	
1	0	0	0	0	508	622	
2	0	0	0	0	507	623	
3	0	0	0	0	507	622	
4	0	0	0	0	507	622	
5	0	0	0	0	507	622	
6	0	0	0	0	508	623	
7	0	0	0	0	509	622	
8	0	0	0	0	511	623	
9	0	0	0	0	513	622	
10	0	0	0	0	514	622	
11	0	0	0	0	516	622	
12	0	0	0	0	518	621	
13	0	0	0	0	519	622	
14	0	0	0	0	521	622	
15	0	0	0	0	522	622	
0	0	0	0	0	523	622	
1	0	0	0	0	523	621	
2	0	0	0	0	523	622	
3	0	0	0	0	523	621	
4	0	0	0	0	522	621	
5	0	0	0	0	522	621	
6	0	0	0	0	522	621	
7	0	0	0	0	522	622	
8	0	0	0	0	522	621	
9	0	0	0	0	523	621	
10	0	0	0	0	523	622	
11	0	0	0	0	524	622	
12	0	0	0	0	525	622	
13	0	0	0	0	526	622	
14	0	0	0	0	527	622	
15	0	0	0	0	528	622	
0	0	0	0	0	529	622	
1	0	0	0	0	530	622	
2	0	0	0	0	530	622	
3	0	0	0	0	529	621	
4	0	0	0	0	528	622	
5	0	0	0	0	527	622	
6	0	0	0	0	526	622	
7	0	0	0	0	524	622	
8	0	0	0	0	523	622	
9	0	0	0	0	521	623	
10	0	0	0	0	520	623	
11	0	0	0	0	519	622	
12	0	0	0	0	519	622	
13	0	0	0	0	519	622	
14	0	0	0	0	519	622	
15	0	0	0	0	521	622	
0	0	0	0	0	523	622	
1	0	0	0	0	524	622	
2	0	0	0	0	525	622	
3	0	0	0	0	527	622	
4	0	0	0	0	528	622	
5	0	0	0	0	529	622	
6	0	0	0	0	529	622	
7	0	0	0	0	528	622	
8	0	0	0	0	529	622	
9	0	0	0	0	528	622	
10	0	0	0	0	527	622	
11	0	0	0	0	525	622	
12	0	0	0	0	524	622	
13	0	0	0	0	523	623	
14	0	0	0	0	521	622	
15	0	0	0	0	519	622	
0	0	0	0	0	518	622	
1	0	0	0	0	516	622	
2	0	0	0	0	515	622	
3	0	0	0	0	514	622	
4	0	0	0	0	515	622	
5	0	0	0	0	514	623	
6	0	0	0	0	514	623	
7	0	0	0	0	514	623	
8	0	0	0	0	515	622	
9	0	0	0	0	515	622	
10	0	0	0	0	514	623	
11	0	0	0	0	513	623	
12	0	0	0	0	513	622	
13	0	0	0	0	511	622	
14	0	0	0	0	508	622	
15	0	0	0	0	506	622	
0	0	0	0	0	503	621	
1	0	0	0	0	501	622	
2	0	0	0	0	498	622	
3	0	0	0	0	496	622	
4	0	0	0	0	495	622	
5	0	0	0	0	494	622	
6	0	0	0	0	493	622	
7	0	0	0	0	493	621	
8	0	0	0	0	493	621	
9	0	0	0	0	494	622	
10	0	0	0	0	494	622	
11	0	0	0	0	495	621	
12	0	0	0	0	497	621	
13	0	0	0	0	497	622	
14	0	0	0	0	497	623	
15	0	0	0	0	496	622	
0	0	0	0	0	495	622	
1	0	0	0	0	495	623	
2	0	0	0	0	493	622	
3	0	0	0	0	492	622	
4	0	0	0	0	489	622	
5	0	0	0	0	488	622	
6	0	0	0	0	487	622	
7	0	0	0	0	486	622	
8	0	0	0	0	485	622	
9	0	0	0	0	485	622	
10	0	0	0	0	484	622	
11	0	0	0	0	485	622	
12	0	0	0	0	486	622	
13	0	0	0	0	487	621	
14	0	0	0	0	487	622	
15	0	0	0	0	489	622	
0	0	0	0	0	491	622	
1	0	0	0	0	492	622	
2	0	0	0	0	493	622	
3	0	0	0	0	493	622	
4	0	0	0	0	493	622	
5	0	0	0	0	492	622	
6	0	0	0	0	491	622	
7	0	0	0	0	490	622	
8	0	0	0	0	490	622	
9	0	0	0	0	489	622	
10	0	0	0	0	488	623	
11	0	0	0	0	487	622	
12	0	0	0	0	486	623	
13	0	0	0	0	485	622	
14	0	0	0	0	486	623	
15	0	0	0	0	486	623	
0	0	0	0	0	487	622	
1	0	0	0	0	487	622	
2	0	0	0	0	488	622	
3	0	0	0	0	490	622	
4	0	0	0	0	491	622	
5	0	0	0	0	492	621	
6	0	0	0	0	492	622	
7	0	0	0	0	492	622	
8	0	0	0	0	492	622	
9	0	0	0	0	491	622	
10	0	0	0	0	489	623	
11	0	0	0	0	488	622	
12	0	0	0	0	488	622	
13	0	0	0	0	487	622	
14	0	0	0	0	487	622	
15	0	0	0	0	486	622	
0	0	0	0	0	485	621	
1	0	0	0	0	486	621	
2	0	0	0	0	487	621	
3	0	0	0	0	487	622	
4	0	0	0	0	489	621	
5	0	0	0	0	491	622	
6	0	0	0	0	492	622	
7	0	0	0	0	494	622	
8	0	0	0	0	495	622	
9	0	0	0	0	495	622	
10	0	0	0	0	496	623	
11	0	0	0	0	495	622	
12	0	0	0	0	495	622	
13	0	0	0	0	494	622	
14	0	0	0	0	492	622	
15	0	0	0	0	491	622	
0	0	0	0	0	490	623	
1	0	0	0	0	488	623	
2	0	0	0	0	487	623	
3	0	0	0	0	487	622	
4	0	0	0	0	488	623	
5	0	0	0	0	489	622	
6	0	0	0	0	491	622	
7	0	0	0	0	491	623	
8	0	0	0	0	492	622	
9	0	0	0	0	493	622	
10	0	0	0	0	494	623	
11	0	0	0	0	497	622	
12	0	0	0	0	498	622	
13	0	0	0	0	500	622	
14	0	0	0	0	501	622	
15	0	0	0	0	502	622	
0	0	0	0	0	503	622	
1	0	0	0	0	503	622	
2	0	0	0	0	502	623	
3	0	0	0	0	502	622	
4	0	0	0	0	500	622	
5	0	0	0	0	500	622	
6	0	0	0	0	499	623	
7	0	0	0	0	499	622	
8	0	0	0	0	498	622	
9	0	0	0	0	498	622	
10	0	0	0	0	499	623	
11	0	0	0	0	499	622	
12	0	0	0	0	499	622	
13	0	0	0	0	500	622	
14	0	0	0	0	502	623	
15	0	0	0	0	504	622	
0	0	0	0	0	505	623	
1	0	0	0	0	507	623	
2	0	0	0	0	507	623	
3	0	0	0	0	507	622	
4	0	0	0	0	507	622	
5	0	0	0	0	505	622	
6	0	0	0	0	504	622	
7	0	0	0	0	503	623	
8	0	0	0	0	501	622	
9	0	0	0	0	499	622	
10	0	0	0	0	497	623	
11	0	0	0	0	497	622	
12	0	0	0	0	496	622	
13	0	0	0	0	496	622	
14	0	0	0	0	496	622	
15	0	0	0	0	496	622	
0	0	0	0	0	497	622	
1	0	0	0	0	498	622	
2	0	0	0	0	498	622	
3	0	0	0	0	500	622	
4	0	0	0	0	500	621	
5	0	0	0	0	502	621	
6	0	0	0	0	503	621	
7	0	0	0	0	503	621	
8	0	0	0	0	503	622	
9	0	0	0	0	501	621	
10	0	0	0	0	499	622	
11	0	0	0	0	498	621	
12	0	0	0	0	496	621	
13	0	0	0	0	496	621	
14	0	0	0	0	494	622	
15	0	0	0	0	494	622	
0	0	0	0	0	494	622	
1	0	0	0	0	494	622	
2	0	0	0	0	494	622	
3	0	0	0	0	495	622	
4	0	0	0	0	496	622	
5	0	0	0	0	496	622	
6	0	0	0	0	497	622	
7	0	0	0	0	498	622	
8	0	0	0	0	499	622	
9	0	0	0	0	500	622	
10	0	0	0	0	501	622	
11	0	0	0	0	502	621	
12	0	0	0	0	503	622	
13	0	0	0	0	502	621	
14	0	0	0	0	502	622	
15	0	0	0	0	500	621	
0	0	0	0	0	499	621	
1	0	0	0	0	498	621	
2	0	0	0	0	497	622	
3	0	0	0	0	496	622	
4	0	0	0	0	495	622	
5	0	0	0	0	495	621	
6	0	0	0	0	495	622	
7	0	0	0	0	495	622	
8	0	0	0	0	496	621	
9	0	0	0	0	497	622	
10	0	0	0	0	498	622	
11	0	0	0	0	499	622	
12	0	0	0	0	500	622	
13	0	0	0	0	501	622	
14	0	0	0	0	501	622	
15	0	0	0	0	501	621	
0	0	0	0	0	501	622	
1	0	0	0	0	501	622	
2	0	0	0	0	500	622	
3	0	0	0	0	499	621	
4	0	0	0	0	498	621	
5	0	0	0	0	497	622	
6	0	0	0	0	496	622	
7	0	0	0	0	495	622	
8	0	0	0	0	495	622	
9	0	0	0	0	494	622	
10	0	0	0	0	494	623	
11	0	0	0	0	494	623	
12	0	0	0	0	495	623	
13	0	0	0	0	497	622	
14	0	0	0	0	499	623	
15	0	0	0	0	500	623	
0	0	0	0	0	500	623	
1	0	0	0	0	502	623	
2	0	0	0	0	503	623	
3	0	0	0	0	504	623	
4	0	0	0	0	504	622	
5	0	0	0	0	504	623	
6	0	0	0	0	503	623	
7	0	0	0	0	503	623	
8	0	0	0	0	502	623	
9	0	0	0	0	500	623	
10	0	0	0	0	499	622	
11	0	0	0	0	498	622	
12	0	0	0	0	498	622	
13	0	0	0	0	497	622	
14	0	0	0	0	497	623	
15	0	0	0	0	497	623	
0	0	0	0	0	497	622	
1	0	0	0	0	497	622	
2	0	0	0	0	499	623	
3	0	0	0	0	501	623	
4	0	0	0	0	502	622	
5	0	0	0	0	504	623	
6	0	0	0	0	505	623	
7	0	0	0	0	505	623	
8	0	0	0	0	505	623	
9	0	0	0	0	504	622	
10	0	0	0	0	504	623	
11	0	0	0	0	503	622	
12	0	0	0	0	502	622	
13	0	0	0	0	500	623	
14	0	0	0	0	499	623	
15	0	0	0	0	499	622	
0	0	0	0	0	498	622	
1	0	0	0	0	498	622	
2	0	0	0	0	499	622	
3	0	0	0	0	499	622	
4	0	0	0	0	500	622	
5	0	0	0	0	502	622	
6	0	0	0	0	502	622	
7	0	0	0	0	504	622	
8	0	0	0	0	505	622	
9	0	0	0	0	507	622	
10	0	0	0	0	507	621	
11	0	0	0	0	507	621	
12	0	0	0	0	507	621	
13	0	0	0	0	507	621	
14	0	0	0	0	506	621	
15	0	0	0	0	504	621	
0	0	0	0	0	502	621	
1	0	0	0	0	500	621	
2	0	0	0	0	499	621	
3	0	0	0	0	498	621	
4	0	0	0	0	497	621	
5	0	0	0	0	498	621	
6	0	0	0	0	497	621	
7	0	0	0	0	499	622	
8	0	0	0	0	500	621	
9	0	0	0	0	501	622	
10	0	0	0	0	503	622	
11	0	0	0	0	504	621	
12	0	0	0	0	505	623	
13	0	0	0	0	506	622	
14	0	0	0	0	507	623	
15	0	0	0	0	508	623	
0	0	0	0	0	508	623	
1	0	0	0	0	507	622	
2	0	0	0	0	507	623	
3	0	0	0	0	505	622	
4	0	0	0	0	504	622	
5	0	0	0	0	504	622	
6	0	0	0	0	502	622	
7	0	0	0	0	502	622	
8	0	0	0	0	500	622	
9	0	0	0	0	500	622	
10	0	0	0	0	500	623	
11	0	0	0	0	501	622	
12	0	0	0	0	502	622	
13	0	0	0	0	503	622	
14	0	0	0	0	504	622	
15	0	0	0	0	507	622	
0	0	0	0	0	508	622	
1	0	0	0	0	510	623	
2	0	0	0	0	511	622	
3	0	0	0	0	512	622	
4	0	0	0	0	512	622	
5	0	0	0	0	511	622	
6	0	0	0	0	511	622	
7	0	0	0	0	510	622	
8	0	0	0	0	508	621	
9	0	0	0	0	507	622	
10	0	0	0	0	505	622	
11	0	0	0	0	504	622	
12	0	0	0	0	503	622	
13	0	0	0	0	502	621	
14	0	0	0	0	502	622	
15	0	0	0	0	502	622	
0	0	0	0	0	503	621	
1	0	0	0	0	504	621	
2	0	0	0	0	505	622	
3	0	0	0	0	507	622	
4	0	0	0	0	510	622	
5	0	0	0	0	512	621	
6	0	0	0	0	513	622	
7	0	0	0	0	513	622	
8	0	0	0	0	513	622	
9	0	0	0	0	513	622	
10	0	0	0	0	513	622	
11	0	0	0	0	512	621	
12	0	0	0	0	510	622	
13	0	0	0	0	508	622	
14	0	0	0	0	508	622	
15	0	0	0	0	506	622	
0	0	0	0	0	506	622	
1	0	0	0	0	506	622	
2	0	0	0	0	506	622	
3	0	0	0	0	506	622	
4	0	0	0	0	507	622	
5	0	0	0	0	508	622	
6	0	0	0	0	509	622	
7	0	0	0	0	510	621	
8	0	0	0	0	512	622	
9	0	0	0	0	513	622	
10	0	0	0	0	513	622	
11	0	0	0	0	513	622	
12	0	0	0	0	512	622	
13	0	0	0	0	512	622	
14	0	0	0	0	511	622	
15	0	0	0	0	509	622	
0	0	0	0	0	507	622	
1	0	0	0	0	506	623	
2	0	0	0	0	505	623	
3	0	0	0	0	504	622	
4	0	0	0	0	504	623	
5	0	0	0	0	504	622	
6	0	0	0	0	504	623	
7	0	0	0	0	504	623	
8	0	0	0	0	506	622	
9	0	0	0	0	507	623	
10	0	0	0	0	509	623	
11	0	0	0	0	512	622	
12	0	0	0	0	514	622	
13	0	0	0	0	515	622	
14	0	0	0	0	515	623	
15	0	0	0	0	515	622	
0	0	0	0	0	516	622	
1	0	0	0	0	515	622	
2	0	0	0	0	515	622	
3	0	0	0	0	513	622	
4	0	0	0	0	512	622	
5	0	0	0	0	511	622	
6	0	0	0	0	509	622	
7	0	0	0	0	508	621	
8	0	0	0	0	508	621	
9	0	0	0	0	507	621	
10	0	0	0	0	507	622	
11	0	0	0	0	508	622	
12	0	0	0	0	508	621	
13	0	0	0	0	509	621	
14	0	0	0	0	509	622	
15	0	0	0	0	510	622	
0	0	0	0	0	511	621	
1	0	0	0	0	512	622	
2	0	0	0	0	512	621	
3	0	0	0	0	511	621	
4	0	0	0	0	511	621	
5	0	0	0	0	510	622	
6	0	0	0	0	510	622	
7	0	0	0	0	509	622	
8	0	0	0	0	508	621	
9	0	0	0	0	507	621	
10	0	0	0	0	505	622	
11	0	0	0	0	504	621	
12	0	0	0	0	504	622	
13	0	0	0	0	504	622	
14	0	0	0	0	504	622	
15	0	0	0	0	504	622	
0	0	0	0	0	505	622	
1	0	0	0	0	507	622	
2	0	0	0	0	508	623	
3	0	0	0	0	509	622	
4	0	0	0	0	510	622	
5	0	0	0	0	510	622	
6	0	0	0	0	511	623	
7	0	0	0	0	510	622	
8	0	0	0	0	510	622	
9	0	0	0	0	510	622	
10	0	0	0	0	510	623	
11	0	0	0	0	508	622	
12	0	0	0	0	507	622	
13	0	0	0	0	505	623	
14	0	0	0	0	502	623	
15	0	0	0	0	502	622	
0	0	0	0	0	501	622	
1	0	0	0	0	500	622	
2	0	0	0	0	500	623	
3	0	0	0	0	500	622	
4	0	0	0	0	501	623	
5	0	0	0	0	502	623	
6	0	0	0	0	503	623	
7	0	0	0	0	504	622	
8	0	0	0	0	506	622	
9	0	0	0	0	506	622	
10	0	0	0	0	506	622	
11	0	0	0	0	507	622	
12	0	0	0	0	508	622	
13	0	0	0	0	508	622	
14	0	0	0	0	507	622	
15	0	0	0	0	505	622	
0	0	0	0	0	503	622	
1	0	0	0	0	502	622	
2	0	0	0	0	500	622	
3	0	0	0	0	499	622	
4	0	0	0	0	499	622	
5	0	0	0	0	497	622	
6	0	0	0	0	497	621	
7	0	0	0	0	497	621	
8	0	0	0	0	498	622	
9	0	0	0	0	499	622	
10	0	0	0	0	500	623	
11	0	0	0	0	503	622	
12	0	0	0	0	505	622	
13	0	0	0	0	506	622	
14	0	0	0	0	507	622	
15	0	0	0	0	508	622	
0	0	0	0	0	508	622	
1	0	0	0	0	507	622	
2	0	0	0	0	505	622	
3	0	0	0	0	504	622	
4	0	0	0	0	502	622	
5	0	0	0	0	501	621	
6	0	0	0	0	500	622	
7	0	0	0	0	499	622	
8	0	0	0	0	500	622	
9	0	0	0	0	500	622	
10	0	0	0	0	501	622	
11	0	0	0	0	502	622	
12	0	0	0	0	503	622	
13	0	0	0	0	504	622	
14	0	0	0	0	504	622	
15	0	0	0	0	504	622	
0	0	0	0	0	505	622	
1	0	0	0	0	506	622	
2	0	0	0	0	507	622	
3	0	0	0	0	507	622	
4	0	0	0	0	508	623	
5	0	0	0	0	507	621	
6	0	0	0	0	505	622	
7	0	0	0	0	504	622	
8	0	0	0	0	501	622	
9	0	0	0	0	500	622	
10	0	0	0	0	499	622	
11	0	0	0	0	499	622	
12	0	0	0	0	499	622	
13	0	0	0	0	499	622	
14	0	0	0	0	499	622	
15	0	0	0	0	499	622	
0	0	0	0	0	501	622	
1	0	0	0	0	503	622	
2	0	0	0	0	505	622	
3	0	0	0	0	507	622	
4	0	0	0	0	508	622	
5	0	0	0	0	510	622	
6	0	0	0	0	511	622	
7	0	0	0	0	510	622	
8	0	0	0	0	510	622	
9	0	0	0	0	510	622	
10	0	0	0	0	509	622	
11	0	0	0	0	508	622	
12	0	0	0	0	506	622	
13	0	0	0	0	505	622	
14	0	0	0	0	504	622	
15	0	0	0	0	502	622	
0	0	0	0	0	501	621	
1	0	0	0	0	500	621	
2	0	0	0	0	500	622	
3	0	0	0	0	502	622	
4	0	0	0	0	503	621	
5	0	0	0	0	504	621	
6	0	0	0	0	506	621	
7	0	0	0	0	508	621	
8	0	0	0	0	510	622	
9	0	0	0	0	512	621	
10	0	0	0	0	513	622	
11	0	0	0	0	513	621	
12	0	0	0	0	514	622	
13	0	0	0	0	512	621	
14	0	0	0	0	510	622	
15	0	0	0	0	508	622	
0	0	0	0	0	506	622	
1	0	0	0	0	504	621	
2	0	0	0	0	502	622	
3	0	0	0	0	501	621	
4	0	0	0	0	500	622	
5	0	0	0	0	500	622	
6	0	0	0	0	499	622	
7	0	0	0	0	500	621	
8	0	0	0	0	500	622	
9	0	0	0	0	501	621	
10	0	0	0	0	503	622	
11	0	0	0	0	505	622	
12	0	0	0	0	506	622	
13	0	0	0	0	507	622	
14	0	0	0	0	508	623	
15	0	0	0	0	509	623	
0	0	0	0	0	509	623	
1	0	0	0	0	509	622	
2	0	0	0	0	507	622	
3	0	0	0	0	505	622	
4	0	0	0	0	503	622	
5	0	0	0	0	501	623	
6	0	0	0	0	499	622	
7	0	0	0	0	498	622	
8	0	0	0	0	497	622	
9	0	0	0	0	496	622	
10	0	0	0	0	496	623	
11	0	0	0	0	496	622	
12	0	0	0	0	496	622	
13	0	0	0	0	497	622	
14	0	0	0	0	498	623	
15	0	0	0	0	499	622	
0	0	0	0	0	501	622	
1	0	0	0	0	503	622	
2	0	0	0	0	505	622	
3	0	0	0	0	505	621	
4	0	0	0	0	506	622	
5	0	0	0	0	506	622	
6	0	0	0	0	505	622	
7	0	0	0	0	503	622	
8	0	0	0	0	501	622	
9	0	0	0	0	500	622	
10	0	0	0	0	498	622	
11	0	0	0	0	497	622	
12	0	0	0	0	497	622	
13	0	0	0	0	496	622	
14	0	0	0	0	496	623	
15	0	0	0	0	496	622	
0	0	0	0	0	495	623	
1	0	0	0	0	497	622	
2	0	0	0	0	497	623	
3	0	0	0	0	499	622	
4	0	0	0	0	501	622	
5	0	0	0	0	502	623	
6	0	0	0	0	502	622	
7	0	0	0	0	503	622	
8	0	0	0	0	503	622	
9	0	0	0	0	503	622	
10	0	0	0	0	502	622	
11	0	0	0	0	501	622	
12	0	0	0	0	501	621	
13	0	0	0	0	500	622	
14	0	0	0	0	500	622	
15	0	0	0	0	499	621	
0	0	0	0	0	499	621	
1	0	0	0	0	498	621	
2	0	0	0	0	499	622	
3	0	0	0	0	500	622	
4	0	0	0	0	501	622	
5	0	0	0	0	502	621	
6	0	0	0	0	504	622	
7	0	0	0	0	505	622	
8	0	0	0	0	507	622	
9	0	0	0	0	509	622	
10	0	0	0	0	510	622	
11	0	0	0	0	511	622	
12	0	0	0	0	511	622	
13	0	0	0	0	510	621	
14	0	0	0	0	508	621	
15	0	0	0	0	507	621	
0	0	0	0	0	505	621	
1	0	0	0	0	504	621	
2	0	0	0	0	504	622	
3	0	0	0	0	504	622	
4	0	0	0	0	504	622	
5	0	0	0	0	503	622	
6	0	0	0	0	502	622	
7	0	0	0	0	502	622	
8	0	0	0	0	502	622	
9	0	0	0	0	504	622	
10	0	0	0	0	505	622	
11	0	0	0	0	506	622	
12	0	0	0	0	508	622	
13	0	0	0	0	510	622	
14	0	0	0	0	511	622	
15	0	0	0	0	512	622	
0	0	0	0	0	513	622	
1	0	0	0	0	512	621	
2	0	0	0	0	512	622	
3	0	0	0	0	512	621	
4	0	0	0	0	510	622	
5	0	0	0	0	509	622	
6	0	0	0	0	507	622	
7	0	0	0	0	505	622	
8	0	0	0	0	504	622	
9	0	0	0	0	504	622	
10	0	0	0	0	504	623	
11	0	0	0	0	505	622	
12	0	0	0	0	505	622	
13	0	0	0	0	506	622	
14	0	0	0	0	507	623	
15	0	0	0	0	508	622	
0	0	0	0	0	510	622	
1	0	0	0	0	512	622	
2	0	0	0	0	513	622	
3	0	0	0	0	514	622	
4	0	0	0	0	514	622	
5	0	0	0	0	513	622	
6	0	0	0	0	512	622	
7	0	0	0	0	511	622	
8	0	0	0	0	510	621	
9	0	0	0	0	510	622	
10	0	0	0	0	510	622	
11	0	0	0	0	509	622	
12	0	0	0	0	507	622	
13	0	0	0	0	506	622	
14	0	0	0	0	507	622	
15	0	0	0	0	507	622	
0	0	0	0	0	507	621	
1	0	0	0	0	508	621	
2	0	0	0	0	508	622	
3	0	0	0	0	509	621	
4	0	0	0	0	511	621	
5	0	0	0	0	512	622	
6	0	0	0	0	512	622	
7	0	0	0	0	513	622	
8	0	0	0	0	515	622	
9	0	0	0	0	515	621	
10	0	0	0	0	515	622	
11	0	0	0	0	514	621	
12	0	0	0	0	512	621	
13	0	0	0	0	510	621	
14	0	0	0	0	508	621	
15	0	0	0	0	508	621	
0	0	0	0	0	507	622	
1	0	0	0	0	507	621	
2	0	0	0	0	507	622	
3	0	0	0	0	507	620	
4	0	0	0	0	507	621	
5	0	0	0	0	508	621	
6	0	0	0	0	509	621	
7	0	0	0	0	511	622	
8	0	0	0	0	512	621	
9	0	0	0	0	514	621	
10	0	0	0	0	514	622	
11	0	0	0	0	514	622	
12	0	0	0	0	514	621	
13	0	0	0	0	514	622	
14	0	0	0	0	513	622	
15	0	0	0	0	512	622	
0	0	0	0	0	511	623	
1	0	0	0	0	509	622	
2	0	0	0	0	508	623	
3	0	0	0	0	507	622	
4	0	0	0	0	507	622	
5	0	0	0	0	506	622	
6	0	0	0	0	506	622	
7	0	0	0	0	507	622	
8	0	0	0	0	508	622	
9	0	0	0	0	509	622	
10	0	0	0	0	509	623	
11	0	0	0	0	511	623	
12	0	0	0	0	511	622	
13	0	0	0	0	511	622	
14	0	0	0	0	510	623	
15	0	0	0	0	509	622	
0	0	0	0	0	507	622	
1	0	0	0	0	504	623	
2	0	0	0	0	501	623	
3	0	0	0	0	498	623	
4	0	0	0	0	494	622	
5	0	0	0	0	491	623	
6	0	0	0	0	488	622	
7	0	0	0	0	487	622	
8	0	0	0	0	487	622	
9	0	0	0	0	487	622	
10	0	0	0	0	487	623	
11	0	0	0	0	489	622	
12	0	0	0	0	492	622	
13	0	0	0	0	497	623	
14	0	0	0	0	503	622	
15	0	0	0	0	512	622	
0	0	0	0	0	522	622	
1	0	0	0	0	534	622	
2	0	0	0	0	549	623	
3	0	0	0	0	565	622	
4	0	0	0	0	580	622	
5	0	0	0	0	595	623	
6	0	0	0	0	611	623	
7	0	0	0	0	627	623	
8	0	0	0	0	641	622	
9	0	0	0	0	655	622	
10	0	0	0	0	670	623	
11	0	0	0	0	684	622	
12	0	0	0	0	699	623	
13	0	0	0	0	711	622	
14	0	0	0	0	719	622	
15	0	0	0	0	724	622	
0	0	0	0	0	725	622	
1	0	0	0	0	722	622	
2	0	0	0	0	715	622	
3	0	0	0	0	705	622	
4	0	0	0	0	697	622	
5	0	0	0	0	689	622	
6	0	0	0	0	679	623	
7	0	0	0	0	670	622	
8	0	0	0	0	660	622	
9	0	0	0	0	649	622	
10	0	0	0	0	638	623	
11	0	0	0	0	625	622	
12	0	0	0	0	610	622	
13	0	0	0	0	595	622	
14	0	0	0	0	579	622	
15	0	0	0	0	564	622	
0	0	0	0	0	551	622	
1	0	0	0	0	539	622	
2	0	0	0	0	529	622	
3	0	0	0	0	519	622	
4	0	0	0	0	513	621	
5	0	0	0	0	507	622	
6	0	0	0	0	503	622	
7	0	0	0	0	499	622	
8	0	0	0	0	497	622	
9	0	0	0	0	494	622	
10	0	0	0	0	490	623	
11	0	0	0	0	487	621	
12	0	0	0	0	484	622	
13	0	0	0	0	481	622	
14	0	0	0	0	478	622	
15	0	0	0	0	475	622	
0	0	0	0	0	471	622	
1	0	0	0	0	469	622	
2	0	0	0	0	466	622	
3	0	0	0	0	463	622	
4	0	0	0	0	462	622	
5	0	0	0	0	461	622	
6	0	0	0	0	461	622	
7	0	0	0	0	460	622	
8	0	0	0	0	461	622	
9	0	0	0	0	462	622	
10	0	0	0	0	463	622	
11	0	0	0	0	463	622	
12	0	0	0	0	464	621	
13	0	0	0	0	466	621	
14	0	0	0	0	466	621	
15	0	0	0	0	467	621	
0	0	0	0	0	467	621	
1	0	0	0	0	467	621	
2	0	0	0	0	467	621	
3	0	0	0	0	467	621	
4	0	0	0	0	465	621	
5	0	0	0	0	464	621	
6	0	0	0	0	463	621	
7	0	0	0	0	462	622	
8	0	0	0	0	461	621	
9	0	0	0	0	461	621	
10	0	0	0	0	461	622	
11	0	0	0	0	461	621	
12	0	0	0	0	462	622	
13	0	0	0	0	463	622	
14	0	0	0	0	464	622	
15	0	0	0	0	466	622	
0	0	0	0	0	468	622	
1	0	0	0	0	471	621	
2	0	0	0	0	471	622	
3	0	0	0	0	472	622	
4	0	0	0	0	472	622	
5	0	0	0	0	472	622	
6	0	0	0	0	472	622	
7	0	0	0	0	471	621	
8	0	0	0	0	471	622	
9	0	0	0	0	470	622	
10	0	0	0	0	469	622	
11	0	0	0	0	467	622	
12	0	0	0	0	467	622	
13	0	0	0	0	465	622	
14	0	0	0	0	465	623	
15	0	0	0	0	465	623	
0	0	0	0	0	467	622	
1	0	0	0	0	469	623	
2	0	0	0	0	470	622	
3	0	0	0	0	472	621	
4	0	0	0	0	474	622	
5	0	0	0	0	475	622	
6	0	0	0	0	477	622	
7	0	0	0	0	478	622	
8	0	0	0	0	478	622	
9	0	0	0	0	478	622	
10	0	0	0	0	478	623	
11	0	0	0	0	477	622	
12	0	0	0	0	477	622	
13	0	0	0	0	476	622	
14	0	0	0	0	476	623	
15	0	0	0	0	475	622	
0	0	0	0	0	474	622	
1	0	0	0	0	473	622	
2	0	0	0	0	472	623	
3	0	0	0	0	473	623	
4	0	0	0	0	474	622	
5	0	0	0	0	476	622	
6	0	0	0	0	477	622	
7	0	0	0	0	479	622	
8	0	0	0	0	480	622	
9	0	0	0	0	481	622	
10	0	0	0	0	484	623	
11	0	0	0	0	486	623	
12	0	0	0	0	487	622	
13	0	0	0	0	486	622	
14	0	0	0	0	485	622	
15	0	0	0	0	484	622	
0	0	0	0	0	483	621	
1	0	0	0	0	482	623	
2	0	0	0	0	480	622	
3	0	0	0	0	479	622	
4	0	0	0	0	479	622	
5	0	0	0	0	479	622	
6	0	0	0	0	480	622	
7	0	0	0	0	481	622	
8	0	0	0	0	483	621	
9	0	0	0	0	484	622	
10	0	0	0	0	487	622	
11	0	0	0	0	489	622	
12	0	0	0	0	490	621	
13	0	0	0	0	491	622	
14	0	0	0	0	493	622	
15	0	0	0	0	494	622	
0	0	0	0	0	494	622	
1	0	0	0	0	493	622	
2	0	0	0	0	493	623	
3	0	0	0	0	492	623	
4	0	0	0	0	491	623	
5	0	0	0	0	490	622	
6	0	0	0	0	488	622	
7	0	0	0	0	487	623	
8	0	0	0	0	486	623	
9	0	0	0	0	484	622	
10	0	0	0	0	484	623	
11	0	0	0	0	485	623	
12	0	0	0	0	486	622	
13	0	0	0	0	488	622	
14	0	0	0	0	489	622	
15	0	0	0	0	491	622	
0	0	0	0	0	492	622	
1	0	0	0	0	493	621	
2	0	0	0	0	494	622	
3	0	0	0	0	494	621	
4	0	0	0	0	494	622	
5	0	0	0	0	494	621	
6	0	0	0	0	494	622	
7	0	0	0	0	494	622	
8	0	0	0	0	492	622	
9	0	0	0	0	491	622	
10	0	0	0	0	490	623	
11	0	0	0	0	489	622	
12	0	0	0	0	488	623	
13	0	0	0	0	487	623	
14	0	0	0	0	487	623	
15	0	0	0	0	488	622	
0	0	0	0	0	488	623	
1	0	0	0	0	489	622	
2	0	0	0	0	490	622	
3	0	0	0	0	492	621	
4	0	0	0	0	494	622	
5	0	0	0	0	495	622	
6	0	0	0	0	497	622	
7	0	0	0	0	498	621	
8	0	0	0	0	499	621	
9	0	0	0	0	499	621	
10	0	0	0	0	499	622	
11	0	0	0	0	498	622	
12	0	0	0	0	497	622	
13	0	0	0	0	496	622	
14	0	0	0	0	495	622	
15	0	0	0	0	495	622	
0	0	0	0	0	495	622	
1	0	0	0	0	495	622	
2	0	0	0	0	495	623	
3	0	0	0	0	496	623	
4	0	0	0	0	496	623	
5	0	0	0	0	497	623	
6	0	0	0	0	498	623	
7	0	0	0	0	500	623	
8	0	0	0	0	502	622	
9	0	0	0	0	504	622	
10	0	0	0	0	505	622	
11	0	0	0	0	505	622	
12	0	0	0	0	505	622	
13	0	0	0	0	505	622	
14	0	0	0	0	505	622	
15	0	0	0	0	505	622	
0	0	0	0	0	505	622	
1	0	0	0	0	504	622	
2	0	0	0	0	504	622	
3	0	0	0	0	503	621	
4	0	0	0	0	501	620	
5	0	0	0	0	501	621	
6	0	0	0	0	502	621	
7	0	0	0	0	502	621	
8	0	0	0	0	503	621	
9	0	0	0	0	504	622	
10	0	0	0	0	505	622	
11	0	0	0	0	507	621	
12	0	0	0	0	508	622	
13	0	0	0	0	510	622	
14	0	0	0	0	511	621	
15	0	0	0	0	512	620	
0	0	0	0	0	513	621	
1	0	0	0	0	513	621	
2	0	0	0	0	513	622	
3	0	0	0	0	511	622	
4	0	0	0	0	510	622	
5	0	0	0	0	509	621	
6	0	0	0	0	508	622	
7	0	0	0	0	507	621	
8	0	0	0	0	506	622	
9	0	0	0	0	505	621	
10	0	0	0	0	505	622	
11	0	0	0	0	505	621	
12	0	0	0	0	506	621	
13	0	0	0	0	508	622	
14	0	0	0	0	510	623	
15	0	0	0	0	511	622	
0	0	0	0	0	513	622	
1	0	0	0	0	515	622	
2	0	0	0	0	517	623	
3	0	0	0	0	517	622	
4	0	0	0	0	518	622	
5	0	0	0	0	518	623	
6	0	0	0	0	518	623	
7	0	0	0	0	517	622	
8	0	0	0	0	516	622	
9	0	0	0	0	515	622	
10	0	0	0	0	513	622	
11	0	0	0	0	513	622	
12	0	0	0	0	512	622	
13	0	0	0	0	512	621	
14	0	0	0	0	512	621	
15	0	0	0	0	512	621	
0	0	0	0	0	511	621	
1	0	0	0	0	512	621	
2	0	0	0	0	513	622	
3	0	0	0	0	515	621	
4	0	0	0	0	516	621	
5	0	0	0	0	518	622	
6	0	0	0	0	519	622	
7	0	0	0	0	520	622	
8	0	0	0	0	521	622	
9	0	0	0	0	520	622	
10	0	0	0	0	520	622	
11	0	0	0	0	519	622	
12	0	0	0	0	517	622	
13	0	0	0	0	516	622	
14	0	0	0	0	514	622	
15	0	0	0	0	513	623	
0	0	0	0	0	512	622	
1	0	0	0	0	510	622	
2	0	0	0	0	509	622	
3	0	0	0	0	508	622	
4	0	0	0	0	509	623	
5	0	0	0	0	510	622	
6	0	0	0	0	511	623	
7	0	0	0	0	512	622	
8	0	0	0	0	513	623	
9	0	0	0	0	515	622	
10	0	0	0	0	516	623	
11	0	0	0	0	515	622	
12	0	0	0	0	515	622	
13	0	0	0	0	515	621	
14	0	0	0	0	514	622	
15	0	0	0	0	512	622	
0	0	0	0	0	510	622	
1	0	0	0	0	508	622	
2	0	0	0	0	507	623	
3	0	0	0	0	505	622	
4	0	0	0	0	504	622	
5	0	0	0	0	502	621	
6	0	0	0	0	501	622	
7	0	0	0	0	500	622	
8	0	0	0	0	500	622	
9	0	0	0	0	501	622	
10	0	0	0	0	501	623	
11	0	0	0	0	502	622	
12	0	0	0	0	503	622	
13	0	0	0	0	504	622	
14	0	0	0	0	504	622	
15	0	0	0	0	504	622	
0	0	0	0	0	503	622	
1	0	0	0	0	502	622	
2	0	0	0	0	500	622	
3	0	0	0	0	499	622	
4	0	0	0	0	497	621	
5	0	0	0	0	494	622	
6	0	0	0	0	492	621	
7	0	0	0	0	491	621	
8	0	0	0	0	489	621	
9	0	0	0	0	487	621	
10	0	0	0	0	487	622	
11	0	0	0	0	487	622	
12	0	0	0	0	487	621	
13	0	0	0	0	488	622	
14	0	0	0	0	489	621	
15	0	0	0	0	490	621	
0	0	0	0	0	490	621	
1	0	0	0	0	491	622	
2	0	0	0	0	491	622	
3	0	0	0	0	491	621	
4	0	0	0	0	492	622	
5	0	0	0	0	492	622	
6	0	0	0	0	491	622	
7	0	0	0	0	489	622	
8	0	0	0	0	487	621	
9	0	0	0	0	486	622	
10	0	0	0	0	484	622	
11	0	0	0	0	483	622	
12	0	0	0	0	482	622	
13	0	0	0	0	481	622	
14	0	0	0	0	480	622	
15	0	0	0	0	480	622	
0	0	0	0	0	482	622	
1	0	0	0	0	482	622	
2	0	0	0	0	484	622	
3	0	0	0	0	485	622	
4	0	0	0	0	487	622	
5	0	0	0	0	488	622	
6	0	0	0	0	489	623	
7	0	0	0	0	490	622	
8	0	0	0	0	491	623	
9	0	0	0	0	491	622	
10	0	0	0	0	490	624	
11	0	0	0	0	490	622	
12	0	0	0	0	488	623	
13	0	0	0	0	487	623	
14	0	0	0	0	486	623	
15	0	0	0	0	484	622	
0	0	0	0	0	483	622	
1	0	0	0	0	483	622	
2	0	0	0	0	482	623	
3	0	0	0	0	483	622	
4	0	0	0	0	483	622	
5	0	0	0	0	484	622	
6	0	0	0	0	485	623	
7	0	0	0	0	488	622	
8	0	0	0	0	490	621	
9	0	0	0	0	492	622	
10	0	0	0	0	494	623	
11	0	0	0	0	494	622	
12	0	0	0	0	495	622	
13	0	0	0	0	495	622	
14	0	0	0	0	494	622	
15	0	0	0	0	493	622	
0	0	0	0	0	491	621	
1	0	0	0	0	491	622	
2	0	0	0	0	489	622	
3	0	0	0	0	487	621	
4	0	0	0	0	487	621	
5	0	0	0	0	486	621	
6	0	0	0	0	485	622	
7	0	0	0	0	485	622	
8	0	0	0	0	485	621	
9	0	0	0	0	486	622	
10	0	0	0	0	487	622	
11	0	0	0	0	488	622	
12	0	0	0	0	489	622	
13	0	0	0	0	492	621	
14	0	0	0	0	494	621	
15	0	0	0	0	495	621	
0	0	0	0	0	496	622	
1	0	0	0	0	496	622	
2	0	0	0	0	495	622	
3	0	0	0	0	495	622	
4	0	0	0	0	494	622	
5	0	0	0	0	493	621	
6	0	0	0	0	492	622	
7	0	0	0	0	490	623	
8	0	0	0	0	489	623	
9	0	0	0	0	489	623	
10	0	0	0	0	488	623	
11	0	0	0	0	489	622	
12	0	0	0	0	489	623	
13	0	0	0	0	491	623	
14	0	0	0	0	492	623	
15	0	0	0	0	493	623	
0	0	0	0	0	494	623	
1	0	0	0	0	496	623	
2	0	0	0	0	497	624	
3	0	0	0	0	499	624	
4	0	0	0	0	500	625	
5	0	0	0	0	500	626	
6	0	0	0	0	500	627	
7	0	0	0	0	499	627	
8	0	0	0	0	498	627	
9	0	0	0	0	498	626	
10	0	0	0	0	497	626	
11	0	0	0	0	496	625	
12	0	0	0	0	496	624	
13	0	0	0	0	495	623	
14	0	0	0	0	495	623	
15	0	0	0	0	495	621	
0	0	0	0	0	496	621	
1	0	0	0	0	496	620	
2	0	0	0	0	498	620	
3	0	0	0	0	500	620	
4	0	0	0	0	502	620	
5	0	0	0	0	504	620	
6	0	0	0	0	506	620	
7	0	0	0	0	507	620	
8	0	0	0	0	507	620	
9	0	0	0	0	508	620	
10	0	0	0	0	507	621	
11	0	0	0	0	507	620	
12	0	0	0	0	506	620	
13	0	0	0	0	504	620	
14	0	0	0	0	503	620	
15	0	0	0	0	503	620	
0	0	0	0	0	503	620	
1	0	0	0	0	502	619	
2	0	0	0	0	503	620	
3	0	0	0	0	503	619	
4	0	0	0	0	504	620	
5	0	0	0	0	505	619	
6	0	0	0	0	507	620	
7	0	0	0	0	508	620	
8	0	0	0	0	509	620	
9	0	0	0	0	511	620	
10	0	0	0	0	512	620	
11	0	0	0	0	513	620	
12	0	0	0	0	514	621	
13	0	0	0	0	515	621	
14	0	0	0	0	514	621	
15	0	0	0	0	513	622	
0	0	0	0	0	513	622	
1	0	0	0	0	512	622	
2	0	0	0	0	511	622	
3	0	0	0	0	509	621	
4	0	0	0	0	509	622	
5	0	0	0	0	508	622	
6	0	0	0	0	509	622	
7	0	0	0	0	509	622	
8	0	0	0	0	510	622	
9	0	0	0	0	511	622	
10	0	0	0	0	512	622	
11	0	0	0	0	513	622	
12	0	0	0	0	514	622	
13	0	0	0	0	516	623	
14	0	0	0	0	517	622	
15	0	0	0	0	518	622	
0	0	0	0	0	519	622	
1	0	0	0	0	519	622	
2	0	0	0	0	519	623	
3	0	0	0	0	519	622	
4	0	0	0	0	519	622	
5	0	0	0	0	517	622	
6	0	0	0	0	516	623	
7	0	0	0	0	515	622	
8	0	0	0	0	514	622	
9	0	0	0	0	514	622	
10	0	0	0	0	515	623	
11	0	0	0	0	515	623	
12	0	0	0	0	516	622	
13	0	0	0	0	517	622	
14	0	0	0	0	519	622	
15	0	0	0	0	520	622	
0	0	0	0	0	521	623	
1	0	0	0	0	523	622	
2	0	0	0	0	523	623	
3	0	0	0	0	524	622	
4	0	0	0	0	525	622	
5	0	0	0	0	525	622	
6	0	0	0	0	525	623	
7	0	0	0	0	525	622	
8	0	0	0	0	524	622	
9	0	0	0	0	523	622	
10	0	0	0	0	521	622	
11	0	0	0	0	519	622	
12	0	0	0	0	519	622	
13	0	0	0	0	519	622	
14	0	0	0	0	519	622	
15	0	0	0	0	519	622	
0	0	0	0	0	520	622	
1	0	0	0	0	521	622	
2	0	0	0	0	522	622	
3	0	0	0	0	523	622	
4	0	0	0	0	524	622	
5	0	0	0	0	527	622	
6	0	0	0	0	527	622	
7	0	0	0	0	527	622	
8	0	0	0	0	527	622	
9	0	0	0	0	526	622	
10	0	0	0	0	526	623	
11	0	0	0	0	524	623	
12	0	0	0	0	523	623	
13	0	0	0	0	523	623	
14	0	0	0	0	522	623	
15	0	0	0	0	521	623	
0	0	0	0	0	520	623	
1	0	0	0	0	519	622	
2	0	0	0	0	518	623	
3	0	0	0	0	518	623	
4	0	0	0	0	518	623	
5	0	0	0	0	519	623	
6	0	0	0	0	519	622	
7	0	0	0	0	521	623	
8	0	0	0	0	523	623	
9	0	0	0	0	524	622	
10	0	0	0	0	525	623	
11	0	0	0	0	526	622	
12	0	0	0	0	526	623	
13	0	0	0	0	527	622	
14	0	0	0	0	526	623	
15	0	0	0	0	525	623	
0	0	0	0	0	524	623	
1	0	0	0	0	522	623	
2	0	0	0	0	520	623	
3	0	0	0	0	519	623	
4	0	0	0	0	519	622	
5	0	0	0	0	518	623	
6	0	0	0	0	518	623	
7	0	0	0	0	517	622	
8	0	0	0	0	518	623	
9	0	0	0	0	519	622	
10	0	0	0	0	521	623	
11	0	0	0	0	523	622	
12	0	0	0	0	524	622	
13	0	0	0	0	525	622	
14	0	0	0	0	526	623	
15	0	0	0	0	526	623	
0	0	0	0	0	527	623	
1	0	0	0	0	527	622	
2	0	0	0	0	527	623	
3	0	0	0	0	526	623	
4	0	0	0	0	524	622	
5	0	0	0	0	521	622	
6	0	0	0	0	519	623	
7	0	0	0	0	518	622	
8	0	0	0	0	517	622	
9	0	0	0	0	516	622	
10	0	0	0	0	516	622	
11	0	0	0	0	516	621	
12	0	0	0	0	516	622	
13	0	0	0	0	516	622	
14	0	0	0	0	517	622	
15	0	0	0	0	518	622	
0	0	0	0	0	519	622	
1	0	0	0	0	521	623	
2	0	0	0	0	523	622	
3	0	0	0	0	524	622	
4	0	0	0	0	525	622	
5	0	0	0	0	526	621	
6	0	0	0	0	525	621	
7	0	0	0	0	525	621	
8	0	0	0	0	524	621	
9	0	0	0	0	523	622	
10	0	0	0	0	521	622	
11	0	0	0	0	519	621	
12	0	0	0	0	518	622	
13	0	0	0	0	516	622	
14	0	0	0	0	516	622	
15	0	0	0	0	514	622	
0	0	0	0	0	514	621	
1	0	0	0	0	514	622	
2	0	0	0	0	515	622	
3	0	0	0	0	516	621	
4	0	0	0	0	518	622	
5	0	0	0	0	519	621	
6	0	0	0	0	521	622	
7	0	0	0	0	522	621	
8	0	0	0	0	524	622	
9	0	0	0	0	523	622	
10	0	0	0	0	522	622	
11	0	0	0	0	521	622	
12	0	0	0	0	518	622	
13	0	0	0	0	516	621	
14	0	0	0	0	514	622	
15	0	0	0	0	513	621	
0	0	0	0	0	512	622	
1	0	0	0	0	511	621	
2	0	0	0	0	512	622	
3	0	0	0	0	512	622	
4	0	0	0	0	513	622	
5	0	0	0	0	513	622	
6	0	0	0	0	515	621	
7	0	0	0	0	516	622	
8	0	0	0	0	518	621	
9	0	0	0	0	519	622	
10	0	0	0	0	519	622	
11	0	0	0	0	519	622	
12	0	0	0	0	519	622	
13	0	0	0	0	517	621	
14	0	0	0	0	516	622	
15	0	0	0	0	515	621	
0	0	0	0	0	513	622	
1	0	0	0	0	511	622	
2	0	0	0	0	510	622	
3	0	0	0	0	508	622	
4	0	0	0	0	507	622	
5	0	0	0	0	505	622	
6	0	0	0	0	504	622	
7	0	0	0	0	504	623	
8	0	0	0	0	505	622	
9	0	0	0	0	505	623	
10	0	0	0	0	506	623	
11	0	0	0	0	507	623	
12	0	0	0	0	507	623	
13	0	0	0	0	509	623	
14	0	0	0	0	510	623	
15	0	0	0	0	511	622	
0	0	0	0	0	512	623	
1	0	0	0	0	512	623	
2	0	0	0	0	512	623	
3	0	0	0	0	512	622	
4	0	0	0	0	511	623	
5	0	0	0	0	509	622	
6	0	0	0	0	508	623	
7	0	0	0	0	507	622	
8	0	0	0	0	505	623	
9	0	0	0	0	504	622	
10	0	0	0	0	504	623	
11	0	0	0	0	503	623	
12	0	0	0	0	504	622	
13	0	0	0	0	504	622	
14	0	0	0	0	505	622	
15	0	0	0	0	507	622	
0	0	0	0	0	508	622	
1	0	0	0	0	509	622	
2	0	0	0	0	509	622	
3	0	0	0	0	509	622	
4	0	0	0	0	510	622	
5	0	0	0	0	510	622	
6	0	0	0	0	509	622	
7	0	0	0	0	508	622	
8	0	0	0	0	505	621	
9	0	0	0	0	504	621	
10	0	0	0	0	503	622	
11	0	0	0	0	501	621	
12	0	0	0	0	500	621	
13	0	0	0	0	500	622	
14	0	0	0	0	499	622	
15	0	0	0	0	500	621	
0	0	0	0	0	500	622	
1	0	0	0	0	502	622	
2	0	0	0	0	503	622	
3	0	0	0	0	504	622	
4	0	0	0	0	505	622	
5	0	0	0	0	506	622	
6	0	0	0	0	507	622	
7	0	0	0	0	507	621	
8	0	0	0	0	508	622	
9	0	0	0	0	508	622	
10	0	0	0	0	508	623	
11	0	0	0	0	508	623	
12	0	0	0	0	507	622	
13	0	0	0	0	505	623	
14	0	0	0	0	504	623	
15	0	0	0	0	502	623	
0	0	0	0	0	501	623	
1	0	0	0	0	501	622	
2	0	0	0	0	500	623	
3	0	0	0	0	500	622	
4	0	0	0	0	499	622	
5	0	0	0	0	499	622	
6	0	0	0	0	500	622	
7	0	0	0	0	502	622	
8	0	0	0	0	504	622	
9	0	0	0	0	506	622	
10	0	0	0	0	508	622	
11	0	0	0	0	509	622	
12	0	0	0	0	510	623	
13	0	0	0	0	511	622	
14	0	0	0	0	511	623	
15	0	0	0	0	511	622	
0	0	0	0	0	510	622	
1	0	0	0	0	508	622	
2	0	0	0	0	507	622	
3	0	0	0	0	506	622	
4	0	0	0	0	505	621	
5	0	0	0	0	503	621	
6	0	0	0	0	503	622	
7	0	0	0	0	502	621	
8	0	0	0	0	503	622	
9	0	0	0	0	504	622	
10	0	0	0	0	505	622	
11	0	0	0	0	507	622	
12	0	0	0	0	508	622	
13	0	0	0	0	509	622	
14	0	0	0	0	510	622	
15	0	0	0	0	511	622	
0	0	0	0	0	512	622	
1	0	0	0	0	513	623	
2	0	0	0	0	512	623	
3	0	0	0	0	512	623	
4	0	0	0	0	510	623	
5	0	0	0	0	509	622	
6	0	0	0	0	508	622	
7	0	0	0	0	506	623	
8	0	0	0	0	505	623	
9	0	0	0	0	504	623	
10	0	0	0	0	503	623	
11	0	0	0	0	502	622	
12	0	0	0	0	503	622	
13	0	0	0	0	504	622	
14	0	0	0	0	505	623	
15	0	0	0	0	506	622	
0	0	0	0	0	508	622	
1	0	0	0	0	509	622	
2	0	0	0	0	510	623	
3	0	0	0	0	511	623	
4	0	0	0	0	512	622	
5	0	0	0	0	512	622	
6	0	0	0	0	512	623	
7	0	0	0	0	512	622	
8	0	0	0	0	510	622	
9	0	0	0	0	509	622	
10	0	0	0	0	508	622	
11	0	0	0	0	508	622	
12	0	0	0	0	508	622	
13	0	0	0	0	507	621	
14	0	0	0	0	507	623	
15	0	0	0	0	507	621	
0	0	0	0	0	507	622	
1	0	0	0	0	507	621	
2	0	0	0	0	506	622	
3	0	0	0	0	508	622	
4	0	0	0	0	508	621	
5	0	0	0	0	509	622	
6	0	0	0	0	510	622	
7	0	0	0	0	511	622	
8	0	0	0	0	511	622	
9	0	0	0	0	511	621	
10	0	0	0	0	511	622	
11	0	0	0	0	510	621	
12	0	0	0	0	509	621	
13	0	0	0	0	507	621	
14	0	0	0	0	506	621	
15	0	0	0	0	504	621	
0	0	0	0	0	503	621	
1	0	0	0	0	502	622	
2	0	0	0	0	502	622	
3	0	0	0	0	502	622	
4	0	0	0	0	502	622	
5	0	0	0	0	502	622	
6	0	0	0	0	503	622	
7	0	0	0	0	504	622	
8	0	0	0	0	505	622	
9	0	0	0	0	506	621	
10	0	0	0	0	508	622	
11	0	0	0	0	508	622	
12	0	0	0	0	508	622	
13	0	0	0	0	508	622	
14	0	0	0	0	508	622	
15	0	0	0	0	508	622	
0	0	0	0	0	507	623	
1	0	0	0	0	505	623	
2	0	0	0	0	503	623	
3	0	0	0	0	501	622	
4	0	0	0	0	500	623	
5	0	0	0	0	500	623	
6	0	0	0	0	499	622	
7	0	0	0	0	498	622	
8	0	0	0	0	499	622	
9	0	0	0	0	499	622	
10	0	0	0	0	499	623	
11	0	0	0	0	500	623	
12	0	0	0	0	501	622	
13	0	0	0	0	503	623	
14	0	0	0	0	504	623	
15	0	0	0	0	505	623	
0	0	0	0	0	505	623	
1	0	0	0	0	506	623	
2	0	0	0	0	505	624	
3	0	0	0	0	505	623	
4	0	0	0	0	504	623	
5	0	0	0	0	503	622	
6	0	0	0	0	501	623	
7	0	0	0	0	500	623	
8	0	0	0	0	499	622	
9	0	0	0	0	498	622	
10	0	0	0	0	498	622	
11	0	0	0	0	497	622	
12	0	0	0	0	497	622	
13	0	0	0	0	497	623	
14	0	0	0	0	499	622	
15	0	0	0	0	499	622	
0	0	0	0	0	500	622	
1	0	0	0	0	501	621	
2	0	0	0	0	502	622	
3	0	0	0	0	503	621	
4	0	0	0	0	503	621	
5	0	0	0	0	504	621	
6	0	0	0	0	503	621	
7	0	0	0	0	503	620	
8	0	0	0	0	502	621	
9	0	0	0	0	501	620	
10	0	0	0	0	499	621	
11	0	0	0	0	498	621	
12	0	0	0	0	497	621	
13	0	0	0	0	496	621	
14	0	0	0	0	495	621	
15	0	0	0	0	495	621	
0	0	0	0	0	495	621	
1	0	0	0	0	495	621	
2	0	0	0	0	497	621	
3	0	0	0	0	498	621	
4	0	0	0	0	499	621	
5	0	0	0	0	500	621	
6	0	0	0	0	502	621	
7	0	0	0	0	504	621	
8	0	0	0	0	505	622	
9	0	0	0	0	505	622	
10	0	0	0	0	504	622	
11	0	0	0	0	504	621	
12	0	0	0	0	504	621	
13	0	0	0	0	503	622	
14	0	0	0	0	501	622	
15	0	0	0	0	501	621	
0	0	0	0	0	500	622	
1	0	0	0	0	500	621	
2	0	0	0	0	500	622	
3	0	0	0	0	501	621	
4	0	0	0	0	502	622	
5	0	0	0	0	503	623	
6	0	0	0	0	504	623	
7	0	0	0	0	506	623	
8	0	0	0	0	508	623	
9	0	0	0	0	510	623	
10	0	0	0	0	512	623	
11	0	0	0	0	513	623	
12	0	0	0	0	515	623	
13	0	0	0	0	515	624	
14	0	0	0	0	515	624	
15	0	0	0	0	515	625	
0	0	0	0	0	515	624	
1	0	0	0	0	514	624	
2	0	0	0	0	513	624	
3	0	0	0	0	511	623	
4	0	0	0	0	510	623	
5	0	0	0	0	509	623	
6	0	0	0	0	509	624	
7	0	0	0	0	508	623	
8	0	0	0	0	508	623	
9	0	0	0	0	508	623	
10	0	0	0	0	509	623	
11	0	0	0	0	510	623	
12	0	0	0	0	510	624	
13	0	0	0	0	511	623	
14	0	0	0	0	511	624	
15	0	0	0	0	512	623	
0	0	0	0	0	512	624	
1	0	0	0	0	512	623	
2	0	0	0	0	511	623	
3	0	0	0	0	510	623	
4	0	0	0	0	509	623	
5	0	0	0	0	507	623	
6	0	0	0	0	506	623	
7	0	0	0	0	505	622	
8	0	0	0	0	504	623	
9	0	0	0	0	503	622	
10	0	0	0	0	503	623	
11	0	0	0	0	503	623	
12	0	0	0	0	503	622	
13	0	0	0	0	505	623	
14	0	0	0	0	507	623	
15	0	0	0	0	508	622	
0	0	0	0	0	510	622	
1	0	0	0	0	511	622	
2	0	0	0	0	512	623	
3	0	0	0	0	513	622	
4	0	0	0	0	514	622	
5	0	0	0	0	515	622	
6	0	0	0	0	515	622	
7	0	0	0	0	515	622	
8	0	0	0	0	514	622	
9	0	0	0	0	513	622	
10	0	0	0	0	512	623	
11	0	0	0	0	511	622	
12	0	0	0	0	510	623	
13	0	0	0	0	509	622	
14	0	0	0	0	508	623	
15	0	0	0	0	508	622	
0	0	0	0	0	509	622	
1	0	0	0	0	510	622	
2	0	0	0	0	511	622	
3	0	0	0	0	512	621	
4	0	0	0	0	514	622	
5	0	0	0	0	515	622	
6	0	0	0	0	516	622	
7	0	0	0	0	517	621	
8	0	0	0	0	518	622	
9	0	0	0	0	517	622	
10	0	0	0	0	516	622	
11	0	0	0	0	515	622	
12	0	0	0	0	514	622	
13	0	0	0	0	512	622	
14	0	0	0	0	510	622	
15	0	0	0	0	509	622	
0	0	0	0	0	508	622	
1	0	0	0	0	506	621	
2	0	0	0	0	506	622	
3	0	0	0	0	505	622	
4	0	0	0	0	506	621	
5	0	0	0	0	508	621	
6	0	0	0	0	508	621	
7	0	0	0	0	509	622	
8	0	0	0	0	510	622	
9	0	0	0	0	511	622	
10	0	0	0	0	512	622	
11	0	0	0	0	513	622	
12	0	0	0	0	513	622	
13	0	0	0	0	513	622	
14	0	0	0	0	513	621	
15	0	0	0	0	512	622	
0	0	0	0	0	511	622	
1	0	0	0	0	510	622	
2	0	0	0	0	508	623	
3	0	0	0	0	507	622	
4	0	0	0	0	506	622	
5	0	0	0	0	505	623	
6	0	0	0	0	505	622	
7	0	0	0	0	504	622	
8	0	0	0	0	504	623	
9	0	0	0	0	506	622	
10	0	0	0	0	507	623	
11	0	0	0	0	509	622	
12	0	0	0	0	511	622	
13	0	0	0	0	512	622	
14	0	0	0	0	514	623	
15	0	0	0	0	514	622	
0	0	0	0	0	515	622	
1	0	0	0	0	516	622	
2	0	0	0	0	515	622	
3	0	0	0	0	514	622	
4	0	0	0	0	512	621	
5	0	0	0	0	508	621	
6	0	0	0	0	504	622	
7	0	0	0	0	500	621	
8	0	0	0	0	497	622	
9	0	0	0	0	494	622	
10	0	0	0	0	491	622	
11	0	0	0	0	489	621	
12	0	0	0	0	487	622	
13	0	0	0	0	487	622	
14	0	0	0	0	488	622	
15	0	0	0	0	488	622	
0	0	0	0	0	490	622	
1	0	0	0	0	492	622	
2	0	0	0	0	494	622	
3	0	0	0	0	497	622	
4	0	0	0	0	500	623	
5	0	0	0	0	505	622	
6	0	0	0	0	512	622	
7	0	0	0	0	521	621	
8	0	0	0	0	531	621	
9	0	0	0	0	545	622	
10	0	0	0	0	559	622	
11	0	0	0	0	575	622	
12	0	0	0	0	591	622	
13	0	0	0	0	608	622	
14	0	0	0	0	624	622	
15	0	0	0	0	640	622	
0	0	0	0	0	656	623	
1	0	0	0	0	671	623	
2	0	0	0	0	686	623	
3	0	0	0	0	699	623	
4	0	0	0	0	709	623	
5	0	0	0	0	716	623	
6	0	0	0	0	717	622	
7	0	0	0	0	713	623	
8	0	0	0	0	707	623	
9	0	0	0	0	696	623	
10	0	0	0	0	685	623	
11	0	0	0	0	674	623	
12	0	0	0	0	663	623	
13	0	0	0	0	652	623	
14	0	0	0	0	642	623	
15	0	0	0	0	632	623	
0	0	0	0	0	623	623	
1	0	0	0	0	613	623	
2	0	0	0	0	601	623	
3	0	0	0	0	590	623	
4	0	0	0	0	578	624	
5	0	0	0	0	568	623	
6	0	0	0	0	557	623	
7	0	0	0	0	548	623	
8	0	0	0	0	540	623	
9	0	0	0	0	533	623	
10	0	0	0	0	527	623	
11	0	0	0	0	522	622	
12	0	0	0	0	517	622	
13	0	0	0	0	513	623	
14	0	0	0	0	509	623	
15	0	0	0	0	505	622	
0	0	0	0	0	500	623	
1	0	0	0	0	495	622	
2	0	0	0	0	491	623	
3	0	0	0	0	487	622	
4	0	0	0	0	484	623	
5	0	0	0	0	481	622	
6	0	0	0	0	479	623	
7	0	0	0	0	476	622	
8	0	0	0	0	476	623	
9	0	0	0	0	474	622	
10	0	0	0	0	474	623	
11	0	0	0	0	474	622	
12	0	0	0	0	474	622	
13	0	0	0	0	475	622	
14	0	0	0	0	475	622	
15	0	0	0	0	475	622	
0	0	0	0	0	476	622	
1	0	0	0	0	476	622	
2	0	0	0	0	475	622	
3	0	0	0	0	474	622	
4	0	0	0	0	473	622	
5	0	0	0	0	472	621	
6	0	0	0	0	470	622	
7	0	0	0	0	469	622	
8	0	0	0	0	468	622	
9	0	0	0	0	467	622	
10	0	0	0	0	467	623	
11	0	0	0	0	467	622	
12	0	0	0	0	467	622	
13	0	0	0	0	468	622	
14	0	0	0	0	470	622	
15	0	0	0	0	471	622	
0	0	0	0	0	473	622	
1	0	0	0	0	475	622	
2	0	0	0	0	477	623	
3	0	0	0	0	479	622	
4	0	0	0	0	480	622	
5	0	0	0	0	481	622	
6	0	0	0	0	482	623	
7	0	0	0	0	481	621	
8	0	0	0	0	481	622	
9	0	0	0	0	479	622	
10	0	0	0	0	478	622	
11	0	0	0	0	476	623	
12	0	0	0	0	475	622	
13	0	0	0	0	473	622	
14	0	0	0	0	473	623	
15	0	0	0	0	472	622	
0	0	0	0	0	472	622	
1	0	0	0	0	473	622	
2	0	0	0	0	475	622	
3	0	0	0	0	477	622	
4	0	0	0	0	478	622	
5	0	0	0	0	480	622	
6	0	0	0	0	481	622	
7	0	0	0	0	483	622	
8	0	0	0	0	484	622	
9	0	0	0	0	485	623	
10	0	0	0	0	484	623	
11	0	0	0	0	484	622	
12	0	0	0	0	484	623	
13	0	0	0	0	483	623	
14	0	0	0	0	482	623	
15	0	0	0	0	481	623	
0	0	0	0	0	480	623	
1	0	0	0	0	479	623	
2	0	0	0	0	478	623	
3	0	0	0	0	478	623	
4	0	0	0	0	478	623	
5	0	0	0	0	478	623	
6	0	0	0	0	478	623	
7	0	0	0	0	479	623	
8	0	0	0	0	480	623	
9	0	0	0	0	482	623	
10	0	0	0	0	483	624	
11	0	0	0	0	485	623	
12	0	0	0	0	486	623	
13	0	0	0	0	486	623	
14	0	0	0	0	486	623	
15	0	0	0	0	486	623	
0	0	0	0	0	485	622	
1	0	0	0	0	485	623	
2	0	0	0	0	484	623	
3	0	0	0	0	483	623	
4	0	0	0	0	483	623	
5	0	0	0	0	482	622	
6	0	0	0	0	482	623	
7	0	0	0	0	481	622	
8	0	0	0	0	482	622	
9	0	0	0	0	482	621	
10	0	0	0	0	483	622	
11	0	0	0	0	484	621	
12	0	0	0	0	485	621	
13	0	0	0	0	487	621	
14	0	0	0	0	489	621	
15	0	0	0	0	489	621	
0	0	0	0	0	490	621	
1	0	0	0	0	491	621	
2	0	0	0	0	490	621	
3	0	0	0	0	489	621	
4	0	0	0	0	489	621	
5	0	0	0	0	488	621	
6	0	0	0	0	487	622	
7	0	0	0	0	485	622	
8	0	0	0	0	484	622	
9	0	0	0	0	483	622	
10	0	0	0	0	483	622	
11	0	0	0	0	483	621	
12	0	0	0	0	482	622	
13	0	0	0	0	483	622	
14	0	0	0	0	484	622	
15	0	0	0	0	486	622	
0	0	0	0	0	486	622	
1	0	0	0	0	487	622	
2	0	0	0	0	489	622	
3	0	0	0	0	490	622	
4	0	0	0	0	491	622	
5	0	0	0	0	491	622	
6	0	0	0	0	490	622	
7	0	0	0	0	489	623	
8	0	0	0	0	487	623	
9	0	0	0	0	486	623	
10	0	0	0	0	484	624	
11	0	0	0	0	483	623	
12	0	0	0	0	483	623	
13	0	0	0	0	482	622	
14	0	0	0	0	482	623	
15	0	0	0	0	482	623	
0	0	0	0	0	482	623	
1	0	0	0	0	483	622	
2	0	0	0	0	484	623	
3	0	0	0	0	485	622	
4	0	0	0	0	487	622	
5	0	0	0	0	489	622	
6	0	0	0	0	491	623	
7	0	0	0	0	493	623	
8	0	0	0	0	494	622	
9	0	0	0	0	496	622	
10	0	0	0	0	497	623	
11	0	0	0	0	496	623	
12	0	0	0	0	495	623	
13	0	0	0	0	494	622	
14	0	0	0	0	493	622	
15	0	0	0	0	492	623	
0	0	0	0	0	491	622	
1	0	0	0	0	490	622	
2	0	0	0	0	490	623	
3	0	0	0	0	490	622	
4	0	0	0	0	491	622	
5	0	0	0	0	492	623	
6	0	0	0	0	494	623	
7	0	0	0	0	496	623	
8	0	0	0	0	498	623	
9	0	0	0	0	500	623	
10	0	0	0	0	502	623	
11	0	0	0	0	505	623	
12	0	0	0	0	507	623	
13	0	0	0	0	507	622	
14	0	0	0	0	507	622	
15	0	0	0	0	507	622	
0	0	0	0	0	507	622	
1	0	0	0	0	507	622	
2	0	0	0	0	505	622	
3	0	0	0	0	504	622	
4	0	0	0	0	504	622	
5	0	0	0	0	503	622	
6	0	0	0	0	502	622	
7	0	0	0	0	502	622	
8	0	0	0	0	503	622	
9	0	0	0	0	503	622	
10	0	0	0	0	504	622	
11	0	0	0	0	505	622	
12	0	0	0	0	507	621	
13	0	0	0	0	508	621	
14	0	0	0	0	509	622	
15	0	0	0	0	511	622	
0	0	0	0	0	512	622	
1	0	0	0	0	512	622	
2	0	0	0	0	513	623	
3	0	0	0	0	513	622	
4	0	0	0	0	513	622	
5	0	0	0	0	512	622	
6	0	0	0	0	512	622	
7	0	0	0	0	511	622	
8	0	0	0	0	510	622	
9	0	0	0	0	509	622	
10	0	0	0	0	509	623	
11	0	0	0	0	509	622	
12	0	0	0	0	511	622	
13	0	0	0	0	511	622	
14	0	0	0	0	512	622	
15	0	0	0	0	513	622	
0	0	0	0	0	515	622	
1	0	0	0	0	517	622	
2	0	0	0	0	518	622	
3	0	0	0	0	520	622	
4	0	0	0	0	522	622	
5	0	0	0	0	523	622	
6	0	0	0	0	523	622	
7	0	0	0	0	523	622	
8	0	0	0	0	522	622	
9	0	0	0	0	522	622	
10	0	0	0	0	520	622	
11	0	0	0	0	518	622	
12	0	0	0	0	517	622	
13	0	0	0	0	516	622	
14	0	0	0	0	517	622	
15	0	0	0	0	517	622	
0	0	0	0	0	518	622	
1	0	0	0	0	519	622	
2	0	0	0	0	519	622	
3	0	0	0	0	521	622	
4	0	0	0	0	523	621	
5	0	0	0	0	524	622	
6	0	0	0	0	526	622	
7	0	0	0	0	528	622	
8	0	0	0	0	529	622	
9	0	0	0	0	530	622	
10	0	0	0	0	531	622	
11	0	0	0	0	531	622	
12	0	0	0	0	530	622	
13	0	0	0	0	529	622	
14	0	0	0	0	527	623	
15	0	0	0	0	526	623	
0	0	0	0	0	524	622	
1	0	0	0	0	524	622	
2	0	0	0	0	523	623	
3	0	0	0	0	522	622	
4	0	0	0	0	522	622	
5	0	0	0	0	522	623	
6	0	0	0	0	523	622	
7	0	0	0	0	524	623	
8	0	0	0	0	524	622	
9	0	0	0	0	526	622	
10	0	0	0	0	527	622	
11	0	0	0	0	528	622	
12	0	0	0	0	529	622	
13	0	0	0	0	529	622	
14	0	0	0	0	528	622	
15	0	0	0	0	527	622	
0	0	0	0	0	526	622	
1	0	0	0	0	524	622	
2	0	0	0	0	521	623	
3	0	0	0	0	519	623	
4	0	0	0	0	516	623	
5	0	0	0	0	514	622	
6	0	0	0	0	513	623	
7	0	0	0	0	512	623	
8	0	0	0	0	511	623	
9	0	0	0	0	510	623	
10	0	0	0	0	509	623	
11	0	0	0	0	510	623	
12	0	0	0	0	510	623	
13	0	0	0	0	510	622	
14	0	0	0	0	511	622	
15	0	0	0	0	511	622	
0	0	0	0	0	511	623	
1	0	0	0	0	511	622	
2	0	0	0	0	510	623	
3	0	0	0	0	508	622	
4	0	0	0	0	506	622	
5	0	0	0	0	503	622	
6	0	0	0	0	501	622	
7	0	0	0	0	499	622	
8	0	0	0	0	497	622	
9	0	0	0	0	495	622	
10	0	0	0	0	493	622	
11	0	0	0	0	492	622	
12	0	0	0	0	492	622	
13	0	0	0	0	492	622	
14	0	0	0	0	491	622	
15	0	0	0	0	491	622	
0	0	0	0	0	491	622	
1	0	0	0	0	492	621	
2	0	0	0	0	493	622	
3	0	0	0	0	494	622	
4	0	0	0	0	495	622	
5	0	0	0	0	494	621	
6	0	0	0	0	494	622	
7	0	0	0	0	493	621	
8	0	0	0	0	491	622	
9	0	0	0	0	490	622	
10	0	0	0	0	488	622	
11	0	0	0	0	487	622	
12	0	0	0	0	485	622	
13	0	0	0	0	483	622	
14	0	0	0	0	483	622	
15	0	0	0	0	482	623	
0	0	0	0	0	483	622	
1	0	0	0	0	482	622	
2	0	0	0	0	483	623	
3	0	0	0	0	485	622	
4	0	0	0	0	487	622	
5	0	0	0	0	488	622	
6	0	0	0	0	489	623	
7	0	0	0	0	490	622	
8	0	0	0	0	492	622	
9	0	0	0	0	492	622	
10	0	0	0	0	492	623	
11	0	0	0	0	492	622	
12	0	0	0	0	491	623	
13	0	0	0	0	490	622	
14	0	0	0	0	489	623	
15	0	0	0	0	488	622	
0	0	0	0	0	487	623	
1	0	0	0	0	486	622	
2	0	0	0	0	486	623	
3	0	0	0	0	487	622	
4	0	0	0	0	487	623	
5	0	0	0	0	487	622	
6	0	0	0	0	488	623	
7	0	0	0	0	490	622	
8	0	0	0	0	492	622	
9	0	0	0	0	494	622	
10	0	0	0	0	495	623	
11	0	0	0	0	497	622	
12	0	0	0	0	499	622	
13	0	0	0	0	499	622	
14	0	0	0	0	500	622	
15	0	0	0	0	500	622	
0	0	0	0	0	499	621	
1	0	0	0	0	498	621	
2	0	0	0	0	497	622	
3	0	0	0	0	496	621	
4	0	0	0	0	495	621	
5	0	0	0	0	493	622	
6	0	0	0	0	492	622	
7	0	0	0	0	492	621	
8	0	0	0	0	492	621	
9	0	0	0	0	493	622	
10	0	0	0	0	493	622	
11	0	0	0	0	495	621	
12	0	0	0	0	495	621	
13	0	0	0	0	496	621	
14	0	0	0	0	498	622	
15	0	0	0	0	499	621	
0	0	0	0	0	500	621	
1	0	0	0	0	500	621	
2	0	0	0	0	500	622	
3	0	0	0	0	500	621	
4	0	0	0	0	500	622	
5	0	0	0	0	499	622	
6	0	0	0	0	498	622	
7	0	0	0	0	496	622	
8	0	0	0	0	496	622	
9	0	0	0	0	495	623	
10	0	0	0	0	494	622	
11	0	0	0	0	494	622	
12	0	0	0	0	495	622	
13	0	0	0	0	496	623	
14	0	0	0	0	496	623	
15	0	0	0	0	497	622	
0	0	0	0	0	498	623	
1	0	0	0	0	499	623	
2	0	0	0	0	500	623	
3	0	0	0	0	502	623	
4	0	0	0	0	503	622	
5	0	0	0	0	503	623	
6	0	0	0	0	503	623	
7	0	0	0	0	503	622	
8	0	0	0	0	503	622	
9	0	0	0	0	502	623	
10	0	0	0	0	500	623	
11	0	0	0	0	499	623	
12	0	0	0	0	497	623	
13	0	0	0	0	496	623	
14	0	0	0	0	495	623	
15	0	0	0	0	495	622	
0	0	0	0	0	495	622	
1	0	0	0	0	496	622	
2	0	0	0	0	496	623	
3	0	0	0	0	497	622	
4	0	0	0	0	499	622	
5	0	0	0	0	500	623	
6	0	0	0	0	502	623	
7	0	0	0	0	503	623	
8	0	0	0	0	505	623	
9	0	0	0	0	506	623	
10	0	0	0	0	506	623	
11	0	0	0	0	506	623	
12	0	0	0	0	505	622	
13	0	0	0	0	503	623	
14	0	0	0	0	502	623	
15	0	0	0	0	500	622	
0	0	0	0	0	500	622	
1	0	0	0	0	499	622	
2	0	0	0	0	498	623	
3	0	0	0	0	496	622	
4	0	0	0	0	496	622	
5	0	0	0	0	496	622	
6	0	0	0	0	496	622	
7	0	0	0	0	496	622	
8	0	0	0	0	497	621	
9	0	0	0	0	499	622	
10	0	0	0	0	501	622	
11	0	0	0	0	503	622	
12	0	0	0	0	504	622	
13	0	0	0	0	505	622	
14	0	0	0	0	505	622	
15	0	0	0	0	505	621	
0	0	0	0	0	503	622	
1	0	0	0	0	502	622	
2	0	0	0	0	501	623	
3	0	0	0	0	500	622	
4	0	0	0	0	500	622	
5	0	0	0	0	499	622	
6	0	0	0	0	499	622	
7	0	0	0	0	498	622	
8	0	0	0	0	497	622	
9	0	0	0	0	497	622	
10	0	0	0	0	498	623	
11	0	0	0	0	499	623	
12	0	0	0	0	500	623	
13	0	0	0	0	501	623	
14	0	0	0	0	503	623	
15	0	0	0	0	504	623	
0	0	0	0	0	505	623	
1	0	0	0	0	506	622	
2	0	0	0	0	505	622	
3	0	0	0	0	504	622	
4	0	0	0	0	504	622	
5	0	0	0	0	503	622	
6	0	0	0	0	502	622	
7	0	0	0	0	502	623	
8	0	0	0	0	501	622	
9	0	0	0	0	501	622	
10	0	0	0	0	501	623	
11	0	0	0	0	501	622	
12	0	0	0	0	502	622	
13	0	0	0	0	502	623	
14	0	0	0	0	503	622	
15	0	0	0	0	504	623	
0	0	0	0	0	505	622	
1	0	0	0	0	506	622	
2	0	0	0	0	507	623	
3	0	0	0	0	508	622	
4	0	0	0	0	510	622	
5	0	0	0	0	511	622	
6	0	0	0	0	511	623	
7	0	0	0	0	511	622	
8	0	0	0	0	510	622	
9	0	0	0	0	510	622	
10	0	0	0	0	508	622	
11	0	0	0	0	508	622	
12	0	0	0	0	506	622	
13	0	0	0	0	505	622	
14	0	0	0	0	505	622	
15	0	0	0	0	504	622	
0	0	0	0	0	504	622	
1	0	0	0	0	505	622	
2	0	0	0	0	505	622	
3	0	0	0	0	507	622	
4	0	0	0	0	508	622	
5	0	0	0	0	509	622	
6	0	0	0	0	511	622	
7	0	0	0	0	513	623	
8	0	0	0	0	514	622	
9	0	0	0	0	515	622	
10	0	0	0	0	516	622	
11	0	0	0	0	516	622	
12	0	0	0	0	515	621	
13	0	0	0	0	515	622	
14	0	0	0	0	514	622	
15	0	0	0	0	512	622	
0	0	0	0	0	511	621	
1	0	0	0	0	510	621	
2	0	0	0	0	510	622	
3	0	0	0	0	509	621	
4	0	0	0	0	510	622	
5	0	0	0	0	510	621	
6	0	0	0	0	511	622	
7	0	0	0	0	511	622	
8	0	0	0	0	511	622	
9	0	0	0	0	511	622	
10	0	0	0	0	512	623	
11	0	0	0	0	513	622	
12	0	0	0	0	515	622	
13	0	0	0	0	515	622	
14	0	0	0	0	515	622	
15	0	0	0	0	515	622	
0	0	0	0	0	513	622	
1	0	0	0	0	512	622	
2	0	0	0	0	511	622	
3	0	0	0	0	509	622	
4	0	0	0	0	507	622	
5	0	0	0	0	505	621	
6	0	0	0	0	506	622	
7	0	0	0	0	505	623	
8	0	0	0	0	505	622	
9	0	0	0	0	506	622	
10	0	0	0	0	508	623	
11	0	0	0	0	509	623	
12	0	0	0	0	510	622	
13	0	0	0	0	512	623	
14	0	0	0	0	513	623	
15	0	0	0	0	513	622	
0	0	0	0	0	514	623	
1	0	0	0	0	515	623	
2	0	0	0	0	515	623	
3	0	0	0	0	514	623	
4	0	0	0	0	513	623	
5	0	0	0	0	512	623	
6	0	0	0	0	511	624	
7	0	0	0	0	510	624	
8	0	0	0	0	509	623	
9	0	0	0	0	508	623	
10	0	0	0	0	507	624	
11	0	0	0	0	507	623	
12	0	0	0	0	506	623	
13	0	0	0	0	506	623	
14	0	0	0	0	506	623	
15	0	0	0	0	507	623	
0	0	0	0	0	509	622	
1	0	0	0	0	510	622	
2	0	0	0	0	512	623	
3	0	0	0	0	512	622	
4	0	0	0	0	514	622	
5	0	0	0	0	514	622	
6	0	0	0	0	515	623	
7	0	0	0	0	514	623	
8	0	0	0	0	513	622	
9	0	0	0	0	513	622	
10	0	0	0	0	512	623	
11	0	0	0	0	510	623	
12	0	0	0	0	508	623	
13	0	0	0	0	508	623	
14	0	0	0	0	508	623	
15	0	0	0	0	507	622	
0	0	0	0	0	508	621	
1	0	0	0	0	508	622	
2	0	0	0	0	509	622	
3	0	0	0	0	510	622	
4	0	0	0	0	511	621	
5	0	0	0	0	512	621	
6	0	0	0	0	514	621	
7	0	0	0	0	515	621	
8	0	0	0	0	516	620	
9	0	0	0	0	517	621	
10	0	0	0	0	518	621	
11	0	0	0	0	518	620	
12	0	0	0	0	517	621	
13	0	0	0	0	516	621	
14	0	0	0	0	515	621	
15	0	0	0	0	513	621	
0	0	0	0	0	512	621	
1	0	0	0	0	511	621	
2	0	0	0	0	511	621	
3	0	0	0	0	510	621	
4	0	0	0	0	509	621	
5	0	0	0	0	509	621	
6	0	0	0	0	510	622	
7	0	0	0	0	511	622	
8	0	0	0	0	511	622	
9	0	0	0	0	511	622	
10	0	0	0	0	512	622	
11	0	0	0	0	514	622	
12	0	0	0	0	515	623	
13	0	0	0	0	515	622	
14	0	0	0	0	515	622	
15	0	0	0	0	515	621	
0	0	0	0	0	514	622	
1	0	0	0	0	514	622	
2	0	0	0	0	512	623	
3	0	0	0	0	511	623	
4	0	0	0	0	511	622	
5	0	0	0	0	510	622	
6	0	0	0	0	508	622	
7	0	0	0	0	508	622	
8	0	0	0	0	506	622	
9	0	0	0	0	505	621	
10	0	0	0	0	505	622	
11	0	0	0	0	506	621	
12	0	0	0	0	507	622	
13	0	0	0	0	508	622	
14	0	0	0	0	509	622	
15	0	0	0	0	511	623	
0	0	0	0	0	513	622	
1	0	0	0	0	513	622	
2	0	0	0	0	513	623	
3	0	0	0	0	513	622	
4	0	0	0	0	513	623	
5	0	0	0	0	513	623	
6	0	0	0	0	511	622	
7	0	0	0	0	511	623	
8	0	0	0	0	509	623	
9	0	0	0	0	508	622	
10	0	0	0	0	507	623	
11	0	0	0	0	505	623	
12	0	0	0	0	506	623	
13	0	0	0	0	506	623	
14	0	0	0	0	507	623	
15	0	0	0	0	507	623	
0	0	0	0	0	508	623	
1	0	0	0	0	509	622	
2	0	0	0	0	510	623	
3	0	0	0	0	511	622	
4	0	0	0	0	512	622	
5	0	0	0	0	513	622	
6	0	0	0	0	513	622	
7	0	0	0	0	513	622	
8	0	0	0	0	513	622	
9	0	0	0	0	512	622	
10	0	0	0	0	510	622	
11	0	0	0	0	508	622	
12	0	0	0	0	507	622	
13	0	0	0	0	506	622	
14	0	0	0	0	506	622	
15	0	0	0	0	505	622	
0	0	0	0	0	505	622	
1	0	0	0	0	505	622	
2	0	0	0	0	505	622	
3	0	0	0	0	507	622	
4	0	0	0	0	508	621	
5	0	0	0	0	508	621	
6	0	0	0	0	510	621	
7	0	0	0	0	511	621	
8	0	0	0	0	512	620	
9	0	0	0	0	512	620	
10	0	0	0	0	512	622	
11	0	0	0	0	511	621	
12	0	0	0	0	510	621	
13	0	0	0	0	509	622	
14	0	0	0	0	508	623	
15	0	0	0	0	507	623	
0	0	0	0	0	505	622	
1	0	0	0	0	504	622	
2	0	0	0	0	503	623	
3	0	0	0	0	502	623	
4	0	0	0	0	501	623	
5	0	0	0	0	502	623	
6	0	0	0	0	502	623	
7	0	0	0	0	504	622	
8	0	0	0	0	505	622	
9	0	0	0	0	506	622	
10	0	0	0	0	507	623	
11	0	0	0	0	509	623	
12	0	0	0	0	509	623	
13	0	0	0	0	509	623	
14	0	0	0	0	509	623	
15	0	0	0	0	508	623	
0	0	0	0	0	508	622	
1	0	0	0	0	506	622	
2	0	0	0	0	505	623	
3	0	0	0	0	503	622	
4	0	0	0	0	502	622	
5	0	0	0	0	500	622	
6	0	0	0	0	500	621	
7	0	0	0	0	500	622	
8	0	0	0	0	499	622	
9	0	0	0	0	499	622	
10	0	0	0	0	499	622	
11	0	0	0	0	501	622	
12	0	0	0	0	502	621	
13	0	0	0	0	502	621	
14	0	0	0	0	503	621	
15	0	0	0	0	504	621	
0	0	0	0	0	505	622	
1	0	0	0	0	505	622	
2	0	0	0	0	505	622	
3	0	0	0	0	504	621	
4	0	0	0	0	504	621	
5	0	0	0	0	502	621	
6	0	0	0	0	502	621	
7	0	0	0	0	501	622	
8	0	0	0	0	499	622	
9	0	0	0	0	497	622	
10	0	0	0	0	496	622	
11	0	0	0	0	496	621	
12	0	0	0	0	496	621	
13	0	0	0	0	496	622	
14	0	0	0	0	497	622	
15	0	0	0	0	497	622	
0	0	0	0	0	498	621	
1	0	0	0	0	499	621	
2	0	0	0	0	501	622	
3	0	0	0	0	502	621	
4	0	0	0	0	504	622	
5	0	0	0	0	504	622	
6	0	0	0	0	504	622	
7	0	0	0	0	503	623	
8	0	0	0	0	502	623	
9	0	0	0	0	501	623	
10	0	0	0	0	499	623	
11	0	0	0	0	498	623	
12	0	0	0	0	497	624	
13	0	0	0	0	495	623	
14	0	0	0	0	494	623	
15	0	0	0	0	494	623	
0	0	0	0	0	493	623	
1	0	0	0	0	493	623	
2	0	0	0	0	493	623	
3	0	0	0	0	495	623	
4	0	0	0	0	496	623	
5	0	0	0	0	496	623	
6	0	0	0	0	498	623	
7	0	0	0	0	499	623	
8	0	0	0	0	499	623	
9	0	0	0	0	500	623	
10	0	0	0	0	500	623	
11	0	0	0	0	500	622	
12	0	0	0	0	499	623	
13	0	0	0	0	499	622	
14	0	0	0	0	497	623	
15	0	0	0	0	495	623	
0	0	0	0	0	494	623	
1	0	0	0	0	493	622	
2	0	0	0	0	493	623	
3	0	0	0	0	493	623	
4	0	0	0	0	494	623	
5	0	0	0	0	495	623	
6	0	0	0	0	496	623	
7	0	0	0	0	497	624	
8	0	0	0	0	498	623	
9	0	0	0	0	498	623	
10	0	0	0	0	499	623	
11	0	0	0	0	501	623	
12	0	0	0	0	502	622	
13	0	0	0	0	503	623	
14	0	0	0	0	505	623	
15	0	0	0	0	505	623	
0	0	0	0	0	505	623	
1	0	0	0	0	507	622	
2	0	0	0	0	506	622	
3	0	0	0	0	505	622	
4	0	0	0	0	504	622	
5	0	0	0	0	503	622	
6	0	0	0	0	502	622	
7	0	0	0	0	502	621	
8	0	0	0	0	502	621	
9	0	0	0	0	502	621	
10	0	0	0	0	503	622	
11	0	0	0	0	504	621	
12	0	0	0	0	505	621	
13	0	0	0	0	506	621	
14	0	0	0	0	508	620	
15	0	0	0	0	510	621	
0	0	0	0	0	510	620	
1	0	0	0	0	511	620	
2	0	0	0	0	512	621	
3	0	0	0	0	512	621	
4	0	0	0	0	512	621	
5	0	0	0	0	511	621	
6	0	0	0	0	509	621	
7	0	0	0	0	507	621	
8	0	0	0	0	505	621	
9	0	0	0	0	504	621	
10	0	0	0	0	504	621	
11	0	0	0	0	504	621	
12	0	0	0	0	504	621	
13	0	0	0	0	503	621	
14	0	0	0	0	503	620	
15	0	0	0	0	504	621	
0	0	0	0	0	504	621	
1	0	0	0	0	504	621	
2	0	0	0	0	505	622	
3	0	0	0	0	507	621	
4	0	0	0	0	508	622	
5	0	0	0	0	509	622	
6	0	0	0	0	509	622	
7	0	0	0	0	508	622	
8	0	0	0	0	508	622	
9	0	0	0	0	507	622	
10	0	0	0	0	505	622	
11	0	0	0	0	504	622	
12	0	0	0	0	503	622	
13	0	0	0	0	502	622	
14	0	0	0	0	503	623	
15	0	0	0	0	503	622	
0	0	0	0	0	503	622	
1	0	0	0	0	503	622	
2	0	0	0	0	504	623	
3	0	0	0	0	505	622	
4	0	0	0	0	506	623	
5	0	0	0	0	507	623	
6	0	0	0	0	509	623	
7	0	0	0	0	510	622	
8	0	0	0	0	512	623	
9	0	0	0	0	513	623	
10	0	0	0	0	514	623	
11	0	0	0	0	514	623	
12	0	0	0	0	514	623	
13	0	0	0	0	513	623	
14	0	0	0	0	511	623	
15	0	0	0	0	510	623	
0	0	0	0	0	508	622	
1	0	0	0	0	507	622	
2	0	0	0	0	506	623	
3	0	0	0	0	505	622	
4	0	0	0	0	504	622	
5	0	0	0	0	505	622	
6	0	0	0	0	505	622	
7	0	0	0	0	506	622	
8	0	0	0	0	506	622	
9	0	0	0	0	507	622	
10	0	0	0	0	508	622	
11	0	0	0	0	510	622	
12	0	0	0	0	512	622	
13	0	0	0	0	513	622	
14	0	0	0	0	514	622	
15	0	0	0	0	513	622	
0	0	0	0	0	512	622	
1	0	0	0	0	511	623	
2	0	0	0	0	511	623	
3	0	0	0	0	509	623	
4	0	0	0	0	507	622	
5	0	0	0	0	505	622	
6	0	0	0	0	504	623	
7	0	0	0	0	504	622	
8	0	0	0	0	504	622	
9	0	0	0	0	504	623	
10	0	0	0	0	504	623	
11	0	0	0	0	505	622	
12	0	0	0	0	506	622	
13	0	0	0	0	507	622	
14	0	0	0	0	508	621	
15	0	0	0	0	510	622	
0	0	0	0	0	510	622	
1	0	0	0	0	511	622	
2	0	0	0	0	512	622	
3	0	0	0	0	511	622	
4	0	0	0	0	509	622	
5	0	0	0	0	508	622	
6	0	0	0	0	507	622	
7	0	0	0	0	506	622	
8	0	0	0	0	504	622	
9	0	0	0	0	502	622	
10	0	0	0	0	501	622	
11	0	0	0	0	501	621	
12	0	0	0	0	501	621	
13	0	0	0	0	499	621	
14	0	0	0	0	498	621	
15	0	0	0	0	497	622	
0	0	0	0	0	495	622	
1	0	0	0	0	493	622	
2	0	0	0	0	492	622	
3	0	0	0	0	491	621	
4	0	0	0	0	490	622	
5	0	0	0	0	488	622	
6	0	0	0	0	487	622	
7	0	0	0	0	487	622	
8	0	0	0	0	486	622	
9	0	0	0	0	484	622	
10	0	0	0	0	484	622	
11	0	0	0	0	483	621	
12	0	0	0	0	483	622	
13	0	0	0	0	484	622	
14	0	0	0	0	487	623	
15	0	0	0	0	491	622	
0	0	0	0	0	498	622	
1	0	0	0	0	508	622	
2	0	0	0	0	519	623	
3	0	0	0	0	535	622	
4	0	0	0	0	551	623	
5	0	0	0	0	568	622	
6	0	0	0	0	588	622	
7	0	0	0	0	607	622	
8	0	0	0	0	625	623	
9	0	0	0	0	642	623	
10	0	0	0	0	659	623	
11	0	0	0	0	674	623	
12	0	0	0	0	687	623	
13	0	0	0	0	699	623	
14	0	0	0	0	706	623	
15	0	0	0	0	709	622	
0	0	0	0	0	708	623	
1	0	0	0	0	703	622	
2	0	0	0	0	694	622	
3	0	0	0	0	682	622	
4	0	0	0	0	671	622	
5	0	0	0	0	661	622	
6	0	0	0	0	652	622	
7	0	0	0	0	645	622	
8	0	0	0	0	638	622	
9	0	0	0	0	631	621	
10	0	0	0	0	624	622	
11	0	0	0	0	615	622	
12	0	0	0	0	606	622	
13	0	0	0	0	594	622	
14	0	0	0	0	582	622	
15	0	0	0	0	570	622	
0	0	0	0	0	557	621	
1	0	0	0	0	545	622	
2	0	0	0	0	534	623	
3	0	0	0	0	524	622	
4	0	0	0	0	515	622	
5	0	0	0	0	507	623	
6	0	0	0	0	501	623	
7	0	0	0	0	495	622	
8	0	0	0	0	490	622	
9	0	0	0	0	485	623	
10	0	0	0	0	481	623	
11	0	0	0	0	479	623	
12	0	0	0	0	477	623	
13	0	0	0	0	475	623	
14	0	0	0	0	474	623	
15	0	0	0	0	474	622	
0	0	0	0	0	474	623	
1	0	0	0	0	474	623	
2	0	0	0	0	474	624	
3	0	0	0	0	473	624	
4	0	0	0	0	472	623	
5	0	0	0	0	471	623	
6	0	0	0	0	469	623	
7	0	0	0	0	467	623	
8	0	0	0	0	466	623	
9	0	0	0	0	464	623	
10	0	0	0	0	463	624	
11	0	0	0	0	461	623	
12	0	0	0	0	461	622	
13	0	0	0	0	461	622	
14	0	0	0	0	461	623	
15	0	0	0	0	462	623	
0	0	0	0	0	463	622	
1	0	0	0	0	463	622	
2	0	0	0	0	465	622	
3	0	0	0	0	467	622	
4	0	0	0	0	469	622	
5	0	0	0	0	470	622	
6	0	0	0	0	471	622	
7	0	0	0	0	472	623	
8	0	0	0	0	471	623	
9	0	0	0	0	471	622	
10	0	0	0	0	469	623	
11	0	0	0	0	467	623	
12	0	0	0	0	466	623	
13	0	0	0	0	465	622	
14	0	0	0	0	464	622	
15	0	0	0	0	464	622	
0	0	0	0	0	463	623	
1	0	0	0	0	463	622	
2	0	0	0	0	464	623	
3	0	0	0	0	465	623	
4	0	0	0	0	467	622	
5	0	0	0	0	469	623	
6	0	0	0	0	471	623	
7	0	0	0	0	472	623	
8	0	0	0	0	472	623	
9	0	0	0	0	472	623	
10	0	0	0	0	472	624	
11	0	0	0	0	473	623	
12	0	0	0	0	473	622	
13	0	0	0	0	473	622	
14	0	0	0	0	473	623	
15	0	0	0	0	471	623	
0	0	0	0	0	470	623	
1	0	0	0	0	470	623	
2	0	0	0	0	470	623	
3	0	0	0	0	469	622	
4	0	0	0	0	469	622	
5	0	0	0	0	469	623	
6	0	0	0	0	469	622	
7	0	0	0	0	471	622	
8	0	0	0	0	472	622	
9	0	0	0	0	473	622	
10	0	0	0	0	475	623	
11	0	0	0	0	476	623	
12	0	0	0	0	478	622	
13	0	0	0	0	479	622	
14	0	0	0	0	480	622	
15	0	0	0	0	481	622	
0	0	0	0	0	481	622	
1	0	0	0	0	481	621	
2	0	0	0	0	480	623	
3	0	0	0	0	480	623	
4	0	0	0	0	479	622	
5	0	0	0	0	478	622	
6	0	0	0	0	478	622	
7	0	0	0	0	477	622	
8	0	0	0	0	475	622	
9	0	0	0	0	475	621	
10	0	0	0	0	475	622	
11	0	0	0	0	476	621	
12	0	0	0	0	477	621	
13	0	0	0	0	479	622	
14	0	0	0	0	480	621	
15	0	0	0	0	482	621	
0	0	0	0	0	484	622	
1	0	0	0	0	485	621	
2	0	0	0	0	486	622	
3	0	0	0	0	485	621	
4	0	0	0	0	485	621	
5	0	0	0	0	484	622	
6	0	0	0	0	483	622	
7	0	0	0	0	483	621	
8	0	0	0	0	482	621	
9	0	0	0	0	481	621	
10	0	0	0	0	481	622	
11	0	0	0	0	481	622	
12	0	0	0	0	480	622	
13	0	0	0	0	481	622	
14	0	0	0	0	481	622	
15	0	0	0	0	482	622	
0	0	0	0	0	484	622	
1	0	0	0	0	485	621	
2	0	0	0	0	487	623	
3	0	0	0	0	488	622	
4	0	0	0	0	490	622	
5	0	0	0	0	491	622	
6	0	0	0	0	492	623	
7	0	0	0	0	491	622	
8	0	0	0	0	490	622	
9	0	0	0	0	490	622	
10	0	0	0	0	489	623	
11	0	0	0	0	487	622	
12	0	0	0	0	486	622	
13	0	0	0	0	485	622	
14	0	0	0	0	484	623	
15	0	0	0	0	483	622	
0	0	0	0	0	482	622	
1	0	0	0	0	482	622	
2	0	0	0	0	483	623	
3	0	0	0	0	483	623	
4	0	0	0	0	483	623	
5	0	0	0	0	485	622	
6	0	0	0	0	487	622	
7	0	0	0	0	488	622	
8	0	0	0	0	491	623	
9	0	0	0	0	492	622	
10	0	0	0	0	493	622	
11	0	0	0	0	493	622	
12	0	0	0	0	493	622	
13	0	0	0	0	493	622	
14	0	0	0	0	492	622	
15	0	0	0	0	492	622	
0	0	0	0	0	491	622	
1	0	0	0	0	490	622	
2	0	0	0	0	489	623	
3	0	0	0	0	489	622	
4	0	0	0	0	489	622	
5	0	0	0	0	489	622	
6	0	0	0	0	489	622	
7	0	0	0	0	489	622	
8	0	0	0	0	490	621	
9	0	0	0	0	490	621	
10	0	0	0	0	492	622	
11	0	0	0	0	493	621	
12	0	0	0	0	495	622	
13	0	0	0	0	496	622	
14	0	0	0	0	496	622	
15	0	0	0	0	496	622	
0	0	0	0	0	495	621	
1	0	0	0	0	494	622	
2	0	0	0	0	494	623	
3	0	0	0	0	493	622	
4	0	0	0	0	492	622	
5	0	0	0	0	491	622	
6	0	0	0	0	491	622	
7	0	0	0	0	490	622	
8	0	0	0	0	490	622	
9	0	0	0	0	490	622	
10	0	0	0	0	490	622	
11	0	0	0	0	492	622	
12	0	0	0	0	493	622	
13	0	0	0	0	495	621	
14	0	0	0	0	497	622	
15	0	0	0	0	499	622	
0	0	0	0	0	501	622	
1	0	0	0	0	503	622	
2	0	0	0	0	504	622	
3	0	0	0	0	504	621	
4	0	0	0	0	504	621	
5	0	0	0	0	504	622	
6	0	0	0	0	502	622	
7	0	0	0	0	501	622	
8	0	0	0	0	499	622	
9	0	0	0	0	498	622	
10	0	0	0	0	498	622	
11	0	0	0	0	498	622	
12	0	0	0	0	498	622	
13	0	0	0	0	499	621	
14	0	0	0	0	499	621	
15	0	0	0	0	502	621	
0	0	0	0	0	504	622	
1	0	0	0	0	506	622	
2	0	0	0	0	508	622	
3	0	0	0	0	509	622	
4	0	0	0	0	512	622	
5	0	0	0	0	512	622	
6	0	0	0	0	513	622	
7	0	0	0	0	513	622	
8	0	0	0	0	513	622	
9	0	0	0	0	512	622	
10	0	0	0	0	511	623	
11	0	0	0	0	509	622	
12	0	0	0	0	508	622	
13	0	0	0	0	506	622	
14	0	0	0	0	505	623	
15	0	0	0	0	504	622	
0	0	0	0	0	504	622	
1	0	0	0	0	505	623	
2	0	0	0	0	506	623	
3	0	0	0	0	508	622	
4	0	0	0	0	511	623	
5	0	0	0	0	512	623	
6	0	0	0	0	514	623	
7	0	0	0	0	516	623	
8	0	0	0	0	517	622	
9	0	0	0	0	519	623	
10	0	0	0	0	519	623	
11	0	0	0	0	519	623	
12	0	0	0	0	520	622	
13	0	0	0	0	520	623	
14	0	0	0	0	520	623	
15	0	0	0	0	520	623	
0	0	0	0	0	520	622	
1	0	0	0	0	519	622	
2	0	0	0	0	518	623	
3	0	0	0	0	517	622	
4	0	0	0	0	516	622	
5	0	0	0	0	516	622	
6	0	0	0	0	517	622	
7	0	0	0	0	518	622	
8	0	0	0	0	519	622	
9	0	0	0	0	520	622	
10	0	0	0	0	521	623	
11	0	0	0	0	523	622	
12	0	0	0	0	524	622	
13	0	0	0	0	525	622	
14	0	0	0	0	526	622	
15	0	0	0	0	526	622	
0	0	0	0	0	526	622	
1	0	0	0	0	525	623	
2	0	0	0	0	524	623	
3	0	0	0	0	521	622	
4	0	0	0	0	520	622	
5	0	0	0	0	517	622	
6	0	0	0	0	516	623	
7	0	0	0	0	515	622	
8	0	0	0	0	514	623	
9	0	0	0	0	514	623	
10	0	0	0	0	513	623	
11	0	0	0	0	513	623	
12	0	0	0	0	512	623	
13	0	0	0	0	512	623	
14	0	0	0	0	512	623	
15	0	0	0	0	513	623	
0	0	0	0	0	515	623	
1	0	0	0	0	514	623	
2	0	0	0	0	513	623	
3	0	0	0	0	513	622	
4	0	0	0	0	511	622	
5	0	0	0	0	509	622	
6	0	0	0	0	508	623	
7	0	0	0	0	505	622	
8	0	0	0	0	503	622	
9	0	0	0	0	500	622	
10	0	0	0	0	497	623	
11	0	0	0	0	496	622	
12	0	0	0	0	495	622	
13	0	0	0	0	494	622	
14	0	0	0	0	494	622	
15	0	0	0	0	493	622	
0	0	0	0	0	493	622	
1	0	0	0	0	493	621	
2	0	0	0	0	493	622	
3	0	0	0	0	494	622	
4	0	0	0	0	494	622	
5	0	0	0	0	494	622	
6	0	0	0	0	493	622	
7	0	0	0	0	492	622	
8	0	0	0	0	490	621	
9	0	0	0	0	489	622	
10	0	0	0	0	487	622	
11	0	0	0	0	486	622	
12	0	0	0	0	484	621	
13	0	0	0	0	483	621	
14	0	0	0	0	482	622	
15	0	0	0	0	480	622	
0	0	0	0	0	478	621	
1	0	0	0	0	478	621	
2	0	0	0	0	477	622	
3	0	0	0	0	478	621	
4	0	0	0	0	478	621	
5	0	0	0	0	479	622	
6	0	0	0	0	480	622	
7	0	0	0	0	481	622	
8	0	0	0	0	483	622	
9	0	0	0	0	483	622	
10	0	0	0	0	484	623	
11	0	0	0	0	483	621	
12	0	0	0	0	482	622	
13	0	0	0	0	481	622	
14	0	0	0	0	480	622	
15	0	0	0	0	477	622	
0	0	0	0	0	477	622	
1	0	0	0	0	476	623	
2	0	0	0	0	476	623	
3	0	0	0	0	476	623	
4	0	0	0	0	476	623	
5	0	0	0	0	476	622	
6	0	0	0	0	476	623	
7	0	0	0	0	478	623	
8	0	0	0	0	479	623	
9	0	0	0	0	480	622	
10	0	0	0	0	482	623	
11	0	0	0	0	484	622	
12	0	0	0	0	486	623	
13	0	0	0	0	487	622	
14	0	0	0	0	487	622	
15	0	0	0	0	488	622	
0	0	0	0	0	488	622	
1	0	0	0	0	487	622	
2	0	0	0	0	487	622	
3	0	0	0	0	487	622	
4	0	0	0	0	484	622	
5	0	0	0	0	483	622	
6	0	0	0	0	483	622	
7	0	0	0	0	483	621	
8	0	0	0	0	483	622	
9	0	0	0	0	483	622	
10	0	0	0	0	484	622	
11	0	0	0	0	485	621	
12	0	0	0	0	486	622	
13	0	0	0	0	487	621	
14	0	0	0	0	489	622	
15	0	0	0	0	490	621	
0	0	0	0	0	492	621	
1	0	0	0	0	494	622	
2	0	0	0	0	494	622	
3	0	0	0	0	495	622	
4	0	0	0	0	494	622	
5	0	0	0	0	493	622	
6	0	0	0	0	492	622	
7	0	0	0	0	491	622	
8	0	0	0	0	491	622	
9	0	0	0	0	489	623	
10	0	0	0	0	488	623	
11	0	0	0	0	488	622	
12	0	0	0	0	488	623	
13	0	0	0	0	488	623	
14	0	0	0	0	488	624	
15	0	0	0	0	489	624	
0	0	0	0	0	491	624	
1	0	0	0	0	492	623	
2	0	0	0	0	494	624	
3	0	0	0	0	496	623	
4	0	0	0	0	499	624	
5	0	0	0	0	499	624	
6	0	0	0	0	500	624	
7	0	0	0	0	500	624	
8	0	0	0	0	500	624	
9	0	0	0	0	500	624	
10	0	0	0	0	500	624	
11	0	0	0	0	499	624	
12	0	0	0	0	497	623	
13	0	0	0	0	496	623	
14	0	0	0	0	495	624	
15	0	0	0	0	495	623	
0	0	0	0	0	495	623	
1	0	0	0	0	495	623	
2	0	0	0	0	496	623	
3	0	0	0	0	496	623	
4	0	0	0	0	497	622	
5	0	0	0	0	499	622	
6	0	0	0	0	501	623	
7	0	0	0	0	502	622	
8	0	0	0	0	504	622	
9	0	0	0	0	505	621	
10	0	0	0	0	506	622	
11	0	0	0	0	507	622	
12	0	0	0	0	506	621	
13	0	0	0	0	505	621	
14	0	0	0	0	504	622	
15	0	0	0	0	503	622	
0	0	0	0	0	502	622	
1	0	0	0	0	499	622	
2	0	0	0	0	497	622	
3	0	0	0	0	496	621	
4	0	0	0	0	496	621	
5	0	0	0	0	496	622	
6	0	0	0	0	496	621	
7	0	0	0	0	497	621	
8	0	0	0	0	499	622	
9	0	0	0	0	500	622	
10	0	0	0	0	501	622	
11	0	0	0	0	502	621	
12	0	0	0	0	504	621	
13	0	0	0	0	504	621	
14	0	0	0	0	504	622	
15	0	0	0	0	505	622	
0	0	0	0	0	506	622	
1	0	0	0	0	506	622	
2	0	0	0	0	505	622	
3	0	0	0	0	504	621	
4	0	0	0	0	502	621	
5	0	0	0	0	500	622	
6	0	0	0	0	499	623	
7	0	0	0	0	499	622	
8	0	0	0	0	498	622	
9	0	0	0	0	497	622	
10	0	0	0	0	498	622	
11	0	0	0	0	498	622	
12	0	0	0	0	499	622	
13	0	0	0	0	499	622	
14	0	0	0	0	500	622	
15	0	0	0	0	502	622	
0	0	0	0	0	504	622	
1	0	0	0	0	504	622	
2	0	0	0	0	505	622	
3	0	0	0	0	505	622	
4	0	0	0	0	505	622	
5	0	0	0	0	505	622	
6	0	0	0	0	504	622	
7	0	0	0	0	503	623	
8	0	0	0	0	502	622	
9	0	0	0	0	502	622	
10	0	0	0	0	502	623	
11	0	0	0	0	501	623	
12	0	0	0	0	501	622	
13	0	0	0	0	501	622	
14	0	0	0	0	501	622	
15	0	0	0	0	502	622	
0	0	0	0	0	503	621	
1	0	0	0	0	505	622	
2	0	0	0	0	506	622	
3	0	0	0	0	508	622	
4	0	0	0	0	508	622	
5	0	0	0	0	508	622	
6	0	0	0	0	509	623	
7	0	0	0	0	509	621	
8	0	0	0	0	509	622	
9	0	0	0	0	508	621	
10	0	0	0	0	507	622	
11	0	0	0	0	506	622	
12	0	0	0	0	505	622	
13	0	0	0	0	503	622	
14	0	0	0	0	503	622	
15	0	0	0	0	502	621	
0	0	0	0	0	501	622	
1	0	0	0	0	501	621	
2	0	0	0	0	502	622	
3	0	0	0	0	503	622	
4	0	0	0	0	504	621	
5	0	0	0	0	504	621	
6	0	0	0	0	505	620	
7	0	0	0	0	505	621	
8	0	0	0	0	507	622	
9	0	0	0	0	508	622	
10	0	0	0	0	508	622	
11	0	0	0	0	509	622	
12	0	0	0	0	508	622	
13	0	0	0	0	508	622	
14	0	0	0	0	507	623	
15	0	0	0	0	506	622	
0	0	0	0	0	505	623	
1	0	0	0	0	504	622	
2	0	0	0	0	503	623	
3	0	0	0	0	502	622	
4	0	0	0	0	502	622	
5	0	0	0	0	502	622	
6	0	0	0	0	502	623	
7	0	0	0	0	503	622	
8	0	0	0	0	503	622	
9	0	0	0	0	504	623	
10	0	0	0	0	506	623	
11	0	0	0	0	508	623	
12	0	0	0	0	510	623	
13	0	0	0	0	510	623	
14	0	0	0	0	511	623	
15	0	0	0	0	511	623	
0	0	0	0	0	510	623	
1	0	0	0	0	510	623	
2	0	0	0	0	509	624	
3	0	0	0	0	507	623	
4	0	0	0	0	504	624	
5	0	0	0	0	503	623	
6	0	0	0	0	502	623	
7	0	0	0	0	500	624	
8	0	0	0	0	500	623	
9	0	0	0	0	501	623	
10	0	0	0	0	502	623	
11	0	0	0	0	503	623	
12	0	0	0	0	504	623	
13	0	0	0	0	505	623	
14	0	0	0	0	507	623	
15	0	0	0	0	508	623	
0	0	0	0	0	510	622	
1	0	0	0	0	511	622	
2	0	0	0	0	512	622	
3	0	0	0	0	512	620	
4	0	0	0	0	511	620	
5	0	0	0	0	510	620	
6	0	0	0	0	509	619	
7	0	0	0	0	508	619	
8	0	0	0	0	506	619	
9	0	0	0	0	504	620	
10	0	0	0	0	503	621	
11	0	0	0	0	501	621	
12	0	0	0	0	501	622	
13	0	0	0	0	502	622	
14	0	0	0	0	502	623	
15	0	0	0	0	503	623	
0	0	0	0	0	504	623	
1	0	0	0	0	505	623	
2	0	0	0	0	508	624	
3	0	0	0	0	510	622	
4	0	0	0	0	511	622	
5	0	0	0	0	512	622	
6	0	0	0	0	513	622	
7	0	0	0	0	514	622	
8	0	0	0	0	514	621	
9	0	0	0	0	514	621	
10	0	0	0	0	512	622	
11	0	0	0	0	512	621	
12	0	0	0	0	511	621	
13	0	0	0	0	510	622	
14	0	0	0	0	508	622	
15	0	0	0	0	508	622	
0	0	0	0	0	507	622	
1	0	0	0	0	508	622	
2	0	0	0	0	508	622	
3	0	0	0	0	509	622	
4	0	0	0	0	510	622	
5	0	0	0	0	512	622	
6	0	0	0	0	513	622	
7	0	0	0	0	516	622	
8	0	0	0	0	518	622	
9	0	0	0	0	519	622	
10	0	0	0	0	519	623	
11	0	0	0	0	520	622	
12	0	0	0	0	519	622	
13	0	0	0	0	519	622	
14	0	0	0	0	519	623	
15	0	0	0	0	518	622	
0	0	0	0	0	516	622	
1	0	0	0	0	514	622	
2	0	0	0	0	513	622	
3	0	0	0	0	512	621	
4	0	0	0	0	511	622	
5	0	0	0	0	511	622	
6	0	0	0	0	510	622	
7	0	0	0	0	511	622	
8	0	0	0	0	511	622	
9	0	0	0	0	513	622	
10	0	0	0	0	515	623	
11	0	0	0	0	517	623	
12	0	0	0	0	518	623	
13	0	0	0	0	519	623	
14	0	0	0	0	519	623	
15	0	0	0	0	519	622	
0	0	0	0	0	519	622	
1	0	0	0	0	519	622	
2	0	0	0	0	518	623	
3	0	0	0	0	516	622	
4	0	0	0	0	515	622	
5	0	0	0	0	515	622	
6	0	0	0	0	514	622	
7	0	0	0	0	512	623	
8	0	0	0	0	511	623	
9	0	0	0	0	510	623	
10	0	0	0	0	509	624	
11	0	0	0	0	510	623	
12	0	0	0	0	511	623	
13	0	0	0	0	512	623	
14	0	0	0	0	512	623	
15	0	0	0	0	513	623	
0	0	0	0	0	516	624	
1	0	0	0	0	517	623	
2	0	0	0	0	519	623	
3	0	0	0	0	519	623	
4	0	0	0	0	519	623	
5	0	0	0	0	518	623	
6	0	0	0	0	517	623	
7	0	0	0	0	515	623	
8	0	0	0	0	515	623	
9	0	0	0	0	513	623	
10	0	0	0	0	512	623	
11	0	0	0	0	511	623	
12	0	0	0	0	511	622	
13	0	0	0	0	511	623	
14	0	0	0	0	511	623	
15	0	0	0	0	511	623	
0	0	0	0	0	512	623	
1	0	0	0	0	513	622	
2	0	0	0	0	514	622	
3	0	0	0	0	514	622	
4	0	0	0	0	514	622	
5	0	0	0	0	514	622	
6	0	0	0	0	515	622	
7	0	0	0	0	515	621	
8	0	0	0	0	516	621	
9	0	0	0	0	515	622	
10	0	0	0	0	514	621	
11	0	0	0	0	513	622	
12	0	0	0	0	512	621	
13	0	0	0	0	510	621	
14	0	0	0	0	509	622	
15	0	0	0	0	507	622	
0	0	0	0	0	505	621	
1	0	0	0	0	505	621	
2	0	0	0	0	505	622	
3	0	0	0	0	505	621	
4	0	0	0	0	506	621	
5	0	0	0	0	507	621	
6	0	0	0	0	508	621	
7	0	0	0	0	510	622	
8	0	0	0	0	512	621	
9	0	0	0	0	514	621	
10	0	0	0	0	515	622	
11	0	0	0	0	515	622	
12	0	0	0	0	516	622	
13	0	0	0	0	514	622	
14	0	0	0	0	512	622	
15	0	0	0	0	511	622	
0	0	0	0	0	510	621	
1	0	0	0	0	508	621	
2	0	0	0	0	507	622	
3	0	0	0	0	505	622	
4	0	0	0	0	505	622	
5	0	0	0	0	506	622	
6	0	0	0	0	506	622	
7	0	0	0	0	507	622	
8	0	0	0	0	508	622	
9	0	0	0	0	509	622	
10	0	0	0	0	511	622	
11	0	0	0	0	512	623	
12	0	0	0	0	513	622	
13	0	0	0	0	515	622	
14	0	0	0	0	515	623	
15	0	0	0	0	517	623	
0	0	0	0	0	518	622	
1	0	0	0	0	517	622	
2	0	0	0	0	515	623	
3	0	0	0	0	513	622	
4	0	0	0	0	510	622	
5	0	0	0	0	508	623	
6	0	0	0	0	508	623	
7	0	0	0	0	506	623	
8	0	0	0	0	506	623	
9	0	0	0	0	506	622	
10	0	0	0	0	505	622	
11	0	0	0	0	507	622	
12	0	0	0	0	508	623	
13	0	0	0	0	509	623	
14	0	0	0	0	510	622	
15	0	0	0	0	510	622	
0	0	0	0	0	512	622	
1	0	0	0	0	513	622	
2	0	0	0	0	514	622	
3	0	0	0	0	515	622	
4	0	0	0	0	515	622	
5	0	0	0	0	515	622	
6	0	0	0	0	513	622	
7	0	0	0	0	512	622	
8	0	0	0	0	511	622	
9	0	0	0	0	510	622	
10	0	0	0	0	508	623	
11	0	0	0	0	507	622	
12	0	0	0	0	507	622	
13	0	0	0	0	505	622	
14	0	0	0	0	504	622	
15	0	0	0	0	504	623	
0	0	0	0	0	504	621	
1	0	0	0	0	504	622	
2	0	0	0	0	505	622	
3	0	0	0	0	506	622	
4	0	0	0	0	508	622	
5	0	0	0	0	508	622	
6	0	0	0	0	508	622	
7	0	0	0	0	509	622	
8	0	0	0	0	508	622	
9	0	0	0	0	508	622	
10	0	0	0	0	506	622	
11	0	0	0	0	505	622	
12	0	0	0	0	504	622	
13	0	0	0	0	503	622	
14	0	0	0	0	501	622	
15	0	0	0	0	499	622	
0	0	0	0	0	499	622	
1	0	0	0	0	498	622	
2	0	0	0	0	497	622	
3	0	0	0	0	497	623	
4	0	0	0	0	497	622	
5	0	0	0	0	498	622	
6	0	0	0	0	499	623	
7	0	0	0	0	502	622	
8	0	0	0	0	504	623	
9	0	0	0	0	506	622	
10	0	0	0	0	506	622	
11	0	0	0	0	507	622	
12	0	0	0	0	506	622	
13	0	0	0	0	506	622	
14	0	0	0	0	505	622	
15	0	0	0	0	503	622	
0	0	0	0	0	502	621	
1	0	0	0	0	499	622	
2	0	0	0	0	498	623	
3	0	0	0	0	498	623	
4	0	0	0	0	498	623	
5	0	0	0	0	497	623	
6	0	0	0	0	497	623	
7	0	0	0	0	497	622	
8	0	0	0	0	498	623	
9	0	0	0	0	500	623	
10	0	0	0	0	501	623	
11	0	0	0	0	502	623	
12	0	0	0	0	504	623	
13	0	0	0	0	505	624	
14	0	0	0	0	507	624	
15	0	0	0	0	507	623	
0	0	0	0	0	507	623	
1	0	0	0	0	506	623	
2	0	0	0	0	504	623	
3	0	0	0	0	504	623	
4	0	0	0	0	502	622	
5	0	0	0	0	499	622	
6	0	0	0	0	499	623	
7	0	0	0	0	499	623	
8	0	0	0	0	498	622	
9	0	0	0	0	497	623	
10	0	0	0	0	496	622	
11	0	0	0	0	496	622	
12	0	0	0	0	496	622	
13	0	0	0	0	497	622	
14	0	0	0	0	498	621	
15	0	0	0	0	500	621	
0	0	0	0	0	502	621	
1	0	0	0	0	502	621	
2	0	0	0	0	502	622	
3	0	0	0	0	502	621	
4	0	0	0	0	501	621	
5	0	0	0	0	500	622	
6	0	0	0	0	499	622	
7	0	0	0	0	497	622	
8	0	0	0	0	496	622	
9	0	0	0	0	494	622	
10	0	0	0	0	492	622	
11	0	0	0	0	492	621	
12	0	0	0	0	492	622	
13	0	0	0	0	492	621	
14	0	0	0	0	494	621	
15	0	0	0	0	496	622	
0	0	0	0	0	496	622	
1	0	0	0	0	496	623	
2	0	0	0	0	497	622	
3	0	0	0	0	498	622	
4	0	0	0	0	500	623	
5	0	0	0	0	501	622	
6	0	0	0	0	502	623	
7	0	0	0	0	502	623	
8	0	0	0	0	501	622	
9	0	0	0	0	501	623	
10	0	0	0	0	500	623	
11	0	0	0	0	500	623	
12	0	0	0	0	500	623	
13	0	0	0	0	499	623	
14	0	0	0	0	499	623	
15	0	0	0	0	500	622	
0	0	0	0	0	501	622	
1	0	0	0	0	501	622	
2	0	0	0	0	502	622	
3	0	0	0	0	503	622	
4	0	0	0	0	505	622	
5	0	0	0	0	507	622	
6	0	0	0	0	509	622	
7	0	0	0	0	512	622	
8	0	0	0	0	514	622	
9	0	0	0	0	515	622	
10	0	0	0	0	515	622	
11	0	0	0	0	516	622	
12	0	0	0	0	516	622	
13	0	0	0	0	515	621	
14	0	0	0	0	515	621	
15	0	0	0	0	514	621	
0	0	0	0	0	514	621	
1	0	0	0	0	512	621	
2	0	0	0	0	511	622	
3	0	0	0	0	510	622	
4	0	0	0	0	510	621	
5	0	0	0	0	510	621	
6	0	0	0	0	510	621	
7	0	0	0	0	510	621	
8	0	0	0	0	510	621	
9	0	0	0	0	511	622	
10	0	0	0	0	512	622	
11	0	0	0	0	514	622	
12	0	0	0	0	516	623	
13	0	0	0	0	517	622	
14	0	0	0	0	517	622	
15	0	0	0	0	518	622	
0	0	0	0	0	518	622	
1	0	0	0	0	517	622	
2	0	0	0	0	516	623	
3	0	0	0	0	515	622	
4	0	0	0	0	514	622	
5	0	0	0	0	513	623	
6	0	0	0	0	512	623	
7	0	0	0	0	511	622	
8	0	0	0	0	511	622	
9	0	0	0	0	511	623	
10	0	0	0	0	512	622	
11	0	0	0	0	512	622	
12	0	0	0	0	513	622	
13	0	0	0	0	514	622	
14	0	0	0	0	515	623	
15	0	0	0	0	516	623	
0	0	0	0	0	518	623	
1	0	0	0	0	519	623	
2	0	0	0	0	518	623	
3	0	0	0	0	519	622	
4	0	0	0	0	519	623	
5	0	0	0	0	518	623	
6	0	0	0	0	516	623	
7	0	0	0	0	515	623	
8	0	0	0	0	514	623	
9	0	0	0	0	512	623	
10	0	0	0	0	511	623	
11	0	0	0	0	510	623	
12	0	0	0	0	510	622	
13	0	0	0	0	510	623	
14	0	0	0	0	511	623	
15	0	0	0	0	511	623	
0	0	0	0	0	511	623	
1	0	0	0	0	512	623	
2	0	0	0	0	512	623	
3	0	0	0	0	514	622	
4	0	0	0	0	516	623	
5	0	0	0	0	517	622	
6	0	0	0	0	518	622	
7	0	0	0	0	519	622	
8	0	0	0	0	519	622	
9	0	0	0	0	519	621	
10	0	0	0	0	519	622	
11	0	0	0	0	518	622	
12	0	0	0	0	517	622	
13	0	0	0	0	515	623	
14	0	0	0	0	513	623	
15	0	0	0	0	513	623	
0	0	0	0	0	512	623	
1	0	0	0	0	512	622	
2	0	0	0	0	511	623	
3	0	0	0	0	512	623	
4	0	0	0	0	513	623	
5	0	0	0	0	514	622	
6	0	0	0	0	516	622	
7	0	0	0	0	518	622	
8	0	0	0	0	519	623	
9	0	0	0	0	520	623	
10	0	0	0	0	521	623	
11	0	0	0	0	521	623	
12	0	0	0	0	521	623	
13	0	0	0	0	520	623	
14	0	0	0	0	520	624	
15	0	0	0	0	519	625	
0	0	0	0	0	518	625	
1	0	0	0	0	517	624	
2	0	0	0	0	516	624	
3	0	0	0	0	515	624	
4	0	0	0	0	514	623	
5	0	0	0	0	515	623	
6	0	0	0	0	515	623	
7	0	0	0	0	515	623	
8	0	0	0	0	516	622	
9	0	0	0	0	517	622	
10	0	0	0	0	519	623	
11	0	0	0	0	520	622	
12	0	0	0	0	523	622	
13	0	0	0	0	524	622	
14	0	0	0	0	526	622	
15	0	0	0	0	526	622	
0	0	0	0	0	524	622	
1	0	0	0	0	524	621	
2	0	0	0	0	521	622	
3	0	0	0	0	518	621	
4	0	0	0	0	513	621	
5	0	0	0	0	509	620	
6	0	0	0	0	505	621	
7	0	0	0	0	502	621	
8	0	0	0	0	498	621	
9	0	0	0	0	496	621	
10	0	0	0	0	493	621	
11	0	0	0	0	491	620	
12	0	0	0	0	490	620	
13	0	0	0	0	490	620	
14	0	0	0	0	491	620	
15	0	0	0	0	493	620	
0	0	0	0	0	496	620	
1	0	0	0	0	499	620	
2	0	0	0	0	502	621	
3	0	0	0	0	505	620	
4	0	0	0	0	510	620	
5	0	0	0	0	517	620	
6	0	0	0	0	526	621	
7	0	0	0	0	537	621	
8	0	0	0	0	549	621	
9	0	0	0	0	563	621	
10	0	0	0	0	578	621	
11	0	0	0	0	593	622	
12	0	0	0	0	610	622	
13	0	0	0	0	624	622	
14	0	0	0	0	637	623	
15	0	0	0	0	652	622	
0	0	0	0	0	668	622	
1	0	0	0	0	684	622	
2	0	0	0	0	700	623	
3	0	0	0	0	713	622	
4	0	0	0	0	723	622	
5	0	0	0	0	729	622	
6	0	0	0	0	730	622	
7	0	0	0	0	726	622	
8	0	0	0	0	718	622	
9	0	0	0	0	706	622	
10	0	0	0	0	695	623	
11	0	0	0	0	684	622	
12	0	0	0	0	673	623	
13	0	0	0	0	663	623	
14	0	0	0	0	653	623	
15	0	0	0	0	641	623	
0	0	0	0	0	629	623	
1	0	0	0	0	617	623	
2	0	0	0	0	603	623	
3	0	0	0	0	590	623	
4	0	0	0	0	577	623	
5	0	0	0	0	564	623	
6	0	0	0	0	553	623	
7	0	0	0	0	543	623	
8	0	0	0	0	534	624	
9	0	0	0	0	527	624	
10	0	0	0	0	519	624	
11	0	0	0	0	513	623	
12	0	0	0	0	507	623	
13	0	0	0	0	502	624	
14	0	0	0	0	497	624	
15	0	0	0	0	491	623	
0	0	0	0	0	486	623	
1	0	0	0	0	480	623	
2	0	0	0	0	476	624	
3	0	0	0	0	472	623	
4	0	0	0	0	470	623	
5	0	0	0	0	466	623	
6	0	0	0	0	464	623	
7	0	0	0	0	464	624	
8	0	0	0	0	464	623	
9	0	0	0	0	465	623	
10	0	0	0	0	464	622	
11	0	0	0	0	465	623	
12	0	0	0	0	466	623	
13	0	0	0	0	467	623	
14	0	0	0	0	467	622	
15	0	0	0	0	467	622	
0	0	0	0	0	468	622	
1	0	0	0	0	468	621	
2	0	0	0	0	467	622	
3	0	0	0	0	466	622	
4	0	0	0	0	464	621	
5	0	0	0	0	462	622	
6	0	0	0	0	461	622	
7	0	0	0	0	460	622	
8	0	0	0	0	460	621	
9	0	0	0	0	459	621	
10	0	0	0	0	460	622	
11	0	0	0	0	460	621	
12	0	0	0	0	461	621	
13	0	0	0	0	462	620	
14	0	0	0	0	463	622	
15	0	0	0	0	464	621	
0	0	0	0	0	467	621	
1	0	0	0	0	468	621	
2	0	0	0	0	470	621	
3	0	0	0	0	470	620	
4	0	0	0	0	469	620	
5	0	0	0	0	469	621	
6	0	0	0	0	468	621	
7	0	0	0	0	467	621	
8	0	0	0	0	467	621	
9	0	0	0	0	466	621	
10	0	0	0	0	465	622	
11	0	0	0	0	464	621	
12	0	0	0	0	465	621	
13	0	0	0	0	465	622	
14	0	0	0	0	466	622	
15	0	0	0	0	467	622	
0	0	0	0	0	468	622	
1	0	0	0	0	470	622	
2	0	0	0	0	472	622	
3	0	0	0	0	473	623	
4	0	0	0	0	474	622	
5	0	0	0	0	475	621	
6	0	0	0	0	475	621	
7	0	0	0	0	476	621	
8	0	0	0	0	476	621	
9	0	0	0	0	476	622	
10	0	0	0	0	476	623	
11	0	0	0	0	475	622	
12	0	0	0	0	473	622	
13	0	0	0	0	472	622	
14	0	0	0	0	471	622	
15	0	0	0	0	471	622	
0	0	0	0	0	471	622	
1	0	0	0	0	471	621	
2	0	0	0	0	470	622	
3	0	0	0	0	470	621	
4	0	0	0	0	471	622	
5	0	0	0	0	472	622	
6	0	0	0	0	472	622	
7	0	0	0	0	473	622	
8	0	0	0	0	475	622	
9	0	0	0	0	476	622	
10	0	0	0	0	478	622	
11	0	0	0	0	479	622	
12	0	0	0	0	479	622	
13	0	0	0	0	479	623	
14	0	0	0	0	478	623	
15	0	0	0	0	476	622	
0	0	0	0	0	475	622	
1	0	0	0	0	473	622	
2	0	0	0	0	472	624	
3	0	0	0	0	471	622	
4	0	0	0	0	470	623	
5	0	0	0	0	469	622	
6	0	0	0	0	470	623	
7	0	0	0	0	472	623	
8	0	0	0	0	472	623	
9	0	0	0	0	474	623	
10	0	0	0	0	476	624	
11	0	0	0	0	478	624	
12	0	0	0	0	480	623	
13	0	0	0	0	482	624	
14	0	0	0	0	483	624	
15	0	0	0	0	484	624	
0	0	0	0	0	484	623	
1	0	0	0	0	483	623	
2	0	0	0	0	483	624	
3	0	0	0	0	483	624	
4	0	0	0	0	482	623	
5	0	0	0	0	480	623	
6	0	0	0	0	480	623	
7	0	0	0	0	478	623	
8	0	0	0	0	477	624	
9	0	0	0	0	477	622	
10	0	0	0	0	477	623	
11	0	0	0	0	478	623	
12	0	0	0	0	478	623	
13	0	0	0	0	479	623	
14	0	0	0	0	480	622	
15	0	0	0	0	481	622	
0	0	0	0	0	483	622	
1	0	0	0	0	483	622	
2	0	0	0	0	484	622	
3	0	0	0	0	486	622	
4	0	0	0	0	486	622	
5	0	0	0	0	486	622	
6	0	0	0	0	487	622	
7	0	0	0	0	487	622	
8	0	0	0	0	487	621	
9	0	0	0	0	486	622	
10	0	0	0	0	484	622	
11	0	0	0	0	483	622	
12	0	0	0	0	482	622	
13	0	0	0	0	482	621	
14	0	0	0	0	482	621	
15	0	0	0	0	483	622	
0	0	0	0	0	483	621	
1	0	0	0	0	485	622	
2	0	0	0	0	486	622	
3	0	0	0	0	488	622	
4	0	0	0	0	491	622	
5	0	0	0	0	492	622	
6	0	0	0	0	493	622	
7	0	0	0	0	493	622	
8	0	0	0	0	493	622	
9	0	0	0	0	494	622	
10	0	0	0	0	493	623	
11	0	0	0	0	492	623	
12	0	0	0	0	492	622	
13	0	0	0	0	491	622	
14	0	0	0	0	489	623	
15	0	0	0	0	488	623	
0	0	0	0	0	489	622	
1	0	0	0	0	487	623	
2	0	0	0	0	487	623	
3	0	0	0	0	488	622	
4	0	0	0	0	489	622	
5	0	0	0	0	489	622	
6	0	0	0	0	490	623	
7	0	0	0	0	491	623	
8	0	0	0	0	493	623	
9	0	0	0	0	495	622	
10	0	0	0	0	497	623	
11	0	0	0	0	498	622	
12	0	0	0	0	498	622	
13	0	0	0	0	498	622	
14	0	0	0	0	497	622	
15	0	0	0	0	497	621	
0	0	0	0	0	496	621	
1	0	0	0	0	495	620	
2	0	0	0	0	494	621	
3	0	0	0	0	493	620	
4	0	0	0	0	493	621	
5	0	0	0	0	493	621	
6	0	0	0	0	492	621	
7	0	0	0	0	494	621	
8	0	0	0	0	495	621	
9	0	0	0	0	496	621	
10	0	0	0	0	498	622	
11	0	0	0	0	499	621	
12	0	0	0	0	502	621	
13	0	0	0	0	503	621	
14	0	0	0	0	504	621	
15	0	0	0	0	505	621	
0	0	0	0	0	506	621	
1	0	0	0	0	505	621	
2	0	0	0	0	505	621	
3	0	0	0	0	504	621	
4	0	0	0	0	504	621	
5	0	0	0	0	503	621	
6	0	0	0	0	503	622	
7	0	0	0	0	502	621	
8	0	0	0	0	502	621	
9	0	0	0	0	502	621	
10	0	0	0	0	502	622	
11	0	0	0	0	504	621	
12	0	0	0	0	505	621	
13	0	0	0	0	507	622	
14	0	0	0	0	508	622	
15	0	0	0	0	510	621	
0	0	0	0	0	511	622	
1	0	0	0	0	513	622	
2	0	0	0	0	515	622	
3	0	0	0	0	515	622	
4	0	0	0	0	515	621	
5	0	0	0	0	515	622	
6	0	0	0	0	513	622	
7	0	0	0	0	513	622	
8	0	0	0	0	512	622	
9	0	0	0	0	511	622	
10	0	0	0	0	511	622	
11	0	0	0	0	510	621	
12	0	0	0	0	510	622	
13	0	0	0	0	510	622	
14	0	0	0	0	510	623	
15	0	0	0	0	511	623	
0	0	0	0	0	512	622	
1	0	0	0	0	513	622	
2	0	0	0	0	515	623	
3	0	0	0	0	516	623	
4	0	0	0	0	519	623	
5	0	0	0	0	520	623	
6	0	0	0	0	521	622	
7	0	0	0	0	522	622	
8	0	0	0	0	521	623	
9	0	0	0	0	521	623	
10	0	0	0	0	520	623	
11	0	0	0	0	519	623	
12	0	0	0	0	518	623	
13	0	0	0	0	516	623	
14	0	0	0	0	515	623	
15	0	0	0	0	513	623	
0	0	0	0	0	512	623	
1	0	0	0	0	511	623	
2	0	0	0	0	511	623	
3	0	0	0	0	512	622	
4	0	0	0	0	513	623	
5	0	0	0	0	513	623	
6	0	0	0	0	514	623	
7	0	0	0	0	515	623	
8	0	0	0	0	517	623	
9	0	0	0	0	518	623	
10	0	0	0	0	519	623	
11	0	0	0	0	521	623	
12	0	0	0	0	520	622	
13	0	0	0	0	519	622	
14	0	0	0	0	519	623	
15	0	0	0	0	517	623	
0	0	0	0	0	514	622	
1	0	0	0	0	511	622	
2	0	0	0	0	509	623	
3	0	0	0	0	508	623	
4	0	0	0	0	507	623	
5	0	0	0	0	505	623	
6	0	0	0	0	504	623	
7	0	0	0	0	504	623	
8	0	0	0	0	503	623	
9	0	0	0	0	503	623	
10	0	0	0	0	503	623	
11	0	0	0	0	504	623	
12	0	0	0	0	504	623	
13	0	0	0	0	504	623	
14	0	0	0	0	505	623	
15	0	0	0	0	504	622	
0	0	0	0	0	504	623	
1	0	0	0	0	503	622	
2	0	0	0	0	501	623	
3	0	0	0	0	499	622	
4	0	0	0	0	498	622	
5	0	0	0	0	496	622	
6	0	0	0	0	493	623	
7	0	0	0	0	491	622	
8	0	0	0	0	489	622	
9	0	0	0	0	488	622	
10	0	0	0	0	487	622	
11	0	0	0	0	486	621	
12	0	0	0	0	486	621	
13	0	0	0	0	486	622	
14	0	0	0	0	487	622	
15	0	0	0	0	488	622	
0	0	0	0	0	489	622	
1	0	0	0	0	489	622	
2	0	0	0	0	490	622	
3	0	0	0	0	491	622	
4	0	0	0	0	490	621	
5	0	0	0	0	490	622	
6	0	0	0	0	489	622	
7	0	0	0	0	487	622	
8	0	0	0	0	486	622	
9	0	0	0	0	484	621	
10	0	0	0	0	483	622	
11	0	0	0	0	481	622	
12	0	0	0	0	480	622	
13	0	0	0	0	479	622	
14	0	0	0	0	479	622	
15	0	0	0	0	480	623	
0	0	0	0	0	480	622	
1	0	0	0	0	481	622	
2	0	0	0	0	482	623	
3	0	0	0	0	483	622	
4	0	0	0	0	486	622	
5	0	0	0	0	487	622	
6	0	0	0	0	488	622	
7	0	0	0	0	489	622	
8	0	0	0	0	489	622	
9	0	0	0	0	489	622	
10	0	0	0	0	489	622	
11	0	0	0	0	487	622	
12	0	0	0	0	487	621	
13	0	0	0	0	485	622	
14	0	0	0	0	484	622	
15	0	0	0	0	484	622	
0	0	0	0	0	483	622	
1	0	0	0	0	483	622	
2	0	0	0	0	482	622	
3	0	0	0	0	483	622	
4	0	0	0	0	485	622	
5	0	0	0	0	486	623	
6	0	0	0	0	487	623	
7	0	0	0	0	487	622	
8	0	0	0	0	488	623	
9	0	0	0	0	489	623	
10	0	0	0	0	491	623	
11	0	0	0	0	492	623	
12	0	0	0	0	493	623	
13	0	0	0	0	494	623	
14	0	0	0	0	494	624	
15	0	0	0	0	494	623	
0	0	0	0	0	493	623	
1	0	0	0	0	492	623	
2	0	0	0	0	491	623	
3	0	0	0	0	491	623	
4	0	0	0	0	490	623	
5	0	0	0	0	489	623	
6	0	0	0	0	489	623	
7	0	0	0	0	491	623	
8	0	0	0	0	491	623	
9	0	0	0	0	492	623	
10	0	0	0	0	494	623	
11	0	0	0	0	496	622	
12	0	0	0	0	497	622	
13	0	0	0	0	498	622	
14	0	0	0	0	500	623	
15	0	0	0	0	502	623	
0	0	0	0	0	503	622	
1	0	0	0	0	503	623	
2	0	0	0	0	503	623	
3	0	0	0	0	501	623	
4	0	0	0	0	499	622	
5	0	0	0	0	498	622	
6	0	0	0	0	497	622	
7	0	0	0	0	496	622	
8	0	0	0	0	495	622	
9	0	0	0	0	495	622	
10	0	0	0	0	494	622	
11	0	0	0	0	495	622	
12	0	0	0	0	496	622	
13	0	0	0	0	498	622	
14	0	0	0	0	500	622	
15	0	0	0	0	502	621	
0	0	0	0	0	504	622	
1	0	0	0	0	507	622	
2	0	0	0	0	508	622	
3	0	0	0	0	509	621	
4	0	0	0	0	510	621	
5	0	0	0	0	510	622	
6	0	0	0	0	509	622	
7	0	0	0	0	508	621	
8	0	0	0	0	506	622	
9	0	0	0	0	504	621	
10	0	0	0	0	503	622	
11	0	0	0	0	501	622	
12	0	0	0	0	500	622	
13	0	0	0	0	500	622	
14	0	0	0	0	499	622	
15	0	0	0	0	499	621	
0	0	0	0	0	500	622	
1	0	0	0	0	501	622	
2	0	0	0	0	502	623	
3	0	0	0	0	503	622	
4	0	0	0	0	504	622	
5	0	0	0	0	505	622	
6	0	0	0	0	507	622	
7	0	0	0	0	508	622	
8	0	0	0	0	509	622	
9	0	0	0	0	510	622	
10	0	0	0	0	509	623	
11	0	0	0	0	508	622	
12	0	0	0	0	507	622	
13	0	0	0	0	505	621	
14	0	0	0	0	504	622	
15	0	0	0	0	502	622	
0	0	0	0	0	501	622	
1	0	0	0	0	501	622	
2	0	0	0	0	500	623	
3	0	0	0	0	500	622	
