# OpenSignals Text File Format. Version 1
# {"98:D3:91:FD:69:48": {"position": 0, "device": "bitalino_rev", "device name": "98:D3:91:FD:69:48", "device connection": "BTH98:D3:91:FD:69:48", "sampling rate": 1000, "resolution": [4, 1, 1, 1, 1, 10, 10], "firmware version": 1281, "comments": "", "keywords": "", "mode": 0, "sync interval": 2, "date": "2021-9-18", "time": "21:13:52.595", "channels": [2, 5], "sensor": ["RAW", "RAW"], "label": ["A2", "A5"], "column": ["nSeq", "I1", "I2", "O1", "O2", "A2", "A5"], "special": [{}, {}], "digital IO": [0, 0, 1, 1], "convertedValues": 0}}
# EndOfHeader
0	0	0	0	0	540	412	
1	0	0	0	0	541	412	
2	0	0	0	0	541	411	
3	0	0	0	0	541	411	
4	0	0	0	0	542	411	
5	0	0	0	0	542	409	
6	0	0	0	0	542	411	
7	0	0	0	0	543	410	
8	0	0	0	0	543	410	
9	0	0	0	0	543	410	
10	0	0	0	0	543	411	
11	0	0	0	0	543	410	
12	0	0	0	0	543	410	
13	0	0	0	0	542	411	
14	0	0	0	0	542	411	
15	0	0	0	0	542	411	
0	0	0	0	0	543	411	
1	0	0	0	0	543	411	
2	0	0	0	0	544	411	
3	0	0	0	0	544	410	
4	0	0	0	0	545	411	
5	0	0	0	0	546	411	
6	0	0	0	0	547	412	
7	0	0	0	0	549	412	
8	0	0	0	0	549	412	
9	0	0	0	0	550	413	
10	0	0	0	0	551	412	
11	0	0	0	0	553	412	
12	0	0	0	0	554	412	
13	0	0	0	0	554	412	
14	0	0	0	0	554	413	
15	0	0	0	0	554	412	
0	0	0	0	0	553	412	
1	0	0	0	0	553	413	
2	0	0	0	0	552	412	
3	0	0	0	0	552	412	
4	0	0	0	0	551	412	
5	0	0	0	0	551	412	
6	0	0	0	0	551	412	
7	0	0	0	0	550	412	
8	0	0	0	0	550	412	
9	0	0	0	0	548	412	
10	0	0	0	0	547	411	
11	0	0	0	0	547	412	
12	0	0	0	0	546	411	
13	0	0	0	0	545	411	
14	0	0	0	0	545	411	
15	0	0	0	0	543	411	
0	0	0	0	0	543	411	
1	0	0	0	0	543	412	
2	0	0	0	0	542	411	
3	0	0	0	0	542	411	
4	0	0	0	0	540	410	
5	0	0	0	0	539	410	
6	0	0	0	0	538	410	
7	0	0	0	0	537	410	
8	0	0	0	0	536	411	
9	0	0	0	0	536	411	
10	0	0	0	0	534	410	
11	0	0	0	0	534	410	
12	0	0	0	0	533	410	
13	0	0	0	0	532	410	
14	0	0	0	0	531	410	
15	0	0	0	0	530	410	
0	0	0	0	0	528	410	
1	0	0	0	0	528	411	
2	0	0	0	0	527	411	
3	0	0	0	0	526	410	
4	0	0	0	0	525	411	
5	0	0	0	0	524	411	
6	0	0	0	0	524	411	
7	0	0	0	0	523	411	
8	0	0	0	0	523	412	
9	0	0	0	0	523	413	
10	0	0	0	0	523	412	
11	0	0	0	0	522	412	
12	0	0	0	0	521	412	
13	0	0	0	0	521	411	
14	0	0	0	0	522	412	
15	0	0	0	0	521	412	
0	0	0	0	0	522	412	
1	0	0	0	0	521	413	
2	0	0	0	0	520	413	
3	0	0	0	0	519	412	
4	0	0	0	0	518	412	
5	0	0	0	0	518	412	
6	0	0	0	0	517	412	
7	0	0	0	0	515	413	
8	0	0	0	0	514	412	
9	0	0	0	0	513	413	
10	0	0	0	0	513	412	
11	0	0	0	0	511	412	
12	0	0	0	0	511	412	
13	0	0	0	0	511	412	
14	0	0	0	0	510	412	
15	0	0	0	0	511	412	
0	0	0	0	0	510	412	
1	0	0	0	0	510	413	
2	0	0	0	0	510	412	
3	0	0	0	0	509	412	
4	0	0	0	0	508	412	
5	0	0	0	0	507	411	
6	0	0	0	0	505	412	
7	0	0	0	0	504	412	
8	0	0	0	0	503	412	
9	0	0	0	0	502	413	
10	0	0	0	0	501	412	
11	0	0	0	0	500	412	
12	0	0	0	0	500	411	
13	0	0	0	0	499	411	
14	0	0	0	0	498	411	
15	0	0	0	0	498	411	
0	0	0	0	0	497	411	
1	0	0	0	0	496	412	
2	0	0	0	0	495	411	
3	0	0	0	0	494	411	
4	0	0	0	0	493	412	
5	0	0	0	0	492	411	
6	0	0	0	0	492	411	
7	0	0	0	0	491	412	
8	0	0	0	0	490	411	
9	0	0	0	0	490	412	
10	0	0	0	0	489	411	
11	0	0	0	0	489	411	
12	0	0	0	0	488	412	
13	0	0	0	0	487	411	
14	0	0	0	0	487	412	
15	0	0	0	0	487	411	
0	0	0	0	0	486	412	
1	0	0	0	0	486	413	
2	0	0	0	0	486	411	
3	0	0	0	0	487	412	
4	0	0	0	0	487	412	
5	0	0	0	0	487	412	
6	0	0	0	0	487	412	
7	0	0	0	0	487	412	
8	0	0	0	0	486	412	
9	0	0	0	0	486	412	
10	0	0	0	0	485	412	
11	0	0	0	0	484	412	
12	0	0	0	0	483	412	
13	0	0	0	0	482	412	
14	0	0	0	0	481	412	
15	0	0	0	0	480	412	
0	0	0	0	0	479	412	
1	0	0	0	0	479	412	
2	0	0	0	0	478	412	
3	0	0	0	0	478	412	
4	0	0	0	0	476	411	
5	0	0	0	0	475	411	
6	0	0	0	0	474	411	
7	0	0	0	0	472	410	
8	0	0	0	0	471	410	
9	0	0	0	0	470	411	
10	0	0	0	0	469	410	
11	0	0	0	0	468	409	
12	0	0	0	0	467	410	
13	0	0	0	0	467	410	
14	0	0	0	0	467	410	
15	0	0	0	0	467	410	
0	0	0	0	0	468	411	
1	0	0	0	0	469	411	
2	0	0	0	0	468	411	
3	0	0	0	0	468	411	
4	0	0	0	0	467	411	
5	0	0	0	0	467	411	
6	0	0	0	0	467	411	
7	0	0	0	0	467	412	
8	0	0	0	0	466	411	
9	0	0	0	0	466	412	
10	0	0	0	0	466	412	
11	0	0	0	0	465	412	
12	0	0	0	0	465	412	
13	0	0	0	0	465	412	
14	0	0	0	0	465	412	
15	0	0	0	0	464	412	
0	0	0	0	0	463	412	
1	0	0	0	0	463	413	
2	0	0	0	0	462	413	
3	0	0	0	0	462	412	
4	0	0	0	0	462	412	
5	0	0	0	0	462	412	
6	0	0	0	0	461	412	
7	0	0	0	0	461	412	
8	0	0	0	0	461	412	
9	0	0	0	0	462	413	
10	0	0	0	0	462	412	
11	0	0	0	0	462	412	
12	0	0	0	0	463	412	
13	0	0	0	0	463	412	
14	0	0	0	0	463	412	
15	0	0	0	0	463	412	
0	0	0	0	0	464	412	
1	0	0	0	0	465	412	
2	0	0	0	0	465	411	
3	0	0	0	0	467	411	
4	0	0	0	0	468	412	
5	0	0	0	0	469	410	
6	0	0	0	0	470	411	
7	0	0	0	0	470	410	
8	0	0	0	0	472	411	
9	0	0	0	0	473	412	
10	0	0	0	0	475	410	
11	0	0	0	0	476	410	
12	0	0	0	0	477	411	
13	0	0	0	0	479	409	
14	0	0	0	0	480	410	
15	0	0	0	0	481	410	
0	0	0	0	0	481	411	
1	0	0	0	0	481	410	
2	0	0	0	0	479	411	
3	0	0	0	0	477	411	
4	0	0	0	0	474	411	
5	0	0	0	0	471	411	
6	0	0	0	0	466	412	
7	0	0	0	0	462	412	
8	0	0	0	0	457	411	
9	0	0	0	0	452	413	
10	0	0	0	0	447	412	
11	0	0	0	0	444	413	
12	0	0	0	0	440	413	
13	0	0	0	0	436	412	
14	0	0	0	0	433	413	
15	0	0	0	0	433	413	
0	0	0	0	0	434	412	
1	0	0	0	0	437	413	
2	0	0	0	0	442	412	
3	0	0	0	0	449	412	
4	0	0	0	0	458	412	
5	0	0	0	0	468	412	
6	0	0	0	0	479	412	
7	0	0	0	0	489	413	
8	0	0	0	0	500	412	
9	0	0	0	0	513	413	
10	0	0	0	0	528	412	
11	0	0	0	0	544	413	
12	0	0	0	0	561	412	
13	0	0	0	0	579	412	
14	0	0	0	0	598	412	
15	0	0	0	0	617	412	
0	0	0	0	0	639	412	
1	0	0	0	0	664	413	
2	0	0	0	0	690	412	
3	0	0	0	0	716	412	
4	0	0	0	0	739	412	
5	0	0	0	0	760	412	
6	0	0	0	0	779	412	
7	0	0	0	0	794	412	
8	0	0	0	0	805	412	
9	0	0	0	0	814	412	
10	0	0	0	0	822	411	
11	0	0	0	0	827	411	
12	0	0	0	0	832	411	
13	0	0	0	0	836	411	
14	0	0	0	0	838	411	
15	0	0	0	0	838	411	
0	0	0	0	0	833	410	
1	0	0	0	0	825	411	
2	0	0	0	0	811	411	
3	0	0	0	0	790	410	
4	0	0	0	0	764	411	
5	0	0	0	0	736	410	
6	0	0	0	0	706	412	
7	0	0	0	0	675	411	
8	0	0	0	0	642	411	
9	0	0	0	0	610	412	
10	0	0	0	0	577	411	
11	0	0	0	0	547	411	
12	0	0	0	0	517	411	
13	0	0	0	0	491	411	
14	0	0	0	0	470	412	
15	0	0	0	0	452	412	
0	0	0	0	0	439	412	
1	0	0	0	0	429	412	
2	0	0	0	0	421	412	
3	0	0	0	0	415	413	
4	0	0	0	0	409	412	
5	0	0	0	0	405	412	
6	0	0	0	0	401	412	
7	0	0	0	0	398	412	
8	0	0	0	0	395	412	
9	0	0	0	0	392	412	
10	0	0	0	0	391	412	
11	0	0	0	0	389	413	
12	0	0	0	0	388	412	
13	0	0	0	0	386	412	
14	0	0	0	0	384	412	
15	0	0	0	0	383	411	
0	0	0	0	0	382	411	
1	0	0	0	0	380	412	
2	0	0	0	0	378	411	
3	0	0	0	0	377	411	
4	0	0	0	0	376	411	
5	0	0	0	0	376	409	
6	0	0	0	0	376	410	
7	0	0	0	0	377	410	
8	0	0	0	0	377	410	
9	0	0	0	0	377	411	
10	0	0	0	0	377	411	
11	0	0	0	0	377	411	
12	0	0	0	0	377	411	
13	0	0	0	0	376	411	
14	0	0	0	0	376	411	
15	0	0	0	0	376	411	
0	0	0	0	0	376	411	
1	0	0	0	0	375	412	
2	0	0	0	0	375	412	
3	0	0	0	0	375	412	
4	0	0	0	0	375	412	
5	0	0	0	0	375	412	
6	0	0	0	0	376	412	
7	0	0	0	0	376	412	
8	0	0	0	0	376	413	
9	0	0	0	0	377	412	
10	0	0	0	0	378	413	
11	0	0	0	0	379	412	
12	0	0	0	0	380	413	
13	0	0	0	0	381	412	
14	0	0	0	0	381	412	
15	0	0	0	0	382	412	
0	0	0	0	0	383	412	
1	0	0	0	0	384	412	
2	0	0	0	0	385	412	
3	0	0	0	0	385	412	
4	0	0	0	0	386	412	
5	0	0	0	0	386	411	
6	0	0	0	0	387	412	
7	0	0	0	0	388	412	
8	0	0	0	0	388	412	
9	0	0	0	0	389	412	
10	0	0	0	0	389	411	
11	0	0	0	0	390	412	
12	0	0	0	0	390	412	
13	0	0	0	0	391	412	
14	0	0	0	0	391	412	
15	0	0	0	0	391	412	
0	0	0	0	0	391	412	
1	0	0	0	0	391	412	
2	0	0	0	0	390	411	
3	0	0	0	0	389	411	
4	0	0	0	0	389	411	
5	0	0	0	0	389	411	
6	0	0	0	0	389	411	
7	0	0	0	0	389	411	
8	0	0	0	0	389	411	
9	0	0	0	0	389	412	
10	0	0	0	0	389	412	
11	0	0	0	0	390	412	
12	0	0	0	0	391	412	
13	0	0	0	0	391	411	
14	0	0	0	0	391	412	
15	0	0	0	0	392	412	
0	0	0	0	0	392	411	
1	0	0	0	0	392	412	
2	0	0	0	0	393	411	
3	0	0	0	0	393	411	
4	0	0	0	0	393	412	
5	0	0	0	0	393	411	
6	0	0	0	0	393	412	
7	0	0	0	0	393	411	
8	0	0	0	0	392	412	
9	0	0	0	0	393	412	
10	0	0	0	0	393	411	
11	0	0	0	0	393	411	
12	0	0	0	0	392	411	
13	0	0	0	0	393	411	
14	0	0	0	0	393	411	
15	0	0	0	0	393	411	
0	0	0	0	0	394	411	
1	0	0	0	0	393	412	
2	0	0	0	0	395	411	
3	0	0	0	0	395	411	
4	0	0	0	0	397	411	
5	0	0	0	0	397	410	
6	0	0	0	0	398	412	
7	0	0	0	0	398	412	
8	0	0	0	0	399	412	
9	0	0	0	0	399	412	
10	0	0	0	0	399	412	
11	0	0	0	0	400	412	
12	0	0	0	0	401	412	
13	0	0	0	0	401	411	
14	0	0	0	0	402	412	
15	0	0	0	0	403	413	
0	0	0	0	0	403	412	
1	0	0	0	0	403	413	
2	0	0	0	0	404	413	
3	0	0	0	0	404	413	
4	0	0	0	0	404	413	
5	0	0	0	0	405	413	
6	0	0	0	0	405	413	
7	0	0	0	0	404	412	
8	0	0	0	0	406	412	
9	0	0	0	0	407	414	
10	0	0	0	0	407	412	
11	0	0	0	0	408	413	
12	0	0	0	0	408	412	
13	0	0	0	0	408	412	
14	0	0	0	0	407	412	
15	0	0	0	0	408	411	
0	0	0	0	0	408	412	
1	0	0	0	0	408	412	
2	0	0	0	0	407	411	
3	0	0	0	0	408	411	
4	0	0	0	0	408	412	
5	0	0	0	0	408	411	
6	0	0	0	0	409	411	
7	0	0	0	0	409	412	
8	0	0	0	0	410	412	
9	0	0	0	0	410	412	
10	0	0	0	0	410	411	
11	0	0	0	0	411	410	
12	0	0	0	0	411	411	
13	0	0	0	0	411	411	
14	0	0	0	0	411	411	
15	0	0	0	0	411	410	
0	0	0	0	0	412	411	
1	0	0	0	0	412	412	
2	0	0	0	0	412	411	
3	0	0	0	0	413	411	
4	0	0	0	0	413	411	
5	0	0	0	0	414	411	
6	0	0	0	0	414	411	
7	0	0	0	0	414	410	
8	0	0	0	0	415	411	
9	0	0	0	0	415	411	
10	0	0	0	0	415	410	
11	0	0	0	0	416	410	
12	0	0	0	0	416	410	
13	0	0	0	0	417	409	
14	0	0	0	0	418	411	
15	0	0	0	0	418	411	
0	0	0	0	0	419	411	
1	0	0	0	0	420	411	
2	0	0	0	0	420	410	
3	0	0	0	0	421	410	
4	0	0	0	0	422	410	
5	0	0	0	0	423	409	
6	0	0	0	0	424	410	
7	0	0	0	0	425	409	
8	0	0	0	0	426	410	
9	0	0	0	0	427	411	
10	0	0	0	0	428	410	
11	0	0	0	0	428	410	
12	0	0	0	0	430	410	
13	0	0	0	0	431	410	
14	0	0	0	0	432	411	
15	0	0	0	0	433	411	
0	0	0	0	0	434	411	
1	0	0	0	0	435	412	
2	0	0	0	0	435	412	
3	0	0	0	0	436	412	
4	0	0	0	0	437	412	
5	0	0	0	0	437	411	
6	0	0	0	0	437	412	
7	0	0	0	0	437	412	
8	0	0	0	0	438	411	
9	0	0	0	0	438	413	
10	0	0	0	0	439	412	
11	0	0	0	0	439	412	
12	0	0	0	0	440	413	
13	0	0	0	0	440	412	
14	0	0	0	0	440	413	
15	0	0	0	0	440	413	
0	0	0	0	0	441	413	
1	0	0	0	0	441	414	
2	0	0	0	0	440	413	
3	0	0	0	0	440	412	
4	0	0	0	0	441	413	
5	0	0	0	0	441	412	
6	0	0	0	0	442	412	
7	0	0	0	0	443	412	
8	0	0	0	0	442	412	
9	0	0	0	0	442	414	
10	0	0	0	0	442	412	
11	0	0	0	0	442	412	
12	0	0	0	0	442	412	
13	0	0	0	0	442	413	
14	0	0	0	0	443	412	
15	0	0	0	0	444	413	
0	0	0	0	0	445	412	
1	0	0	0	0	445	413	
2	0	0	0	0	444	412	
3	0	0	0	0	445	413	
4	0	0	0	0	445	412	
5	0	0	0	0	445	412	
6	0	0	0	0	444	412	
7	0	0	0	0	444	412	
8	0	0	0	0	444	412	
9	0	0	0	0	444	412	
10	0	0	0	0	444	412	
11	0	0	0	0	444	412	
12	0	0	0	0	443	412	
13	0	0	0	0	443	411	
14	0	0	0	0	442	412	
15	0	0	0	0	442	412	
0	0	0	0	0	441	413	
1	0	0	0	0	440	412	
2	0	0	0	0	440	412	
3	0	0	0	0	439	412	
4	0	0	0	0	439	411	
5	0	0	0	0	438	411	
6	0	0	0	0	437	411	
7	0	0	0	0	437	411	
8	0	0	0	0	435	410	
9	0	0	0	0	435	412	
10	0	0	0	0	434	411	
11	0	0	0	0	433	411	
12	0	0	0	0	432	410	
13	0	0	0	0	432	410	
14	0	0	0	0	432	411	
15	0	0	0	0	431	411	
0	0	0	0	0	430	411	
1	0	0	0	0	430	412	
2	0	0	0	0	429	411	
3	0	0	0	0	429	411	
4	0	0	0	0	429	411	
5	0	0	0	0	429	411	
6	0	0	0	0	430	411	
7	0	0	0	0	430	411	
8	0	0	0	0	430	411	
9	0	0	0	0	430	412	
10	0	0	0	0	429	411	
11	0	0	0	0	429	411	
12	0	0	0	0	428	411	
13	0	0	0	0	428	410	
14	0	0	0	0	428	411	
15	0	0	0	0	427	411	
0	0	0	0	0	427	411	
1	0	0	0	0	425	412	
2	0	0	0	0	425	411	
3	0	0	0	0	425	412	
4	0	0	0	0	424	411	
5	0	0	0	0	424	411	
6	0	0	0	0	423	412	
7	0	0	0	0	423	411	
8	0	0	0	0	423	411	
9	0	0	0	0	423	412	
10	0	0	0	0	424	411	
11	0	0	0	0	424	411	
12	0	0	0	0	423	411	
13	0	0	0	0	423	410	
14	0	0	0	0	423	410	
15	0	0	0	0	424	411	
0	0	0	0	0	424	411	
1	0	0	0	0	425	413	
2	0	0	0	0	425	412	
3	0	0	0	0	425	412	
4	0	0	0	0	426	411	
5	0	0	0	0	425	411	
6	0	0	0	0	425	412	
7	0	0	0	0	425	412	
8	0	0	0	0	425	413	
9	0	0	0	0	425	412	
10	0	0	0	0	424	412	
11	0	0	0	0	424	413	
12	0	0	0	0	424	413	
13	0	0	0	0	425	412	
14	0	0	0	0	424	412	
15	0	0	0	0	424	413	
0	0	0	0	0	423	412	
1	0	0	0	0	423	412	
2	0	0	0	0	423	412	
3	0	0	0	0	423	412	
4	0	0	0	0	423	411	
5	0	0	0	0	424	412	
6	0	0	0	0	424	412	
7	0	0	0	0	424	412	
8	0	0	0	0	425	412	
9	0	0	0	0	425	413	
10	0	0	0	0	425	411	
11	0	0	0	0	426	412	
12	0	0	0	0	427	411	
13	0	0	0	0	427	411	
14	0	0	0	0	428	412	
15	0	0	0	0	429	411	
0	0	0	0	0	428	411	
1	0	0	0	0	428	412	
2	0	0	0	0	429	412	
3	0	0	0	0	429	411	
4	0	0	0	0	429	411	
5	0	0	0	0	429	411	
6	0	0	0	0	429	411	
7	0	0	0	0	429	411	
8	0	0	0	0	429	412	
9	0	0	0	0	430	412	
10	0	0	0	0	430	411	
11	0	0	0	0	430	411	
12	0	0	0	0	430	411	
13	0	0	0	0	430	411	
14	0	0	0	0	430	411	
15	0	0	0	0	430	411	
0	0	0	0	0	430	411	
1	0	0	0	0	430	412	
2	0	0	0	0	430	411	
3	0	0	0	0	430	411	
4	0	0	0	0	430	412	
5	0	0	0	0	431	411	
6	0	0	0	0	431	411	
7	0	0	0	0	432	412	
8	0	0	0	0	432	412	
9	0	0	0	0	432	412	
10	0	0	0	0	432	412	
11	0	0	0	0	432	412	
12	0	0	0	0	433	411	
13	0	0	0	0	433	411	
14	0	0	0	0	432	412	
15	0	0	0	0	431	411	
0	0	0	0	0	431	411	
1	0	0	0	0	431	413	
2	0	0	0	0	431	412	
3	0	0	0	0	431	412	
4	0	0	0	0	431	412	
5	0	0	0	0	432	411	
6	0	0	0	0	432	412	
7	0	0	0	0	432	412	
8	0	0	0	0	433	412	
9	0	0	0	0	434	412	
10	0	0	0	0	434	412	
11	0	0	0	0	434	412	
12	0	0	0	0	435	412	
13	0	0	0	0	435	412	
14	0	0	0	0	436	412	
15	0	0	0	0	436	412	
0	0	0	0	0	436	411	
1	0	0	0	0	436	413	
2	0	0	0	0	436	412	
3	0	0	0	0	436	411	
4	0	0	0	0	435	412	
5	0	0	0	0	435	412	
6	0	0	0	0	434	412	
7	0	0	0	0	435	412	
8	0	0	0	0	435	412	
9	0	0	0	0	436	412	
10	0	0	0	0	435	411	
11	0	0	0	0	436	411	
12	0	0	0	0	436	412	
13	0	0	0	0	436	412	
14	0	0	0	0	436	412	
15	0	0	0	0	436	411	
0	0	0	0	0	436	412	
1	0	0	0	0	436	412	
2	0	0	0	0	436	412	
3	0	0	0	0	437	412	
4	0	0	0	0	438	412	
5	0	0	0	0	438	411	
6	0	0	0	0	438	411	
7	0	0	0	0	439	412	
8	0	0	0	0	439	412	
9	0	0	0	0	440	412	
10	0	0	0	0	440	411	
11	0	0	0	0	439	412	
12	0	0	0	0	439	412	
13	0	0	0	0	440	411	
14	0	0	0	0	440	412	
15	0	0	0	0	440	412	
0	0	0	0	0	440	412	
1	0	0	0	0	440	413	
2	0	0	0	0	440	412	
3	0	0	0	0	440	412	
4	0	0	0	0	441	412	
5	0	0	0	0	442	412	
6	0	0	0	0	442	412	
7	0	0	0	0	441	412	
8	0	0	0	0	441	412	
9	0	0	0	0	441	412	
10	0	0	0	0	441	412	
11	0	0	0	0	440	413	
12	0	0	0	0	440	412	
13	0	0	0	0	441	412	
14	0	0	0	0	441	412	
15	0	0	0	0	441	412	
0	0	0	0	0	441	412	
1	0	0	0	0	442	413	
2	0	0	0	0	442	412	
3	0	0	0	0	443	412	
4	0	0	0	0	443	412	
5	0	0	0	0	444	411	
6	0	0	0	0	444	412	
7	0	0	0	0	443	412	
8	0	0	0	0	444	411	
9	0	0	0	0	445	412	
10	0	0	0	0	445	411	
11	0	0	0	0	446	411	
12	0	0	0	0	446	411	
13	0	0	0	0	446	411	
14	0	0	0	0	446	411	
15	0	0	0	0	446	410	
0	0	0	0	0	446	410	
1	0	0	0	0	446	411	
2	0	0	0	0	445	411	
3	0	0	0	0	445	411	
4	0	0	0	0	445	411	
5	0	0	0	0	446	411	
6	0	0	0	0	445	411	
7	0	0	0	0	445	410	
8	0	0	0	0	445	410	
9	0	0	0	0	445	411	
10	0	0	0	0	444	410	
11	0	0	0	0	444	411	
12	0	0	0	0	444	410	
13	0	0	0	0	444	411	
14	0	0	0	0	444	411	
15	0	0	0	0	444	411	
0	0	0	0	0	444	411	
1	0	0	0	0	445	412	
2	0	0	0	0	445	411	
3	0	0	0	0	445	411	
4	0	0	0	0	445	411	
5	0	0	0	0	446	410	
6	0	0	0	0	447	411	
7	0	0	0	0	448	411	
8	0	0	0	0	448	412	
9	0	0	0	0	448	412	
10	0	0	0	0	448	411	
11	0	0	0	0	449	411	
12	0	0	0	0	449	411	
13	0	0	0	0	449	411	
14	0	0	0	0	449	412	
15	0	0	0	0	449	412	
0	0	0	0	0	449	412	
1	0	0	0	0	449	412	
2	0	0	0	0	449	411	
3	0	0	0	0	450	412	
4	0	0	0	0	451	411	
5	0	0	0	0	451	411	
6	0	0	0	0	452	411	
7	0	0	0	0	453	412	
8	0	0	0	0	453	412	
9	0	0	0	0	455	412	
10	0	0	0	0	455	411	
11	0	0	0	0	455	412	
12	0	0	0	0	455	412	
13	0	0	0	0	455	412	
14	0	0	0	0	455	412	
15	0	0	0	0	455	411	
0	0	0	0	0	455	412	
1	0	0	0	0	454	412	
2	0	0	0	0	454	412	
3	0	0	0	0	454	412	
4	0	0	0	0	454	412	
5	0	0	0	0	454	412	
6	0	0	0	0	454	412	
7	0	0	0	0	453	412	
8	0	0	0	0	453	412	
9	0	0	0	0	453	413	
10	0	0	0	0	452	412	
11	0	0	0	0	452	412	
12	0	0	0	0	452	412	
13	0	0	0	0	452	411	
14	0	0	0	0	451	412	
15	0	0	0	0	451	411	
0	0	0	0	0	451	411	
1	0	0	0	0	451	412	
2	0	0	0	0	450	411	
3	0	0	0	0	449	411	
4	0	0	0	0	449	411	
5	0	0	0	0	448	411	
6	0	0	0	0	447	412	
7	0	0	0	0	447	412	
8	0	0	0	0	446	412	
9	0	0	0	0	445	412	
10	0	0	0	0	445	411	
11	0	0	0	0	444	412	
12	0	0	0	0	444	412	
13	0	0	0	0	444	412	
14	0	0	0	0	443	413	
15	0	0	0	0	443	413	
0	0	0	0	0	443	413	
1	0	0	0	0	442	414	
2	0	0	0	0	442	413	
3	0	0	0	0	441	412	
4	0	0	0	0	441	413	
5	0	0	0	0	440	412	
6	0	0	0	0	440	412	
7	0	0	0	0	441	413	
8	0	0	0	0	440	412	
9	0	0	0	0	440	413	
10	0	0	0	0	440	412	
11	0	0	0	0	439	412	
12	0	0	0	0	438	411	
13	0	0	0	0	438	412	
14	0	0	0	0	437	411	
15	0	0	0	0	436	411	
0	0	0	0	0	436	411	
1	0	0	0	0	436	412	
2	0	0	0	0	436	411	
3	0	0	0	0	437	411	
4	0	0	0	0	437	411	
5	0	0	0	0	437	410	
6	0	0	0	0	437	411	
7	0	0	0	0	436	411	
8	0	0	0	0	436	411	
9	0	0	0	0	436	411	
10	0	0	0	0	435	410	
11	0	0	0	0	435	410	
12	0	0	0	0	435	410	
13	0	0	0	0	435	410	
14	0	0	0	0	434	410	
15	0	0	0	0	434	411	
0	0	0	0	0	434	411	
1	0	0	0	0	434	411	
2	0	0	0	0	434	412	
3	0	0	0	0	434	411	
4	0	0	0	0	434	411	
5	0	0	0	0	434	412	
6	0	0	0	0	433	412	
7	0	0	0	0	433	412	
8	0	0	0	0	434	412	
9	0	0	0	0	435	412	
10	0	0	0	0	435	412	
11	0	0	0	0	436	411	
12	0	0	0	0	437	411	
13	0	0	0	0	438	411	
14	0	0	0	0	439	412	
15	0	0	0	0	439	412	
0	0	0	0	0	441	412	
1	0	0	0	0	442	412	
2	0	0	0	0	443	412	
3	0	0	0	0	443	411	
4	0	0	0	0	445	412	
5	0	0	0	0	446	411	
6	0	0	0	0	447	412	
7	0	0	0	0	448	412	
8	0	0	0	0	448	412	
9	0	0	0	0	447	413	
10	0	0	0	0	448	412	
11	0	0	0	0	448	412	
12	0	0	0	0	448	411	
13	0	0	0	0	449	411	
14	0	0	0	0	449	411	
15	0	0	0	0	450	411	
0	0	0	0	0	451	411	
1	0	0	0	0	452	411	
2	0	0	0	0	452	411	
3	0	0	0	0	453	411	
4	0	0	0	0	454	411	
5	0	0	0	0	454	410	
6	0	0	0	0	454	411	
7	0	0	0	0	454	411	
8	0	0	0	0	454	410	
9	0	0	0	0	454	411	
10	0	0	0	0	454	411	
11	0	0	0	0	455	411	
12	0	0	0	0	454	411	
13	0	0	0	0	455	411	
14	0	0	0	0	455	411	
15	0	0	0	0	455	411	
0	0	0	0	0	455	411	
1	0	0	0	0	455	412	
2	0	0	0	0	455	411	
3	0	0	0	0	454	412	
4	0	0	0	0	455	412	
5	0	0	0	0	455	412	
6	0	0	0	0	455	412	
7	0	0	0	0	455	412	
8	0	0	0	0	454	412	
9	0	0	0	0	453	412	
10	0	0	0	0	452	412	
11	0	0	0	0	451	412	
12	0	0	0	0	451	412	
13	0	0	0	0	450	412	
14	0	0	0	0	449	411	
15	0	0	0	0	449	412	
0	0	0	0	0	448	411	
1	0	0	0	0	448	412	
2	0	0	0	0	448	411	
3	0	0	0	0	448	411	
4	0	0	0	0	449	411	
5	0	0	0	0	448	411	
6	0	0	0	0	449	412	
7	0	0	0	0	449	411	
8	0	0	0	0	449	411	
9	0	0	0	0	450	412	
10	0	0	0	0	449	411	
11	0	0	0	0	450	411	
12	0	0	0	0	450	412	
13	0	0	0	0	449	411	
14	0	0	0	0	450	411	
15	0	0	0	0	449	412	
0	0	0	0	0	449	412	
1	0	0	0	0	449	412	
2	0	0	0	0	448	412	
3	0	0	0	0	448	412	
4	0	0	0	0	448	412	
5	0	0	0	0	449	412	
6	0	0	0	0	449	412	
7	0	0	0	0	449	412	
8	0	0	0	0	448	412	
9	0	0	0	0	448	413	
10	0	0	0	0	448	412	
11	0	0	0	0	448	412	
12	0	0	0	0	448	412	
13	0	0	0	0	448	411	
14	0	0	0	0	448	411	
15	0	0	0	0	449	411	
0	0	0	0	0	449	412	
1	0	0	0	0	449	412	
2	0	0	0	0	449	411	
3	0	0	0	0	449	411	
4	0	0	0	0	449	411	
5	0	0	0	0	449	411	
6	0	0	0	0	449	411	
7	0	0	0	0	450	412	
8	0	0	0	0	450	411	
9	0	0	0	0	450	412	
10	0	0	0	0	450	411	
11	0	0	0	0	450	411	
12	0	0	0	0	450	412	
13	0	0	0	0	450	411	
14	0	0	0	0	449	411	
15	0	0	0	0	450	412	
0	0	0	0	0	449	411	
1	0	0	0	0	449	412	
2	0	0	0	0	449	411	
3	0	0	0	0	449	412	
4	0	0	0	0	449	411	
5	0	0	0	0	449	411	
6	0	0	0	0	450	411	
7	0	0	0	0	449	412	
8	0	0	0	0	450	412	
9	0	0	0	0	450	412	
10	0	0	0	0	450	411	
11	0	0	0	0	450	411	
12	0	0	0	0	451	412	
13	0	0	0	0	451	411	
14	0	0	0	0	451	411	
15	0	0	0	0	450	412	
0	0	0	0	0	451	412	
1	0	0	0	0	451	412	
2	0	0	0	0	451	411	
3	0	0	0	0	450	412	
4	0	0	0	0	451	412	
5	0	0	0	0	451	411	
6	0	0	0	0	452	411	
7	0	0	0	0	452	412	
8	0	0	0	0	453	411	
9	0	0	0	0	453	412	
10	0	0	0	0	453	411	
11	0	0	0	0	453	411	
12	0	0	0	0	453	411	
13	0	0	0	0	454	411	
14	0	0	0	0	454	412	
15	0	0	0	0	454	411	
0	0	0	0	0	455	411	
1	0	0	0	0	455	412	
2	0	0	0	0	455	412	
3	0	0	0	0	454	412	
4	0	0	0	0	452	412	
5	0	0	0	0	449	412	
6	0	0	0	0	446	412	
7	0	0	0	0	442	412	
8	0	0	0	0	437	412	
9	0	0	0	0	432	412	
10	0	0	0	0	428	412	
11	0	0	0	0	423	412	
12	0	0	0	0	420	412	
13	0	0	0	0	416	412	
14	0	0	0	0	414	412	
15	0	0	0	0	411	412	
0	0	0	0	0	409	412	
1	0	0	0	0	410	414	
2	0	0	0	0	413	412	
3	0	0	0	0	418	412	
4	0	0	0	0	424	412	
5	0	0	0	0	432	412	
6	0	0	0	0	443	412	
7	0	0	0	0	454	412	
8	0	0	0	0	465	412	
9	0	0	0	0	477	413	
10	0	0	0	0	489	412	
11	0	0	0	0	502	411	
12	0	0	0	0	519	411	
13	0	0	0	0	536	411	
14	0	0	0	0	555	412	
15	0	0	0	0	574	412	
0	0	0	0	0	593	412	
1	0	0	0	0	615	412	
2	0	0	0	0	637	411	
3	0	0	0	0	663	411	
4	0	0	0	0	689	412	
5	0	0	0	0	715	411	
6	0	0	0	0	738	412	
7	0	0	0	0	760	410	
8	0	0	0	0	778	410	
9	0	0	0	0	792	412	
10	0	0	0	0	801	411	
11	0	0	0	0	809	410	
12	0	0	0	0	816	411	
13	0	0	0	0	821	410	
14	0	0	0	0	825	412	
15	0	0	0	0	829	411	
0	0	0	0	0	830	412	
1	0	0	0	0	828	412	
2	0	0	0	0	821	411	
3	0	0	0	0	811	412	
4	0	0	0	0	794	411	
5	0	0	0	0	771	412	
6	0	0	0	0	743	412	
7	0	0	0	0	715	411	
8	0	0	0	0	685	412	
9	0	0	0	0	654	412	
10	0	0	0	0	621	412	
11	0	0	0	0	588	411	
12	0	0	0	0	554	412	
13	0	0	0	0	523	411	
14	0	0	0	0	494	411	
15	0	0	0	0	469	411	
0	0	0	0	0	448	411	
1	0	0	0	0	430	412	
2	0	0	0	0	417	411	
3	0	0	0	0	407	411	
4	0	0	0	0	399	411	
5	0	0	0	0	392	411	
6	0	0	0	0	387	411	
7	0	0	0	0	381	411	
8	0	0	0	0	376	411	
9	0	0	0	0	372	411	
10	0	0	0	0	369	411	
11	0	0	0	0	366	411	
12	0	0	0	0	364	410	
13	0	0	0	0	361	410	
14	0	0	0	0	359	410	
15	0	0	0	0	356	411	
0	0	0	0	0	354	410	
1	0	0	0	0	352	411	
2	0	0	0	0	351	411	
3	0	0	0	0	350	411	
4	0	0	0	0	349	411	
5	0	0	0	0	349	411	
6	0	0	0	0	350	412	
7	0	0	0	0	350	411	
8	0	0	0	0	350	412	
9	0	0	0	0	350	413	
10	0	0	0	0	350	412	
11	0	0	0	0	351	412	
12	0	0	0	0	352	412	
13	0	0	0	0	353	412	
14	0	0	0	0	354	412	
15	0	0	0	0	355	412	
0	0	0	0	0	356	412	
1	0	0	0	0	356	414	
2	0	0	0	0	357	413	
3	0	0	0	0	358	413	
4	0	0	0	0	359	413	
5	0	0	0	0	359	412	
6	0	0	0	0	360	412	
7	0	0	0	0	361	412	
8	0	0	0	0	363	412	
9	0	0	0	0	363	413	
10	0	0	0	0	364	412	
11	0	0	0	0	366	412	
12	0	0	0	0	367	412	
13	0	0	0	0	368	411	
14	0	0	0	0	368	412	
15	0	0	0	0	369	411	
0	0	0	0	0	369	412	
1	0	0	0	0	369	412	
2	0	0	0	0	371	411	
3	0	0	0	0	371	411	
4	0	0	0	0	371	412	
5	0	0	0	0	372	411	
6	0	0	0	0	373	411	
7	0	0	0	0	373	411	
8	0	0	0	0	374	411	
9	0	0	0	0	375	412	
10	0	0	0	0	376	412	
11	0	0	0	0	376	411	
12	0	0	0	0	376	411	
13	0	0	0	0	376	411	
14	0	0	0	0	376	412	
15	0	0	0	0	376	412	
0	0	0	0	0	377	412	
1	0	0	0	0	377	412	
2	0	0	0	0	377	412	
3	0	0	0	0	379	411	
4	0	0	0	0	379	412	
5	0	0	0	0	380	411	
6	0	0	0	0	380	411	
7	0	0	0	0	381	411	
8	0	0	0	0	382	412	
9	0	0	0	0	382	412	
10	0	0	0	0	382	411	
11	0	0	0	0	383	411	
12	0	0	0	0	384	411	
13	0	0	0	0	384	411	
14	0	0	0	0	386	411	
15	0	0	0	0	387	411	
0	0	0	0	0	388	410	
1	0	0	0	0	388	412	
2	0	0	0	0	389	411	
3	0	0	0	0	390	411	
4	0	0	0	0	390	410	
5	0	0	0	0	391	410	
6	0	0	0	0	391	411	
7	0	0	0	0	392	411	
8	0	0	0	0	393	411	
9	0	0	0	0	393	412	
10	0	0	0	0	394	411	
11	0	0	0	0	394	411	
12	0	0	0	0	395	411	
13	0	0	0	0	395	411	
14	0	0	0	0	395	411	
15	0	0	0	0	395	411	
0	0	0	0	0	395	411	
1	0	0	0	0	395	412	
2	0	0	0	0	395	411	
3	0	0	0	0	395	411	
4	0	0	0	0	396	412	
5	0	0	0	0	396	412	
6	0	0	0	0	398	412	
7	0	0	0	0	398	411	
8	0	0	0	0	399	412	
9	0	0	0	0	399	412	
10	0	0	0	0	399	411	
11	0	0	0	0	399	411	
12	0	0	0	0	400	411	
13	0	0	0	0	401	411	
14	0	0	0	0	402	411	
15	0	0	0	0	402	411	
0	0	0	0	0	403	411	
1	0	0	0	0	404	412	
2	0	0	0	0	405	411	
3	0	0	0	0	406	412	
4	0	0	0	0	407	412	
5	0	0	0	0	408	411	
6	0	0	0	0	408	412	
7	0	0	0	0	410	411	
8	0	0	0	0	411	411	
9	0	0	0	0	411	412	
10	0	0	0	0	412	411	
11	0	0	0	0	413	412	
12	0	0	0	0	414	412	
13	0	0	0	0	415	411	
14	0	0	0	0	415	412	
15	0	0	0	0	416	412	
0	0	0	0	0	417	412	
1	0	0	0	0	418	413	
2	0	0	0	0	419	412	
3	0	0	0	0	421	412	
4	0	0	0	0	422	412	
5	0	0	0	0	424	412	
6	0	0	0	0	425	412	
7	0	0	0	0	427	412	
8	0	0	0	0	428	412	
9	0	0	0	0	429	412	
10	0	0	0	0	430	412	
11	0	0	0	0	431	411	
12	0	0	0	0	432	412	
13	0	0	0	0	432	411	
14	0	0	0	0	433	412	
15	0	0	0	0	435	412	
0	0	0	0	0	435	412	
1	0	0	0	0	436	413	
2	0	0	0	0	437	412	
3	0	0	0	0	437	412	
4	0	0	0	0	438	411	
5	0	0	0	0	440	411	
6	0	0	0	0	440	412	
7	0	0	0	0	441	412	
8	0	0	0	0	443	412	
9	0	0	0	0	444	412	
10	0	0	0	0	445	411	
11	0	0	0	0	446	411	
12	0	0	0	0	446	411	
13	0	0	0	0	446	410	
14	0	0	0	0	447	411	
15	0	0	0	0	447	410	
0	0	0	0	0	448	410	
1	0	0	0	0	449	411	
2	0	0	0	0	450	410	
3	0	0	0	0	451	410	
4	0	0	0	0	451	410	
5	0	0	0	0	452	409	
6	0	0	0	0	453	409	
7	0	0	0	0	454	410	
8	0	0	0	0	455	409	
9	0	0	0	0	455	411	
10	0	0	0	0	456	410	
11	0	0	0	0	457	410	
12	0	0	0	0	458	410	
13	0	0	0	0	459	410	
14	0	0	0	0	459	410	
15	0	0	0	0	460	410	
0	0	0	0	0	462	410	
1	0	0	0	0	462	411	
2	0	0	0	0	463	411	
3	0	0	0	0	464	411	
4	0	0	0	0	465	412	
5	0	0	0	0	465	411	
6	0	0	0	0	466	411	
7	0	0	0	0	467	411	
8	0	0	0	0	467	411	
9	0	0	0	0	467	412	
10	0	0	0	0	467	412	
11	0	0	0	0	467	412	
12	0	0	0	0	468	412	
13	0	0	0	0	468	412	
14	0	0	0	0	469	412	
15	0	0	0	0	470	412	
0	0	0	0	0	470	412	
1	0	0	0	0	471	413	
2	0	0	0	0	471	412	
3	0	0	0	0	472	412	
4	0	0	0	0	472	413	
5	0	0	0	0	472	413	
6	0	0	0	0	473	413	
7	0	0	0	0	473	414	
8	0	0	0	0	474	413	
9	0	0	0	0	474	414	
10	0	0	0	0	475	413	
11	0	0	0	0	475	413	
12	0	0	0	0	476	413	
13	0	0	0	0	476	412	
14	0	0	0	0	478	412	
15	0	0	0	0	478	413	
0	0	0	0	0	479	413	
1	0	0	0	0	479	413	
2	0	0	0	0	480	412	
3	0	0	0	0	480	413	
4	0	0	0	0	480	413	
5	0	0	0	0	481	412	
6	0	0	0	0	482	412	
7	0	0	0	0	482	412	
8	0	0	0	0	482	412	
9	0	0	0	0	482	413	
10	0	0	0	0	482	411	
11	0	0	0	0	482	412	
12	0	0	0	0	482	412	
13	0	0	0	0	482	411	
14	0	0	0	0	482	412	
15	0	0	0	0	481	412	
0	0	0	0	0	482	412	
1	0	0	0	0	482	412	
2	0	0	0	0	482	411	
3	0	0	0	0	482	411	
4	0	0	0	0	482	411	
5	0	0	0	0	482	411	
6	0	0	0	0	483	411	
7	0	0	0	0	484	412	
8	0	0	0	0	484	411	
9	0	0	0	0	484	412	
10	0	0	0	0	485	411	
11	0	0	0	0	485	411	
12	0	0	0	0	484	411	
13	0	0	0	0	485	412	
14	0	0	0	0	486	412	
15	0	0	0	0	486	412	
0	0	0	0	0	486	412	
1	0	0	0	0	486	412	
2	0	0	0	0	485	411	
3	0	0	0	0	485	412	
4	0	0	0	0	485	412	
5	0	0	0	0	484	411	
6	0	0	0	0	484	411	
7	0	0	0	0	483	411	
8	0	0	0	0	483	412	
9	0	0	0	0	482	413	
10	0	0	0	0	482	412	
11	0	0	0	0	483	412	
12	0	0	0	0	483	412	
13	0	0	0	0	484	411	
14	0	0	0	0	483	412	
15	0	0	0	0	483	412	
0	0	0	0	0	483	412	
1	0	0	0	0	482	413	
2	0	0	0	0	483	412	
3	0	0	0	0	482	412	
4	0	0	0	0	482	411	
5	0	0	0	0	482	411	
6	0	0	0	0	482	412	
7	0	0	0	0	482	412	
8	0	0	0	0	482	412	
9	0	0	0	0	483	412	
10	0	0	0	0	482	411	
11	0	0	0	0	483	411	
12	0	0	0	0	483	411	
13	0	0	0	0	483	410	
14	0	0	0	0	483	411	
15	0	0	0	0	483	411	
0	0	0	0	0	483	411	
1	0	0	0	0	483	413	
2	0	0	0	0	483	412	
3	0	0	0	0	483	411	
4	0	0	0	0	483	412	
5	0	0	0	0	483	411	
6	0	0	0	0	483	411	
7	0	0	0	0	484	412	
8	0	0	0	0	484	412	
9	0	0	0	0	484	412	
10	0	0	0	0	486	412	
11	0	0	0	0	486	412	
12	0	0	0	0	487	412	
13	0	0	0	0	487	412	
14	0	0	0	0	488	413	
15	0	0	0	0	488	412	
0	0	0	0	0	488	412	
1	0	0	0	0	489	413	
2	0	0	0	0	490	412	
3	0	0	0	0	491	412	
4	0	0	0	0	491	412	
5	0	0	0	0	491	412	
6	0	0	0	0	492	412	
7	0	0	0	0	492	412	
8	0	0	0	0	492	412	
9	0	0	0	0	492	413	
10	0	0	0	0	492	412	
11	0	0	0	0	492	412	
12	0	0	0	0	492	412	
13	0	0	0	0	492	412	
14	0	0	0	0	492	413	
15	0	0	0	0	493	412	
0	0	0	0	0	492	412	
1	0	0	0	0	492	412	
2	0	0	0	0	492	412	
3	0	0	0	0	493	411	
4	0	0	0	0	494	411	
5	0	0	0	0	494	411	
6	0	0	0	0	494	411	
7	0	0	0	0	494	410	
8	0	0	0	0	494	411	
9	0	0	0	0	494	411	
10	0	0	0	0	493	410	
11	0	0	0	0	494	410	
12	0	0	0	0	494	410	
13	0	0	0	0	494	409	
14	0	0	0	0	494	410	
15	0	0	0	0	495	410	
0	0	0	0	0	495	410	
1	0	0	0	0	496	411	
2	0	0	0	0	496	410	
3	0	0	0	0	496	411	
4	0	0	0	0	496	411	
5	0	0	0	0	496	411	
6	0	0	0	0	496	411	
7	0	0	0	0	496	412	
8	0	0	0	0	497	413	
9	0	0	0	0	497	413	
10	0	0	0	0	497	413	
11	0	0	0	0	497	413	
12	0	0	0	0	497	413	
13	0	0	0	0	498	413	
14	0	0	0	0	499	414	
15	0	0	0	0	499	413	
0	0	0	0	0	499	413	
1	0	0	0	0	499	414	
2	0	0	0	0	499	413	
3	0	0	0	0	499	413	
4	0	0	0	0	500	412	
5	0	0	0	0	499	411	
6	0	0	0	0	499	412	
7	0	0	0	0	499	412	
8	0	0	0	0	499	411	
9	0	0	0	0	500	412	
10	0	0	0	0	500	411	
11	0	0	0	0	499	410	
12	0	0	0	0	499	411	
13	0	0	0	0	499	409	
14	0	0	0	0	499	410	
15	0	0	0	0	499	410	
0	0	0	0	0	499	410	
1	0	0	0	0	499	411	
2	0	0	0	0	499	410	
3	0	0	0	0	499	410	
4	0	0	0	0	499	410	
5	0	0	0	0	500	411	
6	0	0	0	0	501	411	
7	0	0	0	0	500	411	
8	0	0	0	0	501	412	
9	0	0	0	0	502	411	
10	0	0	0	0	502	411	
11	0	0	0	0	503	412	
12	0	0	0	0	503	412	
13	0	0	0	0	503	412	
14	0	0	0	0	503	412	
15	0	0	0	0	504	412	
0	0	0	0	0	504	412	
1	0	0	0	0	505	413	
2	0	0	0	0	505	413	
3	0	0	0	0	505	413	
4	0	0	0	0	506	413	
5	0	0	0	0	506	412	
6	0	0	0	0	507	412	
7	0	0	0	0	507	413	
8	0	0	0	0	508	413	
9	0	0	0	0	508	413	
10	0	0	0	0	508	413	
11	0	0	0	0	508	412	
12	0	0	0	0	509	412	
13	0	0	0	0	510	412	
14	0	0	0	0	510	412	
15	0	0	0	0	510	412	
0	0	0	0	0	510	411	
1	0	0	0	0	510	412	
2	0	0	0	0	510	412	
3	0	0	0	0	510	411	
4	0	0	0	0	511	412	
5	0	0	0	0	512	411	
6	0	0	0	0	511	411	
7	0	0	0	0	512	411	
8	0	0	0	0	512	411	
9	0	0	0	0	512	412	
10	0	0	0	0	513	411	
11	0	0	0	0	512	411	
12	0	0	0	0	512	411	
13	0	0	0	0	512	411	
14	0	0	0	0	512	411	
15	0	0	0	0	512	411	
0	0	0	0	0	512	411	
1	0	0	0	0	512	412	
2	0	0	0	0	512	411	
3	0	0	0	0	512	411	
4	0	0	0	0	512	411	
5	0	0	0	0	513	411	
6	0	0	0	0	513	412	
7	0	0	0	0	512	412	
8	0	0	0	0	512	412	
9	0	0	0	0	513	412	
10	0	0	0	0	513	412	
11	0	0	0	0	513	411	
12	0	0	0	0	513	411	
13	0	0	0	0	514	411	
14	0	0	0	0	514	410	
15	0	0	0	0	513	411	
0	0	0	0	0	513	411	
1	0	0	0	0	514	412	
2	0	0	0	0	514	411	
3	0	0	0	0	514	412	
4	0	0	0	0	514	411	
5	0	0	0	0	515	411	
6	0	0	0	0	515	411	
7	0	0	0	0	515	412	
8	0	0	0	0	515	411	
9	0	0	0	0	516	412	
10	0	0	0	0	516	411	
11	0	0	0	0	516	411	
12	0	0	0	0	518	412	
13	0	0	0	0	518	410	
14	0	0	0	0	518	411	
15	0	0	0	0	518	411	
0	0	0	0	0	519	411	
1	0	0	0	0	519	411	
2	0	0	0	0	520	411	
3	0	0	0	0	520	411	
4	0	0	0	0	521	411	
5	0	0	0	0	521	411	
6	0	0	0	0	520	411	
7	0	0	0	0	520	411	
8	0	0	0	0	521	411	
9	0	0	0	0	521	412	
10	0	0	0	0	521	411	
11	0	0	0	0	521	411	
12	0	0	0	0	520	411	
13	0	0	0	0	520	411	
14	0	0	0	0	520	411	
15	0	0	0	0	520	411	
0	0	0	0	0	519	411	
1	0	0	0	0	520	412	
2	0	0	0	0	520	411	
3	0	0	0	0	520	411	
4	0	0	0	0	520	411	
5	0	0	0	0	519	411	
6	0	0	0	0	519	412	
7	0	0	0	0	519	411	
8	0	0	0	0	519	411	
9	0	0	0	0	519	412	
10	0	0	0	0	519	411	
11	0	0	0	0	519	411	
12	0	0	0	0	519	411	
13	0	0	0	0	518	411	
14	0	0	0	0	518	412	
15	0	0	0	0	518	412	
0	0	0	0	0	518	412	
1	0	0	0	0	518	412	
2	0	0	0	0	518	412	
3	0	0	0	0	518	412	
4	0	0	0	0	518	412	
5	0	0	0	0	517	412	
6	0	0	0	0	517	412	
7	0	0	0	0	516	412	
8	0	0	0	0	515	412	
9	0	0	0	0	514	412	
10	0	0	0	0	514	412	
11	0	0	0	0	513	412	
12	0	0	0	0	512	411	
13	0	0	0	0	512	411	
14	0	0	0	0	512	412	
15	0	0	0	0	511	412	
0	0	0	0	0	511	412	
1	0	0	0	0	511	413	
2	0	0	0	0	511	412	
3	0	0	0	0	510	411	
4	0	0	0	0	510	412	
5	0	0	0	0	510	411	
6	0	0	0	0	510	412	
7	0	0	0	0	510	412	
8	0	0	0	0	510	412	
9	0	0	0	0	510	412	
10	0	0	0	0	510	412	
11	0	0	0	0	510	411	
12	0	0	0	0	510	412	
13	0	0	0	0	509	411	
14	0	0	0	0	509	411	
15	0	0	0	0	509	411	
0	0	0	0	0	508	411	
1	0	0	0	0	508	412	
2	0	0	0	0	508	412	
3	0	0	0	0	508	412	
4	0	0	0	0	509	412	
5	0	0	0	0	509	412	
6	0	0	0	0	510	412	
7	0	0	0	0	510	412	
8	0	0	0	0	511	412	
9	0	0	0	0	511	412	
10	0	0	0	0	511	412	
11	0	0	0	0	511	412	
12	0	0	0	0	511	412	
13	0	0	0	0	512	411	
14	0	0	0	0	513	412	
15	0	0	0	0	513	412	
0	0	0	0	0	514	412	
1	0	0	0	0	513	412	
2	0	0	0	0	513	411	
3	0	0	0	0	513	411	
4	0	0	0	0	513	411	
5	0	0	0	0	513	411	
6	0	0	0	0	513	412	
7	0	0	0	0	514	412	
8	0	0	0	0	514	411	
9	0	0	0	0	513	412	
10	0	0	0	0	513	412	
11	0	0	0	0	514	412	
12	0	0	0	0	515	412	
13	0	0	0	0	515	412	
14	0	0	0	0	514	412	
15	0	0	0	0	515	412	
0	0	0	0	0	515	411	
1	0	0	0	0	516	412	
2	0	0	0	0	516	411	
3	0	0	0	0	516	411	
4	0	0	0	0	517	412	
5	0	0	0	0	517	411	
6	0	0	0	0	517	411	
7	0	0	0	0	517	411	
8	0	0	0	0	517	411	
9	0	0	0	0	517	412	
10	0	0	0	0	518	411	
11	0	0	0	0	518	411	
12	0	0	0	0	518	412	
13	0	0	0	0	517	411	
14	0	0	0	0	518	412	
15	0	0	0	0	518	412	
0	0	0	0	0	519	411	
1	0	0	0	0	519	413	
2	0	0	0	0	519	412	
3	0	0	0	0	519	412	
4	0	0	0	0	519	412	
5	0	0	0	0	518	411	
6	0	0	0	0	519	411	
7	0	0	0	0	518	411	
8	0	0	0	0	518	412	
9	0	0	0	0	518	413	
10	0	0	0	0	518	411	
11	0	0	0	0	516	411	
12	0	0	0	0	516	412	
13	0	0	0	0	516	411	
14	0	0	0	0	515	411	
15	0	0	0	0	515	412	
0	0	0	0	0	515	411	
1	0	0	0	0	515	412	
2	0	0	0	0	515	411	
3	0	0	0	0	516	411	
4	0	0	0	0	516	412	
5	0	0	0	0	517	410	
6	0	0	0	0	517	411	
7	0	0	0	0	518	412	
8	0	0	0	0	519	411	
9	0	0	0	0	520	412	
10	0	0	0	0	521	411	
11	0	0	0	0	521	411	
12	0	0	0	0	522	411	
13	0	0	0	0	523	411	
14	0	0	0	0	523	411	
15	0	0	0	0	524	411	
0	0	0	0	0	525	411	
1	0	0	0	0	526	412	
2	0	0	0	0	526	411	
3	0	0	0	0	526	411	
4	0	0	0	0	527	412	
5	0	0	0	0	527	411	
6	0	0	0	0	527	412	
7	0	0	0	0	528	412	
8	0	0	0	0	528	411	
9	0	0	0	0	528	413	
10	0	0	0	0	529	412	
11	0	0	0	0	529	412	
12	0	0	0	0	529	412	
13	0	0	0	0	530	412	
14	0	0	0	0	530	412	
15	0	0	0	0	531	411	
0	0	0	0	0	531	411	
1	0	0	0	0	531	412	
2	0	0	0	0	532	412	
3	0	0	0	0	533	411	
4	0	0	0	0	532	411	
5	0	0	0	0	533	411	
6	0	0	0	0	533	411	
7	0	0	0	0	534	411	
8	0	0	0	0	534	411	
9	0	0	0	0	535	412	
10	0	0	0	0	535	411	
11	0	0	0	0	535	411	
12	0	0	0	0	535	412	
13	0	0	0	0	534	410	
14	0	0	0	0	535	412	
15	0	0	0	0	535	412	
0	0	0	0	0	534	412	
1	0	0	0	0	534	412	
2	0	0	0	0	534	411	
3	0	0	0	0	535	411	
4	0	0	0	0	535	411	
5	0	0	0	0	535	411	
6	0	0	0	0	535	412	
7	0	0	0	0	536	412	
8	0	0	0	0	535	411	
9	0	0	0	0	535	412	
10	0	0	0	0	535	412	
11	0	0	0	0	534	412	
12	0	0	0	0	535	411	
13	0	0	0	0	535	411	
14	0	0	0	0	535	412	
15	0	0	0	0	535	412	
0	0	0	0	0	536	412	
1	0	0	0	0	536	412	
2	0	0	0	0	536	412	
3	0	0	0	0	536	412	
4	0	0	0	0	537	412	
5	0	0	0	0	537	412	
6	0	0	0	0	537	412	
7	0	0	0	0	538	412	
8	0	0	0	0	538	411	
9	0	0	0	0	538	413	
10	0	0	0	0	537	412	
11	0	0	0	0	538	411	
12	0	0	0	0	537	412	
13	0	0	0	0	537	411	
14	0	0	0	0	537	412	
15	0	0	0	0	537	412	
0	0	0	0	0	537	412	
1	0	0	0	0	536	412	
2	0	0	0	0	536	412	
3	0	0	0	0	536	412	
4	0	0	0	0	535	411	
5	0	0	0	0	535	411	
6	0	0	0	0	535	412	
7	0	0	0	0	536	411	
8	0	0	0	0	535	411	
9	0	0	0	0	535	412	
10	0	0	0	0	535	411	
11	0	0	0	0	534	411	
12	0	0	0	0	534	411	
13	0	0	0	0	534	411	
14	0	0	0	0	534	411	
15	0	0	0	0	534	411	
0	0	0	0	0	533	411	
1	0	0	0	0	534	411	
2	0	0	0	0	534	410	
3	0	0	0	0	534	411	
4	0	0	0	0	534	411	
5	0	0	0	0	535	410	
6	0	0	0	0	535	411	
7	0	0	0	0	536	411	
8	0	0	0	0	536	411	
9	0	0	0	0	536	411	
10	0	0	0	0	536	411	
11	0	0	0	0	537	411	
12	0	0	0	0	537	412	
13	0	0	0	0	538	411	
14	0	0	0	0	537	411	
15	0	0	0	0	537	411	
0	0	0	0	0	537	411	
1	0	0	0	0	538	412	
2	0	0	0	0	539	411	
3	0	0	0	0	539	411	
4	0	0	0	0	540	411	
5	0	0	0	0	540	411	
6	0	0	0	0	542	411	
7	0	0	0	0	542	411	
8	0	0	0	0	543	411	
9	0	0	0	0	544	413	
10	0	0	0	0	545	412	
11	0	0	0	0	547	412	
12	0	0	0	0	548	412	
13	0	0	0	0	548	412	
14	0	0	0	0	550	412	
15	0	0	0	0	551	412	
0	0	0	0	0	551	412	
1	0	0	0	0	552	413	
2	0	0	0	0	554	412	
3	0	0	0	0	555	412	
4	0	0	0	0	555	412	
5	0	0	0	0	556	412	
6	0	0	0	0	556	412	
7	0	0	0	0	557	412	
8	0	0	0	0	557	413	
9	0	0	0	0	558	413	
10	0	0	0	0	558	412	
11	0	0	0	0	559	412	
12	0	0	0	0	559	412	
13	0	0	0	0	559	412	
14	0	0	0	0	558	411	
15	0	0	0	0	556	412	
0	0	0	0	0	554	412	
1	0	0	0	0	551	412	
2	0	0	0	0	547	412	
3	0	0	0	0	543	412	
4	0	0	0	0	540	412	
5	0	0	0	0	537	412	
6	0	0	0	0	534	411	
7	0	0	0	0	531	412	
8	0	0	0	0	529	412	
9	0	0	0	0	527	413	
10	0	0	0	0	526	412	
11	0	0	0	0	527	412	
12	0	0	0	0	528	412	
13	0	0	0	0	532	412	
14	0	0	0	0	537	412	
15	0	0	0	0	544	412	
0	0	0	0	0	553	411	
1	0	0	0	0	563	412	
2	0	0	0	0	573	412	
3	0	0	0	0	584	412	
4	0	0	0	0	595	412	
5	0	0	0	0	607	411	
6	0	0	0	0	622	412	
7	0	0	0	0	639	412	
8	0	0	0	0	656	412	
9	0	0	0	0	674	412	
10	0	0	0	0	694	411	
11	0	0	0	0	716	411	
12	0	0	0	0	738	411	
13	0	0	0	0	763	411	
14	0	0	0	0	789	410	
15	0	0	0	0	814	410	
0	0	0	0	0	836	410	
1	0	0	0	0	857	411	
2	0	0	0	0	876	411	
3	0	0	0	0	892	411	
4	0	0	0	0	903	410	
5	0	0	0	0	911	410	
6	0	0	0	0	918	410	
7	0	0	0	0	923	410	
8	0	0	0	0	927	411	
9	0	0	0	0	928	411	
10	0	0	0	0	928	410	
11	0	0	0	0	928	409	
12	0	0	0	0	924	411	
13	0	0	0	0	915	410	
14	0	0	0	0	902	411	
15	0	0	0	0	884	411	
0	0	0	0	0	860	411	
1	0	0	0	0	833	412	
2	0	0	0	0	806	411	
3	0	0	0	0	777	411	
4	0	0	0	0	747	411	
5	0	0	0	0	716	411	
6	0	0	0	0	683	411	
7	0	0	0	0	652	412	
8	0	0	0	0	622	412	
9	0	0	0	0	595	412	
10	0	0	0	0	571	411	
11	0	0	0	0	550	411	
12	0	0	0	0	533	412	
13	0	0	0	0	519	411	
14	0	0	0	0	508	411	
15	0	0	0	0	500	411	
0	0	0	0	0	492	411	
1	0	0	0	0	487	412	
2	0	0	0	0	481	411	
3	0	0	0	0	476	411	
4	0	0	0	0	472	411	
5	0	0	0	0	468	412	
6	0	0	0	0	464	412	
7	0	0	0	0	462	412	
8	0	0	0	0	458	412	
9	0	0	0	0	456	412	
10	0	0	0	0	455	412	
11	0	0	0	0	453	412	
12	0	0	0	0	451	412	
13	0	0	0	0	450	412	
14	0	0	0	0	449	412	
15	0	0	0	0	448	412	
0	0	0	0	0	447	412	
1	0	0	0	0	447	413	
2	0	0	0	0	448	412	
3	0	0	0	0	448	412	
4	0	0	0	0	448	412	
5	0	0	0	0	448	411	
6	0	0	0	0	448	411	
7	0	0	0	0	448	412	
8	0	0	0	0	448	412	
9	0	0	0	0	448	413	
10	0	0	0	0	449	413	
11	0	0	0	0	449	412	
12	0	0	0	0	449	412	
13	0	0	0	0	449	412	
14	0	0	0	0	449	412	
15	0	0	0	0	449	412	
0	0	0	0	0	450	412	
1	0	0	0	0	449	412	
2	0	0	0	0	450	412	
3	0	0	0	0	451	412	
4	0	0	0	0	451	412	
5	0	0	0	0	453	412	
6	0	0	0	0	453	412	
7	0	0	0	0	453	412	
8	0	0	0	0	454	412	
9	0	0	0	0	454	413	
10	0	0	0	0	455	412	
11	0	0	0	0	455	412	
12	0	0	0	0	457	412	
13	0	0	0	0	458	412	
14	0	0	0	0	459	412	
15	0	0	0	0	460	412	
0	0	0	0	0	460	412	
1	0	0	0	0	461	412	
2	0	0	0	0	462	411	
3	0	0	0	0	463	412	
4	0	0	0	0	463	411	
5	0	0	0	0	464	412	
6	0	0	0	0	464	412	
7	0	0	0	0	464	412	
8	0	0	0	0	465	412	
9	0	0	0	0	466	412	
10	0	0	0	0	467	411	
11	0	0	0	0	467	412	
12	0	0	0	0	469	412	
13	0	0	0	0	470	411	
14	0	0	0	0	471	412	
15	0	0	0	0	472	412	
0	0	0	0	0	473	412	
1	0	0	0	0	474	412	
2	0	0	0	0	475	411	
3	0	0	0	0	476	411	
4	0	0	0	0	476	412	
5	0	0	0	0	477	411	
6	0	0	0	0	479	411	
7	0	0	0	0	479	411	
8	0	0	0	0	479	411	
9	0	0	0	0	480	411	
10	0	0	0	0	481	411	
11	0	0	0	0	482	411	
12	0	0	0	0	483	410	
13	0	0	0	0	483	410	
14	0	0	0	0	483	410	
15	0	0	0	0	484	411	
0	0	0	0	0	485	411	
1	0	0	0	0	485	411	
2	0	0	0	0	485	411	
3	0	0	0	0	485	411	
4	0	0	0	0	486	411	
5	0	0	0	0	486	410	
6	0	0	0	0	486	411	
7	0	0	0	0	487	411	
8	0	0	0	0	487	411	
9	0	0	0	0	488	411	
10	0	0	0	0	489	411	
11	0	0	0	0	489	411	
12	0	0	0	0	490	412	
13	0	0	0	0	491	411	
14	0	0	0	0	491	412	
15	0	0	0	0	491	412	
0	0	0	0	0	492	412	
1	0	0	0	0	493	412	
2	0	0	0	0	493	412	
3	0	0	0	0	495	413	
4	0	0	0	0	495	412	
5	0	0	0	0	496	412	
6	0	0	0	0	496	412	
7	0	0	0	0	496	412	
8	0	0	0	0	498	412	
9	0	0	0	0	498	414	
10	0	0	0	0	499	412	
11	0	0	0	0	500	412	
12	0	0	0	0	501	412	
13	0	0	0	0	502	412	
14	0	0	0	0	503	412	
15	0	0	0	0	504	412	
0	0	0	0	0	504	412	
1	0	0	0	0	505	413	
2	0	0	0	0	505	412	
3	0	0	0	0	506	411	
4	0	0	0	0	506	411	
5	0	0	0	0	506	411	
6	0	0	0	0	507	411	
7	0	0	0	0	508	412	
8	0	0	0	0	508	412	
9	0	0	0	0	508	412	
10	0	0	0	0	508	411	
11	0	0	0	0	508	410	
12	0	0	0	0	508	411	
13	0	0	0	0	509	411	
14	0	0	0	0	509	410	
15	0	0	0	0	510	411	
0	0	0	0	0	510	411	
1	0	0	0	0	510	411	
2	0	0	0	0	510	410	
3	0	0	0	0	510	411	
4	0	0	0	0	511	411	
5	0	0	0	0	510	410	
6	0	0	0	0	511	411	
7	0	0	0	0	510	411	
8	0	0	0	0	511	411	
9	0	0	0	0	510	412	
10	0	0	0	0	511	411	
11	0	0	0	0	511	411	
12	0	0	0	0	511	412	
13	0	0	0	0	511	411	
14	0	0	0	0	512	411	
15	0	0	0	0	512	411	
0	0	0	0	0	513	410	
1	0	0	0	0	513	412	
2	0	0	0	0	513	411	
3	0	0	0	0	514	411	
4	0	0	0	0	514	411	
5	0	0	0	0	515	410	
6	0	0	0	0	515	411	
7	0	0	0	0	515	411	
8	0	0	0	0	516	411	
9	0	0	0	0	516	411	
10	0	0	0	0	516	410	
11	0	0	0	0	516	410	
12	0	0	0	0	517	411	
13	0	0	0	0	517	410	
14	0	0	0	0	517	411	
15	0	0	0	0	518	410	
0	0	0	0	0	518	410	
1	0	0	0	0	518	411	
2	0	0	0	0	518	410	
3	0	0	0	0	518	411	
4	0	0	0	0	519	411	
5	0	0	0	0	520	410	
6	0	0	0	0	521	411	
7	0	0	0	0	523	411	
8	0	0	0	0	524	411	
9	0	0	0	0	524	412	
10	0	0	0	0	526	411	
11	0	0	0	0	527	411	
12	0	0	0	0	527	411	
13	0	0	0	0	528	411	
14	0	0	0	0	529	411	
15	0	0	0	0	530	411	
0	0	0	0	0	531	410	
1	0	0	0	0	531	412	
2	0	0	0	0	532	411	
3	0	0	0	0	532	411	
4	0	0	0	0	533	411	
5	0	0	0	0	534	411	
6	0	0	0	0	535	412	
7	0	0	0	0	535	412	
8	0	0	0	0	535	412	
9	0	0	0	0	536	412	
10	0	0	0	0	537	412	
11	0	0	0	0	537	412	
12	0	0	0	0	538	412	
13	0	0	0	0	539	412	
14	0	0	0	0	540	412	
15	0	0	0	0	541	412	
0	0	0	0	0	541	412	
1	0	0	0	0	541	413	
2	0	0	0	0	542	412	
3	0	0	0	0	543	412	
4	0	0	0	0	543	412	
5	0	0	0	0	544	412	
6	0	0	0	0	545	412	
7	0	0	0	0	547	412	
8	0	0	0	0	546	412	
9	0	0	0	0	547	412	
10	0	0	0	0	547	412	
11	0	0	0	0	548	411	
12	0	0	0	0	548	412	
13	0	0	0	0	548	411	
14	0	0	0	0	548	412	
15	0	0	0	0	548	411	
0	0	0	0	0	548	412	
1	0	0	0	0	549	412	
2	0	0	0	0	549	412	
3	0	0	0	0	549	412	
4	0	0	0	0	549	413	
5	0	0	0	0	549	412	
6	0	0	0	0	548	413	
7	0	0	0	0	548	412	
8	0	0	0	0	547	412	
9	0	0	0	0	547	412	
10	0	0	0	0	546	412	
11	0	0	0	0	545	412	
12	0	0	0	0	545	412	
13	0	0	0	0	544	411	
14	0	0	0	0	544	412	
15	0	0	0	0	543	412	
0	0	0	0	0	542	412	
1	0	0	0	0	542	412	
2	0	0	0	0	542	412	
3	0	0	0	0	542	412	
4	0	0	0	0	540	412	
5	0	0	0	0	540	412	
6	0	0	0	0	539	412	
7	0	0	0	0	537	412	
8	0	0	0	0	537	411	
9	0	0	0	0	537	412	
10	0	0	0	0	537	411	
11	0	0	0	0	537	411	
12	0	0	0	0	537	412	
13	0	0	0	0	537	411	
14	0	0	0	0	537	411	
15	0	0	0	0	537	411	
0	0	0	0	0	536	411	
1	0	0	0	0	536	412	
2	0	0	0	0	537	411	
3	0	0	0	0	537	411	
4	0	0	0	0	537	411	
5	0	0	0	0	537	410	
6	0	0	0	0	537	411	
7	0	0	0	0	537	411	
8	0	0	0	0	536	411	
9	0	0	0	0	536	412	
10	0	0	0	0	536	412	
11	0	0	0	0	536	411	
12	0	0	0	0	535	412	
13	0	0	0	0	535	411	
14	0	0	0	0	536	412	
15	0	0	0	0	536	412	
0	0	0	0	0	536	411	
1	0	0	0	0	536	412	
2	0	0	0	0	536	411	
3	0	0	0	0	536	411	
4	0	0	0	0	536	412	
5	0	0	0	0	536	412	
6	0	0	0	0	536	412	
7	0	0	0	0	536	412	
8	0	0	0	0	536	412	
9	0	0	0	0	536	412	
10	0	0	0	0	536	412	
11	0	0	0	0	535	412	
12	0	0	0	0	535	411	
13	0	0	0	0	535	412	
14	0	0	0	0	534	412	
15	0	0	0	0	534	411	
0	0	0	0	0	533	412	
1	0	0	0	0	532	412	
2	0	0	0	0	531	411	
3	0	0	0	0	531	412	
4	0	0	0	0	530	412	
5	0	0	0	0	529	412	
6	0	0	0	0	528	412	
7	0	0	0	0	528	412	
8	0	0	0	0	528	412	
9	0	0	0	0	527	413	
10	0	0	0	0	527	411	
11	0	0	0	0	527	411	
12	0	0	0	0	527	412	
13	0	0	0	0	527	411	
14	0	0	0	0	526	411	
15	0	0	0	0	525	411	
0	0	0	0	0	524	411	
1	0	0	0	0	524	412	
2	0	0	0	0	524	412	
3	0	0	0	0	524	412	
4	0	0	0	0	523	412	
5	0	0	0	0	523	411	
6	0	0	0	0	522	412	
7	0	0	0	0	522	411	
8	0	0	0	0	522	411	
9	0	0	0	0	521	412	
10	0	0	0	0	521	411	
11	0	0	0	0	521	411	
12	0	0	0	0	520	411	
13	0	0	0	0	519	411	
14	0	0	0	0	519	412	
15	0	0	0	0	519	411	
0	0	0	0	0	519	411	
1	0	0	0	0	519	412	
2	0	0	0	0	520	411	
3	0	0	0	0	520	411	
4	0	0	0	0	520	411	
5	0	0	0	0	520	411	
6	0	0	0	0	521	411	
7	0	0	0	0	521	411	
8	0	0	0	0	521	411	
9	0	0	0	0	520	412	
10	0	0	0	0	520	411	
11	0	0	0	0	520	411	
12	0	0	0	0	520	412	
13	0	0	0	0	520	412	
14	0	0	0	0	520	411	
15	0	0	0	0	521	411	
0	0	0	0	0	521	411	
1	0	0	0	0	521	412	
2	0	0	0	0	521	411	
3	0	0	0	0	521	411	
4	0	0	0	0	520	411	
5	0	0	0	0	520	410	
6	0	0	0	0	520	411	
7	0	0	0	0	520	411	
8	0	0	0	0	520	411	
9	0	0	0	0	521	412	
10	0	0	0	0	521	411	
11	0	0	0	0	521	411	
12	0	0	0	0	520	411	
13	0	0	0	0	520	411	
14	0	0	0	0	521	412	
15	0	0	0	0	520	412	
0	0	0	0	0	520	412	
1	0	0	0	0	520	412	
2	0	0	0	0	520	412	
3	0	0	0	0	520	412	
4	0	0	0	0	520	412	
5	0	0	0	0	520	411	
6	0	0	0	0	521	411	
7	0	0	0	0	521	412	
8	0	0	0	0	521	411	
9	0	0	0	0	522	412	
10	0	0	0	0	522	412	
11	0	0	0	0	522	411	
12	0	0	0	0	523	412	
13	0	0	0	0	523	411	
14	0	0	0	0	523	412	
15	0	0	0	0	523	411	
0	0	0	0	0	523	412	
1	0	0	0	0	523	412	
2	0	0	0	0	523	411	
3	0	0	0	0	523	412	
4	0	0	0	0	523	412	
5	0	0	0	0	523	411	
6	0	0	0	0	523	412	
7	0	0	0	0	523	412	
8	0	0	0	0	523	412	
9	0	0	0	0	523	412	
10	0	0	0	0	523	412	
11	0	0	0	0	522	412	
12	0	0	0	0	523	412	
13	0	0	0	0	523	412	
14	0	0	0	0	523	412	
15	0	0	0	0	523	411	
0	0	0	0	0	522	412	
1	0	0	0	0	523	413	
2	0	0	0	0	522	412	
3	0	0	0	0	523	412	
4	0	0	0	0	523	412	
5	0	0	0	0	523	411	
6	0	0	0	0	523	412	
7	0	0	0	0	523	412	
8	0	0	0	0	523	412	
9	0	0	0	0	524	412	
10	0	0	0	0	524	411	
11	0	0	0	0	525	412	
12	0	0	0	0	525	412	
13	0	0	0	0	525	412	
14	0	0	0	0	526	411	
15	0	0	0	0	526	412	
0	0	0	0	0	527	412	
1	0	0	0	0	527	412	
2	0	0	0	0	527	412	
3	0	0	0	0	527	411	
4	0	0	0	0	527	411	
5	0	0	0	0	527	412	
6	0	0	0	0	527	412	
7	0	0	0	0	526	412	
8	0	0	0	0	525	412	
9	0	0	0	0	525	413	
10	0	0	0	0	524	412	
11	0	0	0	0	524	412	
12	0	0	0	0	523	412	
13	0	0	0	0	521	412	
14	0	0	0	0	521	412	
15	0	0	0	0	520	412	
0	0	0	0	0	519	412	
1	0	0	0	0	517	413	
2	0	0	0	0	516	412	
3	0	0	0	0	514	412	
4	0	0	0	0	513	412	
5	0	0	0	0	512	412	
6	0	0	0	0	510	412	
7	0	0	0	0	509	413	
8	0	0	0	0	508	412	
9	0	0	0	0	507	412	
10	0	0	0	0	505	412	
11	0	0	0	0	504	412	
12	0	0	0	0	504	412	
13	0	0	0	0	503	412	
14	0	0	0	0	502	412	
15	0	0	0	0	500	412	
0	0	0	0	0	499	412	
1	0	0	0	0	498	412	
2	0	0	0	0	498	412	
3	0	0	0	0	497	411	
4	0	0	0	0	496	411	
5	0	0	0	0	496	411	
6	0	0	0	0	495	411	
7	0	0	0	0	495	411	
8	0	0	0	0	495	411	
9	0	0	0	0	494	412	
10	0	0	0	0	493	411	
11	0	0	0	0	493	411	
12	0	0	0	0	494	411	
13	0	0	0	0	494	411	
14	0	0	0	0	494	411	
15	0	0	0	0	494	412	
0	0	0	0	0	494	411	
1	0	0	0	0	494	412	
2	0	0	0	0	495	411	
3	0	0	0	0	495	411	
4	0	0	0	0	495	411	
5	0	0	0	0	496	411	
6	0	0	0	0	496	412	
7	0	0	0	0	496	411	
8	0	0	0	0	496	411	
9	0	0	0	0	496	412	
10	0	0	0	0	496	411	
11	0	0	0	0	496	411	
12	0	0	0	0	496	411	
13	0	0	0	0	496	411	
14	0	0	0	0	497	411	
15	0	0	0	0	497	411	
0	0	0	0	0	497	412	
1	0	0	0	0	498	413	
2	0	0	0	0	498	412	
3	0	0	0	0	498	412	
4	0	0	0	0	498	412	
5	0	0	0	0	498	411	
6	0	0	0	0	499	412	
7	0	0	0	0	498	412	
8	0	0	0	0	498	412	
9	0	0	0	0	498	412	
10	0	0	0	0	497	411	
11	0	0	0	0	497	411	
12	0	0	0	0	497	411	
13	0	0	0	0	496	411	
14	0	0	0	0	496	411	
15	0	0	0	0	496	411	
0	0	0	0	0	496	412	
1	0	0	0	0	496	411	
2	0	0	0	0	496	411	
3	0	0	0	0	495	411	
4	0	0	0	0	496	412	
5	0	0	0	0	496	411	
6	0	0	0	0	496	411	
7	0	0	0	0	496	412	
8	0	0	0	0	497	411	
9	0	0	0	0	497	412	
10	0	0	0	0	497	411	
11	0	0	0	0	497	411	
12	0	0	0	0	497	412	
13	0	0	0	0	497	411	
14	0	0	0	0	497	411	
15	0	0	0	0	496	411	
0	0	0	0	0	496	411	
1	0	0	0	0	495	411	
2	0	0	0	0	495	411	
3	0	0	0	0	494	411	
4	0	0	0	0	493	412	
5	0	0	0	0	493	411	
6	0	0	0	0	493	412	
7	0	0	0	0	493	412	
8	0	0	0	0	493	412	
9	0	0	0	0	492	413	
10	0	0	0	0	492	412	
11	0	0	0	0	491	412	
12	0	0	0	0	491	412	
13	0	0	0	0	490	412	
14	0	0	0	0	490	412	
15	0	0	0	0	489	411	
0	0	0	0	0	487	412	
1	0	0	0	0	487	412	
2	0	0	0	0	486	412	
3	0	0	0	0	486	412	
4	0	0	0	0	486	412	
5	0	0	0	0	486	412	
6	0	0	0	0	486	412	
7	0	0	0	0	485	412	
8	0	0	0	0	485	412	
9	0	0	0	0	485	412	
10	0	0	0	0	484	411	
11	0	0	0	0	483	412	
12	0	0	0	0	483	411	
13	0	0	0	0	483	411	
14	0	0	0	0	483	412	
15	0	0	0	0	483	411	
0	0	0	0	0	483	411	
1	0	0	0	0	484	412	
2	0	0	0	0	484	411	
3	0	0	0	0	484	411	
4	0	0	0	0	484	411	
5	0	0	0	0	484	411	
6	0	0	0	0	484	411	
7	0	0	0	0	484	412	
8	0	0	0	0	483	411	
9	0	0	0	0	483	412	
10	0	0	0	0	483	411	
11	0	0	0	0	484	411	
12	0	0	0	0	484	411	
13	0	0	0	0	484	410	
14	0	0	0	0	485	411	
15	0	0	0	0	485	411	
0	0	0	0	0	485	411	
1	0	0	0	0	484	412	
2	0	0	0	0	484	411	
3	0	0	0	0	483	412	
4	0	0	0	0	483	412	
5	0	0	0	0	482	411	
6	0	0	0	0	481	411	
7	0	0	0	0	480	412	
8	0	0	0	0	481	412	
9	0	0	0	0	480	412	
10	0	0	0	0	480	411	
11	0	0	0	0	480	411	
12	0	0	0	0	480	411	
13	0	0	0	0	480	411	
14	0	0	0	0	479	411	
15	0	0	0	0	479	411	
0	0	0	0	0	479	412	
1	0	0	0	0	480	412	
2	0	0	0	0	480	412	
3	0	0	0	0	480	412	
4	0	0	0	0	480	412	
5	0	0	0	0	481	411	
6	0	0	0	0	481	412	
7	0	0	0	0	481	412	
8	0	0	0	0	481	412	
9	0	0	0	0	481	412	
10	0	0	0	0	480	411	
11	0	0	0	0	481	412	
12	0	0	0	0	481	412	
13	0	0	0	0	481	412	
14	0	0	0	0	481	412	
15	0	0	0	0	480	412	
0	0	0	0	0	480	411	
1	0	0	0	0	480	411	
2	0	0	0	0	480	411	
3	0	0	0	0	480	410	
4	0	0	0	0	481	410	
5	0	0	0	0	481	411	
6	0	0	0	0	480	410	
7	0	0	0	0	479	411	
8	0	0	0	0	479	411	
9	0	0	0	0	479	411	
10	0	0	0	0	479	410	
11	0	0	0	0	479	410	
12	0	0	0	0	478	411	
13	0	0	0	0	478	411	
14	0	0	0	0	479	411	
15	0	0	0	0	479	411	
0	0	0	0	0	480	411	
1	0	0	0	0	480	412	
2	0	0	0	0	481	411	
3	0	0	0	0	481	411	
4	0	0	0	0	482	411	
5	0	0	0	0	483	411	
6	0	0	0	0	483	412	
7	0	0	0	0	484	412	
8	0	0	0	0	484	412	
9	0	0	0	0	485	412	
10	0	0	0	0	485	412	
11	0	0	0	0	485	412	
12	0	0	0	0	486	412	
13	0	0	0	0	487	412	
14	0	0	0	0	487	412	
15	0	0	0	0	487	412	
0	0	0	0	0	488	411	
1	0	0	0	0	488	413	
2	0	0	0	0	488	412	
3	0	0	0	0	487	412	
4	0	0	0	0	488	413	
5	0	0	0	0	488	412	
6	0	0	0	0	488	411	
7	0	0	0	0	488	412	
8	0	0	0	0	488	412	
9	0	0	0	0	488	412	
10	0	0	0	0	488	412	
11	0	0	0	0	488	412	
12	0	0	0	0	489	412	
13	0	0	0	0	489	411	
14	0	0	0	0	488	411	
15	0	0	0	0	488	412	
0	0	0	0	0	488	411	
1	0	0	0	0	488	413	
2	0	0	0	0	488	412	
3	0	0	0	0	488	411	
4	0	0	0	0	487	412	
5	0	0	0	0	487	412	
6	0	0	0	0	486	412	
7	0	0	0	0	486	412	
8	0	0	0	0	485	412	
9	0	0	0	0	485	413	
10	0	0	0	0	484	413	
11	0	0	0	0	483	412	
12	0	0	0	0	483	412	
13	0	0	0	0	482	412	
14	0	0	0	0	483	412	
15	0	0	0	0	482	412	
0	0	0	0	0	483	412	
1	0	0	0	0	483	413	
2	0	0	0	0	483	412	
3	0	0	0	0	483	412	
4	0	0	0	0	484	413	
5	0	0	0	0	484	412	
6	0	0	0	0	484	412	
7	0	0	0	0	485	412	
8	0	0	0	0	486	412	
9	0	0	0	0	486	413	
10	0	0	0	0	487	412	
11	0	0	0	0	488	412	
12	0	0	0	0	489	412	
13	0	0	0	0	489	412	
14	0	0	0	0	490	412	
15	0	0	0	0	491	412	
0	0	0	0	0	491	411	
1	0	0	0	0	491	412	
2	0	0	0	0	492	411	
3	0	0	0	0	492	411	
4	0	0	0	0	492	411	
5	0	0	0	0	492	410	
6	0	0	0	0	492	411	
7	0	0	0	0	492	411	
8	0	0	0	0	492	411	
9	0	0	0	0	493	412	
10	0	0	0	0	493	410	
11	0	0	0	0	493	410	
12	0	0	0	0	492	410	
13	0	0	0	0	492	411	
14	0	0	0	0	493	411	
15	0	0	0	0	493	411	
0	0	0	0	0	494	411	
1	0	0	0	0	494	412	
2	0	0	0	0	494	411	
3	0	0	0	0	493	412	
4	0	0	0	0	493	412	
5	0	0	0	0	492	411	
6	0	0	0	0	493	412	
7	0	0	0	0	493	413	
8	0	0	0	0	493	412	
9	0	0	0	0	493	412	
10	0	0	0	0	493	412	
11	0	0	0	0	492	412	
12	0	0	0	0	492	412	
13	0	0	0	0	491	412	
14	0	0	0	0	491	412	
15	0	0	0	0	491	412	
0	0	0	0	0	490	412	
1	0	0	0	0	489	412	
2	0	0	0	0	489	412	
3	0	0	0	0	488	412	
4	0	0	0	0	488	412	
5	0	0	0	0	488	411	
6	0	0	0	0	488	411	
7	0	0	0	0	488	411	
8	0	0	0	0	488	411	
9	0	0	0	0	488	412	
10	0	0	0	0	488	412	
11	0	0	0	0	487	411	
12	0	0	0	0	488	411	
13	0	0	0	0	488	410	
14	0	0	0	0	488	411	
15	0	0	0	0	488	411	
0	0	0	0	0	488	410	
1	0	0	0	0	487	411	
2	0	0	0	0	487	410	
3	0	0	0	0	487	410	
4	0	0	0	0	486	409	
5	0	0	0	0	486	410	
6	0	0	0	0	486	409	
7	0	0	0	0	487	410	
8	0	0	0	0	487	410	
9	0	0	0	0	487	411	
10	0	0	0	0	487	411	
11	0	0	0	0	487	411	
12	0	0	0	0	487	411	
13	0	0	0	0	487	410	
14	0	0	0	0	487	411	
15	0	0	0	0	487	411	
0	0	0	0	0	488	411	
1	0	0	0	0	488	412	
2	0	0	0	0	488	412	
3	0	0	0	0	487	412	
4	0	0	0	0	486	412	
5	0	0	0	0	485	412	
6	0	0	0	0	482	411	
7	0	0	0	0	480	412	
8	0	0	0	0	477	411	
9	0	0	0	0	473	413	
10	0	0	0	0	469	412	
11	0	0	0	0	465	412	
12	0	0	0	0	461	412	
13	0	0	0	0	456	412	
14	0	0	0	0	454	412	
15	0	0	0	0	451	412	
0	0	0	0	0	449	412	
1	0	0	0	0	449	413	
2	0	0	0	0	451	412	
3	0	0	0	0	454	412	
4	0	0	0	0	459	413	
5	0	0	0	0	466	412	
6	0	0	0	0	475	412	
7	0	0	0	0	484	413	
8	0	0	0	0	494	413	
9	0	0	0	0	505	413	
10	0	0	0	0	515	412	
11	0	0	0	0	526	412	
12	0	0	0	0	540	413	
13	0	0	0	0	555	412	
14	0	0	0	0	571	412	
15	0	0	0	0	588	412	
0	0	0	0	0	607	412	
1	0	0	0	0	625	413	
2	0	0	0	0	646	412	
3	0	0	0	0	670	412	
4	0	0	0	0	695	411	
5	0	0	0	0	721	411	
6	0	0	0	0	745	412	
7	0	0	0	0	766	411	
8	0	0	0	0	785	411	
9	0	0	0	0	803	411	
10	0	0	0	0	816	410	
11	0	0	0	0	827	410	
12	0	0	0	0	834	410	
13	0	0	0	0	840	409	
14	0	0	0	0	844	410	
15	0	0	0	0	848	410	
0	0	0	0	0	849	409	
1	0	0	0	0	850	409	
2	0	0	0	0	848	409	
3	0	0	0	0	842	409	
4	0	0	0	0	832	410	
5	0	0	0	0	817	409	
6	0	0	0	0	796	409	
7	0	0	0	0	772	410	
8	0	0	0	0	746	410	
9	0	0	0	0	720	411	
10	0	0	0	0	692	411	
11	0	0	0	0	664	411	
12	0	0	0	0	634	411	
13	0	0	0	0	605	411	
14	0	0	0	0	577	412	
15	0	0	0	0	551	412	
0	0	0	0	0	527	411	
1	0	0	0	0	508	413	
2	0	0	0	0	491	413	
3	0	0	0	0	478	413	
4	0	0	0	0	467	413	
5	0	0	0	0	460	413	
6	0	0	0	0	454	413	
7	0	0	0	0	448	414	
8	0	0	0	0	442	412	
9	0	0	0	0	438	413	
10	0	0	0	0	434	412	
11	0	0	0	0	430	412	
12	0	0	0	0	426	412	
13	0	0	0	0	423	412	
14	0	0	0	0	422	412	
15	0	0	0	0	419	412	
0	0	0	0	0	418	412	
1	0	0	0	0	416	413	
2	0	0	0	0	416	412	
3	0	0	0	0	415	412	
4	0	0	0	0	415	412	
5	0	0	0	0	415	411	
6	0	0	0	0	415	412	
7	0	0	0	0	415	411	
8	0	0	0	0	416	412	
9	0	0	0	0	416	412	
10	0	0	0	0	417	411	
11	0	0	0	0	417	411	
12	0	0	0	0	418	411	
13	0	0	0	0	419	412	
14	0	0	0	0	420	412	
15	0	0	0	0	422	412	
0	0	0	0	0	423	412	
1	0	0	0	0	424	413	
2	0	0	0	0	425	412	
3	0	0	0	0	426	412	
4	0	0	0	0	427	413	
5	0	0	0	0	429	412	
6	0	0	0	0	430	412	
7	0	0	0	0	430	412	
8	0	0	0	0	431	412	
9	0	0	0	0	432	414	
10	0	0	0	0	432	412	
11	0	0	0	0	434	413	
12	0	0	0	0	436	413	
13	0	0	0	0	437	412	
14	0	0	0	0	439	413	
15	0	0	0	0	440	413	
0	0	0	0	0	440	413	
1	0	0	0	0	441	413	
2	0	0	0	0	441	413	
3	0	0	0	0	442	412	
4	0	0	0	0	443	412	
5	0	0	0	0	444	412	
6	0	0	0	0	446	413	
7	0	0	0	0	447	412	
8	0	0	0	0	447	412	
9	0	0	0	0	448	412	
10	0	0	0	0	449	411	
11	0	0	0	0	449	411	
12	0	0	0	0	450	411	
13	0	0	0	0	450	411	
14	0	0	0	0	450	409	
15	0	0	0	0	451	409	
0	0	0	0	0	451	410	
1	0	0	0	0	451	411	
2	0	0	0	0	451	410	
3	0	0	0	0	451	409	
4	0	0	0	0	451	409	
5	0	0	0	0	451	409	
6	0	0	0	0	451	409	
7	0	0	0	0	451	410	
8	0	0	0	0	451	410	
9	0	0	0	0	451	411	
10	0	0	0	0	450	410	
11	0	0	0	0	450	411	
12	0	0	0	0	450	411	
13	0	0	0	0	449	410	
14	0	0	0	0	450	411	
15	0	0	0	0	449	411	
0	0	0	0	0	449	411	
1	0	0	0	0	449	411	
2	0	0	0	0	449	411	
3	0	0	0	0	448	411	
4	0	0	0	0	448	411	
5	0	0	0	0	448	411	
6	0	0	0	0	448	412	
7	0	0	0	0	449	412	
8	0	0	0	0	449	412	
9	0	0	0	0	450	413	
10	0	0	0	0	450	412	
11	0	0	0	0	451	412	
12	0	0	0	0	451	412	
13	0	0	0	0	452	412	
14	0	0	0	0	453	412	
15	0	0	0	0	454	412	
0	0	0	0	0	455	412	
1	0	0	0	0	455	413	
2	0	0	0	0	456	412	
3	0	0	0	0	456	412	
4	0	0	0	0	457	412	
5	0	0	0	0	458	412	
6	0	0	0	0	458	412	
7	0	0	0	0	460	413	
8	0	0	0	0	460	413	
9	0	0	0	0	460	414	
10	0	0	0	0	461	413	
11	0	0	0	0	462	413	
12	0	0	0	0	463	413	
13	0	0	0	0	463	412	
14	0	0	0	0	463	413	
15	0	0	0	0	463	413	
0	0	0	0	0	465	413	
1	0	0	0	0	466	413	
2	0	0	0	0	467	413	
3	0	0	0	0	467	413	
4	0	0	0	0	468	412	
5	0	0	0	0	468	412	
6	0	0	0	0	468	412	
7	0	0	0	0	468	412	
8	0	0	0	0	468	412	
9	0	0	0	0	468	413	
10	0	0	0	0	468	412	
11	0	0	0	0	467	412	
12	0	0	0	0	467	412	
13	0	0	0	0	467	411	
14	0	0	0	0	467	411	
15	0	0	0	0	467	411	
0	0	0	0	0	467	411	
1	0	0	0	0	466	411	
2	0	0	0	0	466	410	
3	0	0	0	0	466	410	
4	0	0	0	0	465	411	
5	0	0	0	0	465	410	
6	0	0	0	0	464	411	
7	0	0	0	0	464	410	
8	0	0	0	0	464	410	
9	0	0	0	0	463	411	
10	0	0	0	0	463	410	
11	0	0	0	0	463	410	
12	0	0	0	0	463	410	
13	0	0	0	0	463	410	
14	0	0	0	0	463	410	
15	0	0	0	0	463	411	
0	0	0	0	0	462	411	
1	0	0	0	0	462	412	
2	0	0	0	0	462	411	
3	0	0	0	0	462	411	
4	0	0	0	0	462	410	
5	0	0	0	0	462	410	
6	0	0	0	0	463	411	
7	0	0	0	0	463	411	
8	0	0	0	0	463	411	
9	0	0	0	0	463	411	
10	0	0	0	0	463	411	
11	0	0	0	0	463	412	
12	0	0	0	0	464	412	
13	0	0	0	0	465	411	
14	0	0	0	0	465	411	
15	0	0	0	0	466	411	
0	0	0	0	0	466	411	
1	0	0	0	0	467	412	
2	0	0	0	0	467	411	
3	0	0	0	0	467	411	
4	0	0	0	0	468	411	
5	0	0	0	0	469	410	
6	0	0	0	0	470	411	
7	0	0	0	0	470	411	
8	0	0	0	0	472	411	
9	0	0	0	0	473	412	
10	0	0	0	0	474	412	
11	0	0	0	0	475	412	
12	0	0	0	0	476	412	
13	0	0	0	0	477	411	
14	0	0	0	0	478	411	
15	0	0	0	0	479	412	
0	0	0	0	0	480	412	
1	0	0	0	0	480	413	
2	0	0	0	0	481	412	
3	0	0	0	0	482	412	
4	0	0	0	0	483	412	
5	0	0	0	0	484	412	
6	0	0	0	0	484	412	
7	0	0	0	0	485	412	
8	0	0	0	0	486	412	
9	0	0	0	0	487	413	
10	0	0	0	0	487	412	
11	0	0	0	0	488	412	
12	0	0	0	0	489	412	
13	0	0	0	0	490	412	
14	0	0	0	0	491	412	
15	0	0	0	0	492	412	
0	0	0	0	0	493	412	
1	0	0	0	0	494	412	
2	0	0	0	0	495	411	
3	0	0	0	0	496	412	
4	0	0	0	0	497	412	
5	0	0	0	0	498	411	
6	0	0	0	0	499	412	
7	0	0	0	0	500	412	
8	0	0	0	0	501	412	
9	0	0	0	0	503	411	
10	0	0	0	0	504	411	
11	0	0	0	0	504	411	
12	0	0	0	0	505	411	
13	0	0	0	0	506	411	
14	0	0	0	0	507	411	
15	0	0	0	0	508	411	
0	0	0	0	0	508	411	
1	0	0	0	0	509	412	
2	0	0	0	0	509	412	
3	0	0	0	0	510	411	
4	0	0	0	0	510	412	
5	0	0	0	0	510	412	
6	0	0	0	0	510	411	
7	0	0	0	0	511	412	
8	0	0	0	0	512	412	
9	0	0	0	0	512	413	
10	0	0	0	0	512	412	
11	0	0	0	0	512	412	
12	0	0	0	0	512	413	
13	0	0	0	0	512	412	
14	0	0	0	0	512	412	
15	0	0	0	0	512	412	
0	0	0	0	0	513	412	
1	0	0	0	0	513	414	
2	0	0	0	0	513	412	
3	0	0	0	0	513	412	
4	0	0	0	0	513	413	
5	0	0	0	0	513	412	
6	0	0	0	0	512	412	
7	0	0	0	0	512	412	
8	0	0	0	0	512	412	
9	0	0	0	0	511	412	
10	0	0	0	0	511	412	
11	0	0	0	0	511	412	
12	0	0	0	0	510	412	
13	0	0	0	0	511	411	
14	0	0	0	0	510	412	
15	0	0	0	0	510	411	
0	0	0	0	0	509	411	
1	0	0	0	0	510	412	
2	0	0	0	0	509	411	
3	0	0	0	0	508	410	
4	0	0	0	0	508	411	
5	0	0	0	0	508	411	
6	0	0	0	0	507	411	
7	0	0	0	0	506	411	
8	0	0	0	0	505	411	
9	0	0	0	0	505	411	
10	0	0	0	0	504	411	
11	0	0	0	0	504	411	
12	0	0	0	0	503	412	
13	0	0	0	0	502	411	
14	0	0	0	0	502	412	
15	0	0	0	0	502	412	
0	0	0	0	0	503	412	
1	0	0	0	0	502	413	
2	0	0	0	0	502	412	
3	0	0	0	0	502	411	
4	0	0	0	0	502	412	
5	0	0	0	0	502	412	
6	0	0	0	0	502	412	
7	0	0	0	0	503	412	
8	0	0	0	0	504	412	
9	0	0	0	0	504	412	
10	0	0	0	0	505	412	
11	0	0	0	0	506	412	
12	0	0	0	0	506	412	
13	0	0	0	0	507	412	
14	0	0	0	0	508	412	
15	0	0	0	0	508	412	
0	0	0	0	0	509	412	
1	0	0	0	0	509	413	
2	0	0	0	0	509	412	
3	0	0	0	0	509	412	
4	0	0	0	0	510	412	
5	0	0	0	0	511	411	
6	0	0	0	0	512	412	
7	0	0	0	0	512	411	
8	0	0	0	0	512	411	
9	0	0	0	0	513	412	
10	0	0	0	0	513	411	
11	0	0	0	0	514	411	
12	0	0	0	0	515	411	
13	0	0	0	0	515	411	
14	0	0	0	0	515	411	
15	0	0	0	0	516	411	
0	0	0	0	0	517	411	
1	0	0	0	0	517	411	
2	0	0	0	0	517	410	
3	0	0	0	0	517	411	
4	0	0	0	0	518	410	
5	0	0	0	0	518	411	
6	0	0	0	0	518	412	
7	0	0	0	0	518	411	
8	0	0	0	0	518	411	
9	0	0	0	0	518	412	
10	0	0	0	0	518	411	
11	0	0	0	0	518	411	
12	0	0	0	0	518	411	
13	0	0	0	0	519	411	
14	0	0	0	0	519	412	
15	0	0	0	0	519	411	
0	0	0	0	0	518	411	
1	0	0	0	0	518	412	
2	0	0	0	0	519	412	
3	0	0	0	0	519	412	
4	0	0	0	0	519	412	
5	0	0	0	0	519	412	
6	0	0	0	0	518	412	
7	0	0	0	0	518	412	
8	0	0	0	0	518	412	
9	0	0	0	0	518	412	
10	0	0	0	0	518	412	
11	0	0	0	0	517	412	
12	0	0	0	0	517	411	
13	0	0	0	0	517	411	
14	0	0	0	0	517	412	
15	0	0	0	0	517	411	
0	0	0	0	0	517	412	
1	0	0	0	0	516	412	
2	0	0	0	0	516	411	
3	0	0	0	0	515	411	
4	0	0	0	0	515	411	
5	0	0	0	0	513	411	
6	0	0	0	0	512	411	
7	0	0	0	0	512	411	
8	0	0	0	0	512	411	
9	0	0	0	0	512	412	
10	0	0	0	0	512	411	
11	0	0	0	0	512	411	
12	0	0	0	0	512	411	
13	0	0	0	0	511	411	
14	0	0	0	0	510	411	
15	0	0	0	0	510	411	
0	0	0	0	0	510	412	
1	0	0	0	0	510	412	
2	0	0	0	0	509	411	
3	0	0	0	0	509	412	
4	0	0	0	0	509	412	
5	0	0	0	0	509	412	
6	0	0	0	0	508	412	
7	0	0	0	0	509	412	
8	0	0	0	0	509	412	
9	0	0	0	0	509	413	
10	0	0	0	0	509	413	
11	0	0	0	0	508	413	
12	0	0	0	0	508	412	
13	0	0	0	0	508	412	
14	0	0	0	0	508	413	
15	0	0	0	0	508	412	
0	0	0	0	0	508	412	
1	0	0	0	0	508	413	
2	0	0	0	0	508	412	
3	0	0	0	0	508	412	
4	0	0	0	0	509	412	
5	0	0	0	0	509	412	
6	0	0	0	0	509	412	
7	0	0	0	0	509	412	
8	0	0	0	0	509	412	
9	0	0	0	0	510	413	
10	0	0	0	0	510	412	
11	0	0	0	0	510	412	
12	0	0	0	0	510	412	
13	0	0	0	0	510	411	
14	0	0	0	0	511	411	
15	0	0	0	0	511	411	
0	0	0	0	0	512	410	
1	0	0	0	0	513	412	
2	0	0	0	0	514	411	
3	0	0	0	0	514	411	
4	0	0	0	0	515	411	
5	0	0	0	0	516	410	
6	0	0	0	0	517	410	
7	0	0	0	0	517	411	
8	0	0	0	0	518	411	
9	0	0	0	0	518	411	
10	0	0	0	0	518	411	
11	0	0	0	0	519	411	
12	0	0	0	0	519	412	
13	0	0	0	0	520	411	
14	0	0	0	0	520	411	
15	0	0	0	0	520	412	
0	0	0	0	0	520	411	
1	0	0	0	0	520	412	
2	0	0	0	0	520	411	
3	0	0	0	0	520	411	
4	0	0	0	0	519	412	
5	0	0	0	0	520	411	
6	0	0	0	0	519	412	
7	0	0	0	0	520	412	
8	0	0	0	0	520	411	
9	0	0	0	0	521	412	
10	0	0	0	0	521	412	
11	0	0	0	0	521	412	
12	0	0	0	0	521	412	
13	0	0	0	0	521	411	
14	0	0	0	0	521	412	
15	0	0	0	0	521	412	
0	0	0	0	0	521	411	
1	0	0	0	0	521	412	
2	0	0	0	0	521	412	
3	0	0	0	0	521	412	
4	0	0	0	0	520	412	
5	0	0	0	0	519	411	
6	0	0	0	0	519	412	
7	0	0	0	0	518	411	
8	0	0	0	0	517	411	
9	0	0	0	0	517	412	
10	0	0	0	0	517	412	
11	0	0	0	0	517	412	
12	0	0	0	0	517	412	
13	0	0	0	0	517	412	
14	0	0	0	0	517	412	
15	0	0	0	0	517	412	
0	0	0	0	0	517	412	
1	0	0	0	0	517	412	
2	0	0	0	0	517	412	
3	0	0	0	0	517	412	
4	0	0	0	0	518	412	
5	0	0	0	0	518	412	
6	0	0	0	0	518	412	
7	0	0	0	0	519	412	
8	0	0	0	0	519	412	
9	0	0	0	0	518	412	
10	0	0	0	0	519	412	
11	0	0	0	0	518	412	
12	0	0	0	0	519	411	
13	0	0	0	0	519	411	
14	0	0	0	0	520	412	
15	0	0	0	0	521	412	
0	0	0	0	0	521	411	
1	0	0	0	0	521	412	
2	0	0	0	0	522	411	
3	0	0	0	0	522	411	
4	0	0	0	0	522	411	
5	0	0	0	0	523	411	
6	0	0	0	0	522	411	
7	0	0	0	0	522	411	
8	0	0	0	0	522	411	
9	0	0	0	0	522	412	
10	0	0	0	0	522	411	
11	0	0	0	0	523	411	
12	0	0	0	0	523	411	
13	0	0	0	0	524	411	
14	0	0	0	0	524	412	
15	0	0	0	0	524	412	
0	0	0	0	0	524	411	
1	0	0	0	0	524	411	
2	0	0	0	0	524	410	
3	0	0	0	0	523	410	
4	0	0	0	0	523	411	
5	0	0	0	0	523	410	
6	0	0	0	0	524	411	
7	0	0	0	0	524	410	
8	0	0	0	0	524	411	
9	0	0	0	0	523	412	
10	0	0	0	0	523	411	
11	0	0	0	0	523	411	
12	0	0	0	0	523	411	
13	0	0	0	0	523	411	
14	0	0	0	0	523	411	
15	0	0	0	0	523	410	
0	0	0	0	0	524	412	
1	0	0	0	0	524	412	
2	0	0	0	0	524	412	
3	0	0	0	0	524	411	
4	0	0	0	0	525	411	
5	0	0	0	0	525	412	
6	0	0	0	0	525	411	
7	0	0	0	0	524	412	
8	0	0	0	0	524	412	
9	0	0	0	0	524	413	
10	0	0	0	0	524	412	
11	0	0	0	0	525	412	
12	0	0	0	0	525	412	
13	0	0	0	0	526	412	
14	0	0	0	0	526	412	
15	0	0	0	0	527	412	
0	0	0	0	0	527	412	
1	0	0	0	0	527	413	
2	0	0	0	0	527	412	
3	0	0	0	0	527	412	
4	0	0	0	0	527	412	
5	0	0	0	0	527	412	
6	0	0	0	0	527	413	
7	0	0	0	0	527	412	
8	0	0	0	0	527	412	
9	0	0	0	0	527	413	
10	0	0	0	0	527	412	
11	0	0	0	0	527	412	
12	0	0	0	0	527	412	
13	0	0	0	0	526	412	
14	0	0	0	0	526	412	
15	0	0	0	0	525	412	
0	0	0	0	0	525	412	
1	0	0	0	0	526	412	
2	0	0	0	0	525	411	
3	0	0	0	0	525	411	
4	0	0	0	0	525	412	
5	0	0	0	0	524	411	
6	0	0	0	0	524	411	
7	0	0	0	0	524	412	
8	0	0	0	0	525	411	
9	0	0	0	0	525	412	
10	0	0	0	0	526	411	
11	0	0	0	0	526	412	
12	0	0	0	0	525	411	
13	0	0	0	0	525	411	
14	0	0	0	0	525	411	
15	0	0	0	0	525	411	
0	0	0	0	0	525	411	
1	0	0	0	0	524	412	
2	0	0	0	0	525	411	
3	0	0	0	0	526	411	
4	0	0	0	0	526	412	
5	0	0	0	0	525	411	
6	0	0	0	0	525	411	
7	0	0	0	0	524	412	
8	0	0	0	0	524	412	
9	0	0	0	0	523	412	
10	0	0	0	0	524	412	
11	0	0	0	0	524	412	
12	0	0	0	0	524	411	
13	0	0	0	0	524	411	
14	0	0	0	0	524	412	
15	0	0	0	0	523	412	
0	0	0	0	0	523	412	
1	0	0	0	0	524	412	
2	0	0	0	0	524	411	
3	0	0	0	0	524	412	
4	0	0	0	0	523	412	
5	0	0	0	0	524	411	
6	0	0	0	0	523	411	
7	0	0	0	0	523	412	
8	0	0	0	0	523	411	
9	0	0	0	0	523	412	
10	0	0	0	0	523	411	
11	0	0	0	0	522	411	
12	0	0	0	0	521	411	
13	0	0	0	0	521	411	
14	0	0	0	0	520	411	
15	0	0	0	0	519	411	
0	0	0	0	0	519	411	
1	0	0	0	0	519	412	
2	0	0	0	0	519	412	
3	0	0	0	0	519	412	
4	0	0	0	0	519	412	
5	0	0	0	0	519	411	
6	0	0	0	0	519	411	
7	0	0	0	0	519	411	
8	0	0	0	0	519	411	
9	0	0	0	0	519	412	
10	0	0	0	0	519	411	
11	0	0	0	0	518	411	
12	0	0	0	0	518	412	
13	0	0	0	0	516	411	
14	0	0	0	0	515	411	
15	0	0	0	0	516	412	
0	0	0	0	0	515	412	
1	0	0	0	0	515	413	
2	0	0	0	0	515	412	
3	0	0	0	0	515	412	
4	0	0	0	0	514	412	
5	0	0	0	0	514	411	
6	0	0	0	0	515	412	
7	0	0	0	0	515	412	
8	0	0	0	0	515	412	
9	0	0	0	0	515	412	
10	0	0	0	0	515	412	
11	0	0	0	0	514	412	
12	0	0	0	0	514	412	
13	0	0	0	0	514	412	
14	0	0	0	0	514	412	
15	0	0	0	0	513	412	
0	0	0	0	0	513	412	
1	0	0	0	0	513	412	
2	0	0	0	0	514	412	
3	0	0	0	0	514	412	
4	0	0	0	0	513	411	
5	0	0	0	0	513	412	
6	0	0	0	0	512	411	
7	0	0	0	0	512	411	
8	0	0	0	0	512	411	
9	0	0	0	0	512	412	
10	0	0	0	0	511	411	
11	0	0	0	0	511	411	
12	0	0	0	0	511	411	
13	0	0	0	0	511	411	
14	0	0	0	0	511	410	
15	0	0	0	0	511	411	
0	0	0	0	0	512	411	
1	0	0	0	0	512	412	
2	0	0	0	0	512	411	
3	0	0	0	0	512	412	
4	0	0	0	0	512	411	
5	0	0	0	0	513	411	
6	0	0	0	0	514	412	
7	0	0	0	0	514	412	
8	0	0	0	0	514	411	
9	0	0	0	0	515	413	
10	0	0	0	0	514	412	
11	0	0	0	0	515	412	
12	0	0	0	0	515	412	
13	0	0	0	0	515	412	
14	0	0	0	0	515	412	
15	0	0	0	0	515	412	
0	0	0	0	0	515	412	
1	0	0	0	0	515	412	
2	0	0	0	0	516	413	
3	0	0	0	0	515	412	
4	0	0	0	0	515	412	
5	0	0	0	0	514	412	
6	0	0	0	0	513	412	
7	0	0	0	0	513	412	
8	0	0	0	0	513	412	
9	0	0	0	0	512	412	
10	0	0	0	0	512	412	
11	0	0	0	0	512	412	
12	0	0	0	0	512	412	
13	0	0	0	0	512	412	
14	0	0	0	0	512	412	
15	0	0	0	0	512	412	
0	0	0	0	0	512	412	
1	0	0	0	0	512	412	
2	0	0	0	0	511	411	
3	0	0	0	0	511	411	
4	0	0	0	0	511	411	
5	0	0	0	0	510	412	
6	0	0	0	0	510	412	
7	0	0	0	0	511	412	
8	0	0	0	0	510	412	
9	0	0	0	0	510	412	
10	0	0	0	0	509	411	
11	0	0	0	0	508	411	
12	0	0	0	0	508	412	
13	0	0	0	0	508	412	
14	0	0	0	0	508	411	
15	0	0	0	0	508	412	
0	0	0	0	0	509	411	
1	0	0	0	0	509	412	
2	0	0	0	0	508	412	
3	0	0	0	0	509	411	
4	0	0	0	0	509	411	
5	0	0	0	0	510	411	
6	0	0	0	0	510	411	
7	0	0	0	0	510	410	
8	0	0	0	0	510	411	
9	0	0	0	0	511	411	
10	0	0	0	0	511	411	
11	0	0	0	0	511	411	
12	0	0	0	0	511	410	
13	0	0	0	0	511	410	
14	0	0	0	0	511	410	
15	0	0	0	0	511	411	
0	0	0	0	0	512	411	
1	0	0	0	0	512	412	
2	0	0	0	0	512	411	
3	0	0	0	0	513	411	
4	0	0	0	0	513	411	
5	0	0	0	0	514	411	
6	0	0	0	0	513	411	
7	0	0	0	0	513	412	
8	0	0	0	0	512	411	
9	0	0	0	0	512	412	
10	0	0	0	0	512	412	
11	0	0	0	0	512	411	
12	0	0	0	0	512	412	
13	0	0	0	0	512	411	
14	0	0	0	0	512	412	
15	0	0	0	0	513	412	
0	0	0	0	0	513	412	
1	0	0	0	0	513	412	
2	0	0	0	0	513	412	
3	0	0	0	0	513	412	
4	0	0	0	0	513	412	
5	0	0	0	0	513	412	
6	0	0	0	0	513	412	
7	0	0	0	0	514	413	
8	0	0	0	0	513	412	
9	0	0	0	0	513	412	
10	0	0	0	0	514	412	
11	0	0	0	0	514	412	
12	0	0	0	0	515	412	
13	0	0	0	0	515	411	
14	0	0	0	0	516	412	
15	0	0	0	0	516	412	
0	0	0	0	0	517	413	
1	0	0	0	0	517	413	
2	0	0	0	0	517	412	
3	0	0	0	0	518	412	
4	0	0	0	0	518	412	
5	0	0	0	0	518	412	
6	0	0	0	0	518	412	
7	0	0	0	0	518	412	
8	0	0	0	0	519	412	
9	0	0	0	0	519	413	
10	0	0	0	0	519	412	
11	0	0	0	0	519	412	
12	0	0	0	0	519	412	
13	0	0	0	0	520	411	
14	0	0	0	0	521	411	
15	0	0	0	0	521	412	
0	0	0	0	0	522	412	
1	0	0	0	0	523	412	
2	0	0	0	0	524	411	
3	0	0	0	0	524	411	
4	0	0	0	0	524	411	
5	0	0	0	0	525	410	
6	0	0	0	0	525	411	
7	0	0	0	0	526	411	
8	0	0	0	0	526	411	
9	0	0	0	0	526	412	
10	0	0	0	0	527	411	
11	0	0	0	0	527	411	
12	0	0	0	0	528	411	
13	0	0	0	0	528	411	
14	0	0	0	0	528	411	
15	0	0	0	0	527	411	
0	0	0	0	0	526	412	
1	0	0	0	0	524	412	
2	0	0	0	0	522	411	
3	0	0	0	0	519	411	
4	0	0	0	0	515	412	
5	0	0	0	0	511	410	
6	0	0	0	0	508	411	
7	0	0	0	0	504	411	
8	0	0	0	0	499	411	
9	0	0	0	0	496	412	
10	0	0	0	0	492	412	
11	0	0	0	0	489	412	
12	0	0	0	0	486	411	
13	0	0	0	0	484	411	
14	0	0	0	0	484	411	
15	0	0	0	0	487	412	
0	0	0	0	0	491	412	
1	0	0	0	0	497	412	
2	0	0	0	0	504	412	
3	0	0	0	0	514	411	
4	0	0	0	0	524	412	
5	0	0	0	0	536	411	
6	0	0	0	0	546	412	
7	0	0	0	0	557	412	
8	0	0	0	0	571	411	
9	0	0	0	0	586	412	
10	0	0	0	0	602	412	
11	0	0	0	0	619	412	
12	0	0	0	0	637	412	
13	0	0	0	0	656	411	
14	0	0	0	0	677	412	
15	0	0	0	0	700	412	
0	0	0	0	0	725	412	
1	0	0	0	0	750	412	
2	0	0	0	0	775	412	
3	0	0	0	0	797	411	
4	0	0	0	0	816	411	
5	0	0	0	0	832	410	
6	0	0	0	0	844	411	
7	0	0	0	0	854	411	
8	0	0	0	0	862	411	
9	0	0	0	0	869	412	
10	0	0	0	0	874	411	
11	0	0	0	0	879	410	
12	0	0	0	0	883	411	
13	0	0	0	0	884	410	
14	0	0	0	0	883	411	
15	0	0	0	0	877	411	
0	0	0	0	0	868	411	
1	0	0	0	0	851	412	
2	0	0	0	0	829	411	
3	0	0	0	0	805	411	
4	0	0	0	0	777	411	
5	0	0	0	0	749	411	
6	0	0	0	0	719	412	
7	0	0	0	0	686	411	
8	0	0	0	0	655	412	
9	0	0	0	0	624	412	
10	0	0	0	0	594	411	
11	0	0	0	0	567	411	
12	0	0	0	0	543	411	
13	0	0	0	0	524	411	
14	0	0	0	0	509	412	
15	0	0	0	0	497	412	
0	0	0	0	0	487	412	
1	0	0	0	0	481	412	
2	0	0	0	0	475	412	
3	0	0	0	0	470	412	
4	0	0	0	0	465	412	
5	0	0	0	0	460	412	
6	0	0	0	0	457	412	
7	0	0	0	0	454	413	
8	0	0	0	0	450	412	
9	0	0	0	0	448	413	
10	0	0	0	0	446	412	
11	0	0	0	0	444	412	
12	0	0	0	0	442	412	
13	0	0	0	0	440	412	
14	0	0	0	0	440	412	
15	0	0	0	0	439	412	
0	0	0	0	0	438	412	
1	0	0	0	0	437	412	
2	0	0	0	0	437	412	
3	0	0	0	0	437	412	
4	0	0	0	0	437	412	
5	0	0	0	0	437	411	
6	0	0	0	0	437	411	
7	0	0	0	0	437	411	
8	0	0	0	0	437	411	
9	0	0	0	0	437	412	
10	0	0	0	0	437	411	
11	0	0	0	0	438	411	
12	0	0	0	0	439	412	
13	0	0	0	0	439	411	
14	0	0	0	0	440	411	
15	0	0	0	0	440	412	
0	0	0	0	0	441	412	
1	0	0	0	0	442	413	
2	0	0	0	0	442	412	
3	0	0	0	0	443	412	
4	0	0	0	0	445	412	
5	0	0	0	0	446	412	
6	0	0	0	0	446	412	
7	0	0	0	0	448	413	
8	0	0	0	0	448	412	
9	0	0	0	0	448	413	
10	0	0	0	0	448	412	
11	0	0	0	0	449	412	
12	0	0	0	0	450	413	
13	0	0	0	0	451	412	
14	0	0	0	0	452	412	
15	0	0	0	0	454	412	
0	0	0	0	0	455	412	
1	0	0	0	0	456	412	
2	0	0	0	0	457	412	
3	0	0	0	0	459	411	
4	0	0	0	0	460	412	
5	0	0	0	0	461	412	
6	0	0	0	0	462	411	
7	0	0	0	0	463	411	
8	0	0	0	0	465	411	
9	0	0	0	0	466	412	
10	0	0	0	0	467	411	
11	0	0	0	0	468	411	
12	0	0	0	0	470	411	
13	0	0	0	0	470	410	
14	0	0	0	0	471	411	
15	0	0	0	0	472	411	
0	0	0	0	0	472	411	
1	0	0	0	0	472	412	
2	0	0	0	0	473	411	
3	0	0	0	0	474	411	
4	0	0	0	0	476	411	
5	0	0	0	0	477	411	
6	0	0	0	0	478	412	
7	0	0	0	0	479	411	
8	0	0	0	0	480	411	
9	0	0	0	0	480	412	
10	0	0	0	0	481	411	
11	0	0	0	0	481	411	
12	0	0	0	0	481	410	
13	0	0	0	0	482	410	
14	0	0	0	0	483	411	
15	0	0	0	0	483	411	
0	0	0	0	0	483	411	
1	0	0	0	0	483	411	
2	0	0	0	0	484	411	
3	0	0	0	0	484	411	
4	0	0	0	0	485	411	
5	0	0	0	0	486	411	
6	0	0	0	0	487	411	
7	0	0	0	0	488	411	
8	0	0	0	0	489	411	
9	0	0	0	0	491	412	
10	0	0	0	0	492	411	
11	0	0	0	0	493	412	
12	0	0	0	0	494	411	
13	0	0	0	0	494	411	
14	0	0	0	0	495	412	
15	0	0	0	0	495	412	
0	0	0	0	0	495	412	
1	0	0	0	0	496	412	
2	0	0	0	0	496	412	
3	0	0	0	0	497	412	
4	0	0	0	0	497	412	
5	0	0	0	0	498	411	
6	0	0	0	0	499	412	
7	0	0	0	0	499	412	
8	0	0	0	0	500	412	
9	0	0	0	0	501	413	
10	0	0	0	0	501	412	
11	0	0	0	0	502	413	
12	0	0	0	0	502	412	
13	0	0	0	0	502	412	
14	0	0	0	0	502	412	
15	0	0	0	0	503	412	
0	0	0	0	0	503	413	
1	0	0	0	0	504	413	
2	0	0	0	0	504	413	
3	0	0	0	0	504	413	
4	0	0	0	0	504	412	
5	0	0	0	0	504	412	
6	0	0	0	0	504	412	
7	0	0	0	0	504	412	
8	0	0	0	0	504	412	
9	0	0	0	0	505	413	
10	0	0	0	0	505	412	
11	0	0	0	0	506	411	
12	0	0	0	0	507	412	
13	0	0	0	0	507	412	
14	0	0	0	0	508	412	
15	0	0	0	0	508	412	
0	0	0	0	0	508	412	
1	0	0	0	0	508	412	
2	0	0	0	0	507	412	
3	0	0	0	0	507	411	
4	0	0	0	0	508	412	
5	0	0	0	0	509	412	
6	0	0	0	0	510	412	
7	0	0	0	0	510	411	
8	0	0	0	0	510	411	
9	0	0	0	0	511	413	
10	0	0	0	0	512	411	
11	0	0	0	0	512	411	
12	0	0	0	0	512	411	
13	0	0	0	0	512	411	
14	0	0	0	0	512	411	
15	0	0	0	0	513	411	
0	0	0	0	0	513	411	
1	0	0	0	0	513	412	
2	0	0	0	0	513	411	
3	0	0	0	0	514	411	
4	0	0	0	0	514	411	
5	0	0	0	0	514	411	
6	0	0	0	0	513	411	
7	0	0	0	0	513	411	
8	0	0	0	0	513	412	
9	0	0	0	0	514	412	
10	0	0	0	0	514	411	
11	0	0	0	0	515	411	
12	0	0	0	0	516	411	
13	0	0	0	0	516	411	
14	0	0	0	0	517	411	
15	0	0	0	0	518	410	
0	0	0	0	0	518	410	
1	0	0	0	0	519	411	
2	0	0	0	0	519	411	
3	0	0	0	0	519	410	
4	0	0	0	0	519	411	
5	0	0	0	0	520	411	
6	0	0	0	0	520	411	
7	0	0	0	0	520	411	
8	0	0	0	0	521	411	
9	0	0	0	0	521	412	
10	0	0	0	0	522	412	
11	0	0	0	0	522	411	
12	0	0	0	0	522	411	
13	0	0	0	0	520	411	
14	0	0	0	0	521	412	
15	0	0	0	0	521	412	
0	0	0	0	0	520	411	
1	0	0	0	0	520	412	
2	0	0	0	0	520	411	
3	0	0	0	0	520	412	
4	0	0	0	0	520	412	
5	0	0	0	0	520	411	
6	0	0	0	0	519	412	
7	0	0	0	0	519	411	
8	0	0	0	0	519	411	
9	0	0	0	0	519	412	
10	0	0	0	0	519	411	
11	0	0	0	0	519	411	
12	0	0	0	0	519	412	
13	0	0	0	0	518	411	
14	0	0	0	0	518	412	
15	0	0	0	0	517	412	
0	0	0	0	0	518	413	
1	0	0	0	0	518	412	
2	0	0	0	0	518	411	
3	0	0	0	0	518	412	
4	0	0	0	0	517	411	
5	0	0	0	0	517	412	
6	0	0	0	0	516	412	
7	0	0	0	0	516	412	
8	0	0	0	0	515	412	
9	0	0	0	0	514	412	
10	0	0	0	0	513	412	
11	0	0	0	0	513	412	
12	0	0	0	0	512	412	
13	0	0	0	0	512	412	
14	0	0	0	0	511	412	
15	0	0	0	0	511	412	
0	0	0	0	0	510	412	
1	0	0	0	0	509	414	
2	0	0	0	0	509	413	
3	0	0	0	0	508	413	
4	0	0	0	0	508	413	
5	0	0	0	0	508	412	
6	0	0	0	0	507	412	
7	0	0	0	0	506	412	
8	0	0	0	0	505	413	
9	0	0	0	0	504	413	
10	0	0	0	0	503	412	
11	0	0	0	0	501	412	
12	0	0	0	0	500	412	
13	0	0	0	0	499	412	
14	0	0	0	0	498	412	
15	0	0	0	0	497	412	
0	0	0	0	0	496	411	
1	0	0	0	0	495	412	
2	0	0	0	0	495	412	
3	0	0	0	0	493	412	
4	0	0	0	0	493	411	
5	0	0	0	0	492	411	
6	0	0	0	0	491	412	
7	0	0	0	0	489	411	
8	0	0	0	0	489	411	
9	0	0	0	0	488	412	
10	0	0	0	0	487	411	
11	0	0	0	0	487	412	
12	0	0	0	0	486	411	
13	0	0	0	0	484	410	
14	0	0	0	0	484	411	
15	0	0	0	0	483	411	
0	0	0	0	0	483	411	
1	0	0	0	0	482	411	
2	0	0	0	0	482	411	
3	0	0	0	0	482	411	
4	0	0	0	0	482	411	
5	0	0	0	0	481	410	
6	0	0	0	0	481	411	
7	0	0	0	0	481	412	
8	0	0	0	0	482	412	
9	0	0	0	0	482	412	
10	0	0	0	0	482	411	
11	0	0	0	0	482	411	
12	0	0	0	0	482	411	
13	0	0	0	0	483	412	
14	0	0	0	0	483	412	
15	0	0	0	0	484	411	
0	0	0	0	0	484	411	
1	0	0	0	0	485	412	
2	0	0	0	0	486	412	
3	0	0	0	0	487	411	
4	0	0	0	0	487	412	
5	0	0	0	0	488	411	
6	0	0	0	0	489	411	
7	0	0	0	0	489	411	
8	0	0	0	0	489	411	
9	0	0	0	0	489	412	
10	0	0	0	0	490	411	
11	0	0	0	0	490	411	
12	0	0	0	0	490	411	
13	0	0	0	0	490	411	
14	0	0	0	0	490	411	
15	0	0	0	0	491	411	
0	0	0	0	0	492	412	
1	0	0	0	0	492	413	
2	0	0	0	0	493	412	
3	0	0	0	0	493	412	
4	0	0	0	0	493	412	
5	0	0	0	0	493	411	
6	0	0	0	0	493	412	
7	0	0	0	0	493	411	
8	0	0	0	0	493	411	
9	0	0	0	0	494	412	
10	0	0	0	0	494	411	
11	0	0	0	0	495	411	
12	0	0	0	0	496	411	
13	0	0	0	0	496	411	
14	0	0	0	0	497	411	
15	0	0	0	0	498	411	
0	0	0	0	0	499	411	
1	0	0	0	0	499	412	
2	0	0	0	0	499	412	
3	0	0	0	0	500	412	
4	0	0	0	0	500	411	
5	0	0	0	0	500	411	
6	0	0	0	0	502	412	
7	0	0	0	0	502	411	
8	0	0	0	0	502	411	
9	0	0	0	0	503	412	
10	0	0	0	0	503	412	
11	0	0	0	0	503	411	
12	0	0	0	0	503	412	
13	0	0	0	0	503	411	
14	0	0	0	0	503	412	
15	0	0	0	0	503	412	
0	0	0	0	0	503	412	
1	0	0	0	0	503	412	
2	0	0	0	0	504	411	
3	0	0	0	0	504	411	
4	0	0	0	0	504	411	
5	0	0	0	0	505	411	
6	0	0	0	0	505	411	
7	0	0	0	0	505	411	
8	0	0	0	0	506	412	
9	0	0	0	0	506	412	
10	0	0	0	0	507	411	
11	0	0	0	0	506	411	
12	0	0	0	0	505	411	
13	0	0	0	0	504	411	
14	0	0	0	0	504	411	
15	0	0	0	0	503	411	
0	0	0	0	0	502	411	
1	0	0	0	0	502	411	
2	0	0	0	0	502	411	
3	0	0	0	0	502	411	
4	0	0	0	0	502	411	
5	0	0	0	0	502	411	
6	0	0	0	0	503	412	
7	0	0	0	0	503	412	
8	0	0	0	0	503	412	
9	0	0	0	0	503	412	
10	0	0	0	0	503	412	
11	0	0	0	0	504	412	
12	0	0	0	0	504	412	
13	0	0	0	0	504	411	
14	0	0	0	0	504	412	
15	0	0	0	0	504	412	
0	0	0	0	0	504	412	
1	0	0	0	0	504	413	
2	0	0	0	0	503	412	
3	0	0	0	0	503	412	
4	0	0	0	0	503	413	
5	0	0	0	0	503	412	
6	0	0	0	0	502	413	
7	0	0	0	0	502	412	
8	0	0	0	0	501	412	
9	0	0	0	0	502	413	
10	0	0	0	0	503	412	
11	0	0	0	0	503	411	
12	0	0	0	0	502	412	
13	0	0	0	0	503	412	
14	0	0	0	0	503	412	
15	0	0	0	0	503	412	
0	0	0	0	0	503	412	
1	0	0	0	0	503	412	
2	0	0	0	0	504	411	
3	0	0	0	0	505	411	
4	0	0	0	0	505	411	
5	0	0	0	0	505	411	
6	0	0	0	0	505	411	
7	0	0	0	0	505	411	
8	0	0	0	0	505	412	
9	0	0	0	0	506	412	
10	0	0	0	0	507	411	
11	0	0	0	0	508	412	
12	0	0	0	0	508	412	
13	0	0	0	0	508	411	
14	0	0	0	0	508	412	
15	0	0	0	0	509	412	
0	0	0	0	0	510	412	
1	0	0	0	0	511	413	
2	0	0	0	0	512	412	
3	0	0	0	0	512	412	
4	0	0	0	0	512	412	
5	0	0	0	0	512	412	
6	0	0	0	0	513	412	
7	0	0	0	0	514	412	
8	0	0	0	0	514	412	
9	0	0	0	0	514	413	
10	0	0	0	0	514	412	
11	0	0	0	0	514	412	
12	0	0	0	0	513	412	
13	0	0	0	0	513	412	
14	0	0	0	0	513	412	
15	0	0	0	0	513	413	
0	0	0	0	0	513	413	
1	0	0	0	0	514	414	
2	0	0	0	0	514	412	
3	0	0	0	0	515	413	
4	0	0	0	0	515	413	
5	0	0	0	0	516	412	
6	0	0	0	0	515	412	
7	0	0	0	0	515	412	
8	0	0	0	0	516	412	
9	0	0	0	0	516	413	
10	0	0	0	0	516	412	
11	0	0	0	0	518	412	
12	0	0	0	0	519	412	
13	0	0	0	0	519	412	
14	0	0	0	0	519	412	
15	0	0	0	0	519	412	
0	0	0	0	0	519	412	
1	0	0	0	0	518	413	
2	0	0	0	0	518	413	
3	0	0	0	0	517	413	
4	0	0	0	0	517	413	
5	0	0	0	0	518	413	
6	0	0	0	0	518	413	
7	0	0	0	0	518	414	
8	0	0	0	0	517	414	
9	0	0	0	0	517	414	
10	0	0	0	0	517	413	
11	0	0	0	0	517	413	
12	0	0	0	0	518	413	
13	0	0	0	0	518	413	
14	0	0	0	0	518	413	
15	0	0	0	0	518	412	
0	0	0	0	0	519	412	
1	0	0	0	0	519	412	
2	0	0	0	0	518	411	
3	0	0	0	0	517	411	
4	0	0	0	0	516	411	
5	0	0	0	0	516	410	
6	0	0	0	0	515	410	
7	0	0	0	0	514	409	
8	0	0	0	0	513	410	
9	0	0	0	0	513	411	
10	0	0	0	0	513	410	
11	0	0	0	0	513	410	
12	0	0	0	0	513	410	
13	0	0	0	0	512	410	
14	0	0	0	0	511	411	
15	0	0	0	0	511	411	
0	0	0	0	0	512	410	
1	0	0	0	0	511	411	
2	0	0	0	0	511	410	
3	0	0	0	0	512	409	
4	0	0	0	0	512	409	
5	0	0	0	0	512	409	
6	0	0	0	0	512	410	
7	0	0	0	0	512	409	
8	0	0	0	0	513	409	
9	0	0	0	0	513	411	
10	0	0	0	0	513	410	
11	0	0	0	0	513	410	
12	0	0	0	0	513	409	
13	0	0	0	0	513	409	
14	0	0	0	0	514	409	
15	0	0	0	0	514	409	
0	0	0	0	0	515	410	
1	0	0	0	0	515	411	
2	0	0	0	0	515	410	
3	0	0	0	0	514	411	
4	0	0	0	0	514	411	
5	0	0	0	0	514	410	
6	0	0	0	0	514	411	
7	0	0	0	0	513	411	
8	0	0	0	0	512	411	
9	0	0	0	0	512	412	
10	0	0	0	0	511	411	
11	0	0	0	0	511	412	
12	0	0	0	0	511	412	
13	0	0	0	0	510	412	
14	0	0	0	0	509	412	
15	0	0	0	0	508	412	
0	0	0	0	0	508	412	
1	0	0	0	0	507	413	
2	0	0	0	0	506	413	
3	0	0	0	0	506	412	
4	0	0	0	0	506	413	
5	0	0	0	0	505	412	
6	0	0	0	0	504	412	
7	0	0	0	0	504	413	
8	0	0	0	0	505	412	
9	0	0	0	0	504	413	
10	0	0	0	0	504	413	
11	0	0	0	0	503	413	
12	0	0	0	0	502	413	
13	0	0	0	0	502	412	
14	0	0	0	0	501	412	
15	0	0	0	0	501	413	
0	0	0	0	0	500	412	
1	0	0	0	0	499	414	
2	0	0	0	0	499	412	
3	0	0	0	0	498	411	
4	0	0	0	0	498	411	
5	0	0	0	0	497	411	
6	0	0	0	0	497	412	
7	0	0	0	0	497	411	
8	0	0	0	0	496	412	
9	0	0	0	0	496	412	
10	0	0	0	0	495	411	
11	0	0	0	0	495	411	
12	0	0	0	0	495	412	
13	0	0	0	0	495	411	
14	0	0	0	0	494	411	
15	0	0	0	0	494	411	
0	0	0	0	0	493	411	
1	0	0	0	0	493	411	
2	0	0	0	0	492	411	
3	0	0	0	0	492	412	
4	0	0	0	0	492	411	
5	0	0	0	0	492	410	
6	0	0	0	0	491	411	
7	0	0	0	0	490	411	
8	0	0	0	0	489	411	
9	0	0	0	0	489	412	
10	0	0	0	0	488	411	
11	0	0	0	0	487	411	
12	0	0	0	0	486	412	
13	0	0	0	0	486	411	
14	0	0	0	0	485	412	
15	0	0	0	0	484	412	
0	0	0	0	0	484	412	
1	0	0	0	0	484	412	
2	0	0	0	0	484	411	
3	0	0	0	0	483	411	
4	0	0	0	0	483	411	
5	0	0	0	0	484	411	
6	0	0	0	0	485	411	
7	0	0	0	0	484	412	
8	0	0	0	0	484	412	
9	0	0	0	0	483	412	
10	0	0	0	0	483	411	
11	0	0	0	0	482	411	
12	0	0	0	0	483	411	
13	0	0	0	0	483	411	
14	0	0	0	0	483	412	
15	0	0	0	0	483	411	
0	0	0	0	0	482	412	
1	0	0	0	0	481	412	
2	0	0	0	0	480	411	
3	0	0	0	0	480	411	
4	0	0	0	0	480	411	
5	0	0	0	0	479	411	
6	0	0	0	0	478	411	
7	0	0	0	0	477	411	
8	0	0	0	0	476	411	
9	0	0	0	0	476	412	
10	0	0	0	0	476	411	
11	0	0	0	0	477	411	
12	0	0	0	0	477	411	
13	0	0	0	0	477	411	
14	0	0	0	0	478	411	
15	0	0	0	0	478	412	
0	0	0	0	0	477	412	
1	0	0	0	0	478	412	
2	0	0	0	0	478	412	
3	0	0	0	0	479	412	
4	0	0	0	0	479	412	
5	0	0	0	0	480	412	
6	0	0	0	0	480	412	
7	0	0	0	0	481	412	
8	0	0	0	0	481	413	
9	0	0	0	0	481	413	
10	0	0	0	0	482	412	
11	0	0	0	0	482	412	
12	0	0	0	0	483	412	
13	0	0	0	0	483	411	
14	0	0	0	0	484	411	
15	0	0	0	0	485	411	
0	0	0	0	0	485	412	
1	0	0	0	0	486	412	
2	0	0	0	0	486	412	
3	0	0	0	0	486	411	
4	0	0	0	0	487	411	
5	0	0	0	0	487	411	
6	0	0	0	0	488	411	
7	0	0	0	0	488	411	
8	0	0	0	0	488	411	
9	0	0	0	0	488	412	
10	0	0	0	0	489	411	
11	0	0	0	0	489	410	
12	0	0	0	0	489	411	
13	0	0	0	0	490	411	
14	0	0	0	0	491	411	
15	0	0	0	0	491	411	
0	0	0	0	0	490	411	
1	0	0	0	0	490	412	
2	0	0	0	0	489	412	
3	0	0	0	0	490	411	
4	0	0	0	0	490	411	
5	0	0	0	0	491	411	
6	0	0	0	0	492	411	
7	0	0	0	0	492	411	
8	0	0	0	0	493	411	
9	0	0	0	0	493	412	
10	0	0	0	0	494	411	
11	0	0	0	0	494	412	
12	0	0	0	0	494	411	
13	0	0	0	0	494	411	
14	0	0	0	0	494	411	
15	0	0	0	0	494	411	
0	0	0	0	0	495	411	
1	0	0	0	0	495	412	
2	0	0	0	0	494	411	
3	0	0	0	0	494	411	
4	0	0	0	0	493	411	
5	0	0	0	0	492	411	
6	0	0	0	0	492	412	
7	0	0	0	0	491	412	
8	0	0	0	0	491	412	
9	0	0	0	0	491	412	
10	0	0	0	0	491	412	
11	0	0	0	0	491	412	
12	0	0	0	0	491	412	
13	0	0	0	0	491	412	
14	0	0	0	0	491	412	
15	0	0	0	0	490	412	
0	0	0	0	0	490	412	
1	0	0	0	0	491	413	
2	0	0	0	0	490	412	
3	0	0	0	0	490	412	
4	0	0	0	0	490	412	
5	0	0	0	0	491	412	
6	0	0	0	0	491	412	
7	0	0	0	0	491	412	
8	0	0	0	0	492	412	
9	0	0	0	0	492	412	
10	0	0	0	0	492	412	
11	0	0	0	0	492	412	
12	0	0	0	0	492	412	
13	0	0	0	0	493	412	
14	0	0	0	0	494	413	
15	0	0	0	0	495	412	
0	0	0	0	0	495	412	
1	0	0	0	0	496	413	
2	0	0	0	0	497	412	
3	0	0	0	0	497	412	
4	0	0	0	0	497	412	
5	0	0	0	0	498	411	
6	0	0	0	0	499	412	
7	0	0	0	0	498	412	
8	0	0	0	0	499	412	
9	0	0	0	0	499	412	
10	0	0	0	0	499	412	
11	0	0	0	0	499	412	
12	0	0	0	0	498	412	
13	0	0	0	0	497	411	
14	0	0	0	0	497	412	
15	0	0	0	0	496	412	
0	0	0	0	0	497	412	
1	0	0	0	0	496	412	
2	0	0	0	0	497	411	
3	0	0	0	0	497	412	
4	0	0	0	0	497	412	
5	0	0	0	0	498	411	
6	0	0	0	0	499	411	
7	0	0	0	0	499	411	
8	0	0	0	0	500	410	
9	0	0	0	0	501	412	
10	0	0	0	0	501	411	
11	0	0	0	0	502	411	
12	0	0	0	0	503	411	
13	0	0	0	0	504	411	
14	0	0	0	0	505	411	
15	0	0	0	0	505	411	
0	0	0	0	0	505	411	
1	0	0	0	0	506	412	
2	0	0	0	0	506	411	
3	0	0	0	0	506	410	
4	0	0	0	0	506	412	
5	0	0	0	0	506	411	
6	0	0	0	0	508	411	
7	0	0	0	0	508	411	
8	0	0	0	0	508	411	
9	0	0	0	0	508	412	
10	0	0	0	0	509	411	
11	0	0	0	0	509	411	
12	0	0	0	0	509	411	
13	0	0	0	0	509	411	
14	0	0	0	0	509	412	
15	0	0	0	0	509	411	
0	0	0	0	0	510	411	
1	0	0	0	0	510	412	
2	0	0	0	0	511	411	
3	0	0	0	0	511	411	
4	0	0	0	0	511	411	
5	0	0	0	0	511	411	
6	0	0	0	0	510	412	
7	0	0	0	0	510	412	
8	0	0	0	0	510	411	
9	0	0	0	0	510	412	
10	0	0	0	0	510	412	
11	0	0	0	0	509	412	
12	0	0	0	0	508	412	
13	0	0	0	0	506	411	
14	0	0	0	0	504	412	
15	0	0	0	0	501	412	
0	0	0	0	0	497	412	
1	0	0	0	0	492	412	
2	0	0	0	0	487	411	
3	0	0	0	0	482	411	
4	0	0	0	0	477	412	
5	0	0	0	0	472	412	
6	0	0	0	0	468	412	
7	0	0	0	0	464	412	
8	0	0	0	0	460	412	
9	0	0	0	0	458	413	
10	0	0	0	0	457	412	
11	0	0	0	0	459	412	
12	0	0	0	0	463	412	
13	0	0	0	0	470	412	
14	0	0	0	0	478	413	
15	0	0	0	0	488	413	
0	0	0	0	0	500	412	
1	0	0	0	0	512	413	
2	0	0	0	0	524	412	
3	0	0	0	0	536	412	
4	0	0	0	0	551	412	
5	0	0	0	0	567	411	
6	0	0	0	0	583	412	
7	0	0	0	0	602	412	
8	0	0	0	0	622	412	
9	0	0	0	0	642	413	
10	0	0	0	0	664	412	
11	0	0	0	0	687	411	
12	0	0	0	0	712	412	
13	0	0	0	0	739	412	
14	0	0	0	0	765	412	
15	0	0	0	0	791	412	
0	0	0	0	0	814	412	
1	0	0	0	0	833	412	
2	0	0	0	0	849	412	
3	0	0	0	0	860	412	
4	0	0	0	0	870	411	
5	0	0	0	0	878	412	
6	0	0	0	0	884	412	
7	0	0	0	0	889	412	
8	0	0	0	0	894	412	
9	0	0	0	0	897	412	
10	0	0	0	0	897	411	
11	0	0	0	0	891	411	
12	0	0	0	0	883	411	
13	0	0	0	0	869	411	
14	0	0	0	0	848	411	
15	0	0	0	0	822	411	
0	0	0	0	0	793	411	
1	0	0	0	0	762	412	
2	0	0	0	0	730	411	
3	0	0	0	0	696	411	
4	0	0	0	0	661	411	
5	0	0	0	0	627	411	
6	0	0	0	0	593	411	
7	0	0	0	0	562	411	
8	0	0	0	0	535	410	
9	0	0	0	0	511	412	
10	0	0	0	0	493	411	
11	0	0	0	0	480	411	
12	0	0	0	0	469	411	
13	0	0	0	0	461	410	
14	0	0	0	0	455	411	
15	0	0	0	0	450	411	
0	0	0	0	0	445	411	
1	0	0	0	0	439	412	
2	0	0	0	0	435	411	
3	0	0	0	0	432	411	
4	0	0	0	0	428	410	
5	0	0	0	0	424	411	
6	0	0	0	0	421	412	
7	0	0	0	0	418	412	
8	0	0	0	0	415	412	
9	0	0	0	0	413	412	
10	0	0	0	0	412	411	
11	0	0	0	0	410	412	
12	0	0	0	0	409	412	
13	0	0	0	0	408	412	
14	0	0	0	0	408	412	
15	0	0	0	0	408	412	
0	0	0	0	0	408	412	
1	0	0	0	0	408	413	
2	0	0	0	0	409	412	
3	0	0	0	0	410	412	
4	0	0	0	0	411	412	
5	0	0	0	0	411	412	
6	0	0	0	0	412	412	
7	0	0	0	0	413	412	
8	0	0	0	0	414	413	
9	0	0	0	0	415	413	
10	0	0	0	0	415	413	
11	0	0	0	0	417	412	
12	0	0	0	0	418	412	
13	0	0	0	0	419	411	
14	0	0	0	0	420	412	
15	0	0	0	0	420	411	
0	0	0	0	0	421	412	
1	0	0	0	0	422	412	
2	0	0	0	0	423	412	
3	0	0	0	0	425	412	
4	0	0	0	0	427	411	
5	0	0	0	0	428	411	
6	0	0	0	0	430	411	
7	0	0	0	0	431	412	
8	0	0	0	0	433	412	
9	0	0	0	0	433	412	
10	0	0	0	0	434	412	
11	0	0	0	0	435	411	
12	0	0	0	0	436	411	
13	0	0	0	0	437	411	
14	0	0	0	0	439	412	
15	0	0	0	0	441	411	
0	0	0	0	0	442	411	
1	0	0	0	0	444	412	
2	0	0	0	0	444	411	
3	0	0	0	0	446	412	
4	0	0	0	0	446	412	
5	0	0	0	0	448	412	
6	0	0	0	0	449	412	
7	0	0	0	0	450	412	
8	0	0	0	0	451	412	
9	0	0	0	0	451	412	
10	0	0	0	0	453	412	
11	0	0	0	0	454	412	
12	0	0	0	0	455	412	
13	0	0	0	0	455	411	
14	0	0	0	0	456	412	
15	0	0	0	0	457	412	
0	0	0	0	0	458	411	
1	0	0	0	0	459	412	
2	0	0	0	0	460	411	
3	0	0	0	0	460	411	
4	0	0	0	0	461	411	
5	0	0	0	0	461	411	
6	0	0	0	0	461	411	
7	0	0	0	0	461	411	
8	0	0	0	0	461	410	
9	0	0	0	0	462	411	
10	0	0	0	0	463	411	
11	0	0	0	0	463	412	
12	0	0	0	0	463	411	
13	0	0	0	0	463	411	
14	0	0	0	0	464	411	
15	0	0	0	0	464	411	
0	0	0	0	0	466	411	
1	0	0	0	0	466	412	
2	0	0	0	0	467	411	
3	0	0	0	0	468	411	
4	0	0	0	0	469	411	
5	0	0	0	0	470	411	
6	0	0	0	0	471	412	
7	0	0	0	0	472	412	
8	0	0	0	0	472	412	
9	0	0	0	0	473	412	
10	0	0	0	0	474	412	
11	0	0	0	0	475	412	
12	0	0	0	0	476	412	
13	0	0	0	0	478	412	
14	0	0	0	0	479	412	
15	0	0	0	0	480	412	
0	0	0	0	0	480	412	
1	0	0	0	0	481	412	
2	0	0	0	0	482	412	
3	0	0	0	0	483	412	
4	0	0	0	0	483	412	
5	0	0	0	0	484	412	
6	0	0	0	0	484	412	
7	0	0	0	0	485	412	
8	0	0	0	0	485	412	
9	0	0	0	0	486	412	
10	0	0	0	0	487	412	
11	0	0	0	0	486	412	
12	0	0	0	0	487	412	
13	0	0	0	0	486	412	
14	0	0	0	0	486	412	
15	0	0	0	0	486	412	
0	0	0	0	0	485	412	
1	0	0	0	0	486	413	
2	0	0	0	0	485	412	
3	0	0	0	0	485	412	
4	0	0	0	0	486	412	
5	0	0	0	0	486	412	
6	0	0	0	0	486	412	
7	0	0	0	0	486	412	
8	0	0	0	0	487	412	
9	0	0	0	0	487	413	
10	0	0	0	0	488	412	
11	0	0	0	0	488	412	
12	0	0	0	0	489	413	
13	0	0	0	0	489	412	
14	0	0	0	0	489	412	
15	0	0	0	0	489	412	
0	0	0	0	0	489	412	
1	0	0	0	0	489	413	
2	0	0	0	0	490	412	
3	0	0	0	0	489	411	
4	0	0	0	0	490	412	
5	0	0	0	0	489	411	
6	0	0	0	0	489	412	
7	0	0	0	0	489	412	
8	0	0	0	0	489	411	
9	0	0	0	0	489	411	
10	0	0	0	0	489	411	
11	0	0	0	0	488	411	
12	0	0	0	0	489	411	
13	0	0	0	0	488	410	
14	0	0	0	0	489	411	
15	0	0	0	0	489	410	
0	0	0	0	0	489	410	
1	0	0	0	0	490	411	
2	0	0	0	0	490	410	
3	0	0	0	0	490	410	
4	0	0	0	0	490	410	
5	0	0	0	0	491	409	
6	0	0	0	0	491	410	
7	0	0	0	0	491	410	
8	0	0	0	0	491	410	
9	0	0	0	0	492	411	
10	0	0	0	0	492	410	
11	0	0	0	0	493	410	
12	0	0	0	0	493	409	
13	0	0	0	0	493	410	
14	0	0	0	0	493	409	
15	0	0	0	0	494	411	
0	0	0	0	0	494	411	
1	0	0	0	0	495	411	
2	0	0	0	0	495	411	
3	0	0	0	0	495	411	
4	0	0	0	0	495	411	
5	0	0	0	0	496	411	
6	0	0	0	0	496	411	
7	0	0	0	0	496	412	
8	0	0	0	0	496	411	
9	0	0	0	0	497	412	
10	0	0	0	0	497	411	
11	0	0	0	0	498	411	
12	0	0	0	0	499	411	
13	0	0	0	0	500	411	
14	0	0	0	0	500	411	
15	0	0	0	0	501	411	
0	0	0	0	0	502	411	
1	0	0	0	0	504	412	
2	0	0	0	0	504	412	
3	0	0	0	0	505	412	
4	0	0	0	0	505	412	
5	0	0	0	0	507	411	
6	0	0	0	0	507	412	
7	0	0	0	0	508	412	
8	0	0	0	0	508	412	
9	0	0	0	0	509	413	
10	0	0	0	0	510	412	
11	0	0	0	0	510	412	
12	0	0	0	0	509	412	
13	0	0	0	0	509	412	
14	0	0	0	0	510	412	
15	0	0	0	0	510	412	
0	0	0	0	0	510	412	
1	0	0	0	0	510	412	
2	0	0	0	0	510	412	
3	0	0	0	0	510	411	
4	0	0	0	0	509	412	
5	0	0	0	0	509	411	
6	0	0	0	0	509	411	
7	0	0	0	0	508	411	
8	0	0	0	0	508	412	
9	0	0	0	0	508	412	
10	0	0	0	0	508	412	
11	0	0	0	0	507	411	
12	0	0	0	0	506	411	
13	0	0	0	0	506	411	
14	0	0	0	0	506	412	
15	0	0	0	0	506	412	
0	0	0	0	0	506	412	
1	0	0	0	0	506	414	
2	0	0	0	0	505	413	
3	0	0	0	0	505	412	
4	0	0	0	0	505	412	
5	0	0	0	0	505	412	
6	0	0	0	0	505	412	
7	0	0	0	0	505	413	
8	0	0	0	0	505	412	
9	0	0	0	0	504	413	
10	0	0	0	0	504	412	
11	0	0	0	0	504	412	
12	0	0	0	0	504	412	
13	0	0	0	0	504	412	
14	0	0	0	0	504	412	
15	0	0	0	0	504	412	
0	0	0	0	0	504	412	
1	0	0	0	0	504	412	
2	0	0	0	0	503	412	
3	0	0	0	0	503	411	
4	0	0	0	0	503	412	
5	0	0	0	0	502	411	
6	0	0	0	0	501	412	
7	0	0	0	0	501	412	
8	0	0	0	0	500	412	
9	0	0	0	0	500	412	
10	0	0	0	0	499	412	
11	0	0	0	0	500	412	
12	0	0	0	0	500	411	
13	0	0	0	0	499	412	
14	0	0	0	0	499	411	
15	0	0	0	0	499	412	
0	0	0	0	0	499	411	
1	0	0	0	0	499	412	
2	0	0	0	0	499	412	
3	0	0	0	0	499	411	
4	0	0	0	0	499	412	
5	0	0	0	0	499	411	
6	0	0	0	0	499	411	
7	0	0	0	0	499	412	
8	0	0	0	0	499	412	
9	0	0	0	0	499	412	
10	0	0	0	0	499	412	
11	0	0	0	0	499	412	
12	0	0	0	0	498	411	
13	0	0	0	0	498	411	
14	0	0	0	0	498	412	
15	0	0	0	0	499	412	
0	0	0	0	0	498	412	
1	0	0	0	0	498	412	
2	0	0	0	0	498	411	
3	0	0	0	0	497	411	
4	0	0	0	0	497	411	
5	0	0	0	0	496	411	
6	0	0	0	0	497	412	
7	0	0	0	0	497	412	
8	0	0	0	0	497	411	
9	0	0	0	0	497	412	
10	0	0	0	0	497	412	
11	0	0	0	0	497	411	
12	0	0	0	0	497	412	
13	0	0	0	0	496	411	
14	0	0	0	0	497	411	
15	0	0	0	0	496	411	
0	0	0	0	0	497	412	
1	0	0	0	0	496	412	
2	0	0	0	0	496	412	
3	0	0	0	0	495	412	
4	0	0	0	0	495	412	
5	0	0	0	0	495	412	
6	0	0	0	0	496	412	
7	0	0	0	0	496	413	
8	0	0	0	0	497	412	
9	0	0	0	0	497	412	
10	0	0	0	0	497	412	
11	0	0	0	0	498	411	
12	0	0	0	0	497	411	
13	0	0	0	0	497	411	
14	0	0	0	0	497	411	
15	0	0	0	0	496	412	
0	0	0	0	0	496	411	
1	0	0	0	0	496	412	
2	0	0	0	0	496	411	
3	0	0	0	0	496	411	
4	0	0	0	0	496	412	
5	0	0	0	0	495	411	
6	0	0	0	0	495	412	
7	0	0	0	0	495	411	
8	0	0	0	0	494	411	
9	0	0	0	0	495	412	
10	0	0	0	0	495	411	
11	0	0	0	0	495	411	
12	0	0	0	0	495	411	
13	0	0	0	0	495	411	
14	0	0	0	0	496	412	
15	0	0	0	0	496	412	
0	0	0	0	0	496	412	
1	0	0	0	0	497	413	
2	0	0	0	0	497	412	
3	0	0	0	0	498	412	
4	0	0	0	0	498	412	
5	0	0	0	0	499	412	
6	0	0	0	0	499	412	
7	0	0	0	0	500	413	
8	0	0	0	0	501	412	
9	0	0	0	0	501	413	
10	0	0	0	0	502	412	
11	0	0	0	0	503	412	
12	0	0	0	0	504	412	
13	0	0	0	0	504	411	
14	0	0	0	0	504	412	
15	0	0	0	0	504	411	
0	0	0	0	0	504	412	
1	0	0	0	0	504	412	
2	0	0	0	0	504	412	
3	0	0	0	0	504	412	
4	0	0	0	0	504	412	
5	0	0	0	0	504	411	
6	0	0	0	0	503	411	
7	0	0	0	0	503	411	
8	0	0	0	0	503	411	
9	0	0	0	0	502	412	
10	0	0	0	0	503	412	
11	0	0	0	0	502	411	
12	0	0	0	0	503	411	
13	0	0	0	0	502	411	
14	0	0	0	0	502	411	
15	0	0	0	0	502	411	
0	0	0	0	0	501	411	
1	0	0	0	0	501	412	
2	0	0	0	0	501	411	
3	0	0	0	0	500	411	
4	0	0	0	0	500	411	
5	0	0	0	0	500	411	
6	0	0	0	0	499	411	
7	0	0	0	0	499	411	
8	0	0	0	0	498	412	
9	0	0	0	0	497	412	
10	0	0	0	0	496	411	
11	0	0	0	0	496	412	
12	0	0	0	0	495	412	
13	0	0	0	0	494	411	
14	0	0	0	0	494	411	
15	0	0	0	0	494	411	
0	0	0	0	0	493	411	
1	0	0	0	0	493	411	
2	0	0	0	0	493	412	
3	0	0	0	0	494	411	
4	0	0	0	0	493	411	
5	0	0	0	0	493	411	
6	0	0	0	0	493	411	
7	0	0	0	0	493	412	
8	0	0	0	0	494	412	
9	0	0	0	0	494	412	
10	0	0	0	0	494	411	
11	0	0	0	0	494	411	
12	0	0	0	0	494	411	
13	0	0	0	0	494	412	
14	0	0	0	0	494	411	
15	0	0	0	0	494	411	
0	0	0	0	0	494	412	
1	0	0	0	0	494	412	
2	0	0	0	0	494	412	
3	0	0	0	0	494	413	
4	0	0	0	0	493	412	
5	0	0	0	0	493	411	
6	0	0	0	0	493	412	
7	0	0	0	0	493	412	
8	0	0	0	0	493	412	
9	0	0	0	0	492	413	
10	0	0	0	0	492	412	
11	0	0	0	0	492	412	
12	0	0	0	0	492	413	
13	0	0	0	0	492	412	
14	0	0	0	0	492	413	
15	0	0	0	0	492	412	
0	0	0	0	0	492	412	
1	0	0	0	0	492	413	
2	0	0	0	0	491	412	
3	0	0	0	0	492	412	
4	0	0	0	0	492	412	
5	0	0	0	0	491	411	
6	0	0	0	0	491	413	
7	0	0	0	0	492	413	
8	0	0	0	0	492	412	
9	0	0	0	0	492	413	
10	0	0	0	0	492	411	
11	0	0	0	0	493	412	
12	0	0	0	0	493	411	
13	0	0	0	0	494	411	
14	0	0	0	0	493	412	
15	0	0	0	0	493	411	
0	0	0	0	0	494	411	
1	0	0	0	0	493	412	
2	0	0	0	0	493	411	
3	0	0	0	0	493	411	
4	0	0	0	0	494	411	
5	0	0	0	0	494	411	
6	0	0	0	0	494	411	
7	0	0	0	0	494	411	
8	0	0	0	0	493	411	
9	0	0	0	0	493	412	
10	0	0	0	0	494	411	
11	0	0	0	0	494	412	
12	0	0	0	0	493	411	
13	0	0	0	0	493	411	
14	0	0	0	0	492	411	
15	0	0	0	0	492	411	
0	0	0	0	0	492	411	
1	0	0	0	0	492	412	
2	0	0	0	0	491	410	
3	0	0	0	0	491	411	
4	0	0	0	0	491	411	
5	0	0	0	0	490	411	
6	0	0	0	0	489	412	
7	0	0	0	0	489	412	
8	0	0	0	0	488	411	
9	0	0	0	0	488	412	
10	0	0	0	0	487	411	
11	0	0	0	0	487	411	
12	0	0	0	0	487	411	
13	0	0	0	0	487	411	
14	0	0	0	0	487	412	
15	0	0	0	0	488	411	
0	0	0	0	0	488	411	
1	0	0	0	0	488	412	
2	0	0	0	0	487	411	
3	0	0	0	0	488	411	
4	0	0	0	0	487	412	
5	0	0	0	0	487	411	
6	0	0	0	0	487	411	
7	0	0	0	0	487	412	
8	0	0	0	0	487	412	
9	0	0	0	0	487	412	
10	0	0	0	0	487	411	
11	0	0	0	0	487	411	
12	0	0	0	0	487	411	
13	0	0	0	0	487	411	
14	0	0	0	0	487	411	
15	0	0	0	0	487	411	
0	0	0	0	0	488	412	
1	0	0	0	0	488	412	
2	0	0	0	0	488	411	
3	0	0	0	0	487	411	
4	0	0	0	0	487	412	
5	0	0	0	0	486	411	
6	0	0	0	0	486	412	
7	0	0	0	0	486	412	
8	0	0	0	0	486	411	
9	0	0	0	0	486	412	
10	0	0	0	0	487	412	
11	0	0	0	0	486	411	
12	0	0	0	0	486	412	
13	0	0	0	0	486	411	
14	0	0	0	0	486	411	
15	0	0	0	0	486	412	
0	0	0	0	0	486	411	
1	0	0	0	0	486	412	
2	0	0	0	0	486	411	
3	0	0	0	0	485	412	
4	0	0	0	0	484	412	
5	0	0	0	0	484	411	
6	0	0	0	0	484	412	
7	0	0	0	0	483	411	
8	0	0	0	0	484	411	
9	0	0	0	0	484	412	
10	0	0	0	0	484	411	
11	0	0	0	0	484	412	
12	0	0	0	0	485	412	
13	0	0	0	0	485	412	
14	0	0	0	0	485	412	
15	0	0	0	0	485	412	
0	0	0	0	0	485	412	
1	0	0	0	0	486	412	
2	0	0	0	0	486	412	
3	0	0	0	0	486	412	
4	0	0	0	0	485	411	
5	0	0	0	0	485	412	
6	0	0	0	0	486	412	
7	0	0	0	0	486	412	
8	0	0	0	0	486	412	
9	0	0	0	0	485	412	
10	0	0	0	0	486	411	
11	0	0	0	0	486	411	
12	0	0	0	0	486	411	
13	0	0	0	0	486	411	
14	0	0	0	0	486	412	
15	0	0	0	0	486	412	
0	0	0	0	0	485	412	
1	0	0	0	0	485	412	
2	0	0	0	0	485	411	
3	0	0	0	0	485	412	
4	0	0	0	0	486	412	
5	0	0	0	0	486	412	
6	0	0	0	0	486	412	
7	0	0	0	0	487	412	
8	0	0	0	0	487	412	
9	0	0	0	0	487	412	
10	0	0	0	0	487	412	
11	0	0	0	0	487	412	
12	0	0	0	0	487	412	
13	0	0	0	0	486	412	
14	0	0	0	0	486	411	
15	0	0	0	0	485	411	
0	0	0	0	0	485	411	
1	0	0	0	0	485	412	
2	0	0	0	0	484	411	
3	0	0	0	0	484	411	
4	0	0	0	0	483	411	
5	0	0	0	0	482	410	
6	0	0	0	0	482	411	
7	0	0	0	0	481	411	
8	0	0	0	0	481	412	
9	0	0	0	0	480	412	
10	0	0	0	0	480	411	
11	0	0	0	0	480	411	
12	0	0	0	0	480	411	
13	0	0	0	0	480	411	
14	0	0	0	0	480	411	
15	0	0	0	0	480	412	
0	0	0	0	0	479	411	
1	0	0	0	0	479	412	
2	0	0	0	0	479	411	
3	0	0	0	0	479	411	
4	0	0	0	0	480	412	
5	0	0	0	0	480	412	
6	0	0	0	0	480	412	
7	0	0	0	0	480	411	
8	0	0	0	0	481	411	
9	0	0	0	0	481	411	
10	0	0	0	0	481	411	
11	0	0	0	0	482	412	
12	0	0	0	0	482	412	
13	0	0	0	0	482	411	
14	0	0	0	0	482	412	
15	0	0	0	0	483	411	
0	0	0	0	0	483	412	
1	0	0	0	0	484	412	
2	0	0	0	0	484	411	
3	0	0	0	0	485	412	
4	0	0	0	0	485	411	
5	0	0	0	0	486	411	
6	0	0	0	0	486	412	
7	0	0	0	0	487	412	
8	0	0	0	0	487	412	
9	0	0	0	0	488	412	
10	0	0	0	0	489	412	
11	0	0	0	0	491	412	
12	0	0	0	0	492	412	
13	0	0	0	0	493	411	
14	0	0	0	0	494	412	
15	0	0	0	0	494	412	
0	0	0	0	0	494	412	
1	0	0	0	0	494	413	
2	0	0	0	0	495	412	
3	0	0	0	0	495	412	
4	0	0	0	0	496	411	
5	0	0	0	0	496	411	
6	0	0	0	0	496	412	
7	0	0	0	0	496	411	
8	0	0	0	0	496	412	
9	0	0	0	0	496	412	
10	0	0	0	0	496	411	
11	0	0	0	0	496	411	
12	0	0	0	0	497	411	
13	0	0	0	0	497	410	
14	0	0	0	0	497	410	
15	0	0	0	0	497	411	
0	0	0	0	0	498	411	
1	0	0	0	0	498	412	
2	0	0	0	0	498	411	
3	0	0	0	0	498	411	
4	0	0	0	0	499	411	
5	0	0	0	0	498	411	
6	0	0	0	0	497	410	
7	0	0	0	0	498	411	
8	0	0	0	0	497	410	
9	0	0	0	0	497	411	
10	0	0	0	0	497	411	
11	0	0	0	0	498	411	
12	0	0	0	0	498	411	
13	0	0	0	0	498	411	
14	0	0	0	0	497	411	
15	0	0	0	0	497	411	
0	0	0	0	0	498	411	
1	0	0	0	0	497	412	
2	0	0	0	0	497	411	
3	0	0	0	0	497	412	
4	0	0	0	0	498	412	
5	0	0	0	0	497	411	
6	0	0	0	0	497	411	
7	0	0	0	0	497	411	
8	0	0	0	0	497	412	
9	0	0	0	0	497	413	
10	0	0	0	0	496	412	
11	0	0	0	0	496	412	
12	0	0	0	0	496	412	
13	0	0	0	0	496	411	
14	0	0	0	0	496	412	
15	0	0	0	0	496	412	
0	0	0	0	0	496	412	
1	0	0	0	0	495	413	
2	0	0	0	0	495	412	
3	0	0	0	0	495	412	
4	0	0	0	0	495	413	
5	0	0	0	0	495	413	
6	0	0	0	0	494	412	
7	0	0	0	0	495	412	
8	0	0	0	0	494	412	
9	0	0	0	0	494	413	
10	0	0	0	0	494	412	
11	0	0	0	0	494	412	
12	0	0	0	0	493	412	
13	0	0	0	0	493	412	
14	0	0	0	0	493	412	
15	0	0	0	0	493	412	
0	0	0	0	0	493	412	
1	0	0	0	0	493	412	
2	0	0	0	0	493	412	
3	0	0	0	0	492	412	
4	0	0	0	0	492	412	
5	0	0	0	0	492	411	
6	0	0	0	0	493	412	
7	0	0	0	0	492	412	
8	0	0	0	0	492	412	
9	0	0	0	0	492	412	
10	0	0	0	0	492	412	
11	0	0	0	0	492	412	
12	0	0	0	0	492	411	
13	0	0	0	0	493	411	
14	0	0	0	0	494	412	
15	0	0	0	0	494	411	
0	0	0	0	0	494	411	
1	0	0	0	0	494	412	
2	0	0	0	0	495	412	
3	0	0	0	0	494	411	
4	0	0	0	0	494	411	
5	0	0	0	0	494	411	
6	0	0	0	0	494	411	
7	0	0	0	0	494	411	
8	0	0	0	0	494	411	
9	0	0	0	0	493	412	
10	0	0	0	0	494	411	
11	0	0	0	0	493	411	
12	0	0	0	0	492	411	
13	0	0	0	0	492	411	
14	0	0	0	0	492	411	
15	0	0	0	0	492	411	
0	0	0	0	0	491	411	
1	0	0	0	0	491	412	
2	0	0	0	0	491	412	
3	0	0	0	0	490	412	
4	0	0	0	0	490	412	
5	0	0	0	0	490	411	
6	0	0	0	0	490	412	
7	0	0	0	0	491	412	
8	0	0	0	0	490	412	
9	0	0	0	0	490	413	
10	0	0	0	0	489	412	
11	0	0	0	0	489	412	
12	0	0	0	0	488	411	
13	0	0	0	0	487	412	
14	0	0	0	0	487	411	
15	0	0	0	0	487	411	
0	0	0	0	0	487	411	
1	0	0	0	0	487	412	
2	0	0	0	0	486	411	
3	0	0	0	0	486	412	
4	0	0	0	0	486	412	
5	0	0	0	0	486	411	
6	0	0	0	0	486	412	
7	0	0	0	0	486	412	
8	0	0	0	0	486	412	
9	0	0	0	0	485	413	
10	0	0	0	0	484	411	
11	0	0	0	0	483	412	
12	0	0	0	0	481	412	
13	0	0	0	0	480	412	
14	0	0	0	0	477	411	
15	0	0	0	0	474	412	
0	0	0	0	0	471	411	
1	0	0	0	0	466	412	
2	0	0	0	0	462	411	
3	0	0	0	0	457	411	
4	0	0	0	0	454	412	
5	0	0	0	0	450	411	
6	0	0	0	0	446	412	
7	0	0	0	0	444	411	
8	0	0	0	0	441	412	
9	0	0	0	0	440	412	
10	0	0	0	0	440	412	
11	0	0	0	0	443	411	
12	0	0	0	0	446	411	
13	0	0	0	0	452	411	
14	0	0	0	0	459	411	
15	0	0	0	0	468	412	
0	0	0	0	0	479	412	
1	0	0	0	0	490	412	
2	0	0	0	0	502	411	
3	0	0	0	0	514	411	
4	0	0	0	0	527	411	
5	0	0	0	0	542	411	
6	0	0	0	0	560	412	
7	0	0	0	0	577	412	
8	0	0	0	0	595	411	
9	0	0	0	0	616	412	
10	0	0	0	0	637	411	
11	0	0	0	0	661	412	
12	0	0	0	0	687	412	
13	0	0	0	0	714	412	
14	0	0	0	0	740	412	
15	0	0	0	0	764	411	
0	0	0	0	0	784	411	
1	0	0	0	0	804	412	
2	0	0	0	0	821	411	
3	0	0	0	0	834	411	
4	0	0	0	0	844	411	
5	0	0	0	0	851	411	
6	0	0	0	0	857	411	
7	0	0	0	0	861	411	
8	0	0	0	0	864	410	
9	0	0	0	0	864	411	
10	0	0	0	0	864	411	
11	0	0	0	0	860	411	
12	0	0	0	0	851	411	
13	0	0	0	0	839	410	
14	0	0	0	0	821	412	
15	0	0	0	0	797	411	
0	0	0	0	0	770	412	
1	0	0	0	0	743	412	
2	0	0	0	0	713	411	
3	0	0	0	0	682	411	
4	0	0	0	0	651	412	
5	0	0	0	0	618	411	
6	0	0	0	0	586	411	
7	0	0	0	0	557	412	
8	0	0	0	0	530	412	
9	0	0	0	0	505	412	
10	0	0	0	0	484	412	
11	0	0	0	0	468	412	
12	0	0	0	0	454	412	
13	0	0	0	0	444	412	
14	0	0	0	0	436	412	
15	0	0	0	0	430	412	
0	0	0	0	0	425	412	
1	0	0	0	0	421	412	
2	0	0	0	0	418	412	
3	0	0	0	0	415	412	
4	0	0	0	0	411	412	
5	0	0	0	0	408	412	
6	0	0	0	0	407	411	
7	0	0	0	0	404	412	
8	0	0	0	0	403	411	
9	0	0	0	0	401	412	
10	0	0	0	0	401	411	
11	0	0	0	0	401	412	
12	0	0	0	0	401	411	
13	0	0	0	0	401	411	
14	0	0	0	0	401	410	
15	0	0	0	0	401	411	
0	0	0	0	0	401	411	
1	0	0	0	0	403	412	
2	0	0	0	0	403	411	
3	0	0	0	0	404	412	
4	0	0	0	0	405	411	
5	0	0	0	0	406	411	
6	0	0	0	0	408	411	
7	0	0	0	0	408	412	
8	0	0	0	0	409	412	
9	0	0	0	0	410	413	
10	0	0	0	0	412	412	
11	0	0	0	0	412	410	
12	0	0	0	0	413	411	
13	0	0	0	0	414	411	
14	0	0	0	0	415	411	
15	0	0	0	0	415	411	
0	0	0	0	0	416	412	
1	0	0	0	0	417	413	
2	0	0	0	0	417	412	
3	0	0	0	0	418	412	
4	0	0	0	0	419	412	
5	0	0	0	0	419	412	
6	0	0	0	0	420	413	
7	0	0	0	0	421	412	
8	0	0	0	0	422	412	
9	0	0	0	0	423	413	
10	0	0	0	0	424	412	
11	0	0	0	0	425	412	
12	0	0	0	0	426	412	
13	0	0	0	0	427	412	
14	0	0	0	0	428	411	
15	0	0	0	0	429	411	
0	0	0	0	0	430	412	
1	0	0	0	0	430	412	
2	0	0	0	0	431	411	
3	0	0	0	0	431	411	
4	0	0	0	0	432	411	
5	0	0	0	0	433	411	
6	0	0	0	0	433	411	
7	0	0	0	0	434	410	
8	0	0	0	0	435	410	
9	0	0	0	0	436	412	
10	0	0	0	0	438	411	
11	0	0	0	0	439	410	
12	0	0	0	0	440	411	
13	0	0	0	0	440	410	
14	0	0	0	0	441	409	
15	0	0	0	0	443	410	
0	0	0	0	0	443	409	
1	0	0	0	0	444	411	
2	0	0	0	0	445	410	
3	0	0	0	0	445	410	
4	0	0	0	0	446	411	
5	0	0	0	0	446	410	
6	0	0	0	0	447	411	
7	0	0	0	0	447	411	
8	0	0	0	0	448	411	
9	0	0	0	0	449	412	
10	0	0	0	0	450	411	
11	0	0	0	0	451	412	
12	0	0	0	0	451	412	
13	0	0	0	0	451	411	
14	0	0	0	0	452	412	
15	0	0	0	0	453	412	
0	0	0	0	0	453	412	
1	0	0	0	0	454	413	
2	0	0	0	0	455	412	
3	0	0	0	0	456	412	
4	0	0	0	0	457	412	
5	0	0	0	0	458	412	
6	0	0	0	0	459	412	
7	0	0	0	0	459	412	
8	0	0	0	0	460	414	
9	0	0	0	0	461	414	
10	0	0	0	0	462	412	
11	0	0	0	0	463	412	
12	0	0	0	0	464	412	
13	0	0	0	0	464	412	
14	0	0	0	0	465	412	
15	0	0	0	0	466	412	
0	0	0	0	0	467	412	
1	0	0	0	0	467	413	
2	0	0	0	0	468	413	
3	0	0	0	0	469	412	
4	0	0	0	0	470	412	
5	0	0	0	0	470	412	
6	0	0	0	0	470	412	
7	0	0	0	0	471	413	
8	0	0	0	0	471	412	
9	0	0	0	0	472	414	
10	0	0	0	0	472	412	
11	0	0	0	0	473	412	
12	0	0	0	0	474	412	
13	0	0	0	0	475	412	
14	0	0	0	0	476	413	
15	0	0	0	0	477	412	
0	0	0	0	0	477	411	
1	0	0	0	0	478	412	
2	0	0	0	0	479	411	
3	0	0	0	0	479	411	
4	0	0	0	0	480	411	
5	0	0	0	0	480	411	
6	0	0	0	0	481	411	
7	0	0	0	0	482	411	
8	0	0	0	0	483	411	
9	0	0	0	0	483	412	
10	0	0	0	0	484	411	
11	0	0	0	0	485	411	
12	0	0	0	0	486	410	
13	0	0	0	0	486	410	
14	0	0	0	0	487	411	
15	0	0	0	0	487	411	
0	0	0	0	0	489	411	
1	0	0	0	0	490	412	
2	0	0	0	0	491	411	
3	0	0	0	0	493	410	
4	0	0	0	0	493	411	
5	0	0	0	0	494	411	
6	0	0	0	0	495	411	
7	0	0	0	0	496	412	
8	0	0	0	0	497	411	
9	0	0	0	0	498	412	
10	0	0	0	0	499	412	
11	0	0	0	0	500	411	
12	0	0	0	0	500	411	
13	0	0	0	0	501	410	
14	0	0	0	0	501	411	
15	0	0	0	0	502	411	
0	0	0	0	0	502	411	
1	0	0	0	0	502	411	
2	0	0	0	0	503	411	
3	0	0	0	0	504	410	
4	0	0	0	0	504	411	
5	0	0	0	0	504	411	
6	0	0	0	0	505	411	
7	0	0	0	0	505	411	
8	0	0	0	0	505	410	
9	0	0	0	0	505	411	
10	0	0	0	0	506	411	
11	0	0	0	0	506	411	
12	0	0	0	0	506	411	
13	0	0	0	0	507	411	
14	0	0	0	0	508	411	
15	0	0	0	0	509	411	
0	0	0	0	0	509	411	
1	0	0	0	0	510	412	
2	0	0	0	0	511	412	
3	0	0	0	0	512	411	
4	0	0	0	0	512	412	
5	0	0	0	0	514	411	
6	0	0	0	0	515	412	
7	0	0	0	0	516	411	
8	0	0	0	0	517	412	
9	0	0	0	0	518	412	
10	0	0	0	0	518	411	
11	0	0	0	0	519	411	
12	0	0	0	0	520	411	
13	0	0	0	0	521	411	
14	0	0	0	0	522	411	
15	0	0	0	0	522	411	
0	0	0	0	0	523	411	
1	0	0	0	0	524	413	
2	0	0	0	0	525	412	
3	0	0	0	0	526	411	
4	0	0	0	0	527	411	
5	0	0	0	0	527	411	
6	0	0	0	0	528	411	
7	0	0	0	0	528	412	
8	0	0	0	0	529	412	
9	0	0	0	0	529	413	
10	0	0	0	0	530	411	
11	0	0	0	0	531	411	
12	0	0	0	0	531	411	
13	0	0	0	0	531	411	
14	0	0	0	0	531	412	
15	0	0	0	0	532	412	
0	0	0	0	0	532	412	
1	0	0	0	0	533	413	
2	0	0	0	0	533	412	
3	0	0	0	0	533	412	
4	0	0	0	0	533	412	
5	0	0	0	0	532	412	
6	0	0	0	0	532	412	
7	0	0	0	0	532	412	
8	0	0	0	0	533	412	
9	0	0	0	0	533	412	
10	0	0	0	0	533	412	
11	0	0	0	0	534	412	
12	0	0	0	0	533	412	
13	0	0	0	0	534	412	
14	0	0	0	0	534	412	
15	0	0	0	0	533	412	
0	0	0	0	0	533	412	
1	0	0	0	0	532	413	
2	0	0	0	0	532	412	
3	0	0	0	0	532	412	
4	0	0	0	0	533	412	
5	0	0	0	0	533	412	
6	0	0	0	0	532	413	
7	0	0	0	0	532	413	
8	0	0	0	0	531	412	
9	0	0	0	0	531	413	
10	0	0	0	0	531	412	
11	0	0	0	0	531	412	
12	0	0	0	0	530	412	
13	0	0	0	0	529	412	
14	0	0	0	0	528	412	
15	0	0	0	0	528	412	
0	0	0	0	0	527	412	
1	0	0	0	0	527	413	
2	0	0	0	0	526	412	
3	0	0	0	0	526	412	
4	0	0	0	0	525	413	
5	0	0	0	0	526	413	
6	0	0	0	0	525	412	
7	0	0	0	0	526	413	
8	0	0	0	0	526	412	
9	0	0	0	0	526	413	
10	0	0	0	0	525	412	
11	0	0	0	0	525	412	
12	0	0	0	0	525	412	
13	0	0	0	0	524	413	
14	0	0	0	0	524	413	
15	0	0	0	0	524	412	
0	0	0	0	0	524	413	
1	0	0	0	0	524	413	
2	0	0	0	0	524	413	
3	0	0	0	0	524	412	
4	0	0	0	0	524	412	
5	0	0	0	0	524	411	
6	0	0	0	0	524	412	
7	0	0	0	0	524	412	
8	0	0	0	0	524	412	
9	0	0	0	0	524	412	
10	0	0	0	0	523	412	
11	0	0	0	0	523	411	
12	0	0	0	0	522	411	
13	0	0	0	0	521	411	
14	0	0	0	0	520	411	
15	0	0	0	0	519	411	
0	0	0	0	0	519	411	
1	0	0	0	0	519	411	
2	0	0	0	0	519	411	
3	0	0	0	0	519	411	
4	0	0	0	0	519	411	
5	0	0	0	0	519	410	
6	0	0	0	0	518	410	
7	0	0	0	0	519	410	
8	0	0	0	0	519	411	
9	0	0	0	0	519	411	
10	0	0	0	0	519	411	
11	0	0	0	0	518	410	
12	0	0	0	0	518	411	
13	0	0	0	0	518	409	
14	0	0	0	0	518	410	
15	0	0	0	0	518	411	
0	0	0	0	0	518	411	
1	0	0	0	0	518	412	
2	0	0	0	0	516	411	
3	0	0	0	0	516	411	
4	0	0	0	0	516	412	
5	0	0	0	0	516	411	
6	0	0	0	0	516	412	
7	0	0	0	0	516	412	
8	0	0	0	0	515	411	
9	0	0	0	0	515	412	
10	0	0	0	0	514	412	
11	0	0	0	0	513	411	
12	0	0	0	0	513	412	
13	0	0	0	0	513	411	
14	0	0	0	0	512	411	
15	0	0	0	0	511	411	
0	0	0	0	0	512	412	
1	0	0	0	0	512	412	
2	0	0	0	0	512	411	
3	0	0	0	0	512	411	
4	0	0	0	0	512	411	
5	0	0	0	0	513	411	
6	0	0	0	0	513	411	
7	0	0	0	0	513	412	
8	0	0	0	0	513	411	
9	0	0	0	0	513	412	
10	0	0	0	0	512	411	
11	0	0	0	0	512	411	
12	0	0	0	0	511	411	
13	0	0	0	0	511	411	
14	0	0	0	0	510	411	
15	0	0	0	0	510	412	
0	0	0	0	0	509	412	
1	0	0	0	0	509	412	
2	0	0	0	0	509	411	
3	0	0	0	0	509	412	
4	0	0	0	0	510	412	
5	0	0	0	0	510	412	
6	0	0	0	0	510	412	
7	0	0	0	0	510	412	
8	0	0	0	0	510	412	
9	0	0	0	0	510	413	
10	0	0	0	0	510	412	
11	0	0	0	0	511	412	
12	0	0	0	0	511	412	
13	0	0	0	0	511	412	
14	0	0	0	0	511	412	
15	0	0	0	0	511	412	
0	0	0	0	0	511	412	
1	0	0	0	0	510	412	
2	0	0	0	0	510	412	
3	0	0	0	0	510	412	
4	0	0	0	0	510	412	
5	0	0	0	0	510	412	
6	0	0	0	0	509	412	
7	0	0	0	0	509	412	
8	0	0	0	0	509	412	
9	0	0	0	0	508	412	
10	0	0	0	0	507	412	
11	0	0	0	0	508	411	
12	0	0	0	0	507	412	
13	0	0	0	0	506	411	
14	0	0	0	0	506	411	
15	0	0	0	0	505	411	
0	0	0	0	0	505	411	
1	0	0	0	0	505	412	
2	0	0	0	0	505	411	
3	0	0	0	0	504	411	
4	0	0	0	0	504	412	
5	0	0	0	0	504	411	
6	0	0	0	0	504	411	
7	0	0	0	0	504	411	
8	0	0	0	0	504	410	
9	0	0	0	0	504	412	
10	0	0	0	0	504	411	
11	0	0	0	0	504	411	
12	0	0	0	0	504	411	
13	0	0	0	0	504	411	
14	0	0	0	0	504	411	
15	0	0	0	0	504	411	
0	0	0	0	0	504	411	
1	0	0	0	0	504	412	
2	0	0	0	0	504	411	
3	0	0	0	0	504	411	
4	0	0	0	0	504	411	
5	0	0	0	0	504	411	
6	0	0	0	0	504	412	
7	0	0	0	0	504	411	
8	0	0	0	0	504	411	
9	0	0	0	0	504	412	
10	0	0	0	0	505	412	
11	0	0	0	0	505	412	
12	0	0	0	0	505	412	
13	0	0	0	0	505	412	
14	0	0	0	0	504	411	
15	0	0	0	0	504	411	
0	0	0	0	0	504	411	
1	0	0	0	0	503	412	
2	0	0	0	0	503	411	
3	0	0	0	0	503	412	
4	0	0	0	0	503	412	
5	0	0	0	0	503	411	
6	0	0	0	0	503	412	
7	0	0	0	0	503	412	
8	0	0	0	0	503	412	
9	0	0	0	0	503	412	
10	0	0	0	0	503	412	
11	0	0	0	0	502	411	
12	0	0	0	0	502	412	
13	0	0	0	0	502	411	
14	0	0	0	0	502	412	
15	0	0	0	0	503	412	
0	0	0	0	0	503	412	
1	0	0	0	0	503	412	
2	0	0	0	0	503	412	
3	0	0	0	0	502	412	
4	0	0	0	0	502	412	
5	0	0	0	0	502	412	
6	0	0	0	0	501	413	
7	0	0	0	0	500	413	
8	0	0	0	0	500	412	
9	0	0	0	0	501	413	
10	0	0	0	0	502	412	
11	0	0	0	0	502	412	
12	0	0	0	0	502	413	
13	0	0	0	0	502	412	
14	0	0	0	0	503	412	
15	0	0	0	0	504	413	
0	0	0	0	0	504	412	
1	0	0	0	0	505	413	
2	0	0	0	0	505	412	
3	0	0	0	0	506	412	
4	0	0	0	0	507	412	
5	0	0	0	0	507	412	
6	0	0	0	0	506	412	
7	0	0	0	0	507	412	
8	0	0	0	0	507	412	
9	0	0	0	0	506	413	
10	0	0	0	0	507	411	
11	0	0	0	0	507	412	
12	0	0	0	0	507	412	
13	0	0	0	0	507	412	
14	0	0	0	0	507	412	
15	0	0	0	0	506	412	
0	0	0	0	0	506	412	
1	0	0	0	0	506	412	
2	0	0	0	0	507	412	
3	0	0	0	0	507	412	
4	0	0	0	0	506	412	
5	0	0	0	0	505	411	
6	0	0	0	0	505	412	
7	0	0	0	0	506	412	
8	0	0	0	0	505	411	
9	0	0	0	0	506	412	
10	0	0	0	0	506	411	
11	0	0	0	0	507	411	
12	0	0	0	0	507	410	
13	0	0	0	0	507	410	
14	0	0	0	0	507	411	
15	0	0	0	0	507	410	
0	0	0	0	0	507	411	
1	0	0	0	0	507	412	
2	0	0	0	0	508	411	
3	0	0	0	0	508	411	
4	0	0	0	0	509	411	
5	0	0	0	0	509	410	
6	0	0	0	0	510	411	
7	0	0	0	0	510	411	
8	0	0	0	0	511	411	
9	0	0	0	0	511	412	
10	0	0	0	0	512	412	
11	0	0	0	0	512	411	
12	0	0	0	0	512	412	
13	0	0	0	0	512	411	
14	0	0	0	0	512	411	
15	0	0	0	0	512	412	
0	0	0	0	0	512	412	
1	0	0	0	0	512	413	
2	0	0	0	0	513	412	
3	0	0	0	0	513	412	
4	0	0	0	0	513	412	
5	0	0	0	0	512	411	
6	0	0	0	0	512	412	
7	0	0	0	0	512	412	
8	0	0	0	0	511	412	
9	0	0	0	0	511	412	
10	0	0	0	0	510	412	
11	0	0	0	0	509	412	
12	0	0	0	0	508	411	
13	0	0	0	0	508	411	
14	0	0	0	0	508	412	
15	0	0	0	0	508	412	
0	0	0	0	0	508	411	
1	0	0	0	0	508	413	
2	0	0	0	0	508	412	
3	0	0	0	0	508	412	
4	0	0	0	0	508	412	
5	0	0	0	0	507	412	
6	0	0	0	0	507	411	
7	0	0	0	0	506	411	
8	0	0	0	0	506	410	
9	0	0	0	0	505	412	
10	0	0	0	0	505	411	
11	0	0	0	0	505	411	
12	0	0	0	0	504	411	
13	0	0	0	0	504	410	
14	0	0	0	0	504	411	
15	0	0	0	0	504	411	
0	0	0	0	0	503	411	
1	0	0	0	0	503	412	
2	0	0	0	0	503	411	
3	0	0	0	0	502	411	
4	0	0	0	0	502	411	
5	0	0	0	0	502	411	
6	0	0	0	0	502	411	
7	0	0	0	0	503	411	
8	0	0	0	0	502	412	
9	0	0	0	0	502	413	
10	0	0	0	0	502	412	
11	0	0	0	0	502	412	
12	0	0	0	0	503	411	
13	0	0	0	0	503	411	
14	0	0	0	0	503	411	
15	0	0	0	0	503	411	
0	0	0	0	0	503	412	
1	0	0	0	0	503	412	
2	0	0	0	0	503	412	
3	0	0	0	0	503	412	
4	0	0	0	0	503	412	
5	0	0	0	0	503	412	
6	0	0	0	0	503	412	
7	0	0	0	0	503	412	
8	0	0	0	0	503	412	
9	0	0	0	0	503	413	
10	0	0	0	0	502	413	
11	0	0	0	0	502	412	
12	0	0	0	0	502	412	
13	0	0	0	0	502	411	
14	0	0	0	0	502	412	
15	0	0	0	0	503	412	
0	0	0	0	0	502	411	
1	0	0	0	0	503	412	
2	0	0	0	0	502	412	
3	0	0	0	0	502	412	
4	0	0	0	0	501	412	
5	0	0	0	0	500	411	
6	0	0	0	0	500	412	
7	0	0	0	0	500	411	
8	0	0	0	0	500	412	
9	0	0	0	0	500	412	
10	0	0	0	0	499	411	
11	0	0	0	0	499	411	
12	0	0	0	0	499	411	
13	0	0	0	0	498	412	
14	0	0	0	0	498	412	
15	0	0	0	0	497	412	
0	0	0	0	0	498	412	
1	0	0	0	0	498	412	
2	0	0	0	0	498	412	
3	0	0	0	0	497	412	
4	0	0	0	0	497	412	
5	0	0	0	0	497	411	
6	0	0	0	0	497	411	
7	0	0	0	0	497	412	
8	0	0	0	0	497	411	
9	0	0	0	0	497	413	
10	0	0	0	0	497	412	
11	0	0	0	0	497	413	
12	0	0	0	0	497	412	
13	0	0	0	0	497	412	
14	0	0	0	0	497	412	
15	0	0	0	0	497	412	
0	0	0	0	0	497	412	
1	0	0	0	0	497	412	
2	0	0	0	0	497	412	
3	0	0	0	0	498	411	
4	0	0	0	0	499	412	
5	0	0	0	0	499	411	
6	0	0	0	0	499	411	
7	0	0	0	0	500	411	
8	0	0	0	0	500	411	
9	0	0	0	0	500	412	
10	0	0	0	0	500	411	
11	0	0	0	0	500	411	
12	0	0	0	0	500	412	
13	0	0	0	0	500	411	
14	0	0	0	0	501	411	
15	0	0	0	0	501	412	
0	0	0	0	0	501	411	
1	0	0	0	0	502	412	
2	0	0	0	0	503	411	
3	0	0	0	0	503	411	
4	0	0	0	0	504	411	
5	0	0	0	0	505	411	
6	0	0	0	0	506	411	
7	0	0	0	0	506	410	
8	0	0	0	0	508	410	
9	0	0	0	0	509	412	
10	0	0	0	0	510	410	
11	0	0	0	0	512	411	
12	0	0	0	0	513	411	
13	0	0	0	0	514	411	
14	0	0	0	0	515	411	
15	0	0	0	0	517	411	
0	0	0	0	0	518	411	
1	0	0	0	0	518	412	
2	0	0	0	0	519	412	
3	0	0	0	0	520	412	
4	0	0	0	0	521	412	
5	0	0	0	0	522	411	
6	0	0	0	0	523	412	
7	0	0	0	0	524	411	
8	0	0	0	0	525	411	
9	0	0	0	0	526	412	
10	0	0	0	0	527	411	
11	0	0	0	0	528	411	
12	0	0	0	0	529	412	
13	0	0	0	0	529	411	
14	0	0	0	0	530	411	
15	0	0	0	0	531	411	
0	0	0	0	0	531	412	
1	0	0	0	0	532	412	
2	0	0	0	0	532	412	
3	0	0	0	0	533	412	
4	0	0	0	0	533	412	
5	0	0	0	0	534	411	
6	0	0	0	0	535	411	
7	0	0	0	0	536	412	
8	0	0	0	0	537	412	
9	0	0	0	0	538	412	
10	0	0	0	0	539	412	
11	0	0	0	0	540	412	
12	0	0	0	0	541	412	
13	0	0	0	0	542	411	
14	0	0	0	0	542	411	
15	0	0	0	0	542	412	
0	0	0	0	0	543	412	
1	0	0	0	0	543	413	
2	0	0	0	0	543	412	
3	0	0	0	0	544	412	
4	0	0	0	0	545	411	
5	0	0	0	0	546	412	
6	0	0	0	0	546	412	
7	0	0	0	0	547	412	
8	0	0	0	0	547	412	
9	0	0	0	0	547	413	
10	0	0	0	0	548	412	
11	0	0	0	0	548	412	
12	0	0	0	0	548	412	
13	0	0	0	0	548	411	
14	0	0	0	0	549	412	
15	0	0	0	0	550	412	
0	0	0	0	0	551	412	
1	0	0	0	0	552	413	
2	0	0	0	0	554	412	
3	0	0	0	0	555	412	
4	0	0	0	0	556	412	
5	0	0	0	0	556	411	
6	0	0	0	0	557	412	
7	0	0	0	0	557	411	
8	0	0	0	0	558	411	
9	0	0	0	0	559	412	
10	0	0	0	0	559	412	
11	0	0	0	0	559	412	
12	0	0	0	0	559	412	
13	0	0	0	0	560	411	
14	0	0	0	0	560	411	
15	0	0	0	0	560	411	
0	0	0	0	0	560	412	
1	0	0	0	0	561	412	
2	0	0	0	0	561	411	
3	0	0	0	0	561	411	
4	0	0	0	0	561	411	
5	0	0	0	0	561	411	
6	0	0	0	0	561	411	
7	0	0	0	0	561	411	
8	0	0	0	0	562	411	
9	0	0	0	0	561	412	
10	0	0	0	0	562	411	
11	0	0	0	0	562	411	
12	0	0	0	0	562	411	
13	0	0	0	0	562	411	
14	0	0	0	0	562	411	
15	0	0	0	0	562	411	
0	0	0	0	0	563	411	
1	0	0	0	0	563	412	
2	0	0	0	0	563	412	
3	0	0	0	0	563	412	
4	0	0	0	0	563	412	
5	0	0	0	0	564	411	
6	0	0	0	0	563	411	
7	0	0	0	0	565	412	
8	0	0	0	0	565	413	
9	0	0	0	0	566	413	
10	0	0	0	0	566	413	
11	0	0	0	0	567	412	
12	0	0	0	0	568	413	
13	0	0	0	0	568	412	
14	0	0	0	0	569	412	
15	0	0	0	0	569	412	
0	0	0	0	0	568	413	
1	0	0	0	0	568	413	
2	0	0	0	0	568	413	
3	0	0	0	0	568	412	
4	0	0	0	0	568	412	
5	0	0	0	0	568	412	
6	0	0	0	0	568	412	
7	0	0	0	0	567	412	
8	0	0	0	0	567	412	
9	0	0	0	0	567	412	
10	0	0	0	0	567	412	
11	0	0	0	0	567	412	
12	0	0	0	0	568	412	
13	0	0	0	0	568	412	
14	0	0	0	0	568	411	
15	0	0	0	0	567	411	
0	0	0	0	0	568	411	
1	0	0	0	0	567	412	
2	0	0	0	0	567	412	
3	0	0	0	0	567	411	
4	0	0	0	0	566	411	
5	0	0	0	0	566	411	
6	0	0	0	0	565	411	
7	0	0	0	0	565	411	
8	0	0	0	0	565	411	
9	0	0	0	0	565	411	
10	0	0	0	0	564	411	
11	0	0	0	0	564	411	
12	0	0	0	0	565	411	
13	0	0	0	0	564	410	
14	0	0	0	0	563	411	
15	0	0	0	0	562	411	
0	0	0	0	0	560	411	
1	0	0	0	0	559	412	
2	0	0	0	0	556	411	
3	0	0	0	0	552	411	
4	0	0	0	0	548	412	
5	0	0	0	0	543	411	
6	0	0	0	0	540	411	
7	0	0	0	0	536	411	
8	0	0	0	0	531	410	
9	0	0	0	0	529	412	
10	0	0	0	0	526	411	
11	0	0	0	0	523	411	
12	0	0	0	0	521	412	
13	0	0	0	0	520	411	
14	0	0	0	0	523	411	
15	0	0	0	0	526	411	
0	0	0	0	0	531	411	
1	0	0	0	0	538	412	
2	0	0	0	0	546	412	
3	0	0	0	0	556	412	
4	0	0	0	0	566	412	
5	0	0	0	0	576	411	
6	0	0	0	0	587	413	
7	0	0	0	0	599	412	
8	0	0	0	0	614	411	
9	0	0	0	0	630	412	
10	0	0	0	0	646	412	
11	0	0	0	0	664	411	
12	0	0	0	0	682	411	
13	0	0	0	0	703	411	
14	0	0	0	0	726	412	
15	0	0	0	0	750	412	
0	0	0	0	0	774	411	
1	0	0	0	0	798	412	
2	0	0	0	0	819	412	
3	0	0	0	0	837	411	
4	0	0	0	0	854	411	
5	0	0	0	0	868	411	
6	0	0	0	0	879	411	
7	0	0	0	0	888	411	
8	0	0	0	0	894	410	
9	0	0	0	0	899	412	
10	0	0	0	0	902	411	
11	0	0	0	0	903	411	
12	0	0	0	0	903	411	
13	0	0	0	0	902	411	
14	0	0	0	0	896	411	
15	0	0	0	0	886	410	
0	0	0	0	0	872	411	
1	0	0	0	0	852	412	
2	0	0	0	0	827	410	
3	0	0	0	0	802	412	
4	0	0	0	0	775	412	
5	0	0	0	0	747	412	
6	0	0	0	0	717	411	
7	0	0	0	0	686	411	
8	0	0	0	0	655	411	
9	0	0	0	0	626	412	
10	0	0	0	0	600	412	
11	0	0	0	0	575	411	
12	0	0	0	0	554	412	
13	0	0	0	0	536	411	
14	0	0	0	0	520	411	
15	0	0	0	0	508	411	
0	0	0	0	0	499	412	
1	0	0	0	0	492	412	
2	0	0	0	0	486	411	
3	0	0	0	0	480	411	
4	0	0	0	0	476	411	
5	0	0	0	0	472	411	
6	0	0	0	0	467	412	
7	0	0	0	0	464	412	
8	0	0	0	0	462	411	
9	0	0	0	0	459	412	
10	0	0	0	0	457	412	
11	0	0	0	0	455	412	
12	0	0	0	0	454	412	
13	0	0	0	0	453	412	
14	0	0	0	0	452	411	
15	0	0	0	0	451	412	
0	0	0	0	0	451	412	
1	0	0	0	0	451	412	
2	0	0	0	0	451	412	
3	0	0	0	0	451	412	
4	0	0	0	0	452	412	
5	0	0	0	0	452	412	
6	0	0	0	0	452	412	
7	0	0	0	0	452	412	
8	0	0	0	0	452	412	
9	0	0	0	0	453	412	
10	0	0	0	0	455	412	
11	0	0	0	0	455	412	
12	0	0	0	0	455	411	
13	0	0	0	0	456	411	
14	0	0	0	0	457	411	
15	0	0	0	0	457	411	
0	0	0	0	0	457	411	
1	0	0	0	0	458	411	
2	0	0	0	0	458	412	
3	0	0	0	0	459	412	
4	0	0	0	0	459	411	
5	0	0	0	0	459	412	
6	0	0	0	0	459	412	
7	0	0	0	0	459	412	
8	0	0	0	0	460	411	
9	0	0	0	0	460	413	
10	0	0	0	0	461	412	
11	0	0	0	0	461	412	
12	0	0	0	0	462	412	
13	0	0	0	0	463	412	
14	0	0	0	0	463	412	
15	0	0	0	0	463	412	
0	0	0	0	0	464	412	
1	0	0	0	0	465	412	
2	0	0	0	0	466	412	
3	0	0	0	0	467	412	
4	0	0	0	0	467	412	
5	0	0	0	0	467	412	
6	0	0	0	0	467	412	
7	0	0	0	0	468	412	
8	0	0	0	0	468	412	
9	0	0	0	0	469	413	
10	0	0	0	0	468	412	
11	0	0	0	0	468	412	
12	0	0	0	0	469	411	
13	0	0	0	0	469	412	
14	0	0	0	0	470	412	
15	0	0	0	0	470	411	
0	0	0	0	0	470	412	
1	0	0	0	0	471	412	
2	0	0	0	0	471	411	
3	0	0	0	0	471	411	
4	0	0	0	0	471	410	
5	0	0	0	0	471	410	
6	0	0	0	0	471	411	
7	0	0	0	0	471	411	
8	0	0	0	0	471	411	
9	0	0	0	0	472	412	
10	0	0	0	0	472	411	
11	0	0	0	0	472	411	
12	0	0	0	0	471	411	
13	0	0	0	0	471	409	
14	0	0	0	0	471	411	
15	0	0	0	0	471	410	
0	0	0	0	0	470	411	
1	0	0	0	0	469	412	
2	0	0	0	0	470	411	
3	0	0	0	0	470	411	
4	0	0	0	0	469	410	
5	0	0	0	0	469	411	
6	0	0	0	0	470	411	
7	0	0	0	0	470	411	
8	0	0	0	0	471	412	
9	0	0	0	0	471	412	
10	0	0	0	0	472	412	
11	0	0	0	0	473	412	
12	0	0	0	0	473	412	
13	0	0	0	0	473	412	
14	0	0	0	0	473	412	
15	0	0	0	0	473	413	
0	0	0	0	0	473	412	
1	0	0	0	0	474	413	
2	0	0	0	0	474	413	
3	0	0	0	0	474	412	
4	0	0	0	0	475	412	
5	0	0	0	0	475	412	
6	0	0	0	0	475	413	
7	0	0	0	0	475	413	
8	0	0	0	0	475	413	
9	0	0	0	0	475	414	
10	0	0	0	0	476	413	
11	0	0	0	0	476	412	
12	0	0	0	0	476	412	
13	0	0	0	0	476	412	
14	0	0	0	0	477	412	
15	0	0	0	0	477	413	
0	0	0	0	0	477	412	
1	0	0	0	0	477	413	
2	0	0	0	0	477	412	
3	0	0	0	0	477	412	
4	0	0	0	0	477	411	
5	0	0	0	0	477	411	
6	0	0	0	0	477	411	
7	0	0	0	0	477	411	
8	0	0	0	0	477	410	
9	0	0	0	0	477	412	
10	0	0	0	0	476	411	
11	0	0	0	0	477	411	
12	0	0	0	0	476	411	
13	0	0	0	0	475	410	
14	0	0	0	0	475	411	
15	0	0	0	0	475	411	
0	0	0	0	0	475	410	
1	0	0	0	0	475	411	
2	0	0	0	0	475	410	
3	0	0	0	0	475	411	
4	0	0	0	0	475	411	
5	0	0	0	0	475	411	
6	0	0	0	0	475	410	
7	0	0	0	0	475	410	
8	0	0	0	0	475	411	
9	0	0	0	0	476	411	
10	0	0	0	0	476	411	
11	0	0	0	0	476	411	
12	0	0	0	0	476	411	
13	0	0	0	0	476	411	
14	0	0	0	0	476	411	
15	0	0	0	0	477	411	
0	0	0	0	0	478	411	
1	0	0	0	0	478	412	
2	0	0	0	0	478	412	
3	0	0	0	0	478	411	
4	0	0	0	0	478	411	
5	0	0	0	0	479	411	
6	0	0	0	0	479	412	
7	0	0	0	0	479	411	
8	0	0	0	0	479	412	
9	0	0	0	0	479	412	
10	0	0	0	0	480	411	
11	0	0	0	0	480	411	
12	0	0	0	0	480	410	
13	0	0	0	0	480	411	
14	0	0	0	0	481	411	
15	0	0	0	0	481	412	
0	0	0	0	0	481	411	
1	0	0	0	0	481	412	
2	0	0	0	0	481	410	
3	0	0	0	0	482	411	
4	0	0	0	0	483	411	
5	0	0	0	0	484	411	
6	0	0	0	0	485	411	
7	0	0	0	0	486	411	
8	0	0	0	0	486	411	
9	0	0	0	0	487	411	
10	0	0	0	0	487	411	
11	0	0	0	0	487	411	
12	0	0	0	0	488	411	
13	0	0	0	0	489	410	
14	0	0	0	0	489	411	
15	0	0	0	0	490	411	
0	0	0	0	0	490	411	
1	0	0	0	0	491	412	
2	0	0	0	0	491	411	
3	0	0	0	0	492	411	
4	0	0	0	0	492	411	
5	0	0	0	0	491	411	
6	0	0	0	0	492	411	
7	0	0	0	0	492	412	
8	0	0	0	0	492	412	
9	0	0	0	0	493	412	
10	0	0	0	0	492	411	
11	0	0	0	0	492	412	
12	0	0	0	0	492	412	
13	0	0	0	0	493	411	
14	0	0	0	0	493	411	
15	0	0	0	0	493	412	
0	0	0	0	0	493	412	
1	0	0	0	0	494	413	
2	0	0	0	0	494	412	
3	0	0	0	0	494	413	
4	0	0	0	0	494	412	
5	0	0	0	0	495	412	
6	0	0	0	0	494	413	
7	0	0	0	0	494	413	
8	0	0	0	0	495	413	
9	0	0	0	0	495	414	
10	0	0	0	0	496	413	
11	0	0	0	0	497	413	
12	0	0	0	0	497	412	
13	0	0	0	0	498	412	
14	0	0	0	0	498	412	
15	0	0	0	0	498	413	
0	0	0	0	0	498	412	
1	0	0	0	0	498	413	
2	0	0	0	0	498	412	
3	0	0	0	0	498	412	
4	0	0	0	0	498	412	
5	0	0	0	0	498	411	
6	0	0	0	0	498	412	
7	0	0	0	0	498	411	
8	0	0	0	0	497	411	
9	0	0	0	0	497	412	
10	0	0	0	0	497	412	
11	0	0	0	0	498	411	
12	0	0	0	0	499	412	
13	0	0	0	0	499	411	
14	0	0	0	0	499	411	
15	0	0	0	0	499	411	
0	0	0	0	0	500	412	
1	0	0	0	0	499	412	
2	0	0	0	0	499	411	
3	0	0	0	0	498	411	
4	0	0	0	0	498	411	
5	0	0	0	0	498	411	
6	0	0	0	0	498	412	
7	0	0	0	0	499	412	
8	0	0	0	0	498	412	
9	0	0	0	0	497	413	
10	0	0	0	0	496	412	
11	0	0	0	0	496	412	
12	0	0	0	0	496	412	
13	0	0	0	0	496	412	
14	0	0	0	0	496	412	
15	0	0	0	0	495	412	
0	0	0	0	0	495	412	
1	0	0	0	0	495	412	
2	0	0	0	0	495	412	
3	0	0	0	0	496	413	
4	0	0	0	0	495	412	
5	0	0	0	0	495	412	
6	0	0	0	0	495	412	
7	0	0	0	0	495	412	
8	0	0	0	0	495	412	
9	0	0	0	0	495	412	
10	0	0	0	0	496	412	
11	0	0	0	0	495	412	
12	0	0	0	0	495	412	
13	0	0	0	0	495	411	
14	0	0	0	0	494	411	
15	0	0	0	0	494	412	
0	0	0	0	0	494	411	
1	0	0	0	0	494	412	
2	0	0	0	0	494	412	
3	0	0	0	0	494	411	
