# OpenSignals Text File Format. Version 1
# {"98:D3:91:FD:59:64": {"position": 0, "device": "bitalino_rev", "device name": "98:D3:91:FD:59:64", "device connection": "BTH98:D3:91:FD:59:64", "sampling rate": 1000, "resolution": [4, 1, 1, 1, 1, 10, 10], "firmware version": 1281, "comments": "", "keywords": "", "mode": 0, "sync interval": 2, "date": "2021-9-12", "time": "15:34:44.925", "channels": [2, 5], "sensor": ["RAW", "RAW"], "label": ["A2", "A5"], "column": ["nSeq", "I1", "I2", "O1", "O2", "A2", "A5"], "special": [{}, {}], "digital IO": [0, 0, 1, 1], "convertedValues": 0}}
# EndOfHeader
0	0	0	0	0	486	618	
1	0	0	0	0	487	620	
2	0	0	0	0	487	620	
3	0	0	0	0	487	619	
4	0	0	0	0	488	621	
5	0	0	0	0	488	616	
6	0	0	0	0	488	615	
7	0	0	0	0	489	613	
8	0	0	0	0	489	609	
9	0	0	0	0	489	612	
10	0	0	0	0	491	612	
11	0	0	0	0	492	612	
12	0	0	0	0	492	615	
13	0	0	0	0	493	611	
14	0	0	0	0	495	611	
15	0	0	0	0	496	611	
0	0	0	0	0	497	608	
1	0	0	0	0	499	612	
2	0	0	0	0	499	612	
3	0	0	0	0	501	613	
4	0	0	0	0	502	617	
5	0	0	0	0	503	614	
6	0	0	0	0	502	613	
7	0	0	0	0	503	613	
8	0	0	0	0	504	610	
9	0	0	0	0	508	614	
10	0	0	0	0	510	614	
11	0	0	0	0	512	613	
12	0	0	0	0	514	617	
13	0	0	0	0	515	612	
14	0	0	0	0	517	611	
15	0	0	0	0	517	611	
0	0	0	0	0	518	607	
1	0	0	0	0	518	611	
2	0	0	0	0	518	611	
3	0	0	0	0	517	611	
4	0	0	0	0	516	614	
5	0	0	0	0	516	611	
6	0	0	0	0	516	610	
7	0	0	0	0	515	610	
8	0	0	0	0	515	606	
9	0	0	0	0	514	611	
10	0	0	0	0	514	611	
11	0	0	0	0	513	612	
12	0	0	0	0	514	616	
13	0	0	0	0	514	613	
14	0	0	0	0	514	614	
15	0	0	0	0	513	613	
0	0	0	0	0	513	610	
1	0	0	0	0	513	615	
2	0	0	0	0	514	618	
3	0	0	0	0	514	619	
4	0	0	0	0	515	623	
5	0	0	0	0	516	620	
6	0	0	0	0	517	620	
7	0	0	0	0	518	621	
8	0	0	0	0	519	619	
9	0	0	0	0	519	623	
10	0	0	0	0	521	624	
11	0	0	0	0	521	625	
12	0	0	0	0	521	630	
13	0	0	0	0	523	627	
14	0	0	0	0	524	627	
15	0	0	0	0	524	628	
0	0	0	0	0	523	624	
1	0	0	0	0	523	629	
2	0	0	0	0	523	630	
3	0	0	0	0	523	631	
4	0	0	0	0	523	635	
5	0	0	0	0	523	631	
6	0	0	0	0	522	632	
7	0	0	0	0	521	632	
8	0	0	0	0	520	628	
9	0	0	0	0	520	632	
10	0	0	0	0	520	632	
11	0	0	0	0	520	631	
12	0	0	0	0	521	635	
13	0	0	0	0	522	632	
14	0	0	0	0	522	632	
15	0	0	0	0	522	632	
0	0	0	0	0	522	628	
1	0	0	0	0	523	633	
2	0	0	0	0	523	633	
3	0	0	0	0	522	632	
4	0	0	0	0	523	635	
5	0	0	0	0	523	631	
6	0	0	0	0	523	630	
7	0	0	0	0	523	631	
8	0	0	0	0	523	627	
9	0	0	0	0	522	631	
10	0	0	0	0	521	630	
11	0	0	0	0	521	631	
12	0	0	0	0	520	633	
13	0	0	0	0	520	630	
14	0	0	0	0	520	629	
15	0	0	0	0	520	629	
0	0	0	0	0	521	625	
1	0	0	0	0	520	630	
2	0	0	0	0	520	629	
3	0	0	0	0	520	630	
4	0	0	0	0	519	633	
5	0	0	0	0	519	630	
6	0	0	0	0	518	630	
7	0	0	0	0	516	631	
8	0	0	0	0	516	630	
9	0	0	0	0	516	636	
10	0	0	0	0	516	639	
11	0	0	0	0	516	642	
12	0	0	0	0	516	649	
13	0	0	0	0	518	647	
14	0	0	0	0	518	649	
15	0	0	0	0	519	651	
0	0	0	0	0	519	647	
1	0	0	0	0	520	653	
2	0	0	0	0	521	652	
3	0	0	0	0	522	650	
4	0	0	0	0	522	652	
5	0	0	0	0	523	646	
6	0	0	0	0	523	643	
7	0	0	0	0	523	640	
8	0	0	0	0	524	635	
9	0	0	0	0	524	638	
10	0	0	0	0	524	636	
11	0	0	0	0	524	635	
12	0	0	0	0	524	638	
13	0	0	0	0	524	634	
14	0	0	0	0	524	635	
15	0	0	0	0	525	635	
0	0	0	0	0	526	632	
1	0	0	0	0	526	638	
2	0	0	0	0	526	639	
3	0	0	0	0	526	639	
4	0	0	0	0	526	644	
5	0	0	0	0	526	641	
6	0	0	0	0	525	641	
7	0	0	0	0	525	641	
8	0	0	0	0	525	638	
9	0	0	0	0	525	642	
10	0	0	0	0	524	642	
11	0	0	0	0	524	642	
12	0	0	0	0	525	645	
13	0	0	0	0	525	640	
14	0	0	0	0	525	641	
15	0	0	0	0	526	640	
0	0	0	0	0	527	636	
1	0	0	0	0	527	640	
2	0	0	0	0	527	640	
3	0	0	0	0	528	640	
4	0	0	0	0	527	643	
5	0	0	0	0	527	639	
6	0	0	0	0	527	639	
7	0	0	0	0	527	640	
8	0	0	0	0	527	636	
9	0	0	0	0	527	640	
10	0	0	0	0	526	640	
11	0	0	0	0	526	641	
12	0	0	0	0	525	645	
13	0	0	0	0	525	641	
14	0	0	0	0	525	641	
15	0	0	0	0	524	642	
0	0	0	0	0	523	638	
1	0	0	0	0	523	642	
2	0	0	0	0	522	643	
3	0	0	0	0	521	643	
4	0	0	0	0	521	645	
5	0	0	0	0	521	642	
6	0	0	0	0	519	641	
7	0	0	0	0	519	641	
8	0	0	0	0	519	636	
9	0	0	0	0	519	639	
10	0	0	0	0	519	639	
11	0	0	0	0	518	638	
12	0	0	0	0	517	641	
13	0	0	0	0	516	637	
14	0	0	0	0	515	636	
15	0	0	0	0	514	636	
0	0	0	0	0	514	631	
1	0	0	0	0	513	634	
2	0	0	0	0	514	633	
3	0	0	0	0	513	632	
4	0	0	0	0	513	636	
5	0	0	0	0	512	632	
6	0	0	0	0	513	631	
7	0	0	0	0	513	630	
8	0	0	0	0	514	626	
9	0	0	0	0	514	630	
10	0	0	0	0	515	629	
11	0	0	0	0	515	630	
12	0	0	0	0	516	631	
13	0	0	0	0	516	627	
14	0	0	0	0	516	627	
15	0	0	0	0	516	627	
0	0	0	0	0	516	623	
1	0	0	0	0	516	625	
2	0	0	0	0	515	626	
3	0	0	0	0	516	625	
4	0	0	0	0	515	627	
5	0	0	0	0	515	624	
6	0	0	0	0	515	624	
7	0	0	0	0	515	624	
8	0	0	0	0	514	620	
9	0	0	0	0	513	625	
10	0	0	0	0	512	624	
11	0	0	0	0	512	625	
12	0	0	0	0	511	628	
13	0	0	0	0	511	625	
14	0	0	0	0	511	625	
15	0	0	0	0	510	625	
0	0	0	0	0	510	621	
1	0	0	0	0	510	624	
2	0	0	0	0	510	623	
3	0	0	0	0	508	623	
4	0	0	0	0	507	625	
5	0	0	0	0	505	623	
6	0	0	0	0	501	623	
7	0	0	0	0	496	622	
8	0	0	0	0	489	619	
9	0	0	0	0	483	623	
10	0	0	0	0	476	624	
11	0	0	0	0	469	624	
12	0	0	0	0	462	629	
13	0	0	0	0	455	625	
14	0	0	0	0	451	625	
15	0	0	0	0	449	625	
0	0	0	0	0	448	621	
1	0	0	0	0	450	625	
2	0	0	0	0	455	625	
3	0	0	0	0	463	625	
4	0	0	0	0	472	629	
5	0	0	0	0	482	624	
6	0	0	0	0	494	625	
7	0	0	0	0	508	625	
8	0	0	0	0	525	622	
9	0	0	0	0	542	626	
10	0	0	0	0	560	625	
11	0	0	0	0	577	626	
12	0	0	0	0	596	629	
13	0	0	0	0	619	626	
14	0	0	0	0	641	625	
15	0	0	0	0	664	625	
0	0	0	0	0	683	621	
1	0	0	0	0	697	625	
2	0	0	0	0	709	626	
3	0	0	0	0	716	626	
4	0	0	0	0	720	629	
5	0	0	0	0	719	626	
6	0	0	0	0	713	626	
7	0	0	0	0	706	626	
8	0	0	0	0	699	621	
9	0	0	0	0	692	625	
10	0	0	0	0	683	625	
11	0	0	0	0	668	625	
12	0	0	0	0	653	629	
13	0	0	0	0	639	625	
14	0	0	0	0	626	624	
15	0	0	0	0	614	624	
0	0	0	0	0	603	620	
1	0	0	0	0	592	624	
2	0	0	0	0	582	624	
3	0	0	0	0	573	624	
4	0	0	0	0	565	627	
5	0	0	0	0	558	623	
6	0	0	0	0	552	623	
7	0	0	0	0	547	623	
8	0	0	0	0	541	619	
9	0	0	0	0	537	623	
10	0	0	0	0	533	623	
11	0	0	0	0	531	623	
12	0	0	0	0	528	627	
13	0	0	0	0	527	624	
14	0	0	0	0	524	624	
15	0	0	0	0	521	624	
0	0	0	0	0	518	620	
1	0	0	0	0	514	623	
2	0	0	0	0	511	624	
3	0	0	0	0	507	624	
4	0	0	0	0	502	627	
5	0	0	0	0	497	623	
6	0	0	0	0	492	623	
7	0	0	0	0	487	624	
8	0	0	0	0	483	620	
9	0	0	0	0	480	623	
10	0	0	0	0	477	623	
11	0	0	0	0	473	623	
12	0	0	0	0	469	626	
13	0	0	0	0	467	623	
14	0	0	0	0	464	622	
15	0	0	0	0	462	623	
0	0	0	0	0	460	619	
1	0	0	0	0	459	623	
2	0	0	0	0	458	623	
3	0	0	0	0	457	623	
4	0	0	0	0	456	626	
5	0	0	0	0	456	622	
6	0	0	0	0	455	622	
7	0	0	0	0	456	622	
8	0	0	0	0	457	617	
9	0	0	0	0	456	621	
10	0	0	0	0	456	621	
11	0	0	0	0	459	621	
12	0	0	0	0	459	624	
13	0	0	0	0	459	620	
14	0	0	0	0	457	620	
15	0	0	0	0	455	619	
0	0	0	0	0	453	615	
1	0	0	0	0	452	619	
2	0	0	0	0	451	619	
3	0	0	0	0	451	618	
4	0	0	0	0	450	621	
5	0	0	0	0	449	617	
6	0	0	0	0	449	616	
7	0	0	0	0	449	615	
8	0	0	0	0	449	611	
9	0	0	0	0	450	614	
10	0	0	0	0	450	615	
11	0	0	0	0	451	614	
12	0	0	0	0	451	617	
13	0	0	0	0	451	613	
14	0	0	0	0	452	613	
15	0	0	0	0	454	612	
0	0	0	0	0	456	608	
1	0	0	0	0	459	611	
2	0	0	0	0	463	611	
3	0	0	0	0	465	611	
4	0	0	0	0	468	614	
5	0	0	0	0	470	611	
6	0	0	0	0	470	610	
7	0	0	0	0	471	609	
8	0	0	0	0	471	605	
9	0	0	0	0	470	608	
10	0	0	0	0	470	608	
11	0	0	0	0	470	608	
12	0	0	0	0	470	611	
13	0	0	0	0	470	606	
14	0	0	0	0	471	606	
15	0	0	0	0	472	606	
0	0	0	0	0	472	602	
1	0	0	0	0	472	606	
2	0	0	0	0	472	605	
3	0	0	0	0	473	604	
4	0	0	0	0	472	608	
5	0	0	0	0	472	604	
6	0	0	0	0	472	603	
7	0	0	0	0	471	603	
8	0	0	0	0	472	599	
9	0	0	0	0	472	603	
10	0	0	0	0	471	603	
11	0	0	0	0	472	602	
12	0	0	0	0	472	606	
13	0	0	0	0	473	601	
14	0	0	0	0	473	601	
15	0	0	0	0	473	601	
0	0	0	0	0	474	597	
1	0	0	0	0	475	601	
2	0	0	0	0	475	600	
3	0	0	0	0	475	600	
4	0	0	0	0	475	604	
5	0	0	0	0	475	600	
6	0	0	0	0	474	600	
7	0	0	0	0	474	600	
8	0	0	0	0	473	596	
9	0	0	0	0	472	599	
10	0	0	0	0	471	599	
11	0	0	0	0	470	598	
12	0	0	0	0	470	601	
13	0	0	0	0	470	598	
14	0	0	0	0	470	598	
15	0	0	0	0	470	598	
0	0	0	0	0	470	593	
1	0	0	0	0	470	597	
2	0	0	0	0	470	597	
3	0	0	0	0	469	597	
4	0	0	0	0	469	600	
5	0	0	0	0	468	596	
6	0	0	0	0	469	596	
7	0	0	0	0	469	596	
8	0	0	0	0	470	592	
9	0	0	0	0	471	596	
10	0	0	0	0	471	596	
11	0	0	0	0	471	596	
12	0	0	0	0	472	600	
13	0	0	0	0	472	595	
14	0	0	0	0	472	595	
15	0	0	0	0	473	595	
0	0	0	0	0	473	591	
1	0	0	0	0	473	595	
2	0	0	0	0	473	595	
3	0	0	0	0	473	595	
4	0	0	0	0	473	598	
5	0	0	0	0	473	595	
6	0	0	0	0	474	595	
7	0	0	0	0	473	595	
8	0	0	0	0	474	591	
9	0	0	0	0	474	595	
10	0	0	0	0	476	596	
11	0	0	0	0	476	596	
12	0	0	0	0	476	600	
13	0	0	0	0	476	597	
14	0	0	0	0	475	597	
15	0	0	0	0	476	597	
0	0	0	0	0	476	594	
1	0	0	0	0	477	599	
2	0	0	0	0	477	600	
3	0	0	0	0	478	600	
4	0	0	0	0	479	604	
5	0	0	0	0	480	601	
6	0	0	0	0	481	601	
7	0	0	0	0	481	601	
8	0	0	0	0	481	597	
9	0	0	0	0	481	601	
10	0	0	0	0	481	600	
11	0	0	0	0	481	600	
12	0	0	0	0	482	604	
13	0	0	0	0	481	600	
14	0	0	0	0	481	600	
15	0	0	0	0	482	599	
0	0	0	0	0	482	595	
1	0	0	0	0	482	598	
2	0	0	0	0	482	599	
3	0	0	0	0	482	599	
4	0	0	0	0	483	603	
5	0	0	0	0	484	600	
6	0	0	0	0	484	600	
7	0	0	0	0	485	602	
8	0	0	0	0	486	600	
9	0	0	0	0	486	605	
10	0	0	0	0	486	606	
11	0	0	0	0	486	607	
12	0	0	0	0	486	612	
13	0	0	0	0	485	610	
14	0	0	0	0	485	611	
15	0	0	0	0	484	612	
0	0	0	0	0	483	610	
1	0	0	0	0	482	616	
2	0	0	0	0	482	617	
3	0	0	0	0	483	618	
4	0	0	0	0	483	622	
5	0	0	0	0	484	620	
6	0	0	0	0	485	620	
7	0	0	0	0	486	621	
8	0	0	0	0	487	619	
9	0	0	0	0	487	623	
10	0	0	0	0	488	624	
11	0	0	0	0	488	624	
12	0	0	0	0	489	628	
13	0	0	0	0	491	624	
14	0	0	0	0	491	624	
15	0	0	0	0	492	624	
0	0	0	0	0	494	619	
1	0	0	0	0	495	622	
2	0	0	0	0	497	621	
3	0	0	0	0	497	620	
4	0	0	0	0	497	621	
5	0	0	0	0	498	617	
6	0	0	0	0	497	615	
7	0	0	0	0	498	615	
8	0	0	0	0	498	611	
9	0	0	0	0	498	615	
10	0	0	0	0	499	615	
11	0	0	0	0	499	616	
12	0	0	0	0	499	620	
13	0	0	0	0	498	618	
14	0	0	0	0	497	619	
15	0	0	0	0	496	620	
0	0	0	0	0	495	617	
1	0	0	0	0	494	623	
2	0	0	0	0	494	624	
3	0	0	0	0	494	625	
4	0	0	0	0	493	629	
5	0	0	0	0	495	627	
6	0	0	0	0	496	627	
7	0	0	0	0	498	628	
8	0	0	0	0	499	625	
9	0	0	0	0	502	630	
10	0	0	0	0	503	630	
11	0	0	0	0	504	631	
12	0	0	0	0	507	634	
13	0	0	0	0	509	631	
14	0	0	0	0	512	632	
15	0	0	0	0	513	631	
0	0	0	0	0	515	628	
1	0	0	0	0	518	631	
2	0	0	0	0	519	631	
3	0	0	0	0	520	631	
4	0	0	0	0	521	634	
5	0	0	0	0	521	631	
6	0	0	0	0	522	630	
7	0	0	0	0	523	631	
8	0	0	0	0	524	626	
9	0	0	0	0	525	630	
10	0	0	0	0	525	628	
11	0	0	0	0	525	627	
12	0	0	0	0	524	631	
13	0	0	0	0	524	627	
14	0	0	0	0	526	626	
15	0	0	0	0	528	625	
0	0	0	0	0	529	621	
1	0	0	0	0	531	625	
2	0	0	0	0	532	624	
3	0	0	0	0	532	624	
4	0	0	0	0	532	627	
5	0	0	0	0	531	624	
6	0	0	0	0	530	623	
7	0	0	0	0	529	624	
8	0	0	0	0	527	620	
9	0	0	0	0	523	623	
10	0	0	0	0	523	623	
11	0	0	0	0	522	624	
12	0	0	0	0	522	628	
13	0	0	0	0	521	623	
14	0	0	0	0	519	624	
15	0	0	0	0	518	623	
0	0	0	0	0	516	620	
1	0	0	0	0	515	622	
2	0	0	0	0	513	622	
3	0	0	0	0	512	622	
4	0	0	0	0	510	624	
5	0	0	0	0	508	620	
6	0	0	0	0	506	620	
7	0	0	0	0	504	620	
8	0	0	0	0	503	615	
9	0	0	0	0	501	619	
10	0	0	0	0	500	619	
11	0	0	0	0	499	617	
12	0	0	0	0	498	620	
13	0	0	0	0	497	616	
14	0	0	0	0	497	617	
15	0	0	0	0	496	616	
0	0	0	0	0	496	612	
1	0	0	0	0	494	615	
2	0	0	0	0	493	615	
3	0	0	0	0	491	615	
4	0	0	0	0	491	618	
5	0	0	0	0	489	615	
6	0	0	0	0	488	614	
7	0	0	0	0	488	614	
8	0	0	0	0	487	610	
9	0	0	0	0	486	614	
10	0	0	0	0	484	613	
11	0	0	0	0	483	614	
12	0	0	0	0	482	617	
13	0	0	0	0	482	614	
14	0	0	0	0	481	614	
15	0	0	0	0	480	613	
0	0	0	0	0	480	608	
1	0	0	0	0	480	613	
2	0	0	0	0	479	613	
3	0	0	0	0	479	613	
4	0	0	0	0	479	616	
5	0	0	0	0	480	613	
6	0	0	0	0	480	613	
7	0	0	0	0	480	612	
8	0	0	0	0	481	608	
9	0	0	0	0	481	612	
10	0	0	0	0	481	612	
11	0	0	0	0	481	612	
12	0	0	0	0	480	615	
13	0	0	0	0	480	612	
14	0	0	0	0	479	612	
15	0	0	0	0	479	612	
0	0	0	0	0	478	608	
1	0	0	0	0	478	612	
2	0	0	0	0	478	611	
3	0	0	0	0	478	611	
4	0	0	0	0	478	615	
5	0	0	0	0	478	611	
6	0	0	0	0	478	611	
7	0	0	0	0	478	611	
8	0	0	0	0	478	607	
9	0	0	0	0	478	610	
10	0	0	0	0	477	609	
11	0	0	0	0	477	609	
12	0	0	0	0	476	612	
13	0	0	0	0	476	608	
14	0	0	0	0	476	607	
15	0	0	0	0	477	607	
0	0	0	0	0	478	602	
1	0	0	0	0	478	607	
2	0	0	0	0	479	606	
3	0	0	0	0	480	606	
4	0	0	0	0	480	609	
5	0	0	0	0	481	606	
6	0	0	0	0	481	606	
7	0	0	0	0	481	606	
8	0	0	0	0	481	601	
9	0	0	0	0	480	607	
10	0	0	0	0	480	607	
11	0	0	0	0	479	607	
12	0	0	0	0	479	611	
13	0	0	0	0	480	607	
14	0	0	0	0	480	608	
15	0	0	0	0	481	608	
0	0	0	0	0	481	605	
1	0	0	0	0	482	608	
2	0	0	0	0	483	608	
3	0	0	0	0	485	608	
4	0	0	0	0	485	611	
5	0	0	0	0	486	609	
6	0	0	0	0	487	608	
7	0	0	0	0	488	608	
8	0	0	0	0	488	604	
9	0	0	0	0	488	608	
10	0	0	0	0	489	609	
11	0	0	0	0	490	609	
12	0	0	0	0	490	612	
13	0	0	0	0	490	609	
14	0	0	0	0	490	609	
15	0	0	0	0	490	609	
0	0	0	0	0	491	605	
1	0	0	0	0	491	609	
2	0	0	0	0	492	609	
3	0	0	0	0	492	609	
4	0	0	0	0	492	613	
5	0	0	0	0	491	609	
6	0	0	0	0	492	610	
7	0	0	0	0	492	611	
8	0	0	0	0	494	607	
9	0	0	0	0	494	611	
10	0	0	0	0	494	611	
11	0	0	0	0	493	612	
12	0	0	0	0	492	615	
13	0	0	0	0	493	612	
14	0	0	0	0	492	612	
15	0	0	0	0	492	612	
0	0	0	0	0	492	609	
1	0	0	0	0	492	614	
2	0	0	0	0	492	613	
3	0	0	0	0	493	614	
4	0	0	0	0	493	617	
5	0	0	0	0	493	614	
6	0	0	0	0	494	614	
7	0	0	0	0	494	614	
8	0	0	0	0	492	610	
9	0	0	0	0	492	614	
10	0	0	0	0	492	615	
11	0	0	0	0	492	614	
12	0	0	0	0	492	618	
13	0	0	0	0	493	614	
14	0	0	0	0	493	614	
15	0	0	0	0	493	615	
0	0	0	0	0	493	611	
1	0	0	0	0	493	614	
2	0	0	0	0	493	614	
3	0	0	0	0	493	615	
4	0	0	0	0	493	617	
5	0	0	0	0	493	614	
6	0	0	0	0	493	614	
7	0	0	0	0	494	613	
8	0	0	0	0	495	609	
9	0	0	0	0	495	614	
10	0	0	0	0	496	613	
11	0	0	0	0	496	614	
12	0	0	0	0	496	617	
13	0	0	0	0	495	613	
14	0	0	0	0	495	612	
15	0	0	0	0	495	612	
0	0	0	0	0	495	608	
1	0	0	0	0	494	613	
2	0	0	0	0	494	613	
3	0	0	0	0	494	613	
4	0	0	0	0	493	618	
5	0	0	0	0	494	614	
6	0	0	0	0	494	613	
7	0	0	0	0	493	613	
8	0	0	0	0	493	609	
9	0	0	0	0	493	613	
10	0	0	0	0	494	614	
11	0	0	0	0	495	613	
12	0	0	0	0	496	616	
13	0	0	0	0	496	613	
14	0	0	0	0	497	614	
15	0	0	0	0	496	613	
0	0	0	0	0	497	609	
1	0	0	0	0	497	613	
2	0	0	0	0	497	613	
3	0	0	0	0	497	614	
4	0	0	0	0	497	616	
5	0	0	0	0	498	613	
6	0	0	0	0	499	612	
7	0	0	0	0	499	612	
8	0	0	0	0	499	608	
9	0	0	0	0	499	611	
10	0	0	0	0	499	612	
11	0	0	0	0	500	612	
12	0	0	0	0	500	615	
13	0	0	0	0	500	612	
14	0	0	0	0	500	611	
15	0	0	0	0	500	612	
0	0	0	0	0	501	608	
1	0	0	0	0	502	612	
2	0	0	0	0	502	612	
3	0	0	0	0	502	613	
4	0	0	0	0	501	616	
5	0	0	0	0	501	612	
6	0	0	0	0	501	613	
7	0	0	0	0	502	612	
8	0	0	0	0	502	608	
9	0	0	0	0	502	612	
10	0	0	0	0	502	613	
11	0	0	0	0	501	613	
12	0	0	0	0	501	616	
13	0	0	0	0	501	614	
14	0	0	0	0	503	614	
15	0	0	0	0	505	615	
0	0	0	0	0	505	611	
1	0	0	0	0	502	614	
2	0	0	0	0	499	615	
3	0	0	0	0	499	615	
4	0	0	0	0	498	619	
5	0	0	0	0	496	615	
6	0	0	0	0	495	615	
7	0	0	0	0	493	615	
8	0	0	0	0	492	612	
9	0	0	0	0	490	615	
10	0	0	0	0	491	615	
11	0	0	0	0	490	615	
12	0	0	0	0	490	619	
13	0	0	0	0	491	616	
14	0	0	0	0	492	615	
15	0	0	0	0	492	615	
0	0	0	0	0	493	612	
1	0	0	0	0	494	616	
2	0	0	0	0	495	616	
3	0	0	0	0	494	616	
4	0	0	0	0	494	620	
5	0	0	0	0	494	616	
6	0	0	0	0	494	617	
7	0	0	0	0	494	617	
8	0	0	0	0	494	613	
9	0	0	0	0	494	617	
10	0	0	0	0	494	617	
11	0	0	0	0	494	617	
12	0	0	0	0	494	622	
13	0	0	0	0	496	618	
14	0	0	0	0	496	618	
15	0	0	0	0	498	618	
0	0	0	0	0	498	615	
1	0	0	0	0	499	619	
2	0	0	0	0	499	620	
3	0	0	0	0	499	620	
4	0	0	0	0	499	624	
5	0	0	0	0	501	620	
6	0	0	0	0	504	620	
7	0	0	0	0	505	620	
8	0	0	0	0	506	616	
9	0	0	0	0	508	620	
10	0	0	0	0	508	620	
11	0	0	0	0	508	621	
12	0	0	0	0	509	625	
13	0	0	0	0	509	622	
14	0	0	0	0	509	622	
15	0	0	0	0	509	622	
0	0	0	0	0	508	618	
1	0	0	0	0	507	622	
2	0	0	0	0	505	623	
3	0	0	0	0	505	623	
4	0	0	0	0	504	627	
5	0	0	0	0	504	623	
6	0	0	0	0	503	623	
7	0	0	0	0	502	624	
8	0	0	0	0	502	621	
9	0	0	0	0	502	625	
10	0	0	0	0	502	625	
11	0	0	0	0	503	625	
12	0	0	0	0	503	628	
13	0	0	0	0	504	625	
14	0	0	0	0	504	626	
15	0	0	0	0	505	626	
0	0	0	0	0	505	623	
1	0	0	0	0	506	626	
2	0	0	0	0	507	627	
3	0	0	0	0	507	627	
4	0	0	0	0	506	631	
5	0	0	0	0	506	627	
6	0	0	0	0	506	628	
7	0	0	0	0	506	627	
8	0	0	0	0	506	624	
9	0	0	0	0	506	628	
10	0	0	0	0	506	628	
11	0	0	0	0	507	628	
12	0	0	0	0	507	632	
13	0	0	0	0	508	629	
14	0	0	0	0	508	629	
15	0	0	0	0	508	629	
0	0	0	0	0	508	625	
1	0	0	0	0	509	630	
2	0	0	0	0	509	630	
3	0	0	0	0	509	630	
4	0	0	0	0	509	633	
5	0	0	0	0	509	630	
6	0	0	0	0	508	630	
7	0	0	0	0	508	630	
8	0	0	0	0	508	626	
9	0	0	0	0	508	629	
10	0	0	0	0	507	630	
11	0	0	0	0	506	629	
12	0	0	0	0	506	632	
13	0	0	0	0	506	629	
14	0	0	0	0	506	629	
15	0	0	0	0	506	629	
0	0	0	0	0	506	624	
1	0	0	0	0	507	628	
2	0	0	0	0	507	627	
3	0	0	0	0	507	627	
4	0	0	0	0	506	631	
5	0	0	0	0	506	627	
6	0	0	0	0	506	626	
7	0	0	0	0	506	627	
8	0	0	0	0	507	623	
9	0	0	0	0	507	626	
10	0	0	0	0	509	627	
11	0	0	0	0	510	627	
12	0	0	0	0	511	630	
13	0	0	0	0	512	626	
14	0	0	0	0	512	626	
15	0	0	0	0	512	625	
0	0	0	0	0	511	621	
1	0	0	0	0	511	625	
2	0	0	0	0	511	625	
3	0	0	0	0	511	624	
4	0	0	0	0	511	627	
5	0	0	0	0	511	625	
6	0	0	0	0	510	624	
7	0	0	0	0	510	624	
8	0	0	0	0	510	620	
9	0	0	0	0	509	623	
10	0	0	0	0	510	624	
11	0	0	0	0	509	624	
12	0	0	0	0	510	627	
13	0	0	0	0	510	624	
14	0	0	0	0	510	623	
15	0	0	0	0	511	623	
0	0	0	0	0	511	620	
1	0	0	0	0	511	623	
2	0	0	0	0	511	623	
3	0	0	0	0	512	623	
4	0	0	0	0	512	627	
5	0	0	0	0	512	622	
6	0	0	0	0	512	623	
7	0	0	0	0	512	623	
8	0	0	0	0	513	619	
9	0	0	0	0	513	623	
10	0	0	0	0	513	622	
11	0	0	0	0	512	621	
12	0	0	0	0	512	624	
13	0	0	0	0	511	621	
14	0	0	0	0	511	621	
15	0	0	0	0	510	621	
0	0	0	0	0	509	617	
1	0	0	0	0	509	621	
2	0	0	0	0	509	620	
3	0	0	0	0	510	621	
4	0	0	0	0	511	624	
5	0	0	0	0	512	620	
6	0	0	0	0	512	620	
7	0	0	0	0	512	620	
8	0	0	0	0	513	616	
9	0	0	0	0	512	620	
10	0	0	0	0	512	620	
11	0	0	0	0	511	620	
12	0	0	0	0	511	624	
13	0	0	0	0	510	620	
14	0	0	0	0	509	620	
15	0	0	0	0	509	620	
0	0	0	0	0	508	615	
1	0	0	0	0	506	620	
2	0	0	0	0	505	619	
3	0	0	0	0	504	620	
4	0	0	0	0	504	622	
5	0	0	0	0	503	619	
6	0	0	0	0	503	618	
7	0	0	0	0	503	619	
8	0	0	0	0	503	615	
9	0	0	0	0	503	619	
10	0	0	0	0	503	619	
11	0	0	0	0	503	619	
12	0	0	0	0	503	622	
13	0	0	0	0	502	618	
14	0	0	0	0	501	618	
15	0	0	0	0	501	618	
0	0	0	0	0	501	614	
1	0	0	0	0	499	617	
2	0	0	0	0	498	616	
3	0	0	0	0	498	617	
4	0	0	0	0	497	619	
5	0	0	0	0	497	616	
6	0	0	0	0	496	615	
7	0	0	0	0	496	615	
8	0	0	0	0	495	611	
9	0	0	0	0	495	614	
10	0	0	0	0	495	614	
11	0	0	0	0	496	614	
12	0	0	0	0	496	617	
13	0	0	0	0	497	613	
14	0	0	0	0	497	613	
15	0	0	0	0	497	613	
0	0	0	0	0	497	609	
1	0	0	0	0	497	613	
2	0	0	0	0	497	612	
3	0	0	0	0	498	613	
4	0	0	0	0	498	616	
5	0	0	0	0	499	612	
6	0	0	0	0	499	612	
7	0	0	0	0	499	612	
8	0	0	0	0	499	608	
9	0	0	0	0	499	612	
10	0	0	0	0	500	611	
11	0	0	0	0	500	611	
12	0	0	0	0	499	615	
13	0	0	0	0	499	611	
14	0	0	0	0	499	611	
15	0	0	0	0	499	611	
0	0	0	0	0	499	607	
1	0	0	0	0	499	610	
2	0	0	0	0	499	610	
3	0	0	0	0	499	610	
4	0	0	0	0	499	612	
5	0	0	0	0	498	609	
6	0	0	0	0	499	609	
7	0	0	0	0	499	608	
8	0	0	0	0	499	604	
9	0	0	0	0	500	607	
10	0	0	0	0	500	607	
11	0	0	0	0	501	608	
12	0	0	0	0	501	611	
13	0	0	0	0	502	607	
14	0	0	0	0	503	608	
15	0	0	0	0	504	608	
0	0	0	0	0	504	604	
1	0	0	0	0	505	608	
2	0	0	0	0	506	608	
3	0	0	0	0	507	608	
4	0	0	0	0	507	611	
5	0	0	0	0	507	608	
6	0	0	0	0	507	608	
7	0	0	0	0	507	608	
8	0	0	0	0	508	604	
9	0	0	0	0	507	608	
10	0	0	0	0	507	608	
11	0	0	0	0	506	608	
12	0	0	0	0	505	612	
13	0	0	0	0	504	609	
14	0	0	0	0	504	609	
15	0	0	0	0	503	608	
0	0	0	0	0	502	604	
1	0	0	0	0	502	609	
2	0	0	0	0	501	608	
3	0	0	0	0	500	608	
4	0	0	0	0	499	611	
5	0	0	0	0	498	608	
6	0	0	0	0	497	606	
7	0	0	0	0	497	606	
8	0	0	0	0	497	602	
9	0	0	0	0	497	605	
10	0	0	0	0	497	605	
11	0	0	0	0	498	604	
12	0	0	0	0	497	607	
13	0	0	0	0	496	603	
14	0	0	0	0	496	604	
15	0	0	0	0	496	604	
0	0	0	0	0	496	599	
1	0	0	0	0	497	604	
2	0	0	0	0	497	603	
3	0	0	0	0	497	603	
4	0	0	0	0	497	607	
5	0	0	0	0	497	605	
6	0	0	0	0	497	604	
7	0	0	0	0	496	604	
8	0	0	0	0	496	601	
9	0	0	0	0	496	605	
10	0	0	0	0	496	606	
11	0	0	0	0	496	606	
12	0	0	0	0	497	610	
13	0	0	0	0	498	607	
14	0	0	0	0	499	607	
15	0	0	0	0	500	607	
0	0	0	0	0	501	604	
1	0	0	0	0	502	608	
2	0	0	0	0	500	607	
3	0	0	0	0	500	608	
4	0	0	0	0	500	611	
5	0	0	0	0	499	607	
6	0	0	0	0	499	606	
7	0	0	0	0	499	605	
8	0	0	0	0	500	600	
9	0	0	0	0	500	603	
10	0	0	0	0	499	601	
11	0	0	0	0	499	600	
12	0	0	0	0	499	602	
13	0	0	0	0	500	596	
14	0	0	0	0	500	595	
15	0	0	0	0	500	594	
0	0	0	0	0	501	589	
1	0	0	0	0	501	592	
2	0	0	0	0	500	591	
3	0	0	0	0	499	591	
4	0	0	0	0	498	593	
5	0	0	0	0	496	590	
6	0	0	0	0	493	590	
7	0	0	0	0	488	590	
8	0	0	0	0	482	587	
9	0	0	0	0	475	592	
10	0	0	0	0	467	593	
11	0	0	0	0	459	595	
12	0	0	0	0	449	600	
13	0	0	0	0	441	597	
14	0	0	0	0	433	598	
15	0	0	0	0	428	600	
0	0	0	0	0	425	596	
1	0	0	0	0	423	601	
2	0	0	0	0	426	603	
3	0	0	0	0	429	604	
4	0	0	0	0	435	608	
5	0	0	0	0	444	605	
6	0	0	0	0	455	606	
7	0	0	0	0	470	607	
8	0	0	0	0	487	604	
9	0	0	0	0	507	609	
10	0	0	0	0	528	609	
11	0	0	0	0	552	610	
12	0	0	0	0	579	613	
13	0	0	0	0	610	611	
14	0	0	0	0	642	611	
15	0	0	0	0	674	612	
0	0	0	0	0	705	608	
1	0	0	0	0	734	612	
2	0	0	0	0	759	612	
3	0	0	0	0	780	612	
4	0	0	0	0	797	615	
5	0	0	0	0	809	612	
6	0	0	0	0	816	612	
7	0	0	0	0	816	611	
8	0	0	0	0	814	607	
9	0	0	0	0	808	611	
10	0	0	0	0	803	611	
11	0	0	0	0	799	610	
12	0	0	0	0	792	614	
13	0	0	0	0	781	610	
14	0	0	0	0	768	610	
15	0	0	0	0	754	609	
0	0	0	0	0	738	606	
1	0	0	0	0	722	610	
2	0	0	0	0	705	611	
3	0	0	0	0	688	611	
4	0	0	0	0	669	614	
5	0	0	0	0	652	611	
6	0	0	0	0	637	611	
7	0	0	0	0	623	611	
8	0	0	0	0	611	608	
9	0	0	0	0	599	612	
10	0	0	0	0	588	612	
11	0	0	0	0	577	612	
12	0	0	0	0	567	616	
13	0	0	0	0	558	612	
14	0	0	0	0	549	611	
15	0	0	0	0	540	612	
0	0	0	0	0	531	609	
1	0	0	0	0	523	613	
2	0	0	0	0	515	613	
3	0	0	0	0	507	613	
4	0	0	0	0	500	616	
5	0	0	0	0	493	614	
6	0	0	0	0	487	613	
7	0	0	0	0	480	613	
8	0	0	0	0	475	609	
9	0	0	0	0	470	613	
10	0	0	0	0	467	613	
11	0	0	0	0	463	613	
12	0	0	0	0	460	617	
13	0	0	0	0	458	614	
14	0	0	0	0	455	613	
15	0	0	0	0	453	613	
0	0	0	0	0	451	609	
1	0	0	0	0	450	613	
2	0	0	0	0	449	613	
3	0	0	0	0	448	612	
4	0	0	0	0	447	616	
5	0	0	0	0	446	613	
6	0	0	0	0	445	613	
7	0	0	0	0	444	613	
8	0	0	0	0	443	608	
9	0	0	0	0	442	613	
10	0	0	0	0	443	613	
11	0	0	0	0	443	614	
12	0	0	0	0	443	617	
13	0	0	0	0	444	613	
14	0	0	0	0	444	612	
15	0	0	0	0	444	613	
0	0	0	0	0	445	609	
1	0	0	0	0	445	613	
2	0	0	0	0	446	613	
3	0	0	0	0	447	613	
4	0	0	0	0	447	616	
5	0	0	0	0	447	612	
6	0	0	0	0	447	613	
7	0	0	0	0	448	613	
8	0	0	0	0	448	609	
9	0	0	0	0	449	614	
10	0	0	0	0	449	614	
11	0	0	0	0	450	614	
12	0	0	0	0	451	617	
13	0	0	0	0	452	614	
14	0	0	0	0	452	614	
15	0	0	0	0	453	614	
0	0	0	0	0	454	610	
1	0	0	0	0	455	614	
2	0	0	0	0	457	613	
3	0	0	0	0	457	614	
4	0	0	0	0	458	617	
5	0	0	0	0	460	613	
6	0	0	0	0	461	613	
7	0	0	0	0	461	612	
8	0	0	0	0	463	609	
9	0	0	0	0	463	612	
10	0	0	0	0	464	612	
11	0	0	0	0	463	613	
12	0	0	0	0	463	616	
13	0	0	0	0	464	613	
14	0	0	0	0	464	612	
15	0	0	0	0	464	613	
0	0	0	0	0	464	609	
1	0	0	0	0	464	613	
2	0	0	0	0	463	613	
3	0	0	0	0	462	613	
4	0	0	0	0	462	616	
5	0	0	0	0	463	613	
6	0	0	0	0	464	614	
7	0	0	0	0	465	613	
8	0	0	0	0	467	609	
9	0	0	0	0	467	614	
10	0	0	0	0	467	613	
11	0	0	0	0	467	614	
12	0	0	0	0	467	617	
13	0	0	0	0	467	614	
14	0	0	0	0	468	614	
15	0	0	0	0	470	614	
0	0	0	0	0	470	610	
1	0	0	0	0	471	615	
2	0	0	0	0	471	614	
3	0	0	0	0	471	615	
4	0	0	0	0	472	619	
5	0	0	0	0	472	614	
6	0	0	0	0	473	615	
7	0	0	0	0	473	615	
8	0	0	0	0	473	610	
9	0	0	0	0	474	614	
10	0	0	0	0	474	614	
11	0	0	0	0	474	615	
12	0	0	0	0	474	618	
13	0	0	0	0	474	614	
14	0	0	0	0	473	615	
15	0	0	0	0	474	615	
0	0	0	0	0	473	611	
1	0	0	0	0	473	614	
2	0	0	0	0	474	614	
3	0	0	0	0	474	614	
4	0	0	0	0	474	618	
5	0	0	0	0	474	614	
6	0	0	0	0	473	614	
7	0	0	0	0	473	614	
8	0	0	0	0	473	611	
9	0	0	0	0	473	614	
10	0	0	0	0	472	615	
11	0	0	0	0	472	615	
12	0	0	0	0	472	618	
13	0	0	0	0	472	615	
14	0	0	0	0	471	614	
15	0	0	0	0	470	614	
0	0	0	0	0	470	610	
1	0	0	0	0	470	614	
2	0	0	0	0	469	614	
3	0	0	0	0	470	614	
4	0	0	0	0	470	617	
5	0	0	0	0	470	613	
6	0	0	0	0	470	614	
7	0	0	0	0	470	613	
8	0	0	0	0	470	609	
9	0	0	0	0	469	613	
10	0	0	0	0	469	613	
11	0	0	0	0	470	613	
12	0	0	0	0	471	616	
13	0	0	0	0	471	612	
14	0	0	0	0	471	612	
15	0	0	0	0	472	612	
0	0	0	0	0	475	608	
1	0	0	0	0	475	612	
2	0	0	0	0	475	611	
3	0	0	0	0	476	612	
4	0	0	0	0	477	615	
5	0	0	0	0	477	612	
6	0	0	0	0	478	612	
7	0	0	0	0	478	612	
8	0	0	0	0	479	608	
9	0	0	0	0	480	612	
10	0	0	0	0	480	612	
11	0	0	0	0	481	612	
12	0	0	0	0	482	616	
13	0	0	0	0	483	612	
14	0	0	0	0	483	612	
15	0	0	0	0	484	612	
0	0	0	0	0	483	608	
1	0	0	0	0	484	612	
2	0	0	0	0	485	612	
3	0	0	0	0	485	612	
4	0	0	0	0	485	616	
5	0	0	0	0	484	612	
6	0	0	0	0	484	612	
7	0	0	0	0	484	612	
8	0	0	0	0	483	608	
9	0	0	0	0	482	611	
10	0	0	0	0	480	611	
11	0	0	0	0	479	611	
12	0	0	0	0	479	615	
13	0	0	0	0	480	610	
14	0	0	0	0	483	610	
15	0	0	0	0	484	610	
0	0	0	0	0	483	606	
1	0	0	0	0	481	609	
2	0	0	0	0	480	609	
3	0	0	0	0	479	609	
4	0	0	0	0	478	612	
5	0	0	0	0	478	608	
6	0	0	0	0	478	608	
7	0	0	0	0	479	608	
8	0	0	0	0	480	604	
9	0	0	0	0	481	608	
10	0	0	0	0	482	608	
11	0	0	0	0	482	608	
12	0	0	0	0	483	611	
13	0	0	0	0	484	608	
14	0	0	0	0	486	607	
15	0	0	0	0	488	608	
0	0	0	0	0	489	604	
1	0	0	0	0	489	608	
2	0	0	0	0	490	608	
3	0	0	0	0	491	609	
4	0	0	0	0	492	612	
5	0	0	0	0	492	608	
6	0	0	0	0	493	608	
7	0	0	0	0	495	608	
8	0	0	0	0	496	604	
9	0	0	0	0	497	609	
10	0	0	0	0	498	608	
11	0	0	0	0	499	609	
12	0	0	0	0	501	611	
13	0	0	0	0	505	608	
14	0	0	0	0	508	608	
15	0	0	0	0	510	608	
0	0	0	0	0	511	604	
1	0	0	0	0	513	608	
2	0	0	0	0	514	607	
3	0	0	0	0	516	608	
4	0	0	0	0	516	611	
5	0	0	0	0	517	608	
6	0	0	0	0	518	607	
7	0	0	0	0	519	607	
8	0	0	0	0	519	603	
9	0	0	0	0	520	607	
10	0	0	0	0	520	607	
11	0	0	0	0	519	607	
12	0	0	0	0	519	610	
13	0	0	0	0	519	607	
14	0	0	0	0	520	607	
15	0	0	0	0	519	606	
0	0	0	0	0	520	603	
1	0	0	0	0	521	607	
2	0	0	0	0	521	607	
3	0	0	0	0	521	607	
4	0	0	0	0	522	610	
5	0	0	0	0	522	607	
6	0	0	0	0	521	607	
7	0	0	0	0	521	607	
8	0	0	0	0	520	603	
9	0	0	0	0	519	607	
10	0	0	0	0	519	607	
11	0	0	0	0	519	607	
12	0	0	0	0	519	611	
13	0	0	0	0	518	608	
14	0	0	0	0	518	608	
15	0	0	0	0	518	608	
0	0	0	0	0	518	605	
1	0	0	0	0	518	609	
2	0	0	0	0	517	609	
3	0	0	0	0	518	610	
4	0	0	0	0	518	613	
5	0	0	0	0	518	610	
6	0	0	0	0	518	610	
7	0	0	0	0	519	610	
8	0	0	0	0	518	605	
9	0	0	0	0	518	610	
10	0	0	0	0	518	609	
11	0	0	0	0	517	609	
12	0	0	0	0	515	612	
13	0	0	0	0	515	609	
14	0	0	0	0	514	609	
15	0	0	0	0	513	608	
0	0	0	0	0	511	604	
1	0	0	0	0	510	607	
2	0	0	0	0	509	608	
3	0	0	0	0	509	608	
4	0	0	0	0	508	611	
5	0	0	0	0	507	607	
6	0	0	0	0	505	607	
7	0	0	0	0	503	607	
8	0	0	0	0	501	604	
9	0	0	0	0	499	608	
10	0	0	0	0	498	608	
11	0	0	0	0	496	608	
12	0	0	0	0	494	612	
13	0	0	0	0	493	608	
14	0	0	0	0	493	608	
15	0	0	0	0	492	609	
0	0	0	0	0	491	604	
1	0	0	0	0	490	608	
2	0	0	0	0	489	608	
3	0	0	0	0	489	609	
4	0	0	0	0	489	612	
5	0	0	0	0	488	608	
6	0	0	0	0	487	609	
7	0	0	0	0	487	609	
8	0	0	0	0	487	605	
9	0	0	0	0	486	609	
10	0	0	0	0	486	610	
11	0	0	0	0	485	610	
12	0	0	0	0	484	614	
13	0	0	0	0	483	610	
14	0	0	0	0	483	610	
15	0	0	0	0	483	611	
0	0	0	0	0	483	607	
1	0	0	0	0	482	610	
2	0	0	0	0	481	611	
3	0	0	0	0	480	611	
4	0	0	0	0	479	614	
5	0	0	0	0	479	610	
6	0	0	0	0	479	609	
7	0	0	0	0	479	608	
8	0	0	0	0	479	604	
9	0	0	0	0	479	607	
10	0	0	0	0	479	607	
11	0	0	0	0	478	607	
12	0	0	0	0	478	610	
13	0	0	0	0	477	606	
14	0	0	0	0	477	607	
15	0	0	0	0	477	606	
0	0	0	0	0	476	603	
1	0	0	0	0	477	607	
2	0	0	0	0	477	607	
3	0	0	0	0	477	608	
4	0	0	0	0	478	612	
5	0	0	0	0	479	609	
6	0	0	0	0	478	610	
7	0	0	0	0	478	611	
8	0	0	0	0	478	608	
9	0	0	0	0	478	613	
10	0	0	0	0	478	614	
11	0	0	0	0	478	615	
12	0	0	0	0	478	620	
13	0	0	0	0	479	617	
14	0	0	0	0	479	617	
15	0	0	0	0	479	618	
0	0	0	0	0	479	615	
1	0	0	0	0	479	619	
2	0	0	0	0	480	619	
3	0	0	0	0	480	619	
4	0	0	0	0	480	623	
5	0	0	0	0	480	620	
6	0	0	0	0	480	619	
7	0	0	0	0	480	620	
8	0	0	0	0	481	615	
9	0	0	0	0	482	618	
10	0	0	0	0	483	618	
11	0	0	0	0	483	619	
12	0	0	0	0	484	621	
13	0	0	0	0	484	617	
14	0	0	0	0	484	617	
15	0	0	0	0	484	617	
0	0	0	0	0	484	614	
1	0	0	0	0	484	619	
2	0	0	0	0	484	619	
3	0	0	0	0	485	620	
4	0	0	0	0	486	623	
5	0	0	0	0	486	620	
6	0	0	0	0	486	620	
7	0	0	0	0	487	620	
8	0	0	0	0	488	616	
9	0	0	0	0	488	620	
10	0	0	0	0	488	620	
11	0	0	0	0	489	621	
12	0	0	0	0	489	625	
13	0	0	0	0	489	622	
14	0	0	0	0	489	621	
15	0	0	0	0	490	622	
0	0	0	0	0	490	618	
1	0	0	0	0	490	623	
2	0	0	0	0	490	622	
3	0	0	0	0	490	622	
4	0	0	0	0	491	626	
5	0	0	0	0	491	622	
6	0	0	0	0	491	623	
7	0	0	0	0	492	623	
8	0	0	0	0	493	619	
9	0	0	0	0	494	622	
10	0	0	0	0	494	623	
11	0	0	0	0	494	623	
12	0	0	0	0	495	625	
13	0	0	0	0	496	621	
14	0	0	0	0	495	621	
15	0	0	0	0	495	620	
0	0	0	0	0	495	617	
1	0	0	0	0	494	620	
2	0	0	0	0	493	620	
3	0	0	0	0	493	619	
4	0	0	0	0	495	623	
5	0	0	0	0	497	620	
6	0	0	0	0	498	620	
7	0	0	0	0	499	619	
8	0	0	0	0	500	616	
9	0	0	0	0	500	620	
10	0	0	0	0	500	619	
11	0	0	0	0	500	620	
12	0	0	0	0	500	623	
13	0	0	0	0	500	621	
14	0	0	0	0	500	621	
15	0	0	0	0	499	621	
0	0	0	0	0	499	617	
1	0	0	0	0	499	622	
2	0	0	0	0	500	621	
3	0	0	0	0	501	622	
4	0	0	0	0	499	624	
5	0	0	0	0	500	620	
6	0	0	0	0	502	621	
7	0	0	0	0	503	620	
8	0	0	0	0	505	616	
9	0	0	0	0	506	620	
10	0	0	0	0	507	619	
11	0	0	0	0	508	619	
12	0	0	0	0	509	622	
13	0	0	0	0	509	618	
14	0	0	0	0	509	617	
15	0	0	0	0	509	617	
0	0	0	0	0	510	613	
1	0	0	0	0	510	617	
2	0	0	0	0	509	615	
3	0	0	0	0	509	615	
4	0	0	0	0	509	619	
5	0	0	0	0	510	615	
6	0	0	0	0	510	615	
7	0	0	0	0	511	615	
8	0	0	0	0	510	611	
9	0	0	0	0	511	614	
10	0	0	0	0	510	613	
11	0	0	0	0	510	613	
12	0	0	0	0	511	616	
13	0	0	0	0	512	613	
14	0	0	0	0	511	612	
15	0	0	0	0	512	612	
0	0	0	0	0	512	608	
1	0	0	0	0	512	612	
2	0	0	0	0	512	611	
3	0	0	0	0	511	611	
4	0	0	0	0	511	615	
5	0	0	0	0	512	611	
6	0	0	0	0	511	611	
7	0	0	0	0	511	610	
8	0	0	0	0	511	606	
9	0	0	0	0	512	611	
10	0	0	0	0	512	610	
11	0	0	0	0	512	610	
12	0	0	0	0	512	613	
13	0	0	0	0	512	609	
14	0	0	0	0	512	609	
15	0	0	0	0	512	608	
0	0	0	0	0	512	605	
1	0	0	0	0	512	608	
2	0	0	0	0	512	608	
3	0	0	0	0	512	607	
4	0	0	0	0	511	611	
5	0	0	0	0	511	607	
6	0	0	0	0	512	608	
7	0	0	0	0	512	607	
8	0	0	0	0	512	603	
9	0	0	0	0	513	607	
10	0	0	0	0	512	607	
11	0	0	0	0	513	607	
12	0	0	0	0	513	611	
13	0	0	0	0	514	607	
14	0	0	0	0	515	607	
15	0	0	0	0	516	607	
0	0	0	0	0	516	603	
1	0	0	0	0	517	608	
2	0	0	0	0	517	607	
3	0	0	0	0	516	607	
4	0	0	0	0	516	610	
5	0	0	0	0	516	606	
6	0	0	0	0	516	606	
7	0	0	0	0	516	606	
8	0	0	0	0	516	603	
9	0	0	0	0	517	606	
10	0	0	0	0	517	606	
11	0	0	0	0	518	606	
12	0	0	0	0	517	609	
13	0	0	0	0	517	606	
14	0	0	0	0	517	606	
15	0	0	0	0	516	604	
0	0	0	0	0	516	601	
1	0	0	0	0	515	606	
2	0	0	0	0	514	605	
3	0	0	0	0	515	605	
4	0	0	0	0	514	609	
5	0	0	0	0	514	605	
6	0	0	0	0	514	605	
7	0	0	0	0	513	605	
8	0	0	0	0	513	600	
9	0	0	0	0	512	604	
10	0	0	0	0	512	604	
11	0	0	0	0	512	605	
12	0	0	0	0	512	609	
13	0	0	0	0	512	605	
14	0	0	0	0	512	605	
15	0	0	0	0	512	606	
0	0	0	0	0	512	602	
1	0	0	0	0	512	606	
2	0	0	0	0	513	606	
3	0	0	0	0	512	606	
4	0	0	0	0	512	609	
5	0	0	0	0	512	605	
6	0	0	0	0	512	606	
7	0	0	0	0	512	606	
8	0	0	0	0	513	602	
9	0	0	0	0	513	606	
10	0	0	0	0	513	607	
11	0	0	0	0	512	607	
12	0	0	0	0	512	610	
13	0	0	0	0	512	607	
14	0	0	0	0	511	607	
15	0	0	0	0	511	608	
0	0	0	0	0	510	604	
1	0	0	0	0	510	608	
2	0	0	0	0	511	608	
3	0	0	0	0	511	608	
4	0	0	0	0	511	612	
5	0	0	0	0	510	609	
6	0	0	0	0	510	608	
7	0	0	0	0	511	609	
8	0	0	0	0	511	605	
9	0	0	0	0	511	609	
10	0	0	0	0	511	609	
11	0	0	0	0	510	610	
12	0	0	0	0	510	614	
13	0	0	0	0	511	609	
14	0	0	0	0	511	609	
15	0	0	0	0	511	610	
0	0	0	0	0	511	606	
1	0	0	0	0	511	609	
2	0	0	0	0	511	609	
3	0	0	0	0	513	609	
4	0	0	0	0	513	613	
5	0	0	0	0	514	609	
6	0	0	0	0	514	609	
7	0	0	0	0	514	610	
8	0	0	0	0	513	606	
9	0	0	0	0	513	609	
10	0	0	0	0	512	610	
11	0	0	0	0	512	609	
12	0	0	0	0	511	613	
13	0	0	0	0	512	610	
14	0	0	0	0	511	609	
15	0	0	0	0	512	609	
0	0	0	0	0	512	605	
1	0	0	0	0	512	608	
2	0	0	0	0	512	608	
3	0	0	0	0	512	608	
4	0	0	0	0	512	611	
5	0	0	0	0	513	607	
6	0	0	0	0	513	606	
7	0	0	0	0	513	605	
8	0	0	0	0	513	601	
9	0	0	0	0	513	604	
10	0	0	0	0	513	604	
11	0	0	0	0	513	604	
12	0	0	0	0	513	607	
13	0	0	0	0	512	604	
14	0	0	0	0	512	604	
15	0	0	0	0	512	603	
0	0	0	0	0	512	599	
1	0	0	0	0	511	603	
2	0	0	0	0	511	603	
3	0	0	0	0	511	603	
4	0	0	0	0	510	607	
5	0	0	0	0	511	603	
6	0	0	0	0	511	604	
7	0	0	0	0	510	603	
8	0	0	0	0	510	600	
9	0	0	0	0	509	604	
10	0	0	0	0	509	604	
11	0	0	0	0	509	605	
12	0	0	0	0	508	608	
13	0	0	0	0	509	605	
14	0	0	0	0	508	605	
15	0	0	0	0	507	606	
0	0	0	0	0	508	601	
1	0	0	0	0	508	606	
2	0	0	0	0	509	606	
3	0	0	0	0	509	606	
4	0	0	0	0	508	609	
5	0	0	0	0	509	606	
6	0	0	0	0	509	606	
7	0	0	0	0	509	607	
8	0	0	0	0	509	602	
9	0	0	0	0	509	607	
10	0	0	0	0	509	607	
11	0	0	0	0	509	607	
12	0	0	0	0	510	610	
13	0	0	0	0	510	606	
14	0	0	0	0	510	606	
15	0	0	0	0	511	606	
0	0	0	0	0	512	602	
1	0	0	0	0	512	607	
2	0	0	0	0	512	607	
3	0	0	0	0	512	607	
4	0	0	0	0	512	610	
5	0	0	0	0	511	607	
6	0	0	0	0	511	608	
7	0	0	0	0	510	607	
8	0	0	0	0	510	604	
9	0	0	0	0	510	608	
10	0	0	0	0	510	608	
11	0	0	0	0	510	608	
12	0	0	0	0	510	612	
13	0	0	0	0	510	608	
14	0	0	0	0	510	609	
15	0	0	0	0	509	608	
0	0	0	0	0	510	605	
1	0	0	0	0	509	608	
2	0	0	0	0	509	608	
3	0	0	0	0	510	609	
4	0	0	0	0	510	612	
5	0	0	0	0	511	609	
6	0	0	0	0	511	609	
7	0	0	0	0	512	609	
8	0	0	0	0	512	605	
9	0	0	0	0	512	609	
10	0	0	0	0	512	610	
11	0	0	0	0	511	610	
12	0	0	0	0	511	613	
13	0	0	0	0	511	609	
14	0	0	0	0	511	610	
15	0	0	0	0	511	610	
0	0	0	0	0	511	606	
1	0	0	0	0	511	610	
2	0	0	0	0	511	610	
3	0	0	0	0	512	610	
4	0	0	0	0	511	614	
5	0	0	0	0	511	611	
6	0	0	0	0	511	611	
7	0	0	0	0	511	611	
8	0	0	0	0	512	607	
9	0	0	0	0	512	611	
10	0	0	0	0	512	611	
11	0	0	0	0	511	612	
12	0	0	0	0	511	615	
13	0	0	0	0	511	611	
14	0	0	0	0	510	611	
15	0	0	0	0	510	611	
0	0	0	0	0	511	608	
1	0	0	0	0	511	611	
2	0	0	0	0	510	612	
3	0	0	0	0	510	612	
4	0	0	0	0	511	615	
5	0	0	0	0	511	611	
6	0	0	0	0	511	611	
7	0	0	0	0	510	611	
8	0	0	0	0	510	608	
9	0	0	0	0	510	611	
10	0	0	0	0	510	611	
11	0	0	0	0	510	611	
12	0	0	0	0	510	615	
13	0	0	0	0	510	611	
14	0	0	0	0	510	611	
15	0	0	0	0	510	611	
0	0	0	0	0	511	608	
1	0	0	0	0	511	612	
2	0	0	0	0	512	611	
3	0	0	0	0	512	611	
4	0	0	0	0	512	614	
5	0	0	0	0	513	611	
6	0	0	0	0	513	611	
7	0	0	0	0	513	611	
8	0	0	0	0	512	606	
9	0	0	0	0	511	610	
10	0	0	0	0	510	611	
11	0	0	0	0	509	611	
12	0	0	0	0	508	614	
13	0	0	0	0	507	611	
14	0	0	0	0	507	611	
15	0	0	0	0	507	611	
0	0	0	0	0	507	607	
1	0	0	0	0	507	611	
2	0	0	0	0	507	611	
3	0	0	0	0	507	612	
4	0	0	0	0	507	615	
5	0	0	0	0	507	612	
6	0	0	0	0	507	612	
7	0	0	0	0	507	612	
8	0	0	0	0	507	609	
9	0	0	0	0	507	612	
10	0	0	0	0	507	613	
11	0	0	0	0	507	612	
12	0	0	0	0	507	616	
13	0	0	0	0	507	612	
14	0	0	0	0	507	613	
15	0	0	0	0	507	613	
0	0	0	0	0	507	609	
1	0	0	0	0	505	612	
2	0	0	0	0	505	612	
3	0	0	0	0	505	613	
4	0	0	0	0	504	616	
5	0	0	0	0	504	612	
6	0	0	0	0	503	612	
7	0	0	0	0	503	612	
8	0	0	0	0	501	609	
9	0	0	0	0	501	613	
10	0	0	0	0	500	612	
11	0	0	0	0	499	612	
12	0	0	0	0	498	616	
13	0	0	0	0	498	612	
14	0	0	0	0	497	613	
15	0	0	0	0	497	613	
0	0	0	0	0	496	609	
1	0	0	0	0	496	613	
2	0	0	0	0	497	613	
3	0	0	0	0	496	613	
4	0	0	0	0	496	616	
5	0	0	0	0	496	612	
6	0	0	0	0	496	613	
7	0	0	0	0	497	612	
8	0	0	0	0	498	609	
9	0	0	0	0	499	613	
10	0	0	0	0	498	612	
11	0	0	0	0	498	612	
12	0	0	0	0	498	616	
13	0	0	0	0	497	612	
14	0	0	0	0	499	613	
15	0	0	0	0	499	613	
0	0	0	0	0	499	609	
1	0	0	0	0	500	612	
2	0	0	0	0	501	612	
3	0	0	0	0	502	613	
4	0	0	0	0	503	616	
5	0	0	0	0	503	612	
6	0	0	0	0	503	612	
7	0	0	0	0	504	612	
8	0	0	0	0	504	608	
9	0	0	0	0	504	612	
10	0	0	0	0	505	611	
11	0	0	0	0	505	611	
12	0	0	0	0	504	615	
13	0	0	0	0	505	612	
14	0	0	0	0	505	611	
15	0	0	0	0	505	611	
0	0	0	0	0	505	608	
1	0	0	0	0	505	611	
2	0	0	0	0	505	611	
3	0	0	0	0	505	611	
4	0	0	0	0	505	614	
5	0	0	0	0	506	611	
6	0	0	0	0	506	611	
7	0	0	0	0	506	611	
8	0	0	0	0	506	607	
9	0	0	0	0	505	610	
10	0	0	0	0	507	610	
11	0	0	0	0	507	610	
12	0	0	0	0	507	613	
13	0	0	0	0	508	610	
14	0	0	0	0	508	610	
15	0	0	0	0	509	609	
0	0	0	0	0	510	605	
1	0	0	0	0	510	609	
2	0	0	0	0	509	609	
3	0	0	0	0	508	609	
4	0	0	0	0	509	613	
5	0	0	0	0	510	609	
6	0	0	0	0	509	609	
7	0	0	0	0	508	609	
8	0	0	0	0	509	604	
9	0	0	0	0	509	608	
10	0	0	0	0	509	608	
11	0	0	0	0	508	608	
12	0	0	0	0	508	612	
13	0	0	0	0	508	608	
14	0	0	0	0	508	609	
15	0	0	0	0	507	608	
0	0	0	0	0	508	605	
1	0	0	0	0	508	609	
2	0	0	0	0	507	608	
3	0	0	0	0	506	609	
4	0	0	0	0	506	612	
5	0	0	0	0	505	608	
6	0	0	0	0	504	608	
7	0	0	0	0	504	608	
8	0	0	0	0	503	604	
9	0	0	0	0	503	609	
10	0	0	0	0	503	608	
11	0	0	0	0	502	609	
12	0	0	0	0	501	612	
13	0	0	0	0	503	608	
14	0	0	0	0	504	608	
15	0	0	0	0	504	609	
0	0	0	0	0	503	606	
1	0	0	0	0	500	609	
2	0	0	0	0	499	609	
3	0	0	0	0	497	610	
4	0	0	0	0	496	613	
5	0	0	0	0	496	610	
6	0	0	0	0	495	609	
7	0	0	0	0	495	610	
8	0	0	0	0	495	605	
9	0	0	0	0	496	609	
10	0	0	0	0	496	610	
11	0	0	0	0	496	610	
12	0	0	0	0	496	615	
13	0	0	0	0	495	611	
14	0	0	0	0	495	611	
15	0	0	0	0	495	610	
0	0	0	0	0	495	607	
1	0	0	0	0	495	610	
2	0	0	0	0	496	610	
3	0	0	0	0	496	610	
4	0	0	0	0	497	613	
5	0	0	0	0	497	610	
6	0	0	0	0	498	610	
7	0	0	0	0	499	610	
8	0	0	0	0	499	606	
9	0	0	0	0	500	611	
10	0	0	0	0	500	611	
11	0	0	0	0	500	611	
12	0	0	0	0	501	615	
13	0	0	0	0	501	612	
14	0	0	0	0	501	612	
15	0	0	0	0	501	612	
0	0	0	0	0	502	608	
1	0	0	0	0	502	614	
2	0	0	0	0	502	614	
3	0	0	0	0	502	614	
4	0	0	0	0	500	617	
5	0	0	0	0	499	614	
6	0	0	0	0	496	615	
7	0	0	0	0	491	615	
8	0	0	0	0	485	611	
9	0	0	0	0	478	615	
10	0	0	0	0	471	614	
11	0	0	0	0	463	615	
12	0	0	0	0	455	619	
13	0	0	0	0	447	616	
14	0	0	0	0	442	615	
15	0	0	0	0	439	615	
0	0	0	0	0	437	612	
1	0	0	0	0	438	615	
2	0	0	0	0	443	615	
3	0	0	0	0	449	616	
4	0	0	0	0	458	619	
5	0	0	0	0	467	615	
6	0	0	0	0	478	615	
7	0	0	0	0	492	616	
8	0	0	0	0	508	611	
9	0	0	0	0	526	615	
10	0	0	0	0	546	616	
11	0	0	0	0	568	617	
12	0	0	0	0	591	620	
13	0	0	0	0	617	616	
14	0	0	0	0	645	615	
15	0	0	0	0	672	616	
0	0	0	0	0	697	611	
1	0	0	0	0	720	615	
2	0	0	0	0	739	615	
3	0	0	0	0	755	615	
4	0	0	0	0	764	619	
5	0	0	0	0	769	615	
6	0	0	0	0	768	614	
7	0	0	0	0	763	615	
8	0	0	0	0	757	611	
9	0	0	0	0	752	615	
10	0	0	0	0	745	615	
11	0	0	0	0	736	615	
12	0	0	0	0	724	618	
13	0	0	0	0	713	615	
14	0	0	0	0	699	615	
15	0	0	0	0	686	615	
0	0	0	0	0	673	610	
1	0	0	0	0	661	615	
2	0	0	0	0	646	615	
3	0	0	0	0	631	615	
4	0	0	0	0	617	619	
5	0	0	0	0	606	615	
6	0	0	0	0	594	615	
7	0	0	0	0	583	615	
8	0	0	0	0	573	611	
9	0	0	0	0	563	615	
10	0	0	0	0	553	614	
11	0	0	0	0	545	614	
12	0	0	0	0	538	617	
13	0	0	0	0	532	614	
14	0	0	0	0	526	613	
15	0	0	0	0	519	613	
0	0	0	0	0	513	609	
1	0	0	0	0	507	613	
2	0	0	0	0	500	612	
3	0	0	0	0	494	613	
4	0	0	0	0	487	615	
5	0	0	0	0	481	611	
6	0	0	0	0	476	611	
7	0	0	0	0	472	611	
8	0	0	0	0	469	606	
9	0	0	0	0	465	610	
10	0	0	0	0	462	610	
11	0	0	0	0	459	609	
12	0	0	0	0	455	613	
13	0	0	0	0	453	609	
14	0	0	0	0	451	608	
15	0	0	0	0	449	608	
0	0	0	0	0	448	605	
1	0	0	0	0	447	608	
2	0	0	0	0	446	608	
3	0	0	0	0	445	609	
4	0	0	0	0	445	612	
5	0	0	0	0	446	608	
6	0	0	0	0	447	609	
7	0	0	0	0	447	609	
8	0	0	0	0	447	605	
9	0	0	0	0	447	608	
10	0	0	0	0	447	609	
11	0	0	0	0	446	609	
12	0	0	0	0	447	612	
13	0	0	0	0	448	608	
14	0	0	0	0	448	608	
15	0	0	0	0	448	608	
0	0	0	0	0	448	604	
1	0	0	0	0	448	608	
2	0	0	0	0	449	608	
3	0	0	0	0	449	608	
4	0	0	0	0	449	612	
5	0	0	0	0	449	609	
6	0	0	0	0	449	610	
7	0	0	0	0	450	609	
8	0	0	0	0	450	605	
9	0	0	0	0	450	609	
10	0	0	0	0	451	609	
11	0	0	0	0	451	609	
12	0	0	0	0	451	613	
13	0	0	0	0	451	609	
14	0	0	0	0	451	609	
15	0	0	0	0	452	609	
0	0	0	0	0	453	605	
1	0	0	0	0	454	610	
2	0	0	0	0	455	609	
3	0	0	0	0	457	609	
4	0	0	0	0	458	612	
5	0	0	0	0	460	609	
6	0	0	0	0	461	609	
7	0	0	0	0	462	608	
8	0	0	0	0	465	605	
9	0	0	0	0	465	608	
10	0	0	0	0	465	608	
11	0	0	0	0	464	608	
12	0	0	0	0	463	611	
13	0	0	0	0	463	608	
14	0	0	0	0	463	608	
15	0	0	0	0	463	607	
0	0	0	0	0	463	603	
1	0	0	0	0	463	608	
2	0	0	0	0	463	608	
3	0	0	0	0	464	608	
4	0	0	0	0	464	611	
5	0	0	0	0	463	607	
6	0	0	0	0	463	606	
7	0	0	0	0	463	607	
8	0	0	0	0	463	603	
9	0	0	0	0	463	607	
10	0	0	0	0	463	607	
11	0	0	0	0	464	607	
12	0	0	0	0	465	609	
13	0	0	0	0	465	605	
14	0	0	0	0	465	606	
15	0	0	0	0	465	605	
0	0	0	0	0	465	601	
1	0	0	0	0	465	604	
2	0	0	0	0	465	604	
3	0	0	0	0	465	604	
4	0	0	0	0	465	607	
5	0	0	0	0	466	604	
6	0	0	0	0	467	604	
7	0	0	0	0	468	603	
8	0	0	0	0	470	599	
9	0	0	0	0	470	602	
10	0	0	0	0	471	602	
11	0	0	0	0	472	602	
12	0	0	0	0	473	606	
13	0	0	0	0	472	602	
14	0	0	0	0	473	602	
15	0	0	0	0	472	600	
0	0	0	0	0	472	597	
1	0	0	0	0	473	601	
2	0	0	0	0	474	601	
3	0	0	0	0	475	601	
4	0	0	0	0	474	604	
5	0	0	0	0	474	600	
6	0	0	0	0	474	600	
7	0	0	0	0	474	600	
8	0	0	0	0	475	596	
9	0	0	0	0	475	599	
10	0	0	0	0	476	599	
11	0	0	0	0	476	600	
12	0	0	0	0	476	603	
13	0	0	0	0	476	599	
14	0	0	0	0	476	599	
15	0	0	0	0	477	600	
0	0	0	0	0	477	595	
1	0	0	0	0	478	599	
2	0	0	0	0	480	599	
3	0	0	0	0	481	598	
4	0	0	0	0	483	602	
5	0	0	0	0	485	598	
6	0	0	0	0	486	598	
7	0	0	0	0	487	598	
8	0	0	0	0	487	593	
9	0	0	0	0	487	597	
10	0	0	0	0	489	598	
11	0	0	0	0	489	598	
12	0	0	0	0	489	601	
13	0	0	0	0	489	598	
14	0	0	0	0	489	598	
15	0	0	0	0	489	598	
0	0	0	0	0	490	593	
1	0	0	0	0	490	598	
2	0	0	0	0	489	598	
3	0	0	0	0	490	598	
4	0	0	0	0	490	601	
5	0	0	0	0	490	597	
6	0	0	0	0	491	597	
7	0	0	0	0	491	597	
8	0	0	0	0	492	594	
9	0	0	0	0	493	597	
10	0	0	0	0	494	597	
11	0	0	0	0	494	598	
12	0	0	0	0	495	601	
13	0	0	0	0	495	598	
14	0	0	0	0	496	597	
15	0	0	0	0	496	597	
0	0	0	0	0	496	593	
1	0	0	0	0	497	597	
2	0	0	0	0	498	597	
3	0	0	0	0	498	598	
4	0	0	0	0	498	601	
5	0	0	0	0	498	597	
6	0	0	0	0	498	597	
7	0	0	0	0	498	596	
8	0	0	0	0	498	593	
9	0	0	0	0	499	597	
10	0	0	0	0	499	597	
11	0	0	0	0	499	597	
12	0	0	0	0	499	600	
13	0	0	0	0	500	598	
14	0	0	0	0	500	597	
15	0	0	0	0	500	597	
0	0	0	0	0	501	594	
1	0	0	0	0	501	598	
2	0	0	0	0	502	598	
3	0	0	0	0	503	598	
4	0	0	0	0	503	602	
5	0	0	0	0	504	598	
6	0	0	0	0	505	598	
7	0	0	0	0	506	598	
8	0	0	0	0	507	595	
9	0	0	0	0	508	598	
10	0	0	0	0	509	598	
11	0	0	0	0	509	598	
12	0	0	0	0	510	601	
13	0	0	0	0	510	598	
14	0	0	0	0	511	597	
15	0	0	0	0	512	596	
0	0	0	0	0	513	593	
1	0	0	0	0	513	596	
2	0	0	0	0	514	596	
3	0	0	0	0	514	596	
4	0	0	0	0	515	600	
5	0	0	0	0	515	596	
6	0	0	0	0	515	596	
7	0	0	0	0	516	595	
8	0	0	0	0	516	592	
9	0	0	0	0	518	596	
10	0	0	0	0	519	597	
11	0	0	0	0	519	597	
12	0	0	0	0	520	600	
13	0	0	0	0	522	596	
14	0	0	0	0	521	596	
15	0	0	0	0	521	597	
0	0	0	0	0	522	594	
1	0	0	0	0	523	598	
2	0	0	0	0	524	597	
3	0	0	0	0	526	598	
4	0	0	0	0	528	602	
5	0	0	0	0	530	598	
6	0	0	0	0	530	598	
7	0	0	0	0	531	598	
8	0	0	0	0	532	594	
9	0	0	0	0	533	598	
10	0	0	0	0	533	598	
11	0	0	0	0	534	599	
12	0	0	0	0	533	601	
13	0	0	0	0	534	598	
14	0	0	0	0	533	598	
15	0	0	0	0	533	596	
0	0	0	0	0	533	593	
1	0	0	0	0	534	596	
2	0	0	0	0	534	596	
3	0	0	0	0	534	597	
4	0	0	0	0	535	600	
5	0	0	0	0	535	595	
6	0	0	0	0	535	595	
7	0	0	0	0	535	595	
8	0	0	0	0	536	591	
9	0	0	0	0	536	595	
10	0	0	0	0	536	595	
11	0	0	0	0	535	595	
12	0	0	0	0	536	600	
13	0	0	0	0	535	596	
14	0	0	0	0	535	596	
15	0	0	0	0	535	598	
0	0	0	0	0	535	595	
1	0	0	0	0	535	599	
2	0	0	0	0	535	600	
3	0	0	0	0	535	601	
4	0	0	0	0	534	605	
5	0	0	0	0	533	603	
6	0	0	0	0	532	604	
7	0	0	0	0	531	604	
8	0	0	0	0	532	600	
9	0	0	0	0	531	605	
10	0	0	0	0	530	605	
11	0	0	0	0	529	606	
12	0	0	0	0	528	610	
13	0	0	0	0	526	607	
14	0	0	0	0	526	607	
15	0	0	0	0	525	607	
0	0	0	0	0	524	603	
1	0	0	0	0	523	608	
2	0	0	0	0	521	608	
3	0	0	0	0	520	609	
4	0	0	0	0	518	611	
5	0	0	0	0	517	608	
6	0	0	0	0	515	608	
7	0	0	0	0	513	609	
8	0	0	0	0	512	606	
9	0	0	0	0	510	610	
10	0	0	0	0	508	609	
11	0	0	0	0	508	610	
12	0	0	0	0	507	614	
13	0	0	0	0	507	611	
14	0	0	0	0	506	611	
15	0	0	0	0	505	611	
0	0	0	0	0	504	608	
1	0	0	0	0	503	613	
2	0	0	0	0	502	613	
3	0	0	0	0	501	614	
4	0	0	0	0	500	619	
5	0	0	0	0	499	616	
6	0	0	0	0	498	617	
7	0	0	0	0	496	617	
8	0	0	0	0	496	614	
9	0	0	0	0	496	619	
10	0	0	0	0	496	620	
11	0	0	0	0	496	621	
12	0	0	0	0	495	625	
13	0	0	0	0	495	622	
14	0	0	0	0	495	622	
15	0	0	0	0	495	623	
0	0	0	0	0	495	619	
1	0	0	0	0	494	624	
2	0	0	0	0	494	624	
3	0	0	0	0	493	624	
4	0	0	0	0	493	628	
5	0	0	0	0	493	625	
6	0	0	0	0	492	625	
7	0	0	0	0	492	624	
8	0	0	0	0	492	622	
9	0	0	0	0	492	625	
10	0	0	0	0	492	625	
11	0	0	0	0	492	626	
12	0	0	0	0	492	630	
13	0	0	0	0	493	626	
14	0	0	0	0	494	626	
15	0	0	0	0	494	626	
0	0	0	0	0	494	623	
1	0	0	0	0	494	627	
2	0	0	0	0	494	628	
3	0	0	0	0	495	628	
4	0	0	0	0	495	632	
5	0	0	0	0	495	628	
6	0	0	0	0	494	628	
7	0	0	0	0	494	628	
8	0	0	0	0	493	624	
9	0	0	0	0	492	627	
10	0	0	0	0	492	628	
11	0	0	0	0	492	628	
12	0	0	0	0	492	632	
13	0	0	0	0	492	628	
14	0	0	0	0	492	628	
15	0	0	0	0	491	628	
0	0	0	0	0	492	624	
1	0	0	0	0	492	628	
2	0	0	0	0	492	628	
3	0	0	0	0	492	628	
4	0	0	0	0	492	632	
5	0	0	0	0	492	628	
6	0	0	0	0	492	629	
7	0	0	0	0	492	629	
8	0	0	0	0	492	625	
9	0	0	0	0	492	628	
10	0	0	0	0	492	629	
11	0	0	0	0	492	629	
12	0	0	0	0	492	632	
13	0	0	0	0	492	628	
14	0	0	0	0	492	629	
15	0	0	0	0	492	628	
0	0	0	0	0	493	624	
1	0	0	0	0	493	627	
2	0	0	0	0	494	626	
3	0	0	0	0	495	627	
4	0	0	0	0	495	629	
5	0	0	0	0	496	626	
6	0	0	0	0	496	626	
7	0	0	0	0	495	625	
8	0	0	0	0	495	621	
9	0	0	0	0	495	625	
10	0	0	0	0	496	625	
11	0	0	0	0	497	625	
12	0	0	0	0	499	629	
13	0	0	0	0	500	625	
14	0	0	0	0	500	625	
15	0	0	0	0	501	624	
0	0	0	0	0	501	621	
1	0	0	0	0	501	624	
2	0	0	0	0	501	624	
3	0	0	0	0	500	624	
4	0	0	0	0	500	627	
5	0	0	0	0	500	624	
6	0	0	0	0	500	623	
7	0	0	0	0	499	623	
8	0	0	0	0	500	618	
9	0	0	0	0	501	622	
10	0	0	0	0	501	621	
11	0	0	0	0	501	622	
12	0	0	0	0	501	624	
13	0	0	0	0	501	620	
14	0	0	0	0	500	620	
15	0	0	0	0	500	619	
0	0	0	0	0	499	615	
1	0	0	0	0	499	618	
2	0	0	0	0	499	618	
3	0	0	0	0	498	618	
4	0	0	0	0	497	620	
5	0	0	0	0	498	616	
6	0	0	0	0	498	617	
7	0	0	0	0	498	616	
8	0	0	0	0	498	612	
9	0	0	0	0	499	615	
10	0	0	0	0	497	615	
11	0	0	0	0	497	615	
12	0	0	0	0	496	619	
13	0	0	0	0	496	614	
14	0	0	0	0	496	615	
15	0	0	0	0	495	614	
0	0	0	0	0	495	610	
1	0	0	0	0	495	614	
2	0	0	0	0	495	614	
3	0	0	0	0	495	614	
4	0	0	0	0	494	617	
5	0	0	0	0	494	614	
6	0	0	0	0	495	614	
7	0	0	0	0	495	614	
8	0	0	0	0	496	609	
9	0	0	0	0	496	612	
10	0	0	0	0	496	612	
11	0	0	0	0	497	612	
12	0	0	0	0	497	615	
13	0	0	0	0	498	612	
14	0	0	0	0	498	612	
15	0	0	0	0	497	611	
0	0	0	0	0	497	606	
1	0	0	0	0	497	610	
2	0	0	0	0	498	610	
3	0	0	0	0	498	610	
4	0	0	0	0	499	613	
5	0	0	0	0	500	609	
6	0	0	0	0	499	608	
7	0	0	0	0	499	609	
8	0	0	0	0	498	604	
9	0	0	0	0	497	608	
10	0	0	0	0	497	607	
11	0	0	0	0	497	606	
12	0	0	0	0	498	609	
13	0	0	0	0	498	605	
14	0	0	0	0	499	604	
15	0	0	0	0	499	604	
0	0	0	0	0	499	599	
1	0	0	0	0	500	603	
2	0	0	0	0	500	602	
3	0	0	0	0	500	602	
4	0	0	0	0	501	605	
5	0	0	0	0	500	601	
6	0	0	0	0	500	601	
7	0	0	0	0	499	601	
8	0	0	0	0	499	597	
9	0	0	0	0	499	600	
10	0	0	0	0	498	600	
11	0	0	0	0	498	600	
12	0	0	0	0	497	604	
13	0	0	0	0	498	601	
14	0	0	0	0	498	601	
15	0	0	0	0	499	600	
0	0	0	0	0	499	597	
1	0	0	0	0	499	601	
2	0	0	0	0	499	601	
3	0	0	0	0	499	601	
4	0	0	0	0	499	604	
5	0	0	0	0	499	601	
6	0	0	0	0	499	601	
7	0	0	0	0	499	601	
8	0	0	0	0	500	597	
9	0	0	0	0	501	600	
10	0	0	0	0	501	600	
11	0	0	0	0	502	600	
12	0	0	0	0	502	603	
13	0	0	0	0	503	600	
14	0	0	0	0	503	600	
15	0	0	0	0	504	600	
0	0	0	0	0	504	595	
1	0	0	0	0	504	599	
2	0	0	0	0	505	600	
3	0	0	0	0	506	600	
4	0	0	0	0	506	603	
5	0	0	0	0	506	599	
6	0	0	0	0	506	600	
7	0	0	0	0	506	600	
8	0	0	0	0	506	595	
9	0	0	0	0	505	600	
10	0	0	0	0	505	599	
11	0	0	0	0	505	599	
12	0	0	0	0	506	602	
13	0	0	0	0	505	598	
14	0	0	0	0	505	598	
15	0	0	0	0	504	598	
0	0	0	0	0	504	593	
1	0	0	0	0	504	597	
2	0	0	0	0	503	596	
3	0	0	0	0	504	596	
4	0	0	0	0	504	600	
5	0	0	0	0	504	596	
6	0	0	0	0	505	596	
7	0	0	0	0	505	595	
8	0	0	0	0	505	591	
9	0	0	0	0	506	595	
10	0	0	0	0	507	594	
11	0	0	0	0	507	594	
12	0	0	0	0	507	598	
13	0	0	0	0	508	594	
14	0	0	0	0	508	594	
15	0	0	0	0	507	594	
0	0	0	0	0	507	590	
1	0	0	0	0	507	593	
2	0	0	0	0	508	593	
3	0	0	0	0	507	593	
4	0	0	0	0	507	596	
5	0	0	0	0	507	593	
6	0	0	0	0	507	592	
7	0	0	0	0	508	593	
8	0	0	0	0	508	588	
9	0	0	0	0	508	592	
10	0	0	0	0	509	592	
11	0	0	0	0	510	591	
12	0	0	0	0	510	595	
13	0	0	0	0	510	591	
14	0	0	0	0	510	591	
15	0	0	0	0	510	591	
0	0	0	0	0	510	587	
1	0	0	0	0	510	591	
2	0	0	0	0	509	590	
3	0	0	0	0	507	590	
4	0	0	0	0	507	592	
5	0	0	0	0	507	589	
6	0	0	0	0	506	589	
7	0	0	0	0	506	588	
8	0	0	0	0	506	584	
9	0	0	0	0	506	588	
10	0	0	0	0	507	588	
11	0	0	0	0	506	587	
12	0	0	0	0	507	590	
13	0	0	0	0	506	587	
14	0	0	0	0	505	586	
15	0	0	0	0	506	586	
0	0	0	0	0	506	582	
1	0	0	0	0	507	585	
2	0	0	0	0	506	584	
3	0	0	0	0	507	585	
4	0	0	0	0	507	588	
5	0	0	0	0	508	585	
6	0	0	0	0	508	584	
7	0	0	0	0	508	584	
8	0	0	0	0	509	580	
9	0	0	0	0	509	583	
10	0	0	0	0	509	584	
11	0	0	0	0	509	583	
12	0	0	0	0	509	587	
13	0	0	0	0	508	583	
14	0	0	0	0	508	583	
15	0	0	0	0	508	583	
0	0	0	0	0	508	579	
1	0	0	0	0	508	583	
2	0	0	0	0	507	583	
3	0	0	0	0	507	584	
4	0	0	0	0	507	588	
5	0	0	0	0	506	584	
6	0	0	0	0	506	584	
7	0	0	0	0	505	584	
8	0	0	0	0	505	579	
9	0	0	0	0	505	584	
10	0	0	0	0	505	584	
11	0	0	0	0	505	585	
12	0	0	0	0	505	589	
13	0	0	0	0	505	585	
14	0	0	0	0	505	585	
15	0	0	0	0	505	585	
0	0	0	0	0	506	583	
1	0	0	0	0	506	586	
2	0	0	0	0	506	588	
3	0	0	0	0	505	588	
4	0	0	0	0	506	592	
5	0	0	0	0	506	589	
6	0	0	0	0	507	589	
7	0	0	0	0	507	590	
8	0	0	0	0	507	586	
9	0	0	0	0	507	590	
10	0	0	0	0	507	590	
11	0	0	0	0	507	591	
12	0	0	0	0	508	594	
13	0	0	0	0	508	592	
14	0	0	0	0	509	591	
15	0	0	0	0	510	591	
0	0	0	0	0	510	588	
1	0	0	0	0	511	592	
2	0	0	0	0	512	592	
3	0	0	0	0	512	592	
4	0	0	0	0	513	596	
5	0	0	0	0	514	593	
6	0	0	0	0	513	593	
7	0	0	0	0	513	592	
8	0	0	0	0	513	588	
9	0	0	0	0	513	592	
10	0	0	0	0	513	592	
11	0	0	0	0	514	592	
12	0	0	0	0	514	595	
13	0	0	0	0	515	591	
14	0	0	0	0	514	591	
15	0	0	0	0	515	591	
0	0	0	0	0	514	587	
1	0	0	0	0	514	591	
2	0	0	0	0	514	591	
3	0	0	0	0	514	591	
4	0	0	0	0	515	595	
5	0	0	0	0	515	591	
6	0	0	0	0	515	591	
7	0	0	0	0	514	591	
8	0	0	0	0	514	588	
9	0	0	0	0	514	591	
10	0	0	0	0	514	591	
11	0	0	0	0	513	592	
12	0	0	0	0	513	595	
13	0	0	0	0	513	592	
14	0	0	0	0	512	592	
15	0	0	0	0	512	592	
0	0	0	0	0	512	589	
1	0	0	0	0	512	593	
2	0	0	0	0	512	593	
3	0	0	0	0	512	593	
4	0	0	0	0	512	598	
5	0	0	0	0	512	594	
6	0	0	0	0	512	595	
7	0	0	0	0	512	595	
8	0	0	0	0	511	592	
9	0	0	0	0	512	596	
10	0	0	0	0	512	598	
11	0	0	0	0	511	598	
12	0	0	0	0	510	602	
13	0	0	0	0	511	599	
14	0	0	0	0	510	599	
15	0	0	0	0	511	600	
0	0	0	0	0	511	597	
1	0	0	0	0	511	600	
2	0	0	0	0	511	602	
3	0	0	0	0	511	603	
4	0	0	0	0	511	607	
5	0	0	0	0	511	604	
6	0	0	0	0	510	606	
7	0	0	0	0	509	606	
8	0	0	0	0	509	603	
9	0	0	0	0	510	608	
10	0	0	0	0	511	609	
11	0	0	0	0	511	610	
12	0	0	0	0	510	614	
13	0	0	0	0	510	612	
14	0	0	0	0	509	612	
15	0	0	0	0	509	613	
0	0	0	0	0	508	610	
1	0	0	0	0	509	615	
2	0	0	0	0	508	616	
3	0	0	0	0	508	617	
4	0	0	0	0	508	621	
5	0	0	0	0	507	618	
6	0	0	0	0	507	619	
7	0	0	0	0	507	619	
8	0	0	0	0	507	616	
9	0	0	0	0	507	620	
10	0	0	0	0	507	621	
11	0	0	0	0	507	623	
12	0	0	0	0	506	626	
13	0	0	0	0	505	623	
14	0	0	0	0	505	624	
15	0	0	0	0	506	625	
0	0	0	0	0	507	622	
1	0	0	0	0	507	626	
2	0	0	0	0	508	627	
3	0	0	0	0	508	627	
4	0	0	0	0	508	632	
5	0	0	0	0	508	629	
6	0	0	0	0	507	630	
7	0	0	0	0	507	631	
8	0	0	0	0	508	627	
9	0	0	0	0	509	632	
10	0	0	0	0	510	634	
11	0	0	0	0	510	634	
12	0	0	0	0	511	639	
13	0	0	0	0	512	637	
14	0	0	0	0	513	637	
15	0	0	0	0	513	638	
0	0	0	0	0	513	634	
1	0	0	0	0	513	640	
2	0	0	0	0	513	640	
3	0	0	0	0	513	642	
4	0	0	0	0	513	646	
5	0	0	0	0	513	643	
6	0	0	0	0	513	644	
7	0	0	0	0	513	645	
8	0	0	0	0	514	642	
9	0	0	0	0	513	646	
10	0	0	0	0	514	647	
11	0	0	0	0	513	648	
12	0	0	0	0	512	653	
13	0	0	0	0	512	650	
14	0	0	0	0	511	651	
15	0	0	0	0	510	652	
0	0	0	0	0	510	649	
1	0	0	0	0	510	653	
2	0	0	0	0	510	654	
3	0	0	0	0	511	654	
4	0	0	0	0	510	657	
5	0	0	0	0	511	655	
6	0	0	0	0	511	655	
7	0	0	0	0	510	655	
8	0	0	0	0	511	651	
9	0	0	0	0	511	656	
10	0	0	0	0	510	656	
11	0	0	0	0	510	656	
12	0	0	0	0	510	660	
13	0	0	0	0	510	657	
14	0	0	0	0	511	657	
15	0	0	0	0	512	657	
0	0	0	0	0	512	654	
1	0	0	0	0	514	658	
2	0	0	0	0	515	658	
3	0	0	0	0	514	659	
4	0	0	0	0	514	662	
5	0	0	0	0	513	659	
6	0	0	0	0	513	659	
7	0	0	0	0	514	658	
8	0	0	0	0	513	655	
9	0	0	0	0	514	659	
10	0	0	0	0	514	659	
11	0	0	0	0	514	660	
12	0	0	0	0	514	663	
13	0	0	0	0	513	659	
14	0	0	0	0	514	660	
15	0	0	0	0	514	661	
0	0	0	0	0	513	657	
1	0	0	0	0	513	661	
2	0	0	0	0	513	662	
3	0	0	0	0	514	662	
4	0	0	0	0	513	666	
5	0	0	0	0	514	663	
6	0	0	0	0	513	663	
7	0	0	0	0	513	663	
8	0	0	0	0	512	658	
9	0	0	0	0	512	662	
10	0	0	0	0	511	662	
11	0	0	0	0	511	661	
12	0	0	0	0	510	665	
13	0	0	0	0	510	662	
14	0	0	0	0	509	661	
15	0	0	0	0	509	659	
0	0	0	0	0	509	656	
1	0	0	0	0	509	659	
2	0	0	0	0	509	659	
3	0	0	0	0	509	659	
4	0	0	0	0	509	662	
5	0	0	0	0	508	658	
6	0	0	0	0	508	658	
7	0	0	0	0	508	658	
8	0	0	0	0	508	653	
9	0	0	0	0	508	657	
10	0	0	0	0	508	656	
11	0	0	0	0	508	656	
12	0	0	0	0	509	659	
13	0	0	0	0	509	654	
14	0	0	0	0	510	654	
15	0	0	0	0	510	654	
0	0	0	0	0	510	649	
1	0	0	0	0	510	652	
2	0	0	0	0	511	652	
3	0	0	0	0	511	652	
4	0	0	0	0	512	654	
5	0	0	0	0	512	650	
6	0	0	0	0	511	650	
7	0	0	0	0	512	649	
8	0	0	0	0	512	645	
9	0	0	0	0	511	649	
10	0	0	0	0	511	648	
11	0	0	0	0	512	648	
12	0	0	0	0	512	651	
13	0	0	0	0	512	647	
14	0	0	0	0	512	646	
15	0	0	0	0	512	645	
0	0	0	0	0	513	641	
1	0	0	0	0	513	644	
2	0	0	0	0	512	644	
3	0	0	0	0	512	644	
4	0	0	0	0	512	647	
5	0	0	0	0	512	642	
6	0	0	0	0	512	642	
7	0	0	0	0	512	641	
8	0	0	0	0	513	638	
9	0	0	0	0	513	641	
10	0	0	0	0	513	640	
11	0	0	0	0	513	640	
12	0	0	0	0	513	643	
13	0	0	0	0	513	639	
14	0	0	0	0	512	638	
15	0	0	0	0	512	638	
0	0	0	0	0	511	633	
1	0	0	0	0	510	638	
2	0	0	0	0	509	636	
3	0	0	0	0	508	636	
4	0	0	0	0	508	640	
5	0	0	0	0	508	635	
6	0	0	0	0	508	635	
7	0	0	0	0	507	634	
8	0	0	0	0	508	630	
9	0	0	0	0	508	634	
10	0	0	0	0	508	633	
11	0	0	0	0	508	633	
12	0	0	0	0	508	636	
13	0	0	0	0	507	632	
14	0	0	0	0	507	631	
15	0	0	0	0	505	631	
0	0	0	0	0	505	627	
1	0	0	0	0	504	631	
2	0	0	0	0	503	630	
3	0	0	0	0	502	629	
4	0	0	0	0	502	632	
5	0	0	0	0	502	628	
6	0	0	0	0	502	628	
7	0	0	0	0	502	627	
8	0	0	0	0	502	623	
9	0	0	0	0	501	627	
10	0	0	0	0	500	627	
11	0	0	0	0	499	626	
12	0	0	0	0	499	628	
13	0	0	0	0	500	625	
14	0	0	0	0	500	624	
15	0	0	0	0	500	623	
0	0	0	0	0	500	619	
1	0	0	0	0	500	622	
2	0	0	0	0	502	622	
3	0	0	0	0	502	622	
4	0	0	0	0	502	624	
5	0	0	0	0	501	620	
6	0	0	0	0	500	620	
7	0	0	0	0	500	619	
8	0	0	0	0	499	614	
9	0	0	0	0	499	618	
10	0	0	0	0	499	617	
11	0	0	0	0	499	617	
12	0	0	0	0	499	619	
13	0	0	0	0	499	616	
14	0	0	0	0	499	615	
15	0	0	0	0	499	615	
0	0	0	0	0	498	609	
1	0	0	0	0	497	614	
2	0	0	0	0	496	612	
3	0	0	0	0	492	612	
4	0	0	0	0	487	615	
5	0	0	0	0	481	611	
6	0	0	0	0	474	611	
7	0	0	0	0	467	611	
8	0	0	0	0	459	606	
9	0	0	0	0	451	610	
10	0	0	0	0	445	609	
11	0	0	0	0	441	609	
12	0	0	0	0	439	611	
13	0	0	0	0	439	608	
14	0	0	0	0	443	607	
15	0	0	0	0	449	606	
0	0	0	0	0	457	603	
1	0	0	0	0	465	606	
2	0	0	0	0	476	605	
3	0	0	0	0	489	605	
4	0	0	0	0	503	608	
5	0	0	0	0	520	604	
6	0	0	0	0	537	603	
7	0	0	0	0	555	603	
8	0	0	0	0	573	599	
9	0	0	0	0	592	602	
10	0	0	0	0	614	601	
11	0	0	0	0	636	600	
12	0	0	0	0	658	603	
13	0	0	0	0	676	600	
14	0	0	0	0	692	599	
15	0	0	0	0	704	600	
0	0	0	0	0	713	595	
1	0	0	0	0	716	598	
2	0	0	0	0	715	598	
3	0	0	0	0	710	598	
4	0	0	0	0	705	601	
5	0	0	0	0	699	597	
6	0	0	0	0	692	597	
7	0	0	0	0	681	596	
8	0	0	0	0	668	592	
9	0	0	0	0	653	596	
10	0	0	0	0	639	596	
11	0	0	0	0	626	595	
12	0	0	0	0	613	599	
13	0	0	0	0	601	595	
14	0	0	0	0	589	595	
15	0	0	0	0	578	594	
0	0	0	0	0	567	590	
1	0	0	0	0	557	593	
2	0	0	0	0	548	593	
3	0	0	0	0	541	593	
4	0	0	0	0	534	596	
5	0	0	0	0	528	592	
6	0	0	0	0	523	592	
7	0	0	0	0	519	592	
8	0	0	0	0	517	587	
9	0	0	0	0	514	591	
10	0	0	0	0	512	591	
11	0	0	0	0	511	591	
12	0	0	0	0	509	595	
13	0	0	0	0	508	591	
14	0	0	0	0	505	591	
15	0	0	0	0	502	590	
0	0	0	0	0	498	586	
1	0	0	0	0	494	590	
2	0	0	0	0	489	591	
3	0	0	0	0	486	590	
4	0	0	0	0	483	593	
5	0	0	0	0	480	589	
6	0	0	0	0	476	589	
7	0	0	0	0	474	588	
8	0	0	0	0	472	585	
9	0	0	0	0	468	589	
10	0	0	0	0	465	589	
11	0	0	0	0	462	588	
12	0	0	0	0	460	592	
13	0	0	0	0	458	588	
14	0	0	0	0	457	589	
15	0	0	0	0	456	589	
0	0	0	0	0	456	584	
1	0	0	0	0	456	588	
2	0	0	0	0	456	589	
3	0	0	0	0	456	588	
4	0	0	0	0	456	591	
5	0	0	0	0	456	588	
6	0	0	0	0	455	588	
7	0	0	0	0	455	588	
8	0	0	0	0	454	583	
9	0	0	0	0	452	588	
10	0	0	0	0	451	587	
11	0	0	0	0	451	588	
12	0	0	0	0	450	591	
13	0	0	0	0	449	588	
14	0	0	0	0	449	587	
15	0	0	0	0	449	587	
0	0	0	0	0	449	583	
1	0	0	0	0	451	588	
2	0	0	0	0	451	588	
3	0	0	0	0	452	587	
4	0	0	0	0	453	590	
5	0	0	0	0	454	587	
6	0	0	0	0	455	587	
7	0	0	0	0	455	586	
8	0	0	0	0	456	582	
9	0	0	0	0	456	586	
10	0	0	0	0	457	586	
11	0	0	0	0	457	587	
12	0	0	0	0	458	590	
13	0	0	0	0	459	587	
14	0	0	0	0	459	586	
15	0	0	0	0	460	586	
0	0	0	0	0	460	583	
1	0	0	0	0	459	586	
2	0	0	0	0	460	586	
3	0	0	0	0	460	587	
4	0	0	0	0	460	590	
5	0	0	0	0	461	587	
6	0	0	0	0	461	587	
7	0	0	0	0	462	587	
8	0	0	0	0	462	583	
9	0	0	0	0	462	588	
10	0	0	0	0	462	588	
11	0	0	0	0	462	589	
12	0	0	0	0	462	592	
13	0	0	0	0	462	588	
14	0	0	0	0	463	589	
15	0	0	0	0	464	589	
0	0	0	0	0	464	585	
1	0	0	0	0	464	590	
2	0	0	0	0	464	590	
3	0	0	0	0	463	591	
4	0	0	0	0	464	594	
5	0	0	0	0	464	591	
6	0	0	0	0	465	591	
7	0	0	0	0	465	591	
8	0	0	0	0	465	587	
9	0	0	0	0	466	591	
10	0	0	0	0	467	591	
11	0	0	0	0	468	591	
12	0	0	0	0	469	594	
13	0	0	0	0	469	591	
14	0	0	0	0	468	591	
15	0	0	0	0	469	591	
0	0	0	0	0	469	588	
1	0	0	0	0	469	591	
2	0	0	0	0	469	591	
3	0	0	0	0	469	591	
4	0	0	0	0	468	595	
5	0	0	0	0	468	591	
6	0	0	0	0	467	591	
7	0	0	0	0	468	591	
8	0	0	0	0	468	588	
9	0	0	0	0	469	592	
10	0	0	0	0	470	591	
11	0	0	0	0	471	592	
12	0	0	0	0	472	596	
13	0	0	0	0	473	592	
14	0	0	0	0	473	592	
15	0	0	0	0	473	592	
0	0	0	0	0	472	588	
1	0	0	0	0	472	592	
2	0	0	0	0	472	592	
3	0	0	0	0	472	592	
4	0	0	0	0	472	596	
5	0	0	0	0	473	593	
6	0	0	0	0	474	593	
7	0	0	0	0	474	593	
8	0	0	0	0	475	590	
9	0	0	0	0	476	593	
10	0	0	0	0	476	593	
11	0	0	0	0	477	594	
12	0	0	0	0	478	598	
13	0	0	0	0	479	593	
14	0	0	0	0	479	594	
15	0	0	0	0	479	594	
0	0	0	0	0	480	590	
1	0	0	0	0	482	594	
2	0	0	0	0	482	594	
3	0	0	0	0	482	595	
4	0	0	0	0	483	598	
5	0	0	0	0	483	595	
6	0	0	0	0	484	595	
7	0	0	0	0	485	595	
8	0	0	0	0	486	591	
9	0	0	0	0	487	596	
10	0	0	0	0	488	596	
11	0	0	0	0	488	596	
12	0	0	0	0	489	600	
13	0	0	0	0	490	596	
14	0	0	0	0	490	596	
15	0	0	0	0	491	597	
0	0	0	0	0	491	593	
1	0	0	0	0	490	597	
2	0	0	0	0	490	597	
3	0	0	0	0	490	598	
4	0	0	0	0	491	601	
5	0	0	0	0	492	598	
6	0	0	0	0	493	597	
7	0	0	0	0	494	597	
8	0	0	0	0	494	593	
9	0	0	0	0	494	597	
10	0	0	0	0	494	597	
11	0	0	0	0	494	597	
12	0	0	0	0	495	600	
13	0	0	0	0	497	596	
14	0	0	0	0	498	596	
15	0	0	0	0	499	597	
0	0	0	0	0	500	593	
1	0	0	0	0	502	597	
2	0	0	0	0	503	597	
3	0	0	0	0	503	597	
4	0	0	0	0	504	600	
5	0	0	0	0	504	596	
6	0	0	0	0	504	597	
7	0	0	0	0	505	596	
8	0	0	0	0	505	593	
9	0	0	0	0	507	597	
10	0	0	0	0	509	597	
11	0	0	0	0	510	597	
12	0	0	0	0	511	600	
13	0	0	0	0	512	596	
14	0	0	0	0	512	597	
15	0	0	0	0	512	596	
0	0	0	0	0	513	592	
1	0	0	0	0	513	596	
2	0	0	0	0	515	596	
3	0	0	0	0	516	596	
4	0	0	0	0	517	600	
5	0	0	0	0	518	596	
6	0	0	0	0	518	596	
7	0	0	0	0	518	596	
8	0	0	0	0	519	592	
9	0	0	0	0	519	596	
10	0	0	0	0	519	596	
11	0	0	0	0	520	596	
12	0	0	0	0	521	600	
13	0	0	0	0	523	597	
14	0	0	0	0	523	598	
15	0	0	0	0	524	598	
0	0	0	0	0	524	595	
1	0	0	0	0	524	600	
2	0	0	0	0	525	600	
3	0	0	0	0	526	600	
4	0	0	0	0	526	604	
5	0	0	0	0	527	601	
6	0	0	0	0	528	602	
7	0	0	0	0	528	602	
8	0	0	0	0	529	599	
9	0	0	0	0	529	604	
10	0	0	0	0	530	604	
11	0	0	0	0	532	604	
12	0	0	0	0	533	608	
13	0	0	0	0	535	606	
14	0	0	0	0	536	606	
15	0	0	0	0	536	607	
0	0	0	0	0	537	603	
1	0	0	0	0	538	608	
2	0	0	0	0	539	608	
3	0	0	0	0	539	608	
4	0	0	0	0	541	612	
5	0	0	0	0	542	609	
6	0	0	0	0	543	610	
7	0	0	0	0	543	610	
8	0	0	0	0	543	607	
9	0	0	0	0	542	611	
10	0	0	0	0	541	612	
11	0	0	0	0	540	613	
12	0	0	0	0	540	616	
13	0	0	0	0	539	613	
14	0	0	0	0	538	614	
15	0	0	0	0	538	614	
0	0	0	0	0	538	611	
1	0	0	0	0	539	615	
2	0	0	0	0	538	615	
3	0	0	0	0	538	616	
4	0	0	0	0	539	621	
5	0	0	0	0	540	617	
6	0	0	0	0	540	617	
7	0	0	0	0	540	617	
8	0	0	0	0	539	614	
9	0	0	0	0	539	619	
10	0	0	0	0	538	619	
11	0	0	0	0	538	620	
12	0	0	0	0	539	623	
13	0	0	0	0	539	620	
14	0	0	0	0	539	620	
15	0	0	0	0	539	620	
0	0	0	0	0	539	617	
1	0	0	0	0	539	621	
2	0	0	0	0	538	621	
3	0	0	0	0	538	622	
4	0	0	0	0	536	625	
5	0	0	0	0	536	622	
6	0	0	0	0	535	622	
7	0	0	0	0	534	622	
8	0	0	0	0	533	618	
9	0	0	0	0	532	622	
10	0	0	0	0	531	622	
11	0	0	0	0	530	622	
12	0	0	0	0	529	626	
13	0	0	0	0	528	622	
14	0	0	0	0	526	622	
15	0	0	0	0	524	622	
0	0	0	0	0	522	619	
1	0	0	0	0	521	622	
2	0	0	0	0	519	623	
3	0	0	0	0	518	622	
4	0	0	0	0	516	625	
5	0	0	0	0	515	622	
6	0	0	0	0	514	620	
7	0	0	0	0	512	620	
8	0	0	0	0	511	617	
9	0	0	0	0	510	620	
10	0	0	0	0	510	619	
11	0	0	0	0	508	619	
12	0	0	0	0	506	622	
13	0	0	0	0	504	617	
14	0	0	0	0	502	617	
15	0	0	0	0	500	616	
0	0	0	0	0	499	611	
1	0	0	0	0	498	614	
2	0	0	0	0	496	613	
3	0	0	0	0	494	613	
4	0	0	0	0	492	616	
5	0	0	0	0	491	612	
6	0	0	0	0	489	611	
7	0	0	0	0	487	611	
8	0	0	0	0	487	606	
9	0	0	0	0	487	609	
10	0	0	0	0	486	608	
11	0	0	0	0	487	608	
12	0	0	0	0	487	611	
13	0	0	0	0	487	606	
14	0	0	0	0	488	606	
15	0	0	0	0	488	605	
0	0	0	0	0	489	601	
1	0	0	0	0	488	604	
2	0	0	0	0	487	604	
3	0	0	0	0	487	603	
4	0	0	0	0	487	606	
5	0	0	0	0	487	601	
6	0	0	0	0	486	602	
7	0	0	0	0	485	601	
8	0	0	0	0	485	597	
9	0	0	0	0	484	600	
10	0	0	0	0	484	600	
11	0	0	0	0	485	600	
12	0	0	0	0	484	603	
13	0	0	0	0	485	598	
14	0	0	0	0	484	598	
15	0	0	0	0	484	598	
0	0	0	0	0	484	594	
1	0	0	0	0	484	597	
2	0	0	0	0	484	596	
3	0	0	0	0	484	598	
4	0	0	0	0	483	600	
5	0	0	0	0	484	596	
6	0	0	0	0	483	596	
7	0	0	0	0	483	595	
8	0	0	0	0	482	591	
9	0	0	0	0	482	595	
10	0	0	0	0	483	595	
11	0	0	0	0	483	595	
12	0	0	0	0	484	598	
13	0	0	0	0	485	594	
14	0	0	0	0	485	594	
15	0	0	0	0	485	594	
0	0	0	0	0	484	591	
1	0	0	0	0	484	595	
2	0	0	0	0	484	595	
3	0	0	0	0	485	595	
4	0	0	0	0	485	599	
5	0	0	0	0	484	595	
6	0	0	0	0	484	595	
7	0	0	0	0	483	595	
8	0	0	0	0	483	591	
9	0	0	0	0	483	595	
10	0	0	0	0	483	595	
11	0	0	0	0	484	596	
12	0	0	0	0	483	599	
13	0	0	0	0	484	595	
14	0	0	0	0	484	595	
15	0	0	0	0	483	595	
0	0	0	0	0	484	591	
1	0	0	0	0	485	595	
2	0	0	0	0	485	595	
3	0	0	0	0	485	596	
4	0	0	0	0	485	600	
5	0	0	0	0	485	596	
6	0	0	0	0	486	596	
7	0	0	0	0	486	595	
8	0	0	0	0	487	592	
9	0	0	0	0	487	595	
10	0	0	0	0	487	595	
11	0	0	0	0	487	596	
12	0	0	0	0	488	600	
13	0	0	0	0	488	596	
14	0	0	0	0	489	596	
15	0	0	0	0	490	596	
0	0	0	0	0	491	592	
1	0	0	0	0	492	597	
2	0	0	0	0	492	596	
3	0	0	0	0	493	598	
4	0	0	0	0	492	601	
5	0	0	0	0	493	597	
6	0	0	0	0	493	598	
7	0	0	0	0	492	598	
8	0	0	0	0	494	595	
9	0	0	0	0	494	598	
10	0	0	0	0	493	598	
11	0	0	0	0	494	598	
12	0	0	0	0	494	602	
13	0	0	0	0	494	598	
14	0	0	0	0	493	598	
15	0	0	0	0	493	598	
0	0	0	0	0	494	595	
1	0	0	0	0	494	600	
2	0	0	0	0	494	600	
3	0	0	0	0	494	600	
4	0	0	0	0	494	604	
5	0	0	0	0	494	600	
6	0	0	0	0	495	601	
7	0	0	0	0	495	601	
8	0	0	0	0	494	597	
9	0	0	0	0	494	601	
10	0	0	0	0	494	602	
11	0	0	0	0	493	601	
12	0	0	0	0	492	605	
13	0	0	0	0	491	601	
14	0	0	0	0	490	602	
15	0	0	0	0	489	602	
0	0	0	0	0	489	599	
1	0	0	0	0	489	603	
2	0	0	0	0	490	603	
3	0	0	0	0	491	603	
4	0	0	0	0	492	607	
5	0	0	0	0	492	603	
6	0	0	0	0	493	603	
7	0	0	0	0	494	603	
8	0	0	0	0	494	598	
9	0	0	0	0	496	603	
10	0	0	0	0	496	604	
11	0	0	0	0	496	604	
12	0	0	0	0	496	607	
13	0	0	0	0	496	604	
14	0	0	0	0	496	604	
15	0	0	0	0	497	604	
0	0	0	0	0	498	600	
1	0	0	0	0	498	605	
2	0	0	0	0	497	605	
3	0	0	0	0	497	605	
4	0	0	0	0	497	608	
5	0	0	0	0	497	605	
6	0	0	0	0	497	605	
7	0	0	0	0	496	605	
8	0	0	0	0	496	602	
9	0	0	0	0	496	606	
10	0	0	0	0	497	606	
11	0	0	0	0	497	607	
12	0	0	0	0	498	610	
13	0	0	0	0	499	607	
14	0	0	0	0	499	607	
15	0	0	0	0	499	608	
0	0	0	0	0	500	603	
1	0	0	0	0	501	607	
2	0	0	0	0	501	608	
3	0	0	0	0	502	608	
4	0	0	0	0	502	611	
5	0	0	0	0	502	608	
6	0	0	0	0	502	608	
7	0	0	0	0	502	608	
8	0	0	0	0	502	605	
9	0	0	0	0	502	609	
10	0	0	0	0	502	609	
11	0	0	0	0	503	609	
12	0	0	0	0	503	612	
13	0	0	0	0	503	609	
14	0	0	0	0	503	609	
15	0	0	0	0	502	609	
0	0	0	0	0	502	606	
1	0	0	0	0	501	610	
2	0	0	0	0	502	611	
3	0	0	0	0	502	612	
4	0	0	0	0	502	615	
5	0	0	0	0	502	611	
6	0	0	0	0	502	612	
7	0	0	0	0	501	613	
8	0	0	0	0	501	610	
9	0	0	0	0	500	614	
10	0	0	0	0	499	614	
11	0	0	0	0	499	615	
12	0	0	0	0	499	618	
13	0	0	0	0	499	615	
14	0	0	0	0	499	615	
15	0	0	0	0	499	615	
0	0	0	0	0	499	612	
1	0	0	0	0	499	617	
2	0	0	0	0	499	616	
3	0	0	0	0	500	617	
4	0	0	0	0	500	621	
5	0	0	0	0	500	617	
6	0	0	0	0	500	617	
7	0	0	0	0	500	617	
8	0	0	0	0	501	613	
9	0	0	0	0	500	616	
10	0	0	0	0	501	617	
11	0	0	0	0	501	617	
12	0	0	0	0	501	620	
13	0	0	0	0	501	617	
14	0	0	0	0	500	617	
15	0	0	0	0	500	617	
0	0	0	0	0	500	614	
1	0	0	0	0	501	617	
2	0	0	0	0	502	618	
3	0	0	0	0	502	618	
4	0	0	0	0	503	622	
5	0	0	0	0	503	618	
6	0	0	0	0	503	619	
7	0	0	0	0	504	619	
8	0	0	0	0	505	615	
9	0	0	0	0	505	619	
10	0	0	0	0	505	618	
11	0	0	0	0	506	618	
12	0	0	0	0	506	621	
13	0	0	0	0	506	617	
14	0	0	0	0	505	617	
15	0	0	0	0	505	616	
0	0	0	0	0	504	612	
1	0	0	0	0	503	615	
2	0	0	0	0	504	615	
3	0	0	0	0	504	615	
4	0	0	0	0	504	619	
5	0	0	0	0	502	615	
6	0	0	0	0	501	615	
7	0	0	0	0	500	614	
8	0	0	0	0	500	611	
9	0	0	0	0	501	614	
10	0	0	0	0	501	614	
11	0	0	0	0	501	614	
12	0	0	0	0	500	616	
13	0	0	0	0	500	612	
14	0	0	0	0	499	612	
15	0	0	0	0	499	612	
0	0	0	0	0	500	608	
1	0	0	0	0	501	612	
2	0	0	0	0	502	611	
3	0	0	0	0	504	611	
4	0	0	0	0	504	615	
5	0	0	0	0	505	611	
6	0	0	0	0	505	611	
7	0	0	0	0	505	612	
8	0	0	0	0	506	608	
9	0	0	0	0	505	611	
10	0	0	0	0	506	611	
11	0	0	0	0	506	611	
12	0	0	0	0	506	615	
13	0	0	0	0	506	611	
14	0	0	0	0	505	611	
15	0	0	0	0	506	611	
0	0	0	0	0	505	608	
1	0	0	0	0	505	611	
2	0	0	0	0	505	612	
3	0	0	0	0	504	612	
4	0	0	0	0	504	615	
5	0	0	0	0	503	612	
6	0	0	0	0	503	612	
7	0	0	0	0	503	612	
8	0	0	0	0	503	609	
9	0	0	0	0	503	612	
10	0	0	0	0	504	612	
11	0	0	0	0	504	612	
12	0	0	0	0	505	615	
13	0	0	0	0	505	612	
14	0	0	0	0	506	612	
15	0	0	0	0	506	612	
0	0	0	0	0	505	608	
1	0	0	0	0	506	612	
2	0	0	0	0	506	612	
3	0	0	0	0	506	612	
4	0	0	0	0	505	615	
5	0	0	0	0	505	612	
6	0	0	0	0	504	612	
7	0	0	0	0	503	612	
8	0	0	0	0	503	608	
9	0	0	0	0	503	612	
10	0	0	0	0	503	612	
11	0	0	0	0	503	612	
12	0	0	0	0	502	615	
13	0	0	0	0	502	612	
14	0	0	0	0	502	612	
15	0	0	0	0	502	612	
0	0	0	0	0	502	608	
1	0	0	0	0	503	612	
2	0	0	0	0	504	612	
3	0	0	0	0	504	612	
4	0	0	0	0	504	615	
5	0	0	0	0	504	612	
6	0	0	0	0	504	612	
7	0	0	0	0	505	611	
8	0	0	0	0	504	607	
9	0	0	0	0	505	611	
10	0	0	0	0	505	611	
11	0	0	0	0	505	611	
12	0	0	0	0	505	614	
13	0	0	0	0	504	610	
14	0	0	0	0	504	610	
15	0	0	0	0	504	609	
0	0	0	0	0	504	606	
1	0	0	0	0	503	610	
2	0	0	0	0	504	609	
3	0	0	0	0	504	609	
4	0	0	0	0	504	612	
5	0	0	0	0	504	608	
6	0	0	0	0	504	608	
7	0	0	0	0	504	608	
8	0	0	0	0	504	602	
9	0	0	0	0	504	606	
10	0	0	0	0	504	606	
11	0	0	0	0	505	607	
12	0	0	0	0	505	610	
13	0	0	0	0	506	606	
14	0	0	0	0	506	605	
15	0	0	0	0	506	604	
0	0	0	0	0	505	600	
1	0	0	0	0	505	603	
2	0	0	0	0	505	604	
3	0	0	0	0	505	603	
4	0	0	0	0	505	607	
5	0	0	0	0	506	602	
6	0	0	0	0	505	602	
7	0	0	0	0	505	601	
8	0	0	0	0	504	596	
9	0	0	0	0	504	600	
10	0	0	0	0	505	600	
11	0	0	0	0	504	599	
12	0	0	0	0	504	603	
13	0	0	0	0	504	598	
14	0	0	0	0	503	598	
15	0	0	0	0	503	597	
0	0	0	0	0	504	593	
1	0	0	0	0	504	596	
2	0	0	0	0	505	595	
3	0	0	0	0	505	596	
4	0	0	0	0	504	599	
5	0	0	0	0	505	594	
6	0	0	0	0	505	594	
7	0	0	0	0	504	593	
8	0	0	0	0	505	589	
9	0	0	0	0	505	592	
10	0	0	0	0	504	592	
11	0	0	0	0	505	592	
12	0	0	0	0	505	595	
13	0	0	0	0	505	591	
14	0	0	0	0	506	591	
15	0	0	0	0	506	590	
0	0	0	0	0	506	587	
1	0	0	0	0	505	590	
2	0	0	0	0	505	589	
3	0	0	0	0	505	589	
4	0	0	0	0	505	592	
5	0	0	0	0	505	588	
6	0	0	0	0	505	588	
7	0	0	0	0	505	588	
8	0	0	0	0	504	583	
9	0	0	0	0	504	586	
10	0	0	0	0	505	587	
11	0	0	0	0	505	587	
12	0	0	0	0	505	590	
13	0	0	0	0	505	586	
14	0	0	0	0	505	585	
15	0	0	0	0	505	585	
0	0	0	0	0	505	582	
1	0	0	0	0	505	584	
2	0	0	0	0	505	584	
3	0	0	0	0	505	584	
4	0	0	0	0	506	588	
5	0	0	0	0	506	584	
6	0	0	0	0	506	584	
7	0	0	0	0	507	583	
8	0	0	0	0	506	580	
9	0	0	0	0	507	584	
10	0	0	0	0	507	583	
11	0	0	0	0	508	583	
12	0	0	0	0	507	587	
13	0	0	0	0	507	583	
14	0	0	0	0	506	583	
15	0	0	0	0	506	583	
0	0	0	0	0	506	579	
1	0	0	0	0	506	583	
2	0	0	0	0	506	583	
3	0	0	0	0	506	583	
4	0	0	0	0	506	586	
5	0	0	0	0	506	583	
6	0	0	0	0	506	582	
7	0	0	0	0	505	583	
8	0	0	0	0	505	578	
9	0	0	0	0	505	582	
10	0	0	0	0	505	582	
11	0	0	0	0	505	583	
12	0	0	0	0	505	586	
13	0	0	0	0	506	583	
14	0	0	0	0	506	583	
15	0	0	0	0	507	582	
0	0	0	0	0	508	578	
1	0	0	0	0	509	582	
2	0	0	0	0	510	582	
3	0	0	0	0	510	582	
4	0	0	0	0	510	585	
5	0	0	0	0	511	581	
6	0	0	0	0	511	582	
7	0	0	0	0	511	582	
8	0	0	0	0	511	577	
9	0	0	0	0	511	581	
10	0	0	0	0	510	581	
11	0	0	0	0	510	581	
12	0	0	0	0	509	585	
13	0	0	0	0	509	581	
14	0	0	0	0	508	582	
15	0	0	0	0	507	581	
0	0	0	0	0	505	577	
1	0	0	0	0	504	582	
2	0	0	0	0	503	582	
3	0	0	0	0	502	582	
4	0	0	0	0	502	585	
5	0	0	0	0	503	581	
6	0	0	0	0	503	581	
7	0	0	0	0	502	581	
8	0	0	0	0	500	577	
9	0	0	0	0	500	580	
10	0	0	0	0	499	580	
11	0	0	0	0	499	581	
12	0	0	0	0	499	585	
13	0	0	0	0	499	580	
14	0	0	0	0	498	580	
15	0	0	0	0	498	580	
0	0	0	0	0	498	576	
1	0	0	0	0	497	579	
2	0	0	0	0	498	579	
3	0	0	0	0	499	579	
4	0	0	0	0	499	583	
5	0	0	0	0	499	580	
6	0	0	0	0	499	580	
7	0	0	0	0	500	580	
8	0	0	0	0	501	576	
9	0	0	0	0	502	580	
10	0	0	0	0	502	580	
11	0	0	0	0	501	581	
12	0	0	0	0	501	584	
13	0	0	0	0	500	581	
14	0	0	0	0	500	581	
15	0	0	0	0	501	582	
0	0	0	0	0	501	577	
1	0	0	0	0	501	581	
2	0	0	0	0	501	581	
3	0	0	0	0	500	581	
4	0	0	0	0	500	585	
5	0	0	0	0	500	581	
6	0	0	0	0	500	581	
7	0	0	0	0	501	582	
8	0	0	0	0	501	578	
9	0	0	0	0	502	583	
10	0	0	0	0	502	582	
11	0	0	0	0	502	583	
12	0	0	0	0	502	587	
13	0	0	0	0	502	583	
14	0	0	0	0	502	583	
15	0	0	0	0	502	583	
0	0	0	0	0	502	579	
1	0	0	0	0	502	584	
2	0	0	0	0	503	584	
3	0	0	0	0	503	585	
4	0	0	0	0	503	588	
5	0	0	0	0	503	586	
6	0	0	0	0	504	585	
7	0	0	0	0	504	585	
8	0	0	0	0	505	581	
9	0	0	0	0	506	585	
10	0	0	0	0	506	586	
11	0	0	0	0	507	586	
12	0	0	0	0	507	589	
13	0	0	0	0	507	586	
14	0	0	0	0	507	586	
15	0	0	0	0	507	586	
0	0	0	0	0	507	582	
1	0	0	0	0	506	585	
2	0	0	0	0	505	585	
3	0	0	0	0	505	586	
4	0	0	0	0	504	589	
5	0	0	0	0	504	585	
6	0	0	0	0	504	585	
7	0	0	0	0	504	586	
8	0	0	0	0	504	582	
9	0	0	0	0	504	587	
10	0	0	0	0	504	587	
11	0	0	0	0	504	587	
12	0	0	0	0	504	590	
13	0	0	0	0	503	588	
14	0	0	0	0	503	588	
15	0	0	0	0	502	588	
0	0	0	0	0	501	584	
1	0	0	0	0	502	588	
2	0	0	0	0	502	589	
3	0	0	0	0	502	589	
4	0	0	0	0	501	593	
5	0	0	0	0	500	589	
6	0	0	0	0	500	590	
7	0	0	0	0	501	590	
8	0	0	0	0	501	586	
9	0	0	0	0	501	591	
10	0	0	0	0	500	590	
11	0	0	0	0	500	591	
12	0	0	0	0	500	595	
13	0	0	0	0	499	592	
14	0	0	0	0	498	593	
15	0	0	0	0	498	593	
0	0	0	0	0	497	589	
1	0	0	0	0	497	593	
2	0	0	0	0	496	593	
3	0	0	0	0	496	594	
4	0	0	0	0	497	598	
5	0	0	0	0	497	596	
6	0	0	0	0	498	596	
7	0	0	0	0	499	596	
8	0	0	0	0	500	593	
9	0	0	0	0	500	598	
10	0	0	0	0	501	599	
11	0	0	0	0	501	599	
12	0	0	0	0	501	603	
13	0	0	0	0	501	600	
14	0	0	0	0	500	600	
15	0	0	0	0	500	600	
0	0	0	0	0	501	596	
1	0	0	0	0	501	600	
2	0	0	0	0	502	601	
3	0	0	0	0	503	601	
4	0	0	0	0	503	605	
5	0	0	0	0	504	601	
6	0	0	0	0	503	602	
7	0	0	0	0	504	603	
8	0	0	0	0	504	599	
9	0	0	0	0	504	604	
10	0	0	0	0	503	604	
11	0	0	0	0	503	604	
12	0	0	0	0	501	608	
13	0	0	0	0	499	605	
14	0	0	0	0	495	606	
15	0	0	0	0	490	606	
0	0	0	0	0	484	603	
1	0	0	0	0	477	607	
2	0	0	0	0	471	607	
3	0	0	0	0	463	607	
4	0	0	0	0	455	611	
5	0	0	0	0	447	608	
6	0	0	0	0	442	608	
7	0	0	0	0	440	608	
8	0	0	0	0	439	605	
9	0	0	0	0	441	609	
10	0	0	0	0	448	609	
11	0	0	0	0	456	609	
12	0	0	0	0	465	613	
13	0	0	0	0	477	611	
14	0	0	0	0	489	611	
15	0	0	0	0	505	612	
0	0	0	0	0	522	608	
1	0	0	0	0	542	612	
2	0	0	0	0	561	612	
3	0	0	0	0	583	613	
4	0	0	0	0	605	616	
5	0	0	0	0	631	612	
6	0	0	0	0	657	612	
7	0	0	0	0	684	612	
8	0	0	0	0	707	608	
9	0	0	0	0	728	612	
10	0	0	0	0	745	611	
11	0	0	0	0	758	611	
12	0	0	0	0	765	614	
13	0	0	0	0	767	610	
14	0	0	0	0	763	610	
15	0	0	0	0	756	609	
0	0	0	0	0	748	606	
1	0	0	0	0	740	611	
2	0	0	0	0	732	610	
3	0	0	0	0	720	610	
4	0	0	0	0	706	614	
5	0	0	0	0	691	610	
6	0	0	0	0	677	611	
7	0	0	0	0	662	610	
8	0	0	0	0	647	607	
9	0	0	0	0	634	611	
10	0	0	0	0	621	610	
11	0	0	0	0	607	611	
12	0	0	0	0	594	614	
13	0	0	0	0	583	610	
14	0	0	0	0	573	610	
15	0	0	0	0	563	610	
0	0	0	0	0	555	606	
1	0	0	0	0	548	609	
2	0	0	0	0	543	609	
3	0	0	0	0	537	609	
4	0	0	0	0	532	613	
5	0	0	0	0	528	610	
6	0	0	0	0	524	610	
7	0	0	0	0	521	610	
8	0	0	0	0	518	605	
9	0	0	0	0	513	610	
10	0	0	0	0	510	611	
11	0	0	0	0	505	610	
12	0	0	0	0	499	614	
13	0	0	0	0	495	610	
14	0	0	0	0	490	610	
15	0	0	0	0	486	610	
0	0	0	0	0	481	605	
1	0	0	0	0	478	610	
2	0	0	0	0	474	609	
3	0	0	0	0	471	610	
4	0	0	0	0	469	613	
5	0	0	0	0	467	609	
6	0	0	0	0	465	609	
7	0	0	0	0	463	609	
8	0	0	0	0	462	605	
9	0	0	0	0	461	609	
10	0	0	0	0	461	609	
11	0	0	0	0	460	609	
12	0	0	0	0	460	612	
13	0	0	0	0	459	608	
14	0	0	0	0	459	608	
15	0	0	0	0	459	608	
0	0	0	0	0	458	604	
1	0	0	0	0	457	608	
2	0	0	0	0	456	608	
3	0	0	0	0	456	609	
4	0	0	0	0	455	612	
5	0	0	0	0	455	609	
6	0	0	0	0	455	608	
7	0	0	0	0	456	608	
8	0	0	0	0	457	604	
9	0	0	0	0	458	609	
10	0	0	0	0	458	608	
11	0	0	0	0	459	608	
12	0	0	0	0	459	612	
13	0	0	0	0	459	608	
14	0	0	0	0	458	608	
15	0	0	0	0	458	608	
0	0	0	0	0	457	604	
1	0	0	0	0	457	608	
2	0	0	0	0	458	608	
3	0	0	0	0	458	608	
4	0	0	0	0	458	612	
5	0	0	0	0	459	609	
6	0	0	0	0	459	609	
7	0	0	0	0	459	608	
8	0	0	0	0	459	604	
9	0	0	0	0	460	608	
10	0	0	0	0	460	608	
11	0	0	0	0	460	608	
12	0	0	0	0	461	611	
13	0	0	0	0	462	608	
14	0	0	0	0	463	608	
15	0	0	0	0	463	607	
0	0	0	0	0	464	604	
1	0	0	0	0	464	608	
2	0	0	0	0	464	607	
3	0	0	0	0	464	608	
4	0	0	0	0	464	610	
5	0	0	0	0	463	606	
6	0	0	0	0	464	606	
7	0	0	0	0	464	606	
8	0	0	0	0	464	602	
9	0	0	0	0	464	606	
10	0	0	0	0	464	605	
11	0	0	0	0	464	606	
12	0	0	0	0	465	609	
13	0	0	0	0	465	605	
14	0	0	0	0	465	605	
15	0	0	0	0	466	604	
0	0	0	0	0	466	600	
1	0	0	0	0	467	604	
2	0	0	0	0	466	604	
3	0	0	0	0	466	604	
4	0	0	0	0	465	607	
5	0	0	0	0	465	604	
6	0	0	0	0	465	604	
7	0	0	0	0	466	603	
8	0	0	0	0	467	599	
9	0	0	0	0	468	603	
10	0	0	0	0	468	602	
11	0	0	0	0	468	602	
12	0	0	0	0	469	605	
13	0	0	0	0	470	602	
14	0	0	0	0	470	601	
15	0	0	0	0	471	601	
0	0	0	0	0	470	597	
1	0	0	0	0	471	601	
2	0	0	0	0	472	601	
3	0	0	0	0	471	601	
4	0	0	0	0	471	604	
5	0	0	0	0	472	600	
6	0	0	0	0	472	600	
7	0	0	0	0	472	600	
8	0	0	0	0	471	595	
9	0	0	0	0	470	599	
10	0	0	0	0	470	599	
11	0	0	0	0	469	599	
12	0	0	0	0	470	601	
13	0	0	0	0	469	598	
14	0	0	0	0	469	598	
15	0	0	0	0	469	598	
0	0	0	0	0	471	593	
1	0	0	0	0	472	598	
2	0	0	0	0	474	597	
3	0	0	0	0	475	598	
4	0	0	0	0	476	600	
5	0	0	0	0	477	597	
6	0	0	0	0	479	597	
7	0	0	0	0	479	596	
8	0	0	0	0	479	593	
9	0	0	0	0	479	596	
10	0	0	0	0	479	595	
11	0	0	0	0	478	596	
12	0	0	0	0	479	599	
13	0	0	0	0	479	595	
14	0	0	0	0	479	595	
15	0	0	0	0	478	595	
0	0	0	0	0	478	591	
1	0	0	0	0	478	595	
2	0	0	0	0	479	595	
3	0	0	0	0	479	595	
4	0	0	0	0	479	598	
5	0	0	0	0	479	595	
6	0	0	0	0	479	594	
7	0	0	0	0	479	593	
8	0	0	0	0	480	590	
9	0	0	0	0	480	593	
10	0	0	0	0	480	594	
11	0	0	0	0	480	594	
12	0	0	0	0	481	597	
13	0	0	0	0	481	593	
14	0	0	0	0	482	593	
15	0	0	0	0	483	593	
0	0	0	0	0	483	588	
1	0	0	0	0	483	593	
2	0	0	0	0	483	592	
3	0	0	0	0	484	592	
4	0	0	0	0	485	595	
5	0	0	0	0	485	592	
6	0	0	0	0	486	592	
7	0	0	0	0	486	592	
8	0	0	0	0	487	588	
9	0	0	0	0	486	591	
10	0	0	0	0	487	591	
11	0	0	0	0	486	592	
12	0	0	0	0	486	595	
13	0	0	0	0	487	591	
14	0	0	0	0	488	591	
15	0	0	0	0	488	591	
0	0	0	0	0	488	587	
1	0	0	0	0	489	591	
2	0	0	0	0	490	591	
3	0	0	0	0	489	591	
4	0	0	0	0	489	594	
5	0	0	0	0	489	591	
6	0	0	0	0	488	590	
7	0	0	0	0	487	590	
8	0	0	0	0	487	586	
9	0	0	0	0	487	590	
10	0	0	0	0	488	590	
11	0	0	0	0	488	590	
12	0	0	0	0	489	594	
13	0	0	0	0	489	590	
14	0	0	0	0	490	590	
15	0	0	0	0	490	590	
0	0	0	0	0	491	585	
1	0	0	0	0	492	590	
2	0	0	0	0	492	590	
3	0	0	0	0	492	590	
4	0	0	0	0	492	594	
5	0	0	0	0	494	591	
6	0	0	0	0	495	590	
7	0	0	0	0	495	591	
8	0	0	0	0	496	587	
9	0	0	0	0	497	591	
10	0	0	0	0	497	591	
11	0	0	0	0	498	591	
12	0	0	0	0	498	596	
13	0	0	0	0	499	591	
14	0	0	0	0	499	592	
15	0	0	0	0	499	591	
0	0	0	0	0	500	588	
1	0	0	0	0	501	592	
2	0	0	0	0	503	592	
3	0	0	0	0	504	594	
4	0	0	0	0	504	596	
5	0	0	0	0	506	593	
6	0	0	0	0	507	594	
7	0	0	0	0	507	593	
8	0	0	0	0	509	590	
9	0	0	0	0	511	595	
10	0	0	0	0	511	594	
11	0	0	0	0	512	594	
12	0	0	0	0	512	599	
13	0	0	0	0	514	595	
14	0	0	0	0	514	595	
15	0	0	0	0	515	595	
0	0	0	0	0	516	592	
1	0	0	0	0	517	596	
2	0	0	0	0	518	597	
3	0	0	0	0	518	597	
4	0	0	0	0	518	601	
5	0	0	0	0	519	597	
6	0	0	0	0	519	599	
7	0	0	0	0	519	598	
8	0	0	0	0	519	595	
9	0	0	0	0	518	599	
10	0	0	0	0	518	600	
11	0	0	0	0	518	600	
12	0	0	0	0	519	604	
13	0	0	0	0	519	601	
14	0	0	0	0	520	601	
15	0	0	0	0	520	601	
0	0	0	0	0	520	599	
1	0	0	0	0	519	601	
2	0	0	0	0	520	603	
3	0	0	0	0	519	603	
4	0	0	0	0	519	607	
5	0	0	0	0	519	604	
6	0	0	0	0	519	604	
7	0	0	0	0	518	604	
8	0	0	0	0	518	600	
9	0	0	0	0	516	605	
10	0	0	0	0	516	605	
11	0	0	0	0	516	605	
12	0	0	0	0	516	608	
13	0	0	0	0	517	605	
14	0	0	0	0	516	605	
15	0	0	0	0	515	605	
0	0	0	0	0	514	601	
1	0	0	0	0	513	605	
2	0	0	0	0	513	606	
3	0	0	0	0	512	606	
4	0	0	0	0	511	609	
5	0	0	0	0	511	606	
6	0	0	0	0	510	605	
7	0	0	0	0	509	604	
8	0	0	0	0	508	601	
9	0	0	0	0	507	605	
10	0	0	0	0	506	604	
11	0	0	0	0	504	604	
12	0	0	0	0	503	608	
13	0	0	0	0	502	604	
14	0	0	0	0	501	604	
15	0	0	0	0	500	604	
0	0	0	0	0	499	600	
1	0	0	0	0	499	604	
2	0	0	0	0	497	604	
3	0	0	0	0	496	604	
4	0	0	0	0	495	608	
5	0	0	0	0	494	604	
6	0	0	0	0	493	604	
7	0	0	0	0	492	604	
8	0	0	0	0	491	600	
9	0	0	0	0	491	604	
10	0	0	0	0	489	605	
11	0	0	0	0	488	606	
12	0	0	0	0	487	609	
13	0	0	0	0	487	605	
14	0	0	0	0	486	606	
15	0	0	0	0	485	605	
0	0	0	0	0	484	602	
1	0	0	0	0	484	606	
2	0	0	0	0	483	606	
3	0	0	0	0	482	606	
4	0	0	0	0	481	610	
5	0	0	0	0	480	607	
6	0	0	0	0	480	606	
7	0	0	0	0	479	606	
8	0	0	0	0	479	603	
9	0	0	0	0	479	607	
10	0	0	0	0	479	607	
11	0	0	0	0	478	608	
12	0	0	0	0	478	611	
13	0	0	0	0	478	608	
14	0	0	0	0	478	608	
15	0	0	0	0	478	608	
0	0	0	0	0	478	604	
1	0	0	0	0	478	608	
2	0	0	0	0	479	608	
3	0	0	0	0	479	609	
4	0	0	0	0	479	611	
5	0	0	0	0	479	608	
6	0	0	0	0	479	608	
7	0	0	0	0	480	608	
8	0	0	0	0	480	604	
9	0	0	0	0	481	608	
10	0	0	0	0	481	608	
11	0	0	0	0	481	608	
12	0	0	0	0	481	611	
13	0	0	0	0	481	608	
14	0	0	0	0	481	608	
15	0	0	0	0	481	608	
0	0	0	0	0	481	604	
1	0	0	0	0	481	607	
2	0	0	0	0	481	607	
3	0	0	0	0	481	607	
4	0	0	0	0	481	610	
5	0	0	0	0	482	607	
6	0	0	0	0	483	606	
7	0	0	0	0	483	605	
8	0	0	0	0	484	601	
9	0	0	0	0	484	605	
10	0	0	0	0	484	604	
11	0	0	0	0	484	604	
12	0	0	0	0	483	608	
13	0	0	0	0	483	604	
14	0	0	0	0	483	603	
15	0	0	0	0	483	602	
0	0	0	0	0	484	598	
1	0	0	0	0	483	601	
2	0	0	0	0	483	602	
3	0	0	0	0	484	602	
4	0	0	0	0	484	604	
5	0	0	0	0	486	600	
6	0	0	0	0	486	600	
7	0	0	0	0	487	599	
8	0	0	0	0	487	595	
9	0	0	0	0	487	599	
10	0	0	0	0	488	599	
11	0	0	0	0	488	598	
12	0	0	0	0	489	601	
13	0	0	0	0	489	597	
14	0	0	0	0	489	597	
15	0	0	0	0	490	596	
0	0	0	0	0	489	592	
1	0	0	0	0	490	596	
2	0	0	0	0	491	595	
3	0	0	0	0	491	595	
4	0	0	0	0	490	597	
5	0	0	0	0	491	594	
6	0	0	0	0	491	593	
7	0	0	0	0	491	592	
8	0	0	0	0	492	588	
9	0	0	0	0	492	593	
10	0	0	0	0	492	592	
11	0	0	0	0	492	591	
12	0	0	0	0	492	595	
13	0	0	0	0	493	591	
14	0	0	0	0	494	590	
15	0	0	0	0	494	590	
0	0	0	0	0	493	586	
1	0	0	0	0	493	589	
2	0	0	0	0	493	589	
3	0	0	0	0	493	589	
4	0	0	0	0	493	591	
5	0	0	0	0	494	588	
6	0	0	0	0	494	587	
7	0	0	0	0	495	587	
8	0	0	0	0	495	583	
9	0	0	0	0	495	587	
10	0	0	0	0	496	587	
11	0	0	0	0	496	586	
12	0	0	0	0	496	589	
13	0	0	0	0	496	585	
14	0	0	0	0	496	585	
15	0	0	0	0	497	585	
0	0	0	0	0	498	580	
1	0	0	0	0	498	584	
2	0	0	0	0	499	583	
3	0	0	0	0	500	584	
4	0	0	0	0	500	587	
5	0	0	0	0	500	583	
6	0	0	0	0	499	583	
7	0	0	0	0	499	583	
8	0	0	0	0	499	579	
9	0	0	0	0	499	582	
10	0	0	0	0	499	582	
11	0	0	0	0	499	582	
12	0	0	0	0	499	585	
13	0	0	0	0	500	582	
14	0	0	0	0	500	580	
15	0	0	0	0	500	580	
0	0	0	0	0	501	576	
1	0	0	0	0	502	580	
2	0	0	0	0	502	581	
3	0	0	0	0	503	580	
4	0	0	0	0	503	584	
5	0	0	0	0	503	580	
6	0	0	0	0	503	580	
7	0	0	0	0	503	580	
8	0	0	0	0	503	576	
9	0	0	0	0	503	580	
10	0	0	0	0	504	580	
11	0	0	0	0	504	580	
12	0	0	0	0	504	583	
13	0	0	0	0	504	580	
14	0	0	0	0	504	579	
15	0	0	0	0	505	579	
0	0	0	0	0	506	575	
1	0	0	0	0	506	579	
2	0	0	0	0	506	579	
3	0	0	0	0	506	580	
4	0	0	0	0	507	583	
5	0	0	0	0	507	579	
6	0	0	0	0	508	579	
7	0	0	0	0	508	580	
8	0	0	0	0	507	576	
9	0	0	0	0	507	580	
10	0	0	0	0	507	580	
11	0	0	0	0	508	581	
12	0	0	0	0	508	584	
13	0	0	0	0	508	581	
14	0	0	0	0	508	582	
15	0	0	0	0	508	582	
0	0	0	0	0	509	578	
1	0	0	0	0	509	582	
2	0	0	0	0	509	582	
3	0	0	0	0	509	582	
4	0	0	0	0	509	586	
5	0	0	0	0	509	583	
6	0	0	0	0	508	583	
7	0	0	0	0	508	583	
8	0	0	0	0	507	579	
9	0	0	0	0	507	583	
10	0	0	0	0	506	584	
11	0	0	0	0	505	584	
12	0	0	0	0	505	588	
13	0	0	0	0	504	585	
14	0	0	0	0	504	585	
15	0	0	0	0	504	585	
0	0	0	0	0	504	582	
1	0	0	0	0	503	585	
2	0	0	0	0	502	585	
3	0	0	0	0	503	586	
4	0	0	0	0	503	589	
5	0	0	0	0	502	586	
6	0	0	0	0	502	586	
7	0	0	0	0	503	586	
8	0	0	0	0	504	583	
9	0	0	0	0	504	587	
10	0	0	0	0	504	587	
11	0	0	0	0	504	587	
12	0	0	0	0	504	590	
13	0	0	0	0	505	587	
14	0	0	0	0	506	587	
15	0	0	0	0	507	586	
0	0	0	0	0	508	583	
1	0	0	0	0	507	587	
2	0	0	0	0	507	587	
3	0	0	0	0	506	587	
4	0	0	0	0	507	590	
5	0	0	0	0	506	587	
6	0	0	0	0	507	587	
7	0	0	0	0	507	587	
8	0	0	0	0	508	583	
9	0	0	0	0	509	588	
10	0	0	0	0	508	587	
11	0	0	0	0	508	587	
12	0	0	0	0	509	591	
13	0	0	0	0	508	587	
14	0	0	0	0	508	588	
15	0	0	0	0	508	587	
0	0	0	0	0	508	583	
1	0	0	0	0	508	587	
2	0	0	0	0	507	587	
3	0	0	0	0	507	586	
4	0	0	0	0	507	589	
5	0	0	0	0	507	586	
6	0	0	0	0	506	585	
7	0	0	0	0	506	585	
8	0	0	0	0	506	581	
9	0	0	0	0	505	584	
10	0	0	0	0	505	584	
11	0	0	0	0	505	584	
12	0	0	0	0	506	587	
13	0	0	0	0	507	583	
14	0	0	0	0	507	583	
15	0	0	0	0	508	582	
0	0	0	0	0	509	577	
1	0	0	0	0	509	581	
2	0	0	0	0	510	581	
3	0	0	0	0	510	580	
4	0	0	0	0	510	583	
5	0	0	0	0	509	580	
6	0	0	0	0	509	580	
7	0	0	0	0	510	580	
8	0	0	0	0	510	577	
9	0	0	0	0	510	580	
10	0	0	0	0	511	581	
11	0	0	0	0	511	581	
12	0	0	0	0	510	585	
13	0	0	0	0	510	581	
14	0	0	0	0	510	581	
15	0	0	0	0	510	582	
0	0	0	0	0	510	577	
1	0	0	0	0	511	581	
2	0	0	0	0	510	581	
3	0	0	0	0	511	581	
4	0	0	0	0	511	585	
5	0	0	0	0	511	581	
6	0	0	0	0	511	581	
7	0	0	0	0	511	582	
8	0	0	0	0	511	577	
9	0	0	0	0	511	582	
10	0	0	0	0	510	581	
11	0	0	0	0	511	582	
12	0	0	0	0	511	584	
13	0	0	0	0	511	582	
14	0	0	0	0	511	582	
15	0	0	0	0	510	581	
0	0	0	0	0	510	577	
1	0	0	0	0	510	582	
2	0	0	0	0	510	583	
3	0	0	0	0	509	583	
4	0	0	0	0	509	587	
5	0	0	0	0	508	585	
6	0	0	0	0	508	585	
7	0	0	0	0	508	585	
8	0	0	0	0	508	582	
9	0	0	0	0	507	587	
10	0	0	0	0	507	588	
11	0	0	0	0	507	588	
12	0	0	0	0	507	592	
13	0	0	0	0	508	590	
14	0	0	0	0	508	591	
15	0	0	0	0	509	591	
0	0	0	0	0	510	588	
1	0	0	0	0	511	592	
2	0	0	0	0	511	592	
3	0	0	0	0	511	593	
4	0	0	0	0	511	598	
5	0	0	0	0	511	595	
6	0	0	0	0	511	595	
7	0	0	0	0	511	595	
8	0	0	0	0	510	593	
9	0	0	0	0	511	598	
10	0	0	0	0	511	599	
11	0	0	0	0	511	599	
12	0	0	0	0	511	604	
13	0	0	0	0	511	600	
14	0	0	0	0	511	601	
15	0	0	0	0	511	603	
0	0	0	0	0	511	599	
1	0	0	0	0	512	604	
2	0	0	0	0	511	605	
3	0	0	0	0	511	606	
4	0	0	0	0	511	610	
5	0	0	0	0	511	608	
6	0	0	0	0	511	608	
7	0	0	0	0	511	609	
8	0	0	0	0	511	605	
9	0	0	0	0	511	610	
10	0	0	0	0	511	611	
11	0	0	0	0	512	612	
12	0	0	0	0	512	615	
13	0	0	0	0	512	612	
14	0	0	0	0	512	613	
15	0	0	0	0	512	613	
0	0	0	0	0	512	610	
1	0	0	0	0	512	614	
2	0	0	0	0	512	614	
3	0	0	0	0	512	614	
4	0	0	0	0	512	618	
5	0	0	0	0	513	615	
6	0	0	0	0	512	616	
7	0	0	0	0	512	616	
8	0	0	0	0	512	612	
9	0	0	0	0	512	617	
10	0	0	0	0	512	618	
11	0	0	0	0	512	618	
12	0	0	0	0	511	622	
13	0	0	0	0	512	619	
14	0	0	0	0	512	619	
15	0	0	0	0	512	619	
0	0	0	0	0	514	615	
1	0	0	0	0	514	620	
2	0	0	0	0	514	620	
3	0	0	0	0	514	621	
4	0	0	0	0	514	624	
5	0	0	0	0	515	620	
6	0	0	0	0	515	621	
7	0	0	0	0	515	622	
8	0	0	0	0	515	619	
9	0	0	0	0	514	623	
10	0	0	0	0	514	622	
11	0	0	0	0	514	623	
12	0	0	0	0	514	627	
13	0	0	0	0	513	624	
14	0	0	0	0	513	625	
15	0	0	0	0	513	625	
0	0	0	0	0	513	622	
1	0	0	0	0	514	625	
2	0	0	0	0	515	625	
3	0	0	0	0	516	626	
4	0	0	0	0	516	629	
5	0	0	0	0	517	626	
6	0	0	0	0	517	626	
7	0	0	0	0	516	626	
8	0	0	0	0	516	622	
9	0	0	0	0	517	626	
10	0	0	0	0	516	626	
11	0	0	0	0	515	626	
12	0	0	0	0	515	629	
13	0	0	0	0	515	624	
14	0	0	0	0	515	624	
15	0	0	0	0	515	624	
0	0	0	0	0	515	620	
1	0	0	0	0	514	623	
2	0	0	0	0	514	623	
3	0	0	0	0	514	623	
4	0	0	0	0	514	626	
5	0	0	0	0	515	622	
6	0	0	0	0	515	621	
7	0	0	0	0	515	622	
8	0	0	0	0	516	618	
9	0	0	0	0	516	622	
10	0	0	0	0	517	621	
11	0	0	0	0	517	622	
12	0	0	0	0	517	625	
13	0	0	0	0	518	623	
14	0	0	0	0	518	623	
15	0	0	0	0	519	623	
0	0	0	0	0	519	619	
1	0	0	0	0	519	623	
2	0	0	0	0	518	624	
3	0	0	0	0	519	624	
4	0	0	0	0	518	627	
5	0	0	0	0	519	624	
6	0	0	0	0	519	624	
7	0	0	0	0	519	625	
8	0	0	0	0	519	621	
9	0	0	0	0	518	625	
10	0	0	0	0	519	625	
11	0	0	0	0	519	627	
12	0	0	0	0	519	629	
13	0	0	0	0	519	626	
14	0	0	0	0	518	625	
15	0	0	0	0	517	626	
0	0	0	0	0	517	622	
1	0	0	0	0	516	626	
2	0	0	0	0	516	626	
3	0	0	0	0	516	626	
4	0	0	0	0	516	629	
5	0	0	0	0	516	625	
6	0	0	0	0	516	625	
7	0	0	0	0	515	624	
8	0	0	0	0	515	621	
9	0	0	0	0	515	624	
10	0	0	0	0	515	624	
11	0	0	0	0	516	623	
12	0	0	0	0	516	627	
13	0	0	0	0	516	623	
14	0	0	0	0	517	622	
15	0	0	0	0	517	623	
0	0	0	0	0	517	619	
1	0	0	0	0	517	622	
2	0	0	0	0	517	622	
3	0	0	0	0	517	622	
4	0	0	0	0	518	625	
5	0	0	0	0	518	621	
6	0	0	0	0	519	621	
7	0	0	0	0	520	620	
8	0	0	0	0	521	616	
9	0	0	0	0	521	620	
10	0	0	0	0	521	620	
11	0	0	0	0	521	620	
12	0	0	0	0	521	622	
13	0	0	0	0	521	619	
14	0	0	0	0	519	619	
15	0	0	0	0	518	618	
0	0	0	0	0	519	615	
1	0	0	0	0	519	617	
2	0	0	0	0	519	616	
3	0	0	0	0	519	616	
4	0	0	0	0	519	620	
5	0	0	0	0	518	616	
6	0	0	0	0	517	616	
7	0	0	0	0	517	615	
8	0	0	0	0	516	612	
9	0	0	0	0	515	615	
10	0	0	0	0	514	614	
11	0	0	0	0	514	614	
12	0	0	0	0	514	617	
13	0	0	0	0	514	614	
14	0	0	0	0	513	614	
15	0	0	0	0	513	614	
0	0	0	0	0	513	610	
1	0	0	0	0	513	615	
2	0	0	0	0	513	615	
3	0	0	0	0	513	614	
4	0	0	0	0	513	617	
5	0	0	0	0	513	612	
6	0	0	0	0	514	612	
7	0	0	0	0	514	613	
8	0	0	0	0	513	609	
9	0	0	0	0	513	614	
10	0	0	0	0	513	613	
11	0	0	0	0	513	614	
12	0	0	0	0	512	616	
13	0	0	0	0	513	612	
14	0	0	0	0	513	612	
15	0	0	0	0	513	611	
0	0	0	0	0	514	608	
1	0	0	0	0	514	612	
2	0	0	0	0	514	612	
3	0	0	0	0	514	612	
4	0	0	0	0	514	615	
5	0	0	0	0	513	611	
6	0	0	0	0	514	612	
7	0	0	0	0	514	612	
8	0	0	0	0	515	608	
9	0	0	0	0	516	611	
10	0	0	0	0	516	611	
11	0	0	0	0	516	611	
12	0	0	0	0	516	614	
13	0	0	0	0	517	610	
14	0	0	0	0	517	610	
15	0	0	0	0	518	609	
0	0	0	0	0	518	604	
1	0	0	0	0	518	607	
2	0	0	0	0	519	607	
3	0	0	0	0	518	607	
4	0	0	0	0	519	609	
5	0	0	0	0	519	605	
6	0	0	0	0	519	604	
7	0	0	0	0	519	604	
8	0	0	0	0	519	599	
9	0	0	0	0	520	603	
10	0	0	0	0	520	602	
11	0	0	0	0	520	601	
12	0	0	0	0	521	604	
13	0	0	0	0	521	600	
14	0	0	0	0	522	599	
15	0	0	0	0	522	598	
0	0	0	0	0	522	594	
1	0	0	0	0	522	597	
2	0	0	0	0	522	597	
3	0	0	0	0	522	596	
4	0	0	0	0	522	599	
5	0	0	0	0	523	595	
6	0	0	0	0	523	595	
7	0	0	0	0	524	595	
8	0	0	0	0	524	591	
9	0	0	0	0	525	595	
10	0	0	0	0	526	594	
11	0	0	0	0	527	594	
12	0	0	0	0	527	598	
13	0	0	0	0	527	594	
14	0	0	0	0	527	595	
15	0	0	0	0	527	595	
0	0	0	0	0	527	591	
1	0	0	0	0	527	595	
2	0	0	0	0	528	595	
3	0	0	0	0	528	596	
4	0	0	0	0	527	599	
5	0	0	0	0	527	596	
6	0	0	0	0	526	596	
7	0	0	0	0	525	596	
8	0	0	0	0	525	593	
9	0	0	0	0	525	597	
10	0	0	0	0	524	598	
11	0	0	0	0	523	598	
12	0	0	0	0	523	602	
13	0	0	0	0	523	599	
14	0	0	0	0	523	599	
15	0	0	0	0	522	599	
0	0	0	0	0	522	595	
1	0	0	0	0	521	600	
2	0	0	0	0	521	600	
3	0	0	0	0	521	600	
4	0	0	0	0	521	604	
5	0	0	0	0	521	600	
6	0	0	0	0	520	600	
7	0	0	0	0	519	601	
8	0	0	0	0	519	598	
9	0	0	0	0	518	601	
10	0	0	0	0	518	602	
11	0	0	0	0	518	602	
12	0	0	0	0	518	606	
13	0	0	0	0	518	601	
14	0	0	0	0	519	602	
15	0	0	0	0	519	601	
0	0	0	0	0	518	597	
1	0	0	0	0	518	601	
2	0	0	0	0	518	601	
3	0	0	0	0	517	601	
4	0	0	0	0	517	604	
5	0	0	0	0	517	601	
6	0	0	0	0	516	600	
7	0	0	0	0	517	600	
8	0	0	0	0	516	595	
9	0	0	0	0	515	599	
10	0	0	0	0	515	599	
11	0	0	0	0	515	599	
12	0	0	0	0	513	603	
13	0	0	0	0	513	599	
14	0	0	0	0	513	598	
15	0	0	0	0	513	597	
0	0	0	0	0	512	593	
1	0	0	0	0	512	596	
2	0	0	0	0	513	595	
3	0	0	0	0	513	595	
4	0	0	0	0	512	598	
5	0	0	0	0	512	593	
6	0	0	0	0	512	593	
7	0	0	0	0	511	591	
8	0	0	0	0	511	588	
9	0	0	0	0	511	591	
10	0	0	0	0	512	590	
11	0	0	0	0	512	591	
12	0	0	0	0	512	593	
13	0	0	0	0	511	590	
14	0	0	0	0	510	589	
15	0	0	0	0	508	589	
0	0	0	0	0	507	585	
1	0	0	0	0	504	589	
2	0	0	0	0	499	588	
3	0	0	0	0	493	588	
4	0	0	0	0	487	591	
5	0	0	0	0	480	587	
6	0	0	0	0	471	586	
7	0	0	0	0	463	585	
8	0	0	0	0	454	581	
9	0	0	0	0	447	584	
10	0	0	0	0	442	583	
11	0	0	0	0	440	584	
12	0	0	0	0	441	586	
13	0	0	0	0	445	582	
14	0	0	0	0	451	582	
15	0	0	0	0	460	581	
0	0	0	0	0	471	577	
1	0	0	0	0	484	581	
2	0	0	0	0	500	581	
3	0	0	0	0	518	582	
4	0	0	0	0	537	585	
5	0	0	0	0	559	582	
6	0	0	0	0	582	582	
7	0	0	0	0	607	582	
8	0	0	0	0	635	578	
9	0	0	0	0	663	583	
10	0	0	0	0	691	583	
11	0	0	0	0	719	584	
12	0	0	0	0	744	589	
13	0	0	0	0	766	585	
14	0	0	0	0	784	586	
15	0	0	0	0	796	588	
0	0	0	0	0	803	585	
1	0	0	0	0	802	590	
2	0	0	0	0	797	591	
3	0	0	0	0	792	593	
4	0	0	0	0	785	597	
5	0	0	0	0	778	595	
6	0	0	0	0	768	596	
7	0	0	0	0	756	596	
8	0	0	0	0	743	593	
9	0	0	0	0	729	599	
10	0	0	0	0	713	601	
11	0	0	0	0	699	602	
12	0	0	0	0	685	607	
13	0	0	0	0	670	605	
14	0	0	0	0	654	606	
15	0	0	0	0	638	608	
0	0	0	0	0	624	606	
1	0	0	0	0	611	611	
2	0	0	0	0	598	613	
3	0	0	0	0	586	615	
4	0	0	0	0	575	620	
5	0	0	0	0	565	617	
6	0	0	0	0	555	619	
7	0	0	0	0	546	621	
8	0	0	0	0	538	618	
9	0	0	0	0	529	624	
10	0	0	0	0	521	625	
11	0	0	0	0	513	625	
12	0	0	0	0	506	630	
13	0	0	0	0	499	629	
14	0	0	0	0	493	630	
15	0	0	0	0	487	630	
0	0	0	0	0	481	628	
1	0	0	0	0	475	632	
2	0	0	0	0	471	633	
3	0	0	0	0	468	635	
4	0	0	0	0	464	638	
5	0	0	0	0	462	636	
6	0	0	0	0	459	637	
7	0	0	0	0	457	637	
8	0	0	0	0	455	635	
9	0	0	0	0	454	639	
10	0	0	0	0	453	640	
11	0	0	0	0	451	641	
12	0	0	0	0	450	645	
13	0	0	0	0	451	642	
14	0	0	0	0	450	643	
15	0	0	0	0	450	643	
0	0	0	0	0	449	640	
1	0	0	0	0	448	644	
2	0	0	0	0	448	645	
3	0	0	0	0	448	646	
4	0	0	0	0	447	652	
5	0	0	0	0	446	651	
6	0	0	0	0	446	655	
7	0	0	0	0	447	658	
8	0	0	0	0	447	656	
9	0	0	0	0	448	664	
10	0	0	0	0	448	666	
11	0	0	0	0	447	669	
12	0	0	0	0	447	675	
13	0	0	0	0	447	672	
14	0	0	0	0	448	674	
15	0	0	0	0	448	675	
0	0	0	0	0	448	671	
1	0	0	0	0	450	674	
2	0	0	0	0	450	673	
3	0	0	0	0	452	671	
4	0	0	0	0	452	675	
5	0	0	0	0	453	670	
6	0	0	0	0	453	668	
7	0	0	0	0	453	666	
8	0	0	0	0	453	662	
9	0	0	0	0	453	664	
10	0	0	0	0	453	664	
11	0	0	0	0	453	663	
12	0	0	0	0	453	664	
13	0	0	0	0	453	660	
14	0	0	0	0	452	659	
15	0	0	0	0	452	658	
0	0	0	0	0	452	654	
1	0	0	0	0	453	657	
2	0	0	0	0	454	657	
3	0	0	0	0	454	657	
4	0	0	0	0	454	659	
5	0	0	0	0	454	655	
6	0	0	0	0	455	655	
7	0	0	0	0	455	655	
8	0	0	0	0	455	651	
9	0	0	0	0	455	654	
10	0	0	0	0	455	654	
11	0	0	0	0	454	654	
12	0	0	0	0	455	656	
13	0	0	0	0	455	653	
14	0	0	0	0	455	652	
15	0	0	0	0	455	652	
0	0	0	0	0	456	647	
1	0	0	0	0	456	652	
2	0	0	0	0	456	651	
3	0	0	0	0	456	651	
4	0	0	0	0	456	654	
5	0	0	0	0	456	651	
6	0	0	0	0	456	651	
7	0	0	0	0	455	652	
8	0	0	0	0	455	648	
9	0	0	0	0	455	651	
10	0	0	0	0	455	652	
11	0	0	0	0	455	652	
12	0	0	0	0	455	656	
13	0	0	0	0	455	654	
14	0	0	0	0	455	653	
15	0	0	0	0	454	654	
0	0	0	0	0	455	651	
1	0	0	0	0	456	655	
2	0	0	0	0	457	655	
3	0	0	0	0	457	656	
4	0	0	0	0	457	660	
5	0	0	0	0	458	657	
6	0	0	0	0	458	657	
7	0	0	0	0	459	658	
8	0	0	0	0	459	655	
9	0	0	0	0	460	659	
10	0	0	0	0	461	659	
11	0	0	0	0	461	659	
12	0	0	0	0	461	663	
13	0	0	0	0	462	659	
14	0	0	0	0	462	659	
15	0	0	0	0	462	658	
0	0	0	0	0	463	655	
1	0	0	0	0	464	658	
2	0	0	0	0	464	658	
3	0	0	0	0	465	657	
4	0	0	0	0	465	660	
5	0	0	0	0	465	656	
6	0	0	0	0	465	655	
7	0	0	0	0	465	654	
8	0	0	0	0	465	649	
9	0	0	0	0	466	652	
10	0	0	0	0	467	652	
11	0	0	0	0	467	652	
12	0	0	0	0	467	654	
13	0	0	0	0	469	649	
14	0	0	0	0	470	649	
15	0	0	0	0	471	648	
0	0	0	0	0	471	643	
1	0	0	0	0	472	646	
2	0	0	0	0	472	647	
3	0	0	0	0	472	647	
4	0	0	0	0	472	649	
5	0	0	0	0	471	646	
6	0	0	0	0	471	644	
7	0	0	0	0	471	644	
8	0	0	0	0	471	640	
9	0	0	0	0	471	643	
10	0	0	0	0	472	643	
11	0	0	0	0	472	643	
12	0	0	0	0	472	646	
13	0	0	0	0	472	643	
14	0	0	0	0	473	643	
15	0	0	0	0	474	643	
0	0	0	0	0	475	639	
1	0	0	0	0	476	643	
2	0	0	0	0	476	644	
3	0	0	0	0	476	643	
4	0	0	0	0	476	647	
5	0	0	0	0	476	643	
6	0	0	0	0	476	643	
7	0	0	0	0	478	643	
8	0	0	0	0	478	640	
9	0	0	0	0	480	643	
10	0	0	0	0	480	643	
11	0	0	0	0	481	643	
12	0	0	0	0	481	647	
13	0	0	0	0	482	643	
14	0	0	0	0	483	643	
15	0	0	0	0	483	642	
0	0	0	0	0	483	638	
1	0	0	0	0	484	642	
2	0	0	0	0	484	641	
3	0	0	0	0	485	641	
4	0	0	0	0	486	644	
5	0	0	0	0	487	641	
6	0	0	0	0	487	640	
7	0	0	0	0	488	639	
8	0	0	0	0	490	635	
9	0	0	0	0	491	639	
10	0	0	0	0	492	638	
11	0	0	0	0	493	638	
12	0	0	0	0	494	641	
13	0	0	0	0	495	636	
14	0	0	0	0	495	636	
15	0	0	0	0	496	634	
0	0	0	0	0	496	630	
1	0	0	0	0	497	633	
2	0	0	0	0	499	632	
3	0	0	0	0	500	632	
4	0	0	0	0	500	635	
5	0	0	0	0	501	631	
6	0	0	0	0	502	629	
7	0	0	0	0	502	628	
8	0	0	0	0	503	624	
9	0	0	0	0	503	627	
10	0	0	0	0	504	627	
11	0	0	0	0	504	626	
12	0	0	0	0	505	629	
13	0	0	0	0	506	625	
14	0	0	0	0	507	624	
15	0	0	0	0	507	624	
0	0	0	0	0	508	618	
1	0	0	0	0	508	622	
2	0	0	0	0	508	622	
3	0	0	0	0	509	622	
4	0	0	0	0	510	625	
5	0	0	0	0	510	621	
6	0	0	0	0	510	620	
7	0	0	0	0	511	620	
8	0	0	0	0	512	616	
9	0	0	0	0	512	620	
10	0	0	0	0	513	620	
11	0	0	0	0	514	620	
12	0	0	0	0	514	623	
13	0	0	0	0	514	619	
14	0	0	0	0	515	619	
15	0	0	0	0	516	618	
0	0	0	0	0	517	614	
1	0	0	0	0	518	617	
2	0	0	0	0	519	616	
3	0	0	0	0	520	617	
4	0	0	0	0	521	620	
5	0	0	0	0	522	615	
6	0	0	0	0	522	615	
7	0	0	0	0	523	615	
8	0	0	0	0	524	610	
9	0	0	0	0	526	613	
10	0	0	0	0	526	613	
11	0	0	0	0	526	612	
12	0	0	0	0	526	616	
13	0	0	0	0	527	612	
14	0	0	0	0	527	612	
15	0	0	0	0	528	611	
0	0	0	0	0	529	607	
1	0	0	0	0	528	611	
2	0	0	0	0	529	610	
3	0	0	0	0	529	610	
4	0	0	0	0	530	613	
5	0	0	0	0	530	608	
6	0	0	0	0	530	608	
7	0	0	0	0	529	607	
8	0	0	0	0	529	602	
9	0	0	0	0	528	606	
10	0	0	0	0	528	605	
11	0	0	0	0	529	604	
12	0	0	0	0	530	607	
13	0	0	0	0	531	603	
14	0	0	0	0	531	603	
15	0	0	0	0	531	601	
0	0	0	0	0	530	598	
1	0	0	0	0	530	601	
2	0	0	0	0	529	601	
3	0	0	0	0	528	600	
4	0	0	0	0	527	604	
5	0	0	0	0	527	600	
6	0	0	0	0	526	600	
7	0	0	0	0	526	599	
8	0	0	0	0	526	596	
9	0	0	0	0	525	599	
10	0	0	0	0	524	599	
11	0	0	0	0	523	599	
12	0	0	0	0	522	602	
13	0	0	0	0	520	599	
14	0	0	0	0	519	599	
15	0	0	0	0	518	599	
0	0	0	0	0	517	595	
1	0	0	0	0	516	599	
2	0	0	0	0	515	599	
3	0	0	0	0	513	599	
4	0	0	0	0	512	602	
5	0	0	0	0	510	599	
6	0	0	0	0	509	599	
7	0	0	0	0	508	600	
8	0	0	0	0	507	596	
9	0	0	0	0	506	600	
10	0	0	0	0	505	600	
11	0	0	0	0	503	601	
12	0	0	0	0	503	605	
13	0	0	0	0	502	601	
14	0	0	0	0	501	601	
15	0	0	0	0	501	602	
0	0	0	0	0	501	598	
1	0	0	0	0	500	602	
2	0	0	0	0	500	603	
3	0	0	0	0	499	603	
4	0	0	0	0	499	606	
5	0	0	0	0	498	603	
6	0	0	0	0	497	603	
7	0	0	0	0	496	602	
8	0	0	0	0	496	598	
9	0	0	0	0	496	602	
10	0	0	0	0	496	602	
11	0	0	0	0	496	602	
12	0	0	0	0	496	605	
13	0	0	0	0	496	601	
14	0	0	0	0	495	601	
15	0	0	0	0	495	600	
0	0	0	0	0	495	596	
1	0	0	0	0	494	600	
2	0	0	0	0	494	600	
3	0	0	0	0	495	600	
4	0	0	0	0	494	603	
5	0	0	0	0	494	599	
6	0	0	0	0	494	599	
7	0	0	0	0	494	598	
8	0	0	0	0	493	594	
9	0	0	0	0	492	598	
10	0	0	0	0	492	598	
11	0	0	0	0	491	597	
12	0	0	0	0	491	600	
13	0	0	0	0	492	597	
14	0	0	0	0	492	596	
15	0	0	0	0	492	596	
0	0	0	0	0	492	591	
1	0	0	0	0	491	595	
2	0	0	0	0	491	595	
3	0	0	0	0	491	595	
4	0	0	0	0	490	598	
5	0	0	0	0	490	594	
6	0	0	0	0	489	594	
7	0	0	0	0	489	594	
8	0	0	0	0	489	590	
9	0	0	0	0	490	595	
10	0	0	0	0	490	594	
11	0	0	0	0	489	595	
12	0	0	0	0	488	598	
13	0	0	0	0	488	595	
14	0	0	0	0	489	595	
15	0	0	0	0	489	595	
0	0	0	0	0	489	591	
1	0	0	0	0	489	595	
2	0	0	0	0	488	596	
3	0	0	0	0	488	596	
4	0	0	0	0	488	600	
5	0	0	0	0	489	596	
6	0	0	0	0	489	596	
7	0	0	0	0	490	596	
8	0	0	0	0	489	593	
9	0	0	0	0	489	598	
10	0	0	0	0	489	598	
11	0	0	0	0	489	599	
12	0	0	0	0	488	602	
13	0	0	0	0	489	599	
14	0	0	0	0	489	598	
15	0	0	0	0	489	598	
0	0	0	0	0	489	594	
1	0	0	0	0	490	599	
2	0	0	0	0	491	599	
3	0	0	0	0	491	599	
4	0	0	0	0	491	602	
5	0	0	0	0	492	599	
6	0	0	0	0	492	599	
7	0	0	0	0	493	598	
8	0	0	0	0	493	595	
9	0	0	0	0	494	599	
10	0	0	0	0	495	600	
11	0	0	0	0	495	600	
12	0	0	0	0	495	603	
13	0	0	0	0	496	600	
14	0	0	0	0	495	599	
15	0	0	0	0	495	600	
0	0	0	0	0	495	595	
1	0	0	0	0	495	600	
2	0	0	0	0	496	599	
3	0	0	0	0	496	599	
4	0	0	0	0	496	603	
5	0	0	0	0	496	599	
6	0	0	0	0	496	600	
7	0	0	0	0	496	600	
8	0	0	0	0	496	597	
9	0	0	0	0	496	600	
10	0	0	0	0	496	601	
11	0	0	0	0	496	600	
12	0	0	0	0	496	604	
13	0	0	0	0	496	601	
14	0	0	0	0	496	601	
15	0	0	0	0	497	600	
0	0	0	0	0	498	597	
1	0	0	0	0	499	601	
2	0	0	0	0	499	601	
3	0	0	0	0	499	602	
4	0	0	0	0	500	606	
5	0	0	0	0	500	602	
6	0	0	0	0	500	602	
7	0	0	0	0	500	602	
8	0	0	0	0	501	599	
9	0	0	0	0	500	603	
10	0	0	0	0	500	604	
11	0	0	0	0	500	604	
12	0	0	0	0	500	608	
13	0	0	0	0	501	604	
14	0	0	0	0	501	604	
15	0	0	0	0	501	604	
0	0	0	0	0	501	600	
1	0	0	0	0	501	606	
2	0	0	0	0	501	606	
3	0	0	0	0	502	606	
4	0	0	0	0	502	610	
5	0	0	0	0	504	606	
6	0	0	0	0	503	607	
7	0	0	0	0	503	607	
8	0	0	0	0	503	604	
9	0	0	0	0	504	608	
10	0	0	0	0	504	608	
11	0	0	0	0	503	608	
12	0	0	0	0	504	612	
13	0	0	0	0	504	608	
14	0	0	0	0	504	609	
15	0	0	0	0	505	608	
0	0	0	0	0	506	604	
1	0	0	0	0	507	609	
2	0	0	0	0	508	609	
3	0	0	0	0	507	610	
4	0	0	0	0	507	614	
5	0	0	0	0	507	610	
6	0	0	0	0	506	610	
7	0	0	0	0	507	610	
8	0	0	0	0	507	607	
9	0	0	0	0	507	611	
10	0	0	0	0	507	611	
11	0	0	0	0	507	611	
12	0	0	0	0	508	615	
13	0	0	0	0	508	612	
14	0	0	0	0	508	613	
15	0	0	0	0	508	612	
0	0	0	0	0	508	609	
1	0	0	0	0	508	614	
2	0	0	0	0	508	614	
3	0	0	0	0	508	614	
4	0	0	0	0	507	617	
5	0	0	0	0	507	614	
6	0	0	0	0	507	614	
7	0	0	0	0	507	614	
8	0	0	0	0	507	610	
9	0	0	0	0	508	614	
10	0	0	0	0	510	615	
11	0	0	0	0	511	615	
12	0	0	0	0	511	619	
13	0	0	0	0	511	615	
14	0	0	0	0	511	614	
15	0	0	0	0	512	614	
0	0	0	0	0	512	611	
1	0	0	0	0	512	615	
2	0	0	0	0	512	615	
3	0	0	0	0	512	615	
4	0	0	0	0	512	618	
5	0	0	0	0	512	615	
6	0	0	0	0	511	615	
7	0	0	0	0	511	615	
8	0	0	0	0	511	610	
9	0	0	0	0	510	614	
10	0	0	0	0	509	615	
11	0	0	0	0	510	616	
12	0	0	0	0	510	619	
13	0	0	0	0	511	615	
14	0	0	0	0	511	616	
15	0	0	0	0	512	615	
0	0	0	0	0	512	612	
1	0	0	0	0	512	616	
2	0	0	0	0	512	616	
3	0	0	0	0	511	616	
4	0	0	0	0	510	620	
5	0	0	0	0	510	617	
6	0	0	0	0	510	616	
7	0	0	0	0	509	617	
8	0	0	0	0	510	614	
9	0	0	0	0	511	618	
10	0	0	0	0	511	617	
11	0	0	0	0	511	617	
12	0	0	0	0	511	622	
13	0	0	0	0	511	618	
14	0	0	0	0	511	618	
15	0	0	0	0	511	619	
0	0	0	0	0	510	614	
1	0	0	0	0	510	618	
2	0	0	0	0	510	618	
3	0	0	0	0	510	619	
4	0	0	0	0	509	623	
5	0	0	0	0	509	620	
6	0	0	0	0	509	620	
7	0	0	0	0	508	620	
8	0	0	0	0	508	617	
9	0	0	0	0	508	623	
10	0	0	0	0	508	623	
11	0	0	0	0	507	624	
12	0	0	0	0	508	628	
13	0	0	0	0	508	624	
14	0	0	0	0	508	625	
15	0	0	0	0	508	625	
0	0	0	0	0	508	623	
1	0	0	0	0	509	628	
2	0	0	0	0	509	628	
3	0	0	0	0	509	629	
4	0	0	0	0	509	632	
5	0	0	0	0	509	630	
6	0	0	0	0	509	630	
7	0	0	0	0	509	631	
8	0	0	0	0	509	628	
9	0	0	0	0	509	632	
10	0	0	0	0	509	632	
11	0	0	0	0	509	633	
12	0	0	0	0	509	638	
13	0	0	0	0	509	634	
14	0	0	0	0	509	634	
15	0	0	0	0	510	634	
0	0	0	0	0	510	631	
1	0	0	0	0	510	635	
2	0	0	0	0	511	636	
3	0	0	0	0	511	636	
4	0	0	0	0	510	641	
5	0	0	0	0	510	639	
6	0	0	0	0	510	639	
7	0	0	0	0	509	640	
8	0	0	0	0	509	637	
9	0	0	0	0	508	641	
10	0	0	0	0	508	643	
11	0	0	0	0	508	643	
12	0	0	0	0	507	647	
13	0	0	0	0	507	644	
14	0	0	0	0	507	643	
15	0	0	0	0	507	643	
0	0	0	0	0	507	639	
1	0	0	0	0	506	643	
2	0	0	0	0	504	641	
3	0	0	0	0	502	641	
4	0	0	0	0	499	643	
5	0	0	0	0	497	638	
6	0	0	0	0	496	637	
7	0	0	0	0	495	635	
8	0	0	0	0	495	631	
9	0	0	0	0	496	635	
10	0	0	0	0	496	634	
11	0	0	0	0	497	634	
12	0	0	0	0	498	636	
13	0	0	0	0	499	632	
14	0	0	0	0	501	633	
15	0	0	0	0	503	632	
0	0	0	0	0	504	628	
1	0	0	0	0	504	632	
2	0	0	0	0	504	631	
3	0	0	0	0	505	632	
4	0	0	0	0	505	634	
5	0	0	0	0	505	631	
6	0	0	0	0	504	630	
7	0	0	0	0	505	630	
8	0	0	0	0	505	626	
9	0	0	0	0	505	630	
10	0	0	0	0	505	629	
11	0	0	0	0	504	628	
12	0	0	0	0	504	631	
13	0	0	0	0	505	627	
14	0	0	0	0	504	626	
15	0	0	0	0	505	625	
0	0	0	0	0	505	619	
1	0	0	0	0	504	622	
2	0	0	0	0	504	622	
3	0	0	0	0	504	621	
4	0	0	0	0	504	623	
5	0	0	0	0	504	619	
6	0	0	0	0	504	617	
7	0	0	0	0	504	616	
8	0	0	0	0	503	612	
9	0	0	0	0	504	615	
10	0	0	0	0	504	614	
11	0	0	0	0	503	614	
12	0	0	0	0	502	617	
13	0	0	0	0	498	612	
14	0	0	0	0	494	611	
15	0	0	0	0	491	611	
0	0	0	0	0	487	607	
1	0	0	0	0	486	610	
2	0	0	0	0	489	609	
3	0	0	0	0	493	610	
4	0	0	0	0	497	614	
5	0	0	0	0	501	609	
6	0	0	0	0	505	610	
7	0	0	0	0	508	609	
8	0	0	0	0	510	606	
9	0	0	0	0	512	609	
10	0	0	0	0	514	608	
11	0	0	0	0	516	609	
12	0	0	0	0	516	611	
13	0	0	0	0	518	608	
14	0	0	0	0	518	608	
15	0	0	0	0	519	607	
0	0	0	0	0	519	604	
1	0	0	0	0	519	607	
2	0	0	0	0	519	607	
3	0	0	0	0	520	606	
4	0	0	0	0	521	609	
5	0	0	0	0	522	605	
6	0	0	0	0	523	605	
7	0	0	0	0	523	604	
8	0	0	0	0	523	600	
9	0	0	0	0	523	604	
10	0	0	0	0	524	604	
11	0	0	0	0	524	604	
12	0	0	0	0	524	607	
13	0	0	0	0	523	602	
14	0	0	0	0	522	602	
15	0	0	0	0	523	602	
0	0	0	0	0	523	597	
1	0	0	0	0	522	600	
2	0	0	0	0	522	600	
3	0	0	0	0	522	599	
4	0	0	0	0	523	602	
5	0	0	0	0	522	598	
6	0	0	0	0	522	597	
7	0	0	0	0	521	596	
8	0	0	0	0	522	591	
9	0	0	0	0	522	595	
10	0	0	0	0	522	595	
11	0	0	0	0	523	594	
12	0	0	0	0	524	597	
13	0	0	0	0	524	592	
14	0	0	0	0	524	592	
15	0	0	0	0	523	592	
0	0	0	0	0	522	588	
1	0	0	0	0	521	591	
2	0	0	0	0	520	591	
3	0	0	0	0	521	591	
4	0	0	0	0	521	595	
5	0	0	0	0	521	591	
6	0	0	0	0	521	591	
7	0	0	0	0	521	591	
8	0	0	0	0	521	588	
9	0	0	0	0	521	593	
10	0	0	0	0	521	593	
11	0	0	0	0	521	593	
12	0	0	0	0	521	597	
13	0	0	0	0	521	593	
14	0	0	0	0	519	593	
15	0	0	0	0	518	594	
0	0	0	0	0	518	590	
1	0	0	0	0	519	593	
2	0	0	0	0	519	593	
3	0	0	0	0	519	593	
4	0	0	0	0	519	596	
5	0	0	0	0	518	592	
6	0	0	0	0	518	592	
7	0	0	0	0	518	591	
8	0	0	0	0	517	587	
9	0	0	0	0	516	591	
10	0	0	0	0	516	591	
11	0	0	0	0	517	592	
12	0	0	0	0	517	595	
13	0	0	0	0	517	591	
14	0	0	0	0	517	591	
15	0	0	0	0	516	591	
0	0	0	0	0	516	587	
1	0	0	0	0	516	591	
2	0	0	0	0	517	591	
3	0	0	0	0	517	591	
4	0	0	0	0	517	595	
5	0	0	0	0	517	591	
6	0	0	0	0	517	591	
7	0	0	0	0	516	590	
8	0	0	0	0	515	587	
9	0	0	0	0	516	590	
10	0	0	0	0	516	590	
11	0	0	0	0	516	590	
12	0	0	0	0	516	593	
13	0	0	0	0	516	589	
14	0	0	0	0	515	590	
15	0	0	0	0	515	589	
0	0	0	0	0	515	585	
1	0	0	0	0	515	589	
2	0	0	0	0	515	590	
3	0	0	0	0	515	590	
4	0	0	0	0	515	593	
5	0	0	0	0	516	590	
6	0	0	0	0	516	590	
7	0	0	0	0	516	589	
8	0	0	0	0	518	586	
9	0	0	0	0	519	590	
10	0	0	0	0	519	590	
11	0	0	0	0	520	591	
12	0	0	0	0	519	594	
13	0	0	0	0	519	590	
14	0	0	0	0	518	591	
15	0	0	0	0	517	590	
0	0	0	0	0	516	586	
1	0	0	0	0	516	590	
2	0	0	0	0	516	590	
3	0	0	0	0	515	590	
4	0	0	0	0	515	594	
5	0	0	0	0	515	590	
6	0	0	0	0	515	589	
7	0	0	0	0	514	590	
8	0	0	0	0	514	586	
9	0	0	0	0	515	590	
10	0	0	0	0	514	590	
11	0	0	0	0	514	590	
12	0	0	0	0	514	594	
13	0	0	0	0	515	590	
14	0	0	0	0	515	590	
15	0	0	0	0	515	591	
0	0	0	0	0	516	588	
1	0	0	0	0	516	591	
2	0	0	0	0	516	591	
3	0	0	0	0	516	591	
4	0	0	0	0	516	595	
5	0	0	0	0	515	592	
6	0	0	0	0	515	592	
7	0	0	0	0	514	591	
8	0	0	0	0	514	588	
9	0	0	0	0	514	592	
10	0	0	0	0	515	592	
11	0	0	0	0	514	593	
12	0	0	0	0	514	596	
13	0	0	0	0	514	592	
14	0	0	0	0	514	592	
15	0	0	0	0	514	592	
0	0	0	0	0	514	589	
1	0	0	0	0	514	593	
2	0	0	0	0	514	594	
3	0	0	0	0	513	594	
4	0	0	0	0	513	598	
5	0	0	0	0	513	595	
6	0	0	0	0	512	595	
7	0	0	0	0	512	596	
8	0	0	0	0	512	592	
9	0	0	0	0	512	596	
10	0	0	0	0	511	596	
11	0	0	0	0	511	596	
12	0	0	0	0	511	600	
13	0	0	0	0	510	596	
14	0	0	0	0	509	595	
15	0	0	0	0	509	596	
0	0	0	0	0	508	591	
1	0	0	0	0	508	595	
2	0	0	0	0	508	595	
3	0	0	0	0	508	595	
4	0	0	0	0	508	599	
5	0	0	0	0	508	595	
6	0	0	0	0	508	596	
7	0	0	0	0	508	596	
8	0	0	0	0	508	591	
9	0	0	0	0	508	596	
10	0	0	0	0	508	597	
11	0	0	0	0	508	597	
12	0	0	0	0	508	601	
13	0	0	0	0	508	598	
14	0	0	0	0	509	598	
15	0	0	0	0	509	598	
0	0	0	0	0	510	594	
1	0	0	0	0	510	599	
2	0	0	0	0	510	599	
3	0	0	0	0	510	600	
4	0	0	0	0	509	604	
5	0	0	0	0	509	600	
6	0	0	0	0	509	600	
7	0	0	0	0	509	601	
8	0	0	0	0	509	598	
9	0	0	0	0	508	602	
10	0	0	0	0	508	602	
11	0	0	0	0	508	602	
12	0	0	0	0	508	606	
13	0	0	0	0	508	603	
14	0	0	0	0	508	603	
15	0	0	0	0	508	604	
0	0	0	0	0	507	600	
1	0	0	0	0	507	604	
2	0	0	0	0	507	604	
3	0	0	0	0	506	604	
4	0	0	0	0	507	608	
5	0	0	0	0	508	604	
6	0	0	0	0	508	605	
7	0	0	0	0	509	604	
8	0	0	0	0	509	601	
9	0	0	0	0	510	605	
10	0	0	0	0	510	605	
11	0	0	0	0	510	604	
12	0	0	0	0	511	608	
13	0	0	0	0	511	605	
14	0	0	0	0	511	604	
15	0	0	0	0	512	604	
0	0	0	0	0	512	600	
1	0	0	0	0	512	604	
2	0	0	0	0	512	605	
3	0	0	0	0	512	606	
4	0	0	0	0	512	608	
5	0	0	0	0	512	605	
6	0	0	0	0	513	605	
7	0	0	0	0	513	604	
8	0	0	0	0	514	601	
9	0	0	0	0	514	605	
10	0	0	0	0	515	605	
11	0	0	0	0	516	605	
12	0	0	0	0	515	608	
13	0	0	0	0	516	605	
14	0	0	0	0	516	605	
15	0	0	0	0	515	604	
0	0	0	0	0	515	600	
1	0	0	0	0	515	604	
2	0	0	0	0	514	604	
3	0	0	0	0	514	605	
4	0	0	0	0	515	609	
5	0	0	0	0	515	605	
6	0	0	0	0	515	604	
7	0	0	0	0	515	604	
8	0	0	0	0	515	600	
9	0	0	0	0	515	604	
10	0	0	0	0	515	604	
11	0	0	0	0	515	604	
12	0	0	0	0	515	607	
13	0	0	0	0	516	604	
14	0	0	0	0	516	604	
15	0	0	0	0	515	604	
0	0	0	0	0	515	600	
1	0	0	0	0	516	604	
2	0	0	0	0	515	604	
3	0	0	0	0	515	604	
4	0	0	0	0	515	607	
5	0	0	0	0	515	603	
6	0	0	0	0	514	604	
7	0	0	0	0	515	604	
8	0	0	0	0	515	600	
9	0	0	0	0	515	605	
10	0	0	0	0	516	604	
11	0	0	0	0	516	604	
12	0	0	0	0	516	607	
13	0	0	0	0	516	604	
14	0	0	0	0	515	604	
15	0	0	0	0	515	604	
0	0	0	0	0	515	600	
1	0	0	0	0	516	604	
2	0	0	0	0	516	604	
3	0	0	0	0	516	604	
4	0	0	0	0	515	608	
5	0	0	0	0	515	604	
6	0	0	0	0	514	603	
7	0	0	0	0	514	604	
8	0	0	0	0	514	600	
9	0	0	0	0	513	604	
10	0	0	0	0	513	604	
11	0	0	0	0	513	604	
12	0	0	0	0	513	607	
13	0	0	0	0	514	603	
14	0	0	0	0	514	603	
15	0	0	0	0	514	603	
0	0	0	0	0	513	599	
1	0	0	0	0	513	603	
2	0	0	0	0	513	603	
3	0	0	0	0	513	602	
4	0	0	0	0	513	606	
5	0	0	0	0	513	602	
6	0	0	0	0	513	602	
7	0	0	0	0	514	601	
8	0	0	0	0	514	598	
9	0	0	0	0	515	601	
10	0	0	0	0	514	602	
11	0	0	0	0	514	601	
12	0	0	0	0	513	604	
13	0	0	0	0	511	600	
14	0	0	0	0	508	601	
15	0	0	0	0	502	600	
0	0	0	0	0	496	597	
1	0	0	0	0	489	600	
2	0	0	0	0	482	600	
3	0	0	0	0	473	601	
4	0	0	0	0	464	604	
5	0	0	0	0	457	600	
6	0	0	0	0	451	600	
7	0	0	0	0	448	600	
8	0	0	0	0	446	596	
9	0	0	0	0	448	600	
10	0	0	0	0	454	600	
11	0	0	0	0	461	600	
12	0	0	0	0	470	603	
13	0	0	0	0	481	600	
14	0	0	0	0	492	600	
15	0	0	0	0	507	600	
0	0	0	0	0	523	595	
1	0	0	0	0	541	600	
2	0	0	0	0	560	600	
3	0	0	0	0	580	600	
4	0	0	0	0	604	604	
5	0	0	0	0	630	600	
6	0	0	0	0	656	600	
7	0	0	0	0	683	600	
8	0	0	0	0	707	596	
9	0	0	0	0	729	600	
10	0	0	0	0	747	600	
11	0	0	0	0	761	600	
12	0	0	0	0	771	604	
13	0	0	0	0	774	600	
14	0	0	0	0	771	600	
15	0	0	0	0	766	600	
0	0	0	0	0	761	596	
1	0	0	0	0	755	600	
2	0	0	0	0	748	600	
3	0	0	0	0	738	600	
4	0	0	0	0	725	604	
5	0	0	0	0	712	600	
6	0	0	0	0	699	600	
7	0	0	0	0	686	600	
8	0	0	0	0	673	596	
9	0	0	0	0	660	600	
10	0	0	0	0	646	600	
11	0	0	0	0	633	600	
12	0	0	0	0	619	603	
13	0	0	0	0	607	600	
14	0	0	0	0	596	599	
15	0	0	0	0	585	599	
0	0	0	0	0	575	595	
1	0	0	0	0	566	598	
2	0	0	0	0	557	598	
3	0	0	0	0	549	599	
4	0	0	0	0	542	602	
5	0	0	0	0	535	599	
6	0	0	0	0	529	599	
7	0	0	0	0	523	598	
8	0	0	0	0	517	595	
9	0	0	0	0	511	599	
10	0	0	0	0	505	599	
11	0	0	0	0	499	599	
12	0	0	0	0	494	603	
13	0	0	0	0	488	599	
14	0	0	0	0	483	600	
15	0	0	0	0	479	599	
0	0	0	0	0	475	595	
1	0	0	0	0	472	599	
2	0	0	0	0	469	600	
3	0	0	0	0	466	600	
4	0	0	0	0	463	603	
5	0	0	0	0	462	600	
6	0	0	0	0	461	600	
7	0	0	0	0	460	600	
8	0	0	0	0	459	595	
9	0	0	0	0	459	600	
10	0	0	0	0	458	599	
11	0	0	0	0	457	600	
12	0	0	0	0	456	602	
13	0	0	0	0	455	599	
14	0	0	0	0	455	599	
15	0	0	0	0	454	600	
0	0	0	0	0	454	596	
1	0	0	0	0	453	600	
2	0	0	0	0	453	599	
3	0	0	0	0	452	599	
4	0	0	0	0	452	604	
5	0	0	0	0	453	598	
6	0	0	0	0	452	599	
7	0	0	0	0	453	598	
8	0	0	0	0	454	595	
9	0	0	0	0	454	598	
10	0	0	0	0	454	599	
11	0	0	0	0	454	598	
12	0	0	0	0	454	602	
13	0	0	0	0	454	599	
14	0	0	0	0	454	598	
15	0	0	0	0	454	598	
0	0	0	0	0	455	595	
1	0	0	0	0	455	599	
2	0	0	0	0	456	599	
3	0	0	0	0	457	599	
4	0	0	0	0	457	602	
5	0	0	0	0	458	598	
6	0	0	0	0	459	599	
7	0	0	0	0	460	598	
8	0	0	0	0	460	594	
9	0	0	0	0	461	598	
10	0	0	0	0	462	598	
11	0	0	0	0	463	598	
12	0	0	0	0	463	602	
13	0	0	0	0	463	598	
14	0	0	0	0	464	598	
15	0	0	0	0	464	597	
0	0	0	0	0	465	593	
1	0	0	0	0	465	597	
2	0	0	0	0	465	597	
3	0	0	0	0	467	598	
4	0	0	0	0	467	600	
5	0	0	0	0	467	597	
6	0	0	0	0	467	597	
7	0	0	0	0	468	596	
8	0	0	0	0	468	593	
9	0	0	0	0	467	597	
10	0	0	0	0	468	597	
11	0	0	0	0	468	597	
12	0	0	0	0	468	600	
13	0	0	0	0	468	598	
14	0	0	0	0	467	597	
15	0	0	0	0	469	597	
0	0	0	0	0	469	593	
1	0	0	0	0	470	598	
2	0	0	0	0	471	597	
3	0	0	0	0	471	597	
4	0	0	0	0	471	601	
5	0	0	0	0	472	598	
6	0	0	0	0	472	598	
7	0	0	0	0	472	598	
8	0	0	0	0	473	594	
9	0	0	0	0	473	598	
10	0	0	0	0	473	599	
11	0	0	0	0	474	599	
12	0	0	0	0	474	602	
13	0	0	0	0	474	599	
14	0	0	0	0	475	599	
15	0	0	0	0	475	599	
0	0	0	0	0	475	595	
1	0	0	0	0	476	599	
2	0	0	0	0	476	599	
3	0	0	0	0	476	599	
4	0	0	0	0	476	602	
5	0	0	0	0	476	600	
6	0	0	0	0	476	599	
7	0	0	0	0	476	599	
8	0	0	0	0	477	595	
9	0	0	0	0	478	599	
10	0	0	0	0	478	598	
11	0	0	0	0	478	599	
12	0	0	0	0	479	602	
13	0	0	0	0	479	599	
14	0	0	0	0	479	599	
15	0	0	0	0	479	598	
0	0	0	0	0	480	594	
1	0	0	0	0	480	599	
2	0	0	0	0	480	598	
3	0	0	0	0	480	599	
4	0	0	0	0	480	602	
5	0	0	0	0	480	598	
6	0	0	0	0	480	599	
7	0	0	0	0	480	598	
8	0	0	0	0	480	595	
9	0	0	0	0	480	599	
10	0	0	0	0	481	599	
11	0	0	0	0	481	598	
12	0	0	0	0	481	601	
13	0	0	0	0	482	598	
14	0	0	0	0	482	598	
15	0	0	0	0	482	599	
0	0	0	0	0	483	594	
1	0	0	0	0	483	599	
2	0	0	0	0	484	599	
3	0	0	0	0	484	599	
4	0	0	0	0	485	603	
5	0	0	0	0	485	599	
6	0	0	0	0	485	600	
7	0	0	0	0	485	600	
8	0	0	0	0	485	595	
9	0	0	0	0	485	599	
10	0	0	0	0	485	600	
11	0	0	0	0	486	600	
12	0	0	0	0	487	604	
13	0	0	0	0	488	600	
14	0	0	0	0	488	600	
15	0	0	0	0	489	600	
0	0	0	0	0	489	597	
1	0	0	0	0	489	600	
2	0	0	0	0	489	601	
3	0	0	0	0	489	601	
4	0	0	0	0	489	605	
5	0	0	0	0	489	601	
6	0	0	0	0	489	601	
7	0	0	0	0	490	601	
8	0	0	0	0	490	597	
9	0	0	0	0	491	601	
10	0	0	0	0	491	601	
11	0	0	0	0	491	602	
12	0	0	0	0	491	606	
13	0	0	0	0	491	602	
14	0	0	0	0	491	602	
15	0	0	0	0	491	603	
0	0	0	0	0	492	599	
1	0	0	0	0	493	604	
2	0	0	0	0	493	604	
3	0	0	0	0	493	604	
4	0	0	0	0	493	608	
5	0	0	0	0	494	604	
6	0	0	0	0	494	604	
7	0	0	0	0	495	604	
8	0	0	0	0	495	601	
9	0	0	0	0	495	604	
10	0	0	0	0	496	606	
11	0	0	0	0	495	605	
12	0	0	0	0	496	609	
13	0	0	0	0	496	606	
14	0	0	0	0	496	605	
15	0	0	0	0	497	606	
0	0	0	0	0	498	602	
1	0	0	0	0	499	606	
2	0	0	0	0	500	606	
3	0	0	0	0	500	607	
4	0	0	0	0	501	610	
5	0	0	0	0	502	606	
6	0	0	0	0	503	606	
7	0	0	0	0	503	606	
8	0	0	0	0	503	602	
9	0	0	0	0	504	606	
10	0	0	0	0	504	606	
11	0	0	0	0	505	607	
12	0	0	0	0	505	611	
13	0	0	0	0	506	606	
14	0	0	0	0	507	607	
15	0	0	0	0	507	606	
0	0	0	0	0	508	603	
1	0	0	0	0	508	606	
2	0	0	0	0	509	607	
3	0	0	0	0	510	607	
4	0	0	0	0	510	609	
5	0	0	0	0	511	606	
6	0	0	0	0	512	606	
7	0	0	0	0	512	607	
8	0	0	0	0	513	602	
9	0	0	0	0	515	606	
10	0	0	0	0	515	606	
11	0	0	0	0	516	606	
12	0	0	0	0	517	609	
13	0	0	0	0	518	606	
14	0	0	0	0	518	606	
15	0	0	0	0	518	605	
0	0	0	0	0	518	601	
1	0	0	0	0	518	605	
2	0	0	0	0	519	605	
3	0	0	0	0	519	605	
4	0	0	0	0	519	609	
5	0	0	0	0	520	606	
6	0	0	0	0	520	604	
7	0	0	0	0	521	605	
8	0	0	0	0	522	602	
9	0	0	0	0	522	606	
10	0	0	0	0	523	606	
11	0	0	0	0	524	606	
12	0	0	0	0	524	609	
13	0	0	0	0	524	606	
14	0	0	0	0	525	606	
15	0	0	0	0	525	605	
0	0	0	0	0	525	601	
1	0	0	0	0	525	606	
2	0	0	0	0	525	606	
3	0	0	0	0	525	605	
4	0	0	0	0	525	609	
5	0	0	0	0	525	605	
6	0	0	0	0	524	606	
7	0	0	0	0	524	606	
8	0	0	0	0	523	601	
9	0	0	0	0	523	606	
10	0	0	0	0	523	606	
11	0	0	0	0	522	606	
12	0	0	0	0	521	609	
13	0	0	0	0	520	606	
14	0	0	0	0	519	606	
15	0	0	0	0	519	606	
0	0	0	0	0	519	601	
1	0	0	0	0	518	606	
2	0	0	0	0	517	606	
3	0	0	0	0	516	606	
4	0	0	0	0	516	608	
5	0	0	0	0	516	604	
6	0	0	0	0	515	604	
7	0	0	0	0	515	605	
8	0	0	0	0	513	601	
9	0	0	0	0	512	605	
10	0	0	0	0	512	606	
11	0	0	0	0	511	606	
12	0	0	0	0	511	610	
13	0	0	0	0	510	606	
14	0	0	0	0	509	607	
15	0	0	0	0	508	607	
0	0	0	0	0	508	604	
1	0	0	0	0	507	607	
2	0	0	0	0	506	608	
3	0	0	0	0	505	608	
4	0	0	0	0	503	612	
5	0	0	0	0	502	608	
6	0	0	0	0	501	609	
7	0	0	0	0	500	609	
8	0	0	0	0	498	605	
9	0	0	0	0	497	607	
10	0	0	0	0	496	608	
11	0	0	0	0	494	608	
12	0	0	0	0	494	611	
13	0	0	0	0	492	607	
14	0	0	0	0	492	607	
15	0	0	0	0	490	606	
0	0	0	0	0	488	602	
1	0	0	0	0	487	606	
2	0	0	0	0	486	606	
3	0	0	0	0	486	607	
4	0	0	0	0	485	610	
5	0	0	0	0	485	607	
6	0	0	0	0	485	608	
7	0	0	0	0	485	607	
8	0	0	0	0	486	605	
9	0	0	0	0	485	608	
10	0	0	0	0	485	609	
11	0	0	0	0	484	609	
12	0	0	0	0	484	614	
13	0	0	0	0	483	611	
14	0	0	0	0	483	611	
15	0	0	0	0	483	611	
0	0	0	0	0	482	607	
1	0	0	0	0	482	611	
2	0	0	0	0	481	611	
3	0	0	0	0	481	611	
4	0	0	0	0	481	614	
5	0	0	0	0	481	611	
6	0	0	0	0	481	610	
7	0	0	0	0	481	609	
8	0	0	0	0	481	606	
9	0	0	0	0	481	610	
10	0	0	0	0	481	610	
11	0	0	0	0	481	609	
12	0	0	0	0	482	612	
13	0	0	0	0	483	609	
14	0	0	0	0	483	607	
15	0	0	0	0	483	606	
0	0	0	0	0	483	602	
1	0	0	0	0	484	606	
2	0	0	0	0	484	606	
3	0	0	0	0	484	606	
4	0	0	0	0	483	608	
5	0	0	0	0	483	604	
6	0	0	0	0	484	604	
7	0	0	0	0	483	604	
8	0	0	0	0	484	600	
9	0	0	0	0	485	603	
10	0	0	0	0	485	603	
11	0	0	0	0	486	603	
12	0	0	0	0	486	607	
13	0	0	0	0	485	604	
14	0	0	0	0	485	604	
15	0	0	0	0	484	603	
0	0	0	0	0	484	599	
1	0	0	0	0	484	603	
2	0	0	0	0	484	603	
3	0	0	0	0	483	603	
4	0	0	0	0	484	607	
5	0	0	0	0	483	604	
6	0	0	0	0	483	603	
7	0	0	0	0	483	603	
8	0	0	0	0	483	599	
9	0	0	0	0	483	603	
10	0	0	0	0	483	604	
11	0	0	0	0	483	603	
12	0	0	0	0	483	607	
13	0	0	0	0	484	602	
14	0	0	0	0	483	602	
15	0	0	0	0	483	602	
0	0	0	0	0	484	598	
1	0	0	0	0	485	601	
2	0	0	0	0	485	602	
3	0	0	0	0	486	601	
4	0	0	0	0	486	604	
5	0	0	0	0	486	601	
6	0	0	0	0	487	600	
7	0	0	0	0	487	600	
8	0	0	0	0	487	595	
9	0	0	0	0	487	599	
10	0	0	0	0	487	599	
11	0	0	0	0	487	599	
12	0	0	0	0	487	602	
13	0	0	0	0	487	598	
14	0	0	0	0	487	599	
15	0	0	0	0	487	598	
0	0	0	0	0	487	593	
1	0	0	0	0	487	598	
2	0	0	0	0	488	598	
3	0	0	0	0	489	598	
4	0	0	0	0	489	602	
5	0	0	0	0	490	598	
6	0	0	0	0	489	598	
7	0	0	0	0	489	597	
8	0	0	0	0	490	594	
9	0	0	0	0	491	598	
10	0	0	0	0	492	598	
11	0	0	0	0	492	598	
12	0	0	0	0	492	600	
13	0	0	0	0	493	596	
14	0	0	0	0	494	596	
15	0	0	0	0	494	596	
0	0	0	0	0	494	592	
1	0	0	0	0	495	596	
2	0	0	0	0	495	596	
3	0	0	0	0	494	596	
4	0	0	0	0	495	600	
5	0	0	0	0	495	595	
6	0	0	0	0	495	595	
7	0	0	0	0	495	595	
8	0	0	0	0	494	591	
9	0	0	0	0	493	595	
10	0	0	0	0	494	595	
11	0	0	0	0	494	595	
12	0	0	0	0	494	599	
13	0	0	0	0	496	594	
14	0	0	0	0	496	594	
15	0	0	0	0	496	594	
0	0	0	0	0	496	590	
1	0	0	0	0	496	594	
2	0	0	0	0	496	593	
3	0	0	0	0	497	593	
4	0	0	0	0	497	597	
5	0	0	0	0	498	594	
6	0	0	0	0	498	594	
7	0	0	0	0	497	593	
8	0	0	0	0	498	590	
9	0	0	0	0	498	594	
10	0	0	0	0	498	594	
11	0	0	0	0	498	594	
12	0	0	0	0	498	598	
13	0	0	0	0	498	595	
14	0	0	0	0	497	593	
15	0	0	0	0	497	594	
0	0	0	0	0	497	590	
1	0	0	0	0	498	594	
2	0	0	0	0	499	594	
3	0	0	0	0	499	594	
4	0	0	0	0	499	598	
5	0	0	0	0	500	594	
6	0	0	0	0	500	594	
7	0	0	0	0	501	594	
8	0	0	0	0	502	590	
9	0	0	0	0	502	594	
10	0	0	0	0	503	594	
11	0	0	0	0	502	594	
12	0	0	0	0	503	597	
13	0	0	0	0	503	594	
14	0	0	0	0	504	594	
15	0	0	0	0	504	594	
0	0	0	0	0	504	590	
1	0	0	0	0	504	594	
2	0	0	0	0	504	594	
3	0	0	0	0	504	595	
4	0	0	0	0	504	598	
5	0	0	0	0	505	594	
6	0	0	0	0	505	594	
7	0	0	0	0	505	594	
8	0	0	0	0	505	590	
9	0	0	0	0	505	593	
10	0	0	0	0	506	593	
11	0	0	0	0	506	594	
12	0	0	0	0	506	598	
13	0	0	0	0	507	593	
14	0	0	0	0	506	593	
15	0	0	0	0	505	594	
0	0	0	0	0	505	589	
1	0	0	0	0	505	594	
2	0	0	0	0	504	593	
3	0	0	0	0	505	594	
4	0	0	0	0	505	597	
5	0	0	0	0	504	594	
6	0	0	0	0	505	594	
7	0	0	0	0	504	593	
8	0	0	0	0	504	590	
9	0	0	0	0	504	594	
10	0	0	0	0	504	594	
11	0	0	0	0	505	594	
12	0	0	0	0	504	597	
13	0	0	0	0	504	594	
14	0	0	0	0	504	594	
15	0	0	0	0	504	594	
0	0	0	0	0	504	590	
1	0	0	0	0	504	593	
2	0	0	0	0	504	594	
3	0	0	0	0	505	594	
4	0	0	0	0	505	598	
5	0	0	0	0	506	595	
6	0	0	0	0	506	594	
7	0	0	0	0	507	595	
8	0	0	0	0	506	590	
9	0	0	0	0	506	594	
10	0	0	0	0	505	594	
11	0	0	0	0	505	594	
12	0	0	0	0	505	598	
13	0	0	0	0	505	595	
14	0	0	0	0	505	595	
15	0	0	0	0	505	594	
0	0	0	0	0	505	590	
1	0	0	0	0	506	595	
2	0	0	0	0	507	595	
3	0	0	0	0	508	595	
4	0	0	0	0	508	598	
5	0	0	0	0	508	595	
6	0	0	0	0	509	595	
7	0	0	0	0	509	595	
8	0	0	0	0	508	591	
9	0	0	0	0	508	595	
10	0	0	0	0	508	595	
11	0	0	0	0	508	596	
12	0	0	0	0	508	599	
13	0	0	0	0	507	595	
14	0	0	0	0	507	595	
15	0	0	0	0	507	595	
0	0	0	0	0	507	591	
1	0	0	0	0	507	596	
2	0	0	0	0	506	596	
3	0	0	0	0	505	596	
4	0	0	0	0	504	600	
5	0	0	0	0	505	596	
6	0	0	0	0	504	596	
7	0	0	0	0	505	595	
8	0	0	0	0	505	592	
9	0	0	0	0	506	596	
10	0	0	0	0	506	595	
11	0	0	0	0	505	596	
12	0	0	0	0	506	600	
13	0	0	0	0	505	596	
14	0	0	0	0	505	596	
15	0	0	0	0	505	597	
0	0	0	0	0	505	592	
1	0	0	0	0	505	596	
2	0	0	0	0	506	596	
3	0	0	0	0	506	596	
