# OpenSignals Text File Format. Version 1
# {"98:D3:91:FD:69:48": {"position": 0, "device": "bitalino_rev", "device name": "98:D3:91:FD:69:48", "device connection": "BTH98:D3:91:FD:69:48", "sampling rate": 1000, "resolution": [4, 1, 1, 1, 1, 10, 10], "firmware version": 1281, "comments": "", "keywords": "", "mode": 0, "sync interval": 2, "date": "2021-9-18", "time": "21:6:11.450", "channels": [2, 5], "sensor": ["RAW", "RAW"], "label": ["A2", "A5"], "column": ["nSeq", "I1", "I2", "O1", "O2", "A2", "A5"], "special": [{}, {}], "digital IO": [0, 0, 1, 1], "convertedValues": 0}}
# EndOfHeader
0	0	0	0	0	657	410	
1	0	0	0	0	656	410	
2	0	0	0	0	656	409	
3	0	0	0	0	657	405	
4	0	0	0	0	657	411	
5	0	0	0	0	658	411	
6	0	0	0	0	657	411	
7	0	0	0	0	658	415	
8	0	0	0	0	658	411	
9	0	0	0	0	659	410	
10	0	0	0	0	660	410	
11	0	0	0	0	660	405	
12	0	0	0	0	659	410	
13	0	0	0	0	658	410	
14	0	0	0	0	657	410	
15	0	0	0	0	655	414	
0	0	0	0	0	655	410	
1	0	0	0	0	655	410	
2	0	0	0	0	655	409	
3	0	0	0	0	654	404	
4	0	0	0	0	653	409	
5	0	0	0	0	652	409	
6	0	0	0	0	650	409	
7	0	0	0	0	650	414	
8	0	0	0	0	649	408	
9	0	0	0	0	647	409	
10	0	0	0	0	646	408	
11	0	0	0	0	646	403	
12	0	0	0	0	644	408	
13	0	0	0	0	643	408	
14	0	0	0	0	641	408	
15	0	0	0	0	641	413	
0	0	0	0	0	642	408	
1	0	0	0	0	643	409	
2	0	0	0	0	643	408	
3	0	0	0	0	646	403	
4	0	0	0	0	648	409	
5	0	0	0	0	651	409	
6	0	0	0	0	654	409	
7	0	0	0	0	655	413	
8	0	0	0	0	657	409	
9	0	0	0	0	658	409	
10	0	0	0	0	658	408	
11	0	0	0	0	657	403	
12	0	0	0	0	656	409	
13	0	0	0	0	654	409	
14	0	0	0	0	653	410	
15	0	0	0	0	654	414	
0	0	0	0	0	654	409	
1	0	0	0	0	654	409	
2	0	0	0	0	654	409	
3	0	0	0	0	653	404	
4	0	0	0	0	653	409	
5	0	0	0	0	653	410	
6	0	0	0	0	654	409	
7	0	0	0	0	655	415	
8	0	0	0	0	654	409	
9	0	0	0	0	654	410	
10	0	0	0	0	655	409	
11	0	0	0	0	655	405	
12	0	0	0	0	656	410	
13	0	0	0	0	656	410	
14	0	0	0	0	656	411	
15	0	0	0	0	655	415	
0	0	0	0	0	655	410	
1	0	0	0	0	656	410	
2	0	0	0	0	655	410	
3	0	0	0	0	654	405	
4	0	0	0	0	653	410	
5	0	0	0	0	652	410	
6	0	0	0	0	652	411	
7	0	0	0	0	652	415	
8	0	0	0	0	654	411	
9	0	0	0	0	655	411	
10	0	0	0	0	657	411	
11	0	0	0	0	659	405	
12	0	0	0	0	659	410	
13	0	0	0	0	659	411	
14	0	0	0	0	659	411	
15	0	0	0	0	659	415	
0	0	0	0	0	661	411	
1	0	0	0	0	663	411	
2	0	0	0	0	664	411	
3	0	0	0	0	666	406	
4	0	0	0	0	667	411	
5	0	0	0	0	667	410	
6	0	0	0	0	665	410	
7	0	0	0	0	663	415	
8	0	0	0	0	662	411	
9	0	0	0	0	660	411	
10	0	0	0	0	659	411	
11	0	0	0	0	658	406	
12	0	0	0	0	656	411	
13	0	0	0	0	656	410	
14	0	0	0	0	656	411	
15	0	0	0	0	656	416	
0	0	0	0	0	656	409	
1	0	0	0	0	655	410	
2	0	0	0	0	656	411	
3	0	0	0	0	655	407	
4	0	0	0	0	654	412	
5	0	0	0	0	654	412	
6	0	0	0	0	655	412	
7	0	0	0	0	657	418	
8	0	0	0	0	658	412	
9	0	0	0	0	658	411	
10	0	0	0	0	658	412	
11	0	0	0	0	658	406	
12	0	0	0	0	658	408	
13	0	0	0	0	659	409	
14	0	0	0	0	660	410	
15	0	0	0	0	660	414	
0	0	0	0	0	659	408	
1	0	0	0	0	657	409	
2	0	0	0	0	655	409	
3	0	0	0	0	656	404	
4	0	0	0	0	656	409	
5	0	0	0	0	655	409	
6	0	0	0	0	654	410	
7	0	0	0	0	653	414	
8	0	0	0	0	652	410	
9	0	0	0	0	651	410	
10	0	0	0	0	650	410	
11	0	0	0	0	650	406	
12	0	0	0	0	649	410	
13	0	0	0	0	648	410	
14	0	0	0	0	647	411	
15	0	0	0	0	647	416	
0	0	0	0	0	648	411	
1	0	0	0	0	647	411	
2	0	0	0	0	645	410	
3	0	0	0	0	644	405	
4	0	0	0	0	644	411	
5	0	0	0	0	644	410	
6	0	0	0	0	643	411	
7	0	0	0	0	643	414	
8	0	0	0	0	642	410	
9	0	0	0	0	641	409	
10	0	0	0	0	639	409	
11	0	0	0	0	637	403	
12	0	0	0	0	635	409	
13	0	0	0	0	632	408	
14	0	0	0	0	631	408	
15	0	0	0	0	629	413	
0	0	0	0	0	626	408	
1	0	0	0	0	624	407	
2	0	0	0	0	623	407	
3	0	0	0	0	623	403	
4	0	0	0	0	623	408	
5	0	0	0	0	623	409	
6	0	0	0	0	624	409	
7	0	0	0	0	626	414	
8	0	0	0	0	627	409	
9	0	0	0	0	625	409	
10	0	0	0	0	625	408	
11	0	0	0	0	626	403	
12	0	0	0	0	626	408	
13	0	0	0	0	627	409	
14	0	0	0	0	628	409	
15	0	0	0	0	630	413	
0	0	0	0	0	631	408	
1	0	0	0	0	630	408	
2	0	0	0	0	629	408	
3	0	0	0	0	629	403	
4	0	0	0	0	630	408	
5	0	0	0	0	631	409	
6	0	0	0	0	631	409	
7	0	0	0	0	632	413	
8	0	0	0	0	631	409	
9	0	0	0	0	629	409	
10	0	0	0	0	628	408	
11	0	0	0	0	627	403	
12	0	0	0	0	627	409	
13	0	0	0	0	630	409	
14	0	0	0	0	630	409	
15	0	0	0	0	631	414	
0	0	0	0	0	630	409	
1	0	0	0	0	630	409	
2	0	0	0	0	631	409	
3	0	0	0	0	630	403	
4	0	0	0	0	630	409	
5	0	0	0	0	629	408	
6	0	0	0	0	628	409	
7	0	0	0	0	627	414	
8	0	0	0	0	627	409	
9	0	0	0	0	626	409	
10	0	0	0	0	624	408	
11	0	0	0	0	623	404	
12	0	0	0	0	624	409	
13	0	0	0	0	626	409	
14	0	0	0	0	629	409	
15	0	0	0	0	631	414	
0	0	0	0	0	632	409	
1	0	0	0	0	633	409	
2	0	0	0	0	632	409	
3	0	0	0	0	632	403	
4	0	0	0	0	632	409	
5	0	0	0	0	632	408	
6	0	0	0	0	632	409	
7	0	0	0	0	632	415	
8	0	0	0	0	632	410	
9	0	0	0	0	632	410	
10	0	0	0	0	632	409	
11	0	0	0	0	632	404	
12	0	0	0	0	632	409	
13	0	0	0	0	631	409	
14	0	0	0	0	631	409	
15	0	0	0	0	632	414	
0	0	0	0	0	632	409	
1	0	0	0	0	632	409	
2	0	0	0	0	632	408	
3	0	0	0	0	630	403	
4	0	0	0	0	628	409	
5	0	0	0	0	625	409	
6	0	0	0	0	624	409	
7	0	0	0	0	626	414	
8	0	0	0	0	626	409	
9	0	0	0	0	625	409	
10	0	0	0	0	624	408	
11	0	0	0	0	622	403	
12	0	0	0	0	619	409	
13	0	0	0	0	618	409	
14	0	0	0	0	617	408	
15	0	0	0	0	617	414	
0	0	0	0	0	615	409	
1	0	0	0	0	615	409	
2	0	0	0	0	614	409	
3	0	0	0	0	612	404	
4	0	0	0	0	612	410	
5	0	0	0	0	612	410	
6	0	0	0	0	613	410	
7	0	0	0	0	612	414	
8	0	0	0	0	611	410	
9	0	0	0	0	610	410	
10	0	0	0	0	606	409	
11	0	0	0	0	603	405	
12	0	0	0	0	599	410	
13	0	0	0	0	597	410	
14	0	0	0	0	595	410	
15	0	0	0	0	593	415	
0	0	0	0	0	592	410	
1	0	0	0	0	590	410	
2	0	0	0	0	588	410	
3	0	0	0	0	587	404	
4	0	0	0	0	586	410	
5	0	0	0	0	586	410	
6	0	0	0	0	586	410	
7	0	0	0	0	587	414	
8	0	0	0	0	587	409	
9	0	0	0	0	587	410	
10	0	0	0	0	587	409	
11	0	0	0	0	586	405	
12	0	0	0	0	585	409	
13	0	0	0	0	585	410	
14	0	0	0	0	584	410	
15	0	0	0	0	582	414	
0	0	0	0	0	579	409	
1	0	0	0	0	576	409	
2	0	0	0	0	574	408	
3	0	0	0	0	572	403	
4	0	0	0	0	570	409	
5	0	0	0	0	568	408	
6	0	0	0	0	566	409	
7	0	0	0	0	564	414	
8	0	0	0	0	563	409	
9	0	0	0	0	563	410	
10	0	0	0	0	563	409	
11	0	0	0	0	563	404	
12	0	0	0	0	564	409	
13	0	0	0	0	566	408	
14	0	0	0	0	567	409	
15	0	0	0	0	568	414	
0	0	0	0	0	568	409	
1	0	0	0	0	567	409	
2	0	0	0	0	565	408	
3	0	0	0	0	563	404	
4	0	0	0	0	561	409	
5	0	0	0	0	559	409	
6	0	0	0	0	556	409	
7	0	0	0	0	554	414	
8	0	0	0	0	552	409	
9	0	0	0	0	551	409	
10	0	0	0	0	549	409	
11	0	0	0	0	548	404	
12	0	0	0	0	547	409	
13	0	0	0	0	546	409	
14	0	0	0	0	546	409	
15	0	0	0	0	547	414	
0	0	0	0	0	547	409	
1	0	0	0	0	548	408	
2	0	0	0	0	551	408	
3	0	0	0	0	552	404	
4	0	0	0	0	553	410	
5	0	0	0	0	555	409	
6	0	0	0	0	555	409	
7	0	0	0	0	556	414	
8	0	0	0	0	556	409	
9	0	0	0	0	556	409	
10	0	0	0	0	558	408	
11	0	0	0	0	558	404	
12	0	0	0	0	557	409	
13	0	0	0	0	555	409	
14	0	0	0	0	553	410	
15	0	0	0	0	551	414	
0	0	0	0	0	549	409	
1	0	0	0	0	546	409	
2	0	0	0	0	544	409	
3	0	0	0	0	542	405	
4	0	0	0	0	540	410	
5	0	0	0	0	540	409	
6	0	0	0	0	539	409	
7	0	0	0	0	537	414	
8	0	0	0	0	537	409	
9	0	0	0	0	536	409	
10	0	0	0	0	535	408	
11	0	0	0	0	534	404	
12	0	0	0	0	534	409	
13	0	0	0	0	534	409	
14	0	0	0	0	534	409	
15	0	0	0	0	534	413	
0	0	0	0	0	535	409	
1	0	0	0	0	534	409	
2	0	0	0	0	532	409	
3	0	0	0	0	529	404	
4	0	0	0	0	526	409	
5	0	0	0	0	524	409	
6	0	0	0	0	522	409	
7	0	0	0	0	520	414	
8	0	0	0	0	519	410	
9	0	0	0	0	519	410	
10	0	0	0	0	520	410	
11	0	0	0	0	521	404	
12	0	0	0	0	522	411	
13	0	0	0	0	523	410	
14	0	0	0	0	525	410	
15	0	0	0	0	527	415	
0	0	0	0	0	529	410	
1	0	0	0	0	529	410	
2	0	0	0	0	529	410	
3	0	0	0	0	527	405	
4	0	0	0	0	527	410	
5	0	0	0	0	527	410	
6	0	0	0	0	526	410	
7	0	0	0	0	525	415	
8	0	0	0	0	525	410	
9	0	0	0	0	524	411	
10	0	0	0	0	524	409	
11	0	0	0	0	524	405	
12	0	0	0	0	523	410	
13	0	0	0	0	523	410	
14	0	0	0	0	523	410	
15	0	0	0	0	523	415	
0	0	0	0	0	523	410	
1	0	0	0	0	523	409	
2	0	0	0	0	523	410	
3	0	0	0	0	522	405	
4	0	0	0	0	520	410	
5	0	0	0	0	520	410	
6	0	0	0	0	519	410	
7	0	0	0	0	519	415	
8	0	0	0	0	518	410	
9	0	0	0	0	517	409	
10	0	0	0	0	517	409	
11	0	0	0	0	516	404	
12	0	0	0	0	517	409	
13	0	0	0	0	517	409	
14	0	0	0	0	516	410	
15	0	0	0	0	515	414	
0	0	0	0	0	514	408	
1	0	0	0	0	514	409	
2	0	0	0	0	513	409	
3	0	0	0	0	513	403	
4	0	0	0	0	513	409	
5	0	0	0	0	513	408	
6	0	0	0	0	511	409	
7	0	0	0	0	510	414	
8	0	0	0	0	509	409	
9	0	0	0	0	508	409	
10	0	0	0	0	507	408	
11	0	0	0	0	506	403	
12	0	0	0	0	506	408	
13	0	0	0	0	507	408	
14	0	0	0	0	507	409	
15	0	0	0	0	507	413	
0	0	0	0	0	507	408	
1	0	0	0	0	506	408	
2	0	0	0	0	505	408	
3	0	0	0	0	504	403	
4	0	0	0	0	504	408	
5	0	0	0	0	504	408	
6	0	0	0	0	504	408	
7	0	0	0	0	503	412	
8	0	0	0	0	503	408	
9	0	0	0	0	503	408	
10	0	0	0	0	502	408	
11	0	0	0	0	501	403	
12	0	0	0	0	501	408	
13	0	0	0	0	501	408	
14	0	0	0	0	501	408	
15	0	0	0	0	501	413	
0	0	0	0	0	503	408	
1	0	0	0	0	504	408	
2	0	0	0	0	505	408	
3	0	0	0	0	504	403	
4	0	0	0	0	503	408	
5	0	0	0	0	502	408	
6	0	0	0	0	499	408	
7	0	0	0	0	497	413	
8	0	0	0	0	496	408	
9	0	0	0	0	493	408	
10	0	0	0	0	490	408	
11	0	0	0	0	487	403	
12	0	0	0	0	485	408	
13	0	0	0	0	483	408	
14	0	0	0	0	482	409	
15	0	0	0	0	479	413	
0	0	0	0	0	475	408	
1	0	0	0	0	471	409	
2	0	0	0	0	467	408	
3	0	0	0	0	464	404	
4	0	0	0	0	460	409	
5	0	0	0	0	455	409	
6	0	0	0	0	450	409	
7	0	0	0	0	445	414	
8	0	0	0	0	441	408	
9	0	0	0	0	437	409	
10	0	0	0	0	432	408	
11	0	0	0	0	429	404	
12	0	0	0	0	427	410	
13	0	0	0	0	426	410	
14	0	0	0	0	427	410	
15	0	0	0	0	428	414	
0	0	0	0	0	428	409	
1	0	0	0	0	429	410	
2	0	0	0	0	431	409	
3	0	0	0	0	434	404	
4	0	0	0	0	440	409	
5	0	0	0	0	447	409	
6	0	0	0	0	454	410	
7	0	0	0	0	460	415	
8	0	0	0	0	467	409	
9	0	0	0	0	473	409	
10	0	0	0	0	481	409	
11	0	0	0	0	488	404	
12	0	0	0	0	497	409	
13	0	0	0	0	508	409	
14	0	0	0	0	519	409	
15	0	0	0	0	531	413	
0	0	0	0	0	542	409	
1	0	0	0	0	553	409	
2	0	0	0	0	562	409	
3	0	0	0	0	570	404	
4	0	0	0	0	576	408	
5	0	0	0	0	583	409	
6	0	0	0	0	590	409	
7	0	0	0	0	595	414	
8	0	0	0	0	599	409	
9	0	0	0	0	600	409	
10	0	0	0	0	600	409	
11	0	0	0	0	600	404	
12	0	0	0	0	596	409	
13	0	0	0	0	591	409	
14	0	0	0	0	586	409	
15	0	0	0	0	581	414	
0	0	0	0	0	576	409	
1	0	0	0	0	572	410	
2	0	0	0	0	566	408	
3	0	0	0	0	561	404	
4	0	0	0	0	557	409	
5	0	0	0	0	552	409	
6	0	0	0	0	547	409	
7	0	0	0	0	542	414	
8	0	0	0	0	537	409	
9	0	0	0	0	532	409	
10	0	0	0	0	525	409	
11	0	0	0	0	519	404	
12	0	0	0	0	511	409	
13	0	0	0	0	505	410	
14	0	0	0	0	500	409	
15	0	0	0	0	496	414	
0	0	0	0	0	492	410	
1	0	0	0	0	489	409	
2	0	0	0	0	486	409	
3	0	0	0	0	483	404	
4	0	0	0	0	480	410	
5	0	0	0	0	479	409	
6	0	0	0	0	478	409	
7	0	0	0	0	478	415	
8	0	0	0	0	477	409	
9	0	0	0	0	478	410	
10	0	0	0	0	477	409	
11	0	0	0	0	477	404	
12	0	0	0	0	477	409	
13	0	0	0	0	476	409	
14	0	0	0	0	475	410	
15	0	0	0	0	475	414	
0	0	0	0	0	474	409	
1	0	0	0	0	473	409	
2	0	0	0	0	473	409	
3	0	0	0	0	474	404	
4	0	0	0	0	474	409	
5	0	0	0	0	475	409	
6	0	0	0	0	475	410	
7	0	0	0	0	475	415	
8	0	0	0	0	475	410	
9	0	0	0	0	475	410	
10	0	0	0	0	475	410	
11	0	0	0	0	477	405	
12	0	0	0	0	479	410	
13	0	0	0	0	480	409	
14	0	0	0	0	480	410	
15	0	0	0	0	479	415	
0	0	0	0	0	478	409	
1	0	0	0	0	477	409	
2	0	0	0	0	477	409	
3	0	0	0	0	476	404	
4	0	0	0	0	477	409	
5	0	0	0	0	478	409	
6	0	0	0	0	479	410	
7	0	0	0	0	480	414	
8	0	0	0	0	480	409	
9	0	0	0	0	480	409	
10	0	0	0	0	479	409	
11	0	0	0	0	479	404	
12	0	0	0	0	477	409	
13	0	0	0	0	476	410	
14	0	0	0	0	475	410	
15	0	0	0	0	474	415	
0	0	0	0	0	473	410	
1	0	0	0	0	473	410	
2	0	0	0	0	473	409	
3	0	0	0	0	473	404	
4	0	0	0	0	473	409	
5	0	0	0	0	474	409	
6	0	0	0	0	473	409	
7	0	0	0	0	473	414	
8	0	0	0	0	472	409	
9	0	0	0	0	471	410	
10	0	0	0	0	470	409	
11	0	0	0	0	470	404	
12	0	0	0	0	469	410	
13	0	0	0	0	469	410	
14	0	0	0	0	469	409	
15	0	0	0	0	469	414	
0	0	0	0	0	468	409	
1	0	0	0	0	468	409	
2	0	0	0	0	467	409	
3	0	0	0	0	466	404	
4	0	0	0	0	466	410	
5	0	0	0	0	466	409	
6	0	0	0	0	465	410	
7	0	0	0	0	465	414	
8	0	0	0	0	465	410	
9	0	0	0	0	466	410	
10	0	0	0	0	467	409	
11	0	0	0	0	467	404	
12	0	0	0	0	467	410	
13	0	0	0	0	466	410	
14	0	0	0	0	465	411	
15	0	0	0	0	463	415	
0	0	0	0	0	462	409	
1	0	0	0	0	462	410	
2	0	0	0	0	462	409	
3	0	0	0	0	463	405	
4	0	0	0	0	463	410	
5	0	0	0	0	463	410	
6	0	0	0	0	464	411	
7	0	0	0	0	464	415	
8	0	0	0	0	463	411	
9	0	0	0	0	462	411	
10	0	0	0	0	462	410	
11	0	0	0	0	461	404	
12	0	0	0	0	460	409	
13	0	0	0	0	460	410	
14	0	0	0	0	460	410	
15	0	0	0	0	460	414	
0	0	0	0	0	460	409	
1	0	0	0	0	460	409	
2	0	0	0	0	460	409	
3	0	0	0	0	458	404	
4	0	0	0	0	457	409	
5	0	0	0	0	457	409	
6	0	0	0	0	457	410	
7	0	0	0	0	457	414	
8	0	0	0	0	456	409	
9	0	0	0	0	456	409	
10	0	0	0	0	456	409	
11	0	0	0	0	455	404	
12	0	0	0	0	455	409	
13	0	0	0	0	454	409	
14	0	0	0	0	453	410	
15	0	0	0	0	452	414	
0	0	0	0	0	451	409	
1	0	0	0	0	451	410	
2	0	0	0	0	450	409	
3	0	0	0	0	449	405	
4	0	0	0	0	448	410	
5	0	0	0	0	448	409	
6	0	0	0	0	450	410	
7	0	0	0	0	451	415	
8	0	0	0	0	452	409	
9	0	0	0	0	453	410	
10	0	0	0	0	452	409	
11	0	0	0	0	451	404	
12	0	0	0	0	451	410	
13	0	0	0	0	451	409	
14	0	0	0	0	449	410	
15	0	0	0	0	449	415	
0	0	0	0	0	448	410	
1	0	0	0	0	449	410	
2	0	0	0	0	449	409	
3	0	0	0	0	449	405	
4	0	0	0	0	449	410	
5	0	0	0	0	448	410	
6	0	0	0	0	448	410	
7	0	0	0	0	448	415	
8	0	0	0	0	447	410	
9	0	0	0	0	445	410	
10	0	0	0	0	444	411	
11	0	0	0	0	441	406	
12	0	0	0	0	439	411	
13	0	0	0	0	437	411	
14	0	0	0	0	435	411	
15	0	0	0	0	434	414	
0	0	0	0	0	433	410	
1	0	0	0	0	430	410	
2	0	0	0	0	430	410	
3	0	0	0	0	430	405	
4	0	0	0	0	430	411	
5	0	0	0	0	431	411	
6	0	0	0	0	432	410	
7	0	0	0	0	432	415	
8	0	0	0	0	432	411	
9	0	0	0	0	432	410	
10	0	0	0	0	433	410	
11	0	0	0	0	433	405	
12	0	0	0	0	433	410	
13	0	0	0	0	432	410	
14	0	0	0	0	431	410	
15	0	0	0	0	431	415	
0	0	0	0	0	431	409	
1	0	0	0	0	431	410	
2	0	0	0	0	430	409	
3	0	0	0	0	430	405	
4	0	0	0	0	430	410	
5	0	0	0	0	430	410	
6	0	0	0	0	431	409	
7	0	0	0	0	431	414	
8	0	0	0	0	432	410	
9	0	0	0	0	432	409	
10	0	0	0	0	432	409	
11	0	0	0	0	434	404	
12	0	0	0	0	434	411	
13	0	0	0	0	434	410	
14	0	0	0	0	435	410	
15	0	0	0	0	435	415	
0	0	0	0	0	437	410	
1	0	0	0	0	437	410	
2	0	0	0	0	436	410	
3	0	0	0	0	436	405	
4	0	0	0	0	436	410	
5	0	0	0	0	435	410	
6	0	0	0	0	435	410	
7	0	0	0	0	437	415	
8	0	0	0	0	438	410	
9	0	0	0	0	438	410	
10	0	0	0	0	438	409	
11	0	0	0	0	439	404	
12	0	0	0	0	440	409	
13	0	0	0	0	440	410	
14	0	0	0	0	442	409	
15	0	0	0	0	444	414	
0	0	0	0	0	444	409	
1	0	0	0	0	443	409	
2	0	0	0	0	442	409	
3	0	0	0	0	441	404	
4	0	0	0	0	440	409	
5	0	0	0	0	440	409	
6	0	0	0	0	439	410	
7	0	0	0	0	438	414	
8	0	0	0	0	437	410	
9	0	0	0	0	438	409	
10	0	0	0	0	438	409	
11	0	0	0	0	438	405	
12	0	0	0	0	438	409	
13	0	0	0	0	438	410	
14	0	0	0	0	439	410	
15	0	0	0	0	440	414	
0	0	0	0	0	441	409	
1	0	0	0	0	442	409	
2	0	0	0	0	443	408	
3	0	0	0	0	444	404	
4	0	0	0	0	444	409	
5	0	0	0	0	444	410	
6	0	0	0	0	444	410	
7	0	0	0	0	445	414	
8	0	0	0	0	445	410	
9	0	0	0	0	444	409	
10	0	0	0	0	443	410	
11	0	0	0	0	442	405	
12	0	0	0	0	441	410	
13	0	0	0	0	439	410	
14	0	0	0	0	438	411	
15	0	0	0	0	437	415	
0	0	0	0	0	437	410	
1	0	0	0	0	436	410	
2	0	0	0	0	435	410	
3	0	0	0	0	433	404	
4	0	0	0	0	433	409	
5	0	0	0	0	433	409	
6	0	0	0	0	434	410	
7	0	0	0	0	435	415	
8	0	0	0	0	436	409	
9	0	0	0	0	437	410	
10	0	0	0	0	437	409	
11	0	0	0	0	437	404	
12	0	0	0	0	437	410	
13	0	0	0	0	437	410	
14	0	0	0	0	437	410	
15	0	0	0	0	437	415	
0	0	0	0	0	437	410	
1	0	0	0	0	436	410	
2	0	0	0	0	436	410	
3	0	0	0	0	436	405	
4	0	0	0	0	436	410	
5	0	0	0	0	437	410	
6	0	0	0	0	438	410	
7	0	0	0	0	438	414	
8	0	0	0	0	438	409	
9	0	0	0	0	436	409	
10	0	0	0	0	436	409	
11	0	0	0	0	434	404	
12	0	0	0	0	432	410	
13	0	0	0	0	431	410	
14	0	0	0	0	431	410	
15	0	0	0	0	431	415	
0	0	0	0	0	430	409	
1	0	0	0	0	430	409	
2	0	0	0	0	430	409	
3	0	0	0	0	428	405	
4	0	0	0	0	428	410	
5	0	0	0	0	427	409	
6	0	0	0	0	426	410	
7	0	0	0	0	425	414	
8	0	0	0	0	425	409	
9	0	0	0	0	425	409	
10	0	0	0	0	426	409	
11	0	0	0	0	427	404	
12	0	0	0	0	427	409	
13	0	0	0	0	427	409	
14	0	0	0	0	427	410	
15	0	0	0	0	427	414	
0	0	0	0	0	427	409	
1	0	0	0	0	425	409	
2	0	0	0	0	424	410	
3	0	0	0	0	423	404	
4	0	0	0	0	421	409	
5	0	0	0	0	420	409	
6	0	0	0	0	420	410	
7	0	0	0	0	419	415	
8	0	0	0	0	419	410	
9	0	0	0	0	419	410	
10	0	0	0	0	419	410	
11	0	0	0	0	419	404	
12	0	0	0	0	419	410	
13	0	0	0	0	419	410	
14	0	0	0	0	419	410	
15	0	0	0	0	419	415	
0	0	0	0	0	420	410	
1	0	0	0	0	420	410	
2	0	0	0	0	419	410	
3	0	0	0	0	419	404	
4	0	0	0	0	417	410	
5	0	0	0	0	416	410	
6	0	0	0	0	415	410	
7	0	0	0	0	415	415	
8	0	0	0	0	415	409	
9	0	0	0	0	414	410	
10	0	0	0	0	413	410	
11	0	0	0	0	412	404	
12	0	0	0	0	412	409	
13	0	0	0	0	411	409	
14	0	0	0	0	409	410	
15	0	0	0	0	410	415	
0	0	0	0	0	410	410	
1	0	0	0	0	410	410	
2	0	0	0	0	411	409	
3	0	0	0	0	411	404	
4	0	0	0	0	412	409	
5	0	0	0	0	413	409	
6	0	0	0	0	412	409	
7	0	0	0	0	412	414	
8	0	0	0	0	412	409	
9	0	0	0	0	412	409	
10	0	0	0	0	410	408	
11	0	0	0	0	409	404	
12	0	0	0	0	409	409	
13	0	0	0	0	409	409	
14	0	0	0	0	409	408	
15	0	0	0	0	409	414	
0	0	0	0	0	409	408	
1	0	0	0	0	409	409	
2	0	0	0	0	409	409	
3	0	0	0	0	411	404	
4	0	0	0	0	412	408	
5	0	0	0	0	413	409	
6	0	0	0	0	414	409	
7	0	0	0	0	415	414	
8	0	0	0	0	415	408	
9	0	0	0	0	415	408	
10	0	0	0	0	416	409	
11	0	0	0	0	416	404	
12	0	0	0	0	415	409	
13	0	0	0	0	414	409	
14	0	0	0	0	414	410	
15	0	0	0	0	414	415	
0	0	0	0	0	415	409	
1	0	0	0	0	415	409	
2	0	0	0	0	415	409	
3	0	0	0	0	415	404	
4	0	0	0	0	416	409	
5	0	0	0	0	416	409	
6	0	0	0	0	417	410	
7	0	0	0	0	417	414	
8	0	0	0	0	417	409	
9	0	0	0	0	417	409	
10	0	0	0	0	419	409	
11	0	0	0	0	419	404	
12	0	0	0	0	420	409	
13	0	0	0	0	420	409	
14	0	0	0	0	421	409	
15	0	0	0	0	420	414	
0	0	0	0	0	420	410	
1	0	0	0	0	420	410	
2	0	0	0	0	419	411	
3	0	0	0	0	418	406	
4	0	0	0	0	416	411	
5	0	0	0	0	415	412	
6	0	0	0	0	415	412	
7	0	0	0	0	414	417	
8	0	0	0	0	414	412	
9	0	0	0	0	412	413	
10	0	0	0	0	412	412	
11	0	0	0	0	412	407	
12	0	0	0	0	412	412	
13	0	0	0	0	413	412	
14	0	0	0	0	414	411	
15	0	0	0	0	414	415	
0	0	0	0	0	415	411	
1	0	0	0	0	416	410	
2	0	0	0	0	416	410	
3	0	0	0	0	415	405	
4	0	0	0	0	413	411	
5	0	0	0	0	411	410	
6	0	0	0	0	410	410	
7	0	0	0	0	407	415	
8	0	0	0	0	404	409	
9	0	0	0	0	403	410	
10	0	0	0	0	402	409	
11	0	0	0	0	401	404	
12	0	0	0	0	401	409	
13	0	0	0	0	402	410	
14	0	0	0	0	402	411	
15	0	0	0	0	403	415	
0	0	0	0	0	403	410	
1	0	0	0	0	403	411	
2	0	0	0	0	405	410	
3	0	0	0	0	405	405	
4	0	0	0	0	405	410	
5	0	0	0	0	404	409	
6	0	0	0	0	404	409	
7	0	0	0	0	403	414	
8	0	0	0	0	403	409	
9	0	0	0	0	402	410	
10	0	0	0	0	401	409	
11	0	0	0	0	401	404	
12	0	0	0	0	402	409	
13	0	0	0	0	403	410	
14	0	0	0	0	403	410	
15	0	0	0	0	403	414	
0	0	0	0	0	403	410	
1	0	0	0	0	402	410	
2	0	0	0	0	403	410	
3	0	0	0	0	402	405	
4	0	0	0	0	402	410	
5	0	0	0	0	402	410	
6	0	0	0	0	403	409	
7	0	0	0	0	404	414	
8	0	0	0	0	405	409	
9	0	0	0	0	404	409	
10	0	0	0	0	404	408	
11	0	0	0	0	404	404	
12	0	0	0	0	405	409	
13	0	0	0	0	405	409	
14	0	0	0	0	406	409	
15	0	0	0	0	406	415	
0	0	0	0	0	406	410	
1	0	0	0	0	406	409	
2	0	0	0	0	407	410	
3	0	0	0	0	409	405	
4	0	0	0	0	411	410	
5	0	0	0	0	412	409	
6	0	0	0	0	412	410	
7	0	0	0	0	413	415	
8	0	0	0	0	413	409	
9	0	0	0	0	414	409	
10	0	0	0	0	414	409	
11	0	0	0	0	413	404	
12	0	0	0	0	412	409	
13	0	0	0	0	412	409	
14	0	0	0	0	412	409	
15	0	0	0	0	413	414	
0	0	0	0	0	413	409	
1	0	0	0	0	414	409	
2	0	0	0	0	414	409	
3	0	0	0	0	415	403	
4	0	0	0	0	416	409	
5	0	0	0	0	417	409	
6	0	0	0	0	417	409	
7	0	0	0	0	418	414	
8	0	0	0	0	417	409	
9	0	0	0	0	416	410	
10	0	0	0	0	415	410	
11	0	0	0	0	413	405	
12	0	0	0	0	412	410	
13	0	0	0	0	412	411	
14	0	0	0	0	411	411	
15	0	0	0	0	410	415	
0	0	0	0	0	408	410	
1	0	0	0	0	407	411	
2	0	0	0	0	406	409	
3	0	0	0	0	405	405	
4	0	0	0	0	405	410	
5	0	0	0	0	405	410	
6	0	0	0	0	405	410	
7	0	0	0	0	405	415	
8	0	0	0	0	404	411	
9	0	0	0	0	403	411	
10	0	0	0	0	404	410	
11	0	0	0	0	404	406	
12	0	0	0	0	404	410	
13	0	0	0	0	404	410	
14	0	0	0	0	406	410	
15	0	0	0	0	405	415	
0	0	0	0	0	406	410	
1	0	0	0	0	406	409	
2	0	0	0	0	406	409	
3	0	0	0	0	406	404	
4	0	0	0	0	406	409	
5	0	0	0	0	406	409	
6	0	0	0	0	407	409	
7	0	0	0	0	408	414	
8	0	0	0	0	407	409	
9	0	0	0	0	407	409	
10	0	0	0	0	408	409	
11	0	0	0	0	408	405	
12	0	0	0	0	407	410	
13	0	0	0	0	407	410	
14	0	0	0	0	407	410	
15	0	0	0	0	408	415	
0	0	0	0	0	409	411	
1	0	0	0	0	410	411	
2	0	0	0	0	411	411	
3	0	0	0	0	411	406	
4	0	0	0	0	412	411	
5	0	0	0	0	414	411	
6	0	0	0	0	416	411	
7	0	0	0	0	417	415	
8	0	0	0	0	419	409	
9	0	0	0	0	420	410	
10	0	0	0	0	421	410	
11	0	0	0	0	422	405	
12	0	0	0	0	423	409	
13	0	0	0	0	424	410	
14	0	0	0	0	425	409	
15	0	0	0	0	424	414	
0	0	0	0	0	424	409	
1	0	0	0	0	423	409	
2	0	0	0	0	422	409	
3	0	0	0	0	420	404	
4	0	0	0	0	417	410	
5	0	0	0	0	415	409	
6	0	0	0	0	413	410	
7	0	0	0	0	411	414	
8	0	0	0	0	411	409	
9	0	0	0	0	411	410	
10	0	0	0	0	412	409	
11	0	0	0	0	412	403	
12	0	0	0	0	412	409	
13	0	0	0	0	412	409	
14	0	0	0	0	412	409	
15	0	0	0	0	411	414	
0	0	0	0	0	411	409	
1	0	0	0	0	411	409	
2	0	0	0	0	412	409	
3	0	0	0	0	411	404	
4	0	0	0	0	411	409	
5	0	0	0	0	411	409	
6	0	0	0	0	411	409	
7	0	0	0	0	411	414	
8	0	0	0	0	410	409	
9	0	0	0	0	409	409	
10	0	0	0	0	408	409	
11	0	0	0	0	408	405	
12	0	0	0	0	407	409	
13	0	0	0	0	407	409	
14	0	0	0	0	407	409	
15	0	0	0	0	406	414	
0	0	0	0	0	407	409	
1	0	0	0	0	408	409	
2	0	0	0	0	408	409	
3	0	0	0	0	409	404	
4	0	0	0	0	408	409	
5	0	0	0	0	408	409	
6	0	0	0	0	407	409	
7	0	0	0	0	406	414	
8	0	0	0	0	405	409	
9	0	0	0	0	404	409	
10	0	0	0	0	403	409	
11	0	0	0	0	403	404	
12	0	0	0	0	402	409	
13	0	0	0	0	402	410	
14	0	0	0	0	401	410	
15	0	0	0	0	399	414	
0	0	0	0	0	399	410	
1	0	0	0	0	399	409	
2	0	0	0	0	400	410	
3	0	0	0	0	401	404	
4	0	0	0	0	400	410	
5	0	0	0	0	399	410	
6	0	0	0	0	399	410	
7	0	0	0	0	400	415	
8	0	0	0	0	400	410	
9	0	0	0	0	400	409	
10	0	0	0	0	401	409	
11	0	0	0	0	401	404	
12	0	0	0	0	401	409	
13	0	0	0	0	400	410	
14	0	0	0	0	399	409	
15	0	0	0	0	400	414	
0	0	0	0	0	400	409	
1	0	0	0	0	400	409	
2	0	0	0	0	400	409	
3	0	0	0	0	400	404	
4	0	0	0	0	399	409	
5	0	0	0	0	400	409	
6	0	0	0	0	401	410	
7	0	0	0	0	402	414	
8	0	0	0	0	402	410	
9	0	0	0	0	401	409	
10	0	0	0	0	401	409	
11	0	0	0	0	400	404	
12	0	0	0	0	399	409	
13	0	0	0	0	399	410	
14	0	0	0	0	399	410	
15	0	0	0	0	399	415	
0	0	0	0	0	399	409	
1	0	0	0	0	400	410	
2	0	0	0	0	401	410	
3	0	0	0	0	403	405	
4	0	0	0	0	406	411	
5	0	0	0	0	408	410	
6	0	0	0	0	409	410	
7	0	0	0	0	408	414	
8	0	0	0	0	408	410	
9	0	0	0	0	408	411	
10	0	0	0	0	409	410	
11	0	0	0	0	410	405	
12	0	0	0	0	412	410	
13	0	0	0	0	413	409	
14	0	0	0	0	415	410	
15	0	0	0	0	415	414	
0	0	0	0	0	415	409	
1	0	0	0	0	414	409	
2	0	0	0	0	415	409	
3	0	0	0	0	416	405	
4	0	0	0	0	417	410	
5	0	0	0	0	416	410	
6	0	0	0	0	415	410	
7	0	0	0	0	415	415	
8	0	0	0	0	414	409	
9	0	0	0	0	415	409	
10	0	0	0	0	414	409	
11	0	0	0	0	413	405	
12	0	0	0	0	412	410	
13	0	0	0	0	412	410	
14	0	0	0	0	413	411	
15	0	0	0	0	413	415	
0	0	0	0	0	413	410	
1	0	0	0	0	413	410	
2	0	0	0	0	412	410	
3	0	0	0	0	413	406	
4	0	0	0	0	412	410	
5	0	0	0	0	412	410	
6	0	0	0	0	414	410	
7	0	0	0	0	414	415	
8	0	0	0	0	415	412	
9	0	0	0	0	416	411	
10	0	0	0	0	416	411	
11	0	0	0	0	417	406	
12	0	0	0	0	416	412	
13	0	0	0	0	418	411	
14	0	0	0	0	419	412	
15	0	0	0	0	420	416	
0	0	0	0	0	422	411	
1	0	0	0	0	423	411	
2	0	0	0	0	425	411	
3	0	0	0	0	428	406	
4	0	0	0	0	430	412	
5	0	0	0	0	432	412	
6	0	0	0	0	435	412	
7	0	0	0	0	438	416	
8	0	0	0	0	440	412	
9	0	0	0	0	441	412	
10	0	0	0	0	443	411	
11	0	0	0	0	445	406	
12	0	0	0	0	446	411	
13	0	0	0	0	446	411	
14	0	0	0	0	446	410	
15	0	0	0	0	446	415	
0	0	0	0	0	446	410	
1	0	0	0	0	445	410	
2	0	0	0	0	445	410	
3	0	0	0	0	447	405	
4	0	0	0	0	449	410	
5	0	0	0	0	451	411	
6	0	0	0	0	452	411	
7	0	0	0	0	453	415	
8	0	0	0	0	454	411	
9	0	0	0	0	453	411	
10	0	0	0	0	454	411	
11	0	0	0	0	454	406	
12	0	0	0	0	454	411	
13	0	0	0	0	453	411	
14	0	0	0	0	454	410	
15	0	0	0	0	454	414	
0	0	0	0	0	454	409	
1	0	0	0	0	455	410	
2	0	0	0	0	454	408	
3	0	0	0	0	454	403	
4	0	0	0	0	452	408	
5	0	0	0	0	451	409	
6	0	0	0	0	450	408	
7	0	0	0	0	448	413	
8	0	0	0	0	446	408	
9	0	0	0	0	446	409	
10	0	0	0	0	446	408	
11	0	0	0	0	446	403	
12	0	0	0	0	445	409	
13	0	0	0	0	445	408	
14	0	0	0	0	444	409	
15	0	0	0	0	444	414	
0	0	0	0	0	445	409	
1	0	0	0	0	445	409	
2	0	0	0	0	444	409	
3	0	0	0	0	444	404	
4	0	0	0	0	444	408	
5	0	0	0	0	445	409	
6	0	0	0	0	446	409	
7	0	0	0	0	446	414	
8	0	0	0	0	447	408	
9	0	0	0	0	447	408	
10	0	0	0	0	446	408	
11	0	0	0	0	446	403	
12	0	0	0	0	446	409	
13	0	0	0	0	448	408	
14	0	0	0	0	449	408	
15	0	0	0	0	451	413	
0	0	0	0	0	452	408	
1	0	0	0	0	455	408	
2	0	0	0	0	456	408	
3	0	0	0	0	456	403	
4	0	0	0	0	455	408	
5	0	0	0	0	457	408	
6	0	0	0	0	459	408	
7	0	0	0	0	460	412	
8	0	0	0	0	461	408	
9	0	0	0	0	461	407	
10	0	0	0	0	461	408	
11	0	0	0	0	460	403	
12	0	0	0	0	460	408	
13	0	0	0	0	460	408	
14	0	0	0	0	460	408	
15	0	0	0	0	461	413	
0	0	0	0	0	459	408	
1	0	0	0	0	458	408	
2	0	0	0	0	457	408	
3	0	0	0	0	455	402	
4	0	0	0	0	457	407	
5	0	0	0	0	458	407	
6	0	0	0	0	458	407	
7	0	0	0	0	457	412	
8	0	0	0	0	457	408	
9	0	0	0	0	456	408	
10	0	0	0	0	455	407	
11	0	0	0	0	453	403	
12	0	0	0	0	450	407	
13	0	0	0	0	446	408	
14	0	0	0	0	441	408	
15	0	0	0	0	436	412	
0	0	0	0	0	432	408	
1	0	0	0	0	427	408	
2	0	0	0	0	423	409	
3	0	0	0	0	419	403	
4	0	0	0	0	415	409	
5	0	0	0	0	409	408	
6	0	0	0	0	404	409	
7	0	0	0	0	400	414	
8	0	0	0	0	397	409	
9	0	0	0	0	394	409	
10	0	0	0	0	392	409	
11	0	0	0	0	392	404	
12	0	0	0	0	394	409	
13	0	0	0	0	397	410	
14	0	0	0	0	400	409	
15	0	0	0	0	406	415	
0	0	0	0	0	412	409	
1	0	0	0	0	419	409	
2	0	0	0	0	428	409	
3	0	0	0	0	439	404	
4	0	0	0	0	449	409	
5	0	0	0	0	459	410	
6	0	0	0	0	469	411	
7	0	0	0	0	481	414	
8	0	0	0	0	491	410	
9	0	0	0	0	501	410	
10	0	0	0	0	512	409	
11	0	0	0	0	524	404	
12	0	0	0	0	534	409	
13	0	0	0	0	544	409	
14	0	0	0	0	555	410	
15	0	0	0	0	565	414	
0	0	0	0	0	575	409	
1	0	0	0	0	584	408	
2	0	0	0	0	591	408	
3	0	0	0	0	598	403	
4	0	0	0	0	603	409	
5	0	0	0	0	607	409	
6	0	0	0	0	606	408	
7	0	0	0	0	603	414	
8	0	0	0	0	600	408	
9	0	0	0	0	593	409	
10	0	0	0	0	587	408	
11	0	0	0	0	582	403	
12	0	0	0	0	576	408	
13	0	0	0	0	571	409	
14	0	0	0	0	564	409	
15	0	0	0	0	557	413	
0	0	0	0	0	549	409	
1	0	0	0	0	542	408	
2	0	0	0	0	535	408	
3	0	0	0	0	528	402	
4	0	0	0	0	521	408	
5	0	0	0	0	514	408	
6	0	0	0	0	508	408	
7	0	0	0	0	503	414	
8	0	0	0	0	497	408	
9	0	0	0	0	493	409	
10	0	0	0	0	489	408	
11	0	0	0	0	487	403	
12	0	0	0	0	483	409	
13	0	0	0	0	480	409	
14	0	0	0	0	477	408	
15	0	0	0	0	474	413	
0	0	0	0	0	471	408	
1	0	0	0	0	468	408	
2	0	0	0	0	467	408	
3	0	0	0	0	466	403	
4	0	0	0	0	464	408	
5	0	0	0	0	463	408	
6	0	0	0	0	463	408	
7	0	0	0	0	464	413	
8	0	0	0	0	466	408	
9	0	0	0	0	468	408	
10	0	0	0	0	468	408	
11	0	0	0	0	468	403	
12	0	0	0	0	467	409	
13	0	0	0	0	467	409	
14	0	0	0	0	466	409	
15	0	0	0	0	465	413	
0	0	0	0	0	464	409	
1	0	0	0	0	463	409	
2	0	0	0	0	464	408	
3	0	0	0	0	467	404	
4	0	0	0	0	469	409	
5	0	0	0	0	470	409	
6	0	0	0	0	471	409	
7	0	0	0	0	472	414	
8	0	0	0	0	472	409	
9	0	0	0	0	472	409	
10	0	0	0	0	472	409	
11	0	0	0	0	472	404	
12	0	0	0	0	472	410	
13	0	0	0	0	472	411	
14	0	0	0	0	472	411	
15	0	0	0	0	472	415	
0	0	0	0	0	471	411	
1	0	0	0	0	470	410	
2	0	0	0	0	470	409	
3	0	0	0	0	469	404	
4	0	0	0	0	468	410	
5	0	0	0	0	468	411	
6	0	0	0	0	470	411	
7	0	0	0	0	470	415	
8	0	0	0	0	472	410	
9	0	0	0	0	472	410	
10	0	0	0	0	473	409	
11	0	0	0	0	476	404	
12	0	0	0	0	477	409	
13	0	0	0	0	478	410	
14	0	0	0	0	479	410	
15	0	0	0	0	480	415	
0	0	0	0	0	479	410	
1	0	0	0	0	478	411	
2	0	0	0	0	477	410	
3	0	0	0	0	476	405	
4	0	0	0	0	476	410	
5	0	0	0	0	475	410	
6	0	0	0	0	474	409	
7	0	0	0	0	472	415	
8	0	0	0	0	473	410	
9	0	0	0	0	473	410	
10	0	0	0	0	474	410	
11	0	0	0	0	474	404	
12	0	0	0	0	476	409	
13	0	0	0	0	478	410	
14	0	0	0	0	478	409	
15	0	0	0	0	477	414	
0	0	0	0	0	476	410	
1	0	0	0	0	475	410	
2	0	0	0	0	475	409	
3	0	0	0	0	476	404	
4	0	0	0	0	476	409	
5	0	0	0	0	478	410	
6	0	0	0	0	478	410	
7	0	0	0	0	478	414	
8	0	0	0	0	477	409	
9	0	0	0	0	479	409	
10	0	0	0	0	480	409	
11	0	0	0	0	481	404	
12	0	0	0	0	483	408	
13	0	0	0	0	484	408	
14	0	0	0	0	484	408	
15	0	0	0	0	484	412	
0	0	0	0	0	484	408	
1	0	0	0	0	484	408	
2	0	0	0	0	485	408	
3	0	0	0	0	486	403	
4	0	0	0	0	486	409	
5	0	0	0	0	486	408	
6	0	0	0	0	486	408	
7	0	0	0	0	486	412	
8	0	0	0	0	485	408	
9	0	0	0	0	483	409	
10	0	0	0	0	481	408	
11	0	0	0	0	478	403	
12	0	0	0	0	474	409	
13	0	0	0	0	471	409	
14	0	0	0	0	468	409	
15	0	0	0	0	467	414	
0	0	0	0	0	468	408	
1	0	0	0	0	468	408	
2	0	0	0	0	468	408	
3	0	0	0	0	468	403	
4	0	0	0	0	467	409	
5	0	0	0	0	469	409	
6	0	0	0	0	469	409	
7	0	0	0	0	470	413	
8	0	0	0	0	469	409	
9	0	0	0	0	467	409	
10	0	0	0	0	466	409	
11	0	0	0	0	466	404	
12	0	0	0	0	465	409	
13	0	0	0	0	465	409	
14	0	0	0	0	464	409	
15	0	0	0	0	464	415	
0	0	0	0	0	464	410	
1	0	0	0	0	465	410	
2	0	0	0	0	464	410	
3	0	0	0	0	464	405	
4	0	0	0	0	464	410	
5	0	0	0	0	463	410	
6	0	0	0	0	463	410	
7	0	0	0	0	463	414	
8	0	0	0	0	465	409	
9	0	0	0	0	465	409	
10	0	0	0	0	464	409	
11	0	0	0	0	466	403	
12	0	0	0	0	466	409	
13	0	0	0	0	466	410	
14	0	0	0	0	466	409	
15	0	0	0	0	466	414	
0	0	0	0	0	467	410	
1	0	0	0	0	467	410	
2	0	0	0	0	468	410	
3	0	0	0	0	470	406	
4	0	0	0	0	471	411	
5	0	0	0	0	472	411	
6	0	0	0	0	474	411	
7	0	0	0	0	474	415	
8	0	0	0	0	475	410	
9	0	0	0	0	477	411	
10	0	0	0	0	479	410	
11	0	0	0	0	480	405	
12	0	0	0	0	480	410	
13	0	0	0	0	481	410	
14	0	0	0	0	482	410	
15	0	0	0	0	481	415	
0	0	0	0	0	483	411	
1	0	0	0	0	483	410	
2	0	0	0	0	483	411	
3	0	0	0	0	484	404	
4	0	0	0	0	485	410	
5	0	0	0	0	486	409	
6	0	0	0	0	486	409	
7	0	0	0	0	485	414	
8	0	0	0	0	483	409	
9	0	0	0	0	481	409	
10	0	0	0	0	482	409	
11	0	0	0	0	484	406	
12	0	0	0	0	485	411	
13	0	0	0	0	486	411	
14	0	0	0	0	487	411	
15	0	0	0	0	486	416	
0	0	0	0	0	487	412	
1	0	0	0	0	486	412	
2	0	0	0	0	484	411	
3	0	0	0	0	484	406	
4	0	0	0	0	484	411	
5	0	0	0	0	486	410	
6	0	0	0	0	487	411	
7	0	0	0	0	487	415	
8	0	0	0	0	489	411	
9	0	0	0	0	489	411	
10	0	0	0	0	490	410	
11	0	0	0	0	492	405	
12	0	0	0	0	492	411	
13	0	0	0	0	492	410	
14	0	0	0	0	492	409	
15	0	0	0	0	493	415	
0	0	0	0	0	494	409	
1	0	0	0	0	493	410	
2	0	0	0	0	494	410	
3	0	0	0	0	495	404	
4	0	0	0	0	495	409	
5	0	0	0	0	495	409	
6	0	0	0	0	494	410	
7	0	0	0	0	492	414	
8	0	0	0	0	494	409	
9	0	0	0	0	495	409	
10	0	0	0	0	497	409	
11	0	0	0	0	497	404	
12	0	0	0	0	496	409	
13	0	0	0	0	494	409	
14	0	0	0	0	493	409	
15	0	0	0	0	492	414	
0	0	0	0	0	492	408	
1	0	0	0	0	492	408	
2	0	0	0	0	493	408	
3	0	0	0	0	494	403	
4	0	0	0	0	494	408	
5	0	0	0	0	494	408	
6	0	0	0	0	496	408	
7	0	0	0	0	498	413	
8	0	0	0	0	498	408	
9	0	0	0	0	498	408	
10	0	0	0	0	498	407	
11	0	0	0	0	499	403	
12	0	0	0	0	500	408	
13	0	0	0	0	500	408	
14	0	0	0	0	501	409	
15	0	0	0	0	500	414	
0	0	0	0	0	501	409	
1	0	0	0	0	502	409	
2	0	0	0	0	504	409	
3	0	0	0	0	505	404	
4	0	0	0	0	508	409	
5	0	0	0	0	508	409	
6	0	0	0	0	507	409	
7	0	0	0	0	507	414	
8	0	0	0	0	506	409	
9	0	0	0	0	504	409	
10	0	0	0	0	503	409	
11	0	0	0	0	501	404	
12	0	0	0	0	503	409	
13	0	0	0	0	503	409	
14	0	0	0	0	502	409	
15	0	0	0	0	502	414	
0	0	0	0	0	502	409	
1	0	0	0	0	504	408	
2	0	0	0	0	507	408	
3	0	0	0	0	510	403	
4	0	0	0	0	511	410	
5	0	0	0	0	511	409	
6	0	0	0	0	510	408	
7	0	0	0	0	510	413	
8	0	0	0	0	509	407	
9	0	0	0	0	508	407	
10	0	0	0	0	510	407	
11	0	0	0	0	511	402	
12	0	0	0	0	511	408	
13	0	0	0	0	511	408	
14	0	0	0	0	511	408	
15	0	0	0	0	513	413	
0	0	0	0	0	513	409	
1	0	0	0	0	513	409	
2	0	0	0	0	514	408	
3	0	0	0	0	515	403	
4	0	0	0	0	515	408	
5	0	0	0	0	515	408	
6	0	0	0	0	515	408	
7	0	0	0	0	515	412	
8	0	0	0	0	516	408	
9	0	0	0	0	516	407	
10	0	0	0	0	517	407	
11	0	0	0	0	518	402	
12	0	0	0	0	519	407	
13	0	0	0	0	519	408	
14	0	0	0	0	519	408	
15	0	0	0	0	521	412	
0	0	0	0	0	521	408	
1	0	0	0	0	519	408	
2	0	0	0	0	518	408	
3	0	0	0	0	517	403	
4	0	0	0	0	516	408	
5	0	0	0	0	518	408	
6	0	0	0	0	520	408	
7	0	0	0	0	521	413	
8	0	0	0	0	522	408	
9	0	0	0	0	522	408	
10	0	0	0	0	521	407	
11	0	0	0	0	520	403	
12	0	0	0	0	521	408	
13	0	0	0	0	520	408	
14	0	0	0	0	519	408	
15	0	0	0	0	519	413	
0	0	0	0	0	519	409	
1	0	0	0	0	519	409	
2	0	0	0	0	519	409	
3	0	0	0	0	519	404	
4	0	0	0	0	519	409	
5	0	0	0	0	521	409	
6	0	0	0	0	521	410	
7	0	0	0	0	519	414	
8	0	0	0	0	519	409	
9	0	0	0	0	519	410	
10	0	0	0	0	519	409	
11	0	0	0	0	520	405	
12	0	0	0	0	521	409	
13	0	0	0	0	522	409	
14	0	0	0	0	522	410	
15	0	0	0	0	521	414	
0	0	0	0	0	521	410	
1	0	0	0	0	520	411	
2	0	0	0	0	520	410	
3	0	0	0	0	522	406	
4	0	0	0	0	523	411	
5	0	0	0	0	523	411	
6	0	0	0	0	520	411	
7	0	0	0	0	518	415	
8	0	0	0	0	516	410	
9	0	0	0	0	516	410	
10	0	0	0	0	517	410	
11	0	0	0	0	517	405	
12	0	0	0	0	517	410	
13	0	0	0	0	518	411	
14	0	0	0	0	519	410	
15	0	0	0	0	520	415	
0	0	0	0	0	521	410	
1	0	0	0	0	523	411	
2	0	0	0	0	525	410	
3	0	0	0	0	527	405	
4	0	0	0	0	527	411	
5	0	0	0	0	526	411	
6	0	0	0	0	527	411	
7	0	0	0	0	526	415	
8	0	0	0	0	526	410	
9	0	0	0	0	526	410	
10	0	0	0	0	526	410	
11	0	0	0	0	529	405	
12	0	0	0	0	531	411	
13	0	0	0	0	531	411	
14	0	0	0	0	531	410	
15	0	0	0	0	532	415	
0	0	0	0	0	532	410	
1	0	0	0	0	530	410	
2	0	0	0	0	530	409	
3	0	0	0	0	529	404	
4	0	0	0	0	528	410	
5	0	0	0	0	527	410	
6	0	0	0	0	527	409	
7	0	0	0	0	528	415	
8	0	0	0	0	529	409	
9	0	0	0	0	529	409	
10	0	0	0	0	528	409	
11	0	0	0	0	528	403	
12	0	0	0	0	529	409	
13	0	0	0	0	531	409	
14	0	0	0	0	531	409	
15	0	0	0	0	532	414	
0	0	0	0	0	531	409	
1	0	0	0	0	531	408	
2	0	0	0	0	532	408	
3	0	0	0	0	532	403	
4	0	0	0	0	532	408	
5	0	0	0	0	533	408	
6	0	0	0	0	532	409	
7	0	0	0	0	532	413	
8	0	0	0	0	533	408	
9	0	0	0	0	533	408	
10	0	0	0	0	533	408	
11	0	0	0	0	533	402	
12	0	0	0	0	532	407	
13	0	0	0	0	532	407	
14	0	0	0	0	532	407	
15	0	0	0	0	532	412	
0	0	0	0	0	533	407	
1	0	0	0	0	534	407	
2	0	0	0	0	535	407	
3	0	0	0	0	536	402	
4	0	0	0	0	537	408	
5	0	0	0	0	539	408	
6	0	0	0	0	540	407	
7	0	0	0	0	541	412	
8	0	0	0	0	541	407	
9	0	0	0	0	541	408	
10	0	0	0	0	541	408	
11	0	0	0	0	541	404	
12	0	0	0	0	540	408	
13	0	0	0	0	539	409	
14	0	0	0	0	539	409	
15	0	0	0	0	540	414	
0	0	0	0	0	541	408	
1	0	0	0	0	541	408	
2	0	0	0	0	541	409	
3	0	0	0	0	542	404	
4	0	0	0	0	542	409	
5	0	0	0	0	542	409	
6	0	0	0	0	542	409	
7	0	0	0	0	541	413	
8	0	0	0	0	541	408	
9	0	0	0	0	540	409	
10	0	0	0	0	540	409	
11	0	0	0	0	540	403	
12	0	0	0	0	540	410	
13	0	0	0	0	541	409	
14	0	0	0	0	540	410	
15	0	0	0	0	540	414	
0	0	0	0	0	540	409	
1	0	0	0	0	540	409	
2	0	0	0	0	539	409	
3	0	0	0	0	537	404	
4	0	0	0	0	537	410	
5	0	0	0	0	536	410	
6	0	0	0	0	536	409	
7	0	0	0	0	535	415	
8	0	0	0	0	534	410	
9	0	0	0	0	534	410	
10	0	0	0	0	533	409	
11	0	0	0	0	532	404	
12	0	0	0	0	532	410	
13	0	0	0	0	533	410	
14	0	0	0	0	532	409	
15	0	0	0	0	533	414	
0	0	0	0	0	533	409	
1	0	0	0	0	534	410	
2	0	0	0	0	534	409	
3	0	0	0	0	534	405	
4	0	0	0	0	533	410	
5	0	0	0	0	531	411	
6	0	0	0	0	530	411	
7	0	0	0	0	529	415	
8	0	0	0	0	528	410	
9	0	0	0	0	527	410	
10	0	0	0	0	527	409	
11	0	0	0	0	527	404	
12	0	0	0	0	526	409	
13	0	0	0	0	527	410	
14	0	0	0	0	527	410	
15	0	0	0	0	526	415	
0	0	0	0	0	526	410	
1	0	0	0	0	526	410	
2	0	0	0	0	526	410	
3	0	0	0	0	526	405	
4	0	0	0	0	526	410	
5	0	0	0	0	526	411	
6	0	0	0	0	527	411	
7	0	0	0	0	527	415	
8	0	0	0	0	528	410	
9	0	0	0	0	529	410	
10	0	0	0	0	529	410	
11	0	0	0	0	530	404	
12	0	0	0	0	531	410	
13	0	0	0	0	530	410	
14	0	0	0	0	529	410	
15	0	0	0	0	529	415	
0	0	0	0	0	528	410	
1	0	0	0	0	527	410	
2	0	0	0	0	528	410	
3	0	0	0	0	527	404	
4	0	0	0	0	527	410	
5	0	0	0	0	526	410	
6	0	0	0	0	526	410	
7	0	0	0	0	526	414	
8	0	0	0	0	525	410	
9	0	0	0	0	525	410	
10	0	0	0	0	525	410	
11	0	0	0	0	524	404	
12	0	0	0	0	524	410	
13	0	0	0	0	524	409	
14	0	0	0	0	524	409	
15	0	0	0	0	524	414	
0	0	0	0	0	524	409	
1	0	0	0	0	524	410	
2	0	0	0	0	524	409	
3	0	0	0	0	524	404	
4	0	0	0	0	523	409	
5	0	0	0	0	523	408	
6	0	0	0	0	522	408	
7	0	0	0	0	521	412	
8	0	0	0	0	520	407	
9	0	0	0	0	518	407	
10	0	0	0	0	516	407	
11	0	0	0	0	516	402	
12	0	0	0	0	516	407	
13	0	0	0	0	516	407	
14	0	0	0	0	514	408	
15	0	0	0	0	514	412	
0	0	0	0	0	514	407	
1	0	0	0	0	513	407	
2	0	0	0	0	513	407	
3	0	0	0	0	512	402	
4	0	0	0	0	512	407	
5	0	0	0	0	512	407	
6	0	0	0	0	511	408	
7	0	0	0	0	511	413	
8	0	0	0	0	510	408	
9	0	0	0	0	507	408	
10	0	0	0	0	505	407	
11	0	0	0	0	503	401	
12	0	0	0	0	503	407	
13	0	0	0	0	502	408	
14	0	0	0	0	502	407	
15	0	0	0	0	502	412	
0	0	0	0	0	501	408	
1	0	0	0	0	502	409	
2	0	0	0	0	502	408	
3	0	0	0	0	503	403	
4	0	0	0	0	502	409	
5	0	0	0	0	503	409	
6	0	0	0	0	504	409	
7	0	0	0	0	505	414	
8	0	0	0	0	505	409	
9	0	0	0	0	504	409	
10	0	0	0	0	504	409	
11	0	0	0	0	504	405	
12	0	0	0	0	503	410	
13	0	0	0	0	502	410	
14	0	0	0	0	500	411	
15	0	0	0	0	500	415	
0	0	0	0	0	500	411	
1	0	0	0	0	499	411	
2	0	0	0	0	497	410	
3	0	0	0	0	496	405	
4	0	0	0	0	495	410	
5	0	0	0	0	495	410	
6	0	0	0	0	494	411	
7	0	0	0	0	493	415	
8	0	0	0	0	491	410	
9	0	0	0	0	490	411	
10	0	0	0	0	490	411	
11	0	0	0	0	489	406	
12	0	0	0	0	489	411	
13	0	0	0	0	489	412	
14	0	0	0	0	489	412	
15	0	0	0	0	489	416	
0	0	0	0	0	489	412	
1	0	0	0	0	487	412	
2	0	0	0	0	485	412	
3	0	0	0	0	483	407	
4	0	0	0	0	483	412	
5	0	0	0	0	483	412	
6	0	0	0	0	483	412	
7	0	0	0	0	483	416	
8	0	0	0	0	482	412	
9	0	0	0	0	482	411	
10	0	0	0	0	481	411	
11	0	0	0	0	480	405	
12	0	0	0	0	480	411	
13	0	0	0	0	478	411	
14	0	0	0	0	476	411	
15	0	0	0	0	475	415	
0	0	0	0	0	473	410	
1	0	0	0	0	473	411	
2	0	0	0	0	472	411	
3	0	0	0	0	471	405	
4	0	0	0	0	470	411	
5	0	0	0	0	469	411	
6	0	0	0	0	470	411	
7	0	0	0	0	472	414	
8	0	0	0	0	473	410	
9	0	0	0	0	473	410	
10	0	0	0	0	474	409	
11	0	0	0	0	474	405	
12	0	0	0	0	474	410	
13	0	0	0	0	474	411	
14	0	0	0	0	474	410	
15	0	0	0	0	474	414	
0	0	0	0	0	474	409	
1	0	0	0	0	473	409	
2	0	0	0	0	473	409	
3	0	0	0	0	472	405	
4	0	0	0	0	472	410	
5	0	0	0	0	472	410	
6	0	0	0	0	473	410	
7	0	0	0	0	474	414	
8	0	0	0	0	474	409	
9	0	0	0	0	474	410	
10	0	0	0	0	475	409	
11	0	0	0	0	475	404	
12	0	0	0	0	475	409	
13	0	0	0	0	474	410	
14	0	0	0	0	474	410	
15	0	0	0	0	474	415	
0	0	0	0	0	475	410	
1	0	0	0	0	474	410	
2	0	0	0	0	474	409	
3	0	0	0	0	474	405	
4	0	0	0	0	474	410	
5	0	0	0	0	474	410	
6	0	0	0	0	474	411	
7	0	0	0	0	475	414	
8	0	0	0	0	475	410	
9	0	0	0	0	475	409	
10	0	0	0	0	475	410	
11	0	0	0	0	476	406	
12	0	0	0	0	476	411	
13	0	0	0	0	476	410	
14	0	0	0	0	476	411	
15	0	0	0	0	476	416	
0	0	0	0	0	475	411	
1	0	0	0	0	474	411	
2	0	0	0	0	475	410	
3	0	0	0	0	474	405	
4	0	0	0	0	475	410	
5	0	0	0	0	476	410	
6	0	0	0	0	477	411	
7	0	0	0	0	478	415	
8	0	0	0	0	480	410	
9	0	0	0	0	480	411	
10	0	0	0	0	480	410	
11	0	0	0	0	480	405	
12	0	0	0	0	479	410	
13	0	0	0	0	479	411	
14	0	0	0	0	479	410	
15	0	0	0	0	478	414	
0	0	0	0	0	478	410	
1	0	0	0	0	476	410	
2	0	0	0	0	476	409	
3	0	0	0	0	474	404	
4	0	0	0	0	473	410	
5	0	0	0	0	473	409	
6	0	0	0	0	473	409	
7	0	0	0	0	473	414	
8	0	0	0	0	472	408	
9	0	0	0	0	471	408	
10	0	0	0	0	470	408	
11	0	0	0	0	470	402	
12	0	0	0	0	468	408	
13	0	0	0	0	467	408	
14	0	0	0	0	467	408	
15	0	0	0	0	466	412	
0	0	0	0	0	466	408	
1	0	0	0	0	467	408	
2	0	0	0	0	467	409	
3	0	0	0	0	468	403	
4	0	0	0	0	469	409	
5	0	0	0	0	470	409	
6	0	0	0	0	470	409	
7	0	0	0	0	470	415	
8	0	0	0	0	471	410	
9	0	0	0	0	470	409	
10	0	0	0	0	471	409	
11	0	0	0	0	470	404	
12	0	0	0	0	471	410	
13	0	0	0	0	471	410	
14	0	0	0	0	470	410	
15	0	0	0	0	470	414	
0	0	0	0	0	471	409	
1	0	0	0	0	472	409	
2	0	0	0	0	472	409	
3	0	0	0	0	473	403	
4	0	0	0	0	474	408	
5	0	0	0	0	474	408	
6	0	0	0	0	473	409	
7	0	0	0	0	474	414	
8	0	0	0	0	475	408	
9	0	0	0	0	475	409	
10	0	0	0	0	477	408	
11	0	0	0	0	478	403	
12	0	0	0	0	478	409	
13	0	0	0	0	477	409	
14	0	0	0	0	477	409	
15	0	0	0	0	475	414	
0	0	0	0	0	474	410	
1	0	0	0	0	473	409	
2	0	0	0	0	473	410	
3	0	0	0	0	473	405	
4	0	0	0	0	473	410	
5	0	0	0	0	473	409	
6	0	0	0	0	474	410	
7	0	0	0	0	474	415	
8	0	0	0	0	475	411	
9	0	0	0	0	475	411	
10	0	0	0	0	474	410	
11	0	0	0	0	475	405	
12	0	0	0	0	474	410	
13	0	0	0	0	473	410	
14	0	0	0	0	473	410	
15	0	0	0	0	472	415	
0	0	0	0	0	472	409	
1	0	0	0	0	470	410	
2	0	0	0	0	469	410	
3	0	0	0	0	468	404	
4	0	0	0	0	467	409	
5	0	0	0	0	466	409	
6	0	0	0	0	465	410	
7	0	0	0	0	464	415	
8	0	0	0	0	465	410	
9	0	0	0	0	465	410	
10	0	0	0	0	466	409	
11	0	0	0	0	467	405	
12	0	0	0	0	468	411	
13	0	0	0	0	469	411	
14	0	0	0	0	470	410	
15	0	0	0	0	469	415	
0	0	0	0	0	470	410	
1	0	0	0	0	470	410	
2	0	0	0	0	470	411	
3	0	0	0	0	470	405	
4	0	0	0	0	470	410	
5	0	0	0	0	470	410	
6	0	0	0	0	471	411	
7	0	0	0	0	472	415	
8	0	0	0	0	472	410	
9	0	0	0	0	474	410	
10	0	0	0	0	476	410	
11	0	0	0	0	478	405	
12	0	0	0	0	478	409	
13	0	0	0	0	477	410	
14	0	0	0	0	477	410	
15	0	0	0	0	476	415	
0	0	0	0	0	476	409	
1	0	0	0	0	475	408	
2	0	0	0	0	475	409	
3	0	0	0	0	475	404	
4	0	0	0	0	473	409	
5	0	0	0	0	473	409	
6	0	0	0	0	473	409	
7	0	0	0	0	472	414	
8	0	0	0	0	473	410	
9	0	0	0	0	473	409	
10	0	0	0	0	475	409	
11	0	0	0	0	474	404	
12	0	0	0	0	474	409	
13	0	0	0	0	475	409	
14	0	0	0	0	477	409	
15	0	0	0	0	479	413	
0	0	0	0	0	479	409	
1	0	0	0	0	480	409	
2	0	0	0	0	481	409	
3	0	0	0	0	482	403	
4	0	0	0	0	483	408	
5	0	0	0	0	484	408	
6	0	0	0	0	485	407	
7	0	0	0	0	486	412	
8	0	0	0	0	486	407	
9	0	0	0	0	487	407	
10	0	0	0	0	486	407	
11	0	0	0	0	486	402	
12	0	0	0	0	486	407	
13	0	0	0	0	487	407	
14	0	0	0	0	487	407	
15	0	0	0	0	487	412	
0	0	0	0	0	490	407	
1	0	0	0	0	491	407	
2	0	0	0	0	492	407	
3	0	0	0	0	494	402	
4	0	0	0	0	495	408	
5	0	0	0	0	496	407	
6	0	0	0	0	497	408	
7	0	0	0	0	498	411	
8	0	0	0	0	498	408	
9	0	0	0	0	499	408	
10	0	0	0	0	499	407	
11	0	0	0	0	499	402	
12	0	0	0	0	500	407	
13	0	0	0	0	501	407	
14	0	0	0	0	501	408	
15	0	0	0	0	501	412	
0	0	0	0	0	501	408	
1	0	0	0	0	500	408	
2	0	0	0	0	499	407	
3	0	0	0	0	498	402	
4	0	0	0	0	498	408	
5	0	0	0	0	498	408	
6	0	0	0	0	498	408	
7	0	0	0	0	498	412	
8	0	0	0	0	499	409	
9	0	0	0	0	499	409	
10	0	0	0	0	499	409	
11	0	0	0	0	499	403	
12	0	0	0	0	499	409	
13	0	0	0	0	499	409	
14	0	0	0	0	500	409	
15	0	0	0	0	500	415	
0	0	0	0	0	500	410	
1	0	0	0	0	499	410	
2	0	0	0	0	497	410	
3	0	0	0	0	496	405	
4	0	0	0	0	496	410	
5	0	0	0	0	497	411	
6	0	0	0	0	497	410	
7	0	0	0	0	497	415	
8	0	0	0	0	498	410	
9	0	0	0	0	499	410	
10	0	0	0	0	499	410	
11	0	0	0	0	499	405	
12	0	0	0	0	499	410	
13	0	0	0	0	499	410	
14	0	0	0	0	498	411	
15	0	0	0	0	496	416	
0	0	0	0	0	494	411	
1	0	0	0	0	491	411	
2	0	0	0	0	487	410	
3	0	0	0	0	482	406	
4	0	0	0	0	476	411	
5	0	0	0	0	472	411	
6	0	0	0	0	467	411	
7	0	0	0	0	461	415	
8	0	0	0	0	456	411	
9	0	0	0	0	451	411	
10	0	0	0	0	445	411	
11	0	0	0	0	440	406	
12	0	0	0	0	435	411	
13	0	0	0	0	430	412	
14	0	0	0	0	426	412	
15	0	0	0	0	423	416	
0	0	0	0	0	422	411	
1	0	0	0	0	423	411	
2	0	0	0	0	428	411	
3	0	0	0	0	432	406	
4	0	0	0	0	438	411	
5	0	0	0	0	445	411	
6	0	0	0	0	454	411	
7	0	0	0	0	463	416	
8	0	0	0	0	475	411	
9	0	0	0	0	485	411	
10	0	0	0	0	495	411	
11	0	0	0	0	504	406	
12	0	0	0	0	513	411	
13	0	0	0	0	523	411	
14	0	0	0	0	531	411	
15	0	0	0	0	540	415	
0	0	0	0	0	551	411	
1	0	0	0	0	561	411	
2	0	0	0	0	570	410	
3	0	0	0	0	578	405	
4	0	0	0	0	585	411	
5	0	0	0	0	593	411	
6	0	0	0	0	600	411	
7	0	0	0	0	607	415	
8	0	0	0	0	612	411	
9	0	0	0	0	615	411	
10	0	0	0	0	619	411	
11	0	0	0	0	621	405	
12	0	0	0	0	621	410	
13	0	0	0	0	620	411	
14	0	0	0	0	618	411	
15	0	0	0	0	615	415	
0	0	0	0	0	609	411	
1	0	0	0	0	602	411	
2	0	0	0	0	595	411	
3	0	0	0	0	588	406	
4	0	0	0	0	579	411	
5	0	0	0	0	570	411	
6	0	0	0	0	561	411	
7	0	0	0	0	552	415	
8	0	0	0	0	543	410	
9	0	0	0	0	536	410	
10	0	0	0	0	528	410	
11	0	0	0	0	520	405	
12	0	0	0	0	513	410	
13	0	0	0	0	507	410	
14	0	0	0	0	502	410	
15	0	0	0	0	497	415	
0	0	0	0	0	496	410	
1	0	0	0	0	494	410	
2	0	0	0	0	492	410	
3	0	0	0	0	489	406	
4	0	0	0	0	487	410	
5	0	0	0	0	487	410	
6	0	0	0	0	487	411	
7	0	0	0	0	486	415	
8	0	0	0	0	483	410	
9	0	0	0	0	480	411	
10	0	0	0	0	479	409	
11	0	0	0	0	478	404	
12	0	0	0	0	478	409	
13	0	0	0	0	478	409	
14	0	0	0	0	478	410	
15	0	0	0	0	478	415	
0	0	0	0	0	479	410	
1	0	0	0	0	480	410	
2	0	0	0	0	481	410	
3	0	0	0	0	482	405	
4	0	0	0	0	483	410	
5	0	0	0	0	483	410	
6	0	0	0	0	484	410	
7	0	0	0	0	485	414	
8	0	0	0	0	486	409	
9	0	0	0	0	487	409	
10	0	0	0	0	487	409	
11	0	0	0	0	487	404	
12	0	0	0	0	487	409	
13	0	0	0	0	487	410	
14	0	0	0	0	486	409	
15	0	0	0	0	486	413	
0	0	0	0	0	486	409	
1	0	0	0	0	486	409	
2	0	0	0	0	485	409	
3	0	0	0	0	484	404	
4	0	0	0	0	484	410	
5	0	0	0	0	484	409	
6	0	0	0	0	483	409	
7	0	0	0	0	483	414	
8	0	0	0	0	483	409	
9	0	0	0	0	483	410	
10	0	0	0	0	483	409	
11	0	0	0	0	483	404	
12	0	0	0	0	484	409	
13	0	0	0	0	486	409	
14	0	0	0	0	488	409	
15	0	0	0	0	491	413	
0	0	0	0	0	493	408	
1	0	0	0	0	495	409	
2	0	0	0	0	496	409	
3	0	0	0	0	497	404	
4	0	0	0	0	497	409	
5	0	0	0	0	498	409	
6	0	0	0	0	498	409	
7	0	0	0	0	497	414	
8	0	0	0	0	497	409	
9	0	0	0	0	496	409	
10	0	0	0	0	496	409	
11	0	0	0	0	497	403	
12	0	0	0	0	497	409	
13	0	0	0	0	498	409	
14	0	0	0	0	498	409	
15	0	0	0	0	499	413	
0	0	0	0	0	500	409	
1	0	0	0	0	502	408	
2	0	0	0	0	504	408	
3	0	0	0	0	505	403	
4	0	0	0	0	506	408	
5	0	0	0	0	506	409	
6	0	0	0	0	507	408	
7	0	0	0	0	508	414	
8	0	0	0	0	509	408	
9	0	0	0	0	510	408	
10	0	0	0	0	510	408	
11	0	0	0	0	511	403	
12	0	0	0	0	512	408	
13	0	0	0	0	512	408	
14	0	0	0	0	513	408	
15	0	0	0	0	513	413	
0	0	0	0	0	515	408	
1	0	0	0	0	515	409	
2	0	0	0	0	516	408	
3	0	0	0	0	516	403	
4	0	0	0	0	517	409	
5	0	0	0	0	519	409	
6	0	0	0	0	520	408	
7	0	0	0	0	520	413	
8	0	0	0	0	521	408	
9	0	0	0	0	521	409	
10	0	0	0	0	521	409	
11	0	0	0	0	522	403	
12	0	0	0	0	523	408	
13	0	0	0	0	524	408	
14	0	0	0	0	525	408	
15	0	0	0	0	527	413	
0	0	0	0	0	527	408	
1	0	0	0	0	528	408	
2	0	0	0	0	529	408	
3	0	0	0	0	530	403	
4	0	0	0	0	531	408	
5	0	0	0	0	531	408	
6	0	0	0	0	531	408	
7	0	0	0	0	531	413	
8	0	0	0	0	531	408	
9	0	0	0	0	531	409	
10	0	0	0	0	530	408	
11	0	0	0	0	529	403	
12	0	0	0	0	530	408	
13	0	0	0	0	530	409	
14	0	0	0	0	532	409	
15	0	0	0	0	533	413	
0	0	0	0	0	534	409	
1	0	0	0	0	534	408	
2	0	0	0	0	535	408	
3	0	0	0	0	536	403	
4	0	0	0	0	537	408	
5	0	0	0	0	539	408	
6	0	0	0	0	540	408	
7	0	0	0	0	540	414	
8	0	0	0	0	540	409	
9	0	0	0	0	540	409	
10	0	0	0	0	540	409	
11	0	0	0	0	539	404	
12	0	0	0	0	538	410	
13	0	0	0	0	536	410	
14	0	0	0	0	534	410	
15	0	0	0	0	531	415	
0	0	0	0	0	531	411	
1	0	0	0	0	530	411	
2	0	0	0	0	530	410	
3	0	0	0	0	531	405	
4	0	0	0	0	531	411	
5	0	0	0	0	530	410	
6	0	0	0	0	530	411	
7	0	0	0	0	531	415	
8	0	0	0	0	531	411	
9	0	0	0	0	532	410	
10	0	0	0	0	531	410	
11	0	0	0	0	531	405	
12	0	0	0	0	531	410	
13	0	0	0	0	532	410	
14	0	0	0	0	532	410	
15	0	0	0	0	532	415	
0	0	0	0	0	532	411	
1	0	0	0	0	532	410	
2	0	0	0	0	531	410	
3	0	0	0	0	530	405	
4	0	0	0	0	528	410	
5	0	0	0	0	527	409	
6	0	0	0	0	526	410	
7	0	0	0	0	526	415	
8	0	0	0	0	527	410	
9	0	0	0	0	526	410	
10	0	0	0	0	526	410	
11	0	0	0	0	525	404	
12	0	0	0	0	524	411	
13	0	0	0	0	522	410	
14	0	0	0	0	521	410	
15	0	0	0	0	520	415	
0	0	0	0	0	522	411	
1	0	0	0	0	523	410	
2	0	0	0	0	523	410	
3	0	0	0	0	524	404	
4	0	0	0	0	523	409	
5	0	0	0	0	523	410	
6	0	0	0	0	523	410	
7	0	0	0	0	523	414	
8	0	0	0	0	524	410	
9	0	0	0	0	524	409	
10	0	0	0	0	525	409	
11	0	0	0	0	524	405	
12	0	0	0	0	524	410	
13	0	0	0	0	524	410	
14	0	0	0	0	523	410	
15	0	0	0	0	523	414	
0	0	0	0	0	525	410	
1	0	0	0	0	526	409	
2	0	0	0	0	527	409	
3	0	0	0	0	527	404	
4	0	0	0	0	529	410	
5	0	0	0	0	530	409	
6	0	0	0	0	531	409	
7	0	0	0	0	531	414	
8	0	0	0	0	531	409	
9	0	0	0	0	531	409	
10	0	0	0	0	530	409	
11	0	0	0	0	527	405	
12	0	0	0	0	525	409	
13	0	0	0	0	522	409	
14	0	0	0	0	519	409	
15	0	0	0	0	518	415	
0	0	0	0	0	518	409	
1	0	0	0	0	518	409	
2	0	0	0	0	517	410	
3	0	0	0	0	518	404	
4	0	0	0	0	518	410	
5	0	0	0	0	518	409	
6	0	0	0	0	518	410	
7	0	0	0	0	517	415	
8	0	0	0	0	516	410	
9	0	0	0	0	516	409	
10	0	0	0	0	515	409	
11	0	0	0	0	514	404	
12	0	0	0	0	514	410	
13	0	0	0	0	515	410	
14	0	0	0	0	515	410	
15	0	0	0	0	515	415	
0	0	0	0	0	516	410	
1	0	0	0	0	516	410	
2	0	0	0	0	516	410	
3	0	0	0	0	515	405	
4	0	0	0	0	515	410	
5	0	0	0	0	514	411	
6	0	0	0	0	513	411	
7	0	0	0	0	513	415	
8	0	0	0	0	512	410	
9	0	0	0	0	512	410	
10	0	0	0	0	512	410	
11	0	0	0	0	512	405	
12	0	0	0	0	513	410	
13	0	0	0	0	513	410	
14	0	0	0	0	515	410	
15	0	0	0	0	518	415	
0	0	0	0	0	519	411	
1	0	0	0	0	521	410	
2	0	0	0	0	521	410	
3	0	0	0	0	521	405	
4	0	0	0	0	521	409	
5	0	0	0	0	521	410	
6	0	0	0	0	521	410	
7	0	0	0	0	521	414	
8	0	0	0	0	522	409	
9	0	0	0	0	522	409	
10	0	0	0	0	521	409	
11	0	0	0	0	520	404	
12	0	0	0	0	520	409	
13	0	0	0	0	520	409	
14	0	0	0	0	521	409	
15	0	0	0	0	522	414	
0	0	0	0	0	522	408	
1	0	0	0	0	523	409	
2	0	0	0	0	522	408	
3	0	0	0	0	522	404	
4	0	0	0	0	521	409	
5	0	0	0	0	520	409	
6	0	0	0	0	519	409	
7	0	0	0	0	519	414	
8	0	0	0	0	518	409	
9	0	0	0	0	517	409	
10	0	0	0	0	518	409	
11	0	0	0	0	518	404	
12	0	0	0	0	517	409	
13	0	0	0	0	518	408	
14	0	0	0	0	519	409	
15	0	0	0	0	521	413	
0	0	0	0	0	523	409	
1	0	0	0	0	524	408	
2	0	0	0	0	524	408	
3	0	0	0	0	524	403	
4	0	0	0	0	523	408	
5	0	0	0	0	522	408	
6	0	0	0	0	519	408	
7	0	0	0	0	518	412	
8	0	0	0	0	516	408	
9	0	0	0	0	515	408	
10	0	0	0	0	513	409	
11	0	0	0	0	512	404	
12	0	0	0	0	512	409	
13	0	0	0	0	511	410	
14	0	0	0	0	511	409	
15	0	0	0	0	511	414	
0	0	0	0	0	512	409	
1	0	0	0	0	512	409	
2	0	0	0	0	513	410	
3	0	0	0	0	514	405	
4	0	0	0	0	516	410	
5	0	0	0	0	515	409	
6	0	0	0	0	516	410	
7	0	0	0	0	515	415	
8	0	0	0	0	515	410	
9	0	0	0	0	515	410	
10	0	0	0	0	516	410	
11	0	0	0	0	517	405	
12	0	0	0	0	518	410	
13	0	0	0	0	518	409	
14	0	0	0	0	518	410	
15	0	0	0	0	518	414	
0	0	0	0	0	519	409	
1	0	0	0	0	519	410	
2	0	0	0	0	522	409	
3	0	0	0	0	523	405	
4	0	0	0	0	523	411	
5	0	0	0	0	522	410	
6	0	0	0	0	520	410	
7	0	0	0	0	519	415	
8	0	0	0	0	516	410	
9	0	0	0	0	515	411	
10	0	0	0	0	513	410	
11	0	0	0	0	512	405	
12	0	0	0	0	512	411	
13	0	0	0	0	511	410	
14	0	0	0	0	511	411	
15	0	0	0	0	511	414	
0	0	0	0	0	510	410	
1	0	0	0	0	509	410	
2	0	0	0	0	509	409	
3	0	0	0	0	510	405	
4	0	0	0	0	511	410	
5	0	0	0	0	514	409	
6	0	0	0	0	517	410	
7	0	0	0	0	519	414	
8	0	0	0	0	519	409	
9	0	0	0	0	519	409	
10	0	0	0	0	519	408	
11	0	0	0	0	518	403	
12	0	0	0	0	516	409	
13	0	0	0	0	515	408	
14	0	0	0	0	514	409	
15	0	0	0	0	514	414	
0	0	0	0	0	515	409	
1	0	0	0	0	517	409	
2	0	0	0	0	518	409	
3	0	0	0	0	520	403	
4	0	0	0	0	521	409	
5	0	0	0	0	521	410	
6	0	0	0	0	521	410	
7	0	0	0	0	520	414	
8	0	0	0	0	520	410	
9	0	0	0	0	519	410	
10	0	0	0	0	519	409	
11	0	0	0	0	518	404	
12	0	0	0	0	516	410	
13	0	0	0	0	516	410	
14	0	0	0	0	515	410	
15	0	0	0	0	516	415	
0	0	0	0	0	517	411	
1	0	0	0	0	516	411	
2	0	0	0	0	514	409	
3	0	0	0	0	512	404	
4	0	0	0	0	512	409	
5	0	0	0	0	512	409	
6	0	0	0	0	512	409	
7	0	0	0	0	512	414	
8	0	0	0	0	512	409	
9	0	0	0	0	514	410	
10	0	0	0	0	515	410	
11	0	0	0	0	515	404	
12	0	0	0	0	515	409	
13	0	0	0	0	515	409	
14	0	0	0	0	514	410	
15	0	0	0	0	513	414	
0	0	0	0	0	513	409	
1	0	0	0	0	514	409	
2	0	0	0	0	514	409	
3	0	0	0	0	515	404	
4	0	0	0	0	515	409	
5	0	0	0	0	516	409	
6	0	0	0	0	516	408	
7	0	0	0	0	515	414	
8	0	0	0	0	515	409	
9	0	0	0	0	515	409	
10	0	0	0	0	514	408	
11	0	0	0	0	514	404	
12	0	0	0	0	514	409	
13	0	0	0	0	515	409	
14	0	0	0	0	515	409	
15	0	0	0	0	517	413	
0	0	0	0	0	517	408	
1	0	0	0	0	517	408	
2	0	0	0	0	518	408	
3	0	0	0	0	520	403	
4	0	0	0	0	522	408	
5	0	0	0	0	523	408	
6	0	0	0	0	523	408	
7	0	0	0	0	523	413	
8	0	0	0	0	524	407	
9	0	0	0	0	525	408	
10	0	0	0	0	526	408	
11	0	0	0	0	527	403	
12	0	0	0	0	529	409	
13	0	0	0	0	530	409	
14	0	0	0	0	531	409	
15	0	0	0	0	531	414	
0	0	0	0	0	533	409	
1	0	0	0	0	532	409	
2	0	0	0	0	531	408	
3	0	0	0	0	531	404	
4	0	0	0	0	531	408	
5	0	0	0	0	531	408	
6	0	0	0	0	532	408	
7	0	0	0	0	532	413	
8	0	0	0	0	531	408	
9	0	0	0	0	531	408	
10	0	0	0	0	530	408	
11	0	0	0	0	529	403	
12	0	0	0	0	526	408	
13	0	0	0	0	524	408	
14	0	0	0	0	522	408	
15	0	0	0	0	522	412	
0	0	0	0	0	524	408	
1	0	0	0	0	525	408	
2	0	0	0	0	526	408	
3	0	0	0	0	527	403	
4	0	0	0	0	528	408	
5	0	0	0	0	530	408	
6	0	0	0	0	532	409	
7	0	0	0	0	534	413	
8	0	0	0	0	536	409	
9	0	0	0	0	538	409	
10	0	0	0	0	538	409	
11	0	0	0	0	539	404	
12	0	0	0	0	539	409	
13	0	0	0	0	538	409	
14	0	0	0	0	538	409	
15	0	0	0	0	537	413	
0	0	0	0	0	536	408	
1	0	0	0	0	535	408	
2	0	0	0	0	534	408	
3	0	0	0	0	532	404	
4	0	0	0	0	533	409	
5	0	0	0	0	535	408	
6	0	0	0	0	536	408	
7	0	0	0	0	536	414	
8	0	0	0	0	537	409	
9	0	0	0	0	537	409	
10	0	0	0	0	537	408	
11	0	0	0	0	536	403	
12	0	0	0	0	535	409	
13	0	0	0	0	535	409	
14	0	0	0	0	535	409	
15	0	0	0	0	534	414	
0	0	0	0	0	535	409	
1	0	0	0	0	534	409	
2	0	0	0	0	533	409	
3	0	0	0	0	532	404	
4	0	0	0	0	532	409	
5	0	0	0	0	532	409	
6	0	0	0	0	531	409	
7	0	0	0	0	531	413	
8	0	0	0	0	529	408	
9	0	0	0	0	527	409	
10	0	0	0	0	527	409	
11	0	0	0	0	526	403	
12	0	0	0	0	526	409	
13	0	0	0	0	528	409	
14	0	0	0	0	531	410	
15	0	0	0	0	534	414	
0	0	0	0	0	536	409	
1	0	0	0	0	538	410	
2	0	0	0	0	539	409	
3	0	0	0	0	540	404	
4	0	0	0	0	539	409	
5	0	0	0	0	538	410	
6	0	0	0	0	537	411	
7	0	0	0	0	536	415	
8	0	0	0	0	536	410	
9	0	0	0	0	537	410	
10	0	0	0	0	539	410	
11	0	0	0	0	540	405	
12	0	0	0	0	538	410	
13	0	0	0	0	538	410	
14	0	0	0	0	537	410	
15	0	0	0	0	538	415	
0	0	0	0	0	540	410	
1	0	0	0	0	541	410	
2	0	0	0	0	542	410	
3	0	0	0	0	543	405	
4	0	0	0	0	544	410	
5	0	0	0	0	545	410	
6	0	0	0	0	546	410	
7	0	0	0	0	547	414	
8	0	0	0	0	547	411	
9	0	0	0	0	546	411	
10	0	0	0	0	546	411	
11	0	0	0	0	544	405	
12	0	0	0	0	543	411	
13	0	0	0	0	542	410	
14	0	0	0	0	540	410	
15	0	0	0	0	539	415	
0	0	0	0	0	539	412	
1	0	0	0	0	539	412	
2	0	0	0	0	540	411	
3	0	0	0	0	540	406	
4	0	0	0	0	540	410	
5	0	0	0	0	540	410	
6	0	0	0	0	540	411	
7	0	0	0	0	542	415	
8	0	0	0	0	544	410	
9	0	0	0	0	545	410	
10	0	0	0	0	545	409	
11	0	0	0	0	545	404	
12	0	0	0	0	543	409	
13	0	0	0	0	542	409	
14	0	0	0	0	541	409	
15	0	0	0	0	543	414	
0	0	0	0	0	545	410	
1	0	0	0	0	547	410	
2	0	0	0	0	548	410	
3	0	0	0	0	550	406	
4	0	0	0	0	551	410	
5	0	0	0	0	552	410	
6	0	0	0	0	552	410	
7	0	0	0	0	551	414	
8	0	0	0	0	551	409	
9	0	0	0	0	550	410	
10	0	0	0	0	550	408	
11	0	0	0	0	551	404	
12	0	0	0	0	552	409	
13	0	0	0	0	552	409	
14	0	0	0	0	553	408	
15	0	0	0	0	555	413	
0	0	0	0	0	555	408	
1	0	0	0	0	556	409	
2	0	0	0	0	556	409	
3	0	0	0	0	555	404	
4	0	0	0	0	553	409	
5	0	0	0	0	551	408	
6	0	0	0	0	548	409	
7	0	0	0	0	546	413	
8	0	0	0	0	544	408	
9	0	0	0	0	541	408	
10	0	0	0	0	539	408	
11	0	0	0	0	538	403	
12	0	0	0	0	539	408	
13	0	0	0	0	541	408	
14	0	0	0	0	543	409	
15	0	0	0	0	543	414	
0	0	0	0	0	543	408	
1	0	0	0	0	543	410	
2	0	0	0	0	543	409	
3	0	0	0	0	544	404	
4	0	0	0	0	545	410	
5	0	0	0	0	544	409	
6	0	0	0	0	544	409	
7	0	0	0	0	543	414	
8	0	0	0	0	541	409	
9	0	0	0	0	537	408	
10	0	0	0	0	534	408	
11	0	0	0	0	531	404	
12	0	0	0	0	528	408	
13	0	0	0	0	527	408	
14	0	0	0	0	527	408	
15	0	0	0	0	526	414	
0	0	0	0	0	527	408	
1	0	0	0	0	527	409	
2	0	0	0	0	529	409	
3	0	0	0	0	530	404	
4	0	0	0	0	529	409	
5	0	0	0	0	527	408	
6	0	0	0	0	527	408	
7	0	0	0	0	526	413	
8	0	0	0	0	526	408	
9	0	0	0	0	525	408	
10	0	0	0	0	525	409	
11	0	0	0	0	526	404	
12	0	0	0	0	526	409	
13	0	0	0	0	526	409	
14	0	0	0	0	527	410	
15	0	0	0	0	527	414	
0	0	0	0	0	528	409	
1	0	0	0	0	528	409	
2	0	0	0	0	528	410	
3	0	0	0	0	529	406	
4	0	0	0	0	529	410	
5	0	0	0	0	528	409	
6	0	0	0	0	527	410	
7	0	0	0	0	526	415	
8	0	0	0	0	526	410	
9	0	0	0	0	525	410	
10	0	0	0	0	526	410	
11	0	0	0	0	525	405	
12	0	0	0	0	526	410	
13	0	0	0	0	524	411	
14	0	0	0	0	523	411	
15	0	0	0	0	522	415	
0	0	0	0	0	524	410	
1	0	0	0	0	525	409	
2	0	0	0	0	525	409	
3	0	0	0	0	525	404	
4	0	0	0	0	526	410	
5	0	0	0	0	527	410	
6	0	0	0	0	528	410	
7	0	0	0	0	530	415	
8	0	0	0	0	532	410	
9	0	0	0	0	533	409	
10	0	0	0	0	534	409	
11	0	0	0	0	536	404	
12	0	0	0	0	536	409	
13	0	0	0	0	536	409	
14	0	0	0	0	537	409	
15	0	0	0	0	537	414	
0	0	0	0	0	535	409	
1	0	0	0	0	532	410	
2	0	0	0	0	530	409	
3	0	0	0	0	529	404	
4	0	0	0	0	529	409	
5	0	0	0	0	529	410	
6	0	0	0	0	531	410	
7	0	0	0	0	533	415	
8	0	0	0	0	535	410	
9	0	0	0	0	537	410	
10	0	0	0	0	539	409	
11	0	0	0	0	539	404	
12	0	0	0	0	539	409	
13	0	0	0	0	539	409	
14	0	0	0	0	540	409	
15	0	0	0	0	542	414	
0	0	0	0	0	542	409	
1	0	0	0	0	542	409	
2	0	0	0	0	541	409	
3	0	0	0	0	540	404	
4	0	0	0	0	539	410	
5	0	0	0	0	536	410	
6	0	0	0	0	534	410	
7	0	0	0	0	532	414	
8	0	0	0	0	531	409	
9	0	0	0	0	530	410	
10	0	0	0	0	529	409	
11	0	0	0	0	527	404	
12	0	0	0	0	524	410	
13	0	0	0	0	521	409	
14	0	0	0	0	519	410	
15	0	0	0	0	518	415	
0	0	0	0	0	518	409	
1	0	0	0	0	517	410	
2	0	0	0	0	518	410	
3	0	0	0	0	518	406	
4	0	0	0	0	518	411	
5	0	0	0	0	518	410	
6	0	0	0	0	519	411	
7	0	0	0	0	519	415	
8	0	0	0	0	520	410	
9	0	0	0	0	520	410	
10	0	0	0	0	520	409	
11	0	0	0	0	519	404	
12	0	0	0	0	519	410	
13	0	0	0	0	519	411	
14	0	0	0	0	518	411	
15	0	0	0	0	517	415	
0	0	0	0	0	516	410	
1	0	0	0	0	515	410	
2	0	0	0	0	515	409	
3	0	0	0	0	515	404	
4	0	0	0	0	513	409	
5	0	0	0	0	512	409	
6	0	0	0	0	510	409	
7	0	0	0	0	509	415	
8	0	0	0	0	508	410	
9	0	0	0	0	508	410	
10	0	0	0	0	508	409	
11	0	0	0	0	508	404	
12	0	0	0	0	509	409	
13	0	0	0	0	510	409	
14	0	0	0	0	511	409	
15	0	0	0	0	512	413	
0	0	0	0	0	513	408	
1	0	0	0	0	513	408	
2	0	0	0	0	511	409	
3	0	0	0	0	510	403	
4	0	0	0	0	508	408	
5	0	0	0	0	507	408	
6	0	0	0	0	507	408	
7	0	0	0	0	507	413	
8	0	0	0	0	510	408	
9	0	0	0	0	515	408	
10	0	0	0	0	519	408	
11	0	0	0	0	520	403	
12	0	0	0	0	519	408	
13	0	0	0	0	518	408	
14	0	0	0	0	517	408	
15	0	0	0	0	516	413	
0	0	0	0	0	515	408	
1	0	0	0	0	515	408	
2	0	0	0	0	515	408	
3	0	0	0	0	515	403	
4	0	0	0	0	515	408	
5	0	0	0	0	514	408	
6	0	0	0	0	515	408	
7	0	0	0	0	515	413	
8	0	0	0	0	515	408	
9	0	0	0	0	513	408	
10	0	0	0	0	512	409	
11	0	0	0	0	512	404	
12	0	0	0	0	512	409	
13	0	0	0	0	511	409	
14	0	0	0	0	510	409	
15	0	0	0	0	509	413	
0	0	0	0	0	510	409	
1	0	0	0	0	509	409	
2	0	0	0	0	508	409	
3	0	0	0	0	507	403	
4	0	0	0	0	508	408	
5	0	0	0	0	510	408	
6	0	0	0	0	511	409	
7	0	0	0	0	512	414	
8	0	0	0	0	513	408	
9	0	0	0	0	513	408	
10	0	0	0	0	512	408	
11	0	0	0	0	512	403	
12	0	0	0	0	513	408	
13	0	0	0	0	513	408	
14	0	0	0	0	513	408	
15	0	0	0	0	513	413	
0	0	0	0	0	513	408	
1	0	0	0	0	515	408	
2	0	0	0	0	516	408	
3	0	0	0	0	518	403	
4	0	0	0	0	519	408	
5	0	0	0	0	519	408	
6	0	0	0	0	519	409	
7	0	0	0	0	519	413	
8	0	0	0	0	519	408	
9	0	0	0	0	519	409	
10	0	0	0	0	519	409	
11	0	0	0	0	518	403	
12	0	0	0	0	515	409	
13	0	0	0	0	513	409	
14	0	0	0	0	510	409	
15	0	0	0	0	506	414	
0	0	0	0	0	500	409	
1	0	0	0	0	494	409	
2	0	0	0	0	490	408	
3	0	0	0	0	486	403	
4	0	0	0	0	482	408	
5	0	0	0	0	477	408	
6	0	0	0	0	472	408	
7	0	0	0	0	467	413	
8	0	0	0	0	461	408	
9	0	0	0	0	455	408	
10	0	0	0	0	451	407	
11	0	0	0	0	448	403	
12	0	0	0	0	447	408	
13	0	0	0	0	448	408	
14	0	0	0	0	450	408	
15	0	0	0	0	450	413	
0	0	0	0	0	452	408	
1	0	0	0	0	455	408	
2	0	0	0	0	460	408	
3	0	0	0	0	466	403	
4	0	0	0	0	473	409	
5	0	0	0	0	482	409	
6	0	0	0	0	491	408	
7	0	0	0	0	497	413	
8	0	0	0	0	504	409	
9	0	0	0	0	511	409	
10	0	0	0	0	519	408	
11	0	0	0	0	528	403	
12	0	0	0	0	538	409	
13	0	0	0	0	548	408	
14	0	0	0	0	559	408	
15	0	0	0	0	568	413	
0	0	0	0	0	578	408	
1	0	0	0	0	587	408	
2	0	0	0	0	595	408	
3	0	0	0	0	601	403	
4	0	0	0	0	608	408	
5	0	0	0	0	614	409	
6	0	0	0	0	618	408	
7	0	0	0	0	619	414	
8	0	0	0	0	618	408	
9	0	0	0	0	617	409	
10	0	0	0	0	615	409	
11	0	0	0	0	612	404	
12	0	0	0	0	609	409	
13	0	0	0	0	605	409	
14	0	0	0	0	601	409	
15	0	0	0	0	596	414	
0	0	0	0	0	591	409	
1	0	0	0	0	586	410	
2	0	0	0	0	580	409	
3	0	0	0	0	573	404	
4	0	0	0	0	567	410	
5	0	0	0	0	560	410	
6	0	0	0	0	553	410	
7	0	0	0	0	546	414	
8	0	0	0	0	539	409	
9	0	0	0	0	531	409	
10	0	0	0	0	524	409	
11	0	0	0	0	517	404	
12	0	0	0	0	512	409	
13	0	0	0	0	508	409	
14	0	0	0	0	503	410	
15	0	0	0	0	498	414	
0	0	0	0	0	495	409	
1	0	0	0	0	490	409	
2	0	0	0	0	487	409	
3	0	0	0	0	484	405	
4	0	0	0	0	482	409	
5	0	0	0	0	479	409	
6	0	0	0	0	476	409	
7	0	0	0	0	473	414	
8	0	0	0	0	471	409	
9	0	0	0	0	467	409	
10	0	0	0	0	463	409	
11	0	0	0	0	462	404	
12	0	0	0	0	462	409	
13	0	0	0	0	462	409	
14	0	0	0	0	463	409	
15	0	0	0	0	463	414	
0	0	0	0	0	464	409	
1	0	0	0	0	464	409	
2	0	0	0	0	465	409	
3	0	0	0	0	465	403	
4	0	0	0	0	464	409	
5	0	0	0	0	464	409	
6	0	0	0	0	464	409	
7	0	0	0	0	464	413	
8	0	0	0	0	464	408	
9	0	0	0	0	464	408	
10	0	0	0	0	466	408	
11	0	0	0	0	466	403	
12	0	0	0	0	466	408	
13	0	0	0	0	467	409	
14	0	0	0	0	465	408	
15	0	0	0	0	464	414	
0	0	0	0	0	464	409	
1	0	0	0	0	463	409	
2	0	0	0	0	464	408	
3	0	0	0	0	464	403	
4	0	0	0	0	464	408	
5	0	0	0	0	464	409	
6	0	0	0	0	463	408	
7	0	0	0	0	463	414	
8	0	0	0	0	462	409	
9	0	0	0	0	462	408	
10	0	0	0	0	461	408	
11	0	0	0	0	460	403	
12	0	0	0	0	459	409	
13	0	0	0	0	457	409	
14	0	0	0	0	457	410	
15	0	0	0	0	457	414	
0	0	0	0	0	458	409	
1	0	0	0	0	458	409	
2	0	0	0	0	459	409	
3	0	0	0	0	460	404	
4	0	0	0	0	460	409	
5	0	0	0	0	459	408	
6	0	0	0	0	459	409	
7	0	0	0	0	458	413	
8	0	0	0	0	457	408	
9	0	0	0	0	456	409	
10	0	0	0	0	455	409	
11	0	0	0	0	455	404	
12	0	0	0	0	455	409	
13	0	0	0	0	455	408	
14	0	0	0	0	455	408	
15	0	0	0	0	454	413	
0	0	0	0	0	453	408	
1	0	0	0	0	453	409	
2	0	0	0	0	453	409	
3	0	0	0	0	453	403	
4	0	0	0	0	452	408	
5	0	0	0	0	451	408	
6	0	0	0	0	451	408	
7	0	0	0	0	452	412	
8	0	0	0	0	454	408	
9	0	0	0	0	454	408	
10	0	0	0	0	455	408	
11	0	0	0	0	455	402	
12	0	0	0	0	457	408	
13	0	0	0	0	458	407	
14	0	0	0	0	458	408	
15	0	0	0	0	459	412	
0	0	0	0	0	461	407	
1	0	0	0	0	463	407	
2	0	0	0	0	466	407	
3	0	0	0	0	467	401	
4	0	0	0	0	468	407	
5	0	0	0	0	470	407	
6	0	0	0	0	470	407	
7	0	0	0	0	472	411	
8	0	0	0	0	472	408	
9	0	0	0	0	472	407	
10	0	0	0	0	472	407	
11	0	0	0	0	473	403	
12	0	0	0	0	474	408	
13	0	0	0	0	475	408	
14	0	0	0	0	475	408	
15	0	0	0	0	475	413	
0	0	0	0	0	475	409	
1	0	0	0	0	474	408	
2	0	0	0	0	473	408	
3	0	0	0	0	473	403	
4	0	0	0	0	474	409	
5	0	0	0	0	475	409	
6	0	0	0	0	477	409	
7	0	0	0	0	479	414	
8	0	0	0	0	480	408	
9	0	0	0	0	483	408	
10	0	0	0	0	486	408	
11	0	0	0	0	488	403	
12	0	0	0	0	490	409	
13	0	0	0	0	491	409	
14	0	0	0	0	491	409	
15	0	0	0	0	491	413	
0	0	0	0	0	492	409	
1	0	0	0	0	492	409	
2	0	0	0	0	491	409	
3	0	0	0	0	492	404	
4	0	0	0	0	492	409	
5	0	0	0	0	491	410	
6	0	0	0	0	491	410	
7	0	0	0	0	492	414	
8	0	0	0	0	493	410	
9	0	0	0	0	495	409	
10	0	0	0	0	496	409	
11	0	0	0	0	497	404	
12	0	0	0	0	498	409	
13	0	0	0	0	498	410	
14	0	0	0	0	499	409	
15	0	0	0	0	499	414	
0	0	0	0	0	500	409	
1	0	0	0	0	501	410	
2	0	0	0	0	502	408	
3	0	0	0	0	504	403	
4	0	0	0	0	506	409	
5	0	0	0	0	508	409	
6	0	0	0	0	509	409	
7	0	0	0	0	510	414	
8	0	0	0	0	511	410	
9	0	0	0	0	511	410	
10	0	0	0	0	512	410	
11	0	0	0	0	511	405	
12	0	0	0	0	509	411	
13	0	0	0	0	507	411	
14	0	0	0	0	505	411	
15	0	0	0	0	504	415	
0	0	0	0	0	503	410	
1	0	0	0	0	501	411	
2	0	0	0	0	500	409	
3	0	0	0	0	500	405	
4	0	0	0	0	501	411	
5	0	0	0	0	503	410	
6	0	0	0	0	504	411	
7	0	0	0	0	505	415	
8	0	0	0	0	505	410	
9	0	0	0	0	505	410	
10	0	0	0	0	507	410	
11	0	0	0	0	507	405	
12	0	0	0	0	507	410	
13	0	0	0	0	507	410	
14	0	0	0	0	505	411	
15	0	0	0	0	505	415	
0	0	0	0	0	504	411	
1	0	0	0	0	504	410	
2	0	0	0	0	504	409	
3	0	0	0	0	504	404	
4	0	0	0	0	505	410	
5	0	0	0	0	505	409	
6	0	0	0	0	506	410	
7	0	0	0	0	506	414	
8	0	0	0	0	507	409	
9	0	0	0	0	508	409	
10	0	0	0	0	509	409	
11	0	0	0	0	509	404	
12	0	0	0	0	510	409	
13	0	0	0	0	510	409	
14	0	0	0	0	511	409	
15	0	0	0	0	512	414	
0	0	0	0	0	511	409	
1	0	0	0	0	511	409	
2	0	0	0	0	511	409	
3	0	0	0	0	511	404	
4	0	0	0	0	511	409	
5	0	0	0	0	511	409	
6	0	0	0	0	511	409	
7	0	0	0	0	512	414	
8	0	0	0	0	512	409	
9	0	0	0	0	513	409	
10	0	0	0	0	513	409	
11	0	0	0	0	514	404	
12	0	0	0	0	515	408	
13	0	0	0	0	515	409	
14	0	0	0	0	515	409	
15	0	0	0	0	516	414	
0	0	0	0	0	517	408	
1	0	0	0	0	517	408	
2	0	0	0	0	517	408	
3	0	0	0	0	518	403	
4	0	0	0	0	519	408	
5	0	0	0	0	520	408	
6	0	0	0	0	520	408	
7	0	0	0	0	520	413	
8	0	0	0	0	521	408	
9	0	0	0	0	523	408	
10	0	0	0	0	524	409	
11	0	0	0	0	524	404	
12	0	0	0	0	524	409	
13	0	0	0	0	523	409	
14	0	0	0	0	521	409	
15	0	0	0	0	520	413	
0	0	0	0	0	520	409	
1	0	0	0	0	520	408	
2	0	0	0	0	521	409	
3	0	0	0	0	522	403	
4	0	0	0	0	524	409	
5	0	0	0	0	526	409	
6	0	0	0	0	527	409	
7	0	0	0	0	527	414	
8	0	0	0	0	527	409	
9	0	0	0	0	527	409	
10	0	0	0	0	526	409	
11	0	0	0	0	524	403	
12	0	0	0	0	523	409	
13	0	0	0	0	521	409	
14	0	0	0	0	521	410	
15	0	0	0	0	521	415	
0	0	0	0	0	523	409	
1	0	0	0	0	525	411	
2	0	0	0	0	526	411	
3	0	0	0	0	528	404	
4	0	0	0	0	531	410	
5	0	0	0	0	532	411	
6	0	0	0	0	532	411	
7	0	0	0	0	532	415	
8	0	0	0	0	531	410	
9	0	0	0	0	530	410	
10	0	0	0	0	528	410	
11	0	0	0	0	527	405	
12	0	0	0	0	526	409	
13	0	0	0	0	526	409	
14	0	0	0	0	527	409	
15	0	0	0	0	527	415	
0	0	0	0	0	527	409	
1	0	0	0	0	527	410	
2	0	0	0	0	527	410	
3	0	0	0	0	526	406	
4	0	0	0	0	526	411	
5	0	0	0	0	528	411	
6	0	0	0	0	530	411	
7	0	0	0	0	531	415	
8	0	0	0	0	533	411	
9	0	0	0	0	534	411	
10	0	0	0	0	534	410	
11	0	0	0	0	534	405	
12	0	0	0	0	533	410	
13	0	0	0	0	532	411	
14	0	0	0	0	533	410	
15	0	0	0	0	534	416	
0	0	0	0	0	534	411	
1	0	0	0	0	534	411	
2	0	0	0	0	535	411	
3	0	0	0	0	534	406	
4	0	0	0	0	535	411	
5	0	0	0	0	536	411	
6	0	0	0	0	537	411	
7	0	0	0	0	537	415	
8	0	0	0	0	538	411	
9	0	0	0	0	537	411	
10	0	0	0	0	536	410	
11	0	0	0	0	536	405	
12	0	0	0	0	534	410	
13	0	0	0	0	534	411	
14	0	0	0	0	534	410	
15	0	0	0	0	534	415	
0	0	0	0	0	535	410	
1	0	0	0	0	536	410	
2	0	0	0	0	536	409	
3	0	0	0	0	538	406	
4	0	0	0	0	538	410	
5	0	0	0	0	538	410	
6	0	0	0	0	537	410	
7	0	0	0	0	536	415	
8	0	0	0	0	534	410	
9	0	0	0	0	533	410	
10	0	0	0	0	532	410	
11	0	0	0	0	531	405	
12	0	0	0	0	530	410	
13	0	0	0	0	529	409	
14	0	0	0	0	529	410	
15	0	0	0	0	529	414	
0	0	0	0	0	530	409	
1	0	0	0	0	531	409	
2	0	0	0	0	532	409	
3	0	0	0	0	534	404	
4	0	0	0	0	534	409	
5	0	0	0	0	534	409	
6	0	0	0	0	534	409	
7	0	0	0	0	534	415	
8	0	0	0	0	534	410	
9	0	0	0	0	533	409	
10	0	0	0	0	532	409	
11	0	0	0	0	531	404	
12	0	0	0	0	530	409	
13	0	0	0	0	529	409	
14	0	0	0	0	528	409	
15	0	0	0	0	527	414	
0	0	0	0	0	527	409	
1	0	0	0	0	527	409	
2	0	0	0	0	526	409	
3	0	0	0	0	525	404	
4	0	0	0	0	525	410	
5	0	0	0	0	524	409	
6	0	0	0	0	524	409	
7	0	0	0	0	523	414	
8	0	0	0	0	522	409	
9	0	0	0	0	521	409	
10	0	0	0	0	519	408	
11	0	0	0	0	518	404	
12	0	0	0	0	517	408	
13	0	0	0	0	516	408	
14	0	0	0	0	515	409	
15	0	0	0	0	514	414	
0	0	0	0	0	514	409	
1	0	0	0	0	513	409	
2	0	0	0	0	513	409	
3	0	0	0	0	513	404	
4	0	0	0	0	512	409	
5	0	0	0	0	512	408	
6	0	0	0	0	513	409	
7	0	0	0	0	513	414	
8	0	0	0	0	513	408	
9	0	0	0	0	514	409	
10	0	0	0	0	515	409	
11	0	0	0	0	515	403	
12	0	0	0	0	516	409	
13	0	0	0	0	515	409	
14	0	0	0	0	515	409	
15	0	0	0	0	514	414	
0	0	0	0	0	513	409	
1	0	0	0	0	512	409	
2	0	0	0	0	510	409	
3	0	0	0	0	510	404	
4	0	0	0	0	510	410	
5	0	0	0	0	511	409	
6	0	0	0	0	511	410	
7	0	0	0	0	511	414	
8	0	0	0	0	512	409	
9	0	0	0	0	511	410	
10	0	0	0	0	511	409	
11	0	0	0	0	510	404	
12	0	0	0	0	510	409	
13	0	0	0	0	510	410	
14	0	0	0	0	510	410	
15	0	0	0	0	509	415	
0	0	0	0	0	508	409	
1	0	0	0	0	507	410	
2	0	0	0	0	507	410	
3	0	0	0	0	506	404	
4	0	0	0	0	505	410	
5	0	0	0	0	504	411	
6	0	0	0	0	503	409	
7	0	0	0	0	501	414	
8	0	0	0	0	499	409	
9	0	0	0	0	499	409	
10	0	0	0	0	499	409	
11	0	0	0	0	499	404	
12	0	0	0	0	499	409	
13	0	0	0	0	499	410	
14	0	0	0	0	499	410	
15	0	0	0	0	499	415	
0	0	0	0	0	500	409	
1	0	0	0	0	501	410	
2	0	0	0	0	502	409	
3	0	0	0	0	502	405	
4	0	0	0	0	500	410	
5	0	0	0	0	499	410	
6	0	0	0	0	500	409	
7	0	0	0	0	500	414	
8	0	0	0	0	500	409	
9	0	0	0	0	499	409	
10	0	0	0	0	499	409	
11	0	0	0	0	497	404	
12	0	0	0	0	496	409	
13	0	0	0	0	496	409	
14	0	0	0	0	496	409	
15	0	0	0	0	496	413	
0	0	0	0	0	495	408	
1	0	0	0	0	493	408	
2	0	0	0	0	492	409	
3	0	0	0	0	491	404	
4	0	0	0	0	490	409	
5	0	0	0	0	490	408	
6	0	0	0	0	490	408	
7	0	0	0	0	492	413	
8	0	0	0	0	492	409	
9	0	0	0	0	492	408	
10	0	0	0	0	491	409	
11	0	0	0	0	491	404	
12	0	0	0	0	491	409	
13	0	0	0	0	491	410	
14	0	0	0	0	489	410	
15	0	0	0	0	489	414	
0	0	0	0	0	488	409	
1	0	0	0	0	487	409	
2	0	0	0	0	487	410	
3	0	0	0	0	487	404	
4	0	0	0	0	487	409	
5	0	0	0	0	488	409	
6	0	0	0	0	488	409	
7	0	0	0	0	488	414	
8	0	0	0	0	488	409	
9	0	0	0	0	487	409	
10	0	0	0	0	488	409	
11	0	0	0	0	488	403	
12	0	0	0	0	488	409	
13	0	0	0	0	489	409	
14	0	0	0	0	489	410	
15	0	0	0	0	489	414	
0	0	0	0	0	489	409	
1	0	0	0	0	488	409	
2	0	0	0	0	487	409	
3	0	0	0	0	488	404	
4	0	0	0	0	487	409	
5	0	0	0	0	487	410	
6	0	0	0	0	487	410	
7	0	0	0	0	486	415	
8	0	0	0	0	486	410	
9	0	0	0	0	486	409	
10	0	0	0	0	484	409	
11	0	0	0	0	484	404	
12	0	0	0	0	483	410	
13	0	0	0	0	482	409	
14	0	0	0	0	482	409	
15	0	0	0	0	481	414	
0	0	0	0	0	481	409	
1	0	0	0	0	480	409	
2	0	0	0	0	480	409	
3	0	0	0	0	480	404	
4	0	0	0	0	479	409	
5	0	0	0	0	479	409	
6	0	0	0	0	479	410	
7	0	0	0	0	480	414	
8	0	0	0	0	481	409	
9	0	0	0	0	482	409	
10	0	0	0	0	484	409	
11	0	0	0	0	485	404	
12	0	0	0	0	485	409	
13	0	0	0	0	484	409	
14	0	0	0	0	484	409	
15	0	0	0	0	483	413	
0	0	0	0	0	482	409	
1	0	0	0	0	481	409	
2	0	0	0	0	480	409	
3	0	0	0	0	479	404	
4	0	0	0	0	478	409	
5	0	0	0	0	476	409	
6	0	0	0	0	475	409	
7	0	0	0	0	474	415	
8	0	0	0	0	475	410	
9	0	0	0	0	476	411	
10	0	0	0	0	476	410	
11	0	0	0	0	476	405	
12	0	0	0	0	477	411	
13	0	0	0	0	477	410	
14	0	0	0	0	478	410	
15	0	0	0	0	477	415	
0	0	0	0	0	475	409	
1	0	0	0	0	474	410	
2	0	0	0	0	474	410	
3	0	0	0	0	474	405	
4	0	0	0	0	475	409	
5	0	0	0	0	476	409	
6	0	0	0	0	478	410	
7	0	0	0	0	480	414	
8	0	0	0	0	481	409	
9	0	0	0	0	482	409	
10	0	0	0	0	483	409	
11	0	0	0	0	483	404	
12	0	0	0	0	483	409	
13	0	0	0	0	484	410	
14	0	0	0	0	484	410	
15	0	0	0	0	484	415	
0	0	0	0	0	484	410	
1	0	0	0	0	483	410	
2	0	0	0	0	483	410	
3	0	0	0	0	483	404	
4	0	0	0	0	484	410	
5	0	0	0	0	485	410	
6	0	0	0	0	487	409	
7	0	0	0	0	487	415	
8	0	0	0	0	487	410	
9	0	0	0	0	487	410	
10	0	0	0	0	487	410	
11	0	0	0	0	487	404	
12	0	0	0	0	487	409	
13	0	0	0	0	487	410	
14	0	0	0	0	487	409	
15	0	0	0	0	487	415	
0	0	0	0	0	487	409	
1	0	0	0	0	487	409	
2	0	0	0	0	488	409	
3	0	0	0	0	489	404	
4	0	0	0	0	490	409	
5	0	0	0	0	492	409	
6	0	0	0	0	492	409	
7	0	0	0	0	492	414	
8	0	0	0	0	492	409	
9	0	0	0	0	492	409	
10	0	0	0	0	492	408	
11	0	0	0	0	491	403	
12	0	0	0	0	490	408	
13	0	0	0	0	491	408	
14	0	0	0	0	491	409	
15	0	0	0	0	490	413	
0	0	0	0	0	491	408	
1	0	0	0	0	491	408	
2	0	0	0	0	491	408	
3	0	0	0	0	490	403	
4	0	0	0	0	489	408	
5	0	0	0	0	487	408	
6	0	0	0	0	486	408	
7	0	0	0	0	484	413	
8	0	0	0	0	484	408	
9	0	0	0	0	483	408	
10	0	0	0	0	483	408	
11	0	0	0	0	483	403	
12	0	0	0	0	484	408	
13	0	0	0	0	484	408	
14	0	0	0	0	484	408	
15	0	0	0	0	483	412	
0	0	0	0	0	482	408	
1	0	0	0	0	480	408	
2	0	0	0	0	479	408	
3	0	0	0	0	479	402	
4	0	0	0	0	478	408	
5	0	0	0	0	478	409	
6	0	0	0	0	477	408	
7	0	0	0	0	476	413	
8	0	0	0	0	475	408	
9	0	0	0	0	475	408	
10	0	0	0	0	475	408	
11	0	0	0	0	475	404	
12	0	0	0	0	476	409	
13	0	0	0	0	476	409	
14	0	0	0	0	477	409	
15	0	0	0	0	477	414	
0	0	0	0	0	478	409	
1	0	0	0	0	477	410	
2	0	0	0	0	477	409	
3	0	0	0	0	478	405	
4	0	0	0	0	477	410	
5	0	0	0	0	477	409	
6	0	0	0	0	476	410	
7	0	0	0	0	476	414	
8	0	0	0	0	476	409	
9	0	0	0	0	476	409	
10	0	0	0	0	475	410	
11	0	0	0	0	474	405	
12	0	0	0	0	474	409	
13	0	0	0	0	473	411	
14	0	0	0	0	473	411	
15	0	0	0	0	473	415	
0	0	0	0	0	473	410	
1	0	0	0	0	473	411	
2	0	0	0	0	474	409	
3	0	0	0	0	475	406	
4	0	0	0	0	477	410	
5	0	0	0	0	479	411	
6	0	0	0	0	480	411	
7	0	0	0	0	480	415	
8	0	0	0	0	481	411	
9	0	0	0	0	481	411	
10	0	0	0	0	481	410	
11	0	0	0	0	480	405	
12	0	0	0	0	480	411	
13	0	0	0	0	479	410	
14	0	0	0	0	477	411	
15	0	0	0	0	476	415	
0	0	0	0	0	474	411	
1	0	0	0	0	474	410	
2	0	0	0	0	474	410	
3	0	0	0	0	476	405	
4	0	0	0	0	476	411	
5	0	0	0	0	476	410	
6	0	0	0	0	475	410	
7	0	0	0	0	474	415	
8	0	0	0	0	474	411	
9	0	0	0	0	473	410	
10	0	0	0	0	472	410	
11	0	0	0	0	472	405	
12	0	0	0	0	471	411	
13	0	0	0	0	471	411	
14	0	0	0	0	470	411	
15	0	0	0	0	471	415	
0	0	0	0	0	472	411	
1	0	0	0	0	473	410	
2	0	0	0	0	473	410	
3	0	0	0	0	474	405	
4	0	0	0	0	474	411	
5	0	0	0	0	474	411	
6	0	0	0	0	475	411	
7	0	0	0	0	475	415	
8	0	0	0	0	475	411	
9	0	0	0	0	473	410	
10	0	0	0	0	473	410	
11	0	0	0	0	473	406	
12	0	0	0	0	472	410	
13	0	0	0	0	471	410	
14	0	0	0	0	472	411	
15	0	0	0	0	472	414	
0	0	0	0	0	474	410	
1	0	0	0	0	475	410	
2	0	0	0	0	476	410	
3	0	0	0	0	477	405	
4	0	0	0	0	478	409	
5	0	0	0	0	478	409	
6	0	0	0	0	478	409	
7	0	0	0	0	478	414	
8	0	0	0	0	478	410	
9	0	0	0	0	479	409	
10	0	0	0	0	479	410	
11	0	0	0	0	479	405	
12	0	0	0	0	479	410	
13	0	0	0	0	479	410	
14	0	0	0	0	479	410	
15	0	0	0	0	480	415	
0	0	0	0	0	481	409	
1	0	0	0	0	481	409	
2	0	0	0	0	483	408	
3	0	0	0	0	483	404	
4	0	0	0	0	485	410	
5	0	0	0	0	487	410	
6	0	0	0	0	488	409	
7	0	0	0	0	490	413	
8	0	0	0	0	492	409	
9	0	0	0	0	492	409	
10	0	0	0	0	494	409	
11	0	0	0	0	493	404	
12	0	0	0	0	492	409	
13	0	0	0	0	491	409	
14	0	0	0	0	489	409	
15	0	0	0	0	488	414	
0	0	0	0	0	487	408	
1	0	0	0	0	487	409	
2	0	0	0	0	487	409	
3	0	0	0	0	487	403	
4	0	0	0	0	487	409	
5	0	0	0	0	488	409	
6	0	0	0	0	488	409	
7	0	0	0	0	489	413	
8	0	0	0	0	489	408	
9	0	0	0	0	491	408	
10	0	0	0	0	491	408	
11	0	0	0	0	491	403	
12	0	0	0	0	491	408	
13	0	0	0	0	491	408	
14	0	0	0	0	491	408	
15	0	0	0	0	492	413	
0	0	0	0	0	492	408	
1	0	0	0	0	493	408	
2	0	0	0	0	494	408	
3	0	0	0	0	495	404	
4	0	0	0	0	495	408	
5	0	0	0	0	495	408	
6	0	0	0	0	494	408	
7	0	0	0	0	495	413	
8	0	0	0	0	495	409	
9	0	0	0	0	496	409	
10	0	0	0	0	496	409	
11	0	0	0	0	495	404	
12	0	0	0	0	494	409	
13	0	0	0	0	493	409	
14	0	0	0	0	492	409	
15	0	0	0	0	491	414	
0	0	0	0	0	491	409	
1	0	0	0	0	491	409	
2	0	0	0	0	491	409	
3	0	0	0	0	490	403	
4	0	0	0	0	490	409	
5	0	0	0	0	489	409	
6	0	0	0	0	489	410	
7	0	0	0	0	489	414	
8	0	0	0	0	490	409	
9	0	0	0	0	489	409	
10	0	0	0	0	490	409	
11	0	0	0	0	491	405	
12	0	0	0	0	492	410	
13	0	0	0	0	494	410	
14	0	0	0	0	496	409	
15	0	0	0	0	497	414	
0	0	0	0	0	497	410	
1	0	0	0	0	497	409	
2	0	0	0	0	496	409	
3	0	0	0	0	496	404	
4	0	0	0	0	495	409	
5	0	0	0	0	495	409	
6	0	0	0	0	495	409	
7	0	0	0	0	495	414	
8	0	0	0	0	495	409	
9	0	0	0	0	496	410	
10	0	0	0	0	497	409	
11	0	0	0	0	498	405	
12	0	0	0	0	499	411	
13	0	0	0	0	499	411	
14	0	0	0	0	499	410	
15	0	0	0	0	501	415	
0	0	0	0	0	502	409	
1	0	0	0	0	502	410	
2	0	0	0	0	501	410	
3	0	0	0	0	500	405	
4	0	0	0	0	500	409	
5	0	0	0	0	500	411	
6	0	0	0	0	500	410	
7	0	0	0	0	501	415	
8	0	0	0	0	501	410	
9	0	0	0	0	499	410	
10	0	0	0	0	498	409	
11	0	0	0	0	498	405	
12	0	0	0	0	497	410	
13	0	0	0	0	497	410	
14	0	0	0	0	496	410	
15	0	0	0	0	496	415	
0	0	0	0	0	495	409	
1	0	0	0	0	496	409	
2	0	0	0	0	496	409	
3	0	0	0	0	496	405	
4	0	0	0	0	498	409	
5	0	0	0	0	499	409	
6	0	0	0	0	500	410	
7	0	0	0	0	500	414	
8	0	0	0	0	501	409	
9	0	0	0	0	501	409	
10	0	0	0	0	499	409	
11	0	0	0	0	498	405	
12	0	0	0	0	497	409	
13	0	0	0	0	496	409	
14	0	0	0	0	495	409	
15	0	0	0	0	495	414	
0	0	0	0	0	494	409	
1	0	0	0	0	494	409	
2	0	0	0	0	493	409	
3	0	0	0	0	492	404	
4	0	0	0	0	492	409	
5	0	0	0	0	492	409	
6	0	0	0	0	490	409	
7	0	0	0	0	487	414	
8	0	0	0	0	486	409	
9	0	0	0	0	483	409	
10	0	0	0	0	480	409	
11	0	0	0	0	476	403	
12	0	0	0	0	473	409	
13	0	0	0	0	467	409	
14	0	0	0	0	462	409	
15	0	0	0	0	457	414	
0	0	0	0	0	451	409	
1	0	0	0	0	446	409	
2	0	0	0	0	440	409	
3	0	0	0	0	435	404	
4	0	0	0	0	431	408	
5	0	0	0	0	427	409	
6	0	0	0	0	425	409	
7	0	0	0	0	425	413	
8	0	0	0	0	427	408	
9	0	0	0	0	432	409	
10	0	0	0	0	436	408	
11	0	0	0	0	442	403	
12	0	0	0	0	449	409	
13	0	0	0	0	458	408	
14	0	0	0	0	468	408	
15	0	0	0	0	478	413	
0	0	0	0	0	488	408	
1	0	0	0	0	498	408	
2	0	0	0	0	509	408	
3	0	0	0	0	520	403	
4	0	0	0	0	530	409	
5	0	0	0	0	541	409	
6	0	0	0	0	552	409	
7	0	0	0	0	565	413	
8	0	0	0	0	578	408	
9	0	0	0	0	590	408	
10	0	0	0	0	601	408	
11	0	0	0	0	611	403	
12	0	0	0	0	620	408	
13	0	0	0	0	627	408	
14	0	0	0	0	634	409	
15	0	0	0	0	638	414	
0	0	0	0	0	640	409	
1	0	0	0	0	643	409	
2	0	0	0	0	643	409	
3	0	0	0	0	642	405	
4	0	0	0	0	640	409	
5	0	0	0	0	638	411	
6	0	0	0	0	633	410	
7	0	0	0	0	628	415	
8	0	0	0	0	623	411	
9	0	0	0	0	618	410	
10	0	0	0	0	611	409	
11	0	0	0	0	604	405	
12	0	0	0	0	596	411	
13	0	0	0	0	588	410	
14	0	0	0	0	580	411	
15	0	0	0	0	572	415	
0	0	0	0	0	563	410	
1	0	0	0	0	555	410	
2	0	0	0	0	548	410	
3	0	0	0	0	541	405	
4	0	0	0	0	536	410	
5	0	0	0	0	531	410	
6	0	0	0	0	527	410	
7	0	0	0	0	524	415	
8	0	0	0	0	521	410	
9	0	0	0	0	519	410	
10	0	0	0	0	519	410	
11	0	0	0	0	519	405	
12	0	0	0	0	518	410	
13	0	0	0	0	517	410	
14	0	0	0	0	516	410	
15	0	0	0	0	515	414	
0	0	0	0	0	514	410	
1	0	0	0	0	513	409	
2	0	0	0	0	512	409	
3	0	0	0	0	511	404	
4	0	0	0	0	510	409	
5	0	0	0	0	509	409	
6	0	0	0	0	508	409	
7	0	0	0	0	508	415	
8	0	0	0	0	510	410	
9	0	0	0	0	510	409	
10	0	0	0	0	510	409	
11	0	0	0	0	510	404	
12	0	0	0	0	511	411	
13	0	0	0	0	512	409	
14	0	0	0	0	512	409	
15	0	0	0	0	512	414	
0	0	0	0	0	514	409	
1	0	0	0	0	514	409	
2	0	0	0	0	514	410	
3	0	0	0	0	514	404	
4	0	0	0	0	515	409	
5	0	0	0	0	515	409	
6	0	0	0	0	515	409	
7	0	0	0	0	516	414	
8	0	0	0	0	517	409	
9	0	0	0	0	517	409	
10	0	0	0	0	517	409	
11	0	0	0	0	516	404	
12	0	0	0	0	516	410	
13	0	0	0	0	516	410	
14	0	0	0	0	516	410	
15	0	0	0	0	516	414	
0	0	0	0	0	514	410	
1	0	0	0	0	514	410	
2	0	0	0	0	514	410	
3	0	0	0	0	516	405	
4	0	0	0	0	517	410	
5	0	0	0	0	519	410	
6	0	0	0	0	519	409	
7	0	0	0	0	521	414	
8	0	0	0	0	521	409	
9	0	0	0	0	521	410	
10	0	0	0	0	523	409	
11	0	0	0	0	524	404	
12	0	0	0	0	524	410	
13	0	0	0	0	527	409	
14	0	0	0	0	529	409	
15	0	0	0	0	531	414	
0	0	0	0	0	531	410	
1	0	0	0	0	532	409	
2	0	0	0	0	534	409	
3	0	0	0	0	534	404	
4	0	0	0	0	535	409	
5	0	0	0	0	536	409	
6	0	0	0	0	536	410	
7	0	0	0	0	536	414	
8	0	0	0	0	536	409	
9	0	0	0	0	537	409	
10	0	0	0	0	538	408	
11	0	0	0	0	539	404	
12	0	0	0	0	539	409	
13	0	0	0	0	540	409	
14	0	0	0	0	541	409	
15	0	0	0	0	541	413	
0	0	0	0	0	542	408	
1	0	0	0	0	543	408	
2	0	0	0	0	543	408	
3	0	0	0	0	543	403	
4	0	0	0	0	544	408	
5	0	0	0	0	545	408	
6	0	0	0	0	547	408	
7	0	0	0	0	549	413	
8	0	0	0	0	550	409	
9	0	0	0	0	551	409	
10	0	0	0	0	551	409	
11	0	0	0	0	553	403	
12	0	0	0	0	553	409	
13	0	0	0	0	553	409	
14	0	0	0	0	553	408	
15	0	0	0	0	551	413	
0	0	0	0	0	551	408	
1	0	0	0	0	551	408	
2	0	0	0	0	550	409	
3	0	0	0	0	549	403	
4	0	0	0	0	548	409	
5	0	0	0	0	549	408	
6	0	0	0	0	549	408	
7	0	0	0	0	549	413	
8	0	0	0	0	549	408	
9	0	0	0	0	548	407	
10	0	0	0	0	548	407	
11	0	0	0	0	548	402	
12	0	0	0	0	548	408	
13	0	0	0	0	547	407	
14	0	0	0	0	545	408	
15	0	0	0	0	544	412	
0	0	0	0	0	542	408	
1	0	0	0	0	543	408	
2	0	0	0	0	544	408	
3	0	0	0	0	544	404	
4	0	0	0	0	544	409	
5	0	0	0	0	545	409	
6	0	0	0	0	545	409	
7	0	0	0	0	547	414	
8	0	0	0	0	548	408	
9	0	0	0	0	547	409	
10	0	0	0	0	547	409	
11	0	0	0	0	549	404	
12	0	0	0	0	550	409	
13	0	0	0	0	551	409	
14	0	0	0	0	552	409	
15	0	0	0	0	553	414	
0	0	0	0	0	555	409	
1	0	0	0	0	556	409	
2	0	0	0	0	556	409	
3	0	0	0	0	555	404	
4	0	0	0	0	555	410	
5	0	0	0	0	556	409	
6	0	0	0	0	556	410	
7	0	0	0	0	556	414	
8	0	0	0	0	555	409	
9	0	0	0	0	555	410	
10	0	0	0	0	555	410	
11	0	0	0	0	555	404	
12	0	0	0	0	554	410	
13	0	0	0	0	553	410	
14	0	0	0	0	554	411	
15	0	0	0	0	554	415	
0	0	0	0	0	554	410	
1	0	0	0	0	553	409	
2	0	0	0	0	553	409	
3	0	0	0	0	552	405	
4	0	0	0	0	552	410	
5	0	0	0	0	552	410	
6	0	0	0	0	553	410	
7	0	0	0	0	552	415	
8	0	0	0	0	551	409	
9	0	0	0	0	551	409	
10	0	0	0	0	550	409	
11	0	0	0	0	547	405	
12	0	0	0	0	547	411	
13	0	0	0	0	547	410	
14	0	0	0	0	547	411	
15	0	0	0	0	547	414	
0	0	0	0	0	546	410	
1	0	0	0	0	544	410	
2	0	0	0	0	543	410	
3	0	0	0	0	543	406	
4	0	0	0	0	541	410	
5	0	0	0	0	540	411	
6	0	0	0	0	539	411	
7	0	0	0	0	537	415	
8	0	0	0	0	537	411	
9	0	0	0	0	536	411	
10	0	0	0	0	535	411	
11	0	0	0	0	536	405	
12	0	0	0	0	536	411	
13	0	0	0	0	537	410	
14	0	0	0	0	537	410	
15	0	0	0	0	538	415	
0	0	0	0	0	539	411	
1	0	0	0	0	539	411	
2	0	0	0	0	540	410	
3	0	0	0	0	540	404	
4	0	0	0	0	541	410	
5	0	0	0	0	543	410	
6	0	0	0	0	543	410	
7	0	0	0	0	544	414	
8	0	0	0	0	543	409	
9	0	0	0	0	542	409	
10	0	0	0	0	542	409	
11	0	0	0	0	541	404	
12	0	0	0	0	540	409	
13	0	0	0	0	539	410	
14	0	0	0	0	539	410	
15	0	0	0	0	539	414	
0	0	0	0	0	539	409	
1	0	0	0	0	537	409	
2	0	0	0	0	537	408	
3	0	0	0	0	537	403	
4	0	0	0	0	539	409	
5	0	0	0	0	539	409	
6	0	0	0	0	538	409	
7	0	0	0	0	537	414	
8	0	0	0	0	540	409	
9	0	0	0	0	541	409	
10	0	0	0	0	543	409	
11	0	0	0	0	544	403	
12	0	0	0	0	545	409	
13	0	0	0	0	545	408	
14	0	0	0	0	545	409	
15	0	0	0	0	545	414	
0	0	0	0	0	545	409	
1	0	0	0	0	544	409	
2	0	0	0	0	544	408	
3	0	0	0	0	544	404	
4	0	0	0	0	545	408	
5	0	0	0	0	546	408	
6	0	0	0	0	547	408	
7	0	0	0	0	548	413	
8	0	0	0	0	548	409	
9	0	0	0	0	548	409	
10	0	0	0	0	548	408	
11	0	0	0	0	547	403	
12	0	0	0	0	545	408	
13	0	0	0	0	543	409	
14	0	0	0	0	542	409	
15	0	0	0	0	541	413	
0	0	0	0	0	541	409	
1	0	0	0	0	539	408	
2	0	0	0	0	540	408	
3	0	0	0	0	541	403	
4	0	0	0	0	543	408	
5	0	0	0	0	545	408	
6	0	0	0	0	545	409	
7	0	0	0	0	544	413	
8	0	0	0	0	543	409	
9	0	0	0	0	542	409	
10	0	0	0	0	542	409	
11	0	0	0	0	542	404	
12	0	0	0	0	542	410	
13	0	0	0	0	542	410	
14	0	0	0	0	541	409	
15	0	0	0	0	540	414	
0	0	0	0	0	539	410	
1	0	0	0	0	539	409	
2	0	0	0	0	539	409	
3	0	0	0	0	538	405	
4	0	0	0	0	538	409	
5	0	0	0	0	537	410	
6	0	0	0	0	537	410	
7	0	0	0	0	537	414	
8	0	0	0	0	538	409	
9	0	0	0	0	538	409	
10	0	0	0	0	539	409	
11	0	0	0	0	538	404	
12	0	0	0	0	538	409	
13	0	0	0	0	538	409	
14	0	0	0	0	538	409	
15	0	0	0	0	540	413	
0	0	0	0	0	542	409	
1	0	0	0	0	542	409	
2	0	0	0	0	542	408	
3	0	0	0	0	542	404	
4	0	0	0	0	543	409	
5	0	0	0	0	543	409	
6	0	0	0	0	542	410	
7	0	0	0	0	540	414	
8	0	0	0	0	540	409	
9	0	0	0	0	539	409	
10	0	0	0	0	539	409	
11	0	0	0	0	538	404	
12	0	0	0	0	537	410	
13	0	0	0	0	537	409	
14	0	0	0	0	537	410	
15	0	0	0	0	536	415	
0	0	0	0	0	537	410	
1	0	0	0	0	536	409	
2	0	0	0	0	536	409	
3	0	0	0	0	536	404	
4	0	0	0	0	536	410	
5	0	0	0	0	535	409	
6	0	0	0	0	534	410	
7	0	0	0	0	534	414	
8	0	0	0	0	533	409	
9	0	0	0	0	531	409	
10	0	0	0	0	530	409	
11	0	0	0	0	530	404	
12	0	0	0	0	529	409	
13	0	0	0	0	527	409	
14	0	0	0	0	527	410	
15	0	0	0	0	526	413	
0	0	0	0	0	526	409	
1	0	0	0	0	526	409	
2	0	0	0	0	526	409	
3	0	0	0	0	526	403	
4	0	0	0	0	525	408	
5	0	0	0	0	524	409	
6	0	0	0	0	525	408	
7	0	0	0	0	525	413	
8	0	0	0	0	526	408	
9	0	0	0	0	525	408	
10	0	0	0	0	525	408	
11	0	0	0	0	526	403	
12	0	0	0	0	526	408	
13	0	0	0	0	525	408	
14	0	0	0	0	525	408	
15	0	0	0	0	525	414	
0	0	0	0	0	525	409	
1	0	0	0	0	525	409	
2	0	0	0	0	524	408	
3	0	0	0	0	524	403	
4	0	0	0	0	523	408	
5	0	0	0	0	523	408	
6	0	0	0	0	524	409	
7	0	0	0	0	524	414	
8	0	0	0	0	524	409	
9	0	0	0	0	524	409	
10	0	0	0	0	523	409	
11	0	0	0	0	522	404	
12	0	0	0	0	521	409	
13	0	0	0	0	520	409	
14	0	0	0	0	519	409	
15	0	0	0	0	520	414	
0	0	0	0	0	520	409	
1	0	0	0	0	519	409	
2	0	0	0	0	518	409	
3	0	0	0	0	517	404	
4	0	0	0	0	515	409	
5	0	0	0	0	515	410	
6	0	0	0	0	513	410	
7	0	0	0	0	512	414	
8	0	0	0	0	510	408	
9	0	0	0	0	510	409	
10	0	0	0	0	510	408	
11	0	0	0	0	511	404	
12	0	0	0	0	512	410	
13	0	0	0	0	513	410	
14	0	0	0	0	515	410	
15	0	0	0	0	515	414	
0	0	0	0	0	515	409	
1	0	0	0	0	515	410	
2	0	0	0	0	514	410	
3	0	0	0	0	513	405	
4	0	0	0	0	514	410	
5	0	0	0	0	513	411	
6	0	0	0	0	513	411	
7	0	0	0	0	514	415	
8	0	0	0	0	515	410	
9	0	0	0	0	515	411	
10	0	0	0	0	515	410	
11	0	0	0	0	516	405	
12	0	0	0	0	516	411	
13	0	0	0	0	515	411	
14	0	0	0	0	514	411	
15	0	0	0	0	512	415	
0	0	0	0	0	512	411	
1	0	0	0	0	512	411	
2	0	0	0	0	512	410	
3	0	0	0	0	513	405	
4	0	0	0	0	514	410	
5	0	0	0	0	515	410	
6	0	0	0	0	513	411	
7	0	0	0	0	513	415	
8	0	0	0	0	514	410	
9	0	0	0	0	515	411	
10	0	0	0	0	516	411	
11	0	0	0	0	516	405	
12	0	0	0	0	515	411	
13	0	0	0	0	515	411	
14	0	0	0	0	515	411	
15	0	0	0	0	514	415	
0	0	0	0	0	512	410	
1	0	0	0	0	510	410	
2	0	0	0	0	508	410	
3	0	0	0	0	507	405	
4	0	0	0	0	505	410	
5	0	0	0	0	505	410	
6	0	0	0	0	505	411	
7	0	0	0	0	504	414	
8	0	0	0	0	505	410	
9	0	0	0	0	504	411	
10	0	0	0	0	504	411	
11	0	0	0	0	502	405	
12	0	0	0	0	501	411	
13	0	0	0	0	502	410	
14	0	0	0	0	502	411	
15	0	0	0	0	503	415	
0	0	0	0	0	504	411	
1	0	0	0	0	504	409	
2	0	0	0	0	503	410	
3	0	0	0	0	503	404	
4	0	0	0	0	502	409	
5	0	0	0	0	502	409	
6	0	0	0	0	501	411	
7	0	0	0	0	501	414	
8	0	0	0	0	503	409	
9	0	0	0	0	503	410	
10	0	0	0	0	504	409	
11	0	0	0	0	505	404	
12	0	0	0	0	506	409	
13	0	0	0	0	507	409	
14	0	0	0	0	508	409	
15	0	0	0	0	507	414	
0	0	0	0	0	505	409	
1	0	0	0	0	504	409	
2	0	0	0	0	503	409	
3	0	0	0	0	501	403	
4	0	0	0	0	500	409	
5	0	0	0	0	498	409	
6	0	0	0	0	496	409	
7	0	0	0	0	495	414	
8	0	0	0	0	495	409	
9	0	0	0	0	495	408	
10	0	0	0	0	496	409	
11	0	0	0	0	496	404	
12	0	0	0	0	496	409	
13	0	0	0	0	495	409	
14	0	0	0	0	495	410	
15	0	0	0	0	495	414	
0	0	0	0	0	496	409	
1	0	0	0	0	496	409	
2	0	0	0	0	495	409	
3	0	0	0	0	495	404	
4	0	0	0	0	495	408	
5	0	0	0	0	496	409	
6	0	0	0	0	497	410	
7	0	0	0	0	497	415	
8	0	0	0	0	496	410	
9	0	0	0	0	496	410	
10	0	0	0	0	497	409	
11	0	0	0	0	498	404	
12	0	0	0	0	499	409	
13	0	0	0	0	499	409	
14	0	0	0	0	498	409	
15	0	0	0	0	497	414	
0	0	0	0	0	497	409	
1	0	0	0	0	496	409	
2	0	0	0	0	495	409	
3	0	0	0	0	494	404	
4	0	0	0	0	494	409	
5	0	0	0	0	494	409	
6	0	0	0	0	493	409	
7	0	0	0	0	493	415	
8	0	0	0	0	493	409	
9	0	0	0	0	494	409	
10	0	0	0	0	494	409	
11	0	0	0	0	494	404	
12	0	0	0	0	494	409	
13	0	0	0	0	494	410	
14	0	0	0	0	493	410	
15	0	0	0	0	491	414	
0	0	0	0	0	492	409	
1	0	0	0	0	491	410	
2	0	0	0	0	491	409	
3	0	0	0	0	491	404	
4	0	0	0	0	491	410	
5	0	0	0	0	491	409	
6	0	0	0	0	492	410	
7	0	0	0	0	492	415	
8	0	0	0	0	493	410	
9	0	0	0	0	492	409	
10	0	0	0	0	492	409	
11	0	0	0	0	492	404	
12	0	0	0	0	492	409	
13	0	0	0	0	491	410	
14	0	0	0	0	492	410	
15	0	0	0	0	493	414	
0	0	0	0	0	494	409	
1	0	0	0	0	494	409	
2	0	0	0	0	495	410	
3	0	0	0	0	497	404	
4	0	0	0	0	497	410	
5	0	0	0	0	497	409	
6	0	0	0	0	496	409	
7	0	0	0	0	496	414	
8	0	0	0	0	497	409	
9	0	0	0	0	497	409	
10	0	0	0	0	498	409	
11	0	0	0	0	497	405	
12	0	0	0	0	496	410	
13	0	0	0	0	496	409	
14	0	0	0	0	494	409	
15	0	0	0	0	494	414	
0	0	0	0	0	493	409	
1	0	0	0	0	492	409	
2	0	0	0	0	492	410	
3	0	0	0	0	492	404	
4	0	0	0	0	492	409	
5	0	0	0	0	492	409	
6	0	0	0	0	492	410	
7	0	0	0	0	492	414	
8	0	0	0	0	491	409	
9	0	0	0	0	490	409	
10	0	0	0	0	491	409	
11	0	0	0	0	491	404	
12	0	0	0	0	490	409	
13	0	0	0	0	490	409	
14	0	0	0	0	490	409	
15	0	0	0	0	490	414	
0	0	0	0	0	491	409	
1	0	0	0	0	492	409	
2	0	0	0	0	493	409	
3	0	0	0	0	494	405	
4	0	0	0	0	495	410	
5	0	0	0	0	495	410	
6	0	0	0	0	496	410	
7	0	0	0	0	497	414	
8	0	0	0	0	497	410	
9	0	0	0	0	496	409	
10	0	0	0	0	495	410	
11	0	0	0	0	495	404	
12	0	0	0	0	496	409	
13	0	0	0	0	497	409	
14	0	0	0	0	497	409	
15	0	0	0	0	498	414	
0	0	0	0	0	498	409	
1	0	0	0	0	499	408	
2	0	0	0	0	500	408	
3	0	0	0	0	500	404	
4	0	0	0	0	500	408	
5	0	0	0	0	499	409	
6	0	0	0	0	498	409	
7	0	0	0	0	497	414	
8	0	0	0	0	496	409	
9	0	0	0	0	496	409	
10	0	0	0	0	496	408	
11	0	0	0	0	495	403	
12	0	0	0	0	495	409	
13	0	0	0	0	496	409	
14	0	0	0	0	496	410	
15	0	0	0	0	496	414	
0	0	0	0	0	497	409	
1	0	0	0	0	497	409	
2	0	0	0	0	497	408	
3	0	0	0	0	496	403	
4	0	0	0	0	494	409	
5	0	0	0	0	492	408	
6	0	0	0	0	492	409	
7	0	0	0	0	491	414	
8	0	0	0	0	490	409	
9	0	0	0	0	488	409	
10	0	0	0	0	487	408	
11	0	0	0	0	487	403	
12	0	0	0	0	487	409	
13	0	0	0	0	486	409	
14	0	0	0	0	487	409	
15	0	0	0	0	487	414	
0	0	0	0	0	487	409	
1	0	0	0	0	488	409	
2	0	0	0	0	487	408	
3	0	0	0	0	488	404	
4	0	0	0	0	488	408	
5	0	0	0	0	489	409	
6	0	0	0	0	490	409	
7	0	0	0	0	492	413	
8	0	0	0	0	493	409	
9	0	0	0	0	494	409	
10	0	0	0	0	495	409	
11	0	0	0	0	495	403	
12	0	0	0	0	495	409	
13	0	0	0	0	493	408	
14	0	0	0	0	492	409	
15	0	0	0	0	490	413	
0	0	0	0	0	489	408	
1	0	0	0	0	487	408	
2	0	0	0	0	486	408	
3	0	0	0	0	486	402	
4	0	0	0	0	487	408	
5	0	0	0	0	488	408	
6	0	0	0	0	489	408	
7	0	0	0	0	490	413	
8	0	0	0	0	491	408	
9	0	0	0	0	492	408	
10	0	0	0	0	492	408	
11	0	0	0	0	492	403	
12	0	0	0	0	491	408	
13	0	0	0	0	491	408	
14	0	0	0	0	491	409	
15	0	0	0	0	492	413	
0	0	0	0	0	492	408	
1	0	0	0	0	492	408	
2	0	0	0	0	492	408	
3	0	0	0	0	491	403	
4	0	0	0	0	490	409	
5	0	0	0	0	489	409	
6	0	0	0	0	490	409	
7	0	0	0	0	490	414	
8	0	0	0	0	491	409	
9	0	0	0	0	491	410	
10	0	0	0	0	490	410	
11	0	0	0	0	489	405	
12	0	0	0	0	487	410	
13	0	0	0	0	487	410	
14	0	0	0	0	487	410	
15	0	0	0	0	486	415	
0	0	0	0	0	486	410	
1	0	0	0	0	485	410	
2	0	0	0	0	486	410	
3	0	0	0	0	486	405	
4	0	0	0	0	486	410	
5	0	0	0	0	486	410	
6	0	0	0	0	485	411	
7	0	0	0	0	484	415	
8	0	0	0	0	484	410	
9	0	0	0	0	484	410	
10	0	0	0	0	482	410	
11	0	0	0	0	482	405	
12	0	0	0	0	481	410	
13	0	0	0	0	480	410	
14	0	0	0	0	479	410	
15	0	0	0	0	478	414	
0	0	0	0	0	479	410	
1	0	0	0	0	479	409	
2	0	0	0	0	480	409	
3	0	0	0	0	480	404	
4	0	0	0	0	480	409	
5	0	0	0	0	480	409	
6	0	0	0	0	480	409	
7	0	0	0	0	479	413	
8	0	0	0	0	478	409	
9	0	0	0	0	477	409	
10	0	0	0	0	477	409	
11	0	0	0	0	475	404	
12	0	0	0	0	473	409	
13	0	0	0	0	474	409	
14	0	0	0	0	475	409	
15	0	0	0	0	475	414	
0	0	0	0	0	475	409	
1	0	0	0	0	475	409	
2	0	0	0	0	475	408	
3	0	0	0	0	474	404	
4	0	0	0	0	473	409	
5	0	0	0	0	473	409	
6	0	0	0	0	472	408	
7	0	0	0	0	472	414	
8	0	0	0	0	471	409	
9	0	0	0	0	471	409	
10	0	0	0	0	471	408	
11	0	0	0	0	469	403	
12	0	0	0	0	468	409	
13	0	0	0	0	467	408	
14	0	0	0	0	467	408	
15	0	0	0	0	466	414	
0	0	0	0	0	465	409	
1	0	0	0	0	464	408	
2	0	0	0	0	463	409	
3	0	0	0	0	462	403	
4	0	0	0	0	460	409	
5	0	0	0	0	459	410	
6	0	0	0	0	459	410	
7	0	0	0	0	458	414	
8	0	0	0	0	459	409	
9	0	0	0	0	460	409	
10	0	0	0	0	460	408	
11	0	0	0	0	460	403	
12	0	0	0	0	459	409	
13	0	0	0	0	458	409	
14	0	0	0	0	458	409	
15	0	0	0	0	457	413	
0	0	0	0	0	457	408	
1	0	0	0	0	457	409	
2	0	0	0	0	457	408	
3	0	0	0	0	456	403	
4	0	0	0	0	456	408	
5	0	0	0	0	456	408	
6	0	0	0	0	456	409	
7	0	0	0	0	456	414	
8	0	0	0	0	456	409	
9	0	0	0	0	457	409	
10	0	0	0	0	458	410	
11	0	0	0	0	458	404	
12	0	0	0	0	457	409	
13	0	0	0	0	457	409	
14	0	0	0	0	458	409	
15	0	0	0	0	458	414	
0	0	0	0	0	460	409	
1	0	0	0	0	461	409	
2	0	0	0	0	462	409	
3	0	0	0	0	462	405	
4	0	0	0	0	463	410	
5	0	0	0	0	465	410	
6	0	0	0	0	465	410	
7	0	0	0	0	466	415	
8	0	0	0	0	467	411	
9	0	0	0	0	468	410	
10	0	0	0	0	469	410	
11	0	0	0	0	469	405	
12	0	0	0	0	468	411	
13	0	0	0	0	469	411	
14	0	0	0	0	470	411	
15	0	0	0	0	471	415	
0	0	0	0	0	472	411	
1	0	0	0	0	472	411	
2	0	0	0	0	472	411	
3	0	0	0	0	472	406	
4	0	0	0	0	472	411	
5	0	0	0	0	472	411	
6	0	0	0	0	472	412	
7	0	0	0	0	472	416	
8	0	0	0	0	472	411	
9	0	0	0	0	472	412	
10	0	0	0	0	472	412	
11	0	0	0	0	473	407	
12	0	0	0	0	472	412	
13	0	0	0	0	472	412	
14	0	0	0	0	471	413	
15	0	0	0	0	470	417	
0	0	0	0	0	470	412	
1	0	0	0	0	471	412	
2	0	0	0	0	470	411	
3	0	0	0	0	469	407	
4	0	0	0	0	469	412	
5	0	0	0	0	469	411	
6	0	0	0	0	470	411	
7	0	0	0	0	470	416	
8	0	0	0	0	471	411	
9	0	0	0	0	471	411	
10	0	0	0	0	472	411	
11	0	0	0	0	474	405	
12	0	0	0	0	474	411	
13	0	0	0	0	474	411	
14	0	0	0	0	475	411	
15	0	0	0	0	476	415	
0	0	0	0	0	476	411	
1	0	0	0	0	477	411	
2	0	0	0	0	477	411	
3	0	0	0	0	477	406	
4	0	0	0	0	478	410	
5	0	0	0	0	477	410	
6	0	0	0	0	476	411	
7	0	0	0	0	476	415	
8	0	0	0	0	476	411	
9	0	0	0	0	476	411	
10	0	0	0	0	476	411	
11	0	0	0	0	477	406	
12	0	0	0	0	477	411	
13	0	0	0	0	477	411	
14	0	0	0	0	476	411	
15	0	0	0	0	475	416	
0	0	0	0	0	474	411	
1	0	0	0	0	474	410	
2	0	0	0	0	475	409	
3	0	0	0	0	476	404	
4	0	0	0	0	476	409	
5	0	0	0	0	477	409	
6	0	0	0	0	478	409	
7	0	0	0	0	478	414	
8	0	0	0	0	479	409	
9	0	0	0	0	480	409	
10	0	0	0	0	480	409	
11	0	0	0	0	479	404	
12	0	0	0	0	478	409	
13	0	0	0	0	478	409	
14	0	0	0	0	477	409	
15	0	0	0	0	477	414	
0	0	0	0	0	476	409	
1	0	0	0	0	476	409	
2	0	0	0	0	475	409	
3	0	0	0	0	473	403	
4	0	0	0	0	472	409	
5	0	0	0	0	473	409	
6	0	0	0	0	473	410	
7	0	0	0	0	473	414	
8	0	0	0	0	473	409	
9	0	0	0	0	473	410	
10	0	0	0	0	474	409	
11	0	0	0	0	474	404	
12	0	0	0	0	474	409	
13	0	0	0	0	474	409	
14	0	0	0	0	473	410	
15	0	0	0	0	472	415	
0	0	0	0	0	472	410	
1	0	0	0	0	472	409	
2	0	0	0	0	473	409	
3	0	0	0	0	473	404	
4	0	0	0	0	473	410	
5	0	0	0	0	474	409	
6	0	0	0	0	474	410	
7	0	0	0	0	474	415	
8	0	0	0	0	475	411	
9	0	0	0	0	475	411	
10	0	0	0	0	474	410	
11	0	0	0	0	475	406	
12	0	0	0	0	474	411	
13	0	0	0	0	473	411	
14	0	0	0	0	472	411	
15	0	0	0	0	472	416	
0	0	0	0	0	471	411	
1	0	0	0	0	469	411	
2	0	0	0	0	467	411	
3	0	0	0	0	467	406	
4	0	0	0	0	466	412	
5	0	0	0	0	466	411	
6	0	0	0	0	465	411	
7	0	0	0	0	465	415	
8	0	0	0	0	464	411	
9	0	0	0	0	463	411	
10	0	0	0	0	462	411	
11	0	0	0	0	462	406	
12	0	0	0	0	462	411	
13	0	0	0	0	462	412	
14	0	0	0	0	463	411	
15	0	0	0	0	463	416	
0	0	0	0	0	464	411	
1	0	0	0	0	464	412	
2	0	0	0	0	463	412	
3	0	0	0	0	463	406	
4	0	0	0	0	463	412	
5	0	0	0	0	463	412	
6	0	0	0	0	462	412	
7	0	0	0	0	461	417	
8	0	0	0	0	460	412	
9	0	0	0	0	459	412	
10	0	0	0	0	457	412	
11	0	0	0	0	455	407	
12	0	0	0	0	451	412	
13	0	0	0	0	448	411	
14	0	0	0	0	443	412	
15	0	0	0	0	438	416	
0	0	0	0	0	433	412	
1	0	0	0	0	428	412	
2	0	0	0	0	423	412	
3	0	0	0	0	417	408	
4	0	0	0	0	412	412	
5	0	0	0	0	407	412	
6	0	0	0	0	402	413	
7	0	0	0	0	398	417	
8	0	0	0	0	395	412	
9	0	0	0	0	393	412	
10	0	0	0	0	391	412	
11	0	0	0	0	391	407	
12	0	0	0	0	393	412	
13	0	0	0	0	397	412	
14	0	0	0	0	402	412	
15	0	0	0	0	409	416	
0	0	0	0	0	418	411	
1	0	0	0	0	428	411	
2	0	0	0	0	438	411	
3	0	0	0	0	450	405	
4	0	0	0	0	461	411	
5	0	0	0	0	473	410	
6	0	0	0	0	484	411	
7	0	0	0	0	496	415	
8	0	0	0	0	507	410	
9	0	0	0	0	516	410	
10	0	0	0	0	527	409	
11	0	0	0	0	538	404	
12	0	0	0	0	549	409	
13	0	0	0	0	559	410	
14	0	0	0	0	568	410	
15	0	0	0	0	576	414	
0	0	0	0	0	583	410	
1	0	0	0	0	590	410	
2	0	0	0	0	596	410	
3	0	0	0	0	601	404	
4	0	0	0	0	605	409	
5	0	0	0	0	608	409	
6	0	0	0	0	609	409	
7	0	0	0	0	608	414	
8	0	0	0	0	606	409	
9	0	0	0	0	602	409	
10	0	0	0	0	596	409	
11	0	0	0	0	589	404	
12	0	0	0	0	583	410	
13	0	0	0	0	575	409	
14	0	0	0	0	568	410	
15	0	0	0	0	562	415	
0	0	0	0	0	555	409	
1	0	0	0	0	547	409	
2	0	0	0	0	539	410	
3	0	0	0	0	529	405	
4	0	0	0	0	520	411	
5	0	0	0	0	512	411	
6	0	0	0	0	505	411	
7	0	0	0	0	498	416	
8	0	0	0	0	492	411	
9	0	0	0	0	487	411	
10	0	0	0	0	482	410	
11	0	0	0	0	479	405	
12	0	0	0	0	476	410	
13	0	0	0	0	473	410	
14	0	0	0	0	471	410	
15	0	0	0	0	469	414	
0	0	0	0	0	468	409	
1	0	0	0	0	465	409	
2	0	0	0	0	463	408	
3	0	0	0	0	461	404	
4	0	0	0	0	460	409	
5	0	0	0	0	458	409	
6	0	0	0	0	457	409	
7	0	0	0	0	456	414	
8	0	0	0	0	457	408	
9	0	0	0	0	457	409	
10	0	0	0	0	459	408	
11	0	0	0	0	459	403	
12	0	0	0	0	459	409	
13	0	0	0	0	459	409	
14	0	0	0	0	459	408	
15	0	0	0	0	459	413	
0	0	0	0	0	460	408	
1	0	0	0	0	461	408	
2	0	0	0	0	462	408	
3	0	0	0	0	462	403	
4	0	0	0	0	462	408	
5	0	0	0	0	462	408	
6	0	0	0	0	461	409	
7	0	0	0	0	462	412	
8	0	0	0	0	463	408	
9	0	0	0	0	462	408	
10	0	0	0	0	463	408	
11	0	0	0	0	463	402	
12	0	0	0	0	463	407	
13	0	0	0	0	462	407	
14	0	0	0	0	462	409	
15	0	0	0	0	462	412	
0	0	0	0	0	462	408	
1	0	0	0	0	461	408	
2	0	0	0	0	461	407	
3	0	0	0	0	461	403	
4	0	0	0	0	462	408	
5	0	0	0	0	462	408	
6	0	0	0	0	462	408	
7	0	0	0	0	461	412	
8	0	0	0	0	460	408	
9	0	0	0	0	459	408	
10	0	0	0	0	460	407	
11	0	0	0	0	460	402	
12	0	0	0	0	461	408	
13	0	0	0	0	462	408	
14	0	0	0	0	464	408	
15	0	0	0	0	465	411	
0	0	0	0	0	467	407	
1	0	0	0	0	468	408	
2	0	0	0	0	469	407	
3	0	0	0	0	470	402	
4	0	0	0	0	471	408	
5	0	0	0	0	471	408	
6	0	0	0	0	471	407	
7	0	0	0	0	469	412	
8	0	0	0	0	468	408	
9	0	0	0	0	467	408	
10	0	0	0	0	465	408	
11	0	0	0	0	464	403	
12	0	0	0	0	464	408	
13	0	0	0	0	464	408	
14	0	0	0	0	464	409	
15	0	0	0	0	465	412	
0	0	0	0	0	466	408	
1	0	0	0	0	467	408	
2	0	0	0	0	468	408	
3	0	0	0	0	470	404	
4	0	0	0	0	471	408	
5	0	0	0	0	472	408	
6	0	0	0	0	473	407	
7	0	0	0	0	474	412	
8	0	0	0	0	474	407	
9	0	0	0	0	474	408	
10	0	0	0	0	474	407	
11	0	0	0	0	474	403	
12	0	0	0	0	475	408	
13	0	0	0	0	477	408	
14	0	0	0	0	478	408	
15	0	0	0	0	480	413	
0	0	0	0	0	481	408	
1	0	0	0	0	482	408	
2	0	0	0	0	483	408	
3	0	0	0	0	483	403	
4	0	0	0	0	484	408	
5	0	0	0	0	485	409	
6	0	0	0	0	485	408	
7	0	0	0	0	486	414	
8	0	0	0	0	486	408	
9	0	0	0	0	486	408	
10	0	0	0	0	486	408	
11	0	0	0	0	486	403	
12	0	0	0	0	487	409	
13	0	0	0	0	486	409	
14	0	0	0	0	486	408	
15	0	0	0	0	486	413	
0	0	0	0	0	486	408	
1	0	0	0	0	486	408	
2	0	0	0	0	486	408	
3	0	0	0	0	486	403	
4	0	0	0	0	486	409	
5	0	0	0	0	486	408	
6	0	0	0	0	486	408	
7	0	0	0	0	487	413	
8	0	0	0	0	488	408	
9	0	0	0	0	488	408	
10	0	0	0	0	488	408	
11	0	0	0	0	488	403	
12	0	0	0	0	488	408	
13	0	0	0	0	490	408	
14	0	0	0	0	491	409	
15	0	0	0	0	493	414	
0	0	0	0	0	495	409	
1	0	0	0	0	496	410	
2	0	0	0	0	497	410	
3	0	0	0	0	497	405	
4	0	0	0	0	496	411	
5	0	0	0	0	496	410	
6	0	0	0	0	495	411	
7	0	0	0	0	494	415	
8	0	0	0	0	494	411	
9	0	0	0	0	495	411	
10	0	0	0	0	494	411	
11	0	0	0	0	494	406	
12	0	0	0	0	494	411	
13	0	0	0	0	494	411	
14	0	0	0	0	494	411	
15	0	0	0	0	494	415	
0	0	0	0	0	495	410	
1	0	0	0	0	494	410	
2	0	0	0	0	492	411	
3	0	0	0	0	490	406	
4	0	0	0	0	489	411	
5	0	0	0	0	488	411	
6	0	0	0	0	488	411	
7	0	0	0	0	489	415	
8	0	0	0	0	490	410	
9	0	0	0	0	490	411	
10	0	0	0	0	491	410	
11	0	0	0	0	492	406	
12	0	0	0	0	493	411	
13	0	0	0	0	494	411	
14	0	0	0	0	494	412	
15	0	0	0	0	494	416	
0	0	0	0	0	494	412	
1	0	0	0	0	494	411	
2	0	0	0	0	494	412	
3	0	0	0	0	495	406	
4	0	0	0	0	496	411	
5	0	0	0	0	496	411	
6	0	0	0	0	496	411	
7	0	0	0	0	496	416	
8	0	0	0	0	497	411	
9	0	0	0	0	496	411	
10	0	0	0	0	498	410	
11	0	0	0	0	499	405	
12	0	0	0	0	500	411	
13	0	0	0	0	501	411	
14	0	0	0	0	502	411	
15	0	0	0	0	503	415	
0	0	0	0	0	504	410	
1	0	0	0	0	505	410	
2	0	0	0	0	507	411	
3	0	0	0	0	508	406	
4	0	0	0	0	508	411	
5	0	0	0	0	509	410	
6	0	0	0	0	508	411	
7	0	0	0	0	506	415	
8	0	0	0	0	505	411	
9	0	0	0	0	504	410	
10	0	0	0	0	504	410	
11	0	0	0	0	502	404	
12	0	0	0	0	502	410	
13	0	0	0	0	501	410	
14	0	0	0	0	501	410	
15	0	0	0	0	502	414	
0	0	0	0	0	502	409	
1	0	0	0	0	503	410	
2	0	0	0	0	503	409	
3	0	0	0	0	504	405	
4	0	0	0	0	503	409	
5	0	0	0	0	504	408	
6	0	0	0	0	504	408	
7	0	0	0	0	505	413	
8	0	0	0	0	506	409	
9	0	0	0	0	505	408	
10	0	0	0	0	504	408	
11	0	0	0	0	503	403	
12	0	0	0	0	503	408	
13	0	0	0	0	502	409	
14	0	0	0	0	502	409	
15	0	0	0	0	503	414	
0	0	0	0	0	503	409	
1	0	0	0	0	503	409	
2	0	0	0	0	503	408	
3	0	0	0	0	503	403	
4	0	0	0	0	503	409	
5	0	0	0	0	502	409	
6	0	0	0	0	502	409	
7	0	0	0	0	501	414	
8	0	0	0	0	500	409	
9	0	0	0	0	499	410	
10	0	0	0	0	499	410	
11	0	0	0	0	499	404	
12	0	0	0	0	498	410	
13	0	0	0	0	498	410	
14	0	0	0	0	497	410	
15	0	0	0	0	497	414	
0	0	0	0	0	498	410	
1	0	0	0	0	498	410	
2	0	0	0	0	498	410	
3	0	0	0	0	499	404	
4	0	0	0	0	501	410	
5	0	0	0	0	502	410	
6	0	0	0	0	504	411	
7	0	0	0	0	505	415	
8	0	0	0	0	505	410	
9	0	0	0	0	505	410	
10	0	0	0	0	507	410	
11	0	0	0	0	507	404	
12	0	0	0	0	508	411	
13	0	0	0	0	508	411	
14	0	0	0	0	509	411	
15	0	0	0	0	509	415	
0	0	0	0	0	508	411	
1	0	0	0	0	508	410	
2	0	0	0	0	508	409	
3	0	0	0	0	508	405	
4	0	0	0	0	507	410	
5	0	0	0	0	508	410	
6	0	0	0	0	509	411	
7	0	0	0	0	509	415	
8	0	0	0	0	510	410	
9	0	0	0	0	511	409	
10	0	0	0	0	512	409	
11	0	0	0	0	513	405	
12	0	0	0	0	513	410	
13	0	0	0	0	512	410	
14	0	0	0	0	512	410	
15	0	0	0	0	513	414	
0	0	0	0	0	514	411	
1	0	0	0	0	515	410	
2	0	0	0	0	517	409	
3	0	0	0	0	518	406	
4	0	0	0	0	519	411	
5	0	0	0	0	519	411	
6	0	0	0	0	519	411	
7	0	0	0	0	519	415	
8	0	0	0	0	520	411	
9	0	0	0	0	520	410	
10	0	0	0	0	521	410	
11	0	0	0	0	521	405	
12	0	0	0	0	521	411	
13	0	0	0	0	522	411	
14	0	0	0	0	523	411	
15	0	0	0	0	523	415	
0	0	0	0	0	523	410	
1	0	0	0	0	523	410	
2	0	0	0	0	523	409	
3	0	0	0	0	522	404	
4	0	0	0	0	521	409	
5	0	0	0	0	522	409	
6	0	0	0	0	523	409	
7	0	0	0	0	523	414	
8	0	0	0	0	523	408	
9	0	0	0	0	523	408	
10	0	0	0	0	523	408	
11	0	0	0	0	523	403	
12	0	0	0	0	523	408	
13	0	0	0	0	522	408	
14	0	0	0	0	521	408	
15	0	0	0	0	521	413	
0	0	0	0	0	522	408	
1	0	0	0	0	523	408	
2	0	0	0	0	524	407	
3	0	0	0	0	525	402	
4	0	0	0	0	526	408	
5	0	0	0	0	526	408	
6	0	0	0	0	525	408	
7	0	0	0	0	525	413	
8	0	0	0	0	526	408	
9	0	0	0	0	526	408	
10	0	0	0	0	526	408	
11	0	0	0	0	526	403	
12	0	0	0	0	526	409	
13	0	0	0	0	526	408	
14	0	0	0	0	526	408	
15	0	0	0	0	526	414	
0	0	0	0	0	526	409	
1	0	0	0	0	526	409	
2	0	0	0	0	526	409	
3	0	0	0	0	526	404	
4	0	0	0	0	526	409	
5	0	0	0	0	525	409	
6	0	0	0	0	524	409	
7	0	0	0	0	522	414	
8	0	0	0	0	521	409	
9	0	0	0	0	520	409	
10	0	0	0	0	520	410	
11	0	0	0	0	521	404	
12	0	0	0	0	522	410	
13	0	0	0	0	524	410	
14	0	0	0	0	526	410	
15	0	0	0	0	528	415	
0	0	0	0	0	529	410	
1	0	0	0	0	529	410	
2	0	0	0	0	528	410	
3	0	0	0	0	527	406	
4	0	0	0	0	527	411	
5	0	0	0	0	526	411	
6	0	0	0	0	524	411	
7	0	0	0	0	523	415	
8	0	0	0	0	523	409	
9	0	0	0	0	523	409	
10	0	0	0	0	523	409	
11	0	0	0	0	524	404	
12	0	0	0	0	524	409	
13	0	0	0	0	524	410	
14	0	0	0	0	525	410	
15	0	0	0	0	525	414	
0	0	0	0	0	525	409	
1	0	0	0	0	524	409	
2	0	0	0	0	523	409	
3	0	0	0	0	523	404	
4	0	0	0	0	522	409	
5	0	0	0	0	523	409	
6	0	0	0	0	524	410	
7	0	0	0	0	524	414	
8	0	0	0	0	524	409	
9	0	0	0	0	524	410	
10	0	0	0	0	524	409	
11	0	0	0	0	524	404	
12	0	0	0	0	525	409	
13	0	0	0	0	526	409	
14	0	0	0	0	527	409	
15	0	0	0	0	528	414	
0	0	0	0	0	530	409	
1	0	0	0	0	531	409	
2	0	0	0	0	532	409	
3	0	0	0	0	532	404	
4	0	0	0	0	531	409	
5	0	0	0	0	530	408	
6	0	0	0	0	528	408	
7	0	0	0	0	526	413	
8	0	0	0	0	524	408	
9	0	0	0	0	524	408	
10	0	0	0	0	522	408	
11	0	0	0	0	520	403	
12	0	0	0	0	518	408	
13	0	0	0	0	517	408	
14	0	0	0	0	515	408	
15	0	0	0	0	515	414	
0	0	0	0	0	515	408	
1	0	0	0	0	514	408	
2	0	0	0	0	513	408	
3	0	0	0	0	512	403	
4	0	0	0	0	511	408	
5	0	0	0	0	511	408	
6	0	0	0	0	511	408	
7	0	0	0	0	510	412	
8	0	0	0	0	509	407	
9	0	0	0	0	509	407	
10	0	0	0	0	508	407	
11	0	0	0	0	507	401	
12	0	0	0	0	507	408	
13	0	0	0	0	506	407	
14	0	0	0	0	504	407	
15	0	0	0	0	503	411	
0	0	0	0	0	500	406	
1	0	0	0	0	498	406	
2	0	0	0	0	496	406	
3	0	0	0	0	494	401	
4	0	0	0	0	492	406	
5	0	0	0	0	491	406	
6	0	0	0	0	491	406	
7	0	0	0	0	490	411	
8	0	0	0	0	489	406	
9	0	0	0	0	487	406	
10	0	0	0	0	487	406	
11	0	0	0	0	486	401	
12	0	0	0	0	483	406	
13	0	0	0	0	480	407	
14	0	0	0	0	479	408	
15	0	0	0	0	477	412	
0	0	0	0	0	475	407	
1	0	0	0	0	473	407	
2	0	0	0	0	472	407	
3	0	0	0	0	472	402	
4	0	0	0	0	472	408	
5	0	0	0	0	471	408	
6	0	0	0	0	471	408	
7	0	0	0	0	472	413	
8	0	0	0	0	474	409	
9	0	0	0	0	475	409	
10	0	0	0	0	476	409	
11	0	0	0	0	475	404	
12	0	0	0	0	473	409	
13	0	0	0	0	472	409	
14	0	0	0	0	470	409	
15	0	0	0	0	468	414	
0	0	0	0	0	467	409	
1	0	0	0	0	465	409	
2	0	0	0	0	463	409	
3	0	0	0	0	462	404	
4	0	0	0	0	461	409	
5	0	0	0	0	461	410	
6	0	0	0	0	461	410	
7	0	0	0	0	461	415	
8	0	0	0	0	460	410	
9	0	0	0	0	459	411	
10	0	0	0	0	459	410	
11	0	0	0	0	459	406	
12	0	0	0	0	459	411	
13	0	0	0	0	459	411	
14	0	0	0	0	458	411	
15	0	0	0	0	457	415	
0	0	0	0	0	455	411	
1	0	0	0	0	453	410	
2	0	0	0	0	450	411	
3	0	0	0	0	448	406	
4	0	0	0	0	447	412	
5	0	0	0	0	446	412	
6	0	0	0	0	447	412	
7	0	0	0	0	447	416	
8	0	0	0	0	446	411	
9	0	0	0	0	444	411	
10	0	0	0	0	441	410	
11	0	0	0	0	440	406	
12	0	0	0	0	438	411	
13	0	0	0	0	436	411	
14	0	0	0	0	435	411	
15	0	0	0	0	434	416	
0	0	0	0	0	433	411	
1	0	0	0	0	431	411	
2	0	0	0	0	431	411	
3	0	0	0	0	432	406	
4	0	0	0	0	433	411	
5	0	0	0	0	434	412	
6	0	0	0	0	434	411	
7	0	0	0	0	434	416	
8	0	0	0	0	434	410	
9	0	0	0	0	433	410	
10	0	0	0	0	434	410	
11	0	0	0	0	435	404	
12	0	0	0	0	436	410	
13	0	0	0	0	437	409	
14	0	0	0	0	437	409	
15	0	0	0	0	438	414	
0	0	0	0	0	437	409	
1	0	0	0	0	435	410	
2	0	0	0	0	435	410	
3	0	0	0	0	434	403	
4	0	0	0	0	433	410	
5	0	0	0	0	431	409	
6	0	0	0	0	429	410	
7	0	0	0	0	429	415	
8	0	0	0	0	430	410	
9	0	0	0	0	430	410	
10	0	0	0	0	430	410	
11	0	0	0	0	429	404	
12	0	0	0	0	428	409	
13	0	0	0	0	428	410	
14	0	0	0	0	427	410	
15	0	0	0	0	427	415	
0	0	0	0	0	428	409	
1	0	0	0	0	428	410	
2	0	0	0	0	429	409	
3	0	0	0	0	430	405	
4	0	0	0	0	430	409	
5	0	0	0	0	431	410	
6	0	0	0	0	430	409	
7	0	0	0	0	431	414	
8	0	0	0	0	431	410	
9	0	0	0	0	431	410	
10	0	0	0	0	431	410	
11	0	0	0	0	431	405	
12	0	0	0	0	430	411	
13	0	0	0	0	430	410	
14	0	0	0	0	431	410	
15	0	0	0	0	432	415	
0	0	0	0	0	433	409	
1	0	0	0	0	434	410	
2	0	0	0	0	435	409	
3	0	0	0	0	435	404	
4	0	0	0	0	434	410	
5	0	0	0	0	433	409	
6	0	0	0	0	432	409	
7	0	0	0	0	431	414	
8	0	0	0	0	431	409	
9	0	0	0	0	432	409	
10	0	0	0	0	431	409	
11	0	0	0	0	431	403	
12	0	0	0	0	431	409	
13	0	0	0	0	431	409	
14	0	0	0	0	431	410	
15	0	0	0	0	430	414	
0	0	0	0	0	430	409	
1	0	0	0	0	430	409	
2	0	0	0	0	429	409	
3	0	0	0	0	429	404	
4	0	0	0	0	429	410	
5	0	0	0	0	428	409	
6	0	0	0	0	429	409	
7	0	0	0	0	430	414	
8	0	0	0	0	430	410	
9	0	0	0	0	430	409	
10	0	0	0	0	431	409	
11	0	0	0	0	432	404	
12	0	0	0	0	433	409	
13	0	0	0	0	433	409	
14	0	0	0	0	432	409	
15	0	0	0	0	432	414	
0	0	0	0	0	431	408	
1	0	0	0	0	432	408	
2	0	0	0	0	432	409	
3	0	0	0	0	433	404	
4	0	0	0	0	433	408	
5	0	0	0	0	433	409	
6	0	0	0	0	434	409	
7	0	0	0	0	435	413	
8	0	0	0	0	436	408	
9	0	0	0	0	437	409	
10	0	0	0	0	439	408	
11	0	0	0	0	440	402	
12	0	0	0	0	441	408	
13	0	0	0	0	441	408	
14	0	0	0	0	441	408	
15	0	0	0	0	441	414	
0	0	0	0	0	441	409	
1	0	0	0	0	443	409	
2	0	0	0	0	444	409	
3	0	0	0	0	444	403	
4	0	0	0	0	444	408	
5	0	0	0	0	445	409	
6	0	0	0	0	444	409	
7	0	0	0	0	443	414	
8	0	0	0	0	441	409	
9	0	0	0	0	440	409	
10	0	0	0	0	440	409	
11	0	0	0	0	441	404	
12	0	0	0	0	443	409	
13	0	0	0	0	443	409	
14	0	0	0	0	444	409	
15	0	0	0	0	446	414	
0	0	0	0	0	448	409	
1	0	0	0	0	450	409	
2	0	0	0	0	451	409	
3	0	0	0	0	452	405	
4	0	0	0	0	452	409	
5	0	0	0	0	452	410	
6	0	0	0	0	452	410	
7	0	0	0	0	453	414	
8	0	0	0	0	454	410	
9	0	0	0	0	453	409	
10	0	0	0	0	453	409	
11	0	0	0	0	452	404	
12	0	0	0	0	453	409	
13	0	0	0	0	454	409	
14	0	0	0	0	455	409	
15	0	0	0	0	457	414	
0	0	0	0	0	460	409	
1	0	0	0	0	462	409	
2	0	0	0	0	463	409	
3	0	0	0	0	464	404	
4	0	0	0	0	464	409	
5	0	0	0	0	464	409	
6	0	0	0	0	465	409	
7	0	0	0	0	465	413	
8	0	0	0	0	465	409	
9	0	0	0	0	463	409	
10	0	0	0	0	462	409	
11	0	0	0	0	462	404	
12	0	0	0	0	462	409	
13	0	0	0	0	461	409	
14	0	0	0	0	461	409	
15	0	0	0	0	460	414	
0	0	0	0	0	459	409	
1	0	0	0	0	458	409	
2	0	0	0	0	458	409	
3	0	0	0	0	458	403	
4	0	0	0	0	459	409	
5	0	0	0	0	459	408	
6	0	0	0	0	458	409	
7	0	0	0	0	458	414	
8	0	0	0	0	460	409	
9	0	0	0	0	460	409	
10	0	0	0	0	462	408	
11	0	0	0	0	465	403	
12	0	0	0	0	466	408	
13	0	0	0	0	466	408	
14	0	0	0	0	466	408	
15	0	0	0	0	466	414	
0	0	0	0	0	467	409	
1	0	0	0	0	469	408	
2	0	0	0	0	470	409	
3	0	0	0	0	471	404	
4	0	0	0	0	472	409	
5	0	0	0	0	472	409	
6	0	0	0	0	473	410	
7	0	0	0	0	475	414	
8	0	0	0	0	476	409	
9	0	0	0	0	478	409	
10	0	0	0	0	480	409	
11	0	0	0	0	481	403	
12	0	0	0	0	481	410	
13	0	0	0	0	480	409	
14	0	0	0	0	480	408	
15	0	0	0	0	480	413	
0	0	0	0	0	480	408	
1	0	0	0	0	479	408	
2	0	0	0	0	478	408	
3	0	0	0	0	477	403	
4	0	0	0	0	477	408	
5	0	0	0	0	477	408	
6	0	0	0	0	476	408	
7	0	0	0	0	476	413	
8	0	0	0	0	478	409	
9	0	0	0	0	478	408	
10	0	0	0	0	480	408	
11	0	0	0	0	482	404	
12	0	0	0	0	483	409	
13	0	0	0	0	485	409	
14	0	0	0	0	486	409	
15	0	0	0	0	488	414	
0	0	0	0	0	488	409	
1	0	0	0	0	488	409	
2	0	0	0	0	488	409	
3	0	0	0	0	489	404	
4	0	0	0	0	489	409	
5	0	0	0	0	488	409	
6	0	0	0	0	487	409	
7	0	0	0	0	487	414	
8	0	0	0	0	487	409	
9	0	0	0	0	486	409	
10	0	0	0	0	485	408	
11	0	0	0	0	484	403	
12	0	0	0	0	483	408	
13	0	0	0	0	484	409	
14	0	0	0	0	485	409	
15	0	0	0	0	485	414	
0	0	0	0	0	486	409	
1	0	0	0	0	486	409	
2	0	0	0	0	486	409	
3	0	0	0	0	487	404	
4	0	0	0	0	489	409	
5	0	0	0	0	491	409	
6	0	0	0	0	492	409	
7	0	0	0	0	493	414	
8	0	0	0	0	493	409	
9	0	0	0	0	492	409	
10	0	0	0	0	491	409	
11	0	0	0	0	489	403	
12	0	0	0	0	488	409	
13	0	0	0	0	487	409	
14	0	0	0	0	486	409	
15	0	0	0	0	486	414	
0	0	0	0	0	485	408	
1	0	0	0	0	485	409	
2	0	0	0	0	486	409	
3	0	0	0	0	487	405	
4	0	0	0	0	487	410	
5	0	0	0	0	487	410	
6	0	0	0	0	487	411	
7	0	0	0	0	486	414	
8	0	0	0	0	487	409	
9	0	0	0	0	487	410	
10	0	0	0	0	487	409	
11	0	0	0	0	487	406	
12	0	0	0	0	488	410	
13	0	0	0	0	488	410	
14	0	0	0	0	488	410	
15	0	0	0	0	488	415	
0	0	0	0	0	490	409	
1	0	0	0	0	489	409	
2	0	0	0	0	489	410	
3	0	0	0	0	489	404	
4	0	0	0	0	488	409	
5	0	0	0	0	488	409	
6	0	0	0	0	489	409	
7	0	0	0	0	490	414	
8	0	0	0	0	491	409	
9	0	0	0	0	491	409	
10	0	0	0	0	492	409	
11	0	0	0	0	492	404	
12	0	0	0	0	492	409	
13	0	0	0	0	492	409	
14	0	0	0	0	493	409	
15	0	0	0	0	496	413	
0	0	0	0	0	498	409	
1	0	0	0	0	500	409	
2	0	0	0	0	502	409	
3	0	0	0	0	504	404	
4	0	0	0	0	504	409	
5	0	0	0	0	505	409	
6	0	0	0	0	506	409	
7	0	0	0	0	505	414	
8	0	0	0	0	505	409	
9	0	0	0	0	507	409	
10	0	0	0	0	508	408	
11	0	0	0	0	510	404	
12	0	0	0	0	511	409	
13	0	0	0	0	511	409	
14	0	0	0	0	511	409	
15	0	0	0	0	512	414	
0	0	0	0	0	513	410	
1	0	0	0	0	514	410	
2	0	0	0	0	514	409	
3	0	0	0	0	514	404	
4	0	0	0	0	515	409	
5	0	0	0	0	515	409	
6	0	0	0	0	517	410	
7	0	0	0	0	520	414	
8	0	0	0	0	522	409	
9	0	0	0	0	524	409	
10	0	0	0	0	526	408	
11	0	0	0	0	527	404	
12	0	0	0	0	529	409	
13	0	0	0	0	529	409	
14	0	0	0	0	529	410	
15	0	0	0	0	529	414	
0	0	0	0	0	529	409	
1	0	0	0	0	529	409	
2	0	0	0	0	530	409	
3	0	0	0	0	530	403	
4	0	0	0	0	529	409	
5	0	0	0	0	528	409	
6	0	0	0	0	528	409	
7	0	0	0	0	528	414	
8	0	0	0	0	528	409	
9	0	0	0	0	529	409	
10	0	0	0	0	528	409	
11	0	0	0	0	528	405	
12	0	0	0	0	527	409	
13	0	0	0	0	526	409	
14	0	0	0	0	524	409	
15	0	0	0	0	522	414	
0	0	0	0	0	520	409	
1	0	0	0	0	517	409	
2	0	0	0	0	515	409	
3	0	0	0	0	515	404	
4	0	0	0	0	515	410	
5	0	0	0	0	516	409	
6	0	0	0	0	518	409	
7	0	0	0	0	521	413	
8	0	0	0	0	525	409	
9	0	0	0	0	528	409	
10	0	0	0	0	532	409	
11	0	0	0	0	535	404	
12	0	0	0	0	536	410	
13	0	0	0	0	537	411	
14	0	0	0	0	537	410	
15	0	0	0	0	538	415	
0	0	0	0	0	538	410	
1	0	0	0	0	537	410	
2	0	0	0	0	536	410	
3	0	0	0	0	536	405	
4	0	0	0	0	537	410	
5	0	0	0	0	539	409	
6	0	0	0	0	541	411	
7	0	0	0	0	542	415	
8	0	0	0	0	542	410	
9	0	0	0	0	541	410	
10	0	0	0	0	540	410	
11	0	0	0	0	539	405	
12	0	0	0	0	535	410	
13	0	0	0	0	531	411	
14	0	0	0	0	528	411	
15	0	0	0	0	524	415	
0	0	0	0	0	521	410	
1	0	0	0	0	517	411	
2	0	0	0	0	513	411	
3	0	0	0	0	509	406	
4	0	0	0	0	505	412	
5	0	0	0	0	500	411	
6	0	0	0	0	495	412	
7	0	0	0	0	490	416	
8	0	0	0	0	484	411	
9	0	0	0	0	479	411	
10	0	0	0	0	475	410	
11	0	0	0	0	473	405	
12	0	0	0	0	474	411	
13	0	0	0	0	475	410	
14	0	0	0	0	477	410	
15	0	0	0	0	480	415	
0	0	0	0	0	484	410	
1	0	0	0	0	490	410	
2	0	0	0	0	498	409	
3	0	0	0	0	505	404	
4	0	0	0	0	513	409	
5	0	0	0	0	521	409	
6	0	0	0	0	527	409	
7	0	0	0	0	533	414	
8	0	0	0	0	539	409	
9	0	0	0	0	547	409	
10	0	0	0	0	557	409	
11	0	0	0	0	567	404	
12	0	0	0	0	576	409	
13	0	0	0	0	585	409	
14	0	0	0	0	593	409	
15	0	0	0	0	602	414	
0	0	0	0	0	610	409	
1	0	0	0	0	617	409	
2	0	0	0	0	624	409	
3	0	0	0	0	632	404	
4	0	0	0	0	639	409	
5	0	0	0	0	644	410	
6	0	0	0	0	647	410	
7	0	0	0	0	648	415	
8	0	0	0	0	649	410	
9	0	0	0	0	647	411	
10	0	0	0	0	644	410	
11	0	0	0	0	641	405	
12	0	0	0	0	637	411	
13	0	0	0	0	633	410	
14	0	0	0	0	630	410	
15	0	0	0	0	627	414	
0	0	0	0	0	623	411	
1	0	0	0	0	618	410	
2	0	0	0	0	611	410	
3	0	0	0	0	605	404	
4	0	0	0	0	599	411	
5	0	0	0	0	593	411	
6	0	0	0	0	587	411	
7	0	0	0	0	581	415	
8	0	0	0	0	575	410	
9	0	0	0	0	570	411	
10	0	0	0	0	567	410	
11	0	0	0	0	563	405	
12	0	0	0	0	560	411	
13	0	0	0	0	557	411	
14	0	0	0	0	554	411	
15	0	0	0	0	551	415	
0	0	0	0	0	547	410	
1	0	0	0	0	545	410	
2	0	0	0	0	543	409	
3	0	0	0	0	540	404	
4	0	0	0	0	537	409	
5	0	0	0	0	534	408	
6	0	0	0	0	531	408	
7	0	0	0	0	529	413	
8	0	0	0	0	529	408	
9	0	0	0	0	531	408	
10	0	0	0	0	532	408	
11	0	0	0	0	532	401	
12	0	0	0	0	534	407	
13	0	0	0	0	536	407	
14	0	0	0	0	537	408	
15	0	0	0	0	538	411	
0	0	0	0	0	539	407	
1	0	0	0	0	539	407	
2	0	0	0	0	539	407	
3	0	0	0	0	541	401	
4	0	0	0	0	543	407	
5	0	0	0	0	545	407	
6	0	0	0	0	545	408	
7	0	0	0	0	545	412	
8	0	0	0	0	544	408	
9	0	0	0	0	543	408	
10	0	0	0	0	543	409	
11	0	0	0	0	543	403	
12	0	0	0	0	543	408	
13	0	0	0	0	544	409	
14	0	0	0	0	544	409	
15	0	0	0	0	545	414	
0	0	0	0	0	547	410	
1	0	0	0	0	547	409	
2	0	0	0	0	546	409	
3	0	0	0	0	545	404	
4	0	0	0	0	543	409	
5	0	0	0	0	541	409	
6	0	0	0	0	540	409	
7	0	0	0	0	540	414	
8	0	0	0	0	541	409	
9	0	0	0	0	540	409	
10	0	0	0	0	541	409	
11	0	0	0	0	540	404	
12	0	0	0	0	540	409	
13	0	0	0	0	539	409	
14	0	0	0	0	538	409	
15	0	0	0	0	537	414	
0	0	0	0	0	536	409	
1	0	0	0	0	534	409	
2	0	0	0	0	534	409	
3	0	0	0	0	533	405	
4	0	0	0	0	534	410	
5	0	0	0	0	534	410	
6	0	0	0	0	536	410	
7	0	0	0	0	536	414	
8	0	0	0	0	536	409	
9	0	0	0	0	536	409	
10	0	0	0	0	536	409	
11	0	0	0	0	537	403	
12	0	0	0	0	538	408	
13	0	0	0	0	538	409	
14	0	0	0	0	537	409	
15	0	0	0	0	537	414	
0	0	0	0	0	538	408	
1	0	0	0	0	538	408	
2	0	0	0	0	537	409	
3	0	0	0	0	537	403	
4	0	0	0	0	539	408	
5	0	0	0	0	541	408	
6	0	0	0	0	543	409	
7	0	0	0	0	544	413	
8	0	0	0	0	546	408	
9	0	0	0	0	545	408	
10	0	0	0	0	544	408	
11	0	0	0	0	542	403	
12	0	0	0	0	541	408	
13	0	0	0	0	539	408	
14	0	0	0	0	537	408	
15	0	0	0	0	536	413	
0	0	0	0	0	537	409	
1	0	0	0	0	537	408	
2	0	0	0	0	540	408	
3	0	0	0	0	543	403	
4	0	0	0	0	544	408	
5	0	0	0	0	546	408	
6	0	0	0	0	547	408	
7	0	0	0	0	548	413	
8	0	0	0	0	548	409	
9	0	0	0	0	548	409	
10	0	0	0	0	546	408	
11	0	0	0	0	543	404	
12	0	0	0	0	541	409	
13	0	0	0	0	539	409	
14	0	0	0	0	537	410	
15	0	0	0	0	535	414	
0	0	0	0	0	533	409	
1	0	0	0	0	533	409	
2	0	0	0	0	533	409	
3	0	0	0	0	535	404	
4	0	0	0	0	537	409	
5	0	0	0	0	538	409	
6	0	0	0	0	539	409	
7	0	0	0	0	540	414	
8	0	0	0	0	541	409	
9	0	0	0	0	540	409	
10	0	0	0	0	539	409	
11	0	0	0	0	537	404	
12	0	0	0	0	537	410	
13	0	0	0	0	536	410	
14	0	0	0	0	535	410	
15	0	0	0	0	534	413	
0	0	0	0	0	533	409	
1	0	0	0	0	533	409	
2	0	0	0	0	533	409	
3	0	0	0	0	534	404	
4	0	0	0	0	535	409	
5	0	0	0	0	536	409	
6	0	0	0	0	535	409	
7	0	0	0	0	535	414	
8	0	0	0	0	534	409	
9	0	0	0	0	532	409	
10	0	0	0	0	531	409	
11	0	0	0	0	531	404	
12	0	0	0	0	532	410	
13	0	0	0	0	533	410	
14	0	0	0	0	534	409	
15	0	0	0	0	536	415	
0	0	0	0	0	537	410	
1	0	0	0	0	538	409	
2	0	0	0	0	539	410	
3	0	0	0	0	540	404	
4	0	0	0	0	540	410	
5	0	0	0	0	540	410	
6	0	0	0	0	540	409	
7	0	0	0	0	540	415	
8	0	0	0	0	540	410	
9	0	0	0	0	541	410	
10	0	0	0	0	542	410	
11	0	0	0	0	544	404	
12	0	0	0	0	544	410	
13	0	0	0	0	544	409	
14	0	0	0	0	544	410	
15	0	0	0	0	543	414	
0	0	0	0	0	543	409	
1	0	0	0	0	542	409	
2	0	0	0	0	541	409	
3	0	0	0	0	541	404	
4	0	0	0	0	540	409	
5	0	0	0	0	540	409	
6	0	0	0	0	542	409	
7	0	0	0	0	543	415	
8	0	0	0	0	543	410	
9	0	0	0	0	543	410	
10	0	0	0	0	543	410	
11	0	0	0	0	542	404	
12	0	0	0	0	542	410	
13	0	0	0	0	542	409	
14	0	0	0	0	542	410	
15	0	0	0	0	541	414	
0	0	0	0	0	541	409	
1	0	0	0	0	541	409	
2	0	0	0	0	542	409	
3	0	0	0	0	545	404	
4	0	0	0	0	548	410	
5	0	0	0	0	551	410	
6	0	0	0	0	553	409	
7	0	0	0	0	554	415	
8	0	0	0	0	554	410	
9	0	0	0	0	554	409	
10	0	0	0	0	552	410	
11	0	0	0	0	551	404	
12	0	0	0	0	552	409	
13	0	0	0	0	552	409	
14	0	0	0	0	551	409	
15	0	0	0	0	551	414	
0	0	0	0	0	551	409	
1	0	0	0	0	551	408	
2	0	0	0	0	551	408	
3	0	0	0	0	550	403	
4	0	0	0	0	550	408	
5	0	0	0	0	549	408	
6	0	0	0	0	549	409	
7	0	0	0	0	550	413	
8	0	0	0	0	551	408	
9	0	0	0	0	550	408	
10	0	0	0	0	550	407	
11	0	0	0	0	551	403	
12	0	0	0	0	551	408	
13	0	0	0	0	551	408	
14	0	0	0	0	551	408	
15	0	0	0	0	552	414	
0	0	0	0	0	552	408	
1	0	0	0	0	552	408	
2	0	0	0	0	551	408	
3	0	0	0	0	551	402	
4	0	0	0	0	551	408	
5	0	0	0	0	550	407	
6	0	0	0	0	550	408	
7	0	0	0	0	548	412	
8	0	0	0	0	547	408	
9	0	0	0	0	545	408	
10	0	0	0	0	543	408	
11	0	0	0	0	543	403	
12	0	0	0	0	543	408	
13	0	0	0	0	544	407	
14	0	0	0	0	545	408	
15	0	0	0	0	545	413	
0	0	0	0	0	546	408	
1	0	0	0	0	546	408	
2	0	0	0	0	547	408	
3	0	0	0	0	548	402	
4	0	0	0	0	550	408	
5	0	0	0	0	551	408	
6	0	0	0	0	552	408	
7	0	0	0	0	552	413	
8	0	0	0	0	552	408	
9	0	0	0	0	552	408	
10	0	0	0	0	551	408	
11	0	0	0	0	551	404	
12	0	0	0	0	551	409	
13	0	0	0	0	551	408	
14	0	0	0	0	552	409	
15	0	0	0	0	553	414	
0	0	0	0	0	553	409	
1	0	0	0	0	552	409	
2	0	0	0	0	551	410	
3	0	0	0	0	549	404	
4	0	0	0	0	548	409	
5	0	0	0	0	547	409	
6	0	0	0	0	546	409	
7	0	0	0	0	544	413	
8	0	0	0	0	545	408	
9	0	0	0	0	545	408	
10	0	0	0	0	546	408	
11	0	0	0	0	546	403	
12	0	0	0	0	547	408	
13	0	0	0	0	547	409	
14	0	0	0	0	547	410	
15	0	0	0	0	547	414	
0	0	0	0	0	547	409	
1	0	0	0	0	548	409	
2	0	0	0	0	549	408	
3	0	0	0	0	551	404	
4	0	0	0	0	551	409	
5	0	0	0	0	551	409	
6	0	0	0	0	549	409	
7	0	0	0	0	548	414	
8	0	0	0	0	548	409	
9	0	0	0	0	546	410	
10	0	0	0	0	543	409	
11	0	0	0	0	541	404	
12	0	0	0	0	539	410	
13	0	0	0	0	538	410	
14	0	0	0	0	539	409	
15	0	0	0	0	538	414	
0	0	0	0	0	539	409	
1	0	0	0	0	539	410	
2	0	0	0	0	539	411	
3	0	0	0	0	540	405	
4	0	0	0	0	541	411	
5	0	0	0	0	541	411	
6	0	0	0	0	543	410	
7	0	0	0	0	544	415	
8	0	0	0	0	546	410	
9	0	0	0	0	547	410	
10	0	0	0	0	547	409	
11	0	0	0	0	547	405	
12	0	0	0	0	546	410	
13	0	0	0	0	545	410	
14	0	0	0	0	545	410	
15	0	0	0	0	545	415	
0	0	0	0	0	545	409	
1	0	0	0	0	545	410	
2	0	0	0	0	545	410	
3	0	0	0	0	545	405	
4	0	0	0	0	547	410	
5	0	0	0	0	549	410	
6	0	0	0	0	550	410	
7	0	0	0	0	552	415	
8	0	0	0	0	552	410	
9	0	0	0	0	553	409	
10	0	0	0	0	555	410	
11	0	0	0	0	556	405	
12	0	0	0	0	557	410	
13	0	0	0	0	558	410	
14	0	0	0	0	558	410	
15	0	0	0	0	558	415	
0	0	0	0	0	557	410	
1	0	0	0	0	556	409	
2	0	0	0	0	555	409	
3	0	0	0	0	554	404	
4	0	0	0	0	552	409	
5	0	0	0	0	550	410	
6	0	0	0	0	548	410	
7	0	0	0	0	547	415	
8	0	0	0	0	546	410	
9	0	0	0	0	546	410	
10	0	0	0	0	545	409	
11	0	0	0	0	544	404	
12	0	0	0	0	544	410	
13	0	0	0	0	544	409	
14	0	0	0	0	544	410	
15	0	0	0	0	545	414	
0	0	0	0	0	546	409	
1	0	0	0	0	547	409	
2	0	0	0	0	548	409	
3	0	0	0	0	549	403	
4	0	0	0	0	549	409	
5	0	0	0	0	550	408	
6	0	0	0	0	551	408	
7	0	0	0	0	552	412	
8	0	0	0	0	553	408	
9	0	0	0	0	554	408	
10	0	0	0	0	556	408	
11	0	0	0	0	557	403	
12	0	0	0	0	557	408	
13	0	0	0	0	557	408	
14	0	0	0	0	557	408	
15	0	0	0	0	557	413	
0	0	0	0	0	557	409	
1	0	0	0	0	557	409	
2	0	0	0	0	557	409	
3	0	0	0	0	557	404	
4	0	0	0	0	558	409	
5	0	0	0	0	558	409	
6	0	0	0	0	558	409	
7	0	0	0	0	559	413	
8	0	0	0	0	560	408	
9	0	0	0	0	561	408	
10	0	0	0	0	562	408	
11	0	0	0	0	563	404	
12	0	0	0	0	564	409	
13	0	0	0	0	565	409	
14	0	0	0	0	565	408	
15	0	0	0	0	566	413	
0	0	0	0	0	567	408	
1	0	0	0	0	567	409	
2	0	0	0	0	568	408	
3	0	0	0	0	568	404	
4	0	0	0	0	568	409	
5	0	0	0	0	568	408	
6	0	0	0	0	568	408	
7	0	0	0	0	568	413	
8	0	0	0	0	567	408	
9	0	0	0	0	566	408	
10	0	0	0	0	567	408	
11	0	0	0	0	568	404	
12	0	0	0	0	570	409	
13	0	0	0	0	572	410	
14	0	0	0	0	573	409	
15	0	0	0	0	574	414	
0	0	0	0	0	574	409	
1	0	0	0	0	574	408	
2	0	0	0	0	574	409	
3	0	0	0	0	574	404	
4	0	0	0	0	575	409	
5	0	0	0	0	576	409	
6	0	0	0	0	576	410	
7	0	0	0	0	576	414	
8	0	0	0	0	576	410	
9	0	0	0	0	575	410	
10	0	0	0	0	575	410	
11	0	0	0	0	575	405	
12	0	0	0	0	575	409	
13	0	0	0	0	575	410	
14	0	0	0	0	574	411	
15	0	0	0	0	574	414	
0	0	0	0	0	573	409	
1	0	0	0	0	572	410	
2	0	0	0	0	571	409	
3	0	0	0	0	570	404	
4	0	0	0	0	569	409	
5	0	0	0	0	568	409	
6	0	0	0	0	568	409	
7	0	0	0	0	567	414	
8	0	0	0	0	567	409	
9	0	0	0	0	566	409	
10	0	0	0	0	565	409	
11	0	0	0	0	565	404	
12	0	0	0	0	565	409	
13	0	0	0	0	565	409	
14	0	0	0	0	565	409	
15	0	0	0	0	565	414	
0	0	0	0	0	564	409	
1	0	0	0	0	563	409	
2	0	0	0	0	561	409	
3	0	0	0	0	558	404	
4	0	0	0	0	556	409	
5	0	0	0	0	554	409	
6	0	0	0	0	553	409	
7	0	0	0	0	552	414	
8	0	0	0	0	553	409	
9	0	0	0	0	552	409	
10	0	0	0	0	553	409	
11	0	0	0	0	552	404	
12	0	0	0	0	552	410	
13	0	0	0	0	552	410	
14	0	0	0	0	551	410	
15	0	0	0	0	552	415	
0	0	0	0	0	552	409	
1	0	0	0	0	552	410	
2	0	0	0	0	553	409	
3	0	0	0	0	552	405	
4	0	0	0	0	551	410	
5	0	0	0	0	550	409	
6	0	0	0	0	549	409	
7	0	0	0	0	548	414	
8	0	0	0	0	546	409	
9	0	0	0	0	545	409	
10	0	0	0	0	544	409	
11	0	0	0	0	543	404	
12	0	0	0	0	541	409	
13	0	0	0	0	541	409	
14	0	0	0	0	541	409	
15	0	0	0	0	540	414	
0	0	0	0	0	539	410	
1	0	0	0	0	539	410	
2	0	0	0	0	539	409	
3	0	0	0	0	539	404	
4	0	0	0	0	539	409	
5	0	0	0	0	539	409	
6	0	0	0	0	539	409	
7	0	0	0	0	539	414	
8	0	0	0	0	540	409	
9	0	0	0	0	539	408	
10	0	0	0	0	540	408	
11	0	0	0	0	540	403	
12	0	0	0	0	540	408	
13	0	0	0	0	540	408	
14	0	0	0	0	541	408	
15	0	0	0	0	541	413	
0	0	0	0	0	541	408	
1	0	0	0	0	540	408	
2	0	0	0	0	539	407	
3	0	0	0	0	538	403	
4	0	0	0	0	536	408	
5	0	0	0	0	535	408	
6	0	0	0	0	533	408	
7	0	0	0	0	532	413	
8	0	0	0	0	531	408	
9	0	0	0	0	531	408	
10	0	0	0	0	530	408	
11	0	0	0	0	530	403	
12	0	0	0	0	530	408	
13	0	0	0	0	531	408	
14	0	0	0	0	531	408	
15	0	0	0	0	533	413	
0	0	0	0	0	534	409	
1	0	0	0	0	535	409	
2	0	0	0	0	536	408	
3	0	0	0	0	536	404	
4	0	0	0	0	537	409	
5	0	0	0	0	539	409	
6	0	0	0	0	540	409	
7	0	0	0	0	540	414	
8	0	0	0	0	540	409	
9	0	0	0	0	540	409	
10	0	0	0	0	539	409	
11	0	0	0	0	538	404	
12	0	0	0	0	536	409	
13	0	0	0	0	536	408	
14	0	0	0	0	535	409	
15	0	0	0	0	534	413	
0	0	0	0	0	535	409	
1	0	0	0	0	535	409	
2	0	0	0	0	535	409	
3	0	0	0	0	536	404	
