# OpenSignals Text File Format. Version 1
# {"98:D3:91:FD:69:48": {"position": 0, "device": "bitalino_rev", "device name": "98:D3:91:FD:69:48", "device connection": "BTH98:D3:91:FD:69:48", "sampling rate": 1000, "resolution": [4, 1, 1, 1, 1, 10, 10], "firmware version": 1281, "comments": "", "keywords": "", "mode": 0, "sync interval": 2, "date": "2021-9-19", "time": "14:6:14.102", "channels": [2, 5], "sensor": ["RAW", "RAW"], "label": ["A2", "A5"], "column": ["nSeq", "I1", "I2", "O1", "O2", "A2", "A5"], "special": [{}, {}], "digital IO": [0, 0, 1, 1], "convertedValues": 0}}
# EndOfHeader
0	0	0	0	0	546	538	
1	0	0	0	0	546	538	
2	0	0	0	0	547	542	
3	0	0	0	0	546	538	
4	0	0	0	0	545	539	
5	0	0	0	0	543	538	
6	0	0	0	0	540	534	
7	0	0	0	0	540	538	
8	0	0	0	0	539	538	
9	0	0	0	0	537	538	
10	0	0	0	0	538	543	
11	0	0	0	0	537	537	
12	0	0	0	0	537	538	
13	0	0	0	0	537	538	
14	0	0	0	0	537	533	
15	0	0	0	0	537	537	
0	0	0	0	0	538	538	
1	0	0	0	0	539	538	
2	0	0	0	0	540	543	
3	0	0	0	0	541	538	
4	0	0	0	0	541	539	
5	0	0	0	0	542	537	
6	0	0	0	0	543	533	
7	0	0	0	0	544	538	
8	0	0	0	0	543	539	
9	0	0	0	0	544	538	
10	0	0	0	0	544	543	
11	0	0	0	0	544	539	
12	0	0	0	0	543	538	
13	0	0	0	0	543	538	
14	0	0	0	0	543	534	
15	0	0	0	0	545	539	
0	0	0	0	0	545	538	
1	0	0	0	0	545	539	
2	0	0	0	0	546	543	
3	0	0	0	0	547	538	
4	0	0	0	0	547	539	
5	0	0	0	0	548	539	
6	0	0	0	0	549	534	
7	0	0	0	0	549	538	
8	0	0	0	0	549	538	
9	0	0	0	0	548	539	
10	0	0	0	0	546	543	
11	0	0	0	0	545	539	
12	0	0	0	0	543	539	
13	0	0	0	0	542	538	
14	0	0	0	0	541	534	
15	0	0	0	0	540	538	
0	0	0	0	0	539	539	
1	0	0	0	0	539	538	
2	0	0	0	0	537	543	
3	0	0	0	0	536	538	
4	0	0	0	0	536	538	
5	0	0	0	0	536	538	
6	0	0	0	0	536	533	
7	0	0	0	0	536	539	
8	0	0	0	0	537	538	
9	0	0	0	0	537	538	
10	0	0	0	0	537	543	
11	0	0	0	0	537	539	
12	0	0	0	0	536	539	
13	0	0	0	0	537	538	
14	0	0	0	0	539	534	
15	0	0	0	0	539	538	
0	0	0	0	0	538	539	
1	0	0	0	0	539	539	
2	0	0	0	0	538	542	
3	0	0	0	0	538	538	
4	0	0	0	0	538	538	
5	0	0	0	0	538	537	
6	0	0	0	0	538	533	
7	0	0	0	0	538	538	
8	0	0	0	0	537	538	
9	0	0	0	0	537	539	
10	0	0	0	0	537	542	
11	0	0	0	0	538	539	
12	0	0	0	0	539	538	
13	0	0	0	0	540	538	
14	0	0	0	0	541	534	
15	0	0	0	0	541	539	
0	0	0	0	0	543	539	
1	0	0	0	0	542	539	
2	0	0	0	0	543	543	
3	0	0	0	0	543	539	
4	0	0	0	0	543	538	
5	0	0	0	0	543	538	
6	0	0	0	0	542	533	
7	0	0	0	0	542	538	
8	0	0	0	0	542	538	
9	0	0	0	0	542	538	
10	0	0	0	0	542	543	
11	0	0	0	0	543	539	
12	0	0	0	0	543	538	
13	0	0	0	0	544	538	
14	0	0	0	0	546	533	
15	0	0	0	0	547	538	
0	0	0	0	0	548	538	
1	0	0	0	0	550	539	
2	0	0	0	0	551	542	
3	0	0	0	0	554	538	
4	0	0	0	0	555	538	
5	0	0	0	0	555	537	
6	0	0	0	0	555	533	
7	0	0	0	0	554	538	
8	0	0	0	0	552	539	
9	0	0	0	0	552	539	
10	0	0	0	0	551	542	
11	0	0	0	0	550	538	
12	0	0	0	0	548	538	
13	0	0	0	0	548	537	
14	0	0	0	0	548	533	
15	0	0	0	0	550	537	
0	0	0	0	0	548	537	
1	0	0	0	0	548	537	
2	0	0	0	0	549	542	
3	0	0	0	0	550	537	
4	0	0	0	0	550	538	
5	0	0	0	0	551	538	
6	0	0	0	0	551	534	
7	0	0	0	0	552	539	
8	0	0	0	0	553	539	
9	0	0	0	0	553	538	
10	0	0	0	0	554	542	
11	0	0	0	0	554	537	
12	0	0	0	0	553	537	
13	0	0	0	0	551	538	
14	0	0	0	0	551	533	
15	0	0	0	0	550	537	
0	0	0	0	0	549	537	
1	0	0	0	0	549	538	
2	0	0	0	0	548	542	
3	0	0	0	0	549	538	
4	0	0	0	0	550	538	
5	0	0	0	0	548	538	
6	0	0	0	0	549	533	
7	0	0	0	0	551	538	
8	0	0	0	0	551	538	
9	0	0	0	0	552	538	
10	0	0	0	0	552	543	
11	0	0	0	0	552	538	
12	0	0	0	0	553	538	
13	0	0	0	0	553	538	
14	0	0	0	0	553	532	
15	0	0	0	0	552	538	
0	0	0	0	0	552	537	
1	0	0	0	0	551	538	
2	0	0	0	0	550	542	
3	0	0	0	0	551	538	
4	0	0	0	0	550	537	
5	0	0	0	0	548	537	
6	0	0	0	0	548	532	
7	0	0	0	0	548	537	
8	0	0	0	0	549	537	
9	0	0	0	0	549	538	
10	0	0	0	0	550	542	
11	0	0	0	0	550	538	
12	0	0	0	0	551	538	
13	0	0	0	0	551	538	
14	0	0	0	0	552	533	
15	0	0	0	0	552	538	
0	0	0	0	0	551	538	
1	0	0	0	0	551	538	
2	0	0	0	0	550	543	
3	0	0	0	0	549	538	
4	0	0	0	0	549	538	
5	0	0	0	0	548	537	
6	0	0	0	0	546	533	
7	0	0	0	0	545	537	
8	0	0	0	0	543	537	
9	0	0	0	0	542	538	
10	0	0	0	0	541	542	
11	0	0	0	0	540	537	
12	0	0	0	0	540	538	
13	0	0	0	0	539	538	
14	0	0	0	0	537	533	
15	0	0	0	0	537	539	
0	0	0	0	0	537	538	
1	0	0	0	0	537	539	
2	0	0	0	0	537	542	
3	0	0	0	0	537	538	
4	0	0	0	0	537	538	
5	0	0	0	0	536	537	
6	0	0	0	0	536	533	
7	0	0	0	0	534	538	
8	0	0	0	0	533	538	
9	0	0	0	0	533	538	
10	0	0	0	0	532	542	
11	0	0	0	0	532	538	
12	0	0	0	0	531	538	
13	0	0	0	0	530	538	
14	0	0	0	0	529	533	
15	0	0	0	0	529	538	
0	0	0	0	0	528	538	
1	0	0	0	0	528	538	
2	0	0	0	0	527	542	
3	0	0	0	0	529	538	
4	0	0	0	0	529	538	
5	0	0	0	0	530	538	
6	0	0	0	0	530	533	
7	0	0	0	0	529	538	
8	0	0	0	0	529	538	
9	0	0	0	0	528	538	
10	0	0	0	0	528	543	
11	0	0	0	0	527	539	
12	0	0	0	0	526	538	
13	0	0	0	0	526	538	
14	0	0	0	0	524	533	
15	0	0	0	0	523	538	
0	0	0	0	0	522	538	
1	0	0	0	0	522	538	
2	0	0	0	0	521	542	
3	0	0	0	0	521	538	
4	0	0	0	0	520	538	
5	0	0	0	0	520	538	
6	0	0	0	0	520	533	
7	0	0	0	0	520	539	
8	0	0	0	0	521	538	
9	0	0	0	0	522	539	
10	0	0	0	0	524	543	
11	0	0	0	0	524	539	
12	0	0	0	0	525	539	
13	0	0	0	0	525	537	
14	0	0	0	0	525	533	
15	0	0	0	0	525	538	
0	0	0	0	0	524	539	
1	0	0	0	0	522	538	
2	0	0	0	0	520	543	
3	0	0	0	0	519	539	
4	0	0	0	0	518	539	
5	0	0	0	0	516	538	
6	0	0	0	0	515	533	
7	0	0	0	0	515	538	
8	0	0	0	0	514	538	
9	0	0	0	0	515	539	
10	0	0	0	0	514	543	
11	0	0	0	0	515	539	
12	0	0	0	0	516	538	
13	0	0	0	0	516	538	
14	0	0	0	0	517	533	
15	0	0	0	0	518	538	
0	0	0	0	0	518	538	
1	0	0	0	0	518	538	
2	0	0	0	0	518	543	
3	0	0	0	0	518	537	
4	0	0	0	0	515	538	
5	0	0	0	0	513	538	
6	0	0	0	0	511	533	
7	0	0	0	0	510	538	
8	0	0	0	0	509	538	
9	0	0	0	0	508	538	
10	0	0	0	0	507	543	
11	0	0	0	0	506	538	
12	0	0	0	0	505	538	
13	0	0	0	0	505	538	
14	0	0	0	0	505	533	
15	0	0	0	0	505	538	
0	0	0	0	0	505	538	
1	0	0	0	0	505	538	
2	0	0	0	0	505	542	
3	0	0	0	0	506	538	
4	0	0	0	0	505	538	
5	0	0	0	0	505	538	
6	0	0	0	0	502	533	
7	0	0	0	0	500	539	
8	0	0	0	0	497	537	
9	0	0	0	0	495	539	
10	0	0	0	0	494	542	
11	0	0	0	0	491	538	
12	0	0	0	0	488	538	
13	0	0	0	0	487	538	
14	0	0	0	0	486	534	
15	0	0	0	0	486	539	
0	0	0	0	0	486	538	
1	0	0	0	0	486	539	
2	0	0	0	0	485	542	
3	0	0	0	0	485	538	
4	0	0	0	0	484	538	
5	0	0	0	0	485	537	
6	0	0	0	0	485	533	
7	0	0	0	0	486	538	
8	0	0	0	0	486	537	
9	0	0	0	0	486	537	
10	0	0	0	0	486	542	
11	0	0	0	0	487	538	
12	0	0	0	0	486	538	
13	0	0	0	0	486	538	
14	0	0	0	0	485	534	
15	0	0	0	0	483	538	
0	0	0	0	0	482	538	
1	0	0	0	0	480	538	
2	0	0	0	0	481	543	
3	0	0	0	0	483	539	
4	0	0	0	0	484	539	
5	0	0	0	0	482	537	
6	0	0	0	0	485	533	
7	0	0	0	0	486	538	
8	0	0	0	0	487	538	
9	0	0	0	0	489	538	
10	0	0	0	0	491	542	
11	0	0	0	0	491	538	
12	0	0	0	0	490	537	
13	0	0	0	0	489	538	
14	0	0	0	0	490	534	
15	0	0	0	0	491	538	
0	0	0	0	0	491	537	
1	0	0	0	0	489	538	
2	0	0	0	0	489	542	
3	0	0	0	0	488	538	
4	0	0	0	0	487	538	
5	0	0	0	0	487	538	
6	0	0	0	0	488	533	
7	0	0	0	0	489	538	
8	0	0	0	0	489	538	
9	0	0	0	0	488	539	
10	0	0	0	0	490	543	
11	0	0	0	0	493	538	
12	0	0	0	0	495	539	
13	0	0	0	0	495	539	
14	0	0	0	0	496	534	
15	0	0	0	0	497	539	
0	0	0	0	0	498	539	
1	0	0	0	0	499	539	
2	0	0	0	0	499	543	
3	0	0	0	0	499	539	
4	0	0	0	0	498	539	
5	0	0	0	0	495	539	
6	0	0	0	0	494	535	
7	0	0	0	0	493	539	
8	0	0	0	0	492	539	
9	0	0	0	0	492	539	
10	0	0	0	0	492	543	
11	0	0	0	0	492	539	
12	0	0	0	0	492	539	
13	0	0	0	0	492	538	
14	0	0	0	0	493	534	
15	0	0	0	0	494	539	
0	0	0	0	0	496	539	
1	0	0	0	0	498	539	
2	0	0	0	0	499	543	
3	0	0	0	0	500	538	
4	0	0	0	0	501	538	
5	0	0	0	0	503	538	
6	0	0	0	0	503	534	
7	0	0	0	0	502	539	
8	0	0	0	0	502	540	
9	0	0	0	0	500	539	
10	0	0	0	0	499	543	
11	0	0	0	0	500	539	
12	0	0	0	0	498	539	
13	0	0	0	0	496	539	
14	0	0	0	0	495	534	
15	0	0	0	0	493	540	
0	0	0	0	0	492	539	
1	0	0	0	0	492	539	
2	0	0	0	0	493	543	
3	0	0	0	0	495	539	
4	0	0	0	0	496	539	
5	0	0	0	0	497	539	
6	0	0	0	0	496	534	
7	0	0	0	0	497	539	
8	0	0	0	0	499	539	
9	0	0	0	0	500	540	
10	0	0	0	0	499	543	
11	0	0	0	0	498	539	
12	0	0	0	0	497	539	
13	0	0	0	0	495	539	
14	0	0	0	0	493	535	
15	0	0	0	0	491	539	
0	0	0	0	0	489	539	
1	0	0	0	0	487	539	
2	0	0	0	0	485	543	
3	0	0	0	0	483	539	
4	0	0	0	0	480	539	
5	0	0	0	0	478	539	
6	0	0	0	0	477	533	
7	0	0	0	0	476	539	
8	0	0	0	0	473	539	
9	0	0	0	0	470	540	
10	0	0	0	0	468	544	
11	0	0	0	0	462	539	
12	0	0	0	0	458	540	
13	0	0	0	0	454	539	
14	0	0	0	0	451	534	
15	0	0	0	0	447	539	
0	0	0	0	0	443	539	
1	0	0	0	0	439	538	
2	0	0	0	0	436	543	
3	0	0	0	0	433	539	
4	0	0	0	0	432	539	
5	0	0	0	0	433	538	
6	0	0	0	0	437	534	
7	0	0	0	0	445	539	
8	0	0	0	0	455	539	
9	0	0	0	0	467	539	
10	0	0	0	0	479	543	
11	0	0	0	0	493	539	
12	0	0	0	0	506	538	
13	0	0	0	0	518	538	
14	0	0	0	0	534	534	
15	0	0	0	0	550	538	
0	0	0	0	0	565	539	
1	0	0	0	0	578	539	
2	0	0	0	0	591	543	
3	0	0	0	0	603	539	
4	0	0	0	0	614	538	
5	0	0	0	0	622	539	
6	0	0	0	0	625	534	
7	0	0	0	0	624	539	
8	0	0	0	0	620	538	
9	0	0	0	0	615	538	
10	0	0	0	0	605	543	
11	0	0	0	0	591	538	
12	0	0	0	0	574	538	
13	0	0	0	0	560	538	
14	0	0	0	0	551	533	
15	0	0	0	0	547	539	
0	0	0	0	0	546	539	
1	0	0	0	0	549	538	
2	0	0	0	0	551	543	
3	0	0	0	0	555	538	
4	0	0	0	0	559	539	
5	0	0	0	0	560	539	
6	0	0	0	0	558	533	
7	0	0	0	0	555	539	
8	0	0	0	0	552	538	
9	0	0	0	0	548	539	
10	0	0	0	0	541	543	
11	0	0	0	0	533	538	
12	0	0	0	0	523	539	
13	0	0	0	0	515	538	
14	0	0	0	0	506	535	
15	0	0	0	0	497	539	
0	0	0	0	0	489	539	
1	0	0	0	0	481	538	
2	0	0	0	0	474	543	
3	0	0	0	0	469	539	
4	0	0	0	0	463	538	
5	0	0	0	0	459	537	
6	0	0	0	0	455	533	
7	0	0	0	0	451	538	
8	0	0	0	0	448	538	
9	0	0	0	0	445	538	
10	0	0	0	0	442	542	
11	0	0	0	0	440	538	
12	0	0	0	0	438	537	
13	0	0	0	0	436	538	
14	0	0	0	0	435	533	
15	0	0	0	0	434	538	
0	0	0	0	0	433	538	
1	0	0	0	0	433	538	
2	0	0	0	0	432	542	
3	0	0	0	0	434	538	
4	0	0	0	0	435	537	
5	0	0	0	0	435	537	
6	0	0	0	0	435	532	
7	0	0	0	0	436	537	
8	0	0	0	0	436	537	
9	0	0	0	0	437	538	
10	0	0	0	0	440	542	
11	0	0	0	0	441	536	
12	0	0	0	0	442	538	
13	0	0	0	0	443	537	
14	0	0	0	0	443	532	
15	0	0	0	0	443	537	
0	0	0	0	0	441	538	
1	0	0	0	0	440	538	
2	0	0	0	0	441	542	
3	0	0	0	0	440	538	
4	0	0	0	0	440	537	
5	0	0	0	0	440	538	
6	0	0	0	0	440	533	
7	0	0	0	0	441	537	
8	0	0	0	0	442	538	
9	0	0	0	0	444	538	
10	0	0	0	0	444	543	
11	0	0	0	0	445	538	
12	0	0	0	0	447	538	
13	0	0	0	0	448	537	
14	0	0	0	0	449	532	
15	0	0	0	0	449	537	
0	0	0	0	0	450	537	
1	0	0	0	0	450	537	
2	0	0	0	0	451	542	
3	0	0	0	0	452	537	
4	0	0	0	0	453	538	
5	0	0	0	0	454	538	
6	0	0	0	0	453	533	
7	0	0	0	0	453	538	
8	0	0	0	0	454	538	
9	0	0	0	0	454	537	
10	0	0	0	0	454	543	
11	0	0	0	0	453	538	
12	0	0	0	0	455	537	
13	0	0	0	0	458	537	
14	0	0	0	0	459	533	
15	0	0	0	0	460	537	
0	0	0	0	0	461	538	
1	0	0	0	0	463	538	
2	0	0	0	0	464	542	
3	0	0	0	0	466	537	
4	0	0	0	0	467	538	
5	0	0	0	0	468	537	
6	0	0	0	0	468	533	
7	0	0	0	0	468	538	
8	0	0	0	0	468	537	
9	0	0	0	0	467	538	
10	0	0	0	0	468	542	
11	0	0	0	0	467	538	
12	0	0	0	0	467	537	
13	0	0	0	0	467	537	
14	0	0	0	0	468	532	
15	0	0	0	0	468	538	
0	0	0	0	0	470	538	
1	0	0	0	0	472	538	
2	0	0	0	0	473	542	
3	0	0	0	0	477	537	
4	0	0	0	0	480	537	
5	0	0	0	0	481	537	
6	0	0	0	0	484	532	
7	0	0	0	0	487	538	
8	0	0	0	0	489	537	
9	0	0	0	0	489	537	
10	0	0	0	0	491	542	
11	0	0	0	0	493	538	
12	0	0	0	0	493	538	
13	0	0	0	0	493	537	
14	0	0	0	0	494	533	
15	0	0	0	0	495	537	
0	0	0	0	0	495	538	
1	0	0	0	0	495	538	
2	0	0	0	0	495	542	
3	0	0	0	0	497	538	
4	0	0	0	0	497	537	
5	0	0	0	0	497	537	
6	0	0	0	0	499	531	
7	0	0	0	0	502	537	
8	0	0	0	0	504	538	
9	0	0	0	0	505	537	
10	0	0	0	0	505	542	
11	0	0	0	0	506	538	
12	0	0	0	0	507	538	
13	0	0	0	0	508	537	
14	0	0	0	0	507	533	
15	0	0	0	0	507	537	
0	0	0	0	0	508	537	
1	0	0	0	0	507	539	
2	0	0	0	0	508	542	
3	0	0	0	0	508	538	
4	0	0	0	0	509	538	
5	0	0	0	0	510	537	
6	0	0	0	0	510	533	
7	0	0	0	0	511	537	
8	0	0	0	0	512	537	
9	0	0	0	0	513	538	
10	0	0	0	0	514	542	
11	0	0	0	0	516	538	
12	0	0	0	0	518	537	
13	0	0	0	0	519	537	
14	0	0	0	0	520	533	
15	0	0	0	0	521	538	
0	0	0	0	0	522	537	
1	0	0	0	0	523	537	
2	0	0	0	0	521	542	
3	0	0	0	0	521	537	
4	0	0	0	0	519	537	
5	0	0	0	0	519	537	
6	0	0	0	0	516	532	
7	0	0	0	0	515	537	
8	0	0	0	0	515	537	
9	0	0	0	0	515	537	
10	0	0	0	0	515	542	
11	0	0	0	0	515	537	
12	0	0	0	0	515	538	
13	0	0	0	0	517	538	
14	0	0	0	0	517	532	
15	0	0	0	0	518	538	
0	0	0	0	0	519	538	
1	0	0	0	0	520	539	
2	0	0	0	0	520	542	
3	0	0	0	0	520	538	
4	0	0	0	0	520	538	
5	0	0	0	0	520	538	
6	0	0	0	0	520	532	
7	0	0	0	0	520	537	
8	0	0	0	0	519	537	
9	0	0	0	0	518	538	
10	0	0	0	0	515	542	
11	0	0	0	0	514	537	
12	0	0	0	0	512	537	
13	0	0	0	0	510	538	
14	0	0	0	0	509	533	
15	0	0	0	0	507	539	
0	0	0	0	0	506	538	
1	0	0	0	0	505	538	
2	0	0	0	0	506	543	
3	0	0	0	0	507	538	
4	0	0	0	0	507	539	
5	0	0	0	0	509	538	
6	0	0	0	0	511	534	
7	0	0	0	0	513	538	
8	0	0	0	0	514	538	
9	0	0	0	0	515	539	
10	0	0	0	0	514	543	
11	0	0	0	0	513	538	
12	0	0	0	0	512	539	
13	0	0	0	0	512	538	
14	0	0	0	0	511	534	
15	0	0	0	0	511	539	
0	0	0	0	0	511	538	
1	0	0	0	0	510	539	
2	0	0	0	0	508	543	
3	0	0	0	0	508	539	
4	0	0	0	0	508	539	
5	0	0	0	0	508	538	
6	0	0	0	0	509	534	
7	0	0	0	0	509	539	
8	0	0	0	0	510	539	
9	0	0	0	0	510	538	
10	0	0	0	0	511	543	
11	0	0	0	0	511	539	
12	0	0	0	0	511	538	
13	0	0	0	0	511	538	
14	0	0	0	0	512	534	
15	0	0	0	0	512	539	
0	0	0	0	0	512	538	
1	0	0	0	0	512	539	
2	0	0	0	0	512	543	
3	0	0	0	0	511	539	
4	0	0	0	0	511	539	
5	0	0	0	0	511	539	
6	0	0	0	0	511	534	
7	0	0	0	0	511	539	
8	0	0	0	0	511	539	
9	0	0	0	0	511	539	
10	0	0	0	0	512	543	
11	0	0	0	0	513	539	
12	0	0	0	0	515	538	
13	0	0	0	0	515	539	
14	0	0	0	0	516	534	
15	0	0	0	0	517	538	
0	0	0	0	0	517	539	
1	0	0	0	0	517	539	
2	0	0	0	0	518	543	
3	0	0	0	0	519	539	
4	0	0	0	0	520	539	
5	0	0	0	0	521	539	
6	0	0	0	0	521	534	
7	0	0	0	0	522	539	
8	0	0	0	0	522	539	
9	0	0	0	0	523	539	
10	0	0	0	0	523	543	
11	0	0	0	0	523	539	
12	0	0	0	0	523	539	
13	0	0	0	0	523	539	
14	0	0	0	0	523	534	
15	0	0	0	0	523	539	
0	0	0	0	0	524	539	
1	0	0	0	0	525	540	
2	0	0	0	0	527	543	
3	0	0	0	0	528	539	
4	0	0	0	0	529	540	
5	0	0	0	0	529	539	
6	0	0	0	0	530	534	
7	0	0	0	0	531	539	
8	0	0	0	0	531	539	
9	0	0	0	0	531	539	
10	0	0	0	0	531	543	
11	0	0	0	0	531	539	
12	0	0	0	0	532	539	
13	0	0	0	0	532	539	
14	0	0	0	0	532	535	
15	0	0	0	0	533	539	
0	0	0	0	0	534	539	
1	0	0	0	0	535	539	
2	0	0	0	0	536	543	
3	0	0	0	0	537	539	
4	0	0	0	0	538	540	
5	0	0	0	0	539	539	
6	0	0	0	0	540	533	
7	0	0	0	0	542	539	
8	0	0	0	0	542	538	
9	0	0	0	0	541	539	
10	0	0	0	0	540	543	
11	0	0	0	0	540	539	
12	0	0	0	0	540	538	
13	0	0	0	0	539	538	
14	0	0	0	0	539	534	
15	0	0	0	0	539	539	
0	0	0	0	0	538	538	
1	0	0	0	0	536	538	
2	0	0	0	0	536	543	
3	0	0	0	0	537	539	
4	0	0	0	0	537	539	
5	0	0	0	0	538	539	
6	0	0	0	0	537	533	
7	0	0	0	0	537	539	
8	0	0	0	0	537	538	
9	0	0	0	0	537	539	
10	0	0	0	0	537	543	
11	0	0	0	0	537	539	
12	0	0	0	0	536	539	
13	0	0	0	0	536	539	
14	0	0	0	0	535	534	
15	0	0	0	0	535	539	
0	0	0	0	0	534	538	
1	0	0	0	0	535	538	
2	0	0	0	0	535	543	
3	0	0	0	0	534	539	
4	0	0	0	0	533	539	
5	0	0	0	0	533	538	
6	0	0	0	0	534	534	
7	0	0	0	0	536	538	
8	0	0	0	0	537	539	
9	0	0	0	0	539	539	
10	0	0	0	0	540	543	
11	0	0	0	0	543	540	
12	0	0	0	0	544	539	
13	0	0	0	0	544	538	
14	0	0	0	0	544	534	
15	0	0	0	0	544	539	
0	0	0	0	0	543	539	
1	0	0	0	0	542	539	
2	0	0	0	0	539	543	
3	0	0	0	0	537	539	
4	0	0	0	0	533	539	
5	0	0	0	0	529	539	
6	0	0	0	0	526	534	
7	0	0	0	0	522	539	
8	0	0	0	0	518	539	
9	0	0	0	0	515	539	
10	0	0	0	0	512	543	
11	0	0	0	0	510	539	
12	0	0	0	0	507	539	
13	0	0	0	0	506	538	
14	0	0	0	0	504	534	
15	0	0	0	0	503	539	
0	0	0	0	0	502	539	
1	0	0	0	0	500	539	
2	0	0	0	0	499	543	
3	0	0	0	0	498	538	
4	0	0	0	0	496	539	
5	0	0	0	0	494	538	
6	0	0	0	0	492	533	
7	0	0	0	0	490	538	
8	0	0	0	0	487	538	
9	0	0	0	0	484	538	
10	0	0	0	0	481	543	
11	0	0	0	0	478	539	
12	0	0	0	0	474	538	
13	0	0	0	0	471	538	
14	0	0	0	0	468	534	
15	0	0	0	0	466	538	
0	0	0	0	0	463	537	
1	0	0	0	0	461	538	
2	0	0	0	0	460	543	
3	0	0	0	0	460	538	
4	0	0	0	0	459	539	
5	0	0	0	0	458	537	
6	0	0	0	0	458	533	
7	0	0	0	0	456	539	
8	0	0	0	0	455	539	
9	0	0	0	0	452	538	
10	0	0	0	0	450	542	
11	0	0	0	0	448	538	
12	0	0	0	0	445	538	
13	0	0	0	0	441	539	
14	0	0	0	0	438	533	
15	0	0	0	0	435	538	
0	0	0	0	0	432	538	
1	0	0	0	0	430	538	
2	0	0	0	0	428	542	
3	0	0	0	0	426	537	
4	0	0	0	0	424	537	
5	0	0	0	0	423	537	
6	0	0	0	0	423	533	
7	0	0	0	0	422	539	
8	0	0	0	0	420	538	
9	0	0	0	0	420	538	
10	0	0	0	0	418	542	
11	0	0	0	0	417	537	
12	0	0	0	0	415	537	
13	0	0	0	0	412	537	
14	0	0	0	0	410	533	
15	0	0	0	0	408	537	
0	0	0	0	0	404	537	
1	0	0	0	0	401	538	
2	0	0	0	0	398	542	
3	0	0	0	0	396	537	
4	0	0	0	0	395	537	
5	0	0	0	0	393	537	
6	0	0	0	0	391	532	
7	0	0	0	0	391	538	
8	0	0	0	0	390	537	
9	0	0	0	0	388	537	
10	0	0	0	0	386	542	
11	0	0	0	0	386	538	
12	0	0	0	0	384	537	
13	0	0	0	0	384	537	
14	0	0	0	0	384	533	
15	0	0	0	0	384	537	
0	0	0	0	0	385	538	
1	0	0	0	0	384	538	
2	0	0	0	0	385	542	
3	0	0	0	0	385	538	
4	0	0	0	0	385	537	
5	0	0	0	0	384	537	
6	0	0	0	0	383	533	
7	0	0	0	0	383	538	
8	0	0	0	0	382	538	
9	0	0	0	0	382	538	
10	0	0	0	0	381	542	
11	0	0	0	0	382	538	
12	0	0	0	0	382	538	
13	0	0	0	0	382	537	
14	0	0	0	0	384	532	
15	0	0	0	0	385	538	
0	0	0	0	0	387	538	
1	0	0	0	0	388	538	
2	0	0	0	0	389	543	
3	0	0	0	0	391	538	
4	0	0	0	0	391	537	
5	0	0	0	0	393	538	
6	0	0	0	0	394	533	
7	0	0	0	0	395	538	
8	0	0	0	0	396	538	
9	0	0	0	0	396	539	
10	0	0	0	0	397	543	
11	0	0	0	0	398	538	
12	0	0	0	0	399	538	
13	0	0	0	0	401	537	
14	0	0	0	0	403	533	
15	0	0	0	0	405	539	
0	0	0	0	0	408	539	
1	0	0	0	0	410	538	
2	0	0	0	0	413	542	
3	0	0	0	0	416	538	
4	0	0	0	0	419	538	
5	0	0	0	0	423	538	
6	0	0	0	0	425	534	
7	0	0	0	0	428	538	
8	0	0	0	0	431	538	
9	0	0	0	0	433	539	
10	0	0	0	0	436	543	
11	0	0	0	0	438	537	
12	0	0	0	0	440	538	
13	0	0	0	0	441	537	
14	0	0	0	0	443	533	
15	0	0	0	0	444	538	
0	0	0	0	0	446	538	
1	0	0	0	0	447	538	
2	0	0	0	0	449	543	
3	0	0	0	0	451	538	
4	0	0	0	0	454	538	
5	0	0	0	0	458	538	
6	0	0	0	0	461	533	
7	0	0	0	0	464	538	
8	0	0	0	0	467	539	
9	0	0	0	0	471	538	
10	0	0	0	0	473	543	
11	0	0	0	0	477	538	
12	0	0	0	0	480	538	
13	0	0	0	0	482	538	
14	0	0	0	0	484	533	
15	0	0	0	0	486	538	
0	0	0	0	0	487	538	
1	0	0	0	0	489	539	
2	0	0	0	0	490	543	
3	0	0	0	0	493	538	
4	0	0	0	0	495	538	
5	0	0	0	0	496	538	
6	0	0	0	0	499	534	
7	0	0	0	0	501	539	
8	0	0	0	0	504	539	
9	0	0	0	0	505	538	
10	0	0	0	0	508	543	
11	0	0	0	0	511	538	
12	0	0	0	0	513	537	
13	0	0	0	0	515	537	
14	0	0	0	0	518	532	
15	0	0	0	0	520	538	
0	0	0	0	0	522	538	
1	0	0	0	0	524	538	
2	0	0	0	0	525	542	
3	0	0	0	0	527	537	
4	0	0	0	0	529	538	
5	0	0	0	0	530	538	
6	0	0	0	0	531	533	
7	0	0	0	0	534	539	
8	0	0	0	0	535	539	
9	0	0	0	0	536	538	
10	0	0	0	0	538	542	
11	0	0	0	0	540	538	
12	0	0	0	0	542	538	
13	0	0	0	0	543	538	
14	0	0	0	0	545	533	
15	0	0	0	0	547	538	
0	0	0	0	0	549	538	
1	0	0	0	0	551	537	
2	0	0	0	0	552	542	
3	0	0	0	0	553	537	
4	0	0	0	0	554	538	
5	0	0	0	0	556	538	
6	0	0	0	0	557	533	
7	0	0	0	0	559	538	
8	0	0	0	0	561	538	
9	0	0	0	0	562	538	
10	0	0	0	0	563	542	
11	0	0	0	0	563	537	
12	0	0	0	0	565	537	
13	0	0	0	0	566	537	
14	0	0	0	0	568	533	
15	0	0	0	0	569	538	
0	0	0	0	0	570	537	
1	0	0	0	0	571	537	
2	0	0	0	0	572	542	
3	0	0	0	0	573	538	
4	0	0	0	0	575	538	
5	0	0	0	0	576	537	
6	0	0	0	0	578	532	
7	0	0	0	0	580	538	
8	0	0	0	0	582	538	
9	0	0	0	0	583	538	
10	0	0	0	0	584	543	
11	0	0	0	0	586	537	
12	0	0	0	0	586	537	
13	0	0	0	0	587	537	
14	0	0	0	0	588	533	
15	0	0	0	0	588	537	
0	0	0	0	0	588	538	
1	0	0	0	0	588	538	
2	0	0	0	0	588	542	
3	0	0	0	0	589	537	
4	0	0	0	0	590	538	
5	0	0	0	0	591	537	
6	0	0	0	0	591	533	
7	0	0	0	0	593	537	
8	0	0	0	0	596	537	
9	0	0	0	0	599	537	
10	0	0	0	0	601	542	
11	0	0	0	0	604	537	
12	0	0	0	0	606	537	
13	0	0	0	0	608	537	
14	0	0	0	0	608	533	
15	0	0	0	0	610	538	
0	0	0	0	0	610	537	
1	0	0	0	0	610	538	
2	0	0	0	0	611	542	
3	0	0	0	0	611	537	
4	0	0	0	0	610	537	
5	0	0	0	0	610	537	
6	0	0	0	0	610	532	
7	0	0	0	0	611	538	
8	0	0	0	0	611	538	
9	0	0	0	0	612	538	
10	0	0	0	0	613	542	
11	0	0	0	0	615	538	
12	0	0	0	0	616	537	
13	0	0	0	0	617	537	
14	0	0	0	0	619	534	
15	0	0	0	0	620	538	
0	0	0	0	0	622	539	
1	0	0	0	0	623	539	
2	0	0	0	0	624	542	
3	0	0	0	0	625	537	
4	0	0	0	0	626	537	
5	0	0	0	0	626	538	
6	0	0	0	0	626	532	
7	0	0	0	0	627	538	
8	0	0	0	0	627	538	
9	0	0	0	0	627	539	
10	0	0	0	0	627	543	
11	0	0	0	0	628	539	
12	0	0	0	0	628	539	
13	0	0	0	0	629	538	
14	0	0	0	0	630	534	
15	0	0	0	0	632	539	
0	0	0	0	0	633	539	
1	0	0	0	0	635	538	
2	0	0	0	0	636	543	
3	0	0	0	0	637	538	
4	0	0	0	0	637	537	
5	0	0	0	0	637	537	
6	0	0	0	0	637	533	
7	0	0	0	0	636	538	
8	0	0	0	0	635	537	
9	0	0	0	0	634	538	
10	0	0	0	0	633	542	
11	0	0	0	0	632	538	
12	0	0	0	0	632	538	
13	0	0	0	0	631	538	
14	0	0	0	0	630	533	
15	0	0	0	0	630	537	
0	0	0	0	0	630	538	
1	0	0	0	0	630	538	
2	0	0	0	0	631	543	
3	0	0	0	0	632	538	
4	0	0	0	0	633	539	
5	0	0	0	0	635	538	
6	0	0	0	0	637	534	
7	0	0	0	0	638	538	
8	0	0	0	0	639	538	
9	0	0	0	0	641	538	
10	0	0	0	0	641	542	
11	0	0	0	0	641	538	
12	0	0	0	0	641	538	
13	0	0	0	0	641	539	
14	0	0	0	0	640	534	
15	0	0	0	0	640	538	
0	0	0	0	0	639	538	
1	0	0	0	0	639	538	
2	0	0	0	0	638	543	
3	0	0	0	0	638	538	
4	0	0	0	0	638	538	
5	0	0	0	0	637	538	
6	0	0	0	0	638	533	
7	0	0	0	0	638	539	
8	0	0	0	0	639	539	
9	0	0	0	0	640	538	
10	0	0	0	0	642	543	
11	0	0	0	0	643	538	
12	0	0	0	0	645	538	
13	0	0	0	0	646	538	
14	0	0	0	0	646	533	
15	0	0	0	0	646	538	
0	0	0	0	0	646	538	
1	0	0	0	0	646	538	
2	0	0	0	0	646	543	
3	0	0	0	0	646	538	
4	0	0	0	0	646	539	
5	0	0	0	0	646	539	
6	0	0	0	0	646	534	
7	0	0	0	0	646	538	
8	0	0	0	0	645	539	
9	0	0	0	0	644	539	
10	0	0	0	0	644	543	
11	0	0	0	0	644	538	
12	0	0	0	0	644	538	
13	0	0	0	0	645	539	
14	0	0	0	0	645	534	
15	0	0	0	0	645	538	
0	0	0	0	0	645	539	
1	0	0	0	0	644	539	
2	0	0	0	0	643	543	
3	0	0	0	0	641	539	
4	0	0	0	0	639	539	
5	0	0	0	0	638	539	
6	0	0	0	0	635	534	
7	0	0	0	0	633	539	
8	0	0	0	0	630	539	
9	0	0	0	0	627	540	
10	0	0	0	0	625	543	
11	0	0	0	0	623	538	
12	0	0	0	0	622	539	
13	0	0	0	0	621	538	
14	0	0	0	0	621	534	
15	0	0	0	0	620	539	
0	0	0	0	0	619	539	
1	0	0	0	0	618	539	
2	0	0	0	0	617	543	
3	0	0	0	0	617	539	
4	0	0	0	0	616	539	
5	0	0	0	0	615	538	
6	0	0	0	0	615	534	
7	0	0	0	0	614	540	
8	0	0	0	0	611	539	
9	0	0	0	0	609	539	
10	0	0	0	0	608	543	
11	0	0	0	0	607	539	
12	0	0	0	0	605	539	
13	0	0	0	0	604	539	
14	0	0	0	0	602	534	
15	0	0	0	0	601	539	
0	0	0	0	0	600	539	
1	0	0	0	0	599	539	
2	0	0	0	0	598	543	
3	0	0	0	0	598	539	
4	0	0	0	0	598	538	
5	0	0	0	0	598	538	
6	0	0	0	0	598	534	
7	0	0	0	0	597	538	
8	0	0	0	0	596	538	
9	0	0	0	0	594	538	
10	0	0	0	0	593	542	
11	0	0	0	0	592	537	
12	0	0	0	0	590	538	
13	0	0	0	0	588	539	
14	0	0	0	0	587	533	
15	0	0	0	0	586	539	
0	0	0	0	0	585	538	
1	0	0	0	0	583	539	
2	0	0	0	0	583	543	
3	0	0	0	0	583	538	
4	0	0	0	0	583	538	
5	0	0	0	0	582	538	
6	0	0	0	0	583	534	
7	0	0	0	0	582	538	
8	0	0	0	0	582	538	
9	0	0	0	0	581	539	
10	0	0	0	0	580	542	
11	0	0	0	0	579	539	
12	0	0	0	0	575	538	
13	0	0	0	0	572	538	
14	0	0	0	0	568	533	
15	0	0	0	0	563	539	
0	0	0	0	0	557	538	
1	0	0	0	0	551	538	
2	0	0	0	0	547	543	
3	0	0	0	0	543	537	
4	0	0	0	0	539	538	
5	0	0	0	0	536	538	
6	0	0	0	0	532	533	
7	0	0	0	0	530	538	
8	0	0	0	0	528	538	
9	0	0	0	0	527	538	
10	0	0	0	0	529	542	
11	0	0	0	0	535	538	
12	0	0	0	0	540	537	
13	0	0	0	0	550	537	
14	0	0	0	0	560	533	
15	0	0	0	0	571	537	
0	0	0	0	0	584	538	
1	0	0	0	0	596	538	
2	0	0	0	0	606	542	
3	0	0	0	0	617	538	
4	0	0	0	0	628	538	
5	0	0	0	0	641	538	
6	0	0	0	0	654	533	
7	0	0	0	0	665	538	
8	0	0	0	0	676	539	
9	0	0	0	0	686	539	
10	0	0	0	0	693	543	
11	0	0	0	0	697	539	
12	0	0	0	0	697	538	
13	0	0	0	0	692	538	
14	0	0	0	0	685	534	
15	0	0	0	0	674	539	
0	0	0	0	0	660	539	
1	0	0	0	0	643	538	
2	0	0	0	0	626	543	
3	0	0	0	0	615	538	
4	0	0	0	0	610	539	
5	0	0	0	0	608	537	
6	0	0	0	0	608	533	
7	0	0	0	0	611	539	
8	0	0	0	0	614	538	
9	0	0	0	0	617	539	
10	0	0	0	0	619	543	
11	0	0	0	0	618	538	
12	0	0	0	0	617	538	
13	0	0	0	0	615	538	
14	0	0	0	0	611	533	
15	0	0	0	0	607	539	
0	0	0	0	0	603	539	
1	0	0	0	0	598	539	
2	0	0	0	0	591	543	
3	0	0	0	0	585	539	
4	0	0	0	0	579	539	
5	0	0	0	0	573	538	
6	0	0	0	0	565	534	
7	0	0	0	0	559	539	
8	0	0	0	0	554	538	
9	0	0	0	0	548	539	
10	0	0	0	0	543	543	
11	0	0	0	0	538	539	
12	0	0	0	0	532	539	
13	0	0	0	0	528	539	
14	0	0	0	0	524	534	
15	0	0	0	0	521	539	
0	0	0	0	0	518	539	
1	0	0	0	0	515	540	
2	0	0	0	0	514	543	
3	0	0	0	0	512	539	
4	0	0	0	0	512	539	
5	0	0	0	0	511	539	
6	0	0	0	0	509	534	
7	0	0	0	0	510	539	
8	0	0	0	0	510	539	
9	0	0	0	0	511	539	
10	0	0	0	0	511	543	
11	0	0	0	0	511	539	
12	0	0	0	0	511	539	
13	0	0	0	0	511	539	
14	0	0	0	0	510	534	
15	0	0	0	0	509	538	
0	0	0	0	0	508	539	
1	0	0	0	0	507	539	
2	0	0	0	0	505	543	
3	0	0	0	0	504	539	
4	0	0	0	0	504	539	
5	0	0	0	0	504	538	
6	0	0	0	0	504	534	
7	0	0	0	0	503	538	
8	0	0	0	0	503	538	
9	0	0	0	0	504	538	
10	0	0	0	0	504	543	
11	0	0	0	0	504	539	
12	0	0	0	0	505	538	
13	0	0	0	0	505	539	
14	0	0	0	0	506	534	
15	0	0	0	0	507	539	
0	0	0	0	0	508	539	
1	0	0	0	0	508	539	
2	0	0	0	0	508	542	
3	0	0	0	0	508	538	
4	0	0	0	0	507	538	
5	0	0	0	0	506	538	
6	0	0	0	0	505	534	
7	0	0	0	0	504	537	
8	0	0	0	0	503	538	
9	0	0	0	0	502	537	
10	0	0	0	0	501	543	
11	0	0	0	0	500	538	
12	0	0	0	0	499	538	
13	0	0	0	0	499	538	
14	0	0	0	0	499	534	
15	0	0	0	0	499	539	
0	0	0	0	0	499	538	
1	0	0	0	0	499	539	
2	0	0	0	0	499	543	
3	0	0	0	0	500	537	
4	0	0	0	0	500	537	
5	0	0	0	0	500	538	
6	0	0	0	0	501	533	
7	0	0	0	0	501	538	
8	0	0	0	0	500	537	
9	0	0	0	0	499	538	
10	0	0	0	0	497	542	
11	0	0	0	0	496	537	
12	0	0	0	0	495	537	
13	0	0	0	0	494	537	
14	0	0	0	0	494	532	
15	0	0	0	0	493	538	
0	0	0	0	0	494	536	
1	0	0	0	0	493	537	
2	0	0	0	0	493	542	
3	0	0	0	0	494	537	
4	0	0	0	0	494	537	
5	0	0	0	0	493	536	
6	0	0	0	0	493	532	
7	0	0	0	0	493	537	
8	0	0	0	0	494	537	
9	0	0	0	0	494	538	
10	0	0	0	0	495	542	
11	0	0	0	0	495	537	
12	0	0	0	0	494	538	
13	0	0	0	0	494	537	
14	0	0	0	0	493	533	
15	0	0	0	0	493	537	
0	0	0	0	0	493	537	
1	0	0	0	0	494	537	
2	0	0	0	0	495	542	
3	0	0	0	0	496	537	
4	0	0	0	0	496	538	
5	0	0	0	0	496	538	
6	0	0	0	0	497	532	
7	0	0	0	0	499	537	
8	0	0	0	0	500	537	
9	0	0	0	0	501	539	
10	0	0	0	0	501	543	
11	0	0	0	0	502	538	
12	0	0	0	0	503	538	
13	0	0	0	0	503	538	
14	0	0	0	0	503	533	
15	0	0	0	0	504	538	
0	0	0	0	0	503	539	
1	0	0	0	0	503	538	
2	0	0	0	0	503	543	
3	0	0	0	0	503	539	
4	0	0	0	0	502	539	
5	0	0	0	0	503	539	
6	0	0	0	0	503	534	
7	0	0	0	0	504	538	
8	0	0	0	0	505	538	
9	0	0	0	0	507	538	
10	0	0	0	0	509	542	
11	0	0	0	0	510	538	
12	0	0	0	0	512	539	
13	0	0	0	0	513	538	
14	0	0	0	0	515	534	
15	0	0	0	0	516	538	
0	0	0	0	0	517	538	
1	0	0	0	0	517	538	
2	0	0	0	0	517	542	
3	0	0	0	0	516	538	
4	0	0	0	0	515	538	
5	0	0	0	0	514	538	
6	0	0	0	0	513	533	
7	0	0	0	0	513	539	
8	0	0	0	0	512	539	
9	0	0	0	0	511	539	
10	0	0	0	0	512	543	
11	0	0	0	0	512	538	
12	0	0	0	0	513	539	
13	0	0	0	0	514	539	
14	0	0	0	0	515	533	
15	0	0	0	0	516	539	
0	0	0	0	0	518	539	
1	0	0	0	0	519	539	
2	0	0	0	0	521	543	
3	0	0	0	0	522	538	
4	0	0	0	0	523	539	
5	0	0	0	0	524	538	
6	0	0	0	0	524	534	
7	0	0	0	0	525	539	
8	0	0	0	0	525	539	
9	0	0	0	0	524	539	
10	0	0	0	0	523	543	
11	0	0	0	0	522	538	
12	0	0	0	0	521	538	
13	0	0	0	0	520	538	
14	0	0	0	0	519	533	
15	0	0	0	0	519	538	
0	0	0	0	0	519	538	
1	0	0	0	0	519	538	
2	0	0	0	0	519	542	
3	0	0	0	0	520	538	
4	0	0	0	0	519	538	
5	0	0	0	0	519	537	
6	0	0	0	0	520	533	
7	0	0	0	0	519	538	
8	0	0	0	0	519	538	
9	0	0	0	0	519	538	
10	0	0	0	0	519	543	
11	0	0	0	0	519	537	
12	0	0	0	0	519	538	
13	0	0	0	0	519	538	
14	0	0	0	0	519	533	
15	0	0	0	0	519	537	
0	0	0	0	0	519	539	
1	0	0	0	0	518	537	
2	0	0	0	0	517	542	
3	0	0	0	0	518	538	
4	0	0	0	0	519	537	
5	0	0	0	0	520	537	
6	0	0	0	0	522	533	
7	0	0	0	0	523	538	
8	0	0	0	0	525	537	
9	0	0	0	0	526	537	
10	0	0	0	0	527	541	
11	0	0	0	0	528	537	
12	0	0	0	0	529	538	
13	0	0	0	0	530	537	
14	0	0	0	0	530	533	
15	0	0	0	0	531	537	
0	0	0	0	0	532	537	
1	0	0	0	0	532	537	
2	0	0	0	0	531	541	
3	0	0	0	0	531	537	
4	0	0	0	0	530	537	
5	0	0	0	0	530	537	
6	0	0	0	0	530	532	
7	0	0	0	0	530	538	
8	0	0	0	0	529	538	
9	0	0	0	0	530	538	
10	0	0	0	0	530	542	
11	0	0	0	0	531	538	
12	0	0	0	0	531	538	
13	0	0	0	0	532	538	
14	0	0	0	0	533	534	
15	0	0	0	0	534	538	
0	0	0	0	0	534	538	
1	0	0	0	0	534	539	
2	0	0	0	0	534	542	
3	0	0	0	0	533	538	
4	0	0	0	0	532	538	
5	0	0	0	0	532	538	
6	0	0	0	0	532	533	
7	0	0	0	0	531	539	
8	0	0	0	0	531	538	
9	0	0	0	0	531	539	
10	0	0	0	0	532	543	
11	0	0	0	0	534	539	
12	0	0	0	0	536	538	
13	0	0	0	0	538	538	
14	0	0	0	0	539	533	
15	0	0	0	0	541	538	
0	0	0	0	0	543	539	
1	0	0	0	0	544	539	
2	0	0	0	0	547	543	
3	0	0	0	0	549	539	
4	0	0	0	0	550	539	
5	0	0	0	0	551	538	
6	0	0	0	0	551	534	
7	0	0	0	0	551	539	
8	0	0	0	0	552	539	
9	0	0	0	0	551	539	
10	0	0	0	0	550	544	
11	0	0	0	0	550	539	
12	0	0	0	0	549	539	
13	0	0	0	0	548	539	
14	0	0	0	0	549	534	
15	0	0	0	0	549	539	
0	0	0	0	0	551	539	
1	0	0	0	0	551	539	
2	0	0	0	0	552	543	
3	0	0	0	0	553	539	
4	0	0	0	0	554	539	
5	0	0	0	0	555	539	
6	0	0	0	0	556	535	
7	0	0	0	0	557	539	
8	0	0	0	0	558	539	
9	0	0	0	0	559	539	
10	0	0	0	0	560	543	
11	0	0	0	0	560	539	
12	0	0	0	0	559	540	
13	0	0	0	0	559	539	
14	0	0	0	0	559	534	
15	0	0	0	0	558	539	
0	0	0	0	0	557	539	
1	0	0	0	0	556	539	
2	0	0	0	0	558	543	
3	0	0	0	0	558	540	
4	0	0	0	0	558	539	
5	0	0	0	0	557	539	
6	0	0	0	0	558	534	
7	0	0	0	0	559	539	
8	0	0	0	0	560	539	
9	0	0	0	0	561	539	
10	0	0	0	0	561	543	
11	0	0	0	0	563	539	
12	0	0	0	0	564	539	
13	0	0	0	0	565	538	
14	0	0	0	0	566	534	
15	0	0	0	0	566	539	
0	0	0	0	0	565	539	
1	0	0	0	0	565	540	
2	0	0	0	0	565	543	
3	0	0	0	0	566	539	
4	0	0	0	0	566	539	
5	0	0	0	0	566	540	
6	0	0	0	0	567	534	
7	0	0	0	0	566	538	
8	0	0	0	0	567	539	
9	0	0	0	0	567	539	
10	0	0	0	0	567	543	
11	0	0	0	0	568	539	
12	0	0	0	0	568	540	
13	0	0	0	0	568	539	
14	0	0	0	0	569	535	
15	0	0	0	0	569	539	
0	0	0	0	0	569	539	
1	0	0	0	0	569	538	
2	0	0	0	0	568	543	
3	0	0	0	0	568	538	
4	0	0	0	0	566	539	
5	0	0	0	0	564	539	
6	0	0	0	0	563	533	
7	0	0	0	0	562	538	
8	0	0	0	0	560	539	
9	0	0	0	0	559	539	
10	0	0	0	0	558	543	
11	0	0	0	0	556	539	
12	0	0	0	0	555	539	
13	0	0	0	0	553	539	
14	0	0	0	0	553	533	
15	0	0	0	0	552	539	
0	0	0	0	0	553	538	
1	0	0	0	0	555	538	
2	0	0	0	0	556	542	
3	0	0	0	0	556	537	
4	0	0	0	0	556	537	
5	0	0	0	0	557	538	
6	0	0	0	0	557	533	
7	0	0	0	0	557	538	
8	0	0	0	0	556	538	
9	0	0	0	0	555	538	
10	0	0	0	0	554	543	
11	0	0	0	0	553	538	
12	0	0	0	0	551	537	
13	0	0	0	0	551	537	
14	0	0	0	0	550	533	
15	0	0	0	0	550	538	
0	0	0	0	0	550	538	
1	0	0	0	0	550	539	
2	0	0	0	0	550	543	
3	0	0	0	0	551	538	
4	0	0	0	0	552	538	
5	0	0	0	0	553	537	
6	0	0	0	0	554	533	
7	0	0	0	0	554	538	
8	0	0	0	0	555	538	
9	0	0	0	0	556	538	
10	0	0	0	0	556	542	
11	0	0	0	0	557	538	
12	0	0	0	0	556	538	
13	0	0	0	0	556	537	
14	0	0	0	0	556	533	
15	0	0	0	0	555	538	
0	0	0	0	0	555	538	
1	0	0	0	0	554	538	
2	0	0	0	0	554	542	
3	0	0	0	0	553	538	
4	0	0	0	0	553	538	
5	0	0	0	0	554	537	
6	0	0	0	0	555	533	
7	0	0	0	0	554	537	
8	0	0	0	0	555	537	
9	0	0	0	0	556	537	
10	0	0	0	0	556	542	
11	0	0	0	0	556	537	
12	0	0	0	0	557	537	
13	0	0	0	0	557	537	
14	0	0	0	0	556	533	
15	0	0	0	0	556	538	
0	0	0	0	0	556	539	
1	0	0	0	0	555	538	
2	0	0	0	0	555	542	
3	0	0	0	0	554	538	
4	0	0	0	0	554	539	
5	0	0	0	0	554	538	
6	0	0	0	0	554	534	
7	0	0	0	0	555	538	
8	0	0	0	0	555	538	
9	0	0	0	0	554	538	
10	0	0	0	0	555	542	
11	0	0	0	0	556	539	
12	0	0	0	0	556	538	
13	0	0	0	0	556	538	
14	0	0	0	0	556	534	
15	0	0	0	0	555	538	
0	0	0	0	0	554	537	
1	0	0	0	0	553	538	
2	0	0	0	0	552	543	
3	0	0	0	0	551	539	
4	0	0	0	0	550	538	
5	0	0	0	0	548	538	
6	0	0	0	0	547	533	
7	0	0	0	0	546	538	
8	0	0	0	0	546	539	
9	0	0	0	0	545	538	
10	0	0	0	0	543	543	
11	0	0	0	0	542	538	
12	0	0	0	0	542	539	
13	0	0	0	0	542	538	
14	0	0	0	0	542	533	
15	0	0	0	0	541	539	
0	0	0	0	0	541	538	
1	0	0	0	0	541	538	
2	0	0	0	0	542	543	
3	0	0	0	0	543	538	
4	0	0	0	0	543	539	
5	0	0	0	0	544	538	
6	0	0	0	0	545	533	
7	0	0	0	0	546	538	
8	0	0	0	0	545	538	
9	0	0	0	0	545	539	
10	0	0	0	0	545	543	
11	0	0	0	0	545	538	
12	0	0	0	0	545	538	
13	0	0	0	0	544	538	
14	0	0	0	0	545	534	
15	0	0	0	0	545	538	
0	0	0	0	0	546	538	
1	0	0	0	0	546	539	
2	0	0	0	0	547	543	
3	0	0	0	0	548	539	
4	0	0	0	0	550	539	
5	0	0	0	0	551	538	
6	0	0	0	0	553	534	
7	0	0	0	0	554	538	
8	0	0	0	0	556	539	
9	0	0	0	0	557	538	
10	0	0	0	0	558	543	
11	0	0	0	0	559	539	
12	0	0	0	0	560	539	
13	0	0	0	0	560	539	
14	0	0	0	0	560	533	
15	0	0	0	0	561	538	
0	0	0	0	0	561	539	
1	0	0	0	0	562	538	
2	0	0	0	0	562	542	
3	0	0	0	0	563	537	
4	0	0	0	0	564	538	
5	0	0	0	0	565	538	
6	0	0	0	0	566	534	
7	0	0	0	0	566	539	
8	0	0	0	0	567	538	
9	0	0	0	0	568	539	
10	0	0	0	0	569	543	
11	0	0	0	0	570	538	
12	0	0	0	0	570	538	
13	0	0	0	0	570	538	
14	0	0	0	0	570	533	
15	0	0	0	0	569	538	
0	0	0	0	0	570	538	
1	0	0	0	0	570	538	
2	0	0	0	0	569	542	
3	0	0	0	0	569	539	
4	0	0	0	0	568	538	
5	0	0	0	0	568	538	
6	0	0	0	0	568	534	
7	0	0	0	0	568	538	
8	0	0	0	0	569	538	
9	0	0	0	0	568	538	
10	0	0	0	0	568	543	
11	0	0	0	0	569	539	
12	0	0	0	0	569	539	
13	0	0	0	0	569	539	
14	0	0	0	0	569	534	
15	0	0	0	0	569	539	
0	0	0	0	0	569	539	
1	0	0	0	0	569	538	
2	0	0	0	0	568	542	
3	0	0	0	0	568	538	
4	0	0	0	0	567	539	
5	0	0	0	0	566	538	
6	0	0	0	0	565	533	
7	0	0	0	0	564	538	
8	0	0	0	0	563	538	
9	0	0	0	0	563	538	
10	0	0	0	0	563	543	
11	0	0	0	0	563	538	
12	0	0	0	0	563	538	
13	0	0	0	0	562	539	
14	0	0	0	0	563	534	
15	0	0	0	0	563	539	
0	0	0	0	0	565	539	
1	0	0	0	0	567	539	
2	0	0	0	0	568	543	
3	0	0	0	0	569	539	
4	0	0	0	0	570	539	
5	0	0	0	0	571	538	
6	0	0	0	0	571	533	
7	0	0	0	0	571	539	
8	0	0	0	0	571	539	
9	0	0	0	0	570	539	
10	0	0	0	0	569	543	
11	0	0	0	0	569	539	
12	0	0	0	0	568	539	
13	0	0	0	0	568	539	
14	0	0	0	0	568	534	
15	0	0	0	0	568	539	
0	0	0	0	0	568	539	
1	0	0	0	0	568	539	
2	0	0	0	0	569	543	
3	0	0	0	0	571	538	
4	0	0	0	0	572	539	
5	0	0	0	0	572	538	
6	0	0	0	0	573	534	
7	0	0	0	0	573	539	
8	0	0	0	0	573	539	
9	0	0	0	0	572	539	
10	0	0	0	0	572	543	
11	0	0	0	0	572	539	
12	0	0	0	0	571	538	
13	0	0	0	0	570	539	
14	0	0	0	0	569	533	
15	0	0	0	0	568	539	
0	0	0	0	0	567	539	
1	0	0	0	0	566	539	
2	0	0	0	0	564	543	
3	0	0	0	0	564	539	
4	0	0	0	0	563	539	
5	0	0	0	0	564	539	
6	0	0	0	0	564	534	
7	0	0	0	0	564	539	
8	0	0	0	0	566	538	
9	0	0	0	0	566	539	
10	0	0	0	0	568	543	
11	0	0	0	0	568	539	
12	0	0	0	0	569	539	
13	0	0	0	0	569	539	
14	0	0	0	0	569	534	
15	0	0	0	0	569	539	
0	0	0	0	0	569	539	
1	0	0	0	0	568	540	
2	0	0	0	0	568	543	
3	0	0	0	0	567	539	
4	0	0	0	0	566	539	
5	0	0	0	0	566	539	
6	0	0	0	0	564	534	
7	0	0	0	0	563	539	
8	0	0	0	0	563	539	
9	0	0	0	0	563	539	
10	0	0	0	0	563	543	
11	0	0	0	0	563	539	
12	0	0	0	0	564	539	
13	0	0	0	0	565	538	
14	0	0	0	0	566	534	
15	0	0	0	0	566	540	
0	0	0	0	0	566	539	
1	0	0	0	0	566	539	
2	0	0	0	0	566	543	
3	0	0	0	0	566	539	
4	0	0	0	0	564	539	
5	0	0	0	0	562	539	
6	0	0	0	0	561	534	
7	0	0	0	0	560	539	
8	0	0	0	0	559	539	
9	0	0	0	0	558	539	
10	0	0	0	0	556	543	
11	0	0	0	0	556	538	
12	0	0	0	0	556	538	
13	0	0	0	0	556	538	
14	0	0	0	0	557	534	
15	0	0	0	0	558	539	
0	0	0	0	0	559	538	
1	0	0	0	0	560	539	
2	0	0	0	0	560	543	
3	0	0	0	0	560	539	
4	0	0	0	0	560	539	
5	0	0	0	0	560	538	
6	0	0	0	0	560	533	
7	0	0	0	0	560	539	
8	0	0	0	0	560	539	
9	0	0	0	0	560	539	
10	0	0	0	0	559	543	
11	0	0	0	0	559	539	
12	0	0	0	0	558	538	
13	0	0	0	0	556	538	
14	0	0	0	0	555	533	
15	0	0	0	0	554	538	
0	0	0	0	0	555	538	
1	0	0	0	0	555	539	
2	0	0	0	0	555	543	
3	0	0	0	0	556	539	
4	0	0	0	0	556	538	
5	0	0	0	0	558	538	
6	0	0	0	0	560	533	
7	0	0	0	0	561	537	
8	0	0	0	0	563	538	
9	0	0	0	0	564	539	
10	0	0	0	0	564	543	
11	0	0	0	0	565	539	
12	0	0	0	0	565	539	
13	0	0	0	0	564	538	
14	0	0	0	0	563	534	
15	0	0	0	0	562	538	
0	0	0	0	0	560	539	
1	0	0	0	0	560	538	
2	0	0	0	0	560	543	
3	0	0	0	0	560	539	
4	0	0	0	0	561	539	
5	0	0	0	0	560	539	
6	0	0	0	0	560	533	
7	0	0	0	0	560	538	
8	0	0	0	0	560	538	
9	0	0	0	0	560	539	
10	0	0	0	0	560	543	
11	0	0	0	0	559	539	
12	0	0	0	0	559	538	
13	0	0	0	0	559	538	
14	0	0	0	0	559	533	
15	0	0	0	0	559	538	
0	0	0	0	0	559	538	
1	0	0	0	0	559	539	
2	0	0	0	0	559	543	
3	0	0	0	0	559	539	
4	0	0	0	0	558	539	
5	0	0	0	0	559	538	
6	0	0	0	0	559	534	
7	0	0	0	0	559	539	
8	0	0	0	0	558	538	
9	0	0	0	0	558	539	
10	0	0	0	0	558	543	
11	0	0	0	0	557	539	
12	0	0	0	0	557	538	
13	0	0	0	0	557	538	
14	0	0	0	0	557	534	
15	0	0	0	0	557	538	
0	0	0	0	0	557	538	
1	0	0	0	0	556	539	
2	0	0	0	0	555	543	
3	0	0	0	0	555	538	
4	0	0	0	0	555	538	
5	0	0	0	0	553	538	
6	0	0	0	0	553	533	
7	0	0	0	0	552	539	
8	0	0	0	0	551	538	
9	0	0	0	0	550	539	
10	0	0	0	0	550	542	
11	0	0	0	0	550	538	
12	0	0	0	0	550	538	
13	0	0	0	0	550	537	
14	0	0	0	0	550	533	
15	0	0	0	0	549	538	
0	0	0	0	0	550	538	
1	0	0	0	0	550	538	
2	0	0	0	0	549	542	
3	0	0	0	0	548	538	
4	0	0	0	0	547	538	
5	0	0	0	0	545	538	
6	0	0	0	0	541	533	
7	0	0	0	0	537	537	
8	0	0	0	0	533	537	
9	0	0	0	0	528	538	
10	0	0	0	0	521	543	
11	0	0	0	0	516	538	
12	0	0	0	0	512	538	
13	0	0	0	0	510	537	
14	0	0	0	0	507	533	
15	0	0	0	0	504	538	
0	0	0	0	0	504	538	
1	0	0	0	0	502	538	
2	0	0	0	0	501	542	
3	0	0	0	0	501	538	
4	0	0	0	0	503	538	
5	0	0	0	0	507	537	
6	0	0	0	0	512	532	
7	0	0	0	0	519	538	
8	0	0	0	0	528	538	
9	0	0	0	0	538	538	
10	0	0	0	0	549	542	
11	0	0	0	0	559	538	
12	0	0	0	0	568	538	
13	0	0	0	0	577	538	
14	0	0	0	0	590	532	
15	0	0	0	0	604	539	
0	0	0	0	0	618	538	
1	0	0	0	0	631	538	
2	0	0	0	0	641	543	
3	0	0	0	0	649	539	
4	0	0	0	0	656	539	
5	0	0	0	0	659	537	
6	0	0	0	0	657	533	
7	0	0	0	0	653	539	
8	0	0	0	0	644	537	
9	0	0	0	0	632	538	
10	0	0	0	0	617	543	
11	0	0	0	0	603	539	
12	0	0	0	0	591	539	
13	0	0	0	0	583	538	
14	0	0	0	0	581	534	
15	0	0	0	0	584	538	
0	0	0	0	0	588	538	
1	0	0	0	0	594	539	
2	0	0	0	0	601	543	
3	0	0	0	0	607	537	
4	0	0	0	0	610	538	
5	0	0	0	0	612	538	
6	0	0	0	0	614	533	
7	0	0	0	0	613	539	
8	0	0	0	0	612	538	
9	0	0	0	0	610	539	
10	0	0	0	0	607	543	
11	0	0	0	0	604	539	
12	0	0	0	0	600	538	
13	0	0	0	0	596	538	
14	0	0	0	0	591	534	
15	0	0	0	0	586	539	
0	0	0	0	0	581	538	
1	0	0	0	0	575	540	
2	0	0	0	0	569	543	
3	0	0	0	0	563	539	
4	0	0	0	0	558	539	
5	0	0	0	0	551	539	
6	0	0	0	0	546	534	
7	0	0	0	0	541	539	
8	0	0	0	0	537	539	
9	0	0	0	0	534	538	
10	0	0	0	0	531	543	
11	0	0	0	0	529	538	
12	0	0	0	0	528	538	
13	0	0	0	0	527	538	
14	0	0	0	0	527	533	
15	0	0	0	0	527	539	
0	0	0	0	0	528	539	
1	0	0	0	0	528	538	
2	0	0	0	0	528	543	
3	0	0	0	0	528	538	
4	0	0	0	0	529	538	
5	0	0	0	0	529	538	
6	0	0	0	0	528	534	
7	0	0	0	0	527	538	
8	0	0	0	0	527	537	
9	0	0	0	0	526	538	
10	0	0	0	0	525	543	
11	0	0	0	0	524	539	
12	0	0	0	0	524	538	
13	0	0	0	0	523	538	
14	0	0	0	0	523	534	
15	0	0	0	0	522	539	
0	0	0	0	0	521	539	
1	0	0	0	0	522	539	
2	0	0	0	0	522	543	
3	0	0	0	0	524	539	
4	0	0	0	0	525	539	
5	0	0	0	0	526	539	
6	0	0	0	0	526	534	
7	0	0	0	0	527	539	
8	0	0	0	0	527	538	
9	0	0	0	0	528	539	
10	0	0	0	0	529	543	
11	0	0	0	0	529	538	
12	0	0	0	0	529	538	
13	0	0	0	0	529	538	
14	0	0	0	0	529	534	
15	0	0	0	0	529	538	
0	0	0	0	0	529	538	
1	0	0	0	0	528	538	
2	0	0	0	0	527	543	
3	0	0	0	0	527	539	
4	0	0	0	0	527	538	
5	0	0	0	0	528	538	
6	0	0	0	0	528	533	
7	0	0	0	0	528	539	
8	0	0	0	0	529	539	
9	0	0	0	0	530	539	
10	0	0	0	0	530	543	
11	0	0	0	0	532	539	
12	0	0	0	0	532	539	
13	0	0	0	0	534	539	
14	0	0	0	0	533	534	
15	0	0	0	0	533	539	
0	0	0	0	0	532	539	
1	0	0	0	0	530	540	
2	0	0	0	0	530	543	
3	0	0	0	0	529	539	
4	0	0	0	0	529	538	
5	0	0	0	0	529	538	
6	0	0	0	0	531	533	
7	0	0	0	0	531	538	
8	0	0	0	0	532	538	
9	0	0	0	0	532	538	
10	0	0	0	0	533	543	
11	0	0	0	0	535	538	
12	0	0	0	0	536	539	
13	0	0	0	0	537	538	
14	0	0	0	0	537	534	
15	0	0	0	0	537	538	
0	0	0	0	0	538	537	
1	0	0	0	0	538	538	
2	0	0	0	0	539	542	
3	0	0	0	0	538	538	
4	0	0	0	0	539	538	
5	0	0	0	0	538	537	
6	0	0	0	0	537	532	
7	0	0	0	0	537	538	
8	0	0	0	0	536	538	
9	0	0	0	0	536	538	
10	0	0	0	0	536	543	
11	0	0	0	0	536	539	
12	0	0	0	0	536	539	
13	0	0	0	0	536	538	
14	0	0	0	0	536	533	
15	0	0	0	0	537	538	
0	0	0	0	0	538	539	
1	0	0	0	0	539	538	
2	0	0	0	0	540	543	
3	0	0	0	0	541	539	
4	0	0	0	0	542	539	
5	0	0	0	0	543	538	
6	0	0	0	0	543	533	
7	0	0	0	0	543	538	
8	0	0	0	0	543	539	
9	0	0	0	0	543	539	
10	0	0	0	0	543	543	
11	0	0	0	0	543	538	
12	0	0	0	0	542	539	
13	0	0	0	0	542	538	
14	0	0	0	0	541	533	
15	0	0	0	0	542	538	
0	0	0	0	0	543	538	
1	0	0	0	0	543	538	
2	0	0	0	0	544	542	
3	0	0	0	0	545	538	
4	0	0	0	0	546	538	
5	0	0	0	0	548	539	
6	0	0	0	0	549	533	
7	0	0	0	0	549	538	
8	0	0	0	0	549	537	
9	0	0	0	0	549	538	
10	0	0	0	0	549	542	
11	0	0	0	0	548	538	
12	0	0	0	0	548	539	
13	0	0	0	0	548	538	
14	0	0	0	0	547	534	
15	0	0	0	0	545	538	
0	0	0	0	0	546	538	
1	0	0	0	0	547	538	
2	0	0	0	0	546	543	
3	0	0	0	0	545	538	
4	0	0	0	0	546	539	
5	0	0	0	0	547	538	
6	0	0	0	0	547	533	
7	0	0	0	0	547	538	
8	0	0	0	0	547	538	
9	0	0	0	0	548	539	
10	0	0	0	0	548	543	
11	0	0	0	0	549	539	
12	0	0	0	0	551	539	
13	0	0	0	0	551	539	
14	0	0	0	0	552	534	
15	0	0	0	0	552	539	
0	0	0	0	0	553	539	
1	0	0	0	0	552	539	
2	0	0	0	0	550	543	
3	0	0	0	0	549	538	
4	0	0	0	0	547	538	
5	0	0	0	0	546	538	
6	0	0	0	0	545	533	
7	0	0	0	0	545	538	
8	0	0	0	0	545	538	
9	0	0	0	0	546	537	
10	0	0	0	0	546	543	
11	0	0	0	0	546	538	
12	0	0	0	0	546	538	
13	0	0	0	0	546	538	
14	0	0	0	0	546	533	
15	0	0	0	0	546	538	
0	0	0	0	0	545	538	
1	0	0	0	0	545	538	
2	0	0	0	0	544	542	
3	0	0	0	0	543	537	
4	0	0	0	0	542	538	
5	0	0	0	0	540	537	
6	0	0	0	0	539	533	
7	0	0	0	0	537	538	
8	0	0	0	0	535	538	
9	0	0	0	0	533	538	
10	0	0	0	0	532	542	
11	0	0	0	0	531	538	
12	0	0	0	0	530	538	
13	0	0	0	0	529	539	
14	0	0	0	0	529	532	
15	0	0	0	0	529	539	
0	0	0	0	0	530	538	
1	0	0	0	0	531	538	
2	0	0	0	0	532	542	
3	0	0	0	0	532	538	
4	0	0	0	0	532	537	
5	0	0	0	0	532	538	
6	0	0	0	0	531	532	
7	0	0	0	0	531	538	
8	0	0	0	0	531	538	
9	0	0	0	0	531	538	
10	0	0	0	0	531	542	
11	0	0	0	0	531	538	
12	0	0	0	0	530	539	
13	0	0	0	0	528	537	
14	0	0	0	0	528	533	
15	0	0	0	0	527	538	
0	0	0	0	0	527	538	
1	0	0	0	0	528	538	
2	0	0	0	0	529	543	
3	0	0	0	0	529	539	
4	0	0	0	0	530	538	
5	0	0	0	0	531	538	
6	0	0	0	0	531	534	
7	0	0	0	0	532	539	
8	0	0	0	0	531	538	
9	0	0	0	0	531	538	
10	0	0	0	0	531	542	
11	0	0	0	0	530	538	
12	0	0	0	0	529	538	
13	0	0	0	0	529	537	
14	0	0	0	0	529	534	
15	0	0	0	0	529	538	
0	0	0	0	0	529	539	
1	0	0	0	0	529	539	
2	0	0	0	0	531	543	
3	0	0	0	0	534	539	
4	0	0	0	0	535	539	
5	0	0	0	0	536	539	
6	0	0	0	0	539	534	
7	0	0	0	0	541	538	
8	0	0	0	0	543	539	
9	0	0	0	0	546	539	
10	0	0	0	0	547	543	
11	0	0	0	0	549	538	
12	0	0	0	0	550	539	
13	0	0	0	0	550	539	
14	0	0	0	0	551	534	
15	0	0	0	0	552	539	
0	0	0	0	0	552	539	
1	0	0	0	0	552	538	
2	0	0	0	0	552	543	
3	0	0	0	0	553	539	
4	0	0	0	0	552	539	
5	0	0	0	0	551	538	
6	0	0	0	0	552	534	
7	0	0	0	0	553	539	
8	0	0	0	0	555	539	
9	0	0	0	0	557	539	
10	0	0	0	0	559	543	
11	0	0	0	0	561	539	
12	0	0	0	0	562	539	
13	0	0	0	0	563	539	
14	0	0	0	0	565	534	
15	0	0	0	0	567	539	
0	0	0	0	0	569	540	
1	0	0	0	0	569	540	
2	0	0	0	0	570	543	
3	0	0	0	0	571	539	
4	0	0	0	0	571	539	
5	0	0	0	0	570	539	
6	0	0	0	0	570	533	
7	0	0	0	0	571	539	
8	0	0	0	0	571	538	
9	0	0	0	0	570	539	
10	0	0	0	0	571	543	
11	0	0	0	0	571	539	
12	0	0	0	0	572	539	
13	0	0	0	0	572	538	
14	0	0	0	0	573	534	
15	0	0	0	0	574	539	
0	0	0	0	0	574	539	
1	0	0	0	0	575	539	
2	0	0	0	0	575	543	
3	0	0	0	0	576	539	
4	0	0	0	0	576	539	
5	0	0	0	0	575	538	
6	0	0	0	0	575	534	
7	0	0	0	0	574	539	
8	0	0	0	0	574	539	
9	0	0	0	0	572	539	
10	0	0	0	0	571	543	
11	0	0	0	0	569	538	
12	0	0	0	0	568	538	
13	0	0	0	0	566	538	
14	0	0	0	0	565	533	
15	0	0	0	0	564	538	
0	0	0	0	0	563	539	
1	0	0	0	0	563	538	
2	0	0	0	0	563	543	
3	0	0	0	0	563	539	
4	0	0	0	0	563	539	
5	0	0	0	0	564	539	
6	0	0	0	0	564	533	
7	0	0	0	0	564	538	
8	0	0	0	0	564	539	
9	0	0	0	0	564	538	
10	0	0	0	0	564	543	
11	0	0	0	0	563	538	
12	0	0	0	0	562	539	
13	0	0	0	0	561	538	
14	0	0	0	0	560	533	
15	0	0	0	0	559	539	
0	0	0	0	0	559	538	
1	0	0	0	0	558	539	
2	0	0	0	0	558	543	
3	0	0	0	0	558	539	
4	0	0	0	0	557	538	
5	0	0	0	0	557	538	
6	0	0	0	0	557	533	
7	0	0	0	0	556	538	
8	0	0	0	0	556	538	
9	0	0	0	0	556	538	
10	0	0	0	0	556	543	
11	0	0	0	0	556	538	
12	0	0	0	0	556	538	
13	0	0	0	0	555	538	
14	0	0	0	0	553	534	
15	0	0	0	0	552	537	
0	0	0	0	0	551	538	
1	0	0	0	0	550	539	
2	0	0	0	0	549	542	
3	0	0	0	0	547	539	
4	0	0	0	0	547	539	
5	0	0	0	0	547	537	
6	0	0	0	0	546	532	
7	0	0	0	0	546	538	
8	0	0	0	0	546	538	
9	0	0	0	0	546	539	
10	0	0	0	0	545	543	
11	0	0	0	0	546	538	
12	0	0	0	0	547	538	
13	0	0	0	0	548	538	
14	0	0	0	0	548	533	
15	0	0	0	0	548	538	
0	0	0	0	0	548	539	
1	0	0	0	0	548	539	
2	0	0	0	0	548	543	
3	0	0	0	0	548	538	
4	0	0	0	0	547	538	
5	0	0	0	0	547	538	
6	0	0	0	0	546	534	
7	0	0	0	0	545	539	
8	0	0	0	0	544	538	
9	0	0	0	0	543	540	
10	0	0	0	0	543	542	
11	0	0	0	0	542	537	
12	0	0	0	0	541	538	
13	0	0	0	0	540	538	
14	0	0	0	0	540	533	
15	0	0	0	0	540	538	
0	0	0	0	0	540	538	
1	0	0	0	0	539	538	
2	0	0	0	0	539	543	
3	0	0	0	0	538	538	
4	0	0	0	0	538	539	
5	0	0	0	0	537	537	
6	0	0	0	0	536	533	
7	0	0	0	0	536	538	
8	0	0	0	0	536	539	
9	0	0	0	0	535	538	
10	0	0	0	0	533	542	
11	0	0	0	0	532	538	
12	0	0	0	0	531	538	
13	0	0	0	0	531	538	
14	0	0	0	0	530	533	
15	0	0	0	0	529	538	
0	0	0	0	0	528	537	
1	0	0	0	0	528	539	
2	0	0	0	0	527	542	
3	0	0	0	0	527	537	
4	0	0	0	0	527	538	
5	0	0	0	0	526	537	
6	0	0	0	0	526	533	
7	0	0	0	0	526	538	
8	0	0	0	0	527	538	
9	0	0	0	0	527	538	
10	0	0	0	0	527	542	
11	0	0	0	0	527	537	
12	0	0	0	0	526	538	
13	0	0	0	0	525	538	
14	0	0	0	0	524	534	
15	0	0	0	0	523	538	
0	0	0	0	0	522	538	
1	0	0	0	0	521	538	
2	0	0	0	0	520	543	
3	0	0	0	0	519	538	
4	0	0	0	0	519	539	
5	0	0	0	0	518	537	
6	0	0	0	0	518	534	
7	0	0	0	0	518	538	
8	0	0	0	0	519	538	
9	0	0	0	0	519	539	
10	0	0	0	0	521	543	
11	0	0	0	0	523	538	
12	0	0	0	0	524	538	
13	0	0	0	0	524	538	
14	0	0	0	0	525	533	
15	0	0	0	0	525	538	
0	0	0	0	0	525	538	
1	0	0	0	0	525	538	
2	0	0	0	0	524	543	
3	0	0	0	0	524	537	
4	0	0	0	0	524	538	
5	0	0	0	0	524	538	
6	0	0	0	0	524	534	
7	0	0	0	0	524	539	
8	0	0	0	0	526	539	
9	0	0	0	0	527	539	
10	0	0	0	0	528	543	
11	0	0	0	0	529	539	
12	0	0	0	0	531	539	
13	0	0	0	0	532	538	
14	0	0	0	0	534	533	
15	0	0	0	0	535	538	
0	0	0	0	0	535	539	
1	0	0	0	0	536	539	
2	0	0	0	0	537	543	
3	0	0	0	0	538	539	
4	0	0	0	0	538	539	
5	0	0	0	0	538	538	
6	0	0	0	0	537	534	
7	0	0	0	0	537	539	
8	0	0	0	0	536	538	
9	0	0	0	0	535	538	
10	0	0	0	0	533	543	
11	0	0	0	0	532	539	
12	0	0	0	0	532	539	
13	0	0	0	0	531	538	
14	0	0	0	0	530	534	
15	0	0	0	0	530	539	
0	0	0	0	0	530	539	
1	0	0	0	0	530	539	
2	0	0	0	0	529	543	
3	0	0	0	0	529	538	
4	0	0	0	0	529	538	
5	0	0	0	0	529	538	
6	0	0	0	0	529	533	
7	0	0	0	0	529	538	
8	0	0	0	0	528	538	
9	0	0	0	0	527	537	
10	0	0	0	0	526	542	
11	0	0	0	0	526	538	
12	0	0	0	0	525	538	
13	0	0	0	0	524	538	
14	0	0	0	0	524	533	
15	0	0	0	0	523	538	
0	0	0	0	0	523	538	
1	0	0	0	0	523	538	
2	0	0	0	0	523	542	
3	0	0	0	0	523	538	
4	0	0	0	0	523	538	
5	0	0	0	0	523	538	
6	0	0	0	0	523	534	
7	0	0	0	0	523	538	
8	0	0	0	0	522	538	
9	0	0	0	0	521	538	
10	0	0	0	0	521	542	
11	0	0	0	0	520	539	
12	0	0	0	0	519	538	
13	0	0	0	0	518	538	
14	0	0	0	0	517	532	
15	0	0	0	0	515	537	
0	0	0	0	0	514	537	
1	0	0	0	0	514	538	
2	0	0	0	0	514	542	
3	0	0	0	0	514	537	
4	0	0	0	0	513	537	
5	0	0	0	0	514	538	
6	0	0	0	0	514	532	
7	0	0	0	0	515	539	
8	0	0	0	0	515	538	
9	0	0	0	0	517	538	
10	0	0	0	0	516	542	
11	0	0	0	0	516	537	
12	0	0	0	0	516	537	
13	0	0	0	0	515	537	
14	0	0	0	0	514	533	
15	0	0	0	0	512	538	
0	0	0	0	0	511	537	
1	0	0	0	0	509	538	
2	0	0	0	0	508	542	
3	0	0	0	0	507	537	
4	0	0	0	0	505	537	
5	0	0	0	0	504	537	
6	0	0	0	0	504	533	
7	0	0	0	0	504	538	
8	0	0	0	0	504	539	
9	0	0	0	0	504	538	
10	0	0	0	0	504	542	
11	0	0	0	0	505	538	
12	0	0	0	0	506	538	
13	0	0	0	0	506	537	
14	0	0	0	0	508	533	
15	0	0	0	0	508	538	
0	0	0	0	0	508	539	
1	0	0	0	0	508	539	
2	0	0	0	0	508	543	
3	0	0	0	0	509	538	
4	0	0	0	0	509	538	
5	0	0	0	0	509	538	
6	0	0	0	0	509	533	
7	0	0	0	0	509	538	
8	0	0	0	0	510	539	
9	0	0	0	0	510	538	
10	0	0	0	0	510	543	
11	0	0	0	0	510	538	
12	0	0	0	0	510	538	
13	0	0	0	0	510	538	
14	0	0	0	0	510	533	
15	0	0	0	0	510	538	
0	0	0	0	0	511	538	
1	0	0	0	0	512	539	
2	0	0	0	0	512	543	
3	0	0	0	0	512	537	
4	0	0	0	0	512	538	
5	0	0	0	0	511	538	
6	0	0	0	0	510	533	
7	0	0	0	0	510	538	
8	0	0	0	0	509	538	
9	0	0	0	0	508	539	
10	0	0	0	0	507	543	
11	0	0	0	0	506	538	
12	0	0	0	0	505	538	
13	0	0	0	0	503	537	
14	0	0	0	0	503	533	
15	0	0	0	0	503	538	
0	0	0	0	0	503	538	
1	0	0	0	0	503	538	
2	0	0	0	0	504	543	
3	0	0	0	0	505	539	
4	0	0	0	0	505	538	
5	0	0	0	0	506	538	
6	0	0	0	0	506	533	
7	0	0	0	0	506	538	
8	0	0	0	0	506	538	
9	0	0	0	0	506	538	
10	0	0	0	0	507	542	
11	0	0	0	0	507	539	
12	0	0	0	0	507	539	
13	0	0	0	0	506	538	
14	0	0	0	0	506	534	
15	0	0	0	0	505	538	
0	0	0	0	0	505	538	
1	0	0	0	0	505	539	
2	0	0	0	0	505	543	
3	0	0	0	0	506	538	
4	0	0	0	0	507	538	
5	0	0	0	0	508	538	
6	0	0	0	0	510	533	
7	0	0	0	0	511	539	
8	0	0	0	0	512	537	
9	0	0	0	0	513	538	
10	0	0	0	0	513	542	
11	0	0	0	0	513	538	
12	0	0	0	0	512	538	
13	0	0	0	0	512	539	
14	0	0	0	0	511	533	
15	0	0	0	0	511	538	
0	0	0	0	0	511	539	
1	0	0	0	0	511	539	
2	0	0	0	0	511	543	
3	0	0	0	0	512	538	
4	0	0	0	0	512	538	
5	0	0	0	0	512	538	
6	0	0	0	0	513	533	
7	0	0	0	0	513	538	
8	0	0	0	0	515	539	
9	0	0	0	0	515	539	
10	0	0	0	0	516	543	
11	0	0	0	0	518	539	
12	0	0	0	0	519	539	
13	0	0	0	0	519	538	
14	0	0	0	0	519	534	
15	0	0	0	0	520	539	
0	0	0	0	0	521	539	
1	0	0	0	0	522	539	
2	0	0	0	0	522	543	
3	0	0	0	0	522	538	
4	0	0	0	0	522	539	
5	0	0	0	0	521	539	
6	0	0	0	0	522	534	
7	0	0	0	0	521	539	
8	0	0	0	0	520	539	
9	0	0	0	0	520	539	
10	0	0	0	0	520	543	
11	0	0	0	0	521	539	
12	0	0	0	0	521	539	
13	0	0	0	0	520	538	
14	0	0	0	0	521	534	
15	0	0	0	0	522	538	
0	0	0	0	0	523	538	
1	0	0	0	0	524	539	
2	0	0	0	0	524	543	
3	0	0	0	0	524	539	
4	0	0	0	0	524	539	
5	0	0	0	0	524	539	
6	0	0	0	0	524	533	
7	0	0	0	0	523	538	
8	0	0	0	0	521	539	
9	0	0	0	0	520	539	
10	0	0	0	0	519	543	
11	0	0	0	0	518	538	
12	0	0	0	0	517	538	
13	0	0	0	0	516	538	
14	0	0	0	0	515	534	
15	0	0	0	0	515	538	
0	0	0	0	0	516	538	
1	0	0	0	0	516	538	
2	0	0	0	0	517	542	
3	0	0	0	0	518	538	
4	0	0	0	0	519	538	
5	0	0	0	0	519	538	
6	0	0	0	0	521	533	
7	0	0	0	0	521	538	
8	0	0	0	0	521	539	
9	0	0	0	0	521	539	
10	0	0	0	0	520	543	
11	0	0	0	0	519	539	
12	0	0	0	0	518	538	
13	0	0	0	0	515	538	
14	0	0	0	0	514	533	
15	0	0	0	0	512	539	
0	0	0	0	0	510	538	
1	0	0	0	0	507	538	
2	0	0	0	0	504	542	
3	0	0	0	0	501	538	
4	0	0	0	0	497	538	
5	0	0	0	0	494	538	
6	0	0	0	0	488	534	
7	0	0	0	0	485	538	
8	0	0	0	0	483	537	
9	0	0	0	0	481	538	
10	0	0	0	0	480	542	
11	0	0	0	0	479	537	
12	0	0	0	0	478	537	
13	0	0	0	0	477	537	
14	0	0	0	0	476	532	
15	0	0	0	0	475	538	
0	0	0	0	0	475	538	
1	0	0	0	0	478	538	
2	0	0	0	0	482	543	
3	0	0	0	0	488	538	
4	0	0	0	0	496	538	
5	0	0	0	0	506	538	
6	0	0	0	0	518	534	
7	0	0	0	0	528	538	
8	0	0	0	0	539	538	
9	0	0	0	0	550	538	
10	0	0	0	0	563	543	
11	0	0	0	0	578	538	
12	0	0	0	0	593	538	
13	0	0	0	0	608	538	
14	0	0	0	0	620	533	
15	0	0	0	0	630	539	
0	0	0	0	0	637	538	
1	0	0	0	0	643	538	
2	0	0	0	0	641	543	
3	0	0	0	0	636	537	
4	0	0	0	0	628	538	
5	0	0	0	0	616	538	
6	0	0	0	0	601	533	
7	0	0	0	0	585	538	
8	0	0	0	0	573	539	
9	0	0	0	0	564	537	
10	0	0	0	0	560	543	
11	0	0	0	0	564	538	
12	0	0	0	0	569	538	
13	0	0	0	0	576	538	
14	0	0	0	0	584	532	
15	0	0	0	0	591	538	
0	0	0	0	0	596	538	
1	0	0	0	0	600	538	
2	0	0	0	0	603	543	
3	0	0	0	0	604	538	
4	0	0	0	0	603	539	
5	0	0	0	0	600	538	
6	0	0	0	0	596	534	
7	0	0	0	0	591	538	
8	0	0	0	0	586	539	
9	0	0	0	0	580	539	
10	0	0	0	0	572	542	
11	0	0	0	0	565	539	
12	0	0	0	0	557	538	
13	0	0	0	0	550	538	
14	0	0	0	0	542	533	
15	0	0	0	0	535	538	
0	0	0	0	0	529	538	
1	0	0	0	0	524	539	
2	0	0	0	0	519	543	
3	0	0	0	0	514	539	
4	0	0	0	0	510	538	
5	0	0	0	0	507	538	
6	0	0	0	0	504	534	
7	0	0	0	0	501	538	
8	0	0	0	0	499	539	
9	0	0	0	0	497	539	
10	0	0	0	0	495	543	
11	0	0	0	0	493	538	
12	0	0	0	0	491	539	
13	0	0	0	0	488	538	
14	0	0	0	0	487	533	
15	0	0	0	0	485	539	
0	0	0	0	0	483	539	
1	0	0	0	0	480	538	
2	0	0	0	0	478	543	
3	0	0	0	0	478	539	
4	0	0	0	0	477	539	
5	0	0	0	0	476	539	
6	0	0	0	0	475	533	
7	0	0	0	0	476	538	
8	0	0	0	0	475	538	
9	0	0	0	0	475	539	
10	0	0	0	0	474	544	
11	0	0	0	0	473	539	
12	0	0	0	0	472	539	
13	0	0	0	0	471	539	
14	0	0	0	0	470	534	
15	0	0	0	0	469	540	
0	0	0	0	0	468	539	
1	0	0	0	0	467	539	
2	0	0	0	0	465	543	
3	0	0	0	0	463	539	
4	0	0	0	0	460	539	
5	0	0	0	0	459	538	
6	0	0	0	0	457	534	
7	0	0	0	0	456	539	
8	0	0	0	0	455	539	
9	0	0	0	0	453	539	
10	0	0	0	0	452	543	
11	0	0	0	0	451	539	
12	0	0	0	0	451	539	
13	0	0	0	0	451	538	
14	0	0	0	0	451	534	
15	0	0	0	0	451	539	
0	0	0	0	0	450	539	
1	0	0	0	0	450	539	
2	0	0	0	0	449	543	
3	0	0	0	0	449	539	
4	0	0	0	0	448	538	
5	0	0	0	0	448	539	
6	0	0	0	0	448	533	
7	0	0	0	0	448	539	
8	0	0	0	0	449	538	
9	0	0	0	0	450	539	
10	0	0	0	0	450	543	
11	0	0	0	0	451	538	
12	0	0	0	0	450	538	
13	0	0	0	0	450	539	
14	0	0	0	0	450	534	
15	0	0	0	0	450	539	
0	0	0	0	0	451	538	
1	0	0	0	0	451	539	
2	0	0	0	0	451	542	
3	0	0	0	0	452	539	
4	0	0	0	0	452	538	
5	0	0	0	0	452	538	
6	0	0	0	0	451	533	
7	0	0	0	0	450	538	
8	0	0	0	0	448	538	
9	0	0	0	0	447	539	
10	0	0	0	0	446	543	
11	0	0	0	0	444	538	
12	0	0	0	0	443	538	
13	0	0	0	0	442	538	
14	0	0	0	0	441	534	
15	0	0	0	0	440	538	
0	0	0	0	0	439	538	
1	0	0	0	0	439	538	
2	0	0	0	0	439	542	
3	0	0	0	0	440	539	
4	0	0	0	0	440	539	
5	0	0	0	0	440	539	
6	0	0	0	0	440	533	
7	0	0	0	0	441	538	
8	0	0	0	0	442	538	
9	0	0	0	0	443	539	
10	0	0	0	0	443	543	
11	0	0	0	0	442	539	
12	0	0	0	0	441	538	
13	0	0	0	0	441	539	
14	0	0	0	0	441	533	
15	0	0	0	0	440	538	
0	0	0	0	0	439	539	
1	0	0	0	0	440	538	
2	0	0	0	0	440	543	
3	0	0	0	0	440	539	
4	0	0	0	0	441	538	
5	0	0	0	0	441	538	
6	0	0	0	0	442	534	
7	0	0	0	0	443	538	
8	0	0	0	0	444	538	
9	0	0	0	0	444	539	
10	0	0	0	0	445	543	
11	0	0	0	0	446	538	
12	0	0	0	0	446	537	
13	0	0	0	0	445	538	
14	0	0	0	0	445	533	
15	0	0	0	0	445	538	
0	0	0	0	0	445	538	
1	0	0	0	0	444	537	
2	0	0	0	0	444	542	
3	0	0	0	0	445	537	
4	0	0	0	0	445	538	
5	0	0	0	0	446	538	
6	0	0	0	0	447	532	
7	0	0	0	0	448	538	
8	0	0	0	0	448	538	
9	0	0	0	0	449	538	
10	0	0	0	0	449	543	
11	0	0	0	0	451	539	
12	0	0	0	0	451	537	
13	0	0	0	0	453	538	
14	0	0	0	0	454	533	
15	0	0	0	0	455	537	
0	0	0	0	0	456	537	
1	0	0	0	0	458	537	
2	0	0	0	0	459	542	
3	0	0	0	0	460	538	
4	0	0	0	0	460	538	
5	0	0	0	0	459	538	
6	0	0	0	0	459	534	
7	0	0	0	0	459	539	
8	0	0	0	0	458	538	
9	0	0	0	0	457	539	
10	0	0	0	0	457	542	
11	0	0	0	0	457	538	
12	0	0	0	0	457	537	
13	0	0	0	0	458	538	
14	0	0	0	0	459	533	
15	0	0	0	0	460	538	
0	0	0	0	0	461	538	
1	0	0	0	0	462	537	
2	0	0	0	0	462	542	
3	0	0	0	0	463	538	
4	0	0	0	0	463	537	
5	0	0	0	0	463	537	
6	0	0	0	0	463	533	
7	0	0	0	0	463	538	
8	0	0	0	0	462	537	
9	0	0	0	0	461	538	
10	0	0	0	0	459	542	
11	0	0	0	0	458	538	
12	0	0	0	0	456	538	
13	0	0	0	0	455	537	
14	0	0	0	0	455	533	
15	0	0	0	0	455	538	
0	0	0	0	0	455	537	
1	0	0	0	0	455	538	
2	0	0	0	0	456	542	
3	0	0	0	0	457	537	
4	0	0	0	0	457	537	
5	0	0	0	0	459	537	
6	0	0	0	0	459	532	
7	0	0	0	0	460	537	
8	0	0	0	0	461	537	
9	0	0	0	0	462	537	
10	0	0	0	0	462	542	
11	0	0	0	0	463	538	
12	0	0	0	0	463	537	
13	0	0	0	0	464	537	
14	0	0	0	0	463	533	
15	0	0	0	0	463	537	
0	0	0	0	0	462	537	
1	0	0	0	0	461	537	
2	0	0	0	0	460	541	
3	0	0	0	0	460	538	
4	0	0	0	0	460	537	
5	0	0	0	0	460	538	
6	0	0	0	0	460	533	
7	0	0	0	0	461	537	
8	0	0	0	0	462	537	
9	0	0	0	0	463	537	
10	0	0	0	0	462	542	
11	0	0	0	0	463	537	
12	0	0	0	0	463	538	
13	0	0	0	0	464	538	
14	0	0	0	0	465	533	
15	0	0	0	0	465	537	
0	0	0	0	0	465	537	
1	0	0	0	0	465	537	
2	0	0	0	0	465	542	
3	0	0	0	0	465	537	
4	0	0	0	0	465	537	
5	0	0	0	0	466	537	
6	0	0	0	0	466	533	
7	0	0	0	0	467	537	
8	0	0	0	0	468	538	
9	0	0	0	0	469	538	
10	0	0	0	0	471	542	
11	0	0	0	0	473	538	
12	0	0	0	0	475	538	
13	0	0	0	0	476	537	
14	0	0	0	0	478	533	
15	0	0	0	0	479	538	
0	0	0	0	0	480	538	
1	0	0	0	0	482	539	
2	0	0	0	0	483	542	
3	0	0	0	0	484	538	
4	0	0	0	0	484	538	
5	0	0	0	0	484	538	
6	0	0	0	0	485	532	
7	0	0	0	0	485	538	
8	0	0	0	0	485	538	
9	0	0	0	0	486	538	
10	0	0	0	0	486	542	
11	0	0	0	0	488	538	
12	0	0	0	0	489	538	
13	0	0	0	0	491	538	
14	0	0	0	0	493	533	
15	0	0	0	0	495	538	
0	0	0	0	0	496	539	
1	0	0	0	0	499	539	
2	0	0	0	0	500	543	
3	0	0	0	0	502	539	
4	0	0	0	0	504	539	
5	0	0	0	0	505	539	
6	0	0	0	0	505	533	
7	0	0	0	0	507	538	
8	0	0	0	0	508	538	
9	0	0	0	0	508	538	
10	0	0	0	0	509	542	
11	0	0	0	0	509	538	
12	0	0	0	0	509	538	
13	0	0	0	0	510	538	
14	0	0	0	0	511	533	
15	0	0	0	0	512	538	
0	0	0	0	0	513	538	
1	0	0	0	0	515	538	
2	0	0	0	0	515	542	
3	0	0	0	0	516	538	
4	0	0	0	0	518	538	
5	0	0	0	0	518	537	
6	0	0	0	0	519	533	
7	0	0	0	0	519	538	
8	0	0	0	0	519	538	
9	0	0	0	0	519	538	
10	0	0	0	0	519	543	
11	0	0	0	0	519	538	
12	0	0	0	0	518	538	
13	0	0	0	0	517	538	
14	0	0	0	0	516	533	
15	0	0	0	0	516	539	
0	0	0	0	0	515	538	
1	0	0	0	0	515	538	
2	0	0	0	0	515	542	
3	0	0	0	0	515	537	
4	0	0	0	0	514	538	
5	0	0	0	0	514	538	
6	0	0	0	0	514	533	
7	0	0	0	0	514	538	
8	0	0	0	0	515	538	
9	0	0	0	0	515	538	
10	0	0	0	0	515	543	
11	0	0	0	0	516	538	
12	0	0	0	0	515	537	
13	0	0	0	0	515	537	
14	0	0	0	0	515	533	
15	0	0	0	0	514	538	
0	0	0	0	0	513	538	
1	0	0	0	0	513	539	
2	0	0	0	0	512	542	
3	0	0	0	0	512	538	
4	0	0	0	0	511	538	
5	0	0	0	0	510	539	
6	0	0	0	0	510	534	
7	0	0	0	0	510	538	
8	0	0	0	0	509	539	
9	0	0	0	0	509	539	
10	0	0	0	0	510	543	
11	0	0	0	0	509	539	
12	0	0	0	0	510	539	
13	0	0	0	0	509	538	
14	0	0	0	0	509	533	
15	0	0	0	0	509	539	
0	0	0	0	0	508	539	
1	0	0	0	0	508	539	
2	0	0	0	0	507	543	
3	0	0	0	0	506	539	
4	0	0	0	0	505	539	
5	0	0	0	0	504	538	
6	0	0	0	0	503	534	
7	0	0	0	0	502	538	
8	0	0	0	0	501	538	
9	0	0	0	0	500	539	
10	0	0	0	0	499	542	
11	0	0	0	0	499	538	
12	0	0	0	0	499	538	
13	0	0	0	0	499	539	
14	0	0	0	0	499	533	
15	0	0	0	0	499	538	
0	0	0	0	0	499	538	
1	0	0	0	0	500	538	
2	0	0	0	0	500	543	
3	0	0	0	0	499	538	
4	0	0	0	0	499	539	
5	0	0	0	0	498	539	
6	0	0	0	0	496	534	
7	0	0	0	0	495	539	
8	0	0	0	0	494	539	
9	0	0	0	0	493	539	
10	0	0	0	0	493	543	
11	0	0	0	0	493	538	
12	0	0	0	0	492	539	
13	0	0	0	0	492	538	
14	0	0	0	0	491	533	
15	0	0	0	0	491	538	
0	0	0	0	0	491	538	
1	0	0	0	0	491	538	
2	0	0	0	0	491	543	
3	0	0	0	0	492	538	
4	0	0	0	0	491	539	
5	0	0	0	0	491	538	
6	0	0	0	0	491	533	
7	0	0	0	0	491	539	
8	0	0	0	0	491	539	
9	0	0	0	0	491	539	
10	0	0	0	0	491	543	
11	0	0	0	0	490	538	
12	0	0	0	0	489	538	
13	0	0	0	0	488	538	
14	0	0	0	0	488	534	
15	0	0	0	0	487	539	
0	0	0	0	0	487	538	
1	0	0	0	0	487	539	
2	0	0	0	0	486	543	
3	0	0	0	0	485	539	
4	0	0	0	0	484	539	
5	0	0	0	0	483	538	
6	0	0	0	0	484	534	
7	0	0	0	0	484	538	
8	0	0	0	0	484	538	
9	0	0	0	0	483	538	
10	0	0	0	0	483	542	
11	0	0	0	0	483	537	
12	0	0	0	0	481	538	
13	0	0	0	0	480	539	
14	0	0	0	0	480	534	
15	0	0	0	0	479	538	
0	0	0	0	0	478	538	
1	0	0	0	0	476	538	
2	0	0	0	0	475	542	
3	0	0	0	0	474	538	
4	0	0	0	0	472	539	
5	0	0	0	0	470	538	
6	0	0	0	0	469	533	
7	0	0	0	0	467	539	
8	0	0	0	0	467	538	
9	0	0	0	0	466	538	
10	0	0	0	0	466	542	
11	0	0	0	0	467	538	
12	0	0	0	0	467	537	
13	0	0	0	0	467	539	
14	0	0	0	0	469	534	
15	0	0	0	0	469	538	
0	0	0	0	0	469	538	
1	0	0	0	0	468	537	
2	0	0	0	0	468	542	
3	0	0	0	0	468	538	
4	0	0	0	0	467	538	
5	0	0	0	0	467	538	
6	0	0	0	0	467	533	
7	0	0	0	0	466	538	
8	0	0	0	0	465	538	
9	0	0	0	0	464	538	
10	0	0	0	0	463	542	
11	0	0	0	0	463	538	
12	0	0	0	0	462	538	
13	0	0	0	0	462	538	
14	0	0	0	0	462	533	
15	0	0	0	0	462	538	
0	0	0	0	0	462	538	
1	0	0	0	0	462	538	
2	0	0	0	0	463	543	
3	0	0	0	0	463	539	
4	0	0	0	0	463	539	
5	0	0	0	0	463	538	
6	0	0	0	0	463	533	
7	0	0	0	0	463	538	
8	0	0	0	0	463	538	
9	0	0	0	0	463	538	
10	0	0	0	0	463	542	
11	0	0	0	0	463	538	
12	0	0	0	0	463	539	
13	0	0	0	0	463	538	
14	0	0	0	0	464	534	
15	0	0	0	0	465	538	
0	0	0	0	0	465	538	
1	0	0	0	0	465	539	
2	0	0	0	0	466	543	
3	0	0	0	0	467	539	
4	0	0	0	0	468	539	
5	0	0	0	0	470	538	
6	0	0	0	0	471	534	
7	0	0	0	0	472	538	
8	0	0	0	0	472	538	
9	0	0	0	0	472	539	
10	0	0	0	0	473	543	
11	0	0	0	0	473	538	
12	0	0	0	0	472	538	
13	0	0	0	0	472	539	
14	0	0	0	0	472	534	
15	0	0	0	0	472	539	
0	0	0	0	0	472	539	
1	0	0	0	0	472	539	
2	0	0	0	0	471	543	
3	0	0	0	0	470	538	
4	0	0	0	0	469	539	
5	0	0	0	0	469	539	
6	0	0	0	0	469	534	
7	0	0	0	0	469	538	
8	0	0	0	0	469	539	
9	0	0	0	0	469	538	
10	0	0	0	0	470	543	
11	0	0	0	0	470	539	
12	0	0	0	0	469	538	
13	0	0	0	0	468	538	
14	0	0	0	0	468	533	
15	0	0	0	0	468	538	
0	0	0	0	0	467	538	
1	0	0	0	0	466	538	
2	0	0	0	0	465	543	
3	0	0	0	0	464	538	
4	0	0	0	0	462	538	
5	0	0	0	0	461	538	
6	0	0	0	0	461	533	
7	0	0	0	0	462	538	
8	0	0	0	0	462	538	
9	0	0	0	0	462	538	
10	0	0	0	0	463	542	
11	0	0	0	0	464	537	
12	0	0	0	0	465	537	
13	0	0	0	0	466	537	
14	0	0	0	0	467	532	
15	0	0	0	0	468	537	
0	0	0	0	0	469	537	
1	0	0	0	0	470	538	
2	0	0	0	0	470	543	
3	0	0	0	0	470	538	
4	0	0	0	0	470	537	
5	0	0	0	0	470	538	
6	0	0	0	0	470	532	
7	0	0	0	0	469	538	
8	0	0	0	0	468	538	
9	0	0	0	0	467	538	
10	0	0	0	0	467	542	
11	0	0	0	0	466	538	
12	0	0	0	0	466	538	
13	0	0	0	0	467	538	
14	0	0	0	0	467	534	
15	0	0	0	0	469	539	
0	0	0	0	0	470	538	
1	0	0	0	0	471	538	
2	0	0	0	0	472	542	
3	0	0	0	0	472	538	
4	0	0	0	0	472	538	
5	0	0	0	0	472	537	
6	0	0	0	0	472	533	
7	0	0	0	0	471	538	
8	0	0	0	0	470	537	
9	0	0	0	0	469	538	
10	0	0	0	0	468	542	
11	0	0	0	0	467	538	
12	0	0	0	0	465	537	
13	0	0	0	0	464	537	
14	0	0	0	0	463	533	
15	0	0	0	0	463	538	
0	0	0	0	0	463	538	
1	0	0	0	0	463	537	
2	0	0	0	0	464	542	
3	0	0	0	0	465	537	
4	0	0	0	0	466	537	
5	0	0	0	0	467	537	
6	0	0	0	0	466	532	
7	0	0	0	0	466	537	
8	0	0	0	0	465	537	
9	0	0	0	0	464	537	
10	0	0	0	0	463	541	
11	0	0	0	0	462	537	
12	0	0	0	0	460	537	
13	0	0	0	0	458	537	
14	0	0	0	0	456	532	
15	0	0	0	0	455	537	
0	0	0	0	0	454	537	
1	0	0	0	0	453	538	
2	0	0	0	0	454	542	
3	0	0	0	0	454	537	
4	0	0	0	0	454	537	
5	0	0	0	0	454	537	
6	0	0	0	0	454	532	
7	0	0	0	0	454	537	
8	0	0	0	0	455	537	
9	0	0	0	0	456	538	
10	0	0	0	0	457	542	
11	0	0	0	0	458	538	
12	0	0	0	0	459	537	
13	0	0	0	0	459	537	
14	0	0	0	0	459	532	
15	0	0	0	0	459	537	
0	0	0	0	0	458	537	
1	0	0	0	0	457	537	
2	0	0	0	0	456	542	
3	0	0	0	0	455	537	
4	0	0	0	0	455	538	
5	0	0	0	0	454	537	
6	0	0	0	0	454	532	
7	0	0	0	0	454	538	
8	0	0	0	0	455	538	
9	0	0	0	0	455	538	
10	0	0	0	0	456	542	
11	0	0	0	0	457	537	
12	0	0	0	0	458	537	
13	0	0	0	0	460	537	
14	0	0	0	0	462	533	
15	0	0	0	0	463	537	
0	0	0	0	0	463	537	
1	0	0	0	0	462	537	
2	0	0	0	0	462	541	
3	0	0	0	0	461	537	
4	0	0	0	0	460	537	
5	0	0	0	0	458	537	
6	0	0	0	0	456	533	
7	0	0	0	0	454	537	
8	0	0	0	0	451	537	
9	0	0	0	0	450	537	
10	0	0	0	0	448	542	
11	0	0	0	0	447	536	
12	0	0	0	0	447	538	
13	0	0	0	0	447	537	
14	0	0	0	0	447	532	
15	0	0	0	0	447	537	
0	0	0	0	0	448	537	
1	0	0	0	0	448	537	
2	0	0	0	0	449	541	
3	0	0	0	0	449	536	
4	0	0	0	0	450	536	
5	0	0	0	0	450	536	
6	0	0	0	0	450	532	
7	0	0	0	0	450	537	
8	0	0	0	0	449	537	
9	0	0	0	0	449	536	
10	0	0	0	0	448	541	
11	0	0	0	0	447	537	
12	0	0	0	0	446	537	
13	0	0	0	0	445	536	
14	0	0	0	0	444	533	
15	0	0	0	0	442	538	
0	0	0	0	0	442	538	
1	0	0	0	0	440	538	
2	0	0	0	0	441	543	
3	0	0	0	0	441	537	
4	0	0	0	0	440	537	
5	0	0	0	0	440	537	
6	0	0	0	0	441	532	
7	0	0	0	0	441	538	
8	0	0	0	0	441	537	
9	0	0	0	0	442	537	
10	0	0	0	0	442	542	
11	0	0	0	0	443	538	
12	0	0	0	0	443	538	
13	0	0	0	0	442	538	
14	0	0	0	0	442	534	
15	0	0	0	0	441	537	
0	0	0	0	0	441	538	
1	0	0	0	0	440	538	
2	0	0	0	0	440	542	
3	0	0	0	0	440	538	
4	0	0	0	0	440	538	
5	0	0	0	0	441	538	
6	0	0	0	0	442	532	
7	0	0	0	0	444	538	
8	0	0	0	0	445	538	
9	0	0	0	0	446	538	
10	0	0	0	0	448	542	
11	0	0	0	0	449	538	
12	0	0	0	0	449	538	
13	0	0	0	0	450	538	
14	0	0	0	0	451	533	
15	0	0	0	0	451	538	
0	0	0	0	0	451	538	
1	0	0	0	0	451	538	
2	0	0	0	0	451	542	
3	0	0	0	0	452	538	
4	0	0	0	0	452	538	
5	0	0	0	0	452	538	
6	0	0	0	0	453	533	
7	0	0	0	0	454	538	
8	0	0	0	0	455	539	
9	0	0	0	0	455	539	
10	0	0	0	0	457	543	
11	0	0	0	0	459	538	
12	0	0	0	0	460	538	
13	0	0	0	0	460	539	
14	0	0	0	0	461	533	
15	0	0	0	0	462	538	
0	0	0	0	0	462	538	
1	0	0	0	0	463	538	
2	0	0	0	0	463	543	
3	0	0	0	0	464	538	
4	0	0	0	0	464	538	
5	0	0	0	0	463	538	
6	0	0	0	0	463	533	
7	0	0	0	0	463	538	
8	0	0	0	0	463	538	
9	0	0	0	0	463	538	
10	0	0	0	0	463	543	
11	0	0	0	0	463	538	
12	0	0	0	0	464	538	
13	0	0	0	0	464	538	
14	0	0	0	0	464	533	
15	0	0	0	0	465	538	
0	0	0	0	0	466	537	
1	0	0	0	0	466	538	
2	0	0	0	0	467	542	
3	0	0	0	0	468	537	
4	0	0	0	0	468	538	
5	0	0	0	0	468	537	
6	0	0	0	0	467	533	
7	0	0	0	0	466	538	
8	0	0	0	0	464	538	
9	0	0	0	0	461	537	
10	0	0	0	0	457	542	
11	0	0	0	0	453	538	
12	0	0	0	0	447	538	
13	0	0	0	0	442	537	
14	0	0	0	0	437	532	
15	0	0	0	0	434	537	
0	0	0	0	0	432	537	
1	0	0	0	0	430	537	
2	0	0	0	0	428	543	
3	0	0	0	0	427	537	
4	0	0	0	0	426	537	
5	0	0	0	0	425	537	
6	0	0	0	0	425	532	
7	0	0	0	0	427	537	
8	0	0	0	0	432	536	
9	0	0	0	0	438	537	
10	0	0	0	0	448	541	
11	0	0	0	0	459	537	
12	0	0	0	0	471	537	
13	0	0	0	0	483	537	
14	0	0	0	0	495	531	
15	0	0	0	0	506	537	
0	0	0	0	0	518	538	
1	0	0	0	0	533	537	
2	0	0	0	0	548	541	
3	0	0	0	0	564	537	
4	0	0	0	0	578	538	
5	0	0	0	0	591	537	
6	0	0	0	0	603	532	
7	0	0	0	0	612	538	
8	0	0	0	0	618	537	
9	0	0	0	0	618	537	
10	0	0	0	0	614	542	
11	0	0	0	0	607	537	
12	0	0	0	0	596	538	
13	0	0	0	0	582	537	
14	0	0	0	0	565	532	
15	0	0	0	0	550	537	
0	0	0	0	0	538	537	
1	0	0	0	0	532	538	
2	0	0	0	0	532	542	
3	0	0	0	0	536	537	
4	0	0	0	0	541	537	
5	0	0	0	0	547	537	
6	0	0	0	0	552	532	
7	0	0	0	0	556	537	
8	0	0	0	0	557	538	
9	0	0	0	0	557	537	
10	0	0	0	0	556	542	
11	0	0	0	0	554	538	
12	0	0	0	0	550	537	
13	0	0	0	0	545	538	
14	0	0	0	0	540	533	
15	0	0	0	0	536	538	
0	0	0	0	0	530	537	
1	0	0	0	0	524	538	
2	0	0	0	0	517	543	
3	0	0	0	0	510	538	
4	0	0	0	0	503	538	
5	0	0	0	0	497	538	
6	0	0	0	0	491	533	
7	0	0	0	0	485	538	
8	0	0	0	0	481	538	
9	0	0	0	0	476	538	
10	0	0	0	0	473	542	
11	0	0	0	0	471	538	
12	0	0	0	0	469	538	
13	0	0	0	0	468	538	
14	0	0	0	0	468	533	
15	0	0	0	0	468	538	
0	0	0	0	0	468	538	
1	0	0	0	0	469	539	
2	0	0	0	0	470	542	
3	0	0	0	0	471	538	
4	0	0	0	0	472	538	
5	0	0	0	0	472	538	
6	0	0	0	0	472	533	
7	0	0	0	0	471	538	
8	0	0	0	0	471	538	
9	0	0	0	0	470	538	
10	0	0	0	0	469	543	
11	0	0	0	0	468	537	
12	0	0	0	0	468	538	
13	0	0	0	0	467	538	
14	0	0	0	0	467	534	
15	0	0	0	0	467	538	
0	0	0	0	0	467	539	
1	0	0	0	0	467	539	
2	0	0	0	0	467	543	
3	0	0	0	0	469	539	
4	0	0	0	0	470	538	
5	0	0	0	0	470	538	
6	0	0	0	0	471	534	
7	0	0	0	0	472	539	
8	0	0	0	0	472	539	
9	0	0	0	0	473	539	
10	0	0	0	0	474	543	
11	0	0	0	0	473	539	
12	0	0	0	0	472	538	
13	0	0	0	0	472	538	
14	0	0	0	0	472	533	
15	0	0	0	0	471	539	
0	0	0	0	0	469	539	
1	0	0	0	0	469	539	
2	0	0	0	0	468	543	
3	0	0	0	0	468	539	
4	0	0	0	0	468	538	
5	0	0	0	0	468	538	
6	0	0	0	0	469	534	
7	0	0	0	0	469	539	
8	0	0	0	0	470	539	
9	0	0	0	0	471	538	
10	0	0	0	0	471	543	
11	0	0	0	0	471	539	
12	0	0	0	0	471	539	
13	0	0	0	0	470	538	
14	0	0	0	0	470	533	
15	0	0	0	0	470	538	
0	0	0	0	0	469	538	
1	0	0	0	0	467	539	
2	0	0	0	0	467	543	
3	0	0	0	0	465	538	
4	0	0	0	0	464	539	
5	0	0	0	0	463	538	
6	0	0	0	0	463	534	
7	0	0	0	0	462	539	
8	0	0	0	0	462	538	
9	0	0	0	0	461	539	
10	0	0	0	0	461	543	
11	0	0	0	0	461	538	
12	0	0	0	0	461	538	
13	0	0	0	0	461	538	
14	0	0	0	0	462	534	
15	0	0	0	0	463	538	
0	0	0	0	0	463	539	
1	0	0	0	0	463	538	
2	0	0	0	0	462	543	
3	0	0	0	0	462	538	
4	0	0	0	0	462	538	
5	0	0	0	0	462	538	
6	0	0	0	0	462	534	
7	0	0	0	0	461	538	
8	0	0	0	0	460	538	
9	0	0	0	0	459	538	
10	0	0	0	0	459	542	
11	0	0	0	0	459	538	
12	0	0	0	0	459	538	
13	0	0	0	0	460	538	
14	0	0	0	0	462	533	
15	0	0	0	0	463	538	
0	0	0	0	0	464	538	
1	0	0	0	0	465	538	
2	0	0	0	0	465	542	
3	0	0	0	0	467	538	
4	0	0	0	0	468	537	
5	0	0	0	0	469	537	
6	0	0	0	0	469	533	
7	0	0	0	0	468	538	
8	0	0	0	0	468	538	
9	0	0	0	0	468	538	
10	0	0	0	0	467	542	
11	0	0	0	0	467	537	
12	0	0	0	0	467	538	
13	0	0	0	0	467	538	
14	0	0	0	0	466	532	
15	0	0	0	0	467	538	
0	0	0	0	0	467	538	
1	0	0	0	0	469	538	
2	0	0	0	0	471	542	
3	0	0	0	0	472	538	
4	0	0	0	0	473	538	
5	0	0	0	0	475	537	
6	0	0	0	0	476	533	
7	0	0	0	0	478	538	
8	0	0	0	0	479	538	
9	0	0	0	0	479	538	
10	0	0	0	0	479	542	
11	0	0	0	0	480	538	
12	0	0	0	0	480	537	
13	0	0	0	0	480	537	
14	0	0	0	0	479	532	
15	0	0	0	0	479	537	
0	0	0	0	0	479	537	
1	0	0	0	0	479	538	
2	0	0	0	0	478	542	
3	0	0	0	0	479	537	
4	0	0	0	0	479	538	
5	0	0	0	0	480	537	
6	0	0	0	0	481	532	
7	0	0	0	0	482	537	
8	0	0	0	0	483	537	
9	0	0	0	0	483	537	
10	0	0	0	0	484	542	
11	0	0	0	0	485	538	
12	0	0	0	0	485	538	
13	0	0	0	0	486	537	
14	0	0	0	0	486	534	
15	0	0	0	0	485	537	
0	0	0	0	0	485	538	
1	0	0	0	0	484	538	
2	0	0	0	0	483	543	
3	0	0	0	0	482	538	
4	0	0	0	0	481	538	
5	0	0	0	0	481	537	
6	0	0	0	0	480	532	
7	0	0	0	0	480	537	
8	0	0	0	0	480	538	
9	0	0	0	0	480	538	
10	0	0	0	0	481	541	
11	0	0	0	0	482	537	
12	0	0	0	0	483	538	
13	0	0	0	0	483	538	
14	0	0	0	0	483	533	
15	0	0	0	0	483	538	
0	0	0	0	0	483	537	
1	0	0	0	0	483	537	
2	0	0	0	0	482	542	
3	0	0	0	0	482	538	
4	0	0	0	0	481	538	
5	0	0	0	0	481	538	
6	0	0	0	0	480	534	
7	0	0	0	0	479	538	
8	0	0	0	0	478	538	
9	0	0	0	0	478	538	
10	0	0	0	0	478	542	
11	0	0	0	0	478	537	
12	0	0	0	0	478	538	
13	0	0	0	0	479	538	
14	0	0	0	0	479	533	
15	0	0	0	0	480	538	
0	0	0	0	0	481	538	
1	0	0	0	0	481	538	
2	0	0	0	0	483	542	
3	0	0	0	0	484	537	
4	0	0	0	0	484	538	
5	0	0	0	0	485	537	
6	0	0	0	0	485	533	
7	0	0	0	0	486	539	
8	0	0	0	0	485	538	
9	0	0	0	0	484	538	
10	0	0	0	0	484	543	
11	0	0	0	0	483	538	
12	0	0	0	0	483	538	
13	0	0	0	0	482	538	
14	0	0	0	0	481	533	
15	0	0	0	0	481	538	
0	0	0	0	0	481	537	
1	0	0	0	0	481	537	
2	0	0	0	0	481	542	
3	0	0	0	0	482	537	
4	0	0	0	0	481	538	
5	0	0	0	0	483	538	
6	0	0	0	0	484	534	
7	0	0	0	0	485	538	
8	0	0	0	0	485	538	
9	0	0	0	0	485	538	
10	0	0	0	0	486	542	
11	0	0	0	0	486	538	
12	0	0	0	0	485	537	
13	0	0	0	0	484	537	
14	0	0	0	0	483	533	
15	0	0	0	0	483	538	
0	0	0	0	0	482	538	
1	0	0	0	0	481	538	
2	0	0	0	0	481	542	
3	0	0	0	0	482	538	
4	0	0	0	0	482	538	
5	0	0	0	0	483	538	
6	0	0	0	0	484	532	
7	0	0	0	0	486	538	
8	0	0	0	0	488	538	
9	0	0	0	0	490	538	
10	0	0	0	0	492	542	
11	0	0	0	0	494	538	
12	0	0	0	0	495	539	
13	0	0	0	0	496	538	
14	0	0	0	0	498	532	
15	0	0	0	0	499	538	
0	0	0	0	0	500	538	
1	0	0	0	0	500	538	
2	0	0	0	0	500	543	
3	0	0	0	0	500	538	
4	0	0	0	0	499	538	
5	0	0	0	0	500	538	
6	0	0	0	0	501	534	
7	0	0	0	0	502	539	
8	0	0	0	0	504	538	
9	0	0	0	0	505	539	
10	0	0	0	0	506	543	
11	0	0	0	0	508	538	
12	0	0	0	0	509	538	
13	0	0	0	0	511	538	
14	0	0	0	0	512	533	
15	0	0	0	0	514	538	
0	0	0	0	0	516	539	
1	0	0	0	0	517	538	
2	0	0	0	0	519	542	
3	0	0	0	0	519	538	
4	0	0	0	0	520	538	
5	0	0	0	0	521	537	
6	0	0	0	0	521	532	
7	0	0	0	0	521	537	
8	0	0	0	0	521	538	
9	0	0	0	0	522	538	
10	0	0	0	0	523	543	
11	0	0	0	0	523	538	
12	0	0	0	0	524	538	
13	0	0	0	0	524	537	
14	0	0	0	0	526	533	
15	0	0	0	0	528	538	
0	0	0	0	0	529	538	
1	0	0	0	0	531	538	
2	0	0	0	0	532	542	
3	0	0	0	0	533	538	
4	0	0	0	0	534	537	
5	0	0	0	0	534	537	
6	0	0	0	0	535	533	
7	0	0	0	0	535	538	
8	0	0	0	0	535	537	
9	0	0	0	0	535	537	
10	0	0	0	0	534	542	
11	0	0	0	0	534	537	
12	0	0	0	0	534	537	
13	0	0	0	0	534	537	
14	0	0	0	0	534	532	
15	0	0	0	0	534	537	
0	0	0	0	0	534	537	
1	0	0	0	0	535	537	
2	0	0	0	0	535	542	
3	0	0	0	0	535	537	
4	0	0	0	0	536	537	
5	0	0	0	0	536	537	
6	0	0	0	0	536	533	
7	0	0	0	0	536	537	
8	0	0	0	0	535	537	
9	0	0	0	0	534	538	
10	0	0	0	0	533	542	
11	0	0	0	0	532	537	
12	0	0	0	0	530	537	
13	0	0	0	0	527	537	
14	0	0	0	0	525	532	
15	0	0	0	0	523	537	
0	0	0	0	0	519	537	
1	0	0	0	0	516	537	
2	0	0	0	0	513	541	
3	0	0	0	0	511	537	
4	0	0	0	0	509	537	
5	0	0	0	0	507	537	
6	0	0	0	0	505	532	
7	0	0	0	0	504	537	
8	0	0	0	0	503	537	
9	0	0	0	0	502	538	
10	0	0	0	0	502	542	
11	0	0	0	0	502	537	
12	0	0	0	0	502	537	
13	0	0	0	0	502	537	
14	0	0	0	0	501	532	
15	0	0	0	0	500	537	
0	0	0	0	0	499	538	
1	0	0	0	0	497	537	
2	0	0	0	0	494	541	
3	0	0	0	0	493	537	
4	0	0	0	0	490	537	
5	0	0	0	0	488	536	
6	0	0	0	0	486	532	
7	0	0	0	0	484	537	
8	0	0	0	0	483	537	
9	0	0	0	0	481	537	
10	0	0	0	0	481	542	
11	0	0	0	0	480	537	
12	0	0	0	0	480	537	
13	0	0	0	0	479	537	
14	0	0	0	0	478	532	
15	0	0	0	0	477	537	
0	0	0	0	0	477	537	
1	0	0	0	0	476	538	
2	0	0	0	0	475	542	
3	0	0	0	0	474	537	
4	0	0	0	0	472	537	
5	0	0	0	0	471	537	
6	0	0	0	0	468	533	
7	0	0	0	0	466	537	
8	0	0	0	0	465	537	
9	0	0	0	0	464	537	
10	0	0	0	0	463	542	
11	0	0	0	0	462	537	
12	0	0	0	0	460	538	
13	0	0	0	0	459	537	
14	0	0	0	0	459	533	
15	0	0	0	0	458	538	
0	0	0	0	0	458	537	
1	0	0	0	0	458	538	
2	0	0	0	0	458	542	
3	0	0	0	0	459	537	
4	0	0	0	0	460	538	
5	0	0	0	0	459	537	
6	0	0	0	0	458	533	
7	0	0	0	0	456	538	
8	0	0	0	0	456	538	
9	0	0	0	0	455	538	
10	0	0	0	0	454	543	
11	0	0	0	0	454	539	
12	0	0	0	0	453	539	
13	0	0	0	0	453	539	
14	0	0	0	0	452	534	
15	0	0	0	0	452	538	
0	0	0	0	0	452	539	
1	0	0	0	0	452	539	
2	0	0	0	0	453	543	
3	0	0	0	0	454	539	
4	0	0	0	0	454	539	
5	0	0	0	0	455	539	
6	0	0	0	0	455	534	
7	0	0	0	0	456	539	
8	0	0	0	0	456	539	
9	0	0	0	0	456	539	
10	0	0	0	0	457	542	
11	0	0	0	0	456	538	
12	0	0	0	0	456	538	
13	0	0	0	0	455	539	
14	0	0	0	0	454	533	
15	0	0	0	0	454	539	
0	0	0	0	0	452	539	
1	0	0	0	0	451	540	
2	0	0	0	0	449	543	
3	0	0	0	0	450	539	
4	0	0	0	0	450	539	
5	0	0	0	0	450	539	
6	0	0	0	0	450	534	
7	0	0	0	0	450	539	
8	0	0	0	0	451	539	
9	0	0	0	0	451	539	
10	0	0	0	0	452	543	
11	0	0	0	0	453	539	
12	0	0	0	0	452	538	
13	0	0	0	0	452	538	
14	0	0	0	0	452	533	
15	0	0	0	0	451	538	
0	0	0	0	0	451	538	
1	0	0	0	0	450	538	
2	0	0	0	0	449	542	
3	0	0	0	0	448	539	
4	0	0	0	0	448	538	
5	0	0	0	0	447	537	
6	0	0	0	0	447	533	
7	0	0	0	0	448	538	
8	0	0	0	0	447	539	
9	0	0	0	0	448	539	
10	0	0	0	0	449	543	
11	0	0	0	0	451	538	
12	0	0	0	0	452	539	
13	0	0	0	0	454	538	
14	0	0	0	0	455	533	
15	0	0	0	0	455	538	
0	0	0	0	0	456	537	
1	0	0	0	0	457	538	
2	0	0	0	0	457	542	
3	0	0	0	0	459	537	
4	0	0	0	0	459	537	
5	0	0	0	0	459	537	
6	0	0	0	0	460	533	
7	0	0	0	0	459	538	
8	0	0	0	0	460	537	
9	0	0	0	0	460	538	
10	0	0	0	0	460	542	
11	0	0	0	0	461	537	
12	0	0	0	0	462	537	
13	0	0	0	0	463	537	
14	0	0	0	0	465	532	
15	0	0	0	0	467	538	
0	0	0	0	0	470	537	
1	0	0	0	0	473	537	
2	0	0	0	0	475	542	
3	0	0	0	0	477	537	
4	0	0	0	0	479	537	
5	0	0	0	0	480	537	
6	0	0	0	0	480	532	
7	0	0	0	0	481	538	
8	0	0	0	0	481	537	
9	0	0	0	0	481	538	
10	0	0	0	0	481	542	
11	0	0	0	0	481	537	
12	0	0	0	0	481	537	
13	0	0	0	0	481	537	
14	0	0	0	0	481	532	
15	0	0	0	0	482	537	
0	0	0	0	0	482	537	
1	0	0	0	0	483	537	
2	0	0	0	0	484	541	
3	0	0	0	0	486	537	
4	0	0	0	0	486	537	
5	0	0	0	0	487	537	
6	0	0	0	0	489	532	
7	0	0	0	0	490	537	
8	0	0	0	0	491	537	
9	0	0	0	0	492	537	
10	0	0	0	0	492	541	
11	0	0	0	0	492	537	
12	0	0	0	0	491	537	
13	0	0	0	0	491	537	
14	0	0	0	0	489	533	
15	0	0	0	0	490	537	
0	0	0	0	0	489	537	
1	0	0	0	0	489	537	
2	0	0	0	0	489	541	
3	0	0	0	0	490	537	
4	0	0	0	0	491	537	
5	0	0	0	0	491	536	
6	0	0	0	0	492	532	
7	0	0	0	0	494	537	
8	0	0	0	0	496	537	
9	0	0	0	0	497	537	
10	0	0	0	0	499	542	
11	0	0	0	0	500	537	
12	0	0	0	0	501	537	
13	0	0	0	0	503	537	
14	0	0	0	0	504	532	
15	0	0	0	0	505	537	
0	0	0	0	0	505	537	
1	0	0	0	0	505	537	
2	0	0	0	0	505	542	
3	0	0	0	0	505	537	
4	0	0	0	0	504	537	
5	0	0	0	0	504	537	
6	0	0	0	0	504	533	
7	0	0	0	0	504	538	
8	0	0	0	0	504	538	
9	0	0	0	0	504	537	
10	0	0	0	0	505	542	
11	0	0	0	0	506	538	
12	0	0	0	0	507	538	
13	0	0	0	0	507	537	
14	0	0	0	0	508	533	
15	0	0	0	0	510	538	
0	0	0	0	0	510	538	
1	0	0	0	0	510	539	
2	0	0	0	0	510	543	
3	0	0	0	0	511	538	
4	0	0	0	0	510	538	
5	0	0	0	0	510	538	
6	0	0	0	0	510	534	
7	0	0	0	0	510	538	
8	0	0	0	0	511	538	
9	0	0	0	0	510	537	
10	0	0	0	0	510	542	
11	0	0	0	0	510	538	
12	0	0	0	0	511	538	
13	0	0	0	0	512	537	
14	0	0	0	0	514	533	
15	0	0	0	0	516	537	
0	0	0	0	0	518	537	
1	0	0	0	0	520	538	
2	0	0	0	0	521	542	
3	0	0	0	0	523	538	
4	0	0	0	0	523	538	
5	0	0	0	0	524	538	
6	0	0	0	0	524	533	
7	0	0	0	0	524	538	
8	0	0	0	0	525	538	
9	0	0	0	0	524	538	
10	0	0	0	0	525	542	
11	0	0	0	0	524	537	
12	0	0	0	0	524	538	
13	0	0	0	0	524	538	
14	0	0	0	0	524	533	
15	0	0	0	0	524	539	
0	0	0	0	0	525	539	
1	0	0	0	0	524	538	
2	0	0	0	0	525	542	
3	0	0	0	0	525	539	
4	0	0	0	0	526	538	
5	0	0	0	0	526	537	
6	0	0	0	0	526	534	
7	0	0	0	0	527	538	
8	0	0	0	0	527	538	
9	0	0	0	0	527	539	
10	0	0	0	0	527	542	
11	0	0	0	0	528	538	
12	0	0	0	0	528	538	
13	0	0	0	0	528	537	
14	0	0	0	0	528	532	
15	0	0	0	0	528	537	
0	0	0	0	0	528	538	
1	0	0	0	0	528	538	
2	0	0	0	0	528	542	
3	0	0	0	0	529	538	
4	0	0	0	0	530	538	
5	0	0	0	0	530	537	
6	0	0	0	0	530	532	
7	0	0	0	0	531	537	
8	0	0	0	0	531	538	
9	0	0	0	0	532	539	
10	0	0	0	0	533	542	
11	0	0	0	0	534	538	
12	0	0	0	0	534	538	
13	0	0	0	0	534	538	
14	0	0	0	0	533	533	
15	0	0	0	0	533	537	
0	0	0	0	0	532	537	
1	0	0	0	0	532	538	
2	0	0	0	0	531	542	
3	0	0	0	0	531	537	
4	0	0	0	0	530	538	
5	0	0	0	0	529	538	
6	0	0	0	0	528	533	
7	0	0	0	0	527	538	
8	0	0	0	0	527	538	
9	0	0	0	0	527	538	
10	0	0	0	0	527	542	
11	0	0	0	0	528	538	
12	0	0	0	0	529	537	
13	0	0	0	0	529	538	
14	0	0	0	0	529	533	
15	0	0	0	0	529	537	
0	0	0	0	0	529	538	
1	0	0	0	0	528	538	
2	0	0	0	0	528	542	
3	0	0	0	0	528	537	
4	0	0	0	0	527	537	
5	0	0	0	0	526	537	
6	0	0	0	0	525	532	
7	0	0	0	0	524	538	
8	0	0	0	0	523	538	
9	0	0	0	0	523	538	
10	0	0	0	0	522	542	
11	0	0	0	0	522	539	
12	0	0	0	0	522	537	
13	0	0	0	0	523	537	
14	0	0	0	0	524	534	
15	0	0	0	0	525	539	
0	0	0	0	0	526	539	
1	0	0	0	0	526	538	
2	0	0	0	0	527	542	
3	0	0	0	0	528	538	
4	0	0	0	0	528	538	
5	0	0	0	0	529	538	
6	0	0	0	0	528	532	
7	0	0	0	0	529	538	
8	0	0	0	0	530	538	
9	0	0	0	0	530	538	
10	0	0	0	0	530	542	
11	0	0	0	0	531	537	
12	0	0	0	0	531	537	
13	0	0	0	0	531	537	
14	0	0	0	0	531	532	
15	0	0	0	0	532	537	
0	0	0	0	0	532	538	
1	0	0	0	0	532	538	
2	0	0	0	0	531	541	
3	0	0	0	0	532	538	
4	0	0	0	0	533	537	
5	0	0	0	0	534	537	
6	0	0	0	0	535	532	
7	0	0	0	0	535	537	
8	0	0	0	0	536	537	
9	0	0	0	0	536	538	
10	0	0	0	0	536	542	
11	0	0	0	0	537	537	
12	0	0	0	0	537	537	
13	0	0	0	0	535	537	
14	0	0	0	0	535	533	
15	0	0	0	0	534	537	
0	0	0	0	0	534	537	
1	0	0	0	0	534	538	
2	0	0	0	0	534	542	
3	0	0	0	0	534	537	
4	0	0	0	0	534	538	
5	0	0	0	0	534	537	
6	0	0	0	0	533	533	
7	0	0	0	0	532	538	
8	0	0	0	0	531	538	
9	0	0	0	0	532	537	
10	0	0	0	0	531	542	
11	0	0	0	0	532	538	
12	0	0	0	0	532	537	
13	0	0	0	0	532	537	
14	0	0	0	0	532	533	
15	0	0	0	0	532	537	
0	0	0	0	0	533	538	
1	0	0	0	0	533	538	
2	0	0	0	0	533	542	
3	0	0	0	0	533	537	
4	0	0	0	0	532	538	
5	0	0	0	0	532	538	
6	0	0	0	0	533	532	
7	0	0	0	0	533	538	
8	0	0	0	0	534	539	
9	0	0	0	0	534	538	
10	0	0	0	0	535	542	
11	0	0	0	0	536	538	
12	0	0	0	0	536	538	
13	0	0	0	0	537	538	
14	0	0	0	0	537	533	
15	0	0	0	0	538	538	
0	0	0	0	0	538	538	
1	0	0	0	0	538	538	
2	0	0	0	0	539	542	
3	0	0	0	0	539	539	
4	0	0	0	0	539	538	
5	0	0	0	0	539	538	
6	0	0	0	0	539	533	
7	0	0	0	0	539	538	
8	0	0	0	0	539	538	
9	0	0	0	0	539	538	
10	0	0	0	0	538	542	
11	0	0	0	0	539	537	
12	0	0	0	0	540	538	
13	0	0	0	0	541	538	
14	0	0	0	0	541	533	
15	0	0	0	0	543	539	
0	0	0	0	0	545	539	
1	0	0	0	0	546	539	
2	0	0	0	0	547	543	
3	0	0	0	0	548	537	
4	0	0	0	0	548	538	
5	0	0	0	0	548	537	
6	0	0	0	0	548	533	
7	0	0	0	0	547	538	
8	0	0	0	0	546	539	
9	0	0	0	0	545	539	
10	0	0	0	0	544	542	
11	0	0	0	0	542	538	
12	0	0	0	0	540	538	
13	0	0	0	0	537	537	
14	0	0	0	0	533	532	
15	0	0	0	0	529	537	
0	0	0	0	0	524	537	
1	0	0	0	0	519	537	
2	0	0	0	0	514	542	
3	0	0	0	0	509	537	
4	0	0	0	0	505	537	
5	0	0	0	0	503	538	
6	0	0	0	0	500	532	
7	0	0	0	0	498	537	
8	0	0	0	0	496	537	
9	0	0	0	0	494	538	
10	0	0	0	0	492	543	
11	0	0	0	0	493	538	
12	0	0	0	0	496	538	
13	0	0	0	0	502	537	
14	0	0	0	0	510	532	
15	0	0	0	0	520	537	
0	0	0	0	0	532	538	
1	0	0	0	0	546	538	
2	0	0	0	0	559	542	
3	0	0	0	0	572	538	
4	0	0	0	0	584	538	
5	0	0	0	0	600	537	
6	0	0	0	0	616	532	
7	0	0	0	0	632	537	
8	0	0	0	0	647	537	
9	0	0	0	0	661	537	
10	0	0	0	0	674	542	
11	0	0	0	0	686	538	
12	0	0	0	0	692	537	
13	0	0	0	0	696	538	
14	0	0	0	0	692	532	
15	0	0	0	0	687	537	
0	0	0	0	0	678	538	
1	0	0	0	0	665	537	
2	0	0	0	0	651	542	
3	0	0	0	0	635	537	
4	0	0	0	0	623	537	
5	0	0	0	0	616	537	
6	0	0	0	0	615	533	
7	0	0	0	0	615	537	
8	0	0	0	0	617	538	
9	0	0	0	0	620	537	
10	0	0	0	0	622	542	
11	0	0	0	0	623	537	
12	0	0	0	0	622	538	
13	0	0	0	0	620	537	
14	0	0	0	0	616	533	
15	0	0	0	0	612	538	
0	0	0	0	0	608	538	
1	0	0	0	0	604	538	
2	0	0	0	0	599	542	
3	0	0	0	0	594	537	
4	0	0	0	0	588	537	
5	0	0	0	0	582	537	
6	0	0	0	0	575	532	
7	0	0	0	0	568	538	
8	0	0	0	0	559	537	
9	0	0	0	0	552	537	
10	0	0	0	0	545	542	
11	0	0	0	0	540	537	
12	0	0	0	0	534	537	
13	0	0	0	0	530	537	
14	0	0	0	0	527	532	
15	0	0	0	0	525	536	
0	0	0	0	0	524	537	
1	0	0	0	0	523	538	
2	0	0	0	0	523	542	
3	0	0	0	0	522	537	
4	0	0	0	0	521	537	
5	0	0	0	0	520	538	
6	0	0	0	0	521	533	
7	0	0	0	0	521	537	
8	0	0	0	0	520	538	
9	0	0	0	0	520	537	
10	0	0	0	0	519	542	
11	0	0	0	0	519	537	
12	0	0	0	0	518	537	
13	0	0	0	0	517	537	
14	0	0	0	0	517	532	
15	0	0	0	0	517	537	
0	0	0	0	0	518	538	
1	0	0	0	0	518	538	
2	0	0	0	0	519	542	
3	0	0	0	0	520	537	
4	0	0	0	0	521	538	
5	0	0	0	0	521	537	
6	0	0	0	0	522	533	
7	0	0	0	0	522	538	
8	0	0	0	0	522	538	
9	0	0	0	0	522	538	
10	0	0	0	0	522	542	
11	0	0	0	0	521	537	
12	0	0	0	0	521	538	
13	0	0	0	0	519	537	
14	0	0	0	0	519	532	
15	0	0	0	0	519	537	
0	0	0	0	0	518	538	
1	0	0	0	0	517	539	
2	0	0	0	0	517	542	
3	0	0	0	0	517	538	
4	0	0	0	0	518	537	
5	0	0	0	0	519	537	
6	0	0	0	0	519	532	
7	0	0	0	0	520	537	
8	0	0	0	0	521	537	
9	0	0	0	0	522	537	
10	0	0	0	0	523	542	
11	0	0	0	0	523	538	
12	0	0	0	0	522	538	
13	0	0	0	0	523	538	
14	0	0	0	0	522	533	
15	0	0	0	0	522	538	
0	0	0	0	0	520	538	
1	0	0	0	0	518	538	
2	0	0	0	0	518	542	
3	0	0	0	0	517	538	
4	0	0	0	0	515	538	
5	0	0	0	0	514	538	
6	0	0	0	0	513	533	
7	0	0	0	0	512	538	
8	0	0	0	0	513	538	
9	0	0	0	0	512	538	
10	0	0	0	0	512	542	
11	0	0	0	0	512	537	
12	0	0	0	0	512	538	
13	0	0	0	0	512	538	
14	0	0	0	0	512	532	
15	0	0	0	0	514	538	
0	0	0	0	0	513	537	
1	0	0	0	0	514	537	
2	0	0	0	0	513	542	
3	0	0	0	0	513	537	
4	0	0	0	0	513	538	
5	0	0	0	0	513	537	
6	0	0	0	0	513	532	
7	0	0	0	0	513	537	
8	0	0	0	0	513	537	
9	0	0	0	0	515	537	
10	0	0	0	0	516	541	
11	0	0	0	0	518	537	
12	0	0	0	0	518	536	
13	0	0	0	0	520	537	
14	0	0	0	0	522	533	
15	0	0	0	0	524	537	
0	0	0	0	0	525	537	
1	0	0	0	0	526	537	
2	0	0	0	0	529	542	
3	0	0	0	0	531	537	
4	0	0	0	0	533	537	
5	0	0	0	0	535	537	
6	0	0	0	0	536	532	
7	0	0	0	0	537	538	
8	0	0	0	0	538	538	
9	0	0	0	0	539	538	
10	0	0	0	0	539	542	
11	0	0	0	0	540	537	
12	0	0	0	0	540	537	
13	0	0	0	0	540	537	
14	0	0	0	0	540	532	
15	0	0	0	0	542	538	
0	0	0	0	0	543	538	
1	0	0	0	0	544	537	
2	0	0	0	0	545	542	
3	0	0	0	0	546	537	
4	0	0	0	0	548	537	
5	0	0	0	0	550	537	
6	0	0	0	0	550	532	
7	0	0	0	0	550	537	
8	0	0	0	0	552	537	
9	0	0	0	0	552	537	
10	0	0	0	0	551	542	
11	0	0	0	0	552	537	
12	0	0	0	0	550	537	
13	0	0	0	0	548	537	
14	0	0	0	0	548	531	
15	0	0	0	0	547	537	
0	0	0	0	0	544	537	
1	0	0	0	0	544	537	
2	0	0	0	0	543	541	
3	0	0	0	0	542	537	
4	0	0	0	0	542	537	
5	0	0	0	0	541	537	
6	0	0	0	0	541	532	
7	0	0	0	0	542	537	
8	0	0	0	0	542	537	
9	0	0	0	0	543	537	
10	0	0	0	0	543	541	
11	0	0	0	0	543	537	
12	0	0	0	0	543	537	
13	0	0	0	0	543	536	
14	0	0	0	0	542	532	
15	0	0	0	0	542	537	
0	0	0	0	0	541	537	
1	0	0	0	0	540	537	
2	0	0	0	0	540	542	
3	0	0	0	0	540	537	
4	0	0	0	0	538	537	
5	0	0	0	0	537	537	
6	0	0	0	0	536	532	
7	0	0	0	0	536	537	
8	0	0	0	0	536	537	
9	0	0	0	0	535	538	
10	0	0	0	0	534	542	
11	0	0	0	0	535	537	
12	0	0	0	0	536	537	
13	0	0	0	0	536	538	
14	0	0	0	0	535	533	
15	0	0	0	0	535	537	
0	0	0	0	0	535	538	
1	0	0	0	0	534	538	
2	0	0	0	0	533	542	
3	0	0	0	0	531	537	
4	0	0	0	0	530	537	
5	0	0	0	0	528	537	
6	0	0	0	0	526	533	
7	0	0	0	0	524	538	
8	0	0	0	0	522	538	
9	0	0	0	0	520	537	
10	0	0	0	0	519	542	
11	0	0	0	0	519	537	
12	0	0	0	0	519	537	
13	0	0	0	0	519	538	
14	0	0	0	0	519	533	
15	0	0	0	0	519	538	
0	0	0	0	0	521	538	
1	0	0	0	0	521	538	
2	0	0	0	0	522	542	
3	0	0	0	0	522	537	
4	0	0	0	0	521	537	
5	0	0	0	0	522	537	
6	0	0	0	0	521	532	
7	0	0	0	0	521	537	
8	0	0	0	0	520	537	
9	0	0	0	0	518	538	
10	0	0	0	0	517	542	
11	0	0	0	0	516	537	
12	0	0	0	0	515	537	
13	0	0	0	0	515	537	
14	0	0	0	0	515	532	
15	0	0	0	0	514	538	
0	0	0	0	0	514	538	
1	0	0	0	0	513	538	
2	0	0	0	0	513	542	
3	0	0	0	0	514	538	
4	0	0	0	0	515	537	
5	0	0	0	0	515	537	
6	0	0	0	0	516	532	
7	0	0	0	0	516	537	
8	0	0	0	0	518	537	
9	0	0	0	0	519	538	
10	0	0	0	0	519	541	
11	0	0	0	0	519	537	
12	0	0	0	0	519	537	
13	0	0	0	0	519	537	
14	0	0	0	0	518	533	
15	0	0	0	0	518	537	
0	0	0	0	0	518	537	
1	0	0	0	0	519	537	
2	0	0	0	0	519	542	
3	0	0	0	0	520	537	
4	0	0	0	0	520	538	
5	0	0	0	0	522	538	
6	0	0	0	0	523	532	
7	0	0	0	0	524	537	
8	0	0	0	0	526	537	
9	0	0	0	0	527	538	
10	0	0	0	0	528	542	
11	0	0	0	0	530	537	
12	0	0	0	0	532	537	
13	0	0	0	0	532	537	
14	0	0	0	0	534	533	
15	0	0	0	0	534	537	
0	0	0	0	0	534	538	
1	0	0	0	0	534	537	
2	0	0	0	0	534	542	
3	0	0	0	0	532	537	
4	0	0	0	0	532	538	
5	0	0	0	0	532	538	
6	0	0	0	0	532	534	
7	0	0	0	0	532	538	
8	0	0	0	0	531	538	
9	0	0	0	0	532	538	
10	0	0	0	0	532	542	
11	0	0	0	0	533	537	
12	0	0	0	0	534	537	
13	0	0	0	0	535	537	
14	0	0	0	0	536	533	
15	0	0	0	0	537	537	
0	0	0	0	0	537	537	
1	0	0	0	0	538	538	
2	0	0	0	0	537	542	
3	0	0	0	0	537	538	
4	0	0	0	0	536	538	
5	0	0	0	0	535	537	
6	0	0	0	0	533	532	
7	0	0	0	0	532	538	
8	0	0	0	0	531	538	
9	0	0	0	0	530	538	
10	0	0	0	0	530	542	
11	0	0	0	0	531	537	
12	0	0	0	0	532	537	
13	0	0	0	0	532	537	
14	0	0	0	0	532	533	
15	0	0	0	0	532	538	
0	0	0	0	0	532	538	
1	0	0	0	0	532	538	
2	0	0	0	0	532	543	
3	0	0	0	0	533	538	
4	0	0	0	0	534	538	
5	0	0	0	0	535	538	
6	0	0	0	0	536	533	
7	0	0	0	0	537	538	
8	0	0	0	0	539	538	
9	0	0	0	0	538	538	
10	0	0	0	0	537	542	
11	0	0	0	0	536	538	
12	0	0	0	0	536	538	
13	0	0	0	0	536	538	
14	0	0	0	0	535	534	
15	0	0	0	0	535	538	
0	0	0	0	0	535	537	
1	0	0	0	0	537	538	
2	0	0	0	0	539	543	
3	0	0	0	0	540	538	
4	0	0	0	0	541	539	
5	0	0	0	0	541	538	
6	0	0	0	0	542	533	
7	0	0	0	0	542	539	
8	0	0	0	0	543	539	
9	0	0	0	0	543	538	
10	0	0	0	0	543	543	
11	0	0	0	0	543	538	
12	0	0	0	0	543	537	
13	0	0	0	0	542	538	
14	0	0	0	0	542	534	
15	0	0	0	0	542	538	
0	0	0	0	0	543	538	
1	0	0	0	0	543	539	
2	0	0	0	0	543	543	
3	0	0	0	0	544	539	
4	0	0	0	0	546	539	
5	0	0	0	0	547	538	
6	0	0	0	0	548	534	
7	0	0	0	0	548	538	
8	0	0	0	0	550	538	
9	0	0	0	0	551	539	
10	0	0	0	0	551	543	
11	0	0	0	0	552	539	
12	0	0	0	0	553	538	
13	0	0	0	0	553	538	
14	0	0	0	0	553	534	
15	0	0	0	0	553	538	
0	0	0	0	0	551	539	
1	0	0	0	0	550	538	
2	0	0	0	0	550	543	
3	0	0	0	0	547	539	
4	0	0	0	0	545	538	
5	0	0	0	0	543	538	
6	0	0	0	0	541	533	
7	0	0	0	0	540	539	
8	0	0	0	0	539	539	
9	0	0	0	0	537	539	
10	0	0	0	0	536	543	
11	0	0	0	0	536	539	
12	0	0	0	0	536	539	
13	0	0	0	0	535	539	
14	0	0	0	0	533	534	
15	0	0	0	0	531	539	
0	0	0	0	0	530	539	
1	0	0	0	0	529	539	
2	0	0	0	0	527	543	
3	0	0	0	0	526	538	
4	0	0	0	0	524	539	
5	0	0	0	0	523	539	
6	0	0	0	0	521	534	
7	0	0	0	0	519	539	
8	0	0	0	0	518	539	
9	0	0	0	0	517	539	
10	0	0	0	0	517	543	
11	0	0	0	0	516	539	
12	0	0	0	0	517	539	
13	0	0	0	0	516	538	
14	0	0	0	0	516	534	
15	0	0	0	0	516	539	
0	0	0	0	0	517	539	
1	0	0	0	0	518	539	
2	0	0	0	0	519	543	
3	0	0	0	0	520	539	
4	0	0	0	0	519	539	
5	0	0	0	0	519	538	
6	0	0	0	0	519	534	
7	0	0	0	0	519	539	
8	0	0	0	0	518	539	
9	0	0	0	0	517	539	
10	0	0	0	0	517	543	
11	0	0	0	0	516	538	
12	0	0	0	0	515	539	
13	0	0	0	0	514	539	
14	0	0	0	0	514	534	
15	0	0	0	0	513	539	
0	0	0	0	0	513	538	
1	0	0	0	0	512	539	
2	0	0	0	0	511	543	
3	0	0	0	0	512	539	
4	0	0	0	0	512	537	
5	0	0	0	0	512	538	
6	0	0	0	0	512	533	
7	0	0	0	0	512	539	
8	0	0	0	0	513	538	
9	0	0	0	0	513	539	
10	0	0	0	0	512	543	
11	0	0	0	0	511	539	
12	0	0	0	0	510	539	
13	0	0	0	0	510	538	
14	0	0	0	0	509	533	
15	0	0	0	0	509	539	
0	0	0	0	0	508	538	
1	0	0	0	0	508	538	
2	0	0	0	0	509	543	
3	0	0	0	0	508	538	
4	0	0	0	0	508	538	
5	0	0	0	0	509	538	
6	0	0	0	0	510	533	
7	0	0	0	0	510	538	
8	0	0	0	0	510	538	
9	0	0	0	0	511	538	
10	0	0	0	0	512	543	
11	0	0	0	0	512	538	
12	0	0	0	0	511	539	
13	0	0	0	0	511	539	
14	0	0	0	0	511	534	
15	0	0	0	0	511	538	
0	0	0	0	0	510	538	
1	0	0	0	0	509	538	
2	0	0	0	0	510	542	
3	0	0	0	0	510	538	
4	0	0	0	0	510	538	
5	0	0	0	0	510	538	
6	0	0	0	0	509	534	
7	0	0	0	0	509	539	
8	0	0	0	0	509	539	
9	0	0	0	0	510	539	
10	0	0	0	0	511	542	
11	0	0	0	0	513	538	
12	0	0	0	0	515	538	
13	0	0	0	0	515	538	
14	0	0	0	0	516	533	
15	0	0	0	0	518	539	
0	0	0	0	0	518	538	
1	0	0	0	0	517	538	
2	0	0	0	0	516	542	
3	0	0	0	0	516	537	
4	0	0	0	0	516	538	
5	0	0	0	0	515	538	
6	0	0	0	0	515	533	
7	0	0	0	0	515	539	
8	0	0	0	0	515	539	
9	0	0	0	0	515	539	
10	0	0	0	0	515	543	
11	0	0	0	0	517	538	
12	0	0	0	0	518	539	
13	0	0	0	0	518	537	
14	0	0	0	0	519	533	
15	0	0	0	0	519	539	
0	0	0	0	0	520	539	
1	0	0	0	0	521	539	
2	0	0	0	0	522	543	
3	0	0	0	0	522	539	
4	0	0	0	0	523	539	
5	0	0	0	0	523	538	
6	0	0	0	0	522	534	
7	0	0	0	0	522	539	
8	0	0	0	0	522	538	
9	0	0	0	0	522	538	
10	0	0	0	0	521	543	
11	0	0	0	0	521	538	
12	0	0	0	0	520	539	
13	0	0	0	0	519	539	
14	0	0	0	0	519	534	
15	0	0	0	0	519	539	
0	0	0	0	0	520	538	
1	0	0	0	0	519	539	
2	0	0	0	0	520	543	
3	0	0	0	0	520	539	
4	0	0	0	0	520	538	
5	0	0	0	0	523	538	
6	0	0	0	0	524	534	
7	0	0	0	0	523	538	
8	0	0	0	0	524	538	
9	0	0	0	0	523	539	
10	0	0	0	0	523	543	
11	0	0	0	0	524	538	
12	0	0	0	0	523	539	
13	0	0	0	0	523	539	
14	0	0	0	0	522	534	
15	0	0	0	0	522	539	
0	0	0	0	0	522	539	
1	0	0	0	0	522	538	
2	0	0	0	0	522	543	
3	0	0	0	0	522	538	
4	0	0	0	0	523	539	
5	0	0	0	0	525	539	
6	0	0	0	0	526	534	
7	0	0	0	0	526	539	
8	0	0	0	0	528	538	
9	0	0	0	0	529	537	
10	0	0	0	0	529	542	
11	0	0	0	0	529	539	
12	0	0	0	0	528	539	
13	0	0	0	0	528	539	
14	0	0	0	0	527	535	
15	0	0	0	0	527	539	
0	0	0	0	0	526	539	
1	0	0	0	0	525	539	
2	0	0	0	0	525	543	
3	0	0	0	0	523	539	
4	0	0	0	0	521	537	
5	0	0	0	0	521	537	
6	0	0	0	0	520	532	
7	0	0	0	0	519	536	
8	0	0	0	0	519	536	
9	0	0	0	0	519	536	
10	0	0	0	0	519	540	
11	0	0	0	0	520	537	
12	0	0	0	0	521	537	
13	0	0	0	0	520	537	
14	0	0	0	0	519	533	
15	0	0	0	0	518	537	
0	0	0	0	0	518	538	
1	0	0	0	0	517	538	
2	0	0	0	0	516	543	
3	0	0	0	0	516	537	
4	0	0	0	0	515	538	
5	0	0	0	0	514	538	
6	0	0	0	0	513	533	
7	0	0	0	0	511	539	
8	0	0	0	0	509	538	
9	0	0	0	0	508	539	
10	0	0	0	0	509	542	
11	0	0	0	0	509	538	
12	0	0	0	0	509	537	
13	0	0	0	0	509	537	
14	0	0	0	0	509	533	
15	0	0	0	0	510	538	
0	0	0	0	0	509	537	
1	0	0	0	0	509	537	
2	0	0	0	0	510	542	
3	0	0	0	0	511	538	
4	0	0	0	0	512	538	
5	0	0	0	0	512	537	
6	0	0	0	0	511	532	
7	0	0	0	0	511	537	
8	0	0	0	0	510	537	
9	0	0	0	0	510	537	
10	0	0	0	0	510	541	
11	0	0	0	0	509	536	
12	0	0	0	0	508	536	
13	0	0	0	0	508	537	
14	0	0	0	0	506	532	
15	0	0	0	0	506	537	
0	0	0	0	0	506	537	
1	0	0	0	0	506	537	
2	0	0	0	0	506	542	
3	0	0	0	0	507	538	
4	0	0	0	0	508	538	
5	0	0	0	0	511	538	
6	0	0	0	0	511	533	
7	0	0	0	0	512	537	
8	0	0	0	0	512	537	
9	0	0	0	0	514	538	
10	0	0	0	0	514	542	
11	0	0	0	0	513	537	
12	0	0	0	0	512	537	
13	0	0	0	0	511	537	
14	0	0	0	0	511	532	
15	0	0	0	0	509	537	
0	0	0	0	0	508	538	
1	0	0	0	0	508	538	
2	0	0	0	0	508	542	
3	0	0	0	0	506	538	
4	0	0	0	0	506	538	
5	0	0	0	0	505	538	
6	0	0	0	0	506	534	
7	0	0	0	0	508	538	
8	0	0	0	0	508	538	
9	0	0	0	0	509	539	
10	0	0	0	0	509	542	
11	0	0	0	0	510	538	
12	0	0	0	0	511	538	
13	0	0	0	0	511	538	
14	0	0	0	0	510	532	
15	0	0	0	0	509	538	
0	0	0	0	0	508	537	
1	0	0	0	0	507	537	
2	0	0	0	0	504	542	
3	0	0	0	0	503	537	
4	0	0	0	0	501	537	
5	0	0	0	0	500	538	
6	0	0	0	0	499	533	
7	0	0	0	0	499	537	
8	0	0	0	0	499	537	
9	0	0	0	0	498	538	
10	0	0	0	0	498	542	
11	0	0	0	0	498	538	
12	0	0	0	0	498	538	
13	0	0	0	0	498	537	
14	0	0	0	0	498	533	
15	0	0	0	0	498	538	
0	0	0	0	0	498	538	
1	0	0	0	0	497	538	
2	0	0	0	0	496	542	
3	0	0	0	0	495	538	
4	0	0	0	0	495	537	
5	0	0	0	0	494	537	
6	0	0	0	0	492	532	
7	0	0	0	0	491	537	
8	0	0	0	0	489	538	
9	0	0	0	0	489	537	
10	0	0	0	0	489	542	
11	0	0	0	0	488	538	
12	0	0	0	0	487	538	
13	0	0	0	0	489	537	
14	0	0	0	0	490	533	
15	0	0	0	0	490	538	
0	0	0	0	0	490	538	
1	0	0	0	0	491	538	
2	0	0	0	0	491	542	
3	0	0	0	0	492	538	
4	0	0	0	0	493	538	
5	0	0	0	0	493	537	
6	0	0	0	0	493	533	
7	0	0	0	0	493	538	
8	0	0	0	0	492	538	
9	0	0	0	0	492	538	
10	0	0	0	0	491	542	
11	0	0	0	0	489	538	
12	0	0	0	0	489	538	
13	0	0	0	0	488	538	
14	0	0	0	0	488	533	
15	0	0	0	0	489	538	
0	0	0	0	0	489	538	
1	0	0	0	0	491	538	
2	0	0	0	0	492	543	
3	0	0	0	0	494	538	
4	0	0	0	0	495	538	
5	0	0	0	0	497	538	
6	0	0	0	0	499	533	
7	0	0	0	0	499	537	
8	0	0	0	0	499	538	
9	0	0	0	0	500	539	
10	0	0	0	0	499	543	
11	0	0	0	0	499	538	
12	0	0	0	0	499	538	
13	0	0	0	0	498	538	
14	0	0	0	0	498	533	
15	0	0	0	0	498	538	
0	0	0	0	0	497	537	
1	0	0	0	0	497	538	
2	0	0	0	0	497	542	
3	0	0	0	0	499	538	
4	0	0	0	0	499	538	
5	0	0	0	0	499	538	
6	0	0	0	0	501	534	
7	0	0	0	0	503	539	
8	0	0	0	0	504	538	
9	0	0	0	0	505	539	
10	0	0	0	0	507	542	
11	0	0	0	0	507	537	
12	0	0	0	0	508	538	
13	0	0	0	0	507	537	
14	0	0	0	0	507	533	
15	0	0	0	0	507	538	
0	0	0	0	0	507	537	
1	0	0	0	0	506	538	
2	0	0	0	0	505	542	
3	0	0	0	0	504	537	
4	0	0	0	0	504	537	
5	0	0	0	0	503	537	
6	0	0	0	0	502	533	
7	0	0	0	0	503	538	
8	0	0	0	0	504	538	
9	0	0	0	0	503	538	
10	0	0	0	0	504	543	
11	0	0	0	0	505	539	
12	0	0	0	0	507	538	
13	0	0	0	0	507	537	
14	0	0	0	0	508	533	
15	0	0	0	0	509	538	
0	0	0	0	0	509	537	
1	0	0	0	0	509	539	
2	0	0	0	0	508	542	
3	0	0	0	0	509	538	
4	0	0	0	0	509	538	
5	0	0	0	0	508	538	
6	0	0	0	0	507	533	
7	0	0	0	0	507	538	
8	0	0	0	0	507	538	
9	0	0	0	0	507	538	
10	0	0	0	0	507	542	
11	0	0	0	0	508	537	
12	0	0	0	0	508	537	
13	0	0	0	0	508	538	
14	0	0	0	0	509	533	
15	0	0	0	0	511	538	
0	0	0	0	0	513	538	
1	0	0	0	0	515	539	
2	0	0	0	0	515	543	
3	0	0	0	0	516	538	
4	0	0	0	0	518	538	
5	0	0	0	0	518	538	
6	0	0	0	0	518	534	
7	0	0	0	0	519	539	
8	0	0	0	0	518	539	
9	0	0	0	0	516	539	
10	0	0	0	0	515	543	
11	0	0	0	0	515	538	
12	0	0	0	0	516	538	
13	0	0	0	0	515	538	
14	0	0	0	0	515	534	
15	0	0	0	0	515	539	
0	0	0	0	0	515	538	
1	0	0	0	0	516	538	
2	0	0	0	0	518	543	
3	0	0	0	0	518	538	
4	0	0	0	0	518	538	
5	0	0	0	0	519	538	
6	0	0	0	0	519	534	
7	0	0	0	0	521	538	
8	0	0	0	0	520	539	
9	0	0	0	0	520	539	
10	0	0	0	0	520	542	
11	0	0	0	0	520	539	
12	0	0	0	0	519	539	
13	0	0	0	0	519	539	
14	0	0	0	0	517	534	
15	0	0	0	0	516	539	
0	0	0	0	0	514	538	
1	0	0	0	0	512	539	
2	0	0	0	0	510	543	
3	0	0	0	0	507	538	
4	0	0	0	0	502	539	
5	0	0	0	0	499	539	
6	0	0	0	0	495	534	
7	0	0	0	0	491	538	
8	0	0	0	0	487	539	
9	0	0	0	0	485	539	
10	0	0	0	0	484	543	
11	0	0	0	0	484	539	
12	0	0	0	0	482	538	
13	0	0	0	0	480	538	
14	0	0	0	0	479	534	
15	0	0	0	0	480	539	
0	0	0	0	0	482	539	
1	0	0	0	0	486	538	
2	0	0	0	0	494	543	
3	0	0	0	0	503	539	
4	0	0	0	0	514	539	
5	0	0	0	0	527	538	
6	0	0	0	0	540	534	
7	0	0	0	0	553	539	
8	0	0	0	0	564	538	
9	0	0	0	0	577	538	
10	0	0	0	0	593	543	
11	0	0	0	0	609	538	
12	0	0	0	0	624	538	
13	0	0	0	0	639	539	
14	0	0	0	0	652	533	
15	0	0	0	0	664	537	
0	0	0	0	0	672	537	
1	0	0	0	0	676	539	
2	0	0	0	0	675	543	
3	0	0	0	0	671	539	
4	0	0	0	0	664	538	
5	0	0	0	0	652	537	
6	0	0	0	0	637	533	
7	0	0	0	0	620	538	
8	0	0	0	0	605	538	
9	0	0	0	0	597	539	
10	0	0	0	0	592	543	
11	0	0	0	0	592	539	
12	0	0	0	0	592	539	
13	0	0	0	0	595	538	
14	0	0	0	0	598	534	
15	0	0	0	0	600	538	
0	0	0	0	0	602	539	
1	0	0	0	0	601	539	
2	0	0	0	0	600	543	
3	0	0	0	0	597	540	
4	0	0	0	0	593	539	
5	0	0	0	0	588	539	
6	0	0	0	0	583	534	
7	0	0	0	0	576	539	
8	0	0	0	0	569	539	
9	0	0	0	0	561	539	
10	0	0	0	0	553	543	
11	0	0	0	0	545	539	
12	0	0	0	0	536	539	
13	0	0	0	0	529	539	
14	0	0	0	0	521	534	
15	0	0	0	0	515	539	
0	0	0	0	0	509	539	
1	0	0	0	0	504	539	
2	0	0	0	0	501	543	
3	0	0	0	0	498	538	
4	0	0	0	0	495	539	
5	0	0	0	0	492	538	
6	0	0	0	0	491	534	
7	0	0	0	0	489	539	
8	0	0	0	0	487	538	
9	0	0	0	0	486	539	
10	0	0	0	0	484	543	
11	0	0	0	0	483	539	
12	0	0	0	0	482	539	
13	0	0	0	0	480	539	
14	0	0	0	0	478	534	
15	0	0	0	0	476	539	
0	0	0	0	0	475	539	
1	0	0	0	0	473	540	
2	0	0	0	0	473	543	
3	0	0	0	0	473	540	
4	0	0	0	0	473	539	
5	0	0	0	0	472	538	
6	0	0	0	0	471	535	
7	0	0	0	0	471	540	
8	0	0	0	0	471	539	
9	0	0	0	0	472	539	
10	0	0	0	0	472	543	
11	0	0	0	0	473	539	
12	0	0	0	0	472	540	
13	0	0	0	0	472	539	
14	0	0	0	0	471	535	
15	0	0	0	0	470	539	
0	0	0	0	0	468	539	
1	0	0	0	0	466	539	
2	0	0	0	0	465	543	
3	0	0	0	0	463	539	
4	0	0	0	0	461	539	
5	0	0	0	0	460	539	
6	0	0	0	0	458	534	
7	0	0	0	0	456	539	
8	0	0	0	0	456	539	
9	0	0	0	0	455	539	
10	0	0	0	0	455	543	
11	0	0	0	0	455	539	
12	0	0	0	0	454	539	
13	0	0	0	0	452	539	
14	0	0	0	0	452	535	
15	0	0	0	0	452	540	
0	0	0	0	0	451	539	
1	0	0	0	0	449	540	
2	0	0	0	0	448	544	
3	0	0	0	0	447	539	
4	0	0	0	0	445	540	
5	0	0	0	0	444	539	
6	0	0	0	0	442	534	
7	0	0	0	0	440	539	
8	0	0	0	0	439	540	
9	0	0	0	0	436	539	
10	0	0	0	0	436	544	
11	0	0	0	0	435	539	
12	0	0	0	0	434	539	
13	0	0	0	0	433	539	
14	0	0	0	0	433	534	
15	0	0	0	0	434	538	
0	0	0	0	0	434	539	
1	0	0	0	0	434	539	
2	0	0	0	0	435	543	
3	0	0	0	0	435	540	
4	0	0	0	0	435	539	
5	0	0	0	0	435	539	
6	0	0	0	0	435	535	
7	0	0	0	0	434	539	
8	0	0	0	0	433	539	
9	0	0	0	0	432	539	
10	0	0	0	0	430	543	
11	0	0	0	0	429	538	
12	0	0	0	0	428	539	
13	0	0	0	0	427	538	
14	0	0	0	0	425	534	
15	0	0	0	0	425	539	
0	0	0	0	0	426	539	
1	0	0	0	0	427	539	
2	0	0	0	0	428	543	
3	0	0	0	0	428	539	
4	0	0	0	0	430	538	
5	0	0	0	0	431	538	
6	0	0	0	0	432	533	
7	0	0	0	0	433	538	
8	0	0	0	0	435	537	
9	0	0	0	0	436	538	
10	0	0	0	0	436	542	
11	0	0	0	0	437	537	
12	0	0	0	0	437	537	
13	0	0	0	0	437	537	
14	0	0	0	0	436	533	
15	0	0	0	0	436	538	
0	0	0	0	0	436	538	
1	0	0	0	0	435	537	
2	0	0	0	0	435	542	
3	0	0	0	0	436	538	
4	0	0	0	0	437	537	
5	0	0	0	0	437	537	
6	0	0	0	0	438	533	
7	0	0	0	0	439	538	
8	0	0	0	0	440	538	
9	0	0	0	0	441	537	
10	0	0	0	0	442	542	
11	0	0	0	0	443	537	
12	0	0	0	0	444	537	
13	0	0	0	0	445	537	
14	0	0	0	0	445	532	
15	0	0	0	0	446	537	
0	0	0	0	0	446	538	
1	0	0	0	0	445	538	
2	0	0	0	0	445	542	
3	0	0	0	0	445	538	
4	0	0	0	0	445	537	
5	0	0	0	0	446	537	
6	0	0	0	0	447	533	
7	0	0	0	0	448	538	
8	0	0	0	0	448	538	
9	0	0	0	0	449	538	
10	0	0	0	0	450	543	
11	0	0	0	0	451	537	
12	0	0	0	0	453	537	
13	0	0	0	0	455	537	
14	0	0	0	0	456	532	
15	0	0	0	0	458	538	
0	0	0	0	0	459	538	
1	0	0	0	0	460	538	
2	0	0	0	0	460	542	
3	0	0	0	0	461	537	
4	0	0	0	0	461	537	
5	0	0	0	0	461	537	
6	0	0	0	0	460	532	
7	0	0	0	0	461	538	
8	0	0	0	0	461	538	
9	0	0	0	0	461	538	
10	0	0	0	0	462	542	
11	0	0	0	0	462	537	
12	0	0	0	0	463	537	
13	0	0	0	0	463	537	
14	0	0	0	0	465	532	
15	0	0	0	0	466	538	
0	0	0	0	0	467	537	
1	0	0	0	0	469	538	
2	0	0	0	0	470	542	
3	0	0	0	0	470	538	
4	0	0	0	0	470	538	
5	0	0	0	0	471	538	
6	0	0	0	0	472	533	
7	0	0	0	0	472	538	
8	0	0	0	0	473	538	
9	0	0	0	0	472	538	
10	0	0	0	0	471	543	
11	0	0	0	0	471	538	
12	0	0	0	0	470	538	
13	0	0	0	0	469	538	
14	0	0	0	0	469	533	
15	0	0	0	0	469	537	
0	0	0	0	0	470	538	
1	0	0	0	0	470	538	
2	0	0	0	0	471	542	
3	0	0	0	0	472	538	
4	0	0	0	0	473	537	
5	0	0	0	0	474	538	
6	0	0	0	0	475	533	
7	0	0	0	0	476	539	
8	0	0	0	0	476	539	
9	0	0	0	0	476	538	
10	0	0	0	0	476	543	
11	0	0	0	0	476	538	
12	0	0	0	0	475	538	
13	0	0	0	0	474	538	
14	0	0	0	0	474	533	
15	0	0	0	0	472	538	
0	0	0	0	0	472	538	
1	0	0	0	0	472	538	
2	0	0	0	0	471	542	
3	0	0	0	0	471	538	
4	0	0	0	0	471	538	
5	0	0	0	0	472	538	
6	0	0	0	0	474	534	
7	0	0	0	0	475	539	
8	0	0	0	0	476	539	
9	0	0	0	0	477	539	
10	0	0	0	0	478	542	
11	0	0	0	0	479	538	
12	0	0	0	0	480	539	
13	0	0	0	0	480	538	
14	0	0	0	0	480	534	
15	0	0	0	0	480	538	
0	0	0	0	0	480	539	
1	0	0	0	0	480	539	
2	0	0	0	0	480	543	
3	0	0	0	0	480	538	
4	0	0	0	0	479	538	
5	0	0	0	0	480	538	
6	0	0	0	0	480	533	
7	0	0	0	0	480	538	
8	0	0	0	0	480	538	
9	0	0	0	0	481	539	
10	0	0	0	0	481	543	
11	0	0	0	0	483	538	
12	0	0	0	0	483	538	
13	0	0	0	0	484	538	
14	0	0	0	0	485	533	
15	0	0	0	0	487	539	
0	0	0	0	0	488	538	
1	0	0	0	0	490	538	
2	0	0	0	0	491	542	
3	0	0	0	0	493	538	
4	0	0	0	0	494	538	
5	0	0	0	0	495	538	
6	0	0	0	0	495	533	
7	0	0	0	0	495	538	
8	0	0	0	0	495	538	
9	0	0	0	0	495	538	
10	0	0	0	0	495	543	
11	0	0	0	0	496	539	
12	0	0	0	0	497	538	
13	0	0	0	0	498	537	
14	0	0	0	0	499	533	
15	0	0	0	0	500	538	
0	0	0	0	0	502	538	
1	0	0	0	0	503	539	
2	0	0	0	0	503	542	
3	0	0	0	0	504	538	
4	0	0	0	0	504	539	
5	0	0	0	0	504	537	
6	0	0	0	0	504	533	
7	0	0	0	0	503	538	
8	0	0	0	0	503	538	
9	0	0	0	0	502	538	
10	0	0	0	0	501	542	
11	0	0	0	0	501	538	
12	0	0	0	0	500	538	
13	0	0	0	0	501	537	
14	0	0	0	0	500	532	
15	0	0	0	0	501	538	
0	0	0	0	0	501	537	
1	0	0	0	0	502	538	
2	0	0	0	0	503	542	
3	0	0	0	0	504	538	
4	0	0	0	0	504	539	
5	0	0	0	0	504	538	
6	0	0	0	0	505	533	
7	0	0	0	0	506	539	
8	0	0	0	0	507	538	
9	0	0	0	0	507	539	
10	0	0	0	0	507	542	
11	0	0	0	0	507	537	
12	0	0	0	0	507	537	
13	0	0	0	0	505	537	
14	0	0	0	0	504	533	
15	0	0	0	0	504	538	
0	0	0	0	0	504	539	
1	0	0	0	0	504	538	
2	0	0	0	0	504	543	
3	0	0	0	0	504	538	
4	0	0	0	0	503	538	
5	0	0	0	0	503	538	
6	0	0	0	0	504	533	
7	0	0	0	0	504	538	
8	0	0	0	0	504	539	
9	0	0	0	0	505	539	
10	0	0	0	0	506	543	
11	0	0	0	0	507	538	
12	0	0	0	0	507	538	
13	0	0	0	0	507	538	
14	0	0	0	0	507	532	
15	0	0	0	0	508	538	
0	0	0	0	0	507	538	
1	0	0	0	0	507	539	
2	0	0	0	0	506	543	
3	0	0	0	0	506	539	
4	0	0	0	0	505	538	
5	0	0	0	0	505	538	
6	0	0	0	0	504	533	
7	0	0	0	0	504	538	
8	0	0	0	0	503	538	
9	0	0	0	0	503	539	
10	0	0	0	0	503	543	
11	0	0	0	0	504	539	
12	0	0	0	0	504	539	
13	0	0	0	0	504	538	
14	0	0	0	0	504	535	
15	0	0	0	0	504	539	
0	0	0	0	0	505	538	
1	0	0	0	0	504	539	
2	0	0	0	0	504	543	
3	0	0	0	0	504	538	
4	0	0	0	0	503	539	
5	0	0	0	0	503	539	
6	0	0	0	0	501	534	
7	0	0	0	0	500	539	
8	0	0	0	0	498	539	
9	0	0	0	0	497	540	
10	0	0	0	0	496	543	
11	0	0	0	0	495	540	
12	0	0	0	0	495	540	
13	0	0	0	0	494	539	
14	0	0	0	0	495	534	
15	0	0	0	0	495	539	
0	0	0	0	0	496	538	
1	0	0	0	0	496	539	
2	0	0	0	0	497	542	
3	0	0	0	0	498	538	
4	0	0	0	0	498	538	
5	0	0	0	0	499	537	
6	0	0	0	0	499	534	
7	0	0	0	0	500	539	
8	0	0	0	0	500	539	
9	0	0	0	0	499	539	
10	0	0	0	0	498	544	
11	0	0	0	0	497	539	
12	0	0	0	0	497	540	
13	0	0	0	0	497	539	
14	0	0	0	0	497	534	
15	0	0	0	0	498	538	
0	0	0	0	0	498	538	
1	0	0	0	0	498	539	
2	0	0	0	0	500	542	
3	0	0	0	0	500	539	
4	0	0	0	0	502	539	
5	0	0	0	0	503	538	
6	0	0	0	0	505	534	
7	0	0	0	0	506	538	
8	0	0	0	0	507	539	
9	0	0	0	0	508	539	
10	0	0	0	0	509	543	
11	0	0	0	0	510	539	
12	0	0	0	0	510	539	
13	0	0	0	0	509	539	
14	0	0	0	0	508	534	
15	0	0	0	0	507	539	
0	0	0	0	0	507	538	
1	0	0	0	0	507	539	
2	0	0	0	0	507	543	
3	0	0	0	0	506	539	
4	0	0	0	0	507	539	
5	0	0	0	0	507	539	
6	0	0	0	0	508	534	
7	0	0	0	0	509	539	
8	0	0	0	0	509	539	
9	0	0	0	0	510	539	
10	0	0	0	0	510	543	
11	0	0	0	0	511	539	
12	0	0	0	0	512	539	
13	0	0	0	0	512	539	
14	0	0	0	0	513	534	
15	0	0	0	0	513	539	
0	0	0	0	0	512	538	
1	0	0	0	0	511	539	
2	0	0	0	0	510	543	
3	0	0	0	0	508	538	
4	0	0	0	0	506	538	
5	0	0	0	0	505	538	
6	0	0	0	0	504	533	
7	0	0	0	0	504	539	
8	0	0	0	0	504	539	
9	0	0	0	0	504	538	
10	0	0	0	0	504	543	
11	0	0	0	0	506	538	
12	0	0	0	0	508	538	
13	0	0	0	0	509	538	
14	0	0	0	0	510	533	
15	0	0	0	0	511	538	
0	0	0	0	0	512	539	
1	0	0	0	0	511	539	
2	0	0	0	0	511	542	
3	0	0	0	0	510	538	
4	0	0	0	0	510	538	
5	0	0	0	0	508	537	
6	0	0	0	0	506	533	
7	0	0	0	0	505	538	
8	0	0	0	0	504	538	
9	0	0	0	0	504	538	
10	0	0	0	0	504	542	
11	0	0	0	0	505	538	
12	0	0	0	0	506	539	
13	0	0	0	0	506	538	
14	0	0	0	0	507	534	
15	0	0	0	0	509	538	
0	0	0	0	0	510	539	
1	0	0	0	0	512	539	
2	0	0	0	0	512	543	
3	0	0	0	0	514	538	
4	0	0	0	0	514	538	
5	0	0	0	0	515	539	
6	0	0	0	0	515	534	
7	0	0	0	0	515	539	
8	0	0	0	0	515	539	
9	0	0	0	0	514	538	
10	0	0	0	0	513	543	
11	0	0	0	0	513	539	
12	0	0	0	0	512	538	
13	0	0	0	0	512	538	
14	0	0	0	0	511	534	
15	0	0	0	0	511	539	
0	0	0	0	0	512	537	
1	0	0	0	0	513	538	
2	0	0	0	0	513	542	
3	0	0	0	0	514	538	
4	0	0	0	0	515	538	
5	0	0	0	0	515	538	
6	0	0	0	0	516	534	
7	0	0	0	0	516	539	
8	0	0	0	0	517	539	
9	0	0	0	0	517	538	
10	0	0	0	0	516	543	
11	0	0	0	0	516	539	
12	0	0	0	0	515	538	
13	0	0	0	0	515	538	
14	0	0	0	0	514	533	
15	0	0	0	0	513	537	
0	0	0	0	0	512	539	
1	0	0	0	0	512	538	
2	0	0	0	0	512	543	
3	0	0	0	0	513	538	
4	0	0	0	0	513	538	
5	0	0	0	0	513	537	
6	0	0	0	0	514	533	
7	0	0	0	0	515	538	
8	0	0	0	0	516	538	
9	0	0	0	0	516	538	
10	0	0	0	0	516	543	
11	0	0	0	0	516	538	
12	0	0	0	0	515	538	
13	0	0	0	0	514	538	
14	0	0	0	0	513	532	
15	0	0	0	0	512	538	
0	0	0	0	0	511	538	
1	0	0	0	0	510	539	
2	0	0	0	0	508	543	
3	0	0	0	0	506	538	
4	0	0	0	0	504	539	
5	0	0	0	0	502	538	
6	0	0	0	0	500	533	
7	0	0	0	0	499	539	
8	0	0	0	0	498	538	
9	0	0	0	0	497	538	
10	0	0	0	0	495	542	
11	0	0	0	0	494	537	
12	0	0	0	0	494	537	
13	0	0	0	0	492	538	
14	0	0	0	0	492	533	
15	0	0	0	0	491	538	
0	0	0	0	0	491	538	
1	0	0	0	0	490	538	
2	0	0	0	0	488	542	
3	0	0	0	0	488	538	
4	0	0	0	0	486	538	
5	0	0	0	0	485	538	
6	0	0	0	0	483	532	
7	0	0	0	0	482	537	
8	0	0	0	0	479	537	
9	0	0	0	0	476	537	
10	0	0	0	0	475	542	
11	0	0	0	0	474	538	
12	0	0	0	0	472	538	
13	0	0	0	0	472	537	
14	0	0	0	0	472	532	
15	0	0	0	0	472	537	
0	0	0	0	0	472	537	
1	0	0	0	0	472	537	
2	0	0	0	0	472	542	
3	0	0	0	0	474	538	
4	0	0	0	0	474	537	
5	0	0	0	0	473	537	
6	0	0	0	0	472	532	
7	0	0	0	0	472	537	
8	0	0	0	0	472	537	
9	0	0	0	0	471	537	
10	0	0	0	0	470	542	
11	0	0	0	0	470	537	
12	0	0	0	0	470	537	
13	0	0	0	0	471	537	
14	0	0	0	0	471	532	
15	0	0	0	0	472	537	
0	0	0	0	0	472	537	
1	0	0	0	0	472	537	
2	0	0	0	0	473	541	
3	0	0	0	0	475	537	
4	0	0	0	0	477	537	
5	0	0	0	0	477	537	
6	0	0	0	0	478	533	
7	0	0	0	0	479	538	
8	0	0	0	0	480	537	
9	0	0	0	0	480	537	
10	0	0	0	0	480	542	
11	0	0	0	0	480	537	
12	0	0	0	0	479	538	
13	0	0	0	0	478	538	
14	0	0	0	0	477	532	
15	0	0	0	0	476	538	
0	0	0	0	0	476	538	
1	0	0	0	0	475	538	
2	0	0	0	0	476	542	
3	0	0	0	0	476	538	
4	0	0	0	0	477	537	
5	0	0	0	0	478	538	
6	0	0	0	0	479	532	
7	0	0	0	0	480	538	
8	0	0	0	0	481	537	
9	0	0	0	0	482	537	
10	0	0	0	0	483	542	
11	0	0	0	0	486	538	
12	0	0	0	0	486	537	
13	0	0	0	0	486	537	
14	0	0	0	0	486	533	
15	0	0	0	0	485	538	
0	0	0	0	0	485	537	
1	0	0	0	0	484	538	
2	0	0	0	0	484	542	
3	0	0	0	0	483	538	
4	0	0	0	0	482	538	
5	0	0	0	0	482	537	
6	0	0	0	0	481	532	
7	0	0	0	0	481	538	
8	0	0	0	0	481	538	
9	0	0	0	0	482	539	
10	0	0	0	0	482	542	
11	0	0	0	0	483	538	
12	0	0	0	0	484	538	
13	0	0	0	0	485	537	
14	0	0	0	0	487	533	
15	0	0	0	0	487	538	
0	0	0	0	0	488	537	
1	0	0	0	0	488	538	
2	0	0	0	0	488	542	
3	0	0	0	0	488	538	
4	0	0	0	0	488	537	
5	0	0	0	0	487	537	
6	0	0	0	0	487	532	
7	0	0	0	0	486	538	
8	0	0	0	0	484	538	
9	0	0	0	0	484	538	
10	0	0	0	0	483	542	
11	0	0	0	0	482	538	
12	0	0	0	0	482	538	
13	0	0	0	0	481	537	
14	0	0	0	0	482	532	
15	0	0	0	0	481	537	
0	0	0	0	0	482	538	
1	0	0	0	0	483	538	
2	0	0	0	0	483	542	
3	0	0	0	0	484	537	
4	0	0	0	0	483	537	
5	0	0	0	0	483	537	
6	0	0	0	0	483	533	
7	0	0	0	0	483	538	
8	0	0	0	0	482	538	
9	0	0	0	0	481	539	
10	0	0	0	0	481	542	
11	0	0	0	0	481	539	
12	0	0	0	0	480	538	
13	0	0	0	0	480	538	
14	0	0	0	0	480	533	
15	0	0	0	0	480	538	
0	0	0	0	0	481	538	
1	0	0	0	0	481	538	
2	0	0	0	0	482	542	
3	0	0	0	0	484	539	
4	0	0	0	0	485	539	
5	0	0	0	0	486	538	
6	0	0	0	0	487	534	
7	0	0	0	0	488	538	
8	0	0	0	0	488	538	
9	0	0	0	0	489	538	
10	0	0	0	0	490	543	
11	0	0	0	0	490	538	
12	0	0	0	0	491	538	
13	0	0	0	0	490	538	
14	0	0	0	0	489	533	
15	0	0	0	0	489	538	
0	0	0	0	0	489	538	
1	0	0	0	0	489	539	
2	0	0	0	0	488	543	
3	0	0	0	0	489	539	
4	0	0	0	0	489	539	
5	0	0	0	0	489	538	
6	0	0	0	0	491	534	
7	0	0	0	0	492	539	
8	0	0	0	0	492	538	
9	0	0	0	0	494	539	
10	0	0	0	0	496	543	
11	0	0	0	0	498	539	
12	0	0	0	0	499	538	
13	0	0	0	0	501	539	
14	0	0	0	0	502	534	
15	0	0	0	0	503	539	
0	0	0	0	0	504	539	
1	0	0	0	0	504	539	
2	0	0	0	0	503	543	
3	0	0	0	0	503	538	
4	0	0	0	0	503	539	
5	0	0	0	0	503	538	
6	0	0	0	0	503	533	
7	0	0	0	0	503	539	
8	0	0	0	0	502	539	
9	0	0	0	0	504	539	
10	0	0	0	0	504	543	
11	0	0	0	0	505	539	
12	0	0	0	0	507	539	
13	0	0	0	0	508	538	
14	0	0	0	0	510	534	
15	0	0	0	0	511	539	
0	0	0	0	0	512	539	
1	0	0	0	0	512	539	
2	0	0	0	0	513	543	
3	0	0	0	0	514	539	
4	0	0	0	0	514	539	
5	0	0	0	0	515	539	
6	0	0	0	0	515	535	
7	0	0	0	0	514	539	
8	0	0	0	0	514	540	
9	0	0	0	0	513	539	
10	0	0	0	0	513	543	
11	0	0	0	0	513	539	
12	0	0	0	0	514	540	
13	0	0	0	0	515	539	
14	0	0	0	0	517	534	
15	0	0	0	0	518	539	
0	0	0	0	0	519	538	
1	0	0	0	0	520	539	
2	0	0	0	0	522	542	
3	0	0	0	0	523	538	
4	0	0	0	0	524	539	
5	0	0	0	0	525	538	
6	0	0	0	0	525	534	
7	0	0	0	0	526	539	
8	0	0	0	0	527	539	
9	0	0	0	0	527	539	
10	0	0	0	0	527	543	
11	0	0	0	0	527	539	
12	0	0	0	0	527	539	
13	0	0	0	0	527	539	
14	0	0	0	0	528	534	
15	0	0	0	0	528	539	
0	0	0	0	0	529	539	
1	0	0	0	0	531	539	
2	0	0	0	0	533	543	
3	0	0	0	0	535	538	
4	0	0	0	0	537	538	
5	0	0	0	0	540	538	
6	0	0	0	0	542	534	
7	0	0	0	0	544	538	
8	0	0	0	0	545	538	
9	0	0	0	0	547	539	
10	0	0	0	0	548	543	
11	0	0	0	0	550	539	
12	0	0	0	0	550	538	
13	0	0	0	0	551	538	
14	0	0	0	0	552	533	
15	0	0	0	0	553	538	
0	0	0	0	0	553	538	
1	0	0	0	0	554	538	
2	0	0	0	0	554	543	
3	0	0	0	0	555	539	
4	0	0	0	0	556	538	
5	0	0	0	0	556	538	
6	0	0	0	0	558	533	
7	0	0	0	0	560	538	
8	0	0	0	0	562	537	
9	0	0	0	0	564	538	
10	0	0	0	0	565	543	
11	0	0	0	0	567	538	
12	0	0	0	0	567	537	
13	0	0	0	0	566	537	
14	0	0	0	0	565	533	
15	0	0	0	0	563	539	
0	0	0	0	0	560	539	
1	0	0	0	0	557	539	
2	0	0	0	0	553	543	
3	0	0	0	0	549	539	
4	0	0	0	0	544	538	
5	0	0	0	0	542	538	
6	0	0	0	0	540	534	
7	0	0	0	0	539	539	
8	0	0	0	0	538	538	
9	0	0	0	0	538	538	
10	0	0	0	0	537	543	
11	0	0	0	0	539	538	
12	0	0	0	0	543	538	
13	0	0	0	0	549	538	
14	0	0	0	0	557	533	
15	0	0	0	0	568	538	
0	0	0	0	0	580	538	
1	0	0	0	0	593	539	
2	0	0	0	0	607	543	
3	0	0	0	0	619	539	
4	0	0	0	0	631	538	
5	0	0	0	0	642	539	
6	0	0	0	0	656	534	
7	0	0	0	0	671	539	
8	0	0	0	0	686	539	
9	0	0	0	0	699	539	
10	0	0	0	0	710	543	
11	0	0	0	0	719	538	
12	0	0	0	0	728	538	
13	0	0	0	0	732	538	
14	0	0	0	0	731	533	
15	0	0	0	0	726	538	
0	0	0	0	0	719	539	
1	0	0	0	0	706	539	
2	0	0	0	0	692	543	
3	0	0	0	0	675	538	
4	0	0	0	0	658	538	
5	0	0	0	0	647	539	
6	0	0	0	0	640	534	
7	0	0	0	0	638	539	
8	0	0	0	0	638	539	
9	0	0	0	0	640	539	
10	0	0	0	0	644	543	
11	0	0	0	0	647	539	
12	0	0	0	0	649	539	
13	0	0	0	0	650	539	
14	0	0	0	0	650	534	
15	0	0	0	0	648	540	
0	0	0	0	0	646	539	
1	0	0	0	0	641	539	
2	0	0	0	0	637	543	
3	0	0	0	0	631	540	
4	0	0	0	0	625	539	
5	0	0	0	0	619	539	
6	0	0	0	0	613	534	
7	0	0	0	0	607	539	
8	0	0	0	0	600	539	
9	0	0	0	0	593	539	
10	0	0	0	0	586	543	
11	0	0	0	0	581	539	
12	0	0	0	0	575	539	
13	0	0	0	0	569	539	
14	0	0	0	0	564	534	
15	0	0	0	0	559	540	
0	0	0	0	0	553	539	
1	0	0	0	0	549	539	
2	0	0	0	0	546	543	
3	0	0	0	0	544	539	
4	0	0	0	0	542	539	
5	0	0	0	0	540	539	
6	0	0	0	0	540	533	
7	0	0	0	0	540	539	
8	0	0	0	0	541	539	
9	0	0	0	0	542	539	
10	0	0	0	0	543	543	
11	0	0	0	0	544	539	
12	0	0	0	0	544	539	
13	0	0	0	0	544	538	
14	0	0	0	0	544	534	
15	0	0	0	0	544	539	
0	0	0	0	0	544	538	
1	0	0	0	0	543	539	
2	0	0	0	0	543	543	
3	0	0	0	0	542	539	
4	0	0	0	0	542	539	
5	0	0	0	0	542	539	
6	0	0	0	0	542	534	
7	0	0	0	0	542	539	
8	0	0	0	0	541	539	
9	0	0	0	0	541	540	
10	0	0	0	0	541	543	
11	0	0	0	0	541	540	
12	0	0	0	0	541	540	
13	0	0	0	0	540	539	
14	0	0	0	0	540	535	
15	0	0	0	0	539	539	
0	0	0	0	0	538	539	
1	0	0	0	0	536	540	
2	0	0	0	0	536	543	
3	0	0	0	0	536	540	
4	0	0	0	0	535	540	
5	0	0	0	0	535	539	
6	0	0	0	0	534	535	
7	0	0	0	0	533	538	
8	0	0	0	0	532	539	
9	0	0	0	0	531	539	
10	0	0	0	0	531	543	
11	0	0	0	0	531	540	
12	0	0	0	0	532	540	
13	0	0	0	0	532	539	
14	0	0	0	0	533	535	
15	0	0	0	0	534	539	
0	0	0	0	0	534	539	
1	0	0	0	0	535	540	
2	0	0	0	0	535	543	
3	0	0	0	0	536	539	
4	0	0	0	0	537	539	
5	0	0	0	0	537	539	
6	0	0	0	0	536	535	
7	0	0	0	0	535	540	
8	0	0	0	0	534	539	
9	0	0	0	0	534	540	
10	0	0	0	0	532	543	
11	0	0	0	0	532	539	
12	0	0	0	0	532	539	
13	0	0	0	0	531	539	
14	0	0	0	0	531	535	
15	0	0	0	0	532	539	
0	0	0	0	0	532	539	
1	0	0	0	0	531	538	
2	0	0	0	0	532	543	
3	0	0	0	0	533	538	
4	0	0	0	0	534	538	
5	0	0	0	0	535	538	
6	0	0	0	0	536	534	
7	0	0	0	0	536	539	
8	0	0	0	0	536	538	
9	0	0	0	0	536	539	
10	0	0	0	0	536	543	
11	0	0	0	0	537	538	
12	0	0	0	0	538	539	
13	0	0	0	0	538	539	
14	0	0	0	0	537	534	
15	0	0	0	0	536	538	
0	0	0	0	0	536	538	
1	0	0	0	0	536	538	
2	0	0	0	0	536	543	
3	0	0	0	0	536	539	
4	0	0	0	0	536	539	
5	0	0	0	0	536	538	
6	0	0	0	0	537	533	
7	0	0	0	0	538	537	
8	0	0	0	0	538	538	
9	0	0	0	0	539	539	
10	0	0	0	0	540	542	
11	0	0	0	0	542	538	
12	0	0	0	0	543	538	
13	0	0	0	0	543	538	
14	0	0	0	0	544	533	
15	0	0	0	0	544	538	
0	0	0	0	0	544	538	
1	0	0	0	0	544	539	
2	0	0	0	0	545	543	
3	0	0	0	0	545	538	
4	0	0	0	0	545	538	
5	0	0	0	0	544	538	
6	0	0	0	0	545	533	
7	0	0	0	0	546	538	
8	0	0	0	0	547	538	
9	0	0	0	0	547	539	
10	0	0	0	0	549	542	
11	0	0	0	0	550	537	
12	0	0	0	0	551	538	
13	0	0	0	0	552	537	
14	0	0	0	0	554	533	
15	0	0	0	0	555	538	
0	0	0	0	0	556	538	
1	0	0	0	0	556	538	
2	0	0	0	0	556	542	
3	0	0	0	0	556	538	
4	0	0	0	0	556	537	
5	0	0	0	0	555	537	
6	0	0	0	0	555	532	
7	0	0	0	0	554	537	
8	0	0	0	0	553	538	
9	0	0	0	0	553	538	
10	0	0	0	0	553	542	
11	0	0	0	0	553	537	
12	0	0	0	0	553	538	
13	0	0	0	0	553	537	
14	0	0	0	0	553	533	
15	0	0	0	0	554	537	
0	0	0	0	0	553	538	
1	0	0	0	0	554	538	
2	0	0	0	0	555	543	
3	0	0	0	0	556	538	
4	0	0	0	0	556	537	
5	0	0	0	0	556	537	
6	0	0	0	0	556	533	
7	0	0	0	0	557	537	
8	0	0	0	0	557	537	
9	0	0	0	0	557	537	
10	0	0	0	0	557	542	
11	0	0	0	0	557	538	
12	0	0	0	0	555	537	
13	0	0	0	0	555	537	
14	0	0	0	0	554	532	
15	0	0	0	0	554	537	
0	0	0	0	0	553	537	
1	0	0	0	0	554	537	
2	0	0	0	0	556	542	
3	0	0	0	0	557	537	
4	0	0	0	0	558	538	
5	0	0	0	0	558	537	
6	0	0	0	0	558	532	
7	0	0	0	0	558	537	
8	0	0	0	0	558	537	
9	0	0	0	0	557	537	
10	0	0	0	0	556	542	
11	0	0	0	0	556	537	
12	0	0	0	0	555	538	
13	0	0	0	0	554	537	
14	0	0	0	0	554	533	
15	0	0	0	0	552	537	
0	0	0	0	0	551	538	
1	0	0	0	0	550	538	
2	0	0	0	0	550	542	
3	0	0	0	0	549	537	
4	0	0	0	0	548	537	
5	0	0	0	0	549	537	
6	0	0	0	0	548	532	
7	0	0	0	0	549	537	
8	0	0	0	0	549	538	
9	0	0	0	0	549	538	
10	0	0	0	0	550	542	
11	0	0	0	0	550	537	
12	0	0	0	0	550	538	
13	0	0	0	0	550	537	
14	0	0	0	0	549	532	
15	0	0	0	0	548	537	
0	0	0	0	0	548	537	
1	0	0	0	0	547	537	
2	0	0	0	0	545	541	
3	0	0	0	0	544	537	
4	0	0	0	0	543	537	
5	0	0	0	0	543	537	
6	0	0	0	0	542	533	
7	0	0	0	0	542	537	
8	0	0	0	0	542	537	
9	0	0	0	0	542	537	
10	0	0	0	0	541	542	
11	0	0	0	0	542	537	
12	0	0	0	0	542	537	
13	0	0	0	0	542	537	
14	0	0	0	0	543	532	
15	0	0	0	0	543	538	
0	0	0	0	0	544	537	
1	0	0	0	0	544	537	
2	0	0	0	0	543	542	
3	0	0	0	0	543	537	
4	0	0	0	0	543	537	
5	0	0	0	0	542	537	
6	0	0	0	0	542	532	
7	0	0	0	0	543	538	
8	0	0	0	0	543	538	
9	0	0	0	0	543	538	
10	0	0	0	0	543	542	
11	0	0	0	0	544	538	
12	0	0	0	0	544	539	
13	0	0	0	0	544	538	
14	0	0	0	0	544	534	
15	0	0	0	0	544	539	
0	0	0	0	0	545	539	
1	0	0	0	0	545	539	
2	0	0	0	0	545	542	
3	0	0	0	0	546	539	
4	0	0	0	0	545	538	
5	0	0	0	0	545	537	
6	0	0	0	0	544	533	
7	0	0	0	0	544	538	
8	0	0	0	0	544	538	
9	0	0	0	0	544	538	
10	0	0	0	0	543	542	
11	0	0	0	0	543	537	
12	0	0	0	0	541	538	
13	0	0	0	0	540	538	
14	0	0	0	0	539	534	
15	0	0	0	0	539	538	
0	0	0	0	0	539	539	
1	0	0	0	0	539	539	
2	0	0	0	0	540	543	
3	0	0	0	0	541	538	
4	0	0	0	0	543	538	
5	0	0	0	0	545	538	
6	0	0	0	0	547	533	
7	0	0	0	0	548	539	
8	0	0	0	0	550	538	
9	0	0	0	0	550	538	
10	0	0	0	0	550	543	
11	0	0	0	0	551	538	
12	0	0	0	0	551	538	
13	0	0	0	0	551	538	
14	0	0	0	0	551	533	
15	0	0	0	0	551	538	
0	0	0	0	0	551	539	
1	0	0	0	0	550	538	
2	0	0	0	0	550	542	
3	0	0	0	0	550	538	
4	0	0	0	0	551	538	
5	0	0	0	0	550	537	
6	0	0	0	0	551	533	
7	0	0	0	0	551	539	
8	0	0	0	0	552	539	
9	0	0	0	0	553	539	
10	0	0	0	0	554	543	
11	0	0	0	0	554	539	
12	0	0	0	0	555	538	
13	0	0	0	0	554	537	
14	0	0	0	0	554	533	
15	0	0	0	0	555	538	
0	0	0	0	0	555	538	
1	0	0	0	0	555	538	
2	0	0	0	0	554	542	
3	0	0	0	0	555	539	
4	0	0	0	0	554	538	
5	0	0	0	0	553	538	
6	0	0	0	0	552	534	
7	0	0	0	0	551	539	
8	0	0	0	0	551	539	
9	0	0	0	0	551	539	
10	0	0	0	0	552	543	
11	0	0	0	0	553	539	
12	0	0	0	0	553	538	
13	0	0	0	0	555	538	
14	0	0	0	0	556	534	
15	0	0	0	0	556	538	
0	0	0	0	0	557	538	
1	0	0	0	0	556	538	
2	0	0	0	0	556	543	
3	0	0	0	0	556	538	
4	0	0	0	0	555	538	
5	0	0	0	0	553	538	
6	0	0	0	0	552	533	
7	0	0	0	0	551	538	
8	0	0	0	0	551	538	
9	0	0	0	0	550	538	
10	0	0	0	0	550	543	
11	0	0	0	0	549	538	
12	0	0	0	0	549	538	
13	0	0	0	0	548	538	
14	0	0	0	0	547	534	
15	0	0	0	0	547	539	
0	0	0	0	0	547	539	
1	0	0	0	0	546	538	
2	0	0	0	0	546	542	
3	0	0	0	0	545	538	
4	0	0	0	0	544	538	
5	0	0	0	0	544	539	
6	0	0	0	0	543	534	
7	0	0	0	0	542	539	
8	0	0	0	0	541	539	
9	0	0	0	0	540	539	
10	0	0	0	0	539	543	
11	0	0	0	0	539	539	
12	0	0	0	0	537	539	
13	0	0	0	0	536	539	
14	0	0	0	0	535	534	
15	0	0	0	0	534	539	
0	0	0	0	0	534	539	
1	0	0	0	0	532	539	
2	0	0	0	0	531	543	
3	0	0	0	0	530	539	
4	0	0	0	0	529	539	
5	0	0	0	0	528	539	
6	0	0	0	0	527	534	
7	0	0	0	0	527	539	
8	0	0	0	0	527	539	
9	0	0	0	0	526	539	
10	0	0	0	0	525	543	
11	0	0	0	0	525	538	
12	0	0	0	0	524	539	
13	0	0	0	0	523	538	
14	0	0	0	0	523	534	
15	0	0	0	0	522	539	
0	0	0	0	0	521	539	
1	0	0	0	0	521	539	
2	0	0	0	0	520	543	
3	0	0	0	0	520	538	
4	0	0	0	0	519	539	
5	0	0	0	0	519	539	
6	0	0	0	0	519	534	
7	0	0	0	0	520	539	
8	0	0	0	0	520	539	
9	0	0	0	0	519	540	
10	0	0	0	0	519	543	
11	0	0	0	0	518	539	
12	0	0	0	0	517	539	
13	0	0	0	0	516	538	
14	0	0	0	0	515	534	
15	0	0	0	0	514	539	
0	0	0	0	0	513	539	
1	0	0	0	0	511	539	
2	0	0	0	0	510	543	
3	0	0	0	0	508	539	
4	0	0	0	0	507	539	
5	0	0	0	0	505	538	
6	0	0	0	0	504	534	
7	0	0	0	0	504	539	
8	0	0	0	0	503	539	
9	0	0	0	0	503	539	
10	0	0	0	0	503	543	
11	0	0	0	0	503	539	
12	0	0	0	0	503	538	
13	0	0	0	0	504	538	
14	0	0	0	0	504	534	
15	0	0	0	0	505	538	
0	0	0	0	0	504	538	
1	0	0	0	0	503	539	
2	0	0	0	0	502	543	
3	0	0	0	0	501	539	
4	0	0	0	0	500	539	
5	0	0	0	0	499	539	
6	0	0	0	0	497	534	
7	0	0	0	0	496	539	
8	0	0	0	0	495	539	
9	0	0	0	0	495	539	
10	0	0	0	0	494	543	
11	0	0	0	0	494	539	
12	0	0	0	0	494	539	
13	0	0	0	0	494	539	
14	0	0	0	0	494	534	
15	0	0	0	0	495	539	
0	0	0	0	0	496	539	
1	0	0	0	0	497	539	
2	0	0	0	0	498	543	
3	0	0	0	0	500	539	
4	0	0	0	0	500	539	
5	0	0	0	0	501	539	
6	0	0	0	0	501	534	
7	0	0	0	0	501	539	
8	0	0	0	0	501	539	
9	0	0	0	0	500	540	
10	0	0	0	0	499	543	
11	0	0	0	0	498	539	
12	0	0	0	0	497	539	
13	0	0	0	0	496	539	
14	0	0	0	0	496	535	
15	0	0	0	0	495	539	
0	0	0	0	0	495	539	
1	0	0	0	0	495	539	
2	0	0	0	0	496	543	
3	0	0	0	0	497	539	
4	0	0	0	0	498	538	
5	0	0	0	0	499	539	
6	0	0	0	0	499	535	
7	0	0	0	0	500	539	
8	0	0	0	0	500	539	
9	0	0	0	0	500	539	
10	0	0	0	0	500	543	
11	0	0	0	0	501	539	
12	0	0	0	0	500	540	
13	0	0	0	0	501	540	
14	0	0	0	0	501	535	
15	0	0	0	0	501	539	
0	0	0	0	0	501	539	
1	0	0	0	0	502	539	
2	0	0	0	0	503	544	
3	0	0	0	0	504	539	
4	0	0	0	0	504	539	
5	0	0	0	0	505	539	
6	0	0	0	0	506	534	
7	0	0	0	0	508	539	
8	0	0	0	0	510	539	
9	0	0	0	0	512	540	
10	0	0	0	0	513	544	
11	0	0	0	0	513	539	
12	0	0	0	0	514	539	
13	0	0	0	0	514	539	
14	0	0	0	0	515	534	
15	0	0	0	0	515	539	
0	0	0	0	0	515	540	
1	0	0	0	0	514	540	
2	0	0	0	0	513	544	
3	0	0	0	0	513	539	
4	0	0	0	0	512	539	
5	0	0	0	0	512	539	
6	0	0	0	0	511	534	
7	0	0	0	0	511	539	
8	0	0	0	0	512	539	
9	0	0	0	0	512	539	
10	0	0	0	0	512	543	
11	0	0	0	0	513	539	
12	0	0	0	0	513	539	
13	0	0	0	0	513	538	
14	0	0	0	0	513	534	
15	0	0	0	0	513	539	
0	0	0	0	0	512	539	
1	0	0	0	0	512	539	
2	0	0	0	0	511	543	
3	0	0	0	0	511	539	
4	0	0	0	0	510	539	
5	0	0	0	0	508	538	
6	0	0	0	0	507	533	
7	0	0	0	0	506	538	
8	0	0	0	0	505	539	
9	0	0	0	0	504	539	
10	0	0	0	0	503	543	
11	0	0	0	0	502	538	
12	0	0	0	0	501	539	
13	0	0	0	0	501	539	
14	0	0	0	0	500	534	
15	0	0	0	0	500	538	
0	0	0	0	0	500	538	
1	0	0	0	0	500	539	
2	0	0	0	0	500	542	
3	0	0	0	0	500	539	
