# OpenSignals Text File Format. Version 1
# {"98:D3:91:FD:69:48": {"position": 0, "device": "bitalino_rev", "device name": "98:D3:91:FD:69:48", "device connection": "BTH98:D3:91:FD:69:48", "sampling rate": 1000, "resolution": [4, 1, 1, 1, 1, 10, 10], "firmware version": 1281, "comments": "", "keywords": "", "mode": 0, "sync interval": 2, "date": "2021-9-3", "time": "22:59:26.233", "channels": [2, 5], "sensor": ["RAW", "RAW"], "label": ["A2", "A5"], "column": ["nSeq", "I1", "I2", "O1", "O2", "A2", "A5"], "special": [{}, {}], "digital IO": [0, 0, 1, 1], "convertedValues": 0}}
# EndOfHeader
0	0	0	0	0	524	614	
1	0	0	0	0	521	617	
2	0	0	0	0	519	613	
3	0	0	0	0	517	613	
4	0	0	0	0	515	614	
5	0	0	0	0	514	609	
6	0	0	0	0	512	613	
7	0	0	0	0	511	613	
8	0	0	0	0	510	614	
9	0	0	0	0	510	617	
10	0	0	0	0	508	613	
11	0	0	0	0	508	613	
12	0	0	0	0	507	613	
13	0	0	0	0	506	608	
14	0	0	0	0	505	613	
15	0	0	0	0	504	613	
0	0	0	0	0	503	612	
1	0	0	0	0	502	617	
2	0	0	0	0	502	612	
3	0	0	0	0	502	612	
4	0	0	0	0	502	612	
5	0	0	0	0	501	607	
6	0	0	0	0	502	612	
7	0	0	0	0	501	612	
8	0	0	0	0	501	612	
9	0	0	0	0	501	616	
10	0	0	0	0	502	612	
11	0	0	0	0	501	612	
12	0	0	0	0	500	612	
13	0	0	0	0	499	608	
14	0	0	0	0	499	612	
15	0	0	0	0	497	612	
0	0	0	0	0	496	612	
1	0	0	0	0	496	616	
2	0	0	0	0	497	612	
3	0	0	0	0	497	612	
4	0	0	0	0	498	611	
5	0	0	0	0	498	608	
6	0	0	0	0	499	612	
7	0	0	0	0	499	612	
8	0	0	0	0	500	612	
9	0	0	0	0	501	616	
10	0	0	0	0	502	613	
11	0	0	0	0	502	612	
12	0	0	0	0	502	613	
13	0	0	0	0	503	608	
14	0	0	0	0	502	612	
15	0	0	0	0	502	613	
0	0	0	0	0	502	613	
1	0	0	0	0	502	617	
2	0	0	0	0	502	613	
3	0	0	0	0	502	613	
4	0	0	0	0	501	613	
5	0	0	0	0	501	609	
6	0	0	0	0	500	614	
7	0	0	0	0	500	613	
8	0	0	0	0	500	613	
9	0	0	0	0	500	617	
10	0	0	0	0	500	613	
11	0	0	0	0	500	614	
12	0	0	0	0	501	614	
13	0	0	0	0	501	609	
14	0	0	0	0	501	614	
15	0	0	0	0	501	614	
0	0	0	0	0	501	614	
1	0	0	0	0	501	618	
2	0	0	0	0	502	614	
3	0	0	0	0	501	614	
4	0	0	0	0	502	614	
5	0	0	0	0	502	609	
6	0	0	0	0	502	614	
7	0	0	0	0	502	615	
8	0	0	0	0	502	615	
9	0	0	0	0	502	619	
10	0	0	0	0	503	615	
11	0	0	0	0	503	614	
12	0	0	0	0	503	613	
13	0	0	0	0	502	609	
14	0	0	0	0	503	614	
15	0	0	0	0	502	615	
0	0	0	0	0	502	614	
1	0	0	0	0	502	618	
2	0	0	0	0	503	614	
3	0	0	0	0	503	614	
4	0	0	0	0	503	614	
5	0	0	0	0	502	609	
6	0	0	0	0	503	614	
7	0	0	0	0	503	614	
8	0	0	0	0	503	615	
9	0	0	0	0	503	618	
10	0	0	0	0	503	614	
11	0	0	0	0	504	614	
12	0	0	0	0	505	613	
13	0	0	0	0	505	609	
14	0	0	0	0	505	614	
15	0	0	0	0	504	614	
0	0	0	0	0	504	613	
1	0	0	0	0	504	618	
2	0	0	0	0	504	613	
3	0	0	0	0	505	614	
4	0	0	0	0	504	613	
5	0	0	0	0	504	608	
6	0	0	0	0	504	613	
7	0	0	0	0	505	613	
8	0	0	0	0	505	612	
9	0	0	0	0	505	617	
10	0	0	0	0	506	613	
11	0	0	0	0	506	613	
12	0	0	0	0	507	613	
13	0	0	0	0	507	608	
14	0	0	0	0	506	613	
15	0	0	0	0	506	614	
0	0	0	0	0	506	614	
1	0	0	0	0	505	618	
2	0	0	0	0	506	613	
3	0	0	0	0	505	614	
4	0	0	0	0	505	614	
5	0	0	0	0	504	609	
6	0	0	0	0	504	613	
7	0	0	0	0	504	614	
8	0	0	0	0	504	614	
9	0	0	0	0	504	618	
10	0	0	0	0	504	614	
11	0	0	0	0	504	613	
12	0	0	0	0	505	613	
13	0	0	0	0	506	608	
14	0	0	0	0	507	613	
15	0	0	0	0	508	613	
0	0	0	0	0	510	613	
1	0	0	0	0	511	617	
2	0	0	0	0	512	613	
3	0	0	0	0	512	613	
4	0	0	0	0	512	613	
5	0	0	0	0	513	608	
6	0	0	0	0	513	614	
7	0	0	0	0	513	613	
8	0	0	0	0	513	614	
9	0	0	0	0	514	617	
10	0	0	0	0	514	614	
11	0	0	0	0	514	613	
12	0	0	0	0	514	613	
13	0	0	0	0	514	608	
14	0	0	0	0	514	613	
15	0	0	0	0	514	613	
0	0	0	0	0	514	614	
1	0	0	0	0	514	617	
2	0	0	0	0	514	613	
3	0	0	0	0	514	613	
4	0	0	0	0	514	612	
5	0	0	0	0	515	608	
6	0	0	0	0	516	613	
7	0	0	0	0	516	613	
8	0	0	0	0	516	613	
9	0	0	0	0	516	617	
10	0	0	0	0	516	613	
11	0	0	0	0	516	612	
12	0	0	0	0	516	612	
13	0	0	0	0	515	608	
14	0	0	0	0	515	612	
15	0	0	0	0	514	612	
0	0	0	0	0	514	612	
1	0	0	0	0	513	616	
2	0	0	0	0	512	612	
3	0	0	0	0	512	613	
4	0	0	0	0	512	612	
5	0	0	0	0	512	608	
6	0	0	0	0	512	612	
7	0	0	0	0	512	613	
8	0	0	0	0	513	613	
9	0	0	0	0	513	617	
10	0	0	0	0	513	613	
11	0	0	0	0	513	613	
12	0	0	0	0	514	613	
13	0	0	0	0	515	609	
14	0	0	0	0	515	614	
15	0	0	0	0	515	613	
0	0	0	0	0	515	612	
1	0	0	0	0	515	618	
2	0	0	0	0	516	612	
3	0	0	0	0	516	614	
4	0	0	0	0	517	613	
5	0	0	0	0	518	608	
6	0	0	0	0	519	613	
7	0	0	0	0	519	613	
8	0	0	0	0	520	614	
9	0	0	0	0	520	618	
10	0	0	0	0	520	613	
11	0	0	0	0	520	614	
12	0	0	0	0	520	613	
13	0	0	0	0	522	609	
14	0	0	0	0	522	614	
15	0	0	0	0	522	614	
0	0	0	0	0	523	614	
1	0	0	0	0	524	618	
2	0	0	0	0	526	614	
3	0	0	0	0	527	614	
4	0	0	0	0	528	614	
5	0	0	0	0	529	609	
6	0	0	0	0	530	613	
7	0	0	0	0	529	614	
8	0	0	0	0	529	614	
9	0	0	0	0	529	618	
10	0	0	0	0	529	614	
11	0	0	0	0	529	614	
12	0	0	0	0	528	614	
13	0	0	0	0	528	609	
14	0	0	0	0	529	614	
15	0	0	0	0	528	614	
0	0	0	0	0	528	615	
1	0	0	0	0	528	619	
2	0	0	0	0	528	614	
3	0	0	0	0	528	614	
4	0	0	0	0	527	614	
5	0	0	0	0	527	609	
6	0	0	0	0	527	614	
7	0	0	0	0	526	614	
8	0	0	0	0	526	614	
9	0	0	0	0	525	618	
10	0	0	0	0	524	613	
11	0	0	0	0	524	614	
12	0	0	0	0	523	613	
13	0	0	0	0	523	610	
14	0	0	0	0	523	614	
15	0	0	0	0	523	615	
0	0	0	0	0	523	615	
1	0	0	0	0	524	618	
2	0	0	0	0	523	614	
3	0	0	0	0	522	614	
4	0	0	0	0	521	613	
5	0	0	0	0	521	609	
6	0	0	0	0	521	614	
7	0	0	0	0	520	613	
8	0	0	0	0	519	614	
9	0	0	0	0	519	618	
10	0	0	0	0	519	614	
11	0	0	0	0	518	614	
12	0	0	0	0	518	614	
13	0	0	0	0	517	609	
14	0	0	0	0	517	614	
15	0	0	0	0	516	615	
0	0	0	0	0	515	614	
1	0	0	0	0	515	618	
2	0	0	0	0	515	615	
3	0	0	0	0	514	615	
4	0	0	0	0	513	615	
5	0	0	0	0	512	610	
6	0	0	0	0	511	615	
7	0	0	0	0	509	615	
8	0	0	0	0	507	615	
9	0	0	0	0	506	619	
10	0	0	0	0	505	615	
11	0	0	0	0	504	615	
12	0	0	0	0	504	615	
13	0	0	0	0	503	610	
14	0	0	0	0	502	615	
15	0	0	0	0	502	615	
0	0	0	0	0	502	615	
1	0	0	0	0	501	619	
2	0	0	0	0	501	615	
3	0	0	0	0	500	614	
4	0	0	0	0	499	615	
5	0	0	0	0	499	610	
6	0	0	0	0	499	615	
7	0	0	0	0	498	615	
8	0	0	0	0	498	615	
9	0	0	0	0	497	618	
10	0	0	0	0	497	615	
11	0	0	0	0	497	614	
12	0	0	0	0	497	614	
13	0	0	0	0	496	610	
14	0	0	0	0	496	614	
15	0	0	0	0	496	613	
0	0	0	0	0	496	614	
1	0	0	0	0	496	619	
2	0	0	0	0	496	615	
3	0	0	0	0	496	614	
4	0	0	0	0	496	614	
5	0	0	0	0	496	610	
6	0	0	0	0	495	614	
7	0	0	0	0	495	614	
8	0	0	0	0	494	615	
9	0	0	0	0	494	617	
10	0	0	0	0	494	613	
11	0	0	0	0	493	613	
12	0	0	0	0	494	613	
13	0	0	0	0	493	609	
14	0	0	0	0	492	613	
15	0	0	0	0	492	613	
0	0	0	0	0	492	613	
1	0	0	0	0	492	617	
2	0	0	0	0	492	613	
3	0	0	0	0	492	613	
4	0	0	0	0	493	614	
5	0	0	0	0	494	608	
6	0	0	0	0	495	614	
7	0	0	0	0	496	614	
8	0	0	0	0	495	614	
9	0	0	0	0	494	618	
10	0	0	0	0	495	614	
11	0	0	0	0	495	614	
12	0	0	0	0	494	613	
13	0	0	0	0	494	609	
14	0	0	0	0	495	613	
15	0	0	0	0	495	613	
0	0	0	0	0	495	613	
1	0	0	0	0	495	617	
2	0	0	0	0	495	613	
3	0	0	0	0	494	613	
4	0	0	0	0	495	613	
5	0	0	0	0	496	609	
6	0	0	0	0	496	613	
7	0	0	0	0	496	613	
8	0	0	0	0	497	614	
9	0	0	0	0	496	618	
10	0	0	0	0	497	614	
11	0	0	0	0	496	614	
12	0	0	0	0	496	613	
13	0	0	0	0	497	608	
14	0	0	0	0	496	612	
15	0	0	0	0	496	613	
0	0	0	0	0	496	613	
1	0	0	0	0	496	617	
2	0	0	0	0	496	613	
3	0	0	0	0	496	613	
4	0	0	0	0	497	614	
5	0	0	0	0	497	608	
6	0	0	0	0	498	613	
7	0	0	0	0	499	614	
8	0	0	0	0	500	614	
9	0	0	0	0	501	618	
10	0	0	0	0	502	614	
11	0	0	0	0	503	614	
12	0	0	0	0	503	614	
13	0	0	0	0	502	608	
14	0	0	0	0	502	613	
15	0	0	0	0	502	614	
0	0	0	0	0	501	614	
1	0	0	0	0	500	617	
2	0	0	0	0	500	613	
3	0	0	0	0	500	614	
4	0	0	0	0	500	613	
5	0	0	0	0	500	609	
6	0	0	0	0	501	614	
7	0	0	0	0	501	614	
8	0	0	0	0	501	613	
9	0	0	0	0	502	617	
10	0	0	0	0	502	612	
11	0	0	0	0	502	612	
12	0	0	0	0	503	612	
13	0	0	0	0	503	609	
14	0	0	0	0	504	613	
15	0	0	0	0	504	613	
0	0	0	0	0	504	614	
1	0	0	0	0	505	617	
2	0	0	0	0	505	613	
3	0	0	0	0	505	613	
4	0	0	0	0	505	613	
5	0	0	0	0	506	609	
6	0	0	0	0	506	613	
7	0	0	0	0	507	614	
8	0	0	0	0	507	613	
9	0	0	0	0	507	617	
10	0	0	0	0	508	613	
11	0	0	0	0	508	613	
12	0	0	0	0	507	612	
13	0	0	0	0	507	608	
14	0	0	0	0	506	614	
15	0	0	0	0	505	614	
0	0	0	0	0	505	613	
1	0	0	0	0	505	617	
2	0	0	0	0	505	613	
3	0	0	0	0	504	614	
4	0	0	0	0	505	614	
5	0	0	0	0	505	609	
6	0	0	0	0	505	614	
7	0	0	0	0	505	614	
8	0	0	0	0	505	614	
9	0	0	0	0	505	618	
10	0	0	0	0	504	614	
11	0	0	0	0	504	614	
12	0	0	0	0	504	614	
13	0	0	0	0	505	609	
14	0	0	0	0	505	614	
15	0	0	0	0	504	613	
0	0	0	0	0	504	614	
1	0	0	0	0	504	617	
2	0	0	0	0	505	614	
3	0	0	0	0	506	614	
4	0	0	0	0	507	614	
5	0	0	0	0	508	609	
6	0	0	0	0	510	614	
7	0	0	0	0	511	614	
8	0	0	0	0	512	614	
9	0	0	0	0	512	618	
10	0	0	0	0	513	614	
11	0	0	0	0	513	614	
12	0	0	0	0	514	614	
13	0	0	0	0	514	610	
14	0	0	0	0	513	614	
15	0	0	0	0	514	614	
0	0	0	0	0	513	615	
1	0	0	0	0	512	618	
2	0	0	0	0	512	615	
3	0	0	0	0	511	614	
4	0	0	0	0	511	614	
5	0	0	0	0	510	610	
6	0	0	0	0	511	615	
7	0	0	0	0	511	614	
8	0	0	0	0	511	614	
9	0	0	0	0	511	618	
10	0	0	0	0	511	614	
11	0	0	0	0	511	614	
12	0	0	0	0	510	614	
13	0	0	0	0	510	609	
14	0	0	0	0	511	614	
15	0	0	0	0	511	614	
0	0	0	0	0	511	614	
1	0	0	0	0	512	618	
2	0	0	0	0	512	615	
3	0	0	0	0	512	614	
4	0	0	0	0	512	614	
5	0	0	0	0	511	609	
6	0	0	0	0	511	614	
7	0	0	0	0	511	615	
8	0	0	0	0	511	615	
9	0	0	0	0	511	619	
10	0	0	0	0	512	614	
11	0	0	0	0	513	614	
12	0	0	0	0	513	614	
13	0	0	0	0	513	610	
14	0	0	0	0	514	615	
15	0	0	0	0	515	615	
0	0	0	0	0	516	615	
1	0	0	0	0	516	619	
2	0	0	0	0	517	615	
3	0	0	0	0	516	615	
4	0	0	0	0	516	615	
5	0	0	0	0	515	610	
6	0	0	0	0	515	615	
7	0	0	0	0	515	615	
8	0	0	0	0	514	615	
9	0	0	0	0	513	618	
10	0	0	0	0	513	615	
11	0	0	0	0	513	615	
12	0	0	0	0	512	615	
13	0	0	0	0	512	610	
14	0	0	0	0	511	615	
15	0	0	0	0	511	615	
0	0	0	0	0	510	615	
1	0	0	0	0	510	619	
2	0	0	0	0	509	614	
3	0	0	0	0	510	615	
4	0	0	0	0	510	615	
5	0	0	0	0	511	610	
6	0	0	0	0	512	615	
7	0	0	0	0	512	614	
8	0	0	0	0	514	615	
9	0	0	0	0	514	618	
10	0	0	0	0	514	614	
11	0	0	0	0	515	614	
12	0	0	0	0	515	614	
13	0	0	0	0	514	609	
14	0	0	0	0	513	614	
15	0	0	0	0	513	614	
0	0	0	0	0	512	613	
1	0	0	0	0	512	618	
2	0	0	0	0	512	613	
3	0	0	0	0	512	614	
4	0	0	0	0	512	614	
5	0	0	0	0	511	610	
6	0	0	0	0	511	613	
7	0	0	0	0	512	614	
8	0	0	0	0	512	614	
9	0	0	0	0	512	618	
10	0	0	0	0	512	614	
11	0	0	0	0	512	615	
12	0	0	0	0	512	614	
13	0	0	0	0	511	610	
14	0	0	0	0	511	614	
15	0	0	0	0	512	615	
0	0	0	0	0	512	615	
1	0	0	0	0	512	619	
2	0	0	0	0	513	615	
3	0	0	0	0	514	615	
4	0	0	0	0	515	615	
5	0	0	0	0	515	609	
6	0	0	0	0	515	615	
7	0	0	0	0	515	615	
8	0	0	0	0	515	615	
9	0	0	0	0	515	619	
10	0	0	0	0	515	614	
11	0	0	0	0	513	614	
12	0	0	0	0	513	614	
13	0	0	0	0	512	609	
14	0	0	0	0	513	615	
15	0	0	0	0	513	615	
0	0	0	0	0	513	615	
1	0	0	0	0	513	618	
2	0	0	0	0	513	614	
3	0	0	0	0	513	614	
4	0	0	0	0	513	614	
5	0	0	0	0	513	610	
6	0	0	0	0	513	614	
7	0	0	0	0	513	614	
8	0	0	0	0	513	615	
9	0	0	0	0	513	619	
10	0	0	0	0	514	615	
11	0	0	0	0	514	615	
12	0	0	0	0	514	614	
13	0	0	0	0	515	610	
14	0	0	0	0	514	615	
15	0	0	0	0	514	615	
0	0	0	0	0	514	615	
1	0	0	0	0	514	619	
2	0	0	0	0	514	615	
3	0	0	0	0	514	614	
4	0	0	0	0	514	614	
5	0	0	0	0	514	609	
6	0	0	0	0	513	613	
7	0	0	0	0	513	614	
8	0	0	0	0	512	614	
9	0	0	0	0	512	617	
10	0	0	0	0	512	614	
11	0	0	0	0	512	613	
12	0	0	0	0	512	613	
13	0	0	0	0	512	609	
14	0	0	0	0	512	613	
15	0	0	0	0	513	614	
0	0	0	0	0	513	614	
1	0	0	0	0	513	617	
2	0	0	0	0	513	613	
3	0	0	0	0	512	614	
4	0	0	0	0	512	614	
5	0	0	0	0	511	609	
6	0	0	0	0	511	613	
7	0	0	0	0	511	613	
8	0	0	0	0	511	613	
9	0	0	0	0	510	617	
10	0	0	0	0	510	612	
11	0	0	0	0	510	613	
12	0	0	0	0	511	613	
13	0	0	0	0	511	608	
14	0	0	0	0	512	614	
15	0	0	0	0	512	612	
0	0	0	0	0	512	613	
1	0	0	0	0	512	617	
2	0	0	0	0	513	613	
3	0	0	0	0	513	613	
4	0	0	0	0	513	613	
5	0	0	0	0	513	609	
6	0	0	0	0	513	613	
7	0	0	0	0	514	614	
8	0	0	0	0	514	613	
9	0	0	0	0	515	617	
10	0	0	0	0	515	613	
11	0	0	0	0	515	613	
12	0	0	0	0	515	612	
13	0	0	0	0	516	609	
14	0	0	0	0	516	614	
15	0	0	0	0	517	613	
0	0	0	0	0	517	613	
1	0	0	0	0	518	617	
2	0	0	0	0	519	612	
3	0	0	0	0	519	612	
4	0	0	0	0	519	612	
5	0	0	0	0	519	607	
6	0	0	0	0	519	612	
7	0	0	0	0	518	612	
8	0	0	0	0	518	612	
9	0	0	0	0	518	617	
10	0	0	0	0	517	613	
11	0	0	0	0	516	613	
12	0	0	0	0	516	612	
13	0	0	0	0	515	608	
14	0	0	0	0	515	612	
15	0	0	0	0	515	612	
0	0	0	0	0	515	614	
1	0	0	0	0	515	617	
2	0	0	0	0	515	613	
3	0	0	0	0	514	612	
4	0	0	0	0	514	612	
5	0	0	0	0	515	607	
6	0	0	0	0	515	613	
7	0	0	0	0	515	612	
8	0	0	0	0	515	613	
9	0	0	0	0	515	616	
10	0	0	0	0	515	612	
11	0	0	0	0	515	612	
12	0	0	0	0	516	612	
13	0	0	0	0	517	608	
14	0	0	0	0	517	614	
15	0	0	0	0	517	613	
0	0	0	0	0	516	613	
1	0	0	0	0	516	616	
2	0	0	0	0	515	612	
3	0	0	0	0	515	613	
4	0	0	0	0	515	613	
5	0	0	0	0	514	608	
6	0	0	0	0	514	614	
7	0	0	0	0	513	614	
8	0	0	0	0	513	614	
9	0	0	0	0	513	617	
10	0	0	0	0	513	614	
11	0	0	0	0	513	613	
12	0	0	0	0	513	613	
13	0	0	0	0	513	609	
14	0	0	0	0	512	614	
15	0	0	0	0	512	614	
0	0	0	0	0	512	614	
1	0	0	0	0	512	617	
2	0	0	0	0	512	614	
3	0	0	0	0	511	613	
4	0	0	0	0	511	613	
5	0	0	0	0	511	609	
6	0	0	0	0	511	613	
7	0	0	0	0	511	613	
8	0	0	0	0	510	614	
9	0	0	0	0	509	618	
10	0	0	0	0	510	613	
11	0	0	0	0	510	614	
12	0	0	0	0	510	613	
13	0	0	0	0	510	609	
14	0	0	0	0	510	613	
15	0	0	0	0	510	613	
0	0	0	0	0	510	614	
1	0	0	0	0	510	617	
2	0	0	0	0	510	613	
3	0	0	0	0	510	613	
4	0	0	0	0	510	613	
5	0	0	0	0	509	608	
6	0	0	0	0	510	612	
7	0	0	0	0	509	612	
8	0	0	0	0	508	613	
9	0	0	0	0	508	616	
10	0	0	0	0	507	612	
11	0	0	0	0	507	612	
12	0	0	0	0	506	611	
13	0	0	0	0	504	607	
14	0	0	0	0	504	612	
15	0	0	0	0	505	612	
0	0	0	0	0	505	613	
1	0	0	0	0	505	616	
2	0	0	0	0	506	613	
3	0	0	0	0	507	612	
4	0	0	0	0	508	613	
5	0	0	0	0	508	608	
6	0	0	0	0	510	613	
7	0	0	0	0	511	612	
8	0	0	0	0	511	612	
9	0	0	0	0	511	616	
10	0	0	0	0	510	612	
11	0	0	0	0	508	612	
12	0	0	0	0	506	612	
13	0	0	0	0	502	607	
14	0	0	0	0	499	612	
15	0	0	0	0	496	612	
0	0	0	0	0	493	613	
1	0	0	0	0	491	617	
2	0	0	0	0	488	612	
3	0	0	0	0	487	612	
4	0	0	0	0	485	612	
5	0	0	0	0	483	608	
6	0	0	0	0	482	612	
7	0	0	0	0	481	612	
8	0	0	0	0	481	613	
9	0	0	0	0	482	616	
10	0	0	0	0	483	612	
11	0	0	0	0	485	612	
12	0	0	0	0	487	612	
13	0	0	0	0	489	608	
14	0	0	0	0	492	612	
15	0	0	0	0	495	611	
0	0	0	0	0	498	612	
1	0	0	0	0	501	616	
2	0	0	0	0	505	612	
3	0	0	0	0	508	612	
4	0	0	0	0	511	612	
5	0	0	0	0	513	608	
6	0	0	0	0	513	613	
7	0	0	0	0	513	613	
8	0	0	0	0	512	613	
9	0	0	0	0	512	617	
10	0	0	0	0	511	613	
11	0	0	0	0	512	613	
12	0	0	0	0	514	612	
13	0	0	0	0	517	608	
14	0	0	0	0	522	612	
15	0	0	0	0	529	613	
0	0	0	0	0	536	613	
1	0	0	0	0	544	617	
2	0	0	0	0	552	612	
3	0	0	0	0	560	612	
4	0	0	0	0	568	612	
5	0	0	0	0	574	608	
6	0	0	0	0	579	613	
7	0	0	0	0	584	613	
8	0	0	0	0	588	614	
9	0	0	0	0	591	617	
10	0	0	0	0	591	613	
11	0	0	0	0	591	613	
12	0	0	0	0	588	612	
13	0	0	0	0	584	608	
14	0	0	0	0	580	612	
15	0	0	0	0	577	612	
0	0	0	0	0	574	612	
1	0	0	0	0	570	616	
2	0	0	0	0	567	612	
3	0	0	0	0	562	612	
4	0	0	0	0	558	612	
5	0	0	0	0	553	608	
6	0	0	0	0	548	612	
7	0	0	0	0	544	613	
8	0	0	0	0	539	613	
9	0	0	0	0	535	617	
10	0	0	0	0	531	613	
11	0	0	0	0	527	613	
12	0	0	0	0	523	612	
13	0	0	0	0	519	608	
14	0	0	0	0	515	613	
15	0	0	0	0	511	613	
0	0	0	0	0	508	613	
1	0	0	0	0	504	617	
2	0	0	0	0	502	613	
3	0	0	0	0	499	613	
4	0	0	0	0	497	613	
5	0	0	0	0	496	609	
6	0	0	0	0	495	613	
7	0	0	0	0	494	613	
8	0	0	0	0	492	613	
9	0	0	0	0	492	617	
10	0	0	0	0	492	613	
11	0	0	0	0	492	613	
12	0	0	0	0	492	613	
13	0	0	0	0	491	608	
14	0	0	0	0	491	614	
15	0	0	0	0	489	613	
0	0	0	0	0	489	612	
1	0	0	0	0	487	617	
2	0	0	0	0	487	613	
3	0	0	0	0	487	613	
4	0	0	0	0	487	613	
5	0	0	0	0	488	608	
6	0	0	0	0	488	613	
7	0	0	0	0	489	614	
8	0	0	0	0	489	614	
9	0	0	0	0	490	617	
10	0	0	0	0	491	613	
11	0	0	0	0	491	613	
12	0	0	0	0	492	613	
13	0	0	0	0	492	609	
14	0	0	0	0	493	614	
15	0	0	0	0	494	615	
0	0	0	0	0	493	614	
1	0	0	0	0	493	618	
2	0	0	0	0	493	614	
3	0	0	0	0	493	614	
4	0	0	0	0	493	614	
5	0	0	0	0	494	609	
6	0	0	0	0	494	614	
7	0	0	0	0	494	614	
8	0	0	0	0	494	614	
9	0	0	0	0	495	617	
10	0	0	0	0	494	613	
11	0	0	0	0	494	614	
12	0	0	0	0	493	613	
13	0	0	0	0	492	608	
14	0	0	0	0	492	613	
15	0	0	0	0	492	614	
0	0	0	0	0	492	613	
1	0	0	0	0	493	618	
2	0	0	0	0	494	614	
3	0	0	0	0	494	614	
4	0	0	0	0	495	614	
5	0	0	0	0	495	609	
6	0	0	0	0	495	614	
7	0	0	0	0	496	614	
8	0	0	0	0	495	615	
9	0	0	0	0	494	619	
10	0	0	0	0	494	614	
11	0	0	0	0	494	615	
12	0	0	0	0	493	614	
13	0	0	0	0	493	610	
14	0	0	0	0	493	614	
15	0	0	0	0	494	614	
0	0	0	0	0	495	614	
1	0	0	0	0	496	617	
2	0	0	0	0	497	614	
3	0	0	0	0	497	614	
4	0	0	0	0	497	614	
5	0	0	0	0	497	610	
6	0	0	0	0	497	614	
7	0	0	0	0	497	615	
8	0	0	0	0	498	615	
9	0	0	0	0	498	619	
10	0	0	0	0	499	614	
11	0	0	0	0	499	615	
12	0	0	0	0	499	615	
13	0	0	0	0	499	611	
14	0	0	0	0	499	615	
15	0	0	0	0	498	615	
0	0	0	0	0	497	614	
1	0	0	0	0	496	619	
2	0	0	0	0	496	614	
3	0	0	0	0	495	614	
4	0	0	0	0	495	615	
5	0	0	0	0	495	610	
6	0	0	0	0	495	614	
7	0	0	0	0	495	615	
8	0	0	0	0	496	614	
9	0	0	0	0	498	618	
10	0	0	0	0	500	614	
11	0	0	0	0	500	614	
12	0	0	0	0	501	614	
13	0	0	0	0	501	609	
14	0	0	0	0	501	614	
15	0	0	0	0	501	614	
0	0	0	0	0	501	615	
1	0	0	0	0	501	618	
2	0	0	0	0	500	614	
3	0	0	0	0	500	614	
4	0	0	0	0	500	614	
5	0	0	0	0	500	610	
6	0	0	0	0	500	615	
7	0	0	0	0	500	615	
8	0	0	0	0	500	615	
9	0	0	0	0	500	619	
10	0	0	0	0	500	615	
11	0	0	0	0	499	615	
12	0	0	0	0	499	614	
13	0	0	0	0	499	610	
14	0	0	0	0	500	615	
15	0	0	0	0	500	615	
0	0	0	0	0	501	615	
1	0	0	0	0	501	618	
2	0	0	0	0	502	615	
3	0	0	0	0	502	614	
4	0	0	0	0	503	614	
5	0	0	0	0	503	610	
6	0	0	0	0	504	614	
7	0	0	0	0	503	615	
8	0	0	0	0	503	614	
9	0	0	0	0	503	618	
10	0	0	0	0	502	614	
11	0	0	0	0	501	614	
12	0	0	0	0	501	614	
13	0	0	0	0	500	609	
14	0	0	0	0	501	614	
15	0	0	0	0	501	614	
0	0	0	0	0	502	614	
1	0	0	0	0	503	618	
2	0	0	0	0	504	613	
3	0	0	0	0	504	614	
4	0	0	0	0	504	613	
5	0	0	0	0	505	608	
6	0	0	0	0	504	613	
7	0	0	0	0	504	614	
8	0	0	0	0	504	613	
9	0	0	0	0	504	616	
10	0	0	0	0	505	612	
11	0	0	0	0	505	613	
12	0	0	0	0	506	612	
13	0	0	0	0	506	608	
14	0	0	0	0	506	613	
15	0	0	0	0	507	613	
0	0	0	0	0	508	613	
1	0	0	0	0	508	616	
2	0	0	0	0	510	612	
3	0	0	0	0	510	612	
4	0	0	0	0	510	612	
5	0	0	0	0	511	608	
6	0	0	0	0	511	612	
7	0	0	0	0	512	612	
8	0	0	0	0	512	612	
9	0	0	0	0	512	616	
10	0	0	0	0	511	612	
11	0	0	0	0	511	612	
12	0	0	0	0	511	611	
13	0	0	0	0	511	608	
14	0	0	0	0	511	611	
15	0	0	0	0	512	611	
0	0	0	0	0	512	612	
1	0	0	0	0	512	616	
2	0	0	0	0	513	612	
3	0	0	0	0	513	612	
4	0	0	0	0	513	612	
5	0	0	0	0	513	608	
6	0	0	0	0	512	612	
7	0	0	0	0	513	612	
8	0	0	0	0	513	612	
9	0	0	0	0	513	617	
10	0	0	0	0	513	613	
11	0	0	0	0	513	612	
12	0	0	0	0	514	613	
13	0	0	0	0	514	608	
14	0	0	0	0	515	613	
15	0	0	0	0	515	613	
0	0	0	0	0	515	614	
1	0	0	0	0	515	617	
2	0	0	0	0	515	613	
3	0	0	0	0	515	613	
4	0	0	0	0	516	612	
5	0	0	0	0	517	608	
6	0	0	0	0	518	612	
7	0	0	0	0	518	612	
8	0	0	0	0	519	613	
9	0	0	0	0	519	617	
10	0	0	0	0	519	614	
11	0	0	0	0	519	613	
12	0	0	0	0	519	613	
13	0	0	0	0	519	610	
14	0	0	0	0	519	613	
15	0	0	0	0	519	613	
0	0	0	0	0	519	614	
1	0	0	0	0	519	618	
2	0	0	0	0	520	614	
3	0	0	0	0	521	614	
4	0	0	0	0	521	614	
5	0	0	0	0	523	609	
6	0	0	0	0	524	614	
7	0	0	0	0	526	614	
8	0	0	0	0	527	614	
9	0	0	0	0	527	619	
10	0	0	0	0	528	615	
11	0	0	0	0	529	614	
12	0	0	0	0	530	615	
13	0	0	0	0	530	610	
14	0	0	0	0	531	614	
15	0	0	0	0	531	615	
0	0	0	0	0	531	615	
1	0	0	0	0	532	620	
2	0	0	0	0	532	615	
3	0	0	0	0	532	615	
4	0	0	0	0	532	615	
5	0	0	0	0	532	611	
6	0	0	0	0	531	615	
7	0	0	0	0	530	615	
8	0	0	0	0	530	615	
9	0	0	0	0	529	619	
10	0	0	0	0	527	615	
11	0	0	0	0	526	615	
12	0	0	0	0	527	615	
13	0	0	0	0	526	611	
14	0	0	0	0	527	615	
15	0	0	0	0	527	615	
0	0	0	0	0	526	615	
1	0	0	0	0	526	618	
2	0	0	0	0	526	615	
3	0	0	0	0	526	615	
4	0	0	0	0	526	614	
5	0	0	0	0	525	611	
6	0	0	0	0	524	615	
7	0	0	0	0	523	614	
8	0	0	0	0	522	615	
9	0	0	0	0	521	619	
10	0	0	0	0	520	615	
11	0	0	0	0	520	614	
12	0	0	0	0	519	614	
13	0	0	0	0	518	610	
14	0	0	0	0	517	614	
15	0	0	0	0	515	614	
0	0	0	0	0	513	614	
1	0	0	0	0	512	618	
2	0	0	0	0	512	614	
3	0	0	0	0	511	614	
4	0	0	0	0	511	614	
5	0	0	0	0	511	609	
6	0	0	0	0	510	614	
7	0	0	0	0	510	613	
8	0	0	0	0	510	614	
9	0	0	0	0	509	617	
10	0	0	0	0	508	614	
11	0	0	0	0	507	613	
12	0	0	0	0	507	614	
13	0	0	0	0	505	609	
14	0	0	0	0	504	614	
15	0	0	0	0	503	614	
0	0	0	0	0	502	614	
1	0	0	0	0	501	617	
2	0	0	0	0	500	613	
3	0	0	0	0	500	613	
4	0	0	0	0	499	613	
5	0	0	0	0	499	608	
6	0	0	0	0	499	613	
7	0	0	0	0	499	613	
8	0	0	0	0	498	615	
9	0	0	0	0	498	618	
10	0	0	0	0	498	614	
11	0	0	0	0	498	615	
12	0	0	0	0	498	614	
13	0	0	0	0	498	610	
14	0	0	0	0	499	613	
15	0	0	0	0	499	614	
0	0	0	0	0	499	614	
1	0	0	0	0	499	619	
2	0	0	0	0	500	614	
3	0	0	0	0	499	614	
4	0	0	0	0	499	614	
5	0	0	0	0	497	609	
6	0	0	0	0	497	613	
7	0	0	0	0	497	613	
8	0	0	0	0	496	614	
9	0	0	0	0	496	618	
10	0	0	0	0	496	614	
11	0	0	0	0	495	613	
12	0	0	0	0	496	614	
13	0	0	0	0	495	609	
14	0	0	0	0	495	614	
15	0	0	0	0	495	614	
0	0	0	0	0	495	614	
1	0	0	0	0	496	618	
2	0	0	0	0	496	614	
3	0	0	0	0	496	614	
4	0	0	0	0	497	614	
5	0	0	0	0	497	609	
6	0	0	0	0	498	614	
7	0	0	0	0	498	613	
8	0	0	0	0	498	614	
9	0	0	0	0	498	617	
10	0	0	0	0	497	613	
11	0	0	0	0	496	613	
12	0	0	0	0	496	613	
13	0	0	0	0	496	609	
14	0	0	0	0	495	614	
15	0	0	0	0	495	614	
0	0	0	0	0	495	614	
1	0	0	0	0	495	617	
2	0	0	0	0	496	613	
3	0	0	0	0	496	613	
4	0	0	0	0	497	613	
5	0	0	0	0	497	609	
6	0	0	0	0	499	614	
7	0	0	0	0	500	613	
8	0	0	0	0	500	614	
9	0	0	0	0	501	617	
10	0	0	0	0	501	613	
11	0	0	0	0	502	614	
12	0	0	0	0	502	613	
13	0	0	0	0	502	609	
14	0	0	0	0	503	613	
15	0	0	0	0	503	614	
0	0	0	0	0	503	614	
1	0	0	0	0	503	617	
2	0	0	0	0	503	614	
3	0	0	0	0	504	614	
4	0	0	0	0	503	613	
5	0	0	0	0	503	609	
6	0	0	0	0	503	614	
7	0	0	0	0	503	614	
8	0	0	0	0	503	614	
9	0	0	0	0	503	618	
10	0	0	0	0	503	613	
11	0	0	0	0	502	614	
12	0	0	0	0	502	614	
13	0	0	0	0	502	609	
14	0	0	0	0	503	614	
15	0	0	0	0	503	614	
0	0	0	0	0	503	614	
1	0	0	0	0	503	617	
2	0	0	0	0	503	613	
3	0	0	0	0	502	614	
4	0	0	0	0	502	613	
5	0	0	0	0	501	609	
6	0	0	0	0	500	614	
7	0	0	0	0	500	614	
8	0	0	0	0	500	614	
9	0	0	0	0	500	618	
10	0	0	0	0	500	614	
11	0	0	0	0	500	614	
12	0	0	0	0	500	614	
13	0	0	0	0	500	609	
14	0	0	0	0	501	614	
15	0	0	0	0	501	613	
0	0	0	0	0	501	614	
1	0	0	0	0	500	618	
2	0	0	0	0	501	614	
3	0	0	0	0	501	614	
4	0	0	0	0	502	614	
5	0	0	0	0	503	609	
6	0	0	0	0	504	613	
7	0	0	0	0	504	613	
8	0	0	0	0	504	613	
9	0	0	0	0	503	617	
10	0	0	0	0	503	614	
11	0	0	0	0	502	613	
12	0	0	0	0	501	613	
13	0	0	0	0	501	609	
14	0	0	0	0	500	613	
15	0	0	0	0	500	613	
0	0	0	0	0	501	613	
1	0	0	0	0	501	617	
2	0	0	0	0	502	613	
3	0	0	0	0	502	613	
4	0	0	0	0	502	612	
5	0	0	0	0	503	608	
6	0	0	0	0	504	613	
7	0	0	0	0	505	612	
8	0	0	0	0	506	612	
9	0	0	0	0	506	616	
10	0	0	0	0	506	611	
11	0	0	0	0	505	612	
12	0	0	0	0	505	612	
13	0	0	0	0	505	608	
14	0	0	0	0	505	613	
15	0	0	0	0	504	612	
0	0	0	0	0	504	613	
1	0	0	0	0	504	617	
2	0	0	0	0	504	612	
3	0	0	0	0	503	612	
4	0	0	0	0	502	612	
5	0	0	0	0	502	609	
6	0	0	0	0	501	613	
7	0	0	0	0	500	613	
8	0	0	0	0	500	613	
9	0	0	0	0	500	617	
10	0	0	0	0	501	612	
11	0	0	0	0	501	613	
12	0	0	0	0	502	613	
13	0	0	0	0	502	608	
14	0	0	0	0	504	612	
15	0	0	0	0	505	612	
0	0	0	0	0	506	613	
1	0	0	0	0	506	617	
2	0	0	0	0	506	612	
3	0	0	0	0	506	612	
4	0	0	0	0	507	613	
5	0	0	0	0	507	608	
6	0	0	0	0	508	613	
7	0	0	0	0	508	612	
8	0	0	0	0	507	612	
9	0	0	0	0	507	617	
10	0	0	0	0	507	613	
11	0	0	0	0	508	613	
12	0	0	0	0	507	613	
13	0	0	0	0	508	608	
14	0	0	0	0	508	612	
15	0	0	0	0	508	613	
0	0	0	0	0	509	613	
1	0	0	0	0	508	616	
2	0	0	0	0	509	613	
3	0	0	0	0	509	614	
4	0	0	0	0	508	613	
5	0	0	0	0	508	609	
6	0	0	0	0	507	613	
7	0	0	0	0	507	613	
8	0	0	0	0	506	614	
9	0	0	0	0	506	617	
10	0	0	0	0	506	613	
11	0	0	0	0	505	613	
12	0	0	0	0	504	613	
13	0	0	0	0	504	608	
14	0	0	0	0	504	613	
15	0	0	0	0	504	614	
0	0	0	0	0	504	613	
1	0	0	0	0	504	618	
2	0	0	0	0	504	613	
3	0	0	0	0	504	613	
4	0	0	0	0	505	613	
5	0	0	0	0	504	608	
6	0	0	0	0	505	612	
7	0	0	0	0	505	614	
8	0	0	0	0	506	614	
9	0	0	0	0	506	618	
10	0	0	0	0	507	613	
11	0	0	0	0	507	613	
12	0	0	0	0	507	613	
13	0	0	0	0	508	608	
14	0	0	0	0	507	613	
15	0	0	0	0	507	613	
0	0	0	0	0	507	612	
1	0	0	0	0	507	617	
2	0	0	0	0	507	613	
3	0	0	0	0	507	613	
4	0	0	0	0	507	613	
5	0	0	0	0	506	608	
6	0	0	0	0	506	613	
7	0	0	0	0	505	612	
8	0	0	0	0	505	613	
9	0	0	0	0	504	617	
10	0	0	0	0	504	613	
11	0	0	0	0	504	613	
12	0	0	0	0	505	613	
13	0	0	0	0	505	608	
14	0	0	0	0	505	612	
15	0	0	0	0	505	613	
0	0	0	0	0	506	614	
1	0	0	0	0	507	617	
2	0	0	0	0	507	613	
3	0	0	0	0	508	613	
4	0	0	0	0	508	612	
5	0	0	0	0	510	609	
6	0	0	0	0	510	613	
7	0	0	0	0	510	613	
8	0	0	0	0	510	614	
9	0	0	0	0	509	617	
10	0	0	0	0	509	613	
11	0	0	0	0	508	612	
12	0	0	0	0	508	612	
13	0	0	0	0	507	608	
14	0	0	0	0	507	613	
15	0	0	0	0	506	613	
0	0	0	0	0	506	614	
1	0	0	0	0	505	617	
2	0	0	0	0	505	613	
3	0	0	0	0	505	614	
4	0	0	0	0	504	613	
5	0	0	0	0	504	609	
6	0	0	0	0	504	614	
7	0	0	0	0	505	613	
8	0	0	0	0	506	612	
9	0	0	0	0	507	617	
10	0	0	0	0	508	613	
11	0	0	0	0	509	613	
12	0	0	0	0	509	613	
13	0	0	0	0	510	609	
14	0	0	0	0	510	613	
15	0	0	0	0	511	614	
0	0	0	0	0	510	613	
1	0	0	0	0	510	617	
2	0	0	0	0	510	612	
3	0	0	0	0	510	613	
4	0	0	0	0	509	613	
5	0	0	0	0	509	608	
6	0	0	0	0	510	614	
7	0	0	0	0	509	613	
8	0	0	0	0	509	614	
9	0	0	0	0	509	617	
10	0	0	0	0	509	613	
11	0	0	0	0	509	614	
12	0	0	0	0	510	614	
13	0	0	0	0	510	609	
14	0	0	0	0	509	614	
15	0	0	0	0	510	614	
0	0	0	0	0	510	614	
1	0	0	0	0	510	618	
2	0	0	0	0	509	614	
3	0	0	0	0	509	614	
4	0	0	0	0	508	614	
5	0	0	0	0	508	609	
6	0	0	0	0	508	614	
7	0	0	0	0	508	614	
8	0	0	0	0	508	614	
9	0	0	0	0	507	618	
10	0	0	0	0	508	614	
11	0	0	0	0	507	614	
12	0	0	0	0	507	614	
13	0	0	0	0	507	609	
14	0	0	0	0	508	614	
15	0	0	0	0	507	614	
0	0	0	0	0	507	614	
1	0	0	0	0	507	618	
2	0	0	0	0	507	614	
3	0	0	0	0	507	614	
4	0	0	0	0	507	614	
5	0	0	0	0	507	610	
6	0	0	0	0	508	614	
7	0	0	0	0	508	615	
8	0	0	0	0	508	615	
9	0	0	0	0	509	619	
10	0	0	0	0	509	614	
11	0	0	0	0	509	615	
12	0	0	0	0	509	614	
13	0	0	0	0	509	610	
14	0	0	0	0	509	615	
15	0	0	0	0	508	615	
0	0	0	0	0	508	615	
1	0	0	0	0	507	619	
2	0	0	0	0	507	615	
3	0	0	0	0	507	615	
4	0	0	0	0	508	615	
5	0	0	0	0	507	610	
6	0	0	0	0	508	615	
7	0	0	0	0	508	615	
8	0	0	0	0	508	615	
9	0	0	0	0	508	619	
10	0	0	0	0	508	615	
11	0	0	0	0	509	615	
12	0	0	0	0	509	615	
13	0	0	0	0	510	611	
14	0	0	0	0	510	615	
15	0	0	0	0	510	615	
0	0	0	0	0	510	615	
1	0	0	0	0	511	619	
2	0	0	0	0	511	615	
3	0	0	0	0	511	615	
4	0	0	0	0	511	615	
5	0	0	0	0	511	611	
6	0	0	0	0	512	615	
7	0	0	0	0	513	615	
8	0	0	0	0	514	615	
9	0	0	0	0	514	618	
10	0	0	0	0	515	615	
11	0	0	0	0	514	614	
12	0	0	0	0	514	614	
13	0	0	0	0	514	610	
14	0	0	0	0	514	615	
15	0	0	0	0	514	615	
0	0	0	0	0	513	614	
1	0	0	0	0	513	619	
2	0	0	0	0	513	615	
3	0	0	0	0	514	615	
4	0	0	0	0	515	614	
5	0	0	0	0	516	610	
6	0	0	0	0	517	615	
7	0	0	0	0	518	615	
8	0	0	0	0	518	615	
9	0	0	0	0	519	619	
10	0	0	0	0	518	615	
11	0	0	0	0	518	615	
12	0	0	0	0	518	615	
13	0	0	0	0	517	611	
14	0	0	0	0	517	615	
15	0	0	0	0	516	615	
0	0	0	0	0	516	615	
1	0	0	0	0	517	619	
2	0	0	0	0	517	614	
3	0	0	0	0	517	615	
4	0	0	0	0	517	615	
5	0	0	0	0	516	610	
6	0	0	0	0	515	615	
7	0	0	0	0	515	614	
8	0	0	0	0	515	615	
9	0	0	0	0	515	618	
10	0	0	0	0	515	614	
11	0	0	0	0	514	614	
12	0	0	0	0	514	614	
13	0	0	0	0	514	610	
14	0	0	0	0	513	614	
15	0	0	0	0	512	614	
0	0	0	0	0	512	614	
1	0	0	0	0	511	618	
2	0	0	0	0	511	613	
3	0	0	0	0	509	614	
4	0	0	0	0	509	614	
5	0	0	0	0	508	609	
6	0	0	0	0	508	614	
7	0	0	0	0	507	614	
8	0	0	0	0	507	613	
9	0	0	0	0	508	618	
10	0	0	0	0	509	614	
11	0	0	0	0	509	613	
12	0	0	0	0	509	613	
13	0	0	0	0	509	608	
14	0	0	0	0	508	613	
15	0	0	0	0	508	612	
0	0	0	0	0	508	613	
1	0	0	0	0	509	617	
2	0	0	0	0	510	613	
3	0	0	0	0	510	613	
4	0	0	0	0	511	613	
5	0	0	0	0	511	608	
6	0	0	0	0	511	612	
7	0	0	0	0	511	613	
8	0	0	0	0	510	613	
9	0	0	0	0	510	617	
10	0	0	0	0	511	612	
11	0	0	0	0	511	613	
12	0	0	0	0	511	613	
13	0	0	0	0	510	608	
14	0	0	0	0	510	613	
15	0	0	0	0	510	613	
0	0	0	0	0	510	613	
1	0	0	0	0	511	617	
2	0	0	0	0	512	613	
3	0	0	0	0	513	613	
4	0	0	0	0	513	612	
5	0	0	0	0	513	608	
6	0	0	0	0	513	613	
7	0	0	0	0	512	613	
8	0	0	0	0	511	613	
9	0	0	0	0	510	617	
10	0	0	0	0	510	613	
11	0	0	0	0	510	613	
12	0	0	0	0	511	613	
13	0	0	0	0	512	608	
14	0	0	0	0	512	614	
15	0	0	0	0	513	613	
0	0	0	0	0	514	614	
1	0	0	0	0	515	617	
2	0	0	0	0	515	613	
3	0	0	0	0	513	613	
4	0	0	0	0	512	613	
5	0	0	0	0	512	609	
6	0	0	0	0	512	614	
7	0	0	0	0	512	614	
8	0	0	0	0	511	615	
9	0	0	0	0	511	618	
10	0	0	0	0	511	614	
11	0	0	0	0	511	614	
12	0	0	0	0	511	613	
13	0	0	0	0	511	609	
14	0	0	0	0	510	613	
15	0	0	0	0	510	612	
0	0	0	0	0	510	613	
1	0	0	0	0	508	617	
2	0	0	0	0	506	614	
3	0	0	0	0	503	613	
4	0	0	0	0	500	614	
5	0	0	0	0	497	609	
6	0	0	0	0	495	614	
7	0	0	0	0	493	614	
8	0	0	0	0	492	613	
9	0	0	0	0	491	617	
10	0	0	0	0	489	613	
11	0	0	0	0	488	613	
12	0	0	0	0	487	613	
13	0	0	0	0	487	608	
14	0	0	0	0	487	612	
15	0	0	0	0	488	614	
0	0	0	0	0	488	613	
1	0	0	0	0	489	617	
2	0	0	0	0	489	613	
3	0	0	0	0	490	613	
4	0	0	0	0	491	613	
5	0	0	0	0	492	609	
6	0	0	0	0	494	614	
7	0	0	0	0	495	613	
8	0	0	0	0	497	612	
9	0	0	0	0	500	617	
10	0	0	0	0	503	612	
11	0	0	0	0	505	613	
12	0	0	0	0	507	613	
13	0	0	0	0	508	608	
14	0	0	0	0	509	612	
15	0	0	0	0	510	612	
0	0	0	0	0	510	613	
1	0	0	0	0	512	616	
2	0	0	0	0	515	612	
3	0	0	0	0	520	612	
4	0	0	0	0	526	612	
5	0	0	0	0	532	608	
6	0	0	0	0	540	612	
7	0	0	0	0	548	612	
8	0	0	0	0	557	612	
9	0	0	0	0	567	616	
10	0	0	0	0	577	612	
11	0	0	0	0	588	612	
12	0	0	0	0	596	612	
13	0	0	0	0	605	608	
14	0	0	0	0	611	612	
15	0	0	0	0	615	612	
0	0	0	0	0	617	612	
1	0	0	0	0	617	615	
2	0	0	0	0	616	611	
3	0	0	0	0	614	611	
4	0	0	0	0	609	611	
5	0	0	0	0	605	607	
6	0	0	0	0	600	611	
7	0	0	0	0	595	611	
8	0	0	0	0	589	611	
9	0	0	0	0	584	615	
10	0	0	0	0	579	611	
11	0	0	0	0	572	611	
12	0	0	0	0	566	611	
13	0	0	0	0	560	607	
14	0	0	0	0	552	611	
15	0	0	0	0	546	611	
0	0	0	0	0	539	611	
1	0	0	0	0	533	615	
2	0	0	0	0	528	611	
3	0	0	0	0	523	611	
4	0	0	0	0	519	611	
5	0	0	0	0	515	607	
6	0	0	0	0	511	612	
7	0	0	0	0	508	612	
8	0	0	0	0	505	612	
9	0	0	0	0	503	616	
10	0	0	0	0	501	612	
11	0	0	0	0	499	612	
12	0	0	0	0	497	612	
13	0	0	0	0	496	608	
14	0	0	0	0	495	612	
15	0	0	0	0	494	613	
0	0	0	0	0	492	613	
1	0	0	0	0	491	616	
2	0	0	0	0	490	613	
3	0	0	0	0	491	613	
4	0	0	0	0	491	612	
5	0	0	0	0	491	608	
6	0	0	0	0	489	613	
7	0	0	0	0	489	613	
8	0	0	0	0	488	613	
9	0	0	0	0	487	617	
10	0	0	0	0	486	613	
11	0	0	0	0	485	614	
12	0	0	0	0	484	614	
13	0	0	0	0	484	608	
14	0	0	0	0	484	613	
15	0	0	0	0	484	613	
0	0	0	0	0	485	612	
1	0	0	0	0	486	618	
2	0	0	0	0	487	614	
3	0	0	0	0	487	613	
4	0	0	0	0	488	613	
5	0	0	0	0	488	608	
6	0	0	0	0	489	612	
7	0	0	0	0	489	613	
8	0	0	0	0	489	613	
9	0	0	0	0	489	616	
10	0	0	0	0	488	613	
11	0	0	0	0	487	613	
12	0	0	0	0	487	613	
13	0	0	0	0	487	608	
14	0	0	0	0	488	613	
15	0	0	0	0	489	613	
0	0	0	0	0	490	613	
1	0	0	0	0	491	617	
2	0	0	0	0	492	613	
3	0	0	0	0	492	613	
4	0	0	0	0	493	613	
5	0	0	0	0	493	609	
6	0	0	0	0	493	614	
7	0	0	0	0	493	614	
8	0	0	0	0	493	614	
9	0	0	0	0	494	617	
10	0	0	0	0	494	613	
11	0	0	0	0	494	614	
12	0	0	0	0	493	614	
13	0	0	0	0	492	609	
14	0	0	0	0	492	614	
15	0	0	0	0	492	614	
0	0	0	0	0	493	614	
1	0	0	0	0	494	618	
2	0	0	0	0	494	615	
3	0	0	0	0	495	615	
4	0	0	0	0	495	615	
5	0	0	0	0	495	609	
6	0	0	0	0	494	614	
7	0	0	0	0	494	615	
8	0	0	0	0	494	614	
9	0	0	0	0	493	619	
10	0	0	0	0	493	614	
11	0	0	0	0	493	615	
12	0	0	0	0	493	615	
13	0	0	0	0	494	610	
14	0	0	0	0	495	615	
15	0	0	0	0	496	614	
0	0	0	0	0	497	615	
1	0	0	0	0	497	619	
2	0	0	0	0	498	615	
3	0	0	0	0	497	615	
4	0	0	0	0	496	615	
5	0	0	0	0	496	610	
6	0	0	0	0	496	614	
7	0	0	0	0	495	615	
8	0	0	0	0	496	615	
9	0	0	0	0	496	619	
10	0	0	0	0	497	615	
11	0	0	0	0	498	615	
12	0	0	0	0	499	615	
13	0	0	0	0	499	610	
14	0	0	0	0	499	614	
15	0	0	0	0	498	614	
0	0	0	0	0	497	615	
1	0	0	0	0	496	618	
2	0	0	0	0	495	615	
3	0	0	0	0	494	615	
4	0	0	0	0	493	614	
5	0	0	0	0	493	609	
6	0	0	0	0	493	614	
7	0	0	0	0	494	614	
8	0	0	0	0	495	614	
9	0	0	0	0	497	618	
10	0	0	0	0	499	614	
11	0	0	0	0	500	614	
12	0	0	0	0	500	614	
13	0	0	0	0	501	609	
14	0	0	0	0	501	613	
15	0	0	0	0	501	614	
0	0	0	0	0	501	614	
1	0	0	0	0	501	618	
2	0	0	0	0	502	614	
3	0	0	0	0	502	614	
4	0	0	0	0	501	614	
5	0	0	0	0	502	610	
6	0	0	0	0	501	615	
7	0	0	0	0	502	615	
8	0	0	0	0	502	615	
9	0	0	0	0	503	620	
10	0	0	0	0	503	615	
11	0	0	0	0	503	615	
12	0	0	0	0	503	615	
13	0	0	0	0	503	611	
14	0	0	0	0	502	615	
15	0	0	0	0	502	615	
0	0	0	0	0	502	615	
1	0	0	0	0	503	620	
2	0	0	0	0	504	615	
3	0	0	0	0	504	615	
4	0	0	0	0	505	615	
5	0	0	0	0	505	611	
6	0	0	0	0	505	615	
7	0	0	0	0	504	615	
8	0	0	0	0	504	615	
9	0	0	0	0	505	619	
10	0	0	0	0	504	615	
11	0	0	0	0	504	615	
12	0	0	0	0	504	615	
13	0	0	0	0	504	611	
14	0	0	0	0	504	615	
15	0	0	0	0	504	615	
0	0	0	0	0	504	615	
1	0	0	0	0	504	618	
2	0	0	0	0	505	615	
3	0	0	0	0	504	615	
4	0	0	0	0	504	614	
5	0	0	0	0	505	610	
6	0	0	0	0	505	614	
7	0	0	0	0	505	614	
8	0	0	0	0	505	614	
9	0	0	0	0	506	618	
10	0	0	0	0	506	614	
11	0	0	0	0	507	614	
12	0	0	0	0	508	614	
13	0	0	0	0	508	609	
14	0	0	0	0	509	614	
15	0	0	0	0	509	614	
0	0	0	0	0	509	613	
1	0	0	0	0	509	618	
2	0	0	0	0	510	613	
3	0	0	0	0	510	614	
4	0	0	0	0	510	614	
5	0	0	0	0	510	609	
6	0	0	0	0	510	614	
7	0	0	0	0	511	614	
8	0	0	0	0	511	614	
9	0	0	0	0	512	617	
10	0	0	0	0	512	613	
11	0	0	0	0	513	614	
12	0	0	0	0	513	613	
13	0	0	0	0	514	609	
14	0	0	0	0	514	613	
15	0	0	0	0	514	613	
0	0	0	0	0	514	613	
1	0	0	0	0	514	617	
2	0	0	0	0	515	612	
3	0	0	0	0	515	612	
4	0	0	0	0	515	612	
5	0	0	0	0	515	608	
6	0	0	0	0	516	613	
7	0	0	0	0	516	613	
8	0	0	0	0	516	613	
9	0	0	0	0	517	617	
10	0	0	0	0	517	613	
11	0	0	0	0	517	613	
12	0	0	0	0	517	613	
13	0	0	0	0	517	608	
14	0	0	0	0	517	613	
15	0	0	0	0	518	613	
0	0	0	0	0	519	613	
1	0	0	0	0	520	617	
2	0	0	0	0	522	613	
3	0	0	0	0	522	612	
4	0	0	0	0	523	613	
5	0	0	0	0	523	608	
6	0	0	0	0	523	613	
7	0	0	0	0	523	612	
8	0	0	0	0	524	613	
9	0	0	0	0	523	617	
10	0	0	0	0	522	612	
11	0	0	0	0	521	612	
12	0	0	0	0	520	612	
13	0	0	0	0	520	608	
14	0	0	0	0	521	612	
15	0	0	0	0	521	613	
0	0	0	0	0	522	613	
1	0	0	0	0	523	617	
2	0	0	0	0	524	613	
3	0	0	0	0	524	613	
4	0	0	0	0	525	612	
5	0	0	0	0	524	609	
6	0	0	0	0	525	613	
7	0	0	0	0	525	613	
8	0	0	0	0	525	613	
9	0	0	0	0	525	617	
10	0	0	0	0	525	613	
11	0	0	0	0	524	613	
12	0	0	0	0	524	612	
13	0	0	0	0	524	609	
14	0	0	0	0	524	614	
15	0	0	0	0	525	614	
0	0	0	0	0	525	614	
1	0	0	0	0	525	617	
2	0	0	0	0	525	614	
3	0	0	0	0	525	613	
4	0	0	0	0	525	613	
5	0	0	0	0	525	609	
6	0	0	0	0	525	613	
7	0	0	0	0	524	613	
8	0	0	0	0	523	613	
9	0	0	0	0	523	617	
10	0	0	0	0	523	613	
11	0	0	0	0	522	613	
12	0	0	0	0	521	613	
13	0	0	0	0	520	609	
14	0	0	0	0	518	613	
15	0	0	0	0	516	613	
0	0	0	0	0	515	613	
1	0	0	0	0	515	617	
2	0	0	0	0	515	613	
3	0	0	0	0	515	614	
4	0	0	0	0	515	613	
5	0	0	0	0	515	609	
6	0	0	0	0	515	612	
7	0	0	0	0	516	612	
8	0	0	0	0	515	613	
9	0	0	0	0	513	617	
10	0	0	0	0	512	613	
11	0	0	0	0	511	614	
12	0	0	0	0	510	614	
13	0	0	0	0	509	609	
14	0	0	0	0	507	614	
15	0	0	0	0	505	614	
0	0	0	0	0	504	614	
1	0	0	0	0	504	617	
2	0	0	0	0	504	614	
3	0	0	0	0	504	614	
4	0	0	0	0	504	614	
5	0	0	0	0	504	609	
6	0	0	0	0	503	614	
7	0	0	0	0	502	613	
8	0	0	0	0	501	614	
9	0	0	0	0	500	618	
10	0	0	0	0	500	614	
11	0	0	0	0	499	614	
12	0	0	0	0	499	614	
13	0	0	0	0	499	609	
14	0	0	0	0	500	614	
15	0	0	0	0	500	614	
0	0	0	0	0	500	614	
1	0	0	0	0	500	618	
2	0	0	0	0	500	614	
3	0	0	0	0	500	613	
4	0	0	0	0	500	613	
5	0	0	0	0	499	609	
6	0	0	0	0	499	614	
7	0	0	0	0	499	614	
8	0	0	0	0	498	614	
9	0	0	0	0	498	619	
10	0	0	0	0	498	613	
11	0	0	0	0	498	614	
12	0	0	0	0	498	614	
13	0	0	0	0	498	609	
14	0	0	0	0	498	614	
15	0	0	0	0	499	614	
0	0	0	0	0	499	614	
1	0	0	0	0	499	618	
2	0	0	0	0	499	614	
3	0	0	0	0	499	614	
4	0	0	0	0	498	614	
5	0	0	0	0	497	610	
6	0	0	0	0	497	615	
7	0	0	0	0	497	614	
8	0	0	0	0	496	614	
9	0	0	0	0	496	618	
10	0	0	0	0	496	614	
11	0	0	0	0	496	614	
12	0	0	0	0	496	614	
13	0	0	0	0	495	609	
14	0	0	0	0	495	614	
15	0	0	0	0	495	614	
0	0	0	0	0	496	614	
1	0	0	0	0	498	618	
2	0	0	0	0	499	614	
3	0	0	0	0	499	614	
4	0	0	0	0	500	614	
5	0	0	0	0	500	610	
6	0	0	0	0	501	614	
7	0	0	0	0	501	614	
8	0	0	0	0	500	614	
9	0	0	0	0	501	618	
10	0	0	0	0	502	614	
11	0	0	0	0	501	614	
12	0	0	0	0	500	613	
13	0	0	0	0	499	609	
14	0	0	0	0	500	614	
15	0	0	0	0	500	614	
0	0	0	0	0	500	615	
1	0	0	0	0	500	618	
2	0	0	0	0	502	615	
3	0	0	0	0	502	614	
4	0	0	0	0	502	614	
5	0	0	0	0	503	609	
6	0	0	0	0	503	614	
7	0	0	0	0	504	614	
8	0	0	0	0	504	614	
9	0	0	0	0	505	617	
10	0	0	0	0	505	614	
11	0	0	0	0	505	614	
12	0	0	0	0	505	613	
13	0	0	0	0	504	609	
14	0	0	0	0	504	614	
15	0	0	0	0	503	614	
0	0	0	0	0	503	614	
1	0	0	0	0	504	618	
2	0	0	0	0	504	614	
3	0	0	0	0	504	614	
4	0	0	0	0	504	614	
5	0	0	0	0	504	609	
6	0	0	0	0	504	614	
7	0	0	0	0	504	614	
8	0	0	0	0	504	614	
9	0	0	0	0	505	618	
10	0	0	0	0	505	614	
11	0	0	0	0	505	613	
12	0	0	0	0	504	613	
13	0	0	0	0	504	609	
14	0	0	0	0	504	614	
15	0	0	0	0	504	613	
0	0	0	0	0	504	614	
1	0	0	0	0	504	617	
2	0	0	0	0	503	614	
3	0	0	0	0	502	614	
4	0	0	0	0	502	613	
5	0	0	0	0	501	608	
6	0	0	0	0	502	614	
7	0	0	0	0	503	613	
8	0	0	0	0	502	613	
9	0	0	0	0	502	617	
10	0	0	0	0	502	613	
11	0	0	0	0	502	613	
12	0	0	0	0	503	613	
13	0	0	0	0	503	608	
14	0	0	0	0	503	613	
15	0	0	0	0	503	614	
0	0	0	0	0	503	614	
1	0	0	0	0	504	617	
2	0	0	0	0	504	613	
3	0	0	0	0	504	613	
4	0	0	0	0	505	614	
5	0	0	0	0	505	609	
6	0	0	0	0	505	614	
7	0	0	0	0	506	614	
8	0	0	0	0	506	614	
9	0	0	0	0	507	618	
10	0	0	0	0	506	614	
11	0	0	0	0	506	614	
12	0	0	0	0	505	614	
13	0	0	0	0	505	609	
14	0	0	0	0	505	614	
15	0	0	0	0	505	614	
0	0	0	0	0	505	615	
1	0	0	0	0	505	618	
2	0	0	0	0	505	615	
3	0	0	0	0	506	615	
4	0	0	0	0	507	615	
5	0	0	0	0	507	610	
6	0	0	0	0	507	615	
7	0	0	0	0	508	614	
8	0	0	0	0	509	615	
9	0	0	0	0	509	619	
10	0	0	0	0	510	614	
11	0	0	0	0	510	615	
12	0	0	0	0	509	614	
13	0	0	0	0	508	609	
14	0	0	0	0	507	614	
15	0	0	0	0	507	613	
0	0	0	0	0	508	614	
1	0	0	0	0	507	618	
2	0	0	0	0	506	614	
3	0	0	0	0	505	614	
4	0	0	0	0	504	614	
5	0	0	0	0	504	609	
6	0	0	0	0	504	613	
7	0	0	0	0	503	613	
8	0	0	0	0	503	613	
9	0	0	0	0	502	617	
10	0	0	0	0	503	613	
11	0	0	0	0	504	614	
12	0	0	0	0	505	612	
13	0	0	0	0	506	608	
14	0	0	0	0	507	613	
15	0	0	0	0	508	613	
0	0	0	0	0	510	613	
1	0	0	0	0	511	617	
2	0	0	0	0	512	614	
3	0	0	0	0	512	613	
4	0	0	0	0	513	613	
5	0	0	0	0	514	608	
6	0	0	0	0	515	613	
7	0	0	0	0	515	613	
8	0	0	0	0	515	613	
9	0	0	0	0	514	617	
10	0	0	0	0	514	612	
11	0	0	0	0	513	612	
12	0	0	0	0	512	612	
13	0	0	0	0	512	608	
14	0	0	0	0	512	612	
15	0	0	0	0	512	613	
0	0	0	0	0	512	613	
1	0	0	0	0	512	616	
2	0	0	0	0	512	612	
3	0	0	0	0	512	612	
4	0	0	0	0	513	612	
5	0	0	0	0	513	608	
6	0	0	0	0	513	612	
7	0	0	0	0	514	612	
8	0	0	0	0	514	612	
9	0	0	0	0	514	616	
10	0	0	0	0	513	612	
11	0	0	0	0	513	612	
12	0	0	0	0	513	612	
13	0	0	0	0	513	608	
14	0	0	0	0	512	612	
15	0	0	0	0	513	612	
0	0	0	0	0	512	612	
1	0	0	0	0	512	616	
2	0	0	0	0	512	612	
3	0	0	0	0	512	612	
4	0	0	0	0	512	612	
5	0	0	0	0	512	608	
6	0	0	0	0	512	612	
7	0	0	0	0	512	612	
8	0	0	0	0	513	613	
9	0	0	0	0	513	616	
10	0	0	0	0	512	612	
11	0	0	0	0	512	612	
12	0	0	0	0	512	612	
13	0	0	0	0	511	608	
14	0	0	0	0	511	613	
15	0	0	0	0	510	614	
0	0	0	0	0	509	614	
1	0	0	0	0	509	617	
2	0	0	0	0	508	613	
3	0	0	0	0	508	613	
4	0	0	0	0	508	613	
5	0	0	0	0	508	608	
6	0	0	0	0	509	612	
7	0	0	0	0	511	613	
8	0	0	0	0	512	613	
9	0	0	0	0	513	618	
10	0	0	0	0	513	613	
11	0	0	0	0	515	614	
12	0	0	0	0	514	613	
13	0	0	0	0	515	609	
14	0	0	0	0	514	614	
15	0	0	0	0	514	614	
0	0	0	0	0	513	614	
1	0	0	0	0	512	617	
2	0	0	0	0	512	614	
3	0	0	0	0	511	613	
4	0	0	0	0	511	613	
5	0	0	0	0	511	609	
6	0	0	0	0	511	614	
7	0	0	0	0	512	613	
8	0	0	0	0	513	614	
9	0	0	0	0	514	617	
10	0	0	0	0	516	614	
11	0	0	0	0	516	612	
12	0	0	0	0	517	612	
13	0	0	0	0	518	608	
14	0	0	0	0	518	613	
15	0	0	0	0	517	613	
0	0	0	0	0	516	612	
1	0	0	0	0	515	617	
2	0	0	0	0	515	613	
3	0	0	0	0	515	613	
4	0	0	0	0	515	613	
5	0	0	0	0	515	607	
6	0	0	0	0	515	612	
7	0	0	0	0	515	613	
8	0	0	0	0	516	612	
9	0	0	0	0	516	617	
10	0	0	0	0	517	612	
11	0	0	0	0	517	612	
12	0	0	0	0	517	612	
13	0	0	0	0	516	608	
14	0	0	0	0	515	612	
15	0	0	0	0	514	612	
0	0	0	0	0	514	612	
1	0	0	0	0	513	616	
2	0	0	0	0	513	612	
3	0	0	0	0	513	612	
4	0	0	0	0	513	612	
5	0	0	0	0	513	608	
6	0	0	0	0	514	612	
7	0	0	0	0	515	611	
8	0	0	0	0	516	611	
9	0	0	0	0	516	616	
10	0	0	0	0	517	611	
11	0	0	0	0	516	612	
12	0	0	0	0	516	612	
13	0	0	0	0	515	608	
14	0	0	0	0	515	611	
15	0	0	0	0	514	612	
0	0	0	0	0	514	613	
1	0	0	0	0	513	616	
2	0	0	0	0	513	612	
3	0	0	0	0	513	611	
4	0	0	0	0	513	612	
5	0	0	0	0	513	607	
6	0	0	0	0	514	611	
7	0	0	0	0	515	612	
8	0	0	0	0	515	612	
9	0	0	0	0	514	616	
10	0	0	0	0	515	613	
11	0	0	0	0	516	613	
12	0	0	0	0	515	612	
13	0	0	0	0	515	608	
14	0	0	0	0	515	612	
15	0	0	0	0	515	612	
0	0	0	0	0	515	612	
1	0	0	0	0	515	617	
2	0	0	0	0	515	613	
3	0	0	0	0	515	612	
4	0	0	0	0	516	612	
5	0	0	0	0	516	608	
6	0	0	0	0	517	613	
7	0	0	0	0	517	613	
8	0	0	0	0	518	613	
9	0	0	0	0	518	617	
10	0	0	0	0	519	613	
11	0	0	0	0	519	613	
12	0	0	0	0	519	612	
13	0	0	0	0	519	608	
14	0	0	0	0	518	612	
15	0	0	0	0	517	612	
0	0	0	0	0	517	613	
1	0	0	0	0	517	617	
2	0	0	0	0	517	613	
3	0	0	0	0	517	613	
4	0	0	0	0	517	613	
5	0	0	0	0	517	608	
6	0	0	0	0	517	612	
7	0	0	0	0	516	612	
8	0	0	0	0	515	613	
9	0	0	0	0	515	617	
10	0	0	0	0	514	612	
11	0	0	0	0	514	612	
12	0	0	0	0	513	612	
13	0	0	0	0	513	608	
14	0	0	0	0	513	613	
15	0	0	0	0	513	613	
0	0	0	0	0	512	613	
1	0	0	0	0	512	617	
2	0	0	0	0	513	613	
3	0	0	0	0	513	611	
4	0	0	0	0	513	612	
5	0	0	0	0	514	607	
6	0	0	0	0	514	612	
7	0	0	0	0	514	612	
8	0	0	0	0	513	612	
9	0	0	0	0	512	616	
10	0	0	0	0	512	612	
11	0	0	0	0	511	612	
12	0	0	0	0	510	612	
13	0	0	0	0	510	608	
14	0	0	0	0	510	612	
15	0	0	0	0	510	612	
0	0	0	0	0	511	612	
1	0	0	0	0	512	616	
2	0	0	0	0	514	612	
3	0	0	0	0	514	612	
4	0	0	0	0	514	612	
5	0	0	0	0	514	608	
6	0	0	0	0	515	613	
7	0	0	0	0	515	613	
8	0	0	0	0	515	614	
9	0	0	0	0	516	617	
10	0	0	0	0	518	613	
11	0	0	0	0	519	614	
12	0	0	0	0	519	614	
13	0	0	0	0	520	608	
14	0	0	0	0	520	613	
15	0	0	0	0	520	613	
0	0	0	0	0	520	613	
1	0	0	0	0	519	617	
2	0	0	0	0	519	613	
3	0	0	0	0	519	613	
4	0	0	0	0	519	613	
5	0	0	0	0	519	609	
6	0	0	0	0	519	613	
7	0	0	0	0	519	613	
8	0	0	0	0	519	613	
9	0	0	0	0	519	617	
10	0	0	0	0	519	614	
11	0	0	0	0	519	614	
12	0	0	0	0	518	614	
13	0	0	0	0	517	609	
14	0	0	0	0	517	614	
15	0	0	0	0	517	614	
0	0	0	0	0	516	614	
1	0	0	0	0	516	618	
2	0	0	0	0	517	614	
3	0	0	0	0	517	614	
4	0	0	0	0	518	614	
5	0	0	0	0	518	609	
6	0	0	0	0	518	614	
7	0	0	0	0	518	614	
8	0	0	0	0	518	615	
9	0	0	0	0	517	619	
10	0	0	0	0	518	615	
11	0	0	0	0	517	615	
12	0	0	0	0	516	615	
13	0	0	0	0	516	610	
14	0	0	0	0	516	615	
15	0	0	0	0	516	615	
0	0	0	0	0	515	615	
1	0	0	0	0	515	619	
2	0	0	0	0	515	614	
3	0	0	0	0	515	615	
4	0	0	0	0	514	614	
5	0	0	0	0	515	610	
6	0	0	0	0	515	614	
7	0	0	0	0	515	614	
8	0	0	0	0	516	615	
9	0	0	0	0	515	619	
10	0	0	0	0	516	615	
11	0	0	0	0	516	614	
12	0	0	0	0	516	614	
13	0	0	0	0	516	610	
14	0	0	0	0	516	614	
15	0	0	0	0	516	614	
0	0	0	0	0	516	614	
1	0	0	0	0	515	618	
2	0	0	0	0	515	614	
3	0	0	0	0	514	614	
4	0	0	0	0	513	614	
5	0	0	0	0	512	609	
6	0	0	0	0	512	614	
7	0	0	0	0	512	614	
8	0	0	0	0	510	613	
9	0	0	0	0	510	617	
10	0	0	0	0	510	613	
11	0	0	0	0	510	613	
12	0	0	0	0	510	613	
13	0	0	0	0	510	609	
14	0	0	0	0	510	613	
15	0	0	0	0	509	613	
0	0	0	0	0	510	613	
1	0	0	0	0	511	617	
2	0	0	0	0	511	613	
3	0	0	0	0	511	613	
4	0	0	0	0	511	613	
5	0	0	0	0	511	609	
6	0	0	0	0	511	613	
7	0	0	0	0	511	613	
8	0	0	0	0	511	613	
9	0	0	0	0	511	617	
10	0	0	0	0	512	613	
11	0	0	0	0	513	613	
12	0	0	0	0	514	613	
13	0	0	0	0	515	609	
14	0	0	0	0	514	613	
15	0	0	0	0	513	614	
0	0	0	0	0	513	614	
1	0	0	0	0	513	618	
2	0	0	0	0	513	614	
3	0	0	0	0	512	614	
4	0	0	0	0	511	614	
5	0	0	0	0	511	610	
6	0	0	0	0	512	615	
7	0	0	0	0	513	615	
8	0	0	0	0	513	615	
9	0	0	0	0	512	618	
10	0	0	0	0	511	615	
11	0	0	0	0	509	614	
12	0	0	0	0	506	614	
13	0	0	0	0	503	610	
14	0	0	0	0	500	615	
15	0	0	0	0	498	615	
0	0	0	0	0	496	615	
1	0	0	0	0	494	619	
2	0	0	0	0	493	615	
3	0	0	0	0	492	615	
4	0	0	0	0	490	615	
5	0	0	0	0	490	611	
6	0	0	0	0	491	615	
7	0	0	0	0	491	615	
8	0	0	0	0	492	615	
9	0	0	0	0	493	620	
10	0	0	0	0	494	615	
11	0	0	0	0	494	615	
12	0	0	0	0	495	615	
13	0	0	0	0	497	611	
14	0	0	0	0	499	615	
15	0	0	0	0	500	615	
0	0	0	0	0	502	615	
1	0	0	0	0	504	619	
2	0	0	0	0	506	615	
3	0	0	0	0	508	615	
4	0	0	0	0	508	615	
5	0	0	0	0	509	611	
6	0	0	0	0	510	616	
7	0	0	0	0	510	616	
8	0	0	0	0	511	616	
9	0	0	0	0	514	619	
10	0	0	0	0	519	615	
11	0	0	0	0	523	615	
12	0	0	0	0	528	615	
13	0	0	0	0	536	611	
14	0	0	0	0	544	615	
15	0	0	0	0	553	615	
0	0	0	0	0	563	614	
1	0	0	0	0	573	620	
2	0	0	0	0	583	615	
3	0	0	0	0	592	615	
4	0	0	0	0	599	615	
5	0	0	0	0	605	611	
6	0	0	0	0	609	615	
7	0	0	0	0	612	615	
8	0	0	0	0	613	615	
9	0	0	0	0	614	619	
10	0	0	0	0	613	615	
11	0	0	0	0	611	614	
12	0	0	0	0	608	615	
13	0	0	0	0	605	610	
14	0	0	0	0	601	615	
15	0	0	0	0	598	615	
0	0	0	0	0	593	614	
1	0	0	0	0	589	619	
2	0	0	0	0	584	614	
3	0	0	0	0	577	614	
4	0	0	0	0	572	614	
5	0	0	0	0	566	610	
6	0	0	0	0	559	614	
7	0	0	0	0	552	614	
8	0	0	0	0	547	614	
9	0	0	0	0	541	618	
10	0	0	0	0	535	614	
11	0	0	0	0	529	613	
12	0	0	0	0	523	613	
13	0	0	0	0	518	609	
14	0	0	0	0	513	614	
15	0	0	0	0	510	614	
0	0	0	0	0	507	615	
1	0	0	0	0	503	618	
2	0	0	0	0	501	614	
3	0	0	0	0	499	614	
4	0	0	0	0	497	613	
5	0	0	0	0	495	609	
6	0	0	0	0	494	614	
7	0	0	0	0	493	613	
8	0	0	0	0	493	613	
9	0	0	0	0	493	617	
10	0	0	0	0	493	613	
11	0	0	0	0	492	613	
12	0	0	0	0	491	613	
13	0	0	0	0	490	608	
14	0	0	0	0	490	613	
15	0	0	0	0	489	613	
0	0	0	0	0	488	613	
1	0	0	0	0	487	617	
2	0	0	0	0	487	612	
3	0	0	0	0	487	613	
4	0	0	0	0	487	613	
5	0	0	0	0	488	608	
6	0	0	0	0	488	612	
7	0	0	0	0	489	612	
8	0	0	0	0	489	613	
9	0	0	0	0	490	617	
10	0	0	0	0	490	613	
11	0	0	0	0	490	613	
12	0	0	0	0	491	612	
13	0	0	0	0	491	609	
14	0	0	0	0	491	613	
15	0	0	0	0	491	614	
0	0	0	0	0	491	613	
1	0	0	0	0	490	618	
2	0	0	0	0	490	613	
3	0	0	0	0	490	613	
4	0	0	0	0	489	613	
5	0	0	0	0	488	608	
6	0	0	0	0	487	613	
7	0	0	0	0	487	614	
8	0	0	0	0	488	614	
9	0	0	0	0	488	617	
10	0	0	0	0	488	613	
11	0	0	0	0	488	614	
12	0	0	0	0	489	613	
13	0	0	0	0	489	609	
14	0	0	0	0	491	613	
15	0	0	0	0	491	613	
0	0	0	0	0	491	613	
1	0	0	0	0	492	617	
2	0	0	0	0	492	613	
3	0	0	0	0	492	613	
4	0	0	0	0	492	613	
5	0	0	0	0	492	609	
6	0	0	0	0	492	613	
7	0	0	0	0	493	613	
8	0	0	0	0	493	612	
9	0	0	0	0	494	617	
10	0	0	0	0	494	614	
11	0	0	0	0	495	614	
12	0	0	0	0	495	613	
13	0	0	0	0	495	609	
14	0	0	0	0	495	614	
15	0	0	0	0	496	614	
0	0	0	0	0	496	614	
1	0	0	0	0	497	618	
2	0	0	0	0	497	614	
3	0	0	0	0	496	613	
4	0	0	0	0	497	614	
5	0	0	0	0	497	609	
6	0	0	0	0	498	614	
7	0	0	0	0	499	614	
8	0	0	0	0	499	614	
9	0	0	0	0	499	619	
10	0	0	0	0	499	614	
11	0	0	0	0	499	614	
12	0	0	0	0	499	613	
13	0	0	0	0	499	610	
14	0	0	0	0	499	614	
15	0	0	0	0	498	614	
0	0	0	0	0	499	614	
1	0	0	0	0	499	618	
2	0	0	0	0	499	614	
3	0	0	0	0	499	614	
4	0	0	0	0	499	614	
5	0	0	0	0	499	609	
6	0	0	0	0	499	614	
7	0	0	0	0	499	614	
8	0	0	0	0	499	615	
9	0	0	0	0	500	618	
10	0	0	0	0	501	614	
11	0	0	0	0	501	614	
12	0	0	0	0	501	614	
13	0	0	0	0	501	609	
14	0	0	0	0	502	614	
15	0	0	0	0	503	614	
0	0	0	0	0	505	614	
1	0	0	0	0	506	619	
2	0	0	0	0	506	614	
3	0	0	0	0	505	614	
4	0	0	0	0	506	614	
5	0	0	0	0	505	609	
6	0	0	0	0	504	614	
7	0	0	0	0	503	614	
8	0	0	0	0	502	613	
9	0	0	0	0	500	617	
10	0	0	0	0	500	614	
11	0	0	0	0	499	614	
12	0	0	0	0	500	614	
13	0	0	0	0	500	609	
14	0	0	0	0	500	614	
15	0	0	0	0	502	614	
0	0	0	0	0	502	614	
1	0	0	0	0	503	617	
2	0	0	0	0	505	613	
3	0	0	0	0	506	613	
4	0	0	0	0	507	612	
5	0	0	0	0	507	608	
6	0	0	0	0	507	613	
7	0	0	0	0	508	613	
8	0	0	0	0	507	614	
9	0	0	0	0	507	617	
10	0	0	0	0	507	614	
11	0	0	0	0	506	613	
12	0	0	0	0	506	612	
13	0	0	0	0	506	608	
14	0	0	0	0	505	612	
15	0	0	0	0	505	612	
0	0	0	0	0	504	612	
1	0	0	0	0	504	616	
2	0	0	0	0	504	612	
3	0	0	0	0	503	612	
4	0	0	0	0	504	612	
5	0	0	0	0	504	607	
6	0	0	0	0	504	612	
7	0	0	0	0	504	612	
8	0	0	0	0	504	612	
9	0	0	0	0	504	616	
10	0	0	0	0	505	612	
11	0	0	0	0	507	612	
12	0	0	0	0	507	612	
13	0	0	0	0	508	608	
14	0	0	0	0	509	612	
15	0	0	0	0	510	612	
0	0	0	0	0	511	612	
1	0	0	0	0	512	616	
2	0	0	0	0	512	612	
3	0	0	0	0	512	612	
4	0	0	0	0	512	612	
5	0	0	0	0	512	608	
6	0	0	0	0	512	612	
7	0	0	0	0	512	612	
8	0	0	0	0	511	611	
9	0	0	0	0	510	615	
10	0	0	0	0	509	611	
11	0	0	0	0	508	610	
12	0	0	0	0	508	611	
13	0	0	0	0	508	607	
14	0	0	0	0	509	611	
15	0	0	0	0	509	611	
0	0	0	0	0	509	611	
1	0	0	0	0	510	615	
2	0	0	0	0	511	610	
3	0	0	0	0	511	611	
4	0	0	0	0	512	611	
5	0	0	0	0	512	607	
6	0	0	0	0	513	611	
7	0	0	0	0	513	611	
8	0	0	0	0	514	611	
9	0	0	0	0	514	615	
10	0	0	0	0	514	611	
11	0	0	0	0	515	611	
12	0	0	0	0	514	611	
13	0	0	0	0	514	607	
14	0	0	0	0	513	611	
15	0	0	0	0	513	611	
0	0	0	0	0	513	611	
1	0	0	0	0	513	615	
2	0	0	0	0	514	611	
3	0	0	0	0	514	611	
4	0	0	0	0	515	611	
5	0	0	0	0	515	607	
6	0	0	0	0	515	611	
7	0	0	0	0	516	612	
8	0	0	0	0	516	611	
9	0	0	0	0	517	616	
10	0	0	0	0	518	612	
11	0	0	0	0	519	612	
12	0	0	0	0	518	611	
13	0	0	0	0	519	608	
14	0	0	0	0	519	612	
15	0	0	0	0	519	612	
0	0	0	0	0	519	612	
1	0	0	0	0	520	616	
2	0	0	0	0	521	612	
3	0	0	0	0	521	613	
4	0	0	0	0	522	612	
5	0	0	0	0	523	609	
6	0	0	0	0	523	613	
7	0	0	0	0	523	614	
8	0	0	0	0	523	614	
9	0	0	0	0	523	617	
10	0	0	0	0	523	614	
11	0	0	0	0	522	614	
12	0	0	0	0	523	614	
13	0	0	0	0	523	609	
14	0	0	0	0	523	613	
15	0	0	0	0	523	613	
0	0	0	0	0	523	614	
1	0	0	0	0	524	617	
2	0	0	0	0	524	614	
3	0	0	0	0	525	614	
4	0	0	0	0	526	614	
5	0	0	0	0	526	609	
6	0	0	0	0	526	615	
7	0	0	0	0	526	614	
8	0	0	0	0	526	614	
9	0	0	0	0	526	618	
10	0	0	0	0	526	615	
11	0	0	0	0	525	614	
12	0	0	0	0	524	614	
13	0	0	0	0	523	609	
14	0	0	0	0	522	614	
15	0	0	0	0	521	614	
0	0	0	0	0	520	615	
1	0	0	0	0	519	619	
2	0	0	0	0	518	615	
3	0	0	0	0	517	615	
4	0	0	0	0	516	615	
5	0	0	0	0	516	611	
6	0	0	0	0	516	615	
7	0	0	0	0	516	615	
8	0	0	0	0	515	616	
9	0	0	0	0	515	620	
10	0	0	0	0	515	615	
11	0	0	0	0	515	616	
12	0	0	0	0	514	615	
13	0	0	0	0	513	611	
14	0	0	0	0	512	615	
15	0	0	0	0	512	616	
0	0	0	0	0	511	616	
1	0	0	0	0	510	620	
2	0	0	0	0	509	615	
3	0	0	0	0	508	615	
4	0	0	0	0	507	615	
5	0	0	0	0	505	611	
6	0	0	0	0	504	615	
7	0	0	0	0	504	615	
8	0	0	0	0	502	615	
9	0	0	0	0	502	619	
10	0	0	0	0	501	615	
11	0	0	0	0	501	615	
12	0	0	0	0	500	615	
13	0	0	0	0	501	610	
14	0	0	0	0	501	615	
15	0	0	0	0	501	615	
0	0	0	0	0	502	615	
1	0	0	0	0	502	619	
2	0	0	0	0	503	615	
3	0	0	0	0	502	615	
4	0	0	0	0	501	615	
5	0	0	0	0	500	610	
6	0	0	0	0	500	615	
7	0	0	0	0	500	615	
8	0	0	0	0	500	615	
9	0	0	0	0	500	619	
10	0	0	0	0	499	614	
11	0	0	0	0	499	615	
12	0	0	0	0	499	615	
13	0	0	0	0	498	611	
14	0	0	0	0	498	615	
15	0	0	0	0	498	615	
0	0	0	0	0	497	615	
1	0	0	0	0	497	619	
2	0	0	0	0	497	615	
3	0	0	0	0	496	615	
4	0	0	0	0	495	615	
5	0	0	0	0	495	610	
6	0	0	0	0	495	615	
7	0	0	0	0	496	615	
8	0	0	0	0	496	615	
9	0	0	0	0	496	619	
10	0	0	0	0	497	615	
11	0	0	0	0	497	615	
12	0	0	0	0	497	615	
13	0	0	0	0	498	611	
14	0	0	0	0	498	615	
15	0	0	0	0	498	615	
0	0	0	0	0	498	615	
1	0	0	0	0	499	619	
2	0	0	0	0	500	615	
3	0	0	0	0	500	615	
4	0	0	0	0	500	615	
5	0	0	0	0	499	610	
6	0	0	0	0	499	614	
7	0	0	0	0	499	614	
8	0	0	0	0	499	615	
9	0	0	0	0	499	619	
10	0	0	0	0	499	615	
11	0	0	0	0	499	615	
12	0	0	0	0	498	614	
13	0	0	0	0	498	611	
14	0	0	0	0	498	614	
15	0	0	0	0	498	615	
0	0	0	0	0	498	615	
1	0	0	0	0	498	619	
2	0	0	0	0	498	615	
3	0	0	0	0	498	615	
4	0	0	0	0	499	614	
5	0	0	0	0	499	610	
6	0	0	0	0	500	615	
7	0	0	0	0	501	615	
8	0	0	0	0	502	615	
9	0	0	0	0	503	619	
10	0	0	0	0	504	615	
11	0	0	0	0	504	615	
12	0	0	0	0	503	614	
13	0	0	0	0	502	610	
14	0	0	0	0	502	614	
15	0	0	0	0	501	614	
0	0	0	0	0	502	614	
1	0	0	0	0	501	618	
2	0	0	0	0	501	614	
3	0	0	0	0	501	614	
4	0	0	0	0	501	615	
5	0	0	0	0	502	609	
6	0	0	0	0	502	614	
7	0	0	0	0	502	614	
8	0	0	0	0	502	614	
9	0	0	0	0	502	618	
10	0	0	0	0	502	614	
11	0	0	0	0	501	614	
12	0	0	0	0	502	613	
13	0	0	0	0	502	609	
14	0	0	0	0	503	614	
15	0	0	0	0	504	614	
0	0	0	0	0	504	614	
1	0	0	0	0	505	618	
2	0	0	0	0	505	614	
3	0	0	0	0	506	614	
4	0	0	0	0	506	613	
5	0	0	0	0	507	609	
6	0	0	0	0	507	614	
7	0	0	0	0	507	614	
8	0	0	0	0	506	613	
9	0	0	0	0	506	617	
10	0	0	0	0	505	612	
11	0	0	0	0	505	613	
12	0	0	0	0	505	612	
13	0	0	0	0	505	609	
14	0	0	0	0	505	613	
15	0	0	0	0	506	613	
0	0	0	0	0	506	613	
1	0	0	0	0	506	617	
2	0	0	0	0	507	613	
3	0	0	0	0	506	613	
4	0	0	0	0	506	613	
5	0	0	0	0	505	608	
6	0	0	0	0	506	614	
7	0	0	0	0	506	613	
8	0	0	0	0	506	613	
9	0	0	0	0	505	616	
10	0	0	0	0	505	612	
11	0	0	0	0	505	612	
12	0	0	0	0	505	612	
13	0	0	0	0	505	608	
14	0	0	0	0	505	613	
15	0	0	0	0	506	613	
0	0	0	0	0	505	613	
1	0	0	0	0	505	616	
2	0	0	0	0	504	613	
3	0	0	0	0	504	613	
4	0	0	0	0	504	612	
5	0	0	0	0	503	608	
6	0	0	0	0	503	613	
7	0	0	0	0	502	612	
8	0	0	0	0	503	613	
9	0	0	0	0	503	617	
10	0	0	0	0	503	612	
11	0	0	0	0	503	613	
12	0	0	0	0	503	613	
13	0	0	0	0	503	609	
14	0	0	0	0	504	613	
15	0	0	0	0	504	613	
0	0	0	0	0	504	613	
1	0	0	0	0	504	617	
2	0	0	0	0	504	613	
3	0	0	0	0	504	614	
4	0	0	0	0	504	613	
5	0	0	0	0	504	609	
6	0	0	0	0	505	612	
7	0	0	0	0	505	613	
8	0	0	0	0	505	613	
9	0	0	0	0	507	617	
10	0	0	0	0	508	613	
11	0	0	0	0	509	614	
12	0	0	0	0	510	612	
13	0	0	0	0	510	608	
14	0	0	0	0	510	613	
15	0	0	0	0	510	612	
0	0	0	0	0	510	613	
1	0	0	0	0	509	617	
2	0	0	0	0	509	614	
3	0	0	0	0	509	614	
4	0	0	0	0	509	614	
5	0	0	0	0	508	608	
6	0	0	0	0	508	613	
7	0	0	0	0	508	614	
8	0	0	0	0	508	613	
9	0	0	0	0	508	617	
10	0	0	0	0	509	613	
11	0	0	0	0	508	613	
12	0	0	0	0	508	612	
13	0	0	0	0	508	608	
14	0	0	0	0	508	613	
15	0	0	0	0	508	613	
0	0	0	0	0	508	613	
1	0	0	0	0	509	617	
2	0	0	0	0	510	613	
3	0	0	0	0	510	612	
4	0	0	0	0	510	612	
5	0	0	0	0	511	608	
6	0	0	0	0	511	612	
7	0	0	0	0	511	612	
8	0	0	0	0	511	613	
9	0	0	0	0	512	616	
10	0	0	0	0	512	612	
11	0	0	0	0	512	612	
12	0	0	0	0	513	612	
13	0	0	0	0	512	608	
14	0	0	0	0	513	612	
15	0	0	0	0	513	613	
0	0	0	0	0	512	612	
1	0	0	0	0	512	617	
2	0	0	0	0	512	613	
3	0	0	0	0	512	613	
4	0	0	0	0	511	612	
5	0	0	0	0	511	608	
6	0	0	0	0	511	613	
7	0	0	0	0	511	614	
8	0	0	0	0	510	612	
9	0	0	0	0	510	617	
10	0	0	0	0	510	612	
11	0	0	0	0	510	612	
12	0	0	0	0	510	612	
13	0	0	0	0	510	608	
14	0	0	0	0	511	612	
15	0	0	0	0	511	612	
0	0	0	0	0	511	613	
1	0	0	0	0	511	617	
2	0	0	0	0	511	613	
3	0	0	0	0	511	613	
4	0	0	0	0	511	613	
5	0	0	0	0	511	608	
6	0	0	0	0	510	613	
7	0	0	0	0	510	612	
8	0	0	0	0	509	613	
9	0	0	0	0	509	617	
10	0	0	0	0	508	613	
11	0	0	0	0	507	613	
12	0	0	0	0	506	613	
13	0	0	0	0	506	608	
14	0	0	0	0	505	613	
15	0	0	0	0	506	612	
0	0	0	0	0	506	613	
1	0	0	0	0	507	616	
2	0	0	0	0	507	612	
3	0	0	0	0	508	612	
4	0	0	0	0	508	612	
5	0	0	0	0	509	608	
6	0	0	0	0	510	612	
7	0	0	0	0	511	612	
8	0	0	0	0	512	612	
9	0	0	0	0	512	616	
10	0	0	0	0	513	612	
11	0	0	0	0	513	611	
12	0	0	0	0	514	612	
13	0	0	0	0	514	607	
14	0	0	0	0	514	612	
15	0	0	0	0	513	611	
0	0	0	0	0	513	612	
1	0	0	0	0	512	616	
2	0	0	0	0	512	612	
3	0	0	0	0	511	611	
4	0	0	0	0	511	611	
5	0	0	0	0	510	607	
6	0	0	0	0	510	611	
7	0	0	0	0	510	611	
8	0	0	0	0	511	612	
9	0	0	0	0	511	615	
10	0	0	0	0	512	612	
11	0	0	0	0	512	612	
12	0	0	0	0	512	611	
13	0	0	0	0	512	607	
14	0	0	0	0	512	612	
15	0	0	0	0	513	612	
0	0	0	0	0	514	612	
1	0	0	0	0	514	616	
2	0	0	0	0	514	612	
3	0	0	0	0	513	612	
4	0	0	0	0	513	612	
5	0	0	0	0	512	608	
6	0	0	0	0	512	612	
7	0	0	0	0	513	613	
8	0	0	0	0	513	613	
9	0	0	0	0	513	617	
10	0	0	0	0	513	613	
11	0	0	0	0	513	613	
12	0	0	0	0	514	613	
13	0	0	0	0	514	609	
14	0	0	0	0	513	614	
15	0	0	0	0	513	613	
0	0	0	0	0	512	613	
1	0	0	0	0	512	618	
2	0	0	0	0	512	613	
3	0	0	0	0	512	614	
4	0	0	0	0	512	614	
5	0	0	0	0	512	609	
6	0	0	0	0	513	615	
7	0	0	0	0	513	615	
8	0	0	0	0	514	614	
9	0	0	0	0	514	618	
10	0	0	0	0	515	615	
11	0	0	0	0	514	614	
12	0	0	0	0	515	615	
13	0	0	0	0	515	610	
14	0	0	0	0	515	615	
15	0	0	0	0	515	615	
0	0	0	0	0	514	615	
1	0	0	0	0	514	620	
2	0	0	0	0	514	615	
3	0	0	0	0	515	615	
4	0	0	0	0	514	616	
5	0	0	0	0	514	611	
6	0	0	0	0	515	615	
7	0	0	0	0	515	616	
8	0	0	0	0	514	616	
9	0	0	0	0	513	620	
10	0	0	0	0	513	615	
11	0	0	0	0	512	615	
12	0	0	0	0	512	615	
13	0	0	0	0	512	611	
14	0	0	0	0	511	615	
15	0	0	0	0	511	615	
0	0	0	0	0	512	616	
1	0	0	0	0	512	620	
2	0	0	0	0	512	616	
3	0	0	0	0	513	616	
4	0	0	0	0	513	616	
5	0	0	0	0	512	611	
6	0	0	0	0	512	615	
7	0	0	0	0	512	615	
8	0	0	0	0	512	615	
9	0	0	0	0	511	620	
10	0	0	0	0	512	615	
11	0	0	0	0	511	616	
12	0	0	0	0	511	615	
13	0	0	0	0	512	611	
14	0	0	0	0	512	615	
15	0	0	0	0	512	615	
0	0	0	0	0	512	615	
1	0	0	0	0	512	618	
2	0	0	0	0	511	615	
3	0	0	0	0	512	614	
4	0	0	0	0	512	614	
5	0	0	0	0	512	610	
6	0	0	0	0	512	614	
7	0	0	0	0	511	615	
8	0	0	0	0	511	614	
9	0	0	0	0	510	618	
10	0	0	0	0	509	615	
11	0	0	0	0	509	614	
12	0	0	0	0	510	615	
13	0	0	0	0	510	609	
14	0	0	0	0	511	614	
15	0	0	0	0	511	614	
0	0	0	0	0	511	614	
1	0	0	0	0	511	618	
2	0	0	0	0	511	614	
3	0	0	0	0	511	614	
4	0	0	0	0	511	614	
5	0	0	0	0	511	609	
6	0	0	0	0	511	614	
7	0	0	0	0	510	614	
8	0	0	0	0	509	614	
9	0	0	0	0	509	617	
10	0	0	0	0	510	614	
11	0	0	0	0	510	614	
12	0	0	0	0	510	614	
13	0	0	0	0	511	609	
14	0	0	0	0	511	613	
15	0	0	0	0	511	614	
0	0	0	0	0	511	614	
1	0	0	0	0	511	618	
2	0	0	0	0	512	614	
3	0	0	0	0	512	614	
4	0	0	0	0	512	614	
5	0	0	0	0	512	609	
6	0	0	0	0	512	614	
7	0	0	0	0	512	614	
8	0	0	0	0	513	614	
9	0	0	0	0	513	618	
10	0	0	0	0	514	614	
11	0	0	0	0	514	615	
12	0	0	0	0	513	614	
13	0	0	0	0	514	610	
14	0	0	0	0	514	614	
15	0	0	0	0	514	615	
0	0	0	0	0	514	614	
1	0	0	0	0	514	618	
2	0	0	0	0	515	614	
3	0	0	0	0	515	614	
4	0	0	0	0	515	615	
5	0	0	0	0	515	609	
6	0	0	0	0	516	614	
7	0	0	0	0	516	614	
8	0	0	0	0	516	614	
9	0	0	0	0	516	619	
10	0	0	0	0	518	614	
11	0	0	0	0	518	615	
12	0	0	0	0	517	614	
13	0	0	0	0	517	610	
14	0	0	0	0	516	614	
15	0	0	0	0	517	614	
0	0	0	0	0	516	613	
1	0	0	0	0	516	617	
2	0	0	0	0	516	613	
3	0	0	0	0	516	614	
4	0	0	0	0	516	614	
5	0	0	0	0	516	609	
6	0	0	0	0	516	613	
7	0	0	0	0	517	613	
8	0	0	0	0	517	614	
9	0	0	0	0	516	617	
10	0	0	0	0	515	613	
11	0	0	0	0	513	613	
12	0	0	0	0	513	612	
13	0	0	0	0	512	609	
14	0	0	0	0	512	614	
15	0	0	0	0	512	614	
0	0	0	0	0	512	614	
1	0	0	0	0	512	618	
2	0	0	0	0	512	613	
3	0	0	0	0	511	613	
4	0	0	0	0	511	613	
5	0	0	0	0	511	608	
6	0	0	0	0	511	613	
7	0	0	0	0	512	613	
8	0	0	0	0	512	613	
9	0	0	0	0	513	617	
10	0	0	0	0	514	613	
11	0	0	0	0	514	613	
12	0	0	0	0	515	612	
13	0	0	0	0	514	608	
14	0	0	0	0	514	613	
15	0	0	0	0	514	613	
0	0	0	0	0	514	613	
1	0	0	0	0	515	617	
2	0	0	0	0	515	613	
3	0	0	0	0	515	613	
4	0	0	0	0	515	613	
5	0	0	0	0	515	609	
6	0	0	0	0	515	613	
7	0	0	0	0	515	613	
8	0	0	0	0	516	614	
9	0	0	0	0	515	617	
10	0	0	0	0	516	613	
11	0	0	0	0	516	613	
12	0	0	0	0	516	612	
13	0	0	0	0	516	609	
14	0	0	0	0	516	613	
15	0	0	0	0	517	613	
0	0	0	0	0	516	613	
1	0	0	0	0	516	617	
2	0	0	0	0	516	613	
3	0	0	0	0	515	613	
4	0	0	0	0	514	613	
5	0	0	0	0	513	609	
6	0	0	0	0	512	613	
7	0	0	0	0	512	613	
8	0	0	0	0	512	613	
9	0	0	0	0	511	617	
10	0	0	0	0	511	613	
11	0	0	0	0	511	613	
12	0	0	0	0	511	613	
13	0	0	0	0	511	608	
14	0	0	0	0	512	613	
15	0	0	0	0	513	612	
0	0	0	0	0	514	613	
1	0	0	0	0	515	616	
2	0	0	0	0	515	612	
3	0	0	0	0	515	612	
4	0	0	0	0	515	612	
5	0	0	0	0	515	608	
6	0	0	0	0	515	612	
7	0	0	0	0	514	613	
8	0	0	0	0	513	612	
9	0	0	0	0	513	617	
10	0	0	0	0	512	613	
11	0	0	0	0	512	613	
12	0	0	0	0	510	612	
13	0	0	0	0	509	608	
14	0	0	0	0	507	612	
15	0	0	0	0	504	612	
0	0	0	0	0	502	614	
1	0	0	0	0	499	617	
2	0	0	0	0	496	612	
3	0	0	0	0	494	613	
4	0	0	0	0	492	612	
5	0	0	0	0	490	608	
6	0	0	0	0	488	612	
7	0	0	0	0	486	612	
8	0	0	0	0	484	613	
9	0	0	0	0	483	617	
10	0	0	0	0	483	613	
11	0	0	0	0	483	613	
12	0	0	0	0	484	612	
13	0	0	0	0	486	608	
14	0	0	0	0	487	612	
15	0	0	0	0	488	612	
0	0	0	0	0	490	612	
1	0	0	0	0	492	616	
2	0	0	0	0	494	612	
3	0	0	0	0	495	611	
4	0	0	0	0	498	611	
5	0	0	0	0	500	607	
6	0	0	0	0	504	611	
7	0	0	0	0	506	611	
8	0	0	0	0	508	612	
9	0	0	0	0	508	615	
10	0	0	0	0	509	611	
11	0	0	0	0	508	611	
12	0	0	0	0	509	611	
13	0	0	0	0	510	607	
14	0	0	0	0	512	611	
15	0	0	0	0	515	611	
0	0	0	0	0	520	611	
1	0	0	0	0	527	615	
2	0	0	0	0	534	612	
3	0	0	0	0	542	611	
4	0	0	0	0	551	611	
5	0	0	0	0	560	607	
6	0	0	0	0	570	611	
7	0	0	0	0	579	612	
8	0	0	0	0	587	611	
9	0	0	0	0	593	615	
10	0	0	0	0	599	611	
11	0	0	0	0	603	611	
12	0	0	0	0	605	611	
13	0	0	0	0	607	606	
14	0	0	0	0	606	611	
15	0	0	0	0	603	611	
0	0	0	0	0	599	612	
1	0	0	0	0	594	615	
2	0	0	0	0	591	611	
3	0	0	0	0	586	611	
4	0	0	0	0	583	611	
5	0	0	0	0	577	606	
6	0	0	0	0	572	611	
7	0	0	0	0	568	611	
8	0	0	0	0	561	611	
9	0	0	0	0	557	615	
10	0	0	0	0	551	611	
11	0	0	0	0	546	612	
12	0	0	0	0	541	611	
13	0	0	0	0	536	607	
14	0	0	0	0	532	612	
15	0	0	0	0	528	611	
0	0	0	0	0	524	612	
1	0	0	0	0	521	616	
2	0	0	0	0	517	612	
3	0	0	0	0	514	612	
4	0	0	0	0	511	612	
5	0	0	0	0	509	609	
6	0	0	0	0	506	613	
7	0	0	0	0	504	613	
8	0	0	0	0	502	613	
9	0	0	0	0	500	618	
10	0	0	0	0	498	613	
11	0	0	0	0	497	614	
12	0	0	0	0	496	615	
13	0	0	0	0	495	609	
14	0	0	0	0	494	614	
15	0	0	0	0	493	614	
0	0	0	0	0	493	615	
1	0	0	0	0	493	618	
2	0	0	0	0	492	614	
3	0	0	0	0	491	614	
4	0	0	0	0	491	614	
5	0	0	0	0	491	610	
6	0	0	0	0	491	615	
7	0	0	0	0	491	615	
8	0	0	0	0	491	615	
9	0	0	0	0	491	619	
10	0	0	0	0	491	615	
11	0	0	0	0	490	615	
12	0	0	0	0	490	614	
13	0	0	0	0	489	610	
14	0	0	0	0	489	614	
15	0	0	0	0	489	615	
0	0	0	0	0	487	615	
1	0	0	0	0	487	619	
2	0	0	0	0	488	615	
3	0	0	0	0	487	615	
4	0	0	0	0	487	614	
5	0	0	0	0	488	610	
6	0	0	0	0	488	614	
7	0	0	0	0	488	615	
8	0	0	0	0	489	615	
9	0	0	0	0	489	619	
10	0	0	0	0	490	615	
11	0	0	0	0	490	614	
12	0	0	0	0	491	614	
13	0	0	0	0	491	611	
14	0	0	0	0	491	615	
15	0	0	0	0	492	614	
0	0	0	0	0	493	615	
1	0	0	0	0	494	619	
2	0	0	0	0	494	615	
3	0	0	0	0	494	614	
4	0	0	0	0	494	614	
5	0	0	0	0	494	609	
6	0	0	0	0	493	614	
7	0	0	0	0	493	614	
8	0	0	0	0	493	614	
9	0	0	0	0	493	617	
10	0	0	0	0	494	614	
11	0	0	0	0	494	614	
12	0	0	0	0	494	614	
13	0	0	0	0	494	609	
14	0	0	0	0	494	614	
15	0	0	0	0	494	614	
0	0	0	0	0	494	614	
1	0	0	0	0	494	617	
2	0	0	0	0	495	614	
3	0	0	0	0	496	614	
4	0	0	0	0	496	614	
5	0	0	0	0	496	609	
6	0	0	0	0	496	613	
7	0	0	0	0	496	613	
8	0	0	0	0	496	614	
9	0	0	0	0	496	617	
10	0	0	0	0	496	614	
11	0	0	0	0	496	614	
12	0	0	0	0	497	614	
13	0	0	0	0	496	609	
14	0	0	0	0	496	614	
15	0	0	0	0	497	614	
0	0	0	0	0	497	614	
1	0	0	0	0	498	618	
2	0	0	0	0	498	615	
3	0	0	0	0	497	615	
4	0	0	0	0	497	615	
5	0	0	0	0	497	610	
6	0	0	0	0	497	614	
7	0	0	0	0	496	614	
8	0	0	0	0	496	614	
9	0	0	0	0	495	618	
10	0	0	0	0	496	614	
11	0	0	0	0	496	614	
12	0	0	0	0	496	613	
13	0	0	0	0	497	610	
14	0	0	0	0	497	614	
15	0	0	0	0	497	614	
0	0	0	0	0	498	614	
1	0	0	0	0	498	617	
2	0	0	0	0	498	614	
3	0	0	0	0	498	614	
4	0	0	0	0	499	614	
5	0	0	0	0	499	609	
6	0	0	0	0	499	613	
7	0	0	0	0	500	614	
8	0	0	0	0	502	614	
9	0	0	0	0	502	618	
10	0	0	0	0	503	615	
11	0	0	0	0	504	614	
12	0	0	0	0	504	614	
13	0	0	0	0	503	609	
14	0	0	0	0	503	614	
15	0	0	0	0	502	615	
0	0	0	0	0	501	615	
1	0	0	0	0	501	619	
2	0	0	0	0	501	615	
3	0	0	0	0	501	615	
4	0	0	0	0	500	614	
5	0	0	0	0	501	610	
6	0	0	0	0	501	614	
7	0	0	0	0	501	614	
8	0	0	0	0	501	614	
9	0	0	0	0	502	618	
10	0	0	0	0	502	614	
11	0	0	0	0	503	614	
12	0	0	0	0	504	614	
13	0	0	0	0	504	610	
14	0	0	0	0	505	614	
15	0	0	0	0	504	615	
0	0	0	0	0	504	615	
1	0	0	0	0	504	618	
2	0	0	0	0	504	615	
3	0	0	0	0	504	614	
4	0	0	0	0	504	614	
5	0	0	0	0	504	609	
6	0	0	0	0	504	614	
7	0	0	0	0	503	615	
8	0	0	0	0	503	615	
9	0	0	0	0	504	619	
10	0	0	0	0	505	614	
11	0	0	0	0	506	615	
12	0	0	0	0	507	615	
13	0	0	0	0	508	611	
14	0	0	0	0	508	614	
15	0	0	0	0	510	615	
0	0	0	0	0	511	615	
1	0	0	0	0	512	618	
2	0	0	0	0	512	614	
3	0	0	0	0	512	614	
4	0	0	0	0	512	613	
5	0	0	0	0	511	609	
6	0	0	0	0	511	614	
7	0	0	0	0	511	613	
8	0	0	0	0	512	614	
9	0	0	0	0	511	617	
10	0	0	0	0	512	613	
11	0	0	0	0	512	613	
12	0	0	0	0	512	613	
13	0	0	0	0	512	608	
14	0	0	0	0	512	613	
15	0	0	0	0	512	613	
0	0	0	0	0	512	614	
1	0	0	0	0	512	618	
2	0	0	0	0	512	614	
3	0	0	0	0	512	614	
4	0	0	0	0	512	614	
5	0	0	0	0	511	609	
6	0	0	0	0	511	614	
7	0	0	0	0	510	613	
8	0	0	0	0	511	613	
9	0	0	0	0	510	617	
10	0	0	0	0	509	614	
11	0	0	0	0	508	614	
12	0	0	0	0	507	613	
13	0	0	0	0	507	609	
14	0	0	0	0	507	613	
15	0	0	0	0	507	613	
0	0	0	0	0	507	613	
1	0	0	0	0	507	618	
2	0	0	0	0	507	613	
3	0	0	0	0	507	614	
4	0	0	0	0	507	613	
5	0	0	0	0	508	609	
6	0	0	0	0	510	613	
7	0	0	0	0	512	613	
8	0	0	0	0	515	614	
9	0	0	0	0	517	618	
10	0	0	0	0	520	614	
11	0	0	0	0	522	614	
12	0	0	0	0	523	614	
13	0	0	0	0	523	609	
14	0	0	0	0	524	614	
15	0	0	0	0	524	614	
0	0	0	0	0	524	614	
1	0	0	0	0	524	618	
2	0	0	0	0	524	614	
3	0	0	0	0	524	613	
4	0	0	0	0	524	612	
5	0	0	0	0	523	608	
6	0	0	0	0	522	613	
7	0	0	0	0	522	613	
8	0	0	0	0	521	614	
9	0	0	0	0	520	617	
10	0	0	0	0	519	612	
11	0	0	0	0	519	612	
12	0	0	0	0	521	613	
13	0	0	0	0	521	608	
14	0	0	0	0	522	613	
15	0	0	0	0	522	613	
0	0	0	0	0	523	613	
1	0	0	0	0	523	617	
2	0	0	0	0	524	614	
3	0	0	0	0	524	613	
4	0	0	0	0	525	612	
5	0	0	0	0	526	608	
6	0	0	0	0	527	613	
7	0	0	0	0	527	613	
8	0	0	0	0	526	613	
9	0	0	0	0	526	617	
10	0	0	0	0	526	613	
11	0	0	0	0	525	613	
12	0	0	0	0	526	613	
13	0	0	0	0	526	608	
14	0	0	0	0	525	613	
15	0	0	0	0	525	613	
0	0	0	0	0	524	613	
1	0	0	0	0	524	617	
2	0	0	0	0	523	614	
3	0	0	0	0	523	613	
4	0	0	0	0	522	613	
5	0	0	0	0	521	609	
6	0	0	0	0	520	614	
7	0	0	0	0	520	614	
8	0	0	0	0	519	614	
9	0	0	0	0	517	617	
10	0	0	0	0	516	614	
11	0	0	0	0	515	614	
12	0	0	0	0	515	614	
13	0	0	0	0	514	609	
14	0	0	0	0	513	615	
15	0	0	0	0	512	614	
0	0	0	0	0	512	615	
1	0	0	0	0	512	618	
2	0	0	0	0	512	614	
3	0	0	0	0	511	614	
4	0	0	0	0	512	614	
5	0	0	0	0	512	609	
6	0	0	0	0	511	615	
7	0	0	0	0	511	614	
8	0	0	0	0	510	614	
9	0	0	0	0	509	619	
10	0	0	0	0	509	615	
11	0	0	0	0	507	615	
12	0	0	0	0	506	615	
13	0	0	0	0	504	611	
14	0	0	0	0	502	614	
15	0	0	0	0	500	615	
0	0	0	0	0	499	615	
1	0	0	0	0	498	619	
2	0	0	0	0	496	615	
3	0	0	0	0	496	615	
4	0	0	0	0	495	615	
5	0	0	0	0	495	611	
6	0	0	0	0	495	615	
7	0	0	0	0	495	615	
8	0	0	0	0	496	615	
9	0	0	0	0	496	619	
10	0	0	0	0	497	615	
11	0	0	0	0	497	615	
12	0	0	0	0	497	615	
13	0	0	0	0	496	611	
14	0	0	0	0	495	615	
15	0	0	0	0	495	615	
0	0	0	0	0	495	615	
1	0	0	0	0	496	618	
2	0	0	0	0	496	615	
3	0	0	0	0	495	614	
4	0	0	0	0	495	614	
5	0	0	0	0	495	610	
6	0	0	0	0	494	614	
7	0	0	0	0	493	614	
8	0	0	0	0	493	615	
9	0	0	0	0	492	618	
10	0	0	0	0	492	614	
11	0	0	0	0	491	614	
12	0	0	0	0	491	614	
13	0	0	0	0	490	609	
14	0	0	0	0	489	614	
15	0	0	0	0	488	615	
0	0	0	0	0	488	614	
1	0	0	0	0	487	618	
2	0	0	0	0	487	615	
3	0	0	0	0	487	614	
4	0	0	0	0	488	614	
5	0	0	0	0	488	609	
6	0	0	0	0	488	614	
7	0	0	0	0	489	614	
8	0	0	0	0	488	614	
9	0	0	0	0	488	617	
10	0	0	0	0	487	612	
11	0	0	0	0	487	614	
12	0	0	0	0	486	613	
13	0	0	0	0	485	609	
14	0	0	0	0	484	614	
15	0	0	0	0	484	613	
0	0	0	0	0	484	612	
1	0	0	0	0	485	617	
2	0	0	0	0	486	612	
3	0	0	0	0	485	613	
4	0	0	0	0	485	612	
5	0	0	0	0	486	608	
6	0	0	0	0	486	613	
7	0	0	0	0	486	613	
8	0	0	0	0	487	613	
9	0	0	0	0	487	616	
10	0	0	0	0	487	612	
11	0	0	0	0	487	612	
12	0	0	0	0	486	612	
13	0	0	0	0	487	608	
14	0	0	0	0	487	612	
15	0	0	0	0	487	612	
0	0	0	0	0	486	612	
1	0	0	0	0	486	616	
2	0	0	0	0	486	612	
3	0	0	0	0	486	612	
4	0	0	0	0	485	613	
5	0	0	0	0	485	608	
6	0	0	0	0	484	613	
7	0	0	0	0	484	614	
8	0	0	0	0	483	612	
9	0	0	0	0	483	617	
10	0	0	0	0	484	613	
11	0	0	0	0	483	613	
12	0	0	0	0	483	613	
13	0	0	0	0	483	608	
14	0	0	0	0	483	613	
15	0	0	0	0	484	613	
0	0	0	0	0	484	614	
1	0	0	0	0	485	617	
2	0	0	0	0	485	613	
3	0	0	0	0	484	613	
4	0	0	0	0	484	612	
5	0	0	0	0	483	608	
6	0	0	0	0	482	613	
7	0	0	0	0	482	614	
8	0	0	0	0	482	613	
9	0	0	0	0	483	617	
10	0	0	0	0	483	613	
11	0	0	0	0	483	613	
12	0	0	0	0	483	612	
13	0	0	0	0	483	608	
14	0	0	0	0	484	613	
15	0	0	0	0	484	613	
0	0	0	0	0	484	613	
1	0	0	0	0	485	617	
2	0	0	0	0	485	613	
3	0	0	0	0	485	613	
4	0	0	0	0	487	613	
5	0	0	0	0	487	608	
6	0	0	0	0	489	613	
7	0	0	0	0	491	614	
8	0	0	0	0	491	614	
9	0	0	0	0	491	618	
10	0	0	0	0	491	614	
11	0	0	0	0	492	614	
12	0	0	0	0	492	613	
13	0	0	0	0	492	609	
14	0	0	0	0	492	613	
15	0	0	0	0	492	613	
0	0	0	0	0	492	613	
1	0	0	0	0	492	617	
2	0	0	0	0	491	613	
3	0	0	0	0	490	613	
4	0	0	0	0	489	613	
5	0	0	0	0	489	609	
6	0	0	0	0	490	612	
7	0	0	0	0	490	613	
8	0	0	0	0	491	613	
9	0	0	0	0	491	616	
10	0	0	0	0	492	613	
11	0	0	0	0	493	613	
12	0	0	0	0	494	612	
13	0	0	0	0	495	608	
14	0	0	0	0	495	613	
15	0	0	0	0	496	612	
0	0	0	0	0	497	613	
1	0	0	0	0	496	616	
2	0	0	0	0	496	612	
3	0	0	0	0	497	612	
4	0	0	0	0	497	612	
5	0	0	0	0	497	608	
6	0	0	0	0	497	611	
7	0	0	0	0	497	612	
8	0	0	0	0	497	612	
9	0	0	0	0	497	615	
10	0	0	0	0	497	611	
11	0	0	0	0	496	612	
12	0	0	0	0	496	611	
13	0	0	0	0	496	608	
14	0	0	0	0	497	613	
15	0	0	0	0	497	612	
0	0	0	0	0	497	612	
1	0	0	0	0	497	616	
2	0	0	0	0	498	612	
3	0	0	0	0	498	612	
4	0	0	0	0	498	612	
5	0	0	0	0	497	608	
6	0	0	0	0	497	613	
7	0	0	0	0	498	613	
8	0	0	0	0	498	613	
9	0	0	0	0	498	617	
10	0	0	0	0	500	612	
11	0	0	0	0	502	612	
12	0	0	0	0	503	612	
13	0	0	0	0	502	608	
14	0	0	0	0	502	613	
15	0	0	0	0	502	612	
0	0	0	0	0	503	613	
1	0	0	0	0	503	616	
2	0	0	0	0	504	612	
3	0	0	0	0	504	612	
4	0	0	0	0	504	612	
5	0	0	0	0	505	608	
6	0	0	0	0	504	612	
7	0	0	0	0	504	612	
8	0	0	0	0	504	613	
9	0	0	0	0	503	617	
10	0	0	0	0	502	612	
11	0	0	0	0	501	612	
12	0	0	0	0	500	612	
13	0	0	0	0	499	608	
14	0	0	0	0	498	612	
15	0	0	0	0	498	613	
0	0	0	0	0	498	613	
1	0	0	0	0	499	617	
2	0	0	0	0	499	613	
3	0	0	0	0	500	614	
4	0	0	0	0	500	614	
5	0	0	0	0	501	609	
6	0	0	0	0	502	613	
7	0	0	0	0	502	614	
8	0	0	0	0	503	614	
9	0	0	0	0	504	618	
10	0	0	0	0	504	615	
11	0	0	0	0	504	614	
12	0	0	0	0	505	614	
13	0	0	0	0	506	609	
14	0	0	0	0	506	614	
15	0	0	0	0	506	614	
0	0	0	0	0	506	614	
1	0	0	0	0	505	617	
2	0	0	0	0	505	614	
3	0	0	0	0	505	614	
4	0	0	0	0	505	613	
5	0	0	0	0	506	609	
6	0	0	0	0	506	614	
7	0	0	0	0	506	614	
8	0	0	0	0	506	614	
9	0	0	0	0	506	618	
10	0	0	0	0	506	614	
11	0	0	0	0	507	614	
12	0	0	0	0	506	614	
13	0	0	0	0	505	609	
14	0	0	0	0	506	614	
15	0	0	0	0	506	614	
0	0	0	0	0	506	613	
1	0	0	0	0	506	619	
2	0	0	0	0	507	614	
3	0	0	0	0	506	614	
4	0	0	0	0	506	614	
5	0	0	0	0	505	609	
6	0	0	0	0	505	614	
7	0	0	0	0	505	613	
8	0	0	0	0	505	614	
9	0	0	0	0	505	618	
10	0	0	0	0	506	614	
11	0	0	0	0	505	614	
12	0	0	0	0	506	614	
13	0	0	0	0	505	610	
14	0	0	0	0	505	614	
15	0	0	0	0	505	614	
0	0	0	0	0	504	615	
1	0	0	0	0	505	619	
2	0	0	0	0	505	614	
3	0	0	0	0	505	615	
4	0	0	0	0	506	615	
5	0	0	0	0	507	610	
6	0	0	0	0	508	615	
7	0	0	0	0	509	614	
8	0	0	0	0	509	615	
9	0	0	0	0	510	619	
10	0	0	0	0	511	615	
11	0	0	0	0	511	613	
12	0	0	0	0	512	614	
13	0	0	0	0	512	609	
14	0	0	0	0	512	614	
15	0	0	0	0	512	613	
0	0	0	0	0	512	614	
1	0	0	0	0	512	618	
2	0	0	0	0	512	614	
3	0	0	0	0	512	614	
4	0	0	0	0	512	614	
5	0	0	0	0	512	609	
6	0	0	0	0	512	614	
7	0	0	0	0	512	613	
8	0	0	0	0	512	614	
9	0	0	0	0	512	618	
10	0	0	0	0	512	614	
11	0	0	0	0	512	614	
12	0	0	0	0	512	614	
13	0	0	0	0	511	609	
14	0	0	0	0	511	614	
15	0	0	0	0	510	614	
0	0	0	0	0	509	615	
1	0	0	0	0	509	619	
2	0	0	0	0	508	615	
3	0	0	0	0	508	615	
4	0	0	0	0	508	615	
5	0	0	0	0	508	611	
6	0	0	0	0	509	615	
7	0	0	0	0	509	615	
8	0	0	0	0	509	615	
9	0	0	0	0	510	619	
10	0	0	0	0	511	615	
11	0	0	0	0	512	615	
12	0	0	0	0	512	615	
13	0	0	0	0	513	611	
14	0	0	0	0	513	615	
15	0	0	0	0	514	615	
0	0	0	0	0	514	615	
1	0	0	0	0	515	620	
2	0	0	0	0	515	615	
3	0	0	0	0	515	615	
4	0	0	0	0	514	615	
5	0	0	0	0	515	611	
6	0	0	0	0	515	615	
7	0	0	0	0	514	615	
8	0	0	0	0	515	616	
9	0	0	0	0	515	620	
10	0	0	0	0	515	615	
11	0	0	0	0	515	615	
12	0	0	0	0	515	615	
13	0	0	0	0	516	611	
14	0	0	0	0	516	615	
15	0	0	0	0	515	616	
0	0	0	0	0	515	615	
1	0	0	0	0	514	620	
2	0	0	0	0	515	615	
3	0	0	0	0	515	615	
4	0	0	0	0	515	615	
5	0	0	0	0	515	611	
6	0	0	0	0	516	615	
7	0	0	0	0	515	615	
8	0	0	0	0	515	616	
9	0	0	0	0	515	620	
10	0	0	0	0	515	615	
11	0	0	0	0	515	615	
12	0	0	0	0	515	615	
13	0	0	0	0	515	611	
14	0	0	0	0	514	615	
15	0	0	0	0	514	615	
0	0	0	0	0	513	615	
1	0	0	0	0	512	619	
2	0	0	0	0	512	615	
3	0	0	0	0	512	615	
4	0	0	0	0	512	615	
5	0	0	0	0	512	609	
6	0	0	0	0	512	615	
7	0	0	0	0	512	614	
8	0	0	0	0	512	615	
9	0	0	0	0	511	618	
10	0	0	0	0	512	614	
11	0	0	0	0	512	614	
12	0	0	0	0	513	613	
13	0	0	0	0	513	609	
14	0	0	0	0	513	614	
15	0	0	0	0	514	614	
0	0	0	0	0	515	614	
1	0	0	0	0	515	617	
2	0	0	0	0	515	613	
3	0	0	0	0	514	614	
4	0	0	0	0	513	612	
5	0	0	0	0	513	609	
6	0	0	0	0	513	613	
7	0	0	0	0	513	613	
8	0	0	0	0	513	614	
9	0	0	0	0	513	617	
10	0	0	0	0	513	613	
11	0	0	0	0	512	613	
12	0	0	0	0	512	612	
13	0	0	0	0	511	608	
14	0	0	0	0	511	612	
15	0	0	0	0	511	613	
0	0	0	0	0	512	613	
1	0	0	0	0	512	616	
2	0	0	0	0	513	613	
3	0	0	0	0	513	612	
4	0	0	0	0	514	613	
5	0	0	0	0	514	608	
6	0	0	0	0	514	613	
7	0	0	0	0	513	613	
8	0	0	0	0	512	614	
9	0	0	0	0	512	617	
10	0	0	0	0	511	614	
11	0	0	0	0	511	613	
12	0	0	0	0	511	612	
13	0	0	0	0	510	608	
14	0	0	0	0	510	613	
15	0	0	0	0	510	613	
0	0	0	0	0	510	614	
1	0	0	0	0	511	617	
2	0	0	0	0	511	614	
3	0	0	0	0	511	613	
4	0	0	0	0	511	614	
5	0	0	0	0	511	609	
6	0	0	0	0	512	614	
7	0	0	0	0	512	613	
8	0	0	0	0	512	612	
9	0	0	0	0	513	616	
10	0	0	0	0	513	612	
11	0	0	0	0	513	613	
12	0	0	0	0	513	612	
13	0	0	0	0	513	608	
14	0	0	0	0	513	613	
15	0	0	0	0	513	614	
0	0	0	0	0	514	614	
1	0	0	0	0	514	617	
2	0	0	0	0	515	614	
3	0	0	0	0	515	613	
4	0	0	0	0	516	613	
5	0	0	0	0	516	609	
6	0	0	0	0	517	614	
7	0	0	0	0	518	614	
8	0	0	0	0	519	614	
9	0	0	0	0	519	617	
10	0	0	0	0	519	613	
11	0	0	0	0	519	613	
12	0	0	0	0	519	613	
13	0	0	0	0	519	608	
14	0	0	0	0	519	613	
15	0	0	0	0	519	613	
0	0	0	0	0	518	613	
1	0	0	0	0	519	617	
2	0	0	0	0	519	613	
3	0	0	0	0	519	613	
4	0	0	0	0	519	613	
5	0	0	0	0	519	608	
6	0	0	0	0	519	613	
7	0	0	0	0	519	613	
8	0	0	0	0	519	613	
9	0	0	0	0	519	617	
10	0	0	0	0	519	613	
11	0	0	0	0	520	613	
12	0	0	0	0	520	613	
13	0	0	0	0	520	608	
14	0	0	0	0	520	613	
15	0	0	0	0	520	613	
0	0	0	0	0	520	612	
1	0	0	0	0	520	617	
2	0	0	0	0	519	613	
3	0	0	0	0	518	612	
4	0	0	0	0	517	613	
5	0	0	0	0	516	608	
6	0	0	0	0	516	612	
7	0	0	0	0	515	612	
8	0	0	0	0	515	612	
9	0	0	0	0	516	616	
10	0	0	0	0	516	612	
11	0	0	0	0	517	612	
12	0	0	0	0	517	613	
13	0	0	0	0	518	607	
14	0	0	0	0	518	612	
15	0	0	0	0	518	612	
0	0	0	0	0	518	613	
1	0	0	0	0	517	616	
2	0	0	0	0	516	612	
3	0	0	0	0	517	612	
4	0	0	0	0	517	612	
5	0	0	0	0	517	608	
6	0	0	0	0	517	612	
7	0	0	0	0	517	612	
8	0	0	0	0	517	612	
9	0	0	0	0	517	616	
10	0	0	0	0	517	612	
11	0	0	0	0	516	611	
12	0	0	0	0	516	611	
13	0	0	0	0	516	607	
14	0	0	0	0	515	611	
15	0	0	0	0	515	611	
0	0	0	0	0	515	611	
1	0	0	0	0	515	615	
2	0	0	0	0	515	611	
3	0	0	0	0	516	611	
4	0	0	0	0	516	612	
5	0	0	0	0	517	607	
6	0	0	0	0	518	611	
7	0	0	0	0	518	611	
8	0	0	0	0	517	612	
9	0	0	0	0	517	616	
10	0	0	0	0	516	611	
11	0	0	0	0	516	612	
12	0	0	0	0	515	612	
13	0	0	0	0	514	608	
14	0	0	0	0	513	613	
15	0	0	0	0	513	612	
0	0	0	0	0	512	612	
1	0	0	0	0	512	616	
2	0	0	0	0	513	612	
3	0	0	0	0	512	612	
4	0	0	0	0	512	612	
5	0	0	0	0	512	608	
6	0	0	0	0	511	613	
7	0	0	0	0	511	613	
8	0	0	0	0	511	613	
9	0	0	0	0	511	617	
10	0	0	0	0	511	613	
11	0	0	0	0	511	612	
12	0	0	0	0	512	613	
13	0	0	0	0	512	609	
14	0	0	0	0	512	613	
15	0	0	0	0	512	613	
0	0	0	0	0	513	613	
1	0	0	0	0	514	617	
2	0	0	0	0	515	614	
3	0	0	0	0	515	614	
4	0	0	0	0	515	613	
5	0	0	0	0	516	609	
6	0	0	0	0	515	614	
7	0	0	0	0	515	613	
8	0	0	0	0	515	614	
9	0	0	0	0	515	617	
10	0	0	0	0	514	613	
11	0	0	0	0	513	613	
12	0	0	0	0	511	613	
13	0	0	0	0	508	609	
14	0	0	0	0	505	613	
15	0	0	0	0	503	613	
0	0	0	0	0	500	614	
1	0	0	0	0	498	618	
2	0	0	0	0	496	614	
3	0	0	0	0	494	614	
4	0	0	0	0	492	614	
5	0	0	0	0	490	610	
6	0	0	0	0	489	614	
7	0	0	0	0	489	614	
8	0	0	0	0	489	614	
9	0	0	0	0	490	618	
10	0	0	0	0	491	614	
11	0	0	0	0	491	614	
12	0	0	0	0	492	614	
13	0	0	0	0	493	610	
14	0	0	0	0	495	614	
15	0	0	0	0	497	614	
0	0	0	0	0	499	614	
1	0	0	0	0	502	619	
2	0	0	0	0	506	614	
3	0	0	0	0	510	614	
4	0	0	0	0	513	614	
5	0	0	0	0	515	609	
6	0	0	0	0	517	614	
7	0	0	0	0	517	614	
8	0	0	0	0	517	614	
9	0	0	0	0	518	618	
10	0	0	0	0	519	614	
11	0	0	0	0	520	614	
12	0	0	0	0	522	614	
13	0	0	0	0	525	609	
14	0	0	0	0	529	614	
15	0	0	0	0	534	614	
0	0	0	0	0	540	614	
1	0	0	0	0	546	617	
2	0	0	0	0	553	614	
3	0	0	0	0	559	614	
4	0	0	0	0	564	613	
5	0	0	0	0	568	609	
6	0	0	0	0	572	614	
7	0	0	0	0	574	614	
8	0	0	0	0	576	614	
9	0	0	0	0	579	618	
10	0	0	0	0	581	614	
11	0	0	0	0	581	614	
12	0	0	0	0	581	614	
13	0	0	0	0	579	609	
14	0	0	0	0	576	614	
15	0	0	0	0	572	615	
0	0	0	0	0	569	614	
1	0	0	0	0	566	618	
2	0	0	0	0	563	614	
3	0	0	0	0	561	614	
4	0	0	0	0	558	614	
5	0	0	0	0	555	609	
6	0	0	0	0	552	614	
7	0	0	0	0	548	614	
8	0	0	0	0	545	614	
9	0	0	0	0	542	618	
10	0	0	0	0	540	614	
11	0	0	0	0	536	614	
12	0	0	0	0	534	614	
13	0	0	0	0	531	610	
14	0	0	0	0	527	614	
15	0	0	0	0	524	614	
0	0	0	0	0	521	614	
1	0	0	0	0	518	618	
2	0	0	0	0	515	614	
3	0	0	0	0	512	614	
4	0	0	0	0	510	614	
5	0	0	0	0	508	609	
6	0	0	0	0	507	614	
7	0	0	0	0	505	615	
8	0	0	0	0	504	615	
9	0	0	0	0	504	619	
10	0	0	0	0	504	615	
11	0	0	0	0	503	615	
12	0	0	0	0	502	615	
13	0	0	0	0	501	611	
14	0	0	0	0	501	616	
15	0	0	0	0	500	615	
0	0	0	0	0	500	615	
1	0	0	0	0	500	619	
2	0	0	0	0	499	615	
3	0	0	0	0	499	615	
4	0	0	0	0	499	614	
5	0	0	0	0	499	609	
6	0	0	0	0	499	615	
7	0	0	0	0	499	615	
8	0	0	0	0	499	614	
9	0	0	0	0	498	618	
10	0	0	0	0	498	614	
11	0	0	0	0	498	615	
12	0	0	0	0	498	614	
13	0	0	0	0	498	610	
14	0	0	0	0	498	614	
15	0	0	0	0	497	614	
0	0	0	0	0	496	614	
1	0	0	0	0	497	618	
2	0	0	0	0	497	614	
3	0	0	0	0	497	614	
4	0	0	0	0	497	615	
5	0	0	0	0	497	610	
6	0	0	0	0	498	615	
7	0	0	0	0	499	615	
8	0	0	0	0	498	615	
9	0	0	0	0	498	618	
10	0	0	0	0	498	614	
11	0	0	0	0	498	615	
12	0	0	0	0	498	614	
13	0	0	0	0	498	608	
14	0	0	0	0	497	614	
15	0	0	0	0	496	614	
0	0	0	0	0	496	615	
1	0	0	0	0	496	618	
2	0	0	0	0	496	614	
3	0	0	0	0	496	614	
4	0	0	0	0	496	614	
5	0	0	0	0	498	609	
6	0	0	0	0	499	614	
7	0	0	0	0	499	614	
8	0	0	0	0	500	614	
9	0	0	0	0	501	618	
10	0	0	0	0	503	614	
11	0	0	0	0	504	614	
12	0	0	0	0	505	614	
13	0	0	0	0	505	609	
14	0	0	0	0	506	613	
15	0	0	0	0	505	614	
0	0	0	0	0	505	613	
1	0	0	0	0	505	618	
2	0	0	0	0	505	614	
3	0	0	0	0	504	614	
4	0	0	0	0	504	614	
5	0	0	0	0	504	609	
6	0	0	0	0	504	614	
7	0	0	0	0	504	614	
8	0	0	0	0	504	614	
9	0	0	0	0	504	618	
10	0	0	0	0	504	614	
11	0	0	0	0	503	614	
12	0	0	0	0	502	613	
13	0	0	0	0	501	609	
14	0	0	0	0	501	614	
15	0	0	0	0	500	614	
0	0	0	0	0	501	614	
1	0	0	0	0	502	617	
2	0	0	0	0	504	613	
3	0	0	0	0	505	614	
4	0	0	0	0	506	613	
5	0	0	0	0	507	609	
6	0	0	0	0	507	614	
7	0	0	0	0	508	614	
8	0	0	0	0	508	614	
9	0	0	0	0	508	618	
10	0	0	0	0	508	614	
11	0	0	0	0	508	614	
12	0	0	0	0	508	614	
13	0	0	0	0	508	610	
14	0	0	0	0	508	615	
15	0	0	0	0	508	613	
0	0	0	0	0	508	615	
1	0	0	0	0	509	618	
2	0	0	0	0	510	615	
3	0	0	0	0	509	614	
4	0	0	0	0	510	614	
5	0	0	0	0	510	609	
6	0	0	0	0	509	614	
7	0	0	0	0	509	613	
8	0	0	0	0	510	614	
9	0	0	0	0	510	618	
10	0	0	0	0	510	614	
11	0	0	0	0	510	614	
12	0	0	0	0	511	613	
13	0	0	0	0	511	609	
14	0	0	0	0	512	614	
15	0	0	0	0	512	614	
0	0	0	0	0	513	614	
1	0	0	0	0	512	617	
2	0	0	0	0	513	613	
3	0	0	0	0	512	613	
4	0	0	0	0	512	612	
5	0	0	0	0	512	608	
6	0	0	0	0	512	613	
7	0	0	0	0	513	612	
8	0	0	0	0	513	613	
9	0	0	0	0	513	616	
10	0	0	0	0	514	612	
11	0	0	0	0	514	612	
12	0	0	0	0	513	612	
13	0	0	0	0	513	608	
14	0	0	0	0	512	613	
15	0	0	0	0	512	612	
0	0	0	0	0	512	612	
1	0	0	0	0	511	616	
2	0	0	0	0	512	611	
3	0	0	0	0	512	611	
4	0	0	0	0	512	611	
5	0	0	0	0	513	607	
6	0	0	0	0	513	611	
7	0	0	0	0	513	611	
8	0	0	0	0	514	611	
9	0	0	0	0	514	615	
10	0	0	0	0	515	611	
11	0	0	0	0	515	611	
12	0	0	0	0	515	610	
13	0	0	0	0	515	606	
14	0	0	0	0	515	610	
15	0	0	0	0	515	610	
0	0	0	0	0	515	611	
1	0	0	0	0	515	615	
2	0	0	0	0	515	610	
3	0	0	0	0	515	611	
4	0	0	0	0	515	610	
5	0	0	0	0	515	606	
6	0	0	0	0	515	611	
7	0	0	0	0	515	611	
8	0	0	0	0	515	610	
9	0	0	0	0	515	614	
10	0	0	0	0	514	610	
11	0	0	0	0	514	610	
12	0	0	0	0	514	610	
13	0	0	0	0	514	606	
14	0	0	0	0	515	611	
15	0	0	0	0	515	610	
0	0	0	0	0	516	611	
1	0	0	0	0	516	614	
2	0	0	0	0	517	610	
3	0	0	0	0	518	610	
4	0	0	0	0	518	610	
5	0	0	0	0	519	606	
6	0	0	0	0	519	611	
7	0	0	0	0	519	611	
8	0	0	0	0	520	611	
9	0	0	0	0	520	615	
10	0	0	0	0	521	611	
11	0	0	0	0	520	611	
12	0	0	0	0	520	611	
13	0	0	0	0	521	607	
14	0	0	0	0	521	611	
15	0	0	0	0	521	611	
0	0	0	0	0	520	611	
1	0	0	0	0	520	615	
2	0	0	0	0	520	611	
3	0	0	0	0	520	612	
4	0	0	0	0	521	611	
5	0	0	0	0	521	608	
6	0	0	0	0	521	613	
7	0	0	0	0	521	612	
8	0	0	0	0	521	613	
9	0	0	0	0	521	616	
10	0	0	0	0	521	612	
11	0	0	0	0	521	613	
12	0	0	0	0	521	612	
13	0	0	0	0	521	608	
14	0	0	0	0	521	613	
15	0	0	0	0	522	614	
0	0	0	0	0	523	614	
1	0	0	0	0	523	617	
2	0	0	0	0	523	613	
3	0	0	0	0	523	614	
4	0	0	0	0	523	614	
5	0	0	0	0	523	609	
6	0	0	0	0	523	614	
7	0	0	0	0	524	614	
8	0	0	0	0	524	614	
9	0	0	0	0	524	618	
10	0	0	0	0	524	614	
11	0	0	0	0	525	614	
12	0	0	0	0	525	614	
13	0	0	0	0	526	610	
14	0	0	0	0	527	614	
15	0	0	0	0	527	615	
0	0	0	0	0	527	615	
1	0	0	0	0	528	620	
2	0	0	0	0	531	615	
3	0	0	0	0	531	615	
4	0	0	0	0	532	615	
5	0	0	0	0	532	610	
6	0	0	0	0	532	615	
7	0	0	0	0	532	615	
8	0	0	0	0	531	615	
9	0	0	0	0	531	619	
10	0	0	0	0	531	615	
11	0	0	0	0	530	615	
12	0	0	0	0	530	614	
13	0	0	0	0	530	611	
14	0	0	0	0	529	615	
15	0	0	0	0	528	615	
0	0	0	0	0	527	616	
1	0	0	0	0	526	619	
2	0	0	0	0	526	615	
3	0	0	0	0	527	615	
4	0	0	0	0	528	615	
5	0	0	0	0	529	611	
6	0	0	0	0	529	615	
7	0	0	0	0	529	615	
8	0	0	0	0	528	615	
9	0	0	0	0	528	619	
10	0	0	0	0	527	615	
11	0	0	0	0	527	614	
12	0	0	0	0	526	615	
13	0	0	0	0	524	611	
14	0	0	0	0	523	615	
15	0	0	0	0	521	614	
0	0	0	0	0	519	615	
1	0	0	0	0	519	618	
2	0	0	0	0	518	614	
3	0	0	0	0	518	615	
4	0	0	0	0	518	614	
5	0	0	0	0	517	610	
6	0	0	0	0	516	614	
7	0	0	0	0	515	615	
8	0	0	0	0	514	614	
9	0	0	0	0	512	618	
10	0	0	0	0	512	615	
11	0	0	0	0	511	614	
12	0	0	0	0	509	614	
13	0	0	0	0	508	610	
14	0	0	0	0	507	615	
15	0	0	0	0	507	615	
0	0	0	0	0	506	615	
1	0	0	0	0	504	619	
2	0	0	0	0	504	614	
3	0	0	0	0	503	614	
4	0	0	0	0	502	614	
5	0	0	0	0	503	610	
6	0	0	0	0	503	614	
7	0	0	0	0	503	614	
8	0	0	0	0	503	615	
9	0	0	0	0	503	618	
10	0	0	0	0	502	614	
11	0	0	0	0	501	614	
12	0	0	0	0	501	614	
13	0	0	0	0	499	610	
14	0	0	0	0	499	614	
15	0	0	0	0	499	614	
0	0	0	0	0	499	615	
1	0	0	0	0	499	618	
2	0	0	0	0	500	615	
3	0	0	0	0	499	614	
4	0	0	0	0	500	613	
5	0	0	0	0	500	610	
6	0	0	0	0	499	614	
7	0	0	0	0	499	615	
8	0	0	0	0	499	615	
9	0	0	0	0	498	619	
10	0	0	0	0	498	615	
11	0	0	0	0	497	615	
12	0	0	0	0	497	615	
13	0	0	0	0	497	610	
14	0	0	0	0	496	615	
15	0	0	0	0	495	615	
0	0	0	0	0	495	615	
1	0	0	0	0	494	619	
2	0	0	0	0	494	615	
3	0	0	0	0	493	615	
4	0	0	0	0	493	615	
5	0	0	0	0	493	610	
6	0	0	0	0	493	615	
7	0	0	0	0	493	615	
8	0	0	0	0	494	615	
9	0	0	0	0	494	619	
10	0	0	0	0	495	615	
11	0	0	0	0	496	615	
12	0	0	0	0	496	615	
13	0	0	0	0	497	611	
14	0	0	0	0	498	615	
15	0	0	0	0	499	615	
0	0	0	0	0	499	615	
1	0	0	0	0	499	619	
2	0	0	0	0	500	615	
3	0	0	0	0	501	614	
4	0	0	0	0	502	614	
5	0	0	0	0	503	610	
6	0	0	0	0	502	615	
7	0	0	0	0	503	615	
8	0	0	0	0	503	615	
9	0	0	0	0	503	618	
10	0	0	0	0	503	615	
11	0	0	0	0	503	615	
12	0	0	0	0	503	614	
13	0	0	0	0	503	610	
14	0	0	0	0	503	614	
15	0	0	0	0	502	614	
0	0	0	0	0	502	615	
1	0	0	0	0	503	618	
2	0	0	0	0	503	614	
3	0	0	0	0	503	615	
4	0	0	0	0	503	614	
5	0	0	0	0	503	609	
6	0	0	0	0	503	614	
7	0	0	0	0	503	614	
8	0	0	0	0	503	614	
9	0	0	0	0	502	619	
10	0	0	0	0	502	614	
11	0	0	0	0	502	614	
12	0	0	0	0	502	614	
13	0	0	0	0	502	611	
14	0	0	0	0	501	615	
15	0	0	0	0	501	614	
0	0	0	0	0	501	615	
1	0	0	0	0	501	618	
2	0	0	0	0	502	615	
3	0	0	0	0	501	614	
4	0	0	0	0	502	614	
5	0	0	0	0	503	610	
6	0	0	0	0	503	614	
7	0	0	0	0	503	614	
8	0	0	0	0	503	614	
9	0	0	0	0	503	618	
10	0	0	0	0	504	614	
11	0	0	0	0	504	614	
12	0	0	0	0	504	614	
13	0	0	0	0	505	610	
14	0	0	0	0	505	615	
15	0	0	0	0	505	615	
0	0	0	0	0	505	615	
1	0	0	0	0	505	619	
2	0	0	0	0	505	614	
3	0	0	0	0	505	615	
4	0	0	0	0	505	614	
5	0	0	0	0	505	609	
6	0	0	0	0	505	614	
7	0	0	0	0	506	614	
8	0	0	0	0	506	614	
9	0	0	0	0	505	617	
10	0	0	0	0	506	613	
11	0	0	0	0	506	613	
12	0	0	0	0	507	613	
13	0	0	0	0	508	609	
14	0	0	0	0	509	614	
15	0	0	0	0	510	613	
0	0	0	0	0	510	613	
1	0	0	0	0	510	617	
2	0	0	0	0	510	612	
3	0	0	0	0	510	613	
4	0	0	0	0	510	613	
5	0	0	0	0	510	608	
6	0	0	0	0	509	613	
7	0	0	0	0	510	613	
8	0	0	0	0	510	613	
9	0	0	0	0	511	617	
10	0	0	0	0	511	613	
11	0	0	0	0	511	613	
12	0	0	0	0	510	612	
13	0	0	0	0	511	608	
14	0	0	0	0	510	612	
15	0	0	0	0	510	612	
0	0	0	0	0	509	612	
1	0	0	0	0	509	617	
2	0	0	0	0	508	613	
3	0	0	0	0	507	613	
4	0	0	0	0	507	612	
5	0	0	0	0	507	608	
6	0	0	0	0	507	612	
7	0	0	0	0	508	613	
8	0	0	0	0	509	612	
9	0	0	0	0	510	616	
10	0	0	0	0	512	612	
11	0	0	0	0	512	613	
12	0	0	0	0	513	612	
13	0	0	0	0	514	608	
14	0	0	0	0	515	612	
15	0	0	0	0	515	611	
0	0	0	0	0	515	612	
1	0	0	0	0	515	616	
2	0	0	0	0	515	612	
3	0	0	0	0	515	611	
4	0	0	0	0	515	611	
5	0	0	0	0	515	607	
6	0	0	0	0	515	612	
7	0	0	0	0	514	612	
8	0	0	0	0	514	612	
9	0	0	0	0	513	615	
10	0	0	0	0	512	611	
11	0	0	0	0	512	611	
12	0	0	0	0	511	611	
13	0	0	0	0	511	607	
14	0	0	0	0	511	611	
15	0	0	0	0	510	612	
0	0	0	0	0	509	612	
1	0	0	0	0	510	616	
2	0	0	0	0	510	612	
3	0	0	0	0	510	612	
4	0	0	0	0	511	611	
5	0	0	0	0	511	608	
6	0	0	0	0	512	612	
7	0	0	0	0	512	612	
8	0	0	0	0	513	611	
9	0	0	0	0	513	616	
10	0	0	0	0	513	611	
11	0	0	0	0	512	612	
12	0	0	0	0	512	611	
13	0	0	0	0	512	607	
14	0	0	0	0	513	612	
15	0	0	0	0	513	612	
0	0	0	0	0	513	612	
1	0	0	0	0	512	615	
2	0	0	0	0	512	612	
3	0	0	0	0	512	611	
4	0	0	0	0	511	612	
5	0	0	0	0	511	607	
6	0	0	0	0	511	612	
7	0	0	0	0	512	612	
8	0	0	0	0	512	612	
9	0	0	0	0	513	616	
10	0	0	0	0	514	612	
11	0	0	0	0	515	611	
12	0	0	0	0	515	612	
13	0	0	0	0	516	607	
14	0	0	0	0	516	612	
15	0	0	0	0	516	612	
0	0	0	0	0	516	612	
1	0	0	0	0	515	616	
2	0	0	0	0	515	612	
3	0	0	0	0	514	613	
4	0	0	0	0	515	612	
5	0	0	0	0	515	608	
6	0	0	0	0	515	612	
7	0	0	0	0	515	612	
8	0	0	0	0	515	612	
9	0	0	0	0	517	616	
10	0	0	0	0	517	612	
11	0	0	0	0	517	611	
12	0	0	0	0	517	612	
13	0	0	0	0	517	608	
14	0	0	0	0	516	612	
15	0	0	0	0	516	613	
0	0	0	0	0	516	612	
1	0	0	0	0	515	617	
2	0	0	0	0	515	613	
3	0	0	0	0	513	613	
4	0	0	0	0	512	613	
5	0	0	0	0	512	608	
6	0	0	0	0	511	613	
7	0	0	0	0	511	613	
8	0	0	0	0	511	613	
9	0	0	0	0	511	617	
10	0	0	0	0	512	614	
11	0	0	0	0	512	614	
12	0	0	0	0	513	613	
13	0	0	0	0	513	608	
14	0	0	0	0	513	614	
15	0	0	0	0	515	613	
0	0	0	0	0	515	614	
1	0	0	0	0	515	617	
2	0	0	0	0	516	613	
3	0	0	0	0	516	612	
4	0	0	0	0	516	612	
5	0	0	0	0	515	608	
6	0	0	0	0	514	612	
7	0	0	0	0	515	612	
8	0	0	0	0	514	612	
9	0	0	0	0	514	617	
10	0	0	0	0	514	612	
11	0	0	0	0	514	613	
12	0	0	0	0	515	612	
13	0	0	0	0	515	608	
14	0	0	0	0	515	613	
15	0	0	0	0	515	612	
0	0	0	0	0	514	612	
1	0	0	0	0	513	616	
2	0	0	0	0	513	612	
3	0	0	0	0	513	612	
4	0	0	0	0	512	612	
5	0	0	0	0	512	608	
6	0	0	0	0	513	612	
7	0	0	0	0	515	612	
8	0	0	0	0	515	612	
9	0	0	0	0	515	616	
10	0	0	0	0	515	612	
11	0	0	0	0	515	612	
12	0	0	0	0	515	612	
13	0	0	0	0	515	607	
14	0	0	0	0	515	612	
15	0	0	0	0	515	613	
0	0	0	0	0	515	613	
1	0	0	0	0	515	617	
2	0	0	0	0	515	613	
3	0	0	0	0	515	613	
4	0	0	0	0	516	612	
5	0	0	0	0	516	609	
6	0	0	0	0	516	613	
7	0	0	0	0	517	614	
8	0	0	0	0	517	614	
9	0	0	0	0	517	617	
10	0	0	0	0	516	613	
11	0	0	0	0	516	613	
12	0	0	0	0	516	613	
13	0	0	0	0	516	609	
14	0	0	0	0	517	614	
15	0	0	0	0	517	613	
0	0	0	0	0	517	613	
1	0	0	0	0	517	617	
2	0	0	0	0	517	613	
3	0	0	0	0	516	613	
4	0	0	0	0	516	613	
5	0	0	0	0	516	609	
6	0	0	0	0	515	614	
7	0	0	0	0	515	614	
8	0	0	0	0	514	614	
9	0	0	0	0	515	618	
10	0	0	0	0	515	614	
11	0	0	0	0	515	614	
12	0	0	0	0	515	614	
13	0	0	0	0	514	610	
14	0	0	0	0	514	614	
15	0	0	0	0	513	614	
0	0	0	0	0	513	614	
1	0	0	0	0	513	618	
2	0	0	0	0	513	615	
3	0	0	0	0	512	614	
4	0	0	0	0	513	614	
5	0	0	0	0	513	609	
6	0	0	0	0	513	614	
7	0	0	0	0	514	614	
8	0	0	0	0	514	614	
9	0	0	0	0	514	618	
10	0	0	0	0	514	614	
11	0	0	0	0	514	615	
12	0	0	0	0	513	615	
13	0	0	0	0	513	610	
14	0	0	0	0	513	615	
15	0	0	0	0	513	615	
0	0	0	0	0	515	615	
1	0	0	0	0	516	618	
2	0	0	0	0	517	614	
3	0	0	0	0	518	614	
4	0	0	0	0	519	614	
5	0	0	0	0	519	609	
6	0	0	0	0	519	613	
7	0	0	0	0	518	614	
8	0	0	0	0	517	613	
9	0	0	0	0	516	617	
10	0	0	0	0	517	613	
11	0	0	0	0	516	614	
12	0	0	0	0	516	613	
13	0	0	0	0	515	609	
14	0	0	0	0	515	614	
15	0	0	0	0	515	613	
0	0	0	0	0	514	614	
1	0	0	0	0	514	617	
2	0	0	0	0	514	614	
3	0	0	0	0	513	614	
4	0	0	0	0	513	613	
5	0	0	0	0	514	609	
6	0	0	0	0	513	614	
7	0	0	0	0	513	614	
8	0	0	0	0	513	614	
9	0	0	0	0	513	618	
10	0	0	0	0	513	614	
11	0	0	0	0	512	614	
12	0	0	0	0	512	614	
13	0	0	0	0	512	609	
14	0	0	0	0	512	615	
15	0	0	0	0	512	614	
0	0	0	0	0	513	615	
1	0	0	0	0	514	619	
2	0	0	0	0	515	614	
3	0	0	0	0	515	614	
4	0	0	0	0	515	614	
5	0	0	0	0	515	610	
6	0	0	0	0	515	614	
7	0	0	0	0	515	614	
8	0	0	0	0	515	614	
9	0	0	0	0	515	618	
10	0	0	0	0	516	614	
11	0	0	0	0	517	614	
12	0	0	0	0	518	614	
13	0	0	0	0	518	610	
14	0	0	0	0	518	614	
15	0	0	0	0	519	614	
0	0	0	0	0	518	614	
1	0	0	0	0	518	618	
2	0	0	0	0	517	615	
3	0	0	0	0	517	614	
4	0	0	0	0	516	615	
5	0	0	0	0	516	611	
6	0	0	0	0	516	615	
7	0	0	0	0	516	615	
8	0	0	0	0	517	615	
9	0	0	0	0	517	619	
10	0	0	0	0	518	615	
11	0	0	0	0	518	615	
12	0	0	0	0	519	615	
13	0	0	0	0	519	611	
14	0	0	0	0	520	615	
15	0	0	0	0	521	615	
0	0	0	0	0	521	616	
1	0	0	0	0	521	620	
2	0	0	0	0	521	616	
3	0	0	0	0	520	616	
4	0	0	0	0	520	615	
5	0	0	0	0	519	611	
6	0	0	0	0	519	615	
7	0	0	0	0	519	616	
8	0	0	0	0	519	615	
9	0	0	0	0	519	620	
10	0	0	0	0	519	616	
11	0	0	0	0	519	615	
12	0	0	0	0	519	615	
13	0	0	0	0	519	611	
14	0	0	0	0	518	616	
15	0	0	0	0	517	616	
0	0	0	0	0	516	616	
1	0	0	0	0	515	620	
2	0	0	0	0	515	615	
3	0	0	0	0	514	615	
4	0	0	0	0	513	615	
5	0	0	0	0	513	611	
6	0	0	0	0	513	615	
7	0	0	0	0	513	615	
8	0	0	0	0	512	615	
9	0	0	0	0	512	620	
10	0	0	0	0	513	615	
11	0	0	0	0	513	616	
12	0	0	0	0	513	615	
13	0	0	0	0	513	611	
14	0	0	0	0	514	615	
15	0	0	0	0	515	615	
0	0	0	0	0	516	615	
1	0	0	0	0	517	620	
2	0	0	0	0	518	615	
3	0	0	0	0	519	615	
4	0	0	0	0	519	615	
5	0	0	0	0	519	610	
6	0	0	0	0	519	615	
7	0	0	0	0	519	615	
8	0	0	0	0	519	615	
9	0	0	0	0	518	619	
10	0	0	0	0	518	615	
11	0	0	0	0	518	615	
12	0	0	0	0	517	615	
13	0	0	0	0	517	610	
14	0	0	0	0	517	615	
15	0	0	0	0	516	615	
0	0	0	0	0	515	615	
1	0	0	0	0	513	619	
2	0	0	0	0	512	615	
3	0	0	0	0	512	614	
4	0	0	0	0	512	614	
5	0	0	0	0	512	610	
6	0	0	0	0	511	614	
7	0	0	0	0	511	614	
8	0	0	0	0	511	615	
9	0	0	0	0	511	619	
10	0	0	0	0	511	614	
11	0	0	0	0	511	614	
12	0	0	0	0	512	614	
13	0	0	0	0	513	609	
14	0	0	0	0	513	613	
15	0	0	0	0	513	613	
0	0	0	0	0	513	613	
1	0	0	0	0	513	617	
2	0	0	0	0	513	613	
3	0	0	0	0	513	613	
4	0	0	0	0	513	613	
5	0	0	0	0	513	609	
6	0	0	0	0	513	614	
7	0	0	0	0	514	613	
8	0	0	0	0	514	613	
9	0	0	0	0	514	616	
10	0	0	0	0	515	613	
11	0	0	0	0	515	613	
12	0	0	0	0	515	613	
13	0	0	0	0	516	609	
14	0	0	0	0	516	613	
15	0	0	0	0	515	614	
0	0	0	0	0	515	614	
1	0	0	0	0	513	617	
2	0	0	0	0	512	614	
3	0	0	0	0	508	613	
4	0	0	0	0	505	613	
5	0	0	0	0	502	608	
6	0	0	0	0	498	613	
7	0	0	0	0	495	613	
8	0	0	0	0	492	613	
9	0	0	0	0	488	616	
10	0	0	0	0	486	612	
11	0	0	0	0	484	613	
12	0	0	0	0	483	612	
13	0	0	0	0	483	608	
14	0	0	0	0	483	612	
15	0	0	0	0	485	613	
0	0	0	0	0	487	613	
1	0	0	0	0	487	617	
2	0	0	0	0	489	613	
3	0	0	0	0	491	613	
4	0	0	0	0	494	612	
5	0	0	0	0	496	608	
6	0	0	0	0	499	612	
7	0	0	0	0	503	613	
8	0	0	0	0	506	613	
9	0	0	0	0	510	617	
10	0	0	0	0	514	612	
11	0	0	0	0	517	612	
12	0	0	0	0	518	612	
13	0	0	0	0	518	608	
14	0	0	0	0	518	612	
15	0	0	0	0	518	612	
0	0	0	0	0	519	612	
1	0	0	0	0	519	615	
2	0	0	0	0	521	612	
3	0	0	0	0	523	612	
4	0	0	0	0	525	611	
5	0	0	0	0	530	608	
6	0	0	0	0	535	611	
7	0	0	0	0	541	612	
8	0	0	0	0	548	612	
9	0	0	0	0	555	616	
10	0	0	0	0	561	612	
11	0	0	0	0	567	612	
12	0	0	0	0	571	611	
13	0	0	0	0	574	607	
14	0	0	0	0	576	611	
15	0	0	0	0	579	611	
0	0	0	0	0	579	612	
1	0	0	0	0	580	615	
2	0	0	0	0	581	612	
3	0	0	0	0	579	612	
4	0	0	0	0	577	611	
5	0	0	0	0	574	607	
6	0	0	0	0	571	612	
7	0	0	0	0	567	611	
8	0	0	0	0	564	611	
9	0	0	0	0	561	615	
10	0	0	0	0	558	611	
11	0	0	0	0	554	611	
12	0	0	0	0	550	612	
13	0	0	0	0	545	607	
14	0	0	0	0	541	611	
15	0	0	0	0	538	611	
0	0	0	0	0	535	611	
1	0	0	0	0	533	615	
2	0	0	0	0	531	611	
3	0	0	0	0	530	611	
4	0	0	0	0	528	611	
5	0	0	0	0	526	606	
6	0	0	0	0	524	611	
7	0	0	0	0	521	611	
8	0	0	0	0	519	611	
9	0	0	0	0	517	615	
10	0	0	0	0	514	610	
11	0	0	0	0	512	610	
12	0	0	0	0	509	611	
13	0	0	0	0	507	606	
14	0	0	0	0	505	611	
15	0	0	0	0	504	611	
0	0	0	0	0	502	611	
1	0	0	0	0	500	615	
2	0	0	0	0	499	611	
3	0	0	0	0	499	611	
4	0	0	0	0	499	611	
5	0	0	0	0	499	606	
6	0	0	0	0	500	611	
7	0	0	0	0	501	611	
8	0	0	0	0	501	612	
9	0	0	0	0	500	615	
10	0	0	0	0	499	611	
11	0	0	0	0	499	611	
12	0	0	0	0	498	611	
13	0	0	0	0	498	607	
14	0	0	0	0	499	611	
15	0	0	0	0	499	612	
0	0	0	0	0	500	612	
1	0	0	0	0	500	615	
2	0	0	0	0	500	611	
3	0	0	0	0	501	612	
4	0	0	0	0	502	612	
5	0	0	0	0	502	608	
6	0	0	0	0	502	612	
7	0	0	0	0	502	613	
8	0	0	0	0	502	612	
9	0	0	0	0	502	617	
10	0	0	0	0	502	612	
11	0	0	0	0	501	612	
12	0	0	0	0	501	612	
13	0	0	0	0	501	608	
14	0	0	0	0	501	612	
15	0	0	0	0	502	613	
0	0	0	0	0	502	613	
1	0	0	0	0	501	616	
2	0	0	0	0	502	612	
3	0	0	0	0	501	612	
4	0	0	0	0	500	613	
5	0	0	0	0	499	608	
6	0	0	0	0	498	612	
7	0	0	0	0	497	612	
8	0	0	0	0	497	613	
9	0	0	0	0	496	617	
10	0	0	0	0	497	613	
11	0	0	0	0	497	613	
12	0	0	0	0	497	613	
13	0	0	0	0	498	608	
14	0	0	0	0	499	613	
15	0	0	0	0	500	613	
0	0	0	0	0	502	613	
1	0	0	0	0	502	617	
2	0	0	0	0	503	614	
3	0	0	0	0	503	614	
4	0	0	0	0	503	614	
5	0	0	0	0	503	609	
6	0	0	0	0	504	613	
7	0	0	0	0	504	614	
8	0	0	0	0	505	614	
9	0	0	0	0	506	618	
10	0	0	0	0	506	614	
11	0	0	0	0	506	614	
12	0	0	0	0	505	614	
13	0	0	0	0	505	609	
14	0	0	0	0	505	614	
15	0	0	0	0	505	614	
0	0	0	0	0	504	614	
1	0	0	0	0	502	618	
2	0	0	0	0	502	614	
3	0	0	0	0	500	614	
4	0	0	0	0	499	614	
5	0	0	0	0	499	609	
6	0	0	0	0	499	615	
7	0	0	0	0	500	614	
8	0	0	0	0	501	615	
9	0	0	0	0	502	619	
10	0	0	0	0	504	615	
11	0	0	0	0	505	615	
12	0	0	0	0	505	615	
13	0	0	0	0	506	611	
14	0	0	0	0	507	615	
15	0	0	0	0	509	615	
0	0	0	0	0	510	615	
1	0	0	0	0	509	619	
2	0	0	0	0	509	615	
3	0	0	0	0	509	615	
4	0	0	0	0	508	615	
5	0	0	0	0	508	611	
6	0	0	0	0	508	615	
7	0	0	0	0	508	615	
8	0	0	0	0	506	615	
9	0	0	0	0	505	620	
10	0	0	0	0	505	615	
11	0	0	0	0	505	615	
12	0	0	0	0	505	615	
13	0	0	0	0	504	610	
14	0	0	0	0	504	615	
15	0	0	0	0	505	615	
0	0	0	0	0	504	615	
1	0	0	0	0	505	619	
2	0	0	0	0	505	615	
3	0	0	0	0	505	614	
4	0	0	0	0	507	615	
5	0	0	0	0	508	610	
6	0	0	0	0	508	615	
7	0	0	0	0	509	615	
8	0	0	0	0	509	615	
9	0	0	0	0	508	618	
10	0	0	0	0	508	615	
11	0	0	0	0	508	614	
12	0	0	0	0	507	614	
13	0	0	0	0	506	609	
14	0	0	0	0	505	613	
15	0	0	0	0	503	614	
0	0	0	0	0	503	614	
1	0	0	0	0	503	619	
2	0	0	0	0	503	614	
3	0	0	0	0	502	614	
4	0	0	0	0	502	614	
5	0	0	0	0	503	609	
6	0	0	0	0	504	614	
7	0	0	0	0	506	613	
8	0	0	0	0	508	614	
9	0	0	0	0	510	618	
10	0	0	0	0	512	613	
11	0	0	0	0	513	613	
12	0	0	0	0	514	613	
13	0	0	0	0	515	609	
14	0	0	0	0	515	614	
15	0	0	0	0	515	614	
0	0	0	0	0	515	614	
1	0	0	0	0	516	617	
2	0	0	0	0	515	613	
3	0	0	0	0	515	614	
4	0	0	0	0	515	613	
5	0	0	0	0	514	609	
6	0	0	0	0	514	613	
7	0	0	0	0	513	614	
8	0	0	0	0	513	613	
9	0	0	0	0	512	617	
10	0	0	0	0	512	613	
11	0	0	0	0	512	613	
12	0	0	0	0	512	613	
13	0	0	0	0	512	608	
14	0	0	0	0	513	613	
15	0	0	0	0	513	613	
0	0	0	0	0	513	613	
1	0	0	0	0	514	617	
2	0	0	0	0	514	613	
3	0	0	0	0	515	613	
4	0	0	0	0	515	612	
5	0	0	0	0	516	609	
6	0	0	0	0	516	613	
7	0	0	0	0	517	613	
8	0	0	0	0	517	613	
9	0	0	0	0	518	618	
10	0	0	0	0	518	613	
11	0	0	0	0	518	614	
12	0	0	0	0	518	614	
13	0	0	0	0	518	608	
14	0	0	0	0	519	614	
15	0	0	0	0	519	613	
0	0	0	0	0	519	613	
1	0	0	0	0	518	617	
2	0	0	0	0	518	613	
3	0	0	0	0	516	613	
4	0	0	0	0	516	613	
5	0	0	0	0	515	609	
6	0	0	0	0	516	614	
7	0	0	0	0	516	614	
8	0	0	0	0	516	613	
9	0	0	0	0	517	618	
10	0	0	0	0	518	614	
11	0	0	0	0	518	614	
12	0	0	0	0	519	614	
13	0	0	0	0	521	609	
14	0	0	0	0	523	614	
15	0	0	0	0	524	614	
0	0	0	0	0	525	615	
1	0	0	0	0	526	619	
2	0	0	0	0	526	614	
3	0	0	0	0	525	614	
4	0	0	0	0	525	614	
5	0	0	0	0	525	610	
6	0	0	0	0	524	615	
7	0	0	0	0	524	614	
8	0	0	0	0	523	614	
9	0	0	0	0	523	618	
10	0	0	0	0	522	614	
11	0	0	0	0	522	614	
12	0	0	0	0	521	614	
13	0	0	0	0	521	610	
14	0	0	0	0	523	614	
15	0	0	0	0	523	615	
0	0	0	0	0	525	614	
1	0	0	0	0	527	618	
2	0	0	0	0	527	614	
3	0	0	0	0	528	614	
4	0	0	0	0	528	614	
5	0	0	0	0	529	610	
6	0	0	0	0	531	614	
7	0	0	0	0	531	614	
8	0	0	0	0	532	614	
9	0	0	0	0	532	618	
10	0	0	0	0	532	614	
11	0	0	0	0	531	614	
12	0	0	0	0	531	614	
13	0	0	0	0	530	609	
14	0	0	0	0	529	614	
15	0	0	0	0	529	615	
0	0	0	0	0	529	614	
1	0	0	0	0	529	617	
2	0	0	0	0	528	614	
3	0	0	0	0	528	614	
4	0	0	0	0	529	614	
5	0	0	0	0	528	609	
6	0	0	0	0	528	613	
7	0	0	0	0	527	614	
8	0	0	0	0	527	614	
9	0	0	0	0	526	618	
10	0	0	0	0	526	614	
11	0	0	0	0	525	614	
12	0	0	0	0	524	614	
13	0	0	0	0	522	610	
14	0	0	0	0	520	615	
15	0	0	0	0	519	614	
0	0	0	0	0	518	614	
1	0	0	0	0	517	618	
2	0	0	0	0	515	614	
3	0	0	0	0	513	614	
4	0	0	0	0	512	614	
5	0	0	0	0	511	609	
6	0	0	0	0	510	615	
7	0	0	0	0	511	615	
8	0	0	0	0	511	615	
9	0	0	0	0	511	619	
10	0	0	0	0	510	615	
11	0	0	0	0	510	615	
12	0	0	0	0	510	615	
13	0	0	0	0	509	610	
14	0	0	0	0	509	614	
15	0	0	0	0	509	615	
0	0	0	0	0	508	615	
1	0	0	0	0	507	618	
2	0	0	0	0	505	615	
3	0	0	0	0	504	614	
4	0	0	0	0	503	615	
5	0	0	0	0	502	610	
6	0	0	0	0	500	615	
7	0	0	0	0	499	615	
8	0	0	0	0	498	615	
9	0	0	0	0	496	619	
10	0	0	0	0	494	615	
11	0	0	0	0	493	615	
12	0	0	0	0	492	615	
13	0	0	0	0	492	610	
14	0	0	0	0	493	615	
15	0	0	0	0	493	615	
0	0	0	0	0	494	615	
1	0	0	0	0	495	619	
2	0	0	0	0	496	615	
3	0	0	0	0	496	615	
4	0	0	0	0	497	614	
5	0	0	0	0	498	610	
6	0	0	0	0	499	614	
7	0	0	0	0	499	614	
8	0	0	0	0	499	614	
9	0	0	0	0	499	618	
10	0	0	0	0	499	614	
11	0	0	0	0	498	614	
12	0	0	0	0	498	614	
13	0	0	0	0	497	609	
14	0	0	0	0	497	614	
15	0	0	0	0	497	613	
0	0	0	0	0	498	614	
1	0	0	0	0	498	617	
2	0	0	0	0	498	613	
3	0	0	0	0	498	613	
4	0	0	0	0	497	612	
5	0	0	0	0	497	609	
6	0	0	0	0	497	613	
7	0	0	0	0	496	612	
8	0	0	0	0	496	612	
9	0	0	0	0	495	616	
10	0	0	0	0	495	612	
11	0	0	0	0	495	613	
12	0	0	0	0	495	613	
13	0	0	0	0	496	609	
14	0	0	0	0	495	613	
15	0	0	0	0	495	613	
0	0	0	0	0	495	614	
1	0	0	0	0	494	617	
2	0	0	0	0	494	613	
3	0	0	0	0	494	613	
4	0	0	0	0	495	612	
5	0	0	0	0	494	609	
6	0	0	0	0	495	613	
7	0	0	0	0	495	613	
8	0	0	0	0	495	613	
9	0	0	0	0	495	617	
10	0	0	0	0	495	613	
11	0	0	0	0	495	613	
12	0	0	0	0	496	613	
13	0	0	0	0	497	609	
14	0	0	0	0	497	613	
15	0	0	0	0	498	614	
0	0	0	0	0	498	613	
1	0	0	0	0	498	617	
2	0	0	0	0	498	614	
3	0	0	0	0	498	613	
4	0	0	0	0	498	612	
5	0	0	0	0	499	608	
6	0	0	0	0	499	613	
7	0	0	0	0	498	613	
8	0	0	0	0	499	613	
9	0	0	0	0	499	616	
10	0	0	0	0	499	612	
11	0	0	0	0	499	612	
12	0	0	0	0	498	612	
13	0	0	0	0	498	608	
14	0	0	0	0	497	612	
15	0	0	0	0	497	612	
0	0	0	0	0	497	613	
1	0	0	0	0	497	616	
2	0	0	0	0	497	612	
3	0	0	0	0	498	612	
4	0	0	0	0	498	613	
5	0	0	0	0	499	608	
6	0	0	0	0	500	612	
7	0	0	0	0	500	612	
8	0	0	0	0	500	613	
9	0	0	0	0	501	617	
10	0	0	0	0	501	612	
11	0	0	0	0	501	612	
12	0	0	0	0	502	612	
13	0	0	0	0	502	608	
14	0	0	0	0	502	612	
15	0	0	0	0	503	613	
0	0	0	0	0	503	612	
1	0	0	0	0	503	616	
2	0	0	0	0	502	613	
3	0	0	0	0	501	612	
4	0	0	0	0	501	613	
5	0	0	0	0	500	609	
6	0	0	0	0	499	613	
7	0	0	0	0	499	614	
8	0	0	0	0	498	614	
9	0	0	0	0	498	617	
10	0	0	0	0	497	612	
11	0	0	0	0	497	613	
12	0	0	0	0	497	612	
13	0	0	0	0	498	609	
14	0	0	0	0	498	614	
15	0	0	0	0	499	613	
0	0	0	0	0	499	613	
1	0	0	0	0	500	617	
2	0	0	0	0	500	614	
3	0	0	0	0	500	613	
4	0	0	0	0	500	613	
5	0	0	0	0	502	608	
6	0	0	0	0	502	613	
7	0	0	0	0	503	613	
8	0	0	0	0	503	614	
9	0	0	0	0	502	618	
10	0	0	0	0	501	614	
11	0	0	0	0	499	614	
12	0	0	0	0	498	614	
13	0	0	0	0	499	609	
14	0	0	0	0	499	614	
15	0	0	0	0	499	613	
0	0	0	0	0	499	614	
1	0	0	0	0	499	617	
2	0	0	0	0	501	613	
3	0	0	0	0	502	613	
4	0	0	0	0	504	613	
5	0	0	0	0	504	609	
6	0	0	0	0	505	613	
7	0	0	0	0	506	612	
8	0	0	0	0	507	613	
9	0	0	0	0	508	617	
10	0	0	0	0	509	613	
11	0	0	0	0	509	614	
12	0	0	0	0	510	613	
13	0	0	0	0	510	609	
14	0	0	0	0	510	614	
15	0	0	0	0	510	613	
0	0	0	0	0	510	614	
1	0	0	0	0	509	617	
2	0	0	0	0	508	614	
3	0	0	0	0	508	614	
4	0	0	0	0	506	614	
5	0	0	0	0	506	609	
6	0	0	0	0	505	614	
7	0	0	0	0	505	613	
8	0	0	0	0	505	614	
9	0	0	0	0	505	618	
10	0	0	0	0	505	613	
11	0	0	0	0	506	614	
12	0	0	0	0	506	613	
13	0	0	0	0	506	609	
14	0	0	0	0	506	614	
15	0	0	0	0	507	613	
0	0	0	0	0	508	614	
1	0	0	0	0	508	617	
2	0	0	0	0	509	614	
3	0	0	0	0	509	613	
4	0	0	0	0	510	613	
5	0	0	0	0	510	609	
6	0	0	0	0	510	612	
7	0	0	0	0	511	613	
8	0	0	0	0	510	613	
9	0	0	0	0	509	617	
10	0	0	0	0	508	613	
11	0	0	0	0	507	612	
12	0	0	0	0	506	612	
13	0	0	0	0	504	608	
14	0	0	0	0	504	612	
15	0	0	0	0	504	613	
0	0	0	0	0	504	613	
1	0	0	0	0	504	617	
2	0	0	0	0	505	613	
3	0	0	0	0	507	613	
4	0	0	0	0	508	613	
5	0	0	0	0	509	608	
6	0	0	0	0	511	613	
7	0	0	0	0	512	613	
8	0	0	0	0	511	613	
9	0	0	0	0	511	617	
10	0	0	0	0	511	613	
11	0	0	0	0	511	614	
12	0	0	0	0	511	613	
13	0	0	0	0	510	609	
14	0	0	0	0	511	613	
15	0	0	0	0	511	613	
0	0	0	0	0	511	613	
1	0	0	0	0	511	617	
2	0	0	0	0	511	614	
3	0	0	0	0	510	613	
4	0	0	0	0	510	613	
5	0	0	0	0	511	608	
6	0	0	0	0	511	613	
7	0	0	0	0	511	613	
8	0	0	0	0	511	614	
9	0	0	0	0	511	617	
10	0	0	0	0	511	613	
11	0	0	0	0	511	613	
12	0	0	0	0	512	612	
13	0	0	0	0	512	608	
14	0	0	0	0	512	613	
15	0	0	0	0	512	613	
0	0	0	0	0	512	614	
1	0	0	0	0	511	617	
2	0	0	0	0	511	613	
3	0	0	0	0	510	613	
4	0	0	0	0	510	613	
5	0	0	0	0	509	609	
6	0	0	0	0	508	613	
7	0	0	0	0	507	614	
8	0	0	0	0	506	613	
9	0	0	0	0	505	617	
10	0	0	0	0	505	613	
11	0	0	0	0	505	613	
12	0	0	0	0	504	613	
13	0	0	0	0	504	608	
14	0	0	0	0	504	613	
15	0	0	0	0	505	613	
0	0	0	0	0	505	614	
1	0	0	0	0	506	617	
2	0	0	0	0	508	614	
3	0	0	0	0	508	614	
4	0	0	0	0	510	613	
5	0	0	0	0	510	609	
6	0	0	0	0	510	614	
7	0	0	0	0	510	614	
8	0	0	0	0	510	613	
9	0	0	0	0	510	617	
10	0	0	0	0	510	614	
11	0	0	0	0	509	614	
12	0	0	0	0	509	614	
13	0	0	0	0	508	609	
14	0	0	0	0	507	614	
15	0	0	0	0	507	614	
0	0	0	0	0	506	615	
1	0	0	0	0	505	618	
2	0	0	0	0	505	614	
3	0	0	0	0	505	614	
4	0	0	0	0	505	614	
5	0	0	0	0	506	609	
6	0	0	0	0	507	614	
7	0	0	0	0	508	614	
8	0	0	0	0	508	614	
9	0	0	0	0	509	619	
10	0	0	0	0	509	614	
11	0	0	0	0	509	615	
12	0	0	0	0	509	614	
13	0	0	0	0	509	609	
14	0	0	0	0	510	614	
15	0	0	0	0	510	614	
0	0	0	0	0	510	615	
1	0	0	0	0	510	619	
2	0	0	0	0	510	615	
3	0	0	0	0	509	615	
4	0	0	0	0	508	615	
5	0	0	0	0	508	611	
6	0	0	0	0	508	615	
7	0	0	0	0	507	615	
8	0	0	0	0	507	615	
9	0	0	0	0	507	619	
10	0	0	0	0	508	615	
11	0	0	0	0	507	615	
12	0	0	0	0	507	615	
13	0	0	0	0	507	611	
14	0	0	0	0	507	615	
15	0	0	0	0	506	615	
0	0	0	0	0	506	615	
1	0	0	0	0	507	619	
2	0	0	0	0	507	615	
3	0	0	0	0	507	615	
4	0	0	0	0	507	615	
5	0	0	0	0	507	611	
6	0	0	0	0	508	616	
7	0	0	0	0	508	615	
8	0	0	0	0	509	616	
9	0	0	0	0	510	620	
10	0	0	0	0	511	616	
11	0	0	0	0	511	615	
12	0	0	0	0	512	616	
13	0	0	0	0	512	611	
14	0	0	0	0	511	615	
15	0	0	0	0	512	615	
0	0	0	0	0	512	616	
1	0	0	0	0	511	620	
2	0	0	0	0	512	616	
3	0	0	0	0	511	616	
4	0	0	0	0	510	616	
5	0	0	0	0	510	611	
6	0	0	0	0	509	615	
7	0	0	0	0	508	616	
8	0	0	0	0	508	615	
9	0	0	0	0	507	619	
10	0	0	0	0	507	616	
11	0	0	0	0	507	616	
12	0	0	0	0	508	615	
13	0	0	0	0	509	611	
14	0	0	0	0	510	615	
15	0	0	0	0	511	615	
0	0	0	0	0	511	615	
1	0	0	0	0	512	619	
2	0	0	0	0	513	615	
3	0	0	0	0	514	615	
4	0	0	0	0	514	615	
5	0	0	0	0	514	611	
6	0	0	0	0	515	615	
7	0	0	0	0	516	615	
8	0	0	0	0	516	615	
9	0	0	0	0	517	619	
10	0	0	0	0	517	615	
11	0	0	0	0	516	615	
12	0	0	0	0	516	614	
13	0	0	0	0	515	609	
14	0	0	0	0	515	615	
15	0	0	0	0	514	615	
0	0	0	0	0	513	614	
1	0	0	0	0	512	618	
2	0	0	0	0	511	615	
3	0	0	0	0	510	614	
4	0	0	0	0	510	614	
5	0	0	0	0	511	610	
6	0	0	0	0	510	614	
7	0	0	0	0	509	614	
8	0	0	0	0	509	614	
9	0	0	0	0	509	618	
10	0	0	0	0	509	615	
11	0	0	0	0	508	614	
12	0	0	0	0	508	614	
13	0	0	0	0	507	609	
14	0	0	0	0	507	614	
15	0	0	0	0	507	614	
0	0	0	0	0	507	614	
1	0	0	0	0	508	618	
2	0	0	0	0	509	614	
3	0	0	0	0	510	614	
4	0	0	0	0	510	613	
5	0	0	0	0	509	608	
6	0	0	0	0	510	613	
7	0	0	0	0	510	613	
8	0	0	0	0	510	613	
9	0	0	0	0	511	617	
10	0	0	0	0	512	613	
11	0	0	0	0	512	612	
12	0	0	0	0	511	612	
13	0	0	0	0	511	608	
14	0	0	0	0	510	613	
15	0	0	0	0	509	613	
0	0	0	0	0	509	614	
1	0	0	0	0	509	616	
2	0	0	0	0	509	613	
3	0	0	0	0	508	613	
4	0	0	0	0	507	613	
5	0	0	0	0	506	608	
6	0	0	0	0	506	613	
7	0	0	0	0	505	614	
8	0	0	0	0	505	613	
9	0	0	0	0	504	616	
10	0	0	0	0	504	613	
11	0	0	0	0	505	613	
12	0	0	0	0	506	613	
13	0	0	0	0	507	608	
14	0	0	0	0	508	613	
15	0	0	0	0	508	612	
0	0	0	0	0	508	613	
1	0	0	0	0	508	617	
2	0	0	0	0	508	612	
3	0	0	0	0	508	611	
4	0	0	0	0	509	612	
5	0	0	0	0	510	608	
6	0	0	0	0	511	612	
7	0	0	0	0	512	612	
8	0	0	0	0	512	612	
9	0	0	0	0	513	616	
10	0	0	0	0	513	612	
11	0	0	0	0	513	612	
12	0	0	0	0	513	612	
13	0	0	0	0	512	608	
14	0	0	0	0	512	613	
15	0	0	0	0	513	612	
0	0	0	0	0	514	612	
1	0	0	0	0	515	616	
2	0	0	0	0	515	612	
3	0	0	0	0	515	612	
4	0	0	0	0	516	612	
5	0	0	0	0	516	608	
6	0	0	0	0	516	612	
7	0	0	0	0	516	612	
8	0	0	0	0	515	612	
9	0	0	0	0	514	616	
10	0	0	0	0	514	611	
11	0	0	0	0	514	612	
12	0	0	0	0	514	612	
13	0	0	0	0	513	608	
14	0	0	0	0	513	612	
15	0	0	0	0	512	611	
0	0	0	0	0	513	611	
1	0	0	0	0	513	615	
2	0	0	0	0	514	611	
3	0	0	0	0	513	611	
4	0	0	0	0	513	611	
5	0	0	0	0	512	607	
6	0	0	0	0	511	612	
7	0	0	0	0	512	612	
8	0	0	0	0	511	611	
9	0	0	0	0	510	615	
10	0	0	0	0	510	612	
11	0	0	0	0	509	612	
12	0	0	0	0	508	612	
13	0	0	0	0	508	607	
14	0	0	0	0	507	611	
15	0	0	0	0	508	611	
0	0	0	0	0	507	611	
1	0	0	0	0	508	616	
2	0	0	0	0	508	612	
3	0	0	0	0	509	612	
4	0	0	0	0	509	612	
5	0	0	0	0	511	607	
6	0	0	0	0	511	612	
7	0	0	0	0	512	612	
8	0	0	0	0	512	612	
9	0	0	0	0	512	616	
10	0	0	0	0	513	613	
11	0	0	0	0	513	612	
12	0	0	0	0	512	612	
13	0	0	0	0	512	608	
14	0	0	0	0	511	612	
15	0	0	0	0	510	611	
0	0	0	0	0	510	612	
1	0	0	0	0	510	616	
2	0	0	0	0	511	611	
3	0	0	0	0	510	612	
4	0	0	0	0	511	611	
5	0	0	0	0	511	607	
6	0	0	0	0	511	612	
7	0	0	0	0	511	612	
8	0	0	0	0	510	612	
9	0	0	0	0	510	615	
10	0	0	0	0	510	612	
11	0	0	0	0	509	612	
12	0	0	0	0	508	612	
13	0	0	0	0	507	608	
14	0	0	0	0	507	611	
15	0	0	0	0	507	611	
0	0	0	0	0	507	612	
1	0	0	0	0	507	616	
2	0	0	0	0	508	611	
3	0	0	0	0	508	612	
4	0	0	0	0	509	612	
5	0	0	0	0	510	608	
6	0	0	0	0	510	612	
7	0	0	0	0	510	612	
8	0	0	0	0	511	611	
9	0	0	0	0	511	616	
10	0	0	0	0	512	611	
11	0	0	0	0	511	611	
12	0	0	0	0	511	611	
13	0	0	0	0	510	608	
14	0	0	0	0	510	612	
15	0	0	0	0	510	611	
0	0	0	0	0	510	612	
1	0	0	0	0	510	616	
2	0	0	0	0	510	611	
3	0	0	0	0	509	612	
4	0	0	0	0	509	612	
5	0	0	0	0	509	608	
6	0	0	0	0	509	612	
7	0	0	0	0	508	612	
8	0	0	0	0	508	612	
9	0	0	0	0	508	617	
10	0	0	0	0	508	612	
11	0	0	0	0	508	613	
12	0	0	0	0	507	612	
13	0	0	0	0	505	608	
14	0	0	0	0	502	613	
15	0	0	0	0	499	613	
0	0	0	0	0	495	613	
1	0	0	0	0	492	617	
2	0	0	0	0	489	614	
3	0	0	0	0	486	614	
4	0	0	0	0	484	613	
5	0	0	0	0	482	609	
6	0	0	0	0	480	613	
7	0	0	0	0	480	613	
8	0	0	0	0	480	614	
9	0	0	0	0	481	617	
10	0	0	0	0	483	614	
11	0	0	0	0	485	613	
12	0	0	0	0	488	614	
13	0	0	0	0	489	609	
14	0	0	0	0	490	614	
15	0	0	0	0	491	614	
0	0	0	0	0	492	614	
1	0	0	0	0	494	618	
2	0	0	0	0	494	614	
3	0	0	0	0	495	614	
4	0	0	0	0	496	614	
5	0	0	0	0	498	609	
6	0	0	0	0	501	614	
7	0	0	0	0	502	614	
8	0	0	0	0	504	615	
9	0	0	0	0	505	619	
10	0	0	0	0	506	615	
11	0	0	0	0	507	615	
12	0	0	0	0	508	614	
13	0	0	0	0	510	610	
14	0	0	0	0	515	614	
15	0	0	0	0	519	615	
0	0	0	0	0	526	615	
1	0	0	0	0	533	619	
2	0	0	0	0	541	614	
3	0	0	0	0	550	614	
4	0	0	0	0	559	614	
5	0	0	0	0	568	609	
6	0	0	0	0	579	614	
7	0	0	0	0	589	614	
8	0	0	0	0	597	614	
9	0	0	0	0	604	618	
10	0	0	0	0	608	615	
11	0	0	0	0	611	614	
12	0	0	0	0	613	615	
13	0	0	0	0	612	610	
14	0	0	0	0	609	615	
15	0	0	0	0	606	615	
0	0	0	0	0	602	615	
1	0	0	0	0	598	619	
2	0	0	0	0	594	615	
3	0	0	0	0	590	615	
4	0	0	0	0	585	614	
5	0	0	0	0	580	610	
6	0	0	0	0	576	615	
7	0	0	0	0	571	615	
8	0	0	0	0	566	615	
9	0	0	0	0	560	618	
10	0	0	0	0	555	614	
11	0	0	0	0	548	615	
12	0	0	0	0	541	614	
13	0	0	0	0	535	609	
14	0	0	0	0	531	615	
15	0	0	0	0	527	615	
0	0	0	0	0	522	614	
1	0	0	0	0	518	618	
2	0	0	0	0	515	614	
3	0	0	0	0	512	614	
4	0	0	0	0	508	614	
5	0	0	0	0	506	610	
6	0	0	0	0	503	615	
7	0	0	0	0	501	615	
8	0	0	0	0	499	615	
9	0	0	0	0	497	619	
10	0	0	0	0	496	615	
11	0	0	0	0	495	615	
12	0	0	0	0	493	615	
13	0	0	0	0	491	611	
14	0	0	0	0	490	615	
15	0	0	0	0	489	614	
0	0	0	0	0	488	615	
1	0	0	0	0	487	619	
2	0	0	0	0	487	615	
3	0	0	0	0	486	615	
4	0	0	0	0	486	615	
5	0	0	0	0	485	611	
6	0	0	0	0	485	615	
7	0	0	0	0	486	615	
8	0	0	0	0	486	615	
9	0	0	0	0	487	619	
10	0	0	0	0	488	615	
11	0	0	0	0	488	616	
12	0	0	0	0	489	614	
13	0	0	0	0	490	609	
14	0	0	0	0	490	615	
15	0	0	0	0	491	615	
0	0	0	0	0	491	615	
1	0	0	0	0	491	619	
2	0	0	0	0	492	615	
3	0	0	0	0	491	615	
4	0	0	0	0	492	615	
5	0	0	0	0	491	610	
6	0	0	0	0	491	615	
7	0	0	0	0	491	614	
8	0	0	0	0	491	615	
9	0	0	0	0	491	618	
10	0	0	0	0	491	614	
11	0	0	0	0	491	614	
12	0	0	0	0	490	614	
13	0	0	0	0	489	610	
14	0	0	0	0	489	615	
15	0	0	0	0	488	615	
0	0	0	0	0	488	615	
1	0	0	0	0	488	619	
2	0	0	0	0	489	615	
3	0	0	0	0	490	615	
4	0	0	0	0	490	615	
5	0	0	0	0	491	610	
6	0	0	0	0	492	615	
7	0	0	0	0	492	615	
8	0	0	0	0	492	614	
9	0	0	0	0	492	619	
10	0	0	0	0	491	614	
11	0	0	0	0	490	614	
12	0	0	0	0	490	614	
13	0	0	0	0	490	609	
14	0	0	0	0	490	615	
15	0	0	0	0	490	615	
0	0	0	0	0	491	614	
1	0	0	0	0	492	618	
2	0	0	0	0	493	614	
3	0	0	0	0	494	613	
4	0	0	0	0	495	614	
5	0	0	0	0	496	609	
6	0	0	0	0	497	614	
7	0	0	0	0	498	614	
8	0	0	0	0	498	614	
9	0	0	0	0	497	617	
10	0	0	0	0	496	614	
11	0	0	0	0	495	614	
12	0	0	0	0	494	614	
13	0	0	0	0	493	610	
14	0	0	0	0	492	615	
15	0	0	0	0	492	614	
0	0	0	0	0	492	614	
1	0	0	0	0	493	618	
2	0	0	0	0	493	614	
3	0	0	0	0	493	614	
4	0	0	0	0	494	614	
5	0	0	0	0	494	609	
6	0	0	0	0	495	614	
7	0	0	0	0	496	614	
8	0	0	0	0	496	614	
9	0	0	0	0	497	617	
10	0	0	0	0	497	614	
11	0	0	0	0	497	614	
12	0	0	0	0	499	614	
13	0	0	0	0	499	609	
14	0	0	0	0	500	614	
15	0	0	0	0	501	615	
0	0	0	0	0	501	615	
1	0	0	0	0	502	619	
2	0	0	0	0	503	615	
3	0	0	0	0	503	615	
4	0	0	0	0	503	615	
5	0	0	0	0	502	610	
6	0	0	0	0	502	614	
7	0	0	0	0	502	614	
8	0	0	0	0	502	614	
9	0	0	0	0	502	617	
10	0	0	0	0	502	614	
11	0	0	0	0	502	614	
12	0	0	0	0	502	613	
13	0	0	0	0	502	609	
14	0	0	0	0	503	614	
15	0	0	0	0	503	614	
0	0	0	0	0	503	613	
1	0	0	0	0	504	617	
2	0	0	0	0	504	613	
3	0	0	0	0	504	614	
4	0	0	0	0	504	612	
5	0	0	0	0	504	608	
6	0	0	0	0	504	613	
7	0	0	0	0	503	613	
8	0	0	0	0	503	613	
9	0	0	0	0	503	617	
10	0	0	0	0	503	613	
11	0	0	0	0	502	613	
12	0	0	0	0	502	613	
13	0	0	0	0	503	608	
14	0	0	0	0	503	612	
15	0	0	0	0	504	613	
0	0	0	0	0	504	613	
1	0	0	0	0	505	617	
2	0	0	0	0	505	613	
3	0	0	0	0	506	612	
4	0	0	0	0	506	613	
5	0	0	0	0	507	608	
6	0	0	0	0	507	613	
7	0	0	0	0	507	613	
8	0	0	0	0	507	612	
9	0	0	0	0	507	615	
10	0	0	0	0	508	612	
11	0	0	0	0	507	612	
12	0	0	0	0	507	612	
13	0	0	0	0	507	607	
14	0	0	0	0	507	611	
15	0	0	0	0	507	611	
0	0	0	0	0	507	611	
1	0	0	0	0	507	615	
2	0	0	0	0	508	611	
3	0	0	0	0	508	611	
4	0	0	0	0	509	611	
5	0	0	0	0	510	607	
6	0	0	0	0	510	611	
7	0	0	0	0	511	611	
8	0	0	0	0	511	611	
9	0	0	0	0	511	615	
10	0	0	0	0	512	612	
11	0	0	0	0	512	611	
12	0	0	0	0	512	611	
13	0	0	0	0	512	607	
14	0	0	0	0	511	612	
15	0	0	0	0	511	612	
0	0	0	0	0	510	611	
1	0	0	0	0	510	615	
2	0	0	0	0	510	612	
3	0	0	0	0	510	611	
4	0	0	0	0	511	612	
5	0	0	0	0	512	607	
6	0	0	0	0	514	612	
7	0	0	0	0	514	612	
8	0	0	0	0	515	611	
9	0	0	0	0	515	616	
10	0	0	0	0	515	611	
11	0	0	0	0	515	611	
12	0	0	0	0	516	611	
13	0	0	0	0	516	607	
14	0	0	0	0	517	611	
15	0	0	0	0	517	612	
0	0	0	0	0	518	611	
1	0	0	0	0	518	615	
2	0	0	0	0	518	611	
3	0	0	0	0	518	611	
4	0	0	0	0	518	612	
5	0	0	0	0	518	608	
6	0	0	0	0	519	612	
7	0	0	0	0	519	611	
8	0	0	0	0	520	611	
9	0	0	0	0	519	615	
10	0	0	0	0	519	611	
11	0	0	0	0	519	612	
12	0	0	0	0	519	612	
13	0	0	0	0	519	608	
14	0	0	0	0	518	612	
15	0	0	0	0	518	611	
0	0	0	0	0	518	612	
1	0	0	0	0	518	616	
2	0	0	0	0	518	612	
3	0	0	0	0	518	612	
4	0	0	0	0	517	612	
5	0	0	0	0	516	608	
6	0	0	0	0	517	612	
7	0	0	0	0	518	612	
8	0	0	0	0	518	613	
9	0	0	0	0	518	616	
10	0	0	0	0	518	612	
11	0	0	0	0	518	612	
12	0	0	0	0	519	612	
13	0	0	0	0	519	607	
14	0	0	0	0	519	613	
15	0	0	0	0	519	613	
0	0	0	0	0	519	613	
1	0	0	0	0	519	617	
2	0	0	0	0	520	613	
3	0	0	0	0	520	614	
4	0	0	0	0	521	613	
5	0	0	0	0	522	609	
6	0	0	0	0	523	614	
7	0	0	0	0	524	614	
8	0	0	0	0	524	614	
9	0	0	0	0	524	618	
10	0	0	0	0	525	614	
11	0	0	0	0	524	614	
12	0	0	0	0	524	614	
13	0	0	0	0	524	610	
14	0	0	0	0	523	614	
15	0	0	0	0	524	614	
0	0	0	0	0	524	614	
1	0	0	0	0	524	619	
2	0	0	0	0	523	614	
3	0	0	0	0	523	614	
4	0	0	0	0	522	614	
5	0	0	0	0	521	610	
6	0	0	0	0	520	614	
7	0	0	0	0	519	615	
8	0	0	0	0	519	615	
9	0	0	0	0	518	619	
10	0	0	0	0	517	615	
11	0	0	0	0	516	615	
12	0	0	0	0	516	615	
13	0	0	0	0	516	610	
14	0	0	0	0	516	615	
15	0	0	0	0	517	615	
0	0	0	0	0	517	615	
1	0	0	0	0	517	619	
2	0	0	0	0	516	615	
3	0	0	0	0	516	615	
4	0	0	0	0	514	615	
5	0	0	0	0	513	611	
6	0	0	0	0	512	615	
7	0	0	0	0	511	615	
8	0	0	0	0	509	615	
9	0	0	0	0	507	619	
10	0	0	0	0	506	615	
11	0	0	0	0	505	615	
12	0	0	0	0	505	615	
13	0	0	0	0	504	611	
14	0	0	0	0	505	615	
15	0	0	0	0	504	615	
0	0	0	0	0	503	615	
1	0	0	0	0	503	619	
2	0	0	0	0	503	615	
3	0	0	0	0	503	615	
4	0	0	0	0	502	615	
5	0	0	0	0	502	610	
6	0	0	0	0	502	615	
7	0	0	0	0	501	614	
8	0	0	0	0	501	615	
9	0	0	0	0	500	619	
10	0	0	0	0	499	614	
11	0	0	0	0	498	614	
12	0	0	0	0	497	615	
13	0	0	0	0	497	609	
14	0	0	0	0	496	615	
15	0	0	0	0	496	614	
0	0	0	0	0	496	614	
1	0	0	0	0	496	618	
2	0	0	0	0	495	614	
3	0	0	0	0	495	614	
4	0	0	0	0	495	613	
5	0	0	0	0	495	609	
6	0	0	0	0	495	615	
7	0	0	0	0	495	614	
8	0	0	0	0	496	614	
9	0	0	0	0	497	617	
10	0	0	0	0	498	614	
11	0	0	0	0	498	614	
12	0	0	0	0	497	614	
13	0	0	0	0	498	610	
14	0	0	0	0	498	614	
15	0	0	0	0	498	614	
0	0	0	0	0	498	614	
1	0	0	0	0	498	618	
2	0	0	0	0	499	614	
3	0	0	0	0	499	614	
4	0	0	0	0	499	614	
5	0	0	0	0	498	610	
6	0	0	0	0	497	614	
7	0	0	0	0	497	614	
8	0	0	0	0	498	615	
9	0	0	0	0	497	619	
10	0	0	0	0	497	615	
11	0	0	0	0	496	614	
12	0	0	0	0	496	614	
13	0	0	0	0	496	611	
14	0	0	0	0	496	615	
15	0	0	0	0	496	615	
0	0	0	0	0	496	614	
1	0	0	0	0	496	618	
2	0	0	0	0	496	614	
3	0	0	0	0	496	614	
4	0	0	0	0	498	614	
5	0	0	0	0	498	609	
6	0	0	0	0	499	614	
7	0	0	0	0	499	614	
8	0	0	0	0	499	614	
9	0	0	0	0	499	618	
10	0	0	0	0	499	614	
11	0	0	0	0	499	614	
12	0	0	0	0	500	614	
13	0	0	0	0	500	609	
14	0	0	0	0	500	613	
15	0	0	0	0	500	614	
0	0	0	0	0	500	614	
1	0	0	0	0	500	617	
2	0	0	0	0	500	613	
3	0	0	0	0	500	614	
4	0	0	0	0	502	613	
5	0	0	0	0	502	608	
6	0	0	0	0	503	613	
7	0	0	0	0	503	613	
8	0	0	0	0	504	613	
9	0	0	0	0	503	616	
10	0	0	0	0	503	612	
11	0	0	0	0	502	613	
12	0	0	0	0	501	613	
13	0	0	0	0	500	608	
14	0	0	0	0	499	614	
15	0	0	0	0	498	613	
0	0	0	0	0	497	613	
1	0	0	0	0	497	617	
2	0	0	0	0	498	613	
3	0	0	0	0	498	612	
4	0	0	0	0	499	612	
5	0	0	0	0	499	608	
6	0	0	0	0	500	612	
7	0	0	0	0	501	612	
8	0	0	0	0	502	613	
9	0	0	0	0	503	617	
10	0	0	0	0	504	613	
11	0	0	0	0	504	612	
12	0	0	0	0	504	613	
13	0	0	0	0	504	608	
14	0	0	0	0	504	613	
15	0	0	0	0	503	613	
0	0	0	0	0	502	613	
1	0	0	0	0	502	617	
2	0	0	0	0	501	613	
3	0	0	0	0	500	613	
4	0	0	0	0	501	614	
5	0	0	0	0	501	609	
6	0	0	0	0	501	614	
7	0	0	0	0	502	614	
8	0	0	0	0	503	614	
9	0	0	0	0	503	617	
10	0	0	0	0	503	613	
11	0	0	0	0	502	614	
12	0	0	0	0	502	612	
13	0	0	0	0	502	609	
14	0	0	0	0	503	613	
15	0	0	0	0	503	613	
0	0	0	0	0	504	613	
1	0	0	0	0	504	617	
2	0	0	0	0	504	613	
3	0	0	0	0	505	613	
4	0	0	0	0	505	613	
5	0	0	0	0	505	608	
6	0	0	0	0	504	613	
7	0	0	0	0	504	613	
8	0	0	0	0	504	614	
9	0	0	0	0	504	617	
10	0	0	0	0	504	613	
11	0	0	0	0	504	613	
12	0	0	0	0	505	613	
13	0	0	0	0	505	609	
14	0	0	0	0	507	614	
15	0	0	0	0	507	614	
0	0	0	0	0	507	614	
1	0	0	0	0	506	617	
2	0	0	0	0	506	613	
3	0	0	0	0	506	613	
4	0	0	0	0	505	613	
5	0	0	0	0	505	609	
6	0	0	0	0	505	613	
7	0	0	0	0	505	613	
8	0	0	0	0	506	614	
9	0	0	0	0	508	617	
10	0	0	0	0	509	613	
11	0	0	0	0	509	613	
12	0	0	0	0	509	613	
13	0	0	0	0	509	608	
14	0	0	0	0	509	613	
15	0	0	0	0	508	613	
0	0	0	0	0	508	613	
1	0	0	0	0	508	618	
2	0	0	0	0	507	613	
3	0	0	0	0	506	613	
4	0	0	0	0	506	613	
5	0	0	0	0	505	609	
6	0	0	0	0	506	613	
7	0	0	0	0	506	614	
8	0	0	0	0	506	614	
9	0	0	0	0	506	617	
10	0	0	0	0	507	613	
11	0	0	0	0	507	613	
12	0	0	0	0	507	614	
13	0	0	0	0	508	608	
14	0	0	0	0	508	614	
15	0	0	0	0	509	613	
0	0	0	0	0	509	614	
1	0	0	0	0	508	617	
2	0	0	0	0	509	613	
3	0	0	0	0	509	614	
4	0	0	0	0	509	614	
5	0	0	0	0	509	609	
6	0	0	0	0	509	613	
7	0	0	0	0	510	614	
8	0	0	0	0	510	614	
9	0	0	0	0	510	618	
10	0	0	0	0	511	614	
11	0	0	0	0	511	614	
12	0	0	0	0	511	614	
13	0	0	0	0	512	609	
14	0	0	0	0	512	614	
15	0	0	0	0	512	614	
0	0	0	0	0	511	614	
1	0	0	0	0	510	619	
2	0	0	0	0	509	614	
3	0	0	0	0	508	614	
4	0	0	0	0	508	614	
5	0	0	0	0	507	609	
6	0	0	0	0	507	614	
7	0	0	0	0	507	614	
8	0	0	0	0	507	613	
9	0	0	0	0	507	617	
10	0	0	0	0	507	612	
11	0	0	0	0	508	613	
12	0	0	0	0	508	612	
13	0	0	0	0	508	608	
14	0	0	0	0	508	612	
15	0	0	0	0	509	612	
0	0	0	0	0	508	612	
1	0	0	0	0	509	616	
2	0	0	0	0	510	612	
3	0	0	0	0	510	613	
4	0	0	0	0	510	612	
5	0	0	0	0	511	608	
6	0	0	0	0	511	612	
7	0	0	0	0	511	612	
8	0	0	0	0	511	612	
9	0	0	0	0	511	616	
10	0	0	0	0	511	612	
11	0	0	0	0	511	612	
12	0	0	0	0	511	612	
13	0	0	0	0	510	608	
14	0	0	0	0	509	612	
15	0	0	0	0	509	612	
0	0	0	0	0	509	613	
1	0	0	0	0	508	616	
2	0	0	0	0	508	612	
3	0	0	0	0	508	611	
4	0	0	0	0	509	612	
5	0	0	0	0	509	608	
6	0	0	0	0	510	612	
7	0	0	0	0	510	611	
8	0	0	0	0	511	612	
9	0	0	0	0	510	616	
10	0	0	0	0	511	611	
11	0	0	0	0	511	611	
12	0	0	0	0	511	612	
13	0	0	0	0	511	607	
14	0	0	0	0	510	612	
15	0	0	0	0	510	612	
0	0	0	0	0	508	611	
1	0	0	0	0	507	615	
2	0	0	0	0	506	611	
3	0	0	0	0	506	611	
4	0	0	0	0	505	611	
5	0	0	0	0	505	606	
6	0	0	0	0	505	611	
7	0	0	0	0	505	611	
8	0	0	0	0	505	611	
9	0	0	0	0	506	615	
10	0	0	0	0	507	611	
11	0	0	0	0	508	611	
12	0	0	0	0	508	611	
13	0	0	0	0	510	606	
14	0	0	0	0	511	611	
15	0	0	0	0	512	611	
0	0	0	0	0	512	612	
1	0	0	0	0	513	616	
2	0	0	0	0	513	611	
3	0	0	0	0	512	611	
