# OpenSignals Text File Format. Version 1
# {"98:D3:91:FD:69:48": {"position": 0, "device": "bitalino_rev", "device name": "98:D3:91:FD:69:48", "device connection": "BTH98:D3:91:FD:69:48", "sampling rate": 1000, "resolution": [4, 1, 1, 1, 1, 10, 10], "firmware version": 1281, "comments": "", "keywords": "", "mode": 0, "sync interval": 2, "date": "2021-9-13", "time": "21:43:7.452", "channels": [2, 5], "sensor": ["RAW", "RAW"], "label": ["A2", "A5"], "column": ["nSeq", "I1", "I2", "O1", "O2", "A2", "A5"], "special": [{}, {}], "digital IO": [0, 0, 1, 1], "convertedValues": 0}}
# EndOfHeader
0	0	0	0	0	499	420	
1	0	0	0	0	499	419	
2	0	0	0	0	499	414	
3	0	0	0	0	499	419	
4	0	0	0	0	500	420	
5	0	0	0	0	500	420	
6	0	0	0	0	501	424	
7	0	0	0	0	501	419	
8	0	0	0	0	500	419	
9	0	0	0	0	500	418	
10	0	0	0	0	499	413	
11	0	0	0	0	498	419	
12	0	0	0	0	497	419	
13	0	0	0	0	498	419	
14	0	0	0	0	498	423	
15	0	0	0	0	499	419	
0	0	0	0	0	499	419	
1	0	0	0	0	498	418	
2	0	0	0	0	499	414	
3	0	0	0	0	500	419	
4	0	0	0	0	500	419	
5	0	0	0	0	502	418	
6	0	0	0	0	503	423	
7	0	0	0	0	504	418	
8	0	0	0	0	505	418	
9	0	0	0	0	507	417	
10	0	0	0	0	508	413	
11	0	0	0	0	509	418	
12	0	0	0	0	509	418	
13	0	0	0	0	509	418	
14	0	0	0	0	510	423	
15	0	0	0	0	510	418	
0	0	0	0	0	510	418	
1	0	0	0	0	509	417	
2	0	0	0	0	509	412	
3	0	0	0	0	510	417	
4	0	0	0	0	511	417	
5	0	0	0	0	511	418	
6	0	0	0	0	513	423	
7	0	0	0	0	514	418	
8	0	0	0	0	514	418	
9	0	0	0	0	515	418	
10	0	0	0	0	515	413	
11	0	0	0	0	515	417	
12	0	0	0	0	515	417	
13	0	0	0	0	514	417	
14	0	0	0	0	514	422	
15	0	0	0	0	513	417	
0	0	0	0	0	512	417	
1	0	0	0	0	512	417	
2	0	0	0	0	511	412	
3	0	0	0	0	511	418	
4	0	0	0	0	511	417	
5	0	0	0	0	511	418	
6	0	0	0	0	511	422	
7	0	0	0	0	511	418	
8	0	0	0	0	511	418	
9	0	0	0	0	511	418	
10	0	0	0	0	511	412	
11	0	0	0	0	511	417	
12	0	0	0	0	511	419	
13	0	0	0	0	511	418	
14	0	0	0	0	511	423	
15	0	0	0	0	511	418	
0	0	0	0	0	511	418	
1	0	0	0	0	511	418	
2	0	0	0	0	510	413	
3	0	0	0	0	510	418	
4	0	0	0	0	510	418	
5	0	0	0	0	511	418	
6	0	0	0	0	511	423	
7	0	0	0	0	511	418	
8	0	0	0	0	511	419	
9	0	0	0	0	512	419	
10	0	0	0	0	512	413	
11	0	0	0	0	512	419	
12	0	0	0	0	512	418	
13	0	0	0	0	512	419	
14	0	0	0	0	512	423	
15	0	0	0	0	511	418	
0	0	0	0	0	511	419	
1	0	0	0	0	511	419	
2	0	0	0	0	511	413	
3	0	0	0	0	512	418	
4	0	0	0	0	511	419	
5	0	0	0	0	511	419	
6	0	0	0	0	511	423	
7	0	0	0	0	511	419	
8	0	0	0	0	511	419	
9	0	0	0	0	511	419	
10	0	0	0	0	511	414	
11	0	0	0	0	510	419	
12	0	0	0	0	510	418	
13	0	0	0	0	508	419	
14	0	0	0	0	507	423	
15	0	0	0	0	505	419	
0	0	0	0	0	504	419	
1	0	0	0	0	501	419	
2	0	0	0	0	499	413	
3	0	0	0	0	496	419	
4	0	0	0	0	494	418	
5	0	0	0	0	491	419	
6	0	0	0	0	486	423	
7	0	0	0	0	480	418	
8	0	0	0	0	475	418	
9	0	0	0	0	470	418	
10	0	0	0	0	464	413	
11	0	0	0	0	459	418	
12	0	0	0	0	454	418	
13	0	0	0	0	450	419	
14	0	0	0	0	446	423	
15	0	0	0	0	444	419	
0	0	0	0	0	441	419	
1	0	0	0	0	439	418	
2	0	0	0	0	437	413	
3	0	0	0	0	435	419	
4	0	0	0	0	436	419	
5	0	0	0	0	437	418	
6	0	0	0	0	439	423	
7	0	0	0	0	443	418	
8	0	0	0	0	449	419	
9	0	0	0	0	461	417	
10	0	0	0	0	475	413	
11	0	0	0	0	493	419	
12	0	0	0	0	515	419	
13	0	0	0	0	542	419	
14	0	0	0	0	570	423	
15	0	0	0	0	596	419	
0	0	0	0	0	621	418	
1	0	0	0	0	645	418	
2	0	0	0	0	670	412	
3	0	0	0	0	695	418	
4	0	0	0	0	716	418	
5	0	0	0	0	734	418	
6	0	0	0	0	748	423	
7	0	0	0	0	758	418	
8	0	0	0	0	766	417	
9	0	0	0	0	775	418	
10	0	0	0	0	783	413	
11	0	0	0	0	789	418	
12	0	0	0	0	791	418	
13	0	0	0	0	790	418	
14	0	0	0	0	783	423	
15	0	0	0	0	772	418	
0	0	0	0	0	754	418	
1	0	0	0	0	731	417	
2	0	0	0	0	704	413	
3	0	0	0	0	677	418	
4	0	0	0	0	652	419	
5	0	0	0	0	632	418	
6	0	0	0	0	616	423	
7	0	0	0	0	603	419	
8	0	0	0	0	588	419	
9	0	0	0	0	575	418	
10	0	0	0	0	561	413	
11	0	0	0	0	548	418	
12	0	0	0	0	537	418	
13	0	0	0	0	527	418	
14	0	0	0	0	518	423	
15	0	0	0	0	512	418	
0	0	0	0	0	505	419	
1	0	0	0	0	499	418	
2	0	0	0	0	494	413	
3	0	0	0	0	490	419	
4	0	0	0	0	486	419	
5	0	0	0	0	482	419	
6	0	0	0	0	479	423	
7	0	0	0	0	477	419	
8	0	0	0	0	475	419	
9	0	0	0	0	473	419	
10	0	0	0	0	471	413	
11	0	0	0	0	469	418	
12	0	0	0	0	467	419	
13	0	0	0	0	466	419	
14	0	0	0	0	464	423	
15	0	0	0	0	463	419	
0	0	0	0	0	461	418	
1	0	0	0	0	461	419	
2	0	0	0	0	462	414	
3	0	0	0	0	461	418	
4	0	0	0	0	461	419	
5	0	0	0	0	462	419	
6	0	0	0	0	461	423	
7	0	0	0	0	461	418	
8	0	0	0	0	461	419	
9	0	0	0	0	461	418	
10	0	0	0	0	461	413	
11	0	0	0	0	461	419	
12	0	0	0	0	461	419	
13	0	0	0	0	461	419	
14	0	0	0	0	460	423	
15	0	0	0	0	460	419	
0	0	0	0	0	460	419	
1	0	0	0	0	461	418	
2	0	0	0	0	462	414	
3	0	0	0	0	462	419	
4	0	0	0	0	462	419	
5	0	0	0	0	462	418	
6	0	0	0	0	463	423	
7	0	0	0	0	463	418	
8	0	0	0	0	462	418	
9	0	0	0	0	463	419	
10	0	0	0	0	463	413	
11	0	0	0	0	463	418	
12	0	0	0	0	463	418	
13	0	0	0	0	463	418	
14	0	0	0	0	464	423	
15	0	0	0	0	465	418	
0	0	0	0	0	466	417	
1	0	0	0	0	466	418	
2	0	0	0	0	465	413	
3	0	0	0	0	465	418	
4	0	0	0	0	465	417	
5	0	0	0	0	465	419	
6	0	0	0	0	466	423	
7	0	0	0	0	466	418	
8	0	0	0	0	466	418	
9	0	0	0	0	467	418	
10	0	0	0	0	468	412	
11	0	0	0	0	468	418	
12	0	0	0	0	469	418	
13	0	0	0	0	470	418	
14	0	0	0	0	470	423	
15	0	0	0	0	471	418	
0	0	0	0	0	471	419	
1	0	0	0	0	472	417	
2	0	0	0	0	474	413	
3	0	0	0	0	475	418	
4	0	0	0	0	476	418	
5	0	0	0	0	476	419	
6	0	0	0	0	477	423	
7	0	0	0	0	478	418	
8	0	0	0	0	477	418	
9	0	0	0	0	477	418	
10	0	0	0	0	477	413	
11	0	0	0	0	478	418	
12	0	0	0	0	478	418	
13	0	0	0	0	478	418	
14	0	0	0	0	478	423	
15	0	0	0	0	478	418	
0	0	0	0	0	478	419	
1	0	0	0	0	479	418	
2	0	0	0	0	479	413	
3	0	0	0	0	480	419	
4	0	0	0	0	480	418	
5	0	0	0	0	481	419	
6	0	0	0	0	482	423	
7	0	0	0	0	482	418	
8	0	0	0	0	483	418	
9	0	0	0	0	483	418	
10	0	0	0	0	484	414	
11	0	0	0	0	485	418	
12	0	0	0	0	486	419	
13	0	0	0	0	487	418	
14	0	0	0	0	487	423	
15	0	0	0	0	487	419	
0	0	0	0	0	488	419	
1	0	0	0	0	488	418	
2	0	0	0	0	489	413	
3	0	0	0	0	489	419	
4	0	0	0	0	489	418	
5	0	0	0	0	489	418	
6	0	0	0	0	489	423	
7	0	0	0	0	489	418	
8	0	0	0	0	489	418	
9	0	0	0	0	489	418	
10	0	0	0	0	489	414	
11	0	0	0	0	488	418	
12	0	0	0	0	488	419	
13	0	0	0	0	489	418	
14	0	0	0	0	489	423	
15	0	0	0	0	491	419	
0	0	0	0	0	491	419	
1	0	0	0	0	492	419	
2	0	0	0	0	492	414	
3	0	0	0	0	493	419	
4	0	0	0	0	494	419	
5	0	0	0	0	494	419	
6	0	0	0	0	495	423	
7	0	0	0	0	495	418	
8	0	0	0	0	496	419	
9	0	0	0	0	496	419	
10	0	0	0	0	497	413	
11	0	0	0	0	498	419	
12	0	0	0	0	498	419	
13	0	0	0	0	499	419	
14	0	0	0	0	499	424	
15	0	0	0	0	500	419	
0	0	0	0	0	499	419	
1	0	0	0	0	499	419	
2	0	0	0	0	499	414	
3	0	0	0	0	499	419	
4	0	0	0	0	500	419	
5	0	0	0	0	500	419	
6	0	0	0	0	500	423	
7	0	0	0	0	500	418	
8	0	0	0	0	500	418	
9	0	0	0	0	500	419	
10	0	0	0	0	500	414	
11	0	0	0	0	500	419	
12	0	0	0	0	501	419	
13	0	0	0	0	501	419	
14	0	0	0	0	501	423	
15	0	0	0	0	502	418	
0	0	0	0	0	501	418	
1	0	0	0	0	501	418	
2	0	0	0	0	501	413	
3	0	0	0	0	502	419	
4	0	0	0	0	503	419	
5	0	0	0	0	504	418	
6	0	0	0	0	503	423	
7	0	0	0	0	504	419	
8	0	0	0	0	504	419	
9	0	0	0	0	504	419	
10	0	0	0	0	505	414	
11	0	0	0	0	504	419	
12	0	0	0	0	505	419	
13	0	0	0	0	505	419	
14	0	0	0	0	506	423	
15	0	0	0	0	507	419	
0	0	0	0	0	508	419	
1	0	0	0	0	508	419	
2	0	0	0	0	509	414	
3	0	0	0	0	508	419	
4	0	0	0	0	509	419	
5	0	0	0	0	509	419	
6	0	0	0	0	509	423	
7	0	0	0	0	509	418	
8	0	0	0	0	510	418	
9	0	0	0	0	511	418	
10	0	0	0	0	511	413	
11	0	0	0	0	510	419	
12	0	0	0	0	510	419	
13	0	0	0	0	510	419	
14	0	0	0	0	510	423	
15	0	0	0	0	510	419	
0	0	0	0	0	510	418	
1	0	0	0	0	510	419	
2	0	0	0	0	510	413	
3	0	0	0	0	509	418	
4	0	0	0	0	510	419	
5	0	0	0	0	511	419	
6	0	0	0	0	512	423	
7	0	0	0	0	513	417	
8	0	0	0	0	513	417	
9	0	0	0	0	514	418	
10	0	0	0	0	515	413	
11	0	0	0	0	515	417	
12	0	0	0	0	516	418	
13	0	0	0	0	517	417	
14	0	0	0	0	517	423	
15	0	0	0	0	518	418	
0	0	0	0	0	518	418	
1	0	0	0	0	518	417	
2	0	0	0	0	518	412	
3	0	0	0	0	518	418	
4	0	0	0	0	518	418	
5	0	0	0	0	518	418	
6	0	0	0	0	519	422	
7	0	0	0	0	520	418	
8	0	0	0	0	521	418	
9	0	0	0	0	522	417	
10	0	0	0	0	523	412	
11	0	0	0	0	524	417	
12	0	0	0	0	525	417	
13	0	0	0	0	525	419	
14	0	0	0	0	525	423	
15	0	0	0	0	526	418	
0	0	0	0	0	526	418	
1	0	0	0	0	525	417	
2	0	0	0	0	526	413	
3	0	0	0	0	526	419	
4	0	0	0	0	526	419	
5	0	0	0	0	526	418	
6	0	0	0	0	526	423	
7	0	0	0	0	526	418	
8	0	0	0	0	525	419	
9	0	0	0	0	526	417	
10	0	0	0	0	526	413	
11	0	0	0	0	527	417	
12	0	0	0	0	526	418	
13	0	0	0	0	526	418	
14	0	0	0	0	527	423	
15	0	0	0	0	526	417	
0	0	0	0	0	526	418	
1	0	0	0	0	525	418	
2	0	0	0	0	525	412	
3	0	0	0	0	524	417	
4	0	0	0	0	523	419	
5	0	0	0	0	522	418	
6	0	0	0	0	521	423	
7	0	0	0	0	520	418	
8	0	0	0	0	519	417	
9	0	0	0	0	518	417	
10	0	0	0	0	517	413	
11	0	0	0	0	516	418	
12	0	0	0	0	515	417	
13	0	0	0	0	514	418	
14	0	0	0	0	514	423	
15	0	0	0	0	514	418	
0	0	0	0	0	512	418	
1	0	0	0	0	512	417	
2	0	0	0	0	511	412	
3	0	0	0	0	510	417	
4	0	0	0	0	509	417	
5	0	0	0	0	508	418	
6	0	0	0	0	507	422	
7	0	0	0	0	507	418	
8	0	0	0	0	505	418	
9	0	0	0	0	504	417	
10	0	0	0	0	504	412	
11	0	0	0	0	504	418	
12	0	0	0	0	503	418	
13	0	0	0	0	503	418	
14	0	0	0	0	503	423	
15	0	0	0	0	503	418	
0	0	0	0	0	503	418	
1	0	0	0	0	503	417	
2	0	0	0	0	504	413	
3	0	0	0	0	503	419	
4	0	0	0	0	504	419	
5	0	0	0	0	503	418	
6	0	0	0	0	503	423	
7	0	0	0	0	503	418	
8	0	0	0	0	503	419	
9	0	0	0	0	504	418	
10	0	0	0	0	504	413	
11	0	0	0	0	503	418	
12	0	0	0	0	503	419	
13	0	0	0	0	503	419	
14	0	0	0	0	504	424	
15	0	0	0	0	504	418	
0	0	0	0	0	504	418	
1	0	0	0	0	504	419	
2	0	0	0	0	504	413	
3	0	0	0	0	505	419	
4	0	0	0	0	505	419	
5	0	0	0	0	505	419	
6	0	0	0	0	504	423	
7	0	0	0	0	505	418	
8	0	0	0	0	505	418	
9	0	0	0	0	506	418	
10	0	0	0	0	506	413	
11	0	0	0	0	507	419	
12	0	0	0	0	508	419	
13	0	0	0	0	508	419	
14	0	0	0	0	508	423	
15	0	0	0	0	508	419	
0	0	0	0	0	507	419	
1	0	0	0	0	507	419	
2	0	0	0	0	507	414	
3	0	0	0	0	507	418	
4	0	0	0	0	507	419	
5	0	0	0	0	507	419	
6	0	0	0	0	507	424	
7	0	0	0	0	508	419	
8	0	0	0	0	508	419	
9	0	0	0	0	508	418	
10	0	0	0	0	508	414	
11	0	0	0	0	508	419	
12	0	0	0	0	509	419	
13	0	0	0	0	509	419	
14	0	0	0	0	509	423	
15	0	0	0	0	509	419	
0	0	0	0	0	510	419	
1	0	0	0	0	510	419	
2	0	0	0	0	510	414	
3	0	0	0	0	510	418	
4	0	0	0	0	510	419	
5	0	0	0	0	510	418	
6	0	0	0	0	510	423	
7	0	0	0	0	510	419	
8	0	0	0	0	511	418	
9	0	0	0	0	511	418	
10	0	0	0	0	512	413	
11	0	0	0	0	512	418	
12	0	0	0	0	513	418	
13	0	0	0	0	513	418	
14	0	0	0	0	512	422	
15	0	0	0	0	512	419	
0	0	0	0	0	513	418	
1	0	0	0	0	513	418	
2	0	0	0	0	513	413	
3	0	0	0	0	513	419	
4	0	0	0	0	514	418	
5	0	0	0	0	514	418	
6	0	0	0	0	514	423	
7	0	0	0	0	514	418	
8	0	0	0	0	514	419	
9	0	0	0	0	513	419	
10	0	0	0	0	513	413	
11	0	0	0	0	513	419	
12	0	0	0	0	514	419	
13	0	0	0	0	514	419	
14	0	0	0	0	514	423	
15	0	0	0	0	514	419	
0	0	0	0	0	513	418	
1	0	0	0	0	513	418	
2	0	0	0	0	513	413	
3	0	0	0	0	513	419	
4	0	0	0	0	514	418	
5	0	0	0	0	513	419	
6	0	0	0	0	514	423	
7	0	0	0	0	514	418	
8	0	0	0	0	515	418	
9	0	0	0	0	515	418	
10	0	0	0	0	514	413	
11	0	0	0	0	514	419	
12	0	0	0	0	514	419	
13	0	0	0	0	514	419	
14	0	0	0	0	515	423	
15	0	0	0	0	514	418	
0	0	0	0	0	514	418	
1	0	0	0	0	514	418	
2	0	0	0	0	514	413	
3	0	0	0	0	514	418	
4	0	0	0	0	515	419	
5	0	0	0	0	515	418	
6	0	0	0	0	514	423	
7	0	0	0	0	515	418	
8	0	0	0	0	516	418	
9	0	0	0	0	516	418	
10	0	0	0	0	515	414	
11	0	0	0	0	514	418	
12	0	0	0	0	515	418	
13	0	0	0	0	515	418	
14	0	0	0	0	515	423	
15	0	0	0	0	514	418	
0	0	0	0	0	514	418	
1	0	0	0	0	514	418	
2	0	0	0	0	513	412	
3	0	0	0	0	513	417	
4	0	0	0	0	512	418	
5	0	0	0	0	512	419	
6	0	0	0	0	513	423	
7	0	0	0	0	513	417	
8	0	0	0	0	513	418	
9	0	0	0	0	513	417	
10	0	0	0	0	514	412	
11	0	0	0	0	514	418	
12	0	0	0	0	514	418	
13	0	0	0	0	513	417	
14	0	0	0	0	513	422	
15	0	0	0	0	513	417	
0	0	0	0	0	512	417	
1	0	0	0	0	512	418	
2	0	0	0	0	512	413	
3	0	0	0	0	511	417	
4	0	0	0	0	512	417	
5	0	0	0	0	511	418	
6	0	0	0	0	510	423	
7	0	0	0	0	510	419	
8	0	0	0	0	509	417	
9	0	0	0	0	508	418	
10	0	0	0	0	508	412	
11	0	0	0	0	508	418	
12	0	0	0	0	507	419	
13	0	0	0	0	507	418	
14	0	0	0	0	506	422	
15	0	0	0	0	505	418	
0	0	0	0	0	505	418	
1	0	0	0	0	504	418	
2	0	0	0	0	504	412	
3	0	0	0	0	505	418	
4	0	0	0	0	505	418	
5	0	0	0	0	505	419	
6	0	0	0	0	506	423	
7	0	0	0	0	507	418	
8	0	0	0	0	507	418	
9	0	0	0	0	508	419	
10	0	0	0	0	509	414	
11	0	0	0	0	510	419	
12	0	0	0	0	510	419	
13	0	0	0	0	510	419	
14	0	0	0	0	509	423	
15	0	0	0	0	508	419	
0	0	0	0	0	508	419	
1	0	0	0	0	508	419	
2	0	0	0	0	508	414	
3	0	0	0	0	508	419	
4	0	0	0	0	509	419	
5	0	0	0	0	509	418	
6	0	0	0	0	509	423	
7	0	0	0	0	510	418	
8	0	0	0	0	510	418	
9	0	0	0	0	511	419	
10	0	0	0	0	511	413	
11	0	0	0	0	512	419	
12	0	0	0	0	514	419	
13	0	0	0	0	515	419	
14	0	0	0	0	515	423	
15	0	0	0	0	516	419	
0	0	0	0	0	517	419	
1	0	0	0	0	518	419	
2	0	0	0	0	518	414	
3	0	0	0	0	519	419	
4	0	0	0	0	518	419	
5	0	0	0	0	519	419	
6	0	0	0	0	520	423	
7	0	0	0	0	521	419	
8	0	0	0	0	521	419	
9	0	0	0	0	522	419	
10	0	0	0	0	523	414	
11	0	0	0	0	524	419	
12	0	0	0	0	524	419	
13	0	0	0	0	525	419	
14	0	0	0	0	525	424	
15	0	0	0	0	524	419	
0	0	0	0	0	524	419	
1	0	0	0	0	523	418	
2	0	0	0	0	522	413	
3	0	0	0	0	521	418	
4	0	0	0	0	521	417	
5	0	0	0	0	520	418	
6	0	0	0	0	519	422	
7	0	0	0	0	518	418	
8	0	0	0	0	518	417	
9	0	0	0	0	518	418	
10	0	0	0	0	517	413	
11	0	0	0	0	516	417	
12	0	0	0	0	516	418	
13	0	0	0	0	516	418	
14	0	0	0	0	516	423	
15	0	0	0	0	516	418	
0	0	0	0	0	517	418	
1	0	0	0	0	517	418	
2	0	0	0	0	517	413	
3	0	0	0	0	516	418	
4	0	0	0	0	516	418	
5	0	0	0	0	516	418	
6	0	0	0	0	516	423	
7	0	0	0	0	516	419	
8	0	0	0	0	516	418	
9	0	0	0	0	516	419	
10	0	0	0	0	516	413	
11	0	0	0	0	516	418	
12	0	0	0	0	516	418	
13	0	0	0	0	515	418	
14	0	0	0	0	515	423	
15	0	0	0	0	515	418	
0	0	0	0	0	514	419	
1	0	0	0	0	513	418	
2	0	0	0	0	513	413	
3	0	0	0	0	514	418	
4	0	0	0	0	514	418	
5	0	0	0	0	514	418	
6	0	0	0	0	514	423	
7	0	0	0	0	515	418	
8	0	0	0	0	514	419	
9	0	0	0	0	514	418	
10	0	0	0	0	515	414	
11	0	0	0	0	515	419	
12	0	0	0	0	514	418	
13	0	0	0	0	514	418	
14	0	0	0	0	514	423	
15	0	0	0	0	513	418	
0	0	0	0	0	512	418	
1	0	0	0	0	512	418	
2	0	0	0	0	511	413	
3	0	0	0	0	511	418	
4	0	0	0	0	509	418	
5	0	0	0	0	508	419	
6	0	0	0	0	504	423	
7	0	0	0	0	501	418	
8	0	0	0	0	497	418	
9	0	0	0	0	493	418	
10	0	0	0	0	488	413	
11	0	0	0	0	483	418	
12	0	0	0	0	478	418	
13	0	0	0	0	472	418	
14	0	0	0	0	466	423	
15	0	0	0	0	461	418	
0	0	0	0	0	455	418	
1	0	0	0	0	451	418	
2	0	0	0	0	448	413	
3	0	0	0	0	446	418	
4	0	0	0	0	444	419	
5	0	0	0	0	443	419	
6	0	0	0	0	444	423	
7	0	0	0	0	446	418	
8	0	0	0	0	449	418	
9	0	0	0	0	453	417	
10	0	0	0	0	458	414	
11	0	0	0	0	467	419	
12	0	0	0	0	480	419	
13	0	0	0	0	498	419	
14	0	0	0	0	520	423	
15	0	0	0	0	545	419	
0	0	0	0	0	574	419	
1	0	0	0	0	603	418	
2	0	0	0	0	629	414	
3	0	0	0	0	655	419	
4	0	0	0	0	684	419	
5	0	0	0	0	711	419	
6	0	0	0	0	734	423	
7	0	0	0	0	754	419	
8	0	0	0	0	770	419	
9	0	0	0	0	782	418	
10	0	0	0	0	794	413	
11	0	0	0	0	805	418	
12	0	0	0	0	814	418	
13	0	0	0	0	823	418	
14	0	0	0	0	830	423	
15	0	0	0	0	833	418	
0	0	0	0	0	832	418	
1	0	0	0	0	825	418	
2	0	0	0	0	811	412	
3	0	0	0	0	792	418	
4	0	0	0	0	768	418	
5	0	0	0	0	739	418	
6	0	0	0	0	708	423	
7	0	0	0	0	680	418	
8	0	0	0	0	656	419	
9	0	0	0	0	637	418	
10	0	0	0	0	621	414	
11	0	0	0	0	604	418	
12	0	0	0	0	588	418	
13	0	0	0	0	572	418	
14	0	0	0	0	557	423	
15	0	0	0	0	544	417	
0	0	0	0	0	532	417	
1	0	0	0	0	523	418	
2	0	0	0	0	514	412	
3	0	0	0	0	507	418	
4	0	0	0	0	500	418	
5	0	0	0	0	493	419	
6	0	0	0	0	487	423	
7	0	0	0	0	483	418	
8	0	0	0	0	480	418	
9	0	0	0	0	477	418	
10	0	0	0	0	473	413	
11	0	0	0	0	471	418	
12	0	0	0	0	468	418	
13	0	0	0	0	467	419	
14	0	0	0	0	465	423	
15	0	0	0	0	465	418	
0	0	0	0	0	464	418	
1	0	0	0	0	463	418	
2	0	0	0	0	462	412	
3	0	0	0	0	461	419	
4	0	0	0	0	461	418	
5	0	0	0	0	460	419	
6	0	0	0	0	459	423	
7	0	0	0	0	460	418	
8	0	0	0	0	459	418	
9	0	0	0	0	459	417	
10	0	0	0	0	459	413	
11	0	0	0	0	458	418	
12	0	0	0	0	458	419	
13	0	0	0	0	457	418	
14	0	0	0	0	457	423	
15	0	0	0	0	457	418	
0	0	0	0	0	457	418	
1	0	0	0	0	457	419	
2	0	0	0	0	456	413	
3	0	0	0	0	456	418	
4	0	0	0	0	456	418	
5	0	0	0	0	457	419	
6	0	0	0	0	458	423	
7	0	0	0	0	459	419	
8	0	0	0	0	459	418	
9	0	0	0	0	459	418	
10	0	0	0	0	460	414	
11	0	0	0	0	460	418	
12	0	0	0	0	462	418	
13	0	0	0	0	463	419	
14	0	0	0	0	463	423	
15	0	0	0	0	462	418	
0	0	0	0	0	462	419	
1	0	0	0	0	463	418	
2	0	0	0	0	463	413	
3	0	0	0	0	464	418	
4	0	0	0	0	464	419	
5	0	0	0	0	464	419	
6	0	0	0	0	465	423	
7	0	0	0	0	465	418	
8	0	0	0	0	465	419	
9	0	0	0	0	465	418	
10	0	0	0	0	466	414	
11	0	0	0	0	466	418	
12	0	0	0	0	467	419	
13	0	0	0	0	467	418	
14	0	0	0	0	468	423	
15	0	0	0	0	469	419	
0	0	0	0	0	469	418	
1	0	0	0	0	469	418	
2	0	0	0	0	470	413	
3	0	0	0	0	470	419	
4	0	0	0	0	470	418	
5	0	0	0	0	469	419	
6	0	0	0	0	470	423	
7	0	0	0	0	472	418	
8	0	0	0	0	472	419	
9	0	0	0	0	472	419	
10	0	0	0	0	472	413	
11	0	0	0	0	472	419	
12	0	0	0	0	473	419	
13	0	0	0	0	474	418	
14	0	0	0	0	475	423	
15	0	0	0	0	476	419	
0	0	0	0	0	476	419	
1	0	0	0	0	476	417	
2	0	0	0	0	478	412	
3	0	0	0	0	478	417	
4	0	0	0	0	479	417	
5	0	0	0	0	479	418	
6	0	0	0	0	479	423	
7	0	0	0	0	480	417	
8	0	0	0	0	480	418	
9	0	0	0	0	480	417	
10	0	0	0	0	481	412	
11	0	0	0	0	481	417	
12	0	0	0	0	481	418	
13	0	0	0	0	481	418	
14	0	0	0	0	481	423	
15	0	0	0	0	482	418	
0	0	0	0	0	481	418	
1	0	0	0	0	480	418	
2	0	0	0	0	480	413	
3	0	0	0	0	480	418	
4	0	0	0	0	481	418	
5	0	0	0	0	481	418	
6	0	0	0	0	482	423	
7	0	0	0	0	483	418	
8	0	0	0	0	483	418	
9	0	0	0	0	483	417	
10	0	0	0	0	483	413	
11	0	0	0	0	483	418	
12	0	0	0	0	483	418	
13	0	0	0	0	483	418	
14	0	0	0	0	484	423	
15	0	0	0	0	485	419	
0	0	0	0	0	486	419	
1	0	0	0	0	485	418	
2	0	0	0	0	485	414	
3	0	0	0	0	485	419	
4	0	0	0	0	484	419	
5	0	0	0	0	485	419	
6	0	0	0	0	486	424	
7	0	0	0	0	487	419	
8	0	0	0	0	487	419	
9	0	0	0	0	486	419	
10	0	0	0	0	485	414	
11	0	0	0	0	486	419	
12	0	0	0	0	486	419	
13	0	0	0	0	487	419	
14	0	0	0	0	486	424	
15	0	0	0	0	487	419	
0	0	0	0	0	487	419	
1	0	0	0	0	487	419	
2	0	0	0	0	488	414	
3	0	0	0	0	487	419	
4	0	0	0	0	488	419	
5	0	0	0	0	488	419	
6	0	0	0	0	490	423	
7	0	0	0	0	491	419	
8	0	0	0	0	491	418	
9	0	0	0	0	491	418	
10	0	0	0	0	491	413	
11	0	0	0	0	492	418	
12	0	0	0	0	492	418	
13	0	0	0	0	493	419	
14	0	0	0	0	494	423	
15	0	0	0	0	495	418	
0	0	0	0	0	495	419	
1	0	0	0	0	495	418	
2	0	0	0	0	496	413	
3	0	0	0	0	496	418	
4	0	0	0	0	496	418	
5	0	0	0	0	496	419	
6	0	0	0	0	496	423	
7	0	0	0	0	497	418	
8	0	0	0	0	496	417	
9	0	0	0	0	497	418	
10	0	0	0	0	497	414	
11	0	0	0	0	497	417	
12	0	0	0	0	498	417	
13	0	0	0	0	499	418	
14	0	0	0	0	499	423	
15	0	0	0	0	500	417	
0	0	0	0	0	500	418	
1	0	0	0	0	500	418	
2	0	0	0	0	501	413	
3	0	0	0	0	501	418	
4	0	0	0	0	501	418	
5	0	0	0	0	501	418	
6	0	0	0	0	501	423	
7	0	0	0	0	501	418	
8	0	0	0	0	501	418	
9	0	0	0	0	501	418	
10	0	0	0	0	501	413	
11	0	0	0	0	502	418	
12	0	0	0	0	502	418	
13	0	0	0	0	503	419	
14	0	0	0	0	503	423	
15	0	0	0	0	504	418	
0	0	0	0	0	504	418	
1	0	0	0	0	505	418	
2	0	0	0	0	506	414	
3	0	0	0	0	507	419	
4	0	0	0	0	507	418	
5	0	0	0	0	508	419	
6	0	0	0	0	509	423	
7	0	0	0	0	509	419	
8	0	0	0	0	510	418	
9	0	0	0	0	511	419	
10	0	0	0	0	511	413	
11	0	0	0	0	511	418	
12	0	0	0	0	511	418	
13	0	0	0	0	510	418	
14	0	0	0	0	510	423	
15	0	0	0	0	511	419	
0	0	0	0	0	511	418	
1	0	0	0	0	510	418	
2	0	0	0	0	511	412	
3	0	0	0	0	512	418	
4	0	0	0	0	512	418	
5	0	0	0	0	513	419	
6	0	0	0	0	513	423	
7	0	0	0	0	514	418	
8	0	0	0	0	515	418	
9	0	0	0	0	517	418	
10	0	0	0	0	518	413	
11	0	0	0	0	518	419	
12	0	0	0	0	519	419	
13	0	0	0	0	519	419	
14	0	0	0	0	519	423	
15	0	0	0	0	521	419	
0	0	0	0	0	521	419	
1	0	0	0	0	521	418	
2	0	0	0	0	522	413	
3	0	0	0	0	522	419	
4	0	0	0	0	522	418	
5	0	0	0	0	522	419	
6	0	0	0	0	522	423	
7	0	0	0	0	523	418	
8	0	0	0	0	523	418	
9	0	0	0	0	523	419	
10	0	0	0	0	523	413	
11	0	0	0	0	524	419	
12	0	0	0	0	523	419	
13	0	0	0	0	523	419	
14	0	0	0	0	523	423	
15	0	0	0	0	523	419	
0	0	0	0	0	523	419	
1	0	0	0	0	522	419	
2	0	0	0	0	522	413	
3	0	0	0	0	522	418	
4	0	0	0	0	521	418	
5	0	0	0	0	520	419	
6	0	0	0	0	519	423	
7	0	0	0	0	518	418	
8	0	0	0	0	517	418	
9	0	0	0	0	516	418	
10	0	0	0	0	516	412	
11	0	0	0	0	515	418	
12	0	0	0	0	514	418	
13	0	0	0	0	512	419	
14	0	0	0	0	512	423	
15	0	0	0	0	512	418	
0	0	0	0	0	511	418	
1	0	0	0	0	511	418	
2	0	0	0	0	511	413	
3	0	0	0	0	511	418	
4	0	0	0	0	511	418	
5	0	0	0	0	510	418	
6	0	0	0	0	509	423	
7	0	0	0	0	508	418	
8	0	0	0	0	507	418	
9	0	0	0	0	506	418	
10	0	0	0	0	505	413	
11	0	0	0	0	505	418	
12	0	0	0	0	504	417	
13	0	0	0	0	503	418	
14	0	0	0	0	503	422	
15	0	0	0	0	503	419	
0	0	0	0	0	502	418	
1	0	0	0	0	502	418	
2	0	0	0	0	502	413	
3	0	0	0	0	502	418	
4	0	0	0	0	501	418	
5	0	0	0	0	500	419	
6	0	0	0	0	501	423	
7	0	0	0	0	502	418	
8	0	0	0	0	502	418	
9	0	0	0	0	501	418	
10	0	0	0	0	502	413	
11	0	0	0	0	502	419	
12	0	0	0	0	502	418	
13	0	0	0	0	501	419	
14	0	0	0	0	502	423	
15	0	0	0	0	502	418	
0	0	0	0	0	502	418	
1	0	0	0	0	502	418	
2	0	0	0	0	502	413	
3	0	0	0	0	502	418	
4	0	0	0	0	502	418	
5	0	0	0	0	502	417	
6	0	0	0	0	502	423	
7	0	0	0	0	502	417	
8	0	0	0	0	502	418	
9	0	0	0	0	502	418	
10	0	0	0	0	503	412	
11	0	0	0	0	503	418	
12	0	0	0	0	504	418	
13	0	0	0	0	504	419	
14	0	0	0	0	504	423	
15	0	0	0	0	504	418	
0	0	0	0	0	504	418	
1	0	0	0	0	504	418	
2	0	0	0	0	504	413	
3	0	0	0	0	504	418	
4	0	0	0	0	504	419	
5	0	0	0	0	505	418	
6	0	0	0	0	506	423	
7	0	0	0	0	505	418	
8	0	0	0	0	504	418	
9	0	0	0	0	505	418	
10	0	0	0	0	506	414	
11	0	0	0	0	506	419	
12	0	0	0	0	506	419	
13	0	0	0	0	507	419	
14	0	0	0	0	507	423	
15	0	0	0	0	508	419	
0	0	0	0	0	508	418	
1	0	0	0	0	508	419	
2	0	0	0	0	508	414	
3	0	0	0	0	508	418	
4	0	0	0	0	509	419	
5	0	0	0	0	509	419	
6	0	0	0	0	508	424	
7	0	0	0	0	509	419	
8	0	0	0	0	509	419	
9	0	0	0	0	510	418	
10	0	0	0	0	509	414	
11	0	0	0	0	508	420	
12	0	0	0	0	508	419	
13	0	0	0	0	508	419	
14	0	0	0	0	509	423	
15	0	0	0	0	510	419	
0	0	0	0	0	510	419	
1	0	0	0	0	511	419	
2	0	0	0	0	511	414	
3	0	0	0	0	511	419	
4	0	0	0	0	511	419	
5	0	0	0	0	511	419	
6	0	0	0	0	511	424	
7	0	0	0	0	510	419	
8	0	0	0	0	510	419	
9	0	0	0	0	510	419	
10	0	0	0	0	510	414	
11	0	0	0	0	510	419	
12	0	0	0	0	510	419	
13	0	0	0	0	510	420	
14	0	0	0	0	509	423	
15	0	0	0	0	510	419	
0	0	0	0	0	509	419	
1	0	0	0	0	508	419	
2	0	0	0	0	508	413	
3	0	0	0	0	509	419	
4	0	0	0	0	509	419	
5	0	0	0	0	510	419	
6	0	0	0	0	510	423	
7	0	0	0	0	510	419	
8	0	0	0	0	510	419	
9	0	0	0	0	511	419	
10	0	0	0	0	511	413	
11	0	0	0	0	511	419	
12	0	0	0	0	511	419	
13	0	0	0	0	511	418	
14	0	0	0	0	511	423	
15	0	0	0	0	512	417	
0	0	0	0	0	511	418	
1	0	0	0	0	511	417	
2	0	0	0	0	511	413	
3	0	0	0	0	511	418	
4	0	0	0	0	511	418	
5	0	0	0	0	511	419	
6	0	0	0	0	511	423	
7	0	0	0	0	511	418	
8	0	0	0	0	511	418	
9	0	0	0	0	511	418	
10	0	0	0	0	511	413	
11	0	0	0	0	511	418	
12	0	0	0	0	511	418	
13	0	0	0	0	511	419	
14	0	0	0	0	511	423	
15	0	0	0	0	511	418	
0	0	0	0	0	510	417	
1	0	0	0	0	511	418	
2	0	0	0	0	510	413	
3	0	0	0	0	509	418	
4	0	0	0	0	508	418	
5	0	0	0	0	508	418	
6	0	0	0	0	508	423	
7	0	0	0	0	507	418	
8	0	0	0	0	507	418	
9	0	0	0	0	507	417	
10	0	0	0	0	508	413	
11	0	0	0	0	509	418	
12	0	0	0	0	509	418	
13	0	0	0	0	509	418	
14	0	0	0	0	510	422	
15	0	0	0	0	510	418	
0	0	0	0	0	510	417	
1	0	0	0	0	510	418	
2	0	0	0	0	509	413	
3	0	0	0	0	509	417	
4	0	0	0	0	508	418	
5	0	0	0	0	508	418	
6	0	0	0	0	507	423	
7	0	0	0	0	508	418	
8	0	0	0	0	508	417	
9	0	0	0	0	507	417	
10	0	0	0	0	507	413	
11	0	0	0	0	507	418	
12	0	0	0	0	506	418	
13	0	0	0	0	507	418	
14	0	0	0	0	506	422	
15	0	0	0	0	507	417	
0	0	0	0	0	507	418	
1	0	0	0	0	507	418	
2	0	0	0	0	506	413	
3	0	0	0	0	505	418	
4	0	0	0	0	504	418	
5	0	0	0	0	504	418	
6	0	0	0	0	504	423	
7	0	0	0	0	504	418	
8	0	0	0	0	503	419	
9	0	0	0	0	503	418	
10	0	0	0	0	502	414	
11	0	0	0	0	502	418	
12	0	0	0	0	502	419	
13	0	0	0	0	501	419	
14	0	0	0	0	501	423	
15	0	0	0	0	500	419	
0	0	0	0	0	499	419	
1	0	0	0	0	499	419	
2	0	0	0	0	499	414	
3	0	0	0	0	500	419	
4	0	0	0	0	500	419	
5	0	0	0	0	500	419	
6	0	0	0	0	502	423	
7	0	0	0	0	502	419	
8	0	0	0	0	503	419	
9	0	0	0	0	503	419	
10	0	0	0	0	504	414	
11	0	0	0	0	504	419	
12	0	0	0	0	504	419	
13	0	0	0	0	505	419	
14	0	0	0	0	504	424	
15	0	0	0	0	504	419	
0	0	0	0	0	503	419	
1	0	0	0	0	503	419	
2	0	0	0	0	503	413	
3	0	0	0	0	503	419	
4	0	0	0	0	504	419	
5	0	0	0	0	504	419	
6	0	0	0	0	504	424	
7	0	0	0	0	506	419	
8	0	0	0	0	507	419	
9	0	0	0	0	507	418	
10	0	0	0	0	508	414	
11	0	0	0	0	510	419	
12	0	0	0	0	511	419	
13	0	0	0	0	512	419	
14	0	0	0	0	513	423	
15	0	0	0	0	514	418	
0	0	0	0	0	515	418	
1	0	0	0	0	515	418	
2	0	0	0	0	516	413	
3	0	0	0	0	515	419	
4	0	0	0	0	515	418	
5	0	0	0	0	515	418	
6	0	0	0	0	515	423	
7	0	0	0	0	515	418	
8	0	0	0	0	516	418	
9	0	0	0	0	517	418	
10	0	0	0	0	517	413	
11	0	0	0	0	517	418	
12	0	0	0	0	519	418	
13	0	0	0	0	519	418	
14	0	0	0	0	519	422	
15	0	0	0	0	519	417	
0	0	0	0	0	519	418	
1	0	0	0	0	517	418	
2	0	0	0	0	516	414	
3	0	0	0	0	516	418	
4	0	0	0	0	516	418	
5	0	0	0	0	515	418	
6	0	0	0	0	515	423	
7	0	0	0	0	515	418	
8	0	0	0	0	514	419	
9	0	0	0	0	514	418	
10	0	0	0	0	513	414	
11	0	0	0	0	513	418	
12	0	0	0	0	514	418	
13	0	0	0	0	514	419	
14	0	0	0	0	515	423	
15	0	0	0	0	515	419	
0	0	0	0	0	514	419	
1	0	0	0	0	515	419	
2	0	0	0	0	516	413	
3	0	0	0	0	516	419	
4	0	0	0	0	516	419	
5	0	0	0	0	516	418	
6	0	0	0	0	516	423	
7	0	0	0	0	515	418	
8	0	0	0	0	515	418	
9	0	0	0	0	516	418	
10	0	0	0	0	516	413	
11	0	0	0	0	516	417	
12	0	0	0	0	516	418	
13	0	0	0	0	516	418	
14	0	0	0	0	515	423	
15	0	0	0	0	515	419	
0	0	0	0	0	515	418	
1	0	0	0	0	515	418	
2	0	0	0	0	515	413	
3	0	0	0	0	515	418	
4	0	0	0	0	515	418	
5	0	0	0	0	515	418	
6	0	0	0	0	515	423	
7	0	0	0	0	515	418	
8	0	0	0	0	515	417	
9	0	0	0	0	515	417	
10	0	0	0	0	516	413	
11	0	0	0	0	515	418	
12	0	0	0	0	515	417	
13	0	0	0	0	515	418	
14	0	0	0	0	514	423	
15	0	0	0	0	514	417	
0	0	0	0	0	512	418	
1	0	0	0	0	511	418	
2	0	0	0	0	509	413	
3	0	0	0	0	507	418	
4	0	0	0	0	504	418	
5	0	0	0	0	501	417	
6	0	0	0	0	498	422	
7	0	0	0	0	494	417	
8	0	0	0	0	489	417	
9	0	0	0	0	485	417	
10	0	0	0	0	479	412	
11	0	0	0	0	472	418	
12	0	0	0	0	466	418	
13	0	0	0	0	461	419	
14	0	0	0	0	455	423	
15	0	0	0	0	451	417	
0	0	0	0	0	447	417	
1	0	0	0	0	444	418	
2	0	0	0	0	443	413	
3	0	0	0	0	442	418	
4	0	0	0	0	440	418	
5	0	0	0	0	441	419	
6	0	0	0	0	443	423	
7	0	0	0	0	447	418	
8	0	0	0	0	452	419	
9	0	0	0	0	459	418	
10	0	0	0	0	468	413	
11	0	0	0	0	481	418	
12	0	0	0	0	502	418	
13	0	0	0	0	526	418	
14	0	0	0	0	551	423	
15	0	0	0	0	580	418	
0	0	0	0	0	610	418	
1	0	0	0	0	639	418	
2	0	0	0	0	670	413	
3	0	0	0	0	701	418	
4	0	0	0	0	728	417	
5	0	0	0	0	751	418	
6	0	0	0	0	769	423	
7	0	0	0	0	785	418	
8	0	0	0	0	798	418	
9	0	0	0	0	811	418	
10	0	0	0	0	822	413	
11	0	0	0	0	832	418	
12	0	0	0	0	840	418	
13	0	0	0	0	848	418	
14	0	0	0	0	850	423	
15	0	0	0	0	848	418	
0	0	0	0	0	838	418	
1	0	0	0	0	823	418	
2	0	0	0	0	801	413	
3	0	0	0	0	775	419	
4	0	0	0	0	744	419	
5	0	0	0	0	713	419	
6	0	0	0	0	684	423	
7	0	0	0	0	659	418	
8	0	0	0	0	639	418	
9	0	0	0	0	620	418	
10	0	0	0	0	600	414	
11	0	0	0	0	582	419	
12	0	0	0	0	564	418	
13	0	0	0	0	548	418	
14	0	0	0	0	535	423	
15	0	0	0	0	522	419	
0	0	0	0	0	510	419	
1	0	0	0	0	499	418	
2	0	0	0	0	489	414	
3	0	0	0	0	483	419	
4	0	0	0	0	479	418	
5	0	0	0	0	472	419	
6	0	0	0	0	468	423	
7	0	0	0	0	465	419	
8	0	0	0	0	462	419	
9	0	0	0	0	460	418	
10	0	0	0	0	458	413	
11	0	0	0	0	456	418	
12	0	0	0	0	455	417	
13	0	0	0	0	454	418	
14	0	0	0	0	454	423	
15	0	0	0	0	452	418	
0	0	0	0	0	451	418	
1	0	0	0	0	450	419	
2	0	0	0	0	449	414	
3	0	0	0	0	449	419	
4	0	0	0	0	449	419	
5	0	0	0	0	449	418	
6	0	0	0	0	448	423	
7	0	0	0	0	448	418	
8	0	0	0	0	447	418	
9	0	0	0	0	447	418	
10	0	0	0	0	447	413	
11	0	0	0	0	447	418	
12	0	0	0	0	447	418	
13	0	0	0	0	447	417	
14	0	0	0	0	447	423	
15	0	0	0	0	447	417	
0	0	0	0	0	448	418	
1	0	0	0	0	448	417	
2	0	0	0	0	448	413	
3	0	0	0	0	448	418	
4	0	0	0	0	449	417	
5	0	0	0	0	449	417	
6	0	0	0	0	450	423	
7	0	0	0	0	450	418	
8	0	0	0	0	451	418	
9	0	0	0	0	451	418	
10	0	0	0	0	452	413	
11	0	0	0	0	452	418	
12	0	0	0	0	453	418	
13	0	0	0	0	455	418	
14	0	0	0	0	455	422	
15	0	0	0	0	456	418	
0	0	0	0	0	457	418	
1	0	0	0	0	457	417	
2	0	0	0	0	459	412	
3	0	0	0	0	460	418	
4	0	0	0	0	461	418	
5	0	0	0	0	462	418	
6	0	0	0	0	463	423	
7	0	0	0	0	463	419	
8	0	0	0	0	463	418	
9	0	0	0	0	463	417	
10	0	0	0	0	463	413	
11	0	0	0	0	464	418	
12	0	0	0	0	463	419	
13	0	0	0	0	463	419	
14	0	0	0	0	462	423	
15	0	0	0	0	463	419	
0	0	0	0	0	463	419	
1	0	0	0	0	463	418	
2	0	0	0	0	463	413	
3	0	0	0	0	462	419	
4	0	0	0	0	463	418	
5	0	0	0	0	463	419	
6	0	0	0	0	464	424	
7	0	0	0	0	465	418	
8	0	0	0	0	466	419	
9	0	0	0	0	466	419	
10	0	0	0	0	466	414	
11	0	0	0	0	466	419	
12	0	0	0	0	466	419	
13	0	0	0	0	467	419	
14	0	0	0	0	467	424	
15	0	0	0	0	468	418	
0	0	0	0	0	468	419	
1	0	0	0	0	468	419	
2	0	0	0	0	468	414	
3	0	0	0	0	469	419	
4	0	0	0	0	470	419	
5	0	0	0	0	470	419	
6	0	0	0	0	470	423	
7	0	0	0	0	470	419	
8	0	0	0	0	470	418	
9	0	0	0	0	471	417	
10	0	0	0	0	470	413	
11	0	0	0	0	470	418	
12	0	0	0	0	470	419	
13	0	0	0	0	471	418	
14	0	0	0	0	471	423	
15	0	0	0	0	472	417	
0	0	0	0	0	472	418	
1	0	0	0	0	472	417	
2	0	0	0	0	474	412	
3	0	0	0	0	474	418	
4	0	0	0	0	475	417	
5	0	0	0	0	475	418	
6	0	0	0	0	476	423	
7	0	0	0	0	478	417	
8	0	0	0	0	477	418	
9	0	0	0	0	478	417	
10	0	0	0	0	479	412	
11	0	0	0	0	480	418	
12	0	0	0	0	479	418	
13	0	0	0	0	479	418	
14	0	0	0	0	479	423	
15	0	0	0	0	480	418	
0	0	0	0	0	480	418	
1	0	0	0	0	480	418	
2	0	0	0	0	481	413	
3	0	0	0	0	480	418	
4	0	0	0	0	481	418	
5	0	0	0	0	481	419	
6	0	0	0	0	481	422	
7	0	0	0	0	480	419	
8	0	0	0	0	481	419	
9	0	0	0	0	482	419	
10	0	0	0	0	483	413	
11	0	0	0	0	483	418	
12	0	0	0	0	483	419	
13	0	0	0	0	483	419	
14	0	0	0	0	485	423	
15	0	0	0	0	486	419	
0	0	0	0	0	487	418	
1	0	0	0	0	487	419	
2	0	0	0	0	487	413	
3	0	0	0	0	487	419	
4	0	0	0	0	487	418	
5	0	0	0	0	487	419	
6	0	0	0	0	488	423	
7	0	0	0	0	487	419	
8	0	0	0	0	487	419	
9	0	0	0	0	487	419	
10	0	0	0	0	487	414	
11	0	0	0	0	488	419	
12	0	0	0	0	488	419	
13	0	0	0	0	488	419	
14	0	0	0	0	489	423	
15	0	0	0	0	490	419	
0	0	0	0	0	491	420	
1	0	0	0	0	492	419	
2	0	0	0	0	493	414	
3	0	0	0	0	494	419	
4	0	0	0	0	494	419	
5	0	0	0	0	493	419	
6	0	0	0	0	492	423	
7	0	0	0	0	493	419	
8	0	0	0	0	492	418	
9	0	0	0	0	492	419	
10	0	0	0	0	492	414	
11	0	0	0	0	493	419	
12	0	0	0	0	494	418	
13	0	0	0	0	494	419	
14	0	0	0	0	495	423	
15	0	0	0	0	495	418	
0	0	0	0	0	495	419	
1	0	0	0	0	495	417	
2	0	0	0	0	495	413	
3	0	0	0	0	496	418	
4	0	0	0	0	496	419	
5	0	0	0	0	497	419	
6	0	0	0	0	499	423	
7	0	0	0	0	499	418	
8	0	0	0	0	499	417	
9	0	0	0	0	499	418	
10	0	0	0	0	500	413	
11	0	0	0	0	500	418	
12	0	0	0	0	501	417	
13	0	0	0	0	501	417	
14	0	0	0	0	502	423	
15	0	0	0	0	502	417	
0	0	0	0	0	503	418	
1	0	0	0	0	503	417	
2	0	0	0	0	504	413	
3	0	0	0	0	504	417	
4	0	0	0	0	504	418	
5	0	0	0	0	504	417	
6	0	0	0	0	505	422	
7	0	0	0	0	506	418	
8	0	0	0	0	506	418	
9	0	0	0	0	506	418	
10	0	0	0	0	507	412	
11	0	0	0	0	507	417	
12	0	0	0	0	508	418	
13	0	0	0	0	508	417	
14	0	0	0	0	509	423	
15	0	0	0	0	509	417	
0	0	0	0	0	509	418	
1	0	0	0	0	509	418	
2	0	0	0	0	510	413	
3	0	0	0	0	511	418	
4	0	0	0	0	512	417	
5	0	0	0	0	512	418	
6	0	0	0	0	512	423	
7	0	0	0	0	512	418	
8	0	0	0	0	512	418	
9	0	0	0	0	513	418	
10	0	0	0	0	514	413	
11	0	0	0	0	515	418	
12	0	0	0	0	517	419	
13	0	0	0	0	517	418	
14	0	0	0	0	516	423	
15	0	0	0	0	517	418	
0	0	0	0	0	516	418	
1	0	0	0	0	517	419	
2	0	0	0	0	517	413	
3	0	0	0	0	518	417	
4	0	0	0	0	518	418	
5	0	0	0	0	519	419	
6	0	0	0	0	519	423	
7	0	0	0	0	519	418	
8	0	0	0	0	519	418	
9	0	0	0	0	520	418	
10	0	0	0	0	520	413	
11	0	0	0	0	519	418	
12	0	0	0	0	520	418	
13	0	0	0	0	520	418	
14	0	0	0	0	520	423	
15	0	0	0	0	521	418	
0	0	0	0	0	521	417	
1	0	0	0	0	521	417	
2	0	0	0	0	521	413	
3	0	0	0	0	521	418	
4	0	0	0	0	520	419	
5	0	0	0	0	519	418	
6	0	0	0	0	518	423	
7	0	0	0	0	517	418	
8	0	0	0	0	516	417	
9	0	0	0	0	515	418	
10	0	0	0	0	515	413	
11	0	0	0	0	514	417	
12	0	0	0	0	513	419	
13	0	0	0	0	513	418	
14	0	0	0	0	513	423	
15	0	0	0	0	513	418	
0	0	0	0	0	512	418	
1	0	0	0	0	512	418	
2	0	0	0	0	512	413	
3	0	0	0	0	512	418	
4	0	0	0	0	511	418	
5	0	0	0	0	511	418	
6	0	0	0	0	510	422	
7	0	0	0	0	509	417	
8	0	0	0	0	508	418	
9	0	0	0	0	508	417	
10	0	0	0	0	508	413	
11	0	0	0	0	508	417	
12	0	0	0	0	508	417	
13	0	0	0	0	507	418	
14	0	0	0	0	506	423	
15	0	0	0	0	506	417	
0	0	0	0	0	505	418	
1	0	0	0	0	505	417	
2	0	0	0	0	505	413	
3	0	0	0	0	506	419	
4	0	0	0	0	505	419	
5	0	0	0	0	505	419	
6	0	0	0	0	505	423	
7	0	0	0	0	506	419	
8	0	0	0	0	506	418	
9	0	0	0	0	506	418	
10	0	0	0	0	506	413	
11	0	0	0	0	506	418	
12	0	0	0	0	506	418	
13	0	0	0	0	505	419	
14	0	0	0	0	505	423	
15	0	0	0	0	505	419	
0	0	0	0	0	505	419	
1	0	0	0	0	505	419	
2	0	0	0	0	506	414	
3	0	0	0	0	506	419	
4	0	0	0	0	506	419	
5	0	0	0	0	507	419	
6	0	0	0	0	507	423	
7	0	0	0	0	508	419	
8	0	0	0	0	510	419	
9	0	0	0	0	509	418	
10	0	0	0	0	509	414	
11	0	0	0	0	510	419	
12	0	0	0	0	510	419	
13	0	0	0	0	510	419	
14	0	0	0	0	511	423	
15	0	0	0	0	510	419	
0	0	0	0	0	511	418	
1	0	0	0	0	511	418	
2	0	0	0	0	512	413	
3	0	0	0	0	512	419	
4	0	0	0	0	512	418	
5	0	0	0	0	512	419	
6	0	0	0	0	512	423	
7	0	0	0	0	512	418	
8	0	0	0	0	512	418	
9	0	0	0	0	512	418	
10	0	0	0	0	512	413	
11	0	0	0	0	512	419	
12	0	0	0	0	512	418	
13	0	0	0	0	512	418	
14	0	0	0	0	512	422	
15	0	0	0	0	512	417	
0	0	0	0	0	511	417	
1	0	0	0	0	511	418	
2	0	0	0	0	511	412	
3	0	0	0	0	511	417	
4	0	0	0	0	510	417	
5	0	0	0	0	510	418	
6	0	0	0	0	511	422	
7	0	0	0	0	511	417	
8	0	0	0	0	510	417	
9	0	0	0	0	511	416	
10	0	0	0	0	511	413	
11	0	0	0	0	512	418	
12	0	0	0	0	511	417	
13	0	0	0	0	511	418	
14	0	0	0	0	511	423	
15	0	0	0	0	512	417	
0	0	0	0	0	513	418	
1	0	0	0	0	513	418	
2	0	0	0	0	514	414	
3	0	0	0	0	513	419	
4	0	0	0	0	512	418	
5	0	0	0	0	512	419	
6	0	0	0	0	514	423	
7	0	0	0	0	514	419	
8	0	0	0	0	514	418	
9	0	0	0	0	514	419	
10	0	0	0	0	513	414	
11	0	0	0	0	513	419	
12	0	0	0	0	513	418	
13	0	0	0	0	513	419	
14	0	0	0	0	513	423	
15	0	0	0	0	514	419	
0	0	0	0	0	514	419	
1	0	0	0	0	514	419	
2	0	0	0	0	514	414	
3	0	0	0	0	514	420	
4	0	0	0	0	514	420	
5	0	0	0	0	514	419	
6	0	0	0	0	513	424	
7	0	0	0	0	514	419	
8	0	0	0	0	515	419	
9	0	0	0	0	515	419	
10	0	0	0	0	514	415	
11	0	0	0	0	513	419	
12	0	0	0	0	514	419	
13	0	0	0	0	514	419	
14	0	0	0	0	514	423	
15	0	0	0	0	514	419	
0	0	0	0	0	515	418	
1	0	0	0	0	515	419	
2	0	0	0	0	515	414	
3	0	0	0	0	516	419	
4	0	0	0	0	516	419	
5	0	0	0	0	517	419	
6	0	0	0	0	517	423	
7	0	0	0	0	518	419	
8	0	0	0	0	517	419	
9	0	0	0	0	516	419	
10	0	0	0	0	516	414	
11	0	0	0	0	515	418	
12	0	0	0	0	515	418	
13	0	0	0	0	515	418	
14	0	0	0	0	515	423	
15	0	0	0	0	516	418	
0	0	0	0	0	515	417	
1	0	0	0	0	516	418	
2	0	0	0	0	517	412	
3	0	0	0	0	516	418	
4	0	0	0	0	516	417	
5	0	0	0	0	516	418	
6	0	0	0	0	517	422	
7	0	0	0	0	517	417	
8	0	0	0	0	516	417	
9	0	0	0	0	517	417	
10	0	0	0	0	516	412	
11	0	0	0	0	516	417	
12	0	0	0	0	516	417	
13	0	0	0	0	515	418	
14	0	0	0	0	515	422	
15	0	0	0	0	514	417	
0	0	0	0	0	514	417	
1	0	0	0	0	515	417	
2	0	0	0	0	515	413	
3	0	0	0	0	515	417	
4	0	0	0	0	515	418	
5	0	0	0	0	514	418	
6	0	0	0	0	513	423	
7	0	0	0	0	512	418	
8	0	0	0	0	512	418	
9	0	0	0	0	512	418	
10	0	0	0	0	512	413	
11	0	0	0	0	511	418	
12	0	0	0	0	511	419	
13	0	0	0	0	511	419	
14	0	0	0	0	512	423	
15	0	0	0	0	512	419	
0	0	0	0	0	513	419	
1	0	0	0	0	512	419	
2	0	0	0	0	513	414	
3	0	0	0	0	513	419	
4	0	0	0	0	514	418	
5	0	0	0	0	515	419	
6	0	0	0	0	515	423	
7	0	0	0	0	515	419	
8	0	0	0	0	516	419	
9	0	0	0	0	516	419	
10	0	0	0	0	515	414	
11	0	0	0	0	515	419	
12	0	0	0	0	515	418	
13	0	0	0	0	515	418	
14	0	0	0	0	515	423	
15	0	0	0	0	515	418	
0	0	0	0	0	515	419	
1	0	0	0	0	515	419	
2	0	0	0	0	515	414	
3	0	0	0	0	514	419	
4	0	0	0	0	515	418	
5	0	0	0	0	515	419	
6	0	0	0	0	515	423	
7	0	0	0	0	516	419	
8	0	0	0	0	515	419	
9	0	0	0	0	515	418	
10	0	0	0	0	516	413	
11	0	0	0	0	515	418	
12	0	0	0	0	515	419	
13	0	0	0	0	515	418	
14	0	0	0	0	514	423	
15	0	0	0	0	514	418	
0	0	0	0	0	513	418	
1	0	0	0	0	512	417	
2	0	0	0	0	511	413	
3	0	0	0	0	510	418	
4	0	0	0	0	510	418	
5	0	0	0	0	510	417	
6	0	0	0	0	510	423	
7	0	0	0	0	510	418	
8	0	0	0	0	511	417	
9	0	0	0	0	511	417	
10	0	0	0	0	511	412	
11	0	0	0	0	510	417	
12	0	0	0	0	510	417	
13	0	0	0	0	508	417	
14	0	0	0	0	508	422	
15	0	0	0	0	508	417	
0	0	0	0	0	507	417	
1	0	0	0	0	507	417	
2	0	0	0	0	507	412	
3	0	0	0	0	508	416	
4	0	0	0	0	509	417	
5	0	0	0	0	510	418	
6	0	0	0	0	510	422	
7	0	0	0	0	511	417	
8	0	0	0	0	510	417	
9	0	0	0	0	511	416	
10	0	0	0	0	511	412	
11	0	0	0	0	510	417	
12	0	0	0	0	509	418	
13	0	0	0	0	508	418	
14	0	0	0	0	508	422	
15	0	0	0	0	508	418	
0	0	0	0	0	508	417	
1	0	0	0	0	507	417	
2	0	0	0	0	508	413	
3	0	0	0	0	508	418	
4	0	0	0	0	508	418	
5	0	0	0	0	509	419	
6	0	0	0	0	511	423	
7	0	0	0	0	512	418	
8	0	0	0	0	513	419	
9	0	0	0	0	514	418	
10	0	0	0	0	515	415	
11	0	0	0	0	515	419	
12	0	0	0	0	516	419	
13	0	0	0	0	517	419	
14	0	0	0	0	518	423	
15	0	0	0	0	518	419	
0	0	0	0	0	519	419	
1	0	0	0	0	518	419	
2	0	0	0	0	517	414	
3	0	0	0	0	517	419	
4	0	0	0	0	518	418	
5	0	0	0	0	518	419	
6	0	0	0	0	519	424	
7	0	0	0	0	519	419	
8	0	0	0	0	519	419	
9	0	0	0	0	519	419	
10	0	0	0	0	519	414	
11	0	0	0	0	519	419	
12	0	0	0	0	519	420	
13	0	0	0	0	519	419	
14	0	0	0	0	519	424	
15	0	0	0	0	518	419	
0	0	0	0	0	517	419	
1	0	0	0	0	516	419	
2	0	0	0	0	515	414	
3	0	0	0	0	515	419	
4	0	0	0	0	515	419	
5	0	0	0	0	515	420	
6	0	0	0	0	515	424	
7	0	0	0	0	515	419	
8	0	0	0	0	515	419	
9	0	0	0	0	515	419	
10	0	0	0	0	515	413	
11	0	0	0	0	514	419	
12	0	0	0	0	514	419	
13	0	0	0	0	514	419	
14	0	0	0	0	513	423	
15	0	0	0	0	513	419	
0	0	0	0	0	513	419	
1	0	0	0	0	513	419	
2	0	0	0	0	513	414	
3	0	0	0	0	512	419	
4	0	0	0	0	512	419	
5	0	0	0	0	512	419	
6	0	0	0	0	512	424	
7	0	0	0	0	512	419	
8	0	0	0	0	512	419	
9	0	0	0	0	512	419	
10	0	0	0	0	513	414	
11	0	0	0	0	513	419	
12	0	0	0	0	512	419	
13	0	0	0	0	512	419	
14	0	0	0	0	512	423	
15	0	0	0	0	512	419	
0	0	0	0	0	512	418	
1	0	0	0	0	512	418	
2	0	0	0	0	512	413	
3	0	0	0	0	513	418	
4	0	0	0	0	514	419	
5	0	0	0	0	514	419	
6	0	0	0	0	513	423	
7	0	0	0	0	513	419	
8	0	0	0	0	512	419	
9	0	0	0	0	512	418	
10	0	0	0	0	511	414	
11	0	0	0	0	510	418	
12	0	0	0	0	508	418	
13	0	0	0	0	507	418	
14	0	0	0	0	505	423	
15	0	0	0	0	504	419	
0	0	0	0	0	503	418	
1	0	0	0	0	500	418	
2	0	0	0	0	497	413	
3	0	0	0	0	494	418	
4	0	0	0	0	491	418	
5	0	0	0	0	486	418	
6	0	0	0	0	481	423	
7	0	0	0	0	475	418	
8	0	0	0	0	469	418	
9	0	0	0	0	462	418	
10	0	0	0	0	455	413	
11	0	0	0	0	449	419	
12	0	0	0	0	444	418	
13	0	0	0	0	439	418	
14	0	0	0	0	436	423	
15	0	0	0	0	435	418	
0	0	0	0	0	434	418	
1	0	0	0	0	433	418	
2	0	0	0	0	433	413	
3	0	0	0	0	435	418	
4	0	0	0	0	439	417	
5	0	0	0	0	444	418	
6	0	0	0	0	450	423	
7	0	0	0	0	457	418	
8	0	0	0	0	467	418	
9	0	0	0	0	481	417	
10	0	0	0	0	501	413	
11	0	0	0	0	526	418	
12	0	0	0	0	554	417	
13	0	0	0	0	583	418	
14	0	0	0	0	612	423	
15	0	0	0	0	641	418	
0	0	0	0	0	672	418	
1	0	0	0	0	703	417	
2	0	0	0	0	733	412	
3	0	0	0	0	756	417	
4	0	0	0	0	776	417	
5	0	0	0	0	791	417	
6	0	0	0	0	805	422	
7	0	0	0	0	818	417	
8	0	0	0	0	829	417	
9	0	0	0	0	839	417	
10	0	0	0	0	846	413	
11	0	0	0	0	851	417	
12	0	0	0	0	851	418	
13	0	0	0	0	845	418	
14	0	0	0	0	833	423	
15	0	0	0	0	815	417	
0	0	0	0	0	792	418	
1	0	0	0	0	763	418	
2	0	0	0	0	731	413	
3	0	0	0	0	700	418	
4	0	0	0	0	672	418	
5	0	0	0	0	647	418	
6	0	0	0	0	627	424	
7	0	0	0	0	609	419	
8	0	0	0	0	589	418	
9	0	0	0	0	571	418	
10	0	0	0	0	554	413	
11	0	0	0	0	540	419	
12	0	0	0	0	525	419	
13	0	0	0	0	513	419	
14	0	0	0	0	503	424	
15	0	0	0	0	493	419	
0	0	0	0	0	485	419	
1	0	0	0	0	478	419	
2	0	0	0	0	472	414	
3	0	0	0	0	466	420	
4	0	0	0	0	462	419	
5	0	0	0	0	459	419	
6	0	0	0	0	456	424	
7	0	0	0	0	454	419	
8	0	0	0	0	452	419	
9	0	0	0	0	450	418	
10	0	0	0	0	449	413	
11	0	0	0	0	448	419	
12	0	0	0	0	446	419	
13	0	0	0	0	446	419	
14	0	0	0	0	446	423	
15	0	0	0	0	446	418	
0	0	0	0	0	445	419	
1	0	0	0	0	445	418	
2	0	0	0	0	444	414	
3	0	0	0	0	444	419	
4	0	0	0	0	444	418	
5	0	0	0	0	445	419	
6	0	0	0	0	445	423	
7	0	0	0	0	445	418	
8	0	0	0	0	444	419	
9	0	0	0	0	443	418	
10	0	0	0	0	443	414	
11	0	0	0	0	443	419	
12	0	0	0	0	442	419	
13	0	0	0	0	442	418	
14	0	0	0	0	442	423	
15	0	0	0	0	442	418	
0	0	0	0	0	443	419	
1	0	0	0	0	443	419	
2	0	0	0	0	443	414	
3	0	0	0	0	444	418	
4	0	0	0	0	445	418	
5	0	0	0	0	446	419	
6	0	0	0	0	446	423	
7	0	0	0	0	447	419	
8	0	0	0	0	447	418	
9	0	0	0	0	447	419	
10	0	0	0	0	447	413	
11	0	0	0	0	448	418	
12	0	0	0	0	448	418	
13	0	0	0	0	449	419	
14	0	0	0	0	450	423	
15	0	0	0	0	451	419	
0	0	0	0	0	451	419	
1	0	0	0	0	452	419	
2	0	0	0	0	453	413	
3	0	0	0	0	454	419	
4	0	0	0	0	454	419	
5	0	0	0	0	455	419	
6	0	0	0	0	455	423	
7	0	0	0	0	455	418	
8	0	0	0	0	455	419	
9	0	0	0	0	457	418	
10	0	0	0	0	456	413	
11	0	0	0	0	456	418	
12	0	0	0	0	456	419	
13	0	0	0	0	457	419	
14	0	0	0	0	457	424	
15	0	0	0	0	457	419	
0	0	0	0	0	457	419	
1	0	0	0	0	457	419	
2	0	0	0	0	457	413	
3	0	0	0	0	457	419	
4	0	0	0	0	458	419	
5	0	0	0	0	459	419	
6	0	0	0	0	460	423	
7	0	0	0	0	460	418	
8	0	0	0	0	461	418	
9	0	0	0	0	461	418	
10	0	0	0	0	462	413	
11	0	0	0	0	463	418	
12	0	0	0	0	464	418	
13	0	0	0	0	464	419	
14	0	0	0	0	464	423	
15	0	0	0	0	464	418	
0	0	0	0	0	464	418	
1	0	0	0	0	465	417	
2	0	0	0	0	465	413	
3	0	0	0	0	466	418	
4	0	0	0	0	467	418	
5	0	0	0	0	467	418	
6	0	0	0	0	468	423	
7	0	0	0	0	469	417	
8	0	0	0	0	469	417	
9	0	0	0	0	470	417	
10	0	0	0	0	470	413	
11	0	0	0	0	471	418	
12	0	0	0	0	471	418	
13	0	0	0	0	472	418	
14	0	0	0	0	472	422	
15	0	0	0	0	473	418	
0	0	0	0	0	473	418	
1	0	0	0	0	474	417	
2	0	0	0	0	474	413	
3	0	0	0	0	475	418	
4	0	0	0	0	475	418	
5	0	0	0	0	475	419	
6	0	0	0	0	476	423	
7	0	0	0	0	475	418	
8	0	0	0	0	474	418	
9	0	0	0	0	474	417	
10	0	0	0	0	474	413	
11	0	0	0	0	474	418	
12	0	0	0	0	474	419	
13	0	0	0	0	474	418	
14	0	0	0	0	475	423	
15	0	0	0	0	475	418	
0	0	0	0	0	475	418	
1	0	0	0	0	475	417	
2	0	0	0	0	476	413	
3	0	0	0	0	476	419	
4	0	0	0	0	477	419	
5	0	0	0	0	477	419	
6	0	0	0	0	478	423	
7	0	0	0	0	478	418	
8	0	0	0	0	478	419	
9	0	0	0	0	478	419	
10	0	0	0	0	479	414	
11	0	0	0	0	479	419	
12	0	0	0	0	480	419	
13	0	0	0	0	480	419	
14	0	0	0	0	480	424	
15	0	0	0	0	481	419	
0	0	0	0	0	481	419	
1	0	0	0	0	482	419	
2	0	0	0	0	483	414	
3	0	0	0	0	483	420	
4	0	0	0	0	484	419	
5	0	0	0	0	484	419	
6	0	0	0	0	485	424	
7	0	0	0	0	486	419	
8	0	0	0	0	487	419	
9	0	0	0	0	487	419	
10	0	0	0	0	488	414	
11	0	0	0	0	489	419	
12	0	0	0	0	488	419	
13	0	0	0	0	488	419	
14	0	0	0	0	488	424	
15	0	0	0	0	489	419	
0	0	0	0	0	489	420	
1	0	0	0	0	489	418	
2	0	0	0	0	489	413	
3	0	0	0	0	490	419	
4	0	0	0	0	491	419	
5	0	0	0	0	491	419	
6	0	0	0	0	491	423	
7	0	0	0	0	492	419	
8	0	0	0	0	492	419	
9	0	0	0	0	492	419	
10	0	0	0	0	492	414	
11	0	0	0	0	492	419	
12	0	0	0	0	492	419	
13	0	0	0	0	492	419	
14	0	0	0	0	492	423	
15	0	0	0	0	493	419	
0	0	0	0	0	493	419	
1	0	0	0	0	494	419	
2	0	0	0	0	495	414	
3	0	0	0	0	495	418	
4	0	0	0	0	496	418	
5	0	0	0	0	497	418	
6	0	0	0	0	498	423	
7	0	0	0	0	498	418	
8	0	0	0	0	499	419	
9	0	0	0	0	500	418	
10	0	0	0	0	501	413	
11	0	0	0	0	502	419	
12	0	0	0	0	502	419	
13	0	0	0	0	503	419	
14	0	0	0	0	504	422	
15	0	0	0	0	505	418	
0	0	0	0	0	505	418	
1	0	0	0	0	506	418	
2	0	0	0	0	507	412	
3	0	0	0	0	507	418	
4	0	0	0	0	507	419	
5	0	0	0	0	507	418	
6	0	0	0	0	507	422	
7	0	0	0	0	507	418	
8	0	0	0	0	507	418	
9	0	0	0	0	508	418	
10	0	0	0	0	508	412	
11	0	0	0	0	508	417	
12	0	0	0	0	508	418	
13	0	0	0	0	509	418	
14	0	0	0	0	510	423	
15	0	0	0	0	510	418	
0	0	0	0	0	510	418	
1	0	0	0	0	510	418	
2	0	0	0	0	509	413	
3	0	0	0	0	509	418	
4	0	0	0	0	509	418	
5	0	0	0	0	509	418	
6	0	0	0	0	509	423	
7	0	0	0	0	509	418	
8	0	0	0	0	509	418	
9	0	0	0	0	509	418	
10	0	0	0	0	510	414	
11	0	0	0	0	510	418	
12	0	0	0	0	511	418	
13	0	0	0	0	511	419	
14	0	0	0	0	511	423	
15	0	0	0	0	511	418	
0	0	0	0	0	511	419	
1	0	0	0	0	511	419	
2	0	0	0	0	511	413	
3	0	0	0	0	512	418	
4	0	0	0	0	512	418	
5	0	0	0	0	512	419	
6	0	0	0	0	512	423	
7	0	0	0	0	513	419	
8	0	0	0	0	513	419	
9	0	0	0	0	514	418	
10	0	0	0	0	515	414	
11	0	0	0	0	513	419	
12	0	0	0	0	513	419	
13	0	0	0	0	513	419	
14	0	0	0	0	514	423	
15	0	0	0	0	514	419	
0	0	0	0	0	514	419	
1	0	0	0	0	514	418	
2	0	0	0	0	514	413	
3	0	0	0	0	514	418	
4	0	0	0	0	514	418	
5	0	0	0	0	512	418	
6	0	0	0	0	512	423	
7	0	0	0	0	511	417	
8	0	0	0	0	510	417	
9	0	0	0	0	509	417	
10	0	0	0	0	508	412	
11	0	0	0	0	508	418	
12	0	0	0	0	508	417	
13	0	0	0	0	508	418	
14	0	0	0	0	507	423	
15	0	0	0	0	506	417	
0	0	0	0	0	506	417	
1	0	0	0	0	505	417	
2	0	0	0	0	506	412	
3	0	0	0	0	506	418	
4	0	0	0	0	505	418	
5	0	0	0	0	505	418	
6	0	0	0	0	504	422	
7	0	0	0	0	503	417	
8	0	0	0	0	503	417	
9	0	0	0	0	503	417	
10	0	0	0	0	502	412	
11	0	0	0	0	501	418	
12	0	0	0	0	502	417	
13	0	0	0	0	500	418	
14	0	0	0	0	500	423	
15	0	0	0	0	501	418	
0	0	0	0	0	501	419	
1	0	0	0	0	501	418	
2	0	0	0	0	501	413	
3	0	0	0	0	500	418	
4	0	0	0	0	501	418	
5	0	0	0	0	501	419	
6	0	0	0	0	502	423	
7	0	0	0	0	502	419	
8	0	0	0	0	501	419	
9	0	0	0	0	501	419	
10	0	0	0	0	502	414	
11	0	0	0	0	502	419	
12	0	0	0	0	501	419	
13	0	0	0	0	501	419	
14	0	0	0	0	501	424	
15	0	0	0	0	502	419	
0	0	0	0	0	501	419	
1	0	0	0	0	501	419	
2	0	0	0	0	501	414	
3	0	0	0	0	501	419	
4	0	0	0	0	500	418	
5	0	0	0	0	502	419	
6	0	0	0	0	502	424	
7	0	0	0	0	503	419	
8	0	0	0	0	504	419	
9	0	0	0	0	504	419	
10	0	0	0	0	504	414	
11	0	0	0	0	504	419	
12	0	0	0	0	505	419	
13	0	0	0	0	505	419	
14	0	0	0	0	506	424	
15	0	0	0	0	506	419	
0	0	0	0	0	505	419	
1	0	0	0	0	505	419	
2	0	0	0	0	505	414	
3	0	0	0	0	505	419	
4	0	0	0	0	506	419	
5	0	0	0	0	506	419	
6	0	0	0	0	505	424	
7	0	0	0	0	505	419	
8	0	0	0	0	505	418	
9	0	0	0	0	506	419	
10	0	0	0	0	506	414	
11	0	0	0	0	506	418	
12	0	0	0	0	506	418	
13	0	0	0	0	507	419	
14	0	0	0	0	507	423	
15	0	0	0	0	507	418	
0	0	0	0	0	507	418	
1	0	0	0	0	507	418	
2	0	0	0	0	508	413	
3	0	0	0	0	508	418	
4	0	0	0	0	509	418	
5	0	0	0	0	509	418	
6	0	0	0	0	509	422	
7	0	0	0	0	508	417	
8	0	0	0	0	509	417	
9	0	0	0	0	510	417	
10	0	0	0	0	509	412	
11	0	0	0	0	510	419	
12	0	0	0	0	510	418	
13	0	0	0	0	510	418	
14	0	0	0	0	511	423	
15	0	0	0	0	511	418	
0	0	0	0	0	511	418	
1	0	0	0	0	510	418	
2	0	0	0	0	510	413	
3	0	0	0	0	509	419	
4	0	0	0	0	509	418	
5	0	0	0	0	508	419	
6	0	0	0	0	509	423	
7	0	0	0	0	508	419	
8	0	0	0	0	508	419	
9	0	0	0	0	508	418	
10	0	0	0	0	507	413	
11	0	0	0	0	508	419	
12	0	0	0	0	507	419	
13	0	0	0	0	507	419	
14	0	0	0	0	508	423	
15	0	0	0	0	508	419	
0	0	0	0	0	509	419	
1	0	0	0	0	510	418	
2	0	0	0	0	510	413	
3	0	0	0	0	510	418	
4	0	0	0	0	509	419	
5	0	0	0	0	510	418	
6	0	0	0	0	510	423	
7	0	0	0	0	511	418	
8	0	0	0	0	511	419	
9	0	0	0	0	511	418	
10	0	0	0	0	511	413	
11	0	0	0	0	511	418	
12	0	0	0	0	511	418	
13	0	0	0	0	510	418	
14	0	0	0	0	510	423	
15	0	0	0	0	509	418	
0	0	0	0	0	509	418	
1	0	0	0	0	509	418	
2	0	0	0	0	508	412	
3	0	0	0	0	509	418	
4	0	0	0	0	509	418	
5	0	0	0	0	509	418	
6	0	0	0	0	508	423	
7	0	0	0	0	508	417	
8	0	0	0	0	508	418	
9	0	0	0	0	508	418	
10	0	0	0	0	508	412	
11	0	0	0	0	508	418	
12	0	0	0	0	507	417	
13	0	0	0	0	507	418	
14	0	0	0	0	506	423	
15	0	0	0	0	505	419	
0	0	0	0	0	505	418	
1	0	0	0	0	504	418	
2	0	0	0	0	504	412	
3	0	0	0	0	505	418	
4	0	0	0	0	506	418	
5	0	0	0	0	506	418	
6	0	0	0	0	507	423	
7	0	0	0	0	508	418	
8	0	0	0	0	510	418	
9	0	0	0	0	510	417	
10	0	0	0	0	511	413	
11	0	0	0	0	511	418	
12	0	0	0	0	511	418	
13	0	0	0	0	512	418	
14	0	0	0	0	511	422	
15	0	0	0	0	511	418	
0	0	0	0	0	511	418	
1	0	0	0	0	512	418	
2	0	0	0	0	512	413	
3	0	0	0	0	512	418	
4	0	0	0	0	512	419	
5	0	0	0	0	511	419	
6	0	0	0	0	512	424	
7	0	0	0	0	511	419	
8	0	0	0	0	510	419	
9	0	0	0	0	510	419	
10	0	0	0	0	508	414	
11	0	0	0	0	508	419	
12	0	0	0	0	508	418	
13	0	0	0	0	508	419	
14	0	0	0	0	508	423	
15	0	0	0	0	508	419	
0	0	0	0	0	509	419	
1	0	0	0	0	509	419	
2	0	0	0	0	509	413	
3	0	0	0	0	509	418	
4	0	0	0	0	508	419	
5	0	0	0	0	508	419	
6	0	0	0	0	509	423	
7	0	0	0	0	509	419	
8	0	0	0	0	510	418	
9	0	0	0	0	510	418	
10	0	0	0	0	511	414	
11	0	0	0	0	510	419	
12	0	0	0	0	511	419	
13	0	0	0	0	511	419	
14	0	0	0	0	511	423	
15	0	0	0	0	511	419	
0	0	0	0	0	510	419	
1	0	0	0	0	510	419	
2	0	0	0	0	509	414	
3	0	0	0	0	510	419	
4	0	0	0	0	510	418	
5	0	0	0	0	510	419	
6	0	0	0	0	511	423	
7	0	0	0	0	512	419	
8	0	0	0	0	511	419	
9	0	0	0	0	511	419	
10	0	0	0	0	510	413	
11	0	0	0	0	509	419	
12	0	0	0	0	508	419	
13	0	0	0	0	509	419	
14	0	0	0	0	509	424	
15	0	0	0	0	510	418	
0	0	0	0	0	510	418	
1	0	0	0	0	510	419	
2	0	0	0	0	511	414	
3	0	0	0	0	511	418	
4	0	0	0	0	511	418	
5	0	0	0	0	511	419	
6	0	0	0	0	511	423	
7	0	0	0	0	510	419	
8	0	0	0	0	508	419	
9	0	0	0	0	507	419	
10	0	0	0	0	505	414	
11	0	0	0	0	505	418	
12	0	0	0	0	505	418	
13	0	0	0	0	505	419	
14	0	0	0	0	504	423	
15	0	0	0	0	504	418	
0	0	0	0	0	504	418	
1	0	0	0	0	503	417	
2	0	0	0	0	503	413	
3	0	0	0	0	503	418	
4	0	0	0	0	502	418	
5	0	0	0	0	502	418	
6	0	0	0	0	502	423	
7	0	0	0	0	502	418	
8	0	0	0	0	502	417	
9	0	0	0	0	502	417	
10	0	0	0	0	502	412	
11	0	0	0	0	502	418	
12	0	0	0	0	503	418	
13	0	0	0	0	503	418	
14	0	0	0	0	504	423	
15	0	0	0	0	505	419	
0	0	0	0	0	506	418	
1	0	0	0	0	506	418	
2	0	0	0	0	506	414	
3	0	0	0	0	506	418	
4	0	0	0	0	505	418	
5	0	0	0	0	504	418	
6	0	0	0	0	503	423	
7	0	0	0	0	503	419	
8	0	0	0	0	502	419	
9	0	0	0	0	501	417	
10	0	0	0	0	500	412	
11	0	0	0	0	500	418	
12	0	0	0	0	500	418	
13	0	0	0	0	500	418	
14	0	0	0	0	500	423	
15	0	0	0	0	500	418	
0	0	0	0	0	501	419	
1	0	0	0	0	502	418	
2	0	0	0	0	504	414	
3	0	0	0	0	506	419	
4	0	0	0	0	507	418	
5	0	0	0	0	509	418	
6	0	0	0	0	510	423	
7	0	0	0	0	512	418	
8	0	0	0	0	513	418	
9	0	0	0	0	514	419	
10	0	0	0	0	515	413	
11	0	0	0	0	516	418	
12	0	0	0	0	516	418	
13	0	0	0	0	516	419	
14	0	0	0	0	518	423	
15	0	0	0	0	518	418	
0	0	0	0	0	519	418	
1	0	0	0	0	519	418	
2	0	0	0	0	519	413	
3	0	0	0	0	519	418	
4	0	0	0	0	520	418	
5	0	0	0	0	520	418	
6	0	0	0	0	519	423	
7	0	0	0	0	518	418	
8	0	0	0	0	518	419	
9	0	0	0	0	518	418	
10	0	0	0	0	517	413	
11	0	0	0	0	516	418	
12	0	0	0	0	515	419	
13	0	0	0	0	515	418	
14	0	0	0	0	515	423	
15	0	0	0	0	515	418	
0	0	0	0	0	516	418	
1	0	0	0	0	516	418	
2	0	0	0	0	515	412	
3	0	0	0	0	516	419	
4	0	0	0	0	515	418	
5	0	0	0	0	515	419	
6	0	0	0	0	515	423	
7	0	0	0	0	515	418	
8	0	0	0	0	514	419	
9	0	0	0	0	514	418	
10	0	0	0	0	515	413	
11	0	0	0	0	514	418	
12	0	0	0	0	513	419	
13	0	0	0	0	513	419	
14	0	0	0	0	512	423	
15	0	0	0	0	511	419	
0	0	0	0	0	512	419	
1	0	0	0	0	511	418	
2	0	0	0	0	511	414	
3	0	0	0	0	510	419	
4	0	0	0	0	511	418	
5	0	0	0	0	510	419	
6	0	0	0	0	509	424	
7	0	0	0	0	509	419	
8	0	0	0	0	509	418	
9	0	0	0	0	508	419	
10	0	0	0	0	508	414	
11	0	0	0	0	508	419	
12	0	0	0	0	509	419	
13	0	0	0	0	509	420	
14	0	0	0	0	508	424	
15	0	0	0	0	508	419	
0	0	0	0	0	508	420	
1	0	0	0	0	508	419	
2	0	0	0	0	508	414	
3	0	0	0	0	507	419	
4	0	0	0	0	506	419	
5	0	0	0	0	505	419	
6	0	0	0	0	504	423	
7	0	0	0	0	503	419	
8	0	0	0	0	500	419	
9	0	0	0	0	499	418	
10	0	0	0	0	497	413	
11	0	0	0	0	495	419	
12	0	0	0	0	492	418	
13	0	0	0	0	489	419	
14	0	0	0	0	486	423	
15	0	0	0	0	482	419	
0	0	0	0	0	477	418	
1	0	0	0	0	471	419	
2	0	0	0	0	466	414	
3	0	0	0	0	461	419	
4	0	0	0	0	455	418	
5	0	0	0	0	450	419	
6	0	0	0	0	445	423	
7	0	0	0	0	441	419	
8	0	0	0	0	436	418	
9	0	0	0	0	434	418	
10	0	0	0	0	434	413	
11	0	0	0	0	435	419	
12	0	0	0	0	435	418	
13	0	0	0	0	436	419	
14	0	0	0	0	438	423	
15	0	0	0	0	440	418	
0	0	0	0	0	444	418	
1	0	0	0	0	449	418	
2	0	0	0	0	457	413	
3	0	0	0	0	469	419	
4	0	0	0	0	487	419	
5	0	0	0	0	506	418	
6	0	0	0	0	530	423	
7	0	0	0	0	558	418	
8	0	0	0	0	588	418	
9	0	0	0	0	616	418	
10	0	0	0	0	642	413	
11	0	0	0	0	667	418	
12	0	0	0	0	692	417	
13	0	0	0	0	717	418	
14	0	0	0	0	740	423	
15	0	0	0	0	760	418	
0	0	0	0	0	776	417	
1	0	0	0	0	788	417	
2	0	0	0	0	798	413	
3	0	0	0	0	808	417	
4	0	0	0	0	816	417	
5	0	0	0	0	822	419	
6	0	0	0	0	824	422	
7	0	0	0	0	822	417	
8	0	0	0	0	816	418	
9	0	0	0	0	801	418	
10	0	0	0	0	782	413	
11	0	0	0	0	758	418	
12	0	0	0	0	730	418	
13	0	0	0	0	701	418	
14	0	0	0	0	673	423	
15	0	0	0	0	649	417	
0	0	0	0	0	632	418	
1	0	0	0	0	619	418	
2	0	0	0	0	604	412	
3	0	0	0	0	591	418	
4	0	0	0	0	577	418	
5	0	0	0	0	565	418	
6	0	0	0	0	553	423	
7	0	0	0	0	542	417	
8	0	0	0	0	533	418	
9	0	0	0	0	524	418	
10	0	0	0	0	518	413	
11	0	0	0	0	510	418	
12	0	0	0	0	503	418	
13	0	0	0	0	497	418	
14	0	0	0	0	492	423	
15	0	0	0	0	488	417	
0	0	0	0	0	484	419	
1	0	0	0	0	480	418	
2	0	0	0	0	478	413	
3	0	0	0	0	475	418	
4	0	0	0	0	472	418	
5	0	0	0	0	470	418	
6	0	0	0	0	467	423	
7	0	0	0	0	465	418	
8	0	0	0	0	463	418	
9	0	0	0	0	463	418	
10	0	0	0	0	462	412	
11	0	0	0	0	461	417	
12	0	0	0	0	461	418	
13	0	0	0	0	460	418	
14	0	0	0	0	460	423	
15	0	0	0	0	460	419	
0	0	0	0	0	460	418	
1	0	0	0	0	459	418	
2	0	0	0	0	460	412	
3	0	0	0	0	460	418	
4	0	0	0	0	460	418	
5	0	0	0	0	460	418	
6	0	0	0	0	461	423	
7	0	0	0	0	461	418	
8	0	0	0	0	462	417	
9	0	0	0	0	462	417	
10	0	0	0	0	463	412	
11	0	0	0	0	463	417	
12	0	0	0	0	463	418	
13	0	0	0	0	463	418	
14	0	0	0	0	463	423	
15	0	0	0	0	463	417	
0	0	0	0	0	463	417	
1	0	0	0	0	463	418	
2	0	0	0	0	463	413	
3	0	0	0	0	463	418	
4	0	0	0	0	464	418	
5	0	0	0	0	463	419	
6	0	0	0	0	463	423	
7	0	0	0	0	463	419	
8	0	0	0	0	463	418	
9	0	0	0	0	463	417	
10	0	0	0	0	463	413	
11	0	0	0	0	463	418	
12	0	0	0	0	463	418	
13	0	0	0	0	463	419	
14	0	0	0	0	464	423	
15	0	0	0	0	464	419	
0	0	0	0	0	465	419	
1	0	0	0	0	465	418	
2	0	0	0	0	465	413	
3	0	0	0	0	465	418	
4	0	0	0	0	466	418	
5	0	0	0	0	466	418	
6	0	0	0	0	466	423	
7	0	0	0	0	467	418	
8	0	0	0	0	468	419	
9	0	0	0	0	469	419	
10	0	0	0	0	469	414	
11	0	0	0	0	469	419	
12	0	0	0	0	470	419	
13	0	0	0	0	470	419	
14	0	0	0	0	471	424	
15	0	0	0	0	472	419	
0	0	0	0	0	471	419	
1	0	0	0	0	472	419	
2	0	0	0	0	472	414	
3	0	0	0	0	472	419	
4	0	0	0	0	472	419	
5	0	0	0	0	472	419	
6	0	0	0	0	472	423	
7	0	0	0	0	473	419	
8	0	0	0	0	474	418	
9	0	0	0	0	474	418	
10	0	0	0	0	474	413	
11	0	0	0	0	475	418	
12	0	0	0	0	476	419	
13	0	0	0	0	476	419	
14	0	0	0	0	477	424	
15	0	0	0	0	477	418	
0	0	0	0	0	478	418	
1	0	0	0	0	478	418	
2	0	0	0	0	479	414	
3	0	0	0	0	479	419	
4	0	0	0	0	480	418	
5	0	0	0	0	480	419	
6	0	0	0	0	481	423	
7	0	0	0	0	482	419	
8	0	0	0	0	483	418	
9	0	0	0	0	483	417	
10	0	0	0	0	483	412	
11	0	0	0	0	484	417	
12	0	0	0	0	484	419	
13	0	0	0	0	485	418	
14	0	0	0	0	485	423	
15	0	0	0	0	486	418	
0	0	0	0	0	486	418	
1	0	0	0	0	486	418	
2	0	0	0	0	486	414	
3	0	0	0	0	485	418	
4	0	0	0	0	484	418	
5	0	0	0	0	484	418	
6	0	0	0	0	483	422	
7	0	0	0	0	483	418	
8	0	0	0	0	484	418	
9	0	0	0	0	484	417	
10	0	0	0	0	485	412	
11	0	0	0	0	486	418	
12	0	0	0	0	486	418	
13	0	0	0	0	487	418	
14	0	0	0	0	488	423	
15	0	0	0	0	489	418	
0	0	0	0	0	490	418	
1	0	0	0	0	491	417	
2	0	0	0	0	492	412	
3	0	0	0	0	492	418	
4	0	0	0	0	492	417	
5	0	0	0	0	492	417	
6	0	0	0	0	492	423	
7	0	0	0	0	493	418	
8	0	0	0	0	493	418	
9	0	0	0	0	494	417	
10	0	0	0	0	493	413	
11	0	0	0	0	494	417	
12	0	0	0	0	494	418	
13	0	0	0	0	493	419	
14	0	0	0	0	492	423	
15	0	0	0	0	492	418	
0	0	0	0	0	493	418	
1	0	0	0	0	493	418	
2	0	0	0	0	493	414	
3	0	0	0	0	494	419	
4	0	0	0	0	495	418	
5	0	0	0	0	495	419	
6	0	0	0	0	495	423	
7	0	0	0	0	495	418	
8	0	0	0	0	496	418	
9	0	0	0	0	496	418	
10	0	0	0	0	497	413	
11	0	0	0	0	499	418	
12	0	0	0	0	499	419	
13	0	0	0	0	500	419	
14	0	0	0	0	500	423	
15	0	0	0	0	501	420	
0	0	0	0	0	502	419	
1	0	0	0	0	502	418	
2	0	0	0	0	502	414	
3	0	0	0	0	502	419	
4	0	0	0	0	502	419	
5	0	0	0	0	503	419	
6	0	0	0	0	504	424	
7	0	0	0	0	505	419	
8	0	0	0	0	505	419	
9	0	0	0	0	505	419	
10	0	0	0	0	505	414	
11	0	0	0	0	505	420	
12	0	0	0	0	506	418	
13	0	0	0	0	506	419	
14	0	0	0	0	506	423	
15	0	0	0	0	508	419	
0	0	0	0	0	507	419	
1	0	0	0	0	508	419	
2	0	0	0	0	508	414	
3	0	0	0	0	508	419	
4	0	0	0	0	508	419	
5	0	0	0	0	509	419	
6	0	0	0	0	509	423	
7	0	0	0	0	510	419	
8	0	0	0	0	510	418	
9	0	0	0	0	510	418	
10	0	0	0	0	510	413	
11	0	0	0	0	511	418	
12	0	0	0	0	512	418	
13	0	0	0	0	513	418	
14	0	0	0	0	514	423	
15	0	0	0	0	515	418	
0	0	0	0	0	516	418	
1	0	0	0	0	516	418	
2	0	0	0	0	517	412	
3	0	0	0	0	517	418	
4	0	0	0	0	517	417	
5	0	0	0	0	518	417	
6	0	0	0	0	518	422	
7	0	0	0	0	518	418	
8	0	0	0	0	517	418	
9	0	0	0	0	518	417	
10	0	0	0	0	518	412	
11	0	0	0	0	519	417	
12	0	0	0	0	519	418	
13	0	0	0	0	521	417	
14	0	0	0	0	521	422	
15	0	0	0	0	522	416	
0	0	0	0	0	522	417	
1	0	0	0	0	523	417	
2	0	0	0	0	524	412	
3	0	0	0	0	524	417	
4	0	0	0	0	525	417	
5	0	0	0	0	525	417	
6	0	0	0	0	526	421	
7	0	0	0	0	526	417	
8	0	0	0	0	526	416	
9	0	0	0	0	526	416	
10	0	0	0	0	527	411	
11	0	0	0	0	527	417	
12	0	0	0	0	527	417	
13	0	0	0	0	527	418	
14	0	0	0	0	527	422	
15	0	0	0	0	527	418	
0	0	0	0	0	527	418	
1	0	0	0	0	527	417	
2	0	0	0	0	528	412	
3	0	0	0	0	528	417	
4	0	0	0	0	528	418	
5	0	0	0	0	528	418	
6	0	0	0	0	527	423	
7	0	0	0	0	527	417	
8	0	0	0	0	527	418	
9	0	0	0	0	527	417	
10	0	0	0	0	526	413	
11	0	0	0	0	526	418	
12	0	0	0	0	526	418	
13	0	0	0	0	525	418	
14	0	0	0	0	525	422	
15	0	0	0	0	524	418	
0	0	0	0	0	523	418	
1	0	0	0	0	523	418	
2	0	0	0	0	521	413	
3	0	0	0	0	519	417	
4	0	0	0	0	519	418	
5	0	0	0	0	518	418	
6	0	0	0	0	516	423	
7	0	0	0	0	516	419	
8	0	0	0	0	515	418	
9	0	0	0	0	514	417	
10	0	0	0	0	513	413	
11	0	0	0	0	512	418	
12	0	0	0	0	511	418	
13	0	0	0	0	511	419	
14	0	0	0	0	510	423	
15	0	0	0	0	509	418	
0	0	0	0	0	508	417	
1	0	0	0	0	507	418	
2	0	0	0	0	507	413	
3	0	0	0	0	505	418	
4	0	0	0	0	505	418	
5	0	0	0	0	506	419	
6	0	0	0	0	505	423	
7	0	0	0	0	504	419	
8	0	0	0	0	504	418	
9	0	0	0	0	503	418	
10	0	0	0	0	504	413	
11	0	0	0	0	504	419	
12	0	0	0	0	504	419	
13	0	0	0	0	504	419	
14	0	0	0	0	504	423	
15	0	0	0	0	504	419	
0	0	0	0	0	504	419	
1	0	0	0	0	504	418	
2	0	0	0	0	504	414	
3	0	0	0	0	504	419	
4	0	0	0	0	504	419	
5	0	0	0	0	504	418	
6	0	0	0	0	504	423	
7	0	0	0	0	504	418	
8	0	0	0	0	503	418	
9	0	0	0	0	504	418	
10	0	0	0	0	504	413	
11	0	0	0	0	505	418	
12	0	0	0	0	505	419	
13	0	0	0	0	505	419	
14	0	0	0	0	505	423	
15	0	0	0	0	506	418	
0	0	0	0	0	506	418	
1	0	0	0	0	506	418	
2	0	0	0	0	506	413	
3	0	0	0	0	507	419	
4	0	0	0	0	507	418	
5	0	0	0	0	507	419	
6	0	0	0	0	507	423	
7	0	0	0	0	507	419	
8	0	0	0	0	507	419	
9	0	0	0	0	506	418	
10	0	0	0	0	507	414	
11	0	0	0	0	506	419	
12	0	0	0	0	507	418	
13	0	0	0	0	507	418	
14	0	0	0	0	508	423	
15	0	0	0	0	508	418	
0	0	0	0	0	507	418	
1	0	0	0	0	508	419	
2	0	0	0	0	508	413	
3	0	0	0	0	508	418	
4	0	0	0	0	509	419	
5	0	0	0	0	509	419	
6	0	0	0	0	510	423	
7	0	0	0	0	511	419	
8	0	0	0	0	511	419	
9	0	0	0	0	511	419	
10	0	0	0	0	511	414	
11	0	0	0	0	511	419	
12	0	0	0	0	511	418	
13	0	0	0	0	511	419	
14	0	0	0	0	512	423	
15	0	0	0	0	512	418	
0	0	0	0	0	512	418	
1	0	0	0	0	512	418	
2	0	0	0	0	513	413	
3	0	0	0	0	513	418	
4	0	0	0	0	513	418	
5	0	0	0	0	512	418	
6	0	0	0	0	513	422	
7	0	0	0	0	514	418	
8	0	0	0	0	514	418	
9	0	0	0	0	514	417	
10	0	0	0	0	513	413	
11	0	0	0	0	513	418	
12	0	0	0	0	513	418	
13	0	0	0	0	513	418	
14	0	0	0	0	514	423	
15	0	0	0	0	514	418	
0	0	0	0	0	513	417	
1	0	0	0	0	514	417	
2	0	0	0	0	514	413	
3	0	0	0	0	513	418	
4	0	0	0	0	513	419	
5	0	0	0	0	513	419	
6	0	0	0	0	513	423	
7	0	0	0	0	513	418	
8	0	0	0	0	513	418	
9	0	0	0	0	513	418	
10	0	0	0	0	513	414	
11	0	0	0	0	514	419	
12	0	0	0	0	514	419	
13	0	0	0	0	514	419	
14	0	0	0	0	514	424	
15	0	0	0	0	514	419	
0	0	0	0	0	515	419	
1	0	0	0	0	515	419	
2	0	0	0	0	515	413	
3	0	0	0	0	516	419	
4	0	0	0	0	516	419	
5	0	0	0	0	517	419	
6	0	0	0	0	517	423	
7	0	0	0	0	518	418	
8	0	0	0	0	517	418	
9	0	0	0	0	518	418	
10	0	0	0	0	518	413	
11	0	0	0	0	518	419	
12	0	0	0	0	518	418	
13	0	0	0	0	519	418	
14	0	0	0	0	519	423	
15	0	0	0	0	519	419	
0	0	0	0	0	518	419	
1	0	0	0	0	518	418	
2	0	0	0	0	518	413	
3	0	0	0	0	518	418	
4	0	0	0	0	518	419	
5	0	0	0	0	518	418	
6	0	0	0	0	518	423	
7	0	0	0	0	518	419	
8	0	0	0	0	518	418	
9	0	0	0	0	517	417	
10	0	0	0	0	517	412	
11	0	0	0	0	518	418	
12	0	0	0	0	518	418	
13	0	0	0	0	519	419	
14	0	0	0	0	520	423	
15	0	0	0	0	520	418	
0	0	0	0	0	521	418	
1	0	0	0	0	522	418	
2	0	0	0	0	521	413	
3	0	0	0	0	522	418	
4	0	0	0	0	522	418	
5	0	0	0	0	522	418	
6	0	0	0	0	521	423	
7	0	0	0	0	522	418	
8	0	0	0	0	522	417	
9	0	0	0	0	521	417	
10	0	0	0	0	522	412	
11	0	0	0	0	523	417	
12	0	0	0	0	523	418	
13	0	0	0	0	524	418	
14	0	0	0	0	523	423	
15	0	0	0	0	523	417	
0	0	0	0	0	523	417	
1	0	0	0	0	522	418	
2	0	0	0	0	523	413	
3	0	0	0	0	523	418	
4	0	0	0	0	523	418	
5	0	0	0	0	523	418	
6	0	0	0	0	523	423	
7	0	0	0	0	523	418	
8	0	0	0	0	523	418	
9	0	0	0	0	522	418	
10	0	0	0	0	523	413	
11	0	0	0	0	523	419	
12	0	0	0	0	524	419	
13	0	0	0	0	525	418	
14	0	0	0	0	525	423	
15	0	0	0	0	525	418	
0	0	0	0	0	525	418	
1	0	0	0	0	525	419	
2	0	0	0	0	524	413	
3	0	0	0	0	524	419	
4	0	0	0	0	524	418	
5	0	0	0	0	524	419	
6	0	0	0	0	524	423	
7	0	0	0	0	524	418	
8	0	0	0	0	524	419	
9	0	0	0	0	523	417	
10	0	0	0	0	524	412	
11	0	0	0	0	524	418	
12	0	0	0	0	524	418	
13	0	0	0	0	524	419	
14	0	0	0	0	524	424	
15	0	0	0	0	524	418	
0	0	0	0	0	524	418	
1	0	0	0	0	524	418	
2	0	0	0	0	524	412	
3	0	0	0	0	524	418	
4	0	0	0	0	523	418	
5	0	0	0	0	523	418	
6	0	0	0	0	523	423	
7	0	0	0	0	523	418	
8	0	0	0	0	521	418	
9	0	0	0	0	521	417	
10	0	0	0	0	522	413	
11	0	0	0	0	521	418	
12	0	0	0	0	521	417	
13	0	0	0	0	521	418	
14	0	0	0	0	522	423	
15	0	0	0	0	522	418	
0	0	0	0	0	522	418	
1	0	0	0	0	521	417	
2	0	0	0	0	522	413	
3	0	0	0	0	522	418	
4	0	0	0	0	523	418	
5	0	0	0	0	523	418	
6	0	0	0	0	522	423	
7	0	0	0	0	522	418	
8	0	0	0	0	522	418	
9	0	0	0	0	522	418	
10	0	0	0	0	522	413	
11	0	0	0	0	523	418	
12	0	0	0	0	523	419	
13	0	0	0	0	523	419	
14	0	0	0	0	523	423	
15	0	0	0	0	523	418	
0	0	0	0	0	523	418	
1	0	0	0	0	524	419	
2	0	0	0	0	524	413	
3	0	0	0	0	525	419	
4	0	0	0	0	525	420	
5	0	0	0	0	525	419	
6	0	0	0	0	525	423	
7	0	0	0	0	525	418	
8	0	0	0	0	525	419	
9	0	0	0	0	525	418	
10	0	0	0	0	526	414	
11	0	0	0	0	525	419	
12	0	0	0	0	524	419	
13	0	0	0	0	524	419	
14	0	0	0	0	523	423	
15	0	0	0	0	523	419	
0	0	0	0	0	522	419	
1	0	0	0	0	520	418	
2	0	0	0	0	519	413	
3	0	0	0	0	519	418	
4	0	0	0	0	519	418	
5	0	0	0	0	518	419	
6	0	0	0	0	518	423	
7	0	0	0	0	518	418	
8	0	0	0	0	517	418	
9	0	0	0	0	516	417	
10	0	0	0	0	516	413	
11	0	0	0	0	516	418	
12	0	0	0	0	517	417	
13	0	0	0	0	517	418	
14	0	0	0	0	516	423	
15	0	0	0	0	516	417	
0	0	0	0	0	515	418	
1	0	0	0	0	514	418	
2	0	0	0	0	514	413	
3	0	0	0	0	514	418	
4	0	0	0	0	514	418	
5	0	0	0	0	514	419	
6	0	0	0	0	515	423	
7	0	0	0	0	515	418	
8	0	0	0	0	517	417	
9	0	0	0	0	517	418	
10	0	0	0	0	518	413	
11	0	0	0	0	519	418	
12	0	0	0	0	519	418	
13	0	0	0	0	519	418	
14	0	0	0	0	518	422	
15	0	0	0	0	518	418	
0	0	0	0	0	517	418	
1	0	0	0	0	517	418	
2	0	0	0	0	517	413	
3	0	0	0	0	516	418	
4	0	0	0	0	517	419	
5	0	0	0	0	518	418	
6	0	0	0	0	518	423	
7	0	0	0	0	519	417	
8	0	0	0	0	519	418	
9	0	0	0	0	521	418	
10	0	0	0	0	522	413	
11	0	0	0	0	523	418	
12	0	0	0	0	525	418	
13	0	0	0	0	525	418	
14	0	0	0	0	525	423	
15	0	0	0	0	526	419	
0	0	0	0	0	526	418	
1	0	0	0	0	527	418	
2	0	0	0	0	527	413	
3	0	0	0	0	527	418	
4	0	0	0	0	527	419	
5	0	0	0	0	527	419	
6	0	0	0	0	527	424	
7	0	0	0	0	528	419	
8	0	0	0	0	529	418	
9	0	0	0	0	529	419	
10	0	0	0	0	530	414	
11	0	0	0	0	531	419	
12	0	0	0	0	531	419	
13	0	0	0	0	531	419	
14	0	0	0	0	531	424	
15	0	0	0	0	531	419	
0	0	0	0	0	530	419	
1	0	0	0	0	529	418	
2	0	0	0	0	529	413	
3	0	0	0	0	529	419	
4	0	0	0	0	529	419	
5	0	0	0	0	529	419	
6	0	0	0	0	529	423	
7	0	0	0	0	528	418	
8	0	0	0	0	527	419	
9	0	0	0	0	527	419	
10	0	0	0	0	526	414	
11	0	0	0	0	526	418	
12	0	0	0	0	525	418	
13	0	0	0	0	525	419	
14	0	0	0	0	525	423	
15	0	0	0	0	526	418	
0	0	0	0	0	526	418	
1	0	0	0	0	526	418	
2	0	0	0	0	526	413	
3	0	0	0	0	527	417	
4	0	0	0	0	527	418	
5	0	0	0	0	527	418	
6	0	0	0	0	528	423	
7	0	0	0	0	528	417	
8	0	0	0	0	528	418	
9	0	0	0	0	528	417	
10	0	0	0	0	528	413	
11	0	0	0	0	528	418	
12	0	0	0	0	528	418	
13	0	0	0	0	527	419	
14	0	0	0	0	527	423	
15	0	0	0	0	526	418	
0	0	0	0	0	526	419	
1	0	0	0	0	526	418	
2	0	0	0	0	525	413	
3	0	0	0	0	526	418	
4	0	0	0	0	525	418	
5	0	0	0	0	526	417	
6	0	0	0	0	526	423	
7	0	0	0	0	525	418	
8	0	0	0	0	525	418	
9	0	0	0	0	524	417	
10	0	0	0	0	525	413	
11	0	0	0	0	525	418	
12	0	0	0	0	525	418	
13	0	0	0	0	524	418	
14	0	0	0	0	523	423	
15	0	0	0	0	521	418	
0	0	0	0	0	520	418	
1	0	0	0	0	519	418	
2	0	0	0	0	515	413	
3	0	0	0	0	511	418	
4	0	0	0	0	508	419	
5	0	0	0	0	504	418	
6	0	0	0	0	499	423	
7	0	0	0	0	494	419	
8	0	0	0	0	488	419	
9	0	0	0	0	482	419	
10	0	0	0	0	477	414	
11	0	0	0	0	470	419	
12	0	0	0	0	463	419	
13	0	0	0	0	458	419	
14	0	0	0	0	452	423	
15	0	0	0	0	449	419	
0	0	0	0	0	447	419	
1	0	0	0	0	445	419	
2	0	0	0	0	444	414	
3	0	0	0	0	443	419	
4	0	0	0	0	445	419	
5	0	0	0	0	448	419	
6	0	0	0	0	454	423	
7	0	0	0	0	462	418	
8	0	0	0	0	471	418	
9	0	0	0	0	482	418	
10	0	0	0	0	496	413	
11	0	0	0	0	518	419	
12	0	0	0	0	544	418	
13	0	0	0	0	572	419	
14	0	0	0	0	603	423	
15	0	0	0	0	634	419	
0	0	0	0	0	663	418	
1	0	0	0	0	692	418	
2	0	0	0	0	721	413	
3	0	0	0	0	746	418	
4	0	0	0	0	769	419	
5	0	0	0	0	788	419	
6	0	0	0	0	803	423	
7	0	0	0	0	816	417	
8	0	0	0	0	828	417	
9	0	0	0	0	838	418	
10	0	0	0	0	847	411	
11	0	0	0	0	855	417	
12	0	0	0	0	861	417	
13	0	0	0	0	864	418	
14	0	0	0	0	862	422	
15	0	0	0	0	853	418	
0	0	0	0	0	838	417	
1	0	0	0	0	817	417	
2	0	0	0	0	791	412	
3	0	0	0	0	759	417	
4	0	0	0	0	726	417	
5	0	0	0	0	696	417	
6	0	0	0	0	671	422	
7	0	0	0	0	651	417	
8	0	0	0	0	632	417	
9	0	0	0	0	615	417	
10	0	0	0	0	598	412	
11	0	0	0	0	580	418	
12	0	0	0	0	566	418	
13	0	0	0	0	551	418	
14	0	0	0	0	538	423	
15	0	0	0	0	527	418	
0	0	0	0	0	518	418	
1	0	0	0	0	508	418	
2	0	0	0	0	500	413	
3	0	0	0	0	493	419	
4	0	0	0	0	487	419	
5	0	0	0	0	483	418	
6	0	0	0	0	480	423	
7	0	0	0	0	476	418	
8	0	0	0	0	472	419	
9	0	0	0	0	470	418	
10	0	0	0	0	467	413	
11	0	0	0	0	465	418	
12	0	0	0	0	464	418	
13	0	0	0	0	463	419	
14	0	0	0	0	461	423	
15	0	0	0	0	461	418	
0	0	0	0	0	461	418	
1	0	0	0	0	461	419	
2	0	0	0	0	460	414	
3	0	0	0	0	460	419	
4	0	0	0	0	459	418	
5	0	0	0	0	459	419	
6	0	0	0	0	459	423	
7	0	0	0	0	459	418	
8	0	0	0	0	458	419	
9	0	0	0	0	457	418	
10	0	0	0	0	458	413	
11	0	0	0	0	457	419	
12	0	0	0	0	457	418	
13	0	0	0	0	457	419	
14	0	0	0	0	457	423	
15	0	0	0	0	458	419	
0	0	0	0	0	457	419	
1	0	0	0	0	458	418	
2	0	0	0	0	458	413	
3	0	0	0	0	458	418	
4	0	0	0	0	458	418	
5	0	0	0	0	459	418	
6	0	0	0	0	460	423	
7	0	0	0	0	460	417	
8	0	0	0	0	460	418	
9	0	0	0	0	461	417	
10	0	0	0	0	460	412	
11	0	0	0	0	461	417	
12	0	0	0	0	461	418	
13	0	0	0	0	462	418	
14	0	0	0	0	462	423	
15	0	0	0	0	463	418	
0	0	0	0	0	463	418	
1	0	0	0	0	463	417	
2	0	0	0	0	463	413	
3	0	0	0	0	464	418	
4	0	0	0	0	464	417	
5	0	0	0	0	464	419	
6	0	0	0	0	465	423	
7	0	0	0	0	465	418	
8	0	0	0	0	466	418	
9	0	0	0	0	466	417	
10	0	0	0	0	466	414	
11	0	0	0	0	467	418	
12	0	0	0	0	468	418	
13	0	0	0	0	469	419	
14	0	0	0	0	469	423	
15	0	0	0	0	470	419	
0	0	0	0	0	469	418	
1	0	0	0	0	469	418	
2	0	0	0	0	469	413	
3	0	0	0	0	469	419	
4	0	0	0	0	470	419	
5	0	0	0	0	471	419	
6	0	0	0	0	471	423	
7	0	0	0	0	472	418	
8	0	0	0	0	472	418	
9	0	0	0	0	473	419	
10	0	0	0	0	474	413	
11	0	0	0	0	474	418	
12	0	0	0	0	474	418	
13	0	0	0	0	475	419	
14	0	0	0	0	475	423	
15	0	0	0	0	475	418	
0	0	0	0	0	475	419	
1	0	0	0	0	476	418	
2	0	0	0	0	476	414	
3	0	0	0	0	477	418	
4	0	0	0	0	478	419	
5	0	0	0	0	479	419	
6	0	0	0	0	480	423	
7	0	0	0	0	480	418	
8	0	0	0	0	481	419	
9	0	0	0	0	482	418	
10	0	0	0	0	482	414	
11	0	0	0	0	483	418	
12	0	0	0	0	483	418	
13	0	0	0	0	483	418	
14	0	0	0	0	483	423	
15	0	0	0	0	484	419	
0	0	0	0	0	484	418	
1	0	0	0	0	485	417	
2	0	0	0	0	486	413	
3	0	0	0	0	486	418	
4	0	0	0	0	486	418	
5	0	0	0	0	486	418	
6	0	0	0	0	487	423	
7	0	0	0	0	487	418	
8	0	0	0	0	487	418	
9	0	0	0	0	486	418	
10	0	0	0	0	486	413	
11	0	0	0	0	486	418	
12	0	0	0	0	487	418	
13	0	0	0	0	487	418	
14	0	0	0	0	487	423	
15	0	0	0	0	488	418	
0	0	0	0	0	488	418	
1	0	0	0	0	489	418	
2	0	0	0	0	489	413	
3	0	0	0	0	489	418	
4	0	0	0	0	490	418	
5	0	0	0	0	490	419	
6	0	0	0	0	491	423	
7	0	0	0	0	491	418	
8	0	0	0	0	491	419	
9	0	0	0	0	492	418	
10	0	0	0	0	492	413	
11	0	0	0	0	492	418	
12	0	0	0	0	492	418	
13	0	0	0	0	492	418	
14	0	0	0	0	493	423	
15	0	0	0	0	493	418	
0	0	0	0	0	493	418	
1	0	0	0	0	494	418	
2	0	0	0	0	494	413	
3	0	0	0	0	494	419	
4	0	0	0	0	495	419	
5	0	0	0	0	495	419	
6	0	0	0	0	496	423	
7	0	0	0	0	497	419	
8	0	0	0	0	496	419	
9	0	0	0	0	496	419	
10	0	0	0	0	496	414	
11	0	0	0	0	496	419	
12	0	0	0	0	497	419	
13	0	0	0	0	497	419	
14	0	0	0	0	498	423	
15	0	0	0	0	498	419	
0	0	0	0	0	498	418	
1	0	0	0	0	499	418	
2	0	0	0	0	500	414	
3	0	0	0	0	500	418	
4	0	0	0	0	501	418	
5	0	0	0	0	502	419	
6	0	0	0	0	502	423	
7	0	0	0	0	503	419	
8	0	0	0	0	504	419	
9	0	0	0	0	505	418	
10	0	0	0	0	505	414	
11	0	0	0	0	506	418	
12	0	0	0	0	507	419	
13	0	0	0	0	508	419	
14	0	0	0	0	509	423	
15	0	0	0	0	509	418	
0	0	0	0	0	508	418	
1	0	0	0	0	509	418	
2	0	0	0	0	510	413	
3	0	0	0	0	510	418	
4	0	0	0	0	510	419	
5	0	0	0	0	510	419	
6	0	0	0	0	511	423	
7	0	0	0	0	511	418	
8	0	0	0	0	511	419	
9	0	0	0	0	510	418	
10	0	0	0	0	510	413	
11	0	0	0	0	512	418	
12	0	0	0	0	513	418	
13	0	0	0	0	514	418	
14	0	0	0	0	515	423	
15	0	0	0	0	515	417	
0	0	0	0	0	516	418	
1	0	0	0	0	516	417	
2	0	0	0	0	516	413	
3	0	0	0	0	516	418	
4	0	0	0	0	517	418	
5	0	0	0	0	518	418	
6	0	0	0	0	518	423	
7	0	0	0	0	519	417	
8	0	0	0	0	519	418	
9	0	0	0	0	520	418	
10	0	0	0	0	520	412	
11	0	0	0	0	520	418	
12	0	0	0	0	521	418	
13	0	0	0	0	521	419	
14	0	0	0	0	521	423	
15	0	0	0	0	522	418	
0	0	0	0	0	522	418	
1	0	0	0	0	522	417	
2	0	0	0	0	522	412	
3	0	0	0	0	522	418	
4	0	0	0	0	522	418	
5	0	0	0	0	522	418	
6	0	0	0	0	521	423	
7	0	0	0	0	522	418	
8	0	0	0	0	522	419	
9	0	0	0	0	522	418	
10	0	0	0	0	522	413	
11	0	0	0	0	523	418	
12	0	0	0	0	524	418	
13	0	0	0	0	524	419	
14	0	0	0	0	524	423	
15	0	0	0	0	525	419	
0	0	0	0	0	525	418	
1	0	0	0	0	525	418	
2	0	0	0	0	526	413	
3	0	0	0	0	526	419	
4	0	0	0	0	527	418	
5	0	0	0	0	527	419	
6	0	0	0	0	528	423	
7	0	0	0	0	528	418	
8	0	0	0	0	528	418	
9	0	0	0	0	527	418	
10	0	0	0	0	526	414	
11	0	0	0	0	526	419	
12	0	0	0	0	525	419	
13	0	0	0	0	525	419	
14	0	0	0	0	525	423	
15	0	0	0	0	526	418	
0	0	0	0	0	526	418	
1	0	0	0	0	526	418	
2	0	0	0	0	525	413	
3	0	0	0	0	526	418	
4	0	0	0	0	526	418	
5	0	0	0	0	526	419	
6	0	0	0	0	526	423	
7	0	0	0	0	526	417	
8	0	0	0	0	526	418	
9	0	0	0	0	526	417	
10	0	0	0	0	525	412	
11	0	0	0	0	525	418	
12	0	0	0	0	525	417	
13	0	0	0	0	524	418	
14	0	0	0	0	523	422	
15	0	0	0	0	522	417	
0	0	0	0	0	522	417	
1	0	0	0	0	520	418	
2	0	0	0	0	520	412	
3	0	0	0	0	519	417	
4	0	0	0	0	519	418	
5	0	0	0	0	520	417	
6	0	0	0	0	518	422	
7	0	0	0	0	517	417	
8	0	0	0	0	515	417	
9	0	0	0	0	514	418	
10	0	0	0	0	514	412	
11	0	0	0	0	513	418	
12	0	0	0	0	512	418	
13	0	0	0	0	512	418	
14	0	0	0	0	512	422	
15	0	0	0	0	511	418	
0	0	0	0	0	510	418	
1	0	0	0	0	509	418	
2	0	0	0	0	510	413	
3	0	0	0	0	510	419	
4	0	0	0	0	510	418	
5	0	0	0	0	510	418	
6	0	0	0	0	510	423	
7	0	0	0	0	511	418	
8	0	0	0	0	509	419	
9	0	0	0	0	508	419	
10	0	0	0	0	509	413	
11	0	0	0	0	508	418	
12	0	0	0	0	509	418	
13	0	0	0	0	509	418	
14	0	0	0	0	509	423	
15	0	0	0	0	509	419	
0	0	0	0	0	509	418	
1	0	0	0	0	509	419	
2	0	0	0	0	510	414	
3	0	0	0	0	510	419	
4	0	0	0	0	511	419	
5	0	0	0	0	511	418	
6	0	0	0	0	511	423	
7	0	0	0	0	512	419	
8	0	0	0	0	512	419	
9	0	0	0	0	511	419	
10	0	0	0	0	511	414	
11	0	0	0	0	512	419	
12	0	0	0	0	512	418	
13	0	0	0	0	512	419	
14	0	0	0	0	513	423	
15	0	0	0	0	513	419	
0	0	0	0	0	513	419	
1	0	0	0	0	512	419	
2	0	0	0	0	512	413	
3	0	0	0	0	513	419	
4	0	0	0	0	514	419	
5	0	0	0	0	513	419	
6	0	0	0	0	513	423	
7	0	0	0	0	515	419	
8	0	0	0	0	515	419	
9	0	0	0	0	514	419	
10	0	0	0	0	513	414	
11	0	0	0	0	512	419	
12	0	0	0	0	512	418	
13	0	0	0	0	512	419	
14	0	0	0	0	511	423	
15	0	0	0	0	511	419	
0	0	0	0	0	511	419	
1	0	0	0	0	512	419	
2	0	0	0	0	512	414	
3	0	0	0	0	512	419	
4	0	0	0	0	512	419	
5	0	0	0	0	513	419	
6	0	0	0	0	513	423	
7	0	0	0	0	514	418	
8	0	0	0	0	514	419	
9	0	0	0	0	515	418	
10	0	0	0	0	516	413	
11	0	0	0	0	515	419	
12	0	0	0	0	516	418	
13	0	0	0	0	515	418	
14	0	0	0	0	516	423	
15	0	0	0	0	516	419	
0	0	0	0	0	516	418	
1	0	0	0	0	516	418	
2	0	0	0	0	516	413	
3	0	0	0	0	516	419	
4	0	0	0	0	515	418	
5	0	0	0	0	515	418	
6	0	0	0	0	514	423	
7	0	0	0	0	515	418	
8	0	0	0	0	515	418	
9	0	0	0	0	515	417	
10	0	0	0	0	516	413	
11	0	0	0	0	515	417	
12	0	0	0	0	515	418	
13	0	0	0	0	516	419	
14	0	0	0	0	516	423	
15	0	0	0	0	515	417	
0	0	0	0	0	514	418	
1	0	0	0	0	513	419	
2	0	0	0	0	514	413	
3	0	0	0	0	513	419	
4	0	0	0	0	513	419	
5	0	0	0	0	514	419	
6	0	0	0	0	514	423	
7	0	0	0	0	515	418	
8	0	0	0	0	515	418	
9	0	0	0	0	515	418	
10	0	0	0	0	515	413	
11	0	0	0	0	515	418	
12	0	0	0	0	516	418	
13	0	0	0	0	515	418	
14	0	0	0	0	516	423	
15	0	0	0	0	516	419	
0	0	0	0	0	517	418	
1	0	0	0	0	516	418	
2	0	0	0	0	516	412	
3	0	0	0	0	517	418	
4	0	0	0	0	518	418	
5	0	0	0	0	517	418	
6	0	0	0	0	516	423	
7	0	0	0	0	516	418	
8	0	0	0	0	516	418	
9	0	0	0	0	515	417	
10	0	0	0	0	515	412	
11	0	0	0	0	515	418	
12	0	0	0	0	515	418	
13	0	0	0	0	514	418	
14	0	0	0	0	514	423	
15	0	0	0	0	514	417	
0	0	0	0	0	513	418	
1	0	0	0	0	513	417	
2	0	0	0	0	514	412	
3	0	0	0	0	515	418	
4	0	0	0	0	515	418	
5	0	0	0	0	515	418	
6	0	0	0	0	515	423	
7	0	0	0	0	515	418	
8	0	0	0	0	515	418	
9	0	0	0	0	515	418	
10	0	0	0	0	514	414	
11	0	0	0	0	513	418	
12	0	0	0	0	514	419	
13	0	0	0	0	513	419	
14	0	0	0	0	513	423	
15	0	0	0	0	513	418	
0	0	0	0	0	512	418	
1	0	0	0	0	513	418	
2	0	0	0	0	512	413	
3	0	0	0	0	511	419	
4	0	0	0	0	511	419	
5	0	0	0	0	510	418	
6	0	0	0	0	510	423	
7	0	0	0	0	512	419	
8	0	0	0	0	512	418	
9	0	0	0	0	512	418	
10	0	0	0	0	512	412	
11	0	0	0	0	512	418	
12	0	0	0	0	512	418	
13	0	0	0	0	513	418	
14	0	0	0	0	513	422	
15	0	0	0	0	513	418	
0	0	0	0	0	513	417	
1	0	0	0	0	513	418	
2	0	0	0	0	514	413	
3	0	0	0	0	515	418	
4	0	0	0	0	514	418	
5	0	0	0	0	515	418	
6	0	0	0	0	514	423	
7	0	0	0	0	514	417	
8	0	0	0	0	513	418	
9	0	0	0	0	514	418	
10	0	0	0	0	514	413	
11	0	0	0	0	513	419	
12	0	0	0	0	513	418	
13	0	0	0	0	514	419	
14	0	0	0	0	515	423	
15	0	0	0	0	515	418	
0	0	0	0	0	514	419	
1	0	0	0	0	515	418	
2	0	0	0	0	515	414	
3	0	0	0	0	515	419	
4	0	0	0	0	514	419	
5	0	0	0	0	514	419	
6	0	0	0	0	514	423	
7	0	0	0	0	515	419	
8	0	0	0	0	516	419	
9	0	0	0	0	516	419	
10	0	0	0	0	516	414	
11	0	0	0	0	516	419	
12	0	0	0	0	516	419	
13	0	0	0	0	515	419	
14	0	0	0	0	514	423	
15	0	0	0	0	513	419	
0	0	0	0	0	515	419	
1	0	0	0	0	515	419	
2	0	0	0	0	515	413	
3	0	0	0	0	516	419	
4	0	0	0	0	516	419	
5	0	0	0	0	515	419	
6	0	0	0	0	515	423	
7	0	0	0	0	515	418	
8	0	0	0	0	515	418	
9	0	0	0	0	515	418	
10	0	0	0	0	515	413	
11	0	0	0	0	515	418	
12	0	0	0	0	516	417	
13	0	0	0	0	515	418	
14	0	0	0	0	515	423	
15	0	0	0	0	515	418	
0	0	0	0	0	515	417	
1	0	0	0	0	514	418	
2	0	0	0	0	514	414	
3	0	0	0	0	514	417	
4	0	0	0	0	515	419	
5	0	0	0	0	515	418	
6	0	0	0	0	514	423	
7	0	0	0	0	515	418	
8	0	0	0	0	515	418	
9	0	0	0	0	516	418	
10	0	0	0	0	516	413	
11	0	0	0	0	516	418	
12	0	0	0	0	515	418	
13	0	0	0	0	515	418	
14	0	0	0	0	515	423	
15	0	0	0	0	515	419	
0	0	0	0	0	515	418	
1	0	0	0	0	517	417	
2	0	0	0	0	516	412	
3	0	0	0	0	516	417	
4	0	0	0	0	517	418	
5	0	0	0	0	517	418	
6	0	0	0	0	517	423	
7	0	0	0	0	518	417	
8	0	0	0	0	517	417	
9	0	0	0	0	518	418	
10	0	0	0	0	517	413	
11	0	0	0	0	516	418	
12	0	0	0	0	517	419	
13	0	0	0	0	518	418	
14	0	0	0	0	517	423	
15	0	0	0	0	517	418	
0	0	0	0	0	517	418	
1	0	0	0	0	517	418	
2	0	0	0	0	516	412	
3	0	0	0	0	516	418	
4	0	0	0	0	515	418	
5	0	0	0	0	515	418	
6	0	0	0	0	514	423	
7	0	0	0	0	514	418	
8	0	0	0	0	514	418	
9	0	0	0	0	514	418	
10	0	0	0	0	514	413	
11	0	0	0	0	514	418	
12	0	0	0	0	514	418	
13	0	0	0	0	514	418	
14	0	0	0	0	514	423	
15	0	0	0	0	515	419	
0	0	0	0	0	515	419	
1	0	0	0	0	516	418	
2	0	0	0	0	516	414	
3	0	0	0	0	516	419	
4	0	0	0	0	515	419	
5	0	0	0	0	514	418	
6	0	0	0	0	513	423	
7	0	0	0	0	513	419	
8	0	0	0	0	514	419	
9	0	0	0	0	514	418	
10	0	0	0	0	514	414	
11	0	0	0	0	514	419	
12	0	0	0	0	514	419	
13	0	0	0	0	513	418	
14	0	0	0	0	513	423	
15	0	0	0	0	513	419	
0	0	0	0	0	513	419	
1	0	0	0	0	513	418	
2	0	0	0	0	514	414	
3	0	0	0	0	513	418	
4	0	0	0	0	514	419	
5	0	0	0	0	515	419	
6	0	0	0	0	516	423	
7	0	0	0	0	516	418	
8	0	0	0	0	515	419	
9	0	0	0	0	515	419	
10	0	0	0	0	515	414	
11	0	0	0	0	516	419	
12	0	0	0	0	517	419	
13	0	0	0	0	518	419	
14	0	0	0	0	518	423	
15	0	0	0	0	518	419	
0	0	0	0	0	518	419	
1	0	0	0	0	518	419	
2	0	0	0	0	516	413	
3	0	0	0	0	516	419	
4	0	0	0	0	517	419	
5	0	0	0	0	517	419	
6	0	0	0	0	517	423	
7	0	0	0	0	518	419	
8	0	0	0	0	518	419	
9	0	0	0	0	517	418	
10	0	0	0	0	516	414	
11	0	0	0	0	516	418	
12	0	0	0	0	515	418	
13	0	0	0	0	514	419	
14	0	0	0	0	515	423	
15	0	0	0	0	515	419	
0	0	0	0	0	515	419	
1	0	0	0	0	515	418	
2	0	0	0	0	515	413	
3	0	0	0	0	515	419	
4	0	0	0	0	515	418	
5	0	0	0	0	515	419	
6	0	0	0	0	515	423	
7	0	0	0	0	515	418	
8	0	0	0	0	515	418	
9	0	0	0	0	516	419	
10	0	0	0	0	516	414	
11	0	0	0	0	516	419	
12	0	0	0	0	515	419	
13	0	0	0	0	516	419	
14	0	0	0	0	516	423	
15	0	0	0	0	516	419	
0	0	0	0	0	516	419	
1	0	0	0	0	515	418	
2	0	0	0	0	514	414	
3	0	0	0	0	512	419	
4	0	0	0	0	511	419	
5	0	0	0	0	510	419	
6	0	0	0	0	509	423	
7	0	0	0	0	507	418	
8	0	0	0	0	507	419	
9	0	0	0	0	507	418	
10	0	0	0	0	506	414	
11	0	0	0	0	506	419	
12	0	0	0	0	507	419	
13	0	0	0	0	507	419	
14	0	0	0	0	507	424	
15	0	0	0	0	507	418	
0	0	0	0	0	507	419	
1	0	0	0	0	506	418	
2	0	0	0	0	505	412	
3	0	0	0	0	506	418	
4	0	0	0	0	507	417	
5	0	0	0	0	506	419	
6	0	0	0	0	505	423	
7	0	0	0	0	506	417	
8	0	0	0	0	508	417	
9	0	0	0	0	508	418	
10	0	0	0	0	508	412	
11	0	0	0	0	508	418	
12	0	0	0	0	508	418	
13	0	0	0	0	507	418	
14	0	0	0	0	507	423	
15	0	0	0	0	508	418	
0	0	0	0	0	508	418	
1	0	0	0	0	508	418	
2	0	0	0	0	508	413	
3	0	0	0	0	508	418	
4	0	0	0	0	508	418	
5	0	0	0	0	508	419	
6	0	0	0	0	508	423	
7	0	0	0	0	508	418	
8	0	0	0	0	508	418	
9	0	0	0	0	509	418	
10	0	0	0	0	511	412	
11	0	0	0	0	512	418	
12	0	0	0	0	513	418	
13	0	0	0	0	513	418	
14	0	0	0	0	514	423	
15	0	0	0	0	515	418	
0	0	0	0	0	515	418	
1	0	0	0	0	515	418	
2	0	0	0	0	515	412	
3	0	0	0	0	516	418	
4	0	0	0	0	516	418	
5	0	0	0	0	518	417	
6	0	0	0	0	518	423	
7	0	0	0	0	519	419	
8	0	0	0	0	519	418	
9	0	0	0	0	519	419	
10	0	0	0	0	519	414	
11	0	0	0	0	519	419	
12	0	0	0	0	519	419	
13	0	0	0	0	518	419	
14	0	0	0	0	519	423	
15	0	0	0	0	519	418	
0	0	0	0	0	518	418	
1	0	0	0	0	519	418	
2	0	0	0	0	518	414	
3	0	0	0	0	516	418	
4	0	0	0	0	517	419	
5	0	0	0	0	517	419	
6	0	0	0	0	517	423	
7	0	0	0	0	517	419	
8	0	0	0	0	516	418	
9	0	0	0	0	516	418	
10	0	0	0	0	517	413	
11	0	0	0	0	517	419	
12	0	0	0	0	517	418	
13	0	0	0	0	516	419	
14	0	0	0	0	515	423	
15	0	0	0	0	515	418	
0	0	0	0	0	515	417	
1	0	0	0	0	513	418	
2	0	0	0	0	511	413	
3	0	0	0	0	511	418	
4	0	0	0	0	512	418	
5	0	0	0	0	512	418	
6	0	0	0	0	512	423	
7	0	0	0	0	513	418	
8	0	0	0	0	511	418	
9	0	0	0	0	511	417	
10	0	0	0	0	511	413	
11	0	0	0	0	510	418	
12	0	0	0	0	510	418	
13	0	0	0	0	511	418	
14	0	0	0	0	510	423	
15	0	0	0	0	511	418	
0	0	0	0	0	512	418	
1	0	0	0	0	512	417	
2	0	0	0	0	512	412	
3	0	0	0	0	512	418	
4	0	0	0	0	512	418	
5	0	0	0	0	512	418	
6	0	0	0	0	512	423	
7	0	0	0	0	512	418	
8	0	0	0	0	511	419	
9	0	0	0	0	511	418	
10	0	0	0	0	509	413	
11	0	0	0	0	507	419	
12	0	0	0	0	506	418	
13	0	0	0	0	505	419	
14	0	0	0	0	504	423	
15	0	0	0	0	502	418	
0	0	0	0	0	499	419	
1	0	0	0	0	496	418	
2	0	0	0	0	492	414	
3	0	0	0	0	489	419	
4	0	0	0	0	485	419	
5	0	0	0	0	480	419	
6	0	0	0	0	473	424	
7	0	0	0	0	466	419	
8	0	0	0	0	460	419	
9	0	0	0	0	455	419	
10	0	0	0	0	449	414	
11	0	0	0	0	443	419	
12	0	0	0	0	439	419	
13	0	0	0	0	435	419	
14	0	0	0	0	432	424	
15	0	0	0	0	431	419	
0	0	0	0	0	431	419	
1	0	0	0	0	433	419	
2	0	0	0	0	436	413	
3	0	0	0	0	441	419	
4	0	0	0	0	447	419	
5	0	0	0	0	454	419	
6	0	0	0	0	462	423	
7	0	0	0	0	473	419	
8	0	0	0	0	488	419	
9	0	0	0	0	508	418	
10	0	0	0	0	533	414	
11	0	0	0	0	560	418	
12	0	0	0	0	590	419	
13	0	0	0	0	619	418	
14	0	0	0	0	648	423	
15	0	0	0	0	679	418	
0	0	0	0	0	710	418	
1	0	0	0	0	737	417	
2	0	0	0	0	760	412	
3	0	0	0	0	778	417	
4	0	0	0	0	794	417	
5	0	0	0	0	808	417	
6	0	0	0	0	820	423	
7	0	0	0	0	832	418	
8	0	0	0	0	842	418	
9	0	0	0	0	850	417	
10	0	0	0	0	857	412	
11	0	0	0	0	862	417	
12	0	0	0	0	860	417	
13	0	0	0	0	851	418	
14	0	0	0	0	835	422	
15	0	0	0	0	813	417	
0	0	0	0	0	785	418	
1	0	0	0	0	754	417	
2	0	0	0	0	721	412	
3	0	0	0	0	691	417	
4	0	0	0	0	663	417	
5	0	0	0	0	639	417	
6	0	0	0	0	620	422	
7	0	0	0	0	602	417	
8	0	0	0	0	583	417	
9	0	0	0	0	565	417	
10	0	0	0	0	550	413	
11	0	0	0	0	536	418	
12	0	0	0	0	523	418	
13	0	0	0	0	511	418	
14	0	0	0	0	502	423	
15	0	0	0	0	493	418	
0	0	0	0	0	486	418	
1	0	0	0	0	478	418	
2	0	0	0	0	472	413	
3	0	0	0	0	466	418	
4	0	0	0	0	462	418	
5	0	0	0	0	459	418	
6	0	0	0	0	456	423	
7	0	0	0	0	454	418	
8	0	0	0	0	452	419	
9	0	0	0	0	451	419	
10	0	0	0	0	449	413	
11	0	0	0	0	446	418	
12	0	0	0	0	445	418	
13	0	0	0	0	444	418	
14	0	0	0	0	444	423	
15	0	0	0	0	444	419	
0	0	0	0	0	444	418	
1	0	0	0	0	443	418	
2	0	0	0	0	443	414	
3	0	0	0	0	442	418	
4	0	0	0	0	441	418	
5	0	0	0	0	441	418	
6	0	0	0	0	441	423	
7	0	0	0	0	441	419	
8	0	0	0	0	441	418	
9	0	0	0	0	442	418	
10	0	0	0	0	442	414	
11	0	0	0	0	442	418	
12	0	0	0	0	443	419	
13	0	0	0	0	443	419	
14	0	0	0	0	443	423	
15	0	0	0	0	443	419	
0	0	0	0	0	443	418	
1	0	0	0	0	444	418	
2	0	0	0	0	444	413	
3	0	0	0	0	444	419	
4	0	0	0	0	443	418	
5	0	0	0	0	443	418	
6	0	0	0	0	442	424	
7	0	0	0	0	442	419	
8	0	0	0	0	443	418	
9	0	0	0	0	444	418	
10	0	0	0	0	444	413	
11	0	0	0	0	445	419	
12	0	0	0	0	445	419	
13	0	0	0	0	447	419	
14	0	0	0	0	447	423	
15	0	0	0	0	449	418	
0	0	0	0	0	450	418	
1	0	0	0	0	451	418	
2	0	0	0	0	451	413	
3	0	0	0	0	453	418	
4	0	0	0	0	453	418	
5	0	0	0	0	454	419	
6	0	0	0	0	454	423	
7	0	0	0	0	456	418	
8	0	0	0	0	456	418	
9	0	0	0	0	457	418	
10	0	0	0	0	458	413	
11	0	0	0	0	458	418	
12	0	0	0	0	459	417	
13	0	0	0	0	459	418	
14	0	0	0	0	459	423	
15	0	0	0	0	460	418	
0	0	0	0	0	461	418	
1	0	0	0	0	462	418	
2	0	0	0	0	463	413	
3	0	0	0	0	463	418	
4	0	0	0	0	464	419	
5	0	0	0	0	464	419	
6	0	0	0	0	465	423	
7	0	0	0	0	466	418	
8	0	0	0	0	466	418	
9	0	0	0	0	466	418	
10	0	0	0	0	466	413	
11	0	0	0	0	466	418	
12	0	0	0	0	467	418	
13	0	0	0	0	467	419	
14	0	0	0	0	467	423	
15	0	0	0	0	468	419	
0	0	0	0	0	468	419	
1	0	0	0	0	469	418	
2	0	0	0	0	470	413	
3	0	0	0	0	471	419	
4	0	0	0	0	472	418	
5	0	0	0	0	472	419	
6	0	0	0	0	472	423	
7	0	0	0	0	473	419	
8	0	0	0	0	474	419	
9	0	0	0	0	475	418	
10	0	0	0	0	474	413	
11	0	0	0	0	474	418	
12	0	0	0	0	475	419	
13	0	0	0	0	475	419	
14	0	0	0	0	476	423	
15	0	0	0	0	476	418	
0	0	0	0	0	476	419	
1	0	0	0	0	477	418	
2	0	0	0	0	477	414	
3	0	0	0	0	478	419	
4	0	0	0	0	479	419	
5	0	0	0	0	479	419	
6	0	0	0	0	479	423	
7	0	0	0	0	478	419	
8	0	0	0	0	479	419	
9	0	0	0	0	479	418	
10	0	0	0	0	479	414	
11	0	0	0	0	479	419	
12	0	0	0	0	480	419	
13	0	0	0	0	480	419	
14	0	0	0	0	479	423	
15	0	0	0	0	479	419	
0	0	0	0	0	479	418	
1	0	0	0	0	479	419	
2	0	0	0	0	479	414	
3	0	0	0	0	480	419	
4	0	0	0	0	480	419	
5	0	0	0	0	481	419	
6	0	0	0	0	481	423	
7	0	0	0	0	482	419	
8	0	0	0	0	482	419	
9	0	0	0	0	483	419	
10	0	0	0	0	483	414	
11	0	0	0	0	483	419	
12	0	0	0	0	483	419	
13	0	0	0	0	483	419	
14	0	0	0	0	483	423	
15	0	0	0	0	483	419	
0	0	0	0	0	484	418	
1	0	0	0	0	485	418	
2	0	0	0	0	485	413	
3	0	0	0	0	487	418	
4	0	0	0	0	487	418	
5	0	0	0	0	487	418	
6	0	0	0	0	488	423	
7	0	0	0	0	489	418	
8	0	0	0	0	490	418	
9	0	0	0	0	490	418	
10	0	0	0	0	491	413	
11	0	0	0	0	491	419	
12	0	0	0	0	491	418	
13	0	0	0	0	492	419	
14	0	0	0	0	492	423	
15	0	0	0	0	493	418	
0	0	0	0	0	492	418	
1	0	0	0	0	493	417	
2	0	0	0	0	493	413	
3	0	0	0	0	494	418	
4	0	0	0	0	495	419	
5	0	0	0	0	495	418	
6	0	0	0	0	496	423	
7	0	0	0	0	496	418	
8	0	0	0	0	496	417	
9	0	0	0	0	497	418	
10	0	0	0	0	497	413	
11	0	0	0	0	499	418	
12	0	0	0	0	499	418	
13	0	0	0	0	500	419	
14	0	0	0	0	501	423	
15	0	0	0	0	502	418	
0	0	0	0	0	502	418	
1	0	0	0	0	503	418	
2	0	0	0	0	504	413	
3	0	0	0	0	504	418	
4	0	0	0	0	504	418	
5	0	0	0	0	504	419	
6	0	0	0	0	505	423	
7	0	0	0	0	505	418	
8	0	0	0	0	505	418	
9	0	0	0	0	505	418	
10	0	0	0	0	507	412	
11	0	0	0	0	507	418	
12	0	0	0	0	507	419	
13	0	0	0	0	507	419	
14	0	0	0	0	508	423	
15	0	0	0	0	509	418	
0	0	0	0	0	510	418	
1	0	0	0	0	511	418	
2	0	0	0	0	512	413	
3	0	0	0	0	511	418	
4	0	0	0	0	512	418	
5	0	0	0	0	512	418	
6	0	0	0	0	512	423	
7	0	0	0	0	512	418	
8	0	0	0	0	512	418	
9	0	0	0	0	512	417	
10	0	0	0	0	511	413	
11	0	0	0	0	511	418	
12	0	0	0	0	511	419	
13	0	0	0	0	511	418	
14	0	0	0	0	511	423	
15	0	0	0	0	510	419	
0	0	0	0	0	511	419	
1	0	0	0	0	511	419	
2	0	0	0	0	512	413	
3	0	0	0	0	513	418	
4	0	0	0	0	513	418	
5	0	0	0	0	514	418	
6	0	0	0	0	515	423	
7	0	0	0	0	516	417	
8	0	0	0	0	517	418	
9	0	0	0	0	518	418	
10	0	0	0	0	518	412	
11	0	0	0	0	518	418	
12	0	0	0	0	519	418	
13	0	0	0	0	519	418	
14	0	0	0	0	519	423	
15	0	0	0	0	520	417	
0	0	0	0	0	519	417	
1	0	0	0	0	519	417	
2	0	0	0	0	519	412	
3	0	0	0	0	519	417	
4	0	0	0	0	519	417	
5	0	0	0	0	519	418	
6	0	0	0	0	520	422	
7	0	0	0	0	520	418	
8	0	0	0	0	519	418	
9	0	0	0	0	519	417	
10	0	0	0	0	519	413	
11	0	0	0	0	519	418	
12	0	0	0	0	519	418	
13	0	0	0	0	519	418	
14	0	0	0	0	519	423	
15	0	0	0	0	518	419	
0	0	0	0	0	517	417	
1	0	0	0	0	516	417	
2	0	0	0	0	515	412	
3	0	0	0	0	515	417	
4	0	0	0	0	515	418	
5	0	0	0	0	514	418	
6	0	0	0	0	514	423	
7	0	0	0	0	514	418	
8	0	0	0	0	512	419	
9	0	0	0	0	512	418	
10	0	0	0	0	511	413	
11	0	0	0	0	511	418	
12	0	0	0	0	511	419	
13	0	0	0	0	510	418	
14	0	0	0	0	509	423	
15	0	0	0	0	508	419	
0	0	0	0	0	507	419	
1	0	0	0	0	507	418	
2	0	0	0	0	506	414	
3	0	0	0	0	505	419	
4	0	0	0	0	504	419	
5	0	0	0	0	504	419	
6	0	0	0	0	504	424	
7	0	0	0	0	503	419	
8	0	0	0	0	503	419	
9	0	0	0	0	504	419	
10	0	0	0	0	503	414	
11	0	0	0	0	503	419	
12	0	0	0	0	502	419	
13	0	0	0	0	502	419	
14	0	0	0	0	502	423	
15	0	0	0	0	502	419	
0	0	0	0	0	502	419	
1	0	0	0	0	502	419	
2	0	0	0	0	501	414	
3	0	0	0	0	501	418	
4	0	0	0	0	501	419	
5	0	0	0	0	501	419	
6	0	0	0	0	500	423	
7	0	0	0	0	500	419	
8	0	0	0	0	500	418	
9	0	0	0	0	499	419	
10	0	0	0	0	499	414	
11	0	0	0	0	498	418	
12	0	0	0	0	498	419	
13	0	0	0	0	498	419	
14	0	0	0	0	498	423	
15	0	0	0	0	499	419	
0	0	0	0	0	498	418	
1	0	0	0	0	498	417	
2	0	0	0	0	499	414	
3	0	0	0	0	499	418	
4	0	0	0	0	499	419	
5	0	0	0	0	499	419	
6	0	0	0	0	499	423	
7	0	0	0	0	498	418	
8	0	0	0	0	499	418	
9	0	0	0	0	499	418	
10	0	0	0	0	499	413	
11	0	0	0	0	500	418	
12	0	0	0	0	499	418	
13	0	0	0	0	499	418	
14	0	0	0	0	499	423	
15	0	0	0	0	498	418	
0	0	0	0	0	498	418	
1	0	0	0	0	498	417	
2	0	0	0	0	498	412	
3	0	0	0	0	499	418	
4	0	0	0	0	499	417	
5	0	0	0	0	499	419	
6	0	0	0	0	500	422	
7	0	0	0	0	500	418	
8	0	0	0	0	500	418	
9	0	0	0	0	500	417	
10	0	0	0	0	502	412	
11	0	0	0	0	502	418	
12	0	0	0	0	504	418	
13	0	0	0	0	504	418	
14	0	0	0	0	504	423	
15	0	0	0	0	504	418	
0	0	0	0	0	504	418	
1	0	0	0	0	504	418	
2	0	0	0	0	504	413	
3	0	0	0	0	503	418	
4	0	0	0	0	503	418	
5	0	0	0	0	503	418	
6	0	0	0	0	503	423	
7	0	0	0	0	502	419	
8	0	0	0	0	502	418	
9	0	0	0	0	502	418	
10	0	0	0	0	501	413	
11	0	0	0	0	501	419	
12	0	0	0	0	500	419	
13	0	0	0	0	500	419	
14	0	0	0	0	500	424	
15	0	0	0	0	500	419	
0	0	0	0	0	500	419	
1	0	0	0	0	500	419	
2	0	0	0	0	500	413	
3	0	0	0	0	501	419	
4	0	0	0	0	501	419	
5	0	0	0	0	501	419	
6	0	0	0	0	501	423	
7	0	0	0	0	502	419	
8	0	0	0	0	502	419	
9	0	0	0	0	503	419	
10	0	0	0	0	503	414	
11	0	0	0	0	503	419	
12	0	0	0	0	503	418	
13	0	0	0	0	504	419	
14	0	0	0	0	504	423	
15	0	0	0	0	504	419	
0	0	0	0	0	504	419	
1	0	0	0	0	504	418	
2	0	0	0	0	504	413	
3	0	0	0	0	504	419	
4	0	0	0	0	504	418	
5	0	0	0	0	503	419	
6	0	0	0	0	504	423	
7	0	0	0	0	504	418	
8	0	0	0	0	504	418	
9	0	0	0	0	504	418	
10	0	0	0	0	504	413	
11	0	0	0	0	503	418	
12	0	0	0	0	503	418	
13	0	0	0	0	503	418	
14	0	0	0	0	503	423	
15	0	0	0	0	503	417	
0	0	0	0	0	502	417	
1	0	0	0	0	502	417	
2	0	0	0	0	502	413	
3	0	0	0	0	502	418	
4	0	0	0	0	502	418	
5	0	0	0	0	502	418	
6	0	0	0	0	503	423	
7	0	0	0	0	503	417	
8	0	0	0	0	502	417	
9	0	0	0	0	502	418	
10	0	0	0	0	502	413	
11	0	0	0	0	502	418	
12	0	0	0	0	502	417	
13	0	0	0	0	502	418	
14	0	0	0	0	502	423	
15	0	0	0	0	502	418	
0	0	0	0	0	502	418	
1	0	0	0	0	502	418	
2	0	0	0	0	502	413	
3	0	0	0	0	502	419	
4	0	0	0	0	503	419	
5	0	0	0	0	503	418	
6	0	0	0	0	503	423	
7	0	0	0	0	503	419	
8	0	0	0	0	502	419	
9	0	0	0	0	502	418	
10	0	0	0	0	502	414	
11	0	0	0	0	502	419	
12	0	0	0	0	501	419	
13	0	0	0	0	502	419	
14	0	0	0	0	502	423	
15	0	0	0	0	502	418	
0	0	0	0	0	503	419	
1	0	0	0	0	502	419	
2	0	0	0	0	503	414	
3	0	0	0	0	503	419	
4	0	0	0	0	504	419	
5	0	0	0	0	504	419	
6	0	0	0	0	504	424	
7	0	0	0	0	505	419	
8	0	0	0	0	504	419	
9	0	0	0	0	505	419	
10	0	0	0	0	505	414	
11	0	0	0	0	506	419	
12	0	0	0	0	507	418	
13	0	0	0	0	507	419	
14	0	0	0	0	507	423	
15	0	0	0	0	507	418	
0	0	0	0	0	507	418	
1	0	0	0	0	506	418	
2	0	0	0	0	506	412	
3	0	0	0	0	506	418	
4	0	0	0	0	507	418	
5	0	0	0	0	507	417	
6	0	0	0	0	506	422	
7	0	0	0	0	506	417	
8	0	0	0	0	506	417	
9	0	0	0	0	506	416	
10	0	0	0	0	506	412	
11	0	0	0	0	506	418	
12	0	0	0	0	506	418	
13	0	0	0	0	505	418	
14	0	0	0	0	506	422	
15	0	0	0	0	507	418	
0	0	0	0	0	506	417	
1	0	0	0	0	506	417	
2	0	0	0	0	507	412	
3	0	0	0	0	507	417	
4	0	0	0	0	506	416	
5	0	0	0	0	506	417	
6	0	0	0	0	507	423	
7	0	0	0	0	508	417	
8	0	0	0	0	507	417	
9	0	0	0	0	506	417	
10	0	0	0	0	505	413	
11	0	0	0	0	504	417	
12	0	0	0	0	504	418	
13	0	0	0	0	504	418	
14	0	0	0	0	504	423	
15	0	0	0	0	504	418	
0	0	0	0	0	504	418	
1	0	0	0	0	504	418	
2	0	0	0	0	503	413	
3	0	0	0	0	504	418	
4	0	0	0	0	504	419	
5	0	0	0	0	505	418	
6	0	0	0	0	506	423	
7	0	0	0	0	506	418	
8	0	0	0	0	506	418	
9	0	0	0	0	506	418	
10	0	0	0	0	507	414	
11	0	0	0	0	507	419	
12	0	0	0	0	508	419	
13	0	0	0	0	508	419	
14	0	0	0	0	507	423	
15	0	0	0	0	508	419	
0	0	0	0	0	507	419	
1	0	0	0	0	505	419	
2	0	0	0	0	506	414	
3	0	0	0	0	506	419	
4	0	0	0	0	505	418	
5	0	0	0	0	504	419	
6	0	0	0	0	504	423	
7	0	0	0	0	504	419	
8	0	0	0	0	504	419	
9	0	0	0	0	505	418	
10	0	0	0	0	504	413	
11	0	0	0	0	504	419	
12	0	0	0	0	504	419	
13	0	0	0	0	504	419	
14	0	0	0	0	504	423	
15	0	0	0	0	505	419	
0	0	0	0	0	505	419	
1	0	0	0	0	505	419	
2	0	0	0	0	504	413	
3	0	0	0	0	504	419	
4	0	0	0	0	503	419	
5	0	0	0	0	502	419	
6	0	0	0	0	502	423	
7	0	0	0	0	502	419	
8	0	0	0	0	502	419	
9	0	0	0	0	502	418	
10	0	0	0	0	502	414	
11	0	0	0	0	502	419	
12	0	0	0	0	502	417	
13	0	0	0	0	502	419	
14	0	0	0	0	502	423	
15	0	0	0	0	502	418	
0	0	0	0	0	503	418	
1	0	0	0	0	504	418	
2	0	0	0	0	504	413	
3	0	0	0	0	503	418	
4	0	0	0	0	503	418	
5	0	0	0	0	503	419	
6	0	0	0	0	503	423	
7	0	0	0	0	504	418	
8	0	0	0	0	504	418	
9	0	0	0	0	503	418	
10	0	0	0	0	504	413	
11	0	0	0	0	504	418	
12	0	0	0	0	504	418	
13	0	0	0	0	504	419	
14	0	0	0	0	504	423	
15	0	0	0	0	504	418	
0	0	0	0	0	504	418	
1	0	0	0	0	504	418	
2	0	0	0	0	505	414	
3	0	0	0	0	505	418	
4	0	0	0	0	505	418	
5	0	0	0	0	505	418	
6	0	0	0	0	505	423	
7	0	0	0	0	505	419	
8	0	0	0	0	505	419	
9	0	0	0	0	505	418	
10	0	0	0	0	504	413	
11	0	0	0	0	504	418	
12	0	0	0	0	503	418	
13	0	0	0	0	503	418	
14	0	0	0	0	504	423	
15	0	0	0	0	504	418	
0	0	0	0	0	504	419	
1	0	0	0	0	504	419	
2	0	0	0	0	505	413	
3	0	0	0	0	505	419	
4	0	0	0	0	505	419	
5	0	0	0	0	506	419	
6	0	0	0	0	506	424	
7	0	0	0	0	507	419	
8	0	0	0	0	507	419	
9	0	0	0	0	507	419	
10	0	0	0	0	505	414	
11	0	0	0	0	504	419	
12	0	0	0	0	505	419	
13	0	0	0	0	505	419	
14	0	0	0	0	505	424	
15	0	0	0	0	506	419	
0	0	0	0	0	506	419	
1	0	0	0	0	505	418	
2	0	0	0	0	505	414	
3	0	0	0	0	505	419	
4	0	0	0	0	505	419	
5	0	0	0	0	505	419	
6	0	0	0	0	505	423	
7	0	0	0	0	506	419	
8	0	0	0	0	506	418	
9	0	0	0	0	506	418	
10	0	0	0	0	506	413	
11	0	0	0	0	506	418	
12	0	0	0	0	508	418	
13	0	0	0	0	508	419	
14	0	0	0	0	508	423	
15	0	0	0	0	508	418	
0	0	0	0	0	508	419	
1	0	0	0	0	508	418	
2	0	0	0	0	508	413	
3	0	0	0	0	508	418	
4	0	0	0	0	508	418	
5	0	0	0	0	507	418	
6	0	0	0	0	507	423	
7	0	0	0	0	507	418	
8	0	0	0	0	507	417	
9	0	0	0	0	507	418	
10	0	0	0	0	507	413	
11	0	0	0	0	508	418	
12	0	0	0	0	508	418	
13	0	0	0	0	507	418	
14	0	0	0	0	507	423	
15	0	0	0	0	508	418	
0	0	0	0	0	507	417	
1	0	0	0	0	507	418	
2	0	0	0	0	507	413	
3	0	0	0	0	507	418	
4	0	0	0	0	507	418	
5	0	0	0	0	508	419	
6	0	0	0	0	508	423	
7	0	0	0	0	509	419	
8	0	0	0	0	508	419	
9	0	0	0	0	508	418	
10	0	0	0	0	509	414	
11	0	0	0	0	508	419	
12	0	0	0	0	508	418	
13	0	0	0	0	509	419	
14	0	0	0	0	510	423	
15	0	0	0	0	509	419	
0	0	0	0	0	509	418	
1	0	0	0	0	509	418	
2	0	0	0	0	509	413	
3	0	0	0	0	508	418	
4	0	0	0	0	508	419	
5	0	0	0	0	508	418	
6	0	0	0	0	509	423	
7	0	0	0	0	510	418	
8	0	0	0	0	509	418	
9	0	0	0	0	508	418	
10	0	0	0	0	508	414	
11	0	0	0	0	508	419	
12	0	0	0	0	507	419	
13	0	0	0	0	507	419	
14	0	0	0	0	507	423	
15	0	0	0	0	507	419	
0	0	0	0	0	507	418	
1	0	0	0	0	505	418	
2	0	0	0	0	505	413	
3	0	0	0	0	505	417	
4	0	0	0	0	506	419	
5	0	0	0	0	507	419	
6	0	0	0	0	508	423	
7	0	0	0	0	508	418	
8	0	0	0	0	507	418	
9	0	0	0	0	506	419	
10	0	0	0	0	505	413	
11	0	0	0	0	504	418	
12	0	0	0	0	503	418	
13	0	0	0	0	502	419	
14	0	0	0	0	502	423	
15	0	0	0	0	502	418	
0	0	0	0	0	502	418	
1	0	0	0	0	502	418	
2	0	0	0	0	502	412	
3	0	0	0	0	502	418	
4	0	0	0	0	502	418	
5	0	0	0	0	502	417	
6	0	0	0	0	502	423	
7	0	0	0	0	503	418	
8	0	0	0	0	503	418	
9	0	0	0	0	503	417	
10	0	0	0	0	503	413	
11	0	0	0	0	503	418	
12	0	0	0	0	504	418	
13	0	0	0	0	504	418	
14	0	0	0	0	505	422	
15	0	0	0	0	505	418	
0	0	0	0	0	505	417	
1	0	0	0	0	505	417	
2	0	0	0	0	505	412	
3	0	0	0	0	505	418	
4	0	0	0	0	504	418	
5	0	0	0	0	504	418	
6	0	0	0	0	505	423	
7	0	0	0	0	505	417	
8	0	0	0	0	504	418	
9	0	0	0	0	503	418	
10	0	0	0	0	503	413	
11	0	0	0	0	504	418	
12	0	0	0	0	503	418	
13	0	0	0	0	503	419	
14	0	0	0	0	503	423	
15	0	0	0	0	502	418	
0	0	0	0	0	503	417	
1	0	0	0	0	504	417	
2	0	0	0	0	504	413	
3	0	0	0	0	504	417	
4	0	0	0	0	505	418	
5	0	0	0	0	507	419	
6	0	0	0	0	508	422	
7	0	0	0	0	510	418	
8	0	0	0	0	511	418	
9	0	0	0	0	511	418	
10	0	0	0	0	511	413	
11	0	0	0	0	511	418	
12	0	0	0	0	512	419	
13	0	0	0	0	512	418	
14	0	0	0	0	513	423	
15	0	0	0	0	514	418	
0	0	0	0	0	515	418	
1	0	0	0	0	515	418	
2	0	0	0	0	515	412	
3	0	0	0	0	515	417	
4	0	0	0	0	515	417	
5	0	0	0	0	515	417	
6	0	0	0	0	515	423	
7	0	0	0	0	515	417	
8	0	0	0	0	516	418	
9	0	0	0	0	516	418	
10	0	0	0	0	515	413	
11	0	0	0	0	513	418	
12	0	0	0	0	513	418	
13	0	0	0	0	511	418	
14	0	0	0	0	511	422	
15	0	0	0	0	512	418	
0	0	0	0	0	511	418	
1	0	0	0	0	509	417	
2	0	0	0	0	508	413	
3	0	0	0	0	508	418	
4	0	0	0	0	509	418	
5	0	0	0	0	509	418	
6	0	0	0	0	510	423	
7	0	0	0	0	509	417	
8	0	0	0	0	509	418	
9	0	0	0	0	510	417	
10	0	0	0	0	510	413	
11	0	0	0	0	510	418	
12	0	0	0	0	510	418	
13	0	0	0	0	510	417	
14	0	0	0	0	510	423	
15	0	0	0	0	510	418	
0	0	0	0	0	510	418	
1	0	0	0	0	510	417	
2	0	0	0	0	510	413	
3	0	0	0	0	510	418	
4	0	0	0	0	509	419	
5	0	0	0	0	510	419	
6	0	0	0	0	510	423	
7	0	0	0	0	510	418	
8	0	0	0	0	511	418	
9	0	0	0	0	511	418	
10	0	0	0	0	512	413	
11	0	0	0	0	511	419	
12	0	0	0	0	512	419	
13	0	0	0	0	511	419	
14	0	0	0	0	511	423	
15	0	0	0	0	511	418	
0	0	0	0	0	510	418	
1	0	0	0	0	509	418	
2	0	0	0	0	509	413	
3	0	0	0	0	509	419	
4	0	0	0	0	507	418	
5	0	0	0	0	505	419	
6	0	0	0	0	503	423	
7	0	0	0	0	501	419	
8	0	0	0	0	498	418	
9	0	0	0	0	495	419	
10	0	0	0	0	491	414	
11	0	0	0	0	487	418	
12	0	0	0	0	483	419	
13	0	0	0	0	477	419	
14	0	0	0	0	470	423	
15	0	0	0	0	463	419	
0	0	0	0	0	458	419	
1	0	0	0	0	453	419	
2	0	0	0	0	447	414	
3	0	0	0	0	441	419	
4	0	0	0	0	436	419	
5	0	0	0	0	433	419	
6	0	0	0	0	432	424	
7	0	0	0	0	431	418	
8	0	0	0	0	431	418	
9	0	0	0	0	430	419	
10	0	0	0	0	432	414	
11	0	0	0	0	435	419	
12	0	0	0	0	439	419	
13	0	0	0	0	444	419	
14	0	0	0	0	449	423	
15	0	0	0	0	459	418	
0	0	0	0	0	473	418	
1	0	0	0	0	491	418	
2	0	0	0	0	515	413	
3	0	0	0	0	542	419	
4	0	0	0	0	571	419	
5	0	0	0	0	600	419	
6	0	0	0	0	628	423	
7	0	0	0	0	656	418	
8	0	0	0	0	685	419	
9	0	0	0	0	713	419	
10	0	0	0	0	737	413	
11	0	0	0	0	758	418	
12	0	0	0	0	774	418	
13	0	0	0	0	788	418	
14	0	0	0	0	800	423	
15	0	0	0	0	810	418	
0	0	0	0	0	819	417	
1	0	0	0	0	828	418	
2	0	0	0	0	834	413	
3	0	0	0	0	837	418	
4	0	0	0	0	835	417	
5	0	0	0	0	827	417	
6	0	0	0	0	812	422	
7	0	0	0	0	792	418	
8	0	0	0	0	767	417	
9	0	0	0	0	737	417	
10	0	0	0	0	706	412	
11	0	0	0	0	676	417	
12	0	0	0	0	652	418	
13	0	0	0	0	632	418	
14	0	0	0	0	615	423	
15	0	0	0	0	599	417	
0	0	0	0	0	583	418	
1	0	0	0	0	567	417	
2	0	0	0	0	552	412	
3	0	0	0	0	539	418	
4	0	0	0	0	527	418	
5	0	0	0	0	516	417	
6	0	0	0	0	508	423	
7	0	0	0	0	499	418	
8	0	0	0	0	492	418	
9	0	0	0	0	486	417	
10	0	0	0	0	480	412	
11	0	0	0	0	474	418	
12	0	0	0	0	470	417	
13	0	0	0	0	466	418	
14	0	0	0	0	463	422	
15	0	0	0	0	460	417	
0	0	0	0	0	458	418	
1	0	0	0	0	456	418	
2	0	0	0	0	454	412	
3	0	0	0	0	451	418	
4	0	0	0	0	450	418	
5	0	0	0	0	450	418	
6	0	0	0	0	449	423	
7	0	0	0	0	449	419	
8	0	0	0	0	449	419	
9	0	0	0	0	448	417	
10	0	0	0	0	446	413	
11	0	0	0	0	446	418	
12	0	0	0	0	446	418	
13	0	0	0	0	447	418	
14	0	0	0	0	448	422	
15	0	0	0	0	448	418	
0	0	0	0	0	448	418	
1	0	0	0	0	448	418	
2	0	0	0	0	448	413	
3	0	0	0	0	447	418	
4	0	0	0	0	447	418	
5	0	0	0	0	447	418	
6	0	0	0	0	447	423	
7	0	0	0	0	447	418	
8	0	0	0	0	447	418	
9	0	0	0	0	448	418	
10	0	0	0	0	448	413	
11	0	0	0	0	448	417	
12	0	0	0	0	448	418	
13	0	0	0	0	447	418	
14	0	0	0	0	447	423	
15	0	0	0	0	448	418	
0	0	0	0	0	448	418	
1	0	0	0	0	449	419	
2	0	0	0	0	449	413	
3	0	0	0	0	451	419	
4	0	0	0	0	451	419	
5	0	0	0	0	451	419	
6	0	0	0	0	451	424	
7	0	0	0	0	452	419	
8	0	0	0	0	452	419	
9	0	0	0	0	453	419	
10	0	0	0	0	453	413	
11	0	0	0	0	452	420	
12	0	0	0	0	453	419	
13	0	0	0	0	455	419	
14	0	0	0	0	456	424	
15	0	0	0	0	456	419	
0	0	0	0	0	455	419	
1	0	0	0	0	456	419	
2	0	0	0	0	457	413	
3	0	0	0	0	458	419	
4	0	0	0	0	459	419	
5	0	0	0	0	459	419	
6	0	0	0	0	460	423	
7	0	0	0	0	461	419	
8	0	0	0	0	462	419	
9	0	0	0	0	463	419	
10	0	0	0	0	464	413	
11	0	0	0	0	465	419	
12	0	0	0	0	465	419	
13	0	0	0	0	465	419	
14	0	0	0	0	466	423	
15	0	0	0	0	466	418	
0	0	0	0	0	465	419	
1	0	0	0	0	465	418	
2	0	0	0	0	466	413	
3	0	0	0	0	467	418	
4	0	0	0	0	469	418	
5	0	0	0	0	470	418	
6	0	0	0	0	470	422	
7	0	0	0	0	472	419	
8	0	0	0	0	472	418	
9	0	0	0	0	473	418	
10	0	0	0	0	473	413	
11	0	0	0	0	473	418	
12	0	0	0	0	473	418	
13	0	0	0	0	474	418	
14	0	0	0	0	475	423	
15	0	0	0	0	476	417	
0	0	0	0	0	476	417	
1	0	0	0	0	476	418	
2	0	0	0	0	478	413	
3	0	0	0	0	478	418	
4	0	0	0	0	479	418	
5	0	0	0	0	479	417	
6	0	0	0	0	478	422	
7	0	0	0	0	479	418	
8	0	0	0	0	479	418	
9	0	0	0	0	480	417	
10	0	0	0	0	480	412	
11	0	0	0	0	480	417	
12	0	0	0	0	481	418	
13	0	0	0	0	482	418	
14	0	0	0	0	483	422	
15	0	0	0	0	483	417	
0	0	0	0	0	485	418	
1	0	0	0	0	486	418	
2	0	0	0	0	487	413	
3	0	0	0	0	487	419	
4	0	0	0	0	487	419	
5	0	0	0	0	486	419	
6	0	0	0	0	486	423	
7	0	0	0	0	487	418	
8	0	0	0	0	487	418	
9	0	0	0	0	487	418	
10	0	0	0	0	487	413	
11	0	0	0	0	487	418	
12	0	0	0	0	486	419	
13	0	0	0	0	486	419	
14	0	0	0	0	487	423	
15	0	0	0	0	487	418	
0	0	0	0	0	486	419	
1	0	0	0	0	486	419	
2	0	0	0	0	486	414	
3	0	0	0	0	486	419	
4	0	0	0	0	486	419	
5	0	0	0	0	486	419	
6	0	0	0	0	487	424	
7	0	0	0	0	487	419	
8	0	0	0	0	487	419	
9	0	0	0	0	487	419	
10	0	0	0	0	488	414	
11	0	0	0	0	489	419	
12	0	0	0	0	490	420	
13	0	0	0	0	491	419	
14	0	0	0	0	492	424	
15	0	0	0	0	492	419	
0	0	0	0	0	492	418	
1	0	0	0	0	492	418	
2	0	0	0	0	492	413	
3	0	0	0	0	493	419	
4	0	0	0	0	494	419	
5	0	0	0	0	495	419	
6	0	0	0	0	496	423	
7	0	0	0	0	496	419	
8	0	0	0	0	496	419	
9	0	0	0	0	496	418	
10	0	0	0	0	496	414	
11	0	0	0	0	496	418	
12	0	0	0	0	496	419	
13	0	0	0	0	496	418	
14	0	0	0	0	496	423	
15	0	0	0	0	497	418	
0	0	0	0	0	497	417	
1	0	0	0	0	497	418	
2	0	0	0	0	497	412	
3	0	0	0	0	497	417	
4	0	0	0	0	498	418	
5	0	0	0	0	498	418	
6	0	0	0	0	499	423	
7	0	0	0	0	500	418	
8	0	0	0	0	500	418	
9	0	0	0	0	499	418	
10	0	0	0	0	499	413	
11	0	0	0	0	499	419	
12	0	0	0	0	499	418	
13	0	0	0	0	499	419	
14	0	0	0	0	499	423	
15	0	0	0	0	499	418	
0	0	0	0	0	499	418	
1	0	0	0	0	499	417	
2	0	0	0	0	500	412	
3	0	0	0	0	500	418	
4	0	0	0	0	499	418	
5	0	0	0	0	499	418	
6	0	0	0	0	500	423	
7	0	0	0	0	501	418	
8	0	0	0	0	502	418	
9	0	0	0	0	503	418	
10	0	0	0	0	503	413	
11	0	0	0	0	503	418	
12	0	0	0	0	503	418	
13	0	0	0	0	504	417	
14	0	0	0	0	504	422	
15	0	0	0	0	504	417	
0	0	0	0	0	505	418	
1	0	0	0	0	505	418	
2	0	0	0	0	505	413	
3	0	0	0	0	506	419	
4	0	0	0	0	507	418	
5	0	0	0	0	508	419	
6	0	0	0	0	508	423	
7	0	0	0	0	509	418	
8	0	0	0	0	510	418	
9	0	0	0	0	510	417	
10	0	0	0	0	511	413	
11	0	0	0	0	511	418	
12	0	0	0	0	512	417	
13	0	0	0	0	512	418	
14	0	0	0	0	512	423	
15	0	0	0	0	512	419	
0	0	0	0	0	513	418	
1	0	0	0	0	513	419	
2	0	0	0	0	513	413	
3	0	0	0	0	514	418	
4	0	0	0	0	514	418	
5	0	0	0	0	515	419	
6	0	0	0	0	514	423	
7	0	0	0	0	514	418	
8	0	0	0	0	515	418	
9	0	0	0	0	515	418	
10	0	0	0	0	516	414	
11	0	0	0	0	518	419	
12	0	0	0	0	518	419	
13	0	0	0	0	519	418	
14	0	0	0	0	519	423	
15	0	0	0	0	519	418	
0	0	0	0	0	520	419	
1	0	0	0	0	520	419	
2	0	0	0	0	520	413	
3	0	0	0	0	522	418	
4	0	0	0	0	522	418	
5	0	0	0	0	522	418	
6	0	0	0	0	523	423	
7	0	0	0	0	524	418	
8	0	0	0	0	524	418	
9	0	0	0	0	525	418	
10	0	0	0	0	524	412	
11	0	0	0	0	523	418	
12	0	0	0	0	522	419	
13	0	0	0	0	521	419	
14	0	0	0	0	519	423	
15	0	0	0	0	518	417	
0	0	0	0	0	516	418	
1	0	0	0	0	516	418	
2	0	0	0	0	515	413	
3	0	0	0	0	513	418	
4	0	0	0	0	512	417	
5	0	0	0	0	511	418	
6	0	0	0	0	510	422	
7	0	0	0	0	510	418	
8	0	0	0	0	509	418	
9	0	0	0	0	508	418	
10	0	0	0	0	507	412	
11	0	0	0	0	507	418	
12	0	0	0	0	505	418	
13	0	0	0	0	504	418	
14	0	0	0	0	503	423	
15	0	0	0	0	502	418	
0	0	0	0	0	500	418	
1	0	0	0	0	499	418	
2	0	0	0	0	498	414	
3	0	0	0	0	497	418	
4	0	0	0	0	497	417	
5	0	0	0	0	496	417	
6	0	0	0	0	497	423	
7	0	0	0	0	496	419	
8	0	0	0	0	496	419	
9	0	0	0	0	495	418	
10	0	0	0	0	496	413	
11	0	0	0	0	496	419	
12	0	0	0	0	496	419	
13	0	0	0	0	497	418	
14	0	0	0	0	497	423	
15	0	0	0	0	497	419	
0	0	0	0	0	497	418	
1	0	0	0	0	496	418	
2	0	0	0	0	496	413	
3	0	0	0	0	495	419	
4	0	0	0	0	495	419	
5	0	0	0	0	495	419	
6	0	0	0	0	495	423	
7	0	0	0	0	495	419	
8	0	0	0	0	495	418	
9	0	0	0	0	495	418	
10	0	0	0	0	495	413	
11	0	0	0	0	496	418	
12	0	0	0	0	496	418	
13	0	0	0	0	496	418	
14	0	0	0	0	495	423	
15	0	0	0	0	495	418	
0	0	0	0	0	495	418	
1	0	0	0	0	496	419	
2	0	0	0	0	497	413	
3	0	0	0	0	497	418	
4	0	0	0	0	497	418	
5	0	0	0	0	497	419	
6	0	0	0	0	498	423	
7	0	0	0	0	499	418	
8	0	0	0	0	499	418	
9	0	0	0	0	500	418	
10	0	0	0	0	501	412	
11	0	0	0	0	501	418	
12	0	0	0	0	501	418	
13	0	0	0	0	502	418	
14	0	0	0	0	502	423	
15	0	0	0	0	502	418	
0	0	0	0	0	503	417	
1	0	0	0	0	503	417	
2	0	0	0	0	503	412	
3	0	0	0	0	502	418	
4	0	0	0	0	502	418	
5	0	0	0	0	503	418	
6	0	0	0	0	502	423	
7	0	0	0	0	502	418	
8	0	0	0	0	503	418	
9	0	0	0	0	503	418	
10	0	0	0	0	503	412	
11	0	0	0	0	504	418	
12	0	0	0	0	503	417	
13	0	0	0	0	503	418	
14	0	0	0	0	504	422	
15	0	0	0	0	504	418	
0	0	0	0	0	504	418	
1	0	0	0	0	505	418	
2	0	0	0	0	506	413	
3	0	0	0	0	507	418	
4	0	0	0	0	507	418	
5	0	0	0	0	507	418	
6	0	0	0	0	507	423	
7	0	0	0	0	508	418	
8	0	0	0	0	507	417	
9	0	0	0	0	507	417	
10	0	0	0	0	507	412	
11	0	0	0	0	506	418	
12	0	0	0	0	507	418	
13	0	0	0	0	506	418	
14	0	0	0	0	506	423	
15	0	0	0	0	506	418	
0	0	0	0	0	506	418	
1	0	0	0	0	505	417	
2	0	0	0	0	505	413	
3	0	0	0	0	506	419	
4	0	0	0	0	506	419	
5	0	0	0	0	506	419	
6	0	0	0	0	507	423	
7	0	0	0	0	507	418	
8	0	0	0	0	506	419	
9	0	0	0	0	505	418	
10	0	0	0	0	504	413	
11	0	0	0	0	504	419	
12	0	0	0	0	505	418	
13	0	0	0	0	505	419	
14	0	0	0	0	506	423	
15	0	0	0	0	508	417	
0	0	0	0	0	508	418	
1	0	0	0	0	509	418	
2	0	0	0	0	508	413	
3	0	0	0	0	509	418	
4	0	0	0	0	510	418	
5	0	0	0	0	510	418	
6	0	0	0	0	510	422	
7	0	0	0	0	510	418	
8	0	0	0	0	510	418	
9	0	0	0	0	511	417	
10	0	0	0	0	511	412	
11	0	0	0	0	511	417	
12	0	0	0	0	511	418	
13	0	0	0	0	511	418	
14	0	0	0	0	510	423	
15	0	0	0	0	510	417	
0	0	0	0	0	510	417	
1	0	0	0	0	511	417	
2	0	0	0	0	511	412	
3	0	0	0	0	511	417	
4	0	0	0	0	512	417	
5	0	0	0	0	512	418	
6	0	0	0	0	512	423	
7	0	0	0	0	513	418	
8	0	0	0	0	512	417	
9	0	0	0	0	512	417	
10	0	0	0	0	512	413	
11	0	0	0	0	512	418	
12	0	0	0	0	512	418	
13	0	0	0	0	512	418	
14	0	0	0	0	512	423	
15	0	0	0	0	511	418	
0	0	0	0	0	512	418	
1	0	0	0	0	513	417	
2	0	0	0	0	514	412	
3	0	0	0	0	514	418	
4	0	0	0	0	513	417	
5	0	0	0	0	513	418	
6	0	0	0	0	513	423	
7	0	0	0	0	513	418	
8	0	0	0	0	513	418	
9	0	0	0	0	514	417	
10	0	0	0	0	514	413	
11	0	0	0	0	515	418	
12	0	0	0	0	515	419	
13	0	0	0	0	515	419	
14	0	0	0	0	514	423	
15	0	0	0	0	514	418	
0	0	0	0	0	514	418	
1	0	0	0	0	514	419	
2	0	0	0	0	514	414	
3	0	0	0	0	513	419	
4	0	0	0	0	514	419	
5	0	0	0	0	515	419	
6	0	0	0	0	515	423	
7	0	0	0	0	514	419	
8	0	0	0	0	514	419	
9	0	0	0	0	513	419	
10	0	0	0	0	514	414	
11	0	0	0	0	514	419	
12	0	0	0	0	515	419	
13	0	0	0	0	513	419	
14	0	0	0	0	513	423	
15	0	0	0	0	513	419	
0	0	0	0	0	513	418	
1	0	0	0	0	513	419	
2	0	0	0	0	513	414	
3	0	0	0	0	513	419	
4	0	0	0	0	514	419	
5	0	0	0	0	515	419	
6	0	0	0	0	515	423	
7	0	0	0	0	515	418	
8	0	0	0	0	514	418	
9	0	0	0	0	515	418	
10	0	0	0	0	515	413	
11	0	0	0	0	515	418	
12	0	0	0	0	515	418	
13	0	0	0	0	515	418	
14	0	0	0	0	514	423	
15	0	0	0	0	514	417	
0	0	0	0	0	514	418	
1	0	0	0	0	513	418	
2	0	0	0	0	513	413	
3	0	0	0	0	513	417	
4	0	0	0	0	513	417	
5	0	0	0	0	513	417	
6	0	0	0	0	512	422	
7	0	0	0	0	512	417	
8	0	0	0	0	512	417	
9	0	0	0	0	512	417	
10	0	0	0	0	512	413	
11	0	0	0	0	512	418	
12	0	0	0	0	511	418	
13	0	0	0	0	511	418	
14	0	0	0	0	511	422	
15	0	0	0	0	511	418	
0	0	0	0	0	511	418	
1	0	0	0	0	511	417	
2	0	0	0	0	510	413	
3	0	0	0	0	510	418	
4	0	0	0	0	510	418	
5	0	0	0	0	510	419	
6	0	0	0	0	510	423	
7	0	0	0	0	510	418	
8	0	0	0	0	509	418	
9	0	0	0	0	510	419	
10	0	0	0	0	511	414	
11	0	0	0	0	510	418	
12	0	0	0	0	510	418	
13	0	0	0	0	510	418	
14	0	0	0	0	511	423	
15	0	0	0	0	511	419	
0	0	0	0	0	511	418	
1	0	0	0	0	512	418	
2	0	0	0	0	511	413	
3	0	0	0	0	511	418	
4	0	0	0	0	511	418	
5	0	0	0	0	511	418	
6	0	0	0	0	512	423	
7	0	0	0	0	511	419	
8	0	0	0	0	511	419	
9	0	0	0	0	511	419	
10	0	0	0	0	511	413	
11	0	0	0	0	511	419	
12	0	0	0	0	511	418	
13	0	0	0	0	511	419	
14	0	0	0	0	510	423	
15	0	0	0	0	510	418	
0	0	0	0	0	509	418	
1	0	0	0	0	509	418	
2	0	0	0	0	509	414	
3	0	0	0	0	509	419	
4	0	0	0	0	509	418	
5	0	0	0	0	510	419	
6	0	0	0	0	510	423	
7	0	0	0	0	511	418	
8	0	0	0	0	511	418	
9	0	0	0	0	510	418	
10	0	0	0	0	510	413	
11	0	0	0	0	509	418	
12	0	0	0	0	509	418	
13	0	0	0	0	511	418	
14	0	0	0	0	511	423	
15	0	0	0	0	510	418	
0	0	0	0	0	510	418	
1	0	0	0	0	510	417	
2	0	0	0	0	509	413	
3	0	0	0	0	510	417	
4	0	0	0	0	511	417	
5	0	0	0	0	511	418	
6	0	0	0	0	512	423	
7	0	0	0	0	512	417	
8	0	0	0	0	512	417	
9	0	0	0	0	512	417	
10	0	0	0	0	512	413	
11	0	0	0	0	513	418	
12	0	0	0	0	513	418	
13	0	0	0	0	515	418	
14	0	0	0	0	515	423	
15	0	0	0	0	515	417	
0	0	0	0	0	514	418	
1	0	0	0	0	514	417	
2	0	0	0	0	514	413	
3	0	0	0	0	515	418	
4	0	0	0	0	515	418	
5	0	0	0	0	515	418	
6	0	0	0	0	515	423	
7	0	0	0	0	514	418	
8	0	0	0	0	514	418	
9	0	0	0	0	513	418	
10	0	0	0	0	514	413	
11	0	0	0	0	513	419	
12	0	0	0	0	513	418	
13	0	0	0	0	513	418	
14	0	0	0	0	512	423	
15	0	0	0	0	513	419	
0	0	0	0	0	513	419	
1	0	0	0	0	513	419	
2	0	0	0	0	513	414	
3	0	0	0	0	513	419	
4	0	0	0	0	513	419	
5	0	0	0	0	512	419	
6	0	0	0	0	512	423	
7	0	0	0	0	511	418	
8	0	0	0	0	511	419	
9	0	0	0	0	510	418	
10	0	0	0	0	509	413	
11	0	0	0	0	509	419	
12	0	0	0	0	508	419	
13	0	0	0	0	507	419	
14	0	0	0	0	507	423	
15	0	0	0	0	507	418	
0	0	0	0	0	508	418	
1	0	0	0	0	508	418	
2	0	0	0	0	507	413	
3	0	0	0	0	508	418	
4	0	0	0	0	507	418	
5	0	0	0	0	508	419	
6	0	0	0	0	508	423	
7	0	0	0	0	508	419	
8	0	0	0	0	509	418	
9	0	0	0	0	509	418	
10	0	0	0	0	509	413	
11	0	0	0	0	507	418	
12	0	0	0	0	507	418	
13	0	0	0	0	507	418	
14	0	0	0	0	508	423	
15	0	0	0	0	508	418	
0	0	0	0	0	509	418	
1	0	0	0	0	509	418	
2	0	0	0	0	511	413	
3	0	0	0	0	511	418	
4	0	0	0	0	512	418	
5	0	0	0	0	512	419	
6	0	0	0	0	512	423	
7	0	0	0	0	513	418	
8	0	0	0	0	512	418	
9	0	0	0	0	512	417	
10	0	0	0	0	512	413	
11	0	0	0	0	511	418	
12	0	0	0	0	510	417	
13	0	0	0	0	510	417	
14	0	0	0	0	510	422	
15	0	0	0	0	511	417	
0	0	0	0	0	510	417	
1	0	0	0	0	511	417	
2	0	0	0	0	511	412	
3	0	0	0	0	511	417	
4	0	0	0	0	512	418	
5	0	0	0	0	512	418	
6	0	0	0	0	513	423	
7	0	0	0	0	514	418	
8	0	0	0	0	515	418	
9	0	0	0	0	515	418	
10	0	0	0	0	516	414	
11	0	0	0	0	516	419	
12	0	0	0	0	518	419	
13	0	0	0	0	518	419	
14	0	0	0	0	517	423	
15	0	0	0	0	518	419	
0	0	0	0	0	519	419	
1	0	0	0	0	519	418	
2	0	0	0	0	519	414	
3	0	0	0	0	519	419	
4	0	0	0	0	519	419	
5	0	0	0	0	520	419	
6	0	0	0	0	521	423	
7	0	0	0	0	521	419	
8	0	0	0	0	521	418	
9	0	0	0	0	521	418	
10	0	0	0	0	521	413	
11	0	0	0	0	521	418	
12	0	0	0	0	520	418	
13	0	0	0	0	520	418	
14	0	0	0	0	519	423	
15	0	0	0	0	519	419	
0	0	0	0	0	518	418	
1	0	0	0	0	517	418	
2	0	0	0	0	516	413	
3	0	0	0	0	515	418	
4	0	0	0	0	514	418	
5	0	0	0	0	514	418	
6	0	0	0	0	513	423	
7	0	0	0	0	512	418	
8	0	0	0	0	512	418	
9	0	0	0	0	512	418	
10	0	0	0	0	511	412	
11	0	0	0	0	512	418	
12	0	0	0	0	512	418	
13	0	0	0	0	512	418	
14	0	0	0	0	513	423	
15	0	0	0	0	513	418	
0	0	0	0	0	512	417	
1	0	0	0	0	511	418	
2	0	0	0	0	511	413	
3	0	0	0	0	511	418	
4	0	0	0	0	511	418	
5	0	0	0	0	512	418	
6	0	0	0	0	512	423	
7	0	0	0	0	512	418	
8	0	0	0	0	512	418	
9	0	0	0	0	512	417	
10	0	0	0	0	513	412	
11	0	0	0	0	514	418	
12	0	0	0	0	513	418	
13	0	0	0	0	512	418	
14	0	0	0	0	512	423	
15	0	0	0	0	512	418	
0	0	0	0	0	511	418	
1	0	0	0	0	512	419	
2	0	0	0	0	511	413	
3	0	0	0	0	512	418	
4	0	0	0	0	512	418	
5	0	0	0	0	511	418	
6	0	0	0	0	510	423	
7	0	0	0	0	509	419	
8	0	0	0	0	507	418	
9	0	0	0	0	506	418	
10	0	0	0	0	504	414	
11	0	0	0	0	503	419	
12	0	0	0	0	501	419	
13	0	0	0	0	498	419	
14	0	0	0	0	495	424	
15	0	0	0	0	491	418	
0	0	0	0	0	486	418	
1	0	0	0	0	481	418	
2	0	0	0	0	475	412	
3	0	0	0	0	468	418	
4	0	0	0	0	463	418	
5	0	0	0	0	456	418	
6	0	0	0	0	452	422	
7	0	0	0	0	448	417	
8	0	0	0	0	443	417	
9	0	0	0	0	440	417	
10	0	0	0	0	439	412	
11	0	0	0	0	440	418	
12	0	0	0	0	440	418	
13	0	0	0	0	440	418	
14	0	0	0	0	440	423	
15	0	0	0	0	442	417	
0	0	0	0	0	446	417	
1	0	0	0	0	450	418	
2	0	0	0	0	456	412	
3	0	0	0	0	467	418	
4	0	0	0	0	482	418	
5	0	0	0	0	501	418	
6	0	0	0	0	523	422	
7	0	0	0	0	550	417	
8	0	0	0	0	579	417	
9	0	0	0	0	608	417	
10	0	0	0	0	635	412	
11	0	0	0	0	661	417	
12	0	0	0	0	686	418	
13	0	0	0	0	712	418	
14	0	0	0	0	736	423	
15	0	0	0	0	757	417	
0	0	0	0	0	774	417	
1	0	0	0	0	787	417	
2	0	0	0	0	798	412	
3	0	0	0	0	808	417	
4	0	0	0	0	817	417	
5	0	0	0	0	825	417	
6	0	0	0	0	832	422	
7	0	0	0	0	835	418	
8	0	0	0	0	834	418	
9	0	0	0	0	827	418	
10	0	0	0	0	814	413	
11	0	0	0	0	795	418	
12	0	0	0	0	768	418	
13	0	0	0	0	736	418	
14	0	0	0	0	705	423	
15	0	0	0	0	675	418	
0	0	0	0	0	651	418	
1	0	0	0	0	632	418	
2	0	0	0	0	619	413	
3	0	0	0	0	604	419	
4	0	0	0	0	590	419	
5	0	0	0	0	575	419	
6	0	0	0	0	561	424	
7	0	0	0	0	549	419	
8	0	0	0	0	539	419	
9	0	0	0	0	528	419	
10	0	0	0	0	519	414	
11	0	0	0	0	511	419	
12	0	0	0	0	505	419	
13	0	0	0	0	498	419	
14	0	0	0	0	492	424	
15	0	0	0	0	486	419	
0	0	0	0	0	481	419	
1	0	0	0	0	477	418	
2	0	0	0	0	473	413	
3	0	0	0	0	471	419	
4	0	0	0	0	468	418	
5	0	0	0	0	467	419	
6	0	0	0	0	465	423	
7	0	0	0	0	464	419	
8	0	0	0	0	463	418	
9	0	0	0	0	463	418	
10	0	0	0	0	462	414	
11	0	0	0	0	462	419	
12	0	0	0	0	462	419	
13	0	0	0	0	461	419	
14	0	0	0	0	461	423	
15	0	0	0	0	460	419	
0	0	0	0	0	460	418	
1	0	0	0	0	460	417	
2	0	0	0	0	460	413	
3	0	0	0	0	459	418	
4	0	0	0	0	459	418	
5	0	0	0	0	459	418	
6	0	0	0	0	460	423	
7	0	0	0	0	459	418	
8	0	0	0	0	459	418	
9	0	0	0	0	459	418	
10	0	0	0	0	458	412	
11	0	0	0	0	459	418	
12	0	0	0	0	459	419	
13	0	0	0	0	459	417	
14	0	0	0	0	459	423	
15	0	0	0	0	460	417	
0	0	0	0	0	460	417	
1	0	0	0	0	460	417	
2	0	0	0	0	461	412	
3	0	0	0	0	462	417	
4	0	0	0	0	462	417	
5	0	0	0	0	463	417	
6	0	0	0	0	464	422	
7	0	0	0	0	464	417	
8	0	0	0	0	464	418	
9	0	0	0	0	464	417	
10	0	0	0	0	464	413	
11	0	0	0	0	465	418	
12	0	0	0	0	466	417	
13	0	0	0	0	466	418	
14	0	0	0	0	467	423	
15	0	0	0	0	468	418	
0	0	0	0	0	469	418	
1	0	0	0	0	469	418	
2	0	0	0	0	468	412	
3	0	0	0	0	470	418	
4	0	0	0	0	472	418	
5	0	0	0	0	471	418	
6	0	0	0	0	471	423	
7	0	0	0	0	472	419	
8	0	0	0	0	472	418	
9	0	0	0	0	473	418	
10	0	0	0	0	472	413	
11	0	0	0	0	473	418	
12	0	0	0	0	473	419	
13	0	0	0	0	473	419	
14	0	0	0	0	474	423	
15	0	0	0	0	475	419	
0	0	0	0	0	475	419	
1	0	0	0	0	476	419	
2	0	0	0	0	477	413	
3	0	0	0	0	479	419	
4	0	0	0	0	479	419	
5	0	0	0	0	480	419	
6	0	0	0	0	480	424	
7	0	0	0	0	481	419	
8	0	0	0	0	482	419	
9	0	0	0	0	483	419	
10	0	0	0	0	483	414	
11	0	0	0	0	483	419	
12	0	0	0	0	483	419	
13	0	0	0	0	483	419	
14	0	0	0	0	483	423	
15	0	0	0	0	484	418	
0	0	0	0	0	484	419	
1	0	0	0	0	484	418	
2	0	0	0	0	484	413	
3	0	0	0	0	484	418	
4	0	0	0	0	485	418	
5	0	0	0	0	484	419	
6	0	0	0	0	484	422	
7	0	0	0	0	485	418	
8	0	0	0	0	486	418	
9	0	0	0	0	486	418	
10	0	0	0	0	486	412	
11	0	0	0	0	487	418	
12	0	0	0	0	487	419	
13	0	0	0	0	487	418	
14	0	0	0	0	487	423	
15	0	0	0	0	488	418	
0	0	0	0	0	488	418	
1	0	0	0	0	488	417	
2	0	0	0	0	488	413	
3	0	0	0	0	488	418	
4	0	0	0	0	488	418	
5	0	0	0	0	488	417	
6	0	0	0	0	489	423	
7	0	0	0	0	489	418	
8	0	0	0	0	490	418	
9	0	0	0	0	491	418	
10	0	0	0	0	492	413	
11	0	0	0	0	492	418	
12	0	0	0	0	493	418	
13	0	0	0	0	493	418	
14	0	0	0	0	492	422	
15	0	0	0	0	493	418	
0	0	0	0	0	492	418	
1	0	0	0	0	492	417	
2	0	0	0	0	492	413	
3	0	0	0	0	492	418	
4	0	0	0	0	492	418	
5	0	0	0	0	492	418	
6	0	0	0	0	492	423	
7	0	0	0	0	492	418	
8	0	0	0	0	493	418	
9	0	0	0	0	493	418	
10	0	0	0	0	492	413	
11	0	0	0	0	493	419	
12	0	0	0	0	494	418	
13	0	0	0	0	495	418	
14	0	0	0	0	495	423	
15	0	0	0	0	495	419	
0	0	0	0	0	495	418	
1	0	0	0	0	495	417	
2	0	0	0	0	495	413	
3	0	0	0	0	495	418	
4	0	0	0	0	496	419	
5	0	0	0	0	495	419	
6	0	0	0	0	495	423	
7	0	0	0	0	496	418	
8	0	0	0	0	496	418	
9	0	0	0	0	496	418	
10	0	0	0	0	497	413	
11	0	0	0	0	497	418	
12	0	0	0	0	497	418	
13	0	0	0	0	496	419	
14	0	0	0	0	497	423	
15	0	0	0	0	498	418	
0	0	0	0	0	499	418	
1	0	0	0	0	499	418	
2	0	0	0	0	499	414	
3	0	0	0	0	501	419	
4	0	0	0	0	502	419	
5	0	0	0	0	503	419	
6	0	0	0	0	502	423	
7	0	0	0	0	503	418	
8	0	0	0	0	503	418	
9	0	0	0	0	504	419	
10	0	0	0	0	504	413	
11	0	0	0	0	504	418	
12	0	0	0	0	504	418	
13	0	0	0	0	505	419	
14	0	0	0	0	506	423	
15	0	0	0	0	508	418	
0	0	0	0	0	506	418	
1	0	0	0	0	506	418	
2	0	0	0	0	507	413	
3	0	0	0	0	507	419	
4	0	0	0	0	507	419	
5	0	0	0	0	509	419	
6	0	0	0	0	510	423	
7	0	0	0	0	511	418	
8	0	0	0	0	511	419	
9	0	0	0	0	512	418	
10	0	0	0	0	512	413	
11	0	0	0	0	512	419	
12	0	0	0	0	512	418	
13	0	0	0	0	513	418	
14	0	0	0	0	514	423	
15	0	0	0	0	514	419	
0	0	0	0	0	514	418	
1	0	0	0	0	515	418	
2	0	0	0	0	515	414	
3	0	0	0	0	515	419	
4	0	0	0	0	515	419	
5	0	0	0	0	515	419	
6	0	0	0	0	515	423	
7	0	0	0	0	515	419	
8	0	0	0	0	516	419	
9	0	0	0	0	517	418	
10	0	0	0	0	517	413	
11	0	0	0	0	518	419	
12	0	0	0	0	518	418	
13	0	0	0	0	519	419	
14	0	0	0	0	519	423	
15	0	0	0	0	520	418	
0	0	0	0	0	520	418	
1	0	0	0	0	521	418	
2	0	0	0	0	521	413	
3	0	0	0	0	521	418	
4	0	0	0	0	521	417	
5	0	0	0	0	522	418	
6	0	0	0	0	523	422	
7	0	0	0	0	523	417	
8	0	0	0	0	523	417	
9	0	0	0	0	523	417	
10	0	0	0	0	523	412	
11	0	0	0	0	523	417	
12	0	0	0	0	524	417	
13	0	0	0	0	524	417	
14	0	0	0	0	525	422	
15	0	0	0	0	525	417	
0	0	0	0	0	526	418	
1	0	0	0	0	527	417	
2	0	0	0	0	527	412	
3	0	0	0	0	528	417	
4	0	0	0	0	527	418	
5	0	0	0	0	526	417	
6	0	0	0	0	527	423	
7	0	0	0	0	528	418	
8	0	0	0	0	528	418	
9	0	0	0	0	529	417	
10	0	0	0	0	528	412	
11	0	0	0	0	527	418	
12	0	0	0	0	527	418	
13	0	0	0	0	526	418	
14	0	0	0	0	525	422	
15	0	0	0	0	524	417	
0	0	0	0	0	524	418	
1	0	0	0	0	523	417	
2	0	0	0	0	522	413	
3	0	0	0	0	521	418	
4	0	0	0	0	520	417	
5	0	0	0	0	519	418	
6	0	0	0	0	518	422	
7	0	0	0	0	518	418	
8	0	0	0	0	517	418	
9	0	0	0	0	516	418	
10	0	0	0	0	516	413	
11	0	0	0	0	515	418	
12	0	0	0	0	514	418	
13	0	0	0	0	513	419	
14	0	0	0	0	512	423	
15	0	0	0	0	511	419	
0	0	0	0	0	510	419	
1	0	0	0	0	509	417	
2	0	0	0	0	508	413	
3	0	0	0	0	507	418	
4	0	0	0	0	506	419	
5	0	0	0	0	506	419	
6	0	0	0	0	506	423	
7	0	0	0	0	505	418	
8	0	0	0	0	506	418	
9	0	0	0	0	505	419	
10	0	0	0	0	505	413	
11	0	0	0	0	504	418	
12	0	0	0	0	504	419	
13	0	0	0	0	504	418	
14	0	0	0	0	503	423	
15	0	0	0	0	502	418	
0	0	0	0	0	502	417	
1	0	0	0	0	502	417	
2	0	0	0	0	501	413	
3	0	0	0	0	499	418	
4	0	0	0	0	500	418	
5	0	0	0	0	499	418	
6	0	0	0	0	498	422	
7	0	0	0	0	499	419	
8	0	0	0	0	499	418	
9	0	0	0	0	499	418	
10	0	0	0	0	500	413	
11	0	0	0	0	500	417	
12	0	0	0	0	500	418	
13	0	0	0	0	500	418	
14	0	0	0	0	501	422	
15	0	0	0	0	501	417	
0	0	0	0	0	501	417	
1	0	0	0	0	501	417	
2	0	0	0	0	502	413	
3	0	0	0	0	502	417	
4	0	0	0	0	502	417	
5	0	0	0	0	502	418	
6	0	0	0	0	502	423	
7	0	0	0	0	503	418	
8	0	0	0	0	503	417	
9	0	0	0	0	503	417	
10	0	0	0	0	503	412	
11	0	0	0	0	503	417	
12	0	0	0	0	502	417	
13	0	0	0	0	502	418	
14	0	0	0	0	503	422	
15	0	0	0	0	504	418	
0	0	0	0	0	504	418	
1	0	0	0	0	504	417	
2	0	0	0	0	504	413	
3	0	0	0	0	504	418	
4	0	0	0	0	504	419	
5	0	0	0	0	504	419	
6	0	0	0	0	504	423	
7	0	0	0	0	506	418	
8	0	0	0	0	505	419	
9	0	0	0	0	505	419	
10	0	0	0	0	504	413	
11	0	0	0	0	505	419	
12	0	0	0	0	504	418	
13	0	0	0	0	504	418	
14	0	0	0	0	505	423	
15	0	0	0	0	506	419	
0	0	0	0	0	506	418	
1	0	0	0	0	506	418	
2	0	0	0	0	505	413	
3	0	0	0	0	506	419	
4	0	0	0	0	507	419	
5	0	0	0	0	506	419	
6	0	0	0	0	507	424	
7	0	0	0	0	507	419	
8	0	0	0	0	507	419	
9	0	0	0	0	507	419	
10	0	0	0	0	506	414	
11	0	0	0	0	506	419	
12	0	0	0	0	506	419	
13	0	0	0	0	506	419	
14	0	0	0	0	505	424	
15	0	0	0	0	505	419	
0	0	0	0	0	506	419	
1	0	0	0	0	506	418	
2	0	0	0	0	506	414	
3	0	0	0	0	506	419	
4	0	0	0	0	507	419	
5	0	0	0	0	508	419	
6	0	0	0	0	507	424	
7	0	0	0	0	507	418	
8	0	0	0	0	507	419	
9	0	0	0	0	508	418	
10	0	0	0	0	507	413	
11	0	0	0	0	508	419	
12	0	0	0	0	508	419	
13	0	0	0	0	507	419	
14	0	0	0	0	506	423	
15	0	0	0	0	507	418	
0	0	0	0	0	508	418	
1	0	0	0	0	508	417	
2	0	0	0	0	508	413	
3	0	0	0	0	508	419	
4	0	0	0	0	508	418	
5	0	0	0	0	508	418	
6	0	0	0	0	508	423	
7	0	0	0	0	509	418	
8	0	0	0	0	509	418	
9	0	0	0	0	510	418	
10	0	0	0	0	510	412	
11	0	0	0	0	511	418	
12	0	0	0	0	510	418	
13	0	0	0	0	509	418	
14	0	0	0	0	510	422	
15	0	0	0	0	511	417	
0	0	0	0	0	511	418	
1	0	0	0	0	510	417	
2	0	0	0	0	510	412	
3	0	0	0	0	510	418	
4	0	0	0	0	509	418	
5	0	0	0	0	508	417	
6	0	0	0	0	509	423	
7	0	0	0	0	510	418	
8	0	0	0	0	509	417	
9	0	0	0	0	509	417	
10	0	0	0	0	509	412	
11	0	0	0	0	509	418	
12	0	0	0	0	509	418	
13	0	0	0	0	509	417	
14	0	0	0	0	509	422	
15	0	0	0	0	510	418	
0	0	0	0	0	510	418	
1	0	0	0	0	510	418	
2	0	0	0	0	510	413	
3	0	0	0	0	510	418	
4	0	0	0	0	510	418	
5	0	0	0	0	509	418	
6	0	0	0	0	509	423	
7	0	0	0	0	510	418	
8	0	0	0	0	510	418	
9	0	0	0	0	510	418	
10	0	0	0	0	510	412	
11	0	0	0	0	510	418	
12	0	0	0	0	509	418	
13	0	0	0	0	509	419	
14	0	0	0	0	511	423	
15	0	0	0	0	511	418	
0	0	0	0	0	511	419	
1	0	0	0	0	512	418	
2	0	0	0	0	512	413	
3	0	0	0	0	512	419	
4	0	0	0	0	513	418	
5	0	0	0	0	513	418	
6	0	0	0	0	514	423	
7	0	0	0	0	515	419	
8	0	0	0	0	515	419	
9	0	0	0	0	516	418	
10	0	0	0	0	515	413	
11	0	0	0	0	515	418	
12	0	0	0	0	516	418	
13	0	0	0	0	516	418	
14	0	0	0	0	515	423	
15	0	0	0	0	515	419	
0	0	0	0	0	515	418	
1	0	0	0	0	515	418	
2	0	0	0	0	514	413	
3	0	0	0	0	515	419	
4	0	0	0	0	515	418	
5	0	0	0	0	515	417	
6	0	0	0	0	514	422	
7	0	0	0	0	515	418	
8	0	0	0	0	514	418	
9	0	0	0	0	514	417	
10	0	0	0	0	514	413	
11	0	0	0	0	514	418	
12	0	0	0	0	515	418	
13	0	0	0	0	515	419	
14	0	0	0	0	515	423	
15	0	0	0	0	515	419	
0	0	0	0	0	515	418	
1	0	0	0	0	515	418	
2	0	0	0	0	514	413	
3	0	0	0	0	515	418	
4	0	0	0	0	514	418	
5	0	0	0	0	514	418	
6	0	0	0	0	514	423	
7	0	0	0	0	513	419	
8	0	0	0	0	514	418	
9	0	0	0	0	514	418	
10	0	0	0	0	514	412	
11	0	0	0	0	514	418	
12	0	0	0	0	514	419	
13	0	0	0	0	515	419	
14	0	0	0	0	513	424	
15	0	0	0	0	514	419	
0	0	0	0	0	514	419	
1	0	0	0	0	513	419	
2	0	0	0	0	513	414	
3	0	0	0	0	513	419	
4	0	0	0	0	513	418	
5	0	0	0	0	513	419	
6	0	0	0	0	512	423	
7	0	0	0	0	512	418	
8	0	0	0	0	512	419	
9	0	0	0	0	512	418	
10	0	0	0	0	512	413	
11	0	0	0	0	512	419	
12	0	0	0	0	512	418	
13	0	0	0	0	513	419	
14	0	0	0	0	513	423	
15	0	0	0	0	514	418	
0	0	0	0	0	514	419	
1	0	0	0	0	514	418	
2	0	0	0	0	514	413	
3	0	0	0	0	514	418	
4	0	0	0	0	514	418	
5	0	0	0	0	514	418	
6	0	0	0	0	513	423	
7	0	0	0	0	513	419	
8	0	0	0	0	513	419	
9	0	0	0	0	513	418	
10	0	0	0	0	513	414	
11	0	0	0	0	513	419	
12	0	0	0	0	513	418	
13	0	0	0	0	512	419	
14	0	0	0	0	513	423	
15	0	0	0	0	514	419	
0	0	0	0	0	513	419	
1	0	0	0	0	513	419	
2	0	0	0	0	512	413	
3	0	0	0	0	512	418	
