# OpenSignals Text File Format
# {"98:D3:C1:FD:2F:E5":{"sensor":["RAW","RAW"],"device name":"98:D3:C1:FD:2F:E5","column":["nSeq","I1","I2","O1","O2","A2","A5"],"sync interval":2,"time":"17:02:19","comments":"","device connection":"BTH98:D3:C1:FD:2F:E5","channels":[2,5],"date":"2021-09-26","mode":0,"digital IO":[0,0,1,1],"firmware version":0,"device":"bitalino_rev","position":0,"sampling rate":1000,"label":["A2","A5"],"resolution":[10,10],"special":[{},{}]}}
# EndOfHeader
0	0	0	0	0	454	615
1	0	0	0	0	456	617
2	0	0	0	0	459	615
3	0	0	0	0	461	615
4	0	0	0	0	463	615
5	0	0	0	0	465	614
6	0	0	0	0	466	615
7	0	0	0	0	466	615
8	0	0	0	0	465	616
9	0	0	0	0	463	619
10	0	0	0	0	460	616
11	0	0	0	0	457	616
12	0	0	0	0	455	616
13	0	0	0	0	454	615
14	0	0	0	0	454	616
15	0	0	0	0	455	616
0	0	0	0	0	456	616
1	0	0	0	0	459	619
2	0	0	0	0	461	616
3	0	0	0	0	463	615
4	0	0	0	0	467	616
5	0	0	0	0	470	615
6	0	0	0	0	473	617
7	0	0	0	0	476	616
8	0	0	0	0	477	617
9	0	0	0	0	479	619
10	0	0	0	0	480	617
11	0	0	0	0	480	617
12	0	0	0	0	480	616
13	0	0	0	0	478	615
14	0	0	0	0	476	616
15	0	0	0	0	475	616
0	0	0	0	0	474	616
1	0	0	0	0	473	618
2	0	0	0	0	474	615
3	0	0	0	0	476	617
4	0	0	0	0	476	617
5	0	0	0	0	478	615
6	0	0	0	0	480	617
7	0	0	0	0	482	617
8	0	0	0	0	485	617
9	0	0	0	0	488	619
10	0	0	0	0	492	616
11	0	0	0	0	495	616
12	0	0	0	0	497	615
13	0	0	0	0	499	614
14	0	0	0	0	501	615
15	0	0	0	0	501	615
0	0	0	0	0	500	615
1	0	0	0	0	499	617
2	0	0	0	0	499	615
3	0	0	0	0	498	615
4	0	0	0	0	497	615
5	0	0	0	0	497	613
6	0	0	0	0	497	615
7	0	0	0	0	498	615
8	0	0	0	0	499	615
9	0	0	0	0	501	617
10	0	0	0	0	503	615
11	0	0	0	0	506	615
12	0	0	0	0	509	615
13	0	0	0	0	511	614
14	0	0	0	0	515	615
15	0	0	0	0	518	616
0	0	0	0	0	519	616
1	0	0	0	0	520	619
2	0	0	0	0	521	616
3	0	0	0	0	520	617
4	0	0	0	0	519	616
5	0	0	0	0	518	614
6	0	0	0	0	516	616
7	0	0	0	0	515	616
8	0	0	0	0	513	616
9	0	0	0	0	513	618
10	0	0	0	0	513	615
11	0	0	0	0	513	615
12	0	0	0	0	514	616
13	0	0	0	0	516	614
14	0	0	0	0	519	616
15	0	0	0	0	520	616
0	0	0	0	0	522	616
1	0	0	0	0	525	619
2	0	0	0	0	527	617
3	0	0	0	0	530	617
4	0	0	0	0	531	616
5	0	0	0	0	533	615
6	0	0	0	0	534	617
7	0	0	0	0	534	617
8	0	0	0	0	532	616
9	0	0	0	0	528	619
10	0	0	0	0	526	616
11	0	0	0	0	523	616
12	0	0	0	0	521	616
13	0	0	0	0	520	615
14	0	0	0	0	519	616
15	0	0	0	0	519	616
0	0	0	0	0	519	615
1	0	0	0	0	519	618
2	0	0	0	0	521	616
3	0	0	0	0	524	615
4	0	0	0	0	527	616
5	0	0	0	0	530	614
6	0	0	0	0	532	615
7	0	0	0	0	534	615
8	0	0	0	0	535	615
9	0	0	0	0	535	617
10	0	0	0	0	533	615
11	0	0	0	0	532	615
12	0	0	0	0	529	615
13	0	0	0	0	527	614
14	0	0	0	0	524	616
15	0	0	0	0	522	616
0	0	0	0	0	521	615
1	0	0	0	0	519	618
2	0	0	0	0	519	616
3	0	0	0	0	519	616
4	0	0	0	0	520	615
5	0	0	0	0	521	614
6	0	0	0	0	523	616
7	0	0	0	0	524	615
8	0	0	0	0	526	615
9	0	0	0	0	527	618
10	0	0	0	0	529	616
11	0	0	0	0	531	616
12	0	0	0	0	532	615
13	0	0	0	0	533	615
14	0	0	0	0	532	615
15	0	0	0	0	531	615
0	0	0	0	0	529	615
1	0	0	0	0	526	616
2	0	0	0	0	524	614
3	0	0	0	0	523	614
4	0	0	0	0	521	615
5	0	0	0	0	519	614
6	0	0	0	0	518	617
7	0	0	0	0	518	619
8	0	0	0	0	518	620
9	0	0	0	0	519	623
10	0	0	0	0	519	622
11	0	0	0	0	521	621
12	0	0	0	0	523	620
13	0	0	0	0	525	616
14	0	0	0	0	526	616
15	0	0	0	0	527	614
0	0	0	0	0	527	612
1	0	0	0	0	527	614
2	0	0	0	0	526	611
3	0	0	0	0	525	610
4	0	0	0	0	523	611
5	0	0	0	0	519	610
6	0	0	0	0	517	614
7	0	0	0	0	515	617
8	0	0	0	0	513	620
9	0	0	0	0	512	626
10	0	0	0	0	512	625
11	0	0	0	0	512	626
12	0	0	0	0	513	625
13	0	0	0	0	515	623
14	0	0	0	0	516	622
15	0	0	0	0	517	619
0	0	0	0	0	518	616
1	0	0	0	0	519	616
2	0	0	0	0	520	612
3	0	0	0	0	522	611
4	0	0	0	0	522	611
5	0	0	0	0	522	609
6	0	0	0	0	521	611
7	0	0	0	0	521	612
8	0	0	0	0	520	613
9	0	0	0	0	519	617
10	0	0	0	0	518	617
11	0	0	0	0	516	617
12	0	0	0	0	515	618
13	0	0	0	0	514	616
14	0	0	0	0	514	616
15	0	0	0	0	515	615
0	0	0	0	0	515	613
1	0	0	0	0	516	615
2	0	0	0	0	518	613
3	0	0	0	0	520	612
4	0	0	0	0	522	614
5	0	0	0	0	524	612
6	0	0	0	0	525	615
7	0	0	0	0	527	615
8	0	0	0	0	527	616
9	0	0	0	0	527	620
10	0	0	0	0	527	617
11	0	0	0	0	526	617
12	0	0	0	0	524	616
13	0	0	0	0	521	614
14	0	0	0	0	519	615
15	0	0	0	0	517	615
0	0	0	0	0	515	614
1	0	0	0	0	515	616
2	0	0	0	0	515	614
3	0	0	0	0	516	615
4	0	0	0	0	516	615
5	0	0	0	0	516	615
6	0	0	0	0	517	617
7	0	0	0	0	518	617
8	0	0	0	0	520	618
9	0	0	0	0	521	620
10	0	0	0	0	524	619
11	0	0	0	0	525	618
12	0	0	0	0	525	618
13	0	0	0	0	524	615
14	0	0	0	0	523	616
15	0	0	0	0	522	616
0	0	0	0	0	520	615
1	0	0	0	0	519	617
2	0	0	0	0	517	615
3	0	0	0	0	516	615
4	0	0	0	0	515	615
5	0	0	0	0	514	614
6	0	0	0	0	514	615
7	0	0	0	0	514	616
8	0	0	0	0	515	616
9	0	0	0	0	515	619
10	0	0	0	0	517	616
11	0	0	0	0	519	616
12	0	0	0	0	521	616
13	0	0	0	0	524	614
14	0	0	0	0	525	615
15	0	0	0	0	527	615
0	0	0	0	0	528	615
1	0	0	0	0	527	618
2	0	0	0	0	526	617
3	0	0	0	0	526	616
4	0	0	0	0	524	617
5	0	0	0	0	522	615
6	0	0	0	0	519	617
7	0	0	0	0	518	617
8	0	0	0	0	516	616
9	0	0	0	0	515	619
10	0	0	0	0	515	616
11	0	0	0	0	515	615
12	0	0	0	0	515	615
13	0	0	0	0	517	613
14	0	0	0	0	518	615
15	0	0	0	0	520	614
0	0	0	0	0	522	615
1	0	0	0	0	525	617
2	0	0	0	0	527	615
3	0	0	0	0	528	615
4	0	0	0	0	529	615
5	0	0	0	0	529	614
6	0	0	0	0	529	616
7	0	0	0	0	527	616
8	0	0	0	0	525	616
9	0	0	0	0	523	617
10	0	0	0	0	522	616
11	0	0	0	0	520	615
12	0	0	0	0	518	615
13	0	0	0	0	516	614
14	0	0	0	0	515	615
15	0	0	0	0	515	616
0	0	0	0	0	515	616
1	0	0	0	0	516	618
2	0	0	0	0	517	616
3	0	0	0	0	519	617
4	0	0	0	0	521	617
5	0	0	0	0	524	615
6	0	0	0	0	526	617
7	0	0	0	0	527	617
8	0	0	0	0	528	616
9	0	0	0	0	529	619
10	0	0	0	0	528	617
11	0	0	0	0	527	616
12	0	0	0	0	524	615
13	0	0	0	0	522	614
14	0	0	0	0	520	616
15	0	0	0	0	518	616
0	0	0	0	0	516	616
1	0	0	0	0	516	618
2	0	0	0	0	516	616
3	0	0	0	0	516	617
4	0	0	0	0	517	617
5	0	0	0	0	518	616
6	0	0	0	0	519	616
7	0	0	0	0	520	616
8	0	0	0	0	523	616
9	0	0	0	0	525	619
10	0	0	0	0	526	615
11	0	0	0	0	526	615
12	0	0	0	0	526	615
13	0	0	0	0	525	613
14	0	0	0	0	524	615
15	0	0	0	0	523	615
0	0	0	0	0	521	615
1	0	0	0	0	520	617
2	0	0	0	0	518	615
3	0	0	0	0	517	615
4	0	0	0	0	516	615
5	0	0	0	0	515	614
6	0	0	0	0	515	615
7	0	0	0	0	516	615
8	0	0	0	0	515	615
9	0	0	0	0	517	617
10	0	0	0	0	519	615
11	0	0	0	0	520	615
12	0	0	0	0	521	615
13	0	0	0	0	523	614
14	0	0	0	0	524	616
15	0	0	0	0	525	616
0	0	0	0	0	525	616
1	0	0	0	0	526	619
2	0	0	0	0	525	616
3	0	0	0	0	523	616
4	0	0	0	0	521	617
5	0	0	0	0	519	615
6	0	0	0	0	517	617
7	0	0	0	0	515	616
8	0	0	0	0	513	616
9	0	0	0	0	513	618
10	0	0	0	0	512	617
11	0	0	0	0	514	617
12	0	0	0	0	515	617
13	0	0	0	0	515	615
14	0	0	0	0	516	617
15	0	0	0	0	517	617
0	0	0	0	0	518	617
1	0	0	0	0	519	619
2	0	0	0	0	520	617
3	0	0	0	0	522	617
4	0	0	0	0	522	616
5	0	0	0	0	523	615
6	0	0	0	0	523	615
7	0	0	0	0	521	616
8	0	0	0	0	519	616
9	0	0	0	0	517	618
10	0	0	0	0	515	616
11	0	0	0	0	513	615
12	0	0	0	0	511	616
13	0	0	0	0	511	614
14	0	0	0	0	511	615
15	0	0	0	0	511	616
0	0	0	0	0	513	616
1	0	0	0	0	515	618
2	0	0	0	0	517	615
3	0	0	0	0	519	615
4	0	0	0	0	520	615
5	0	0	0	0	521	614
6	0	0	0	0	523	616
7	0	0	0	0	524	616
8	0	0	0	0	523	615
9	0	0	0	0	524	618
10	0	0	0	0	521	616
11	0	0	0	0	518	616
12	0	0	0	0	515	615
13	0	0	0	0	512	614
14	0	0	0	0	509	615
15	0	0	0	0	507	616
0	0	0	0	0	505	615
1	0	0	0	0	504	618
2	0	0	0	0	503	616
3	0	0	0	0	504	616
4	0	0	0	0	504	616
5	0	0	0	0	507	615
6	0	0	0	0	508	616
7	0	0	0	0	510	616
8	0	0	0	0	512	616
9	0	0	0	0	515	619
10	0	0	0	0	516	616
11	0	0	0	0	518	617
12	0	0	0	0	519	616
13	0	0	0	0	519	615
14	0	0	0	0	520	616
15	0	0	0	0	519	616
0	0	0	0	0	517	616
1	0	0	0	0	514	618
2	0	0	0	0	512	617
3	0	0	0	0	510	617
4	0	0	0	0	508	617
5	0	0	0	0	507	616
6	0	0	0	0	506	617
7	0	0	0	0	507	617
8	0	0	0	0	508	616
9	0	0	0	0	509	618
10	0	0	0	0	510	616
11	0	0	0	0	511	616
12	0	0	0	0	512	616
13	0	0	0	0	514	614
14	0	0	0	0	516	616
15	0	0	0	0	518	616
0	0	0	0	0	518	615
1	0	0	0	0	518	618
2	0	0	0	0	518	615
3	0	0	0	0	516	616
4	0	0	0	0	513	616
5	0	0	0	0	511	615
6	0	0	0	0	508	616
7	0	0	0	0	505	616
8	0	0	0	0	503	616
9	0	0	0	0	501	618
10	0	0	0	0	500	615
11	0	0	0	0	500	616
12	0	0	0	0	501	615
13	0	0	0	0	503	614
14	0	0	0	0	504	615
15	0	0	0	0	507	615
0	0	0	0	0	510	615
1	0	0	0	0	512	618
2	0	0	0	0	513	616
3	0	0	0	0	514	616
4	0	0	0	0	514	615
5	0	0	0	0	513	614
6	0	0	0	0	512	616
7	0	0	0	0	510	615
8	0	0	0	0	508	616
9	0	0	0	0	505	618
10	0	0	0	0	504	616
11	0	0	0	0	502	616
12	0	0	0	0	500	616
13	0	0	0	0	501	615
14	0	0	0	0	501	616
15	0	0	0	0	503	617
0	0	0	0	0	504	616
1	0	0	0	0	507	619
2	0	0	0	0	510	617
3	0	0	0	0	512	617
4	0	0	0	0	516	617
5	0	0	0	0	518	615
6	0	0	0	0	520	617
7	0	0	0	0	522	616
8	0	0	0	0	523	616
9	0	0	0	0	523	619
10	0	0	0	0	522	616
11	0	0	0	0	519	616
12	0	0	0	0	518	615
13	0	0	0	0	515	614
14	0	0	0	0	512	615
15	0	0	0	0	510	615
0	0	0	0	0	509	615
1	0	0	0	0	508	618
2	0	0	0	0	509	615
3	0	0	0	0	510	616
4	0	0	0	0	511	616
5	0	0	0	0	512	615
6	0	0	0	0	512	615
7	0	0	0	0	513	616
8	0	0	0	0	515	616
9	0	0	0	0	517	618
10	0	0	0	0	519	615
11	0	0	0	0	520	615
12	0	0	0	0	522	615
13	0	0	0	0	522	614
14	0	0	0	0	521	615
15	0	0	0	0	520	615
0	0	0	0	0	519	615
1	0	0	0	0	515	617
2	0	0	0	0	513	615
3	0	0	0	0	511	615
4	0	0	0	0	510	615
5	0	0	0	0	509	614
6	0	0	0	0	509	615
7	0	0	0	0	510	615
8	0	0	0	0	510	615
9	0	0	0	0	511	617
10	0	0	0	0	512	615
11	0	0	0	0	513	615
12	0	0	0	0	515	615
13	0	0	0	0	517	614
14	0	0	0	0	519	615
15	0	0	0	0	519	614
0	0	0	0	0	519	615
1	0	0	0	0	519	617
2	0	0	0	0	518	616
3	0	0	0	0	515	616
4	0	0	0	0	513	617
5	0	0	0	0	510	616
6	0	0	0	0	508	616
7	0	0	0	0	506	617
8	0	0	0	0	504	616
9	0	0	0	0	504	619
10	0	0	0	0	504	616
11	0	0	0	0	505	616
12	0	0	0	0	505	617
13	0	0	0	0	507	615
14	0	0	0	0	508	617
15	0	0	0	0	510	617
0	0	0	0	0	512	617
1	0	0	0	0	514	619
2	0	0	0	0	515	617
3	0	0	0	0	518	617
4	0	0	0	0	518	617
5	0	0	0	0	519	616
6	0	0	0	0	518	617
7	0	0	0	0	516	617
8	0	0	0	0	515	617
9	0	0	0	0	512	618
10	0	0	0	0	511	616
11	0	0	0	0	508	616
12	0	0	0	0	506	616
13	0	0	0	0	505	614
14	0	0	0	0	504	615
15	0	0	0	0	504	615
0	0	0	0	0	505	615
1	0	0	0	0	506	617
2	0	0	0	0	507	615
3	0	0	0	0	508	615
4	0	0	0	0	510	615
5	0	0	0	0	512	614
6	0	0	0	0	513	615
7	0	0	0	0	515	616
8	0	0	0	0	515	616
9	0	0	0	0	513	619
10	0	0	0	0	512	616
11	0	0	0	0	510	616
12	0	0	0	0	506	616
13	0	0	0	0	502	614
14	0	0	0	0	496	616
15	0	0	0	0	487	616
0	0	0	0	0	478	616
1	0	0	0	0	467	618
2	0	0	0	0	456	616
3	0	0	0	0	445	616
4	0	0	0	0	433	616
5	0	0	0	0	424	615
6	0	0	0	0	417	615
7	0	0	0	0	409	615
8	0	0	0	0	404	616
9	0	0	0	0	400	618
10	0	0	0	0	399	616
11	0	0	0	0	399	616
12	0	0	0	0	401	616
13	0	0	0	0	403	615
14	0	0	0	0	407	616
15	0	0	0	0	412	616
0	0	0	0	0	418	616
1	0	0	0	0	424	618
2	0	0	0	0	428	616
3	0	0	0	0	433	616
4	0	0	0	0	439	615
5	0	0	0	0	446	615
6	0	0	0	0	457	615
7	0	0	0	0	475	615
8	0	0	0	0	499	615
9	0	0	0	0	526	618
10	0	0	0	0	558	615
11	0	0	0	0	599	616
12	0	0	0	0	648	616
13	0	0	0	0	699	615
14	0	0	0	0	754	616
15	0	0	0	0	809	616
0	0	0	0	0	860	616
1	0	0	0	0	908	619
2	0	0	0	0	948	616
3	0	0	0	0	981	617
4	0	0	0	0	1006	616
5	0	0	0	0	1020	614
6	0	0	0	0	1022	616
7	0	0	0	0	1022	616
8	0	0	0	0	1022	616
9	0	0	0	0	1022	618
10	0	0	0	0	1015	616
11	0	0	0	0	999	616
12	0	0	0	0	979	615
13	0	0	0	0	956	614
14	0	0	0	0	929	615
15	0	0	0	0	898	615
0	0	0	0	0	864	616
1	0	0	0	0	828	619
2	0	0	0	0	795	616
3	0	0	0	0	764	616
4	0	0	0	0	736	616
5	0	0	0	0	711	614
6	0	0	0	0	686	616
7	0	0	0	0	662	616
8	0	0	0	0	641	615
9	0	0	0	0	622	618
10	0	0	0	0	605	616
11	0	0	0	0	591	615
12	0	0	0	0	577	616
13	0	0	0	0	563	614
14	0	0	0	0	550	615
15	0	0	0	0	537	616
0	0	0	0	0	524	615
1	0	0	0	0	512	619
2	0	0	0	0	500	616
3	0	0	0	0	488	615
4	0	0	0	0	478	616
5	0	0	0	0	468	615
6	0	0	0	0	460	616
7	0	0	0	0	453	616
8	0	0	0	0	446	616
9	0	0	0	0	439	618
10	0	0	0	0	432	616
11	0	0	0	0	424	616
12	0	0	0	0	417	616
13	0	0	0	0	410	614
14	0	0	0	0	404	616
15	0	0	0	0	399	615
0	0	0	0	0	394	616
1	0	0	0	0	390	619
2	0	0	0	0	387	615
3	0	0	0	0	385	615
4	0	0	0	0	385	616
5	0	0	0	0	386	614
6	0	0	0	0	386	616
7	0	0	0	0	388	616
8	0	0	0	0	390	616
9	0	0	0	0	390	618
10	0	0	0	0	391	615
11	0	0	0	0	391	615
12	0	0	0	0	390	615
13	0	0	0	0	390	614
14	0	0	0	0	392	615
15	0	0	0	0	391	615
0	0	0	0	0	388	616
1	0	0	0	0	386	618
2	0	0	0	0	383	616
3	0	0	0	0	382	616
4	0	0	0	0	382	615
5	0	0	0	0	383	614
6	0	0	0	0	384	615
7	0	0	0	0	387	616
8	0	0	0	0	389	615
9	0	0	0	0	391	618
10	0	0	0	0	394	616
11	0	0	0	0	396	616
12	0	0	0	0	398	616
13	0	0	0	0	401	615
14	0	0	0	0	405	616
15	0	0	0	0	408	616
0	0	0	0	0	409	616
1	0	0	0	0	410	619
2	0	0	0	0	410	616
3	0	0	0	0	408	616
4	0	0	0	0	407	616
5	0	0	0	0	406	615
6	0	0	0	0	405	617
7	0	0	0	0	404	616
8	0	0	0	0	403	616
9	0	0	0	0	403	619
10	0	0	0	0	404	616
11	0	0	0	0	406	616
12	0	0	0	0	407	616
13	0	0	0	0	409	614
14	0	0	0	0	413	616
15	0	0	0	0	416	615
0	0	0	0	0	418	615
1	0	0	0	0	421	618
2	0	0	0	0	423	615
3	0	0	0	0	425	615
4	0	0	0	0	427	615
5	0	0	0	0	427	613
6	0	0	0	0	427	615
7	0	0	0	0	427	615
8	0	0	0	0	425	615
9	0	0	0	0	424	619
10	0	0	0	0	422	617
11	0	0	0	0	422	616
12	0	0	0	0	422	617
13	0	0	0	0	422	615
14	0	0	0	0	422	617
15	0	0	0	0	423	616
0	0	0	0	0	424	616
1	0	0	0	0	427	618
2	0	0	0	0	429	615
3	0	0	0	0	431	615
4	0	0	0	0	432	616
5	0	0	0	0	434	614
6	0	0	0	0	436	615
7	0	0	0	0	440	616
8	0	0	0	0	442	616
9	0	0	0	0	443	618
10	0	0	0	0	445	616
11	0	0	0	0	446	616
12	0	0	0	0	445	616
13	0	0	0	0	441	615
14	0	0	0	0	439	616
15	0	0	0	0	438	616
0	0	0	0	0	435	617
1	0	0	0	0	434	619
2	0	0	0	0	432	616
3	0	0	0	0	434	616
4	0	0	0	0	437	617
5	0	0	0	0	440	615
6	0	0	0	0	443	616
7	0	0	0	0	445	615
8	0	0	0	0	447	616
9	0	0	0	0	448	618
10	0	0	0	0	451	615
11	0	0	0	0	452	615
12	0	0	0	0	450	616
13	0	0	0	0	451	614
14	0	0	0	0	451	616
15	0	0	0	0	450	615
0	0	0	0	0	449	616
1	0	0	0	0	447	618
2	0	0	0	0	446	615
3	0	0	0	0	445	615
4	0	0	0	0	444	615
5	0	0	0	0	443	615
6	0	0	0	0	442	616
7	0	0	0	0	443	615
8	0	0	0	0	444	617
9	0	0	0	0	446	619
10	0	0	0	0	447	617
11	0	0	0	0	448	616
12	0	0	0	0	451	616
13	0	0	0	0	454	614
14	0	0	0	0	456	616
15	0	0	0	0	458	616
0	0	0	0	0	459	616
1	0	0	0	0	460	618
2	0	0	0	0	459	616
3	0	0	0	0	458	615
4	0	0	0	0	457	616
5	0	0	0	0	455	614
6	0	0	0	0	455	616
7	0	0	0	0	452	616
8	0	0	0	0	451	616
9	0	0	0	0	451	619
10	0	0	0	0	453	616
11	0	0	0	0	454	616
12	0	0	0	0	455	615
13	0	0	0	0	455	614
14	0	0	0	0	456	616
15	0	0	0	0	457	615
0	0	0	0	0	460	615
1	0	0	0	0	462	618
2	0	0	0	0	464	615
3	0	0	0	0	465	616
4	0	0	0	0	466	615
5	0	0	0	0	466	614
6	0	0	0	0	466	616
7	0	0	0	0	465	616
8	0	0	0	0	463	616
9	0	0	0	0	462	618
10	0	0	0	0	461	616
11	0	0	0	0	460	616
12	0	0	0	0	459	616
13	0	0	0	0	458	614
14	0	0	0	0	459	615
15	0	0	0	0	460	615
0	0	0	0	0	462	615
1	0	0	0	0	464	617
2	0	0	0	0	467	616
3	0	0	0	0	471	616
4	0	0	0	0	474	615
5	0	0	0	0	476	614
6	0	0	0	0	479	616
7	0	0	0	0	480	615
8	0	0	0	0	482	615
9	0	0	0	0	483	618
10	0	0	0	0	483	615
11	0	0	0	0	483	615
12	0	0	0	0	481	612
13	0	0	0	0	480	609
14	0	0	0	0	479	611
15	0	0	0	0	478	613
0	0	0	0	0	479	615
1	0	0	0	0	480	618
2	0	0	0	0	481	616
3	0	0	0	0	483	615
4	0	0	0	0	486	615
5	0	0	0	0	488	613
6	0	0	0	0	491	615
7	0	0	0	0	494	615
8	0	0	0	0	496	616
9	0	0	0	0	499	618
10	0	0	0	0	502	616
11	0	0	0	0	504	617
12	0	0	0	0	505	618
13	0	0	0	0	505	618
14	0	0	0	0	505	619
15	0	0	0	0	504	618
0	0	0	0	0	503	619
1	0	0	0	0	501	621
2	0	0	0	0	500	620
3	0	0	0	0	499	619
4	0	0	0	0	499	619
5	0	0	0	0	500	617
6	0	0	0	0	502	619
7	0	0	0	0	503	619
8	0	0	0	0	505	618
9	0	0	0	0	507	620
10	0	0	0	0	510	616
11	0	0	0	0	512	615
12	0	0	0	0	515	616
13	0	0	0	0	518	615
14	0	0	0	0	520	616
15	0	0	0	0	522	615
0	0	0	0	0	523	615
1	0	0	0	0	524	616
2	0	0	0	0	524	615
3	0	0	0	0	523	614
4	0	0	0	0	521	614
5	0	0	0	0	519	613
6	0	0	0	0	518	615
7	0	0	0	0	517	615
8	0	0	0	0	516	615
9	0	0	0	0	515	617
10	0	0	0	0	516	615
11	0	0	0	0	517	615
12	0	0	0	0	518	615
13	0	0	0	0	519	615
14	0	0	0	0	521	616
15	0	0	0	0	524	617
0	0	0	0	0	526	617
1	0	0	0	0	529	619
2	0	0	0	0	531	617
3	0	0	0	0	532	618
4	0	0	0	0	532	617
5	0	0	0	0	532	616
6	0	0	0	0	531	617
7	0	0	0	0	529	617
8	0	0	0	0	527	617
9	0	0	0	0	526	619
10	0	0	0	0	525	617
11	0	0	0	0	523	617
12	0	0	0	0	522	617
13	0	0	0	0	521	615
14	0	0	0	0	521	616
15	0	0	0	0	522	617
0	0	0	0	0	523	616
1	0	0	0	0	525	619
2	0	0	0	0	527	615
3	0	0	0	0	529	615
4	0	0	0	0	531	615
5	0	0	0	0	533	614
6	0	0	0	0	536	615
7	0	0	0	0	538	615
8	0	0	0	0	539	615
9	0	0	0	0	539	618
10	0	0	0	0	537	615
11	0	0	0	0	535	616
12	0	0	0	0	531	615
13	0	0	0	0	527	615
14	0	0	0	0	525	616
15	0	0	0	0	522	616
0	0	0	0	0	520	616
1	0	0	0	0	519	619
2	0	0	0	0	517	616
3	0	0	0	0	517	617
4	0	0	0	0	519	615
5	0	0	0	0	521	614
6	0	0	0	0	524	616
7	0	0	0	0	528	616
8	0	0	0	0	531	616
9	0	0	0	0	535	619
10	0	0	0	0	537	617
11	0	0	0	0	538	617
12	0	0	0	0	537	616
13	0	0	0	0	538	615
14	0	0	0	0	539	615
15	0	0	0	0	537	615
0	0	0	0	0	535	614
1	0	0	0	0	531	617
2	0	0	0	0	528	615
3	0	0	0	0	525	615
4	0	0	0	0	524	616
5	0	0	0	0	522	615
6	0	0	0	0	521	617
7	0	0	0	0	521	617
8	0	0	0	0	522	617
9	0	0	0	0	523	620
10	0	0	0	0	524	617
11	0	0	0	0	524	616
12	0	0	0	0	526	615
13	0	0	0	0	529	613
14	0	0	0	0	531	615
15	0	0	0	0	534	614
0	0	0	0	0	535	614
1	0	0	0	0	535	616
2	0	0	0	0	531	614
3	0	0	0	0	527	615
4	0	0	0	0	524	616
5	0	0	0	0	520	615
6	0	0	0	0	517	618
7	0	0	0	0	516	618
8	0	0	0	0	515	618
9	0	0	0	0	517	620
10	0	0	0	0	518	617
11	0	0	0	0	519	615
12	0	0	0	0	520	615
13	0	0	0	0	521	614
14	0	0	0	0	523	615
15	0	0	0	0	526	615
0	0	0	0	0	528	615
1	0	0	0	0	529	618
2	0	0	0	0	531	616
3	0	0	0	0	530	616
4	0	0	0	0	529	616
5	0	0	0	0	527	615
6	0	0	0	0	524	617
7	0	0	0	0	520	616
8	0	0	0	0	518	616
9	0	0	0	0	515	619
10	0	0	0	0	513	616
11	0	0	0	0	512	615
12	0	0	0	0	512	615
13	0	0	0	0	512	613
14	0	0	0	0	512	615
15	0	0	0	0	513	615
0	0	0	0	0	515	615
1	0	0	0	0	516	617
2	0	0	0	0	519	615
3	0	0	0	0	522	615
4	0	0	0	0	526	616
5	0	0	0	0	528	615
6	0	0	0	0	531	616
7	0	0	0	0	532	616
8	0	0	0	0	532	616
9	0	0	0	0	532	619
10	0	0	0	0	531	616
11	0	0	0	0	529	616
12	0	0	0	0	526	616
13	0	0	0	0	522	614
14	0	0	0	0	520	616
15	0	0	0	0	519	615
0	0	0	0	0	518	615
1	0	0	0	0	519	618
2	0	0	0	0	520	615
3	0	0	0	0	520	616
4	0	0	0	0	521	616
5	0	0	0	0	522	615
6	0	0	0	0	523	616
7	0	0	0	0	523	616
8	0	0	0	0	523	616
9	0	0	0	0	524	619
10	0	0	0	0	525	616
11	0	0	0	0	524	616
12	0	0	0	0	525	616
13	0	0	0	0	525	615
14	0	0	0	0	526	616
15	0	0	0	0	525	615
0	0	0	0	0	523	615
1	0	0	0	0	523	618
2	0	0	0	0	522	616
3	0	0	0	0	521	616
4	0	0	0	0	521	617
5	0	0	0	0	521	615
6	0	0	0	0	521	616
7	0	0	0	0	521	616
8	0	0	0	0	522	616
9	0	0	0	0	524	619
10	0	0	0	0	525	617
11	0	0	0	0	527	617
12	0	0	0	0	528	617
13	0	0	0	0	531	615
14	0	0	0	0	533	616
15	0	0	0	0	534	616
0	0	0	0	0	534	615
1	0	0	0	0	533	616
2	0	0	0	0	531	613
3	0	0	0	0	528	614
4	0	0	0	0	525	614
5	0	0	0	0	523	612
6	0	0	0	0	521	615
7	0	0	0	0	519	615
8	0	0	0	0	517	616
9	0	0	0	0	516	619
10	0	0	0	0	517	617
11	0	0	0	0	517	618
12	0	0	0	0	518	618
13	0	0	0	0	520	617
14	0	0	0	0	523	618
15	0	0	0	0	526	617
0	0	0	0	0	529	617
1	0	0	0	0	533	619
2	0	0	0	0	535	616
3	0	0	0	0	536	616
4	0	0	0	0	535	615
5	0	0	0	0	534	614
6	0	0	0	0	531	615
7	0	0	0	0	527	615
8	0	0	0	0	524	615
9	0	0	0	0	519	618
10	0	0	0	0	517	616
11	0	0	0	0	515	617
12	0	0	0	0	513	617
13	0	0	0	0	513	615
14	0	0	0	0	513	617
15	0	0	0	0	514	617
0	0	0	0	0	515	616
1	0	0	0	0	517	618
2	0	0	0	0	519	616
3	0	0	0	0	520	615
4	0	0	0	0	522	615
5	0	0	0	0	524	614
6	0	0	0	0	526	615
7	0	0	0	0	527	616
8	0	0	0	0	527	615
9	0	0	0	0	525	618
10	0	0	0	0	523	616
11	0	0	0	0	521	616
12	0	0	0	0	519	616
13	0	0	0	0	515	614
14	0	0	0	0	515	615
15	0	0	0	0	515	615
0	0	0	0	0	515	615
1	0	0	0	0	515	617
2	0	0	0	0	516	615
3	0	0	0	0	516	615
4	0	0	0	0	518	615
5	0	0	0	0	519	614
6	0	0	0	0	521	616
7	0	0	0	0	523	616
8	0	0	0	0	525	617
9	0	0	0	0	526	619
10	0	0	0	0	527	617
11	0	0	0	0	526	616
12	0	0	0	0	526	617
13	0	0	0	0	525	615
14	0	0	0	0	524	616
15	0	0	0	0	522	617
0	0	0	0	0	519	617
1	0	0	0	0	517	618
2	0	0	0	0	514	616
3	0	0	0	0	513	616
4	0	0	0	0	512	616
5	0	0	0	0	512	614
6	0	0	0	0	513	616
7	0	0	0	0	513	616
8	0	0	0	0	514	616
9	0	0	0	0	516	619
10	0	0	0	0	518	615
11	0	0	0	0	519	616
12	0	0	0	0	521	616
13	0	0	0	0	524	614
14	0	0	0	0	526	616
15	0	0	0	0	526	616
0	0	0	0	0	524	615
1	0	0	0	0	523	618
2	0	0	0	0	520	615
3	0	0	0	0	517	616
4	0	0	0	0	513	617
5	0	0	0	0	509	615
6	0	0	0	0	505	617
7	0	0	0	0	502	616
8	0	0	0	0	501	616
9	0	0	0	0	501	618
10	0	0	0	0	502	615
11	0	0	0	0	505	615
12	0	0	0	0	508	615
13	0	0	0	0	512	615
14	0	0	0	0	515	617
15	0	0	0	0	519	616
0	0	0	0	0	523	616
1	0	0	0	0	527	618
2	0	0	0	0	529	616
3	0	0	0	0	530	616
4	0	0	0	0	528	615
5	0	0	0	0	527	614
6	0	0	0	0	525	615
7	0	0	0	0	522	616
8	0	0	0	0	518	615
9	0	0	0	0	514	618
10	0	0	0	0	512	616
11	0	0	0	0	510	616
12	0	0	0	0	508	615
13	0	0	0	0	507	615
14	0	0	0	0	507	617
15	0	0	0	0	509	617
0	0	0	0	0	511	616
1	0	0	0	0	513	619
2	0	0	0	0	516	616
3	0	0	0	0	519	616
4	0	0	0	0	522	615
5	0	0	0	0	524	615
6	0	0	0	0	524	615
7	0	0	0	0	524	616
8	0	0	0	0	523	616
9	0	0	0	0	523	620
10	0	0	0	0	520	616
11	0	0	0	0	517	617
12	0	0	0	0	514	616
13	0	0	0	0	510	614
14	0	0	0	0	508	615
15	0	0	0	0	507	615
0	0	0	0	0	506	615
1	0	0	0	0	506	618
2	0	0	0	0	508	616
3	0	0	0	0	508	617
4	0	0	0	0	510	617
5	0	0	0	0	512	614
6	0	0	0	0	512	616
7	0	0	0	0	515	615
8	0	0	0	0	517	616
9	0	0	0	0	518	618
10	0	0	0	0	519	616
11	0	0	0	0	517	616
12	0	0	0	0	516	617
13	0	0	0	0	515	615
14	0	0	0	0	512	616
15	0	0	0	0	510	616
0	0	0	0	0	508	616
1	0	0	0	0	506	618
2	0	0	0	0	504	615
3	0	0	0	0	504	615
4	0	0	0	0	504	616
5	0	0	0	0	505	614
6	0	0	0	0	506	616
7	0	0	0	0	507	617
8	0	0	0	0	508	616
9	0	0	0	0	510	618
10	0	0	0	0	512	615
11	0	0	0	0	513	615
12	0	0	0	0	515	616
13	0	0	0	0	517	614
14	0	0	0	0	518	615
15	0	0	0	0	517	617
0	0	0	0	0	516	617
1	0	0	0	0	516	619
2	0	0	0	0	513	615
3	0	0	0	0	511	616
4	0	0	0	0	508	616
5	0	0	0	0	504	614
6	0	0	0	0	503	616
7	0	0	0	0	501	617
8	0	0	0	0	499	617
9	0	0	0	0	498	620
10	0	0	0	0	498	616
11	0	0	0	0	498	615
12	0	0	0	0	499	615
13	0	0	0	0	500	614
14	0	0	0	0	503	615
15	0	0	0	0	505	614
0	0	0	0	0	508	614
1	0	0	0	0	512	619
2	0	0	0	0	515	618
3	0	0	0	0	516	616
4	0	0	0	0	517	615
5	0	0	0	0	518	616
6	0	0	0	0	517	619
7	0	0	0	0	515	615
8	0	0	0	0	512	614
9	0	0	0	0	510	616
10	0	0	0	0	508	616
11	0	0	0	0	506	615
12	0	0	0	0	504	614
13	0	0	0	0	504	613
14	0	0	0	0	503	616
15	0	0	0	0	503	616
0	0	0	0	0	504	615
1	0	0	0	0	505	619
2	0	0	0	0	508	617
3	0	0	0	0	510	616
4	0	0	0	0	512	616
5	0	0	0	0	514	614
6	0	0	0	0	517	616
7	0	0	0	0	518	616
8	0	0	0	0	518	615
9	0	0	0	0	518	618
10	0	0	0	0	517	616
11	0	0	0	0	515	615
12	0	0	0	0	513	615
13	0	0	0	0	511	615
14	0	0	0	0	509	615
15	0	0	0	0	507	615
0	0	0	0	0	504	616
1	0	0	0	0	504	619
2	0	0	0	0	503	617
3	0	0	0	0	504	616
4	0	0	0	0	505	617
5	0	0	0	0	508	615
6	0	0	0	0	510	616
7	0	0	0	0	511	615
8	0	0	0	0	512	615
9	0	0	0	0	513	617
10	0	0	0	0	515	616
11	0	0	0	0	515	615
12	0	0	0	0	515	616
13	0	0	0	0	516	614
14	0	0	0	0	515	615
15	0	0	0	0	513	615
0	0	0	0	0	511	615
1	0	0	0	0	509	618
2	0	0	0	0	508	615
3	0	0	0	0	506	616
4	0	0	0	0	504	616
5	0	0	0	0	503	615
6	0	0	0	0	504	617
7	0	0	0	0	504	616
8	0	0	0	0	505	616
9	0	0	0	0	508	618
10	0	0	0	0	511	615
11	0	0	0	0	514	615
12	0	0	0	0	516	616
13	0	0	0	0	519	615
14	0	0	0	0	521	616
15	0	0	0	0	521	616
0	0	0	0	0	520	617
1	0	0	0	0	518	620
2	0	0	0	0	514	616
3	0	0	0	0	511	617
4	0	0	0	0	508	616
5	0	0	0	0	504	615
6	0	0	0	0	500	617
7	0	0	0	0	497	616
8	0	0	0	0	496	616
9	0	0	0	0	496	618
10	0	0	0	0	497	615
11	0	0	0	0	499	616
12	0	0	0	0	501	615
13	0	0	0	0	505	614
14	0	0	0	0	508	615
15	0	0	0	0	512	616
0	0	0	0	0	516	616
1	0	0	0	0	520	619
2	0	0	0	0	521	616
3	0	0	0	0	522	617
4	0	0	0	0	522	616
5	0	0	0	0	520	615
6	0	0	0	0	518	616
7	0	0	0	0	513	616
8	0	0	0	0	508	616
9	0	0	0	0	504	617
10	0	0	0	0	500	616
11	0	0	0	0	495	615
12	0	0	0	0	491	616
13	0	0	0	0	486	615
14	0	0	0	0	480	615
15	0	0	0	0	474	616
0	0	0	0	0	468	616
1	0	0	0	0	462	618
2	0	0	0	0	455	617
3	0	0	0	0	447	616
4	0	0	0	0	439	616
5	0	0	0	0	432	615
6	0	0	0	0	425	616
7	0	0	0	0	418	616
8	0	0	0	0	412	615
9	0	0	0	0	408	618
10	0	0	0	0	405	615
11	0	0	0	0	403	616
12	0	0	0	0	402	616
13	0	0	0	0	402	614
14	0	0	0	0	405	616
15	0	0	0	0	410	616
0	0	0	0	0	417	616
1	0	0	0	0	425	617
2	0	0	0	0	433	616
3	0	0	0	0	440	616
4	0	0	0	0	448	616
5	0	0	0	0	458	615
6	0	0	0	0	472	616
7	0	0	0	0	491	616
8	0	0	0	0	515	616
9	0	0	0	0	543	618
10	0	0	0	0	576	616
11	0	0	0	0	616	616
12	0	0	0	0	660	615
13	0	0	0	0	707	615
14	0	0	0	0	757	616
15	0	0	0	0	809	616
0	0	0	0	0	857	615
1	0	0	0	0	899	618
2	0	0	0	0	937	616
3	0	0	0	0	966	616
4	0	0	0	0	988	615
5	0	0	0	0	1004	614
6	0	0	0	0	1012	616
7	0	0	0	0	1016	615
8	0	0	0	0	1018	615
9	0	0	0	0	1015	618
10	0	0	0	0	1006	615
11	0	0	0	0	991	616
12	0	0	0	0	974	616
13	0	0	0	0	953	614
14	0	0	0	0	928	616
15	0	0	0	0	897	616
0	0	0	0	0	862	615
1	0	0	0	0	824	618
2	0	0	0	0	788	616
3	0	0	0	0	754	616
4	0	0	0	0	724	616
5	0	0	0	0	696	615
6	0	0	0	0	671	616
7	0	0	0	0	648	616
8	0	0	0	0	628	615
9	0	0	0	0	612	618
10	0	0	0	0	597	615
11	0	0	0	0	583	616
12	0	0	0	0	570	615
13	0	0	0	0	558	615
14	0	0	0	0	546	616
15	0	0	0	0	534	615
0	0	0	0	0	522	616
1	0	0	0	0	511	618
2	0	0	0	0	499	616
3	0	0	0	0	487	616
4	0	0	0	0	475	616
5	0	0	0	0	463	615
6	0	0	0	0	451	616
7	0	0	0	0	440	616
8	0	0	0	0	428	616
9	0	0	0	0	419	618
10	0	0	0	0	411	616
11	0	0	0	0	404	615
12	0	0	0	0	399	616
13	0	0	0	0	395	614
14	0	0	0	0	391	616
15	0	0	0	0	389	616
0	0	0	0	0	387	615
1	0	0	0	0	387	618
2	0	0	0	0	388	616
3	0	0	0	0	389	616
4	0	0	0	0	391	616
5	0	0	0	0	391	615
6	0	0	0	0	393	616
7	0	0	0	0	392	616
8	0	0	0	0	392	616
9	0	0	0	0	391	619
10	0	0	0	0	388	616
11	0	0	0	0	386	616
12	0	0	0	0	383	616
13	0	0	0	0	380	615
14	0	0	0	0	379	616
15	0	0	0	0	378	615
0	0	0	0	0	379	616
1	0	0	0	0	380	618
2	0	0	0	0	382	616
3	0	0	0	0	384	616
4	0	0	0	0	386	615
5	0	0	0	0	388	615
6	0	0	0	0	391	615
7	0	0	0	0	394	616
8	0	0	0	0	396	616
9	0	0	0	0	398	618
10	0	0	0	0	400	615
11	0	0	0	0	401	616
12	0	0	0	0	401	615
13	0	0	0	0	401	615
14	0	0	0	0	400	616
15	0	0	0	0	398	615
0	0	0	0	0	397	616
1	0	0	0	0	396	618
2	0	0	0	0	395	616
3	0	0	0	0	395	615
4	0	0	0	0	396	615
5	0	0	0	0	398	614
6	0	0	0	0	399	616
7	0	0	0	0	401	616
8	0	0	0	0	403	616
9	0	0	0	0	407	618
10	0	0	0	0	410	615
11	0	0	0	0	413	615
12	0	0	0	0	415	615
13	0	0	0	0	418	614
14	0	0	0	0	420	615
15	0	0	0	0	421	615
0	0	0	0	0	421	615
1	0	0	0	0	420	617
2	0	0	0	0	419	615
3	0	0	0	0	418	615
4	0	0	0	0	415	616
5	0	0	0	0	415	614
6	0	0	0	0	414	615
7	0	0	0	0	413	616
8	0	0	0	0	412	616
9	0	0	0	0	412	619
10	0	0	0	0	414	616
11	0	0	0	0	416	616
12	0	0	0	0	418	616
13	0	0	0	0	421	614
14	0	0	0	0	424	616
15	0	0	0	0	427	615
0	0	0	0	0	431	615
1	0	0	0	0	434	617
2	0	0	0	0	436	616
3	0	0	0	0	437	615
4	0	0	0	0	438	616
5	0	0	0	0	438	614
6	0	0	0	0	435	615
7	0	0	0	0	434	615
8	0	0	0	0	432	615
9	0	0	0	0	431	617
10	0	0	0	0	430	616
11	0	0	0	0	429	616
12	0	0	0	0	430	616
13	0	0	0	0	430	615
14	0	0	0	0	431	615
15	0	0	0	0	432	616
0	0	0	0	0	433	616
1	0	0	0	0	436	618
2	0	0	0	0	439	615
3	0	0	0	0	441	616
4	0	0	0	0	443	615
5	0	0	0	0	444	615
6	0	0	0	0	445	616
7	0	0	0	0	447	616
8	0	0	0	0	446	616
9	0	0	0	0	445	618
10	0	0	0	0	443	616
11	0	0	0	0	441	616
12	0	0	0	0	439	615
13	0	0	0	0	436	614
14	0	0	0	0	435	616
15	0	0	0	0	434	615
0	0	0	0	0	433	616
1	0	0	0	0	434	619
2	0	0	0	0	434	616
3	0	0	0	0	436	616
4	0	0	0	0	438	616
5	0	0	0	0	440	614
6	0	0	0	0	443	616
7	0	0	0	0	445	616
8	0	0	0	0	448	616
9	0	0	0	0	450	618
10	0	0	0	0	451	616
11	0	0	0	0	451	615
12	0	0	0	0	451	615
13	0	0	0	0	451	614
14	0	0	0	0	450	616
15	0	0	0	0	448	615
0	0	0	0	0	445	615
1	0	0	0	0	443	617
2	0	0	0	0	441	615
3	0	0	0	0	440	615
4	0	0	0	0	440	615
5	0	0	0	0	440	614
6	0	0	0	0	442	615
7	0	0	0	0	444	615
8	0	0	0	0	446	616
9	0	0	0	0	449	618
10	0	0	0	0	451	616
11	0	0	0	0	454	615
12	0	0	0	0	457	616
13	0	0	0	0	459	614
14	0	0	0	0	460	615
15	0	0	0	0	461	616
0	0	0	0	0	461	616
1	0	0	0	0	460	618
2	0	0	0	0	458	616
3	0	0	0	0	456	616
4	0	0	0	0	454	616
5	0	0	0	0	452	614
6	0	0	0	0	451	616
7	0	0	0	0	450	616
8	0	0	0	0	449	616
9	0	0	0	0	450	618
10	0	0	0	0	451	616
11	0	0	0	0	453	616
12	0	0	0	0	456	616
13	0	0	0	0	459	615
14	0	0	0	0	461	616
15	0	0	0	0	465	616
0	0	0	0	0	468	617
1	0	0	0	0	470	619
2	0	0	0	0	473	617
3	0	0	0	0	475	616
4	0	0	0	0	476	616
5	0	0	0	0	476	615
6	0	0	0	0	475	616
7	0	0	0	0	473	616
8	0	0	0	0	472	616
9	0	0	0	0	471	618
10	0	0	0	0	470	616
11	0	0	0	0	470	616
12	0	0	0	0	470	616
13	0	0	0	0	471	615
14	0	0	0	0	473	616
15	0	0	0	0	476	617
0	0	0	0	0	478	616
1	0	0	0	0	481	619
2	0	0	0	0	484	617
3	0	0	0	0	487	617
4	0	0	0	0	491	617
5	0	0	0	0	493	615
6	0	0	0	0	495	617
7	0	0	0	0	496	617
8	0	0	0	0	497	617
9	0	0	0	0	498	619
10	0	0	0	0	497	616
11	0	0	0	0	496	617
12	0	0	0	0	495	616
13	0	0	0	0	493	615
14	0	0	0	0	491	616
15	0	0	0	0	490	615
0	0	0	0	0	491	616
1	0	0	0	0	492	618
2	0	0	0	0	494	615
3	0	0	0	0	496	615
4	0	0	0	0	498	615
5	0	0	0	0	500	614
6	0	0	0	0	503	616
7	0	0	0	0	505	615
8	0	0	0	0	508	616
9	0	0	0	0	511	617
10	0	0	0	0	512	615
11	0	0	0	0	514	615
12	0	0	0	0	514	615
13	0	0	0	0	513	614
14	0	0	0	0	512	615
15	0	0	0	0	510	615
0	0	0	0	0	509	615
1	0	0	0	0	507	617
2	0	0	0	0	505	615
3	0	0	0	0	504	616
4	0	0	0	0	505	615
5	0	0	0	0	506	614
6	0	0	0	0	507	615
7	0	0	0	0	508	616
8	0	0	0	0	511	616
9	0	0	0	0	514	618
10	0	0	0	0	517	616
11	0	0	0	0	519	615
12	0	0	0	0	521	616
13	0	0	0	0	523	614
14	0	0	0	0	525	616
15	0	0	0	0	525	616
0	0	0	0	0	525	615
1	0	0	0	0	525	618
2	0	0	0	0	524	616
3	0	0	0	0	523	617
4	0	0	0	0	521	616
5	0	0	0	0	519	614
6	0	0	0	0	518	616
7	0	0	0	0	517	616
8	0	0	0	0	518	616
9	0	0	0	0	518	618
10	0	0	0	0	518	616
11	0	0	0	0	519	616
12	0	0	0	0	521	615
13	0	0	0	0	524	615
14	0	0	0	0	527	615
15	0	0	0	0	531	615
0	0	0	0	0	534	615
1	0	0	0	0	537	616
2	0	0	0	0	538	615
3	0	0	0	0	537	615
4	0	0	0	0	537	616
5	0	0	0	0	536	615
6	0	0	0	0	534	617
7	0	0	0	0	532	617
8	0	0	0	0	530	617
9	0	0	0	0	527	619
10	0	0	0	0	525	616
11	0	0	0	0	523	615
12	0	0	0	0	521	615
13	0	0	0	0	521	613
14	0	0	0	0	521	615
15	0	0	0	0	522	615
0	0	0	0	0	524	616
1	0	0	0	0	526	619
2	0	0	0	0	528	616
3	0	0	0	0	531	616
4	0	0	0	0	535	616
5	0	0	0	0	539	615
6	0	0	0	0	540	616
7	0	0	0	0	541	616
8	0	0	0	0	542	615
9	0	0	0	0	541	617
10	0	0	0	0	539	615
11	0	0	0	0	536	615
12	0	0	0	0	534	615
13	0	0	0	0	531	613
14	0	0	0	0	528	615
15	0	0	0	0	526	615
0	0	0	0	0	524	616
1	0	0	0	0	524	618
2	0	0	0	0	524	616
3	0	0	0	0	526	617
4	0	0	0	0	527	616
5	0	0	0	0	528	615
6	0	0	0	0	531	616
7	0	0	0	0	533	616
8	0	0	0	0	535	616
9	0	0	0	0	537	619
10	0	0	0	0	538	616
11	0	0	0	0	538	616
12	0	0	0	0	537	616
13	0	0	0	0	536	615
14	0	0	0	0	532	615
15	0	0	0	0	529	615
0	0	0	0	0	526	615
1	0	0	0	0	523	618
2	0	0	0	0	521	615
3	0	0	0	0	520	616
4	0	0	0	0	521	616
5	0	0	0	0	521	614
6	0	0	0	0	522	616
7	0	0	0	0	524	616
8	0	0	0	0	526	617
9	0	0	0	0	527	619
10	0	0	0	0	529	617
11	0	0	0	0	530	617
12	0	0	0	0	532	617
13	0	0	0	0	535	616
14	0	0	0	0	535	617
15	0	0	0	0	534	617
0	0	0	0	0	533	616
1	0	0	0	0	531	617
2	0	0	0	0	529	614
3	0	0	0	0	527	613
4	0	0	0	0	526	612
5	0	0	0	0	524	611
6	0	0	0	0	523	613
7	0	0	0	0	522	614
8	0	0	0	0	521	615
9	0	0	0	0	520	619
10	0	0	0	0	519	618
11	0	0	0	0	518	619
12	0	0	0	0	518	618
13	0	0	0	0	519	615
14	0	0	0	0	520	616
15	0	0	0	0	523	615
0	0	0	0	0	526	615
1	0	0	0	0	528	617
2	0	0	0	0	528	615
3	0	0	0	0	528	616
4	0	0	0	0	527	616
5	0	0	0	0	526	615
6	0	0	0	0	525	617
7	0	0	0	0	524	617
8	0	0	0	0	522	617
9	0	0	0	0	520	619
10	0	0	0	0	519	617
11	0	0	0	0	517	616
12	0	0	0	0	517	616
13	0	0	0	0	516	614
14	0	0	0	0	517	615
15	0	0	0	0	518	615
0	0	0	0	0	519	615
1	0	0	0	0	523	617
2	0	0	0	0	526	615
3	0	0	0	0	527	615
4	0	0	0	0	529	617
5	0	0	0	0	532	616
6	0	0	0	0	532	618
7	0	0	0	0	533	617
8	0	0	0	0	532	617
9	0	0	0	0	530	619
10	0	0	0	0	527	616
11	0	0	0	0	524	615
12	0	0	0	0	520	616
13	0	0	0	0	518	613
14	0	0	0	0	515	615
15	0	0	0	0	513	615
0	0	0	0	0	512	615
1	0	0	0	0	512	618
2	0	0	0	0	512	616
3	0	0	0	0	514	616
4	0	0	0	0	516	617
5	0	0	0	0	518	615
6	0	0	0	0	520	616
7	0	0	0	0	523	616
8	0	0	0	0	526	617
9	0	0	0	0	528	619
10	0	0	0	0	529	616
11	0	0	0	0	529	616
12	0	0	0	0	529	615
13	0	0	0	0	529	613
14	0	0	0	0	527	614
15	0	0	0	0	524	614
0	0	0	0	0	522	614
1	0	0	0	0	520	618
2	0	0	0	0	518	617
3	0	0	0	0	516	617
4	0	0	0	0	515	618
5	0	0	0	0	514	617
6	0	0	0	0	514	618
7	0	0	0	0	515	619
8	0	0	0	0	516	618
9	0	0	0	0	519	620
10	0	0	0	0	521	616
11	0	0	0	0	524	615
12	0	0	0	0	527	614
13	0	0	0	0	529	612
14	0	0	0	0	530	615
15	0	0	0	0	530	615
0	0	0	0	0	529	615
1	0	0	0	0	527	618
2	0	0	0	0	524	616
3	0	0	0	0	521	616
4	0	0	0	0	518	617
5	0	0	0	0	515	615
6	0	0	0	0	513	617
7	0	0	0	0	512	616
8	0	0	0	0	513	616
9	0	0	0	0	515	617
10	0	0	0	0	516	615
11	0	0	0	0	519	615
12	0	0	0	0	522	615
13	0	0	0	0	524	614
14	0	0	0	0	527	615
15	0	0	0	0	531	616
0	0	0	0	0	534	617
1	0	0	0	0	536	619
2	0	0	0	0	539	617
3	0	0	0	0	539	617
4	0	0	0	0	538	617
5	0	0	0	0	535	615
6	0	0	0	0	531	616
7	0	0	0	0	527	616
8	0	0	0	0	523	615
9	0	0	0	0	519	617
10	0	0	0	0	515	615
11	0	0	0	0	511	615
12	0	0	0	0	510	615
13	0	0	0	0	509	614
14	0	0	0	0	508	615
15	0	0	0	0	510	616
0	0	0	0	0	511	616
1	0	0	0	0	514	618
2	0	0	0	0	518	615
3	0	0	0	0	521	615
4	0	0	0	0	526	615
5	0	0	0	0	529	614
6	0	0	0	0	531	615
7	0	0	0	0	531	615
8	0	0	0	0	532	615
9	0	0	0	0	531	618
10	0	0	0	0	528	615
11	0	0	0	0	526	616
12	0	0	0	0	523	616
13	0	0	0	0	520	615
14	0	0	0	0	518	617
15	0	0	0	0	516	616
0	0	0	0	0	516	616
1	0	0	0	0	515	618
2	0	0	0	0	515	616
3	0	0	0	0	518	616
4	0	0	0	0	519	616
5	0	0	0	0	521	615
6	0	0	0	0	523	615
7	0	0	0	0	525	615
8	0	0	0	0	527	615
9	0	0	0	0	529	618
10	0	0	0	0	530	616
11	0	0	0	0	530	616
12	0	0	0	0	529	617
13	0	0	0	0	527	615
14	0	0	0	0	525	616
15	0	0	0	0	523	617
0	0	0	0	0	518	616
1	0	0	0	0	515	619
2	0	0	0	0	514	617
3	0	0	0	0	512	616
4	0	0	0	0	512	616
5	0	0	0	0	512	614
6	0	0	0	0	512	615
7	0	0	0	0	514	615
8	0	0	0	0	516	615
9	0	0	0	0	519	618
10	0	0	0	0	521	615
11	0	0	0	0	524	615
12	0	0	0	0	526	615
13	0	0	0	0	527	614
14	0	0	0	0	527	615
15	0	0	0	0	527	615
0	0	0	0	0	527	615
1	0	0	0	0	525	618
2	0	0	0	0	522	615
3	0	0	0	0	519	616
4	0	0	0	0	516	615
5	0	0	0	0	513	613
6	0	0	0	0	512	615
7	0	0	0	0	512	615
8	0	0	0	0	512	615
9	0	0	0	0	512	617
10	0	0	0	0	513	615
11	0	0	0	0	514	616
12	0	0	0	0	516	616
13	0	0	0	0	519	615
14	0	0	0	0	522	616
15	0	0	0	0	524	616
0	0	0	0	0	527	616
1	0	0	0	0	528	619
2	0	0	0	0	528	617
3	0	0	0	0	527	616
4	0	0	0	0	527	615
5	0	0	0	0	525	615
6	0	0	0	0	522	616
7	0	0	0	0	518	616
8	0	0	0	0	515	616
9	0	0	0	0	513	618
10	0	0	0	0	511	616
11	0	0	0	0	509	616
12	0	0	0	0	509	616
13	0	0	0	0	510	615
14	0	0	0	0	510	615
15	0	0	0	0	512	616
0	0	0	0	0	513	616
1	0	0	0	0	515	619
2	0	0	0	0	517	617
3	0	0	0	0	519	617
4	0	0	0	0	522	617
5	0	0	0	0	524	615
6	0	0	0	0	524	616
7	0	0	0	0	524	616
8	0	0	0	0	524	616
9	0	0	0	0	522	619
10	0	0	0	0	519	616
11	0	0	0	0	515	617
12	0	0	0	0	513	616
13	0	0	0	0	510	614
14	0	0	0	0	508	616
15	0	0	0	0	506	616
0	0	0	0	0	506	616
1	0	0	0	0	507	618
2	0	0	0	0	507	615
3	0	0	0	0	508	616
4	0	0	0	0	510	616
5	0	0	0	0	512	614
6	0	0	0	0	513	615
7	0	0	0	0	516	615
8	0	0	0	0	518	615
9	0	0	0	0	519	618
10	0	0	0	0	519	616
11	0	0	0	0	519	616
12	0	0	0	0	518	615
13	0	0	0	0	515	614
14	0	0	0	0	513	616
15	0	0	0	0	510	615
0	0	0	0	0	507	615
1	0	0	0	0	504	617
2	0	0	0	0	502	615
3	0	0	0	0	499	616
4	0	0	0	0	499	616
5	0	0	0	0	498	615
6	0	0	0	0	499	616
7	0	0	0	0	500	616
8	0	0	0	0	502	616
9	0	0	0	0	504	619
10	0	0	0	0	507	616
11	0	0	0	0	510	616
12	0	0	0	0	513	616
13	0	0	0	0	515	615
14	0	0	0	0	514	616
15	0	0	0	0	514	616
0	0	0	0	0	512	616
1	0	0	0	0	511	619
2	0	0	0	0	508	616
3	0	0	0	0	505	616
4	0	0	0	0	502	617
5	0	0	0	0	500	615
6	0	0	0	0	499	616
7	0	0	0	0	499	616
8	0	0	0	0	499	616
9	0	0	0	0	500	618
10	0	0	0	0	502	616
11	0	0	0	0	504	617
12	0	0	0	0	506	616
13	0	0	0	0	509	615
14	0	0	0	0	513	616
15	0	0	0	0	515	616
0	0	0	0	0	519	616
1	0	0	0	0	520	617
2	0	0	0	0	521	615
3	0	0	0	0	522	616
4	0	0	0	0	521	616
5	0	0	0	0	519	614
6	0	0	0	0	517	616
7	0	0	0	0	514	615
8	0	0	0	0	512	616
9	0	0	0	0	510	618
10	0	0	0	0	507	616
11	0	0	0	0	505	616
12	0	0	0	0	504	615
13	0	0	0	0	505	614
14	0	0	0	0	505	615
15	0	0	0	0	506	615
0	0	0	0	0	509	616
1	0	0	0	0	511	618
2	0	0	0	0	514	615
3	0	0	0	0	518	615
4	0	0	0	0	521	616
5	0	0	0	0	524	615
6	0	0	0	0	524	616
7	0	0	0	0	524	616
8	0	0	0	0	524	616
9	0	0	0	0	522	619
10	0	0	0	0	519	616
11	0	0	0	0	516	615
12	0	0	0	0	515	615
13	0	0	0	0	512	614
14	0	0	0	0	510	616
15	0	0	0	0	509	616
0	0	0	0	0	509	616
1	0	0	0	0	510	619
2	0	0	0	0	510	617
3	0	0	0	0	511	617
4	0	0	0	0	512	617
5	0	0	0	0	512	616
6	0	0	0	0	513	617
7	0	0	0	0	515	617
8	0	0	0	0	518	617
9	0	0	0	0	519	619
10	0	0	0	0	520	617
11	0	0	0	0	520	617
12	0	0	0	0	519	616
13	0	0	0	0	517	615
14	0	0	0	0	515	616
15	0	0	0	0	512	615
0	0	0	0	0	510	616
1	0	0	0	0	507	618
2	0	0	0	0	504	617
3	0	0	0	0	503	616
4	0	0	0	0	503	617
5	0	0	0	0	503	615
6	0	0	0	0	503	617
7	0	0	0	0	505	616
8	0	0	0	0	508	616
9	0	0	0	0	510	618
10	0	0	0	0	512	615
11	0	0	0	0	515	615
12	0	0	0	0	519	616
13	0	0	0	0	520	614
14	0	0	0	0	520	615
15	0	0	0	0	520	615
0	0	0	0	0	519	615
1	0	0	0	0	518	618
2	0	0	0	0	516	616
3	0	0	0	0	513	615
4	0	0	0	0	510	616
5	0	0	0	0	508	615
6	0	0	0	0	508	617
7	0	0	0	0	506	616
8	0	0	0	0	506	615
9	0	0	0	0	505	618
10	0	0	0	0	505	615
11	0	0	0	0	508	616
12	0	0	0	0	509	616
13	0	0	0	0	511	615
14	0	0	0	0	513	615
15	0	0	0	0	514	616
0	0	0	0	0	515	616
1	0	0	0	0	516	619
2	0	0	0	0	516	617
3	0	0	0	0	516	616
4	0	0	0	0	515	616
5	0	0	0	0	512	615
6	0	0	0	0	507	615
7	0	0	0	0	502	616
8	0	0	0	0	494	616
9	0	0	0	0	486	618
10	0	0	0	0	476	616
11	0	0	0	0	466	617
12	0	0	0	0	456	617
13	0	0	0	0	445	615
14	0	0	0	0	436	617
15	0	0	0	0	429	617
0	0	0	0	0	422	617
1	0	0	0	0	417	619
2	0	0	0	0	413	617
3	0	0	0	0	411	616
4	0	0	0	0	410	616
5	0	0	0	0	411	614
6	0	0	0	0	412	616
7	0	0	0	0	414	616
8	0	0	0	0	417	617
9	0	0	0	0	420	619
10	0	0	0	0	426	617
11	0	0	0	0	431	617
12	0	0	0	0	436	616
13	0	0	0	0	441	615
14	0	0	0	0	447	616
15	0	0	0	0	452	616
0	0	0	0	0	460	616
1	0	0	0	0	472	618
2	0	0	0	0	491	616
3	0	0	0	0	514	616
4	0	0	0	0	540	616
5	0	0	0	0	571	614
6	0	0	0	0	609	616
7	0	0	0	0	652	615
8	0	0	0	0	700	616
9	0	0	0	0	752	618
10	0	0	0	0	801	615
11	0	0	0	0	846	616
12	0	0	0	0	884	616
13	0	0	0	0	917	615
14	0	0	0	0	941	615
15	0	0	0	0	960	615
0	0	0	0	0	969	615
1	0	0	0	0	973	618
2	0	0	0	0	973	616
3	0	0	0	0	969	616
4	0	0	0	0	962	616
5	0	0	0	0	950	615
6	0	0	0	0	934	616
7	0	0	0	0	916	617
8	0	0	0	0	896	616
9	0	0	0	0	872	618
10	0	0	0	0	845	616
11	0	0	0	0	813	616
12	0	0	0	0	784	616
13	0	0	0	0	757	614
14	0	0	0	0	731	615
15	0	0	0	0	706	615
0	0	0	0	0	684	615
1	0	0	0	0	662	619
2	0	0	0	0	641	616
3	0	0	0	0	623	615
4	0	0	0	0	607	616
5	0	0	0	0	592	614
6	0	0	0	0	579	616
7	0	0	0	0	565	616
8	0	0	0	0	552	616
9	0	0	0	0	540	619
10	0	0	0	0	528	615
11	0	0	0	0	517	617
12	0	0	0	0	505	616
13	0	0	0	0	495	614
14	0	0	0	0	485	616
15	0	0	0	0	476	615
0	0	0	0	0	469	615
1	0	0	0	0	462	617
2	0	0	0	0	455	616
3	0	0	0	0	447	615
4	0	0	0	0	441	615
5	0	0	0	0	434	614
6	0	0	0	0	428	615
7	0	0	0	0	423	616
8	0	0	0	0	418	616
9	0	0	0	0	413	618
10	0	0	0	0	409	616
11	0	0	0	0	407	616
12	0	0	0	0	404	616
13	0	0	0	0	403	614
14	0	0	0	0	401	615
15	0	0	0	0	401	616
0	0	0	0	0	402	615
1	0	0	0	0	404	618
2	0	0	0	0	405	615
3	0	0	0	0	407	616
4	0	0	0	0	408	616
5	0	0	0	0	409	615
6	0	0	0	0	409	616
7	0	0	0	0	408	616
8	0	0	0	0	407	615
9	0	0	0	0	405	618
10	0	0	0	0	403	616
11	0	0	0	0	400	615
12	0	0	0	0	398	615
13	0	0	0	0	396	614
14	0	0	0	0	395	615
15	0	0	0	0	395	615
0	0	0	0	0	396	616
1	0	0	0	0	398	619
2	0	0	0	0	399	616
3	0	0	0	0	401	617
4	0	0	0	0	403	616
5	0	0	0	0	406	615
6	0	0	0	0	409	616
7	0	0	0	0	412	617
8	0	0	0	0	414	617
9	0	0	0	0	416	619
10	0	0	0	0	418	616
11	0	0	0	0	419	616
12	0	0	0	0	420	616
13	0	0	0	0	419	615
14	0	0	0	0	418	616
15	0	0	0	0	416	615
0	0	0	0	0	415	616
1	0	0	0	0	415	618
2	0	0	0	0	415	616
3	0	0	0	0	415	615
4	0	0	0	0	415	616
5	0	0	0	0	416	614
6	0	0	0	0	417	615
7	0	0	0	0	419	616
8	0	0	0	0	420	616
9	0	0	0	0	423	618
10	0	0	0	0	426	616
11	0	0	0	0	429	615
12	0	0	0	0	433	615
13	0	0	0	0	435	615
14	0	0	0	0	435	616
15	0	0	0	0	435	616
0	0	0	0	0	435	616
1	0	0	0	0	433	619
2	0	0	0	0	431	616
3	0	0	0	0	428	616
4	0	0	0	0	427	616
5	0	0	0	0	425	614
6	0	0	0	0	423	616
7	0	0	0	0	423	615
8	0	0	0	0	424	615
9	0	0	0	0	425	618
10	0	0	0	0	426	615
11	0	0	0	0	428	615
12	0	0	0	0	431	616
13	0	0	0	0	435	615
14	0	0	0	0	438	616
15	0	0	0	0	441	616
0	0	0	0	0	444	616
1	0	0	0	0	447	618
2	0	0	0	0	449	616
3	0	0	0	0	449	615
4	0	0	0	0	448	615
5	0	0	0	0	446	614
6	0	0	0	0	443	616
7	0	0	0	0	440	616
8	0	0	0	0	437	616
9	0	0	0	0	435	619
10	0	0	0	0	432	617
11	0	0	0	0	432	615
12	0	0	0	0	432	616
13	0	0	0	0	434	614
14	0	0	0	0	435	616
15	0	0	0	0	438	616
0	0	0	0	0	441	615
1	0	0	0	0	446	618
2	0	0	0	0	450	616
3	0	0	0	0	452	616
4	0	0	0	0	456	616
5	0	0	0	0	458	615
6	0	0	0	0	459	616
7	0	0	0	0	458	616
8	0	0	0	0	456	616
9	0	0	0	0	454	619
10	0	0	0	0	452	616
11	0	0	0	0	450	615
12	0	0	0	0	448	615
13	0	0	0	0	446	614
14	0	0	0	0	446	616
15	0	0	0	0	446	615
0	0	0	0	0	446	615
1	0	0	0	0	447	617
2	0	0	0	0	448	616
3	0	0	0	0	450	616
4	0	0	0	0	453	616
5	0	0	0	0	455	615
6	0	0	0	0	459	616
7	0	0	0	0	461	617
8	0	0	0	0	463	616
9	0	0	0	0	464	617
10	0	0	0	0	464	615
11	0	0	0	0	465	616
12	0	0	0	0	464	616
13	0	0	0	0	462	614
14	0	0	0	0	459	616
15	0	0	0	0	455	616
0	0	0	0	0	452	616
1	0	0	0	0	450	619
2	0	0	0	0	449	615
3	0	0	0	0	448	616
4	0	0	0	0	449	616
5	0	0	0	0	450	615
6	0	0	0	0	452	616
7	0	0	0	0	456	616
8	0	0	0	0	460	617
9	0	0	0	0	463	619
10	0	0	0	0	467	616
11	0	0	0	0	470	616
12	0	0	0	0	473	617
13	0	0	0	0	475	615
14	0	0	0	0	475	617
15	0	0	0	0	475	617
0	0	0	0	0	475	616
1	0	0	0	0	473	619
2	0	0	0	0	470	616
3	0	0	0	0	466	616
4	0	0	0	0	464	616
5	0	0	0	0	462	614
6	0	0	0	0	461	615
7	0	0	0	0	461	615
8	0	0	0	0	462	616
9	0	0	0	0	463	618
10	0	0	0	0	465	616
11	0	0	0	0	467	616
12	0	0	0	0	470	616
13	0	0	0	0	473	615
14	0	0	0	0	477	616
15	0	0	0	0	481	615
0	0	0	0	0	486	615
1	0	0	0	0	488	618
2	0	0	0	0	490	616
3	0	0	0	0	490	616
4	0	0	0	0	489	615
5	0	0	0	0	487	614
6	0	0	0	0	484	615
7	0	0	0	0	481	616
8	0	0	0	0	479	616
9	0	0	0	0	477	618
10	0	0	0	0	476	616
11	0	0	0	0	475	616
12	0	0	0	0	476	616
13	0	0	0	0	479	615
14	0	0	0	0	480	616
15	0	0	0	0	483	616
0	0	0	0	0	486	615
1	0	0	0	0	489	617
2	0	0	0	0	494	616
3	0	0	0	0	498	615
4	0	0	0	0	502	615
5	0	0	0	0	504	615
6	0	0	0	0	507	617
7	0	0	0	0	508	617
8	0	0	0	0	507	617
9	0	0	0	0	505	619
10	0	0	0	0	503	616
11	0	0	0	0	502	616
12	0	0	0	0	499	615
13	0	0	0	0	498	614
14	0	0	0	0	498	615
15	0	0	0	0	498	616
0	0	0	0	0	499	616
1	0	0	0	0	500	619
2	0	0	0	0	502	616
3	0	0	0	0	504	616
4	0	0	0	0	506	616
5	0	0	0	0	509	614
6	0	0	0	0	512	616
7	0	0	0	0	514	616
8	0	0	0	0	517	616
9	0	0	0	0	518	618
10	0	0	0	0	519	615
11	0	0	0	0	519	616
12	0	0	0	0	519	615
13	0	0	0	0	517	614
14	0	0	0	0	515	615
15	0	0	0	0	513	615
0	0	0	0	0	510	615
1	0	0	0	0	509	618
2	0	0	0	0	509	616
3	0	0	0	0	509	616
4	0	0	0	0	510	616
5	0	0	0	0	511	615
6	0	0	0	0	512	617
7	0	0	0	0	514	616
8	0	0	0	0	516	615
9	0	0	0	0	518	617
10	0	0	0	0	521	615
11	0	0	0	0	524	615
12	0	0	0	0	527	615
13	0	0	0	0	527	614
14	0	0	0	0	528	616
15	0	0	0	0	527	615
0	0	0	0	0	524	615
1	0	0	0	0	523	618
2	0	0	0	0	520	616
3	0	0	0	0	518	615
4	0	0	0	0	515	615
5	0	0	0	0	514	615
6	0	0	0	0	512	617
7	0	0	0	0	511	616
8	0	0	0	0	511	616
9	0	0	0	0	511	619
10	0	0	0	0	511	616
11	0	0	0	0	513	616
12	0	0	0	0	515	616
13	0	0	0	0	518	615
14	0	0	0	0	519	617
15	0	0	0	0	523	616
0	0	0	0	0	525	616
1	0	0	0	0	527	619
2	0	0	0	0	527	616
3	0	0	0	0	527	616
4	0	0	0	0	525	616
5	0	0	0	0	524	615
6	0	0	0	0	521	616
7	0	0	0	0	517	616
8	0	0	0	0	515	616
9	0	0	0	0	512	618
10	0	0	0	0	510	616
11	0	0	0	0	510	616
12	0	0	0	0	511	616
13	0	0	0	0	512	615
14	0	0	0	0	513	616
15	0	0	0	0	515	616
0	0	0	0	0	516	616
1	0	0	0	0	519	619
2	0	0	0	0	522	616
3	0	0	0	0	523	616
4	0	0	0	0	526	617
5	0	0	0	0	527	615
6	0	0	0	0	527	616
7	0	0	0	0	527	616
8	0	0	0	0	525	617
9	0	0	0	0	523	619
10	0	0	0	0	521	616
11	0	0	0	0	519	615
12	0	0	0	0	517	616
13	0	0	0	0	515	615
14	0	0	0	0	514	617
15	0	0	0	0	514	616
0	0	0	0	0	515	616
1	0	0	0	0	515	618
2	0	0	0	0	517	615
3	0	0	0	0	519	616
4	0	0	0	0	521	616
5	0	0	0	0	523	614
6	0	0	0	0	525	615
7	0	0	0	0	526	616
8	0	0	0	0	529	616
9	0	0	0	0	530	618
10	0	0	0	0	530	616
11	0	0	0	0	530	616
12	0	0	0	0	528	616
13	0	0	0	0	526	615
14	0	0	0	0	523	616
15	0	0	0	0	519	616
0	0	0	0	0	516	617
1	0	0	0	0	514	619
2	0	0	0	0	512	617
3	0	0	0	0	512	616
4	0	0	0	0	512	616
5	0	0	0	0	512	615
6	0	0	0	0	513	616
7	0	0	0	0	515	616
8	0	0	0	0	517	616
9	0	0	0	0	521	618
10	0	0	0	0	523	616
11	0	0	0	0	525	615
12	0	0	0	0	527	617
13	0	0	0	0	528	615
14	0	0	0	0	528	615
15	0	0	0	0	527	616
0	0	0	0	0	527	615
1	0	0	0	0	525	619
2	0	0	0	0	522	616
3	0	0	0	0	519	615
4	0	0	0	0	516	615
5	0	0	0	0	514	614
6	0	0	0	0	513	615
7	0	0	0	0	513	616
8	0	0	0	0	513	615
9	0	0	0	0	513	618
10	0	0	0	0	514	615
11	0	0	0	0	515	615
12	0	0	0	0	517	616
13	0	0	0	0	519	614
14	0	0	0	0	520	616
15	0	0	0	0	522	616
0	0	0	0	0	523	616
1	0	0	0	0	523	618
2	0	0	0	0	522	615
3	0	0	0	0	521	615
4	0	0	0	0	520	614
5	0	0	0	0	519	613
6	0	0	0	0	517	614
7	0	0	0	0	515	615
8	0	0	0	0	514	615
9	0	0	0	0	512	617
10	0	0	0	0	512	616
11	0	0	0	0	512	618
12	0	0	0	0	513	618
13	0	0	0	0	514	617
14	0	0	0	0	515	619
15	0	0	0	0	516	619
0	0	0	0	0	519	618
1	0	0	0	0	520	620
2	0	0	0	0	523	618
3	0	0	0	0	525	617
4	0	0	0	0	528	616
5	0	0	0	0	528	615
6	0	0	0	0	527	615
7	0	0	0	0	527	616
8	0	0	0	0	525	615
9	0	0	0	0	523	618
10	0	0	0	0	519	616
11	0	0	0	0	517	616
12	0	0	0	0	516	616
13	0	0	0	0	513	615
14	0	0	0	0	511	616
15	0	0	0	0	510	616
0	0	0	0	0	511	616
1	0	0	0	0	511	618
2	0	0	0	0	512	615
3	0	0	0	0	514	616
4	0	0	0	0	517	616
5	0	0	0	0	519	614
6	0	0	0	0	523	617
7	0	0	0	0	526	616
8	0	0	0	0	528	616
9	0	0	0	0	529	618
10	0	0	0	0	529	616
11	0	0	0	0	529	616
12	0	0	0	0	526	616
13	0	0	0	0	524	614
14	0	0	0	0	521	615
15	0	0	0	0	519	616
0	0	0	0	0	518	615
1	0	0	0	0	515	618
2	0	0	0	0	513	615
3	0	0	0	0	511	615
4	0	0	0	0	512	615
5	0	0	0	0	512	614
6	0	0	0	0	513	615
7	0	0	0	0	516	616
8	0	0	0	0	517	615
9	0	0	0	0	518	619
10	0	0	0	0	519	616
11	0	0	0	0	520	616
12	0	0	0	0	523	616
13	0	0	0	0	524	615
14	0	0	0	0	525	617
15	0	0	0	0	527	616
0	0	0	0	0	526	616
1	0	0	0	0	523	618
2	0	0	0	0	520	616
3	0	0	0	0	516	615
4	0	0	0	0	514	615
5	0	0	0	0	512	613
6	0	0	0	0	512	615
7	0	0	0	0	511	615
8	0	0	0	0	512	615
9	0	0	0	0	512	618
10	0	0	0	0	512	615
11	0	0	0	0	514	615
12	0	0	0	0	516	615
13	0	0	0	0	519	614
14	0	0	0	0	522	616
15	0	0	0	0	525	616
0	0	0	0	0	527	616
1	0	0	0	0	527	619
2	0	0	0	0	526	616
3	0	0	0	0	524	616
4	0	0	0	0	521	616
5	0	0	0	0	519	614
6	0	0	0	0	517	615
7	0	0	0	0	514	616
8	0	0	0	0	512	615
9	0	0	0	0	512	619
10	0	0	0	0	511	617
11	0	0	0	0	512	616
12	0	0	0	0	512	616
13	0	0	0	0	513	615
14	0	0	0	0	515	616
15	0	0	0	0	517	616
0	0	0	0	0	518	616
1	0	0	0	0	521	619
2	0	0	0	0	524	616
3	0	0	0	0	526	615
4	0	0	0	0	527	616
5	0	0	0	0	527	614
6	0	0	0	0	526	615
7	0	0	0	0	524	615
8	0	0	0	0	523	615
9	0	0	0	0	520	618
10	0	0	0	0	518	615
11	0	0	0	0	516	616
12	0	0	0	0	513	615
13	0	0	0	0	511	614
14	0	0	0	0	510	616
15	0	0	0	0	510	616
0	0	0	0	0	510	616
1	0	0	0	0	510	618
2	0	0	0	0	512	616
3	0	0	0	0	514	616
4	0	0	0	0	517	616
5	0	0	0	0	519	615
6	0	0	0	0	522	616
7	0	0	0	0	525	616
8	0	0	0	0	527	616
9	0	0	0	0	527	618
10	0	0	0	0	527	615
11	0	0	0	0	526	615
12	0	0	0	0	523	616
13	0	0	0	0	520	615
14	0	0	0	0	518	616
15	0	0	0	0	515	617
0	0	0	0	0	513	616
1	0	0	0	0	511	618
2	0	0	0	0	510	616
3	0	0	0	0	511	616
4	0	0	0	0	512	616
5	0	0	0	0	513	615
6	0	0	0	0	515	616
7	0	0	0	0	516	616
8	0	0	0	0	516	616
9	0	0	0	0	518	618
10	0	0	0	0	520	616
11	0	0	0	0	521	616
12	0	0	0	0	522	616
13	0	0	0	0	523	615
14	0	0	0	0	522	615
15	0	0	0	0	520	616
0	0	0	0	0	519	616
1	0	0	0	0	517	619
2	0	0	0	0	516	615
3	0	0	0	0	516	615
4	0	0	0	0	516	615
5	0	0	0	0	514	614
6	0	0	0	0	513	615
7	0	0	0	0	513	615
8	0	0	0	0	511	615
9	0	0	0	0	511	617
10	0	0	0	0	512	615
11	0	0	0	0	513	615
12	0	0	0	0	514	615
13	0	0	0	0	517	614
14	0	0	0	0	519	615
15	0	0	0	0	520	615
0	0	0	0	0	522	616
1	0	0	0	0	523	618
2	0	0	0	0	523	616
3	0	0	0	0	522	616
4	0	0	0	0	519	616
5	0	0	0	0	517	615
6	0	0	0	0	515	616
7	0	0	0	0	514	616
8	0	0	0	0	511	616
9	0	0	0	0	509	617
10	0	0	0	0	508	615
11	0	0	0	0	508	615
12	0	0	0	0	508	616
13	0	0	0	0	508	614
14	0	0	0	0	510	615
15	0	0	0	0	510	616
0	0	0	0	0	512	616
1	0	0	0	0	515	618
2	0	0	0	0	517	616
3	0	0	0	0	519	616
4	0	0	0	0	522	616
5	0	0	0	0	522	614
6	0	0	0	0	523	615
7	0	0	0	0	523	615
8	0	0	0	0	521	616
9	0	0	0	0	519	619
10	0	0	0	0	516	615
11	0	0	0	0	513	616
12	0	0	0	0	512	616
13	0	0	0	0	511	614
14	0	0	0	0	509	616
15	0	0	0	0	507	615
0	0	0	0	0	507	615
1	0	0	0	0	508	619
2	0	0	0	0	509	616
3	0	0	0	0	511	616
4	0	0	0	0	513	616
5	0	0	0	0	515	615
6	0	0	0	0	516	616
7	0	0	0	0	518	615
8	0	0	0	0	519	616
9	0	0	0	0	519	619
10	0	0	0	0	519	615
11	0	0	0	0	518	616
12	0	0	0	0	517	616
13	0	0	0	0	515	615
14	0	0	0	0	512	616
15	0	0	0	0	509	616
0	0	0	0	0	508	616
1	0	0	0	0	505	619
2	0	0	0	0	504	617
3	0	0	0	0	503	617
4	0	0	0	0	504	616
5	0	0	0	0	504	615
6	0	0	0	0	504	616
7	0	0	0	0	505	616
8	0	0	0	0	507	616
9	0	0	0	0	509	618
10	0	0	0	0	512	616
11	0	0	0	0	514	616
12	0	0	0	0	515	616
13	0	0	0	0	516	614
14	0	0	0	0	516	615
15	0	0	0	0	515	615
0	0	0	0	0	512	615
1	0	0	0	0	510	619
2	0	0	0	0	505	616
3	0	0	0	0	503	616
4	0	0	0	0	500	616
5	0	0	0	0	499	615
6	0	0	0	0	498	616
7	0	0	0	0	499	617
8	0	0	0	0	501	616
9	0	0	0	0	503	619
10	0	0	0	0	506	616
11	0	0	0	0	509	617
12	0	0	0	0	512	616
13	0	0	0	0	516	615
14	0	0	0	0	520	616
15	0	0	0	0	523	616
0	0	0	0	0	526	616
1	0	0	0	0	526	618
2	0	0	0	0	526	616
3	0	0	0	0	526	616
4	0	0	0	0	524	617
5	0	0	0	0	522	615
6	0	0	0	0	519	616
7	0	0	0	0	516	616
8	0	0	0	0	513	616
9	0	0	0	0	510	618
10	0	0	0	0	509	616
11	0	0	0	0	508	616
12	0	0	0	0	508	616
13	0	0	0	0	507	614
14	0	0	0	0	508	616
15	0	0	0	0	510	615
0	0	0	0	0	513	616
1	0	0	0	0	516	619
2	0	0	0	0	519	616
3	0	0	0	0	523	615
4	0	0	0	0	525	615
5	0	0	0	0	526	615
6	0	0	0	0	527	616
7	0	0	0	0	527	616
8	0	0	0	0	523	616
9	0	0	0	0	521	619
10	0	0	0	0	518	616
11	0	0	0	0	515	616
12	0	0	0	0	513	616
13	0	0	0	0	510	615
14	0	0	0	0	509	616
15	0	0	0	0	508	616
0	0	0	0	0	508	616
1	0	0	0	0	508	619
2	0	0	0	0	510	616
3	0	0	0	0	511	616
4	0	0	0	0	514	616
5	0	0	0	0	515	615
6	0	0	0	0	517	616
7	0	0	0	0	519	616
8	0	0	0	0	519	616
9	0	0	0	0	519	618
10	0	0	0	0	519	617
11	0	0	0	0	518	616
12	0	0	0	0	516	617
13	0	0	0	0	513	616
14	0	0	0	0	510	617
15	0	0	0	0	508	617
0	0	0	0	0	506	616
1	0	0	0	0	505	618
2	0	0	0	0	506	616
3	0	0	0	0	508	616
4	0	0	0	0	510	616
5	0	0	0	0	511	615
6	0	0	0	0	512	616
7	0	0	0	0	514	615
8	0	0	0	0	515	616
9	0	0	0	0	516	619
10	0	0	0	0	517	616
11	0	0	0	0	518	616
12	0	0	0	0	518	616
13	0	0	0	0	517	615
14	0	0	0	0	514	616
15	0	0	0	0	513	616
0	0	0	0	0	511	615
1	0	0	0	0	509	619
2	0	0	0	0	507	616
3	0	0	0	0	505	616
4	0	0	0	0	505	617
5	0	0	0	0	504	615
6	0	0	0	0	504	618
7	0	0	0	0	506	617
8	0	0	0	0	507	617
9	0	0	0	0	508	620
10	0	0	0	0	510	617
11	0	0	0	0	512	616
12	0	0	0	0	513	616
13	0	0	0	0	515	614
14	0	0	0	0	518	615
15	0	0	0	0	520	615
0	0	0	0	0	521	615
1	0	0	0	0	520	617
2	0	0	0	0	519	615
3	0	0	0	0	517	615
4	0	0	0	0	514	615
5	0	0	0	0	512	614
6	0	0	0	0	507	615
7	0	0	0	0	502	615
8	0	0	0	0	496	616
9	0	0	0	0	489	619
10	0	0	0	0	481	617
11	0	0	0	0	471	616
12	0	0	0	0	461	617
13	0	0	0	0	451	615
14	0	0	0	0	441	616
15	0	0	0	0	432	616
0	0	0	0	0	424	615
1	0	0	0	0	418	618
2	0	0	0	0	412	616
3	0	0	0	0	408	616
4	0	0	0	0	406	616
5	0	0	0	0	405	615
6	0	0	0	0	406	616
7	0	0	0	0	407	616
8	0	0	0	0	408	615
9	0	0	0	0	412	619
10	0	0	0	0	416	615
11	0	0	0	0	422	616
12	0	0	0	0	429	617
13	0	0	0	0	435	614
14	0	0	0	0	441	616
15	0	0	0	0	448	616
0	0	0	0	0	456	615
1	0	0	0	0	467	618
2	0	0	0	0	485	615
3	0	0	0	0	508	616
4	0	0	0	0	535	616
5	0	0	0	0	564	615
6	0	0	0	0	601	616
7	0	0	0	0	644	616
8	0	0	0	0	690	616
9	0	0	0	0	739	618
10	0	0	0	0	789	616
11	0	0	0	0	835	616
12	0	0	0	0	876	615
13	0	0	0	0	911	614
14	0	0	0	0	938	615
15	0	0	0	0	959	616
0	0	0	0	0	971	615
1	0	0	0	0	977	618
2	0	0	0	0	979	615
3	0	0	0	0	978	615
4	0	0	0	0	972	615
5	0	0	0	0	963	614
6	0	0	0	0	950	615
7	0	0	0	0	933	616
8	0	0	0	0	912	616
9	0	0	0	0	889	618
10	0	0	0	0	861	616
11	0	0	0	0	830	616
12	0	0	0	0	798	616
13	0	0	0	0	766	615
14	0	0	0	0	737	616
15	0	0	0	0	711	616
0	0	0	0	0	686	616
1	0	0	0	0	663	618
2	0	0	0	0	641	616
3	0	0	0	0	623	616
4	0	0	0	0	607	616
5	0	0	0	0	593	615
6	0	0	0	0	579	616
7	0	0	0	0	566	616
8	0	0	0	0	553	616
9	0	0	0	0	542	619
10	0	0	0	0	532	616
11	0	0	0	0	522	616
12	0	0	0	0	512	616
13	0	0	0	0	503	614
14	0	0	0	0	494	616
15	0	0	0	0	486	616
0	0	0	0	0	478	616
1	0	0	0	0	470	619
2	0	0	0	0	462	616
3	0	0	0	0	453	615
4	0	0	0	0	444	615
5	0	0	0	0	435	615
6	0	0	0	0	426	615
7	0	0	0	0	419	616
8	0	0	0	0	411	616
9	0	0	0	0	405	618
10	0	0	0	0	401	616
11	0	0	0	0	398	615
12	0	0	0	0	396	616
13	0	0	0	0	394	614
14	0	0	0	0	394	615
15	0	0	0	0	395	616
0	0	0	0	0	396	616
1	0	0	0	0	398	619
2	0	0	0	0	400	616
3	0	0	0	0	402	616
4	0	0	0	0	404	616
5	0	0	0	0	405	614
6	0	0	0	0	405	616
7	0	0	0	0	404	616
8	0	0	0	0	401	616
9	0	0	0	0	399	618
10	0	0	0	0	397	616
11	0	0	0	0	395	616
12	0	0	0	0	393	616
13	0	0	0	0	391	615
14	0	0	0	0	390	616
15	0	0	0	0	391	616
0	0	0	0	0	393	616
1	0	0	0	0	395	619
2	0	0	0	0	397	616
3	0	0	0	0	401	616
4	0	0	0	0	404	616
5	0	0	0	0	408	615
6	0	0	0	0	411	616
7	0	0	0	0	415	616
8	0	0	0	0	417	616
9	0	0	0	0	418	618
10	0	0	0	0	419	615
11	0	0	0	0	419	615
12	0	0	0	0	418	615
13	0	0	0	0	416	614
14	0	0	0	0	413	616
15	0	0	0	0	411	616
0	0	0	0	0	409	615
1	0	0	0	0	409	618
2	0	0	0	0	409	615
3	0	0	0	0	410	616
4	0	0	0	0	412	617
5	0	0	0	0	413	615
6	0	0	0	0	416	616
7	0	0	0	0	419	616
8	0	0	0	0	423	616
9	0	0	0	0	426	619
10	0	0	0	0	430	616
11	0	0	0	0	432	616
12	0	0	0	0	433	616
13	0	0	0	0	433	615
14	0	0	0	0	433	616
15	0	0	0	0	432	616
0	0	0	0	0	429	616
1	0	0	0	0	426	619
2	0	0	0	0	423	616
3	0	0	0	0	422	616
4	0	0	0	0	421	616
5	0	0	0	0	420	614
6	0	0	0	0	421	617
7	0	0	0	0	423	616
8	0	0	0	0	426	616
9	0	0	0	0	428	619
10	0	0	0	0	431	616
11	0	0	0	0	435	616
12	0	0	0	0	438	616
13	0	0	0	0	442	614
14	0	0	0	0	445	616
15	0	0	0	0	448	615
0	0	0	0	0	451	616
1	0	0	0	0	451	618
2	0	0	0	0	452	615
3	0	0	0	0	451	616
4	0	0	0	0	449	616
5	0	0	0	0	447	614
6	0	0	0	0	444	616
7	0	0	0	0	440	617
8	0	0	0	0	438	616
9	0	0	0	0	436	619
10	0	0	0	0	435	616
11	0	0	0	0	435	616
12	0	0	0	0	436	617
13	0	0	0	0	437	615
14	0	0	0	0	439	616
15	0	0	0	0	441	615
0	0	0	0	0	445	615
1	0	0	0	0	448	617
2	0	0	0	0	451	616
3	0	0	0	0	453	615
4	0	0	0	0	455	616
5	0	0	0	0	457	615
6	0	0	0	0	458	616
7	0	0	0	0	457	616
8	0	0	0	0	455	616
9	0	0	0	0	452	619
10	0	0	0	0	449	616
11	0	0	0	0	446	616
12	0	0	0	0	444	615
13	0	0	0	0	442	615
14	0	0	0	0	443	616
15	0	0	0	0	443	616
0	0	0	0	0	444	616
1	0	0	0	0	445	618
2	0	0	0	0	447	615
3	0	0	0	0	449	616
4	0	0	0	0	452	616
5	0	0	0	0	455	614
6	0	0	0	0	459	616
7	0	0	0	0	462	616
8	0	0	0	0	464	616
9	0	0	0	0	465	618
10	0	0	0	0	466	616
11	0	0	0	0	465	615
12	0	0	0	0	463	615
13	0	0	0	0	462	615
14	0	0	0	0	459	616
15	0	0	0	0	456	616
0	0	0	0	0	454	616
1	0	0	0	0	452	618
2	0	0	0	0	451	616
3	0	0	0	0	451	616
4	0	0	0	0	451	616
5	0	0	0	0	451	614
6	0	0	0	0	453	616
7	0	0	0	0	455	616
8	0	0	0	0	458	616
9	0	0	0	0	461	618
10	0	0	0	0	464	615
11	0	0	0	0	467	615
12	0	0	0	0	471	616
13	0	0	0	0	472	615
14	0	0	0	0	472	616
15	0	0	0	0	472	616
0	0	0	0	0	469	616
1	0	0	0	0	468	618
2	0	0	0	0	465	616
3	0	0	0	0	464	615
4	0	0	0	0	463	615
5	0	0	0	0	460	614
6	0	0	0	0	460	615
7	0	0	0	0	460	616
8	0	0	0	0	460	615
9	0	0	0	0	462	618
10	0	0	0	0	464	615
11	0	0	0	0	467	616
12	0	0	0	0	471	615
13	0	0	0	0	475	614
14	0	0	0	0	478	616
15	0	0	0	0	481	616
0	0	0	0	0	483	616
1	0	0	0	0	485	618
2	0	0	0	0	486	616
3	0	0	0	0	486	616
4	0	0	0	0	484	615
5	0	0	0	0	483	615
6	0	0	0	0	480	615
7	0	0	0	0	478	616
8	0	0	0	0	476	616
9	0	0	0	0	476	618
10	0	0	0	0	476	616
11	0	0	0	0	476	615
12	0	0	0	0	478	616
13	0	0	0	0	480	615
14	0	0	0	0	484	616
15	0	0	0	0	488	616
0	0	0	0	0	492	616
1	0	0	0	0	496	618
2	0	0	0	0	500	616
3	0	0	0	0	504	615
4	0	0	0	0	506	615
5	0	0	0	0	507	614
6	0	0	0	0	508	615
7	0	0	0	0	508	616
8	0	0	0	0	507	615
9	0	0	0	0	504	619
10	0	0	0	0	502	617
11	0	0	0	0	499	616
12	0	0	0	0	497	616
13	0	0	0	0	496	615
14	0	0	0	0	496	617
15	0	0	0	0	496	617
0	0	0	0	0	497	616
1	0	0	0	0	499	619
2	0	0	0	0	502	616
3	0	0	0	0	505	616
4	0	0	0	0	508	616
5	0	0	0	0	511	615
6	0	0	0	0	515	615
7	0	0	0	0	517	616
8	0	0	0	0	519	616
9	0	0	0	0	520	618
10	0	0	0	0	520	616
11	0	0	0	0	519	615
12	0	0	0	0	519	615
13	0	0	0	0	517	615
14	0	0	0	0	515	616
15	0	0	0	0	513	615
0	0	0	0	0	511	616
1	0	0	0	0	510	617
2	0	0	0	0	508	616
3	0	0	0	0	508	615
4	0	0	0	0	508	616
5	0	0	0	0	510	615
6	0	0	0	0	513	616
7	0	0	0	0	515	616
8	0	0	0	0	518	616
9	0	0	0	0	520	618
10	0	0	0	0	523	616
11	0	0	0	0	526	616
12	0	0	0	0	528	616
13	0	0	0	0	528	615
14	0	0	0	0	527	616
15	0	0	0	0	527	616
0	0	0	0	0	525	615
1	0	0	0	0	522	618
2	0	0	0	0	519	616
3	0	0	0	0	516	616
4	0	0	0	0	514	616
5	0	0	0	0	512	615
6	0	0	0	0	512	616
7	0	0	0	0	511	616
8	0	0	0	0	512	616
9	0	0	0	0	513	619
10	0	0	0	0	515	616
11	0	0	0	0	518	616
12	0	0	0	0	521	616
13	0	0	0	0	524	615
14	0	0	0	0	527	615
15	0	0	0	0	530	616
0	0	0	0	0	531	616
1	0	0	0	0	532	618
2	0	0	0	0	532	616
3	0	0	0	0	531	616
4	0	0	0	0	529	615
5	0	0	0	0	527	615
6	0	0	0	0	524	616
7	0	0	0	0	521	615
8	0	0	0	0	518	615
9	0	0	0	0	515	619
10	0	0	0	0	515	617
11	0	0	0	0	515	616
12	0	0	0	0	516	616
13	0	0	0	0	518	615
14	0	0	0	0	519	615
15	0	0	0	0	523	615
0	0	0	0	0	526	616
1	0	0	0	0	529	618
2	0	0	0	0	531	616
3	0	0	0	0	534	616
4	0	0	0	0	536	616
5	0	0	0	0	537	615
6	0	0	0	0	537	616
7	0	0	0	0	535	616
8	0	0	0	0	533	616
9	0	0	0	0	530	618
10	0	0	0	0	527	616
11	0	0	0	0	524	616
12	0	0	0	0	521	616
13	0	0	0	0	519	615
14	0	0	0	0	518	616
15	0	0	0	0	517	616
0	0	0	0	0	516	616
1	0	0	0	0	516	619
2	0	0	0	0	517	616
3	0	0	0	0	518	617
4	0	0	0	0	519	616
5	0	0	0	0	520	614
6	0	0	0	0	523	616
7	0	0	0	0	524	616
8	0	0	0	0	525	617
9	0	0	0	0	527	618
10	0	0	0	0	528	616
11	0	0	0	0	529	616
12	0	0	0	0	528	616
13	0	0	0	0	527	615
14	0	0	0	0	525	616
15	0	0	0	0	523	616
0	0	0	0	0	521	616
1	0	0	0	0	519	618
2	0	0	0	0	519	616
3	0	0	0	0	519	616
4	0	0	0	0	520	615
5	0	0	0	0	520	615
6	0	0	0	0	521	615
7	0	0	0	0	524	616
8	0	0	0	0	526	616
9	0	0	0	0	529	618
10	0	0	0	0	532	616
11	0	0	0	0	535	615
12	0	0	0	0	537	616
13	0	0	0	0	538	614
14	0	0	0	0	537	615
15	0	0	0	0	536	615
0	0	0	0	0	532	615
1	0	0	0	0	528	618
2	0	0	0	0	524	616
3	0	0	0	0	520	616
4	0	0	0	0	518	615
5	0	0	0	0	516	614
6	0	0	0	0	515	615
7	0	0	0	0	515	615
8	0	0	0	0	515	615
9	0	0	0	0	516	617
10	0	0	0	0	519	616
11	0	0	0	0	522	616
12	0	0	0	0	524	616
13	0	0	0	0	526	614
14	0	0	0	0	528	616
15	0	0	0	0	531	616
0	0	0	0	0	531	616
1	0	0	0	0	531	618
2	0	0	0	0	530	616
3	0	0	0	0	528	616
4	0	0	0	0	526	616
5	0	0	0	0	523	615
6	0	0	0	0	519	615
7	0	0	0	0	516	615
8	0	0	0	0	515	615
9	0	0	0	0	513	617
10	0	0	0	0	513	615
11	0	0	0	0	513	615
12	0	0	0	0	514	615
13	0	0	0	0	515	614
14	0	0	0	0	516	615
15	0	0	0	0	518	616
0	0	0	0	0	521	616
1	0	0	0	0	524	619
2	0	0	0	0	527	616
3	0	0	0	0	530	616
4	0	0	0	0	531	615
5	0	0	0	0	531	615
6	0	0	0	0	531	616
7	0	0	0	0	530	616
8	0	0	0	0	527	616
9	0	0	0	0	524	619
10	0	0	0	0	520	615
11	0	0	0	0	518	616
12	0	0	0	0	515	615
13	0	0	0	0	513	614
14	0	0	0	0	512	616
15	0	0	0	0	512	615
0	0	0	0	0	513	615
1	0	0	0	0	515	619
2	0	0	0	0	516	616
3	0	0	0	0	518	616
4	0	0	0	0	520	616
5	0	0	0	0	523	614
6	0	0	0	0	525	615
7	0	0	0	0	527	616
8	0	0	0	0	527	616
9	0	0	0	0	528	618
10	0	0	0	0	528	616
11	0	0	0	0	528	616
12	0	0	0	0	526	616
13	0	0	0	0	523	614
14	0	0	0	0	520	615
15	0	0	0	0	518	615
0	0	0	0	0	515	615
1	0	0	0	0	514	618
2	0	0	0	0	514	616
3	0	0	0	0	514	616
4	0	0	0	0	515	616
5	0	0	0	0	515	615
6	0	0	0	0	517	615
7	0	0	0	0	519	616
8	0	0	0	0	520	615
9	0	0	0	0	524	619
10	0	0	0	0	526	616
11	0	0	0	0	528	616
12	0	0	0	0	529	616
13	0	0	0	0	529	615
14	0	0	0	0	529	617
15	0	0	0	0	528	616
0	0	0	0	0	526	616
1	0	0	0	0	523	619
2	0	0	0	0	520	616
3	0	0	0	0	517	616
4	0	0	0	0	515	616
5	0	0	0	0	514	614
6	0	0	0	0	513	616
7	0	0	0	0	513	616
8	0	0	0	0	513	616
9	0	0	0	0	515	618
10	0	0	0	0	517	616
11	0	0	0	0	519	617
12	0	0	0	0	522	616
13	0	0	0	0	524	614
14	0	0	0	0	527	616
15	0	0	0	0	529	615
0	0	0	0	0	531	615
1	0	0	0	0	531	618
2	0	0	0	0	531	616
3	0	0	0	0	529	616
4	0	0	0	0	526	616
5	0	0	0	0	523	615
6	0	0	0	0	520	616
7	0	0	0	0	517	616
8	0	0	0	0	514	616
9	0	0	0	0	513	618
10	0	0	0	0	513	616
11	0	0	0	0	513	615
12	0	0	0	0	513	616
13	0	0	0	0	515	615
14	0	0	0	0	516	616
15	0	0	0	0	519	616
0	0	0	0	0	521	616
1	0	0	0	0	524	619
2	0	0	0	0	526	617
3	0	0	0	0	528	616
4	0	0	0	0	529	615
5	0	0	0	0	529	615
6	0	0	0	0	529	616
7	0	0	0	0	527	615
8	0	0	0	0	525	616
9	0	0	0	0	522	618
10	0	0	0	0	519	616
11	0	0	0	0	515	616
12	0	0	0	0	513	616
13	0	0	0	0	512	615
14	0	0	0	0	512	616
15	0	0	0	0	512	617
0	0	0	0	0	512	616
1	0	0	0	0	513	619
2	0	0	0	0	515	616
3	0	0	0	0	517	616
4	0	0	0	0	519	616
5	0	0	0	0	522	614
6	0	0	0	0	524	616
7	0	0	0	0	527	615
8	0	0	0	0	528	616
9	0	0	0	0	528	618
10	0	0	0	0	527	616
11	0	0	0	0	525	616
12	0	0	0	0	522	616
13	0	0	0	0	519	615
14	0	0	0	0	515	616
15	0	0	0	0	513	616
0	0	0	0	0	511	616
1	0	0	0	0	510	619
2	0	0	0	0	509	617
3	0	0	0	0	508	616
4	0	0	0	0	508	616
5	0	0	0	0	509	615
6	0	0	0	0	510	616
7	0	0	0	0	513	616
8	0	0	0	0	515	616
9	0	0	0	0	519	619
10	0	0	0	0	522	616
11	0	0	0	0	523	616
12	0	0	0	0	524	617
13	0	0	0	0	523	615
14	0	0	0	0	523	616
15	0	0	0	0	521	616
0	0	0	0	0	518	616
1	0	0	0	0	515	619
2	0	0	0	0	512	616
3	0	0	0	0	510	616
4	0	0	0	0	508	616
5	0	0	0	0	506	615
6	0	0	0	0	506	616
7	0	0	0	0	505	616
8	0	0	0	0	506	615
9	0	0	0	0	508	618
10	0	0	0	0	509	616
11	0	0	0	0	512	616
12	0	0	0	0	514	616
13	0	0	0	0	518	614
14	0	0	0	0	520	615
15	0	0	0	0	522	615
0	0	0	0	0	524	615
1	0	0	0	0	524	618
2	0	0	0	0	525	615
3	0	0	0	0	523	615
4	0	0	0	0	520	615
5	0	0	0	0	517	614
6	0	0	0	0	514	615
7	0	0	0	0	511	616
8	0	0	0	0	508	615
9	0	0	0	0	507	617
10	0	0	0	0	505	615
11	0	0	0	0	505	616
12	0	0	0	0	506	616
13	0	0	0	0	507	615
14	0	0	0	0	508	616
15	0	0	0	0	511	616
0	0	0	0	0	512	616
1	0	0	0	0	515	618
2	0	0	0	0	517	616
3	0	0	0	0	519	616
4	0	0	0	0	520	617
5	0	0	0	0	519	615
6	0	0	0	0	519	616
7	0	0	0	0	516	617
8	0	0	0	0	513	616
9	0	0	0	0	511	619
10	0	0	0	0	507	616
11	0	0	0	0	505	616
12	0	0	0	0	503	616
13	0	0	0	0	501	615
14	0	0	0	0	501	616
15	0	0	0	0	500	616
0	0	0	0	0	501	615
1	0	0	0	0	502	618
2	0	0	0	0	504	615
3	0	0	0	0	506	616
4	0	0	0	0	508	616
5	0	0	0	0	512	614
6	0	0	0	0	514	616
7	0	0	0	0	517	616
8	0	0	0	0	518	616
9	0	0	0	0	518	617
10	0	0	0	0	518	615
11	0	0	0	0	516	615
12	0	0	0	0	513	616
13	0	0	0	0	511	614
14	0	0	0	0	507	615
15	0	0	0	0	505	615
0	0	0	0	0	504	616
1	0	0	0	0	503	619
2	0	0	0	0	503	616
3	0	0	0	0	504	616
4	0	0	0	0	504	616
5	0	0	0	0	507	614
6	0	0	0	0	510	616
7	0	0	0	0	513	615
8	0	0	0	0	515	615
9	0	0	0	0	519	619
10	0	0	0	0	522	616
11	0	0	0	0	525	616
12	0	0	0	0	526	616
13	0	0	0	0	526	615
14	0	0	0	0	525	616
15	0	0	0	0	523	616
0	0	0	0	0	520	616
1	0	0	0	0	518	618
2	0	0	0	0	514	616
3	0	0	0	0	511	616
4	0	0	0	0	509	616
5	0	0	0	0	507	614
6	0	0	0	0	507	616
7	0	0	0	0	507	616
8	0	0	0	0	508	616
9	0	0	0	0	510	618
10	0	0	0	0	512	616
11	0	0	0	0	514	616
12	0	0	0	0	516	616
13	0	0	0	0	519	615
14	0	0	0	0	522	616
15	0	0	0	0	524	615
0	0	0	0	0	524	616
1	0	0	0	0	524	618
2	0	0	0	0	523	616
3	0	0	0	0	522	616
4	0	0	0	0	519	615
5	0	0	0	0	515	615
6	0	0	0	0	512	615
7	0	0	0	0	509	616
8	0	0	0	0	507	616
9	0	0	0	0	505	618
10	0	0	0	0	504	616
11	0	0	0	0	504	616
12	0	0	0	0	505	616
13	0	0	0	0	506	614
14	0	0	0	0	508	616
15	0	0	0	0	510	616
0	0	0	0	0	513	616
1	0	0	0	0	517	618
2	0	0	0	0	520	615
3	0	0	0	0	522	616
4	0	0	0	0	523	615
5	0	0	0	0	523	614
6	0	0	0	0	522	616
7	0	0	0	0	520	615
8	0	0	0	0	517	615
9	0	0	0	0	514	618
10	0	0	0	0	512	615
11	0	0	0	0	509	616
12	0	0	0	0	507	615
13	0	0	0	0	506	614
14	0	0	0	0	505	616
15	0	0	0	0	505	615
0	0	0	0	0	506	616
1	0	0	0	0	508	618
2	0	0	0	0	510	616
3	0	0	0	0	513	616
4	0	0	0	0	515	616
5	0	0	0	0	518	615
6	0	0	0	0	521	616
7	0	0	0	0	523	616
8	0	0	0	0	524	616
9	0	0	0	0	524	618
10	0	0	0	0	523	616
11	0	0	0	0	521	615
12	0	0	0	0	518	616
13	0	0	0	0	514	615
14	0	0	0	0	511	615
15	0	0	0	0	509	616
0	0	0	0	0	507	615
1	0	0	0	0	505	618
2	0	0	0	0	504	616
3	0	0	0	0	505	615
4	0	0	0	0	505	615
5	0	0	0	0	507	615
6	0	0	0	0	509	616
7	0	0	0	0	511	616
8	0	0	0	0	513	615
9	0	0	0	0	515	618
10	0	0	0	0	517	616
11	0	0	0	0	518	616
12	0	0	0	0	518	616
13	0	0	0	0	517	614
14	0	0	0	0	513	615
15	0	0	0	0	507	615
0	0	0	0	0	499	615
1	0	0	0	0	491	618
2	0	0	0	0	480	615
3	0	0	0	0	468	615
4	0	0	0	0	455	615
5	0	0	0	0	444	615
6	0	0	0	0	433	616
7	0	0	0	0	422	616
8	0	0	0	0	413	616
9	0	0	0	0	406	618
10	0	0	0	0	400	616
11	0	0	0	0	397	616
12	0	0	0	0	396	616
13	0	0	0	0	398	614
14	0	0	0	0	400	616
15	0	0	0	0	404	615
0	0	0	0	0	410	616
1	0	0	0	0	416	618
2	0	0	0	0	424	616
3	0	0	0	0	431	616
4	0	0	0	0	436	616
5	0	0	0	0	441	615
6	0	0	0	0	445	615
7	0	0	0	0	449	616
8	0	0	0	0	455	616
9	0	0	0	0	465	618
10	0	0	0	0	484	616
11	0	0	0	0	506	616
12	0	0	0	0	533	615
13	0	0	0	0	565	615
14	0	0	0	0	604	616
15	0	0	0	0	652	616
0	0	0	0	0	703	616
1	0	0	0	0	756	619
2	0	0	0	0	809	617
3	0	0	0	0	857	616
4	0	0	0	0	899	616
5	0	0	0	0	935	614
6	0	0	0	0	962	615
7	0	0	0	0	982	616
8	0	0	0	0	992	616
9	0	0	0	0	994	619
10	0	0	0	0	991	616
11	0	0	0	0	983	616
12	0	0	0	0	970	616
13	0	0	0	0	951	615
14	0	0	0	0	930	616
15	0	0	0	0	906	616
0	0	0	0	0	878	616
1	0	0	0	0	848	619
2	0	0	0	0	816	616
3	0	0	0	0	784	616
4	0	0	0	0	755	616
5	0	0	0	0	728	615
6	0	0	0	0	704	616
7	0	0	0	0	682	615
8	0	0	0	0	662	616
9	0	0	0	0	644	618
10	0	0	0	0	628	615
11	0	0	0	0	613	615
12	0	0	0	0	599	616
13	0	0	0	0	585	615
14	0	0	0	0	571	616
15	0	0	0	0	558	616
0	0	0	0	0	545	616
1	0	0	0	0	534	618
2	0	0	0	0	523	616
3	0	0	0	0	512	616
4	0	0	0	0	502	616
5	0	0	0	0	492	615
6	0	0	0	0	483	615
7	0	0	0	0	475	616
8	0	0	0	0	469	616
9	0	0	0	0	463	619
10	0	0	0	0	459	617
11	0	0	0	0	453	616
12	0	0	0	0	448	616
13	0	0	0	0	442	615
14	0	0	0	0	436	616
15	0	0	0	0	430	616
0	0	0	0	0	423	616
1	0	0	0	0	417	619
2	0	0	0	0	411	616
3	0	0	0	0	406	615
4	0	0	0	0	402	615
5	0	0	0	0	399	614
6	0	0	0	0	398	616
7	0	0	0	0	396	616
8	0	0	0	0	396	615
9	0	0	0	0	398	618
10	0	0	0	0	399	616
11	0	0	0	0	401	616
12	0	0	0	0	404	616
13	0	0	0	0	407	614
14	0	0	0	0	409	616
15	0	0	0	0	411	616
0	0	0	0	0	411	616
1	0	0	0	0	411	618
2	0	0	0	0	411	616
3	0	0	0	0	408	616
4	0	0	0	0	406	616
5	0	0	0	0	403	615
6	0	0	0	0	400	615
7	0	0	0	0	398	616
8	0	0	0	0	397	616
9	0	0	0	0	396	619
10	0	0	0	0	397	617
11	0	0	0	0	397	616
12	0	0	0	0	399	617
13	0	0	0	0	402	615
14	0	0	0	0	406	616
15	0	0	0	0	410	616
0	0	0	0	0	414	615
1	0	0	0	0	418	618
2	0	0	0	0	420	616
3	0	0	0	0	423	615
4	0	0	0	0	423	616
5	0	0	0	0	424	614
6	0	0	0	0	425	617
7	0	0	0	0	422	616
8	0	0	0	0	419	616
9	0	0	0	0	418	619
10	0	0	0	0	415	616
11	0	0	0	0	414	616
12	0	0	0	0	413	616
13	0	0	0	0	412	615
14	0	0	0	0	412	616
15	0	0	0	0	414	616
0	0	0	0	0	415	616
1	0	0	0	0	418	619
2	0	0	0	0	420	616
3	0	0	0	0	423	616
4	0	0	0	0	426	616
5	0	0	0	0	429	615
6	0	0	0	0	433	616
7	0	0	0	0	435	615
8	0	0	0	0	437	616
9	0	0	0	0	438	617
10	0	0	0	0	437	616
11	0	0	0	0	435	616
12	0	0	0	0	433	615
13	0	0	0	0	431	615
14	0	0	0	0	428	615
15	0	0	0	0	426	615
0	0	0	0	0	424	615
1	0	0	0	0	423	618
2	0	0	0	0	423	619
3	0	0	0	0	424	621
4	0	0	0	0	426	623
5	0	0	0	0	429	619
6	0	0	0	0	432	618
7	0	0	0	0	435	617
8	0	0	0	0	438	616
9	0	0	0	0	442	620
10	0	0	0	0	446	616
11	0	0	0	0	448	616
12	0	0	0	0	450	615
13	0	0	0	0	451	611
14	0	0	0	0	451	614
15	0	0	0	0	449	615
0	0	0	0	0	447	616
1	0	0	0	0	445	617
2	0	0	0	0	442	613
3	0	0	0	0	441	612
4	0	0	0	0	440	612
5	0	0	0	0	440	611
6	0	0	0	0	441	615
7	0	0	0	0	441	615
8	0	0	0	0	443	614
9	0	0	0	0	445	616
10	0	0	0	0	447	613
11	0	0	0	0	450	613
12	0	0	0	0	453	614
13	0	0	0	0	455	612
14	0	0	0	0	459	615
15	0	0	0	0	461	615
0	0	0	0	0	461	615
1	0	0	0	0	462	617
2	0	0	0	0	461	616
3	0	0	0	0	459	616
4	0	0	0	0	456	615
5	0	0	0	0	453	614
6	0	0	0	0	450	615
7	0	0	0	0	448	616
8	0	0	0	0	446	617
9	0	0	0	0	447	620
10	0	0	0	0	447	616
11	0	0	0	0	448	614
12	0	0	0	0	449	613
13	0	0	0	0	451	609
14	0	0	0	0	454	609
15	0	0	0	0	456	608
0	0	0	0	0	459	607
1	0	0	0	0	462	606
2	0	0	0	0	465	603
3	0	0	0	0	467	602
4	0	0	0	0	467	603
5	0	0	0	0	467	604
6	0	0	0	0	466	608
7	0	0	0	0	464	611
8	0	0	0	0	462	615
9	0	0	0	0	459	623
10	0	0	0	0	456	626
11	0	0	0	0	455	632
12	0	0	0	0	454	635
13	0	0	0	0	454	635
14	0	0	0	0	454	637
15	0	0	0	0	455	636
0	0	0	0	0	456	636
1	0	0	0	0	458	636
2	0	0	0	0	460	631
3	0	0	0	0	463	628
4	0	0	0	0	467	623
5	0	0	0	0	470	619
6	0	0	0	0	473	617
7	0	0	0	0	476	615
8	0	0	0	0	478	613
9	0	0	0	0	478	615
10	0	0	0	0	478	612
11	0	0	0	0	475	615
12	0	0	0	0	472	616
13	0	0	0	0	470	617
14	0	0	0	0	468	620
15	0	0	0	0	466	621
0	0	0	0	0	465	622
1	0	0	0	0	467	625
2	0	0	0	0	468	622
3	0	0	0	0	470	620
4	0	0	0	0	473	617
5	0	0	0	0	476	612
6	0	0	0	0	479	612
7	0	0	0	0	483	609
8	0	0	0	0	486	605
9	0	0	0	0	490	604
10	0	0	0	0	494	599
11	0	0	0	0	496	596
12	0	0	0	0	498	596
13	0	0	0	0	498	594
14	0	0	0	0	497	595
15	0	0	0	0	496	596
0	0	0	0	0	494	597
1	0	0	0	0	492	603
2	0	0	0	0	490	605
3	0	0	0	0	489	610
4	0	0	0	0	488	615
5	0	0	0	0	488	617
6	0	0	0	0	490	621
7	0	0	0	0	492	622
8	0	0	0	0	494	621
9	0	0	0	0	497	622
10	0	0	0	0	501	619
11	0	0	0	0	505	618
12	0	0	0	0	508	617
13	0	0	0	0	511	616
14	0	0	0	0	515	615
15	0	0	0	0	516	616
0	0	0	0	0	518	617
1	0	0	0	0	518	620
2	0	0	0	0	518	617
3	0	0	0	0	516	612
4	0	0	0	0	514	633
5	0	0	0	0	511	628
6	0	0	0	0	509	633
7	0	0	0	0	508	630
8	0	0	0	0	506	633
9	0	0	0	0	506	626
10	0	0	0	0	506	619
11	0	0	0	0	507	622
12	0	0	0	0	509	625
13	0	0	0	0	511	616
14	0	0	0	0	513	618
15	0	0	0	0	516	625
0	0	0	0	0	519	628
1	0	0	0	0	522	627
2	0	0	0	0	525	622
3	0	0	0	0	526	620
4	0	0	0	0	527	616
5	0	0	0	0	528	608
6	0	0	0	0	527	608
7	0	0	0	0	525	617
8	0	0	0	0	523	617
9	0	0	0	0	520	620
10	0	0	0	0	518	615
11	0	0	0	0	516	615
12	0	0	0	0	514	618
13	0	0	0	0	514	611
14	0	0	0	0	514	610
15	0	0	0	0	514	610
0	0	0	0	0	515	607
1	0	0	0	0	516	606
2	0	0	0	0	518	608
3	0	0	0	0	520	614
4	0	0	0	0	523	618
5	0	0	0	0	525	616
6	0	0	0	0	528	614
7	0	0	0	0	529	615
8	0	0	0	0	529	615
9	0	0	0	0	528	614
10	0	0	0	0	526	614
11	0	0	0	0	524	616
12	0	0	0	0	521	616
13	0	0	0	0	519	616
14	0	0	0	0	516	618
15	0	0	0	0	514	620
0	0	0	0	0	513	622
1	0	0	0	0	512	620
2	0	0	0	0	512	616
3	0	0	0	0	512	616
4	0	0	0	0	514	613
5	0	0	0	0	515	611
6	0	0	0	0	517	615
7	0	0	0	0	520	618
8	0	0	0	0	523	620
9	0	0	0	0	526	621
10	0	0	0	0	528	617
11	0	0	0	0	529	617
12	0	0	0	0	529	615
13	0	0	0	0	529	612
14	0	0	0	0	528	617
15	0	0	0	0	525	616
0	0	0	0	0	522	616
1	0	0	0	0	519	620
2	0	0	0	0	517	620
3	0	0	0	0	515	623
4	0	0	0	0	513	623
5	0	0	0	0	512	619
6	0	0	0	0	511	620
7	0	0	0	0	512	617
8	0	0	0	0	512	617
9	0	0	0	0	514	620
10	0	0	0	0	516	618
11	0	0	0	0	518	619
12	0	0	0	0	520	618
13	0	0	0	0	523	615
14	0	0	0	0	525	617
15	0	0	0	0	527	616
0	0	0	0	0	527	614
1	0	0	0	0	526	615
2	0	0	0	0	524	612
3	0	0	0	0	521	610
4	0	0	0	0	518	610
5	0	0	0	0	516	610
6	0	0	0	0	513	613
7	0	0	0	0	512	615
8	0	0	0	0	511	614
9	0	0	0	0	509	615
10	0	0	0	0	510	614
11	0	0	0	0	509	613
12	0	0	0	0	510	613
13	0	0	0	0	512	611
14	0	0	0	0	513	614
15	0	0	0	0	516	615
0	0	0	0	0	519	615
1	0	0	0	0	521	618
2	0	0	0	0	524	618
3	0	0	0	0	524	618
4	0	0	0	0	524	618
5	0	0	0	0	524	616
6	0	0	0	0	523	617
7	0	0	0	0	520	617
8	0	0	0	0	517	617
9	0	0	0	0	514	620
10	0	0	0	0	512	620
11	0	0	0	0	510	620
12	0	0	0	0	509	619
13	0	0	0	0	508	617
14	0	0	0	0	507	617
15	0	0	0	0	507	617
0	0	0	0	0	510	617
1	0	0	0	0	512	619
2	0	0	0	0	514	616
3	0	0	0	0	516	616
4	0	0	0	0	519	615
5	0	0	0	0	522	616
6	0	0	0	0	525	617
7	0	0	0	0	526	616
8	0	0	0	0	526	616
9	0	0	0	0	525	617
10	0	0	0	0	523	615
11	0	0	0	0	521	615
12	0	0	0	0	518	616
13	0	0	0	0	515	615
14	0	0	0	0	512	616
15	0	0	0	0	511	617
0	0	0	0	0	509	617
1	0	0	0	0	509	619
2	0	0	0	0	508	617
3	0	0	0	0	510	617
4	0	0	0	0	511	616
5	0	0	0	0	512	615
6	0	0	0	0	514	616
7	0	0	0	0	517	616
8	0	0	0	0	519	616
9	0	0	0	0	523	619
10	0	0	0	0	526	616
11	0	0	0	0	527	615
12	0	0	0	0	527	615
13	0	0	0	0	527	612
14	0	0	0	0	525	614
15	0	0	0	0	523	613
0	0	0	0	0	519	613
1	0	0	0	0	516	616
2	0	0	0	0	513	614
3	0	0	0	0	510	614
4	0	0	0	0	509	614
5	0	0	0	0	509	613
6	0	0	0	0	509	615
7	0	0	0	0	511	615
8	0	0	0	0	512	615
9	0	0	0	0	514	617
10	0	0	0	0	516	616
11	0	0	0	0	519	616
12	0	0	0	0	521	617
13	0	0	0	0	525	616
14	0	0	0	0	526	618
15	0	0	0	0	527	617
0	0	0	0	0	527	618
1	0	0	0	0	527	620
2	0	0	0	0	525	619
3	0	0	0	0	524	618
4	0	0	0	0	521	618
5	0	0	0	0	519	617
6	0	0	0	0	518	618
7	0	0	0	0	516	619
8	0	0	0	0	515	618
9	0	0	0	0	514	620
10	0	0	0	0	515	617
11	0	0	0	0	515	617
12	0	0	0	0	516	616
13	0	0	0	0	518	615
14	0	0	0	0	520	615
15	0	0	0	0	523	616
0	0	0	0	0	526	615
1	0	0	0	0	528	617
2	0	0	0	0	530	615
3	0	0	0	0	530	615
4	0	0	0	0	530	615
5	0	0	0	0	528	614
6	0	0	0	0	526	615
7	0	0	0	0	523	614
8	0	0	0	0	520	614
9	0	0	0	0	518	617
10	0	0	0	0	515	615
11	0	0	0	0	512	615
12	0	0	0	0	511	615
13	0	0	0	0	510	614
14	0	0	0	0	511	615
15	0	0	0	0	512	615
0	0	0	0	0	513	615
1	0	0	0	0	516	617
2	0	0	0	0	518	615
3	0	0	0	0	522	616
4	0	0	0	0	526	615
5	0	0	0	0	528	613
6	0	0	0	0	530	615
7	0	0	0	0	531	615
8	0	0	0	0	531	615
9	0	0	0	0	529	618
10	0	0	0	0	527	615
11	0	0	0	0	525	615
12	0	0	0	0	521	615
13	0	0	0	0	518	613
14	0	0	0	0	515	615
15	0	0	0	0	512	616
0	0	0	0	0	511	615
1	0	0	0	0	510	618
2	0	0	0	0	510	616
3	0	0	0	0	511	616
4	0	0	0	0	513	617
5	0	0	0	0	516	615
6	0	0	0	0	518	616
7	0	0	0	0	521	617
8	0	0	0	0	523	617
9	0	0	0	0	526	619
10	0	0	0	0	529	617
11	0	0	0	0	529	617
12	0	0	0	0	529	617
13	0	0	0	0	528	616
14	0	0	0	0	526	618
15	0	0	0	0	524	617
0	0	0	0	0	521	617
1	0	0	0	0	519	620
2	0	0	0	0	516	617
3	0	0	0	0	515	617
4	0	0	0	0	514	617
5	0	0	0	0	514	615
6	0	0	0	0	514	617
7	0	0	0	0	514	616
8	0	0	0	0	515	616
9	0	0	0	0	517	618
10	0	0	0	0	519	616
11	0	0	0	0	521	616
12	0	0	0	0	524	615
13	0	0	0	0	526	614
14	0	0	0	0	527	615
15	0	0	0	0	527	615
0	0	0	0	0	528	615
1	0	0	0	0	528	617
2	0	0	0	0	526	615
3	0	0	0	0	523	615
4	0	0	0	0	519	614
5	0	0	0	0	517	614
6	0	0	0	0	514	615
7	0	0	0	0	512	615
8	0	0	0	0	510	615
9	0	0	0	0	509	617
10	0	0	0	0	509	616
11	0	0	0	0	509	616
12	0	0	0	0	511	616
13	0	0	0	0	513	614
14	0	0	0	0	515	616
15	0	0	0	0	518	615
0	0	0	0	0	520	616
1	0	0	0	0	523	618
2	0	0	0	0	525	616
3	0	0	0	0	526	616
4	0	0	0	0	526	617
5	0	0	0	0	526	615
6	0	0	0	0	524	617
7	0	0	0	0	522	617
8	0	0	0	0	519	616
9	0	0	0	0	517	619
10	0	0	0	0	514	616
11	0	0	0	0	512	617
12	0	0	0	0	511	617
13	0	0	0	0	510	615
14	0	0	0	0	510	617
15	0	0	0	0	511	617
0	0	0	0	0	512	616
1	0	0	0	0	514	619
2	0	0	0	0	516	616
3	0	0	0	0	519	616
4	0	0	0	0	520	616
5	0	0	0	0	522	615
6	0	0	0	0	523	616
7	0	0	0	0	523	616
8	0	0	0	0	523	617
9	0	0	0	0	522	619
10	0	0	0	0	520	616
11	0	0	0	0	518	616
12	0	0	0	0	515	616
13	0	0	0	0	513	615
14	0	0	0	0	510	616
15	0	0	0	0	509	616
0	0	0	0	0	509	616
1	0	0	0	0	508	617
2	0	0	0	0	509	615
3	0	0	0	0	510	615
4	0	0	0	0	511	615
5	0	0	0	0	512	614
6	0	0	0	0	513	615
7	0	0	0	0	515	615
8	0	0	0	0	518	615
9	0	0	0	0	520	618
10	0	0	0	0	522	615
11	0	0	0	0	523	615
12	0	0	0	0	523	615
13	0	0	0	0	522	614
14	0	0	0	0	520	615
15	0	0	0	0	518	615
0	0	0	0	0	514	615
1	0	0	0	0	512	618
2	0	0	0	0	510	616
3	0	0	0	0	508	616
4	0	0	0	0	507	616
5	0	0	0	0	505	615
6	0	0	0	0	505	617
7	0	0	0	0	505	617
8	0	0	0	0	507	617
9	0	0	0	0	508	619
10	0	0	0	0	509	617
11	0	0	0	0	511	617
12	0	0	0	0	513	616
13	0	0	0	0	515	615
14	0	0	0	0	516	617
15	0	0	0	0	517	616
0	0	0	0	0	517	617
1	0	0	0	0	516	619
2	0	0	0	0	514	616
3	0	0	0	0	512	617
4	0	0	0	0	509	616
5	0	0	0	0	506	615
6	0	0	0	0	504	616
7	0	0	0	0	502	616
8	0	0	0	0	501	616
9	0	0	0	0	501	618
10	0	0	0	0	501	616
11	0	0	0	0	502	616
12	0	0	0	0	504	615
13	0	0	0	0	506	615
14	0	0	0	0	508	615
15	0	0	0	0	511	615
0	0	0	0	0	515	615
1	0	0	0	0	518	618
2	0	0	0	0	520	615
3	0	0	0	0	521	615
4	0	0	0	0	523	616
5	0	0	0	0	523	614
6	0	0	0	0	522	616
7	0	0	0	0	521	615
8	0	0	0	0	518	615
9	0	0	0	0	515	617
10	0	0	0	0	512	615
11	0	0	0	0	510	616
12	0	0	0	0	509	616
13	0	0	0	0	508	614
14	0	0	0	0	509	615
15	0	0	0	0	509	615
0	0	0	0	0	511	616
1	0	0	0	0	512	618
2	0	0	0	0	514	615
3	0	0	0	0	516	615
4	0	0	0	0	519	615
5	0	0	0	0	521	615
6	0	0	0	0	523	616
7	0	0	0	0	525	616
8	0	0	0	0	525	616
9	0	0	0	0	524	618
10	0	0	0	0	523	615
11	0	0	0	0	520	616
12	0	0	0	0	517	616
13	0	0	0	0	513	614
14	0	0	0	0	511	616
15	0	0	0	0	509	615
0	0	0	0	0	507	616
1	0	0	0	0	507	619
2	0	0	0	0	507	616
3	0	0	0	0	508	616
4	0	0	0	0	509	616
5	0	0	0	0	510	615
6	0	0	0	0	512	616
7	0	0	0	0	515	616
8	0	0	0	0	517	616
9	0	0	0	0	520	619
10	0	0	0	0	521	617
11	0	0	0	0	522	616
12	0	0	0	0	522	617
13	0	0	0	0	521	615
14	0	0	0	0	519	616
15	0	0	0	0	516	616
0	0	0	0	0	513	615
1	0	0	0	0	512	617
2	0	0	0	0	510	615
3	0	0	0	0	508	615
4	0	0	0	0	508	615
5	0	0	0	0	507	614
6	0	0	0	0	508	616
7	0	0	0	0	507	615
8	0	0	0	0	509	615
9	0	0	0	0	511	618
10	0	0	0	0	512	615
11	0	0	0	0	515	616
12	0	0	0	0	518	615
13	0	0	0	0	519	614
14	0	0	0	0	521	615
15	0	0	0	0	521	615
0	0	0	0	0	520	615
1	0	0	0	0	519	617
2	0	0	0	0	518	616
3	0	0	0	0	514	616
4	0	0	0	0	511	616
5	0	0	0	0	508	615
6	0	0	0	0	506	616
7	0	0	0	0	505	616
8	0	0	0	0	504	616
9	0	0	0	0	504	618
10	0	0	0	0	504	616
11	0	0	0	0	504	616
12	0	0	0	0	505	616
13	0	0	0	0	508	614
14	0	0	0	0	510	616
15	0	0	0	0	513	616
0	0	0	0	0	515	616
1	0	0	0	0	518	619
2	0	0	0	0	519	616
3	0	0	0	0	519	616
4	0	0	0	0	518	616
5	0	0	0	0	515	615
6	0	0	0	0	512	616
7	0	0	0	0	510	616
8	0	0	0	0	507	616
9	0	0	0	0	503	619
10	0	0	0	0	500	617
11	0	0	0	0	497	616
12	0	0	0	0	494	616
13	0	0	0	0	491	615
14	0	0	0	0	487	616
15	0	0	0	0	481	616
0	0	0	0	0	474	616
1	0	0	0	0	467	618
2	0	0	0	0	459	616
3	0	0	0	0	451	616
4	0	0	0	0	444	616
5	0	0	0	0	436	614
6	0	0	0	0	429	616
7	0	0	0	0	420	616
8	0	0	0	0	412	616
9	0	0	0	0	406	618
10	0	0	0	0	399	615
11	0	0	0	0	395	615
12	0	0	0	0	392	615
13	0	0	0	0	392	614
14	0	0	0	0	393	616
15	0	0	0	0	398	616
0	0	0	0	0	404	616
1	0	0	0	0	412	618
2	0	0	0	0	420	615
3	0	0	0	0	428	615
4	0	0	0	0	437	616
5	0	0	0	0	446	614
6	0	0	0	0	457	616
7	0	0	0	0	474	616
8	0	0	0	0	496	616
9	0	0	0	0	524	619
10	0	0	0	0	553	616
11	0	0	0	0	588	616
12	0	0	0	0	631	616
13	0	0	0	0	676	615
14	0	0	0	0	724	616
15	0	0	0	0	776	616
0	0	0	0	0	824	616
1	0	0	0	0	868	619
2	0	0	0	0	908	616
3	0	0	0	0	941	617
4	0	0	0	0	968	617
5	0	0	0	0	988	615
6	0	0	0	0	1001	617
7	0	0	0	0	1007	617
8	0	0	0	0	1011	616
9	0	0	0	0	1010	619
10	0	0	0	0	1004	617
11	0	0	0	0	992	617
12	0	0	0	0	977	617
13	0	0	0	0	957	615
14	0	0	0	0	932	616
15	0	0	0	0	903	616
0	0	0	0	0	868	616
1	0	0	0	0	832	618
2	0	0	0	0	795	616
3	0	0	0	0	760	616
4	0	0	0	0	729	616
5	0	0	0	0	701	615
6	0	0	0	0	675	616
7	0	0	0	0	653	616
8	0	0	0	0	633	615
9	0	0	0	0	616	618
10	0	0	0	0	602	615
11	0	0	0	0	590	616
12	0	0	0	0	579	615
13	0	0	0	0	568	614
14	0	0	0	0	557	615
15	0	0	0	0	546	616
0	0	0	0	0	536	615
1	0	0	0	0	525	617
2	0	0	0	0	513	615
3	0	0	0	0	501	615
4	0	0	0	0	489	616
5	0	0	0	0	477	614
6	0	0	0	0	465	615
7	0	0	0	0	453	616
8	0	0	0	0	442	615
9	0	0	0	0	432	618
10	0	0	0	0	423	615
11	0	0	0	0	416	616
12	0	0	0	0	411	616
13	0	0	0	0	406	614
14	0	0	0	0	403	616
15	0	0	0	0	401	616
0	0	0	0	0	400	616
1	0	0	0	0	399	619
2	0	0	0	0	400	616
3	0	0	0	0	400	617
4	0	0	0	0	401	616
5	0	0	0	0	403	615
6	0	0	0	0	403	615
7	0	0	0	0	403	616
8	0	0	0	0	401	615
9	0	0	0	0	400	619
10	0	0	0	0	399	616
11	0	0	0	0	396	616
12	0	0	0	0	393	616
13	0	0	0	0	391	615
14	0	0	0	0	388	616
15	0	0	0	0	387	616
0	0	0	0	0	385	616
1	0	0	0	0	385	619
2	0	0	0	0	386	616
3	0	0	0	0	387	616
4	0	0	0	0	390	616
5	0	0	0	0	393	615
6	0	0	0	0	396	616
7	0	0	0	0	399	616
8	0	0	0	0	402	616
9	0	0	0	0	405	618
10	0	0	0	0	407	616
11	0	0	0	0	408	615
12	0	0	0	0	409	616
13	0	0	0	0	408	615
14	0	0	0	0	407	615
15	0	0	0	0	406	616
0	0	0	0	0	403	616
1	0	0	0	0	401	619
2	0	0	0	0	400	616
3	0	0	0	0	399	616
4	0	0	0	0	399	616
5	0	0	0	0	400	614
6	0	0	0	0	402	616
7	0	0	0	0	404	616
8	0	0	0	0	406	615
9	0	0	0	0	409	618
10	0	0	0	0	412	615
11	0	0	0	0	416	616
12	0	0	0	0	420	616
13	0	0	0	0	423	615
14	0	0	0	0	425	616
15	0	0	0	0	426	616
0	0	0	0	0	427	616
1	0	0	0	0	427	618
2	0	0	0	0	425	617
3	0	0	0	0	423	617
4	0	0	0	0	421	616
5	0	0	0	0	419	615
6	0	0	0	0	418	617
7	0	0	0	0	417	616
8	0	0	0	0	417	616
9	0	0	0	0	418	618
10	0	0	0	0	419	616
11	0	0	0	0	420	615
12	0	0	0	0	422	615
13	0	0	0	0	424	615
14	0	0	0	0	427	616
15	0	0	0	0	430	616
0	0	0	0	0	433	615
1	0	0	0	0	436	618
2	0	0	0	0	439	616
3	0	0	0	0	441	616
4	0	0	0	0	442	615
5	0	0	0	0	441	615
6	0	0	0	0	440	615
7	0	0	0	0	438	616
8	0	0	0	0	434	615
9	0	0	0	0	433	619
10	0	0	0	0	432	616
11	0	0	0	0	430	615
12	0	0	0	0	430	615
13	0	0	0	0	430	614
14	0	0	0	0	431	616
15	0	0	0	0	432	615
0	0	0	0	0	435	615
1	0	0	0	0	438	618
2	0	0	0	0	440	615
3	0	0	0	0	444	616
4	0	0	0	0	447	615
5	0	0	0	0	449	615
6	0	0	0	0	452	616
7	0	0	0	0	452	615
8	0	0	0	0	452	616
9	0	0	0	0	451	617
10	0	0	0	0	449	615
11	0	0	0	0	447	615
12	0	0	0	0	445	615
13	0	0	0	0	443	614
14	0	0	0	0	441	616
15	0	0	0	0	440	616
0	0	0	0	0	440	616
1	0	0	0	0	439	619
2	0	0	0	0	440	616
3	0	0	0	0	440	616
4	0	0	0	0	442	616
5	0	0	0	0	444	614
6	0	0	0	0	447	615
7	0	0	0	0	450	616
8	0	0	0	0	452	615
9	0	0	0	0	455	618
10	0	0	0	0	457	615
11	0	0	0	0	457	616
12	0	0	0	0	457	616
13	0	0	0	0	456	615
14	0	0	0	0	454	616
15	0	0	0	0	452	616
0	0	0	0	0	449	616
1	0	0	0	0	448	618
2	0	0	0	0	445	616
3	0	0	0	0	444	616
4	0	0	0	0	442	616
5	0	0	0	0	442	615
6	0	0	0	0	443	616
7	0	0	0	0	444	616
8	0	0	0	0	446	616
9	0	0	0	0	449	619
10	0	0	0	0	452	616
11	0	0	0	0	455	616
12	0	0	0	0	458	615
13	0	0	0	0	461	614
14	0	0	0	0	463	616
15	0	0	0	0	463	615
0	0	0	0	0	463	615
1	0	0	0	0	462	618
2	0	0	0	0	460	615
3	0	0	0	0	458	615
4	0	0	0	0	455	615
5	0	0	0	0	452	614
6	0	0	0	0	451	615
7	0	0	0	0	451	615
8	0	0	0	0	451	615
9	0	0	0	0	451	617
10	0	0	0	0	453	615
11	0	0	0	0	454	615
12	0	0	0	0	456	615
13	0	0	0	0	459	614
14	0	0	0	0	462	615
15	0	0	0	0	466	615
0	0	0	0	0	469	616
1	0	0	0	0	472	619
2	0	0	0	0	475	616
3	0	0	0	0	477	616
4	0	0	0	0	477	617
5	0	0	0	0	477	615
6	0	0	0	0	476	616
7	0	0	0	0	475	616
8	0	0	0	0	473	615
9	0	0	0	0	472	619
10	0	0	0	0	471	616
11	0	0	0	0	471	615
12	0	0	0	0	472	616
13	0	0	0	0	473	615
14	0	0	0	0	476	615
15	0	0	0	0	477	616
0	0	0	0	0	479	615
1	0	0	0	0	482	618
2	0	0	0	0	484	616
3	0	0	0	0	488	616
4	0	0	0	0	491	616
5	0	0	0	0	495	615
6	0	0	0	0	497	617
7	0	0	0	0	498	616
8	0	0	0	0	499	616
9	0	0	0	0	499	618
10	0	0	0	0	498	616
11	0	0	0	0	497	616
12	0	0	0	0	495	616
13	0	0	0	0	494	615
14	0	0	0	0	492	616
15	0	0	0	0	492	616
0	0	0	0	0	492	616
1	0	0	0	0	494	618
2	0	0	0	0	496	616
3	0	0	0	0	497	616
4	0	0	0	0	499	616
5	0	0	0	0	501	614
6	0	0	0	0	504	616
7	0	0	0	0	507	616
8	0	0	0	0	511	616
9	0	0	0	0	513	618
10	0	0	0	0	516	617
11	0	0	0	0	516	616
12	0	0	0	0	518	616
13	0	0	0	0	518	614
14	0	0	0	0	516	616
15	0	0	0	0	515	616
0	0	0	0	0	513	616
1	0	0	0	0	512	619
2	0	0	0	0	511	616
3	0	0	0	0	509	616
4	0	0	0	0	507	616
5	0	0	0	0	507	615
6	0	0	0	0	508	617
7	0	0	0	0	509	616
8	0	0	0	0	512	616
9	0	0	0	0	514	619
10	0	0	0	0	515	616
11	0	0	0	0	517	616
12	0	0	0	0	518	615
13	0	0	0	0	519	615
14	0	0	0	0	520	616
15	0	0	0	0	519	616
0	0	0	0	0	519	616
1	0	0	0	0	518	618
2	0	0	0	0	517	616
3	0	0	0	0	516	615
4	0	0	0	0	515	616
5	0	0	0	0	513	615
6	0	0	0	0	512	616
7	0	0	0	0	512	616
8	0	0	0	0	513	616
9	0	0	0	0	515	617
10	0	0	0	0	517	616
11	0	0	0	0	519	616
12	0	0	0	0	522	616
13	0	0	0	0	525	614
14	0	0	0	0	528	616
15	0	0	0	0	531	616
0	0	0	0	0	534	616
1	0	0	0	0	537	618
2	0	0	0	0	538	616
3	0	0	0	0	539	616
4	0	0	0	0	539	616
5	0	0	0	0	537	615
6	0	0	0	0	535	616
7	0	0	0	0	532	616
8	0	0	0	0	528	616
9	0	0	0	0	525	619
10	0	0	0	0	523	616
11	0	0	0	0	521	616
12	0	0	0	0	521	616
13	0	0	0	0	522	614
14	0	0	0	0	524	617
15	0	0	0	0	526	616
0	0	0	0	0	528	616
1	0	0	0	0	531	619
2	0	0	0	0	533	615
3	0	0	0	0	536	616
4	0	0	0	0	536	616
5	0	0	0	0	538	615
6	0	0	0	0	539	616
7	0	0	0	0	540	617
8	0	0	0	0	540	616
9	0	0	0	0	538	618
10	0	0	0	0	535	616
11	0	0	0	0	531	616
12	0	0	0	0	529	615
13	0	0	0	0	526	615
14	0	0	0	0	524	616
15	0	0	0	0	523	616
0	0	0	0	0	523	615
1	0	0	0	0	523	617
2	0	0	0	0	523	616
3	0	0	0	0	524	616
4	0	0	0	0	527	616
5	0	0	0	0	529	614
6	0	0	0	0	530	615
7	0	0	0	0	532	615
8	0	0	0	0	535	615
9	0	0	0	0	537	618
10	0	0	0	0	538	616
11	0	0	0	0	538	616
12	0	0	0	0	537	616
13	0	0	0	0	536	615
14	0	0	0	0	533	616
15	0	0	0	0	529	616
0	0	0	0	0	527	616
1	0	0	0	0	524	618
2	0	0	0	0	524	616
3	0	0	0	0	522	616
4	0	0	0	0	521	616
5	0	0	0	0	520	614
6	0	0	0	0	521	616
7	0	0	0	0	521	615
8	0	0	0	0	523	616
9	0	0	0	0	525	618
10	0	0	0	0	527	615
11	0	0	0	0	529	616
12	0	0	0	0	531	615
13	0	0	0	0	533	614
14	0	0	0	0	534	615
15	0	0	0	0	534	615
0	0	0	0	0	533	615
1	0	0	0	0	531	617
2	0	0	0	0	529	616
3	0	0	0	0	526	616
4	0	0	0	0	523	615
5	0	0	0	0	520	614
6	0	0	0	0	518	615
7	0	0	0	0	517	616
8	0	0	0	0	516	616
9	0	0	0	0	516	618
10	0	0	0	0	516	616
11	0	0	0	0	518	616
12	0	0	0	0	519	616
13	0	0	0	0	522	615
14	0	0	0	0	524	616
15	0	0	0	0	527	616
0	0	0	0	0	530	616
1	0	0	0	0	532	618
2	0	0	0	0	533	616
3	0	0	0	0	533	616
4	0	0	0	0	532	616
5	0	0	0	0	530	614
6	0	0	0	0	527	616
7	0	0	0	0	524	615
8	0	0	0	0	521	615
9	0	0	0	0	519	618
10	0	0	0	0	516	616
11	0	0	0	0	515	616
12	0	0	0	0	515	616
13	0	0	0	0	515	615
14	0	0	0	0	515	616
15	0	0	0	0	516	617
0	0	0	0	0	519	616
1	0	0	0	0	521	619
2	0	0	0	0	523	616
3	0	0	0	0	525	616
4	0	0	0	0	527	616
5	0	0	0	0	529	615
6	0	0	0	0	531	616
7	0	0	0	0	530	615
8	0	0	0	0	529	616
9	0	0	0	0	527	618
10	0	0	0	0	526	616
11	0	0	0	0	523	616
12	0	0	0	0	519	616
13	0	0	0	0	517	615
14	0	0	0	0	515	616
15	0	0	0	0	513	616
0	0	0	0	0	513	616
1	0	0	0	0	514	619
2	0	0	0	0	514	616
3	0	0	0	0	516	617
4	0	0	0	0	518	616
5	0	0	0	0	519	615
6	0	0	0	0	522	616
7	0	0	0	0	524	616
8	0	0	0	0	526	616
9	0	0	0	0	528	618
10	0	0	0	0	529	616
11	0	0	0	0	528	616
12	0	0	0	0	528	616
13	0	0	0	0	527	615
14	0	0	0	0	524	616
15	0	0	0	0	522	616
0	0	0	0	0	519	616
1	0	0	0	0	516	619
2	0	0	0	0	514	616
3	0	0	0	0	513	615
4	0	0	0	0	513	616
5	0	0	0	0	513	614
6	0	0	0	0	513	616
7	0	0	0	0	515	616
8	0	0	0	0	518	616
9	0	0	0	0	520	618
10	0	0	0	0	521	616
11	0	0	0	0	523	616
12	0	0	0	0	526	615
13	0	0	0	0	527	614
14	0	0	0	0	527	616
15	0	0	0	0	527	616
0	0	0	0	0	527	616
1	0	0	0	0	526	618
2	0	0	0	0	524	616
3	0	0	0	0	522	616
4	0	0	0	0	520	615
5	0	0	0	0	519	614
6	0	0	0	0	518	615
7	0	0	0	0	517	615
8	0	0	0	0	516	615
9	0	0	0	0	516	619
10	0	0	0	0	516	616
11	0	0	0	0	517	616
12	0	0	0	0	518	616
13	0	0	0	0	519	615
14	0	0	0	0	520	616
15	0	0	0	0	522	616
0	0	0	0	0	524	616
1	0	0	0	0	525	618
2	0	0	0	0	526	617
3	0	0	0	0	526	616
4	0	0	0	0	526	616
5	0	0	0	0	525	615
6	0	0	0	0	524	616
7	0	0	0	0	521	616
8	0	0	0	0	519	616
9	0	0	0	0	518	619
10	0	0	0	0	517	616
11	0	0	0	0	517	615
12	0	0	0	0	517	615
13	0	0	0	0	517	614
14	0	0	0	0	518	615
15	0	0	0	0	518	615
0	0	0	0	0	520	615
1	0	0	0	0	521	618
2	0	0	0	0	523	615
3	0	0	0	0	525	616
4	0	0	0	0	526	615
5	0	0	0	0	527	614
6	0	0	0	0	528	615
7	0	0	0	0	528	615
8	0	0	0	0	528	616
9	0	0	0	0	528	618
10	0	0	0	0	527	616
11	0	0	0	0	525	616
12	0	0	0	0	522	616
13	0	0	0	0	520	615
14	0	0	0	0	519	616
15	0	0	0	0	518	615
0	0	0	0	0	517	615
1	0	0	0	0	517	617
2	0	0	0	0	517	615
3	0	0	0	0	518	615
4	0	0	0	0	518	616
5	0	0	0	0	519	615
6	0	0	0	0	521	616
7	0	0	0	0	522	616
8	0	0	0	0	523	616
9	0	0	0	0	525	618
10	0	0	0	0	525	616
11	0	0	0	0	526	615
12	0	0	0	0	526	616
13	0	0	0	0	525	614
14	0	0	0	0	524	616
15	0	0	0	0	523	616
0	0	0	0	0	521	616
1	0	0	0	0	519	619
2	0	0	0	0	518	617
3	0	0	0	0	516	616
4	0	0	0	0	515	617
5	0	0	0	0	515	615
6	0	0	0	0	515	617
7	0	0	0	0	516	616
8	0	0	0	0	518	616
9	0	0	0	0	519	619
10	0	0	0	0	521	616
11	0	0	0	0	523	617
12	0	0	0	0	524	616
13	0	0	0	0	525	615
14	0	0	0	0	526	616
15	0	0	0	0	526	616
0	0	0	0	0	527	616
1	0	0	0	0	527	619
2	0	0	0	0	525	616
3	0	0	0	0	524	616
4	0	0	0	0	521	616
5	0	0	0	0	519	615
6	0	0	0	0	518	616
7	0	0	0	0	516	616
8	0	0	0	0	516	616
9	0	0	0	0	515	619
10	0	0	0	0	515	616
11	0	0	0	0	515	616
12	0	0	0	0	515	616
13	0	0	0	0	516	615
14	0	0	0	0	516	616
15	0	0	0	0	518	616
0	0	0	0	0	519	616
1	0	0	0	0	521	618
2	0	0	0	0	521	616
3	0	0	0	0	521	615
4	0	0	0	0	520	616
5	0	0	0	0	519	615
6	0	0	0	0	518	617
7	0	0	0	0	516	616
8	0	0	0	0	515	616
9	0	0	0	0	515	618
10	0	0	0	0	514	615
11	0	0	0	0	513	616
12	0	0	0	0	514	615
13	0	0	0	0	514	614
14	0	0	0	0	514	615
15	0	0	0	0	515	615
0	0	0	0	0	515	616
1	0	0	0	0	516	618
2	0	0	0	0	516	617
3	0	0	0	0	518	616
4	0	0	0	0	519	616
5	0	0	0	0	521	614
6	0	0	0	0	521	616
7	0	0	0	0	521	616
8	0	0	0	0	520	615
9	0	0	0	0	519	619
10	0	0	0	0	517	617
11	0	0	0	0	515	617
12	0	0	0	0	513	616
13	0	0	0	0	512	615
14	0	0	0	0	511	616
15	0	0	0	0	511	616
0	0	0	0	0	511	616
1	0	0	0	0	511	619
2	0	0	0	0	511	616
3	0	0	0	0	511	616
4	0	0	0	0	511	616
5	0	0	0	0	512	614
6	0	0	0	0	513	615
7	0	0	0	0	513	616
8	0	0	0	0	513	615
9	0	0	0	0	514	618
10	0	0	0	0	514	616
11	0	0	0	0	514	615
12	0	0	0	0	513	616
13	0	0	0	0	511	614
14	0	0	0	0	510	616
15	0	0	0	0	509	616
0	0	0	0	0	508	616
1	0	0	0	0	507	619
2	0	0	0	0	506	616
3	0	0	0	0	506	616
4	0	0	0	0	504	616
5	0	0	0	0	504	614
6	0	0	0	0	504	616
7	0	0	0	0	504	615
8	0	0	0	0	505	615
9	0	0	0	0	507	618
10	0	0	0	0	508	616
11	0	0	0	0	511	616
12	0	0	0	0	512	616
13	0	0	0	0	512	615
14	0	0	0	0	511	616
15	0	0	0	0	511	616
0	0	0	0	0	510	617
1	0	0	0	0	508	619
2	0	0	0	0	506	616
3	0	0	0	0	504	615
4	0	0	0	0	504	616
5	0	0	0	0	504	615
6	0	0	0	0	503	615
7	0	0	0	0	503	615
8	0	0	0	0	502	615
9	0	0	0	0	502	617
10	0	0	0	0	503	616
11	0	0	0	0	504	615
12	0	0	0	0	505	615
13	0	0	0	0	507	615
14	0	0	0	0	508	615
15	0	0	0	0	511	616
0	0	0	0	0	512	615
1	0	0	0	0	514	618
2	0	0	0	0	515	616
3	0	0	0	0	516	616
4	0	0	0	0	517	616
5	0	0	0	0	517	615
6	0	0	0	0	516	616
7	0	0	0	0	514	615
8	0	0	0	0	512	616
9	0	0	0	0	512	618
10	0	0	0	0	510	615
11	0	0	0	0	510	615
12	0	0	0	0	510	615
13	0	0	0	0	510	614
14	0	0	0	0	510	616
15	0	0	0	0	510	616
0	0	0	0	0	511	616
1	0	0	0	0	512	618
2	0	0	0	0	512	615
3	0	0	0	0	513	615
4	0	0	0	0	515	615
5	0	0	0	0	517	614
6	0	0	0	0	519	616
7	0	0	0	0	519	616
8	0	0	0	0	520	616
9	0	0	0	0	520	618
10	0	0	0	0	519	615
11	0	0	0	0	518	616
12	0	0	0	0	516	615
13	0	0	0	0	515	615
14	0	0	0	0	512	616
15	0	0	0	0	511	616
0	0	0	0	0	510	616
1	0	0	0	0	510	618
2	0	0	0	0	511	616
3	0	0	0	0	512	615
4	0	0	0	0	513	616
5	0	0	0	0	514	614
6	0	0	0	0	514	616
7	0	0	0	0	515	616
8	0	0	0	0	517	616
9	0	0	0	0	518	618
10	0	0	0	0	519	616
11	0	0	0	0	519	615
12	0	0	0	0	518	616
13	0	0	0	0	517	615
14	0	0	0	0	515	616
15	0	0	0	0	514	616
0	0	0	0	0	512	616
1	0	0	0	0	512	619
2	0	0	0	0	511	616
3	0	0	0	0	510	616
4	0	0	0	0	510	616
5	0	0	0	0	510	614
6	0	0	0	0	511	616
7	0	0	0	0	511	616
8	0	0	0	0	512	616
9	0	0	0	0	513	618
10	0	0	0	0	515	616
11	0	0	0	0	516	616
12	0	0	0	0	517	616
13	0	0	0	0	518	615
14	0	0	0	0	519	616
15	0	0	0	0	519	616
0	0	0	0	0	519	616
1	0	0	0	0	519	618
2	0	0	0	0	517	616
3	0	0	0	0	515	615
4	0	0	0	0	514	615
5	0	0	0	0	512	614
6	0	0	0	0	511	616
7	0	0	0	0	510	616
8	0	0	0	0	510	616
9	0	0	0	0	510	619
10	0	0	0	0	511	617
11	0	0	0	0	511	616
12	0	0	0	0	512	616
13	0	0	0	0	513	614
14	0	0	0	0	515	616
15	0	0	0	0	517	616
0	0	0	0	0	519	616
1	0	0	0	0	520	619
2	0	0	0	0	521	616
3	0	0	0	0	521	616
4	0	0	0	0	521	616
5	0	0	0	0	519	615
6	0	0	0	0	517	616
7	0	0	0	0	515	615
8	0	0	0	0	511	615
9	0	0	0	0	508	618
10	0	0	0	0	505	615
11	0	0	0	0	503	616
12	0	0	0	0	500	616
13	0	0	0	0	496	614
14	0	0	0	0	491	616
15	0	0	0	0	485	615
0	0	0	0	0	478	616
1	0	0	0	0	469	619
2	0	0	0	0	460	616
3	0	0	0	0	450	617
4	0	0	0	0	440	616
5	0	0	0	0	432	615
6	0	0	0	0	424	616
7	0	0	0	0	416	616
8	0	0	0	0	409	616
9	0	0	0	0	403	619
10	0	0	0	0	399	615
11	0	0	0	0	397	616
12	0	0	0	0	397	615
13	0	0	0	0	399	615
14	0	0	0	0	403	616
15	0	0	0	0	409	616
0	0	0	0	0	417	616
1	0	0	0	0	425	618
2	0	0	0	0	432	616
3	0	0	0	0	439	616
4	0	0	0	0	448	616
5	0	0	0	0	457	615
6	0	0	0	0	473	616
7	0	0	0	0	494	616
8	0	0	0	0	519	616
9	0	0	0	0	547	618
10	0	0	0	0	580	616
11	0	0	0	0	621	616
12	0	0	0	0	667	616
13	0	0	0	0	713	614
14	0	0	0	0	764	616
15	0	0	0	0	814	616
0	0	0	0	0	860	616
1	0	0	0	0	902	618
2	0	0	0	0	936	615
3	0	0	0	0	965	616
4	0	0	0	0	987	615
5	0	0	0	0	1003	614
6	0	0	0	0	1013	615
7	0	0	0	0	1018	615
8	0	0	0	0	1018	615
9	0	0	0	0	1012	619
10	0	0	0	0	1001	616
11	0	0	0	0	986	616
12	0	0	0	0	966	615
13	0	0	0	0	942	615
14	0	0	0	0	914	616
15	0	0	0	0	880	616
0	0	0	0	0	846	616
1	0	0	0	0	807	618
2	0	0	0	0	773	616
3	0	0	0	0	742	616
4	0	0	0	0	713	616
5	0	0	0	0	687	615
6	0	0	0	0	664	616
7	0	0	0	0	643	616
8	0	0	0	0	625	616
9	0	0	0	0	609	618
10	0	0	0	0	596	616
11	0	0	0	0	584	616
12	0	0	0	0	572	615
13	0	0	0	0	560	615
14	0	0	0	0	549	615
15	0	0	0	0	537	616
0	0	0	0	0	524	616
1	0	0	0	0	512	618
2	0	0	0	0	500	616
3	0	0	0	0	487	615
4	0	0	0	0	476	616
5	0	0	0	0	464	614
6	0	0	0	0	454	616
7	0	0	0	0	443	616
8	0	0	0	0	434	616
9	0	0	0	0	425	619
10	0	0	0	0	417	616
11	0	0	0	0	410	615
12	0	0	0	0	405	615
13	0	0	0	0	402	614
14	0	0	0	0	399	616
15	0	0	0	0	398	616
0	0	0	0	0	396	616
1	0	0	0	0	396	618
2	0	0	0	0	396	616
3	0	0	0	0	396	615
4	0	0	0	0	397	616
5	0	0	0	0	397	615
6	0	0	0	0	396	616
7	0	0	0	0	396	615
8	0	0	0	0	395	616
9	0	0	0	0	394	618
10	0	0	0	0	392	616
11	0	0	0	0	391	616
12	0	0	0	0	388	615
13	0	0	0	0	387	615
14	0	0	0	0	386	616
15	0	0	0	0	386	616
0	0	0	0	0	386	616
1	0	0	0	0	387	618
2	0	0	0	0	387	616
3	0	0	0	0	388	616
4	0	0	0	0	390	616
5	0	0	0	0	391	615
6	0	0	0	0	393	615
7	0	0	0	0	396	616
8	0	0	0	0	398	616
9	0	0	0	0	400	618
10	0	0	0	0	402	616
11	0	0	0	0	402	616
12	0	0	0	0	403	616
13	0	0	0	0	403	614
14	0	0	0	0	403	616
15	0	0	0	0	403	615
0	0	0	0	0	402	615
1	0	0	0	0	402	618
2	0	0	0	0	402	616
3	0	0	0	0	402	616
4	0	0	0	0	403	616
5	0	0	0	0	403	614
6	0	0	0	0	404	616
7	0	0	0	0	405	616
8	0	0	0	0	407	616
9	0	0	0	0	409	618
10	0	0	0	0	412	616
11	0	0	0	0	414	616
12	0	0	0	0	416	616
13	0	0	0	0	419	615
14	0	0	0	0	420	616
15	0	0	0	0	421	615
0	0	0	0	0	421	615
1	0	0	0	0	420	618
2	0	0	0	0	420	616
3	0	0	0	0	419	616
4	0	0	0	0	419	615
5	0	0	0	0	419	615
6	0	0	0	0	419	616
7	0	0	0	0	419	616
8	0	0	0	0	417	616
9	0	0	0	0	418	618
10	0	0	0	0	419	616
11	0	0	0	0	420	616
12	0	0	0	0	421	616
13	0	0	0	0	423	614
14	0	0	0	0	426	616
15	0	0	0	0	428	616
0	0	0	0	0	430	615
1	0	0	0	0	431	617
2	0	0	0	0	432	615
3	0	0	0	0	433	616
4	0	0	0	0	434	616
5	0	0	0	0	434	615
6	0	0	0	0	433	616
7	0	0	0	0	432	616
8	0	0	0	0	432	616
9	0	0	0	0	430	619
10	0	0	0	0	429	616
11	0	0	0	0	429	616
12	0	0	0	0	430	615
13	0	0	0	0	430	615
14	0	0	0	0	431	616
15	0	0	0	0	432	616
0	0	0	0	0	433	616
1	0	0	0	0	435	618
2	0	0	0	0	436	615
3	0	0	0	0	438	615
4	0	0	0	0	440	616
5	0	0	0	0	442	615
6	0	0	0	0	443	616
7	0	0	0	0	443	615
8	0	0	0	0	443	616
9	0	0	0	0	443	618
10	0	0	0	0	441	615
11	0	0	0	0	440	615
12	0	0	0	0	438	615
13	0	0	0	0	437	614
14	0	0	0	0	436	615
15	0	0	0	0	436	615
0	0	0	0	0	435	616
1	0	0	0	0	436	617
2	0	0	0	0	437	616
3	0	0	0	0	438	616
4	0	0	0	0	440	615
5	0	0	0	0	442	614
6	0	0	0	0	443	615
7	0	0	0	0	445	615
8	0	0	0	0	446	616
9	0	0	0	0	448	619
10	0	0	0	0	448	616
11	0	0	0	0	448	615
12	0	0	0	0	448	616
13	0	0	0	0	448	615
14	0	0	0	0	448	616
15	0	0	0	0	446	616
0	0	0	0	0	446	616
1	0	0	0	0	445	619
2	0	0	0	0	444	616
3	0	0	0	0	444	616
4	0	0	0	0	444	615
5	0	0	0	0	445	615
6	0	0	0	0	445	616
7	0	0	0	0	446	615
8	0	0	0	0	448	616
9	0	0	0	0	450	618
10	0	0	0	0	452	616
11	0	0	0	0	454	616
12	0	0	0	0	455	616
13	0	0	0	0	457	615
14	0	0	0	0	457	616
15	0	0	0	0	457	616
0	0	0	0	0	457	616
1	0	0	0	0	457	618
2	0	0	0	0	457	616
3	0	0	0	0	456	615
4	0	0	0	0	455	615
5	0	0	0	0	455	614
6	0	0	0	0	455	615
7	0	0	0	0	455	615
8	0	0	0	0	455	616
9	0	0	0	0	455	618
10	0	0	0	0	456	616
11	0	0	0	0	457	616
12	0	0	0	0	459	616
13	0	0	0	0	461	614
14	0	0	0	0	463	616
15	0	0	0	0	465	616
0	0	0	0	0	467	615
1	0	0	0	0	470	618
2	0	0	0	0	472	616
3	0	0	0	0	473	616
4	0	0	0	0	472	616
5	0	0	0	0	472	615
6	0	0	0	0	472	616
7	0	0	0	0	471	616
8	0	0	0	0	470	616
9	0	0	0	0	470	619
10	0	0	0	0	470	616
11	0	0	0	0	471	616
12	0	0	0	0	472	616
13	0	0	0	0	473	614
14	0	0	0	0	475	616
15	0	0	0	0	477	616
0	0	0	0	0	479	615
1	0	0	0	0	482	618
2	0	0	0	0	484	616
3	0	0	0	0	487	616
4	0	0	0	0	489	615
5	0	0	0	0	491	614
6	0	0	0	0	492	616
7	0	0	0	0	493	616
8	0	0	0	0	494	616
9	0	0	0	0	494	618
10	0	0	0	0	494	617
11	0	0	0	0	494	616
12	0	0	0	0	493	616
13	0	0	0	0	493	615
14	0	0	0	0	493	616
15	0	0	0	0	493	616
0	0	0	0	0	494	616
1	0	0	0	0	496	619
2	0	0	0	0	498	616
3	0	0	0	0	499	616
4	0	0	0	0	502	616
5	0	0	0	0	504	615
6	0	0	0	0	507	616
7	0	0	0	0	508	616
8	0	0	0	0	510	615
9	0	0	0	0	512	618
10	0	0	0	0	514	616
11	0	0	0	0	514	615
12	0	0	0	0	515	616
13	0	0	0	0	515	615
14	0	0	0	0	513	616
15	0	0	0	0	512	616
0	0	0	0	0	511	615
1	0	0	0	0	511	619
2	0	0	0	0	510	616
3	0	0	0	0	511	616
4	0	0	0	0	512	616
5	0	0	0	0	513	614
6	0	0	0	0	514	616
7	0	0	0	0	515	616
8	0	0	0	0	517	616
9	0	0	0	0	519	618
10	0	0	0	0	522	616
11	0	0	0	0	524	617
12	0	0	0	0	526	616
13	0	0	0	0	527	615
14	0	0	0	0	528	616
15	0	0	0	0	528	616
0	0	0	0	0	529	616
1	0	0	0	0	527	618
2	0	0	0	0	526	616
3	0	0	0	0	524	616
4	0	0	0	0	523	616
5	0	0	0	0	521	615
6	0	0	0	0	520	616
7	0	0	0	0	520	615
8	0	0	0	0	519	615
9	0	0	0	0	521	617
10	0	0	0	0	522	616
11	0	0	0	0	523	616
12	0	0	0	0	525	615
13	0	0	0	0	526	615
14	0	0	0	0	527	615
15	0	0	0	0	529	615
0	0	0	0	0	530	615
1	0	0	0	0	531	619
2	0	0	0	0	532	616
3	0	0	0	0	532	616
4	0	0	0	0	532	616
5	0	0	0	0	532	614
6	0	0	0	0	531	616
7	0	0	0	0	529	616
8	0	0	0	0	528	616
9	0	0	0	0	527	619
10	0	0	0	0	527	616
11	0	0	0	0	526	615
12	0	0	0	0	526	616
13	0	0	0	0	527	615
14	0	0	0	0	527	616
15	0	0	0	0	528	615
0	0	0	0	0	530	616
1	0	0	0	0	531	618
2	0	0	0	0	532	615
3	0	0	0	0	535	616
4	0	0	0	0	536	616
5	0	0	0	0	537	615
6	0	0	0	0	536	616
7	0	0	0	0	536	615
8	0	0	0	0	534	615
9	0	0	0	0	532	618
10	0	0	0	0	531	615
11	0	0	0	0	529	615
12	0	0	0	0	527	615
13	0	0	0	0	526	614
14	0	0	0	0	526	615
15	0	0	0	0	526	615
0	0	0	0	0	526	616
1	0	0	0	0	526	618
2	0	0	0	0	527	616
3	0	0	0	0	527	615
4	0	0	0	0	528	616
5	0	0	0	0	530	614
6	0	0	0	0	531	616
7	0	0	0	0	533	616
8	0	0	0	0	534	615
9	0	0	0	0	534	617
10	0	0	0	0	534	616
11	0	0	0	0	533	615
12	0	0	0	0	532	616
13	0	0	0	0	530	614
14	0	0	0	0	527	616
15	0	0	0	0	526	616
0	0	0	0	0	524	616
1	0	0	0	0	523	619
2	0	0	0	0	522	616
3	0	0	0	0	521	616
4	0	0	0	0	521	616
5	0	0	0	0	521	615
6	0	0	0	0	522	616
7	0	0	0	0	523	615
8	0	0	0	0	525	616
9	0	0	0	0	526	619
10	0	0	0	0	527	617
11	0	0	0	0	528	616
12	0	0	0	0	529	616
13	0	0	0	0	529	615
14	0	0	0	0	529	617
15	0	0	0	0	529	616
0	0	0	0	0	529	616
1	0	0	0	0	527	618
2	0	0	0	0	525	616
3	0	0	0	0	522	616
4	0	0	0	0	520	616
5	0	0	0	0	518	615
6	0	0	0	0	516	616
7	0	0	0	0	516	616
8	0	0	0	0	517	616
9	0	0	0	0	518	618
10	0	0	0	0	518	615
11	0	0	0	0	519	616
12	0	0	0	0	520	616
13	0	0	0	0	521	615
14	0	0	0	0	523	615
15	0	0	0	0	525	616
0	0	0	0	0	527	616
1	0	0	0	0	527	618
2	0	0	0	0	527	615
3	0	0	0	0	527	616
4	0	0	0	0	527	616
5	0	0	0	0	526	615
6	0	0	0	0	524	616
7	0	0	0	0	522	616
8	0	0	0	0	520	616
9	0	0	0	0	519	619
10	0	0	0	0	518	616
11	0	0	0	0	517	616
12	0	0	0	0	517	616
13	0	0	0	0	517	614
14	0	0	0	0	518	616
15	0	0	0	0	519	616
0	0	0	0	0	520	615
1	0	0	0	0	521	618
2	0	0	0	0	522	616
3	0	0	0	0	524	616
4	0	0	0	0	525	616
5	0	0	0	0	526	615
6	0	0	0	0	526	616
7	0	0	0	0	525	616
8	0	0	0	0	525	616
9	0	0	0	0	524	618
10	0	0	0	0	522	616
11	0	0	0	0	519	616
12	0	0	0	0	518	616
13	0	0	0	0	516	615
14	0	0	0	0	515	616
15	0	0	0	0	515	616
0	0	0	0	0	515	616
1	0	0	0	0	515	619
2	0	0	0	0	515	617
3	0	0	0	0	517	616
4	0	0	0	0	518	616
5	0	0	0	0	518	615
6	0	0	0	0	519	616
7	0	0	0	0	521	617
8	0	0	0	0	523	616
9	0	0	0	0	524	618
10	0	0	0	0	525	616
11	0	0	0	0	525	616
12	0	0	0	0	525	616
13	0	0	0	0	524	615
14	0	0	0	0	523	616
15	0	0	0	0	521	617
0	0	0	0	0	520	616
1	0	0	0	0	519	619
2	0	0	0	0	519	616
3	0	0	0	0	519	617
4	0	0	0	0	519	616
5	0	0	0	0	520	615
6	0	0	0	0	520	616
7	0	0	0	0	521	616
8	0	0	0	0	522	616
9	0	0	0	0	524	618
10	0	0	0	0	525	616
11	0	0	0	0	526	616
12	0	0	0	0	527	616
13	0	0	0	0	528	615
14	0	0	0	0	529	616
15	0	0	0	0	527	615
0	0	0	0	0	527	616
1	0	0	0	0	525	618
2	0	0	0	0	524	616
3	0	0	0	0	522	616
4	0	0	0	0	522	616
5	0	0	0	0	521	614
6	0	0	0	0	519	616
7	0	0	0	0	519	616
8	0	0	0	0	519	616
9	0	0	0	0	519	618
10	0	0	0	0	520	616
11	0	0	0	0	522	615
12	0	0	0	0	524	616
13	0	0	0	0	524	614
14	0	0	0	0	525	617
15	0	0	0	0	525	616
0	0	0	0	0	526	616
1	0	0	0	0	526	619
2	0	0	0	0	525	616
3	0	0	0	0	525	616
4	0	0	0	0	524	616
5	0	0	0	0	522	615
6	0	0	0	0	520	616
7	0	0	0	0	519	616
8	0	0	0	0	518	616
9	0	0	0	0	517	618
10	0	0	0	0	516	616
11	0	0	0	0	516	616
12	0	0	0	0	516	616
13	0	0	0	0	516	615
14	0	0	0	0	516	616
15	0	0	0	0	517	616
0	0	0	0	0	519	616
1	0	0	0	0	520	618
2	0	0	0	0	522	616
3	0	0	0	0	524	616
4	0	0	0	0	526	616
5	0	0	0	0	527	614
6	0	0	0	0	527	616
7	0	0	0	0	527	616
8	0	0	0	0	527	616
9	0	0	0	0	526	619
10	0	0	0	0	524	616
11	0	0	0	0	522	615
12	0	0	0	0	520	616
13	0	0	0	0	518	614
14	0	0	0	0	517	615
15	0	0	0	0	516	616
0	0	0	0	0	516	616
1	0	0	0	0	517	618
2	0	0	0	0	519	616
3	0	0	0	0	519	616
4	0	0	0	0	519	616
5	0	0	0	0	520	615
6	0	0	0	0	521	615
7	0	0	0	0	522	616
8	0	0	0	0	524	616
9	0	0	0	0	524	618
10	0	0	0	0	524	616
11	0	0	0	0	523	615
12	0	0	0	0	521	616
13	0	0	0	0	519	614
14	0	0	0	0	519	616
15	0	0	0	0	516	616
0	0	0	0	0	515	615
1	0	0	0	0	515	619
2	0	0	0	0	514	616
3	0	0	0	0	514	616
4	0	0	0	0	514	616
5	0	0	0	0	514	614
6	0	0	0	0	514	616
7	0	0	0	0	515	616
8	0	0	0	0	516	616
9	0	0	0	0	518	619
10	0	0	0	0	519	615
11	0	0	0	0	520	616
12	0	0	0	0	521	616
13	0	0	0	0	522	614
14	0	0	0	0	522	615
15	0	0	0	0	521	615
0	0	0	0	0	521	616
1	0	0	0	0	520	618
2	0	0	0	0	519	616
3	0	0	0	0	518	616
4	0	0	0	0	515	616
5	0	0	0	0	513	614
6	0	0	0	0	512	616
7	0	0	0	0	511	616
8	0	0	0	0	511	616
9	0	0	0	0	511	618
10	0	0	0	0	512	616
11	0	0	0	0	513	616
12	0	0	0	0	515	616
13	0	0	0	0	517	615
14	0	0	0	0	519	616
15	0	0	0	0	520	616
0	0	0	0	0	522	615
1	0	0	0	0	523	618
2	0	0	0	0	522	616
3	0	0	0	0	521	616
4	0	0	0	0	520	616
5	0	0	0	0	518	615
6	0	0	0	0	516	616
7	0	0	0	0	513	615
8	0	0	0	0	511	616
9	0	0	0	0	510	618
10	0	0	0	0	509	616
11	0	0	0	0	509	615
12	0	0	0	0	510	616
13	0	0	0	0	511	615
14	0	0	0	0	512	616
15	0	0	0	0	513	615
0	0	0	0	0	514	616
1	0	0	0	0	516	618
2	0	0	0	0	518	616
3	0	0	0	0	519	616
4	0	0	0	0	521	616
5	0	0	0	0	521	615
6	0	0	0	0	521	616
7	0	0	0	0	520	616
8	0	0	0	0	519	617
9	0	0	0	0	518	619
10	0	0	0	0	516	616
11	0	0	0	0	513	616
12	0	0	0	0	511	615
13	0	0	0	0	509	614
14	0	0	0	0	508	617
15	0	0	0	0	508	616
0	0	0	0	0	508	616
1	0	0	0	0	509	619
2	0	0	0	0	510	617
3	0	0	0	0	511	616
4	0	0	0	0	513	616
5	0	0	0	0	516	615
6	0	0	0	0	517	616
7	0	0	0	0	519	616
8	0	0	0	0	520	616
9	0	0	0	0	521	618
10	0	0	0	0	521	616
11	0	0	0	0	521	616
12	0	0	0	0	520	616
13	0	0	0	0	518	615
14	0	0	0	0	516	616
15	0	0	0	0	514	616
0	0	0	0	0	512	616
1	0	0	0	0	511	619
2	0	0	0	0	510	616
3	0	0	0	0	510	616
4	0	0	0	0	510	617
5	0	0	0	0	510	615
6	0	0	0	0	510	617
7	0	0	0	0	511	616
8	0	0	0	0	512	616
9	0	0	0	0	512	619
10	0	0	0	0	514	616
11	0	0	0	0	515	616
12	0	0	0	0	516	616
13	0	0	0	0	517	615
14	0	0	0	0	518	616
15	0	0	0	0	518	616
0	0	0	0	0	517	616
1	0	0	0	0	515	618
2	0	0	0	0	513	615
3	0	0	0	0	511	616
4	0	0	0	0	510	615
5	0	0	0	0	509	615
6	0	0	0	0	508	616
7	0	0	0	0	508	616
8	0	0	0	0	508	616
9	0	0	0	0	508	618
10	0	0	0	0	509	616
11	0	0	0	0	510	615
12	0	0	0	0	512	616
13	0	0	0	0	513	614
14	0	0	0	0	515	616
15	0	0	0	0	516	617
0	0	0	0	0	517	616
1	0	0	0	0	518	618
2	0	0	0	0	518	616
3	0	0	0	0	517	615
4	0	0	0	0	515	616
5	0	0	0	0	513	614
6	0	0	0	0	511	616
7	0	0	0	0	509	616
8	0	0	0	0	508	615
9	0	0	0	0	506	618
10	0	0	0	0	505	615
11	0	0	0	0	505	616
12	0	0	0	0	504	616
13	0	0	0	0	504	614
14	0	0	0	0	505	616
15	0	0	0	0	506	616
0	0	0	0	0	507	615
1	0	0	0	0	509	618
2	0	0	0	0	510	615
3	0	0	0	0	512	616
4	0	0	0	0	513	616
5	0	0	0	0	513	615
6	0	0	0	0	512	616
7	0	0	0	0	511	616
8	0	0	0	0	511	616
9	0	0	0	0	509	618
10	0	0	0	0	508	616
11	0	0	0	0	506	616
12	0	0	0	0	504	616
13	0	0	0	0	502	615
14	0	0	0	0	501	616
15	0	0	0	0	500	616
0	0	0	0	0	500	616
1	0	0	0	0	500	618
2	0	0	0	0	502	616
3	0	0	0	0	503	616
4	0	0	0	0	504	616
5	0	0	0	0	506	615
6	0	0	0	0	507	615
7	0	0	0	0	508	616
8	0	0	0	0	510	616
9	0	0	0	0	510	618
10	0	0	0	0	510	616
11	0	0	0	0	510	616
12	0	0	0	0	510	616
13	0	0	0	0	508	615
14	0	0	0	0	508	616
15	0	0	0	0	507	616
0	0	0	0	0	506	616
1	0	0	0	0	506	619
2	0	0	0	0	505	616
3	0	0	0	0	507	616
4	0	0	0	0	507	616
5	0	0	0	0	508	615
6	0	0	0	0	509	616
7	0	0	0	0	510	616
8	0	0	0	0	511	616
9	0	0	0	0	513	619
10	0	0	0	0	514	616
11	0	0	0	0	516	617
12	0	0	0	0	516	616
13	0	0	0	0	517	615
14	0	0	0	0	517	616
15	0	0	0	0	516	616
0	0	0	0	0	515	616
1	0	0	0	0	514	618
2	0	0	0	0	512	616
3	0	0	0	0	510	616
4	0	0	0	0	508	616
5	0	0	0	0	507	615
6	0	0	0	0	507	616
7	0	0	0	0	508	616
8	0	0	0	0	508	615
9	0	0	0	0	508	618
10	0	0	0	0	509	616
11	0	0	0	0	510	616
12	0	0	0	0	511	616
13	0	0	0	0	513	614
14	0	0	0	0	514	616
15	0	0	0	0	515	616
0	0	0	0	0	517	616
1	0	0	0	0	517	618
2	0	0	0	0	516	616
3	0	0	0	0	515	616
4	0	0	0	0	515	616
5	0	0	0	0	513	615
6	0	0	0	0	511	616
7	0	0	0	0	510	616
8	0	0	0	0	509	616
9	0	0	0	0	508	618
10	0	0	0	0	507	616
11	0	0	0	0	507	616
12	0	0	0	0	506	616
13	0	0	0	0	507	615
14	0	0	0	0	507	615
15	0	0	0	0	508	616
0	0	0	0	0	510	616
1	0	0	0	0	512	618
2	0	0	0	0	513	615
3	0	0	0	0	515	615
4	0	0	0	0	516	616
5	0	0	0	0	518	614
6	0	0	0	0	518	615
7	0	0	0	0	518	615
8	0	0	0	0	516	616
9	0	0	0	0	515	618
10	0	0	0	0	513	615
11	0	0	0	0	511	615
12	0	0	0	0	510	615
13	0	0	0	0	509	614
14	0	0	0	0	507	616
15	0	0	0	0	506	615
0	0	0	0	0	506	616
1	0	0	0	0	505	619
2	0	0	0	0	506	616
3	0	0	0	0	507	616
4	0	0	0	0	508	616
5	0	0	0	0	508	615
6	0	0	0	0	510	616
7	0	0	0	0	510	616
8	0	0	0	0	511	616
9	0	0	0	0	512	619
10	0	0	0	0	512	616
11	0	0	0	0	512	616
12	0	0	0	0	512	615
13	0	0	0	0	510	614
14	0	0	0	0	510	616
15	0	0	0	0	508	615
0	0	0	0	0	505	616
1	0	0	0	0	504	619
2	0	0	0	0	502	616
3	0	0	0	0	501	616
4	0	0	0	0	501	616
5	0	0	0	0	500	614
6	0	0	0	0	502	616
7	0	0	0	0	502	615
8	0	0	0	0	503	615
9	0	0	0	0	505	618
10	0	0	0	0	506	615
11	0	0	0	0	507	616
12	0	0	0	0	507	616
13	0	0	0	0	506	615
14	0	0	0	0	503	616
15	0	0	0	0	497	615
0	0	0	0	0	489	616
1	0	0	0	0	479	618
2	0	0	0	0	466	616
3	0	0	0	0	454	616
4	0	0	0	0	440	616
5	0	0	0	0	428	614
6	0	0	0	0	417	616
7	0	0	0	0	408	616
8	0	0	0	0	399	615
9	0	0	0	0	394	618
10	0	0	0	0	392	616
11	0	0	0	0	391	615
12	0	0	0	0	392	616
13	0	0	0	0	396	614
14	0	0	0	0	400	616
15	0	0	0	0	407	616
0	0	0	0	0	415	616
1	0	0	0	0	424	619
2	0	0	0	0	432	616
3	0	0	0	0	439	615
4	0	0	0	0	444	616
5	0	0	0	0	450	615
6	0	0	0	0	457	616
7	0	0	0	0	468	616
8	0	0	0	0	484	616
9	0	0	0	0	506	619
10	0	0	0	0	531	616
11	0	0	0	0	562	616
12	0	0	0	0	601	616
13	0	0	0	0	646	614
14	0	0	0	0	694	616
15	0	0	0	0	746	615
0	0	0	0	0	798	616
1	0	0	0	0	848	618
2	0	0	0	0	893	616
3	0	0	0	0	932	615
4	0	0	0	0	963	616
5	0	0	0	0	986	614
6	0	0	0	0	1002	616
7	0	0	0	0	1010	615
8	0	0	0	0	1012	616
9	0	0	0	0	1010	618
10	0	0	0	0	1003	616
11	0	0	0	0	989	615
12	0	0	0	0	972	615
13	0	0	0	0	952	615
14	0	0	0	0	928	615
15	0	0	0	0	901	616
0	0	0	0	0	870	615
1	0	0	0	0	836	618
2	0	0	0	0	803	615
3	0	0	0	0	771	616
4	0	0	0	0	743	616
5	0	0	0	0	719	614
6	0	0	0	0	696	615
7	0	0	0	0	675	616
8	0	0	0	0	656	615
9	0	0	0	0	639	618
10	0	0	0	0	623	615
11	0	0	0	0	609	616
12	0	0	0	0	595	616
13	0	0	0	0	579	615
14	0	0	0	0	563	617
15	0	0	0	0	549	616
0	0	0	0	0	535	616
1	0	0	0	0	520	619
2	0	0	0	0	507	617
3	0	0	0	0	493	616
4	0	0	0	0	480	617
5	0	0	0	0	470	615
6	0	0	0	0	461	616
7	0	0	0	0	453	616
8	0	0	0	0	446	616
9	0	0	0	0	439	618
10	0	0	0	0	433	616
11	0	0	0	0	429	616
12	0	0	0	0	424	615
13	0	0	0	0	420	614
14	0	0	0	0	416	616
15	0	0	0	0	412	616
0	0	0	0	0	408	616
1	0	0	0	0	404	618
2	0	0	0	0	400	616
3	0	0	0	0	397	616
4	0	0	0	0	395	616
5	0	0	0	0	392	615
6	0	0	0	0	391	616
7	0	0	0	0	390	616
8	0	0	0	0	390	615
9	0	0	0	0	391	618
10	0	0	0	0	391	616
11	0	0	0	0	392	616
12	0	0	0	0	393	616
13	0	0	0	0	394	614
14	0	0	0	0	396	616
15	0	0	0	0	398	616
0	0	0	0	0	399	616
1	0	0	0	0	401	619
2	0	0	0	0	402	616
3	0	0	0	0	403	616
4	0	0	0	0	401	616
5	0	0	0	0	400	615
6	0	0	0	0	399	616
7	0	0	0	0	398	617
8	0	0	0	0	398	615
9	0	0	0	0	398	618
10	0	0	0	0	399	616
11	0	0	0	0	399	616
12	0	0	0	0	400	616
13	0	0	0	0	401	615
14	0	0	0	0	403	616
15	0	0	0	0	405	616
0	0	0	0	0	408	616
1	0	0	0	0	409	618
2	0	0	0	0	411	615
3	0	0	0	0	412	616
4	0	0	0	0	415	616
5	0	0	0	0	417	615
6	0	0	0	0	418	616
7	0	0	0	0	418	616
8	0	0	0	0	417	616
9	0	0	0	0	417	619
10	0	0	0	0	416	616
11	0	0	0	0	415	616
12	0	0	0	0	415	616
13	0	0	0	0	414	615
14	0	0	0	0	414	616
15	0	0	0	0	415	616
0	0	0	0	0	416	616
1	0	0	0	0	417	619
2	0	0	0	0	419	616
3	0	0	0	0	421	616
4	0	0	0	0	423	616
5	0	0	0	0	426	615
6	0	0	0	0	429	616
7	0	0	0	0	432	617
8	0	0	0	0	434	616
9	0	0	0	0	435	619
10	0	0	0	0	435	616
11	0	0	0	0	434	616
12	0	0	0	0	433	616
13	0	0	0	0	431	615
14	0	0	0	0	430	616
15	0	0	0	0	428	617
0	0	0	0	0	428	616
1	0	0	0	0	427	618
2	0	0	0	0	427	616
3	0	0	0	0	427	616
4	0	0	0	0	428	615
5	0	0	0	0	428	614
6	0	0	0	0	430	617
7	0	0	0	0	432	616
8	0	0	0	0	434	616
9	0	0	0	0	436	618
10	0	0	0	0	438	615
11	0	0	0	0	441	615
12	0	0	0	0	443	615
13	0	0	0	0	444	614
14	0	0	0	0	444	615
15	0	0	0	0	444	615
0	0	0	0	0	443	616
1	0	0	0	0	441	618
2	0	0	0	0	439	615
3	0	0	0	0	438	616
4	0	0	0	0	437	615
5	0	0	0	0	437	614
6	0	0	0	0	437	616
7	0	0	0	0	437	616
8	0	0	0	0	436	616
9	0	0	0	0	437	618
10	0	0	0	0	438	616
11	0	0	0	0	440	616
12	0	0	0	0	441	615
13	0	0	0	0	444	614
14	0	0	0	0	446	616
15	0	0	0	0	448	616
0	0	0	0	0	449	615
1	0	0	0	0	449	618
2	0	0	0	0	450	616
3	0	0	0	0	449	615
4	0	0	0	0	449	616
5	0	0	0	0	448	614
6	0	0	0	0	447	616
7	0	0	0	0	446	616
8	0	0	0	0	445	616
9	0	0	0	0	444	619
10	0	0	0	0	443	616
11	0	0	0	0	444	616
12	0	0	0	0	445	617
13	0	0	0	0	445	615
14	0	0	0	0	447	616
15	0	0	0	0	448	616
0	0	0	0	0	448	616
1	0	0	0	0	450	618
2	0	0	0	0	451	615
3	0	0	0	0	453	616
4	0	0	0	0	455	616
5	0	0	0	0	455	614
6	0	0	0	0	455	616
7	0	0	0	0	455	615
8	0	0	0	0	455	616
9	0	0	0	0	453	618
10	0	0	0	0	451	615
11	0	0	0	0	449	615
12	0	0	0	0	448	616
13	0	0	0	0	448	615
14	0	0	0	0	448	616
15	0	0	0	0	449	616
0	0	0	0	0	449	616
1	0	0	0	0	450	618
2	0	0	0	0	452	616
3	0	0	0	0	453	616
4	0	0	0	0	455	616
5	0	0	0	0	458	614
6	0	0	0	0	459	616
7	0	0	0	0	462	616
8	0	0	0	0	464	616
9	0	0	0	0	464	618
10	0	0	0	0	464	616
11	0	0	0	0	464	615
12	0	0	0	0	463	615
13	0	0	0	0	463	614
14	0	0	0	0	461	615
15	0	0	0	0	460	615
0	0	0	0	0	460	615
1	0	0	0	0	460	619
2	0	0	0	0	461	616
3	0	0	0	0	462	615
4	0	0	0	0	463	616
5	0	0	0	0	464	614
6	0	0	0	0	466	615
7	0	0	0	0	468	616
8	0	0	0	0	471	615
9	0	0	0	0	474	618
10	0	0	0	0	477	616
11	0	0	0	0	479	616
12	0	0	0	0	480	617
13	0	0	0	0	482	614
14	0	0	0	0	483	616
15	0	0	0	0	483	616
0	0	0	0	0	483	616
1	0	0	0	0	483	619
2	0	0	0	0	481	616
3	0	0	0	0	481	616
4	0	0	0	0	480	615
5	0	0	0	0	480	615
6	0	0	0	0	480	616
7	0	0	0	0	480	616
8	0	0	0	0	481	616
9	0	0	0	0	483	619
10	0	0	0	0	485	616
11	0	0	0	0	488	616
12	0	0	0	0	491	616
13	0	0	0	0	493	615
14	0	0	0	0	496	617
15	0	0	0	0	499	616
0	0	0	0	0	501	616
1	0	0	0	0	502	618
2	0	0	0	0	502	616
3	0	0	0	0	503	616
4	0	0	0	0	503	616
5	0	0	0	0	502	615
6	0	0	0	0	501	617
7	0	0	0	0	500	616
8	0	0	0	0	500	616
9	0	0	0	0	499	618
10	0	0	0	0	500	616
11	0	0	0	0	500	616
12	0	0	0	0	501	615
13	0	0	0	0	502	614
14	0	0	0	0	504	615
15	0	0	0	0	505	616
0	0	0	0	0	508	616
1	0	0	0	0	510	618
2	0	0	0	0	512	616
3	0	0	0	0	513	616
4	0	0	0	0	515	615
5	0	0	0	0	516	615
6	0	0	0	0	518	616
7	0	0	0	0	518	615
8	0	0	0	0	518	616
9	0	0	0	0	515	618
10	0	0	0	0	513	616
11	0	0	0	0	511	616
12	0	0	0	0	510	616
13	0	0	0	0	509	615
14	0	0	0	0	508	616
15	0	0	0	0	509	615
0	0	0	0	0	510	616
1	0	0	0	0	512	618
2	0	0	0	0	515	616
3	0	0	0	0	517	616
4	0	0	0	0	520	616
5	0	0	0	0	523	614
6	0	0	0	0	527	615
7	0	0	0	0	529	616
8	0	0	0	0	531	616
9	0	0	0	0	531	618
10	0	0	0	0	532	616
11	0	0	0	0	531	616
12	0	0	0	0	529	617
13	0	0	0	0	527	615
14	0	0	0	0	524	615
15	0	0	0	0	521	616
0	0	0	0	0	519	615
1	0	0	0	0	518	618
2	0	0	0	0	517	616
3	0	0	0	0	516	616
4	0	0	0	0	516	616
5	0	0	0	0	518	614
6	0	0	0	0	520	615
7	0	0	0	0	524	616
8	0	0	0	0	526	616
9	0	0	0	0	529	618
10	0	0	0	0	531	616
11	0	0	0	0	534	616
12	0	0	0	0	536	615
13	0	0	0	0	537	615
14	0	0	0	0	537	615
15	0	0	0	0	536	615
0	0	0	0	0	532	616
1	0	0	0	0	530	618
2	0	0	0	0	527	616
3	0	0	0	0	524	616
4	0	0	0	0	522	616
5	0	0	0	0	521	615
6	0	0	0	0	520	615
7	0	0	0	0	521	615
8	0	0	0	0	521	615
9	0	0	0	0	523	618
10	0	0	0	0	524	616
11	0	0	0	0	527	615
12	0	0	0	0	529	615
13	0	0	0	0	532	614
14	0	0	0	0	535	615
15	0	0	0	0	537	615
0	0	0	0	0	539	616
1	0	0	0	0	539	619
2	0	0	0	0	539	616
3	0	0	0	0	538	616
4	0	0	0	0	536	616
5	0	0	0	0	532	615
6	0	0	0	0	529	616
7	0	0	0	0	527	616
8	0	0	0	0	524	615
9	0	0	0	0	522	618
10	0	0	0	0	521	616
11	0	0	0	0	521	616
12	0	0	0	0	521	616
13	0	0	0	0	522	614
14	0	0	0	0	524	615
15	0	0	0	0	527	616
0	0	0	0	0	529	616
1	0	0	0	0	530	618
2	0	0	0	0	532	616
3	0	0	0	0	535	616
4	0	0	0	0	535	616
5	0	0	0	0	536	614
6	0	0	0	0	535	616
7	0	0	0	0	534	616
8	0	0	0	0	532	616
9	0	0	0	0	530	619
10	0	0	0	0	528	616
11	0	0	0	0	526	616
12	0	0	0	0	523	616
13	0	0	0	0	521	615
14	0	0	0	0	519	616
15	0	0	0	0	519	616
0	0	0	0	0	519	616
1	0	0	0	0	519	618
2	0	0	0	0	519	616
3	0	0	0	0	522	616
4	0	0	0	0	524	615
5	0	0	0	0	526	614
6	0	0	0	0	527	616
7	0	0	0	0	529	616
8	0	0	0	0	531	616
9	0	0	0	0	531	618
10	0	0	0	0	531	615
11	0	0	0	0	529	615
12	0	0	0	0	527	615
13	0	0	0	0	523	614
14	0	0	0	0	519	616
15	0	0	0	0	517	616
0	0	0	0	0	515	616
1	0	0	0	0	514	619
2	0	0	0	0	513	616
3	0	0	0	0	513	616
4	0	0	0	0	514	616
5	0	0	0	0	515	615
6	0	0	0	0	517	616
7	0	0	0	0	519	616
8	0	0	0	0	521	615
9	0	0	0	0	524	618
10	0	0	0	0	527	615
11	0	0	0	0	530	616
12	0	0	0	0	531	615
13	0	0	0	0	532	614
14	0	0	0	0	531	616
15	0	0	0	0	529	616
0	0	0	0	0	526	616
1	0	0	0	0	524	618
2	0	0	0	0	521	616
3	0	0	0	0	518	616
4	0	0	0	0	516	616
5	0	0	0	0	515	615
6	0	0	0	0	515	615
7	0	0	0	0	515	615
8	0	0	0	0	515	616
9	0	0	0	0	517	618
10	0	0	0	0	519	616
11	0	0	0	0	520	616
12	0	0	0	0	524	616
13	0	0	0	0	527	614
14	0	0	0	0	529	615
15	0	0	0	0	531	616
0	0	0	0	0	532	616
1	0	0	0	0	532	618
2	0	0	0	0	531	616
3	0	0	0	0	529	615
4	0	0	0	0	527	616
5	0	0	0	0	524	615
6	0	0	0	0	521	616
7	0	0	0	0	519	616
8	0	0	0	0	517	616
9	0	0	0	0	515	619
10	0	0	0	0	515	616
11	0	0	0	0	515	616
12	0	0	0	0	515	616
13	0	0	0	0	515	615
14	0	0	0	0	517	617
15	0	0	0	0	519	616
0	0	0	0	0	521	616
1	0	0	0	0	524	619
2	0	0	0	0	527	616
3	0	0	0	0	530	616
4	0	0	0	0	531	616
5	0	0	0	0	532	614
6	0	0	0	0	532	616
7	0	0	0	0	531	616
8	0	0	0	0	529	616
9	0	0	0	0	526	619
10	0	0	0	0	523	616
11	0	0	0	0	520	616
12	0	0	0	0	518	616
13	0	0	0	0	516	614
14	0	0	0	0	515	615
15	0	0	0	0	515	616
0	0	0	0	0	515	616
1	0	0	0	0	517	618
2	0	0	0	0	519	616
3	0	0	0	0	520	616
4	0	0	0	0	522	616
5	0	0	0	0	524	615
6	0	0	0	0	527	616
7	0	0	0	0	529	615
8	0	0	0	0	530	616
9	0	0	0	0	531	618
10	0	0	0	0	531	616
11	0	0	0	0	529	616
12	0	0	0	0	527	616
13	0	0	0	0	525	614
14	0	0	0	0	523	616
15	0	0	0	0	521	616
0	0	0	0	0	519	615
1	0	0	0	0	519	619
2	0	0	0	0	518	616
3	0	0	0	0	519	616
4	0	0	0	0	519	616
5	0	0	0	0	520	615
6	0	0	0	0	521	616
7	0	0	0	0	522	616
8	0	0	0	0	524	616
9	0	0	0	0	525	619
10	0	0	0	0	527	617
11	0	0	0	0	528	616
12	0	0	0	0	529	616
13	0	0	0	0	528	615
14	0	0	0	0	528	615
15	0	0	0	0	527	615
0	0	0	0	0	524	616
1	0	0	0	0	522	619
2	0	0	0	0	519	616
3	0	0	0	0	519	615
4	0	0	0	0	518	615
5	0	0	0	0	517	614
6	0	0	0	0	516	616
7	0	0	0	0	516	617
8	0	0	0	0	516	617
9	0	0	0	0	516	618
10	0	0	0	0	517	616
11	0	0	0	0	518	616
12	0	0	0	0	520	615
13	0	0	0	0	522	615
14	0	0	0	0	524	617
15	0	0	0	0	526	616
0	0	0	0	0	527	615
1	0	0	0	0	527	618
2	0	0	0	0	526	616
3	0	0	0	0	525	616
4	0	0	0	0	524	616
5	0	0	0	0	521	615
6	0	0	0	0	519	616
7	0	0	0	0	518	616
8	0	0	0	0	516	616
9	0	0	0	0	516	618
10	0	0	0	0	515	616
11	0	0	0	0	514	616
12	0	0	0	0	514	616
13	0	0	0	0	514	615
14	0	0	0	0	515	616
15	0	0	0	0	516	616
0	0	0	0	0	518	616
1	0	0	0	0	519	619
2	0	0	0	0	520	616
3	0	0	0	0	520	617
4	0	0	0	0	521	616
5	0	0	0	0	521	615
6	0	0	0	0	521	616
7	0	0	0	0	520	616
8	0	0	0	0	519	616
9	0	0	0	0	519	619
10	0	0	0	0	517	616
11	0	0	0	0	515	616
12	0	0	0	0	514	617
13	0	0	0	0	513	615
14	0	0	0	0	513	616
15	0	0	0	0	514	616
0	0	0	0	0	514	616
1	0	0	0	0	515	618
2	0	0	0	0	516	616
3	0	0	0	0	517	616
4	0	0	0	0	518	616
5	0	0	0	0	519	615
6	0	0	0	0	521	616
7	0	0	0	0	523	616
8	0	0	0	0	523	616
9	0	0	0	0	523	618
10	0	0	0	0	522	616
11	0	0	0	0	521	615
12	0	0	0	0	519	616
13	0	0	0	0	517	614
14	0	0	0	0	515	616
15	0	0	0	0	512	616
0	0	0	0	0	511	616
1	0	0	0	0	510	618
2	0	0	0	0	510	615
3	0	0	0	0	511	615
4	0	0	0	0	512	616
5	0	0	0	0	513	615
6	0	0	0	0	516	616
7	0	0	0	0	518	616
8	0	0	0	0	520	616
9	0	0	0	0	522	618
10	0	0	0	0	524	616
11	0	0	0	0	526	615
12	0	0	0	0	526	616
13	0	0	0	0	526	614
14	0	0	0	0	524	616
15	0	0	0	0	522	616
0	0	0	0	0	519	616
1	0	0	0	0	516	618
2	0	0	0	0	513	616
3	0	0	0	0	511	616
4	0	0	0	0	509	616
5	0	0	0	0	508	615
6	0	0	0	0	508	615
7	0	0	0	0	508	616
8	0	0	0	0	508	615
9	0	0	0	0	511	618
10	0	0	0	0	512	616
11	0	0	0	0	514	616
12	0	0	0	0	517	616
13	0	0	0	0	519	614
14	0	0	0	0	521	615
15	0	0	0	0	523	615
0	0	0	0	0	524	615
1	0	0	0	0	524	618
2	0	0	0	0	523	616
3	0	0	0	0	521	615
4	0	0	0	0	519	616
5	0	0	0	0	517	614
6	0	0	0	0	514	616
7	0	0	0	0	511	615
8	0	0	0	0	508	615
9	0	0	0	0	507	619
10	0	0	0	0	506	616
11	0	0	0	0	507	616
12	0	0	0	0	507	617
13	0	0	0	0	508	615
14	0	0	0	0	511	616
15	0	0	0	0	512	616
0	0	0	0	0	515	616
1	0	0	0	0	517	618
2	0	0	0	0	520	616
3	0	0	0	0	523	616
4	0	0	0	0	524	616
5	0	0	0	0	524	615
6	0	0	0	0	523	616
7	0	0	0	0	521	616
8	0	0	0	0	519	616
9	0	0	0	0	516	619
10	0	0	0	0	512	616
11	0	0	0	0	511	616
12	0	0	0	0	508	616
13	0	0	0	0	507	615
14	0	0	0	0	506	616
15	0	0	0	0	507	616
0	0	0	0	0	507	616
1	0	0	0	0	508	618
2	0	0	0	0	510	616
3	0	0	0	0	512	616
4	0	0	0	0	514	616
5	0	0	0	0	516	615
6	0	0	0	0	518	616
7	0	0	0	0	520	616
8	0	0	0	0	521	616
9	0	0	0	0	521	619
10	0	0	0	0	521	617
11	0	0	0	0	519	616
12	0	0	0	0	516	617
13	0	0	0	0	513	615
14	0	0	0	0	511	616
15	0	0	0	0	509	616
0	0	0	0	0	507	615
1	0	0	0	0	505	619
2	0	0	0	0	504	616
3	0	0	0	0	504	615
4	0	0	0	0	505	615
5	0	0	0	0	507	614
6	0	0	0	0	508	616
7	0	0	0	0	510	616
8	0	0	0	0	511	615
9	0	0	0	0	514	618
10	0	0	0	0	516	616
11	0	0	0	0	519	617
12	0	0	0	0	520	616
13	0	0	0	0	520	615
14	0	0	0	0	519	616
15	0	0	0	0	518	616
0	0	0	0	0	515	615
1	0	0	0	0	513	618
2	0	0	0	0	511	616
3	0	0	0	0	508	615
4	0	0	0	0	506	616
5	0	0	0	0	505	614
6	0	0	0	0	506	615
7	0	0	0	0	506	616
8	0	0	0	0	507	615
9	0	0	0	0	508	618
10	0	0	0	0	510	616
11	0	0	0	0	512	616
12	0	0	0	0	514	616
13	0	0	0	0	517	615
14	0	0	0	0	519	616
15	0	0	0	0	520	617
0	0	0	0	0	521	616
1	0	0	0	0	521	619
2	0	0	0	0	520	616
3	0	0	0	0	518	616
4	0	0	0	0	515	616
5	0	0	0	0	512	615
6	0	0	0	0	509	616
7	0	0	0	0	506	616
8	0	0	0	0	504	616
9	0	0	0	0	503	618
10	0	0	0	0	502	616
11	0	0	0	0	501	616
12	0	0	0	0	503	616
13	0	0	0	0	505	614
14	0	0	0	0	507	616
15	0	0	0	0	508	616
0	0	0	0	0	510	616
1	0	0	0	0	513	619
2	0	0	0	0	515	616
3	0	0	0	0	516	616
4	0	0	0	0	516	616
5	0	0	0	0	516	615
6	0	0	0	0	515	616
7	0	0	0	0	512	615
8	0	0	0	0	509	616
9	0	0	0	0	507	618
10	0	0	0	0	504	616
11	0	0	0	0	502	616
12	0	0	0	0	499	616
13	0	0	0	0	497	615
14	0	0	0	0	497	616
15	0	0	0	0	497	616
0	0	0	0	0	499	617
1	0	0	0	0	501	618
2	0	0	0	0	502	616
3	0	0	0	0	504	616
4	0	0	0	0	506	616
5	0	0	0	0	509	615
6	0	0	0	0	512	615
7	0	0	0	0	514	616
8	0	0	0	0	515	615
9	0	0	0	0	515	618
10	0	0	0	0	515	616
11	0	0	0	0	514	616
12	0	0	0	0	512	616
13	0	0	0	0	510	615
14	0	0	0	0	507	616
15	0	0	0	0	505	616
0	0	0	0	0	504	616
1	0	0	0	0	504	618
2	0	0	0	0	504	616
3	0	0	0	0	504	617
4	0	0	0	0	504	617
5	0	0	0	0	507	615
6	0	0	0	0	510	616
7	0	0	0	0	512	617
8	0	0	0	0	516	616
9	0	0	0	0	519	619
10	0	0	0	0	521	616
11	0	0	0	0	523	616
12	0	0	0	0	523	616
13	0	0	0	0	523	614
14	0	0	0	0	521	616
15	0	0	0	0	519	615
0	0	0	0	0	517	615
1	0	0	0	0	513	619
2	0	0	0	0	510	616
3	0	0	0	0	508	616
4	0	0	0	0	505	616
5	0	0	0	0	504	615
6	0	0	0	0	504	616
7	0	0	0	0	504	616
8	0	0	0	0	504	616
9	0	0	0	0	505	618
10	0	0	0	0	508	616
11	0	0	0	0	512	616
12	0	0	0	0	514	616
13	0	0	0	0	516	615
14	0	0	0	0	517	616
15	0	0	0	0	517	616
0	0	0	0	0	518	616
1	0	0	0	0	518	618
2	0	0	0	0	517	616
3	0	0	0	0	515	615
4	0	0	0	0	513	616
5	0	0	0	0	510	614
6	0	0	0	0	507	616
7	0	0	0	0	504	616
8	0	0	0	0	503	616
9	0	0	0	0	501	618
10	0	0	0	0	501	616
11	0	0	0	0	501	616
12	0	0	0	0	502	616
13	0	0	0	0	503	614
14	0	0	0	0	505	616
15	0	0	0	0	508	616
0	0	0	0	0	511	616
1	0	0	0	0	513	618
2	0	0	0	0	516	616
3	0	0	0	0	518	616
4	0	0	0	0	518	616
5	0	0	0	0	518	615
6	0	0	0	0	517	616
7	0	0	0	0	515	616
8	0	0	0	0	512	616
9	0	0	0	0	509	618
10	0	0	0	0	506	616
11	0	0	0	0	504	616
12	0	0	0	0	502	615
13	0	0	0	0	500	614
14	0	0	0	0	500	615
15	0	0	0	0	500	615
0	0	0	0	0	501	616
1	0	0	0	0	503	617
2	0	0	0	0	504	615
3	0	0	0	0	507	615
4	0	0	0	0	510	616
5	0	0	0	0	513	614
6	0	0	0	0	515	616
7	0	0	0	0	516	616
8	0	0	0	0	516	616
9	0	0	0	0	515	618
10	0	0	0	0	514	616
11	0	0	0	0	513	615
12	0	0	0	0	512	615
13	0	0	0	0	510	615
14	0	0	0	0	510	616
15	0	0	0	0	508	616
0	0	0	0	0	506	615
1	0	0	0	0	506	619
2	0	0	0	0	505	616
3	0	0	0	0	505	616
4	0	0	0	0	505	616
5	0	0	0	0	505	614
6	0	0	0	0	506	616
7	0	0	0	0	507	616
8	0	0	0	0	507	616
9	0	0	0	0	508	618
10	0	0	0	0	507	615
11	0	0	0	0	507	616
12	0	0	0	0	503	615
13	0	0	0	0	497	615
14	0	0	0	0	490	616
15	0	0	0	0	480	616
0	0	0	0	0	468	616
1	0	0	0	0	456	618
2	0	0	0	0	444	616
3	0	0	0	0	431	616
4	0	0	0	0	419	616
5	0	0	0	0	409	614
6	0	0	0	0	401	616
7	0	0	0	0	395	615
8	0	0	0	0	391	616
9	0	0	0	0	390	618
10	0	0	0	0	391	616
11	0	0	0	0	395	616
12	0	0	0	0	400	616
13	0	0	0	0	407	615
14	0	0	0	0	416	616
15	0	0	0	0	426	616
0	0	0	0	0	435	616
1	0	0	0	0	442	619
2	0	0	0	0	449	616
3	0	0	0	0	454	615
4	0	0	0	0	461	616
5	0	0	0	0	471	615
6	0	0	0	0	487	616
7	0	0	0	0	508	616
8	0	0	0	0	533	616
9	0	0	0	0	564	619
10	0	0	0	0	601	616
11	0	0	0	0	645	615
12	0	0	0	0	692	616
13	0	0	0	0	745	615
14	0	0	0	0	798	615
15	0	0	0	0	846	615
0	0	0	0	0	891	615
1	0	0	0	0	929	618
2	0	0	0	0	960	616
3	0	0	0	0	984	616
4	0	0	0	0	1000	616
5	0	0	0	0	1008	615
6	0	0	0	0	1011	616
7	0	0	0	0	1008	616
8	0	0	0	0	999	615
9	0	0	0	0	984	617
10	0	0	0	0	965	616
11	0	0	0	0	943	616
12	0	0	0	0	917	615
13	0	0	0	0	889	614
14	0	0	0	0	856	616
15	0	0	0	0	820	616
0	0	0	0	0	784	615
1	0	0	0	0	752	618
2	0	0	0	0	725	615
3	0	0	0	0	701	616
4	0	0	0	0	679	616
5	0	0	0	0	660	614
6	0	0	0	0	644	616
7	0	0	0	0	630	616
8	0	0	0	0	615	616
9	0	0	0	0	603	618
10	0	0	0	0	590	616
11	0	0	0	0	576	616
12	0	0	0	0	562	616
13	0	0	0	0	547	615
14	0	0	0	0	531	616
15	0	0	0	0	517	616
0	0	0	0	0	503	616
1	0	0	0	0	489	619
2	0	0	0	0	478	616
3	0	0	0	0	467	615
4	0	0	0	0	459	615
5	0	0	0	0	451	615
6	0	0	0	0	444	616
7	0	0	0	0	439	616
8	0	0	0	0	434	616
9	0	0	0	0	430	619
10	0	0	0	0	427	616
11	0	0	0	0	423	615
12	0	0	0	0	420	616
13	0	0	0	0	416	615
14	0	0	0	0	413	615
15	0	0	0	0	408	615
0	0	0	0	0	404	616
1	0	0	0	0	399	619
2	0	0	0	0	395	615
3	0	0	0	0	391	616
4	0	0	0	0	389	616
5	0	0	0	0	387	615
6	0	0	0	0	386	615
7	0	0	0	0	386	616
8	0	0	0	0	386	616
9	0	0	0	0	388	618
10	0	0	0	0	390	616
11	0	0	0	0	392	616
12	0	0	0	0	396	616
13	0	0	0	0	398	614
14	0	0	0	0	400	615
15	0	0	0	0	402	616
0	0	0	0	0	402	616
1	0	0	0	0	402	618
2	0	0	0	0	402	616
3	0	0	0	0	400	615
4	0	0	0	0	399	616
5	0	0	0	0	397	614
6	0	0	0	0	395	615
7	0	0	0	0	394	615
8	0	0	0	0	393	615
9	0	0	0	0	393	617
10	0	0	0	0	393	615
11	0	0	0	0	394	616
12	0	0	0	0	395	616
13	0	0	0	0	398	614
14	0	0	0	0	401	616
15	0	0	0	0	404	616
0	0	0	0	0	408	616
1	0	0	0	0	411	618
2	0	0	0	0	415	616
3	0	0	0	0	417	616
4	0	0	0	0	417	616
5	0	0	0	0	418	615
6	0	0	0	0	417	615
7	0	0	0	0	416	615
8	0	0	0	0	414	616
9	0	0	0	0	412	618
10	0	0	0	0	410	616
11	0	0	0	0	409	616
12	0	0	0	0	409	616
13	0	0	0	0	409	614
14	0	0	0	0	409	616
15	0	0	0	0	411	615
0	0	0	0	0	413	615
1	0	0	0	0	415	618
2	0	0	0	0	419	615
3	0	0	0	0	423	615
4	0	0	0	0	426	615
5	0	0	0	0	429	614
6	0	0	0	0	432	615
7	0	0	0	0	433	616
8	0	0	0	0	434	615
9	0	0	0	0	434	618
10	0	0	0	0	434	616
11	0	0	0	0	432	615
12	0	0	0	0	430	616
13	0	0	0	0	427	614
14	0	0	0	0	424	616
15	0	0	0	0	423	616
0	0	0	0	0	422	615
1	0	0	0	0	422	618
2	0	0	0	0	423	615
3	0	0	0	0	424	615
4	0	0	0	0	426	615
5	0	0	0	0	429	614
6	0	0	0	0	431	616
7	0	0	0	0	433	616
8	0	0	0	0	437	616
9	0	0	0	0	440	618
10	0	0	0	0	443	616
11	0	0	0	0	446	617
12	0	0	0	0	447	615
13	0	0	0	0	447	614
14	0	0	0	0	446	616
15	0	0	0	0	445	616
0	0	0	0	0	443	616
1	0	0	0	0	440	618
2	0	0	0	0	438	616
3	0	0	0	0	437	616
4	0	0	0	0	436	616
5	0	0	0	0	435	614
6	0	0	0	0	435	616
7	0	0	0	0	436	616
8	0	0	0	0	438	616
9	0	0	0	0	439	619
10	0	0	0	0	441	616
11	0	0	0	0	444	616
12	0	0	0	0	448	616
13	0	0	0	0	450	615
14	0	0	0	0	452	616
15	0	0	0	0	454	616
0	0	0	0	0	455	615
1	0	0	0	0	456	619
2	0	0	0	0	455	615
3	0	0	0	0	454	616
4	0	0	0	0	453	616
5	0	0	0	0	452	615
6	0	0	0	0	449	616
