# OpenSignals Text File Format. Version 1
# {"98:D3:91:FD:69:48": {"position": 0, "device": "bitalino_rev", "device name": "98:D3:91:FD:69:48", "device connection": "BTH98:D3:91:FD:69:48", "sampling rate": 1000, "resolution": [4, 1, 1, 1, 1, 10, 10], "firmware version": 1281, "comments": "", "keywords": "", "mode": 0, "sync interval": 2, "date": "2021-9-19", "time": "15:24:41.646", "channels": [2, 5], "sensor": ["RAW", "RAW"], "label": ["A2", "A5"], "column": ["nSeq", "I1", "I2", "O1", "O2", "A2", "A5"], "special": [{}, {}], "digital IO": [0, 0, 1, 1], "convertedValues": 0}}
# EndOfHeader
0	0	0	0	0	512	419	
1	0	0	0	0	511	419	
2	0	0	0	0	511	419	
3	0	0	0	0	511	419	
4	0	0	0	0	511	419	
5	0	0	0	0	512	419	
6	0	0	0	0	511	419	
7	0	0	0	0	511	419	
8	0	0	0	0	511	419	
9	0	0	0	0	510	419	
10	0	0	0	0	510	419	
11	0	0	0	0	509	420	
12	0	0	0	0	509	419	
13	0	0	0	0	509	419	
14	0	0	0	0	509	419	
15	0	0	0	0	508	419	
0	0	0	0	0	507	419	
1	0	0	0	0	506	419	
2	0	0	0	0	506	419	
3	0	0	0	0	506	420	
4	0	0	0	0	506	419	
5	0	0	0	0	507	419	
6	0	0	0	0	508	419	
7	0	0	0	0	510	419	
8	0	0	0	0	510	419	
9	0	0	0	0	510	419	
10	0	0	0	0	510	419	
11	0	0	0	0	510	419	
12	0	0	0	0	508	419	
13	0	0	0	0	507	418	
14	0	0	0	0	506	419	
15	0	0	0	0	506	419	
0	0	0	0	0	505	419	
1	0	0	0	0	505	418	
2	0	0	0	0	504	419	
3	0	0	0	0	504	420	
4	0	0	0	0	504	419	
5	0	0	0	0	504	419	
6	0	0	0	0	504	419	
7	0	0	0	0	505	419	
8	0	0	0	0	505	419	
9	0	0	0	0	505	419	
10	0	0	0	0	505	418	
11	0	0	0	0	505	419	
12	0	0	0	0	506	419	
13	0	0	0	0	506	419	
14	0	0	0	0	507	419	
15	0	0	0	0	506	419	
0	0	0	0	0	505	419	
1	0	0	0	0	505	419	
2	0	0	0	0	504	419	
3	0	0	0	0	504	419	
4	0	0	0	0	505	418	
5	0	0	0	0	506	418	
6	0	0	0	0	506	418	
7	0	0	0	0	506	418	
8	0	0	0	0	505	418	
9	0	0	0	0	504	418	
10	0	0	0	0	504	418	
11	0	0	0	0	504	419	
12	0	0	0	0	504	418	
13	0	0	0	0	504	418	
14	0	0	0	0	504	418	
15	0	0	0	0	504	418	
0	0	0	0	0	504	418	
1	0	0	0	0	503	418	
2	0	0	0	0	503	418	
3	0	0	0	0	503	419	
4	0	0	0	0	503	417	
5	0	0	0	0	504	417	
6	0	0	0	0	504	418	
7	0	0	0	0	505	418	
8	0	0	0	0	505	417	
9	0	0	0	0	506	417	
10	0	0	0	0	506	418	
11	0	0	0	0	507	418	
12	0	0	0	0	508	418	
13	0	0	0	0	508	417	
14	0	0	0	0	508	417	
15	0	0	0	0	508	417	
0	0	0	0	0	508	417	
1	0	0	0	0	508	417	
2	0	0	0	0	507	416	
3	0	0	0	0	506	417	
4	0	0	0	0	505	417	
5	0	0	0	0	504	417	
6	0	0	0	0	504	417	
7	0	0	0	0	504	417	
8	0	0	0	0	506	417	
9	0	0	0	0	508	417	
10	0	0	0	0	509	418	
11	0	0	0	0	511	418	
12	0	0	0	0	512	417	
13	0	0	0	0	513	417	
14	0	0	0	0	512	417	
15	0	0	0	0	512	418	
0	0	0	0	0	511	417	
1	0	0	0	0	510	417	
2	0	0	0	0	509	417	
3	0	0	0	0	509	417	
4	0	0	0	0	509	417	
5	0	0	0	0	510	417	
6	0	0	0	0	510	416	
7	0	0	0	0	510	417	
8	0	0	0	0	510	417	
9	0	0	0	0	510	417	
10	0	0	0	0	509	416	
11	0	0	0	0	509	418	
12	0	0	0	0	508	417	
13	0	0	0	0	508	417	
14	0	0	0	0	507	417	
15	0	0	0	0	507	418	
0	0	0	0	0	506	417	
1	0	0	0	0	506	417	
2	0	0	0	0	507	417	
3	0	0	0	0	508	417	
4	0	0	0	0	510	417	
5	0	0	0	0	511	417	
6	0	0	0	0	512	417	
7	0	0	0	0	513	417	
8	0	0	0	0	515	416	
9	0	0	0	0	515	417	
10	0	0	0	0	516	417	
11	0	0	0	0	516	417	
12	0	0	0	0	516	417	
13	0	0	0	0	517	417	
14	0	0	0	0	516	417	
15	0	0	0	0	517	417	
0	0	0	0	0	518	417	
1	0	0	0	0	519	417	
2	0	0	0	0	520	416	
3	0	0	0	0	521	418	
4	0	0	0	0	522	417	
5	0	0	0	0	522	417	
6	0	0	0	0	521	417	
7	0	0	0	0	521	417	
8	0	0	0	0	521	416	
9	0	0	0	0	521	416	
10	0	0	0	0	522	417	
11	0	0	0	0	524	417	
12	0	0	0	0	525	417	
13	0	0	0	0	526	417	
14	0	0	0	0	526	417	
15	0	0	0	0	524	417	
0	0	0	0	0	524	417	
1	0	0	0	0	524	417	
2	0	0	0	0	524	417	
3	0	0	0	0	523	417	
4	0	0	0	0	523	416	
5	0	0	0	0	524	417	
6	0	0	0	0	524	417	
7	0	0	0	0	525	417	
8	0	0	0	0	526	417	
9	0	0	0	0	526	417	
10	0	0	0	0	526	417	
11	0	0	0	0	526	417	
12	0	0	0	0	526	416	
13	0	0	0	0	525	416	
14	0	0	0	0	524	417	
15	0	0	0	0	524	417	
0	0	0	0	0	524	416	
1	0	0	0	0	524	416	
2	0	0	0	0	524	417	
3	0	0	0	0	524	417	
4	0	0	0	0	525	417	
5	0	0	0	0	525	417	
6	0	0	0	0	525	417	
7	0	0	0	0	524	417	
8	0	0	0	0	523	417	
9	0	0	0	0	521	416	
10	0	0	0	0	519	416	
11	0	0	0	0	518	417	
12	0	0	0	0	518	416	
13	0	0	0	0	517	416	
14	0	0	0	0	517	417	
15	0	0	0	0	516	417	
0	0	0	0	0	516	416	
1	0	0	0	0	516	416	
2	0	0	0	0	516	416	
3	0	0	0	0	515	417	
4	0	0	0	0	514	417	
5	0	0	0	0	513	416	
6	0	0	0	0	512	416	
7	0	0	0	0	512	416	
8	0	0	0	0	511	416	
9	0	0	0	0	510	416	
10	0	0	0	0	511	416	
11	0	0	0	0	510	417	
12	0	0	0	0	510	416	
13	0	0	0	0	510	417	
14	0	0	0	0	510	417	
15	0	0	0	0	510	417	
0	0	0	0	0	509	417	
1	0	0	0	0	509	416	
2	0	0	0	0	509	417	
3	0	0	0	0	510	417	
4	0	0	0	0	509	417	
5	0	0	0	0	510	417	
6	0	0	0	0	510	417	
7	0	0	0	0	510	418	
8	0	0	0	0	510	416	
9	0	0	0	0	510	417	
10	0	0	0	0	510	417	
11	0	0	0	0	510	418	
12	0	0	0	0	509	417	
13	0	0	0	0	508	417	
14	0	0	0	0	508	417	
15	0	0	0	0	507	418	
0	0	0	0	0	507	417	
1	0	0	0	0	508	418	
2	0	0	0	0	508	417	
3	0	0	0	0	508	418	
4	0	0	0	0	507	417	
5	0	0	0	0	507	417	
6	0	0	0	0	508	418	
7	0	0	0	0	509	418	
8	0	0	0	0	509	418	
9	0	0	0	0	508	418	
10	0	0	0	0	507	418	
11	0	0	0	0	507	419	
12	0	0	0	0	507	419	
13	0	0	0	0	506	419	
14	0	0	0	0	505	419	
15	0	0	0	0	503	419	
0	0	0	0	0	502	419	
1	0	0	0	0	499	418	
2	0	0	0	0	498	419	
3	0	0	0	0	496	420	
4	0	0	0	0	494	419	
5	0	0	0	0	492	419	
6	0	0	0	0	490	419	
7	0	0	0	0	488	420	
8	0	0	0	0	487	419	
9	0	0	0	0	485	419	
10	0	0	0	0	484	419	
11	0	0	0	0	483	419	
12	0	0	0	0	485	418	
13	0	0	0	0	487	419	
14	0	0	0	0	490	420	
15	0	0	0	0	493	419	
0	0	0	0	0	497	419	
1	0	0	0	0	500	419	
2	0	0	0	0	504	419	
3	0	0	0	0	507	421	
4	0	0	0	0	511	420	
5	0	0	0	0	516	420	
6	0	0	0	0	522	420	
7	0	0	0	0	528	420	
8	0	0	0	0	535	420	
9	0	0	0	0	542	420	
10	0	0	0	0	548	419	
11	0	0	0	0	556	420	
12	0	0	0	0	564	419	
13	0	0	0	0	573	419	
14	0	0	0	0	584	420	
15	0	0	0	0	594	420	
0	0	0	0	0	605	420	
1	0	0	0	0	615	420	
2	0	0	0	0	625	420	
3	0	0	0	0	635	420	
4	0	0	0	0	644	420	
5	0	0	0	0	650	420	
6	0	0	0	0	653	420	
7	0	0	0	0	652	421	
8	0	0	0	0	648	421	
9	0	0	0	0	639	421	
10	0	0	0	0	629	420	
11	0	0	0	0	613	421	
12	0	0	0	0	596	421	
13	0	0	0	0	580	420	
14	0	0	0	0	566	420	
15	0	0	0	0	554	421	
0	0	0	0	0	542	420	
1	0	0	0	0	533	420	
2	0	0	0	0	526	420	
3	0	0	0	0	521	421	
4	0	0	0	0	518	420	
5	0	0	0	0	518	420	
6	0	0	0	0	520	420	
7	0	0	0	0	524	420	
8	0	0	0	0	527	419	
9	0	0	0	0	528	419	
10	0	0	0	0	528	419	
11	0	0	0	0	527	420	
12	0	0	0	0	526	419	
13	0	0	0	0	526	419	
14	0	0	0	0	526	420	
15	0	0	0	0	525	419	
0	0	0	0	0	524	419	
1	0	0	0	0	521	419	
2	0	0	0	0	519	419	
3	0	0	0	0	516	421	
4	0	0	0	0	513	419	
5	0	0	0	0	510	419	
6	0	0	0	0	507	420	
7	0	0	0	0	505	420	
8	0	0	0	0	503	419	
9	0	0	0	0	500	419	
10	0	0	0	0	498	419	
11	0	0	0	0	497	420	
12	0	0	0	0	495	420	
13	0	0	0	0	494	419	
14	0	0	0	0	492	419	
15	0	0	0	0	492	419	
0	0	0	0	0	492	419	
1	0	0	0	0	492	419	
2	0	0	0	0	492	420	
3	0	0	0	0	493	420	
4	0	0	0	0	492	418	
5	0	0	0	0	491	419	
6	0	0	0	0	489	419	
7	0	0	0	0	488	419	
8	0	0	0	0	487	419	
9	0	0	0	0	487	419	
10	0	0	0	0	487	419	
11	0	0	0	0	487	420	
12	0	0	0	0	487	419	
13	0	0	0	0	487	419	
14	0	0	0	0	486	419	
15	0	0	0	0	486	419	
0	0	0	0	0	485	420	
1	0	0	0	0	484	418	
2	0	0	0	0	484	419	
3	0	0	0	0	484	419	
4	0	0	0	0	485	419	
5	0	0	0	0	486	419	
6	0	0	0	0	487	419	
7	0	0	0	0	489	419	
8	0	0	0	0	490	419	
9	0	0	0	0	491	418	
10	0	0	0	0	490	418	
11	0	0	0	0	489	419	
12	0	0	0	0	488	419	
13	0	0	0	0	487	419	
14	0	0	0	0	488	419	
15	0	0	0	0	488	419	
0	0	0	0	0	487	419	
1	0	0	0	0	487	419	
2	0	0	0	0	487	418	
3	0	0	0	0	489	419	
4	0	0	0	0	491	418	
5	0	0	0	0	492	418	
6	0	0	0	0	492	418	
7	0	0	0	0	493	419	
8	0	0	0	0	494	419	
9	0	0	0	0	496	418	
10	0	0	0	0	497	419	
11	0	0	0	0	498	418	
12	0	0	0	0	500	418	
13	0	0	0	0	502	418	
14	0	0	0	0	504	418	
15	0	0	0	0	504	419	
0	0	0	0	0	504	418	
1	0	0	0	0	505	417	
2	0	0	0	0	506	418	
3	0	0	0	0	506	418	
4	0	0	0	0	506	418	
5	0	0	0	0	506	417	
6	0	0	0	0	507	417	
7	0	0	0	0	507	418	
8	0	0	0	0	506	417	
9	0	0	0	0	506	417	
10	0	0	0	0	507	418	
11	0	0	0	0	507	418	
12	0	0	0	0	507	418	
13	0	0	0	0	508	418	
14	0	0	0	0	508	418	
15	0	0	0	0	508	418	
0	0	0	0	0	508	417	
1	0	0	0	0	508	418	
2	0	0	0	0	508	417	
3	0	0	0	0	509	418	
4	0	0	0	0	510	417	
5	0	0	0	0	511	417	
6	0	0	0	0	511	418	
7	0	0	0	0	511	418	
8	0	0	0	0	510	417	
9	0	0	0	0	509	417	
10	0	0	0	0	508	416	
11	0	0	0	0	508	418	
12	0	0	0	0	508	417	
13	0	0	0	0	508	417	
14	0	0	0	0	509	417	
15	0	0	0	0	509	418	
0	0	0	0	0	509	417	
1	0	0	0	0	510	417	
2	0	0	0	0	510	417	
3	0	0	0	0	510	418	
4	0	0	0	0	510	417	
5	0	0	0	0	510	418	
6	0	0	0	0	508	418	
7	0	0	0	0	507	419	
8	0	0	0	0	506	417	
9	0	0	0	0	505	417	
10	0	0	0	0	506	418	
11	0	0	0	0	505	419	
12	0	0	0	0	504	417	
13	0	0	0	0	504	417	
14	0	0	0	0	504	418	
15	0	0	0	0	503	417	
0	0	0	0	0	503	417	
1	0	0	0	0	503	417	
2	0	0	0	0	502	418	
3	0	0	0	0	501	419	
4	0	0	0	0	500	417	
5	0	0	0	0	500	418	
6	0	0	0	0	500	418	
7	0	0	0	0	502	418	
8	0	0	0	0	502	418	
9	0	0	0	0	502	418	
10	0	0	0	0	502	418	
11	0	0	0	0	501	419	
12	0	0	0	0	500	418	
13	0	0	0	0	500	418	
14	0	0	0	0	500	418	
15	0	0	0	0	499	418	
0	0	0	0	0	499	418	
1	0	0	0	0	500	418	
2	0	0	0	0	501	418	
3	0	0	0	0	501	418	
4	0	0	0	0	500	418	
5	0	0	0	0	499	418	
6	0	0	0	0	498	418	
7	0	0	0	0	498	418	
8	0	0	0	0	498	418	
9	0	0	0	0	500	418	
10	0	0	0	0	501	418	
11	0	0	0	0	503	419	
12	0	0	0	0	504	418	
13	0	0	0	0	504	417	
14	0	0	0	0	504	418	
15	0	0	0	0	503	418	
0	0	0	0	0	503	418	
1	0	0	0	0	503	417	
2	0	0	0	0	503	417	
3	0	0	0	0	503	418	
4	0	0	0	0	502	417	
5	0	0	0	0	502	417	
6	0	0	0	0	501	417	
7	0	0	0	0	500	418	
8	0	0	0	0	500	417	
9	0	0	0	0	500	417	
10	0	0	0	0	500	417	
11	0	0	0	0	499	418	
12	0	0	0	0	500	417	
13	0	0	0	0	502	417	
14	0	0	0	0	503	418	
15	0	0	0	0	505	418	
0	0	0	0	0	506	417	
1	0	0	0	0	507	417	
2	0	0	0	0	508	417	
3	0	0	0	0	508	417	
4	0	0	0	0	507	417	
5	0	0	0	0	507	417	
6	0	0	0	0	507	417	
7	0	0	0	0	508	418	
8	0	0	0	0	509	418	
9	0	0	0	0	510	418	
10	0	0	0	0	510	418	
11	0	0	0	0	510	418	
12	0	0	0	0	510	418	
13	0	0	0	0	510	417	
14	0	0	0	0	510	417	
15	0	0	0	0	510	418	
0	0	0	0	0	510	418	
1	0	0	0	0	509	417	
2	0	0	0	0	509	418	
3	0	0	0	0	508	417	
4	0	0	0	0	509	417	
5	0	0	0	0	510	417	
6	0	0	0	0	509	418	
7	0	0	0	0	509	418	
8	0	0	0	0	509	418	
9	0	0	0	0	508	418	
10	0	0	0	0	507	418	
11	0	0	0	0	506	418	
12	0	0	0	0	505	418	
13	0	0	0	0	505	417	
14	0	0	0	0	505	418	
15	0	0	0	0	507	418	
0	0	0	0	0	507	419	
1	0	0	0	0	508	418	
2	0	0	0	0	508	417	
3	0	0	0	0	509	419	
4	0	0	0	0	510	417	
5	0	0	0	0	511	418	
6	0	0	0	0	512	417	
7	0	0	0	0	512	418	
8	0	0	0	0	512	417	
9	0	0	0	0	513	417	
10	0	0	0	0	514	417	
11	0	0	0	0	515	418	
12	0	0	0	0	516	417	
13	0	0	0	0	517	417	
14	0	0	0	0	518	418	
15	0	0	0	0	518	417	
0	0	0	0	0	519	417	
1	0	0	0	0	519	417	
2	0	0	0	0	520	417	
3	0	0	0	0	519	418	
4	0	0	0	0	519	417	
5	0	0	0	0	519	417	
6	0	0	0	0	519	417	
7	0	0	0	0	520	417	
8	0	0	0	0	521	418	
9	0	0	0	0	521	417	
10	0	0	0	0	521	417	
11	0	0	0	0	521	419	
12	0	0	0	0	522	417	
13	0	0	0	0	523	417	
14	0	0	0	0	523	417	
15	0	0	0	0	523	417	
0	0	0	0	0	523	418	
1	0	0	0	0	524	417	
2	0	0	0	0	524	418	
3	0	0	0	0	526	419	
4	0	0	0	0	525	417	
5	0	0	0	0	526	418	
6	0	0	0	0	525	417	
7	0	0	0	0	527	417	
8	0	0	0	0	527	418	
9	0	0	0	0	528	418	
10	0	0	0	0	529	417	
11	0	0	0	0	528	418	
12	0	0	0	0	529	417	
13	0	0	0	0	530	417	
14	0	0	0	0	530	418	
15	0	0	0	0	530	417	
0	0	0	0	0	530	417	
1	0	0	0	0	531	417	
2	0	0	0	0	530	417	
3	0	0	0	0	531	418	
4	0	0	0	0	530	417	
5	0	0	0	0	529	417	
6	0	0	0	0	528	418	
7	0	0	0	0	527	418	
8	0	0	0	0	527	418	
9	0	0	0	0	525	418	
10	0	0	0	0	523	418	
11	0	0	0	0	522	419	
12	0	0	0	0	522	418	
13	0	0	0	0	523	418	
14	0	0	0	0	524	418	
15	0	0	0	0	524	418	
0	0	0	0	0	525	418	
1	0	0	0	0	525	418	
2	0	0	0	0	526	418	
3	0	0	0	0	527	419	
4	0	0	0	0	527	418	
5	0	0	0	0	527	418	
6	0	0	0	0	527	417	
7	0	0	0	0	526	417	
8	0	0	0	0	524	418	
9	0	0	0	0	521	417	
10	0	0	0	0	520	417	
11	0	0	0	0	519	418	
12	0	0	0	0	518	417	
13	0	0	0	0	517	418	
14	0	0	0	0	517	418	
15	0	0	0	0	518	418	
0	0	0	0	0	519	419	
1	0	0	0	0	520	418	
2	0	0	0	0	520	418	
3	0	0	0	0	521	419	
4	0	0	0	0	520	418	
5	0	0	0	0	519	418	
6	0	0	0	0	518	418	
7	0	0	0	0	516	419	
8	0	0	0	0	515	418	
9	0	0	0	0	514	418	
10	0	0	0	0	513	418	
11	0	0	0	0	511	419	
12	0	0	0	0	510	418	
13	0	0	0	0	510	418	
14	0	0	0	0	512	418	
15	0	0	0	0	514	418	
0	0	0	0	0	516	418	
1	0	0	0	0	516	419	
2	0	0	0	0	515	418	
3	0	0	0	0	514	419	
4	0	0	0	0	513	418	
5	0	0	0	0	512	418	
6	0	0	0	0	510	418	
7	0	0	0	0	509	418	
8	0	0	0	0	508	418	
9	0	0	0	0	505	418	
10	0	0	0	0	505	419	
11	0	0	0	0	505	419	
12	0	0	0	0	505	418	
13	0	0	0	0	505	419	
14	0	0	0	0	507	418	
15	0	0	0	0	508	419	
0	0	0	0	0	509	419	
1	0	0	0	0	509	419	
2	0	0	0	0	510	418	
3	0	0	0	0	510	419	
4	0	0	0	0	510	418	
5	0	0	0	0	510	418	
6	0	0	0	0	510	419	
7	0	0	0	0	510	419	
8	0	0	0	0	510	419	
9	0	0	0	0	509	418	
10	0	0	0	0	509	418	
11	0	0	0	0	508	419	
12	0	0	0	0	507	419	
13	0	0	0	0	507	419	
14	0	0	0	0	508	419	
15	0	0	0	0	508	419	
0	0	0	0	0	507	419	
1	0	0	0	0	506	418	
2	0	0	0	0	506	419	
3	0	0	0	0	507	419	
4	0	0	0	0	508	418	
5	0	0	0	0	509	419	
6	0	0	0	0	509	419	
7	0	0	0	0	509	419	
8	0	0	0	0	509	419	
9	0	0	0	0	509	419	
10	0	0	0	0	508	419	
11	0	0	0	0	508	420	
12	0	0	0	0	508	419	
13	0	0	0	0	508	419	
14	0	0	0	0	508	419	
15	0	0	0	0	508	419	
0	0	0	0	0	508	419	
1	0	0	0	0	508	418	
2	0	0	0	0	508	419	
3	0	0	0	0	509	420	
4	0	0	0	0	509	419	
5	0	0	0	0	510	419	
6	0	0	0	0	510	419	
7	0	0	0	0	510	420	
8	0	0	0	0	510	419	
9	0	0	0	0	510	419	
10	0	0	0	0	510	419	
11	0	0	0	0	509	419	
12	0	0	0	0	508	419	
13	0	0	0	0	508	419	
14	0	0	0	0	507	419	
15	0	0	0	0	507	419	
0	0	0	0	0	507	419	
1	0	0	0	0	506	419	
2	0	0	0	0	507	418	
3	0	0	0	0	507	419	
4	0	0	0	0	507	418	
5	0	0	0	0	507	418	
6	0	0	0	0	507	418	
7	0	0	0	0	508	419	
8	0	0	0	0	510	419	
9	0	0	0	0	511	418	
10	0	0	0	0	512	418	
11	0	0	0	0	513	419	
12	0	0	0	0	512	418	
13	0	0	0	0	512	418	
14	0	0	0	0	511	418	
15	0	0	0	0	510	418	
0	0	0	0	0	509	418	
1	0	0	0	0	508	418	
2	0	0	0	0	508	418	
3	0	0	0	0	508	419	
4	0	0	0	0	507	418	
5	0	0	0	0	507	418	
6	0	0	0	0	507	417	
7	0	0	0	0	506	418	
8	0	0	0	0	505	417	
9	0	0	0	0	503	418	
10	0	0	0	0	503	418	
11	0	0	0	0	502	419	
12	0	0	0	0	502	418	
13	0	0	0	0	501	419	
14	0	0	0	0	500	419	
15	0	0	0	0	500	419	
0	0	0	0	0	501	419	
1	0	0	0	0	503	418	
2	0	0	0	0	503	418	
3	0	0	0	0	504	419	
4	0	0	0	0	504	418	
5	0	0	0	0	503	418	
6	0	0	0	0	503	418	
7	0	0	0	0	504	419	
8	0	0	0	0	504	418	
9	0	0	0	0	505	419	
10	0	0	0	0	506	418	
11	0	0	0	0	507	419	
12	0	0	0	0	508	419	
13	0	0	0	0	508	418	
14	0	0	0	0	508	418	
15	0	0	0	0	508	419	
0	0	0	0	0	508	418	
1	0	0	0	0	508	419	
2	0	0	0	0	508	418	
3	0	0	0	0	508	419	
4	0	0	0	0	507	418	
5	0	0	0	0	507	418	
6	0	0	0	0	507	419	
7	0	0	0	0	508	418	
8	0	0	0	0	509	418	
9	0	0	0	0	510	419	
10	0	0	0	0	511	418	
11	0	0	0	0	511	419	
12	0	0	0	0	511	418	
13	0	0	0	0	510	418	
14	0	0	0	0	510	418	
15	0	0	0	0	509	418	
0	0	0	0	0	509	418	
1	0	0	0	0	509	418	
2	0	0	0	0	508	417	
3	0	0	0	0	507	419	
4	0	0	0	0	507	418	
5	0	0	0	0	508	418	
6	0	0	0	0	508	419	
7	0	0	0	0	508	419	
8	0	0	0	0	507	418	
9	0	0	0	0	506	418	
10	0	0	0	0	506	419	
11	0	0	0	0	507	419	
12	0	0	0	0	508	419	
13	0	0	0	0	510	418	
14	0	0	0	0	511	419	
15	0	0	0	0	512	419	
0	0	0	0	0	512	419	
1	0	0	0	0	511	418	
2	0	0	0	0	510	419	
3	0	0	0	0	509	419	
4	0	0	0	0	508	418	
5	0	0	0	0	508	418	
6	0	0	0	0	508	419	
7	0	0	0	0	508	418	
8	0	0	0	0	508	419	
9	0	0	0	0	508	419	
10	0	0	0	0	508	419	
11	0	0	0	0	508	419	
12	0	0	0	0	508	419	
13	0	0	0	0	508	419	
14	0	0	0	0	508	419	
15	0	0	0	0	508	419	
0	0	0	0	0	508	419	
1	0	0	0	0	507	418	
2	0	0	0	0	508	419	
3	0	0	0	0	508	419	
4	0	0	0	0	508	418	
5	0	0	0	0	509	419	
6	0	0	0	0	509	419	
7	0	0	0	0	510	419	
8	0	0	0	0	510	419	
9	0	0	0	0	511	419	
10	0	0	0	0	512	419	
11	0	0	0	0	514	419	
12	0	0	0	0	516	419	
13	0	0	0	0	517	419	
14	0	0	0	0	518	419	
15	0	0	0	0	518	419	
0	0	0	0	0	517	419	
1	0	0	0	0	516	418	
2	0	0	0	0	518	418	
3	0	0	0	0	519	419	
4	0	0	0	0	519	419	
5	0	0	0	0	519	418	
6	0	0	0	0	519	419	
7	0	0	0	0	519	419	
8	0	0	0	0	519	419	
9	0	0	0	0	520	419	
10	0	0	0	0	520	418	
11	0	0	0	0	520	419	
12	0	0	0	0	520	419	
13	0	0	0	0	520	419	
14	0	0	0	0	520	419	
15	0	0	0	0	521	419	
0	0	0	0	0	520	418	
1	0	0	0	0	521	418	
2	0	0	0	0	520	419	
3	0	0	0	0	520	419	
4	0	0	0	0	520	419	
5	0	0	0	0	521	418	
6	0	0	0	0	521	418	
7	0	0	0	0	523	419	
8	0	0	0	0	524	419	
9	0	0	0	0	526	418	
10	0	0	0	0	526	418	
11	0	0	0	0	525	419	
12	0	0	0	0	524	418	
13	0	0	0	0	524	419	
14	0	0	0	0	524	419	
15	0	0	0	0	524	419	
0	0	0	0	0	524	419	
1	0	0	0	0	524	419	
2	0	0	0	0	525	419	
3	0	0	0	0	525	419	
4	0	0	0	0	525	419	
5	0	0	0	0	524	419	
6	0	0	0	0	523	417	
7	0	0	0	0	522	418	
8	0	0	0	0	521	418	
9	0	0	0	0	521	418	
10	0	0	0	0	522	418	
11	0	0	0	0	521	419	
12	0	0	0	0	519	418	
13	0	0	0	0	519	418	
14	0	0	0	0	518	418	
15	0	0	0	0	518	418	
0	0	0	0	0	518	418	
1	0	0	0	0	517	418	
2	0	0	0	0	515	417	
3	0	0	0	0	514	419	
4	0	0	0	0	515	418	
5	0	0	0	0	516	418	
6	0	0	0	0	514	418	
7	0	0	0	0	513	418	
8	0	0	0	0	512	418	
9	0	0	0	0	512	418	
10	0	0	0	0	511	417	
11	0	0	0	0	511	418	
12	0	0	0	0	511	417	
13	0	0	0	0	512	417	
14	0	0	0	0	513	417	
15	0	0	0	0	514	417	
0	0	0	0	0	514	418	
1	0	0	0	0	513	417	
2	0	0	0	0	513	417	
3	0	0	0	0	514	419	
4	0	0	0	0	515	417	
5	0	0	0	0	516	417	
6	0	0	0	0	517	417	
7	0	0	0	0	517	418	
8	0	0	0	0	517	417	
9	0	0	0	0	516	417	
10	0	0	0	0	516	417	
11	0	0	0	0	516	417	
12	0	0	0	0	516	417	
13	0	0	0	0	515	417	
14	0	0	0	0	514	417	
15	0	0	0	0	514	417	
0	0	0	0	0	513	417	
1	0	0	0	0	513	417	
2	0	0	0	0	512	417	
3	0	0	0	0	512	418	
4	0	0	0	0	512	418	
5	0	0	0	0	512	417	
6	0	0	0	0	512	417	
7	0	0	0	0	513	418	
8	0	0	0	0	513	418	
9	0	0	0	0	512	417	
10	0	0	0	0	512	417	
11	0	0	0	0	511	417	
12	0	0	0	0	510	418	
13	0	0	0	0	508	417	
14	0	0	0	0	507	417	
15	0	0	0	0	504	417	
0	0	0	0	0	503	417	
1	0	0	0	0	503	417	
2	0	0	0	0	501	417	
3	0	0	0	0	498	418	
4	0	0	0	0	496	417	
5	0	0	0	0	494	418	
6	0	0	0	0	491	417	
7	0	0	0	0	490	418	
8	0	0	0	0	490	417	
9	0	0	0	0	491	418	
10	0	0	0	0	492	417	
11	0	0	0	0	493	419	
12	0	0	0	0	495	418	
13	0	0	0	0	496	417	
14	0	0	0	0	497	418	
15	0	0	0	0	498	417	
0	0	0	0	0	501	418	
1	0	0	0	0	503	418	
2	0	0	0	0	507	418	
3	0	0	0	0	511	418	
4	0	0	0	0	514	417	
5	0	0	0	0	518	417	
6	0	0	0	0	521	418	
7	0	0	0	0	525	418	
8	0	0	0	0	530	418	
9	0	0	0	0	536	418	
10	0	0	0	0	543	418	
11	0	0	0	0	550	419	
12	0	0	0	0	558	419	
13	0	0	0	0	566	417	
14	0	0	0	0	575	418	
15	0	0	0	0	585	419	
0	0	0	0	0	594	417	
1	0	0	0	0	604	418	
2	0	0	0	0	613	418	
3	0	0	0	0	622	419	
4	0	0	0	0	630	418	
5	0	0	0	0	636	418	
6	0	0	0	0	640	418	
7	0	0	0	0	639	418	
8	0	0	0	0	636	418	
9	0	0	0	0	629	417	
10	0	0	0	0	618	418	
11	0	0	0	0	604	419	
12	0	0	0	0	588	418	
13	0	0	0	0	572	418	
14	0	0	0	0	558	418	
15	0	0	0	0	545	418	
0	0	0	0	0	535	418	
1	0	0	0	0	527	418	
2	0	0	0	0	519	418	
3	0	0	0	0	515	419	
4	0	0	0	0	512	417	
5	0	0	0	0	512	418	
6	0	0	0	0	513	418	
7	0	0	0	0	515	418	
8	0	0	0	0	518	418	
9	0	0	0	0	521	419	
10	0	0	0	0	523	418	
11	0	0	0	0	524	419	
12	0	0	0	0	524	417	
13	0	0	0	0	524	418	
14	0	0	0	0	523	417	
15	0	0	0	0	522	418	
0	0	0	0	0	520	418	
1	0	0	0	0	518	418	
2	0	0	0	0	517	418	
3	0	0	0	0	514	419	
4	0	0	0	0	510	418	
5	0	0	0	0	506	418	
6	0	0	0	0	502	418	
7	0	0	0	0	498	418	
8	0	0	0	0	496	419	
9	0	0	0	0	493	419	
10	0	0	0	0	491	418	
11	0	0	0	0	489	419	
12	0	0	0	0	487	419	
13	0	0	0	0	486	419	
14	0	0	0	0	484	418	
15	0	0	0	0	482	419	
0	0	0	0	0	481	419	
1	0	0	0	0	479	418	
2	0	0	0	0	478	419	
3	0	0	0	0	477	419	
4	0	0	0	0	477	419	
5	0	0	0	0	477	418	
6	0	0	0	0	476	419	
7	0	0	0	0	476	419	
8	0	0	0	0	476	419	
9	0	0	0	0	476	418	
10	0	0	0	0	477	418	
11	0	0	0	0	478	419	
12	0	0	0	0	479	419	
13	0	0	0	0	479	419	
14	0	0	0	0	478	418	
15	0	0	0	0	477	419	
0	0	0	0	0	477	419	
1	0	0	0	0	476	419	
2	0	0	0	0	475	419	
3	0	0	0	0	475	419	
4	0	0	0	0	475	419	
5	0	0	0	0	475	419	
6	0	0	0	0	476	418	
7	0	0	0	0	478	419	
8	0	0	0	0	478	418	
9	0	0	0	0	479	418	
10	0	0	0	0	480	418	
11	0	0	0	0	480	419	
12	0	0	0	0	480	418	
13	0	0	0	0	481	418	
14	0	0	0	0	481	418	
15	0	0	0	0	482	419	
0	0	0	0	0	483	419	
1	0	0	0	0	483	418	
2	0	0	0	0	482	418	
3	0	0	0	0	481	419	
4	0	0	0	0	480	418	
5	0	0	0	0	480	419	
6	0	0	0	0	479	419	
7	0	0	0	0	479	419	
8	0	0	0	0	479	419	
9	0	0	0	0	479	419	
10	0	0	0	0	479	419	
11	0	0	0	0	479	420	
12	0	0	0	0	479	419	
13	0	0	0	0	479	419	
14	0	0	0	0	479	418	
15	0	0	0	0	478	419	
0	0	0	0	0	479	419	
1	0	0	0	0	480	419	
2	0	0	0	0	479	419	
3	0	0	0	0	479	419	
4	0	0	0	0	479	419	
5	0	0	0	0	479	418	
6	0	0	0	0	480	419	
7	0	0	0	0	481	418	
8	0	0	0	0	481	419	
9	0	0	0	0	480	418	
10	0	0	0	0	480	419	
11	0	0	0	0	480	420	
12	0	0	0	0	479	418	
13	0	0	0	0	479	419	
14	0	0	0	0	479	419	
15	0	0	0	0	478	419	
0	0	0	0	0	478	419	
1	0	0	0	0	477	419	
2	0	0	0	0	477	419	
3	0	0	0	0	477	419	
4	0	0	0	0	477	419	
5	0	0	0	0	479	418	
6	0	0	0	0	479	418	
7	0	0	0	0	479	419	
8	0	0	0	0	479	419	
9	0	0	0	0	480	419	
10	0	0	0	0	480	418	
11	0	0	0	0	480	419	
12	0	0	0	0	479	418	
13	0	0	0	0	479	418	
14	0	0	0	0	478	418	
15	0	0	0	0	478	418	
0	0	0	0	0	479	418	
1	0	0	0	0	480	418	
2	0	0	0	0	481	418	
3	0	0	0	0	482	419	
4	0	0	0	0	483	418	
5	0	0	0	0	483	417	
6	0	0	0	0	483	418	
7	0	0	0	0	484	419	
8	0	0	0	0	485	418	
9	0	0	0	0	486	419	
10	0	0	0	0	486	419	
11	0	0	0	0	486	420	
12	0	0	0	0	486	420	
13	0	0	0	0	487	419	
14	0	0	0	0	487	419	
15	0	0	0	0	488	419	
0	0	0	0	0	491	419	
1	0	0	0	0	493	419	
2	0	0	0	0	495	419	
3	0	0	0	0	497	419	
4	0	0	0	0	497	419	
5	0	0	0	0	498	419	
6	0	0	0	0	498	418	
7	0	0	0	0	498	419	
8	0	0	0	0	499	419	
9	0	0	0	0	498	419	
10	0	0	0	0	498	418	
11	0	0	0	0	498	419	
12	0	0	0	0	498	419	
13	0	0	0	0	497	419	
14	0	0	0	0	496	419	
15	0	0	0	0	496	419	
0	0	0	0	0	495	419	
1	0	0	0	0	496	419	
2	0	0	0	0	496	418	
3	0	0	0	0	497	419	
4	0	0	0	0	497	418	
5	0	0	0	0	498	418	
6	0	0	0	0	500	419	
7	0	0	0	0	502	420	
8	0	0	0	0	502	418	
9	0	0	0	0	502	419	
10	0	0	0	0	501	418	
11	0	0	0	0	500	420	
12	0	0	0	0	500	419	
13	0	0	0	0	499	419	
14	0	0	0	0	499	418	
15	0	0	0	0	498	419	
0	0	0	0	0	498	419	
1	0	0	0	0	498	419	
2	0	0	0	0	498	419	
3	0	0	0	0	496	420	
4	0	0	0	0	496	419	
5	0	0	0	0	496	419	
6	0	0	0	0	497	419	
7	0	0	0	0	497	419	
8	0	0	0	0	497	418	
9	0	0	0	0	497	418	
10	0	0	0	0	496	418	
11	0	0	0	0	496	419	
12	0	0	0	0	497	418	
13	0	0	0	0	497	417	
14	0	0	0	0	497	417	
15	0	0	0	0	498	418	
0	0	0	0	0	499	417	
1	0	0	0	0	500	418	
2	0	0	0	0	501	418	
3	0	0	0	0	501	419	
4	0	0	0	0	502	418	
5	0	0	0	0	502	418	
6	0	0	0	0	502	418	
7	0	0	0	0	502	419	
8	0	0	0	0	503	419	
9	0	0	0	0	504	417	
10	0	0	0	0	504	418	
11	0	0	0	0	504	418	
12	0	0	0	0	504	418	
13	0	0	0	0	504	418	
14	0	0	0	0	505	418	
15	0	0	0	0	505	418	
0	0	0	0	0	505	418	
1	0	0	0	0	505	418	
2	0	0	0	0	505	418	
3	0	0	0	0	505	419	
4	0	0	0	0	506	418	
5	0	0	0	0	506	419	
6	0	0	0	0	507	419	
7	0	0	0	0	506	419	
8	0	0	0	0	506	418	
9	0	0	0	0	505	418	
10	0	0	0	0	504	418	
11	0	0	0	0	504	419	
12	0	0	0	0	503	419	
13	0	0	0	0	503	418	
14	0	0	0	0	504	419	
15	0	0	0	0	504	419	
0	0	0	0	0	504	419	
1	0	0	0	0	504	419	
2	0	0	0	0	504	418	
3	0	0	0	0	505	419	
4	0	0	0	0	505	418	
5	0	0	0	0	506	418	
6	0	0	0	0	506	418	
7	0	0	0	0	506	418	
8	0	0	0	0	507	418	
9	0	0	0	0	507	418	
10	0	0	0	0	508	419	
11	0	0	0	0	508	418	
12	0	0	0	0	508	417	
13	0	0	0	0	509	418	
14	0	0	0	0	509	418	
15	0	0	0	0	510	419	
0	0	0	0	0	511	419	
1	0	0	0	0	512	418	
2	0	0	0	0	513	418	
3	0	0	0	0	514	419	
4	0	0	0	0	515	418	
5	0	0	0	0	514	418	
6	0	0	0	0	514	418	
7	0	0	0	0	514	417	
8	0	0	0	0	516	417	
9	0	0	0	0	516	418	
10	0	0	0	0	518	418	
11	0	0	0	0	519	418	
12	0	0	0	0	519	417	
13	0	0	0	0	519	418	
14	0	0	0	0	519	418	
15	0	0	0	0	520	419	
0	0	0	0	0	521	418	
1	0	0	0	0	521	418	
2	0	0	0	0	521	418	
3	0	0	0	0	521	419	
4	0	0	0	0	522	417	
5	0	0	0	0	523	418	
6	0	0	0	0	525	418	
7	0	0	0	0	526	418	
8	0	0	0	0	527	418	
9	0	0	0	0	528	418	
10	0	0	0	0	528	418	
11	0	0	0	0	528	419	
12	0	0	0	0	528	418	
13	0	0	0	0	529	418	
14	0	0	0	0	530	418	
15	0	0	0	0	531	418	
0	0	0	0	0	532	417	
1	0	0	0	0	533	418	
2	0	0	0	0	534	418	
3	0	0	0	0	534	418	
4	0	0	0	0	534	418	
5	0	0	0	0	534	418	
6	0	0	0	0	535	418	
7	0	0	0	0	535	419	
8	0	0	0	0	535	418	
9	0	0	0	0	535	418	
10	0	0	0	0	534	418	
11	0	0	0	0	535	419	
12	0	0	0	0	535	418	
13	0	0	0	0	536	419	
14	0	0	0	0	535	419	
15	0	0	0	0	535	419	
0	0	0	0	0	535	418	
1	0	0	0	0	535	419	
2	0	0	0	0	534	419	
3	0	0	0	0	533	419	
4	0	0	0	0	533	418	
5	0	0	0	0	532	418	
6	0	0	0	0	531	418	
7	0	0	0	0	531	418	
8	0	0	0	0	531	418	
9	0	0	0	0	531	418	
10	0	0	0	0	529	418	
11	0	0	0	0	528	418	
12	0	0	0	0	527	417	
13	0	0	0	0	528	417	
14	0	0	0	0	528	417	
15	0	0	0	0	529	419	
0	0	0	0	0	529	419	
1	0	0	0	0	527	418	
2	0	0	0	0	527	418	
3	0	0	0	0	526	418	
4	0	0	0	0	525	418	
5	0	0	0	0	525	418	
6	0	0	0	0	525	419	
7	0	0	0	0	525	419	
8	0	0	0	0	525	419	
9	0	0	0	0	524	418	
10	0	0	0	0	523	418	
11	0	0	0	0	522	419	
12	0	0	0	0	520	418	
13	0	0	0	0	520	418	
14	0	0	0	0	519	418	
15	0	0	0	0	518	419	
0	0	0	0	0	518	418	
1	0	0	0	0	518	419	
2	0	0	0	0	518	418	
3	0	0	0	0	517	419	
4	0	0	0	0	517	418	
5	0	0	0	0	515	419	
6	0	0	0	0	515	418	
7	0	0	0	0	515	419	
8	0	0	0	0	515	419	
9	0	0	0	0	515	418	
10	0	0	0	0	514	419	
11	0	0	0	0	513	420	
12	0	0	0	0	512	418	
13	0	0	0	0	512	419	
14	0	0	0	0	511	419	
15	0	0	0	0	511	419	
0	0	0	0	0	511	419	
1	0	0	0	0	511	419	
2	0	0	0	0	510	419	
3	0	0	0	0	510	419	
4	0	0	0	0	510	419	
5	0	0	0	0	510	418	
6	0	0	0	0	509	419	
7	0	0	0	0	509	419	
8	0	0	0	0	509	419	
9	0	0	0	0	509	418	
10	0	0	0	0	509	418	
11	0	0	0	0	510	419	
12	0	0	0	0	510	419	
13	0	0	0	0	510	419	
14	0	0	0	0	511	418	
15	0	0	0	0	511	419	
0	0	0	0	0	511	419	
1	0	0	0	0	511	419	
2	0	0	0	0	511	419	
3	0	0	0	0	510	419	
4	0	0	0	0	510	419	
5	0	0	0	0	509	419	
6	0	0	0	0	509	418	
7	0	0	0	0	510	419	
8	0	0	0	0	509	418	
9	0	0	0	0	509	418	
10	0	0	0	0	509	418	
11	0	0	0	0	508	420	
12	0	0	0	0	507	419	
13	0	0	0	0	507	419	
14	0	0	0	0	506	419	
15	0	0	0	0	505	419	
0	0	0	0	0	505	419	
1	0	0	0	0	504	419	
2	0	0	0	0	503	418	
3	0	0	0	0	503	419	
4	0	0	0	0	501	418	
5	0	0	0	0	501	417	
6	0	0	0	0	501	418	
7	0	0	0	0	501	419	
8	0	0	0	0	501	418	
9	0	0	0	0	502	418	
10	0	0	0	0	504	418	
11	0	0	0	0	504	419	
12	0	0	0	0	505	418	
13	0	0	0	0	505	418	
14	0	0	0	0	505	418	
15	0	0	0	0	506	418	
0	0	0	0	0	505	418	
1	0	0	0	0	505	418	
2	0	0	0	0	506	418	
3	0	0	0	0	505	418	
4	0	0	0	0	505	418	
5	0	0	0	0	506	418	
6	0	0	0	0	507	418	
7	0	0	0	0	507	419	
8	0	0	0	0	507	419	
9	0	0	0	0	508	418	
10	0	0	0	0	508	418	
11	0	0	0	0	507	419	
12	0	0	0	0	506	417	
13	0	0	0	0	506	419	
14	0	0	0	0	505	418	
15	0	0	0	0	505	417	
0	0	0	0	0	505	417	
1	0	0	0	0	504	418	
2	0	0	0	0	504	417	
3	0	0	0	0	503	418	
4	0	0	0	0	504	417	
5	0	0	0	0	503	417	
6	0	0	0	0	503	418	
7	0	0	0	0	503	418	
8	0	0	0	0	503	418	
9	0	0	0	0	504	418	
10	0	0	0	0	504	417	
11	0	0	0	0	504	419	
12	0	0	0	0	505	418	
13	0	0	0	0	505	418	
14	0	0	0	0	506	418	
15	0	0	0	0	506	419	
0	0	0	0	0	506	418	
1	0	0	0	0	507	417	
2	0	0	0	0	507	418	
3	0	0	0	0	507	418	
4	0	0	0	0	505	418	
5	0	0	0	0	504	418	
6	0	0	0	0	503	418	
7	0	0	0	0	502	418	
8	0	0	0	0	503	418	
9	0	0	0	0	503	417	
10	0	0	0	0	504	417	
11	0	0	0	0	503	419	
12	0	0	0	0	503	418	
13	0	0	0	0	504	418	
14	0	0	0	0	504	417	
15	0	0	0	0	505	418	
0	0	0	0	0	505	418	
1	0	0	0	0	506	418	
2	0	0	0	0	507	418	
3	0	0	0	0	508	419	
4	0	0	0	0	509	418	
5	0	0	0	0	509	418	
6	0	0	0	0	509	418	
7	0	0	0	0	508	418	
8	0	0	0	0	508	419	
9	0	0	0	0	507	418	
10	0	0	0	0	507	418	
11	0	0	0	0	507	419	
12	0	0	0	0	507	418	
13	0	0	0	0	508	418	
14	0	0	0	0	508	418	
15	0	0	0	0	508	419	
0	0	0	0	0	508	419	
1	0	0	0	0	508	418	
2	0	0	0	0	508	419	
3	0	0	0	0	507	419	
4	0	0	0	0	506	418	
5	0	0	0	0	506	419	
6	0	0	0	0	507	418	
7	0	0	0	0	507	418	
8	0	0	0	0	507	418	
9	0	0	0	0	507	419	
10	0	0	0	0	507	418	
11	0	0	0	0	508	419	
12	0	0	0	0	508	418	
13	0	0	0	0	508	419	
14	0	0	0	0	508	418	
15	0	0	0	0	507	419	
0	0	0	0	0	507	419	
1	0	0	0	0	507	419	
2	0	0	0	0	507	418	
3	0	0	0	0	508	419	
4	0	0	0	0	507	418	
5	0	0	0	0	508	419	
6	0	0	0	0	508	418	
7	0	0	0	0	508	418	
8	0	0	0	0	508	418	
9	0	0	0	0	508	418	
10	0	0	0	0	508	418	
11	0	0	0	0	507	419	
12	0	0	0	0	508	418	
13	0	0	0	0	508	418	
14	0	0	0	0	508	418	
15	0	0	0	0	509	419	
0	0	0	0	0	509	418	
1	0	0	0	0	510	419	
2	0	0	0	0	510	419	
3	0	0	0	0	511	419	
4	0	0	0	0	511	419	
5	0	0	0	0	512	419	
6	0	0	0	0	512	419	
7	0	0	0	0	512	419	
8	0	0	0	0	513	419	
9	0	0	0	0	514	418	
10	0	0	0	0	515	419	
11	0	0	0	0	515	420	
12	0	0	0	0	516	419	
13	0	0	0	0	516	419	
14	0	0	0	0	518	419	
15	0	0	0	0	519	419	
0	0	0	0	0	520	419	
1	0	0	0	0	521	419	
2	0	0	0	0	522	419	
3	0	0	0	0	522	420	
4	0	0	0	0	522	418	
5	0	0	0	0	522	418	
6	0	0	0	0	521	419	
7	0	0	0	0	522	418	
8	0	0	0	0	522	419	
9	0	0	0	0	522	419	
10	0	0	0	0	523	418	
11	0	0	0	0	524	419	
12	0	0	0	0	524	418	
13	0	0	0	0	524	418	
14	0	0	0	0	524	418	
15	0	0	0	0	524	419	
0	0	0	0	0	524	418	
1	0	0	0	0	524	418	
2	0	0	0	0	524	418	
3	0	0	0	0	523	418	
4	0	0	0	0	522	418	
5	0	0	0	0	522	418	
6	0	0	0	0	522	418	
7	0	0	0	0	522	418	
8	0	0	0	0	523	417	
9	0	0	0	0	524	417	
10	0	0	0	0	524	418	
11	0	0	0	0	524	418	
12	0	0	0	0	524	418	
13	0	0	0	0	524	417	
14	0	0	0	0	524	417	
15	0	0	0	0	524	418	
0	0	0	0	0	524	417	
1	0	0	0	0	524	418	
2	0	0	0	0	524	417	
3	0	0	0	0	524	418	
4	0	0	0	0	524	417	
5	0	0	0	0	523	417	
6	0	0	0	0	523	417	
7	0	0	0	0	522	418	
8	0	0	0	0	522	417	
9	0	0	0	0	522	418	
10	0	0	0	0	522	417	
11	0	0	0	0	522	419	
12	0	0	0	0	522	418	
13	0	0	0	0	523	418	
14	0	0	0	0	523	417	
15	0	0	0	0	523	418	
0	0	0	0	0	523	418	
1	0	0	0	0	523	417	
2	0	0	0	0	521	418	
3	0	0	0	0	521	418	
4	0	0	0	0	521	418	
5	0	0	0	0	520	417	
6	0	0	0	0	519	418	
7	0	0	0	0	518	418	
8	0	0	0	0	516	417	
9	0	0	0	0	515	417	
10	0	0	0	0	513	417	
11	0	0	0	0	513	417	
12	0	0	0	0	512	417	
13	0	0	0	0	513	417	
14	0	0	0	0	514	417	
15	0	0	0	0	515	417	
0	0	0	0	0	516	417	
1	0	0	0	0	516	416	
2	0	0	0	0	515	417	
3	0	0	0	0	515	417	
4	0	0	0	0	516	417	
5	0	0	0	0	516	417	
6	0	0	0	0	516	417	
7	0	0	0	0	516	417	
8	0	0	0	0	516	417	
9	0	0	0	0	516	417	
10	0	0	0	0	516	417	
11	0	0	0	0	515	418	
12	0	0	0	0	515	417	
13	0	0	0	0	515	417	
14	0	0	0	0	516	417	
15	0	0	0	0	516	417	
0	0	0	0	0	517	417	
1	0	0	0	0	516	417	
2	0	0	0	0	517	417	
3	0	0	0	0	518	418	
4	0	0	0	0	519	418	
5	0	0	0	0	519	417	
6	0	0	0	0	520	417	
7	0	0	0	0	519	417	
8	0	0	0	0	520	418	
9	0	0	0	0	519	418	
10	0	0	0	0	519	418	
11	0	0	0	0	519	418	
12	0	0	0	0	519	418	
13	0	0	0	0	519	417	
14	0	0	0	0	518	417	
15	0	0	0	0	516	418	
0	0	0	0	0	514	418	
1	0	0	0	0	511	417	
2	0	0	0	0	510	417	
3	0	0	0	0	509	417	
4	0	0	0	0	507	417	
5	0	0	0	0	505	417	
6	0	0	0	0	503	417	
7	0	0	0	0	503	417	
8	0	0	0	0	502	418	
9	0	0	0	0	501	417	
10	0	0	0	0	501	418	
11	0	0	0	0	500	418	
12	0	0	0	0	499	417	
13	0	0	0	0	499	417	
14	0	0	0	0	499	417	
15	0	0	0	0	500	418	
0	0	0	0	0	501	417	
1	0	0	0	0	502	417	
2	0	0	0	0	504	417	
3	0	0	0	0	507	418	
4	0	0	0	0	510	418	
5	0	0	0	0	513	418	
6	0	0	0	0	517	417	
7	0	0	0	0	522	418	
8	0	0	0	0	527	417	
9	0	0	0	0	534	418	
10	0	0	0	0	540	417	
11	0	0	0	0	547	418	
12	0	0	0	0	556	419	
13	0	0	0	0	565	418	
14	0	0	0	0	575	418	
15	0	0	0	0	585	418	
0	0	0	0	0	597	418	
1	0	0	0	0	608	417	
2	0	0	0	0	617	418	
3	0	0	0	0	625	418	
4	0	0	0	0	632	419	
5	0	0	0	0	638	418	
6	0	0	0	0	641	418	
7	0	0	0	0	642	418	
8	0	0	0	0	638	418	
9	0	0	0	0	631	418	
10	0	0	0	0	622	418	
11	0	0	0	0	608	419	
12	0	0	0	0	594	418	
13	0	0	0	0	578	419	
14	0	0	0	0	565	419	
15	0	0	0	0	552	418	
0	0	0	0	0	541	419	
1	0	0	0	0	531	418	
2	0	0	0	0	525	417	
3	0	0	0	0	520	419	
4	0	0	0	0	517	418	
5	0	0	0	0	516	419	
6	0	0	0	0	518	419	
7	0	0	0	0	520	419	
8	0	0	0	0	523	419	
9	0	0	0	0	525	419	
10	0	0	0	0	527	419	
11	0	0	0	0	527	419	
12	0	0	0	0	527	419	
13	0	0	0	0	526	419	
14	0	0	0	0	525	419	
15	0	0	0	0	524	419	
0	0	0	0	0	523	419	
1	0	0	0	0	521	418	
2	0	0	0	0	519	418	
3	0	0	0	0	516	419	
4	0	0	0	0	513	419	
5	0	0	0	0	509	419	
6	0	0	0	0	506	418	
7	0	0	0	0	503	419	
8	0	0	0	0	500	419	
9	0	0	0	0	497	419	
10	0	0	0	0	495	419	
11	0	0	0	0	493	419	
12	0	0	0	0	491	419	
13	0	0	0	0	489	418	
14	0	0	0	0	487	419	
15	0	0	0	0	485	419	
0	0	0	0	0	484	419	
1	0	0	0	0	483	419	
2	0	0	0	0	483	419	
3	0	0	0	0	483	420	
4	0	0	0	0	483	419	
5	0	0	0	0	483	419	
6	0	0	0	0	482	419	
7	0	0	0	0	482	419	
8	0	0	0	0	482	419	
9	0	0	0	0	482	419	
10	0	0	0	0	482	418	
11	0	0	0	0	482	420	
12	0	0	0	0	482	419	
13	0	0	0	0	483	419	
14	0	0	0	0	483	419	
15	0	0	0	0	483	419	
0	0	0	0	0	482	419	
1	0	0	0	0	483	419	
2	0	0	0	0	483	419	
3	0	0	0	0	484	419	
4	0	0	0	0	485	418	
5	0	0	0	0	485	418	
6	0	0	0	0	487	419	
7	0	0	0	0	487	419	
8	0	0	0	0	487	418	
9	0	0	0	0	487	418	
10	0	0	0	0	487	418	
11	0	0	0	0	487	419	
12	0	0	0	0	487	417	
13	0	0	0	0	488	418	
14	0	0	0	0	488	418	
15	0	0	0	0	489	418	
0	0	0	0	0	490	418	
1	0	0	0	0	490	418	
2	0	0	0	0	490	417	
3	0	0	0	0	490	419	
4	0	0	0	0	491	418	
5	0	0	0	0	492	419	
6	0	0	0	0	494	418	
7	0	0	0	0	495	419	
8	0	0	0	0	495	419	
9	0	0	0	0	495	419	
10	0	0	0	0	495	419	
11	0	0	0	0	495	419	
12	0	0	0	0	494	419	
13	0	0	0	0	494	418	
14	0	0	0	0	494	419	
15	0	0	0	0	495	418	
0	0	0	0	0	495	419	
1	0	0	0	0	496	419	
2	0	0	0	0	495	418	
3	0	0	0	0	496	419	
4	0	0	0	0	496	419	
5	0	0	0	0	496	418	
6	0	0	0	0	496	417	
7	0	0	0	0	494	419	
8	0	0	0	0	494	418	
9	0	0	0	0	493	418	
10	0	0	0	0	492	418	
11	0	0	0	0	492	419	
12	0	0	0	0	492	418	
13	0	0	0	0	492	418	
14	0	0	0	0	493	418	
15	0	0	0	0	494	419	
0	0	0	0	0	495	418	
1	0	0	0	0	496	418	
2	0	0	0	0	497	418	
3	0	0	0	0	498	418	
4	0	0	0	0	498	418	
5	0	0	0	0	498	418	
6	0	0	0	0	498	419	
7	0	0	0	0	498	419	
8	0	0	0	0	497	419	
9	0	0	0	0	496	419	
10	0	0	0	0	496	419	
11	0	0	0	0	495	419	
12	0	0	0	0	495	418	
13	0	0	0	0	495	418	
14	0	0	0	0	496	419	
15	0	0	0	0	497	418	
0	0	0	0	0	499	419	
1	0	0	0	0	499	419	
2	0	0	0	0	500	418	
3	0	0	0	0	501	419	
4	0	0	0	0	500	418	
5	0	0	0	0	500	418	
6	0	0	0	0	500	418	
7	0	0	0	0	500	419	
8	0	0	0	0	500	419	
9	0	0	0	0	501	419	
10	0	0	0	0	501	419	
11	0	0	0	0	500	419	
12	0	0	0	0	500	419	
13	0	0	0	0	499	419	
14	0	0	0	0	499	419	
15	0	0	0	0	498	419	
0	0	0	0	0	498	419	
1	0	0	0	0	498	419	
2	0	0	0	0	498	419	
3	0	0	0	0	499	419	
4	0	0	0	0	500	419	
5	0	0	0	0	500	419	
6	0	0	0	0	500	419	
7	0	0	0	0	499	420	
8	0	0	0	0	499	419	
9	0	0	0	0	499	419	
10	0	0	0	0	499	419	
11	0	0	0	0	499	419	
12	0	0	0	0	500	419	
13	0	0	0	0	501	419	
14	0	0	0	0	502	419	
15	0	0	0	0	502	419	
0	0	0	0	0	502	419	
1	0	0	0	0	502	419	
2	0	0	0	0	503	419	
3	0	0	0	0	503	419	
4	0	0	0	0	503	419	
5	0	0	0	0	503	419	
6	0	0	0	0	503	419	
7	0	0	0	0	503	419	
8	0	0	0	0	504	419	
9	0	0	0	0	504	419	
10	0	0	0	0	504	419	
11	0	0	0	0	504	419	
12	0	0	0	0	504	419	
13	0	0	0	0	504	419	
14	0	0	0	0	503	418	
15	0	0	0	0	503	419	
0	0	0	0	0	503	418	
1	0	0	0	0	504	418	
2	0	0	0	0	504	418	
3	0	0	0	0	504	419	
4	0	0	0	0	505	419	
5	0	0	0	0	505	419	
6	0	0	0	0	505	418	
7	0	0	0	0	506	419	
8	0	0	0	0	506	418	
9	0	0	0	0	506	418	
10	0	0	0	0	505	418	
11	0	0	0	0	504	419	
12	0	0	0	0	504	419	
13	0	0	0	0	504	418	
14	0	0	0	0	505	417	
15	0	0	0	0	506	418	
0	0	0	0	0	507	418	
1	0	0	0	0	508	418	
2	0	0	0	0	509	417	
3	0	0	0	0	510	419	
4	0	0	0	0	511	418	
5	0	0	0	0	511	418	
6	0	0	0	0	511	418	
7	0	0	0	0	510	418	
8	0	0	0	0	510	418	
9	0	0	0	0	508	418	
10	0	0	0	0	507	419	
11	0	0	0	0	506	419	
12	0	0	0	0	505	419	
13	0	0	0	0	505	418	
14	0	0	0	0	504	419	
15	0	0	0	0	505	418	
0	0	0	0	0	506	418	
1	0	0	0	0	507	418	
2	0	0	0	0	508	418	
3	0	0	0	0	508	418	
4	0	0	0	0	508	419	
5	0	0	0	0	508	419	
6	0	0	0	0	508	419	
7	0	0	0	0	508	419	
8	0	0	0	0	508	419	
9	0	0	0	0	508	419	
10	0	0	0	0	508	418	
11	0	0	0	0	508	419	
12	0	0	0	0	508	418	
13	0	0	0	0	508	418	
14	0	0	0	0	508	419	
15	0	0	0	0	508	419	
0	0	0	0	0	508	419	
1	0	0	0	0	507	417	
2	0	0	0	0	507	419	
3	0	0	0	0	507	419	
4	0	0	0	0	508	418	
5	0	0	0	0	508	418	
6	0	0	0	0	508	418	
7	0	0	0	0	508	419	
8	0	0	0	0	508	418	
9	0	0	0	0	508	419	
10	0	0	0	0	508	418	
11	0	0	0	0	508	418	
12	0	0	0	0	509	418	
13	0	0	0	0	509	418	
14	0	0	0	0	509	419	
15	0	0	0	0	509	418	
0	0	0	0	0	510	418	
1	0	0	0	0	511	419	
2	0	0	0	0	510	418	
3	0	0	0	0	510	419	
4	0	0	0	0	510	417	
5	0	0	0	0	511	418	
6	0	0	0	0	512	418	
7	0	0	0	0	511	419	
8	0	0	0	0	511	418	
9	0	0	0	0	511	418	
10	0	0	0	0	510	418	
11	0	0	0	0	510	419	
12	0	0	0	0	510	418	
13	0	0	0	0	510	418	
14	0	0	0	0	510	418	
15	0	0	0	0	510	419	
0	0	0	0	0	510	418	
1	0	0	0	0	510	418	
2	0	0	0	0	510	418	
3	0	0	0	0	510	418	
4	0	0	0	0	511	418	
5	0	0	0	0	512	417	
6	0	0	0	0	512	418	
7	0	0	0	0	513	418	
8	0	0	0	0	513	418	
9	0	0	0	0	513	418	
10	0	0	0	0	514	418	
11	0	0	0	0	515	419	
12	0	0	0	0	515	418	
13	0	0	0	0	516	418	
14	0	0	0	0	518	418	
15	0	0	0	0	519	418	
0	0	0	0	0	519	418	
1	0	0	0	0	520	418	
2	0	0	0	0	521	418	
3	0	0	0	0	522	419	
4	0	0	0	0	522	418	
5	0	0	0	0	522	417	
6	0	0	0	0	523	418	
7	0	0	0	0	523	418	
8	0	0	0	0	524	418	
9	0	0	0	0	523	418	
10	0	0	0	0	523	419	
11	0	0	0	0	523	419	
12	0	0	0	0	522	418	
13	0	0	0	0	522	419	
14	0	0	0	0	521	418	
15	0	0	0	0	519	419	
0	0	0	0	0	518	418	
1	0	0	0	0	517	418	
2	0	0	0	0	516	418	
3	0	0	0	0	515	419	
4	0	0	0	0	514	417	
5	0	0	0	0	514	417	
6	0	0	0	0	514	418	
7	0	0	0	0	513	418	
8	0	0	0	0	513	417	
9	0	0	0	0	513	417	
10	0	0	0	0	512	418	
11	0	0	0	0	511	418	
12	0	0	0	0	510	418	
13	0	0	0	0	510	418	
14	0	0	0	0	509	418	
15	0	0	0	0	509	418	
0	0	0	0	0	508	417	
1	0	0	0	0	510	418	
2	0	0	0	0	511	418	
3	0	0	0	0	511	418	
4	0	0	0	0	512	417	
5	0	0	0	0	512	416	
6	0	0	0	0	512	418	
7	0	0	0	0	512	418	
8	0	0	0	0	512	417	
9	0	0	0	0	512	417	
10	0	0	0	0	512	417	
11	0	0	0	0	512	418	
12	0	0	0	0	512	418	
13	0	0	0	0	512	418	
14	0	0	0	0	512	418	
15	0	0	0	0	511	417	
0	0	0	0	0	510	417	
1	0	0	0	0	508	418	
2	0	0	0	0	507	418	
3	0	0	0	0	505	419	
4	0	0	0	0	504	417	
5	0	0	0	0	502	418	
6	0	0	0	0	501	418	
7	0	0	0	0	501	419	
8	0	0	0	0	502	418	
9	0	0	0	0	502	418	
10	0	0	0	0	504	418	
11	0	0	0	0	504	418	
12	0	0	0	0	504	418	
13	0	0	0	0	504	419	
14	0	0	0	0	504	418	
15	0	0	0	0	504	419	
0	0	0	0	0	504	418	
1	0	0	0	0	504	418	
2	0	0	0	0	503	419	
3	0	0	0	0	502	419	
4	0	0	0	0	501	418	
5	0	0	0	0	501	418	
6	0	0	0	0	500	418	
7	0	0	0	0	499	418	
8	0	0	0	0	499	418	
9	0	0	0	0	499	417	
10	0	0	0	0	499	418	
11	0	0	0	0	500	419	
12	0	0	0	0	501	418	
13	0	0	0	0	501	417	
14	0	0	0	0	501	418	
15	0	0	0	0	501	418	
0	0	0	0	0	500	418	
1	0	0	0	0	500	417	
2	0	0	0	0	500	417	
3	0	0	0	0	500	419	
4	0	0	0	0	500	418	
5	0	0	0	0	500	419	
6	0	0	0	0	500	418	
7	0	0	0	0	500	418	
8	0	0	0	0	500	418	
9	0	0	0	0	500	418	
10	0	0	0	0	501	417	
11	0	0	0	0	501	419	
12	0	0	0	0	501	418	
13	0	0	0	0	501	418	
14	0	0	0	0	500	418	
15	0	0	0	0	499	419	
0	0	0	0	0	499	418	
1	0	0	0	0	497	418	
2	0	0	0	0	497	418	
3	0	0	0	0	496	419	
4	0	0	0	0	496	418	
5	0	0	0	0	497	418	
6	0	0	0	0	499	418	
7	0	0	0	0	500	419	
8	0	0	0	0	500	418	
9	0	0	0	0	501	418	
10	0	0	0	0	501	417	
11	0	0	0	0	502	419	
12	0	0	0	0	503	418	
13	0	0	0	0	503	419	
14	0	0	0	0	503	418	
15	0	0	0	0	503	418	
0	0	0	0	0	504	419	
1	0	0	0	0	504	419	
2	0	0	0	0	505	419	
3	0	0	0	0	505	419	
4	0	0	0	0	506	418	
5	0	0	0	0	506	418	
6	0	0	0	0	506	417	
7	0	0	0	0	507	418	
8	0	0	0	0	507	418	
9	0	0	0	0	507	418	
10	0	0	0	0	507	418	
11	0	0	0	0	507	418	
12	0	0	0	0	507	418	
13	0	0	0	0	506	418	
14	0	0	0	0	505	418	
15	0	0	0	0	505	418	
0	0	0	0	0	505	418	
1	0	0	0	0	505	419	
2	0	0	0	0	505	419	
3	0	0	0	0	505	419	
4	0	0	0	0	504	418	
5	0	0	0	0	505	419	
6	0	0	0	0	506	418	
7	0	0	0	0	506	418	
8	0	0	0	0	506	418	
9	0	0	0	0	506	418	
10	0	0	0	0	507	418	
11	0	0	0	0	506	419	
12	0	0	0	0	506	418	
13	0	0	0	0	507	418	
14	0	0	0	0	507	418	
15	0	0	0	0	508	418	
0	0	0	0	0	507	418	
1	0	0	0	0	508	418	
2	0	0	0	0	508	418	
3	0	0	0	0	508	419	
4	0	0	0	0	508	418	
5	0	0	0	0	508	418	
6	0	0	0	0	508	418	
7	0	0	0	0	507	418	
8	0	0	0	0	506	418	
9	0	0	0	0	505	419	
10	0	0	0	0	505	418	
11	0	0	0	0	504	418	
12	0	0	0	0	504	418	
13	0	0	0	0	504	418	
14	0	0	0	0	505	418	
15	0	0	0	0	505	419	
0	0	0	0	0	505	418	
1	0	0	0	0	505	418	
2	0	0	0	0	506	418	
3	0	0	0	0	506	419	
4	0	0	0	0	505	418	
5	0	0	0	0	504	418	
6	0	0	0	0	504	418	
7	0	0	0	0	503	418	
8	0	0	0	0	502	417	
9	0	0	0	0	501	417	
10	0	0	0	0	500	417	
11	0	0	0	0	500	418	
12	0	0	0	0	500	418	
13	0	0	0	0	500	418	
14	0	0	0	0	501	417	
15	0	0	0	0	502	418	
0	0	0	0	0	503	417	
1	0	0	0	0	503	417	
2	0	0	0	0	503	418	
3	0	0	0	0	503	418	
4	0	0	0	0	503	418	
5	0	0	0	0	503	418	
6	0	0	0	0	503	417	
7	0	0	0	0	503	418	
8	0	0	0	0	503	417	
9	0	0	0	0	502	418	
10	0	0	0	0	502	417	
11	0	0	0	0	502	418	
12	0	0	0	0	502	418	
13	0	0	0	0	503	418	
14	0	0	0	0	503	418	
15	0	0	0	0	502	418	
0	0	0	0	0	502	418	
1	0	0	0	0	502	418	
2	0	0	0	0	502	418	
3	0	0	0	0	503	419	
4	0	0	0	0	502	418	
5	0	0	0	0	503	418	
6	0	0	0	0	504	419	
7	0	0	0	0	504	419	
8	0	0	0	0	505	418	
9	0	0	0	0	505	419	
10	0	0	0	0	504	419	
11	0	0	0	0	504	419	
12	0	0	0	0	503	419	
13	0	0	0	0	503	419	
14	0	0	0	0	503	418	
15	0	0	0	0	503	419	
0	0	0	0	0	503	419	
1	0	0	0	0	504	419	
2	0	0	0	0	504	419	
3	0	0	0	0	505	419	
4	0	0	0	0	506	418	
5	0	0	0	0	506	418	
6	0	0	0	0	506	418	
7	0	0	0	0	507	418	
8	0	0	0	0	507	419	
9	0	0	0	0	507	418	
10	0	0	0	0	508	418	
11	0	0	0	0	510	419	
12	0	0	0	0	511	418	
13	0	0	0	0	511	418	
14	0	0	0	0	511	418	
15	0	0	0	0	510	419	
0	0	0	0	0	510	418	
1	0	0	0	0	509	418	
2	0	0	0	0	509	418	
3	0	0	0	0	509	419	
4	0	0	0	0	509	418	
5	0	0	0	0	508	419	
6	0	0	0	0	508	418	
7	0	0	0	0	509	419	
8	0	0	0	0	509	419	
9	0	0	0	0	510	419	
10	0	0	0	0	510	417	
11	0	0	0	0	511	418	
12	0	0	0	0	511	418	
13	0	0	0	0	511	417	
14	0	0	0	0	511	418	
15	0	0	0	0	511	419	
0	0	0	0	0	510	418	
1	0	0	0	0	510	418	
2	0	0	0	0	509	418	
3	0	0	0	0	509	419	
4	0	0	0	0	508	419	
5	0	0	0	0	508	418	
6	0	0	0	0	507	419	
7	0	0	0	0	507	419	
8	0	0	0	0	507	418	
9	0	0	0	0	507	418	
10	0	0	0	0	506	419	
11	0	0	0	0	504	419	
12	0	0	0	0	504	419	
13	0	0	0	0	504	418	
14	0	0	0	0	504	418	
15	0	0	0	0	504	419	
0	0	0	0	0	503	419	
1	0	0	0	0	502	419	
2	0	0	0	0	502	419	
3	0	0	0	0	501	419	
4	0	0	0	0	501	418	
5	0	0	0	0	501	418	
6	0	0	0	0	501	418	
7	0	0	0	0	501	419	
8	0	0	0	0	501	418	
9	0	0	0	0	500	418	
10	0	0	0	0	499	418	
11	0	0	0	0	499	418	
12	0	0	0	0	498	417	
13	0	0	0	0	497	418	
14	0	0	0	0	497	418	
15	0	0	0	0	499	418	
0	0	0	0	0	499	417	
1	0	0	0	0	500	418	
2	0	0	0	0	501	418	
3	0	0	0	0	501	418	
4	0	0	0	0	502	418	
5	0	0	0	0	502	417	
6	0	0	0	0	502	418	
7	0	0	0	0	502	418	
8	0	0	0	0	501	418	
9	0	0	0	0	499	418	
10	0	0	0	0	499	417	
11	0	0	0	0	499	418	
12	0	0	0	0	499	417	
13	0	0	0	0	499	417	
14	0	0	0	0	499	418	
15	0	0	0	0	498	418	
0	0	0	0	0	498	417	
1	0	0	0	0	497	417	
2	0	0	0	0	498	417	
3	0	0	0	0	498	418	
4	0	0	0	0	497	418	
5	0	0	0	0	497	418	
6	0	0	0	0	498	418	
7	0	0	0	0	498	417	
8	0	0	0	0	499	418	
9	0	0	0	0	499	418	
10	0	0	0	0	500	418	
11	0	0	0	0	501	419	
12	0	0	0	0	501	418	
13	0	0	0	0	500	418	
14	0	0	0	0	499	418	
15	0	0	0	0	498	418	
0	0	0	0	0	498	418	
1	0	0	0	0	498	418	
2	0	0	0	0	498	418	
3	0	0	0	0	498	419	
4	0	0	0	0	498	418	
5	0	0	0	0	497	418	
6	0	0	0	0	496	418	
7	0	0	0	0	494	418	
8	0	0	0	0	491	418	
9	0	0	0	0	489	418	
10	0	0	0	0	487	418	
11	0	0	0	0	484	419	
12	0	0	0	0	482	419	
13	0	0	0	0	480	418	
14	0	0	0	0	479	419	
15	0	0	0	0	479	418	
0	0	0	0	0	479	418	
1	0	0	0	0	479	418	
2	0	0	0	0	479	418	
3	0	0	0	0	480	419	
4	0	0	0	0	481	418	
5	0	0	0	0	483	418	
6	0	0	0	0	485	418	
7	0	0	0	0	487	419	
8	0	0	0	0	491	418	
9	0	0	0	0	495	418	
10	0	0	0	0	500	418	
11	0	0	0	0	504	419	
12	0	0	0	0	510	417	
13	0	0	0	0	515	418	
14	0	0	0	0	521	418	
15	0	0	0	0	528	418	
0	0	0	0	0	535	417	
1	0	0	0	0	542	417	
2	0	0	0	0	550	418	
3	0	0	0	0	559	419	
4	0	0	0	0	570	418	
5	0	0	0	0	581	418	
6	0	0	0	0	593	417	
7	0	0	0	0	605	419	
8	0	0	0	0	615	419	
9	0	0	0	0	626	418	
10	0	0	0	0	635	418	
11	0	0	0	0	644	419	
12	0	0	0	0	652	418	
13	0	0	0	0	656	418	
14	0	0	0	0	657	418	
15	0	0	0	0	654	418	
0	0	0	0	0	647	417	
1	0	0	0	0	636	417	
2	0	0	0	0	621	417	
3	0	0	0	0	604	418	
4	0	0	0	0	588	417	
5	0	0	0	0	574	418	
6	0	0	0	0	560	418	
7	0	0	0	0	547	418	
8	0	0	0	0	536	418	
9	0	0	0	0	527	418	
10	0	0	0	0	520	418	
11	0	0	0	0	516	419	
12	0	0	0	0	515	418	
13	0	0	0	0	516	419	
14	0	0	0	0	518	417	
15	0	0	0	0	520	418	
0	0	0	0	0	522	417	
1	0	0	0	0	522	417	
2	0	0	0	0	522	418	
3	0	0	0	0	520	418	
4	0	0	0	0	518	417	
5	0	0	0	0	515	417	
6	0	0	0	0	513	418	
7	0	0	0	0	511	419	
8	0	0	0	0	509	418	
9	0	0	0	0	506	418	
10	0	0	0	0	503	418	
11	0	0	0	0	500	419	
12	0	0	0	0	497	417	
13	0	0	0	0	493	418	
14	0	0	0	0	490	418	
15	0	0	0	0	488	418	
0	0	0	0	0	487	418	
1	0	0	0	0	487	418	
2	0	0	0	0	487	418	
3	0	0	0	0	486	419	
4	0	0	0	0	485	419	
5	0	0	0	0	483	418	
6	0	0	0	0	482	419	
7	0	0	0	0	481	419	
8	0	0	0	0	480	418	
9	0	0	0	0	479	418	
10	0	0	0	0	479	418	
11	0	0	0	0	479	419	
12	0	0	0	0	478	418	
13	0	0	0	0	478	418	
14	0	0	0	0	477	418	
15	0	0	0	0	476	418	
0	0	0	0	0	476	418	
1	0	0	0	0	476	419	
2	0	0	0	0	476	418	
3	0	0	0	0	476	418	
4	0	0	0	0	476	417	
5	0	0	0	0	476	418	
6	0	0	0	0	476	418	
7	0	0	0	0	477	417	
8	0	0	0	0	477	418	
9	0	0	0	0	478	418	
10	0	0	0	0	477	418	
11	0	0	0	0	478	419	
12	0	0	0	0	479	418	
13	0	0	0	0	480	418	
14	0	0	0	0	481	418	
15	0	0	0	0	481	419	
0	0	0	0	0	481	418	
1	0	0	0	0	482	418	
2	0	0	0	0	482	418	
3	0	0	0	0	482	418	
4	0	0	0	0	483	419	
5	0	0	0	0	484	419	
6	0	0	0	0	485	418	
7	0	0	0	0	485	419	
8	0	0	0	0	485	418	
9	0	0	0	0	486	418	
10	0	0	0	0	486	417	
11	0	0	0	0	485	418	
12	0	0	0	0	486	418	
13	0	0	0	0	486	419	
14	0	0	0	0	487	419	
15	0	0	0	0	488	419	
0	0	0	0	0	489	419	
1	0	0	0	0	490	419	
2	0	0	0	0	490	419	
3	0	0	0	0	491	420	
4	0	0	0	0	492	419	
5	0	0	0	0	494	419	
6	0	0	0	0	496	419	
7	0	0	0	0	496	419	
8	0	0	0	0	497	419	
9	0	0	0	0	497	419	
10	0	0	0	0	496	419	
11	0	0	0	0	496	420	
12	0	0	0	0	496	419	
13	0	0	0	0	496	419	
14	0	0	0	0	496	419	
15	0	0	0	0	495	419	
0	0	0	0	0	495	419	
1	0	0	0	0	494	418	
2	0	0	0	0	494	418	
3	0	0	0	0	494	419	
4	0	0	0	0	493	418	
5	0	0	0	0	493	418	
6	0	0	0	0	493	419	
7	0	0	0	0	494	419	
8	0	0	0	0	494	418	
9	0	0	0	0	495	419	
10	0	0	0	0	496	419	
11	0	0	0	0	496	419	
12	0	0	0	0	496	419	
13	0	0	0	0	497	418	
14	0	0	0	0	497	418	
15	0	0	0	0	497	419	
0	0	0	0	0	498	418	
1	0	0	0	0	497	418	
2	0	0	0	0	497	418	
3	0	0	0	0	498	419	
4	0	0	0	0	498	419	
5	0	0	0	0	498	419	
6	0	0	0	0	497	419	
7	0	0	0	0	497	419	
8	0	0	0	0	498	419	
9	0	0	0	0	499	419	
10	0	0	0	0	499	419	
11	0	0	0	0	500	419	
12	0	0	0	0	501	418	
13	0	0	0	0	500	419	
14	0	0	0	0	500	419	
15	0	0	0	0	500	419	
0	0	0	0	0	500	418	
1	0	0	0	0	500	418	
2	0	0	0	0	500	419	
3	0	0	0	0	500	419	
4	0	0	0	0	499	418	
5	0	0	0	0	499	419	
6	0	0	0	0	499	419	
7	0	0	0	0	499	419	
8	0	0	0	0	500	418	
9	0	0	0	0	501	418	
10	0	0	0	0	501	419	
11	0	0	0	0	501	419	
12	0	0	0	0	501	419	
13	0	0	0	0	502	419	
14	0	0	0	0	502	419	
15	0	0	0	0	501	419	
0	0	0	0	0	502	419	
1	0	0	0	0	501	418	
2	0	0	0	0	500	418	
3	0	0	0	0	499	419	
4	0	0	0	0	499	419	
5	0	0	0	0	499	418	
6	0	0	0	0	499	419	
7	0	0	0	0	500	419	
8	0	0	0	0	501	418	
9	0	0	0	0	501	419	
10	0	0	0	0	502	418	
11	0	0	0	0	502	419	
12	0	0	0	0	502	418	
13	0	0	0	0	503	418	
14	0	0	0	0	503	418	
15	0	0	0	0	504	418	
0	0	0	0	0	504	418	
1	0	0	0	0	504	418	
2	0	0	0	0	504	418	
3	0	0	0	0	504	419	
4	0	0	0	0	504	419	
5	0	0	0	0	503	419	
6	0	0	0	0	503	419	
7	0	0	0	0	504	419	
8	0	0	0	0	504	418	
9	0	0	0	0	505	418	
10	0	0	0	0	505	418	
11	0	0	0	0	505	419	
12	0	0	0	0	505	418	
13	0	0	0	0	506	418	
14	0	0	0	0	506	418	
15	0	0	0	0	506	418	
0	0	0	0	0	505	418	
1	0	0	0	0	505	418	
2	0	0	0	0	505	418	
3	0	0	0	0	505	418	
4	0	0	0	0	504	417	
5	0	0	0	0	505	417	
6	0	0	0	0	504	417	
7	0	0	0	0	504	418	
8	0	0	0	0	503	417	
9	0	0	0	0	503	418	
10	0	0	0	0	503	418	
11	0	0	0	0	503	419	
12	0	0	0	0	503	419	
13	0	0	0	0	503	418	
14	0	0	0	0	504	418	
15	0	0	0	0	504	418	
0	0	0	0	0	505	418	
1	0	0	0	0	505	418	
2	0	0	0	0	505	418	
3	0	0	0	0	505	419	
4	0	0	0	0	505	418	
5	0	0	0	0	505	418	
6	0	0	0	0	505	417	
7	0	0	0	0	505	417	
8	0	0	0	0	505	417	
9	0	0	0	0	504	418	
10	0	0	0	0	504	417	
11	0	0	0	0	503	419	
12	0	0	0	0	503	417	
13	0	0	0	0	504	417	
14	0	0	0	0	504	417	
15	0	0	0	0	504	417	
0	0	0	0	0	505	417	
1	0	0	0	0	505	418	
2	0	0	0	0	505	418	
3	0	0	0	0	505	419	
4	0	0	0	0	504	418	
5	0	0	0	0	504	418	
6	0	0	0	0	505	418	
7	0	0	0	0	504	417	
8	0	0	0	0	505	417	
9	0	0	0	0	505	418	
10	0	0	0	0	505	417	
11	0	0	0	0	506	418	
12	0	0	0	0	505	417	
13	0	0	0	0	505	418	
14	0	0	0	0	505	418	
15	0	0	0	0	504	417	
0	0	0	0	0	504	417	
1	0	0	0	0	504	417	
2	0	0	0	0	504	417	
3	0	0	0	0	503	418	
4	0	0	0	0	503	417	
5	0	0	0	0	504	417	
6	0	0	0	0	505	418	
7	0	0	0	0	505	417	
8	0	0	0	0	505	418	
9	0	0	0	0	505	417	
10	0	0	0	0	505	417	
11	0	0	0	0	504	418	
12	0	0	0	0	504	417	
13	0	0	0	0	504	417	
14	0	0	0	0	504	418	
15	0	0	0	0	503	417	
0	0	0	0	0	504	417	
1	0	0	0	0	505	417	
2	0	0	0	0	504	417	
3	0	0	0	0	505	418	
4	0	0	0	0	505	417	
5	0	0	0	0	506	417	
6	0	0	0	0	506	417	
7	0	0	0	0	507	417	
8	0	0	0	0	507	417	
9	0	0	0	0	508	416	
10	0	0	0	0	509	417	
11	0	0	0	0	510	418	
12	0	0	0	0	510	417	
13	0	0	0	0	511	417	
14	0	0	0	0	512	417	
15	0	0	0	0	512	418	
0	0	0	0	0	513	418	
1	0	0	0	0	513	418	
2	0	0	0	0	514	418	
3	0	0	0	0	515	418	
4	0	0	0	0	515	417	
5	0	0	0	0	515	417	
6	0	0	0	0	515	417	
7	0	0	0	0	515	418	
8	0	0	0	0	514	417	
9	0	0	0	0	515	417	
10	0	0	0	0	515	417	
11	0	0	0	0	515	418	
12	0	0	0	0	515	417	
13	0	0	0	0	517	417	
14	0	0	0	0	518	417	
15	0	0	0	0	519	418	
0	0	0	0	0	518	417	
1	0	0	0	0	517	417	
2	0	0	0	0	516	418	
3	0	0	0	0	514	418	
4	0	0	0	0	514	416	
5	0	0	0	0	512	417	
6	0	0	0	0	512	417	
7	0	0	0	0	511	417	
8	0	0	0	0	511	418	
9	0	0	0	0	511	418	
10	0	0	0	0	510	417	
11	0	0	0	0	509	418	
12	0	0	0	0	509	418	
13	0	0	0	0	508	417	
14	0	0	0	0	508	418	
15	0	0	0	0	508	417	
0	0	0	0	0	508	418	
1	0	0	0	0	507	418	
2	0	0	0	0	507	417	
3	0	0	0	0	507	418	
4	0	0	0	0	506	417	
5	0	0	0	0	505	417	
6	0	0	0	0	504	417	
7	0	0	0	0	504	417	
8	0	0	0	0	503	417	
9	0	0	0	0	502	417	
10	0	0	0	0	503	417	
11	0	0	0	0	503	418	
12	0	0	0	0	502	417	
13	0	0	0	0	502	417	
14	0	0	0	0	502	417	
15	0	0	0	0	502	418	
0	0	0	0	0	502	418	
1	0	0	0	0	501	418	
2	0	0	0	0	501	418	
3	0	0	0	0	501	418	
4	0	0	0	0	502	417	
5	0	0	0	0	502	417	
6	0	0	0	0	502	417	
7	0	0	0	0	502	417	
8	0	0	0	0	501	417	
9	0	0	0	0	501	417	
10	0	0	0	0	500	417	
11	0	0	0	0	500	418	
12	0	0	0	0	500	418	
13	0	0	0	0	501	418	
14	0	0	0	0	501	418	
15	0	0	0	0	501	419	
0	0	0	0	0	502	418	
1	0	0	0	0	503	418	
2	0	0	0	0	504	419	
3	0	0	0	0	505	419	
4	0	0	0	0	506	418	
5	0	0	0	0	506	418	
6	0	0	0	0	506	418	
7	0	0	0	0	505	418	
8	0	0	0	0	505	417	
9	0	0	0	0	505	417	
10	0	0	0	0	505	418	
11	0	0	0	0	506	419	
12	0	0	0	0	507	417	
13	0	0	0	0	507	418	
14	0	0	0	0	508	419	
15	0	0	0	0	508	419	
0	0	0	0	0	509	418	
1	0	0	0	0	509	419	
2	0	0	0	0	509	418	
3	0	0	0	0	509	419	
4	0	0	0	0	509	418	
5	0	0	0	0	509	418	
6	0	0	0	0	509	417	
7	0	0	0	0	509	419	
8	0	0	0	0	509	418	
9	0	0	0	0	509	418	
10	0	0	0	0	509	418	
11	0	0	0	0	509	419	
12	0	0	0	0	509	418	
13	0	0	0	0	508	418	
14	0	0	0	0	508	418	
15	0	0	0	0	508	418	
0	0	0	0	0	507	419	
1	0	0	0	0	507	419	
2	0	0	0	0	506	419	
3	0	0	0	0	506	419	
4	0	0	0	0	506	419	
5	0	0	0	0	506	419	
6	0	0	0	0	505	419	
7	0	0	0	0	505	419	
8	0	0	0	0	505	418	
9	0	0	0	0	505	419	
10	0	0	0	0	504	419	
11	0	0	0	0	504	420	
12	0	0	0	0	504	419	
13	0	0	0	0	503	419	
14	0	0	0	0	503	419	
15	0	0	0	0	503	418	
0	0	0	0	0	503	418	
1	0	0	0	0	503	419	
2	0	0	0	0	502	418	
3	0	0	0	0	501	420	
4	0	0	0	0	500	418	
5	0	0	0	0	500	419	
6	0	0	0	0	499	418	
7	0	0	0	0	499	419	
8	0	0	0	0	500	419	
9	0	0	0	0	500	419	
10	0	0	0	0	500	419	
11	0	0	0	0	499	419	
12	0	0	0	0	499	420	
13	0	0	0	0	498	420	
14	0	0	0	0	498	419	
15	0	0	0	0	498	419	
0	0	0	0	0	499	419	
1	0	0	0	0	500	419	
2	0	0	0	0	501	419	
3	0	0	0	0	501	420	
4	0	0	0	0	503	419	
5	0	0	0	0	503	418	
6	0	0	0	0	503	419	
7	0	0	0	0	502	419	
8	0	0	0	0	502	419	
9	0	0	0	0	502	419	
10	0	0	0	0	502	418	
11	0	0	0	0	503	419	
12	0	0	0	0	503	418	
13	0	0	0	0	503	419	
14	0	0	0	0	503	419	
15	0	0	0	0	502	419	
0	0	0	0	0	502	418	
1	0	0	0	0	502	418	
2	0	0	0	0	502	418	
3	0	0	0	0	502	419	
4	0	0	0	0	503	418	
5	0	0	0	0	503	418	
6	0	0	0	0	503	418	
7	0	0	0	0	503	419	
8	0	0	0	0	503	418	
9	0	0	0	0	502	419	
10	0	0	0	0	502	419	
11	0	0	0	0	502	419	
12	0	0	0	0	501	418	
13	0	0	0	0	500	418	
14	0	0	0	0	501	418	
15	0	0	0	0	502	418	
0	0	0	0	0	502	419	
1	0	0	0	0	502	418	
2	0	0	0	0	502	418	
3	0	0	0	0	503	419	
4	0	0	0	0	502	417	
5	0	0	0	0	502	418	
6	0	0	0	0	502	418	
7	0	0	0	0	501	418	
8	0	0	0	0	500	418	
9	0	0	0	0	499	418	
10	0	0	0	0	499	418	
11	0	0	0	0	499	418	
12	0	0	0	0	499	418	
13	0	0	0	0	499	418	
14	0	0	0	0	500	418	
15	0	0	0	0	501	419	
0	0	0	0	0	501	418	
1	0	0	0	0	501	419	
2	0	0	0	0	501	418	
3	0	0	0	0	501	419	
4	0	0	0	0	502	418	
5	0	0	0	0	502	418	
6	0	0	0	0	502	418	
7	0	0	0	0	503	419	
8	0	0	0	0	503	419	
9	0	0	0	0	503	418	
10	0	0	0	0	503	419	
11	0	0	0	0	503	419	
12	0	0	0	0	504	419	
13	0	0	0	0	505	418	
14	0	0	0	0	505	419	
15	0	0	0	0	505	419	
0	0	0	0	0	505	418	
1	0	0	0	0	504	418	
2	0	0	0	0	504	418	
3	0	0	0	0	504	419	
4	0	0	0	0	505	417	
5	0	0	0	0	505	417	
6	0	0	0	0	505	418	
7	0	0	0	0	505	418	
8	0	0	0	0	505	417	
9	0	0	0	0	505	418	
10	0	0	0	0	505	418	
11	0	0	0	0	505	418	
12	0	0	0	0	504	418	
13	0	0	0	0	505	418	
14	0	0	0	0	505	418	
15	0	0	0	0	505	418	
0	0	0	0	0	506	418	
1	0	0	0	0	507	418	
2	0	0	0	0	508	417	
3	0	0	0	0	509	418	
4	0	0	0	0	510	417	
5	0	0	0	0	511	418	
6	0	0	0	0	511	417	
7	0	0	0	0	511	418	
8	0	0	0	0	512	417	
9	0	0	0	0	512	417	
10	0	0	0	0	512	417	
11	0	0	0	0	512	418	
12	0	0	0	0	512	417	
13	0	0	0	0	512	418	
14	0	0	0	0	512	418	
15	0	0	0	0	512	418	
0	0	0	0	0	512	418	
1	0	0	0	0	512	418	
2	0	0	0	0	512	417	
3	0	0	0	0	513	418	
4	0	0	0	0	513	417	
5	0	0	0	0	513	417	
6	0	0	0	0	513	417	
7	0	0	0	0	513	418	
8	0	0	0	0	513	417	
9	0	0	0	0	513	417	
10	0	0	0	0	513	417	
11	0	0	0	0	513	418	
12	0	0	0	0	513	418	
13	0	0	0	0	513	418	
14	0	0	0	0	514	418	
15	0	0	0	0	513	418	
0	0	0	0	0	514	417	
1	0	0	0	0	513	417	
2	0	0	0	0	514	418	
3	0	0	0	0	515	418	
4	0	0	0	0	514	417	
5	0	0	0	0	514	418	
6	0	0	0	0	513	417	
7	0	0	0	0	514	417	
8	0	0	0	0	514	418	
9	0	0	0	0	515	418	
10	0	0	0	0	515	417	
11	0	0	0	0	516	418	
12	0	0	0	0	517	417	
13	0	0	0	0	517	416	
14	0	0	0	0	517	417	
15	0	0	0	0	517	417	
0	0	0	0	0	516	417	
1	0	0	0	0	516	417	
2	0	0	0	0	515	417	
3	0	0	0	0	514	418	
4	0	0	0	0	513	417	
5	0	0	0	0	512	417	
6	0	0	0	0	511	417	
7	0	0	0	0	510	418	
8	0	0	0	0	510	417	
9	0	0	0	0	509	417	
10	0	0	0	0	507	417	
11	0	0	0	0	508	418	
12	0	0	0	0	507	417	
13	0	0	0	0	507	418	
14	0	0	0	0	506	417	
15	0	0	0	0	506	418	
0	0	0	0	0	505	417	
1	0	0	0	0	504	417	
2	0	0	0	0	503	417	
3	0	0	0	0	502	418	
4	0	0	0	0	503	417	
5	0	0	0	0	503	417	
6	0	0	0	0	502	418	
7	0	0	0	0	503	418	
8	0	0	0	0	503	417	
9	0	0	0	0	504	417	
10	0	0	0	0	504	417	
11	0	0	0	0	504	418	
12	0	0	0	0	504	418	
13	0	0	0	0	504	417	
14	0	0	0	0	504	418	
15	0	0	0	0	503	418	
0	0	0	0	0	502	417	
1	0	0	0	0	501	417	
2	0	0	0	0	502	417	
3	0	0	0	0	501	417	
4	0	0	0	0	501	416	
5	0	0	0	0	501	417	
6	0	0	0	0	500	417	
7	0	0	0	0	500	417	
8	0	0	0	0	499	417	
9	0	0	0	0	497	417	
10	0	0	0	0	497	417	
11	0	0	0	0	496	418	
12	0	0	0	0	496	417	
13	0	0	0	0	496	417	
14	0	0	0	0	495	417	
15	0	0	0	0	494	417	
0	0	0	0	0	493	417	
1	0	0	0	0	492	417	
2	0	0	0	0	491	417	
3	0	0	0	0	488	417	
4	0	0	0	0	487	417	
5	0	0	0	0	485	417	
6	0	0	0	0	484	418	
7	0	0	0	0	481	418	
8	0	0	0	0	479	417	
9	0	0	0	0	477	417	
10	0	0	0	0	475	417	
11	0	0	0	0	473	418	
12	0	0	0	0	472	418	
13	0	0	0	0	472	418	
14	0	0	0	0	473	418	
15	0	0	0	0	472	418	
0	0	0	0	0	472	418	
1	0	0	0	0	474	418	
2	0	0	0	0	476	418	
3	0	0	0	0	477	418	
4	0	0	0	0	480	418	
5	0	0	0	0	484	418	
6	0	0	0	0	488	418	
7	0	0	0	0	492	418	
8	0	0	0	0	497	418	
9	0	0	0	0	503	418	
10	0	0	0	0	509	418	
11	0	0	0	0	515	418	
12	0	0	0	0	523	417	
13	0	0	0	0	529	417	
14	0	0	0	0	537	418	
15	0	0	0	0	547	418	
0	0	0	0	0	556	418	
1	0	0	0	0	568	418	
2	0	0	0	0	579	418	
3	0	0	0	0	591	418	
4	0	0	0	0	604	418	
5	0	0	0	0	616	418	
6	0	0	0	0	628	419	
7	0	0	0	0	640	419	
8	0	0	0	0	650	419	
9	0	0	0	0	657	419	
10	0	0	0	0	662	419	
11	0	0	0	0	664	419	
12	0	0	0	0	661	418	
13	0	0	0	0	654	419	
14	0	0	0	0	644	418	
15	0	0	0	0	629	418	
0	0	0	0	0	613	418	
1	0	0	0	0	596	418	
2	0	0	0	0	581	418	
3	0	0	0	0	566	419	
4	0	0	0	0	553	418	
5	0	0	0	0	541	418	
6	0	0	0	0	531	418	
7	0	0	0	0	524	419	
8	0	0	0	0	519	418	
9	0	0	0	0	517	419	
10	0	0	0	0	518	419	
11	0	0	0	0	519	420	
12	0	0	0	0	519	419	
13	0	0	0	0	519	418	
14	0	0	0	0	517	418	
15	0	0	0	0	514	418	
0	0	0	0	0	512	418	
1	0	0	0	0	510	418	
2	0	0	0	0	508	418	
3	0	0	0	0	506	418	
4	0	0	0	0	504	418	
5	0	0	0	0	502	419	
6	0	0	0	0	500	419	
7	0	0	0	0	497	418	
8	0	0	0	0	494	418	
9	0	0	0	0	491	418	
10	0	0	0	0	487	419	
11	0	0	0	0	484	419	
12	0	0	0	0	481	419	
13	0	0	0	0	479	418	
14	0	0	0	0	477	418	
15	0	0	0	0	476	418	
0	0	0	0	0	473	419	
1	0	0	0	0	472	418	
2	0	0	0	0	470	419	
3	0	0	0	0	469	419	
4	0	0	0	0	468	419	
5	0	0	0	0	467	418	
6	0	0	0	0	467	419	
7	0	0	0	0	467	419	
8	0	0	0	0	466	419	
9	0	0	0	0	466	419	
10	0	0	0	0	466	418	
11	0	0	0	0	466	419	
12	0	0	0	0	465	419	
13	0	0	0	0	464	418	
14	0	0	0	0	463	418	
15	0	0	0	0	463	419	
0	0	0	0	0	462	419	
1	0	0	0	0	462	419	
2	0	0	0	0	463	418	
3	0	0	0	0	463	419	
4	0	0	0	0	463	419	
5	0	0	0	0	464	419	
6	0	0	0	0	465	419	
7	0	0	0	0	467	419	
8	0	0	0	0	468	419	
9	0	0	0	0	468	419	
10	0	0	0	0	470	419	
11	0	0	0	0	470	419	
12	0	0	0	0	471	418	
13	0	0	0	0	471	418	
14	0	0	0	0	472	419	
15	0	0	0	0	472	419	
0	0	0	0	0	472	419	
1	0	0	0	0	472	419	
2	0	0	0	0	473	419	
3	0	0	0	0	474	419	
4	0	0	0	0	475	418	
5	0	0	0	0	476	419	
6	0	0	0	0	477	419	
7	0	0	0	0	477	419	
8	0	0	0	0	477	419	
9	0	0	0	0	479	419	
10	0	0	0	0	479	419	
11	0	0	0	0	480	420	
12	0	0	0	0	481	419	
13	0	0	0	0	482	419	
14	0	0	0	0	483	419	
15	0	0	0	0	482	419	
0	0	0	0	0	480	418	
1	0	0	0	0	480	419	
2	0	0	0	0	480	418	
3	0	0	0	0	480	419	
4	0	0	0	0	480	418	
5	0	0	0	0	480	418	
6	0	0	0	0	481	419	
7	0	0	0	0	482	419	
8	0	0	0	0	483	419	
9	0	0	0	0	484	418	
10	0	0	0	0	485	418	
11	0	0	0	0	485	419	
12	0	0	0	0	485	419	
13	0	0	0	0	485	418	
14	0	0	0	0	484	419	
15	0	0	0	0	484	419	
0	0	0	0	0	483	419	
1	0	0	0	0	482	419	
2	0	0	0	0	482	419	
3	0	0	0	0	482	419	
4	0	0	0	0	482	418	
5	0	0	0	0	482	419	
6	0	0	0	0	481	419	
7	0	0	0	0	481	419	
8	0	0	0	0	481	418	
9	0	0	0	0	482	419	
10	0	0	0	0	482	419	
11	0	0	0	0	483	419	
12	0	0	0	0	482	419	
13	0	0	0	0	482	418	
14	0	0	0	0	482	419	
15	0	0	0	0	482	419	
0	0	0	0	0	481	419	
1	0	0	0	0	481	419	
2	0	0	0	0	480	418	
3	0	0	0	0	481	418	
4	0	0	0	0	481	418	
5	0	0	0	0	481	418	
6	0	0	0	0	481	418	
7	0	0	0	0	480	419	
8	0	0	0	0	479	418	
9	0	0	0	0	478	419	
10	0	0	0	0	478	418	
11	0	0	0	0	479	419	
12	0	0	0	0	479	418	
13	0	0	0	0	480	418	
14	0	0	0	0	480	418	
15	0	0	0	0	480	418	
0	0	0	0	0	480	418	
1	0	0	0	0	480	418	
2	0	0	0	0	480	418	
3	0	0	0	0	480	419	
4	0	0	0	0	481	418	
5	0	0	0	0	481	419	
6	0	0	0	0	481	419	
7	0	0	0	0	481	419	
8	0	0	0	0	482	419	
9	0	0	0	0	483	419	
10	0	0	0	0	483	419	
11	0	0	0	0	483	420	
12	0	0	0	0	483	419	
13	0	0	0	0	483	419	
14	0	0	0	0	483	419	
15	0	0	0	0	483	419	
0	0	0	0	0	482	419	
1	0	0	0	0	481	419	
2	0	0	0	0	480	419	
3	0	0	0	0	479	419	
4	0	0	0	0	479	419	
5	0	0	0	0	479	419	
6	0	0	0	0	480	418	
7	0	0	0	0	480	419	
8	0	0	0	0	481	418	
9	0	0	0	0	482	419	
10	0	0	0	0	482	418	
11	0	0	0	0	483	419	
12	0	0	0	0	484	419	
13	0	0	0	0	484	418	
14	0	0	0	0	484	418	
15	0	0	0	0	483	418	
0	0	0	0	0	483	418	
1	0	0	0	0	484	418	
2	0	0	0	0	484	418	
3	0	0	0	0	485	419	
4	0	0	0	0	486	418	
5	0	0	0	0	487	417	
6	0	0	0	0	488	417	
7	0	0	0	0	490	418	
8	0	0	0	0	491	418	
9	0	0	0	0	492	418	
10	0	0	0	0	492	418	
11	0	0	0	0	491	418	
12	0	0	0	0	490	418	
13	0	0	0	0	490	418	
14	0	0	0	0	489	419	
15	0	0	0	0	489	418	
0	0	0	0	0	489	418	
1	0	0	0	0	489	418	
2	0	0	0	0	489	417	
3	0	0	0	0	489	419	
4	0	0	0	0	489	418	
5	0	0	0	0	489	418	
6	0	0	0	0	489	418	
7	0	0	0	0	488	417	
8	0	0	0	0	488	417	
9	0	0	0	0	488	417	
10	0	0	0	0	487	418	
11	0	0	0	0	488	418	
12	0	0	0	0	489	417	
13	0	0	0	0	491	417	
14	0	0	0	0	491	417	
15	0	0	0	0	492	418	
0	0	0	0	0	493	417	
1	0	0	0	0	494	417	
2	0	0	0	0	495	418	
3	0	0	0	0	496	418	
4	0	0	0	0	495	417	
5	0	0	0	0	495	417	
6	0	0	0	0	494	417	
7	0	0	0	0	494	417	
8	0	0	0	0	494	417	
9	0	0	0	0	495	417	
10	0	0	0	0	494	416	
11	0	0	0	0	495	417	
12	0	0	0	0	494	417	
13	0	0	0	0	495	417	
14	0	0	0	0	495	417	
15	0	0	0	0	495	417	
0	0	0	0	0	495	417	
1	0	0	0	0	494	417	
2	0	0	0	0	494	417	
3	0	0	0	0	494	418	
4	0	0	0	0	493	416	
5	0	0	0	0	493	417	
6	0	0	0	0	493	417	
7	0	0	0	0	493	418	
8	0	0	0	0	493	417	
9	0	0	0	0	494	417	
10	0	0	0	0	495	417	
11	0	0	0	0	495	418	
12	0	0	0	0	496	417	
13	0	0	0	0	497	417	
14	0	0	0	0	497	417	
15	0	0	0	0	499	418	
0	0	0	0	0	499	417	
1	0	0	0	0	500	418	
2	0	0	0	0	501	417	
3	0	0	0	0	502	418	
4	0	0	0	0	503	418	
5	0	0	0	0	504	418	
6	0	0	0	0	504	418	
7	0	0	0	0	505	418	
8	0	0	0	0	505	417	
9	0	0	0	0	505	417	
10	0	0	0	0	506	417	
11	0	0	0	0	507	418	
12	0	0	0	0	508	418	
13	0	0	0	0	508	417	
14	0	0	0	0	508	417	
15	0	0	0	0	509	417	
0	0	0	0	0	509	417	
1	0	0	0	0	510	417	
2	0	0	0	0	511	417	
3	0	0	0	0	512	418	
4	0	0	0	0	513	417	
5	0	0	0	0	515	417	
6	0	0	0	0	516	418	
7	0	0	0	0	518	418	
8	0	0	0	0	520	418	
9	0	0	0	0	522	418	
10	0	0	0	0	523	418	
11	0	0	0	0	523	418	
12	0	0	0	0	521	418	
13	0	0	0	0	521	417	
14	0	0	0	0	520	418	
15	0	0	0	0	521	419	
0	0	0	0	0	521	417	
1	0	0	0	0	522	417	
2	0	0	0	0	522	418	
3	0	0	0	0	521	418	
4	0	0	0	0	521	418	
5	0	0	0	0	521	417	
6	0	0	0	0	521	418	
7	0	0	0	0	521	418	
8	0	0	0	0	519	418	
9	0	0	0	0	519	418	
10	0	0	0	0	518	417	
11	0	0	0	0	517	419	
12	0	0	0	0	517	417	
13	0	0	0	0	518	418	
14	0	0	0	0	519	418	
15	0	0	0	0	519	418	
0	0	0	0	0	520	418	
1	0	0	0	0	519	417	
2	0	0	0	0	519	417	
3	0	0	0	0	519	418	
4	0	0	0	0	520	418	
5	0	0	0	0	519	417	
6	0	0	0	0	518	418	
7	0	0	0	0	518	418	
8	0	0	0	0	518	417	
9	0	0	0	0	518	418	
10	0	0	0	0	518	417	
11	0	0	0	0	518	418	
12	0	0	0	0	518	417	
13	0	0	0	0	518	417	
14	0	0	0	0	518	418	
15	0	0	0	0	518	417	
0	0	0	0	0	518	417	
1	0	0	0	0	519	418	
2	0	0	0	0	519	418	
3	0	0	0	0	519	418	
4	0	0	0	0	519	418	
5	0	0	0	0	519	417	
6	0	0	0	0	519	417	
7	0	0	0	0	518	418	
8	0	0	0	0	517	417	
9	0	0	0	0	516	417	
10	0	0	0	0	515	418	
11	0	0	0	0	515	418	
12	0	0	0	0	515	417	
13	0	0	0	0	514	417	
14	0	0	0	0	513	417	
15	0	0	0	0	512	418	
0	0	0	0	0	512	418	
1	0	0	0	0	512	417	
2	0	0	0	0	511	417	
3	0	0	0	0	511	418	
4	0	0	0	0	510	418	
5	0	0	0	0	509	416	
6	0	0	0	0	509	417	
7	0	0	0	0	508	417	
8	0	0	0	0	507	418	
9	0	0	0	0	507	417	
10	0	0	0	0	507	417	
11	0	0	0	0	507	418	
12	0	0	0	0	507	417	
13	0	0	0	0	506	418	
14	0	0	0	0	506	418	
15	0	0	0	0	504	417	
0	0	0	0	0	504	417	
1	0	0	0	0	503	417	
2	0	0	0	0	502	417	
3	0	0	0	0	503	418	
4	0	0	0	0	502	417	
5	0	0	0	0	502	417	
6	0	0	0	0	502	418	
7	0	0	0	0	502	417	
8	0	0	0	0	503	418	
9	0	0	0	0	503	418	
10	0	0	0	0	504	417	
11	0	0	0	0	504	419	
12	0	0	0	0	503	418	
13	0	0	0	0	503	418	
14	0	0	0	0	503	418	
15	0	0	0	0	503	417	
0	0	0	0	0	503	417	
1	0	0	0	0	504	417	
2	0	0	0	0	504	417	
3	0	0	0	0	504	419	
4	0	0	0	0	503	417	
5	0	0	0	0	504	417	
6	0	0	0	0	504	417	
7	0	0	0	0	505	418	
8	0	0	0	0	504	418	
9	0	0	0	0	504	417	
10	0	0	0	0	504	418	
11	0	0	0	0	504	419	
12	0	0	0	0	504	418	
13	0	0	0	0	504	418	
14	0	0	0	0	505	418	
15	0	0	0	0	505	418	
0	0	0	0	0	505	419	
1	0	0	0	0	505	419	
2	0	0	0	0	505	419	
3	0	0	0	0	505	419	
4	0	0	0	0	505	418	
5	0	0	0	0	506	419	
6	0	0	0	0	507	419	
7	0	0	0	0	506	419	
8	0	0	0	0	507	419	
9	0	0	0	0	506	418	
10	0	0	0	0	506	418	
11	0	0	0	0	506	419	
12	0	0	0	0	506	418	
13	0	0	0	0	507	418	
14	0	0	0	0	508	418	
15	0	0	0	0	509	418	
0	0	0	0	0	509	418	
1	0	0	0	0	510	419	
2	0	0	0	0	510	418	
3	0	0	0	0	511	419	
4	0	0	0	0	512	418	
5	0	0	0	0	512	419	
6	0	0	0	0	512	418	
7	0	0	0	0	512	419	
8	0	0	0	0	512	418	
9	0	0	0	0	513	418	
10	0	0	0	0	514	418	
11	0	0	0	0	515	418	
12	0	0	0	0	516	418	
13	0	0	0	0	516	418	
14	0	0	0	0	515	418	
15	0	0	0	0	515	418	
0	0	0	0	0	515	417	
1	0	0	0	0	515	418	
2	0	0	0	0	515	418	
3	0	0	0	0	515	419	
4	0	0	0	0	514	418	
5	0	0	0	0	515	418	
6	0	0	0	0	515	417	
7	0	0	0	0	515	417	
8	0	0	0	0	515	418	
9	0	0	0	0	516	418	
10	0	0	0	0	516	417	
11	0	0	0	0	516	418	
12	0	0	0	0	516	418	
13	0	0	0	0	516	418	
14	0	0	0	0	517	418	
15	0	0	0	0	517	419	
0	0	0	0	0	516	419	
1	0	0	0	0	516	419	
2	0	0	0	0	516	418	
3	0	0	0	0	516	419	
4	0	0	0	0	516	417	
5	0	0	0	0	516	418	
6	0	0	0	0	517	418	
7	0	0	0	0	517	418	
8	0	0	0	0	517	417	
9	0	0	0	0	517	417	
10	0	0	0	0	518	418	
11	0	0	0	0	518	418	
12	0	0	0	0	518	417	
13	0	0	0	0	517	418	
14	0	0	0	0	516	418	
15	0	0	0	0	516	418	
0	0	0	0	0	516	417	
1	0	0	0	0	515	417	
2	0	0	0	0	515	417	
3	0	0	0	0	515	417	
4	0	0	0	0	515	417	
5	0	0	0	0	515	417	
6	0	0	0	0	515	417	
7	0	0	0	0	517	418	
8	0	0	0	0	517	417	
9	0	0	0	0	518	417	
10	0	0	0	0	518	417	
11	0	0	0	0	518	418	
12	0	0	0	0	517	417	
13	0	0	0	0	517	418	
14	0	0	0	0	515	417	
15	0	0	0	0	515	418	
0	0	0	0	0	515	417	
1	0	0	0	0	515	417	
2	0	0	0	0	515	417	
3	0	0	0	0	517	418	
4	0	0	0	0	518	418	
5	0	0	0	0	518	417	
6	0	0	0	0	519	417	
7	0	0	0	0	518	417	
8	0	0	0	0	518	417	
9	0	0	0	0	518	417	
10	0	0	0	0	518	417	
11	0	0	0	0	518	418	
12	0	0	0	0	517	418	
13	0	0	0	0	517	417	
14	0	0	0	0	518	418	
15	0	0	0	0	518	418	
0	0	0	0	0	518	418	
1	0	0	0	0	519	418	
2	0	0	0	0	519	417	
3	0	0	0	0	520	418	
4	0	0	0	0	520	418	
5	0	0	0	0	520	418	
6	0	0	0	0	521	417	
7	0	0	0	0	522	418	
8	0	0	0	0	522	417	
9	0	0	0	0	523	417	
10	0	0	0	0	523	418	
11	0	0	0	0	523	418	
12	0	0	0	0	523	418	
13	0	0	0	0	522	417	
14	0	0	0	0	522	418	
15	0	0	0	0	522	418	
0	0	0	0	0	523	418	
1	0	0	0	0	524	418	
2	0	0	0	0	525	418	
3	0	0	0	0	525	419	
4	0	0	0	0	525	418	
5	0	0	0	0	524	418	
6	0	0	0	0	524	418	
7	0	0	0	0	523	419	
8	0	0	0	0	523	418	
9	0	0	0	0	523	417	
10	0	0	0	0	523	418	
11	0	0	0	0	523	418	
12	0	0	0	0	523	418	
13	0	0	0	0	524	418	
14	0	0	0	0	524	418	
15	0	0	0	0	526	417	
0	0	0	0	0	527	418	
1	0	0	0	0	528	417	
2	0	0	0	0	529	417	
3	0	0	0	0	531	418	
4	0	0	0	0	532	417	
5	0	0	0	0	532	417	
6	0	0	0	0	532	418	
7	0	0	0	0	533	418	
8	0	0	0	0	532	418	
9	0	0	0	0	532	418	
10	0	0	0	0	532	418	
11	0	0	0	0	533	418	
12	0	0	0	0	532	418	
13	0	0	0	0	533	418	
14	0	0	0	0	532	418	
15	0	0	0	0	531	418	
0	0	0	0	0	529	418	
1	0	0	0	0	527	418	
2	0	0	0	0	527	418	
3	0	0	0	0	526	419	
4	0	0	0	0	525	417	
5	0	0	0	0	524	417	
6	0	0	0	0	524	418	
7	0	0	0	0	524	417	
8	0	0	0	0	524	417	
9	0	0	0	0	524	417	
10	0	0	0	0	524	417	
11	0	0	0	0	524	418	
12	0	0	0	0	523	418	
13	0	0	0	0	522	418	
14	0	0	0	0	522	418	
15	0	0	0	0	520	418	
0	0	0	0	0	519	417	
1	0	0	0	0	519	417	
2	0	0	0	0	518	417	
3	0	0	0	0	518	418	
4	0	0	0	0	518	417	
5	0	0	0	0	518	417	
6	0	0	0	0	519	417	
7	0	0	0	0	519	417	
8	0	0	0	0	519	417	
9	0	0	0	0	520	418	
10	0	0	0	0	519	417	
11	0	0	0	0	520	418	
12	0	0	0	0	519	417	
13	0	0	0	0	518	418	
14	0	0	0	0	518	418	
15	0	0	0	0	517	417	
0	0	0	0	0	517	418	
1	0	0	0	0	517	418	
2	0	0	0	0	517	417	
3	0	0	0	0	516	418	
4	0	0	0	0	516	417	
5	0	0	0	0	515	418	
6	0	0	0	0	515	418	
7	0	0	0	0	515	419	
8	0	0	0	0	514	418	
9	0	0	0	0	513	417	
10	0	0	0	0	513	417	
11	0	0	0	0	513	418	
12	0	0	0	0	512	417	
13	0	0	0	0	512	417	
14	0	0	0	0	513	417	
15	0	0	0	0	514	418	
0	0	0	0	0	514	418	
1	0	0	0	0	515	418	
2	0	0	0	0	514	418	
3	0	0	0	0	514	418	
4	0	0	0	0	513	419	
5	0	0	0	0	513	418	
6	0	0	0	0	512	418	
7	0	0	0	0	511	419	
8	0	0	0	0	509	418	
9	0	0	0	0	508	418	
10	0	0	0	0	506	417	
11	0	0	0	0	503	419	
12	0	0	0	0	501	418	
13	0	0	0	0	499	418	
14	0	0	0	0	497	419	
15	0	0	0	0	494	419	
0	0	0	0	0	490	419	
1	0	0	0	0	487	419	
2	0	0	0	0	485	418	
3	0	0	0	0	484	419	
4	0	0	0	0	483	419	
5	0	0	0	0	483	419	
6	0	0	0	0	482	419	
7	0	0	0	0	482	419	
8	0	0	0	0	483	418	
9	0	0	0	0	484	419	
10	0	0	0	0	486	419	
11	0	0	0	0	488	419	
12	0	0	0	0	492	418	
13	0	0	0	0	497	419	
14	0	0	0	0	502	419	
15	0	0	0	0	508	419	
0	0	0	0	0	514	419	
1	0	0	0	0	520	418	
2	0	0	0	0	527	419	
3	0	0	0	0	534	420	
4	0	0	0	0	541	419	
5	0	0	0	0	548	418	
6	0	0	0	0	557	418	
7	0	0	0	0	567	419	
8	0	0	0	0	577	418	
9	0	0	0	0	588	419	
10	0	0	0	0	599	418	
11	0	0	0	0	610	419	
12	0	0	0	0	621	419	
13	0	0	0	0	632	419	
14	0	0	0	0	643	419	
15	0	0	0	0	653	419	
0	0	0	0	0	660	419	
1	0	0	0	0	665	419	
2	0	0	0	0	667	419	
3	0	0	0	0	663	419	
4	0	0	0	0	655	419	
5	0	0	0	0	646	419	
6	0	0	0	0	632	418	
7	0	0	0	0	615	418	
8	0	0	0	0	597	419	
9	0	0	0	0	581	418	
10	0	0	0	0	566	418	
11	0	0	0	0	553	419	
12	0	0	0	0	541	418	
13	0	0	0	0	531	419	
14	0	0	0	0	524	419	
15	0	0	0	0	519	418	
0	0	0	0	0	516	419	
1	0	0	0	0	516	418	
2	0	0	0	0	518	418	
3	0	0	0	0	519	419	
4	0	0	0	0	521	418	
5	0	0	0	0	521	418	
6	0	0	0	0	519	418	
7	0	0	0	0	518	418	
8	0	0	0	0	516	418	
9	0	0	0	0	515	418	
10	0	0	0	0	514	417	
11	0	0	0	0	512	419	
12	0	0	0	0	510	418	
13	0	0	0	0	507	418	
14	0	0	0	0	504	417	
15	0	0	0	0	501	418	
0	0	0	0	0	498	418	
1	0	0	0	0	496	419	
2	0	0	0	0	492	418	
3	0	0	0	0	489	419	
4	0	0	0	0	487	418	
5	0	0	0	0	484	418	
6	0	0	0	0	483	418	
7	0	0	0	0	482	418	
8	0	0	0	0	480	417	
9	0	0	0	0	478	417	
10	0	0	0	0	476	417	
11	0	0	0	0	474	417	
12	0	0	0	0	472	417	
13	0	0	0	0	472	417	
14	0	0	0	0	472	417	
15	0	0	0	0	471	417	
0	0	0	0	0	471	418	
1	0	0	0	0	470	418	
2	0	0	0	0	471	417	
3	0	0	0	0	472	417	
4	0	0	0	0	472	416	
5	0	0	0	0	472	417	
6	0	0	0	0	473	417	
7	0	0	0	0	473	417	
8	0	0	0	0	473	417	
9	0	0	0	0	473	417	
10	0	0	0	0	474	417	
11	0	0	0	0	474	418	
12	0	0	0	0	475	417	
13	0	0	0	0	476	417	
14	0	0	0	0	477	417	
15	0	0	0	0	478	418	
0	0	0	0	0	478	417	
1	0	0	0	0	478	417	
2	0	0	0	0	478	416	
3	0	0	0	0	477	418	
4	0	0	0	0	476	417	
5	0	0	0	0	476	417	
6	0	0	0	0	476	417	
7	0	0	0	0	476	417	
8	0	0	0	0	477	416	
9	0	0	0	0	478	417	
10	0	0	0	0	479	416	
11	0	0	0	0	479	417	
12	0	0	0	0	480	417	
13	0	0	0	0	481	417	
14	0	0	0	0	482	417	
15	0	0	0	0	484	418	
0	0	0	0	0	484	417	
1	0	0	0	0	484	417	
2	0	0	0	0	486	417	
3	0	0	0	0	486	418	
4	0	0	0	0	487	417	
5	0	0	0	0	487	417	
6	0	0	0	0	487	419	
7	0	0	0	0	487	418	
8	0	0	0	0	488	418	
9	0	0	0	0	489	418	
10	0	0	0	0	490	418	
11	0	0	0	0	490	419	
12	0	0	0	0	489	417	
13	0	0	0	0	490	418	
14	0	0	0	0	490	418	
15	0	0	0	0	490	418	
0	0	0	0	0	489	418	
1	0	0	0	0	489	418	
2	0	0	0	0	489	417	
3	0	0	0	0	489	418	
4	0	0	0	0	488	417	
5	0	0	0	0	488	418	
6	0	0	0	0	489	418	
7	0	0	0	0	489	417	
8	0	0	0	0	490	417	
9	0	0	0	0	491	417	
10	0	0	0	0	492	418	
11	0	0	0	0	492	419	
12	0	0	0	0	492	417	
13	0	0	0	0	493	418	
14	0	0	0	0	492	417	
15	0	0	0	0	492	418	
0	0	0	0	0	492	418	
1	0	0	0	0	492	418	
2	0	0	0	0	492	417	
3	0	0	0	0	492	418	
4	0	0	0	0	493	418	
5	0	0	0	0	494	417	
6	0	0	0	0	495	418	
7	0	0	0	0	496	418	
8	0	0	0	0	496	417	
9	0	0	0	0	496	417	
10	0	0	0	0	496	417	
11	0	0	0	0	496	418	
12	0	0	0	0	496	418	
13	0	0	0	0	497	418	
14	0	0	0	0	497	418	
15	0	0	0	0	497	418	
0	0	0	0	0	497	418	
1	0	0	0	0	497	417	
2	0	0	0	0	498	418	
3	0	0	0	0	498	418	
4	0	0	0	0	497	418	
5	0	0	0	0	497	418	
6	0	0	0	0	497	418	
7	0	0	0	0	496	418	
8	0	0	0	0	496	419	
9	0	0	0	0	496	419	
10	0	0	0	0	496	418	
11	0	0	0	0	496	419	
12	0	0	0	0	496	419	
13	0	0	0	0	496	419	
14	0	0	0	0	496	419	
15	0	0	0	0	498	419	
0	0	0	0	0	499	419	
1	0	0	0	0	499	419	
2	0	0	0	0	500	419	
3	0	0	0	0	500	419	
4	0	0	0	0	499	419	
5	0	0	0	0	499	419	
6	0	0	0	0	499	419	
7	0	0	0	0	499	420	
8	0	0	0	0	499	419	
9	0	0	0	0	499	419	
10	0	0	0	0	499	419	
11	0	0	0	0	498	419	
12	0	0	0	0	497	419	
13	0	0	0	0	497	419	
14	0	0	0	0	497	419	
15	0	0	0	0	497	419	
0	0	0	0	0	496	419	
1	0	0	0	0	495	420	
2	0	0	0	0	494	419	
3	0	0	0	0	495	420	
4	0	0	0	0	495	419	
5	0	0	0	0	496	419	
6	0	0	0	0	497	418	
7	0	0	0	0	497	419	
8	0	0	0	0	498	418	
9	0	0	0	0	499	419	
10	0	0	0	0	499	418	
11	0	0	0	0	499	419	
12	0	0	0	0	498	419	
13	0	0	0	0	497	419	
14	0	0	0	0	497	419	
15	0	0	0	0	496	419	
0	0	0	0	0	496	419	
1	0	0	0	0	496	419	
2	0	0	0	0	495	418	
3	0	0	0	0	496	419	
4	0	0	0	0	497	418	
5	0	0	0	0	498	418	
6	0	0	0	0	499	418	
7	0	0	0	0	499	419	
8	0	0	0	0	500	419	
9	0	0	0	0	500	419	
10	0	0	0	0	501	419	
11	0	0	0	0	500	419	
12	0	0	0	0	501	419	
13	0	0	0	0	502	419	
14	0	0	0	0	503	419	
15	0	0	0	0	504	419	
0	0	0	0	0	504	418	
1	0	0	0	0	503	419	
2	0	0	0	0	502	419	
3	0	0	0	0	500	419	
4	0	0	0	0	500	419	
5	0	0	0	0	499	419	
6	0	0	0	0	499	419	
7	0	0	0	0	499	420	
8	0	0	0	0	500	419	
9	0	0	0	0	500	419	
10	0	0	0	0	500	419	
11	0	0	0	0	500	420	
12	0	0	0	0	500	418	
13	0	0	0	0	500	418	
14	0	0	0	0	499	419	
15	0	0	0	0	500	419	
0	0	0	0	0	501	419	
1	0	0	0	0	501	419	
2	0	0	0	0	501	419	
3	0	0	0	0	502	420	
4	0	0	0	0	502	418	
5	0	0	0	0	502	419	
6	0	0	0	0	504	418	
7	0	0	0	0	504	418	
8	0	0	0	0	504	419	
9	0	0	0	0	505	418	
10	0	0	0	0	505	418	
11	0	0	0	0	505	419	
12	0	0	0	0	505	418	
13	0	0	0	0	507	419	
14	0	0	0	0	508	419	
15	0	0	0	0	508	419	
0	0	0	0	0	508	418	
1	0	0	0	0	508	417	
2	0	0	0	0	507	418	
3	0	0	0	0	507	418	
4	0	0	0	0	506	418	
5	0	0	0	0	506	419	
6	0	0	0	0	506	418	
7	0	0	0	0	506	419	
8	0	0	0	0	506	418	
9	0	0	0	0	506	418	
10	0	0	0	0	507	417	
11	0	0	0	0	507	418	
12	0	0	0	0	508	417	
13	0	0	0	0	510	417	
14	0	0	0	0	511	417	
15	0	0	0	0	512	417	
0	0	0	0	0	511	416	
1	0	0	0	0	511	417	
2	0	0	0	0	511	417	
3	0	0	0	0	512	417	
4	0	0	0	0	511	416	
5	0	0	0	0	511	417	
6	0	0	0	0	512	417	
7	0	0	0	0	512	417	
8	0	0	0	0	513	417	
9	0	0	0	0	514	417	
10	0	0	0	0	515	417	
11	0	0	0	0	515	418	
12	0	0	0	0	515	417	
13	0	0	0	0	515	416	
14	0	0	0	0	515	417	
15	0	0	0	0	515	417	
0	0	0	0	0	517	416	
1	0	0	0	0	519	417	
2	0	0	0	0	519	417	
3	0	0	0	0	521	418	
4	0	0	0	0	522	417	
5	0	0	0	0	524	417	
6	0	0	0	0	524	417	
7	0	0	0	0	524	418	
8	0	0	0	0	525	417	
9	0	0	0	0	526	417	
10	0	0	0	0	527	418	
11	0	0	0	0	527	418	
12	0	0	0	0	526	417	
13	0	0	0	0	526	417	
14	0	0	0	0	526	417	
15	0	0	0	0	525	417	
0	0	0	0	0	524	417	
1	0	0	0	0	523	417	
2	0	0	0	0	523	418	
3	0	0	0	0	523	418	
4	0	0	0	0	524	418	
5	0	0	0	0	524	417	
6	0	0	0	0	526	417	
7	0	0	0	0	526	418	
8	0	0	0	0	525	418	
9	0	0	0	0	525	417	
10	0	0	0	0	525	417	
11	0	0	0	0	525	418	
12	0	0	0	0	524	418	
13	0	0	0	0	524	418	
14	0	0	0	0	524	417	
15	0	0	0	0	523	418	
0	0	0	0	0	521	418	
1	0	0	0	0	520	417	
2	0	0	0	0	518	418	
3	0	0	0	0	517	419	
4	0	0	0	0	517	418	
5	0	0	0	0	516	417	
6	0	0	0	0	515	418	
7	0	0	0	0	513	418	
8	0	0	0	0	512	418	
9	0	0	0	0	511	417	
10	0	0	0	0	512	417	
11	0	0	0	0	511	419	
12	0	0	0	0	511	419	
13	0	0	0	0	511	418	
14	0	0	0	0	511	418	
15	0	0	0	0	512	418	
0	0	0	0	0	512	418	
1	0	0	0	0	511	417	
2	0	0	0	0	511	418	
3	0	0	0	0	510	419	
4	0	0	0	0	509	418	
5	0	0	0	0	508	417	
6	0	0	0	0	508	418	
7	0	0	0	0	508	418	
8	0	0	0	0	507	418	
9	0	0	0	0	507	418	
10	0	0	0	0	507	417	
11	0	0	0	0	506	418	
12	0	0	0	0	506	418	
13	0	0	0	0	505	418	
14	0	0	0	0	504	418	
15	0	0	0	0	504	418	
0	0	0	0	0	503	418	
1	0	0	0	0	503	417	
2	0	0	0	0	503	418	
3	0	0	0	0	503	418	
4	0	0	0	0	503	418	
5	0	0	0	0	503	418	
6	0	0	0	0	504	418	
7	0	0	0	0	503	418	
8	0	0	0	0	503	417	
9	0	0	0	0	503	417	
10	0	0	0	0	502	417	
11	0	0	0	0	502	419	
12	0	0	0	0	501	418	
13	0	0	0	0	501	417	
14	0	0	0	0	501	418	
15	0	0	0	0	502	418	
0	0	0	0	0	502	419	
1	0	0	0	0	503	419	
2	0	0	0	0	504	418	
3	0	0	0	0	505	419	
4	0	0	0	0	506	418	
5	0	0	0	0	507	418	
6	0	0	0	0	508	418	
7	0	0	0	0	508	418	
8	0	0	0	0	508	418	
9	0	0	0	0	508	418	
10	0	0	0	0	508	418	
11	0	0	0	0	507	419	
12	0	0	0	0	508	417	
13	0	0	0	0	508	418	
14	0	0	0	0	508	417	
15	0	0	0	0	508	418	
0	0	0	0	0	508	418	
1	0	0	0	0	509	418	
2	0	0	0	0	508	418	
3	0	0	0	0	508	419	
4	0	0	0	0	508	418	
5	0	0	0	0	508	418	
6	0	0	0	0	508	418	
7	0	0	0	0	508	418	
8	0	0	0	0	507	418	
9	0	0	0	0	507	418	
10	0	0	0	0	507	419	
11	0	0	0	0	507	419	
12	0	0	0	0	507	417	
13	0	0	0	0	508	418	
14	0	0	0	0	508	418	
15	0	0	0	0	508	419	
0	0	0	0	0	508	418	
1	0	0	0	0	507	418	
2	0	0	0	0	507	418	
3	0	0	0	0	506	419	
4	0	0	0	0	505	418	
5	0	0	0	0	504	418	
6	0	0	0	0	504	418	
7	0	0	0	0	503	419	
8	0	0	0	0	501	418	
9	0	0	0	0	501	418	
10	0	0	0	0	501	418	
11	0	0	0	0	501	419	
12	0	0	0	0	501	417	
13	0	0	0	0	502	418	
14	0	0	0	0	503	418	
15	0	0	0	0	503	418	
0	0	0	0	0	503	418	
1	0	0	0	0	503	417	
2	0	0	0	0	504	417	
3	0	0	0	0	504	418	
4	0	0	0	0	503	418	
5	0	0	0	0	502	418	
6	0	0	0	0	501	418	
7	0	0	0	0	501	419	
8	0	0	0	0	500	418	
9	0	0	0	0	501	418	
10	0	0	0	0	501	418	
11	0	0	0	0	501	418	
12	0	0	0	0	502	417	
13	0	0	0	0	502	417	
14	0	0	0	0	503	418	
15	0	0	0	0	504	418	
0	0	0	0	0	504	418	
1	0	0	0	0	504	418	
2	0	0	0	0	502	418	
3	0	0	0	0	501	417	
4	0	0	0	0	502	417	
5	0	0	0	0	502	418	
6	0	0	0	0	504	418	
7	0	0	0	0	504	418	
8	0	0	0	0	505	418	
9	0	0	0	0	505	418	
10	0	0	0	0	505	417	
11	0	0	0	0	505	419	
12	0	0	0	0	505	419	
13	0	0	0	0	505	418	
14	0	0	0	0	505	418	
15	0	0	0	0	505	418	
0	0	0	0	0	505	418	
1	0	0	0	0	505	418	
2	0	0	0	0	504	418	
3	0	0	0	0	504	419	
4	0	0	0	0	504	417	
5	0	0	0	0	503	418	
6	0	0	0	0	502	418	
7	0	0	0	0	502	418	
8	0	0	0	0	502	418	
9	0	0	0	0	502	417	
10	0	0	0	0	503	417	
11	0	0	0	0	503	419	
12	0	0	0	0	504	418	
13	0	0	0	0	505	417	
14	0	0	0	0	505	417	
15	0	0	0	0	505	418	
0	0	0	0	0	506	417	
1	0	0	0	0	506	417	
2	0	0	0	0	507	418	
3	0	0	0	0	507	419	
4	0	0	0	0	506	418	
5	0	0	0	0	505	418	
6	0	0	0	0	505	417	
7	0	0	0	0	505	418	
8	0	0	0	0	505	418	
9	0	0	0	0	507	418	
10	0	0	0	0	507	418	
11	0	0	0	0	507	419	
12	0	0	0	0	508	418	
13	0	0	0	0	509	418	
14	0	0	0	0	509	418	
15	0	0	0	0	509	418	
0	0	0	0	0	508	419	
1	0	0	0	0	507	419	
2	0	0	0	0	506	418	
3	0	0	0	0	507	419	
4	0	0	0	0	508	418	
5	0	0	0	0	509	418	
6	0	0	0	0	510	418	
7	0	0	0	0	511	418	
8	0	0	0	0	512	419	
9	0	0	0	0	513	418	
10	0	0	0	0	512	419	
11	0	0	0	0	512	419	
12	0	0	0	0	512	418	
13	0	0	0	0	512	419	
14	0	0	0	0	513	419	
15	0	0	0	0	513	419	
0	0	0	0	0	513	419	
1	0	0	0	0	512	418	
2	0	0	0	0	512	419	
3	0	0	0	0	511	419	
4	0	0	0	0	510	418	
5	0	0	0	0	509	418	
6	0	0	0	0	509	418	
7	0	0	0	0	510	419	
8	0	0	0	0	509	419	
9	0	0	0	0	510	419	
10	0	0	0	0	511	418	
11	0	0	0	0	512	419	
12	0	0	0	0	513	419	
13	0	0	0	0	513	419	
14	0	0	0	0	512	419	
15	0	0	0	0	512	419	
0	0	0	0	0	512	419	
1	0	0	0	0	512	419	
2	0	0	0	0	512	419	
3	0	0	0	0	512	419	
4	0	0	0	0	512	419	
5	0	0	0	0	512	419	
6	0	0	0	0	512	418	
7	0	0	0	0	513	419	
8	0	0	0	0	513	419	
9	0	0	0	0	514	419	
10	0	0	0	0	514	418	
11	0	0	0	0	515	419	
12	0	0	0	0	516	419	
13	0	0	0	0	516	419	
14	0	0	0	0	517	419	
15	0	0	0	0	519	419	
0	0	0	0	0	519	419	
1	0	0	0	0	518	418	
2	0	0	0	0	517	419	
3	0	0	0	0	515	419	
4	0	0	0	0	515	419	
5	0	0	0	0	515	419	
6	0	0	0	0	516	418	
7	0	0	0	0	516	419	
8	0	0	0	0	516	419	
9	0	0	0	0	516	419	
10	0	0	0	0	517	419	
11	0	0	0	0	517	419	
12	0	0	0	0	518	419	
13	0	0	0	0	518	419	
14	0	0	0	0	519	419	
15	0	0	0	0	518	419	
0	0	0	0	0	518	419	
1	0	0	0	0	517	419	
2	0	0	0	0	516	419	
3	0	0	0	0	515	419	
4	0	0	0	0	515	419	
5	0	0	0	0	514	418	
6	0	0	0	0	513	419	
7	0	0	0	0	512	419	
8	0	0	0	0	513	419	
9	0	0	0	0	514	419	
10	0	0	0	0	515	418	
11	0	0	0	0	516	419	
12	0	0	0	0	517	418	
13	0	0	0	0	516	418	
14	0	0	0	0	516	418	
15	0	0	0	0	515	418	
0	0	0	0	0	515	417	
1	0	0	0	0	514	418	
2	0	0	0	0	513	417	
3	0	0	0	0	513	419	
4	0	0	0	0	512	418	
5	0	0	0	0	512	418	
6	0	0	0	0	512	418	
7	0	0	0	0	511	418	
8	0	0	0	0	511	418	
9	0	0	0	0	511	418	
10	0	0	0	0	511	417	
11	0	0	0	0	511	419	
12	0	0	0	0	511	417	
13	0	0	0	0	512	417	
14	0	0	0	0	512	417	
15	0	0	0	0	512	417	
0	0	0	0	0	512	417	
1	0	0	0	0	512	417	
2	0	0	0	0	512	417	
3	0	0	0	0	512	418	
4	0	0	0	0	512	417	
5	0	0	0	0	512	417	
6	0	0	0	0	512	418	
7	0	0	0	0	512	419	
8	0	0	0	0	512	418	
9	0	0	0	0	513	417	
10	0	0	0	0	513	417	
11	0	0	0	0	512	418	
12	0	0	0	0	512	417	
13	0	0	0	0	511	417	
14	0	0	0	0	510	417	
15	0	0	0	0	510	417	
0	0	0	0	0	511	417	
1	0	0	0	0	512	417	
2	0	0	0	0	513	418	
3	0	0	0	0	514	418	
4	0	0	0	0	515	418	
5	0	0	0	0	515	418	
6	0	0	0	0	515	418	
7	0	0	0	0	514	418	
8	0	0	0	0	512	418	
9	0	0	0	0	510	418	
10	0	0	0	0	508	418	
11	0	0	0	0	505	419	
12	0	0	0	0	502	418	
13	0	0	0	0	500	418	
14	0	0	0	0	497	418	
15	0	0	0	0	494	418	
0	0	0	0	0	492	418	
1	0	0	0	0	490	418	
2	0	0	0	0	489	418	
3	0	0	0	0	490	418	
4	0	0	0	0	492	419	
5	0	0	0	0	492	418	
6	0	0	0	0	492	417	
7	0	0	0	0	493	418	
8	0	0	0	0	493	418	
9	0	0	0	0	495	418	
10	0	0	0	0	497	418	
11	0	0	0	0	500	419	
12	0	0	0	0	504	418	
13	0	0	0	0	508	417	
14	0	0	0	0	512	418	
15	0	0	0	0	515	418	
0	0	0	0	0	520	418	
1	0	0	0	0	526	418	
2	0	0	0	0	532	417	
3	0	0	0	0	540	418	
4	0	0	0	0	547	417	
5	0	0	0	0	555	417	
6	0	0	0	0	563	418	
7	0	0	0	0	574	418	
8	0	0	0	0	585	418	
9	0	0	0	0	598	418	
10	0	0	0	0	608	417	
11	0	0	0	0	620	418	
12	0	0	0	0	630	418	
13	0	0	0	0	640	417	
14	0	0	0	0	649	419	
15	0	0	0	0	656	419	
0	0	0	0	0	661	418	
1	0	0	0	0	662	418	
2	0	0	0	0	659	418	
3	0	0	0	0	652	419	
4	0	0	0	0	642	417	
5	0	0	0	0	627	417	
6	0	0	0	0	611	417	
7	0	0	0	0	595	418	
8	0	0	0	0	580	417	
9	0	0	0	0	566	417	
10	0	0	0	0	552	417	
11	0	0	0	0	541	418	
12	0	0	0	0	532	418	
13	0	0	0	0	527	418	
14	0	0	0	0	523	417	
15	0	0	0	0	521	418	
0	0	0	0	0	522	417	
1	0	0	0	0	524	417	
2	0	0	0	0	527	417	
3	0	0	0	0	529	418	
4	0	0	0	0	530	417	
5	0	0	0	0	530	417	
6	0	0	0	0	529	417	
7	0	0	0	0	528	418	
8	0	0	0	0	526	417	
9	0	0	0	0	524	418	
10	0	0	0	0	523	417	
11	0	0	0	0	521	418	
12	0	0	0	0	520	417	
13	0	0	0	0	518	417	
14	0	0	0	0	515	418	
15	0	0	0	0	512	417	
0	0	0	0	0	510	417	
1	0	0	0	0	508	418	
2	0	0	0	0	505	417	
3	0	0	0	0	503	418	
4	0	0	0	0	500	417	
5	0	0	0	0	499	417	
6	0	0	0	0	497	417	
7	0	0	0	0	496	417	
8	0	0	0	0	496	417	
9	0	0	0	0	495	418	
10	0	0	0	0	493	417	
11	0	0	0	0	492	418	
12	0	0	0	0	489	418	
13	0	0	0	0	487	417	
14	0	0	0	0	487	417	
15	0	0	0	0	487	417	
0	0	0	0	0	490	417	
1	0	0	0	0	491	417	
2	0	0	0	0	491	417	
3	0	0	0	0	490	418	
4	0	0	0	0	490	417	
5	0	0	0	0	490	417	
6	0	0	0	0	490	418	
7	0	0	0	0	490	418	
8	0	0	0	0	490	417	
9	0	0	0	0	490	418	
10	0	0	0	0	491	418	
11	0	0	0	0	491	419	
12	0	0	0	0	491	417	
13	0	0	0	0	492	417	
14	0	0	0	0	491	418	
15	0	0	0	0	491	418	
0	0	0	0	0	491	418	
1	0	0	0	0	490	417	
2	0	0	0	0	490	417	
3	0	0	0	0	489	418	
4	0	0	0	0	490	417	
5	0	0	0	0	491	417	
6	0	0	0	0	492	417	
7	0	0	0	0	492	417	
8	0	0	0	0	493	417	
9	0	0	0	0	494	418	
10	0	0	0	0	495	417	
11	0	0	0	0	494	419	
12	0	0	0	0	494	418	
13	0	0	0	0	493	418	
14	0	0	0	0	493	418	
15	0	0	0	0	492	417	
0	0	0	0	0	493	418	
1	0	0	0	0	494	418	
2	0	0	0	0	493	418	
3	0	0	0	0	493	419	
4	0	0	0	0	493	418	
5	0	0	0	0	493	418	
6	0	0	0	0	493	417	
7	0	0	0	0	493	418	
8	0	0	0	0	493	418	
9	0	0	0	0	493	418	
10	0	0	0	0	493	418	
11	0	0	0	0	493	419	
12	0	0	0	0	492	418	
13	0	0	0	0	492	418	
14	0	0	0	0	492	418	
15	0	0	0	0	492	418	
0	0	0	0	0	491	418	
1	0	0	0	0	491	419	
2	0	0	0	0	491	418	
3	0	0	0	0	491	419	
4	0	0	0	0	491	418	
5	0	0	0	0	492	418	
6	0	0	0	0	492	418	
7	0	0	0	0	492	418	
8	0	0	0	0	491	418	
9	0	0	0	0	490	417	
10	0	0	0	0	488	417	
11	0	0	0	0	488	419	
12	0	0	0	0	487	418	
13	0	0	0	0	487	418	
14	0	0	0	0	486	418	
15	0	0	0	0	484	419	
0	0	0	0	0	484	419	
1	0	0	0	0	484	418	
2	0	0	0	0	485	418	
3	0	0	0	0	486	419	
4	0	0	0	0	487	419	
5	0	0	0	0	489	419	
6	0	0	0	0	490	418	
7	0	0	0	0	490	418	
8	0	0	0	0	491	419	
9	0	0	0	0	491	418	
10	0	0	0	0	493	418	
11	0	0	0	0	495	420	
12	0	0	0	0	496	419	
13	0	0	0	0	496	419	
14	0	0	0	0	497	419	
15	0	0	0	0	497	418	
0	0	0	0	0	497	419	
1	0	0	0	0	496	418	
2	0	0	0	0	496	418	
3	0	0	0	0	496	419	
4	0	0	0	0	495	418	
5	0	0	0	0	495	419	
6	0	0	0	0	495	419	
7	0	0	0	0	495	419	
8	0	0	0	0	495	419	
9	0	0	0	0	494	419	
10	0	0	0	0	493	419	
11	0	0	0	0	492	419	
12	0	0	0	0	492	419	
13	0	0	0	0	492	419	
14	0	0	0	0	493	419	
15	0	0	0	0	494	420	
0	0	0	0	0	495	419	
1	0	0	0	0	495	419	
2	0	0	0	0	496	419	
3	0	0	0	0	496	419	
4	0	0	0	0	495	419	
5	0	0	0	0	495	419	
6	0	0	0	0	494	419	
7	0	0	0	0	495	419	
8	0	0	0	0	496	419	
9	0	0	0	0	498	419	
10	0	0	0	0	498	419	
11	0	0	0	0	498	419	
12	0	0	0	0	498	419	
13	0	0	0	0	497	419	
14	0	0	0	0	497	419	
15	0	0	0	0	497	419	
0	0	0	0	0	498	419	
1	0	0	0	0	498	419	
2	0	0	0	0	498	419	
3	0	0	0	0	498	419	
4	0	0	0	0	497	418	
5	0	0	0	0	497	418	
6	0	0	0	0	498	419	
7	0	0	0	0	498	418	
8	0	0	0	0	498	418	
9	0	0	0	0	497	418	
10	0	0	0	0	497	418	
11	0	0	0	0	497	419	
12	0	0	0	0	496	418	
13	0	0	0	0	497	418	
14	0	0	0	0	497	418	
15	0	0	0	0	497	419	
0	0	0	0	0	497	418	
1	0	0	0	0	498	418	
2	0	0	0	0	498	417	
3	0	0	0	0	498	418	
4	0	0	0	0	498	417	
5	0	0	0	0	498	418	
6	0	0	0	0	498	417	
7	0	0	0	0	497	418	
8	0	0	0	0	497	418	
9	0	0	0	0	496	418	
10	0	0	0	0	496	417	
11	0	0	0	0	495	418	
12	0	0	0	0	496	418	
13	0	0	0	0	496	417	
14	0	0	0	0	497	418	
15	0	0	0	0	499	419	
0	0	0	0	0	499	418	
1	0	0	0	0	501	418	
2	0	0	0	0	501	418	
3	0	0	0	0	502	418	
4	0	0	0	0	500	418	
5	0	0	0	0	499	418	
6	0	0	0	0	499	418	
7	0	0	0	0	498	418	
8	0	0	0	0	498	418	
9	0	0	0	0	499	418	
10	0	0	0	0	498	417	
11	0	0	0	0	499	419	
12	0	0	0	0	499	418	
13	0	0	0	0	499	417	
14	0	0	0	0	499	417	
15	0	0	0	0	499	418	
0	0	0	0	0	499	419	
1	0	0	0	0	499	418	
2	0	0	0	0	499	418	
3	0	0	0	0	500	418	
4	0	0	0	0	500	417	
5	0	0	0	0	501	418	
6	0	0	0	0	500	418	
7	0	0	0	0	501	419	
8	0	0	0	0	501	418	
9	0	0	0	0	501	418	
10	0	0	0	0	501	418	
11	0	0	0	0	499	418	
12	0	0	0	0	499	418	
13	0	0	0	0	500	418	
14	0	0	0	0	500	417	
15	0	0	0	0	501	417	
0	0	0	0	0	501	417	
1	0	0	0	0	502	417	
2	0	0	0	0	502	417	
3	0	0	0	0	503	418	
4	0	0	0	0	505	417	
5	0	0	0	0	506	417	
6	0	0	0	0	508	417	
7	0	0	0	0	508	418	
8	0	0	0	0	509	417	
9	0	0	0	0	509	418	
10	0	0	0	0	509	418	
11	0	0	0	0	508	419	
12	0	0	0	0	509	418	
13	0	0	0	0	510	418	
14	0	0	0	0	511	418	
15	0	0	0	0	512	418	
0	0	0	0	0	512	418	
1	0	0	0	0	513	418	
2	0	0	0	0	512	417	
3	0	0	0	0	512	418	
4	0	0	0	0	512	417	
5	0	0	0	0	512	417	
6	0	0	0	0	513	417	
7	0	0	0	0	514	417	
8	0	0	0	0	516	417	
9	0	0	0	0	517	417	
10	0	0	0	0	517	417	
11	0	0	0	0	516	418	
12	0	0	0	0	516	418	
13	0	0	0	0	516	418	
14	0	0	0	0	517	417	
15	0	0	0	0	519	417	
0	0	0	0	0	519	417	
1	0	0	0	0	520	417	
2	0	0	0	0	522	418	
3	0	0	0	0	523	418	
4	0	0	0	0	524	417	
5	0	0	0	0	526	417	
6	0	0	0	0	526	417	
7	0	0	0	0	527	418	
8	0	0	0	0	527	418	
9	0	0	0	0	527	417	
10	0	0	0	0	525	418	
11	0	0	0	0	524	418	
12	0	0	0	0	523	418	
13	0	0	0	0	522	417	
14	0	0	0	0	521	418	
15	0	0	0	0	522	417	
0	0	0	0	0	522	417	
1	0	0	0	0	523	417	
2	0	0	0	0	524	417	
3	0	0	0	0	524	419	
4	0	0	0	0	524	417	
5	0	0	0	0	524	418	
6	0	0	0	0	524	418	
7	0	0	0	0	524	418	
8	0	0	0	0	524	418	
9	0	0	0	0	525	417	
10	0	0	0	0	525	417	
11	0	0	0	0	526	418	
12	0	0	0	0	526	417	
13	0	0	0	0	525	417	
14	0	0	0	0	524	417	
15	0	0	0	0	523	418	
0	0	0	0	0	524	417	
1	0	0	0	0	524	417	
2	0	0	0	0	524	417	
3	0	0	0	0	523	419	
4	0	0	0	0	522	417	
5	0	0	0	0	520	418	
6	0	0	0	0	519	418	
7	0	0	0	0	517	418	
8	0	0	0	0	516	418	
9	0	0	0	0	515	418	
10	0	0	0	0	515	418	
11	0	0	0	0	515	418	
12	0	0	0	0	515	418	
13	0	0	0	0	514	417	
14	0	0	0	0	514	418	
15	0	0	0	0	514	419	
0	0	0	0	0	514	418	
1	0	0	0	0	514	419	
2	0	0	0	0	513	419	
3	0	0	0	0	512	419	
4	0	0	0	0	512	419	
5	0	0	0	0	512	418	
6	0	0	0	0	513	418	
7	0	0	0	0	513	419	
8	0	0	0	0	513	419	
9	0	0	0	0	512	419	
10	0	0	0	0	512	419	
11	0	0	0	0	510	419	
12	0	0	0	0	510	418	
13	0	0	0	0	510	418	
14	0	0	0	0	511	418	
15	0	0	0	0	511	419	
0	0	0	0	0	512	419	
1	0	0	0	0	512	418	
2	0	0	0	0	512	418	
3	0	0	0	0	512	419	
4	0	0	0	0	513	418	
5	0	0	0	0	512	418	
6	0	0	0	0	512	418	
7	0	0	0	0	511	419	
8	0	0	0	0	511	418	
9	0	0	0	0	509	418	
10	0	0	0	0	508	418	
11	0	0	0	0	508	419	
12	0	0	0	0	508	418	
13	0	0	0	0	508	418	
14	0	0	0	0	509	419	
15	0	0	0	0	510	419	
0	0	0	0	0	511	419	
1	0	0	0	0	510	418	
2	0	0	0	0	510	419	
3	0	0	0	0	510	420	
4	0	0	0	0	510	419	
5	0	0	0	0	511	419	
6	0	0	0	0	510	419	
7	0	0	0	0	510	419	
8	0	0	0	0	510	418	
9	0	0	0	0	509	419	
10	0	0	0	0	508	418	
11	0	0	0	0	508	420	
12	0	0	0	0	507	419	
13	0	0	0	0	507	419	
14	0	0	0	0	507	419	
15	0	0	0	0	507	419	
0	0	0	0	0	507	419	
1	0	0	0	0	508	419	
2	0	0	0	0	509	419	
3	0	0	0	0	509	419	
4	0	0	0	0	509	418	
5	0	0	0	0	509	419	
6	0	0	0	0	510	419	
7	0	0	0	0	511	419	
8	0	0	0	0	511	418	
9	0	0	0	0	511	419	
10	0	0	0	0	510	418	
11	0	0	0	0	510	419	
12	0	0	0	0	508	418	
13	0	0	0	0	507	418	
14	0	0	0	0	507	419	
15	0	0	0	0	508	418	
0	0	0	0	0	510	419	
1	0	0	0	0	511	418	
2	0	0	0	0	512	419	
3	0	0	0	0	513	419	
4	0	0	0	0	514	418	
5	0	0	0	0	514	419	
6	0	0	0	0	514	418	
7	0	0	0	0	513	418	
8	0	0	0	0	514	418	
9	0	0	0	0	514	417	
10	0	0	0	0	515	418	
11	0	0	0	0	515	419	
12	0	0	0	0	517	418	
13	0	0	0	0	518	418	
14	0	0	0	0	518	418	
15	0	0	0	0	517	418	
0	0	0	0	0	516	417	
1	0	0	0	0	515	417	
2	0	0	0	0	514	418	
3	0	0	0	0	512	418	
4	0	0	0	0	511	418	
5	0	0	0	0	512	417	
6	0	0	0	0	512	417	
7	0	0	0	0	513	418	
8	0	0	0	0	513	418	
9	0	0	0	0	514	418	
10	0	0	0	0	515	417	
11	0	0	0	0	515	419	
12	0	0	0	0	515	417	
13	0	0	0	0	515	417	
14	0	0	0	0	513	418	
15	0	0	0	0	512	418	
0	0	0	0	0	512	418	
1	0	0	0	0	512	418	
2	0	0	0	0	512	418	
3	0	0	0	0	514	419	
4	0	0	0	0	515	417	
5	0	0	0	0	515	418	
6	0	0	0	0	516	418	
7	0	0	0	0	516	418	
8	0	0	0	0	517	417	
9	0	0	0	0	517	417	
10	0	0	0	0	517	417	
11	0	0	0	0	518	417	
12	0	0	0	0	518	417	
13	0	0	0	0	519	417	
14	0	0	0	0	520	416	
15	0	0	0	0	519	417	
0	0	0	0	0	519	417	
1	0	0	0	0	518	417	
2	0	0	0	0	517	417	
3	0	0	0	0	517	417	
4	0	0	0	0	517	416	
5	0	0	0	0	517	417	
6	0	0	0	0	516	417	
7	0	0	0	0	516	417	
8	0	0	0	0	515	417	
9	0	0	0	0	515	417	
10	0	0	0	0	513	417	
11	0	0	0	0	511	418	
12	0	0	0	0	510	417	
13	0	0	0	0	510	417	
14	0	0	0	0	510	417	
15	0	0	0	0	511	418	
0	0	0	0	0	511	418	
1	0	0	0	0	512	417	
2	0	0	0	0	512	417	
3	0	0	0	0	511	418	
4	0	0	0	0	511	417	
5	0	0	0	0	511	417	
6	0	0	0	0	511	417	
7	0	0	0	0	511	417	
8	0	0	0	0	511	417	
9	0	0	0	0	511	417	
10	0	0	0	0	510	417	
11	0	0	0	0	511	418	
12	0	0	0	0	511	417	
13	0	0	0	0	511	417	
14	0	0	0	0	511	417	
15	0	0	0	0	510	417	
0	0	0	0	0	510	417	
1	0	0	0	0	509	417	
2	0	0	0	0	508	418	
3	0	0	0	0	508	418	
4	0	0	0	0	508	418	
5	0	0	0	0	511	418	
6	0	0	0	0	511	417	
7	0	0	0	0	511	418	
8	0	0	0	0	510	418	
9	0	0	0	0	508	417	
10	0	0	0	0	507	418	
11	0	0	0	0	508	418	
12	0	0	0	0	509	418	
13	0	0	0	0	509	418	
14	0	0	0	0	509	418	
15	0	0	0	0	510	418	
0	0	0	0	0	510	419	
1	0	0	0	0	510	418	
2	0	0	0	0	510	418	
3	0	0	0	0	510	419	
4	0	0	0	0	510	418	
5	0	0	0	0	510	418	
6	0	0	0	0	510	418	
7	0	0	0	0	510	419	
8	0	0	0	0	511	418	
9	0	0	0	0	514	418	
10	0	0	0	0	515	418	
11	0	0	0	0	517	419	
12	0	0	0	0	516	418	
13	0	0	0	0	517	418	
14	0	0	0	0	517	418	
15	0	0	0	0	517	418	
0	0	0	0	0	517	418	
1	0	0	0	0	516	418	
2	0	0	0	0	516	418	
3	0	0	0	0	516	419	
4	0	0	0	0	516	419	
5	0	0	0	0	517	419	
6	0	0	0	0	518	418	
7	0	0	0	0	519	418	
8	0	0	0	0	519	418	
9	0	0	0	0	521	418	
10	0	0	0	0	522	418	
11	0	0	0	0	523	419	
12	0	0	0	0	524	418	
13	0	0	0	0	524	418	
14	0	0	0	0	522	419	
15	0	0	0	0	522	418	
0	0	0	0	0	522	418	
1	0	0	0	0	521	418	
2	0	0	0	0	521	418	
3	0	0	0	0	522	419	
4	0	0	0	0	523	418	
5	0	0	0	0	523	418	
6	0	0	0	0	523	418	
7	0	0	0	0	524	419	
8	0	0	0	0	524	418	
9	0	0	0	0	524	418	
10	0	0	0	0	524	418	
11	0	0	0	0	524	419	
12	0	0	0	0	523	419	
13	0	0	0	0	522	418	
14	0	0	0	0	521	418	
15	0	0	0	0	521	418	
0	0	0	0	0	519	418	
1	0	0	0	0	518	419	
2	0	0	0	0	517	418	
3	0	0	0	0	516	419	
4	0	0	0	0	516	418	
5	0	0	0	0	515	418	
6	0	0	0	0	516	418	
7	0	0	0	0	517	419	
8	0	0	0	0	517	419	
9	0	0	0	0	517	418	
10	0	0	0	0	516	418	
11	0	0	0	0	516	419	
12	0	0	0	0	516	418	
13	0	0	0	0	516	419	
14	0	0	0	0	515	418	
15	0	0	0	0	514	419	
0	0	0	0	0	513	418	
1	0	0	0	0	512	418	
2	0	0	0	0	512	418	
3	0	0	0	0	512	419	
4	0	0	0	0	511	418	
5	0	0	0	0	511	418	
6	0	0	0	0	510	418	
7	0	0	0	0	509	418	
8	0	0	0	0	509	418	
9	0	0	0	0	509	418	
10	0	0	0	0	509	418	
11	0	0	0	0	508	419	
12	0	0	0	0	508	418	
13	0	0	0	0	508	418	
14	0	0	0	0	507	418	
15	0	0	0	0	508	419	
0	0	0	0	0	508	419	
1	0	0	0	0	508	419	
2	0	0	0	0	508	418	
3	0	0	0	0	508	419	
4	0	0	0	0	508	418	
5	0	0	0	0	508	418	
6	0	0	0	0	508	417	
7	0	0	0	0	508	418	
8	0	0	0	0	509	417	
9	0	0	0	0	509	418	
10	0	0	0	0	509	419	
11	0	0	0	0	510	419	
12	0	0	0	0	510	418	
13	0	0	0	0	509	418	
14	0	0	0	0	509	418	
15	0	0	0	0	510	418	
0	0	0	0	0	510	418	
1	0	0	0	0	509	418	
2	0	0	0	0	509	418	
3	0	0	0	0	509	419	
4	0	0	0	0	509	418	
5	0	0	0	0	509	418	
6	0	0	0	0	509	418	
7	0	0	0	0	509	418	
8	0	0	0	0	509	418	
9	0	0	0	0	508	418	
10	0	0	0	0	507	417	
11	0	0	0	0	508	419	
12	0	0	0	0	507	418	
13	0	0	0	0	506	419	
14	0	0	0	0	505	418	
15	0	0	0	0	503	418	
0	0	0	0	0	500	417	
1	0	0	0	0	498	417	
2	0	0	0	0	496	418	
3	0	0	0	0	494	418	
4	0	0	0	0	492	418	
5	0	0	0	0	491	417	
6	0	0	0	0	489	418	
7	0	0	0	0	490	419	
8	0	0	0	0	489	418	
9	0	0	0	0	489	418	
10	0	0	0	0	490	418	
11	0	0	0	0	490	419	
12	0	0	0	0	491	419	
13	0	0	0	0	493	419	
14	0	0	0	0	495	419	
15	0	0	0	0	497	419	
0	0	0	0	0	500	419	
1	0	0	0	0	503	419	
2	0	0	0	0	505	419	
3	0	0	0	0	509	420	
4	0	0	0	0	512	419	
5	0	0	0	0	515	419	
6	0	0	0	0	520	419	
7	0	0	0	0	526	419	
8	0	0	0	0	532	419	
9	0	0	0	0	540	419	
10	0	0	0	0	547	419	
11	0	0	0	0	556	420	
12	0	0	0	0	565	419	
13	0	0	0	0	575	419	
14	0	0	0	0	585	419	
15	0	0	0	0	595	419	
0	0	0	0	0	606	419	
1	0	0	0	0	616	419	
2	0	0	0	0	626	419	
3	0	0	0	0	635	419	
4	0	0	0	0	642	419	
5	0	0	0	0	648	419	
6	0	0	0	0	651	419	
7	0	0	0	0	649	419	
8	0	0	0	0	645	418	
9	0	0	0	0	636	419	
10	0	0	0	0	625	419	
11	0	0	0	0	609	419	
12	0	0	0	0	593	418	
13	0	0	0	0	577	417	
14	0	0	0	0	562	419	
15	0	0	0	0	549	418	
0	0	0	0	0	537	418	
1	0	0	0	0	528	418	
2	0	0	0	0	522	418	
3	0	0	0	0	518	419	
4	0	0	0	0	516	418	
5	0	0	0	0	516	418	
6	0	0	0	0	520	418	
7	0	0	0	0	524	418	
8	0	0	0	0	527	418	
9	0	0	0	0	531	419	
10	0	0	0	0	531	418	
11	0	0	0	0	530	419	
12	0	0	0	0	529	418	
13	0	0	0	0	528	418	
14	0	0	0	0	527	419	
15	0	0	0	0	524	418	
0	0	0	0	0	522	418	
1	0	0	0	0	520	418	
2	0	0	0	0	518	417	
3	0	0	0	0	515	418	
4	0	0	0	0	512	418	
5	0	0	0	0	509	417	
6	0	0	0	0	506	418	
7	0	0	0	0	502	417	
8	0	0	0	0	499	417	
9	0	0	0	0	496	418	
10	0	0	0	0	494	417	
11	0	0	0	0	492	418	
12	0	0	0	0	492	417	
13	0	0	0	0	490	418	
14	0	0	0	0	489	418	
15	0	0	0	0	488	418	
0	0	0	0	0	488	418	
1	0	0	0	0	488	418	
2	0	0	0	0	488	418	
3	0	0	0	0	488	418	
4	0	0	0	0	487	417	
5	0	0	0	0	486	417	
6	0	0	0	0	486	416	
7	0	0	0	0	485	417	
8	0	0	0	0	484	417	
9	0	0	0	0	484	416	
10	0	0	0	0	484	416	
11	0	0	0	0	485	417	
12	0	0	0	0	486	417	
13	0	0	0	0	486	417	
14	0	0	0	0	486	416	
15	0	0	0	0	487	416	
0	0	0	0	0	487	416	
1	0	0	0	0	489	417	
2	0	0	0	0	489	417	
3	0	0	0	0	490	418	
4	0	0	0	0	490	417	
5	0	0	0	0	490	417	
6	0	0	0	0	491	418	
7	0	0	0	0	490	417	
8	0	0	0	0	491	417	
9	0	0	0	0	492	417	
10	0	0	0	0	491	417	
11	0	0	0	0	491	419	
12	0	0	0	0	490	418	
13	0	0	0	0	491	418	
14	0	0	0	0	491	417	
15	0	0	0	0	492	417	
0	0	0	0	0	493	419	
1	0	0	0	0	493	418	
2	0	0	0	0	494	418	
3	0	0	0	0	493	418	
4	0	0	0	0	492	418	
5	0	0	0	0	492	418	
6	0	0	0	0	493	418	
7	0	0	0	0	495	418	
8	0	0	0	0	496	418	
9	0	0	0	0	498	418	
10	0	0	0	0	498	418	
11	0	0	0	0	500	419	
12	0	0	0	0	500	418	
13	0	0	0	0	499	418	
14	0	0	0	0	500	418	
15	0	0	0	0	499	418	
0	0	0	0	0	498	419	
1	0	0	0	0	497	418	
2	0	0	0	0	497	418	
3	0	0	0	0	496	418	
4	0	0	0	0	496	417	
5	0	0	0	0	496	418	
6	0	0	0	0	497	417	
7	0	0	0	0	498	418	
8	0	0	0	0	499	418	
9	0	0	0	0	500	418	
10	0	0	0	0	500	418	
11	0	0	0	0	501	418	
12	0	0	0	0	502	418	
13	0	0	0	0	502	417	
14	0	0	0	0	502	417	
15	0	0	0	0	502	419	
0	0	0	0	0	502	417	
1	0	0	0	0	501	418	
2	0	0	0	0	500	417	
3	0	0	0	0	501	418	
4	0	0	0	0	502	417	
5	0	0	0	0	503	417	
6	0	0	0	0	503	417	
7	0	0	0	0	503	417	
8	0	0	0	0	503	417	
9	0	0	0	0	503	417	
10	0	0	0	0	503	417	
11	0	0	0	0	503	418	
12	0	0	0	0	504	417	
13	0	0	0	0	503	417	
14	0	0	0	0	504	417	
15	0	0	0	0	504	418	
0	0	0	0	0	505	417	
1	0	0	0	0	505	417	
2	0	0	0	0	504	417	
3	0	0	0	0	504	418	
4	0	0	0	0	505	418	
5	0	0	0	0	504	418	
6	0	0	0	0	503	418	
7	0	0	0	0	502	418	
8	0	0	0	0	501	418	
9	0	0	0	0	500	417	
10	0	0	0	0	500	417	
11	0	0	0	0	500	419	
12	0	0	0	0	499	417	
13	0	0	0	0	499	417	
14	0	0	0	0	499	418	
15	0	0	0	0	500	418	
0	0	0	0	0	500	418	
1	0	0	0	0	501	419	
2	0	0	0	0	501	418	
3	0	0	0	0	502	419	
4	0	0	0	0	503	418	
5	0	0	0	0	504	418	
6	0	0	0	0	504	418	
7	0	0	0	0	504	419	
8	0	0	0	0	504	419	
9	0	0	0	0	504	419	
10	0	0	0	0	504	419	
11	0	0	0	0	503	420	
12	0	0	0	0	503	419	
13	0	0	0	0	503	419	
14	0	0	0	0	503	419	
15	0	0	0	0	503	419	
0	0	0	0	0	503	419	
1	0	0	0	0	503	419	
2	0	0	0	0	503	418	
3	0	0	0	0	503	419	
4	0	0	0	0	503	419	
5	0	0	0	0	503	418	
6	0	0	0	0	504	418	
7	0	0	0	0	504	419	
8	0	0	0	0	504	418	
9	0	0	0	0	504	417	
10	0	0	0	0	505	417	
11	0	0	0	0	505	418	
12	0	0	0	0	506	418	
13	0	0	0	0	506	418	
14	0	0	0	0	506	417	
15	0	0	0	0	506	418	
0	0	0	0	0	505	417	
1	0	0	0	0	505	417	
2	0	0	0	0	505	418	
3	0	0	0	0	504	418	
4	0	0	0	0	504	418	
5	0	0	0	0	505	418	
6	0	0	0	0	504	417	
7	0	0	0	0	505	418	
8	0	0	0	0	505	417	
9	0	0	0	0	505	418	
10	0	0	0	0	505	418	
11	0	0	0	0	505	418	
12	0	0	0	0	506	418	
13	0	0	0	0	508	418	
14	0	0	0	0	509	418	
15	0	0	0	0	510	418	
0	0	0	0	0	511	418	
1	0	0	0	0	512	417	
2	0	0	0	0	511	417	
3	0	0	0	0	512	418	
4	0	0	0	0	511	418	
5	0	0	0	0	511	418	
6	0	0	0	0	511	417	
7	0	0	0	0	511	417	
8	0	0	0	0	511	417	
9	0	0	0	0	511	417	
10	0	0	0	0	512	417	
11	0	0	0	0	512	418	
12	0	0	0	0	512	417	
13	0	0	0	0	512	417	
14	0	0	0	0	512	418	
15	0	0	0	0	511	418	
0	0	0	0	0	511	418	
1	0	0	0	0	511	418	
2	0	0	0	0	511	417	
3	0	0	0	0	511	418	
4	0	0	0	0	511	418	
5	0	0	0	0	510	418	
6	0	0	0	0	510	417	
7	0	0	0	0	510	418	
8	0	0	0	0	511	417	
9	0	0	0	0	511	417	
10	0	0	0	0	511	418	
11	0	0	0	0	512	418	
12	0	0	0	0	513	418	
13	0	0	0	0	513	417	
14	0	0	0	0	514	418	
15	0	0	0	0	514	418	
0	0	0	0	0	515	417	
1	0	0	0	0	516	418	
2	0	0	0	0	516	417	
3	0	0	0	0	516	418	
4	0	0	0	0	516	418	
5	0	0	0	0	516	417	
6	0	0	0	0	516	417	
7	0	0	0	0	516	418	
8	0	0	0	0	516	417	
9	0	0	0	0	516	417	
10	0	0	0	0	515	417	
11	0	0	0	0	516	418	
12	0	0	0	0	516	417	
13	0	0	0	0	515	417	
14	0	0	0	0	515	417	
15	0	0	0	0	515	417	
0	0	0	0	0	515	417	
1	0	0	0	0	515	417	
2	0	0	0	0	515	417	
3	0	0	0	0	515	418	
4	0	0	0	0	515	417	
5	0	0	0	0	515	417	
6	0	0	0	0	515	417	
7	0	0	0	0	515	418	
8	0	0	0	0	515	417	
9	0	0	0	0	515	418	
10	0	0	0	0	516	418	
11	0	0	0	0	515	417	
12	0	0	0	0	516	417	
13	0	0	0	0	516	417	
14	0	0	0	0	516	417	
15	0	0	0	0	516	418	
0	0	0	0	0	515	417	
1	0	0	0	0	515	417	
2	0	0	0	0	515	417	
3	0	0	0	0	516	419	
4	0	0	0	0	517	418	
5	0	0	0	0	518	417	
6	0	0	0	0	519	417	
7	0	0	0	0	520	418	
8	0	0	0	0	521	417	
9	0	0	0	0	522	417	
10	0	0	0	0	523	417	
11	0	0	0	0	524	418	
12	0	0	0	0	524	418	
13	0	0	0	0	524	418	
14	0	0	0	0	523	417	
15	0	0	0	0	523	417	
0	0	0	0	0	524	417	
1	0	0	0	0	524	417	
2	0	0	0	0	524	418	
3	0	0	0	0	525	418	
4	0	0	0	0	525	417	
5	0	0	0	0	524	418	
6	0	0	0	0	523	418	
7	0	0	0	0	522	418	
8	0	0	0	0	521	418	
9	0	0	0	0	520	417	
10	0	0	0	0	519	417	
11	0	0	0	0	518	418	
12	0	0	0	0	518	418	
13	0	0	0	0	518	417	
14	0	0	0	0	517	417	
15	0	0	0	0	516	418	
0	0	0	0	0	516	418	
1	0	0	0	0	516	417	
2	0	0	0	0	516	418	
3	0	0	0	0	515	418	
4	0	0	0	0	515	418	
5	0	0	0	0	514	418	
6	0	0	0	0	513	418	
7	0	0	0	0	513	418	
8	0	0	0	0	512	417	
9	0	0	0	0	512	418	
10	0	0	0	0	511	417	
11	0	0	0	0	510	418	
12	0	0	0	0	510	419	
13	0	0	0	0	509	418	
14	0	0	0	0	508	417	
15	0	0	0	0	508	418	
0	0	0	0	0	508	419	
1	0	0	0	0	508	418	
2	0	0	0	0	508	419	
3	0	0	0	0	508	419	
4	0	0	0	0	509	418	
5	0	0	0	0	508	418	
6	0	0	0	0	509	419	
7	0	0	0	0	508	419	
8	0	0	0	0	508	419	
9	0	0	0	0	507	418	
10	0	0	0	0	506	419	
11	0	0	0	0	506	419	
12	0	0	0	0	505	418	
13	0	0	0	0	504	419	
14	0	0	0	0	504	419	
15	0	0	0	0	503	419	
0	0	0	0	0	503	419	
1	0	0	0	0	503	419	
2	0	0	0	0	503	419	
3	0	0	0	0	502	419	
4	0	0	0	0	502	419	
5	0	0	0	0	502	419	
6	0	0	0	0	502	418	
7	0	0	0	0	502	419	
8	0	0	0	0	502	419	
9	0	0	0	0	502	418	
10	0	0	0	0	503	418	
11	0	0	0	0	503	419	
12	0	0	0	0	504	419	
13	0	0	0	0	504	419	
14	0	0	0	0	504	419	
15	0	0	0	0	504	419	
0	0	0	0	0	504	419	
1	0	0	0	0	504	419	
2	0	0	0	0	504	419	
3	0	0	0	0	504	419	
4	0	0	0	0	503	419	
5	0	0	0	0	503	418	
6	0	0	0	0	502	419	
7	0	0	0	0	503	419	
8	0	0	0	0	503	418	
9	0	0	0	0	503	419	
10	0	0	0	0	504	418	
11	0	0	0	0	504	419	
12	0	0	0	0	504	419	
13	0	0	0	0	504	418	
14	0	0	0	0	504	419	
15	0	0	0	0	503	418	
0	0	0	0	0	502	418	
1	0	0	0	0	501	419	
2	0	0	0	0	501	419	
3	0	0	0	0	501	419	
4	0	0	0	0	501	418	
5	0	0	0	0	502	419	
6	0	0	0	0	502	419	
7	0	0	0	0	502	419	
8	0	0	0	0	503	419	
9	0	0	0	0	503	419	
10	0	0	0	0	504	418	
11	0	0	0	0	505	420	
12	0	0	0	0	505	419	
13	0	0	0	0	505	419	
14	0	0	0	0	506	419	
15	0	0	0	0	506	419	
0	0	0	0	0	505	419	
1	0	0	0	0	506	419	
2	0	0	0	0	506	419	
3	0	0	0	0	506	419	
4	0	0	0	0	507	419	
5	0	0	0	0	507	419	
6	0	0	0	0	508	418	
7	0	0	0	0	509	419	
8	0	0	0	0	509	419	
9	0	0	0	0	510	419	
10	0	0	0	0	510	419	
11	0	0	0	0	510	419	
12	0	0	0	0	510	419	
13	0	0	0	0	509	419	
14	0	0	0	0	509	419	
15	0	0	0	0	509	419	
0	0	0	0	0	509	418	
1	0	0	0	0	509	419	
2	0	0	0	0	509	419	
3	0	0	0	0	509	419	
4	0	0	0	0	508	418	
5	0	0	0	0	509	418	
6	0	0	0	0	508	418	
7	0	0	0	0	507	419	
8	0	0	0	0	507	418	
9	0	0	0	0	507	419	
10	0	0	0	0	506	419	
11	0	0	0	0	506	420	
12	0	0	0	0	505	418	
13	0	0	0	0	504	419	
14	0	0	0	0	504	418	
15	0	0	0	0	503	419	
0	0	0	0	0	503	418	
1	0	0	0	0	502	419	
2	0	0	0	0	501	419	
3	0	0	0	0	500	419	
4	0	0	0	0	499	418	
5	0	0	0	0	500	418	
6	0	0	0	0	500	417	
7	0	0	0	0	500	418	
8	0	0	0	0	502	418	
9	0	0	0	0	502	418	
10	0	0	0	0	502	418	
11	0	0	0	0	502	419	
12	0	0	0	0	503	419	
13	0	0	0	0	503	418	
14	0	0	0	0	502	418	
15	0	0	0	0	502	418	
0	0	0	0	0	501	418	
1	0	0	0	0	499	418	
2	0	0	0	0	500	418	
3	0	0	0	0	499	419	
4	0	0	0	0	499	417	
5	0	0	0	0	501	418	
6	0	0	0	0	501	417	
7	0	0	0	0	502	417	
8	0	0	0	0	502	417	
9	0	0	0	0	503	418	
10	0	0	0	0	503	417	
11	0	0	0	0	503	418	
12	0	0	0	0	503	418	
13	0	0	0	0	503	417	
14	0	0	0	0	502	418	
15	0	0	0	0	502	418	
0	0	0	0	0	503	418	
1	0	0	0	0	502	417	
2	0	0	0	0	502	417	
3	0	0	0	0	502	418	
4	0	0	0	0	501	418	
5	0	0	0	0	501	417	
6	0	0	0	0	502	417	
7	0	0	0	0	502	417	
8	0	0	0	0	503	417	
9	0	0	0	0	503	418	
10	0	0	0	0	504	417	
11	0	0	0	0	505	418	
12	0	0	0	0	505	418	
13	0	0	0	0	506	417	
14	0	0	0	0	507	417	
15	0	0	0	0	508	417	
0	0	0	0	0	508	417	
1	0	0	0	0	508	416	
2	0	0	0	0	508	417	
3	0	0	0	0	509	418	
4	0	0	0	0	509	417	
5	0	0	0	0	509	417	
6	0	0	0	0	509	418	
7	0	0	0	0	509	418	
8	0	0	0	0	508	417	
9	0	0	0	0	509	417	
10	0	0	0	0	510	417	
11	0	0	0	0	511	417	
12	0	0	0	0	511	417	
13	0	0	0	0	511	417	
14	0	0	0	0	510	417	
15	0	0	0	0	510	418	
0	0	0	0	0	510	417	
1	0	0	0	0	510	417	
2	0	0	0	0	510	417	
3	0	0	0	0	511	418	
4	0	0	0	0	510	417	
5	0	0	0	0	510	417	
6	0	0	0	0	510	418	
7	0	0	0	0	510	418	
8	0	0	0	0	510	417	
9	0	0	0	0	510	418	
10	0	0	0	0	510	417	
11	0	0	0	0	510	418	
12	0	0	0	0	510	417	
13	0	0	0	0	511	418	
14	0	0	0	0	511	418	
15	0	0	0	0	512	418	
0	0	0	0	0	512	418	
1	0	0	0	0	512	417	
2	0	0	0	0	512	418	
3	0	0	0	0	513	418	
4	0	0	0	0	514	417	
5	0	0	0	0	515	417	
6	0	0	0	0	515	417	
7	0	0	0	0	516	418	
8	0	0	0	0	517	418	
9	0	0	0	0	518	418	
10	0	0	0	0	518	417	
11	0	0	0	0	518	419	
12	0	0	0	0	519	418	
13	0	0	0	0	519	417	
14	0	0	0	0	519	417	
15	0	0	0	0	519	418	
0	0	0	0	0	519	417	
1	0	0	0	0	519	417	
2	0	0	0	0	520	418	
3	0	0	0	0	520	419	
4	0	0	0	0	521	417	
5	0	0	0	0	522	417	
6	0	0	0	0	522	417	
7	0	0	0	0	523	417	
8	0	0	0	0	523	418	
9	0	0	0	0	524	418	
10	0	0	0	0	523	418	
11	0	0	0	0	523	419	
12	0	0	0	0	523	417	
13	0	0	0	0	523	417	
14	0	0	0	0	523	418	
15	0	0	0	0	523	418	
0	0	0	0	0	524	417	
1	0	0	0	0	524	417	
2	0	0	0	0	524	416	
3	0	0	0	0	524	418	
4	0	0	0	0	523	417	
5	0	0	0	0	522	417	
6	0	0	0	0	521	417	
7	0	0	0	0	519	417	
8	0	0	0	0	519	417	
9	0	0	0	0	518	417	
10	0	0	0	0	518	417	
11	0	0	0	0	518	418	
12	0	0	0	0	518	418	
13	0	0	0	0	517	418	
14	0	0	0	0	518	417	
15	0	0	0	0	518	418	
0	0	0	0	0	518	417	
1	0	0	0	0	517	417	
2	0	0	0	0	517	417	
3	0	0	0	0	516	418	
4	0	0	0	0	515	417	
5	0	0	0	0	515	417	
6	0	0	0	0	514	417	
7	0	0	0	0	514	417	
8	0	0	0	0	513	417	
9	0	0	0	0	512	417	
10	0	0	0	0	512	417	
11	0	0	0	0	511	418	
12	0	0	0	0	511	418	
13	0	0	0	0	510	417	
14	0	0	0	0	510	417	
15	0	0	0	0	510	418	
0	0	0	0	0	510	417	
1	0	0	0	0	510	418	
2	0	0	0	0	509	417	
3	0	0	0	0	509	418	
4	0	0	0	0	508	418	
5	0	0	0	0	507	418	
6	0	0	0	0	507	417	
7	0	0	0	0	506	418	
8	0	0	0	0	505	417	
9	0	0	0	0	504	418	
10	0	0	0	0	504	417	
11	0	0	0	0	504	419	
12	0	0	0	0	503	418	
13	0	0	0	0	504	417	
14	0	0	0	0	504	417	
15	0	0	0	0	504	418	
0	0	0	0	0	504	418	
1	0	0	0	0	504	417	
2	0	0	0	0	504	418	
3	0	0	0	0	505	418	
4	0	0	0	0	505	417	
5	0	0	0	0	506	417	
6	0	0	0	0	507	417	
7	0	0	0	0	507	418	
8	0	0	0	0	508	417	
9	0	0	0	0	508	417	
10	0	0	0	0	509	417	
11	0	0	0	0	509	418	
12	0	0	0	0	510	417	
13	0	0	0	0	509	417	
14	0	0	0	0	509	418	
15	0	0	0	0	509	418	
0	0	0	0	0	509	417	
1	0	0	0	0	508	418	
2	0	0	0	0	505	418	
3	0	0	0	0	503	418	
4	0	0	0	0	500	418	
5	0	0	0	0	498	418	
6	0	0	0	0	496	418	
7	0	0	0	0	493	418	
8	0	0	0	0	491	418	
9	0	0	0	0	489	417	
10	0	0	0	0	487	417	
11	0	0	0	0	485	418	
12	0	0	0	0	484	418	
13	0	0	0	0	483	418	
14	0	0	0	0	483	418	
15	0	0	0	0	482	419	
0	0	0	0	0	482	418	
1	0	0	0	0	483	418	
2	0	0	0	0	483	418	
3	0	0	0	0	485	419	
4	0	0	0	0	487	417	
5	0	0	0	0	490	418	
6	0	0	0	0	494	418	
7	0	0	0	0	498	418	
8	0	0	0	0	502	418	
9	0	0	0	0	506	418	
10	0	0	0	0	511	418	
11	0	0	0	0	516	419	
12	0	0	0	0	523	417	
13	0	0	0	0	530	418	
14	0	0	0	0	538	418	
15	0	0	0	0	546	418	
0	0	0	0	0	555	418	
1	0	0	0	0	566	418	
2	0	0	0	0	577	418	
3	0	0	0	0	588	419	
4	0	0	0	0	600	418	
5	0	0	0	0	611	418	
6	0	0	0	0	622	419	
7	0	0	0	0	634	419	
8	0	0	0	0	643	418	
9	0	0	0	0	651	419	
10	0	0	0	0	656	418	
11	0	0	0	0	658	419	
12	0	0	0	0	656	418	
13	0	0	0	0	649	419	
14	0	0	0	0	640	418	
15	0	0	0	0	626	418	
0	0	0	0	0	610	417	
1	0	0	0	0	593	417	
2	0	0	0	0	577	417	
3	0	0	0	0	563	418	
4	0	0	0	0	550	418	
5	0	0	0	0	538	418	
6	0	0	0	0	528	418	
7	0	0	0	0	521	419	
8	0	0	0	0	516	418	
9	0	0	0	0	514	419	
10	0	0	0	0	515	418	
11	0	0	0	0	518	419	
12	0	0	0	0	521	419	
13	0	0	0	0	524	418	
14	0	0	0	0	526	418	
15	0	0	0	0	527	419	
0	0	0	0	0	527	418	
1	0	0	0	0	525	418	
2	0	0	0	0	524	418	
3	0	0	0	0	522	419	
4	0	0	0	0	520	418	
5	0	0	0	0	519	418	
6	0	0	0	0	516	418	
7	0	0	0	0	515	419	
8	0	0	0	0	512	418	
9	0	0	0	0	509	417	
10	0	0	0	0	506	418	
11	0	0	0	0	504	419	
12	0	0	0	0	501	417	
13	0	0	0	0	499	417	
14	0	0	0	0	497	418	
15	0	0	0	0	496	419	
0	0	0	0	0	494	417	
1	0	0	0	0	493	417	
2	0	0	0	0	491	418	
3	0	0	0	0	491	417	
4	0	0	0	0	490	418	
5	0	0	0	0	489	418	
6	0	0	0	0	488	418	
7	0	0	0	0	487	419	
8	0	0	0	0	487	418	
9	0	0	0	0	487	418	
10	0	0	0	0	487	417	
11	0	0	0	0	486	419	
12	0	0	0	0	487	418	
13	0	0	0	0	486	418	
14	0	0	0	0	487	419	
15	0	0	0	0	487	419	
0	0	0	0	0	487	418	
1	0	0	0	0	487	419	
2	0	0	0	0	487	418	
3	0	0	0	0	487	418	
4	0	0	0	0	487	418	
5	0	0	0	0	486	419	
6	0	0	0	0	485	418	
7	0	0	0	0	484	418	
8	0	0	0	0	483	418	
9	0	0	0	0	483	418	
10	0	0	0	0	483	418	
11	0	0	0	0	483	419	
12	0	0	0	0	483	417	
13	0	0	0	0	483	418	
14	0	0	0	0	482	418	
15	0	0	0	0	482	419	
0	0	0	0	0	482	418	
1	0	0	0	0	482	417	
2	0	0	0	0	482	418	
3	0	0	0	0	481	419	
4	0	0	0	0	482	418	
5	0	0	0	0	483	418	
6	0	0	0	0	483	418	
7	0	0	0	0	484	419	
8	0	0	0	0	484	418	
9	0	0	0	0	484	418	
10	0	0	0	0	483	419	
11	0	0	0	0	482	419	
12	0	0	0	0	482	418	
13	0	0	0	0	483	418	
14	0	0	0	0	483	418	
15	0	0	0	0	484	419	
0	0	0	0	0	485	418	
1	0	0	0	0	486	418	
2	0	0	0	0	487	418	
3	0	0	0	0	488	419	
4	0	0	0	0	489	419	
5	0	0	0	0	489	419	
6	0	0	0	0	491	419	
7	0	0	0	0	492	419	
8	0	0	0	0	492	418	
9	0	0	0	0	492	418	
10	0	0	0	0	492	418	
11	0	0	0	0	492	419	
12	0	0	0	0	492	417	
13	0	0	0	0	493	418	
14	0	0	0	0	493	418	
15	0	0	0	0	493	418	
0	0	0	0	0	494	418	
1	0	0	0	0	494	418	
2	0	0	0	0	494	418	
3	0	0	0	0	495	418	
4	0	0	0	0	495	417	
5	0	0	0	0	496	418	
6	0	0	0	0	497	418	
7	0	0	0	0	498	419	
8	0	0	0	0	498	418	
9	0	0	0	0	498	418	
10	0	0	0	0	498	419	
11	0	0	0	0	497	419	
12	0	0	0	0	497	418	
13	0	0	0	0	497	418	
14	0	0	0	0	497	419	
15	0	0	0	0	498	419	
0	0	0	0	0	499	418	
1	0	0	0	0	499	418	
2	0	0	0	0	500	418	
3	0	0	0	0	500	418	
4	0	0	0	0	500	417	
5	0	0	0	0	500	418	
6	0	0	0	0	500	417	
7	0	0	0	0	500	418	
8	0	0	0	0	500	417	
9	0	0	0	0	501	417	
10	0	0	0	0	501	417	
11	0	0	0	0	501	418	
12	0	0	0	0	502	418	
13	0	0	0	0	503	417	
14	0	0	0	0	503	417	
15	0	0	0	0	504	418	
0	0	0	0	0	504	418	
1	0	0	0	0	505	418	
2	0	0	0	0	506	418	
3	0	0	0	0	507	419	
4	0	0	0	0	507	419	
5	0	0	0	0	507	418	
6	0	0	0	0	507	418	
7	0	0	0	0	507	418	
8	0	0	0	0	507	418	
9	0	0	0	0	507	418	
10	0	0	0	0	506	417	
11	0	0	0	0	507	418	
12	0	0	0	0	508	418	
13	0	0	0	0	509	417	
14	0	0	0	0	508	417	
15	0	0	0	0	510	417	
0	0	0	0	0	511	417	
1	0	0	0	0	511	417	
2	0	0	0	0	512	418	
3	0	0	0	0	512	418	
4	0	0	0	0	512	417	
5	0	0	0	0	512	417	
6	0	0	0	0	512	417	
7	0	0	0	0	512	417	
8	0	0	0	0	512	417	
9	0	0	0	0	512	417	
10	0	0	0	0	514	417	
11	0	0	0	0	514	417	
12	0	0	0	0	514	417	
13	0	0	0	0	514	418	
14	0	0	0	0	514	417	
15	0	0	0	0	514	417	
0	0	0	0	0	514	418	
1	0	0	0	0	514	418	
2	0	0	0	0	514	418	
3	0	0	0	0	514	418	
4	0	0	0	0	514	417	
5	0	0	0	0	514	417	
6	0	0	0	0	515	417	
7	0	0	0	0	515	417	
8	0	0	0	0	515	417	
9	0	0	0	0	515	417	
10	0	0	0	0	515	416	
11	0	0	0	0	515	417	
12	0	0	0	0	515	416	
13	0	0	0	0	514	417	
14	0	0	0	0	513	417	
15	0	0	0	0	513	416	
0	0	0	0	0	513	416	
1	0	0	0	0	512	417	
2	0	0	0	0	511	417	
3	0	0	0	0	511	417	
4	0	0	0	0	511	416	
5	0	0	0	0	511	416	
6	0	0	0	0	510	417	
7	0	0	0	0	510	417	
8	0	0	0	0	509	416	
9	0	0	0	0	508	416	
10	0	0	0	0	508	416	
11	0	0	0	0	508	417	
12	0	0	0	0	508	417	
13	0	0	0	0	509	416	
14	0	0	0	0	509	416	
15	0	0	0	0	510	417	
0	0	0	0	0	510	417	
1	0	0	0	0	511	417	
2	0	0	0	0	511	417	
3	0	0	0	0	510	417	
4	0	0	0	0	511	417	
5	0	0	0	0	511	417	
6	0	0	0	0	512	416	
7	0	0	0	0	512	417	
8	0	0	0	0	511	417	
9	0	0	0	0	511	417	
10	0	0	0	0	511	418	
11	0	0	0	0	511	419	
12	0	0	0	0	511	418	
13	0	0	0	0	510	417	
14	0	0	0	0	510	417	
15	0	0	0	0	509	417	
0	0	0	0	0	509	417	
1	0	0	0	0	509	417	
2	0	0	0	0	508	416	
3	0	0	0	0	508	417	
4	0	0	0	0	508	416	
5	0	0	0	0	508	417	
6	0	0	0	0	508	416	
7	0	0	0	0	508	416	
8	0	0	0	0	508	416	
9	0	0	0	0	509	416	
10	0	0	0	0	509	417	
11	0	0	0	0	510	418	
12	0	0	0	0	511	418	
13	0	0	0	0	512	418	
14	0	0	0	0	512	417	
15	0	0	0	0	512	418	
0	0	0	0	0	513	418	
1	0	0	0	0	514	417	
2	0	0	0	0	515	417	
3	0	0	0	0	515	419	
4	0	0	0	0	517	418	
5	0	0	0	0	517	418	
6	0	0	0	0	518	417	
7	0	0	0	0	518	418	
8	0	0	0	0	518	417	
9	0	0	0	0	519	417	
10	0	0	0	0	519	417	
11	0	0	0	0	519	418	
12	0	0	0	0	519	417	
13	0	0	0	0	520	417	
14	0	0	0	0	520	417	
15	0	0	0	0	520	418	
0	0	0	0	0	520	417	
1	0	0	0	0	521	418	
2	0	0	0	0	522	417	
3	0	0	0	0	522	419	
4	0	0	0	0	523	417	
5	0	0	0	0	524	417	
6	0	0	0	0	525	418	
7	0	0	0	0	526	419	
8	0	0	0	0	527	418	
9	0	0	0	0	528	417	
10	0	0	0	0	529	417	
11	0	0	0	0	530	419	
12	0	0	0	0	531	418	
13	0	0	0	0	531	417	
14	0	0	0	0	531	418	
15	0	0	0	0	531	418	
0	0	0	0	0	530	417	
1	0	0	0	0	530	418	
2	0	0	0	0	530	418	
3	0	0	0	0	531	418	
4	0	0	0	0	530	418	
5	0	0	0	0	531	418	
6	0	0	0	0	531	418	
7	0	0	0	0	531	418	
8	0	0	0	0	531	419	
9	0	0	0	0	531	418	
10	0	0	0	0	530	418	
11	0	0	0	0	530	419	
12	0	0	0	0	531	418	
13	0	0	0	0	530	418	
14	0	0	0	0	530	418	
15	0	0	0	0	529	419	
0	0	0	0	0	529	418	
1	0	0	0	0	527	419	
2	0	0	0	0	527	418	
3	0	0	0	0	527	419	
4	0	0	0	0	527	417	
5	0	0	0	0	526	418	
6	0	0	0	0	525	418	
7	0	0	0	0	524	418	
8	0	0	0	0	524	418	
9	0	0	0	0	523	418	
10	0	0	0	0	521	418	
11	0	0	0	0	520	419	
12	0	0	0	0	519	418	
13	0	0	0	0	518	417	
14	0	0	0	0	518	419	
15	0	0	0	0	518	418	
0	0	0	0	0	519	417	
1	0	0	0	0	519	418	
2	0	0	0	0	519	417	
3	0	0	0	0	518	419	
4	0	0	0	0	517	418	
5	0	0	0	0	516	418	
6	0	0	0	0	516	419	
7	0	0	0	0	515	418	
8	0	0	0	0	515	419	
9	0	0	0	0	515	418	
10	0	0	0	0	515	418	
11	0	0	0	0	514	419	
12	0	0	0	0	513	418	
13	0	0	0	0	513	418	
14	0	0	0	0	514	419	
15	0	0	0	0	514	418	
0	0	0	0	0	514	418	
1	0	0	0	0	514	419	
2	0	0	0	0	515	418	
3	0	0	0	0	515	419	
4	0	0	0	0	514	418	
5	0	0	0	0	513	418	
6	0	0	0	0	513	418	
7	0	0	0	0	513	418	
8	0	0	0	0	512	418	
9	0	0	0	0	513	418	
10	0	0	0	0	513	418	
11	0	0	0	0	513	418	
12	0	0	0	0	514	418	
13	0	0	0	0	515	419	
14	0	0	0	0	515	418	
15	0	0	0	0	515	419	
0	0	0	0	0	515	418	
1	0	0	0	0	517	418	
2	0	0	0	0	518	418	
3	0	0	0	0	518	418	
4	0	0	0	0	519	418	
5	0	0	0	0	519	417	
6	0	0	0	0	520	418	
7	0	0	0	0	520	419	
8	0	0	0	0	521	419	
9	0	0	0	0	521	419	
10	0	0	0	0	520	418	
11	0	0	0	0	520	419	
12	0	0	0	0	520	418	
13	0	0	0	0	520	418	
14	0	0	0	0	520	418	
15	0	0	0	0	520	418	
0	0	0	0	0	520	419	
1	0	0	0	0	520	419	
2	0	0	0	0	519	419	
3	0	0	0	0	519	419	
4	0	0	0	0	519	419	
5	0	0	0	0	519	418	
6	0	0	0	0	519	419	
7	0	0	0	0	518	419	
8	0	0	0	0	518	418	
9	0	0	0	0	517	419	
10	0	0	0	0	518	418	
11	0	0	0	0	518	419	
12	0	0	0	0	519	419	
13	0	0	0	0	519	419	
14	0	0	0	0	519	419	
15	0	0	0	0	519	419	
0	0	0	0	0	520	418	
1	0	0	0	0	521	419	
2	0	0	0	0	522	419	
3	0	0	0	0	522	419	
4	0	0	0	0	522	419	
5	0	0	0	0	521	418	
6	0	0	0	0	521	419	
7	0	0	0	0	522	419	
8	0	0	0	0	522	418	
9	0	0	0	0	521	419	
10	0	0	0	0	521	419	
11	0	0	0	0	521	419	
12	0	0	0	0	519	418	
13	0	0	0	0	519	418	
14	0	0	0	0	519	419	
15	0	0	0	0	518	419	
0	0	0	0	0	518	418	
1	0	0	0	0	517	419	
2	0	0	0	0	516	418	
3	0	0	0	0	515	419	
4	0	0	0	0	514	418	
5	0	0	0	0	514	418	
6	0	0	0	0	514	418	
7	0	0	0	0	513	418	
8	0	0	0	0	513	418	
9	0	0	0	0	512	418	
10	0	0	0	0	513	418	
11	0	0	0	0	512	419	
12	0	0	0	0	513	418	
13	0	0	0	0	515	418	
14	0	0	0	0	516	419	
15	0	0	0	0	518	418	
0	0	0	0	0	519	418	
1	0	0	0	0	519	418	
2	0	0	0	0	519	418	
3	0	0	0	0	519	419	
4	0	0	0	0	519	419	
5	0	0	0	0	519	419	
6	0	0	0	0	518	418	
7	0	0	0	0	517	419	
8	0	0	0	0	516	418	
9	0	0	0	0	515	418	
10	0	0	0	0	515	418	
11	0	0	0	0	514	418	
12	0	0	0	0	513	418	
13	0	0	0	0	513	418	
14	0	0	0	0	513	417	
15	0	0	0	0	513	418	
0	0	0	0	0	514	417	
1	0	0	0	0	514	418	
2	0	0	0	0	515	417	
3	0	0	0	0	516	418	
4	0	0	0	0	517	417	
5	0	0	0	0	517	418	
6	0	0	0	0	519	418	
7	0	0	0	0	519	418	
8	0	0	0	0	519	418	
9	0	0	0	0	518	417	
10	0	0	0	0	516	417	
11	0	0	0	0	515	418	
12	0	0	0	0	515	418	
13	0	0	0	0	514	417	
14	0	0	0	0	513	417	
15	0	0	0	0	513	417	
0	0	0	0	0	513	417	
1	0	0	0	0	514	417	
2	0	0	0	0	516	416	
3	0	0	0	0	517	417	
4	0	0	0	0	516	417	
5	0	0	0	0	515	417	
6	0	0	0	0	513	417	
7	0	0	0	0	513	417	
8	0	0	0	0	512	417	
9	0	0	0	0	511	417	
10	0	0	0	0	511	417	
11	0	0	0	0	511	417	
12	0	0	0	0	510	417	
13	0	0	0	0	510	417	
14	0	0	0	0	509	417	
15	0	0	0	0	509	417	
0	0	0	0	0	508	416	
1	0	0	0	0	508	417	
2	0	0	0	0	508	417	
3	0	0	0	0	508	418	
4	0	0	0	0	508	417	
5	0	0	0	0	508	417	
6	0	0	0	0	508	417	
7	0	0	0	0	507	417	
8	0	0	0	0	506	417	
9	0	0	0	0	505	416	
10	0	0	0	0	505	416	
11	0	0	0	0	505	417	
12	0	0	0	0	505	417	
13	0	0	0	0	505	417	
14	0	0	0	0	505	417	
15	0	0	0	0	505	417	
0	0	0	0	0	506	417	
1	0	0	0	0	506	418	
2	0	0	0	0	506	417	
3	0	0	0	0	506	417	
4	0	0	0	0	506	417	
5	0	0	0	0	505	417	
6	0	0	0	0	504	417	
7	0	0	0	0	504	417	
8	0	0	0	0	504	417	
9	0	0	0	0	504	417	
10	0	0	0	0	502	417	
11	0	0	0	0	502	418	
12	0	0	0	0	501	417	
13	0	0	0	0	501	417	
14	0	0	0	0	502	417	
15	0	0	0	0	503	417	
0	0	0	0	0	504	417	
1	0	0	0	0	504	417	
2	0	0	0	0	505	417	
3	0	0	0	0	506	418	
4	0	0	0	0	506	417	
5	0	0	0	0	506	417	
6	0	0	0	0	507	418	
7	0	0	0	0	507	418	
8	0	0	0	0	508	418	
9	0	0	0	0	508	417	
10	0	0	0	0	508	417	
11	0	0	0	0	509	417	
12	0	0	0	0	509	417	
13	0	0	0	0	509	417	
14	0	0	0	0	509	417	
15	0	0	0	0	509	417	
0	0	0	0	0	510	417	
1	0	0	0	0	511	417	
2	0	0	0	0	511	417	
3	0	0	0	0	511	418	
4	0	0	0	0	512	417	
5	0	0	0	0	512	417	
6	0	0	0	0	512	417	
7	0	0	0	0	512	416	
8	0	0	0	0	511	416	
9	0	0	0	0	511	417	
10	0	0	0	0	511	417	
11	0	0	0	0	511	418	
12	0	0	0	0	510	417	
13	0	0	0	0	509	417	
14	0	0	0	0	508	417	
15	0	0	0	0	508	417	
0	0	0	0	0	507	417	
1	0	0	0	0	506	417	
2	0	0	0	0	506	416	
3	0	0	0	0	506	418	
4	0	0	0	0	506	417	
5	0	0	0	0	506	417	
6	0	0	0	0	506	417	
7	0	0	0	0	507	417	
8	0	0	0	0	506	417	
9	0	0	0	0	505	417	
10	0	0	0	0	505	418	
11	0	0	0	0	505	418	
12	0	0	0	0	504	417	
13	0	0	0	0	504	417	
14	0	0	0	0	504	417	
15	0	0	0	0	503	417	
0	0	0	0	0	502	417	
1	0	0	0	0	502	417	
2	0	0	0	0	502	417	
3	0	0	0	0	501	418	
4	0	0	0	0	501	417	
5	0	0	0	0	502	417	
6	0	0	0	0	502	417	
7	0	0	0	0	503	417	
8	0	0	0	0	503	417	
9	0	0	0	0	502	417	
10	0	0	0	0	502	418	
11	0	0	0	0	503	419	
12	0	0	0	0	503	417	
13	0	0	0	0	503	417	
14	0	0	0	0	503	417	
15	0	0	0	0	503	418	
0	0	0	0	0	503	417	
1	0	0	0	0	503	417	
2	0	0	0	0	503	417	
3	0	0	0	0	502	418	
4	0	0	0	0	502	418	
5	0	0	0	0	502	417	
6	0	0	0	0	502	417	
7	0	0	0	0	501	418	
8	0	0	0	0	501	418	
9	0	0	0	0	501	418	
10	0	0	0	0	501	418	
11	0	0	0	0	501	418	
12	0	0	0	0	501	417	
13	0	0	0	0	502	418	
14	0	0	0	0	502	418	
15	0	0	0	0	503	418	
0	0	0	0	0	504	418	
1	0	0	0	0	504	418	
2	0	0	0	0	504	418	
3	0	0	0	0	503	418	
4	0	0	0	0	502	417	
5	0	0	0	0	501	417	
6	0	0	0	0	498	418	
7	0	0	0	0	496	418	
8	0	0	0	0	493	418	
9	0	0	0	0	491	417	
10	0	0	0	0	489	417	
11	0	0	0	0	486	418	
12	0	0	0	0	484	418	
13	0	0	0	0	482	417	
14	0	0	0	0	480	417	
15	0	0	0	0	480	418	
0	0	0	0	0	480	417	
1	0	0	0	0	481	418	
2	0	0	0	0	481	418	
3	0	0	0	0	482	419	
4	0	0	0	0	484	418	
5	0	0	0	0	486	417	
6	0	0	0	0	489	417	
7	0	0	0	0	492	417	
8	0	0	0	0	495	417	
9	0	0	0	0	498	418	
10	0	0	0	0	503	417	
11	0	0	0	0	508	418	
12	0	0	0	0	513	418	
13	0	0	0	0	519	418	
14	0	0	0	0	526	418	
15	0	0	0	0	532	418	
0	0	0	0	0	541	418	
1	0	0	0	0	550	418	
2	0	0	0	0	559	417	
3	0	0	0	0	570	419	
4	0	0	0	0	582	417	
5	0	0	0	0	594	418	
6	0	0	0	0	607	417	
7	0	0	0	0	619	418	
8	0	0	0	0	631	418	
9	0	0	0	0	642	417	
10	0	0	0	0	653	417	
11	0	0	0	0	663	418	
12	0	0	0	0	670	417	
13	0	0	0	0	674	418	
14	0	0	0	0	675	417	
15	0	0	0	0	672	418	
0	0	0	0	0	664	418	
1	0	0	0	0	653	418	
2	0	0	0	0	639	418	
3	0	0	0	0	621	418	
4	0	0	0	0	604	418	
5	0	0	0	0	587	417	
6	0	0	0	0	571	418	
7	0	0	0	0	556	417	
8	0	0	0	0	543	418	
9	0	0	0	0	532	418	
10	0	0	0	0	525	418	
11	0	0	0	0	519	419	
12	0	0	0	0	516	419	
13	0	0	0	0	515	418	
14	0	0	0	0	515	418	
15	0	0	0	0	516	419	
0	0	0	0	0	516	418	
1	0	0	0	0	516	418	
2	0	0	0	0	515	418	
3	0	0	0	0	515	419	
4	0	0	0	0	514	418	
5	0	0	0	0	513	418	
6	0	0	0	0	513	419	
7	0	0	0	0	512	418	
8	0	0	0	0	511	419	
9	0	0	0	0	509	419	
10	0	0	0	0	507	418	
11	0	0	0	0	504	419	
12	0	0	0	0	500	419	
13	0	0	0	0	496	419	
14	0	0	0	0	493	418	
15	0	0	0	0	491	419	
0	0	0	0	0	489	418	
1	0	0	0	0	487	418	
2	0	0	0	0	486	419	
3	0	0	0	0	484	419	
4	0	0	0	0	482	418	
5	0	0	0	0	481	419	
6	0	0	0	0	481	418	
7	0	0	0	0	481	419	
8	0	0	0	0	481	418	
9	0	0	0	0	481	418	
10	0	0	0	0	480	418	
11	0	0	0	0	480	419	
12	0	0	0	0	480	418	
13	0	0	0	0	481	418	
14	0	0	0	0	481	418	
15	0	0	0	0	481	419	
0	0	0	0	0	481	418	
1	0	0	0	0	482	419	
2	0	0	0	0	481	419	
3	0	0	0	0	482	419	
4	0	0	0	0	482	419	
5	0	0	0	0	481	419	
6	0	0	0	0	482	419	
7	0	0	0	0	482	419	
8	0	0	0	0	481	418	
9	0	0	0	0	481	418	
10	0	0	0	0	481	418	
11	0	0	0	0	481	419	
12	0	0	0	0	481	418	
13	0	0	0	0	482	418	
14	0	0	0	0	482	417	
15	0	0	0	0	482	418	
0	0	0	0	0	482	418	
1	0	0	0	0	483	418	
2	0	0	0	0	483	418	
3	0	0	0	0	484	419	
4	0	0	0	0	484	418	
5	0	0	0	0	484	419	
6	0	0	0	0	484	419	
7	0	0	0	0	484	419	
8	0	0	0	0	485	418	
9	0	0	0	0	484	418	
10	0	0	0	0	485	418	
11	0	0	0	0	486	419	
12	0	0	0	0	486	418	
13	0	0	0	0	487	418	
14	0	0	0	0	488	418	
15	0	0	0	0	489	419	
0	0	0	0	0	490	419	
1	0	0	0	0	490	417	
2	0	0	0	0	492	418	
3	0	0	0	0	492	418	
4	0	0	0	0	492	418	
5	0	0	0	0	492	417	
6	0	0	0	0	491	418	
7	0	0	0	0	490	419	
8	0	0	0	0	489	418	
9	0	0	0	0	489	418	
10	0	0	0	0	489	418	
11	0	0	0	0	488	419	
12	0	0	0	0	488	418	
13	0	0	0	0	488	418	
14	0	0	0	0	488	418	
15	0	0	0	0	489	418	
0	0	0	0	0	489	418	
1	0	0	0	0	490	418	
2	0	0	0	0	492	418	
3	0	0	0	0	493	419	
