# OpenSignals Text File Format
# {"98:D3:C1:FD:2F:E5":{"sensor":["RAW","RAW"],"device name":"98:D3:C1:FD:2F:E5","column":["nSeq","I1","I2","O1","O2","A2","A5"],"sync interval":2,"time":"15:33:09","comments":"","device connection":"BTH98:D3:C1:FD:2F:E5","channels":[2,5],"date":"2021-09-26","mode":0,"digital IO":[0,0,1,1],"firmware version":0,"device":"bitalino_rev","position":0,"sampling rate":1000,"label":["A2","A5"],"resolution":[10,10],"special":[{},{}]}}
# EndOfHeader
0	0	0	0	0	518	616
1	0	0	0	0	519	616
2	0	0	0	0	521	616
3	0	0	0	0	524	615
4	0	0	0	0	526	616
5	0	0	0	0	529	616
6	0	0	0	0	533	616
7	0	0	0	0	536	616
8	0	0	0	0	539	616
9	0	0	0	0	541	616
10	0	0	0	0	541	616
11	0	0	0	0	540	615
12	0	0	0	0	540	617
13	0	0	0	0	537	615
14	0	0	0	0	533	616
15	0	0	0	0	529	616
0	0	0	0	0	524	616
1	0	0	0	0	521	616
2	0	0	0	0	519	616
3	0	0	0	0	518	616
4	0	0	0	0	518	616
5	0	0	0	0	519	616
6	0	0	0	0	521	616
7	0	0	0	0	524	616
8	0	0	0	0	527	616
9	0	0	0	0	530	616
10	0	0	0	0	533	616
11	0	0	0	0	536	616
12	0	0	0	0	539	616
13	0	0	0	0	541	616
14	0	0	0	0	541	616
15	0	0	0	0	542	615
0	0	0	0	0	541	615
1	0	0	0	0	537	616
2	0	0	0	0	534	616
3	0	0	0	0	531	616
4	0	0	0	0	527	616
5	0	0	0	0	526	616
6	0	0	0	0	524	616
7	0	0	0	0	523	616
8	0	0	0	0	523	616
9	0	0	0	0	523	616
10	0	0	0	0	525	616
11	0	0	0	0	526	616
12	0	0	0	0	529	616
13	0	0	0	0	531	616
14	0	0	0	0	534	616
15	0	0	0	0	536	617
0	0	0	0	0	538	616
1	0	0	0	0	540	616
2	0	0	0	0	540	616
3	0	0	0	0	538	617
4	0	0	0	0	536	617
5	0	0	0	0	533	616
6	0	0	0	0	529	616
7	0	0	0	0	525	615
8	0	0	0	0	522	616
9	0	0	0	0	519	616
10	0	0	0	0	518	616
11	0	0	0	0	517	616
12	0	0	0	0	517	616
13	0	0	0	0	519	616
14	0	0	0	0	520	616
15	0	0	0	0	522	616
0	0	0	0	0	525	616
1	0	0	0	0	528	616
2	0	0	0	0	531	616
3	0	0	0	0	534	617
4	0	0	0	0	536	617
5	0	0	0	0	537	616
6	0	0	0	0	537	616
7	0	0	0	0	536	616
8	0	0	0	0	535	616
9	0	0	0	0	531	616
10	0	0	0	0	526	616
11	0	0	0	0	523	616
12	0	0	0	0	519	616
13	0	0	0	0	516	616
14	0	0	0	0	514	616
15	0	0	0	0	514	616
0	0	0	0	0	514	616
1	0	0	0	0	515	616
2	0	0	0	0	516	616
3	0	0	0	0	519	616
4	0	0	0	0	521	616
5	0	0	0	0	524	616
6	0	0	0	0	527	615
7	0	0	0	0	529	616
8	0	0	0	0	531	617
9	0	0	0	0	533	616
10	0	0	0	0	533	615
11	0	0	0	0	532	616
12	0	0	0	0	531	617
13	0	0	0	0	528	616
14	0	0	0	0	524	616
15	0	0	0	0	521	616
0	0	0	0	0	518	616
1	0	0	0	0	516	616
2	0	0	0	0	515	616
3	0	0	0	0	514	616
4	0	0	0	0	514	616
5	0	0	0	0	515	616
6	0	0	0	0	516	616
7	0	0	0	0	519	616
8	0	0	0	0	522	616
9	0	0	0	0	524	616
10	0	0	0	0	527	616
11	0	0	0	0	531	616
12	0	0	0	0	533	617
13	0	0	0	0	535	616
14	0	0	0	0	535	617
15	0	0	0	0	534	616
0	0	0	0	0	533	617
1	0	0	0	0	530	615
2	0	0	0	0	527	617
3	0	0	0	0	524	617
4	0	0	0	0	520	617
5	0	0	0	0	518	617
6	0	0	0	0	516	616
7	0	0	0	0	515	616
8	0	0	0	0	515	615
9	0	0	0	0	516	615
10	0	0	0	0	517	615
11	0	0	0	0	519	615
12	0	0	0	0	522	614
13	0	0	0	0	526	614
14	0	0	0	0	529	615
15	0	0	0	0	532	616
0	0	0	0	0	535	617
1	0	0	0	0	536	618
2	0	0	0	0	536	617
3	0	0	0	0	535	617
4	0	0	0	0	533	617
5	0	0	0	0	530	616
6	0	0	0	0	527	616
7	0	0	0	0	523	616
8	0	0	0	0	519	615
9	0	0	0	0	516	615
10	0	0	0	0	514	615
11	0	0	0	0	513	615
12	0	0	0	0	513	616
13	0	0	0	0	514	615
14	0	0	0	0	516	615
15	0	0	0	0	519	615
0	0	0	0	0	521	615
1	0	0	0	0	524	615
2	0	0	0	0	527	615
3	0	0	0	0	530	615
4	0	0	0	0	533	616
5	0	0	0	0	534	616
6	0	0	0	0	534	617
7	0	0	0	0	533	617
8	0	0	0	0	531	617
9	0	0	0	0	528	617
10	0	0	0	0	525	616
11	0	0	0	0	521	616
12	0	0	0	0	518	616
13	0	0	0	0	516	616
14	0	0	0	0	513	615
15	0	0	0	0	513	615
0	0	0	0	0	513	615
1	0	0	0	0	515	615
2	0	0	0	0	516	616
3	0	0	0	0	518	615
4	0	0	0	0	521	616
5	0	0	0	0	524	616
6	0	0	0	0	527	616
7	0	0	0	0	530	617
8	0	0	0	0	532	617
9	0	0	0	0	535	616
10	0	0	0	0	534	617
11	0	0	0	0	533	617
12	0	0	0	0	531	617
13	0	0	0	0	528	617
14	0	0	0	0	525	616
15	0	0	0	0	521	616
0	0	0	0	0	518	616
1	0	0	0	0	515	615
2	0	0	0	0	513	615
3	0	0	0	0	512	615
4	0	0	0	0	513	616
5	0	0	0	0	514	616
6	0	0	0	0	515	615
7	0	0	0	0	518	615
8	0	0	0	0	520	616
9	0	0	0	0	524	616
10	0	0	0	0	526	616
11	0	0	0	0	529	616
12	0	0	0	0	531	616
13	0	0	0	0	533	616
14	0	0	0	0	532	615
15	0	0	0	0	532	615
0	0	0	0	0	531	616
1	0	0	0	0	527	616
2	0	0	0	0	524	615
3	0	0	0	0	520	616
4	0	0	0	0	517	616
5	0	0	0	0	514	616
6	0	0	0	0	512	615
7	0	0	0	0	512	616
8	0	0	0	0	512	616
9	0	0	0	0	513	615
10	0	0	0	0	515	616
11	0	0	0	0	516	616
12	0	0	0	0	519	617
13	0	0	0	0	522	615
14	0	0	0	0	525	616
15	0	0	0	0	528	616
0	0	0	0	0	530	616
1	0	0	0	0	532	616
2	0	0	0	0	532	616
3	0	0	0	0	531	616
4	0	0	0	0	529	616
5	0	0	0	0	526	616
6	0	0	0	0	523	615
7	0	0	0	0	519	616
8	0	0	0	0	515	615
9	0	0	0	0	513	615
10	0	0	0	0	511	616
11	0	0	0	0	509	616
12	0	0	0	0	509	617
13	0	0	0	0	510	616
14	0	0	0	0	511	617
15	0	0	0	0	512	616
0	0	0	0	0	515	616
1	0	0	0	0	518	616
2	0	0	0	0	521	617
3	0	0	0	0	523	616
4	0	0	0	0	526	617
5	0	0	0	0	527	616
6	0	0	0	0	527	616
7	0	0	0	0	526	616
8	0	0	0	0	524	616
9	0	0	0	0	521	616
10	0	0	0	0	517	616
11	0	0	0	0	512	616
12	0	0	0	0	508	617
13	0	0	0	0	505	616
14	0	0	0	0	503	616
15	0	0	0	0	502	616
0	0	0	0	0	502	616
1	0	0	0	0	503	615
2	0	0	0	0	504	616
3	0	0	0	0	506	616
4	0	0	0	0	510	616
5	0	0	0	0	512	616
6	0	0	0	0	515	616
7	0	0	0	0	518	616
8	0	0	0	0	520	617
9	0	0	0	0	523	616
10	0	0	0	0	522	616
11	0	0	0	0	521	615
12	0	0	0	0	520	616
13	0	0	0	0	518	615
14	0	0	0	0	514	615
15	0	0	0	0	510	616
0	0	0	0	0	506	616
1	0	0	0	0	504	617
2	0	0	0	0	502	616
3	0	0	0	0	502	616
4	0	0	0	0	503	617
5	0	0	0	0	503	616
6	0	0	0	0	506	615
7	0	0	0	0	509	616
8	0	0	0	0	513	616
9	0	0	0	0	516	617
10	0	0	0	0	520	616
11	0	0	0	0	524	616
12	0	0	0	0	527	616
13	0	0	0	0	529	616
14	0	0	0	0	529	616
15	0	0	0	0	528	616
0	0	0	0	0	527	616
1	0	0	0	0	523	616
2	0	0	0	0	519	616
3	0	0	0	0	515	616
4	0	0	0	0	512	617
5	0	0	0	0	510	617
6	0	0	0	0	508	616
7	0	0	0	0	508	616
8	0	0	0	0	508	616
9	0	0	0	0	508	616
10	0	0	0	0	509	616
11	0	0	0	0	512	616
12	0	0	0	0	515	617
13	0	0	0	0	518	616
14	0	0	0	0	521	616
15	0	0	0	0	524	616
0	0	0	0	0	526	616
1	0	0	0	0	527	616
2	0	0	0	0	527	616
3	0	0	0	0	526	616
4	0	0	0	0	524	616
5	0	0	0	0	521	616
6	0	0	0	0	518	615
7	0	0	0	0	514	616
8	0	0	0	0	511	616
9	0	0	0	0	509	616
10	0	0	0	0	506	616
11	0	0	0	0	505	616
12	0	0	0	0	505	616
13	0	0	0	0	507	615
14	0	0	0	0	508	615
15	0	0	0	0	510	616
0	0	0	0	0	513	616
1	0	0	0	0	516	616
2	0	0	0	0	519	615
3	0	0	0	0	521	615
4	0	0	0	0	523	616
5	0	0	0	0	524	616
6	0	0	0	0	525	616
7	0	0	0	0	524	616
8	0	0	0	0	522	616
9	0	0	0	0	519	616
10	0	0	0	0	516	616
11	0	0	0	0	512	616
12	0	0	0	0	508	617
13	0	0	0	0	505	616
14	0	0	0	0	504	616
15	0	0	0	0	503	616
0	0	0	0	0	504	617
1	0	0	0	0	505	616
2	0	0	0	0	506	616
3	0	0	0	0	509	616
4	0	0	0	0	511	617
5	0	0	0	0	514	616
6	0	0	0	0	517	616
7	0	0	0	0	521	616
8	0	0	0	0	523	616
9	0	0	0	0	525	616
10	0	0	0	0	525	615
11	0	0	0	0	524	615
12	0	0	0	0	523	616
13	0	0	0	0	519	616
14	0	0	0	0	516	616
15	0	0	0	0	511	616
0	0	0	0	0	508	616
1	0	0	0	0	505	616
2	0	0	0	0	504	616
3	0	0	0	0	503	616
4	0	0	0	0	503	616
5	0	0	0	0	504	616
6	0	0	0	0	505	616
7	0	0	0	0	507	616
8	0	0	0	0	510	616
9	0	0	0	0	512	616
10	0	0	0	0	515	616
11	0	0	0	0	517	616
12	0	0	0	0	519	617
13	0	0	0	0	520	616
14	0	0	0	0	519	616
15	0	0	0	0	518	616
0	0	0	0	0	514	616
1	0	0	0	0	508	616
2	0	0	0	0	499	616
3	0	0	0	0	489	616
4	0	0	0	0	477	616
5	0	0	0	0	464	616
6	0	0	0	0	451	616
7	0	0	0	0	438	615
8	0	0	0	0	427	616
9	0	0	0	0	416	616
10	0	0	0	0	407	616
11	0	0	0	0	400	615
12	0	0	0	0	395	616
13	0	0	0	0	392	616
14	0	0	0	0	392	615
15	0	0	0	0	394	615
0	0	0	0	0	398	616
1	0	0	0	0	404	616
2	0	0	0	0	410	616
3	0	0	0	0	417	615
4	0	0	0	0	426	617
5	0	0	0	0	432	616
6	0	0	0	0	438	616
7	0	0	0	0	441	616
8	0	0	0	0	444	616
9	0	0	0	0	448	616
10	0	0	0	0	455	616
11	0	0	0	0	469	616
12	0	0	0	0	490	617
13	0	0	0	0	515	616
14	0	0	0	0	545	616
15	0	0	0	0	583	616
0	0	0	0	0	629	616
1	0	0	0	0	682	615
2	0	0	0	0	739	616
3	0	0	0	0	796	616
4	0	0	0	0	849	616
5	0	0	0	0	895	616
6	0	0	0	0	933	616
7	0	0	0	0	964	616
8	0	0	0	0	988	616
9	0	0	0	0	1001	616
10	0	0	0	0	1006	616
11	0	0	0	0	1004	616
12	0	0	0	0	995	617
13	0	0	0	0	981	616
14	0	0	0	0	962	616
15	0	0	0	0	940	616
0	0	0	0	0	915	616
1	0	0	0	0	886	616
2	0	0	0	0	854	616
3	0	0	0	0	820	617
4	0	0	0	0	787	616
5	0	0	0	0	757	617
6	0	0	0	0	730	616
7	0	0	0	0	706	616
8	0	0	0	0	685	616
9	0	0	0	0	668	616
10	0	0	0	0	650	616
11	0	0	0	0	635	616
12	0	0	0	0	621	616
13	0	0	0	0	607	615
14	0	0	0	0	593	616
15	0	0	0	0	579	616
0	0	0	0	0	567	616
1	0	0	0	0	553	616
2	0	0	0	0	542	616
3	0	0	0	0	530	615
4	0	0	0	0	519	616
5	0	0	0	0	508	616
6	0	0	0	0	498	616
7	0	0	0	0	490	616
8	0	0	0	0	483	616
9	0	0	0	0	476	616
10	0	0	0	0	471	615
11	0	0	0	0	466	615
12	0	0	0	0	461	616
13	0	0	0	0	455	616
14	0	0	0	0	449	616
15	0	0	0	0	443	616
0	0	0	0	0	437	616
1	0	0	0	0	431	616
2	0	0	0	0	424	616
3	0	0	0	0	417	615
4	0	0	0	0	411	616
5	0	0	0	0	407	615
6	0	0	0	0	403	616
7	0	0	0	0	400	616
8	0	0	0	0	399	616
9	0	0	0	0	399	616
10	0	0	0	0	399	616
11	0	0	0	0	400	617
12	0	0	0	0	402	617
13	0	0	0	0	405	616
14	0	0	0	0	408	616
15	0	0	0	0	411	616
0	0	0	0	0	414	617
1	0	0	0	0	416	616
2	0	0	0	0	416	616
3	0	0	0	0	416	616
4	0	0	0	0	416	616
5	0	0	0	0	413	615
6	0	0	0	0	410	616
7	0	0	0	0	407	615
8	0	0	0	0	404	616
9	0	0	0	0	403	616
10	0	0	0	0	401	616
11	0	0	0	0	401	615
12	0	0	0	0	402	616
13	0	0	0	0	403	616
14	0	0	0	0	405	616
15	0	0	0	0	408	616
0	0	0	0	0	411	616
1	0	0	0	0	414	616
2	0	0	0	0	418	615
3	0	0	0	0	422	616
4	0	0	0	0	425	616
5	0	0	0	0	429	616
6	0	0	0	0	429	616
7	0	0	0	0	429	615
8	0	0	0	0	429	616
9	0	0	0	0	426	615
10	0	0	0	0	423	616
11	0	0	0	0	421	616
12	0	0	0	0	417	616
13	0	0	0	0	416	615
14	0	0	0	0	414	616
15	0	0	0	0	413	616
0	0	0	0	0	414	617
1	0	0	0	0	415	616
2	0	0	0	0	416	617
3	0	0	0	0	419	616
4	0	0	0	0	422	617
5	0	0	0	0	427	616
6	0	0	0	0	431	616
7	0	0	0	0	434	616
8	0	0	0	0	437	616
9	0	0	0	0	440	616
10	0	0	0	0	441	616
11	0	0	0	0	441	616
12	0	0	0	0	440	616
13	0	0	0	0	438	616
14	0	0	0	0	435	615
15	0	0	0	0	433	615
0	0	0	0	0	430	616
1	0	0	0	0	428	616
2	0	0	0	0	427	616
3	0	0	0	0	426	616
4	0	0	0	0	427	617
5	0	0	0	0	428	616
6	0	0	0	0	430	616
7	0	0	0	0	433	616
8	0	0	0	0	436	616
9	0	0	0	0	440	616
10	0	0	0	0	443	616
11	0	0	0	0	447	616
12	0	0	0	0	450	616
13	0	0	0	0	453	616
14	0	0	0	0	455	615
15	0	0	0	0	454	616
0	0	0	0	0	453	616
1	0	0	0	0	451	616
2	0	0	0	0	448	616
3	0	0	0	0	445	615
4	0	0	0	0	441	616
5	0	0	0	0	439	615
6	0	0	0	0	437	615
7	0	0	0	0	436	615
8	0	0	0	0	437	616
9	0	0	0	0	438	615
10	0	0	0	0	440	615
11	0	0	0	0	443	615
12	0	0	0	0	446	616
13	0	0	0	0	449	615
14	0	0	0	0	453	615
15	0	0	0	0	455	615
0	0	0	0	0	458	615
1	0	0	0	0	460	616
2	0	0	0	0	460	616
3	0	0	0	0	460	616
4	0	0	0	0	458	615
5	0	0	0	0	456	615
6	0	0	0	0	452	616
7	0	0	0	0	449	616
8	0	0	0	0	446	616
9	0	0	0	0	443	616
10	0	0	0	0	441	616
11	0	0	0	0	441	616
12	0	0	0	0	442	617
13	0	0	0	0	443	616
14	0	0	0	0	445	615
15	0	0	0	0	448	617
0	0	0	0	0	450	616
1	0	0	0	0	454	615
2	0	0	0	0	457	616
3	0	0	0	0	460	616
4	0	0	0	0	463	617
5	0	0	0	0	465	615
6	0	0	0	0	466	616
7	0	0	0	0	465	616
8	0	0	0	0	465	616
9	0	0	0	0	462	616
10	0	0	0	0	459	616
11	0	0	0	0	455	616
12	0	0	0	0	452	617
13	0	0	0	0	449	616
14	0	0	0	0	448	616
15	0	0	0	0	447	616
0	0	0	0	0	448	616
1	0	0	0	0	449	616
2	0	0	0	0	451	616
3	0	0	0	0	454	616
4	0	0	0	0	456	616
5	0	0	0	0	460	616
6	0	0	0	0	464	616
7	0	0	0	0	467	616
8	0	0	0	0	470	616
9	0	0	0	0	472	615
10	0	0	0	0	473	616
11	0	0	0	0	472	616
12	0	0	0	0	471	616
13	0	0	0	0	469	616
14	0	0	0	0	466	616
15	0	0	0	0	463	616
0	0	0	0	0	460	616
1	0	0	0	0	458	616
2	0	0	0	0	456	616
3	0	0	0	0	456	616
4	0	0	0	0	457	616
5	0	0	0	0	459	616
6	0	0	0	0	462	616
7	0	0	0	0	465	616
8	0	0	0	0	469	616
9	0	0	0	0	472	616
10	0	0	0	0	476	616
11	0	0	0	0	480	616
12	0	0	0	0	484	617
13	0	0	0	0	487	616
14	0	0	0	0	488	616
15	0	0	0	0	488	616
0	0	0	0	0	488	616
1	0	0	0	0	487	616
2	0	0	0	0	485	616
3	0	0	0	0	483	615
4	0	0	0	0	480	616
5	0	0	0	0	478	615
6	0	0	0	0	476	616
7	0	0	0	0	476	616
8	0	0	0	0	477	616
9	0	0	0	0	479	617
10	0	0	0	0	481	616
11	0	0	0	0	484	616
12	0	0	0	0	488	617
13	0	0	0	0	492	616
14	0	0	0	0	496	616
15	0	0	0	0	501	616
0	0	0	0	0	505	616
1	0	0	0	0	508	615
2	0	0	0	0	509	616
3	0	0	0	0	509	615
4	0	0	0	0	509	616
5	0	0	0	0	508	616
6	0	0	0	0	505	615
7	0	0	0	0	503	616
8	0	0	0	0	501	616
9	0	0	0	0	499	616
10	0	0	0	0	498	616
11	0	0	0	0	498	616
12	0	0	0	0	499	616
13	0	0	0	0	500	616
14	0	0	0	0	503	617
15	0	0	0	0	507	616
0	0	0	0	0	510	616
1	0	0	0	0	514	616
2	0	0	0	0	518	616
3	0	0	0	0	521	616
4	0	0	0	0	525	617
5	0	0	0	0	527	616
6	0	0	0	0	528	616
7	0	0	0	0	528	616
8	0	0	0	0	528	616
9	0	0	0	0	526	616
10	0	0	0	0	524	616
11	0	0	0	0	521	616
12	0	0	0	0	518	616
13	0	0	0	0	516	616
14	0	0	0	0	514	615
15	0	0	0	0	513	615
0	0	0	0	0	513	616
1	0	0	0	0	514	616
2	0	0	0	0	515	616
3	0	0	0	0	518	616
4	0	0	0	0	521	617
5	0	0	0	0	524	616
6	0	0	0	0	528	616
7	0	0	0	0	531	615
8	0	0	0	0	535	616
9	0	0	0	0	536	616
10	0	0	0	0	536	615
11	0	0	0	0	536	616
12	0	0	0	0	534	616
13	0	0	0	0	532	616
14	0	0	0	0	529	616
15	0	0	0	0	525	616
0	0	0	0	0	522	616
1	0	0	0	0	519	615
2	0	0	0	0	517	616
3	0	0	0	0	516	615
4	0	0	0	0	516	617
5	0	0	0	0	517	616
6	0	0	0	0	518	616
7	0	0	0	0	520	616
8	0	0	0	0	524	616
9	0	0	0	0	527	616
10	0	0	0	0	530	616
11	0	0	0	0	532	616
12	0	0	0	0	535	617
13	0	0	0	0	536	616
14	0	0	0	0	537	616
15	0	0	0	0	536	615
0	0	0	0	0	536	616
1	0	0	0	0	533	616
2	0	0	0	0	530	616
3	0	0	0	0	526	616
4	0	0	0	0	523	617
5	0	0	0	0	519	616
6	0	0	0	0	518	616
7	0	0	0	0	516	616
8	0	0	0	0	517	616
9	0	0	0	0	518	616
10	0	0	0	0	519	616
11	0	0	0	0	522	616
12	0	0	0	0	525	616
13	0	0	0	0	528	616
14	0	0	0	0	531	616
15	0	0	0	0	534	617
0	0	0	0	0	536	615
1	0	0	0	0	539	616
2	0	0	0	0	539	617
3	0	0	0	0	538	616
4	0	0	0	0	537	617
5	0	0	0	0	534	616
6	0	0	0	0	529	616
7	0	0	0	0	526	616
8	0	0	0	0	522	616
9	0	0	0	0	519	616
10	0	0	0	0	517	616
11	0	0	0	0	516	616
12	0	0	0	0	516	617
13	0	0	0	0	515	616
14	0	0	0	0	516	616
15	0	0	0	0	518	616
0	0	0	0	0	521	617
1	0	0	0	0	524	616
2	0	0	0	0	527	616
3	0	0	0	0	530	616
4	0	0	0	0	533	616
5	0	0	0	0	535	616
6	0	0	0	0	535	616
7	0	0	0	0	534	615
8	0	0	0	0	532	616
9	0	0	0	0	529	616
10	0	0	0	0	526	616
11	0	0	0	0	522	616
12	0	0	0	0	519	616
13	0	0	0	0	516	616
14	0	0	0	0	514	616
15	0	0	0	0	512	616
0	0	0	0	0	512	616
1	0	0	0	0	513	616
2	0	0	0	0	514	616
3	0	0	0	0	516	617
4	0	0	0	0	519	617
5	0	0	0	0	522	615
6	0	0	0	0	525	616
7	0	0	0	0	529	615
8	0	0	0	0	531	616
9	0	0	0	0	533	616
10	0	0	0	0	534	615
11	0	0	0	0	532	616
12	0	0	0	0	531	616
13	0	0	0	0	527	616
14	0	0	0	0	524	615
15	0	0	0	0	520	616
0	0	0	0	0	516	616
1	0	0	0	0	515	616
2	0	0	0	0	513	616
3	0	0	0	0	512	616
4	0	0	0	0	511	616
5	0	0	0	0	512	616
6	0	0	0	0	513	616
7	0	0	0	0	515	616
8	0	0	0	0	518	616
9	0	0	0	0	521	616
10	0	0	0	0	524	616
11	0	0	0	0	527	616
12	0	0	0	0	530	617
13	0	0	0	0	532	616
14	0	0	0	0	532	616
15	0	0	0	0	531	616
0	0	0	0	0	530	616
1	0	0	0	0	527	616
2	0	0	0	0	524	617
3	0	0	0	0	519	616
4	0	0	0	0	516	616
5	0	0	0	0	513	616
6	0	0	0	0	512	616
7	0	0	0	0	511	616
8	0	0	0	0	511	616
9	0	0	0	0	511	616
10	0	0	0	0	512	616
11	0	0	0	0	515	615
12	0	0	0	0	518	617
13	0	0	0	0	521	616
14	0	0	0	0	524	616
15	0	0	0	0	527	616
0	0	0	0	0	529	616
1	0	0	0	0	530	616
2	0	0	0	0	531	616
3	0	0	0	0	529	616
4	0	0	0	0	527	617
5	0	0	0	0	524	616
6	0	0	0	0	521	616
7	0	0	0	0	517	615
8	0	0	0	0	513	615
9	0	0	0	0	511	615
10	0	0	0	0	508	615
11	0	0	0	0	508	616
12	0	0	0	0	508	617
13	0	0	0	0	509	615
14	0	0	0	0	510	616
15	0	0	0	0	512	615
0	0	0	0	0	515	616
1	0	0	0	0	518	616
2	0	0	0	0	520	616
3	0	0	0	0	524	615
4	0	0	0	0	526	616
5	0	0	0	0	528	615
6	0	0	0	0	528	615
7	0	0	0	0	527	615
8	0	0	0	0	526	616
9	0	0	0	0	524	616
10	0	0	0	0	520	616
11	0	0	0	0	518	616
12	0	0	0	0	514	616
13	0	0	0	0	512	616
14	0	0	0	0	511	616
15	0	0	0	0	510	616
0	0	0	0	0	510	615
1	0	0	0	0	511	616
2	0	0	0	0	512	616
3	0	0	0	0	514	616
4	0	0	0	0	517	616
5	0	0	0	0	520	616
6	0	0	0	0	522	615
7	0	0	0	0	525	616
8	0	0	0	0	527	616
9	0	0	0	0	529	615
10	0	0	0	0	529	615
11	0	0	0	0	529	615
12	0	0	0	0	528	616
13	0	0	0	0	526	615
14	0	0	0	0	523	616
15	0	0	0	0	519	616
0	0	0	0	0	516	616
1	0	0	0	0	513	616
2	0	0	0	0	512	616
3	0	0	0	0	510	616
4	0	0	0	0	510	617
5	0	0	0	0	511	616
6	0	0	0	0	512	616
7	0	0	0	0	515	616
8	0	0	0	0	518	616
9	0	0	0	0	521	616
10	0	0	0	0	524	616
11	0	0	0	0	527	616
12	0	0	0	0	529	616
13	0	0	0	0	531	616
14	0	0	0	0	531	617
15	0	0	0	0	530	616
0	0	0	0	0	528	617
1	0	0	0	0	526	616
2	0	0	0	0	522	617
3	0	0	0	0	518	616
4	0	0	0	0	513	617
5	0	0	0	0	510	616
6	0	0	0	0	508	616
7	0	0	0	0	505	616
8	0	0	0	0	504	616
9	0	0	0	0	505	616
10	0	0	0	0	507	616
11	0	0	0	0	509	616
12	0	0	0	0	512	617
13	0	0	0	0	514	616
14	0	0	0	0	517	615
15	0	0	0	0	520	616
0	0	0	0	0	523	616
1	0	0	0	0	525	616
2	0	0	0	0	526	616
3	0	0	0	0	525	616
4	0	0	0	0	524	616
5	0	0	0	0	522	615
6	0	0	0	0	519	616
7	0	0	0	0	515	616
8	0	0	0	0	511	616
9	0	0	0	0	508	616
10	0	0	0	0	507	616
11	0	0	0	0	505	616
12	0	0	0	0	505	616
13	0	0	0	0	506	615
14	0	0	0	0	508	616
15	0	0	0	0	510	616
0	0	0	0	0	512	616
1	0	0	0	0	516	617
2	0	0	0	0	520	617
3	0	0	0	0	523	616
4	0	0	0	0	526	617
5	0	0	0	0	528	616
6	0	0	0	0	528	616
7	0	0	0	0	528	616
8	0	0	0	0	527	616
9	0	0	0	0	524	616
10	0	0	0	0	519	615
11	0	0	0	0	516	616
12	0	0	0	0	513	617
13	0	0	0	0	511	616
14	0	0	0	0	509	616
15	0	0	0	0	508	616
0	0	0	0	0	509	616
1	0	0	0	0	510	616
2	0	0	0	0	512	616
3	0	0	0	0	513	616
4	0	0	0	0	516	617
5	0	0	0	0	518	616
6	0	0	0	0	520	616
7	0	0	0	0	523	616
8	0	0	0	0	525	616
9	0	0	0	0	527	616
10	0	0	0	0	527	616
11	0	0	0	0	526	616
12	0	0	0	0	524	617
13	0	0	0	0	522	616
14	0	0	0	0	518	616
15	0	0	0	0	513	615
0	0	0	0	0	509	616
1	0	0	0	0	506	616
2	0	0	0	0	504	616
3	0	0	0	0	503	616
4	0	0	0	0	502	616
5	0	0	0	0	503	616
6	0	0	0	0	504	616
7	0	0	0	0	505	615
8	0	0	0	0	508	616
9	0	0	0	0	510	616
10	0	0	0	0	513	616
11	0	0	0	0	516	616
12	0	0	0	0	518	616
13	0	0	0	0	519	616
14	0	0	0	0	520	616
15	0	0	0	0	520	616
0	0	0	0	0	519	616
1	0	0	0	0	516	616
2	0	0	0	0	512	616
3	0	0	0	0	508	616
4	0	0	0	0	505	617
5	0	0	0	0	502	617
6	0	0	0	0	500	616
7	0	0	0	0	499	616
8	0	0	0	0	499	616
9	0	0	0	0	500	616
10	0	0	0	0	502	615
11	0	0	0	0	505	615
12	0	0	0	0	508	616
13	0	0	0	0	512	616
14	0	0	0	0	515	616
15	0	0	0	0	519	616
0	0	0	0	0	522	616
1	0	0	0	0	525	616
2	0	0	0	0	526	616
3	0	0	0	0	525	615
4	0	0	0	0	526	616
5	0	0	0	0	524	616
6	0	0	0	0	521	617
7	0	0	0	0	518	616
8	0	0	0	0	514	616
9	0	0	0	0	511	616
10	0	0	0	0	509	616
11	0	0	0	0	508	616
12	0	0	0	0	508	616
13	0	0	0	0	508	616
14	0	0	0	0	510	616
15	0	0	0	0	512	616
0	0	0	0	0	514	616
1	0	0	0	0	517	616
2	0	0	0	0	520	616
3	0	0	0	0	523	616
4	0	0	0	0	526	617
5	0	0	0	0	528	616
6	0	0	0	0	528	616
7	0	0	0	0	528	616
8	0	0	0	0	527	617
9	0	0	0	0	523	616
10	0	0	0	0	519	616
11	0	0	0	0	515	616
12	0	0	0	0	511	616
13	0	0	0	0	508	616
14	0	0	0	0	506	616
15	0	0	0	0	504	615
0	0	0	0	0	505	615
1	0	0	0	0	506	616
2	0	0	0	0	508	616
3	0	0	0	0	510	615
4	0	0	0	0	512	616
5	0	0	0	0	515	616
6	0	0	0	0	519	616
7	0	0	0	0	522	616
8	0	0	0	0	524	616
9	0	0	0	0	526	616
10	0	0	0	0	526	615
11	0	0	0	0	526	616
12	0	0	0	0	525	617
13	0	0	0	0	522	616
14	0	0	0	0	519	616
15	0	0	0	0	515	615
0	0	0	0	0	512	616
1	0	0	0	0	510	616
2	0	0	0	0	507	616
3	0	0	0	0	505	616
4	0	0	0	0	505	616
5	0	0	0	0	506	616
6	0	0	0	0	508	616
7	0	0	0	0	510	616
8	0	0	0	0	512	615
9	0	0	0	0	514	616
10	0	0	0	0	517	615
11	0	0	0	0	519	616
12	0	0	0	0	523	616
13	0	0	0	0	524	616
14	0	0	0	0	524	616
15	0	0	0	0	524	615
0	0	0	0	0	523	616
1	0	0	0	0	519	615
2	0	0	0	0	515	615
3	0	0	0	0	512	616
4	0	0	0	0	508	616
5	0	0	0	0	506	616
6	0	0	0	0	504	616
7	0	0	0	0	502	616
8	0	0	0	0	501	615
9	0	0	0	0	502	615
10	0	0	0	0	503	616
11	0	0	0	0	505	615
12	0	0	0	0	508	616
13	0	0	0	0	511	616
14	0	0	0	0	514	615
15	0	0	0	0	517	616
0	0	0	0	0	519	616
1	0	0	0	0	521	615
2	0	0	0	0	521	616
3	0	0	0	0	520	616
4	0	0	0	0	519	616
5	0	0	0	0	516	616
6	0	0	0	0	512	616
7	0	0	0	0	508	616
8	0	0	0	0	504	616
9	0	0	0	0	501	616
10	0	0	0	0	498	616
11	0	0	0	0	495	617
12	0	0	0	0	493	617
13	0	0	0	0	489	616
14	0	0	0	0	484	616
15	0	0	0	0	479	616
0	0	0	0	0	472	616
1	0	0	0	0	464	615
2	0	0	0	0	455	615
3	0	0	0	0	447	615
4	0	0	0	0	438	616
5	0	0	0	0	430	616
6	0	0	0	0	420	616
7	0	0	0	0	411	616
8	0	0	0	0	403	616
9	0	0	0	0	397	616
10	0	0	0	0	392	616
11	0	0	0	0	389	616
12	0	0	0	0	388	616
13	0	0	0	0	391	616
14	0	0	0	0	396	616
15	0	0	0	0	404	616
0	0	0	0	0	413	615
1	0	0	0	0	422	616
2	0	0	0	0	431	616
3	0	0	0	0	440	615
4	0	0	0	0	450	616
5	0	0	0	0	463	615
6	0	0	0	0	481	616
7	0	0	0	0	506	615
8	0	0	0	0	534	616
9	0	0	0	0	566	615
10	0	0	0	0	603	616
11	0	0	0	0	648	616
12	0	0	0	0	698	617
13	0	0	0	0	750	617
14	0	0	0	0	802	616
15	0	0	0	0	849	616
0	0	0	0	0	891	617
1	0	0	0	0	928	617
2	0	0	0	0	959	616
3	0	0	0	0	983	616
4	0	0	0	0	1000	617
5	0	0	0	0	1009	616
6	0	0	0	0	1013	616
7	0	0	0	0	1013	615
8	0	0	0	0	1007	616
9	0	0	0	0	994	615
10	0	0	0	0	977	615
11	0	0	0	0	956	615
12	0	0	0	0	931	616
13	0	0	0	0	901	615
14	0	0	0	0	866	616
15	0	0	0	0	827	616
0	0	0	0	0	790	617
1	0	0	0	0	755	617
2	0	0	0	0	723	617
3	0	0	0	0	695	617
4	0	0	0	0	669	616
5	0	0	0	0	646	616
6	0	0	0	0	627	615
7	0	0	0	0	612	616
8	0	0	0	0	600	616
9	0	0	0	0	589	616
10	0	0	0	0	578	616
11	0	0	0	0	569	616
12	0	0	0	0	560	616
13	0	0	0	0	552	616
14	0	0	0	0	543	616
15	0	0	0	0	535	616
0	0	0	0	0	525	615
1	0	0	0	0	515	615
2	0	0	0	0	503	615
3	0	0	0	0	491	616
4	0	0	0	0	480	616
5	0	0	0	0	468	617
6	0	0	0	0	456	616
7	0	0	0	0	446	616
8	0	0	0	0	434	616
9	0	0	0	0	425	616
10	0	0	0	0	417	616
11	0	0	0	0	412	616
12	0	0	0	0	407	616
13	0	0	0	0	404	616
14	0	0	0	0	403	616
15	0	0	0	0	403	615
0	0	0	0	0	403	616
1	0	0	0	0	404	616
2	0	0	0	0	405	616
3	0	0	0	0	407	616
4	0	0	0	0	408	617
5	0	0	0	0	409	617
6	0	0	0	0	409	618
7	0	0	0	0	408	617
8	0	0	0	0	405	617
9	0	0	0	0	403	616
10	0	0	0	0	399	616
11	0	0	0	0	396	615
12	0	0	0	0	392	616
13	0	0	0	0	390	615
14	0	0	0	0	388	615
15	0	0	0	0	387	615
0	0	0	0	0	387	615
1	0	0	0	0	388	615
2	0	0	0	0	390	616
3	0	0	0	0	392	616
4	0	0	0	0	396	617
5	0	0	0	0	400	615
6	0	0	0	0	404	615
7	0	0	0	0	408	615
8	0	0	0	0	412	615
9	0	0	0	0	415	615
10	0	0	0	0	416	614
11	0	0	0	0	416	615
12	0	0	0	0	416	616
13	0	0	0	0	414	616
14	0	0	0	0	411	617
15	0	0	0	0	408	617
0	0	0	0	0	405	617
1	0	0	0	0	403	616
2	0	0	0	0	402	615
3	0	0	0	0	402	616
4	0	0	0	0	403	616
5	0	0	0	0	404	616
6	0	0	0	0	407	617
7	0	0	0	0	409	617
8	0	0	0	0	413	617
9	0	0	0	0	417	616
10	0	0	0	0	421	616
11	0	0	0	0	425	615
12	0	0	0	0	429	616
13	0	0	0	0	431	615
14	0	0	0	0	432	614
15	0	0	0	0	432	615
0	0	0	0	0	432	615
1	0	0	0	0	430	615
2	0	0	0	0	428	615
3	0	0	0	0	424	615
4	0	0	0	0	422	617
5	0	0	0	0	419	615
6	0	0	0	0	417	615
7	0	0	0	0	416	616
8	0	0	0	0	417	616
9	0	0	0	0	419	616
10	0	0	0	0	421	617
11	0	0	0	0	423	617
12	0	0	0	0	427	617
13	0	0	0	0	430	616
14	0	0	0	0	433	617
15	0	0	0	0	437	617
0	0	0	0	0	441	616
1	0	0	0	0	444	615
2	0	0	0	0	446	616
3	0	0	0	0	445	616
4	0	0	0	0	444	616
5	0	0	0	0	442	616
6	0	0	0	0	439	616
7	0	0	0	0	436	616
8	0	0	0	0	433	617
9	0	0	0	0	431	616
10	0	0	0	0	429	617
11	0	0	0	0	428	617
12	0	0	0	0	428	617
13	0	0	0	0	428	615
14	0	0	0	0	430	616
15	0	0	0	0	433	616
0	0	0	0	0	436	616
1	0	0	0	0	440	615
2	0	0	0	0	444	616
3	0	0	0	0	447	615
4	0	0	0	0	451	616
5	0	0	0	0	452	615
6	0	0	0	0	453	616
7	0	0	0	0	452	615
8	0	0	0	0	451	615
9	0	0	0	0	449	616
10	0	0	0	0	446	616
11	0	0	0	0	443	616
12	0	0	0	0	440	617
13	0	0	0	0	437	616
14	0	0	0	0	435	617
15	0	0	0	0	434	617
0	0	0	0	0	434	616
1	0	0	0	0	435	616
2	0	0	0	0	437	616
3	0	0	0	0	440	615
4	0	0	0	0	443	616
5	0	0	0	0	446	615
6	0	0	0	0	449	616
7	0	0	0	0	452	616
8	0	0	0	0	455	616
9	0	0	0	0	459	616
10	0	0	0	0	459	616
11	0	0	0	0	458	615
12	0	0	0	0	457	616
13	0	0	0	0	454	616
14	0	0	0	0	451	616
15	0	0	0	0	448	616
0	0	0	0	0	444	615
1	0	0	0	0	442	616
2	0	0	0	0	440	616
3	0	0	0	0	440	615
4	0	0	0	0	440	617
5	0	0	0	0	440	616
6	0	0	0	0	442	616
7	0	0	0	0	444	616
8	0	0	0	0	448	616
9	0	0	0	0	451	616
10	0	0	0	0	453	616
11	0	0	0	0	456	615
12	0	0	0	0	459	617
13	0	0	0	0	462	616
14	0	0	0	0	462	616
15	0	0	0	0	461	616
0	0	0	0	0	461	616
1	0	0	0	0	459	616
2	0	0	0	0	456	616
3	0	0	0	0	453	616
4	0	0	0	0	449	617
5	0	0	0	0	447	616
6	0	0	0	0	445	616
7	0	0	0	0	444	616
8	0	0	0	0	445	616
9	0	0	0	0	447	616
10	0	0	0	0	449	616
11	0	0	0	0	451	616
12	0	0	0	0	455	616
13	0	0	0	0	459	616
14	0	0	0	0	463	616
15	0	0	0	0	467	616
0	0	0	0	0	471	616
1	0	0	0	0	474	616
2	0	0	0	0	476	615
3	0	0	0	0	476	615
4	0	0	0	0	475	616
5	0	0	0	0	473	616
6	0	0	0	0	471	616
7	0	0	0	0	468	616
8	0	0	0	0	466	616
9	0	0	0	0	464	616
10	0	0	0	0	463	616
11	0	0	0	0	463	615
12	0	0	0	0	464	616
13	0	0	0	0	466	616
14	0	0	0	0	468	616
15	0	0	0	0	472	616
0	0	0	0	0	476	616
1	0	0	0	0	480	616
2	0	0	0	0	484	615
3	0	0	0	0	488	616
4	0	0	0	0	492	616
5	0	0	0	0	495	615
6	0	0	0	0	497	615
7	0	0	0	0	497	615
8	0	0	0	0	497	616
9	0	0	0	0	496	615
10	0	0	0	0	493	616
11	0	0	0	0	492	615
12	0	0	0	0	489	617
13	0	0	0	0	488	616
14	0	0	0	0	487	617
15	0	0	0	0	488	616
0	0	0	0	0	488	616
1	0	0	0	0	491	616
2	0	0	0	0	494	616
3	0	0	0	0	497	616
4	0	0	0	0	501	617
5	0	0	0	0	505	616
6	0	0	0	0	510	616
7	0	0	0	0	514	617
8	0	0	0	0	518	617
9	0	0	0	0	521	616
10	0	0	0	0	523	616
11	0	0	0	0	523	616
12	0	0	0	0	522	617
13	0	0	0	0	521	616
14	0	0	0	0	519	616
15	0	0	0	0	516	616
0	0	0	0	0	513	616
1	0	0	0	0	512	615
2	0	0	0	0	511	616
3	0	0	0	0	510	616
4	0	0	0	0	511	616
5	0	0	0	0	512	616
6	0	0	0	0	514	616
7	0	0	0	0	517	616
8	0	0	0	0	520	616
9	0	0	0	0	524	616
10	0	0	0	0	527	616
11	0	0	0	0	531	616
12	0	0	0	0	534	617
13	0	0	0	0	536	615
14	0	0	0	0	536	615
15	0	0	0	0	536	615
0	0	0	0	0	535	616
1	0	0	0	0	532	616
2	0	0	0	0	529	616
3	0	0	0	0	526	616
4	0	0	0	0	523	616
5	0	0	0	0	521	615
6	0	0	0	0	519	615
7	0	0	0	0	519	615
8	0	0	0	0	519	616
9	0	0	0	0	520	616
10	0	0	0	0	522	616
11	0	0	0	0	524	615
12	0	0	0	0	527	616
13	0	0	0	0	531	616
14	0	0	0	0	534	616
15	0	0	0	0	537	615
0	0	0	0	0	540	615
1	0	0	0	0	543	615
2	0	0	0	0	543	616
3	0	0	0	0	544	616
4	0	0	0	0	543	616
5	0	0	0	0	540	616
6	0	0	0	0	536	616
7	0	0	0	0	533	616
8	0	0	0	0	530	617
9	0	0	0	0	527	617
10	0	0	0	0	526	617
11	0	0	0	0	524	617
12	0	0	0	0	524	617
13	0	0	0	0	525	616
14	0	0	0	0	526	616
15	0	0	0	0	528	616
0	0	0	0	0	531	616
1	0	0	0	0	534	617
2	0	0	0	0	537	617
3	0	0	0	0	539	617
4	0	0	0	0	542	617
5	0	0	0	0	544	617
6	0	0	0	0	545	617
7	0	0	0	0	544	616
8	0	0	0	0	543	617
9	0	0	0	0	540	616
10	0	0	0	0	537	616
11	0	0	0	0	534	616
12	0	0	0	0	530	617
13	0	0	0	0	527	616
14	0	0	0	0	525	616
15	0	0	0	0	524	616
0	0	0	0	0	523	616
1	0	0	0	0	524	616
2	0	0	0	0	525	615
3	0	0	0	0	527	615
4	0	0	0	0	530	616
5	0	0	0	0	532	616
6	0	0	0	0	535	616
7	0	0	0	0	537	615
8	0	0	0	0	540	616
9	0	0	0	0	542	616
10	0	0	0	0	542	615
11	0	0	0	0	541	616
12	0	0	0	0	539	616
13	0	0	0	0	536	615
14	0	0	0	0	532	616
15	0	0	0	0	528	615
0	0	0	0	0	524	616
1	0	0	0	0	520	615
2	0	0	0	0	518	615
3	0	0	0	0	517	616
4	0	0	0	0	517	617
5	0	0	0	0	517	616
6	0	0	0	0	518	616
7	0	0	0	0	520	616
8	0	0	0	0	523	616
9	0	0	0	0	526	616
10	0	0	0	0	530	616
11	0	0	0	0	533	615
12	0	0	0	0	535	616
13	0	0	0	0	537	616
14	0	0	0	0	537	616
15	0	0	0	0	536	616
0	0	0	0	0	534	617
1	0	0	0	0	531	616
2	0	0	0	0	527	616
3	0	0	0	0	524	616
4	0	0	0	0	519	617
5	0	0	0	0	516	616
6	0	0	0	0	513	616
7	0	0	0	0	512	616
8	0	0	0	0	512	616
9	0	0	0	0	512	616
10	0	0	0	0	513	616
11	0	0	0	0	515	616
12	0	0	0	0	518	616
13	0	0	0	0	520	616
14	0	0	0	0	524	616
15	0	0	0	0	527	616
0	0	0	0	0	530	616
1	0	0	0	0	532	616
2	0	0	0	0	532	616
3	0	0	0	0	531	616
4	0	0	0	0	531	616
5	0	0	0	0	528	616
6	0	0	0	0	525	616
7	0	0	0	0	521	616
8	0	0	0	0	517	617
9	0	0	0	0	515	616
10	0	0	0	0	513	616
11	0	0	0	0	511	616
12	0	0	0	0	511	616
13	0	0	0	0	511	615
14	0	0	0	0	512	616
15	0	0	0	0	515	615
0	0	0	0	0	518	616
1	0	0	0	0	521	616
2	0	0	0	0	524	616
3	0	0	0	0	527	615
4	0	0	0	0	529	616
5	0	0	0	0	531	616
6	0	0	0	0	532	616
7	0	0	0	0	531	615
8	0	0	0	0	530	616
9	0	0	0	0	527	616
10	0	0	0	0	524	616
11	0	0	0	0	520	616
12	0	0	0	0	516	616
13	0	0	0	0	514	616
14	0	0	0	0	512	617
15	0	0	0	0	510	616
0	0	0	0	0	511	616
1	0	0	0	0	512	616
2	0	0	0	0	512	615
3	0	0	0	0	515	615
4	0	0	0	0	518	617
5	0	0	0	0	521	616
6	0	0	0	0	524	617
7	0	0	0	0	527	616
8	0	0	0	0	529	617
9	0	0	0	0	532	617
10	0	0	0	0	533	617
11	0	0	0	0	532	616
12	0	0	0	0	531	617
13	0	0	0	0	529	616
14	0	0	0	0	527	615
15	0	0	0	0	523	616
0	0	0	0	0	519	616
1	0	0	0	0	516	617
2	0	0	0	0	513	616
3	0	0	0	0	512	615
4	0	0	0	0	511	615
5	0	0	0	0	511	615
6	0	0	0	0	512	615
7	0	0	0	0	515	614
8	0	0	0	0	518	614
9	0	0	0	0	521	615
10	0	0	0	0	524	615
11	0	0	0	0	527	616
12	0	0	0	0	529	617
13	0	0	0	0	531	617
14	0	0	0	0	532	617
15	0	0	0	0	531	617
0	0	0	0	0	530	617
1	0	0	0	0	528	617
2	0	0	0	0	525	617
3	0	0	0	0	522	616
4	0	0	0	0	519	617
5	0	0	0	0	516	616
6	0	0	0	0	514	616
7	0	0	0	0	512	615
8	0	0	0	0	513	616
9	0	0	0	0	513	616
10	0	0	0	0	514	616
11	0	0	0	0	516	615
12	0	0	0	0	519	615
13	0	0	0	0	522	615
14	0	0	0	0	525	615
15	0	0	0	0	528	614
0	0	0	0	0	531	616
1	0	0	0	0	532	616
2	0	0	0	0	532	617
3	0	0	0	0	531	617
4	0	0	0	0	529	617
5	0	0	0	0	527	617
6	0	0	0	0	524	617
7	0	0	0	0	521	616
8	0	0	0	0	518	616
9	0	0	0	0	515	615
10	0	0	0	0	514	615
11	0	0	0	0	512	615
12	0	0	0	0	512	616
13	0	0	0	0	513	616
14	0	0	0	0	514	616
15	0	0	0	0	516	617
0	0	0	0	0	519	617
1	0	0	0	0	522	617
2	0	0	0	0	526	616
3	0	0	0	0	529	616
4	0	0	0	0	531	616
5	0	0	0	0	532	616
6	0	0	0	0	532	616
7	0	0	0	0	531	617
8	0	0	0	0	530	617
9	0	0	0	0	527	616
10	0	0	0	0	524	617
11	0	0	0	0	520	617
12	0	0	0	0	517	616
13	0	0	0	0	515	615
14	0	0	0	0	513	615
15	0	0	0	0	512	615
0	0	0	0	0	511	615
1	0	0	0	0	512	615
2	0	0	0	0	513	615
3	0	0	0	0	515	615
4	0	0	0	0	518	617
5	0	0	0	0	521	616
6	0	0	0	0	524	616
7	0	0	0	0	526	616
8	0	0	0	0	529	616
9	0	0	0	0	531	615
10	0	0	0	0	531	616
11	0	0	0	0	531	616
12	0	0	0	0	530	617
13	0	0	0	0	527	616
14	0	0	0	0	523	616
15	0	0	0	0	519	617
0	0	0	0	0	515	617
1	0	0	0	0	512	616
2	0	0	0	0	511	616
3	0	0	0	0	510	616
4	0	0	0	0	509	616
5	0	0	0	0	510	615
6	0	0	0	0	511	615
7	0	0	0	0	513	615
8	0	0	0	0	516	616
9	0	0	0	0	519	616
10	0	0	0	0	522	616
11	0	0	0	0	525	616
12	0	0	0	0	528	616
13	0	0	0	0	530	616
14	0	0	0	0	530	615
15	0	0	0	0	529	615
0	0	0	0	0	529	616
1	0	0	0	0	527	616
2	0	0	0	0	523	616
3	0	0	0	0	519	616
4	0	0	0	0	515	616
5	0	0	0	0	513	616
6	0	0	0	0	512	616
7	0	0	0	0	510	616
8	0	0	0	0	510	616
9	0	0	0	0	510	616
10	0	0	0	0	512	615
11	0	0	0	0	514	615
12	0	0	0	0	516	617
13	0	0	0	0	519	616
14	0	0	0	0	521	616
15	0	0	0	0	524	617
0	0	0	0	0	526	616
1	0	0	0	0	527	617
2	0	0	0	0	527	615
3	0	0	0	0	526	616
4	0	0	0	0	524	616
5	0	0	0	0	521	616
6	0	0	0	0	518	615
7	0	0	0	0	514	615
8	0	0	0	0	510	616
9	0	0	0	0	507	616
10	0	0	0	0	504	615
11	0	0	0	0	504	615
12	0	0	0	0	504	616
13	0	0	0	0	505	615
14	0	0	0	0	505	616
15	0	0	0	0	507	615
0	0	0	0	0	509	616
1	0	0	0	0	511	616
2	0	0	0	0	514	616
3	0	0	0	0	518	616
4	0	0	0	0	520	616
5	0	0	0	0	521	616
6	0	0	0	0	521	616
7	0	0	0	0	520	615
8	0	0	0	0	519	616
9	0	0	0	0	516	616
10	0	0	0	0	513	615
11	0	0	0	0	509	615
12	0	0	0	0	505	617
13	0	0	0	0	503	616
14	0	0	0	0	501	616
15	0	0	0	0	499	617
0	0	0	0	0	499	616
1	0	0	0	0	500	616
2	0	0	0	0	502	616
3	0	0	0	0	504	616
4	0	0	0	0	507	617
5	0	0	0	0	510	616
6	0	0	0	0	513	616
7	0	0	0	0	515	616
8	0	0	0	0	518	615
9	0	0	0	0	521	616
10	0	0	0	0	521	616
11	0	0	0	0	521	616
12	0	0	0	0	521	617
13	0	0	0	0	519	616
14	0	0	0	0	517	616
15	0	0	0	0	514	616
0	0	0	0	0	511	616
1	0	0	0	0	509	617
2	0	0	0	0	507	616
3	0	0	0	0	507	616
4	0	0	0	0	507	617
5	0	0	0	0	508	616
6	0	0	0	0	509	616
7	0	0	0	0	511	616
8	0	0	0	0	514	616
9	0	0	0	0	516	616
10	0	0	0	0	519	615
11	0	0	0	0	521	616
12	0	0	0	0	524	617
13	0	0	0	0	526	616
14	0	0	0	0	526	616
15	0	0	0	0	525	616
0	0	0	0	0	524	616
1	0	0	0	0	522	616
2	0	0	0	0	519	616
3	0	0	0	0	516	616
4	0	0	0	0	512	616
5	0	0	0	0	510	616
6	0	0	0	0	508	616
7	0	0	0	0	506	616
8	0	0	0	0	507	616
9	0	0	0	0	507	616
10	0	0	0	0	508	615
11	0	0	0	0	509	615
12	0	0	0	0	511	616
13	0	0	0	0	513	615
14	0	0	0	0	515	616
15	0	0	0	0	519	616
0	0	0	0	0	521	616
1	0	0	0	0	523	615
2	0	0	0	0	523	616
3	0	0	0	0	521	616
4	0	0	0	0	520	616
5	0	0	0	0	519	616
6	0	0	0	0	515	616
7	0	0	0	0	512	616
8	0	0	0	0	509	616
9	0	0	0	0	507	616
10	0	0	0	0	505	616
11	0	0	0	0	504	616
12	0	0	0	0	503	616
13	0	0	0	0	504	616
14	0	0	0	0	505	616
15	0	0	0	0	506	616
0	0	0	0	0	508	617
1	0	0	0	0	510	616
2	0	0	0	0	513	616
3	0	0	0	0	517	615
4	0	0	0	0	519	616
5	0	0	0	0	521	616
6	0	0	0	0	521	616
7	0	0	0	0	521	616
8	0	0	0	0	519	616
9	0	0	0	0	517	615
10	0	0	0	0	514	615
11	0	0	0	0	510	615
12	0	0	0	0	506	616
13	0	0	0	0	504	615
14	0	0	0	0	501	615
15	0	0	0	0	500	615
0	0	0	0	0	499	615
1	0	0	0	0	501	615
2	0	0	0	0	502	616
3	0	0	0	0	504	616
4	0	0	0	0	506	616
5	0	0	0	0	509	616
6	0	0	0	0	512	616
7	0	0	0	0	515	616
8	0	0	0	0	517	616
9	0	0	0	0	519	616
10	0	0	0	0	520	616
11	0	0	0	0	519	616
12	0	0	0	0	518	616
13	0	0	0	0	516	616
14	0	0	0	0	512	616
15	0	0	0	0	509	616
0	0	0	0	0	505	616
1	0	0	0	0	502	616
2	0	0	0	0	499	616
3	0	0	0	0	497	615
4	0	0	0	0	497	616
5	0	0	0	0	496	615
6	0	0	0	0	496	616
7	0	0	0	0	497	615
8	0	0	0	0	497	616
9	0	0	0	0	497	616
10	0	0	0	0	496	616
11	0	0	0	0	494	616
12	0	0	0	0	489	616
13	0	0	0	0	482	616
14	0	0	0	0	472	615
15	0	0	0	0	461	616
0	0	0	0	0	448	615
1	0	0	0	0	435	616
2	0	0	0	0	421	616
3	0	0	0	0	408	616
4	0	0	0	0	396	616
5	0	0	0	0	387	616
6	0	0	0	0	380	615
7	0	0	0	0	376	616
8	0	0	0	0	377	616
9	0	0	0	0	380	616
10	0	0	0	0	386	616
11	0	0	0	0	395	616
12	0	0	0	0	405	616
13	0	0	0	0	417	615
14	0	0	0	0	428	616
15	0	0	0	0	438	616
0	0	0	0	0	447	616
1	0	0	0	0	455	616
2	0	0	0	0	463	616
3	0	0	0	0	477	615
4	0	0	0	0	497	617
5	0	0	0	0	520	615
6	0	0	0	0	546	616
7	0	0	0	0	579	616
8	0	0	0	0	620	617
9	0	0	0	0	668	616
10	0	0	0	0	720	616
11	0	0	0	0	775	616
12	0	0	0	0	828	616
13	0	0	0	0	877	616
14	0	0	0	0	920	616
15	0	0	0	0	957	615
0	0	0	0	0	987	615
1	0	0	0	0	1009	616
2	0	0	0	0	1021	616
3	0	0	0	0	1022	617
4	0	0	0	0	1022	616
5	0	0	0	0	1022	616
6	0	0	0	0	1020	616
7	0	0	0	0	999	616
8	0	0	0	0	975	616
9	0	0	0	0	946	617
10	0	0	0	0	911	616
11	0	0	0	0	874	617
12	0	0	0	0	832	617
13	0	0	0	0	791	616
14	0	0	0	0	755	616
15	0	0	0	0	723	616
0	0	0	0	0	696	617
1	0	0	0	0	672	616
2	0	0	0	0	652	616
3	0	0	0	0	636	616
4	0	0	0	0	623	617
5	0	0	0	0	612	616
6	0	0	0	0	603	616
7	0	0	0	0	593	616
8	0	0	0	0	584	616
9	0	0	0	0	574	616
10	0	0	0	0	562	616
11	0	0	0	0	550	615
12	0	0	0	0	536	616
13	0	0	0	0	521	616
14	0	0	0	0	506	616
15	0	0	0	0	491	616
0	0	0	0	0	476	616
1	0	0	0	0	463	616
2	0	0	0	0	452	616
3	0	0	0	0	442	615
4	0	0	0	0	434	617
5	0	0	0	0	426	616
6	0	0	0	0	421	616
7	0	0	0	0	418	616
8	0	0	0	0	415	616
9	0	0	0	0	413	615
10	0	0	0	0	413	615
11	0	0	0	0	413	616
12	0	0	0	0	413	617
13	0	0	0	0	413	616
14	0	0	0	0	412	616
15	0	0	0	0	409	616
0	0	0	0	0	406	616
1	0	0	0	0	403	616
2	0	0	0	0	399	616
3	0	0	0	0	394	616
4	0	0	0	0	390	617
5	0	0	0	0	386	616
6	0	0	0	0	384	616
7	0	0	0	0	384	615
8	0	0	0	0	383	616
9	0	0	0	0	383	616
10	0	0	0	0	385	616
11	0	0	0	0	387	616
12	0	0	0	0	390	616
13	0	0	0	0	392	616
14	0	0	0	0	396	616
15	0	0	0	0	399	615
0	0	0	0	0	402	616
1	0	0	0	0	404	616
2	0	0	0	0	405	616
3	0	0	0	0	405	615
4	0	0	0	0	405	616
5	0	0	0	0	403	615
6	0	0	0	0	401	615
7	0	0	0	0	398	616
8	0	0	0	0	395	615
9	0	0	0	0	393	615
10	0	0	0	0	392	615
11	0	0	0	0	392	615
12	0	0	0	0	394	617
13	0	0	0	0	396	615
14	0	0	0	0	399	616
15	0	0	0	0	403	616
0	0	0	0	0	407	616
1	0	0	0	0	412	616
2	0	0	0	0	417	616
3	0	0	0	0	421	616
4	0	0	0	0	424	616
5	0	0	0	0	427	615
6	0	0	0	0	428	616
7	0	0	0	0	429	616
8	0	0	0	0	428	616
9	0	0	0	0	427	616
10	0	0	0	0	424	615
11	0	0	0	0	420	615
12	0	0	0	0	417	616
13	0	0	0	0	415	616
14	0	0	0	0	413	616
15	0	0	0	0	412	616
0	0	0	0	0	411	616
1	0	0	0	0	412	616
2	0	0	0	0	414	616
3	0	0	0	0	416	615
4	0	0	0	0	419	616
5	0	0	0	0	423	616
6	0	0	0	0	426	616
7	0	0	0	0	430	616
8	0	0	0	0	434	616
9	0	0	0	0	437	616
10	0	0	0	0	439	617
11	0	0	0	0	439	616
12	0	0	0	0	438	617
13	0	0	0	0	436	616
14	0	0	0	0	434	616
15	0	0	0	0	431	616
0	0	0	0	0	428	616
1	0	0	0	0	426	617
2	0	0	0	0	425	616
3	0	0	0	0	424	616
4	0	0	0	0	424	617
5	0	0	0	0	425	616
6	0	0	0	0	427	616
7	0	0	0	0	429	615
8	0	0	0	0	432	616
9	0	0	0	0	435	615
10	0	0	0	0	438	615
11	0	0	0	0	441	616
12	0	0	0	0	444	616
13	0	0	0	0	447	616
14	0	0	0	0	448	616
15	0	0	0	0	448	615
0	0	0	0	0	447	616
1	0	0	0	0	446	616
2	0	0	0	0	443	616
3	0	0	0	0	440	616
4	0	0	0	0	436	616
5	0	0	0	0	434	616
6	0	0	0	0	432	616
7	0	0	0	0	432	616
8	0	0	0	0	432	616
9	0	0	0	0	433	615
10	0	0	0	0	434	616
11	0	0	0	0	436	615
12	0	0	0	0	439	616
13	0	0	0	0	441	615
14	0	0	0	0	445	616
15	0	0	0	0	448	616
0	0	0	0	0	451	617
1	0	0	0	0	453	616
2	0	0	0	0	454	616
3	0	0	0	0	454	616
4	0	0	0	0	453	616
5	0	0	0	0	451	616
6	0	0	0	0	449	616
7	0	0	0	0	446	616
8	0	0	0	0	442	616
9	0	0	0	0	440	616
10	0	0	0	0	439	616
11	0	0	0	0	437	616
12	0	0	0	0	436	616
13	0	0	0	0	438	616
14	0	0	0	0	440	617
15	0	0	0	0	441	616
0	0	0	0	0	445	616
1	0	0	0	0	448	616
2	0	0	0	0	451	616
3	0	0	0	0	455	616
4	0	0	0	0	457	617
5	0	0	0	0	460	616
6	0	0	0	0	461	616
7	0	0	0	0	460	616
8	0	0	0	0	459	616
9	0	0	0	0	457	616
10	0	0	0	0	455	616
11	0	0	0	0	451	616
12	0	0	0	0	448	617
13	0	0	0	0	446	616
14	0	0	0	0	444	616
15	0	0	0	0	443	616
0	0	0	0	0	443	616
1	0	0	0	0	444	616
2	0	0	0	0	445	616
3	0	0	0	0	448	616
4	0	0	0	0	451	616
5	0	0	0	0	455	616
6	0	0	0	0	458	616
7	0	0	0	0	461	616
8	0	0	0	0	465	616
9	0	0	0	0	467	616
10	0	0	0	0	469	616
11	0	0	0	0	468	616
12	0	0	0	0	468	616
13	0	0	0	0	467	616
14	0	0	0	0	465	616
15	0	0	0	0	463	616
0	0	0	0	0	461	616
1	0	0	0	0	460	615
2	0	0	0	0	459	616
3	0	0	0	0	458	615
4	0	0	0	0	459	616
5	0	0	0	0	460	615
6	0	0	0	0	463	615
7	0	0	0	0	466	616
8	0	0	0	0	470	616
9	0	0	0	0	474	616
10	0	0	0	0	478	615
11	0	0	0	0	482	616
12	0	0	0	0	486	616
13	0	0	0	0	489	616
14	0	0	0	0	492	615
15	0	0	0	0	493	616
0	0	0	0	0	493	617
1	0	0	0	0	492	616
2	0	0	0	0	489	616
3	0	0	0	0	487	616
4	0	0	0	0	483	617
5	0	0	0	0	482	616
6	0	0	0	0	480	615
7	0	0	0	0	479	616
8	0	0	0	0	480	616
9	0	0	0	0	481	616
10	0	0	0	0	483	616
11	0	0	0	0	486	616
12	0	0	0	0	490	616
13	0	0	0	0	495	616
14	0	0	0	0	499	616
15	0	0	0	0	504	616
0	0	0	0	0	509	616
1	0	0	0	0	513	616
2	0	0	0	0	514	616
3	0	0	0	0	515	616
4	0	0	0	0	516	617
5	0	0	0	0	515	616
6	0	0	0	0	512	617
7	0	0	0	0	510	617
8	0	0	0	0	507	616
9	0	0	0	0	505	616
10	0	0	0	0	504	617
11	0	0	0	0	504	616
12	0	0	0	0	505	617
13	0	0	0	0	507	617
14	0	0	0	0	509	616
15	0	0	0	0	511	616
0	0	0	0	0	514	617
1	0	0	0	0	518	616
2	0	0	0	0	522	616
3	0	0	0	0	525	616
4	0	0	0	0	527	617
5	0	0	0	0	530	616
6	0	0	0	0	531	616
7	0	0	0	0	531	616
8	0	0	0	0	531	617
9	0	0	0	0	529	616
10	0	0	0	0	527	616
11	0	0	0	0	525	616
12	0	0	0	0	522	616
13	0	0	0	0	519	616
14	0	0	0	0	517	615
15	0	0	0	0	516	615
0	0	0	0	0	516	616
1	0	0	0	0	518	616
2	0	0	0	0	519	616
3	0	0	0	0	522	615
4	0	0	0	0	525	617
5	0	0	0	0	528	615
6	0	0	0	0	532	616
7	0	0	0	0	536	616
8	0	0	0	0	538	615
9	0	0	0	0	540	615
10	0	0	0	0	542	616
11	0	0	0	0	542	616
12	0	0	0	0	542	617
13	0	0	0	0	540	615
14	0	0	0	0	537	616
15	0	0	0	0	534	616
0	0	0	0	0	531	616
1	0	0	0	0	529	616
2	0	0	0	0	527	616
3	0	0	0	0	526	616
4	0	0	0	0	526	617
5	0	0	0	0	526	616
6	0	0	0	0	527	616
7	0	0	0	0	529	616
8	0	0	0	0	532	616
9	0	0	0	0	535	616
10	0	0	0	0	538	616
11	0	0	0	0	541	616
12	0	0	0	0	543	617
13	0	0	0	0	546	617
14	0	0	0	0	546	616
15	0	0	0	0	544	616
0	0	0	0	0	543	616
1	0	0	0	0	541	616
2	0	0	0	0	537	616
3	0	0	0	0	534	615
4	0	0	0	0	530	616
5	0	0	0	0	527	616
6	0	0	0	0	525	616
7	0	0	0	0	525	615
8	0	0	0	0	524	616
9	0	0	0	0	525	616
10	0	0	0	0	526	616
11	0	0	0	0	527	616
12	0	0	0	0	530	616
13	0	0	0	0	533	616
14	0	0	0	0	536	616
15	0	0	0	0	539	616
0	0	0	0	0	542	616
1	0	0	0	0	543	615
2	0	0	0	0	543	615
3	0	0	0	0	542	616
4	0	0	0	0	542	617
5	0	0	0	0	539	616
6	0	0	0	0	536	616
7	0	0	0	0	533	616
8	0	0	0	0	530	615
9	0	0	0	0	527	616
10	0	0	0	0	524	616
11	0	0	0	0	523	616
12	0	0	0	0	522	616
13	0	0	0	0	522	616
14	0	0	0	0	524	616
15	0	0	0	0	525	616
0	0	0	0	0	527	616
1	0	0	0	0	529	616
2	0	0	0	0	532	616
3	0	0	0	0	535	616
4	0	0	0	0	538	617
5	0	0	0	0	540	616
6	0	0	0	0	540	615
7	0	0	0	0	540	616
8	0	0	0	0	539	616
9	0	0	0	0	536	616
10	0	0	0	0	533	617
11	0	0	0	0	529	616
12	0	0	0	0	525	616
13	0	0	0	0	521	616
14	0	0	0	0	519	616
15	0	0	0	0	517	616
0	0	0	0	0	516	616
1	0	0	0	0	517	616
2	0	0	0	0	518	616
3	0	0	0	0	519	616
4	0	0	0	0	522	617
5	0	0	0	0	525	616
6	0	0	0	0	527	616
7	0	0	0	0	529	616
8	0	0	0	0	531	616
9	0	0	0	0	534	616
10	0	0	0	0	535	617
11	0	0	0	0	534	616
12	0	0	0	0	532	617
13	0	0	0	0	528	616
14	0	0	0	0	524	616
15	0	0	0	0	520	616
0	0	0	0	0	516	616
1	0	0	0	0	513	616
2	0	0	0	0	510	617
3	0	0	0	0	509	616
4	0	0	0	0	509	617
5	0	0	0	0	511	616
6	0	0	0	0	512	616
7	0	0	0	0	515	616
8	0	0	0	0	518	616
9	0	0	0	0	521	616
10	0	0	0	0	527	616
11	0	0	0	0	528	616
12	0	0	0	0	530	616
13	0	0	0	0	531	616
14	0	0	0	0	531	616
15	0	0	0	0	531	616
0	0	0	0	0	529	616
1	0	0	0	0	527	616
2	0	0	0	0	525	616
3	0	0	0	0	520	616
4	0	0	0	0	517	616
5	0	0	0	0	513	616
6	0	0	0	0	512	616
7	0	0	0	0	511	616
8	0	0	0	0	511	616
9	0	0	0	0	512	616
10	0	0	0	0	512	616
11	0	0	0	0	514	616
12	0	0	0	0	517	616
13	0	0	0	0	519	616
14	0	0	0	0	521	616
15	0	0	0	0	525	616
0	0	0	0	0	529	616
1	0	0	0	0	534	615
2	0	0	0	0	535	616
3	0	0	0	0	535	615
4	0	0	0	0	534	616
5	0	0	0	0	532	615
6	0	0	0	0	528	616
7	0	0	0	0	523	615
8	0	0	0	0	519	616
9	0	0	0	0	514	616
10	0	0	0	0	512	616
11	0	0	0	0	509	616
12	0	0	0	0	508	616
13	0	0	0	0	509	616
14	0	0	0	0	510	616
15	0	0	0	0	511	616
0	0	0	0	0	513	616
1	0	0	0	0	515	616
2	0	0	0	0	519	616
3	0	0	0	0	523	616
4	0	0	0	0	525	616
5	0	0	0	0	528	616
6	0	0	0	0	528	616
7	0	0	0	0	527	616
8	0	0	0	0	527	616
9	0	0	0	0	525	615
10	0	0	0	0	523	616
11	0	0	0	0	519	616
12	0	0	0	0	514	616
13	0	0	0	0	512	616
14	0	0	0	0	512	616
15	0	0	0	0	512	616
0	0	0	0	0	513	616
1	0	0	0	0	516	616
2	0	0	0	0	519	616
3	0	0	0	0	522	616
4	0	0	0	0	524	617
5	0	0	0	0	526	616
6	0	0	0	0	528	616
7	0	0	0	0	530	616
8	0	0	0	0	532	616
9	0	0	0	0	534	616
10	0	0	0	0	534	616
11	0	0	0	0	531	616
12	0	0	0	0	529	617
13	0	0	0	0	526	616
14	0	0	0	0	522	615
15	0	0	0	0	519	616
0	0	0	0	0	515	616
1	0	0	0	0	511	616
2	0	0	0	0	508	615
3	0	0	0	0	505	615
4	0	0	0	0	505	616
5	0	0	0	0	506	616
6	0	0	0	0	508	616
7	0	0	0	0	511	616
8	0	0	0	0	514	616
9	0	0	0	0	517	616
10	0	0	0	0	519	616
11	0	0	0	0	522	616
12	0	0	0	0	525	617
13	0	0	0	0	527	616
14	0	0	0	0	530	615
15	0	0	0	0	531	615
0	0	0	0	0	531	616
1	0	0	0	0	529	616
2	0	0	0	0	527	616
3	0	0	0	0	523	615
4	0	0	0	0	519	616
5	0	0	0	0	515	616
6	0	0	0	0	511	615
7	0	0	0	0	508	615
8	0	0	0	0	508	615
9	0	0	0	0	508	616
10	0	0	0	0	505	615
11	0	0	0	0	507	615
12	0	0	0	0	510	616
13	0	0	0	0	513	615
14	0	0	0	0	516	615
15	0	0	0	0	520	615
0	0	0	0	0	523	616
1	0	0	0	0	526	616
2	0	0	0	0	528	616
3	0	0	0	0	529	616
4	0	0	0	0	529	617
5	0	0	0	0	528	616
6	0	0	0	0	527	616
7	0	0	0	0	524	616
8	0	0	0	0	520	616
9	0	0	0	0	518	616
10	0	0	0	0	516	615
11	0	0	0	0	513	615
12	0	0	0	0	512	617
13	0	0	0	0	512	616
14	0	0	0	0	513	616
15	0	0	0	0	516	616
0	0	0	0	0	519	616
1	0	0	0	0	521	616
2	0	0	0	0	522	616
3	0	0	0	0	524	616
4	0	0	0	0	527	616
5	0	0	0	0	530	616
6	0	0	0	0	535	616
7	0	0	0	0	534	616
8	0	0	0	0	531	616
9	0	0	0	0	528	616
10	0	0	0	0	524	616
11	0	0	0	0	523	616
12	0	0	0	0	519	616
13	0	0	0	0	515	616
14	0	0	0	0	515	615
15	0	0	0	0	516	616
0	0	0	0	0	519	616
1	0	0	0	0	517	616
2	0	0	0	0	516	616
3	0	0	0	0	517	616
4	0	0	0	0	519	617
5	0	0	0	0	521	615
6	0	0	0	0	523	616
7	0	0	0	0	529	616
8	0	0	0	0	534	616
9	0	0	0	0	539	616
10	0	0	0	0	540	616
11	0	0	0	0	540	616
12	0	0	0	0	538	616
13	0	0	0	0	534	616
14	0	0	0	0	529	616
15	0	0	0	0	525	616
0	0	0	0	0	522	616
1	0	0	0	0	517	616
2	0	0	0	0	515	616
3	0	0	0	0	515	616
4	0	0	0	0	515	617
5	0	0	0	0	514	616
6	0	0	0	0	516	616
7	0	0	0	0	518	616
8	0	0	0	0	520	617
9	0	0	0	0	524	616
10	0	0	0	0	528	616
11	0	0	0	0	530	616
12	0	0	0	0	531	617
13	0	0	0	0	532	615
14	0	0	0	0	533	615
15	0	0	0	0	531	616
0	0	0	0	0	529	616
1	0	0	0	0	527	616
2	0	0	0	0	524	616
3	0	0	0	0	521	616
4	0	0	0	0	519	616
5	0	0	0	0	516	616
6	0	0	0	0	512	616
7	0	0	0	0	508	616
8	0	0	0	0	507	616
9	0	0	0	0	505	616
10	0	0	0	0	507	616
11	0	0	0	0	508	616
12	0	0	0	0	511	616
13	0	0	0	0	515	616
14	0	0	0	0	521	616
15	0	0	0	0	523	616
0	0	0	0	0	524	616
1	0	0	0	0	523	616
2	0	0	0	0	521	616
3	0	0	0	0	519	616
4	0	0	0	0	519	617
5	0	0	0	0	516	616
6	0	0	0	0	512	616
7	0	0	0	0	506	616
8	0	0	0	0	501	616
9	0	0	0	0	497	616
10	0	0	0	0	495	615
11	0	0	0	0	491	615
12	0	0	0	0	490	618
13	0	0	0	0	491	620
14	0	0	0	0	493	620
15	0	0	0	0	496	617
0	0	0	0	0	501	616
1	0	0	0	0	505	613
2	0	0	0	0	509	614
3	0	0	0	0	512	615
4	0	0	0	0	514	615
5	0	0	0	0	516	615
6	0	0	0	0	516	615
7	0	0	0	0	516	613
8	0	0	0	0	513	615
9	0	0	0	0	509	618
10	0	0	0	0	504	620
11	0	0	0	0	500	619
12	0	0	0	0	496	616
13	0	0	0	0	492	614
14	0	0	0	0	490	613
15	0	0	0	0	491	614
0	0	0	0	0	491	615
1	0	0	0	0	493	615
2	0	0	0	0	496	615
3	0	0	0	0	499	615
4	0	0	0	0	503	617
5	0	0	0	0	506	617
6	0	0	0	0	510	618
7	0	0	0	0	515	617
8	0	0	0	0	520	615
9	0	0	0	0	523	615
10	0	0	0	0	522	618
11	0	0	0	0	521	623
12	0	0	0	0	519	618
13	0	0	0	0	517	617
14	0	0	0	0	512	614
15	0	0	0	0	508	614
0	0	0	0	0	504	614
1	0	0	0	0	499	613
2	0	0	0	0	497	616
3	0	0	0	0	496	612
4	0	0	0	0	497	608
5	0	0	0	0	497	610
6	0	0	0	0	499	611
7	0	0	0	0	499	616
8	0	0	0	0	501	617
9	0	0	0	0	503	615
10	0	0	0	0	505	612
11	0	0	0	0	508	608
12	0	0	0	0	509	609
13	0	0	0	0	511	611
14	0	0	0	0	510	617
15	0	0	0	0	510	615
0	0	0	0	0	509	616
1	0	0	0	0	507	614
2	0	0	0	0	504	615
3	0	0	0	0	502	619
4	0	0	0	0	499	622
5	0	0	0	0	498	624
6	0	0	0	0	497	623
7	0	0	0	0	496	619
8	0	0	0	0	496	617
9	0	0	0	0	497	620
10	0	0	0	0	498	622
11	0	0	0	0	499	624
12	0	0	0	0	500	623
13	0	0	0	0	502	620
14	0	0	0	0	504	620
15	0	0	0	0	507	619
0	0	0	0	0	509	618
1	0	0	0	0	510	621
2	0	0	0	0	510	620
3	0	0	0	0	510	617
4	0	0	0	0	508	616
5	0	0	0	0	506	614
6	0	0	0	0	503	615
7	0	0	0	0	499	617
8	0	0	0	0	495	617
9	0	0	0	0	492	617
10	0	0	0	0	488	615
11	0	0	0	0	487	615
12	0	0	0	0	487	615
13	0	0	0	0	488	612
14	0	0	0	0	490	612
15	0	0	0	0	491	615
0	0	0	0	0	492	615
1	0	0	0	0	494	620
2	0	0	0	0	495	616
3	0	0	0	0	497	616
4	0	0	0	0	500	617
5	0	0	0	0	502	615
6	0	0	0	0	503	614
7	0	0	0	0	502	614
8	0	0	0	0	502	611
9	0	0	0	0	500	612
10	0	0	0	0	497	614
11	0	0	0	0	494	615
12	0	0	0	0	491	619
13	0	0	0	0	487	618
14	0	0	0	0	485	619
15	0	0	0	0	483	619
0	0	0	0	0	483	620
1	0	0	0	0	483	618
2	0	0	0	0	484	619
3	0	0	0	0	486	615
4	0	0	0	0	488	615
5	0	0	0	0	491	616
6	0	0	0	0	494	615
7	0	0	0	0	496	617
8	0	0	0	0	496	617
9	0	0	0	0	496	617
10	0	0	0	0	493	618
11	0	0	0	0	486	618
12	0	0	0	0	477	616
13	0	0	0	0	465	615
14	0	0	0	0	451	614
15	0	0	0	0	436	613
0	0	0	0	0	422	615
1	0	0	0	0	407	615
2	0	0	0	0	393	615
3	0	0	0	0	379	615
4	0	0	0	0	368	615
5	0	0	0	0	359	616
6	0	0	0	0	354	616
7	0	0	0	0	352	615
8	0	0	0	0	355	615
9	0	0	0	0	360	613
10	0	0	0	0	368	613
11	0	0	0	0	379	614
12	0	0	0	0	391	615
13	0	0	0	0	404	615
14	0	0	0	0	414	617
15	0	0	0	0	421	617
0	0	0	0	0	427	618
1	0	0	0	0	432	618
2	0	0	0	0	437	617
3	0	0	0	0	446	619
4	0	0	0	0	460	618
5	0	0	0	0	482	617
6	0	0	0	0	508	618
7	0	0	0	0	540	618
8	0	0	0	0	578	618
9	0	0	0	0	624	618
10	0	0	0	0	677	617
11	0	0	0	0	733	618
12	0	0	0	0	791	617
13	0	0	0	0	846	615
14	0	0	0	0	898	615
15	0	0	0	0	945	614
0	0	0	0	0	983	613
1	0	0	0	0	1012	614
2	0	0	0	0	1022	614
3	0	0	0	0	1022	614
4	0	0	0	0	1022	615
5	0	0	0	0	1022	614
6	0	0	0	0	1008	615
7	0	0	0	0	986	615
8	0	0	0	0	958	615
9	0	0	0	0	926	615
10	0	0	0	0	890	615
11	0	0	0	0	851	615
12	0	0	0	0	809	617
13	0	0	0	0	767	617
14	0	0	0	0	729	617
15	0	0	0	0	696	618
0	0	0	0	0	671	617
1	0	0	0	0	651	618
2	0	0	0	0	635	618
3	0	0	0	0	624	617
4	0	0	0	0	612	617
5	0	0	0	0	603	617
6	0	0	0	0	591	616
7	0	0	0	0	580	616
8	0	0	0	0	569	617
9	0	0	0	0	559	616
10	0	0	0	0	546	617
11	0	0	0	0	534	616
12	0	0	0	0	522	617
13	0	0	0	0	511	617
14	0	0	0	0	499	615
15	0	0	0	0	487	616
0	0	0	0	0	477	615
1	0	0	0	0	466	615
2	0	0	0	0	458	615
3	0	0	0	0	451	616
4	0	0	0	0	445	616
5	0	0	0	0	441	615
6	0	0	0	0	439	616
7	0	0	0	0	436	615
8	0	0	0	0	434	616
9	0	0	0	0	433	615
10	0	0	0	0	430	615
11	0	0	0	0	427	616
12	0	0	0	0	423	615
13	0	0	0	0	420	615
14	0	0	0	0	416	616
15	0	0	0	0	412	616
0	0	0	0	0	407	617
1	0	0	0	0	403	617
2	0	0	0	0	401	616
3	0	0	0	0	399	616
4	0	0	0	0	398	617
5	0	0	0	0	399	616
6	0	0	0	0	400	616
7	0	0	0	0	401	616
8	0	0	0	0	404	616
9	0	0	0	0	407	616
10	0	0	0	0	411	616
11	0	0	0	0	415	616
12	0	0	0	0	418	617
13	0	0	0	0	422	616
14	0	0	0	0	423	616
15	0	0	0	0	423	615
0	0	0	0	0	423	616
1	0	0	0	0	423	616
2	0	0	0	0	420	616
3	0	0	0	0	417	616
4	0	0	0	0	415	616
5	0	0	0	0	413	616
6	0	0	0	0	411	616
7	0	0	0	0	410	617
8	0	0	0	0	411	616
9	0	0	0	0	412	616
10	0	0	0	0	415	616
11	0	0	0	0	417	615
12	0	0	0	0	420	616
13	0	0	0	0	424	615
14	0	0	0	0	429	616
15	0	0	0	0	433	617
0	0	0	0	0	437	617
1	0	0	0	0	440	617
2	0	0	0	0	442	617
3	0	0	0	0	444	617
4	0	0	0	0	444	617
5	0	0	0	0	443	617
6	0	0	0	0	441	617
7	0	0	0	0	438	617
8	0	0	0	0	435	616
9	0	0	0	0	432	616
10	0	0	0	0	431	617
11	0	0	0	0	431	616
12	0	0	0	0	430	617
13	0	0	0	0	431	616
14	0	0	0	0	434	616
15	0	0	0	0	436	616
0	0	0	0	0	440	616
1	0	0	0	0	444	615
2	0	0	0	0	447	615
3	0	0	0	0	451	615
4	0	0	0	0	454	615
5	0	0	0	0	459	615
6	0	0	0	0	460	615
7	0	0	0	0	461	615
8	0	0	0	0	461	616
9	0	0	0	0	460	616
10	0	0	0	0	457	616
11	0	0	0	0	455	615
12	0	0	0	0	452	615
13	0	0	0	0	449	616
14	0	0	0	0	448	616
15	0	0	0	0	447	616
0	0	0	0	0	447	616
1	0	0	0	0	448	617
2	0	0	0	0	450	616
3	0	0	0	0	452	616
4	0	0	0	0	456	616
5	0	0	0	0	460	616
6	0	0	0	0	463	616
7	0	0	0	0	466	615
8	0	0	0	0	468	616
9	0	0	0	0	471	616
10	0	0	0	0	472	615
11	0	0	0	0	472	615
12	0	0	0	0	472	615
13	0	0	0	0	471	615
14	0	0	0	0	468	615
15	0	0	0	0	465	615
0	0	0	0	0	463	615
1	0	0	0	0	460	615
2	0	0	0	0	457	615
3	0	0	0	0	455	615
4	0	0	0	0	455	616
5	0	0	0	0	456	616
6	0	0	0	0	458	617
7	0	0	0	0	460	618
8	0	0	0	0	463	619
9	0	0	0	0	466	620
10	0	0	0	0	470	620
11	0	0	0	0	472	619
12	0	0	0	0	476	618
13	0	0	0	0	480	617
14	0	0	0	0	481	615
15	0	0	0	0	480	614
0	0	0	0	0	480	613
1	0	0	0	0	478	613
2	0	0	0	0	475	614
3	0	0	0	0	472	615
4	0	0	0	0	468	616
5	0	0	0	0	466	618
6	0	0	0	0	464	619
7	0	0	0	0	463	620
8	0	0	0	0	462	620
9	0	0	0	0	463	619
10	0	0	0	0	464	619
11	0	0	0	0	466	617
12	0	0	0	0	468	617
13	0	0	0	0	472	615
14	0	0	0	0	475	614
15	0	0	0	0	478	613
0	0	0	0	0	481	614
1	0	0	0	0	483	615
2	0	0	0	0	483	615
3	0	0	0	0	483	616
4	0	0	0	0	483	617
5	0	0	0	0	480	617
6	0	0	0	0	477	617
7	0	0	0	0	474	617
8	0	0	0	0	471	617
9	0	0	0	0	468	616
10	0	0	0	0	466	616
11	0	0	0	0	465	616
12	0	0	0	0	465	616
13	0	0	0	0	467	615
14	0	0	0	0	467	615
15	0	0	0	0	469	615
0	0	0	0	0	472	615
1	0	0	0	0	475	615
2	0	0	0	0	478	615
3	0	0	0	0	481	615
4	0	0	0	0	483	615
5	0	0	0	0	486	615
6	0	0	0	0	487	615
7	0	0	0	0	487	615
8	0	0	0	0	486	617
9	0	0	0	0	485	617
10	0	0	0	0	482	616
11	0	0	0	0	479	616
12	0	0	0	0	476	617
13	0	0	0	0	473	616
14	0	0	0	0	471	616
15	0	0	0	0	470	616
0	0	0	0	0	470	615
1	0	0	0	0	471	615
2	0	0	0	0	473	615
3	0	0	0	0	476	615
4	0	0	0	0	479	616
5	0	0	0	0	482	615
6	0	0	0	0	487	615
7	0	0	0	0	490	615
8	0	0	0	0	494	615
9	0	0	0	0	497	616
10	0	0	0	0	499	616
11	0	0	0	0	499	616
12	0	0	0	0	499	617
13	0	0	0	0	497	617
14	0	0	0	0	495	617
15	0	0	0	0	492	617
0	0	0	0	0	489	617
1	0	0	0	0	488	617
2	0	0	0	0	487	616
3	0	0	0	0	486	615
4	0	0	0	0	487	616
5	0	0	0	0	488	614
6	0	0	0	0	490	615
7	0	0	0	0	491	615
8	0	0	0	0	495	616
9	0	0	0	0	499	615
10	0	0	0	0	503	616
11	0	0	0	0	507	617
12	0	0	0	0	511	617
13	0	0	0	0	514	616
14	0	0	0	0	516	616
15	0	0	0	0	516	616
0	0	0	0	0	516	616
1	0	0	0	0	516	616
2	0	0	0	0	514	616
3	0	0	0	0	511	615
4	0	0	0	0	509	616
5	0	0	0	0	507	615
6	0	0	0	0	505	614
7	0	0	0	0	506	614
8	0	0	0	0	508	615
9	0	0	0	0	509	615
10	0	0	0	0	511	615
11	0	0	0	0	513	615
12	0	0	0	0	516	617
13	0	0	0	0	519	617
14	0	0	0	0	522	617
15	0	0	0	0	525	617
0	0	0	0	0	527	617
1	0	0	0	0	529	618
2	0	0	0	0	532	618
3	0	0	0	0	531	617
4	0	0	0	0	529	618
5	0	0	0	0	527	617
6	0	0	0	0	524	616
7	0	0	0	0	522	617
8	0	0	0	0	519	616
9	0	0	0	0	518	617
10	0	0	0	0	516	617
11	0	0	0	0	515	616
12	0	0	0	0	515	616
13	0	0	0	0	517	616
14	0	0	0	0	518	617
15	0	0	0	0	520	616
0	0	0	0	0	524	617
1	0	0	0	0	528	617
2	0	0	0	0	532	617
3	0	0	0	0	536	617
4	0	0	0	0	539	617
5	0	0	0	0	541	617
6	0	0	0	0	543	616
7	0	0	0	0	543	616
8	0	0	0	0	543	616
9	0	0	0	0	541	615
10	0	0	0	0	539	616
11	0	0	0	0	536	615
12	0	0	0	0	533	615
13	0	0	0	0	530	615
14	0	0	0	0	528	615
15	0	0	0	0	527	615
0	0	0	0	0	527	615
1	0	0	0	0	528	615
2	0	0	0	0	530	615
3	0	0	0	0	532	616
4	0	0	0	0	536	617
5	0	0	0	0	538	617
6	0	0	0	0	541	617
7	0	0	0	0	544	618
8	0	0	0	0	547	619
9	0	0	0	0	549	618
10	0	0	0	0	550	618
11	0	0	0	0	549	617
12	0	0	0	0	548	618
13	0	0	0	0	545	617
14	0	0	0	0	542	616
15	0	0	0	0	539	616
0	0	0	0	0	535	616
1	0	0	0	0	532	615
2	0	0	0	0	530	615
3	0	0	0	0	528	615
4	0	0	0	0	527	615
5	0	0	0	0	527	614
6	0	0	0	0	528	614
7	0	0	0	0	530	613
8	0	0	0	0	533	613
9	0	0	0	0	535	614
10	0	0	0	0	537	613
11	0	0	0	0	540	614
12	0	0	0	0	542	615
13	0	0	0	0	543	616
14	0	0	0	0	545	617
15	0	0	0	0	543	619
0	0	0	0	0	542	619
1	0	0	0	0	540	620
2	0	0	0	0	537	619
3	0	0	0	0	534	619
4	0	0	0	0	530	618
5	0	0	0	0	527	617
6	0	0	0	0	524	617
7	0	0	0	0	523	616
8	0	0	0	0	522	616
9	0	0	0	0	523	615
10	0	0	0	0	524	615
11	0	0	0	0	525	615
12	0	0	0	0	527	616
13	0	0	0	0	530	617
14	0	0	0	0	533	616
15	0	0	0	0	536	616
0	0	0	0	0	539	616
1	0	0	0	0	540	615
2	0	0	0	0	540	615
3	0	0	0	0	539	615
4	0	0	0	0	537	615
5	0	0	0	0	535	615
6	0	0	0	0	531	614
7	0	0	0	0	526	615
8	0	0	0	0	522	615
9	0	0	0	0	519	616
10	0	0	0	0	517	616
11	0	0	0	0	515	616
12	0	0	0	0	514	617
13	0	0	0	0	515	616
14	0	0	0	0	516	617
15	0	0	0	0	518	617
0	0	0	0	0	520	617
1	0	0	0	0	522	616
2	0	0	0	0	524	617
3	0	0	0	0	527	617
4	0	0	0	0	530	617
5	0	0	0	0	532	616
6	0	0	0	0	533	615
7	0	0	0	0	533	616
8	0	0	0	0	532	617
9	0	0	0	0	529	616
10	0	0	0	0	525	617
11	0	0	0	0	521	616
12	0	0	0	0	517	617
13	0	0	0	0	513	616
14	0	0	0	0	511	616
15	0	0	0	0	510	616
0	0	0	0	0	509	616
1	0	0	0	0	510	615
2	0	0	0	0	511	616
3	0	0	0	0	512	615
4	0	0	0	0	515	616
5	0	0	0	0	519	615
6	0	0	0	0	521	615
7	0	0	0	0	526	616
8	0	0	0	0	528	616
9	0	0	0	0	530	616
10	0	0	0	0	531	616
11	0	0	0	0	531	616
12	0	0	0	0	530	616
13	0	0	0	0	528	616
14	0	0	0	0	524	616
15	0	0	0	0	521	616
0	0	0	0	0	517	616
1	0	0	0	0	513	616
2	0	0	0	0	511	616
3	0	0	0	0	510	616
4	0	0	0	0	509	617
5	0	0	0	0	510	617
6	0	0	0	0	512	617
7	0	0	0	0	514	616
8	0	0	0	0	517	616
9	0	0	0	0	519	617
10	0	0	0	0	523	616
11	0	0	0	0	526	617
12	0	0	0	0	528	617
13	0	0	0	0	531	616
14	0	0	0	0	532	616
15	0	0	0	0	531	616
0	0	0	0	0	530	617
1	0	0	0	0	527	617
2	0	0	0	0	524	616
3	0	0	0	0	520	616
4	0	0	0	0	516	616
5	0	0	0	0	513	615
6	0	0	0	0	512	615
7	0	0	0	0	510	615
8	0	0	0	0	510	615
9	0	0	0	0	511	615
10	0	0	0	0	512	615
11	0	0	0	0	514	615
12	0	0	0	0	516	616
13	0	0	0	0	519	616
14	0	0	0	0	522	616
15	0	0	0	0	526	617
0	0	0	0	0	528	616
1	0	0	0	0	531	616
2	0	0	0	0	532	616
3	0	0	0	0	531	616
4	0	0	0	0	530	617
5	0	0	0	0	528	615
6	0	0	0	0	525	616
7	0	0	0	0	521	617
8	0	0	0	0	517	617
9	0	0	0	0	513	617
10	0	0	0	0	511	617
11	0	0	0	0	509	617
12	0	0	0	0	509	617
13	0	0	0	0	509	617
14	0	0	0	0	511	617
15	0	0	0	0	512	617
0	0	0	0	0	515	617
1	0	0	0	0	518	617
2	0	0	0	0	522	615
3	0	0	0	0	525	614
4	0	0	0	0	528	614
5	0	0	0	0	530	614
6	0	0	0	0	531	613
7	0	0	0	0	531	613
8	0	0	0	0	531	614
9	0	0	0	0	528	614
10	0	0	0	0	525	616
11	0	0	0	0	521	616
12	0	0	0	0	517	617
13	0	0	0	0	515	617
14	0	0	0	0	512	617
15	0	0	0	0	510	617
0	0	0	0	0	509	617
1	0	0	0	0	509	618
2	0	0	0	0	511	617
3	0	0	0	0	512	617
4	0	0	0	0	515	618
5	0	0	0	0	517	617
6	0	0	0	0	519	616
7	0	0	0	0	523	617
8	0	0	0	0	526	616
9	0	0	0	0	528	615
10	0	0	0	0	528	615
11	0	0	0	0	528	615
12	0	0	0	0	527	617
13	0	0	0	0	525	616
14	0	0	0	0	522	616
15	0	0	0	0	517	616
0	0	0	0	0	513	617
1	0	0	0	0	510	616
2	0	0	0	0	507	616
3	0	0	0	0	505	616
4	0	0	0	0	505	616
5	0	0	0	0	505	616
6	0	0	0	0	507	615
7	0	0	0	0	510	615
8	0	0	0	0	513	615
9	0	0	0	0	516	615
10	0	0	0	0	519	616
11	0	0	0	0	522	615
12	0	0	0	0	525	616
13	0	0	0	0	527	615
14	0	0	0	0	528	616
15	0	0	0	0	528	616
0	0	0	0	0	526	617
1	0	0	0	0	524	617
2	0	0	0	0	521	617
3	0	0	0	0	518	617
4	0	0	0	0	514	617
5	0	0	0	0	512	617
6	0	0	0	0	509	617
7	0	0	0	0	507	617
8	0	0	0	0	507	616
9	0	0	0	0	507	616
10	0	0	0	0	509	616
11	0	0	0	0	510	615
12	0	0	0	0	513	616
13	0	0	0	0	515	615
14	0	0	0	0	519	615
15	0	0	0	0	521	616
0	0	0	0	0	524	616
1	0	0	0	0	526	616
2	0	0	0	0	527	616
3	0	0	0	0	527	616
4	0	0	0	0	526	616
5	0	0	0	0	524	616
6	0	0	0	0	520	616
7	0	0	0	0	516	616
8	0	0	0	0	512	616
9	0	0	0	0	509	616
10	0	0	0	0	507	616
11	0	0	0	0	505	616
12	0	0	0	0	505	617
13	0	0	0	0	505	616
14	0	0	0	0	506	616
15	0	0	0	0	508	616
0	0	0	0	0	510	616
1	0	0	0	0	512	616
2	0	0	0	0	516	616
3	0	0	0	0	519	616
4	0	0	0	0	521	617
5	0	0	0	0	524	617
6	0	0	0	0	525	616
7	0	0	0	0	524	616
8	0	0	0	0	523	617
9	0	0	0	0	521	616
10	0	0	0	0	518	617
11	0	0	0	0	515	616
12	0	0	0	0	511	617
13	0	0	0	0	508	617
14	0	0	0	0	506	617
15	0	0	0	0	504	616
0	0	0	0	0	504	616
1	0	0	0	0	505	615
2	0	0	0	0	506	615
3	0	0	0	0	508	615
4	0	0	0	0	510	616
5	0	0	0	0	513	616
6	0	0	0	0	516	615
7	0	0	0	0	519	616
8	0	0	0	0	522	616
9	0	0	0	0	524	616
10	0	0	0	0	524	616
11	0	0	0	0	523	616
12	0	0	0	0	522	617
13	0	0	0	0	520	616
14	0	0	0	0	517	616
15	0	0	0	0	513	616
0	0	0	0	0	510	617
1	0	0	0	0	507	616
2	0	0	0	0	505	616
3	0	0	0	0	503	616
4	0	0	0	0	503	616
5	0	0	0	0	504	616
6	0	0	0	0	505	616
7	0	0	0	0	506	615
8	0	0	0	0	508	616
9	0	0	0	0	511	615
10	0	0	0	0	513	615
11	0	0	0	0	516	615
12	0	0	0	0	519	616
13	0	0	0	0	522	616
14	0	0	0	0	523	616
15	0	0	0	0	522	616
0	0	0	0	0	521	616
1	0	0	0	0	519	617
2	0	0	0	0	516	616
3	0	0	0	0	512	616
4	0	0	0	0	509	617
5	0	0	0	0	506	616
6	0	0	0	0	503	616
7	0	0	0	0	501	616
8	0	0	0	0	500	616
9	0	0	0	0	502	616
10	0	0	0	0	504	616
11	0	0	0	0	505	615
12	0	0	0	0	507	617
13	0	0	0	0	510	616
14	0	0	0	0	513	617
15	0	0	0	0	516	616
0	0	0	0	0	518	617
1	0	0	0	0	520	617
2	0	0	0	0	521	617
3	0	0	0	0	521	617
4	0	0	0	0	519	617
5	0	0	0	0	518	617
6	0	0	0	0	514	618
7	0	0	0	0	510	617
8	0	0	0	0	506	615
9	0	0	0	0	504	615
10	0	0	0	0	501	615
11	0	0	0	0	500	614
12	0	0	0	0	499	614
13	0	0	0	0	500	614
14	0	0	0	0	502	614
15	0	0	0	0	503	615
0	0	0	0	0	506	616
1	0	0	0	0	509	617
2	0	0	0	0	512	617
3	0	0	0	0	515	616
4	0	0	0	0	518	617
5	0	0	0	0	520	616
6	0	0	0	0	521	616
7	0	0	0	0	520	617
8	0	0	0	0	519	617
9	0	0	0	0	518	616
10	0	0	0	0	514	616
11	0	0	0	0	511	616
12	0	0	0	0	506	617
13	0	0	0	0	504	615
14	0	0	0	0	502	615
15	0	0	0	0	500	614
0	0	0	0	0	499	614
1	0	0	0	0	500	614
2	0	0	0	0	501	615
3	0	0	0	0	503	614
4	0	0	0	0	505	615
5	0	0	0	0	508	616
6	0	0	0	0	511	616
7	0	0	0	0	515	617
8	0	0	0	0	517	617
9	0	0	0	0	520	617
10	0	0	0	0	521	616
11	0	0	0	0	520	617
12	0	0	0	0	519	617
13	0	0	0	0	517	616
14	0	0	0	0	514	616
15	0	0	0	0	511	616
0	0	0	0	0	507	616
1	0	0	0	0	503	616
2	0	0	0	0	501	615
3	0	0	0	0	499	615
4	0	0	0	0	498	616
5	0	0	0	0	499	616
6	0	0	0	0	500	616
7	0	0	0	0	502	616
8	0	0	0	0	505	616
9	0	0	0	0	508	617
10	0	0	0	0	510	617
11	0	0	0	0	513	618
12	0	0	0	0	516	618
13	0	0	0	0	519	617
14	0	0	0	0	519	617
15	0	0	0	0	519	616
0	0	0	0	0	518	616
1	0	0	0	0	516	615
2	0	0	0	0	512	615
3	0	0	0	0	508	615
4	0	0	0	0	504	615
5	0	0	0	0	501	615
6	0	0	0	0	499	615
7	0	0	0	0	497	615
8	0	0	0	0	496	615
9	0	0	0	0	497	615
10	0	0	0	0	498	615
11	0	0	0	0	500	616
12	0	0	0	0	502	616
13	0	0	0	0	504	616
14	0	0	0	0	507	615
15	0	0	0	0	509	616
0	0	0	0	0	511	617
1	0	0	0	0	512	616
2	0	0	0	0	512	616
3	0	0	0	0	512	616
4	0	0	0	0	511	616
5	0	0	0	0	508	615
6	0	0	0	0	505	615
7	0	0	0	0	502	615
8	0	0	0	0	499	616
9	0	0	0	0	496	616
10	0	0	0	0	494	616
11	0	0	0	0	492	616
12	0	0	0	0	491	617
13	0	0	0	0	492	616
14	0	0	0	0	493	616
15	0	0	0	0	495	616
0	0	0	0	0	498	616
1	0	0	0	0	502	615
2	0	0	0	0	505	616
3	0	0	0	0	508	616
4	0	0	0	0	511	616
5	0	0	0	0	514	616
6	0	0	0	0	515	616
7	0	0	0	0	515	616
8	0	0	0	0	514	616
9	0	0	0	0	513	616
10	0	0	0	0	510	616
11	0	0	0	0	507	615
12	0	0	0	0	504	616
13	0	0	0	0	501	616
14	0	0	0	0	499	616
15	0	0	0	0	498	616
0	0	0	0	0	497	616
1	0	0	0	0	499	617
2	0	0	0	0	500	617
3	0	0	0	0	501	617
4	0	0	0	0	503	617
5	0	0	0	0	507	616
6	0	0	0	0	510	616
7	0	0	0	0	513	616
8	0	0	0	0	516	616
9	0	0	0	0	519	616
10	0	0	0	0	519	616
11	0	0	0	0	519	616
12	0	0	0	0	519	616
13	0	0	0	0	517	616
14	0	0	0	0	515	615
15	0	0	0	0	511	616
0	0	0	0	0	507	616
1	0	0	0	0	504	615
2	0	0	0	0	501	615
3	0	0	0	0	499	616
4	0	0	0	0	500	616
5	0	0	0	0	500	616
6	0	0	0	0	502	616
7	0	0	0	0	504	616
8	0	0	0	0	508	616
9	0	0	0	0	511	616
10	0	0	0	0	513	616
11	0	0	0	0	516	615
12	0	0	0	0	519	616
13	0	0	0	0	521	615
14	0	0	0	0	522	616
15	0	0	0	0	522	616
0	0	0	0	0	521	616
1	0	0	0	0	519	616
2	0	0	0	0	515	616
3	0	0	0	0	511	615
4	0	0	0	0	508	616
5	0	0	0	0	505	616
6	0	0	0	0	503	616
7	0	0	0	0	502	617
8	0	0	0	0	501	617
9	0	0	0	0	502	616
10	0	0	0	0	503	617
11	0	0	0	0	504	616
12	0	0	0	0	506	617
13	0	0	0	0	509	617
14	0	0	0	0	512	616
15	0	0	0	0	515	616
0	0	0	0	0	516	616
1	0	0	0	0	519	616
2	0	0	0	0	519	616
3	0	0	0	0	519	615
4	0	0	0	0	518	616
5	0	0	0	0	515	615
6	0	0	0	0	512	615
7	0	0	0	0	508	615
8	0	0	0	0	503	616
9	0	0	0	0	500	615
10	0	0	0	0	499	615
11	0	0	0	0	498	615
12	0	0	0	0	497	616
13	0	0	0	0	499	615
14	0	0	0	0	500	616
15	0	0	0	0	503	616
0	0	0	0	0	506	617
1	0	0	0	0	509	616
2	0	0	0	0	512	616
3	0	0	0	0	515	616
4	0	0	0	0	517	617
5	0	0	0	0	519	615
6	0	0	0	0	520	616
7	0	0	0	0	520	615
8	0	0	0	0	519	616
9	0	0	0	0	517	615
10	0	0	0	0	514	615
11	0	0	0	0	510	616
12	0	0	0	0	507	616
13	0	0	0	0	504	616
14	0	0	0	0	500	616
15	0	0	0	0	499	616
0	0	0	0	0	498	616
1	0	0	0	0	497	617
2	0	0	0	0	497	617
3	0	0	0	0	499	617
4	0	0	0	0	501	617
5	0	0	0	0	502	616
6	0	0	0	0	503	617
7	0	0	0	0	504	617
8	0	0	0	0	501	616
9	0	0	0	0	497	615
10	0	0	0	0	490	615
11	0	0	0	0	479	616
12	0	0	0	0	466	617
13	0	0	0	0	452	616
14	0	0	0	0	436	617
15	0	0	0	0	420	615
0	0	0	0	0	405	616
1	0	0	0	0	391	617
2	0	0	0	0	379	617
3	0	0	0	0	370	616
4	0	0	0	0	364	615
5	0	0	0	0	361	615
6	0	0	0	0	363	615
7	0	0	0	0	367	616
8	0	0	0	0	372	616
9	0	0	0	0	380	616
10	0	0	0	0	390	615
11	0	0	0	0	400	616
12	0	0	0	0	409	617
13	0	0	0	0	419	617
14	0	0	0	0	431	616
15	0	0	0	0	448	615
0	0	0	0	0	467	615
1	0	0	0	0	489	615
2	0	0	0	0	514	616
3	0	0	0	0	548	616
4	0	0	0	0	592	616
5	0	0	0	0	647	615
6	0	0	0	0	707	615
7	0	0	0	0	766	615
8	0	0	0	0	828	615
9	0	0	0	0	893	616
10	0	0	0	0	954	615
11	0	0	0	0	1007	615
12	0	0	0	0	1022	615
13	0	0	0	0	1022	616
14	0	0	0	0	1022	616
15	0	0	0	0	1022	615
0	0	0	0	0	1022	615
1	0	0	0	0	1022	615
2	0	0	0	0	1022	615
3	0	0	0	0	1022	616
4	0	0	0	0	1022	616
5	0	0	0	0	1022	615
6	0	0	0	0	1022	615
7	0	0	0	0	1022	616
8	0	0	0	0	1022	616
9	0	0	0	0	982	617
10	0	0	0	0	937	616
11	0	0	0	0	889	616
12	0	0	0	0	845	616
13	0	0	0	0	808	616
14	0	0	0	0	776	617
15	0	0	0	0	747	617
0	0	0	0	0	721	616
1	0	0	0	0	698	616
2	0	0	0	0	676	616
3	0	0	0	0	656	617
4	0	0	0	0	638	617
5	0	0	0	0	621	617
6	0	0	0	0	603	616
7	0	0	0	0	583	616
8	0	0	0	0	562	616
9	0	0	0	0	540	616
10	0	0	0	0	518	615
11	0	0	0	0	497	616
12	0	0	0	0	477	616
13	0	0	0	0	458	615
14	0	0	0	0	441	616
15	0	0	0	0	426	616
0	0	0	0	0	413	616
1	0	0	0	0	402	616
2	0	0	0	0	392	616
3	0	0	0	0	385	616
4	0	0	0	0	380	616
5	0	0	0	0	376	616
6	0	0	0	0	374	616
7	0	0	0	0	372	616
8	0	0	0	0	370	616
9	0	0	0	0	369	616
10	0	0	0	0	367	616
11	0	0	0	0	364	616
12	0	0	0	0	362	616
13	0	0	0	0	359	615
14	0	0	0	0	354	615
15	0	0	0	0	350	616
0	0	0	0	0	345	616
1	0	0	0	0	342	616
2	0	0	0	0	339	615
3	0	0	0	0	337	616
4	0	0	0	0	336	616
5	0	0	0	0	337	616
6	0	0	0	0	340	616
7	0	0	0	0	343	616
8	0	0	0	0	346	616
9	0	0	0	0	350	616
10	0	0	0	0	353	616
11	0	0	0	0	358	617
12	0	0	0	0	361	617
13	0	0	0	0	365	616
14	0	0	0	0	367	616
15	0	0	0	0	367	617
0	0	0	0	0	367	616
1	0	0	0	0	366	616
2	0	0	0	0	363	616
3	0	0	0	0	360	617
4	0	0	0	0	358	616
5	0	0	0	0	355	616
6	0	0	0	0	354	616
7	0	0	0	0	353	616
8	0	0	0	0	354	616
9	0	0	0	0	356	616
10	0	0	0	0	359	616
11	0	0	0	0	362	616
12	0	0	0	0	366	617
13	0	0	0	0	370	616
14	0	0	0	0	374	616
15	0	0	0	0	378	616
0	0	0	0	0	382	616
1	0	0	0	0	386	616
2	0	0	0	0	388	615
3	0	0	0	0	389	615
4	0	0	0	0	389	616
5	0	0	0	0	388	615
6	0	0	0	0	385	615
7	0	0	0	0	383	615
8	0	0	0	0	380	616
9	0	0	0	0	378	616
10	0	0	0	0	376	616
11	0	0	0	0	376	615
12	0	0	0	0	376	616
13	0	0	0	0	378	615
14	0	0	0	0	380	616
15	0	0	0	0	384	615
0	0	0	0	0	388	616
1	0	0	0	0	392	616
2	0	0	0	0	396	615
3	0	0	0	0	400	615
4	0	0	0	0	403	616
5	0	0	0	0	407	615
6	0	0	0	0	409	616
7	0	0	0	0	410	615
8	0	0	0	0	409	616
9	0	0	0	0	408	616
10	0	0	0	0	405	615
11	0	0	0	0	403	615
12	0	0	0	0	400	616
13	0	0	0	0	398	616
14	0	0	0	0	396	616
15	0	0	0	0	395	616
0	0	0	0	0	396	616
1	0	0	0	0	397	617
2	0	0	0	0	399	616
3	0	0	0	0	401	616
4	0	0	0	0	404	617
5	0	0	0	0	408	616
6	0	0	0	0	411	617
7	0	0	0	0	415	616
8	0	0	0	0	418	616
9	0	0	0	0	421	616
10	0	0	0	0	423	617
11	0	0	0	0	422	616
12	0	0	0	0	423	617
13	0	0	0	0	421	616
14	0	0	0	0	417	615
15	0	0	0	0	414	616
0	0	0	0	0	411	616
1	0	0	0	0	407	616
2	0	0	0	0	405	616
3	0	0	0	0	404	615
4	0	0	0	0	403	616
5	0	0	0	0	403	616
6	0	0	0	0	405	616
7	0	0	0	0	408	615
8	0	0	0	0	411	616
9	0	0	0	0	414	616
10	0	0	0	0	417	616
11	0	0	0	0	421	616
12	0	0	0	0	424	617
13	0	0	0	0	426	616
14	0	0	0	0	428	616
15	0	0	0	0	427	616
0	0	0	0	0	426	616
1	0	0	0	0	424	616
2	0	0	0	0	420	617
3	0	0	0	0	418	616
4	0	0	0	0	415	617
5	0	0	0	0	412	616
6	0	0	0	0	410	616
7	0	0	0	0	409	616
8	0	0	0	0	409	616
9	0	0	0	0	409	615
10	0	0	0	0	411	615
11	0	0	0	0	412	615
12	0	0	0	0	415	616
13	0	0	0	0	417	615
14	0	0	0	0	421	615
15	0	0	0	0	425	616
0	0	0	0	0	428	616
1	0	0	0	0	431	616
2	0	0	0	0	432	616
3	0	0	0	0	432	616
4	0	0	0	0	431	616
5	0	0	0	0	429	616
6	0	0	0	0	426	616
7	0	0	0	0	422	616
8	0	0	0	0	419	616
9	0	0	0	0	415	616
10	0	0	0	0	413	617
11	0	0	0	0	411	616
12	0	0	0	0	411	617
13	0	0	0	0	412	616
14	0	0	0	0	414	616
15	0	0	0	0	416	616
0	0	0	0	0	419	615
1	0	0	0	0	422	616
2	0	0	0	0	425	616
3	0	0	0	0	430	617
4	0	0	0	0	433	617
5	0	0	0	0	437	616
6	0	0	0	0	438	616
7	0	0	0	0	439	616
8	0	0	0	0	439	616
9	0	0	0	0	438	616
10	0	0	0	0	435	616
11	0	0	0	0	432	616
12	0	0	0	0	430	616
13	0	0	0	0	427	616
14	0	0	0	0	425	616
15	0	0	0	0	424	616
0	0	0	0	0	424	616
1	0	0	0	0	425	616
2	0	0	0	0	428	616
3	0	0	0	0	430	615
4	0	0	0	0	435	617
5	0	0	0	0	439	616
6	0	0	0	0	444	616
7	0	0	0	0	449	616
8	0	0	0	0	454	616
9	0	0	0	0	459	616
10	0	0	0	0	461	616
11	0	0	0	0	463	617
12	0	0	0	0	463	617
13	0	0	0	0	462	616
14	0	0	0	0	460	616
15	0	0	0	0	457	615
0	0	0	0	0	455	615
1	0	0	0	0	453	616
2	0	0	0	0	452	616
3	0	0	0	0	452	616
4	0	0	0	0	453	616
5	0	0	0	0	455	615
6	0	0	0	0	458	616
7	0	0	0	0	461	616
8	0	0	0	0	465	617
9	0	0	0	0	470	616
10	0	0	0	0	474	616
11	0	0	0	0	480	617
12	0	0	0	0	485	617
13	0	0	0	0	489	616
14	0	0	0	0	492	617
15	0	0	0	0	495	617
0	0	0	0	0	496	617
1	0	0	0	0	496	617
2	0	0	0	0	495	616
3	0	0	0	0	493	616
4	0	0	0	0	492	617
5	0	0	0	0	491	616
6	0	0	0	0	491	615
7	0	0	0	0	492	615
8	0	0	0	0	494	616
9	0	0	0	0	496	616
10	0	0	0	0	500	616
11	0	0	0	0	503	616
12	0	0	0	0	508	616
13	0	0	0	0	512	617
14	0	0	0	0	518	616
15	0	0	0	0	523	616
0	0	0	0	0	527	616
1	0	0	0	0	532	616
2	0	0	0	0	536	616
3	0	0	0	0	537	616
4	0	0	0	0	538	617
5	0	0	0	0	537	615
6	0	0	0	0	536	616
7	0	0	0	0	534	615
8	0	0	0	0	531	616
9	0	0	0	0	529	616
10	0	0	0	0	528	616
11	0	0	0	0	527	616
12	0	0	0	0	529	616
13	0	0	0	0	531	615
14	0	0	0	0	533	616
15	0	0	0	0	536	616
0	0	0	0	0	540	616
1	0	0	0	0	543	616
2	0	0	0	0	548	615
3	0	0	0	0	552	616
4	0	0	0	0	556	616
5	0	0	0	0	560	615
6	0	0	0	0	563	615
7	0	0	0	0	564	616
8	0	0	0	0	564	616
9	0	0	0	0	563	616
10	0	0	0	0	561	616
11	0	0	0	0	558	616
12	0	0	0	0	554	616
13	0	0	0	0	552	616
14	0	0	0	0	550	616
15	0	0	0	0	549	615
0	0	0	0	0	549	616
1	0	0	0	0	550	616
2	0	0	0	0	551	616
3	0	0	0	0	554	616
4	0	0	0	0	556	616
5	0	0	0	0	559	616
6	0	0	0	0	563	616
7	0	0	0	0	566	616
8	0	0	0	0	569	616
9	0	0	0	0	572	616
10	0	0	0	0	573	616
11	0	0	0	0	573	615
12	0	0	0	0	572	617
13	0	0	0	0	570	616
14	0	0	0	0	566	616
15	0	0	0	0	563	616
0	0	0	0	0	560	616
1	0	0	0	0	556	616
2	0	0	0	0	555	616
3	0	0	0	0	553	616
4	0	0	0	0	552	616
5	0	0	0	0	553	616
6	0	0	0	0	555	616
7	0	0	0	0	556	616
8	0	0	0	0	558	616
9	0	0	0	0	561	616
10	0	0	0	0	563	615
11	0	0	0	0	567	616
12	0	0	0	0	569	616
13	0	0	0	0	571	615
14	0	0	0	0	571	616
15	0	0	0	0	571	615
0	0	0	0	0	569	615
1	0	0	0	0	567	615
2	0	0	0	0	563	616
3	0	0	0	0	560	615
4	0	0	0	0	556	615
5	0	0	0	0	551	615
6	0	0	0	0	549	616
7	0	0	0	0	547	616
8	0	0	0	0	546	617
9	0	0	0	0	546	617
10	0	0	0	0	548	618
11	0	0	0	0	549	619
12	0	0	0	0	551	618
13	0	0	0	0	554	618
14	0	0	0	0	556	618
15	0	0	0	0	559	617
0	0	0	0	0	561	617
1	0	0	0	0	563	616
2	0	0	0	0	564	615
3	0	0	0	0	563	615
4	0	0	0	0	561	615
5	0	0	0	0	558	614
6	0	0	0	0	554	614
7	0	0	0	0	550	614
8	0	0	0	0	546	614
9	0	0	0	0	543	614
10	0	0	0	0	540	615
11	0	0	0	0	537	615
12	0	0	0	0	536	617
13	0	0	0	0	536	617
14	0	0	0	0	536	618
15	0	0	0	0	539	618
0	0	0	0	0	540	618
1	0	0	0	0	542	619
2	0	0	0	0	545	619
3	0	0	0	0	548	620
4	0	0	0	0	550	620
5	0	0	0	0	552	619
6	0	0	0	0	553	617
7	0	0	0	0	552	616
8	0	0	0	0	551	616
9	0	0	0	0	548	615
10	0	0	0	0	544	614
11	0	0	0	0	540	612
12	0	0	0	0	536	613
13	0	0	0	0	533	614
14	0	0	0	0	531	615
15	0	0	0	0	529	616
0	0	0	0	0	528	617
1	0	0	0	0	528	617
2	0	0	0	0	529	617
3	0	0	0	0	530	617
4	0	0	0	0	532	618
5	0	0	0	0	535	617
6	0	0	0	0	537	617
7	0	0	0	0	540	616
8	0	0	0	0	543	617
9	0	0	0	0	546	616
10	0	0	0	0	547	615
11	0	0	0	0	547	615
12	0	0	0	0	545	615
13	0	0	0	0	543	615
14	0	0	0	0	540	615
15	0	0	0	0	536	615
0	0	0	0	0	531	615
1	0	0	0	0	528	615
2	0	0	0	0	526	615
3	0	0	0	0	524	616
4	0	0	0	0	523	618
5	0	0	0	0	523	618
6	0	0	0	0	524	618
7	0	0	0	0	525	618
8	0	0	0	0	527	617
9	0	0	0	0	531	617
10	0	0	0	0	534	617
11	0	0	0	0	537	616
12	0	0	0	0	539	615
13	0	0	0	0	541	615
14	0	0	0	0	542	615
15	0	0	0	0	541	615
0	0	0	0	0	540	615
1	0	0	0	0	538	615
2	0	0	0	0	535	615
3	0	0	0	0	531	615
4	0	0	0	0	527	615
5	0	0	0	0	524	615
6	0	0	0	0	521	615
7	0	0	0	0	519	615
8	0	0	0	0	518	616
9	0	0	0	0	519	617
10	0	0	0	0	520	617
11	0	0	0	0	521	617
12	0	0	0	0	524	617
13	0	0	0	0	527	616
14	0	0	0	0	529	616
15	0	0	0	0	533	615
0	0	0	0	0	536	615
1	0	0	0	0	538	615
2	0	0	0	0	539	615
3	0	0	0	0	539	615
4	0	0	0	0	537	616
5	0	0	0	0	535	615
6	0	0	0	0	531	616
7	0	0	0	0	527	616
8	0	0	0	0	524	616
9	0	0	0	0	521	615
10	0	0	0	0	519	615
11	0	0	0	0	517	615
12	0	0	0	0	516	616
13	0	0	0	0	516	616
14	0	0	0	0	518	616
15	0	0	0	0	519	616
0	0	0	0	0	523	616
1	0	0	0	0	526	616
2	0	0	0	0	529	616
3	0	0	0	0	534	616
4	0	0	0	0	536	616
5	0	0	0	0	539	615
6	0	0	0	0	539	615
7	0	0	0	0	539	615
8	0	0	0	0	538	615
9	0	0	0	0	536	615
10	0	0	0	0	533	616
11	0	0	0	0	529	616
12	0	0	0	0	526	617
13	0	0	0	0	523	617
14	0	0	0	0	521	617
15	0	0	0	0	519	617
0	0	0	0	0	518	617
1	0	0	0	0	518	616
2	0	0	0	0	519	617
3	0	0	0	0	520	616
4	0	0	0	0	523	617
5	0	0	0	0	526	617
6	0	0	0	0	528	616
7	0	0	0	0	532	616
8	0	0	0	0	535	616
9	0	0	0	0	538	615
10	0	0	0	0	539	615
11	0	0	0	0	539	615
12	0	0	0	0	538	616
13	0	0	0	0	536	615
14	0	0	0	0	533	616
15	0	0	0	0	529	616
0	0	0	0	0	526	616
1	0	0	0	0	522	616
2	0	0	0	0	520	616
3	0	0	0	0	519	616
4	0	0	0	0	519	616
5	0	0	0	0	519	615
6	0	0	0	0	520	616
7	0	0	0	0	521	616
8	0	0	0	0	524	616
9	0	0	0	0	526	615
10	0	0	0	0	529	616
11	0	0	0	0	533	616
12	0	0	0	0	535	616
13	0	0	0	0	537	616
14	0	0	0	0	539	616
15	0	0	0	0	539	616
0	0	0	0	0	538	616
1	0	0	0	0	536	616
2	0	0	0	0	533	617
3	0	0	0	0	529	616
4	0	0	0	0	525	617
5	0	0	0	0	522	617
6	0	0	0	0	520	617
7	0	0	0	0	518	617
8	0	0	0	0	518	617
9	0	0	0	0	519	617
10	0	0	0	0	519	615
11	0	0	0	0	521	616
12	0	0	0	0	523	616
13	0	0	0	0	526	616
14	0	0	0	0	528	616
15	0	0	0	0	531	615
0	0	0	0	0	534	615
1	0	0	0	0	536	615
2	0	0	0	0	536	616
3	0	0	0	0	536	616
4	0	0	0	0	534	616
5	0	0	0	0	532	616
6	0	0	0	0	528	616
7	0	0	0	0	524	615
8	0	0	0	0	520	616
9	0	0	0	0	516	616
10	0	0	0	0	514	617
11	0	0	0	0	512	617
12	0	0	0	0	512	617
13	0	0	0	0	513	616
14	0	0	0	0	515	617
15	0	0	0	0	517	616
0	0	0	0	0	519	616
1	0	0	0	0	521	616
2	0	0	0	0	524	615
3	0	0	0	0	527	615
4	0	0	0	0	530	615
5	0	0	0	0	533	615
6	0	0	0	0	534	615
7	0	0	0	0	533	615
8	0	0	0	0	532	616
9	0	0	0	0	530	616
10	0	0	0	0	526	615
11	0	0	0	0	523	616
12	0	0	0	0	519	616
13	0	0	0	0	516	615
14	0	0	0	0	513	616
15	0	0	0	0	512	616
0	0	0	0	0	511	617
1	0	0	0	0	511	616
2	0	0	0	0	513	616
3	0	0	0	0	515	615
4	0	0	0	0	518	616
5	0	0	0	0	520	616
6	0	0	0	0	523	616
7	0	0	0	0	524	615
8	0	0	0	0	527	616
9	0	0	0	0	529	616
10	0	0	0	0	530	615
11	0	0	0	0	530	615
12	0	0	0	0	529	616
13	0	0	0	0	527	616
14	0	0	0	0	524	617
15	0	0	0	0	520	615
0	0	0	0	0	517	615
1	0	0	0	0	514	616
2	0	0	0	0	512	616
3	0	0	0	0	510	615
4	0	0	0	0	509	616
5	0	0	0	0	509	616
6	0	0	0	0	509	615
7	0	0	0	0	511	616
8	0	0	0	0	513	615
9	0	0	0	0	515	616
10	0	0	0	0	518	615
11	0	0	0	0	521	616
12	0	0	0	0	524	616
13	0	0	0	0	526	615
14	0	0	0	0	527	615
15	0	0	0	0	527	615
0	0	0	0	0	526	615
1	0	0	0	0	524	615
2	0	0	0	0	520	615
3	0	0	0	0	515	615
4	0	0	0	0	512	616
5	0	0	0	0	509	615
6	0	0	0	0	507	616
7	0	0	0	0	505	616
8	0	0	0	0	504	616
9	0	0	0	0	504	616
10	0	0	0	0	505	616
11	0	0	0	0	507	617
12	0	0	0	0	509	617
13	0	0	0	0	512	617
14	0	0	0	0	515	617
15	0	0	0	0	518	616
0	0	0	0	0	520	616
1	0	0	0	0	523	616
2	0	0	0	0	524	615
3	0	0	0	0	524	615
4	0	0	0	0	523	616
5	0	0	0	0	521	615
6	0	0	0	0	518	615
7	0	0	0	0	514	615
8	0	0	0	0	511	616
9	0	0	0	0	507	615
10	0	0	0	0	505	615
11	0	0	0	0	504	615
12	0	0	0	0	503	616
13	0	0	0	0	503	615
14	0	0	0	0	504	615
15	0	0	0	0	506	616
0	0	0	0	0	509	616
1	0	0	0	0	512	616
2	0	0	0	0	515	616
3	0	0	0	0	517	616
4	0	0	0	0	520	617
5	0	0	0	0	522	616
6	0	0	0	0	523	617
7	0	0	0	0	523	616
8	0	0	0	0	522	616
9	0	0	0	0	521	615
10	0	0	0	0	518	616
11	0	0	0	0	514	616
12	0	0	0	0	511	616
13	0	0	0	0	507	616
14	0	0	0	0	504	617
15	0	0	0	0	502	616
0	0	0	0	0	501	616
1	0	0	0	0	501	615
2	0	0	0	0	502	616
3	0	0	0	0	504	616
4	0	0	0	0	506	616
5	0	0	0	0	509	616
6	0	0	0	0	512	616
7	0	0	0	0	515	616
8	0	0	0	0	517	616
9	0	0	0	0	520	616
10	0	0	0	0	522	616
11	0	0	0	0	522	616
12	0	0	0	0	521	616
13	0	0	0	0	519	615
14	0	0	0	0	515	615
15	0	0	0	0	512	615
0	0	0	0	0	509	616
1	0	0	0	0	506	616
2	0	0	0	0	504	616
3	0	0	0	0	501	616
4	0	0	0	0	499	617
5	0	0	0	0	499	617
6	0	0	0	0	500	617
7	0	0	0	0	502	617
8	0	0	0	0	505	617
9	0	0	0	0	508	616
10	0	0	0	0	512	617
11	0	0	0	0	515	617
12	0	0	0	0	517	618
13	0	0	0	0	519	617
14	0	0	0	0	521	616
15	0	0	0	0	521	616
0	0	0	0	0	519	615
1	0	0	0	0	517	615
2	0	0	0	0	512	615
3	0	0	0	0	509	614
4	0	0	0	0	505	614
5	0	0	0	0	502	613
6	0	0	0	0	500	614
7	0	0	0	0	497	615
8	0	0	0	0	497	616
9	0	0	0	0	497	616
10	0	0	0	0	497	616
11	0	0	0	0	498	617
12	0	0	0	0	500	616
13	0	0	0	0	503	616
14	0	0	0	0	505	616
15	0	0	0	0	508	616
0	0	0	0	0	510	617
1	0	0	0	0	512	616
2	0	0	0	0	512	616
3	0	0	0	0	512	616
4	0	0	0	0	511	616
5	0	0	0	0	509	615
6	0	0	0	0	505	615
7	0	0	0	0	502	615
8	0	0	0	0	499	615
9	0	0	0	0	496	615
10	0	0	0	0	493	615
11	0	0	0	0	491	616
12	0	0	0	0	490	617
13	0	0	0	0	490	617
14	0	0	0	0	491	617
15	0	0	0	0	493	617
0	0	0	0	0	496	617
1	0	0	0	0	499	616
2	0	0	0	0	502	616
3	0	0	0	0	506	616
4	0	0	0	0	509	616
5	0	0	0	0	513	615
6	0	0	0	0	515	615
7	0	0	0	0	516	616
8	0	0	0	0	516	617
9	0	0	0	0	515	617
10	0	0	0	0	512	617
11	0	0	0	0	508	618
12	0	0	0	0	505	617
13	0	0	0	0	502	616
14	0	0	0	0	501	615
15	0	0	0	0	500	615
0	0	0	0	0	499	616
1	0	0	0	0	500	617
2	0	0	0	0	500	617
3	0	0	0	0	501	617
4	0	0	0	0	504	617
5	0	0	0	0	507	616
6	0	0	0	0	510	615
7	0	0	0	0	513	615
8	0	0	0	0	516	615
9	0	0	0	0	519	615
10	0	0	0	0	520	615
11	0	0	0	0	519	615
12	0	0	0	0	519	616
13	0	0	0	0	518	616
14	0	0	0	0	515	616
15	0	0	0	0	512	616
0	0	0	0	0	508	616
1	0	0	0	0	505	617
2	0	0	0	0	503	616
3	0	0	0	0	502	616
4	0	0	0	0	502	616
5	0	0	0	0	502	615
6	0	0	0	0	502	615
7	0	0	0	0	504	615
8	0	0	0	0	506	616
9	0	0	0	0	509	615
10	0	0	0	0	512	615
11	0	0	0	0	515	615
12	0	0	0	0	517	615
13	0	0	0	0	519	615
14	0	0	0	0	521	615
15	0	0	0	0	521	615
0	0	0	0	0	519	615
1	0	0	0	0	518	615
2	0	0	0	0	513	616
3	0	0	0	0	510	617
4	0	0	0	0	506	618
5	0	0	0	0	503	617
6	0	0	0	0	501	617
7	0	0	0	0	498	616
8	0	0	0	0	497	616
9	0	0	0	0	497	616
10	0	0	0	0	499	616
11	0	0	0	0	501	615
12	0	0	0	0	504	616
13	0	0	0	0	506	616
14	0	0	0	0	509	615
15	0	0	0	0	513	616
0	0	0	0	0	516	616
1	0	0	0	0	519	616
2	0	0	0	0	520	615
3	0	0	0	0	520	615
4	0	0	0	0	520	616
5	0	0	0	0	518	615
6	0	0	0	0	514	616
7	0	0	0	0	510	616
8	0	0	0	0	506	617
9	0	0	0	0	503	617
10	0	0	0	0	500	617
11	0	0	0	0	499	617
12	0	0	0	0	499	618
13	0	0	0	0	499	617
14	0	0	0	0	500	616
15	0	0	0	0	502	616
0	0	0	0	0	505	615
1	0	0	0	0	507	615
2	0	0	0	0	510	616
3	0	0	0	0	512	616
4	0	0	0	0	515	617
5	0	0	0	0	518	617
6	0	0	0	0	519	616
7	0	0	0	0	519	615
8	0	0	0	0	519	616
9	0	0	0	0	516	615
10	0	0	0	0	513	615
11	0	0	0	0	510	615
12	0	0	0	0	506	615
13	0	0	0	0	502	616
14	0	0	0	0	499	616
15	0	0	0	0	497	616
0	0	0	0	0	496	616
1	0	0	0	0	496	616
2	0	0	0	0	496	616
3	0	0	0	0	496	616
4	0	0	0	0	496	616
5	0	0	0	0	496	615
6	0	0	0	0	494	615
7	0	0	0	0	491	615
8	0	0	0	0	485	615
9	0	0	0	0	477	616
10	0	0	0	0	467	616
11	0	0	0	0	455	616
12	0	0	0	0	443	618
13	0	0	0	0	430	617
14	0	0	0	0	415	616
15	0	0	0	0	401	616
0	0	0	0	0	388	616
1	0	0	0	0	380	616
2	0	0	0	0	374	616
3	0	0	0	0	371	616
4	0	0	0	0	370	617
5	0	0	0	0	374	616
6	0	0	0	0	380	616
7	0	0	0	0	387	615
8	0	0	0	0	398	615
9	0	0	0	0	409	615
10	0	0	0	0	420	615
11	0	0	0	0	432	616
12	0	0	0	0	446	616
13	0	0	0	0	462	616
14	0	0	0	0	482	616
15	0	0	0	0	505	616
0	0	0	0	0	533	616
1	0	0	0	0	566	616
2	0	0	0	0	606	617
3	0	0	0	0	654	617
4	0	0	0	0	707	616
5	0	0	0	0	762	616
6	0	0	0	0	821	616
7	0	0	0	0	880	615
8	0	0	0	0	935	615
9	0	0	0	0	984	615
10	0	0	0	0	1020	615
11	0	0	0	0	1022	615
12	0	0	0	0	1022	616
13	0	0	0	0	1022	615
14	0	0	0	0	1022	616
15	0	0	0	0	1022	615
0	0	0	0	0	1022	616
1	0	0	0	0	1022	616
2	0	0	0	0	1022	615
3	0	0	0	0	1022	615
4	0	0	0	0	1022	617
5	0	0	0	0	1010	616
6	0	0	0	0	971	616
7	0	0	0	0	927	616
8	0	0	0	0	882	615
9	0	0	0	0	837	615
10	0	0	0	0	798	615
11	0	0	0	0	764	615
12	0	0	0	0	733	616
13	0	0	0	0	706	616
14	0	0	0	0	681	616
15	0	0	0	0	659	616
0	0	0	0	0	641	616
1	0	0	0	0	624	617
2	0	0	0	0	610	615
3	0	0	0	0	598	616
4	0	0	0	0	585	616
5	0	0	0	0	570	616
6	0	0	0	0	555	615
7	0	0	0	0	538	615
8	0	0	0	0	521	616
9	0	0	0	0	503	616
10	0	0	0	0	485	616
11	0	0	0	0	467	616
12	0	0	0	0	450	617
13	0	0	0	0	435	615
14	0	0	0	0	422	616
15	0	0	0	0	410	615
0	0	0	0	0	399	617
1	0	0	0	0	392	617
2	0	0	0	0	387	617
3	0	0	0	0	382	616
4	0	0	0	0	380	617
5	0	0	0	0	378	617
6	0	0	0	0	377	616
7	0	0	0	0	377	616
8	0	0	0	0	378	617
9	0	0	0	0	378	616
10	0	0	0	0	378	616
11	0	0	0	0	376	615
12	0	0	0	0	374	616
13	0	0	0	0	371	616
14	0	0	0	0	368	615
15	0	0	0	0	364	616
0	0	0	0	0	360	616
1	0	0	0	0	357	616
2	0	0	0	0	355	616
3	0	0	0	0	354	615
4	0	0	0	0	354	616
5	0	0	0	0	354	615
6	0	0	0	0	356	616
7	0	0	0	0	358	615
8	0	0	0	0	361	616
9	0	0	0	0	365	615
10	0	0	0	0	369	615
11	0	0	0	0	373	615
12	0	0	0	0	377	616
13	0	0	0	0	380	615
14	0	0	0	0	383	616
15	0	0	0	0	384	616
0	0	0	0	0	384	616
1	0	0	0	0	383	616
2	0	0	0	0	381	616
3	0	0	0	0	378	616
4	0	0	0	0	375	616
5	0	0	0	0	372	616
6	0	0	0	0	371	616
7	0	0	0	0	370	616
8	0	0	0	0	371	615
9	0	0	0	0	372	615
10	0	0	0	0	374	616
11	0	0	0	0	377	616
12	0	0	0	0	381	616
13	0	0	0	0	385	616
14	0	0	0	0	388	616
15	0	0	0	0	393	616
0	0	0	0	0	397	616
1	0	0	0	0	401	616
2	0	0	0	0	404	616
3	0	0	0	0	405	615
4	0	0	0	0	405	616
5	0	0	0	0	404	616
6	0	0	0	0	402	615
7	0	0	0	0	399	616
8	0	0	0	0	396	616
9	0	0	0	0	394	615
10	0	0	0	0	393	617
11	0	0	0	0	391	616
12	0	0	0	0	391	617
13	0	0	0	0	393	616
14	0	0	0	0	395	616
15	0	0	0	0	398	616
0	0	0	0	0	401	616
1	0	0	0	0	405	616
2	0	0	0	0	409	615
3	0	0	0	0	413	616
4	0	0	0	0	417	616
5	0	0	0	0	420	616
6	0	0	0	0	423	615
7	0	0	0	0	422	615
8	0	0	0	0	421	615
9	0	0	0	0	420	615
10	0	0	0	0	418	615
11	0	0	0	0	415	615
12	0	0	0	0	413	616
13	0	0	0	0	410	616
14	0	0	0	0	408	616
15	0	0	0	0	407	616
0	0	0	0	0	406	616
1	0	0	0	0	406	615
2	0	0	0	0	408	616
3	0	0	0	0	410	615
4	0	0	0	0	413	616
5	0	0	0	0	416	616
6	0	0	0	0	419	616
7	0	0	0	0	424	616
8	0	0	0	0	428	616
9	0	0	0	0	431	616
10	0	0	0	0	433	616
11	0	0	0	0	433	616
12	0	0	0	0	433	617
13	0	0	0	0	432	616
14	0	0	0	0	429	616
15	0	0	0	0	425	616
0	0	0	0	0	421	616
1	0	0	0	0	417	617
2	0	0	0	0	415	616
3	0	0	0	0	414	616
4	0	0	0	0	414	617
5	0	0	0	0	414	616
6	0	0	0	0	415	616
7	0	0	0	0	417	616
8	0	0	0	0	421	616
9	0	0	0	0	424	615
10	0	0	0	0	427	615
11	0	0	0	0	431	616
12	0	0	0	0	433	616
13	0	0	0	0	436	615
14	0	0	0	0	438	615
15	0	0	0	0	437	615
0	0	0	0	0	436	616
1	0	0	0	0	435	616
2	0	0	0	0	432	616
3	0	0	0	0	430	616
4	0	0	0	0	426	616
5	0	0	0	0	423	615
6	0	0	0	0	421	616
7	0	0	0	0	419	616
8	0	0	0	0	418	616
9	0	0	0	0	419	616
10	0	0	0	0	420	617
11	0	0	0	0	422	617
12	0	0	0	0	424	618
13	0	0	0	0	427	617
14	0	0	0	0	430	617
15	0	0	0	0	433	617
0	0	0	0	0	436	616
1	0	0	0	0	439	615
2	0	0	0	0	440	615
3	0	0	0	0	441	615
4	0	0	0	0	440	615
5	0	0	0	0	439	615
6	0	0	0	0	436	615
7	0	0	0	0	432	616
8	0	0	0	0	430	616
9	0	0	0	0	426	616
10	0	0	0	0	424	616
11	0	0	0	0	423	616
12	0	0	0	0	422	616
13	0	0	0	0	423	616
14	0	0	0	0	424	616
15	0	0	0	0	426	617
0	0	0	0	0	429	617
1	0	0	0	0	432	617
2	0	0	0	0	435	617
3	0	0	0	0	440	617
4	0	0	0	0	444	617
5	0	0	0	0	447	616
6	0	0	0	0	448	616
7	0	0	0	0	449	615
8	0	0	0	0	449	616
9	0	0	0	0	448	615
10	0	0	0	0	446	616
11	0	0	0	0	443	615
12	0	0	0	0	440	616
13	0	0	0	0	438	615
14	0	0	0	0	436	616
15	0	0	0	0	436	616
0	0	0	0	0	437	616
1	0	0	0	0	438	616
2	0	0	0	0	440	616
3	0	0	0	0	443	615
4	0	0	0	0	446	617
5	0	0	0	0	450	617
6	0	0	0	0	455	617
7	0	0	0	0	460	617
8	0	0	0	0	464	617
9	0	0	0	0	468	618
10	0	0	0	0	471	617
11	0	0	0	0	472	617
12	0	0	0	0	473	617
13	0	0	0	0	473	616
14	0	0	0	0	471	616
15	0	0	0	0	470	615
0	0	0	0	0	467	616
1	0	0	0	0	465	615
2	0	0	0	0	463	615
3	0	0	0	0	463	615
4	0	0	0	0	463	615
5	0	0	0	0	465	615
6	0	0	0	0	468	615
7	0	0	0	0	471	615
8	0	0	0	0	476	616
9	0	0	0	0	481	616
10	0	0	0	0	486	616
11	0	0	0	0	491	617
12	0	0	0	0	496	618
13	0	0	0	0	501	617
14	0	0	0	0	505	618
15	0	0	0	0	507	617
0	0	0	0	0	508	617
1	0	0	0	0	507	616
2	0	0	0	0	505	616
3	0	0	0	0	504	615
4	0	0	0	0	501	616
5	0	0	0	0	499	616
6	0	0	0	0	497	615
7	0	0	0	0	496	615
8	0	0	0	0	497	615
9	0	0	0	0	499	615
10	0	0	0	0	502	615
11	0	0	0	0	505	615
12	0	0	0	0	510	616
13	0	0	0	0	514	615
14	0	0	0	0	518	615
15	0	0	0	0	523	616
0	0	0	0	0	527	617
1	0	0	0	0	531	617
2	0	0	0	0	534	617
3	0	0	0	0	535	617
4	0	0	0	0	535	617
5	0	0	0	0	535	616
6	0	0	0	0	533	615
7	0	0	0	0	531	616
8	0	0	0	0	528	615
9	0	0	0	0	526	615
10	0	0	0	0	525	615
11	0	0	0	0	524	615
12	0	0	0	0	524	616
13	0	0	0	0	525	615
14	0	0	0	0	527	616
15	0	0	0	0	529	616
0	0	0	0	0	533	616
1	0	0	0	0	537	616
2	0	0	0	0	541	616
3	0	0	0	0	545	616
4	0	0	0	0	548	617
5	0	0	0	0	552	616
6	0	0	0	0	555	617
7	0	0	0	0	555	616
8	0	0	0	0	555	616
9	0	0	0	0	554	615
10	0	0	0	0	551	615
11	0	0	0	0	547	615
12	0	0	0	0	543	615
13	0	0	0	0	540	615
14	0	0	0	0	537	616
15	0	0	0	0	536	615
0	0	0	0	0	535	616
1	0	0	0	0	536	615
2	0	0	0	0	538	616
3	0	0	0	0	540	616
4	0	0	0	0	543	617
5	0	0	0	0	545	616
6	0	0	0	0	548	616
7	0	0	0	0	552	616
8	0	0	0	0	555	616
9	0	0	0	0	558	616
10	0	0	0	0	560	616
11	0	0	0	0	560	616
12	0	0	0	0	559	617
13	0	0	0	0	557	616
14	0	0	0	0	555	615
15	0	0	0	0	551	616
0	0	0	0	0	547	616
1	0	0	0	0	543	616
2	0	0	0	0	542	616
3	0	0	0	0	540	616
4	0	0	0	0	539	616
5	0	0	0	0	540	616
6	0	0	0	0	541	616
7	0	0	0	0	543	617
8	0	0	0	0	546	616
9	0	0	0	0	548	616
10	0	0	0	0	551	616
11	0	0	0	0	555	616
12	0	0	0	0	557	616
13	0	0	0	0	559	616
14	0	0	0	0	560	616
15	0	0	0	0	560	616
0	0	0	0	0	559	616
1	0	0	0	0	556	616
2	0	0	0	0	553	616
3	0	0	0	0	550	615
4	0	0	0	0	546	617
5	0	0	0	0	542	616
6	0	0	0	0	539	616
7	0	0	0	0	537	616
8	0	0	0	0	536	617
9	0	0	0	0	536	617
10	0	0	0	0	537	616
11	0	0	0	0	538	617
12	0	0	0	0	540	617
13	0	0	0	0	543	617
14	0	0	0	0	546	616
15	0	0	0	0	549	616
0	0	0	0	0	551	616
1	0	0	0	0	554	616
2	0	0	0	0	555	616
3	0	0	0	0	554	616
4	0	0	0	0	553	616
5	0	0	0	0	551	616
6	0	0	0	0	548	616
7	0	0	0	0	544	616
8	0	0	0	0	540	616
9	0	0	0	0	536	616
10	0	0	0	0	534	616
11	0	0	0	0	531	616
12	0	0	0	0	529	616
13	0	0	0	0	529	616
14	0	0	0	0	529	616
15	0	0	0	0	530	616
0	0	0	0	0	532	616
1	0	0	0	0	535	616
2	0	0	0	0	537	616
3	0	0	0	0	541	616
4	0	0	0	0	543	616
5	0	0	0	0	545	615
6	0	0	0	0	547	615
7	0	0	0	0	546	615
8	0	0	0	0	545	616
9	0	0	0	0	543	617
10	0	0	0	0	540	617
11	0	0	0	0	536	616
12	0	0	0	0	532	617
13	0	0	0	0	528	616
14	0	0	0	0	526	616
15	0	0	0	0	524	616
0	0	0	0	0	523	616
1	0	0	0	0	524	616
2	0	0	0	0	524	616
3	0	0	0	0	526	615
4	0	0	0	0	528	617
5	0	0	0	0	530	616
6	0	0	0	0	532	615
7	0	0	0	0	536	615
8	0	0	0	0	539	616
9	0	0	0	0	540	616
10	0	0	0	0	541	615
11	0	0	0	0	540	615
12	0	0	0	0	539	616
13	0	0	0	0	537	615
14	0	0	0	0	535	616
15	0	0	0	0	531	616
0	0	0	0	0	526	616
1	0	0	0	0	523	616
2	0	0	0	0	521	616
3	0	0	0	0	518	617
4	0	0	0	0	517	617
5	0	0	0	0	518	616
6	0	0	0	0	519	616
7	0	0	0	0	521	616
8	0	0	0	0	524	616
9	0	0	0	0	526	616
10	0	0	0	0	528	616
11	0	0	0	0	531	616
12	0	0	0	0	534	617
13	0	0	0	0	536	616
14	0	0	0	0	537	616
15	0	0	0	0	536	616
0	0	0	0	0	536	616
1	0	0	0	0	535	617
2	0	0	0	0	531	616
3	0	0	0	0	527	616
4	0	0	0	0	524	617
5	0	0	0	0	519	616
6	0	0	0	0	516	616
7	0	0	0	0	515	616
8	0	0	0	0	514	616
9	0	0	0	0	514	616
10	0	0	0	0	515	616
11	0	0	0	0	516	616
12	0	0	0	0	519	616
13	0	0	0	0	521	615
14	0	0	0	0	524	615
15	0	0	0	0	527	615
0	0	0	0	0	530	616
1	0	0	0	0	532	616
2	0	0	0	0	534	616
3	0	0	0	0	533	616
4	0	0	0	0	532	616
5	0	0	0	0	531	615
6	0	0	0	0	528	615
7	0	0	0	0	524	615
8	0	0	0	0	520	616
9	0	0	0	0	517	616
10	0	0	0	0	515	616
11	0	0	0	0	513	616
12	0	0	0	0	512	616
13	0	0	0	0	513	616
14	0	0	0	0	514	616
15	0	0	0	0	516	616
0	0	0	0	0	519	616
1	0	0	0	0	522	616
2	0	0	0	0	525	615
3	0	0	0	0	529	616
4	0	0	0	0	531	616
5	0	0	0	0	534	616
6	0	0	0	0	536	615
7	0	0	0	0	536	616
8	0	0	0	0	535	616
9	0	0	0	0	534	616
10	0	0	0	0	531	616
11	0	0	0	0	527	616
12	0	0	0	0	524	616
13	0	0	0	0	520	616
14	0	0	0	0	518	616
15	0	0	0	0	515	616
0	0	0	0	0	514	616
1	0	0	0	0	514	615
2	0	0	0	0	515	615
3	0	0	0	0	516	616
4	0	0	0	0	518	617
5	0	0	0	0	521	617
6	0	0	0	0	524	616
7	0	0	0	0	527	616
8	0	0	0	0	530	616
9	0	0	0	0	533	617
10	0	0	0	0	535	616
11	0	0	0	0	534	616
12	0	0	0	0	533	616
13	0	0	0	0	531	616
14	0	0	0	0	528	616
15	0	0	0	0	525	616
0	0	0	0	0	521	616
1	0	0	0	0	517	616
2	0	0	0	0	515	616
3	0	0	0	0	513	615
4	0	0	0	0	512	617
5	0	0	0	0	512	615
6	0	0	0	0	513	616
7	0	0	0	0	515	616
8	0	0	0	0	518	616
9	0	0	0	0	520	616
10	0	0	0	0	523	615
11	0	0	0	0	526	615
12	0	0	0	0	529	616
13	0	0	0	0	531	615
14	0	0	0	0	533	616
15	0	0	0	0	532	616
0	0	0	0	0	532	616
1	0	0	0	0	531	616
2	0	0	0	0	528	616
3	0	0	0	0	524	616
4	0	0	0	0	521	617
5	0	0	0	0	518	617
6	0	0	0	0	515	616
7	0	0	0	0	514	617
8	0	0	0	0	513	617
9	0	0	0	0	513	618
10	0	0	0	0	515	618
11	0	0	0	0	515	616
12	0	0	0	0	516	617
13	0	0	0	0	519	615
14	0	0	0	0	522	616
15	0	0	0	0	525	616
0	0	0	0	0	527	617
1	0	0	0	0	529	616
2	0	0	0	0	531	615
3	0	0	0	0	530	614
4	0	0	0	0	530	615
5	0	0	0	0	528	615
6	0	0	0	0	525	614
7	0	0	0	0	522	614
8	0	0	0	0	518	614
9	0	0	0	0	515	614
10	0	0	0	0	512	616
11	0	0	0	0	510	617
12	0	0	0	0	509	618
13	0	0	0	0	509	617
14	0	0	0	0	510	616
15	0	0	0	0	511	616
0	0	0	0	0	513	616
1	0	0	0	0	515	616
2	0	0	0	0	518	616
3	0	0	0	0	523	616
4	0	0	0	0	525	616
5	0	0	0	0	527	616
6	0	0	0	0	528	616
7	0	0	0	0	528	615
8	0	0	0	0	527	616
9	0	0	0	0	525	615
10	0	0	0	0	522	615
11	0	0	0	0	519	615
12	0	0	0	0	515	615
13	0	0	0	0	511	615
14	0	0	0	0	509	615
15	0	0	0	0	508	615
0	0	0	0	0	507	617
1	0	0	0	0	507	617
2	0	0	0	0	508	617
3	0	0	0	0	510	617
4	0	0	0	0	512	617
5	0	0	0	0	515	616
6	0	0	0	0	518	616
7	0	0	0	0	521	616
8	0	0	0	0	524	616
9	0	0	0	0	526	616
10	0	0	0	0	528	616
11	0	0	0	0	528	616
12	0	0	0	0	527	617
13	0	0	0	0	526	617
14	0	0	0	0	524	617
15	0	0	0	0	519	616
0	0	0	0	0	515	616
1	0	0	0	0	512	617
2	0	0	0	0	510	616
3	0	0	0	0	507	617
4	0	0	0	0	506	618
5	0	0	0	0	507	617
6	0	0	0	0	508	617
7	0	0	0	0	509	617
8	0	0	0	0	511	617
9	0	0	0	0	514	618
10	0	0	0	0	516	617
11	0	0	0	0	519	616
12	0	0	0	0	522	617
13	0	0	0	0	525	616
14	0	0	0	0	527	616
15	0	0	0	0	526	615
0	0	0	0	0	525	616
1	0	0	0	0	523	616
2	0	0	0	0	519	616
3	0	0	0	0	515	616
4	0	0	0	0	512	616
5	0	0	0	0	509	616
6	0	0	0	0	507	615
7	0	0	0	0	504	615
8	0	0	0	0	504	615
9	0	0	0	0	504	615
10	0	0	0	0	505	615
11	0	0	0	0	506	615
12	0	0	0	0	509	616
13	0	0	0	0	512	615
14	0	0	0	0	515	615
15	0	0	0	0	519	615
0	0	0	0	0	521	616
1	0	0	0	0	523	615
2	0	0	0	0	524	615
3	0	0	0	0	523	615
4	0	0	0	0	523	616
5	0	0	0	0	521	616
6	0	0	0	0	518	616
7	0	0	0	0	515	616
8	0	0	0	0	511	616
9	0	0	0	0	508	616
10	0	0	0	0	505	616
11	0	0	0	0	503	616
12	0	0	0	0	501	616
13	0	0	0	0	502	616
14	0	0	0	0	503	616
15	0	0	0	0	504	616
0	0	0	0	0	506	616
1	0	0	0	0	509	616
2	0	0	0	0	512	616
3	0	0	0	0	515	616
4	0	0	0	0	519	617
5	0	0	0	0	521	616
6	0	0	0	0	523	617
7	0	0	0	0	523	615
8	0	0	0	0	521	615
9	0	0	0	0	520	616
10	0	0	0	0	517	616
11	0	0	0	0	514	616
12	0	0	0	0	511	617
13	0	0	0	0	508	617
14	0	0	0	0	505	616
15	0	0	0	0	503	616
0	0	0	0	0	502	617
1	0	0	0	0	502	616
2	0	0	0	0	503	617
3	0	0	0	0	504	616
4	0	0	0	0	507	616
5	0	0	0	0	509	615
6	0	0	0	0	512	616
7	0	0	0	0	514	616
8	0	0	0	0	516	616
9	0	0	0	0	519	616
10	0	0	0	0	520	616
11	0	0	0	0	521	615
12	0	0	0	0	519	616
13	0	0	0	0	517	615
14	0	0	0	0	513	616
15	0	0	0	0	511	615
0	0	0	0	0	507	615
1	0	0	0	0	504	616
2	0	0	0	0	502	616
3	0	0	0	0	500	615
4	0	0	0	0	499	616
5	0	0	0	0	499	615
6	0	0	0	0	502	616
7	0	0	0	0	503	616
8	0	0	0	0	505	615
9	0	0	0	0	507	616
10	0	0	0	0	510	616
11	0	0	0	0	513	616
12	0	0	0	0	516	616
13	0	0	0	0	518	616
14	0	0	0	0	521	616
15	0	0	0	0	522	616
0	0	0	0	0	521	616
1	0	0	0	0	520	615
2	0	0	0	0	519	616
3	0	0	0	0	515	616
4	0	0	0	0	511	617
5	0	0	0	0	506	617
6	0	0	0	0	503	616
7	0	0	0	0	501	617
8	0	0	0	0	499	617
9	0	0	0	0	499	617
10	0	0	0	0	499	617
11	0	0	0	0	501	616
12	0	0	0	0	504	617
13	0	0	0	0	507	615
14	0	0	0	0	510	615
15	0	0	0	0	514	615
0	0	0	0	0	516	615
1	0	0	0	0	518	615
2	0	0	0	0	520	616
3	0	0	0	0	519	615
4	0	0	0	0	518	616
5	0	0	0	0	515	615
6	0	0	0	0	512	615
7	0	0	0	0	508	615
8	0	0	0	0	504	616
9	0	0	0	0	502	617
10	0	0	0	0	500	617
11	0	0	0	0	496	617
12	0	0	0	0	495	618
13	0	0	0	0	495	617
14	0	0	0	0	496	617
15	0	0	0	0	496	616
0	0	0	0	0	499	615
1	0	0	0	0	500	614
2	0	0	0	0	503	614
3	0	0	0	0	507	614
4	0	0	0	0	508	615
5	0	0	0	0	511	615
6	0	0	0	0	512	616
7	0	0	0	0	512	617
8	0	0	0	0	513	617
9	0	0	0	0	513	618
10	0	0	0	0	508	617
11	0	0	0	0	505	617
12	0	0	0	0	503	618
13	0	0	0	0	499	617
14	0	0	0	0	496	616
15	0	0	0	0	494	616
0	0	0	0	0	492	615
1	0	0	0	0	492	615
2	0	0	0	0	493	616
3	0	0	0	0	496	616
4	0	0	0	0	500	616
5	0	0	0	0	503	615
6	0	0	0	0	507	615
7	0	0	0	0	512	615
8	0	0	0	0	515	615
9	0	0	0	0	519	615
10	0	0	0	0	521	616
11	0	0	0	0	521	617
12	0	0	0	0	521	618
13	0	0	0	0	520	618
14	0	0	0	0	518	619
15	0	0	0	0	514	618
0	0	0	0	0	510	617
1	0	0	0	0	507	616
2	0	0	0	0	505	616
3	0	0	0	0	502	616
4	0	0	0	0	501	615
5	0	0	0	0	500	615
6	0	0	0	0	502	615
7	0	0	0	0	503	615
8	0	0	0	0	507	615
9	0	0	0	0	510	615
10	0	0	0	0	513	615
11	0	0	0	0	517	616
12	0	0	0	0	520	617
13	0	0	0	0	523	616
14	0	0	0	0	526	616
15	0	0	0	0	526	616
0	0	0	0	0	526	617
1	0	0	0	0	525	616
2	0	0	0	0	522	616
3	0	0	0	0	518	616
4	0	0	0	0	514	617
5	0	0	0	0	510	616
6	0	0	0	0	507	616
7	0	0	0	0	504	615
8	0	0	0	0	503	615
9	0	0	0	0	503	615
10	0	0	0	0	504	615
11	0	0	0	0	506	615
12	0	0	0	0	508	615
13	0	0	0	0	511	615
14	0	0	0	0	514	615
15	0	0	0	0	518	616
0	0	0	0	0	520	616
1	0	0	0	0	523	616
2	0	0	0	0	524	617
3	0	0	0	0	524	617
4	0	0	0	0	524	617
5	0	0	0	0	523	617
6	0	0	0	0	520	617
7	0	0	0	0	516	616
8	0	0	0	0	512	616
9	0	0	0	0	509	616
10	0	0	0	0	506	615
11	0	0	0	0	504	615
12	0	0	0	0	502	616
13	0	0	0	0	503	615
14	0	0	0	0	505	616
15	0	0	0	0	506	615
0	0	0	0	0	509	616
1	0	0	0	0	511	615
2	0	0	0	0	514	615
3	0	0	0	0	518	616
4	0	0	0	0	521	616
5	0	0	0	0	524	617
6	0	0	0	0	525	616
7	0	0	0	0	525	616
8	0	0	0	0	524	617
9	0	0	0	0	522	616
10	0	0	0	0	519	617
11	0	0	0	0	515	616
12	0	0	0	0	511	617
13	0	0	0	0	508	617
14	0	0	0	0	504	617
15	0	0	0	0	502	616
0	0	0	0	0	502	617
1	0	0	0	0	502	617
2	0	0	0	0	503	617
3	0	0	0	0	504	617
4	0	0	0	0	507	616
5	0	0	0	0	509	615
6	0	0	0	0	512	613
7	0	0	0	0	515	613
8	0	0	0	0	518	614
9	0	0	0	0	520	613
10	0	0	0	0	522	614
11	0	0	0	0	521	614
12	0	0	0	0	521	615
13	0	0	0	0	519	617
14	0	0	0	0	515	617
15	0	0	0	0	510	617
0	0	0	0	0	504	617
1	0	0	0	0	498	616
2	0	0	0	0	491	616
3	0	0	0	0	484	617
4	0	0	0	0	476	617
5	0	0	0	0	467	617
6	0	0	0	0	457	617
7	0	0	0	0	448	616
8	0	0	0	0	439	616
9	0	0	0	0	430	616
10	0	0	0	0	423	616
11	0	0	0	0	416	616
12	0	0	0	0	409	616
13	0	0	0	0	404	615
14	0	0	0	0	401	615
15	0	0	0	0	400	615
0	0	0	0	0	398	616
1	0	0	0	0	399	616
2	0	0	0	0	400	617
3	0	0	0	0	403	617
4	0	0	0	0	407	618
5	0	0	0	0	412	617
6	0	0	0	0	417	616
7	0	0	0	0	423	615
8	0	0	0	0	431	616
9	0	0	0	0	440	615
10	0	0	0	0	453	615
11	0	0	0	0	472	615
12	0	0	0	0	497	617
13	0	0	0	0	527	616
14	0	0	0	0	562	616
15	0	0	0	0	606	616
0	0	0	0	0	656	616
1	0	0	0	0	711	616
2	0	0	0	0	768	616
3	0	0	0	0	826	617
4	0	0	0	0	880	618
5	0	0	0	0	926	617
6	0	0	0	0	966	617
7	0	0	0	0	995	618
8	0	0	0	0	1015	618
9	0	0	0	0	1022	618
10	0	0	0	0	1022	617
11	0	0	0	0	1022	617
12	0	0	0	0	1022	617
13	0	0	0	0	1022	616
14	0	0	0	0	1021	616
15	0	0	0	0	1007	615
0	0	0	0	0	989	615
1	0	0	0	0	966	615
2	0	0	0	0	940	614
3	0	0	0	0	910	614
4	0	0	0	0	876	614
5	0	0	0	0	839	614
6	0	0	0	0	806	614
7	0	0	0	0	774	614
8	0	0	0	0	745	615
9	0	0	0	0	718	615
10	0	0	0	0	690	615
11	0	0	0	0	664	617
12	0	0	0	0	641	618
13	0	0	0	0	621	619
14	0	0	0	0	604	619
15	0	0	0	0	587	619
0	0	0	0	0	571	618
1	0	0	0	0	557	618
2	0	0	0	0	544	617
3	0	0	0	0	532	616
4	0	0	0	0	520	616
5	0	0	0	0	508	615
6	0	0	0	0	497	614
7	0	0	0	0	487	614
8	0	0	0	0	478	615
9	0	0	0	0	468	614
10	0	0	0	0	460	614
11	0	0	0	0	450	614
12	0	0	0	0	440	615
13	0	0	0	0	430	615
14	0	0	0	0	420	616
15	0	0	0	0	411	617
0	0	0	0	0	401	618
1	0	0	0	0	393	618
2	0	0	0	0	387	619
3	0	0	0	0	382	618
4	0	0	0	0	378	619
5	0	0	0	0	376	617
6	0	0	0	0	375	616
7	0	0	0	0	375	615
8	0	0	0	0	376	615
9	0	0	0	0	378	615
10	0	0	0	0	381	615
11	0	0	0	0	384	615
12	0	0	0	0	387	615
13	0	0	0	0	388	615
14	0	0	0	0	391	615
15	0	0	0	0	391	615
0	0	0	0	0	391	616
1	0	0	0	0	390	616
2	0	0	0	0	388	617
3	0	0	0	0	384	616
4	0	0	0	0	381	617
5	0	0	0	0	378	617
6	0	0	0	0	376	617
7	0	0	0	0	375	617
8	0	0	0	0	375	617
9	0	0	0	0	376	616
10	0	0	0	0	377	615
11	0	0	0	0	380	615
12	0	0	0	0	384	615
13	0	0	0	0	387	614
14	0	0	0	0	391	614
15	0	0	0	0	395	615
0	0	0	0	0	399	615
1	0	0	0	0	401	615
2	0	0	0	0	404	615
3	0	0	0	0	404	616
4	0	0	0	0	404	616
5	0	0	0	0	404	616
6	0	0	0	0	403	616
7	0	0	0	0	400	616
8	0	0	0	0	397	616
9	0	0	0	0	395	616
10	0	0	0	0	392	615
11	0	0	0	0	391	615
12	0	0	0	0	391	615
13	0	0	0	0	392	615
14	0	0	0	0	394	615
15	0	0	0	0	396	615
0	0	0	0	0	400	615
1	0	0	0	0	404	615
2	0	0	0	0	408	615
3	0	0	0	0	411	615
4	0	0	0	0	415	616
5	0	0	0	0	419	616
6	0	0	0	0	421	616
7	0	0	0	0	422	616
8	0	0	0	0	422	617
9	0	0	0	0	421	618
10	0	0	0	0	419	617
11	0	0	0	0	416	618
12	0	0	0	0	414	619
13	0	0	0	0	412	618
14	0	0	0	0	411	617
15	0	0	0	0	409	617
0	0	0	0	0	408	618
1	0	0	0	0	409	617
2	0	0	0	0	412	616
3	0	0	0	0	414	615
4	0	0	0	0	416	614
5	0	0	0	0	420	612
6	0	0	0	0	423	613
7	0	0	0	0	428	613
8	0	0	0	0	431	614
9	0	0	0	0	435	614
10	0	0	0	0	437	614
11	0	0	0	0	438	615
12	0	0	0	0	439	617
13	0	0	0	0	438	617
14	0	0	0	0	435	617
15	0	0	0	0	432	617
0	0	0	0	0	430	617
1	0	0	0	0	425	617
2	0	0	0	0	423	617
3	0	0	0	0	420	617
4	0	0	0	0	420	617
5	0	0	0	0	421	616
6	0	0	0	0	423	615
7	0	0	0	0	424	615
8	0	0	0	0	427	615
9	0	0	0	0	431	615
10	0	0	0	0	434	615
11	0	0	0	0	438	614
12	0	0	0	0	442	615
13	0	0	0	0	445	615
14	0	0	0	0	448	615
15	0	0	0	0	448	617
0	0	0	0	0	447	616
1	0	0	0	0	446	617
2	0	0	0	0	443	617
3	0	0	0	0	440	617
4	0	0	0	0	436	617
5	0	0	0	0	433	617
6	0	0	0	0	430	615
7	0	0	0	0	428	615
8	0	0	0	0	428	615
9	0	0	0	0	428	615
10	0	0	0	0	430	615
11	0	0	0	0	432	615
12	0	0	0	0	435	616
13	0	0	0	0	438	616
14	0	0	0	0	441	616
15	0	0	0	0	444	615
0	0	0	0	0	448	617
1	0	0	0	0	452	617
2	0	0	0	0	454	617
3	0	0	0	0	455	618
4	0	0	0	0	455	619
5	0	0	0	0	453	619
6	0	0	0	0	451	619
7	0	0	0	0	447	618
8	0	0	0	0	443	618
9	0	0	0	0	440	617
10	0	0	0	0	438	617
11	0	0	0	0	436	616
12	0	0	0	0	435	617
13	0	0	0	0	435	615
14	0	0	0	0	436	615
15	0	0	0	0	438	615
0	0	0	0	0	441	615
1	0	0	0	0	445	615
2	0	0	0	0	448	615
3	0	0	0	0	452	614
4	0	0	0	0	455	615
5	0	0	0	0	458	614
6	0	0	0	0	460	614
7	0	0	0	0	460	614
8	0	0	0	0	460	615
9	0	0	0	0	459	615
10	0	0	0	0	456	615
11	0	0	0	0	453	615
12	0	0	0	0	450	616
13	0	0	0	0	446	616
14	0	0	0	0	444	617
15	0	0	0	0	442	617
0	0	0	0	0	441	617
1	0	0	0	0	441	618
2	0	0	0	0	444	617
3	0	0	0	0	444	617
4	0	0	0	0	448	617
5	0	0	0	0	451	616
6	0	0	0	0	455	616
7	0	0	0	0	459	615
8	0	0	0	0	463	615
9	0	0	0	0	466	615
10	0	0	0	0	469	615
11	0	0	0	0	471	615
12	0	0	0	0	471	615
13	0	0	0	0	471	615
14	0	0	0	0	468	615
15	0	0	0	0	466	615
0	0	0	0	0	463	616
1	0	0	0	0	461	616
2	0	0	0	0	460	617
3	0	0	0	0	458	618
4	0	0	0	0	458	618
5	0	0	0	0	459	617
6	0	0	0	0	461	617
7	0	0	0	0	463	617
8	0	0	0	0	466	617
9	0	0	0	0	469	616
10	0	0	0	0	473	616
11	0	0	0	0	477	615
12	0	0	0	0	481	617
13	0	0	0	0	485	616
14	0	0	0	0	488	615
15	0	0	0	0	489	616
0	0	0	0	0	491	616
1	0	0	0	0	491	616
2	0	0	0	0	490	616
3	0	0	0	0	488	615
4	0	0	0	0	485	616
5	0	0	0	0	482	616
6	0	0	0	0	481	617
7	0	0	0	0	480	617
8	0	0	0	0	479	617
9	0	0	0	0	480	617
10	0	0	0	0	483	617
11	0	0	0	0	486	616
12	0	0	0	0	489	617
13	0	0	0	0	494	615
14	0	0	0	0	497	615
15	0	0	0	0	502	615
0	0	0	0	0	507	615
1	0	0	0	0	512	615
2	0	0	0	0	515	616
3	0	0	0	0	516	616
4	0	0	0	0	517	616
5	0	0	0	0	517	616
6	0	0	0	0	515	616
7	0	0	0	0	512	616
8	0	0	0	0	510	616
9	0	0	0	0	508	616
10	0	0	0	0	508	615
11	0	0	0	0	507	616
12	0	0	0	0	506	616
13	0	0	0	0	507	616
14	0	0	0	0	509	616
15	0	0	0	0	511	616
0	0	0	0	0	515	616
1	0	0	0	0	518	616
2	0	0	0	0	522	616
3	0	0	0	0	526	616
4	0	0	0	0	529	616
5	0	0	0	0	532	616
6	0	0	0	0	534	616
7	0	0	0	0	536	617
8	0	0	0	0	537	617
9	0	0	0	0	536	616
10	0	0	0	0	533	616
11	0	0	0	0	530	616
12	0	0	0	0	526	617
13	0	0	0	0	524	617
14	0	0	0	0	522	618
15	0	0	0	0	520	618
0	0	0	0	0	519	617
1	0	0	0	0	520	617
2	0	0	0	0	523	617
3	0	0	0	0	525	617
4	0	0	0	0	529	618
5	0	0	0	0	532	616
6	0	0	0	0	535	615
7	0	0	0	0	539	614
8	0	0	0	0	542	613
9	0	0	0	0	546	613
10	0	0	0	0	548	614
11	0	0	0	0	548	614
12	0	0	0	0	547	615
13	0	0	0	0	546	615
14	0	0	0	0	544	615
15	0	0	0	0	540	616
0	0	0	0	0	536	616
1	0	0	0	0	531	617
2	0	0	0	0	527	616
3	0	0	0	0	525	616
4	0	0	0	0	524	617
5	0	0	0	0	524	616
6	0	0	0	0	526	617
7	0	0	0	0	527	616
8	0	0	0	0	530	616
9	0	0	0	0	533	616
10	0	0	0	0	537	616
11	0	0	0	0	541	616
12	0	0	0	0	544	616
13	0	0	0	0	548	615
14	0	0	0	0	550	615
15	0	0	0	0	551	615
0	0	0	0	0	550	615
1	0	0	0	0	548	616
2	0	0	0	0	545	616
3	0	0	0	0	542	616
4	0	0	0	0	538	617
5	0	0	0	0	535	617
6	0	0	0	0	532	617
7	0	0	0	0	531	617
8	0	0	0	0	529	617
9	0	0	0	0	530	616
10	0	0	0	0	530	615
11	0	0	0	0	531	616
12	0	0	0	0	534	616
13	0	0	0	0	537	615
14	0	0	0	0	540	616
15	0	0	0	0	543	616
0	0	0	0	0	546	617
1	0	0	0	0	549	616
2	0	0	0	0	551	616
3	0	0	0	0	551	616
4	0	0	0	0	550	617
5	0	0	0	0	547	617
6	0	0	0	0	543	617
7	0	0	0	0	540	618
8	0	0	0	0	536	618
9	0	0	0	0	532	618
10	0	0	0	0	529	618
11	0	0	0	0	527	618
12	0	0	0	0	525	618
13	0	0	0	0	525	617
14	0	0	0	0	525	616
15	0	0	0	0	527	616
0	0	0	0	0	529	615
1	0	0	0	0	532	615
2	0	0	0	0	536	615
3	0	0	0	0	539	615
4	0	0	0	0	542	615
5	0	0	0	0	543	614
6	0	0	0	0	544	614
7	0	0	0	0	544	614
8	0	0	0	0	544	614
9	0	0	0	0	542	614
10	0	0	0	0	539	614
11	0	0	0	0	536	615
12	0	0	0	0	532	616
13	0	0	0	0	528	615
14	0	0	0	0	525	616
15	0	0	0	0	523	617
0	0	0	0	0	521	617
1	0	0	0	0	521	617
2	0	0	0	0	523	617
3	0	0	0	0	524	617
4	0	0	0	0	525	618
5	0	0	0	0	528	617
6	0	0	0	0	530	617
7	0	0	0	0	533	617
8	0	0	0	0	536	617
9	0	0	0	0	539	616
10	0	0	0	0	540	616
11	0	0	0	0	539	615
12	0	0	0	0	539	616
13	0	0	0	0	537	615
14	0	0	0	0	535	615
15	0	0	0	0	531	616
0	0	0	0	0	528	616
1	0	0	0	0	524	617
2	0	0	0	0	521	616
3	0	0	0	0	519	616
4	0	0	0	0	518	617
5	0	0	0	0	518	617
6	0	0	0	0	519	617
7	0	0	0	0	521	617
8	0	0	0	0	523	616
9	0	0	0	0	526	617
10	0	0	0	0	529	616
11	0	0	0	0	532	617
12	0	0	0	0	535	616
13	0	0	0	0	537	615
14	0	0	0	0	539	615
15	0	0	0	0	539	616
0	0	0	0	0	538	616
1	0	0	0	0	537	615
2	0	0	0	0	534	616
3	0	0	0	0	530	615
4	0	0	0	0	525	616
5	0	0	0	0	520	615
6	0	0	0	0	518	616
7	0	0	0	0	515	616
8	0	0	0	0	514	615
9	0	0	0	0	515	616
10	0	0	0	0	516	616
11	0	0	0	0	518	615
12	0	0	0	0	521	617
13	0	0	0	0	524	615
14	0	0	0	0	527	616
15	0	0	0	0	531	615
0	0	0	0	0	535	615
1	0	0	0	0	536	615
2	0	0	0	0	538	615
3	0	0	0	0	537	615
4	0	0	0	0	536	616
5	0	0	0	0	534	615
6	0	0	0	0	531	615
7	0	0	0	0	527	616
8	0	0	0	0	523	616
9	0	0	0	0	519	616
10	0	0	0	0	516	616
11	0	0	0	0	514	615
12	0	0	0	0	513	616
13	0	0	0	0	514	616
14	0	0	0	0	515	616
15	0	0	0	0	516	616
0	0	0	0	0	519	616
1	0	0	0	0	523	616
2	0	0	0	0	526	616
3	0	0	0	0	529	616
4	0	0	0	0	532	617
5	0	0	0	0	535	616
6	0	0	0	0	536	616
7	0	0	0	0	536	616
8	0	0	0	0	536	616
9	0	0	0	0	535	616
10	0	0	0	0	533	617
11	0	0	0	0	528	617
12	0	0	0	0	524	618
13	0	0	0	0	521	617
14	0	0	0	0	518	617
15	0	0	0	0	515	617
0	0	0	0	0	513	617
1	0	0	0	0	513	616
2	0	0	0	0	514	616
3	0	0	0	0	515	616
4	0	0	0	0	518	617
5	0	0	0	0	521	617
6	0	0	0	0	524	617
7	0	0	0	0	528	617
8	0	0	0	0	532	617
9	0	0	0	0	535	617
10	0	0	0	0	537	617
11	0	0	0	0	536	617
12	0	0	0	0	535	618
13	0	0	0	0	534	616
14	0	0	0	0	530	616
15	0	0	0	0	526	615
0	0	0	0	0	521	614
1	0	0	0	0	517	614
2	0	0	0	0	514	613
3	0	0	0	0	512	613
4	0	0	0	0	510	614
5	0	0	0	0	509	614
6	0	0	0	0	510	615
7	0	0	0	0	511	615
8	0	0	0	0	513	616
9	0	0	0	0	516	617
10	0	0	0	0	519	616
11	0	0	0	0	522	617
12	0	0	0	0	524	617
13	0	0	0	0	527	617
14	0	0	0	0	529	617
15	0	0	0	0	530	617
0	0	0	0	0	530	618
1	0	0	0	0	529	617
2	0	0	0	0	526	617
3	0	0	0	0	522	616
4	0	0	0	0	519	616
5	0	0	0	0	515	615
6	0	0	0	0	513	615
7	0	0	0	0	512	615
8	0	0	0	0	511	615
9	0	0	0	0	511	615
10	0	0	0	0	512	615
11	0	0	0	0	513	616
12	0	0	0	0	516	617
13	0	0	0	0	519	616
14	0	0	0	0	522	617
15	0	0	0	0	525	617
0	0	0	0	0	527	617
1	0	0	0	0	530	616
2	0	0	0	0	531	616
3	0	0	0	0	530	616
4	0	0	0	0	529	617
5	0	0	0	0	527	617
6	0	0	0	0	524	616
7	0	0	0	0	521	615
8	0	0	0	0	518	616
9	0	0	0	0	513	615
10	0	0	0	0	511	615
11	0	0	0	0	509	616
12	0	0	0	0	507	616
13	0	0	0	0	507	616
14	0	0	0	0	508	616
15	0	0	0	0	510	616
0	0	0	0	0	513	617
1	0	0	0	0	516	617
2	0	0	0	0	519	617
3	0	0	0	0	522	617
4	0	0	0	0	525	618
5	0	0	0	0	527	616
6	0	0	0	0	528	616
7	0	0	0	0	529	616
8	0	0	0	0	529	615
9	0	0	0	0	527	615
10	0	0	0	0	525	615
11	0	0	0	0	521	615
12	0	0	0	0	517	615
13	0	0	0	0	514	615
14	0	0	0	0	511	615
15	0	0	0	0	508	615
0	0	0	0	0	507	615
1	0	0	0	0	507	615
2	0	0	0	0	508	615
3	0	0	0	0	509	615
4	0	0	0	0	511	616
5	0	0	0	0	514	615
6	0	0	0	0	516	615
7	0	0	0	0	519	616
8	0	0	0	0	522	616
9	0	0	0	0	524	615
10	0	0	0	0	526	616
11	0	0	0	0	527	616
12	0	0	0	0	527	618
13	0	0	0	0	526	617
14	0	0	0	0	524	617
15	0	0	0	0	520	618
0	0	0	0	0	518	618
1	0	0	0	0	514	618
2	0	0	0	0	511	618
3	0	0	0	0	509	617
4	0	0	0	0	507	618
5	0	0	0	0	507	617
6	0	0	0	0	507	617
7	0	0	0	0	508	616
8	0	0	0	0	511	616
9	0	0	0	0	513	615
10	0	0	0	0	515	615
11	0	0	0	0	519	615
12	0	0	0	0	522	616
13	0	0	0	0	524	615
14	0	0	0	0	526	615
15	0	0	0	0	526	615
0	0	0	0	0	526	615
1	0	0	0	0	524	615
2	0	0	0	0	520	615
3	0	0	0	0	516	615
4	0	0	0	0	512	615
5	0	0	0	0	509	615
6	0	0	0	0	507	616
7	0	0	0	0	505	616
8	0	0	0	0	504	616
9	0	0	0	0	504	617
10	0	0	0	0	505	617
11	0	0	0	0	506	617
12	0	0	0	0	508	617
13	0	0	0	0	511	616
14	0	0	0	0	514	616
15	0	0	0	0	518	615
0	0	0	0	0	522	616
1	0	0	0	0	524	615
2	0	0	0	0	526	615
3	0	0	0	0	526	615
4	0	0	0	0	524	615
5	0	0	0	0	523	615
6	0	0	0	0	519	615
7	0	0	0	0	516	616
8	0	0	0	0	512	615
9	0	0	0	0	509	616
10	0	0	0	0	505	616
11	0	0	0	0	503	616
12	0	0	0	0	501	617
13	0	0	0	0	502	616
14	0	0	0	0	503	616
15	0	0	0	0	503	615
0	0	0	0	0	505	615
1	0	0	0	0	509	615
2	0	0	0	0	512	615
3	0	0	0	0	516	615
4	0	0	0	0	519	616
5	0	0	0	0	522	615
6	0	0	0	0	524	615
7	0	0	0	0	524	615
8	0	0	0	0	523	617
9	0	0	0	0	521	616
10	0	0	0	0	519	616
11	0	0	0	0	515	616
12	0	0	0	0	510	617
13	0	0	0	0	507	617
14	0	0	0	0	503	617
15	0	0	0	0	501	617
0	0	0	0	0	499	617
1	0	0	0	0	500	617
2	0	0	0	0	502	616
3	0	0	0	0	503	616
4	0	0	0	0	505	617
5	0	0	0	0	508	616
6	0	0	0	0	511	616
7	0	0	0	0	515	615
8	0	0	0	0	519	615
9	0	0	0	0	522	615
10	0	0	0	0	524	615
11	0	0	0	0	525	615
12	0	0	0	0	524	615
13	0	0	0	0	521	615
14	0	0	0	0	519	615
15	0	0	0	0	515	615
0	0	0	0	0	511	615
1	0	0	0	0	508	616
2	0	0	0	0	504	615
3	0	0	0	0	502	616
4	0	0	0	0	500	617
5	0	0	0	0	500	617
6	0	0	0	0	501	616
7	0	0	0	0	502	617
8	0	0	0	0	505	617
9	0	0	0	0	508	617
10	0	0	0	0	511	616
11	0	0	0	0	515	617
12	0	0	0	0	517	617
13	0	0	0	0	520	616
14	0	0	0	0	523	616
15	0	0	0	0	523	615
0	0	0	0	0	521	615
1	0	0	0	0	520	615
2	0	0	0	0	517	615
3	0	0	0	0	513	615
4	0	0	0	0	510	615
5	0	0	0	0	507	615
6	0	0	0	0	504	615
7	0	0	0	0	503	616
8	0	0	0	0	501	616
9	0	0	0	0	501	616
10	0	0	0	0	502	616
11	0	0	0	0	503	615
12	0	0	0	0	505	616
13	0	0	0	0	506	616
14	0	0	0	0	509	616
15	0	0	0	0	512	616
0	0	0	0	0	515	616
1	0	0	0	0	518	616
2	0	0	0	0	521	615
3	0	0	0	0	520	615
4	0	0	0	0	519	616
5	0	0	0	0	517	616
6	0	0	0	0	513	615
7	0	0	0	0	511	616
8	0	0	0	0	507	616
9	0	0	0	0	504	616
10	0	0	0	0	500	616
11	0	0	0	0	497	616
12	0	0	0	0	496	617
13	0	0	0	0	496	617
14	0	0	0	0	496	617
15	0	0	0	0	497	617
0	0	0	0	0	499	617
1	0	0	0	0	502	616
2	0	0	0	0	505	616
3	0	0	0	0	508	616
4	0	0	0	0	512	616
5	0	0	0	0	514	615
6	0	0	0	0	516	615
7	0	0	0	0	516	615
8	0	0	0	0	515	615
9	0	0	0	0	514	615
10	0	0	0	0	511	616
11	0	0	0	0	507	615
12	0	0	0	0	503	617
13	0	0	0	0	499	616
14	0	0	0	0	496	616
15	0	0	0	0	495	616
0	0	0	0	0	494	617
1	0	0	0	0	494	617
2	0	0	0	0	496	617
3	0	0	0	0	498	617
4	0	0	0	0	501	617
5	0	0	0	0	505	617
6	0	0	0	0	508	616
7	0	0	0	0	512	616
8	0	0	0	0	516	616
9	0	0	0	0	519	616
10	0	0	0	0	522	616
11	0	0	0	0	523	616
12	0	0	0	0	523	616
13	0	0	0	0	521	616
14	0	0	0	0	519	616
15	0	0	0	0	515	616
0	0	0	0	0	512	616
1	0	0	0	0	510	616
2	0	0	0	0	507	616
3	0	0	0	0	505	616
4	0	0	0	0	504	616
5	0	0	0	0	504	616
6	0	0	0	0	505	616
7	0	0	0	0	507	615
8	0	0	0	0	510	616
9	0	0	0	0	512	616
10	0	0	0	0	514	615
11	0	0	0	0	517	615
12	0	0	0	0	520	615
13	0	0	0	0	523	615
14	0	0	0	0	525	615
15	0	0	0	0	525	615
0	0	0	0	0	524	616
1	0	0	0	0	523	616
2	0	0	0	0	520	616
3	0	0	0	0	517	616
4	0	0	0	0	513	616
5	0	0	0	0	510	616
6	0	0	0	0	507	616
7	0	0	0	0	505	616
8	0	0	0	0	504	616
9	0	0	0	0	503	615
10	0	0	0	0	503	616
11	0	0	0	0	504	616
12	0	0	0	0	506	617
13	0	0	0	0	508	616
14	0	0	0	0	511	616
15	0	0	0	0	513	616
0	0	0	0	0	516	616
1	0	0	0	0	518	615
2	0	0	0	0	520	615
3	0	0	0	0	521	616
4	0	0	0	0	520	616
5	0	0	0	0	519	616
6	0	0	0	0	517	616
7	0	0	0	0	513	616
8	0	0	0	0	510	616
9	0	0	0	0	507	616
10	0	0	0	0	504	616
11	0	0	0	0	502	616
12	0	0	0	0	500	617
13	0	0	0	0	499	616
14	0	0	0	0	500	616
15	0	0	0	0	501	616
0	0	0	0	0	503	616
1	0	0	0	0	505	616
2	0	0	0	0	509	616
3	0	0	0	0	513	617
4	0	0	0	0	516	616
5	0	0	0	0	519	616
6	0	0	0	0	520	616
7	0	0	0	0	521	615
8	0	0	0	0	520	615
9	0	0	0	0	519	616
10	0	0	0	0	515	615
11	0	0	0	0	511	615
12	0	0	0	0	508	616
13	0	0	0	0	504	616
14	0	0	0	0	501	615
15	0	0	0	0	499	615
0	0	0	0	0	497	616
1	0	0	0	0	497	616
2	0	0	0	0	499	616
3	0	0	0	0	500	616
4	0	0	0	0	502	616
5	0	0	0	0	504	615
6	0	0	0	0	506	615
7	0	0	0	0	510	615
8	0	0	0	0	513	615
9	0	0	0	0	516	616
10	0	0	0	0	518	616
11	0	0	0	0	517	616
12	0	0	0	0	516	617
13	0	0	0	0	515	616
14	0	0	0	0	511	615
15	0	0	0	0	507	615
0	0	0	0	0	500	616
1	0	0	0	0	494	616
2	0	0	0	0	487	616
3	0	0	0	0	478	616
4	0	0	0	0	469	617
5	0	0	0	0	460	616
6	0	0	0	0	451	616
7	0	0	0	0	441	617
8	0	0	0	0	432	616
9	0	0	0	0	423	616
10	0	0	0	0	416	616
11	0	0	0	0	409	615
12	0	0	0	0	404	616
13	0	0	0	0	401	616
14	0	0	0	0	399	616
15	0	0	0	0	399	616
0	0	0	0	0	399	616
1	0	0	0	0	400	616
2	0	0	0	0	402	616
3	0	0	0	0	405	617
4	0	0	0	0	410	617
5	0	0	0	0	415	616
6	0	0	0	0	421	616
7	0	0	0	0	425	616
8	0	0	0	0	431	615
9	0	0	0	0	438	616
10	0	0	0	0	448	615
11	0	0	0	0	464	615
12	0	0	0	0	488	616
13	0	0	0	0	515	615
14	0	0	0	0	546	615
15	0	0	0	0	585	615
0	0	0	0	0	631	616
1	0	0	0	0	682	616
2	0	0	0	0	736	616
3	0	0	0	0	790	616
4	0	0	0	0	839	617
5	0	0	0	0	882	616
6	0	0	0	0	916	616
7	0	0	0	0	943	616
8	0	0	0	0	963	615
9	0	0	0	0	975	615
10	0	0	0	0	980	616
11	0	0	0	0	981	615
12	0	0	0	0	976	616
13	0	0	0	0	969	615
14	0	0	0	0	958	616
15	0	0	0	0	943	616
0	0	0	0	0	926	616
1	0	0	0	0	904	616
2	0	0	0	0	879	616
3	0	0	0	0	852	616
4	0	0	0	0	822	617
5	0	0	0	0	790	615
6	0	0	0	0	761	616
7	0	0	0	0	733	616
8	0	0	0	0	707	616
9	0	0	0	0	684	617
10	0	0	0	0	660	616
11	0	0	0	0	639	616
12	0	0	0	0	619	616
13	0	0	0	0	603	616
14	0	0	0	0	588	616
15	0	0	0	0	573	616
0	0	0	0	0	559	616
1	0	0	0	0	547	616
2	0	0	0	0	538	617
3	0	0	0	0	528	616
4	0	0	0	0	519	617
5	0	0	0	0	510	616
6	0	0	0	0	502	616
7	0	0	0	0	494	617
8	0	0	0	0	487	616
9	0	0	0	0	480	616
10	0	0	0	0	473	616
11	0	0	0	0	465	616
12	0	0	0	0	457	617
13	0	0	0	0	449	616
14	0	0	0	0	440	616
15	0	0	0	0	430	616
0	0	0	0	0	422	615
1	0	0	0	0	414	616
2	0	0	0	0	408	616
3	0	0	0	0	403	616
4	0	0	0	0	399	616
5	0	0	0	0	397	615
6	0	0	0	0	396	615
7	0	0	0	0	396	615
8	0	0	0	0	397	616
9	0	0	0	0	398	615
10	0	0	0	0	400	616
11	0	0	0	0	403	616
12	0	0	0	0	406	616
13	0	0	0	0	408	616
14	0	0	0	0	411	616
15	0	0	0	0	411	616
0	0	0	0	0	410	616
1	0	0	0	0	409	616
2	0	0	0	0	406	616
3	0	0	0	0	403	616
4	0	0	0	0	399	616
5	0	0	0	0	396	616
6	0	0	0	0	393	616
7	0	0	0	0	391	616
8	0	0	0	0	390	616
9	0	0	0	0	390	616
10	0	0	0	0	391	616
11	0	0	0	0	393	616
12	0	0	0	0	395	616
13	0	0	0	0	398	616
14	0	0	0	0	402	616
15	0	0	0	0	407	616
0	0	0	0	0	411	616
1	0	0	0	0	415	616
2	0	0	0	0	418	616
3	0	0	0	0	419	616
4	0	0	0	0	419	616
5	0	0	0	0	419	616
6	0	0	0	0	417	616
7	0	0	0	0	414	616
8	0	0	0	0	412	616
9	0	0	0	0	409	616
10	0	0	0	0	408	616
11	0	0	0	0	406	616
12	0	0	0	0	405	617
13	0	0	0	0	404	616
14	0	0	0	0	405	616
15	0	0	0	0	407	616
0	0	0	0	0	410	617
1	0	0	0	0	414	616
2	0	0	0	0	418	616
3	0	0	0	0	423	616
4	0	0	0	0	427	617
5	0	0	0	0	430	616
6	0	0	0	0	433	616
7	0	0	0	0	434	616
8	0	0	0	0	435	616
9	0	0	0	0	434	616
10	0	0	0	0	432	616
11	0	0	0	0	428	615
12	0	0	0	0	426	616
13	0	0	0	0	423	616
14	0	0	0	0	420	616
15	0	0	0	0	419	616
0	0	0	0	0	418	615
1	0	0	0	0	418	616
2	0	0	0	0	419	616
3	0	0	0	0	421	616
4	0	0	0	0	424	617
5	0	0	0	0	428	616
6	0	0	0	0	432	616
7	0	0	0	0	435	616
8	0	0	0	0	439	616
9	0	0	0	0	443	616
10	0	0	0	0	445	616
11	0	0	0	0	446	616
12	0	0	0	0	446	617
13	0	0	0	0	445	616
14	0	0	0	0	443	615
15	0	0	0	0	440	616
0	0	0	0	0	438	616
1	0	0	0	0	435	617
2	0	0	0	0	432	616
3	0	0	0	0	430	616
4	0	0	0	0	428	616
5	0	0	0	0	427	615
6	0	0	0	0	428	615
7	0	0	0	0	430	615
8	0	0	0	0	433	616
9	0	0	0	0	436	616
10	0	0	0	0	440	616
11	0	0	0	0	444	616
12	0	0	0	0	448	616
13	0	0	0	0	452	616
14	0	0	0	0	455	616
15	0	0	0	0	456	615
0	0	0	0	0	456	616
1	0	0	0	0	455	616
2	0	0	0	0	452	616
3	0	0	0	0	449	616
4	0	0	0	0	446	616
5	0	0	0	0	443	616
6	0	0	0	0	440	615
7	0	0	0	0	438	615
8	0	0	0	0	436	616
9	0	0	0	0	436	615
10	0	0	0	0	437	616
11	0	0	0	0	439	615
12	0	0	0	0	440	616
13	0	0	0	0	444	615
14	0	0	0	0	447	616
15	0	0	0	0	451	616
0	0	0	0	0	454	616
1	0	0	0	0	458	616
2	0	0	0	0	461	616
3	0	0	0	0	461	616
4	0	0	0	0	462	617
5	0	0	0	0	461	616
6	0	0	0	0	458	616
7	0	0	0	0	455	616
8	0	0	0	0	452	616
9	0	0	0	0	448	616
10	0	0	0	0	445	616
11	0	0	0	0	443	616
12	0	0	0	0	442	616
13	0	0	0	0	442	616
14	0	0	0	0	443	616
15	0	0	0	0	445	615
0	0	0	0	0	448	616
1	0	0	0	0	451	616
2	0	0	0	0	454	615
3	0	0	0	0	458	616
4	0	0	0	0	462	616
5	0	0	0	0	465	616
6	0	0	0	0	467	616
7	0	0	0	0	467	616
8	0	0	0	0	466	616
9	0	0	0	0	465	615
10	0	0	0	0	463	616
11	0	0	0	0	460	615
12	0	0	0	0	457	616
13	0	0	0	0	454	615
14	0	0	0	0	452	615
15	0	0	0	0	450	615
0	0	0	0	0	449	615
1	0	0	0	0	449	616
2	0	0	0	0	450	616
3	0	0	0	0	452	616
4	0	0	0	0	455	616
5	0	0	0	0	459	616
6	0	0	0	0	462	615
7	0	0	0	0	466	615
8	0	0	0	0	470	615
9	0	0	0	0	473	616
10	0	0	0	0	477	615
11	0	0	0	0	478	616
12	0	0	0	0	479	617
13	0	0	0	0	478	616
14	0	0	0	0	477	616
15	0	0	0	0	475	616
0	0	0	0	0	472	616
1	0	0	0	0	470	616
2	0	0	0	0	468	616
3	0	0	0	0	468	616
4	0	0	0	0	467	616
5	0	0	0	0	468	615
6	0	0	0	0	470	616
7	0	0	0	0	472	615
8	0	0	0	0	476	616
9	0	0	0	0	480	615
10	0	0	0	0	483	615
11	0	0	0	0	487	615
12	0	0	0	0	492	616
13	0	0	0	0	495	616
14	0	0	0	0	498	616
15	0	0	0	0	499	616
0	0	0	0	0	499	616
1	0	0	0	0	499	616
2	0	0	0	0	497	616
3	0	0	0	0	495	616
4	0	0	0	0	492	617
5	0	0	0	0	490	616
6	0	0	0	0	487	616
7	0	0	0	0	487	616
8	0	0	0	0	487	616
9	0	0	0	0	487	616
10	0	0	0	0	489	616
11	0	0	0	0	492	616
12	0	0	0	0	495	617
13	0	0	0	0	499	615
14	0	0	0	0	503	616
15	0	0	0	0	508	616
0	0	0	0	0	512	616
1	0	0	0	0	516	616
2	0	0	0	0	519	616
3	0	0	0	0	520	616
4	0	0	0	0	520	616
5	0	0	0	0	520	616
6	0	0	0	0	518	616
7	0	0	0	0	516	615
8	0	0	0	0	513	616
9	0	0	0	0	511	616
10	0	0	0	0	509	615
11	0	0	0	0	507	616
12	0	0	0	0	506	616
13	0	0	0	0	506	616
14	0	0	0	0	508	616
15	0	0	0	0	510	615
0	0	0	0	0	512	615
1	0	0	0	0	515	615
2	0	0	0	0	519	615
3	0	0	0	0	523	616
4	0	0	0	0	526	616
5	0	0	0	0	529	616
6	0	0	0	0	532	615
7	0	0	0	0	533	616
8	0	0	0	0	534	616
9	0	0	0	0	532	616
10	0	0	0	0	530	616
11	0	0	0	0	528	616
12	0	0	0	0	524	617
13	0	0	0	0	521	616
14	0	0	0	0	518	616
15	0	0	0	0	517	615
0	0	0	0	0	515	616
1	0	0	0	0	515	615
2	0	0	0	0	516	615
3	0	0	0	0	519	615
4	0	0	0	0	522	617
5	0	0	0	0	524	616
6	0	0	0	0	527	616
7	0	0	0	0	532	616
8	0	0	0	0	536	617
9	0	0	0	0	539	616
10	0	0	0	0	541	616
11	0	0	0	0	542	616
12	0	0	0	0	541	616
13	0	0	0	0	540	617
14	0	0	0	0	538	616
15	0	0	0	0	535	616
0	0	0	0	0	531	616
1	0	0	0	0	527	616
2	0	0	0	0	524	616
3	0	0	0	0	522	616
4	0	0	0	0	521	617
5	0	0	0	0	521	616
6	0	0	0	0	522	616
7	0	0	0	0	523	616
8	0	0	0	0	526	616
9	0	0	0	0	529	616
10	0	0	0	0	532	616
11	0	0	0	0	535	616
12	0	0	0	0	537	617
13	0	0	0	0	539	616
14	0	0	0	0	542	616
15	0	0	0	0	542	616
0	0	0	0	0	542	617
1	0	0	0	0	541	616
2	0	0	0	0	540	616
3	0	0	0	0	536	617
4	0	0	0	0	532	616
5	0	0	0	0	528	615
6	0	0	0	0	526	616
7	0	0	0	0	524	616
8	0	0	0	0	521	617
9	0	0	0	0	520	616
10	0	0	0	0	521	616
11	0	0	0	0	522	616
12	0	0	0	0	524	617
13	0	0	0	0	526	615
14	0	0	0	0	528	615
15	0	0	0	0	532	616
0	0	0	0	0	535	616
1	0	0	0	0	537	616
2	0	0	0	0	540	616
3	0	0	0	0	540	616
4	0	0	0	0	539	616
5	0	0	0	0	536	616
6	0	0	0	0	534	617
7	0	0	0	0	531	616
8	0	0	0	0	527	616
9	0	0	0	0	524	616
10	0	0	0	0	521	616
11	0	0	0	0	519	616
12	0	0	0	0	517	616
13	0	0	0	0	516	616
14	0	0	0	0	518	616
15	0	0	0	0	519	617
0	0	0	0	0	520	617
1	0	0	0	0	523	616
2	0	0	0	0	526	616
3	0	0	0	0	529	616
4	0	0	0	0	532	617
5	0	0	0	0	535	617
6	0	0	0	0	537	617
7	0	0	0	0	538	617
8	0	0	0	0	537	617
9	0	0	0	0	536	617
10	0	0	0	0	534	616
11	0	0	0	0	530	616
12	0	0	0	0	527	616
13	0	0	0	0	523	616
14	0	0	0	0	520	616
15	0	0	0	0	519	616
0	0	0	0	0	517	616
1	0	0	0	0	516	616
2	0	0	0	0	517	616
3	0	0	0	0	518	616
4	0	0	0	0	519	616
5	0	0	0	0	521	616
6	0	0	0	0	524	616
7	0	0	0	0	527	616
8	0	0	0	0	530	616
9	0	0	0	0	533	616
10	0	0	0	0	536	616
11	0	0	0	0	536	616
12	0	0	0	0	535	617
13	0	0	0	0	534	616
14	0	0	0	0	531	616
15	0	0	0	0	528	615
0	0	0	0	0	524	616
1	0	0	0	0	519	615
2	0	0	0	0	517	616
3	0	0	0	0	515	616
4	0	0	0	0	513	616
5	0	0	0	0	513	616
6	0	0	0	0	515	615
7	0	0	0	0	516	616
8	0	0	0	0	518	615
9	0	0	0	0	521	615
10	0	0	0	0	524	615
11	0	0	0	0	528	616
12	0	0	0	0	531	616
13	0	0	0	0	534	616
14	0	0	0	0	537	616
15	0	0	0	0	537	616
0	0	0	0	0	537	616
1	0	0	0	0	536	616
2	0	0	0	0	534	616
3	0	0	0	0	529	616
4	0	0	0	0	525	617
5	0	0	0	0	522	616
6	0	0	0	0	519	616
7	0	0	0	0	516	616
8	0	0	0	0	514	616
9	0	0	0	0	514	616
10	0	0	0	0	515	616
11	0	0	0	0	516	616
12	0	0	0	0	519	617
13	0	0	0	0	521	616
14	0	0	0	0	524	616
15	0	0	0	0	527	616
0	0	0	0	0	529	616
1	0	0	0	0	533	615
2	0	0	0	0	535	616
3	0	0	0	0	536	616
4	0	0	0	0	535	617
5	0	0	0	0	533	615
6	0	0	0	0	531	616
7	0	0	0	0	528	616
8	0	0	0	0	524	616
9	0	0	0	0	521	616
10	0	0	0	0	518	616
11	0	0	0	0	515	615
12	0	0	0	0	514	615
13	0	0	0	0	513	615
14	0	0	0	0	515	615
15	0	0	0	0	516	616
0	0	0	0	0	518	616
1	0	0	0	0	521	615
2	0	0	0	0	524	616
3	0	0	0	0	528	616
4	0	0	0	0	531	616
5	0	0	0	0	533	616
6	0	0	0	0	536	616
7	0	0	0	0	536	616
8	0	0	0	0	536	616
9	0	0	0	0	534	615
10	0	0	0	0	531	615
11	0	0	0	0	528	615
12	0	0	0	0	525	616
13	0	0	0	0	521	616
14	0	0	0	0	518	616
15	0	0	0	0	515	616
0	0	0	0	0	513	616
1	0	0	0	0	513	616
2	0	0	0	0	514	615
3	0	0	0	0	515	616
4	0	0	0	0	517	616
5	0	0	0	0	519	615
6	0	0	0	0	523	615
7	0	0	0	0	526	615
8	0	0	0	0	528	616
9	0	0	0	0	531	616
10	0	0	0	0	533	615
11	0	0	0	0	534	616
12	0	0	0	0	534	617
13	0	0	0	0	533	615
14	0	0	0	0	531	616
15	0	0	0	0	527	616
0	0	0	0	0	522	616
1	0	0	0	0	519	616
2	0	0	0	0	516	616
3	0	0	0	0	513	616
4	0	0	0	0	512	617
5	0	0	0	0	512	615
6	0	0	0	0	512	615
7	0	0	0	0	513	616
8	0	0	0	0	514	617
9	0	0	0	0	517	616
10	0	0	0	0	520	616
11	0	0	0	0	524	616
12	0	0	0	0	527	617
13	0	0	0	0	530	616
14	0	0	0	0	532	616
15	0	0	0	0	531	615
0	0	0	0	0	531	616
1	0	0	0	0	528	616
2	0	0	0	0	526	616
3	0	0	0	0	523	616
4	0	0	0	0	519	616
5	0	0	0	0	516	616
6	0	0	0	0	513	616
7	0	0	0	0	511	616
8	0	0	0	0	509	615
9	0	0	0	0	509	616
10	0	0	0	0	510	617
11	0	0	0	0	511	616
12	0	0	0	0	512	617
13	0	0	0	0	515	616
14	0	0	0	0	518	616
15	0	0	0	0	521	616
0	0	0	0	0	524	617
1	0	0	0	0	527	616
2	0	0	0	0	530	617
3	0	0	0	0	530	616
4	0	0	0	0	530	616
5	0	0	0	0	528	616
6	0	0	0	0	526	616
7	0	0	0	0	523	616
8	0	0	0	0	519	617
9	0	0	0	0	516	616
10	0	0	0	0	513	616
11	0	0	0	0	511	616
12	0	0	0	0	510	616
13	0	0	0	0	510	616
14	0	0	0	0	511	616
15	0	0	0	0	511	616
0	0	0	0	0	513	616
1	0	0	0	0	515	616
2	0	0	0	0	519	616
3	0	0	0	0	523	616
4	0	0	0	0	525	617
5	0	0	0	0	528	616
6	0	0	0	0	530	616
7	0	0	0	0	530	616
8	0	0	0	0	530	616
9	0	0	0	0	528	616
10	0	0	0	0	527	616
11	0	0	0	0	523	616
12	0	0	0	0	519	616
13	0	0	0	0	515	616
14	0	0	0	0	512	616
15	0	0	0	0	510	615
0	0	0	0	0	508	615
1	0	0	0	0	507	615
2	0	0	0	0	508	616
3	0	0	0	0	510	616
4	0	0	0	0	511	616
5	0	0	0	0	513	616
6	0	0	0	0	515	616
7	0	0	0	0	519	616
8	0	0	0	0	522	617
9	0	0	0	0	525	616
10	0	0	0	0	527	616
11	0	0	0	0	528	616
12	0	0	0	0	528	616
13	0	0	0	0	526	616
14	0	0	0	0	524	616
15	0	0	0	0	519	615
0	0	0	0	0	516	616
1	0	0	0	0	512	616
2	0	0	0	0	509	616
3	0	0	0	0	508	616
4	0	0	0	0	507	616
5	0	0	0	0	507	616
6	0	0	0	0	508	616
7	0	0	0	0	508	616
8	0	0	0	0	511	616
9	0	0	0	0	513	617
10	0	0	0	0	515	616
11	0	0	0	0	519	617
12	0	0	0	0	522	617
13	0	0	0	0	525	616
14	0	0	0	0	527	616
15	0	0	0	0	527	616
0	0	0	0	0	527	616
1	0	0	0	0	526	616
2	0	0	0	0	524	616
3	0	0	0	0	520	615
4	0	0	0	0	516	616
5	0	0	0	0	512	616
6	0	0	0	0	510	616
7	0	0	0	0	507	616
8	0	0	0	0	505	616
9	0	0	0	0	505	616
10	0	0	0	0	506	616
11	0	0	0	0	506	616
12	0	0	0	0	508	617
13	0	0	0	0	511	616
14	0	0	0	0	513	616
15	0	0	0	0	516	616
0	0	0	0	0	519	616
1	0	0	0	0	522	616
2	0	0	0	0	524	616
3	0	0	0	0	524	616
4	0	0	0	0	523	617
5	0	0	0	0	522	616
6	0	0	0	0	520	616
7	0	0	0	0	516	616
8	0	0	0	0	512	616
9	0	0	0	0	509	616
10	0	0	0	0	505	616
11	0	0	0	0	504	616
12	0	0	0	0	502	616
13	0	0	0	0	501	615
14	0	0	0	0	502	615
15	0	0	0	0	504	615
0	0	0	0	0	505	616
1	0	0	0	0	508	616
2	0	0	0	0	510	615
3	0	0	0	0	513	616
4	0	0	0	0	516	616
5	0	0	0	0	518	616
6	0	0	0	0	519	616
7	0	0	0	0	519	616
8	0	0	0	0	519	616
9	0	0	0	0	517	616
10	0	0	0	0	514	616
11	0	0	0	0	510	616
12	0	0	0	0	507	615
13	0	0	0	0	503	616
14	0	0	0	0	499	616
15	0	0	0	0	496	615
0	0	0	0	0	494	615
1	0	0	0	0	494	616
2	0	0	0	0	495	616
3	0	0	0	0	497	615
4	0	0	0	0	499	616
5	0	0	0	0	502	616
6	0	0	0	0	505	616
7	0	0	0	0	508	616
8	0	0	0	0	511	616
9	0	0	0	0	513	616
10	0	0	0	0	516	615
11	0	0	0	0	516	616
12	0	0	0	0	517	617
13	0	0	0	0	517	616
14	0	0	0	0	515	616
15	0	0	0	0	512	616
0	0	0	0	0	508	616
1	0	0	0	0	505	617
2	0	0	0	0	502	616
3	0	0	0	0	500	616
4	0	0	0	0	498	617
5	0	0	0	0	498	616
6	0	0	0	0	499	616
7	0	0	0	0	502	616
8	0	0	0	0	504	616
9	0	0	0	0	508	616
10	0	0	0	0	512	616
11	0	0	0	0	516	615
12	0	0	0	0	519	617
13	0	0	0	0	523	616
14	0	0	0	0	524	616
15	0	0	0	0	524	616
0	0	0	0	0	524	616
1	0	0	0	0	523	616
2	0	0	0	0	520	615
3	0	0	0	0	517	615
4	0	0	0	0	514	616
5	0	0	0	0	511	616
6	0	0	0	0	508	616
7	0	0	0	0	505	616
8	0	0	0	0	504	616
9	0	0	0	0	503	616
10	0	0	0	0	504	616
11	0	0	0	0	505	616
12	0	0	0	0	508	617
13	0	0	0	0	511	616
14	0	0	0	0	514	617
15	0	0	0	0	518	617
0	0	0	0	0	520	616
1	0	0	0	0	523	616
2	0	0	0	0	525	617
3	0	0	0	0	526	616
4	0	0	0	0	525	616
5	0	0	0	0	523	616
6	0	0	0	0	520	615
7	0	0	0	0	517	616
8	0	0	0	0	513	616
9	0	0	0	0	510	615
10	0	0	0	0	507	615
11	0	0	0	0	505	615
12	0	0	0	0	502	616
13	0	0	0	0	502	615
14	0	0	0	0	502	616
15	0	0	0	0	503	615
0	0	0	0	0	504	615
1	0	0	0	0	507	616
2	0	0	0	0	510	615
3	0	0	0	0	513	615
4	0	0	0	0	516	617
5	0	0	0	0	519	616
6	0	0	0	0	521	615
7	0	0	0	0	521	616
8	0	0	0	0	520	616
9	0	0	0	0	520	616
10	0	0	0	0	518	615
11	0	0	0	0	514	616
12	0	0	0	0	511	617
13	0	0	0	0	507	616
14	0	0	0	0	504	616
15	0	0	0	0	502	616
0	0	0	0	0	501	616
1	0	0	0	0	500	616
2	0	0	0	0	501	616
3	0	0	0	0	502	616
4	0	0	0	0	504	616
5	0	0	0	0	507	616
6	0	0	0	0	510	616
7	0	0	0	0	513	616
8	0	0	0	0	516	617
9	0	0	0	0	518	616
10	0	0	0	0	520	617
11	0	0	0	0	521	616
12	0	0	0	0	521	617
13	0	0	0	0	520	616
14	0	0	0	0	518	616
15	0	0	0	0	515	617
0	0	0	0	0	512	617
1	0	0	0	0	508	616
2	0	0	0	0	506	617
3	0	0	0	0	504	617
4	0	0	0	0	503	617
5	0	0	0	0	503	616
6	0	0	0	0	503	617
7	0	0	0	0	503	616
8	0	0	0	0	505	616
9	0	0	0	0	507	616
10	0	0	0	0	510	615
11	0	0	0	0	512	616
12	0	0	0	0	515	617
13	0	0	0	0	516	616
14	0	0	0	0	517	616
15	0	0	0	0	515	616
0	0	0	0	0	512	616
1	0	0	0	0	506	617
2	0	0	0	0	498	616
3	0	0	0	0	487	616
4	0	0	0	0	473	616
5	0	0	0	0	459	616
6	0	0	0	0	445	616
7	0	0	0	0	431	616
8	0	0	0	0	417	616
9	0	0	0	0	406	616
10	0	0	0	0	396	616
11	0	0	0	0	388	616
12	0	0	0	0	384	616
13	0	0	0	0	382	616
14	0	0	0	0	384	616
15	0	0	0	0	387	617
0	0	0	0	0	392	617
1	0	0	0	0	400	616
2	0	0	0	0	409	617
3	0	0	0	0	419	616
4	0	0	0	0	428	617
5	0	0	0	0	435	616
6	0	0	0	0	441	616
7	0	0	0	0	444	616
8	0	0	0	0	448	616
9	0	0	0	0	454	616
10	0	0	0	0	465	616
11	0	0	0	0	484	615
12	0	0	0	0	509	616
13	0	0	0	0	538	615
14	0	0	0	0	575	616
15	0	0	0	0	621	615
0	0	0	0	0	672	616
1	0	0	0	0	729	616
2	0	0	0	0	787	616
3	0	0	0	0	841	616
4	0	0	0	0	889	616
5	0	0	0	0	930	615
6	0	0	0	0	965	615
7	0	0	0	0	991	616
8	0	0	0	0	1009	616
9	0	0	0	0	1016	616
10	0	0	0	0	1018	616
11	0	0	0	0	1014	616
12	0	0	0	0	1003	616
13	0	0	0	0	987	616
14	0	0	0	0	967	617
15	0	0	0	0	945	617
0	0	0	0	0	920	617
1	0	0	0	0	890	616
2	0	0	0	0	858	616
3	0	0	0	0	824	616
4	0	0	0	0	790	617
5	0	0	0	0	760	616
6	0	0	0	0	734	615
7	0	0	0	0	711	616
8	0	0	0	0	689	616
9	0	0	0	0	671	616
10	0	0	0	0	654	616
11	0	0	0	0	638	616
12	0	0	0	0	625	617
13	0	0	0	0	611	616
14	0	0	0	0	596	616
15	0	0	0	0	579	615
0	0	0	0	0	563	616
1	0	0	0	0	548	616
2	0	0	0	0	534	616
3	0	0	0	0	520	616
4	0	0	0	0	506	617
5	0	0	0	0	495	616
6	0	0	0	0	483	616
7	0	0	0	0	473	616
8	0	0	0	0	466	616
9	0	0	0	0	460	616
10	0	0	0	0	455	616
11	0	0	0	0	450	616
12	0	0	0	0	445	616
13	0	0	0	0	440	616
14	0	0	0	0	435	616
15	0	0	0	0	431	615
0	0	0	0	0	427	615
1	0	0	0	0	422	616
2	0	0	0	0	417	616
3	0	0	0	0	411	615
4	0	0	0	0	404	616
5	0	0	0	0	398	616
6	0	0	0	0	393	616
7	0	0	0	0	389	616
8	0	0	0	0	386	616
9	0	0	0	0	385	616
10	0	0	0	0	384	616
11	0	0	0	0	385	616
12	0	0	0	0	386	616
13	0	0	0	0	388	616
14	0	0	0	0	391	615
15	0	0	0	0	393	616
0	0	0	0	0	397	616
1	0	0	0	0	399	616
2	0	0	0	0	402	616
3	0	0	0	0	403	616
4	0	0	0	0	403	617
5	0	0	0	0	403	616
6	0	0	0	0	400	616
7	0	0	0	0	398	616
8	0	0	0	0	395	616
9	0	0	0	0	392	616
10	0	0	0	0	390	616
11	0	0	0	0	389	616
12	0	0	0	0	388	617
13	0	0	0	0	389	616
14	0	0	0	0	390	616
15	0	0	0	0	392	616
0	0	0	0	0	394	616
1	0	0	0	0	398	616
2	0	0	0	0	401	616
3	0	0	0	0	405	616
4	0	0	0	0	408	616
5	0	0	0	0	412	616
6	0	0	0	0	415	616
7	0	0	0	0	416	616
8	0	0	0	0	417	616
9	0	0	0	0	418	616
10	0	0	0	0	417	616
11	0	0	0	0	414	616
12	0	0	0	0	412	616
13	0	0	0	0	409	615
14	0	0	0	0	406	615
15	0	0	0	0	405	616
0	0	0	0	0	404	616
1	0	0	0	0	403	616
2	0	0	0	0	404	615
3	0	0	0	0	406	616
4	0	0	0	0	409	616
5	0	0	0	0	412	616
6	0	0	0	0	416	615
7	0	0	0	0	420	616
8	0	0	0	0	424	616
9	0	0	0	0	429	616
10	0	0	0	0	432	616
11	0	0	0	0	433	616
12	0	0	0	0	434	617
13	0	0	0	0	434	616
14	0	0	0	0	433	616
15	0	0	0	0	430	616
0	0	0	0	0	427	616
1	0	0	0	0	423	616
2	0	0	0	0	420	616
3	0	0	0	0	419	616
4	0	0	0	0	418	616
