# OpenSignals Text File Format
# {"98:D3:C1:FD:2F:E5":{"sensor":["RAW","RAW"],"device name":"98:D3:C1:FD:2F:E5","column":["nSeq","I1","I2","O1","O2","A2","A5"],"sync interval":2,"time":"19:34:50","comments":"","device connection":"BTH98:D3:C1:FD:2F:E5","channels":[2,5],"date":"2021-09-09","mode":0,"digital IO":[0,0,1,1],"firmware version":0,"device":"bitalino_rev","position":0,"sampling rate":1000,"label":["A2","A5"],"resolution":[10,10],"special":[{},{}]}}
# EndOfHeader
0	0	0	0	0	527	603
1	0	0	0	0	527	601
2	0	0	0	0	526	603
3	0	0	0	0	524	603
4	0	0	0	0	524	603
5	0	0	0	0	523	606
6	0	0	0	0	521	603
7	0	0	0	0	521	604
8	0	0	0	0	520	604
9	0	0	0	0	521	602
10	0	0	0	0	520	604
11	0	0	0	0	521	604
12	0	0	0	0	521	604
13	0	0	0	0	520	607
14	0	0	0	0	519	604
15	0	0	0	0	519	604
0	0	0	0	0	519	604
1	0	0	0	0	518	603
2	0	0	0	0	516	604
3	0	0	0	0	515	604
4	0	0	0	0	515	604
5	0	0	0	0	514	607
6	0	0	0	0	513	604
7	0	0	0	0	513	604
8	0	0	0	0	515	604
9	0	0	0	0	515	603
10	0	0	0	0	514	604
11	0	0	0	0	514	604
12	0	0	0	0	514	604
13	0	0	0	0	515	606
14	0	0	0	0	515	604
15	0	0	0	0	515	604
0	0	0	0	0	515	604
1	0	0	0	0	515	602
2	0	0	0	0	515	604
3	0	0	0	0	515	604
4	0	0	0	0	515	604
5	0	0	0	0	515	607
6	0	0	0	0	515	604
7	0	0	0	0	514	604
8	0	0	0	0	514	604
9	0	0	0	0	514	602
10	0	0	0	0	514	604
11	0	0	0	0	513	604
12	0	0	0	0	514	604
13	0	0	0	0	515	607
14	0	0	0	0	515	605
15	0	0	0	0	515	604
0	0	0	0	0	515	604
1	0	0	0	0	514	602
2	0	0	0	0	514	604
3	0	0	0	0	514	605
4	0	0	0	0	515	604
5	0	0	0	0	514	607
6	0	0	0	0	515	605
7	0	0	0	0	515	605
8	0	0	0	0	516	604
9	0	0	0	0	516	602
10	0	0	0	0	518	604
11	0	0	0	0	517	604
12	0	0	0	0	516	604
13	0	0	0	0	516	607
14	0	0	0	0	516	604
15	0	0	0	0	515	604
0	0	0	0	0	516	604
1	0	0	0	0	516	602
2	0	0	0	0	517	604
3	0	0	0	0	518	604
4	0	0	0	0	518	604
5	0	0	0	0	518	606
6	0	0	0	0	518	604
7	0	0	0	0	517	604
8	0	0	0	0	516	603
9	0	0	0	0	516	601
10	0	0	0	0	515	603
11	0	0	0	0	515	603
12	0	0	0	0	515	603
13	0	0	0	0	515	606
14	0	0	0	0	514	603
15	0	0	0	0	514	603
0	0	0	0	0	513	603
1	0	0	0	0	513	601
2	0	0	0	0	512	603
3	0	0	0	0	513	603
4	0	0	0	0	512	603
5	0	0	0	0	512	605
6	0	0	0	0	512	603
7	0	0	0	0	512	603
8	0	0	0	0	511	603
9	0	0	0	0	511	601
10	0	0	0	0	512	603
11	0	0	0	0	511	603
12	0	0	0	0	511	604
13	0	0	0	0	510	606
14	0	0	0	0	511	604
15	0	0	0	0	510	604
0	0	0	0	0	511	604
1	0	0	0	0	510	603
2	0	0	0	0	511	604
3	0	0	0	0	512	604
4	0	0	0	0	512	604
5	0	0	0	0	511	606
6	0	0	0	0	511	603
7	0	0	0	0	512	603
8	0	0	0	0	512	604
9	0	0	0	0	512	602
10	0	0	0	0	512	604
11	0	0	0	0	512	604
12	0	0	0	0	512	604
13	0	0	0	0	513	606
14	0	0	0	0	512	604
15	0	0	0	0	512	603
0	0	0	0	0	512	604
1	0	0	0	0	512	602
2	0	0	0	0	511	604
3	0	0	0	0	509	604
4	0	0	0	0	509	603
5	0	0	0	0	508	606
6	0	0	0	0	508	604
7	0	0	0	0	508	604
8	0	0	0	0	507	604
9	0	0	0	0	508	602
10	0	0	0	0	507	604
11	0	0	0	0	507	604
12	0	0	0	0	505	604
13	0	0	0	0	504	606
14	0	0	0	0	504	604
15	0	0	0	0	504	604
0	0	0	0	0	503	603
1	0	0	0	0	502	602
2	0	0	0	0	501	603
3	0	0	0	0	500	603
4	0	0	0	0	500	603
5	0	0	0	0	499	605
6	0	0	0	0	499	603
7	0	0	0	0	499	604
8	0	0	0	0	499	604
9	0	0	0	0	499	601
10	0	0	0	0	499	604
11	0	0	0	0	499	604
12	0	0	0	0	499	604
13	0	0	0	0	499	606
14	0	0	0	0	500	604
15	0	0	0	0	500	604
0	0	0	0	0	500	604
1	0	0	0	0	499	603
2	0	0	0	0	499	604
3	0	0	0	0	498	604
4	0	0	0	0	497	604
5	0	0	0	0	497	606
6	0	0	0	0	496	604
7	0	0	0	0	496	604
8	0	0	0	0	495	604
9	0	0	0	0	495	602
10	0	0	0	0	494	604
11	0	0	0	0	494	604
12	0	0	0	0	493	604
13	0	0	0	0	493	606
14	0	0	0	0	492	604
15	0	0	0	0	492	604
0	0	0	0	0	491	604
1	0	0	0	0	491	603
2	0	0	0	0	491	604
3	0	0	0	0	491	604
4	0	0	0	0	491	604
5	0	0	0	0	490	606
6	0	0	0	0	490	604
7	0	0	0	0	489	603
8	0	0	0	0	490	604
9	0	0	0	0	491	601
10	0	0	0	0	491	604
11	0	0	0	0	492	604
12	0	0	0	0	492	604
13	0	0	0	0	493	606
14	0	0	0	0	494	604
15	0	0	0	0	494	604
0	0	0	0	0	496	604
1	0	0	0	0	496	603
2	0	0	0	0	496	604
3	0	0	0	0	497	604
4	0	0	0	0	497	603
5	0	0	0	0	498	606
6	0	0	0	0	500	604
7	0	0	0	0	501	604
8	0	0	0	0	500	604
9	0	0	0	0	501	601
10	0	0	0	0	501	604
11	0	0	0	0	501	604
12	0	0	0	0	500	604
13	0	0	0	0	501	606
14	0	0	0	0	502	604
15	0	0	0	0	503	604
0	0	0	0	0	503	604
1	0	0	0	0	502	603
2	0	0	0	0	503	604
3	0	0	0	0	503	604
4	0	0	0	0	503	604
5	0	0	0	0	504	606
6	0	0	0	0	504	604
7	0	0	0	0	505	604
8	0	0	0	0	505	604
9	0	0	0	0	505	602
10	0	0	0	0	504	605
11	0	0	0	0	504	604
12	0	0	0	0	504	604
13	0	0	0	0	504	606
14	0	0	0	0	504	604
15	0	0	0	0	504	604
0	0	0	0	0	504	604
1	0	0	0	0	504	602
2	0	0	0	0	504	604
3	0	0	0	0	504	604
4	0	0	0	0	504	603
5	0	0	0	0	504	606
6	0	0	0	0	504	604
7	0	0	0	0	504	604
8	0	0	0	0	504	604
9	0	0	0	0	504	603
10	0	0	0	0	505	604
11	0	0	0	0	505	605
12	0	0	0	0	505	604
13	0	0	0	0	505	607
14	0	0	0	0	504	604
15	0	0	0	0	504	604
0	0	0	0	0	504	605
1	0	0	0	0	505	603
2	0	0	0	0	505	605
3	0	0	0	0	505	604
4	0	0	0	0	506	604
5	0	0	0	0	507	607
6	0	0	0	0	507	604
7	0	0	0	0	507	604
8	0	0	0	0	507	604
9	0	0	0	0	507	603
10	0	0	0	0	506	605
11	0	0	0	0	505	604
12	0	0	0	0	505	604
13	0	0	0	0	507	607
14	0	0	0	0	508	604
15	0	0	0	0	508	604
0	0	0	0	0	508	604
1	0	0	0	0	509	602
2	0	0	0	0	509	604
3	0	0	0	0	510	604
4	0	0	0	0	510	604
5	0	0	0	0	511	606
6	0	0	0	0	512	604
7	0	0	0	0	512	603
8	0	0	0	0	511	604
9	0	0	0	0	510	602
10	0	0	0	0	509	604
11	0	0	0	0	509	604
12	0	0	0	0	508	604
13	0	0	0	0	508	606
14	0	0	0	0	508	604
15	0	0	0	0	508	604
0	0	0	0	0	508	604
1	0	0	0	0	508	603
2	0	0	0	0	507	604
3	0	0	0	0	507	605
4	0	0	0	0	506	604
5	0	0	0	0	506	607
6	0	0	0	0	505	604
7	0	0	0	0	504	604
8	0	0	0	0	503	604
9	0	0	0	0	501	603
10	0	0	0	0	499	604
11	0	0	0	0	496	603
12	0	0	0	0	491	604
13	0	0	0	0	487	606
14	0	0	0	0	482	603
15	0	0	0	0	477	603
0	0	0	0	0	471	604
1	0	0	0	0	466	601
2	0	0	0	0	462	603
3	0	0	0	0	459	604
4	0	0	0	0	457	604
5	0	0	0	0	455	606
6	0	0	0	0	451	604
7	0	0	0	0	448	604
8	0	0	0	0	446	604
9	0	0	0	0	442	602
10	0	0	0	0	440	604
11	0	0	0	0	438	604
12	0	0	0	0	437	604
13	0	0	0	0	438	606
14	0	0	0	0	441	603
15	0	0	0	0	448	604
0	0	0	0	0	458	604
1	0	0	0	0	472	602
2	0	0	0	0	488	604
3	0	0	0	0	505	604
4	0	0	0	0	524	604
5	0	0	0	0	543	606
6	0	0	0	0	565	604
7	0	0	0	0	585	604
8	0	0	0	0	604	604
9	0	0	0	0	620	602
10	0	0	0	0	634	603
11	0	0	0	0	643	603
12	0	0	0	0	647	603
13	0	0	0	0	647	606
14	0	0	0	0	646	604
15	0	0	0	0	643	604
0	0	0	0	0	639	604
1	0	0	0	0	635	601
2	0	0	0	0	631	604
3	0	0	0	0	627	604
4	0	0	0	0	626	604
5	0	0	0	0	628	607
6	0	0	0	0	634	604
7	0	0	0	0	643	604
8	0	0	0	0	652	604
9	0	0	0	0	659	602
10	0	0	0	0	665	604
11	0	0	0	0	670	604
12	0	0	0	0	665	603
13	0	0	0	0	656	606
14	0	0	0	0	643	604
15	0	0	0	0	630	604
0	0	0	0	0	615	604
1	0	0	0	0	600	602
2	0	0	0	0	585	604
3	0	0	0	0	572	604
4	0	0	0	0	559	604
5	0	0	0	0	548	607
6	0	0	0	0	539	604
7	0	0	0	0	530	604
8	0	0	0	0	523	604
9	0	0	0	0	517	602
10	0	0	0	0	511	604
11	0	0	0	0	506	604
12	0	0	0	0	502	603
13	0	0	0	0	497	607
14	0	0	0	0	493	604
15	0	0	0	0	489	604
0	0	0	0	0	486	605
1	0	0	0	0	483	602
2	0	0	0	0	479	604
3	0	0	0	0	476	604
4	0	0	0	0	473	604
5	0	0	0	0	471	607
6	0	0	0	0	470	605
7	0	0	0	0	468	604
8	0	0	0	0	466	604
9	0	0	0	0	466	602
10	0	0	0	0	464	604
11	0	0	0	0	463	604
12	0	0	0	0	462	604
13	0	0	0	0	462	607
14	0	0	0	0	462	604
15	0	0	0	0	462	604
0	0	0	0	0	462	604
1	0	0	0	0	461	602
2	0	0	0	0	461	604
3	0	0	0	0	462	604
4	0	0	0	0	462	604
5	0	0	0	0	461	607
6	0	0	0	0	461	604
7	0	0	0	0	463	605
8	0	0	0	0	463	604
9	0	0	0	0	461	602
10	0	0	0	0	462	604
11	0	0	0	0	461	604
12	0	0	0	0	463	603
13	0	0	0	0	463	606
14	0	0	0	0	462	603
15	0	0	0	0	463	603
0	0	0	0	0	464	604
1	0	0	0	0	464	602
2	0	0	0	0	465	604
3	0	0	0	0	464	604
4	0	0	0	0	465	603
5	0	0	0	0	465	606
6	0	0	0	0	465	604
7	0	0	0	0	466	604
8	0	0	0	0	465	604
9	0	0	0	0	466	602
10	0	0	0	0	467	604
11	0	0	0	0	468	604
12	0	0	0	0	469	604
13	0	0	0	0	470	606
14	0	0	0	0	470	604
15	0	0	0	0	470	604
0	0	0	0	0	471	603
1	0	0	0	0	470	602
2	0	0	0	0	471	604
3	0	0	0	0	471	604
4	0	0	0	0	471	603
5	0	0	0	0	471	605
6	0	0	0	0	471	603
7	0	0	0	0	472	603
8	0	0	0	0	472	604
9	0	0	0	0	473	601
10	0	0	0	0	474	604
11	0	0	0	0	474	604
12	0	0	0	0	474	604
13	0	0	0	0	476	606
14	0	0	0	0	476	604
15	0	0	0	0	477	604
0	0	0	0	0	478	604
1	0	0	0	0	478	602
2	0	0	0	0	477	604
3	0	0	0	0	477	604
4	0	0	0	0	479	604
5	0	0	0	0	480	607
6	0	0	0	0	480	604
7	0	0	0	0	478	605
8	0	0	0	0	478	604
9	0	0	0	0	479	602
10	0	0	0	0	480	604
11	0	0	0	0	480	604
12	0	0	0	0	481	604
13	0	0	0	0	481	606
14	0	0	0	0	481	604
15	0	0	0	0	481	604
0	0	0	0	0	481	604
1	0	0	0	0	481	603
2	0	0	0	0	480	604
3	0	0	0	0	480	604
4	0	0	0	0	480	604
5	0	0	0	0	480	607
6	0	0	0	0	480	604
7	0	0	0	0	480	604
8	0	0	0	0	479	604
9	0	0	0	0	479	602
10	0	0	0	0	479	604
11	0	0	0	0	479	604
12	0	0	0	0	479	604
13	0	0	0	0	480	606
14	0	0	0	0	480	603
15	0	0	0	0	480	604
0	0	0	0	0	481	604
1	0	0	0	0	480	601
2	0	0	0	0	480	604
3	0	0	0	0	480	604
4	0	0	0	0	480	603
5	0	0	0	0	480	606
6	0	0	0	0	480	604
7	0	0	0	0	479	604
8	0	0	0	0	479	604
9	0	0	0	0	479	602
10	0	0	0	0	480	604
11	0	0	0	0	480	604
12	0	0	0	0	480	604
13	0	0	0	0	480	606
14	0	0	0	0	483	604
15	0	0	0	0	481	604
0	0	0	0	0	480	603
1	0	0	0	0	480	601
2	0	0	0	0	480	603
3	0	0	0	0	480	603
4	0	0	0	0	480	603
5	0	0	0	0	480	605
6	0	0	0	0	480	603
7	0	0	0	0	480	603
8	0	0	0	0	480	603
9	0	0	0	0	480	601
10	0	0	0	0	479	602
11	0	0	0	0	479	602
12	0	0	0	0	480	603
13	0	0	0	0	481	605
14	0	0	0	0	482	603
15	0	0	0	0	481	603
0	0	0	0	0	481	603
1	0	0	0	0	480	601
2	0	0	0	0	481	603
3	0	0	0	0	481	603
4	0	0	0	0	481	603
5	0	0	0	0	484	605
6	0	0	0	0	483	602
7	0	0	0	0	482	603
8	0	0	0	0	482	602
9	0	0	0	0	482	601
10	0	0	0	0	482	603
11	0	0	0	0	483	603
12	0	0	0	0	482	603
13	0	0	0	0	482	605
14	0	0	0	0	482	603
15	0	0	0	0	482	603
0	0	0	0	0	483	604
1	0	0	0	0	484	601
2	0	0	0	0	485	604
3	0	0	0	0	486	603
4	0	0	0	0	485	603
5	0	0	0	0	486	606
6	0	0	0	0	486	604
7	0	0	0	0	486	604
8	0	0	0	0	486	604
9	0	0	0	0	487	602
10	0	0	0	0	487	604
11	0	0	0	0	487	604
12	0	0	0	0	487	604
13	0	0	0	0	488	607
14	0	0	0	0	489	604
15	0	0	0	0	489	604
0	0	0	0	0	490	604
1	0	0	0	0	492	602
2	0	0	0	0	492	604
3	0	0	0	0	493	604
4	0	0	0	0	494	604
5	0	0	0	0	495	607
6	0	0	0	0	496	604
7	0	0	0	0	497	604
8	0	0	0	0	499	605
9	0	0	0	0	498	603
10	0	0	0	0	498	604
11	0	0	0	0	499	604
12	0	0	0	0	499	604
13	0	0	0	0	501	606
14	0	0	0	0	501	604
15	0	0	0	0	502	604
0	0	0	0	0	502	604
1	0	0	0	0	502	603
2	0	0	0	0	504	604
3	0	0	0	0	503	604
4	0	0	0	0	504	604
5	0	0	0	0	504	606
6	0	0	0	0	504	604
7	0	0	0	0	505	604
8	0	0	0	0	507	604
9	0	0	0	0	509	602
10	0	0	0	0	509	604
11	0	0	0	0	509	604
12	0	0	0	0	510	604
13	0	0	0	0	511	607
14	0	0	0	0	511	604
15	0	0	0	0	511	604
0	0	0	0	0	511	604
1	0	0	0	0	511	603
2	0	0	0	0	512	604
3	0	0	0	0	512	603
4	0	0	0	0	511	604
5	0	0	0	0	511	606
6	0	0	0	0	511	604
7	0	0	0	0	510	604
8	0	0	0	0	510	604
9	0	0	0	0	509	602
10	0	0	0	0	508	603
11	0	0	0	0	509	604
12	0	0	0	0	508	603
13	0	0	0	0	508	605
14	0	0	0	0	507	603
15	0	0	0	0	508	603
0	0	0	0	0	507	604
1	0	0	0	0	505	602
2	0	0	0	0	505	604
3	0	0	0	0	504	604
4	0	0	0	0	504	604
5	0	0	0	0	504	606
6	0	0	0	0	503	604
7	0	0	0	0	501	604
8	0	0	0	0	500	604
9	0	0	0	0	500	601
10	0	0	0	0	500	603
11	0	0	0	0	499	603
12	0	0	0	0	498	603
13	0	0	0	0	498	606
14	0	0	0	0	497	604
15	0	0	0	0	498	604
0	0	0	0	0	498	604
1	0	0	0	0	497	602
2	0	0	0	0	497	604
3	0	0	0	0	497	603
4	0	0	0	0	497	604
5	0	0	0	0	497	606
6	0	0	0	0	499	604
7	0	0	0	0	500	603
8	0	0	0	0	500	603
9	0	0	0	0	501	601
10	0	0	0	0	502	603
11	0	0	0	0	501	604
12	0	0	0	0	500	603
13	0	0	0	0	502	606
14	0	0	0	0	503	604
15	0	0	0	0	503	603
0	0	0	0	0	503	603
1	0	0	0	0	504	602
2	0	0	0	0	503	604
3	0	0	0	0	503	604
4	0	0	0	0	504	604
5	0	0	0	0	503	607
6	0	0	0	0	503	604
7	0	0	0	0	503	604
8	0	0	0	0	503	604
9	0	0	0	0	503	601
10	0	0	0	0	503	604
11	0	0	0	0	502	604
12	0	0	0	0	502	604
13	0	0	0	0	502	606
14	0	0	0	0	501	604
15	0	0	0	0	502	604
0	0	0	0	0	503	604
1	0	0	0	0	503	602
2	0	0	0	0	503	605
3	0	0	0	0	503	604
4	0	0	0	0	504	604
5	0	0	0	0	505	606
6	0	0	0	0	506	604
7	0	0	0	0	506	604
8	0	0	0	0	505	604
9	0	0	0	0	505	603
10	0	0	0	0	505	604
11	0	0	0	0	506	605
12	0	0	0	0	507	604
13	0	0	0	0	508	607
14	0	0	0	0	507	604
15	0	0	0	0	507	604
0	0	0	0	0	508	604
1	0	0	0	0	509	602
2	0	0	0	0	508	604
3	0	0	0	0	509	604
4	0	0	0	0	509	604
5	0	0	0	0	509	606
6	0	0	0	0	509	604
7	0	0	0	0	508	604
8	0	0	0	0	508	603
9	0	0	0	0	508	602
10	0	0	0	0	507	604
11	0	0	0	0	508	604
12	0	0	0	0	507	604
13	0	0	0	0	508	606
14	0	0	0	0	508	604
15	0	0	0	0	509	604
0	0	0	0	0	509	604
1	0	0	0	0	509	602
2	0	0	0	0	509	604
3	0	0	0	0	509	604
4	0	0	0	0	510	604
5	0	0	0	0	510	607
6	0	0	0	0	510	605
7	0	0	0	0	510	605
8	0	0	0	0	511	605
9	0	0	0	0	512	603
10	0	0	0	0	510	605
11	0	0	0	0	510	605
12	0	0	0	0	511	605
13	0	0	0	0	511	607
14	0	0	0	0	511	605
15	0	0	0	0	512	605
0	0	0	0	0	512	604
1	0	0	0	0	512	603
2	0	0	0	0	512	604
3	0	0	0	0	512	604
4	0	0	0	0	512	604
5	0	0	0	0	512	606
6	0	0	0	0	512	604
7	0	0	0	0	512	604
8	0	0	0	0	511	604
9	0	0	0	0	511	602
10	0	0	0	0	510	604
11	0	0	0	0	510	604
12	0	0	0	0	511	604
13	0	0	0	0	511	606
14	0	0	0	0	511	604
15	0	0	0	0	511	605
0	0	0	0	0	511	604
1	0	0	0	0	510	603
2	0	0	0	0	510	604
3	0	0	0	0	510	604
4	0	0	0	0	509	604
5	0	0	0	0	508	606
6	0	0	0	0	508	604
7	0	0	0	0	508	603
8	0	0	0	0	508	603
9	0	0	0	0	508	602
10	0	0	0	0	507	604
11	0	0	0	0	507	604
12	0	0	0	0	506	604
13	0	0	0	0	508	606
14	0	0	0	0	507	604
15	0	0	0	0	505	604
0	0	0	0	0	505	604
1	0	0	0	0	504	602
2	0	0	0	0	504	604
3	0	0	0	0	503	604
4	0	0	0	0	504	604
5	0	0	0	0	504	606
6	0	0	0	0	503	604
7	0	0	0	0	503	604
8	0	0	0	0	503	603
9	0	0	0	0	504	602
10	0	0	0	0	502	603
11	0	0	0	0	502	603
12	0	0	0	0	502	604
13	0	0	0	0	502	606
14	0	0	0	0	502	604
15	0	0	0	0	502	604
0	0	0	0	0	502	604
1	0	0	0	0	502	602
2	0	0	0	0	502	604
3	0	0	0	0	503	603
4	0	0	0	0	502	604
5	0	0	0	0	502	606
6	0	0	0	0	503	604
7	0	0	0	0	503	604
8	0	0	0	0	503	604
9	0	0	0	0	504	602
10	0	0	0	0	503	604
11	0	0	0	0	503	604
12	0	0	0	0	503	604
13	0	0	0	0	503	606
14	0	0	0	0	502	604
15	0	0	0	0	502	603
0	0	0	0	0	503	603
1	0	0	0	0	503	602
2	0	0	0	0	503	604
3	0	0	0	0	503	604
4	0	0	0	0	502	604
5	0	0	0	0	501	606
6	0	0	0	0	502	604
7	0	0	0	0	501	604
8	0	0	0	0	500	604
9	0	0	0	0	500	602
10	0	0	0	0	500	604
11	0	0	0	0	499	604
12	0	0	0	0	499	604
13	0	0	0	0	499	606
14	0	0	0	0	499	604
15	0	0	0	0	499	604
0	0	0	0	0	498	604
1	0	0	0	0	498	603
2	0	0	0	0	498	605
3	0	0	0	0	497	604
4	0	0	0	0	497	604
5	0	0	0	0	497	607
6	0	0	0	0	498	605
7	0	0	0	0	498	604
8	0	0	0	0	498	604
9	0	0	0	0	498	603
10	0	0	0	0	498	604
11	0	0	0	0	497	604
12	0	0	0	0	497	604
13	0	0	0	0	497	607
14	0	0	0	0	498	604
15	0	0	0	0	498	604
0	0	0	0	0	500	604
1	0	0	0	0	499	603
2	0	0	0	0	499	604
3	0	0	0	0	500	604
4	0	0	0	0	499	604
5	0	0	0	0	500	606
6	0	0	0	0	502	604
7	0	0	0	0	502	604
8	0	0	0	0	502	604
9	0	0	0	0	502	601
10	0	0	0	0	504	604
11	0	0	0	0	505	604
12	0	0	0	0	505	604
13	0	0	0	0	505	606
14	0	0	0	0	506	604
15	0	0	0	0	507	604
0	0	0	0	0	507	604
1	0	0	0	0	508	601
2	0	0	0	0	510	604
3	0	0	0	0	509	603
4	0	0	0	0	508	603
5	0	0	0	0	509	606
6	0	0	0	0	509	604
7	0	0	0	0	509	604
8	0	0	0	0	510	604
9	0	0	0	0	510	601
10	0	0	0	0	509	604
11	0	0	0	0	509	604
12	0	0	0	0	509	604
13	0	0	0	0	509	606
14	0	0	0	0	511	604
15	0	0	0	0	511	604
0	0	0	0	0	511	604
1	0	0	0	0	512	603
2	0	0	0	0	512	604
3	0	0	0	0	512	604
4	0	0	0	0	512	604
5	0	0	0	0	512	607
6	0	0	0	0	512	604
7	0	0	0	0	513	605
8	0	0	0	0	515	604
9	0	0	0	0	515	603
10	0	0	0	0	515	604
11	0	0	0	0	515	605
12	0	0	0	0	515	605
13	0	0	0	0	515	607
14	0	0	0	0	515	605
15	0	0	0	0	515	605
0	0	0	0	0	515	605
1	0	0	0	0	515	603
2	0	0	0	0	515	605
3	0	0	0	0	514	605
4	0	0	0	0	514	605
5	0	0	0	0	513	608
6	0	0	0	0	512	605
7	0	0	0	0	513	604
8	0	0	0	0	513	605
9	0	0	0	0	513	603
10	0	0	0	0	513	604
11	0	0	0	0	512	604
12	0	0	0	0	513	604
13	0	0	0	0	513	607
14	0	0	0	0	513	604
15	0	0	0	0	512	604
0	0	0	0	0	512	604
1	0	0	0	0	513	602
2	0	0	0	0	512	604
3	0	0	0	0	511	603
4	0	0	0	0	512	604
5	0	0	0	0	511	606
6	0	0	0	0	511	604
7	0	0	0	0	512	603
8	0	0	0	0	511	603
9	0	0	0	0	511	602
10	0	0	0	0	511	603
11	0	0	0	0	512	604
12	0	0	0	0	512	603
13	0	0	0	0	512	606
14	0	0	0	0	512	604
15	0	0	0	0	512	604
0	0	0	0	0	511	603
1	0	0	0	0	510	603
2	0	0	0	0	510	604
3	0	0	0	0	510	604
4	0	0	0	0	509	604
5	0	0	0	0	508	606
6	0	0	0	0	508	604
7	0	0	0	0	508	604
8	0	0	0	0	508	604
9	0	0	0	0	508	602
10	0	0	0	0	507	603
11	0	0	0	0	505	604
12	0	0	0	0	503	604
13	0	0	0	0	503	606
14	0	0	0	0	502	604
15	0	0	0	0	502	604
0	0	0	0	0	502	604
1	0	0	0	0	501	603
2	0	0	0	0	502	604
3	0	0	0	0	502	604
4	0	0	0	0	502	604
5	0	0	0	0	502	607
6	0	0	0	0	502	604
7	0	0	0	0	503	604
8	0	0	0	0	503	604
9	0	0	0	0	503	602
10	0	0	0	0	502	604
11	0	0	0	0	502	604
12	0	0	0	0	502	604
13	0	0	0	0	501	607
14	0	0	0	0	500	604
15	0	0	0	0	500	605
0	0	0	0	0	499	604
1	0	0	0	0	500	603
2	0	0	0	0	500	604
3	0	0	0	0	500	604
4	0	0	0	0	500	604
5	0	0	0	0	500	607
6	0	0	0	0	499	605
7	0	0	0	0	499	605
8	0	0	0	0	499	605
9	0	0	0	0	499	603
10	0	0	0	0	499	605
11	0	0	0	0	498	605
12	0	0	0	0	498	604
13	0	0	0	0	499	607
14	0	0	0	0	499	604
15	0	0	0	0	498	605
0	0	0	0	0	499	604
1	0	0	0	0	499	603
2	0	0	0	0	498	604
3	0	0	0	0	498	604
4	0	0	0	0	498	604
5	0	0	0	0	499	607
6	0	0	0	0	499	604
7	0	0	0	0	499	604
8	0	0	0	0	501	604
9	0	0	0	0	502	602
10	0	0	0	0	503	604
11	0	0	0	0	504	604
12	0	0	0	0	506	604
13	0	0	0	0	507	606
14	0	0	0	0	508	604
15	0	0	0	0	509	604
0	0	0	0	0	510	604
1	0	0	0	0	511	601
2	0	0	0	0	512	603
3	0	0	0	0	513	603
4	0	0	0	0	515	604
5	0	0	0	0	515	606
6	0	0	0	0	517	603
7	0	0	0	0	518	603
8	0	0	0	0	519	603
9	0	0	0	0	519	601
10	0	0	0	0	519	603
11	0	0	0	0	518	603
12	0	0	0	0	518	603
13	0	0	0	0	518	605
14	0	0	0	0	518	603
15	0	0	0	0	518	603
0	0	0	0	0	519	603
1	0	0	0	0	518	601
2	0	0	0	0	516	603
3	0	0	0	0	515	603
4	0	0	0	0	515	603
5	0	0	0	0	515	605
6	0	0	0	0	515	603
7	0	0	0	0	515	603
8	0	0	0	0	515	604
9	0	0	0	0	515	601
10	0	0	0	0	515	603
11	0	0	0	0	515	603
12	0	0	0	0	515	604
13	0	0	0	0	516	606
14	0	0	0	0	516	604
15	0	0	0	0	515	603
0	0	0	0	0	515	604
1	0	0	0	0	515	602
2	0	0	0	0	515	604
3	0	0	0	0	515	604
4	0	0	0	0	515	604
5	0	0	0	0	515	606
6	0	0	0	0	514	604
7	0	0	0	0	514	603
8	0	0	0	0	514	604
9	0	0	0	0	514	601
10	0	0	0	0	516	604
11	0	0	0	0	514	603
12	0	0	0	0	514	604
13	0	0	0	0	513	606
14	0	0	0	0	514	604
15	0	0	0	0	515	604
0	0	0	0	0	515	604
1	0	0	0	0	515	602
2	0	0	0	0	515	603
3	0	0	0	0	515	603
4	0	0	0	0	515	604
5	0	0	0	0	516	606
6	0	0	0	0	517	604
7	0	0	0	0	517	604
8	0	0	0	0	517	604
9	0	0	0	0	517	602
10	0	0	0	0	516	604
11	0	0	0	0	516	604
12	0	0	0	0	517	604
13	0	0	0	0	517	607
14	0	0	0	0	517	604
15	0	0	0	0	516	604
0	0	0	0	0	516	605
1	0	0	0	0	516	603
2	0	0	0	0	515	604
3	0	0	0	0	516	605
4	0	0	0	0	515	604
5	0	0	0	0	515	606
6	0	0	0	0	516	605
7	0	0	0	0	515	604
8	0	0	0	0	516	604
9	0	0	0	0	515	603
10	0	0	0	0	515	604
11	0	0	0	0	515	604
12	0	0	0	0	515	604
13	0	0	0	0	515	607
14	0	0	0	0	514	605
15	0	0	0	0	513	604
0	0	0	0	0	512	604
1	0	0	0	0	511	603
2	0	0	0	0	509	605
3	0	0	0	0	507	604
4	0	0	0	0	505	604
5	0	0	0	0	502	607
6	0	0	0	0	497	604
7	0	0	0	0	492	604
8	0	0	0	0	488	604
9	0	0	0	0	483	603
10	0	0	0	0	478	604
11	0	0	0	0	474	604
12	0	0	0	0	472	604
13	0	0	0	0	469	606
14	0	0	0	0	468	604
15	0	0	0	0	465	604
0	0	0	0	0	462	604
1	0	0	0	0	460	602
2	0	0	0	0	459	604
3	0	0	0	0	458	604
4	0	0	0	0	458	603
5	0	0	0	0	459	606
6	0	0	0	0	461	604
7	0	0	0	0	466	604
8	0	0	0	0	476	604
9	0	0	0	0	487	602
10	0	0	0	0	503	604
11	0	0	0	0	521	604
12	0	0	0	0	540	604
13	0	0	0	0	560	605
14	0	0	0	0	581	603
15	0	0	0	0	603	604
0	0	0	0	0	622	604
1	0	0	0	0	641	602
2	0	0	0	0	656	604
3	0	0	0	0	669	604
4	0	0	0	0	677	604
5	0	0	0	0	681	606
6	0	0	0	0	681	604
7	0	0	0	0	681	604
8	0	0	0	0	678	604
9	0	0	0	0	675	602
10	0	0	0	0	670	603
11	0	0	0	0	663	604
12	0	0	0	0	656	603
13	0	0	0	0	651	606
14	0	0	0	0	646	604
15	0	0	0	0	646	603
0	0	0	0	0	649	604
1	0	0	0	0	655	602
2	0	0	0	0	659	604
3	0	0	0	0	664	604
4	0	0	0	0	667	604
5	0	0	0	0	662	606
6	0	0	0	0	653	604
7	0	0	0	0	641	604
8	0	0	0	0	629	604
9	0	0	0	0	617	602
10	0	0	0	0	604	604
11	0	0	0	0	590	604
12	0	0	0	0	577	604
13	0	0	0	0	566	606
14	0	0	0	0	555	604
15	0	0	0	0	547	604
0	0	0	0	0	538	604
1	0	0	0	0	530	603
2	0	0	0	0	526	604
3	0	0	0	0	520	604
4	0	0	0	0	513	605
5	0	0	0	0	509	607
6	0	0	0	0	505	605
7	0	0	0	0	501	605
8	0	0	0	0	497	604
9	0	0	0	0	493	602
10	0	0	0	0	489	605
11	0	0	0	0	484	604
12	0	0	0	0	481	604
13	0	0	0	0	479	607
14	0	0	0	0	477	604
15	0	0	0	0	474	604
0	0	0	0	0	472	605
1	0	0	0	0	470	603
2	0	0	0	0	468	604
3	0	0	0	0	466	604
4	0	0	0	0	466	604
5	0	0	0	0	464	607
6	0	0	0	0	463	604
7	0	0	0	0	462	604
8	0	0	0	0	461	604
9	0	0	0	0	460	602
10	0	0	0	0	460	604
11	0	0	0	0	459	604
12	0	0	0	0	459	604
13	0	0	0	0	459	607
14	0	0	0	0	459	604
15	0	0	0	0	459	604
0	0	0	0	0	460	604
1	0	0	0	0	462	602
2	0	0	0	0	460	604
3	0	0	0	0	460	604
4	0	0	0	0	459	603
5	0	0	0	0	459	606
6	0	0	0	0	460	604
7	0	0	0	0	460	604
8	0	0	0	0	459	604
9	0	0	0	0	459	602
10	0	0	0	0	459	603
11	0	0	0	0	459	603
12	0	0	0	0	459	603
13	0	0	0	0	459	605
14	0	0	0	0	459	603
15	0	0	0	0	460	604
0	0	0	0	0	460	604
1	0	0	0	0	460	601
2	0	0	0	0	460	604
3	0	0	0	0	460	603
4	0	0	0	0	460	603
5	0	0	0	0	461	605
6	0	0	0	0	461	603
7	0	0	0	0	462	603
8	0	0	0	0	463	603
9	0	0	0	0	464	601
10	0	0	0	0	465	603
11	0	0	0	0	464	604
12	0	0	0	0	464	603
13	0	0	0	0	465	606
14	0	0	0	0	465	603
15	0	0	0	0	466	604
0	0	0	0	0	467	604
1	0	0	0	0	468	602
2	0	0	0	0	468	604
3	0	0	0	0	468	604
4	0	0	0	0	468	604
5	0	0	0	0	467	606
6	0	0	0	0	468	604
7	0	0	0	0	468	604
8	0	0	0	0	469	604
9	0	0	0	0	471	602
10	0	0	0	0	471	604
11	0	0	0	0	470	604
12	0	0	0	0	470	604
13	0	0	0	0	470	606
14	0	0	0	0	471	604
15	0	0	0	0	471	604
0	0	0	0	0	472	604
1	0	0	0	0	472	603
2	0	0	0	0	473	604
3	0	0	0	0	473	604
4	0	0	0	0	474	604
5	0	0	0	0	474	607
6	0	0	0	0	476	604
7	0	0	0	0	476	604
8	0	0	0	0	477	604
9	0	0	0	0	477	602
10	0	0	0	0	478	604
11	0	0	0	0	478	604
12	0	0	0	0	478	604
13	0	0	0	0	479	606
14	0	0	0	0	480	604
15	0	0	0	0	481	604
0	0	0	0	0	481	604
1	0	0	0	0	482	602
2	0	0	0	0	482	604
3	0	0	0	0	482	604
4	0	0	0	0	483	604
5	0	0	0	0	483	606
6	0	0	0	0	483	604
7	0	0	0	0	483	604
8	0	0	0	0	482	604
9	0	0	0	0	482	602
10	0	0	0	0	483	604
11	0	0	0	0	483	603
12	0	0	0	0	483	604
13	0	0	0	0	484	606
14	0	0	0	0	484	604
15	0	0	0	0	484	604
0	0	0	0	0	484	604
1	0	0	0	0	486	602
2	0	0	0	0	486	604
3	0	0	0	0	487	604
4	0	0	0	0	488	604
5	0	0	0	0	488	606
6	0	0	0	0	489	604
7	0	0	0	0	489	604
8	0	0	0	0	490	604
9	0	0	0	0	491	602
10	0	0	0	0	492	604
11	0	0	0	0	491	604
12	0	0	0	0	490	604
13	0	0	0	0	491	606
14	0	0	0	0	492	604
15	0	0	0	0	492	604
0	0	0	0	0	493	604
1	0	0	0	0	494	602
2	0	0	0	0	494	604
3	0	0	0	0	494	604
4	0	0	0	0	494	604
5	0	0	0	0	495	606
6	0	0	0	0	495	604
7	0	0	0	0	496	604
8	0	0	0	0	496	604
9	0	0	0	0	496	603
10	0	0	0	0	497	604
11	0	0	0	0	497	604
12	0	0	0	0	498	604
13	0	0	0	0	498	606
14	0	0	0	0	498	604
15	0	0	0	0	500	604
0	0	0	0	0	499	604
1	0	0	0	0	499	603
2	0	0	0	0	499	604
3	0	0	0	0	500	604
4	0	0	0	0	500	604
5	0	0	0	0	500	606
6	0	0	0	0	500	604
7	0	0	0	0	501	604
8	0	0	0	0	501	604
9	0	0	0	0	502	602
10	0	0	0	0	502	604
11	0	0	0	0	504	603
12	0	0	0	0	504	604
13	0	0	0	0	505	606
14	0	0	0	0	505	604
15	0	0	0	0	505	604
0	0	0	0	0	505	604
1	0	0	0	0	505	602
2	0	0	0	0	505	604
3	0	0	0	0	505	604
4	0	0	0	0	505	604
5	0	0	0	0	505	606
6	0	0	0	0	505	604
7	0	0	0	0	506	604
8	0	0	0	0	507	604
9	0	0	0	0	508	601
10	0	0	0	0	508	604
11	0	0	0	0	509	603
12	0	0	0	0	510	604
13	0	0	0	0	510	606
14	0	0	0	0	510	604
15	0	0	0	0	511	604
0	0	0	0	0	512	603
1	0	0	0	0	512	602
2	0	0	0	0	513	603
3	0	0	0	0	513	604
4	0	0	0	0	514	603
5	0	0	0	0	517	606
6	0	0	0	0	516	604
7	0	0	0	0	515	604
8	0	0	0	0	517	604
9	0	0	0	0	516	603
10	0	0	0	0	516	604
11	0	0	0	0	518	604
12	0	0	0	0	517	604
13	0	0	0	0	517	606
14	0	0	0	0	517	604
15	0	0	0	0	518	604
0	0	0	0	0	518	604
1	0	0	0	0	518	602
2	0	0	0	0	518	603
3	0	0	0	0	518	604
4	0	0	0	0	518	604
5	0	0	0	0	518	607
6	0	0	0	0	519	604
7	0	0	0	0	519	604
8	0	0	0	0	519	604
9	0	0	0	0	519	603
10	0	0	0	0	519	604
11	0	0	0	0	518	604
12	0	0	0	0	517	604
13	0	0	0	0	516	607
14	0	0	0	0	516	604
15	0	0	0	0	515	604
0	0	0	0	0	515	604
1	0	0	0	0	514	602
2	0	0	0	0	514	604
3	0	0	0	0	513	604
4	0	0	0	0	513	604
5	0	0	0	0	512	607
6	0	0	0	0	511	604
7	0	0	0	0	511	605
8	0	0	0	0	510	604
9	0	0	0	0	509	603
10	0	0	0	0	508	604
11	0	0	0	0	507	604
12	0	0	0	0	507	604
13	0	0	0	0	506	607
14	0	0	0	0	505	604
15	0	0	0	0	505	604
0	0	0	0	0	503	604
1	0	0	0	0	503	603
2	0	0	0	0	503	604
3	0	0	0	0	503	604
4	0	0	0	0	502	604
5	0	0	0	0	502	607
6	0	0	0	0	502	604
7	0	0	0	0	502	604
8	0	0	0	0	503	604
9	0	0	0	0	503	603
10	0	0	0	0	503	604
11	0	0	0	0	503	604
12	0	0	0	0	503	604
13	0	0	0	0	503	606
14	0	0	0	0	504	604
15	0	0	0	0	504	604
0	0	0	0	0	505	604
1	0	0	0	0	505	602
2	0	0	0	0	507	604
3	0	0	0	0	507	604
4	0	0	0	0	508	604
5	0	0	0	0	509	607
6	0	0	0	0	510	604
7	0	0	0	0	512	604
8	0	0	0	0	510	604
9	0	0	0	0	510	602
10	0	0	0	0	511	604
11	0	0	0	0	511	604
12	0	0	0	0	511	604
13	0	0	0	0	511	606
14	0	0	0	0	512	604
15	0	0	0	0	513	604
0	0	0	0	0	513	604
1	0	0	0	0	514	602
2	0	0	0	0	515	604
3	0	0	0	0	516	604
4	0	0	0	0	515	604
5	0	0	0	0	516	607
6	0	0	0	0	516	604
7	0	0	0	0	517	605
8	0	0	0	0	517	605
9	0	0	0	0	517	603
10	0	0	0	0	516	604
11	0	0	0	0	515	605
12	0	0	0	0	516	604
13	0	0	0	0	516	607
14	0	0	0	0	516	605
15	0	0	0	0	515	604
0	0	0	0	0	515	604
1	0	0	0	0	516	603
2	0	0	0	0	516	604
3	0	0	0	0	518	605
4	0	0	0	0	518	604
5	0	0	0	0	518	606
6	0	0	0	0	516	604
7	0	0	0	0	515	604
8	0	0	0	0	515	604
9	0	0	0	0	515	603
10	0	0	0	0	516	604
11	0	0	0	0	517	605
12	0	0	0	0	516	604
13	0	0	0	0	515	607
14	0	0	0	0	515	604
15	0	0	0	0	517	605
0	0	0	0	0	515	605
1	0	0	0	0	515	603
2	0	0	0	0	514	604
3	0	0	0	0	513	604
4	0	0	0	0	512	604
5	0	0	0	0	512	607
6	0	0	0	0	512	604
7	0	0	0	0	512	604
8	0	0	0	0	513	604
9	0	0	0	0	512	602
10	0	0	0	0	511	603
11	0	0	0	0	509	604
12	0	0	0	0	509	604
13	0	0	0	0	509	606
14	0	0	0	0	508	604
15	0	0	0	0	508	603
0	0	0	0	0	508	604
1	0	0	0	0	508	602
2	0	0	0	0	508	604
3	0	0	0	0	507	604
4	0	0	0	0	507	603
5	0	0	0	0	505	606
6	0	0	0	0	505	603
7	0	0	0	0	506	604
8	0	0	0	0	507	603
9	0	0	0	0	506	602
10	0	0	0	0	505	604
11	0	0	0	0	505	604
12	0	0	0	0	505	604
13	0	0	0	0	505	606
14	0	0	0	0	505	604
15	0	0	0	0	505	604
0	0	0	0	0	506	604
1	0	0	0	0	506	602
2	0	0	0	0	505	604
3	0	0	0	0	505	604
4	0	0	0	0	505	604
5	0	0	0	0	506	606
6	0	0	0	0	505	604
7	0	0	0	0	505	604
8	0	0	0	0	505	604
9	0	0	0	0	505	602
10	0	0	0	0	505	604
11	0	0	0	0	505	603
12	0	0	0	0	506	604
13	0	0	0	0	507	606
14	0	0	0	0	507	603
15	0	0	0	0	508	603
0	0	0	0	0	508	603
1	0	0	0	0	510	602
2	0	0	0	0	510	604
3	0	0	0	0	508	603
4	0	0	0	0	508	604
5	0	0	0	0	508	606
6	0	0	0	0	508	604
7	0	0	0	0	507	603
8	0	0	0	0	507	603
9	0	0	0	0	507	601
10	0	0	0	0	507	604
11	0	0	0	0	507	603
12	0	0	0	0	507	604
13	0	0	0	0	506	606
14	0	0	0	0	507	604
15	0	0	0	0	506	604
0	0	0	0	0	506	604
1	0	0	0	0	505	602
2	0	0	0	0	504	604
3	0	0	0	0	504	604
4	0	0	0	0	504	604
5	0	0	0	0	504	606
6	0	0	0	0	503	604
7	0	0	0	0	503	603
8	0	0	0	0	503	603
9	0	0	0	0	503	601
10	0	0	0	0	503	603
11	0	0	0	0	503	604
12	0	0	0	0	503	604
13	0	0	0	0	504	606
14	0	0	0	0	503	604
15	0	0	0	0	503	603
0	0	0	0	0	503	604
1	0	0	0	0	503	601
2	0	0	0	0	504	604
3	0	0	0	0	504	604
4	0	0	0	0	505	604
5	0	0	0	0	505	606
6	0	0	0	0	505	604
7	0	0	0	0	506	604
8	0	0	0	0	506	604
9	0	0	0	0	507	603
10	0	0	0	0	507	604
11	0	0	0	0	507	604
12	0	0	0	0	507	604
13	0	0	0	0	507	606
14	0	0	0	0	507	604
15	0	0	0	0	507	604
0	0	0	0	0	507	604
1	0	0	0	0	507	602
2	0	0	0	0	508	604
3	0	0	0	0	508	604
4	0	0	0	0	508	605
5	0	0	0	0	508	607
6	0	0	0	0	508	604
7	0	0	0	0	509	604
8	0	0	0	0	509	604
9	0	0	0	0	509	603
10	0	0	0	0	509	604
11	0	0	0	0	509	605
12	0	0	0	0	509	604
13	0	0	0	0	509	606
14	0	0	0	0	510	604
15	0	0	0	0	508	604
0	0	0	0	0	509	604
1	0	0	0	0	509	602
2	0	0	0	0	509	604
3	0	0	0	0	509	604
4	0	0	0	0	509	604
5	0	0	0	0	509	607
6	0	0	0	0	509	604
7	0	0	0	0	509	604
8	0	0	0	0	510	604
9	0	0	0	0	510	602
10	0	0	0	0	510	604
11	0	0	0	0	510	603
12	0	0	0	0	511	604
13	0	0	0	0	511	606
14	0	0	0	0	511	604
15	0	0	0	0	511	604
0	0	0	0	0	512	603
1	0	0	0	0	512	602
2	0	0	0	0	511	604
3	0	0	0	0	510	603
4	0	0	0	0	510	604
5	0	0	0	0	510	606
6	0	0	0	0	510	603
7	0	0	0	0	510	603
8	0	0	0	0	510	604
9	0	0	0	0	510	602
10	0	0	0	0	509	604
11	0	0	0	0	508	604
12	0	0	0	0	508	604
13	0	0	0	0	508	606
14	0	0	0	0	507	603
15	0	0	0	0	506	604
0	0	0	0	0	505	603
1	0	0	0	0	505	602
2	0	0	0	0	507	604
3	0	0	0	0	504	604
4	0	0	0	0	503	603
5	0	0	0	0	503	606
6	0	0	0	0	502	604
7	0	0	0	0	502	603
8	0	0	0	0	502	604
9	0	0	0	0	502	602
10	0	0	0	0	501	603
11	0	0	0	0	501	603
12	0	0	0	0	501	603
13	0	0	0	0	502	606
14	0	0	0	0	502	603
15	0	0	0	0	502	603
0	0	0	0	0	503	604
1	0	0	0	0	502	602
2	0	0	0	0	503	604
3	0	0	0	0	503	604
4	0	0	0	0	502	604
5	0	0	0	0	503	607
6	0	0	0	0	502	604
7	0	0	0	0	503	604
8	0	0	0	0	503	604
9	0	0	0	0	504	601
10	0	0	0	0	503	604
11	0	0	0	0	502	604
12	0	0	0	0	503	604
13	0	0	0	0	503	606
14	0	0	0	0	503	604
15	0	0	0	0	504	604
0	0	0	0	0	505	604
1	0	0	0	0	504	603
2	0	0	0	0	504	604
3	0	0	0	0	504	604
4	0	0	0	0	504	604
5	0	0	0	0	505	607
6	0	0	0	0	506	604
7	0	0	0	0	507	604
8	0	0	0	0	507	604
9	0	0	0	0	509	603
10	0	0	0	0	507	604
11	0	0	0	0	508	604
12	0	0	0	0	508	604
13	0	0	0	0	508	607
14	0	0	0	0	507	604
15	0	0	0	0	507	604
0	0	0	0	0	507	604
1	0	0	0	0	505	603
2	0	0	0	0	504	604
3	0	0	0	0	504	604
4	0	0	0	0	504	604
5	0	0	0	0	504	608
6	0	0	0	0	504	604
7	0	0	0	0	502	604
8	0	0	0	0	501	605
9	0	0	0	0	500	603
10	0	0	0	0	500	604
11	0	0	0	0	500	604
12	0	0	0	0	500	604
13	0	0	0	0	499	606
14	0	0	0	0	498	604
15	0	0	0	0	497	604
0	0	0	0	0	497	604
1	0	0	0	0	497	603
2	0	0	0	0	496	604
3	0	0	0	0	496	604
4	0	0	0	0	496	604
5	0	0	0	0	496	606
6	0	0	0	0	496	604
7	0	0	0	0	495	604
8	0	0	0	0	495	604
9	0	0	0	0	495	603
10	0	0	0	0	495	604
11	0	0	0	0	494	604
12	0	0	0	0	493	604
13	0	0	0	0	493	606
14	0	0	0	0	493	603
15	0	0	0	0	494	604
0	0	0	0	0	494	603
1	0	0	0	0	494	603
2	0	0	0	0	494	604
3	0	0	0	0	494	604
4	0	0	0	0	493	604
5	0	0	0	0	494	606
6	0	0	0	0	493	604
7	0	0	0	0	492	604
8	0	0	0	0	492	603
9	0	0	0	0	493	601
10	0	0	0	0	493	604
11	0	0	0	0	492	603
12	0	0	0	0	491	603
13	0	0	0	0	491	606
14	0	0	0	0	492	604
15	0	0	0	0	492	603
0	0	0	0	0	491	603
1	0	0	0	0	491	601
2	0	0	0	0	492	604
3	0	0	0	0	492	603
4	0	0	0	0	492	604
5	0	0	0	0	492	606
6	0	0	0	0	493	604
7	0	0	0	0	495	604
8	0	0	0	0	495	604
9	0	0	0	0	495	602
10	0	0	0	0	496	604
11	0	0	0	0	496	604
12	0	0	0	0	497	603
13	0	0	0	0	496	606
14	0	0	0	0	497	604
15	0	0	0	0	497	604
0	0	0	0	0	498	604
1	0	0	0	0	499	602
2	0	0	0	0	499	604
3	0	0	0	0	499	603
4	0	0	0	0	499	603
5	0	0	0	0	499	606
6	0	0	0	0	498	604
7	0	0	0	0	499	603
8	0	0	0	0	499	604
9	0	0	0	0	498	602
10	0	0	0	0	497	604
11	0	0	0	0	497	604
12	0	0	0	0	496	604
13	0	0	0	0	496	606
14	0	0	0	0	496	604
15	0	0	0	0	496	604
0	0	0	0	0	496	604
1	0	0	0	0	496	602
2	0	0	0	0	495	604
3	0	0	0	0	494	604
4	0	0	0	0	494	603
5	0	0	0	0	494	606
6	0	0	0	0	494	604
7	0	0	0	0	494	603
8	0	0	0	0	494	604
9	0	0	0	0	494	601
10	0	0	0	0	494	604
11	0	0	0	0	494	603
12	0	0	0	0	494	604
13	0	0	0	0	495	606
14	0	0	0	0	495	604
15	0	0	0	0	496	604
0	0	0	0	0	496	603
1	0	0	0	0	496	602
2	0	0	0	0	496	604
3	0	0	0	0	496	604
4	0	0	0	0	496	604
5	0	0	0	0	496	606
6	0	0	0	0	496	603
7	0	0	0	0	496	604
8	0	0	0	0	496	604
9	0	0	0	0	496	603
10	0	0	0	0	496	604
11	0	0	0	0	497	604
12	0	0	0	0	497	604
13	0	0	0	0	497	606
14	0	0	0	0	497	604
15	0	0	0	0	497	604
0	0	0	0	0	498	604
1	0	0	0	0	498	602
2	0	0	0	0	499	604
3	0	0	0	0	499	604
4	0	0	0	0	499	604
5	0	0	0	0	500	606
6	0	0	0	0	502	604
7	0	0	0	0	502	604
8	0	0	0	0	503	604
9	0	0	0	0	503	601
10	0	0	0	0	504	604
11	0	0	0	0	508	604
12	0	0	0	0	507	604
13	0	0	0	0	508	606
14	0	0	0	0	508	603
15	0	0	0	0	510	604
0	0	0	0	0	511	604
1	0	0	0	0	512	601
2	0	0	0	0	514	604
3	0	0	0	0	516	603
4	0	0	0	0	518	603
5	0	0	0	0	519	606
6	0	0	0	0	522	604
7	0	0	0	0	524	603
8	0	0	0	0	525	603
9	0	0	0	0	526	602
10	0	0	0	0	527	604
11	0	0	0	0	527	604
12	0	0	0	0	529	604
13	0	0	0	0	529	606
14	0	0	0	0	529	604
15	0	0	0	0	530	604
0	0	0	0	0	529	604
1	0	0	0	0	530	602
2	0	0	0	0	530	604
3	0	0	0	0	529	603
4	0	0	0	0	528	604
5	0	0	0	0	527	606
6	0	0	0	0	527	604
7	0	0	0	0	527	603
8	0	0	0	0	526	604
9	0	0	0	0	525	602
10	0	0	0	0	525	604
11	0	0	0	0	525	604
12	0	0	0	0	526	604
13	0	0	0	0	527	606
14	0	0	0	0	527	603
15	0	0	0	0	526	603
0	0	0	0	0	525	604
1	0	0	0	0	525	602
2	0	0	0	0	525	604
3	0	0	0	0	524	604
4	0	0	0	0	524	604
5	0	0	0	0	524	606
6	0	0	0	0	524	604
7	0	0	0	0	525	604
8	0	0	0	0	524	604
9	0	0	0	0	524	602
10	0	0	0	0	524	604
11	0	0	0	0	524	604
12	0	0	0	0	524	604
13	0	0	0	0	524	606
14	0	0	0	0	525	604
15	0	0	0	0	524	604
0	0	0	0	0	524	604
1	0	0	0	0	524	602
2	0	0	0	0	526	604
3	0	0	0	0	524	604
4	0	0	0	0	524	604
5	0	0	0	0	523	606
6	0	0	0	0	523	603
7	0	0	0	0	524	603
8	0	0	0	0	524	604
9	0	0	0	0	524	602
10	0	0	0	0	524	603
11	0	0	0	0	524	604
12	0	0	0	0	524	604
13	0	0	0	0	523	606
14	0	0	0	0	522	604
15	0	0	0	0	522	604
0	0	0	0	0	523	604
1	0	0	0	0	523	602
2	0	0	0	0	521	603
3	0	0	0	0	521	604
4	0	0	0	0	521	603
5	0	0	0	0	520	606
6	0	0	0	0	519	604
7	0	0	0	0	519	604
8	0	0	0	0	519	604
9	0	0	0	0	518	603
10	0	0	0	0	518	604
11	0	0	0	0	517	604
12	0	0	0	0	516	604
13	0	0	0	0	516	606
14	0	0	0	0	516	604
15	0	0	0	0	516	605
0	0	0	0	0	516	604
1	0	0	0	0	516	603
2	0	0	0	0	515	605
3	0	0	0	0	514	604
4	0	0	0	0	513	604
5	0	0	0	0	512	606
6	0	0	0	0	510	604
7	0	0	0	0	508	604
8	0	0	0	0	504	604
9	0	0	0	0	499	602
10	0	0	0	0	495	604
11	0	0	0	0	489	603
12	0	0	0	0	484	603
13	0	0	0	0	478	606
14	0	0	0	0	473	603
15	0	0	0	0	468	604
0	0	0	0	0	464	604
1	0	0	0	0	460	602
2	0	0	0	0	458	604
3	0	0	0	0	455	604
4	0	0	0	0	454	604
5	0	0	0	0	452	607
6	0	0	0	0	451	605
7	0	0	0	0	449	604
8	0	0	0	0	450	604
9	0	0	0	0	451	603
10	0	0	0	0	453	604
11	0	0	0	0	459	604
12	0	0	0	0	467	603
13	0	0	0	0	479	606
14	0	0	0	0	494	604
15	0	0	0	0	511	604
0	0	0	0	0	528	604
1	0	0	0	0	546	601
2	0	0	0	0	566	604
3	0	0	0	0	586	604
4	0	0	0	0	606	603
5	0	0	0	0	626	606
6	0	0	0	0	640	604
7	0	0	0	0	653	604
8	0	0	0	0	663	604
9	0	0	0	0	667	603
10	0	0	0	0	669	603
11	0	0	0	0	670	604
12	0	0	0	0	668	603
13	0	0	0	0	663	606
14	0	0	0	0	657	604
15	0	0	0	0	651	604
0	0	0	0	0	643	604
1	0	0	0	0	636	601
2	0	0	0	0	628	604
3	0	0	0	0	624	604
4	0	0	0	0	623	604
5	0	0	0	0	625	607
6	0	0	0	0	630	604
7	0	0	0	0	633	604
8	0	0	0	0	635	604
9	0	0	0	0	632	602
10	0	0	0	0	623	604
11	0	0	0	0	612	604
12	0	0	0	0	600	604
13	0	0	0	0	589	606
14	0	0	0	0	577	604
15	0	0	0	0	565	604
0	0	0	0	0	553	604
1	0	0	0	0	543	602
2	0	0	0	0	534	604
3	0	0	0	0	526	604
4	0	0	0	0	519	604
5	0	0	0	0	513	606
6	0	0	0	0	508	604
7	0	0	0	0	503	604
8	0	0	0	0	500	604
9	0	0	0	0	495	602
10	0	0	0	0	490	603
11	0	0	0	0	487	603
12	0	0	0	0	483	604
13	0	0	0	0	479	606
14	0	0	0	0	475	603
15	0	0	0	0	472	603
0	0	0	0	0	468	604
1	0	0	0	0	465	602
2	0	0	0	0	463	603
3	0	0	0	0	462	603
4	0	0	0	0	458	603
5	0	0	0	0	456	605
6	0	0	0	0	454	604
7	0	0	0	0	454	604
8	0	0	0	0	452	603
9	0	0	0	0	451	601
10	0	0	0	0	451	604
11	0	0	0	0	450	604
12	0	0	0	0	449	604
13	0	0	0	0	449	606
14	0	0	0	0	450	604
15	0	0	0	0	450	604
0	0	0	0	0	450	604
1	0	0	0	0	451	602
2	0	0	0	0	450	605
3	0	0	0	0	450	605
4	0	0	0	0	451	605
5	0	0	0	0	451	607
6	0	0	0	0	451	604
7	0	0	0	0	451	605
8	0	0	0	0	452	605
9	0	0	0	0	452	604
10	0	0	0	0	454	604
11	0	0	0	0	454	604
12	0	0	0	0	455	604
13	0	0	0	0	457	607
14	0	0	0	0	457	604
15	0	0	0	0	457	604
0	0	0	0	0	457	604
1	0	0	0	0	457	602
2	0	0	0	0	459	604
3	0	0	0	0	459	604
4	0	0	0	0	459	604
5	0	0	0	0	460	606
6	0	0	0	0	461	604
7	0	0	0	0	461	604
8	0	0	0	0	462	603
9	0	0	0	0	463	601
10	0	0	0	0	464	603
11	0	0	0	0	464	602
12	0	0	0	0	464	603
13	0	0	0	0	464	605
14	0	0	0	0	464	603
15	0	0	0	0	464	603
0	0	0	0	0	465	603
1	0	0	0	0	465	601
2	0	0	0	0	464	603
3	0	0	0	0	464	603
4	0	0	0	0	464	603
5	0	0	0	0	464	606
6	0	0	0	0	463	604
7	0	0	0	0	463	604
8	0	0	0	0	463	604
9	0	0	0	0	464	602
10	0	0	0	0	464	604
11	0	0	0	0	463	604
12	0	0	0	0	463	604
13	0	0	0	0	463	606
14	0	0	0	0	463	604
15	0	0	0	0	463	604
0	0	0	0	0	463	604
1	0	0	0	0	462	603
2	0	0	0	0	461	604
3	0	0	0	0	462	604
4	0	0	0	0	462	604
5	0	0	0	0	462	607
6	0	0	0	0	462	604
7	0	0	0	0	462	603
8	0	0	0	0	463	604
9	0	0	0	0	463	602
10	0	0	0	0	463	603
11	0	0	0	0	463	603
12	0	0	0	0	463	603
13	0	0	0	0	463	606
14	0	0	0	0	463	604
15	0	0	0	0	463	603
0	0	0	0	0	464	603
1	0	0	0	0	464	602
2	0	0	0	0	464	604
3	0	0	0	0	464	604
4	0	0	0	0	464	603
5	0	0	0	0	465	606
6	0	0	0	0	464	603
7	0	0	0	0	464	603
8	0	0	0	0	464	604
9	0	0	0	0	465	602
10	0	0	0	0	464	603
11	0	0	0	0	464	603
12	0	0	0	0	463	603
13	0	0	0	0	463	606
14	0	0	0	0	464	604
15	0	0	0	0	464	603
0	0	0	0	0	464	604
1	0	0	0	0	463	602
2	0	0	0	0	463	604
3	0	0	0	0	464	604
4	0	0	0	0	464	604
5	0	0	0	0	465	606
6	0	0	0	0	465	604
7	0	0	0	0	465	604
8	0	0	0	0	467	604
9	0	0	0	0	465	602
10	0	0	0	0	465	604
11	0	0	0	0	466	604
12	0	0	0	0	465	604
13	0	0	0	0	465	607
14	0	0	0	0	467	604
15	0	0	0	0	467	604
0	0	0	0	0	468	604
1	0	0	0	0	468	603
2	0	0	0	0	468	604
3	0	0	0	0	468	604
4	0	0	0	0	468	604
5	0	0	0	0	468	606
6	0	0	0	0	469	604
7	0	0	0	0	469	604
8	0	0	0	0	470	604
9	0	0	0	0	470	602
10	0	0	0	0	470	604
11	0	0	0	0	471	604
12	0	0	0	0	472	604
13	0	0	0	0	472	606
14	0	0	0	0	472	604
15	0	0	0	0	472	604
0	0	0	0	0	472	604
1	0	0	0	0	473	601
2	0	0	0	0	474	603
3	0	0	0	0	474	604
4	0	0	0	0	476	604
5	0	0	0	0	475	606
6	0	0	0	0	475	604
7	0	0	0	0	475	604
8	0	0	0	0	476	604
9	0	0	0	0	476	602
10	0	0	0	0	476	604
11	0	0	0	0	477	604
12	0	0	0	0	478	604
13	0	0	0	0	478	606
14	0	0	0	0	479	604
15	0	0	0	0	479	604
0	0	0	0	0	480	604
1	0	0	0	0	480	602
2	0	0	0	0	481	604
3	0	0	0	0	483	604
4	0	0	0	0	483	604
5	0	0	0	0	484	606
6	0	0	0	0	484	604
7	0	0	0	0	485	604
8	0	0	0	0	486	604
9	0	0	0	0	486	602
10	0	0	0	0	488	603
11	0	0	0	0	489	603
12	0	0	0	0	489	603
13	0	0	0	0	490	606
14	0	0	0	0	490	603
15	0	0	0	0	491	603
0	0	0	0	0	492	603
1	0	0	0	0	492	601
2	0	0	0	0	493	603
3	0	0	0	0	493	604
4	0	0	0	0	493	603
5	0	0	0	0	494	606
6	0	0	0	0	494	603
7	0	0	0	0	494	604
8	0	0	0	0	495	604
9	0	0	0	0	495	602
10	0	0	0	0	495	604
11	0	0	0	0	494	604
12	0	0	0	0	496	604
13	0	0	0	0	495	607
14	0	0	0	0	495	604
15	0	0	0	0	496	604
0	0	0	0	0	496	604
1	0	0	0	0	497	603
2	0	0	0	0	496	604
3	0	0	0	0	496	604
4	0	0	0	0	496	604
5	0	0	0	0	496	606
6	0	0	0	0	496	604
7	0	0	0	0	495	604
8	0	0	0	0	494	604
9	0	0	0	0	494	602
10	0	0	0	0	494	604
11	0	0	0	0	493	604
12	0	0	0	0	492	604
13	0	0	0	0	492	606
14	0	0	0	0	491	603
15	0	0	0	0	489	604
0	0	0	0	0	489	604
1	0	0	0	0	488	601
2	0	0	0	0	488	603
3	0	0	0	0	487	604
4	0	0	0	0	486	604
5	0	0	0	0	486	606
6	0	0	0	0	485	603
7	0	0	0	0	486	604
8	0	0	0	0	484	603
9	0	0	0	0	484	601
10	0	0	0	0	485	604
11	0	0	0	0	483	604
12	0	0	0	0	483	604
13	0	0	0	0	485	605
14	0	0	0	0	482	603
15	0	0	0	0	481	604
0	0	0	0	0	481	604
1	0	0	0	0	480	601
2	0	0	0	0	480	604
3	0	0	0	0	480	604
4	0	0	0	0	479	604
5	0	0	0	0	477	606
6	0	0	0	0	477	604
7	0	0	0	0	477	603
8	0	0	0	0	476	604
9	0	0	0	0	477	601
10	0	0	0	0	476	603
11	0	0	0	0	476	603
12	0	0	0	0	477	603
13	0	0	0	0	478	606
14	0	0	0	0	478	603
15	0	0	0	0	478	604
0	0	0	0	0	479	604
1	0	0	0	0	480	602
2	0	0	0	0	480	603
3	0	0	0	0	481	603
4	0	0	0	0	481	603
5	0	0	0	0	482	606
6	0	0	0	0	482	603
7	0	0	0	0	482	603
8	0	0	0	0	482	603
9	0	0	0	0	483	601
10	0	0	0	0	483	604
11	0	0	0	0	482	603
12	0	0	0	0	483	603
13	0	0	0	0	483	606
14	0	0	0	0	484	604
15	0	0	0	0	484	604
0	0	0	0	0	485	603
1	0	0	0	0	484	602
2	0	0	0	0	485	604
3	0	0	0	0	485	604
4	0	0	0	0	486	604
5	0	0	0	0	484	606
6	0	0	0	0	483	604
7	0	0	0	0	483	604
8	0	0	0	0	483	604
9	0	0	0	0	484	603
10	0	0	0	0	484	604
11	0	0	0	0	485	604
12	0	0	0	0	486	604
13	0	0	0	0	487	607
14	0	0	0	0	486	605
15	0	0	0	0	486	605
0	0	0	0	0	486	604
1	0	0	0	0	485	603
2	0	0	0	0	486	604
3	0	0	0	0	487	604
4	0	0	0	0	486	604
5	0	0	0	0	487	607
6	0	0	0	0	487	604
7	0	0	0	0	487	605
8	0	0	0	0	487	604
9	0	0	0	0	487	603
10	0	0	0	0	488	604
11	0	0	0	0	489	604
12	0	0	0	0	489	604
13	0	0	0	0	489	607
14	0	0	0	0	490	604
15	0	0	0	0	491	605
0	0	0	0	0	491	604
1	0	0	0	0	492	603
2	0	0	0	0	492	604
3	0	0	0	0	493	604
4	0	0	0	0	494	604
5	0	0	0	0	495	607
6	0	0	0	0	495	604
7	0	0	0	0	496	604
8	0	0	0	0	496	604
9	0	0	0	0	496	602
10	0	0	0	0	499	604
11	0	0	0	0	499	604
12	0	0	0	0	499	604
13	0	0	0	0	499	606
14	0	0	0	0	499	604
15	0	0	0	0	499	604
0	0	0	0	0	499	604
1	0	0	0	0	499	602
2	0	0	0	0	499	604
3	0	0	0	0	499	604
4	0	0	0	0	499	604
5	0	0	0	0	499	606
6	0	0	0	0	499	604
7	0	0	0	0	499	604
8	0	0	0	0	499	604
9	0	0	0	0	499	602
10	0	0	0	0	498	604
11	0	0	0	0	498	604
12	0	0	0	0	497	604
13	0	0	0	0	497	606
14	0	0	0	0	497	604
15	0	0	0	0	497	603
0	0	0	0	0	497	604
1	0	0	0	0	497	602
2	0	0	0	0	497	603
3	0	0	0	0	497	604
4	0	0	0	0	496	604
5	0	0	0	0	496	606
6	0	0	0	0	496	604
7	0	0	0	0	496	604
8	0	0	0	0	496	604
9	0	0	0	0	496	602
10	0	0	0	0	496	603
11	0	0	0	0	496	604
12	0	0	0	0	495	603
13	0	0	0	0	496	606
14	0	0	0	0	495	604
15	0	0	0	0	496	603
0	0	0	0	0	495	604
1	0	0	0	0	495	602
2	0	0	0	0	496	603
3	0	0	0	0	495	603
4	0	0	0	0	495	603
5	0	0	0	0	494	606
6	0	0	0	0	494	604
7	0	0	0	0	494	604
8	0	0	0	0	495	604
9	0	0	0	0	496	602
10	0	0	0	0	494	604
11	0	0	0	0	494	604
12	0	0	0	0	495	604
13	0	0	0	0	494	606
14	0	0	0	0	494	603
15	0	0	0	0	494	603
0	0	0	0	0	494	603
1	0	0	0	0	494	602
2	0	0	0	0	493	604
3	0	0	0	0	494	603
4	0	0	0	0	494	603
5	0	0	0	0	494	606
6	0	0	0	0	494	603
7	0	0	0	0	494	603
8	0	0	0	0	494	603
9	0	0	0	0	495	602
10	0	0	0	0	495	603
11	0	0	0	0	495	603
12	0	0	0	0	496	603
13	0	0	0	0	496	606
14	0	0	0	0	496	604
15	0	0	0	0	496	603
0	0	0	0	0	495	603
1	0	0	0	0	495	601
2	0	0	0	0	495	603
3	0	0	0	0	495	604
4	0	0	0	0	495	603
5	0	0	0	0	496	606
6	0	0	0	0	496	604
7	0	0	0	0	496	604
8	0	0	0	0	495	604
9	0	0	0	0	495	601
10	0	0	0	0	495	604
11	0	0	0	0	496	604
12	0	0	0	0	496	604
13	0	0	0	0	497	606
14	0	0	0	0	497	604
15	0	0	0	0	498	604
0	0	0	0	0	497	604
1	0	0	0	0	498	602
2	0	0	0	0	498	604
3	0	0	0	0	498	604
4	0	0	0	0	498	604
5	0	0	0	0	497	606
6	0	0	0	0	497	604
7	0	0	0	0	498	604
8	0	0	0	0	499	604
9	0	0	0	0	499	603
10	0	0	0	0	499	604
11	0	0	0	0	498	604
12	0	0	0	0	497	604
13	0	0	0	0	497	607
14	0	0	0	0	497	604
15	0	0	0	0	497	604
0	0	0	0	0	498	604
1	0	0	0	0	497	602
2	0	0	0	0	497	604
3	0	0	0	0	497	605
4	0	0	0	0	497	604
5	0	0	0	0	497	606
6	0	0	0	0	497	604
7	0	0	0	0	496	604
8	0	0	0	0	496	604
9	0	0	0	0	496	603
10	0	0	0	0	497	604
11	0	0	0	0	497	604
12	0	0	0	0	497	604
13	0	0	0	0	498	606
14	0	0	0	0	498	604
15	0	0	0	0	499	604
0	0	0	0	0	500	603
1	0	0	0	0	501	601
2	0	0	0	0	502	604
3	0	0	0	0	502	604
4	0	0	0	0	503	604
5	0	0	0	0	504	607
6	0	0	0	0	504	603
7	0	0	0	0	505	603
8	0	0	0	0	505	603
9	0	0	0	0	506	602
10	0	0	0	0	506	604
11	0	0	0	0	506	604
12	0	0	0	0	506	604
13	0	0	0	0	505	606
14	0	0	0	0	507	604
15	0	0	0	0	507	604
0	0	0	0	0	506	604
1	0	0	0	0	506	602
2	0	0	0	0	506	604
3	0	0	0	0	506	604
4	0	0	0	0	507	604
5	0	0	0	0	506	606
6	0	0	0	0	506	604
7	0	0	0	0	505	604
8	0	0	0	0	504	603
9	0	0	0	0	504	603
10	0	0	0	0	503	604
11	0	0	0	0	504	604
12	0	0	0	0	503	604
13	0	0	0	0	504	606
14	0	0	0	0	504	604
15	0	0	0	0	504	604
0	0	0	0	0	504	604
1	0	0	0	0	503	602
2	0	0	0	0	504	605
3	0	0	0	0	504	604
4	0	0	0	0	504	604
5	0	0	0	0	504	606
6	0	0	0	0	504	604
7	0	0	0	0	504	604
8	0	0	0	0	504	604
9	0	0	0	0	505	602
10	0	0	0	0	505	604
11	0	0	0	0	505	604
12	0	0	0	0	505	604
13	0	0	0	0	504	607
14	0	0	0	0	504	604
15	0	0	0	0	504	604
0	0	0	0	0	503	604
1	0	0	0	0	504	602
2	0	0	0	0	504	604
3	0	0	0	0	505	604
4	0	0	0	0	504	604
5	0	0	0	0	505	606
6	0	0	0	0	505	604
7	0	0	0	0	505	604
8	0	0	0	0	504	603
9	0	0	0	0	504	602
10	0	0	0	0	504	604
11	0	0	0	0	505	604
12	0	0	0	0	505	604
13	0	0	0	0	506	606
14	0	0	0	0	507	604
15	0	0	0	0	507	604
0	0	0	0	0	507	604
1	0	0	0	0	508	601
2	0	0	0	0	508	604
3	0	0	0	0	508	604
4	0	0	0	0	508	604
5	0	0	0	0	508	607
6	0	0	0	0	509	604
7	0	0	0	0	509	604
8	0	0	0	0	509	604
9	0	0	0	0	510	601
10	0	0	0	0	510	603
11	0	0	0	0	509	604
12	0	0	0	0	510	604
13	0	0	0	0	511	606
14	0	0	0	0	511	604
15	0	0	0	0	511	604
0	0	0	0	0	511	604
1	0	0	0	0	511	602
2	0	0	0	0	511	604
3	0	0	0	0	511	603
4	0	0	0	0	511	604
5	0	0	0	0	511	606
6	0	0	0	0	511	604
7	0	0	0	0	512	604
8	0	0	0	0	513	604
9	0	0	0	0	514	602
10	0	0	0	0	515	604
11	0	0	0	0	515	603
12	0	0	0	0	516	604
13	0	0	0	0	516	606
14	0	0	0	0	518	604
15	0	0	0	0	518	604
0	0	0	0	0	518	603
1	0	0	0	0	519	602
2	0	0	0	0	519	604
3	0	0	0	0	520	603
4	0	0	0	0	519	604
5	0	0	0	0	519	606
6	0	0	0	0	519	603
7	0	0	0	0	519	604
8	0	0	0	0	520	603
9	0	0	0	0	520	601
10	0	0	0	0	519	604
11	0	0	0	0	519	603
12	0	0	0	0	519	604
13	0	0	0	0	519	606
14	0	0	0	0	519	604
15	0	0	0	0	519	603
0	0	0	0	0	519	604
1	0	0	0	0	519	602
2	0	0	0	0	518	604
3	0	0	0	0	518	605
4	0	0	0	0	518	604
5	0	0	0	0	518	607
6	0	0	0	0	518	604
7	0	0	0	0	518	604
8	0	0	0	0	517	604
9	0	0	0	0	517	602
10	0	0	0	0	517	604
11	0	0	0	0	516	604
12	0	0	0	0	516	604
13	0	0	0	0	517	606
14	0	0	0	0	517	603
15	0	0	0	0	517	604
0	0	0	0	0	517	603
1	0	0	0	0	518	601
2	0	0	0	0	518	604
3	0	0	0	0	517	604
4	0	0	0	0	518	604
5	0	0	0	0	518	606
6	0	0	0	0	517	604
7	0	0	0	0	518	605
8	0	0	0	0	519	604
9	0	0	0	0	518	602
10	0	0	0	0	518	604
11	0	0	0	0	518	604
12	0	0	0	0	518	604
13	0	0	0	0	518	606
14	0	0	0	0	518	604
15	0	0	0	0	517	604
0	0	0	0	0	518	604
1	0	0	0	0	518	602
2	0	0	0	0	518	604
3	0	0	0	0	518	604
4	0	0	0	0	518	604
5	0	0	0	0	519	606
6	0	0	0	0	519	604
7	0	0	0	0	519	604
8	0	0	0	0	519	604
9	0	0	0	0	519	602
10	0	0	0	0	519	603
11	0	0	0	0	519	604
12	0	0	0	0	519	604
13	0	0	0	0	519	606
14	0	0	0	0	520	604
15	0	0	0	0	520	604
0	0	0	0	0	520	604
1	0	0	0	0	520	602
2	0	0	0	0	519	604
3	0	0	0	0	519	603
4	0	0	0	0	520	603
5	0	0	0	0	520	606
6	0	0	0	0	519	604
7	0	0	0	0	519	604
8	0	0	0	0	519	604
9	0	0	0	0	518	601
10	0	0	0	0	518	604
11	0	0	0	0	519	604
12	0	0	0	0	520	604
13	0	0	0	0	520	606
14	0	0	0	0	520	604
15	0	0	0	0	519	604
0	0	0	0	0	519	604
1	0	0	0	0	520	602
2	0	0	0	0	519	604
3	0	0	0	0	519	604
4	0	0	0	0	520	604
5	0	0	0	0	520	606
6	0	0	0	0	521	604
7	0	0	0	0	522	604
8	0	0	0	0	523	604
9	0	0	0	0	523	602
10	0	0	0	0	523	604
11	0	0	0	0	525	604
12	0	0	0	0	525	603
13	0	0	0	0	525	606
14	0	0	0	0	526	604
15	0	0	0	0	526	603
0	0	0	0	0	526	604
1	0	0	0	0	526	602
2	0	0	0	0	527	604
3	0	0	0	0	527	604
4	0	0	0	0	527	604
5	0	0	0	0	527	606
6	0	0	0	0	527	604
7	0	0	0	0	528	604
8	0	0	0	0	528	604
9	0	0	0	0	528	602
10	0	0	0	0	529	604
11	0	0	0	0	528	604
12	0	0	0	0	529	604
13	0	0	0	0	529	606
14	0	0	0	0	529	604
15	0	0	0	0	529	604
0	0	0	0	0	529	604
1	0	0	0	0	529	602
2	0	0	0	0	528	604
3	0	0	0	0	528	604
4	0	0	0	0	528	604
5	0	0	0	0	528	606
6	0	0	0	0	528	604
7	0	0	0	0	527	604
8	0	0	0	0	526	604
9	0	0	0	0	525	602
10	0	0	0	0	525	604
11	0	0	0	0	524	604
12	0	0	0	0	523	604
13	0	0	0	0	522	606
14	0	0	0	0	523	604
15	0	0	0	0	522	604
0	0	0	0	0	523	604
1	0	0	0	0	523	602
2	0	0	0	0	523	604
3	0	0	0	0	523	604
4	0	0	0	0	522	604
5	0	0	0	0	523	606
6	0	0	0	0	522	603
7	0	0	0	0	521	603
8	0	0	0	0	521	603
9	0	0	0	0	520	601
10	0	0	0	0	520	603
11	0	0	0	0	519	604
12	0	0	0	0	520	604
13	0	0	0	0	519	606
14	0	0	0	0	518	604
15	0	0	0	0	518	604
0	0	0	0	0	517	604
1	0	0	0	0	517	602
2	0	0	0	0	517	604
3	0	0	0	0	516	604
4	0	0	0	0	516	603
5	0	0	0	0	515	606
6	0	0	0	0	515	604
7	0	0	0	0	514	604
8	0	0	0	0	514	603
9	0	0	0	0	515	602
10	0	0	0	0	515	604
11	0	0	0	0	515	604
12	0	0	0	0	516	604
13	0	0	0	0	516	607
14	0	0	0	0	517	604
15	0	0	0	0	518	604
0	0	0	0	0	519	604
1	0	0	0	0	519	602
2	0	0	0	0	520	604
3	0	0	0	0	521	603
4	0	0	0	0	521	604
5	0	0	0	0	522	606
6	0	0	0	0	523	604
7	0	0	0	0	524	604
8	0	0	0	0	525	604
9	0	0	0	0	525	603
10	0	0	0	0	525	604
11	0	0	0	0	526	604
12	0	0	0	0	526	604
13	0	0	0	0	527	606
14	0	0	0	0	527	604
15	0	0	0	0	527	604
0	0	0	0	0	527	604
1	0	0	0	0	527	603
2	0	0	0	0	527	604
3	0	0	0	0	527	604
4	0	0	0	0	527	604
5	0	0	0	0	527	606
6	0	0	0	0	525	604
7	0	0	0	0	525	604
8	0	0	0	0	525	604
9	0	0	0	0	524	602
10	0	0	0	0	525	604
11	0	0	0	0	523	604
12	0	0	0	0	524	604
13	0	0	0	0	523	607
14	0	0	0	0	523	604
15	0	0	0	0	523	604
0	0	0	0	0	522	604
1	0	0	0	0	522	602
2	0	0	0	0	522	604
3	0	0	0	0	521	604
4	0	0	0	0	522	604
5	0	0	0	0	522	607
6	0	0	0	0	522	604
7	0	0	0	0	521	604
8	0	0	0	0	521	604
9	0	0	0	0	521	603
10	0	0	0	0	521	604
11	0	0	0	0	521	604
12	0	0	0	0	519	604
13	0	0	0	0	519	606
14	0	0	0	0	519	604
15	0	0	0	0	519	604
0	0	0	0	0	519	604
1	0	0	0	0	519	603
2	0	0	0	0	519	604
3	0	0	0	0	520	604
4	0	0	0	0	520	604
5	0	0	0	0	519	607
6	0	0	0	0	518	604
7	0	0	0	0	518	604
8	0	0	0	0	519	604
9	0	0	0	0	518	603
10	0	0	0	0	518	604
11	0	0	0	0	517	604
12	0	0	0	0	517	604
13	0	0	0	0	517	607
14	0	0	0	0	516	604
15	0	0	0	0	515	604
0	0	0	0	0	516	604
1	0	0	0	0	515	603
2	0	0	0	0	515	605
3	0	0	0	0	515	604
4	0	0	0	0	515	605
5	0	0	0	0	513	607
6	0	0	0	0	513	604
7	0	0	0	0	513	605
8	0	0	0	0	512	604
9	0	0	0	0	512	602
10	0	0	0	0	511	604
11	0	0	0	0	511	604
12	0	0	0	0	511	604
13	0	0	0	0	512	606
14	0	0	0	0	511	604
15	0	0	0	0	511	604
0	0	0	0	0	511	604
1	0	0	0	0	511	603
2	0	0	0	0	512	604
3	0	0	0	0	512	604
4	0	0	0	0	511	604
5	0	0	0	0	510	606
6	0	0	0	0	509	604
7	0	0	0	0	507	603
8	0	0	0	0	505	603
9	0	0	0	0	503	602
10	0	0	0	0	499	604
11	0	0	0	0	495	604
12	0	0	0	0	489	603
13	0	0	0	0	484	606
14	0	0	0	0	478	604
15	0	0	0	0	473	604
0	0	0	0	0	468	604
1	0	0	0	0	464	601
2	0	0	0	0	463	603
3	0	0	0	0	459	603
4	0	0	0	0	455	603
5	0	0	0	0	454	606
6	0	0	0	0	452	603
7	0	0	0	0	450	603
8	0	0	0	0	449	603
9	0	0	0	0	450	601
10	0	0	0	0	451	604
11	0	0	0	0	451	604
12	0	0	0	0	455	603
13	0	0	0	0	462	606
14	0	0	0	0	470	604
15	0	0	0	0	484	604
0	0	0	0	0	500	604
1	0	0	0	0	517	602
2	0	0	0	0	535	604
3	0	0	0	0	555	604
4	0	0	0	0	574	604
5	0	0	0	0	593	606
6	0	0	0	0	613	604
7	0	0	0	0	630	603
8	0	0	0	0	644	604
9	0	0	0	0	656	602
10	0	0	0	0	663	603
11	0	0	0	0	667	603
12	0	0	0	0	668	604
13	0	0	0	0	669	606
14	0	0	0	0	667	603
15	0	0	0	0	663	603
0	0	0	0	0	658	604
1	0	0	0	0	651	602
2	0	0	0	0	643	604
3	0	0	0	0	635	604
4	0	0	0	0	627	604
5	0	0	0	0	623	606
6	0	0	0	0	622	604
7	0	0	0	0	622	604
8	0	0	0	0	626	604
9	0	0	0	0	630	602
10	0	0	0	0	628	604
11	0	0	0	0	622	604
12	0	0	0	0	611	604
13	0	0	0	0	601	606
14	0	0	0	0	589	603
15	0	0	0	0	577	604
0	0	0	0	0	566	604
1	0	0	0	0	555	602
2	0	0	0	0	544	604
3	0	0	0	0	535	604
4	0	0	0	0	527	604
5	0	0	0	0	519	606
6	0	0	0	0	511	604
7	0	0	0	0	506	604
8	0	0	0	0	500	604
9	0	0	0	0	495	602
10	0	0	0	0	491	604
11	0	0	0	0	487	604
12	0	0	0	0	483	604
13	0	0	0	0	479	606
14	0	0	0	0	475	604
15	0	0	0	0	471	604
0	0	0	0	0	467	603
1	0	0	0	0	464	601
2	0	0	0	0	461	604
3	0	0	0	0	458	603
4	0	0	0	0	455	604
5	0	0	0	0	453	606
6	0	0	0	0	451	604
7	0	0	0	0	449	604
8	0	0	0	0	448	604
9	0	0	0	0	448	602
10	0	0	0	0	447	604
11	0	0	0	0	447	603
12	0	0	0	0	447	603
13	0	0	0	0	447	606
14	0	0	0	0	446	604
15	0	0	0	0	447	604
0	0	0	0	0	447	604
1	0	0	0	0	448	602
2	0	0	0	0	448	604
3	0	0	0	0	449	604
4	0	0	0	0	450	604
5	0	0	0	0	452	607
6	0	0	0	0	453	604
7	0	0	0	0	454	604
8	0	0	0	0	454	604
9	0	0	0	0	454	602
10	0	0	0	0	455	605
11	0	0	0	0	455	604
12	0	0	0	0	455	604
13	0	0	0	0	456	607
14	0	0	0	0	456	604
15	0	0	0	0	456	604
0	0	0	0	0	456	604
1	0	0	0	0	455	603
2	0	0	0	0	455	604
3	0	0	0	0	456	604
4	0	0	0	0	456	604
5	0	0	0	0	459	606
6	0	0	0	0	457	604
7	0	0	0	0	457	604
8	0	0	0	0	456	604
9	0	0	0	0	457	602
10	0	0	0	0	457	604
11	0	0	0	0	457	604
12	0	0	0	0	458	604
13	0	0	0	0	458	606
14	0	0	0	0	458	604
15	0	0	0	0	458	604
0	0	0	0	0	458	604
1	0	0	0	0	458	602
2	0	0	0	0	459	603
3	0	0	0	0	459	604
4	0	0	0	0	459	604
5	0	0	0	0	460	606
6	0	0	0	0	460	604
7	0	0	0	0	460	604
8	0	0	0	0	460	604
9	0	0	0	0	461	602
10	0	0	0	0	462	604
11	0	0	0	0	462	604
12	0	0	0	0	462	604
13	0	0	0	0	463	607
14	0	0	0	0	464	604
15	0	0	0	0	465	604
0	0	0	0	0	465	604
1	0	0	0	0	464	602
2	0	0	0	0	465	604
3	0	0	0	0	465	604
4	0	0	0	0	464	604
5	0	0	0	0	465	606
6	0	0	0	0	464	603
7	0	0	0	0	465	604
8	0	0	0	0	465	604
9	0	0	0	0	465	602
10	0	0	0	0	466	604
11	0	0	0	0	466	604
12	0	0	0	0	467	603
13	0	0	0	0	466	606
14	0	0	0	0	466	603
15	0	0	0	0	465	603
0	0	0	0	0	464	603
1	0	0	0	0	464	601
2	0	0	0	0	463	603
3	0	0	0	0	463	603
4	0	0	0	0	463	603
5	0	0	0	0	465	605
6	0	0	0	0	465	604
7	0	0	0	0	465	604
8	0	0	0	0	465	603
9	0	0	0	0	465	601
10	0	0	0	0	466	603
11	0	0	0	0	466	603
12	0	0	0	0	465	603
13	0	0	0	0	467	606
14	0	0	0	0	466	604
15	0	0	0	0	465	603
0	0	0	0	0	467	603
1	0	0	0	0	466	601
2	0	0	0	0	467	603
3	0	0	0	0	467	604
4	0	0	0	0	468	603
5	0	0	0	0	470	606
6	0	0	0	0	470	603
7	0	0	0	0	470	603
8	0	0	0	0	470	603
9	0	0	0	0	471	601
10	0	0	0	0	471	604
11	0	0	0	0	471	604
12	0	0	0	0	470	603
13	0	0	0	0	470	606
14	0	0	0	0	469	604
15	0	0	0	0	469	604
0	0	0	0	0	470	604
1	0	0	0	0	468	602
2	0	0	0	0	467	604
3	0	0	0	0	467	604
4	0	0	0	0	467	604
5	0	0	0	0	467	606
6	0	0	0	0	466	604
7	0	0	0	0	466	604
8	0	0	0	0	465	604
9	0	0	0	0	466	603
10	0	0	0	0	466	604
11	0	0	0	0	466	604
12	0	0	0	0	466	604
13	0	0	0	0	467	606
14	0	0	0	0	467	604
15	0	0	0	0	466	604
0	0	0	0	0	467	604
1	0	0	0	0	467	602
2	0	0	0	0	468	604
3	0	0	0	0	468	604
4	0	0	0	0	468	604
5	0	0	0	0	468	606
6	0	0	0	0	468	604
7	0	0	0	0	468	604
8	0	0	0	0	469	604
9	0	0	0	0	468	601
10	0	0	0	0	469	604
11	0	0	0	0	469	604
12	0	0	0	0	469	604
13	0	0	0	0	469	607
14	0	0	0	0	469	604
15	0	0	0	0	470	604
0	0	0	0	0	470	604
1	0	0	0	0	470	602
2	0	0	0	0	471	604
3	0	0	0	0	471	604
4	0	0	0	0	472	604
5	0	0	0	0	472	606
6	0	0	0	0	473	604
7	0	0	0	0	475	604
8	0	0	0	0	475	604
9	0	0	0	0	475	602
10	0	0	0	0	475	604
11	0	0	0	0	477	604
12	0	0	0	0	478	604
13	0	0	0	0	480	607
14	0	0	0	0	480	604
15	0	0	0	0	482	604
0	0	0	0	0	484	604
1	0	0	0	0	483	603
2	0	0	0	0	485	604
3	0	0	0	0	486	604
4	0	0	0	0	486	604
5	0	0	0	0	487	606
6	0	0	0	0	487	604
7	0	0	0	0	488	604
8	0	0	0	0	488	604
9	0	0	0	0	488	602
10	0	0	0	0	488	604
11	0	0	0	0	489	604
12	0	0	0	0	490	604
13	0	0	0	0	491	606
14	0	0	0	0	491	604
15	0	0	0	0	492	604
0	0	0	0	0	492	604
1	0	0	0	0	493	602
2	0	0	0	0	494	603
3	0	0	0	0	494	604
4	0	0	0	0	495	604
5	0	0	0	0	495	607
6	0	0	0	0	496	604
7	0	0	0	0	496	604
8	0	0	0	0	497	604
9	0	0	0	0	497	601
10	0	0	0	0	499	604
11	0	0	0	0	499	604
12	0	0	0	0	499	604
13	0	0	0	0	500	606
14	0	0	0	0	500	604
15	0	0	0	0	500	604
0	0	0	0	0	502	604
1	0	0	0	0	502	602
2	0	0	0	0	502	604
3	0	0	0	0	502	604
4	0	0	0	0	502	604
5	0	0	0	0	503	606
6	0	0	0	0	503	604
7	0	0	0	0	503	604
8	0	0	0	0	503	603
9	0	0	0	0	503	602
10	0	0	0	0	502	603
11	0	0	0	0	502	603
12	0	0	0	0	501	603
13	0	0	0	0	501	606
14	0	0	0	0	501	603
15	0	0	0	0	502	603
0	0	0	0	0	502	603
1	0	0	0	0	501	601
2	0	0	0	0	500	603
3	0	0	0	0	501	603
4	0	0	0	0	499	603
5	0	0	0	0	499	605
6	0	0	0	0	498	603
7	0	0	0	0	497	603
8	0	0	0	0	496	603
9	0	0	0	0	496	601
10	0	0	0	0	495	603
11	0	0	0	0	494	603
12	0	0	0	0	494	602
13	0	0	0	0	494	605
14	0	0	0	0	495	603
15	0	0	0	0	493	602
0	0	0	0	0	493	603
1	0	0	0	0	493	601
2	0	0	0	0	492	602
3	0	0	0	0	492	603
4	0	0	0	0	492	603
5	0	0	0	0	492	606
6	0	0	0	0	491	604
7	0	0	0	0	492	603
8	0	0	0	0	491	603
9	0	0	0	0	491	601
10	0	0	0	0	490	603
11	0	0	0	0	489	603
12	0	0	0	0	489	604
13	0	0	0	0	489	605
14	0	0	0	0	489	604
15	0	0	0	0	489	604
0	0	0	0	0	489	604
1	0	0	0	0	490	602
2	0	0	0	0	489	604
3	0	0	0	0	489	604
4	0	0	0	0	489	604
5	0	0	0	0	488	606
6	0	0	0	0	489	604
7	0	0	0	0	490	604
8	0	0	0	0	489	604
9	0	0	0	0	489	602
10	0	0	0	0	490	604
11	0	0	0	0	491	604
12	0	0	0	0	491	604
13	0	0	0	0	491	606
14	0	0	0	0	491	604
15	0	0	0	0	491	604
0	0	0	0	0	491	604
1	0	0	0	0	491	602
2	0	0	0	0	492	604
3	0	0	0	0	491	604
4	0	0	0	0	491	604
5	0	0	0	0	491	606
6	0	0	0	0	491	604
7	0	0	0	0	491	604
8	0	0	0	0	492	604
9	0	0	0	0	492	603
10	0	0	0	0	492	604
11	0	0	0	0	493	604
12	0	0	0	0	493	604
13	0	0	0	0	493	606
14	0	0	0	0	492	604
15	0	0	0	0	493	604
0	0	0	0	0	493	604
1	0	0	0	0	494	603
2	0	0	0	0	495	604
3	0	0	0	0	496	604
4	0	0	0	0	496	604
5	0	0	0	0	496	607
6	0	0	0	0	496	604
7	0	0	0	0	496	604
8	0	0	0	0	496	604
9	0	0	0	0	496	603
10	0	0	0	0	496	604
11	0	0	0	0	496	604
12	0	0	0	0	495	604
13	0	0	0	0	496	606
14	0	0	0	0	496	604
15	0	0	0	0	495	604
0	0	0	0	0	495	604
1	0	0	0	0	495	602
2	0	0	0	0	496	604
3	0	0	0	0	495	604
4	0	0	0	0	494	604
5	0	0	0	0	495	606
6	0	0	0	0	495	604
7	0	0	0	0	495	603
8	0	0	0	0	496	603
9	0	0	0	0	496	601
10	0	0	0	0	497	604
11	0	0	0	0	498	604
12	0	0	0	0	499	604
13	0	0	0	0	499	606
14	0	0	0	0	500	603
15	0	0	0	0	500	603
0	0	0	0	0	501	604
1	0	0	0	0	501	601
2	0	0	0	0	502	603
3	0	0	0	0	503	603
4	0	0	0	0	503	604
5	0	0	0	0	504	606
6	0	0	0	0	503	603
7	0	0	0	0	503	603
8	0	0	0	0	503	604
9	0	0	0	0	504	602
10	0	0	0	0	505	603
11	0	0	0	0	504	603
12	0	0	0	0	504	603
13	0	0	0	0	504	605
14	0	0	0	0	504	604
15	0	0	0	0	504	604
0	0	0	0	0	505	603
1	0	0	0	0	506	601
2	0	0	0	0	506	604
3	0	0	0	0	506	603
4	0	0	0	0	505	604
5	0	0	0	0	506	605
6	0	0	0	0	506	604
7	0	0	0	0	505	604
8	0	0	0	0	505	604
9	0	0	0	0	505	602
10	0	0	0	0	505	603
11	0	0	0	0	506	603
12	0	0	0	0	506	604
13	0	0	0	0	506	607
14	0	0	0	0	506	604
15	0	0	0	0	506	604
0	0	0	0	0	507	605
1	0	0	0	0	507	603
2	0	0	0	0	507	605
3	0	0	0	0	507	604
4	0	0	0	0	508	604
5	0	0	0	0	509	607
6	0	0	0	0	508	604
7	0	0	0	0	508	604
8	0	0	0	0	508	604
9	0	0	0	0	508	602
10	0	0	0	0	509	604
11	0	0	0	0	508	604
12	0	0	0	0	509	604
13	0	0	0	0	509	606
14	0	0	0	0	509	604
15	0	0	0	0	509	604
0	0	0	0	0	509	604
1	0	0	0	0	509	602
2	0	0	0	0	508	604
3	0	0	0	0	508	604
4	0	0	0	0	508	603
5	0	0	0	0	508	606
6	0	0	0	0	507	604
7	0	0	0	0	507	603
8	0	0	0	0	506	603
9	0	0	0	0	507	601
10	0	0	0	0	507	603
11	0	0	0	0	508	603
12	0	0	0	0	509	603
13	0	0	0	0	508	605
14	0	0	0	0	508	603
15	0	0	0	0	508	603
0	0	0	0	0	509	603
1	0	0	0	0	509	600
2	0	0	0	0	508	603
3	0	0	0	0	508	602
4	0	0	0	0	509	603
5	0	0	0	0	509	605
6	0	0	0	0	510	603
7	0	0	0	0	509	603
8	0	0	0	0	509	603
9	0	0	0	0	508	601
10	0	0	0	0	508	603
11	0	0	0	0	508	603
12	0	0	0	0	508	603
13	0	0	0	0	508	605
14	0	0	0	0	507	602
15	0	0	0	0	507	603
0	0	0	0	0	506	603
1	0	0	0	0	505	601
2	0	0	0	0	505	603
3	0	0	0	0	504	604
4	0	0	0	0	504	603
5	0	0	0	0	504	605
6	0	0	0	0	503	603
7	0	0	0	0	503	603
8	0	0	0	0	503	603
9	0	0	0	0	504	601
10	0	0	0	0	504	603
11	0	0	0	0	503	603
12	0	0	0	0	503	604
13	0	0	0	0	503	606
14	0	0	0	0	503	604
15	0	0	0	0	503	603
0	0	0	0	0	502	604
1	0	0	0	0	502	602
2	0	0	0	0	502	604
3	0	0	0	0	503	604
4	0	0	0	0	503	604
5	0	0	0	0	502	606
6	0	0	0	0	503	604
7	0	0	0	0	502	604
8	0	0	0	0	502	604
9	0	0	0	0	502	603
10	0	0	0	0	502	604
11	0	0	0	0	502	604
12	0	0	0	0	503	604
13	0	0	0	0	503	607
14	0	0	0	0	504	604
15	0	0	0	0	504	604
0	0	0	0	0	505	605
1	0	0	0	0	506	603
2	0	0	0	0	506	605
3	0	0	0	0	507	605
4	0	0	0	0	507	605
5	0	0	0	0	506	607
6	0	0	0	0	507	604
7	0	0	0	0	507	605
8	0	0	0	0	507	605
9	0	0	0	0	507	603
10	0	0	0	0	507	604
11	0	0	0	0	508	604
12	0	0	0	0	509	604
13	0	0	0	0	509	606
14	0	0	0	0	510	604
15	0	0	0	0	512	604
0	0	0	0	0	512	604
1	0	0	0	0	512	603
2	0	0	0	0	512	604
3	0	0	0	0	512	603
4	0	0	0	0	512	604
5	0	0	0	0	512	606
6	0	0	0	0	512	604
7	0	0	0	0	512	604
8	0	0	0	0	512	603
9	0	0	0	0	513	602
10	0	0	0	0	513	603
11	0	0	0	0	515	604
12	0	0	0	0	515	603
13	0	0	0	0	516	606
14	0	0	0	0	518	604
15	0	0	0	0	518	603
0	0	0	0	0	518	604
1	0	0	0	0	518	602
2	0	0	0	0	518	604
3	0	0	0	0	519	604
4	0	0	0	0	519	603
5	0	0	0	0	519	605
6	0	0	0	0	520	603
7	0	0	0	0	521	603
8	0	0	0	0	522	604
9	0	0	0	0	523	601
10	0	0	0	0	523	603
11	0	0	0	0	524	603
12	0	0	0	0	524	603
13	0	0	0	0	525	606
14	0	0	0	0	526	603
15	0	0	0	0	526	603
0	0	0	0	0	527	603
1	0	0	0	0	528	601
2	0	0	0	0	528	603
3	0	0	0	0	528	603
4	0	0	0	0	529	604
5	0	0	0	0	530	605
6	0	0	0	0	529	603
7	0	0	0	0	529	603
8	0	0	0	0	530	604
9	0	0	0	0	530	602
10	0	0	0	0	530	604
11	0	0	0	0	531	604
12	0	0	0	0	532	604
13	0	0	0	0	531	606
14	0	0	0	0	532	604
15	0	0	0	0	534	604
0	0	0	0	0	534	604
1	0	0	0	0	534	602
2	0	0	0	0	535	604
3	0	0	0	0	536	604
4	0	0	0	0	536	604
5	0	0	0	0	536	606
6	0	0	0	0	537	604
7	0	0	0	0	538	604
8	0	0	0	0	539	603
9	0	0	0	0	539	602
10	0	0	0	0	540	604
11	0	0	0	0	540	604
12	0	0	0	0	540	604
13	0	0	0	0	541	607
14	0	0	0	0	540	604
15	0	0	0	0	540	604
0	0	0	0	0	541	604
1	0	0	0	0	540	603
2	0	0	0	0	540	604
3	0	0	0	0	540	604
4	0	0	0	0	540	604
5	0	0	0	0	542	607
6	0	0	0	0	541	604
7	0	0	0	0	541	604
8	0	0	0	0	541	604
9	0	0	0	0	540	602
10	0	0	0	0	541	604
11	0	0	0	0	541	604
12	0	0	0	0	542	604
13	0	0	0	0	541	606
14	0	0	0	0	542	604
15	0	0	0	0	542	604
0	0	0	0	0	542	604
1	0	0	0	0	543	602
2	0	0	0	0	543	604
3	0	0	0	0	544	604
4	0	0	0	0	544	604
5	0	0	0	0	543	606
6	0	0	0	0	542	603
7	0	0	0	0	542	604
8	0	0	0	0	542	604
9	0	0	0	0	542	602
10	0	0	0	0	542	604
11	0	0	0	0	542	604
12	0	0	0	0	542	603
13	0	0	0	0	541	606
14	0	0	0	0	541	604
15	0	0	0	0	540	604
0	0	0	0	0	540	604
1	0	0	0	0	539	602
2	0	0	0	0	540	603
3	0	0	0	0	540	603
4	0	0	0	0	541	604
5	0	0	0	0	541	606
6	0	0	0	0	542	604
7	0	0	0	0	542	603
8	0	0	0	0	543	604
9	0	0	0	0	544	601
10	0	0	0	0	545	603
11	0	0	0	0	545	603
12	0	0	0	0	545	603
13	0	0	0	0	545	605
14	0	0	0	0	545	603
15	0	0	0	0	544	603
0	0	0	0	0	543	603
1	0	0	0	0	543	601
2	0	0	0	0	543	603
3	0	0	0	0	543	603
4	0	0	0	0	543	604
5	0	0	0	0	543	606
6	0	0	0	0	543	604
7	0	0	0	0	543	603
8	0	0	0	0	543	604
9	0	0	0	0	542	602
10	0	0	0	0	542	604
11	0	0	0	0	543	604
12	0	0	0	0	543	604
13	0	0	0	0	543	606
14	0	0	0	0	542	604
15	0	0	0	0	542	604
0	0	0	0	0	541	604
1	0	0	0	0	542	602
2	0	0	0	0	542	603
3	0	0	0	0	540	604
4	0	0	0	0	541	604
5	0	0	0	0	541	606
6	0	0	0	0	541	604
7	0	0	0	0	541	604
8	0	0	0	0	541	604
9	0	0	0	0	540	602
10	0	0	0	0	540	604
11	0	0	0	0	539	604
12	0	0	0	0	539	603
13	0	0	0	0	540	606
14	0	0	0	0	539	604
15	0	0	0	0	538	603
0	0	0	0	0	538	604
1	0	0	0	0	537	601
2	0	0	0	0	536	603
3	0	0	0	0	536	603
4	0	0	0	0	536	603
5	0	0	0	0	535	605
6	0	0	0	0	534	603
7	0	0	0	0	533	603
8	0	0	0	0	533	603
9	0	0	0	0	532	601
10	0	0	0	0	531	603
11	0	0	0	0	531	603
12	0	0	0	0	530	603
13	0	0	0	0	529	605
14	0	0	0	0	530	603
15	0	0	0	0	529	603
0	0	0	0	0	529	603
1	0	0	0	0	529	602
2	0	0	0	0	529	603
3	0	0	0	0	529	603
4	0	0	0	0	529	603
5	0	0	0	0	529	606
6	0	0	0	0	530	604
7	0	0	0	0	530	604
8	0	0	0	0	529	604
9	0	0	0	0	529	602
10	0	0	0	0	530	604
11	0	0	0	0	531	604
12	0	0	0	0	531	603
13	0	0	0	0	531	606
14	0	0	0	0	532	604
15	0	0	0	0	531	604
0	0	0	0	0	532	604
1	0	0	0	0	532	601
2	0	0	0	0	532	603
3	0	0	0	0	532	604
4	0	0	0	0	532	604
5	0	0	0	0	533	606
6	0	0	0	0	533	604
7	0	0	0	0	532	604
8	0	0	0	0	533	604
9	0	0	0	0	532	602
10	0	0	0	0	531	604
11	0	0	0	0	531	604
12	0	0	0	0	531	604
13	0	0	0	0	533	606
14	0	0	0	0	533	604
15	0	0	0	0	534	604
0	0	0	0	0	535	604
1	0	0	0	0	535	602
2	0	0	0	0	536	604
3	0	0	0	0	536	604
4	0	0	0	0	536	603
5	0	0	0	0	536	606
6	0	0	0	0	537	604
7	0	0	0	0	539	604
8	0	0	0	0	540	604
9	0	0	0	0	541	602
10	0	0	0	0	543	604
11	0	0	0	0	545	604
12	0	0	0	0	545	604
13	0	0	0	0	546	606
14	0	0	0	0	547	604
15	0	0	0	0	547	603
0	0	0	0	0	548	604
1	0	0	0	0	547	602
2	0	0	0	0	547	603
3	0	0	0	0	546	604
4	0	0	0	0	546	604
5	0	0	0	0	545	606
6	0	0	0	0	545	604
7	0	0	0	0	545	604
8	0	0	0	0	545	604
9	0	0	0	0	544	603
10	0	0	0	0	545	604
11	0	0	0	0	545	603
12	0	0	0	0	545	604
13	0	0	0	0	546	606
14	0	0	0	0	546	604
15	0	0	0	0	546	604
0	0	0	0	0	547	604
1	0	0	0	0	547	602
2	0	0	0	0	547	604
3	0	0	0	0	547	604
4	0	0	0	0	548	604
5	0	0	0	0	549	606
6	0	0	0	0	549	604
7	0	0	0	0	550	604
8	0	0	0	0	550	604
9	0	0	0	0	550	602
10	0	0	0	0	550	605
11	0	0	0	0	551	604
12	0	0	0	0	550	604
13	0	0	0	0	550	606
14	0	0	0	0	549	604
15	0	0	0	0	549	604
0	0	0	0	0	549	603
1	0	0	0	0	548	602
2	0	0	0	0	547	602
3	0	0	0	0	547	603
4	0	0	0	0	545	604
5	0	0	0	0	545	605
6	0	0	0	0	545	603
7	0	0	0	0	544	603
8	0	0	0	0	544	603
9	0	0	0	0	544	601
10	0	0	0	0	543	603
11	0	0	0	0	543	603
12	0	0	0	0	543	603
13	0	0	0	0	543	606
14	0	0	0	0	543	603
15	0	0	0	0	541	603
0	0	0	0	0	541	603
1	0	0	0	0	540	601
2	0	0	0	0	540	603
3	0	0	0	0	539	603
4	0	0	0	0	538	602
5	0	0	0	0	538	605
6	0	0	0	0	539	603
7	0	0	0	0	537	603
8	0	0	0	0	537	603
9	0	0	0	0	538	601
10	0	0	0	0	537	603
11	0	0	0	0	536	603
12	0	0	0	0	536	603
13	0	0	0	0	536	606
14	0	0	0	0	535	603
15	0	0	0	0	535	603
0	0	0	0	0	535	604
1	0	0	0	0	535	602
2	0	0	0	0	535	604
3	0	0	0	0	534	604
4	0	0	0	0	534	603
5	0	0	0	0	534	606
6	0	0	0	0	533	604
7	0	0	0	0	532	604
8	0	0	0	0	532	603
9	0	0	0	0	530	602
10	0	0	0	0	528	604
11	0	0	0	0	525	603
12	0	0	0	0	523	604
13	0	0	0	0	519	605
14	0	0	0	0	515	604
15	0	0	0	0	510	604
0	0	0	0	0	504	604
1	0	0	0	0	497	603
2	0	0	0	0	492	603
3	0	0	0	0	487	604
4	0	0	0	0	481	604
5	0	0	0	0	478	606
6	0	0	0	0	474	604
7	0	0	0	0	471	604
8	0	0	0	0	469	603
9	0	0	0	0	467	601
10	0	0	0	0	465	604
11	0	0	0	0	463	603
12	0	0	0	0	462	603
13	0	0	0	0	463	606
14	0	0	0	0	463	604
15	0	0	0	0	464	604
0	0	0	0	0	467	604
1	0	0	0	0	473	602
2	0	0	0	0	482	604
3	0	0	0	0	494	604
4	0	0	0	0	509	604
5	0	0	0	0	524	606
6	0	0	0	0	540	603
7	0	0	0	0	559	604
8	0	0	0	0	577	604
9	0	0	0	0	594	602
10	0	0	0	0	611	604
11	0	0	0	0	627	603
12	0	0	0	0	641	603
13	0	0	0	0	651	606
14	0	0	0	0	658	604
15	0	0	0	0	663	603
0	0	0	0	0	668	603
1	0	0	0	0	670	601
2	0	0	0	0	670	604
3	0	0	0	0	667	603
4	0	0	0	0	661	604
5	0	0	0	0	654	606
6	0	0	0	0	646	604
7	0	0	0	0	640	604
8	0	0	0	0	635	603
9	0	0	0	0	633	602
10	0	0	0	0	633	603
11	0	0	0	0	636	603
12	0	0	0	0	641	603
13	0	0	0	0	643	606
14	0	0	0	0	639	604
15	0	0	0	0	631	603
0	0	0	0	0	622	603
1	0	0	0	0	611	601
2	0	0	0	0	600	603
3	0	0	0	0	589	603
4	0	0	0	0	579	603
5	0	0	0	0	569	606
6	0	0	0	0	560	603
7	0	0	0	0	551	603
8	0	0	0	0	544	603
9	0	0	0	0	538	601
10	0	0	0	0	532	603
11	0	0	0	0	527	603
12	0	0	0	0	523	603
13	0	0	0	0	518	605
14	0	0	0	0	514	603
15	0	0	0	0	511	604
0	0	0	0	0	507	604
1	0	0	0	0	503	601
2	0	0	0	0	500	603
3	0	0	0	0	497	604
4	0	0	0	0	494	604
5	0	0	0	0	491	606
6	0	0	0	0	487	604
7	0	0	0	0	484	604
8	0	0	0	0	481	604
9	0	0	0	0	479	603
10	0	0	0	0	476	605
11	0	0	0	0	475	605
12	0	0	0	0	473	604
13	0	0	0	0	472	607
14	0	0	0	0	470	604
15	0	0	0	0	468	604
0	0	0	0	0	466	604
1	0	0	0	0	465	603
2	0	0	0	0	464	604
3	0	0	0	0	463	604
4	0	0	0	0	463	604
5	0	0	0	0	462	607
6	0	0	0	0	461	604
7	0	0	0	0	461	604
8	0	0	0	0	460	604
9	0	0	0	0	460	602
10	0	0	0	0	460	604
11	0	0	0	0	459	604
12	0	0	0	0	459	604
13	0	0	0	0	459	606
14	0	0	0	0	459	604
15	0	0	0	0	459	604
0	0	0	0	0	459	604
1	0	0	0	0	459	601
2	0	0	0	0	460	603
3	0	0	0	0	461	603
4	0	0	0	0	461	603
5	0	0	0	0	461	606
6	0	0	0	0	461	603
7	0	0	0	0	462	604
8	0	0	0	0	462	603
9	0	0	0	0	463	601
10	0	0	0	0	463	603
11	0	0	0	0	464	603
12	0	0	0	0	465	603
13	0	0	0	0	466	606
14	0	0	0	0	466	603
15	0	0	0	0	467	603
0	0	0	0	0	467	604
1	0	0	0	0	468	602
2	0	0	0	0	468	603
3	0	0	0	0	468	603
4	0	0	0	0	470	603
5	0	0	0	0	470	605
6	0	0	0	0	471	603
7	0	0	0	0	472	603
8	0	0	0	0	472	603
9	0	0	0	0	472	601
10	0	0	0	0	472	603
11	0	0	0	0	472	603
12	0	0	0	0	472	603
13	0	0	0	0	473	605
14	0	0	0	0	474	603
15	0	0	0	0	475	603
0	0	0	0	0	476	603
1	0	0	0	0	476	601
2	0	0	0	0	477	603
3	0	0	0	0	478	603
4	0	0	0	0	478	603
5	0	0	0	0	478	605
6	0	0	0	0	478	604
7	0	0	0	0	479	603
8	0	0	0	0	479	604
9	0	0	0	0	479	601
10	0	0	0	0	479	604
11	0	0	0	0	479	604
12	0	0	0	0	479	604
13	0	0	0	0	480	607
14	0	0	0	0	480	604
15	0	0	0	0	480	604
0	0	0	0	0	480	604
1	0	0	0	0	479	603
2	0	0	0	0	480	605
3	0	0	0	0	480	604
4	0	0	0	0	480	604
5	0	0	0	0	480	607
6	0	0	0	0	479	604
7	0	0	0	0	479	604
8	0	0	0	0	479	604
9	0	0	0	0	478	603
10	0	0	0	0	478	604
11	0	0	0	0	477	604
12	0	0	0	0	478	604
13	0	0	0	0	478	606
14	0	0	0	0	479	604
15	0	0	0	0	480	604
0	0	0	0	0	480	603
1	0	0	0	0	480	602
2	0	0	0	0	480	604
3	0	0	0	0	480	604
4	0	0	0	0	481	604
5	0	0	0	0	482	606
6	0	0	0	0	483	604
7	0	0	0	0	484	604
8	0	0	0	0	485	604
9	0	0	0	0	487	602
10	0	0	0	0	487	604
11	0	0	0	0	488	604
12	0	0	0	0	488	604
13	0	0	0	0	488	607
14	0	0	0	0	489	604
15	0	0	0	0	488	604
0	0	0	0	0	490	604
1	0	0	0	0	491	603
2	0	0	0	0	491	604
3	0	0	0	0	490	604
4	0	0	0	0	490	603
5	0	0	0	0	491	607
6	0	0	0	0	491	604
7	0	0	0	0	491	603
8	0	0	0	0	491	604
9	0	0	0	0	490	602
10	0	0	0	0	491	603
11	0	0	0	0	490	603
12	0	0	0	0	491	603
13	0	0	0	0	492	606
14	0	0	0	0	492	603
15	0	0	0	0	492	603
0	0	0	0	0	493	603
1	0	0	0	0	494	601
2	0	0	0	0	495	603
3	0	0	0	0	495	603
4	0	0	0	0	495	603
5	0	0	0	0	495	605
6	0	0	0	0	496	603
7	0	0	0	0	496	603
8	0	0	0	0	496	603
9	0	0	0	0	496	600
10	0	0	0	0	496	603
11	0	0	0	0	496	603
12	0	0	0	0	496	603
13	0	0	0	0	497	605
14	0	0	0	0	497	603
15	0	0	0	0	497	603
0	0	0	0	0	496	603
1	0	0	0	0	497	601
2	0	0	0	0	497	603
3	0	0	0	0	497	603
4	0	0	0	0	497	603
5	0	0	0	0	498	606
6	0	0	0	0	498	603
7	0	0	0	0	498	603
8	0	0	0	0	499	603
9	0	0	0	0	499	602
10	0	0	0	0	499	604
11	0	0	0	0	499	604
12	0	0	0	0	499	604
13	0	0	0	0	500	607
14	0	0	0	0	499	604
15	0	0	0	0	500	604
0	0	0	0	0	500	604
1	0	0	0	0	501	603
2	0	0	0	0	502	604
3	0	0	0	0	503	604
4	0	0	0	0	504	604
5	0	0	0	0	505	607
6	0	0	0	0	507	604
7	0	0	0	0	508	604
8	0	0	0	0	508	604
9	0	0	0	0	509	602
10	0	0	0	0	509	604
11	0	0	0	0	510	604
12	0	0	0	0	510	604
13	0	0	0	0	510	606
14	0	0	0	0	510	604
15	0	0	0	0	510	604
0	0	0	0	0	510	603
1	0	0	0	0	510	602
2	0	0	0	0	511	604
3	0	0	0	0	511	604
4	0	0	0	0	512	604
5	0	0	0	0	512	606
6	0	0	0	0	513	604
7	0	0	0	0	515	603
8	0	0	0	0	516	603
9	0	0	0	0	516	602
10	0	0	0	0	517	604
11	0	0	0	0	517	603
12	0	0	0	0	518	604
13	0	0	0	0	519	606
14	0	0	0	0	519	603
15	0	0	0	0	520	603
0	0	0	0	0	520	603
1	0	0	0	0	521	601
2	0	0	0	0	522	603
3	0	0	0	0	523	603
4	0	0	0	0	522	603
5	0	0	0	0	523	605
6	0	0	0	0	524	603
7	0	0	0	0	524	602
8	0	0	0	0	524	602
9	0	0	0	0	523	601
10	0	0	0	0	522	603
11	0	0	0	0	521	603
12	0	0	0	0	520	603
13	0	0	0	0	519	605
14	0	0	0	0	518	602
15	0	0	0	0	517	603
0	0	0	0	0	516	603
1	0	0	0	0	514	601
2	0	0	0	0	514	603
3	0	0	0	0	512	602
4	0	0	0	0	511	603
5	0	0	0	0	509	605
6	0	0	0	0	507	603
7	0	0	0	0	506	603
8	0	0	0	0	504	603
9	0	0	0	0	504	601
10	0	0	0	0	503	603
11	0	0	0	0	504	603
12	0	0	0	0	503	603
13	0	0	0	0	503	606
14	0	0	0	0	502	604
15	0	0	0	0	501	603
0	0	0	0	0	500	603
1	0	0	0	0	500	601
2	0	0	0	0	499	604
3	0	0	0	0	499	604
4	0	0	0	0	499	603
5	0	0	0	0	498	606
6	0	0	0	0	498	604
7	0	0	0	0	497	604
8	0	0	0	0	497	603
9	0	0	0	0	496	601
10	0	0	0	0	496	603
11	0	0	0	0	496	603
12	0	0	0	0	495	603
13	0	0	0	0	495	605
14	0	0	0	0	495	603
15	0	0	0	0	494	603
0	0	0	0	0	494	603
1	0	0	0	0	493	601
2	0	0	0	0	493	603
3	0	0	0	0	493	603
4	0	0	0	0	493	603
5	0	0	0	0	492	606
6	0	0	0	0	492	603
7	0	0	0	0	492	603
8	0	0	0	0	491	603
9	0	0	0	0	491	601
10	0	0	0	0	491	603
11	0	0	0	0	491	604
12	0	0	0	0	491	604
13	0	0	0	0	492	606
14	0	0	0	0	491	604
15	0	0	0	0	491	604
0	0	0	0	0	491	603
1	0	0	0	0	491	602
2	0	0	0	0	491	604
3	0	0	0	0	491	604
4	0	0	0	0	491	604
5	0	0	0	0	492	607
6	0	0	0	0	493	604
7	0	0	0	0	494	604
8	0	0	0	0	494	604
9	0	0	0	0	494	602
10	0	0	0	0	494	604
11	0	0	0	0	495	605
12	0	0	0	0	496	604
13	0	0	0	0	496	607
14	0	0	0	0	497	604
15	0	0	0	0	497	605
0	0	0	0	0	498	604
1	0	0	0	0	499	602
2	0	0	0	0	499	604
3	0	0	0	0	500	604
4	0	0	0	0	500	604
5	0	0	0	0	501	607
6	0	0	0	0	500	604
7	0	0	0	0	500	604
8	0	0	0	0	500	604
9	0	0	0	0	500	601
10	0	0	0	0	499	603
11	0	0	0	0	499	603
12	0	0	0	0	499	604
13	0	0	0	0	500	606
14	0	0	0	0	501	603
15	0	0	0	0	501	604
0	0	0	0	0	502	604
1	0	0	0	0	503	601
2	0	0	0	0	504	603
3	0	0	0	0	504	604
4	0	0	0	0	504	603
5	0	0	0	0	505	606
6	0	0	0	0	506	604
7	0	0	0	0	505	603
8	0	0	0	0	505	604
9	0	0	0	0	505	602
10	0	0	0	0	505	603
11	0	0	0	0	506	604
12	0	0	0	0	506	604
13	0	0	0	0	507	606
14	0	0	0	0	507	604
15	0	0	0	0	508	604
0	0	0	0	0	508	604
1	0	0	0	0	508	602
2	0	0	0	0	507	604
3	0	0	0	0	508	603
4	0	0	0	0	507	603
5	0	0	0	0	508	605
6	0	0	0	0	508	604
7	0	0	0	0	508	604
8	0	0	0	0	508	604
9	0	0	0	0	508	601
10	0	0	0	0	507	603
11	0	0	0	0	507	604
12	0	0	0	0	506	604
13	0	0	0	0	505	606
14	0	0	0	0	504	603
15	0	0	0	0	504	603
0	0	0	0	0	504	604
1	0	0	0	0	504	601
2	0	0	0	0	505	603
3	0	0	0	0	506	603
4	0	0	0	0	506	603
5	0	0	0	0	507	605
6	0	0	0	0	507	603
7	0	0	0	0	508	602
8	0	0	0	0	509	603
9	0	0	0	0	510	601
10	0	0	0	0	511	603
11	0	0	0	0	511	602
12	0	0	0	0	511	602
13	0	0	0	0	511	605
14	0	0	0	0	511	603
15	0	0	0	0	511	603
0	0	0	0	0	510	603
1	0	0	0	0	509	601
2	0	0	0	0	509	603
3	0	0	0	0	510	603
4	0	0	0	0	509	603
5	0	0	0	0	508	605
6	0	0	0	0	508	604
7	0	0	0	0	506	603
8	0	0	0	0	507	604
9	0	0	0	0	507	601
10	0	0	0	0	506	603
11	0	0	0	0	506	604
12	0	0	0	0	505	604
13	0	0	0	0	505	606
14	0	0	0	0	506	604
15	0	0	0	0	505	604
0	0	0	0	0	505	604
1	0	0	0	0	505	601
2	0	0	0	0	504	603
3	0	0	0	0	504	603
4	0	0	0	0	504	603
5	0	0	0	0	504	606
6	0	0	0	0	504	603
7	0	0	0	0	504	603
8	0	0	0	0	504	603
9	0	0	0	0	504	601
10	0	0	0	0	505	603
11	0	0	0	0	505	603
12	0	0	0	0	506	603
13	0	0	0	0	506	604
14	0	0	0	0	506	602
15	0	0	0	0	506	602
0	0	0	0	0	506	602
1	0	0	0	0	506	601
2	0	0	0	0	507	603
3	0	0	0	0	507	603
4	0	0	0	0	507	603
5	0	0	0	0	508	605
6	0	0	0	0	508	603
7	0	0	0	0	509	603
8	0	0	0	0	510	603
9	0	0	0	0	510	601
10	0	0	0	0	511	603
11	0	0	0	0	512	604
12	0	0	0	0	512	603
13	0	0	0	0	511	606
14	0	0	0	0	511	604
15	0	0	0	0	510	604
0	0	0	0	0	510	604
1	0	0	0	0	510	602
2	0	0	0	0	510	604
3	0	0	0	0	510	604
4	0	0	0	0	510	604
5	0	0	0	0	511	606
6	0	0	0	0	510	604
7	0	0	0	0	510	604
8	0	0	0	0	510	604
9	0	0	0	0	511	603
10	0	0	0	0	512	604
11	0	0	0	0	513	604
12	0	0	0	0	513	604
13	0	0	0	0	513	606
14	0	0	0	0	513	604
15	0	0	0	0	514	604
0	0	0	0	0	514	604
1	0	0	0	0	514	601
2	0	0	0	0	514	604
3	0	0	0	0	514	603
4	0	0	0	0	514	603
5	0	0	0	0	514	605
6	0	0	0	0	515	603
7	0	0	0	0	515	603
8	0	0	0	0	515	603
9	0	0	0	0	516	601
10	0	0	0	0	517	603
11	0	0	0	0	517	603
12	0	0	0	0	517	603
13	0	0	0	0	517	605
14	0	0	0	0	517	603
15	0	0	0	0	517	603
0	0	0	0	0	516	603
1	0	0	0	0	516	601
2	0	0	0	0	516	603
3	0	0	0	0	517	603
4	0	0	0	0	516	603
5	0	0	0	0	516	605
6	0	0	0	0	515	603
7	0	0	0	0	515	603
8	0	0	0	0	515	603
9	0	0	0	0	515	601
10	0	0	0	0	514	604
11	0	0	0	0	514	604
12	0	0	0	0	513	604
13	0	0	0	0	512	605
14	0	0	0	0	512	604
15	0	0	0	0	512	603
0	0	0	0	0	511	604
1	0	0	0	0	511	602
2	0	0	0	0	510	604
3	0	0	0	0	511	604
4	0	0	0	0	511	604
5	0	0	0	0	512	605
6	0	0	0	0	513	604
7	0	0	0	0	513	603
8	0	0	0	0	513	604
9	0	0	0	0	512	601
10	0	0	0	0	512	603
11	0	0	0	0	512	603
12	0	0	0	0	512	603
13	0	0	0	0	511	605
14	0	0	0	0	511	603
15	0	0	0	0	511	603
0	0	0	0	0	510	603
1	0	0	0	0	510	601
2	0	0	0	0	508	603
3	0	0	0	0	509	603
4	0	0	0	0	509	603
5	0	0	0	0	509	605
6	0	0	0	0	509	603
7	0	0	0	0	509	603
8	0	0	0	0	510	603
9	0	0	0	0	510	601
10	0	0	0	0	511	603
11	0	0	0	0	512	603
12	0	0	0	0	513	603
13	0	0	0	0	512	605
14	0	0	0	0	513	603
15	0	0	0	0	513	603
0	0	0	0	0	513	603
1	0	0	0	0	514	601
2	0	0	0	0	514	603
3	0	0	0	0	515	604
4	0	0	0	0	516	603
5	0	0	0	0	516	605
6	0	0	0	0	517	603
7	0	0	0	0	517	603
8	0	0	0	0	517	603
9	0	0	0	0	517	601
10	0	0	0	0	517	603
11	0	0	0	0	516	604
12	0	0	0	0	515	603
13	0	0	0	0	515	606
14	0	0	0	0	515	603
15	0	0	0	0	515	603
0	0	0	0	0	515	603
1	0	0	0	0	515	601
2	0	0	0	0	515	603
3	0	0	0	0	515	603
4	0	0	0	0	515	602
5	0	0	0	0	515	606
6	0	0	0	0	515	604
7	0	0	0	0	516	604
8	0	0	0	0	516	603
9	0	0	0	0	518	601
10	0	0	0	0	519	603
11	0	0	0	0	519	603
12	0	0	0	0	519	602
13	0	0	0	0	519	605
14	0	0	0	0	518	603
15	0	0	0	0	518	603
0	0	0	0	0	519	603
1	0	0	0	0	519	601
2	0	0	0	0	519	603
3	0	0	0	0	520	603
4	0	0	0	0	520	603
5	0	0	0	0	520	606
6	0	0	0	0	520	604
7	0	0	0	0	519	604
8	0	0	0	0	520	604
9	0	0	0	0	520	603
10	0	0	0	0	519	604
11	0	0	0	0	519	604
12	0	0	0	0	519	604
13	0	0	0	0	518	606
14	0	0	0	0	518	604
15	0	0	0	0	518	604
0	0	0	0	0	518	604
1	0	0	0	0	519	602
2	0	0	0	0	519	604
3	0	0	0	0	518	604
4	0	0	0	0	518	604
5	0	0	0	0	518	606
6	0	0	0	0	518	604
7	0	0	0	0	518	604
8	0	0	0	0	518	603
9	0	0	0	0	518	601
10	0	0	0	0	518	603
11	0	0	0	0	518	604
12	0	0	0	0	518	604
13	0	0	0	0	518	606
14	0	0	0	0	519	604
15	0	0	0	0	519	604
0	0	0	0	0	519	604
1	0	0	0	0	519	602
2	0	0	0	0	519	604
3	0	0	0	0	519	603
4	0	0	0	0	519	604
5	0	0	0	0	519	605
6	0	0	0	0	518	603
7	0	0	0	0	519	604
8	0	0	0	0	519	603
9	0	0	0	0	518	602
10	0	0	0	0	518	604
11	0	0	0	0	517	604
12	0	0	0	0	516	603
13	0	0	0	0	515	606
14	0	0	0	0	515	604
15	0	0	0	0	515	603
0	0	0	0	0	514	604
1	0	0	0	0	513	602
2	0	0	0	0	512	603
3	0	0	0	0	512	603
4	0	0	0	0	512	603
5	0	0	0	0	512	606
6	0	0	0	0	511	604
7	0	0	0	0	511	603
8	0	0	0	0	511	604
9	0	0	0	0	512	601
10	0	0	0	0	511	603
11	0	0	0	0	511	603
12	0	0	0	0	511	603
13	0	0	0	0	512	606
14	0	0	0	0	511	603
15	0	0	0	0	511	604
0	0	0	0	0	511	603
1	0	0	0	0	511	601
2	0	0	0	0	512	604
3	0	0	0	0	511	603
4	0	0	0	0	511	604
5	0	0	0	0	510	606
6	0	0	0	0	508	603
7	0	0	0	0	508	603
8	0	0	0	0	507	603
9	0	0	0	0	507	601
10	0	0	0	0	507	603
11	0	0	0	0	506	603
12	0	0	0	0	505	603
13	0	0	0	0	505	605
14	0	0	0	0	505	603
15	0	0	0	0	505	604
0	0	0	0	0	504	604
1	0	0	0	0	504	602
2	0	0	0	0	504	603
3	0	0	0	0	504	604
4	0	0	0	0	503	603
5	0	0	0	0	503	605
6	0	0	0	0	502	604
7	0	0	0	0	501	604
8	0	0	0	0	501	603
9	0	0	0	0	500	602
10	0	0	0	0	499	603
11	0	0	0	0	499	603
12	0	0	0	0	499	603
13	0	0	0	0	499	605
14	0	0	0	0	499	603
15	0	0	0	0	499	603
0	0	0	0	0	499	604
1	0	0	0	0	499	601
2	0	0	0	0	500	603
3	0	0	0	0	500	603
4	0	0	0	0	500	603
5	0	0	0	0	500	605
6	0	0	0	0	501	604
7	0	0	0	0	501	603
8	0	0	0	0	501	603
9	0	0	0	0	501	601
10	0	0	0	0	502	604
11	0	0	0	0	503	604
12	0	0	0	0	503	603
13	0	0	0	0	504	606
14	0	0	0	0	505	603
15	0	0	0	0	506	604
0	0	0	0	0	507	604
1	0	0	0	0	507	601
2	0	0	0	0	507	604
3	0	0	0	0	508	603
4	0	0	0	0	508	604
5	0	0	0	0	508	606
6	0	0	0	0	509	604
7	0	0	0	0	510	604
8	0	0	0	0	511	603
9	0	0	0	0	512	602
10	0	0	0	0	513	603
11	0	0	0	0	514	604
12	0	0	0	0	514	603
13	0	0	0	0	513	605
14	0	0	0	0	514	603
15	0	0	0	0	514	603
0	0	0	0	0	513	603
1	0	0	0	0	513	601
2	0	0	0	0	513	604
3	0	0	0	0	513	603
4	0	0	0	0	512	604
5	0	0	0	0	512	605
6	0	0	0	0	512	603
7	0	0	0	0	512	604
8	0	0	0	0	511	603
9	0	0	0	0	512	602
10	0	0	0	0	512	604
11	0	0	0	0	512	604
12	0	0	0	0	511	603
13	0	0	0	0	510	606
14	0	0	0	0	510	604
15	0	0	0	0	510	603
0	0	0	0	0	510	603
1	0	0	0	0	510	601
2	0	0	0	0	511	603
3	0	0	0	0	511	604
4	0	0	0	0	510	603
5	0	0	0	0	508	606
6	0	0	0	0	507	604
7	0	0	0	0	507	603
8	0	0	0	0	506	604
9	0	0	0	0	506	602
10	0	0	0	0	506	604
11	0	0	0	0	505	603
12	0	0	0	0	504	604
13	0	0	0	0	504	606
14	0	0	0	0	504	604
15	0	0	0	0	503	604
0	0	0	0	0	502	604
1	0	0	0	0	503	602
2	0	0	0	0	504	604
3	0	0	0	0	504	604
4	0	0	0	0	504	604
5	0	0	0	0	505	606
6	0	0	0	0	505	603
7	0	0	0	0	506	604
8	0	0	0	0	507	604
9	0	0	0	0	506	601
10	0	0	0	0	506	604
11	0	0	0	0	506	604
12	0	0	0	0	505	603
13	0	0	0	0	506	606
14	0	0	0	0	506	604
15	0	0	0	0	506	604
0	0	0	0	0	507	604
1	0	0	0	0	507	602
2	0	0	0	0	507	604
3	0	0	0	0	508	604
4	0	0	0	0	507	603
5	0	0	0	0	508	605
6	0	0	0	0	508	604
7	0	0	0	0	508	603
8	0	0	0	0	507	604
9	0	0	0	0	507	601
10	0	0	0	0	506	603
11	0	0	0	0	505	603
12	0	0	0	0	505	603
13	0	0	0	0	504	605
14	0	0	0	0	504	603
15	0	0	0	0	504	603
0	0	0	0	0	503	603
1	0	0	0	0	503	601
2	0	0	0	0	503	603
3	0	0	0	0	504	603
4	0	0	0	0	504	603
5	0	0	0	0	504	604
6	0	0	0	0	503	602
7	0	0	0	0	502	602
8	0	0	0	0	500	603
9	0	0	0	0	499	601
10	0	0	0	0	497	603
11	0	0	0	0	495	602
12	0	0	0	0	492	603
13	0	0	0	0	487	605
14	0	0	0	0	482	603
15	0	0	0	0	476	603
0	0	0	0	0	472	603
1	0	0	0	0	467	601
2	0	0	0	0	464	602
3	0	0	0	0	461	603
4	0	0	0	0	458	603
5	0	0	0	0	457	605
6	0	0	0	0	455	603
7	0	0	0	0	454	603
8	0	0	0	0	452	603
9	0	0	0	0	449	601
10	0	0	0	0	449	604
11	0	0	0	0	449	604
12	0	0	0	0	449	603
13	0	0	0	0	451	606
14	0	0	0	0	455	604
15	0	0	0	0	462	603
0	0	0	0	0	472	604
1	0	0	0	0	485	602
2	0	0	0	0	499	604
3	0	0	0	0	515	604
4	0	0	0	0	532	604
5	0	0	0	0	551	606
6	0	0	0	0	568	604
7	0	0	0	0	585	604
8	0	0	0	0	601	604
9	0	0	0	0	617	602
10	0	0	0	0	631	604
11	0	0	0	0	640	604
12	0	0	0	0	647	604
13	0	0	0	0	652	606
14	0	0	0	0	657	603
15	0	0	0	0	660	603
0	0	0	0	0	660	604
1	0	0	0	0	659	602
2	0	0	0	0	654	604
3	0	0	0	0	648	604
4	0	0	0	0	641	603
5	0	0	0	0	636	606
6	0	0	0	0	633	604
7	0	0	0	0	632	604
8	0	0	0	0	635	604
9	0	0	0	0	640	602
10	0	0	0	0	646	603
11	0	0	0	0	649	604
12	0	0	0	0	645	604
13	0	0	0	0	640	606
14	0	0	0	0	633	604
15	0	0	0	0	624	604
0	0	0	0	0	615	604
1	0	0	0	0	605	602
2	0	0	0	0	595	604
3	0	0	0	0	585	604
4	0	0	0	0	576	604
5	0	0	0	0	569	606
6	0	0	0	0	560	604
7	0	0	0	0	554	604
8	0	0	0	0	549	604
9	0	0	0	0	542	602
10	0	0	0	0	537	604
11	0	0	0	0	533	604
12	0	0	0	0	530	603
13	0	0	0	0	526	606
14	0	0	0	0	523	603
15	0	0	0	0	520	603
0	0	0	0	0	517	603
1	0	0	0	0	514	602
2	0	0	0	0	512	603
3	0	0	0	0	509	604
4	0	0	0	0	506	604
5	0	0	0	0	504	606
6	0	0	0	0	501	604
7	0	0	0	0	499	603
8	0	0	0	0	497	603
9	0	0	0	0	495	600
10	0	0	0	0	494	603
11	0	0	0	0	493	604
12	0	0	0	0	492	604
13	0	0	0	0	492	605
14	0	0	0	0	490	603
15	0	0	0	0	490	603
0	0	0	0	0	489	604
1	0	0	0	0	489	602
2	0	0	0	0	489	603
3	0	0	0	0	490	604
4	0	0	0	0	490	603
5	0	0	0	0	490	605
6	0	0	0	0	490	603
7	0	0	0	0	490	603
8	0	0	0	0	490	604
9	0	0	0	0	491	602
10	0	0	0	0	492	603
11	0	0	0	0	492	604
12	0	0	0	0	492	603
13	0	0	0	0	493	606
14	0	0	0	0	493	604
15	0	0	0	0	493	604
0	0	0	0	0	492	604
1	0	0	0	0	492	602
2	0	0	0	0	492	604
3	0	0	0	0	492	604
4	0	0	0	0	491	604
5	0	0	0	0	491	605
6	0	0	0	0	492	604
7	0	0	0	0	493	604
8	0	0	0	0	493	603
9	0	0	0	0	493	602
10	0	0	0	0	494	604
11	0	0	0	0	494	603
12	0	0	0	0	496	604
13	0	0	0	0	496	605
14	0	0	0	0	497	604
15	0	0	0	0	498	603
0	0	0	0	0	499	603
1	0	0	0	0	500	602
2	0	0	0	0	501	603
3	0	0	0	0	503	603
4	0	0	0	0	504	603
5	0	0	0	0	504	605
6	0	0	0	0	504	603
7	0	0	0	0	504	603
8	0	0	0	0	505	603
9	0	0	0	0	505	601
10	0	0	0	0	505	603
11	0	0	0	0	506	603
12	0	0	0	0	507	602
13	0	0	0	0	508	605
14	0	0	0	0	508	603
15	0	0	0	0	508	603
0	0	0	0	0	510	603
1	0	0	0	0	509	601
2	0	0	0	0	510	603
3	0	0	0	0	510	603
4	0	0	0	0	511	603
5	0	0	0	0	512	605
6	0	0	0	0	512	603
7	0	0	0	0	513	603
8	0	0	0	0	513	603
9	0	0	0	0	513	600
10	0	0	0	0	514	603
11	0	0	0	0	513	602
12	0	0	0	0	513	603
13	0	0	0	0	513	605
14	0	0	0	0	513	603
15	0	0	0	0	513	603
0	0	0	0	0	513	603
1	0	0	0	0	514	601
2	0	0	0	0	514	603
3	0	0	0	0	515	603
4	0	0	0	0	515	603
5	0	0	0	0	516	605
6	0	0	0	0	517	603
7	0	0	0	0	518	603
8	0	0	0	0	519	603
9	0	0	0	0	519	601
10	0	0	0	0	519	603
11	0	0	0	0	520	603
12	0	0	0	0	521	603
13	0	0	0	0	521	606
14	0	0	0	0	521	604
15	0	0	0	0	521	604
0	0	0	0	0	521	603
1	0	0	0	0	521	601
2	0	0	0	0	521	603
3	0	0	0	0	521	604
4	0	0	0	0	522	603
5	0	0	0	0	523	606
6	0	0	0	0	522	604
7	0	0	0	0	522	604
8	0	0	0	0	522	604
9	0	0	0	0	523	602
10	0	0	0	0	523	604
11	0	0	0	0	524	604
12	0	0	0	0	524	604
13	0	0	0	0	523	606
14	0	0	0	0	522	604
15	0	0	0	0	522	604
0	0	0	0	0	522	604
1	0	0	0	0	522	601
2	0	0	0	0	523	604
3	0	0	0	0	522	604
4	0	0	0	0	522	604
5	0	0	0	0	523	606
6	0	0	0	0	523	604
7	0	0	0	0	524	604
8	0	0	0	0	525	604
9	0	0	0	0	525	602
10	0	0	0	0	526	603
11	0	0	0	0	525	604
12	0	0	0	0	525	603
13	0	0	0	0	525	605
14	0	0	0	0	525	603
15	0	0	0	0	525	603
0	0	0	0	0	524	603
1	0	0	0	0	524	601
2	0	0	0	0	523	603
3	0	0	0	0	524	603
4	0	0	0	0	523	603
5	0	0	0	0	523	605
6	0	0	0	0	523	603
7	0	0	0	0	522	603
8	0	0	0	0	521	603
9	0	0	0	0	521	601
10	0	0	0	0	520	603
11	0	0	0	0	520	603
12	0	0	0	0	519	603
13	0	0	0	0	519	605
14	0	0	0	0	519	603
15	0	0	0	0	519	603
0	0	0	0	0	519	603
1	0	0	0	0	519	601
2	0	0	0	0	519	603
3	0	0	0	0	519	604
4	0	0	0	0	519	603
5	0	0	0	0	520	606
6	0	0	0	0	519	603
7	0	0	0	0	519	604
8	0	0	0	0	520	603
9	0	0	0	0	519	601
10	0	0	0	0	521	603
11	0	0	0	0	520	603
12	0	0	0	0	520	603
13	0	0	0	0	519	605
14	0	0	0	0	519	603
15	0	0	0	0	519	603
0	0	0	0	0	519	604
1	0	0	0	0	518	602
2	0	0	0	0	518	604
3	0	0	0	0	518	603
4	0	0	0	0	519	604
5	0	0	0	0	519	606
6	0	0	0	0	520	604
7	0	0	0	0	521	604
8	0	0	0	0	522	604
9	0	0	0	0	523	602
10	0	0	0	0	524	604
11	0	0	0	0	525	604
12	0	0	0	0	526	604
13	0	0	0	0	527	606
14	0	0	0	0	528	604
15	0	0	0	0	529	604
0	0	0	0	0	531	604
1	0	0	0	0	531	602
2	0	0	0	0	530	604
3	0	0	0	0	531	604
4	0	0	0	0	531	604
5	0	0	0	0	532	606
6	0	0	0	0	531	603
7	0	0	0	0	531	604
8	0	0	0	0	532	603
9	0	0	0	0	531	601
10	0	0	0	0	531	604
11	0	0	0	0	531	603
12	0	0	0	0	530	603
13	0	0	0	0	531	605
14	0	0	0	0	531	603
15	0	0	0	0	531	604
0	0	0	0	0	531	604
1	0	0	0	0	530	601
2	0	0	0	0	530	604
3	0	0	0	0	530	603
4	0	0	0	0	530	603
5	0	0	0	0	530	605
6	0	0	0	0	529	603
7	0	0	0	0	529	604
8	0	0	0	0	528	604
9	0	0	0	0	528	602
10	0	0	0	0	528	603
11	0	0	0	0	527	603
12	0	0	0	0	527	603
13	0	0	0	0	526	605
14	0	0	0	0	526	603
15	0	0	0	0	525	603
0	0	0	0	0	524	603
1	0	0	0	0	524	601
2	0	0	0	0	523	603
3	0	0	0	0	522	602
4	0	0	0	0	521	602
5	0	0	0	0	521	605
6	0	0	0	0	520	602
7	0	0	0	0	519	603
8	0	0	0	0	518	603
9	0	0	0	0	516	601
10	0	0	0	0	515	603
11	0	0	0	0	515	602
12	0	0	0	0	514	603
13	0	0	0	0	513	605
14	0	0	0	0	512	602
15	0	0	0	0	512	602
0	0	0	0	0	511	603
1	0	0	0	0	510	600
2	0	0	0	0	509	603
3	0	0	0	0	508	602
4	0	0	0	0	507	602
5	0	0	0	0	507	605
6	0	0	0	0	507	603
7	0	0	0	0	507	603
8	0	0	0	0	507	603
9	0	0	0	0	508	601
10	0	0	0	0	508	603
11	0	0	0	0	508	603
12	0	0	0	0	509	603
13	0	0	0	0	510	605
14	0	0	0	0	510	603
15	0	0	0	0	511	603
0	0	0	0	0	511	604
1	0	0	0	0	511	601
2	0	0	0	0	511	603
3	0	0	0	0	511	603
4	0	0	0	0	511	603
5	0	0	0	0	511	605
6	0	0	0	0	511	603
7	0	0	0	0	511	603
8	0	0	0	0	511	603
9	0	0	0	0	512	601
10	0	0	0	0	512	603
11	0	0	0	0	512	603
12	0	0	0	0	512	604
13	0	0	0	0	513	606
14	0	0	0	0	513	604
15	0	0	0	0	514	604
0	0	0	0	0	515	604
1	0	0	0	0	515	601
2	0	0	0	0	516	604
3	0	0	0	0	517	603
4	0	0	0	0	516	604
5	0	0	0	0	517	606
6	0	0	0	0	516	604
7	0	0	0	0	515	604
8	0	0	0	0	514	604
9	0	0	0	0	513	602
10	0	0	0	0	513	604
11	0	0	0	0	513	604
12	0	0	0	0	513	604
13	0	0	0	0	513	606
14	0	0	0	0	512	604
15	0	0	0	0	513	604
0	0	0	0	0	513	604
1	0	0	0	0	513	603
2	0	0	0	0	513	604
3	0	0	0	0	513	604
4	0	0	0	0	513	604
5	0	0	0	0	513	606
6	0	0	0	0	512	604
7	0	0	0	0	512	604
8	0	0	0	0	512	604
9	0	0	0	0	512	601
10	0	0	0	0	512	604
11	0	0	0	0	511	604
12	0	0	0	0	511	604
13	0	0	0	0	511	606
14	0	0	0	0	512	604
15	0	0	0	0	512	603
0	0	0	0	0	512	603
1	0	0	0	0	512	602
2	0	0	0	0	512	604
3	0	0	0	0	512	604
4	0	0	0	0	511	604
5	0	0	0	0	511	606
6	0	0	0	0	511	604
7	0	0	0	0	510	603
8	0	0	0	0	510	603
9	0	0	0	0	509	602
10	0	0	0	0	508	604
11	0	0	0	0	508	604
12	0	0	0	0	508	603
13	0	0	0	0	508	606
14	0	0	0	0	509	603
15	0	0	0	0	508	604
0	0	0	0	0	509	603
1	0	0	0	0	510	601
2	0	0	0	0	510	603
3	0	0	0	0	509	603
4	0	0	0	0	508	603
5	0	0	0	0	508	606
6	0	0	0	0	507	603
7	0	0	0	0	507	603
8	0	0	0	0	507	603
9	0	0	0	0	507	601
10	0	0	0	0	506	603
11	0	0	0	0	505	604
12	0	0	0	0	505	603
13	0	0	0	0	505	606
14	0	0	0	0	504	603
15	0	0	0	0	504	603
0	0	0	0	0	504	604
1	0	0	0	0	504	601
2	0	0	0	0	504	603
3	0	0	0	0	503	603
4	0	0	0	0	503	603
5	0	0	0	0	502	605
6	0	0	0	0	502	603
7	0	0	0	0	502	603
8	0	0	0	0	503	603
9	0	0	0	0	502	601
10	0	0	0	0	503	603
11	0	0	0	0	503	603
12	0	0	0	0	503	603
13	0	0	0	0	502	605
14	0	0	0	0	502	603
15	0	0	0	0	503	603
0	0	0	0	0	503	603
1	0	0	0	0	503	601
2	0	0	0	0	503	603
3	0	0	0	0	503	603
4	0	0	0	0	503	603
5	0	0	0	0	502	605
6	0	0	0	0	502	603
7	0	0	0	0	503	603
8	0	0	0	0	503	603
9	0	0	0	0	502	601
10	0	0	0	0	502	603
11	0	0	0	0	501	603
12	0	0	0	0	503	603
13	0	0	0	0	503	605
14	0	0	0	0	503	603
15	0	0	0	0	503	603
0	0	0	0	0	504	603
1	0	0	0	0	504	601
2	0	0	0	0	504	603
3	0	0	0	0	504	603
4	0	0	0	0	504	604
5	0	0	0	0	504	605
6	0	0	0	0	503	603
7	0	0	0	0	502	604
8	0	0	0	0	502	603
9	0	0	0	0	501	601
10	0	0	0	0	500	603
11	0	0	0	0	500	604
12	0	0	0	0	499	603
13	0	0	0	0	498	605
14	0	0	0	0	498	603
15	0	0	0	0	497	603
0	0	0	0	0	497	603
1	0	0	0	0	498	601
2	0	0	0	0	498	603
3	0	0	0	0	498	603
4	0	0	0	0	497	602
5	0	0	0	0	497	605
6	0	0	0	0	498	603
7	0	0	0	0	497	602
8	0	0	0	0	497	603
9	0	0	0	0	497	601
10	0	0	0	0	497	603
11	0	0	0	0	497	603
12	0	0	0	0	498	603
13	0	0	0	0	497	605
14	0	0	0	0	497	603
15	0	0	0	0	497	603
0	0	0	0	0	497	603
1	0	0	0	0	497	601
2	0	0	0	0	497	603
3	0	0	0	0	496	603
4	0	0	0	0	496	603
5	0	0	0	0	496	605
6	0	0	0	0	495	603
7	0	0	0	0	495	603
8	0	0	0	0	495	603
9	0	0	0	0	495	601
10	0	0	0	0	495	603
11	0	0	0	0	494	603
12	0	0	0	0	495	603
13	0	0	0	0	494	605
14	0	0	0	0	495	603
15	0	0	0	0	495	603
0	0	0	0	0	495	604
1	0	0	0	0	494	602
2	0	0	0	0	493	604
3	0	0	0	0	493	603
4	0	0	0	0	493	603
5	0	0	0	0	492	605
6	0	0	0	0	492	603
7	0	0	0	0	492	603
8	0	0	0	0	491	604
9	0	0	0	0	492	602
10	0	0	0	0	491	603
11	0	0	0	0	492	603
12	0	0	0	0	493	604
13	0	0	0	0	492	606
14	0	0	0	0	494	603
15	0	0	0	0	494	604
0	0	0	0	0	495	604
1	0	0	0	0	494	602
2	0	0	0	0	495	603
3	0	0	0	0	495	604
4	0	0	0	0	495	604
5	0	0	0	0	495	606
6	0	0	0	0	496	604
7	0	0	0	0	496	604
8	0	0	0	0	496	604
9	0	0	0	0	496	602
10	0	0	0	0	496	604
11	0	0	0	0	496	604
12	0	0	0	0	496	604
13	0	0	0	0	496	606
14	0	0	0	0	495	604
15	0	0	0	0	496	604
0	0	0	0	0	496	604
1	0	0	0	0	496	603
2	0	0	0	0	496	604
3	0	0	0	0	496	604
4	0	0	0	0	496	605
5	0	0	0	0	497	606
6	0	0	0	0	497	604
7	0	0	0	0	497	605
8	0	0	0	0	497	604
9	0	0	0	0	499	603
10	0	0	0	0	500	604
11	0	0	0	0	499	604
12	0	0	0	0	499	604
13	0	0	0	0	499	606
14	0	0	0	0	498	604
15	0	0	0	0	499	604
0	0	0	0	0	498	603
1	0	0	0	0	497	602
2	0	0	0	0	497	604
3	0	0	0	0	497	604
4	0	0	0	0	496	603
5	0	0	0	0	496	606
6	0	0	0	0	496	604
7	0	0	0	0	496	603
8	0	0	0	0	496	604
9	0	0	0	0	496	601
10	0	0	0	0	496	604
11	0	0	0	0	497	604
12	0	0	0	0	497	604
13	0	0	0	0	497	606
14	0	0	0	0	497	604
15	0	0	0	0	497	604
0	0	0	0	0	497	604
1	0	0	0	0	497	601
2	0	0	0	0	497	603
3	0	0	0	0	496	603
4	0	0	0	0	496	603
5	0	0	0	0	496	606
6	0	0	0	0	496	603
7	0	0	0	0	496	603
8	0	0	0	0	496	603
9	0	0	0	0	496	601
10	0	0	0	0	497	604
11	0	0	0	0	497	604
12	0	0	0	0	498	603
13	0	0	0	0	498	606
14	0	0	0	0	499	604
15	0	0	0	0	498	604
0	0	0	0	0	497	604
1	0	0	0	0	495	601
2	0	0	0	0	495	604
3	0	0	0	0	495	604
4	0	0	0	0	495	604
5	0	0	0	0	495	606
6	0	0	0	0	496	604
7	0	0	0	0	496	603
8	0	0	0	0	496	604
9	0	0	0	0	496	601
10	0	0	0	0	496	604
11	0	0	0	0	496	603
12	0	0	0	0	496	603
13	0	0	0	0	496	605
14	0	0	0	0	496	603
15	0	0	0	0	496	603
0	0	0	0	0	496	603
1	0	0	0	0	496	601
2	0	0	0	0	495	603
3	0	0	0	0	496	603
4	0	0	0	0	496	603
5	0	0	0	0	496	605
6	0	0	0	0	496	602
7	0	0	0	0	496	603
8	0	0	0	0	497	603
9	0	0	0	0	497	600
10	0	0	0	0	497	603
11	0	0	0	0	497	603
12	0	0	0	0	496	603
13	0	0	0	0	496	605
14	0	0	0	0	496	603
15	0	0	0	0	496	603
0	0	0	0	0	496	603
1	0	0	0	0	497	601
2	0	0	0	0	497	603
3	0	0	0	0	496	603
4	0	0	0	0	496	603
5	0	0	0	0	496	605
6	0	0	0	0	497	603
7	0	0	0	0	497	603
8	0	0	0	0	497	602
9	0	0	0	0	499	601
10	0	0	0	0	499	603
11	0	0	0	0	499	603
12	0	0	0	0	499	603
13	0	0	0	0	500	605
14	0	0	0	0	501	603
15	0	0	0	0	500	603
0	0	0	0	0	500	603
1	0	0	0	0	500	601
2	0	0	0	0	499	603
3	0	0	0	0	498	603
4	0	0	0	0	497	603
5	0	0	0	0	497	605
6	0	0	0	0	497	603
7	0	0	0	0	497	603
8	0	0	0	0	497	603
9	0	0	0	0	497	601
10	0	0	0	0	497	603
11	0	0	0	0	497	603
12	0	0	0	0	497	604
13	0	0	0	0	497	606
14	0	0	0	0	496	603
15	0	0	0	0	496	603
0	0	0	0	0	496	603
1	0	0	0	0	496	601
2	0	0	0	0	496	603
3	0	0	0	0	497	604
4	0	0	0	0	497	604
5	0	0	0	0	498	606
6	0	0	0	0	499	604
7	0	0	0	0	499	603
8	0	0	0	0	499	604
9	0	0	0	0	498	602
10	0	0	0	0	498	604
11	0	0	0	0	497	604
12	0	0	0	0	497	604
13	0	0	0	0	497	606
14	0	0	0	0	497	604
15	0	0	0	0	497	604
0	0	0	0	0	497	603
1	0	0	0	0	497	602
2	0	0	0	0	497	604
3	0	0	0	0	497	603
4	0	0	0	0	496	603
5	0	0	0	0	496	606
6	0	0	0	0	495	603
7	0	0	0	0	494	604
8	0	0	0	0	493	603
9	0	0	0	0	494	602
10	0	0	0	0	493	603
11	0	0	0	0	493	603
12	0	0	0	0	494	604
13	0	0	0	0	493	605
14	0	0	0	0	494	604
15	0	0	0	0	495	604
0	0	0	0	0	496	604
1	0	0	0	0	498	602
2	0	0	0	0	499	604
3	0	0	0	0	500	603
4	0	0	0	0	501	603
5	0	0	0	0	501	606
6	0	0	0	0	502	604
7	0	0	0	0	503	603
8	0	0	0	0	504	603
9	0	0	0	0	505	602
10	0	0	0	0	506	603
11	0	0	0	0	507	604
12	0	0	0	0	508	603
13	0	0	0	0	509	606
14	0	0	0	0	510	604
15	0	0	0	0	511	603
0	0	0	0	0	512	604
1	0	0	0	0	512	601
2	0	0	0	0	512	604
3	0	0	0	0	512	604
4	0	0	0	0	512	603
5	0	0	0	0	512	606
6	0	0	0	0	512	603
7	0	0	0	0	513	603
8	0	0	0	0	513	604
9	0	0	0	0	513	601
10	0	0	0	0	513	604
11	0	0	0	0	513	603
12	0	0	0	0	513	603
13	0	0	0	0	513	605
14	0	0	0	0	513	603
15	0	0	0	0	514	603
0	0	0	0	0	514	603
1	0	0	0	0	515	601
2	0	0	0	0	515	603
3	0	0	0	0	516	603
4	0	0	0	0	517	603
5	0	0	0	0	518	605
6	0	0	0	0	519	603
7	0	0	0	0	518	603
8	0	0	0	0	518	603
9	0	0	0	0	518	600
10	0	0	0	0	517	603
11	0	0	0	0	517	603
12	0	0	0	0	516	602
13	0	0	0	0	516	604
14	0	0	0	0	515	603
15	0	0	0	0	515	603
0	0	0	0	0	515	603
1	0	0	0	0	515	601
2	0	0	0	0	515	604
3	0	0	0	0	515	604
4	0	0	0	0	515	603
5	0	0	0	0	515	605
6	0	0	0	0	514	603
7	0	0	0	0	514	604
8	0	0	0	0	514	604
9	0	0	0	0	515	601
10	0	0	0	0	515	604
11	0	0	0	0	514	603
12	0	0	0	0	513	603
13	0	0	0	0	513	606
14	0	0	0	0	513	603
15	0	0	0	0	514	603
0	0	0	0	0	513	603
1	0	0	0	0	515	601
2	0	0	0	0	514	603
3	0	0	0	0	514	604
4	0	0	0	0	515	604
5	0	0	0	0	515	606
6	0	0	0	0	515	603
7	0	0	0	0	514	604
8	0	0	0	0	513	603
9	0	0	0	0	513	602
10	0	0	0	0	513	604
11	0	0	0	0	515	604
12	0	0	0	0	514	604
13	0	0	0	0	514	606
14	0	0	0	0	515	604
15	0	0	0	0	515	604
0	0	0	0	0	515	604
1	0	0	0	0	515	602
2	0	0	0	0	513	603
3	0	0	0	0	513	604
4	0	0	0	0	512	604
5	0	0	0	0	512	606
6	0	0	0	0	512	604
7	0	0	0	0	512	604
8	0	0	0	0	512	604
9	0	0	0	0	511	602
10	0	0	0	0	511	604
11	0	0	0	0	509	604
12	0	0	0	0	508	604
13	0	0	0	0	506	606
14	0	0	0	0	503	603
15	0	0	0	0	500	603
0	0	0	0	0	495	604
1	0	0	0	0	490	602
2	0	0	0	0	484	604
3	0	0	0	0	478	604
4	0	0	0	0	473	603
5	0	0	0	0	468	606
6	0	0	0	0	464	603
7	0	0	0	0	461	603
8	0	0	0	0	459	603
9	0	0	0	0	455	601
10	0	0	0	0	454	603
11	0	0	0	0	451	602
12	0	0	0	0	449	603
13	0	0	0	0	447	605
14	0	0	0	0	447	603
15	0	0	0	0	447	603
0	0	0	0	0	448	602
1	0	0	0	0	451	600
2	0	0	0	0	459	602
3	0	0	0	0	468	602
4	0	0	0	0	481	602
5	0	0	0	0	496	605
6	0	0	0	0	512	602
7	0	0	0	0	529	602
8	0	0	0	0	549	603
9	0	0	0	0	568	600
10	0	0	0	0	585	602
11	0	0	0	0	604	602
12	0	0	0	0	620	602
13	0	0	0	0	635	604
14	0	0	0	0	644	602
15	0	0	0	0	652	602
0	0	0	0	0	659	602
1	0	0	0	0	665	600
2	0	0	0	0	670	602
3	0	0	0	0	671	603
4	0	0	0	0	669	602
5	0	0	0	0	665	605
6	0	0	0	0	658	603
7	0	0	0	0	652	603
8	0	0	0	0	647	603
9	0	0	0	0	643	601
10	0	0	0	0	641	603
11	0	0	0	0	641	603
12	0	0	0	0	645	603
13	0	0	0	0	649	605
14	0	0	0	0	652	603
15	0	0	0	0	648	603
0	0	0	0	0	641	604
1	0	0	0	0	633	602
2	0	0	0	0	624	603
3	0	0	0	0	612	602
4	0	0	0	0	601	603
5	0	0	0	0	590	605
6	0	0	0	0	578	604
7	0	0	0	0	568	604
8	0	0	0	0	558	603
9	0	0	0	0	550	601
10	0	0	0	0	542	603
11	0	0	0	0	536	604
12	0	0	0	0	529	604
13	0	0	0	0	524	606
14	0	0	0	0	519	604
15	0	0	0	0	515	604
0	0	0	0	0	511	604
1	0	0	0	0	507	601
2	0	0	0	0	503	603
3	0	0	0	0	499	603
4	0	0	0	0	497	604
5	0	0	0	0	494	607
6	0	0	0	0	490	604
7	0	0	0	0	487	603
8	0	0	0	0	486	604
9	0	0	0	0	482	602
10	0	0	0	0	480	604
11	0	0	0	0	477	604
12	0	0	0	0	476	604
13	0	0	0	0	475	607
14	0	0	0	0	474	604
15	0	0	0	0	473	604
0	0	0	0	0	471	604
1	0	0	0	0	471	603
2	0	0	0	0	470	604
3	0	0	0	0	470	604
4	0	0	0	0	469	604
5	0	0	0	0	468	606
6	0	0	0	0	466	604
7	0	0	0	0	466	604
8	0	0	0	0	465	603
9	0	0	0	0	465	602
10	0	0	0	0	465	603
11	0	0	0	0	464	603
12	0	0	0	0	465	604
13	0	0	0	0	464	606
14	0	0	0	0	464	603
15	0	0	0	0	464	603
0	0	0	0	0	464	603
1	0	0	0	0	465	602
2	0	0	0	0	465	603
3	0	0	0	0	466	603
4	0	0	0	0	466	603
5	0	0	0	0	466	605
6	0	0	0	0	467	604
7	0	0	0	0	466	603
8	0	0	0	0	466	604
9	0	0	0	0	467	601
10	0	0	0	0	467	603
11	0	0	0	0	468	603
12	0	0	0	0	469	603
13	0	0	0	0	470	605
14	0	0	0	0	471	603
15	0	0	0	0	471	603
0	0	0	0	0	471	603
1	0	0	0	0	472	601
2	0	0	0	0	471	603
3	0	0	0	0	471	603
4	0	0	0	0	471	603
5	0	0	0	0	471	606
6	0	0	0	0	471	603
7	0	0	0	0	471	604
8	0	0	0	0	471	604
9	0	0	0	0	471	601
10	0	0	0	0	472	603
11	0	0	0	0	472	603
12	0	0	0	0	473	603
13	0	0	0	0	473	606
14	0	0	0	0	473	603
15	0	0	0	0	474	603
0	0	0	0	0	474	603
1	0	0	0	0	473	601
2	0	0	0	0	474	603
3	0	0	0	0	475	602
4	0	0	0	0	476	603
5	0	0	0	0	476	605
6	0	0	0	0	476	603
7	0	0	0	0	478	603
8	0	0	0	0	478	603
9	0	0	0	0	479	601
10	0	0	0	0	479	603
11	0	0	0	0	479	603
12	0	0	0	0	479	603
13	0	0	0	0	479	605
14	0	0	0	0	479	603
15	0	0	0	0	478	603
0	0	0	0	0	479	603
1	0	0	0	0	479	601
2	0	0	0	0	479	603
3	0	0	0	0	479	603
4	0	0	0	0	480	603
5	0	0	0	0	480	605
6	0	0	0	0	480	604
7	0	0	0	0	481	604
8	0	0	0	0	481	604
9	0	0	0	0	482	602
10	0	0	0	0	482	604
11	0	0	0	0	483	603
12	0	0	0	0	483	604
13	0	0	0	0	484	606
14	0	0	0	0	484	603
15	0	0	0	0	486	604
0	0	0	0	0	486	604
1	0	0	0	0	486	601
2	0	0	0	0	487	604
3	0	0	0	0	488	603
4	0	0	0	0	488	603
5	0	0	0	0	487	605
6	0	0	0	0	488	603
7	0	0	0	0	489	603
8	0	0	0	0	489	603
9	0	0	0	0	489	602
10	0	0	0	0	489	603
11	0	0	0	0	489	603
12	0	0	0	0	489	603
13	0	0	0	0	489	606
14	0	0	0	0	489	603
15	0	0	0	0	490	603
0	0	0	0	0	489	603
1	0	0	0	0	489	602
2	0	0	0	0	489	603
3	0	0	0	0	489	604
4	0	0	0	0	489	603
5	0	0	0	0	489	606
6	0	0	0	0	489	603
7	0	0	0	0	489	604
8	0	0	0	0	490	603
9	0	0	0	0	490	601
10	0	0	0	0	490	603
11	0	0	0	0	490	604
12	0	0	0	0	491	604
13	0	0	0	0	492	606
14	0	0	0	0	492	603
15	0	0	0	0	492	603
0	0	0	0	0	492	604
1	0	0	0	0	492	602
2	0	0	0	0	493	604
3	0	0	0	0	495	604
4	0	0	0	0	495	603
5	0	0	0	0	496	606
6	0	0	0	0	496	603
7	0	0	0	0	497	603
8	0	0	0	0	497	603
9	0	0	0	0	496	601
10	0	0	0	0	495	604
11	0	0	0	0	494	604
12	0	0	0	0	495	604
13	0	0	0	0	496	606
14	0	0	0	0	496	604
15	0	0	0	0	496	604
0	0	0	0	0	496	604
1	0	0	0	0	497	602
2	0	0	0	0	499	604
3	0	0	0	0	498	603
4	0	0	0	0	499	603
5	0	0	0	0	499	605
6	0	0	0	0	500	604
7	0	0	0	0	500	603
8	0	0	0	0	501	604
9	0	0	0	0	502	602
10	0	0	0	0	502	603
11	0	0	0	0	503	604
12	0	0	0	0	503	603
13	0	0	0	0	503	606
14	0	0	0	0	503	603
15	0	0	0	0	503	603
0	0	0	0	0	504	603
1	0	0	0	0	504	602
2	0	0	0	0	504	603
3	0	0	0	0	505	603
4	0	0	0	0	504	603
5	0	0	0	0	504	606
6	0	0	0	0	504	604
7	0	0	0	0	503	603
8	0	0	0	0	504	604
9	0	0	0	0	504	602
10	0	0	0	0	505	604
11	0	0	0	0	506	603
12	0	0	0	0	506	604
13	0	0	0	0	507	606
14	0	0	0	0	508	603
15	0	0	0	0	509	603
0	0	0	0	0	510	603
1	0	0	0	0	511	601
2	0	0	0	0	512	603
3	0	0	0	0	512	603
4	0	0	0	0	513	603
5	0	0	0	0	514	605
6	0	0	0	0	515	603
7	0	0	0	0	515	602
8	0	0	0	0	516	603
9	0	0	0	0	516	601
10	0	0	0	0	517	603
11	0	0	0	0	518	603
12	0	0	0	0	518	603
13	0	0	0	0	518	605
14	0	0	0	0	519	603
15	0	0	0	0	519	603
0	0	0	0	0	520	603
1	0	0	0	0	521	601
2	0	0	0	0	521	603
3	0	0	0	0	522	603
4	0	0	0	0	522	603
5	0	0	0	0	521	605
6	0	0	0	0	521	603
7	0	0	0	0	520	603
8	0	0	0	0	520	603
9	0	0	0	0	519	601
10	0	0	0	0	519	603
11	0	0	0	0	519	603
12	0	0	0	0	519	603
13	0	0	0	0	520	605
14	0	0	0	0	519	603
15	0	0	0	0	519	604
0	0	0	0	0	519	603
1	0	0	0	0	517	601
2	0	0	0	0	516	603
3	0	0	0	0	516	603
4	0	0	0	0	514	602
5	0	0	0	0	513	605
6	0	0	0	0	513	603
7	0	0	0	0	513	603
8	0	0	0	0	512	603
9	0	0	0	0	512	601
10	0	0	0	0	511	603
11	0	0	0	0	510	603
12	0	0	0	0	510	603
13	0	0	0	0	510	605
14	0	0	0	0	509	603
15	0	0	0	0	509	603
0	0	0	0	0	508	603
1	0	0	0	0	508	602
2	0	0	0	0	508	603
3	0	0	0	0	508	604
4	0	0	0	0	508	604
5	0	0	0	0	507	606
6	0	0	0	0	507	603
7	0	0	0	0	507	603
8	0	0	0	0	507	603
9	0	0	0	0	508	601
10	0	0	0	0	508	603
11	0	0	0	0	510	604
12	0	0	0	0	509	604
13	0	0	0	0	509	606
14	0	0	0	0	509	604
15	0	0	0	0	509	604
0	0	0	0	0	510	604
1	0	0	0	0	510	602
2	0	0	0	0	511	604
3	0	0	0	0	511	604
4	0	0	0	0	511	604
5	0	0	0	0	511	606
6	0	0	0	0	511	604
7	0	0	0	0	511	604
8	0	0	0	0	512	604
9	0	0	0	0	512	601
10	0	0	0	0	512	604
11	0	0	0	0	512	604
12	0	0	0	0	513	604
13	0	0	0	0	514	606
14	0	0	0	0	514	604
15	0	0	0	0	515	604
0	0	0	0	0	515	603
1	0	0	0	0	515	601
2	0	0	0	0	516	604
3	0	0	0	0	515	603
4	0	0	0	0	516	604
5	0	0	0	0	516	605
6	0	0	0	0	516	603
7	0	0	0	0	516	604
8	0	0	0	0	516	604
9	0	0	0	0	516	601
10	0	0	0	0	516	603
11	0	0	0	0	515	603
12	0	0	0	0	516	604
13	0	0	0	0	515	606
14	0	0	0	0	515	604
15	0	0	0	0	516	604
0	0	0	0	0	516	603
1	0	0	0	0	516	602
2	0	0	0	0	516	603
3	0	0	0	0	517	603
4	0	0	0	0	517	604
5	0	0	0	0	518	606
6	0	0	0	0	518	604
7	0	0	0	0	519	603
8	0	0	0	0	519	604
9	0	0	0	0	519	602
10	0	0	0	0	519	604
11	0	0	0	0	520	604
12	0	0	0	0	519	604
13	0	0	0	0	520	606
14	0	0	0	0	519	604
15	0	0	0	0	519	604
0	0	0	0	0	519	604
1	0	0	0	0	519	601
2	0	0	0	0	519	604
3	0	0	0	0	519	603
4	0	0	0	0	519	603
5	0	0	0	0	519	606
6	0	0	0	0	519	603
7	0	0	0	0	519	603
8	0	0	0	0	520	603
9	0	0	0	0	520	601
10	0	0	0	0	521	604
11	0	0	0	0	520	604
12	0	0	0	0	521	604
13	0	0	0	0	521	606
14	0	0	0	0	521	603
15	0	0	0	0	521	604
0	0	0	0	0	521	604
1	0	0	0	0	521	602
2	0	0	0	0	522	604
3	0	0	0	0	521	603
4	0	0	0	0	521	603
5	0	0	0	0	521	605
6	0	0	0	0	521	603
7	0	0	0	0	521	603
8	0	0	0	0	522	603
9	0	0	0	0	522	601
10	0	0	0	0	521	603
11	0	0	0	0	521	604
12	0	0	0	0	521	603
13	0	0	0	0	522	606
14	0	0	0	0	523	603
15	0	0	0	0	523	603
0	0	0	0	0	522	603
1	0	0	0	0	521	601
2	0	0	0	0	521	603
3	0	0	0	0	520	603
4	0	0	0	0	521	603
5	0	0	0	0	521	606
6	0	0	0	0	521	604
7	0	0	0	0	521	604
8	0	0	0	0	521	604
9	0	0	0	0	521	601
10	0	0	0	0	521	604
11	0	0	0	0	521	604
12	0	0	0	0	521	604
13	0	0	0	0	521	606
14	0	0	0	0	521	604
15	0	0	0	0	521	604
0	0	0	0	0	522	603
1	0	0	0	0	522	601
2	0	0	0	0	523	604
3	0	0	0	0	523	603
4	0	0	0	0	523	604
5	0	0	0	0	523	606
6	0	0	0	0	523	603
7	0	0	0	0	523	603
8	0	0	0	0	523	604
9	0	0	0	0	524	601
10	0	0	0	0	524	604
11	0	0	0	0	524	603
12	0	0	0	0	524	604
13	0	0	0	0	523	605
14	0	0	0	0	523	604
15	0	0	0	0	522	604
0	0	0	0	0	522	604
1	0	0	0	0	522	602
2	0	0	0	0	523	604
3	0	0	0	0	523	604
4	0	0	0	0	523	603
5	0	0	0	0	523	606
6	0	0	0	0	524	603
7	0	0	0	0	524	603
8	0	0	0	0	524	603
9	0	0	0	0	524	601
10	0	0	0	0	523	603
11	0	0	0	0	523	603
12	0	0	0	0	523	603
13	0	0	0	0	523	605
14	0	0	0	0	522	603
15	0	0	0	0	521	602
0	0	0	0	0	521	603
1	0	0	0	0	521	600
2	0	0	0	0	521	603
3	0	0	0	0	520	603
4	0	0	0	0	520	603
5	0	0	0	0	520	604
6	0	0	0	0	519	602
7	0	0	0	0	519	602
8	0	0	0	0	519	603
9	0	0	0	0	520	600
10	0	0	0	0	520	603
11	0	0	0	0	520	603
12	0	0	0	0	519	603
13	0	0	0	0	519	605
14	0	0	0	0	518	603
15	0	0	0	0	518	603
0	0	0	0	0	517	602
1	0	0	0	0	517	601
2	0	0	0	0	517	603
3	0	0	0	0	517	603
4	0	0	0	0	516	603
5	0	0	0	0	516	605
6	0	0	0	0	517	603
7	0	0	0	0	516	603
8	0	0	0	0	516	603
9	0	0	0	0	516	601
10	0	0	0	0	516	603
11	0	0	0	0	517	603
12	0	0	0	0	516	604
13	0	0	0	0	515	605
14	0	0	0	0	515	604
15	0	0	0	0	515	604
0	0	0	0	0	515	603
1	0	0	0	0	515	601
2	0	0	0	0	516	604
3	0	0	0	0	516	604
4	0	0	0	0	516	604
5	0	0	0	0	516	606
6	0	0	0	0	516	604
7	0	0	0	0	517	604
8	0	0	0	0	516	604
9	0	0	0	0	516	602
10	0	0	0	0	516	604
11	0	0	0	0	516	604
12	0	0	0	0	516	603
13	0	0	0	0	515	606
14	0	0	0	0	515	604
15	0	0	0	0	516	603
0	0	0	0	0	516	604
1	0	0	0	0	517	602
2	0	0	0	0	517	604
3	0	0	0	0	515	604
4	0	0	0	0	516	604
5	0	0	0	0	516	606
6	0	0	0	0	516	604
7	0	0	0	0	517	604
8	0	0	0	0	517	603
9	0	0	0	0	518	602
10	0	0	0	0	518	604
11	0	0	0	0	518	604
12	0	0	0	0	519	603
13	0	0	0	0	519	606
14	0	0	0	0	518	604
15	0	0	0	0	517	604
0	0	0	0	0	517	604
1	0	0	0	0	517	602
2	0	0	0	0	517	604
3	0	0	0	0	516	604
4	0	0	0	0	516	604
5	0	0	0	0	516	606
6	0	0	0	0	516	604
7	0	0	0	0	516	604
8	0	0	0	0	516	604
9	0	0	0	0	516	601
10	0	0	0	0	517	604
11	0	0	0	0	516	604
12	0	0	0	0	516	604
13	0	0	0	0	517	606
14	0	0	0	0	516	604
15	0	0	0	0	516	603
0	0	0	0	0	517	603
1	0	0	0	0	517	601
2	0	0	0	0	517	603
3	0	0	0	0	517	603
4	0	0	0	0	517	602
5	0	0	0	0	518	605
6	0	0	0	0	518	602
7	0	0	0	0	517	603
8	0	0	0	0	517	603
9	0	0	0	0	517	600
10	0	0	0	0	518	603
11	0	0	0	0	518	603
12	0	0	0	0	519	603
13	0	0	0	0	519	605
14	0	0	0	0	519	603
15	0	0	0	0	520	603
0	0	0	0	0	519	603
1	0	0	0	0	519	601
2	0	0	0	0	519	603
3	0	0	0	0	519	603
4	0	0	0	0	519	603
5	0	0	0	0	519	606
6	0	0	0	0	519	603
7	0	0	0	0	519	603
8	0	0	0	0	519	603
9	0	0	0	0	519	601
10	0	0	0	0	519	603
11	0	0	0	0	518	603
12	0	0	0	0	518	603
13	0	0	0	0	518	606
14	0	0	0	0	518	604
15	0	0	0	0	518	604
0	0	0	0	0	518	604
1	0	0	0	0	518	602
2	0	0	0	0	518	603
3	0	0	0	0	518	604
4	0	0	0	0	518	603
5	0	0	0	0	517	605
6	0	0	0	0	516	603
7	0	0	0	0	517	603
8	0	0	0	0	516	604
9	0	0	0	0	516	601
10	0	0	0	0	516	604
11	0	0	0	0	517	604
12	0	0	0	0	516	603
13	0	0	0	0	517	606
14	0	0	0	0	518	604
15	0	0	0	0	518	604
0	0	0	0	0	518	603
1	0	0	0	0	518	601
2	0	0	0	0	518	603
3	0	0	0	0	519	603
4	0	0	0	0	519	603
5	0	0	0	0	519	606
6	0	0	0	0	519	604
7	0	0	0	0	519	604
8	0	0	0	0	519	604
9	0	0	0	0	519	602
10	0	0	0	0	519	604
11	0	0	0	0	519	603
12	0	0	0	0	519	604
13	0	0	0	0	519	606
14	0	0	0	0	519	604
15	0	0	0	0	519	603
0	0	0	0	0	519	603
1	0	0	0	0	520	601
2	0	0	0	0	521	603
3	0	0	0	0	521	603
4	0	0	0	0	521	603
5	0	0	0	0	521	606
6	0	0	0	0	521	604
7	0	0	0	0	521	603
8	0	0	0	0	521	602
9	0	0	0	0	521	601
10	0	0	0	0	521	603
11	0	0	0	0	521	603
12	0	0	0	0	520	603
13	0	0	0	0	519	605
14	0	0	0	0	519	603
15	0	0	0	0	519	603
0	0	0	0	0	519	604
1	0	0	0	0	518	601
2	0	0	0	0	518	603
3	0	0	0	0	516	603
4	0	0	0	0	515	604
5	0	0	0	0	514	606
6	0	0	0	0	513	604
7	0	0	0	0	513	603
8	0	0	0	0	512	603
9	0	0	0	0	512	601
10	0	0	0	0	511	603
11	0	0	0	0	511	603
12	0	0	0	0	510	603
13	0	0	0	0	510	606
14	0	0	0	0	510	604
15	0	0	0	0	510	603
0	0	0	0	0	509	603
1	0	0	0	0	508	601
2	0	0	0	0	508	603
3	0	0	0	0	506	603
4	0	0	0	0	506	604
5	0	0	0	0	505	605
6	0	0	0	0	505	603
7	0	0	0	0	504	603
8	0	0	0	0	503	603
9	0	0	0	0	502	601
10	0	0	0	0	501	604
11	0	0	0	0	501	604
12	0	0	0	0	500	603
13	0	0	0	0	499	606
14	0	0	0	0	498	604
15	0	0	0	0	498	604
0	0	0	0	0	498	603
1	0	0	0	0	498	602
2	0	0	0	0	497	603
3	0	0	0	0	498	604
4	0	0	0	0	498	603
5	0	0	0	0	498	606
6	0	0	0	0	498	604
7	0	0	0	0	497	603
8	0	0	0	0	497	604
9	0	0	0	0	497	602
10	0	0	0	0	497	604
11	0	0	0	0	497	603
12	0	0	0	0	497	603
13	0	0	0	0	496	606
14	0	0	0	0	496	603
15	0	0	0	0	496	603
0	0	0	0	0	498	603
1	0	0	0	0	499	601
2	0	0	0	0	499	603
3	0	0	0	0	499	603
4	0	0	0	0	500	603
5	0	0	0	0	501	605
6	0	0	0	0	502	603
7	0	0	0	0	503	604
8	0	0	0	0	504	603
9	0	0	0	0	504	602
10	0	0	0	0	505	604
11	0	0	0	0	507	603
12	0	0	0	0	508	603
13	0	0	0	0	509	606
14	0	0	0	0	510	604
15	0	0	0	0	510	604
0	0	0	0	0	511	603
1	0	0	0	0	512	602
2	0	0	0	0	512	604
3	0	0	0	0	512	604
4	0	0	0	0	513	604
5	0	0	0	0	513	606
6	0	0	0	0	513	604
7	0	0	0	0	513	604
8	0	0	0	0	514	603
9	0	0	0	0	514	601
10	0	0	0	0	513	603
11	0	0	0	0	513	603
12	0	0	0	0	513	603
13	0	0	0	0	514	605
14	0	0	0	0	515	603
15	0	0	0	0	515	603
0	0	0	0	0	515	604
1	0	0	0	0	516	602
2	0	0	0	0	516	604
3	0	0	0	0	517	604
4	0	0	0	0	518	603
5	0	0	0	0	519	606
6	0	0	0	0	519	604
7	0	0	0	0	520	603
8	0	0	0	0	520	603
9	0	0	0	0	520	602
10	0	0	0	0	519	604
11	0	0	0	0	519	604
12	0	0	0	0	519	604
13	0	0	0	0	519	606
14	0	0	0	0	518	603
15	0	0	0	0	518	604
0	0	0	0	0	518	604
1	0	0	0	0	517	601
2	0	0	0	0	517	603
3	0	0	0	0	517	603
4	0	0	0	0	517	604
5	0	0	0	0	516	606
6	0	0	0	0	515	604
7	0	0	0	0	515	604
8	0	0	0	0	514	603
9	0	0	0	0	514	602
10	0	0	0	0	514	604
11	0	0	0	0	514	604
12	0	0	0	0	514	604
13	0	0	0	0	514	606
14	0	0	0	0	515	604
15	0	0	0	0	514	603
0	0	0	0	0	514	603
1	0	0	0	0	513	602
2	0	0	0	0	513	604
3	0	0	0	0	513	603
4	0	0	0	0	513	603
5	0	0	0	0	513	606
6	0	0	0	0	512	604
7	0	0	0	0	512	604
8	0	0	0	0	512	603
9	0	0	0	0	512	602
10	0	0	0	0	512	604
11	0	0	0	0	512	604
12	0	0	0	0	511	603
13	0	0	0	0	511	606
14	0	0	0	0	511	604
15	0	0	0	0	511	603
0	0	0	0	0	510	604
1	0	0	0	0	509	601
2	0	0	0	0	509	603
3	0	0	0	0	509	604
4	0	0	0	0	508	604
5	0	0	0	0	508	606
6	0	0	0	0	507	604
7	0	0	0	0	507	604
8	0	0	0	0	507	604
9	0	0	0	0	507	602
10	0	0	0	0	506	604
11	0	0	0	0	505	604
12	0	0	0	0	504	604
13	0	0	0	0	503	606
14	0	0	0	0	501	604
15	0	0	0	0	499	604
0	0	0	0	0	497	604
1	0	0	0	0	494	602
2	0	0	0	0	490	604
3	0	0	0	0	485	604
4	0	0	0	0	479	604
5	0	0	0	0	473	606
6	0	0	0	0	468	604
7	0	0	0	0	463	604
8	0	0	0	0	458	604
9	0	0	0	0	455	602
10	0	0	0	0	451	604
11	0	0	0	0	449	605
12	0	0	0	0	446	604
13	0	0	0	0	444	606
14	0	0	0	0	441	604
15	0	0	0	0	439	604
0	0	0	0	0	437	604
1	0	0	0	0	436	602
2	0	0	0	0	437	604
3	0	0	0	0	439	604
4	0	0	0	0	443	604
5	0	0	0	0	450	607
6	0	0	0	0	461	604
7	0	0	0	0	476	604
8	0	0	0	0	494	604
9	0	0	0	0	511	601
10	0	0	0	0	531	604
11	0	0	0	0	552	604
12	0	0	0	0	573	603
13	0	0	0	0	593	605
14	0	0	0	0	612	603
15	0	0	0	0	630	603
0	0	0	0	0	645	603
1	0	0	0	0	657	601
2	0	0	0	0	664	602
3	0	0	0	0	669	602
4	0	0	0	0	674	603
5	0	0	0	0	676	605
6	0	0	0	0	675	603
7	0	0	0	0	671	603
8	0	0	0	0	667	603
9	0	0	0	0	662	601
10	0	0	0	0	655	603
11	0	0	0	0	651	603
12	0	0	0	0	649	604
13	0	0	0	0	648	605
14	0	0	0	0	651	603
15	0	0	0	0	655	603
0	0	0	0	0	659	603
1	0	0	0	0	661	601
2	0	0	0	0	658	602
3	0	0	0	0	650	603
4	0	0	0	0	639	603
5	0	0	0	0	627	605
6	0	0	0	0	613	603
7	0	0	0	0	600	603
8	0	0	0	0	587	603
9	0	0	0	0	575	601
10	0	0	0	0	564	603
11	0	0	0	0	553	603
12	0	0	0	0	543	603
13	0	0	0	0	536	606
14	0	0	0	0	529	603
15	0	0	0	0	523	603
0	0	0	0	0	517	603
1	0	0	0	0	512	601
2	0	0	0	0	508	604
3	0	0	0	0	503	603
4	0	0	0	0	499	604
5	0	0	0	0	496	606
6	0	0	0	0	492	604
7	0	0	0	0	487	603
8	0	0	0	0	483	603
9	0	0	0	0	480	602
10	0	0	0	0	476	603
11	0	0	0	0	474	603
12	0	0	0	0	472	604
13	0	0	0	0	471	606
14	0	0	0	0	470	604
15	0	0	0	0	469	604
0	0	0	0	0	468	604
1	0	0	0	0	468	602
2	0	0	0	0	467	604
3	0	0	0	0	466	604
4	0	0	0	0	464	604
5	0	0	0	0	463	606
6	0	0	0	0	463	604
7	0	0	0	0	463	604
8	0	0	0	0	463	604
9	0	0	0	0	463	602
10	0	0	0	0	463	603
11	0	0	0	0	463	603
12	0	0	0	0	463	604
13	0	0	0	0	463	606
14	0	0	0	0	463	604
15	0	0	0	0	463	604
0	0	0	0	0	463	604
1	0	0	0	0	464	601
2	0	0	0	0	465	603
3	0	0	0	0	466	603
4	0	0	0	0	467	603
5	0	0	0	0	467	606
6	0	0	0	0	468	603
7	0	0	0	0	470	603
8	0	0	0	0	471	603
9	0	0	0	0	472	602
10	0	0	0	0	473	603
11	0	0	0	0	474	604
12	0	0	0	0	475	604
13	0	0	0	0	476	606
14	0	0	0	0	477	604
15	0	0	0	0	478	604
0	0	0	0	0	479	604
1	0	0	0	0	480	602
2	0	0	0	0	480	604
3	0	0	0	0	480	604
4	0	0	0	0	480	603
5	0	0	0	0	482	606
6	0	0	0	0	482	604
7	0	0	0	0	483	604
8	0	0	0	0	483	604
9	0	0	0	0	483	602
10	0	0	0	0	483	603
11	0	0	0	0	483	603
12	0	0	0	0	483	604
13	0	0	0	0	484	606
14	0	0	0	0	485	604
15	0	0	0	0	485	604
0	0	0	0	0	485	604
1	0	0	0	0	485	601
2	0	0	0	0	486	604
3	0	0	0	0	486	603
4	0	0	0	0	487	603
5	0	0	0	0	487	606
6	0	0	0	0	487	604
7	0	0	0	0	487	603
8	0	0	0	0	487	603
9	0	0	0	0	487	601
10	0	0	0	0	487	603
11	0	0	0	0	487	603
12	0	0	0	0	487	603
13	0	0	0	0	487	605
14	0	0	0	0	488	603
15	0	0	0	0	488	603
0	0	0	0	0	488	603
1	0	0	0	0	488	601
2	0	0	0	0	489	603
3	0	0	0	0	490	603
4	0	0	0	0	492	604
5	0	0	0	0	492	606
6	0	0	0	0	494	603
7	0	0	0	0	494	603
8	0	0	0	0	494	603
9	0	0	0	0	495	601
10	0	0	0	0	496	603
11	0	0	0	0	497	603
12	0	0	0	0	498	604
13	0	0	0	0	498	606
14	0	0	0	0	499	604
15	0	0	0	0	500	603
0	0	0	0	0	500	603
1	0	0	0	0	501	601
2	0	0	0	0	502	603
3	0	0	0	0	503	603
4	0	0	0	0	503	603
5	0	0	0	0	503	605
6	0	0	0	0	504	603
7	0	0	0	0	504	603
8	0	0	0	0	505	603
9	0	0	0	0	505	601
10	0	0	0	0	505	603
11	0	0	0	0	506	603
12	0	0	0	0	506	603
13	0	0	0	0	507	606
14	0	0	0	0	507	604
15	0	0	0	0	507	603
0	0	0	0	0	507	603
1	0	0	0	0	507	601
2	0	0	0	0	508	603
3	0	0	0	0	508	603
4	0	0	0	0	507	602
5	0	0	0	0	507	606
6	0	0	0	0	507	603
7	0	0	0	0	508	604
8	0	0	0	0	508	604
9	0	0	0	0	508	602
10	0	0	0	0	508	603
11	0	0	0	0	509	603
12	0	0	0	0	509	604
13	0	0	0	0	510	606
14	0	0	0	0	510	604
15	0	0	0	0	509	604
0	0	0	0	0	509	604
1	0	0	0	0	508	602
2	0	0	0	0	508	604
3	0	0	0	0	508	604
4	0	0	0	0	508	603
5	0	0	0	0	508	605
6	0	0	0	0	509	604
7	0	0	0	0	510	603
8	0	0	0	0	510	604
9	0	0	0	0	510	602
10	0	0	0	0	510	603
11	0	0	0	0	510	604
12	0	0	0	0	510	604
13	0	0	0	0	511	606
14	0	0	0	0	511	605
15	0	0	0	0	511	604
0	0	0	0	0	511	604
1	0	0	0	0	511	603
2	0	0	0	0	512	604
3	0	0	0	0	513	604
4	0	0	0	0	514	604
5	0	0	0	0	514	607
6	0	0	0	0	515	605
7	0	0	0	0	515	605
8	0	0	0	0	515	605
9	0	0	0	0	516	603
10	0	0	0	0	516	604
11	0	0	0	0	516	604
12	0	0	0	0	516	605
13	0	0	0	0	517	607
14	0	0	0	0	517	604
15	0	0	0	0	518	604
0	0	0	0	0	518	605
1	0	0	0	0	519	603
2	0	0	0	0	519	604
3	0	0	0	0	520	604
4	0	0	0	0	520	604
5	0	0	0	0	520	607
6	0	0	0	0	521	604
7	0	0	0	0	522	604
8	0	0	0	0	523	604
9	0	0	0	0	524	602
10	0	0	0	0	525	604
11	0	0	0	0	524	604
12	0	0	0	0	525	604
13	0	0	0	0	526	606
14	0	0	0	0	526	603
15	0	0	0	0	526	603
0	0	0	0	0	527	603
1	0	0	0	0	527	601
2	0	0	0	0	526	603
3	0	0	0	0	527	604
4	0	0	0	0	528	603
5	0	0	0	0	529	605
6	0	0	0	0	530	603
7	0	0	0	0	530	603
8	0	0	0	0	531	603
9	0	0	0	0	531	601
10	0	0	0	0	532	603
11	0	0	0	0	532	603
12	0	0	0	0	532	603
13	0	0	0	0	532	606
14	0	0	0	0	532	603
15	0	0	0	0	532	603
0	0	0	0	0	533	603
1	0	0	0	0	532	601
2	0	0	0	0	531	603
3	0	0	0	0	531	603
4	0	0	0	0	532	603
5	0	0	0	0	532	606
6	0	0	0	0	532	602
7	0	0	0	0	532	603
8	0	0	0	0	532	603
9	0	0	0	0	532	600
10	0	0	0	0	532	603
11	0	0	0	0	533	602
12	0	0	0	0	533	602
13	0	0	0	0	533	605
14	0	0	0	0	534	603
15	0	0	0	0	534	603
0	0	0	0	0	534	603
1	0	0	0	0	534	601
2	0	0	0	0	534	603
3	0	0	0	0	533	602
4	0	0	0	0	533	602
5	0	0	0	0	532	604
6	0	0	0	0	531	603
7	0	0	0	0	529	603
8	0	0	0	0	527	603
9	0	0	0	0	527	601
10	0	0	0	0	526	603
11	0	0	0	0	525	603
12	0	0	0	0	524	603
13	0	0	0	0	523	605
14	0	0	0	0	521	603
15	0	0	0	0	520	603
0	0	0	0	0	519	603
1	0	0	0	0	519	601
2	0	0	0	0	519	604
3	0	0	0	0	518	604
4	0	0	0	0	518	603
5	0	0	0	0	518	606
6	0	0	0	0	517	603
7	0	0	0	0	517	603
8	0	0	0	0	517	603
9	0	0	0	0	516	601
10	0	0	0	0	516	604
11	0	0	0	0	517	604
12	0	0	0	0	518	603
13	0	0	0	0	518	606
14	0	0	0	0	518	604
15	0	0	0	0	518	604
0	0	0	0	0	518	604
1	0	0	0	0	518	602
2	0	0	0	0	517	604
3	0	0	0	0	517	604
4	0	0	0	0	517	604
5	0	0	0	0	516	606
6	0	0	0	0	516	604
7	0	0	0	0	516	604
8	0	0	0	0	516	604
9	0	0	0	0	516	602
10	0	0	0	0	516	604
11	0	0	0	0	516	604
12	0	0	0	0	516	604
13	0	0	0	0	516	607
14	0	0	0	0	517	604
15	0	0	0	0	517	604
0	0	0	0	0	517	604
1	0	0	0	0	517	602
2	0	0	0	0	516	604
3	0	0	0	0	517	604
4	0	0	0	0	517	604
5	0	0	0	0	517	605
6	0	0	0	0	518	604
7	0	0	0	0	517	604
8	0	0	0	0	517	604
9	0	0	0	0	516	602
10	0	0	0	0	516	604
11	0	0	0	0	515	604
12	0	0	0	0	514	604
13	0	0	0	0	515	607
14	0	0	0	0	515	604
15	0	0	0	0	514	604
0	0	0	0	0	514	604
1	0	0	0	0	513	602
2	0	0	0	0	514	604
3	0	0	0	0	514	605
4	0	0	0	0	515	604
5	0	0	0	0	515	607
6	0	0	0	0	514	604
7	0	0	0	0	514	604
8	0	0	0	0	514	604
9	0	0	0	0	513	602
10	0	0	0	0	513	604
11	0	0	0	0	513	604
12	0	0	0	0	513	604
13	0	0	0	0	514	606
14	0	0	0	0	513	603
15	0	0	0	0	512	604
0	0	0	0	0	512	603
1	0	0	0	0	513	601
2	0	0	0	0	512	603
3	0	0	0	0	513	604
4	0	0	0	0	512	603
5	0	0	0	0	512	605
6	0	0	0	0	512	603
7	0	0	0	0	512	603
8	0	0	0	0	511	603
9	0	0	0	0	511	601
10	0	0	0	0	511	603
11	0	0	0	0	510	603
12	0	0	0	0	510	603
13	0	0	0	0	509	605
14	0	0	0	0	510	603
15	0	0	0	0	509	603
0	0	0	0	0	509	604
1	0	0	0	0	509	602
2	0	0	0	0	508	603
3	0	0	0	0	508	604
4	0	0	0	0	507	603
5	0	0	0	0	506	606
6	0	0	0	0	505	603
7	0	0	0	0	504	604
8	0	0	0	0	504	603
9	0	0	0	0	503	601
10	0	0	0	0	503	603
11	0	0	0	0	503	603
12	0	0	0	0	503	603
13	0	0	0	0	503	605
14	0	0	0	0	502	603
15	0	0	0	0	502	604
0	0	0	0	0	502	603
1	0	0	0	0	502	602
2	0	0	0	0	502	604
3	0	0	0	0	502	604
4	0	0	0	0	503	604
5	0	0	0	0	503	606
6	0	0	0	0	503	603
7	0	0	0	0	504	603
8	0	0	0	0	504	603
9	0	0	0	0	505	602
10	0	0	0	0	505	604
11	0	0	0	0	505	604
12	0	0	0	0	505	604
13	0	0	0	0	504	606
14	0	0	0	0	504	604
15	0	0	0	0	505	604
0	0	0	0	0	505	604
1	0	0	0	0	506	601
2	0	0	0	0	506	603
3	0	0	0	0	506	604
4	0	0	0	0	507	604
5	0	0	0	0	506	606
6	0	0	0	0	505	604
7	0	0	0	0	505	604
8	0	0	0	0	504	604
9	0	0	0	0	504	602
10	0	0	0	0	503	604
11	0	0	0	0	503	604
12	0	0	0	0	502	604
13	0	0	0	0	502	607
14	0	0	0	0	501	605
15	0	0	0	0	501	605
0	0	0	0	0	500	605
1	0	0	0	0	500	603
2	0	0	0	0	500	605
3	0	0	0	0	499	604
4	0	0	0	0	499	604
5	0	0	0	0	499	607
6	0	0	0	0	499	604
7	0	0	0	0	499	604
8	0	0	0	0	498	604
9	0	0	0	0	498	602
10	0	0	0	0	497	604
11	0	0	0	0	497	604
12	0	0	0	0	496	604
13	0	0	0	0	496	607
14	0	0	0	0	496	604
15	0	0	0	0	496	604
0	0	0	0	0	495	604
1	0	0	0	0	496	601
2	0	0	0	0	495	604
3	0	0	0	0	496	603
4	0	0	0	0	495	604
5	0	0	0	0	495	606
6	0	0	0	0	495	603
7	0	0	0	0	495	603
8	0	0	0	0	495	603
9	0	0	0	0	494	601
10	0	0	0	0	494	602
11	0	0	0	0	494	603
12	0	0	0	0	494	603
13	0	0	0	0	494	605
14	0	0	0	0	495	603
15	0	0	0	0	495	603
0	0	0	0	0	495	603
1	0	0	0	0	495	601
2	0	0	0	0	495	603
3	0	0	0	0	496	603
4	0	0	0	0	496	603
5	0	0	0	0	496	606
6	0	0	0	0	496	604
7	0	0	0	0	496	604
8	0	0	0	0	496	603
9	0	0	0	0	497	602
10	0	0	0	0	497	604
11	0	0	0	0	498	604
12	0	0	0	0	498	604
13	0	0	0	0	499	606
14	0	0	0	0	499	603
15	0	0	0	0	499	604
0	0	0	0	0	500	604
1	0	0	0	0	499	601
2	0	0	0	0	500	604
3	0	0	0	0	500	603
4	0	0	0	0	500	604
5	0	0	0	0	501	605
6	0	0	0	0	502	603
7	0	0	0	0	502	604
8	0	0	0	0	503	603
9	0	0	0	0	503	601
10	0	0	0	0	503	603
11	0	0	0	0	504	603
12	0	0	0	0	504	603
13	0	0	0	0	504	605
14	0	0	0	0	505	604
15	0	0	0	0	504	603
0	0	0	0	0	504	603
1	0	0	0	0	504	601
2	0	0	0	0	504	603
3	0	0	0	0	504	604
4	0	0	0	0	505	604
5	0	0	0	0	505	606
6	0	0	0	0	504	604
7	0	0	0	0	505	604
8	0	0	0	0	505	604
9	0	0	0	0	505	601
10	0	0	0	0	504	604
11	0	0	0	0	504	604
12	0	0	0	0	504	604
13	0	0	0	0	504	606
14	0	0	0	0	504	604
15	0	0	0	0	504	604
0	0	0	0	0	504	604
1	0	0	0	0	504	602
2	0	0	0	0	504	604
3	0	0	0	0	503	604
4	0	0	0	0	502	603
5	0	0	0	0	502	606
6	0	0	0	0	502	604
7	0	0	0	0	501	603
8	0	0	0	0	501	604
9	0	0	0	0	501	601
10	0	0	0	0	501	604
11	0	0	0	0	500	604
12	0	0	0	0	501	604
13	0	0	0	0	501	606
14	0	0	0	0	501	604
15	0	0	0	0	501	604
0	0	0	0	0	501	604
1	0	0	0	0	501	602
2	0	0	0	0	501	603
3	0	0	0	0	500	604
4	0	0	0	0	499	604
5	0	0	0	0	499	606
6	0	0	0	0	499	604
7	0	0	0	0	499	604
8	0	0	0	0	499	604
9	0	0	0	0	498	602
10	0	0	0	0	497	604
11	0	0	0	0	497	604
12	0	0	0	0	497	604
13	0	0	0	0	496	606
14	0	0	0	0	496	604
15	0	0	0	0	496	604
0	0	0	0	0	496	604
1	0	0	0	0	497	602
2	0	0	0	0	497	604
3	0	0	0	0	498	604
4	0	0	0	0	498	603
5	0	0	0	0	498	606
6	0	0	0	0	499	603
7	0	0	0	0	499	603
8	0	0	0	0	499	603
9	0	0	0	0	499	601
10	0	0	0	0	500	603
11	0	0	0	0	501	603
12	0	0	0	0	501	603
13	0	0	0	0	501	606
14	0	0	0	0	501	603
15	0	0	0	0	501	603
0	0	0	0	0	501	603
1	0	0	0	0	500	601
2	0	0	0	0	500	603
3	0	0	0	0	500	603
4	0	0	0	0	500	603
5	0	0	0	0	499	605
6	0	0	0	0	499	603
7	0	0	0	0	499	603
8	0	0	0	0	499	603
9	0	0	0	0	499	601
10	0	0	0	0	499	603
11	0	0	0	0	499	603
12	0	0	0	0	499	603
13	0	0	0	0	499	605
14	0	0	0	0	499	603
15	0	0	0	0	499	603
0	0	0	0	0	499	603
1	0	0	0	0	499	601
2	0	0	0	0	499	604
3	0	0	0	0	499	603
4	0	0	0	0	499	604
5	0	0	0	0	499	606
6	0	0	0	0	499	604
7	0	0	0	0	499	603
8	0	0	0	0	499	604
9	0	0	0	0	499	601
10	0	0	0	0	499	603
11	0	0	0	0	499	604
12	0	0	0	0	498	603
13	0	0	0	0	498	605
14	0	0	0	0	497	603
15	0	0	0	0	496	604
0	0	0	0	0	496	604
1	0	0	0	0	495	602
2	0	0	0	0	494	604
3	0	0	0	0	494	603
4	0	0	0	0	493	603
5	0	0	0	0	493	606
6	0	0	0	0	492	604
7	0	0	0	0	491	604
8	0	0	0	0	491	604
9	0	0	0	0	491	601
10	0	0	0	0	490	604
11	0	0	0	0	489	604
12	0	0	0	0	488	604
13	0	0	0	0	488	607
14	0	0	0	0	487	603
15	0	0	0	0	487	604
0	0	0	0	0	487	604
1	0	0	0	0	486	602
2	0	0	0	0	486	603
3	0	0	0	0	486	604
4	0	0	0	0	485	604
5	0	0	0	0	484	605
6	0	0	0	0	484	604
7	0	0	0	0	483	604
8	0	0	0	0	482	603
9	0	0	0	0	481	602
10	0	0	0	0	480	604
11	0	0	0	0	480	604
12	0	0	0	0	479	604
13	0	0	0	0	478	606
14	0	0	0	0	478	604
15	0	0	0	0	478	604
0	0	0	0	0	478	604
1	0	0	0	0	477	602
2	0	0	0	0	477	604
3	0	0	0	0	478	603
4	0	0	0	0	478	603
5	0	0	0	0	479	606
6	0	0	0	0	479	604
7	0	0	0	0	479	604
8	0	0	0	0	479	604
9	0	0	0	0	479	602
10	0	0	0	0	480	604
11	0	0	0	0	480	604
12	0	0	0	0	480	604
13	0	0	0	0	482	606
14	0	0	0	0	482	604
15	0	0	0	0	483	604
0	0	0	0	0	483	604
1	0	0	0	0	485	602
2	0	0	0	0	486	604
3	0	0	0	0	487	603
4	0	0	0	0	487	604
5	0	0	0	0	488	605
6	0	0	0	0	489	603
7	0	0	0	0	490	603
8	0	0	0	0	491	603
9	0	0	0	0	492	601
10	0	0	0	0	494	603
11	0	0	0	0	495	602
12	0	0	0	0	496	604
13	0	0	0	0	497	605
14	0	0	0	0	498	603
15	0	0	0	0	499	603
0	0	0	0	0	499	602
1	0	0	0	0	501	600
2	0	0	0	0	501	602
3	0	0	0	0	502	603
4	0	0	0	0	502	603
5	0	0	0	0	503	605
6	0	0	0	0	504	603
7	0	0	0	0	504	603
8	0	0	0	0	505	603
9	0	0	0	0	505	601
10	0	0	0	0	505	603
11	0	0	0	0	505	603
12	0	0	0	0	504	603
13	0	0	0	0	505	606
14	0	0	0	0	504	604
15	0	0	0	0	505	603
0	0	0	0	0	506	604
1	0	0	0	0	506	601
2	0	0	0	0	507	603
3	0	0	0	0	507	603
4	0	0	0	0	507	602
5	0	0	0	0	508	605
6	0	0	0	0	508	603
7	0	0	0	0	508	604
8	0	0	0	0	508	604
9	0	0	0	0	508	601
10	0	0	0	0	510	603
11	0	0	0	0	510	604
12	0	0	0	0	511	603
13	0	0	0	0	510	605
14	0	0	0	0	510	603
15	0	0	0	0	510	603
0	0	0	0	0	511	603
1	0	0	0	0	512	601
2	0	0	0	0	512	603
3	0	0	0	0	511	603
4	0	0	0	0	512	603
5	0	0	0	0	512	606
6	0	0	0	0	512	604
7	0	0	0	0	513	604
8	0	0	0	0	513	603
9	0	0	0	0	514	602
10	0	0	0	0	514	604
11	0	0	0	0	514	603
12	0	0	0	0	515	603
13	0	0	0	0	514	606
14	0	0	0	0	515	603
15	0	0	0	0	515	603
0	0	0	0	0	515	604
1	0	0	0	0	515	601
2	0	0	0	0	515	604
3	0	0	0	0	516	604
4	0	0	0	0	516	604
5	0	0	0	0	516	606
6	0	0	0	0	516	604
7	0	0	0	0	516	604
8	0	0	0	0	517	604
9	0	0	0	0	517	602
10	0	0	0	0	518	604
11	0	0	0	0	518	604
12	0	0	0	0	518	604
13	0	0	0	0	518	606
14	0	0	0	0	518	604
15	0	0	0	0	518	604
0	0	0	0	0	517	604
1	0	0	0	0	517	602
2	0	0	0	0	517	604
3	0	0	0	0	516	604
4	0	0	0	0	517	604
5	0	0	0	0	517	606
6	0	0	0	0	516	604
7	0	0	0	0	515	604
8	0	0	0	0	514	603
9	0	0	0	0	513	603
10	0	0	0	0	511	604
11	0	0	0	0	510	603
12	0	0	0	0	508	603
13	0	0	0	0	505	605
14	0	0	0	0	502	604
15	0	0	0	0	499	604
0	0	0	0	0	494	603
1	0	0	0	0	489	602
2	0	0	0	0	483	604
3	0	0	0	0	479	603
4	0	0	0	0	474	603
5	0	0	0	0	471	605
6	0	0	0	0	468	604
7	0	0	0	0	465	603
8	0	0	0	0	463	603
9	0	0	0	0	460	602
10	0	0	0	0	458	603
11	0	0	0	0	457	604
12	0	0	0	0	455	603
13	0	0	0	0	455	605
14	0	0	0	0	455	603
15	0	0	0	0	457	603
0	0	0	0	0	462	603
1	0	0	0	0	468	601
2	0	0	0	0	478	603
3	0	0	0	0	491	603
4	0	0	0	0	508	603
5	0	0	0	0	527	606
6	0	0	0	0	545	604
7	0	0	0	0	565	604
8	0	0	0	0	585	604
9	0	0	0	0	606	602
10	0	0	0	0	624	604
11	0	0	0	0	641	603
12	0	0	0	0	656	604
13	0	0	0	0	668	606
14	0	0	0	0	675	604
15	0	0	0	0	677	604
0	0	0	0	0	678	604
1	0	0	0	0	676	603
2	0	0	0	0	673	604
3	0	0	0	0	668	604
4	0	0	0	0	662	604
5	0	0	0	0	655	606
6	0	0	0	0	649	604
7	0	0	0	0	641	604
8	0	0	0	0	636	604
9	0	0	0	0	636	602
10	0	0	0	0	638	604
11	0	0	0	0	641	604
12	0	0	0	0	647	604
13	0	0	0	0	652	606
14	0	0	0	0	651	604
15	0	0	0	0	644	604
0	0	0	0	0	634	604
1	0	0	0	0	621	602
2	0	0	0	0	608	604
3	0	0	0	0	594	604
4	0	0	0	0	581	604
5	0	0	0	0	568	607
6	0	0	0	0	556	605
7	0	0	0	0	545	604
8	0	0	0	0	536	604
9	0	0	0	0	528	602
10	0	0	0	0	521	604
11	0	0	0	0	515	604
12	0	0	0	0	510	604
13	0	0	0	0	505	606
14	0	0	0	0	500	604
15	0	0	0	0	497	604
0	0	0	0	0	493	604
1	0	0	0	0	490	602
2	0	0	0	0	486	603
3	0	0	0	0	482	604
4	0	0	0	0	479	604
5	0	0	0	0	476	606
6	0	0	0	0	473	603
7	0	0	0	0	472	604
8	0	0	0	0	470	603
9	0	0	0	0	468	601
10	0	0	0	0	467	603
11	0	0	0	0	466	603
12	0	0	0	0	466	603
13	0	0	0	0	465	606
14	0	0	0	0	465	604
15	0	0	0	0	464	604
0	0	0	0	0	464	603
1	0	0	0	0	464	601
2	0	0	0	0	464	603
3	0	0	0	0	465	603
4	0	0	0	0	464	603
5	0	0	0	0	464	605
6	0	0	0	0	465	603
7	0	0	0	0	465	603
8	0	0	0	0	466	603
9	0	0	0	0	466	601
10	0	0	0	0	465	603
11	0	0	0	0	466	604
12	0	0	0	0	465	603
13	0	0	0	0	465	605
14	0	0	0	0	465	604
15	0	0	0	0	466	603
0	0	0	0	0	465	603
1	0	0	0	0	464	601
2	0	0	0	0	465	603
3	0	0	0	0	465	603
4	0	0	0	0	465	603
5	0	0	0	0	465	605
6	0	0	0	0	464	603
7	0	0	0	0	465	604
8	0	0	0	0	465	604
9	0	0	0	0	465	601
10	0	0	0	0	465	603
11	0	0	0	0	464	604
12	0	0	0	0	465	604
13	0	0	0	0	466	606
14	0	0	0	0	466	603
15	0	0	0	0	466	603
0	0	0	0	0	466	603
1	0	0	0	0	468	601
2	0	0	0	0	468	603
3	0	0	0	0	469	603
4	0	0	0	0	470	603
5	0	0	0	0	469	605
6	0	0	0	0	470	603
7	0	0	0	0	471	603
8	0	0	0	0	471	602
9	0	0	0	0	472	602
10	0	0	0	0	473	603
11	0	0	0	0	474	603
12	0	0	0	0	475	604
13	0	0	0	0	475	606
14	0	0	0	0	476	604
15	0	0	0	0	476	604
0	0	0	0	0	477	604
1	0	0	0	0	478	602
2	0	0	0	0	478	604
3	0	0	0	0	479	604
4	0	0	0	0	479	604
5	0	0	0	0	480	606
6	0	0	0	0	481	604
7	0	0	0	0	482	604
8	0	0	0	0	483	604
9	0	0	0	0	483	602
10	0	0	0	0	484	604
11	0	0	0	0	485	604
12	0	0	0	0	484	604
13	0	0	0	0	485	606
14	0	0	0	0	486	604
15	0	0	0	0	486	604
0	0	0	0	0	486	604
1	0	0	0	0	486	602
2	0	0	0	0	485	604
3	0	0	0	0	485	604
4	0	0	0	0	485	604
5	0	0	0	0	485	606
6	0	0	0	0	485	603
7	0	0	0	0	486	603
8	0	0	0	0	487	603
9	0	0	0	0	488	601
10	0	0	0	0	488	603
11	0	0	0	0	488	602
12	0	0	0	0	489	603
13	0	0	0	0	489	605
14	0	0	0	0	491	603
15	0	0	0	0	491	603
0	0	0	0	0	492	603
1	0	0	0	0	491	601
2	0	0	0	0	492	603
3	0	0	0	0	492	603
4	0	0	0	0	493	603
5	0	0	0	0	493	606
6	0	0	0	0	494	603
7	0	0	0	0	494	603
8	0	0	0	0	495	603
9	0	0	0	0	495	601
10	0	0	0	0	495	603
11	0	0	0	0	496	603
12	0	0	0	0	496	603
13	0	0	0	0	496	606
14	0	0	0	0	496	603
15	0	0	0	0	496	604
0	0	0	0	0	497	603
1	0	0	0	0	497	601
2	0	0	0	0	497	603
3	0	0	0	0	497	603
4	0	0	0	0	498	603
5	0	0	0	0	499	606
6	0	0	0	0	499	604
7	0	0	0	0	499	604
8	0	0	0	0	500	604
9	0	0	0	0	500	602
10	0	0	0	0	500	604
11	0	0	0	0	501	604
12	0	0	0	0	502	604
13	0	0	0	0	503	606
14	0	0	0	0	503	604
15	0	0	0	0	504	604
0	0	0	0	0	504	604
1	0	0	0	0	505	602
2	0	0	0	0	505	604
3	0	0	0	0	506	604
4	0	0	0	0	506	604
5	0	0	0	0	507	606
6	0	0	0	0	508	604
7	0	0	0	0	508	604
8	0	0	0	0	508	604
9	0	0	0	0	509	603
10	0	0	0	0	510	604
11	0	0	0	0	510	604
12	0	0	0	0	510	604
13	0	0	0	0	510	607
14	0	0	0	0	511	604
15	0	0	0	0	511	604
0	0	0	0	0	511	604
1	0	0	0	0	512	603
2	0	0	0	0	512	604
3	0	0	0	0	513	604
4	0	0	0	0	513	604
5	0	0	0	0	514	606
6	0	0	0	0	514	604
7	0	0	0	0	514	604
