# OpenSignals Text File Format. Version 1
# {"98:D3:91:FD:59:64": {"position": 0, "device": "bitalino_rev", "device name": "98:D3:91:FD:59:64", "device connection": "BTH98:D3:91:FD:59:64", "sampling rate": 1000, "resolution": [4, 1, 1, 1, 1, 10, 10], "firmware version": 1281, "comments": "", "keywords": "", "mode": 0, "sync interval": 2, "date": "2021-9-13", "time": "10:31:45.781", "channels": [2, 5], "sensor": ["RAW", "RAW"], "label": ["A2", "A5"], "column": ["nSeq", "I1", "I2", "O1", "O2", "A2", "A5"], "special": [{}, {}], "digital IO": [0, 0, 1, 1], "convertedValues": 0}}
# EndOfHeader
0	0	0	0	0	486	609	
1	0	0	0	0	481	611	
2	0	0	0	0	475	611	
3	0	0	0	0	471	611	
4	0	0	0	0	469	612	
5	0	0	0	0	472	611	
6	0	0	0	0	475	611	
7	0	0	0	0	480	611	
8	0	0	0	0	485	610	
9	0	0	0	0	486	611	
10	0	0	0	0	488	612	
11	0	0	0	0	489	612	
12	0	0	0	0	491	614	
13	0	0	0	0	494	612	
14	0	0	0	0	499	611	
15	0	0	0	0	504	611	
0	0	0	0	0	509	610	
1	0	0	0	0	515	611	
2	0	0	0	0	523	612	
3	0	0	0	0	539	611	
4	0	0	0	0	565	614	
5	0	0	0	0	595	611	
6	0	0	0	0	627	612	
7	0	0	0	0	667	611	
8	0	0	0	0	711	609	
9	0	0	0	0	752	611	
10	0	0	0	0	786	611	
11	0	0	0	0	810	611	
12	0	0	0	0	820	614	
13	0	0	0	0	820	612	
14	0	0	0	0	816	611	
15	0	0	0	0	811	611	
0	0	0	0	0	806	610	
1	0	0	0	0	791	611	
2	0	0	0	0	770	611	
3	0	0	0	0	748	611	
4	0	0	0	0	730	614	
5	0	0	0	0	717	611	
6	0	0	0	0	707	612	
7	0	0	0	0	700	612	
8	0	0	0	0	697	610	
9	0	0	0	0	698	611	
10	0	0	0	0	701	611	
11	0	0	0	0	703	611	
12	0	0	0	0	700	614	
13	0	0	0	0	694	611	
14	0	0	0	0	686	612	
15	0	0	0	0	675	611	
0	0	0	0	0	662	609	
1	0	0	0	0	651	611	
2	0	0	0	0	641	611	
3	0	0	0	0	628	611	
4	0	0	0	0	613	612	
5	0	0	0	0	599	611	
6	0	0	0	0	583	610	
7	0	0	0	0	569	610	
8	0	0	0	0	553	608	
9	0	0	0	0	538	610	
10	0	0	0	0	523	610	
11	0	0	0	0	510	610	
12	0	0	0	0	497	611	
13	0	0	0	0	483	610	
14	0	0	0	0	472	610	
15	0	0	0	0	461	610	
0	0	0	0	0	450	608	
1	0	0	0	0	441	610	
2	0	0	0	0	433	609	
3	0	0	0	0	425	610	
4	0	0	0	0	420	613	
5	0	0	0	0	415	610	
6	0	0	0	0	411	610	
7	0	0	0	0	407	610	
8	0	0	0	0	404	608	
9	0	0	0	0	402	611	
10	0	0	0	0	401	610	
11	0	0	0	0	399	610	
12	0	0	0	0	398	611	
13	0	0	0	0	398	610	
14	0	0	0	0	398	610	
15	0	0	0	0	398	610	
0	0	0	0	0	397	608	
1	0	0	0	0	398	609	
2	0	0	0	0	397	610	
3	0	0	0	0	398	609	
4	0	0	0	0	399	611	
5	0	0	0	0	399	610	
6	0	0	0	0	399	609	
7	0	0	0	0	399	609	
8	0	0	0	0	399	607	
9	0	0	0	0	399	609	
10	0	0	0	0	399	609	
11	0	0	0	0	399	608	
12	0	0	0	0	400	610	
13	0	0	0	0	401	608	
14	0	0	0	0	401	609	
15	0	0	0	0	402	609	
0	0	0	0	0	402	607	
1	0	0	0	0	403	608	
2	0	0	0	0	403	609	
3	0	0	0	0	404	609	
4	0	0	0	0	404	610	
5	0	0	0	0	404	609	
6	0	0	0	0	406	608	
7	0	0	0	0	406	609	
8	0	0	0	0	406	607	
9	0	0	0	0	406	609	
10	0	0	0	0	406	609	
11	0	0	0	0	407	609	
12	0	0	0	0	407	610	
13	0	0	0	0	408	609	
14	0	0	0	0	409	609	
15	0	0	0	0	409	608	
0	0	0	0	0	411	607	
1	0	0	0	0	412	609	
2	0	0	0	0	412	609	
3	0	0	0	0	413	610	
4	0	0	0	0	414	612	
5	0	0	0	0	414	610	
6	0	0	0	0	415	610	
7	0	0	0	0	417	610	
8	0	0	0	0	418	608	
9	0	0	0	0	417	610	
10	0	0	0	0	417	610	
11	0	0	0	0	418	610	
12	0	0	0	0	418	612	
13	0	0	0	0	419	611	
14	0	0	0	0	421	610	
15	0	0	0	0	420	610	
0	0	0	0	0	420	609	
1	0	0	0	0	422	610	
2	0	0	0	0	422	611	
3	0	0	0	0	423	611	
4	0	0	0	0	424	612	
5	0	0	0	0	424	610	
6	0	0	0	0	425	610	
7	0	0	0	0	425	611	
8	0	0	0	0	427	608	
9	0	0	0	0	427	610	
10	0	0	0	0	428	610	
11	0	0	0	0	429	611	
12	0	0	0	0	431	612	
13	0	0	0	0	432	611	
14	0	0	0	0	433	611	
15	0	0	0	0	433	611	
0	0	0	0	0	433	609	
1	0	0	0	0	432	611	
2	0	0	0	0	432	610	
3	0	0	0	0	432	611	
4	0	0	0	0	432	613	
5	0	0	0	0	431	610	
6	0	0	0	0	431	611	
7	0	0	0	0	431	611	
8	0	0	0	0	432	609	
9	0	0	0	0	432	611	
10	0	0	0	0	432	611	
11	0	0	0	0	433	611	
12	0	0	0	0	434	612	
13	0	0	0	0	433	611	
14	0	0	0	0	433	611	
15	0	0	0	0	433	611	
0	0	0	0	0	433	609	
1	0	0	0	0	433	611	
2	0	0	0	0	433	610	
3	0	0	0	0	434	610	
4	0	0	0	0	433	612	
5	0	0	0	0	434	611	
6	0	0	0	0	436	610	
7	0	0	0	0	438	611	
8	0	0	0	0	435	608	
9	0	0	0	0	434	610	
10	0	0	0	0	434	610	
11	0	0	0	0	434	610	
12	0	0	0	0	435	612	
13	0	0	0	0	435	610	
14	0	0	0	0	436	610	
15	0	0	0	0	436	611	
0	0	0	0	0	436	607	
1	0	0	0	0	438	610	
2	0	0	0	0	440	609	
3	0	0	0	0	440	609	
4	0	0	0	0	441	611	
5	0	0	0	0	442	609	
6	0	0	0	0	442	609	
7	0	0	0	0	441	610	
8	0	0	0	0	440	608	
9	0	0	0	0	441	609	
10	0	0	0	0	442	609	
11	0	0	0	0	441	609	
12	0	0	0	0	441	611	
13	0	0	0	0	443	609	
14	0	0	0	0	446	610	
15	0	0	0	0	450	609	
0	0	0	0	0	452	607	
1	0	0	0	0	452	609	
2	0	0	0	0	451	609	
3	0	0	0	0	449	608	
4	0	0	0	0	447	609	
5	0	0	0	0	441	608	
6	0	0	0	0	437	607	
7	0	0	0	0	437	607	
8	0	0	0	0	440	606	
9	0	0	0	0	446	608	
10	0	0	0	0	449	607	
11	0	0	0	0	448	608	
12	0	0	0	0	446	609	
13	0	0	0	0	443	608	
14	0	0	0	0	436	607	
15	0	0	0	0	432	607	
0	0	0	0	0	430	605	
1	0	0	0	0	429	607	
2	0	0	0	0	431	607	
3	0	0	0	0	435	607	
4	0	0	0	0	440	609	
5	0	0	0	0	443	608	
6	0	0	0	0	448	607	
7	0	0	0	0	459	608	
8	0	0	0	0	468	606	
9	0	0	0	0	474	608	
10	0	0	0	0	477	608	
11	0	0	0	0	476	608	
12	0	0	0	0	474	609	
13	0	0	0	0	471	608	
14	0	0	0	0	472	609	
15	0	0	0	0	468	608	
0	0	0	0	0	458	606	
1	0	0	0	0	446	608	
2	0	0	0	0	436	609	
3	0	0	0	0	428	608	
4	0	0	0	0	424	609	
5	0	0	0	0	423	609	
6	0	0	0	0	424	609	
7	0	0	0	0	433	609	
8	0	0	0	0	435	607	
9	0	0	0	0	439	609	
10	0	0	0	0	444	610	
11	0	0	0	0	449	610	
12	0	0	0	0	450	611	
13	0	0	0	0	448	610	
14	0	0	0	0	441	611	
15	0	0	0	0	438	611	
0	0	0	0	0	433	608	
1	0	0	0	0	429	611	
2	0	0	0	0	429	611	
3	0	0	0	0	432	611	
4	0	0	0	0	434	613	
5	0	0	0	0	436	611	
6	0	0	0	0	438	611	
7	0	0	0	0	440	611	
8	0	0	0	0	442	609	
9	0	0	0	0	444	611	
10	0	0	0	0	447	611	
11	0	0	0	0	449	611	
12	0	0	0	0	452	613	
13	0	0	0	0	454	611	
14	0	0	0	0	457	611	
15	0	0	0	0	460	612	
0	0	0	0	0	460	610	
1	0	0	0	0	462	612	
2	0	0	0	0	464	612	
3	0	0	0	0	466	612	
4	0	0	0	0	468	614	
5	0	0	0	0	470	612	
6	0	0	0	0	472	612	
7	0	0	0	0	473	613	
8	0	0	0	0	475	611	
9	0	0	0	0	477	613	
10	0	0	0	0	478	612	
11	0	0	0	0	480	612	
12	0	0	0	0	483	614	
13	0	0	0	0	485	612	
14	0	0	0	0	487	613	
15	0	0	0	0	490	612	
0	0	0	0	0	492	611	
1	0	0	0	0	494	612	
2	0	0	0	0	496	612	
3	0	0	0	0	499	612	
4	0	0	0	0	501	615	
5	0	0	0	0	504	613	
6	0	0	0	0	506	612	
7	0	0	0	0	508	613	
8	0	0	0	0	510	611	
9	0	0	0	0	511	613	
10	0	0	0	0	513	613	
11	0	0	0	0	515	612	
12	0	0	0	0	517	615	
13	0	0	0	0	519	614	
14	0	0	0	0	520	613	
15	0	0	0	0	521	613	
0	0	0	0	0	524	611	
1	0	0	0	0	526	612	
2	0	0	0	0	527	613	
3	0	0	0	0	529	612	
4	0	0	0	0	533	614	
5	0	0	0	0	537	613	
6	0	0	0	0	540	612	
7	0	0	0	0	537	611	
8	0	0	0	0	537	609	
9	0	0	0	0	540	611	
10	0	0	0	0	541	611	
11	0	0	0	0	543	610	
12	0	0	0	0	545	611	
13	0	0	0	0	548	609	
14	0	0	0	0	553	609	
15	0	0	0	0	558	609	
0	0	0	0	0	563	606	
1	0	0	0	0	567	608	
2	0	0	0	0	568	608	
3	0	0	0	0	568	607	
4	0	0	0	0	565	609	
5	0	0	0	0	561	607	
6	0	0	0	0	559	606	
7	0	0	0	0	559	606	
8	0	0	0	0	560	604	
9	0	0	0	0	564	605	
10	0	0	0	0	568	605	
11	0	0	0	0	572	604	
12	0	0	0	0	577	606	
13	0	0	0	0	584	604	
14	0	0	0	0	594	604	
15	0	0	0	0	607	603	
0	0	0	0	0	618	601	
1	0	0	0	0	628	602	
2	0	0	0	0	639	603	
3	0	0	0	0	652	603	
4	0	0	0	0	655	604	
5	0	0	0	0	650	603	
6	0	0	0	0	644	602	
7	0	0	0	0	640	603	
8	0	0	0	0	637	600	
9	0	0	0	0	627	602	
10	0	0	0	0	605	602	
11	0	0	0	0	578	602	
12	0	0	0	0	554	604	
13	0	0	0	0	525	602	
14	0	0	0	0	501	601	
15	0	0	0	0	485	601	
0	0	0	0	0	477	599	
1	0	0	0	0	472	601	
2	0	0	0	0	467	600	
3	0	0	0	0	464	600	
4	0	0	0	0	463	602	
5	0	0	0	0	463	600	
6	0	0	0	0	464	600	
7	0	0	0	0	469	600	
8	0	0	0	0	479	597	
9	0	0	0	0	482	599	
10	0	0	0	0	480	599	
11	0	0	0	0	481	599	
12	0	0	0	0	490	601	
13	0	0	0	0	501	599	
14	0	0	0	0	505	600	
15	0	0	0	0	503	599	
0	0	0	0	0	503	596	
1	0	0	0	0	506	599	
2	0	0	0	0	508	599	
3	0	0	0	0	508	599	
4	0	0	0	0	509	601	
5	0	0	0	0	512	600	
6	0	0	0	0	516	600	
7	0	0	0	0	520	600	
8	0	0	0	0	521	598	
9	0	0	0	0	521	600	
10	0	0	0	0	518	599	
11	0	0	0	0	517	599	
12	0	0	0	0	519	600	
13	0	0	0	0	519	598	
14	0	0	0	0	519	598	
15	0	0	0	0	516	598	
0	0	0	0	0	512	596	
1	0	0	0	0	511	598	
2	0	0	0	0	512	599	
3	0	0	0	0	512	599	
4	0	0	0	0	512	600	
5	0	0	0	0	513	599	
6	0	0	0	0	516	599	
7	0	0	0	0	520	600	
8	0	0	0	0	523	598	
9	0	0	0	0	525	600	
10	0	0	0	0	527	600	
11	0	0	0	0	530	601	
12	0	0	0	0	535	603	
13	0	0	0	0	539	601	
14	0	0	0	0	541	601	
15	0	0	0	0	538	602	
0	0	0	0	0	532	600	
1	0	0	0	0	527	603	
2	0	0	0	0	524	603	
3	0	0	0	0	522	603	
4	0	0	0	0	520	606	
5	0	0	0	0	519	604	
6	0	0	0	0	519	605	
7	0	0	0	0	517	605	
8	0	0	0	0	516	603	
9	0	0	0	0	516	606	
10	0	0	0	0	517	606	
11	0	0	0	0	519	606	
12	0	0	0	0	521	608	
13	0	0	0	0	525	607	
14	0	0	0	0	532	607	
15	0	0	0	0	543	607	
0	0	0	0	0	555	605	
1	0	0	0	0	565	607	
2	0	0	0	0	571	607	
3	0	0	0	0	574	607	
4	0	0	0	0	577	608	
5	0	0	0	0	578	607	
6	0	0	0	0	578	607	
7	0	0	0	0	575	607	
8	0	0	0	0	570	606	
9	0	0	0	0	560	608	
10	0	0	0	0	558	608	
11	0	0	0	0	558	608	
12	0	0	0	0	557	610	
13	0	0	0	0	553	609	
14	0	0	0	0	542	609	
15	0	0	0	0	527	609	
0	0	0	0	0	508	608	
1	0	0	0	0	489	610	
2	0	0	0	0	483	610	
3	0	0	0	0	492	611	
4	0	0	0	0	509	613	
5	0	0	0	0	530	611	
6	0	0	0	0	543	612	
7	0	0	0	0	552	612	
8	0	0	0	0	553	611	
9	0	0	0	0	555	613	
10	0	0	0	0	558	613	
11	0	0	0	0	556	614	
12	0	0	0	0	553	615	
13	0	0	0	0	558	613	
14	0	0	0	0	567	614	
15	0	0	0	0	579	614	
0	0	0	0	0	599	612	
1	0	0	0	0	622	615	
2	0	0	0	0	643	615	
3	0	0	0	0	639	615	
4	0	0	0	0	624	617	
5	0	0	0	0	597	615	
6	0	0	0	0	562	616	
7	0	0	0	0	523	616	
8	0	0	0	0	481	615	
9	0	0	0	0	456	616	
10	0	0	0	0	451	617	
11	0	0	0	0	454	617	
12	0	0	0	0	451	620	
13	0	0	0	0	447	619	
14	0	0	0	0	448	618	
15	0	0	0	0	450	619	
0	0	0	0	0	455	616	
1	0	0	0	0	461	618	
2	0	0	0	0	471	619	
3	0	0	0	0	486	619	
4	0	0	0	0	505	621	
5	0	0	0	0	527	619	
6	0	0	0	0	539	620	
7	0	0	0	0	545	619	
8	0	0	0	0	541	617	
9	0	0	0	0	534	620	
10	0	0	0	0	526	619	
11	0	0	0	0	519	619	
12	0	0	0	0	510	620	
13	0	0	0	0	497	618	
14	0	0	0	0	483	618	
15	0	0	0	0	473	618	
0	0	0	0	0	470	616	
1	0	0	0	0	470	618	
2	0	0	0	0	471	617	
3	0	0	0	0	470	617	
4	0	0	0	0	469	619	
5	0	0	0	0	471	618	
6	0	0	0	0	474	618	
7	0	0	0	0	472	617	
8	0	0	0	0	468	616	
9	0	0	0	0	465	618	
10	0	0	0	0	466	618	
11	0	0	0	0	467	617	
12	0	0	0	0	468	619	
13	0	0	0	0	470	617	
14	0	0	0	0	470	617	
15	0	0	0	0	471	617	
0	0	0	0	0	471	615	
1	0	0	0	0	469	617	
2	0	0	0	0	468	616	
3	0	0	0	0	469	616	
4	0	0	0	0	474	617	
5	0	0	0	0	478	616	
6	0	0	0	0	481	615	
7	0	0	0	0	486	615	
8	0	0	0	0	491	614	
9	0	0	0	0	496	615	
10	0	0	0	0	502	615	
11	0	0	0	0	507	615	
12	0	0	0	0	513	616	
13	0	0	0	0	516	615	
14	0	0	0	0	516	615	
15	0	0	0	0	515	616	
0	0	0	0	0	509	614	
1	0	0	0	0	506	615	
2	0	0	0	0	511	615	
3	0	0	0	0	516	616	
4	0	0	0	0	521	617	
5	0	0	0	0	523	616	
6	0	0	0	0	523	616	
7	0	0	0	0	522	615	
8	0	0	0	0	520	614	
9	0	0	0	0	519	616	
10	0	0	0	0	515	615	
11	0	0	0	0	511	615	
12	0	0	0	0	507	617	
13	0	0	0	0	509	616	
14	0	0	0	0	516	616	
15	0	0	0	0	520	615	
0	0	0	0	0	522	614	
1	0	0	0	0	518	616	
2	0	0	0	0	505	616	
3	0	0	0	0	485	616	
4	0	0	0	0	476	618	
5	0	0	0	0	485	616	
6	0	0	0	0	494	617	
7	0	0	0	0	497	616	
8	0	0	0	0	496	615	
9	0	0	0	0	483	617	
10	0	0	0	0	467	617	
11	0	0	0	0	465	618	
12	0	0	0	0	473	619	
13	0	0	0	0	481	617	
14	0	0	0	0	485	617	
15	0	0	0	0	488	618	
0	0	0	0	0	495	617	
1	0	0	0	0	504	618	
2	0	0	0	0	499	619	
3	0	0	0	0	503	619	
4	0	0	0	0	514	621	
5	0	0	0	0	524	619	
6	0	0	0	0	524	619	
7	0	0	0	0	517	620	
8	0	0	0	0	508	617	
9	0	0	0	0	497	620	
10	0	0	0	0	489	620	
11	0	0	0	0	484	620	
12	0	0	0	0	479	622	
13	0	0	0	0	476	620	
14	0	0	0	0	471	621	
15	0	0	0	0	467	620	
0	0	0	0	0	465	619	
1	0	0	0	0	463	620	
2	0	0	0	0	452	621	
3	0	0	0	0	436	621	
4	0	0	0	0	428	623	
5	0	0	0	0	427	620	
6	0	0	0	0	427	621	
7	0	0	0	0	426	620	
8	0	0	0	0	428	618	
9	0	0	0	0	435	620	
10	0	0	0	0	447	620	
11	0	0	0	0	457	620	
12	0	0	0	0	466	621	
13	0	0	0	0	473	620	
14	0	0	0	0	479	620	
15	0	0	0	0	484	620	
0	0	0	0	0	488	619	
1	0	0	0	0	488	620	
2	0	0	0	0	486	620	
3	0	0	0	0	485	620	
4	0	0	0	0	484	621	
5	0	0	0	0	483	620	
6	0	0	0	0	480	620	
7	0	0	0	0	475	619	
8	0	0	0	0	469	617	
9	0	0	0	0	463	619	
10	0	0	0	0	458	619	
11	0	0	0	0	454	619	
12	0	0	0	0	452	621	
13	0	0	0	0	452	618	
14	0	0	0	0	452	618	
15	0	0	0	0	452	618	
0	0	0	0	0	455	616	
1	0	0	0	0	457	617	
2	0	0	0	0	460	617	
3	0	0	0	0	462	617	
4	0	0	0	0	463	619	
5	0	0	0	0	464	616	
6	0	0	0	0	464	615	
7	0	0	0	0	465	615	
8	0	0	0	0	467	613	
9	0	0	0	0	469	615	
10	0	0	0	0	471	615	
11	0	0	0	0	472	615	
12	0	0	0	0	474	616	
13	0	0	0	0	474	614	
14	0	0	0	0	475	615	
15	0	0	0	0	477	614	
0	0	0	0	0	479	611	
1	0	0	0	0	480	613	
2	0	0	0	0	482	613	
3	0	0	0	0	483	613	
4	0	0	0	0	483	613	
5	0	0	0	0	483	612	
6	0	0	0	0	483	611	
7	0	0	0	0	483	611	
8	0	0	0	0	483	608	
9	0	0	0	0	483	609	
10	0	0	0	0	483	609	
11	0	0	0	0	484	609	
12	0	0	0	0	484	610	
13	0	0	0	0	484	608	
14	0	0	0	0	483	608	
15	0	0	0	0	482	607	
0	0	0	0	0	481	605	
1	0	0	0	0	481	607	
2	0	0	0	0	481	607	
3	0	0	0	0	480	607	
4	0	0	0	0	480	608	
5	0	0	0	0	480	606	
6	0	0	0	0	480	606	
7	0	0	0	0	480	606	
8	0	0	0	0	481	603	
9	0	0	0	0	481	604	
10	0	0	0	0	482	604	
11	0	0	0	0	483	605	
12	0	0	0	0	483	606	
13	0	0	0	0	483	603	
14	0	0	0	0	484	604	
15	0	0	0	0	484	603	
0	0	0	0	0	484	601	
1	0	0	0	0	484	602	
2	0	0	0	0	485	602	
3	0	0	0	0	484	602	
4	0	0	0	0	485	604	
5	0	0	0	0	485	601	
6	0	0	0	0	485	601	
7	0	0	0	0	485	601	
8	0	0	0	0	485	599	
9	0	0	0	0	485	601	
10	0	0	0	0	486	600	
11	0	0	0	0	486	600	
12	0	0	0	0	487	602	
13	0	0	0	0	488	600	
14	0	0	0	0	488	600	
15	0	0	0	0	489	600	
0	0	0	0	0	489	598	
1	0	0	0	0	490	600	
2	0	0	0	0	491	600	
3	0	0	0	0	492	600	
4	0	0	0	0	492	602	
5	0	0	0	0	492	600	
6	0	0	0	0	492	601	
7	0	0	0	0	492	601	
8	0	0	0	0	491	599	
9	0	0	0	0	489	602	
10	0	0	0	0	485	601	
11	0	0	0	0	481	602	
12	0	0	0	0	476	603	
13	0	0	0	0	473	601	
14	0	0	0	0	470	601	
15	0	0	0	0	467	601	
0	0	0	0	0	467	600	
1	0	0	0	0	467	601	
2	0	0	0	0	472	601	
3	0	0	0	0	477	600	
4	0	0	0	0	483	603	
5	0	0	0	0	484	601	
6	0	0	0	0	484	601	
7	0	0	0	0	484	600	
8	0	0	0	0	483	598	
9	0	0	0	0	484	600	
10	0	0	0	0	487	600	
11	0	0	0	0	492	600	
12	0	0	0	0	494	601	
13	0	0	0	0	496	599	
14	0	0	0	0	497	600	
15	0	0	0	0	498	600	
0	0	0	0	0	504	598	
1	0	0	0	0	515	599	
2	0	0	0	0	530	600	
3	0	0	0	0	548	600	
4	0	0	0	0	573	602	
5	0	0	0	0	605	600	
6	0	0	0	0	633	600	
7	0	0	0	0	655	600	
8	0	0	0	0	672	599	
9	0	0	0	0	679	600	
10	0	0	0	0	680	600	
11	0	0	0	0	679	600	
12	0	0	0	0	676	602	
13	0	0	0	0	670	601	
14	0	0	0	0	656	601	
15	0	0	0	0	636	601	
0	0	0	0	0	618	600	
1	0	0	0	0	606	601	
2	0	0	0	0	596	602	
3	0	0	0	0	591	602	
4	0	0	0	0	588	604	
5	0	0	0	0	588	602	
6	0	0	0	0	593	603	
7	0	0	0	0	601	603	
8	0	0	0	0	608	601	
9	0	0	0	0	611	604	
10	0	0	0	0	611	604	
11	0	0	0	0	608	605	
12	0	0	0	0	601	606	
13	0	0	0	0	594	605	
14	0	0	0	0	588	605	
15	0	0	0	0	581	606	
0	0	0	0	0	577	604	
1	0	0	0	0	572	606	
2	0	0	0	0	569	607	
3	0	0	0	0	564	607	
4	0	0	0	0	556	608	
5	0	0	0	0	545	607	
6	0	0	0	0	530	607	
7	0	0	0	0	515	607	
8	0	0	0	0	503	606	
9	0	0	0	0	493	608	
10	0	0	0	0	485	607	
11	0	0	0	0	479	608	
12	0	0	0	0	472	609	
13	0	0	0	0	466	608	
14	0	0	0	0	460	608	
15	0	0	0	0	454	608	
0	0	0	0	0	448	606	
1	0	0	0	0	443	608	
2	0	0	0	0	438	608	
3	0	0	0	0	435	608	
4	0	0	0	0	434	609	
5	0	0	0	0	430	608	
6	0	0	0	0	425	608	
7	0	0	0	0	423	608	
8	0	0	0	0	423	607	
9	0	0	0	0	422	608	
10	0	0	0	0	422	608	
11	0	0	0	0	421	608	
12	0	0	0	0	418	611	
13	0	0	0	0	410	609	
14	0	0	0	0	404	609	
15	0	0	0	0	402	609	
0	0	0	0	0	402	607	
1	0	0	0	0	403	610	
2	0	0	0	0	404	609	
3	0	0	0	0	405	610	
4	0	0	0	0	407	611	
5	0	0	0	0	409	609	
6	0	0	0	0	411	609	
7	0	0	0	0	411	610	
8	0	0	0	0	412	607	
9	0	0	0	0	413	609	
10	0	0	0	0	415	610	
11	0	0	0	0	417	611	
12	0	0	0	0	419	612	
13	0	0	0	0	420	611	
14	0	0	0	0	422	611	
15	0	0	0	0	423	612	
0	0	0	0	0	426	610	
1	0	0	0	0	428	612	
2	0	0	0	0	430	612	
3	0	0	0	0	432	611	
4	0	0	0	0	434	613	
5	0	0	0	0	436	612	
6	0	0	0	0	439	612	
7	0	0	0	0	440	612	
8	0	0	0	0	440	611	
9	0	0	0	0	441	612	
10	0	0	0	0	443	613	
11	0	0	0	0	443	613	
12	0	0	0	0	444	615	
13	0	0	0	0	444	614	
14	0	0	0	0	447	613	
15	0	0	0	0	448	614	
0	0	0	0	0	449	611	
1	0	0	0	0	449	613	
2	0	0	0	0	451	614	
3	0	0	0	0	451	613	
4	0	0	0	0	453	615	
5	0	0	0	0	453	613	
6	0	0	0	0	452	613	
7	0	0	0	0	453	613	
8	0	0	0	0	454	611	
9	0	0	0	0	455	613	
10	0	0	0	0	455	613	
11	0	0	0	0	456	613	
12	0	0	0	0	457	615	
13	0	0	0	0	456	613	
14	0	0	0	0	457	613	
15	0	0	0	0	457	613	
0	0	0	0	0	458	611	
1	0	0	0	0	458	613	
2	0	0	0	0	458	614	
3	0	0	0	0	459	613	
4	0	0	0	0	459	615	
5	0	0	0	0	460	613	
6	0	0	0	0	462	614	
7	0	0	0	0	462	614	
8	0	0	0	0	462	612	
9	0	0	0	0	464	614	
10	0	0	0	0	465	614	
11	0	0	0	0	467	614	
12	0	0	0	0	469	615	
13	0	0	0	0	471	613	
14	0	0	0	0	472	614	
15	0	0	0	0	473	614	
0	0	0	0	0	473	612	
1	0	0	0	0	472	614	
2	0	0	0	0	472	614	
3	0	0	0	0	472	614	
4	0	0	0	0	472	617	
5	0	0	0	0	472	615	
6	0	0	0	0	473	614	
7	0	0	0	0	473	614	
8	0	0	0	0	473	613	
9	0	0	0	0	473	614	
10	0	0	0	0	473	614	
11	0	0	0	0	473	614	
12	0	0	0	0	472	616	
13	0	0	0	0	472	614	
14	0	0	0	0	472	615	
15	0	0	0	0	472	615	
0	0	0	0	0	473	612	
1	0	0	0	0	473	614	
2	0	0	0	0	474	614	
3	0	0	0	0	475	615	
4	0	0	0	0	475	616	
5	0	0	0	0	473	614	
6	0	0	0	0	471	614	
7	0	0	0	0	470	614	
8	0	0	0	0	469	613	
9	0	0	0	0	468	615	
10	0	0	0	0	468	615	
11	0	0	0	0	469	615	
12	0	0	0	0	471	616	
13	0	0	0	0	472	615	
14	0	0	0	0	472	615	
15	0	0	0	0	473	615	
0	0	0	0	0	473	613	
1	0	0	0	0	473	614	
2	0	0	0	0	472	615	
3	0	0	0	0	473	614	
4	0	0	0	0	474	615	
5	0	0	0	0	473	614	
6	0	0	0	0	472	614	
7	0	0	0	0	472	614	
8	0	0	0	0	472	612	
9	0	0	0	0	471	614	
10	0	0	0	0	471	614	
11	0	0	0	0	471	614	
12	0	0	0	0	472	616	
13	0	0	0	0	472	615	
14	0	0	0	0	472	615	
15	0	0	0	0	472	615	
0	0	0	0	0	472	612	
1	0	0	0	0	474	615	
2	0	0	0	0	475	614	
3	0	0	0	0	475	614	
4	0	0	0	0	475	615	
5	0	0	0	0	475	613	
6	0	0	0	0	476	614	
7	0	0	0	0	476	614	
8	0	0	0	0	475	611	
9	0	0	0	0	474	613	
10	0	0	0	0	474	614	
11	0	0	0	0	475	613	
12	0	0	0	0	478	615	
13	0	0	0	0	479	614	
14	0	0	0	0	481	613	
15	0	0	0	0	481	614	
0	0	0	0	0	482	612	
1	0	0	0	0	482	614	
2	0	0	0	0	483	612	
3	0	0	0	0	486	613	
4	0	0	0	0	488	614	
5	0	0	0	0	490	612	
6	0	0	0	0	493	612	
7	0	0	0	0	498	612	
8	0	0	0	0	504	611	
9	0	0	0	0	512	613	
10	0	0	0	0	519	612	
11	0	0	0	0	525	613	
12	0	0	0	0	527	614	
13	0	0	0	0	525	612	
14	0	0	0	0	519	612	
15	0	0	0	0	512	612	
0	0	0	0	0	503	610	
1	0	0	0	0	495	612	
2	0	0	0	0	488	611	
3	0	0	0	0	482	612	
4	0	0	0	0	479	614	
5	0	0	0	0	478	611	
6	0	0	0	0	476	611	
7	0	0	0	0	475	611	
8	0	0	0	0	474	609	
9	0	0	0	0	474	611	
10	0	0	0	0	476	611	
11	0	0	0	0	477	611	
12	0	0	0	0	480	612	
13	0	0	0	0	481	611	
14	0	0	0	0	483	610	
15	0	0	0	0	483	610	
0	0	0	0	0	484	607	
1	0	0	0	0	483	609	
2	0	0	0	0	482	609	
3	0	0	0	0	481	608	
4	0	0	0	0	480	610	
5	0	0	0	0	479	608	
6	0	0	0	0	480	608	
7	0	0	0	0	481	608	
8	0	0	0	0	482	606	
9	0	0	0	0	485	607	
10	0	0	0	0	486	607	
11	0	0	0	0	485	608	
12	0	0	0	0	485	609	
13	0	0	0	0	488	608	
14	0	0	0	0	490	608	
15	0	0	0	0	490	608	
0	0	0	0	0	489	606	
1	0	0	0	0	489	608	
2	0	0	0	0	489	608	
3	0	0	0	0	489	608	
4	0	0	0	0	489	610	
5	0	0	0	0	491	608	
6	0	0	0	0	492	608	
7	0	0	0	0	493	608	
8	0	0	0	0	493	607	
9	0	0	0	0	494	609	
10	0	0	0	0	496	609	
11	0	0	0	0	499	608	
12	0	0	0	0	501	611	
13	0	0	0	0	504	609	
14	0	0	0	0	508	609	
15	0	0	0	0	513	609	
0	0	0	0	0	516	607	
1	0	0	0	0	520	608	
2	0	0	0	0	524	608	
3	0	0	0	0	530	608	
4	0	0	0	0	534	609	
5	0	0	0	0	536	608	
6	0	0	0	0	538	609	
7	0	0	0	0	538	608	
8	0	0	0	0	539	607	
9	0	0	0	0	540	609	
10	0	0	0	0	539	609	
11	0	0	0	0	536	609	
12	0	0	0	0	533	612	
13	0	0	0	0	532	610	
14	0	0	0	0	533	611	
15	0	0	0	0	535	610	
0	0	0	0	0	536	609	
1	0	0	0	0	537	611	
2	0	0	0	0	539	611	
3	0	0	0	0	540	611	
4	0	0	0	0	542	613	
5	0	0	0	0	544	612	
6	0	0	0	0	547	612	
7	0	0	0	0	550	613	
8	0	0	0	0	551	611	
9	0	0	0	0	553	613	
10	0	0	0	0	555	612	
11	0	0	0	0	556	614	
12	0	0	0	0	558	615	
13	0	0	0	0	561	614	
14	0	0	0	0	563	614	
15	0	0	0	0	566	615	
0	0	0	0	0	568	613	
1	0	0	0	0	571	615	
2	0	0	0	0	574	615	
3	0	0	0	0	577	615	
4	0	0	0	0	579	617	
5	0	0	0	0	578	615	
6	0	0	0	0	578	616	
7	0	0	0	0	577	616	
8	0	0	0	0	575	615	
9	0	0	0	0	573	617	
10	0	0	0	0	573	618	
11	0	0	0	0	572	618	
12	0	0	0	0	572	620	
13	0	0	0	0	571	619	
14	0	0	0	0	571	619	
15	0	0	0	0	571	620	
0	0	0	0	0	572	619	
1	0	0	0	0	572	620	
2	0	0	0	0	572	620	
3	0	0	0	0	570	620	
4	0	0	0	0	568	623	
5	0	0	0	0	568	621	
6	0	0	0	0	567	621	
7	0	0	0	0	566	621	
8	0	0	0	0	564	620	
9	0	0	0	0	564	622	
10	0	0	0	0	563	622	
11	0	0	0	0	563	622	
12	0	0	0	0	562	624	
13	0	0	0	0	561	622	
14	0	0	0	0	562	622	
15	0	0	0	0	561	623	
0	0	0	0	0	560	621	
1	0	0	0	0	560	623	
2	0	0	0	0	560	623	
3	0	0	0	0	560	622	
4	0	0	0	0	560	625	
5	0	0	0	0	561	624	
6	0	0	0	0	561	623	
7	0	0	0	0	561	624	
8	0	0	0	0	562	622	
9	0	0	0	0	562	623	
10	0	0	0	0	562	623	
11	0	0	0	0	561	623	
12	0	0	0	0	561	625	
13	0	0	0	0	561	624	
14	0	0	0	0	561	623	
15	0	0	0	0	561	623	
0	0	0	0	0	561	622	
1	0	0	0	0	561	624	
2	0	0	0	0	560	623	
3	0	0	0	0	559	622	
4	0	0	0	0	559	625	
5	0	0	0	0	559	624	
6	0	0	0	0	560	622	
7	0	0	0	0	562	623	
8	0	0	0	0	564	621	
9	0	0	0	0	566	623	
10	0	0	0	0	568	623	
11	0	0	0	0	569	623	
12	0	0	0	0	570	624	
13	0	0	0	0	570	623	
14	0	0	0	0	570	623	
15	0	0	0	0	569	623	
0	0	0	0	0	567	622	
1	0	0	0	0	565	624	
2	0	0	0	0	563	624	
3	0	0	0	0	559	624	
4	0	0	0	0	555	626	
5	0	0	0	0	552	624	
6	0	0	0	0	548	625	
7	0	0	0	0	545	625	
8	0	0	0	0	543	623	
9	0	0	0	0	542	625	
10	0	0	0	0	542	625	
11	0	0	0	0	542	625	
12	0	0	0	0	541	627	
13	0	0	0	0	542	625	
14	0	0	0	0	544	625	
15	0	0	0	0	544	625	
0	0	0	0	0	544	624	
1	0	0	0	0	543	626	
2	0	0	0	0	543	625	
3	0	0	0	0	543	626	
4	0	0	0	0	542	628	
5	0	0	0	0	542	626	
6	0	0	0	0	542	625	
7	0	0	0	0	543	626	
8	0	0	0	0	543	624	
9	0	0	0	0	543	626	
10	0	0	0	0	543	626	
11	0	0	0	0	543	626	
12	0	0	0	0	543	627	
13	0	0	0	0	543	626	
14	0	0	0	0	543	625	
15	0	0	0	0	542	626	
0	0	0	0	0	541	624	
1	0	0	0	0	541	625	
2	0	0	0	0	541	626	
3	0	0	0	0	540	626	
4	0	0	0	0	540	627	
5	0	0	0	0	540	625	
6	0	0	0	0	540	625	
7	0	0	0	0	540	625	
8	0	0	0	0	540	623	
9	0	0	0	0	540	625	
10	0	0	0	0	540	624	
11	0	0	0	0	541	625	
12	0	0	0	0	541	626	
13	0	0	0	0	541	624	
14	0	0	0	0	541	624	
15	0	0	0	0	540	624	
0	0	0	0	0	540	623	
1	0	0	0	0	540	625	
2	0	0	0	0	539	624	
3	0	0	0	0	538	624	
4	0	0	0	0	539	626	
5	0	0	0	0	540	624	
6	0	0	0	0	542	625	
7	0	0	0	0	543	624	
8	0	0	0	0	542	623	
9	0	0	0	0	542	624	
10	0	0	0	0	542	624	
11	0	0	0	0	542	624	
12	0	0	0	0	542	625	
13	0	0	0	0	541	624	
14	0	0	0	0	542	624	
15	0	0	0	0	543	624	
0	0	0	0	0	544	621	
1	0	0	0	0	546	622	
2	0	0	0	0	547	623	
3	0	0	0	0	547	623	
4	0	0	0	0	548	624	
5	0	0	0	0	550	623	
6	0	0	0	0	549	623	
7	0	0	0	0	547	624	
8	0	0	0	0	543	622	
9	0	0	0	0	541	623	
10	0	0	0	0	538	623	
11	0	0	0	0	535	623	
12	0	0	0	0	532	624	
13	0	0	0	0	529	622	
14	0	0	0	0	527	622	
15	0	0	0	0	526	622	
0	0	0	0	0	525	620	
1	0	0	0	0	525	622	
2	0	0	0	0	526	621	
3	0	0	0	0	526	622	
4	0	0	0	0	527	623	
5	0	0	0	0	527	621	
6	0	0	0	0	529	621	
7	0	0	0	0	531	621	
8	0	0	0	0	533	619	
9	0	0	0	0	535	621	
10	0	0	0	0	535	621	
11	0	0	0	0	536	621	
12	0	0	0	0	536	622	
13	0	0	0	0	536	621	
14	0	0	0	0	535	621	
15	0	0	0	0	534	620	
0	0	0	0	0	533	618	
1	0	0	0	0	533	620	
2	0	0	0	0	534	620	
3	0	0	0	0	535	620	
4	0	0	0	0	536	622	
5	0	0	0	0	535	620	
6	0	0	0	0	534	620	
7	0	0	0	0	534	620	
8	0	0	0	0	532	617	
9	0	0	0	0	531	619	
10	0	0	0	0	531	619	
11	0	0	0	0	530	620	
12	0	0	0	0	529	621	
13	0	0	0	0	527	619	
14	0	0	0	0	525	619	
15	0	0	0	0	522	618	
0	0	0	0	0	520	615	
1	0	0	0	0	519	618	
2	0	0	0	0	520	617	
3	0	0	0	0	520	617	
4	0	0	0	0	520	619	
5	0	0	0	0	521	617	
6	0	0	0	0	521	617	
7	0	0	0	0	521	617	
8	0	0	0	0	521	615	
9	0	0	0	0	521	616	
10	0	0	0	0	522	616	
11	0	0	0	0	523	616	
12	0	0	0	0	524	618	
13	0	0	0	0	524	616	
14	0	0	0	0	523	617	
15	0	0	0	0	522	616	
0	0	0	0	0	522	615	
1	0	0	0	0	521	615	
2	0	0	0	0	521	616	
3	0	0	0	0	522	617	
4	0	0	0	0	522	619	
5	0	0	0	0	523	617	
6	0	0	0	0	523	617	
7	0	0	0	0	523	617	
8	0	0	0	0	523	615	
9	0	0	0	0	524	617	
10	0	0	0	0	525	617	
11	0	0	0	0	526	617	
12	0	0	0	0	526	619	
13	0	0	0	0	527	617	
14	0	0	0	0	526	617	
15	0	0	0	0	525	617	
0	0	0	0	0	523	616	
1	0	0	0	0	520	618	
2	0	0	0	0	516	618	
3	0	0	0	0	513	617	
4	0	0	0	0	510	620	
5	0	0	0	0	508	618	
6	0	0	0	0	507	618	
7	0	0	0	0	505	619	
8	0	0	0	0	505	616	
9	0	0	0	0	505	618	
10	0	0	0	0	506	620	
11	0	0	0	0	507	620	
12	0	0	0	0	509	622	
13	0	0	0	0	510	620	
14	0	0	0	0	511	620	
15	0	0	0	0	512	621	
0	0	0	0	0	512	620	
1	0	0	0	0	512	621	
2	0	0	0	0	512	621	
3	0	0	0	0	514	621	
4	0	0	0	0	515	623	
5	0	0	0	0	517	622	
6	0	0	0	0	518	623	
7	0	0	0	0	519	623	
8	0	0	0	0	522	621	
9	0	0	0	0	521	623	
10	0	0	0	0	521	624	
11	0	0	0	0	521	624	
12	0	0	0	0	521	626	
13	0	0	0	0	523	625	
14	0	0	0	0	524	625	
15	0	0	0	0	524	625	
0	0	0	0	0	524	624	
1	0	0	0	0	524	625	
2	0	0	0	0	524	626	
3	0	0	0	0	526	626	
4	0	0	0	0	527	628	
5	0	0	0	0	529	627	
6	0	0	0	0	530	627	
7	0	0	0	0	531	627	
8	0	0	0	0	533	625	
9	0	0	0	0	534	627	
10	0	0	0	0	534	629	
11	0	0	0	0	534	628	
12	0	0	0	0	533	631	
13	0	0	0	0	532	629	
14	0	0	0	0	531	629	
15	0	0	0	0	530	629	
0	0	0	0	0	527	627	
1	0	0	0	0	526	629	
2	0	0	0	0	525	629	
3	0	0	0	0	526	630	
4	0	0	0	0	527	632	
5	0	0	0	0	528	630	
6	0	0	0	0	529	630	
7	0	0	0	0	529	629	
8	0	0	0	0	528	628	
9	0	0	0	0	528	629	
10	0	0	0	0	526	629	
11	0	0	0	0	524	630	
12	0	0	0	0	522	631	
13	0	0	0	0	520	629	
14	0	0	0	0	519	630	
15	0	0	0	0	519	629	
0	0	0	0	0	517	627	
1	0	0	0	0	517	629	
2	0	0	0	0	518	628	
3	0	0	0	0	519	629	
4	0	0	0	0	519	631	
5	0	0	0	0	520	629	
6	0	0	0	0	520	629	
7	0	0	0	0	520	629	
8	0	0	0	0	521	627	
9	0	0	0	0	521	629	
10	0	0	0	0	520	629	
11	0	0	0	0	520	628	
12	0	0	0	0	520	630	
13	0	0	0	0	520	628	
14	0	0	0	0	520	628	
15	0	0	0	0	521	627	
0	0	0	0	0	520	626	
1	0	0	0	0	520	627	
2	0	0	0	0	521	627	
3	0	0	0	0	521	627	
4	0	0	0	0	522	629	
5	0	0	0	0	522	627	
6	0	0	0	0	523	627	
7	0	0	0	0	522	627	
8	0	0	0	0	522	624	
9	0	0	0	0	522	626	
10	0	0	0	0	523	626	
11	0	0	0	0	525	626	
12	0	0	0	0	524	627	
13	0	0	0	0	524	624	
14	0	0	0	0	524	625	
15	0	0	0	0	525	625	
0	0	0	0	0	526	623	
1	0	0	0	0	525	625	
2	0	0	0	0	526	624	
3	0	0	0	0	526	624	
4	0	0	0	0	526	626	
5	0	0	0	0	525	624	
6	0	0	0	0	523	624	
7	0	0	0	0	522	623	
8	0	0	0	0	521	622	
9	0	0	0	0	519	623	
10	0	0	0	0	519	622	
11	0	0	0	0	517	622	
12	0	0	0	0	515	624	
13	0	0	0	0	514	623	
14	0	0	0	0	512	622	
15	0	0	0	0	511	623	
0	0	0	0	0	511	621	
1	0	0	0	0	511	622	
2	0	0	0	0	510	622	
3	0	0	0	0	510	622	
4	0	0	0	0	511	624	
5	0	0	0	0	511	622	
6	0	0	0	0	513	622	
7	0	0	0	0	514	622	
8	0	0	0	0	516	620	
9	0	0	0	0	519	622	
10	0	0	0	0	518	622	
11	0	0	0	0	517	622	
12	0	0	0	0	516	623	
13	0	0	0	0	515	621	
14	0	0	0	0	515	621	
15	0	0	0	0	515	621	
0	0	0	0	0	515	619	
1	0	0	0	0	515	621	
2	0	0	0	0	514	621	
3	0	0	0	0	512	620	
4	0	0	0	0	508	622	
5	0	0	0	0	504	621	
6	0	0	0	0	499	620	
7	0	0	0	0	493	619	
8	0	0	0	0	488	617	
9	0	0	0	0	486	619	
10	0	0	0	0	485	619	
11	0	0	0	0	489	620	
12	0	0	0	0	495	621	
13	0	0	0	0	503	619	
14	0	0	0	0	508	619	
15	0	0	0	0	512	618	
0	0	0	0	0	514	617	
1	0	0	0	0	515	619	
2	0	0	0	0	518	618	
3	0	0	0	0	523	619	
4	0	0	0	0	527	620	
5	0	0	0	0	531	619	
6	0	0	0	0	534	619	
7	0	0	0	0	536	619	
8	0	0	0	0	540	616	
9	0	0	0	0	550	619	
10	0	0	0	0	567	619	
11	0	0	0	0	585	619	
12	0	0	0	0	608	620	
13	0	0	0	0	638	619	
14	0	0	0	0	668	618	
15	0	0	0	0	696	619	
0	0	0	0	0	717	617	
1	0	0	0	0	730	618	
2	0	0	0	0	734	619	
3	0	0	0	0	733	619	
4	0	0	0	0	730	621	
5	0	0	0	0	725	619	
6	0	0	0	0	715	619	
7	0	0	0	0	698	619	
8	0	0	0	0	680	617	
9	0	0	0	0	665	619	
10	0	0	0	0	654	619	
11	0	0	0	0	644	620	
12	0	0	0	0	635	622	
13	0	0	0	0	629	619	
14	0	0	0	0	627	619	
15	0	0	0	0	630	619	
0	0	0	0	0	634	618	
1	0	0	0	0	637	619	
2	0	0	0	0	637	620	
3	0	0	0	0	634	619	
4	0	0	0	0	630	621	
5	0	0	0	0	625	619	
6	0	0	0	0	620	619	
7	0	0	0	0	615	619	
8	0	0	0	0	609	617	
9	0	0	0	0	603	618	
10	0	0	0	0	595	619	
11	0	0	0	0	586	619	
12	0	0	0	0	575	620	
13	0	0	0	0	565	619	
14	0	0	0	0	555	618	
15	0	0	0	0	543	618	
0	0	0	0	0	532	616	
1	0	0	0	0	523	618	
2	0	0	0	0	513	618	
3	0	0	0	0	504	619	
4	0	0	0	0	495	620	
5	0	0	0	0	485	618	
6	0	0	0	0	476	619	
7	0	0	0	0	467	619	
8	0	0	0	0	461	617	
9	0	0	0	0	455	618	
10	0	0	0	0	450	619	
11	0	0	0	0	447	619	
12	0	0	0	0	444	620	
13	0	0	0	0	440	618	
14	0	0	0	0	439	618	
15	0	0	0	0	438	619	
0	0	0	0	0	436	617	
1	0	0	0	0	435	618	
2	0	0	0	0	435	618	
3	0	0	0	0	434	618	
4	0	0	0	0	434	620	
5	0	0	0	0	435	618	
6	0	0	0	0	435	618	
7	0	0	0	0	435	618	
8	0	0	0	0	435	616	
9	0	0	0	0	435	618	
10	0	0	0	0	435	619	
11	0	0	0	0	435	618	
12	0	0	0	0	435	620	
13	0	0	0	0	435	619	
14	0	0	0	0	437	619	
15	0	0	0	0	437	618	
0	0	0	0	0	437	617	
1	0	0	0	0	438	618	
2	0	0	0	0	439	618	
3	0	0	0	0	440	618	
4	0	0	0	0	441	620	
5	0	0	0	0	442	618	
6	0	0	0	0	443	618	
7	0	0	0	0	444	618	
8	0	0	0	0	445	616	
9	0	0	0	0	447	617	
10	0	0	0	0	448	618	
11	0	0	0	0	449	618	
12	0	0	0	0	449	620	
13	0	0	0	0	450	619	
14	0	0	0	0	451	618	
15	0	0	0	0	450	618	
0	0	0	0	0	450	616	
1	0	0	0	0	450	618	
2	0	0	0	0	450	618	
3	0	0	0	0	449	617	
4	0	0	0	0	450	620	
5	0	0	0	0	450	618	
6	0	0	0	0	449	618	
7	0	0	0	0	448	618	
8	0	0	0	0	447	617	
9	0	0	0	0	446	618	
10	0	0	0	0	445	618	
11	0	0	0	0	444	618	
12	0	0	0	0	444	620	
13	0	0	0	0	443	618	
14	0	0	0	0	442	618	
15	0	0	0	0	442	618	
0	0	0	0	0	443	616	
1	0	0	0	0	443	618	
2	0	0	0	0	443	618	
3	0	0	0	0	443	617	
4	0	0	0	0	444	620	
5	0	0	0	0	444	618	
6	0	0	0	0	444	618	
7	0	0	0	0	445	618	
8	0	0	0	0	445	616	
9	0	0	0	0	445	617	
10	0	0	0	0	446	618	
11	0	0	0	0	447	618	
12	0	0	0	0	447	620	
13	0	0	0	0	448	618	
14	0	0	0	0	448	618	
15	0	0	0	0	449	618	
0	0	0	0	0	451	616	
1	0	0	0	0	452	619	
2	0	0	0	0	452	619	
3	0	0	0	0	453	619	
4	0	0	0	0	454	621	
5	0	0	0	0	453	619	
6	0	0	0	0	453	619	
7	0	0	0	0	454	619	
8	0	0	0	0	453	617	
9	0	0	0	0	453	620	
10	0	0	0	0	453	619	
11	0	0	0	0	452	620	
12	0	0	0	0	453	621	
13	0	0	0	0	454	620	
14	0	0	0	0	455	620	
15	0	0	0	0	455	620	
0	0	0	0	0	455	617	
1	0	0	0	0	455	620	
2	0	0	0	0	455	620	
3	0	0	0	0	456	619	
4	0	0	0	0	457	621	
5	0	0	0	0	457	620	
6	0	0	0	0	460	620	
7	0	0	0	0	461	620	
8	0	0	0	0	460	619	
9	0	0	0	0	460	620	
10	0	0	0	0	460	620	
11	0	0	0	0	460	620	
12	0	0	0	0	461	622	
13	0	0	0	0	462	620	
14	0	0	0	0	464	620	
15	0	0	0	0	464	619	
0	0	0	0	0	466	618	
1	0	0	0	0	467	619	
2	0	0	0	0	470	619	
3	0	0	0	0	475	619	
4	0	0	0	0	478	621	
5	0	0	0	0	481	618	
6	0	0	0	0	483	618	
7	0	0	0	0	487	617	
8	0	0	0	0	487	615	
9	0	0	0	0	485	616	
10	0	0	0	0	481	617	
11	0	0	0	0	477	616	
12	0	0	0	0	473	617	
13	0	0	0	0	468	615	
14	0	0	0	0	459	615	
15	0	0	0	0	451	615	
0	0	0	0	0	443	613	
1	0	0	0	0	435	614	
2	0	0	0	0	431	613	
3	0	0	0	0	430	614	
4	0	0	0	0	431	615	
5	0	0	0	0	432	612	
6	0	0	0	0	432	612	
7	0	0	0	0	433	612	
8	0	0	0	0	435	610	
9	0	0	0	0	436	612	
10	0	0	0	0	437	611	
11	0	0	0	0	438	611	
12	0	0	0	0	439	613	
13	0	0	0	0	440	611	
14	0	0	0	0	443	611	
15	0	0	0	0	445	610	
0	0	0	0	0	448	608	
1	0	0	0	0	449	610	
2	0	0	0	0	449	609	
3	0	0	0	0	448	609	
4	0	0	0	0	447	610	
5	0	0	0	0	448	609	
6	0	0	0	0	449	609	
7	0	0	0	0	451	608	
8	0	0	0	0	453	606	
9	0	0	0	0	454	608	
10	0	0	0	0	452	608	
11	0	0	0	0	450	608	
12	0	0	0	0	447	609	
13	0	0	0	0	444	607	
14	0	0	0	0	443	606	
15	0	0	0	0	444	607	
0	0	0	0	0	444	605	
1	0	0	0	0	444	607	
2	0	0	0	0	446	607	
3	0	0	0	0	447	606	
4	0	0	0	0	448	608	
5	0	0	0	0	449	606	
6	0	0	0	0	450	606	
7	0	0	0	0	451	606	
8	0	0	0	0	453	605	
9	0	0	0	0	454	607	
10	0	0	0	0	455	606	
11	0	0	0	0	456	607	
12	0	0	0	0	458	609	
13	0	0	0	0	460	607	
14	0	0	0	0	463	608	
15	0	0	0	0	467	607	
0	0	0	0	0	469	606	
1	0	0	0	0	472	608	
2	0	0	0	0	470	608	
3	0	0	0	0	467	608	
4	0	0	0	0	464	610	
5	0	0	0	0	462	609	
6	0	0	0	0	461	609	
7	0	0	0	0	461	610	
8	0	0	0	0	461	608	
9	0	0	0	0	460	610	
10	0	0	0	0	458	611	
11	0	0	0	0	458	611	
12	0	0	0	0	457	613	
13	0	0	0	0	459	612	
14	0	0	0	0	461	614	
15	0	0	0	0	464	614	
0	0	0	0	0	466	612	
1	0	0	0	0	469	615	
2	0	0	0	0	471	615	
3	0	0	0	0	473	615	
4	0	0	0	0	476	618	
5	0	0	0	0	478	618	
6	0	0	0	0	478	618	
7	0	0	0	0	478	618	
8	0	0	0	0	476	617	
9	0	0	0	0	476	620	
10	0	0	0	0	477	620	
11	0	0	0	0	477	621	
12	0	0	0	0	478	624	
13	0	0	0	0	478	623	
14	0	0	0	0	477	623	
15	0	0	0	0	477	624	
0	0	0	0	0	475	623	
1	0	0	0	0	470	625	
2	0	0	0	0	469	626	
3	0	0	0	0	473	627	
4	0	0	0	0	479	629	
5	0	0	0	0	481	627	
6	0	0	0	0	483	628	
7	0	0	0	0	486	630	
8	0	0	0	0	486	628	
9	0	0	0	0	487	630	
10	0	0	0	0	487	631	
11	0	0	0	0	488	632	
12	0	0	0	0	491	634	
13	0	0	0	0	492	633	
14	0	0	0	0	494	633	
15	0	0	0	0	497	633	
0	0	0	0	0	501	632	
1	0	0	0	0	505	634	
2	0	0	0	0	508	635	
3	0	0	0	0	512	635	
4	0	0	0	0	517	637	
5	0	0	0	0	523	635	
6	0	0	0	0	527	636	
7	0	0	0	0	533	636	
8	0	0	0	0	537	633	
9	0	0	0	0	543	636	
10	0	0	0	0	544	636	
11	0	0	0	0	543	636	
12	0	0	0	0	546	637	
13	0	0	0	0	548	636	
14	0	0	0	0	550	636	
15	0	0	0	0	547	636	
0	0	0	0	0	542	633	
1	0	0	0	0	537	636	
2	0	0	0	0	531	636	
3	0	0	0	0	527	635	
4	0	0	0	0	525	636	
5	0	0	0	0	524	635	
6	0	0	0	0	525	634	
7	0	0	0	0	527	634	
8	0	0	0	0	528	632	
9	0	0	0	0	530	632	
10	0	0	0	0	531	632	
11	0	0	0	0	530	632	
12	0	0	0	0	528	633	
13	0	0	0	0	527	632	
14	0	0	0	0	525	631	
15	0	0	0	0	524	631	
0	0	0	0	0	527	629	
1	0	0	0	0	531	629	
2	0	0	0	0	536	629	
3	0	0	0	0	541	628	
4	0	0	0	0	542	630	
5	0	0	0	0	540	627	
6	0	0	0	0	534	627	
7	0	0	0	0	531	627	
8	0	0	0	0	532	624	
9	0	0	0	0	537	625	
10	0	0	0	0	543	625	
11	0	0	0	0	551	624	
12	0	0	0	0	559	625	
13	0	0	0	0	564	623	
14	0	0	0	0	563	623	
15	0	0	0	0	560	622	
0	0	0	0	0	556	620	
1	0	0	0	0	550	621	
2	0	0	0	0	545	621	
3	0	0	0	0	546	621	
4	0	0	0	0	548	622	
5	0	0	0	0	553	620	
6	0	0	0	0	558	620	
7	0	0	0	0	560	619	
8	0	0	0	0	558	616	
9	0	0	0	0	554	618	
10	0	0	0	0	553	617	
11	0	0	0	0	550	617	
12	0	0	0	0	547	618	
13	0	0	0	0	548	616	
14	0	0	0	0	553	615	
15	0	0	0	0	558	615	
0	0	0	0	0	561	613	
1	0	0	0	0	560	614	
2	0	0	0	0	553	614	
3	0	0	0	0	545	613	
4	0	0	0	0	538	615	
5	0	0	0	0	536	613	
6	0	0	0	0	539	612	
7	0	0	0	0	543	612	
8	0	0	0	0	542	610	
9	0	0	0	0	536	611	
10	0	0	0	0	525	611	
11	0	0	0	0	511	611	
12	0	0	0	0	505	612	
13	0	0	0	0	502	609	
14	0	0	0	0	501	609	
15	0	0	0	0	502	610	
0	0	0	0	0	498	608	
1	0	0	0	0	489	609	
2	0	0	0	0	482	609	
3	0	0	0	0	476	608	
4	0	0	0	0	479	610	
5	0	0	0	0	482	608	
6	0	0	0	0	485	608	
7	0	0	0	0	492	608	
8	0	0	0	0	493	606	
9	0	0	0	0	496	607	
10	0	0	0	0	498	607	
11	0	0	0	0	498	607	
12	0	0	0	0	498	609	
13	0	0	0	0	497	606	
14	0	0	0	0	495	606	
15	0	0	0	0	495	606	
0	0	0	0	0	494	604	
1	0	0	0	0	495	606	
2	0	0	0	0	497	606	
3	0	0	0	0	497	606	
4	0	0	0	0	496	608	
5	0	0	0	0	497	606	
6	0	0	0	0	495	606	
7	0	0	0	0	495	607	
8	0	0	0	0	498	604	
9	0	0	0	0	500	606	
10	0	0	0	0	503	607	
11	0	0	0	0	505	606	
12	0	0	0	0	508	608	
13	0	0	0	0	507	607	
14	0	0	0	0	512	607	
15	0	0	0	0	515	608	
0	0	0	0	0	515	606	
1	0	0	0	0	508	608	
2	0	0	0	0	511	608	
3	0	0	0	0	516	608	
4	0	0	0	0	525	611	
5	0	0	0	0	521	609	
6	0	0	0	0	519	609	
7	0	0	0	0	518	609	
8	0	0	0	0	516	608	
9	0	0	0	0	514	610	
10	0	0	0	0	518	610	
11	0	0	0	0	517	610	
12	0	0	0	0	518	611	
13	0	0	0	0	528	610	
14	0	0	0	0	524	610	
15	0	0	0	0	522	611	
0	0	0	0	0	528	608	
1	0	0	0	0	532	611	
2	0	0	0	0	536	611	
3	0	0	0	0	532	611	
4	0	0	0	0	534	612	
5	0	0	0	0	540	611	
6	0	0	0	0	541	611	
7	0	0	0	0	532	611	
8	0	0	0	0	526	609	
9	0	0	0	0	523	611	
10	0	0	0	0	516	612	
11	0	0	0	0	508	611	
12	0	0	0	0	508	614	
13	0	0	0	0	515	611	
14	0	0	0	0	527	612	
15	0	0	0	0	538	612	
0	0	0	0	0	536	610	
1	0	0	0	0	528	611	
2	0	0	0	0	518	611	
3	0	0	0	0	513	611	
4	0	0	0	0	517	613	
5	0	0	0	0	524	611	
6	0	0	0	0	514	612	
7	0	0	0	0	504	612	
8	0	0	0	0	495	610	
9	0	0	0	0	496	612	
10	0	0	0	0	500	612	
11	0	0	0	0	497	612	
12	0	0	0	0	498	614	
13	0	0	0	0	505	612	
14	0	0	0	0	507	611	
15	0	0	0	0	500	611	
0	0	0	0	0	497	609	
1	0	0	0	0	499	611	
2	0	0	0	0	511	611	
3	0	0	0	0	514	611	
4	0	0	0	0	514	612	
5	0	0	0	0	511	611	
6	0	0	0	0	499	611	
7	0	0	0	0	498	610	
8	0	0	0	0	508	608	
9	0	0	0	0	511	611	
10	0	0	0	0	510	610	
11	0	0	0	0	497	610	
12	0	0	0	0	488	612	
13	0	0	0	0	489	611	
14	0	0	0	0	502	610	
15	0	0	0	0	509	610	
0	0	0	0	0	505	609	
1	0	0	0	0	503	610	
2	0	0	0	0	509	610	
3	0	0	0	0	505	611	
4	0	0	0	0	500	611	
5	0	0	0	0	494	611	
6	0	0	0	0	485	611	
7	0	0	0	0	473	611	
8	0	0	0	0	465	609	
9	0	0	0	0	462	611	
10	0	0	0	0	467	611	
11	0	0	0	0	464	611	
12	0	0	0	0	460	613	
13	0	0	0	0	457	611	
14	0	0	0	0	458	611	
15	0	0	0	0	457	612	
0	0	0	0	0	456	609	
1	0	0	0	0	457	611	
2	0	0	0	0	459	611	
3	0	0	0	0	460	611	
4	0	0	0	0	460	613	
5	0	0	0	0	459	611	
6	0	0	0	0	459	611	
7	0	0	0	0	461	612	
8	0	0	0	0	462	610	
9	0	0	0	0	462	611	
10	0	0	0	0	463	611	
11	0	0	0	0	463	611	
12	0	0	0	0	469	613	
13	0	0	0	0	478	612	
14	0	0	0	0	487	612	
15	0	0	0	0	491	611	
0	0	0	0	0	487	609	
1	0	0	0	0	479	611	
2	0	0	0	0	468	612	
3	0	0	0	0	463	611	
4	0	0	0	0	462	613	
5	0	0	0	0	462	612	
6	0	0	0	0	462	612	
7	0	0	0	0	462	612	
8	0	0	0	0	463	610	
9	0	0	0	0	464	612	
10	0	0	0	0	465	612	
11	0	0	0	0	466	612	
12	0	0	0	0	467	614	
13	0	0	0	0	467	613	
14	0	0	0	0	467	612	
15	0	0	0	0	468	612	
0	0	0	0	0	468	610	
1	0	0	0	0	468	612	
2	0	0	0	0	470	612	
3	0	0	0	0	470	611	
4	0	0	0	0	471	614	
5	0	0	0	0	471	612	
6	0	0	0	0	471	612	
7	0	0	0	0	472	612	
8	0	0	0	0	473	610	
9	0	0	0	0	474	611	
10	0	0	0	0	475	611	
11	0	0	0	0	476	611	
12	0	0	0	0	477	613	
13	0	0	0	0	477	611	
14	0	0	0	0	477	612	
15	0	0	0	0	478	612	
0	0	0	0	0	479	610	
1	0	0	0	0	480	612	
2	0	0	0	0	482	611	
3	0	0	0	0	483	611	
4	0	0	0	0	484	613	
5	0	0	0	0	486	612	
6	0	0	0	0	486	612	
7	0	0	0	0	485	611	
8	0	0	0	0	485	610	
9	0	0	0	0	486	611	
10	0	0	0	0	487	612	
11	0	0	0	0	487	611	
12	0	0	0	0	490	613	
13	0	0	0	0	491	612	
14	0	0	0	0	491	611	
15	0	0	0	0	492	611	
0	0	0	0	0	492	610	
1	0	0	0	0	492	611	
2	0	0	0	0	492	611	
3	0	0	0	0	492	612	
4	0	0	0	0	492	612	
5	0	0	0	0	494	611	
6	0	0	0	0	496	611	
7	0	0	0	0	496	611	
8	0	0	0	0	496	609	
9	0	0	0	0	496	611	
10	0	0	0	0	498	610	
11	0	0	0	0	496	611	
12	0	0	0	0	491	612	
13	0	0	0	0	487	611	
14	0	0	0	0	484	611	
15	0	0	0	0	486	611	
0	0	0	0	0	488	609	
1	0	0	0	0	491	610	
2	0	0	0	0	491	609	
3	0	0	0	0	490	610	
4	0	0	0	0	487	612	
5	0	0	0	0	485	610	
6	0	0	0	0	487	610	
7	0	0	0	0	494	610	
8	0	0	0	0	499	608	
9	0	0	0	0	504	610	
10	0	0	0	0	506	610	
11	0	0	0	0	507	610	
12	0	0	0	0	510	612	
13	0	0	0	0	508	609	
14	0	0	0	0	512	610	
15	0	0	0	0	511	610	
0	0	0	0	0	510	608	
1	0	0	0	0	506	609	
2	0	0	0	0	499	609	
3	0	0	0	0	491	608	
4	0	0	0	0	485	611	
5	0	0	0	0	483	609	
6	0	0	0	0	483	608	
7	0	0	0	0	483	608	
8	0	0	0	0	481	606	
9	0	0	0	0	480	608	
10	0	0	0	0	480	607	
11	0	0	0	0	479	607	
12	0	0	0	0	478	609	
13	0	0	0	0	478	607	
14	0	0	0	0	480	607	
15	0	0	0	0	481	607	
0	0	0	0	0	484	606	
1	0	0	0	0	483	608	
2	0	0	0	0	479	607	
3	0	0	0	0	473	607	
4	0	0	0	0	473	609	
5	0	0	0	0	470	607	
6	0	0	0	0	467	607	
7	0	0	0	0	463	607	
8	0	0	0	0	460	604	
9	0	0	0	0	455	607	
10	0	0	0	0	450	607	
11	0	0	0	0	448	607	
12	0	0	0	0	449	609	
13	0	0	0	0	452	607	
14	0	0	0	0	455	607	
15	0	0	0	0	455	608	
0	0	0	0	0	454	605	
1	0	0	0	0	454	607	
2	0	0	0	0	456	608	
3	0	0	0	0	462	607	
4	0	0	0	0	467	609	
5	0	0	0	0	469	607	
6	0	0	0	0	472	608	
7	0	0	0	0	472	608	
8	0	0	0	0	474	605	
9	0	0	0	0	479	607	
10	0	0	0	0	484	607	
11	0	0	0	0	486	607	
12	0	0	0	0	481	609	
13	0	0	0	0	474	608	
14	0	0	0	0	472	608	
15	0	0	0	0	473	608	
0	0	0	0	0	475	604	
1	0	0	0	0	476	608	
2	0	0	0	0	468	608	
3	0	0	0	0	465	608	
4	0	0	0	0	461	610	
5	0	0	0	0	458	608	
6	0	0	0	0	457	608	
7	0	0	0	0	462	609	
8	0	0	0	0	470	606	
9	0	0	0	0	472	608	
10	0	0	0	0	466	608	
11	0	0	0	0	468	608	
12	0	0	0	0	464	610	
13	0	0	0	0	469	609	
14	0	0	0	0	479	609	
15	0	0	0	0	489	609	
0	0	0	0	0	494	608	
1	0	0	0	0	490	610	
2	0	0	0	0	493	610	
3	0	0	0	0	489	610	
4	0	0	0	0	480	612	
5	0	0	0	0	469	611	
6	0	0	0	0	473	611	
7	0	0	0	0	491	610	
8	0	0	0	0	491	609	
9	0	0	0	0	491	611	
10	0	0	0	0	499	611	
11	0	0	0	0	507	612	
12	0	0	0	0	511	614	
13	0	0	0	0	521	612	
14	0	0	0	0	527	612	
15	0	0	0	0	540	613	
0	0	0	0	0	547	610	
1	0	0	0	0	545	613	
2	0	0	0	0	542	614	
3	0	0	0	0	535	614	
4	0	0	0	0	532	615	
5	0	0	0	0	531	614	
6	0	0	0	0	531	615	
7	0	0	0	0	544	615	
8	0	0	0	0	551	614	
9	0	0	0	0	558	616	
10	0	0	0	0	573	616	
11	0	0	0	0	589	616	
12	0	0	0	0	595	619	
13	0	0	0	0	610	618	
14	0	0	0	0	620	618	
15	0	0	0	0	613	618	
0	0	0	0	0	611	616	
1	0	0	0	0	600	619	
2	0	0	0	0	595	619	
3	0	0	0	0	582	619	
4	0	0	0	0	564	621	
5	0	0	0	0	541	620	
6	0	0	0	0	522	620	
7	0	0	0	0	511	620	
8	0	0	0	0	501	618	
9	0	0	0	0	492	620	
10	0	0	0	0	490	620	
11	0	0	0	0	496	620	
12	0	0	0	0	507	622	
13	0	0	0	0	521	620	
14	0	0	0	0	535	620	
15	0	0	0	0	536	621	
0	0	0	0	0	537	619	
1	0	0	0	0	539	621	
2	0	0	0	0	541	620	
3	0	0	0	0	543	620	
4	0	0	0	0	547	622	
5	0	0	0	0	550	620	
6	0	0	0	0	548	621	
7	0	0	0	0	543	620	
8	0	0	0	0	537	618	
9	0	0	0	0	532	620	
10	0	0	0	0	531	620	
11	0	0	0	0	533	620	
12	0	0	0	0	531	621	
13	0	0	0	0	533	619	
14	0	0	0	0	533	619	
15	0	0	0	0	522	619	
0	0	0	0	0	507	617	
1	0	0	0	0	501	618	
2	0	0	0	0	489	618	
3	0	0	0	0	475	619	
4	0	0	0	0	463	620	
5	0	0	0	0	456	618	
6	0	0	0	0	445	617	
7	0	0	0	0	428	618	
8	0	0	0	0	424	615	
9	0	0	0	0	421	617	
10	0	0	0	0	420	617	
11	0	0	0	0	425	617	
12	0	0	0	0	417	619	
13	0	0	0	0	407	616	
14	0	0	0	0	403	617	
15	0	0	0	0	409	617	
0	0	0	0	0	410	615	
1	0	0	0	0	411	616	
2	0	0	0	0	416	616	
3	0	0	0	0	420	615	
4	0	0	0	0	429	617	
5	0	0	0	0	431	617	
6	0	0	0	0	427	616	
7	0	0	0	0	426	616	
8	0	0	0	0	417	614	
9	0	0	0	0	407	615	
10	0	0	0	0	412	615	
11	0	0	0	0	427	615	
12	0	0	0	0	424	616	
13	0	0	0	0	422	614	
14	0	0	0	0	419	615	
15	0	0	0	0	416	614	
0	0	0	0	0	415	612	
1	0	0	0	0	408	614	
2	0	0	0	0	403	614	
3	0	0	0	0	403	614	
4	0	0	0	0	406	615	
5	0	0	0	0	406	613	
6	0	0	0	0	405	613	
7	0	0	0	0	406	613	
8	0	0	0	0	404	611	
9	0	0	0	0	403	613	
10	0	0	0	0	405	612	
11	0	0	0	0	407	612	
12	0	0	0	0	410	614	
13	0	0	0	0	413	612	
14	0	0	0	0	416	612	
15	0	0	0	0	419	612	
0	0	0	0	0	418	610	
1	0	0	0	0	413	612	
2	0	0	0	0	409	612	
3	0	0	0	0	409	612	
4	0	0	0	0	409	614	
5	0	0	0	0	411	612	
6	0	0	0	0	412	612	
7	0	0	0	0	415	612	
8	0	0	0	0	417	610	
9	0	0	0	0	420	612	
10	0	0	0	0	419	613	
11	0	0	0	0	419	613	
12	0	0	0	0	417	615	
13	0	0	0	0	417	613	
14	0	0	0	0	417	613	
15	0	0	0	0	417	613	
0	0	0	0	0	420	611	
1	0	0	0	0	422	613	
2	0	0	0	0	423	613	
3	0	0	0	0	423	614	
4	0	0	0	0	421	616	
5	0	0	0	0	419	615	
6	0	0	0	0	422	615	
7	0	0	0	0	424	615	
8	0	0	0	0	426	613	
9	0	0	0	0	427	616	
10	0	0	0	0	429	616	
11	0	0	0	0	430	617	
12	0	0	0	0	431	619	
13	0	0	0	0	431	618	
14	0	0	0	0	431	617	
15	0	0	0	0	432	618	
0	0	0	0	0	432	616	
1	0	0	0	0	433	619	
2	0	0	0	0	434	619	
3	0	0	0	0	435	619	
4	0	0	0	0	436	621	
5	0	0	0	0	435	619	
6	0	0	0	0	434	620	
7	0	0	0	0	435	620	
8	0	0	0	0	436	618	
9	0	0	0	0	437	620	
10	0	0	0	0	436	620	
11	0	0	0	0	437	620	
12	0	0	0	0	439	622	
13	0	0	0	0	444	620	
14	0	0	0	0	450	621	
15	0	0	0	0	456	621	
0	0	0	0	0	454	620	
1	0	0	0	0	454	622	
2	0	0	0	0	456	623	
3	0	0	0	0	458	623	
4	0	0	0	0	456	625	
5	0	0	0	0	454	624	
6	0	0	0	0	456	624	
7	0	0	0	0	455	624	
8	0	0	0	0	452	623	
9	0	0	0	0	453	625	
10	0	0	0	0	457	625	
11	0	0	0	0	460	625	
12	0	0	0	0	460	627	
13	0	0	0	0	458	626	
14	0	0	0	0	451	627	
15	0	0	0	0	444	626	
0	0	0	0	0	443	625	
1	0	0	0	0	443	627	
2	0	0	0	0	442	626	
3	0	0	0	0	441	627	
4	0	0	0	0	440	628	
5	0	0	0	0	442	627	
6	0	0	0	0	439	628	
7	0	0	0	0	441	627	
8	0	0	0	0	441	626	
9	0	0	0	0	440	628	
10	0	0	0	0	440	628	
11	0	0	0	0	444	628	
12	0	0	0	0	446	630	
13	0	0	0	0	449	628	
14	0	0	0	0	450	629	
15	0	0	0	0	450	629	
0	0	0	0	0	449	628	
1	0	0	0	0	454	629	
2	0	0	0	0	458	630	
3	0	0	0	0	460	630	
4	0	0	0	0	461	631	
5	0	0	0	0	458	630	
6	0	0	0	0	453	630	
7	0	0	0	0	449	630	
8	0	0	0	0	450	628	
9	0	0	0	0	451	630	
10	0	0	0	0	450	631	
11	0	0	0	0	451	631	
12	0	0	0	0	450	632	
13	0	0	0	0	449	631	
14	0	0	0	0	448	631	
15	0	0	0	0	449	631	
0	0	0	0	0	452	629	
1	0	0	0	0	455	630	
2	0	0	0	0	455	630	
3	0	0	0	0	453	630	
4	0	0	0	0	449	632	
5	0	0	0	0	443	631	
6	0	0	0	0	443	630	
7	0	0	0	0	443	630	
8	0	0	0	0	442	628	
9	0	0	0	0	443	629	
10	0	0	0	0	443	630	
11	0	0	0	0	443	630	
12	0	0	0	0	441	631	
13	0	0	0	0	438	629	
14	0	0	0	0	440	629	
15	0	0	0	0	443	629	
0	0	0	0	0	447	627	
1	0	0	0	0	450	628	
2	0	0	0	0	448	628	
3	0	0	0	0	450	627	
4	0	0	0	0	453	629	
5	0	0	0	0	453	627	
6	0	0	0	0	454	626	
7	0	0	0	0	459	626	
8	0	0	0	0	462	624	
9	0	0	0	0	465	625	
10	0	0	0	0	468	624	
11	0	0	0	0	469	624	
12	0	0	0	0	472	625	
13	0	0	0	0	474	623	
14	0	0	0	0	476	623	
15	0	0	0	0	477	622	
0	0	0	0	0	482	620	
1	0	0	0	0	481	621	
2	0	0	0	0	478	620	
3	0	0	0	0	487	620	
4	0	0	0	0	484	621	
5	0	0	0	0	482	619	
6	0	0	0	0	489	619	
7	0	0	0	0	491	618	
8	0	0	0	0	496	616	
9	0	0	0	0	507	617	
10	0	0	0	0	520	617	
11	0	0	0	0	537	616	
12	0	0	0	0	548	617	
13	0	0	0	0	566	615	
14	0	0	0	0	568	615	
15	0	0	0	0	559	614	
0	0	0	0	0	545	612	
1	0	0	0	0	531	613	
2	0	0	0	0	524	613	
3	0	0	0	0	512	612	
4	0	0	0	0	505	613	
5	0	0	0	0	493	611	
6	0	0	0	0	489	610	
7	0	0	0	0	492	611	
8	0	0	0	0	482	608	
9	0	0	0	0	470	609	
10	0	0	0	0	464	609	
11	0	0	0	0	460	608	
12	0	0	0	0	460	610	
13	0	0	0	0	465	608	
14	0	0	0	0	463	607	
15	0	0	0	0	460	607	
0	0	0	0	0	463	605	
1	0	0	0	0	465	607	
2	0	0	0	0	466	607	
3	0	0	0	0	468	607	
4	0	0	0	0	469	608	
5	0	0	0	0	471	606	
6	0	0	0	0	467	607	
7	0	0	0	0	468	607	
8	0	0	0	0	468	604	
9	0	0	0	0	466	606	
10	0	0	0	0	466	606	
11	0	0	0	0	469	606	
12	0	0	0	0	471	608	
13	0	0	0	0	474	606	
14	0	0	0	0	476	606	
15	0	0	0	0	477	606	
0	0	0	0	0	480	604	
1	0	0	0	0	483	605	
2	0	0	0	0	487	605	
3	0	0	0	0	489	605	
4	0	0	0	0	492	607	
5	0	0	0	0	495	604	
6	0	0	0	0	498	604	
7	0	0	0	0	501	605	
8	0	0	0	0	504	602	
9	0	0	0	0	507	604	
10	0	0	0	0	511	604	
11	0	0	0	0	513	603	
12	0	0	0	0	516	604	
13	0	0	0	0	518	603	
14	0	0	0	0	520	603	
15	0	0	0	0	523	603	
0	0	0	0	0	524	600	
1	0	0	0	0	526	602	
2	0	0	0	0	527	603	
3	0	0	0	0	528	601	
4	0	0	0	0	530	603	
5	0	0	0	0	531	602	
6	0	0	0	0	534	601	
7	0	0	0	0	535	601	
8	0	0	0	0	536	599	
9	0	0	0	0	537	601	
10	0	0	0	0	537	601	
11	0	0	0	0	538	600	
12	0	0	0	0	539	602	
13	0	0	0	0	540	600	
14	0	0	0	0	541	600	
15	0	0	0	0	542	600	
0	0	0	0	0	542	598	
1	0	0	0	0	542	600	
2	0	0	0	0	543	599	
3	0	0	0	0	544	599	
4	0	0	0	0	544	601	
5	0	0	0	0	544	599	
6	0	0	0	0	545	598	
7	0	0	0	0	547	599	
8	0	0	0	0	547	597	
9	0	0	0	0	547	599	
10	0	0	0	0	547	599	
11	0	0	0	0	546	598	
12	0	0	0	0	545	600	
13	0	0	0	0	545	598	
14	0	0	0	0	545	598	
15	0	0	0	0	545	598	
0	0	0	0	0	545	595	
1	0	0	0	0	544	598	
2	0	0	0	0	544	597	
3	0	0	0	0	544	596	
4	0	0	0	0	544	598	
5	0	0	0	0	543	596	
6	0	0	0	0	543	597	
7	0	0	0	0	543	598	
8	0	0	0	0	544	595	
9	0	0	0	0	544	598	
10	0	0	0	0	545	598	
11	0	0	0	0	544	598	
12	0	0	0	0	544	599	
13	0	0	0	0	544	598	
14	0	0	0	0	545	598	
15	0	0	0	0	545	598	
0	0	0	0	0	545	596	
1	0	0	0	0	546	598	
2	0	0	0	0	547	598	
3	0	0	0	0	547	599	
4	0	0	0	0	547	600	
5	0	0	0	0	546	598	
6	0	0	0	0	546	599	
7	0	0	0	0	546	599	
8	0	0	0	0	545	597	
9	0	0	0	0	546	600	
10	0	0	0	0	546	600	
11	0	0	0	0	547	600	
12	0	0	0	0	547	602	
13	0	0	0	0	547	600	
14	0	0	0	0	546	600	
15	0	0	0	0	546	601	
0	0	0	0	0	545	599	
1	0	0	0	0	544	601	
2	0	0	0	0	544	602	
3	0	0	0	0	546	601	
4	0	0	0	0	547	604	
5	0	0	0	0	548	603	
6	0	0	0	0	550	602	
7	0	0	0	0	548	603	
8	0	0	0	0	545	602	
9	0	0	0	0	542	604	
10	0	0	0	0	540	604	
11	0	0	0	0	538	605	
12	0	0	0	0	538	606	
13	0	0	0	0	536	604	
14	0	0	0	0	537	605	
15	0	0	0	0	542	606	
0	0	0	0	0	547	604	
1	0	0	0	0	552	607	
2	0	0	0	0	558	606	
3	0	0	0	0	556	607	
4	0	0	0	0	548	608	
5	0	0	0	0	538	607	
6	0	0	0	0	528	608	
7	0	0	0	0	524	608	
8	0	0	0	0	521	606	
9	0	0	0	0	520	609	
10	0	0	0	0	521	609	
11	0	0	0	0	523	608	
12	0	0	0	0	524	611	
13	0	0	0	0	524	610	
14	0	0	0	0	523	610	
15	0	0	0	0	522	610	
0	0	0	0	0	522	609	
1	0	0	0	0	524	611	
2	0	0	0	0	529	611	
3	0	0	0	0	536	612	
4	0	0	0	0	541	614	
5	0	0	0	0	545	612	
6	0	0	0	0	541	612	
7	0	0	0	0	536	613	
8	0	0	0	0	528	611	
9	0	0	0	0	521	613	
10	0	0	0	0	512	613	
11	0	0	0	0	509	613	
12	0	0	0	0	509	616	
13	0	0	0	0	510	615	
14	0	0	0	0	514	614	
15	0	0	0	0	519	614	
0	0	0	0	0	526	613	
1	0	0	0	0	531	614	
2	0	0	0	0	535	615	
3	0	0	0	0	539	615	
4	0	0	0	0	543	617	
5	0	0	0	0	545	615	
6	0	0	0	0	545	616	
7	0	0	0	0	541	616	
8	0	0	0	0	536	615	
9	0	0	0	0	532	617	
10	0	0	0	0	529	617	
11	0	0	0	0	524	617	
12	0	0	0	0	520	619	
13	0	0	0	0	517	618	
14	0	0	0	0	514	618	
15	0	0	0	0	512	618	
0	0	0	0	0	512	617	
1	0	0	0	0	513	619	
2	0	0	0	0	512	619	
3	0	0	0	0	511	620	
4	0	0	0	0	514	622	
5	0	0	0	0	515	621	
6	0	0	0	0	515	621	
7	0	0	0	0	517	622	
8	0	0	0	0	519	620	
9	0	0	0	0	519	622	
10	0	0	0	0	519	622	
11	0	0	0	0	518	622	
12	0	0	0	0	516	624	
13	0	0	0	0	513	623	
14	0	0	0	0	512	623	
15	0	0	0	0	513	623	
0	0	0	0	0	512	621	
1	0	0	0	0	512	623	
2	0	0	0	0	510	623	
3	0	0	0	0	507	624	
4	0	0	0	0	508	625	
5	0	0	0	0	508	625	
6	0	0	0	0	507	625	
7	0	0	0	0	507	625	
8	0	0	0	0	505	624	
9	0	0	0	0	503	626	
10	0	0	0	0	504	626	
11	0	0	0	0	507	626	
12	0	0	0	0	508	628	
13	0	0	0	0	510	627	
14	0	0	0	0	513	627	
15	0	0	0	0	516	627	
0	0	0	0	0	515	625	
1	0	0	0	0	515	627	
2	0	0	0	0	516	627	
3	0	0	0	0	516	627	
4	0	0	0	0	516	630	
5	0	0	0	0	514	628	
6	0	0	0	0	516	629	
7	0	0	0	0	518	629	
8	0	0	0	0	518	627	
9	0	0	0	0	518	629	
10	0	0	0	0	519	629	
11	0	0	0	0	518	628	
12	0	0	0	0	516	631	
13	0	0	0	0	516	629	
14	0	0	0	0	516	628	
15	0	0	0	0	517	629	
0	0	0	0	0	518	627	
1	0	0	0	0	519	628	
2	0	0	0	0	521	629	
3	0	0	0	0	522	629	
4	0	0	0	0	521	630	
5	0	0	0	0	522	628	
6	0	0	0	0	523	629	
7	0	0	0	0	523	629	
8	0	0	0	0	524	627	
9	0	0	0	0	523	628	
10	0	0	0	0	524	627	
11	0	0	0	0	525	628	
12	0	0	0	0	524	629	
13	0	0	0	0	523	627	
14	0	0	0	0	522	627	
15	0	0	0	0	519	626	
0	0	0	0	0	519	625	
1	0	0	0	0	519	626	
2	0	0	0	0	517	626	
3	0	0	0	0	515	626	
4	0	0	0	0	513	627	
5	0	0	0	0	513	625	
6	0	0	0	0	512	625	
7	0	0	0	0	511	625	
8	0	0	0	0	511	622	
9	0	0	0	0	511	625	
10	0	0	0	0	512	624	
11	0	0	0	0	512	624	
12	0	0	0	0	513	625	
13	0	0	0	0	515	623	
14	0	0	0	0	515	623	
15	0	0	0	0	514	622	
0	0	0	0	0	519	621	
1	0	0	0	0	524	623	
2	0	0	0	0	527	623	
3	0	0	0	0	527	624	
4	0	0	0	0	526	624	
5	0	0	0	0	525	623	
6	0	0	0	0	524	622	
7	0	0	0	0	523	621	
8	0	0	0	0	521	620	
9	0	0	0	0	518	621	
10	0	0	0	0	515	621	
11	0	0	0	0	515	620	
12	0	0	0	0	512	622	
13	0	0	0	0	512	619	
14	0	0	0	0	513	620	
15	0	0	0	0	514	620	
0	0	0	0	0	514	617	
1	0	0	0	0	514	619	
2	0	0	0	0	515	619	
3	0	0	0	0	516	618	
4	0	0	0	0	516	619	
5	0	0	0	0	516	617	
6	0	0	0	0	516	617	
7	0	0	0	0	516	616	
8	0	0	0	0	517	614	
9	0	0	0	0	519	614	
10	0	0	0	0	523	615	
11	0	0	0	0	526	615	
12	0	0	0	0	530	615	
13	0	0	0	0	533	614	
14	0	0	0	0	531	614	
15	0	0	0	0	532	614	
0	0	0	0	0	532	611	
1	0	0	0	0	537	613	
2	0	0	0	0	542	612	
3	0	0	0	0	545	612	
4	0	0	0	0	547	614	
5	0	0	0	0	549	611	
6	0	0	0	0	550	611	
7	0	0	0	0	546	611	
8	0	0	0	0	543	609	
9	0	0	0	0	550	611	
10	0	0	0	0	543	611	
11	0	0	0	0	535	610	
12	0	0	0	0	533	611	
13	0	0	0	0	531	610	
14	0	0	0	0	529	609	
15	0	0	0	0	530	609	
0	0	0	0	0	529	608	
1	0	0	0	0	530	609	
2	0	0	0	0	530	609	
3	0	0	0	0	530	609	
4	0	0	0	0	528	611	
5	0	0	0	0	527	609	
6	0	0	0	0	527	609	
7	0	0	0	0	524	609	
8	0	0	0	0	522	608	
9	0	0	0	0	522	609	
10	0	0	0	0	523	609	
11	0	0	0	0	522	609	
12	0	0	0	0	519	611	
13	0	0	0	0	514	608	
14	0	0	0	0	515	609	
15	0	0	0	0	515	608	
0	0	0	0	0	513	606	
1	0	0	0	0	510	608	
2	0	0	0	0	510	608	
3	0	0	0	0	512	608	
4	0	0	0	0	512	609	
5	0	0	0	0	514	607	
6	0	0	0	0	511	608	
7	0	0	0	0	515	608	
8	0	0	0	0	521	606	
9	0	0	0	0	525	608	
10	0	0	0	0	529	608	
11	0	0	0	0	536	608	
12	0	0	0	0	538	610	
13	0	0	0	0	536	608	
14	0	0	0	0	529	609	
15	0	0	0	0	528	608	
0	0	0	0	0	528	607	
1	0	0	0	0	530	608	
2	0	0	0	0	533	608	
3	0	0	0	0	532	609	
4	0	0	0	0	530	611	
5	0	0	0	0	526	609	
6	0	0	0	0	529	609	
7	0	0	0	0	531	609	
8	0	0	0	0	531	607	
9	0	0	0	0	530	610	
10	0	0	0	0	536	610	
11	0	0	0	0	542	610	
12	0	0	0	0	544	612	
13	0	0	0	0	540	610	
14	0	0	0	0	533	610	
15	0	0	0	0	528	611	
0	0	0	0	0	530	609	
1	0	0	0	0	527	610	
2	0	0	0	0	524	610	
3	0	0	0	0	522	609	
4	0	0	0	0	523	611	
5	0	0	0	0	523	610	
6	0	0	0	0	522	609	
7	0	0	0	0	522	610	
8	0	0	0	0	526	608	
9	0	0	0	0	528	609	
10	0	0	0	0	529	609	
11	0	0	0	0	529	610	
12	0	0	0	0	529	611	
13	0	0	0	0	531	610	
14	0	0	0	0	530	610	
15	0	0	0	0	530	611	
0	0	0	0	0	529	609	
1	0	0	0	0	529	611	
2	0	0	0	0	531	611	
3	0	0	0	0	533	611	
4	0	0	0	0	532	612	
5	0	0	0	0	532	611	
6	0	0	0	0	532	612	
7	0	0	0	0	533	611	
8	0	0	0	0	531	609	
9	0	0	0	0	530	611	
10	0	0	0	0	531	611	
11	0	0	0	0	531	611	
12	0	0	0	0	532	613	
13	0	0	0	0	535	611	
14	0	0	0	0	532	611	
15	0	0	0	0	531	611	
0	0	0	0	0	528	609	
1	0	0	0	0	524	611	
2	0	0	0	0	519	610	
3	0	0	0	0	517	610	
4	0	0	0	0	515	612	
5	0	0	0	0	510	609	
6	0	0	0	0	506	610	
7	0	0	0	0	508	609	
8	0	0	0	0	513	608	
9	0	0	0	0	518	610	
10	0	0	0	0	527	610	
11	0	0	0	0	534	609	
12	0	0	0	0	537	611	
13	0	0	0	0	547	608	
14	0	0	0	0	551	609	
15	0	0	0	0	551	608	
0	0	0	0	0	555	607	
1	0	0	0	0	558	609	
2	0	0	0	0	559	609	
3	0	0	0	0	558	609	
4	0	0	0	0	554	610	
5	0	0	0	0	559	608	
6	0	0	0	0	566	608	
7	0	0	0	0	581	608	
8	0	0	0	0	603	607	
9	0	0	0	0	623	608	
10	0	0	0	0	647	609	
11	0	0	0	0	666	609	
12	0	0	0	0	695	611	
13	0	0	0	0	713	608	
14	0	0	0	0	724	608	
15	0	0	0	0	728	608	
0	0	0	0	0	725	607	
1	0	0	0	0	718	608	
2	0	0	0	0	711	608	
3	0	0	0	0	702	609	
4	0	0	0	0	686	610	
5	0	0	0	0	667	609	
6	0	0	0	0	651	609	
7	0	0	0	0	639	609	
8	0	0	0	0	626	608	
9	0	0	0	0	616	610	
10	0	0	0	0	614	610	
11	0	0	0	0	615	610	
12	0	0	0	0	622	612	
13	0	0	0	0	632	611	
14	0	0	0	0	640	611	
15	0	0	0	0	646	611	
0	0	0	0	0	644	610	
1	0	0	0	0	639	611	
2	0	0	0	0	633	611	
3	0	0	0	0	626	612	
4	0	0	0	0	618	613	
5	0	0	0	0	612	612	
6	0	0	0	0	604	612	
7	0	0	0	0	597	612	
8	0	0	0	0	591	611	
9	0	0	0	0	583	613	
10	0	0	0	0	573	612	
11	0	0	0	0	563	613	
12	0	0	0	0	551	615	
13	0	0	0	0	541	614	
14	0	0	0	0	532	614	
15	0	0	0	0	523	613	
0	0	0	0	0	512	611	
1	0	0	0	0	502	614	
2	0	0	0	0	493	613	
3	0	0	0	0	485	614	
4	0	0	0	0	478	615	
5	0	0	0	0	472	613	
6	0	0	0	0	466	613	
7	0	0	0	0	462	614	
8	0	0	0	0	458	611	
9	0	0	0	0	455	613	
10	0	0	0	0	454	613	
11	0	0	0	0	451	613	
12	0	0	0	0	450	615	
13	0	0	0	0	451	612	
14	0	0	0	0	449	612	
15	0	0	0	0	449	612	
0	0	0	0	0	449	610	
1	0	0	0	0	449	612	
2	0	0	0	0	450	611	
3	0	0	0	0	452	611	
4	0	0	0	0	452	613	
5	0	0	0	0	452	611	
6	0	0	0	0	453	611	
7	0	0	0	0	452	610	
8	0	0	0	0	453	608	
9	0	0	0	0	454	610	
10	0	0	0	0	456	609	
11	0	0	0	0	458	609	
12	0	0	0	0	460	611	
13	0	0	0	0	457	608	
14	0	0	0	0	456	609	
15	0	0	0	0	455	609	
0	0	0	0	0	455	606	
1	0	0	0	0	455	608	
2	0	0	0	0	456	607	
3	0	0	0	0	460	607	
4	0	0	0	0	462	609	
5	0	0	0	0	459	607	
6	0	0	0	0	461	607	
7	0	0	0	0	457	606	
8	0	0	0	0	455	604	
9	0	0	0	0	457	606	
10	0	0	0	0	459	606	
11	0	0	0	0	461	605	
12	0	0	0	0	461	607	
13	0	0	0	0	460	605	
14	0	0	0	0	462	605	
15	0	0	0	0	465	606	
0	0	0	0	0	463	604	
1	0	0	0	0	462	605	
2	0	0	0	0	462	605	
3	0	0	0	0	462	605	
4	0	0	0	0	460	607	
5	0	0	0	0	462	605	
6	0	0	0	0	463	606	
7	0	0	0	0	463	606	
8	0	0	0	0	464	604	
9	0	0	0	0	467	606	
10	0	0	0	0	469	606	
11	0	0	0	0	468	606	
12	0	0	0	0	464	608	
13	0	0	0	0	460	606	
14	0	0	0	0	457	606	
15	0	0	0	0	457	606	
0	0	0	0	0	457	605	
1	0	0	0	0	457	608	
2	0	0	0	0	458	608	
3	0	0	0	0	460	608	
4	0	0	0	0	460	610	
5	0	0	0	0	462	609	
6	0	0	0	0	463	608	
7	0	0	0	0	461	609	
8	0	0	0	0	460	608	
9	0	0	0	0	460	611	
10	0	0	0	0	461	611	
11	0	0	0	0	460	611	
12	0	0	0	0	460	613	
13	0	0	0	0	460	612	
14	0	0	0	0	460	612	
15	0	0	0	0	460	611	
0	0	0	0	0	461	609	
1	0	0	0	0	461	611	
2	0	0	0	0	462	612	
3	0	0	0	0	463	612	
4	0	0	0	0	464	614	
5	0	0	0	0	465	611	
6	0	0	0	0	467	612	
7	0	0	0	0	469	612	
8	0	0	0	0	468	611	
9	0	0	0	0	467	612	
10	0	0	0	0	467	612	
11	0	0	0	0	469	613	
12	0	0	0	0	469	614	
13	0	0	0	0	469	612	
14	0	0	0	0	470	612	
15	0	0	0	0	470	611	
0	0	0	0	0	471	610	
1	0	0	0	0	471	611	
2	0	0	0	0	470	611	
3	0	0	0	0	471	611	
4	0	0	0	0	472	613	
5	0	0	0	0	473	611	
6	0	0	0	0	473	611	
7	0	0	0	0	472	612	
8	0	0	0	0	472	610	
9	0	0	0	0	473	612	
10	0	0	0	0	473	612	
11	0	0	0	0	473	611	
12	0	0	0	0	473	613	
13	0	0	0	0	473	611	
14	0	0	0	0	473	611	
15	0	0	0	0	473	612	
0	0	0	0	0	473	610	
1	0	0	0	0	472	611	
2	0	0	0	0	472	611	
3	0	0	0	0	472	611	
4	0	0	0	0	472	612	
5	0	0	0	0	472	611	
6	0	0	0	0	473	611	
7	0	0	0	0	472	611	
8	0	0	0	0	471	609	
9	0	0	0	0	471	609	
10	0	0	0	0	472	610	
11	0	0	0	0	473	609	
12	0	0	0	0	472	611	
13	0	0	0	0	472	609	
14	0	0	0	0	471	609	
15	0	0	0	0	472	609	
0	0	0	0	0	472	607	
1	0	0	0	0	472	608	
2	0	0	0	0	472	608	
3	0	0	0	0	472	608	
4	0	0	0	0	473	609	
5	0	0	0	0	473	607	
6	0	0	0	0	476	607	
7	0	0	0	0	475	607	
8	0	0	0	0	474	605	
9	0	0	0	0	474	606	
10	0	0	0	0	473	606	
11	0	0	0	0	471	605	
12	0	0	0	0	472	607	
13	0	0	0	0	477	604	
14	0	0	0	0	481	604	
15	0	0	0	0	482	604	
0	0	0	0	0	485	602	
1	0	0	0	0	484	604	
2	0	0	0	0	482	603	
3	0	0	0	0	485	604	
4	0	0	0	0	489	605	
5	0	0	0	0	489	604	
6	0	0	0	0	489	603	
7	0	0	0	0	490	603	
8	0	0	0	0	489	600	
9	0	0	0	0	488	602	
10	0	0	0	0	482	602	
11	0	0	0	0	480	601	
12	0	0	0	0	479	603	
13	0	0	0	0	484	601	
14	0	0	0	0	485	601	
15	0	0	0	0	485	600	
0	0	0	0	0	484	599	
1	0	0	0	0	484	600	
2	0	0	0	0	486	600	
3	0	0	0	0	487	600	
4	0	0	0	0	489	601	
5	0	0	0	0	491	600	
6	0	0	0	0	496	600	
7	0	0	0	0	496	599	
8	0	0	0	0	494	597	
9	0	0	0	0	494	599	
10	0	0	0	0	494	599	
11	0	0	0	0	495	599	
12	0	0	0	0	497	600	
13	0	0	0	0	497	597	
14	0	0	0	0	499	597	
15	0	0	0	0	500	596	
0	0	0	0	0	497	594	
1	0	0	0	0	494	596	
2	0	0	0	0	492	596	
3	0	0	0	0	487	595	
4	0	0	0	0	481	597	
5	0	0	0	0	483	595	
6	0	0	0	0	487	595	
7	0	0	0	0	490	595	
8	0	0	0	0	492	592	
9	0	0	0	0	493	594	
10	0	0	0	0	494	595	
11	0	0	0	0	491	595	
12	0	0	0	0	486	596	
13	0	0	0	0	482	594	
14	0	0	0	0	478	594	
15	0	0	0	0	480	593	
0	0	0	0	0	483	592	
1	0	0	0	0	480	593	
2	0	0	0	0	478	593	
3	0	0	0	0	476	593	
4	0	0	0	0	472	595	
5	0	0	0	0	467	594	
6	0	0	0	0	465	594	
7	0	0	0	0	464	593	
8	0	0	0	0	467	592	
9	0	0	0	0	475	593	
10	0	0	0	0	474	594	
11	0	0	0	0	477	594	
12	0	0	0	0	478	595	
13	0	0	0	0	481	594	
14	0	0	0	0	481	595	
15	0	0	0	0	481	595	
0	0	0	0	0	483	593	
1	0	0	0	0	486	595	
2	0	0	0	0	488	595	
3	0	0	0	0	490	595	
4	0	0	0	0	492	598	
5	0	0	0	0	492	596	
6	0	0	0	0	492	596	
7	0	0	0	0	494	597	
8	0	0	0	0	497	595	
9	0	0	0	0	500	598	
10	0	0	0	0	502	597	
11	0	0	0	0	503	598	
12	0	0	0	0	507	600	
13	0	0	0	0	510	598	
14	0	0	0	0	512	599	
15	0	0	0	0	514	599	
0	0	0	0	0	516	598	
1	0	0	0	0	518	600	
2	0	0	0	0	522	600	
3	0	0	0	0	526	601	
4	0	0	0	0	528	603	
5	0	0	0	0	530	602	
6	0	0	0	0	528	603	
7	0	0	0	0	532	603	
8	0	0	0	0	536	601	
9	0	0	0	0	534	604	
10	0	0	0	0	529	604	
11	0	0	0	0	531	605	
12	0	0	0	0	533	607	
13	0	0	0	0	536	605	
14	0	0	0	0	539	606	
15	0	0	0	0	540	606	
0	0	0	0	0	541	605	
1	0	0	0	0	541	607	
2	0	0	0	0	542	607	
3	0	0	0	0	543	608	
4	0	0	0	0	544	610	
5	0	0	0	0	545	608	
6	0	0	0	0	548	608	
7	0	0	0	0	549	608	
8	0	0	0	0	550	607	
9	0	0	0	0	551	609	
10	0	0	0	0	554	610	
11	0	0	0	0	551	610	
12	0	0	0	0	552	612	
13	0	0	0	0	553	611	
14	0	0	0	0	553	611	
15	0	0	0	0	551	611	
0	0	0	0	0	552	610	
1	0	0	0	0	553	613	
2	0	0	0	0	555	613	
3	0	0	0	0	558	614	
4	0	0	0	0	557	615	
5	0	0	0	0	555	614	
6	0	0	0	0	554	614	
7	0	0	0	0	558	615	
8	0	0	0	0	556	614	
9	0	0	0	0	548	615	
10	0	0	0	0	550	616	
11	0	0	0	0	555	615	
12	0	0	0	0	557	618	
13	0	0	0	0	558	616	
14	0	0	0	0	562	616	
15	0	0	0	0	562	616	
0	0	0	0	0	562	615	
1	0	0	0	0	560	616	
2	0	0	0	0	558	616	
3	0	0	0	0	556	616	
4	0	0	0	0	557	618	
5	0	0	0	0	555	617	
6	0	0	0	0	548	617	
7	0	0	0	0	548	617	
8	0	0	0	0	548	615	
9	0	0	0	0	548	617	
10	0	0	0	0	546	617	
11	0	0	0	0	546	617	
12	0	0	0	0	545	619	
13	0	0	0	0	543	618	
14	0	0	0	0	540	618	
15	0	0	0	0	536	618	
0	0	0	0	0	534	616	
1	0	0	0	0	533	618	
2	0	0	0	0	533	619	
3	0	0	0	0	536	619	
4	0	0	0	0	533	622	
5	0	0	0	0	530	620	
6	0	0	0	0	532	620	
7	0	0	0	0	532	620	
8	0	0	0	0	533	617	
9	0	0	0	0	537	620	
10	0	0	0	0	534	620	
11	0	0	0	0	535	620	
12	0	0	0	0	535	622	
13	0	0	0	0	536	621	
14	0	0	0	0	535	621	
15	0	0	0	0	536	622	
0	0	0	0	0	541	620	
1	0	0	0	0	538	622	
2	0	0	0	0	535	622	
3	0	0	0	0	533	622	
4	0	0	0	0	533	623	
5	0	0	0	0	534	622	
6	0	0	0	0	535	622	
7	0	0	0	0	535	622	
8	0	0	0	0	536	620	
9	0	0	0	0	536	622	
10	0	0	0	0	536	622	
11	0	0	0	0	538	622	
12	0	0	0	0	536	624	
13	0	0	0	0	535	622	
14	0	0	0	0	536	622	
15	0	0	0	0	538	622	
0	0	0	0	0	536	620	
1	0	0	0	0	532	622	
2	0	0	0	0	529	621	
3	0	0	0	0	529	622	
4	0	0	0	0	532	623	
5	0	0	0	0	532	622	
6	0	0	0	0	529	622	
7	0	0	0	0	531	621	
8	0	0	0	0	531	619	
9	0	0	0	0	528	621	
10	0	0	0	0	526	621	
11	0	0	0	0	531	621	
12	0	0	0	0	530	622	
13	0	0	0	0	528	620	
14	0	0	0	0	527	620	
15	0	0	0	0	524	620	
0	0	0	0	0	524	617	
1	0	0	0	0	527	619	
2	0	0	0	0	529	618	
3	0	0	0	0	530	618	
4	0	0	0	0	531	619	
5	0	0	0	0	530	617	
6	0	0	0	0	531	617	
7	0	0	0	0	533	617	
8	0	0	0	0	531	615	
9	0	0	0	0	529	615	
10	0	0	0	0	531	615	
11	0	0	0	0	533	615	
12	0	0	0	0	530	617	
13	0	0	0	0	528	614	
14	0	0	0	0	531	614	
15	0	0	0	0	533	613	
0	0	0	0	0	532	611	
1	0	0	0	0	535	613	
2	0	0	0	0	540	612	
3	0	0	0	0	539	611	
4	0	0	0	0	540	612	
5	0	0	0	0	540	611	
6	0	0	0	0	535	610	
7	0	0	0	0	533	611	
8	0	0	0	0	536	608	
9	0	0	0	0	539	608	
10	0	0	0	0	538	609	
11	0	0	0	0	538	608	
12	0	0	0	0	538	610	
13	0	0	0	0	536	608	
14	0	0	0	0	536	608	
15	0	0	0	0	538	607	
0	0	0	0	0	537	605	
1	0	0	0	0	537	607	
2	0	0	0	0	536	606	
3	0	0	0	0	532	606	
4	0	0	0	0	529	607	
5	0	0	0	0	526	605	
6	0	0	0	0	527	605	
7	0	0	0	0	527	605	
8	0	0	0	0	529	603	
9	0	0	0	0	528	605	
10	0	0	0	0	527	604	
11	0	0	0	0	526	604	
12	0	0	0	0	527	605	
13	0	0	0	0	527	603	
14	0	0	0	0	526	604	
15	0	0	0	0	530	603	
0	0	0	0	0	531	601	
1	0	0	0	0	528	603	
2	0	0	0	0	527	603	
3	0	0	0	0	524	602	
4	0	0	0	0	524	604	
5	0	0	0	0	524	602	
6	0	0	0	0	525	602	
7	0	0	0	0	524	602	
8	0	0	0	0	526	600	
9	0	0	0	0	526	602	
10	0	0	0	0	526	602	
11	0	0	0	0	526	602	
12	0	0	0	0	527	603	
13	0	0	0	0	528	601	
14	0	0	0	0	529	601	
15	0	0	0	0	529	601	
0	0	0	0	0	532	600	
1	0	0	0	0	536	601	
2	0	0	0	0	540	601	
3	0	0	0	0	544	600	
4	0	0	0	0	551	602	
5	0	0	0	0	559	600	
6	0	0	0	0	568	601	
7	0	0	0	0	572	600	
8	0	0	0	0	571	599	
9	0	0	0	0	568	600	
10	0	0	0	0	560	601	
11	0	0	0	0	550	601	
12	0	0	0	0	543	603	
13	0	0	0	0	531	601	
14	0	0	0	0	521	601	
15	0	0	0	0	514	601	
0	0	0	0	0	512	600	
1	0	0	0	0	503	601	
2	0	0	0	0	495	601	
3	0	0	0	0	492	601	
4	0	0	0	0	489	603	
5	0	0	0	0	487	601	
6	0	0	0	0	488	601	
7	0	0	0	0	490	601	
8	0	0	0	0	489	600	
9	0	0	0	0	487	601	
10	0	0	0	0	489	601	
11	0	0	0	0	491	602	
12	0	0	0	0	493	603	
13	0	0	0	0	493	602	
14	0	0	0	0	491	601	
15	0	0	0	0	492	601	
0	0	0	0	0	494	600	
1	0	0	0	0	495	601	
2	0	0	0	0	495	601	
3	0	0	0	0	496	601	
4	0	0	0	0	496	603	
5	0	0	0	0	498	602	
6	0	0	0	0	498	601	
7	0	0	0	0	496	601	
8	0	0	0	0	496	600	
9	0	0	0	0	500	601	
10	0	0	0	0	502	602	
11	0	0	0	0	506	602	
12	0	0	0	0	508	604	
13	0	0	0	0	508	602	
14	0	0	0	0	507	603	
15	0	0	0	0	510	603	
0	0	0	0	0	512	600	
1	0	0	0	0	511	603	
2	0	0	0	0	511	603	
3	0	0	0	0	514	602	
4	0	0	0	0	514	604	
5	0	0	0	0	515	602	
6	0	0	0	0	516	603	
7	0	0	0	0	518	603	
8	0	0	0	0	520	601	
9	0	0	0	0	521	603	
10	0	0	0	0	521	603	
11	0	0	0	0	524	603	
12	0	0	0	0	525	605	
13	0	0	0	0	522	603	
14	0	0	0	0	528	604	
15	0	0	0	0	528	604	
0	0	0	0	0	527	602	
1	0	0	0	0	526	604	
2	0	0	0	0	526	605	
3	0	0	0	0	526	605	
4	0	0	0	0	527	607	
5	0	0	0	0	527	605	
6	0	0	0	0	527	605	
7	0	0	0	0	526	606	
8	0	0	0	0	526	604	
9	0	0	0	0	525	606	
10	0	0	0	0	526	607	
11	0	0	0	0	527	607	
12	0	0	0	0	528	608	
13	0	0	0	0	528	607	
14	0	0	0	0	528	608	
15	0	0	0	0	528	607	
0	0	0	0	0	527	605	
1	0	0	0	0	527	607	
2	0	0	0	0	526	608	
3	0	0	0	0	525	608	
4	0	0	0	0	524	609	
5	0	0	0	0	525	608	
6	0	0	0	0	524	608	
7	0	0	0	0	523	608	
8	0	0	0	0	522	606	
9	0	0	0	0	522	609	
10	0	0	0	0	520	608	
11	0	0	0	0	520	609	
12	0	0	0	0	520	611	
13	0	0	0	0	519	609	
14	0	0	0	0	521	609	
15	0	0	0	0	521	610	
0	0	0	0	0	523	608	
1	0	0	0	0	522	610	
2	0	0	0	0	520	610	
3	0	0	0	0	520	610	
4	0	0	0	0	518	611	
5	0	0	0	0	517	611	
6	0	0	0	0	517	610	
7	0	0	0	0	518	611	
8	0	0	0	0	518	608	
9	0	0	0	0	519	611	
10	0	0	0	0	519	610	
11	0	0	0	0	520	610	
12	0	0	0	0	520	612	
13	0	0	0	0	520	610	
14	0	0	0	0	519	611	
15	0	0	0	0	520	610	
0	0	0	0	0	520	608	
1	0	0	0	0	521	610	
2	0	0	0	0	521	611	
3	0	0	0	0	523	610	
4	0	0	0	0	523	611	
5	0	0	0	0	521	610	
6	0	0	0	0	522	610	
7	0	0	0	0	521	610	
8	0	0	0	0	522	608	
9	0	0	0	0	521	609	
10	0	0	0	0	523	609	
11	0	0	0	0	524	609	
12	0	0	0	0	524	611	
13	0	0	0	0	523	609	
14	0	0	0	0	524	610	
15	0	0	0	0	524	609	
0	0	0	0	0	523	607	
1	0	0	0	0	524	609	
2	0	0	0	0	526	609	
3	0	0	0	0	527	609	
4	0	0	0	0	528	610	
5	0	0	0	0	528	608	
6	0	0	0	0	528	608	
7	0	0	0	0	528	609	
8	0	0	0	0	529	607	
9	0	0	0	0	529	608	
10	0	0	0	0	529	608	
11	0	0	0	0	529	608	
12	0	0	0	0	529	610	
13	0	0	0	0	528	608	
14	0	0	0	0	526	608	
15	0	0	0	0	520	608	
0	0	0	0	0	516	606	
1	0	0	0	0	515	608	
2	0	0	0	0	514	609	
3	0	0	0	0	514	608	
4	0	0	0	0	514	610	
5	0	0	0	0	514	609	
6	0	0	0	0	514	608	
7	0	0	0	0	513	608	
8	0	0	0	0	511	606	
9	0	0	0	0	509	608	
10	0	0	0	0	508	608	
11	0	0	0	0	505	607	
12	0	0	0	0	506	609	
13	0	0	0	0	506	608	
14	0	0	0	0	504	607	
15	0	0	0	0	501	608	
0	0	0	0	0	497	606	
1	0	0	0	0	494	607	
2	0	0	0	0	491	608	
3	0	0	0	0	489	607	
4	0	0	0	0	489	608	
5	0	0	0	0	492	608	
6	0	0	0	0	498	607	
7	0	0	0	0	505	607	
8	0	0	0	0	509	605	
9	0	0	0	0	513	607	
10	0	0	0	0	516	607	
11	0	0	0	0	519	607	
12	0	0	0	0	521	609	
13	0	0	0	0	522	607	
14	0	0	0	0	525	607	
15	0	0	0	0	530	607	
0	0	0	0	0	533	605	
1	0	0	0	0	535	607	
2	0	0	0	0	539	607	
3	0	0	0	0	547	607	
4	0	0	0	0	560	609	
5	0	0	0	0	576	608	
6	0	0	0	0	596	607	
7	0	0	0	0	623	607	
8	0	0	0	0	648	605	
9	0	0	0	0	669	608	
10	0	0	0	0	684	608	
11	0	0	0	0	692	608	
12	0	0	0	0	690	609	
13	0	0	0	0	682	608	
14	0	0	0	0	671	608	
15	0	0	0	0	660	608	
0	0	0	0	0	647	607	
1	0	0	0	0	627	608	
2	0	0	0	0	605	608	
3	0	0	0	0	588	608	
4	0	0	0	0	576	610	
5	0	0	0	0	569	608	
6	0	0	0	0	568	609	
7	0	0	0	0	571	609	
8	0	0	0	0	578	607	
9	0	0	0	0	588	609	
10	0	0	0	0	597	609	
11	0	0	0	0	604	609	
12	0	0	0	0	608	610	
13	0	0	0	0	608	609	
14	0	0	0	0	608	609	
15	0	0	0	0	606	609	
0	0	0	0	0	603	608	
1	0	0	0	0	600	609	
2	0	0	0	0	598	609	
3	0	0	0	0	595	610	
4	0	0	0	0	589	611	
5	0	0	0	0	582	609	
6	0	0	0	0	574	610	
7	0	0	0	0	566	610	
8	0	0	0	0	557	607	
9	0	0	0	0	547	610	
10	0	0	0	0	538	610	
11	0	0	0	0	530	610	
12	0	0	0	0	522	611	
13	0	0	0	0	514	609	
14	0	0	0	0	507	610	
15	0	0	0	0	499	610	
0	0	0	0	0	492	608	
1	0	0	0	0	484	610	
2	0	0	0	0	475	610	
3	0	0	0	0	468	610	
4	0	0	0	0	463	612	
5	0	0	0	0	460	610	
6	0	0	0	0	459	610	
7	0	0	0	0	459	609	
8	0	0	0	0	459	607	
9	0	0	0	0	460	609	
10	0	0	0	0	460	609	
11	0	0	0	0	460	609	
12	0	0	0	0	461	611	
13	0	0	0	0	462	609	
14	0	0	0	0	463	609	
15	0	0	0	0	465	608	
0	0	0	0	0	467	607	
1	0	0	0	0	470	609	
2	0	0	0	0	471	608	
3	0	0	0	0	472	608	
4	0	0	0	0	473	610	
5	0	0	0	0	480	608	
6	0	0	0	0	489	608	
7	0	0	0	0	496	608	
8	0	0	0	0	503	606	
9	0	0	0	0	508	608	
10	0	0	0	0	512	607	
11	0	0	0	0	517	607	
12	0	0	0	0	522	609	
13	0	0	0	0	527	607	
14	0	0	0	0	531	607	
15	0	0	0	0	532	607	
0	0	0	0	0	534	605	
1	0	0	0	0	536	607	
2	0	0	0	0	539	607	
3	0	0	0	0	540	607	
4	0	0	0	0	541	609	
5	0	0	0	0	542	607	
6	0	0	0	0	542	608	
7	0	0	0	0	542	607	
8	0	0	0	0	543	605	
9	0	0	0	0	544	607	
10	0	0	0	0	544	606	
11	0	0	0	0	543	606	
12	0	0	0	0	544	608	
13	0	0	0	0	545	606	
14	0	0	0	0	545	606	
15	0	0	0	0	545	606	
0	0	0	0	0	544	603	
1	0	0	0	0	545	606	
2	0	0	0	0	545	605	
3	0	0	0	0	544	604	
4	0	0	0	0	545	606	
5	0	0	0	0	545	604	
6	0	0	0	0	543	604	
7	0	0	0	0	540	604	
8	0	0	0	0	539	601	
9	0	0	0	0	538	604	
10	0	0	0	0	537	604	
11	0	0	0	0	535	603	
12	0	0	0	0	535	605	
13	0	0	0	0	534	603	
14	0	0	0	0	533	603	
15	0	0	0	0	532	603	
0	0	0	0	0	531	600	
1	0	0	0	0	530	602	
2	0	0	0	0	529	602	
3	0	0	0	0	528	601	
4	0	0	0	0	527	603	
5	0	0	0	0	526	601	
6	0	0	0	0	524	601	
7	0	0	0	0	527	601	
8	0	0	0	0	525	599	
9	0	0	0	0	523	600	
10	0	0	0	0	521	601	
11	0	0	0	0	520	601	
12	0	0	0	0	518	603	
13	0	0	0	0	516	601	
14	0	0	0	0	516	601	
15	0	0	0	0	517	601	
0	0	0	0	0	516	600	
1	0	0	0	0	515	602	
2	0	0	0	0	515	602	
3	0	0	0	0	513	602	
4	0	0	0	0	511	604	
5	0	0	0	0	509	602	
6	0	0	0	0	507	603	
7	0	0	0	0	505	603	
8	0	0	0	0	503	602	
9	0	0	0	0	502	604	
10	0	0	0	0	501	604	
11	0	0	0	0	499	604	
12	0	0	0	0	498	606	
13	0	0	0	0	497	604	
14	0	0	0	0	496	605	
15	0	0	0	0	494	605	
0	0	0	0	0	493	603	
1	0	0	0	0	492	604	
2	0	0	0	0	491	604	
3	0	0	0	0	491	605	
4	0	0	0	0	490	607	
5	0	0	0	0	489	606	
6	0	0	0	0	488	605	
7	0	0	0	0	487	606	
8	0	0	0	0	486	604	
9	0	0	0	0	486	607	
10	0	0	0	0	485	607	
11	0	0	0	0	486	607	
12	0	0	0	0	486	609	
13	0	0	0	0	486	608	
14	0	0	0	0	485	608	
15	0	0	0	0	481	608	
0	0	0	0	0	483	607	
1	0	0	0	0	486	608	
2	0	0	0	0	487	609	
3	0	0	0	0	487	610	
4	0	0	0	0	488	611	
5	0	0	0	0	487	611	
6	0	0	0	0	486	611	
7	0	0	0	0	482	611	
8	0	0	0	0	481	609	
9	0	0	0	0	479	611	
10	0	0	0	0	476	611	
11	0	0	0	0	472	611	
12	0	0	0	0	468	614	
13	0	0	0	0	463	612	
14	0	0	0	0	457	612	
15	0	0	0	0	454	612	
0	0	0	0	0	453	611	
1	0	0	0	0	454	613	
2	0	0	0	0	455	614	
3	0	0	0	0	456	613	
4	0	0	0	0	455	615	
5	0	0	0	0	455	614	
6	0	0	0	0	454	613	
7	0	0	0	0	453	614	
8	0	0	0	0	452	611	
9	0	0	0	0	452	614	
10	0	0	0	0	452	614	
11	0	0	0	0	451	614	
12	0	0	0	0	449	615	
13	0	0	0	0	444	614	
14	0	0	0	0	440	614	
15	0	0	0	0	437	614	
0	0	0	0	0	436	612	
1	0	0	0	0	438	614	
2	0	0	0	0	439	613	
3	0	0	0	0	440	614	
4	0	0	0	0	440	615	
5	0	0	0	0	440	614	
6	0	0	0	0	438	614	
7	0	0	0	0	435	614	
8	0	0	0	0	437	612	
9	0	0	0	0	437	614	
10	0	0	0	0	437	614	
11	0	0	0	0	437	614	
12	0	0	0	0	438	615	
13	0	0	0	0	437	613	
14	0	0	0	0	438	612	
15	0	0	0	0	438	613	
0	0	0	0	0	437	611	
1	0	0	0	0	437	612	
2	0	0	0	0	437	612	
3	0	0	0	0	438	612	
4	0	0	0	0	437	613	
5	0	0	0	0	438	612	
6	0	0	0	0	437	611	
7	0	0	0	0	438	611	
8	0	0	0	0	438	610	
9	0	0	0	0	438	612	
10	0	0	0	0	438	612	
11	0	0	0	0	437	612	
12	0	0	0	0	437	613	
13	0	0	0	0	438	612	
14	0	0	0	0	439	611	
15	0	0	0	0	439	612	
0	0	0	0	0	440	610	
1	0	0	0	0	440	612	
2	0	0	0	0	440	612	
3	0	0	0	0	440	612	
4	0	0	0	0	440	614	
5	0	0	0	0	440	613	
6	0	0	0	0	442	613	
7	0	0	0	0	441	614	
8	0	0	0	0	440	611	
9	0	0	0	0	440	614	
10	0	0	0	0	443	614	
11	0	0	0	0	443	614	
12	0	0	0	0	443	615	
13	0	0	0	0	442	613	
14	0	0	0	0	442	614	
15	0	0	0	0	441	614	
0	0	0	0	0	441	611	
1	0	0	0	0	440	614	
2	0	0	0	0	438	614	
3	0	0	0	0	437	615	
4	0	0	0	0	434	616	
5	0	0	0	0	432	615	
6	0	0	0	0	431	615	
7	0	0	0	0	430	615	
8	0	0	0	0	429	614	
9	0	0	0	0	428	616	
10	0	0	0	0	429	615	
11	0	0	0	0	428	616	
12	0	0	0	0	428	619	
13	0	0	0	0	429	616	
14	0	0	0	0	430	617	
15	0	0	0	0	431	617	
0	0	0	0	0	432	616	
1	0	0	0	0	431	617	
2	0	0	0	0	430	618	
3	0	0	0	0	427	618	
4	0	0	0	0	424	620	
5	0	0	0	0	422	619	
6	0	0	0	0	419	619	
7	0	0	0	0	417	619	
8	0	0	0	0	415	617	
9	0	0	0	0	415	620	
10	0	0	0	0	415	620	
11	0	0	0	0	414	621	
12	0	0	0	0	415	622	
13	0	0	0	0	415	620	
14	0	0	0	0	416	621	
15	0	0	0	0	416	621	
0	0	0	0	0	419	620	
1	0	0	0	0	421	622	
2	0	0	0	0	422	621	
3	0	0	0	0	424	622	
4	0	0	0	0	426	623	
5	0	0	0	0	427	622	
6	0	0	0	0	429	622	
7	0	0	0	0	431	622	
8	0	0	0	0	432	620	
9	0	0	0	0	431	623	
10	0	0	0	0	434	623	
11	0	0	0	0	436	622	
12	0	0	0	0	437	624	
13	0	0	0	0	439	622	
14	0	0	0	0	440	623	
15	0	0	0	0	441	622	
0	0	0	0	0	443	621	
1	0	0	0	0	445	623	
2	0	0	0	0	446	622	
3	0	0	0	0	446	623	
4	0	0	0	0	447	624	
5	0	0	0	0	447	622	
6	0	0	0	0	447	623	
7	0	0	0	0	448	623	
8	0	0	0	0	448	621	
9	0	0	0	0	449	622	
10	0	0	0	0	451	623	
11	0	0	0	0	451	622	
12	0	0	0	0	451	624	
13	0	0	0	0	452	622	
14	0	0	0	0	451	621	
15	0	0	0	0	451	622	
0	0	0	0	0	452	619	
1	0	0	0	0	452	622	
2	0	0	0	0	452	621	
3	0	0	0	0	453	621	
4	0	0	0	0	454	622	
5	0	0	0	0	454	621	
6	0	0	0	0	454	621	
7	0	0	0	0	454	621	
8	0	0	0	0	454	619	
9	0	0	0	0	453	621	
10	0	0	0	0	453	621	
11	0	0	0	0	454	620	
12	0	0	0	0	454	622	
13	0	0	0	0	454	620	
14	0	0	0	0	452	620	
15	0	0	0	0	451	620	
0	0	0	0	0	449	617	
1	0	0	0	0	448	620	
2	0	0	0	0	449	619	
3	0	0	0	0	447	619	
4	0	0	0	0	444	621	
5	0	0	0	0	443	619	
6	0	0	0	0	440	619	
7	0	0	0	0	439	619	
8	0	0	0	0	438	616	
9	0	0	0	0	439	618	
10	0	0	0	0	440	618	
11	0	0	0	0	443	617	
12	0	0	0	0	444	619	
13	0	0	0	0	446	617	
14	0	0	0	0	448	617	
15	0	0	0	0	449	616	
0	0	0	0	0	450	615	
1	0	0	0	0	451	617	
2	0	0	0	0	451	616	
3	0	0	0	0	450	616	
4	0	0	0	0	451	617	
5	0	0	0	0	453	615	
6	0	0	0	0	454	615	
7	0	0	0	0	455	616	
8	0	0	0	0	455	614	
9	0	0	0	0	455	615	
10	0	0	0	0	455	615	
11	0	0	0	0	455	615	
12	0	0	0	0	456	617	
13	0	0	0	0	455	615	
14	0	0	0	0	455	614	
15	0	0	0	0	455	614	
0	0	0	0	0	455	612	
1	0	0	0	0	456	614	
2	0	0	0	0	457	614	
3	0	0	0	0	458	613	
4	0	0	0	0	458	614	
5	0	0	0	0	458	613	
6	0	0	0	0	459	612	
7	0	0	0	0	460	612	
8	0	0	0	0	460	611	
9	0	0	0	0	460	611	
10	0	0	0	0	461	611	
11	0	0	0	0	462	612	
12	0	0	0	0	463	612	
13	0	0	0	0	466	611	
14	0	0	0	0	466	610	
15	0	0	0	0	466	610	
0	0	0	0	0	467	608	
1	0	0	0	0	467	609	
2	0	0	0	0	469	609	
3	0	0	0	0	469	608	
4	0	0	0	0	470	610	
5	0	0	0	0	469	608	
6	0	0	0	0	467	608	
7	0	0	0	0	465	607	
8	0	0	0	0	465	606	
9	0	0	0	0	464	607	
10	0	0	0	0	464	607	
11	0	0	0	0	463	607	
12	0	0	0	0	463	609	
13	0	0	0	0	463	607	
14	0	0	0	0	464	606	
15	0	0	0	0	465	606	
0	0	0	0	0	466	604	
1	0	0	0	0	468	605	
2	0	0	0	0	469	605	
3	0	0	0	0	469	605	
4	0	0	0	0	468	606	
5	0	0	0	0	468	604	
6	0	0	0	0	468	604	
7	0	0	0	0	470	605	
8	0	0	0	0	472	602	
9	0	0	0	0	473	604	
10	0	0	0	0	475	604	
11	0	0	0	0	477	604	
12	0	0	0	0	480	606	
13	0	0	0	0	480	604	
14	0	0	0	0	479	603	
15	0	0	0	0	478	603	
0	0	0	0	0	482	601	
1	0	0	0	0	484	603	
2	0	0	0	0	486	603	
3	0	0	0	0	487	603	
4	0	0	0	0	488	605	
5	0	0	0	0	488	603	
6	0	0	0	0	488	603	
7	0	0	0	0	487	604	
8	0	0	0	0	485	602	
9	0	0	0	0	483	603	
10	0	0	0	0	481	603	
11	0	0	0	0	479	602	
12	0	0	0	0	478	604	
13	0	0	0	0	479	603	
14	0	0	0	0	478	603	
15	0	0	0	0	478	603	
0	0	0	0	0	477	600	
1	0	0	0	0	477	602	
2	0	0	0	0	476	603	
3	0	0	0	0	475	602	
4	0	0	0	0	475	604	
5	0	0	0	0	476	602	
6	0	0	0	0	477	603	
7	0	0	0	0	476	603	
8	0	0	0	0	474	601	
9	0	0	0	0	473	603	
10	0	0	0	0	472	603	
11	0	0	0	0	470	603	
12	0	0	0	0	468	604	
13	0	0	0	0	467	604	
14	0	0	0	0	465	603	
15	0	0	0	0	465	604	
0	0	0	0	0	466	602	
1	0	0	0	0	465	604	
2	0	0	0	0	466	604	
3	0	0	0	0	466	604	
4	0	0	0	0	466	606	
5	0	0	0	0	466	604	
6	0	0	0	0	465	605	
7	0	0	0	0	465	605	
8	0	0	0	0	465	603	
9	0	0	0	0	464	605	
10	0	0	0	0	464	604	
11	0	0	0	0	463	605	
12	0	0	0	0	463	606	
13	0	0	0	0	464	605	
14	0	0	0	0	464	604	
15	0	0	0	0	463	605	
0	0	0	0	0	463	603	
1	0	0	0	0	464	605	
2	0	0	0	0	464	605	
3	0	0	0	0	466	604	
4	0	0	0	0	468	607	
5	0	0	0	0	467	605	
6	0	0	0	0	466	605	
7	0	0	0	0	466	605	
8	0	0	0	0	466	603	
9	0	0	0	0	466	605	
10	0	0	0	0	467	604	
11	0	0	0	0	467	604	
12	0	0	0	0	467	607	
13	0	0	0	0	468	605	
14	0	0	0	0	467	605	
15	0	0	0	0	467	605	
0	0	0	0	0	467	603	
1	0	0	0	0	467	605	
2	0	0	0	0	469	605	
3	0	0	0	0	470	605	
4	0	0	0	0	472	607	
5	0	0	0	0	473	605	
6	0	0	0	0	474	605	
7	0	0	0	0	475	605	
8	0	0	0	0	476	603	
9	0	0	0	0	478	605	
10	0	0	0	0	480	605	
11	0	0	0	0	483	605	
12	0	0	0	0	484	607	
13	0	0	0	0	485	605	
14	0	0	0	0	486	605	
15	0	0	0	0	488	605	
0	0	0	0	0	491	603	
1	0	0	0	0	492	605	
2	0	0	0	0	491	604	
3	0	0	0	0	495	604	
4	0	0	0	0	497	606	
5	0	0	0	0	499	604	
6	0	0	0	0	499	605	
7	0	0	0	0	501	605	
8	0	0	0	0	504	603	
9	0	0	0	0	506	605	
10	0	0	0	0	509	604	
11	0	0	0	0	511	605	
12	0	0	0	0	513	606	
13	0	0	0	0	513	604	
14	0	0	0	0	514	604	
15	0	0	0	0	515	605	
0	0	0	0	0	515	603	
1	0	0	0	0	515	605	
2	0	0	0	0	515	605	
3	0	0	0	0	515	605	
4	0	0	0	0	515	607	
5	0	0	0	0	514	605	
6	0	0	0	0	515	605	
7	0	0	0	0	514	606	
8	0	0	0	0	513	604	
9	0	0	0	0	511	606	
10	0	0	0	0	510	605	
11	0	0	0	0	508	605	
12	0	0	0	0	507	608	
13	0	0	0	0	506	606	
14	0	0	0	0	506	606	
15	0	0	0	0	506	606	
0	0	0	0	0	505	605	
1	0	0	0	0	504	607	
2	0	0	0	0	504	607	
3	0	0	0	0	504	606	
4	0	0	0	0	503	608	
5	0	0	0	0	503	607	
6	0	0	0	0	504	607	
7	0	0	0	0	505	607	
8	0	0	0	0	507	604	
9	0	0	0	0	508	607	
10	0	0	0	0	510	607	
11	0	0	0	0	511	607	
12	0	0	0	0	511	609	
13	0	0	0	0	511	607	
14	0	0	0	0	512	607	
15	0	0	0	0	513	607	
0	0	0	0	0	515	606	
1	0	0	0	0	516	607	
2	0	0	0	0	516	608	
3	0	0	0	0	516	608	
4	0	0	0	0	514	609	
5	0	0	0	0	512	607	
6	0	0	0	0	510	608	
7	0	0	0	0	510	607	
8	0	0	0	0	512	606	
9	0	0	0	0	514	607	
10	0	0	0	0	517	608	
11	0	0	0	0	519	607	
12	0	0	0	0	521	609	
13	0	0	0	0	522	608	
14	0	0	0	0	521	608	
15	0	0	0	0	521	608	
0	0	0	0	0	522	606	
1	0	0	0	0	522	608	
2	0	0	0	0	523	608	
3	0	0	0	0	523	608	
4	0	0	0	0	524	609	
5	0	0	0	0	523	608	
6	0	0	0	0	523	607	
7	0	0	0	0	523	607	
8	0	0	0	0	523	606	
9	0	0	0	0	522	607	
10	0	0	0	0	521	608	
11	0	0	0	0	521	607	
12	0	0	0	0	522	609	
13	0	0	0	0	523	608	
14	0	0	0	0	523	608	
15	0	0	0	0	523	607	
0	0	0	0	0	524	606	
1	0	0	0	0	524	608	
2	0	0	0	0	524	608	
3	0	0	0	0	525	608	
4	0	0	0	0	526	610	
5	0	0	0	0	527	608	
6	0	0	0	0	528	608	
7	0	0	0	0	529	608	
8	0	0	0	0	530	606	
9	0	0	0	0	531	608	
10	0	0	0	0	531	608	
11	0	0	0	0	534	608	
12	0	0	0	0	537	610	
13	0	0	0	0	535	608	
14	0	0	0	0	533	608	
15	0	0	0	0	536	608	
0	0	0	0	0	537	606	
1	0	0	0	0	539	608	
2	0	0	0	0	541	608	
3	0	0	0	0	542	608	
4	0	0	0	0	543	610	
5	0	0	0	0	545	609	
6	0	0	0	0	545	608	
7	0	0	0	0	544	608	
8	0	0	0	0	541	607	
9	0	0	0	0	537	609	
10	0	0	0	0	533	608	
11	0	0	0	0	528	608	
12	0	0	0	0	527	611	
13	0	0	0	0	526	609	
14	0	0	0	0	528	609	
15	0	0	0	0	534	609	
0	0	0	0	0	541	608	
1	0	0	0	0	549	610	
2	0	0	0	0	556	610	
3	0	0	0	0	560	610	
4	0	0	0	0	565	612	
5	0	0	0	0	569	611	
6	0	0	0	0	575	611	
7	0	0	0	0	584	611	
8	0	0	0	0	595	609	
9	0	0	0	0	602	611	
10	0	0	0	0	607	611	
11	0	0	0	0	613	611	
12	0	0	0	0	617	612	
13	0	0	0	0	626	611	
14	0	0	0	0	636	611	
15	0	0	0	0	647	611	
0	0	0	0	0	663	609	
1	0	0	0	0	685	611	
2	0	0	0	0	707	611	
3	0	0	0	0	726	611	
4	0	0	0	0	739	613	
5	0	0	0	0	742	611	
6	0	0	0	0	737	610	
7	0	0	0	0	729	611	
8	0	0	0	0	719	608	
9	0	0	0	0	703	611	
10	0	0	0	0	679	611	
11	0	0	0	0	657	610	
12	0	0	0	0	639	612	
13	0	0	0	0	624	610	
14	0	0	0	0	614	610	
15	0	0	0	0	606	611	
0	0	0	0	0	599	609	
1	0	0	0	0	595	611	
2	0	0	0	0	596	609	
3	0	0	0	0	600	610	
4	0	0	0	0	607	611	
5	0	0	0	0	611	610	
6	0	0	0	0	613	610	
7	0	0	0	0	615	610	
8	0	0	0	0	616	608	
9	0	0	0	0	619	609	
10	0	0	0	0	620	609	
11	0	0	0	0	621	610	
12	0	0	0	0	620	611	
13	0	0	0	0	620	609	
14	0	0	0	0	620	609	
15	0	0	0	0	617	609	
0	0	0	0	0	614	607	
1	0	0	0	0	610	609	
2	0	0	0	0	604	608	
3	0	0	0	0	598	609	
4	0	0	0	0	590	610	
5	0	0	0	0	583	609	
6	0	0	0	0	574	609	
7	0	0	0	0	566	608	
8	0	0	0	0	559	606	
9	0	0	0	0	550	608	
10	0	0	0	0	541	608	
11	0	0	0	0	531	608	
12	0	0	0	0	523	609	
13	0	0	0	0	515	608	
14	0	0	0	0	508	608	
15	0	0	0	0	502	608	
0	0	0	0	0	498	606	
1	0	0	0	0	494	608	
2	0	0	0	0	491	608	
3	0	0	0	0	489	608	
4	0	0	0	0	487	609	
5	0	0	0	0	485	608	
6	0	0	0	0	483	607	
7	0	0	0	0	482	607	
8	0	0	0	0	481	605	
9	0	0	0	0	480	607	
10	0	0	0	0	480	608	
11	0	0	0	0	478	607	
12	0	0	0	0	479	609	
13	0	0	0	0	479	607	
14	0	0	0	0	480	607	
15	0	0	0	0	481	608	
0	0	0	0	0	482	605	
1	0	0	0	0	484	608	
2	0	0	0	0	485	608	
3	0	0	0	0	485	607	
4	0	0	0	0	486	608	
5	0	0	0	0	487	607	
6	0	0	0	0	486	608	
7	0	0	0	0	486	607	
8	0	0	0	0	488	606	
9	0	0	0	0	490	607	
10	0	0	0	0	492	608	
11	0	0	0	0	492	608	
12	0	0	0	0	493	609	
13	0	0	0	0	495	607	
14	0	0	0	0	496	608	
15	0	0	0	0	497	609	
0	0	0	0	0	498	607	
1	0	0	0	0	499	608	
2	0	0	0	0	501	609	
3	0	0	0	0	502	609	
4	0	0	0	0	503	611	
5	0	0	0	0	503	609	
6	0	0	0	0	503	609	
7	0	0	0	0	504	609	
8	0	0	0	0	504	607	
9	0	0	0	0	504	609	
10	0	0	0	0	505	610	
11	0	0	0	0	505	610	
12	0	0	0	0	506	612	
13	0	0	0	0	508	610	
14	0	0	0	0	508	611	
15	0	0	0	0	508	610	
0	0	0	0	0	508	609	
1	0	0	0	0	508	611	
2	0	0	0	0	509	611	
3	0	0	0	0	510	610	
4	0	0	0	0	509	612	
5	0	0	0	0	510	611	
6	0	0	0	0	509	611	
7	0	0	0	0	511	611	
8	0	0	0	0	511	609	
9	0	0	0	0	512	611	
10	0	0	0	0	512	611	
11	0	0	0	0	513	611	
12	0	0	0	0	514	612	
13	0	0	0	0	515	610	
14	0	0	0	0	516	611	
15	0	0	0	0	518	611	
0	0	0	0	0	519	609	
1	0	0	0	0	519	611	
2	0	0	0	0	520	611	
3	0	0	0	0	521	611	
4	0	0	0	0	521	613	
5	0	0	0	0	520	611	
6	0	0	0	0	521	611	
7	0	0	0	0	521	611	
8	0	0	0	0	520	609	
9	0	0	0	0	520	611	
10	0	0	0	0	520	611	
11	0	0	0	0	522	612	
12	0	0	0	0	522	613	
13	0	0	0	0	523	611	
14	0	0	0	0	523	612	
15	0	0	0	0	523	612	
0	0	0	0	0	523	610	
1	0	0	0	0	523	611	
2	0	0	0	0	523	612	
3	0	0	0	0	524	612	
4	0	0	0	0	524	614	
5	0	0	0	0	524	611	
6	0	0	0	0	525	612	
7	0	0	0	0	526	611	
8	0	0	0	0	527	609	
9	0	0	0	0	528	612	
10	0	0	0	0	528	611	
11	0	0	0	0	531	611	
12	0	0	0	0	532	612	
13	0	0	0	0	532	611	
14	0	0	0	0	531	612	
15	0	0	0	0	530	611	
0	0	0	0	0	529	609	
1	0	0	0	0	530	611	
2	0	0	0	0	531	611	
3	0	0	0	0	532	611	
4	0	0	0	0	532	612	
5	0	0	0	0	531	610	
6	0	0	0	0	530	610	
7	0	0	0	0	528	610	
8	0	0	0	0	528	608	
9	0	0	0	0	527	610	
10	0	0	0	0	527	610	
11	0	0	0	0	529	610	
12	0	0	0	0	528	611	
13	0	0	0	0	526	610	
14	0	0	0	0	527	609	
15	0	0	0	0	527	610	
0	0	0	0	0	524	607	
1	0	0	0	0	521	609	
2	0	0	0	0	520	609	
3	0	0	0	0	521	608	
4	0	0	0	0	521	611	
5	0	0	0	0	522	609	
6	0	0	0	0	525	609	
7	0	0	0	0	527	609	
8	0	0	0	0	528	608	
9	0	0	0	0	529	609	
10	0	0	0	0	529	610	
11	0	0	0	0	529	609	
12	0	0	0	0	529	612	
13	0	0	0	0	529	610	
14	0	0	0	0	531	611	
15	0	0	0	0	532	611	
0	0	0	0	0	533	608	
1	0	0	0	0	533	611	
2	0	0	0	0	534	610	
3	0	0	0	0	533	610	
4	0	0	0	0	535	613	
5	0	0	0	0	534	611	
6	0	0	0	0	532	612	
7	0	0	0	0	532	612	
8	0	0	0	0	532	610	
9	0	0	0	0	533	613	
10	0	0	0	0	534	613	
11	0	0	0	0	535	613	
12	0	0	0	0	536	614	
13	0	0	0	0	536	614	
14	0	0	0	0	536	613	
15	0	0	0	0	537	614	
0	0	0	0	0	539	612	
1	0	0	0	0	539	614	
2	0	0	0	0	540	614	
3	0	0	0	0	541	614	
4	0	0	0	0	543	616	
5	0	0	0	0	542	615	
6	0	0	0	0	543	615	
7	0	0	0	0	544	616	
8	0	0	0	0	545	614	
9	0	0	0	0	546	616	
10	0	0	0	0	547	615	
11	0	0	0	0	547	615	
12	0	0	0	0	548	617	
13	0	0	0	0	549	616	
14	0	0	0	0	550	615	
15	0	0	0	0	551	616	
0	0	0	0	0	553	615	
1	0	0	0	0	555	617	
2	0	0	0	0	556	616	
3	0	0	0	0	558	616	
4	0	0	0	0	559	618	
5	0	0	0	0	560	617	
6	0	0	0	0	561	617	
7	0	0	0	0	562	617	
8	0	0	0	0	566	615	
9	0	0	0	0	568	617	
10	0	0	0	0	568	618	
11	0	0	0	0	568	617	
12	0	0	0	0	569	619	
13	0	0	0	0	571	618	
14	0	0	0	0	572	618	
15	0	0	0	0	571	618	
0	0	0	0	0	569	616	
1	0	0	0	0	567	618	
2	0	0	0	0	567	618	
3	0	0	0	0	567	617	
4	0	0	0	0	568	619	
5	0	0	0	0	569	617	
6	0	0	0	0	568	617	
7	0	0	0	0	568	617	
8	0	0	0	0	566	615	
9	0	0	0	0	566	615	
10	0	0	0	0	567	616	
11	0	0	0	0	567	615	
12	0	0	0	0	568	617	
13	0	0	0	0	570	615	
14	0	0	0	0	576	615	
15	0	0	0	0	587	615	
0	0	0	0	0	601	613	
1	0	0	0	0	616	615	
2	0	0	0	0	631	614	
3	0	0	0	0	643	614	
4	0	0	0	0	655	615	
5	0	0	0	0	664	613	
6	0	0	0	0	673	613	
7	0	0	0	0	681	614	
8	0	0	0	0	689	611	
9	0	0	0	0	691	613	
10	0	0	0	0	695	612	
11	0	0	0	0	700	612	
12	0	0	0	0	703	612	
13	0	0	0	0	706	611	
14	0	0	0	0	708	611	
15	0	0	0	0	710	611	
0	0	0	0	0	712	609	
1	0	0	0	0	713	610	
2	0	0	0	0	716	611	
3	0	0	0	0	718	611	
4	0	0	0	0	719	612	
5	0	0	0	0	719	610	
6	0	0	0	0	720	611	
7	0	0	0	0	720	609	
8	0	0	0	0	721	608	
9	0	0	0	0	722	610	
10	0	0	0	0	724	608	
11	0	0	0	0	724	609	
12	0	0	0	0	722	610	
13	0	0	0	0	721	609	
14	0	0	0	0	721	608	
15	0	0	0	0	720	608	
0	0	0	0	0	721	607	
1	0	0	0	0	721	608	
2	0	0	0	0	720	608	
3	0	0	0	0	717	608	
4	0	0	0	0	714	609	
5	0	0	0	0	712	607	
6	0	0	0	0	711	607	
7	0	0	0	0	711	607	
8	0	0	0	0	710	605	
9	0	0	0	0	708	607	
10	0	0	0	0	708	607	
11	0	0	0	0	707	606	
12	0	0	0	0	708	608	
13	0	0	0	0	708	607	
14	0	0	0	0	709	606	
15	0	0	0	0	708	606	
0	0	0	0	0	708	604	
1	0	0	0	0	706	606	
2	0	0	0	0	704	606	
3	0	0	0	0	700	606	
4	0	0	0	0	698	607	
5	0	0	0	0	698	605	
6	0	0	0	0	696	606	
7	0	0	0	0	695	606	
8	0	0	0	0	694	604	
9	0	0	0	0	692	606	
10	0	0	0	0	692	606	
11	0	0	0	0	692	606	
12	0	0	0	0	690	608	
13	0	0	0	0	688	606	
14	0	0	0	0	686	605	
15	0	0	0	0	684	606	
0	0	0	0	0	681	603	
1	0	0	0	0	677	606	
2	0	0	0	0	675	605	
3	0	0	0	0	674	605	
4	0	0	0	0	674	607	
5	0	0	0	0	674	604	
6	0	0	0	0	674	604	
7	0	0	0	0	674	604	
8	0	0	0	0	673	602	
9	0	0	0	0	671	604	
10	0	0	0	0	669	604	
11	0	0	0	0	670	604	
12	0	0	0	0	668	605	
13	0	0	0	0	667	604	
14	0	0	0	0	667	604	
15	0	0	0	0	666	603	
0	0	0	0	0	665	601	
1	0	0	0	0	663	603	
2	0	0	0	0	663	603	
3	0	0	0	0	662	603	
4	0	0	0	0	662	605	
5	0	0	0	0	662	604	
6	0	0	0	0	662	603	
7	0	0	0	0	662	602	
8	0	0	0	0	663	600	
9	0	0	0	0	662	603	
10	0	0	0	0	660	602	
11	0	0	0	0	659	602	
12	0	0	0	0	658	604	
13	0	0	0	0	657	602	
14	0	0	0	0	658	602	
15	0	0	0	0	657	602	
0	0	0	0	0	656	600	
1	0	0	0	0	655	602	
2	0	0	0	0	655	603	
3	0	0	0	0	656	602	
4	0	0	0	0	658	604	
5	0	0	0	0	659	603	
6	0	0	0	0	659	603	
7	0	0	0	0	658	603	
8	0	0	0	0	662	601	
9	0	0	0	0	664	603	
10	0	0	0	0	665	603	
11	0	0	0	0	666	603	
12	0	0	0	0	666	604	
13	0	0	0	0	664	603	
14	0	0	0	0	663	603	
15	0	0	0	0	664	603	
0	0	0	0	0	664	601	
1	0	0	0	0	665	603	
2	0	0	0	0	666	603	
3	0	0	0	0	667	602	
4	0	0	0	0	667	604	
5	0	0	0	0	665	603	
6	0	0	0	0	663	603	
7	0	0	0	0	661	602	
8	0	0	0	0	659	600	
9	0	0	0	0	657	603	
10	0	0	0	0	655	603	
11	0	0	0	0	651	604	
12	0	0	0	0	648	606	
13	0	0	0	0	644	604	
14	0	0	0	0	641	604	
15	0	0	0	0	641	605	
0	0	0	0	0	640	603	
1	0	0	0	0	639	604	
2	0	0	0	0	638	605	
3	0	0	0	0	637	604	
4	0	0	0	0	636	607	
5	0	0	0	0	635	605	
6	0	0	0	0	633	606	
7	0	0	0	0	633	607	
8	0	0	0	0	633	605	
9	0	0	0	0	634	606	
10	0	0	0	0	634	607	
11	0	0	0	0	632	606	
12	0	0	0	0	630	608	
13	0	0	0	0	628	606	
14	0	0	0	0	627	606	
15	0	0	0	0	625	606	
0	0	0	0	0	624	605	
1	0	0	0	0	622	606	
2	0	0	0	0	622	606	
3	0	0	0	0	621	606	
4	0	0	0	0	619	609	
5	0	0	0	0	619	607	
6	0	0	0	0	619	607	
7	0	0	0	0	619	607	
8	0	0	0	0	618	605	
9	0	0	0	0	616	607	
10	0	0	0	0	616	607	
11	0	0	0	0	615	607	
12	0	0	0	0	613	609	
13	0	0	0	0	609	608	
14	0	0	0	0	607	608	
15	0	0	0	0	606	608	
0	0	0	0	0	605	606	
1	0	0	0	0	605	608	
2	0	0	0	0	605	608	
3	0	0	0	0	604	608	
4	0	0	0	0	600	610	
5	0	0	0	0	599	608	
6	0	0	0	0	597	608	
7	0	0	0	0	596	608	
8	0	0	0	0	595	606	
9	0	0	0	0	593	608	
10	0	0	0	0	592	608	
11	0	0	0	0	591	608	
12	0	0	0	0	591	609	
13	0	0	0	0	590	608	
14	0	0	0	0	588	609	
15	0	0	0	0	586	608	
0	0	0	0	0	584	607	
1	0	0	0	0	580	608	
2	0	0	0	0	577	608	
3	0	0	0	0	577	609	
4	0	0	0	0	578	611	
5	0	0	0	0	577	608	
6	0	0	0	0	576	609	
7	0	0	0	0	577	608	
8	0	0	0	0	575	607	
9	0	0	0	0	571	608	
10	0	0	0	0	568	609	
11	0	0	0	0	567	609	
12	0	0	0	0	566	611	
13	0	0	0	0	565	609	
14	0	0	0	0	562	608	
15	0	0	0	0	561	609	
0	0	0	0	0	564	607	
1	0	0	0	0	565	609	
2	0	0	0	0	562	609	
3	0	0	0	0	560	609	
4	0	0	0	0	557	611	
5	0	0	0	0	556	609	
6	0	0	0	0	558	610	
7	0	0	0	0	559	610	
8	0	0	0	0	559	608	
9	0	0	0	0	557	610	
10	0	0	0	0	554	610	
11	0	0	0	0	550	610	
12	0	0	0	0	546	611	
13	0	0	0	0	543	610	
14	0	0	0	0	540	610	
15	0	0	0	0	541	610	
0	0	0	0	0	543	608	
1	0	0	0	0	543	610	
2	0	0	0	0	542	611	
3	0	0	0	0	540	610	
4	0	0	0	0	539	612	
5	0	0	0	0	537	610	
6	0	0	0	0	535	610	
7	0	0	0	0	533	610	
8	0	0	0	0	531	608	
9	0	0	0	0	531	609	
10	0	0	0	0	529	610	
11	0	0	0	0	527	611	
12	0	0	0	0	529	611	
13	0	0	0	0	531	610	
14	0	0	0	0	532	611	
15	0	0	0	0	533	611	
0	0	0	0	0	532	608	
1	0	0	0	0	532	611	
2	0	0	0	0	531	611	
3	0	0	0	0	531	611	
4	0	0	0	0	531	612	
5	0	0	0	0	529	611	
6	0	0	0	0	529	611	
7	0	0	0	0	527	611	
8	0	0	0	0	527	609	
9	0	0	0	0	528	611	
10	0	0	0	0	530	611	
11	0	0	0	0	531	611	
12	0	0	0	0	531	613	
13	0	0	0	0	531	612	
14	0	0	0	0	529	612	
15	0	0	0	0	527	611	
0	0	0	0	0	526	611	
1	0	0	0	0	525	612	
2	0	0	0	0	526	612	
3	0	0	0	0	524	612	
4	0	0	0	0	523	614	
5	0	0	0	0	524	613	
6	0	0	0	0	525	613	
7	0	0	0	0	525	613	
8	0	0	0	0	523	612	
9	0	0	0	0	521	614	
10	0	0	0	0	520	614	
11	0	0	0	0	519	614	
12	0	0	0	0	518	616	
13	0	0	0	0	516	614	
14	0	0	0	0	514	614	
15	0	0	0	0	512	615	
0	0	0	0	0	511	613	
1	0	0	0	0	511	615	
2	0	0	0	0	511	615	
3	0	0	0	0	510	615	
4	0	0	0	0	510	617	
5	0	0	0	0	510	615	
6	0	0	0	0	510	616	
7	0	0	0	0	508	616	
8	0	0	0	0	507	614	
9	0	0	0	0	506	615	
10	0	0	0	0	505	615	
11	0	0	0	0	504	615	
12	0	0	0	0	503	616	
13	0	0	0	0	502	615	
14	0	0	0	0	502	615	
15	0	0	0	0	501	615	
0	0	0	0	0	500	614	
1	0	0	0	0	500	616	
2	0	0	0	0	500	615	
3	0	0	0	0	500	615	
4	0	0	0	0	499	617	
5	0	0	0	0	498	615	
6	0	0	0	0	495	615	
7	0	0	0	0	492	615	
8	0	0	0	0	492	613	
9	0	0	0	0	490	615	
10	0	0	0	0	488	615	
11	0	0	0	0	486	614	
12	0	0	0	0	484	615	
13	0	0	0	0	483	614	
14	0	0	0	0	483	614	
15	0	0	0	0	483	614	
0	0	0	0	0	485	612	
1	0	0	0	0	484	614	
2	0	0	0	0	484	613	
3	0	0	0	0	483	613	
4	0	0	0	0	484	615	
5	0	0	0	0	484	612	
6	0	0	0	0	482	612	
7	0	0	0	0	480	613	
8	0	0	0	0	479	611	
9	0	0	0	0	479	613	
10	0	0	0	0	480	613	
11	0	0	0	0	479	612	
12	0	0	0	0	478	614	
13	0	0	0	0	476	612	
14	0	0	0	0	473	612	
15	0	0	0	0	473	611	
0	0	0	0	0	474	609	
1	0	0	0	0	473	611	
2	0	0	0	0	472	611	
3	0	0	0	0	470	611	
4	0	0	0	0	468	612	
5	0	0	0	0	468	610	
6	0	0	0	0	468	610	
7	0	0	0	0	467	610	
8	0	0	0	0	466	607	
9	0	0	0	0	466	609	
10	0	0	0	0	466	609	
11	0	0	0	0	465	609	
12	0	0	0	0	466	611	
13	0	0	0	0	467	609	
14	0	0	0	0	467	608	
15	0	0	0	0	467	608	
0	0	0	0	0	468	606	
1	0	0	0	0	468	608	
2	0	0	0	0	467	608	
3	0	0	0	0	466	607	
4	0	0	0	0	465	609	
5	0	0	0	0	465	607	
6	0	0	0	0	463	607	
7	0	0	0	0	460	606	
8	0	0	0	0	459	604	
9	0	0	0	0	459	606	
10	0	0	0	0	459	606	
11	0	0	0	0	457	606	
12	0	0	0	0	456	607	
13	0	0	0	0	455	606	
14	0	0	0	0	453	605	
15	0	0	0	0	451	605	
0	0	0	0	0	447	603	
1	0	0	0	0	441	605	
2	0	0	0	0	434	605	
3	0	0	0	0	427	605	
4	0	0	0	0	420	607	
5	0	0	0	0	413	605	
6	0	0	0	0	409	605	
7	0	0	0	0	408	605	
8	0	0	0	0	410	603	
9	0	0	0	0	413	605	
10	0	0	0	0	417	605	
11	0	0	0	0	420	605	
12	0	0	0	0	422	607	
13	0	0	0	0	422	605	
14	0	0	0	0	423	605	
15	0	0	0	0	426	606	
0	0	0	0	0	432	603	
1	0	0	0	0	438	605	
2	0	0	0	0	443	606	
3	0	0	0	0	450	606	
4	0	0	0	0	458	607	
5	0	0	0	0	472	606	
6	0	0	0	0	499	606	
7	0	0	0	0	530	606	
8	0	0	0	0	566	604	
9	0	0	0	0	605	606	
10	0	0	0	0	647	606	
11	0	0	0	0	692	606	
12	0	0	0	0	729	608	
13	0	0	0	0	757	607	
14	0	0	0	0	774	607	
15	0	0	0	0	779	607	
0	0	0	0	0	776	606	
1	0	0	0	0	772	608	
2	0	0	0	0	769	607	
3	0	0	0	0	758	607	
4	0	0	0	0	738	610	
5	0	0	0	0	715	608	
6	0	0	0	0	696	608	
7	0	0	0	0	683	608	
8	0	0	0	0	673	606	
9	0	0	0	0	666	608	
10	0	0	0	0	660	609	
11	0	0	0	0	659	608	
12	0	0	0	0	660	610	
13	0	0	0	0	663	609	
14	0	0	0	0	659	609	
15	0	0	0	0	652	608	
0	0	0	0	0	644	607	
1	0	0	0	0	634	609	
2	0	0	0	0	620	609	
3	0	0	0	0	605	609	
4	0	0	0	0	591	611	
5	0	0	0	0	576	609	
6	0	0	0	0	561	609	
7	0	0	0	0	545	609	
8	0	0	0	0	527	608	
9	0	0	0	0	508	609	
10	0	0	0	0	490	609	
11	0	0	0	0	472	609	
12	0	0	0	0	456	610	
13	0	0	0	0	443	609	
14	0	0	0	0	428	609	
15	0	0	0	0	414	609	
0	0	0	0	0	404	607	
1	0	0	0	0	395	609	
2	0	0	0	0	384	608	
3	0	0	0	0	375	609	
4	0	0	0	0	367	610	
5	0	0	0	0	358	609	
6	0	0	0	0	351	609	
7	0	0	0	0	344	608	
8	0	0	0	0	339	607	
9	0	0	0	0	335	608	
10	0	0	0	0	332	609	
11	0	0	0	0	331	608	
12	0	0	0	0	329	611	
13	0	0	0	0	328	609	
14	0	0	0	0	328	608	
15	0	0	0	0	329	608	
0	0	0	0	0	330	606	
1	0	0	0	0	330	608	
2	0	0	0	0	330	608	
3	0	0	0	0	330	607	
4	0	0	0	0	331	609	
5	0	0	0	0	331	607	
6	0	0	0	0	331	606	
7	0	0	0	0	330	607	
8	0	0	0	0	328	604	
9	0	0	0	0	329	607	
10	0	0	0	0	329	606	
11	0	0	0	0	329	607	
12	0	0	0	0	329	608	
13	0	0	0	0	330	607	
14	0	0	0	0	331	605	
15	0	0	0	0	331	606	
0	0	0	0	0	332	603	
1	0	0	0	0	332	605	
2	0	0	0	0	333	605	
3	0	0	0	0	333	605	
4	0	0	0	0	334	607	
5	0	0	0	0	334	604	
6	0	0	0	0	335	604	
7	0	0	0	0	335	604	
8	0	0	0	0	336	603	
9	0	0	0	0	337	604	
10	0	0	0	0	339	603	
11	0	0	0	0	339	604	
12	0	0	0	0	339	605	
13	0	0	0	0	341	604	
14	0	0	0	0	342	604	
15	0	0	0	0	343	604	
0	0	0	0	0	342	602	
1	0	0	0	0	340	603	
2	0	0	0	0	338	604	
3	0	0	0	0	334	604	
4	0	0	0	0	333	605	
5	0	0	0	0	334	604	
6	0	0	0	0	334	603	
7	0	0	0	0	336	603	
8	0	0	0	0	338	601	
9	0	0	0	0	338	603	
10	0	0	0	0	338	604	
11	0	0	0	0	339	604	
12	0	0	0	0	338	605	
13	0	0	0	0	339	603	
14	0	0	0	0	340	603	
15	0	0	0	0	341	603	
0	0	0	0	0	342	600	
1	0	0	0	0	344	602	
2	0	0	0	0	343	603	
3	0	0	0	0	344	603	
4	0	0	0	0	345	605	
5	0	0	0	0	347	603	
6	0	0	0	0	348	603	
7	0	0	0	0	349	604	
8	0	0	0	0	350	602	
9	0	0	0	0	351	604	
10	0	0	0	0	352	604	
11	0	0	0	0	354	604	
12	0	0	0	0	355	606	
13	0	0	0	0	355	604	
14	0	0	0	0	357	605	
15	0	0	0	0	358	606	
0	0	0	0	0	359	604	
1	0	0	0	0	363	606	
2	0	0	0	0	364	606	
3	0	0	0	0	362	607	
4	0	0	0	0	359	608	
5	0	0	0	0	357	606	
6	0	0	0	0	356	606	
7	0	0	0	0	354	607	
8	0	0	0	0	354	604	
9	0	0	0	0	353	606	
10	0	0	0	0	354	606	
11	0	0	0	0	355	606	
12	0	0	0	0	356	608	
13	0	0	0	0	356	607	
14	0	0	0	0	356	607	
15	0	0	0	0	357	607	
0	0	0	0	0	357	606	
1	0	0	0	0	358	608	
2	0	0	0	0	359	608	
3	0	0	0	0	359	608	
4	0	0	0	0	360	610	
5	0	0	0	0	361	608	
6	0	0	0	0	362	608	
7	0	0	0	0	363	608	
8	0	0	0	0	365	606	
9	0	0	0	0	365	609	
10	0	0	0	0	366	610	
11	0	0	0	0	366	610	
12	0	0	0	0	366	612	
13	0	0	0	0	368	610	
14	0	0	0	0	370	610	
15	0	0	0	0	369	609	
0	0	0	0	0	367	606	
1	0	0	0	0	369	608	
2	0	0	0	0	371	608	
3	0	0	0	0	371	608	
4	0	0	0	0	371	609	
5	0	0	0	0	372	608	
6	0	0	0	0	373	607	
7	0	0	0	0	373	607	
8	0	0	0	0	374	605	
9	0	0	0	0	374	607	
10	0	0	0	0	374	607	
11	0	0	0	0	375	607	
12	0	0	0	0	375	608	
13	0	0	0	0	375	607	
14	0	0	0	0	374	607	
15	0	0	0	0	375	608	
0	0	0	0	0	376	607	
1	0	0	0	0	378	608	
2	0	0	0	0	381	609	
3	0	0	0	0	381	610	
4	0	0	0	0	381	612	
5	0	0	0	0	382	611	
6	0	0	0	0	381	610	
7	0	0	0	0	379	611	
8	0	0	0	0	378	609	
9	0	0	0	0	378	611	
10	0	0	0	0	379	611	
11	0	0	0	0	380	612	
12	0	0	0	0	380	614	
13	0	0	0	0	380	612	
14	0	0	0	0	380	612	
15	0	0	0	0	379	613	
0	0	0	0	0	379	611	
1	0	0	0	0	379	613	
2	0	0	0	0	379	613	
3	0	0	0	0	378	614	
4	0	0	0	0	379	615	
5	0	0	0	0	379	614	
6	0	0	0	0	379	615	
7	0	0	0	0	380	615	
8	0	0	0	0	381	613	
9	0	0	0	0	381	615	
10	0	0	0	0	382	615	
11	0	0	0	0	382	615	
12	0	0	0	0	383	617	
13	0	0	0	0	383	615	
14	0	0	0	0	383	615	
15	0	0	0	0	383	615	
0	0	0	0	0	383	613	
1	0	0	0	0	383	615	
2	0	0	0	0	384	615	
3	0	0	0	0	384	614	
4	0	0	0	0	384	616	
5	0	0	0	0	384	614	
6	0	0	0	0	384	614	
7	0	0	0	0	384	613	
8	0	0	0	0	383	611	
9	0	0	0	0	383	613	
10	0	0	0	0	384	613	
11	0	0	0	0	384	613	
12	0	0	0	0	386	615	
13	0	0	0	0	387	614	
14	0	0	0	0	387	614	
15	0	0	0	0	389	614	
0	0	0	0	0	391	612	
1	0	0	0	0	391	614	
2	0	0	0	0	391	614	
3	0	0	0	0	391	614	
4	0	0	0	0	391	616	
5	0	0	0	0	390	614	
6	0	0	0	0	389	614	
7	0	0	0	0	387	614	
8	0	0	0	0	384	612	
9	0	0	0	0	382	614	
10	0	0	0	0	382	614	
11	0	0	0	0	382	613	
12	0	0	0	0	382	615	
13	0	0	0	0	382	614	
14	0	0	0	0	383	613	
15	0	0	0	0	383	613	
0	0	0	0	0	383	611	
1	0	0	0	0	384	612	
2	0	0	0	0	386	612	
3	0	0	0	0	389	611	
4	0	0	0	0	391	613	
5	0	0	0	0	393	611	
6	0	0	0	0	395	611	
7	0	0	0	0	397	611	
8	0	0	0	0	398	609	
9	0	0	0	0	398	610	
10	0	0	0	0	399	609	
11	0	0	0	0	400	609	
12	0	0	0	0	401	611	
13	0	0	0	0	402	610	
14	0	0	0	0	405	609	
15	0	0	0	0	409	609	
0	0	0	0	0	413	608	
1	0	0	0	0	416	609	
2	0	0	0	0	418	609	
3	0	0	0	0	419	608	
4	0	0	0	0	421	610	
5	0	0	0	0	423	608	
6	0	0	0	0	425	608	
7	0	0	0	0	428	607	
8	0	0	0	0	429	605	
9	0	0	0	0	432	607	
10	0	0	0	0	434	607	
11	0	0	0	0	435	607	
12	0	0	0	0	435	609	
13	0	0	0	0	435	608	
14	0	0	0	0	435	608	
15	0	0	0	0	436	608	
0	0	0	0	0	438	606	
1	0	0	0	0	440	608	
2	0	0	0	0	441	607	
3	0	0	0	0	443	608	
4	0	0	0	0	444	610	
5	0	0	0	0	446	608	
6	0	0	0	0	448	608	
7	0	0	0	0	451	608	
8	0	0	0	0	453	606	
9	0	0	0	0	455	608	
10	0	0	0	0	457	608	
11	0	0	0	0	459	608	
12	0	0	0	0	462	611	
13	0	0	0	0	464	608	
14	0	0	0	0	467	608	
15	0	0	0	0	468	608	
0	0	0	0	0	470	607	
1	0	0	0	0	472	608	
2	0	0	0	0	474	608	
3	0	0	0	0	477	608	
4	0	0	0	0	478	609	
5	0	0	0	0	479	608	
6	0	0	0	0	476	607	
7	0	0	0	0	478	608	
8	0	0	0	0	482	606	
9	0	0	0	0	484	608	
10	0	0	0	0	482	608	
11	0	0	0	0	480	608	
12	0	0	0	0	480	610	
13	0	0	0	0	479	608	
14	0	0	0	0	479	608	
15	0	0	0	0	478	608	
0	0	0	0	0	478	606	
1	0	0	0	0	476	608	
2	0	0	0	0	477	608	
3	0	0	0	0	478	609	
4	0	0	0	0	480	611	
5	0	0	0	0	481	609	
6	0	0	0	0	481	610	
7	0	0	0	0	480	610	
8	0	0	0	0	480	609	
9	0	0	0	0	480	610	
10	0	0	0	0	480	610	
11	0	0	0	0	480	610	
12	0	0	0	0	483	612	
13	0	0	0	0	485	610	
14	0	0	0	0	486	611	
15	0	0	0	0	486	611	
0	0	0	0	0	486	610	
1	0	0	0	0	486	612	
2	0	0	0	0	485	611	
3	0	0	0	0	483	612	
4	0	0	0	0	482	614	
5	0	0	0	0	482	612	
6	0	0	0	0	481	612	
7	0	0	0	0	481	612	
8	0	0	0	0	482	610	
9	0	0	0	0	480	612	
10	0	0	0	0	478	612	
11	0	0	0	0	477	613	
12	0	0	0	0	478	615	
13	0	0	0	0	480	614	
14	0	0	0	0	481	614	
15	0	0	0	0	482	614	
0	0	0	0	0	482	612	
1	0	0	0	0	481	614	
2	0	0	0	0	480	615	
3	0	0	0	0	478	614	
4	0	0	0	0	478	616	
5	0	0	0	0	479	614	
6	0	0	0	0	480	615	
7	0	0	0	0	482	615	
8	0	0	0	0	484	612	
9	0	0	0	0	484	615	
10	0	0	0	0	484	614	
11	0	0	0	0	484	614	
12	0	0	0	0	485	615	
13	0	0	0	0	483	614	
14	0	0	0	0	482	613	
15	0	0	0	0	481	614	
0	0	0	0	0	478	612	
1	0	0	0	0	476	614	
2	0	0	0	0	475	612	
3	0	0	0	0	475	613	
4	0	0	0	0	477	614	
5	0	0	0	0	478	612	
6	0	0	0	0	480	612	
7	0	0	0	0	480	611	
8	0	0	0	0	480	610	
9	0	0	0	0	480	611	
10	0	0	0	0	480	611	
11	0	0	0	0	481	611	
12	0	0	0	0	481	613	
13	0	0	0	0	481	611	
14	0	0	0	0	481	611	
15	0	0	0	0	480	610	
0	0	0	0	0	480	608	
1	0	0	0	0	478	610	
2	0	0	0	0	478	611	
3	0	0	0	0	477	611	
4	0	0	0	0	477	612	
5	0	0	0	0	476	611	
6	0	0	0	0	476	609	
7	0	0	0	0	477	610	
8	0	0	0	0	476	608	
9	0	0	0	0	476	609	
10	0	0	0	0	476	609	
11	0	0	0	0	476	609	
12	0	0	0	0	476	611	
13	0	0	0	0	477	610	
14	0	0	0	0	478	609	
15	0	0	0	0	478	608	
0	0	0	0	0	478	607	
1	0	0	0	0	478	608	
2	0	0	0	0	477	608	
3	0	0	0	0	477	608	
4	0	0	0	0	478	609	
5	0	0	0	0	478	607	
6	0	0	0	0	480	608	
7	0	0	0	0	480	608	
8	0	0	0	0	480	606	
9	0	0	0	0	480	607	
10	0	0	0	0	480	607	
11	0	0	0	0	480	607	
12	0	0	0	0	480	609	
13	0	0	0	0	478	608	
14	0	0	0	0	477	608	
15	0	0	0	0	477	608	
0	0	0	0	0	474	607	
1	0	0	0	0	473	608	
2	0	0	0	0	470	608	
3	0	0	0	0	469	608	
4	0	0	0	0	466	611	
5	0	0	0	0	465	609	
6	0	0	0	0	465	608	
7	0	0	0	0	465	608	
8	0	0	0	0	467	607	
9	0	0	0	0	468	608	
10	0	0	0	0	471	607	
11	0	0	0	0	472	608	
12	0	0	0	0	471	609	
13	0	0	0	0	470	608	
14	0	0	0	0	468	608	
15	0	0	0	0	467	608	
0	0	0	0	0	465	606	
1	0	0	0	0	464	608	
2	0	0	0	0	469	608	
3	0	0	0	0	471	608	
4	0	0	0	0	473	609	
5	0	0	0	0	474	608	
6	0	0	0	0	474	608	
7	0	0	0	0	473	608	
8	0	0	0	0	472	606	
9	0	0	0	0	471	608	
10	0	0	0	0	471	608	
11	0	0	0	0	470	608	
12	0	0	0	0	469	610	
13	0	0	0	0	469	608	
14	0	0	0	0	470	608	
15	0	0	0	0	470	608	
0	0	0	0	0	470	607	
1	0	0	0	0	471	608	
2	0	0	0	0	471	608	
3	0	0	0	0	471	608	
4	0	0	0	0	470	610	
5	0	0	0	0	469	609	
6	0	0	0	0	468	609	
7	0	0	0	0	466	609	
8	0	0	0	0	466	608	
9	0	0	0	0	467	609	
10	0	0	0	0	467	609	
11	0	0	0	0	466	609	
12	0	0	0	0	466	611	
13	0	0	0	0	465	609	
14	0	0	0	0	466	609	
15	0	0	0	0	466	609	
0	0	0	0	0	465	607	
1	0	0	0	0	465	609	
2	0	0	0	0	464	609	
3	0	0	0	0	464	609	
4	0	0	0	0	464	611	
5	0	0	0	0	463	609	
6	0	0	0	0	463	609	
7	0	0	0	0	463	610	
8	0	0	0	0	463	608	
9	0	0	0	0	462	609	
10	0	0	0	0	461	609	
11	0	0	0	0	461	609	
12	0	0	0	0	462	611	
13	0	0	0	0	462	610	
14	0	0	0	0	463	610	
15	0	0	0	0	463	610	
0	0	0	0	0	463	609	
1	0	0	0	0	465	611	
2	0	0	0	0	464	610	
3	0	0	0	0	463	610	
4	0	0	0	0	462	612	
5	0	0	0	0	461	610	
6	0	0	0	0	461	610	
7	0	0	0	0	462	609	
8	0	0	0	0	463	608	
9	0	0	0	0	463	611	
10	0	0	0	0	463	610	
11	0	0	0	0	464	609	
12	0	0	0	0	465	612	
13	0	0	0	0	465	610	
14	0	0	0	0	466	610	
15	0	0	0	0	466	610	
0	0	0	0	0	467	608	
1	0	0	0	0	467	611	
2	0	0	0	0	468	611	
3	0	0	0	0	468	611	
4	0	0	0	0	468	612	
5	0	0	0	0	469	611	
6	0	0	0	0	470	611	
7	0	0	0	0	471	611	
8	0	0	0	0	472	609	
9	0	0	0	0	472	611	
10	0	0	0	0	473	611	
11	0	0	0	0	473	611	
12	0	0	0	0	475	614	
13	0	0	0	0	476	612	
14	0	0	0	0	477	611	
15	0	0	0	0	478	611	
0	0	0	0	0	479	609	
1	0	0	0	0	480	611	
2	0	0	0	0	481	612	
3	0	0	0	0	481	611	
4	0	0	0	0	481	614	
5	0	0	0	0	482	612	
6	0	0	0	0	483	612	
7	0	0	0	0	483	612	
8	0	0	0	0	483	611	
9	0	0	0	0	483	612	
10	0	0	0	0	486	612	
11	0	0	0	0	488	612	
12	0	0	0	0	489	614	
13	0	0	0	0	491	612	
14	0	0	0	0	491	612	
15	0	0	0	0	491	613	
0	0	0	0	0	491	611	
1	0	0	0	0	491	612	
2	0	0	0	0	491	613	
3	0	0	0	0	489	613	
4	0	0	0	0	489	615	
5	0	0	0	0	490	612	
6	0	0	0	0	491	613	
7	0	0	0	0	492	612	
8	0	0	0	0	494	611	
9	0	0	0	0	494	612	
10	0	0	0	0	493	612	
11	0	0	0	0	488	612	
12	0	0	0	0	485	614	
13	0	0	0	0	485	613	
14	0	0	0	0	486	612	
15	0	0	0	0	487	612	
0	0	0	0	0	488	610	
1	0	0	0	0	489	612	
2	0	0	0	0	487	611	
3	0	0	0	0	485	611	
4	0	0	0	0	483	614	
5	0	0	0	0	483	611	
6	0	0	0	0	483	611	
7	0	0	0	0	484	611	
8	0	0	0	0	484	609	
9	0	0	0	0	482	610	
10	0	0	0	0	481	610	
11	0	0	0	0	481	610	
12	0	0	0	0	483	612	
13	0	0	0	0	485	610	
14	0	0	0	0	486	611	
15	0	0	0	0	484	610	
0	0	0	0	0	483	608	
1	0	0	0	0	481	610	
2	0	0	0	0	481	609	
3	0	0	0	0	480	609	
4	0	0	0	0	481	611	
5	0	0	0	0	481	609	
6	0	0	0	0	483	609	
7	0	0	0	0	483	609	
8	0	0	0	0	482	607	
9	0	0	0	0	481	609	
10	0	0	0	0	483	609	
11	0	0	0	0	484	608	
12	0	0	0	0	485	611	
13	0	0	0	0	485	609	
14	0	0	0	0	486	609	
15	0	0	0	0	486	608	
0	0	0	0	0	486	607	
1	0	0	0	0	486	608	
2	0	0	0	0	487	609	
3	0	0	0	0	487	608	
4	0	0	0	0	486	610	
5	0	0	0	0	486	608	
6	0	0	0	0	487	608	
7	0	0	0	0	487	608	
8	0	0	0	0	487	606	
9	0	0	0	0	487	608	
10	0	0	0	0	487	607	
11	0	0	0	0	486	607	
12	0	0	0	0	487	609	
13	0	0	0	0	486	608	
14	0	0	0	0	486	607	
15	0	0	0	0	486	607	
0	0	0	0	0	486	605	
1	0	0	0	0	485	607	
2	0	0	0	0	484	607	
3	0	0	0	0	484	607	
4	0	0	0	0	485	608	
5	0	0	0	0	485	607	
6	0	0	0	0	485	607	
7	0	0	0	0	484	607	
8	0	0	0	0	484	604	
9	0	0	0	0	482	606	
10	0	0	0	0	481	606	
11	0	0	0	0	481	607	
12	0	0	0	0	482	608	
13	0	0	0	0	483	606	
14	0	0	0	0	484	606	
15	0	0	0	0	483	606	
0	0	0	0	0	483	604	
1	0	0	0	0	486	606	
2	0	0	0	0	485	606	
3	0	0	0	0	483	605	
4	0	0	0	0	482	607	
5	0	0	0	0	481	606	
6	0	0	0	0	480	606	
7	0	0	0	0	479	606	
8	0	0	0	0	476	603	
9	0	0	0	0	472	605	
10	0	0	0	0	465	606	
11	0	0	0	0	459	606	
12	0	0	0	0	453	607	
13	0	0	0	0	447	606	
14	0	0	0	0	443	605	
15	0	0	0	0	443	606	
0	0	0	0	0	446	604	
1	0	0	0	0	450	606	
2	0	0	0	0	454	606	
3	0	0	0	0	457	606	
4	0	0	0	0	457	607	
5	0	0	0	0	457	606	
6	0	0	0	0	458	606	
7	0	0	0	0	460	606	
8	0	0	0	0	464	604	
9	0	0	0	0	467	606	
10	0	0	0	0	471	606	
11	0	0	0	0	475	606	
12	0	0	0	0	482	608	
13	0	0	0	0	496	606	
14	0	0	0	0	522	606	
15	0	0	0	0	553	606	
0	0	0	0	0	587	604	
1	0	0	0	0	625	606	
2	0	0	0	0	670	606	
3	0	0	0	0	714	606	
4	0	0	0	0	751	608	
5	0	0	0	0	777	607	
6	0	0	0	0	792	606	
7	0	0	0	0	796	607	
8	0	0	0	0	795	606	
9	0	0	0	0	793	607	
10	0	0	0	0	792	607	
11	0	0	0	0	782	607	
12	0	0	0	0	765	608	
13	0	0	0	0	746	607	
14	0	0	0	0	731	607	
15	0	0	0	0	719	607	
0	0	0	0	0	709	605	
1	0	0	0	0	704	608	
2	0	0	0	0	702	607	
3	0	0	0	0	703	608	
4	0	0	0	0	708	610	
5	0	0	0	0	708	608	
6	0	0	0	0	705	608	
7	0	0	0	0	697	608	
8	0	0	0	0	687	606	
9	0	0	0	0	674	608	
10	0	0	0	0	660	608	
11	0	0	0	0	648	608	
12	0	0	0	0	636	610	
13	0	0	0	0	624	608	
14	0	0	0	0	609	609	
15	0	0	0	0	593	608	
0	0	0	0	0	577	606	
1	0	0	0	0	560	608	
2	0	0	0	0	543	608	
3	0	0	0	0	526	609	
4	0	0	0	0	510	611	
5	0	0	0	0	497	608	
6	0	0	0	0	485	609	
7	0	0	0	0	473	609	
8	0	0	0	0	462	608	
9	0	0	0	0	452	609	
10	0	0	0	0	444	609	
11	0	0	0	0	435	610	
12	0	0	0	0	428	611	
13	0	0	0	0	422	611	
14	0	0	0	0	416	610	
15	0	0	0	0	411	610	
0	0	0	0	0	406	608	
1	0	0	0	0	403	610	
2	0	0	0	0	401	610	
3	0	0	0	0	400	610	
4	0	0	0	0	400	612	
5	0	0	0	0	399	611	
6	0	0	0	0	397	611	
7	0	0	0	0	396	611	
8	0	0	0	0	396	609	
9	0	0	0	0	396	610	
10	0	0	0	0	397	611	
11	0	0	0	0	399	610	
12	0	0	0	0	400	612	
13	0	0	0	0	402	610	
14	0	0	0	0	403	610	
15	0	0	0	0	403	610	
0	0	0	0	0	404	608	
1	0	0	0	0	403	611	
2	0	0	0	0	404	610	
3	0	0	0	0	404	611	
4	0	0	0	0	406	612	
5	0	0	0	0	408	611	
6	0	0	0	0	409	611	
7	0	0	0	0	410	611	
8	0	0	0	0	411	609	
9	0	0	0	0	412	611	
10	0	0	0	0	412	611	
11	0	0	0	0	413	611	
12	0	0	0	0	413	613	
13	0	0	0	0	414	612	
14	0	0	0	0	416	612	
15	0	0	0	0	418	612	
0	0	0	0	0	419	609	
1	0	0	0	0	418	611	
2	0	0	0	0	419	611	
3	0	0	0	0	417	611	
4	0	0	0	0	415	613	
5	0	0	0	0	414	611	
6	0	0	0	0	415	611	
7	0	0	0	0	415	611	
8	0	0	0	0	417	609	
9	0	0	0	0	418	611	
10	0	0	0	0	419	611	
11	0	0	0	0	419	611	
12	0	0	0	0	420	613	
13	0	0	0	0	421	611	
14	0	0	0	0	420	611	
15	0	0	0	0	422	611	
0	0	0	0	0	424	609	
1	0	0	0	0	425	611	
2	0	0	0	0	426	611	
3	0	0	0	0	427	610	
4	0	0	0	0	428	612	
5	0	0	0	0	428	610	
6	0	0	0	0	428	610	
7	0	0	0	0	427	610	
8	0	0	0	0	426	608	
9	0	0	0	0	426	610	
10	0	0	0	0	427	610	
11	0	0	0	0	427	610	
12	0	0	0	0	428	612	
13	0	0	0	0	430	610	
14	0	0	0	0	431	609	
15	0	0	0	0	432	610	
0	0	0	0	0	434	608	
1	0	0	0	0	435	609	
2	0	0	0	0	437	609	
3	0	0	0	0	437	609	
4	0	0	0	0	436	611	
5	0	0	0	0	437	610	
6	0	0	0	0	440	611	
7	0	0	0	0	440	611	
8	0	0	0	0	441	609	
9	0	0	0	0	442	611	
10	0	0	0	0	443	610	
11	0	0	0	0	444	610	
12	0	0	0	0	445	612	
13	0	0	0	0	446	610	
14	0	0	0	0	447	610	
15	0	0	0	0	448	610	
0	0	0	0	0	448	608	
1	0	0	0	0	449	610	
2	0	0	0	0	451	611	
3	0	0	0	0	451	610	
4	0	0	0	0	452	612	
5	0	0	0	0	452	610	
6	0	0	0	0	453	611	
7	0	0	0	0	454	610	
8	0	0	0	0	455	608	
9	0	0	0	0	455	611	
10	0	0	0	0	453	610	
11	0	0	0	0	455	610	
12	0	0	0	0	456	612	
13	0	0	0	0	456	609	
14	0	0	0	0	457	611	
15	0	0	0	0	457	610	
0	0	0	0	0	455	608	
1	0	0	0	0	455	611	
2	0	0	0	0	454	611	
3	0	0	0	0	454	611	
4	0	0	0	0	454	612	
5	0	0	0	0	455	610	
6	0	0	0	0	456	610	
7	0	0	0	0	458	611	
8	0	0	0	0	460	608	
9	0	0	0	0	463	610	
10	0	0	0	0	464	611	
11	0	0	0	0	461	611	
12	0	0	0	0	461	612	
13	0	0	0	0	462	610	
14	0	0	0	0	461	611	
15	0	0	0	0	461	611	
0	0	0	0	0	460	609	
1	0	0	0	0	459	611	
2	0	0	0	0	457	611	
3	0	0	0	0	457	611	
4	0	0	0	0	457	613	
5	0	0	0	0	458	611	
6	0	0	0	0	459	611	
7	0	0	0	0	459	611	
8	0	0	0	0	460	609	
9	0	0	0	0	460	611	
10	0	0	0	0	461	611	
11	0	0	0	0	462	611	
12	0	0	0	0	463	613	
13	0	0	0	0	463	611	
14	0	0	0	0	463	611	
15	0	0	0	0	463	611	
0	0	0	0	0	462	609	
1	0	0	0	0	461	611	
2	0	0	0	0	463	611	
3	0	0	0	0	465	611	
4	0	0	0	0	466	613	
5	0	0	0	0	466	611	
6	0	0	0	0	465	612	
7	0	0	0	0	464	611	
8	0	0	0	0	462	610	
9	0	0	0	0	460	611	
10	0	0	0	0	459	611	
11	0	0	0	0	459	612	
12	0	0	0	0	460	613	
13	0	0	0	0	462	612	
14	0	0	0	0	463	612	
15	0	0	0	0	462	611	
0	0	0	0	0	463	610	
1	0	0	0	0	463	612	
2	0	0	0	0	463	612	
3	0	0	0	0	463	612	
4	0	0	0	0	465	613	
5	0	0	0	0	467	611	
6	0	0	0	0	468	612	
7	0	0	0	0	471	612	
8	0	0	0	0	475	610	
9	0	0	0	0	476	611	
10	0	0	0	0	476	611	
11	0	0	0	0	477	611	
12	0	0	0	0	478	613	
13	0	0	0	0	479	612	
14	0	0	0	0	479	611	
15	0	0	0	0	480	611	
0	0	0	0	0	483	609	
1	0	0	0	0	485	611	
2	0	0	0	0	487	611	
3	0	0	0	0	487	611	
4	0	0	0	0	489	612	
5	0	0	0	0	489	611	
6	0	0	0	0	491	611	
7	0	0	0	0	490	611	
8	0	0	0	0	490	608	
9	0	0	0	0	491	610	
10	0	0	0	0	493	609	
11	0	0	0	0	495	609	
12	0	0	0	0	496	611	
13	0	0	0	0	498	609	
14	0	0	0	0	498	609	
15	0	0	0	0	497	609	
0	0	0	0	0	498	608	
1	0	0	0	0	499	609	
2	0	0	0	0	500	609	
3	0	0	0	0	500	609	
4	0	0	0	0	500	610	
5	0	0	0	0	500	608	
6	0	0	0	0	499	608	
7	0	0	0	0	499	608	
8	0	0	0	0	501	607	
9	0	0	0	0	504	608	
10	0	0	0	0	505	608	
11	0	0	0	0	508	608	
12	0	0	0	0	508	610	
13	0	0	0	0	509	609	
14	0	0	0	0	508	608	
15	0	0	0	0	509	608	
0	0	0	0	0	512	606	
1	0	0	0	0	515	608	
2	0	0	0	0	517	608	
3	0	0	0	0	520	608	
4	0	0	0	0	521	609	
5	0	0	0	0	522	609	
6	0	0	0	0	524	608	
7	0	0	0	0	525	608	
8	0	0	0	0	526	607	
9	0	0	0	0	527	608	
10	0	0	0	0	529	608	
11	0	0	0	0	532	608	
12	0	0	0	0	534	610	
13	0	0	0	0	536	608	
14	0	0	0	0	539	608	
15	0	0	0	0	542	608	
0	0	0	0	0	545	607	
1	0	0	0	0	548	609	
2	0	0	0	0	551	609	
3	0	0	0	0	555	609	
4	0	0	0	0	559	611	
5	0	0	0	0	563	609	
6	0	0	0	0	567	609	
7	0	0	0	0	570	610	
8	0	0	0	0	574	607	
9	0	0	0	0	575	609	
10	0	0	0	0	575	610	
11	0	0	0	0	576	610	
12	0	0	0	0	575	612	
13	0	0	0	0	575	611	
14	0	0	0	0	576	611	
15	0	0	0	0	577	611	
0	0	0	0	0	580	609	
1	0	0	0	0	582	611	
2	0	0	0	0	585	611	
3	0	0	0	0	586	611	
4	0	0	0	0	587	612	
5	0	0	0	0	589	611	
6	0	0	0	0	590	611	
7	0	0	0	0	590	612	
8	0	0	0	0	590	609	
9	0	0	0	0	590	612	
10	0	0	0	0	589	612	
11	0	0	0	0	590	611	
12	0	0	0	0	591	614	
13	0	0	0	0	593	611	
14	0	0	0	0	595	611	
15	0	0	0	0	597	612	
0	0	0	0	0	598	610	
1	0	0	0	0	599	612	
2	0	0	0	0	601	612	
3	0	0	0	0	603	612	
4	0	0	0	0	603	615	
5	0	0	0	0	603	612	
6	0	0	0	0	602	612	
7	0	0	0	0	600	612	
8	0	0	0	0	595	611	
9	0	0	0	0	595	612	
10	0	0	0	0	598	612	
11	0	0	0	0	598	612	
12	0	0	0	0	598	613	
13	0	0	0	0	598	612	
14	0	0	0	0	598	612	
15	0	0	0	0	598	612	
0	0	0	0	0	598	610	
1	0	0	0	0	597	612	
2	0	0	0	0	597	612	
3	0	0	0	0	597	611	
4	0	0	0	0	598	613	
5	0	0	0	0	598	611	
6	0	0	0	0	595	611	
7	0	0	0	0	594	611	
8	0	0	0	0	593	609	
9	0	0	0	0	591	611	
10	0	0	0	0	590	611	
11	0	0	0	0	590	611	
12	0	0	0	0	589	611	
13	0	0	0	0	590	610	
14	0	0	0	0	591	610	
15	0	0	0	0	592	609	
0	0	0	0	0	590	608	
1	0	0	0	0	590	609	
2	0	0	0	0	590	609	
3	0	0	0	0	587	609	
4	0	0	0	0	585	610	
5	0	0	0	0	585	609	
6	0	0	0	0	586	609	
7	0	0	0	0	586	609	
8	0	0	0	0	587	607	
9	0	0	0	0	588	609	
10	0	0	0	0	587	608	
11	0	0	0	0	586	608	
12	0	0	0	0	585	610	
13	0	0	0	0	584	608	
14	0	0	0	0	584	608	
15	0	0	0	0	581	608	
0	0	0	0	0	579	606	
1	0	0	0	0	577	608	
2	0	0	0	0	575	608	
3	0	0	0	0	574	608	
4	0	0	0	0	575	610	
5	0	0	0	0	575	608	
6	0	0	0	0	575	607	
7	0	0	0	0	574	608	
8	0	0	0	0	572	606	
9	0	0	0	0	569	608	
10	0	0	0	0	566	608	
11	0	0	0	0	565	607	
12	0	0	0	0	564	610	
13	0	0	0	0	564	608	
14	0	0	0	0	565	608	
15	0	0	0	0	566	608	
0	0	0	0	0	566	606	
1	0	0	0	0	564	608	
2	0	0	0	0	562	608	
3	0	0	0	0	560	608	
4	0	0	0	0	560	610	
5	0	0	0	0	559	608	
6	0	0	0	0	559	608	
7	0	0	0	0	560	608	
8	0	0	0	0	560	607	
9	0	0	0	0	560	609	
10	0	0	0	0	560	609	
11	0	0	0	0	561	609	
12	0	0	0	0	561	611	
13	0	0	0	0	560	609	
14	0	0	0	0	560	609	
15	0	0	0	0	559	609	
0	0	0	0	0	558	607	
1	0	0	0	0	558	609	
2	0	0	0	0	557	609	
3	0	0	0	0	556	609	
4	0	0	0	0	555	611	
5	0	0	0	0	553	609	
6	0	0	0	0	553	609	
7	0	0	0	0	553	609	
8	0	0	0	0	553	607	
9	0	0	0	0	553	609	
10	0	0	0	0	553	610	
11	0	0	0	0	552	609	
12	0	0	0	0	551	611	
13	0	0	0	0	551	609	
14	0	0	0	0	551	610	
15	0	0	0	0	551	610	
0	0	0	0	0	552	607	
1	0	0	0	0	554	609	
2	0	0	0	0	556	609	
3	0	0	0	0	556	609	
4	0	0	0	0	555	611	
5	0	0	0	0	553	609	
6	0	0	0	0	551	609	
7	0	0	0	0	548	609	
8	0	0	0	0	547	608	
9	0	0	0	0	547	609	
10	0	0	0	0	546	609	
11	0	0	0	0	547	609	
12	0	0	0	0	547	611	
13	0	0	0	0	547	609	
14	0	0	0	0	547	609	
15	0	0	0	0	547	610	
0	0	0	0	0	547	608	
1	0	0	0	0	548	609	
2	0	0	0	0	548	610	
3	0	0	0	0	547	609	
4	0	0	0	0	547	611	
5	0	0	0	0	544	609	
6	0	0	0	0	542	609	
7	0	0	0	0	540	609	
8	0	0	0	0	539	607	
9	0	0	0	0	540	609	
10	0	0	0	0	541	609	
11	0	0	0	0	541	609	
12	0	0	0	0	542	611	
13	0	0	0	0	542	609	
14	0	0	0	0	542	609	
15	0	0	0	0	541	608	
0	0	0	0	0	541	607	
1	0	0	0	0	542	608	
2	0	0	0	0	542	608	
3	0	0	0	0	543	608	
4	0	0	0	0	544	610	
5	0	0	0	0	545	608	
6	0	0	0	0	547	608	
7	0	0	0	0	549	608	
8	0	0	0	0	550	606	
9	0	0	0	0	549	607	
10	0	0	0	0	548	608	
11	0	0	0	0	544	608	
12	0	0	0	0	547	609	
13	0	0	0	0	548	608	
14	0	0	0	0	548	608	
15	0	0	0	0	547	608	
0	0	0	0	0	544	607	
1	0	0	0	0	540	608	
2	0	0	0	0	540	608	
3	0	0	0	0	539	608	
4	0	0	0	0	539	610	
5	0	0	0	0	539	608	
6	0	0	0	0	538	608	
7	0	0	0	0	538	608	
8	0	0	0	0	537	607	
9	0	0	0	0	538	609	
10	0	0	0	0	539	608	
11	0	0	0	0	540	608	
12	0	0	0	0	541	610	
13	0	0	0	0	542	608	
14	0	0	0	0	541	608	
15	0	0	0	0	542	609	
0	0	0	0	0	543	607	
1	0	0	0	0	546	608	
2	0	0	0	0	546	608	
3	0	0	0	0	545	609	
4	0	0	0	0	547	610	
5	0	0	0	0	551	609	
6	0	0	0	0	554	609	
7	0	0	0	0	555	609	
8	0	0	0	0	555	607	
9	0	0	0	0	552	609	
10	0	0	0	0	549	609	
11	0	0	0	0	546	608	
12	0	0	0	0	545	610	
13	0	0	0	0	544	608	
14	0	0	0	0	542	609	
15	0	0	0	0	539	608	
0	0	0	0	0	539	607	
1	0	0	0	0	537	608	
2	0	0	0	0	537	609	
3	0	0	0	0	538	608	
4	0	0	0	0	536	610	
5	0	0	0	0	536	608	
6	0	0	0	0	536	609	
7	0	0	0	0	537	608	
8	0	0	0	0	536	606	
9	0	0	0	0	536	608	
10	0	0	0	0	537	608	
11	0	0	0	0	537	609	
12	0	0	0	0	540	610	
13	0	0	0	0	540	608	
14	0	0	0	0	540	609	
15	0	0	0	0	541	609	
0	0	0	0	0	541	607	
1	0	0	0	0	540	609	
2	0	0	0	0	539	609	
3	0	0	0	0	539	608	
4	0	0	0	0	538	610	
5	0	0	0	0	537	608	
6	0	0	0	0	536	609	
7	0	0	0	0	536	609	
8	0	0	0	0	537	607	
9	0	0	0	0	537	609	
10	0	0	0	0	536	609	
11	0	0	0	0	536	609	
12	0	0	0	0	534	611	
13	0	0	0	0	534	610	
14	0	0	0	0	534	609	
15	0	0	0	0	532	610	
0	0	0	0	0	532	608	
1	0	0	0	0	531	609	
2	0	0	0	0	531	609	
3	0	0	0	0	530	610	
4	0	0	0	0	529	611	
5	0	0	0	0	529	610	
6	0	0	0	0	529	609	
7	0	0	0	0	529	610	
8	0	0	0	0	528	608	
9	0	0	0	0	528	610	
10	0	0	0	0	527	610	
11	0	0	0	0	526	611	
12	0	0	0	0	526	612	
13	0	0	0	0	526	609	
14	0	0	0	0	526	610	
15	0	0	0	0	526	608	
0	0	0	0	0	526	607	
1	0	0	0	0	525	609	
2	0	0	0	0	526	609	
3	0	0	0	0	526	609	
4	0	0	0	0	526	611	
5	0	0	0	0	525	609	
6	0	0	0	0	524	610	
7	0	0	0	0	525	609	
8	0	0	0	0	527	607	
9	0	0	0	0	526	610	
10	0	0	0	0	526	609	
11	0	0	0	0	526	609	
12	0	0	0	0	525	611	
13	0	0	0	0	523	609	
14	0	0	0	0	521	609	
15	0	0	0	0	521	610	
0	0	0	0	0	523	608	
1	0	0	0	0	525	610	
2	0	0	0	0	527	610	
3	0	0	0	0	529	610	
4	0	0	0	0	530	613	
5	0	0	0	0	530	611	
6	0	0	0	0	531	610	
7	0	0	0	0	531	610	
8	0	0	0	0	531	608	
9	0	0	0	0	532	611	
10	0	0	0	0	531	610	
11	0	0	0	0	532	611	
12	0	0	0	0	532	612	
13	0	0	0	0	532	611	
14	0	0	0	0	534	610	
15	0	0	0	0	535	610	
0	0	0	0	0	537	608	
1	0	0	0	0	538	611	
2	0	0	0	0	539	610	
3	0	0	0	0	539	611	
4	0	0	0	0	539	612	
5	0	0	0	0	538	611	
6	0	0	0	0	538	610	
7	0	0	0	0	537	610	
8	0	0	0	0	537	608	
9	0	0	0	0	536	609	
10	0	0	0	0	536	610	
11	0	0	0	0	537	609	
12	0	0	0	0	537	611	
13	0	0	0	0	537	609	
14	0	0	0	0	536	609	
15	0	0	0	0	537	609	
0	0	0	0	0	537	607	
1	0	0	0	0	539	609	
2	0	0	0	0	539	609	
3	0	0	0	0	537	609	
4	0	0	0	0	536	610	
5	0	0	0	0	535	609	
6	0	0	0	0	534	609	
7	0	0	0	0	533	609	
8	0	0	0	0	533	607	
9	0	0	0	0	532	609	
10	0	0	0	0	531	609	
11	0	0	0	0	528	609	
12	0	0	0	0	526	611	
13	0	0	0	0	528	609	
14	0	0	0	0	529	609	
15	0	0	0	0	529	609	
0	0	0	0	0	529	608	
1	0	0	0	0	529	609	
2	0	0	0	0	530	609	
3	0	0	0	0	530	609	
4	0	0	0	0	531	611	
5	0	0	0	0	531	609	
6	0	0	0	0	531	609	
7	0	0	0	0	532	609	
8	0	0	0	0	533	608	
9	0	0	0	0	534	610	
10	0	0	0	0	536	609	
11	0	0	0	0	535	609	
12	0	0	0	0	536	611	
13	0	0	0	0	535	610	
14	0	0	0	0	534	609	
15	0	0	0	0	534	609	
0	0	0	0	0	536	607	
1	0	0	0	0	537	610	
2	0	0	0	0	536	609	
3	0	0	0	0	533	609	
4	0	0	0	0	532	610	
5	0	0	0	0	530	608	
6	0	0	0	0	530	609	
7	0	0	0	0	529	608	
8	0	0	0	0	527	607	
9	0	0	0	0	526	608	
10	0	0	0	0	526	608	
11	0	0	0	0	525	608	
12	0	0	0	0	525	610	
13	0	0	0	0	525	608	
14	0	0	0	0	525	608	
15	0	0	0	0	526	608	
0	0	0	0	0	526	606	
1	0	0	0	0	526	608	
2	0	0	0	0	527	609	
3	0	0	0	0	527	608	
4	0	0	0	0	527	610	
5	0	0	0	0	527	608	
6	0	0	0	0	527	608	
7	0	0	0	0	527	608	
8	0	0	0	0	526	606	
9	0	0	0	0	527	609	
10	0	0	0	0	529	609	
11	0	0	0	0	530	609	
12	0	0	0	0	531	611	
13	0	0	0	0	531	609	
14	0	0	0	0	531	608	
15	0	0	0	0	531	609	
0	0	0	0	0	531	607	
1	0	0	0	0	532	609	
2	0	0	0	0	532	609	
3	0	0	0	0	532	609	
4	0	0	0	0	531	611	
5	0	0	0	0	530	609	
6	0	0	0	0	527	608	
7	0	0	0	0	526	609	
8	0	0	0	0	526	607	
9	0	0	0	0	527	608	
10	0	0	0	0	528	608	
11	0	0	0	0	528	608	
12	0	0	0	0	529	609	
13	0	0	0	0	529	609	
14	0	0	0	0	528	608	
15	0	0	0	0	526	608	
0	0	0	0	0	521	606	
1	0	0	0	0	515	608	
2	0	0	0	0	510	608	
3	0	0	0	0	504	608	
4	0	0	0	0	497	610	
5	0	0	0	0	493	608	
6	0	0	0	0	492	608	
7	0	0	0	0	493	608	
8	0	0	0	0	496	606	
9	0	0	0	0	499	608	
10	0	0	0	0	500	608	
11	0	0	0	0	502	608	
12	0	0	0	0	503	609	
13	0	0	0	0	503	607	
14	0	0	0	0	505	607	
15	0	0	0	0	506	607	
0	0	0	0	0	508	605	
1	0	0	0	0	511	607	
2	0	0	0	0	515	607	
3	0	0	0	0	520	607	
4	0	0	0	0	531	609	
5	0	0	0	0	553	607	
6	0	0	0	0	581	608	
7	0	0	0	0	613	607	
8	0	0	0	0	648	605	
9	0	0	0	0	689	606	
10	0	0	0	0	732	606	
11	0	0	0	0	772	607	
12	0	0	0	0	800	608	
13	0	0	0	0	816	607	
14	0	0	0	0	821	607	
15	0	0	0	0	818	607	
0	0	0	0	0	816	605	
1	0	0	0	0	813	607	
2	0	0	0	0	807	607	
3	0	0	0	0	788	607	
4	0	0	0	0	765	608	
5	0	0	0	0	744	607	
6	0	0	0	0	728	606	
7	0	0	0	0	716	607	
8	0	0	0	0	709	604	
9	0	0	0	0	706	606	
10	0	0	0	0	707	607	
11	0	0	0	0	711	607	
12	0	0	0	0	714	609	
13	0	0	0	0	711	607	
14	0	0	0	0	705	607	
15	0	0	0	0	696	608	
0	0	0	0	0	686	605	
1	0	0	0	0	674	607	
2	0	0	0	0	663	608	
3	0	0	0	0	653	607	
4	0	0	0	0	643	609	
5	0	0	0	0	630	608	
6	0	0	0	0	616	608	
7	0	0	0	0	603	608	
8	0	0	0	0	589	607	
9	0	0	0	0	573	608	
10	0	0	0	0	557	608	
11	0	0	0	0	542	608	
12	0	0	0	0	527	610	
13	0	0	0	0	514	609	
14	0	0	0	0	501	609	
15	0	0	0	0	488	608	
0	0	0	0	0	478	606	
1	0	0	0	0	470	608	
2	0	0	0	0	463	608	
3	0	0	0	0	456	608	
4	0	0	0	0	449	610	
5	0	0	0	0	443	608	
6	0	0	0	0	438	608	
7	0	0	0	0	434	608	
8	0	0	0	0	432	606	
9	0	0	0	0	431	608	
10	0	0	0	0	430	608	
11	0	0	0	0	428	608	
12	0	0	0	0	427	609	
13	0	0	0	0	426	608	
14	0	0	0	0	427	608	
15	0	0	0	0	427	608	
0	0	0	0	0	427	606	
1	0	0	0	0	428	608	
2	0	0	0	0	428	608	
3	0	0	0	0	428	608	
4	0	0	0	0	428	610	
5	0	0	0	0	428	608	
6	0	0	0	0	428	608	
7	0	0	0	0	427	608	
8	0	0	0	0	428	606	
9	0	0	0	0	430	608	
10	0	0	0	0	432	608	
11	0	0	0	0	431	608	
12	0	0	0	0	429	609	
13	0	0	0	0	425	608	
14	0	0	0	0	422	608	
15	0	0	0	0	425	609	
0	0	0	0	0	429	607	
1	0	0	0	0	431	609	
2	0	0	0	0	432	609	
3	0	0	0	0	433	608	
4	0	0	0	0	434	610	
5	0	0	0	0	435	608	
6	0	0	0	0	436	609	
7	0	0	0	0	438	608	
8	0	0	0	0	438	606	
9	0	0	0	0	438	609	
10	0	0	0	0	438	608	
11	0	0	0	0	435	608	
12	0	0	0	0	434	610	
13	0	0	0	0	433	608	
14	0	0	0	0	433	609	
15	0	0	0	0	433	608	
0	0	0	0	0	433	607	
1	0	0	0	0	434	609	
2	0	0	0	0	435	609	
3	0	0	0	0	438	609	
4	0	0	0	0	440	611	
5	0	0	0	0	442	609	
6	0	0	0	0	443	609	
7	0	0	0	0	444	609	
8	0	0	0	0	445	607	
9	0	0	0	0	445	608	
10	0	0	0	0	446	608	
11	0	0	0	0	447	609	
12	0	0	0	0	447	611	
13	0	0	0	0	446	609	
14	0	0	0	0	446	609	
15	0	0	0	0	445	609	
0	0	0	0	0	444	607	
1	0	0	0	0	445	609	
2	0	0	0	0	444	609	
3	0	0	0	0	445	609	
4	0	0	0	0	446	611	
5	0	0	0	0	446	609	
6	0	0	0	0	447	609	
7	0	0	0	0	447	609	
8	0	0	0	0	448	608	
9	0	0	0	0	448	609	
10	0	0	0	0	448	610	
11	0	0	0	0	448	610	
12	0	0	0	0	449	611	
13	0	0	0	0	450	610	
14	0	0	0	0	450	610	
15	0	0	0	0	450	611	
0	0	0	0	0	451	608	
1	0	0	0	0	451	610	
2	0	0	0	0	451	610	
3	0	0	0	0	451	610	
4	0	0	0	0	450	612	
5	0	0	0	0	450	611	
6	0	0	0	0	451	610	
7	0	0	0	0	452	610	
8	0	0	0	0	454	609	
9	0	0	0	0	455	611	
10	0	0	0	0	455	611	
11	0	0	0	0	453	611	
12	0	0	0	0	452	612	
13	0	0	0	0	451	611	
14	0	0	0	0	450	611	
15	0	0	0	0	449	611	
0	0	0	0	0	449	610	
1	0	0	0	0	448	611	
2	0	0	0	0	448	611	
3	0	0	0	0	449	611	
4	0	0	0	0	449	613	
5	0	0	0	0	450	611	
6	0	0	0	0	451	612	
7	0	0	0	0	451	611	
8	0	0	0	0	450	609	
9	0	0	0	0	450	611	
10	0	0	0	0	450	611	
11	0	0	0	0	451	611	
12	0	0	0	0	451	613	
13	0	0	0	0	451	612	
14	0	0	0	0	452	612	
15	0	0	0	0	452	612	
0	0	0	0	0	451	611	
1	0	0	0	0	451	612	
2	0	0	0	0	450	612	
3	0	0	0	0	450	612	
