# OpenSignals Text File Format. Version 1
# {"98:D3:91:FD:59:64": {"position": 0, "device": "bitalino_rev", "device name": "98:D3:91:FD:59:64", "device connection": "BTH98:D3:91:FD:59:64", "sampling rate": 1000, "resolution": [4, 1, 1, 1, 1, 10, 10], "firmware version": 1281, "comments": "", "keywords": "", "mode": 0, "sync interval": 2, "date": "2021-9-15", "time": "17:29:2.486", "channels": [2, 5], "sensor": ["RAW", "RAW"], "label": ["A2", "A5"], "column": ["nSeq", "I1", "I2", "O1", "O2", "A2", "A5"], "special": [{}, {}], "digital IO": [0, 0, 1, 1], "convertedValues": 0}}
# EndOfHeader
0	0	0	0	0	502	621	
1	0	0	0	0	499	622	
2	0	0	0	0	497	621	
3	0	0	0	0	495	617	
4	0	0	0	0	492	622	
5	0	0	0	0	490	621	
6	0	0	0	0	488	622	
7	0	0	0	0	486	624	
8	0	0	0	0	484	621	
9	0	0	0	0	483	621	
10	0	0	0	0	482	620	
11	0	0	0	0	480	616	
12	0	0	0	0	478	620	
13	0	0	0	0	476	619	
14	0	0	0	0	476	620	
15	0	0	0	0	474	623	
0	0	0	0	0	473	619	
1	0	0	0	0	472	619	
2	0	0	0	0	472	619	
3	0	0	0	0	470	615	
4	0	0	0	0	468	619	
5	0	0	0	0	467	620	
6	0	0	0	0	467	619	
7	0	0	0	0	467	623	
8	0	0	0	0	467	620	
9	0	0	0	0	467	619	
10	0	0	0	0	467	620	
11	0	0	0	0	466	616	
12	0	0	0	0	465	620	
13	0	0	0	0	464	620	
14	0	0	0	0	464	620	
15	0	0	0	0	463	623	
0	0	0	0	0	463	620	
1	0	0	0	0	462	620	
2	0	0	0	0	461	620	
3	0	0	0	0	461	616	
4	0	0	0	0	461	620	
5	0	0	0	0	461	620	
6	0	0	0	0	461	619	
7	0	0	0	0	461	623	
8	0	0	0	0	463	620	
9	0	0	0	0	463	620	
10	0	0	0	0	464	619	
11	0	0	0	0	465	615	
12	0	0	0	0	465	620	
13	0	0	0	0	466	620	
14	0	0	0	0	468	621	
15	0	0	0	0	467	624	
0	0	0	0	0	467	621	
1	0	0	0	0	466	620	
2	0	0	0	0	465	620	
3	0	0	0	0	465	616	
4	0	0	0	0	464	621	
5	0	0	0	0	463	621	
6	0	0	0	0	462	621	
7	0	0	0	0	463	624	
8	0	0	0	0	463	620	
9	0	0	0	0	463	620	
10	0	0	0	0	464	621	
11	0	0	0	0	464	616	
12	0	0	0	0	464	620	
13	0	0	0	0	464	619	
14	0	0	0	0	464	619	
15	0	0	0	0	464	622	
0	0	0	0	0	464	619	
1	0	0	0	0	463	619	
2	0	0	0	0	463	618	
3	0	0	0	0	463	614	
4	0	0	0	0	463	617	
5	0	0	0	0	463	617	
6	0	0	0	0	463	618	
7	0	0	0	0	464	621	
8	0	0	0	0	465	617	
9	0	0	0	0	464	618	
10	0	0	0	0	463	617	
11	0	0	0	0	464	614	
12	0	0	0	0	465	618	
13	0	0	0	0	465	618	
14	0	0	0	0	466	618	
15	0	0	0	0	466	621	
0	0	0	0	0	467	618	
1	0	0	0	0	467	618	
2	0	0	0	0	467	617	
3	0	0	0	0	468	613	
4	0	0	0	0	470	618	
5	0	0	0	0	472	617	
6	0	0	0	0	472	617	
7	0	0	0	0	473	621	
8	0	0	0	0	474	618	
9	0	0	0	0	475	618	
10	0	0	0	0	476	618	
11	0	0	0	0	476	614	
12	0	0	0	0	477	619	
13	0	0	0	0	477	619	
14	0	0	0	0	479	620	
15	0	0	0	0	479	622	
0	0	0	0	0	480	619	
1	0	0	0	0	479	619	
2	0	0	0	0	479	619	
3	0	0	0	0	479	615	
4	0	0	0	0	479	619	
5	0	0	0	0	479	619	
6	0	0	0	0	479	618	
7	0	0	0	0	479	622	
8	0	0	0	0	480	618	
9	0	0	0	0	481	618	
10	0	0	0	0	483	617	
11	0	0	0	0	484	613	
12	0	0	0	0	486	617	
13	0	0	0	0	487	617	
14	0	0	0	0	487	617	
15	0	0	0	0	488	621	
0	0	0	0	0	489	617	
1	0	0	0	0	488	617	
2	0	0	0	0	489	617	
3	0	0	0	0	488	613	
4	0	0	0	0	488	617	
5	0	0	0	0	488	617	
6	0	0	0	0	488	618	
7	0	0	0	0	489	621	
8	0	0	0	0	489	618	
9	0	0	0	0	488	618	
10	0	0	0	0	489	618	
11	0	0	0	0	489	615	
12	0	0	0	0	489	619	
13	0	0	0	0	489	619	
14	0	0	0	0	489	619	
15	0	0	0	0	490	623	
0	0	0	0	0	491	619	
1	0	0	0	0	491	620	
2	0	0	0	0	491	621	
3	0	0	0	0	491	616	
4	0	0	0	0	492	620	
5	0	0	0	0	492	620	
6	0	0	0	0	494	621	
7	0	0	0	0	494	624	
8	0	0	0	0	494	621	
9	0	0	0	0	495	620	
10	0	0	0	0	495	620	
11	0	0	0	0	496	617	
12	0	0	0	0	496	621	
13	0	0	0	0	496	621	
14	0	0	0	0	496	621	
15	0	0	0	0	495	624	
0	0	0	0	0	496	621	
1	0	0	0	0	496	621	
2	0	0	0	0	497	621	
3	0	0	0	0	498	616	
4	0	0	0	0	498	620	
5	0	0	0	0	498	621	
6	0	0	0	0	498	621	
7	0	0	0	0	498	624	
8	0	0	0	0	498	620	
9	0	0	0	0	500	620	
10	0	0	0	0	501	620	
11	0	0	0	0	501	616	
12	0	0	0	0	502	620	
13	0	0	0	0	500	619	
14	0	0	0	0	499	620	
15	0	0	0	0	498	623	
0	0	0	0	0	497	619	
1	0	0	0	0	497	620	
2	0	0	0	0	497	620	
3	0	0	0	0	497	616	
4	0	0	0	0	496	620	
5	0	0	0	0	496	619	
6	0	0	0	0	497	620	
7	0	0	0	0	498	624	
8	0	0	0	0	499	621	
9	0	0	0	0	500	621	
10	0	0	0	0	502	620	
11	0	0	0	0	503	616	
12	0	0	0	0	504	620	
13	0	0	0	0	503	620	
14	0	0	0	0	503	620	
15	0	0	0	0	503	622	
0	0	0	0	0	503	619	
1	0	0	0	0	503	618	
2	0	0	0	0	503	619	
3	0	0	0	0	504	615	
4	0	0	0	0	504	619	
5	0	0	0	0	504	618	
6	0	0	0	0	504	618	
7	0	0	0	0	503	622	
8	0	0	0	0	503	619	
9	0	0	0	0	502	620	
10	0	0	0	0	502	619	
11	0	0	0	0	502	615	
12	0	0	0	0	501	620	
13	0	0	0	0	501	620	
14	0	0	0	0	500	619	
15	0	0	0	0	499	623	
0	0	0	0	0	499	620	
1	0	0	0	0	499	620	
2	0	0	0	0	497	620	
3	0	0	0	0	496	615	
4	0	0	0	0	497	619	
5	0	0	0	0	497	620	
6	0	0	0	0	497	620	
7	0	0	0	0	496	623	
8	0	0	0	0	497	620	
9	0	0	0	0	497	620	
10	0	0	0	0	496	619	
11	0	0	0	0	496	615	
12	0	0	0	0	496	620	
13	0	0	0	0	495	620	
14	0	0	0	0	495	619	
15	0	0	0	0	493	623	
0	0	0	0	0	492	619	
1	0	0	0	0	492	619	
2	0	0	0	0	492	619	
3	0	0	0	0	492	615	
4	0	0	0	0	492	619	
5	0	0	0	0	492	618	
6	0	0	0	0	492	619	
7	0	0	0	0	492	622	
8	0	0	0	0	492	618	
9	0	0	0	0	493	618	
10	0	0	0	0	494	618	
11	0	0	0	0	495	615	
12	0	0	0	0	495	618	
13	0	0	0	0	495	618	
14	0	0	0	0	495	618	
15	0	0	0	0	495	622	
0	0	0	0	0	494	619	
1	0	0	0	0	494	618	
2	0	0	0	0	494	618	
3	0	0	0	0	493	614	
4	0	0	0	0	493	618	
5	0	0	0	0	494	618	
6	0	0	0	0	494	617	
7	0	0	0	0	494	621	
8	0	0	0	0	495	617	
9	0	0	0	0	495	617	
10	0	0	0	0	495	617	
11	0	0	0	0	495	614	
12	0	0	0	0	493	617	
13	0	0	0	0	493	617	
14	0	0	0	0	493	618	
15	0	0	0	0	495	621	
0	0	0	0	0	495	618	
1	0	0	0	0	496	617	
2	0	0	0	0	497	617	
3	0	0	0	0	498	614	
4	0	0	0	0	500	618	
5	0	0	0	0	501	619	
6	0	0	0	0	501	619	
7	0	0	0	0	502	622	
8	0	0	0	0	503	619	
9	0	0	0	0	504	619	
10	0	0	0	0	504	619	
11	0	0	0	0	505	616	
12	0	0	0	0	506	619	
13	0	0	0	0	507	620	
14	0	0	0	0	509	620	
15	0	0	0	0	509	624	
0	0	0	0	0	510	620	
1	0	0	0	0	511	620	
2	0	0	0	0	511	620	
3	0	0	0	0	511	617	
4	0	0	0	0	511	620	
5	0	0	0	0	511	620	
6	0	0	0	0	510	620	
7	0	0	0	0	508	624	
8	0	0	0	0	506	620	
9	0	0	0	0	505	620	
10	0	0	0	0	503	620	
11	0	0	0	0	502	615	
12	0	0	0	0	502	620	
13	0	0	0	0	502	619	
14	0	0	0	0	501	619	
15	0	0	0	0	502	622	
0	0	0	0	0	503	619	
1	0	0	0	0	503	619	
2	0	0	0	0	504	618	
3	0	0	0	0	504	615	
4	0	0	0	0	504	619	
5	0	0	0	0	504	618	
6	0	0	0	0	504	618	
7	0	0	0	0	504	621	
8	0	0	0	0	505	617	
9	0	0	0	0	505	617	
10	0	0	0	0	505	617	
11	0	0	0	0	504	613	
12	0	0	0	0	504	618	
13	0	0	0	0	505	617	
14	0	0	0	0	505	619	
15	0	0	0	0	506	622	
0	0	0	0	0	507	619	
1	0	0	0	0	507	619	
2	0	0	0	0	507	619	
3	0	0	0	0	507	615	
4	0	0	0	0	506	619	
5	0	0	0	0	505	620	
6	0	0	0	0	507	620	
7	0	0	0	0	508	624	
8	0	0	0	0	508	620	
9	0	0	0	0	507	620	
10	0	0	0	0	508	620	
11	0	0	0	0	508	615	
12	0	0	0	0	509	620	
13	0	0	0	0	510	619	
14	0	0	0	0	510	620	
15	0	0	0	0	509	623	
0	0	0	0	0	509	620	
1	0	0	0	0	509	619	
2	0	0	0	0	508	619	
3	0	0	0	0	508	615	
4	0	0	0	0	507	619	
5	0	0	0	0	505	619	
6	0	0	0	0	504	619	
7	0	0	0	0	502	623	
8	0	0	0	0	500	620	
9	0	0	0	0	498	620	
10	0	0	0	0	495	620	
11	0	0	0	0	491	616	
12	0	0	0	0	487	620	
13	0	0	0	0	482	620	
14	0	0	0	0	478	621	
15	0	0	0	0	472	624	
0	0	0	0	0	466	621	
1	0	0	0	0	461	621	
2	0	0	0	0	457	621	
3	0	0	0	0	453	617	
4	0	0	0	0	448	621	
5	0	0	0	0	444	620	
6	0	0	0	0	441	620	
7	0	0	0	0	437	624	
8	0	0	0	0	435	620	
9	0	0	0	0	435	620	
10	0	0	0	0	436	620	
11	0	0	0	0	440	616	
12	0	0	0	0	448	620	
13	0	0	0	0	459	619	
14	0	0	0	0	474	620	
15	0	0	0	0	492	623	
0	0	0	0	0	513	619	
1	0	0	0	0	536	619	
2	0	0	0	0	560	618	
3	0	0	0	0	589	615	
4	0	0	0	0	623	618	
5	0	0	0	0	658	618	
6	0	0	0	0	695	618	
7	0	0	0	0	729	621	
8	0	0	0	0	760	616	
9	0	0	0	0	791	617	
10	0	0	0	0	823	617	
11	0	0	0	0	860	613	
12	0	0	0	0	896	617	
13	0	0	0	0	931	617	
14	0	0	0	0	969	617	
15	0	0	0	0	1002	621	
0	0	0	0	0	1022	618	
1	0	0	0	0	1022	618	
2	0	0	0	0	1022	618	
3	0	0	0	0	1022	614	
4	0	0	0	0	1022	619	
5	0	0	0	0	1022	619	
6	0	0	0	0	1022	619	
7	0	0	0	0	1010	623	
8	0	0	0	0	965	620	
9	0	0	0	0	915	620	
10	0	0	0	0	863	620	
11	0	0	0	0	812	615	
12	0	0	0	0	760	620	
13	0	0	0	0	708	620	
14	0	0	0	0	660	620	
15	0	0	0	0	620	624	
0	0	0	0	0	589	620	
1	0	0	0	0	566	620	
2	0	0	0	0	548	620	
3	0	0	0	0	533	616	
4	0	0	0	0	519	619	
5	0	0	0	0	507	620	
6	0	0	0	0	498	619	
7	0	0	0	0	488	622	
8	0	0	0	0	479	619	
9	0	0	0	0	472	620	
10	0	0	0	0	464	619	
11	0	0	0	0	459	616	
12	0	0	0	0	452	620	
13	0	0	0	0	446	620	
14	0	0	0	0	439	621	
15	0	0	0	0	432	623	
0	0	0	0	0	425	620	
1	0	0	0	0	419	620	
2	0	0	0	0	414	620	
3	0	0	0	0	408	617	
4	0	0	0	0	403	620	
5	0	0	0	0	399	620	
6	0	0	0	0	396	620	
7	0	0	0	0	394	623	
8	0	0	0	0	392	619	
9	0	0	0	0	391	620	
10	0	0	0	0	390	619	
11	0	0	0	0	389	615	
12	0	0	0	0	387	619	
13	0	0	0	0	386	619	
14	0	0	0	0	386	619	
15	0	0	0	0	386	622	
0	0	0	0	0	386	618	
1	0	0	0	0	386	618	
2	0	0	0	0	385	617	
3	0	0	0	0	386	614	
4	0	0	0	0	386	617	
5	0	0	0	0	385	617	
6	0	0	0	0	386	617	
7	0	0	0	0	387	621	
8	0	0	0	0	388	617	
9	0	0	0	0	388	618	
10	0	0	0	0	389	617	
11	0	0	0	0	389	614	
12	0	0	0	0	388	618	
13	0	0	0	0	389	618	
14	0	0	0	0	390	619	
15	0	0	0	0	391	622	
0	0	0	0	0	393	618	
1	0	0	0	0	395	618	
2	0	0	0	0	397	618	
3	0	0	0	0	398	615	
4	0	0	0	0	399	618	
5	0	0	0	0	399	618	
6	0	0	0	0	399	618	
7	0	0	0	0	400	623	
8	0	0	0	0	401	619	
9	0	0	0	0	402	619	
10	0	0	0	0	403	619	
11	0	0	0	0	403	614	
12	0	0	0	0	404	619	
13	0	0	0	0	406	620	
14	0	0	0	0	407	620	
15	0	0	0	0	408	623	
0	0	0	0	0	408	620	
1	0	0	0	0	409	620	
2	0	0	0	0	409	621	
3	0	0	0	0	411	617	
4	0	0	0	0	410	622	
5	0	0	0	0	411	621	
6	0	0	0	0	412	622	
7	0	0	0	0	413	625	
8	0	0	0	0	415	622	
9	0	0	0	0	416	622	
10	0	0	0	0	417	621	
11	0	0	0	0	418	617	
12	0	0	0	0	418	621	
13	0	0	0	0	419	621	
14	0	0	0	0	419	620	
15	0	0	0	0	421	624	
0	0	0	0	0	423	620	
1	0	0	0	0	425	620	
2	0	0	0	0	427	619	
3	0	0	0	0	426	615	
4	0	0	0	0	428	619	
5	0	0	0	0	429	619	
6	0	0	0	0	431	619	
7	0	0	0	0	432	622	
8	0	0	0	0	432	619	
9	0	0	0	0	430	618	
10	0	0	0	0	430	618	
11	0	0	0	0	429	615	
12	0	0	0	0	427	618	
13	0	0	0	0	427	618	
14	0	0	0	0	428	617	
15	0	0	0	0	426	621	
0	0	0	0	0	426	617	
1	0	0	0	0	427	617	
2	0	0	0	0	428	618	
3	0	0	0	0	429	614	
4	0	0	0	0	430	618	
5	0	0	0	0	432	618	
6	0	0	0	0	434	618	
7	0	0	0	0	436	622	
8	0	0	0	0	438	618	
9	0	0	0	0	437	618	
10	0	0	0	0	438	617	
11	0	0	0	0	439	614	
12	0	0	0	0	440	618	
13	0	0	0	0	440	617	
14	0	0	0	0	441	618	
15	0	0	0	0	441	621	
0	0	0	0	0	442	617	
1	0	0	0	0	443	618	
2	0	0	0	0	443	618	
3	0	0	0	0	445	614	
4	0	0	0	0	446	618	
5	0	0	0	0	446	619	
6	0	0	0	0	447	619	
7	0	0	0	0	448	622	
8	0	0	0	0	449	619	
9	0	0	0	0	449	618	
10	0	0	0	0	451	618	
11	0	0	0	0	452	615	
12	0	0	0	0	454	619	
13	0	0	0	0	454	619	
14	0	0	0	0	455	619	
15	0	0	0	0	455	622	
0	0	0	0	0	456	618	
1	0	0	0	0	457	618	
2	0	0	0	0	458	618	
3	0	0	0	0	458	615	
4	0	0	0	0	459	619	
5	0	0	0	0	459	618	
6	0	0	0	0	460	619	
7	0	0	0	0	461	622	
8	0	0	0	0	462	618	
9	0	0	0	0	462	618	
10	0	0	0	0	464	619	
11	0	0	0	0	465	615	
12	0	0	0	0	466	620	
13	0	0	0	0	467	620	
14	0	0	0	0	469	620	
15	0	0	0	0	470	624	
0	0	0	0	0	472	621	
1	0	0	0	0	474	621	
2	0	0	0	0	476	621	
3	0	0	0	0	477	618	
4	0	0	0	0	479	621	
5	0	0	0	0	480	622	
6	0	0	0	0	481	622	
7	0	0	0	0	483	626	
8	0	0	0	0	484	622	
9	0	0	0	0	485	622	
10	0	0	0	0	486	622	
11	0	0	0	0	487	618	
12	0	0	0	0	488	622	
13	0	0	0	0	490	621	
14	0	0	0	0	492	621	
15	0	0	0	0	494	624	
0	0	0	0	0	495	620	
1	0	0	0	0	496	620	
2	0	0	0	0	496	620	
3	0	0	0	0	497	615	
4	0	0	0	0	498	620	
5	0	0	0	0	500	619	
6	0	0	0	0	502	619	
7	0	0	0	0	503	621	
8	0	0	0	0	505	618	
9	0	0	0	0	506	617	
10	0	0	0	0	508	617	
11	0	0	0	0	509	613	
12	0	0	0	0	510	618	
13	0	0	0	0	512	617	
14	0	0	0	0	513	617	
15	0	0	0	0	514	621	
0	0	0	0	0	516	618	
1	0	0	0	0	517	618	
2	0	0	0	0	519	618	
3	0	0	0	0	519	613	
4	0	0	0	0	520	617	
5	0	0	0	0	522	618	
6	0	0	0	0	523	618	
7	0	0	0	0	525	621	
8	0	0	0	0	526	617	
9	0	0	0	0	526	617	
10	0	0	0	0	526	617	
11	0	0	0	0	526	614	
12	0	0	0	0	526	618	
13	0	0	0	0	527	618	
14	0	0	0	0	527	619	
15	0	0	0	0	528	622	
0	0	0	0	0	529	619	
1	0	0	0	0	529	618	
2	0	0	0	0	530	619	
3	0	0	0	0	531	615	
4	0	0	0	0	532	620	
5	0	0	0	0	531	620	
6	0	0	0	0	530	620	
7	0	0	0	0	530	623	
8	0	0	0	0	529	620	
9	0	0	0	0	528	619	
10	0	0	0	0	527	620	
11	0	0	0	0	525	615	
12	0	0	0	0	524	620	
13	0	0	0	0	523	620	
14	0	0	0	0	521	620	
15	0	0	0	0	519	624	
0	0	0	0	0	518	621	
1	0	0	0	0	516	620	
2	0	0	0	0	515	620	
3	0	0	0	0	514	617	
4	0	0	0	0	512	621	
5	0	0	0	0	510	621	
6	0	0	0	0	509	622	
7	0	0	0	0	507	624	
8	0	0	0	0	505	621	
9	0	0	0	0	504	621	
10	0	0	0	0	503	620	
11	0	0	0	0	502	616	
12	0	0	0	0	501	620	
13	0	0	0	0	500	620	
14	0	0	0	0	499	620	
15	0	0	0	0	498	623	
0	0	0	0	0	497	619	
1	0	0	0	0	497	619	
2	0	0	0	0	496	619	
3	0	0	0	0	496	615	
4	0	0	0	0	495	619	
5	0	0	0	0	494	618	
6	0	0	0	0	493	619	
7	0	0	0	0	492	622	
8	0	0	0	0	491	618	
9	0	0	0	0	490	618	
10	0	0	0	0	489	617	
11	0	0	0	0	489	614	
12	0	0	0	0	489	618	
13	0	0	0	0	490	618	
14	0	0	0	0	489	618	
15	0	0	0	0	489	621	
0	0	0	0	0	489	618	
1	0	0	0	0	489	618	
2	0	0	0	0	489	618	
3	0	0	0	0	489	615	
4	0	0	0	0	490	619	
5	0	0	0	0	490	620	
6	0	0	0	0	491	619	
7	0	0	0	0	490	623	
8	0	0	0	0	490	619	
9	0	0	0	0	489	619	
10	0	0	0	0	490	619	
11	0	0	0	0	490	615	
12	0	0	0	0	490	619	
13	0	0	0	0	490	619	
14	0	0	0	0	490	619	
15	0	0	0	0	491	623	
0	0	0	0	0	491	618	
1	0	0	0	0	492	619	
2	0	0	0	0	492	619	
3	0	0	0	0	491	615	
4	0	0	0	0	490	620	
5	0	0	0	0	489	620	
6	0	0	0	0	488	619	
7	0	0	0	0	488	623	
8	0	0	0	0	489	620	
9	0	0	0	0	489	620	
10	0	0	0	0	489	620	
11	0	0	0	0	490	616	
12	0	0	0	0	491	620	
13	0	0	0	0	490	619	
14	0	0	0	0	490	619	
15	0	0	0	0	490	622	
0	0	0	0	0	490	619	
1	0	0	0	0	490	619	
2	0	0	0	0	489	619	
3	0	0	0	0	488	615	
4	0	0	0	0	488	620	
5	0	0	0	0	488	620	
6	0	0	0	0	488	620	
7	0	0	0	0	489	623	
8	0	0	0	0	489	621	
9	0	0	0	0	489	620	
10	0	0	0	0	489	620	
11	0	0	0	0	490	616	
12	0	0	0	0	490	621	
13	0	0	0	0	490	620	
14	0	0	0	0	490	620	
15	0	0	0	0	490	624	
0	0	0	0	0	491	619	
1	0	0	0	0	491	619	
2	0	0	0	0	491	619	
3	0	0	0	0	493	615	
4	0	0	0	0	493	619	
5	0	0	0	0	494	619	
6	0	0	0	0	495	619	
7	0	0	0	0	496	622	
8	0	0	0	0	497	619	
9	0	0	0	0	497	619	
10	0	0	0	0	498	619	
11	0	0	0	0	498	615	
12	0	0	0	0	498	619	
13	0	0	0	0	498	619	
14	0	0	0	0	497	619	
15	0	0	0	0	497	623	
0	0	0	0	0	498	620	
1	0	0	0	0	498	620	
2	0	0	0	0	498	620	
3	0	0	0	0	498	616	
4	0	0	0	0	498	620	
5	0	0	0	0	499	620	
6	0	0	0	0	499	621	
7	0	0	0	0	501	624	
8	0	0	0	0	501	621	
9	0	0	0	0	502	620	
10	0	0	0	0	502	620	
11	0	0	0	0	503	616	
12	0	0	0	0	503	620	
13	0	0	0	0	503	621	
14	0	0	0	0	503	621	
15	0	0	0	0	503	624	
0	0	0	0	0	504	620	
1	0	0	0	0	505	620	
2	0	0	0	0	506	620	
3	0	0	0	0	507	615	
4	0	0	0	0	507	620	
5	0	0	0	0	507	620	
6	0	0	0	0	506	620	
7	0	0	0	0	507	623	
8	0	0	0	0	508	620	
9	0	0	0	0	509	619	
10	0	0	0	0	509	619	
11	0	0	0	0	510	615	
12	0	0	0	0	509	619	
13	0	0	0	0	508	620	
14	0	0	0	0	509	620	
15	0	0	0	0	510	623	
0	0	0	0	0	510	619	
1	0	0	0	0	510	619	
2	0	0	0	0	510	619	
3	0	0	0	0	510	615	
4	0	0	0	0	511	619	
5	0	0	0	0	511	619	
6	0	0	0	0	512	619	
7	0	0	0	0	512	623	
8	0	0	0	0	512	619	
9	0	0	0	0	512	619	
10	0	0	0	0	513	618	
11	0	0	0	0	512	614	
12	0	0	0	0	512	617	
13	0	0	0	0	512	618	
14	0	0	0	0	512	619	
15	0	0	0	0	512	622	
0	0	0	0	0	513	618	
1	0	0	0	0	513	618	
2	0	0	0	0	512	618	
3	0	0	0	0	513	614	
4	0	0	0	0	515	618	
5	0	0	0	0	515	618	
6	0	0	0	0	515	618	
7	0	0	0	0	515	622	
8	0	0	0	0	515	618	
9	0	0	0	0	515	618	
10	0	0	0	0	515	618	
11	0	0	0	0	515	614	
12	0	0	0	0	515	618	
13	0	0	0	0	516	618	
14	0	0	0	0	516	619	
15	0	0	0	0	515	622	
0	0	0	0	0	515	618	
1	0	0	0	0	515	618	
2	0	0	0	0	515	618	
3	0	0	0	0	515	615	
4	0	0	0	0	515	618	
5	0	0	0	0	516	619	
6	0	0	0	0	516	619	
7	0	0	0	0	516	622	
8	0	0	0	0	516	619	
9	0	0	0	0	516	619	
10	0	0	0	0	517	618	
11	0	0	0	0	517	615	
12	0	0	0	0	517	619	
13	0	0	0	0	517	619	
14	0	0	0	0	517	619	
15	0	0	0	0	517	622	
0	0	0	0	0	517	619	
1	0	0	0	0	517	618	
2	0	0	0	0	517	619	
3	0	0	0	0	518	615	
4	0	0	0	0	518	619	
5	0	0	0	0	516	620	
6	0	0	0	0	516	619	
7	0	0	0	0	516	623	
8	0	0	0	0	516	619	
9	0	0	0	0	516	619	
10	0	0	0	0	516	620	
11	0	0	0	0	517	615	
12	0	0	0	0	517	619	
13	0	0	0	0	516	619	
14	0	0	0	0	516	619	
15	0	0	0	0	517	622	
0	0	0	0	0	518	619	
1	0	0	0	0	518	619	
2	0	0	0	0	518	619	
3	0	0	0	0	519	615	
4	0	0	0	0	519	619	
5	0	0	0	0	519	619	
6	0	0	0	0	519	619	
7	0	0	0	0	519	623	
8	0	0	0	0	519	620	
9	0	0	0	0	519	620	
10	0	0	0	0	519	620	
11	0	0	0	0	519	615	
12	0	0	0	0	518	620	
13	0	0	0	0	518	619	
14	0	0	0	0	517	620	
15	0	0	0	0	517	623	
0	0	0	0	0	516	620	
1	0	0	0	0	517	619	
2	0	0	0	0	517	620	
3	0	0	0	0	517	615	
4	0	0	0	0	516	619	
5	0	0	0	0	516	619	
6	0	0	0	0	517	620	
7	0	0	0	0	517	623	
8	0	0	0	0	516	619	
9	0	0	0	0	515	619	
10	0	0	0	0	515	620	
11	0	0	0	0	515	615	
12	0	0	0	0	514	619	
13	0	0	0	0	513	620	
14	0	0	0	0	512	619	
15	0	0	0	0	512	623	
0	0	0	0	0	512	619	
1	0	0	0	0	511	619	
2	0	0	0	0	511	619	
3	0	0	0	0	510	615	
4	0	0	0	0	509	619	
5	0	0	0	0	509	619	
6	0	0	0	0	508	619	
7	0	0	0	0	508	623	
8	0	0	0	0	509	620	
9	0	0	0	0	509	620	
10	0	0	0	0	509	620	
11	0	0	0	0	509	617	
12	0	0	0	0	510	621	
13	0	0	0	0	510	620	
14	0	0	0	0	511	621	
15	0	0	0	0	511	624	
0	0	0	0	0	511	621	
1	0	0	0	0	511	621	
2	0	0	0	0	510	621	
3	0	0	0	0	510	617	
4	0	0	0	0	509	621	
5	0	0	0	0	508	621	
6	0	0	0	0	508	622	
7	0	0	0	0	507	624	
8	0	0	0	0	506	620	
9	0	0	0	0	505	621	
10	0	0	0	0	505	620	
11	0	0	0	0	505	617	
12	0	0	0	0	505	620	
13	0	0	0	0	506	621	
14	0	0	0	0	506	620	
15	0	0	0	0	507	624	
0	0	0	0	0	508	620	
1	0	0	0	0	509	620	
2	0	0	0	0	510	620	
3	0	0	0	0	511	616	
4	0	0	0	0	512	620	
5	0	0	0	0	513	620	
6	0	0	0	0	515	620	
7	0	0	0	0	515	624	
8	0	0	0	0	516	620	
9	0	0	0	0	518	620	
10	0	0	0	0	519	619	
11	0	0	0	0	519	616	
12	0	0	0	0	519	620	
13	0	0	0	0	520	620	
14	0	0	0	0	519	620	
15	0	0	0	0	519	623	
0	0	0	0	0	519	619	
1	0	0	0	0	518	619	
2	0	0	0	0	518	620	
3	0	0	0	0	518	615	
4	0	0	0	0	518	620	
5	0	0	0	0	516	619	
6	0	0	0	0	515	620	
7	0	0	0	0	514	623	
8	0	0	0	0	514	619	
9	0	0	0	0	514	619	
10	0	0	0	0	513	619	
11	0	0	0	0	513	615	
12	0	0	0	0	513	619	
13	0	0	0	0	513	619	
14	0	0	0	0	514	619	
15	0	0	0	0	515	622	
0	0	0	0	0	516	618	
1	0	0	0	0	516	618	
2	0	0	0	0	516	619	
3	0	0	0	0	516	615	
4	0	0	0	0	516	619	
5	0	0	0	0	515	619	
6	0	0	0	0	515	619	
7	0	0	0	0	515	622	
8	0	0	0	0	515	618	
9	0	0	0	0	514	619	
10	0	0	0	0	515	619	
11	0	0	0	0	515	615	
12	0	0	0	0	515	619	
13	0	0	0	0	516	619	
14	0	0	0	0	516	619	
15	0	0	0	0	516	622	
0	0	0	0	0	517	619	
1	0	0	0	0	517	619	
2	0	0	0	0	517	619	
3	0	0	0	0	517	615	
4	0	0	0	0	518	619	
5	0	0	0	0	518	619	
6	0	0	0	0	518	619	
7	0	0	0	0	518	623	
8	0	0	0	0	518	618	
9	0	0	0	0	518	618	
10	0	0	0	0	519	618	
11	0	0	0	0	519	614	
12	0	0	0	0	519	619	
13	0	0	0	0	519	618	
14	0	0	0	0	519	618	
15	0	0	0	0	519	622	
0	0	0	0	0	519	618	
1	0	0	0	0	519	619	
2	0	0	0	0	519	618	
3	0	0	0	0	519	614	
4	0	0	0	0	519	619	
5	0	0	0	0	518	619	
6	0	0	0	0	518	620	
7	0	0	0	0	517	623	
8	0	0	0	0	517	620	
9	0	0	0	0	515	620	
10	0	0	0	0	514	620	
11	0	0	0	0	512	616	
12	0	0	0	0	509	619	
13	0	0	0	0	507	620	
14	0	0	0	0	503	620	
15	0	0	0	0	499	623	
0	0	0	0	0	495	620	
1	0	0	0	0	490	619	
2	0	0	0	0	484	619	
3	0	0	0	0	479	615	
4	0	0	0	0	474	619	
5	0	0	0	0	469	619	
6	0	0	0	0	464	619	
7	0	0	0	0	460	622	
8	0	0	0	0	456	618	
9	0	0	0	0	453	619	
10	0	0	0	0	451	618	
11	0	0	0	0	452	614	
12	0	0	0	0	454	618	
13	0	0	0	0	456	618	
14	0	0	0	0	463	619	
15	0	0	0	0	474	622	
0	0	0	0	0	489	619	
1	0	0	0	0	507	619	
2	0	0	0	0	527	619	
3	0	0	0	0	553	615	
4	0	0	0	0	581	619	
5	0	0	0	0	610	618	
6	0	0	0	0	643	619	
7	0	0	0	0	676	623	
8	0	0	0	0	713	618	
9	0	0	0	0	750	618	
10	0	0	0	0	783	617	
11	0	0	0	0	817	614	
12	0	0	0	0	856	617	
13	0	0	0	0	895	617	
14	0	0	0	0	935	617	
15	0	0	0	0	974	620	
0	0	0	0	0	1009	616	
1	0	0	0	0	1022	617	
2	0	0	0	0	1022	617	
3	0	0	0	0	1022	612	
4	0	0	0	0	1022	616	
5	0	0	0	0	1022	616	
6	0	0	0	0	1022	617	
7	0	0	0	0	1022	621	
8	0	0	0	0	1022	617	
9	0	0	0	0	1022	618	
10	0	0	0	0	1022	617	
11	0	0	0	0	996	613	
12	0	0	0	0	945	618	
13	0	0	0	0	891	619	
14	0	0	0	0	838	619	
15	0	0	0	0	784	623	
0	0	0	0	0	729	620	
1	0	0	0	0	675	619	
2	0	0	0	0	629	620	
3	0	0	0	0	591	615	
4	0	0	0	0	564	620	
5	0	0	0	0	543	620	
6	0	0	0	0	525	620	
7	0	0	0	0	509	624	
8	0	0	0	0	496	620	
9	0	0	0	0	486	621	
10	0	0	0	0	477	621	
11	0	0	0	0	468	617	
12	0	0	0	0	460	621	
13	0	0	0	0	452	620	
14	0	0	0	0	446	621	
15	0	0	0	0	439	624	
0	0	0	0	0	432	621	
1	0	0	0	0	425	621	
2	0	0	0	0	418	620	
3	0	0	0	0	412	617	
4	0	0	0	0	407	620	
5	0	0	0	0	402	620	
6	0	0	0	0	398	620	
7	0	0	0	0	394	623	
8	0	0	0	0	391	619	
9	0	0	0	0	387	620	
10	0	0	0	0	385	619	
11	0	0	0	0	383	615	
12	0	0	0	0	380	619	
13	0	0	0	0	379	619	
14	0	0	0	0	378	619	
15	0	0	0	0	378	623	
0	0	0	0	0	378	619	
1	0	0	0	0	377	620	
2	0	0	0	0	377	620	
3	0	0	0	0	377	616	
4	0	0	0	0	377	620	
5	0	0	0	0	377	620	
6	0	0	0	0	377	619	
7	0	0	0	0	379	622	
8	0	0	0	0	379	619	
9	0	0	0	0	379	619	
10	0	0	0	0	380	618	
11	0	0	0	0	381	614	
12	0	0	0	0	382	618	
13	0	0	0	0	383	619	
14	0	0	0	0	384	619	
15	0	0	0	0	384	622	
0	0	0	0	0	386	619	
1	0	0	0	0	387	619	
2	0	0	0	0	388	619	
3	0	0	0	0	390	615	
4	0	0	0	0	391	620	
5	0	0	0	0	393	620	
6	0	0	0	0	393	620	
7	0	0	0	0	395	623	
8	0	0	0	0	396	620	
9	0	0	0	0	398	620	
10	0	0	0	0	398	620	
11	0	0	0	0	400	617	
12	0	0	0	0	400	620	
13	0	0	0	0	401	620	
14	0	0	0	0	402	621	
15	0	0	0	0	403	624	
0	0	0	0	0	404	622	
1	0	0	0	0	405	621	
2	0	0	0	0	406	621	
3	0	0	0	0	406	616	
4	0	0	0	0	407	621	
5	0	0	0	0	408	620	
6	0	0	0	0	408	621	
7	0	0	0	0	409	624	
8	0	0	0	0	411	620	
9	0	0	0	0	411	620	
10	0	0	0	0	411	621	
11	0	0	0	0	412	617	
12	0	0	0	0	413	621	
13	0	0	0	0	414	621	
14	0	0	0	0	415	621	
15	0	0	0	0	416	625	
0	0	0	0	0	417	621	
1	0	0	0	0	418	621	
2	0	0	0	0	419	621	
3	0	0	0	0	420	617	
4	0	0	0	0	420	621	
5	0	0	0	0	420	621	
6	0	0	0	0	421	621	
7	0	0	0	0	422	624	
8	0	0	0	0	422	621	
9	0	0	0	0	422	620	
10	0	0	0	0	423	620	
11	0	0	0	0	423	616	
12	0	0	0	0	423	620	
13	0	0	0	0	424	621	
14	0	0	0	0	425	620	
15	0	0	0	0	425	623	
0	0	0	0	0	427	619	
1	0	0	0	0	427	619	
2	0	0	0	0	428	619	
3	0	0	0	0	428	615	
4	0	0	0	0	430	619	
5	0	0	0	0	430	619	
6	0	0	0	0	431	619	
7	0	0	0	0	432	623	
8	0	0	0	0	433	620	
9	0	0	0	0	433	619	
10	0	0	0	0	435	619	
11	0	0	0	0	435	615	
12	0	0	0	0	435	619	
13	0	0	0	0	437	619	
14	0	0	0	0	437	620	
15	0	0	0	0	438	623	
0	0	0	0	0	439	619	
1	0	0	0	0	440	619	
2	0	0	0	0	441	619	
3	0	0	0	0	441	615	
4	0	0	0	0	441	619	
5	0	0	0	0	442	619	
6	0	0	0	0	442	618	
7	0	0	0	0	442	622	
8	0	0	0	0	443	617	
9	0	0	0	0	443	617	
10	0	0	0	0	443	617	
11	0	0	0	0	444	613	
12	0	0	0	0	445	617	
13	0	0	0	0	444	617	
14	0	0	0	0	444	617	
15	0	0	0	0	446	621	
0	0	0	0	0	447	617	
1	0	0	0	0	448	617	
2	0	0	0	0	449	617	
3	0	0	0	0	451	613	
4	0	0	0	0	451	617	
5	0	0	0	0	452	617	
6	0	0	0	0	454	617	
7	0	0	0	0	455	621	
8	0	0	0	0	454	617	
9	0	0	0	0	455	617	
10	0	0	0	0	455	617	
11	0	0	0	0	456	614	
12	0	0	0	0	457	617	
13	0	0	0	0	458	617	
14	0	0	0	0	459	618	
15	0	0	0	0	460	621	
0	0	0	0	0	460	618	
1	0	0	0	0	462	618	
2	0	0	0	0	463	619	
3	0	0	0	0	463	614	
4	0	0	0	0	464	618	
5	0	0	0	0	466	618	
6	0	0	0	0	467	619	
7	0	0	0	0	468	622	
8	0	0	0	0	469	619	
9	0	0	0	0	470	619	
10	0	0	0	0	472	619	
11	0	0	0	0	474	616	
12	0	0	0	0	475	619	
13	0	0	0	0	476	620	
14	0	0	0	0	478	620	
15	0	0	0	0	480	623	
0	0	0	0	0	481	620	
1	0	0	0	0	483	620	
2	0	0	0	0	484	620	
3	0	0	0	0	486	616	
4	0	0	0	0	487	621	
5	0	0	0	0	489	621	
6	0	0	0	0	491	621	
7	0	0	0	0	493	624	
8	0	0	0	0	494	621	
9	0	0	0	0	495	621	
10	0	0	0	0	496	620	
11	0	0	0	0	498	617	
12	0	0	0	0	499	620	
13	0	0	0	0	500	621	
14	0	0	0	0	501	621	
15	0	0	0	0	501	623	
0	0	0	0	0	503	620	
1	0	0	0	0	504	620	
2	0	0	0	0	505	619	
3	0	0	0	0	506	615	
4	0	0	0	0	507	619	
5	0	0	0	0	508	619	
6	0	0	0	0	510	619	
7	0	0	0	0	510	623	
8	0	0	0	0	511	618	
9	0	0	0	0	512	617	
10	0	0	0	0	514	618	
11	0	0	0	0	515	614	
12	0	0	0	0	515	618	
13	0	0	0	0	515	618	
14	0	0	0	0	516	618	
15	0	0	0	0	516	621	
0	0	0	0	0	517	618	
1	0	0	0	0	518	618	
2	0	0	0	0	519	618	
3	0	0	0	0	520	615	
4	0	0	0	0	519	619	
5	0	0	0	0	519	619	
6	0	0	0	0	519	619	
7	0	0	0	0	519	623	
8	0	0	0	0	519	620	
9	0	0	0	0	519	620	
10	0	0	0	0	518	620	
11	0	0	0	0	517	615	
12	0	0	0	0	518	620	
13	0	0	0	0	518	620	
14	0	0	0	0	518	620	
15	0	0	0	0	517	623	
0	0	0	0	0	516	620	
1	0	0	0	0	515	620	
2	0	0	0	0	513	619	
3	0	0	0	0	511	615	
4	0	0	0	0	511	619	
5	0	0	0	0	510	619	
6	0	0	0	0	510	619	
7	0	0	0	0	508	623	
8	0	0	0	0	506	619	
9	0	0	0	0	505	619	
10	0	0	0	0	504	619	
11	0	0	0	0	503	615	
12	0	0	0	0	502	619	
13	0	0	0	0	502	619	
14	0	0	0	0	500	620	
15	0	0	0	0	499	624	
0	0	0	0	0	498	620	
1	0	0	0	0	498	621	
2	0	0	0	0	498	622	
3	0	0	0	0	497	617	
4	0	0	0	0	497	622	
5	0	0	0	0	497	622	
6	0	0	0	0	497	621	
7	0	0	0	0	497	625	
8	0	0	0	0	497	622	
9	0	0	0	0	497	622	
10	0	0	0	0	496	621	
11	0	0	0	0	496	617	
12	0	0	0	0	495	621	
13	0	0	0	0	494	621	
14	0	0	0	0	495	621	
15	0	0	0	0	495	624	
0	0	0	0	0	495	620	
1	0	0	0	0	495	620	
2	0	0	0	0	494	620	
3	0	0	0	0	494	617	
4	0	0	0	0	494	621	
5	0	0	0	0	494	621	
6	0	0	0	0	494	622	
7	0	0	0	0	494	625	
8	0	0	0	0	493	622	
9	0	0	0	0	494	621	
10	0	0	0	0	495	621	
11	0	0	0	0	495	618	
12	0	0	0	0	496	622	
13	0	0	0	0	495	621	
14	0	0	0	0	495	621	
15	0	0	0	0	496	624	
0	0	0	0	0	496	621	
1	0	0	0	0	496	621	
2	0	0	0	0	496	620	
3	0	0	0	0	496	616	
4	0	0	0	0	497	620	
5	0	0	0	0	498	621	
6	0	0	0	0	498	621	
7	0	0	0	0	498	624	
8	0	0	0	0	498	620	
9	0	0	0	0	497	620	
10	0	0	0	0	497	620	
11	0	0	0	0	498	615	
12	0	0	0	0	497	619	
13	0	0	0	0	497	619	
14	0	0	0	0	497	619	
15	0	0	0	0	498	622	
0	0	0	0	0	498	618	
1	0	0	0	0	498	617	
2	0	0	0	0	499	617	
3	0	0	0	0	499	613	
4	0	0	0	0	498	617	
5	0	0	0	0	499	617	
6	0	0	0	0	499	617	
7	0	0	0	0	499	621	
8	0	0	0	0	499	617	
9	0	0	0	0	499	617	
10	0	0	0	0	498	617	
11	0	0	0	0	498	613	
12	0	0	0	0	499	617	
13	0	0	0	0	499	617	
14	0	0	0	0	500	617	
15	0	0	0	0	500	622	
0	0	0	0	0	500	618	
1	0	0	0	0	500	618	
2	0	0	0	0	501	618	
3	0	0	0	0	501	614	
4	0	0	0	0	502	617	
5	0	0	0	0	501	618	
6	0	0	0	0	502	618	
7	0	0	0	0	502	622	
8	0	0	0	0	502	618	
9	0	0	0	0	502	617	
10	0	0	0	0	501	617	
11	0	0	0	0	501	614	
12	0	0	0	0	500	617	
13	0	0	0	0	500	617	
14	0	0	0	0	500	617	
15	0	0	0	0	500	622	
0	0	0	0	0	501	618	
1	0	0	0	0	502	619	
2	0	0	0	0	501	618	
3	0	0	0	0	502	615	
4	0	0	0	0	503	619	
5	0	0	0	0	503	619	
6	0	0	0	0	504	620	
7	0	0	0	0	504	623	
8	0	0	0	0	504	619	
9	0	0	0	0	506	620	
10	0	0	0	0	506	619	
11	0	0	0	0	506	615	
12	0	0	0	0	505	619	
13	0	0	0	0	506	619	
14	0	0	0	0	507	619	
15	0	0	0	0	508	623	
0	0	0	0	0	510	620	
1	0	0	0	0	510	620	
2	0	0	0	0	511	618	
3	0	0	0	0	511	615	
4	0	0	0	0	511	618	
5	0	0	0	0	511	619	
6	0	0	0	0	511	619	
7	0	0	0	0	511	622	
8	0	0	0	0	512	618	
9	0	0	0	0	512	618	
10	0	0	0	0	512	618	
11	0	0	0	0	512	615	
12	0	0	0	0	512	618	
13	0	0	0	0	512	619	
14	0	0	0	0	512	619	
15	0	0	0	0	513	622	
0	0	0	0	0	513	619	
1	0	0	0	0	513	619	
2	0	0	0	0	514	619	
3	0	0	0	0	515	615	
4	0	0	0	0	515	619	
5	0	0	0	0	516	619	
6	0	0	0	0	516	619	
7	0	0	0	0	517	622	
8	0	0	0	0	518	619	
9	0	0	0	0	518	619	
10	0	0	0	0	518	619	
11	0	0	0	0	518	615	
12	0	0	0	0	518	619	
13	0	0	0	0	519	619	
14	0	0	0	0	519	619	
15	0	0	0	0	519	623	
0	0	0	0	0	519	619	
1	0	0	0	0	519	619	
2	0	0	0	0	519	619	
3	0	0	0	0	519	615	
4	0	0	0	0	519	620	
5	0	0	0	0	519	620	
6	0	0	0	0	519	620	
7	0	0	0	0	519	623	
8	0	0	0	0	520	620	
9	0	0	0	0	520	620	
10	0	0	0	0	520	620	
11	0	0	0	0	521	616	
12	0	0	0	0	521	620	
13	0	0	0	0	521	620	
14	0	0	0	0	522	620	
15	0	0	0	0	522	624	
0	0	0	0	0	522	620	
1	0	0	0	0	522	620	
2	0	0	0	0	522	620	
3	0	0	0	0	522	616	
4	0	0	0	0	523	620	
5	0	0	0	0	523	620	
6	0	0	0	0	524	620	
7	0	0	0	0	524	623	
8	0	0	0	0	525	620	
9	0	0	0	0	524	620	
10	0	0	0	0	525	620	
11	0	0	0	0	525	615	
12	0	0	0	0	524	619	
13	0	0	0	0	524	620	
14	0	0	0	0	524	620	
15	0	0	0	0	525	623	
0	0	0	0	0	524	620	
1	0	0	0	0	525	620	
2	0	0	0	0	525	619	
3	0	0	0	0	525	615	
4	0	0	0	0	525	620	
5	0	0	0	0	525	620	
6	0	0	0	0	525	619	
7	0	0	0	0	525	623	
8	0	0	0	0	524	619	
9	0	0	0	0	524	619	
10	0	0	0	0	523	619	
11	0	0	0	0	523	615	
12	0	0	0	0	523	618	
13	0	0	0	0	523	618	
14	0	0	0	0	522	619	
15	0	0	0	0	522	622	
0	0	0	0	0	522	619	
1	0	0	0	0	522	618	
2	0	0	0	0	522	619	
3	0	0	0	0	521	614	
4	0	0	0	0	522	618	
5	0	0	0	0	522	619	
6	0	0	0	0	523	619	
7	0	0	0	0	523	622	
8	0	0	0	0	523	619	
9	0	0	0	0	524	619	
10	0	0	0	0	524	618	
11	0	0	0	0	524	615	
12	0	0	0	0	524	619	
13	0	0	0	0	524	619	
14	0	0	0	0	524	619	
15	0	0	0	0	524	623	
0	0	0	0	0	523	620	
1	0	0	0	0	523	620	
2	0	0	0	0	522	620	
3	0	0	0	0	522	616	
4	0	0	0	0	522	620	
5	0	0	0	0	523	620	
6	0	0	0	0	523	620	
7	0	0	0	0	523	624	
8	0	0	0	0	523	620	
9	0	0	0	0	523	620	
10	0	0	0	0	523	620	
11	0	0	0	0	524	617	
12	0	0	0	0	523	620	
13	0	0	0	0	523	620	
14	0	0	0	0	522	621	
15	0	0	0	0	522	624	
0	0	0	0	0	523	620	
1	0	0	0	0	521	620	
2	0	0	0	0	520	620	
3	0	0	0	0	520	617	
4	0	0	0	0	519	620	
5	0	0	0	0	519	620	
6	0	0	0	0	519	621	
7	0	0	0	0	519	624	
8	0	0	0	0	519	620	
9	0	0	0	0	519	620	
10	0	0	0	0	518	620	
11	0	0	0	0	518	615	
12	0	0	0	0	517	619	
13	0	0	0	0	517	619	
14	0	0	0	0	517	619	
15	0	0	0	0	516	623	
0	0	0	0	0	516	619	
1	0	0	0	0	515	619	
2	0	0	0	0	515	619	
3	0	0	0	0	515	615	
4	0	0	0	0	515	619	
5	0	0	0	0	514	618	
6	0	0	0	0	514	618	
7	0	0	0	0	513	621	
8	0	0	0	0	513	617	
9	0	0	0	0	512	617	
10	0	0	0	0	512	618	
11	0	0	0	0	512	614	
12	0	0	0	0	512	618	
13	0	0	0	0	513	618	
14	0	0	0	0	513	618	
15	0	0	0	0	513	622	
0	0	0	0	0	513	617	
1	0	0	0	0	513	618	
2	0	0	0	0	513	617	
3	0	0	0	0	513	614	
4	0	0	0	0	512	618	
5	0	0	0	0	512	618	
6	0	0	0	0	512	617	
7	0	0	0	0	512	620	
8	0	0	0	0	511	617	
9	0	0	0	0	511	616	
10	0	0	0	0	511	618	
11	0	0	0	0	511	614	
12	0	0	0	0	511	618	
13	0	0	0	0	511	617	
14	0	0	0	0	512	618	
15	0	0	0	0	511	621	
0	0	0	0	0	512	618	
1	0	0	0	0	512	619	
2	0	0	0	0	512	619	
3	0	0	0	0	513	615	
4	0	0	0	0	512	619	
5	0	0	0	0	512	620	
6	0	0	0	0	513	620	
7	0	0	0	0	514	623	
8	0	0	0	0	514	620	
9	0	0	0	0	515	620	
10	0	0	0	0	516	620	
11	0	0	0	0	517	616	
12	0	0	0	0	519	620	
13	0	0	0	0	520	620	
14	0	0	0	0	521	620	
15	0	0	0	0	523	624	
0	0	0	0	0	524	620	
1	0	0	0	0	524	620	
2	0	0	0	0	524	620	
3	0	0	0	0	524	616	
4	0	0	0	0	524	620	
5	0	0	0	0	523	620	
6	0	0	0	0	521	619	
7	0	0	0	0	521	622	
8	0	0	0	0	520	619	
9	0	0	0	0	519	620	
10	0	0	0	0	519	619	
11	0	0	0	0	519	615	
12	0	0	0	0	518	619	
13	0	0	0	0	518	620	
14	0	0	0	0	518	620	
15	0	0	0	0	518	623	
0	0	0	0	0	517	620	
1	0	0	0	0	517	620	
2	0	0	0	0	517	620	
3	0	0	0	0	517	616	
4	0	0	0	0	517	620	
5	0	0	0	0	517	620	
6	0	0	0	0	517	621	
7	0	0	0	0	516	624	
8	0	0	0	0	516	620	
9	0	0	0	0	516	621	
10	0	0	0	0	516	620	
11	0	0	0	0	516	616	
12	0	0	0	0	517	620	
13	0	0	0	0	516	620	
14	0	0	0	0	517	620	
15	0	0	0	0	517	624	
0	0	0	0	0	517	619	
1	0	0	0	0	517	620	
2	0	0	0	0	517	620	
3	0	0	0	0	517	616	
4	0	0	0	0	517	620	
5	0	0	0	0	517	620	
6	0	0	0	0	517	620	
7	0	0	0	0	517	623	
8	0	0	0	0	516	619	
9	0	0	0	0	515	619	
10	0	0	0	0	515	619	
11	0	0	0	0	514	615	
12	0	0	0	0	514	619	
13	0	0	0	0	514	619	
14	0	0	0	0	514	619	
15	0	0	0	0	514	622	
0	0	0	0	0	515	620	
1	0	0	0	0	515	619	
2	0	0	0	0	516	619	
3	0	0	0	0	516	616	
4	0	0	0	0	516	620	
5	0	0	0	0	517	620	
6	0	0	0	0	517	620	
7	0	0	0	0	517	623	
8	0	0	0	0	516	619	
9	0	0	0	0	516	620	
10	0	0	0	0	516	619	
11	0	0	0	0	515	615	
12	0	0	0	0	515	620	
13	0	0	0	0	514	619	
14	0	0	0	0	512	620	
15	0	0	0	0	509	623	
0	0	0	0	0	506	619	
1	0	0	0	0	503	619	
2	0	0	0	0	497	619	
3	0	0	0	0	492	615	
4	0	0	0	0	487	619	
5	0	0	0	0	480	619	
6	0	0	0	0	475	619	
7	0	0	0	0	470	622	
8	0	0	0	0	466	619	
9	0	0	0	0	462	619	
10	0	0	0	0	457	618	
11	0	0	0	0	455	615	
12	0	0	0	0	452	618	
13	0	0	0	0	452	619	
14	0	0	0	0	454	618	
15	0	0	0	0	456	621	
0	0	0	0	0	460	617	
1	0	0	0	0	468	618	
2	0	0	0	0	478	618	
3	0	0	0	0	493	614	
4	0	0	0	0	512	618	
5	0	0	0	0	533	617	
6	0	0	0	0	558	618	
7	0	0	0	0	585	622	
8	0	0	0	0	615	618	
9	0	0	0	0	646	618	
10	0	0	0	0	678	618	
11	0	0	0	0	712	614	
12	0	0	0	0	746	618	
13	0	0	0	0	779	619	
14	0	0	0	0	815	619	
15	0	0	0	0	855	622	
0	0	0	0	0	894	618	
1	0	0	0	0	933	619	
2	0	0	0	0	971	619	
3	0	0	0	0	1000	615	
4	0	0	0	0	1021	619	
5	0	0	0	0	1022	619	
6	0	0	0	0	1022	620	
7	0	0	0	0	1022	623	
8	0	0	0	0	1022	619	
9	0	0	0	0	1022	620	
10	0	0	0	0	1022	620	
11	0	0	0	0	1022	616	
12	0	0	0	0	1022	620	
13	0	0	0	0	1019	620	
14	0	0	0	0	967	621	
15	0	0	0	0	915	624	
0	0	0	0	0	861	620	
1	0	0	0	0	808	620	
2	0	0	0	0	754	621	
3	0	0	0	0	699	616	
4	0	0	0	0	648	620	
5	0	0	0	0	605	619	
6	0	0	0	0	572	620	
7	0	0	0	0	548	624	
8	0	0	0	0	528	620	
9	0	0	0	0	512	620	
10	0	0	0	0	499	619	
11	0	0	0	0	488	615	
12	0	0	0	0	479	620	
13	0	0	0	0	471	619	
14	0	0	0	0	463	620	
15	0	0	0	0	455	623	
0	0	0	0	0	449	619	
1	0	0	0	0	441	619	
2	0	0	0	0	434	619	
3	0	0	0	0	427	615	
4	0	0	0	0	419	619	
5	0	0	0	0	413	619	
6	0	0	0	0	408	619	
7	0	0	0	0	403	622	
8	0	0	0	0	399	618	
9	0	0	0	0	395	618	
10	0	0	0	0	391	618	
11	0	0	0	0	389	615	
12	0	0	0	0	386	619	
13	0	0	0	0	385	618	
14	0	0	0	0	384	619	
15	0	0	0	0	382	622	
0	0	0	0	0	380	619	
1	0	0	0	0	380	619	
2	0	0	0	0	380	619	
3	0	0	0	0	380	615	
4	0	0	0	0	380	619	
5	0	0	0	0	380	620	
6	0	0	0	0	381	619	
7	0	0	0	0	381	623	
8	0	0	0	0	381	620	
9	0	0	0	0	380	619	
10	0	0	0	0	381	619	
11	0	0	0	0	382	616	
12	0	0	0	0	382	619	
13	0	0	0	0	383	619	
14	0	0	0	0	384	619	
15	0	0	0	0	385	623	
0	0	0	0	0	386	620	
1	0	0	0	0	387	619	
2	0	0	0	0	387	619	
3	0	0	0	0	388	615	
4	0	0	0	0	389	619	
5	0	0	0	0	391	619	
6	0	0	0	0	392	619	
7	0	0	0	0	393	622	
8	0	0	0	0	394	619	
9	0	0	0	0	395	619	
10	0	0	0	0	396	618	
11	0	0	0	0	397	614	
12	0	0	0	0	398	619	
13	0	0	0	0	399	619	
14	0	0	0	0	399	619	
15	0	0	0	0	400	622	
0	0	0	0	0	401	619	
1	0	0	0	0	402	619	
2	0	0	0	0	403	619	
3	0	0	0	0	404	615	
4	0	0	0	0	405	619	
5	0	0	0	0	406	619	
6	0	0	0	0	407	620	
7	0	0	0	0	407	623	
8	0	0	0	0	407	619	
9	0	0	0	0	407	620	
10	0	0	0	0	408	620	
11	0	0	0	0	408	617	
12	0	0	0	0	409	620	
13	0	0	0	0	410	620	
14	0	0	0	0	411	620	
15	0	0	0	0	412	624	
0	0	0	0	0	413	620	
1	0	0	0	0	414	620	
2	0	0	0	0	414	620	
3	0	0	0	0	415	616	
4	0	0	0	0	416	621	
5	0	0	0	0	417	620	
6	0	0	0	0	418	620	
7	0	0	0	0	418	624	
8	0	0	0	0	419	620	
9	0	0	0	0	420	620	
10	0	0	0	0	422	620	
11	0	0	0	0	422	616	
12	0	0	0	0	423	620	
13	0	0	0	0	423	620	
14	0	0	0	0	424	620	
15	0	0	0	0	424	624	
0	0	0	0	0	425	620	
1	0	0	0	0	426	619	
2	0	0	0	0	427	620	
3	0	0	0	0	428	616	
4	0	0	0	0	428	619	
5	0	0	0	0	428	620	
6	0	0	0	0	430	620	
7	0	0	0	0	430	623	
8	0	0	0	0	431	620	
9	0	0	0	0	432	620	
10	0	0	0	0	432	620	
11	0	0	0	0	433	615	
12	0	0	0	0	433	619	
13	0	0	0	0	434	619	
14	0	0	0	0	435	619	
15	0	0	0	0	437	622	
0	0	0	0	0	438	619	
1	0	0	0	0	439	619	
2	0	0	0	0	440	619	
3	0	0	0	0	440	615	
4	0	0	0	0	440	619	
5	0	0	0	0	440	618	
6	0	0	0	0	440	619	
7	0	0	0	0	441	622	
8	0	0	0	0	442	619	
9	0	0	0	0	444	619	
10	0	0	0	0	444	619	
11	0	0	0	0	444	615	
12	0	0	0	0	445	620	
13	0	0	0	0	446	620	
14	0	0	0	0	446	620	
15	0	0	0	0	446	623	
0	0	0	0	0	447	620	
1	0	0	0	0	448	619	
2	0	0	0	0	448	619	
3	0	0	0	0	448	615	
4	0	0	0	0	449	619	
5	0	0	0	0	450	619	
6	0	0	0	0	451	620	
7	0	0	0	0	452	622	
8	0	0	0	0	453	619	
9	0	0	0	0	453	620	
10	0	0	0	0	453	620	
11	0	0	0	0	455	615	
12	0	0	0	0	455	620	
13	0	0	0	0	456	620	
14	0	0	0	0	457	620	
15	0	0	0	0	458	624	
0	0	0	0	0	459	620	
1	0	0	0	0	460	620	
2	0	0	0	0	461	621	
3	0	0	0	0	462	617	
4	0	0	0	0	463	620	
5	0	0	0	0	464	620	
6	0	0	0	0	466	621	
7	0	0	0	0	467	623	
8	0	0	0	0	468	619	
9	0	0	0	0	470	619	
10	0	0	0	0	472	618	
11	0	0	0	0	472	614	
12	0	0	0	0	473	617	
13	0	0	0	0	475	617	
14	0	0	0	0	475	616	
15	0	0	0	0	476	620	
0	0	0	0	0	477	616	
1	0	0	0	0	479	616	
2	0	0	0	0	480	616	
3	0	0	0	0	481	613	
4	0	0	0	0	483	616	
5	0	0	0	0	484	616	
6	0	0	0	0	485	617	
7	0	0	0	0	487	620	
8	0	0	0	0	488	616	
9	0	0	0	0	489	616	
10	0	0	0	0	489	617	
11	0	0	0	0	491	614	
12	0	0	0	0	492	617	
13	0	0	0	0	494	617	
14	0	0	0	0	494	617	
15	0	0	0	0	495	621	
0	0	0	0	0	497	617	
1	0	0	0	0	497	617	
2	0	0	0	0	498	618	
3	0	0	0	0	499	614	
4	0	0	0	0	499	618	
5	0	0	0	0	500	619	
6	0	0	0	0	501	619	
7	0	0	0	0	502	622	
8	0	0	0	0	504	619	
9	0	0	0	0	504	619	
10	0	0	0	0	505	619	
11	0	0	0	0	506	615	
12	0	0	0	0	507	619	
13	0	0	0	0	508	619	
14	0	0	0	0	508	620	
15	0	0	0	0	510	624	
0	0	0	0	0	510	620	
1	0	0	0	0	510	620	
2	0	0	0	0	511	621	
3	0	0	0	0	511	617	
4	0	0	0	0	511	621	
5	0	0	0	0	511	621	
6	0	0	0	0	510	621	
7	0	0	0	0	510	625	
8	0	0	0	0	510	621	
9	0	0	0	0	510	621	
10	0	0	0	0	510	621	
11	0	0	0	0	511	617	
12	0	0	0	0	511	621	
13	0	0	0	0	510	621	
14	0	0	0	0	509	622	
15	0	0	0	0	509	625	
0	0	0	0	0	509	620	
1	0	0	0	0	508	621	
2	0	0	0	0	506	620	
3	0	0	0	0	505	616	
4	0	0	0	0	505	620	
5	0	0	0	0	504	620	
6	0	0	0	0	504	620	
7	0	0	0	0	502	623	
8	0	0	0	0	502	620	
9	0	0	0	0	501	619	
10	0	0	0	0	499	619	
11	0	0	0	0	498	614	
12	0	0	0	0	497	618	
13	0	0	0	0	496	618	
14	0	0	0	0	495	618	
15	0	0	0	0	494	621	
0	0	0	0	0	494	618	
1	0	0	0	0	494	618	
2	0	0	0	0	493	617	
3	0	0	0	0	492	614	
4	0	0	0	0	491	618	
5	0	0	0	0	491	618	
6	0	0	0	0	489	618	
7	0	0	0	0	489	621	
8	0	0	0	0	489	618	
9	0	0	0	0	489	618	
10	0	0	0	0	487	618	
11	0	0	0	0	489	614	
12	0	0	0	0	490	619	
13	0	0	0	0	490	619	
14	0	0	0	0	490	619	
15	0	0	0	0	490	623	
0	0	0	0	0	490	620	
1	0	0	0	0	489	620	
2	0	0	0	0	489	620	
3	0	0	0	0	489	616	
4	0	0	0	0	490	620	
5	0	0	0	0	490	620	
6	0	0	0	0	490	620	
7	0	0	0	0	491	624	
8	0	0	0	0	491	620	
9	0	0	0	0	491	620	
10	0	0	0	0	491	619	
11	0	0	0	0	492	616	
12	0	0	0	0	492	620	
13	0	0	0	0	492	620	
14	0	0	0	0	492	620	
15	0	0	0	0	491	624	
0	0	0	0	0	491	620	
1	0	0	0	0	491	620	
2	0	0	0	0	491	621	
3	0	0	0	0	491	616	
4	0	0	0	0	491	620	
5	0	0	0	0	491	621	
6	0	0	0	0	492	621	
7	0	0	0	0	492	625	
8	0	0	0	0	493	620	
9	0	0	0	0	493	621	
10	0	0	0	0	494	621	
11	0	0	0	0	493	617	
12	0	0	0	0	493	621	
13	0	0	0	0	493	621	
14	0	0	0	0	494	621	
15	0	0	0	0	494	624	
0	0	0	0	0	495	620	
1	0	0	0	0	495	620	
2	0	0	0	0	495	619	
3	0	0	0	0	495	615	
4	0	0	0	0	495	619	
5	0	0	0	0	495	619	
6	0	0	0	0	495	619	
7	0	0	0	0	494	622	
8	0	0	0	0	495	619	
9	0	0	0	0	495	619	
10	0	0	0	0	495	619	
11	0	0	0	0	496	615	
12	0	0	0	0	496	620	
13	0	0	0	0	496	619	
14	0	0	0	0	496	619	
15	0	0	0	0	497	623	
0	0	0	0	0	497	619	
1	0	0	0	0	497	619	
2	0	0	0	0	497	619	
3	0	0	0	0	497	615	
4	0	0	0	0	496	620	
5	0	0	0	0	497	619	
6	0	0	0	0	497	619	
7	0	0	0	0	497	622	
8	0	0	0	0	498	619	
9	0	0	0	0	497	619	
10	0	0	0	0	498	618	
11	0	0	0	0	497	614	
12	0	0	0	0	497	619	
13	0	0	0	0	497	618	
14	0	0	0	0	496	618	
15	0	0	0	0	496	622	
0	0	0	0	0	496	618	
1	0	0	0	0	496	618	
2	0	0	0	0	496	618	
3	0	0	0	0	496	615	
4	0	0	0	0	496	619	
5	0	0	0	0	496	619	
6	0	0	0	0	496	619	
7	0	0	0	0	496	622	
8	0	0	0	0	497	619	
9	0	0	0	0	497	620	
10	0	0	0	0	498	619	
11	0	0	0	0	498	615	
12	0	0	0	0	499	619	
13	0	0	0	0	500	619	
14	0	0	0	0	499	619	
15	0	0	0	0	499	623	
0	0	0	0	0	499	620	
1	0	0	0	0	501	619	
2	0	0	0	0	502	618	
3	0	0	0	0	502	615	
4	0	0	0	0	502	619	
5	0	0	0	0	502	619	
6	0	0	0	0	502	619	
7	0	0	0	0	502	622	
8	0	0	0	0	502	619	
9	0	0	0	0	503	618	
10	0	0	0	0	503	618	
11	0	0	0	0	503	614	
12	0	0	0	0	503	618	
13	0	0	0	0	504	618	
14	0	0	0	0	504	618	
15	0	0	0	0	504	621	
0	0	0	0	0	504	618	
1	0	0	0	0	504	617	
2	0	0	0	0	505	617	
3	0	0	0	0	506	613	
4	0	0	0	0	506	617	
5	0	0	0	0	506	617	
6	0	0	0	0	507	618	
7	0	0	0	0	507	622	
8	0	0	0	0	507	618	
9	0	0	0	0	508	618	
10	0	0	0	0	509	618	
11	0	0	0	0	509	615	
12	0	0	0	0	508	619	
13	0	0	0	0	509	619	
14	0	0	0	0	509	620	
15	0	0	0	0	510	623	
0	0	0	0	0	511	620	
1	0	0	0	0	512	620	
2	0	0	0	0	512	620	
3	0	0	0	0	512	615	
4	0	0	0	0	512	619	
5	0	0	0	0	511	620	
6	0	0	0	0	512	619	
7	0	0	0	0	512	622	
8	0	0	0	0	513	620	
9	0	0	0	0	514	620	
10	0	0	0	0	514	618	
11	0	0	0	0	515	615	
12	0	0	0	0	516	619	
13	0	0	0	0	515	619	
14	0	0	0	0	515	618	
15	0	0	0	0	516	622	
0	0	0	0	0	516	619	
1	0	0	0	0	516	619	
2	0	0	0	0	516	619	
3	0	0	0	0	517	614	
4	0	0	0	0	516	619	
5	0	0	0	0	516	619	
6	0	0	0	0	516	619	
7	0	0	0	0	516	622	
8	0	0	0	0	516	619	
9	0	0	0	0	516	619	
10	0	0	0	0	516	620	
11	0	0	0	0	516	616	
12	0	0	0	0	516	620	
13	0	0	0	0	515	620	
14	0	0	0	0	515	620	
15	0	0	0	0	515	624	
0	0	0	0	0	515	620	
1	0	0	0	0	514	620	
2	0	0	0	0	515	620	
3	0	0	0	0	516	616	
4	0	0	0	0	515	620	
5	0	0	0	0	515	620	
6	0	0	0	0	516	620	
7	0	0	0	0	516	624	
8	0	0	0	0	517	619	
9	0	0	0	0	516	620	
10	0	0	0	0	516	620	
11	0	0	0	0	515	616	
12	0	0	0	0	516	621	
13	0	0	0	0	517	620	
14	0	0	0	0	515	620	
15	0	0	0	0	515	624	
0	0	0	0	0	514	620	
1	0	0	0	0	514	619	
2	0	0	0	0	514	620	
3	0	0	0	0	515	615	
4	0	0	0	0	516	619	
5	0	0	0	0	516	619	
6	0	0	0	0	515	619	
7	0	0	0	0	516	622	
8	0	0	0	0	515	618	
9	0	0	0	0	515	619	
10	0	0	0	0	515	619	
11	0	0	0	0	515	615	
12	0	0	0	0	515	619	
13	0	0	0	0	515	618	
14	0	0	0	0	515	619	
15	0	0	0	0	515	623	
0	0	0	0	0	516	619	
1	0	0	0	0	515	619	
2	0	0	0	0	516	619	
3	0	0	0	0	516	615	
4	0	0	0	0	516	618	
5	0	0	0	0	516	619	
6	0	0	0	0	516	619	
7	0	0	0	0	517	622	
8	0	0	0	0	516	619	
9	0	0	0	0	515	619	
10	0	0	0	0	515	618	
11	0	0	0	0	515	615	
12	0	0	0	0	515	618	
13	0	0	0	0	515	619	
14	0	0	0	0	515	619	
15	0	0	0	0	516	622	
0	0	0	0	0	517	619	
1	0	0	0	0	517	619	
2	0	0	0	0	516	619	
3	0	0	0	0	515	615	
4	0	0	0	0	515	619	
5	0	0	0	0	515	618	
6	0	0	0	0	515	619	
7	0	0	0	0	516	622	
8	0	0	0	0	516	619	
9	0	0	0	0	516	619	
10	0	0	0	0	515	619	
11	0	0	0	0	515	615	
12	0	0	0	0	515	618	
13	0	0	0	0	514	619	
14	0	0	0	0	515	620	
15	0	0	0	0	515	622	
0	0	0	0	0	514	619	
1	0	0	0	0	513	619	
2	0	0	0	0	513	619	
3	0	0	0	0	514	615	
4	0	0	0	0	514	619	
5	0	0	0	0	514	620	
6	0	0	0	0	514	620	
7	0	0	0	0	513	623	
8	0	0	0	0	514	619	
9	0	0	0	0	514	619	
10	0	0	0	0	514	619	
11	0	0	0	0	514	615	
12	0	0	0	0	513	620	
13	0	0	0	0	513	620	
14	0	0	0	0	513	620	
15	0	0	0	0	513	623	
0	0	0	0	0	513	619	
1	0	0	0	0	513	620	
2	0	0	0	0	513	620	
3	0	0	0	0	513	616	
4	0	0	0	0	513	620	
5	0	0	0	0	512	620	
6	0	0	0	0	512	620	
7	0	0	0	0	511	624	
8	0	0	0	0	511	620	
9	0	0	0	0	512	620	
10	0	0	0	0	512	619	
11	0	0	0	0	512	615	
12	0	0	0	0	511	619	
13	0	0	0	0	510	619	
14	0	0	0	0	511	619	
15	0	0	0	0	510	623	
0	0	0	0	0	509	620	
1	0	0	0	0	508	620	
2	0	0	0	0	508	619	
3	0	0	0	0	507	615	
4	0	0	0	0	506	619	
5	0	0	0	0	505	618	
6	0	0	0	0	504	619	
7	0	0	0	0	503	622	
8	0	0	0	0	503	618	
9	0	0	0	0	503	619	
10	0	0	0	0	503	618	
11	0	0	0	0	503	614	
12	0	0	0	0	502	618	
13	0	0	0	0	503	618	
14	0	0	0	0	503	618	
15	0	0	0	0	504	622	
0	0	0	0	0	503	617	
1	0	0	0	0	504	618	
2	0	0	0	0	504	618	
3	0	0	0	0	504	614	
4	0	0	0	0	504	618	
5	0	0	0	0	504	618	
6	0	0	0	0	503	618	
7	0	0	0	0	502	621	
8	0	0	0	0	503	617	
9	0	0	0	0	503	618	
10	0	0	0	0	503	617	
11	0	0	0	0	504	614	
12	0	0	0	0	504	618	
13	0	0	0	0	504	618	
14	0	0	0	0	503	618	
15	0	0	0	0	503	622	
0	0	0	0	0	503	618	
1	0	0	0	0	503	618	
2	0	0	0	0	503	618	
3	0	0	0	0	503	614	
4	0	0	0	0	504	618	
5	0	0	0	0	506	618	
6	0	0	0	0	508	619	
7	0	0	0	0	508	622	
8	0	0	0	0	509	619	
9	0	0	0	0	509	619	
10	0	0	0	0	509	619	
11	0	0	0	0	510	616	
12	0	0	0	0	510	619	
13	0	0	0	0	512	619	
14	0	0	0	0	514	619	
15	0	0	0	0	515	623	
0	0	0	0	0	515	620	
1	0	0	0	0	515	620	
2	0	0	0	0	516	620	
3	0	0	0	0	517	616	
4	0	0	0	0	517	620	
5	0	0	0	0	517	620	
6	0	0	0	0	518	621	
7	0	0	0	0	517	624	
8	0	0	0	0	518	620	
9	0	0	0	0	517	620	
10	0	0	0	0	517	620	
11	0	0	0	0	516	616	
12	0	0	0	0	516	620	
13	0	0	0	0	516	620	
14	0	0	0	0	515	620	
15	0	0	0	0	514	623	
0	0	0	0	0	514	620	
1	0	0	0	0	513	620	
2	0	0	0	0	513	620	
3	0	0	0	0	514	615	
4	0	0	0	0	515	620	
5	0	0	0	0	514	619	
6	0	0	0	0	514	620	
7	0	0	0	0	515	622	
8	0	0	0	0	515	619	
9	0	0	0	0	515	619	
10	0	0	0	0	515	619	
11	0	0	0	0	515	615	
12	0	0	0	0	514	619	
13	0	0	0	0	514	619	
14	0	0	0	0	514	619	
15	0	0	0	0	514	622	
0	0	0	0	0	514	619	
1	0	0	0	0	515	619	
2	0	0	0	0	515	619	
3	0	0	0	0	516	615	
4	0	0	0	0	516	619	
5	0	0	0	0	515	619	
6	0	0	0	0	515	619	
7	0	0	0	0	515	622	
8	0	0	0	0	514	619	
9	0	0	0	0	514	619	
10	0	0	0	0	515	620	
11	0	0	0	0	515	615	
12	0	0	0	0	515	620	
13	0	0	0	0	515	619	
14	0	0	0	0	514	619	
15	0	0	0	0	513	623	
0	0	0	0	0	514	618	
1	0	0	0	0	513	619	
2	0	0	0	0	513	619	
3	0	0	0	0	513	615	
4	0	0	0	0	513	619	
5	0	0	0	0	513	619	
6	0	0	0	0	513	619	
7	0	0	0	0	512	623	
8	0	0	0	0	513	619	
9	0	0	0	0	513	619	
10	0	0	0	0	513	619	
11	0	0	0	0	512	615	
12	0	0	0	0	512	619	
13	0	0	0	0	512	620	
14	0	0	0	0	510	619	
15	0	0	0	0	508	623	
0	0	0	0	0	505	619	
1	0	0	0	0	501	619	
2	0	0	0	0	498	619	
3	0	0	0	0	493	615	
4	0	0	0	0	487	619	
5	0	0	0	0	481	619	
6	0	0	0	0	477	620	
7	0	0	0	0	472	622	
8	0	0	0	0	468	619	
9	0	0	0	0	465	619	
10	0	0	0	0	461	618	
11	0	0	0	0	457	615	
12	0	0	0	0	455	619	
13	0	0	0	0	454	619	
14	0	0	0	0	455	619	
15	0	0	0	0	458	623	
0	0	0	0	0	461	619	
1	0	0	0	0	467	619	
2	0	0	0	0	476	619	
3	0	0	0	0	490	615	
4	0	0	0	0	505	620	
5	0	0	0	0	524	620	
6	0	0	0	0	547	620	
7	0	0	0	0	573	623	
8	0	0	0	0	600	620	
9	0	0	0	0	630	620	
10	0	0	0	0	660	620	
11	0	0	0	0	691	616	
12	0	0	0	0	722	620	
13	0	0	0	0	751	620	
14	0	0	0	0	783	619	
15	0	0	0	0	818	623	
0	0	0	0	0	853	619	
1	0	0	0	0	888	619	
2	0	0	0	0	924	619	
3	0	0	0	0	955	615	
4	0	0	0	0	981	619	
5	0	0	0	0	1005	619	
6	0	0	0	0	1021	619	
7	0	0	0	0	1022	623	
8	0	0	0	0	1022	620	
9	0	0	0	0	1022	619	
10	0	0	0	0	1022	619	
11	0	0	0	0	1022	615	
12	0	0	0	0	1017	619	
13	0	0	0	0	978	619	
14	0	0	0	0	933	619	
15	0	0	0	0	883	623	
0	0	0	0	0	833	619	
1	0	0	0	0	783	620	
2	0	0	0	0	732	619	
3	0	0	0	0	681	616	
4	0	0	0	0	635	619	
5	0	0	0	0	595	620	
6	0	0	0	0	567	620	
7	0	0	0	0	546	624	
8	0	0	0	0	530	620	
9	0	0	0	0	515	619	
10	0	0	0	0	504	620	
11	0	0	0	0	494	615	
12	0	0	0	0	486	619	
13	0	0	0	0	478	619	
14	0	0	0	0	472	619	
15	0	0	0	0	465	622	
0	0	0	0	0	459	619	
1	0	0	0	0	452	619	
2	0	0	0	0	446	619	
3	0	0	0	0	440	615	
4	0	0	0	0	434	618	
5	0	0	0	0	428	618	
6	0	0	0	0	422	619	
7	0	0	0	0	417	622	
8	0	0	0	0	412	619	
9	0	0	0	0	408	618	
10	0	0	0	0	405	618	
11	0	0	0	0	402	615	
12	0	0	0	0	399	619	
13	0	0	0	0	397	619	
14	0	0	0	0	395	619	
15	0	0	0	0	394	622	
0	0	0	0	0	392	620	
1	0	0	0	0	391	619	
2	0	0	0	0	391	619	
3	0	0	0	0	391	615	
4	0	0	0	0	391	618	
5	0	0	0	0	391	618	
6	0	0	0	0	391	619	
7	0	0	0	0	390	623	
8	0	0	0	0	391	619	
9	0	0	0	0	391	618	
10	0	0	0	0	392	619	
11	0	0	0	0	393	615	
12	0	0	0	0	394	620	
13	0	0	0	0	394	620	
14	0	0	0	0	394	620	
15	0	0	0	0	395	624	
0	0	0	0	0	396	620	
1	0	0	0	0	397	621	
2	0	0	0	0	398	620	
3	0	0	0	0	399	616	
4	0	0	0	0	400	620	
5	0	0	0	0	401	621	
6	0	0	0	0	402	621	
7	0	0	0	0	403	624	
8	0	0	0	0	404	620	
9	0	0	0	0	405	620	
10	0	0	0	0	405	620	
11	0	0	0	0	406	616	
12	0	0	0	0	407	620	
13	0	0	0	0	408	620	
14	0	0	0	0	409	620	
15	0	0	0	0	410	624	
0	0	0	0	0	412	620	
1	0	0	0	0	412	620	
2	0	0	0	0	412	620	
3	0	0	0	0	414	616	
4	0	0	0	0	414	620	
5	0	0	0	0	415	620	
6	0	0	0	0	415	620	
7	0	0	0	0	416	623	
8	0	0	0	0	417	620	
9	0	0	0	0	417	621	
10	0	0	0	0	417	620	
11	0	0	0	0	418	616	
12	0	0	0	0	419	621	
13	0	0	0	0	419	620	
14	0	0	0	0	420	620	
15	0	0	0	0	421	624	
0	0	0	0	0	423	620	
1	0	0	0	0	423	620	
2	0	0	0	0	424	620	
3	0	0	0	0	424	615	
4	0	0	0	0	424	619	
5	0	0	0	0	425	619	
6	0	0	0	0	426	618	
7	0	0	0	0	427	622	
8	0	0	0	0	428	619	
9	0	0	0	0	429	619	
10	0	0	0	0	429	619	
11	0	0	0	0	430	615	
12	0	0	0	0	431	619	
13	0	0	0	0	432	620	
14	0	0	0	0	433	619	
15	0	0	0	0	433	622	
0	0	0	0	0	435	619	
1	0	0	0	0	435	619	
2	0	0	0	0	436	619	
3	0	0	0	0	437	615	
4	0	0	0	0	436	619	
5	0	0	0	0	437	619	
6	0	0	0	0	438	619	
7	0	0	0	0	439	622	
8	0	0	0	0	440	618	
9	0	0	0	0	439	619	
10	0	0	0	0	440	618	
11	0	0	0	0	442	615	
12	0	0	0	0	443	619	
13	0	0	0	0	443	618	
14	0	0	0	0	444	618	
15	0	0	0	0	445	622	
0	0	0	0	0	446	618	
1	0	0	0	0	445	618	
2	0	0	0	0	446	618	
3	0	0	0	0	447	614	
4	0	0	0	0	448	619	
5	0	0	0	0	448	618	
6	0	0	0	0	449	619	
7	0	0	0	0	450	622	
8	0	0	0	0	451	618	
9	0	0	0	0	452	619	
10	0	0	0	0	452	619	
11	0	0	0	0	452	616	
12	0	0	0	0	453	619	
13	0	0	0	0	453	620	
14	0	0	0	0	454	620	
15	0	0	0	0	454	624	
0	0	0	0	0	455	620	
1	0	0	0	0	455	619	
2	0	0	0	0	457	619	
3	0	0	0	0	457	615	
4	0	0	0	0	458	620	
5	0	0	0	0	459	619	
6	0	0	0	0	459	619	
7	0	0	0	0	460	623	
8	0	0	0	0	460	619	
9	0	0	0	0	461	620	
10	0	0	0	0	463	620	
11	0	0	0	0	464	615	
12	0	0	0	0	466	620	
13	0	0	0	0	467	620	
14	0	0	0	0	469	620	
15	0	0	0	0	470	624	
0	0	0	0	0	471	620	
1	0	0	0	0	472	620	
2	0	0	0	0	472	620	
3	0	0	0	0	473	615	
4	0	0	0	0	475	619	
5	0	0	0	0	476	620	
6	0	0	0	0	477	620	
7	0	0	0	0	480	623	
8	0	0	0	0	481	619	
9	0	0	0	0	482	619	
10	0	0	0	0	483	619	
11	0	0	0	0	483	615	
12	0	0	0	0	484	619	
13	0	0	0	0	484	619	
14	0	0	0	0	486	618	
15	0	0	0	0	486	622	
0	0	0	0	0	487	618	
1	0	0	0	0	488	618	
2	0	0	0	0	490	618	
3	0	0	0	0	491	614	
4	0	0	0	0	492	617	
5	0	0	0	0	492	617	
6	0	0	0	0	494	618	
7	0	0	0	0	495	622	
8	0	0	0	0	496	619	
9	0	0	0	0	497	618	
10	0	0	0	0	499	618	
11	0	0	0	0	499	614	
12	0	0	0	0	501	619	
13	0	0	0	0	502	619	
14	0	0	0	0	503	619	
15	0	0	0	0	504	622	
0	0	0	0	0	505	619	
1	0	0	0	0	507	619	
2	0	0	0	0	509	619	
3	0	0	0	0	510	615	
4	0	0	0	0	511	620	
5	0	0	0	0	512	620	
6	0	0	0	0	512	620	
7	0	0	0	0	513	623	
8	0	0	0	0	514	620	
9	0	0	0	0	514	620	
10	0	0	0	0	515	620	
11	0	0	0	0	517	615	
12	0	0	0	0	516	620	
13	0	0	0	0	516	619	
14	0	0	0	0	517	619	
15	0	0	0	0	517	623	
0	0	0	0	0	517	619	
1	0	0	0	0	517	619	
2	0	0	0	0	518	619	
3	0	0	0	0	518	615	
4	0	0	0	0	519	619	
5	0	0	0	0	519	619	
6	0	0	0	0	519	618	
7	0	0	0	0	519	622	
8	0	0	0	0	519	619	
9	0	0	0	0	519	619	
10	0	0	0	0	518	618	
11	0	0	0	0	518	615	
12	0	0	0	0	517	618	
13	0	0	0	0	516	618	
14	0	0	0	0	515	618	
15	0	0	0	0	515	621	
0	0	0	0	0	514	618	
1	0	0	0	0	513	618	
2	0	0	0	0	512	618	
3	0	0	0	0	511	615	
4	0	0	0	0	510	619	
5	0	0	0	0	509	619	
6	0	0	0	0	508	618	
7	0	0	0	0	507	622	
8	0	0	0	0	506	619	
9	0	0	0	0	504	619	
10	0	0	0	0	503	619	
11	0	0	0	0	502	615	
12	0	0	0	0	500	620	
13	0	0	0	0	500	620	
14	0	0	0	0	498	620	
15	0	0	0	0	497	624	
0	0	0	0	0	497	619	
1	0	0	0	0	496	620	
2	0	0	0	0	494	620	
3	0	0	0	0	493	616	
4	0	0	0	0	491	620	
5	0	0	0	0	490	621	
6	0	0	0	0	490	621	
7	0	0	0	0	490	624	
8	0	0	0	0	489	620	
9	0	0	0	0	489	620	
10	0	0	0	0	489	620	
11	0	0	0	0	489	616	
12	0	0	0	0	489	621	
13	0	0	0	0	489	621	
14	0	0	0	0	488	622	
15	0	0	0	0	488	625	
0	0	0	0	0	488	621	
1	0	0	0	0	487	622	
2	0	0	0	0	487	622	
3	0	0	0	0	487	619	
4	0	0	0	0	487	622	
5	0	0	0	0	487	622	
6	0	0	0	0	487	622	
7	0	0	0	0	486	625	
8	0	0	0	0	487	623	
9	0	0	0	0	487	622	
10	0	0	0	0	487	622	
11	0	0	0	0	487	617	
12	0	0	0	0	486	621	
13	0	0	0	0	486	620	
14	0	0	0	0	486	620	
15	0	0	0	0	485	623	
0	0	0	0	0	486	619	
1	0	0	0	0	486	619	
2	0	0	0	0	486	618	
3	0	0	0	0	485	614	
4	0	0	0	0	484	618	
5	0	0	0	0	485	619	
6	0	0	0	0	486	618	
7	0	0	0	0	486	622	
8	0	0	0	0	487	618	
9	0	0	0	0	487	618	
10	0	0	0	0	487	618	
11	0	0	0	0	487	615	
12	0	0	0	0	488	619	
13	0	0	0	0	488	618	
14	0	0	0	0	489	618	
15	0	0	0	0	489	622	
0	0	0	0	0	490	618	
1	0	0	0	0	491	619	
2	0	0	0	0	491	617	
3	0	0	0	0	491	614	
4	0	0	0	0	492	618	
5	0	0	0	0	492	619	
6	0	0	0	0	493	619	
7	0	0	0	0	494	622	
8	0	0	0	0	494	618	
9	0	0	0	0	495	618	
10	0	0	0	0	495	617	
11	0	0	0	0	496	614	
12	0	0	0	0	495	617	
13	0	0	0	0	496	617	
14	0	0	0	0	496	618	
15	0	0	0	0	496	621	
0	0	0	0	0	497	618	
1	0	0	0	0	497	618	
2	0	0	0	0	496	618	
3	0	0	0	0	497	615	
4	0	0	0	0	498	619	
5	0	0	0	0	498	619	
6	0	0	0	0	498	619	
7	0	0	0	0	499	622	
8	0	0	0	0	499	619	
9	0	0	0	0	499	619	
10	0	0	0	0	498	619	
11	0	0	0	0	498	615	
12	0	0	0	0	497	619	
13	0	0	0	0	498	620	
14	0	0	0	0	499	620	
15	0	0	0	0	499	623	
0	0	0	0	0	500	619	
1	0	0	0	0	499	619	
2	0	0	0	0	500	619	
3	0	0	0	0	500	614	
4	0	0	0	0	500	618	
5	0	0	0	0	501	618	
6	0	0	0	0	500	618	
7	0	0	0	0	502	622	
8	0	0	0	0	503	618	
9	0	0	0	0	503	618	
10	0	0	0	0	504	618	
11	0	0	0	0	504	615	
12	0	0	0	0	505	619	
13	0	0	0	0	505	619	
14	0	0	0	0	506	619	
15	0	0	0	0	507	622	
0	0	0	0	0	507	618	
1	0	0	0	0	507	618	
2	0	0	0	0	507	618	
3	0	0	0	0	507	615	
4	0	0	0	0	507	618	
5	0	0	0	0	507	618	
6	0	0	0	0	508	619	
7	0	0	0	0	508	621	
8	0	0	0	0	508	618	
9	0	0	0	0	508	618	
10	0	0	0	0	508	617	
11	0	0	0	0	508	614	
12	0	0	0	0	508	617	
13	0	0	0	0	509	618	
14	0	0	0	0	510	618	
15	0	0	0	0	510	621	
0	0	0	0	0	511	618	
1	0	0	0	0	511	618	
2	0	0	0	0	511	618	
3	0	0	0	0	511	615	
4	0	0	0	0	512	618	
5	0	0	0	0	511	619	
6	0	0	0	0	511	619	
7	0	0	0	0	511	623	
8	0	0	0	0	512	619	
9	0	0	0	0	512	619	
10	0	0	0	0	512	619	
11	0	0	0	0	512	615	
12	0	0	0	0	513	619	
13	0	0	0	0	514	619	
14	0	0	0	0	514	619	
15	0	0	0	0	515	623	
0	0	0	0	0	514	620	
1	0	0	0	0	515	620	
2	0	0	0	0	515	619	
3	0	0	0	0	516	615	
4	0	0	0	0	516	620	
5	0	0	0	0	517	619	
6	0	0	0	0	516	620	
7	0	0	0	0	518	623	
8	0	0	0	0	516	619	
9	0	0	0	0	516	620	
10	0	0	0	0	516	620	
11	0	0	0	0	516	615	
12	0	0	0	0	515	620	
13	0	0	0	0	515	620	
14	0	0	0	0	515	620	
15	0	0	0	0	515	622	
0	0	0	0	0	516	619	
1	0	0	0	0	516	619	
2	0	0	0	0	516	619	
3	0	0	0	0	516	616	
4	0	0	0	0	515	619	
5	0	0	0	0	515	619	
6	0	0	0	0	515	619	
7	0	0	0	0	515	623	
8	0	0	0	0	516	619	
9	0	0	0	0	516	620	
10	0	0	0	0	518	619	
11	0	0	0	0	518	615	
12	0	0	0	0	519	619	
13	0	0	0	0	519	619	
14	0	0	0	0	520	620	
15	0	0	0	0	521	623	
0	0	0	0	0	521	619	
1	0	0	0	0	521	619	
2	0	0	0	0	520	619	
3	0	0	0	0	520	615	
4	0	0	0	0	521	619	
5	0	0	0	0	520	619	
6	0	0	0	0	519	619	
7	0	0	0	0	520	623	
8	0	0	0	0	520	619	
9	0	0	0	0	520	619	
10	0	0	0	0	519	620	
11	0	0	0	0	519	615	
12	0	0	0	0	519	620	
13	0	0	0	0	519	619	
14	0	0	0	0	519	619	
15	0	0	0	0	519	624	
0	0	0	0	0	519	620	
1	0	0	0	0	518	620	
2	0	0	0	0	518	620	
3	0	0	0	0	518	616	
4	0	0	0	0	517	620	
5	0	0	0	0	518	621	
6	0	0	0	0	518	620	
7	0	0	0	0	518	623	
8	0	0	0	0	518	620	
9	0	0	0	0	517	620	
10	0	0	0	0	516	620	
11	0	0	0	0	517	616	
12	0	0	0	0	517	620	
13	0	0	0	0	517	620	
14	0	0	0	0	518	621	
15	0	0	0	0	518	623	
0	0	0	0	0	517	620	
1	0	0	0	0	517	620	
2	0	0	0	0	516	620	
3	0	0	0	0	517	615	
4	0	0	0	0	517	619	
5	0	0	0	0	516	619	
6	0	0	0	0	517	619	
7	0	0	0	0	516	622	
8	0	0	0	0	517	618	
9	0	0	0	0	517	619	
10	0	0	0	0	517	619	
11	0	0	0	0	517	614	
12	0	0	0	0	516	618	
13	0	0	0	0	516	617	
14	0	0	0	0	516	617	
15	0	0	0	0	518	622	
0	0	0	0	0	518	618	
1	0	0	0	0	518	617	
2	0	0	0	0	517	617	
3	0	0	0	0	516	614	
4	0	0	0	0	517	617	
5	0	0	0	0	517	617	
6	0	0	0	0	517	617	
7	0	0	0	0	518	621	
8	0	0	0	0	518	617	
9	0	0	0	0	517	618	
10	0	0	0	0	517	617	
11	0	0	0	0	516	614	
12	0	0	0	0	516	617	
13	0	0	0	0	515	618	
14	0	0	0	0	515	618	
15	0	0	0	0	515	621	
0	0	0	0	0	515	618	
1	0	0	0	0	515	618	
2	0	0	0	0	515	618	
3	0	0	0	0	515	615	
4	0	0	0	0	514	617	
5	0	0	0	0	514	618	
6	0	0	0	0	514	619	
7	0	0	0	0	514	622	
8	0	0	0	0	514	619	
9	0	0	0	0	514	619	
10	0	0	0	0	514	619	
11	0	0	0	0	514	615	
12	0	0	0	0	514	619	
13	0	0	0	0	514	619	
14	0	0	0	0	513	620	
15	0	0	0	0	514	623	
0	0	0	0	0	513	620	
1	0	0	0	0	513	620	
2	0	0	0	0	514	620	
3	0	0	0	0	513	616	
4	0	0	0	0	513	620	
5	0	0	0	0	513	620	
6	0	0	0	0	513	621	
7	0	0	0	0	513	624	
8	0	0	0	0	513	620	
9	0	0	0	0	513	620	
10	0	0	0	0	513	619	
11	0	0	0	0	513	615	
12	0	0	0	0	512	620	
13	0	0	0	0	512	619	
14	0	0	0	0	512	619	
15	0	0	0	0	511	623	
0	0	0	0	0	510	619	
1	0	0	0	0	509	619	
2	0	0	0	0	508	619	
3	0	0	0	0	508	614	
4	0	0	0	0	506	618	
5	0	0	0	0	506	618	
6	0	0	0	0	505	618	
7	0	0	0	0	505	621	
8	0	0	0	0	505	618	
9	0	0	0	0	505	617	
10	0	0	0	0	505	617	
11	0	0	0	0	505	614	
12	0	0	0	0	505	619	
13	0	0	0	0	505	618	
14	0	0	0	0	504	619	
15	0	0	0	0	504	622	
0	0	0	0	0	504	618	
1	0	0	0	0	504	619	
2	0	0	0	0	505	619	
3	0	0	0	0	506	615	
4	0	0	0	0	507	619	
5	0	0	0	0	508	619	
6	0	0	0	0	509	619	
7	0	0	0	0	509	623	
8	0	0	0	0	509	619	
9	0	0	0	0	509	619	
10	0	0	0	0	509	619	
11	0	0	0	0	509	615	
12	0	0	0	0	509	619	
13	0	0	0	0	507	618	
14	0	0	0	0	507	619	
15	0	0	0	0	505	622	
0	0	0	0	0	505	619	
1	0	0	0	0	505	618	
2	0	0	0	0	504	618	
3	0	0	0	0	504	615	
4	0	0	0	0	504	617	
5	0	0	0	0	504	617	
6	0	0	0	0	504	617	
7	0	0	0	0	505	621	
8	0	0	0	0	505	617	
9	0	0	0	0	505	617	
10	0	0	0	0	506	617	
11	0	0	0	0	506	614	
12	0	0	0	0	507	617	
13	0	0	0	0	507	618	
14	0	0	0	0	508	618	
15	0	0	0	0	508	622	
0	0	0	0	0	510	619	
1	0	0	0	0	510	619	
2	0	0	0	0	511	619	
3	0	0	0	0	512	615	
4	0	0	0	0	513	619	
5	0	0	0	0	515	619	
6	0	0	0	0	515	620	
7	0	0	0	0	515	623	
8	0	0	0	0	516	620	
9	0	0	0	0	516	619	
10	0	0	0	0	516	619	
11	0	0	0	0	515	615	
12	0	0	0	0	514	619	
13	0	0	0	0	513	619	
14	0	0	0	0	513	619	
15	0	0	0	0	513	622	
0	0	0	0	0	512	619	
1	0	0	0	0	511	619	
2	0	0	0	0	512	619	
3	0	0	0	0	512	615	
4	0	0	0	0	512	619	
5	0	0	0	0	511	619	
6	0	0	0	0	511	619	
7	0	0	0	0	511	623	
8	0	0	0	0	511	620	
9	0	0	0	0	510	620	
10	0	0	0	0	509	619	
11	0	0	0	0	510	615	
12	0	0	0	0	509	620	
13	0	0	0	0	510	620	
14	0	0	0	0	510	620	
15	0	0	0	0	510	623	
0	0	0	0	0	510	620	
1	0	0	0	0	511	619	
2	0	0	0	0	511	619	
3	0	0	0	0	511	615	
4	0	0	0	0	511	619	
5	0	0	0	0	510	619	
6	0	0	0	0	511	619	
7	0	0	0	0	510	622	
8	0	0	0	0	511	618	
9	0	0	0	0	512	618	
10	0	0	0	0	512	617	
11	0	0	0	0	511	613	
12	0	0	0	0	511	618	
13	0	0	0	0	511	617	
14	0	0	0	0	510	617	
15	0	0	0	0	509	621	
0	0	0	0	0	508	617	
1	0	0	0	0	508	618	
2	0	0	0	0	508	618	
3	0	0	0	0	509	614	
4	0	0	0	0	509	617	
5	0	0	0	0	508	618	
6	0	0	0	0	508	618	
7	0	0	0	0	508	622	
8	0	0	0	0	509	619	
9	0	0	0	0	510	619	
10	0	0	0	0	510	619	
11	0	0	0	0	509	615	
12	0	0	0	0	510	620	
13	0	0	0	0	509	619	
14	0	0	0	0	509	619	
15	0	0	0	0	510	623	
0	0	0	0	0	510	619	
1	0	0	0	0	509	619	
2	0	0	0	0	508	619	
3	0	0	0	0	507	616	
4	0	0	0	0	504	620	
5	0	0	0	0	500	619	
6	0	0	0	0	497	620	
7	0	0	0	0	493	623	
8	0	0	0	0	489	620	
9	0	0	0	0	484	620	
10	0	0	0	0	477	619	
11	0	0	0	0	473	616	
12	0	0	0	0	468	620	
13	0	0	0	0	464	620	
14	0	0	0	0	460	620	
15	0	0	0	0	456	624	
0	0	0	0	0	454	620	
1	0	0	0	0	450	620	
2	0	0	0	0	448	619	
3	0	0	0	0	447	616	
4	0	0	0	0	447	620	
5	0	0	0	0	447	620	
6	0	0	0	0	450	620	
7	0	0	0	0	456	623	
8	0	0	0	0	464	620	
9	0	0	0	0	474	620	
10	0	0	0	0	488	620	
11	0	0	0	0	504	615	
12	0	0	0	0	522	619	
13	0	0	0	0	543	619	
14	0	0	0	0	568	619	
15	0	0	0	0	596	623	
0	0	0	0	0	625	620	
1	0	0	0	0	655	620	
2	0	0	0	0	682	619	
3	0	0	0	0	707	616	
4	0	0	0	0	732	620	
5	0	0	0	0	759	620	
6	0	0	0	0	791	619	
7	0	0	0	0	825	623	
8	0	0	0	0	855	620	
9	0	0	0	0	887	619	
10	0	0	0	0	918	620	
11	0	0	0	0	944	616	
12	0	0	0	0	966	619	
13	0	0	0	0	983	619	
14	0	0	0	0	992	620	
15	0	0	0	0	990	623	
0	0	0	0	0	979	619	
1	0	0	0	0	960	618	
2	0	0	0	0	929	619	
3	0	0	0	0	889	615	
4	0	0	0	0	845	619	
5	0	0	0	0	799	619	
6	0	0	0	0	751	620	
7	0	0	0	0	706	623	
8	0	0	0	0	665	620	
9	0	0	0	0	630	620	
10	0	0	0	0	599	619	
11	0	0	0	0	575	615	
12	0	0	0	0	558	619	
13	0	0	0	0	545	619	
14	0	0	0	0	535	619	
15	0	0	0	0	526	622	
0	0	0	0	0	518	619	
1	0	0	0	0	510	618	
2	0	0	0	0	503	619	
3	0	0	0	0	496	615	
4	0	0	0	0	489	618	
5	0	0	0	0	483	618	
6	0	0	0	0	479	618	
7	0	0	0	0	473	622	
8	0	0	0	0	468	619	
9	0	0	0	0	462	619	
10	0	0	0	0	455	619	
11	0	0	0	0	450	615	
12	0	0	0	0	444	618	
13	0	0	0	0	438	619	
14	0	0	0	0	433	620	
15	0	0	0	0	429	623	
0	0	0	0	0	425	619	
1	0	0	0	0	422	619	
2	0	0	0	0	419	619	
3	0	0	0	0	417	615	
4	0	0	0	0	416	620	
5	0	0	0	0	414	620	
6	0	0	0	0	412	621	
7	0	0	0	0	411	624	
8	0	0	0	0	409	621	
9	0	0	0	0	409	620	
10	0	0	0	0	408	619	
11	0	0	0	0	408	616	
12	0	0	0	0	409	620	
13	0	0	0	0	408	620	
14	0	0	0	0	408	620	
15	0	0	0	0	408	623	
0	0	0	0	0	409	619	
1	0	0	0	0	409	620	
2	0	0	0	0	409	619	
3	0	0	0	0	410	615	
4	0	0	0	0	411	618	
5	0	0	0	0	411	618	
6	0	0	0	0	412	618	
7	0	0	0	0	412	622	
8	0	0	0	0	413	618	
9	0	0	0	0	414	618	
10	0	0	0	0	415	617	
11	0	0	0	0	416	613	
12	0	0	0	0	417	617	
13	0	0	0	0	417	618	
14	0	0	0	0	417	618	
15	0	0	0	0	418	621	
0	0	0	0	0	419	617	
1	0	0	0	0	419	617	
2	0	0	0	0	420	617	
3	0	0	0	0	421	613	
4	0	0	0	0	421	617	
5	0	0	0	0	422	617	
6	0	0	0	0	423	617	
7	0	0	0	0	425	621	
8	0	0	0	0	426	617	
9	0	0	0	0	428	617	
10	0	0	0	0	429	618	
11	0	0	0	0	430	614	
12	0	0	0	0	431	618	
13	0	0	0	0	432	618	
14	0	0	0	0	433	618	
15	0	0	0	0	435	622	
0	0	0	0	0	436	618	
1	0	0	0	0	437	619	
2	0	0	0	0	438	618	
3	0	0	0	0	438	615	
4	0	0	0	0	438	619	
5	0	0	0	0	440	619	
6	0	0	0	0	441	620	
7	0	0	0	0	441	623	
8	0	0	0	0	443	619	
9	0	0	0	0	443	619	
10	0	0	0	0	443	619	
11	0	0	0	0	444	616	
12	0	0	0	0	443	620	
13	0	0	0	0	443	620	
14	0	0	0	0	444	620	
15	0	0	0	0	446	623	
0	0	0	0	0	447	620	
1	0	0	0	0	447	620	
2	0	0	0	0	448	620	
3	0	0	0	0	449	615	
4	0	0	0	0	449	620	
5	0	0	0	0	451	620	
6	0	0	0	0	451	621	
7	0	0	0	0	451	624	
8	0	0	0	0	452	620	
9	0	0	0	0	452	620	
10	0	0	0	0	453	620	
11	0	0	0	0	453	615	
12	0	0	0	0	453	620	
13	0	0	0	0	453	620	
14	0	0	0	0	453	619	
15	0	0	0	0	453	623	
0	0	0	0	0	453	620	
1	0	0	0	0	453	619	
2	0	0	0	0	454	619	
3	0	0	0	0	455	615	
4	0	0	0	0	455	618	
5	0	0	0	0	456	618	
6	0	0	0	0	457	618	
7	0	0	0	0	459	622	
8	0	0	0	0	460	618	
9	0	0	0	0	461	617	
10	0	0	0	0	462	617	
11	0	0	0	0	463	614	
12	0	0	0	0	464	617	
13	0	0	0	0	465	617	
14	0	0	0	0	467	617	
15	0	0	0	0	467	621	
0	0	0	0	0	469	617	
1	0	0	0	0	470	617	
2	0	0	0	0	470	617	
3	0	0	0	0	471	614	
4	0	0	0	0	471	619	
5	0	0	0	0	472	619	
6	0	0	0	0	473	619	
7	0	0	0	0	474	623	
8	0	0	0	0	476	619	
9	0	0	0	0	477	619	
10	0	0	0	0	478	619	
11	0	0	0	0	479	615	
12	0	0	0	0	479	619	
13	0	0	0	0	480	620	
14	0	0	0	0	481	620	
15	0	0	0	0	482	623	
0	0	0	0	0	484	620	
1	0	0	0	0	484	620	
2	0	0	0	0	485	619	
3	0	0	0	0	486	615	
4	0	0	0	0	486	620	
5	0	0	0	0	487	620	
6	0	0	0	0	487	620	
7	0	0	0	0	488	623	
8	0	0	0	0	489	619	
9	0	0	0	0	491	619	
10	0	0	0	0	492	619	
11	0	0	0	0	492	615	
12	0	0	0	0	493	619	
13	0	0	0	0	494	619	
14	0	0	0	0	495	619	
15	0	0	0	0	497	623	
0	0	0	0	0	498	619	
1	0	0	0	0	500	619	
2	0	0	0	0	501	619	
3	0	0	0	0	501	615	
4	0	0	0	0	502	619	
5	0	0	0	0	503	619	
6	0	0	0	0	504	619	
7	0	0	0	0	505	622	
8	0	0	0	0	506	619	
9	0	0	0	0	507	619	
10	0	0	0	0	508	619	
11	0	0	0	0	510	615	
12	0	0	0	0	510	619	
13	0	0	0	0	512	619	
14	0	0	0	0	513	619	
15	0	0	0	0	515	622	
0	0	0	0	0	517	619	
1	0	0	0	0	518	619	
2	0	0	0	0	520	619	
3	0	0	0	0	522	615	
4	0	0	0	0	523	619	
5	0	0	0	0	525	619	
6	0	0	0	0	526	619	
7	0	0	0	0	526	622	
8	0	0	0	0	527	619	
9	0	0	0	0	527	619	
10	0	0	0	0	528	619	
11	0	0	0	0	529	615	
12	0	0	0	0	530	618	
13	0	0	0	0	531	618	
14	0	0	0	0	532	618	
15	0	0	0	0	534	622	
0	0	0	0	0	535	619	
1	0	0	0	0	535	618	
2	0	0	0	0	536	618	
3	0	0	0	0	536	614	
4	0	0	0	0	536	618	
5	0	0	0	0	536	618	
6	0	0	0	0	537	618	
7	0	0	0	0	537	622	
8	0	0	0	0	538	618	
9	0	0	0	0	538	619	
10	0	0	0	0	538	618	
11	0	0	0	0	539	614	
12	0	0	0	0	538	619	
13	0	0	0	0	538	619	
14	0	0	0	0	539	619	
15	0	0	0	0	539	622	
0	0	0	0	0	539	619	
1	0	0	0	0	537	619	
2	0	0	0	0	536	619	
3	0	0	0	0	535	615	
4	0	0	0	0	533	619	
5	0	0	0	0	531	620	
6	0	0	0	0	530	620	
7	0	0	0	0	528	623	
8	0	0	0	0	527	619	
9	0	0	0	0	526	619	
10	0	0	0	0	525	619	
11	0	0	0	0	523	615	
12	0	0	0	0	521	619	
13	0	0	0	0	519	620	
14	0	0	0	0	516	619	
15	0	0	0	0	515	622	
0	0	0	0	0	514	619	
1	0	0	0	0	513	619	
2	0	0	0	0	511	619	
3	0	0	0	0	510	615	
4	0	0	0	0	508	619	
5	0	0	0	0	506	620	
6	0	0	0	0	505	619	
7	0	0	0	0	503	623	
8	0	0	0	0	501	620	
9	0	0	0	0	499	620	
10	0	0	0	0	498	619	
11	0	0	0	0	497	616	
12	0	0	0	0	496	620	
13	0	0	0	0	494	620	
14	0	0	0	0	491	621	
15	0	0	0	0	489	624	
0	0	0	0	0	488	620	
1	0	0	0	0	486	621	
2	0	0	0	0	484	621	
3	0	0	0	0	483	617	
4	0	0	0	0	482	621	
5	0	0	0	0	482	621	
6	0	0	0	0	481	621	
7	0	0	0	0	481	625	
8	0	0	0	0	480	621	
9	0	0	0	0	478	621	
10	0	0	0	0	478	621	
11	0	0	0	0	478	617	
12	0	0	0	0	477	621	
13	0	0	0	0	477	621	
14	0	0	0	0	477	621	
15	0	0	0	0	477	625	
0	0	0	0	0	478	621	
1	0	0	0	0	478	621	
2	0	0	0	0	478	622	
3	0	0	0	0	479	617	
4	0	0	0	0	479	622	
5	0	0	0	0	480	622	
6	0	0	0	0	481	621	
7	0	0	0	0	480	624	
8	0	0	0	0	480	620	
9	0	0	0	0	479	621	
10	0	0	0	0	479	621	
11	0	0	0	0	479	616	
12	0	0	0	0	479	620	
13	0	0	0	0	479	620	
14	0	0	0	0	480	620	
15	0	0	0	0	480	623	
0	0	0	0	0	480	619	
1	0	0	0	0	480	619	
2	0	0	0	0	480	618	
3	0	0	0	0	480	614	
4	0	0	0	0	479	618	
5	0	0	0	0	479	618	
6	0	0	0	0	480	618	
7	0	0	0	0	480	621	
8	0	0	0	0	480	617	
9	0	0	0	0	481	618	
10	0	0	0	0	482	617	
11	0	0	0	0	484	613	
12	0	0	0	0	485	617	
13	0	0	0	0	486	617	
14	0	0	0	0	487	618	
15	0	0	0	0	487	622	
0	0	0	0	0	487	618	
1	0	0	0	0	487	618	
2	0	0	0	0	487	618	
3	0	0	0	0	486	614	
4	0	0	0	0	486	618	
5	0	0	0	0	486	619	
6	0	0	0	0	486	619	
7	0	0	0	0	486	623	
8	0	0	0	0	486	618	
9	0	0	0	0	486	619	
10	0	0	0	0	487	619	
11	0	0	0	0	487	615	
12	0	0	0	0	487	618	
13	0	0	0	0	488	619	
14	0	0	0	0	490	618	
15	0	0	0	0	491	621	
0	0	0	0	0	492	617	
1	0	0	0	0	492	618	
2	0	0	0	0	492	618	
3	0	0	0	0	492	614	
4	0	0	0	0	492	618	
5	0	0	0	0	492	618	
6	0	0	0	0	493	618	
7	0	0	0	0	493	621	
8	0	0	0	0	493	617	
9	0	0	0	0	493	617	
10	0	0	0	0	494	617	
11	0	0	0	0	494	613	
12	0	0	0	0	495	617	
13	0	0	0	0	495	617	
14	0	0	0	0	495	618	
15	0	0	0	0	497	621	
0	0	0	0	0	498	617	
1	0	0	0	0	499	617	
2	0	0	0	0	500	617	
3	0	0	0	0	502	613	
4	0	0	0	0	502	617	
5	0	0	0	0	503	617	
6	0	0	0	0	504	617	
7	0	0	0	0	504	621	
8	0	0	0	0	504	617	
9	0	0	0	0	504	617	
10	0	0	0	0	505	617	
11	0	0	0	0	505	612	
12	0	0	0	0	506	616	
13	0	0	0	0	507	617	
14	0	0	0	0	507	616	
15	0	0	0	0	507	620	
0	0	0	0	0	508	616	
1	0	0	0	0	508	616	
2	0	0	0	0	507	616	
3	0	0	0	0	507	612	
4	0	0	0	0	508	615	
5	0	0	0	0	508	616	
6	0	0	0	0	508	616	
7	0	0	0	0	508	621	
8	0	0	0	0	509	617	
9	0	0	0	0	509	617	
10	0	0	0	0	509	617	
11	0	0	0	0	508	614	
12	0	0	0	0	509	617	
13	0	0	0	0	510	618	
14	0	0	0	0	511	619	
15	0	0	0	0	511	622	
0	0	0	0	0	512	619	
1	0	0	0	0	513	619	
2	0	0	0	0	512	619	
3	0	0	0	0	512	616	
4	0	0	0	0	513	620	
5	0	0	0	0	514	620	
6	0	0	0	0	515	621	
7	0	0	0	0	515	624	
8	0	0	0	0	516	620	
9	0	0	0	0	516	620	
10	0	0	0	0	516	620	
11	0	0	0	0	515	617	
12	0	0	0	0	515	621	
13	0	0	0	0	515	621	
14	0	0	0	0	515	621	
15	0	0	0	0	516	624	
0	0	0	0	0	515	620	
1	0	0	0	0	515	620	
2	0	0	0	0	515	620	
3	0	0	0	0	514	616	
4	0	0	0	0	513	621	
5	0	0	0	0	512	620	
6	0	0	0	0	512	620	
7	0	0	0	0	513	624	
8	0	0	0	0	514	621	
9	0	0	0	0	515	619	
10	0	0	0	0	516	620	
11	0	0	0	0	518	616	
12	0	0	0	0	518	620	
13	0	0	0	0	518	621	
14	0	0	0	0	518	621	
15	0	0	0	0	518	624	
0	0	0	0	0	518	620	
1	0	0	0	0	517	620	
2	0	0	0	0	516	620	
3	0	0	0	0	515	616	
4	0	0	0	0	515	620	
5	0	0	0	0	515	620	
6	0	0	0	0	515	620	
7	0	0	0	0	515	623	
8	0	0	0	0	516	620	
9	0	0	0	0	517	619	
10	0	0	0	0	519	619	
11	0	0	0	0	519	615	
12	0	0	0	0	519	619	
13	0	0	0	0	520	619	
14	0	0	0	0	521	620	
15	0	0	0	0	521	623	
0	0	0	0	0	521	619	
1	0	0	0	0	522	618	
2	0	0	0	0	523	619	
3	0	0	0	0	523	615	
4	0	0	0	0	522	619	
5	0	0	0	0	522	618	
6	0	0	0	0	522	619	
7	0	0	0	0	521	622	
8	0	0	0	0	521	619	
9	0	0	0	0	521	620	
10	0	0	0	0	521	620	
11	0	0	0	0	521	615	
12	0	0	0	0	521	620	
13	0	0	0	0	521	620	
14	0	0	0	0	522	620	
15	0	0	0	0	522	624	
0	0	0	0	0	522	620	
1	0	0	0	0	523	620	
2	0	0	0	0	523	620	
3	0	0	0	0	522	616	
4	0	0	0	0	522	620	
5	0	0	0	0	523	621	
6	0	0	0	0	522	620	
7	0	0	0	0	522	625	
8	0	0	0	0	522	621	
9	0	0	0	0	521	622	
10	0	0	0	0	523	621	
11	0	0	0	0	523	617	
12	0	0	0	0	523	621	
13	0	0	0	0	522	621	
14	0	0	0	0	522	621	
15	0	0	0	0	523	624	
0	0	0	0	0	524	621	
1	0	0	0	0	524	621	
2	0	0	0	0	524	621	
3	0	0	0	0	524	616	
4	0	0	0	0	525	621	
5	0	0	0	0	524	620	
6	0	0	0	0	524	620	
7	0	0	0	0	524	623	
8	0	0	0	0	524	619	
9	0	0	0	0	523	619	
10	0	0	0	0	522	619	
11	0	0	0	0	521	615	
12	0	0	0	0	521	618	
13	0	0	0	0	522	618	
14	0	0	0	0	522	618	
15	0	0	0	0	522	621	
0	0	0	0	0	523	617	
1	0	0	0	0	523	618	
2	0	0	0	0	522	618	
3	0	0	0	0	521	614	
4	0	0	0	0	520	617	
5	0	0	0	0	520	618	
6	0	0	0	0	519	618	
7	0	0	0	0	518	621	
8	0	0	0	0	519	617	
9	0	0	0	0	518	617	
10	0	0	0	0	517	616	
11	0	0	0	0	517	613	
12	0	0	0	0	517	616	
13	0	0	0	0	518	616	
14	0	0	0	0	518	616	
15	0	0	0	0	517	619	
0	0	0	0	0	517	615	
1	0	0	0	0	516	616	
2	0	0	0	0	516	615	
3	0	0	0	0	516	613	
4	0	0	0	0	516	616	
5	0	0	0	0	516	616	
6	0	0	0	0	515	617	
7	0	0	0	0	515	621	
8	0	0	0	0	514	617	
9	0	0	0	0	513	617	
10	0	0	0	0	512	617	
11	0	0	0	0	512	614	
12	0	0	0	0	512	618	
13	0	0	0	0	511	618	
14	0	0	0	0	512	618	
15	0	0	0	0	512	622	
0	0	0	0	0	512	618	
1	0	0	0	0	514	618	
2	0	0	0	0	513	618	
3	0	0	0	0	513	614	
4	0	0	0	0	513	618	
5	0	0	0	0	513	617	
6	0	0	0	0	512	618	
7	0	0	0	0	513	622	
8	0	0	0	0	512	618	
9	0	0	0	0	511	618	
10	0	0	0	0	512	618	
11	0	0	0	0	512	614	
12	0	0	0	0	512	619	
13	0	0	0	0	511	619	
14	0	0	0	0	511	619	
15	0	0	0	0	511	622	
0	0	0	0	0	510	618	
1	0	0	0	0	510	619	
2	0	0	0	0	510	619	
3	0	0	0	0	510	614	
4	0	0	0	0	511	618	
5	0	0	0	0	511	618	
6	0	0	0	0	511	618	
7	0	0	0	0	511	621	
8	0	0	0	0	511	618	
9	0	0	0	0	512	618	
10	0	0	0	0	512	618	
11	0	0	0	0	513	614	
12	0	0	0	0	514	618	
13	0	0	0	0	515	617	
14	0	0	0	0	516	617	
15	0	0	0	0	517	621	
0	0	0	0	0	518	618	
1	0	0	0	0	519	617	
2	0	0	0	0	520	617	
3	0	0	0	0	522	613	
4	0	0	0	0	523	617	
5	0	0	0	0	523	618	
6	0	0	0	0	523	617	
7	0	0	0	0	523	621	
8	0	0	0	0	523	617	
9	0	0	0	0	522	618	
10	0	0	0	0	521	618	
11	0	0	0	0	519	615	
12	0	0	0	0	518	618	
13	0	0	0	0	518	619	
14	0	0	0	0	518	619	
15	0	0	0	0	517	622	
0	0	0	0	0	516	619	
1	0	0	0	0	517	620	
2	0	0	0	0	518	620	
3	0	0	0	0	518	616	
4	0	0	0	0	518	620	
5	0	0	0	0	519	621	
6	0	0	0	0	519	621	
7	0	0	0	0	518	624	
8	0	0	0	0	517	621	
9	0	0	0	0	515	621	
10	0	0	0	0	516	620	
11	0	0	0	0	517	616	
12	0	0	0	0	516	620	
13	0	0	0	0	516	620	
14	0	0	0	0	515	620	
15	0	0	0	0	516	623	
0	0	0	0	0	515	619	
1	0	0	0	0	516	619	
2	0	0	0	0	517	619	
3	0	0	0	0	518	615	
4	0	0	0	0	518	619	
5	0	0	0	0	518	618	
6	0	0	0	0	518	619	
7	0	0	0	0	518	622	
8	0	0	0	0	518	619	
9	0	0	0	0	517	619	
10	0	0	0	0	516	619	
11	0	0	0	0	515	615	
12	0	0	0	0	517	619	
13	0	0	0	0	516	619	
14	0	0	0	0	516	619	
15	0	0	0	0	515	623	
0	0	0	0	0	516	619	
1	0	0	0	0	517	619	
2	0	0	0	0	517	619	
3	0	0	0	0	516	615	
4	0	0	0	0	516	619	
5	0	0	0	0	515	618	
6	0	0	0	0	515	618	
7	0	0	0	0	514	622	
8	0	0	0	0	513	618	
9	0	0	0	0	512	619	
10	0	0	0	0	512	618	
11	0	0	0	0	512	614	
12	0	0	0	0	512	618	
13	0	0	0	0	511	618	
14	0	0	0	0	511	618	
15	0	0	0	0	510	621	
0	0	0	0	0	508	618	
1	0	0	0	0	505	619	
2	0	0	0	0	500	618	
3	0	0	0	0	495	615	
4	0	0	0	0	490	620	
5	0	0	0	0	484	620	
6	0	0	0	0	478	620	
7	0	0	0	0	472	624	
8	0	0	0	0	467	620	
9	0	0	0	0	462	621	
10	0	0	0	0	458	620	
11	0	0	0	0	454	616	
12	0	0	0	0	450	620	
13	0	0	0	0	448	620	
14	0	0	0	0	445	621	
15	0	0	0	0	443	624	
0	0	0	0	0	442	620	
1	0	0	0	0	443	620	
2	0	0	0	0	444	620	
3	0	0	0	0	448	616	
4	0	0	0	0	455	620	
5	0	0	0	0	465	620	
6	0	0	0	0	479	620	
7	0	0	0	0	494	623	
8	0	0	0	0	512	620	
9	0	0	0	0	531	620	
10	0	0	0	0	552	620	
11	0	0	0	0	579	616	
12	0	0	0	0	609	620	
13	0	0	0	0	640	620	
14	0	0	0	0	672	620	
15	0	0	0	0	700	623	
0	0	0	0	0	728	620	
1	0	0	0	0	754	620	
2	0	0	0	0	785	620	
3	0	0	0	0	820	616	
4	0	0	0	0	854	620	
5	0	0	0	0	888	620	
6	0	0	0	0	922	620	
7	0	0	0	0	951	623	
8	0	0	0	0	976	620	
9	0	0	0	0	997	619	
10	0	0	0	0	1012	619	
11	0	0	0	0	1017	615	
12	0	0	0	0	1011	619	
13	0	0	0	0	998	619	
14	0	0	0	0	973	619	
15	0	0	0	0	937	623	
0	0	0	0	0	891	619	
1	0	0	0	0	843	618	
2	0	0	0	0	793	618	
3	0	0	0	0	743	613	
4	0	0	0	0	696	617	
5	0	0	0	0	653	618	
6	0	0	0	0	618	618	
7	0	0	0	0	590	621	
8	0	0	0	0	568	617	
9	0	0	0	0	552	617	
10	0	0	0	0	540	617	
11	0	0	0	0	529	613	
12	0	0	0	0	520	617	
13	0	0	0	0	512	617	
14	0	0	0	0	504	617	
15	0	0	0	0	497	621	
0	0	0	0	0	490	617	
1	0	0	0	0	483	617	
2	0	0	0	0	478	617	
3	0	0	0	0	473	614	
4	0	0	0	0	468	618	
5	0	0	0	0	463	619	
6	0	0	0	0	457	619	
7	0	0	0	0	450	622	
8	0	0	0	0	444	619	
9	0	0	0	0	437	619	
10	0	0	0	0	432	619	
11	0	0	0	0	427	615	
12	0	0	0	0	422	619	
13	0	0	0	0	416	619	
14	0	0	0	0	413	620	
15	0	0	0	0	409	623	
0	0	0	0	0	408	619	
1	0	0	0	0	405	619	
2	0	0	0	0	404	619	
3	0	0	0	0	403	615	
4	0	0	0	0	401	618	
5	0	0	0	0	400	619	
6	0	0	0	0	400	618	
7	0	0	0	0	400	622	
8	0	0	0	0	400	618	
9	0	0	0	0	400	619	
10	0	0	0	0	400	620	
11	0	0	0	0	402	616	
12	0	0	0	0	403	620	
13	0	0	0	0	403	620	
14	0	0	0	0	403	621	
15	0	0	0	0	403	624	
0	0	0	0	0	403	621	
1	0	0	0	0	403	621	
2	0	0	0	0	403	621	
3	0	0	0	0	404	617	
4	0	0	0	0	404	621	
5	0	0	0	0	406	621	
6	0	0	0	0	407	622	
7	0	0	0	0	408	624	
8	0	0	0	0	408	621	
9	0	0	0	0	408	620	
10	0	0	0	0	409	620	
11	0	0	0	0	410	615	
12	0	0	0	0	410	619	
13	0	0	0	0	412	620	
14	0	0	0	0	412	620	
15	0	0	0	0	412	623	
0	0	0	0	0	413	619	
1	0	0	0	0	413	619	
2	0	0	0	0	413	619	
3	0	0	0	0	414	615	
4	0	0	0	0	415	619	
5	0	0	0	0	417	619	
6	0	0	0	0	417	619	
7	0	0	0	0	417	622	
8	0	0	0	0	417	619	
9	0	0	0	0	418	619	
10	0	0	0	0	418	619	
11	0	0	0	0	419	615	
12	0	0	0	0	418	619	
13	0	0	0	0	419	619	
14	0	0	0	0	420	619	
15	0	0	0	0	420	622	
0	0	0	0	0	420	618	
1	0	0	0	0	420	619	
2	0	0	0	0	420	618	
3	0	0	0	0	422	614	
4	0	0	0	0	422	618	
5	0	0	0	0	423	618	
6	0	0	0	0	424	619	
7	0	0	0	0	425	622	
8	0	0	0	0	426	619	
9	0	0	0	0	427	619	
10	0	0	0	0	428	619	
11	0	0	0	0	429	615	
12	0	0	0	0	431	618	
13	0	0	0	0	431	619	
14	0	0	0	0	432	619	
15	0	0	0	0	434	622	
0	0	0	0	0	433	619	
1	0	0	0	0	433	619	
2	0	0	0	0	434	619	
3	0	0	0	0	434	615	
4	0	0	0	0	434	620	
5	0	0	0	0	433	619	
6	0	0	0	0	433	620	
7	0	0	0	0	433	623	
8	0	0	0	0	433	620	
9	0	0	0	0	433	620	
10	0	0	0	0	433	619	
11	0	0	0	0	435	615	
12	0	0	0	0	435	619	
13	0	0	0	0	437	619	
14	0	0	0	0	438	619	
15	0	0	0	0	439	623	
0	0	0	0	0	439	618	
1	0	0	0	0	439	619	
2	0	0	0	0	440	618	
3	0	0	0	0	441	614	
4	0	0	0	0	442	618	
5	0	0	0	0	442	617	
6	0	0	0	0	442	617	
7	0	0	0	0	442	621	
8	0	0	0	0	444	617	
9	0	0	0	0	444	617	
10	0	0	0	0	445	617	
11	0	0	0	0	445	614	
12	0	0	0	0	446	617	
13	0	0	0	0	446	618	
14	0	0	0	0	447	618	
15	0	0	0	0	448	621	
0	0	0	0	0	448	618	
1	0	0	0	0	448	618	
2	0	0	0	0	449	618	
3	0	0	0	0	450	614	
4	0	0	0	0	451	618	
5	0	0	0	0	452	618	
6	0	0	0	0	453	618	
7	0	0	0	0	453	622	
8	0	0	0	0	453	618	
9	0	0	0	0	454	619	
10	0	0	0	0	454	618	
11	0	0	0	0	455	614	
12	0	0	0	0	455	618	
13	0	0	0	0	456	618	
14	0	0	0	0	457	618	
15	0	0	0	0	459	622	
0	0	0	0	0	460	618	
1	0	0	0	0	461	618	
2	0	0	0	0	462	618	
3	0	0	0	0	463	614	
4	0	0	0	0	464	617	
5	0	0	0	0	465	617	
6	0	0	0	0	467	617	
7	0	0	0	0	468	622	
8	0	0	0	0	470	617	
9	0	0	0	0	471	618	
10	0	0	0	0	473	618	
11	0	0	0	0	475	614	
12	0	0	0	0	476	619	
13	0	0	0	0	478	619	
14	0	0	0	0	479	619	
15	0	0	0	0	480	622	
0	0	0	0	0	482	619	
1	0	0	0	0	482	619	
2	0	0	0	0	483	619	
3	0	0	0	0	484	615	
4	0	0	0	0	486	619	
5	0	0	0	0	487	619	
6	0	0	0	0	488	619	
7	0	0	0	0	491	623	
8	0	0	0	0	492	619	
9	0	0	0	0	494	620	
10	0	0	0	0	496	619	
11	0	0	0	0	497	615	
12	0	0	0	0	499	619	
13	0	0	0	0	501	620	
14	0	0	0	0	504	620	
15	0	0	0	0	505	623	
0	0	0	0	0	507	619	
1	0	0	0	0	508	619	
2	0	0	0	0	509	620	
3	0	0	0	0	511	615	
4	0	0	0	0	512	620	
5	0	0	0	0	513	619	
6	0	0	0	0	514	620	
7	0	0	0	0	515	622	
8	0	0	0	0	515	619	
9	0	0	0	0	515	620	
10	0	0	0	0	516	619	
11	0	0	0	0	517	615	
12	0	0	0	0	518	620	
13	0	0	0	0	518	620	
14	0	0	0	0	519	620	
15	0	0	0	0	520	624	
0	0	0	0	0	520	620	
1	0	0	0	0	521	620	
2	0	0	0	0	521	621	
3	0	0	0	0	524	616	
4	0	0	0	0	525	620	
5	0	0	0	0	526	620	
6	0	0	0	0	527	621	
7	0	0	0	0	527	624	
8	0	0	0	0	527	621	
9	0	0	0	0	527	621	
10	0	0	0	0	527	620	
11	0	0	0	0	526	617	
12	0	0	0	0	526	620	
13	0	0	0	0	525	621	
14	0	0	0	0	524	621	
15	0	0	0	0	524	625	
0	0	0	0	0	524	622	
1	0	0	0	0	524	621	
2	0	0	0	0	523	621	
3	0	0	0	0	521	617	
4	0	0	0	0	521	621	
5	0	0	0	0	519	621	
6	0	0	0	0	518	621	
7	0	0	0	0	516	624	
8	0	0	0	0	514	620	
9	0	0	0	0	512	620	
10	0	0	0	0	510	620	
11	0	0	0	0	508	616	
12	0	0	0	0	506	620	
13	0	0	0	0	504	620	
14	0	0	0	0	502	620	
15	0	0	0	0	499	624	
0	0	0	0	0	496	620	
1	0	0	0	0	495	620	
2	0	0	0	0	494	620	
3	0	0	0	0	492	617	
4	0	0	0	0	490	621	
5	0	0	0	0	487	621	
6	0	0	0	0	486	621	
7	0	0	0	0	484	625	
8	0	0	0	0	483	621	
9	0	0	0	0	481	621	
10	0	0	0	0	480	621	
11	0	0	0	0	480	617	
12	0	0	0	0	478	621	
13	0	0	0	0	476	621	
14	0	0	0	0	475	621	
15	0	0	0	0	474	624	
0	0	0	0	0	474	621	
1	0	0	0	0	472	620	
2	0	0	0	0	472	620	
3	0	0	0	0	472	616	
4	0	0	0	0	471	620	
5	0	0	0	0	468	619	
6	0	0	0	0	466	620	
7	0	0	0	0	465	624	
8	0	0	0	0	464	620	
9	0	0	0	0	463	620	
10	0	0	0	0	463	620	
11	0	0	0	0	463	616	
12	0	0	0	0	463	620	
13	0	0	0	0	462	620	
14	0	0	0	0	462	620	
15	0	0	0	0	461	624	
0	0	0	0	0	460	620	
1	0	0	0	0	461	620	
2	0	0	0	0	461	620	
3	0	0	0	0	461	615	
4	0	0	0	0	461	620	
5	0	0	0	0	461	620	
6	0	0	0	0	461	620	
7	0	0	0	0	461	623	
8	0	0	0	0	460	618	
9	0	0	0	0	459	618	
10	0	0	0	0	460	618	
11	0	0	0	0	460	613	
12	0	0	0	0	459	617	
13	0	0	0	0	460	617	
14	0	0	0	0	460	617	
15	0	0	0	0	460	620	
0	0	0	0	0	460	616	
1	0	0	0	0	460	615	
2	0	0	0	0	459	616	
3	0	0	0	0	460	612	
4	0	0	0	0	460	615	
5	0	0	0	0	461	616	
6	0	0	0	0	462	616	
7	0	0	0	0	462	620	
8	0	0	0	0	463	616	
9	0	0	0	0	464	615	
10	0	0	0	0	465	615	
11	0	0	0	0	465	612	
12	0	0	0	0	465	616	
13	0	0	0	0	465	616	
14	0	0	0	0	466	616	
15	0	0	0	0	467	620	
0	0	0	0	0	468	616	
1	0	0	0	0	468	616	
2	0	0	0	0	469	615	
3	0	0	0	0	469	612	
4	0	0	0	0	470	616	
5	0	0	0	0	471	616	
6	0	0	0	0	472	616	
7	0	0	0	0	473	620	
8	0	0	0	0	473	616	
9	0	0	0	0	472	616	
10	0	0	0	0	473	616	
11	0	0	0	0	473	611	
12	0	0	0	0	473	615	
13	0	0	0	0	474	616	
14	0	0	0	0	475	616	
15	0	0	0	0	476	619	
0	0	0	0	0	476	616	
1	0	0	0	0	477	616	
2	0	0	0	0	478	616	
3	0	0	0	0	479	613	
4	0	0	0	0	479	617	
5	0	0	0	0	480	617	
6	0	0	0	0	480	618	
7	0	0	0	0	480	622	
8	0	0	0	0	481	619	
9	0	0	0	0	481	619	
10	0	0	0	0	481	618	
11	0	0	0	0	482	615	
12	0	0	0	0	483	619	
13	0	0	0	0	484	619	
14	0	0	0	0	485	619	
15	0	0	0	0	486	622	
0	0	0	0	0	487	618	
1	0	0	0	0	488	618	
2	0	0	0	0	489	618	
3	0	0	0	0	489	614	
4	0	0	0	0	490	617	
5	0	0	0	0	490	618	
6	0	0	0	0	489	618	
7	0	0	0	0	489	622	
8	0	0	0	0	489	618	
9	0	0	0	0	490	618	
10	0	0	0	0	491	618	
11	0	0	0	0	491	615	
12	0	0	0	0	492	619	
13	0	0	0	0	493	619	
14	0	0	0	0	494	619	
15	0	0	0	0	494	622	
0	0	0	0	0	494	619	
1	0	0	0	0	496	619	
2	0	0	0	0	497	619	
3	0	0	0	0	497	615	
4	0	0	0	0	499	619	
5	0	0	0	0	501	618	
6	0	0	0	0	502	618	
7	0	0	0	0	501	621	
8	0	0	0	0	501	618	
9	0	0	0	0	501	618	
10	0	0	0	0	502	618	
11	0	0	0	0	503	614	
12	0	0	0	0	503	617	
13	0	0	0	0	503	618	
14	0	0	0	0	503	618	
15	0	0	0	0	503	622	
0	0	0	0	0	503	619	
1	0	0	0	0	502	618	
2	0	0	0	0	502	619	
3	0	0	0	0	502	616	
4	0	0	0	0	503	620	
5	0	0	0	0	504	621	
6	0	0	0	0	504	621	
7	0	0	0	0	504	625	
8	0	0	0	0	503	622	
9	0	0	0	0	504	621	
10	0	0	0	0	504	622	
11	0	0	0	0	503	618	
12	0	0	0	0	504	622	
13	0	0	0	0	504	621	
14	0	0	0	0	504	622	
15	0	0	0	0	505	625	
0	0	0	0	0	505	622	
1	0	0	0	0	505	621	
2	0	0	0	0	505	621	
3	0	0	0	0	505	617	
4	0	0	0	0	505	621	
5	0	0	0	0	505	622	
6	0	0	0	0	505	622	
7	0	0	0	0	505	625	
8	0	0	0	0	505	622	
9	0	0	0	0	504	621	
10	0	0	0	0	505	622	
11	0	0	0	0	506	617	
12	0	0	0	0	506	622	
13	0	0	0	0	505	622	
14	0	0	0	0	505	623	
15	0	0	0	0	505	626	
0	0	0	0	0	505	623	
1	0	0	0	0	505	622	
2	0	0	0	0	506	621	
3	0	0	0	0	506	618	
4	0	0	0	0	506	622	
5	0	0	0	0	505	621	
6	0	0	0	0	506	620	
7	0	0	0	0	506	624	
8	0	0	0	0	507	620	
9	0	0	0	0	506	620	
10	0	0	0	0	507	619	
11	0	0	0	0	507	615	
12	0	0	0	0	507	618	
13	0	0	0	0	508	618	
14	0	0	0	0	507	618	
15	0	0	0	0	506	621	
0	0	0	0	0	507	618	
1	0	0	0	0	507	617	
2	0	0	0	0	507	617	
3	0	0	0	0	508	614	
4	0	0	0	0	508	618	
5	0	0	0	0	508	618	
6	0	0	0	0	508	618	
7	0	0	0	0	508	621	
8	0	0	0	0	508	617	
9	0	0	0	0	508	618	
10	0	0	0	0	508	617	
11	0	0	0	0	507	613	
12	0	0	0	0	507	617	
13	0	0	0	0	507	617	
14	0	0	0	0	508	617	
15	0	0	0	0	509	620	
0	0	0	0	0	509	616	
1	0	0	0	0	510	617	
2	0	0	0	0	509	616	
3	0	0	0	0	510	612	
4	0	0	0	0	509	617	
5	0	0	0	0	508	616	
6	0	0	0	0	509	616	
7	0	0	0	0	509	619	
8	0	0	0	0	509	616	
9	0	0	0	0	509	616	
10	0	0	0	0	509	615	
11	0	0	0	0	509	612	
12	0	0	0	0	510	616	
13	0	0	0	0	510	617	
14	0	0	0	0	511	617	
15	0	0	0	0	510	621	
0	0	0	0	0	511	618	
1	0	0	0	0	510	617	
2	0	0	0	0	510	618	
3	0	0	0	0	510	615	
4	0	0	0	0	510	619	
5	0	0	0	0	511	619	
6	0	0	0	0	512	619	
7	0	0	0	0	512	622	
8	0	0	0	0	512	619	
9	0	0	0	0	513	618	
10	0	0	0	0	513	619	
11	0	0	0	0	514	615	
12	0	0	0	0	513	619	
13	0	0	0	0	513	620	
14	0	0	0	0	513	619	
15	0	0	0	0	513	623	
0	0	0	0	0	513	619	
1	0	0	0	0	513	619	
2	0	0	0	0	513	619	
3	0	0	0	0	513	615	
4	0	0	0	0	513	618	
5	0	0	0	0	512	618	
6	0	0	0	0	512	617	
7	0	0	0	0	511	621	
8	0	0	0	0	512	617	
9	0	0	0	0	511	617	
10	0	0	0	0	511	617	
11	0	0	0	0	511	613	
12	0	0	0	0	511	617	
13	0	0	0	0	510	616	
14	0	0	0	0	511	617	
15	0	0	0	0	511	621	
0	0	0	0	0	511	617	
1	0	0	0	0	511	617	
2	0	0	0	0	510	617	
3	0	0	0	0	510	613	
4	0	0	0	0	509	617	
5	0	0	0	0	508	617	
6	0	0	0	0	508	617	
7	0	0	0	0	507	621	
8	0	0	0	0	507	618	
9	0	0	0	0	506	618	
10	0	0	0	0	507	618	
11	0	0	0	0	507	614	
12	0	0	0	0	506	617	
13	0	0	0	0	507	618	
14	0	0	0	0	508	618	
15	0	0	0	0	508	622	
0	0	0	0	0	510	619	
1	0	0	0	0	510	619	
2	0	0	0	0	509	619	
3	0	0	0	0	509	615	
4	0	0	0	0	508	619	
5	0	0	0	0	509	619	
6	0	0	0	0	509	619	
7	0	0	0	0	508	623	
8	0	0	0	0	508	620	
9	0	0	0	0	508	620	
10	0	0	0	0	508	620	
11	0	0	0	0	508	617	
12	0	0	0	0	509	621	
13	0	0	0	0	508	622	
14	0	0	0	0	508	622	
15	0	0	0	0	508	625	
0	0	0	0	0	509	623	
1	0	0	0	0	509	623	
2	0	0	0	0	510	622	
3	0	0	0	0	510	619	
4	0	0	0	0	510	622	
5	0	0	0	0	511	622	
6	0	0	0	0	511	622	
7	0	0	0	0	511	625	
8	0	0	0	0	512	622	
9	0	0	0	0	512	621	
10	0	0	0	0	513	620	
11	0	0	0	0	515	617	
12	0	0	0	0	515	620	
13	0	0	0	0	517	620	
14	0	0	0	0	518	621	
15	0	0	0	0	519	624	
0	0	0	0	0	521	620	
1	0	0	0	0	521	620	
2	0	0	0	0	522	620	
3	0	0	0	0	523	616	
4	0	0	0	0	524	620	
5	0	0	0	0	523	620	
6	0	0	0	0	522	620	
7	0	0	0	0	522	623	
8	0	0	0	0	520	619	
9	0	0	0	0	520	620	
10	0	0	0	0	520	619	
11	0	0	0	0	520	615	
12	0	0	0	0	519	619	
13	0	0	0	0	519	619	
14	0	0	0	0	519	619	
15	0	0	0	0	519	623	
0	0	0	0	0	519	619	
1	0	0	0	0	519	619	
2	0	0	0	0	519	618	
3	0	0	0	0	519	615	
4	0	0	0	0	519	619	
5	0	0	0	0	518	618	
6	0	0	0	0	518	618	
7	0	0	0	0	518	621	
8	0	0	0	0	518	618	
9	0	0	0	0	519	618	
10	0	0	0	0	518	618	
11	0	0	0	0	518	614	
12	0	0	0	0	518	618	
13	0	0	0	0	519	618	
14	0	0	0	0	519	619	
15	0	0	0	0	520	623	
0	0	0	0	0	520	619	
1	0	0	0	0	521	619	
2	0	0	0	0	521	619	
3	0	0	0	0	521	615	
4	0	0	0	0	521	619	
5	0	0	0	0	521	619	
6	0	0	0	0	521	619	
7	0	0	0	0	521	622	
8	0	0	0	0	521	619	
9	0	0	0	0	520	619	
10	0	0	0	0	520	618	
11	0	0	0	0	519	614	
12	0	0	0	0	519	618	
13	0	0	0	0	519	619	
14	0	0	0	0	519	619	
15	0	0	0	0	519	622	
0	0	0	0	0	519	618	
1	0	0	0	0	519	617	
2	0	0	0	0	518	618	
3	0	0	0	0	518	615	
4	0	0	0	0	517	618	
5	0	0	0	0	517	618	
6	0	0	0	0	517	619	
7	0	0	0	0	517	622	
8	0	0	0	0	518	619	
9	0	0	0	0	518	619	
10	0	0	0	0	518	619	
11	0	0	0	0	518	615	
12	0	0	0	0	517	619	
13	0	0	0	0	515	619	
14	0	0	0	0	513	619	
15	0	0	0	0	510	622	
0	0	0	0	0	507	619	
1	0	0	0	0	503	620	
2	0	0	0	0	498	619	
3	0	0	0	0	493	615	
4	0	0	0	0	487	619	
5	0	0	0	0	482	618	
6	0	0	0	0	478	619	
7	0	0	0	0	473	622	
8	0	0	0	0	469	618	
9	0	0	0	0	465	617	
10	0	0	0	0	462	618	
11	0	0	0	0	460	614	
12	0	0	0	0	458	618	
13	0	0	0	0	459	619	
14	0	0	0	0	460	619	
15	0	0	0	0	462	622	
0	0	0	0	0	470	618	
1	0	0	0	0	480	618	
2	0	0	0	0	494	618	
3	0	0	0	0	511	614	
4	0	0	0	0	531	618	
5	0	0	0	0	556	618	
6	0	0	0	0	582	618	
7	0	0	0	0	609	621	
8	0	0	0	0	640	617	
9	0	0	0	0	673	617	
10	0	0	0	0	708	617	
11	0	0	0	0	743	612	
12	0	0	0	0	775	617	
13	0	0	0	0	808	617	
14	0	0	0	0	846	617	
15	0	0	0	0	884	621	
0	0	0	0	0	923	617	
1	0	0	0	0	962	618	
2	0	0	0	0	997	617	
3	0	0	0	0	1021	614	
4	0	0	0	0	1022	618	
5	0	0	0	0	1022	618	
6	0	0	0	0	1022	617	
7	0	0	0	0	1022	621	
8	0	0	0	0	1022	618	
9	0	0	0	0	1022	617	
10	0	0	0	0	1022	617	
11	0	0	0	0	1022	614	
12	0	0	0	0	1022	618	
13	0	0	0	0	994	618	
14	0	0	0	0	943	618	
15	0	0	0	0	889	622	
0	0	0	0	0	837	619	
1	0	0	0	0	782	618	
2	0	0	0	0	727	619	
3	0	0	0	0	674	615	
4	0	0	0	0	629	620	
5	0	0	0	0	593	620	
6	0	0	0	0	567	620	
7	0	0	0	0	546	623	
8	0	0	0	0	528	620	
9	0	0	0	0	514	620	
10	0	0	0	0	502	620	
11	0	0	0	0	490	616	
12	0	0	0	0	481	620	
13	0	0	0	0	473	620	
14	0	0	0	0	465	620	
15	0	0	0	0	456	624	
0	0	0	0	0	449	621	
1	0	0	0	0	443	620	
2	0	0	0	0	437	621	
3	0	0	0	0	430	617	
4	0	0	0	0	423	621	
5	0	0	0	0	417	620	
6	0	0	0	0	412	621	
7	0	0	0	0	407	625	
8	0	0	0	0	403	621	
9	0	0	0	0	399	622	
10	0	0	0	0	396	621	
11	0	0	0	0	394	617	
12	0	0	0	0	391	621	
13	0	0	0	0	389	622	
14	0	0	0	0	387	620	
15	0	0	0	0	387	624	
0	0	0	0	0	386	620	
1	0	0	0	0	385	620	
2	0	0	0	0	384	620	
3	0	0	0	0	384	616	
4	0	0	0	0	384	620	
5	0	0	0	0	384	620	
6	0	0	0	0	384	620	
7	0	0	0	0	384	624	
8	0	0	0	0	384	620	
9	0	0	0	0	385	620	
10	0	0	0	0	385	620	
11	0	0	0	0	385	617	
12	0	0	0	0	386	620	
13	0	0	0	0	387	620	
14	0	0	0	0	388	620	
15	0	0	0	0	388	623	
0	0	0	0	0	389	620	
1	0	0	0	0	389	619	
2	0	0	0	0	389	619	
3	0	0	0	0	389	615	
4	0	0	0	0	390	619	
5	0	0	0	0	391	619	
6	0	0	0	0	391	619	
7	0	0	0	0	391	622	
8	0	0	0	0	392	618	
9	0	0	0	0	393	618	
10	0	0	0	0	394	618	
11	0	0	0	0	395	614	
12	0	0	0	0	395	618	
13	0	0	0	0	396	617	
14	0	0	0	0	397	617	
15	0	0	0	0	398	621	
0	0	0	0	0	399	617	
1	0	0	0	0	400	618	
2	0	0	0	0	400	618	
3	0	0	0	0	400	614	
4	0	0	0	0	401	618	
5	0	0	0	0	402	618	
6	0	0	0	0	403	618	
7	0	0	0	0	404	622	
8	0	0	0	0	405	618	
9	0	0	0	0	406	619	
10	0	0	0	0	407	618	
11	0	0	0	0	408	615	
12	0	0	0	0	408	619	
13	0	0	0	0	409	619	
14	0	0	0	0	409	619	
15	0	0	0	0	410	623	
0	0	0	0	0	412	620	
1	0	0	0	0	413	619	
2	0	0	0	0	414	620	
3	0	0	0	0	415	616	
4	0	0	0	0	416	619	
5	0	0	0	0	417	620	
6	0	0	0	0	417	619	
7	0	0	0	0	417	622	
8	0	0	0	0	419	619	
9	0	0	0	0	419	619	
10	0	0	0	0	421	619	
11	0	0	0	0	422	615	
12	0	0	0	0	422	619	
13	0	0	0	0	423	619	
14	0	0	0	0	423	618	
15	0	0	0	0	423	622	
0	0	0	0	0	424	619	
1	0	0	0	0	425	618	
2	0	0	0	0	426	618	
3	0	0	0	0	427	614	
4	0	0	0	0	427	618	
5	0	0	0	0	428	618	
6	0	0	0	0	428	618	
7	0	0	0	0	428	621	
8	0	0	0	0	430	617	
9	0	0	0	0	431	617	
10	0	0	0	0	431	617	
11	0	0	0	0	432	613	
12	0	0	0	0	433	617	
13	0	0	0	0	434	617	
14	0	0	0	0	435	617	
15	0	0	0	0	435	621	
0	0	0	0	0	436	617	
1	0	0	0	0	438	617	
2	0	0	0	0	438	618	
3	0	0	0	0	438	614	
4	0	0	0	0	438	618	
5	0	0	0	0	439	618	
6	0	0	0	0	439	619	
7	0	0	0	0	441	622	
8	0	0	0	0	442	619	
9	0	0	0	0	441	619	
10	0	0	0	0	442	619	
11	0	0	0	0	444	615	
12	0	0	0	0	444	618	
13	0	0	0	0	446	618	
14	0	0	0	0	446	619	
15	0	0	0	0	447	622	
0	0	0	0	0	448	619	
1	0	0	0	0	449	619	
2	0	0	0	0	450	619	
3	0	0	0	0	451	615	
4	0	0	0	0	450	619	
5	0	0	0	0	450	618	
6	0	0	0	0	451	619	
7	0	0	0	0	452	622	
8	0	0	0	0	452	618	
9	0	0	0	0	452	619	
10	0	0	0	0	453	619	
11	0	0	0	0	454	615	
12	0	0	0	0	456	619	
13	0	0	0	0	457	619	
14	0	0	0	0	458	619	
15	0	0	0	0	458	623	
0	0	0	0	0	459	620	
1	0	0	0	0	460	619	
2	0	0	0	0	461	620	
3	0	0	0	0	463	616	
4	0	0	0	0	464	619	
5	0	0	0	0	465	620	
6	0	0	0	0	466	620	
7	0	0	0	0	467	624	
8	0	0	0	0	467	620	
9	0	0	0	0	469	619	
10	0	0	0	0	471	620	
11	0	0	0	0	472	615	
12	0	0	0	0	473	619	
13	0	0	0	0	474	620	
14	0	0	0	0	475	619	
15	0	0	0	0	477	623	
0	0	0	0	0	480	619	
1	0	0	0	0	481	620	
2	0	0	0	0	482	619	
3	0	0	0	0	483	615	
4	0	0	0	0	485	619	
5	0	0	0	0	486	619	
6	0	0	0	0	487	619	
7	0	0	0	0	488	623	
8	0	0	0	0	489	619	
9	0	0	0	0	490	619	
10	0	0	0	0	492	618	
11	0	0	0	0	494	615	
12	0	0	0	0	495	619	
13	0	0	0	0	497	619	
14	0	0	0	0	498	619	
15	0	0	0	0	499	622	
0	0	0	0	0	500	618	
1	0	0	0	0	501	619	
2	0	0	0	0	503	618	
3	0	0	0	0	504	615	
4	0	0	0	0	506	618	
5	0	0	0	0	507	618	
6	0	0	0	0	508	619	
7	0	0	0	0	510	622	
8	0	0	0	0	512	620	
9	0	0	0	0	513	619	
10	0	0	0	0	513	619	
11	0	0	0	0	514	616	
12	0	0	0	0	515	620	
13	0	0	0	0	515	620	
14	0	0	0	0	515	620	
15	0	0	0	0	516	623	
0	0	0	0	0	516	620	
1	0	0	0	0	516	620	
2	0	0	0	0	517	620	
3	0	0	0	0	518	617	
4	0	0	0	0	518	620	
5	0	0	0	0	518	621	
6	0	0	0	0	518	621	
7	0	0	0	0	518	624	
8	0	0	0	0	518	620	
9	0	0	0	0	518	620	
10	0	0	0	0	518	620	
11	0	0	0	0	517	616	
12	0	0	0	0	517	620	
13	0	0	0	0	518	620	
14	0	0	0	0	517	620	
15	0	0	0	0	516	624	
0	0	0	0	0	516	619	
1	0	0	0	0	516	619	
2	0	0	0	0	515	619	
3	0	0	0	0	515	615	
4	0	0	0	0	515	619	
5	0	0	0	0	514	619	
6	0	0	0	0	513	619	
7	0	0	0	0	512	622	
8	0	0	0	0	512	619	
9	0	0	0	0	510	620	
10	0	0	0	0	508	620	
11	0	0	0	0	508	616	
12	0	0	0	0	507	620	
13	0	0	0	0	506	619	
14	0	0	0	0	506	619	
15	0	0	0	0	505	623	
0	0	0	0	0	504	620	
1	0	0	0	0	504	619	
2	0	0	0	0	504	619	
3	0	0	0	0	503	615	
4	0	0	0	0	501	618	
5	0	0	0	0	499	618	
6	0	0	0	0	499	618	
7	0	0	0	0	499	622	
8	0	0	0	0	499	618	
9	0	0	0	0	499	619	
10	0	0	0	0	499	619	
11	0	0	0	0	499	614	
12	0	0	0	0	499	619	
13	0	0	0	0	498	618	
14	0	0	0	0	499	618	
15	0	0	0	0	498	623	
0	0	0	0	0	498	619	
1	0	0	0	0	497	619	
2	0	0	0	0	497	619	
3	0	0	0	0	497	615	
4	0	0	0	0	497	619	
5	0	0	0	0	497	619	
6	0	0	0	0	497	619	
7	0	0	0	0	496	623	
8	0	0	0	0	496	619	
9	0	0	0	0	496	619	
10	0	0	0	0	496	619	
11	0	0	0	0	497	615	
12	0	0	0	0	497	619	
13	0	0	0	0	497	618	
14	0	0	0	0	497	619	
15	0	0	0	0	497	622	
0	0	0	0	0	498	619	
1	0	0	0	0	498	619	
2	0	0	0	0	499	620	
3	0	0	0	0	498	615	
4	0	0	0	0	498	619	
5	0	0	0	0	498	619	
6	0	0	0	0	498	619	
7	0	0	0	0	498	622	
8	0	0	0	0	499	619	
9	0	0	0	0	499	619	
10	0	0	0	0	499	618	
11	0	0	0	0	498	615	
12	0	0	0	0	499	619	
13	0	0	0	0	499	618	
14	0	0	0	0	499	619	
15	0	0	0	0	499	622	
0	0	0	0	0	499	619	
1	0	0	0	0	499	619	
2	0	0	0	0	500	619	
3	0	0	0	0	500	615	
4	0	0	0	0	500	620	
5	0	0	0	0	501	619	
6	0	0	0	0	501	620	
7	0	0	0	0	502	623	
8	0	0	0	0	502	619	
9	0	0	0	0	502	620	
10	0	0	0	0	502	619	
11	0	0	0	0	503	615	
12	0	0	0	0	504	619	
13	0	0	0	0	504	619	
14	0	0	0	0	504	618	
15	0	0	0	0	503	622	
0	0	0	0	0	503	618	
1	0	0	0	0	503	619	
2	0	0	0	0	503	618	
3	0	0	0	0	503	614	
4	0	0	0	0	503	618	
5	0	0	0	0	504	618	
6	0	0	0	0	503	617	
7	0	0	0	0	504	621	
8	0	0	0	0	505	617	
9	0	0	0	0	505	618	
10	0	0	0	0	505	618	
11	0	0	0	0	505	614	
12	0	0	0	0	505	619	
13	0	0	0	0	505	618	
14	0	0	0	0	504	618	
15	0	0	0	0	504	622	
0	0	0	0	0	504	619	
1	0	0	0	0	503	619	
2	0	0	0	0	502	619	
3	0	0	0	0	502	615	
4	0	0	0	0	503	619	
5	0	0	0	0	504	619	
6	0	0	0	0	504	619	
7	0	0	0	0	505	622	
8	0	0	0	0	506	619	
9	0	0	0	0	507	619	
10	0	0	0	0	508	618	
11	0	0	0	0	508	614	
12	0	0	0	0	509	618	
13	0	0	0	0	509	619	
14	0	0	0	0	510	618	
15	0	0	0	0	509	622	
0	0	0	0	0	510	618	
1	0	0	0	0	509	618	
2	0	0	0	0	509	617	
3	0	0	0	0	509	614	
4	0	0	0	0	510	618	
5	0	0	0	0	511	618	
6	0	0	0	0	512	618	
7	0	0	0	0	512	622	
8	0	0	0	0	512	617	
9	0	0	0	0	512	617	
10	0	0	0	0	512	618	
11	0	0	0	0	513	614	
12	0	0	0	0	512	618	
13	0	0	0	0	513	618	
14	0	0	0	0	514	618	
15	0	0	0	0	514	622	
0	0	0	0	0	514	618	
1	0	0	0	0	514	619	
2	0	0	0	0	515	619	
3	0	0	0	0	515	615	
4	0	0	0	0	515	620	
5	0	0	0	0	516	619	
6	0	0	0	0	516	619	
7	0	0	0	0	516	623	
8	0	0	0	0	517	619	
9	0	0	0	0	516	619	
10	0	0	0	0	516	619	
11	0	0	0	0	516	615	
12	0	0	0	0	518	619	
13	0	0	0	0	519	619	
14	0	0	0	0	519	619	
15	0	0	0	0	519	623	
0	0	0	0	0	519	619	
1	0	0	0	0	519	619	
2	0	0	0	0	519	619	
3	0	0	0	0	519	616	
4	0	0	0	0	519	620	
5	0	0	0	0	519	620	
6	0	0	0	0	519	620	
7	0	0	0	0	519	624	
8	0	0	0	0	520	620	
9	0	0	0	0	520	620	
10	0	0	0	0	519	620	
11	0	0	0	0	519	617	
12	0	0	0	0	520	621	
13	0	0	0	0	521	620	
14	0	0	0	0	521	621	
15	0	0	0	0	522	623	
0	0	0	0	0	523	620	
1	0	0	0	0	522	620	
2	0	0	0	0	522	620	
3	0	0	0	0	521	616	
4	0	0	0	0	521	620	
5	0	0	0	0	521	619	
6	0	0	0	0	520	620	
7	0	0	0	0	520	623	
8	0	0	0	0	521	620	
9	0	0	0	0	521	620	
10	0	0	0	0	521	619	
11	0	0	0	0	522	615	
12	0	0	0	0	523	619	
13	0	0	0	0	523	619	
14	0	0	0	0	524	619	
15	0	0	0	0	524	623	
0	0	0	0	0	524	618	
1	0	0	0	0	523	618	
2	0	0	0	0	523	617	
3	0	0	0	0	523	614	
4	0	0	0	0	523	618	
5	0	0	0	0	524	618	
6	0	0	0	0	523	618	
7	0	0	0	0	524	621	
8	0	0	0	0	523	617	
9	0	0	0	0	523	618	
10	0	0	0	0	523	617	
11	0	0	0	0	522	614	
12	0	0	0	0	523	617	
13	0	0	0	0	522	617	
14	0	0	0	0	521	617	
15	0	0	0	0	521	621	
0	0	0	0	0	522	617	
1	0	0	0	0	522	617	
2	0	0	0	0	522	618	
3	0	0	0	0	523	614	
4	0	0	0	0	523	618	
5	0	0	0	0	522	618	
6	0	0	0	0	521	619	
7	0	0	0	0	521	623	
8	0	0	0	0	521	620	
9	0	0	0	0	519	619	
10	0	0	0	0	519	620	
11	0	0	0	0	519	616	
12	0	0	0	0	519	620	
13	0	0	0	0	520	620	
14	0	0	0	0	520	620	
15	0	0	0	0	520	624	
0	0	0	0	0	520	620	
1	0	0	0	0	521	620	
2	0	0	0	0	521	620	
3	0	0	0	0	521	617	
4	0	0	0	0	521	620	
5	0	0	0	0	521	621	
6	0	0	0	0	520	621	
7	0	0	0	0	521	624	
8	0	0	0	0	521	621	
9	0	0	0	0	520	620	
10	0	0	0	0	519	621	
11	0	0	0	0	519	616	
12	0	0	0	0	518	621	
13	0	0	0	0	518	620	
14	0	0	0	0	519	621	
15	0	0	0	0	518	624	
0	0	0	0	0	519	620	
1	0	0	0	0	520	620	
2	0	0	0	0	519	620	
3	0	0	0	0	518	615	
4	0	0	0	0	518	620	
5	0	0	0	0	518	620	
6	0	0	0	0	518	619	
7	0	0	0	0	518	622	
8	0	0	0	0	519	618	
9	0	0	0	0	519	618	
10	0	0	0	0	519	618	
11	0	0	0	0	519	614	
12	0	0	0	0	519	618	
13	0	0	0	0	519	619	
14	0	0	0	0	520	618	
15	0	0	0	0	520	621	
0	0	0	0	0	520	618	
1	0	0	0	0	521	617	
2	0	0	0	0	520	618	
3	0	0	0	0	519	614	
4	0	0	0	0	519	618	
5	0	0	0	0	519	618	
6	0	0	0	0	519	619	
7	0	0	0	0	519	622	
8	0	0	0	0	518	618	
9	0	0	0	0	517	618	
10	0	0	0	0	518	619	
11	0	0	0	0	517	614	
12	0	0	0	0	517	619	
13	0	0	0	0	516	618	
14	0	0	0	0	516	619	
15	0	0	0	0	516	622	
0	0	0	0	0	516	618	
1	0	0	0	0	516	618	
2	0	0	0	0	515	618	
3	0	0	0	0	514	614	
4	0	0	0	0	514	618	
5	0	0	0	0	514	619	
6	0	0	0	0	513	618	
7	0	0	0	0	513	622	
8	0	0	0	0	512	618	
9	0	0	0	0	512	618	
10	0	0	0	0	512	618	
11	0	0	0	0	511	614	
12	0	0	0	0	511	618	
13	0	0	0	0	511	618	
14	0	0	0	0	511	618	
15	0	0	0	0	512	622	
0	0	0	0	0	513	618	
1	0	0	0	0	513	618	
2	0	0	0	0	513	618	
3	0	0	0	0	513	615	
4	0	0	0	0	514	619	
5	0	0	0	0	515	618	
6	0	0	0	0	515	619	
7	0	0	0	0	514	622	
8	0	0	0	0	515	619	
9	0	0	0	0	513	619	
10	0	0	0	0	513	619	
11	0	0	0	0	513	615	
12	0	0	0	0	513	620	
13	0	0	0	0	513	620	
14	0	0	0	0	514	620	
15	0	0	0	0	514	624	
0	0	0	0	0	514	620	
1	0	0	0	0	514	620	
2	0	0	0	0	514	620	
3	0	0	0	0	514	615	
4	0	0	0	0	515	620	
5	0	0	0	0	516	620	
6	0	0	0	0	517	620	
7	0	0	0	0	518	624	
8	0	0	0	0	518	620	
9	0	0	0	0	519	620	
10	0	0	0	0	520	620	
11	0	0	0	0	521	616	
12	0	0	0	0	522	620	
13	0	0	0	0	524	620	
14	0	0	0	0	525	620	
15	0	0	0	0	527	624	
0	0	0	0	0	528	621	
1	0	0	0	0	529	620	
2	0	0	0	0	531	620	
3	0	0	0	0	533	617	
4	0	0	0	0	533	620	
5	0	0	0	0	533	620	
6	0	0	0	0	534	620	
7	0	0	0	0	534	624	
8	0	0	0	0	533	620	
9	0	0	0	0	532	620	
10	0	0	0	0	532	619	
11	0	0	0	0	531	616	
12	0	0	0	0	531	620	
13	0	0	0	0	532	620	
14	0	0	0	0	531	619	
15	0	0	0	0	530	623	
0	0	0	0	0	531	620	
1	0	0	0	0	531	620	
2	0	0	0	0	532	619	
3	0	0	0	0	532	615	
4	0	0	0	0	531	619	
5	0	0	0	0	532	620	
6	0	0	0	0	532	619	
7	0	0	0	0	532	623	
8	0	0	0	0	532	619	
9	0	0	0	0	531	619	
10	0	0	0	0	532	619	
11	0	0	0	0	532	614	
12	0	0	0	0	532	619	
13	0	0	0	0	533	618	
14	0	0	0	0	532	619	
15	0	0	0	0	532	622	
0	0	0	0	0	533	618	
1	0	0	0	0	532	617	
2	0	0	0	0	531	617	
3	0	0	0	0	530	613	
4	0	0	0	0	529	618	
5	0	0	0	0	528	617	
6	0	0	0	0	527	617	
7	0	0	0	0	527	620	
8	0	0	0	0	526	617	
9	0	0	0	0	526	617	
10	0	0	0	0	526	617	
11	0	0	0	0	526	613	
12	0	0	0	0	526	617	
13	0	0	0	0	526	617	
14	0	0	0	0	526	618	
15	0	0	0	0	527	621	
0	0	0	0	0	527	618	
1	0	0	0	0	527	617	
2	0	0	0	0	527	617	
3	0	0	0	0	527	614	
4	0	0	0	0	527	618	
5	0	0	0	0	527	618	
6	0	0	0	0	527	618	
7	0	0	0	0	526	621	
8	0	0	0	0	526	618	
9	0	0	0	0	525	619	
10	0	0	0	0	523	620	
11	0	0	0	0	523	615	
12	0	0	0	0	523	620	
13	0	0	0	0	523	620	
14	0	0	0	0	521	620	
15	0	0	0	0	519	624	
0	0	0	0	0	516	621	
1	0	0	0	0	513	621	
2	0	0	0	0	511	621	
3	0	0	0	0	505	617	
4	0	0	0	0	500	622	
5	0	0	0	0	495	622	
6	0	0	0	0	489	622	
7	0	0	0	0	483	626	
8	0	0	0	0	478	622	
9	0	0	0	0	473	622	
10	0	0	0	0	468	621	
11	0	0	0	0	464	617	
12	0	0	0	0	461	621	
13	0	0	0	0	458	622	
14	0	0	0	0	458	621	
15	0	0	0	0	459	624	
0	0	0	0	0	462	620	
1	0	0	0	0	467	621	
2	0	0	0	0	475	620	
3	0	0	0	0	486	616	
4	0	0	0	0	501	620	
5	0	0	0	0	519	619	
6	0	0	0	0	541	620	
7	0	0	0	0	566	622	
8	0	0	0	0	593	619	
9	0	0	0	0	622	619	
10	0	0	0	0	652	618	
11	0	0	0	0	685	614	
12	0	0	0	0	718	617	
13	0	0	0	0	750	617	
14	0	0	0	0	783	617	
15	0	0	0	0	819	621	
0	0	0	0	0	858	617	
1	0	0	0	0	896	617	
2	0	0	0	0	934	617	
3	0	0	0	0	971	613	
4	0	0	0	0	999	617	
5	0	0	0	0	1021	617	
6	0	0	0	0	1022	617	
7	0	0	0	0	1022	621	
8	0	0	0	0	1022	617	
9	0	0	0	0	1022	617	
10	0	0	0	0	1022	618	
11	0	0	0	0	1022	614	
12	0	0	0	0	1022	618	
13	0	0	0	0	1022	617	
14	0	0	0	0	1006	619	
15	0	0	0	0	958	622	
0	0	0	0	0	906	618	
1	0	0	0	0	853	619	
2	0	0	0	0	800	619	
3	0	0	0	0	744	614	
4	0	0	0	0	690	619	
5	0	0	0	0	641	619	
6	0	0	0	0	600	619	
7	0	0	0	0	569	623	
8	0	0	0	0	545	619	
9	0	0	0	0	527	619	
10	0	0	0	0	513	619	
11	0	0	0	0	500	615	
12	0	0	0	0	490	619	
13	0	0	0	0	480	619	
14	0	0	0	0	473	620	
15	0	0	0	0	464	622	
0	0	0	0	0	456	619	
1	0	0	0	0	449	618	
2	0	0	0	0	441	619	
3	0	0	0	0	434	615	
4	0	0	0	0	428	619	
5	0	0	0	0	421	619	
6	0	0	0	0	414	619	
7	0	0	0	0	408	622	
8	0	0	0	0	403	618	
9	0	0	0	0	399	619	
10	0	0	0	0	395	619	
11	0	0	0	0	391	615	
12	0	0	0	0	389	618	
13	0	0	0	0	387	619	
14	0	0	0	0	384	619	
15	0	0	0	0	382	623	
0	0	0	0	0	380	619	
1	0	0	0	0	379	619	
2	0	0	0	0	379	620	
3	0	0	0	0	379	615	
4	0	0	0	0	378	619	
5	0	0	0	0	379	619	
6	0	0	0	0	379	619	
7	0	0	0	0	380	622	
8	0	0	0	0	380	617	
9	0	0	0	0	380	619	
10	0	0	0	0	379	618	
11	0	0	0	0	379	614	
12	0	0	0	0	380	618	
13	0	0	0	0	381	618	
14	0	0	0	0	382	618	
15	0	0	0	0	383	622	
0	0	0	0	0	384	618	
1	0	0	0	0	384	619	
2	0	0	0	0	384	619	
3	0	0	0	0	385	615	
4	0	0	0	0	386	619	
5	0	0	0	0	387	620	
6	0	0	0	0	388	620	
7	0	0	0	0	390	623	
8	0	0	0	0	391	620	
9	0	0	0	0	391	620	
10	0	0	0	0	392	620	
11	0	0	0	0	392	616	
12	0	0	0	0	393	620	
13	0	0	0	0	393	620	
14	0	0	0	0	395	620	
15	0	0	0	0	397	624	
0	0	0	0	0	398	620	
1	0	0	0	0	399	620	
2	0	0	0	0	400	620	
3	0	0	0	0	401	616	
4	0	0	0	0	401	620	
5	0	0	0	0	401	620	
6	0	0	0	0	402	621	
7	0	0	0	0	403	624	
8	0	0	0	0	404	621	
9	0	0	0	0	404	620	
10	0	0	0	0	406	621	
11	0	0	0	0	407	617	
12	0	0	0	0	408	621	
13	0	0	0	0	409	621	
14	0	0	0	0	410	621	
15	0	0	0	0	410	624	
0	0	0	0	0	411	621	
1	0	0	0	0	412	620	
2	0	0	0	0	413	620	
3	0	0	0	0	414	615	
4	0	0	0	0	414	620	
5	0	0	0	0	415	619	
6	0	0	0	0	416	620	
7	0	0	0	0	415	623	
8	0	0	0	0	417	619	
9	0	0	0	0	417	618	
10	0	0	0	0	418	618	
11	0	0	0	0	419	614	
12	0	0	0	0	419	619	
13	0	0	0	0	420	619	
14	0	0	0	0	421	620	
15	0	0	0	0	422	622	
0	0	0	0	0	423	619	
1	0	0	0	0	424	619	
2	0	0	0	0	424	619	
3	0	0	0	0	425	615	
4	0	0	0	0	425	619	
5	0	0	0	0	426	619	
6	0	0	0	0	427	619	
7	0	0	0	0	428	623	
8	0	0	0	0	429	619	
9	0	0	0	0	429	619	
10	0	0	0	0	430	619	
11	0	0	0	0	431	615	
12	0	0	0	0	431	620	
13	0	0	0	0	432	620	
14	0	0	0	0	432	620	
15	0	0	0	0	433	623	
0	0	0	0	0	433	619	
1	0	0	0	0	433	619	
2	0	0	0	0	434	619	
3	0	0	0	0	435	615	
4	0	0	0	0	436	619	
5	0	0	0	0	436	618	
6	0	0	0	0	438	619	
7	0	0	0	0	440	622	
8	0	0	0	0	440	618	
9	0	0	0	0	440	618	
10	0	0	0	0	441	617	
11	0	0	0	0	442	614	
12	0	0	0	0	443	618	
13	0	0	0	0	443	619	
14	0	0	0	0	445	618	
15	0	0	0	0	446	622	
0	0	0	0	0	447	619	
1	0	0	0	0	447	619	
2	0	0	0	0	448	619	
3	0	0	0	0	448	614	
4	0	0	0	0	449	619	
5	0	0	0	0	450	620	
6	0	0	0	0	450	620	
7	0	0	0	0	451	623	
8	0	0	0	0	451	620	
9	0	0	0	0	451	620	
10	0	0	0	0	452	620	
11	0	0	0	0	452	616	
12	0	0	0	0	452	619	
13	0	0	0	0	454	619	
14	0	0	0	0	455	620	
15	0	0	0	0	456	622	
0	0	0	0	0	457	619	
1	0	0	0	0	458	619	
2	0	0	0	0	459	619	
3	0	0	0	0	460	615	
4	0	0	0	0	461	619	
5	0	0	0	0	462	619	
6	0	0	0	0	464	619	
7	0	0	0	0	465	622	
8	0	0	0	0	465	619	
9	0	0	0	0	465	619	
10	0	0	0	0	467	619	
11	0	0	0	0	468	615	
12	0	0	0	0	469	620	
13	0	0	0	0	471	619	
14	0	0	0	0	471	619	
15	0	0	0	0	473	622	
0	0	0	0	0	475	619	
1	0	0	0	0	476	619	
2	0	0	0	0	478	618	
3	0	0	0	0	479	614	
4	0	0	0	0	481	619	
5	0	0	0	0	482	618	
6	0	0	0	0	483	618	
7	0	0	0	0	483	620	
8	0	0	0	0	486	617	
9	0	0	0	0	487	617	
10	0	0	0	0	488	617	
11	0	0	0	0	488	613	
12	0	0	0	0	490	617	
13	0	0	0	0	491	617	
14	0	0	0	0	492	618	
15	0	0	0	0	493	621	
0	0	0	0	0	495	618	
1	0	0	0	0	496	618	
2	0	0	0	0	497	618	
3	0	0	0	0	498	615	
4	0	0	0	0	499	618	
5	0	0	0	0	500	619	
6	0	0	0	0	502	619	
7	0	0	0	0	504	623	
8	0	0	0	0	505	619	
9	0	0	0	0	505	620	
10	0	0	0	0	506	620	
11	0	0	0	0	508	615	
12	0	0	0	0	508	619	
13	0	0	0	0	509	620	
14	0	0	0	0	510	620	
15	0	0	0	0	511	624	
0	0	0	0	0	511	620	
1	0	0	0	0	511	620	
2	0	0	0	0	512	619	
3	0	0	0	0	512	615	
4	0	0	0	0	512	620	
5	0	0	0	0	512	620	
6	0	0	0	0	511	620	
7	0	0	0	0	511	623	
8	0	0	0	0	510	619	
9	0	0	0	0	510	620	
10	0	0	0	0	511	620	
11	0	0	0	0	512	615	
12	0	0	0	0	512	620	
13	0	0	0	0	512	620	
14	0	0	0	0	512	619	
15	0	0	0	0	511	623	
0	0	0	0	0	511	619	
1	0	0	0	0	510	620	
2	0	0	0	0	510	620	
3	0	0	0	0	509	616	
4	0	0	0	0	508	620	
5	0	0	0	0	508	619	
6	0	0	0	0	507	619	
7	0	0	0	0	506	623	
8	0	0	0	0	505	619	
9	0	0	0	0	504	619	
10	0	0	0	0	502	618	
11	0	0	0	0	501	615	
12	0	0	0	0	500	619	
13	0	0	0	0	500	619	
14	0	0	0	0	499	620	
15	0	0	0	0	497	623	
0	0	0	0	0	496	619	
1	0	0	0	0	496	619	
2	0	0	0	0	494	619	
3	0	0	0	0	492	615	
4	0	0	0	0	492	619	
5	0	0	0	0	491	620	
6	0	0	0	0	490	620	
7	0	0	0	0	490	623	
8	0	0	0	0	489	620	
9	0	0	0	0	488	619	
10	0	0	0	0	488	619	
11	0	0	0	0	488	615	
12	0	0	0	0	488	619	
13	0	0	0	0	487	619	
14	0	0	0	0	487	619	
15	0	0	0	0	487	623	
0	0	0	0	0	486	619	
1	0	0	0	0	486	620	
2	0	0	0	0	487	619	
3	0	0	0	0	487	615	
4	0	0	0	0	486	620	
5	0	0	0	0	485	620	
6	0	0	0	0	486	620	
7	0	0	0	0	486	624	
8	0	0	0	0	486	620	
9	0	0	0	0	485	620	
10	0	0	0	0	487	621	
11	0	0	0	0	487	616	
12	0	0	0	0	487	621	
13	0	0	0	0	486	620	
14	0	0	0	0	486	620	
15	0	0	0	0	484	623	
0	0	0	0	0	484	621	
1	0	0	0	0	484	620	
2	0	0	0	0	484	620	
3	0	0	0	0	485	616	
4	0	0	0	0	485	619	
5	0	0	0	0	484	619	
6	0	0	0	0	486	619	
7	0	0	0	0	486	623	
8	0	0	0	0	487	620	
9	0	0	0	0	487	619	
10	0	0	0	0	487	619	
11	0	0	0	0	487	615	
12	0	0	0	0	487	620	
13	0	0	0	0	488	620	
14	0	0	0	0	487	619	
15	0	0	0	0	487	623	
0	0	0	0	0	487	619	
1	0	0	0	0	487	619	
2	0	0	0	0	487	619	
3	0	0	0	0	487	615	
4	0	0	0	0	487	619	
5	0	0	0	0	488	619	
6	0	0	0	0	488	620	
7	0	0	0	0	489	623	
8	0	0	0	0	490	619	
9	0	0	0	0	490	619	
10	0	0	0	0	490	619	
11	0	0	0	0	489	615	
12	0	0	0	0	489	619	
13	0	0	0	0	489	618	
14	0	0	0	0	489	619	
15	0	0	0	0	489	621	
0	0	0	0	0	489	618	
1	0	0	0	0	488	618	
2	0	0	0	0	488	617	
3	0	0	0	0	488	613	
4	0	0	0	0	489	617	
5	0	0	0	0	488	617	
6	0	0	0	0	489	618	
7	0	0	0	0	490	621	
8	0	0	0	0	491	617	
9	0	0	0	0	491	617	
10	0	0	0	0	492	617	
11	0	0	0	0	493	614	
12	0	0	0	0	493	618	
13	0	0	0	0	494	619	
14	0	0	0	0	494	618	
15	0	0	0	0	495	622	
0	0	0	0	0	495	619	
1	0	0	0	0	496	619	
2	0	0	0	0	496	618	
3	0	0	0	0	496	615	
4	0	0	0	0	496	618	
5	0	0	0	0	497	619	
6	0	0	0	0	497	618	
7	0	0	0	0	497	621	
8	0	0	0	0	498	617	
9	0	0	0	0	497	617	
10	0	0	0	0	497	617	
11	0	0	0	0	497	612	
12	0	0	0	0	497	616	
13	0	0	0	0	498	616	
14	0	0	0	0	498	616	
15	0	0	0	0	498	619	
0	0	0	0	0	499	615	
1	0	0	0	0	499	615	
2	0	0	0	0	500	616	
3	0	0	0	0	500	611	
4	0	0	0	0	500	615	
5	0	0	0	0	500	616	
6	0	0	0	0	501	616	
7	0	0	0	0	501	620	
8	0	0	0	0	501	617	
9	0	0	0	0	503	617	
10	0	0	0	0	503	617	
11	0	0	0	0	503	613	
12	0	0	0	0	503	617	
13	0	0	0	0	502	618	
14	0	0	0	0	503	618	
15	0	0	0	0	502	622	
0	0	0	0	0	502	618	
1	0	0	0	0	502	618	
2	0	0	0	0	502	619	
3	0	0	0	0	502	616	
4	0	0	0	0	503	620	
5	0	0	0	0	504	620	
6	0	0	0	0	504	620	
7	0	0	0	0	505	623	
8	0	0	0	0	506	620	
9	0	0	0	0	506	620	
10	0	0	0	0	507	620	
11	0	0	0	0	508	616	
12	0	0	0	0	508	620	
13	0	0	0	0	508	620	
14	0	0	0	0	508	621	
15	0	0	0	0	509	624	
0	0	0	0	0	510	620	
1	0	0	0	0	510	620	
2	0	0	0	0	511	620	
3	0	0	0	0	511	615	
4	0	0	0	0	511	620	
5	0	0	0	0	511	620	
6	0	0	0	0	510	620	
7	0	0	0	0	510	623	
8	0	0	0	0	510	620	
9	0	0	0	0	510	620	
10	0	0	0	0	510	620	
11	0	0	0	0	510	616	
12	0	0	0	0	510	620	
13	0	0	0	0	511	620	
14	0	0	0	0	511	620	
15	0	0	0	0	512	624	
0	0	0	0	0	513	620	
1	0	0	0	0	514	620	
2	0	0	0	0	514	620	
3	0	0	0	0	514	615	
4	0	0	0	0	514	619	
5	0	0	0	0	515	619	
6	0	0	0	0	516	619	
7	0	0	0	0	516	622	
8	0	0	0	0	517	618	
9	0	0	0	0	516	619	
10	0	0	0	0	516	619	
11	0	0	0	0	516	615	
12	0	0	0	0	516	619	
13	0	0	0	0	516	619	
14	0	0	0	0	516	619	
15	0	0	0	0	517	622	
0	0	0	0	0	518	620	
1	0	0	0	0	517	620	
2	0	0	0	0	516	620	
3	0	0	0	0	517	616	
4	0	0	0	0	517	619	
5	0	0	0	0	517	620	
6	0	0	0	0	517	620	
7	0	0	0	0	518	624	
8	0	0	0	0	518	620	
9	0	0	0	0	518	620	
10	0	0	0	0	519	620	
11	0	0	0	0	518	616	
12	0	0	0	0	518	621	
13	0	0	0	0	518	620	
14	0	0	0	0	518	620	
15	0	0	0	0	516	623	
0	0	0	0	0	517	621	
1	0	0	0	0	517	621	
2	0	0	0	0	518	620	
3	0	0	0	0	518	617	
4	0	0	0	0	517	620	
5	0	0	0	0	518	621	
6	0	0	0	0	518	621	
7	0	0	0	0	517	625	
8	0	0	0	0	517	621	
9	0	0	0	0	517	620	
10	0	0	0	0	517	620	
11	0	0	0	0	517	617	
12	0	0	0	0	517	621	
13	0	0	0	0	518	621	
14	0	0	0	0	518	621	
15	0	0	0	0	518	624	
0	0	0	0	0	518	621	
1	0	0	0	0	518	620	
2	0	0	0	0	517	620	
3	0	0	0	0	517	616	
4	0	0	0	0	517	620	
5	0	0	0	0	517	620	
6	0	0	0	0	516	619	
7	0	0	0	0	516	622	
8	0	0	0	0	516	619	
9	0	0	0	0	516	618	
10	0	0	0	0	516	618	
11	0	0	0	0	516	614	
12	0	0	0	0	516	617	
13	0	0	0	0	516	617	
14	0	0	0	0	516	617	
15	0	0	0	0	515	621	
0	0	0	0	0	516	616	
1	0	0	0	0	516	616	
2	0	0	0	0	516	616	
3	0	0	0	0	515	612	
4	0	0	0	0	514	615	
5	0	0	0	0	513	616	
6	0	0	0	0	513	617	
7	0	0	0	0	513	620	
8	0	0	0	0	513	616	
9	0	0	0	0	513	616	
10	0	0	0	0	514	617	
11	0	0	0	0	514	613	
12	0	0	0	0	515	617	
13	0	0	0	0	515	617	
14	0	0	0	0	515	617	
15	0	0	0	0	515	621	
0	0	0	0	0	516	618	
1	0	0	0	0	515	617	
2	0	0	0	0	515	617	
3	0	0	0	0	515	614	
4	0	0	0	0	516	617	
5	0	0	0	0	515	617	
6	0	0	0	0	515	617	
7	0	0	0	0	515	621	
8	0	0	0	0	515	617	
9	0	0	0	0	515	617	
10	0	0	0	0	515	617	
11	0	0	0	0	516	614	
12	0	0	0	0	516	617	
13	0	0	0	0	517	618	
14	0	0	0	0	516	617	
15	0	0	0	0	516	621	
0	0	0	0	0	517	619	
1	0	0	0	0	518	619	
2	0	0	0	0	518	618	
3	0	0	0	0	519	615	
4	0	0	0	0	519	619	
5	0	0	0	0	519	619	
6	0	0	0	0	518	619	
7	0	0	0	0	518	623	
8	0	0	0	0	518	620	
9	0	0	0	0	518	620	
10	0	0	0	0	518	620	
11	0	0	0	0	517	615	
12	0	0	0	0	518	620	
13	0	0	0	0	517	619	
14	0	0	0	0	517	620	
15	0	0	0	0	517	624	
0	0	0	0	0	517	620	
1	0	0	0	0	517	620	
2	0	0	0	0	516	620	
3	0	0	0	0	515	615	
4	0	0	0	0	516	620	
5	0	0	0	0	516	620	
6	0	0	0	0	516	620	
7	0	0	0	0	515	623	
8	0	0	0	0	514	619	
9	0	0	0	0	514	619	
10	0	0	0	0	513	619	
11	0	0	0	0	512	615	
12	0	0	0	0	512	619	
13	0	0	0	0	512	619	
14	0	0	0	0	512	619	
15	0	0	0	0	511	622	
0	0	0	0	0	511	619	
1	0	0	0	0	512	619	
2	0	0	0	0	512	619	
3	0	0	0	0	512	615	
4	0	0	0	0	512	620	
5	0	0	0	0	512	619	
6	0	0	0	0	511	619	
7	0	0	0	0	511	623	
8	0	0	0	0	511	620	
9	0	0	0	0	510	620	
10	0	0	0	0	510	619	
11	0	0	0	0	510	615	
12	0	0	0	0	510	620	
13	0	0	0	0	509	619	
14	0	0	0	0	509	620	
15	0	0	0	0	509	624	
0	0	0	0	0	508	620	
1	0	0	0	0	508	621	
2	0	0	0	0	508	620	
3	0	0	0	0	507	616	
4	0	0	0	0	507	620	
5	0	0	0	0	508	620	
6	0	0	0	0	508	620	
7	0	0	0	0	509	625	
8	0	0	0	0	509	620	
9	0	0	0	0	510	620	
10	0	0	0	0	510	620	
11	0	0	0	0	511	616	
12	0	0	0	0	512	620	
13	0	0	0	0	514	620	
14	0	0	0	0	514	620	
15	0	0	0	0	515	624	
0	0	0	0	0	516	620	
1	0	0	0	0	518	620	
2	0	0	0	0	519	620	
3	0	0	0	0	520	616	
4	0	0	0	0	521	620	
5	0	0	0	0	522	620	
6	0	0	0	0	523	620	
7	0	0	0	0	523	624	
8	0	0	0	0	524	620	
9	0	0	0	0	524	621	
10	0	0	0	0	523	620	
11	0	0	0	0	523	616	
12	0	0	0	0	522	621	
13	0	0	0	0	521	621	
14	0	0	0	0	519	621	
15	0	0	0	0	519	624	
0	0	0	0	0	520	620	
1	0	0	0	0	520	621	
2	0	0	0	0	520	621	
3	0	0	0	0	519	616	
4	0	0	0	0	520	620	
5	0	0	0	0	520	619	
6	0	0	0	0	520	620	
7	0	0	0	0	520	623	
8	0	0	0	0	520	619	
9	0	0	0	0	519	619	
10	0	0	0	0	519	619	
11	0	0	0	0	519	614	
12	0	0	0	0	519	619	
13	0	0	0	0	519	618	
14	0	0	0	0	519	618	
15	0	0	0	0	519	621	
0	0	0	0	0	519	617	
1	0	0	0	0	519	618	
2	0	0	0	0	519	617	
3	0	0	0	0	519	614	
4	0	0	0	0	520	619	
5	0	0	0	0	520	618	
6	0	0	0	0	520	618	
7	0	0	0	0	520	622	
8	0	0	0	0	520	619	
9	0	0	0	0	521	619	
10	0	0	0	0	521	619	
11	0	0	0	0	520	615	
12	0	0	0	0	521	620	
13	0	0	0	0	521	620	
14	0	0	0	0	521	620	
15	0	0	0	0	521	624	
0	0	0	0	0	520	620	
1	0	0	0	0	520	620	
2	0	0	0	0	519	619	
3	0	0	0	0	519	615	
4	0	0	0	0	519	619	
5	0	0	0	0	520	619	
6	0	0	0	0	519	619	
7	0	0	0	0	519	622	
8	0	0	0	0	519	619	
9	0	0	0	0	519	618	
10	0	0	0	0	520	618	
11	0	0	0	0	520	615	
12	0	0	0	0	520	619	
13	0	0	0	0	520	619	
14	0	0	0	0	520	619	
15	0	0	0	0	521	622	
0	0	0	0	0	520	619	
1	0	0	0	0	519	619	
2	0	0	0	0	519	619	
3	0	0	0	0	517	615	
4	0	0	0	0	514	620	
5	0	0	0	0	511	619	
6	0	0	0	0	508	620	
7	0	0	0	0	503	623	
8	0	0	0	0	499	619	
9	0	0	0	0	492	619	
10	0	0	0	0	487	619	
11	0	0	0	0	481	614	
12	0	0	0	0	476	619	
13	0	0	0	0	472	618	
14	0	0	0	0	469	618	
15	0	0	0	0	464	622	
0	0	0	0	0	460	617	
1	0	0	0	0	456	618	
2	0	0	0	0	454	617	
3	0	0	0	0	455	614	
4	0	0	0	0	456	617	
5	0	0	0	0	460	617	
6	0	0	0	0	466	618	
7	0	0	0	0	475	621	
8	0	0	0	0	486	618	
9	0	0	0	0	501	618	
10	0	0	0	0	518	618	
11	0	0	0	0	541	615	
12	0	0	0	0	566	619	
13	0	0	0	0	593	619	
14	0	0	0	0	623	619	
15	0	0	0	0	653	622	
0	0	0	0	0	685	619	
1	0	0	0	0	716	618	
2	0	0	0	0	744	618	
3	0	0	0	0	776	614	
4	0	0	0	0	812	619	
5	0	0	0	0	848	618	
6	0	0	0	0	885	617	
7	0	0	0	0	922	622	
8	0	0	0	0	955	618	
9	0	0	0	0	982	618	
10	0	0	0	0	1009	619	
11	0	0	0	0	1022	615	
12	0	0	0	0	1022	619	
13	0	0	0	0	1022	619	
14	0	0	0	0	1022	619	
15	0	0	0	0	1022	623	
0	0	0	0	0	1022	619	
1	0	0	0	0	1022	620	
2	0	0	0	0	1008	620	
3	0	0	0	0	963	616	
4	0	0	0	0	915	620	
5	0	0	0	0	864	621	
6	0	0	0	0	812	620	
7	0	0	0	0	760	624	
8	0	0	0	0	708	620	
9	0	0	0	0	659	620	
10	0	0	0	0	615	620	
11	0	0	0	0	581	616	
12	0	0	0	0	557	620	
13	0	0	0	0	539	620	
14	0	0	0	0	524	620	
15	0	0	0	0	512	624	
0	0	0	0	0	502	620	
1	0	0	0	0	492	620	
2	0	0	0	0	483	620	
3	0	0	0	0	477	616	
4	0	0	0	0	470	620	
5	0	0	0	0	463	620	
6	0	0	0	0	456	620	
7	0	0	0	0	450	624	
8	0	0	0	0	444	620	
9	0	0	0	0	437	620	
10	0	0	0	0	430	621	
11	0	0	0	0	425	616	
12	0	0	0	0	420	621	
13	0	0	0	0	416	621	
14	0	0	0	0	411	621	
15	0	0	0	0	408	624	
0	0	0	0	0	404	620	
1	0	0	0	0	401	620	
2	0	0	0	0	399	620	
3	0	0	0	0	397	615	
4	0	0	0	0	395	618	
5	0	0	0	0	394	618	
6	0	0	0	0	393	618	
7	0	0	0	0	392	622	
8	0	0	0	0	391	618	
9	0	0	0	0	391	617	
10	0	0	0	0	391	617	
11	0	0	0	0	390	613	
12	0	0	0	0	390	617	
13	0	0	0	0	389	617	
14	0	0	0	0	390	617	
15	0	0	0	0	391	621	
0	0	0	0	0	392	617	
1	0	0	0	0	393	618	
2	0	0	0	0	394	619	
3	0	0	0	0	394	615	
4	0	0	0	0	395	619	
5	0	0	0	0	396	619	
6	0	0	0	0	396	619	
7	0	0	0	0	398	623	
8	0	0	0	0	399	620	
9	0	0	0	0	401	620	
10	0	0	0	0	401	619	
11	0	0	0	0	402	615	
12	0	0	0	0	403	619	
13	0	0	0	0	404	620	
14	0	0	0	0	405	619	
15	0	0	0	0	406	623	
0	0	0	0	0	407	620	
1	0	0	0	0	408	618	
2	0	0	0	0	408	619	
3	0	0	0	0	407	615	
4	0	0	0	0	407	619	
5	0	0	0	0	408	619	
6	0	0	0	0	408	620	
7	0	0	0	0	410	623	
8	0	0	0	0	410	620	
9	0	0	0	0	409	620	
10	0	0	0	0	410	620	
11	0	0	0	0	411	616	
12	0	0	0	0	412	620	
13	0	0	0	0	414	620	
14	0	0	0	0	415	620	
15	0	0	0	0	416	624	
0	0	0	0	0	417	621	
1	0	0	0	0	417	620	
2	0	0	0	0	417	620	
3	0	0	0	0	418	616	
4	0	0	0	0	419	621	
5	0	0	0	0	419	620	
6	0	0	0	0	420	620	
7	0	0	0	0	421	623	
8	0	0	0	0	422	620	
9	0	0	0	0	423	620	
10	0	0	0	0	424	620	
11	0	0	0	0	425	616	
12	0	0	0	0	425	620	
13	0	0	0	0	426	619	
14	0	0	0	0	428	620	
15	0	0	0	0	428	623	
0	0	0	0	0	430	620	
1	0	0	0	0	430	619	
2	0	0	0	0	430	619	
3	0	0	0	0	431	615	
4	0	0	0	0	430	618	
5	0	0	0	0	431	619	
6	0	0	0	0	432	619	
7	0	0	0	0	432	622	
8	0	0	0	0	432	618	
9	0	0	0	0	432	618	
10	0	0	0	0	432	618	
11	0	0	0	0	433	614	
12	0	0	0	0	433	617	
13	0	0	0	0	434	618	
14	0	0	0	0	434	618	
15	0	0	0	0	435	622	
0	0	0	0	0	437	617	
1	0	0	0	0	437	618	
2	0	0	0	0	438	618	
3	0	0	0	0	439	614	
4	0	0	0	0	440	618	
5	0	0	0	0	440	618	
6	0	0	0	0	441	617	
7	0	0	0	0	442	622	
8	0	0	0	0	443	617	
9	0	0	0	0	444	618	
10	0	0	0	0	445	618	
11	0	0	0	0	446	614	
12	0	0	0	0	447	618	
13	0	0	0	0	447	618	
14	0	0	0	0	448	618	
15	0	0	0	0	448	621	
0	0	0	0	0	449	618	
1	0	0	0	0	449	618	
2	0	0	0	0	449	619	
3	0	0	0	0	450	614	
4	0	0	0	0	451	619	
5	0	0	0	0	452	619	
6	0	0	0	0	452	619	
7	0	0	0	0	453	622	
8	0	0	0	0	455	619	
9	0	0	0	0	456	619	
10	0	0	0	0	457	619	
11	0	0	0	0	459	615	
12	0	0	0	0	459	620	
13	0	0	0	0	460	620	
14	0	0	0	0	460	620	
15	0	0	0	0	461	623	
0	0	0	0	0	462	620	
1	0	0	0	0	463	620	
2	0	0	0	0	463	620	
3	0	0	0	0	464	615	
4	0	0	0	0	467	620	
5	0	0	0	0	469	620	
6	0	0	0	0	471	620	
7	0	0	0	0	473	624	
8	0	0	0	0	476	619	
9	0	0	0	0	477	619	
10	0	0	0	0	479	619	
11	0	0	0	0	479	615	
12	0	0	0	0	480	619	
13	0	0	0	0	481	620	
14	0	0	0	0	482	620	
15	0	0	0	0	484	623	
0	0	0	0	0	485	620	
1	0	0	0	0	486	620	
2	0	0	0	0	487	620	
3	0	0	0	0	488	616	
4	0	0	0	0	491	620	
5	0	0	0	0	492	620	
6	0	0	0	0	493	620	
7	0	0	0	0	496	623	
8	0	0	0	0	497	619	
9	0	0	0	0	497	619	
10	0	0	0	0	497	619	
11	0	0	0	0	499	615	
12	0	0	0	0	500	619	
13	0	0	0	0	500	618	
14	0	0	0	0	502	619	
15	0	0	0	0	504	622	
0	0	0	0	0	506	618	
1	0	0	0	0	507	618	
2	0	0	0	0	508	618	
3	0	0	0	0	510	615	
4	0	0	0	0	511	618	
5	0	0	0	0	512	619	
6	0	0	0	0	513	618	
7	0	0	0	0	515	622	
8	0	0	0	0	516	619	
9	0	0	0	0	518	619	
10	0	0	0	0	520	619	
11	0	0	0	0	522	615	
12	0	0	0	0	524	619	
13	0	0	0	0	526	620	
14	0	0	0	0	528	620	
15	0	0	0	0	529	624	
0	0	0	0	0	530	620	
1	0	0	0	0	531	620	
2	0	0	0	0	532	620	
3	0	0	0	0	532	616	
4	0	0	0	0	532	620	
5	0	0	0	0	532	620	
6	0	0	0	0	534	620	
7	0	0	0	0	535	623	
8	0	0	0	0	535	620	
9	0	0	0	0	535	620	
10	0	0	0	0	535	619	
11	0	0	0	0	535	615	
12	0	0	0	0	535	619	
13	0	0	0	0	535	619	
14	0	0	0	0	535	620	
15	0	0	0	0	536	622	
0	0	0	0	0	535	619	
1	0	0	0	0	536	619	
2	0	0	0	0	535	619	
3	0	0	0	0	533	615	
4	0	0	0	0	532	619	
5	0	0	0	0	532	619	
6	0	0	0	0	531	620	
7	0	0	0	0	531	623	
8	0	0	0	0	529	619	
9	0	0	0	0	527	619	
10	0	0	0	0	526	619	
11	0	0	0	0	525	616	
12	0	0	0	0	523	619	
13	0	0	0	0	522	619	
14	0	0	0	0	520	620	
15	0	0	0	0	519	623	
0	0	0	0	0	519	619	
1	0	0	0	0	518	619	
2	0	0	0	0	517	619	
3	0	0	0	0	517	615	
4	0	0	0	0	516	620	
5	0	0	0	0	515	620	
6	0	0	0	0	514	620	
7	0	0	0	0	513	624	
8	0	0	0	0	512	620	
9	0	0	0	0	511	620	
10	0	0	0	0	510	620	
11	0	0	0	0	509	616	
12	0	0	0	0	509	620	
13	0	0	0	0	509	620	
14	0	0	0	0	508	620	
15	0	0	0	0	508	624	
0	0	0	0	0	508	620	
1	0	0	0	0	507	620	
2	0	0	0	0	507	620	
3	0	0	0	0	506	617	
4	0	0	0	0	505	621	
5	0	0	0	0	504	621	
6	0	0	0	0	505	621	
7	0	0	0	0	505	624	
8	0	0	0	0	505	620	
9	0	0	0	0	505	620	
10	0	0	0	0	504	619	
11	0	0	0	0	505	616	
12	0	0	0	0	505	620	
13	0	0	0	0	505	620	
14	0	0	0	0	504	620	
15	0	0	0	0	504	623	
0	0	0	0	0	504	620	
1	0	0	0	0	503	619	
2	0	0	0	0	504	619	
3	0	0	0	0	505	615	
4	0	0	0	0	505	620	
5	0	0	0	0	504	619	
6	0	0	0	0	504	620	
7	0	0	0	0	504	623	
8	0	0	0	0	505	619	
9	0	0	0	0	505	619	
10	0	0	0	0	505	619	
11	0	0	0	0	505	614	
12	0	0	0	0	505	618	
13	0	0	0	0	506	619	
14	0	0	0	0	506	619	
15	0	0	0	0	507	621	
0	0	0	0	0	507	618	
1	0	0	0	0	506	618	
2	0	0	0	0	506	618	
3	0	0	0	0	507	614	
4	0	0	0	0	507	618	
5	0	0	0	0	507	618	
6	0	0	0	0	507	618	
7	0	0	0	0	507	622	
8	0	0	0	0	507	619	
9	0	0	0	0	507	619	
10	0	0	0	0	506	619	
11	0	0	0	0	507	615	
12	0	0	0	0	508	620	
13	0	0	0	0	508	619	
14	0	0	0	0	509	620	
15	0	0	0	0	509	624	
0	0	0	0	0	508	620	
1	0	0	0	0	508	620	
2	0	0	0	0	507	620	
3	0	0	0	0	507	615	
4	0	0	0	0	507	620	
5	0	0	0	0	507	620	
6	0	0	0	0	507	620	
7	0	0	0	0	507	623	
8	0	0	0	0	507	619	
9	0	0	0	0	507	619	
10	0	0	0	0	507	619	
11	0	0	0	0	507	615	
12	0	0	0	0	506	619	
13	0	0	0	0	507	618	
14	0	0	0	0	507	618	
15	0	0	0	0	507	622	
0	0	0	0	0	507	618	
1	0	0	0	0	508	618	
2	0	0	0	0	508	618	
3	0	0	0	0	508	614	
4	0	0	0	0	508	618	
5	0	0	0	0	509	619	
6	0	0	0	0	510	619	
7	0	0	0	0	509	622	
8	0	0	0	0	509	618	
9	0	0	0	0	509	618	
10	0	0	0	0	510	619	
11	0	0	0	0	510	614	
12	0	0	0	0	511	619	
13	0	0	0	0	511	619	
14	0	0	0	0	511	619	
15	0	0	0	0	511	622	
0	0	0	0	0	511	619	
1	0	0	0	0	510	619	
2	0	0	0	0	510	618	
3	0	0	0	0	510	614	
4	0	0	0	0	510	618	
5	0	0	0	0	510	618	
6	0	0	0	0	511	619	
7	0	0	0	0	512	622	
8	0	0	0	0	512	618	
9	0	0	0	0	513	619	
10	0	0	0	0	513	618	
11	0	0	0	0	513	615	
12	0	0	0	0	513	619	
13	0	0	0	0	513	619	
14	0	0	0	0	514	620	
15	0	0	0	0	514	623	
0	0	0	0	0	513	619	
1	0	0	0	0	513	619	
2	0	0	0	0	513	619	
3	0	0	0	0	513	615	
4	0	0	0	0	513	619	
5	0	0	0	0	513	619	
6	0	0	0	0	513	619	
7	0	0	0	0	514	622	
8	0	0	0	0	515	618	
9	0	0	0	0	515	618	
10	0	0	0	0	515	617	
11	0	0	0	0	516	614	
12	0	0	0	0	516	617	
13	0	0	0	0	516	618	
14	0	0	0	0	517	618	
15	0	0	0	0	517	621	
0	0	0	0	0	517	617	
1	0	0	0	0	516	618	
2	0	0	0	0	516	617	
3	0	0	0	0	516	614	
4	0	0	0	0	516	618	
5	0	0	0	0	516	618	
6	0	0	0	0	516	619	
7	0	0	0	0	516	622	
8	0	0	0	0	516	619	
9	0	0	0	0	516	619	
10	0	0	0	0	516	618	
11	0	0	0	0	517	615	
12	0	0	0	0	518	620	
13	0	0	0	0	516	619	
14	0	0	0	0	515	620	
15	0	0	0	0	514	623	
0	0	0	0	0	514	620	
1	0	0	0	0	514	620	
2	0	0	0	0	514	620	
3	0	0	0	0	514	616	
4	0	0	0	0	513	620	
5	0	0	0	0	513	621	
6	0	0	0	0	514	621	
7	0	0	0	0	515	625	
8	0	0	0	0	516	621	
9	0	0	0	0	516	620	
10	0	0	0	0	516	620	
11	0	0	0	0	518	617	
12	0	0	0	0	519	620	
13	0	0	0	0	519	621	
14	0	0	0	0	520	621	
15	0	0	0	0	520	624	
0	0	0	0	0	522	620	
1	0	0	0	0	521	621	
2	0	0	0	0	521	620	
3	0	0	0	0	521	616	
4	0	0	0	0	521	620	
5	0	0	0	0	521	620	
6	0	0	0	0	521	620	
7	0	0	0	0	520	623	
8	0	0	0	0	520	619	
9	0	0	0	0	520	619	
10	0	0	0	0	521	619	
11	0	0	0	0	520	615	
12	0	0	0	0	519	619	
13	0	0	0	0	518	619	
14	0	0	0	0	518	620	
15	0	0	0	0	517	624	
0	0	0	0	0	516	620	
1	0	0	0	0	516	619	
2	0	0	0	0	516	620	
3	0	0	0	0	515	616	
4	0	0	0	0	516	620	
5	0	0	0	0	516	620	
6	0	0	0	0	516	620	
7	0	0	0	0	516	624	
8	0	0	0	0	516	620	
9	0	0	0	0	516	620	
10	0	0	0	0	517	620	
11	0	0	0	0	517	615	
12	0	0	0	0	518	619	
13	0	0	0	0	518	619	
14	0	0	0	0	519	619	
15	0	0	0	0	518	622	
0	0	0	0	0	518	618	
1	0	0	0	0	519	618	
2	0	0	0	0	519	617	
3	0	0	0	0	519	614	
4	0	0	0	0	518	617	
5	0	0	0	0	519	617	
6	0	0	0	0	518	616	
7	0	0	0	0	518	620	
8	0	0	0	0	518	617	
9	0	0	0	0	517	617	
10	0	0	0	0	517	617	
11	0	0	0	0	516	613	
12	0	0	0	0	516	618	
13	0	0	0	0	517	618	
14	0	0	0	0	517	617	
15	0	0	0	0	516	622	
0	0	0	0	0	515	618	
1	0	0	0	0	515	618	
2	0	0	0	0	516	618	
3	0	0	0	0	515	614	
4	0	0	0	0	515	618	
5	0	0	0	0	514	618	
6	0	0	0	0	513	618	
7	0	0	0	0	513	622	
8	0	0	0	0	513	618	
9	0	0	0	0	513	618	
10	0	0	0	0	513	618	
11	0	0	0	0	512	614	
12	0	0	0	0	512	619	
13	0	0	0	0	511	619	
14	0	0	0	0	510	619	
15	0	0	0	0	510	623	
0	0	0	0	0	510	619	
1	0	0	0	0	510	619	
2	0	0	0	0	509	619	
3	0	0	0	0	508	616	
4	0	0	0	0	509	620	
5	0	0	0	0	508	620	
6	0	0	0	0	508	621	
7	0	0	0	0	508	624	
8	0	0	0	0	508	620	
9	0	0	0	0	508	620	
10	0	0	0	0	509	620	
11	0	0	0	0	509	616	
12	0	0	0	0	508	620	
13	0	0	0	0	508	620	
14	0	0	0	0	508	620	
15	0	0	0	0	507	623	
0	0	0	0	0	508	620	
1	0	0	0	0	507	619	
2	0	0	0	0	506	619	
3	0	0	0	0	506	615	
4	0	0	0	0	506	619	
5	0	0	0	0	506	619	
6	0	0	0	0	506	618	
7	0	0	0	0	506	622	
8	0	0	0	0	507	618	
9	0	0	0	0	508	618	
10	0	0	0	0	508	617	
11	0	0	0	0	507	614	
12	0	0	0	0	508	618	
13	0	0	0	0	508	618	
14	0	0	0	0	507	618	
15	0	0	0	0	506	622	
0	0	0	0	0	506	617	
1	0	0	0	0	506	618	
2	0	0	0	0	507	618	
3	0	0	0	0	507	614	
4	0	0	0	0	507	618	
5	0	0	0	0	506	618	
6	0	0	0	0	506	618	
7	0	0	0	0	505	622	
8	0	0	0	0	504	619	
9	0	0	0	0	504	619	
10	0	0	0	0	504	618	
11	0	0	0	0	503	615	
12	0	0	0	0	503	618	
13	0	0	0	0	502	619	
14	0	0	0	0	502	619	
15	0	0	0	0	500	623	
