# OpenSignals Text File Format
# {"98:D3:91:FD:58:3A":{"sensor":["ECGBIT","ACCBITREV"],"device name":"98:D3:91:FD:58:3A","column":["nSeq","I1","I2","O1","O2","A2","A5"],"sync interval":2,"time":"10:52:27","comments":"","device connection":"BTH98:D3:91:FD:58:3A","channels":[2,5],"date":"2021-09-06","mode":0,"digital IO":[0,0,1,1],"firmware version":0,"device":"bitalino_rev","position":0,"sampling rate":1000,"label":["A2","A5"],"resolution":[10,10],"special":[{},{}]}}
# EndOfHeader
0	0	0	0	0	541	615
1	0	0	0	0	540	615
2	0	0	0	0	538	615
3	0	0	0	0	536	615
4	0	0	0	0	535	616
5	0	0	0	0	535	615
6	0	0	0	0	535	615
7	0	0	0	0	536	615
8	0	0	0	0	536	615
9	0	0	0	0	536	616
10	0	0	0	0	536	615
11	0	0	0	0	538	616
12	0	0	0	0	539	615
13	0	0	0	0	539	615
14	0	0	0	0	539	615
15	0	0	0	0	539	615
0	0	0	0	0	540	615
1	0	0	0	0	539	615
2	0	0	0	0	540	615
3	0	0	0	0	540	615
4	0	0	0	0	540	615
5	0	0	0	0	539	615
6	0	0	0	0	538	615
7	0	0	0	0	537	615
8	0	0	0	0	536	615
9	0	0	0	0	536	616
10	0	0	0	0	535	616
11	0	0	0	0	535	615
12	0	0	0	0	534	616
13	0	0	0	0	534	615
14	0	0	0	0	535	616
15	0	0	0	0	535	615
0	0	0	0	0	536	615
1	0	0	0	0	536	615
2	0	0	0	0	536	615
3	0	0	0	0	537	615
4	0	0	0	0	537	616
5	0	0	0	0	537	616
6	0	0	0	0	537	616
7	0	0	0	0	537	615
8	0	0	0	0	536	616
9	0	0	0	0	536	615
10	0	0	0	0	537	615
11	0	0	0	0	536	615
12	0	0	0	0	535	616
13	0	0	0	0	534	615
14	0	0	0	0	534	615
15	0	0	0	0	534	615
0	0	0	0	0	534	616
1	0	0	0	0	534	616
2	0	0	0	0	532	615
3	0	0	0	0	533	615
4	0	0	0	0	533	616
5	0	0	0	0	533	616
6	0	0	0	0	534	616
7	0	0	0	0	534	615
8	0	0	0	0	535	616
9	0	0	0	0	535	615
10	0	0	0	0	535	616
11	0	0	0	0	535	616
12	0	0	0	0	535	616
13	0	0	0	0	534	616
14	0	0	0	0	534	615
15	0	0	0	0	533	615
0	0	0	0	0	531	615
1	0	0	0	0	531	615
2	0	0	0	0	530	615
3	0	0	0	0	530	615
4	0	0	0	0	529	615
5	0	0	0	0	528	615
6	0	0	0	0	528	616
7	0	0	0	0	527	616
8	0	0	0	0	526	616
9	0	0	0	0	526	615
10	0	0	0	0	526	615
11	0	0	0	0	525	616
12	0	0	0	0	524	616
13	0	0	0	0	524	616
14	0	0	0	0	523	615
15	0	0	0	0	523	616
0	0	0	0	0	522	615
1	0	0	0	0	521	615
2	0	0	0	0	520	616
3	0	0	0	0	519	615
4	0	0	0	0	517	615
5	0	0	0	0	516	615
6	0	0	0	0	515	616
7	0	0	0	0	514	616
8	0	0	0	0	514	616
9	0	0	0	0	514	616
10	0	0	0	0	513	616
11	0	0	0	0	513	615
12	0	0	0	0	514	616
13	0	0	0	0	515	615
14	0	0	0	0	515	615
15	0	0	0	0	517	615
0	0	0	0	0	517	615
1	0	0	0	0	517	615
2	0	0	0	0	516	615
3	0	0	0	0	516	615
4	0	0	0	0	515	616
5	0	0	0	0	514	615
6	0	0	0	0	513	616
7	0	0	0	0	512	615
8	0	0	0	0	512	615
9	0	0	0	0	514	615
10	0	0	0	0	515	615
11	0	0	0	0	517	615
12	0	0	0	0	519	616
13	0	0	0	0	520	615
14	0	0	0	0	522	615
15	0	0	0	0	524	615
0	0	0	0	0	525	615
1	0	0	0	0	527	615
2	0	0	0	0	528	615
3	0	0	0	0	529	615
4	0	0	0	0	530	616
5	0	0	0	0	531	615
6	0	0	0	0	532	615
7	0	0	0	0	532	615
8	0	0	0	0	532	616
9	0	0	0	0	531	615
10	0	0	0	0	530	615
11	0	0	0	0	529	615
12	0	0	0	0	528	615
13	0	0	0	0	527	615
14	0	0	0	0	527	615
15	0	0	0	0	527	615
0	0	0	0	0	527	615
1	0	0	0	0	526	615
2	0	0	0	0	525	615
3	0	0	0	0	525	615
4	0	0	0	0	524	616
5	0	0	0	0	523	615
6	0	0	0	0	523	615
7	0	0	0	0	523	615
8	0	0	0	0	523	615
9	0	0	0	0	523	615
10	0	0	0	0	523	615
11	0	0	0	0	523	615
12	0	0	0	0	524	615
13	0	0	0	0	524	616
14	0	0	0	0	524	615
15	0	0	0	0	524	615
0	0	0	0	0	524	615
1	0	0	0	0	524	615
2	0	0	0	0	524	615
3	0	0	0	0	524	615
4	0	0	0	0	524	616
5	0	0	0	0	524	616
6	0	0	0	0	524	615
7	0	0	0	0	525	615
8	0	0	0	0	525	615
9	0	0	0	0	526	615
10	0	0	0	0	527	616
11	0	0	0	0	527	615
12	0	0	0	0	527	616
13	0	0	0	0	527	616
14	0	0	0	0	526	616
15	0	0	0	0	526	616
0	0	0	0	0	526	615
1	0	0	0	0	525	616
2	0	0	0	0	525	615
3	0	0	0	0	524	615
4	0	0	0	0	523	616
5	0	0	0	0	523	616
6	0	0	0	0	522	616
7	0	0	0	0	523	616
8	0	0	0	0	523	615
9	0	0	0	0	522	615
10	0	0	0	0	522	616
11	0	0	0	0	522	616
12	0	0	0	0	521	616
13	0	0	0	0	521	616
14	0	0	0	0	522	615
15	0	0	0	0	521	615
0	0	0	0	0	520	616
1	0	0	0	0	520	615
2	0	0	0	0	521	616
3	0	0	0	0	520	616
4	0	0	0	0	519	616
5	0	0	0	0	519	616
6	0	0	0	0	519	616
7	0	0	0	0	517	616
8	0	0	0	0	516	616
9	0	0	0	0	515	616
10	0	0	0	0	515	616
11	0	0	0	0	515	616
12	0	0	0	0	515	616
13	0	0	0	0	515	616
14	0	0	0	0	516	615
15	0	0	0	0	516	616
0	0	0	0	0	516	615
1	0	0	0	0	517	616
2	0	0	0	0	517	616
3	0	0	0	0	517	616
4	0	0	0	0	515	616
5	0	0	0	0	513	616
6	0	0	0	0	510	616
7	0	0	0	0	506	616
8	0	0	0	0	501	615
9	0	0	0	0	495	615
10	0	0	0	0	488	615
11	0	0	0	0	481	615
12	0	0	0	0	472	615
13	0	0	0	0	463	615
14	0	0	0	0	455	615
15	0	0	0	0	448	615
0	0	0	0	0	443	615
1	0	0	0	0	440	615
2	0	0	0	0	438	615
3	0	0	0	0	436	615
4	0	0	0	0	434	615
5	0	0	0	0	431	615
6	0	0	0	0	429	615
7	0	0	0	0	430	615
8	0	0	0	0	435	615
9	0	0	0	0	445	615
10	0	0	0	0	456	615
11	0	0	0	0	472	615
12	0	0	0	0	490	616
13	0	0	0	0	513	615
14	0	0	0	0	545	615
15	0	0	0	0	583	615
0	0	0	0	0	627	615
1	0	0	0	0	672	615
2	0	0	0	0	720	615
3	0	0	0	0	766	615
4	0	0	0	0	811	615
5	0	0	0	0	857	615
6	0	0	0	0	911	615
7	0	0	0	0	970	615
8	0	0	0	0	1020	615
9	0	0	0	0	1022	615
10	0	0	0	0	1022	615
11	0	0	0	0	1022	615
12	0	0	0	0	1022	615
13	0	0	0	0	1022	615
14	0	0	0	0	1022	614
15	0	0	0	0	1022	615
0	0	0	0	0	1022	615
1	0	0	0	0	1022	615
2	0	0	0	0	1022	615
3	0	0	0	0	1022	615
4	0	0	0	0	1022	615
5	0	0	0	0	1022	615
6	0	0	0	0	1022	615
7	0	0	0	0	1022	615
8	0	0	0	0	1022	615
9	0	0	0	0	1022	615
10	0	0	0	0	1022	615
11	0	0	0	0	1021	615
12	0	0	0	0	961	615
13	0	0	0	0	899	615
14	0	0	0	0	835	615
15	0	0	0	0	772	615
0	0	0	0	0	715	616
1	0	0	0	0	661	615
2	0	0	0	0	614	615
3	0	0	0	0	574	616
4	0	0	0	0	542	616
5	0	0	0	0	514	616
6	0	0	0	0	490	616
7	0	0	0	0	469	616
8	0	0	0	0	450	616
9	0	0	0	0	435	616
10	0	0	0	0	422	616
11	0	0	0	0	409	616
12	0	0	0	0	398	616
13	0	0	0	0	388	616
14	0	0	0	0	380	616
15	0	0	0	0	372	616
0	0	0	0	0	365	616
1	0	0	0	0	359	616
2	0	0	0	0	352	616
3	0	0	0	0	347	615
4	0	0	0	0	343	617
5	0	0	0	0	338	616
6	0	0	0	0	333	615
7	0	0	0	0	329	616
8	0	0	0	0	326	616
9	0	0	0	0	323	615
10	0	0	0	0	320	616
11	0	0	0	0	318	615
12	0	0	0	0	316	616
13	0	0	0	0	314	615
14	0	0	0	0	313	616
15	0	0	0	0	312	615
0	0	0	0	0	311	615
1	0	0	0	0	311	615
2	0	0	0	0	311	616
3	0	0	0	0	312	615
4	0	0	0	0	313	615
5	0	0	0	0	314	615
6	0	0	0	0	315	615
7	0	0	0	0	317	616
8	0	0	0	0	318	615
9	0	0	0	0	319	615
10	0	0	0	0	320	615
11	0	0	0	0	321	615
12	0	0	0	0	322	615
13	0	0	0	0	322	615
14	0	0	0	0	323	615
15	0	0	0	0	323	615
0	0	0	0	0	323	615
1	0	0	0	0	324	615
2	0	0	0	0	325	615
3	0	0	0	0	326	615
4	0	0	0	0	327	615
5	0	0	0	0	328	615
6	0	0	0	0	329	615
7	0	0	0	0	331	615
8	0	0	0	0	332	615
9	0	0	0	0	334	615
10	0	0	0	0	336	615
11	0	0	0	0	338	615
12	0	0	0	0	341	615
13	0	0	0	0	343	615
14	0	0	0	0	344	615
15	0	0	0	0	345	615
0	0	0	0	0	346	615
1	0	0	0	0	347	615
2	0	0	0	0	347	615
3	0	0	0	0	348	615
4	0	0	0	0	348	615
5	0	0	0	0	348	615
6	0	0	0	0	348	615
7	0	0	0	0	348	614
8	0	0	0	0	350	615
9	0	0	0	0	351	615
10	0	0	0	0	352	615
11	0	0	0	0	353	615
12	0	0	0	0	355	615
13	0	0	0	0	355	615
14	0	0	0	0	356	615
15	0	0	0	0	358	615
0	0	0	0	0	359	615
1	0	0	0	0	360	615
2	0	0	0	0	361	615
3	0	0	0	0	362	615
4	0	0	0	0	364	615
5	0	0	0	0	364	615
6	0	0	0	0	365	615
7	0	0	0	0	365	616
8	0	0	0	0	367	616
9	0	0	0	0	367	615
10	0	0	0	0	368	615
11	0	0	0	0	368	615
12	0	0	0	0	369	616
13	0	0	0	0	370	615
14	0	0	0	0	371	615
15	0	0	0	0	371	615
0	0	0	0	0	372	616
1	0	0	0	0	373	615
2	0	0	0	0	374	616
3	0	0	0	0	375	615
4	0	0	0	0	375	616
5	0	0	0	0	376	615
6	0	0	0	0	377	615
7	0	0	0	0	377	615
8	0	0	0	0	379	615
9	0	0	0	0	379	615
10	0	0	0	0	379	615
11	0	0	0	0	379	616
12	0	0	0	0	379	616
13	0	0	0	0	379	615
14	0	0	0	0	379	616
15	0	0	0	0	379	615
0	0	0	0	0	379	615
1	0	0	0	0	378	616
2	0	0	0	0	378	615
3	0	0	0	0	377	616
4	0	0	0	0	377	616
5	0	0	0	0	378	616
6	0	0	0	0	379	616
7	0	0	0	0	379	615
8	0	0	0	0	379	616
9	0	0	0	0	378	616
10	0	0	0	0	377	616
11	0	0	0	0	377	615
12	0	0	0	0	376	616
13	0	0	0	0	375	615
14	0	0	0	0	375	616
15	0	0	0	0	374	616
0	0	0	0	0	373	615
1	0	0	0	0	372	616
2	0	0	0	0	372	615
3	0	0	0	0	371	616
4	0	0	0	0	370	616
5	0	0	0	0	369	616
6	0	0	0	0	368	616
7	0	0	0	0	367	615
8	0	0	0	0	366	615
9	0	0	0	0	366	615
10	0	0	0	0	365	616
11	0	0	0	0	363	616
12	0	0	0	0	362	616
13	0	0	0	0	361	615
14	0	0	0	0	361	616
15	0	0	0	0	359	616
0	0	0	0	0	359	615
1	0	0	0	0	358	615
2	0	0	0	0	356	615
3	0	0	0	0	355	615
4	0	0	0	0	353	616
5	0	0	0	0	352	616
6	0	0	0	0	352	616
7	0	0	0	0	352	616
8	0	0	0	0	351	615
9	0	0	0	0	351	616
10	0	0	0	0	350	616
11	0	0	0	0	351	615
12	0	0	0	0	350	616
13	0	0	0	0	351	615
14	0	0	0	0	352	616
15	0	0	0	0	353	616
0	0	0	0	0	353	615
1	0	0	0	0	354	616
2	0	0	0	0	355	615
3	0	0	0	0	355	615
4	0	0	0	0	356	616
5	0	0	0	0	356	615
6	0	0	0	0	357	616
7	0	0	0	0	358	616
8	0	0	0	0	359	615
9	0	0	0	0	360	615
10	0	0	0	0	362	616
11	0	0	0	0	364	616
12	0	0	0	0	366	617
13	0	0	0	0	368	616
14	0	0	0	0	371	616
15	0	0	0	0	374	616
0	0	0	0	0	376	616
1	0	0	0	0	380	617
2	0	0	0	0	382	616
3	0	0	0	0	385	616
4	0	0	0	0	387	616
5	0	0	0	0	390	616
6	0	0	0	0	393	616
7	0	0	0	0	395	616
8	0	0	0	0	398	617
9	0	0	0	0	401	617
10	0	0	0	0	403	617
11	0	0	0	0	406	616
12	0	0	0	0	409	616
13	0	0	0	0	412	616
14	0	0	0	0	415	615
15	0	0	0	0	418	616
0	0	0	0	0	421	615
1	0	0	0	0	425	616
2	0	0	0	0	430	615
3	0	0	0	0	434	616
4	0	0	0	0	438	615
5	0	0	0	0	443	615
6	0	0	0	0	447	615
7	0	0	0	0	452	616
8	0	0	0	0	457	615
9	0	0	0	0	462	616
10	0	0	0	0	467	616
11	0	0	0	0	471	615
12	0	0	0	0	474	616
13	0	0	0	0	478	616
14	0	0	0	0	481	615
15	0	0	0	0	485	615
0	0	0	0	0	488	615
1	0	0	0	0	492	615
2	0	0	0	0	495	615
3	0	0	0	0	499	616
4	0	0	0	0	502	616
5	0	0	0	0	506	615
6	0	0	0	0	510	615
7	0	0	0	0	514	615
8	0	0	0	0	518	615
9	0	0	0	0	523	615
10	0	0	0	0	527	615
11	0	0	0	0	531	615
12	0	0	0	0	534	615
13	0	0	0	0	536	615
14	0	0	0	0	539	615
15	0	0	0	0	542	615
0	0	0	0	0	544	615
1	0	0	0	0	546	615
2	0	0	0	0	547	615
3	0	0	0	0	549	615
4	0	0	0	0	551	616
5	0	0	0	0	552	615
6	0	0	0	0	554	615
7	0	0	0	0	556	615
8	0	0	0	0	558	615
9	0	0	0	0	560	615
10	0	0	0	0	563	615
11	0	0	0	0	565	615
12	0	0	0	0	568	615
13	0	0	0	0	571	615
14	0	0	0	0	572	615
15	0	0	0	0	574	615
0	0	0	0	0	576	615
1	0	0	0	0	577	615
2	0	0	0	0	578	614
3	0	0	0	0	579	615
4	0	0	0	0	580	616
5	0	0	0	0	581	615
6	0	0	0	0	582	615
7	0	0	0	0	582	615
8	0	0	0	0	583	615
9	0	0	0	0	583	615
10	0	0	0	0	582	615
11	0	0	0	0	583	615
12	0	0	0	0	582	615
13	0	0	0	0	582	615
14	0	0	0	0	582	615
15	0	0	0	0	582	615
0	0	0	0	0	582	615
1	0	0	0	0	583	615
2	0	0	0	0	583	615
3	0	0	0	0	583	616
4	0	0	0	0	583	616
5	0	0	0	0	583	615
6	0	0	0	0	583	615
7	0	0	0	0	583	615
8	0	0	0	0	582	615
9	0	0	0	0	581	615
10	0	0	0	0	580	615
11	0	0	0	0	579	615
12	0	0	0	0	578	615
13	0	0	0	0	578	615
14	0	0	0	0	577	615
15	0	0	0	0	577	616
0	0	0	0	0	577	615
1	0	0	0	0	577	616
2	0	0	0	0	576	616
3	0	0	0	0	577	616
4	0	0	0	0	576	617
5	0	0	0	0	575	615
6	0	0	0	0	575	616
7	0	0	0	0	575	616
8	0	0	0	0	574	615
9	0	0	0	0	574	615
10	0	0	0	0	573	616
11	0	0	0	0	572	615
12	0	0	0	0	571	616
13	0	0	0	0	571	615
14	0	0	0	0	570	615
15	0	0	0	0	569	616
0	0	0	0	0	568	616
1	0	0	0	0	568	616
2	0	0	0	0	567	615
3	0	0	0	0	567	616
4	0	0	0	0	566	616
5	0	0	0	0	565	616
6	0	0	0	0	565	616
7	0	0	0	0	565	616
8	0	0	0	0	566	617
9	0	0	0	0	566	617
10	0	0	0	0	566	616
11	0	0	0	0	565	617
12	0	0	0	0	564	617
13	0	0	0	0	564	616
14	0	0	0	0	563	616
15	0	0	0	0	561	616
0	0	0	0	0	561	616
1	0	0	0	0	559	616
2	0	0	0	0	558	615
3	0	0	0	0	557	615
4	0	0	0	0	556	616
5	0	0	0	0	556	615
6	0	0	0	0	555	615
7	0	0	0	0	555	616
8	0	0	0	0	554	616
9	0	0	0	0	554	616
10	0	0	0	0	553	615
11	0	0	0	0	553	616
12	0	0	0	0	553	616
13	0	0	0	0	553	616
14	0	0	0	0	553	616
15	0	0	0	0	553	616
0	0	0	0	0	553	616
1	0	0	0	0	553	616
2	0	0	0	0	552	616
3	0	0	0	0	551	616
4	0	0	0	0	551	616
5	0	0	0	0	550	615
6	0	0	0	0	549	615
7	0	0	0	0	548	615
8	0	0	0	0	548	615
9	0	0	0	0	548	615
10	0	0	0	0	547	615
11	0	0	0	0	548	615
12	0	0	0	0	547	616
13	0	0	0	0	547	615
14	0	0	0	0	548	615
15	0	0	0	0	548	615
0	0	0	0	0	548	615
1	0	0	0	0	549	615
2	0	0	0	0	550	615
3	0	0	0	0	550	615
4	0	0	0	0	550	615
5	0	0	0	0	549	615
6	0	0	0	0	549	615
7	0	0	0	0	549	615
8	0	0	0	0	550	616
9	0	0	0	0	548	615
10	0	0	0	0	547	615
11	0	0	0	0	546	615
12	0	0	0	0	545	615
13	0	0	0	0	545	615
14	0	0	0	0	544	615
15	0	0	0	0	544	615
0	0	0	0	0	545	616
1	0	0	0	0	546	615
2	0	0	0	0	547	616
3	0	0	0	0	547	616
4	0	0	0	0	547	616
5	0	0	0	0	547	615
6	0	0	0	0	547	616
7	0	0	0	0	547	616
8	0	0	0	0	547	615
9	0	0	0	0	547	616
10	0	0	0	0	547	615
11	0	0	0	0	547	615
12	0	0	0	0	546	616
13	0	0	0	0	545	615
14	0	0	0	0	544	615
15	0	0	0	0	543	615
0	0	0	0	0	544	616
1	0	0	0	0	544	615
2	0	0	0	0	544	615
3	0	0	0	0	545	615
4	0	0	0	0	545	616
5	0	0	0	0	545	615
6	0	0	0	0	545	615
7	0	0	0	0	546	615
8	0	0	0	0	546	615
9	0	0	0	0	546	615
10	0	0	0	0	546	615
11	0	0	0	0	547	615
12	0	0	0	0	547	616
13	0	0	0	0	547	615
14	0	0	0	0	547	615
15	0	0	0	0	547	615
0	0	0	0	0	547	616
1	0	0	0	0	545	615
2	0	0	0	0	545	616
3	0	0	0	0	544	615
4	0	0	0	0	544	616
5	0	0	0	0	544	616
6	0	0	0	0	544	616
7	0	0	0	0	544	615
8	0	0	0	0	543	615
9	0	0	0	0	544	615
10	0	0	0	0	543	616
11	0	0	0	0	544	616
12	0	0	0	0	545	616
13	0	0	0	0	544	615
14	0	0	0	0	545	615
15	0	0	0	0	545	616
0	0	0	0	0	546	616
1	0	0	0	0	547	616
2	0	0	0	0	547	616
3	0	0	0	0	548	616
4	0	0	0	0	547	615
5	0	0	0	0	547	616
6	0	0	0	0	547	615
7	0	0	0	0	546	615
8	0	0	0	0	547	615
9	0	0	0	0	546	616
10	0	0	0	0	546	616
11	0	0	0	0	545	616
12	0	0	0	0	546	616
13	0	0	0	0	545	616
14	0	0	0	0	545	615
15	0	0	0	0	545	616
0	0	0	0	0	545	615
1	0	0	0	0	546	616
2	0	0	0	0	546	615
3	0	0	0	0	547	615
4	0	0	0	0	546	615
5	0	0	0	0	545	615
6	0	0	0	0	545	616
7	0	0	0	0	544	615
8	0	0	0	0	544	615
9	0	0	0	0	543	615
10	0	0	0	0	543	615
11	0	0	0	0	542	615
12	0	0	0	0	541	616
13	0	0	0	0	540	615
14	0	0	0	0	540	615
15	0	0	0	0	540	615
0	0	0	0	0	539	615
1	0	0	0	0	539	615
2	0	0	0	0	539	615
3	0	0	0	0	538	616
4	0	0	0	0	538	616
5	0	0	0	0	537	615
6	0	0	0	0	536	616
7	0	0	0	0	536	615
8	0	0	0	0	535	615
9	0	0	0	0	535	615
10	0	0	0	0	534	616
11	0	0	0	0	533	616
12	0	0	0	0	533	616
13	0	0	0	0	532	615
14	0	0	0	0	531	615
15	0	0	0	0	530	616
0	0	0	0	0	529	615
1	0	0	0	0	528	615
2	0	0	0	0	527	615
3	0	0	0	0	527	615
4	0	0	0	0	526	616
5	0	0	0	0	525	615
6	0	0	0	0	525	615
7	0	0	0	0	525	615
8	0	0	0	0	525	615
9	0	0	0	0	524	615
10	0	0	0	0	523	615
11	0	0	0	0	523	616
12	0	0	0	0	523	616
13	0	0	0	0	521	616
14	0	0	0	0	521	616
15	0	0	0	0	521	615
0	0	0	0	0	521	615
1	0	0	0	0	521	616
2	0	0	0	0	522	616
3	0	0	0	0	522	616
4	0	0	0	0	523	616
5	0	0	0	0	523	616
6	0	0	0	0	525	615
7	0	0	0	0	527	616
8	0	0	0	0	528	616
9	0	0	0	0	530	616
10	0	0	0	0	532	615
11	0	0	0	0	534	615
12	0	0	0	0	536	615
13	0	0	0	0	537	615
14	0	0	0	0	538	616
15	0	0	0	0	538	615
0	0	0	0	0	539	615
1	0	0	0	0	538	616
2	0	0	0	0	537	615
3	0	0	0	0	537	615
4	0	0	0	0	537	615
5	0	0	0	0	536	615
6	0	0	0	0	536	615
7	0	0	0	0	535	615
8	0	0	0	0	535	615
9	0	0	0	0	535	615
10	0	0	0	0	536	615
11	0	0	0	0	535	615
12	0	0	0	0	534	616
13	0	0	0	0	533	615
14	0	0	0	0	532	615
15	0	0	0	0	532	615
0	0	0	0	0	532	616
1	0	0	0	0	531	616
2	0	0	0	0	532	615
3	0	0	0	0	532	615
4	0	0	0	0	532	616
5	0	0	0	0	532	615
6	0	0	0	0	533	615
7	0	0	0	0	533	616
8	0	0	0	0	533	616
9	0	0	0	0	532	616
10	0	0	0	0	532	616
11	0	0	0	0	532	616
12	0	0	0	0	531	616
13	0	0	0	0	531	616
14	0	0	0	0	531	616
15	0	0	0	0	531	616
0	0	0	0	0	531	616
1	0	0	0	0	531	616
2	0	0	0	0	531	615
3	0	0	0	0	532	615
4	0	0	0	0	532	616
5	0	0	0	0	533	616
6	0	0	0	0	534	615
7	0	0	0	0	534	616
8	0	0	0	0	534	615
9	0	0	0	0	534	616
10	0	0	0	0	534	616
11	0	0	0	0	534	616
12	0	0	0	0	533	617
13	0	0	0	0	533	616
14	0	0	0	0	532	616
15	0	0	0	0	531	616
0	0	0	0	0	531	616
1	0	0	0	0	531	616
2	0	0	0	0	531	617
3	0	0	0	0	530	616
4	0	0	0	0	529	616
5	0	0	0	0	529	616
6	0	0	0	0	529	615
7	0	0	0	0	529	616
8	0	0	0	0	529	616
9	0	0	0	0	529	615
10	0	0	0	0	529	615
11	0	0	0	0	529	616
12	0	0	0	0	529	616
13	0	0	0	0	529	616
14	0	0	0	0	528	615
15	0	0	0	0	528	615
0	0	0	0	0	527	616
1	0	0	0	0	526	616
2	0	0	0	0	525	616
3	0	0	0	0	524	616
4	0	0	0	0	524	616
5	0	0	0	0	524	616
6	0	0	0	0	524	616
7	0	0	0	0	524	616
8	0	0	0	0	524	615
9	0	0	0	0	524	616
10	0	0	0	0	524	615
11	0	0	0	0	524	616
12	0	0	0	0	523	616
13	0	0	0	0	523	615
14	0	0	0	0	522	615
15	0	0	0	0	521	615
0	0	0	0	0	520	615
1	0	0	0	0	519	615
2	0	0	0	0	516	615
3	0	0	0	0	512	615
4	0	0	0	0	508	616
5	0	0	0	0	502	615
6	0	0	0	0	494	616
7	0	0	0	0	486	615
8	0	0	0	0	479	616
9	0	0	0	0	472	615
10	0	0	0	0	464	615
11	0	0	0	0	459	615
12	0	0	0	0	454	615
13	0	0	0	0	451	615
14	0	0	0	0	448	615
15	0	0	0	0	444	615
0	0	0	0	0	439	615
1	0	0	0	0	435	615
2	0	0	0	0	435	615
3	0	0	0	0	439	615
4	0	0	0	0	445	617
5	0	0	0	0	454	616
6	0	0	0	0	466	615
7	0	0	0	0	481	615
8	0	0	0	0	503	615
9	0	0	0	0	532	615
10	0	0	0	0	568	616
11	0	0	0	0	612	615
12	0	0	0	0	659	615
13	0	0	0	0	707	615
14	0	0	0	0	753	615
15	0	0	0	0	799	615
0	0	0	0	0	850	615
1	0	0	0	0	909	615
2	0	0	0	0	968	615
3	0	0	0	0	1018	615
4	0	0	0	0	1022	616
5	0	0	0	0	1022	615
6	0	0	0	0	1022	615
7	0	0	0	0	1022	615
8	0	0	0	0	1022	615
9	0	0	0	0	1022	615
10	0	0	0	0	1022	615
11	0	0	0	0	1022	615
12	0	0	0	0	1022	615
13	0	0	0	0	1022	615
14	0	0	0	0	1022	615
15	0	0	0	0	1022	615
0	0	0	0	0	1022	615
1	0	0	0	0	1022	615
2	0	0	0	0	1022	615
3	0	0	0	0	1022	615
4	0	0	0	0	1022	616
5	0	0	0	0	1022	616
6	0	0	0	0	1021	615
7	0	0	0	0	959	615
8	0	0	0	0	894	616
9	0	0	0	0	830	616
10	0	0	0	0	770	616
11	0	0	0	0	713	616
12	0	0	0	0	660	616
13	0	0	0	0	616	615
14	0	0	0	0	579	616
15	0	0	0	0	548	616
0	0	0	0	0	522	616
1	0	0	0	0	499	616
2	0	0	0	0	479	616
3	0	0	0	0	462	616
4	0	0	0	0	446	616
5	0	0	0	0	432	616
6	0	0	0	0	420	616
7	0	0	0	0	409	616
8	0	0	0	0	398	616
9	0	0	0	0	388	616
10	0	0	0	0	379	616
11	0	0	0	0	372	616
12	0	0	0	0	366	616
13	0	0	0	0	360	616
14	0	0	0	0	356	616
15	0	0	0	0	351	616
0	0	0	0	0	346	616
1	0	0	0	0	342	616
2	0	0	0	0	338	615
3	0	0	0	0	335	615
4	0	0	0	0	332	615
5	0	0	0	0	329	615
6	0	0	0	0	327	615
7	0	0	0	0	325	615
8	0	0	0	0	323	615
9	0	0	0	0	322	615
10	0	0	0	0	321	615
11	0	0	0	0	320	615
12	0	0	0	0	320	616
13	0	0	0	0	319	615
14	0	0	0	0	319	615
15	0	0	0	0	319	616
0	0	0	0	0	319	615
1	0	0	0	0	320	615
2	0	0	0	0	321	615
3	0	0	0	0	322	616
4	0	0	0	0	323	616
5	0	0	0	0	325	615
6	0	0	0	0	326	615
7	0	0	0	0	327	615
8	0	0	0	0	328	615
9	0	0	0	0	329	615
10	0	0	0	0	329	615
11	0	0	0	0	330	615
12	0	0	0	0	330	616
13	0	0	0	0	331	615
14	0	0	0	0	331	615
15	0	0	0	0	332	615
0	0	0	0	0	332	615
1	0	0	0	0	333	616
2	0	0	0	0	335	615
3	0	0	0	0	336	615
4	0	0	0	0	338	615
5	0	0	0	0	340	615
6	0	0	0	0	342	615
7	0	0	0	0	343	615
8	0	0	0	0	344	615
9	0	0	0	0	344	615
10	0	0	0	0	345	615
11	0	0	0	0	346	615
12	0	0	0	0	347	616
13	0	0	0	0	348	615
14	0	0	0	0	348	615
15	0	0	0	0	348	615
0	0	0	0	0	349	616
1	0	0	0	0	350	616
2	0	0	0	0	351	616
3	0	0	0	0	352	616
4	0	0	0	0	354	616
5	0	0	0	0	355	615
6	0	0	0	0	358	615
7	0	0	0	0	359	616
8	0	0	0	0	359	616
9	0	0	0	0	361	615
10	0	0	0	0	363	616
11	0	0	0	0	365	615
12	0	0	0	0	367	616
13	0	0	0	0	368	616
14	0	0	0	0	369	616
15	0	0	0	0	371	616
0	0	0	0	0	372	616
1	0	0	0	0	372	615
2	0	0	0	0	372	616
3	0	0	0	0	372	616
4	0	0	0	0	372	616
5	0	0	0	0	372	616
6	0	0	0	0	374	616
7	0	0	0	0	374	616
8	0	0	0	0	376	615
9	0	0	0	0	376	616
10	0	0	0	0	377	616
11	0	0	0	0	378	616
12	0	0	0	0	378	616
13	0	0	0	0	379	616
14	0	0	0	0	379	615
15	0	0	0	0	380	616
0	0	0	0	0	379	615
1	0	0	0	0	380	615
2	0	0	0	0	380	615
3	0	0	0	0	380	615
4	0	0	0	0	380	616
5	0	0	0	0	380	616
6	0	0	0	0	380	616
7	0	0	0	0	380	615
8	0	0	0	0	379	616
9	0	0	0	0	379	615
10	0	0	0	0	380	615
11	0	0	0	0	379	615
12	0	0	0	0	380	615
13	0	0	0	0	380	615
14	0	0	0	0	379	616
15	0	0	0	0	379	616
0	0	0	0	0	379	615
1	0	0	0	0	379	615
2	0	0	0	0	379	615
3	0	0	0	0	380	615
4	0	0	0	0	379	616
5	0	0	0	0	379	615
6	0	0	0	0	378	615
7	0	0	0	0	377	615
8	0	0	0	0	377	615
9	0	0	0	0	376	615
10	0	0	0	0	375	615
11	0	0	0	0	374	615
12	0	0	0	0	372	615
13	0	0	0	0	371	615
14	0	0	0	0	369	615
15	0	0	0	0	368	615
0	0	0	0	0	367	615
1	0	0	0	0	367	615
2	0	0	0	0	365	615
3	0	0	0	0	364	615
4	0	0	0	0	364	615
5	0	0	0	0	364	615
6	0	0	0	0	363	615
7	0	0	0	0	362	615
8	0	0	0	0	360	615
9	0	0	0	0	359	615
10	0	0	0	0	358	615
11	0	0	0	0	357	615
12	0	0	0	0	355	615
13	0	0	0	0	353	615
14	0	0	0	0	352	614
15	0	0	0	0	351	615
0	0	0	0	0	349	615
1	0	0	0	0	347	615
2	0	0	0	0	346	614
3	0	0	0	0	345	615
4	0	0	0	0	345	616
5	0	0	0	0	345	616
6	0	0	0	0	345	615
7	0	0	0	0	345	616
8	0	0	0	0	346	616
9	0	0	0	0	347	616
10	0	0	0	0	348	616
11	0	0	0	0	348	617
12	0	0	0	0	349	617
13	0	0	0	0	350	617
14	0	0	0	0	351	617
15	0	0	0	0	352	617
0	0	0	0	0	353	617
1	0	0	0	0	354	617
2	0	0	0	0	354	617
3	0	0	0	0	354	617
4	0	0	0	0	355	616
5	0	0	0	0	357	616
6	0	0	0	0	359	615
7	0	0	0	0	361	615
8	0	0	0	0	364	615
9	0	0	0	0	368	615
10	0	0	0	0	371	614
11	0	0	0	0	374	614
12	0	0	0	0	378	615
13	0	0	0	0	382	615
14	0	0	0	0	385	615
15	0	0	0	0	387	615
0	0	0	0	0	391	615
1	0	0	0	0	393	616
2	0	0	0	0	396	616
3	0	0	0	0	400	616
4	0	0	0	0	403	617
5	0	0	0	0	406	617
6	0	0	0	0	409	616
7	0	0	0	0	412	617
8	0	0	0	0	415	617
9	0	0	0	0	419	616
10	0	0	0	0	422	617
11	0	0	0	0	426	616
12	0	0	0	0	430	617
13	0	0	0	0	434	616
14	0	0	0	0	438	617
15	0	0	0	0	442	617
0	0	0	0	0	447	616
1	0	0	0	0	450	616
2	0	0	0	0	454	616
3	0	0	0	0	459	616
4	0	0	0	0	463	616
5	0	0	0	0	467	616
6	0	0	0	0	471	615
7	0	0	0	0	475	616
8	0	0	0	0	479	616
9	0	0	0	0	482	616
10	0	0	0	0	486	617
11	0	0	0	0	489	616
12	0	0	0	0	494	617
13	0	0	0	0	497	617
14	0	0	0	0	502	617
15	0	0	0	0	505	617
0	0	0	0	0	508	617
1	0	0	0	0	512	617
2	0	0	0	0	515	617
3	0	0	0	0	519	617
4	0	0	0	0	523	617
5	0	0	0	0	527	617
6	0	0	0	0	531	616
7	0	0	0	0	534	616
8	0	0	0	0	537	616
9	0	0	0	0	540	616
10	0	0	0	0	543	615
11	0	0	0	0	545	616
12	0	0	0	0	546	615
13	0	0	0	0	548	615
14	0	0	0	0	551	615
15	0	0	0	0	553	615
0	0	0	0	0	555	615
1	0	0	0	0	557	615
2	0	0	0	0	560	615
3	0	0	0	0	562	615
4	0	0	0	0	564	616
5	0	0	0	0	566	615
6	0	0	0	0	569	615
7	0	0	0	0	571	615
8	0	0	0	0	574	615
9	0	0	0	0	575	615
10	0	0	0	0	577	615
11	0	0	0	0	580	615
12	0	0	0	0	581	615
13	0	0	0	0	583	615
14	0	0	0	0	585	615
15	0	0	0	0	587	615
0	0	0	0	0	588	615
1	0	0	0	0	589	615
2	0	0	0	0	590	615
3	0	0	0	0	590	615
4	0	0	0	0	590	615
5	0	0	0	0	590	615
6	0	0	0	0	590	615
7	0	0	0	0	590	615
8	0	0	0	0	591	615
9	0	0	0	0	591	615
10	0	0	0	0	591	615
11	0	0	0	0	590	615
12	0	0	0	0	590	616
13	0	0	0	0	590	615
14	0	0	0	0	590	615
15	0	0	0	0	589	615
0	0	0	0	0	588	615
1	0	0	0	0	588	615
2	0	0	0	0	589	615
3	0	0	0	0	588	615
4	0	0	0	0	589	615
5	0	0	0	0	588	616
6	0	0	0	0	587	615
7	0	0	0	0	587	615
8	0	0	0	0	586	615
9	0	0	0	0	585	615
10	0	0	0	0	585	616
11	0	0	0	0	584	616
12	0	0	0	0	584	616
13	0	0	0	0	584	616
14	0	0	0	0	583	616
15	0	0	0	0	582	616
0	0	0	0	0	581	616
1	0	0	0	0	581	616
2	0	0	0	0	580	616
3	0	0	0	0	580	616
4	0	0	0	0	580	616
5	0	0	0	0	579	617
6	0	0	0	0	579	616
7	0	0	0	0	577	616
8	0	0	0	0	575	617
9	0	0	0	0	574	617
10	0	0	0	0	574	617
11	0	0	0	0	574	617
12	0	0	0	0	572	617
13	0	0	0	0	571	616
14	0	0	0	0	570	617
15	0	0	0	0	569	616
0	0	0	0	0	569	617
1	0	0	0	0	568	617
2	0	0	0	0	568	618
3	0	0	0	0	567	617
4	0	0	0	0	567	617
5	0	0	0	0	567	617
6	0	0	0	0	567	616
7	0	0	0	0	567	617
8	0	0	0	0	566	617
9	0	0	0	0	566	617
10	0	0	0	0	565	617
11	0	0	0	0	564	616
12	0	0	0	0	564	617
13	0	0	0	0	564	617
14	0	0	0	0	563	617
15	0	0	0	0	563	617
0	0	0	0	0	562	617
1	0	0	0	0	561	617
2	0	0	0	0	560	617
3	0	0	0	0	559	617
4	0	0	0	0	559	617
5	0	0	0	0	558	616
6	0	0	0	0	558	617
7	0	0	0	0	559	616
8	0	0	0	0	558	616
9	0	0	0	0	558	616
10	0	0	0	0	557	617
11	0	0	0	0	558	617
12	0	0	0	0	557	617
13	0	0	0	0	557	616
14	0	0	0	0	556	616
15	0	0	0	0	555	616
0	0	0	0	0	555	615
1	0	0	0	0	554	616
2	0	0	0	0	553	615
3	0	0	0	0	553	616
4	0	0	0	0	553	616
5	0	0	0	0	552	616
6	0	0	0	0	551	616
7	0	0	0	0	551	615
8	0	0	0	0	552	615
9	0	0	0	0	552	615
10	0	0	0	0	553	615
11	0	0	0	0	554	615
12	0	0	0	0	554	615
13	0	0	0	0	554	615
14	0	0	0	0	553	615
15	0	0	0	0	552	615
0	0	0	0	0	551	615
1	0	0	0	0	551	615
2	0	0	0	0	551	615
3	0	0	0	0	550	615
4	0	0	0	0	551	615
5	0	0	0	0	551	615
6	0	0	0	0	550	615
7	0	0	0	0	550	615
8	0	0	0	0	549	615
9	0	0	0	0	550	615
10	0	0	0	0	549	615
11	0	0	0	0	549	614
12	0	0	0	0	550	616
13	0	0	0	0	549	614
14	0	0	0	0	549	615
15	0	0	0	0	548	615
0	0	0	0	0	549	615
1	0	0	0	0	550	615
2	0	0	0	0	550	615
3	0	0	0	0	550	615
4	0	0	0	0	550	615
5	0	0	0	0	550	615
6	0	0	0	0	550	615
7	0	0	0	0	549	615
8	0	0	0	0	550	615
9	0	0	0	0	549	615
10	0	0	0	0	548	615
11	0	0	0	0	547	614
12	0	0	0	0	547	615
13	0	0	0	0	546	615
14	0	0	0	0	546	615
15	0	0	0	0	545	615
0	0	0	0	0	545	615
1	0	0	0	0	545	615
2	0	0	0	0	544	615
3	0	0	0	0	545	615
4	0	0	0	0	545	615
5	0	0	0	0	545	615
6	0	0	0	0	546	615
7	0	0	0	0	547	615
8	0	0	0	0	547	615
9	0	0	0	0	547	615
10	0	0	0	0	548	615
11	0	0	0	0	548	615
12	0	0	0	0	547	615
13	0	0	0	0	547	615
14	0	0	0	0	545	615
15	0	0	0	0	544	615
0	0	0	0	0	544	615
1	0	0	0	0	544	616
2	0	0	0	0	544	616
3	0	0	0	0	544	615
4	0	0	0	0	544	617
5	0	0	0	0	545	616
6	0	0	0	0	544	616
7	0	0	0	0	543	616
8	0	0	0	0	543	615
9	0	0	0	0	543	615
10	0	0	0	0	544	616
11	0	0	0	0	545	616
12	0	0	0	0	544	616
13	0	0	0	0	544	616
14	0	0	0	0	543	616
15	0	0	0	0	543	616
0	0	0	0	0	543	616
1	0	0	0	0	543	617
2	0	0	0	0	542	617
3	0	0	0	0	540	617
4	0	0	0	0	540	618
5	0	0	0	0	539	617
6	0	0	0	0	538	617
7	0	0	0	0	538	617
8	0	0	0	0	537	616
9	0	0	0	0	537	616
10	0	0	0	0	537	616
11	0	0	0	0	537	616
12	0	0	0	0	537	616
13	0	0	0	0	538	616
14	0	0	0	0	538	616
15	0	0	0	0	538	616
0	0	0	0	0	538	616
1	0	0	0	0	539	616
2	0	0	0	0	539	616
3	0	0	0	0	539	616
4	0	0	0	0	539	616
5	0	0	0	0	538	616
6	0	0	0	0	539	616
7	0	0	0	0	537	616
8	0	0	0	0	535	616
9	0	0	0	0	534	616
10	0	0	0	0	532	616
11	0	0	0	0	532	616
12	0	0	0	0	532	617
13	0	0	0	0	531	616
14	0	0	0	0	531	616
15	0	0	0	0	532	616
0	0	0	0	0	531	615
1	0	0	0	0	531	616
2	0	0	0	0	530	615
3	0	0	0	0	530	615
4	0	0	0	0	531	616
5	0	0	0	0	531	615
6	0	0	0	0	530	615
7	0	0	0	0	528	615
8	0	0	0	0	527	615
9	0	0	0	0	526	615
10	0	0	0	0	524	615
11	0	0	0	0	523	616
12	0	0	0	0	520	616
13	0	0	0	0	519	615
14	0	0	0	0	518	615
15	0	0	0	0	518	616
0	0	0	0	0	517	616
1	0	0	0	0	516	615
2	0	0	0	0	516	616
3	0	0	0	0	517	615
4	0	0	0	0	518	615
5	0	0	0	0	519	615
6	0	0	0	0	519	615
7	0	0	0	0	519	615
8	0	0	0	0	519	615
9	0	0	0	0	519	616
10	0	0	0	0	518	615
11	0	0	0	0	517	616
12	0	0	0	0	516	616
13	0	0	0	0	515	615
14	0	0	0	0	516	616
15	0	0	0	0	516	615
0	0	0	0	0	516	615
1	0	0	0	0	517	616
2	0	0	0	0	518	615
3	0	0	0	0	518	616
4	0	0	0	0	519	616
5	0	0	0	0	521	616
6	0	0	0	0	523	616
7	0	0	0	0	525	616
8	0	0	0	0	527	616
9	0	0	0	0	529	616
10	0	0	0	0	531	616
11	0	0	0	0	534	616
12	0	0	0	0	535	616
13	0	0	0	0	535	615
14	0	0	0	0	535	616
15	0	0	0	0	536	616
0	0	0	0	0	536	616
1	0	0	0	0	536	616
2	0	0	0	0	535	615
3	0	0	0	0	534	616
4	0	0	0	0	534	616
5	0	0	0	0	534	615
6	0	0	0	0	532	616
7	0	0	0	0	531	617
8	0	0	0	0	530	616
9	0	0	0	0	529	617
10	0	0	0	0	528	617
11	0	0	0	0	526	616
12	0	0	0	0	525	616
13	0	0	0	0	525	616
14	0	0	0	0	524	616
15	0	0	0	0	525	616
0	0	0	0	0	526	616
1	0	0	0	0	526	616
2	0	0	0	0	526	615
3	0	0	0	0	526	616
4	0	0	0	0	527	617
5	0	0	0	0	527	616
6	0	0	0	0	527	616
7	0	0	0	0	528	616
8	0	0	0	0	528	616
9	0	0	0	0	528	616
10	0	0	0	0	529	616
11	0	0	0	0	529	616
12	0	0	0	0	529	616
13	0	0	0	0	529	616
14	0	0	0	0	530	616
15	0	0	0	0	530	616
0	0	0	0	0	530	615
1	0	0	0	0	531	616
2	0	0	0	0	531	616
3	0	0	0	0	531	616
4	0	0	0	0	530	616
5	0	0	0	0	530	615
6	0	0	0	0	529	616
7	0	0	0	0	529	616
8	0	0	0	0	528	616
9	0	0	0	0	527	616
10	0	0	0	0	527	616
11	0	0	0	0	526	615
12	0	0	0	0	526	616
13	0	0	0	0	526	615
14	0	0	0	0	526	615
15	0	0	0	0	525	616
0	0	0	0	0	525	615
1	0	0	0	0	525	615
2	0	0	0	0	525	615
3	0	0	0	0	525	615
4	0	0	0	0	524	616
5	0	0	0	0	524	615
6	0	0	0	0	525	615
7	0	0	0	0	524	616
8	0	0	0	0	524	615
9	0	0	0	0	524	616
10	0	0	0	0	524	616
11	0	0	0	0	524	616
12	0	0	0	0	523	616
13	0	0	0	0	523	615
14	0	0	0	0	522	615
15	0	0	0	0	522	616
0	0	0	0	0	521	615
1	0	0	0	0	521	615
2	0	0	0	0	521	615
3	0	0	0	0	521	615
4	0	0	0	0	520	616
5	0	0	0	0	520	615
6	0	0	0	0	520	615
7	0	0	0	0	520	615
8	0	0	0	0	520	616
9	0	0	0	0	521	615
10	0	0	0	0	521	615
11	0	0	0	0	519	615
12	0	0	0	0	518	616
13	0	0	0	0	515	616
14	0	0	0	0	512	615
15	0	0	0	0	507	615
0	0	0	0	0	502	615
1	0	0	0	0	495	615
2	0	0	0	0	486	616
3	0	0	0	0	478	615
4	0	0	0	0	470	615
5	0	0	0	0	463	615
6	0	0	0	0	456	615
7	0	0	0	0	452	615
8	0	0	0	0	450	615
9	0	0	0	0	446	615
10	0	0	0	0	441	615
11	0	0	0	0	435	615
12	0	0	0	0	430	616
13	0	0	0	0	429	615
14	0	0	0	0	431	616
15	0	0	0	0	434	616
0	0	0	0	0	442	616
1	0	0	0	0	454	616
2	0	0	0	0	470	616
3	0	0	0	0	491	615
4	0	0	0	0	519	616
5	0	0	0	0	555	615
6	0	0	0	0	598	615
7	0	0	0	0	647	616
8	0	0	0	0	696	616
9	0	0	0	0	742	615
10	0	0	0	0	791	615
11	0	0	0	0	846	615
12	0	0	0	0	908	615
13	0	0	0	0	968	616
14	0	0	0	0	1020	616
15	0	0	0	0	1022	616
0	0	0	0	0	1022	616
1	0	0	0	0	1022	615
2	0	0	0	0	1022	616
3	0	0	0	0	1022	615
4	0	0	0	0	1022	616
5	0	0	0	0	1022	616
6	0	0	0	0	1022	616
7	0	0	0	0	1022	616
8	0	0	0	0	1022	615
9	0	0	0	0	1022	616
10	0	0	0	0	1022	615
11	0	0	0	0	1022	615
12	0	0	0	0	1022	616
13	0	0	0	0	1022	615
14	0	0	0	0	1022	616
15	0	0	0	0	1022	616
0	0	0	0	0	1022	616
1	0	0	0	0	1002	616
2	0	0	0	0	938	616
3	0	0	0	0	872	615
4	0	0	0	0	809	615
5	0	0	0	0	751	616
6	0	0	0	0	696	616
7	0	0	0	0	647	615
8	0	0	0	0	607	615
9	0	0	0	0	574	616
10	0	0	0	0	545	615
11	0	0	0	0	520	615
12	0	0	0	0	499	615
13	0	0	0	0	480	615
14	0	0	0	0	462	615
15	0	0	0	0	447	615
0	0	0	0	0	433	615
1	0	0	0	0	420	615
2	0	0	0	0	409	615
3	0	0	0	0	399	615
4	0	0	0	0	390	615
5	0	0	0	0	381	615
6	0	0	0	0	375	615
7	0	0	0	0	369	615
8	0	0	0	0	364	615
9	0	0	0	0	359	615
10	0	0	0	0	355	615
11	0	0	0	0	351	615
12	0	0	0	0	348	615
13	0	0	0	0	345	615
14	0	0	0	0	341	615
15	0	0	0	0	339	615
0	0	0	0	0	336	616
1	0	0	0	0	333	616
2	0	0	0	0	331	615
3	0	0	0	0	328	616
4	0	0	0	0	326	616
5	0	0	0	0	325	616
6	0	0	0	0	324	616
7	0	0	0	0	323	616
8	0	0	0	0	323	615
9	0	0	0	0	323	616
10	0	0	0	0	323	615
11	0	0	0	0	323	615
12	0	0	0	0	323	616
13	0	0	0	0	324	615
14	0	0	0	0	325	615
15	0	0	0	0	326	615
0	0	0	0	0	328	616
1	0	0	0	0	329	615
2	0	0	0	0	331	615
3	0	0	0	0	332	615
4	0	0	0	0	334	616
5	0	0	0	0	335	615
6	0	0	0	0	336	615
7	0	0	0	0	337	615
8	0	0	0	0	337	615
9	0	0	0	0	337	615
10	0	0	0	0	338	615
11	0	0	0	0	338	615
12	0	0	0	0	339	616
13	0	0	0	0	340	616
14	0	0	0	0	342	616
15	0	0	0	0	344	616
0	0	0	0	0	346	616
1	0	0	0	0	348	616
2	0	0	0	0	349	615
3	0	0	0	0	350	615
4	0	0	0	0	352	615
5	0	0	0	0	352	616
6	0	0	0	0	353	616
7	0	0	0	0	354	616
8	0	0	0	0	355	616
9	0	0	0	0	356	616
10	0	0	0	0	356	616
11	0	0	0	0	357	616
12	0	0	0	0	358	616
13	0	0	0	0	358	616
14	0	0	0	0	359	616
15	0	0	0	0	360	616
0	0	0	0	0	361	616
1	0	0	0	0	363	616
2	0	0	0	0	364	616
3	0	0	0	0	366	616
4	0	0	0	0	368	617
5	0	0	0	0	370	616
6	0	0	0	0	372	616
7	0	0	0	0	373	617
8	0	0	0	0	374	616
9	0	0	0	0	374	616
10	0	0	0	0	375	616
11	0	0	0	0	375	616
12	0	0	0	0	375	617
13	0	0	0	0	376	616
14	0	0	0	0	376	616
15	0	0	0	0	376	616
0	0	0	0	0	376	616
1	0	0	0	0	377	617
2	0	0	0	0	377	616
3	0	0	0	0	377	616
4	0	0	0	0	379	616
5	0	0	0	0	379	616
6	0	0	0	0	380	616
7	0	0	0	0	380	616
8	0	0	0	0	382	616
9	0	0	0	0	383	616
10	0	0	0	0	384	616
11	0	0	0	0	384	616
12	0	0	0	0	383	615
13	0	0	0	0	383	615
14	0	0	0	0	383	615
15	0	0	0	0	384	616
0	0	0	0	0	383	616
1	0	0	0	0	383	616
2	0	0	0	0	381	615
3	0	0	0	0	380	615
4	0	0	0	0	379	616
5	0	0	0	0	379	616
6	0	0	0	0	378	616
7	0	0	0	0	377	616
8	0	0	0	0	377	616
9	0	0	0	0	377	616
10	0	0	0	0	378	615
11	0	0	0	0	378	616
12	0	0	0	0	377	616
13	0	0	0	0	377	616
14	0	0	0	0	376	616
15	0	0	0	0	376	616
0	0	0	0	0	375	616
1	0	0	0	0	374	615
2	0	0	0	0	374	615
3	0	0	0	0	374	615
4	0	0	0	0	372	616
5	0	0	0	0	371	616
6	0	0	0	0	369	615
7	0	0	0	0	368	615
8	0	0	0	0	366	615
9	0	0	0	0	365	616
10	0	0	0	0	364	615
11	0	0	0	0	364	615
12	0	0	0	0	363	615
13	0	0	0	0	363	615
14	0	0	0	0	362	615
15	0	0	0	0	361	616
0	0	0	0	0	361	616
1	0	0	0	0	361	615
2	0	0	0	0	361	615
3	0	0	0	0	360	615
4	0	0	0	0	359	615
5	0	0	0	0	358	615
6	0	0	0	0	357	615
7	0	0	0	0	356	615
8	0	0	0	0	355	615
9	0	0	0	0	353	615
10	0	0	0	0	352	615
11	0	0	0	0	351	615
12	0	0	0	0	350	615
13	0	0	0	0	349	615
14	0	0	0	0	348	616
15	0	0	0	0	348	615
0	0	0	0	0	347	615
1	0	0	0	0	348	616
2	0	0	0	0	349	616
3	0	0	0	0	349	615
4	0	0	0	0	350	616
5	0	0	0	0	350	615
6	0	0	0	0	351	615
7	0	0	0	0	352	615
8	0	0	0	0	354	615
9	0	0	0	0	355	615
10	0	0	0	0	356	615
11	0	0	0	0	357	616
12	0	0	0	0	357	616
13	0	0	0	0	357	615
14	0	0	0	0	358	615
15	0	0	0	0	358	616
0	0	0	0	0	360	616
1	0	0	0	0	361	616
2	0	0	0	0	363	616
3	0	0	0	0	365	616
4	0	0	0	0	367	618
5	0	0	0	0	369	617
6	0	0	0	0	372	616
7	0	0	0	0	375	617
8	0	0	0	0	379	617
9	0	0	0	0	382	616
10	0	0	0	0	387	616
11	0	0	0	0	390	617
12	0	0	0	0	393	617
13	0	0	0	0	396	617
14	0	0	0	0	399	618
15	0	0	0	0	403	617
0	0	0	0	0	407	617
1	0	0	0	0	410	617
2	0	0	0	0	413	618
3	0	0	0	0	415	617
4	0	0	0	0	419	618
5	0	0	0	0	422	617
6	0	0	0	0	425	617
7	0	0	0	0	430	617
8	0	0	0	0	433	617
9	0	0	0	0	438	617
10	0	0	0	0	442	618
11	0	0	0	0	447	617
12	0	0	0	0	451	617
13	0	0	0	0	455	616
14	0	0	0	0	460	617
15	0	0	0	0	465	617
0	0	0	0	0	470	617
1	0	0	0	0	473	617
2	0	0	0	0	478	617
3	0	0	0	0	481	617
4	0	0	0	0	485	617
5	0	0	0	0	488	617
6	0	0	0	0	492	617
7	0	0	0	0	495	617
8	0	0	0	0	498	617
9	0	0	0	0	502	617
10	0	0	0	0	505	616
11	0	0	0	0	509	616
12	0	0	0	0	512	617
13	0	0	0	0	515	616
14	0	0	0	0	518	616
15	0	0	0	0	521	616
0	0	0	0	0	525	616
1	0	0	0	0	529	616
2	0	0	0	0	532	615
3	0	0	0	0	535	615
4	0	0	0	0	539	615
5	0	0	0	0	541	616
6	0	0	0	0	544	615
7	0	0	0	0	546	615
8	0	0	0	0	548	615
9	0	0	0	0	549	615
10	0	0	0	0	551	615
11	0	0	0	0	553	615
12	0	0	0	0	555	616
13	0	0	0	0	556	615
14	0	0	0	0	558	615
15	0	0	0	0	560	615
0	0	0	0	0	561	615
1	0	0	0	0	563	614
2	0	0	0	0	566	614
3	0	0	0	0	569	614
4	0	0	0	0	571	615
5	0	0	0	0	574	614
6	0	0	0	0	576	614
7	0	0	0	0	577	614
8	0	0	0	0	578	614
9	0	0	0	0	579	614
10	0	0	0	0	580	614
11	0	0	0	0	580	614
12	0	0	0	0	581	615
13	0	0	0	0	581	614
14	0	0	0	0	582	614
15	0	0	0	0	581	614
0	0	0	0	0	580	614
1	0	0	0	0	581	614
2	0	0	0	0	581	614
3	0	0	0	0	581	614
4	0	0	0	0	580	615
5	0	0	0	0	580	614
6	0	0	0	0	580	614
7	0	0	0	0	581	615
8	0	0	0	0	581	615
9	0	0	0	0	581	615
10	0	0	0	0	582	615
11	0	0	0	0	582	615
12	0	0	0	0	583	615
13	0	0	0	0	583	615
14	0	0	0	0	582	615
15	0	0	0	0	582	615
0	0	0	0	0	582	615
1	0	0	0	0	580	615
2	0	0	0	0	579	615
3	0	0	0	0	579	615
4	0	0	0	0	577	616
5	0	0	0	0	576	615
6	0	0	0	0	575	615
7	0	0	0	0	575	615
8	0	0	0	0	574	616
9	0	0	0	0	574	615
10	0	0	0	0	573	615
11	0	0	0	0	572	616
12	0	0	0	0	572	616
13	0	0	0	0	572	617
14	0	0	0	0	572	616
15	0	0	0	0	572	616
0	0	0	0	0	572	617
1	0	0	0	0	572	617
2	0	0	0	0	572	617
3	0	0	0	0	572	617
4	0	0	0	0	571	618
5	0	0	0	0	570	618
6	0	0	0	0	569	618
7	0	0	0	0	568	618
8	0	0	0	0	567	618
9	0	0	0	0	567	618
10	0	0	0	0	566	618
11	0	0	0	0	565	618
12	0	0	0	0	564	618
13	0	0	0	0	563	618
14	0	0	0	0	562	618
15	0	0	0	0	561	618
0	0	0	0	0	561	618
1	0	0	0	0	561	618
2	0	0	0	0	560	619
3	0	0	0	0	560	618
4	0	0	0	0	560	618
5	0	0	0	0	559	618
6	0	0	0	0	560	617
7	0	0	0	0	559	617
8	0	0	0	0	559	617
9	0	0	0	0	558	617
10	0	0	0	0	557	617
11	0	0	0	0	556	618
12	0	0	0	0	555	618
13	0	0	0	0	554	617
14	0	0	0	0	553	617
15	0	0	0	0	553	617
0	0	0	0	0	553	617
1	0	0	0	0	553	617
2	0	0	0	0	552	617
3	0	0	0	0	553	617
4	0	0	0	0	552	617
5	0	0	0	0	552	617
6	0	0	0	0	552	617
7	0	0	0	0	552	617
8	0	0	0	0	552	616
9	0	0	0	0	552	617
10	0	0	0	0	552	616
11	0	0	0	0	552	617
12	0	0	0	0	551	617
13	0	0	0	0	551	616
14	0	0	0	0	550	616
15	0	0	0	0	549	616
0	0	0	0	0	548	616
1	0	0	0	0	548	616
2	0	0	0	0	547	616
3	0	0	0	0	547	615
4	0	0	0	0	547	615
5	0	0	0	0	547	615
6	0	0	0	0	547	615
7	0	0	0	0	547	615
8	0	0	0	0	547	615
9	0	0	0	0	547	615
10	0	0	0	0	547	616
11	0	0	0	0	547	615
12	0	0	0	0	547	616
13	0	0	0	0	546	615
14	0	0	0	0	545	615
15	0	0	0	0	545	615
0	0	0	0	0	544	615
1	0	0	0	0	543	615
2	0	0	0	0	543	615
3	0	0	0	0	543	615
4	0	0	0	0	543	615
5	0	0	0	0	543	615
6	0	0	0	0	544	615
7	0	0	0	0	544	615
8	0	0	0	0	545	615
9	0	0	0	0	545	615
10	0	0	0	0	546	615
11	0	0	0	0	547	615
12	0	0	0	0	548	615
13	0	0	0	0	549	615
14	0	0	0	0	549	615
15	0	0	0	0	549	615
0	0	0	0	0	549	615
1	0	0	0	0	549	615
2	0	0	0	0	549	615
3	0	0	0	0	548	615
4	0	0	0	0	548	615
5	0	0	0	0	547	615
6	0	0	0	0	546	615
7	0	0	0	0	545	615
8	0	0	0	0	544	615
9	0	0	0	0	544	615
10	0	0	0	0	543	615
11	0	0	0	0	542	614
12	0	0	0	0	542	616
13	0	0	0	0	542	615
14	0	0	0	0	543	615
15	0	0	0	0	543	615
0	0	0	0	0	544	615
1	0	0	0	0	544	615
2	0	0	0	0	544	615
3	0	0	0	0	544	615
4	0	0	0	0	544	616
5	0	0	0	0	543	616
6	0	0	0	0	543	615
7	0	0	0	0	543	615
8	0	0	0	0	543	615
9	0	0	0	0	543	616
10	0	0	0	0	543	616
11	0	0	0	0	543	616
12	0	0	0	0	542	616
13	0	0	0	0	542	615
14	0	0	0	0	541	616
15	0	0	0	0	541	616
0	0	0	0	0	540	617
1	0	0	0	0	539	616
2	0	0	0	0	540	616
3	0	0	0	0	540	616
4	0	0	0	0	541	617
5	0	0	0	0	542	617
6	0	0	0	0	542	617
7	0	0	0	0	543	617
8	0	0	0	0	543	617
9	0	0	0	0	543	617
10	0	0	0	0	542	617
11	0	0	0	0	542	617
12	0	0	0	0	542	617
13	0	0	0	0	541	617
14	0	0	0	0	539	617
15	0	0	0	0	539	617
0	0	0	0	0	537	616
1	0	0	0	0	537	616
2	0	0	0	0	537	617
3	0	0	0	0	537	617
4	0	0	0	0	536	617
5	0	0	0	0	536	617
6	0	0	0	0	536	617
7	0	0	0	0	536	616
8	0	0	0	0	536	616
9	0	0	0	0	535	617
10	0	0	0	0	535	617
11	0	0	0	0	535	616
12	0	0	0	0	534	617
13	0	0	0	0	532	616
14	0	0	0	0	531	617
15	0	0	0	0	528	616
0	0	0	0	0	527	616
1	0	0	0	0	525	616
2	0	0	0	0	525	616
3	0	0	0	0	524	616
4	0	0	0	0	524	616
5	0	0	0	0	524	616
6	0	0	0	0	524	615
7	0	0	0	0	524	616
8	0	0	0	0	525	616
9	0	0	0	0	525	616
10	0	0	0	0	526	616
11	0	0	0	0	526	616
12	0	0	0	0	525	616
13	0	0	0	0	524	615
14	0	0	0	0	524	615
15	0	0	0	0	524	616
0	0	0	0	0	524	615
1	0	0	0	0	524	615
2	0	0	0	0	524	615
3	0	0	0	0	523	615
4	0	0	0	0	523	615
5	0	0	0	0	523	615
6	0	0	0	0	521	615
7	0	0	0	0	521	615
8	0	0	0	0	520	615
9	0	0	0	0	520	615
10	0	0	0	0	520	615
11	0	0	0	0	521	615
12	0	0	0	0	521	615
13	0	0	0	0	522	615
14	0	0	0	0	524	615
15	0	0	0	0	524	615
0	0	0	0	0	525	615
1	0	0	0	0	527	615
2	0	0	0	0	527	615
3	0	0	0	0	529	615
4	0	0	0	0	529	616
5	0	0	0	0	530	615
6	0	0	0	0	531	615
7	0	0	0	0	532	615
8	0	0	0	0	532	615
9	0	0	0	0	532	615
10	0	0	0	0	532	615
11	0	0	0	0	532	616
12	0	0	0	0	532	617
13	0	0	0	0	532	616
14	0	0	0	0	532	616
15	0	0	0	0	531	616
0	0	0	0	0	530	616
1	0	0	0	0	529	616
2	0	0	0	0	529	616
3	0	0	0	0	529	616
4	0	0	0	0	529	616
5	0	0	0	0	529	616
6	0	0	0	0	529	616
7	0	0	0	0	528	615
8	0	0	0	0	528	616
9	0	0	0	0	527	616
10	0	0	0	0	526	616
11	0	0	0	0	525	616
12	0	0	0	0	524	616
13	0	0	0	0	523	616
14	0	0	0	0	523	616
15	0	0	0	0	522	616
0	0	0	0	0	523	616
1	0	0	0	0	523	616
2	0	0	0	0	522	616
3	0	0	0	0	523	617
4	0	0	0	0	524	617
5	0	0	0	0	524	616
6	0	0	0	0	525	616
7	0	0	0	0	526	616
8	0	0	0	0	527	616
9	0	0	0	0	527	616
10	0	0	0	0	527	616
11	0	0	0	0	527	616
12	0	0	0	0	527	616
13	0	0	0	0	527	616
14	0	0	0	0	527	616
15	0	0	0	0	526	616
0	0	0	0	0	525	616
1	0	0	0	0	524	615
2	0	0	0	0	524	616
3	0	0	0	0	523	616
4	0	0	0	0	522	616
5	0	0	0	0	522	616
6	0	0	0	0	522	616
7	0	0	0	0	523	616
8	0	0	0	0	524	616
9	0	0	0	0	524	616
10	0	0	0	0	525	616
11	0	0	0	0	525	616
12	0	0	0	0	527	616
13	0	0	0	0	526	615
14	0	0	0	0	526	616
15	0	0	0	0	526	616
0	0	0	0	0	525	616
1	0	0	0	0	525	616
2	0	0	0	0	524	616
3	0	0	0	0	523	616
4	0	0	0	0	523	617
5	0	0	0	0	521	615
6	0	0	0	0	521	616
7	0	0	0	0	521	615
8	0	0	0	0	521	615
9	0	0	0	0	521	615
10	0	0	0	0	520	616
11	0	0	0	0	520	615
12	0	0	0	0	520	616
13	0	0	0	0	520	615
14	0	0	0	0	521	616
15	0	0	0	0	521	615
0	0	0	0	0	522	616
1	0	0	0	0	521	615
2	0	0	0	0	521	616
3	0	0	0	0	521	616
4	0	0	0	0	521	616
5	0	0	0	0	520	615
6	0	0	0	0	519	616
7	0	0	0	0	518	615
8	0	0	0	0	517	615
9	0	0	0	0	515	616
10	0	0	0	0	513	616
11	0	0	0	0	510	616
12	0	0	0	0	505	616
13	0	0	0	0	500	616
14	0	0	0	0	493	616
15	0	0	0	0	486	616
0	0	0	0	0	478	615
1	0	0	0	0	470	616
2	0	0	0	0	462	615
3	0	0	0	0	456	615
4	0	0	0	0	452	616
5	0	0	0	0	448	615
6	0	0	0	0	444	615
7	0	0	0	0	440	615
8	0	0	0	0	435	615
9	0	0	0	0	428	615
10	0	0	0	0	422	616
11	0	0	0	0	419	616
12	0	0	0	0	419	616
13	0	0	0	0	421	616
14	0	0	0	0	427	616
15	0	0	0	0	437	616
0	0	0	0	0	452	616
1	0	0	0	0	473	616
2	0	0	0	0	503	616
3	0	0	0	0	541	616
4	0	0	0	0	586	616
5	0	0	0	0	635	616
6	0	0	0	0	680	616
7	0	0	0	0	727	616
8	0	0	0	0	779	616
9	0	0	0	0	838	616
10	0	0	0	0	901	615
11	0	0	0	0	960	616
12	0	0	0	0	1012	615
13	0	0	0	0	1022	615
14	0	0	0	0	1022	616
15	0	0	0	0	1022	615
0	0	0	0	0	1022	616
1	0	0	0	0	1022	615
2	0	0	0	0	1022	615
3	0	0	0	0	1022	615
4	0	0	0	0	1022	615
5	0	0	0	0	1022	615
6	0	0	0	0	1022	615
7	0	0	0	0	1022	615
8	0	0	0	0	1022	615
9	0	0	0	0	1022	615
10	0	0	0	0	1022	615
11	0	0	0	0	1022	615
12	0	0	0	0	1022	616
13	0	0	0	0	1022	616
14	0	0	0	0	1013	615
15	0	0	0	0	951	615
0	0	0	0	0	888	616
1	0	0	0	0	827	615
2	0	0	0	0	768	616
3	0	0	0	0	713	616
4	0	0	0	0	663	616
5	0	0	0	0	618	615
6	0	0	0	0	581	616
7	0	0	0	0	551	615
8	0	0	0	0	525	615
9	0	0	0	0	502	616
10	0	0	0	0	481	615
11	0	0	0	0	463	616
12	0	0	0	0	448	616
13	0	0	0	0	434	616
14	0	0	0	0	422	615
15	0	0	0	0	411	615
0	0	0	0	0	401	615
1	0	0	0	0	392	615
2	0	0	0	0	385	616
3	0	0	0	0	378	615
4	0	0	0	0	371	616
5	0	0	0	0	366	615
6	0	0	0	0	360	616
7	0	0	0	0	356	616
8	0	0	0	0	352	616
9	0	0	0	0	348	616
10	0	0	0	0	344	616
11	0	0	0	0	341	616
12	0	0	0	0	337	616
13	0	0	0	0	334	617
14	0	0	0	0	331	616
15	0	0	0	0	330	616
0	0	0	0	0	328	616
1	0	0	0	0	327	616
2	0	0	0	0	326	616
3	0	0	0	0	326	616
4	0	0	0	0	326	617
5	0	0	0	0	325	616
6	0	0	0	0	326	617
7	0	0	0	0	326	616
8	0	0	0	0	326	616
9	0	0	0	0	327	616
10	0	0	0	0	327	616
11	0	0	0	0	327	615
12	0	0	0	0	327	616
13	0	0	0	0	327	616
14	0	0	0	0	327	616
15	0	0	0	0	327	616
0	0	0	0	0	327	615
1	0	0	0	0	328	616
2	0	0	0	0	328	615
3	0	0	0	0	329	615
4	0	0	0	0	331	616
5	0	0	0	0	332	616
6	0	0	0	0	333	616
7	0	0	0	0	335	616
8	0	0	0	0	336	616
9	0	0	0	0	338	615
10	0	0	0	0	340	615
11	0	0	0	0	341	616
12	0	0	0	0	342	616
13	0	0	0	0	343	616
14	0	0	0	0	344	616
15	0	0	0	0	344	616
0	0	0	0	0	345	616
1	0	0	0	0	345	615
2	0	0	0	0	346	616
3	0	0	0	0	347	616
4	0	0	0	0	348	615
5	0	0	0	0	348	615
6	0	0	0	0	349	615
7	0	0	0	0	350	615
8	0	0	0	0	351	615
9	0	0	0	0	352	615
10	0	0	0	0	354	615
11	0	0	0	0	355	615
12	0	0	0	0	357	615
13	0	0	0	0	358	615
14	0	0	0	0	359	615
15	0	0	0	0	361	615
0	0	0	0	0	363	615
1	0	0	0	0	364	615
2	0	0	0	0	366	616
3	0	0	0	0	367	615
4	0	0	0	0	368	617
5	0	0	0	0	367	615
6	0	0	0	0	367	615
7	0	0	0	0	368	616
8	0	0	0	0	368	615
9	0	0	0	0	368	615
10	0	0	0	0	369	615
11	0	0	0	0	370	616
12	0	0	0	0	371	616
13	0	0	0	0	371	615
14	0	0	0	0	373	615
15	0	0	0	0	374	616
0	0	0	0	0	374	616
1	0	0	0	0	375	616
2	0	0	0	0	376	615
3	0	0	0	0	377	615
4	0	0	0	0	378	616
5	0	0	0	0	379	616
6	0	0	0	0	379	616
7	0	0	0	0	379	615
8	0	0	0	0	380	615
9	0	0	0	0	379	616
10	0	0	0	0	379	615
11	0	0	0	0	379	616
12	0	0	0	0	379	616
13	0	0	0	0	380	616
14	0	0	0	0	381	616
15	0	0	0	0	381	616
0	0	0	0	0	381	615
1	0	0	0	0	381	615
2	0	0	0	0	381	616
3	0	0	0	0	381	616
4	0	0	0	0	381	616
5	0	0	0	0	381	616
6	0	0	0	0	381	616
7	0	0	0	0	381	616
8	0	0	0	0	381	616
9	0	0	0	0	381	616
10	0	0	0	0	380	617
11	0	0	0	0	380	616
12	0	0	0	0	379	616
13	0	0	0	0	378	616
14	0	0	0	0	377	616
15	0	0	0	0	376	616
0	0	0	0	0	375	616
1	0	0	0	0	374	616
2	0	0	0	0	371	616
3	0	0	0	0	370	616
4	0	0	0	0	369	616
5	0	0	0	0	368	615
6	0	0	0	0	368	616
7	0	0	0	0	367	616
8	0	0	0	0	366	616
9	0	0	0	0	366	617
10	0	0	0	0	366	616
11	0	0	0	0	366	616
12	0	0	0	0	365	616
13	0	0	0	0	363	616
14	0	0	0	0	362	615
15	0	0	0	0	361	615
0	0	0	0	0	361	615
1	0	0	0	0	360	616
2	0	0	0	0	359	616
3	0	0	0	0	356	615
4	0	0	0	0	355	616
5	0	0	0	0	353	615
6	0	0	0	0	351	615
7	0	0	0	0	350	615
8	0	0	0	0	350	615
9	0	0	0	0	349	615
10	0	0	0	0	348	615
11	0	0	0	0	348	616
12	0	0	0	0	347	616
13	0	0	0	0	348	616
14	0	0	0	0	348	616
15	0	0	0	0	348	616
0	0	0	0	0	349	615
1	0	0	0	0	349	615
2	0	0	0	0	349	615
3	0	0	0	0	349	615
4	0	0	0	0	350	616
5	0	0	0	0	350	615
6	0	0	0	0	351	615
7	0	0	0	0	352	615
8	0	0	0	0	353	616
9	0	0	0	0	354	616
10	0	0	0	0	355	616
11	0	0	0	0	357	616
12	0	0	0	0	358	616
13	0	0	0	0	359	616
14	0	0	0	0	361	615
15	0	0	0	0	363	616
0	0	0	0	0	365	616
1	0	0	0	0	368	616
2	0	0	0	0	370	616
3	0	0	0	0	372	615
4	0	0	0	0	374	616
5	0	0	0	0	377	616
6	0	0	0	0	380	616
7	0	0	0	0	383	617
8	0	0	0	0	385	616
9	0	0	0	0	388	617
10	0	0	0	0	391	616
11	0	0	0	0	394	616
12	0	0	0	0	396	617
13	0	0	0	0	400	617
14	0	0	0	0	403	617
15	0	0	0	0	407	617
0	0	0	0	0	410	616
1	0	0	0	0	414	617
2	0	0	0	0	418	617
3	0	0	0	0	421	616
4	0	0	0	0	426	617
5	0	0	0	0	430	617
6	0	0	0	0	433	616
7	0	0	0	0	438	617
8	0	0	0	0	441	617
9	0	0	0	0	445	617
10	0	0	0	0	449	617
11	0	0	0	0	453	616
12	0	0	0	0	457	617
13	0	0	0	0	461	617
14	0	0	0	0	465	616
15	0	0	0	0	468	617
0	0	0	0	0	472	616
1	0	0	0	0	476	617
2	0	0	0	0	481	617
3	0	0	0	0	484	617
4	0	0	0	0	488	617
5	0	0	0	0	492	616
6	0	0	0	0	496	616
7	0	0	0	0	499	616
8	0	0	0	0	504	616
9	0	0	0	0	508	616
10	0	0	0	0	512	616
11	0	0	0	0	515	616
12	0	0	0	0	519	617
13	0	0	0	0	523	616
14	0	0	0	0	526	617
15	0	0	0	0	528	616
0	0	0	0	0	531	616
1	0	0	0	0	534	616
2	0	0	0	0	536	616
3	0	0	0	0	539	616
4	0	0	0	0	541	616
5	0	0	0	0	543	616
6	0	0	0	0	545	615
7	0	0	0	0	548	615
8	0	0	0	0	551	615
9	0	0	0	0	553	615
10	0	0	0	0	556	615
11	0	0	0	0	558	615
12	0	0	0	0	560	615
13	0	0	0	0	563	615
14	0	0	0	0	566	616
15	0	0	0	0	568	615
0	0	0	0	0	569	615
1	0	0	0	0	570	615
2	0	0	0	0	572	615
3	0	0	0	0	574	615
4	0	0	0	0	575	615
5	0	0	0	0	575	615
6	0	0	0	0	576	615
7	0	0	0	0	577	615
8	0	0	0	0	577	615
9	0	0	0	0	579	615
10	0	0	0	0	579	615
11	0	0	0	0	580	615
12	0	0	0	0	581	615
13	0	0	0	0	581	615
14	0	0	0	0	582	615
15	0	0	0	0	582	615
0	0	0	0	0	584	615
1	0	0	0	0	584	615
2	0	0	0	0	585	615
3	0	0	0	0	587	615
4	0	0	0	0	587	615
5	0	0	0	0	586	615
6	0	0	0	0	586	615
7	0	0	0	0	585	615
8	0	0	0	0	584	615
9	0	0	0	0	583	615
10	0	0	0	0	582	615
11	0	0	0	0	581	615
12	0	0	0	0	581	616
13	0	0	0	0	580	615
14	0	0	0	0	579	616
15	0	0	0	0	578	616
0	0	0	0	0	578	616
1	0	0	0	0	577	615
2	0	0	0	0	576	616
3	0	0	0	0	575	615
4	0	0	0	0	575	616
5	0	0	0	0	574	616
6	0	0	0	0	574	616
7	0	0	0	0	574	616
8	0	0	0	0	572	616
9	0	0	0	0	572	616
10	0	0	0	0	571	616
11	0	0	0	0	571	616
12	0	0	0	0	569	617
13	0	0	0	0	567	617
14	0	0	0	0	567	616
15	0	0	0	0	565	616
0	0	0	0	0	564	616
1	0	0	0	0	563	617
2	0	0	0	0	563	617
3	0	0	0	0	562	616
4	0	0	0	0	562	617
5	0	0	0	0	562	616
6	0	0	0	0	562	617
7	0	0	0	0	562	617
8	0	0	0	0	562	617
9	0	0	0	0	562	617
10	0	0	0	0	562	616
11	0	0	0	0	562	616
12	0	0	0	0	561	617
13	0	0	0	0	561	617
14	0	0	0	0	560	616
15	0	0	0	0	559	616
0	0	0	0	0	559	617
1	0	0	0	0	559	616
2	0	0	0	0	558	617
3	0	0	0	0	557	616
4	0	0	0	0	557	617
5	0	0	0	0	556	616
6	0	0	0	0	556	616
7	0	0	0	0	556	616
8	0	0	0	0	556	617
9	0	0	0	0	556	616
10	0	0	0	0	556	616
11	0	0	0	0	557	616
12	0	0	0	0	557	617
13	0	0	0	0	556	615
14	0	0	0	0	557	616
15	0	0	0	0	557	616
0	0	0	0	0	557	616
1	0	0	0	0	556	616
2	0	0	0	0	555	616
3	0	0	0	0	555	616
4	0	0	0	0	555	617
5	0	0	0	0	555	616
6	0	0	0	0	555	615
7	0	0	0	0	555	616
8	0	0	0	0	555	616
9	0	0	0	0	555	616
10	0	0	0	0	554	615
11	0	0	0	0	554	616
12	0	0	0	0	554	616
13	0	0	0	0	552	615
14	0	0	0	0	552	615
15	0	0	0	0	551	615
0	0	0	0	0	551	616
1	0	0	0	0	551	615
2	0	0	0	0	552	615
3	0	0	0	0	551	615
4	0	0	0	0	551	615
5	0	0	0	0	551	615
6	0	0	0	0	551	615
7	0	0	0	0	551	615
8	0	0	0	0	551	616
9	0	0	0	0	551	615
10	0	0	0	0	551	615
11	0	0	0	0	551	615
12	0	0	0	0	551	616
13	0	0	0	0	551	616
14	0	0	0	0	552	615
15	0	0	0	0	553	615
0	0	0	0	0	553	615
1	0	0	0	0	553	615
2	0	0	0	0	555	616
3	0	0	0	0	555	615
4	0	0	0	0	555	616
5	0	0	0	0	555	615
6	0	0	0	0	555	615
7	0	0	0	0	555	616
8	0	0	0	0	554	615
9	0	0	0	0	554	615
10	0	0	0	0	553	616
11	0	0	0	0	553	616
12	0	0	0	0	552	616
13	0	0	0	0	551	616
14	0	0	0	0	551	615
15	0	0	0	0	550	615
0	0	0	0	0	549	616
1	0	0	0	0	548	615
2	0	0	0	0	548	615
3	0	0	0	0	547	615
4	0	0	0	0	547	615
5	0	0	0	0	547	616
6	0	0	0	0	547	615
7	0	0	0	0	547	615
8	0	0	0	0	547	615
9	0	0	0	0	548	615
10	0	0	0	0	548	616
11	0	0	0	0	547	615
12	0	0	0	0	547	616
13	0	0	0	0	548	616
14	0	0	0	0	547	617
15	0	0	0	0	547	616
0	0	0	0	0	547	616
1	0	0	0	0	547	616
2	0	0	0	0	547	616
3	0	0	0	0	546	616
4	0	0	0	0	545	616
5	0	0	0	0	545	616
6	0	0	0	0	545	616
7	0	0	0	0	545	616
8	0	0	0	0	545	616
9	0	0	0	0	546	616
10	0	0	0	0	546	616
11	0	0	0	0	547	616
12	0	0	0	0	547	616
13	0	0	0	0	547	616
14	0	0	0	0	547	616
15	0	0	0	0	547	616
0	0	0	0	0	545	616
1	0	0	0	0	545	616
2	0	0	0	0	544	616
3	0	0	0	0	544	615
4	0	0	0	0	543	616
5	0	0	0	0	542	616
6	0	0	0	0	540	616
7	0	0	0	0	539	616
8	0	0	0	0	537	616
9	0	0	0	0	535	616
10	0	0	0	0	534	616
11	0	0	0	0	533	616
12	0	0	0	0	532	616
13	0	0	0	0	532	616
14	0	0	0	0	532	616
15	0	0	0	0	532	616
0	0	0	0	0	532	615
1	0	0	0	0	532	616
2	0	0	0	0	532	615
3	0	0	0	0	532	615
4	0	0	0	0	532	616
5	0	0	0	0	532	616
6	0	0	0	0	532	615
7	0	0	0	0	531	615
8	0	0	0	0	531	616
9	0	0	0	0	531	615
10	0	0	0	0	531	615
11	0	0	0	0	531	616
12	0	0	0	0	531	615
13	0	0	0	0	531	616
14	0	0	0	0	531	616
15	0	0	0	0	531	615
0	0	0	0	0	531	615
1	0	0	0	0	530	616
2	0	0	0	0	531	616
3	0	0	0	0	531	616
4	0	0	0	0	532	616
5	0	0	0	0	532	615
6	0	0	0	0	533	615
7	0	0	0	0	533	616
8	0	0	0	0	533	616
9	0	0	0	0	533	615
10	0	0	0	0	534	615
11	0	0	0	0	534	615
12	0	0	0	0	535	616
13	0	0	0	0	535	615
14	0	0	0	0	535	615
15	0	0	0	0	535	615
0	0	0	0	0	535	616
1	0	0	0	0	536	616
2	0	0	0	0	537	615
3	0	0	0	0	538	615
4	0	0	0	0	539	616
5	0	0	0	0	541	615
6	0	0	0	0	542	615
7	0	0	0	0	543	615
8	0	0	0	0	543	615
9	0	0	0	0	543	615
10	0	0	0	0	543	617
11	0	0	0	0	542	616
12	0	0	0	0	542	617
13	0	0	0	0	541	616
14	0	0	0	0	540	616
15	0	0	0	0	538	616
0	0	0	0	0	536	615
1	0	0	0	0	535	616
2	0	0	0	0	533	616
3	0	0	0	0	532	617
4	0	0	0	0	531	616
5	0	0	0	0	530	616
6	0	0	0	0	529	617
7	0	0	0	0	529	617
8	0	0	0	0	530	616
9	0	0	0	0	530	616
10	0	0	0	0	531	615
11	0	0	0	0	532	617
12	0	0	0	0	533	617
13	0	0	0	0	535	616
14	0	0	0	0	536	616
15	0	0	0	0	536	616
0	0	0	0	0	536	616
1	0	0	0	0	537	616
2	0	0	0	0	539	616
3	0	0	0	0	539	616
4	0	0	0	0	538	616
5	0	0	0	0	537	616
6	0	0	0	0	536	616
7	0	0	0	0	536	617
8	0	0	0	0	535	616
9	0	0	0	0	533	616
10	0	0	0	0	532	616
11	0	0	0	0	531	616
12	0	0	0	0	531	616
13	0	0	0	0	531	616
14	0	0	0	0	530	616
15	0	0	0	0	530	616
0	0	0	0	0	529	616
1	0	0	0	0	529	616
2	0	0	0	0	530	616
3	0	0	0	0	530	617
4	0	0	0	0	530	616
5	0	0	0	0	531	617
6	0	0	0	0	530	616
7	0	0	0	0	529	615
8	0	0	0	0	530	616
9	0	0	0	0	529	616
10	0	0	0	0	529	616
11	0	0	0	0	529	616
12	0	0	0	0	529	616
13	0	0	0	0	530	616
14	0	0	0	0	530	616
15	0	0	0	0	529	616
0	0	0	0	0	529	615
1	0	0	0	0	530	615
2	0	0	0	0	529	615
3	0	0	0	0	530	615
4	0	0	0	0	530	616
5	0	0	0	0	530	616
6	0	0	0	0	529	615
7	0	0	0	0	529	616
8	0	0	0	0	528	616
9	0	0	0	0	529	615
10	0	0	0	0	528	616
11	0	0	0	0	527	616
12	0	0	0	0	527	616
13	0	0	0	0	526	616
14	0	0	0	0	525	616
15	0	0	0	0	524	616
0	0	0	0	0	523	616
1	0	0	0	0	522	617
2	0	0	0	0	522	617
3	0	0	0	0	521	616
4	0	0	0	0	520	617
5	0	0	0	0	519	616
6	0	0	0	0	517	617
7	0	0	0	0	513	616
8	0	0	0	0	510	616
9	0	0	0	0	504	616
10	0	0	0	0	499	616
11	0	0	0	0	493	616
12	0	0	0	0	487	616
13	0	0	0	0	481	616
14	0	0	0	0	476	616
15	0	0	0	0	471	616
0	0	0	0	0	466	616
1	0	0	0	0	462	616
2	0	0	0	0	459	616
3	0	0	0	0	455	616
4	0	0	0	0	449	616
5	0	0	0	0	443	615
6	0	0	0	0	435	616
7	0	0	0	0	430	616
8	0	0	0	0	426	616
9	0	0	0	0	426	616
10	0	0	0	0	432	616
11	0	0	0	0	444	616
12	0	0	0	0	460	617
13	0	0	0	0	480	616
14	0	0	0	0	505	616
15	0	0	0	0	535	616
0	0	0	0	0	575	615
1	0	0	0	0	619	616
2	0	0	0	0	662	615
3	0	0	0	0	707	616
4	0	0	0	0	761	616
5	0	0	0	0	823	615
6	0	0	0	0	882	616
7	0	0	0	0	936	615
8	0	0	0	0	989	616
9	0	0	0	0	1022	615
10	0	0	0	0	1022	615
11	0	0	0	0	1022	616
12	0	0	0	0	1022	616
13	0	0	0	0	1022	615
14	0	0	0	0	1022	615
15	0	0	0	0	1022	616
0	0	0	0	0	1022	616
1	0	0	0	0	1022	615
2	0	0	0	0	1022	615
3	0	0	0	0	1022	615
4	0	0	0	0	1022	615
5	0	0	0	0	1022	615
6	0	0	0	0	1022	615
7	0	0	0	0	1022	615
8	0	0	0	0	1022	615
9	0	0	0	0	1016	615
10	0	0	0	0	957	615
11	0	0	0	0	898	615
12	0	0	0	0	841	615
13	0	0	0	0	786	615
14	0	0	0	0	733	615
15	0	0	0	0	686	615
0	0	0	0	0	645	615
1	0	0	0	0	611	615
2	0	0	0	0	584	615
3	0	0	0	0	561	615
4	0	0	0	0	540	615
5	0	0	0	0	522	615
6	0	0	0	0	505	615
7	0	0	0	0	489	615
8	0	0	0	0	474	615
9	0	0	0	0	461	616
10	0	0	0	0	449	616
11	0	0	0	0	438	615
12	0	0	0	0	428	616
13	0	0	0	0	420	615
14	0	0	0	0	412	615
15	0	0	0	0	404	615
0	0	0	0	0	398	615
1	0	0	0	0	391	615
2	0	0	0	0	386	615
3	0	0	0	0	381	616
4	0	0	0	0	376	616
5	0	0	0	0	372	615
6	0	0	0	0	368	615
7	0	0	0	0	365	616
8	0	0	0	0	363	616
9	0	0	0	0	361	616
10	0	0	0	0	359	616
11	0	0	0	0	358	616
12	0	0	0	0	357	616
13	0	0	0	0	356	616
14	0	0	0	0	356	616
15	0	0	0	0	355	615
0	0	0	0	0	355	616
1	0	0	0	0	353	616
2	0	0	0	0	351	616
3	0	0	0	0	350	615
4	0	0	0	0	349	616
5	0	0	0	0	348	616
6	0	0	0	0	348	616
7	0	0	0	0	348	615
8	0	0	0	0	348	615
9	0	0	0	0	349	615
10	0	0	0	0	350	616
11	0	0	0	0	350	615
12	0	0	0	0	351	616
13	0	0	0	0	352	616
14	0	0	0	0	353	616
15	0	0	0	0	354	616
0	0	0	0	0	355	616
1	0	0	0	0	355	616
2	0	0	0	0	356	615
3	0	0	0	0	356	615
4	0	0	0	0	357	616
5	0	0	0	0	358	616
6	0	0	0	0	359	616
7	0	0	0	0	360	616
8	0	0	0	0	362	616
9	0	0	0	0	363	615
10	0	0	0	0	363	616
11	0	0	0	0	364	616
12	0	0	0	0	365	617
13	0	0	0	0	366	616
14	0	0	0	0	367	616
15	0	0	0	0	368	616
0	0	0	0	0	369	616
1	0	0	0	0	371	615
2	0	0	0	0	372	615
3	0	0	0	0	373	615
4	0	0	0	0	374	616
5	0	0	0	0	374	616
6	0	0	0	0	375	616
7	0	0	0	0	375	615
8	0	0	0	0	376	615
9	0	0	0	0	377	616
10	0	0	0	0	377	616
11	0	0	0	0	377	615
12	0	0	0	0	377	616
13	0	0	0	0	377	615
14	0	0	0	0	378	616
15	0	0	0	0	377	616
0	0	0	0	0	378	616
1	0	0	0	0	380	616
2	0	0	0	0	381	616
3	0	0	0	0	382	616
4	0	0	0	0	384	616
5	0	0	0	0	384	616
6	0	0	0	0	386	616
7	0	0	0	0	388	616
8	0	0	0	0	389	617
9	0	0	0	0	389	617
10	0	0	0	0	390	617
11	0	0	0	0	391	616
12	0	0	0	0	391	617
13	0	0	0	0	391	616
14	0	0	0	0	391	616
15	0	0	0	0	390	616
0	0	0	0	0	390	616
1	0	0	0	0	390	617
2	0	0	0	0	390	616
3	0	0	0	0	390	616
4	0	0	0	0	390	616
5	0	0	0	0	391	615
6	0	0	0	0	391	616
7	0	0	0	0	391	615
8	0	0	0	0	393	616
9	0	0	0	0	394	615
10	0	0	0	0	393	615
11	0	0	0	0	394	615
12	0	0	0	0	394	616
13	0	0	0	0	395	615
14	0	0	0	0	395	615
15	0	0	0	0	393	615
0	0	0	0	0	392	616
1	0	0	0	0	391	616
2	0	0	0	0	391	615
3	0	0	0	0	391	616
4	0	0	0	0	391	616
5	0	0	0	0	390	615
6	0	0	0	0	390	615
7	0	0	0	0	389	615
8	0	0	0	0	389	615
9	0	0	0	0	389	616
10	0	0	0	0	388	615
11	0	0	0	0	388	615
12	0	0	0	0	387	616
13	0	0	0	0	387	615
14	0	0	0	0	387	616
15	0	0	0	0	387	616
0	0	0	0	0	386	615
1	0	0	0	0	385	615
2	0	0	0	0	384	615
3	0	0	0	0	384	615
4	0	0	0	0	382	615
5	0	0	0	0	380	615
6	0	0	0	0	380	615
7	0	0	0	0	378	615
8	0	0	0	0	377	615
9	0	0	0	0	375	615
10	0	0	0	0	373	615
11	0	0	0	0	371	615
12	0	0	0	0	369	615
13	0	0	0	0	368	615
14	0	0	0	0	368	615
15	0	0	0	0	367	615
0	0	0	0	0	366	615
1	0	0	0	0	366	615
2	0	0	0	0	365	615
3	0	0	0	0	365	615
4	0	0	0	0	365	615
5	0	0	0	0	365	615
6	0	0	0	0	364	615
7	0	0	0	0	364	615
8	0	0	0	0	364	615
9	0	0	0	0	364	616
10	0	0	0	0	363	616
11	0	0	0	0	363	616
12	0	0	0	0	362	616
13	0	0	0	0	363	616
14	0	0	0	0	363	616
15	0	0	0	0	363	616
0	0	0	0	0	361	616
1	0	0	0	0	361	616
2	0	0	0	0	362	615
3	0	0	0	0	364	616
4	0	0	0	0	366	616
5	0	0	0	0	368	616
6	0	0	0	0	369	616
7	0	0	0	0	372	616
8	0	0	0	0	374	616
9	0	0	0	0	376	616
10	0	0	0	0	378	616
11	0	0	0	0	380	616
12	0	0	0	0	381	617
13	0	0	0	0	383	617
14	0	0	0	0	385	616
15	0	0	0	0	387	616
0	0	0	0	0	389	617
1	0	0	0	0	392	617
2	0	0	0	0	395	617
3	0	0	0	0	398	617
4	0	0	0	0	401	617
5	0	0	0	0	404	617
6	0	0	0	0	408	617
7	0	0	0	0	411	616
8	0	0	0	0	415	617
9	0	0	0	0	418	616
10	0	0	0	0	422	617
11	0	0	0	0	426	617
12	0	0	0	0	429	618
13	0	0	0	0	432	617
14	0	0	0	0	436	617
15	0	0	0	0	439	617
0	0	0	0	0	442	617
1	0	0	0	0	445	617
2	0	0	0	0	448	617
3	0	0	0	0	451	617
4	0	0	0	0	454	618
5	0	0	0	0	458	617
6	0	0	0	0	461	617
7	0	0	0	0	465	617
8	0	0	0	0	468	617
9	0	0	0	0	472	617
10	0	0	0	0	477	616
11	0	0	0	0	481	617
12	0	0	0	0	485	617
13	0	0	0	0	489	617
14	0	0	0	0	494	616
15	0	0	0	0	498	617
0	0	0	0	0	501	617
1	0	0	0	0	505	617
2	0	0	0	0	509	617
3	0	0	0	0	511	617
4	0	0	0	0	513	617
5	0	0	0	0	515	616
6	0	0	0	0	518	617
7	0	0	0	0	519	616
8	0	0	0	0	522	616
9	0	0	0	0	524	617
10	0	0	0	0	527	616
11	0	0	0	0	530	617
12	0	0	0	0	532	617
13	0	0	0	0	535	616
14	0	0	0	0	538	616
15	0	0	0	0	541	616
0	0	0	0	0	544	616
1	0	0	0	0	548	615
2	0	0	0	0	550	615
3	0	0	0	0	552	615
4	0	0	0	0	555	615
5	0	0	0	0	557	615
6	0	0	0	0	559	615
7	0	0	0	0	561	615
8	0	0	0	0	562	615
9	0	0	0	0	563	615
10	0	0	0	0	565	615
11	0	0	0	0	566	615
12	0	0	0	0	567	615
13	0	0	0	0	568	615
14	0	0	0	0	570	615
15	0	0	0	0	571	615
0	0	0	0	0	572	615
1	0	0	0	0	573	615
2	0	0	0	0	574	615
3	0	0	0	0	575	615
4	0	0	0	0	575	615
5	0	0	0	0	577	615
6	0	0	0	0	578	615
7	0	0	0	0	579	615
8	0	0	0	0	580	615
9	0	0	0	0	581	615
10	0	0	0	0	581	615
11	0	0	0	0	582	615
12	0	0	0	0	582	615
13	0	0	0	0	581	615
14	0	0	0	0	582	614
15	0	0	0	0	582	615
0	0	0	0	0	581	614
1	0	0	0	0	582	614
2	0	0	0	0	581	615
3	0	0	0	0	581	615
4	0	0	0	0	580	615
5	0	0	0	0	580	615
6	0	0	0	0	580	615
7	0	0	0	0	581	615
8	0	0	0	0	581	615
9	0	0	0	0	582	614
10	0	0	0	0	582	615
11	0	0	0	0	582	615
12	0	0	0	0	582	615
13	0	0	0	0	581	615
14	0	0	0	0	580	615
15	0	0	0	0	579	615
0	0	0	0	0	578	616
1	0	0	0	0	577	615
2	0	0	0	0	576	615
3	0	0	0	0	575	615
4	0	0	0	0	574	616
5	0	0	0	0	572	616
6	0	0	0	0	572	615
7	0	0	0	0	572	616
8	0	0	0	0	571	616
9	0	0	0	0	569	616
10	0	0	0	0	569	616
11	0	0	0	0	569	616
12	0	0	0	0	568	617
13	0	0	0	0	569	616
14	0	0	0	0	568	617
15	0	0	0	0	568	617
0	0	0	0	0	568	616
1	0	0	0	0	567	616
2	0	0	0	0	566	616
3	0	0	0	0	564	616
4	0	0	0	0	563	617
5	0	0	0	0	563	617
6	0	0	0	0	563	616
7	0	0	0	0	562	618
8	0	0	0	0	562	617
9	0	0	0	0	562	618
10	0	0	0	0	562	617
11	0	0	0	0	562	617
12	0	0	0	0	563	618
13	0	0	0	0	563	616
14	0	0	0	0	563	618
15	0	0	0	0	563	617
0	0	0	0	0	563	617
1	0	0	0	0	563	617
2	0	0	0	0	562	617
3	0	0	0	0	562	617
4	0	0	0	0	561	617
5	0	0	0	0	561	617
6	0	0	0	0	560	617
7	0	0	0	0	560	617
8	0	0	0	0	559	617
9	0	0	0	0	558	617
10	0	0	0	0	558	617
11	0	0	0	0	557	617
12	0	0	0	0	556	617
13	0	0	0	0	556	617
14	0	0	0	0	555	617
15	0	0	0	0	553	617
0	0	0	0	0	553	616
1	0	0	0	0	552	617
2	0	0	0	0	551	617
3	0	0	0	0	551	616
4	0	0	0	0	551	617
5	0	0	0	0	551	616
6	0	0	0	0	551	616
7	0	0	0	0	551	617
8	0	0	0	0	551	617
9	0	0	0	0	551	616
10	0	0	0	0	551	616
11	0	0	0	0	551	616
12	0	0	0	0	550	616
13	0	0	0	0	550	615
14	0	0	0	0	548	616
15	0	0	0	0	547	615
0	0	0	0	0	547	616
1	0	0	0	0	546	615
2	0	0	0	0	545	616
3	0	0	0	0	545	615
4	0	0	0	0	545	616
5	0	0	0	0	545	615
6	0	0	0	0	545	615
7	0	0	0	0	545	615
8	0	0	0	0	545	615
9	0	0	0	0	546	616
10	0	0	0	0	546	615
11	0	0	0	0	546	615
12	0	0	0	0	546	615
13	0	0	0	0	547	615
14	0	0	0	0	546	615
15	0	0	0	0	546	615
0	0	0	0	0	547	615
1	0	0	0	0	546	615
2	0	0	0	0	545	615
3	0	0	0	0	545	615
4	0	0	0	0	544	615
5	0	0	0	0	545	615
6	0	0	0	0	544	614
7	0	0	0	0	544	615
8	0	0	0	0	545	615
9	0	0	0	0	545	615
10	0	0	0	0	546	615
11	0	0	0	0	547	615
12	0	0	0	0	548	615
13	0	0	0	0	549	615
14	0	0	0	0	550	615
15	0	0	0	0	550	615
0	0	0	0	0	550	615
1	0	0	0	0	549	615
2	0	0	0	0	548	615
3	0	0	0	0	547	615
4	0	0	0	0	546	616
5	0	0	0	0	544	615
6	0	0	0	0	544	615
7	0	0	0	0	543	615
8	0	0	0	0	542	615
9	0	0	0	0	542	615
10	0	0	0	0	541	615
11	0	0	0	0	541	615
12	0	0	0	0	540	616
13	0	0	0	0	540	616
14	0	0	0	0	540	616
15	0	0	0	0	539	616
0	0	0	0	0	539	615
1	0	0	0	0	538	615
2	0	0	0	0	537	615
3	0	0	0	0	536	616
4	0	0	0	0	536	617
5	0	0	0	0	535	616
6	0	0	0	0	536	616
7	0	0	0	0	536	616
8	0	0	0	0	535	616
9	0	0	0	0	532	616
10	0	0	0	0	531	616
11	0	0	0	0	529	615
12	0	0	0	0	528	616
13	0	0	0	0	527	615
14	0	0	0	0	527	616
15	0	0	0	0	527	616
0	0	0	0	0	527	617
1	0	0	0	0	527	616
2	0	0	0	0	527	616
3	0	0	0	0	527	616
4	0	0	0	0	528	617
5	0	0	0	0	528	616
6	0	0	0	0	529	616
7	0	0	0	0	530	616
8	0	0	0	0	530	617
9	0	0	0	0	529	616
10	0	0	0	0	529	617
11	0	0	0	0	529	617
12	0	0	0	0	529	617
13	0	0	0	0	528	616
14	0	0	0	0	529	617
15	0	0	0	0	529	617
0	0	0	0	0	529	616
1	0	0	0	0	530	617
2	0	0	0	0	531	617
3	0	0	0	0	532	617
4	0	0	0	0	534	618
5	0	0	0	0	536	617
6	0	0	0	0	537	616
7	0	0	0	0	539	616
8	0	0	0	0	540	617
9	0	0	0	0	541	616
10	0	0	0	0	542	616
11	0	0	0	0	543	616
12	0	0	0	0	544	617
13	0	0	0	0	544	616
14	0	0	0	0	545	616
15	0	0	0	0	545	616
0	0	0	0	0	545	616
1	0	0	0	0	543	617
2	0	0	0	0	543	616
3	0	0	0	0	542	616
4	0	0	0	0	540	616
5	0	0	0	0	540	616
6	0	0	0	0	538	615
7	0	0	0	0	537	615
8	0	0	0	0	536	616
9	0	0	0	0	535	615
10	0	0	0	0	535	615
11	0	0	0	0	534	615
12	0	0	0	0	534	615
13	0	0	0	0	535	615
14	0	0	0	0	535	616
15	0	0	0	0	535	616
0	0	0	0	0	534	615
1	0	0	0	0	534	615
2	0	0	0	0	533	616
3	0	0	0	0	532	615
4	0	0	0	0	531	616
5	0	0	0	0	531	616
6	0	0	0	0	532	615
7	0	0	0	0	532	615
8	0	0	0	0	532	615
9	0	0	0	0	532	615
10	0	0	0	0	532	615
11	0	0	0	0	533	616
12	0	0	0	0	533	616
13	0	0	0	0	533	615
14	0	0	0	0	535	615
15	0	0	0	0	535	615
0	0	0	0	0	536	615
1	0	0	0	0	537	616
2	0	0	0	0	537	616
3	0	0	0	0	537	615
4	0	0	0	0	536	616
5	0	0	0	0	536	615
6	0	0	0	0	536	615
7	0	0	0	0	535	615
8	0	0	0	0	534	616
9	0	0	0	0	533	616
10	0	0	0	0	532	616
11	0	0	0	0	531	616
12	0	0	0	0	530	617
13	0	0	0	0	529	616
14	0	0	0	0	530	616
15	0	0	0	0	530	616
0	0	0	0	0	530	616
1	0	0	0	0	530	616
2	0	0	0	0	531	616
3	0	0	0	0	530	617
4	0	0	0	0	531	617
5	0	0	0	0	531	616
6	0	0	0	0	531	616
7	0	0	0	0	532	616
8	0	0	0	0	531	617
9	0	0	0	0	531	617
10	0	0	0	0	529	616
11	0	0	0	0	528	616
12	0	0	0	0	527	617
13	0	0	0	0	526	617
14	0	0	0	0	526	616
15	0	0	0	0	526	616
0	0	0	0	0	526	617
1	0	0	0	0	526	617
2	0	0	0	0	526	617
3	0	0	0	0	526	617
4	0	0	0	0	526	617
5	0	0	0	0	527	617
6	0	0	0	0	527	616
7	0	0	0	0	527	616
8	0	0	0	0	527	616
9	0	0	0	0	526	616
10	0	0	0	0	525	616
11	0	0	0	0	525	616
12	0	0	0	0	523	617
13	0	0	0	0	521	616
14	0	0	0	0	519	616
15	0	0	0	0	514	616
0	0	0	0	0	510	616
1	0	0	0	0	504	616
2	0	0	0	0	496	615
3	0	0	0	0	489	616
4	0	0	0	0	481	616
5	0	0	0	0	476	616
6	0	0	0	0	470	615
7	0	0	0	0	466	616
8	0	0	0	0	464	615
9	0	0	0	0	462	615
10	0	0	0	0	461	616
11	0	0	0	0	458	616
12	0	0	0	0	454	616
13	0	0	0	0	449	615
14	0	0	0	0	442	615
15	0	0	0	0	437	615
0	0	0	0	0	433	615
1	0	0	0	0	432	616
2	0	0	0	0	435	615
3	0	0	0	0	446	615
4	0	0	0	0	460	615
5	0	0	0	0	479	615
6	0	0	0	0	501	615
7	0	0	0	0	527	615
8	0	0	0	0	560	615
9	0	0	0	0	601	615
10	0	0	0	0	645	615
11	0	0	0	0	688	615
12	0	0	0	0	739	615
13	0	0	0	0	799	615
14	0	0	0	0	861	615
15	0	0	0	0	918	616
0	0	0	0	0	973	616
1	0	0	0	0	1020	616
2	0	0	0	0	1022	615
3	0	0	0	0	1022	615
4	0	0	0	0	1022	615
5	0	0	0	0	1022	615
6	0	0	0	0	1022	615
7	0	0	0	0	1022	615
8	0	0	0	0	1022	615
9	0	0	0	0	1022	615
10	0	0	0	0	1022	615
11	0	0	0	0	1022	615
12	0	0	0	0	1022	615
13	0	0	0	0	1022	615
14	0	0	0	0	1022	616
15	0	0	0	0	1022	615
0	0	0	0	0	1022	615
1	0	0	0	0	989	616
2	0	0	0	0	936	615
3	0	0	0	0	879	615
4	0	0	0	0	823	616
5	0	0	0	0	771	615
6	0	0	0	0	721	615
7	0	0	0	0	677	615
8	0	0	0	0	638	616
9	0	0	0	0	607	616
10	0	0	0	0	580	616
11	0	0	0	0	559	616
12	0	0	0	0	541	617
13	0	0	0	0	523	617
14	0	0	0	0	505	616
15	0	0	0	0	488	616
0	0	0	0	0	474	616
1	0	0	0	0	461	616
2	0	0	0	0	449	616
3	0	0	0	0	438	616
4	0	0	0	0	429	616
5	0	0	0	0	420	615
6	0	0	0	0	412	616
7	0	0	0	0	405	616
8	0	0	0	0	399	615
9	0	0	0	0	393	616
10	0	0	0	0	389	616
11	0	0	0	0	385	616
12	0	0	0	0	381	616
13	0	0	0	0	377	616
14	0	0	0	0	374	616
15	0	0	0	0	370	616
0	0	0	0	0	367	616
1	0	0	0	0	364	616
2	0	0	0	0	361	616
3	0	0	0	0	359	615
4	0	0	0	0	357	616
5	0	0	0	0	355	616
6	0	0	0	0	354	615
7	0	0	0	0	354	616
8	0	0	0	0	353	616
9	0	0	0	0	353	616
10	0	0	0	0	353	615
11	0	0	0	0	353	615
12	0	0	0	0	353	616
13	0	0	0	0	354	616
14	0	0	0	0	355	616
15	0	0	0	0	355	616
0	0	0	0	0	356	616
1	0	0	0	0	356	615
2	0	0	0	0	357	615
3	0	0	0	0	357	615
4	0	0	0	0	358	615
5	0	0	0	0	358	615
6	0	0	0	0	359	615
7	0	0	0	0	359	615
8	0	0	0	0	359	615
9	0	0	0	0	359	615
10	0	0	0	0	359	615
11	0	0	0	0	360	615
12	0	0	0	0	361	615
13	0	0	0	0	362	615
14	0	0	0	0	363	615
15	0	0	0	0	365	615
0	0	0	0	0	367	615
1	0	0	0	0	368	615
2	0	0	0	0	369	615
3	0	0	0	0	370	615
4	0	0	0	0	371	615
5	0	0	0	0	371	615
6	0	0	0	0	372	615
7	0	0	0	0	372	615
8	0	0	0	0	373	616
9	0	0	0	0	373	615
10	0	0	0	0	374	615
11	0	0	0	0	374	615
12	0	0	0	0	374	616
13	0	0	0	0	374	615
14	0	0	0	0	375	615
15	0	0	0	0	375	616
0	0	0	0	0	376	615
1	0	0	0	0	377	616
2	0	0	0	0	377	615
3	0	0	0	0	378	616
4	0	0	0	0	380	615
5	0	0	0	0	382	615
6	0	0	0	0	384	615
7	0	0	0	0	384	616
8	0	0	0	0	385	615
9	0	0	0	0	386	616
10	0	0	0	0	387	616
11	0	0	0	0	387	616
12	0	0	0	0	387	616
13	0	0	0	0	387	616
14	0	0	0	0	387	616
15	0	0	0	0	387	616
0	0	0	0	0	387	615
1	0	0	0	0	387	615
2	0	0	0	0	387	615
3	0	0	0	0	387	615
4	0	0	0	0	387	616
5	0	0	0	0	388	616
6	0	0	0	0	390	617
7	0	0	0	0	391	617
8	0	0	0	0	392	616
9	0	0	0	0	393	616
10	0	0	0	0	393	616
11	0	0	0	0	395	616
12	0	0	0	0	395	617
13	0	0	0	0	396	616
14	0	0	0	0	396	616
15	0	0	0	0	396	616
0	0	0	0	0	395	616
1	0	0	0	0	395	616
2	0	0	0	0	394	616
3	0	0	0	0	393	617
4	0	0	0	0	393	617
5	0	0	0	0	393	617
6	0	0	0	0	393	617
7	0	0	0	0	393	616
8	0	0	0	0	393	615
9	0	0	0	0	392	617
10	0	0	0	0	392	615
11	0	0	0	0	392	615
12	0	0	0	0	391	616
13	0	0	0	0	391	616
14	0	0	0	0	392	615
15	0	0	0	0	391	615
0	0	0	0	0	391	615
1	0	0	0	0	391	615
2	0	0	0	0	391	615
3	0	0	0	0	391	615
4	0	0	0	0	391	615
5	0	0	0	0	390	615
6	0	0	0	0	389	615
7	0	0	0	0	388	615
8	0	0	0	0	387	615
9	0	0	0	0	386	616
10	0	0	0	0	384	615
11	0	0	0	0	384	615
12	0	0	0	0	383	616
13	0	0	0	0	382	615
14	0	0	0	0	380	615
15	0	0	0	0	380	615
0	0	0	0	0	379	615
1	0	0	0	0	377	615
2	0	0	0	0	377	615
3	0	0	0	0	377	615
4	0	0	0	0	376	616
5	0	0	0	0	375	615
6	0	0	0	0	374	615
7	0	0	0	0	373	615
8	0	0	0	0	372	615
9	0	0	0	0	370	616
10	0	0	0	0	369	615
11	0	0	0	0	369	615
12	0	0	0	0	368	615
13	0	0	0	0	366	615
14	0	0	0	0	366	615
15	0	0	0	0	365	615
0	0	0	0	0	365	615
1	0	0	0	0	364	615
2	0	0	0	0	365	615
3	0	0	0	0	366	615
4	0	0	0	0	368	616
5	0	0	0	0	369	616
6	0	0	0	0	370	616
7	0	0	0	0	371	616
8	0	0	0	0	372	616
9	0	0	0	0	372	616
10	0	0	0	0	372	616
11	0	0	0	0	373	616
12	0	0	0	0	374	616
13	0	0	0	0	375	615
14	0	0	0	0	376	615
15	0	0	0	0	377	615
0	0	0	0	0	379	616
1	0	0	0	0	380	616
2	0	0	0	0	381	616
3	0	0	0	0	383	616
4	0	0	0	0	386	617
5	0	0	0	0	389	617
6	0	0	0	0	392	617
7	0	0	0	0	395	617
8	0	0	0	0	397	616
9	0	0	0	0	400	617
10	0	0	0	0	403	617
11	0	0	0	0	406	616
12	0	0	0	0	409	617
13	0	0	0	0	412	617
14	0	0	0	0	414	618
15	0	0	0	0	415	617
0	0	0	0	0	418	617
1	0	0	0	0	420	617
2	0	0	0	0	423	616
3	0	0	0	0	425	616
4	0	0	0	0	427	617
5	0	0	0	0	430	617
6	0	0	0	0	432	617
7	0	0	0	0	436	616
8	0	0	0	0	440	617
9	0	0	0	0	443	617
10	0	0	0	0	447	618
11	0	0	0	0	451	617
12	0	0	0	0	456	616
13	0	0	0	0	460	617
14	0	0	0	0	465	617
15	0	0	0	0	469	617
0	0	0	0	0	473	617
1	0	0	0	0	476	617
2	0	0	0	0	480	616
3	0	0	0	0	482	616
4	0	0	0	0	485	617
5	0	0	0	0	487	616
6	0	0	0	0	489	616
7	0	0	0	0	491	616
8	0	0	0	0	494	616
9	0	0	0	0	497	616
10	0	0	0	0	500	617
11	0	0	0	0	504	616
12	0	0	0	0	506	617
13	0	0	0	0	509	616
14	0	0	0	0	512	616
15	0	0	0	0	517	616
0	0	0	0	0	520	615
1	0	0	0	0	524	616
2	0	0	0	0	527	616
3	0	0	0	0	530	615
4	0	0	0	0	534	615
5	0	0	0	0	536	615
6	0	0	0	0	540	615
7	0	0	0	0	542	615
8	0	0	0	0	544	615
9	0	0	0	0	545	615
10	0	0	0	0	547	615
11	0	0	0	0	548	615
12	0	0	0	0	549	615
13	0	0	0	0	550	615
14	0	0	0	0	551	615
15	0	0	0	0	553	615
0	0	0	0	0	554	615
1	0	0	0	0	556	615
2	0	0	0	0	558	615
3	0	0	0	0	559	614
4	0	0	0	0	561	615
5	0	0	0	0	562	615
6	0	0	0	0	564	615
7	0	0	0	0	566	615
8	0	0	0	0	568	615
9	0	0	0	0	569	615
10	0	0	0	0	569	615
11	0	0	0	0	570	614
12	0	0	0	0	571	615
13	0	0	0	0	570	615
14	0	0	0	0	571	615
15	0	0	0	0	570	615
0	0	0	0	0	571	615
1	0	0	0	0	571	614
2	0	0	0	0	571	615
3	0	0	0	0	571	614
4	0	0	0	0	571	615
5	0	0	0	0	572	615
6	0	0	0	0	573	615
7	0	0	0	0	574	615
8	0	0	0	0	575	615
9	0	0	0	0	576	615
10	0	0	0	0	576	615
11	0	0	0	0	577	615
12	0	0	0	0	577	615
13	0	0	0	0	577	616
14	0	0	0	0	576	616
15	0	0	0	0	575	616
0	0	0	0	0	575	616
1	0	0	0	0	573	616
2	0	0	0	0	572	616
3	0	0	0	0	570	616
4	0	0	0	0	569	617
5	0	0	0	0	569	616
6	0	0	0	0	568	615
7	0	0	0	0	569	616
8	0	0	0	0	569	616
9	0	0	0	0	569	616
10	0	0	0	0	569	616
11	0	0	0	0	569	616
12	0	0	0	0	569	617
13	0	0	0	0	569	616
14	0	0	0	0	569	617
15	0	0	0	0	569	617
0	0	0	0	0	568	617
1	0	0	0	0	568	617
2	0	0	0	0	568	617
3	0	0	0	0	566	617
4	0	0	0	0	565	618
5	0	0	0	0	563	617
6	0	0	0	0	562	617
7	0	0	0	0	561	617
8	0	0	0	0	560	617
9	0	0	0	0	559	617
10	0	0	0	0	557	617
11	0	0	0	0	556	617
12	0	0	0	0	556	617
13	0	0	0	0	555	617
14	0	0	0	0	556	617
15	0	0	0	0	556	617
0	0	0	0	0	556	617
1	0	0	0	0	557	617
2	0	0	0	0	557	617
3	0	0	0	0	557	618
4	0	0	0	0	556	617
5	0	0	0	0	555	617
6	0	0	0	0	555	617
7	0	0	0	0	554	617
8	0	0	0	0	553	616
9	0	0	0	0	551	617
10	0	0	0	0	550	617
11	0	0	0	0	549	617
12	0	0	0	0	548	617
13	0	0	0	0	547	616
14	0	0	0	0	547	617
15	0	0	0	0	547	616
0	0	0	0	0	547	616
1	0	0	0	0	547	616
2	0	0	0	0	547	616
3	0	0	0	0	548	616
4	0	0	0	0	548	616
5	0	0	0	0	548	616
6	0	0	0	0	548	616
7	0	0	0	0	548	616
8	0	0	0	0	548	616
9	0	0	0	0	547	616
10	0	0	0	0	547	615
11	0	0	0	0	546	615
12	0	0	0	0	546	616
13	0	0	0	0	545	615
14	0	0	0	0	544	615
15	0	0	0	0	544	615
0	0	0	0	0	544	615
1	0	0	0	0	544	615
2	0	0	0	0	544	615
3	0	0	0	0	544	615
4	0	0	0	0	544	615
5	0	0	0	0	545	615
6	0	0	0	0	545	615
7	0	0	0	0	546	615
8	0	0	0	0	547	615
9	0	0	0	0	548	615
10	0	0	0	0	548	614
11	0	0	0	0	549	615
12	0	0	0	0	548	615
13	0	0	0	0	547	615
14	0	0	0	0	546	614
15	0	0	0	0	545	615
0	0	0	0	0	544	615
1	0	0	0	0	542	615
2	0	0	0	0	541	615
3	0	0	0	0	540	615
4	0	0	0	0	539	615
5	0	0	0	0	538	615
6	0	0	0	0	538	615
7	0	0	0	0	537	615
8	0	0	0	0	538	614
9	0	0	0	0	538	615
10	0	0	0	0	539	615
11	0	0	0	0	539	615
12	0	0	0	0	540	615
13	0	0	0	0	540	615
14	0	0	0	0	540	615
15	0	0	0	0	540	615
0	0	0	0	0	540	615
1	0	0	0	0	541	615
2	0	0	0	0	541	615
3	0	0	0	0	541	615
4	0	0	0	0	541	615
5	0	0	0	0	540	615
6	0	0	0	0	538	615
7	0	0	0	0	536	616
8	0	0	0	0	534	615
9	0	0	0	0	532	616
10	0	0	0	0	531	616
11	0	0	0	0	530	616
12	0	0	0	0	529	616
13	0	0	0	0	529	616
14	0	0	0	0	529	616
15	0	0	0	0	530	615
0	0	0	0	0	530	616
1	0	0	0	0	530	615
2	0	0	0	0	531	616
3	0	0	0	0	530	616
4	0	0	0	0	530	616
5	0	0	0	0	530	616
6	0	0	0	0	530	616
7	0	0	0	0	529	617
8	0	0	0	0	529	616
9	0	0	0	0	527	616
10	0	0	0	0	527	617
11	0	0	0	0	526	616
12	0	0	0	0	525	617
13	0	0	0	0	525	616
14	0	0	0	0	525	616
15	0	0	0	0	525	616
0	0	0	0	0	524	617
1	0	0	0	0	525	616
2	0	0	0	0	525	616
3	0	0	0	0	526	616
4	0	0	0	0	527	617
5	0	0	0	0	528	616
6	0	0	0	0	529	616
7	0	0	0	0	530	617
8	0	0	0	0	531	617
9	0	0	0	0	533	617
10	0	0	0	0	535	616
11	0	0	0	0	536	616
12	0	0	0	0	536	616
13	0	0	0	0	538	616
14	0	0	0	0	540	616
15	0	0	0	0	541	616
0	0	0	0	0	542	616
1	0	0	0	0	543	617
2	0	0	0	0	543	617
3	0	0	0	0	544	617
4	0	0	0	0	545	617
5	0	0	0	0	546	617
6	0	0	0	0	548	617
7	0	0	0	0	548	617
8	0	0	0	0	549	617
9	0	0	0	0	549	616
10	0	0	0	0	548	616
11	0	0	0	0	547	617
12	0	0	0	0	547	617
13	0	0	0	0	546	617
14	0	0	0	0	544	616
15	0	0	0	0	542	616
0	0	0	0	0	541	617
1	0	0	0	0	539	616
2	0	0	0	0	537	616
3	0	0	0	0	536	615
4	0	0	0	0	535	616
5	0	0	0	0	534	616
6	0	0	0	0	533	616
7	0	0	0	0	532	615
8	0	0	0	0	532	615
9	0	0	0	0	531	616
10	0	0	0	0	532	616
11	0	0	0	0	532	615
12	0	0	0	0	533	616
13	0	0	0	0	534	615
14	0	0	0	0	535	615
15	0	0	0	0	536	616
0	0	0	0	0	537	616
1	0	0	0	0	538	615
2	0	0	0	0	539	615
3	0	0	0	0	538	615
4	0	0	0	0	538	616
5	0	0	0	0	537	616
6	0	0	0	0	536	616
7	0	0	0	0	535	616
8	0	0	0	0	534	615
9	0	0	0	0	534	616
10	0	0	0	0	533	615
11	0	0	0	0	532	616
12	0	0	0	0	532	616
13	0	0	0	0	532	616
14	0	0	0	0	533	615
15	0	0	0	0	534	615
0	0	0	0	0	534	615
1	0	0	0	0	535	615
2	0	0	0	0	535	615
3	0	0	0	0	535	615
4	0	0	0	0	535	615
5	0	0	0	0	535	615
6	0	0	0	0	534	615
7	0	0	0	0	532	615
8	0	0	0	0	531	615
9	0	0	0	0	529	615
10	0	0	0	0	527	615
11	0	0	0	0	525	615
12	0	0	0	0	525	616
13	0	0	0	0	524	615
14	0	0	0	0	523	616
15	0	0	0	0	523	616
0	0	0	0	0	523	615
1	0	0	0	0	523	615
2	0	0	0	0	523	615
3	0	0	0	0	522	615
4	0	0	0	0	522	616
5	0	0	0	0	523	615
6	0	0	0	0	523	616
7	0	0	0	0	524	616
8	0	0	0	0	524	616
9	0	0	0	0	524	615
10	0	0	0	0	524	616
11	0	0	0	0	524	616
12	0	0	0	0	523	616
13	0	0	0	0	522	615
14	0	0	0	0	520	616
15	0	0	0	0	519	616
0	0	0	0	0	517	616
1	0	0	0	0	515	617
2	0	0	0	0	514	616
3	0	0	0	0	513	616
4	0	0	0	0	512	617
5	0	0	0	0	510	616
6	0	0	0	0	507	616
7	0	0	0	0	502	616
8	0	0	0	0	497	616
9	0	0	0	0	491	615
10	0	0	0	0	486	616
11	0	0	0	0	479	616
12	0	0	0	0	473	616
13	0	0	0	0	467	616
14	0	0	0	0	463	616
15	0	0	0	0	462	616
0	0	0	0	0	460	616
1	0	0	0	0	457	615
2	0	0	0	0	455	616
3	0	0	0	0	452	616
4	0	0	0	0	448	617
5	0	0	0	0	441	616
6	0	0	0	0	436	616
7	0	0	0	0	435	616
8	0	0	0	0	437	616
9	0	0	0	0	442	616
10	0	0	0	0	455	616
11	0	0	0	0	471	616
12	0	0	0	0	491	617
13	0	0	0	0	512	617
14	0	0	0	0	538	616
15	0	0	0	0	570	616
0	0	0	0	0	611	616
1	0	0	0	0	653	616
2	0	0	0	0	696	616
3	0	0	0	0	746	616
4	0	0	0	0	805	616
5	0	0	0	0	863	615
6	0	0	0	0	918	616
7	0	0	0	0	969	615
8	0	0	0	0	1016	615
9	0	0	0	0	1022	615
10	0	0	0	0	1022	615
11	0	0	0	0	1022	615
12	0	0	0	0	1022	615
13	0	0	0	0	1022	615
14	0	0	0	0	1022	616
15	0	0	0	0	1022	615
0	0	0	0	0	1022	615
1	0	0	0	0	1022	616
2	0	0	0	0	1022	615
3	0	0	0	0	1022	615
4	0	0	0	0	1022	616
5	0	0	0	0	1022	615
6	0	0	0	0	1022	616
7	0	0	0	0	1021	616
8	0	0	0	0	971	616
9	0	0	0	0	917	615
10	0	0	0	0	861	615
11	0	0	0	0	804	615
12	0	0	0	0	752	615
13	0	0	0	0	703	616
14	0	0	0	0	659	616
15	0	0	0	0	622	616
0	0	0	0	0	592	616
1	0	0	0	0	569	616
2	0	0	0	0	550	616
3	0	0	0	0	532	616
4	0	0	0	0	515	615
5	0	0	0	0	499	615
6	0	0	0	0	484	615
7	0	0	0	0	472	616
8	0	0	0	0	460	616
9	0	0	0	0	449	615
10	0	0	0	0	440	615
11	0	0	0	0	430	615
12	0	0	0	0	422	616
13	0	0	0	0	413	615
14	0	0	0	0	405	615
15	0	0	0	0	397	615
0	0	0	0	0	390	616
1	0	0	0	0	384	616
2	0	0	0	0	380	616
3	0	0	0	0	376	615
4	0	0	0	0	372	616
5	0	0	0	0	369	616
6	0	0	0	0	367	616
7	0	0	0	0	365	615
8	0	0	0	0	363	615
9	0	0	0	0	363	616
10	0	0	0	0	362	616
11	0	0	0	0	360	616
12	0	0	0	0	360	615
13	0	0	0	0	359	615
14	0	0	0	0	359	615
15	0	0	0	0	357	615
0	0	0	0	0	356	615
1	0	0	0	0	355	615
2	0	0	0	0	355	615
3	0	0	0	0	354	615
4	0	0	0	0	354	616
5	0	0	0	0	353	616
6	0	0	0	0	353	616
7	0	0	0	0	353	616
8	0	0	0	0	354	615
9	0	0	0	0	355	615
10	0	0	0	0	358	615
11	0	0	0	0	359	615
12	0	0	0	0	360	616
13	0	0	0	0	362	615
14	0	0	0	0	363	615
15	0	0	0	0	364	615
0	0	0	0	0	365	615
1	0	0	0	0	365	615
2	0	0	0	0	366	615
3	0	0	0	0	365	615
4	0	0	0	0	366	615
5	0	0	0	0	366	615
6	0	0	0	0	366	615
7	0	0	0	0	366	614
8	0	0	0	0	366	615
9	0	0	0	0	366	615
10	0	0	0	0	367	615
11	0	0	0	0	368	615
12	0	0	0	0	369	615
13	0	0	0	0	371	615
14	0	0	0	0	372	615
15	0	0	0	0	374	615
0	0	0	0	0	376	615
1	0	0	0	0	377	615
2	0	0	0	0	379	615
3	0	0	0	0	380	615
4	0	0	0	0	380	615
5	0	0	0	0	381	615
6	0	0	0	0	381	615
7	0	0	0	0	382	616
8	0	0	0	0	381	615
9	0	0	0	0	381	615
10	0	0	0	0	382	616
11	0	0	0	0	382	616
12	0	0	0	0	382	616
13	0	0	0	0	383	616
14	0	0	0	0	384	616
15	0	0	0	0	384	616
0	0	0	0	0	385	616
1	0	0	0	0	387	616
2	0	0	0	0	388	615
3	0	0	0	0	389	616
4	0	0	0	0	391	616
5	0	0	0	0	391	616
6	0	0	0	0	391	615
7	0	0	0	0	392	616
8	0	0	0	0	392	615
9	0	0	0	0	393	616
10	0	0	0	0	393	616
11	0	0	0	0	393	616
12	0	0	0	0	394	616
13	0	0	0	0	394	616
14	0	0	0	0	394	615
15	0	0	0	0	394	615
0	0	0	0	0	393	616
1	0	0	0	0	393	616
2	0	0	0	0	393	616
3	0	0	0	0	393	616
4	0	0	0	0	393	617
5	0	0	0	0	395	616
6	0	0	0	0	396	616
7	0	0	0	0	395	616
8	0	0	0	0	395	616
9	0	0	0	0	396	616
10	0	0	0	0	396	616
11	0	0	0	0	397	615
12	0	0	0	0	397	617
13	0	0	0	0	397	616
14	0	0	0	0	398	616
15	0	0	0	0	399	615
0	0	0	0	0	399	615
1	0	0	0	0	399	616
2	0	0	0	0	398	615
3	0	0	0	0	397	615
4	0	0	0	0	396	616
5	0	0	0	0	396	617
6	0	0	0	0	395	616
7	0	0	0	0	394	616
8	0	0	0	0	393	617
9	0	0	0	0	393	616
10	0	0	0	0	393	616
11	0	0	0	0	393	616
12	0	0	0	0	394	617
13	0	0	0	0	394	617
14	0	0	0	0	394	616
15	0	0	0	0	393	616
0	0	0	0	0	393	616
1	0	0	0	0	392	616
2	0	0	0	0	391	616
3	0	0	0	0	389	616
4	0	0	0	0	387	616
5	0	0	0	0	386	615
6	0	0	0	0	384	616
7	0	0	0	0	383	616
8	0	0	0	0	382	616
9	0	0	0	0	380	616
10	0	0	0	0	379	616
11	0	0	0	0	378	616
12	0	0	0	0	378	617
13	0	0	0	0	377	616
14	0	0	0	0	377	616
15	0	0	0	0	377	616
0	0	0	0	0	377	616
1	0	0	0	0	378	616
2	0	0	0	0	377	616
3	0	0	0	0	377	616
4	0	0	0	0	376	616
5	0	0	0	0	376	615
6	0	0	0	0	376	615
7	0	0	0	0	376	615
8	0	0	0	0	375	616
9	0	0	0	0	375	615
10	0	0	0	0	375	615
11	0	0	0	0	374	616
12	0	0	0	0	374	616
13	0	0	0	0	375	616
14	0	0	0	0	375	616
15	0	0	0	0	375	616
0	0	0	0	0	376	615
1	0	0	0	0	377	615
2	0	0	0	0	378	615
3	0	0	0	0	379	615
4	0	0	0	0	381	616
5	0	0	0	0	383	616
6	0	0	0	0	386	615
7	0	0	0	0	388	616
8	0	0	0	0	390	617
9	0	0	0	0	392	616
10	0	0	0	0	395	616
11	0	0	0	0	397	616
12	0	0	0	0	399	617
13	0	0	0	0	400	616
14	0	0	0	0	402	617
15	0	0	0	0	403	616
0	0	0	0	0	405	616
1	0	0	0	0	407	616
2	0	0	0	0	409	616
3	0	0	0	0	412	616
4	0	0	0	0	414	617
5	0	0	0	0	416	616
6	0	0	0	0	419	616
7	0	0	0	0	423	616
8	0	0	0	0	425	616
9	0	0	0	0	429	617
10	0	0	0	0	433	616
11	0	0	0	0	436	616
12	0	0	0	0	440	616
13	0	0	0	0	443	615
14	0	0	0	0	446	615
15	0	0	0	0	449	616
0	0	0	0	0	451	616
1	0	0	0	0	454	616
2	0	0	0	0	457	616
3	0	0	0	0	460	616
4	0	0	0	0	463	616
5	0	0	0	0	466	616
6	0	0	0	0	469	616
7	0	0	0	0	472	616
8	0	0	0	0	475	616
9	0	0	0	0	480	617
10	0	0	0	0	483	617
11	0	0	0	0	487	616
12	0	0	0	0	490	616
13	0	0	0	0	494	615
14	0	0	0	0	497	616
15	0	0	0	0	502	616
0	0	0	0	0	504	615
1	0	0	0	0	508	616
2	0	0	0	0	512	616
3	0	0	0	0	515	615
4	0	0	0	0	518	616
5	0	0	0	0	521	616
6	0	0	0	0	523	616
7	0	0	0	0	525	616
8	0	0	0	0	527	615
9	0	0	0	0	529	615
10	0	0	0	0	531	615
11	0	0	0	0	532	615
12	0	0	0	0	535	615
13	0	0	0	0	537	616
14	0	0	0	0	540	615
15	0	0	0	0	541	615
0	0	0	0	0	544	615
1	0	0	0	0	546	615
2	0	0	0	0	548	615
3	0	0	0	0	549	615
4	0	0	0	0	551	615
5	0	0	0	0	553	615
6	0	0	0	0	554	615
7	0	0	0	0	555	615
8	0	0	0	0	556	615
9	0	0	0	0	557	615
10	0	0	0	0	559	615
11	0	0	0	0	560	615
12	0	0	0	0	561	616
13	0	0	0	0	563	615
14	0	0	0	0	564	615
15	0	0	0	0	565	615
0	0	0	0	0	566	615
1	0	0	0	0	567	615
2	0	0	0	0	568	615
3	0	0	0	0	569	615
4	0	0	0	0	570	615
5	0	0	0	0	572	615
6	0	0	0	0	572	615
7	0	0	0	0	574	615
8	0	0	0	0	574	615
9	0	0	0	0	575	616
10	0	0	0	0	575	615
11	0	0	0	0	574	615
12	0	0	0	0	574	615
13	0	0	0	0	573	615
14	0	0	0	0	573	615
15	0	0	0	0	572	616
0	0	0	0	0	572	616
1	0	0	0	0	572	615
2	0	0	0	0	572	616
3	0	0	0	0	571	616
4	0	0	0	0	571	616
5	0	0	0	0	570	615
6	0	0	0	0	570	615
7	0	0	0	0	569	615
8	0	0	0	0	570	616
9	0	0	0	0	570	616
10	0	0	0	0	570	616
11	0	0	0	0	570	616
12	0	0	0	0	569	616
13	0	0	0	0	568	616
14	0	0	0	0	568	616
15	0	0	0	0	567	616
0	0	0	0	0	566	616
1	0	0	0	0	565	616
2	0	0	0	0	563	616
3	0	0	0	0	562	617
4	0	0	0	0	561	617
5	0	0	0	0	560	617
6	0	0	0	0	559	616
7	0	0	0	0	559	616
8	0	0	0	0	560	615
9	0	0	0	0	560	616
10	0	0	0	0	560	616
11	0	0	0	0	560	616
12	0	0	0	0	562	616
13	0	0	0	0	562	617
14	0	0	0	0	562	617
15	0	0	0	0	563	617
0	0	0	0	0	561	616
1	0	0	0	0	561	616
2	0	0	0	0	561	616
3	0	0	0	0	560	617
4	0	0	0	0	560	616
5	0	0	0	0	559	616
6	0	0	0	0	558	617
7	0	0	0	0	556	617
8	0	0	0	0	554	616
9	0	0	0	0	553	616
10	0	0	0	0	552	616
11	0	0	0	0	551	616
12	0	0	0	0	551	617
13	0	0	0	0	551	617
14	0	0	0	0	550	617
15	0	0	0	0	550	617
0	0	0	0	0	550	616
1	0	0	0	0	551	616
2	0	0	0	0	551	616
3	0	0	0	0	551	616
4	0	0	0	0	551	615
5	0	0	0	0	550	616
6	0	0	0	0	550	616
7	0	0	0	0	548	616
8	0	0	0	0	548	616
9	0	0	0	0	548	617
10	0	0	0	0	547	616
11	0	0	0	0	547	616
12	0	0	0	0	545	616
13	0	0	0	0	546	617
14	0	0	0	0	546	616
15	0	0	0	0	547	616
0	0	0	0	0	547	616
1	0	0	0	0	547	616
2	0	0	0	0	547	616
3	0	0	0	0	547	616
4	0	0	0	0	547	616
5	0	0	0	0	546	615
6	0	0	0	0	546	616
7	0	0	0	0	546	616
8	0	0	0	0	546	616
9	0	0	0	0	545	616
10	0	0	0	0	545	616
11	0	0	0	0	544	615
12	0	0	0	0	544	616
13	0	0	0	0	543	615
14	0	0	0	0	542	615
15	0	0	0	0	540	615
0	0	0	0	0	539	615
1	0	0	0	0	539	616
2	0	0	0	0	537	616
3	0	0	0	0	537	616
4	0	0	0	0	536	616
5	0	0	0	0	535	615
6	0	0	0	0	536	615
7	0	0	0	0	536	615
8	0	0	0	0	537	615
9	0	0	0	0	537	615
10	0	0	0	0	537	615
11	0	0	0	0	537	615
12	0	0	0	0	536	615
13	0	0	0	0	536	615
14	0	0	0	0	535	615
15	0	0	0	0	534	615
0	0	0	0	0	533	615
1	0	0	0	0	531	615
2	0	0	0	0	530	615
3	0	0	0	0	529	616
4	0	0	0	0	528	615
5	0	0	0	0	527	615
6	0	0	0	0	527	615
7	0	0	0	0	526	615
8	0	0	0	0	526	615
9	0	0	0	0	527	615
10	0	0	0	0	527	615
11	0	0	0	0	527	615
12	0	0	0	0	527	615
13	0	0	0	0	527	615
14	0	0	0	0	527	615
15	0	0	0	0	527	615
0	0	0	0	0	527	615
1	0	0	0	0	527	615
2	0	0	0	0	526	615
3	0	0	0	0	527	616
4	0	0	0	0	527	616
5	0	0	0	0	526	615
6	0	0	0	0	524	615
7	0	0	0	0	523	616
8	0	0	0	0	521	615
9	0	0	0	0	521	615
10	0	0	0	0	521	615
11	0	0	0	0	520	615
12	0	0	0	0	520	616
13	0	0	0	0	521	615
14	0	0	0	0	522	615
15	0	0	0	0	523	616
0	0	0	0	0	524	615
1	0	0	0	0	527	615
2	0	0	0	0	528	615
3	0	0	0	0	530	616
4	0	0	0	0	531	616
5	0	0	0	0	533	616
6	0	0	0	0	535	616
7	0	0	0	0	536	616
8	0	0	0	0	537	615
9	0	0	0	0	539	616
10	0	0	0	0	539	616
11	0	0	0	0	540	616
12	0	0	0	0	541	617
13	0	0	0	0	542	616
14	0	0	0	0	542	617
15	0	0	0	0	543	616
0	0	0	0	0	544	616
1	0	0	0	0	544	616
2	0	0	0	0	545	615
3	0	0	0	0	546	617
4	0	0	0	0	547	617
5	0	0	0	0	546	617
6	0	0	0	0	545	616
7	0	0	0	0	545	617
8	0	0	0	0	545	617
9	0	0	0	0	544	616
10	0	0	0	0	543	616
11	0	0	0	0	543	617
12	0	0	0	0	542	617
13	0	0	0	0	539	616
14	0	0	0	0	538	616
15	0	0	0	0	536	617
0	0	0	0	0	535	617
1	0	0	0	0	534	617
2	0	0	0	0	533	616
3	0	0	0	0	532	617
4	0	0	0	0	532	617
5	0	0	0	0	532	616
6	0	0	0	0	533	617
7	0	0	0	0	533	617
8	0	0	0	0	534	617
9	0	0	0	0	536	617
10	0	0	0	0	537	617
11	0	0	0	0	539	617
12	0	0	0	0	540	617
13	0	0	0	0	542	616
14	0	0	0	0	542	616
15	0	0	0	0	542	617
0	0	0	0	0	542	617
1	0	0	0	0	541	616
2	0	0	0	0	540	617
3	0	0	0	0	538	616
4	0	0	0	0	536	616
5	0	0	0	0	536	617
6	0	0	0	0	535	616
7	0	0	0	0	535	616
8	0	0	0	0	535	616
9	0	0	0	0	534	616
10	0	0	0	0	535	616
11	0	0	0	0	536	616
12	0	0	0	0	536	616
13	0	0	0	0	537	616
14	0	0	0	0	537	616
15	0	0	0	0	538	616
0	0	0	0	0	538	615
1	0	0	0	0	539	616
2	0	0	0	0	539	615
3	0	0	0	0	538	615
4	0	0	0	0	537	616
5	0	0	0	0	537	615
6	0	0	0	0	536	616
7	0	0	0	0	536	616
8	0	0	0	0	535	616
9	0	0	0	0	534	615
10	0	0	0	0	534	615
11	0	0	0	0	534	615
12	0	0	0	0	533	615
13	0	0	0	0	533	615
14	0	0	0	0	532	615
15	0	0	0	0	532	616
0	0	0	0	0	532	616
1	0	0	0	0	532	615
2	0	0	0	0	532	615
3	0	0	0	0	532	615
4	0	0	0	0	532	616
5	0	0	0	0	532	615
6	0	0	0	0	532	615
7	0	0	0	0	532	615
8	0	0	0	0	532	615
9	0	0	0	0	531	615
10	0	0	0	0	530	616
11	0	0	0	0	529	616
12	0	0	0	0	528	616
13	0	0	0	0	527	616
14	0	0	0	0	525	616
15	0	0	0	0	523	615
0	0	0	0	0	522	615
1	0	0	0	0	519	615
2	0	0	0	0	516	615
3	0	0	0	0	511	615
4	0	0	0	0	507	616
5	0	0	0	0	501	615
6	0	0	0	0	495	615
7	0	0	0	0	489	616
8	0	0	0	0	484	615
9	0	0	0	0	479	615
10	0	0	0	0	476	615
11	0	0	0	0	473	615
12	0	0	0	0	471	615
13	0	0	0	0	469	615
14	0	0	0	0	467	615
15	0	0	0	0	465	615
0	0	0	0	0	460	616
1	0	0	0	0	455	615
2	0	0	0	0	450	616
3	0	0	0	0	447	615
4	0	0	0	0	448	616
5	0	0	0	0	452	615
6	0	0	0	0	463	616
7	0	0	0	0	480	615
8	0	0	0	0	499	616
9	0	0	0	0	523	615
10	0	0	0	0	550	616
11	0	0	0	0	584	616
12	0	0	0	0	624	616
13	0	0	0	0	668	616
14	0	0	0	0	708	616
15	0	0	0	0	758	616
0	0	0	0	0	813	616
1	0	0	0	0	871	616
2	0	0	0	0	927	615
3	0	0	0	0	979	615
4	0	0	0	0	1021	616
5	0	0	0	0	1022	616
6	0	0	0	0	1022	615
7	0	0	0	0	1022	615
8	0	0	0	0	1022	615
9	0	0	0	0	1022	615
10	0	0	0	0	1022	615
11	0	0	0	0	1022	616
12	0	0	0	0	1022	616
13	0	0	0	0	1022	616
14	0	0	0	0	1022	616
15	0	0	0	0	1022	616
0	0	0	0	0	1022	616
1	0	0	0	0	1022	616
2	0	0	0	0	1022	615
3	0	0	0	0	1022	615
4	0	0	0	0	1013	616
5	0	0	0	0	959	616
6	0	0	0	0	902	616
7	0	0	0	0	843	616
8	0	0	0	0	786	616
9	0	0	0	0	732	616
10	0	0	0	0	683	616
11	0	0	0	0	640	616
12	0	0	0	0	605	617
13	0	0	0	0	577	616
14	0	0	0	0	555	616
15	0	0	0	0	535	616
0	0	0	0	0	517	616
1	0	0	0	0	501	617
2	0	0	0	0	486	616
3	0	0	0	0	472	616
4	0	0	0	0	459	617
5	0	0	0	0	448	616
6	0	0	0	0	438	616
7	0	0	0	0	428	616
8	0	0	0	0	420	616
9	0	0	0	0	412	616
10	0	0	0	0	404	616
11	0	0	0	0	397	616
12	0	0	0	0	391	617
13	0	0	0	0	387	616
14	0	0	0	0	383	616
15	0	0	0	0	379	616
0	0	0	0	0	375	616
1	0	0	0	0	371	616
2	0	0	0	0	368	616
3	0	0	0	0	365	616
4	0	0	0	0	363	616
5	0	0	0	0	361	615
6	0	0	0	0	359	616
7	0	0	0	0	358	616
8	0	0	0	0	356	616
9	0	0	0	0	355	616
10	0	0	0	0	353	616
11	0	0	0	0	352	615
12	0	0	0	0	351	616
13	0	0	0	0	351	616
14	0	0	0	0	351	615
15	0	0	0	0	351	615
0	0	0	0	0	351	615
1	0	0	0	0	351	616
2	0	0	0	0	351	615
3	0	0	0	0	351	615
4	0	0	0	0	351	615
5	0	0	0	0	353	615
6	0	0	0	0	354	615
7	0	0	0	0	355	615
8	0	0	0	0	356	615
9	0	0	0	0	355	615
10	0	0	0	0	356	615
11	0	0	0	0	357	615
12	0	0	0	0	359	616
13	0	0	0	0	360	615
14	0	0	0	0	361	615
15	0	0	0	0	361	615
0	0	0	0	0	361	615
1	0	0	0	0	362	615
2	0	0	0	0	362	615
3	0	0	0	0	362	615
4	0	0	0	0	364	615
5	0	0	0	0	364	615
6	0	0	0	0	365	615
7	0	0	0	0	366	615
8	0	0	0	0	367	615
9	0	0	0	0	368	615
10	0	0	0	0	370	615
11	0	0	0	0	371	615
12	0	0	0	0	373	615
13	0	0	0	0	374	615
14	0	0	0	0	375	615
15	0	0	0	0	376	615
0	0	0	0	0	377	615
1	0	0	0	0	377	615
2	0	0	0	0	378	615
3	0	0	0	0	378	615
4	0	0	0	0	378	616
5	0	0	0	0	380	615
6	0	0	0	0	380	615
7	0	0	0	0	380	615
8	0	0	0	0	381	615
9	0	0	0	0	382	615
10	0	0	0	0	383	615
11	0	0	0	0	384	615
12	0	0	0	0	385	615
13	0	0	0	0	385	616
14	0	0	0	0	386	616
15	0	0	0	0	387	616
0	0	0	0	0	388	615
1	0	0	0	0	389	616
2	0	0	0	0	390	616
3	0	0	0	0	391	616
4	0	0	0	0	392	616
5	0	0	0	0	393	616
6	0	0	0	0	393	616
7	0	0	0	0	393	616
8	0	0	0	0	393	616
9	0	0	0	0	392	615
10	0	0	0	0	392	616
11	0	0	0	0	391	616
12	0	0	0	0	391	616
13	0	0	0	0	391	615
14	0	0	0	0	391	616
15	0	0	0	0	392	615
0	0	0	0	0	393	615
1	0	0	0	0	393	615
2	0	0	0	0	394	616
3	0	0	0	0	395	615
4	0	0	0	0	397	616
5	0	0	0	0	398	616
6	0	0	0	0	398	615
7	0	0	0	0	399	616
8	0	0	0	0	399	615
9	0	0	0	0	399	616
10	0	0	0	0	399	616
11	0	0	0	0	399	615
12	0	0	0	0	399	617
13	0	0	0	0	398	616
14	0	0	0	0	397	616
15	0	0	0	0	396	616
0	0	0	0	0	396	616
1	0	0	0	0	394	616
2	0	0	0	0	393	616
3	0	0	0	0	391	617
4	0	0	0	0	391	617
5	0	0	0	0	391	616
6	0	0	0	0	392	616
7	0	0	0	0	392	616
8	0	0	0	0	393	616
9	0	0	0	0	394	616
10	0	0	0	0	394	616
11	0	0	0	0	394	616
12	0	0	0	0	393	617
13	0	0	0	0	392	616
14	0	0	0	0	391	616
15	0	0	0	0	388	616
0	0	0	0	0	387	616
1	0	0	0	0	384	616
2	0	0	0	0	383	615
3	0	0	0	0	381	615
4	0	0	0	0	379	616
5	0	0	0	0	378	616
6	0	0	0	0	376	616
7	0	0	0	0	375	616
8	0	0	0	0	373	616
9	0	0	0	0	372	616
10	0	0	0	0	372	616
11	0	0	0	0	372	616
12	0	0	0	0	372	616
13	0	0	0	0	372	616
14	0	0	0	0	372	615
15	0	0	0	0	372	616
0	0	0	0	0	372	616
1	0	0	0	0	372	617
2	0	0	0	0	372	617
3	0	0	0	0	372	616
4	0	0	0	0	371	615
5	0	0	0	0	370	615
6	0	0	0	0	369	615
7	0	0	0	0	368	616
8	0	0	0	0	368	616
9	0	0	0	0	368	617
10	0	0	0	0	369	616
11	0	0	0	0	370	616
12	0	0	0	0	371	617
13	0	0	0	0	373	616
14	0	0	0	0	374	616
15	0	0	0	0	376	617
0	0	0	0	0	378	616
1	0	0	0	0	381	617
2	0	0	0	0	383	617
3	0	0	0	0	384	617
4	0	0	0	0	386	618
5	0	0	0	0	387	617
6	0	0	0	0	388	616
7	0	0	0	0	390	616
8	0	0	0	0	392	617
9	0	0	0	0	393	616
10	0	0	0	0	395	617
11	0	0	0	0	397	616
12	0	0	0	0	399	617
13	0	0	0	0	401	616
14	0	0	0	0	403	617
15	0	0	0	0	406	616
0	0	0	0	0	409	616
1	0	0	0	0	412	616
2	0	0	0	0	415	616
3	0	0	0	0	419	616
4	0	0	0	0	423	617
5	0	0	0	0	427	616
6	0	0	0	0	429	616
7	0	0	0	0	433	616
8	0	0	0	0	436	616
9	0	0	0	0	440	616
10	0	0	0	0	442	616
11	0	0	0	0	445	616
12	0	0	0	0	447	616
13	0	0	0	0	450	616
14	0	0	0	0	452	616
15	0	0	0	0	455	617
0	0	0	0	0	458	617
1	0	0	0	0	462	616
2	0	0	0	0	465	615
3	0	0	0	0	469	616
4	0	0	0	0	472	616
5	0	0	0	0	475	615
6	0	0	0	0	480	615
7	0	0	0	0	483	615
8	0	0	0	0	487	615
9	0	0	0	0	491	615
10	0	0	0	0	495	615
11	0	0	0	0	499	615
12	0	0	0	0	502	616
13	0	0	0	0	504	615
14	0	0	0	0	507	615
15	0	0	0	0	510	615
0	0	0	0	0	513	615
1	0	0	0	0	515	615
2	0	0	0	0	517	615
3	0	0	0	0	519	615
4	0	0	0	0	521	616
5	0	0	0	0	524	615
6	0	0	0	0	527	615
7	0	0	0	0	530	615
8	0	0	0	0	533	615
9	0	0	0	0	536	615
10	0	0	0	0	540	615
11	0	0	0	0	543	615
12	0	0	0	0	547	616
13	0	0	0	0	549	615
14	0	0	0	0	552	615
15	0	0	0	0	556	615
0	0	0	0	0	557	615
1	0	0	0	0	559	615
2	0	0	0	0	560	615
3	0	0	0	0	561	615
4	0	0	0	0	562	615
5	0	0	0	0	562	615
6	0	0	0	0	563	615
7	0	0	0	0	564	615
8	0	0	0	0	566	615
9	0	0	0	0	567	615
10	0	0	0	0	567	615
11	0	0	0	0	567	614
12	0	0	0	0	568	614
13	0	0	0	0	567	615
14	0	0	0	0	568	615
15	0	0	0	0	569	615
0	0	0	0	0	571	615
1	0	0	0	0	571	615
2	0	0	0	0	571	615
3	0	0	0	0	572	615
4	0	0	0	0	574	615
5	0	0	0	0	575	615
6	0	0	0	0	575	615
7	0	0	0	0	575	616
8	0	0	0	0	574	615
9	0	0	0	0	574	615
10	0	0	0	0	573	615
11	0	0	0	0	572	616
12	0	0	0	0	571	616
13	0	0	0	0	571	616
14	0	0	0	0	571	616
15	0	0	0	0	571	616
0	0	0	0	0	571	616
1	0	0	0	0	572	616
2	0	0	0	0	572	616
3	0	0	0	0	572	616
4	0	0	0	0	573	617
5	0	0	0	0	573	616
6	0	0	0	0	574	616
7	0	0	0	0	575	615
8	0	0	0	0	574	615
9	0	0	0	0	573	616
10	0	0	0	0	572	616
11	0	0	0	0	571	615
12	0	0	0	0	570	617
13	0	0	0	0	568	616
14	0	0	0	0	567	616
15	0	0	0	0	565	617
0	0	0	0	0	564	616
1	0	0	0	0	564	617
2	0	0	0	0	564	616
3	0	0	0	0	564	616
4	0	0	0	0	564	617
5	0	0	0	0	563	615
6	0	0	0	0	562	616
7	0	0	0	0	562	616
8	0	0	0	0	561	616
9	0	0	0	0	561	616
10	0	0	0	0	561	616
11	0	0	0	0	562	617
12	0	0	0	0	562	617
13	0	0	0	0	562	616
14	0	0	0	0	561	616
15	0	0	0	0	560	617
0	0	0	0	0	559	616
1	0	0	0	0	558	617
2	0	0	0	0	556	616
3	0	0	0	0	556	617
4	0	0	0	0	554	617
5	0	0	0	0	553	617
6	0	0	0	0	552	616
7	0	0	0	0	551	616
8	0	0	0	0	550	616
9	0	0	0	0	550	616
10	0	0	0	0	549	616
11	0	0	0	0	548	617
12	0	0	0	0	547	617
13	0	0	0	0	548	617
14	0	0	0	0	547	616
15	0	0	0	0	547	616
0	0	0	0	0	547	616
1	0	0	0	0	547	616
2	0	0	0	0	546	616
3	0	0	0	0	546	616
4	0	0	0	0	546	617
5	0	0	0	0	545	616
6	0	0	0	0	544	616
7	0	0	0	0	543	616
8	0	0	0	0	543	616
9	0	0	0	0	543	616
10	0	0	0	0	543	616
11	0	0	0	0	543	617
12	0	0	0	0	543	617
13	0	0	0	0	543	617
14	0	0	0	0	544	616
15	0	0	0	0	544	616
0	0	0	0	0	544	616
1	0	0	0	0	544	617
2	0	0	0	0	543	616
3	0	0	0	0	543	616
4	0	0	0	0	542	617
5	0	0	0	0	542	615
6	0	0	0	0	542	616
7	0	0	0	0	541	615
8	0	0	0	0	541	616
9	0	0	0	0	540	615
10	0	0	0	0	539	615
11	0	0	0	0	539	617
12	0	0	0	0	538	616
13	0	0	0	0	538	616
14	0	0	0	0	538	616
15	0	0	0	0	539	616
0	0	0	0	0	540	616
1	0	0	0	0	540	615
2	0	0	0	0	540	615
3	0	0	0	0	540	615
4	0	0	0	0	539	615
5	0	0	0	0	539	615
6	0	0	0	0	538	615
7	0	0	0	0	537	615
8	0	0	0	0	536	615
9	0	0	0	0	535	615
10	0	0	0	0	535	615
11	0	0	0	0	533	615
12	0	0	0	0	532	616
13	0	0	0	0	531	616
14	0	0	0	0	530	615
15	0	0	0	0	529	615
0	0	0	0	0	527	615
1	0	0	0	0	526	615
2	0	0	0	0	524	615
3	0	0	0	0	523	615
4	0	0	0	0	522	615
5	0	0	0	0	521	615
6	0	0	0	0	521	615
7	0	0	0	0	522	615
8	0	0	0	0	523	615
9	0	0	0	0	524	615
10	0	0	0	0	524	615
11	0	0	0	0	524	615
12	0	0	0	0	524	615
13	0	0	0	0	524	615
14	0	0	0	0	524	615
15	0	0	0	0	524	615
0	0	0	0	0	524	615
1	0	0	0	0	523	615
2	0	0	0	0	523	615
3	0	0	0	0	523	615
4	0	0	0	0	522	615
5	0	0	0	0	523	615
6	0	0	0	0	523	615
7	0	0	0	0	523	615
8	0	0	0	0	524	615
9	0	0	0	0	525	615
10	0	0	0	0	528	615
11	0	0	0	0	530	615
12	0	0	0	0	533	616
13	0	0	0	0	534	615
14	0	0	0	0	536	615
15	0	0	0	0	537	615
0	0	0	0	0	538	615
1	0	0	0	0	539	615
2	0	0	0	0	540	615
3	0	0	0	0	540	615
4	0	0	0	0	540	616
5	0	0	0	0	541	616
6	0	0	0	0	540	616
7	0	0	0	0	540	616
8	0	0	0	0	539	616
9	0	0	0	0	539	616
10	0	0	0	0	537	617
11	0	0	0	0	537	617
12	0	0	0	0	537	617
13	0	0	0	0	538	616
14	0	0	0	0	538	617
15	0	0	0	0	539	616
0	0	0	0	0	538	616
1	0	0	0	0	538	616
2	0	0	0	0	539	616
3	0	0	0	0	538	617
4	0	0	0	0	538	617
5	0	0	0	0	537	617
6	0	0	0	0	536	617
7	0	0	0	0	536	617
8	0	0	0	0	535	617
9	0	0	0	0	534	617
10	0	0	0	0	533	617
11	0	0	0	0	533	618
12	0	0	0	0	532	618
13	0	0	0	0	533	617
14	0	0	0	0	532	617
15	0	0	0	0	532	617
0	0	0	0	0	532	617
1	0	0	0	0	533	617
2	0	0	0	0	535	617
3	0	0	0	0	536	617
4	0	0	0	0	537	618
5	0	0	0	0	538	617
6	0	0	0	0	538	617
7	0	0	0	0	537	617
8	0	0	0	0	537	617
9	0	0	0	0	537	616
10	0	0	0	0	537	617
11	0	0	0	0	538	617
12	0	0	0	0	536	617
13	0	0	0	0	536	617
14	0	0	0	0	536	617
15	0	0	0	0	535	617
0	0	0	0	0	535	616
1	0	0	0	0	535	616
2	0	0	0	0	534	616
3	0	0	0	0	534	615
4	0	0	0	0	534	616
5	0	0	0	0	534	616
6	0	0	0	0	534	617
7	0	0	0	0	535	616
8	0	0	0	0	535	616
9	0	0	0	0	536	616
10	0	0	0	0	535	616
11	0	0	0	0	535	616
12	0	0	0	0	535	616
13	0	0	0	0	535	615
14	0	0	0	0	535	616
15	0	0	0	0	534	615
0	0	0	0	0	532	615
1	0	0	0	0	531	616
2	0	0	0	0	531	616
3	0	0	0	0	530	615
4	0	0	0	0	530	615
5	0	0	0	0	529	616
6	0	0	0	0	529	615
7	0	0	0	0	529	615
8	0	0	0	0	528	615
9	0	0	0	0	527	615
10	0	0	0	0	527	615
11	0	0	0	0	528	615
12	0	0	0	0	529	616
13	0	0	0	0	529	615
14	0	0	0	0	529	615
15	0	0	0	0	529	615
0	0	0	0	0	529	615
1	0	0	0	0	528	615
2	0	0	0	0	527	615
3	0	0	0	0	526	614
4	0	0	0	0	524	615
5	0	0	0	0	521	615
6	0	0	0	0	518	615
7	0	0	0	0	513	615
8	0	0	0	0	508	615
9	0	0	0	0	501	615
10	0	0	0	0	494	615
11	0	0	0	0	487	615
12	0	0	0	0	481	615
13	0	0	0	0	476	615
14	0	0	0	0	472	615
15	0	0	0	0	470	615
0	0	0	0	0	469	615
1	0	0	0	0	468	615
2	0	0	0	0	469	615
3	0	0	0	0	468	615
4	0	0	0	0	464	615
5	0	0	0	0	460	615
6	0	0	0	0	457	615
7	0	0	0	0	455	616
8	0	0	0	0	454	617
9	0	0	0	0	458	616
10	0	0	0	0	467	616
11	0	0	0	0	479	616
12	0	0	0	0	497	616
13	0	0	0	0	520	616
14	0	0	0	0	547	617
15	0	0	0	0	581	617
0	0	0	0	0	621	616
1	0	0	0	0	664	616
2	0	0	0	0	706	616
3	0	0	0	0	756	616
4	0	0	0	0	812	616
5	0	0	0	0	873	616
6	0	0	0	0	932	616
7	0	0	0	0	988	616
8	0	0	0	0	1022	615
9	0	0	0	0	1022	616
10	0	0	0	0	1022	616
11	0	0	0	0	1022	616
12	0	0	0	0	1022	616
13	0	0	0	0	1022	616
14	0	0	0	0	1022	616
15	0	0	0	0	1022	616
0	0	0	0	0	1022	616
1	0	0	0	0	1022	617
2	0	0	0	0	1022	616
3	0	0	0	0	1022	616
4	0	0	0	0	1022	616
5	0	0	0	0	1022	616
6	0	0	0	0	1022	616
7	0	0	0	0	1022	616
8	0	0	0	0	1022	616
9	0	0	0	0	990	616
10	0	0	0	0	936	616
11	0	0	0	0	877	616
12	0	0	0	0	818	617
13	0	0	0	0	761	616
14	0	0	0	0	708	616
15	0	0	0	0	661	616
0	0	0	0	0	621	616
1	0	0	0	0	589	616
2	0	0	0	0	562	616
3	0	0	0	0	539	616
4	0	0	0	0	518	616
5	0	0	0	0	502	615
6	0	0	0	0	487	616
7	0	0	0	0	473	616
8	0	0	0	0	459	616
9	0	0	0	0	447	615
10	0	0	0	0	436	616
11	0	0	0	0	427	615
12	0	0	0	0	419	615
13	0	0	0	0	411	616
14	0	0	0	0	404	616
15	0	0	0	0	397	616
0	0	0	0	0	391	616
1	0	0	0	0	386	616
2	0	0	0	0	381	616
3	0	0	0	0	377	616
4	0	0	0	0	372	616
5	0	0	0	0	367	615
6	0	0	0	0	364	615
7	0	0	0	0	361	615
8	0	0	0	0	358	615
9	0	0	0	0	355	615
10	0	0	0	0	352	615
11	0	0	0	0	350	615
12	0	0	0	0	349	615
13	0	0	0	0	347	615
14	0	0	0	0	347	615
15	0	0	0	0	347	615
0	0	0	0	0	348	615
1	0	0	0	0	348	615
2	0	0	0	0	348	615
3	0	0	0	0	348	615
4	0	0	0	0	349	616
5	0	0	0	0	350	615
6	0	0	0	0	351	615
7	0	0	0	0	352	615
8	0	0	0	0	353	615
9	0	0	0	0	353	615
10	0	0	0	0	353	615
11	0	0	0	0	352	615
12	0	0	0	0	352	616
13	0	0	0	0	353	616
14	0	0	0	0	353	616
15	0	0	0	0	354	615
0	0	0	0	0	355	615
1	0	0	0	0	355	615
2	0	0	0	0	357	615
3	0	0	0	0	358	615
4	0	0	0	0	360	615
5	0	0	0	0	362	615
6	0	0	0	0	364	615
7	0	0	0	0	366	615
8	0	0	0	0	367	615
9	0	0	0	0	368	615
10	0	0	0	0	368	615
11	0	0	0	0	368	615
12	0	0	0	0	369	616
13	0	0	0	0	369	615
14	0	0	0	0	369	615
15	0	0	0	0	369	615
0	0	0	0	0	369	615
1	0	0	0	0	369	615
2	0	0	0	0	370	615
3	0	0	0	0	371	615
4	0	0	0	0	372	615
5	0	0	0	0	373	615
6	0	0	0	0	374	615
7	0	0	0	0	375	615
8	0	0	0	0	377	615
9	0	0	0	0	379	615
10	0	0	0	0	380	616
11	0	0	0	0	382	616
12	0	0	0	0	384	616
13	0	0	0	0	385	615
14	0	0	0	0	386	615
15	0	0	0	0	387	615
0	0	0	0	0	388	616
1	0	0	0	0	390	616
2	0	0	0	0	390	616
3	0	0	0	0	391	616
4	0	0	0	0	391	616
5	0	0	0	0	391	616
6	0	0	0	0	390	616
7	0	0	0	0	390	616
8	0	0	0	0	390	616
9	0	0	0	0	390	617
10	0	0	0	0	391	617
11	0	0	0	0	391	616
12	0	0	0	0	391	617
13	0	0	0	0	393	617
14	0	0	0	0	394	617
15	0	0	0	0	393	617
0	0	0	0	0	394	616
1	0	0	0	0	394	615
2	0	0	0	0	394	615
3	0	0	0	0	394	615
4	0	0	0	0	394	616
5	0	0	0	0	393	615
6	0	0	0	0	392	616
7	0	0	0	0	391	616
8	0	0	0	0	391	615
9	0	0	0	0	390	616
10	0	0	0	0	390	615
11	0	0	0	0	390	615
12	0	0	0	0	391	616
13	0	0	0	0	391	616
14	0	0	0	0	392	616
15	0	0	0	0	392	616
0	0	0	0	0	393	615
1	0	0	0	0	394	615
2	0	0	0	0	394	616
3	0	0	0	0	394	616
4	0	0	0	0	395	616
5	0	0	0	0	395	616
6	0	0	0	0	396	616
7	0	0	0	0	395	615
8	0	0	0	0	395	616
9	0	0	0	0	394	616
10	0	0	0	0	393	615
11	0	0	0	0	391	615
12	0	0	0	0	390	615
13	0	0	0	0	389	616
14	0	0	0	0	389	615
15	0	0	0	0	388	615
0	0	0	0	0	387	616
1	0	0	0	0	386	616
2	0	0	0	0	385	616
3	0	0	0	0	384	615
4	0	0	0	0	384	616
5	0	0	0	0	384	616
6	0	0	0	0	383	615
7	0	0	0	0	383	615
8	0	0	0	0	382	615
9	0	0	0	0	380	615
10	0	0	0	0	379	615
11	0	0	0	0	377	615
12	0	0	0	0	375	616
13	0	0	0	0	373	615
14	0	0	0	0	372	616
15	0	0	0	0	371	616
0	0	0	0	0	369	616
1	0	0	0	0	368	616
2	0	0	0	0	366	616
3	0	0	0	0	365	616
4	0	0	0	0	364	616
5	0	0	0	0	363	616
6	0	0	0	0	364	616
7	0	0	0	0	364	616
8	0	0	0	0	364	616
9	0	0	0	0	365	616
10	0	0	0	0	365	616
11	0	0	0	0	366	616
12	0	0	0	0	367	616
13	0	0	0	0	367	616
14	0	0	0	0	367	616
15	0	0	0	0	367	616
0	0	0	0	0	367	617
1	0	0	0	0	367	616
2	0	0	0	0	367	617
3	0	0	0	0	368	617
4	0	0	0	0	369	617
5	0	0	0	0	371	616
6	0	0	0	0	372	616
7	0	0	0	0	374	617
8	0	0	0	0	376	617
9	0	0	0	0	378	616
10	0	0	0	0	381	617
11	0	0	0	0	383	616
12	0	0	0	0	386	616
13	0	0	0	0	389	617
14	0	0	0	0	391	617
15	0	0	0	0	394	617
0	0	0	0	0	397	617
1	0	0	0	0	399	617
2	0	0	0	0	402	617
3	0	0	0	0	404	617
4	0	0	0	0	407	617
5	0	0	0	0	409	617
6	0	0	0	0	412	617
7	0	0	0	0	414	617
8	0	0	0	0	417	617
9	0	0	0	0	421	618
10	0	0	0	0	423	617
11	0	0	0	0	427	617
12	0	0	0	0	430	618
13	0	0	0	0	433	617
14	0	0	0	0	437	616
15	0	0	0	0	441	617
0	0	0	0	0	445	617
1	0	0	0	0	449	616
2	0	0	0	0	453	616
3	0	0	0	0	457	616
4	0	0	0	0	460	617
5	0	0	0	0	464	616
6	0	0	0	0	468	616
7	0	0	0	0	471	617
8	0	0	0	0	474	616
9	0	0	0	0	478	616
10	0	0	0	0	480	615
11	0	0	0	0	483	616
12	0	0	0	0	487	616
13	0	0	0	0	491	616
14	0	0	0	0	494	616
15	0	0	0	0	497	615
0	0	0	0	0	500	615
1	0	0	0	0	504	615
2	0	0	0	0	509	615
3	0	0	0	0	512	615
4	0	0	0	0	516	615
5	0	0	0	0	520	615
6	0	0	0	0	524	615
7	0	0	0	0	527	615
8	0	0	0	0	529	615
9	0	0	0	0	532	615
10	0	0	0	0	534	615
11	0	0	0	0	536	614
12	0	0	0	0	538	615
13	0	0	0	0	540	615
14	0	0	0	0	541	615
15	0	0	0	0	543	615
0	0	0	0	0	544	615
1	0	0	0	0	547	614
2	0	0	0	0	549	614
3	0	0	0	0	552	614
4	0	0	0	0	554	614
5	0	0	0	0	556	614
6	0	0	0	0	559	614
7	0	0	0	0	562	615
8	0	0	0	0	565	614
9	0	0	0	0	568	615
10	0	0	0	0	569	615
11	0	0	0	0	571	615
12	0	0	0	0	571	615
13	0	0	0	0	573	615
14	0	0	0	0	574	615
15	0	0	0	0	574	614
0	0	0	0	0	575	615
1	0	0	0	0	575	615
2	0	0	0	0	574	615
3	0	0	0	0	575	615
4	0	0	0	0	575	615
5	0	0	0	0	576	615
6	0	0	0	0	577	615
7	0	0	0	0	577	615
8	0	0	0	0	578	615
9	0	0	0	0	578	615
10	0	0	0	0	579	615
11	0	0	0	0	579	615
12	0	0	0	0	580	615
13	0	0	0	0	580	615
14	0	0	0	0	581	615
15	0	0	0	0	582	615
0	0	0	0	0	581	615
1	0	0	0	0	581	615
2	0	0	0	0	579	615
3	0	0	0	0	579	615
4	0	0	0	0	578	616
5	0	0	0	0	577	615
6	0	0	0	0	576	615
7	0	0	0	0	575	615
8	0	0	0	0	575	615
9	0	0	0	0	575	616
10	0	0	0	0	575	616
11	0	0	0	0	574	615
12	0	0	0	0	574	616
13	0	0	0	0	574	616
14	0	0	0	0	574	616
15	0	0	0	0	574	616
0	0	0	0	0	574	616
1	0	0	0	0	574	616
2	0	0	0	0	574	616
3	0	0	0	0	573	616
4	0	0	0	0	572	617
5	0	0	0	0	572	616
6	0	0	0	0	571	616
7	0	0	0	0	570	616
8	0	0	0	0	569	615
9	0	0	0	0	568	616
10	0	0	0	0	567	616
11	0	0	0	0	566	616
12	0	0	0	0	566	617
13	0	0	0	0	566	617
14	0	0	0	0	565	616
15	0	0	0	0	563	617
0	0	0	0	0	562	616
1	0	0	0	0	561	617
2	0	0	0	0	560	617
3	0	0	0	0	560	617
4	0	0	0	0	560	618
5	0	0	0	0	560	617
6	0	0	0	0	560	617
7	0	0	0	0	561	617
8	0	0	0	0	560	617
9	0	0	0	0	559	617
10	0	0	0	0	559	617
11	0	0	0	0	558	617
12	0	0	0	0	557	618
13	0	0	0	0	556	618
14	0	0	0	0	555	617
15	0	0	0	0	553	617
0	0	0	0	0	552	617
1	0	0	0	0	551	617
2	0	0	0	0	551	617
3	0	0	0	0	551	617
4	0	0	0	0	550	617
5	0	0	0	0	549	617
6	0	0	0	0	548	617
7	0	0	0	0	548	616
8	0	0	0	0	548	617
9	0	0	0	0	549	617
10	0	0	0	0	549	616
11	0	0	0	0	550	617
12	0	0	0	0	549	617
13	0	0	0	0	549	617
14	0	0	0	0	549	616
15	0	0	0	0	548	616
0	0	0	0	0	547	617
1	0	0	0	0	547	616
2	0	0	0	0	546	617
3	0	0	0	0	545	616
4	0	0	0	0	545	616
5	0	0	0	0	544	616
6	0	0	0	0	544	616
7	0	0	0	0	544	616
8	0	0	0	0	543	615
9	0	0	0	0	542	615
10	0	0	0	0	543	615
11	0	0	0	0	543	615
12	0	0	0	0	544	615
13	0	0	0	0	544	615
14	0	0	0	0	544	615
15	0	0	0	0	544	615
0	0	0	0	0	543	615
1	0	0	0	0	543	615
2	0	0	0	0	542	615
3	0	0	0	0	541	615
4	0	0	0	0	540	615
5	0	0	0	0	540	615
6	0	0	0	0	539	615
7	0	0	0	0	537	614
8	0	0	0	0	535	614
9	0	0	0	0	534	615
10	0	0	0	0	533	615
11	0	0	0	0	533	615
12	0	0	0	0	532	615
13	0	0	0	0	532	615
14	0	0	0	0	533	615
15	0	0	0	0	533	615
0	0	0	0	0	532	614
1	0	0	0	0	533	615
2	0	0	0	0	532	614
3	0	0	0	0	532	615
4	0	0	0	0	531	614
5	0	0	0	0	530	614
6	0	0	0	0	529	614
7	0	0	0	0	528	614
8	0	0	0	0	528	614
9	0	0	0	0	527	615
10	0	0	0	0	527	614
11	0	0	0	0	526	615
12	0	0	0	0	525	615
13	0	0	0	0	524	615
14	0	0	0	0	524	615
15	0	0	0	0	524	615
0	0	0	0	0	524	615
1	0	0	0	0	524	615
2	0	0	0	0	525	615
3	0	0	0	0	526	615
4	0	0	0	0	527	616
5	0	0	0	0	529	615
6	0	0	0	0	531	615
7	0	0	0	0	533	615
8	0	0	0	0	534	615
9	0	0	0	0	534	615
10	0	0	0	0	534	615
11	0	0	0	0	534	615
12	0	0	0	0	535	616
13	0	0	0	0	535	616
14	0	0	0	0	534	615
15	0	0	0	0	535	615
0	0	0	0	0	536	615
1	0	0	0	0	535	616
2	0	0	0	0	536	616
3	0	0	0	0	537	616
4	0	0	0	0	539	616
5	0	0	0	0	540	617
6	0	0	0	0	543	617
7	0	0	0	0	544	617
8	0	0	0	0	547	618
9	0	0	0	0	548	617
10	0	0	0	0	549	617
11	0	0	0	0	550	617
12	0	0	0	0	548	617
13	0	0	0	0	548	617
14	0	0	0	0	547	617
15	0	0	0	0	547	617
0	0	0	0	0	545	617
1	0	0	0	0	543	617
2	0	0	0	0	542	617
3	0	0	0	0	540	617
4	0	0	0	0	538	618
5	0	0	0	0	536	617
6	0	0	0	0	535	617
7	0	0	0	0	534	617
8	0	0	0	0	533	617
9	0	0	0	0	533	617
10	0	0	0	0	533	617
11	0	0	0	0	534	617
12	0	0	0	0	536	617
13	0	0	0	0	537	617
14	0	0	0	0	537	617
15	0	0	0	0	538	617
0	0	0	0	0	539	617
1	0	0	0	0	540	617
2	0	0	0	0	540	616
3	0	0	0	0	540	616
4	0	0	0	0	541	617
5	0	0	0	0	540	616
6	0	0	0	0	539	616
7	0	0	0	0	539	617
8	0	0	0	0	539	617
9	0	0	0	0	537	617
10	0	0	0	0	537	617
11	0	0	0	0	536	616
12	0	0	0	0	536	616
13	0	0	0	0	536	616
14	0	0	0	0	537	616
15	0	0	0	0	538	616
0	0	0	0	0	539	616
1	0	0	0	0	540	615
2	0	0	0	0	540	616
3	0	0	0	0	540	616
4	0	0	0	0	540	617
5	0	0	0	0	539	616
6	0	0	0	0	540	616
7	0	0	0	0	539	616
8	0	0	0	0	539	616
9	0	0	0	0	538	615
10	0	0	0	0	537	615
11	0	0	0	0	538	615
12	0	0	0	0	538	615
13	0	0	0	0	537	615
14	0	0	0	0	537	615
15	0	0	0	0	536	615
0	0	0	0	0	536	615
1	0	0	0	0	535	615
2	0	0	0	0	535	615
3	0	0	0	0	535	615
4	0	0	0	0	536	615
5	0	0	0	0	537	615
6	0	0	0	0	537	615
7	0	0	0	0	537	615
8	0	0	0	0	537	615
9	0	0	0	0	538	615
10	0	0	0	0	539	615
11	0	0	0	0	538	615
12	0	0	0	0	537	615
13	0	0	0	0	536	615
14	0	0	0	0	535	615
15	0	0	0	0	533	615
0	0	0	0	0	532	614
1	0	0	0	0	532	615
2	0	0	0	0	531	615
3	0	0	0	0	531	615
4	0	0	0	0	530	615
5	0	0	0	0	529	615
6	0	0	0	0	527	615
7	0	0	0	0	525	615
8	0	0	0	0	521	615
9	0	0	0	0	516	615
10	0	0	0	0	511	615
11	0	0	0	0	504	616
12	0	0	0	0	497	615
13	0	0	0	0	491	615
14	0	0	0	0	484	615
15	0	0	0	0	478	615
0	0	0	0	0	473	616
1	0	0	0	0	470	615
2	0	0	0	0	470	615
3	0	0	0	0	469	615
4	0	0	0	0	469	615
5	0	0	0	0	465	615
6	0	0	0	0	460	616
7	0	0	0	0	456	616
8	0	0	0	0	455	616
9	0	0	0	0	455	616
10	0	0	0	0	460	616
11	0	0	0	0	470	615
12	0	0	0	0	483	616
13	0	0	0	0	502	616
14	0	0	0	0	525	615
15	0	0	0	0	553	615
0	0	0	0	0	588	615
1	0	0	0	0	629	615
2	0	0	0	0	671	615
3	0	0	0	0	714	615
4	0	0	0	0	763	616
5	0	0	0	0	817	616
6	0	0	0	0	877	615
7	0	0	0	0	936	616
8	0	0	0	0	991	616
9	0	0	0	0	1022	616
10	0	0	0	0	1022	616
11	0	0	0	0	1022	615
12	0	0	0	0	1022	615
13	0	0	0	0	1022	616
14	0	0	0	0	1022	615
15	0	0	0	0	1022	616
0	0	0	0	0	1022	615
1	0	0	0	0	1022	615
2	0	0	0	0	1022	615
3	0	0	0	0	1022	615
4	0	0	0	0	1022	616
5	0	0	0	0	1022	616
6	0	0	0	0	1022	616
7	0	0	0	0	1022	616
8	0	0	0	0	1022	615
9	0	0	0	0	1022	615
10	0	0	0	0	1016	615
11	0	0	0	0	958	616
12	0	0	0	0	899	616
13	0	0	0	0	839	616
14	0	0	0	0	780	616
15	0	0	0	0	725	616
0	0	0	0	0	676	616
1	0	0	0	0	632	616
2	0	0	0	0	597	617
3	0	0	0	0	569	616
4	0	0	0	0	545	617
5	0	0	0	0	525	616
6	0	0	0	0	507	616
7	0	0	0	0	490	616
8	0	0	0	0	476	615
9	0	0	0	0	461	616
10	0	0	0	0	448	616
11	0	0	0	0	437	616
12	0	0	0	0	427	617
13	0	0	0	0	416	616
14	0	0	0	0	408	615
15	0	0	0	0	399	616
0	0	0	0	0	393	616
1	0	0	0	0	387	616
2	0	0	0	0	381	616
3	0	0	0	0	376	616
4	0	0	0	0	372	616
5	0	0	0	0	368	616
6	0	0	0	0	364	616
7	0	0	0	0	361	616
8	0	0	0	0	360	616
9	0	0	0	0	358	616
10	0	0	0	0	357	616
11	0	0	0	0	355	616
12	0	0	0	0	354	616
13	0	0	0	0	352	616
14	0	0	0	0	351	616
15	0	0	0	0	350	616
0	0	0	0	0	349	616
1	0	0	0	0	349	615
2	0	0	0	0	348	616
3	0	0	0	0	348	616
4	0	0	0	0	347	616
5	0	0	0	0	347	616
6	0	0	0	0	348	615
7	0	0	0	0	348	616
8	0	0	0	0	348	615
9	0	0	0	0	349	616
10	0	0	0	0	349	615
11	0	0	0	0	350	615
12	0	0	0	0	351	616
13	0	0	0	0	352	615
14	0	0	0	0	354	615
15	0	0	0	0	355	615
0	0	0	0	0	357	615
1	0	0	0	0	358	615
2	0	0	0	0	359	615
3	0	0	0	0	359	615
4	0	0	0	0	360	615
5	0	0	0	0	360	614
6	0	0	0	0	360	615
7	0	0	0	0	361	615
8	0	0	0	0	360	615
9	0	0	0	0	361	616
10	0	0	0	0	363	615
11	0	0	0	0	364	615
12	0	0	0	0	365	615
13	0	0	0	0	367	615
14	0	0	0	0	368	615
15	0	0	0	0	369	615
0	0	0	0	0	371	615
1	0	0	0	0	372	615
2	0	0	0	0	374	615
3	0	0	0	0	374	615
4	0	0	0	0	375	615
5	0	0	0	0	375	615
6	0	0	0	0	376	615
7	0	0	0	0	376	615
8	0	0	0	0	377	615
9	0	0	0	0	377	615
10	0	0	0	0	379	614
11	0	0	0	0	380	615
12	0	0	0	0	380	615
13	0	0	0	0	380	615
14	0	0	0	0	381	615
15	0	0	0	0	382	615
0	0	0	0	0	383	615
1	0	0	0	0	383	615
2	0	0	0	0	384	615
3	0	0	0	0	385	615
4	0	0	0	0	386	615
5	0	0	0	0	386	615
6	0	0	0	0	387	615
7	0	0	0	0	387	615
8	0	0	0	0	387	615
9	0	0	0	0	387	615
10	0	0	0	0	387	615
11	0	0	0	0	387	615
12	0	0	0	0	387	616
13	0	0	0	0	388	615
14	0	0	0	0	388	615
15	0	0	0	0	387	615
0	0	0	0	0	387	615
1	0	0	0	0	388	615
2	0	0	0	0	388	615
3	0	0	0	0	389	615
4	0	0	0	0	390	615
5	0	0	0	0	391	615
6	0	0	0	0	391	615
7	0	0	0	0	392	615
8	0	0	0	0	393	615
9	0	0	0	0	393	615
10	0	0	0	0	393	615
11	0	0	0	0	393	615
12	0	0	0	0	393	616
13	0	0	0	0	393	616
14	0	0	0	0	392	616
15	0	0	0	0	391	615
0	0	0	0	0	391	616
1	0	0	0	0	391	616
2	0	0	0	0	390	616
3	0	0	0	0	389	616
4	0	0	0	0	388	617
5	0	0	0	0	389	616
6	0	0	0	0	388	616
7	0	0	0	0	388	616
8	0	0	0	0	388	617
9	0	0	0	0	388	616
10	0	0	0	0	388	617
11	0	0	0	0	388	616
12	0	0	0	0	389	616
13	0	0	0	0	388	616
14	0	0	0	0	388	616
15	0	0	0	0	387	616
0	0	0	0	0	387	616
1	0	0	0	0	385	617
2	0	0	0	0	384	616
3	0	0	0	0	384	616
4	0	0	0	0	382	617
5	0	0	0	0	380	617
6	0	0	0	0	379	616
7	0	0	0	0	377	617
8	0	0	0	0	375	616
9	0	0	0	0	374	617
10	0	0	0	0	372	617
11	0	0	0	0	372	617
12	0	0	0	0	371	617
13	0	0	0	0	370	617
14	0	0	0	0	369	617
15	0	0	0	0	369	617
0	0	0	0	0	368	617
1	0	0	0	0	368	617
2	0	0	0	0	368	616
3	0	0	0	0	367	616
4	0	0	0	0	366	618
5	0	0	0	0	365	617
6	0	0	0	0	364	617
7	0	0	0	0	364	617
8	0	0	0	0	363	618
9	0	0	0	0	361	617
10	0	0	0	0	361	617
11	0	0	0	0	361	617
12	0	0	0	0	360	616
13	0	0	0	0	361	616
14	0	0	0	0	361	617
15	0	0	0	0	361	617
0	0	0	0	0	363	616
1	0	0	0	0	364	617
2	0	0	0	0	366	617
3	0	0	0	0	368	616
4	0	0	0	0	370	617
5	0	0	0	0	372	617
6	0	0	0	0	374	617
7	0	0	0	0	376	617
8	0	0	0	0	377	617
9	0	0	0	0	378	617
10	0	0	0	0	380	617
11	0	0	0	0	381	617
12	0	0	0	0	383	617
13	0	0	0	0	385	617
14	0	0	0	0	386	617
15	0	0	0	0	387	617
0	0	0	0	0	389	616
1	0	0	0	0	391	617
2	0	0	0	0	393	616
3	0	0	0	0	397	617
4	0	0	0	0	401	616
5	0	0	0	0	404	616
6	0	0	0	0	409	616
7	0	0	0	0	413	616
8	0	0	0	0	418	616
9	0	0	0	0	422	616
10	0	0	0	0	426	616
11	0	0	0	0	431	615
12	0	0	0	0	434	616
13	0	0	0	0	437	616
14	0	0	0	0	440	615
15	0	0	0	0	443	615
0	0	0	0	0	446	615
1	0	0	0	0	448	615
2	0	0	0	0	450	615
3	0	0	0	0	452	615
4	0	0	0	0	455	616
5	0	0	0	0	458	615
6	0	0	0	0	462	615
7	0	0	0	0	465	615
8	0	0	0	0	469	615
9	0	0	0	0	473	615
10	0	0	0	0	478	616
11	0	0	0	0	483	615
12	0	0	0	0	487	615
13	0	0	0	0	492	616
14	0	0	0	0	496	615
15	0	0	0	0	501	615
0	0	0	0	0	504	615
1	0	0	0	0	508	615
2	0	0	0	0	512	615
3	0	0	0	0	514	615
4	0	0	0	0	517	615
5	0	0	0	0	519	615
6	0	0	0	0	523	615
7	0	0	0	0	525	615
8	0	0	0	0	527	615
9	0	0	0	0	530	615
10	0	0	0	0	532	614
11	0	0	0	0	535	615
12	0	0	0	0	537	615
13	0	0	0	0	540	615
14	0	0	0	0	544	615
15	0	0	0	0	547	615
0	0	0	0	0	551	615
1	0	0	0	0	553	615
2	0	0	0	0	555	614
3	0	0	0	0	558	615
4	0	0	0	0	559	614
5	0	0	0	0	561	615
6	0	0	0	0	563	614
7	0	0	0	0	563	614
8	0	0	0	0	564	614
9	0	0	0	0	566	615
10	0	0	0	0	568	614
11	0	0	0	0	569	614
12	0	0	0	0	569	614
13	0	0	0	0	571	614
14	0	0	0	0	572	614
15	0	0	0	0	573	615
0	0	0	0	0	575	615
1	0	0	0	0	576	615
2	0	0	0	0	578	615
3	0	0	0	0	580	615
4	0	0	0	0	582	615
5	0	0	0	0	583	615
6	0	0	0	0	583	615
7	0	0	0	0	584	615
8	0	0	0	0	585	615
9	0	0	0	0	585	616
10	0	0	0	0	584	616
11	0	0	0	0	585	615
12	0	0	0	0	584	616
13	0	0	0	0	583	616
14	0	0	0	0	583	616
15	0	0	0	0	583	616
0	0	0	0	0	582	615
1	0	0	0	0	583	616
2	0	0	0	0	583	615
3	0	0	0	0	583	615
4	0	0	0	0	584	616
5	0	0	0	0	584	615
6	0	0	0	0	585	616
7	0	0	0	0	586	616
8	0	0	0	0	586	616
9	0	0	0	0	585	615
10	0	0	0	0	585	616
11	0	0	0	0	585	616
12	0	0	0	0	584	617
13	0	0	0	0	584	616
14	0	0	0	0	583	616
15	0	0	0	0	581	616
0	0	0	0	0	580	616
1	0	0	0	0	579	616
2	0	0	0	0	577	616
3	0	0	0	0	575	616
4	0	0	0	0	575	617
5	0	0	0	0	573	617
6	0	0	0	0	572	617
7	0	0	0	0	571	617
8	0	0	0	0	571	617
9	0	0	0	0	571	617
10	0	0	0	0	571	617
11	0	0	0	0	571	617
12	0	0	0	0	571	617
13	0	0	0	0	572	617
14	0	0	0	0	572	617
15	0	0	0	0	571	617
0	0	0	0	0	571	617
1	0	0	0	0	570	617
2	0	0	0	0	570	617
3	0	0	0	0	570	617
4	0	0	0	0	569	618
5	0	0	0	0	568	618
6	0	0	0	0	566	617
7	0	0	0	0	564	616
8	0	0	0	0	563	617
9	0	0	0	0	563	617
10	0	0	0	0	562	616
11	0	0	0	0	561	617
12	0	0	0	0	560	617
13	0	0	0	0	560	617
14	0	0	0	0	559	617
15	0	0	0	0	559	617
0	0	0	0	0	559	617
1	0	0	0	0	559	616
2	0	0	0	0	559	616
3	0	0	0	0	560	617
4	0	0	0	0	559	617
5	0	0	0	0	558	617
6	0	0	0	0	557	616
7	0	0	0	0	555	616
8	0	0	0	0	555	616
9	0	0	0	0	553	616
10	0	0	0	0	551	616
11	0	0	0	0	550	616
12	0	0	0	0	549	616
13	0	0	0	0	549	616
14	0	0	0	0	548	616
15	0	0	0	0	547	616
0	0	0	0	0	546	615
1	0	0	0	0	545	615
2	0	0	0	0	546	616
3	0	0	0	0	546	615
4	0	0	0	0	547	616
5	0	0	0	0	547	615
6	0	0	0	0	548	615
7	0	0	0	0	549	616
8	0	0	0	0	549	615
9	0	0	0	0	549	615
10	0	0	0	0	550	615
11	0	0	0	0	550	615
12	0	0	0	0	549	615
13	0	0	0	0	548	615
14	0	0	0	0	548	615
15	0	0	0	0	547	615
0	0	0	0	0	546	615
1	0	0	0	0	545	615
2	0	0	0	0	544	615
3	0	0	0	0	543	615
4	0	0	0	0	543	615
5	0	0	0	0	544	614
6	0	0	0	0	544	615
7	0	0	0	0	544	615
8	0	0	0	0	544	615
9	0	0	0	0	544	615
10	0	0	0	0	543	615
11	0	0	0	0	543	615
12	0	0	0	0	542	615
13	0	0	0	0	541	615
14	0	0	0	0	540	614
15	0	0	0	0	538	614
0	0	0	0	0	537	615
1	0	0	0	0	535	615
2	0	0	0	0	534	615
3	0	0	0	0	534	615
4	0	0	0	0	532	615
5	0	0	0	0	531	615
6	0	0	0	0	531	615
7	0	0	0	0	530	615
8	0	0	0	0	529	615
9	0	0	0	0	528	615
10	0	0	0	0	528	615
11	0	0	0	0	528	615
12	0	0	0	0	529	615
13	0	0	0	0	530	615
14	0	0	0	0	530	615
15	0	0	0	0	531	615
0	0	0	0	0	530	615
1	0	0	0	0	529	615
2	0	0	0	0	530	615
3	0	0	0	0	529	615
4	0	0	0	0	528	615
5	0	0	0	0	528	615
6	0	0	0	0	528	616
7	0	0	0	0	527	615
8	0	0	0	0	527	615
9	0	0	0	0	528	615
10	0	0	0	0	528	615
11	0	0	0	0	529	615
12	0	0	0	0	530	616
13	0	0	0	0	531	615
14	0	0	0	0	532	615
15	0	0	0	0	533	616
0	0	0	0	0	535	616
1	0	0	0	0	536	615
2	0	0	0	0	538	615
3	0	0	0	0	540	616
4	0	0	0	0	540	616
5	0	0	0	0	541	616
6	0	0	0	0	541	616
7	0	0	0	0	542	616
8	0	0	0	0	543	616
9	0	0	0	0	543	616
10	0	0	0	0	543	617
11	0	0	0	0	544	616
12	0	0	0	0	543	616
13	0	0	0	0	543	616
14	0	0	0	0	544	616
15	0	0	0	0	543	616
0	0	0	0	0	543	617
1	0	0	0	0	543	616
2	0	0	0	0	544	617
3	0	0	0	0	544	616
4	0	0	0	0	545	617
5	0	0	0	0	545	617
6	0	0	0	0	545	616
7	0	0	0	0	546	617
8	0	0	0	0	545	617
9	0	0	0	0	544	616
10	0	0	0	0	543	617
11	0	0	0	0	542	617
12	0	0	0	0	540	618
13	0	0	0	0	539	617
14	0	0	0	0	538	617
15	0	0	0	0	537	617
0	0	0	0	0	537	616
1	0	0	0	0	536	617
2	0	0	0	0	536	617
3	0	0	0	0	536	617
4	0	0	0	0	536	618
5	0	0	0	0	536	617
6	0	0	0	0	536	617
7	0	0	0	0	536	617
8	0	0	0	0	537	617
9	0	0	0	0	539	617
10	0	0	0	0	540	617
11	0	0	0	0	541	617
12	0	0	0	0	542	617
13	0	0	0	0	542	617
14	0	0	0	0	542	617
15	0	0	0	0	541	617
0	0	0	0	0	540	617
1	0	0	0	0	540	616
2	0	0	0	0	539	617
3	0	0	0	0	538	616
4	0	0	0	0	537	617
5	0	0	0	0	537	616
6	0	0	0	0	536	616
7	0	0	0	0	536	616
8	0	0	0	0	536	616
9	0	0	0	0	536	616
10	0	0	0	0	537	616
11	0	0	0	0	537	616
12	0	0	0	0	537	616
13	0	0	0	0	537	616
14	0	0	0	0	537	616
15	0	0	0	0	537	616
0	0	0	0	0	537	616
1	0	0	0	0	537	616
2	0	0	0	0	537	616
3	0	0	0	0	537	615
4	0	0	0	0	536	616
5	0	0	0	0	536	615
6	0	0	0	0	536	615
7	0	0	0	0	535	615
8	0	0	0	0	535	615
9	0	0	0	0	535	615
10	0	0	0	0	534	615
11	0	0	0	0	532	615
12	0	0	0	0	532	615
13	0	0	0	0	532	614
14	0	0	0	0	532	615
15	0	0	0	0	532	615
0	0	0	0	0	532	615
1	0	0	0	0	533	615
2	0	0	0	0	533	615
3	0	0	0	0	533	615
4	0	0	0	0	533	615
5	0	0	0	0	532	615
6	0	0	0	0	531	615
7	0	0	0	0	530	615
8	0	0	0	0	528	615
9	0	0	0	0	526	615
10	0	0	0	0	523	615
11	0	0	0	0	518	615
12	0	0	0	0	512	615
13	0	0	0	0	507	615
14	0	0	0	0	499	615
15	0	0	0	0	492	615
0	0	0	0	0	484	615
1	0	0	0	0	477	615
2	0	0	0	0	471	615
3	0	0	0	0	466	615
4	0	0	0	0	463	612
5	0	0	0	0	462	615
6	0	0	0	0	462	615
7	0	0	0	0	461	615
8	0	0	0	0	459	618
9	0	0	0	0	455	615
10	0	0	0	0	451	615
11	0	0	0	0	449	615
12	0	0	0	0	449	613
13	0	0	0	0	450	615
14	0	0	0	0	455	615
15	0	0	0	0	464	615
0	0	0	0	0	478	618
1	0	0	0	0	496	616
2	0	0	0	0	520	616
3	0	0	0	0	549	616
4	0	0	0	0	583	613
5	0	0	0	0	625	616
6	0	0	0	0	669	616
7	0	0	0	0	715	616
8	0	0	0	0	764	618
9	0	0	0	0	820	616
10	0	0	0	0	880	615
11	0	0	0	0	943	616
12	0	0	0	0	1000	613
13	0	0	0	0	1022	615
14	0	0	0	0	1022	616
15	0	0	0	0	1022	615
0	0	0	0	0	1022	619
1	0	0	0	0	1022	616
2	0	0	0	0	1022	616
3	0	0	0	0	1022	616
4	0	0	0	0	1022	614
5	0	0	0	0	1022	617
6	0	0	0	0	1022	616
7	0	0	0	0	1022	616
8	0	0	0	0	1022	618
9	0	0	0	0	1022	615
10	0	0	0	0	1022	615
11	0	0	0	0	1022	615
12	0	0	0	0	1022	614
13	0	0	0	0	1022	616
14	0	0	0	0	1011	616
15	0	0	0	0	955	616
0	0	0	0	0	896	618
1	0	0	0	0	835	616
2	0	0	0	0	777	616
3	0	0	0	0	723	616
4	0	0	0	0	673	614
5	0	0	0	0	631	616
6	0	0	0	0	596	616
7	0	0	0	0	567	616
8	0	0	0	0	543	618
9	0	0	0	0	521	617
10	0	0	0	0	502	616
11	0	0	0	0	485	616
12	0	0	0	0	470	614
13	0	0	0	0	456	616
14	0	0	0	0	444	616
15	0	0	0	0	434	616
0	0	0	0	0	425	619
1	0	0	0	0	417	616
2	0	0	0	0	409	615
3	0	0	0	0	402	616
4	0	0	0	0	396	613
5	0	0	0	0	390	616
6	0	0	0	0	384	615
7	0	0	0	0	379	615
8	0	0	0	0	374	619
9	0	0	0	0	370	616
10	0	0	0	0	365	616
11	0	0	0	0	361	616
12	0	0	0	0	358	613
13	0	0	0	0	355	616
14	0	0	0	0	352	616
15	0	0	0	0	351	615
0	0	0	0	0	350	618
1	0	0	0	0	348	616
2	0	0	0	0	348	616
3	0	0	0	0	347	616
4	0	0	0	0	346	613
5	0	0	0	0	346	615
6	0	0	0	0	346	615
7	0	0	0	0	347	615
8	0	0	0	0	348	618
9	0	0	0	0	348	616
10	0	0	0	0	348	616
11	0	0	0	0	348	615
12	0	0	0	0	348	613
13	0	0	0	0	348	615
14	0	0	0	0	349	616
15	0	0	0	0	350	616
0	0	0	0	0	350	617
1	0	0	0	0	350	615
2	0	0	0	0	351	616
3	0	0	0	0	351	616
4	0	0	0	0	352	612
5	0	0	0	0	353	615
6	0	0	0	0	354	615
7	0	0	0	0	355	615
8	0	0	0	0	357	617
9	0	0	0	0	359	615
10	0	0	0	0	359	615
11	0	0	0	0	361	615
12	0	0	0	0	362	613
13	0	0	0	0	363	615
14	0	0	0	0	364	615
15	0	0	0	0	365	615
0	0	0	0	0	365	617
1	0	0	0	0	365	615
2	0	0	0	0	365	615
3	0	0	0	0	365	615
4	0	0	0	0	364	612
5	0	0	0	0	365	615
6	0	0	0	0	366	615
7	0	0	0	0	367	615
8	0	0	0	0	368	617
9	0	0	0	0	369	615
10	0	0	0	0	371	615
11	0	0	0	0	374	616
12	0	0	0	0	376	613
13	0	0	0	0	376	615
14	0	0	0	0	377	615
15	0	0	0	0	379	616
0	0	0	0	0	380	618
1	0	0	0	0	380	615
2	0	0	0	0	380	615
3	0	0	0	0	380	615
4	0	0	0	0	379	613
5	0	0	0	0	379	615
6	0	0	0	0	379	616
7	0	0	0	0	378	615
8	0	0	0	0	379	618
9	0	0	0	0	381	616
10	0	0	0	0	381	616
11	0	0	0	0	382	616
12	0	0	0	0	382	614
13	0	0	0	0	383	616
14	0	0	0	0	384	616
15	0	0	0	0	384	616
0	0	0	0	0	385	619
1	0	0	0	0	387	615
2	0	0	0	0	388	615
3	0	0	0	0	389	615
4	0	0	0	0	390	613
5	0	0	0	0	391	616
6	0	0	0	0	392	616
7	0	0	0	0	392	616
8	0	0	0	0	391	619
9	0	0	0	0	391	616
10	0	0	0	0	390	616
11	0	0	0	0	389	617
12	0	0	0	0	389	614
13	0	0	0	0	388	616
14	0	0	0	0	388	616
15	0	0	0	0	389	616
0	0	0	0	0	389	618
1	0	0	0	0	390	616
2	0	0	0	0	390	616
3	0	0	0	0	391	616
4	0	0	0	0	391	613
5	0	0	0	0	391	616
6	0	0	0	0	390	616
7	0	0	0	0	390	616
8	0	0	0	0	389	619
9	0	0	0	0	387	616
10	0	0	0	0	387	615
11	0	0	0	0	386	615
12	0	0	0	0	384	613
13	0	0	0	0	384	616
14	0	0	0	0	382	615
15	0	0	0	0	381	615
0	0	0	0	0	380	618
1	0	0	0	0	379	616
2	0	0	0	0	379	615
3	0	0	0	0	379	615
4	0	0	0	0	379	613
5	0	0	0	0	379	615
6	0	0	0	0	379	616
7	0	0	0	0	378	615
8	0	0	0	0	379	618
9	0	0	0	0	379	615
10	0	0	0	0	378	616
11	0	0	0	0	377	615
12	0	0	0	0	376	614
13	0	0	0	0	375	615
14	0	0	0	0	374	616
15	0	0	0	0	371	615
0	0	0	0	0	370	619
1	0	0	0	0	368	615
2	0	0	0	0	367	616
3	0	0	0	0	365	615
4	0	0	0	0	364	614
5	0	0	0	0	362	616
6	0	0	0	0	361	616
7	0	0	0	0	360	615
8	0	0	0	0	361	618
9	0	0	0	0	361	616
10	0	0	0	0	363	616
11	0	0	0	0	364	617
12	0	0	0	0	364	615
13	0	0	0	0	365	616
14	0	0	0	0	365	616
15	0	0	0	0	365	617
0	0	0	0	0	365	620
1	0	0	0	0	366	617
2	0	0	0	0	366	617
3	0	0	0	0	366	617
4	0	0	0	0	365	615
5	0	0	0	0	365	617
6	0	0	0	0	365	617
7	0	0	0	0	367	617
8	0	0	0	0	368	619
9	0	0	0	0	370	617
10	0	0	0	0	371	617
11	0	0	0	0	373	617
12	0	0	0	0	375	615
13	0	0	0	0	377	617
14	0	0	0	0	380	617
15	0	0	0	0	383	617
0	0	0	0	0	385	620
1	0	0	0	0	387	617
2	0	0	0	0	389	617
3	0	0	0	0	391	618
4	0	0	0	0	393	614
5	0	0	0	0	396	617
6	0	0	0	0	398	617
7	0	0	0	0	400	616
8	0	0	0	0	402	619
9	0	0	0	0	405	617
10	0	0	0	0	408	617
11	0	0	0	0	410	617
12	0	0	0	0	413	615
13	0	0	0	0	415	616
14	0	0	0	0	419	617
15	0	0	0	0	422	616
0	0	0	0	0	425	619
1	0	0	0	0	428	616
2	0	0	0	0	433	616
3	0	0	0	0	438	616
4	0	0	0	0	441	614
5	0	0	0	0	445	617
6	0	0	0	0	449	616
7	0	0	0	0	454	616
8	0	0	0	0	458	618
9	0	0	0	0	463	616
10	0	0	0	0	467	616
11	0	0	0	0	470	616
12	0	0	0	0	474	614
13	0	0	0	0	477	616
14	0	0	0	0	480	616
15	0	0	0	0	483	616
0	0	0	0	0	486	618
1	0	0	0	0	489	616
2	0	0	0	0	492	615
3	0	0	0	0	494	616
4	0	0	0	0	497	614
5	0	0	0	0	500	616
6	0	0	0	0	503	616
7	0	0	0	0	506	615
8	0	0	0	0	510	618
9	0	0	0	0	514	615
10	0	0	0	0	517	615
11	0	0	0	0	521	616
12	0	0	0	0	524	612
13	0	0	0	0	527	615
14	0	0	0	0	530	615
15	0	0	0	0	532	615
0	0	0	0	0	536	617
1	0	0	0	0	537	615
2	0	0	0	0	540	615
3	0	0	0	0	542	615
4	0	0	0	0	543	612
5	0	0	0	0	546	615
6	0	0	0	0	548	615
7	0	0	0	0	551	614
8	0	0	0	0	552	616
9	0	0	0	0	555	614
10	0	0	0	0	557	615
11	0	0	0	0	559	615
12	0	0	0	0	561	611
13	0	0	0	0	563	614
14	0	0	0	0	565	614
15	0	0	0	0	567	613
0	0	0	0	0	568	616
1	0	0	0	0	568	614
2	0	0	0	0	569	615
3	0	0	0	0	569	615
4	0	0	0	0	570	611
5	0	0	0	0	571	615
6	0	0	0	0	571	614
7	0	0	0	0	571	614
8	0	0	0	0	572	616
9	0	0	0	0	572	615
10	0	0	0	0	574	615
11	0	0	0	0	574	614
12	0	0	0	0	574	613
13	0	0	0	0	575	615
14	0	0	0	0	577	615
15	0	0	0	0	578	615
0	0	0	0	0	579	617
1	0	0	0	0	579	615
2	0	0	0	0	580	615
3	0	0	0	0	581	615
4	0	0	0	0	581	613
5	0	0	0	0	581	616
6	0	0	0	0	580	615
7	0	0	0	0	580	615
8	0	0	0	0	579	619
9	0	0	0	0	577	615
10	0	0	0	0	576	616
11	0	0	0	0	576	616
12	0	0	0	0	575	614
13	0	0	0	0	575	617
14	0	0	0	0	574	616
15	0	0	0	0	574	616
0	0	0	0	0	573	619
1	0	0	0	0	573	617
2	0	0	0	0	574	616
3	0	0	0	0	575	616
4	0	0	0	0	575	614
5	0	0	0	0	575	617
6	0	0	0	0	574	616
7	0	0	0	0	574	616
8	0	0	0	0	573	619
9	0	0	0	0	573	617
10	0	0	0	0	573	617
11	0	0	0	0	572	617
12	0	0	0	0	571	614
13	0	0	0	0	569	617
14	0	0	0	0	568	617
15	0	0	0	0	567	617
0	0	0	0	0	564	620
1	0	0	0	0	563	617
2	0	0	0	0	563	617
3	0	0	0	0	562	617
4	0	0	0	0	562	615
5	0	0	0	0	561	617
6	0	0	0	0	562	617
7	0	0	0	0	561	617
8	0	0	0	0	561	620
9	0	0	0	0	562	617
10	0	0	0	0	561	617
11	0	0	0	0	561	617
12	0	0	0	0	561	615
13	0	0	0	0	561	617
14	0	0	0	0	560	617
15	0	0	0	0	559	617
0	0	0	0	0	558	620
1	0	0	0	0	557	617
2	0	0	0	0	555	617
3	0	0	0	0	553	617
4	0	0	0	0	552	614
5	0	0	0	0	551	616
6	0	0	0	0	550	617
7	0	0	0	0	550	617
8	0	0	0	0	550	619
9	0	0	0	0	550	616
10	0	0	0	0	551	616
11	0	0	0	0	551	616
12	0	0	0	0	551	614
13	0	0	0	0	552	616
14	0	0	0	0	551	615
15	0	0	0	0	551	616
0	0	0	0	0	551	619
1	0	0	0	0	549	615
2	0	0	0	0	548	615
3	0	0	0	0	547	615
4	0	0	0	0	546	614
5	0	0	0	0	545	615
6	0	0	0	0	544	615
7	0	0	0	0	543	616
8	0	0	0	0	542	618
9	0	0	0	0	541	616
10	0	0	0	0	540	615
11	0	0	0	0	541	615
12	0	0	0	0	540	613
13	0	0	0	0	540	615
14	0	0	0	0	541	615
15	0	0	0	0	541	615
0	0	0	0	0	542	618
1	0	0	0	0	542	615
2	0	0	0	0	542	615
3	0	0	0	0	542	616
4	0	0	0	0	542	613
5	0	0	0	0	542	615
6	0	0	0	0	541	615
7	0	0	0	0	541	615
8	0	0	0	0	540	618
9	0	0	0	0	539	615
10	0	0	0	0	537	615
11	0	0	0	0	536	615
12	0	0	0	0	536	612
13	0	0	0	0	535	615
14	0	0	0	0	535	615
15	0	0	0	0	536	615
0	0	0	0	0	536	617
1	0	0	0	0	536	615
2	0	0	0	0	536	615
3	0	0	0	0	537	615
4	0	0	0	0	538	612
5	0	0	0	0	539	615
6	0	0	0	0	539	615
7	0	0	0	0	539	615
8	0	0	0	0	539	617
9	0	0	0	0	538	615
10	0	0	0	0	538	615
11	0	0	0	0	536	614
12	0	0	0	0	536	613
13	0	0	0	0	534	615
14	0	0	0	0	532	615
15	0	0	0	0	531	615
0	0	0	0	0	529	617
1	0	0	0	0	528	615
2	0	0	0	0	527	616
3	0	0	0	0	526	615
4	0	0	0	0	526	613
5	0	0	0	0	526	615
6	0	0	0	0	527	616
7	0	0	0	0	527	615
8	0	0	0	0	529	618
9	0	0	0	0	530	615
10	0	0	0	0	530	616
11	0	0	0	0	531	617
12	0	0	0	0	530	613
13	0	0	0	0	529	616
14	0	0	0	0	528	615
15	0	0	0	0	527	616
0	0	0	0	0	527	619
1	0	0	0	0	525	616
2	0	0	0	0	523	616
3	0	0	0	0	522	616
4	0	0	0	0	521	614
5	0	0	0	0	521	616
6	0	0	0	0	520	616
7	0	0	0	0	520	617
8	0	0	0	0	520	619
9	0	0	0	0	520	616
10	0	0	0	0	521	616
11	0	0	0	0	521	616
12	0	0	0	0	523	614
13	0	0	0	0	524	616
14	0	0	0	0	525	616
15	0	0	0	0	526	616
0	0	0	0	0	528	619
1	0	0	0	0	530	616
2	0	0	0	0	531	616
3	0	0	0	0	531	616
4	0	0	0	0	533	614
5	0	0	0	0	535	617
6	0	0	0	0	535	617
7	0	0	0	0	535	617
8	0	0	0	0	536	619
9	0	0	0	0	536	618
10	0	0	0	0	537	618
11	0	0	0	0	538	617
12	0	0	0	0	540	615
13	0	0	0	0	540	617
14	0	0	0	0	541	617
15	0	0	0	0	542	617
0	0	0	0	0	542	619
1	0	0	0	0	543	617
2	0	0	0	0	543	617
3	0	0	0	0	543	617
4	0	0	0	0	543	615
5	0	0	0	0	543	617
6	0	0	0	0	543	616
7	0	0	0	0	543	616
8	0	0	0	0	543	619
9	0	0	0	0	542	616
10	0	0	0	0	540	616
11	0	0	0	0	537	615
12	0	0	0	0	536	614
13	0	0	0	0	535	617
14	0	0	0	0	534	616
15	0	0	0	0	532	616
0	0	0	0	0	532	618
1	0	0	0	0	531	615
2	0	0	0	0	531	616
3	0	0	0	0	532	616
4	0	0	0	0	532	614
5	0	0	0	0	532	616
6	0	0	0	0	532	616
7	0	0	0	0	532	616
8	0	0	0	0	532	618
9	0	0	0	0	533	616
10	0	0	0	0	533	616
11	0	0	0	0	534	615
12	0	0	0	0	534	614
13	0	0	0	0	534	616
14	0	0	0	0	535	616
15	0	0	0	0	534	615
0	0	0	0	0	532	618
1	0	0	0	0	531	616
2	0	0	0	0	530	615
3	0	0	0	0	530	616
4	0	0	0	0	531	613
5	0	0	0	0	531	615
6	0	0	0	0	532	616
7	0	0	0	0	533	615
8	0	0	0	0	534	617
9	0	0	0	0	534	615
10	0	0	0	0	535	615
11	0	0	0	0	535	615
12	0	0	0	0	534	613
13	0	0	0	0	534	615
14	0	0	0	0	534	615
15	0	0	0	0	533	615
0	0	0	0	0	531	618
1	0	0	0	0	531	615
2	0	0	0	0	530	616
3	0	0	0	0	529	616
4	0	0	0	0	527	613
5	0	0	0	0	527	616
6	0	0	0	0	526	615
7	0	0	0	0	525	615
8	0	0	0	0	525	618
9	0	0	0	0	525	615
10	0	0	0	0	526	616
11	0	0	0	0	526	616
12	0	0	0	0	527	613
13	0	0	0	0	528	616
14	0	0	0	0	528	615
15	0	0	0	0	529	615
0	0	0	0	0	529	618
1	0	0	0	0	529	616
2	0	0	0	0	528	615
3	0	0	0	0	528	615
4	0	0	0	0	527	614
5	0	0	0	0	527	615
6	0	0	0	0	526	616
7	0	0	0	0	525	616
8	0	0	0	0	523	617
9	0	0	0	0	522	616
10	0	0	0	0	519	616
11	0	0	0	0	517	616
12	0	0	0	0	515	614
13	0	0	0	0	512	615
14	0	0	0	0	509	616
15	0	0	0	0	504	616
0	0	0	0	0	499	619
1	0	0	0	0	492	616
2	0	0	0	0	486	615
3	0	0	0	0	479	616
4	0	0	0	0	472	614
5	0	0	0	0	466	616
6	0	0	0	0	460	615
7	0	0	0	0	456	616
8	0	0	0	0	454	618
9	0	0	0	0	452	616
10	0	0	0	0	451	616
11	0	0	0	0	448	616
12	0	0	0	0	444	613
13	0	0	0	0	442	615
14	0	0	0	0	443	616
15	0	0	0	0	445	615
0	0	0	0	0	448	618
1	0	0	0	0	458	616
2	0	0	0	0	471	616
3	0	0	0	0	488	616
4	0	0	0	0	511	613
5	0	0	0	0	537	616
6	0	0	0	0	569	616
7	0	0	0	0	607	616
8	0	0	0	0	652	619
9	0	0	0	0	695	616
10	0	0	0	0	740	615
11	0	0	0	0	788	615
12	0	0	0	0	842	614
13	0	0	0	0	900	615
14	0	0	0	0	958	615
15	0	0	0	0	1009	615
0	0	0	0	0	1022	618
1	0	0	0	0	1022	616
2	0	0	0	0	1022	616
3	0	0	0	0	1022	615
4	0	0	0	0	1022	613
5	0	0	0	0	1022	616
6	0	0	0	0	1022	615
7	0	0	0	0	1022	615
8	0	0	0	0	1022	619
9	0	0	0	0	1022	615
10	0	0	0	0	1022	615
11	0	0	0	0	1022	616
12	0	0	0	0	1022	613
13	0	0	0	0	1022	615
14	0	0	0	0	1022	615
15	0	0	0	0	1022	615
0	0	0	0	0	1022	617
1	0	0	0	0	985	615
2	0	0	0	0	932	615
3	0	0	0	0	874	615
4	0	0	0	0	814	612
5	0	0	0	0	757	615
6	0	0	0	0	705	615
7	0	0	0	0	658	615
8	0	0	0	0	616	618
9	0	0	0	0	582	615
10	0	0	0	0	554	615
11	0	0	0	0	531	615
